value	EMG	Stimulus	EMG_sensitivity	Total_Trial_Nr	practise	acq	probe_nr	Startle_Probe
21	2	7	10000	1	1	0	1	0
22	3	7	10000	1	1	0	1	0
22	4	7	10000	1	1	0	1	0
20	5	7	10000	1	1	0	1	0
20	6	7	10000	1	1	0	1	0
18	7	7	10000	1	1	0	1	0
19	8	7	10000	1	1	0	1	0
19	9	7	10000	1	1	0	1	0
18	10	7	10000	1	1	0	1	0
17	11	7	10000	1	1	0	1	0
17	12	7	10000	1	1	0	1	0
18	13	7	10000	1	1	0	1	0
17	14	7	10000	1	1	0	1	0
18	15	7	10000	1	1	0	1	0
17	16	7	10000	1	1	0	1	0
17	17	7	10000	1	1	0	1	0
16	18	7	10000	1	1	0	1	0
18	19	7	10000	1	1	0	1	0
19	20	7	10000	1	1	0	1	0
18	21	7	10000	1	1	0	1	0
17	21	7	10000	1	1	0	1	0
19	22	7	10000	1	1	0	1	0
20	24	7	10000	1	1	0	1	0
20	25	7	10000	1	1	0	1	0
20	26	7	10000	1	1	0	1	0
21	27	7	10000	1	1	0	1	0
22	28	7	10000	1	1	0	1	0
21	29	7	10000	1	1	0	1	0
21	30	7	10000	1	1	0	1	0
21	31	7	10000	1	1	0	1	0
22	31	7	10000	1	1	0	1	0
20	32	7	10000	1	1	0	1	0
20	34	7	10000	1	1	0	1	0
20	35	7	10000	1	1	0	1	0
21	36	7	10000	1	1	0	1	0
21	37	7	10000	1	1	0	1	0
20	38	7	10000	1	1	0	1	0
20	39	7	10000	1	1	0	1	0
21	40	7	10000	1	1	0	1	0
21	41	7	10000	1	1	0	1	0
21	41	7	10000	1	1	0	1	0
20	42	7	10000	1	1	0	1	0
20	44	7	10000	1	1	0	1	0
20	45	7	10000	1	1	0	1	0
19	46	7	10000	1	1	0	1	0
18	47	7	10000	1	1	0	1	0
20	48	7	10000	1	1	0	1	0
20	49	7	10000	1	1	0	1	0
20	50	7	10000	1	1	0	1	0
20	51	7	10000	1	1	0	1	0
20	51	7	10000	1	1	0	1	0
20	52	7	10000	1	1	0	1	0
19	54	7	10000	1	1	0	1	0
19	55	7	10000	1	1	0	1	0
19	56	7	10000	1	1	0	1	0
19	57	7	10000	1	1	0	1	0
16	58	7	10000	1	1	0	1	0
17	59	7	10000	1	1	0	1	0
17	60	7	10000	1	1	0	1	0
17	61	7	10000	1	1	0	1	0
16	61	7	10000	1	1	0	1	0
16	62	7	10000	1	1	0	1	0
17	64	7	10000	1	1	0	1	0
16	65	7	10000	1	1	0	1	0
16	66	7	10000	1	1	0	1	0
16	67	7	10000	1	1	0	1	0
19	68	7	10000	1	1	0	1	0
18	69	7	10000	1	1	0	1	0
17	70	7	10000	1	1	0	1	0
17	71	7	10000	1	1	0	1	0
16	71	7	10000	1	1	0	1	0
16	72	7	10000	1	1	0	1	0
16	74	7	10000	1	1	0	1	0
16	75	7	10000	1	1	0	1	0
17	76	7	10000	1	1	0	1	0
16	77	7	10000	1	1	0	1	0
16	78	7	10000	1	1	0	1	0
18	79	7	10000	1	1	0	1	0
19	80	7	10000	1	1	0	1	0
22	81	7	10000	1	1	0	1	0
25	81	7	10000	1	1	0	1	0
25	82	7	10000	1	1	0	1	0
25	84	7	10000	1	1	0	1	0
23	85	7	10000	1	1	0	1	0
23	86	7	10000	1	1	0	1	0
23	87	7	10000	1	1	0	1	0
24	88	7	10000	1	1	0	1	0
23	89	7	10000	1	1	0	1	0
21	90	7	10000	1	1	0	1	0
22	91	7	10000	1	1	0	1	0
21	91	7	10000	1	1	0	1	0
21	92	7	10000	1	1	0	1	0
23	94	7	10000	1	1	0	1	0
23	95	7	10000	1	1	0	1	0
23	96	7	10000	1	1	0	1	0
24	97	7	10000	1	1	0	1	0
21	98	7	10000	1	1	0	1	0
22	99	7	10000	1	1	0	1	0
22	100	7	10000	1	1	0	1	0
23	101	7	10000	1	1	0	1	0
22	101	7	10000	1	1	0	1	0
21	102	7	10000	1	1	0	1	0
21	104	7	10000	1	1	0	1	0
22	105	7	10000	1	1	0	1	0
22	106	7	10000	1	1	0	1	0
22	107	7	10000	1	1	0	1	0
24	108	7	10000	1	1	0	1	0
24	109	7	10000	1	1	0	1	0
24	110	7	10000	1	1	0	1	0
24	111	7	10000	1	1	0	1	0
24	111	7	10000	1	1	0	1	0
23	112	7	10000	1	1	0	1	0
23	114	7	10000	1	1	0	1	0
22	115	7	10000	1	1	0	1	0
22	116	7	10000	1	1	0	1	0
21	117	7	10000	1	1	0	1	0
19	118	7	10000	1	1	0	1	0
19	119	7	10000	1	1	0	1	0
19	120	7	10000	1	1	0	1	0
18	121	7	10000	1	1	0	1	0
18	121	7	10000	1	1	0	1	0
18	122	7	10000	1	1	0	1	0
19	124	7	10000	1	1	0	1	0
18	125	7	10000	1	1	0	1	0
17	126	7	10000	1	1	0	1	0
17	127	7	10000	1	1	0	1	0
20	128	7	10000	1	1	0	1	0
20	129	7	10000	1	1	0	1	0
19	130	7	10000	1	1	0	1	0
21	131	7	10000	1	1	0	1	0
21	131	7	10000	1	1	0	1	0
22	132	7	10000	1	1	0	1	0
21	134	7	10000	1	1	0	1	0
21	135	7	10000	1	1	0	1	0
21	136	7	10000	1	1	0	1	0
21	137	7	10000	1	1	0	1	0
20	138	7	10000	1	1	0	1	0
21	139	7	10000	1	1	0	1	0
20	140	7	10000	1	1	0	1	0
20	141	7	10000	1	1	0	1	0
20	141	7	10000	1	1	0	1	0
19	142	7	10000	1	1	0	1	0
18	144	7	10000	1	1	0	1	0
18	145	7	10000	1	1	0	1	0
18	146	7	10000	1	1	0	1	0
17	147	7	10000	1	1	0	1	0
20	148	7	10000	1	1	0	1	0
20	149	7	10000	1	1	0	1	0
21	150	7	10000	1	1	0	1	0
20	151	7	10000	1	1	0	1	0
20	151	7	10000	1	1	0	1	0
20	152	7	10000	1	1	0	1	0
19	154	7	10000	1	1	0	1	0
19	155	7	10000	1	1	0	1	0
20	156	7	10000	1	1	0	1	0
19	157	7	10000	1	1	0	1	0
17	158	7	10000	1	1	0	1	0
18	159	7	10000	1	1	0	1	0
18	160	7	10000	1	1	0	1	0
18	161	7	10000	1	1	0	1	0
19	161	7	10000	1	1	0	1	0
20	162	7	10000	1	1	0	1	0
19	164	7	10000	1	1	0	1	0
19	165	7	10000	1	1	0	1	0
18	166	7	10000	1	1	0	1	0
18	167	7	10000	1	1	0	1	0
20	168	7	10000	1	1	0	1	0
19	169	7	10000	1	1	0	1	0
19	170	7	10000	1	1	0	1	0
17	171	7	10000	1	1	0	1	0
17	171	7	10000	1	1	0	1	0
18	172	7	10000	1	1	0	1	0
16	174	7	10000	1	1	0	1	0
16	175	7	10000	1	1	0	1	0
16	176	7	10000	1	1	0	1	0
16	177	7	10000	1	1	0	1	0
15	178	7	10000	1	1	0	1	0
15	179	7	10000	1	1	0	1	0
15	180	7	10000	1	1	0	1	0
15	181	7	10000	1	1	0	1	0
15	181	7	10000	1	1	0	1	0
14	182	7	10000	1	1	0	1	0
15	184	7	10000	1	1	0	1	0
17	185	7	10000	1	1	0	1	0
17	186	7	10000	1	1	0	1	0
17	187	7	10000	1	1	0	1	0
18	188	7	10000	1	1	0	1	0
20	189	7	10000	1	1	0	1	0
25	190	7	10000	1	1	0	1	0
26	191	7	10000	1	1	0	1	0
27	191	7	10000	1	1	0	1	0
30	192	7	10000	1	1	0	1	0
32	194	7	10000	1	1	0	1	0
36	195	7	10000	1	1	0	1	0
37	196	7	10000	1	1	0	1	0
39	197	7	10000	1	1	0	1	0
36	198	7	10000	1	1	0	1	0
35	199	7	10000	1	1	0	1	0
34	200	7	10000	1	1	0	1	0
33	201	7	10000	1	1	0	1	0
33	201	7	10000	1	1	0	1	0
32	202	7	10000	1	1	0	1	0
31	204	7	10000	1	1	0	1	0
29	205	7	10000	1	1	0	1	0
28	206	7	10000	1	1	0	1	0
27	207	7	10000	1	1	0	1	0
27	208	7	10000	1	1	0	1	0
26	209	7	10000	1	1	0	1	0
26	210	7	10000	1	1	0	1	0
24	211	7	10000	1	1	0	1	0
24	211	7	10000	1	1	0	1	0
24	212	7	10000	1	1	0	1	0
23	214	7	10000	1	1	0	1	0
24	215	7	10000	1	1	0	1	0
24	216	7	10000	1	1	0	1	0
23	217	7	10000	1	1	0	1	0
20	218	7	10000	1	1	0	1	0
20	219	7	10000	1	1	0	1	0
21	220	7	10000	1	1	0	1	0
22	221	7	10000	1	1	0	1	0
21	221	7	10000	1	1	0	1	0
21	222	7	10000	1	1	0	1	0
22	224	7	10000	1	1	0	1	0
19	225	7	10000	1	1	0	1	0
18	226	7	10000	1	1	0	1	0
18	227	7	10000	1	1	0	1	0
19	228	7	10000	1	1	0	1	0
18	229	7	10000	1	1	0	1	0
17	230	7	10000	1	1	0	1	0
17	231	7	10000	1	1	0	1	0
17	231	7	10000	1	1	0	1	0
17	232	7	10000	1	1	0	1	0
17	234	7	10000	1	1	0	1	0
18	235	7	10000	1	1	0	1	0
18	236	7	10000	1	1	0	1	0
17	237	7	10000	1	1	0	1	0
16	238	7	10000	1	1	0	1	0
16	239	7	10000	1	1	0	1	0
16	240	7	10000	1	1	0	1	0
17	241	7	10000	1	1	0	1	0
18	241	7	10000	1	1	0	1	0
21	242	7	10000	1	1	0	1	0
24	244	7	10000	1	1	0	1	0
23	245	7	10000	1	1	0	1	0
23	246	7	10000	1	1	0	1	0
22	247	7	10000	1	1	0	1	0
24	248	7	10000	1	1	0	1	0
24	249	7	10000	1	1	0	1	0
24	250	7	10000	1	1	0	1	0
23	251	7	10000	1	1	0	1	0
24	251	7	10000	1	1	0	1	0
24	252	7	10000	1	1	0	1	0
26	254	7	10000	1	1	0	1	0
30	255	7	10000	1	1	0	1	0
32	256	7	10000	1	1	0	1	0
34	257	7	10000	1	1	0	1	0
37	258	7	10000	1	1	0	1	0
39	259	7	10000	1	1	0	1	0
40	260	7	10000	1	1	0	1	0
43	261	7	10000	1	1	0	1	0
46	261	7	10000	1	1	0	1	0
51	262	7	10000	1	1	0	1	0
56	264	7	10000	1	1	0	1	0
62	265	7	10000	1	1	0	1	0
68	266	7	10000	1	1	0	1	0
71	267	7	10000	1	1	0	1	0
73	268	7	10000	1	1	0	1	0
72	269	7	10000	1	1	0	1	0
70	270	7	10000	1	1	0	1	0
71	271	7	10000	1	1	0	1	0
71	271	7	10000	1	1	0	1	0
72	272	7	10000	1	1	0	1	0
75	274	7	10000	1	1	0	1	0
81	275	7	10000	1	1	0	1	0
83	276	7	10000	1	1	0	1	0
84	277	7	10000	1	1	0	1	0
82	278	7	10000	1	1	0	1	0
81	279	7	10000	1	1	0	1	0
81	280	7	10000	1	1	0	1	0
83	281	7	10000	1	1	0	1	0
84	281	7	10000	1	1	0	1	0
86	282	7	10000	1	1	0	1	0
87	284	7	10000	1	1	0	1	0
87	285	7	10000	1	1	0	1	0
84	286	7	10000	1	1	0	1	0
81	287	7	10000	1	1	0	1	0
80	288	7	10000	1	1	0	1	0
77	289	7	10000	1	1	0	1	0
73	290	7	10000	1	1	0	1	0
70	291	7	10000	1	1	0	1	0
69	291	7	10000	1	1	0	1	0
66	292	7	10000	1	1	0	1	0
62	294	7	10000	1	1	0	1	0
60	295	7	10000	1	1	0	1	0
59	296	7	10000	1	1	0	1	0
58	297	7	10000	1	1	0	1	0
57	298	7	10000	1	1	0	1	0
61	299	7	10000	1	1	0	1	0
63	300	7	10000	1	1	0	1	0
66	301	7	10000	1	1	0	1	0
69	301	7	10000	1	1	0	1	0
72	302	7	10000	1	1	0	1	0
76	304	7	10000	1	1	0	1	0
79	305	7	10000	1	1	0	1	0
80	306	7	10000	1	1	0	1	0
79	307	7	10000	1	1	0	1	0
81	308	7	10000	1	1	0	1	0
82	309	7	10000	1	1	0	1	0
85	310	7	10000	1	1	0	1	0
90	311	7	10000	1	1	0	1	0
92	311	7	10000	1	1	0	1	0
93	312	7	10000	1	1	0	1	0
96	314	7	10000	1	1	0	1	0
100	315	7	10000	1	1	0	1	0
104	316	7	10000	1	1	0	1	0
108	317	7	10000	1	1	0	1	0
109	318	7	10000	1	1	0	1	0
110	319	7	10000	1	1	0	1	0
112	320	7	10000	1	1	0	1	0
114	321	7	10000	1	1	0	1	0
114	321	7	10000	1	1	0	1	0
116	322	7	10000	1	1	0	1	0
116	324	7	10000	1	1	0	1	0
116	325	7	10000	1	1	0	1	0
116	326	7	10000	1	1	0	1	0
116	327	7	10000	1	1	0	1	0
117	328	7	10000	1	1	0	1	0
116	329	7	10000	1	1	0	1	0
116	330	7	10000	1	1	0	1	0
112	331	7	10000	1	1	0	1	0
109	331	7	10000	1	1	0	1	0
108	332	7	10000	1	1	0	1	0
105	334	7	10000	1	1	0	1	0
104	335	7	10000	1	1	0	1	0
103	336	7	10000	1	1	0	1	0
102	337	7	10000	1	1	0	1	0
98	338	7	10000	1	1	0	1	0
97	339	7	10000	1	1	0	1	0
95	340	7	10000	1	1	0	1	0
92	341	7	10000	1	1	0	1	0
89	341	7	10000	1	1	0	1	0
88	342	7	10000	1	1	0	1	0
86	344	7	10000	1	1	0	1	0
86	345	7	10000	1	1	0	1	0
85	346	7	10000	1	1	0	1	0
83	347	7	10000	1	1	0	1	0
83	348	7	10000	1	1	0	1	0
80	349	7	10000	1	1	0	1	0
76	350	7	10000	1	1	0	1	0
73	351	7	10000	1	1	0	1	0
70	351	7	10000	1	1	0	1	0
68	352	7	10000	1	1	0	1	0
66	354	7	10000	1	1	0	1	0
66	355	7	10000	1	1	0	1	0
66	356	7	10000	1	1	0	1	0
66	357	7	10000	1	1	0	1	0
63	358	7	10000	1	1	0	1	0
62	359	7	10000	1	1	0	1	0
60	360	7	10000	1	1	0	1	0
57	361	7	10000	1	1	0	1	0
56	361	7	10000	1	1	0	1	0
53	362	7	10000	1	1	0	1	0
51	364	7	10000	1	1	0	1	0
49	365	7	10000	1	1	0	1	0
47	366	7	10000	1	1	0	1	0
46	367	7	10000	1	1	0	1	0
46	368	7	10000	1	1	0	1	0
47	369	7	10000	1	1	0	1	0
47	370	7	10000	1	1	0	1	0
45	371	7	10000	1	1	0	1	0
43	371	7	10000	1	1	0	1	0
42	372	7	10000	1	1	0	1	0
41	374	7	10000	1	1	0	1	0
39	375	7	10000	1	1	0	1	0
40	376	7	10000	1	1	0	1	0
42	377	7	10000	1	1	0	1	0
39	378	7	10000	1	1	0	1	0
38	379	7	10000	1	1	0	1	0
36	380	7	10000	1	1	0	1	0
36	381	7	10000	1	1	0	1	0
36	381	7	10000	1	1	0	1	0
36	382	7	10000	1	1	0	1	0
37	384	7	10000	1	1	0	1	0
35	385	7	10000	1	1	0	1	0
34	386	7	10000	1	1	0	1	0
35	387	7	10000	1	1	0	1	0
38	388	7	10000	1	1	0	1	0
36	389	7	10000	1	1	0	1	0
34	398	7	10000	1	1	0	1	0
34	399	7	10000	1	1	0	1	0
33	400	7	10000	1	1	0	1	0
32	401	7	10000	1	1	0	1	0
32	402	7	10000	1	1	0	1	0
32	403	7	10000	1	1	0	1	0
31	404	7	10000	1	1	0	1	0
30	405	7	10000	1	1	0	1	0
28	406	7	10000	1	1	0	1	0
28	407	7	10000	1	1	0	1	0
27	407	7	10000	1	1	0	1	0
26	408	7	10000	1	1	0	1	0
25	409	7	10000	1	1	0	1	0
25	410	7	10000	1	1	0	1	0
25	411	7	10000	1	1	0	1	0
24	412	7	10000	1	1	0	1	0
23	413	7	10000	1	1	0	1	0
24	414	7	10000	1	1	0	1	0
26	413	7	10000	1	1	0	1	0
26	414	7	10000	1	1	0	1	0
26	415	7	10000	1	1	0	1	0
25	416	7	10000	1	1	0	1	0
25	417	7	10000	1	1	0	1	0
24	418	7	10000	1	1	0	1	0
24	419	7	10000	1	1	0	1	0
25	420	7	10000	1	1	0	1	0
27	421	7	10000	1	1	0	1	0
27	422	7	10000	1	1	0	1	0
25	423	7	10000	1	1	0	1	0
25	424	7	10000	1	1	0	1	0
24	425	7	10000	1	1	0	1	0
24	426	7	10000	1	1	0	1	0
24	427	7	10000	1	1	0	1	0
23	428	7	10000	1	1	0	1	0
22	427	7	10000	1	1	0	1	0
21	428	7	10000	1	1	0	1	0
20	429	7	10000	1	1	0	1	0
19	430	7	10000	1	1	0	1	0
22	431	7	10000	1	1	0	1	0
21	432	7	10000	1	1	0	1	0
20	432	7	10000	1	1	0	1	0
20	433	7	10000	1	1	0	1	0
19	434	7	10000	1	1	0	1	0
19	435	7	10000	1	1	0	1	0
18	438	7	10000	1	1	0	1	0
19	439	7	10000	1	1	0	1	0
19	440	7	10000	1	1	0	1	0
19	441	7	10000	1	1	0	1	0
17	442	7	10000	1	1	0	1	0
18	443	7	10000	1	1	0	1	0
17	443	7	10000	1	1	0	1	0
17	444	7	10000	1	1	0	1	0
16	445	7	10000	1	1	0	1	0
16	446	7	10000	1	1	0	1	0
17	447	7	10000	1	1	0	1	0
17	448	7	10000	1	1	0	1	0
17	449	7	10000	1	1	0	1	0
17	450	7	10000	1	1	0	1	0
21	451	7	10000	1	1	0	1	0
20	452	7	10000	1	1	0	1	0
20	453	7	10000	1	1	0	1	0
20	454	7	10000	1	1	0	1	0
20	454	7	10000	1	1	0	1	0
19	455	7	10000	1	1	0	1	0
20	456	7	10000	1	1	0	1	0
23	457	7	10000	1	1	0	1	0
25	459	7	10000	1	1	0	1	0
26	460	7	10000	1	1	0	1	0
26	461	7	10000	1	1	0	1	0
29	462	7	10000	1	1	0	1	0
30	463	7	10000	1	1	0	1	0
34	464	7	10000	1	1	0	1	0
38	466	7	10000	1	1	0	1	0
38	467	7	10000	1	1	0	1	0
37	468	7	10000	1	1	0	1	0
35	469	7	10000	1	1	0	1	0
36	470	7	10000	1	1	0	1	0
37	471	7	10000	1	1	0	1	0
40	470	7	10000	1	1	0	1	0
40	471	7	10000	1	1	0	1	0
39	472	7	10000	1	1	0	1	0
37	473	7	10000	1	1	0	1	0
36	477	7	10000	1	1	0	1	0
35	478	7	10000	1	1	0	1	0
33	479	7	10000	1	1	0	1	0
35	480	7	10000	1	1	0	1	0
35	481	7	10000	1	1	0	1	0
35	482	7	10000	1	1	0	1	0
32	483	7	10000	1	1	0	1	0
33	484	7	10000	1	1	0	1	0
38	481	7	10000	1	1	0	1	0
46	482	7	10000	1	1	0	1	0
54	483	7	10000	1	1	0	1	0
60	484	7	10000	1	1	0	1	0
67	483	7	10000	1	1	0	1	0
72	484	7	10000	1	1	0	1	0
77	486	7	10000	1	1	0	1	0
78	487	7	10000	1	1	0	1	0
80	488	7	10000	1	1	0	1	0
80	489	7	10000	1	1	0	1	0
80	490	7	10000	1	1	0	1	0
80	491	7	10000	1	1	0	1	0
83	492	7	10000	1	1	0	1	0
86	493	7	10000	1	1	0	1	0
89	494	7	10000	1	1	0	1	0
92	495	7	10000	1	1	0	1	0
96	496	7	10000	1	1	0	1	0
99	497	7	10000	1	1	0	1	0
99	498	7	10000	1	1	0	1	0
100	499	7	10000	1	1	0	1	0
98	500	7	10000	1	1	0	1	0
94	501	7	10000	1	1	0	1	0
91	542	7	10000	1	1	0	1	1
87	543	7	10000	1	1	0	1	1
85	544	7	10000	1	1	0	1	1
81	545	7	10000	1	1	0	1	1
78	546	7	10000	1	1	0	1	1
78	547	7	10000	1	1	0	1	1
77	548	7	10000	1	1	0	1	1
75	549	7	10000	1	1	0	1	1
76	550	7	10000	1	1	0	1	1
74	551	7	10000	1	1	0	1	1
72	552	7	10000	1	1	0	1	1
69	553	7	10000	1	1	0	1	1
67	554	7	10000	1	1	0	1	1
67	555	7	10000	1	1	0	1	1
68	556	7	10000	1	1	0	1	1
71	557	7	10000	1	1	0	1	1
72	558	7	10000	1	1	0	1	1
77	559	7	10000	1	1	0	1	1
82	560	7	10000	1	1	0	1	1
87	561	7	10000	1	1	0	1	1
90	562	7	10000	1	1	0	1	1
92	563	7	10000	1	1	0	1	1
94	564	7	10000	1	1	0	1	1
94	565	7	10000	1	1	0	1	1
96	566	7	10000	1	1	0	1	1
100	567	7	10000	1	1	0	1	1
104	568	7	10000	1	1	0	1	1
107	569	7	10000	1	1	0	1	1
107	570	7	10000	1	1	0	1	1
106	571	7	10000	1	1	0	1	1
107	572	7	10000	1	1	0	1	1
109	573	7	10000	1	1	0	1	1
111	574	7	10000	1	1	0	1	1
113	575	7	10000	1	1	0	1	1
113	576	7	10000	1	1	0	1	1
112	577	7	10000	1	1	0	1	1
110	578	7	10000	1	1	0	1	1
111	579	7	10000	1	1	0	1	1
112	580	7	10000	1	1	0	1	1
114	581	7	10000	1	1	0	1	1
114	582	7	10000	1	1	0	1	1
113	583	7	10000	1	1	0	1	1
111	546	7	10000	1	1	0	1	1
108	547	7	10000	1	1	0	1	1
106	548	7	10000	1	1	0	1	1
104	549	7	10000	1	1	0	1	1
104	548	7	10000	1	1	0	1	1
102	549	7	10000	1	1	0	1	1
100	550	7	10000	1	1	0	1	1
98	551	7	10000	1	1	0	1	1
96	552	7	10000	1	1	0	1	0
93	553	7	10000	1	1	0	1	0
91	554	7	10000	1	1	0	1	0
91	555	7	10000	1	1	0	1	0
89	556	7	10000	1	1	0	1	0
87	557	7	10000	1	1	0	1	0
84	558	7	10000	1	1	0	1	0
81	559	7	10000	1	1	0	1	0
82	560	7	10000	1	1	0	1	0
82	561	7	10000	1	1	0	1	0
81	562	7	10000	1	1	0	1	0
81	563	7	10000	1	1	0	1	0
80	564	7	10000	1	1	0	1	0
76	565	7	10000	1	1	0	1	0
72	566	7	10000	1	1	0	1	0
69	567	7	10000	1	1	0	1	0
68	568	7	10000	1	1	0	1	0
65	569	7	10000	1	1	0	1	0
62	570	7	10000	1	1	0	1	0
60	571	7	10000	1	1	0	1	0
57	572	7	10000	1	1	0	1	0
56	573	7	10000	1	1	0	1	0
55	574	7	10000	1	1	0	1	0
55	575	7	10000	1	1	0	1	0
54	576	7	10000	1	1	0	1	0
52	577	7	10000	1	1	0	1	0
48	578	7	10000	1	1	0	1	0
47	579	7	10000	1	1	0	1	0
45	580	7	10000	1	1	0	1	0
45	581	7	10000	1	1	0	1	0
44	582	7	10000	1	1	0	1	0
43	583	7	10000	1	1	0	1	0
43	584	7	10000	1	1	0	1	0
41	585	7	10000	1	1	0	1	0
40	586	7	10000	1	1	0	1	0
39	587	7	10000	1	1	0	1	0
40	588	7	10000	1	1	0	1	0
39	589	7	10000	1	1	0	1	0
39	590	7	10000	1	1	0	1	0
37	591	7	10000	1	1	0	1	0
38	592	7	10000	1	1	0	1	0
35	593	7	10000	1	1	0	1	0
33	594	7	10000	1	1	0	1	0
33	595	7	10000	1	1	0	1	0
32	596	7	10000	1	1	0	1	0
31	597	7	10000	1	1	0	1	0
28	598	7	10000	1	1	0	1	0
28	599	7	10000	1	1	0	1	0
27	600	7	10000	1	1	0	1	0
27	601	7	10000	1	1	0	1	0
27	602	7	10000	1	1	0	1	0
26	603	7	10000	1	1	0	1	0
26	604	7	10000	1	1	0	1	0
24	605	7	10000	1	1	0	1	0
24	606	7	10000	1	1	0	1	0
23	607	7	10000	1	1	0	1	0
24	608	7	10000	1	1	0	1	0
23	609	7	10000	1	1	0	1	0
21	610	7	10000	1	1	0	1	0
20	611	7	10000	1	1	0	1	0
21	612	7	10000	1	1	0	1	0
21	613	7	10000	1	1	0	1	0
19	614	7	10000	1	1	0	1	0
20	615	7	10000	1	1	0	1	0
20	616	7	10000	1	1	0	1	0
20	617	7	10000	1	1	0	1	0
18	618	7	10000	1	1	0	1	0
17	619	7	10000	1	1	0	1	0
17	620	7	10000	1	1	0	1	0
18	621	7	10000	1	1	0	1	0
17	622	7	10000	1	1	0	1	0
17	623	7	10000	1	1	0	1	0
17	624	7	10000	1	1	0	1	0
16	625	7	10000	1	1	0	1	0
18	626	7	10000	1	1	0	1	0
18	627	7	10000	1	1	0	1	0
20	628	7	10000	1	1	0	1	0
22	629	7	10000	1	1	0	1	0
24	630	7	10000	1	1	0	1	0
23	631	7	10000	1	1	0	1	0
22	632	7	10000	1	1	0	1	0
23	633	7	10000	1	1	0	1	0
25	634	7	10000	1	1	0	1	0
29	635	7	10000	1	1	0	1	0
29	636	7	10000	1	1	0	1	0
33	637	7	10000	1	1	0	1	0
34	638	7	10000	1	1	0	1	0
34	639	7	10000	1	1	0	1	0
49	640	7	10000	1	1	0	1	0
66	641	7	10000	1	1	0	1	0
72	642	7	10000	1	1	0	1	0
72	643	7	10000	1	1	0	1	0
70	644	7	10000	1	1	0	1	0
85	645	7	10000	1	1	0	1	0
116	646	7	10000	1	1	0	1	0
122	647	7	10000	1	1	0	1	0
152	648	7	10000	1	1	0	1	0
211	649	7	10000	1	1	0	1	0
245	650	7	10000	1	1	0	1	0
244	651	7	10000	1	1	0	1	0
255	652	7	10000	1	1	0	1	0
274	653	7	10000	1	1	0	1	0
293	654	7	10000	1	1	0	1	0
302	655	7	10000	1	1	0	1	0
294	656	7	10000	1	1	0	1	0
290	657	7	10000	1	1	0	1	0
281	658	7	10000	1	1	0	1	0
272	659	7	10000	1	1	0	1	0
272	660	7	10000	1	1	0	1	0
266	661	7	10000	1	1	0	1	0
256	662	7	10000	1	1	0	1	0
249	663	7	10000	1	1	0	1	0
249	664	7	10000	1	1	0	1	0
261	665	7	10000	1	1	0	1	0
255	666	7	10000	1	1	0	1	0
251	667	7	10000	1	1	0	1	0
243	668	7	10000	1	1	0	1	0
233	669	7	10000	1	1	0	1	0
228	670	7	10000	1	1	0	1	0
222	671	7	10000	1	1	0	1	0
214	672	7	10000	1	1	0	1	0
207	673	7	10000	1	1	0	1	0
206	674	7	10000	1	1	0	1	0
201	675	7	10000	1	1	0	1	0
197	676	7	10000	1	1	0	1	0
200	677	7	10000	1	1	0	1	0
199	678	7	10000	1	1	0	1	0
197	679	7	10000	1	1	0	1	0
192	680	7	10000	1	1	0	1	0
187	681	7	10000	1	1	0	1	0
179	682	7	10000	1	1	0	1	0
172	683	7	10000	1	1	0	1	0
165	684	7	10000	1	1	0	1	0
158	685	7	10000	1	1	0	1	0
152	686	7	10000	1	1	0	1	0
146	687	7	10000	1	1	0	1	0
143	688	7	10000	1	1	0	1	0
137	689	7	10000	1	1	0	1	0
131	690	7	10000	1	1	0	1	0
127	691	7	10000	1	1	0	1	0
122	692	7	10000	1	1	0	1	0
118	693	7	10000	1	1	0	1	0
114	694	7	10000	1	1	0	1	0
109	695	7	10000	1	1	0	1	0
106	696	7	10000	1	1	0	1	0
101	697	7	10000	1	1	0	1	0
95	698	7	10000	1	1	0	1	0
93	699	7	10000	1	1	0	1	0
92	700	7	10000	1	1	0	1	0
88	701	7	10000	1	1	0	1	0
84	702	7	10000	1	1	0	1	0
80	703	7	10000	1	1	0	1	0
78	704	7	10000	1	1	0	1	0
74	705	7	10000	1	1	0	1	0
71	706	7	10000	1	1	0	1	0
69	707	7	10000	1	1	0	1	0
68	708	7	10000	1	1	0	1	0
64	709	7	10000	1	1	0	1	0
61	710	7	10000	1	1	0	1	0
59	711	7	10000	1	1	0	1	0
60	712	7	10000	1	1	0	1	0
59	713	7	10000	1	1	0	1	0
58	714	7	10000	1	1	0	1	0
57	715	7	10000	1	1	0	1	0
56	716	7	10000	1	1	0	1	0
57	717	7	10000	1	1	0	1	0
55	718	7	10000	1	1	0	1	0
55	719	7	10000	1	1	0	1	0
54	720	7	10000	1	1	0	1	0
52	721	7	10000	1	1	0	1	0
50	722	7	10000	1	1	0	1	0
49	723	7	10000	1	1	0	1	0
47	724	7	10000	1	1	0	1	0
47	725	7	10000	1	1	0	1	0
44	726	7	10000	1	1	0	1	0
44	727	7	10000	1	1	0	1	0
45	728	7	10000	1	1	0	1	0
43	729	7	10000	1	1	0	1	0
41	730	7	10000	1	1	0	1	0
40	731	7	10000	1	1	0	1	0
39	732	7	10000	1	1	0	1	0
38	733	7	10000	1	1	0	1	0
39	734	7	10000	1	1	0	1	0
40	735	7	10000	1	1	0	1	0
40	736	7	10000	1	1	0	1	0
38	737	7	10000	1	1	0	1	0
36	738	7	10000	1	1	0	1	0
35	739	7	10000	1	1	0	1	0
34	740	7	10000	1	1	0	1	0
34	741	7	10000	1	1	0	1	0
35	742	7	10000	1	1	0	1	0
34	743	7	10000	1	1	0	1	0
33	744	7	10000	1	1	0	1	0
32	745	7	10000	1	1	0	1	0
32	746	7	10000	1	1	0	1	0
32	747	7	10000	1	1	0	1	0
32	748	7	10000	1	1	0	1	0
31	749	7	10000	1	1	0	1	0
31	750	7	10000	1	1	0	1	0
31	751	7	10000	1	1	0	1	0
30	752	7	10000	1	1	0	1	0
28	753	7	10000	1	1	0	1	0
29	754	7	10000	1	1	0	1	0
30	755	7	10000	1	1	0	1	0
31	756	7	10000	1	1	0	1	0
30	757	7	10000	1	1	0	1	0
27	758	7	10000	1	1	0	1	0
27	759	7	10000	1	1	0	1	0
26	760	7	10000	1	1	0	1	0
25	761	7	10000	1	1	0	1	0
24	762	7	10000	1	1	0	1	0
23	763	7	10000	1	1	0	1	0
23	764	7	10000	1	1	0	1	0
23	765	7	10000	1	1	0	1	0
24	766	7	10000	1	1	0	1	0
24	767	7	10000	1	1	0	1	0
26	768	7	10000	1	1	0	1	0
26	769	7	10000	1	1	0	1	0
26	770	7	10000	1	1	0	1	0
26	771	7	10000	1	1	0	1	0
25	772	7	10000	1	1	0	1	0
26	773	7	10000	1	1	0	1	0
27	774	7	10000	1	1	0	1	0
28	775	7	10000	1	1	0	1	0
29	776	7	10000	1	1	0	1	0
27	777	7	10000	1	1	0	1	0
24	778	7	10000	1	1	0	1	0
24	779	7	10000	1	1	0	1	0
24	780	7	10000	1	1	0	1	0
24	781	7	10000	1	1	0	1	0
23	782	7	10000	1	1	0	1	0
23	783	7	10000	1	1	0	1	0
24	784	7	10000	1	1	0	1	0
24	785	7	10000	1	1	0	1	0
23	786	7	10000	1	1	0	1	0
22	787	7	10000	1	1	0	1	0
23	788	7	10000	1	1	0	1	0
23	789	7	10000	1	1	0	1	0
23	790	7	10000	1	1	0	1	0
22	791	7	10000	1	1	0	1	0
21	792	7	10000	1	1	0	1	0
22	793	7	10000	1	1	0	1	0
21	794	7	10000	1	1	0	1	0
21	795	7	10000	1	1	0	1	0
22	796	7	10000	1	1	0	1	0
24	797	7	10000	1	1	0	1	0
22	798	7	10000	1	1	0	1	0
22	799	7	10000	1	1	0	1	0
22	800	7	10000	1	1	0	1	0
23	801	7	10000	1	1	0	1	0
24	802	7	10000	1	1	0	1	0
24	803	7	10000	1	1	0	1	0
24	804	7	10000	1	1	0	1	0
24	805	7	10000	1	1	0	1	0
24	806	7	10000	1	1	0	1	0
24	807	7	10000	1	1	0	1	0
24	808	7	10000	1	1	0	1	0
24	809	7	10000	1	1	0	1	0
24	810	7	10000	1	1	0	1	0
22	811	7	10000	1	1	0	1	0
21	812	7	10000	1	1	0	1	0
21	813	7	10000	1	1	0	1	0
22	814	7	10000	1	1	0	1	0
23	815	7	10000	1	1	0	1	0
23	816	7	10000	1	1	0	1	0
21	817	7	10000	1	1	0	1	0
20	818	7	10000	1	1	0	1	0
20	819	7	10000	1	1	0	1	0
20	820	7	10000	1	1	0	1	0
20	821	7	10000	1	1	0	1	0
20	822	7	10000	1	1	0	1	0
20	823	7	10000	1	1	0	1	0
22	824	7	10000	1	1	0	1	0
20	825	7	10000	1	1	0	1	0
20	826	7	10000	1	1	0	1	0
20	827	7	10000	1	1	0	1	0
21	828	7	10000	1	1	0	1	0
20	829	7	10000	1	1	0	1	0
22	830	7	10000	1	1	0	1	0
23	831	7	10000	1	1	0	1	0
21	832	7	10000	1	1	0	1	0
21	833	7	10000	1	1	0	1	0
20	834	7	10000	1	1	0	1	0
21	835	7	10000	1	1	0	1	0
22	836	7	10000	1	1	0	1	0
21	837	7	10000	1	1	0	1	0
21	838	7	10000	1	1	0	1	0
23	839	7	10000	1	1	0	1	0
25	840	7	10000	1	1	0	1	0
25	841	7	10000	1	1	0	1	0
26	842	7	10000	1	1	0	1	0
28	843	7	10000	1	1	0	1	0
28	844	7	10000	1	1	0	1	0
26	845	7	10000	1	1	0	1	0
25	846	7	10000	1	1	0	1	0
26	847	7	10000	1	1	0	1	0
27	848	7	10000	1	1	0	1	0
25	849	7	10000	1	1	0	1	0
24	850	7	10000	1	1	0	1	0
23	851	7	10000	1	1	0	1	0
22	852	7	10000	1	1	0	1	0
21	853	7	10000	1	1	0	1	0
20	854	7	10000	1	1	0	1	0
20	855	7	10000	1	1	0	1	0
20	856	7	10000	1	1	0	1	0
19	857	7	10000	1	1	0	1	0
17	858	7	10000	1	1	0	1	0
17	859	7	10000	1	1	0	1	0
17	860	7	10000	1	1	0	1	0
18	861	7	10000	1	1	0	1	0
19	862	7	10000	1	1	0	1	0
19	863	7	10000	1	1	0	1	0
19	864	7	10000	1	1	0	1	0
17	865	7	10000	1	1	0	1	0
17	866	7	10000	1	1	0	1	0
18	867	7	10000	1	1	0	1	0
20	868	7	10000	1	1	0	1	0
19	869	7	10000	1	1	0	1	0
19	870	7	10000	1	1	0	1	0
18	871	7	10000	1	1	0	1	0
18	872	7	10000	1	1	0	1	0
17	873	7	10000	1	1	0	1	0
18	874	7	10000	1	1	0	1	0
19	875	7	10000	1	1	0	1	0
19	876	7	10000	1	1	0	1	0
19	877	7	10000	1	1	0	1	0
17	878	7	10000	1	1	0	1	0
17	879	7	10000	1	1	0	1	0
16	880	7	10000	1	1	0	1	0
17	881	7	10000	1	1	0	1	0
17	882	7	10000	1	1	0	1	0
18	883	7	10000	1	1	0	1	0
20	884	7	10000	1	1	0	1	0
21	885	7	10000	1	1	0	1	0
20	886	7	10000	1	1	0	1	0
21	887	7	10000	1	1	0	1	0
22	888	7	10000	1	1	0	1	0
22	889	7	10000	1	1	0	1	0
20	890	7	10000	1	1	0	1	0
20	891	7	10000	1	1	0	1	0
20	892	7	10000	1	1	0	1	0
19	893	7	10000	1	1	0	1	0
18	894	7	10000	1	1	0	1	0
20	895	7	10000	1	1	0	1	0
20	896	7	10000	1	1	0	1	0
20	897	7	10000	1	1	0	1	0
18	898	7	10000	1	1	0	1	0
19	899	7	10000	1	1	0	1	0
19	900	7	10000	1	1	0	1	0
19	901	7	10000	1	1	0	1	0
18	902	7	10000	1	1	0	1	0
18	903	7	10000	1	1	0	1	0
19	904	7	10000	1	1	0	1	0
18	905	7	10000	1	1	0	1	0
17	906	7	10000	1	1	0	1	0
16	907	7	10000	1	1	0	1	0
18	908	7	10000	1	1	0	1	0
18	909	7	10000	1	1	0	1	0
16	910	7	10000	1	1	0	1	0
16	911	7	10000	1	1	0	1	0
18	912	7	10000	1	1	0	1	0
19	913	7	10000	1	1	0	1	0
18	914	7	10000	1	1	0	1	0
19	915	7	10000	1	1	0	1	0
19	916	7	10000	1	1	0	1	0
18	917	7	10000	1	1	0	1	0
16	918	7	10000	1	1	0	1	0
15	919	7	10000	1	1	0	1	0
15	920	7	10000	1	1	0	1	0
16	921	7	10000	1	1	0	1	0
17	922	7	10000	1	1	0	1	0
18	923	7	10000	1	1	0	1	0
17	924	7	10000	1	1	0	1	0
16	925	7	10000	1	1	0	1	0
16	926	7	10000	1	1	0	1	0
15	927	7	10000	1	1	0	1	0
17	928	7	10000	1	1	0	1	0
16	929	7	10000	1	1	0	1	0
16	930	7	10000	1	1	0	1	0
15	931	7	10000	1	1	0	1	0
15	932	7	10000	1	1	0	1	0
15	933	7	10000	1	1	0	1	0
15	934	7	10000	1	1	0	1	0
16	935	7	10000	1	1	0	1	0
17	936	7	10000	1	1	0	1	0
16	937	7	10000	1	1	0	1	0
15	938	7	10000	1	1	0	1	0
16	939	7	10000	1	1	0	1	0
17	940	7	10000	1	1	0	1	0
19	941	7	10000	1	1	0	1	0
20	942	7	10000	1	1	0	1	0
22	943	7	10000	1	1	0	1	0
22	944	7	10000	1	1	0	1	0
21	945	7	10000	1	1	0	1	0
20	946	7	10000	1	1	0	1	0
20	947	7	10000	1	1	0	1	0
21	948	7	10000	1	1	0	1	0
20	949	7	10000	1	1	0	1	0
20	950	7	10000	1	1	0	1	0
21	951	7	10000	1	1	0	1	0
20	952	7	10000	1	1	0	1	0
20	953	7	10000	1	1	0	1	0
20	954	7	10000	1	1	0	1	0
22	955	7	10000	1	1	0	1	0
22	956	7	10000	1	1	0	1	0
23	957	7	10000	1	1	0	1	0
21	958	7	10000	1	1	0	1	0
20	959	7	10000	1	1	0	1	0
21	960	7	10000	1	1	0	1	0
20	961	7	10000	1	1	0	1	0
20	962	7	10000	1	1	0	1	0
20	963	7	10000	1	1	0	1	0
21	964	7	10000	1	1	0	1	0
20	965	7	10000	1	1	0	1	0
19	966	7	10000	1	1	0	1	0
18	967	7	10000	1	1	0	1	0
20	968	7	10000	1	1	0	1	0
19	969	7	10000	1	1	0	1	0
18	970	7	10000	1	1	0	1	0
18	971	7	10000	1	1	0	1	0
17	972	7	10000	1	1	0	1	0
16	973	7	10000	1	1	0	1	0
17	974	7	10000	1	1	0	1	0
17	975	7	10000	1	1	0	1	0
18	976	7	10000	1	1	0	1	0
17	977	7	10000	1	1	0	1	0
15	978	7	10000	1	1	0	1	0
16	979	7	10000	1	1	0	1	0
15	980	7	10000	1	1	0	1	0
15	981	7	10000	1	1	0	1	0
15	982	7	10000	1	1	0	1	0
16	983	7	10000	1	1	0	1	0
15	984	7	10000	1	1	0	1	0
16	985	7	10000	1	1	0	1	0
16	986	7	10000	1	1	0	1	0
17	987	7	10000	1	1	0	1	0
19	988	7	10000	1	1	0	1	0
19	989	7	10000	1	1	0	1	0
18	990	7	10000	1	1	0	1	0
18	991	7	10000	1	1	0	1	0
17	992	7	10000	1	1	0	1	0
17	993	7	10000	1	1	0	1	0
18	994	7	10000	1	1	0	1	0
17	995	7	10000	1	1	0	1	0
17	996	7	10000	1	1	0	1	0
17	997	7	10000	1	1	0	1	0
16	998	7	10000	1	1	0	1	0
18	999	7	10000	1	1	0	1	0
19	1000	7	10000	1	1	0	1	0
18	1001	7	10000	1	1	0	1	0
31	2	0	10000	2	1	0	2	0
29	3	0	10000	2	1	0	2	0
30	4	0	10000	2	1	0	2	0
30	5	0	10000	2	1	0	2	0
29	6	0	10000	2	1	0	2	0
30	7	0	10000	2	1	0	2	0
29	8	0	10000	2	1	0	2	0
27	9	0	10000	2	1	0	2	0
26	10	0	10000	2	1	0	2	0
27	11	0	10000	2	1	0	2	0
27	12	0	10000	2	1	0	2	0
27	13	0	10000	2	1	0	2	0
27	14	0	10000	2	1	0	2	0
26	15	0	10000	2	1	0	2	0
26	16	0	10000	2	1	0	2	0
24	17	0	10000	2	1	0	2	0
25	18	0	10000	2	1	0	2	0
26	19	0	10000	2	1	0	2	0
27	20	0	10000	2	1	0	2	0
28	21	0	10000	2	1	0	2	0
30	21	0	10000	2	1	0	2	0
30	22	0	10000	2	1	0	2	0
28	24	0	10000	2	1	0	2	0
28	25	0	10000	2	1	0	2	0
27	26	0	10000	2	1	0	2	0
27	27	0	10000	2	1	0	2	0
26	28	0	10000	2	1	0	2	0
25	29	0	10000	2	1	0	2	0
24	30	0	10000	2	1	0	2	0
28	31	0	10000	2	1	0	2	0
29	31	0	10000	2	1	0	2	0
29	32	0	10000	2	1	0	2	0
28	34	0	10000	2	1	0	2	0
29	35	0	10000	2	1	0	2	0
29	36	0	10000	2	1	0	2	0
28	37	0	10000	2	1	0	2	0
27	38	0	10000	2	1	0	2	0
27	39	0	10000	2	1	0	2	0
26	40	0	10000	2	1	0	2	0
25	41	0	10000	2	1	0	2	0
25	41	0	10000	2	1	0	2	0
25	42	0	10000	2	1	0	2	0
25	44	0	10000	2	1	0	2	0
25	45	0	10000	2	1	0	2	0
26	46	0	10000	2	1	0	2	0
26	47	0	10000	2	1	0	2	0
25	48	0	10000	2	1	0	2	0
25	49	0	10000	2	1	0	2	0
26	50	0	10000	2	1	0	2	0
28	51	0	10000	2	1	0	2	0
28	51	0	10000	2	1	0	2	0
27	52	0	10000	2	1	0	2	0
25	54	0	10000	2	1	0	2	0
24	55	0	10000	2	1	0	2	0
24	56	0	10000	2	1	0	2	0
23	57	0	10000	2	1	0	2	0
23	58	0	10000	2	1	0	2	0
23	59	0	10000	2	1	0	2	0
23	60	0	10000	2	1	0	2	0
21	61	0	10000	2	1	0	2	0
20	61	0	10000	2	1	0	2	0
20	62	0	10000	2	1	0	2	0
21	64	0	10000	2	1	0	2	0
22	65	0	10000	2	1	0	2	0
21	66	0	10000	2	1	0	2	0
22	67	0	10000	2	1	0	2	0
20	68	0	10000	2	1	0	2	0
20	69	0	10000	2	1	0	2	0
20	70	0	10000	2	1	0	2	0
21	71	0	10000	2	1	0	2	0
21	71	0	10000	2	1	0	2	0
20	72	0	10000	2	1	0	2	0
19	74	0	10000	2	1	0	2	0
18	75	0	10000	2	1	0	2	0
18	76	0	10000	2	1	0	2	0
17	77	0	10000	2	1	0	2	0
17	78	0	10000	2	1	0	2	0
18	79	0	10000	2	1	0	2	0
17	80	0	10000	2	1	0	2	0
16	81	0	10000	2	1	0	2	0
16	81	0	10000	2	1	0	2	0
16	82	0	10000	2	1	0	2	0
16	84	0	10000	2	1	0	2	0
16	85	0	10000	2	1	0	2	0
16	86	0	10000	2	1	0	2	0
17	87	0	10000	2	1	0	2	0
16	88	0	10000	2	1	0	2	0
16	89	0	10000	2	1	0	2	0
16	90	0	10000	2	1	0	2	0
17	91	0	10000	2	1	0	2	0
18	91	0	10000	2	1	0	2	0
17	92	0	10000	2	1	0	2	0
17	94	0	10000	2	1	0	2	0
16	95	0	10000	2	1	0	2	0
16	96	0	10000	2	1	0	2	0
16	97	0	10000	2	1	0	2	0
17	98	0	10000	2	1	0	2	0
17	99	0	10000	2	1	0	2	0
18	100	0	10000	2	1	0	2	0
18	101	0	10000	2	1	0	2	0
17	101	0	10000	2	1	0	2	0
17	102	0	10000	2	1	0	2	0
19	104	0	10000	2	1	0	2	0
18	105	0	10000	2	1	0	2	0
17	106	0	10000	2	1	0	2	0
19	107	0	10000	2	1	0	2	0
19	108	0	10000	2	1	0	2	0
21	109	0	10000	2	1	0	2	0
22	110	0	10000	2	1	0	2	0
23	111	0	10000	2	1	0	2	0
23	111	0	10000	2	1	0	2	0
22	112	0	10000	2	1	0	2	0
21	114	0	10000	2	1	0	2	0
20	115	0	10000	2	1	0	2	0
20	116	0	10000	2	1	0	2	0
20	117	0	10000	2	1	0	2	0
20	118	0	10000	2	1	0	2	0
21	119	0	10000	2	1	0	2	0
24	120	0	10000	2	1	0	2	0
23	121	0	10000	2	1	0	2	0
22	121	0	10000	2	1	0	2	0
21	122	0	10000	2	1	0	2	0
21	124	0	10000	2	1	0	2	0
21	125	0	10000	2	1	0	2	0
20	126	0	10000	2	1	0	2	0
20	127	0	10000	2	1	0	2	0
19	128	0	10000	2	1	0	2	0
17	129	0	10000	2	1	0	2	0
18	130	0	10000	2	1	0	2	0
19	131	0	10000	2	1	0	2	0
19	131	0	10000	2	1	0	2	0
18	132	0	10000	2	1	0	2	0
18	134	0	10000	2	1	0	2	0
19	135	0	10000	2	1	0	2	0
19	136	0	10000	2	1	0	2	0
21	137	0	10000	2	1	0	2	0
21	138	0	10000	2	1	0	2	0
21	139	0	10000	2	1	0	2	0
22	140	0	10000	2	1	0	2	0
20	141	0	10000	2	1	0	2	0
20	141	0	10000	2	1	0	2	0
20	142	0	10000	2	1	0	2	0
21	144	0	10000	2	1	0	2	0
21	145	0	10000	2	1	0	2	0
21	146	0	10000	2	1	0	2	0
22	147	0	10000	2	1	0	2	0
23	148	0	10000	2	1	0	2	0
23	149	0	10000	2	1	0	2	0
23	150	0	10000	2	1	0	2	0
28	151	0	10000	2	1	0	2	0
32	151	0	10000	2	1	0	2	0
29	152	0	10000	2	1	0	2	0
29	154	0	10000	2	1	0	2	0
30	155	0	10000	2	1	0	2	0
30	156	0	10000	2	1	0	2	0
30	157	0	10000	2	1	0	2	0
30	158	0	10000	2	1	0	2	0
30	159	0	10000	2	1	0	2	0
30	160	0	10000	2	1	0	2	0
31	161	0	10000	2	1	0	2	0
33	161	0	10000	2	1	0	2	0
34	162	0	10000	2	1	0	2	0
35	164	0	10000	2	1	0	2	0
37	165	0	10000	2	1	0	2	0
36	166	0	10000	2	1	0	2	0
36	167	0	10000	2	1	0	2	0
34	168	0	10000	2	1	0	2	0
33	169	0	10000	2	1	0	2	0
31	170	0	10000	2	1	0	2	0
32	171	0	10000	2	1	0	2	0
32	171	0	10000	2	1	0	2	0
31	172	0	10000	2	1	0	2	0
30	174	0	10000	2	1	0	2	0
29	175	0	10000	2	1	0	2	0
28	176	0	10000	2	1	0	2	0
28	177	0	10000	2	1	0	2	0
27	178	0	10000	2	1	0	2	0
26	179	0	10000	2	1	0	2	0
27	180	0	10000	2	1	0	2	0
25	181	0	10000	2	1	0	2	0
25	181	0	10000	2	1	0	2	0
26	182	0	10000	2	1	0	2	0
26	184	0	10000	2	1	0	2	0
26	185	0	10000	2	1	0	2	0
27	186	0	10000	2	1	0	2	0
30	187	0	10000	2	1	0	2	0
30	188	0	10000	2	1	0	2	0
29	189	0	10000	2	1	0	2	0
28	190	0	10000	2	1	0	2	0
30	191	0	10000	2	1	0	2	0
29	191	0	10000	2	1	0	2	0
29	192	0	10000	2	1	0	2	0
28	194	0	10000	2	1	0	2	0
27	195	0	10000	2	1	0	2	0
27	196	0	10000	2	1	0	2	0
26	197	0	10000	2	1	0	2	0
26	198	0	10000	2	1	0	2	0
26	199	0	10000	2	1	0	2	0
26	200	0	10000	2	1	0	2	0
24	201	0	10000	2	1	0	2	0
23	201	0	10000	2	1	0	2	0
24	202	0	10000	2	1	0	2	0
24	204	0	10000	2	1	0	2	0
25	205	0	10000	2	1	0	2	0
24	206	0	10000	2	1	0	2	0
24	207	0	10000	2	1	0	2	0
24	208	0	10000	2	1	0	2	0
25	209	0	10000	2	1	0	2	0
24	210	0	10000	2	1	0	2	0
25	211	0	10000	2	1	0	2	0
25	211	0	10000	2	1	0	2	0
24	212	0	10000	2	1	0	2	0
24	214	0	10000	2	1	0	2	0
24	215	0	10000	2	1	0	2	0
23	216	0	10000	2	1	0	2	0
24	217	0	10000	2	1	0	2	0
24	218	0	10000	2	1	0	2	0
24	219	0	10000	2	1	0	2	0
24	220	0	10000	2	1	0	2	0
21	221	0	10000	2	1	0	2	0
20	221	0	10000	2	1	0	2	0
20	222	0	10000	2	1	0	2	0
20	224	0	10000	2	1	0	2	0
20	225	0	10000	2	1	0	2	0
20	226	0	10000	2	1	0	2	0
20	227	0	10000	2	1	0	2	0
20	228	0	10000	2	1	0	2	0
20	229	0	10000	2	1	0	2	0
19	230	0	10000	2	1	0	2	0
21	231	0	10000	2	1	0	2	0
22	231	0	10000	2	1	0	2	0
22	232	0	10000	2	1	0	2	0
21	234	0	10000	2	1	0	2	0
21	235	0	10000	2	1	0	2	0
21	236	0	10000	2	1	0	2	0
21	237	0	10000	2	1	0	2	0
21	238	0	10000	2	1	0	2	0
22	239	0	10000	2	1	0	2	0
21	240	0	10000	2	1	0	2	0
19	241	0	10000	2	1	0	2	0
18	241	0	10000	2	1	0	2	0
18	242	0	10000	2	1	0	2	0
18	244	0	10000	2	1	0	2	0
19	245	0	10000	2	1	0	2	0
20	246	0	10000	2	1	0	2	0
19	247	0	10000	2	1	0	2	0
19	248	0	10000	2	1	0	2	0
19	249	0	10000	2	1	0	2	0
20	250	0	10000	2	1	0	2	0
24	251	0	10000	2	1	0	2	0
23	251	0	10000	2	1	0	2	0
22	252	0	10000	2	1	0	2	0
22	254	0	10000	2	1	0	2	0
21	255	0	10000	2	1	0	2	0
21	256	0	10000	2	1	0	2	0
21	257	0	10000	2	1	0	2	0
21	258	0	10000	2	1	0	2	0
22	259	0	10000	2	1	0	2	0
22	260	0	10000	2	1	0	2	0
20	261	0	10000	2	1	0	2	0
19	261	0	10000	2	1	0	2	0
19	262	0	10000	2	1	0	2	0
19	264	0	10000	2	1	0	2	0
19	265	0	10000	2	1	0	2	0
18	266	0	10000	2	1	0	2	0
18	267	0	10000	2	1	0	2	0
17	268	0	10000	2	1	0	2	0
16	269	0	10000	2	1	0	2	0
15	270	0	10000	2	1	0	2	0
17	271	0	10000	2	1	0	2	0
17	271	0	10000	2	1	0	2	0
17	272	0	10000	2	1	0	2	0
17	274	0	10000	2	1	0	2	0
17	275	0	10000	2	1	0	2	0
17	276	0	10000	2	1	0	2	0
18	277	0	10000	2	1	0	2	0
18	278	0	10000	2	1	0	2	0
20	279	0	10000	2	1	0	2	0
20	280	0	10000	2	1	0	2	0
19	281	0	10000	2	1	0	2	0
20	281	0	10000	2	1	0	2	0
20	282	0	10000	2	1	0	2	0
19	284	0	10000	2	1	0	2	0
20	285	0	10000	2	1	0	2	0
20	286	0	10000	2	1	0	2	0
19	287	0	10000	2	1	0	2	0
18	288	0	10000	2	1	0	2	0
17	289	0	10000	2	1	0	2	0
16	290	0	10000	2	1	0	2	0
18	291	0	10000	2	1	0	2	0
17	291	0	10000	2	1	0	2	0
18	292	0	10000	2	1	0	2	0
18	294	0	10000	2	1	0	2	0
19	295	0	10000	2	1	0	2	0
20	296	0	10000	2	1	0	2	0
19	297	0	10000	2	1	0	2	0
20	298	0	10000	2	1	0	2	0
20	299	0	10000	2	1	0	2	0
21	300	0	10000	2	1	0	2	0
21	301	0	10000	2	1	0	2	0
22	301	0	10000	2	1	0	2	0
22	302	0	10000	2	1	0	2	0
21	304	0	10000	2	1	0	2	0
21	305	0	10000	2	1	0	2	0
21	306	0	10000	2	1	0	2	0
22	307	0	10000	2	1	0	2	0
22	308	0	10000	2	1	0	2	0
22	309	0	10000	2	1	0	2	0
22	310	0	10000	2	1	0	2	0
25	311	0	10000	2	1	0	2	0
26	311	0	10000	2	1	0	2	0
27	312	0	10000	2	1	0	2	0
26	314	0	10000	2	1	0	2	0
25	315	0	10000	2	1	0	2	0
27	316	0	10000	2	1	0	2	0
27	317	0	10000	2	1	0	2	0
26	318	0	10000	2	1	0	2	0
26	319	0	10000	2	1	0	2	0
26	320	0	10000	2	1	0	2	0
24	321	0	10000	2	1	0	2	0
26	321	0	10000	2	1	0	2	0
26	322	0	10000	2	1	0	2	0
26	324	0	10000	2	1	0	2	0
27	325	0	10000	2	1	0	2	0
26	326	0	10000	2	1	0	2	0
26	327	0	10000	2	1	0	2	0
28	328	0	10000	2	1	0	2	0
29	329	0	10000	2	1	0	2	0
29	330	0	10000	2	1	0	2	0
31	331	0	10000	2	1	0	2	0
30	331	0	10000	2	1	0	2	0
30	332	0	10000	2	1	0	2	0
29	334	0	10000	2	1	0	2	0
28	335	0	10000	2	1	0	2	0
28	336	0	10000	2	1	0	2	0
26	337	0	10000	2	1	0	2	0
26	338	0	10000	2	1	0	2	0
26	339	0	10000	2	1	0	2	0
26	340	0	10000	2	1	0	2	0
23	341	0	10000	2	1	0	2	0
23	341	0	10000	2	1	0	2	0
23	342	0	10000	2	1	0	2	0
22	344	0	10000	2	1	0	2	0
23	345	0	10000	2	1	0	2	0
24	346	0	10000	2	1	0	2	0
25	347	0	10000	2	1	0	2	0
23	348	0	10000	2	1	0	2	0
23	349	0	10000	2	1	0	2	0
23	350	0	10000	2	1	0	2	0
24	351	0	10000	2	1	0	2	0
23	351	0	10000	2	1	0	2	0
24	352	0	10000	2	1	0	2	0
23	354	0	10000	2	1	0	2	0
22	355	0	10000	2	1	0	2	0
22	356	0	10000	2	1	0	2	0
23	357	0	10000	2	1	0	2	0
24	358	0	10000	2	1	0	2	0
23	359	0	10000	2	1	0	2	0
25	360	0	10000	2	1	0	2	0
22	361	0	10000	2	1	0	2	0
22	361	0	10000	2	1	0	2	0
21	362	0	10000	2	1	0	2	0
22	364	0	10000	2	1	0	2	0
23	365	0	10000	2	1	0	2	0
22	366	0	10000	2	1	0	2	0
23	367	0	10000	2	1	0	2	0
21	368	0	10000	2	1	0	2	0
21	369	0	10000	2	1	0	2	0
20	370	0	10000	2	1	0	2	0
21	371	0	10000	2	1	0	2	0
21	371	0	10000	2	1	0	2	0
20	372	0	10000	2	1	0	2	0
21	374	0	10000	2	1	0	2	0
21	375	0	10000	2	1	0	2	0
22	376	0	10000	2	1	0	2	0
24	377	0	10000	2	1	0	2	0
24	378	0	10000	2	1	0	2	0
24	379	0	10000	2	1	0	2	0
24	380	0	10000	2	1	0	2	0
22	381	0	10000	2	1	0	2	0
21	381	0	10000	2	1	0	2	0
21	382	0	10000	2	1	0	2	0
22	384	0	10000	2	1	0	2	0
22	385	0	10000	2	1	0	2	0
21	386	0	10000	2	1	0	2	0
21	387	0	10000	2	1	0	2	0
20	388	0	10000	2	1	0	2	0
20	389	0	10000	2	1	0	2	0
19	390	0	10000	2	1	0	2	0
21	391	0	10000	2	1	0	2	0
20	391	0	10000	2	1	0	2	0
21	392	0	10000	2	1	0	2	0
21	394	0	10000	2	1	0	2	0
22	395	0	10000	2	1	0	2	0
23	396	0	10000	2	1	0	2	0
22	397	0	10000	2	1	0	2	0
22	398	0	10000	2	1	0	2	0
21	399	0	10000	2	1	0	2	0
23	400	0	10000	2	1	0	2	0
21	401	0	10000	2	1	0	2	0
20	401	0	10000	2	1	0	2	0
19	402	0	10000	2	1	0	2	0
19	404	0	10000	2	1	0	2	0
18	405	0	10000	2	1	0	2	0
19	406	0	10000	2	1	0	2	0
20	407	0	10000	2	1	0	2	0
20	408	0	10000	2	1	0	2	0
20	409	0	10000	2	1	0	2	0
20	410	0	10000	2	1	0	2	0
20	411	0	10000	2	1	0	2	0
21	411	0	10000	2	1	0	2	0
21	412	0	10000	2	1	0	2	0
21	414	0	10000	2	1	0	2	0
20	415	0	10000	2	1	0	2	0
20	416	0	10000	2	1	0	2	0
19	417	0	10000	2	1	0	2	0
20	418	0	10000	2	1	0	2	0
19	419	0	10000	2	1	0	2	0
19	420	0	10000	2	1	0	2	0
17	421	0	10000	2	1	0	2	0
16	421	0	10000	2	1	0	2	0
16	422	0	10000	2	1	0	2	0
17	424	0	10000	2	1	0	2	0
18	425	0	10000	2	1	0	2	0
19	426	0	10000	2	1	0	2	0
20	427	0	10000	2	1	0	2	0
19	428	0	10000	2	1	0	2	0
19	429	0	10000	2	1	0	2	0
17	430	0	10000	2	1	0	2	0
19	431	0	10000	2	1	0	2	0
20	431	0	10000	2	1	0	2	0
19	432	0	10000	2	1	0	2	0
19	434	0	10000	2	1	0	2	0
20	435	0	10000	2	1	0	2	0
20	436	0	10000	2	1	0	2	0
20	437	0	10000	2	1	0	2	0
19	438	0	10000	2	1	0	2	0
19	439	0	10000	2	1	0	2	0
19	440	0	10000	2	1	0	2	0
18	441	0	10000	2	1	0	2	0
17	441	0	10000	2	1	0	2	0
18	442	0	10000	2	1	0	2	0
18	444	0	10000	2	1	0	2	0
18	445	0	10000	2	1	0	2	0
18	446	0	10000	2	1	0	2	0
20	447	0	10000	2	1	0	2	0
18	448	0	10000	2	1	0	2	0
18	449	0	10000	2	1	0	2	0
18	450	0	10000	2	1	0	2	0
20	451	0	10000	2	1	0	2	0
20	451	0	10000	2	1	0	2	0
20	452	0	10000	2	1	0	2	0
19	454	0	10000	2	1	0	2	0
19	455	0	10000	2	1	0	2	0
19	456	0	10000	2	1	0	2	0
18	457	0	10000	2	1	0	2	0
18	458	0	10000	2	1	0	2	0
18	459	0	10000	2	1	0	2	0
19	460	0	10000	2	1	0	2	0
17	461	0	10000	2	1	0	2	0
18	461	0	10000	2	1	0	2	0
18	462	0	10000	2	1	0	2	0
18	464	0	10000	2	1	0	2	0
18	465	0	10000	2	1	0	2	0
21	466	0	10000	2	1	0	2	0
21	467	0	10000	2	1	0	2	0
20	468	0	10000	2	1	0	2	0
20	469	0	10000	2	1	0	2	0
20	470	0	10000	2	1	0	2	0
21	471	0	10000	2	1	0	2	0
21	471	0	10000	2	1	0	2	0
20	472	0	10000	2	1	0	2	0
20	474	0	10000	2	1	0	2	0
20	475	0	10000	2	1	0	2	0
19	476	0	10000	2	1	0	2	0
18	477	0	10000	2	1	0	2	0
18	478	0	10000	2	1	0	2	0
18	479	0	10000	2	1	0	2	0
18	480	0	10000	2	1	0	2	0
16	481	0	10000	2	1	0	2	0
16	481	0	10000	2	1	0	2	0
18	482	0	10000	2	1	0	2	0
18	484	0	10000	2	1	0	2	0
18	485	0	10000	2	1	0	2	0
18	486	0	10000	2	1	0	2	0
18	487	0	10000	2	1	0	2	0
20	488	0	10000	2	1	0	2	0
23	489	0	10000	2	1	0	2	0
22	490	0	10000	2	1	0	2	0
25	491	0	10000	2	1	0	2	0
24	491	0	10000	2	1	0	2	0
24	492	0	10000	2	1	0	2	0
23	494	0	10000	2	1	0	2	0
23	495	0	10000	2	1	0	2	0
22	496	0	10000	2	1	0	2	0
20	497	0	10000	2	1	0	2	0
20	498	0	10000	2	1	0	2	0
20	499	0	10000	2	1	0	2	0
21	500	0	10000	2	1	0	2	0
17	501	0	10000	2	1	0	2	0
18	502	0	10000	2	1	0	2	1
18	503	0	10000	2	1	0	2	1
19	504	0	10000	2	1	0	2	1
18	505	0	10000	2	1	0	2	1
19	506	0	10000	2	1	0	2	1
20	507	0	10000	2	1	0	2	1
20	508	0	10000	2	1	0	2	1
19	509	0	10000	2	1	0	2	1
19	510	0	10000	2	1	0	2	1
20	511	0	10000	2	1	0	2	1
20	511	0	10000	2	1	0	2	1
21	512	0	10000	2	1	0	2	1
20	514	0	10000	2	1	0	2	1
19	515	0	10000	2	1	0	2	1
19	516	0	10000	2	1	0	2	1
19	517	0	10000	2	1	0	2	1
18	518	0	10000	2	1	0	2	1
18	519	0	10000	2	1	0	2	1
18	520	0	10000	2	1	0	2	1
17	521	0	10000	2	1	0	2	1
16	521	0	10000	2	1	0	2	1
17	522	0	10000	2	1	0	2	1
16	524	0	10000	2	1	0	2	1
15	525	0	10000	2	1	0	2	1
15	526	0	10000	2	1	0	2	1
15	527	0	10000	2	1	0	2	1
14	528	0	10000	2	1	0	2	1
14	529	0	10000	2	1	0	2	1
14	530	0	10000	2	1	0	2	1
16	531	0	10000	2	1	0	2	1
15	531	0	10000	2	1	0	2	1
15	532	0	10000	2	1	0	2	1
16	534	0	10000	2	1	0	2	1
15	535	0	10000	2	1	0	2	1
15	536	0	10000	2	1	0	2	1
15	537	0	10000	2	1	0	2	1
16	538	0	10000	2	1	0	2	1
17	539	0	10000	2	1	0	2	1
18	540	0	10000	2	1	0	2	1
15	541	0	10000	2	1	0	2	1
15	541	0	10000	2	1	0	2	1
16	542	0	10000	2	1	0	2	1
19	544	0	10000	2	1	0	2	1
19	545	0	10000	2	1	0	2	1
19	546	0	10000	2	1	0	2	1
19	547	0	10000	2	1	0	2	1
19	548	0	10000	2	1	0	2	1
19	549	0	10000	2	1	0	2	1
20	550	0	10000	2	1	0	2	1
22	551	0	10000	2	1	0	2	1
21	551	0	10000	2	1	0	2	0
20	552	0	10000	2	1	0	2	0
20	554	0	10000	2	1	0	2	0
19	555	0	10000	2	1	0	2	0
20	556	0	10000	2	1	0	2	0
21	557	0	10000	2	1	0	2	0
21	558	0	10000	2	1	0	2	0
21	559	0	10000	2	1	0	2	0
21	560	0	10000	2	1	0	2	0
20	561	0	10000	2	1	0	2	0
19	561	0	10000	2	1	0	2	0
19	562	0	10000	2	1	0	2	0
20	564	0	10000	2	1	0	2	0
23	565	0	10000	2	1	0	2	0
23	566	0	10000	2	1	0	2	0
22	567	0	10000	2	1	0	2	0
22	568	0	10000	2	1	0	2	0
20	569	0	10000	2	1	0	2	0
20	570	0	10000	2	1	0	2	0
20	571	0	10000	2	1	0	2	0
20	571	0	10000	2	1	0	2	0
19	572	0	10000	2	1	0	2	0
18	574	0	10000	2	1	0	2	0
18	575	0	10000	2	1	0	2	0
17	576	0	10000	2	1	0	2	0
16	577	0	10000	2	1	0	2	0
17	578	0	10000	2	1	0	2	0
17	579	0	10000	2	1	0	2	0
17	580	0	10000	2	1	0	2	0
14	581	0	10000	2	1	0	2	0
15	581	0	10000	2	1	0	2	0
15	582	0	10000	2	1	0	2	0
15	584	0	10000	2	1	0	2	0
15	585	0	10000	2	1	0	2	0
16	586	0	10000	2	1	0	2	0
16	587	0	10000	2	1	0	2	0
15	588	0	10000	2	1	0	2	0
15	589	0	10000	2	1	0	2	0
15	590	0	10000	2	1	0	2	0
21	591	0	10000	2	1	0	2	0
24	591	0	10000	2	1	0	2	0
28	592	0	10000	2	1	0	2	0
32	594	0	10000	2	1	0	2	0
41	595	0	10000	2	1	0	2	0
48	596	0	10000	2	1	0	2	0
48	597	0	10000	2	1	0	2	0
47	598	0	10000	2	1	0	2	0
48	599	0	10000	2	1	0	2	0
59	600	0	10000	2	1	0	2	0
73	601	0	10000	2	1	0	2	0
74	601	0	10000	2	1	0	2	0
76	602	0	10000	2	1	0	2	0
84	604	0	10000	2	1	0	2	0
116	605	0	10000	2	1	0	2	0
148	606	0	10000	2	1	0	2	0
153	607	0	10000	2	1	0	2	0
148	608	0	10000	2	1	0	2	0
151	609	0	10000	2	1	0	2	0
167	610	0	10000	2	1	0	2	0
201	611	0	10000	2	1	0	2	0
215	611	0	10000	2	1	0	2	0
209	612	0	10000	2	1	0	2	0
207	614	0	10000	2	1	0	2	0
205	615	0	10000	2	1	0	2	0
211	616	0	10000	2	1	0	2	0
203	617	0	10000	2	1	0	2	0
200	618	0	10000	2	1	0	2	0
192	619	0	10000	2	1	0	2	0
189	620	0	10000	2	1	0	2	0
182	621	0	10000	2	1	0	2	0
175	621	0	10000	2	1	0	2	0
173	622	0	10000	2	1	0	2	0
171	624	0	10000	2	1	0	2	0
171	625	0	10000	2	1	0	2	0
177	626	0	10000	2	1	0	2	0
176	627	0	10000	2	1	0	2	0
175	628	0	10000	2	1	0	2	0
180	629	0	10000	2	1	0	2	0
183	630	0	10000	2	1	0	2	0
186	631	0	10000	2	1	0	2	0
185	631	0	10000	2	1	0	2	0
182	632	0	10000	2	1	0	2	0
176	634	0	10000	2	1	0	2	0
169	635	0	10000	2	1	0	2	0
161	636	0	10000	2	1	0	2	0
155	637	0	10000	2	1	0	2	0
151	638	0	10000	2	1	0	2	0
144	639	0	10000	2	1	0	2	0
139	640	0	10000	2	1	0	2	0
134	641	0	10000	2	1	0	2	0
130	641	0	10000	2	1	0	2	0
125	642	0	10000	2	1	0	2	0
120	644	0	10000	2	1	0	2	0
117	645	0	10000	2	1	0	2	0
112	646	0	10000	2	1	0	2	0
111	647	0	10000	2	1	0	2	0
105	648	0	10000	2	1	0	2	0
104	649	0	10000	2	1	0	2	0
103	650	0	10000	2	1	0	2	0
101	651	0	10000	2	1	0	2	0
97	651	0	10000	2	1	0	2	0
95	652	0	10000	2	1	0	2	0
93	654	0	10000	2	1	0	2	0
90	655	0	10000	2	1	0	2	0
87	656	0	10000	2	1	0	2	0
84	657	0	10000	2	1	0	2	0
83	658	0	10000	2	1	0	2	0
82	659	0	10000	2	1	0	2	0
81	660	0	10000	2	1	0	2	0
77	661	0	10000	2	1	0	2	0
77	661	0	10000	2	1	0	2	0
78	662	0	10000	2	1	0	2	0
77	664	0	10000	2	1	0	2	0
76	665	0	10000	2	1	0	2	0
75	666	0	10000	2	1	0	2	0
75	667	0	10000	2	1	0	2	0
71	668	0	10000	2	1	0	2	0
68	669	0	10000	2	1	0	2	0
64	670	0	10000	2	1	0	2	0
65	671	0	10000	2	1	0	2	0
64	671	0	10000	2	1	0	2	0
62	672	0	10000	2	1	0	2	0
61	674	0	10000	2	1	0	2	0
60	675	0	10000	2	1	0	2	0
58	676	0	10000	2	1	0	2	0
57	677	0	10000	2	1	0	2	0
56	678	0	10000	2	1	0	2	0
55	679	0	10000	2	1	0	2	0
53	680	0	10000	2	1	0	2	0
50	681	0	10000	2	1	0	2	0
48	681	0	10000	2	1	0	2	0
46	682	0	10000	2	1	0	2	0
46	684	0	10000	2	1	0	2	0
44	685	0	10000	2	1	0	2	0
42	686	0	10000	2	1	0	2	0
42	687	0	10000	2	1	0	2	0
40	688	0	10000	2	1	0	2	0
38	689	0	10000	2	1	0	2	0
36	690	0	10000	2	1	0	2	0
38	691	0	10000	2	1	0	2	0
35	691	0	10000	2	1	0	2	0
34	692	0	10000	2	1	0	2	0
33	694	0	10000	2	1	0	2	0
33	695	0	10000	2	1	0	2	0
33	696	0	10000	2	1	0	2	0
33	697	0	10000	2	1	0	2	0
33	698	0	10000	2	1	0	2	0
32	699	0	10000	2	1	0	2	0
34	700	0	10000	2	1	0	2	0
33	701	0	10000	2	1	0	2	0
32	701	0	10000	2	1	0	2	0
31	702	0	10000	2	1	0	2	0
31	704	0	10000	2	1	0	2	0
30	705	0	10000	2	1	0	2	0
29	706	0	10000	2	1	0	2	0
29	707	0	10000	2	1	0	2	0
28	708	0	10000	2	1	0	2	0
29	709	0	10000	2	1	0	2	0
27	710	0	10000	2	1	0	2	0
28	711	0	10000	2	1	0	2	0
27	711	0	10000	2	1	0	2	0
27	712	0	10000	2	1	0	2	0
26	714	0	10000	2	1	0	2	0
27	715	0	10000	2	1	0	2	0
25	716	0	10000	2	1	0	2	0
26	717	0	10000	2	1	0	2	0
28	718	0	10000	2	1	0	2	0
28	719	0	10000	2	1	0	2	0
29	720	0	10000	2	1	0	2	0
27	721	0	10000	2	1	0	2	0
26	721	0	10000	2	1	0	2	0
25	722	0	10000	2	1	0	2	0
27	724	0	10000	2	1	0	2	0
26	725	0	10000	2	1	0	2	0
25	726	0	10000	2	1	0	2	0
25	727	0	10000	2	1	0	2	0
25	728	0	10000	2	1	0	2	0
24	729	0	10000	2	1	0	2	0
22	730	0	10000	2	1	0	2	0
23	731	0	10000	2	1	0	2	0
25	731	0	10000	2	1	0	2	0
26	732	0	10000	2	1	0	2	0
25	734	0	10000	2	1	0	2	0
24	735	0	10000	2	1	0	2	0
23	736	0	10000	2	1	0	2	0
23	737	0	10000	2	1	0	2	0
22	738	0	10000	2	1	0	2	0
22	739	0	10000	2	1	0	2	0
24	740	0	10000	2	1	0	2	0
23	741	0	10000	2	1	0	2	0
23	741	0	10000	2	1	0	2	0
24	742	0	10000	2	1	0	2	0
25	744	0	10000	2	1	0	2	0
26	745	0	10000	2	1	0	2	0
25	746	0	10000	2	1	0	2	0
25	747	0	10000	2	1	0	2	0
24	748	0	10000	2	1	0	2	0
24	749	0	10000	2	1	0	2	0
22	750	0	10000	2	1	0	2	0
24	751	0	10000	2	1	0	2	0
23	751	0	10000	2	1	0	2	0
23	752	0	10000	2	1	0	2	0
22	754	0	10000	2	1	0	2	0
21	755	0	10000	2	1	0	2	0
20	756	0	10000	2	1	0	2	0
20	757	0	10000	2	1	0	2	0
20	758	0	10000	2	1	0	2	0
19	759	0	10000	2	1	0	2	0
19	760	0	10000	2	1	0	2	0
17	761	0	10000	2	1	0	2	0
17	761	0	10000	2	1	0	2	0
17	762	0	10000	2	1	0	2	0
17	764	0	10000	2	1	0	2	0
16	765	0	10000	2	1	0	2	0
17	766	0	10000	2	1	0	2	0
16	767	0	10000	2	1	0	2	0
16	768	0	10000	2	1	0	2	0
15	769	0	10000	2	1	0	2	0
15	770	0	10000	2	1	0	2	0
17	771	0	10000	2	1	0	2	0
16	771	0	10000	2	1	0	2	0
16	772	0	10000	2	1	0	2	0
16	774	0	10000	2	1	0	2	0
15	775	0	10000	2	1	0	2	0
16	776	0	10000	2	1	0	2	0
16	777	0	10000	2	1	0	2	0
16	778	0	10000	2	1	0	2	0
17	779	0	10000	2	1	0	2	0
20	780	0	10000	2	1	0	2	0
19	781	0	10000	2	1	0	2	0
19	781	0	10000	2	1	0	2	0
20	782	0	10000	2	1	0	2	0
19	784	0	10000	2	1	0	2	0
18	785	0	10000	2	1	0	2	0
19	786	0	10000	2	1	0	2	0
19	787	0	10000	2	1	0	2	0
18	788	0	10000	2	1	0	2	0
18	789	0	10000	2	1	0	2	0
17	790	0	10000	2	1	0	2	0
18	791	0	10000	2	1	0	2	0
19	791	0	10000	2	1	0	2	0
19	792	0	10000	2	1	0	2	0
20	794	0	10000	2	1	0	2	0
19	795	0	10000	2	1	0	2	0
19	796	0	10000	2	1	0	2	0
19	797	0	10000	2	1	0	2	0
20	798	0	10000	2	1	0	2	0
22	799	0	10000	2	1	0	2	0
24	800	0	10000	2	1	0	2	0
25	801	0	10000	2	1	0	2	0
27	801	0	10000	2	1	0	2	0
28	802	0	10000	2	1	0	2	0
27	804	0	10000	2	1	0	2	0
27	805	0	10000	2	1	0	2	0
26	806	0	10000	2	1	0	2	0
27	807	0	10000	2	1	0	2	0
27	808	0	10000	2	1	0	2	0
25	809	0	10000	2	1	0	2	0
24	810	0	10000	2	1	0	2	0
27	811	0	10000	2	1	0	2	0
26	811	0	10000	2	1	0	2	0
25	812	0	10000	2	1	0	2	0
24	814	0	10000	2	1	0	2	0
24	815	0	10000	2	1	0	2	0
24	816	0	10000	2	1	0	2	0
25	817	0	10000	2	1	0	2	0
24	818	0	10000	2	1	0	2	0
25	819	0	10000	2	1	0	2	0
26	820	0	10000	2	1	0	2	0
24	821	0	10000	2	1	0	2	0
22	821	0	10000	2	1	0	2	0
23	822	0	10000	2	1	0	2	0
22	824	0	10000	2	1	0	2	0
21	825	0	10000	2	1	0	2	0
20	826	0	10000	2	1	0	2	0
20	827	0	10000	2	1	0	2	0
19	828	0	10000	2	1	0	2	0
19	829	0	10000	2	1	0	2	0
19	830	0	10000	2	1	0	2	0
22	831	0	10000	2	1	0	2	0
21	831	0	10000	2	1	0	2	0
21	832	0	10000	2	1	0	2	0
20	834	0	10000	2	1	0	2	0
20	835	0	10000	2	1	0	2	0
20	836	0	10000	2	1	0	2	0
20	837	0	10000	2	1	0	2	0
20	838	0	10000	2	1	0	2	0
19	839	0	10000	2	1	0	2	0
20	840	0	10000	2	1	0	2	0
18	841	0	10000	2	1	0	2	0
18	841	0	10000	2	1	0	2	0
18	842	0	10000	2	1	0	2	0
18	844	0	10000	2	1	0	2	0
19	845	0	10000	2	1	0	2	0
19	846	0	10000	2	1	0	2	0
19	847	0	10000	2	1	0	2	0
19	848	0	10000	2	1	0	2	0
17	849	0	10000	2	1	0	2	0
17	850	0	10000	2	1	0	2	0
19	851	0	10000	2	1	0	2	0
18	851	0	10000	2	1	0	2	0
18	852	0	10000	2	1	0	2	0
18	854	0	10000	2	1	0	2	0
18	855	0	10000	2	1	0	2	0
19	856	0	10000	2	1	0	2	0
18	857	0	10000	2	1	0	2	0
20	858	0	10000	2	1	0	2	0
22	859	0	10000	2	1	0	2	0
24	860	0	10000	2	1	0	2	0
22	861	0	10000	2	1	0	2	0
23	861	0	10000	2	1	0	2	0
22	862	0	10000	2	1	0	2	0
22	864	0	10000	2	1	0	2	0
22	865	0	10000	2	1	0	2	0
21	866	0	10000	2	1	0	2	0
23	867	0	10000	2	1	0	2	0
22	868	0	10000	2	1	0	2	0
21	869	0	10000	2	1	0	2	0
20	870	0	10000	2	1	0	2	0
22	871	0	10000	2	1	0	2	0
20	871	0	10000	2	1	0	2	0
20	872	0	10000	2	1	0	2	0
20	874	0	10000	2	1	0	2	0
20	875	0	10000	2	1	0	2	0
20	876	0	10000	2	1	0	2	0
19	877	0	10000	2	1	0	2	0
20	878	0	10000	2	1	0	2	0
20	879	0	10000	2	1	0	2	0
21	880	0	10000	2	1	0	2	0
23	881	0	10000	2	1	0	2	0
25	881	0	10000	2	1	0	2	0
23	882	0	10000	2	1	0	2	0
25	884	0	10000	2	1	0	2	0
25	885	0	10000	2	1	0	2	0
24	886	0	10000	2	1	0	2	0
23	887	0	10000	2	1	0	2	0
22	888	0	10000	2	1	0	2	0
23	889	0	10000	2	1	0	2	0
22	890	0	10000	2	1	0	2	0
24	891	0	10000	2	1	0	2	0
23	891	0	10000	2	1	0	2	0
22	892	0	10000	2	1	0	2	0
22	894	0	10000	2	1	0	2	0
21	895	0	10000	2	1	0	2	0
20	896	0	10000	2	1	0	2	0
20	897	0	10000	2	1	0	2	0
22	898	0	10000	2	1	0	2	0
24	899	0	10000	2	1	0	2	0
23	900	0	10000	2	1	0	2	0
21	901	0	10000	2	1	0	2	0
22	901	0	10000	2	1	0	2	0
21	902	0	10000	2	1	0	2	0
21	904	0	10000	2	1	0	2	0
21	905	0	10000	2	1	0	2	0
20	906	0	10000	2	1	0	2	0
20	907	0	10000	2	1	0	2	0
21	908	0	10000	2	1	0	2	0
22	909	0	10000	2	1	0	2	0
21	910	0	10000	2	1	0	2	0
23	911	0	10000	2	1	0	2	0
22	911	0	10000	2	1	0	2	0
23	912	0	10000	2	1	0	2	0
22	914	0	10000	2	1	0	2	0
21	915	0	10000	2	1	0	2	0
21	916	0	10000	2	1	0	2	0
19	917	0	10000	2	1	0	2	0
20	918	0	10000	2	1	0	2	0
22	919	0	10000	2	1	0	2	0
22	920	0	10000	2	1	0	2	0
20	921	0	10000	2	1	0	2	0
20	921	0	10000	2	1	0	2	0
20	922	0	10000	2	1	0	2	0
22	924	0	10000	2	1	0	2	0
22	925	0	10000	2	1	0	2	0
21	926	0	10000	2	1	0	2	0
23	927	0	10000	2	1	0	2	0
22	928	0	10000	2	1	0	2	0
22	929	0	10000	2	1	0	2	0
21	930	0	10000	2	1	0	2	0
25	931	0	10000	2	1	0	2	0
24	931	0	10000	2	1	0	2	0
24	932	0	10000	2	1	0	2	0
23	934	0	10000	2	1	0	2	0
22	935	0	10000	2	1	0	2	0
21	936	0	10000	2	1	0	2	0
21	937	0	10000	2	1	0	2	0
22	938	0	10000	2	1	0	2	0
22	939	0	10000	2	1	0	2	0
24	940	0	10000	2	1	0	2	0
21	941	0	10000	2	1	0	2	0
21	941	0	10000	2	1	0	2	0
21	942	0	10000	2	1	0	2	0
21	944	0	10000	2	1	0	2	0
20	945	0	10000	2	1	0	2	0
20	946	0	10000	2	1	0	2	0
20	947	0	10000	2	1	0	2	0
19	948	0	10000	2	1	0	2	0
18	949	0	10000	2	1	0	2	0
18	950	0	10000	2	1	0	2	0
19	951	0	10000	2	1	0	2	0
18	951	0	10000	2	1	0	2	0
17	952	0	10000	2	1	0	2	0
17	954	0	10000	2	1	0	2	0
16	955	0	10000	2	1	0	2	0
16	956	0	10000	2	1	0	2	0
16	957	0	10000	2	1	0	2	0
17	958	0	10000	2	1	0	2	0
18	959	0	10000	2	1	0	2	0
20	960	0	10000	2	1	0	2	0
18	961	0	10000	2	1	0	2	0
18	961	0	10000	2	1	0	2	0
19	962	0	10000	2	1	0	2	0
20	964	0	10000	2	1	0	2	0
21	965	0	10000	2	1	0	2	0
21	966	0	10000	2	1	0	2	0
22	967	0	10000	2	1	0	2	0
20	968	0	10000	2	1	0	2	0
20	969	0	10000	2	1	0	2	0
20	970	0	10000	2	1	0	2	0
20	971	0	10000	2	1	0	2	0
20	971	0	10000	2	1	0	2	0
19	972	0	10000	2	1	0	2	0
18	974	0	10000	2	1	0	2	0
19	975	0	10000	2	1	0	2	0
20	976	0	10000	2	1	0	2	0
19	977	0	10000	2	1	0	2	0
19	978	0	10000	2	1	0	2	0
18	979	0	10000	2	1	0	2	0
18	980	0	10000	2	1	0	2	0
15	981	0	10000	2	1	0	2	0
15	981	0	10000	2	1	0	2	0
15	982	0	10000	2	1	0	2	0
16	984	0	10000	2	1	0	2	0
15	985	0	10000	2	1	0	2	0
16	986	0	10000	2	1	0	2	0
17	987	0	10000	2	1	0	2	0
17	988	0	10000	2	1	0	2	0
17	989	0	10000	2	1	0	2	0
17	990	0	10000	2	1	0	2	0
19	991	0	10000	2	1	0	2	0
18	991	0	10000	2	1	0	2	0
18	992	0	10000	2	1	0	2	0
18	994	0	10000	2	1	0	2	0
18	995	0	10000	2	1	0	2	0
18	996	0	10000	2	1	0	2	0
17	997	0	10000	2	1	0	2	0
18	998	0	10000	2	1	0	2	0
18	999	0	10000	2	1	0	2	0
18	1000	0	10000	2	1	0	2	0
16	1001	0	10000	2	1	0	2	0
28	2	0	10000	3	1	0	3	0
28	3	0	10000	3	1	0	3	0
26	4	0	10000	3	1	0	3	0
25	5	0	10000	3	1	0	3	0
25	6	0	10000	3	1	0	3	0
24	7	0	10000	3	1	0	3	0
23	8	0	10000	3	1	0	3	0
23	9	0	10000	3	1	0	3	0
23	10	0	10000	3	1	0	3	0
22	11	0	10000	3	1	0	3	0
20	12	0	10000	3	1	0	3	0
21	13	0	10000	3	1	0	3	0
21	14	0	10000	3	1	0	3	0
21	15	0	10000	3	1	0	3	0
22	16	0	10000	3	1	0	3	0
23	17	0	10000	3	1	0	3	0
25	18	0	10000	3	1	0	3	0
24	19	0	10000	3	1	0	3	0
24	20	0	10000	3	1	0	3	0
26	21	0	10000	3	1	0	3	0
29	22	0	10000	3	1	0	3	0
28	23	0	10000	3	1	0	3	0
26	24	0	10000	3	1	0	3	0
25	25	0	10000	3	1	0	3	0
24	26	0	10000	3	1	0	3	0
23	27	0	10000	3	1	0	3	0
23	28	0	10000	3	1	0	3	0
25	29	0	10000	3	1	0	3	0
26	30	0	10000	3	1	0	3	0
28	31	0	10000	3	1	0	3	0
28	32	0	10000	3	1	0	3	0
29	33	0	10000	3	1	0	3	0
29	34	0	10000	3	1	0	3	0
30	35	0	10000	3	1	0	3	0
30	36	0	10000	3	1	0	3	0
29	37	0	10000	3	1	0	3	0
28	38	0	10000	3	1	0	3	0
26	39	0	10000	3	1	0	3	0
25	40	0	10000	3	1	0	3	0
24	41	0	10000	3	1	0	3	0
25	42	0	10000	3	1	0	3	0
24	43	0	10000	3	1	0	3	0
24	44	0	10000	3	1	0	3	0
23	45	0	10000	3	1	0	3	0
22	46	0	10000	3	1	0	3	0
22	47	0	10000	3	1	0	3	0
21	48	0	10000	3	1	0	3	0
22	49	0	10000	3	1	0	3	0
21	50	0	10000	3	1	0	3	0
23	51	0	10000	3	1	0	3	0
21	52	0	10000	3	1	0	3	0
22	53	0	10000	3	1	0	3	0
23	54	0	10000	3	1	0	3	0
25	55	0	10000	3	1	0	3	0
26	56	0	10000	3	1	0	3	0
26	57	0	10000	3	1	0	3	0
26	58	0	10000	3	1	0	3	0
26	59	0	10000	3	1	0	3	0
29	60	0	10000	3	1	0	3	0
28	61	0	10000	3	1	0	3	0
29	62	0	10000	3	1	0	3	0
28	63	0	10000	3	1	0	3	0
28	64	0	10000	3	1	0	3	0
27	65	0	10000	3	1	0	3	0
27	66	0	10000	3	1	0	3	0
27	67	0	10000	3	1	0	3	0
26	68	0	10000	3	1	0	3	0
28	69	0	10000	3	1	0	3	0
29	70	0	10000	3	1	0	3	0
29	71	0	10000	3	1	0	3	0
27	72	0	10000	3	1	0	3	0
27	73	0	10000	3	1	0	3	0
28	74	0	10000	3	1	0	3	0
27	75	0	10000	3	1	0	3	0
26	76	0	10000	3	1	0	3	0
27	77	0	10000	3	1	0	3	0
28	78	0	10000	3	1	0	3	0
26	79	0	10000	3	1	0	3	0
24	80	0	10000	3	1	0	3	0
24	81	0	10000	3	1	0	3	0
25	82	0	10000	3	1	0	3	0
26	83	0	10000	3	1	0	3	0
27	84	0	10000	3	1	0	3	0
26	85	0	10000	3	1	0	3	0
26	86	0	10000	3	1	0	3	0
27	87	0	10000	3	1	0	3	0
26	88	0	10000	3	1	0	3	0
25	89	0	10000	3	1	0	3	0
27	90	0	10000	3	1	0	3	0
30	91	0	10000	3	1	0	3	0
27	92	0	10000	3	1	0	3	0
28	93	0	10000	3	1	0	3	0
30	94	0	10000	3	1	0	3	0
29	95	0	10000	3	1	0	3	0
29	96	0	10000	3	1	0	3	0
28	97	0	10000	3	1	0	3	0
28	98	0	10000	3	1	0	3	0
26	99	0	10000	3	1	0	3	0
26	100	0	10000	3	1	0	3	0
26	101	0	10000	3	1	0	3	0
27	102	0	10000	3	1	0	3	0
26	103	0	10000	3	1	0	3	0
25	104	0	10000	3	1	0	3	0
25	105	0	10000	3	1	0	3	0
24	106	0	10000	3	1	0	3	0
24	107	0	10000	3	1	0	3	0
23	108	0	10000	3	1	0	3	0
22	109	0	10000	3	1	0	3	0
22	110	0	10000	3	1	0	3	0
23	111	0	10000	3	1	0	3	0
22	112	0	10000	3	1	0	3	0
21	113	0	10000	3	1	0	3	0
21	114	0	10000	3	1	0	3	0
21	115	0	10000	3	1	0	3	0
21	116	0	10000	3	1	0	3	0
21	117	0	10000	3	1	0	3	0
22	118	0	10000	3	1	0	3	0
20	119	0	10000	3	1	0	3	0
20	120	0	10000	3	1	0	3	0
19	121	0	10000	3	1	0	3	0
21	122	0	10000	3	1	0	3	0
20	123	0	10000	3	1	0	3	0
20	124	0	10000	3	1	0	3	0
21	125	0	10000	3	1	0	3	0
20	126	0	10000	3	1	0	3	0
19	127	0	10000	3	1	0	3	0
19	128	0	10000	3	1	0	3	0
19	129	0	10000	3	1	0	3	0
18	130	0	10000	3	1	0	3	0
18	131	0	10000	3	1	0	3	0
16	132	0	10000	3	1	0	3	0
18	133	0	10000	3	1	0	3	0
19	134	0	10000	3	1	0	3	0
19	135	0	10000	3	1	0	3	0
20	136	0	10000	3	1	0	3	0
19	137	0	10000	3	1	0	3	0
19	138	0	10000	3	1	0	3	0
19	139	0	10000	3	1	0	3	0
18	140	0	10000	3	1	0	3	0
18	141	0	10000	3	1	0	3	0
21	142	0	10000	3	1	0	3	0
20	143	0	10000	3	1	0	3	0
19	144	0	10000	3	1	0	3	0
20	145	0	10000	3	1	0	3	0
20	146	0	10000	3	1	0	3	0
20	147	0	10000	3	1	0	3	0
19	148	0	10000	3	1	0	3	0
21	149	0	10000	3	1	0	3	0
21	150	0	10000	3	1	0	3	0
21	151	0	10000	3	1	0	3	0
19	152	0	10000	3	1	0	3	0
18	153	0	10000	3	1	0	3	0
19	154	0	10000	3	1	0	3	0
19	155	0	10000	3	1	0	3	0
20	156	0	10000	3	1	0	3	0
20	157	0	10000	3	1	0	3	0
21	158	0	10000	3	1	0	3	0
21	159	0	10000	3	1	0	3	0
20	160	0	10000	3	1	0	3	0
20	161	0	10000	3	1	0	3	0
23	162	0	10000	3	1	0	3	0
22	163	0	10000	3	1	0	3	0
24	164	0	10000	3	1	0	3	0
23	165	0	10000	3	1	0	3	0
23	166	0	10000	3	1	0	3	0
23	167	0	10000	3	1	0	3	0
24	168	0	10000	3	1	0	3	0
25	169	0	10000	3	1	0	3	0
24	170	0	10000	3	1	0	3	0
25	171	0	10000	3	1	0	3	0
22	172	0	10000	3	1	0	3	0
22	173	0	10000	3	1	0	3	0
23	174	0	10000	3	1	0	3	0
23	175	0	10000	3	1	0	3	0
24	176	0	10000	3	1	0	3	0
22	177	0	10000	3	1	0	3	0
23	178	0	10000	3	1	0	3	0
24	179	0	10000	3	1	0	3	0
24	180	0	10000	3	1	0	3	0
24	181	0	10000	3	1	0	3	0
25	182	0	10000	3	1	0	3	0
24	183	0	10000	3	1	0	3	0
23	184	0	10000	3	1	0	3	0
22	185	0	10000	3	1	0	3	0
21	186	0	10000	3	1	0	3	0
21	187	0	10000	3	1	0	3	0
20	188	0	10000	3	1	0	3	0
22	189	0	10000	3	1	0	3	0
21	190	0	10000	3	1	0	3	0
21	191	0	10000	3	1	0	3	0
19	192	0	10000	3	1	0	3	0
20	193	0	10000	3	1	0	3	0
19	194	0	10000	3	1	0	3	0
19	195	0	10000	3	1	0	3	0
20	196	0	10000	3	1	0	3	0
20	197	0	10000	3	1	0	3	0
20	198	0	10000	3	1	0	3	0
21	199	0	10000	3	1	0	3	0
21	200	0	10000	3	1	0	3	0
22	201	0	10000	3	1	0	3	0
24	202	0	10000	3	1	0	3	0
25	203	0	10000	3	1	0	3	0
25	204	0	10000	3	1	0	3	0
24	205	0	10000	3	1	0	3	0
23	206	0	10000	3	1	0	3	0
23	207	0	10000	3	1	0	3	0
23	208	0	10000	3	1	0	3	0
23	209	0	10000	3	1	0	3	0
23	210	0	10000	3	1	0	3	0
23	211	0	10000	3	1	0	3	0
21	212	0	10000	3	1	0	3	0
22	213	0	10000	3	1	0	3	0
21	214	0	10000	3	1	0	3	0
21	215	0	10000	3	1	0	3	0
21	216	0	10000	3	1	0	3	0
20	217	0	10000	3	1	0	3	0
20	218	0	10000	3	1	0	3	0
20	219	0	10000	3	1	0	3	0
18	220	0	10000	3	1	0	3	0
18	221	0	10000	3	1	0	3	0
19	222	0	10000	3	1	0	3	0
19	223	0	10000	3	1	0	3	0
18	224	0	10000	3	1	0	3	0
19	225	0	10000	3	1	0	3	0
19	226	0	10000	3	1	0	3	0
20	227	0	10000	3	1	0	3	0
19	228	0	10000	3	1	0	3	0
19	229	0	10000	3	1	0	3	0
20	230	0	10000	3	1	0	3	0
22	231	0	10000	3	1	0	3	0
21	232	0	10000	3	1	0	3	0
21	233	0	10000	3	1	0	3	0
20	234	0	10000	3	1	0	3	0
22	235	0	10000	3	1	0	3	0
26	236	0	10000	3	1	0	3	0
26	237	0	10000	3	1	0	3	0
25	238	0	10000	3	1	0	3	0
24	239	0	10000	3	1	0	3	0
24	240	0	10000	3	1	0	3	0
25	241	0	10000	3	1	0	3	0
26	242	0	10000	3	1	0	3	0
25	243	0	10000	3	1	0	3	0
26	244	0	10000	3	1	0	3	0
25	245	0	10000	3	1	0	3	0
25	246	0	10000	3	1	0	3	0
25	247	0	10000	3	1	0	3	0
24	248	0	10000	3	1	0	3	0
24	249	0	10000	3	1	0	3	0
27	250	0	10000	3	1	0	3	0
28	251	0	10000	3	1	0	3	0
26	252	0	10000	3	1	0	3	0
27	253	0	10000	3	1	0	3	0
26	254	0	10000	3	1	0	3	0
25	255	0	10000	3	1	0	3	0
25	256	0	10000	3	1	0	3	0
25	257	0	10000	3	1	0	3	0
25	258	0	10000	3	1	0	3	0
25	259	0	10000	3	1	0	3	0
23	260	0	10000	3	1	0	3	0
22	261	0	10000	3	1	0	3	0
25	262	0	10000	3	1	0	3	0
27	263	0	10000	3	1	0	3	0
27	264	0	10000	3	1	0	3	0
25	265	0	10000	3	1	0	3	0
25	266	0	10000	3	1	0	3	0
25	267	0	10000	3	1	0	3	0
27	268	0	10000	3	1	0	3	0
31	269	0	10000	3	1	0	3	0
35	270	0	10000	3	1	0	3	0
37	271	0	10000	3	1	0	3	0
34	272	0	10000	3	1	0	3	0
37	273	0	10000	3	1	0	3	0
39	274	0	10000	3	1	0	3	0
42	275	0	10000	3	1	0	3	0
42	276	0	10000	3	1	0	3	0
41	277	0	10000	3	1	0	3	0
42	278	0	10000	3	1	0	3	0
44	279	0	10000	3	1	0	3	0
46	280	0	10000	3	1	0	3	0
49	281	0	10000	3	1	0	3	0
49	282	0	10000	3	1	0	3	0
47	283	0	10000	3	1	0	3	0
46	284	0	10000	3	1	0	3	0
45	285	0	10000	3	1	0	3	0
45	286	0	10000	3	1	0	3	0
47	287	0	10000	3	1	0	3	0
47	288	0	10000	3	1	0	3	0
47	289	0	10000	3	1	0	3	0
49	290	0	10000	3	1	0	3	0
50	291	0	10000	3	1	0	3	0
48	292	0	10000	3	1	0	3	0
47	293	0	10000	3	1	0	3	0
46	294	0	10000	3	1	0	3	0
47	295	0	10000	3	1	0	3	0
50	296	0	10000	3	1	0	3	0
51	297	0	10000	3	1	0	3	0
52	298	0	10000	3	1	0	3	0
49	299	0	10000	3	1	0	3	0
47	300	0	10000	3	1	0	3	0
46	301	0	10000	3	1	0	3	0
48	302	0	10000	3	1	0	3	0
47	303	0	10000	3	1	0	3	0
46	304	0	10000	3	1	0	3	0
45	305	0	10000	3	1	0	3	0
46	306	0	10000	3	1	0	3	0
45	307	0	10000	3	1	0	3	0
45	308	0	10000	3	1	0	3	0
48	309	0	10000	3	1	0	3	0
49	310	0	10000	3	1	0	3	0
48	311	0	10000	3	1	0	3	0
46	312	0	10000	3	1	0	3	0
46	313	0	10000	3	1	0	3	0
46	314	0	10000	3	1	0	3	0
47	315	0	10000	3	1	0	3	0
47	316	0	10000	3	1	0	3	0
46	317	0	10000	3	1	0	3	0
45	318	0	10000	3	1	0	3	0
44	319	0	10000	3	1	0	3	0
41	320	0	10000	3	1	0	3	0
41	321	0	10000	3	1	0	3	0
42	322	0	10000	3	1	0	3	0
41	323	0	10000	3	1	0	3	0
39	324	0	10000	3	1	0	3	0
39	325	0	10000	3	1	0	3	0
38	326	0	10000	3	1	0	3	0
36	327	0	10000	3	1	0	3	0
34	328	0	10000	3	1	0	3	0
34	329	0	10000	3	1	0	3	0
32	330	0	10000	3	1	0	3	0
32	331	0	10000	3	1	0	3	0
30	332	0	10000	3	1	0	3	0
29	333	0	10000	3	1	0	3	0
30	334	0	10000	3	1	0	3	0
29	335	0	10000	3	1	0	3	0
29	336	0	10000	3	1	0	3	0
30	337	0	10000	3	1	0	3	0
32	338	0	10000	3	1	0	3	0
32	339	0	10000	3	1	0	3	0
32	340	0	10000	3	1	0	3	0
31	341	0	10000	3	1	0	3	0
32	342	0	10000	3	1	0	3	0
31	343	0	10000	3	1	0	3	0
30	344	0	10000	3	1	0	3	0
29	345	0	10000	3	1	0	3	0
28	346	0	10000	3	1	0	3	0
27	347	0	10000	3	1	0	3	0
26	348	0	10000	3	1	0	3	0
27	349	0	10000	3	1	0	3	0
25	350	0	10000	3	1	0	3	0
25	351	0	10000	3	1	0	3	0
22	352	0	10000	3	1	0	3	0
21	353	0	10000	3	1	0	3	0
21	354	0	10000	3	1	0	3	0
20	355	0	10000	3	1	0	3	0
20	356	0	10000	3	1	0	3	0
20	357	0	10000	3	1	0	3	0
20	358	0	10000	3	1	0	3	0
20	359	0	10000	3	1	0	3	0
18	360	0	10000	3	1	0	3	0
19	361	0	10000	3	1	0	3	0
21	362	0	10000	3	1	0	3	0
22	363	0	10000	3	1	0	3	0
21	364	0	10000	3	1	0	3	0
21	365	0	10000	3	1	0	3	0
22	366	0	10000	3	1	0	3	0
21	367	0	10000	3	1	0	3	0
20	368	0	10000	3	1	0	3	0
21	369	0	10000	3	1	0	3	0
20	370	0	10000	3	1	0	3	0
20	371	0	10000	3	1	0	3	0
18	372	0	10000	3	1	0	3	0
18	373	0	10000	3	1	0	3	0
17	374	0	10000	3	1	0	3	0
18	375	0	10000	3	1	0	3	0
17	376	0	10000	3	1	0	3	0
18	377	0	10000	3	1	0	3	0
17	378	0	10000	3	1	0	3	0
18	379	0	10000	3	1	0	3	0
19	380	0	10000	3	1	0	3	0
18	381	0	10000	3	1	0	3	0
19	382	0	10000	3	1	0	3	0
19	383	0	10000	3	1	0	3	0
20	384	0	10000	3	1	0	3	0
22	385	0	10000	3	1	0	3	0
22	386	0	10000	3	1	0	3	0
22	387	0	10000	3	1	0	3	0
22	388	0	10000	3	1	0	3	0
23	389	0	10000	3	1	0	3	0
22	390	0	10000	3	1	0	3	0
23	391	0	10000	3	1	0	3	0
21	392	0	10000	3	1	0	3	0
21	393	0	10000	3	1	0	3	0
20	394	0	10000	3	1	0	3	0
23	395	0	10000	3	1	0	3	0
27	396	0	10000	3	1	0	3	0
28	397	0	10000	3	1	0	3	0
28	398	0	10000	3	1	0	3	0
27	399	0	10000	3	1	0	3	0
28	400	0	10000	3	1	0	3	0
26	401	0	10000	3	1	0	3	0
32	402	0	10000	3	1	0	3	0
34	403	0	10000	3	1	0	3	0
39	404	0	10000	3	1	0	3	0
50	405	0	10000	3	1	0	3	0
54	406	0	10000	3	1	0	3	0
57	407	0	10000	3	1	0	3	0
61	408	0	10000	3	1	0	3	0
64	409	0	10000	3	1	0	3	0
63	410	0	10000	3	1	0	3	0
62	411	0	10000	3	1	0	3	0
59	412	0	10000	3	1	0	3	0
67	413	0	10000	3	1	0	3	0
92	414	0	10000	3	1	0	3	0
101	415	0	10000	3	1	0	3	0
107	416	0	10000	3	1	0	3	0
129	417	0	10000	3	1	0	3	0
150	418	0	10000	3	1	0	3	0
152	419	0	10000	3	1	0	3	0
152	420	0	10000	3	1	0	3	0
160	421	0	10000	3	1	0	3	0
171	422	0	10000	3	1	0	3	0
183	423	0	10000	3	1	0	3	0
198	424	0	10000	3	1	0	3	0
199	425	0	10000	3	1	0	3	0
240	426	0	10000	3	1	0	3	0
261	427	0	10000	3	1	0	3	0
259	428	0	10000	3	1	0	3	0
276	429	0	10000	3	1	0	3	0
289	430	0	10000	3	1	0	3	0
286	431	0	10000	3	1	0	3	0
280	432	0	10000	3	1	0	3	0
271	433	0	10000	3	1	0	3	0
261	434	0	10000	3	1	0	3	0
252	435	0	10000	3	1	0	3	0
244	436	0	10000	3	1	0	3	0
236	437	0	10000	3	1	0	3	0
232	438	0	10000	3	1	0	3	0
226	439	0	10000	3	1	0	3	0
218	440	0	10000	3	1	0	3	0
208	441	0	10000	3	1	0	3	0
202	442	0	10000	3	1	0	3	0
206	443	0	10000	3	1	0	3	0
213	444	0	10000	3	1	0	3	0
210	445	0	10000	3	1	0	3	0
203	446	0	10000	3	1	0	3	0
197	447	0	10000	3	1	0	3	0
189	448	0	10000	3	1	0	3	0
187	449	0	10000	3	1	0	3	0
187	450	0	10000	3	1	0	3	0
189	451	0	10000	3	1	0	3	0
185	452	0	10000	3	1	0	3	0
184	453	0	10000	3	1	0	3	0
184	454	0	10000	3	1	0	3	0
179	455	0	10000	3	1	0	3	0
171	456	0	10000	3	1	0	3	0
163	457	0	10000	3	1	0	3	0
156	458	0	10000	3	1	0	3	0
149	459	0	10000	3	1	0	3	0
146	460	0	10000	3	1	0	3	0
143	461	0	10000	3	1	0	3	0
144	462	0	10000	3	1	0	3	0
142	463	0	10000	3	1	0	3	0
137	464	0	10000	3	1	0	3	0
132	465	0	10000	3	1	0	3	0
128	466	0	10000	3	1	0	3	0
124	467	0	10000	3	1	0	3	0
121	468	0	10000	3	1	0	3	0
119	469	0	10000	3	1	0	3	0
117	470	0	10000	3	1	0	3	0
115	471	0	10000	3	1	0	3	0
108	472	0	10000	3	1	0	3	0
106	473	0	10000	3	1	0	3	0
103	474	0	10000	3	1	0	3	0
98	475	0	10000	3	1	0	3	0
97	476	0	10000	3	1	0	3	0
98	477	0	10000	3	1	0	3	0
100	478	0	10000	3	1	0	3	0
99	479	0	10000	3	1	0	3	0
99	480	0	10000	3	1	0	3	0
99	481	0	10000	3	1	0	3	0
104	482	0	10000	3	1	0	3	0
105	483	0	10000	3	1	0	3	0
107	484	0	10000	3	1	0	3	0
107	485	0	10000	3	1	0	3	0
105	486	0	10000	3	1	0	3	0
104	487	0	10000	3	1	0	3	0
104	488	0	10000	3	1	0	3	0
104	489	0	10000	3	1	0	3	0
103	490	0	10000	3	1	0	3	0
103	491	0	10000	3	1	0	3	0
100	492	0	10000	3	1	0	3	0
99	493	0	10000	3	1	0	3	0
99	494	0	10000	3	1	0	3	0
99	495	0	10000	3	1	0	3	0
98	496	0	10000	3	1	0	3	0
98	497	0	10000	3	1	0	3	0
98	498	0	10000	3	1	0	3	0
96	499	0	10000	3	1	0	3	0
93	500	0	10000	3	1	0	3	0
92	501	0	10000	3	1	0	3	0
95	502	0	10000	3	1	0	3	1
96	503	0	10000	3	1	0	3	1
96	504	0	10000	3	1	0	3	1
92	505	0	10000	3	1	0	3	1
88	506	0	10000	3	1	0	3	1
88	507	0	10000	3	1	0	3	1
89	508	0	10000	3	1	0	3	1
89	509	0	10000	3	1	0	3	1
85	510	0	10000	3	1	0	3	1
82	511	0	10000	3	1	0	3	1
78	512	0	10000	3	1	0	3	1
75	513	0	10000	3	1	0	3	1
72	514	0	10000	3	1	0	3	1
69	515	0	10000	3	1	0	3	1
67	516	0	10000	3	1	0	3	1
64	517	0	10000	3	1	0	3	1
61	518	0	10000	3	1	0	3	1
59	519	0	10000	3	1	0	3	1
55	520	0	10000	3	1	0	3	1
53	521	0	10000	3	1	0	3	1
54	522	0	10000	3	1	0	3	1
52	523	0	10000	3	1	0	3	1
50	524	0	10000	3	1	0	3	1
48	525	0	10000	3	1	0	3	1
46	526	0	10000	3	1	0	3	1
45	527	0	10000	3	1	0	3	1
44	528	0	10000	3	1	0	3	1
43	529	0	10000	3	1	0	3	1
42	530	0	10000	3	1	0	3	1
40	531	0	10000	3	1	0	3	1
38	532	0	10000	3	1	0	3	1
38	533	0	10000	3	1	0	3	1
37	534	0	10000	3	1	0	3	1
37	535	0	10000	3	1	0	3	1
37	536	0	10000	3	1	0	3	1
35	537	0	10000	3	1	0	3	1
35	538	0	10000	3	1	0	3	1
32	539	0	10000	3	1	0	3	1
32	540	0	10000	3	1	0	3	1
32	541	0	10000	3	1	0	3	1
36	542	0	10000	3	1	0	3	1
35	543	0	10000	3	1	0	3	1
34	544	0	10000	3	1	0	3	1
33	545	0	10000	3	1	0	3	1
32	546	0	10000	3	1	0	3	1
31	547	0	10000	3	1	0	3	1
32	548	0	10000	3	1	0	3	1
34	549	0	10000	3	1	0	3	1
35	550	0	10000	3	1	0	3	1
35	551	0	10000	3	1	0	3	1
32	552	0	10000	3	1	0	3	0
33	553	0	10000	3	1	0	3	0
32	554	0	10000	3	1	0	3	0
31	555	0	10000	3	1	0	3	0
33	556	0	10000	3	1	0	3	0
33	557	0	10000	3	1	0	3	0
32	558	0	10000	3	1	0	3	0
31	559	0	10000	3	1	0	3	0
30	560	0	10000	3	1	0	3	0
28	561	0	10000	3	1	0	3	0
30	562	0	10000	3	1	0	3	0
30	563	0	10000	3	1	0	3	0
29	564	0	10000	3	1	0	3	0
29	565	0	10000	3	1	0	3	0
27	566	0	10000	3	1	0	3	0
27	567	0	10000	3	1	0	3	0
26	568	0	10000	3	1	0	3	0
26	569	0	10000	3	1	0	3	0
27	570	0	10000	3	1	0	3	0
27	571	0	10000	3	1	0	3	0
25	572	0	10000	3	1	0	3	0
25	573	0	10000	3	1	0	3	0
25	574	0	10000	3	1	0	3	0
26	575	0	10000	3	1	0	3	0
25	576	0	10000	3	1	0	3	0
24	577	0	10000	3	1	0	3	0
23	578	0	10000	3	1	0	3	0
22	579	0	10000	3	1	0	3	0
22	580	0	10000	3	1	0	3	0
22	581	0	10000	3	1	0	3	0
23	582	0	10000	3	1	0	3	0
22	583	0	10000	3	1	0	3	0
26	584	0	10000	3	1	0	3	0
29	585	0	10000	3	1	0	3	0
29	586	0	10000	3	1	0	3	0
37	587	0	10000	3	1	0	3	0
38	588	0	10000	3	1	0	3	0
48	589	0	10000	3	1	0	3	0
58	590	0	10000	3	1	0	3	0
62	591	0	10000	3	1	0	3	0
73	592	0	10000	3	1	0	3	0
78	593	0	10000	3	1	0	3	0
84	594	0	10000	3	1	0	3	0
105	595	0	10000	3	1	0	3	0
123	596	0	10000	3	1	0	3	0
121	597	0	10000	3	1	0	3	0
122	598	0	10000	3	1	0	3	0
123	599	0	10000	3	1	0	3	0
129	600	0	10000	3	1	0	3	0
155	601	0	10000	3	1	0	3	0
176	602	0	10000	3	1	0	3	0
192	603	0	10000	3	1	0	3	0
229	604	0	10000	3	1	0	3	0
243	605	0	10000	3	1	0	3	0
239	606	0	10000	3	1	0	3	0
245	607	0	10000	3	1	0	3	0
242	608	0	10000	3	1	0	3	0
237	609	0	10000	3	1	0	3	0
230	610	0	10000	3	1	0	3	0
221	611	0	10000	3	1	0	3	0
209	612	0	10000	3	1	0	3	0
201	613	0	10000	3	1	0	3	0
197	614	0	10000	3	1	0	3	0
194	615	0	10000	3	1	0	3	0
193	616	0	10000	3	1	0	3	0
189	617	0	10000	3	1	0	3	0
182	618	0	10000	3	1	0	3	0
177	619	0	10000	3	1	0	3	0
175	620	0	10000	3	1	0	3	0
173	621	0	10000	3	1	0	3	0
168	622	0	10000	3	1	0	3	0
161	623	0	10000	3	1	0	3	0
154	624	0	10000	3	1	0	3	0
147	625	0	10000	3	1	0	3	0
142	626	0	10000	3	1	0	3	0
137	627	0	10000	3	1	0	3	0
130	628	0	10000	3	1	0	3	0
125	629	0	10000	3	1	0	3	0
121	630	0	10000	3	1	0	3	0
117	631	0	10000	3	1	0	3	0
113	632	0	10000	3	1	0	3	0
110	633	0	10000	3	1	0	3	0
106	634	0	10000	3	1	0	3	0
103	635	0	10000	3	1	0	3	0
99	636	0	10000	3	1	0	3	0
96	637	0	10000	3	1	0	3	0
94	638	0	10000	3	1	0	3	0
91	639	0	10000	3	1	0	3	0
90	640	0	10000	3	1	0	3	0
89	641	0	10000	3	1	0	3	0
89	642	0	10000	3	1	0	3	0
88	643	0	10000	3	1	0	3	0
87	644	0	10000	3	1	0	3	0
86	645	0	10000	3	1	0	3	0
84	646	0	10000	3	1	0	3	0
81	647	0	10000	3	1	0	3	0
78	648	0	10000	3	1	0	3	0
78	649	0	10000	3	1	0	3	0
77	650	0	10000	3	1	0	3	0
76	651	0	10000	3	1	0	3	0
72	652	0	10000	3	1	0	3	0
70	653	0	10000	3	1	0	3	0
70	654	0	10000	3	1	0	3	0
69	655	0	10000	3	1	0	3	0
66	656	0	10000	3	1	0	3	0
63	657	0	10000	3	1	0	3	0
64	658	0	10000	3	1	0	3	0
61	659	0	10000	3	1	0	3	0
58	660	0	10000	3	1	0	3	0
56	661	0	10000	3	1	0	3	0
57	662	0	10000	3	1	0	3	0
58	663	0	10000	3	1	0	3	0
58	664	0	10000	3	1	0	3	0
60	665	0	10000	3	1	0	3	0
60	666	0	10000	3	1	0	3	0
58	667	0	10000	3	1	0	3	0
56	668	0	10000	3	1	0	3	0
55	669	0	10000	3	1	0	3	0
52	670	0	10000	3	1	0	3	0
50	671	0	10000	3	1	0	3	0
48	672	0	10000	3	1	0	3	0
46	673	0	10000	3	1	0	3	0
45	674	0	10000	3	1	0	3	0
44	675	0	10000	3	1	0	3	0
43	676	0	10000	3	1	0	3	0
42	677	0	10000	3	1	0	3	0
41	678	0	10000	3	1	0	3	0
39	679	0	10000	3	1	0	3	0
38	680	0	10000	3	1	0	3	0
38	681	0	10000	3	1	0	3	0
40	682	0	10000	3	1	0	3	0
40	683	0	10000	3	1	0	3	0
38	684	0	10000	3	1	0	3	0
36	685	0	10000	3	1	0	3	0
36	686	0	10000	3	1	0	3	0
34	687	0	10000	3	1	0	3	0
32	688	0	10000	3	1	0	3	0
32	689	0	10000	3	1	0	3	0
31	690	0	10000	3	1	0	3	0
31	691	0	10000	3	1	0	3	0
29	692	0	10000	3	1	0	3	0
28	693	0	10000	3	1	0	3	0
27	694	0	10000	3	1	0	3	0
27	695	0	10000	3	1	0	3	0
27	696	0	10000	3	1	0	3	0
27	697	0	10000	3	1	0	3	0
31	698	0	10000	3	1	0	3	0
31	699	0	10000	3	1	0	3	0
31	700	0	10000	3	1	0	3	0
30	701	0	10000	3	1	0	3	0
32	702	0	10000	3	1	0	3	0
32	703	0	10000	3	1	0	3	0
31	704	0	10000	3	1	0	3	0
29	705	0	10000	3	1	0	3	0
29	706	0	10000	3	1	0	3	0
26	707	0	10000	3	1	0	3	0
26	708	0	10000	3	1	0	3	0
26	709	0	10000	3	1	0	3	0
27	710	0	10000	3	1	0	3	0
28	711	0	10000	3	1	0	3	0
28	712	0	10000	3	1	0	3	0
27	713	0	10000	3	1	0	3	0
27	714	0	10000	3	1	0	3	0
28	715	0	10000	3	1	0	3	0
27	716	0	10000	3	1	0	3	0
26	717	0	10000	3	1	0	3	0
26	718	0	10000	3	1	0	3	0
25	719	0	10000	3	1	0	3	0
26	720	0	10000	3	1	0	3	0
25	721	0	10000	3	1	0	3	0
28	722	0	10000	3	1	0	3	0
31	723	0	10000	3	1	0	3	0
31	724	0	10000	3	1	0	3	0
30	725	0	10000	3	1	0	3	0
30	726	0	10000	3	1	0	3	0
29	727	0	10000	3	1	0	3	0
27	728	0	10000	3	1	0	3	0
28	729	0	10000	3	1	0	3	0
28	730	0	10000	3	1	0	3	0
29	731	0	10000	3	1	0	3	0
26	732	0	10000	3	1	0	3	0
26	733	0	10000	3	1	0	3	0
26	734	0	10000	3	1	0	3	0
27	735	0	10000	3	1	0	3	0
26	736	0	10000	3	1	0	3	0
26	737	0	10000	3	1	0	3	0
25	738	0	10000	3	1	0	3	0
25	739	0	10000	3	1	0	3	0
25	740	0	10000	3	1	0	3	0
23	741	0	10000	3	1	0	3	0
25	742	0	10000	3	1	0	3	0
25	743	0	10000	3	1	0	3	0
25	744	0	10000	3	1	0	3	0
24	745	0	10000	3	1	0	3	0
23	746	0	10000	3	1	0	3	0
22	747	0	10000	3	1	0	3	0
22	748	0	10000	3	1	0	3	0
23	749	0	10000	3	1	0	3	0
22	750	0	10000	3	1	0	3	0
22	751	0	10000	3	1	0	3	0
20	752	0	10000	3	1	0	3	0
19	753	0	10000	3	1	0	3	0
19	754	0	10000	3	1	0	3	0
19	755	0	10000	3	1	0	3	0
19	756	0	10000	3	1	0	3	0
19	757	0	10000	3	1	0	3	0
19	758	0	10000	3	1	0	3	0
20	759	0	10000	3	1	0	3	0
20	760	0	10000	3	1	0	3	0
20	761	0	10000	3	1	0	3	0
22	762	0	10000	3	1	0	3	0
21	763	0	10000	3	1	0	3	0
20	764	0	10000	3	1	0	3	0
20	765	0	10000	3	1	0	3	0
19	766	0	10000	3	1	0	3	0
20	767	0	10000	3	1	0	3	0
19	768	0	10000	3	1	0	3	0
20	769	0	10000	3	1	0	3	0
21	770	0	10000	3	1	0	3	0
22	771	0	10000	3	1	0	3	0
20	772	0	10000	3	1	0	3	0
19	773	0	10000	3	1	0	3	0
21	774	0	10000	3	1	0	3	0
22	775	0	10000	3	1	0	3	0
21	776	0	10000	3	1	0	3	0
21	777	0	10000	3	1	0	3	0
21	778	0	10000	3	1	0	3	0
21	779	0	10000	3	1	0	3	0
23	780	0	10000	3	1	0	3	0
22	781	0	10000	3	1	0	3	0
23	782	0	10000	3	1	0	3	0
22	783	0	10000	3	1	0	3	0
22	784	0	10000	3	1	0	3	0
20	785	0	10000	3	1	0	3	0
20	786	0	10000	3	1	0	3	0
21	787	0	10000	3	1	0	3	0
23	788	0	10000	3	1	0	3	0
23	789	0	10000	3	1	0	3	0
22	790	0	10000	3	1	0	3	0
22	791	0	10000	3	1	0	3	0
19	792	0	10000	3	1	0	3	0
20	793	0	10000	3	1	0	3	0
20	794	0	10000	3	1	0	3	0
21	795	0	10000	3	1	0	3	0
20	796	0	10000	3	1	0	3	0
20	797	0	10000	3	1	0	3	0
20	798	0	10000	3	1	0	3	0
20	799	0	10000	3	1	0	3	0
20	800	0	10000	3	1	0	3	0
20	801	0	10000	3	1	0	3	0
23	802	0	10000	3	1	0	3	0
24	803	0	10000	3	1	0	3	0
23	804	0	10000	3	1	0	3	0
24	805	0	10000	3	1	0	3	0
23	806	0	10000	3	1	0	3	0
23	807	0	10000	3	1	0	3	0
22	808	0	10000	3	1	0	3	0
23	809	0	10000	3	1	0	3	0
22	810	0	10000	3	1	0	3	0
23	811	0	10000	3	1	0	3	0
20	812	0	10000	3	1	0	3	0
20	813	0	10000	3	1	0	3	0
19	814	0	10000	3	1	0	3	0
19	815	0	10000	3	1	0	3	0
20	816	0	10000	3	1	0	3	0
20	817	0	10000	3	1	0	3	0
20	818	0	10000	3	1	0	3	0
20	819	0	10000	3	1	0	3	0
20	820	0	10000	3	1	0	3	0
19	821	0	10000	3	1	0	3	0
21	822	0	10000	3	1	0	3	0
22	823	0	10000	3	1	0	3	0
23	824	0	10000	3	1	0	3	0
25	825	0	10000	3	1	0	3	0
23	826	0	10000	3	1	0	3	0
25	827	0	10000	3	1	0	3	0
27	828	0	10000	3	1	0	3	0
26	829	0	10000	3	1	0	3	0
26	830	0	10000	3	1	0	3	0
26	831	0	10000	3	1	0	3	0
22	832	0	10000	3	1	0	3	0
22	833	0	10000	3	1	0	3	0
24	834	0	10000	3	1	0	3	0
26	835	0	10000	3	1	0	3	0
27	836	0	10000	3	1	0	3	0
26	837	0	10000	3	1	0	3	0
25	838	0	10000	3	1	0	3	0
24	839	0	10000	3	1	0	3	0
23	840	0	10000	3	1	0	3	0
22	841	0	10000	3	1	0	3	0
24	842	0	10000	3	1	0	3	0
23	843	0	10000	3	1	0	3	0
23	844	0	10000	3	1	0	3	0
23	845	0	10000	3	1	0	3	0
24	846	0	10000	3	1	0	3	0
23	847	0	10000	3	1	0	3	0
21	848	0	10000	3	1	0	3	0
21	849	0	10000	3	1	0	3	0
22	850	0	10000	3	1	0	3	0
23	851	0	10000	3	1	0	3	0
21	852	0	10000	3	1	0	3	0
21	853	0	10000	3	1	0	3	0
23	854	0	10000	3	1	0	3	0
22	855	0	10000	3	1	0	3	0
22	856	0	10000	3	1	0	3	0
21	857	0	10000	3	1	0	3	0
22	858	0	10000	3	1	0	3	0
23	859	0	10000	3	1	0	3	0
22	860	0	10000	3	1	0	3	0
22	861	0	10000	3	1	0	3	0
24	862	0	10000	3	1	0	3	0
23	863	0	10000	3	1	0	3	0
22	864	0	10000	3	1	0	3	0
23	865	0	10000	3	1	0	3	0
21	866	0	10000	3	1	0	3	0
20	867	0	10000	3	1	0	3	0
20	868	0	10000	3	1	0	3	0
20	869	0	10000	3	1	0	3	0
19	870	0	10000	3	1	0	3	0
19	871	0	10000	3	1	0	3	0
16	872	0	10000	3	1	0	3	0
16	873	0	10000	3	1	0	3	0
17	874	0	10000	3	1	0	3	0
16	875	0	10000	3	1	0	3	0
18	876	0	10000	3	1	0	3	0
17	877	0	10000	3	1	0	3	0
17	878	0	10000	3	1	0	3	0
17	879	0	10000	3	1	0	3	0
17	880	0	10000	3	1	0	3	0
16	881	0	10000	3	1	0	3	0
17	882	0	10000	3	1	0	3	0
19	883	0	10000	3	1	0	3	0
19	884	0	10000	3	1	0	3	0
21	885	0	10000	3	1	0	3	0
21	886	0	10000	3	1	0	3	0
22	887	0	10000	3	1	0	3	0
22	888	0	10000	3	1	0	3	0
22	889	0	10000	3	1	0	3	0
24	890	0	10000	3	1	0	3	0
27	891	0	10000	3	1	0	3	0
26	892	0	10000	3	1	0	3	0
27	893	0	10000	3	1	0	3	0
26	894	0	10000	3	1	0	3	0
27	895	0	10000	3	1	0	3	0
25	896	0	10000	3	1	0	3	0
25	897	0	10000	3	1	0	3	0
24	898	0	10000	3	1	0	3	0
24	899	0	10000	3	1	0	3	0
25	900	0	10000	3	1	0	3	0
24	901	0	10000	3	1	0	3	0
25	902	0	10000	3	1	0	3	0
25	903	0	10000	3	1	0	3	0
24	904	0	10000	3	1	0	3	0
25	905	0	10000	3	1	0	3	0
24	906	0	10000	3	1	0	3	0
25	907	0	10000	3	1	0	3	0
25	908	0	10000	3	1	0	3	0
24	909	0	10000	3	1	0	3	0
25	910	0	10000	3	1	0	3	0
25	911	0	10000	3	1	0	3	0
23	912	0	10000	3	1	0	3	0
22	913	0	10000	3	1	0	3	0
21	914	0	10000	3	1	0	3	0
21	915	0	10000	3	1	0	3	0
21	916	0	10000	3	1	0	3	0
22	917	0	10000	3	1	0	3	0
21	918	0	10000	3	1	0	3	0
20	919	0	10000	3	1	0	3	0
20	920	0	10000	3	1	0	3	0
20	921	0	10000	3	1	0	3	0
22	922	0	10000	3	1	0	3	0
22	923	0	10000	3	1	0	3	0
23	924	0	10000	3	1	0	3	0
22	925	0	10000	3	1	0	3	0
21	926	0	10000	3	1	0	3	0
22	927	0	10000	3	1	0	3	0
21	928	0	10000	3	1	0	3	0
21	929	0	10000	3	1	0	3	0
22	930	0	10000	3	1	0	3	0
23	931	0	10000	3	1	0	3	0
21	932	0	10000	3	1	0	3	0
21	933	0	10000	3	1	0	3	0
22	934	0	10000	3	1	0	3	0
22	935	0	10000	3	1	0	3	0
22	936	0	10000	3	1	0	3	0
21	937	0	10000	3	1	0	3	0
21	938	0	10000	3	1	0	3	0
22	939	0	10000	3	1	0	3	0
22	940	0	10000	3	1	0	3	0
22	941	0	10000	3	1	0	3	0
23	942	0	10000	3	1	0	3	0
23	943	0	10000	3	1	0	3	0
24	944	0	10000	3	1	0	3	0
22	945	0	10000	3	1	0	3	0
21	946	0	10000	3	1	0	3	0
20	947	0	10000	3	1	0	3	0
20	948	0	10000	3	1	0	3	0
21	949	0	10000	3	1	0	3	0
21	950	0	10000	3	1	0	3	0
21	951	0	10000	3	1	0	3	0
19	952	0	10000	3	1	0	3	0
19	953	0	10000	3	1	0	3	0
19	954	0	10000	3	1	0	3	0
19	955	0	10000	3	1	0	3	0
20	956	0	10000	3	1	0	3	0
20	957	0	10000	3	1	0	3	0
23	958	0	10000	3	1	0	3	0
22	959	0	10000	3	1	0	3	0
23	960	0	10000	3	1	0	3	0
22	961	0	10000	3	1	0	3	0
23	962	0	10000	3	1	0	3	0
24	963	0	10000	3	1	0	3	0
25	964	0	10000	3	1	0	3	0
24	965	0	10000	3	1	0	3	0
24	966	0	10000	3	1	0	3	0
24	967	0	10000	3	1	0	3	0
26	968	0	10000	3	1	0	3	0
27	969	0	10000	3	1	0	3	0
27	970	0	10000	3	1	0	3	0
26	971	0	10000	3	1	0	3	0
23	972	0	10000	3	1	0	3	0
24	973	0	10000	3	1	0	3	0
25	974	0	10000	3	1	0	3	0
25	975	0	10000	3	1	0	3	0
25	976	0	10000	3	1	0	3	0
25	977	0	10000	3	1	0	3	0
25	978	0	10000	3	1	0	3	0
22	979	0	10000	3	1	0	3	0
22	980	0	10000	3	1	0	3	0
21	981	0	10000	3	1	0	3	0
22	982	0	10000	3	1	0	3	0
22	983	0	10000	3	1	0	3	0
21	984	0	10000	3	1	0	3	0
20	985	0	10000	3	1	0	3	0
20	986	0	10000	3	1	0	3	0
21	987	0	10000	3	1	0	3	0
21	988	0	10000	3	1	0	3	0
22	989	0	10000	3	1	0	3	0
21	990	0	10000	3	1	0	3	0
21	991	0	10000	3	1	0	3	0
19	992	0	10000	3	1	0	3	0
20	993	0	10000	3	1	0	3	0
19	994	0	10000	3	1	0	3	0
23	995	0	10000	3	1	0	3	0
25	996	0	10000	3	1	0	3	0
25	997	0	10000	3	1	0	3	0
26	998	0	10000	3	1	0	3	0
25	999	0	10000	3	1	0	3	0
25	1000	0	10000	3	1	0	3	0
24	1001	0	10000	3	1	0	3	0
18	2	7	10000	4	1	0	4	0
20	3	7	10000	4	1	0	4	0
20	4	7	10000	4	1	0	4	0
21	5	7	10000	4	1	0	4	0
22	6	7	10000	4	1	0	4	0
24	7	7	10000	4	1	0	4	0
23	8	7	10000	4	1	0	4	0
23	9	7	10000	4	1	0	4	0
24	10	7	10000	4	1	0	4	0
25	11	7	10000	4	1	0	4	0
27	12	7	10000	4	1	0	4	0
25	13	7	10000	4	1	0	4	0
24	14	7	10000	4	1	0	4	0
24	15	7	10000	4	1	0	4	0
24	16	7	10000	4	1	0	4	0
24	17	7	10000	4	1	0	4	0
24	18	7	10000	4	1	0	4	0
25	19	7	10000	4	1	0	4	0
23	20	7	10000	4	1	0	4	0
22	21	7	10000	4	1	0	4	0
22	22	7	10000	4	1	0	4	0
23	23	7	10000	4	1	0	4	0
22	24	7	10000	4	1	0	4	0
21	25	7	10000	4	1	0	4	0
21	26	7	10000	4	1	0	4	0
21	27	7	10000	4	1	0	4	0
21	28	7	10000	4	1	0	4	0
22	29	7	10000	4	1	0	4	0
25	30	7	10000	4	1	0	4	0
25	31	7	10000	4	1	0	4	0
24	32	7	10000	4	1	0	4	0
22	33	7	10000	4	1	0	4	0
23	34	7	10000	4	1	0	4	0
22	35	7	10000	4	1	0	4	0
22	36	7	10000	4	1	0	4	0
21	37	7	10000	4	1	0	4	0
21	38	7	10000	4	1	0	4	0
21	39	7	10000	4	1	0	4	0
21	40	7	10000	4	1	0	4	0
20	41	7	10000	4	1	0	4	0
19	42	7	10000	4	1	0	4	0
22	43	7	10000	4	1	0	4	0
23	44	7	10000	4	1	0	4	0
23	45	7	10000	4	1	0	4	0
22	46	7	10000	4	1	0	4	0
24	47	7	10000	4	1	0	4	0
23	48	7	10000	4	1	0	4	0
22	49	7	10000	4	1	0	4	0
22	50	7	10000	4	1	0	4	0
24	51	7	10000	4	1	0	4	0
25	52	7	10000	4	1	0	4	0
24	53	7	10000	4	1	0	4	0
23	54	7	10000	4	1	0	4	0
22	55	7	10000	4	1	0	4	0
23	56	7	10000	4	1	0	4	0
24	57	7	10000	4	1	0	4	0
24	58	7	10000	4	1	0	4	0
23	59	7	10000	4	1	0	4	0
22	60	7	10000	4	1	0	4	0
21	61	7	10000	4	1	0	4	0
20	62	7	10000	4	1	0	4	0
21	63	7	10000	4	1	0	4	0
20	64	7	10000	4	1	0	4	0
20	65	7	10000	4	1	0	4	0
19	66	7	10000	4	1	0	4	0
19	67	7	10000	4	1	0	4	0
19	68	7	10000	4	1	0	4	0
20	69	7	10000	4	1	0	4	0
22	70	7	10000	4	1	0	4	0
21	71	7	10000	4	1	0	4	0
21	72	7	10000	4	1	0	4	0
19	73	7	10000	4	1	0	4	0
20	74	7	10000	4	1	0	4	0
20	75	7	10000	4	1	0	4	0
20	76	7	10000	4	1	0	4	0
19	77	7	10000	4	1	0	4	0
20	78	7	10000	4	1	0	4	0
20	79	7	10000	4	1	0	4	0
19	80	7	10000	4	1	0	4	0
18	81	7	10000	4	1	0	4	0
17	82	7	10000	4	1	0	4	0
20	83	7	10000	4	1	0	4	0
20	84	7	10000	4	1	0	4	0
19	85	7	10000	4	1	0	4	0
18	86	7	10000	4	1	0	4	0
19	87	7	10000	4	1	0	4	0
18	88	7	10000	4	1	0	4	0
17	89	7	10000	4	1	0	4	0
17	90	7	10000	4	1	0	4	0
18	91	7	10000	4	1	0	4	0
17	92	7	10000	4	1	0	4	0
15	93	7	10000	4	1	0	4	0
15	94	7	10000	4	1	0	4	0
17	95	7	10000	4	1	0	4	0
20	96	7	10000	4	1	0	4	0
19	97	7	10000	4	1	0	4	0
19	98	7	10000	4	1	0	4	0
19	99	7	10000	4	1	0	4	0
18	100	7	10000	4	1	0	4	0
19	101	7	10000	4	1	0	4	0
20	102	7	10000	4	1	0	4	0
20	103	7	10000	4	1	0	4	0
20	104	7	10000	4	1	0	4	0
20	105	7	10000	4	1	0	4	0
20	106	7	10000	4	1	0	4	0
21	107	7	10000	4	1	0	4	0
22	108	7	10000	4	1	0	4	0
21	109	7	10000	4	1	0	4	0
20	110	7	10000	4	1	0	4	0
20	111	7	10000	4	1	0	4	0
20	112	7	10000	4	1	0	4	0
17	113	7	10000	4	1	0	4	0
17	114	7	10000	4	1	0	4	0
17	115	7	10000	4	1	0	4	0
17	116	7	10000	4	1	0	4	0
17	117	7	10000	4	1	0	4	0
16	118	7	10000	4	1	0	4	0
16	119	7	10000	4	1	0	4	0
15	120	7	10000	4	1	0	4	0
15	121	7	10000	4	1	0	4	0
15	122	7	10000	4	1	0	4	0
17	123	7	10000	4	1	0	4	0
18	124	7	10000	4	1	0	4	0
17	125	7	10000	4	1	0	4	0
17	126	7	10000	4	1	0	4	0
17	127	7	10000	4	1	0	4	0
17	128	7	10000	4	1	0	4	0
16	129	7	10000	4	1	0	4	0
17	130	7	10000	4	1	0	4	0
17	131	7	10000	4	1	0	4	0
17	132	7	10000	4	1	0	4	0
14	133	7	10000	4	1	0	4	0
14	134	7	10000	4	1	0	4	0
16	135	7	10000	4	1	0	4	0
16	136	7	10000	4	1	0	4	0
15	137	7	10000	4	1	0	4	0
15	138	7	10000	4	1	0	4	0
15	139	7	10000	4	1	0	4	0
15	140	7	10000	4	1	0	4	0
14	141	7	10000	4	1	0	4	0
14	142	7	10000	4	1	0	4	0
16	143	7	10000	4	1	0	4	0
14	144	7	10000	4	1	0	4	0
15	145	7	10000	4	1	0	4	0
15	146	7	10000	4	1	0	4	0
15	147	7	10000	4	1	0	4	0
15	148	7	10000	4	1	0	4	0
14	149	7	10000	4	1	0	4	0
15	150	7	10000	4	1	0	4	0
16	151	7	10000	4	1	0	4	0
16	152	7	10000	4	1	0	4	0
13	153	7	10000	4	1	0	4	0
13	154	7	10000	4	1	0	4	0
14	155	7	10000	4	1	0	4	0
14	156	7	10000	4	1	0	4	0
15	157	7	10000	4	1	0	4	0
16	158	7	10000	4	1	0	4	0
16	159	7	10000	4	1	0	4	0
15	160	7	10000	4	1	0	4	0
15	161	7	10000	4	1	0	4	0
16	162	7	10000	4	1	0	4	0
18	163	7	10000	4	1	0	4	0
17	164	7	10000	4	1	0	4	0
18	165	7	10000	4	1	0	4	0
18	166	7	10000	4	1	0	4	0
18	167	7	10000	4	1	0	4	0
20	168	7	10000	4	1	0	4	0
21	169	7	10000	4	1	0	4	0
23	170	7	10000	4	1	0	4	0
27	171	7	10000	4	1	0	4	0
28	172	7	10000	4	1	0	4	0
26	173	7	10000	4	1	0	4	0
28	174	7	10000	4	1	0	4	0
30	175	7	10000	4	1	0	4	0
30	176	7	10000	4	1	0	4	0
30	177	7	10000	4	1	0	4	0
28	178	7	10000	4	1	0	4	0
28	179	7	10000	4	1	0	4	0
27	180	7	10000	4	1	0	4	0
25	181	7	10000	4	1	0	4	0
25	182	7	10000	4	1	0	4	0
27	183	7	10000	4	1	0	4	0
27	184	7	10000	4	1	0	4	0
27	185	7	10000	4	1	0	4	0
26	186	7	10000	4	1	0	4	0
25	187	7	10000	4	1	0	4	0
24	188	7	10000	4	1	0	4	0
24	189	7	10000	4	1	0	4	0
26	190	7	10000	4	1	0	4	0
26	191	7	10000	4	1	0	4	0
26	192	7	10000	4	1	0	4	0
23	193	7	10000	4	1	0	4	0
24	194	7	10000	4	1	0	4	0
24	195	7	10000	4	1	0	4	0
23	196	7	10000	4	1	0	4	0
24	197	7	10000	4	1	0	4	0
24	198	7	10000	4	1	0	4	0
25	199	7	10000	4	1	0	4	0
25	200	7	10000	4	1	0	4	0
23	201	7	10000	4	1	0	4	0
22	202	7	10000	4	1	0	4	0
24	203	7	10000	4	1	0	4	0
25	204	7	10000	4	1	0	4	0
25	205	7	10000	4	1	0	4	0
23	206	7	10000	4	1	0	4	0
23	207	7	10000	4	1	0	4	0
23	208	7	10000	4	1	0	4	0
22	209	7	10000	4	1	0	4	0
22	210	7	10000	4	1	0	4	0
22	211	7	10000	4	1	0	4	0
21	212	7	10000	4	1	0	4	0
19	213	7	10000	4	1	0	4	0
20	214	7	10000	4	1	0	4	0
19	215	7	10000	4	1	0	4	0
20	216	7	10000	4	1	0	4	0
22	217	7	10000	4	1	0	4	0
22	218	7	10000	4	1	0	4	0
26	219	7	10000	4	1	0	4	0
28	220	7	10000	4	1	0	4	0
28	221	7	10000	4	1	0	4	0
28	222	7	10000	4	1	0	4	0
29	223	7	10000	4	1	0	4	0
29	224	7	10000	4	1	0	4	0
29	225	7	10000	4	1	0	4	0
28	226	7	10000	4	1	0	4	0
27	227	7	10000	4	1	0	4	0
27	228	7	10000	4	1	0	4	0
27	229	7	10000	4	1	0	4	0
28	230	7	10000	4	1	0	4	0
28	231	7	10000	4	1	0	4	0
27	232	7	10000	4	1	0	4	0
26	233	7	10000	4	1	0	4	0
26	234	7	10000	4	1	0	4	0
25	235	7	10000	4	1	0	4	0
26	236	7	10000	4	1	0	4	0
27	237	7	10000	4	1	0	4	0
28	238	7	10000	4	1	0	4	0
28	239	7	10000	4	1	0	4	0
27	240	7	10000	4	1	0	4	0
26	241	7	10000	4	1	0	4	0
26	242	7	10000	4	1	0	4	0
28	243	7	10000	4	1	0	4	0
28	253	7	10000	4	1	0	4	0
29	254	7	10000	4	1	0	4	0
28	255	7	10000	4	1	0	4	0
29	256	7	10000	4	1	0	4	0
29	257	7	10000	4	1	0	4	0
29	258	7	10000	4	1	0	4	0
31	259	7	10000	4	1	0	4	0
30	260	7	10000	4	1	0	4	0
30	261	7	10000	4	1	0	4	0
27	262	7	10000	4	1	0	4	0
28	263	7	10000	4	1	0	4	0
27	264	7	10000	4	1	0	4	0
27	262	7	10000	4	1	0	4	0
27	263	7	10000	4	1	0	4	0
28	264	7	10000	4	1	0	4	0
28	265	7	10000	4	1	0	4	0
28	266	7	10000	4	1	0	4	0
27	267	7	10000	4	1	0	4	0
26	268	7	10000	4	1	0	4	0
27	269	7	10000	4	1	0	4	0
26	273	7	10000	4	1	0	4	0
26	274	7	10000	4	1	0	4	0
25	275	7	10000	4	1	0	4	0
26	276	7	10000	4	1	0	4	0
26	277	7	10000	4	1	0	4	0
26	278	7	10000	4	1	0	4	0
28	279	7	10000	4	1	0	4	0
28	280	7	10000	4	1	0	4	0
27	281	7	10000	4	1	0	4	0
25	282	7	10000	4	1	0	4	0
24	278	7	10000	4	1	0	4	0
23	279	7	10000	4	1	0	4	0
24	280	7	10000	4	1	0	4	0
25	281	7	10000	4	1	0	4	0
26	282	7	10000	4	1	0	4	0
27	283	7	10000	4	1	0	4	0
27	283	7	10000	4	1	0	4	0
25	284	7	10000	4	1	0	4	0
27	285	7	10000	4	1	0	4	0
27	286	7	10000	4	1	0	4	0
26	289	7	10000	4	1	0	4	0
25	290	7	10000	4	1	0	4	0
24	291	7	10000	4	1	0	4	0
24	292	7	10000	4	1	0	4	0
24	293	7	10000	4	1	0	4	0
24	294	7	10000	4	1	0	4	0
25	294	7	10000	4	1	0	4	0
25	295	7	10000	4	1	0	4	0
24	296	7	10000	4	1	0	4	0
22	297	7	10000	4	1	0	4	0
22	298	7	10000	4	1	0	4	0
22	299	7	10000	4	1	0	4	0
21	300	7	10000	4	1	0	4	0
20	301	7	10000	4	1	0	4	0
20	302	7	10000	4	1	0	4	0
21	303	7	10000	4	1	0	4	0
19	304	7	10000	4	1	0	4	0
18	305	7	10000	4	1	0	4	0
18	305	7	10000	4	1	0	4	0
19	306	7	10000	4	1	0	4	0
19	307	7	10000	4	1	0	4	0
19	308	7	10000	4	1	0	4	0
18	310	7	10000	4	1	0	4	0
19	311	7	10000	4	1	0	4	0
20	312	7	10000	4	1	0	4	0
20	313	7	10000	4	1	0	4	0
20	314	7	10000	4	1	0	4	0
20	315	7	10000	4	1	0	4	0
21	316	7	10000	4	1	0	4	0
20	317	7	10000	4	1	0	4	0
20	318	7	10000	4	1	0	4	0
20	319	7	10000	4	1	0	4	0
22	320	7	10000	4	1	0	4	0
21	321	7	10000	4	1	0	4	0
20	321	7	10000	4	1	0	4	0
20	322	7	10000	4	1	0	4	0
19	323	7	10000	4	1	0	4	0
19	324	7	10000	4	1	0	4	0
18	327	7	10000	4	1	0	4	0
20	328	7	10000	4	1	0	4	0
20	329	7	10000	4	1	0	4	0
20	330	7	10000	4	1	0	4	0
20	331	7	10000	4	1	0	4	0
20	332	7	10000	4	1	0	4	0
22	333	7	10000	4	1	0	4	0
22	334	7	10000	4	1	0	4	0
24	332	7	10000	4	1	0	4	0
25	333	7	10000	4	1	0	4	0
26	334	7	10000	4	1	0	4	0
25	335	7	10000	4	1	0	4	0
24	339	7	10000	4	1	0	4	0
25	340	7	10000	4	1	0	4	0
28	341	7	10000	4	1	0	4	0
28	342	7	10000	4	1	0	4	0
27	343	7	10000	4	1	0	4	0
26	344	7	10000	4	1	0	4	0
26	343	7	10000	4	1	0	4	0
24	344	7	10000	4	1	0	4	0
23	345	7	10000	4	1	0	4	0
24	346	7	10000	4	1	0	4	0
24	347	7	10000	4	1	0	4	0
24	348	7	10000	4	1	0	4	0
24	350	7	10000	4	1	0	4	0
24	351	7	10000	4	1	0	4	0
22	352	7	10000	4	1	0	4	0
22	353	7	10000	4	1	0	4	0
23	354	7	10000	4	1	0	4	0
23	355	7	10000	4	1	0	4	0
23	354	7	10000	4	1	0	4	0
21	355	7	10000	4	1	0	4	0
20	356	7	10000	4	1	0	4	0
20	357	7	10000	4	1	0	4	0
20	360	7	10000	4	1	0	4	0
19	361	7	10000	4	1	0	4	0
20	362	7	10000	4	1	0	4	0
20	363	7	10000	4	1	0	4	0
19	364	7	10000	4	1	0	4	0
18	365	7	10000	4	1	0	4	0
18	366	7	10000	4	1	0	4	0
19	367	7	10000	4	1	0	4	0
20	368	7	10000	4	1	0	4	0
20	369	7	10000	4	1	0	4	0
18	370	7	10000	4	1	0	4	0
18	371	7	10000	4	1	0	4	0
17	370	7	10000	4	1	0	4	0
16	371	7	10000	4	1	0	4	0
18	372	7	10000	4	1	0	4	0
19	373	7	10000	4	1	0	4	0
19	371	7	10000	4	1	0	4	0
17	372	7	10000	4	1	0	4	0
17	374	7	10000	4	1	0	4	0
17	375	7	10000	4	1	0	4	0
16	376	7	10000	4	1	0	4	0
16	377	7	10000	4	1	0	4	0
17	378	7	10000	4	1	0	4	0
19	379	7	10000	4	1	0	4	0
18	380	7	10000	4	1	0	4	0
18	381	7	10000	4	1	0	4	0
17	382	7	10000	4	1	0	4	0
20	383	7	10000	4	1	0	4	0
19	384	7	10000	4	1	0	4	0
19	385	7	10000	4	1	0	4	0
19	386	7	10000	4	1	0	4	0
20	387	7	10000	4	1	0	4	0
20	388	7	10000	4	1	0	4	0
23	389	7	10000	4	1	0	4	0
26	390	7	10000	4	1	0	4	0
28	391	7	10000	4	1	0	4	0
31	392	7	10000	4	1	0	4	0
28	393	7	10000	4	1	0	4	0
29	394	7	10000	4	1	0	4	0
30	395	7	10000	4	1	0	4	0
32	396	7	10000	4	1	0	4	0
31	397	7	10000	4	1	0	4	0
31	398	7	10000	4	1	0	4	0
31	399	7	10000	4	1	0	4	0
30	400	7	10000	4	1	0	4	0
29	401	7	10000	4	1	0	4	0
27	402	7	10000	4	1	0	4	0
29	403	7	10000	4	1	0	4	0
29	404	7	10000	4	1	0	4	0
28	405	7	10000	4	1	0	4	0
27	406	7	10000	4	1	0	4	0
28	407	7	10000	4	1	0	4	0
28	408	7	10000	4	1	0	4	0
26	409	7	10000	4	1	0	4	0
25	410	7	10000	4	1	0	4	0
26	411	7	10000	4	1	0	4	0
26	412	7	10000	4	1	0	4	0
24	413	7	10000	4	1	0	4	0
23	414	7	10000	4	1	0	4	0
23	415	7	10000	4	1	0	4	0
23	416	7	10000	4	1	0	4	0
24	417	7	10000	4	1	0	4	0
23	418	7	10000	4	1	0	4	0
24	419	7	10000	4	1	0	4	0
24	420	7	10000	4	1	0	4	0
25	421	7	10000	4	1	0	4	0
26	422	7	10000	4	1	0	4	0
28	423	7	10000	4	1	0	4	0
28	424	7	10000	4	1	0	4	0
27	425	7	10000	4	1	0	4	0
26	426	7	10000	4	1	0	4	0
26	427	7	10000	4	1	0	4	0
27	428	7	10000	4	1	0	4	0
28	429	7	10000	4	1	0	4	0
27	430	7	10000	4	1	0	4	0
27	431	7	10000	4	1	0	4	0
27	432	7	10000	4	1	0	4	0
26	433	7	10000	4	1	0	4	0
27	434	7	10000	4	1	0	4	0
27	435	7	10000	4	1	0	4	0
28	436	7	10000	4	1	0	4	0
27	437	7	10000	4	1	0	4	0
30	438	7	10000	4	1	0	4	0
30	439	7	10000	4	1	0	4	0
29	440	7	10000	4	1	0	4	0
29	441	7	10000	4	1	0	4	0
27	442	7	10000	4	1	0	4	0
28	443	7	10000	4	1	0	4	0
27	444	7	10000	4	1	0	4	0
27	445	7	10000	4	1	0	4	0
26	446	7	10000	4	1	0	4	0
26	447	7	10000	4	1	0	4	0
25	448	7	10000	4	1	0	4	0
25	449	7	10000	4	1	0	4	0
26	450	7	10000	4	1	0	4	0
28	451	7	10000	4	1	0	4	0
28	452	7	10000	4	1	0	4	0
25	453	7	10000	4	1	0	4	0
25	454	7	10000	4	1	0	4	0
25	455	7	10000	4	1	0	4	0
25	456	7	10000	4	1	0	4	0
24	457	7	10000	4	1	0	4	0
25	458	7	10000	4	1	0	4	0
25	459	7	10000	4	1	0	4	0
23	460	7	10000	4	1	0	4	0
22	461	7	10000	4	1	0	4	0
21	462	7	10000	4	1	0	4	0
23	463	7	10000	4	1	0	4	0
21	464	7	10000	4	1	0	4	0
20	465	7	10000	4	1	0	4	0
20	466	7	10000	4	1	0	4	0
20	467	7	10000	4	1	0	4	0
20	468	7	10000	4	1	0	4	0
19	469	7	10000	4	1	0	4	0
19	470	7	10000	4	1	0	4	0
20	471	7	10000	4	1	0	4	0
20	472	7	10000	4	1	0	4	0
18	473	7	10000	4	1	0	4	0
17	474	7	10000	4	1	0	4	0
17	475	7	10000	4	1	0	4	0
18	476	7	10000	4	1	0	4	0
17	477	7	10000	4	1	0	4	0
19	478	7	10000	4	1	0	4	0
18	479	7	10000	4	1	0	4	0
17	480	7	10000	4	1	0	4	0
17	481	7	10000	4	1	0	4	0
17	482	7	10000	4	1	0	4	0
20	483	7	10000	4	1	0	4	0
21	484	7	10000	4	1	0	4	0
25	485	7	10000	4	1	0	4	0
24	486	7	10000	4	1	0	4	0
27	487	7	10000	4	1	0	4	0
32	488	7	10000	4	1	0	4	0
31	489	7	10000	4	1	0	4	0
32	490	7	10000	4	1	0	4	0
44	491	7	10000	4	1	0	4	0
55	492	7	10000	4	1	0	4	0
55	493	7	10000	4	1	0	4	0
61	494	7	10000	4	1	0	4	0
68	495	7	10000	4	1	0	4	0
77	496	7	10000	4	1	0	4	0
78	497	7	10000	4	1	0	4	0
80	498	7	10000	4	1	0	4	0
79	499	7	10000	4	1	0	4	0
78	500	7	10000	4	1	0	4	0
76	501	7	10000	4	1	0	4	0
75	502	7	10000	4	1	0	4	1
75	503	7	10000	4	1	0	4	1
72	504	7	10000	4	1	0	4	1
78	505	7	10000	4	1	0	4	1
108	506	7	10000	4	1	0	4	1
129	507	7	10000	4	1	0	4	1
130	508	7	10000	4	1	0	4	1
146	509	7	10000	4	1	0	4	1
161	510	7	10000	4	1	0	4	1
165	511	7	10000	4	1	0	4	1
165	512	7	10000	4	1	0	4	1
163	513	7	10000	4	1	0	4	1
160	514	7	10000	4	1	0	4	1
153	515	7	10000	4	1	0	4	1
152	516	7	10000	4	1	0	4	1
164	517	7	10000	4	1	0	4	1
167	518	7	10000	4	1	0	4	1
206	519	7	10000	4	1	0	4	1
243	520	7	10000	4	1	0	4	1
250	521	7	10000	4	1	0	4	1
248	522	7	10000	4	1	0	4	1
257	523	7	10000	4	1	0	4	1
259	524	7	10000	4	1	0	4	1
255	525	7	10000	4	1	0	4	1
252	526	7	10000	4	1	0	4	1
248	527	7	10000	4	1	0	4	1
239	528	7	10000	4	1	0	4	1
228	529	7	10000	4	1	0	4	1
219	530	7	10000	4	1	0	4	1
212	531	7	10000	4	1	0	4	1
206	532	7	10000	4	1	0	4	1
198	533	7	10000	4	1	0	4	1
193	534	7	10000	4	1	0	4	1
188	535	7	10000	4	1	0	4	1
184	536	7	10000	4	1	0	4	1
179	537	7	10000	4	1	0	4	1
185	538	7	10000	4	1	0	4	1
191	539	7	10000	4	1	0	4	1
193	540	7	10000	4	1	0	4	1
188	541	7	10000	4	1	0	4	1
183	542	7	10000	4	1	0	4	1
177	543	7	10000	4	1	0	4	1
170	544	7	10000	4	1	0	4	1
163	545	7	10000	4	1	0	4	1
159	546	7	10000	4	1	0	4	1
156	547	7	10000	4	1	0	4	1
151	548	7	10000	4	1	0	4	1
144	549	7	10000	4	1	0	4	1
143	550	7	10000	4	1	0	4	1
143	551	7	10000	4	1	0	4	1
141	552	7	10000	4	1	0	4	0
135	553	7	10000	4	1	0	4	0
132	554	7	10000	4	1	0	4	0
127	555	7	10000	4	1	0	4	0
125	556	7	10000	4	1	0	4	0
126	557	7	10000	4	1	0	4	0
123	558	7	10000	4	1	0	4	0
119	559	7	10000	4	1	0	4	0
115	560	7	10000	4	1	0	4	0
111	561	7	10000	4	1	0	4	0
110	562	7	10000	4	1	0	4	0
108	563	7	10000	4	1	0	4	0
107	564	7	10000	4	1	0	4	0
110	565	7	10000	4	1	0	4	0
109	566	7	10000	4	1	0	4	0
105	567	7	10000	4	1	0	4	0
107	568	7	10000	4	1	0	4	0
106	569	7	10000	4	1	0	4	0
105	570	7	10000	4	1	0	4	0
102	571	7	10000	4	1	0	4	0
102	572	7	10000	4	1	0	4	0
100	573	7	10000	4	1	0	4	0
104	574	7	10000	4	1	0	4	0
105	575	7	10000	4	1	0	4	0
104	576	7	10000	4	1	0	4	0
112	577	7	10000	4	1	0	4	0
120	578	7	10000	4	1	0	4	0
124	579	7	10000	4	1	0	4	0
127	580	7	10000	4	1	0	4	0
127	581	7	10000	4	1	0	4	0
125	582	7	10000	4	1	0	4	0
123	583	7	10000	4	1	0	4	0
118	584	7	10000	4	1	0	4	0
117	585	7	10000	4	1	0	4	0
115	586	7	10000	4	1	0	4	0
131	587	7	10000	4	1	0	4	0
139	588	7	10000	4	1	0	4	0
139	589	7	10000	4	1	0	4	0
146	590	7	10000	4	1	0	4	0
155	591	7	10000	4	1	0	4	0
155	592	7	10000	4	1	0	4	0
159	593	7	10000	4	1	0	4	0
172	594	7	10000	4	1	0	4	0
182	595	7	10000	4	1	0	4	0
179	596	7	10000	4	1	0	4	0
184	597	7	10000	4	1	0	4	0
187	598	7	10000	4	1	0	4	0
198	599	7	10000	4	1	0	4	0
205	600	7	10000	4	1	0	4	0
199	601	7	10000	4	1	0	4	0
199	602	7	10000	4	1	0	4	0
200	603	7	10000	4	1	0	4	0
194	604	7	10000	4	1	0	4	0
196	605	7	10000	4	1	0	4	0
198	606	7	10000	4	1	0	4	0
199	607	7	10000	4	1	0	4	0
194	608	7	10000	4	1	0	4	0
186	609	7	10000	4	1	0	4	0
181	610	7	10000	4	1	0	4	0
176	611	7	10000	4	1	0	4	0
170	612	7	10000	4	1	0	4	0
162	613	7	10000	4	1	0	4	0
160	614	7	10000	4	1	0	4	0
158	615	7	10000	4	1	0	4	0
163	616	7	10000	4	1	0	4	0
164	617	7	10000	4	1	0	4	0
176	618	7	10000	4	1	0	4	0
191	619	7	10000	4	1	0	4	0
190	620	7	10000	4	1	0	4	0
184	621	7	10000	4	1	0	4	0
180	622	7	10000	4	1	0	4	0
179	623	7	10000	4	1	0	4	0
173	624	7	10000	4	1	0	4	0
167	625	7	10000	4	1	0	4	0
160	626	7	10000	4	1	0	4	0
156	627	7	10000	4	1	0	4	0
154	628	7	10000	4	1	0	4	0
149	629	7	10000	4	1	0	4	0
144	630	7	10000	4	1	0	4	0
138	631	7	10000	4	1	0	4	0
133	632	7	10000	4	1	0	4	0
126	633	7	10000	4	1	0	4	0
120	634	7	10000	4	1	0	4	0
115	635	7	10000	4	1	0	4	0
114	636	7	10000	4	1	0	4	0
111	637	7	10000	4	1	0	4	0
108	638	7	10000	4	1	0	4	0
104	639	7	10000	4	1	0	4	0
100	640	7	10000	4	1	0	4	0
97	641	7	10000	4	1	0	4	0
95	642	7	10000	4	1	0	4	0
94	643	7	10000	4	1	0	4	0
92	644	7	10000	4	1	0	4	0
88	645	7	10000	4	1	0	4	0
85	646	7	10000	4	1	0	4	0
83	647	7	10000	4	1	0	4	0
83	648	7	10000	4	1	0	4	0
84	649	7	10000	4	1	0	4	0
84	650	7	10000	4	1	0	4	0
82	651	7	10000	4	1	0	4	0
81	652	7	10000	4	1	0	4	0
79	653	7	10000	4	1	0	4	0
78	654	7	10000	4	1	0	4	0
80	655	7	10000	4	1	0	4	0
80	656	7	10000	4	1	0	4	0
82	657	7	10000	4	1	0	4	0
84	658	7	10000	4	1	0	4	0
83	659	7	10000	4	1	0	4	0
79	660	7	10000	4	1	0	4	0
77	661	7	10000	4	1	0	4	0
74	662	7	10000	4	1	0	4	0
72	663	7	10000	4	1	0	4	0
71	664	7	10000	4	1	0	4	0
69	665	7	10000	4	1	0	4	0
66	666	7	10000	4	1	0	4	0
64	667	7	10000	4	1	0	4	0
62	668	7	10000	4	1	0	4	0
59	669	7	10000	4	1	0	4	0
58	670	7	10000	4	1	0	4	0
57	671	7	10000	4	1	0	4	0
57	672	7	10000	4	1	0	4	0
55	673	7	10000	4	1	0	4	0
54	674	7	10000	4	1	0	4	0
53	675	7	10000	4	1	0	4	0
51	676	7	10000	4	1	0	4	0
49	677	7	10000	4	1	0	4	0
48	678	7	10000	4	1	0	4	0
48	679	7	10000	4	1	0	4	0
46	680	7	10000	4	1	0	4	0
44	681	7	10000	4	1	0	4	0
42	682	7	10000	4	1	0	4	0
43	683	7	10000	4	1	0	4	0
43	684	7	10000	4	1	0	4	0
41	685	7	10000	4	1	0	4	0
40	686	7	10000	4	1	0	4	0
39	687	7	10000	4	1	0	4	0
37	688	7	10000	4	1	0	4	0
36	689	7	10000	4	1	0	4	0
36	690	7	10000	4	1	0	4	0
38	691	7	10000	4	1	0	4	0
39	692	7	10000	4	1	0	4	0
38	693	7	10000	4	1	0	4	0
37	694	7	10000	4	1	0	4	0
35	695	7	10000	4	1	0	4	0
34	696	7	10000	4	1	0	4	0
33	697	7	10000	4	1	0	4	0
32	698	7	10000	4	1	0	4	0
32	699	7	10000	4	1	0	4	0
30	700	7	10000	4	1	0	4	0
30	701	7	10000	4	1	0	4	0
30	702	7	10000	4	1	0	4	0
32	703	7	10000	4	1	0	4	0
32	704	7	10000	4	1	0	4	0
32	705	7	10000	4	1	0	4	0
32	706	7	10000	4	1	0	4	0
33	707	7	10000	4	1	0	4	0
32	708	7	10000	4	1	0	4	0
31	709	7	10000	4	1	0	4	0
31	710	7	10000	4	1	0	4	0
31	711	7	10000	4	1	0	4	0
32	712	7	10000	4	1	0	4	0
32	713	7	10000	4	1	0	4	0
33	714	7	10000	4	1	0	4	0
32	715	7	10000	4	1	0	4	0
32	716	7	10000	4	1	0	4	0
30	717	7	10000	4	1	0	4	0
31	718	7	10000	4	1	0	4	0
29	719	7	10000	4	1	0	4	0
28	720	7	10000	4	1	0	4	0
28	721	7	10000	4	1	0	4	0
27	722	7	10000	4	1	0	4	0
31	723	7	10000	4	1	0	4	0
32	724	7	10000	4	1	0	4	0
32	725	7	10000	4	1	0	4	0
32	726	7	10000	4	1	0	4	0
33	727	7	10000	4	1	0	4	0
32	728	7	10000	4	1	0	4	0
30	729	7	10000	4	1	0	4	0
30	730	7	10000	4	1	0	4	0
30	731	7	10000	4	1	0	4	0
30	732	7	10000	4	1	0	4	0
29	733	7	10000	4	1	0	4	0
29	734	7	10000	4	1	0	4	0
30	735	7	10000	4	1	0	4	0
29	736	7	10000	4	1	0	4	0
28	737	7	10000	4	1	0	4	0
28	738	7	10000	4	1	0	4	0
27	739	7	10000	4	1	0	4	0
26	740	7	10000	4	1	0	4	0
25	741	7	10000	4	1	0	4	0
23	742	7	10000	4	1	0	4	0
25	743	7	10000	4	1	0	4	0
25	744	7	10000	4	1	0	4	0
25	745	7	10000	4	1	0	4	0
25	746	7	10000	4	1	0	4	0
26	747	7	10000	4	1	0	4	0
26	748	7	10000	4	1	0	4	0
25	749	7	10000	4	1	0	4	0
25	750	7	10000	4	1	0	4	0
27	751	7	10000	4	1	0	4	0
28	752	7	10000	4	1	0	4	0
27	753	7	10000	4	1	0	4	0
27	754	7	10000	4	1	0	4	0
28	755	7	10000	4	1	0	4	0
27	756	7	10000	4	1	0	4	0
26	757	7	10000	4	1	0	4	0
25	758	7	10000	4	1	0	4	0
24	759	7	10000	4	1	0	4	0
24	760	7	10000	4	1	0	4	0
23	761	7	10000	4	1	0	4	0
23	762	7	10000	4	1	0	4	0
25	763	7	10000	4	1	0	4	0
26	764	7	10000	4	1	0	4	0
25	765	7	10000	4	1	0	4	0
23	766	7	10000	4	1	0	4	0
23	767	7	10000	4	1	0	4	0
22	768	7	10000	4	1	0	4	0
22	769	7	10000	4	1	0	4	0
23	770	7	10000	4	1	0	4	0
23	771	7	10000	4	1	0	4	0
24	772	7	10000	4	1	0	4	0
21	773	7	10000	4	1	0	4	0
21	774	7	10000	4	1	0	4	0
23	775	7	10000	4	1	0	4	0
23	776	7	10000	4	1	0	4	0
23	777	7	10000	4	1	0	4	0
22	778	7	10000	4	1	0	4	0
22	779	7	10000	4	1	0	4	0
21	780	7	10000	4	1	0	4	0
21	781	7	10000	4	1	0	4	0
20	782	7	10000	4	1	0	4	0
23	783	7	10000	4	1	0	4	0
23	784	7	10000	4	1	0	4	0
23	785	7	10000	4	1	0	4	0
25	786	7	10000	4	1	0	4	0
26	787	7	10000	4	1	0	4	0
24	788	7	10000	4	1	0	4	0
24	789	7	10000	4	1	0	4	0
23	790	7	10000	4	1	0	4	0
23	791	7	10000	4	1	0	4	0
24	792	7	10000	4	1	0	4	0
23	793	7	10000	4	1	0	4	0
23	794	7	10000	4	1	0	4	0
22	795	7	10000	4	1	0	4	0
22	796	7	10000	4	1	0	4	0
21	797	7	10000	4	1	0	4	0
21	798	7	10000	4	1	0	4	0
22	799	7	10000	4	1	0	4	0
23	800	7	10000	4	1	0	4	0
23	801	7	10000	4	1	0	4	0
21	802	7	10000	4	1	0	4	0
23	803	7	10000	4	1	0	4	0
21	804	7	10000	4	1	0	4	0
21	805	7	10000	4	1	0	4	0
21	806	7	10000	4	1	0	4	0
20	807	7	10000	4	1	0	4	0
20	808	7	10000	4	1	0	4	0
20	809	7	10000	4	1	0	4	0
20	810	7	10000	4	1	0	4	0
20	811	7	10000	4	1	0	4	0
21	812	7	10000	4	1	0	4	0
20	813	7	10000	4	1	0	4	0
23	814	7	10000	4	1	0	4	0
23	815	7	10000	4	1	0	4	0
24	816	7	10000	4	1	0	4	0
24	817	7	10000	4	1	0	4	0
23	818	7	10000	4	1	0	4	0
23	819	7	10000	4	1	0	4	0
23	820	7	10000	4	1	0	4	0
23	821	7	10000	4	1	0	4	0
22	822	7	10000	4	1	0	4	0
24	823	7	10000	4	1	0	4	0
23	824	7	10000	4	1	0	4	0
23	825	7	10000	4	1	0	4	0
22	826	7	10000	4	1	0	4	0
21	827	7	10000	4	1	0	4	0
21	828	7	10000	4	1	0	4	0
21	829	7	10000	4	1	0	4	0
20	830	7	10000	4	1	0	4	0
20	831	7	10000	4	1	0	4	0
21	832	7	10000	4	1	0	4	0
20	833	7	10000	4	1	0	4	0
20	834	7	10000	4	1	0	4	0
21	835	7	10000	4	1	0	4	0
21	836	7	10000	4	1	0	4	0
23	837	7	10000	4	1	0	4	0
22	838	7	10000	4	1	0	4	0
22	839	7	10000	4	1	0	4	0
22	840	7	10000	4	1	0	4	0
20	841	7	10000	4	1	0	4	0
22	842	7	10000	4	1	0	4	0
25	843	7	10000	4	1	0	4	0
25	844	7	10000	4	1	0	4	0
24	845	7	10000	4	1	0	4	0
23	846	7	10000	4	1	0	4	0
23	847	7	10000	4	1	0	4	0
23	848	7	10000	4	1	0	4	0
25	849	7	10000	4	1	0	4	0
25	850	7	10000	4	1	0	4	0
25	851	7	10000	4	1	0	4	0
26	852	7	10000	4	1	0	4	0
25	853	7	10000	4	1	0	4	0
26	854	7	10000	4	1	0	4	0
26	855	7	10000	4	1	0	4	0
25	856	7	10000	4	1	0	4	0
26	857	7	10000	4	1	0	4	0
24	858	7	10000	4	1	0	4	0
24	859	7	10000	4	1	0	4	0
23	860	7	10000	4	1	0	4	0
21	861	7	10000	4	1	0	4	0
20	862	7	10000	4	1	0	4	0
23	863	7	10000	4	1	0	4	0
23	864	7	10000	4	1	0	4	0
23	865	7	10000	4	1	0	4	0
23	866	7	10000	4	1	0	4	0
22	867	7	10000	4	1	0	4	0
22	868	7	10000	4	1	0	4	0
21	869	7	10000	4	1	0	4	0
21	870	7	10000	4	1	0	4	0
21	871	7	10000	4	1	0	4	0
22	872	7	10000	4	1	0	4	0
20	873	7	10000	4	1	0	4	0
20	874	7	10000	4	1	0	4	0
21	875	7	10000	4	1	0	4	0
20	876	7	10000	4	1	0	4	0
20	877	7	10000	4	1	0	4	0
20	878	7	10000	4	1	0	4	0
20	879	7	10000	4	1	0	4	0
20	880	7	10000	4	1	0	4	0
19	881	7	10000	4	1	0	4	0
18	882	7	10000	4	1	0	4	0
20	883	7	10000	4	1	0	4	0
20	884	7	10000	4	1	0	4	0
20	885	7	10000	4	1	0	4	0
20	886	7	10000	4	1	0	4	0
19	887	7	10000	4	1	0	4	0
19	888	7	10000	4	1	0	4	0
18	889	7	10000	4	1	0	4	0
18	890	7	10000	4	1	0	4	0
21	891	7	10000	4	1	0	4	0
20	892	7	10000	4	1	0	4	0
19	893	7	10000	4	1	0	4	0
20	894	7	10000	4	1	0	4	0
20	895	7	10000	4	1	0	4	0
20	896	7	10000	4	1	0	4	0
19	897	7	10000	4	1	0	4	0
19	898	7	10000	4	1	0	4	0
19	899	7	10000	4	1	0	4	0
18	900	7	10000	4	1	0	4	0
18	901	7	10000	4	1	0	4	0
20	902	7	10000	4	1	0	4	0
22	903	7	10000	4	1	0	4	0
23	904	7	10000	4	1	0	4	0
26	905	7	10000	4	1	0	4	0
24	906	7	10000	4	1	0	4	0
24	907	7	10000	4	1	0	4	0
24	908	7	10000	4	1	0	4	0
23	909	7	10000	4	1	0	4	0
22	910	7	10000	4	1	0	4	0
23	911	7	10000	4	1	0	4	0
22	912	7	10000	4	1	0	4	0
21	913	7	10000	4	1	0	4	0
22	914	7	10000	4	1	0	4	0
21	915	7	10000	4	1	0	4	0
21	916	7	10000	4	1	0	4	0
20	917	7	10000	4	1	0	4	0
20	918	7	10000	4	1	0	4	0
21	919	7	10000	4	1	0	4	0
20	920	7	10000	4	1	0	4	0
19	921	7	10000	4	1	0	4	0
20	922	7	10000	4	1	0	4	0
23	923	7	10000	4	1	0	4	0
23	924	7	10000	4	1	0	4	0
25	925	7	10000	4	1	0	4	0
23	926	7	10000	4	1	0	4	0
25	927	7	10000	4	1	0	4	0
24	928	7	10000	4	1	0	4	0
23	929	7	10000	4	1	0	4	0
23	930	7	10000	4	1	0	4	0
23	931	7	10000	4	1	0	4	0
23	932	7	10000	4	1	0	4	0
22	933	7	10000	4	1	0	4	0
23	934	7	10000	4	1	0	4	0
22	935	7	10000	4	1	0	4	0
22	936	7	10000	4	1	0	4	0
21	937	7	10000	4	1	0	4	0
20	938	7	10000	4	1	0	4	0
20	939	7	10000	4	1	0	4	0
20	940	7	10000	4	1	0	4	0
20	941	7	10000	4	1	0	4	0
22	942	7	10000	4	1	0	4	0
23	943	7	10000	4	1	0	4	0
25	944	7	10000	4	1	0	4	0
27	945	7	10000	4	1	0	4	0
28	946	7	10000	4	1	0	4	0
26	947	7	10000	4	1	0	4	0
26	948	7	10000	4	1	0	4	0
25	949	7	10000	4	1	0	4	0
24	950	7	10000	4	1	0	4	0
24	951	7	10000	4	1	0	4	0
24	952	7	10000	4	1	0	4	0
22	953	7	10000	4	1	0	4	0
21	954	7	10000	4	1	0	4	0
21	955	7	10000	4	1	0	4	0
22	956	7	10000	4	1	0	4	0
22	957	7	10000	4	1	0	4	0
22	958	7	10000	4	1	0	4	0
22	959	7	10000	4	1	0	4	0
20	960	7	10000	4	1	0	4	0
20	961	7	10000	4	1	0	4	0
19	962	7	10000	4	1	0	4	0
20	963	7	10000	4	1	0	4	0
20	964	7	10000	4	1	0	4	0
19	965	7	10000	4	1	0	4	0
19	966	7	10000	4	1	0	4	0
20	967	7	10000	4	1	0	4	0
20	968	7	10000	4	1	0	4	0
22	969	7	10000	4	1	0	4	0
23	970	7	10000	4	1	0	4	0
23	971	7	10000	4	1	0	4	0
23	972	7	10000	4	1	0	4	0
21	973	7	10000	4	1	0	4	0
20	974	7	10000	4	1	0	4	0
20	975	7	10000	4	1	0	4	0
20	976	7	10000	4	1	0	4	0
19	977	7	10000	4	1	0	4	0
19	978	7	10000	4	1	0	4	0
20	979	7	10000	4	1	0	4	0
19	980	7	10000	4	1	0	4	0
21	981	7	10000	4	1	0	4	0
20	982	7	10000	4	1	0	4	0
23	983	7	10000	4	1	0	4	0
22	984	7	10000	4	1	0	4	0
21	985	7	10000	4	1	0	4	0
21	986	7	10000	4	1	0	4	0
20	987	7	10000	4	1	0	4	0
20	988	7	10000	4	1	0	4	0
19	989	7	10000	4	1	0	4	0
20	990	7	10000	4	1	0	4	0
19	991	7	10000	4	1	0	4	0
20	992	7	10000	4	1	0	4	0
19	993	7	10000	4	1	0	4	0
19	994	7	10000	4	1	0	4	0
20	995	7	10000	4	1	0	4	0
20	996	7	10000	4	1	0	4	0
20	997	7	10000	4	1	0	4	0
19	998	7	10000	4	1	0	4	0
19	999	7	10000	4	1	0	4	0
19	1000	7	10000	4	1	0	4	0
17	1001	7	10000	4	1	0	4	0
32	2	7	10000	5	1	0	5	0
33	3	7	10000	5	1	0	5	0
31	4	7	10000	5	1	0	5	0
30	5	7	10000	5	1	0	5	0
30	6	7	10000	5	1	0	5	0
29	7	7	10000	5	1	0	5	0
28	8	7	10000	5	1	0	5	0
28	9	7	10000	5	1	0	5	0
30	10	7	10000	5	1	0	5	0
30	11	7	10000	5	1	0	5	0
31	12	7	10000	5	1	0	5	0
30	13	7	10000	5	1	0	5	0
32	14	7	10000	5	1	0	5	0
33	15	7	10000	5	1	0	5	0
33	16	7	10000	5	1	0	5	0
33	17	7	10000	5	1	0	5	0
32	18	7	10000	5	1	0	5	0
30	19	7	10000	5	1	0	5	0
29	20	7	10000	5	1	0	5	0
28	21	7	10000	5	1	0	5	0
27	22	7	10000	5	1	0	5	0
29	23	7	10000	5	1	0	5	0
29	24	7	10000	5	1	0	5	0
28	25	7	10000	5	1	0	5	0
27	26	7	10000	5	1	0	5	0
26	27	7	10000	5	1	0	5	0
25	28	7	10000	5	1	0	5	0
22	29	7	10000	5	1	0	5	0
23	30	7	10000	5	1	0	5	0
23	31	7	10000	5	1	0	5	0
24	32	7	10000	5	1	0	5	0
23	33	7	10000	5	1	0	5	0
25	34	7	10000	5	1	0	5	0
25	35	7	10000	5	1	0	5	0
25	36	7	10000	5	1	0	5	0
24	37	7	10000	5	1	0	5	0
23	38	7	10000	5	1	0	5	0
22	39	7	10000	5	1	0	5	0
21	40	7	10000	5	1	0	5	0
21	41	7	10000	5	1	0	5	0
21	42	7	10000	5	1	0	5	0
23	43	7	10000	5	1	0	5	0
23	44	7	10000	5	1	0	5	0
24	45	7	10000	5	1	0	5	0
24	46	7	10000	5	1	0	5	0
25	47	7	10000	5	1	0	5	0
25	48	7	10000	5	1	0	5	0
25	49	7	10000	5	1	0	5	0
25	50	7	10000	5	1	0	5	0
30	51	7	10000	5	1	0	5	0
30	52	7	10000	5	1	0	5	0
27	53	7	10000	5	1	0	5	0
28	54	7	10000	5	1	0	5	0
29	55	7	10000	5	1	0	5	0
28	56	7	10000	5	1	0	5	0
29	57	7	10000	5	1	0	5	0
29	58	7	10000	5	1	0	5	0
30	59	7	10000	5	1	0	5	0
32	60	7	10000	5	1	0	5	0
35	61	7	10000	5	1	0	5	0
36	62	7	10000	5	1	0	5	0
36	63	7	10000	5	1	0	5	0
35	64	7	10000	5	1	0	5	0
33	65	7	10000	5	1	0	5	0
32	66	7	10000	5	1	0	5	0
31	67	7	10000	5	1	0	5	0
31	68	7	10000	5	1	0	5	0
29	69	7	10000	5	1	0	5	0
29	70	7	10000	5	1	0	5	0
30	71	7	10000	5	1	0	5	0
28	72	7	10000	5	1	0	5	0
26	73	7	10000	5	1	0	5	0
27	74	7	10000	5	1	0	5	0
27	75	7	10000	5	1	0	5	0
27	76	7	10000	5	1	0	5	0
26	77	7	10000	5	1	0	5	0
26	78	7	10000	5	1	0	5	0
24	79	7	10000	5	1	0	5	0
23	80	7	10000	5	1	0	5	0
22	81	7	10000	5	1	0	5	0
22	82	7	10000	5	1	0	5	0
23	83	7	10000	5	1	0	5	0
23	84	7	10000	5	1	0	5	0
23	85	7	10000	5	1	0	5	0
21	86	7	10000	5	1	0	5	0
21	87	7	10000	5	1	0	5	0
24	88	7	10000	5	1	0	5	0
24	89	7	10000	5	1	0	5	0
24	90	7	10000	5	1	0	5	0
24	91	7	10000	5	1	0	5	0
24	92	7	10000	5	1	0	5	0
22	93	7	10000	5	1	0	5	0
22	94	7	10000	5	1	0	5	0
24	95	7	10000	5	1	0	5	0
24	96	7	10000	5	1	0	5	0
24	97	7	10000	5	1	0	5	0
23	98	7	10000	5	1	0	5	0
23	99	7	10000	5	1	0	5	0
21	100	7	10000	5	1	0	5	0
20	101	7	10000	5	1	0	5	0
21	102	7	10000	5	1	0	5	0
23	103	7	10000	5	1	0	5	0
24	104	7	10000	5	1	0	5	0
28	105	7	10000	5	1	0	5	0
27	106	7	10000	5	1	0	5	0
30	107	7	10000	5	1	0	5	0
31	108	7	10000	5	1	0	5	0
29	109	7	10000	5	1	0	5	0
29	110	7	10000	5	1	0	5	0
28	111	7	10000	5	1	0	5	0
28	112	7	10000	5	1	0	5	0
26	113	7	10000	5	1	0	5	0
26	114	7	10000	5	1	0	5	0
25	115	7	10000	5	1	0	5	0
24	116	7	10000	5	1	0	5	0
24	117	7	10000	5	1	0	5	0
24	118	7	10000	5	1	0	5	0
26	119	7	10000	5	1	0	5	0
24	120	7	10000	5	1	0	5	0
24	121	7	10000	5	1	0	5	0
27	122	7	10000	5	1	0	5	0
28	123	7	10000	5	1	0	5	0
27	124	7	10000	5	1	0	5	0
26	125	7	10000	5	1	0	5	0
24	126	7	10000	5	1	0	5	0
23	127	7	10000	5	1	0	5	0
23	128	7	10000	5	1	0	5	0
23	129	7	10000	5	1	0	5	0
23	130	7	10000	5	1	0	5	0
23	131	7	10000	5	1	0	5	0
23	132	7	10000	5	1	0	5	0
20	133	7	10000	5	1	0	5	0
21	134	7	10000	5	1	0	5	0
23	135	7	10000	5	1	0	5	0
24	136	7	10000	5	1	0	5	0
24	137	7	10000	5	1	0	5	0
23	138	7	10000	5	1	0	5	0
24	139	7	10000	5	1	0	5	0
23	140	7	10000	5	1	0	5	0
22	141	7	10000	5	1	0	5	0
21	142	7	10000	5	1	0	5	0
23	143	7	10000	5	1	0	5	0
22	144	7	10000	5	1	0	5	0
21	145	7	10000	5	1	0	5	0
20	146	7	10000	5	1	0	5	0
20	147	7	10000	5	1	0	5	0
20	148	7	10000	5	1	0	5	0
18	149	7	10000	5	1	0	5	0
19	150	7	10000	5	1	0	5	0
18	151	7	10000	5	1	0	5	0
18	152	7	10000	5	1	0	5	0
15	153	7	10000	5	1	0	5	0
16	154	7	10000	5	1	0	5	0
17	155	7	10000	5	1	0	5	0
20	156	7	10000	5	1	0	5	0
20	157	7	10000	5	1	0	5	0
20	158	7	10000	5	1	0	5	0
21	159	7	10000	5	1	0	5	0
21	160	7	10000	5	1	0	5	0
20	161	7	10000	5	1	0	5	0
21	162	7	10000	5	1	0	5	0
23	163	7	10000	5	1	0	5	0
24	164	7	10000	5	1	0	5	0
25	165	7	10000	5	1	0	5	0
25	166	7	10000	5	1	0	5	0
24	167	7	10000	5	1	0	5	0
23	168	7	10000	5	1	0	5	0
23	169	7	10000	5	1	0	5	0
26	170	7	10000	5	1	0	5	0
25	171	7	10000	5	1	0	5	0
24	172	7	10000	5	1	0	5	0
23	173	7	10000	5	1	0	5	0
24	174	7	10000	5	1	0	5	0
24	175	7	10000	5	1	0	5	0
25	176	7	10000	5	1	0	5	0
24	177	7	10000	5	1	0	5	0
23	178	7	10000	5	1	0	5	0
25	179	7	10000	5	1	0	5	0
23	180	7	10000	5	1	0	5	0
22	181	7	10000	5	1	0	5	0
23	182	7	10000	5	1	0	5	0
25	183	7	10000	5	1	0	5	0
24	184	7	10000	5	1	0	5	0
23	185	7	10000	5	1	0	5	0
23	186	7	10000	5	1	0	5	0
22	187	7	10000	5	1	0	5	0
21	188	7	10000	5	1	0	5	0
21	189	7	10000	5	1	0	5	0
24	190	7	10000	5	1	0	5	0
24	191	7	10000	5	1	0	5	0
23	192	7	10000	5	1	0	5	0
21	193	7	10000	5	1	0	5	0
21	194	7	10000	5	1	0	5	0
20	195	7	10000	5	1	0	5	0
21	196	7	10000	5	1	0	5	0
22	197	7	10000	5	1	0	5	0
21	198	7	10000	5	1	0	5	0
24	199	7	10000	5	1	0	5	0
23	200	7	10000	5	1	0	5	0
21	201	7	10000	5	1	0	5	0
21	202	7	10000	5	1	0	5	0
23	203	7	10000	5	1	0	5	0
23	204	7	10000	5	1	0	5	0
23	205	7	10000	5	1	0	5	0
24	206	7	10000	5	1	0	5	0
24	207	7	10000	5	1	0	5	0
26	208	7	10000	5	1	0	5	0
25	209	7	10000	5	1	0	5	0
26	210	7	10000	5	1	0	5	0
25	211	7	10000	5	1	0	5	0
24	212	7	10000	5	1	0	5	0
22	213	7	10000	5	1	0	5	0
22	214	7	10000	5	1	0	5	0
23	215	7	10000	5	1	0	5	0
23	216	7	10000	5	1	0	5	0
24	217	7	10000	5	1	0	5	0
23	218	7	10000	5	1	0	5	0
25	219	7	10000	5	1	0	5	0
24	220	7	10000	5	1	0	5	0
25	221	7	10000	5	1	0	5	0
26	222	7	10000	5	1	0	5	0
29	223	7	10000	5	1	0	5	0
29	224	7	10000	5	1	0	5	0
27	225	7	10000	5	1	0	5	0
27	226	7	10000	5	1	0	5	0
27	227	7	10000	5	1	0	5	0
29	228	7	10000	5	1	0	5	0
30	229	7	10000	5	1	0	5	0
31	230	7	10000	5	1	0	5	0
31	231	7	10000	5	1	0	5	0
30	232	7	10000	5	1	0	5	0
29	233	7	10000	5	1	0	5	0
28	234	7	10000	5	1	0	5	0
29	235	7	10000	5	1	0	5	0
29	236	7	10000	5	1	0	5	0
28	237	7	10000	5	1	0	5	0
28	238	7	10000	5	1	0	5	0
28	239	7	10000	5	1	0	5	0
28	240	7	10000	5	1	0	5	0
27	241	7	10000	5	1	0	5	0
25	242	7	10000	5	1	0	5	0
28	243	7	10000	5	1	0	5	0
28	244	7	10000	5	1	0	5	0
26	245	7	10000	5	1	0	5	0
25	246	7	10000	5	1	0	5	0
24	247	7	10000	5	1	0	5	0
24	248	7	10000	5	1	0	5	0
22	249	7	10000	5	1	0	5	0
22	250	7	10000	5	1	0	5	0
23	251	7	10000	5	1	0	5	0
21	252	7	10000	5	1	0	5	0
21	253	7	10000	5	1	0	5	0
21	254	7	10000	5	1	0	5	0
22	255	7	10000	5	1	0	5	0
24	256	7	10000	5	1	0	5	0
24	257	7	10000	5	1	0	5	0
24	258	7	10000	5	1	0	5	0
24	259	7	10000	5	1	0	5	0
23	260	7	10000	5	1	0	5	0
23	261	7	10000	5	1	0	5	0
23	262	7	10000	5	1	0	5	0
23	263	7	10000	5	1	0	5	0
22	264	7	10000	5	1	0	5	0
21	265	7	10000	5	1	0	5	0
20	266	7	10000	5	1	0	5	0
20	267	7	10000	5	1	0	5	0
19	268	7	10000	5	1	0	5	0
18	269	7	10000	5	1	0	5	0
18	270	7	10000	5	1	0	5	0
18	271	7	10000	5	1	0	5	0
18	272	7	10000	5	1	0	5	0
18	273	7	10000	5	1	0	5	0
18	274	7	10000	5	1	0	5	0
18	275	7	10000	5	1	0	5	0
18	276	7	10000	5	1	0	5	0
18	277	7	10000	5	1	0	5	0
20	278	7	10000	5	1	0	5	0
19	279	7	10000	5	1	0	5	0
19	280	7	10000	5	1	0	5	0
20	281	7	10000	5	1	0	5	0
20	282	7	10000	5	1	0	5	0
22	283	7	10000	5	1	0	5	0
21	284	7	10000	5	1	0	5	0
20	285	7	10000	5	1	0	5	0
20	286	7	10000	5	1	0	5	0
22	287	7	10000	5	1	0	5	0
23	288	7	10000	5	1	0	5	0
22	289	7	10000	5	1	0	5	0
23	290	7	10000	5	1	0	5	0
23	291	7	10000	5	1	0	5	0
24	292	7	10000	5	1	0	5	0
21	293	7	10000	5	1	0	5	0
20	294	7	10000	5	1	0	5	0
20	295	7	10000	5	1	0	5	0
21	296	7	10000	5	1	0	5	0
20	297	7	10000	5	1	0	5	0
21	298	7	10000	5	1	0	5	0
21	299	7	10000	5	1	0	5	0
23	300	7	10000	5	1	0	5	0
25	301	7	10000	5	1	0	5	0
24	302	7	10000	5	1	0	5	0
25	303	7	10000	5	1	0	5	0
24	304	7	10000	5	1	0	5	0
24	305	7	10000	5	1	0	5	0
26	306	7	10000	5	1	0	5	0
29	307	7	10000	5	1	0	5	0
28	308	7	10000	5	1	0	5	0
29	309	7	10000	5	1	0	5	0
34	310	7	10000	5	1	0	5	0
39	311	7	10000	5	1	0	5	0
38	312	7	10000	5	1	0	5	0
34	313	7	10000	5	1	0	5	0
34	314	7	10000	5	1	0	5	0
34	315	7	10000	5	1	0	5	0
34	316	7	10000	5	1	0	5	0
33	317	7	10000	5	1	0	5	0
33	318	7	10000	5	1	0	5	0
35	319	7	10000	5	1	0	5	0
35	320	7	10000	5	1	0	5	0
37	321	7	10000	5	1	0	5	0
36	322	7	10000	5	1	0	5	0
36	323	7	10000	5	1	0	5	0
35	324	7	10000	5	1	0	5	0
36	325	7	10000	5	1	0	5	0
38	326	7	10000	5	1	0	5	0
38	327	7	10000	5	1	0	5	0
39	328	7	10000	5	1	0	5	0
41	329	7	10000	5	1	0	5	0
44	330	7	10000	5	1	0	5	0
45	331	7	10000	5	1	0	5	0
44	332	7	10000	5	1	0	5	0
43	333	7	10000	5	1	0	5	0
43	334	7	10000	5	1	0	5	0
43	335	7	10000	5	1	0	5	0
42	336	7	10000	5	1	0	5	0
41	337	7	10000	5	1	0	5	0
41	338	7	10000	5	1	0	5	0
39	339	7	10000	5	1	0	5	0
37	340	7	10000	5	1	0	5	0
35	341	7	10000	5	1	0	5	0
34	342	7	10000	5	1	0	5	0
35	343	7	10000	5	1	0	5	0
34	344	7	10000	5	1	0	5	0
33	345	7	10000	5	1	0	5	0
33	346	7	10000	5	1	0	5	0
33	347	7	10000	5	1	0	5	0
35	348	7	10000	5	1	0	5	0
35	349	7	10000	5	1	0	5	0
34	350	7	10000	5	1	0	5	0
35	351	7	10000	5	1	0	5	0
34	352	7	10000	5	1	0	5	0
32	353	7	10000	5	1	0	5	0
31	354	7	10000	5	1	0	5	0
32	355	7	10000	5	1	0	5	0
32	356	7	10000	5	1	0	5	0
32	357	7	10000	5	1	0	5	0
32	358	7	10000	5	1	0	5	0
32	359	7	10000	5	1	0	5	0
32	360	7	10000	5	1	0	5	0
31	361	7	10000	5	1	0	5	0
30	362	7	10000	5	1	0	5	0
31	363	7	10000	5	1	0	5	0
29	364	7	10000	5	1	0	5	0
28	365	7	10000	5	1	0	5	0
28	366	7	10000	5	1	0	5	0
28	367	7	10000	5	1	0	5	0
27	368	7	10000	5	1	0	5	0
28	369	7	10000	5	1	0	5	0
27	370	7	10000	5	1	0	5	0
27	371	7	10000	5	1	0	5	0
25	372	7	10000	5	1	0	5	0
24	373	7	10000	5	1	0	5	0
25	374	7	10000	5	1	0	5	0
26	375	7	10000	5	1	0	5	0
25	376	7	10000	5	1	0	5	0
24	377	7	10000	5	1	0	5	0
24	378	7	10000	5	1	0	5	0
24	379	7	10000	5	1	0	5	0
25	380	7	10000	5	1	0	5	0
25	381	7	10000	5	1	0	5	0
25	382	7	10000	5	1	0	5	0
28	383	7	10000	5	1	0	5	0
26	384	7	10000	5	1	0	5	0
25	385	7	10000	5	1	0	5	0
24	386	7	10000	5	1	0	5	0
23	387	7	10000	5	1	0	5	0
23	388	7	10000	5	1	0	5	0
21	389	7	10000	5	1	0	5	0
21	390	7	10000	5	1	0	5	0
22	391	7	10000	5	1	0	5	0
21	391	7	10000	5	1	0	5	0
19	392	7	10000	5	1	0	5	0
19	394	7	10000	5	1	0	5	0
19	395	7	10000	5	1	0	5	0
19	396	7	10000	5	1	0	5	0
18	397	7	10000	5	1	0	5	0
18	398	7	10000	5	1	0	5	0
18	399	7	10000	5	1	0	5	0
18	400	7	10000	5	1	0	5	0
17	401	7	10000	5	1	0	5	0
17	402	7	10000	5	1	0	5	0
19	403	7	10000	5	1	0	5	0
18	404	7	10000	5	1	0	5	0
18	405	7	10000	5	1	0	5	0
19	406	7	10000	5	1	0	5	0
19	407	7	10000	5	1	0	5	0
19	408	7	10000	5	1	0	5	0
18	409	7	10000	5	1	0	5	0
18	410	7	10000	5	1	0	5	0
18	411	7	10000	5	1	0	5	0
19	412	7	10000	5	1	0	5	0
18	413	7	10000	5	1	0	5	0
19	414	7	10000	5	1	0	5	0
20	415	7	10000	5	1	0	5	0
21	416	7	10000	5	1	0	5	0
21	417	7	10000	5	1	0	5	0
22	418	7	10000	5	1	0	5	0
23	419	7	10000	5	1	0	5	0
23	420	7	10000	5	1	0	5	0
21	421	7	10000	5	1	0	5	0
21	422	7	10000	5	1	0	5	0
22	423	7	10000	5	1	0	5	0
21	424	7	10000	5	1	0	5	0
20	425	7	10000	5	1	0	5	0
20	426	7	10000	5	1	0	5	0
21	427	7	10000	5	1	0	5	0
20	428	7	10000	5	1	0	5	0
19	429	7	10000	5	1	0	5	0
20	430	7	10000	5	1	0	5	0
20	431	7	10000	5	1	0	5	0
19	432	7	10000	5	1	0	5	0
17	433	7	10000	5	1	0	5	0
18	434	7	10000	5	1	0	5	0
17	435	7	10000	5	1	0	5	0
17	436	7	10000	5	1	0	5	0
17	437	7	10000	5	1	0	5	0
15	438	7	10000	5	1	0	5	0
15	439	7	10000	5	1	0	5	0
14	440	7	10000	5	1	0	5	0
13	441	7	10000	5	1	0	5	0
13	441	7	10000	5	1	0	5	0
16	442	7	10000	5	1	0	5	0
15	444	7	10000	5	1	0	5	0
14	445	7	10000	5	1	0	5	0
14	446	7	10000	5	1	0	5	0
14	447	7	10000	5	1	0	5	0
13	448	7	10000	5	1	0	5	0
12	449	7	10000	5	1	0	5	0
14	450	7	10000	5	1	0	5	0
17	451	7	10000	5	1	0	5	0
20	451	7	10000	5	1	0	5	0
17	452	7	10000	5	1	0	5	0
20	454	7	10000	5	1	0	5	0
21	455	7	10000	5	1	0	5	0
20	456	7	10000	5	1	0	5	0
20	457	7	10000	5	1	0	5	0
20	458	7	10000	5	1	0	5	0
21	459	7	10000	5	1	0	5	0
20	460	7	10000	5	1	0	5	0
19	461	7	10000	5	1	0	5	0
20	461	7	10000	5	1	0	5	0
20	462	7	10000	5	1	0	5	0
20	464	7	10000	5	1	0	5	0
21	465	7	10000	5	1	0	5	0
20	466	7	10000	5	1	0	5	0
20	467	7	10000	5	1	0	5	0
20	468	7	10000	5	1	0	5	0
20	469	7	10000	5	1	0	5	0
20	470	7	10000	5	1	0	5	0
21	471	7	10000	5	1	0	5	0
19	471	7	10000	5	1	0	5	0
18	472	7	10000	5	1	0	5	0
21	474	7	10000	5	1	0	5	0
23	475	7	10000	5	1	0	5	0
24	476	7	10000	5	1	0	5	0
23	477	7	10000	5	1	0	5	0
22	478	7	10000	5	1	0	5	0
22	479	7	10000	5	1	0	5	0
22	480	7	10000	5	1	0	5	0
22	481	7	10000	5	1	0	5	0
22	481	7	10000	5	1	0	5	0
23	482	7	10000	5	1	0	5	0
22	484	7	10000	5	1	0	5	0
22	485	7	10000	5	1	0	5	0
22	486	7	10000	5	1	0	5	0
24	487	7	10000	5	1	0	5	0
25	488	7	10000	5	1	0	5	0
23	489	7	10000	5	1	0	5	0
24	490	7	10000	5	1	0	5	0
25	491	7	10000	5	1	0	5	0
23	491	7	10000	5	1	0	5	0
21	492	7	10000	5	1	0	5	0
21	494	7	10000	5	1	0	5	0
21	495	7	10000	5	1	0	5	0
21	496	7	10000	5	1	0	5	0
20	497	7	10000	5	1	0	5	0
21	498	7	10000	5	1	0	5	0
21	499	7	10000	5	1	0	5	0
20	500	7	10000	5	1	0	5	0
19	501	7	10000	5	1	0	5	0
20	501	7	10000	5	1	0	5	1
20	502	7	10000	5	1	0	5	1
20	504	7	10000	5	1	0	5	1
20	505	7	10000	5	1	0	5	1
19	506	7	10000	5	1	0	5	1
20	507	7	10000	5	1	0	5	1
21	508	7	10000	5	1	0	5	1
20	509	7	10000	5	1	0	5	1
20	510	7	10000	5	1	0	5	1
22	511	7	10000	5	1	0	5	1
22	511	7	10000	5	1	0	5	1
20	512	7	10000	5	1	0	5	1
20	514	7	10000	5	1	0	5	1
21	515	7	10000	5	1	0	5	1
22	516	7	10000	5	1	0	5	1
21	517	7	10000	5	1	0	5	1
21	518	7	10000	5	1	0	5	1
20	519	7	10000	5	1	0	5	1
19	520	7	10000	5	1	0	5	1
19	521	7	10000	5	1	0	5	1
19	521	7	10000	5	1	0	5	1
19	522	7	10000	5	1	0	5	1
18	524	7	10000	5	1	0	5	1
19	525	7	10000	5	1	0	5	1
17	526	7	10000	5	1	0	5	1
17	527	7	10000	5	1	0	5	1
17	528	7	10000	5	1	0	5	1
16	529	7	10000	5	1	0	5	1
17	530	7	10000	5	1	0	5	1
16	531	7	10000	5	1	0	5	1
15	531	7	10000	5	1	0	5	1
13	532	7	10000	5	1	0	5	1
13	534	7	10000	5	1	0	5	1
13	535	7	10000	5	1	0	5	1
17	536	7	10000	5	1	0	5	1
17	537	7	10000	5	1	0	5	1
19	538	7	10000	5	1	0	5	1
21	539	7	10000	5	1	0	5	1
20	540	7	10000	5	1	0	5	1
19	541	7	10000	5	1	0	5	1
19	541	7	10000	5	1	0	5	1
20	542	7	10000	5	1	0	5	1
19	544	7	10000	5	1	0	5	1
19	545	7	10000	5	1	0	5	1
18	545	7	10000	5	1	0	5	1
19	546	7	10000	5	1	0	5	1
18	547	7	10000	5	1	0	5	1
17	548	7	10000	5	1	0	5	1
18	550	7	10000	5	1	0	5	1
20	551	7	10000	5	1	0	5	1
21	551	7	10000	5	1	0	5	0
19	552	7	10000	5	1	0	5	0
19	554	7	10000	5	1	0	5	0
19	555	7	10000	5	1	0	5	0
19	555	7	10000	5	1	0	5	0
19	556	7	10000	5	1	0	5	0
18	557	7	10000	5	1	0	5	0
18	558	7	10000	5	1	0	5	0
18	559	7	10000	5	1	0	5	0
17	560	7	10000	5	1	0	5	0
19	561	7	10000	5	1	0	5	0
20	562	7	10000	5	1	0	5	0
20	563	7	10000	5	1	0	5	0
19	564	7	10000	5	1	0	5	0
18	565	7	10000	5	1	0	5	0
18	566	7	10000	5	1	0	5	0
18	567	7	10000	5	1	0	5	0
17	568	7	10000	5	1	0	5	0
18	569	7	10000	5	1	0	5	0
19	570	7	10000	5	1	0	5	0
18	571	7	10000	5	1	0	5	0
17	572	7	10000	5	1	0	5	0
16	573	7	10000	5	1	0	5	0
16	574	7	10000	5	1	0	5	0
18	575	7	10000	5	1	0	5	0
17	576	7	10000	5	1	0	5	0
17	577	7	10000	5	1	0	5	0
17	578	7	10000	5	1	0	5	0
17	579	7	10000	5	1	0	5	0
21	580	7	10000	5	1	0	5	0
25	581	7	10000	5	1	0	5	0
29	582	7	10000	5	1	0	5	0
30	583	7	10000	5	1	0	5	0
31	584	7	10000	5	1	0	5	0
37	585	7	10000	5	1	0	5	0
47	586	7	10000	5	1	0	5	0
57	587	7	10000	5	1	0	5	0
77	588	7	10000	5	1	0	5	0
87	589	7	10000	5	1	0	5	0
122	590	7	10000	5	1	0	5	0
149	591	7	10000	5	1	0	5	0
153	592	7	10000	5	1	0	5	0
149	593	7	10000	5	1	0	5	0
148	594	7	10000	5	1	0	5	0
142	595	7	10000	5	1	0	5	0
144	596	7	10000	5	1	0	5	0
143	597	7	10000	5	1	0	5	0
158	598	7	10000	5	1	0	5	0
172	599	7	10000	5	1	0	5	0
168	600	7	10000	5	1	0	5	0
165	601	7	10000	5	1	0	5	0
162	602	7	10000	5	1	0	5	0
159	603	7	10000	5	1	0	5	0
167	604	7	10000	5	1	0	5	0
183	605	7	10000	5	1	0	5	0
240	606	7	10000	5	1	0	5	0
269	607	7	10000	5	1	0	5	0
262	608	7	10000	5	1	0	5	0
257	609	7	10000	5	1	0	5	0
254	610	7	10000	5	1	0	5	0
267	611	7	10000	5	1	0	5	0
287	612	7	10000	5	1	0	5	0
299	613	7	10000	5	1	0	5	0
295	614	7	10000	5	1	0	5	0
297	615	7	10000	5	1	0	5	0
289	616	7	10000	5	1	0	5	0
283	617	7	10000	5	1	0	5	0
287	618	7	10000	5	1	0	5	0
281	619	7	10000	5	1	0	5	0
271	620	7	10000	5	1	0	5	0
263	621	7	10000	5	1	0	5	0
257	622	7	10000	5	1	0	5	0
248	623	7	10000	5	1	0	5	0
239	624	7	10000	5	1	0	5	0
228	625	7	10000	5	1	0	5	0
223	626	7	10000	5	1	0	5	0
217	627	7	10000	5	1	0	5	0
214	628	7	10000	5	1	0	5	0
212	629	7	10000	5	1	0	5	0
210	630	7	10000	5	1	0	5	0
207	631	7	10000	5	1	0	5	0
201	632	7	10000	5	1	0	5	0
199	633	7	10000	5	1	0	5	0
196	634	7	10000	5	1	0	5	0
194	635	7	10000	5	1	0	5	0
189	636	7	10000	5	1	0	5	0
185	637	7	10000	5	1	0	5	0
180	638	7	10000	5	1	0	5	0
174	639	7	10000	5	1	0	5	0
167	640	7	10000	5	1	0	5	0
160	641	7	10000	5	1	0	5	0
154	642	7	10000	5	1	0	5	0
149	643	7	10000	5	1	0	5	0
142	644	7	10000	5	1	0	5	0
136	645	7	10000	5	1	0	5	0
131	646	7	10000	5	1	0	5	0
130	647	7	10000	5	1	0	5	0
130	648	7	10000	5	1	0	5	0
129	649	7	10000	5	1	0	5	0
127	650	7	10000	5	1	0	5	0
126	651	7	10000	5	1	0	5	0
121	652	7	10000	5	1	0	5	0
119	653	7	10000	5	1	0	5	0
118	654	7	10000	5	1	0	5	0
117	655	7	10000	5	1	0	5	0
113	656	7	10000	5	1	0	5	0
110	657	7	10000	5	1	0	5	0
106	658	7	10000	5	1	0	5	0
104	659	7	10000	5	1	0	5	0
102	660	7	10000	5	1	0	5	0
100	661	7	10000	5	1	0	5	0
100	662	7	10000	5	1	0	5	0
97	663	7	10000	5	1	0	5	0
97	664	7	10000	5	1	0	5	0
98	665	7	10000	5	1	0	5	0
100	666	7	10000	5	1	0	5	0
101	667	7	10000	5	1	0	5	0
102	668	7	10000	5	1	0	5	0
102	669	7	10000	5	1	0	5	0
101	670	7	10000	5	1	0	5	0
99	671	7	10000	5	1	0	5	0
96	672	7	10000	5	1	0	5	0
93	673	7	10000	5	1	0	5	0
90	674	7	10000	5	1	0	5	0
86	675	7	10000	5	1	0	5	0
84	676	7	10000	5	1	0	5	0
81	677	7	10000	5	1	0	5	0
77	678	7	10000	5	1	0	5	0
74	679	7	10000	5	1	0	5	0
72	680	7	10000	5	1	0	5	0
69	681	7	10000	5	1	0	5	0
69	682	7	10000	5	1	0	5	0
66	683	7	10000	5	1	0	5	0
64	684	7	10000	5	1	0	5	0
61	685	7	10000	5	1	0	5	0
61	686	7	10000	5	1	0	5	0
60	687	7	10000	5	1	0	5	0
57	688	7	10000	5	1	0	5	0
58	689	7	10000	5	1	0	5	0
59	690	7	10000	5	1	0	5	0
56	691	7	10000	5	1	0	5	0
53	692	7	10000	5	1	0	5	0
52	693	7	10000	5	1	0	5	0
51	694	7	10000	5	1	0	5	0
50	695	7	10000	5	1	0	5	0
50	696	7	10000	5	1	0	5	0
52	697	7	10000	5	1	0	5	0
53	698	7	10000	5	1	0	5	0
52	699	7	10000	5	1	0	5	0
50	700	7	10000	5	1	0	5	0
51	701	7	10000	5	1	0	5	0
52	702	7	10000	5	1	0	5	0
50	703	7	10000	5	1	0	5	0
50	704	7	10000	5	1	0	5	0
48	705	7	10000	5	1	0	5	0
46	706	7	10000	5	1	0	5	0
46	707	7	10000	5	1	0	5	0
44	708	7	10000	5	1	0	5	0
44	709	7	10000	5	1	0	5	0
44	710	7	10000	5	1	0	5	0
43	711	7	10000	5	1	0	5	0
39	712	7	10000	5	1	0	5	0
38	713	7	10000	5	1	0	5	0
39	714	7	10000	5	1	0	5	0
38	715	7	10000	5	1	0	5	0
36	716	7	10000	5	1	0	5	0
36	717	7	10000	5	1	0	5	0
39	718	7	10000	5	1	0	5	0
40	719	7	10000	5	1	0	5	0
40	720	7	10000	5	1	0	5	0
39	721	7	10000	5	1	0	5	0
39	722	7	10000	5	1	0	5	0
38	723	7	10000	5	1	0	5	0
38	724	7	10000	5	1	0	5	0
36	725	7	10000	5	1	0	5	0
36	726	7	10000	5	1	0	5	0
34	727	7	10000	5	1	0	5	0
33	728	7	10000	5	1	0	5	0
32	729	7	10000	5	1	0	5	0
32	730	7	10000	5	1	0	5	0
31	731	7	10000	5	1	0	5	0
29	732	7	10000	5	1	0	5	0
30	733	7	10000	5	1	0	5	0
29	734	7	10000	5	1	0	5	0
28	735	7	10000	5	1	0	5	0
28	736	7	10000	5	1	0	5	0
28	737	7	10000	5	1	0	5	0
29	738	7	10000	5	1	0	5	0
30	739	7	10000	5	1	0	5	0
29	740	7	10000	5	1	0	5	0
28	741	7	10000	5	1	0	5	0
30	742	7	10000	5	1	0	5	0
29	743	7	10000	5	1	0	5	0
28	744	7	10000	5	1	0	5	0
30	745	7	10000	5	1	0	5	0
30	746	7	10000	5	1	0	5	0
29	747	7	10000	5	1	0	5	0
29	748	7	10000	5	1	0	5	0
29	749	7	10000	5	1	0	5	0
29	750	7	10000	5	1	0	5	0
29	751	7	10000	5	1	0	5	0
26	752	7	10000	5	1	0	5	0
28	753	7	10000	5	1	0	5	0
28	754	7	10000	5	1	0	5	0
28	755	7	10000	5	1	0	5	0
29	756	7	10000	5	1	0	5	0
32	757	7	10000	5	1	0	5	0
35	758	7	10000	5	1	0	5	0
34	759	7	10000	5	1	0	5	0
33	760	7	10000	5	1	0	5	0
32	761	7	10000	5	1	0	5	0
32	762	7	10000	5	1	0	5	0
32	763	7	10000	5	1	0	5	0
31	764	7	10000	5	1	0	5	0
31	765	7	10000	5	1	0	5	0
30	766	7	10000	5	1	0	5	0
29	767	7	10000	5	1	0	5	0
28	768	7	10000	5	1	0	5	0
28	769	7	10000	5	1	0	5	0
28	770	7	10000	5	1	0	5	0
27	771	7	10000	5	1	0	5	0
24	772	7	10000	5	1	0	5	0
24	773	7	10000	5	1	0	5	0
25	774	7	10000	5	1	0	5	0
25	775	7	10000	5	1	0	5	0
24	776	7	10000	5	1	0	5	0
24	777	7	10000	5	1	0	5	0
26	778	7	10000	5	1	0	5	0
26	779	7	10000	5	1	0	5	0
25	780	7	10000	5	1	0	5	0
25	781	7	10000	5	1	0	5	0
27	782	7	10000	5	1	0	5	0
25	783	7	10000	5	1	0	5	0
25	784	7	10000	5	1	0	5	0
26	785	7	10000	5	1	0	5	0
25	786	7	10000	5	1	0	5	0
25	787	7	10000	5	1	0	5	0
25	788	7	10000	5	1	0	5	0
26	789	7	10000	5	1	0	5	0
27	790	7	10000	5	1	0	5	0
26	791	7	10000	5	1	0	5	0
24	792	7	10000	5	1	0	5	0
23	793	7	10000	5	1	0	5	0
22	794	7	10000	5	1	0	5	0
22	795	7	10000	5	1	0	5	0
23	796	7	10000	5	1	0	5	0
24	797	7	10000	5	1	0	5	0
25	798	7	10000	5	1	0	5	0
