value	EMG	Stimulus	EMG_sensitivity	Total_Trial_Nr	practise	acq	probe_nr	Startle_Probe
128	2	0	10000	1	1	0	1	0
125	3	0	10000	1	1	0	1	0
122	4	0	10000	1	1	0	1	0
122	5	0	10000	1	1	0	1	0
119	6	0	10000	1	1	0	1	0
115	7	0	10000	1	1	0	1	0
112	8	0	10000	1	1	0	1	0
109	9	0	10000	1	1	0	1	0
105	10	0	10000	1	1	0	1	0
102	11	0	10000	1	1	0	1	0
99	12	0	10000	1	1	0	1	0
97	13	0	10000	1	1	0	1	0
94	14	0	10000	1	1	0	1	0
91	15	0	10000	1	1	0	1	0
90	16	0	10000	1	1	0	1	0
87	17	0	10000	1	1	0	1	0
85	18	0	10000	1	1	0	1	0
82	19	0	10000	1	1	0	1	0
80	20	0	10000	1	1	0	1	0
78	21	0	10000	1	1	0	1	0
75	22	0	10000	1	1	0	1	0
73	23	0	10000	1	1	0	1	0
70	24	0	10000	1	1	0	1	0
70	25	0	10000	1	1	0	1	0
69	26	0	10000	1	1	0	1	0
67	27	0	10000	1	1	0	1	0
64	28	0	10000	1	1	0	1	0
62	29	0	10000	1	1	0	1	0
60	30	0	10000	1	1	0	1	0
57	31	0	10000	1	1	0	1	0
56	32	0	10000	1	1	0	1	0
53	33	0	10000	1	1	0	1	0
53	34	0	10000	1	1	0	1	0
49	35	0	10000	1	1	0	1	0
47	36	0	10000	1	1	0	1	0
45	37	0	10000	1	1	0	1	0
44	38	0	10000	1	1	0	1	0
43	39	0	10000	1	1	0	1	0
44	40	0	10000	1	1	0	1	0
44	41	0	10000	1	1	0	1	0
42	42	0	10000	1	1	0	1	0
41	43	0	10000	1	1	0	1	0
39	44	0	10000	1	1	0	1	0
42	45	0	10000	1	1	0	1	0
41	46	0	10000	1	1	0	1	0
40	47	0	10000	1	1	0	1	0
37	48	0	10000	1	1	0	1	0
36	49	0	10000	1	1	0	1	0
35	50	0	10000	1	1	0	1	0
33	51	0	10000	1	1	0	1	0
33	52	0	10000	1	1	0	1	0
32	53	0	10000	1	1	0	1	0
34	54	0	10000	1	1	0	1	0
34	55	0	10000	1	1	0	1	0
35	56	0	10000	1	1	0	1	0
35	57	0	10000	1	1	0	1	0
34	58	0	10000	1	1	0	1	0
33	59	0	10000	1	1	0	1	0
32	60	0	10000	1	1	0	1	0
31	61	0	10000	1	1	0	1	0
30	62	0	10000	1	1	0	1	0
30	63	0	10000	1	1	0	1	0
27	64	0	10000	1	1	0	1	0
28	65	0	10000	1	1	0	1	0
27	66	0	10000	1	1	0	1	0
28	67	0	10000	1	1	0	1	0
27	68	0	10000	1	1	0	1	0
26	69	0	10000	1	1	0	1	0
26	70	0	10000	1	1	0	1	0
26	71	0	10000	1	1	0	1	0
28	72	0	10000	1	1	0	1	0
28	73	0	10000	1	1	0	1	0
29	74	0	10000	1	1	0	1	0
27	75	0	10000	1	1	0	1	0
27	76	0	10000	1	1	0	1	0
26	77	0	10000	1	1	0	1	0
26	78	0	10000	1	1	0	1	0
26	79	0	10000	1	1	0	1	0
26	80	0	10000	1	1	0	1	0
28	81	0	10000	1	1	0	1	0
26	82	0	10000	1	1	0	1	0
26	83	0	10000	1	1	0	1	0
24	84	0	10000	1	1	0	1	0
25	85	0	10000	1	1	0	1	0
25	86	0	10000	1	1	0	1	0
24	87	0	10000	1	1	0	1	0
24	88	0	10000	1	1	0	1	0
23	89	0	10000	1	1	0	1	0
22	90	0	10000	1	1	0	1	0
21	91	0	10000	1	1	0	1	0
22	92	0	10000	1	1	0	1	0
23	93	0	10000	1	1	0	1	0
24	94	0	10000	1	1	0	1	0
23	95	0	10000	1	1	0	1	0
22	96	0	10000	1	1	0	1	0
24	97	0	10000	1	1	0	1	0
26	98	0	10000	1	1	0	1	0
27	99	0	10000	1	1	0	1	0
26	100	0	10000	1	1	0	1	0
25	101	0	10000	1	1	0	1	0
25	102	0	10000	1	1	0	1	0
24	103	0	10000	1	1	0	1	0
23	104	0	10000	1	1	0	1	0
25	105	0	10000	1	1	0	1	0
24	106	0	10000	1	1	0	1	0
25	107	0	10000	1	1	0	1	0
25	108	0	10000	1	1	0	1	0
25	109	0	10000	1	1	0	1	0
27	110	0	10000	1	1	0	1	0
27	111	0	10000	1	1	0	1	0
29	112	0	10000	1	1	0	1	0
30	113	0	10000	1	1	0	1	0
30	114	0	10000	1	1	0	1	0
28	115	0	10000	1	1	0	1	0
27	116	0	10000	1	1	0	1	0
26	117	0	10000	1	1	0	1	0
26	118	0	10000	1	1	0	1	0
24	119	0	10000	1	1	0	1	0
25	120	0	10000	1	1	0	1	0
25	121	0	10000	1	1	0	1	0
24	122	0	10000	1	1	0	1	0
25	123	0	10000	1	1	0	1	0
24	124	0	10000	1	1	0	1	0
25	125	0	10000	1	1	0	1	0
24	126	0	10000	1	1	0	1	0
23	127	0	10000	1	1	0	1	0
24	128	0	10000	1	1	0	1	0
23	129	0	10000	1	1	0	1	0
22	130	0	10000	1	1	0	1	0
22	131	0	10000	1	1	0	1	0
23	132	0	10000	1	1	0	1	0
23	133	0	10000	1	1	0	1	0
27	134	0	10000	1	1	0	1	0
25	135	0	10000	1	1	0	1	0
26	136	0	10000	1	1	0	1	0
31	137	0	10000	1	1	0	1	0
44	138	0	10000	1	1	0	1	0
61	139	0	10000	1	1	0	1	0
71	140	0	10000	1	1	0	1	0
76	141	0	10000	1	1	0	1	0
74	142	0	10000	1	1	0	1	0
72	143	0	10000	1	1	0	1	0
71	144	0	10000	1	1	0	1	0
80	145	0	10000	1	1	0	1	0
91	146	0	10000	1	1	0	1	0
102	147	0	10000	1	1	0	1	0
109	148	0	10000	1	1	0	1	0
116	149	0	10000	1	1	0	1	0
122	150	0	10000	1	1	0	1	0
126	151	0	10000	1	1	0	1	0
130	152	0	10000	1	1	0	1	0
137	153	0	10000	1	1	0	1	0
142	154	0	10000	1	1	0	1	0
144	155	0	10000	1	1	0	1	0
147	156	0	10000	1	1	0	1	0
146	157	0	10000	1	1	0	1	0
143	158	0	10000	1	1	0	1	0
142	159	0	10000	1	1	0	1	0
146	160	0	10000	1	1	0	1	0
152	161	0	10000	1	1	0	1	0
154	162	0	10000	1	1	0	1	0
155	163	0	10000	1	1	0	1	0
153	164	0	10000	1	1	0	1	0
152	165	0	10000	1	1	0	1	0
152	166	0	10000	1	1	0	1	0
150	167	0	10000	1	1	0	1	0
148	168	0	10000	1	1	0	1	0
143	169	0	10000	1	1	0	1	0
140	170	0	10000	1	1	0	1	0
139	171	0	10000	1	1	0	1	0
138	172	0	10000	1	1	0	1	0
138	173	0	10000	1	1	0	1	0
138	174	0	10000	1	1	0	1	0
135	175	0	10000	1	1	0	1	0
130	176	0	10000	1	1	0	1	0
128	177	0	10000	1	1	0	1	0
127	178	0	10000	1	1	0	1	0
125	179	0	10000	1	1	0	1	0
121	180	0	10000	1	1	0	1	0
122	181	0	10000	1	1	0	1	0
118	182	0	10000	1	1	0	1	0
114	183	0	10000	1	1	0	1	0
111	184	0	10000	1	1	0	1	0
113	185	0	10000	1	1	0	1	0
111	186	0	10000	1	1	0	1	0
107	187	0	10000	1	1	0	1	0
106	188	0	10000	1	1	0	1	0
107	189	0	10000	1	1	0	1	0
110	190	0	10000	1	1	0	1	0
111	191	0	10000	1	1	0	1	0
109	192	0	10000	1	1	0	1	0
105	193	0	10000	1	1	0	1	0
102	194	0	10000	1	1	0	1	0
97	195	0	10000	1	1	0	1	0
93	196	0	10000	1	1	0	1	0
94	197	0	10000	1	1	0	1	0
97	198	0	10000	1	1	0	1	0
96	199	0	10000	1	1	0	1	0
96	200	0	10000	1	1	0	1	0
93	201	0	10000	1	1	0	1	0
93	202	0	10000	1	1	0	1	0
95	203	0	10000	1	1	0	1	0
93	204	0	10000	1	1	0	1	0
92	205	0	10000	1	1	0	1	0
93	206	0	10000	1	1	0	1	0
95	207	0	10000	1	1	0	1	0
94	208	0	10000	1	1	0	1	0
90	209	0	10000	1	1	0	1	0
88	210	0	10000	1	1	0	1	0
88	211	0	10000	1	1	0	1	0
85	212	0	10000	1	1	0	1	0
83	213	0	10000	1	1	0	1	0
80	214	0	10000	1	1	0	1	0
77	215	0	10000	1	1	0	1	0
76	216	0	10000	1	1	0	1	0
77	217	0	10000	1	1	0	1	0
78	218	0	10000	1	1	0	1	0
75	219	0	10000	1	1	0	1	0
72	220	0	10000	1	1	0	1	0
70	221	0	10000	1	1	0	1	0
67	222	0	10000	1	1	0	1	0
65	223	0	10000	1	1	0	1	0
63	224	0	10000	1	1	0	1	0
66	225	0	10000	1	1	0	1	0
66	226	0	10000	1	1	0	1	0
62	227	0	10000	1	1	0	1	0
60	228	0	10000	1	1	0	1	0
58	229	0	10000	1	1	0	1	0
62	230	0	10000	1	1	0	1	0
71	231	0	10000	1	1	0	1	0
77	232	0	10000	1	1	0	1	0
78	233	0	10000	1	1	0	1	0
78	234	0	10000	1	1	0	1	0
79	235	0	10000	1	1	0	1	0
78	236	0	10000	1	1	0	1	0
77	237	0	10000	1	1	0	1	0
80	238	0	10000	1	1	0	1	0
83	239	0	10000	1	1	0	1	0
86	240	0	10000	1	1	0	1	0
86	241	0	10000	1	1	0	1	0
86	242	0	10000	1	1	0	1	0
81	243	0	10000	1	1	0	1	0
79	244	0	10000	1	1	0	1	0
81	245	0	10000	1	1	0	1	0
83	246	0	10000	1	1	0	1	0
85	247	0	10000	1	1	0	1	0
88	248	0	10000	1	1	0	1	0
87	249	0	10000	1	1	0	1	0
85	250	0	10000	1	1	0	1	0
83	251	0	10000	1	1	0	1	0
83	252	0	10000	1	1	0	1	0
84	253	0	10000	1	1	0	1	0
83	254	0	10000	1	1	0	1	0
81	255	0	10000	1	1	0	1	0
81	256	0	10000	1	1	0	1	0
85	257	0	10000	1	1	0	1	0
92	258	0	10000	1	1	0	1	0
98	259	0	10000	1	1	0	1	0
104	260	0	10000	1	1	0	1	0
106	261	0	10000	1	1	0	1	0
105	262	0	10000	1	1	0	1	0
104	263	0	10000	1	1	0	1	0
103	264	0	10000	1	1	0	1	0
102	265	0	10000	1	1	0	1	0
100	266	0	10000	1	1	0	1	0
95	267	0	10000	1	1	0	1	0
93	268	0	10000	1	1	0	1	0
97	269	0	10000	1	1	0	1	0
103	270	0	10000	1	1	0	1	0
107	271	0	10000	1	1	0	1	0
109	272	0	10000	1	1	0	1	0
108	273	0	10000	1	1	0	1	0
106	274	0	10000	1	1	0	1	0
106	275	0	10000	1	1	0	1	0
113	276	0	10000	1	1	0	1	0
122	277	0	10000	1	1	0	1	0
127	278	0	10000	1	1	0	1	0
128	279	0	10000	1	1	0	1	0
125	280	0	10000	1	1	0	1	0
122	281	0	10000	1	1	0	1	0
117	282	0	10000	1	1	0	1	0
116	283	0	10000	1	1	0	1	0
116	284	0	10000	1	1	0	1	0
124	285	0	10000	1	1	0	1	0
131	286	0	10000	1	1	0	1	0
140	287	0	10000	1	1	0	1	0
146	288	0	10000	1	1	0	1	0
149	289	0	10000	1	1	0	1	0
149	290	0	10000	1	1	0	1	0
152	291	0	10000	1	1	0	1	0
154	292	0	10000	1	1	0	1	0
159	293	0	10000	1	1	0	1	0
164	294	0	10000	1	1	0	1	0
165	295	0	10000	1	1	0	1	0
168	296	0	10000	1	1	0	1	0
172	297	0	10000	1	1	0	1	0
175	298	0	10000	1	1	0	1	0
176	299	0	10000	1	1	0	1	0
176	300	0	10000	1	1	0	1	0
176	301	0	10000	1	1	0	1	0
178	302	0	10000	1	1	0	1	0
181	303	0	10000	1	1	0	1	0
183	304	0	10000	1	1	0	1	0
186	305	0	10000	1	1	0	1	0
186	306	0	10000	1	1	0	1	0
184	307	0	10000	1	1	0	1	0
181	308	0	10000	1	1	0	1	0
178	309	0	10000	1	1	0	1	0
176	310	0	10000	1	1	0	1	0
175	311	0	10000	1	1	0	1	0
175	312	0	10000	1	1	0	1	0
176	313	0	10000	1	1	0	1	0
176	314	0	10000	1	1	0	1	0
170	315	0	10000	1	1	0	1	0
167	316	0	10000	1	1	0	1	0
163	317	0	10000	1	1	0	1	0
159	318	0	10000	1	1	0	1	0
153	319	0	10000	1	1	0	1	0
150	320	0	10000	1	1	0	1	0
148	321	0	10000	1	1	0	1	0
145	322	0	10000	1	1	0	1	0
139	323	0	10000	1	1	0	1	0
133	324	0	10000	1	1	0	1	0
128	325	0	10000	1	1	0	1	0
123	326	0	10000	1	1	0	1	0
118	327	0	10000	1	1	0	1	0
113	328	0	10000	1	1	0	1	0
108	329	0	10000	1	1	0	1	0
104	330	0	10000	1	1	0	1	0
100	331	0	10000	1	1	0	1	0
96	332	0	10000	1	1	0	1	0
92	333	0	10000	1	1	0	1	0
88	334	0	10000	1	1	0	1	0
84	335	0	10000	1	1	0	1	0
80	336	0	10000	1	1	0	1	0
77	337	0	10000	1	1	0	1	0
74	338	0	10000	1	1	0	1	0
72	339	0	10000	1	1	0	1	0
69	340	0	10000	1	1	0	1	0
67	341	0	10000	1	1	0	1	0
66	342	0	10000	1	1	0	1	0
64	343	0	10000	1	1	0	1	0
62	344	0	10000	1	1	0	1	0
61	345	0	10000	1	1	0	1	0
61	346	0	10000	1	1	0	1	0
60	347	0	10000	1	1	0	1	0
60	348	0	10000	1	1	0	1	0
59	349	0	10000	1	1	0	1	0
57	350	0	10000	1	1	0	1	0
54	351	0	10000	1	1	0	1	0
54	352	0	10000	1	1	0	1	0
55	353	0	10000	1	1	0	1	0
55	354	0	10000	1	1	0	1	0
52	355	0	10000	1	1	0	1	0
52	356	0	10000	1	1	0	1	0
51	357	0	10000	1	1	0	1	0
50	358	0	10000	1	1	0	1	0
50	359	0	10000	1	1	0	1	0
49	360	0	10000	1	1	0	1	0
49	361	0	10000	1	1	0	1	0
47	362	0	10000	1	1	0	1	0
45	363	0	10000	1	1	0	1	0
44	364	0	10000	1	1	0	1	0
43	365	0	10000	1	1	0	1	0
42	366	0	10000	1	1	0	1	0
42	367	0	10000	1	1	0	1	0
44	368	0	10000	1	1	0	1	0
44	369	0	10000	1	1	0	1	0
43	370	0	10000	1	1	0	1	0
43	371	0	10000	1	1	0	1	0
42	372	0	10000	1	1	0	1	0
41	373	0	10000	1	1	0	1	0
41	374	0	10000	1	1	0	1	0
40	375	0	10000	1	1	0	1	0
41	376	0	10000	1	1	0	1	0
43	377	0	10000	1	1	0	1	0
43	378	0	10000	1	1	0	1	0
40	379	0	10000	1	1	0	1	0
41	380	0	10000	1	1	0	1	0
42	381	0	10000	1	1	0	1	0
44	382	0	10000	1	1	0	1	0
44	383	0	10000	1	1	0	1	0
42	384	0	10000	1	1	0	1	0
42	385	0	10000	1	1	0	1	0
41	386	0	10000	1	1	0	1	0
41	387	0	10000	1	1	0	1	0
42	388	0	10000	1	1	0	1	0
42	389	0	10000	1	1	0	1	0
42	390	0	10000	1	1	0	1	0
42	391	0	10000	1	1	0	1	0
43	392	0	10000	1	1	0	1	0
45	393	0	10000	1	1	0	1	0
44	394	0	10000	1	1	0	1	0
42	395	0	10000	1	1	0	1	0
40	396	0	10000	1	1	0	1	0
40	397	0	10000	1	1	0	1	0
39	398	0	10000	1	1	0	1	0
40	399	0	10000	1	1	0	1	0
39	400	0	10000	1	1	0	1	0
40	401	0	10000	1	1	0	1	0
43	402	0	10000	1	1	0	1	0
45	403	0	10000	1	1	0	1	0
47	404	0	10000	1	1	0	1	0
48	405	0	10000	1	1	0	1	0
48	406	0	10000	1	1	0	1	0
47	407	0	10000	1	1	0	1	0
45	408	0	10000	1	1	0	1	0
43	409	0	10000	1	1	0	1	0
43	410	0	10000	1	1	0	1	0
42	411	0	10000	1	1	0	1	0
41	412	0	10000	1	1	0	1	0
42	413	0	10000	1	1	0	1	0
41	414	0	10000	1	1	0	1	0
39	415	0	10000	1	1	0	1	0
39	416	0	10000	1	1	0	1	0
41	417	0	10000	1	1	0	1	0
41	418	0	10000	1	1	0	1	0
42	419	0	10000	1	1	0	1	0
40	420	0	10000	1	1	0	1	0
39	421	0	10000	1	1	0	1	0
39	422	0	10000	1	1	0	1	0
40	423	0	10000	1	1	0	1	0
41	424	0	10000	1	1	0	1	0
45	425	0	10000	1	1	0	1	0
47	426	0	10000	1	1	0	1	0
48	427	0	10000	1	1	0	1	0
48	428	0	10000	1	1	0	1	0
48	429	0	10000	1	1	0	1	0
46	430	0	10000	1	1	0	1	0
45	431	0	10000	1	1	0	1	0
45	432	0	10000	1	1	0	1	0
46	433	0	10000	1	1	0	1	0
44	434	0	10000	1	1	0	1	0
41	435	0	10000	1	1	0	1	0
43	436	0	10000	1	1	0	1	0
44	437	0	10000	1	1	0	1	0
44	438	0	10000	1	1	0	1	0
44	439	0	10000	1	1	0	1	0
44	440	0	10000	1	1	0	1	0
45	441	0	10000	1	1	0	1	0
42	442	0	10000	1	1	0	1	0
40	443	0	10000	1	1	0	1	0
39	444	0	10000	1	1	0	1	0
41	445	0	10000	1	1	0	1	0
41	446	0	10000	1	1	0	1	0
41	447	0	10000	1	1	0	1	0
42	448	0	10000	1	1	0	1	0
41	449	0	10000	1	1	0	1	0
41	450	0	10000	1	1	0	1	0
39	451	0	10000	1	1	0	1	0
38	452	0	10000	1	1	0	1	0
37	453	0	10000	1	1	0	1	0
37	454	0	10000	1	1	0	1	0
33	455	0	10000	1	1	0	1	0
32	456	0	10000	1	1	0	1	0
32	457	0	10000	1	1	0	1	0
32	458	0	10000	1	1	0	1	0
33	459	0	10000	1	1	0	1	0
33	460	0	10000	1	1	0	1	0
32	461	0	10000	1	1	0	1	0
33	462	0	10000	1	1	0	1	0
38	463	0	10000	1	1	0	1	0
46	464	0	10000	1	1	0	1	0
56	465	0	10000	1	1	0	1	0
65	466	0	10000	1	1	0	1	0
69	467	0	10000	1	1	0	1	0
69	468	0	10000	1	1	0	1	0
69	469	0	10000	1	1	0	1	0
68	470	0	10000	1	1	0	1	0
69	471	0	10000	1	1	0	1	0
73	472	0	10000	1	1	0	1	0
76	473	0	10000	1	1	0	1	0
78	474	0	10000	1	1	0	1	0
75	475	0	10000	1	1	0	1	0
76	476	0	10000	1	1	0	1	0
80	477	0	10000	1	1	0	1	0
85	478	0	10000	1	1	0	1	0
94	479	0	10000	1	1	0	1	0
102	480	0	10000	1	1	0	1	0
106	481	0	10000	1	1	0	1	0
105	482	0	10000	1	1	0	1	0
103	483	0	10000	1	1	0	1	0
102	484	0	10000	1	1	0	1	0
104	485	0	10000	1	1	0	1	0
105	486	0	10000	1	1	0	1	0
107	487	0	10000	1	1	0	1	0
106	488	0	10000	1	1	0	1	0
102	489	0	10000	1	1	0	1	0
99	490	0	10000	1	1	0	1	0
95	491	0	10000	1	1	0	1	0
91	492	0	10000	1	1	0	1	0
87	493	0	10000	1	1	0	1	0
83	494	0	10000	1	1	0	1	0
79	495	0	10000	1	1	0	1	0
76	496	0	10000	1	1	0	1	0
73	497	0	10000	1	1	0	1	0
73	498	0	10000	1	1	0	1	0
72	499	0	10000	1	1	0	1	0
72	500	0	10000	1	1	0	1	0
75	501	0	10000	1	1	0	1	0
76	549	0	10000	1	1	0	1	1
77	550	0	10000	1	1	0	1	1
78	551	0	10000	1	1	0	1	1
80	552	0	10000	1	1	0	1	1
81	553	0	10000	1	1	0	1	1
81	554	0	10000	1	1	0	1	1
81	555	0	10000	1	1	0	1	1
84	556	0	10000	1	1	0	1	1
83	557	0	10000	1	1	0	1	1
82	558	0	10000	1	1	0	1	1
81	559	0	10000	1	1	0	1	1
80	560	0	10000	1	1	0	1	1
80	561	0	10000	1	1	0	1	1
77	562	0	10000	1	1	0	1	1
75	563	0	10000	1	1	0	1	1
73	564	0	10000	1	1	0	1	1
72	565	0	10000	1	1	0	1	1
72	566	0	10000	1	1	0	1	1
73	567	0	10000	1	1	0	1	1
72	568	0	10000	1	1	0	1	1
71	569	0	10000	1	1	0	1	1
70	570	0	10000	1	1	0	1	1
70	571	0	10000	1	1	0	1	1
70	572	0	10000	1	1	0	1	1
68	573	0	10000	1	1	0	1	1
64	574	0	10000	1	1	0	1	1
61	575	0	10000	1	1	0	1	1
59	576	0	10000	1	1	0	1	1
57	577	0	10000	1	1	0	1	1
56	578	0	10000	1	1	0	1	1
55	579	0	10000	1	1	0	1	1
53	580	0	10000	1	1	0	1	1
51	581	0	10000	1	1	0	1	1
48	582	0	10000	1	1	0	1	1
46	583	0	10000	1	1	0	1	1
45	584	0	10000	1	1	0	1	1
44	585	0	10000	1	1	0	1	1
42	586	0	10000	1	1	0	1	1
41	587	0	10000	1	1	0	1	1
41	588	0	10000	1	1	0	1	1
39	589	0	10000	1	1	0	1	1
38	590	0	10000	1	1	0	1	1
35	591	0	10000	1	1	0	1	1
36	592	0	10000	1	1	0	1	1
35	593	0	10000	1	1	0	1	1
34	594	0	10000	1	1	0	1	1
33	595	0	10000	1	1	0	1	1
33	596	0	10000	1	1	0	1	1
32	556	0	10000	1	1	0	1	1
32	557	0	10000	1	1	0	1	1
32	558	0	10000	1	1	0	1	1
31	559	0	10000	1	1	0	1	1
31	560	0	10000	1	1	0	1	1
28	561	0	10000	1	1	0	1	1
28	562	0	10000	1	1	0	1	1
27	563	0	10000	1	1	0	1	1
26	557	0	10000	1	1	0	1	0
25	558	0	10000	1	1	0	1	0
27	560	0	10000	1	1	0	1	0
27	561	0	10000	1	1	0	1	0
27	562	0	10000	1	1	0	1	0
25	563	0	10000	1	1	0	1	0
24	564	0	10000	1	1	0	1	0
25	565	0	10000	1	1	0	1	0
24	566	0	10000	1	1	0	1	0
24	567	0	10000	1	1	0	1	0
23	568	0	10000	1	1	0	1	0
24	569	0	10000	1	1	0	1	0
23	570	0	10000	1	1	0	1	0
23	571	0	10000	1	1	0	1	0
23	572	0	10000	1	1	0	1	0
24	573	0	10000	1	1	0	1	0
23	574	0	10000	1	1	0	1	0
21	575	0	10000	1	1	0	1	0
21	576	0	10000	1	1	0	1	0
21	577	0	10000	1	1	0	1	0
23	578	0	10000	1	1	0	1	0
23	579	0	10000	1	1	0	1	0
23	580	0	10000	1	1	0	1	0
22	581	0	10000	1	1	0	1	0
21	582	0	10000	1	1	0	1	0
21	583	0	10000	1	1	0	1	0
21	584	0	10000	1	1	0	1	0
22	585	0	10000	1	1	0	1	0
21	586	0	10000	1	1	0	1	0
20	587	0	10000	1	1	0	1	0
20	588	0	10000	1	1	0	1	0
20	589	0	10000	1	1	0	1	0
19	590	0	10000	1	1	0	1	0
19	591	0	10000	1	1	0	1	0
20	592	0	10000	1	1	0	1	0
21	593	0	10000	1	1	0	1	0
22	594	0	10000	1	1	0	1	0
20	595	0	10000	1	1	0	1	0
20	596	0	10000	1	1	0	1	0
19	597	0	10000	1	1	0	1	0
20	598	0	10000	1	1	0	1	0
20	599	0	10000	1	1	0	1	0
20	600	0	10000	1	1	0	1	0
21	601	0	10000	1	1	0	1	0
20	602	0	10000	1	1	0	1	0
19	603	0	10000	1	1	0	1	0
18	604	0	10000	1	1	0	1	0
20	605	0	10000	1	1	0	1	0
19	606	0	10000	1	1	0	1	0
19	607	0	10000	1	1	0	1	0
20	608	0	10000	1	1	0	1	0
20	609	0	10000	1	1	0	1	0
18	610	0	10000	1	1	0	1	0
18	611	0	10000	1	1	0	1	0
20	612	0	10000	1	1	0	1	0
21	613	0	10000	1	1	0	1	0
24	614	0	10000	1	1	0	1	0
25	615	0	10000	1	1	0	1	0
26	616	0	10000	1	1	0	1	0
26	617	0	10000	1	1	0	1	0
27	618	0	10000	1	1	0	1	0
26	619	0	10000	1	1	0	1	0
26	620	0	10000	1	1	0	1	0
26	621	0	10000	1	1	0	1	0
28	622	0	10000	1	1	0	1	0
30	623	0	10000	1	1	0	1	0
30	624	0	10000	1	1	0	1	0
32	625	0	10000	1	1	0	1	0
30	626	0	10000	1	1	0	1	0
30	627	0	10000	1	1	0	1	0
30	628	0	10000	1	1	0	1	0
30	629	0	10000	1	1	0	1	0
29	630	0	10000	1	1	0	1	0
30	631	0	10000	1	1	0	1	0
30	632	0	10000	1	1	0	1	0
30	633	0	10000	1	1	0	1	0
29	634	0	10000	1	1	0	1	0
27	635	0	10000	1	1	0	1	0
28	636	0	10000	1	1	0	1	0
30	637	0	10000	1	1	0	1	0
38	638	0	10000	1	1	0	1	0
51	639	0	10000	1	1	0	1	0
60	640	0	10000	1	1	0	1	0
61	641	0	10000	1	1	0	1	0
62	642	0	10000	1	1	0	1	0
68	643	0	10000	1	1	0	1	0
66	644	0	10000	1	1	0	1	0
73	645	0	10000	1	1	0	1	0
74	646	0	10000	1	1	0	1	0
80	647	0	10000	1	1	0	1	0
90	648	0	10000	1	1	0	1	0
104	649	0	10000	1	1	0	1	0
107	650	0	10000	1	1	0	1	0
121	651	0	10000	1	1	0	1	0
129	652	0	10000	1	1	0	1	0
171	653	0	10000	1	1	0	1	0
208	654	0	10000	1	1	0	1	0
212	655	0	10000	1	1	0	1	0
202	656	0	10000	1	1	0	1	0
202	657	0	10000	1	1	0	1	0
201	658	0	10000	1	1	0	1	0
197	659	0	10000	1	1	0	1	0
204	660	0	10000	1	1	0	1	0
223	661	0	10000	1	1	0	1	0
252	662	0	10000	1	1	0	1	0
257	663	0	10000	1	1	0	1	0
271	664	0	10000	1	1	0	1	0
268	665	0	10000	1	1	0	1	0
268	666	0	10000	1	1	0	1	0
288	667	0	10000	1	1	0	1	0
291	668	0	10000	1	1	0	1	0
319	669	0	10000	1	1	0	1	0
338	670	0	10000	1	1	0	1	0
339	671	0	10000	1	1	0	1	0
332	672	0	10000	1	1	0	1	0
319	673	0	10000	1	1	0	1	0
307	674	0	10000	1	1	0	1	0
297	675	0	10000	1	1	0	1	0
301	676	0	10000	1	1	0	1	0
299	677	0	10000	1	1	0	1	0
320	678	0	10000	1	1	0	1	0
324	679	0	10000	1	1	0	1	0
388	680	0	10000	1	1	0	1	0
455	681	0	10000	1	1	0	1	0
468	682	0	10000	1	1	0	1	0
463	683	0	10000	1	1	0	1	0
479	684	0	10000	1	1	0	1	0
496	685	0	10000	1	1	0	1	0
499	686	0	10000	1	1	0	1	0
497	687	0	10000	1	1	0	1	0
489	688	0	10000	1	1	0	1	0
476	689	0	10000	1	1	0	1	0
458	690	0	10000	1	1	0	1	0
438	691	0	10000	1	1	0	1	0
417	692	0	10000	1	1	0	1	0
400	693	0	10000	1	1	0	1	0
384	694	0	10000	1	1	0	1	0
367	695	0	10000	1	1	0	1	0
351	696	0	10000	1	1	0	1	0
338	697	0	10000	1	1	0	1	0
326	698	0	10000	1	1	0	1	0
317	699	0	10000	1	1	0	1	0
309	700	0	10000	1	1	0	1	0
300	701	0	10000	1	1	0	1	0
290	702	0	10000	1	1	0	1	0
278	703	0	10000	1	1	0	1	0
266	704	0	10000	1	1	0	1	0
258	705	0	10000	1	1	0	1	0
247	706	0	10000	1	1	0	1	0
237	707	0	10000	1	1	0	1	0
226	708	0	10000	1	1	0	1	0
217	709	0	10000	1	1	0	1	0
207	710	0	10000	1	1	0	1	0
198	711	0	10000	1	1	0	1	0
190	712	0	10000	1	1	0	1	0
186	713	0	10000	1	1	0	1	0
183	714	0	10000	1	1	0	1	0
176	715	0	10000	1	1	0	1	0
170	716	0	10000	1	1	0	1	0
171	717	0	10000	1	1	0	1	0
172	718	0	10000	1	1	0	1	0
171	719	0	10000	1	1	0	1	0
172	720	0	10000	1	1	0	1	0
173	721	0	10000	1	1	0	1	0
173	722	0	10000	1	1	0	1	0
174	723	0	10000	1	1	0	1	0
175	724	0	10000	1	1	0	1	0
178	725	0	10000	1	1	0	1	0
180	726	0	10000	1	1	0	1	0
179	727	0	10000	1	1	0	1	0
177	728	0	10000	1	1	0	1	0
175	729	0	10000	1	1	0	1	0
171	730	0	10000	1	1	0	1	0
170	731	0	10000	1	1	0	1	0
169	732	0	10000	1	1	0	1	0
168	733	0	10000	1	1	0	1	0
167	734	0	10000	1	1	0	1	0
163	735	0	10000	1	1	0	1	0
165	736	0	10000	1	1	0	1	0
170	737	0	10000	1	1	0	1	0
174	738	0	10000	1	1	0	1	0
176	739	0	10000	1	1	0	1	0
174	740	0	10000	1	1	0	1	0
171	741	0	10000	1	1	0	1	0
164	742	0	10000	1	1	0	1	0
158	743	0	10000	1	1	0	1	0
152	744	0	10000	1	1	0	1	0
148	745	0	10000	1	1	0	1	0
140	746	0	10000	1	1	0	1	0
135	747	0	10000	1	1	0	1	0
131	748	0	10000	1	1	0	1	0
126	749	0	10000	1	1	0	1	0
121	750	0	10000	1	1	0	1	0
118	751	0	10000	1	1	0	1	0
118	752	0	10000	1	1	0	1	0
119	753	0	10000	1	1	0	1	0
116	754	0	10000	1	1	0	1	0
110	755	0	10000	1	1	0	1	0
106	756	0	10000	1	1	0	1	0
102	757	0	10000	1	1	0	1	0
98	758	0	10000	1	1	0	1	0
96	759	0	10000	1	1	0	1	0
95	760	0	10000	1	1	0	1	0
97	761	0	10000	1	1	0	1	0
99	762	0	10000	1	1	0	1	0
103	763	0	10000	1	1	0	1	0
107	764	0	10000	1	1	0	1	0
112	765	0	10000	1	1	0	1	0
115	766	0	10000	1	1	0	1	0
117	767	0	10000	1	1	0	1	0
121	768	0	10000	1	1	0	1	0
127	769	0	10000	1	1	0	1	0
132	770	0	10000	1	1	0	1	0
134	771	0	10000	1	1	0	1	0
140	772	0	10000	1	1	0	1	0
146	773	0	10000	1	1	0	1	0
147	774	0	10000	1	1	0	1	0
141	775	0	10000	1	1	0	1	0
135	776	0	10000	1	1	0	1	0
133	777	0	10000	1	1	0	1	0
138	778	0	10000	1	1	0	1	0
144	779	0	10000	1	1	0	1	0
158	780	0	10000	1	1	0	1	0
179	781	0	10000	1	1	0	1	0
186	782	0	10000	1	1	0	1	0
180	783	0	10000	1	1	0	1	0
175	784	0	10000	1	1	0	1	0
171	785	0	10000	1	1	0	1	0
171	786	0	10000	1	1	0	1	0
174	787	0	10000	1	1	0	1	0
172	788	0	10000	1	1	0	1	0
169	789	0	10000	1	1	0	1	0
176	790	0	10000	1	1	0	1	0
181	791	0	10000	1	1	0	1	0
177	792	0	10000	1	1	0	1	0
176	793	0	10000	1	1	0	1	0
177	794	0	10000	1	1	0	1	0
175	795	0	10000	1	1	0	1	0
172	796	0	10000	1	1	0	1	0
165	797	0	10000	1	1	0	1	0
174	798	0	10000	1	1	0	1	0
192	799	0	10000	1	1	0	1	0
208	800	0	10000	1	1	0	1	0
233	801	0	10000	1	1	0	1	0
258	802	0	10000	1	1	0	1	0
258	803	0	10000	1	1	0	1	0
266	804	0	10000	1	1	0	1	0
291	805	0	10000	1	1	0	1	0
290	806	0	10000	1	1	0	1	0
314	807	0	10000	1	1	0	1	0
321	808	0	10000	1	1	0	1	0
323	809	0	10000	1	1	0	1	0
340	810	0	10000	1	1	0	1	0
354	811	0	10000	1	1	0	1	0
381	812	0	10000	1	1	0	1	0
386	813	0	10000	1	1	0	1	0
376	814	0	10000	1	1	0	1	0
376	815	0	10000	1	1	0	1	0
382	816	0	10000	1	1	0	1	0
393	817	0	10000	1	1	0	1	0
393	818	0	10000	1	1	0	1	0
381	819	0	10000	1	1	0	1	0
372	820	0	10000	1	1	0	1	0
362	821	0	10000	1	1	0	1	0
357	822	0	10000	1	1	0	1	0
350	823	0	10000	1	1	0	1	0
339	824	0	10000	1	1	0	1	0
327	825	0	10000	1	1	0	1	0
316	826	0	10000	1	1	0	1	0
306	827	0	10000	1	1	0	1	0
296	828	0	10000	1	1	0	1	0
285	829	0	10000	1	1	0	1	0
275	830	0	10000	1	1	0	1	0
262	831	0	10000	1	1	0	1	0
253	832	0	10000	1	1	0	1	0
246	833	0	10000	1	1	0	1	0
246	834	0	10000	1	1	0	1	0
240	835	0	10000	1	1	0	1	0
259	836	0	10000	1	1	0	1	0
284	837	0	10000	1	1	0	1	0
309	838	0	10000	1	1	0	1	0
327	839	0	10000	1	1	0	1	0
335	840	0	10000	1	1	0	1	0
339	841	0	10000	1	1	0	1	0
336	842	0	10000	1	1	0	1	0
327	843	0	10000	1	1	0	1	0
317	844	0	10000	1	1	0	1	0
310	845	0	10000	1	1	0	1	0
307	846	0	10000	1	1	0	1	0
300	847	0	10000	1	1	0	1	0
292	848	0	10000	1	1	0	1	0
288	849	0	10000	1	1	0	1	0
291	850	0	10000	1	1	0	1	0
296	851	0	10000	1	1	0	1	0
299	852	0	10000	1	1	0	1	0
295	853	0	10000	1	1	0	1	0
290	854	0	10000	1	1	0	1	0
283	855	0	10000	1	1	0	1	0
278	856	0	10000	1	1	0	1	0
273	857	0	10000	1	1	0	1	0
267	858	0	10000	1	1	0	1	0
263	859	0	10000	1	1	0	1	0
261	860	0	10000	1	1	0	1	0
262	861	0	10000	1	1	0	1	0
260	862	0	10000	1	1	0	1	0
258	863	0	10000	1	1	0	1	0
256	864	0	10000	1	1	0	1	0
253	865	0	10000	1	1	0	1	0
244	866	0	10000	1	1	0	1	0
234	867	0	10000	1	1	0	1	0
225	868	0	10000	1	1	0	1	0
217	869	0	10000	1	1	0	1	0
211	870	0	10000	1	1	0	1	0
204	871	0	10000	1	1	0	1	0
201	872	0	10000	1	1	0	1	0
196	873	0	10000	1	1	0	1	0
192	874	0	10000	1	1	0	1	0
186	875	0	10000	1	1	0	1	0
180	876	0	10000	1	1	0	1	0
173	877	0	10000	1	1	0	1	0
166	878	0	10000	1	1	0	1	0
159	879	0	10000	1	1	0	1	0
152	880	0	10000	1	1	0	1	0
146	881	0	10000	1	1	0	1	0
141	882	0	10000	1	1	0	1	0
137	883	0	10000	1	1	0	1	0
131	884	0	10000	1	1	0	1	0
128	885	0	10000	1	1	0	1	0
125	886	0	10000	1	1	0	1	0
119	887	0	10000	1	1	0	1	0
114	888	0	10000	1	1	0	1	0
109	889	0	10000	1	1	0	1	0
108	890	0	10000	1	1	0	1	0
107	891	0	10000	1	1	0	1	0
107	892	0	10000	1	1	0	1	0
105	893	0	10000	1	1	0	1	0
104	894	0	10000	1	1	0	1	0
101	895	0	10000	1	1	0	1	0
102	896	0	10000	1	1	0	1	0
105	897	0	10000	1	1	0	1	0
105	898	0	10000	1	1	0	1	0
105	899	0	10000	1	1	0	1	0
102	900	0	10000	1	1	0	1	0
99	901	0	10000	1	1	0	1	0
97	902	0	10000	1	1	0	1	0
96	903	0	10000	1	1	0	1	0
99	904	0	10000	1	1	0	1	0
105	905	0	10000	1	1	0	1	0
108	906	0	10000	1	1	0	1	0
109	907	0	10000	1	1	0	1	0
111	908	0	10000	1	1	0	1	0
112	909	0	10000	1	1	0	1	0
115	910	0	10000	1	1	0	1	0
119	911	0	10000	1	1	0	1	0
124	912	0	10000	1	1	0	1	0
128	913	0	10000	1	1	0	1	0
131	914	0	10000	1	1	0	1	0
135	915	0	10000	1	1	0	1	0
140	916	0	10000	1	1	0	1	0
145	917	0	10000	1	1	0	1	0
151	918	0	10000	1	1	0	1	0
153	919	0	10000	1	1	0	1	0
154	920	0	10000	1	1	0	1	0
155	921	0	10000	1	1	0	1	0
155	922	0	10000	1	1	0	1	0
157	923	0	10000	1	1	0	1	0
161	924	0	10000	1	1	0	1	0
165	925	0	10000	1	1	0	1	0
167	926	0	10000	1	1	0	1	0
168	927	0	10000	1	1	0	1	0
171	928	0	10000	1	1	0	1	0
176	929	0	10000	1	1	0	1	0
183	930	0	10000	1	1	0	1	0
188	931	0	10000	1	1	0	1	0
195	932	0	10000	1	1	0	1	0
201	933	0	10000	1	1	0	1	0
205	934	0	10000	1	1	0	1	0
207	935	0	10000	1	1	0	1	0
210	936	0	10000	1	1	0	1	0
214	937	0	10000	1	1	0	1	0
216	938	0	10000	1	1	0	1	0
216	939	0	10000	1	1	0	1	0
215	940	0	10000	1	1	0	1	0
215	941	0	10000	1	1	0	1	0
213	942	0	10000	1	1	0	1	0
213	943	0	10000	1	1	0	1	0
214	944	0	10000	1	1	0	1	0
216	945	0	10000	1	1	0	1	0
217	946	0	10000	1	1	0	1	0
218	947	0	10000	1	1	0	1	0
220	948	0	10000	1	1	0	1	0
220	949	0	10000	1	1	0	1	0
217	950	0	10000	1	1	0	1	0
213	951	0	10000	1	1	0	1	0
212	952	0	10000	1	1	0	1	0
209	953	0	10000	1	1	0	1	0
205	954	0	10000	1	1	0	1	0
199	955	0	10000	1	1	0	1	0
194	956	0	10000	1	1	0	1	0
192	957	0	10000	1	1	0	1	0
191	958	0	10000	1	1	0	1	0
190	959	0	10000	1	1	0	1	0
187	960	0	10000	1	1	0	1	0
182	961	0	10000	1	1	0	1	0
175	962	0	10000	1	1	0	1	0
168	963	0	10000	1	1	0	1	0
160	964	0	10000	1	1	0	1	0
154	965	0	10000	1	1	0	1	0
148	966	0	10000	1	1	0	1	0
143	967	0	10000	1	1	0	1	0
139	968	0	10000	1	1	0	1	0
136	969	0	10000	1	1	0	1	0
134	970	0	10000	1	1	0	1	0
129	971	0	10000	1	1	0	1	0
126	972	0	10000	1	1	0	1	0
124	973	0	10000	1	1	0	1	0
121	974	0	10000	1	1	0	1	0
116	975	0	10000	1	1	0	1	0
111	976	0	10000	1	1	0	1	0
107	977	0	10000	1	1	0	1	0
103	978	0	10000	1	1	0	1	0
100	979	0	10000	1	1	0	1	0
96	980	0	10000	1	1	0	1	0
93	981	0	10000	1	1	0	1	0
88	982	0	10000	1	1	0	1	0
85	983	0	10000	1	1	0	1	0
82	984	0	10000	1	1	0	1	0
82	985	0	10000	1	1	0	1	0
81	986	0	10000	1	1	0	1	0
80	987	0	10000	1	1	0	1	0
77	988	0	10000	1	1	0	1	0
74	989	0	10000	1	1	0	1	0
70	990	0	10000	1	1	0	1	0
67	991	0	10000	1	1	0	1	0
65	992	0	10000	1	1	0	1	0
64	993	0	10000	1	1	0	1	0
64	994	0	10000	1	1	0	1	0
63	995	0	10000	1	1	0	1	0
62	996	0	10000	1	1	0	1	0
62	997	0	10000	1	1	0	1	0
62	998	0	10000	1	1	0	1	0
61	999	0	10000	1	1	0	1	0
60	1000	0	10000	1	1	0	1	0
58	1001	0	10000	1	1	0	1	0
201	7	7	10000	2	1	0	2	0
208	8	7	10000	2	1	0	2	0
214	9	7	10000	2	1	0	2	0
220	10	7	10000	2	1	0	2	0
227	11	7	10000	2	1	0	2	0
236	12	7	10000	2	1	0	2	0
240	14	7	10000	2	1	0	2	0
244	15	7	10000	2	1	0	2	0
246	16	7	10000	2	1	0	2	0
248	17	7	10000	2	1	0	2	0
250	18	7	10000	2	1	0	2	0
250	19	7	10000	2	1	0	2	0
252	25	7	10000	2	1	0	2	0
254	26	7	10000	2	1	0	2	0
257	27	7	10000	2	1	0	2	0
257	28	7	10000	2	1	0	2	0
258	29	7	10000	2	1	0	2	0
257	30	7	10000	2	1	0	2	0
254	31	7	10000	2	1	0	2	0
253	32	7	10000	2	1	0	2	0
250	33	7	10000	2	1	0	2	0
248	34	7	10000	2	1	0	2	0
244	35	7	10000	2	1	0	2	0
243	36	7	10000	2	1	0	2	0
240	30	7	10000	2	1	0	2	0
239	31	7	10000	2	1	0	2	0
235	32	7	10000	2	1	0	2	0
230	33	7	10000	2	1	0	2	0
225	35	7	10000	2	1	0	2	0
221	36	7	10000	2	1	0	2	0
217	37	7	10000	2	1	0	2	0
211	38	7	10000	2	1	0	2	0
208	39	7	10000	2	1	0	2	0
204	40	7	10000	2	1	0	2	0
201	41	7	10000	2	1	0	2	0
194	42	7	10000	2	1	0	2	0
189	43	7	10000	2	1	0	2	0
184	44	7	10000	2	1	0	2	0
178	45	7	10000	2	1	0	2	0
172	46	7	10000	2	1	0	2	0
168	46	7	10000	2	1	0	2	0
165	47	7	10000	2	1	0	2	0
158	48	7	10000	2	1	0	2	0
150	49	7	10000	2	1	0	2	0
143	51	7	10000	2	1	0	2	0
140	52	7	10000	2	1	0	2	0
135	53	7	10000	2	1	0	2	0
131	54	7	10000	2	1	0	2	0
128	55	7	10000	2	1	0	2	0
122	56	7	10000	2	1	0	2	0
118	57	7	10000	2	1	0	2	0
113	58	7	10000	2	1	0	2	0
110	59	7	10000	2	1	0	2	0
108	60	7	10000	2	1	0	2	0
104	61	7	10000	2	1	0	2	0
99	62	7	10000	2	1	0	2	0
95	62	7	10000	2	1	0	2	0
93	63	7	10000	2	1	0	2	0
91	64	7	10000	2	1	0	2	0
89	65	7	10000	2	1	0	2	0
84	68	7	10000	2	1	0	2	0
81	69	7	10000	2	1	0	2	0
77	70	7	10000	2	1	0	2	0
76	71	7	10000	2	1	0	2	0
74	72	7	10000	2	1	0	2	0
73	73	7	10000	2	1	0	2	0
71	74	7	10000	2	1	0	2	0
68	75	7	10000	2	1	0	2	0
65	73	7	10000	2	1	0	2	0
62	74	7	10000	2	1	0	2	0
60	75	7	10000	2	1	0	2	0
58	76	7	10000	2	1	0	2	0
57	80	7	10000	2	1	0	2	0
56	81	7	10000	2	1	0	2	0
54	82	7	10000	2	1	0	2	0
52	83	7	10000	2	1	0	2	0
52	84	7	10000	2	1	0	2	0
52	85	7	10000	2	1	0	2	0
51	86	7	10000	2	1	0	2	0
50	87	7	10000	2	1	0	2	0
49	85	7	10000	2	1	0	2	0
48	86	7	10000	2	1	0	2	0
45	87	7	10000	2	1	0	2	0
43	88	7	10000	2	1	0	2	0
42	90	7	10000	2	1	0	2	0
44	91	7	10000	2	1	0	2	0
43	92	7	10000	2	1	0	2	0
42	93	7	10000	2	1	0	2	0
43	94	7	10000	2	1	0	2	0
43	95	7	10000	2	1	0	2	0
41	97	7	10000	2	1	0	2	0
39	98	7	10000	2	1	0	2	0
39	99	7	10000	2	1	0	2	0
38	100	7	10000	2	1	0	2	0
36	101	7	10000	2	1	0	2	0
33	102	7	10000	2	1	0	2	0
35	101	7	10000	2	1	0	2	0
36	102	7	10000	2	1	0	2	0
37	103	7	10000	2	1	0	2	0
37	104	7	10000	2	1	0	2	0
36	108	7	10000	2	1	0	2	0
35	109	7	10000	2	1	0	2	0
33	110	7	10000	2	1	0	2	0
32	111	7	10000	2	1	0	2	0
32	112	7	10000	2	1	0	2	0
35	113	7	10000	2	1	0	2	0
36	112	7	10000	2	1	0	2	0
35	113	7	10000	2	1	0	2	0
35	114	7	10000	2	1	0	2	0
36	115	7	10000	2	1	0	2	0
35	119	7	10000	2	1	0	2	0
33	120	7	10000	2	1	0	2	0
33	121	7	10000	2	1	0	2	0
33	122	7	10000	2	1	0	2	0
33	123	7	10000	2	1	0	2	0
32	124	7	10000	2	1	0	2	0
32	125	7	10000	2	1	0	2	0
32	126	7	10000	2	1	0	2	0
31	123	7	10000	2	1	0	2	0
32	124	7	10000	2	1	0	2	0
32	125	7	10000	2	1	0	2	0
34	126	7	10000	2	1	0	2	0
34	130	7	10000	2	1	0	2	0
33	131	7	10000	2	1	0	2	0
32	132	7	10000	2	1	0	2	0
33	133	7	10000	2	1	0	2	0
32	134	7	10000	2	1	0	2	0
31	135	7	10000	2	1	0	2	0
31	136	7	10000	2	1	0	2	0
32	137	7	10000	2	1	0	2	0
33	135	7	10000	2	1	0	2	0
33	136	7	10000	2	1	0	2	0
33	137	7	10000	2	1	0	2	0
32	138	7	10000	2	1	0	2	0
31	137	7	10000	2	1	0	2	0
30	138	7	10000	2	1	0	2	0
28	139	7	10000	2	1	0	2	0
28	140	7	10000	2	1	0	2	0
30	141	7	10000	2	1	0	2	0
31	142	7	10000	2	1	0	2	0
32	143	7	10000	2	1	0	2	0
32	144	7	10000	2	1	0	2	0
32	145	7	10000	2	1	0	2	0
32	146	7	10000	2	1	0	2	0
32	147	7	10000	2	1	0	2	0
32	148	7	10000	2	1	0	2	0
32	149	7	10000	2	1	0	2	0
31	150	7	10000	2	1	0	2	0
30	151	7	10000	2	1	0	2	0
30	152	7	10000	2	1	0	2	0
28	153	7	10000	2	1	0	2	0
27	154	7	10000	2	1	0	2	0
26	155	7	10000	2	1	0	2	0
26	156	7	10000	2	1	0	2	0
26	157	7	10000	2	1	0	2	0
25	158	7	10000	2	1	0	2	0
25	159	7	10000	2	1	0	2	0
24	160	7	10000	2	1	0	2	0
26	161	7	10000	2	1	0	2	0
26	162	7	10000	2	1	0	2	0
28	163	7	10000	2	1	0	2	0
29	164	7	10000	2	1	0	2	0
28	165	7	10000	2	1	0	2	0
28	166	7	10000	2	1	0	2	0
29	167	7	10000	2	1	0	2	0
31	168	7	10000	2	1	0	2	0
31	169	7	10000	2	1	0	2	0
30	170	7	10000	2	1	0	2	0
30	171	7	10000	2	1	0	2	0
29	172	7	10000	2	1	0	2	0
28	173	7	10000	2	1	0	2	0
29	174	7	10000	2	1	0	2	0
29	175	7	10000	2	1	0	2	0
29	176	7	10000	2	1	0	2	0
28	177	7	10000	2	1	0	2	0
27	178	7	10000	2	1	0	2	0
25	179	7	10000	2	1	0	2	0
26	180	7	10000	2	1	0	2	0
25	181	7	10000	2	1	0	2	0
24	182	7	10000	2	1	0	2	0
26	183	7	10000	2	1	0	2	0
27	184	7	10000	2	1	0	2	0
27	185	7	10000	2	1	0	2	0
28	186	7	10000	2	1	0	2	0
27	187	7	10000	2	1	0	2	0
28	188	7	10000	2	1	0	2	0
27	189	7	10000	2	1	0	2	0
26	190	7	10000	2	1	0	2	0
25	191	7	10000	2	1	0	2	0
24	192	7	10000	2	1	0	2	0
23	193	7	10000	2	1	0	2	0
22	194	7	10000	2	1	0	2	0
21	195	7	10000	2	1	0	2	0
22	196	7	10000	2	1	0	2	0
21	197	7	10000	2	1	0	2	0
19	198	7	10000	2	1	0	2	0
19	199	7	10000	2	1	0	2	0
20	200	7	10000	2	1	0	2	0
20	201	7	10000	2	1	0	2	0
20	202	7	10000	2	1	0	2	0
19	203	7	10000	2	1	0	2	0
19	204	7	10000	2	1	0	2	0
18	205	7	10000	2	1	0	2	0
17	206	7	10000	2	1	0	2	0
18	207	7	10000	2	1	0	2	0
20	208	7	10000	2	1	0	2	0
20	209	7	10000	2	1	0	2	0
20	210	7	10000	2	1	0	2	0
21	211	7	10000	2	1	0	2	0
20	212	7	10000	2	1	0	2	0
20	213	7	10000	2	1	0	2	0
21	214	7	10000	2	1	0	2	0
22	215	7	10000	2	1	0	2	0
21	216	7	10000	2	1	0	2	0
21	217	7	10000	2	1	0	2	0
22	218	7	10000	2	1	0	2	0
23	219	7	10000	2	1	0	2	0
24	220	7	10000	2	1	0	2	0
24	221	7	10000	2	1	0	2	0
23	222	7	10000	2	1	0	2	0
23	223	7	10000	2	1	0	2	0
23	224	7	10000	2	1	0	2	0
22	225	7	10000	2	1	0	2	0
22	226	7	10000	2	1	0	2	0
22	227	7	10000	2	1	0	2	0
24	228	7	10000	2	1	0	2	0
25	229	7	10000	2	1	0	2	0
25	230	7	10000	2	1	0	2	0
23	231	7	10000	2	1	0	2	0
24	232	7	10000	2	1	0	2	0
24	233	7	10000	2	1	0	2	0
23	234	7	10000	2	1	0	2	0
24	235	7	10000	2	1	0	2	0
25	236	7	10000	2	1	0	2	0
24	237	7	10000	2	1	0	2	0
22	238	7	10000	2	1	0	2	0
21	239	7	10000	2	1	0	2	0
21	240	7	10000	2	1	0	2	0
21	241	7	10000	2	1	0	2	0
22	242	7	10000	2	1	0	2	0
21	243	7	10000	2	1	0	2	0
21	244	7	10000	2	1	0	2	0
20	245	7	10000	2	1	0	2	0
19	246	7	10000	2	1	0	2	0
20	247	7	10000	2	1	0	2	0
21	248	7	10000	2	1	0	2	0
20	249	7	10000	2	1	0	2	0
20	250	7	10000	2	1	0	2	0
20	251	7	10000	2	1	0	2	0
21	252	7	10000	2	1	0	2	0
23	253	7	10000	2	1	0	2	0
24	254	7	10000	2	1	0	2	0
23	255	7	10000	2	1	0	2	0
25	256	7	10000	2	1	0	2	0
25	257	7	10000	2	1	0	2	0
23	258	7	10000	2	1	0	2	0
23	259	7	10000	2	1	0	2	0
22	260	7	10000	2	1	0	2	0
24	261	7	10000	2	1	0	2	0
24	262	7	10000	2	1	0	2	0
23	263	7	10000	2	1	0	2	0
22	264	7	10000	2	1	0	2	0
22	265	7	10000	2	1	0	2	0
20	266	7	10000	2	1	0	2	0
20	267	7	10000	2	1	0	2	0
21	268	7	10000	2	1	0	2	0
20	269	7	10000	2	1	0	2	0
20	270	7	10000	2	1	0	2	0
21	271	7	10000	2	1	0	2	0
24	272	7	10000	2	1	0	2	0
26	273	7	10000	2	1	0	2	0
26	274	7	10000	2	1	0	2	0
27	275	7	10000	2	1	0	2	0
29	276	7	10000	2	1	0	2	0
27	277	7	10000	2	1	0	2	0
24	278	7	10000	2	1	0	2	0
23	279	7	10000	2	1	0	2	0
23	280	7	10000	2	1	0	2	0
23	281	7	10000	2	1	0	2	0
24	282	7	10000	2	1	0	2	0
24	283	7	10000	2	1	0	2	0
24	284	7	10000	2	1	0	2	0
22	285	7	10000	2	1	0	2	0
23	286	7	10000	2	1	0	2	0
26	287	7	10000	2	1	0	2	0
29	288	7	10000	2	1	0	2	0
31	289	7	10000	2	1	0	2	0
33	290	7	10000	2	1	0	2	0
34	291	7	10000	2	1	0	2	0
33	292	7	10000	2	1	0	2	0
33	293	7	10000	2	1	0	2	0
33	294	7	10000	2	1	0	2	0
32	295	7	10000	2	1	0	2	0
32	296	7	10000	2	1	0	2	0
33	297	7	10000	2	1	0	2	0
33	298	7	10000	2	1	0	2	0
34	299	7	10000	2	1	0	2	0
36	300	7	10000	2	1	0	2	0
37	301	7	10000	2	1	0	2	0
38	302	7	10000	2	1	0	2	0
39	303	7	10000	2	1	0	2	0
38	304	7	10000	2	1	0	2	0
36	305	7	10000	2	1	0	2	0
35	306	7	10000	2	1	0	2	0
34	307	7	10000	2	1	0	2	0
35	308	7	10000	2	1	0	2	0
34	309	7	10000	2	1	0	2	0
33	310	7	10000	2	1	0	2	0
33	311	7	10000	2	1	0	2	0
34	312	7	10000	2	1	0	2	0
34	313	7	10000	2	1	0	2	0
33	314	7	10000	2	1	0	2	0
33	315	7	10000	2	1	0	2	0
34	316	7	10000	2	1	0	2	0
33	317	7	10000	2	1	0	2	0
31	318	7	10000	2	1	0	2	0
31	319	7	10000	2	1	0	2	0
32	320	7	10000	2	1	0	2	0
34	321	7	10000	2	1	0	2	0
34	322	7	10000	2	1	0	2	0
36	323	7	10000	2	1	0	2	0
35	324	7	10000	2	1	0	2	0
35	325	7	10000	2	1	0	2	0
33	326	7	10000	2	1	0	2	0
32	327	7	10000	2	1	0	2	0
33	328	7	10000	2	1	0	2	0
33	329	7	10000	2	1	0	2	0
31	330	7	10000	2	1	0	2	0
30	331	7	10000	2	1	0	2	0
30	332	7	10000	2	1	0	2	0
29	333	7	10000	2	1	0	2	0
29	334	7	10000	2	1	0	2	0
29	335	7	10000	2	1	0	2	0
29	336	7	10000	2	1	0	2	0
29	337	7	10000	2	1	0	2	0
26	338	7	10000	2	1	0	2	0
25	339	7	10000	2	1	0	2	0
25	340	7	10000	2	1	0	2	0
24	341	7	10000	2	1	0	2	0
23	342	7	10000	2	1	0	2	0
22	343	7	10000	2	1	0	2	0
22	344	7	10000	2	1	0	2	0
21	345	7	10000	2	1	0	2	0
19	346	7	10000	2	1	0	2	0
19	347	7	10000	2	1	0	2	0
20	348	7	10000	2	1	0	2	0
20	349	7	10000	2	1	0	2	0
19	350	7	10000	2	1	0	2	0
19	351	7	10000	2	1	0	2	0
19	352	7	10000	2	1	0	2	0
17	353	7	10000	2	1	0	2	0
17	354	7	10000	2	1	0	2	0
17	355	7	10000	2	1	0	2	0
17	356	7	10000	2	1	0	2	0
16	357	7	10000	2	1	0	2	0
15	358	7	10000	2	1	0	2	0
17	359	7	10000	2	1	0	2	0
18	360	7	10000	2	1	0	2	0
19	361	7	10000	2	1	0	2	0
19	362	7	10000	2	1	0	2	0
19	363	7	10000	2	1	0	2	0
18	364	7	10000	2	1	0	2	0
19	365	7	10000	2	1	0	2	0
19	366	7	10000	2	1	0	2	0
20	367	7	10000	2	1	0	2	0
21	368	7	10000	2	1	0	2	0
20	369	7	10000	2	1	0	2	0
21	370	7	10000	2	1	0	2	0
20	371	7	10000	2	1	0	2	0
19	372	7	10000	2	1	0	2	0
19	373	7	10000	2	1	0	2	0
19	374	7	10000	2	1	0	2	0
19	375	7	10000	2	1	0	2	0
18	376	7	10000	2	1	0	2	0
18	377	7	10000	2	1	0	2	0
17	378	7	10000	2	1	0	2	0
17	379	7	10000	2	1	0	2	0
18	380	7	10000	2	1	0	2	0
19	381	7	10000	2	1	0	2	0
19	382	7	10000	2	1	0	2	0
19	383	7	10000	2	1	0	2	0
19	384	7	10000	2	1	0	2	0
18	385	7	10000	2	1	0	2	0
19	386	7	10000	2	1	0	2	0
20	387	7	10000	2	1	0	2	0
21	388	7	10000	2	1	0	2	0
20	389	7	10000	2	1	0	2	0
20	390	7	10000	2	1	0	2	0
20	391	7	10000	2	1	0	2	0
22	392	7	10000	2	1	0	2	0
20	393	7	10000	2	1	0	2	0
20	394	7	10000	2	1	0	2	0
20	395	7	10000	2	1	0	2	0
20	396	7	10000	2	1	0	2	0
20	397	7	10000	2	1	0	2	0
18	398	7	10000	2	1	0	2	0
18	399	7	10000	2	1	0	2	0
18	400	7	10000	2	1	0	2	0
19	401	7	10000	2	1	0	2	0
20	402	7	10000	2	1	0	2	0
20	403	7	10000	2	1	0	2	0
20	404	7	10000	2	1	0	2	0
20	405	7	10000	2	1	0	2	0
19	406	7	10000	2	1	0	2	0
19	407	7	10000	2	1	0	2	0
20	408	7	10000	2	1	0	2	0
20	409	7	10000	2	1	0	2	0
19	410	7	10000	2	1	0	2	0
17	411	7	10000	2	1	0	2	0
17	412	7	10000	2	1	0	2	0
17	413	7	10000	2	1	0	2	0
17	414	7	10000	2	1	0	2	0
16	415	7	10000	2	1	0	2	0
17	416	7	10000	2	1	0	2	0
16	417	7	10000	2	1	0	2	0
15	418	7	10000	2	1	0	2	0
14	419	7	10000	2	1	0	2	0
14	420	7	10000	2	1	0	2	0
15	421	7	10000	2	1	0	2	0
14	422	7	10000	2	1	0	2	0
14	423	7	10000	2	1	0	2	0
14	424	7	10000	2	1	0	2	0
13	425	7	10000	2	1	0	2	0
14	426	7	10000	2	1	0	2	0
14	427	7	10000	2	1	0	2	0
16	428	7	10000	2	1	0	2	0
15	429	7	10000	2	1	0	2	0
16	430	7	10000	2	1	0	2	0
15	431	7	10000	2	1	0	2	0
16	432	7	10000	2	1	0	2	0
17	433	7	10000	2	1	0	2	0
17	434	7	10000	2	1	0	2	0
16	435	7	10000	2	1	0	2	0
17	436	7	10000	2	1	0	2	0
17	437	7	10000	2	1	0	2	0
14	438	7	10000	2	1	0	2	0
14	439	7	10000	2	1	0	2	0
14	440	7	10000	2	1	0	2	0
15	441	7	10000	2	1	0	2	0
16	442	7	10000	2	1	0	2	0
16	443	7	10000	2	1	0	2	0
16	444	7	10000	2	1	0	2	0
16	445	7	10000	2	1	0	2	0
15	446	7	10000	2	1	0	2	0
16	447	7	10000	2	1	0	2	0
19	448	7	10000	2	1	0	2	0
20	449	7	10000	2	1	0	2	0
20	450	7	10000	2	1	0	2	0
19	451	7	10000	2	1	0	2	0
18	452	7	10000	2	1	0	2	0
17	453	7	10000	2	1	0	2	0
17	454	7	10000	2	1	0	2	0
17	455	7	10000	2	1	0	2	0
18	456	7	10000	2	1	0	2	0
17	457	7	10000	2	1	0	2	0
15	458	7	10000	2	1	0	2	0
16	459	7	10000	2	1	0	2	0
16	460	7	10000	2	1	0	2	0
17	461	7	10000	2	1	0	2	0
15	462	7	10000	2	1	0	2	0
15	463	7	10000	2	1	0	2	0
15	464	7	10000	2	1	0	2	0
14	465	7	10000	2	1	0	2	0
13	466	7	10000	2	1	0	2	0
14	467	7	10000	2	1	0	2	0
15	468	7	10000	2	1	0	2	0
15	469	7	10000	2	1	0	2	0
14	470	7	10000	2	1	0	2	0
13	471	7	10000	2	1	0	2	0
15	472	7	10000	2	1	0	2	0
14	473	7	10000	2	1	0	2	0
13	474	7	10000	2	1	0	2	0
14	475	7	10000	2	1	0	2	0
15	476	7	10000	2	1	0	2	0
14	477	7	10000	2	1	0	2	0
11	478	7	10000	2	1	0	2	0
12	479	7	10000	2	1	0	2	0
12	480	7	10000	2	1	0	2	0
12	481	7	10000	2	1	0	2	0
12	482	7	10000	2	1	0	2	0
12	483	7	10000	2	1	0	2	0
13	484	7	10000	2	1	0	2	0
13	485	7	10000	2	1	0	2	0
13	486	7	10000	2	1	0	2	0
14	487	7	10000	2	1	0	2	0
16	488	7	10000	2	1	0	2	0
16	489	7	10000	2	1	0	2	0
17	490	7	10000	2	1	0	2	0
16	491	7	10000	2	1	0	2	0
16	492	7	10000	2	1	0	2	0
16	493	7	10000	2	1	0	2	0
16	494	7	10000	2	1	0	2	0
16	495	7	10000	2	1	0	2	0
16	496	7	10000	2	1	0	2	0
17	497	7	10000	2	1	0	2	1
15	498	7	10000	2	1	0	2	1
15	499	7	10000	2	1	0	2	1
16	500	7	10000	2	1	0	2	1
17	501	7	10000	2	1	0	2	1
16	502	7	10000	2	1	0	2	1
16	503	7	10000	2	1	0	2	1
16	504	7	10000	2	1	0	2	1
17	505	7	10000	2	1	0	2	1
18	506	7	10000	2	1	0	2	1
17	507	7	10000	2	1	0	2	1
20	508	7	10000	2	1	0	2	1
19	509	7	10000	2	1	0	2	1
19	510	7	10000	2	1	0	2	1
18	511	7	10000	2	1	0	2	1
19	512	7	10000	2	1	0	2	1
20	513	7	10000	2	1	0	2	1
20	514	7	10000	2	1	0	2	1
25	515	7	10000	2	1	0	2	1
34	516	7	10000	2	1	0	2	1
43	517	7	10000	2	1	0	2	1
49	518	7	10000	2	1	0	2	1
61	519	7	10000	2	1	0	2	1
73	520	7	10000	2	1	0	2	1
83	521	7	10000	2	1	0	2	1
84	522	7	10000	2	1	0	2	1
81	523	7	10000	2	1	0	2	1
80	524	7	10000	2	1	0	2	1
87	525	7	10000	2	1	0	2	1
95	526	7	10000	2	1	0	2	1
104	527	7	10000	2	1	0	2	1
115	528	7	10000	2	1	0	2	1
118	529	7	10000	2	1	0	2	1
115	530	7	10000	2	1	0	2	1
114	531	7	10000	2	1	0	2	1
123	532	7	10000	2	1	0	2	1
132	533	7	10000	2	1	0	2	1
135	534	7	10000	2	1	0	2	1
136	535	7	10000	2	1	0	2	1
135	536	7	10000	2	1	0	2	1
139	537	7	10000	2	1	0	2	1
141	538	7	10000	2	1	0	2	1
143	539	7	10000	2	1	0	2	1
141	540	7	10000	2	1	0	2	1
136	541	7	10000	2	1	0	2	1
131	542	7	10000	2	1	0	2	1
126	543	7	10000	2	1	0	2	1
129	544	7	10000	2	1	0	2	1
136	545	7	10000	2	1	0	2	1
146	546	7	10000	2	1	0	2	1
151	547	7	10000	2	1	0	2	0
157	548	7	10000	2	1	0	2	0
155	549	7	10000	2	1	0	2	0
150	550	7	10000	2	1	0	2	0
144	551	7	10000	2	1	0	2	0
141	552	7	10000	2	1	0	2	0
140	553	7	10000	2	1	0	2	0
135	554	7	10000	2	1	0	2	0
134	555	7	10000	2	1	0	2	0
135	556	7	10000	2	1	0	2	0
132	557	7	10000	2	1	0	2	0
126	558	7	10000	2	1	0	2	0
122	559	7	10000	2	1	0	2	0
119	560	7	10000	2	1	0	2	0
119	561	7	10000	2	1	0	2	0
119	562	7	10000	2	1	0	2	0
117	563	7	10000	2	1	0	2	0
114	564	7	10000	2	1	0	2	0
112	565	7	10000	2	1	0	2	0
110	566	7	10000	2	1	0	2	0
106	567	7	10000	2	1	0	2	0
104	568	7	10000	2	1	0	2	0
102	569	7	10000	2	1	0	2	0
102	570	7	10000	2	1	0	2	0
101	571	7	10000	2	1	0	2	0
101	572	7	10000	2	1	0	2	0
100	573	7	10000	2	1	0	2	0
98	574	7	10000	2	1	0	2	0
99	575	7	10000	2	1	0	2	0
97	576	7	10000	2	1	0	2	0
95	577	7	10000	2	1	0	2	0
93	578	7	10000	2	1	0	2	0
110	579	7	10000	2	1	0	2	0
135	580	7	10000	2	1	0	2	0
139	581	7	10000	2	1	0	2	0
134	582	7	10000	2	1	0	2	0
137	583	7	10000	2	1	0	2	0
143	584	7	10000	2	1	0	2	0
150	585	7	10000	2	1	0	2	0
185	586	7	10000	2	1	0	2	0
287	587	7	10000	2	1	0	2	0
397	588	7	10000	2	1	0	2	0
449	589	7	10000	2	1	0	2	0
457	590	7	10000	2	1	0	2	0
452	591	7	10000	2	1	0	2	0
458	592	7	10000	2	1	0	2	0
476	593	7	10000	2	1	0	2	0
559	594	7	10000	2	1	0	2	0
557	595	7	10000	2	1	0	2	0
557	596	7	10000	2	1	0	2	0
562	597	7	10000	2	1	0	2	0
558	598	7	10000	2	1	0	2	0
576	599	7	10000	2	1	0	2	0
584	600	7	10000	2	1	0	2	0
575	601	7	10000	2	1	0	2	0
569	602	7	10000	2	1	0	2	0
567	603	7	10000	2	1	0	2	0
599	604	7	10000	2	1	0	2	0
608	605	7	10000	2	1	0	2	0
663	606	7	10000	2	1	0	2	0
677	607	7	10000	2	1	0	2	0
655	608	7	10000	2	1	0	2	0
646	609	7	10000	2	1	0	2	0
636	610	7	10000	2	1	0	2	0
633	611	7	10000	2	1	0	2	0
662	612	7	10000	2	1	0	2	0
740	613	7	10000	2	1	0	2	0
821	614	7	10000	2	1	0	2	0
864	615	7	10000	2	1	0	2	0
853	616	7	10000	2	1	0	2	0
827	617	7	10000	2	1	0	2	0
823	618	7	10000	2	1	0	2	0
830	619	7	10000	2	1	0	2	0
848	620	7	10000	2	1	0	2	0
881	621	7	10000	2	1	0	2	0
911	622	7	10000	2	1	0	2	0
933	623	7	10000	2	1	0	2	0
948	624	7	10000	2	1	0	2	0
978	625	7	10000	2	1	0	2	0
1023	626	7	10000	2	1	0	2	0
1055	627	7	10000	2	1	0	2	0
1045	628	7	10000	2	1	0	2	0
1013	629	7	10000	2	1	0	2	0
1010	630	7	10000	2	1	0	2	0
1030	631	7	10000	2	1	0	2	0
1051	632	7	10000	2	1	0	2	0
1069	633	7	10000	2	1	0	2	0
1087	634	7	10000	2	1	0	2	0
1080	635	7	10000	2	1	0	2	0
1087	636	7	10000	2	1	0	2	0
1106	637	7	10000	2	1	0	2	0
1106	638	7	10000	2	1	0	2	0
1098	639	7	10000	2	1	0	2	0
1083	640	7	10000	2	1	0	2	0
1062	641	7	10000	2	1	0	2	0
1036	642	7	10000	2	1	0	2	0
1006	643	7	10000	2	1	0	2	0
973	644	7	10000	2	1	0	2	0
931	645	7	10000	2	1	0	2	0
889	646	7	10000	2	1	0	2	0
855	647	7	10000	2	1	0	2	0
826	648	7	10000	2	1	0	2	0
789	649	7	10000	2	1	0	2	0
762	650	7	10000	2	1	0	2	0
741	651	7	10000	2	1	0	2	0
725	652	7	10000	2	1	0	2	0
709	653	7	10000	2	1	0	2	0
691	654	7	10000	2	1	0	2	0
679	655	7	10000	2	1	0	2	0
674	656	7	10000	2	1	0	2	0
672	657	7	10000	2	1	0	2	0
670	658	7	10000	2	1	0	2	0
673	659	7	10000	2	1	0	2	0
676	660	7	10000	2	1	0	2	0
681	661	7	10000	2	1	0	2	0
687	662	7	10000	2	1	0	2	0
691	663	7	10000	2	1	0	2	0
693	664	7	10000	2	1	0	2	0
699	665	7	10000	2	1	0	2	0
720	666	7	10000	2	1	0	2	0
746	667	7	10000	2	1	0	2	0
791	668	7	10000	2	1	0	2	0
804	669	7	10000	2	1	0	2	0
795	670	7	10000	2	1	0	2	0
812	671	7	10000	2	1	0	2	0
821	672	7	10000	2	1	0	2	0
798	673	7	10000	2	1	0	2	0
766	674	7	10000	2	1	0	2	0
751	675	7	10000	2	1	0	2	0
752	676	7	10000	2	1	0	2	0
759	677	7	10000	2	1	0	2	0
759	678	7	10000	2	1	0	2	0
763	679	7	10000	2	1	0	2	0
769	680	7	10000	2	1	0	2	0
770	681	7	10000	2	1	0	2	0
766	682	7	10000	2	1	0	2	0
759	683	7	10000	2	1	0	2	0
758	684	7	10000	2	1	0	2	0
755	685	7	10000	2	1	0	2	0
750	686	7	10000	2	1	0	2	0
742	687	7	10000	2	1	0	2	0
730	688	7	10000	2	1	0	2	0
714	689	7	10000	2	1	0	2	0
696	690	7	10000	2	1	0	2	0
677	691	7	10000	2	1	0	2	0
659	692	7	10000	2	1	0	2	0
640	693	7	10000	2	1	0	2	0
618	694	7	10000	2	1	0	2	0
599	695	7	10000	2	1	0	2	0
579	696	7	10000	2	1	0	2	0
556	697	7	10000	2	1	0	2	0
533	698	7	10000	2	1	0	2	0
514	699	7	10000	2	1	0	2	0
499	700	7	10000	2	1	0	2	0
485	701	7	10000	2	1	0	2	0
470	702	7	10000	2	1	0	2	0
455	703	7	10000	2	1	0	2	0
440	704	7	10000	2	1	0	2	0
425	705	7	10000	2	1	0	2	0
415	706	7	10000	2	1	0	2	0
406	707	7	10000	2	1	0	2	0
399	708	7	10000	2	1	0	2	0
390	709	7	10000	2	1	0	2	0
381	710	7	10000	2	1	0	2	0
370	711	7	10000	2	1	0	2	0
357	712	7	10000	2	1	0	2	0
344	713	7	10000	2	1	0	2	0
328	714	7	10000	2	1	0	2	0
314	715	7	10000	2	1	0	2	0
302	716	7	10000	2	1	0	2	0
288	717	7	10000	2	1	0	2	0
274	718	7	10000	2	1	0	2	0
265	719	7	10000	2	1	0	2	0
257	720	7	10000	2	1	0	2	0
249	721	7	10000	2	1	0	2	0
240	722	7	10000	2	1	0	2	0
233	723	7	10000	2	1	0	2	0
229	724	7	10000	2	1	0	2	0
224	725	7	10000	2	1	0	2	0
220	726	7	10000	2	1	0	2	0
215	727	7	10000	2	1	0	2	0
208	728	7	10000	2	1	0	2	0
200	729	7	10000	2	1	0	2	0
194	730	7	10000	2	1	0	2	0
190	731	7	10000	2	1	0	2	0
189	732	7	10000	2	1	0	2	0
188	733	7	10000	2	1	0	2	0
183	734	7	10000	2	1	0	2	0
177	735	7	10000	2	1	0	2	0
171	736	7	10000	2	1	0	2	0
166	737	7	10000	2	1	0	2	0
160	738	7	10000	2	1	0	2	0
157	739	7	10000	2	1	0	2	0
156	740	7	10000	2	1	0	2	0
158	741	7	10000	2	1	0	2	0
158	742	7	10000	2	1	0	2	0
156	743	7	10000	2	1	0	2	0
150	744	7	10000	2	1	0	2	0
144	745	7	10000	2	1	0	2	0
139	746	7	10000	2	1	0	2	0
133	747	7	10000	2	1	0	2	0
131	748	7	10000	2	1	0	2	0
128	749	7	10000	2	1	0	2	0
128	750	7	10000	2	1	0	2	0
130	751	7	10000	2	1	0	2	0
132	752	7	10000	2	1	0	2	0
133	753	7	10000	2	1	0	2	0
131	754	7	10000	2	1	0	2	0
128	755	7	10000	2	1	0	2	0
127	756	7	10000	2	1	0	2	0
126	757	7	10000	2	1	0	2	0
124	758	7	10000	2	1	0	2	0
122	759	7	10000	2	1	0	2	0
118	760	7	10000	2	1	0	2	0
116	761	7	10000	2	1	0	2	0
114	762	7	10000	2	1	0	2	0
111	763	7	10000	2	1	0	2	0
107	764	7	10000	2	1	0	2	0
104	765	7	10000	2	1	0	2	0
102	766	7	10000	2	1	0	2	0
100	767	7	10000	2	1	0	2	0
102	768	7	10000	2	1	0	2	0
106	769	7	10000	2	1	0	2	0
108	770	7	10000	2	1	0	2	0
109	771	7	10000	2	1	0	2	0
109	772	7	10000	2	1	0	2	0
109	773	7	10000	2	1	0	2	0
109	774	7	10000	2	1	0	2	0
110	775	7	10000	2	1	0	2	0
109	776	7	10000	2	1	0	2	0
107	777	7	10000	2	1	0	2	0
104	778	7	10000	2	1	0	2	0
102	779	7	10000	2	1	0	2	0
103	780	7	10000	2	1	0	2	0
101	781	7	10000	2	1	0	2	0
97	782	7	10000	2	1	0	2	0
94	783	7	10000	2	1	0	2	0
92	784	7	10000	2	1	0	2	0
88	785	7	10000	2	1	0	2	0
83	786	7	10000	2	1	0	2	0
80	787	7	10000	2	1	0	2	0
79	788	7	10000	2	1	0	2	0
76	789	7	10000	2	1	0	2	0
73	790	7	10000	2	1	0	2	0
73	791	7	10000	2	1	0	2	0
75	792	7	10000	2	1	0	2	0
79	793	7	10000	2	1	0	2	0
82	794	7	10000	2	1	0	2	0
85	795	7	10000	2	1	0	2	0
84	796	7	10000	2	1	0	2	0
81	797	7	10000	2	1	0	2	0
80	798	7	10000	2	1	0	2	0
82	799	7	10000	2	1	0	2	0
84	800	7	10000	2	1	0	2	0
84	801	7	10000	2	1	0	2	0
80	802	7	10000	2	1	0	2	0
77	803	7	10000	2	1	0	2	0
74	804	7	10000	2	1	0	2	0
70	805	7	10000	2	1	0	2	0
67	806	7	10000	2	1	0	2	0
65	807	7	10000	2	1	0	2	0
64	808	7	10000	2	1	0	2	0
63	809	7	10000	2	1	0	2	0
60	810	7	10000	2	1	0	2	0
57	811	7	10000	2	1	0	2	0
55	812	7	10000	2	1	0	2	0
56	813	7	10000	2	1	0	2	0
59	814	7	10000	2	1	0	2	0
62	815	7	10000	2	1	0	2	0
63	816	7	10000	2	1	0	2	0
60	817	7	10000	2	1	0	2	0
58	818	7	10000	2	1	0	2	0
60	819	7	10000	2	1	0	2	0
62	820	7	10000	2	1	0	2	0
61	821	7	10000	2	1	0	2	0
59	822	7	10000	2	1	0	2	0
57	823	7	10000	2	1	0	2	0
58	824	7	10000	2	1	0	2	0
60	825	7	10000	2	1	0	2	0
63	826	7	10000	2	1	0	2	0
61	827	7	10000	2	1	0	2	0
60	828	7	10000	2	1	0	2	0
57	829	7	10000	2	1	0	2	0
57	830	7	10000	2	1	0	2	0
56	831	7	10000	2	1	0	2	0
55	832	7	10000	2	1	0	2	0
55	833	7	10000	2	1	0	2	0
58	834	7	10000	2	1	0	2	0
58	835	7	10000	2	1	0	2	0
56	836	7	10000	2	1	0	2	0
54	837	7	10000	2	1	0	2	0
53	838	7	10000	2	1	0	2	0
52	839	7	10000	2	1	0	2	0
53	840	7	10000	2	1	0	2	0
71	841	7	10000	2	1	0	2	0
108	842	7	10000	2	1	0	2	0
131	843	7	10000	2	1	0	2	0
130	844	7	10000	2	1	0	2	0
135	845	7	10000	2	1	0	2	0
141	846	7	10000	2	1	0	2	0
156	847	7	10000	2	1	0	2	0
178	848	7	10000	2	1	0	2	0
195	849	7	10000	2	1	0	2	0
200	850	7	10000	2	1	0	2	0
194	851	7	10000	2	1	0	2	0
188	852	7	10000	2	1	0	2	0
185	853	7	10000	2	1	0	2	0
178	854	7	10000	2	1	0	2	0
172	855	7	10000	2	1	0	2	0
165	856	7	10000	2	1	0	2	0
162	857	7	10000	2	1	0	2	0
162	858	7	10000	2	1	0	2	0
167	859	7	10000	2	1	0	2	0
168	860	7	10000	2	1	0	2	0
164	861	7	10000	2	1	0	2	0
161	862	7	10000	2	1	0	2	0
160	863	7	10000	2	1	0	2	0
154	864	7	10000	2	1	0	2	0
151	865	7	10000	2	1	0	2	0
154	866	7	10000	2	1	0	2	0
152	867	7	10000	2	1	0	2	0
154	868	7	10000	2	1	0	2	0
159	869	7	10000	2	1	0	2	0
155	870	7	10000	2	1	0	2	0
170	871	7	10000	2	1	0	2	0
223	872	7	10000	2	1	0	2	0
256	873	7	10000	2	1	0	2	0
257	874	7	10000	2	1	0	2	0
285	875	7	10000	2	1	0	2	0
306	876	7	10000	2	1	0	2	0
312	877	7	10000	2	1	0	2	0
312	878	7	10000	2	1	0	2	0
308	879	7	10000	2	1	0	2	0
295	880	7	10000	2	1	0	2	0
282	881	7	10000	2	1	0	2	0
270	882	7	10000	2	1	0	2	0
265	883	7	10000	2	1	0	2	0
264	884	7	10000	2	1	0	2	0
261	885	7	10000	2	1	0	2	0
257	886	7	10000	2	1	0	2	0
254	887	7	10000	2	1	0	2	0
246	888	7	10000	2	1	0	2	0
246	889	7	10000	2	1	0	2	0
256	890	7	10000	2	1	0	2	0
268	891	7	10000	2	1	0	2	0
270	892	7	10000	2	1	0	2	0
266	893	7	10000	2	1	0	2	0
260	894	7	10000	2	1	0	2	0
255	895	7	10000	2	1	0	2	0
246	896	7	10000	2	1	0	2	0
233	897	7	10000	2	1	0	2	0
221	898	7	10000	2	1	0	2	0
212	899	7	10000	2	1	0	2	0
203	900	7	10000	2	1	0	2	0
195	901	7	10000	2	1	0	2	0
187	902	7	10000	2	1	0	2	0
179	903	7	10000	2	1	0	2	0
173	904	7	10000	2	1	0	2	0
165	905	7	10000	2	1	0	2	0
158	906	7	10000	2	1	0	2	0
153	907	7	10000	2	1	0	2	0
149	908	7	10000	2	1	0	2	0
143	909	7	10000	2	1	0	2	0
139	910	7	10000	2	1	0	2	0
136	911	7	10000	2	1	0	2	0
131	912	7	10000	2	1	0	2	0
127	913	7	10000	2	1	0	2	0
125	914	7	10000	2	1	0	2	0
127	915	7	10000	2	1	0	2	0
127	916	7	10000	2	1	0	2	0
125	917	7	10000	2	1	0	2	0
124	918	7	10000	2	1	0	2	0
123	919	7	10000	2	1	0	2	0
119	920	7	10000	2	1	0	2	0
116	921	7	10000	2	1	0	2	0
116	922	7	10000	2	1	0	2	0
113	923	7	10000	2	1	0	2	0
113	924	7	10000	2	1	0	2	0
114	925	7	10000	2	1	0	2	0
112	926	7	10000	2	1	0	2	0
109	927	7	10000	2	1	0	2	0
110	928	7	10000	2	1	0	2	0
110	929	7	10000	2	1	0	2	0
108	930	7	10000	2	1	0	2	0
106	931	7	10000	2	1	0	2	0
102	932	7	10000	2	1	0	2	0
99	933	7	10000	2	1	0	2	0
94	934	7	10000	2	1	0	2	0
91	935	7	10000	2	1	0	2	0
88	936	7	10000	2	1	0	2	0
85	937	7	10000	2	1	0	2	0
82	938	7	10000	2	1	0	2	0
80	939	7	10000	2	1	0	2	0
79	940	7	10000	2	1	0	2	0
77	941	7	10000	2	1	0	2	0
77	942	7	10000	2	1	0	2	0
80	943	7	10000	2	1	0	2	0
83	944	7	10000	2	1	0	2	0
86	945	7	10000	2	1	0	2	0
88	946	7	10000	2	1	0	2	0
92	947	7	10000	2	1	0	2	0
94	948	7	10000	2	1	0	2	0
92	949	7	10000	2	1	0	2	0
90	950	7	10000	2	1	0	2	0
86	951	7	10000	2	1	0	2	0
84	952	7	10000	2	1	0	2	0
83	953	7	10000	2	1	0	2	0
81	954	7	10000	2	1	0	2	0
77	955	7	10000	2	1	0	2	0
76	956	7	10000	2	1	0	2	0
74	957	7	10000	2	1	0	2	0
74	958	7	10000	2	1	0	2	0
75	959	7	10000	2	1	0	2	0
77	960	7	10000	2	1	0	2	0
77	961	7	10000	2	1	0	2	0
78	962	7	10000	2	1	0	2	0
79	963	7	10000	2	1	0	2	0
81	964	7	10000	2	1	0	2	0
83	965	7	10000	2	1	0	2	0
84	966	7	10000	2	1	0	2	0
85	967	7	10000	2	1	0	2	0
87	968	7	10000	2	1	0	2	0
84	969	7	10000	2	1	0	2	0
80	970	7	10000	2	1	0	2	0
77	971	7	10000	2	1	0	2	0
75	972	7	10000	2	1	0	2	0
74	973	7	10000	2	1	0	2	0
72	974	7	10000	2	1	0	2	0
70	975	7	10000	2	1	0	2	0
68	976	7	10000	2	1	0	2	0
65	977	7	10000	2	1	0	2	0
61	978	7	10000	2	1	0	2	0
59	979	7	10000	2	1	0	2	0
57	980	7	10000	2	1	0	2	0
56	981	7	10000	2	1	0	2	0
53	982	7	10000	2	1	0	2	0
51	983	7	10000	2	1	0	2	0
49	984	7	10000	2	1	0	2	0
46	985	7	10000	2	1	0	2	0
44	986	7	10000	2	1	0	2	0
44	987	7	10000	2	1	0	2	0
45	988	7	10000	2	1	0	2	0
43	989	7	10000	2	1	0	2	0
41	990	7	10000	2	1	0	2	0
41	991	7	10000	2	1	0	2	0
42	992	7	10000	2	1	0	2	0
42	993	7	10000	2	1	0	2	0
44	994	7	10000	2	1	0	2	0
46	995	7	10000	2	1	0	2	0
46	996	7	10000	2	1	0	2	0
44	997	7	10000	2	1	0	2	0
41	998	7	10000	2	1	0	2	0
40	999	7	10000	2	1	0	2	0
39	1000	7	10000	2	1	0	2	0
21	2	7	10000	3	1	0	3	0
23	3	7	10000	3	1	0	3	0
22	4	7	10000	3	1	0	3	0
22	5	7	10000	3	1	0	3	0
22	6	7	10000	3	1	0	3	0
25	7	7	10000	3	1	0	3	0
27	8	7	10000	3	1	0	3	0
29	9	7	10000	3	1	0	3	0
31	10	7	10000	3	1	0	3	0
32	11	7	10000	3	1	0	3	0
35	12	7	10000	3	1	0	3	0
35	13	7	10000	3	1	0	3	0
36	14	7	10000	3	1	0	3	0
34	15	7	10000	3	1	0	3	0
33	16	7	10000	3	1	0	3	0
33	17	7	10000	3	1	0	3	0
32	18	7	10000	3	1	0	3	0
31	19	7	10000	3	1	0	3	0
30	20	7	10000	3	1	0	3	0
32	21	7	10000	3	1	0	3	0
31	22	7	10000	3	1	0	3	0
32	23	7	10000	3	1	0	3	0
32	24	7	10000	3	1	0	3	0
33	25	7	10000	3	1	0	3	0
33	26	7	10000	3	1	0	3	0
33	27	7	10000	3	1	0	3	0
33	28	7	10000	3	1	0	3	0
32	29	7	10000	3	1	0	3	0
31	30	7	10000	3	1	0	3	0
28	31	7	10000	3	1	0	3	0
28	32	7	10000	3	1	0	3	0
28	33	7	10000	3	1	0	3	0
28	34	7	10000	3	1	0	3	0
27	35	7	10000	3	1	0	3	0
26	36	7	10000	3	1	0	3	0
25	37	7	10000	3	1	0	3	0
24	38	7	10000	3	1	0	3	0
24	39	7	10000	3	1	0	3	0
24	40	7	10000	3	1	0	3	0
25	41	7	10000	3	1	0	3	0
27	42	7	10000	3	1	0	3	0
29	43	7	10000	3	1	0	3	0
31	44	7	10000	3	1	0	3	0
32	45	7	10000	3	1	0	3	0
32	46	7	10000	3	1	0	3	0
33	47	7	10000	3	1	0	3	0
34	48	7	10000	3	1	0	3	0
34	49	7	10000	3	1	0	3	0
34	50	7	10000	3	1	0	3	0
32	51	7	10000	3	1	0	3	0
32	52	7	10000	3	1	0	3	0
34	53	7	10000	3	1	0	3	0
36	54	7	10000	3	1	0	3	0
36	55	7	10000	3	1	0	3	0
35	56	7	10000	3	1	0	3	0
33	57	7	10000	3	1	0	3	0
32	58	7	10000	3	1	0	3	0
31	59	7	10000	3	1	0	3	0
31	60	7	10000	3	1	0	3	0
33	61	7	10000	3	1	0	3	0
32	62	7	10000	3	1	0	3	0
32	63	7	10000	3	1	0	3	0
33	64	7	10000	3	1	0	3	0
33	65	7	10000	3	1	0	3	0
33	66	7	10000	3	1	0	3	0
33	67	7	10000	3	1	0	3	0
32	68	7	10000	3	1	0	3	0
31	69	7	10000	3	1	0	3	0
31	70	7	10000	3	1	0	3	0
31	71	7	10000	3	1	0	3	0
32	72	7	10000	3	1	0	3	0
31	73	7	10000	3	1	0	3	0
31	74	7	10000	3	1	0	3	0
32	75	7	10000	3	1	0	3	0
31	76	7	10000	3	1	0	3	0
31	77	7	10000	3	1	0	3	0
29	78	7	10000	3	1	0	3	0
27	79	7	10000	3	1	0	3	0
26	80	7	10000	3	1	0	3	0
27	81	7	10000	3	1	0	3	0
26	82	7	10000	3	1	0	3	0
25	83	7	10000	3	1	0	3	0
24	84	7	10000	3	1	0	3	0
24	85	7	10000	3	1	0	3	0
23	86	7	10000	3	1	0	3	0
22	87	7	10000	3	1	0	3	0
22	88	7	10000	3	1	0	3	0
21	89	7	10000	3	1	0	3	0
21	90	7	10000	3	1	0	3	0
19	91	7	10000	3	1	0	3	0
19	92	7	10000	3	1	0	3	0
18	93	7	10000	3	1	0	3	0
18	94	7	10000	3	1	0	3	0
18	95	7	10000	3	1	0	3	0
16	96	7	10000	3	1	0	3	0
17	97	7	10000	3	1	0	3	0
17	98	7	10000	3	1	0	3	0
16	99	7	10000	3	1	0	3	0
16	100	7	10000	3	1	0	3	0
18	101	7	10000	3	1	0	3	0
17	102	7	10000	3	1	0	3	0
15	103	7	10000	3	1	0	3	0
15	104	7	10000	3	1	0	3	0
15	105	7	10000	3	1	0	3	0
15	106	7	10000	3	1	0	3	0
14	107	7	10000	3	1	0	3	0
15	108	7	10000	3	1	0	3	0
15	109	7	10000	3	1	0	3	0
15	110	7	10000	3	1	0	3	0
13	111	7	10000	3	1	0	3	0
13	112	7	10000	3	1	0	3	0
11	113	7	10000	3	1	0	3	0
12	114	7	10000	3	1	0	3	0
12	115	7	10000	3	1	0	3	0
12	116	7	10000	3	1	0	3	0
12	117	7	10000	3	1	0	3	0
13	118	7	10000	3	1	0	3	0
14	119	7	10000	3	1	0	3	0
14	120	7	10000	3	1	0	3	0
15	121	7	10000	3	1	0	3	0
15	122	7	10000	3	1	0	3	0
14	123	7	10000	3	1	0	3	0
14	124	7	10000	3	1	0	3	0
16	125	7	10000	3	1	0	3	0
15	126	7	10000	3	1	0	3	0
15	127	7	10000	3	1	0	3	0
15	128	7	10000	3	1	0	3	0
16	129	7	10000	3	1	0	3	0
16	130	7	10000	3	1	0	3	0
13	131	7	10000	3	1	0	3	0
14	132	7	10000	3	1	0	3	0
13	133	7	10000	3	1	0	3	0
14	134	7	10000	3	1	0	3	0
14	135	7	10000	3	1	0	3	0
14	136	7	10000	3	1	0	3	0
14	137	7	10000	3	1	0	3	0
14	138	7	10000	3	1	0	3	0
15	139	7	10000	3	1	0	3	0
14	140	7	10000	3	1	0	3	0
17	141	7	10000	3	1	0	3	0
17	142	7	10000	3	1	0	3	0
16	143	7	10000	3	1	0	3	0
16	144	7	10000	3	1	0	3	0
16	145	7	10000	3	1	0	3	0
15	146	7	10000	3	1	0	3	0
15	147	7	10000	3	1	0	3	0
17	148	7	10000	3	1	0	3	0
18	149	7	10000	3	1	0	3	0
20	150	7	10000	3	1	0	3	0
20	151	7	10000	3	1	0	3	0
20	152	7	10000	3	1	0	3	0
20	153	7	10000	3	1	0	3	0
20	154	7	10000	3	1	0	3	0
20	155	7	10000	3	1	0	3	0
20	156	7	10000	3	1	0	3	0
20	157	7	10000	3	1	0	3	0
19	158	7	10000	3	1	0	3	0
19	159	7	10000	3	1	0	3	0
18	160	7	10000	3	1	0	3	0
19	161	7	10000	3	1	0	3	0
19	162	7	10000	3	1	0	3	0
18	163	7	10000	3	1	0	3	0
17	164	7	10000	3	1	0	3	0
18	165	7	10000	3	1	0	3	0
18	166	7	10000	3	1	0	3	0
18	167	7	10000	3	1	0	3	0
20	168	7	10000	3	1	0	3	0
19	169	7	10000	3	1	0	3	0
20	170	7	10000	3	1	0	3	0
17	171	7	10000	3	1	0	3	0
16	172	7	10000	3	1	0	3	0
17	173	7	10000	3	1	0	3	0
20	174	7	10000	3	1	0	3	0
21	175	7	10000	3	1	0	3	0
25	176	7	10000	3	1	0	3	0
28	177	7	10000	3	1	0	3	0
32	178	7	10000	3	1	0	3	0
34	179	7	10000	3	1	0	3	0
36	180	7	10000	3	1	0	3	0
41	181	7	10000	3	1	0	3	0
42	182	7	10000	3	1	0	3	0
42	183	7	10000	3	1	0	3	0
40	184	7	10000	3	1	0	3	0
39	185	7	10000	3	1	0	3	0
39	186	7	10000	3	1	0	3	0
40	187	7	10000	3	1	0	3	0
43	188	7	10000	3	1	0	3	0
49	189	7	10000	3	1	0	3	0
56	190	7	10000	3	1	0	3	0
62	191	7	10000	3	1	0	3	0
68	192	7	10000	3	1	0	3	0
75	193	7	10000	3	1	0	3	0
80	194	7	10000	3	1	0	3	0
84	195	7	10000	3	1	0	3	0
88	196	7	10000	3	1	0	3	0
92	197	7	10000	3	1	0	3	0
96	198	7	10000	3	1	0	3	0
99	199	7	10000	3	1	0	3	0
102	200	7	10000	3	1	0	3	0
108	201	7	10000	3	1	0	3	0
110	202	7	10000	3	1	0	3	0
110	203	7	10000	3	1	0	3	0
109	204	7	10000	3	1	0	3	0
108	205	7	10000	3	1	0	3	0
106	206	7	10000	3	1	0	3	0
103	207	7	10000	3	1	0	3	0
100	208	7	10000	3	1	0	3	0
96	209	7	10000	3	1	0	3	0
93	210	7	10000	3	1	0	3	0
86	211	7	10000	3	1	0	3	0
83	212	7	10000	3	1	0	3	0
82	213	7	10000	3	1	0	3	0
81	214	7	10000	3	1	0	3	0
81	215	7	10000	3	1	0	3	0
80	216	7	10000	3	1	0	3	0
79	217	7	10000	3	1	0	3	0
80	218	7	10000	3	1	0	3	0
82	219	7	10000	3	1	0	3	0
83	220	7	10000	3	1	0	3	0
89	221	7	10000	3	1	0	3	0
90	222	7	10000	3	1	0	3	0
92	223	7	10000	3	1	0	3	0
94	224	7	10000	3	1	0	3	0
96	225	7	10000	3	1	0	3	0
96	226	7	10000	3	1	0	3	0
96	227	7	10000	3	1	0	3	0
99	228	7	10000	3	1	0	3	0
101	229	7	10000	3	1	0	3	0
104	230	7	10000	3	1	0	3	0
106	231	7	10000	3	1	0	3	0
111	232	7	10000	3	1	0	3	0
116	233	7	10000	3	1	0	3	0
119	234	7	10000	3	1	0	3	0
122	235	7	10000	3	1	0	3	0
123	236	7	10000	3	1	0	3	0
124	237	7	10000	3	1	0	3	0
123	238	7	10000	3	1	0	3	0
124	239	7	10000	3	1	0	3	0
123	240	7	10000	3	1	0	3	0
124	241	7	10000	3	1	0	3	0
124	242	7	10000	3	1	0	3	0
125	243	7	10000	3	1	0	3	0
124	244	7	10000	3	1	0	3	0
121	245	7	10000	3	1	0	3	0
119	246	7	10000	3	1	0	3	0
116	247	7	10000	3	1	0	3	0
115	248	7	10000	3	1	0	3	0
114	249	7	10000	3	1	0	3	0
113	250	7	10000	3	1	0	3	0
109	251	7	10000	3	1	0	3	0
109	252	7	10000	3	1	0	3	0
109	253	7	10000	3	1	0	3	0
108	254	7	10000	3	1	0	3	0
106	255	7	10000	3	1	0	3	0
104	256	7	10000	3	1	0	3	0
101	257	7	10000	3	1	0	3	0
98	258	7	10000	3	1	0	3	0
96	259	7	10000	3	1	0	3	0
92	260	7	10000	3	1	0	3	0
91	261	7	10000	3	1	0	3	0
88	262	7	10000	3	1	0	3	0
86	263	7	10000	3	1	0	3	0
83	264	7	10000	3	1	0	3	0
80	265	7	10000	3	1	0	3	0
77	266	7	10000	3	1	0	3	0
73	267	7	10000	3	1	0	3	0
71	268	7	10000	3	1	0	3	0
69	269	7	10000	3	1	0	3	0
68	270	7	10000	3	1	0	3	0
66	271	7	10000	3	1	0	3	0
65	272	7	10000	3	1	0	3	0
63	273	7	10000	3	1	0	3	0
61	274	7	10000	3	1	0	3	0
59	275	7	10000	3	1	0	3	0
58	276	7	10000	3	1	0	3	0
57	277	7	10000	3	1	0	3	0
56	278	7	10000	3	1	0	3	0
57	279	7	10000	3	1	0	3	0
56	280	7	10000	3	1	0	3	0
56	281	7	10000	3	1	0	3	0
54	282	7	10000	3	1	0	3	0
52	283	7	10000	3	1	0	3	0
49	284	7	10000	3	1	0	3	0
47	285	7	10000	3	1	0	3	0
45	286	7	10000	3	1	0	3	0
44	287	7	10000	3	1	0	3	0
44	288	7	10000	3	1	0	3	0
43	289	7	10000	3	1	0	3	0
43	290	7	10000	3	1	0	3	0
39	291	7	10000	3	1	0	3	0
37	292	7	10000	3	1	0	3	0
36	293	7	10000	3	1	0	3	0
35	294	7	10000	3	1	0	3	0
33	295	7	10000	3	1	0	3	0
33	296	7	10000	3	1	0	3	0
32	297	7	10000	3	1	0	3	0
30	298	7	10000	3	1	0	3	0
29	299	7	10000	3	1	0	3	0
27	300	7	10000	3	1	0	3	0
29	301	7	10000	3	1	0	3	0
28	302	7	10000	3	1	0	3	0
28	303	7	10000	3	1	0	3	0
28	304	7	10000	3	1	0	3	0
27	305	7	10000	3	1	0	3	0
26	306	7	10000	3	1	0	3	0
25	307	7	10000	3	1	0	3	0
26	308	7	10000	3	1	0	3	0
24	309	7	10000	3	1	0	3	0
24	310	7	10000	3	1	0	3	0
21	311	7	10000	3	1	0	3	0
21	312	7	10000	3	1	0	3	0
21	313	7	10000	3	1	0	3	0
20	314	7	10000	3	1	0	3	0
20	315	7	10000	3	1	0	3	0
19	316	7	10000	3	1	0	3	0
19	317	7	10000	3	1	0	3	0
19	318	7	10000	3	1	0	3	0
19	319	7	10000	3	1	0	3	0
17	320	7	10000	3	1	0	3	0
19	321	7	10000	3	1	0	3	0
19	322	7	10000	3	1	0	3	0
20	323	7	10000	3	1	0	3	0
22	324	7	10000	3	1	0	3	0
22	325	7	10000	3	1	0	3	0
21	326	7	10000	3	1	0	3	0
20	327	7	10000	3	1	0	3	0
21	328	7	10000	3	1	0	3	0
21	329	7	10000	3	1	0	3	0
21	330	7	10000	3	1	0	3	0
18	331	7	10000	3	1	0	3	0
17	332	7	10000	3	1	0	3	0
17	333	7	10000	3	1	0	3	0
18	334	7	10000	3	1	0	3	0
19	335	7	10000	3	1	0	3	0
20	336	7	10000	3	1	0	3	0
20	337	7	10000	3	1	0	3	0
19	338	7	10000	3	1	0	3	0
19	339	7	10000	3	1	0	3	0
18	340	7	10000	3	1	0	3	0
19	341	7	10000	3	1	0	3	0
19	342	7	10000	3	1	0	3	0
18	343	7	10000	3	1	0	3	0
17	344	7	10000	3	1	0	3	0
17	345	7	10000	3	1	0	3	0
18	346	7	10000	3	1	0	3	0
17	347	7	10000	3	1	0	3	0
18	348	7	10000	3	1	0	3	0
18	349	7	10000	3	1	0	3	0
18	350	7	10000	3	1	0	3	0
16	351	7	10000	3	1	0	3	0
17	352	7	10000	3	1	0	3	0
16	353	7	10000	3	1	0	3	0
16	354	7	10000	3	1	0	3	0
16	355	7	10000	3	1	0	3	0
16	356	7	10000	3	1	0	3	0
16	357	7	10000	3	1	0	3	0
15	358	7	10000	3	1	0	3	0
17	359	7	10000	3	1	0	3	0
17	360	7	10000	3	1	0	3	0
20	361	7	10000	3	1	0	3	0
20	362	7	10000	3	1	0	3	0
20	363	7	10000	3	1	0	3	0
20	364	7	10000	3	1	0	3	0
19	365	7	10000	3	1	0	3	0
20	366	7	10000	3	1	0	3	0
20	367	7	10000	3	1	0	3	0
20	368	7	10000	3	1	0	3	0
20	369	7	10000	3	1	0	3	0
20	370	7	10000	3	1	0	3	0
18	371	7	10000	3	1	0	3	0
18	372	7	10000	3	1	0	3	0
18	373	7	10000	3	1	0	3	0
19	374	7	10000	3	1	0	3	0
18	375	7	10000	3	1	0	3	0
19	376	7	10000	3	1	0	3	0
20	377	7	10000	3	1	0	3	0
19	378	7	10000	3	1	0	3	0
19	379	7	10000	3	1	0	3	0
19	380	7	10000	3	1	0	3	0
21	381	7	10000	3	1	0	3	0
21	382	7	10000	3	1	0	3	0
20	383	7	10000	3	1	0	3	0
20	384	7	10000	3	1	0	3	0
19	385	7	10000	3	1	0	3	0
18	386	7	10000	3	1	0	3	0
18	387	7	10000	3	1	0	3	0
20	388	7	10000	3	1	0	3	0
20	389	7	10000	3	1	0	3	0
20	390	7	10000	3	1	0	3	0
18	391	7	10000	3	1	0	3	0
19	392	7	10000	3	1	0	3	0
19	393	7	10000	3	1	0	3	0
20	394	7	10000	3	1	0	3	0
20	395	7	10000	3	1	0	3	0
19	396	7	10000	3	1	0	3	0
18	397	7	10000	3	1	0	3	0
18	398	7	10000	3	1	0	3	0
18	399	7	10000	3	1	0	3	0
19	400	7	10000	3	1	0	3	0
21	401	7	10000	3	1	0	3	0
21	402	7	10000	3	1	0	3	0
20	403	7	10000	3	1	0	3	0
20	404	7	10000	3	1	0	3	0
19	405	7	10000	3	1	0	3	0
20	406	7	10000	3	1	0	3	0
20	407	7	10000	3	1	0	3	0
22	408	7	10000	3	1	0	3	0
22	409	7	10000	3	1	0	3	0
22	410	7	10000	3	1	0	3	0
20	411	7	10000	3	1	0	3	0
21	412	7	10000	3	1	0	3	0
21	413	7	10000	3	1	0	3	0
23	414	7	10000	3	1	0	3	0
23	415	7	10000	3	1	0	3	0
23	416	7	10000	3	1	0	3	0
23	417	7	10000	3	1	0	3	0
23	418	7	10000	3	1	0	3	0
23	419	7	10000	3	1	0	3	0
22	420	7	10000	3	1	0	3	0
25	421	7	10000	3	1	0	3	0
25	422	7	10000	3	1	0	3	0
24	423	7	10000	3	1	0	3	0
23	424	7	10000	3	1	0	3	0
23	425	7	10000	3	1	0	3	0
22	426	7	10000	3	1	0	3	0
21	427	7	10000	3	1	0	3	0
22	428	7	10000	3	1	0	3	0
22	429	7	10000	3	1	0	3	0
23	430	7	10000	3	1	0	3	0
20	431	7	10000	3	1	0	3	0
21	432	7	10000	3	1	0	3	0
20	433	7	10000	3	1	0	3	0
22	434	7	10000	3	1	0	3	0
23	435	7	10000	3	1	0	3	0
22	436	7	10000	3	1	0	3	0
23	437	7	10000	3	1	0	3	0
24	438	7	10000	3	1	0	3	0
26	439	7	10000	3	1	0	3	0
25	440	7	10000	3	1	0	3	0
26	441	7	10000	3	1	0	3	0
26	442	7	10000	3	1	0	3	0
26	443	7	10000	3	1	0	3	0
24	444	7	10000	3	1	0	3	0
24	445	7	10000	3	1	0	3	0
25	446	7	10000	3	1	0	3	0
25	447	7	10000	3	1	0	3	0
27	448	7	10000	3	1	0	3	0
26	449	7	10000	3	1	0	3	0
26	450	7	10000	3	1	0	3	0
24	451	7	10000	3	1	0	3	0
25	452	7	10000	3	1	0	3	0
25	453	7	10000	3	1	0	3	0
24	454	7	10000	3	1	0	3	0
23	455	7	10000	3	1	0	3	0
24	456	7	10000	3	1	0	3	0
24	457	7	10000	3	1	0	3	0
22	458	7	10000	3	1	0	3	0
21	459	7	10000	3	1	0	3	0
20	460	7	10000	3	1	0	3	0
22	461	7	10000	3	1	0	3	0
21	462	7	10000	3	1	0	3	0
20	463	7	10000	3	1	0	3	0
20	464	7	10000	3	1	0	3	0
20	465	7	10000	3	1	0	3	0
19	466	7	10000	3	1	0	3	0
19	467	7	10000	3	1	0	3	0
19	468	7	10000	3	1	0	3	0
18	469	7	10000	3	1	0	3	0
18	470	7	10000	3	1	0	3	0
15	471	7	10000	3	1	0	3	0
16	472	7	10000	3	1	0	3	0
15	473	7	10000	3	1	0	3	0
15	474	7	10000	3	1	0	3	0
16	475	7	10000	3	1	0	3	0
16	476	7	10000	3	1	0	3	0
17	477	7	10000	3	1	0	3	0
18	478	7	10000	3	1	0	3	0
17	479	7	10000	3	1	0	3	0
17	480	7	10000	3	1	0	3	0
18	481	7	10000	3	1	0	3	0
16	482	7	10000	3	1	0	3	0
17	483	7	10000	3	1	0	3	0
16	484	7	10000	3	1	0	3	0
16	485	7	10000	3	1	0	3	0
17	486	7	10000	3	1	0	3	0
17	487	7	10000	3	1	0	3	0
19	488	7	10000	3	1	0	3	0
19	489	7	10000	3	1	0	3	0
20	490	7	10000	3	1	0	3	0
17	491	7	10000	3	1	0	3	0
16	492	7	10000	3	1	0	3	0
17	493	7	10000	3	1	0	3	0
17	494	7	10000	3	1	0	3	0
18	495	7	10000	3	1	0	3	0
18	496	7	10000	3	1	0	3	0
20	497	7	10000	3	1	0	3	0
18	498	7	10000	3	1	0	3	0
17	499	7	10000	3	1	0	3	0
16	500	7	10000	3	1	0	3	0
18	501	7	10000	3	1	0	3	0
17	501	7	10000	3	1	0	3	1
17	502	7	10000	3	1	0	3	1
16	504	7	10000	3	1	0	3	1
16	505	7	10000	3	1	0	3	1
16	506	7	10000	3	1	0	3	1
15	507	7	10000	3	1	0	3	1
16	508	7	10000	3	1	0	3	1
16	509	7	10000	3	1	0	3	1
17	510	7	10000	3	1	0	3	1
15	511	7	10000	3	1	0	3	1
16	512	7	10000	3	1	0	3	1
16	513	7	10000	3	1	0	3	1
16	514	7	10000	3	1	0	3	1
16	515	7	10000	3	1	0	3	1
16	516	7	10000	3	1	0	3	1
16	517	7	10000	3	1	0	3	1
16	518	7	10000	3	1	0	3	1
15	519	7	10000	3	1	0	3	1
17	520	7	10000	3	1	0	3	1
21	521	7	10000	3	1	0	3	1
22	522	7	10000	3	1	0	3	1
22	523	7	10000	3	1	0	3	1
22	524	7	10000	3	1	0	3	1
23	525	7	10000	3	1	0	3	1
24	526	7	10000	3	1	0	3	1
23	527	7	10000	3	1	0	3	1
25	528	7	10000	3	1	0	3	1
26	529	7	10000	3	1	0	3	1
28	530	7	10000	3	1	0	3	1
25	531	7	10000	3	1	0	3	1
27	532	7	10000	3	1	0	3	1
28	533	7	10000	3	1	0	3	1
27	534	7	10000	3	1	0	3	1
25	535	7	10000	3	1	0	3	1
25	536	7	10000	3	1	0	3	1
25	537	7	10000	3	1	0	3	1
24	538	7	10000	3	1	0	3	1
25	539	7	10000	3	1	0	3	1
24	540	7	10000	3	1	0	3	1
26	541	7	10000	3	1	0	3	1
25	542	7	10000	3	1	0	3	1
24	543	7	10000	3	1	0	3	1
25	544	7	10000	3	1	0	3	1
27	545	7	10000	3	1	0	3	1
29	546	7	10000	3	1	0	3	1
30	547	7	10000	3	1	0	3	1
31	548	7	10000	3	1	0	3	1
30	549	7	10000	3	1	0	3	1
30	550	7	10000	3	1	0	3	1
27	551	7	10000	3	1	0	3	1
27	552	7	10000	3	1	0	3	0
26	553	7	10000	3	1	0	3	0
26	554	7	10000	3	1	0	3	0
26	555	7	10000	3	1	0	3	0
26	556	7	10000	3	1	0	3	0
26	557	7	10000	3	1	0	3	0
26	558	7	10000	3	1	0	3	0
26	559	7	10000	3	1	0	3	0
25	560	7	10000	3	1	0	3	0
27	561	7	10000	3	1	0	3	0
27	562	7	10000	3	1	0	3	0
27	563	7	10000	3	1	0	3	0
26	564	7	10000	3	1	0	3	0
25	565	7	10000	3	1	0	3	0
27	566	7	10000	3	1	0	3	0
28	567	7	10000	3	1	0	3	0
28	568	7	10000	3	1	0	3	0
28	569	7	10000	3	1	0	3	0
28	570	7	10000	3	1	0	3	0
24	571	7	10000	3	1	0	3	0
24	572	7	10000	3	1	0	3	0
24	573	7	10000	3	1	0	3	0
24	574	7	10000	3	1	0	3	0
23	575	7	10000	3	1	0	3	0
21	576	7	10000	3	1	0	3	0
22	577	7	10000	3	1	0	3	0
21	578	7	10000	3	1	0	3	0
20	579	7	10000	3	1	0	3	0
20	580	7	10000	3	1	0	3	0
21	581	7	10000	3	1	0	3	0
22	582	7	10000	3	1	0	3	0
24	583	7	10000	3	1	0	3	0
25	584	7	10000	3	1	0	3	0
24	585	7	10000	3	1	0	3	0
26	586	7	10000	3	1	0	3	0
32	587	7	10000	3	1	0	3	0
39	588	7	10000	3	1	0	3	0
45	589	7	10000	3	1	0	3	0
47	590	7	10000	3	1	0	3	0
48	591	7	10000	3	1	0	3	0
55	592	7	10000	3	1	0	3	0
77	593	7	10000	3	1	0	3	0
112	594	7	10000	3	1	0	3	0
116	595	7	10000	3	1	0	3	0
118	596	7	10000	3	1	0	3	0
199	597	7	10000	3	1	0	3	0
319	598	7	10000	3	1	0	3	0
380	599	7	10000	3	1	0	3	0
409	600	7	10000	3	1	0	3	0
418	601	7	10000	3	1	0	3	0
411	602	7	10000	3	1	0	3	0
428	603	7	10000	3	1	0	3	0
475	604	7	10000	3	1	0	3	0
483	605	7	10000	3	1	0	3	0
562	606	7	10000	3	1	0	3	0
646	607	7	10000	3	1	0	3	0
658	608	7	10000	3	1	0	3	0
773	609	7	10000	3	1	0	3	0
852	610	7	10000	3	1	0	3	0
853	611	7	10000	3	1	0	3	0
858	612	7	10000	3	1	0	3	0
872	613	7	10000	3	1	0	3	0
875	614	7	10000	3	1	0	3	0
837	615	7	10000	3	1	0	3	0
809	616	7	10000	3	1	0	3	0
799	617	7	10000	3	1	0	3	0
793	618	7	10000	3	1	0	3	0
786	619	7	10000	3	1	0	3	0
811	620	7	10000	3	1	0	3	0
810	621	7	10000	3	1	0	3	0
796	622	7	10000	3	1	0	3	0
829	623	7	10000	3	1	0	3	0
816	624	7	10000	3	1	0	3	0
820	625	7	10000	3	1	0	3	0
816	626	7	10000	3	1	0	3	0
879	627	7	10000	3	1	0	3	0
938	628	7	10000	3	1	0	3	0
936	629	7	10000	3	1	0	3	0
906	630	7	10000	3	1	0	3	0
907	631	7	10000	3	1	0	3	0
931	632	7	10000	3	1	0	3	0
965	633	7	10000	3	1	0	3	0
1003	634	7	10000	3	1	0	3	0
1044	635	7	10000	3	1	0	3	0
1083	636	7	10000	3	1	0	3	0
1123	637	7	10000	3	1	0	3	0
1159	638	7	10000	3	1	0	3	0
1193	639	7	10000	3	1	0	3	0
1224	640	7	10000	3	1	0	3	0
1258	641	7	10000	3	1	0	3	0
1287	642	7	10000	3	1	0	3	0
1318	643	7	10000	3	1	0	3	0
1347	644	7	10000	3	1	0	3	0
1364	645	7	10000	3	1	0	3	0
1373	646	7	10000	3	1	0	3	0
1380	647	7	10000	3	1	0	3	0
1388	648	7	10000	3	1	0	3	0
1377	649	7	10000	3	1	0	3	0
1352	650	7	10000	3	1	0	3	0
1370	651	7	10000	3	1	0	3	0
1361	652	7	10000	3	1	0	3	0
1320	653	7	10000	3	1	0	3	0
1305	654	7	10000	3	1	0	3	0
1278	655	7	10000	3	1	0	3	0
1242	656	7	10000	3	1	0	3	0
1210	657	7	10000	3	1	0	3	0
1182	658	7	10000	3	1	0	3	0
1156	659	7	10000	3	1	0	3	0
1130	660	7	10000	3	1	0	3	0
1107	661	7	10000	3	1	0	3	0
1082	662	7	10000	3	1	0	3	0
1060	663	7	10000	3	1	0	3	0
1038	664	7	10000	3	1	0	3	0
1015	665	7	10000	3	1	0	3	0
994	666	7	10000	3	1	0	3	0
973	667	7	10000	3	1	0	3	0
953	668	7	10000	3	1	0	3	0
934	669	7	10000	3	1	0	3	0
920	670	7	10000	3	1	0	3	0
907	671	7	10000	3	1	0	3	0
898	672	7	10000	3	1	0	3	0
893	673	7	10000	3	1	0	3	0
891	674	7	10000	3	1	0	3	0
894	675	7	10000	3	1	0	3	0
899	676	7	10000	3	1	0	3	0
904	677	7	10000	3	1	0	3	0
911	678	7	10000	3	1	0	3	0
918	679	7	10000	3	1	0	3	0
921	680	7	10000	3	1	0	3	0
923	681	7	10000	3	1	0	3	0
928	682	7	10000	3	1	0	3	0
934	683	7	10000	3	1	0	3	0
942	684	7	10000	3	1	0	3	0
946	685	7	10000	3	1	0	3	0
947	686	7	10000	3	1	0	3	0
947	687	7	10000	3	1	0	3	0
948	688	7	10000	3	1	0	3	0
944	689	7	10000	3	1	0	3	0
941	690	7	10000	3	1	0	3	0
935	691	7	10000	3	1	0	3	0
930	692	7	10000	3	1	0	3	0
925	693	7	10000	3	1	0	3	0
920	694	7	10000	3	1	0	3	0
916	695	7	10000	3	1	0	3	0
916	696	7	10000	3	1	0	3	0
919	697	7	10000	3	1	0	3	0
919	698	7	10000	3	1	0	3	0
915	699	7	10000	3	1	0	3	0
909	700	7	10000	3	1	0	3	0
901	701	7	10000	3	1	0	3	0
889	702	7	10000	3	1	0	3	0
876	703	7	10000	3	1	0	3	0
864	704	7	10000	3	1	0	3	0
851	705	7	10000	3	1	0	3	0
837	706	7	10000	3	1	0	3	0
820	707	7	10000	3	1	0	3	0
802	708	7	10000	3	1	0	3	0
781	709	7	10000	3	1	0	3	0
759	710	7	10000	3	1	0	3	0
733	711	7	10000	3	1	0	3	0
707	712	7	10000	3	1	0	3	0
682	713	7	10000	3	1	0	3	0
660	714	7	10000	3	1	0	3	0
638	715	7	10000	3	1	0	3	0
618	716	7	10000	3	1	0	3	0
598	717	7	10000	3	1	0	3	0
580	718	7	10000	3	1	0	3	0
562	719	7	10000	3	1	0	3	0
544	720	7	10000	3	1	0	3	0
525	721	7	10000	3	1	0	3	0
502	722	7	10000	3	1	0	3	0
478	723	7	10000	3	1	0	3	0
458	724	7	10000	3	1	0	3	0
441	725	7	10000	3	1	0	3	0
426	726	7	10000	3	1	0	3	0
413	727	7	10000	3	1	0	3	0
401	728	7	10000	3	1	0	3	0
391	729	7	10000	3	1	0	3	0
382	730	7	10000	3	1	0	3	0
371	731	7	10000	3	1	0	3	0
364	732	7	10000	3	1	0	3	0
358	733	7	10000	3	1	0	3	0
350	734	7	10000	3	1	0	3	0
341	735	7	10000	3	1	0	3	0
328	736	7	10000	3	1	0	3	0
313	737	7	10000	3	1	0	3	0
302	738	7	10000	3	1	0	3	0
296	739	7	10000	3	1	0	3	0
290	740	7	10000	3	1	0	3	0
285	741	7	10000	3	1	0	3	0
279	742	7	10000	3	1	0	3	0
272	743	7	10000	3	1	0	3	0
266	744	7	10000	3	1	0	3	0
262	745	7	10000	3	1	0	3	0
260	746	7	10000	3	1	0	3	0
258	747	7	10000	3	1	0	3	0
258	748	7	10000	3	1	0	3	0
257	749	7	10000	3	1	0	3	0
257	750	7	10000	3	1	0	3	0
257	751	7	10000	3	1	0	3	0
256	752	7	10000	3	1	0	3	0
254	753	7	10000	3	1	0	3	0
253	764	7	10000	3	1	0	3	0
251	765	7	10000	3	1	0	3	0
246	766	7	10000	3	1	0	3	0
240	767	7	10000	3	1	0	3	0
232	768	7	10000	3	1	0	3	0
224	769	7	10000	3	1	0	3	0
217	770	7	10000	3	1	0	3	0
211	771	7	10000	3	1	0	3	0
205	772	7	10000	3	1	0	3	0
199	773	7	10000	3	1	0	3	0
195	774	7	10000	3	1	0	3	0
193	775	7	10000	3	1	0	3	0
192	772	7	10000	3	1	0	3	0
194	773	7	10000	3	1	0	3	0
197	774	7	10000	3	1	0	3	0
201	775	7	10000	3	1	0	3	0
202	776	7	10000	3	1	0	3	0
200	777	7	10000	3	1	0	3	0
199	778	7	10000	3	1	0	3	0
197	779	7	10000	3	1	0	3	0
193	783	7	10000	3	1	0	3	0
189	784	7	10000	3	1	0	3	0
185	785	7	10000	3	1	0	3	0
182	786	7	10000	3	1	0	3	0
177	787	7	10000	3	1	0	3	0
174	788	7	10000	3	1	0	3	0
168	789	7	10000	3	1	0	3	0
164	790	7	10000	3	1	0	3	0
156	791	7	10000	3	1	0	3	0
151	792	7	10000	3	1	0	3	0
149	789	7	10000	3	1	0	3	0
148	790	7	10000	3	1	0	3	0
150	791	7	10000	3	1	0	3	0
152	792	7	10000	3	1	0	3	0
153	793	7	10000	3	1	0	3	0
153	794	7	10000	3	1	0	3	0
151	793	7	10000	3	1	0	3	0
148	794	7	10000	3	1	0	3	0
147	795	7	10000	3	1	0	3	0
145	796	7	10000	3	1	0	3	0
144	800	7	10000	3	1	0	3	0
142	801	7	10000	3	1	0	3	0
138	802	7	10000	3	1	0	3	0
132	803	7	10000	3	1	0	3	0
128	804	7	10000	3	1	0	3	0
125	805	7	10000	3	1	0	3	0
121	806	7	10000	3	1	0	3	0
117	807	7	10000	3	1	0	3	0
114	804	7	10000	3	1	0	3	0
109	805	7	10000	3	1	0	3	0
107	806	7	10000	3	1	0	3	0
106	807	7	10000	3	1	0	3	0
104	810	7	10000	3	1	0	3	0
102	811	7	10000	3	1	0	3	0
100	812	7	10000	3	1	0	3	0
100	813	7	10000	3	1	0	3	0
102	814	7	10000	3	1	0	3	0
102	815	7	10000	3	1	0	3	0
103	816	7	10000	3	1	0	3	0
104	817	7	10000	3	1	0	3	0
103	818	7	10000	3	1	0	3	0
100	819	7	10000	3	1	0	3	0
96	820	7	10000	3	1	0	3	0
94	821	7	10000	3	1	0	3	0
93	821	7	10000	3	1	0	3	0
91	822	7	10000	3	1	0	3	0
91	823	7	10000	3	1	0	3	0
90	824	7	10000	3	1	0	3	0
86	827	7	10000	3	1	0	3	0
83	828	7	10000	3	1	0	3	0
80	829	7	10000	3	1	0	3	0
77	830	7	10000	3	1	0	3	0
75	831	7	10000	3	1	0	3	0
76	832	7	10000	3	1	0	3	0
80	833	7	10000	3	1	0	3	0
82	834	7	10000	3	1	0	3	0
83	832	7	10000	3	1	0	3	0
82	833	7	10000	3	1	0	3	0
80	834	7	10000	3	1	0	3	0
78	835	7	10000	3	1	0	3	0
74	834	7	10000	3	1	0	3	0
72	835	7	10000	3	1	0	3	0
68	836	7	10000	3	1	0	3	0
66	837	7	10000	3	1	0	3	0
64	838	7	10000	3	1	0	3	0
62	839	7	10000	3	1	0	3	0
60	840	7	10000	3	1	0	3	0
60	841	7	10000	3	1	0	3	0
61	842	7	10000	3	1	0	3	0
59	843	7	10000	3	1	0	3	0
57	844	7	10000	3	1	0	3	0
54	845	7	10000	3	1	0	3	0
52	846	7	10000	3	1	0	3	0
53	847	7	10000	3	1	0	3	0
55	848	7	10000	3	1	0	3	0
55	849	7	10000	3	1	0	3	0
55	850	7	10000	3	1	0	3	0
56	851	7	10000	3	1	0	3	0
56	852	7	10000	3	1	0	3	0
56	853	7	10000	3	1	0	3	0
55	854	7	10000	3	1	0	3	0
53	855	7	10000	3	1	0	3	0
51	856	7	10000	3	1	0	3	0
50	857	7	10000	3	1	0	3	0
49	858	7	10000	3	1	0	3	0
49	859	7	10000	3	1	0	3	0
49	860	7	10000	3	1	0	3	0
51	861	7	10000	3	1	0	3	0
50	862	7	10000	3	1	0	3	0
48	863	7	10000	3	1	0	3	0
47	864	7	10000	3	1	0	3	0
45	865	7	10000	3	1	0	3	0
45	866	7	10000	3	1	0	3	0
44	867	7	10000	3	1	0	3	0
46	868	7	10000	3	1	0	3	0
47	869	7	10000	3	1	0	3	0
51	870	7	10000	3	1	0	3	0
52	871	7	10000	3	1	0	3	0
53	872	7	10000	3	1	0	3	0
53	873	7	10000	3	1	0	3	0
51	874	7	10000	3	1	0	3	0
50	875	7	10000	3	1	0	3	0
51	876	7	10000	3	1	0	3	0
51	877	7	10000	3	1	0	3	0
51	878	7	10000	3	1	0	3	0
49	879	7	10000	3	1	0	3	0
48	880	7	10000	3	1	0	3	0
49	881	7	10000	3	1	0	3	0
47	882	7	10000	3	1	0	3	0
44	883	7	10000	3	1	0	3	0
43	884	7	10000	3	1	0	3	0
41	885	7	10000	3	1	0	3	0
39	886	7	10000	3	1	0	3	0
39	887	7	10000	3	1	0	3	0
41	888	7	10000	3	1	0	3	0
44	889	7	10000	3	1	0	3	0
45	890	7	10000	3	1	0	3	0
45	891	7	10000	3	1	0	3	0
45	892	7	10000	3	1	0	3	0
44	893	7	10000	3	1	0	3	0
44	894	7	10000	3	1	0	3	0
44	895	7	10000	3	1	0	3	0
44	896	7	10000	3	1	0	3	0
44	897	7	10000	3	1	0	3	0
44	898	7	10000	3	1	0	3	0
44	899	7	10000	3	1	0	3	0
45	900	7	10000	3	1	0	3	0
45	901	7	10000	3	1	0	3	0
44	902	7	10000	3	1	0	3	0
42	903	7	10000	3	1	0	3	0
41	904	7	10000	3	1	0	3	0
41	905	7	10000	3	1	0	3	0
40	906	7	10000	3	1	0	3	0
40	907	7	10000	3	1	0	3	0
41	908	7	10000	3	1	0	3	0
42	909	7	10000	3	1	0	3	0
41	910	7	10000	3	1	0	3	0
39	911	7	10000	3	1	0	3	0
39	912	7	10000	3	1	0	3	0
38	913	7	10000	3	1	0	3	0
37	914	7	10000	3	1	0	3	0
36	915	7	10000	3	1	0	3	0
36	916	7	10000	3	1	0	3	0
35	917	7	10000	3	1	0	3	0
35	918	7	10000	3	1	0	3	0
34	919	7	10000	3	1	0	3	0
34	920	7	10000	3	1	0	3	0
35	921	7	10000	3	1	0	3	0
35	922	7	10000	3	1	0	3	0
34	923	7	10000	3	1	0	3	0
32	924	7	10000	3	1	0	3	0
32	925	7	10000	3	1	0	3	0
32	926	7	10000	3	1	0	3	0
31	927	7	10000	3	1	0	3	0
30	928	7	10000	3	1	0	3	0
31	929	7	10000	3	1	0	3	0
29	930	7	10000	3	1	0	3	0
27	931	7	10000	3	1	0	3	0
27	932	7	10000	3	1	0	3	0
29	933	7	10000	3	1	0	3	0
29	934	7	10000	3	1	0	3	0
30	935	7	10000	3	1	0	3	0
29	936	7	10000	3	1	0	3	0
28	937	7	10000	3	1	0	3	0
26	938	7	10000	3	1	0	3	0
26	939	7	10000	3	1	0	3	0
27	940	7	10000	3	1	0	3	0
28	941	7	10000	3	1	0	3	0
27	942	7	10000	3	1	0	3	0
26	943	7	10000	3	1	0	3	0
25	944	7	10000	3	1	0	3	0
24	945	7	10000	3	1	0	3	0
23	946	7	10000	3	1	0	3	0
23	947	7	10000	3	1	0	3	0
25	948	7	10000	3	1	0	3	0
26	949	7	10000	3	1	0	3	0
29	950	7	10000	3	1	0	3	0
29	951	7	10000	3	1	0	3	0
31	952	7	10000	3	1	0	3	0
33	953	7	10000	3	1	0	3	0
35	954	7	10000	3	1	0	3	0
36	955	7	10000	3	1	0	3	0
36	956	7	10000	3	1	0	3	0
35	957	7	10000	3	1	0	3	0
36	958	7	10000	3	1	0	3	0
36	959	7	10000	3	1	0	3	0
37	960	7	10000	3	1	0	3	0
38	961	7	10000	3	1	0	3	0
37	962	7	10000	3	1	0	3	0
37	963	7	10000	3	1	0	3	0
38	964	7	10000	3	1	0	3	0
39	965	7	10000	3	1	0	3	0
40	966	7	10000	3	1	0	3	0
39	967	7	10000	3	1	0	3	0
40	968	7	10000	3	1	0	3	0
43	969	7	10000	3	1	0	3	0
44	970	7	10000	3	1	0	3	0
42	971	7	10000	3	1	0	3	0
42	972	7	10000	3	1	0	3	0
42	973	7	10000	3	1	0	3	0
43	974	7	10000	3	1	0	3	0
43	975	7	10000	3	1	0	3	0
42	976	7	10000	3	1	0	3	0
42	977	7	10000	3	1	0	3	0
40	978	7	10000	3	1	0	3	0
39	979	7	10000	3	1	0	3	0
38	980	7	10000	3	1	0	3	0
40	981	7	10000	3	1	0	3	0
38	982	7	10000	3	1	0	3	0
37	983	7	10000	3	1	0	3	0
36	984	7	10000	3	1	0	3	0
37	985	7	10000	3	1	0	3	0
37	986	7	10000	3	1	0	3	0
35	987	7	10000	3	1	0	3	0
35	988	7	10000	3	1	0	3	0
37	989	7	10000	3	1	0	3	0
38	990	7	10000	3	1	0	3	0
37	991	7	10000	3	1	0	3	0
38	992	7	10000	3	1	0	3	0
37	993	7	10000	3	1	0	3	0
36	994	7	10000	3	1	0	3	0
35	995	7	10000	3	1	0	3	0
34	996	7	10000	3	1	0	3	0
34	997	7	10000	3	1	0	3	0
34	998	7	10000	3	1	0	3	0
33	999	7	10000	3	1	0	3	0
33	1000	7	10000	3	1	0	3	0
34	1001	7	10000	3	1	0	3	0
47	2	0	10000	4	1	0	4	0
44	3	0	10000	4	1	0	4	0
46	4	0	10000	4	1	0	4	0
48	5	0	10000	4	1	0	4	0
50	6	0	10000	4	1	0	4	0
51	7	0	10000	4	1	0	4	0
51	8	0	10000	4	1	0	4	0
51	9	0	10000	4	1	0	4	0
49	10	0	10000	4	1	0	4	0
47	11	0	10000	4	1	0	4	0
47	12	0	10000	4	1	0	4	0
46	13	0	10000	4	1	0	4	0
44	14	0	10000	4	1	0	4	0
42	15	0	10000	4	1	0	4	0
40	16	0	10000	4	1	0	4	0
39	17	0	10000	4	1	0	4	0
38	18	0	10000	4	1	0	4	0
37	19	0	10000	4	1	0	4	0
38	20	0	10000	4	1	0	4	0
38	21	0	10000	4	1	0	4	0
39	22	0	10000	4	1	0	4	0
40	23	0	10000	4	1	0	4	0
43	24	0	10000	4	1	0	4	0
43	25	0	10000	4	1	0	4	0
42	26	0	10000	4	1	0	4	0
41	27	0	10000	4	1	0	4	0
40	28	0	10000	4	1	0	4	0
40	29	0	10000	4	1	0	4	0
40	30	0	10000	4	1	0	4	0
42	31	0	10000	4	1	0	4	0
43	32	0	10000	4	1	0	4	0
44	33	0	10000	4	1	0	4	0
43	34	0	10000	4	1	0	4	0
43	35	0	10000	4	1	0	4	0
44	36	0	10000	4	1	0	4	0
46	37	0	10000	4	1	0	4	0
49	38	0	10000	4	1	0	4	0
50	39	0	10000	4	1	0	4	0
51	40	0	10000	4	1	0	4	0
50	41	0	10000	4	1	0	4	0
48	42	0	10000	4	1	0	4	0
45	43	0	10000	4	1	0	4	0
45	44	0	10000	4	1	0	4	0
44	45	0	10000	4	1	0	4	0
44	46	0	10000	4	1	0	4	0
43	47	0	10000	4	1	0	4	0
44	48	0	10000	4	1	0	4	0
44	49	0	10000	4	1	0	4	0
45	50	0	10000	4	1	0	4	0
46	51	0	10000	4	1	0	4	0
48	52	0	10000	4	1	0	4	0
50	53	0	10000	4	1	0	4	0
49	54	0	10000	4	1	0	4	0
48	55	0	10000	4	1	0	4	0
47	56	0	10000	4	1	0	4	0
45	57	0	10000	4	1	0	4	0
44	58	0	10000	4	1	0	4	0
43	59	0	10000	4	1	0	4	0
44	60	0	10000	4	1	0	4	0
41	61	0	10000	4	1	0	4	0
40	62	0	10000	4	1	0	4	0
38	63	0	10000	4	1	0	4	0
39	64	0	10000	4	1	0	4	0
40	65	0	10000	4	1	0	4	0
39	66	0	10000	4	1	0	4	0
39	67	0	10000	4	1	0	4	0
37	68	0	10000	4	1	0	4	0
37	69	0	10000	4	1	0	4	0
38	70	0	10000	4	1	0	4	0
39	71	0	10000	4	1	0	4	0
39	72	0	10000	4	1	0	4	0
38	73	0	10000	4	1	0	4	0
36	74	0	10000	4	1	0	4	0
34	75	0	10000	4	1	0	4	0
33	76	0	10000	4	1	0	4	0
33	77	0	10000	4	1	0	4	0
34	78	0	10000	4	1	0	4	0
32	79	0	10000	4	1	0	4	0
33	80	0	10000	4	1	0	4	0
33	81	0	10000	4	1	0	4	0
34	82	0	10000	4	1	0	4	0
35	83	0	10000	4	1	0	4	0
38	84	0	10000	4	1	0	4	0
39	85	0	10000	4	1	0	4	0
38	86	0	10000	4	1	0	4	0
38	87	0	10000	4	1	0	4	0
39	88	0	10000	4	1	0	4	0
41	89	0	10000	4	1	0	4	0
43	90	0	10000	4	1	0	4	0
44	91	0	10000	4	1	0	4	0
47	92	0	10000	4	1	0	4	0
49	93	0	10000	4	1	0	4	0
49	94	0	10000	4	1	0	4	0
48	95	0	10000	4	1	0	4	0
47	96	0	10000	4	1	0	4	0
45	97	0	10000	4	1	0	4	0
43	98	0	10000	4	1	0	4	0
43	99	0	10000	4	1	0	4	0
43	100	0	10000	4	1	0	4	0
43	101	0	10000	4	1	0	4	0
42	102	0	10000	4	1	0	4	0
42	103	0	10000	4	1	0	4	0
45	104	0	10000	4	1	0	4	0
47	105	0	10000	4	1	0	4	0
47	106	0	10000	4	1	0	4	0
47	107	0	10000	4	1	0	4	0
45	108	0	10000	4	1	0	4	0
44	109	0	10000	4	1	0	4	0
43	110	0	10000	4	1	0	4	0
43	111	0	10000	4	1	0	4	0
42	112	0	10000	4	1	0	4	0
42	113	0	10000	4	1	0	4	0
39	114	0	10000	4	1	0	4	0
37	115	0	10000	4	1	0	4	0
36	116	0	10000	4	1	0	4	0
34	117	0	10000	4	1	0	4	0
35	118	0	10000	4	1	0	4	0
33	119	0	10000	4	1	0	4	0
34	120	0	10000	4	1	0	4	0
32	121	0	10000	4	1	0	4	0
32	122	0	10000	4	1	0	4	0
30	123	0	10000	4	1	0	4	0
30	124	0	10000	4	1	0	4	0
30	125	0	10000	4	1	0	4	0
28	126	0	10000	4	1	0	4	0
27	127	0	10000	4	1	0	4	0
27	128	0	10000	4	1	0	4	0
28	129	0	10000	4	1	0	4	0
26	130	0	10000	4	1	0	4	0
27	131	0	10000	4	1	0	4	0
28	132	0	10000	4	1	0	4	0
29	133	0	10000	4	1	0	4	0
27	134	0	10000	4	1	0	4	0
26	135	0	10000	4	1	0	4	0
26	136	0	10000	4	1	0	4	0
26	137	0	10000	4	1	0	4	0
27	138	0	10000	4	1	0	4	0
29	139	0	10000	4	1	0	4	0
29	140	0	10000	4	1	0	4	0
28	141	0	10000	4	1	0	4	0
27	142	0	10000	4	1	0	4	0
26	143	0	10000	4	1	0	4	0
27	144	0	10000	4	1	0	4	0
28	145	0	10000	4	1	0	4	0
27	146	0	10000	4	1	0	4	0
27	147	0	10000	4	1	0	4	0
25	148	0	10000	4	1	0	4	0
24	149	0	10000	4	1	0	4	0
24	150	0	10000	4	1	0	4	0
25	151	0	10000	4	1	0	4	0
24	152	0	10000	4	1	0	4	0
24	153	0	10000	4	1	0	4	0
22	154	0	10000	4	1	0	4	0
20	155	0	10000	4	1	0	4	0
20	156	0	10000	4	1	0	4	0
20	157	0	10000	4	1	0	4	0
21	158	0	10000	4	1	0	4	0
20	159	0	10000	4	1	0	4	0
21	160	0	10000	4	1	0	4	0
21	161	0	10000	4	1	0	4	0
20	162	0	10000	4	1	0	4	0
19	163	0	10000	4	1	0	4	0
20	164	0	10000	4	1	0	4	0
20	165	0	10000	4	1	0	4	0
19	166	0	10000	4	1	0	4	0
18	167	0	10000	4	1	0	4	0
17	168	0	10000	4	1	0	4	0
18	169	0	10000	4	1	0	4	0
18	170	0	10000	4	1	0	4	0
19	171	0	10000	4	1	0	4	0
19	172	0	10000	4	1	0	4	0
19	173	0	10000	4	1	0	4	0
18	174	0	10000	4	1	0	4	0
17	175	0	10000	4	1	0	4	0
17	176	0	10000	4	1	0	4	0
17	177	0	10000	4	1	0	4	0
17	178	0	10000	4	1	0	4	0
16	179	0	10000	4	1	0	4	0
17	180	0	10000	4	1	0	4	0
16	181	0	10000	4	1	0	4	0
15	182	0	10000	4	1	0	4	0
14	183	0	10000	4	1	0	4	0
16	184	0	10000	4	1	0	4	0
16	185	0	10000	4	1	0	4	0
15	186	0	10000	4	1	0	4	0
16	187	0	10000	4	1	0	4	0
16	188	0	10000	4	1	0	4	0
16	189	0	10000	4	1	0	4	0
16	190	0	10000	4	1	0	4	0
16	191	0	10000	4	1	0	4	0
17	192	0	10000	4	1	0	4	0
18	193	0	10000	4	1	0	4	0
17	194	0	10000	4	1	0	4	0
16	195	0	10000	4	1	0	4	0
16	196	0	10000	4	1	0	4	0
15	197	0	10000	4	1	0	4	0
15	198	0	10000	4	1	0	4	0
15	199	0	10000	4	1	0	4	0
14	200	0	10000	4	1	0	4	0
13	201	0	10000	4	1	0	4	0
14	202	0	10000	4	1	0	4	0
15	203	0	10000	4	1	0	4	0
17	204	0	10000	4	1	0	4	0
18	205	0	10000	4	1	0	4	0
19	206	0	10000	4	1	0	4	0
20	207	0	10000	4	1	0	4	0
20	208	0	10000	4	1	0	4	0
20	209	0	10000	4	1	0	4	0
20	210	0	10000	4	1	0	4	0
19	211	0	10000	4	1	0	4	0
19	212	0	10000	4	1	0	4	0
20	213	0	10000	4	1	0	4	0
18	214	0	10000	4	1	0	4	0
17	215	0	10000	4	1	0	4	0
17	216	0	10000	4	1	0	4	0
17	217	0	10000	4	1	0	4	0
16	218	0	10000	4	1	0	4	0
16	219	0	10000	4	1	0	4	0
16	220	0	10000	4	1	0	4	0
16	221	0	10000	4	1	0	4	0
16	222	0	10000	4	1	0	4	0
16	223	0	10000	4	1	0	4	0
17	224	0	10000	4	1	0	4	0
17	225	0	10000	4	1	0	4	0
17	226	0	10000	4	1	0	4	0
18	227	0	10000	4	1	0	4	0
18	228	0	10000	4	1	0	4	0
20	229	0	10000	4	1	0	4	0
20	230	0	10000	4	1	0	4	0
20	231	0	10000	4	1	0	4	0
20	232	0	10000	4	1	0	4	0
23	233	0	10000	4	1	0	4	0
22	234	0	10000	4	1	0	4	0
20	235	0	10000	4	1	0	4	0
20	236	0	10000	4	1	0	4	0
20	237	0	10000	4	1	0	4	0
19	238	0	10000	4	1	0	4	0
19	239	0	10000	4	1	0	4	0
20	240	0	10000	4	1	0	4	0
21	241	0	10000	4	1	0	4	0
24	242	0	10000	4	1	0	4	0
26	243	0	10000	4	1	0	4	0
30	244	0	10000	4	1	0	4	0
32	245	0	10000	4	1	0	4	0
32	246	0	10000	4	1	0	4	0
33	247	0	10000	4	1	0	4	0
33	248	0	10000	4	1	0	4	0
35	249	0	10000	4	1	0	4	0
36	250	0	10000	4	1	0	4	0
36	251	0	10000	4	1	0	4	0
36	252	0	10000	4	1	0	4	0
37	253	0	10000	4	1	0	4	0
36	254	0	10000	4	1	0	4	0
34	255	0	10000	4	1	0	4	0
35	256	0	10000	4	1	0	4	0
37	257	0	10000	4	1	0	4	0
41	258	0	10000	4	1	0	4	0
44	259	0	10000	4	1	0	4	0
48	260	0	10000	4	1	0	4	0
52	261	0	10000	4	1	0	4	0
53	262	0	10000	4	1	0	4	0
51	263	0	10000	4	1	0	4	0
51	264	0	10000	4	1	0	4	0
49	265	0	10000	4	1	0	4	0
47	266	0	10000	4	1	0	4	0
45	267	0	10000	4	1	0	4	0
43	268	0	10000	4	1	0	4	0
42	269	0	10000	4	1	0	4	0
40	270	0	10000	4	1	0	4	0
41	271	0	10000	4	1	0	4	0
42	272	0	10000	4	1	0	4	0
44	273	0	10000	4	1	0	4	0
44	274	0	10000	4	1	0	4	0
43	275	0	10000	4	1	0	4	0
41	276	0	10000	4	1	0	4	0
40	277	0	10000	4	1	0	4	0
38	278	0	10000	4	1	0	4	0
37	279	0	10000	4	1	0	4	0
36	280	0	10000	4	1	0	4	0
34	281	0	10000	4	1	0	4	0
33	282	0	10000	4	1	0	4	0
33	283	0	10000	4	1	0	4	0
35	284	0	10000	4	1	0	4	0
37	285	0	10000	4	1	0	4	0
38	286	0	10000	4	1	0	4	0
41	287	0	10000	4	1	0	4	0
43	288	0	10000	4	1	0	4	0
44	289	0	10000	4	1	0	4	0
44	290	0	10000	4	1	0	4	0
43	291	0	10000	4	1	0	4	0
42	292	0	10000	4	1	0	4	0
41	293	0	10000	4	1	0	4	0
38	294	0	10000	4	1	0	4	0
35	295	0	10000	4	1	0	4	0
35	296	0	10000	4	1	0	4	0
34	297	0	10000	4	1	0	4	0
34	298	0	10000	4	1	0	4	0
34	299	0	10000	4	1	0	4	0
35	300	0	10000	4	1	0	4	0
33	301	0	10000	4	1	0	4	0
32	301	0	10000	4	1	0	4	0
31	302	0	10000	4	1	0	4	0
31	304	0	10000	4	1	0	4	0
30	305	0	10000	4	1	0	4	0
29	306	0	10000	4	1	0	4	0
29	307	0	10000	4	1	0	4	0
28	308	0	10000	4	1	0	4	0
28	309	0	10000	4	1	0	4	0
27	310	0	10000	4	1	0	4	0
28	311	0	10000	4	1	0	4	0
28	311	0	10000	4	1	0	4	0
28	312	0	10000	4	1	0	4	0
26	314	0	10000	4	1	0	4	0
24	315	0	10000	4	1	0	4	0
24	316	0	10000	4	1	0	4	0
23	317	0	10000	4	1	0	4	0
24	318	0	10000	4	1	0	4	0
24	319	0	10000	4	1	0	4	0
23	320	0	10000	4	1	0	4	0
22	321	0	10000	4	1	0	4	0
21	321	0	10000	4	1	0	4	0
20	322	0	10000	4	1	0	4	0
22	324	0	10000	4	1	0	4	0
23	325	0	10000	4	1	0	4	0
21	326	0	10000	4	1	0	4	0
20	327	0	10000	4	1	0	4	0
19	328	0	10000	4	1	0	4	0
19	329	0	10000	4	1	0	4	0
19	330	0	10000	4	1	0	4	0
19	331	0	10000	4	1	0	4	0
19	331	0	10000	4	1	0	4	0
19	332	0	10000	4	1	0	4	0
17	334	0	10000	4	1	0	4	0
16	335	0	10000	4	1	0	4	0
16	336	0	10000	4	1	0	4	0
15	337	0	10000	4	1	0	4	0
15	338	0	10000	4	1	0	4	0
14	339	0	10000	4	1	0	4	0
14	340	0	10000	4	1	0	4	0
14	341	0	10000	4	1	0	4	0
13	341	0	10000	4	1	0	4	0
12	342	0	10000	4	1	0	4	0
13	344	0	10000	4	1	0	4	0
13	345	0	10000	4	1	0	4	0
13	346	0	10000	4	1	0	4	0
13	347	0	10000	4	1	0	4	0
12	348	0	10000	4	1	0	4	0
12	349	0	10000	4	1	0	4	0
12	350	0	10000	4	1	0	4	0
13	351	0	10000	4	1	0	4	0
14	351	0	10000	4	1	0	4	0
15	352	0	10000	4	1	0	4	0
14	354	0	10000	4	1	0	4	0
13	355	0	10000	4	1	0	4	0
13	356	0	10000	4	1	0	4	0
13	357	0	10000	4	1	0	4	0
13	358	0	10000	4	1	0	4	0
12	359	0	10000	4	1	0	4	0
13	360	0	10000	4	1	0	4	0
13	361	0	10000	4	1	0	4	0
13	361	0	10000	4	1	0	4	0
14	362	0	10000	4	1	0	4	0
16	364	0	10000	4	1	0	4	0
17	365	0	10000	4	1	0	4	0
16	366	0	10000	4	1	0	4	0
15	367	0	10000	4	1	0	4	0
17	368	0	10000	4	1	0	4	0
19	369	0	10000	4	1	0	4	0
21	370	0	10000	4	1	0	4	0
22	371	0	10000	4	1	0	4	0
22	371	0	10000	4	1	0	4	0
21	372	0	10000	4	1	0	4	0
20	374	0	10000	4	1	0	4	0
22	375	0	10000	4	1	0	4	0
24	376	0	10000	4	1	0	4	0
26	377	0	10000	4	1	0	4	0
25	378	0	10000	4	1	0	4	0
24	379	0	10000	4	1	0	4	0
24	380	0	10000	4	1	0	4	0
23	381	0	10000	4	1	0	4	0
23	381	0	10000	4	1	0	4	0
23	382	0	10000	4	1	0	4	0
23	384	0	10000	4	1	0	4	0
23	385	0	10000	4	1	0	4	0
23	386	0	10000	4	1	0	4	0
22	387	0	10000	4	1	0	4	0
22	388	0	10000	4	1	0	4	0
21	389	0	10000	4	1	0	4	0
21	390	0	10000	4	1	0	4	0
21	391	0	10000	4	1	0	4	0
21	391	0	10000	4	1	0	4	0
21	392	0	10000	4	1	0	4	0
20	394	0	10000	4	1	0	4	0
19	395	0	10000	4	1	0	4	0
19	396	0	10000	4	1	0	4	0
19	397	0	10000	4	1	0	4	0
18	398	0	10000	4	1	0	4	0
18	399	0	10000	4	1	0	4	0
18	400	0	10000	4	1	0	4	0
18	401	0	10000	4	1	0	4	0
17	401	0	10000	4	1	0	4	0
15	402	0	10000	4	1	0	4	0
17	404	0	10000	4	1	0	4	0
18	405	0	10000	4	1	0	4	0
18	406	0	10000	4	1	0	4	0
17	407	0	10000	4	1	0	4	0
17	408	0	10000	4	1	0	4	0
16	409	0	10000	4	1	0	4	0
16	410	0	10000	4	1	0	4	0
16	411	0	10000	4	1	0	4	0
17	411	0	10000	4	1	0	4	0
16	412	0	10000	4	1	0	4	0
14	414	0	10000	4	1	0	4	0
15	415	0	10000	4	1	0	4	0
15	416	0	10000	4	1	0	4	0
15	417	0	10000	4	1	0	4	0
16	418	0	10000	4	1	0	4	0
16	419	0	10000	4	1	0	4	0
17	420	0	10000	4	1	0	4	0
16	421	0	10000	4	1	0	4	0
15	421	0	10000	4	1	0	4	0
15	422	0	10000	4	1	0	4	0
16	424	0	10000	4	1	0	4	0
16	425	0	10000	4	1	0	4	0
18	426	0	10000	4	1	0	4	0
18	427	0	10000	4	1	0	4	0
17	428	0	10000	4	1	0	4	0
17	429	0	10000	4	1	0	4	0
16	430	0	10000	4	1	0	4	0
17	431	0	10000	4	1	0	4	0
17	431	0	10000	4	1	0	4	0
16	432	0	10000	4	1	0	4	0
15	434	0	10000	4	1	0	4	0
14	435	0	10000	4	1	0	4	0
13	436	0	10000	4	1	0	4	0
14	437	0	10000	4	1	0	4	0
14	438	0	10000	4	1	0	4	0
13	439	0	10000	4	1	0	4	0
13	440	0	10000	4	1	0	4	0
13	441	0	10000	4	1	0	4	0
13	441	0	10000	4	1	0	4	0
12	442	0	10000	4	1	0	4	0
13	444	0	10000	4	1	0	4	0
14	445	0	10000	4	1	0	4	0
13	446	0	10000	4	1	0	4	0
12	447	0	10000	4	1	0	4	0
13	448	0	10000	4	1	0	4	0
13	449	0	10000	4	1	0	4	0
13	450	0	10000	4	1	0	4	0
15	451	0	10000	4	1	0	4	0
16	451	0	10000	4	1	0	4	0
16	452	0	10000	4	1	0	4	0
16	454	0	10000	4	1	0	4	0
16	455	0	10000	4	1	0	4	0
16	456	0	10000	4	1	0	4	0
16	457	0	10000	4	1	0	4	0
16	458	0	10000	4	1	0	4	0
16	459	0	10000	4	1	0	4	0
15	460	0	10000	4	1	0	4	0
14	461	0	10000	4	1	0	4	0
14	461	0	10000	4	1	0	4	0
14	462	0	10000	4	1	0	4	0
14	464	0	10000	4	1	0	4	0
15	465	0	10000	4	1	0	4	0
14	466	0	10000	4	1	0	4	0
15	467	0	10000	4	1	0	4	0
15	468	0	10000	4	1	0	4	0
15	469	0	10000	4	1	0	4	0
16	470	0	10000	4	1	0	4	0
16	471	0	10000	4	1	0	4	0
18	471	0	10000	4	1	0	4	0
19	472	0	10000	4	1	0	4	0
18	474	0	10000	4	1	0	4	0
16	475	0	10000	4	1	0	4	0
18	476	0	10000	4	1	0	4	0
19	477	0	10000	4	1	0	4	0
20	478	0	10000	4	1	0	4	0
19	479	0	10000	4	1	0	4	0
20	480	0	10000	4	1	0	4	0
22	481	0	10000	4	1	0	4	0
24	481	0	10000	4	1	0	4	0
26	482	0	10000	4	1	0	4	0
28	484	0	10000	4	1	0	4	0
28	485	0	10000	4	1	0	4	0
28	486	0	10000	4	1	0	4	0
27	487	0	10000	4	1	0	4	0
26	488	0	10000	4	1	0	4	0
25	489	0	10000	4	1	0	4	0
25	490	0	10000	4	1	0	4	0
24	491	0	10000	4	1	0	4	0
25	491	0	10000	4	1	0	4	0
26	492	0	10000	4	1	0	4	0
24	494	0	10000	4	1	0	4	0
25	495	0	10000	4	1	0	4	0
27	496	0	10000	4	1	0	4	0
27	497	0	10000	4	1	0	4	0
27	498	0	10000	4	1	0	4	0
26	499	0	10000	4	1	0	4	0
26	500	0	10000	4	1	0	4	0
24	501	0	10000	4	1	0	4	0
24	501	0	10000	4	1	0	4	1
24	502	0	10000	4	1	0	4	1
26	504	0	10000	4	1	0	4	1
28	505	0	10000	4	1	0	4	1
29	506	0	10000	4	1	0	4	1
30	507	0	10000	4	1	0	4	1
29	508	0	10000	4	1	0	4	1
28	509	0	10000	4	1	0	4	1
28	510	0	10000	4	1	0	4	1
30	511	0	10000	4	1	0	4	1
32	511	0	10000	4	1	0	4	1
32	512	0	10000	4	1	0	4	1
31	514	0	10000	4	1	0	4	1
31	515	0	10000	4	1	0	4	1
34	516	0	10000	4	1	0	4	1
35	517	0	10000	4	1	0	4	1
37	518	0	10000	4	1	0	4	1
36	519	0	10000	4	1	0	4	1
35	520	0	10000	4	1	0	4	1
34	521	0	10000	4	1	0	4	1
33	521	0	10000	4	1	0	4	1
31	522	0	10000	4	1	0	4	1
33	524	0	10000	4	1	0	4	1
34	525	0	10000	4	1	0	4	1
34	526	0	10000	4	1	0	4	1
35	527	0	10000	4	1	0	4	1
35	528	0	10000	4	1	0	4	1
34	529	0	10000	4	1	0	4	1
34	530	0	10000	4	1	0	4	1
35	531	0	10000	4	1	0	4	1
37	531	0	10000	4	1	0	4	1
36	532	0	10000	4	1	0	4	1
34	534	0	10000	4	1	0	4	1
33	535	0	10000	4	1	0	4	1
32	536	0	10000	4	1	0	4	1
33	537	0	10000	4	1	0	4	1
32	538	0	10000	4	1	0	4	1
32	539	0	10000	4	1	0	4	1
31	540	0	10000	4	1	0	4	1
30	541	0	10000	4	1	0	4	1
28	541	0	10000	4	1	0	4	1
29	542	0	10000	4	1	0	4	1
30	544	0	10000	4	1	0	4	1
29	545	0	10000	4	1	0	4	1
27	546	0	10000	4	1	0	4	1
26	547	0	10000	4	1	0	4	1
25	548	0	10000	4	1	0	4	1
25	549	0	10000	4	1	0	4	1
25	550	0	10000	4	1	0	4	1
25	551	0	10000	4	1	0	4	1
25	551	0	10000	4	1	0	4	0
26	552	0	10000	4	1	0	4	0
24	554	0	10000	4	1	0	4	0
25	555	0	10000	4	1	0	4	0
24	556	0	10000	4	1	0	4	0
23	557	0	10000	4	1	0	4	0
23	558	0	10000	4	1	0	4	0
23	559	0	10000	4	1	0	4	0
24	560	0	10000	4	1	0	4	0
25	561	0	10000	4	1	0	4	0
24	561	0	10000	4	1	0	4	0
23	562	0	10000	4	1	0	4	0
24	564	0	10000	4	1	0	4	0
23	565	0	10000	4	1	0	4	0
22	566	0	10000	4	1	0	4	0
21	567	0	10000	4	1	0	4	0
20	568	0	10000	4	1	0	4	0
20	569	0	10000	4	1	0	4	0
20	570	0	10000	4	1	0	4	0
20	571	0	10000	4	1	0	4	0
21	571	0	10000	4	1	0	4	0
20	572	0	10000	4	1	0	4	0
19	574	0	10000	4	1	0	4	0
20	575	0	10000	4	1	0	4	0
21	576	0	10000	4	1	0	4	0
21	577	0	10000	4	1	0	4	0
22	578	0	10000	4	1	0	4	0
21	579	0	10000	4	1	0	4	0
21	580	0	10000	4	1	0	4	0
21	581	0	10000	4	1	0	4	0
20	581	0	10000	4	1	0	4	0
20	582	0	10000	4	1	0	4	0
22	584	0	10000	4	1	0	4	0
24	585	0	10000	4	1	0	4	0
33	586	0	10000	4	1	0	4	0
47	587	0	10000	4	1	0	4	0
60	588	0	10000	4	1	0	4	0
68	589	0	10000	4	1	0	4	0
76	590	0	10000	4	1	0	4	0
92	591	0	10000	4	1	0	4	0
94	591	0	10000	4	1	0	4	0
114	592	0	10000	4	1	0	4	0
141	594	0	10000	4	1	0	4	0
158	595	0	10000	4	1	0	4	0
197	596	0	10000	4	1	0	4	0
235	597	0	10000	4	1	0	4	0
300	598	0	10000	4	1	0	4	0
333	599	0	10000	4	1	0	4	0
332	600	0	10000	4	1	0	4	0
326	601	0	10000	4	1	0	4	0
320	601	0	10000	4	1	0	4	0
311	602	0	10000	4	1	0	4	0
337	604	0	10000	4	1	0	4	0
339	605	0	10000	4	1	0	4	0
368	606	0	10000	4	1	0	4	0
464	607	0	10000	4	1	0	4	0
533	608	0	10000	4	1	0	4	0
531	609	0	10000	4	1	0	4	0
579	610	0	10000	4	1	0	4	0
583	611	0	10000	4	1	0	4	0
639	611	0	10000	4	1	0	4	0
691	612	0	10000	4	1	0	4	0
726	614	0	10000	4	1	0	4	0
740	615	0	10000	4	1	0	4	0
771	616	0	10000	4	1	0	4	0
786	617	0	10000	4	1	0	4	0
794	618	0	10000	4	1	0	4	0
851	619	0	10000	4	1	0	4	0
913	620	0	10000	4	1	0	4	0
898	621	0	10000	4	1	0	4	0
893	621	0	10000	4	1	0	4	0
888	622	0	10000	4	1	0	4	0
905	624	0	10000	4	1	0	4	0
925	625	0	10000	4	1	0	4	0
928	626	0	10000	4	1	0	4	0
897	627	0	10000	4	1	0	4	0
875	628	0	10000	4	1	0	4	0
887	629	0	10000	4	1	0	4	0
923	630	0	10000	4	1	0	4	0
969	631	0	10000	4	1	0	4	0
1019	631	0	10000	4	1	0	4	0
1071	632	0	10000	4	1	0	4	0
1117	634	0	10000	4	1	0	4	0
1161	635	0	10000	4	1	0	4	0
1203	636	0	10000	4	1	0	4	0
1240	637	0	10000	4	1	0	4	0
1269	638	0	10000	4	1	0	4	0
1292	639	0	10000	4	1	0	4	0
1321	640	0	10000	4	1	0	4	0
1359	641	0	10000	4	1	0	4	0
1391	641	0	10000	4	1	0	4	0
1392	642	0	10000	4	1	0	4	0
1339	644	0	10000	4	1	0	4	0
1312	645	0	10000	4	1	0	4	0
1313	646	0	10000	4	1	0	4	0
1345	647	0	10000	4	1	0	4	0
1382	648	0	10000	4	1	0	4	0
1388	649	0	10000	4	1	0	4	0
1341	650	0	10000	4	1	0	4	0
1309	651	0	10000	4	1	0	4	0
1274	651	0	10000	4	1	0	4	0
1237	652	0	10000	4	1	0	4	0
1202	654	0	10000	4	1	0	4	0
1171	655	0	10000	4	1	0	4	0
1140	656	0	10000	4	1	0	4	0
1110	657	0	10000	4	1	0	4	0
1084	658	0	10000	4	1	0	4	0
1056	659	0	10000	4	1	0	4	0
1031	660	0	10000	4	1	0	4	0
1007	661	0	10000	4	1	0	4	0
985	661	0	10000	4	1	0	4	0
965	662	0	10000	4	1	0	4	0
950	664	0	10000	4	1	0	4	0
932	665	0	10000	4	1	0	4	0
911	666	0	10000	4	1	0	4	0
887	667	0	10000	4	1	0	4	0
863	668	0	10000	4	1	0	4	0
845	669	0	10000	4	1	0	4	0
838	670	0	10000	4	1	0	4	0
835	671	0	10000	4	1	0	4	0
832	671	0	10000	4	1	0	4	0
837	672	0	10000	4	1	0	4	0
847	674	0	10000	4	1	0	4	0
860	675	0	10000	4	1	0	4	0
870	676	0	10000	4	1	0	4	0
878	677	0	10000	4	1	0	4	0
886	678	0	10000	4	1	0	4	0
891	679	0	10000	4	1	0	4	0
899	680	0	10000	4	1	0	4	0
912	681	0	10000	4	1	0	4	0
919	681	0	10000	4	1	0	4	0
918	682	0	10000	4	1	0	4	0
909	684	0	10000	4	1	0	4	0
909	685	0	10000	4	1	0	4	0
916	686	0	10000	4	1	0	4	0
926	687	0	10000	4	1	0	4	0
937	688	0	10000	4	1	0	4	0
949	689	0	10000	4	1	0	4	0
959	690	0	10000	4	1	0	4	0
965	691	0	10000	4	1	0	4	0
971	691	0	10000	4	1	0	4	0
966	692	0	10000	4	1	0	4	0
951	694	0	10000	4	1	0	4	0
936	695	0	10000	4	1	0	4	0
924	696	0	10000	4	1	0	4	0
919	697	0	10000	4	1	0	4	0
917	698	0	10000	4	1	0	4	0
912	699	0	10000	4	1	0	4	0
899	700	0	10000	4	1	0	4	0
881	701	0	10000	4	1	0	4	0
865	701	0	10000	4	1	0	4	0
849	702	0	10000	4	1	0	4	0
837	704	0	10000	4	1	0	4	0
823	705	0	10000	4	1	0	4	0
801	706	0	10000	4	1	0	4	0
778	707	0	10000	4	1	0	4	0
757	708	0	10000	4	1	0	4	0
741	709	0	10000	4	1	0	4	0
723	710	0	10000	4	1	0	4	0
703	711	0	10000	4	1	0	4	0
680	711	0	10000	4	1	0	4	0
661	712	0	10000	4	1	0	4	0
642	714	0	10000	4	1	0	4	0
626	715	0	10000	4	1	0	4	0
609	716	0	10000	4	1	0	4	0
590	717	0	10000	4	1	0	4	0
572	718	0	10000	4	1	0	4	0
554	719	0	10000	4	1	0	4	0
539	720	0	10000	4	1	0	4	0
523	721	0	10000	4	1	0	4	0
505	721	0	10000	4	1	0	4	0
486	722	0	10000	4	1	0	4	0
468	724	0	10000	4	1	0	4	0
447	725	0	10000	4	1	0	4	0
428	726	0	10000	4	1	0	4	0
411	727	0	10000	4	1	0	4	0
395	728	0	10000	4	1	0	4	0
380	729	0	10000	4	1	0	4	0
368	730	0	10000	4	1	0	4	0
358	731	0	10000	4	1	0	4	0
345	731	0	10000	4	1	0	4	0
333	732	0	10000	4	1	0	4	0
321	734	0	10000	4	1	0	4	0
312	735	0	10000	4	1	0	4	0
306	736	0	10000	4	1	0	4	0
297	737	0	10000	4	1	0	4	0
287	738	0	10000	4	1	0	4	0
280	739	0	10000	4	1	0	4	0
274	740	0	10000	4	1	0	4	0
268	741	0	10000	4	1	0	4	0
262	741	0	10000	4	1	0	4	0
260	742	0	10000	4	1	0	4	0
261	744	0	10000	4	1	0	4	0
260	745	0	10000	4	1	0	4	0
257	746	0	10000	4	1	0	4	0
255	747	0	10000	4	1	0	4	0
255	748	0	10000	4	1	0	4	0
254	749	0	10000	4	1	0	4	0
252	750	0	10000	4	1	0	4	0
250	751	0	10000	4	1	0	4	0
248	751	0	10000	4	1	0	4	0
244	752	0	10000	4	1	0	4	0
239	754	0	10000	4	1	0	4	0
234	755	0	10000	4	1	0	4	0
229	756	0	10000	4	1	0	4	0
223	757	0	10000	4	1	0	4	0
215	758	0	10000	4	1	0	4	0
207	759	0	10000	4	1	0	4	0
201	760	0	10000	4	1	0	4	0
197	761	0	10000	4	1	0	4	0
195	761	0	10000	4	1	0	4	0
194	762	0	10000	4	1	0	4	0
194	764	0	10000	4	1	0	4	0
195	765	0	10000	4	1	0	4	0
196	766	0	10000	4	1	0	4	0
198	767	0	10000	4	1	0	4	0
198	768	0	10000	4	1	0	4	0
197	769	0	10000	4	1	0	4	0
194	770	0	10000	4	1	0	4	0
193	771	0	10000	4	1	0	4	0
191	771	0	10000	4	1	0	4	0
186	772	0	10000	4	1	0	4	0
179	774	0	10000	4	1	0	4	0
176	775	0	10000	4	1	0	4	0
178	776	0	10000	4	1	0	4	0
176	777	0	10000	4	1	0	4	0
172	778	0	10000	4	1	0	4	0
165	779	0	10000	4	1	0	4	0
158	780	0	10000	4	1	0	4	0
151	781	0	10000	4	1	0	4	0
147	781	0	10000	4	1	0	4	0
143	782	0	10000	4	1	0	4	0
141	784	0	10000	4	1	0	4	0
138	785	0	10000	4	1	0	4	0
136	786	0	10000	4	1	0	4	0
136	787	0	10000	4	1	0	4	0
137	788	0	10000	4	1	0	4	0
143	789	0	10000	4	1	0	4	0
147	790	0	10000	4	1	0	4	0
148	791	0	10000	4	1	0	4	0
150	791	0	10000	4	1	0	4	0
152	792	0	10000	4	1	0	4	0
149	794	0	10000	4	1	0	4	0
143	795	0	10000	4	1	0	4	0
138	796	0	10000	4	1	0	4	0
132	797	0	10000	4	1	0	4	0
128	798	0	10000	4	1	0	4	0
124	799	0	10000	4	1	0	4	0
120	800	0	10000	4	1	0	4	0
117	801	0	10000	4	1	0	4	0
115	801	0	10000	4	1	0	4	0
114	802	0	10000	4	1	0	4	0
115	804	0	10000	4	1	0	4	0
115	805	0	10000	4	1	0	4	0
113	806	0	10000	4	1	0	4	0
112	807	0	10000	4	1	0	4	0
114	808	0	10000	4	1	0	4	0
114	809	0	10000	4	1	0	4	0
114	810	0	10000	4	1	0	4	0
115	811	0	10000	4	1	0	4	0
115	811	0	10000	4	1	0	4	0
115	812	0	10000	4	1	0	4	0
113	814	0	10000	4	1	0	4	0
114	815	0	10000	4	1	0	4	0
115	816	0	10000	4	1	0	4	0
113	817	0	10000	4	1	0	4	0
108	818	0	10000	4	1	0	4	0
104	819	0	10000	4	1	0	4	0
102	820	0	10000	4	1	0	4	0
100	821	0	10000	4	1	0	4	0
97	821	0	10000	4	1	0	4	0
95	822	0	10000	4	1	0	4	0
96	824	0	10000	4	1	0	4	0
93	825	0	10000	4	1	0	4	0
92	826	0	10000	4	1	0	4	0
88	827	0	10000	4	1	0	4	0
84	828	0	10000	4	1	0	4	0
86	829	0	10000	4	1	0	4	0
90	830	0	10000	4	1	0	4	0
92	831	0	10000	4	1	0	4	0
90	831	0	10000	4	1	0	4	0
90	832	0	10000	4	1	0	4	0
85	834	0	10000	4	1	0	4	0
83	835	0	10000	4	1	0	4	0
86	836	0	10000	4	1	0	4	0
92	837	0	10000	4	1	0	4	0
94	838	0	10000	4	1	0	4	0
91	839	0	10000	4	1	0	4	0
88	840	0	10000	4	1	0	4	0
84	841	0	10000	4	1	0	4	0
82	841	0	10000	4	1	0	4	0
80	842	0	10000	4	1	0	4	0
79	844	0	10000	4	1	0	4	0
76	845	0	10000	4	1	0	4	0
74	846	0	10000	4	1	0	4	0
73	847	0	10000	4	1	0	4	0
76	848	0	10000	4	1	0	4	0
78	849	0	10000	4	1	0	4	0
80	850	0	10000	4	1	0	4	0
83	851	0	10000	4	1	0	4	0
85	851	0	10000	4	1	0	4	0
82	852	0	10000	4	1	0	4	0
77	854	0	10000	4	1	0	4	0
74	855	0	10000	4	1	0	4	0
75	856	0	10000	4	1	0	4	0
79	857	0	10000	4	1	0	4	0
80	858	0	10000	4	1	0	4	0
80	859	0	10000	4	1	0	4	0
79	860	0	10000	4	1	0	4	0
77	861	0	10000	4	1	0	4	0
75	861	0	10000	4	1	0	4	0
78	862	0	10000	4	1	0	4	0
80	864	0	10000	4	1	0	4	0
77	865	0	10000	4	1	0	4	0
77	866	0	10000	4	1	0	4	0
75	867	0	10000	4	1	0	4	0
73	868	0	10000	4	1	0	4	0
72	869	0	10000	4	1	0	4	0
72	870	0	10000	4	1	0	4	0
69	871	0	10000	4	1	0	4	0
67	871	0	10000	4	1	0	4	0
67	872	0	10000	4	1	0	4	0
62	874	0	10000	4	1	0	4	0
62	875	0	10000	4	1	0	4	0
65	876	0	10000	4	1	0	4	0
65	877	0	10000	4	1	0	4	0
68	878	0	10000	4	1	0	4	0
67	879	0	10000	4	1	0	4	0
70	880	0	10000	4	1	0	4	0
71	881	0	10000	4	1	0	4	0
68	881	0	10000	4	1	0	4	0
65	882	0	10000	4	1	0	4	0
65	884	0	10000	4	1	0	4	0
63	885	0	10000	4	1	0	4	0
62	886	0	10000	4	1	0	4	0
60	887	0	10000	4	1	0	4	0
58	888	0	10000	4	1	0	4	0
57	889	0	10000	4	1	0	4	0
55	890	0	10000	4	1	0	4	0
54	891	0	10000	4	1	0	4	0
55	891	0	10000	4	1	0	4	0
54	892	0	10000	4	1	0	4	0
50	894	0	10000	4	1	0	4	0
52	895	0	10000	4	1	0	4	0
54	896	0	10000	4	1	0	4	0
52	897	0	10000	4	1	0	4	0
50	898	0	10000	4	1	0	4	0
49	899	0	10000	4	1	0	4	0
49	900	0	10000	4	1	0	4	0
49	901	0	10000	4	1	0	4	0
48	901	0	10000	4	1	0	4	0
47	902	0	10000	4	1	0	4	0
53	904	0	10000	4	1	0	4	0
54	905	0	10000	4	1	0	4	0
56	906	0	10000	4	1	0	4	0
58	907	0	10000	4	1	0	4	0
56	908	0	10000	4	1	0	4	0
55	909	0	10000	4	1	0	4	0
54	910	0	10000	4	1	0	4	0
54	911	0	10000	4	1	0	4	0
58	911	0	10000	4	1	0	4	0
60	912	0	10000	4	1	0	4	0
59	914	0	10000	4	1	0	4	0
65	915	0	10000	4	1	0	4	0
65	916	0	10000	4	1	0	4	0
67	917	0	10000	4	1	0	4	0
68	918	0	10000	4	1	0	4	0
68	919	0	10000	4	1	0	4	0
67	920	0	10000	4	1	0	4	0
69	921	0	10000	4	1	0	4	0
71	921	0	10000	4	1	0	4	0
69	922	0	10000	4	1	0	4	0
70	924	0	10000	4	1	0	4	0
70	925	0	10000	4	1	0	4	0
72	926	0	10000	4	1	0	4	0
72	927	0	10000	4	1	0	4	0
72	928	0	10000	4	1	0	4	0
71	929	0	10000	4	1	0	4	0
69	930	0	10000	4	1	0	4	0
67	931	0	10000	4	1	0	4	0
66	931	0	10000	4	1	0	4	0
63	932	0	10000	4	1	0	4	0
59	934	0	10000	4	1	0	4	0
58	935	0	10000	4	1	0	4	0
59	936	0	10000	4	1	0	4	0
57	937	0	10000	4	1	0	4	0
55	938	0	10000	4	1	0	4	0
55	939	0	10000	4	1	0	4	0
55	940	0	10000	4	1	0	4	0
54	941	0	10000	4	1	0	4	0
56	941	0	10000	4	1	0	4	0
58	942	0	10000	4	1	0	4	0
58	944	0	10000	4	1	0	4	0
55	945	0	10000	4	1	0	4	0
54	946	0	10000	4	1	0	4	0
52	947	0	10000	4	1	0	4	0
49	948	0	10000	4	1	0	4	0
48	949	0	10000	4	1	0	4	0
49	950	0	10000	4	1	0	4	0
51	951	0	10000	4	1	0	4	0
51	951	0	10000	4	1	0	4	0
51	952	0	10000	4	1	0	4	0
49	954	0	10000	4	1	0	4	0
47	955	0	10000	4	1	0	4	0
47	956	0	10000	4	1	0	4	0
53	957	0	10000	4	1	0	4	0
52	958	0	10000	4	1	0	4	0
50	959	0	10000	4	1	0	4	0
49	960	0	10000	4	1	0	4	0
47	961	0	10000	4	1	0	4	0
49	961	0	10000	4	1	0	4	0
49	962	0	10000	4	1	0	4	0
56	964	0	10000	4	1	0	4	0
58	965	0	10000	4	1	0	4	0
59	966	0	10000	4	1	0	4	0
60	967	0	10000	4	1	0	4	0
58	968	0	10000	4	1	0	4	0
55	969	0	10000	4	1	0	4	0
53	970	0	10000	4	1	0	4	0
53	971	0	10000	4	1	0	4	0
55	971	0	10000	4	1	0	4	0
60	972	0	10000	4	1	0	4	0
61	974	0	10000	4	1	0	4	0
60	975	0	10000	4	1	0	4	0
58	976	0	10000	4	1	0	4	0
60	977	0	10000	4	1	0	4	0
59	978	0	10000	4	1	0	4	0
58	979	0	10000	4	1	0	4	0
57	980	0	10000	4	1	0	4	0
55	981	0	10000	4	1	0	4	0
54	981	0	10000	4	1	0	4	0
55	982	0	10000	4	1	0	4	0
59	984	0	10000	4	1	0	4	0
60	985	0	10000	4	1	0	4	0
60	986	0	10000	4	1	0	4	0
61	987	0	10000	4	1	0	4	0
61	988	0	10000	4	1	0	4	0
59	989	0	10000	4	1	0	4	0
57	990	0	10000	4	1	0	4	0
56	991	0	10000	4	1	0	4	0
55	991	0	10000	4	1	0	4	0
55	992	0	10000	4	1	0	4	0
54	994	0	10000	4	1	0	4	0
54	995	0	10000	4	1	0	4	0
54	996	0	10000	4	1	0	4	0
53	997	0	10000	4	1	0	4	0
52	998	0	10000	4	1	0	4	0
50	999	0	10000	4	1	0	4	0
48	1000	0	10000	4	1	0	4	0
46	1001	0	10000	4	1	0	4	0
32	2	0	10000	5	1	0	5	0
32	3	0	10000	5	1	0	5	0
31	4	0	10000	5	1	0	5	0
30	5	0	10000	5	1	0	5	0
28	6	0	10000	5	1	0	5	0
29	7	0	10000	5	1	0	5	0
29	8	0	10000	5	1	0	5	0
27	9	0	10000	5	1	0	5	0
26	10	0	10000	5	1	0	5	0
25	11	0	10000	5	1	0	5	0
24	12	0	10000	5	1	0	5	0
23	13	0	10000	5	1	0	5	0
23	14	0	10000	5	1	0	5	0
24	15	0	10000	5	1	0	5	0
24	16	0	10000	5	1	0	5	0
21	17	0	10000	5	1	0	5	0
21	18	0	10000	5	1	0	5	0
23	19	0	10000	5	1	0	5	0
23	20	0	10000	5	1	0	5	0
24	21	0	10000	5	1	0	5	0
24	22	0	10000	5	1	0	5	0
23	23	0	10000	5	1	0	5	0
22	24	0	10000	5	1	0	5	0
21	25	0	10000	5	1	0	5	0
21	26	0	10000	5	1	0	5	0
23	27	0	10000	5	1	0	5	0
23	28	0	10000	5	1	0	5	0
22	29	0	10000	5	1	0	5	0
23	30	0	10000	5	1	0	5	0
21	31	0	10000	5	1	0	5	0
21	32	0	10000	5	1	0	5	0
22	33	0	10000	5	1	0	5	0
22	34	0	10000	5	1	0	5	0
21	35	0	10000	5	1	0	5	0
21	36	0	10000	5	1	0	5	0
20	37	0	10000	5	1	0	5	0
21	38	0	10000	5	1	0	5	0
20	39	0	10000	5	1	0	5	0
20	40	0	10000	5	1	0	5	0
20	41	0	10000	5	1	0	5	0
20	42	0	10000	5	1	0	5	0
21	43	0	10000	5	1	0	5	0
20	44	0	10000	5	1	0	5	0
20	45	0	10000	5	1	0	5	0
19	46	0	10000	5	1	0	5	0
20	47	0	10000	5	1	0	5	0
20	48	0	10000	5	1	0	5	0
19	49	0	10000	5	1	0	5	0
18	50	0	10000	5	1	0	5	0
17	51	0	10000	5	1	0	5	0
18	52	0	10000	5	1	0	5	0
18	53	0	10000	5	1	0	5	0
19	54	0	10000	5	1	0	5	0
19	55	0	10000	5	1	0	5	0
21	56	0	10000	5	1	0	5	0
21	57	0	10000	5	1	0	5	0
21	58	0	10000	5	1	0	5	0
22	59	0	10000	5	1	0	5	0
21	60	0	10000	5	1	0	5	0
20	61	0	10000	5	1	0	5	0
20	62	0	10000	5	1	0	5	0
20	63	0	10000	5	1	0	5	0
19	64	0	10000	5	1	0	5	0
19	65	0	10000	5	1	0	5	0
18	66	0	10000	5	1	0	5	0
19	67	0	10000	5	1	0	5	0
19	68	0	10000	5	1	0	5	0
18	69	0	10000	5	1	0	5	0
18	70	0	10000	5	1	0	5	0
18	71	0	10000	5	1	0	5	0
17	72	0	10000	5	1	0	5	0
17	73	0	10000	5	1	0	5	0
17	74	0	10000	5	1	0	5	0
17	75	0	10000	5	1	0	5	0
17	76	0	10000	5	1	0	5	0
15	77	0	10000	5	1	0	5	0
14	78	0	10000	5	1	0	5	0
15	79	0	10000	5	1	0	5	0
17	80	0	10000	5	1	0	5	0
19	81	0	10000	5	1	0	5	0
19	82	0	10000	5	1	0	5	0
19	83	0	10000	5	1	0	5	0
18	84	0	10000	5	1	0	5	0
18	85	0	10000	5	1	0	5	0
18	86	0	10000	5	1	0	5	0
20	87	0	10000	5	1	0	5	0
19	88	0	10000	5	1	0	5	0
19	89	0	10000	5	1	0	5	0
20	90	0	10000	5	1	0	5	0
21	91	0	10000	5	1	0	5	0
20	92	0	10000	5	1	0	5	0
20	93	0	10000	5	1	0	5	0
19	94	0	10000	5	1	0	5	0
19	95	0	10000	5	1	0	5	0
21	96	0	10000	5	1	0	5	0
21	97	0	10000	5	1	0	5	0
22	98	0	10000	5	1	0	5	0
22	99	0	10000	5	1	0	5	0
21	100	0	10000	5	1	0	5	0
20	101	0	10000	5	1	0	5	0
19	102	0	10000	5	1	0	5	0
20	103	0	10000	5	1	0	5	0
18	104	0	10000	5	1	0	5	0
18	105	0	10000	5	1	0	5	0
18	106	0	10000	5	1	0	5	0
19	107	0	10000	5	1	0	5	0
18	108	0	10000	5	1	0	5	0
18	109	0	10000	5	1	0	5	0
17	110	0	10000	5	1	0	5	0
17	111	0	10000	5	1	0	5	0
17	112	0	10000	5	1	0	5	0
17	113	0	10000	5	1	0	5	0
19	114	0	10000	5	1	0	5	0
19	115	0	10000	5	1	0	5	0
19	116	0	10000	5	1	0	5	0
17	117	0	10000	5	1	0	5	0
17	118	0	10000	5	1	0	5	0
17	119	0	10000	5	1	0	5	0
16	120	0	10000	5	1	0	5	0
16	121	0	10000	5	1	0	5	0
16	122	0	10000	5	1	0	5	0
16	123	0	10000	5	1	0	5	0
15	124	0	10000	5	1	0	5	0
15	125	0	10000	5	1	0	5	0
15	126	0	10000	5	1	0	5	0
17	127	0	10000	5	1	0	5	0
18	128	0	10000	5	1	0	5	0
18	129	0	10000	5	1	0	5	0
18	130	0	10000	5	1	0	5	0
20	131	0	10000	5	1	0	5	0
20	132	0	10000	5	1	0	5	0
19	133	0	10000	5	1	0	5	0
20	134	0	10000	5	1	0	5	0
20	135	0	10000	5	1	0	5	0
20	136	0	10000	5	1	0	5	0
20	137	0	10000	5	1	0	5	0
19	138	0	10000	5	1	0	5	0
21	139	0	10000	5	1	0	5	0
23	140	0	10000	5	1	0	5	0
23	141	0	10000	5	1	0	5	0
23	142	0	10000	5	1	0	5	0
24	143	0	10000	5	1	0	5	0
22	144	0	10000	5	1	0	5	0
21	145	0	10000	5	1	0	5	0
21	146	0	10000	5	1	0	5	0
24	147	0	10000	5	1	0	5	0
24	148	0	10000	5	1	0	5	0
23	149	0	10000	5	1	0	5	0
22	150	0	10000	5	1	0	5	0
21	151	0	10000	5	1	0	5	0
20	152	0	10000	5	1	0	5	0
20	153	0	10000	5	1	0	5	0
21	154	0	10000	5	1	0	5	0
21	155	0	10000	5	1	0	5	0
22	156	0	10000	5	1	0	5	0
21	157	0	10000	5	1	0	5	0
20	158	0	10000	5	1	0	5	0
21	159	0	10000	5	1	0	5	0
21	160	0	10000	5	1	0	5	0
21	161	0	10000	5	1	0	5	0
21	162	0	10000	5	1	0	5	0
20	163	0	10000	5	1	0	5	0
20	164	0	10000	5	1	0	5	0
20	165	0	10000	5	1	0	5	0
19	166	0	10000	5	1	0	5	0
20	167	0	10000	5	1	0	5	0
20	168	0	10000	5	1	0	5	0
19	169	0	10000	5	1	0	5	0
19	170	0	10000	5	1	0	5	0
18	171	0	10000	5	1	0	5	0
18	172	0	10000	5	1	0	5	0
17	173	0	10000	5	1	0	5	0
18	174	0	10000	5	1	0	5	0
19	175	0	10000	5	1	0	5	0
19	176	0	10000	5	1	0	5	0
16	177	0	10000	5	1	0	5	0
17	178	0	10000	5	1	0	5	0
19	179	0	10000	5	1	0	5	0
20	180	0	10000	5	1	0	5	0
19	181	0	10000	5	1	0	5	0
19	182	0	10000	5	1	0	5	0
21	183	0	10000	5	1	0	5	0
22	184	0	10000	5	1	0	5	0
24	185	0	10000	5	1	0	5	0
26	186	0	10000	5	1	0	5	0
27	187	0	10000	5	1	0	5	0
26	188	0	10000	5	1	0	5	0
26	189	0	10000	5	1	0	5	0
25	190	0	10000	5	1	0	5	0
25	191	0	10000	5	1	0	5	0
25	192	0	10000	5	1	0	5	0
25	193	0	10000	5	1	0	5	0
24	194	0	10000	5	1	0	5	0
23	195	0	10000	5	1	0	5	0
23	196	0	10000	5	1	0	5	0
21	197	0	10000	5	1	0	5	0
21	198	0	10000	5	1	0	5	0
20	199	0	10000	5	1	0	5	0
20	200	0	10000	5	1	0	5	0
20	201	0	10000	5	1	0	5	0
20	202	0	10000	5	1	0	5	0
20	203	0	10000	5	1	0	5	0
20	204	0	10000	5	1	0	5	0
19	205	0	10000	5	1	0	5	0
18	206	0	10000	5	1	0	5	0
19	207	0	10000	5	1	0	5	0
20	208	0	10000	5	1	0	5	0
19	209	0	10000	5	1	0	5	0
18	210	0	10000	5	1	0	5	0
18	211	0	10000	5	1	0	5	0
17	212	0	10000	5	1	0	5	0
16	213	0	10000	5	1	0	5	0
17	214	0	10000	5	1	0	5	0
18	215	0	10000	5	1	0	5	0
17	216	0	10000	5	1	0	5	0
14	217	0	10000	5	1	0	5	0
15	218	0	10000	5	1	0	5	0
17	219	0	10000	5	1	0	5	0
17	220	0	10000	5	1	0	5	0
16	221	0	10000	5	1	0	5	0
16	222	0	10000	5	1	0	5	0
16	223	0	10000	5	1	0	5	0
15	224	0	10000	5	1	0	5	0
15	225	0	10000	5	1	0	5	0
15	226	0	10000	5	1	0	5	0
17	227	0	10000	5	1	0	5	0
17	228	0	10000	5	1	0	5	0
16	229	0	10000	5	1	0	5	0
15	230	0	10000	5	1	0	5	0
15	231	0	10000	5	1	0	5	0
14	232	0	10000	5	1	0	5	0
14	233	0	10000	5	1	0	5	0
14	234	0	10000	5	1	0	5	0
14	235	0	10000	5	1	0	5	0
14	236	0	10000	5	1	0	5	0
13	237	0	10000	5	1	0	5	0
14	238	0	10000	5	1	0	5	0
16	239	0	10000	5	1	0	5	0
16	240	0	10000	5	1	0	5	0
17	241	0	10000	5	1	0	5	0
18	242	0	10000	5	1	0	5	0
19	243	0	10000	5	1	0	5	0
20	244	0	10000	5	1	0	5	0
20	245	0	10000	5	1	0	5	0
20	246	0	10000	5	1	0	5	0
21	247	0	10000	5	1	0	5	0
21	248	0	10000	5	1	0	5	0
20	249	0	10000	5	1	0	5	0
19	250	0	10000	5	1	0	5	0
19	251	0	10000	5	1	0	5	0
19	252	0	10000	5	1	0	5	0
17	253	0	10000	5	1	0	5	0
17	254	0	10000	5	1	0	5	0
18	255	0	10000	5	1	0	5	0
18	256	0	10000	5	1	0	5	0
15	257	0	10000	5	1	0	5	0
14	258	0	10000	5	1	0	5	0
16	259	0	10000	5	1	0	5	0
16	260	0	10000	5	1	0	5	0
16	261	0	10000	5	1	0	5	0
16	262	0	10000	5	1	0	5	0
16	263	0	10000	5	1	0	5	0
15	264	0	10000	5	1	0	5	0
14	265	0	10000	5	1	0	5	0
15	266	0	10000	5	1	0	5	0
16	267	0	10000	5	1	0	5	0
17	268	0	10000	5	1	0	5	0
17	269	0	10000	5	1	0	5	0
18	270	0	10000	5	1	0	5	0
18	271	0	10000	5	1	0	5	0
18	272	0	10000	5	1	0	5	0
17	273	0	10000	5	1	0	5	0
17	274	0	10000	5	1	0	5	0
17	275	0	10000	5	1	0	5	0
17	276	0	10000	5	1	0	5	0
15	277	0	10000	5	1	0	5	0
14	278	0	10000	5	1	0	5	0
14	279	0	10000	5	1	0	5	0
15	280	0	10000	5	1	0	5	0
17	281	0	10000	5	1	0	5	0
17	282	0	10000	5	1	0	5	0
18	283	0	10000	5	1	0	5	0
20	284	0	10000	5	1	0	5	0
19	285	0	10000	5	1	0	5	0
19	286	0	10000	5	1	0	5	0
20	287	0	10000	5	1	0	5	0
20	288	0	10000	5	1	0	5	0
20	289	0	10000	5	1	0	5	0
20	290	0	10000	5	1	0	5	0
18	291	0	10000	5	1	0	5	0
18	292	0	10000	5	1	0	5	0
17	293	0	10000	5	1	0	5	0
19	294	0	10000	5	1	0	5	0
20	295	0	10000	5	1	0	5	0
20	296	0	10000	5	1	0	5	0
18	297	0	10000	5	1	0	5	0
18	298	0	10000	5	1	0	5	0
18	299	0	10000	5	1	0	5	0
18	300	0	10000	5	1	0	5	0
19	301	0	10000	5	1	0	5	0
20	302	0	10000	5	1	0	5	0
22	303	0	10000	5	1	0	5	0
23	304	0	10000	5	1	0	5	0
23	305	0	10000	5	1	0	5	0
23	306	0	10000	5	1	0	5	0
23	307	0	10000	5	1	0	5	0
23	308	0	10000	5	1	0	5	0
23	309	0	10000	5	1	0	5	0
23	310	0	10000	5	1	0	5	0
23	311	0	10000	5	1	0	5	0
22	312	0	10000	5	1	0	5	0
21	313	0	10000	5	1	0	5	0
21	314	0	10000	5	1	0	5	0
21	315	0	10000	5	1	0	5	0
21	316	0	10000	5	1	0	5	0
20	317	0	10000	5	1	0	5	0
20	318	0	10000	5	1	0	5	0
21	319	0	10000	5	1	0	5	0
22	320	0	10000	5	1	0	5	0
24	321	0	10000	5	1	0	5	0
25	322	0	10000	5	1	0	5	0
25	323	0	10000	5	1	0	5	0
24	324	0	10000	5	1	0	5	0
25	325	0	10000	5	1	0	5	0
25	326	0	10000	5	1	0	5	0
26	327	0	10000	5	1	0	5	0
25	328	0	10000	5	1	0	5	0
24	329	0	10000	5	1	0	5	0
24	330	0	10000	5	1	0	5	0
23	331	0	10000	5	1	0	5	0
23	332	0	10000	5	1	0	5	0
23	333	0	10000	5	1	0	5	0
24	334	0	10000	5	1	0	5	0
24	335	0	10000	5	1	0	5	0
24	336	0	10000	5	1	0	5	0
21	337	0	10000	5	1	0	5	0
20	338	0	10000	5	1	0	5	0
20	339	0	10000	5	1	0	5	0
20	340	0	10000	5	1	0	5	0
19	341	0	10000	5	1	0	5	0
18	342	0	10000	5	1	0	5	0
19	343	0	10000	5	1	0	5	0
18	344	0	10000	5	1	0	5	0
17	345	0	10000	5	1	0	5	0
17	346	0	10000	5	1	0	5	0
18	347	0	10000	5	1	0	5	0
19	348	0	10000	5	1	0	5	0
18	349	0	10000	5	1	0	5	0
18	350	0	10000	5	1	0	5	0
17	351	0	10000	5	1	0	5	0
18	352	0	10000	5	1	0	5	0
18	353	0	10000	5	1	0	5	0
18	354	0	10000	5	1	0	5	0
18	355	0	10000	5	1	0	5	0
19	356	0	10000	5	1	0	5	0
17	357	0	10000	5	1	0	5	0
17	358	0	10000	5	1	0	5	0
18	359	0	10000	5	1	0	5	0
18	360	0	10000	5	1	0	5	0
18	361	0	10000	5	1	0	5	0
19	362	0	10000	5	1	0	5	0
19	363	0	10000	5	1	0	5	0
19	364	0	10000	5	1	0	5	0
17	365	0	10000	5	1	0	5	0
16	366	0	10000	5	1	0	5	0
18	367	0	10000	5	1	0	5	0
17	368	0	10000	5	1	0	5	0
17	369	0	10000	5	1	0	5	0
16	370	0	10000	5	1	0	5	0
16	371	0	10000	5	1	0	5	0
16	372	0	10000	5	1	0	5	0
15	373	0	10000	5	1	0	5	0
15	374	0	10000	5	1	0	5	0
16	375	0	10000	5	1	0	5	0
14	376	0	10000	5	1	0	5	0
12	377	0	10000	5	1	0	5	0
12	378	0	10000	5	1	0	5	0
12	379	0	10000	5	1	0	5	0
13	380	0	10000	5	1	0	5	0
13	381	0	10000	5	1	0	5	0
13	382	0	10000	5	1	0	5	0
15	383	0	10000	5	1	0	5	0
16	384	0	10000	5	1	0	5	0
18	385	0	10000	5	1	0	5	0
20	386	0	10000	5	1	0	5	0
21	387	0	10000	5	1	0	5	0
21	388	0	10000	5	1	0	5	0
21	389	0	10000	5	1	0	5	0
21	390	0	10000	5	1	0	5	0
21	391	0	10000	5	1	0	5	0
20	392	0	10000	5	1	0	5	0
20	393	0	10000	5	1	0	5	0
20	394	0	10000	5	1	0	5	0
20	395	0	10000	5	1	0	5	0
21	396	0	10000	5	1	0	5	0
19	397	0	10000	5	1	0	5	0
19	398	0	10000	5	1	0	5	0
20	399	0	10000	5	1	0	5	0
22	400	0	10000	5	1	0	5	0
23	401	0	10000	5	1	0	5	0
23	402	0	10000	5	1	0	5	0
23	403	0	10000	5	1	0	5	0
22	404	0	10000	5	1	0	5	0
21	405	0	10000	5	1	0	5	0
21	406	0	10000	5	1	0	5	0
24	407	0	10000	5	1	0	5	0
24	408	0	10000	5	1	0	5	0
23	409	0	10000	5	1	0	5	0
22	410	0	10000	5	1	0	5	0
21	411	0	10000	5	1	0	5	0
22	412	0	10000	5	1	0	5	0
22	413	0	10000	5	1	0	5	0
21	414	0	10000	5	1	0	5	0
22	415	0	10000	5	1	0	5	0
22	416	0	10000	5	1	0	5	0
19	417	0	10000	5	1	0	5	0
19	418	0	10000	5	1	0	5	0
20	419	0	10000	5	1	0	5	0
20	420	0	10000	5	1	0	5	0
20	421	0	10000	5	1	0	5	0
21	422	0	10000	5	1	0	5	0
22	423	0	10000	5	1	0	5	0
21	424	0	10000	5	1	0	5	0
22	425	0	10000	5	1	0	5	0
23	426	0	10000	5	1	0	5	0
25	427	0	10000	5	1	0	5	0
24	428	0	10000	5	1	0	5	0
23	429	0	10000	5	1	0	5	0
22	430	0	10000	5	1	0	5	0
21	431	0	10000	5	1	0	5	0
20	432	0	10000	5	1	0	5	0
20	433	0	10000	5	1	0	5	0
20	434	0	10000	5	1	0	5	0
20	435	0	10000	5	1	0	5	0
21	436	0	10000	5	1	0	5	0
21	437	0	10000	5	1	0	5	0
22	438	0	10000	5	1	0	5	0
21	439	0	10000	5	1	0	5	0
21	440	0	10000	5	1	0	5	0
22	441	0	10000	5	1	0	5	0
22	442	0	10000	5	1	0	5	0
22	443	0	10000	5	1	0	5	0
21	444	0	10000	5	1	0	5	0
21	445	0	10000	5	1	0	5	0
21	446	0	10000	5	1	0	5	0
23	447	0	10000	5	1	0	5	0
22	448	0	10000	5	1	0	5	0
21	449	0	10000	5	1	0	5	0
20	450	0	10000	5	1	0	5	0
20	451	0	10000	5	1	0	5	0
20	452	0	10000	5	1	0	5	0
19	453	0	10000	5	1	0	5	0
19	454	0	10000	5	1	0	5	0
20	455	0	10000	5	1	0	5	0
20	456	0	10000	5	1	0	5	0
17	457	0	10000	5	1	0	5	0
17	458	0	10000	5	1	0	5	0
17	459	0	10000	5	1	0	5	0
16	460	0	10000	5	1	0	5	0
16	461	0	10000	5	1	0	5	0
16	462	0	10000	5	1	0	5	0
16	463	0	10000	5	1	0	5	0
15	464	0	10000	5	1	0	5	0
16	465	0	10000	5	1	0	5	0
16	466	0	10000	5	1	0	5	0
17	467	0	10000	5	1	0	5	0
17	468	0	10000	5	1	0	5	0
16	469	0	10000	5	1	0	5	0
15	470	0	10000	5	1	0	5	0
16	471	0	10000	5	1	0	5	0
16	472	0	10000	5	1	0	5	0
16	473	0	10000	5	1	0	5	0
16	474	0	10000	5	1	0	5	0
16	475	0	10000	5	1	0	5	0
16	476	0	10000	5	1	0	5	0
14	477	0	10000	5	1	0	5	0
14	478	0	10000	5	1	0	5	0
14	479	0	10000	5	1	0	5	0
14	480	0	10000	5	1	0	5	0
14	481	0	10000	5	1	0	5	0
14	482	0	10000	5	1	0	5	0
15	483	0	10000	5	1	0	5	0
15	484	0	10000	5	1	0	5	0
15	485	0	10000	5	1	0	5	0
15	486	0	10000	5	1	0	5	0
16	487	0	10000	5	1	0	5	0
16	488	0	10000	5	1	0	5	0
16	489	0	10000	5	1	0	5	0
17	490	0	10000	5	1	0	5	0
16	491	0	10000	5	1	0	5	0
16	492	0	10000	5	1	0	5	0
16	493	0	10000	5	1	0	5	0
16	494	0	10000	5	1	0	5	0
16	495	0	10000	5	1	0	5	0
17	496	0	10000	5	1	0	5	0
16	497	0	10000	5	1	0	5	0
17	498	0	10000	5	1	0	5	0
17	499	0	10000	5	1	0	5	0
17	500	0	10000	5	1	0	5	0
17	501	0	10000	5	1	0	5	0
17	502	0	10000	5	1	0	5	1
17	503	0	10000	5	1	0	5	1
16	504	0	10000	5	1	0	5	1
16	505	0	10000	5	1	0	5	1
15	506	0	10000	5	1	0	5	1
17	507	0	10000	5	1	0	5	1
17	508	0	10000	5	1	0	5	1
17	509	0	10000	5	1	0	5	1
17	510	0	10000	5	1	0	5	1
17	511	0	10000	5	1	0	5	1
16	512	0	10000	5	1	0	5	1
17	513	0	10000	5	1	0	5	1
17	514	0	10000	5	1	0	5	1
17	515	0	10000	5	1	0	5	1
18	516	0	10000	5	1	0	5	1
17	517	0	10000	5	1	0	5	1
17	518	0	10000	5	1	0	5	1
17	519	0	10000	5	1	0	5	1
17	520	0	10000	5	1	0	5	1
17	521	0	10000	5	1	0	5	1
17	522	0	10000	5	1	0	5	1
17	523	0	10000	5	1	0	5	1
17	524	0	10000	5	1	0	5	1
16	525	0	10000	5	1	0	5	1
16	526	0	10000	5	1	0	5	1
18	527	0	10000	5	1	0	5	1
18	528	0	10000	5	1	0	5	1
16	529	0	10000	5	1	0	5	1
16	530	0	10000	5	1	0	5	1
17	531	0	10000	5	1	0	5	1
18	532	0	10000	5	1	0	5	1
17	533	0	10000	5	1	0	5	1
18	534	0	10000	5	1	0	5	1
18	535	0	10000	5	1	0	5	1
17	536	0	10000	5	1	0	5	1
15	537	0	10000	5	1	0	5	1
14	538	0	10000	5	1	0	5	1
14	539	0	10000	5	1	0	5	1
14	540	0	10000	5	1	0	5	1
15	541	0	10000	5	1	0	5	1
15	542	0	10000	5	1	0	5	1
15	543	0	10000	5	1	0	5	1
15	544	0	10000	5	1	0	5	1
16	545	0	10000	5	1	0	5	1
16	546	0	10000	5	1	0	5	1
18	547	0	10000	5	1	0	5	1
20	548	0	10000	5	1	0	5	1
22	549	0	10000	5	1	0	5	1
23	550	0	10000	5	1	0	5	1
24	551	0	10000	5	1	0	5	1
23	552	0	10000	5	1	0	5	0
22	553	0	10000	5	1	0	5	0
23	554	0	10000	5	1	0	5	0
22	555	0	10000	5	1	0	5	0
22	556	0	10000	5	1	0	5	0
20	557	0	10000	5	1	0	5	0
20	558	0	10000	5	1	0	5	0
20	559	0	10000	5	1	0	5	0
20	560	0	10000	5	1	0	5	0
19	561	0	10000	5	1	0	5	0
18	562	0	10000	5	1	0	5	0
19	563	0	10000	5	1	0	5	0
18	564	0	10000	5	1	0	5	0
17	565	0	10000	5	1	0	5	0
18	566	0	10000	5	1	0	5	0
19	567	0	10000	5	1	0	5	0
20	568	0	10000	5	1	0	5	0
19	569	0	10000	5	1	0	5	0
19	570	0	10000	5	1	0	5	0
19	571	0	10000	5	1	0	5	0
18	572	0	10000	5	1	0	5	0
18	573	0	10000	5	1	0	5	0
18	574	0	10000	5	1	0	5	0
19	575	0	10000	5	1	0	5	0
20	576	0	10000	5	1	0	5	0
19	577	0	10000	5	1	0	5	0
20	578	0	10000	5	1	0	5	0
21	579	0	10000	5	1	0	5	0
21	580	0	10000	5	1	0	5	0
22	581	0	10000	5	1	0	5	0
25	582	0	10000	5	1	0	5	0
27	583	0	10000	5	1	0	5	0
28	584	0	10000	5	1	0	5	0
44	585	0	10000	5	1	0	5	0
62	586	0	10000	5	1	0	5	0
76	587	0	10000	5	1	0	5	0
80	588	0	10000	5	1	0	5	0
80	589	0	10000	5	1	0	5	0
95	590	0	10000	5	1	0	5	0
107	591	0	10000	5	1	0	5	0
114	592	0	10000	5	1	0	5	0
139	593	0	10000	5	1	0	5	0
163	594	0	10000	5	1	0	5	0
180	595	0	10000	5	1	0	5	0
179	596	0	10000	5	1	0	5	0
184	597	0	10000	5	1	0	5	0
186	598	0	10000	5	1	0	5	0
237	599	0	10000	5	1	0	5	0
281	600	0	10000	5	1	0	5	0
283	601	0	10000	5	1	0	5	0
342	602	0	10000	5	1	0	5	0
430	603	0	10000	5	1	0	5	0
452	604	0	10000	5	1	0	5	0
446	605	0	10000	5	1	0	5	0
447	606	0	10000	5	1	0	5	0
441	607	0	10000	5	1	0	5	0
472	608	0	10000	5	1	0	5	0
506	609	0	10000	5	1	0	5	0
501	610	0	10000	5	1	0	5	0
514	611	0	10000	5	1	0	5	0
500	612	0	10000	5	1	0	5	0
502	613	0	10000	5	1	0	5	0
553	614	0	10000	5	1	0	5	0
563	615	0	10000	5	1	0	5	0
590	616	0	10000	5	1	0	5	0
671	617	0	10000	5	1	0	5	0
740	618	0	10000	5	1	0	5	0
807	619	0	10000	5	1	0	5	0
820	620	0	10000	5	1	0	5	0
844	621	0	10000	5	1	0	5	0
944	622	0	10000	5	1	0	5	0
1025	623	0	10000	5	1	0	5	0
1057	624	0	10000	5	1	0	5	0
1054	625	0	10000	5	1	0	5	0
1018	626	0	10000	5	1	0	5	0
985	627	0	10000	5	1	0	5	0
974	628	0	10000	5	1	0	5	0
978	629	0	10000	5	1	0	5	0
989	630	0	10000	5	1	0	5	0
1005	631	0	10000	5	1	0	5	0
1026	632	0	10000	5	1	0	5	0
1045	633	0	10000	5	1	0	5	0
1060	634	0	10000	5	1	0	5	0
1079	635	0	10000	5	1	0	5	0
1097	636	0	10000	5	1	0	5	0
1114	637	0	10000	5	1	0	5	0
1124	638	0	10000	5	1	0	5	0
1128	639	0	10000	5	1	0	5	0
1132	640	0	10000	5	1	0	5	0
1140	641	0	10000	5	1	0	5	0
1153	642	0	10000	5	1	0	5	0
1164	643	0	10000	5	1	0	5	0
1170	644	0	10000	5	1	0	5	0
1169	645	0	10000	5	1	0	5	0
1153	646	0	10000	5	1	0	5	0
1112	647	0	10000	5	1	0	5	0
1086	648	0	10000	5	1	0	5	0
1063	649	0	10000	5	1	0	5	0
1038	650	0	10000	5	1	0	5	0
1011	651	0	10000	5	1	0	5	0
972	652	0	10000	5	1	0	5	0
929	653	0	10000	5	1	0	5	0
892	654	0	10000	5	1	0	5	0
862	655	0	10000	5	1	0	5	0
839	656	0	10000	5	1	0	5	0
820	657	0	10000	5	1	0	5	0
808	658	0	10000	5	1	0	5	0
793	659	0	10000	5	1	0	5	0
779	660	0	10000	5	1	0	5	0
765	661	0	10000	5	1	0	5	0
754	662	0	10000	5	1	0	5	0
745	663	0	10000	5	1	0	5	0
740	664	0	10000	5	1	0	5	0
737	665	0	10000	5	1	0	5	0
735	666	0	10000	5	1	0	5	0
738	667	0	10000	5	1	0	5	0
739	668	0	10000	5	1	0	5	0
742	669	0	10000	5	1	0	5	0
745	670	0	10000	5	1	0	5	0
750	671	0	10000	5	1	0	5	0
759	672	0	10000	5	1	0	5	0
770	673	0	10000	5	1	0	5	0
783	674	0	10000	5	1	0	5	0
798	675	0	10000	5	1	0	5	0
814	676	0	10000	5	1	0	5	0
827	677	0	10000	5	1	0	5	0
839	678	0	10000	5	1	0	5	0
849	679	0	10000	5	1	0	5	0
855	680	0	10000	5	1	0	5	0
853	681	0	10000	5	1	0	5	0
846	682	0	10000	5	1	0	5	0
835	683	0	10000	5	1	0	5	0
820	684	0	10000	5	1	0	5	0
810	685	0	10000	5	1	0	5	0
807	686	0	10000	5	1	0	5	0
807	687	0	10000	5	1	0	5	0
804	688	0	10000	5	1	0	5	0
799	689	0	10000	5	1	0	5	0
791	690	0	10000	5	1	0	5	0
788	691	0	10000	5	1	0	5	0
783	692	0	10000	5	1	0	5	0
781	693	0	10000	5	1	0	5	0
778	694	0	10000	5	1	0	5	0
773	695	0	10000	5	1	0	5	0
766	696	0	10000	5	1	0	5	0
756	697	0	10000	5	1	0	5	0
744	698	0	10000	5	1	0	5	0
730	699	0	10000	5	1	0	5	0
712	700	0	10000	5	1	0	5	0
694	701	0	10000	5	1	0	5	0
674	702	0	10000	5	1	0	5	0
653	703	0	10000	5	1	0	5	0
629	704	0	10000	5	1	0	5	0
604	705	0	10000	5	1	0	5	0
579	706	0	10000	5	1	0	5	0
556	707	0	10000	5	1	0	5	0
535	708	0	10000	5	1	0	5	0
515	709	0	10000	5	1	0	5	0
497	710	0	10000	5	1	0	5	0
480	711	0	10000	5	1	0	5	0
462	712	0	10000	5	1	0	5	0
447	713	0	10000	5	1	0	5	0
432	714	0	10000	5	1	0	5	0
418	715	0	10000	5	1	0	5	0
404	716	0	10000	5	1	0	5	0
389	717	0	10000	5	1	0	5	0
373	718	0	10000	5	1	0	5	0
357	719	0	10000	5	1	0	5	0
343	720	0	10000	5	1	0	5	0
330	721	0	10000	5	1	0	5	0
321	722	0	10000	5	1	0	5	0
317	723	0	10000	5	1	0	5	0
314	724	0	10000	5	1	0	5	0
310	725	0	10000	5	1	0	5	0
303	726	0	10000	5	1	0	5	0
298	727	0	10000	5	1	0	5	0
290	728	0	10000	5	1	0	5	0
281	729	0	10000	5	1	0	5	0
272	730	0	10000	5	1	0	5	0
263	731	0	10000	5	1	0	5	0
253	732	0	10000	5	1	0	5	0
243	733	0	10000	5	1	0	5	0
234	734	0	10000	5	1	0	5	0
225	735	0	10000	5	1	0	5	0
215	736	0	10000	5	1	0	5	0
204	737	0	10000	5	1	0	5	0
196	738	0	10000	5	1	0	5	0
190	739	0	10000	5	1	0	5	0
189	740	0	10000	5	1	0	5	0
192	741	0	10000	5	1	0	5	0
195	742	0	10000	5	1	0	5	0
198	743	0	10000	5	1	0	5	0
199	744	0	10000	5	1	0	5	0
199	745	0	10000	5	1	0	5	0
200	746	0	10000	5	1	0	5	0
202	747	0	10000	5	1	0	5	0
202	748	0	10000	5	1	0	5	0
201	749	0	10000	5	1	0	5	0
196	750	0	10000	5	1	0	5	0
192	751	0	10000	5	1	0	5	0
186	752	0	10000	5	1	0	5	0
181	753	0	10000	5	1	0	5	0
176	754	0	10000	5	1	0	5	0
170	755	0	10000	5	1	0	5	0
