value	EMG	Stimulus	EMG_sensitivity	Total_Trial_Nr	practise	acq	probe_nr	Startle_Probe
110	2	0	10000	1	1	0	1	0
107	3	0	10000	1	1	0	1	0
112	4	0	10000	1	1	0	1	0
111	5	0	10000	1	1	0	1	0
109	6	0	10000	1	1	0	1	0
109	7	0	10000	1	1	0	1	0
106	8	0	10000	1	1	0	1	0
104	9	0	10000	1	1	0	1	0
104	10	0	10000	1	1	0	1	0
101	11	0	10000	1	1	0	1	0
102	12	0	10000	1	1	0	1	0
106	13	0	10000	1	1	0	1	0
106	14	0	10000	1	1	0	1	0
103	15	0	10000	1	1	0	1	0
102	16	0	10000	1	1	0	1	0
100	17	0	10000	1	1	0	1	0
96	18	0	10000	1	1	0	1	0
100	19	0	10000	1	1	0	1	0
104	20	0	10000	1	1	0	1	0
105	21	0	10000	1	1	0	1	0
107	22	0	10000	1	1	0	1	0
108	23	0	10000	1	1	0	1	0
112	24	0	10000	1	1	0	1	0
114	25	0	10000	1	1	0	1	0
114	26	0	10000	1	1	0	1	0
113	27	0	10000	1	1	0	1	0
108	28	0	10000	1	1	0	1	0
109	29	0	10000	1	1	0	1	0
105	30	0	10000	1	1	0	1	0
101	31	0	10000	1	1	0	1	0
98	32	0	10000	1	1	0	1	0
96	33	0	10000	1	1	0	1	0
97	34	0	10000	1	1	0	1	0
105	35	0	10000	1	1	0	1	0
109	36	0	10000	1	1	0	1	0
110	37	0	10000	1	1	0	1	0
109	38	0	10000	1	1	0	1	0
117	39	0	10000	1	1	0	1	0
126	40	0	10000	1	1	0	1	0
130	41	0	10000	1	1	0	1	0
133	42	0	10000	1	1	0	1	0
130	43	0	10000	1	1	0	1	0
137	44	0	10000	1	1	0	1	0
135	45	0	10000	1	1	0	1	0
132	46	0	10000	1	1	0	1	0
132	47	0	10000	1	1	0	1	0
126	48	0	10000	1	1	0	1	0
121	49	0	10000	1	1	0	1	0
118	50	0	10000	1	1	0	1	0
115	51	0	10000	1	1	0	1	0
114	52	0	10000	1	1	0	1	0
116	53	0	10000	1	1	0	1	0
115	54	0	10000	1	1	0	1	0
119	55	0	10000	1	1	0	1	0
124	56	0	10000	1	1	0	1	0
128	57	0	10000	1	1	0	1	0
128	58	0	10000	1	1	0	1	0
126	59	0	10000	1	1	0	1	0
122	60	0	10000	1	1	0	1	0
121	61	0	10000	1	1	0	1	0
117	62	0	10000	1	1	0	1	0
114	63	0	10000	1	1	0	1	0
121	64	0	10000	1	1	0	1	0
126	65	0	10000	1	1	0	1	0
124	66	0	10000	1	1	0	1	0
120	67	0	10000	1	1	0	1	0
115	68	0	10000	1	1	0	1	0
112	69	0	10000	1	1	0	1	0
110	70	0	10000	1	1	0	1	0
106	71	0	10000	1	1	0	1	0
103	72	0	10000	1	1	0	1	0
101	73	0	10000	1	1	0	1	0
98	74	0	10000	1	1	0	1	0
95	75	0	10000	1	1	0	1	0
95	76	0	10000	1	1	0	1	0
96	77	0	10000	1	1	0	1	0
92	78	0	10000	1	1	0	1	0
97	79	0	10000	1	1	0	1	0
101	80	0	10000	1	1	0	1	0
107	81	0	10000	1	1	0	1	0
114	82	0	10000	1	1	0	1	0
112	83	0	10000	1	1	0	1	0
119	84	0	10000	1	1	0	1	0
122	85	0	10000	1	1	0	1	0
119	86	0	10000	1	1	0	1	0
119	87	0	10000	1	1	0	1	0
115	88	0	10000	1	1	0	1	0
113	89	0	10000	1	1	0	1	0
109	90	0	10000	1	1	0	1	0
105	91	0	10000	1	1	0	1	0
103	92	0	10000	1	1	0	1	0
101	93	0	10000	1	1	0	1	0
102	94	0	10000	1	1	0	1	0
106	95	0	10000	1	1	0	1	0
110	96	0	10000	1	1	0	1	0
112	97	0	10000	1	1	0	1	0
108	98	0	10000	1	1	0	1	0
112	99	0	10000	1	1	0	1	0
110	100	0	10000	1	1	0	1	0
109	101	0	10000	1	1	0	1	0
106	102	0	10000	1	1	0	1	0
105	103	0	10000	1	1	0	1	0
110	104	0	10000	1	1	0	1	0
108	105	0	10000	1	1	0	1	0
106	106	0	10000	1	1	0	1	0
106	107	0	10000	1	1	0	1	0
102	108	0	10000	1	1	0	1	0
99	109	0	10000	1	1	0	1	0
100	110	0	10000	1	1	0	1	0
102	111	0	10000	1	1	0	1	0
102	112	0	10000	1	1	0	1	0
101	113	0	10000	1	1	0	1	0
100	114	0	10000	1	1	0	1	0
102	115	0	10000	1	1	0	1	0
103	116	0	10000	1	1	0	1	0
102	117	0	10000	1	1	0	1	0
102	118	0	10000	1	1	0	1	0
107	119	0	10000	1	1	0	1	0
109	120	0	10000	1	1	0	1	0
113	121	0	10000	1	1	0	1	0
114	122	0	10000	1	1	0	1	0
112	123	0	10000	1	1	0	1	0
116	124	0	10000	1	1	0	1	0
117	125	0	10000	1	1	0	1	0
115	126	0	10000	1	1	0	1	0
114	127	0	10000	1	1	0	1	0
115	128	0	10000	1	1	0	1	0
111	129	0	10000	1	1	0	1	0
109	130	0	10000	1	1	0	1	0
109	131	0	10000	1	1	0	1	0
110	132	0	10000	1	1	0	1	0
107	133	0	10000	1	1	0	1	0
106	134	0	10000	1	1	0	1	0
105	135	0	10000	1	1	0	1	0
104	136	0	10000	1	1	0	1	0
102	137	0	10000	1	1	0	1	0
102	138	0	10000	1	1	0	1	0
107	139	0	10000	1	1	0	1	0
126	140	0	10000	1	1	0	1	0
144	141	0	10000	1	1	0	1	0
159	142	0	10000	1	1	0	1	0
163	143	0	10000	1	1	0	1	0
161	144	0	10000	1	1	0	1	0
159	145	0	10000	1	1	0	1	0
154	146	0	10000	1	1	0	1	0
153	147	0	10000	1	1	0	1	0
148	148	0	10000	1	1	0	1	0
146	149	0	10000	1	1	0	1	0
142	150	0	10000	1	1	0	1	0
137	151	0	10000	1	1	0	1	0
133	152	0	10000	1	1	0	1	0
128	153	0	10000	1	1	0	1	0
127	154	0	10000	1	1	0	1	0
128	155	0	10000	1	1	0	1	0
126	156	0	10000	1	1	0	1	0
130	157	0	10000	1	1	0	1	0
126	158	0	10000	1	1	0	1	0
126	159	0	10000	1	1	0	1	0
125	160	0	10000	1	1	0	1	0
126	161	0	10000	1	1	0	1	0
126	162	0	10000	1	1	0	1	0
126	163	0	10000	1	1	0	1	0
128	164	0	10000	1	1	0	1	0
133	165	0	10000	1	1	0	1	0
136	166	0	10000	1	1	0	1	0
143	167	0	10000	1	1	0	1	0
148	168	0	10000	1	1	0	1	0
148	169	0	10000	1	1	0	1	0
142	170	0	10000	1	1	0	1	0
137	171	0	10000	1	1	0	1	0
133	172	0	10000	1	1	0	1	0
128	173	0	10000	1	1	0	1	0
128	174	0	10000	1	1	0	1	0
131	175	0	10000	1	1	0	1	0
131	176	0	10000	1	1	0	1	0
129	177	0	10000	1	1	0	1	0
131	178	0	10000	1	1	0	1	0
128	179	0	10000	1	1	0	1	0
126	180	0	10000	1	1	0	1	0
125	181	0	10000	1	1	0	1	0
123	182	0	10000	1	1	0	1	0
121	183	0	10000	1	1	0	1	0
138	184	0	10000	1	1	0	1	0
148	185	0	10000	1	1	0	1	0
150	186	0	10000	1	1	0	1	0
147	187	0	10000	1	1	0	1	0
146	188	0	10000	1	1	0	1	0
143	189	0	10000	1	1	0	1	0
143	190	0	10000	1	1	0	1	0
142	191	0	10000	1	1	0	1	0
140	192	0	10000	1	1	0	1	0
136	193	0	10000	1	1	0	1	0
137	194	0	10000	1	1	0	1	0
136	195	0	10000	1	1	0	1	0
140	196	0	10000	1	1	0	1	0
139	197	0	10000	1	1	0	1	0
142	198	0	10000	1	1	0	1	0
152	199	0	10000	1	1	0	1	0
169	200	0	10000	1	1	0	1	0
181	201	0	10000	1	1	0	1	0
188	202	0	10000	1	1	0	1	0
185	203	0	10000	1	1	0	1	0
191	204	0	10000	1	1	0	1	0
199	205	0	10000	1	1	0	1	0
196	206	0	10000	1	1	0	1	0
187	207	0	10000	1	1	0	1	0
183	208	0	10000	1	1	0	1	0
180	209	0	10000	1	1	0	1	0
178	210	0	10000	1	1	0	1	0
179	211	0	10000	1	1	0	1	0
172	212	0	10000	1	1	0	1	0
166	213	0	10000	1	1	0	1	0
163	214	0	10000	1	1	0	1	0
158	215	0	10000	1	1	0	1	0
160	216	0	10000	1	1	0	1	0
158	217	0	10000	1	1	0	1	0
152	218	0	10000	1	1	0	1	0
153	219	0	10000	1	1	0	1	0
152	220	0	10000	1	1	0	1	0
150	221	0	10000	1	1	0	1	0
150	222	0	10000	1	1	0	1	0
147	223	0	10000	1	1	0	1	0
153	224	0	10000	1	1	0	1	0
154	225	0	10000	1	1	0	1	0
152	226	0	10000	1	1	0	1	0
147	227	0	10000	1	1	0	1	0
141	228	0	10000	1	1	0	1	0
136	229	0	10000	1	1	0	1	0
130	230	0	10000	1	1	0	1	0
126	231	0	10000	1	1	0	1	0
121	232	0	10000	1	1	0	1	0
119	233	0	10000	1	1	0	1	0
118	234	0	10000	1	1	0	1	0
118	235	0	10000	1	1	0	1	0
115	236	0	10000	1	1	0	1	0
114	237	0	10000	1	1	0	1	0
111	238	0	10000	1	1	0	1	0
111	239	0	10000	1	1	0	1	0
109	240	0	10000	1	1	0	1	0
112	241	0	10000	1	1	0	1	0
117	242	0	10000	1	1	0	1	0
115	243	0	10000	1	1	0	1	0
120	244	0	10000	1	1	0	1	0
125	245	0	10000	1	1	0	1	0
123	246	0	10000	1	1	0	1	0
126	247	0	10000	1	1	0	1	0
128	248	0	10000	1	1	0	1	0
126	249	0	10000	1	1	0	1	0
127	250	0	10000	1	1	0	1	0
128	251	0	10000	1	1	0	1	0
130	252	0	10000	1	1	0	1	0
134	253	0	10000	1	1	0	1	0
133	254	0	10000	1	1	0	1	0
128	255	0	10000	1	1	0	1	0
124	256	0	10000	1	1	0	1	0
120	257	0	10000	1	1	0	1	0
117	258	0	10000	1	1	0	1	0
121	259	0	10000	1	1	0	1	0
119	260	0	10000	1	1	0	1	0
120	261	0	10000	1	1	0	1	0
120	262	0	10000	1	1	0	1	0
119	263	0	10000	1	1	0	1	0
128	264	0	10000	1	1	0	1	0
131	265	0	10000	1	1	0	1	0
129	266	0	10000	1	1	0	1	0
128	267	0	10000	1	1	0	1	0
123	268	0	10000	1	1	0	1	0
119	269	0	10000	1	1	0	1	0
116	270	0	10000	1	1	0	1	0
112	271	0	10000	1	1	0	1	0
108	272	0	10000	1	1	0	1	0
107	273	0	10000	1	1	0	1	0
104	274	0	10000	1	1	0	1	0
103	275	0	10000	1	1	0	1	0
102	276	0	10000	1	1	0	1	0
101	277	0	10000	1	1	0	1	0
97	278	0	10000	1	1	0	1	0
102	279	0	10000	1	1	0	1	0
102	280	0	10000	1	1	0	1	0
102	281	0	10000	1	1	0	1	0
101	282	0	10000	1	1	0	1	0
99	283	0	10000	1	1	0	1	0
106	284	0	10000	1	1	0	1	0
114	285	0	10000	1	1	0	1	0
117	286	0	10000	1	1	0	1	0
113	287	0	10000	1	1	0	1	0
109	288	0	10000	1	1	0	1	0
109	289	0	10000	1	1	0	1	0
107	290	0	10000	1	1	0	1	0
102	291	0	10000	1	1	0	1	0
100	292	0	10000	1	1	0	1	0
100	293	0	10000	1	1	0	1	0
98	294	0	10000	1	1	0	1	0
100	295	0	10000	1	1	0	1	0
104	296	0	10000	1	1	0	1	0
106	297	0	10000	1	1	0	1	0
103	298	0	10000	1	1	0	1	0
107	299	0	10000	1	1	0	1	0
107	300	0	10000	1	1	0	1	0
107	301	0	10000	1	1	0	1	0
105	302	0	10000	1	1	0	1	0
102	303	0	10000	1	1	0	1	0
110	304	0	10000	1	1	0	1	0
118	305	0	10000	1	1	0	1	0
117	306	0	10000	1	1	0	1	0
114	307	0	10000	1	1	0	1	0
110	308	0	10000	1	1	0	1	0
110	309	0	10000	1	1	0	1	0
107	310	0	10000	1	1	0	1	0
104	311	0	10000	1	1	0	1	0
102	312	0	10000	1	1	0	1	0
102	313	0	10000	1	1	0	1	0
102	314	0	10000	1	1	0	1	0
103	315	0	10000	1	1	0	1	0
101	316	0	10000	1	1	0	1	0
99	317	0	10000	1	1	0	1	0
96	318	0	10000	1	1	0	1	0
101	319	0	10000	1	1	0	1	0
104	320	0	10000	1	1	0	1	0
106	321	0	10000	1	1	0	1	0
110	322	0	10000	1	1	0	1	0
108	323	0	10000	1	1	0	1	0
113	324	0	10000	1	1	0	1	0
116	325	0	10000	1	1	0	1	0
116	326	0	10000	1	1	0	1	0
114	327	0	10000	1	1	0	1	0
113	328	0	10000	1	1	0	1	0
112	329	0	10000	1	1	0	1	0
109	330	0	10000	1	1	0	1	0
106	331	0	10000	1	1	0	1	0
106	332	0	10000	1	1	0	1	0
105	333	0	10000	1	1	0	1	0
104	334	0	10000	1	1	0	1	0
106	335	0	10000	1	1	0	1	0
109	336	0	10000	1	1	0	1	0
109	337	0	10000	1	1	0	1	0
111	338	0	10000	1	1	0	1	0
120	339	0	10000	1	1	0	1	0
121	340	0	10000	1	1	0	1	0
121	341	0	10000	1	1	0	1	0
118	342	0	10000	1	1	0	1	0
118	343	0	10000	1	1	0	1	0
141	344	0	10000	1	1	0	1	0
157	345	0	10000	1	1	0	1	0
162	346	0	10000	1	1	0	1	0
156	347	0	10000	1	1	0	1	0
150	348	0	10000	1	1	0	1	0
153	349	0	10000	1	1	0	1	0
165	350	0	10000	1	1	0	1	0
172	351	0	10000	1	1	0	1	0
178	352	0	10000	1	1	0	1	0
181	353	0	10000	1	1	0	1	0
185	354	0	10000	1	1	0	1	0
191	355	0	10000	1	1	0	1	0
193	356	0	10000	1	1	0	1	0
196	357	0	10000	1	1	0	1	0
194	358	0	10000	1	1	0	1	0
192	359	0	10000	1	1	0	1	0
190	360	0	10000	1	1	0	1	0
193	361	0	10000	1	1	0	1	0
197	362	0	10000	1	1	0	1	0
193	363	0	10000	1	1	0	1	0
188	364	0	10000	1	1	0	1	0
180	365	0	10000	1	1	0	1	0
176	366	0	10000	1	1	0	1	0
181	367	0	10000	1	1	0	1	0
181	368	0	10000	1	1	0	1	0
177	369	0	10000	1	1	0	1	0
176	370	0	10000	1	1	0	1	0
177	371	0	10000	1	1	0	1	0
182	372	0	10000	1	1	0	1	0
181	373	0	10000	1	1	0	1	0
176	374	0	10000	1	1	0	1	0
174	375	0	10000	1	1	0	1	0
170	376	0	10000	1	1	0	1	0
165	377	0	10000	1	1	0	1	0
161	378	0	10000	1	1	0	1	0
160	379	0	10000	1	1	0	1	0
159	380	0	10000	1	1	0	1	0
159	381	0	10000	1	1	0	1	0
158	382	0	10000	1	1	0	1	0
153	383	0	10000	1	1	0	1	0
152	384	0	10000	1	1	0	1	0
149	385	0	10000	1	1	0	1	0
145	386	0	10000	1	1	0	1	0
146	387	0	10000	1	1	0	1	0
142	388	0	10000	1	1	0	1	0
138	389	0	10000	1	1	0	1	0
134	390	0	10000	1	1	0	1	0
134	391	0	10000	1	1	0	1	0
135	392	0	10000	1	1	0	1	0
136	393	0	10000	1	1	0	1	0
134	394	0	10000	1	1	0	1	0
137	395	0	10000	1	1	0	1	0
138	396	0	10000	1	1	0	1	0
140	397	0	10000	1	1	0	1	0
135	398	0	10000	1	1	0	1	0
134	399	0	10000	1	1	0	1	0
136	400	0	10000	1	1	0	1	0
136	401	0	10000	1	1	0	1	0
134	402	0	10000	1	1	0	1	0
130	403	0	10000	1	1	0	1	0
133	404	0	10000	1	1	0	1	0
130	405	0	10000	1	1	0	1	0
127	406	0	10000	1	1	0	1	0
128	407	0	10000	1	1	0	1	0
129	408	0	10000	1	1	0	1	0
127	409	0	10000	1	1	0	1	0
127	410	0	10000	1	1	0	1	0
128	411	0	10000	1	1	0	1	0
129	412	0	10000	1	1	0	1	0
129	413	0	10000	1	1	0	1	0
127	414	0	10000	1	1	0	1	0
131	415	0	10000	1	1	0	1	0
129	416	0	10000	1	1	0	1	0
130	417	0	10000	1	1	0	1	0
125	418	0	10000	1	1	0	1	0
125	419	0	10000	1	1	0	1	0
124	420	0	10000	1	1	0	1	0
123	421	0	10000	1	1	0	1	0
130	422	0	10000	1	1	0	1	0
135	423	0	10000	1	1	0	1	0
131	424	0	10000	1	1	0	1	0
128	425	0	10000	1	1	0	1	0
127	426	0	10000	1	1	0	1	0
130	427	0	10000	1	1	0	1	0
133	428	0	10000	1	1	0	1	0
129	429	0	10000	1	1	0	1	0
127	430	0	10000	1	1	0	1	0
128	431	0	10000	1	1	0	1	0
126	432	0	10000	1	1	0	1	0
124	433	0	10000	1	1	0	1	0
121	434	0	10000	1	1	0	1	0
121	435	0	10000	1	1	0	1	0
118	436	0	10000	1	1	0	1	0
119	437	0	10000	1	1	0	1	0
114	438	0	10000	1	1	0	1	0
114	439	0	10000	1	1	0	1	0
117	440	0	10000	1	1	0	1	0
121	441	0	10000	1	1	0	1	0
122	442	0	10000	1	1	0	1	0
120	443	0	10000	1	1	0	1	0
124	444	0	10000	1	1	0	1	0
124	445	0	10000	1	1	0	1	0
121	446	0	10000	1	1	0	1	0
125	447	0	10000	1	1	0	1	0
126	448	0	10000	1	1	0	1	0
124	449	0	10000	1	1	0	1	0
120	450	0	10000	1	1	0	1	0
116	451	0	10000	1	1	0	1	0
114	452	0	10000	1	1	0	1	0
111	453	0	10000	1	1	0	1	0
109	454	0	10000	1	1	0	1	0
114	455	0	10000	1	1	0	1	0
118	456	0	10000	1	1	0	1	0
122	457	0	10000	1	1	0	1	0
119	458	0	10000	1	1	0	1	0
118	459	0	10000	1	1	0	1	0
118	460	0	10000	1	1	0	1	0
119	461	0	10000	1	1	0	1	0
120	462	0	10000	1	1	0	1	0
116	463	0	10000	1	1	0	1	0
120	464	0	10000	1	1	0	1	0
119	465	0	10000	1	1	0	1	0
116	466	0	10000	1	1	0	1	0
116	467	0	10000	1	1	0	1	0
113	468	0	10000	1	1	0	1	0
109	469	0	10000	1	1	0	1	0
107	470	0	10000	1	1	0	1	0
106	471	0	10000	1	1	0	1	0
107	472	0	10000	1	1	0	1	0
108	473	0	10000	1	1	0	1	0
108	474	0	10000	1	1	0	1	0
110	475	0	10000	1	1	0	1	0
113	476	0	10000	1	1	0	1	0
119	477	0	10000	1	1	0	1	0
115	478	0	10000	1	1	0	1	0
112	479	0	10000	1	1	0	1	0
110	480	0	10000	1	1	0	1	0
109	481	0	10000	1	1	0	1	0
106	482	0	10000	1	1	0	1	0
104	483	0	10000	1	1	0	1	0
109	484	0	10000	1	1	0	1	0
110	485	0	10000	1	1	0	1	0
106	486	0	10000	1	1	0	1	0
105	487	0	10000	1	1	0	1	0
104	488	0	10000	1	1	0	1	0
106	489	0	10000	1	1	0	1	0
104	490	0	10000	1	1	0	1	0
101	491	0	10000	1	1	0	1	0
101	492	0	10000	1	1	0	1	0
99	493	0	10000	1	1	0	1	0
97	494	0	10000	1	1	0	1	0
101	495	0	10000	1	1	0	1	0
107	496	0	10000	1	1	0	1	0
113	497	0	10000	1	1	0	1	0
110	498	0	10000	1	1	0	1	0
118	499	0	10000	1	1	0	1	0
123	500	0	10000	1	1	0	1	0
126	501	0	10000	1	1	0	1	0
129	548	0	10000	1	1	0	1	1
126	549	0	10000	1	1	0	1	1
132	550	0	10000	1	1	0	1	1
130	551	0	10000	1	1	0	1	1
125	552	0	10000	1	1	0	1	1
126	553	0	10000	1	1	0	1	1
125	554	0	10000	1	1	0	1	1
120	555	0	10000	1	1	0	1	1
118	556	0	10000	1	1	0	1	1
117	557	0	10000	1	1	0	1	1
118	558	0	10000	1	1	0	1	1
119	559	0	10000	1	1	0	1	1
116	560	0	10000	1	1	0	1	1
113	561	0	10000	1	1	0	1	1
108	562	0	10000	1	1	0	1	1
104	563	0	10000	1	1	0	1	1
100	564	0	10000	1	1	0	1	1
102	565	0	10000	1	1	0	1	1
104	566	0	10000	1	1	0	1	1
104	567	0	10000	1	1	0	1	1
103	568	0	10000	1	1	0	1	1
101	569	0	10000	1	1	0	1	1
110	570	0	10000	1	1	0	1	1
114	571	0	10000	1	1	0	1	1
112	572	0	10000	1	1	0	1	1
107	573	0	10000	1	1	0	1	1
105	574	0	10000	1	1	0	1	1
102	575	0	10000	1	1	0	1	1
100	576	0	10000	1	1	0	1	1
101	577	0	10000	1	1	0	1	1
100	578	0	10000	1	1	0	1	1
103	579	0	10000	1	1	0	1	1
103	580	0	10000	1	1	0	1	1
104	581	0	10000	1	1	0	1	1
104	582	0	10000	1	1	0	1	1
108	583	0	10000	1	1	0	1	1
105	584	0	10000	1	1	0	1	1
106	585	0	10000	1	1	0	1	1
106	586	0	10000	1	1	0	1	1
107	587	0	10000	1	1	0	1	1
108	588	0	10000	1	1	0	1	1
106	589	0	10000	1	1	0	1	1
114	590	0	10000	1	1	0	1	1
118	591	0	10000	1	1	0	1	1
116	592	0	10000	1	1	0	1	1
114	593	0	10000	1	1	0	1	1
109	594	0	10000	1	1	0	1	1
106	595	0	10000	1	1	0	1	1
103	552	0	10000	1	1	0	1	1
102	553	0	10000	1	1	0	1	1
99	554	0	10000	1	1	0	1	1
95	555	0	10000	1	1	0	1	1
94	554	0	10000	1	1	0	1	0
99	555	0	10000	1	1	0	1	0
104	556	0	10000	1	1	0	1	0
107	557	0	10000	1	1	0	1	0
107	558	0	10000	1	1	0	1	0
107	559	0	10000	1	1	0	1	0
106	560	0	10000	1	1	0	1	0
106	561	0	10000	1	1	0	1	0
105	562	0	10000	1	1	0	1	0
104	563	0	10000	1	1	0	1	0
110	564	0	10000	1	1	0	1	0
113	565	0	10000	1	1	0	1	0
111	566	0	10000	1	1	0	1	0
108	567	0	10000	1	1	0	1	0
105	568	0	10000	1	1	0	1	0
104	569	0	10000	1	1	0	1	0
102	570	0	10000	1	1	0	1	0
99	571	0	10000	1	1	0	1	0
98	572	0	10000	1	1	0	1	0
98	573	0	10000	1	1	0	1	0
94	574	0	10000	1	1	0	1	0
93	575	0	10000	1	1	0	1	0
94	576	0	10000	1	1	0	1	0
96	577	0	10000	1	1	0	1	0
92	578	0	10000	1	1	0	1	0
92	579	0	10000	1	1	0	1	0
93	580	0	10000	1	1	0	1	0
92	581	0	10000	1	1	0	1	0
94	582	0	10000	1	1	0	1	0
94	583	0	10000	1	1	0	1	0
95	584	0	10000	1	1	0	1	0
92	585	0	10000	1	1	0	1	0
90	586	0	10000	1	1	0	1	0
92	587	0	10000	1	1	0	1	0
90	588	0	10000	1	1	0	1	0
87	589	0	10000	1	1	0	1	0
86	590	0	10000	1	1	0	1	0
82	591	0	10000	1	1	0	1	0
80	592	0	10000	1	1	0	1	0
82	593	0	10000	1	1	0	1	0
80	594	0	10000	1	1	0	1	0
83	595	0	10000	1	1	0	1	0
80	596	0	10000	1	1	0	1	0
79	597	0	10000	1	1	0	1	0
77	598	0	10000	1	1	0	1	0
81	599	0	10000	1	1	0	1	0
84	600	0	10000	1	1	0	1	0
86	601	0	10000	1	1	0	1	0
89	602	0	10000	1	1	0	1	0
88	603	0	10000	1	1	0	1	0
92	604	0	10000	1	1	0	1	0
90	605	0	10000	1	1	0	1	0
92	606	0	10000	1	1	0	1	0
91	607	0	10000	1	1	0	1	0
89	608	0	10000	1	1	0	1	0
87	609	0	10000	1	1	0	1	0
84	610	0	10000	1	1	0	1	0
84	611	0	10000	1	1	0	1	0
86	612	0	10000	1	1	0	1	0
85	613	0	10000	1	1	0	1	0
83	614	0	10000	1	1	0	1	0
90	615	0	10000	1	1	0	1	0
91	616	0	10000	1	1	0	1	0
95	617	0	10000	1	1	0	1	0
92	618	0	10000	1	1	0	1	0
94	619	0	10000	1	1	0	1	0
94	620	0	10000	1	1	0	1	0
98	621	0	10000	1	1	0	1	0
99	622	0	10000	1	1	0	1	0
98	623	0	10000	1	1	0	1	0
109	624	0	10000	1	1	0	1	0
107	625	0	10000	1	1	0	1	0
105	626	0	10000	1	1	0	1	0
109	627	0	10000	1	1	0	1	0
110	628	0	10000	1	1	0	1	0
107	629	0	10000	1	1	0	1	0
106	630	0	10000	1	1	0	1	0
104	631	0	10000	1	1	0	1	0
103	632	0	10000	1	1	0	1	0
102	633	0	10000	1	1	0	1	0
101	634	0	10000	1	1	0	1	0
100	635	0	10000	1	1	0	1	0
100	636	0	10000	1	1	0	1	0
101	637	0	10000	1	1	0	1	0
98	638	0	10000	1	1	0	1	0
98	639	0	10000	1	1	0	1	0
100	640	0	10000	1	1	0	1	0
100	641	0	10000	1	1	0	1	0
101	642	0	10000	1	1	0	1	0
114	643	0	10000	1	1	0	1	0
116	644	0	10000	1	1	0	1	0
119	645	0	10000	1	1	0	1	0
132	646	0	10000	1	1	0	1	0
130	647	0	10000	1	1	0	1	0
127	648	0	10000	1	1	0	1	0
125	649	0	10000	1	1	0	1	0
124	650	0	10000	1	1	0	1	0
129	651	0	10000	1	1	0	1	0
129	652	0	10000	1	1	0	1	0
133	653	0	10000	1	1	0	1	0
134	654	0	10000	1	1	0	1	0
134	655	0	10000	1	1	0	1	0
135	656	0	10000	1	1	0	1	0
135	657	0	10000	1	1	0	1	0
141	658	0	10000	1	1	0	1	0
141	659	0	10000	1	1	0	1	0
152	660	0	10000	1	1	0	1	0
170	661	0	10000	1	1	0	1	0
177	662	0	10000	1	1	0	1	0
196	663	0	10000	1	1	0	1	0
219	664	0	10000	1	1	0	1	0
254	665	0	10000	1	1	0	1	0
286	666	0	10000	1	1	0	1	0
304	667	0	10000	1	1	0	1	0
308	668	0	10000	1	1	0	1	0
338	669	0	10000	1	1	0	1	0
360	670	0	10000	1	1	0	1	0
388	671	0	10000	1	1	0	1	0
388	672	0	10000	1	1	0	1	0
395	673	0	10000	1	1	0	1	0
399	674	0	10000	1	1	0	1	0
392	675	0	10000	1	1	0	1	0
389	676	0	10000	1	1	0	1	0
376	677	0	10000	1	1	0	1	0
368	678	0	10000	1	1	0	1	0
364	679	0	10000	1	1	0	1	0
355	680	0	10000	1	1	0	1	0
342	681	0	10000	1	1	0	1	0
333	682	0	10000	1	1	0	1	0
320	683	0	10000	1	1	0	1	0
320	684	0	10000	1	1	0	1	0
313	685	0	10000	1	1	0	1	0
302	686	0	10000	1	1	0	1	0
292	687	0	10000	1	1	0	1	0
282	688	0	10000	1	1	0	1	0
272	689	0	10000	1	1	0	1	0
263	690	0	10000	1	1	0	1	0
252	691	0	10000	1	1	0	1	0
243	692	0	10000	1	1	0	1	0
233	693	0	10000	1	1	0	1	0
226	694	0	10000	1	1	0	1	0
225	695	0	10000	1	1	0	1	0
226	696	0	10000	1	1	0	1	0
230	697	0	10000	1	1	0	1	0
223	698	0	10000	1	1	0	1	0
215	699	0	10000	1	1	0	1	0
208	700	0	10000	1	1	0	1	0
201	701	0	10000	1	1	0	1	0
194	702	0	10000	1	1	0	1	0
190	703	0	10000	1	1	0	1	0
197	704	0	10000	1	1	0	1	0
200	705	0	10000	1	1	0	1	0
198	706	0	10000	1	1	0	1	0
190	707	0	10000	1	1	0	1	0
182	708	0	10000	1	1	0	1	0
179	709	0	10000	1	1	0	1	0
173	710	0	10000	1	1	0	1	0
165	711	0	10000	1	1	0	1	0
159	712	0	10000	1	1	0	1	0
154	713	0	10000	1	1	0	1	0
149	714	0	10000	1	1	0	1	0
154	715	0	10000	1	1	0	1	0
156	716	0	10000	1	1	0	1	0
156	717	0	10000	1	1	0	1	0
153	718	0	10000	1	1	0	1	0
150	719	0	10000	1	1	0	1	0
147	720	0	10000	1	1	0	1	0
144	721	0	10000	1	1	0	1	0
138	722	0	10000	1	1	0	1	0
135	723	0	10000	1	1	0	1	0
139	724	0	10000	1	1	0	1	0
142	725	0	10000	1	1	0	1	0
139	726	0	10000	1	1	0	1	0
138	727	0	10000	1	1	0	1	0
132	728	0	10000	1	1	0	1	0
128	729	0	10000	1	1	0	1	0
123	730	0	10000	1	1	0	1	0
122	731	0	10000	1	1	0	1	0
118	732	0	10000	1	1	0	1	0
115	733	0	10000	1	1	0	1	0
112	734	0	10000	1	1	0	1	0
113	735	0	10000	1	1	0	1	0
112	736	0	10000	1	1	0	1	0
111	737	0	10000	1	1	0	1	0
107	738	0	10000	1	1	0	1	0
109	739	0	10000	1	1	0	1	0
115	740	0	10000	1	1	0	1	0
117	741	0	10000	1	1	0	1	0
118	742	0	10000	1	1	0	1	0
115	743	0	10000	1	1	0	1	0
120	744	0	10000	1	1	0	1	0
123	745	0	10000	1	1	0	1	0
120	746	0	10000	1	1	0	1	0
121	747	0	10000	1	1	0	1	0
118	748	0	10000	1	1	0	1	0
116	749	0	10000	1	1	0	1	0
114	750	0	10000	1	1	0	1	0
109	751	0	10000	1	1	0	1	0
106	752	0	10000	1	1	0	1	0
104	753	0	10000	1	1	0	1	0
102	754	0	10000	1	1	0	1	0
103	755	0	10000	1	1	0	1	0
104	756	0	10000	1	1	0	1	0
105	757	0	10000	1	1	0	1	0
101	758	0	10000	1	1	0	1	0
103	759	0	10000	1	1	0	1	0
105	760	0	10000	1	1	0	1	0
103	761	0	10000	1	1	0	1	0
104	762	0	10000	1	1	0	1	0
104	763	0	10000	1	1	0	1	0
106	764	0	10000	1	1	0	1	0
104	765	0	10000	1	1	0	1	0
104	766	0	10000	1	1	0	1	0
109	767	0	10000	1	1	0	1	0
112	768	0	10000	1	1	0	1	0
112	769	0	10000	1	1	0	1	0
111	770	0	10000	1	1	0	1	0
112	771	0	10000	1	1	0	1	0
108	772	0	10000	1	1	0	1	0
108	773	0	10000	1	1	0	1	0
108	774	0	10000	1	1	0	1	0
107	775	0	10000	1	1	0	1	0
103	776	0	10000	1	1	0	1	0
100	777	0	10000	1	1	0	1	0
96	778	0	10000	1	1	0	1	0
96	779	0	10000	1	1	0	1	0
96	780	0	10000	1	1	0	1	0
94	781	0	10000	1	1	0	1	0
93	782	0	10000	1	1	0	1	0
91	783	0	10000	1	1	0	1	0
98	784	0	10000	1	1	0	1	0
101	785	0	10000	1	1	0	1	0
102	786	0	10000	1	1	0	1	0
103	787	0	10000	1	1	0	1	0
103	788	0	10000	1	1	0	1	0
99	789	0	10000	1	1	0	1	0
96	790	0	10000	1	1	0	1	0
97	791	0	10000	1	1	0	1	0
96	792	0	10000	1	1	0	1	0
97	793	0	10000	1	1	0	1	0
96	794	0	10000	1	1	0	1	0
100	795	0	10000	1	1	0	1	0
104	796	0	10000	1	1	0	1	0
110	797	0	10000	1	1	0	1	0
108	798	0	10000	1	1	0	1	0
108	799	0	10000	1	1	0	1	0
108	800	0	10000	1	1	0	1	0
107	801	0	10000	1	1	0	1	0
110	802	0	10000	1	1	0	1	0
107	803	0	10000	1	1	0	1	0
114	804	0	10000	1	1	0	1	0
117	805	0	10000	1	1	0	1	0
116	806	0	10000	1	1	0	1	0
118	807	0	10000	1	1	0	1	0
118	808	0	10000	1	1	0	1	0
115	809	0	10000	1	1	0	1	0
111	810	0	10000	1	1	0	1	0
111	811	0	10000	1	1	0	1	0
110	812	0	10000	1	1	0	1	0
110	813	0	10000	1	1	0	1	0
107	814	0	10000	1	1	0	1	0
105	815	0	10000	1	1	0	1	0
102	816	0	10000	1	1	0	1	0
100	817	0	10000	1	1	0	1	0
99	818	0	10000	1	1	0	1	0
105	819	0	10000	1	1	0	1	0
115	820	0	10000	1	1	0	1	0
117	821	0	10000	1	1	0	1	0
118	822	0	10000	1	1	0	1	0
115	823	0	10000	1	1	0	1	0
120	824	0	10000	1	1	0	1	0
122	825	0	10000	1	1	0	1	0
121	826	0	10000	1	1	0	1	0
128	827	0	10000	1	1	0	1	0
129	828	0	10000	1	1	0	1	0
126	829	0	10000	1	1	0	1	0
123	830	0	10000	1	1	0	1	0
127	831	0	10000	1	1	0	1	0
129	832	0	10000	1	1	0	1	0
127	833	0	10000	1	1	0	1	0
123	834	0	10000	1	1	0	1	0
121	835	0	10000	1	1	0	1	0
122	836	0	10000	1	1	0	1	0
125	837	0	10000	1	1	0	1	0
121	838	0	10000	1	1	0	1	0
121	839	0	10000	1	1	0	1	0
121	840	0	10000	1	1	0	1	0
121	841	0	10000	1	1	0	1	0
123	842	0	10000	1	1	0	1	0
118	843	0	10000	1	1	0	1	0
128	844	0	10000	1	1	0	1	0
133	845	0	10000	1	1	0	1	0
132	846	0	10000	1	1	0	1	0
128	847	0	10000	1	1	0	1	0
129	848	0	10000	1	1	0	1	0
130	849	0	10000	1	1	0	1	0
130	850	0	10000	1	1	0	1	0
127	851	0	10000	1	1	0	1	0
123	852	0	10000	1	1	0	1	0
122	853	0	10000	1	1	0	1	0
118	854	0	10000	1	1	0	1	0
122	855	0	10000	1	1	0	1	0
125	856	0	10000	1	1	0	1	0
128	857	0	10000	1	1	0	1	0
126	858	0	10000	1	1	0	1	0
126	859	0	10000	1	1	0	1	0
130	860	0	10000	1	1	0	1	0
133	861	0	10000	1	1	0	1	0
136	862	0	10000	1	1	0	1	0
136	863	0	10000	1	1	0	1	0
135	864	0	10000	1	1	0	1	0
135	865	0	10000	1	1	0	1	0
129	866	0	10000	1	1	0	1	0
126	867	0	10000	1	1	0	1	0
122	868	0	10000	1	1	0	1	0
121	869	0	10000	1	1	0	1	0
125	870	0	10000	1	1	0	1	0
125	871	0	10000	1	1	0	1	0
126	872	0	10000	1	1	0	1	0
130	873	0	10000	1	1	0	1	0
130	874	0	10000	1	1	0	1	0
131	875	0	10000	1	1	0	1	0
130	876	0	10000	1	1	0	1	0
128	877	0	10000	1	1	0	1	0
123	878	0	10000	1	1	0	1	0
123	879	0	10000	1	1	0	1	0
126	880	0	10000	1	1	0	1	0
125	881	0	10000	1	1	0	1	0
125	882	0	10000	1	1	0	1	0
121	883	0	10000	1	1	0	1	0
126	884	0	10000	1	1	0	1	0
123	885	0	10000	1	1	0	1	0
119	886	0	10000	1	1	0	1	0
120	887	0	10000	1	1	0	1	0
118	888	0	10000	1	1	0	1	0
116	889	0	10000	1	1	0	1	0
115	890	0	10000	1	1	0	1	0
111	891	0	10000	1	1	0	1	0
109	892	0	10000	1	1	0	1	0
107	893	0	10000	1	1	0	1	0
104	894	0	10000	1	1	0	1	0
106	895	0	10000	1	1	0	1	0
113	896	0	10000	1	1	0	1	0
120	897	0	10000	1	1	0	1	0
120	898	0	10000	1	1	0	1	0
118	899	0	10000	1	1	0	1	0
118	900	0	10000	1	1	0	1	0
118	901	0	10000	1	1	0	1	0
121	902	0	10000	1	1	0	1	0
119	903	0	10000	1	1	0	1	0
126	904	0	10000	1	1	0	1	0
128	905	0	10000	1	1	0	1	0
125	906	0	10000	1	1	0	1	0
124	907	0	10000	1	1	0	1	0
121	908	0	10000	1	1	0	1	0
116	909	0	10000	1	1	0	1	0
113	910	0	10000	1	1	0	1	0
113	911	0	10000	1	1	0	1	0
115	912	0	10000	1	1	0	1	0
115	913	0	10000	1	1	0	1	0
118	914	0	10000	1	1	0	1	0
128	915	0	10000	1	1	0	1	0
133	916	0	10000	1	1	0	1	0
133	917	0	10000	1	1	0	1	0
127	918	0	10000	1	1	0	1	0
123	919	0	10000	1	1	0	1	0
121	920	0	10000	1	1	0	1	0
124	921	0	10000	1	1	0	1	0
118	922	0	10000	1	1	0	1	0
115	923	0	10000	1	1	0	1	0
128	924	0	10000	1	1	0	1	0
133	925	0	10000	1	1	0	1	0
131	926	0	10000	1	1	0	1	0
130	927	0	10000	1	1	0	1	0
127	928	0	10000	1	1	0	1	0
122	929	0	10000	1	1	0	1	0
118	930	0	10000	1	1	0	1	0
116	931	0	10000	1	1	0	1	0
112	932	0	10000	1	1	0	1	0
116	933	0	10000	1	1	0	1	0
115	934	0	10000	1	1	0	1	0
116	935	0	10000	1	1	0	1	0
114	936	0	10000	1	1	0	1	0
115	937	0	10000	1	1	0	1	0
113	938	0	10000	1	1	0	1	0
111	939	0	10000	1	1	0	1	0
111	940	0	10000	1	1	0	1	0
110	941	0	10000	1	1	0	1	0
111	942	0	10000	1	1	0	1	0
114	943	0	10000	1	1	0	1	0
113	944	0	10000	1	1	0	1	0
113	945	0	10000	1	1	0	1	0
111	946	0	10000	1	1	0	1	0
112	947	0	10000	1	1	0	1	0
113	948	0	10000	1	1	0	1	0
113	949	0	10000	1	1	0	1	0
116	950	0	10000	1	1	0	1	0
123	951	0	10000	1	1	0	1	0
123	952	0	10000	1	1	0	1	0
120	953	0	10000	1	1	0	1	0
118	954	0	10000	1	1	0	1	0
123	955	0	10000	1	1	0	1	0
121	956	0	10000	1	1	0	1	0
124	957	0	10000	1	1	0	1	0
120	958	0	10000	1	1	0	1	0
120	959	0	10000	1	1	0	1	0
122	960	0	10000	1	1	0	1	0
126	961	0	10000	1	1	0	1	0
133	962	0	10000	1	1	0	1	0
130	963	0	10000	1	1	0	1	0
132	964	0	10000	1	1	0	1	0
132	965	0	10000	1	1	0	1	0
130	966	0	10000	1	1	0	1	0
131	967	0	10000	1	1	0	1	0
129	968	0	10000	1	1	0	1	0
124	969	0	10000	1	1	0	1	0
122	970	0	10000	1	1	0	1	0
122	971	0	10000	1	1	0	1	0
122	972	0	10000	1	1	0	1	0
120	973	0	10000	1	1	0	1	0
117	974	0	10000	1	1	0	1	0
116	975	0	10000	1	1	0	1	0
118	976	0	10000	1	1	0	1	0
124	977	0	10000	1	1	0	1	0
121	978	0	10000	1	1	0	1	0
119	979	0	10000	1	1	0	1	0
121	980	0	10000	1	1	0	1	0
121	981	0	10000	1	1	0	1	0
121	982	0	10000	1	1	0	1	0
118	983	0	10000	1	1	0	1	0
127	984	0	10000	1	1	0	1	0
129	985	0	10000	1	1	0	1	0
127	986	0	10000	1	1	0	1	0
125	987	0	10000	1	1	0	1	0
120	988	0	10000	1	1	0	1	0
119	989	0	10000	1	1	0	1	0
115	990	0	10000	1	1	0	1	0
111	991	0	10000	1	1	0	1	0
107	992	0	10000	1	1	0	1	0
104	993	0	10000	1	1	0	1	0
103	994	0	10000	1	1	0	1	0
104	995	0	10000	1	1	0	1	0
102	996	0	10000	1	1	0	1	0
100	997	0	10000	1	1	0	1	0
98	998	0	10000	1	1	0	1	0
100	999	0	10000	1	1	0	1	0
104	1000	0	10000	1	1	0	1	0
106	1001	0	10000	1	1	0	1	0
145	1	7	10000	2	1	0	2	0
144	2	7	10000	2	1	0	2	0
140	3	7	10000	2	1	0	2	0
144	4	7	10000	2	1	0	2	0
145	5	7	10000	2	1	0	2	0
142	6	7	10000	2	1	0	2	0
144	7	7	10000	2	1	0	2	0
143	8	7	10000	2	1	0	2	0
138	9	7	10000	2	1	0	2	0
138	10	7	10000	2	1	0	2	0
140	11	7	10000	2	1	0	2	0
142	12	7	10000	2	1	0	2	0
146	13	7	10000	2	1	0	2	0
143	14	7	10000	2	1	0	2	0
140	15	7	10000	2	1	0	2	0
136	16	7	10000	2	1	0	2	0
133	17	7	10000	2	1	0	2	0
130	18	7	10000	2	1	0	2	0
132	19	7	10000	2	1	0	2	0
139	20	7	10000	2	1	0	2	0
143	20	7	10000	2	1	0	2	0
147	21	7	10000	2	1	0	2	0
146	23	7	10000	2	1	0	2	0
146	24	7	10000	2	1	0	2	0
140	25	7	10000	2	1	0	2	0
138	26	7	10000	2	1	0	2	0
146	27	7	10000	2	1	0	2	0
153	28	7	10000	2	1	0	2	0
156	29	7	10000	2	1	0	2	0
161	30	7	10000	2	1	0	2	0
162	30	7	10000	2	1	0	2	0
165	31	7	10000	2	1	0	2	0
169	33	7	10000	2	1	0	2	0
167	34	7	10000	2	1	0	2	0
162	35	7	10000	2	1	0	2	0
156	36	7	10000	2	1	0	2	0
152	37	7	10000	2	1	0	2	0
151	38	7	10000	2	1	0	2	0
154	39	7	10000	2	1	0	2	0
156	40	7	10000	2	1	0	2	0
161	40	7	10000	2	1	0	2	0
163	41	7	10000	2	1	0	2	0
160	43	7	10000	2	1	0	2	0
158	44	7	10000	2	1	0	2	0
152	45	7	10000	2	1	0	2	0
149	46	7	10000	2	1	0	2	0
154	47	7	10000	2	1	0	2	0
154	48	7	10000	2	1	0	2	0
150	49	7	10000	2	1	0	2	0
148	50	7	10000	2	1	0	2	0
150	50	7	10000	2	1	0	2	0
153	51	7	10000	2	1	0	2	0
155	53	7	10000	2	1	0	2	0
152	54	7	10000	2	1	0	2	0
152	55	7	10000	2	1	0	2	0
149	56	7	10000	2	1	0	2	0
146	57	7	10000	2	1	0	2	0
141	58	7	10000	2	1	0	2	0
141	59	7	10000	2	1	0	2	0
140	60	7	10000	2	1	0	2	0
140	60	7	10000	2	1	0	2	0
142	61	7	10000	2	1	0	2	0
141	63	7	10000	2	1	0	2	0
142	64	7	10000	2	1	0	2	0
141	65	7	10000	2	1	0	2	0
137	66	7	10000	2	1	0	2	0
133	67	7	10000	2	1	0	2	0
128	68	7	10000	2	1	0	2	0
123	69	7	10000	2	1	0	2	0
121	70	7	10000	2	1	0	2	0
117	70	7	10000	2	1	0	2	0
116	71	7	10000	2	1	0	2	0
114	73	7	10000	2	1	0	2	0
111	74	7	10000	2	1	0	2	0
113	75	7	10000	2	1	0	2	0
111	76	7	10000	2	1	0	2	0
112	77	7	10000	2	1	0	2	0
110	78	7	10000	2	1	0	2	0
111	79	7	10000	2	1	0	2	0
110	80	7	10000	2	1	0	2	0
112	80	7	10000	2	1	0	2	0
112	81	7	10000	2	1	0	2	0
110	83	7	10000	2	1	0	2	0
113	84	7	10000	2	1	0	2	0
117	85	7	10000	2	1	0	2	0
116	86	7	10000	2	1	0	2	0
114	87	7	10000	2	1	0	2	0
113	88	7	10000	2	1	0	2	0
109	89	7	10000	2	1	0	2	0
107	90	7	10000	2	1	0	2	0
105	90	7	10000	2	1	0	2	0
103	91	7	10000	2	1	0	2	0
101	93	7	10000	2	1	0	2	0
101	94	7	10000	2	1	0	2	0
104	95	7	10000	2	1	0	2	0
108	96	7	10000	2	1	0	2	0
110	97	7	10000	2	1	0	2	0
106	98	7	10000	2	1	0	2	0
106	99	7	10000	2	1	0	2	0
109	100	7	10000	2	1	0	2	0
111	100	7	10000	2	1	0	2	0
112	101	7	10000	2	1	0	2	0
112	103	7	10000	2	1	0	2	0
117	104	7	10000	2	1	0	2	0
117	105	7	10000	2	1	0	2	0
116	106	7	10000	2	1	0	2	0
115	107	7	10000	2	1	0	2	0
110	108	7	10000	2	1	0	2	0
106	109	7	10000	2	1	0	2	0
107	110	7	10000	2	1	0	2	0
104	110	7	10000	2	1	0	2	0
103	111	7	10000	2	1	0	2	0
103	113	7	10000	2	1	0	2	0
102	114	7	10000	2	1	0	2	0
105	115	7	10000	2	1	0	2	0
109	116	7	10000	2	1	0	2	0
107	117	7	10000	2	1	0	2	0
104	118	7	10000	2	1	0	2	0
106	119	7	10000	2	1	0	2	0
110	120	7	10000	2	1	0	2	0
110	120	7	10000	2	1	0	2	0
109	121	7	10000	2	1	0	2	0
108	123	7	10000	2	1	0	2	0
115	124	7	10000	2	1	0	2	0
119	125	7	10000	2	1	0	2	0
118	126	7	10000	2	1	0	2	0
116	127	7	10000	2	1	0	2	0
112	128	7	10000	2	1	0	2	0
108	129	7	10000	2	1	0	2	0
104	130	7	10000	2	1	0	2	0
100	130	7	10000	2	1	0	2	0
100	131	7	10000	2	1	0	2	0
97	133	7	10000	2	1	0	2	0
99	134	7	10000	2	1	0	2	0
104	135	7	10000	2	1	0	2	0
108	136	7	10000	2	1	0	2	0
113	137	7	10000	2	1	0	2	0
112	138	7	10000	2	1	0	2	0
112	139	7	10000	2	1	0	2	0
113	140	7	10000	2	1	0	2	0
113	140	7	10000	2	1	0	2	0
112	141	7	10000	2	1	0	2	0
110	143	7	10000	2	1	0	2	0
115	144	7	10000	2	1	0	2	0
121	145	7	10000	2	1	0	2	0
120	146	7	10000	2	1	0	2	0
118	147	7	10000	2	1	0	2	0
113	148	7	10000	2	1	0	2	0
112	149	7	10000	2	1	0	2	0
110	150	7	10000	2	1	0	2	0
107	150	7	10000	2	1	0	2	0
105	151	7	10000	2	1	0	2	0
103	153	7	10000	2	1	0	2	0
104	154	7	10000	2	1	0	2	0
106	155	7	10000	2	1	0	2	0
108	156	7	10000	2	1	0	2	0
110	157	7	10000	2	1	0	2	0
104	158	7	10000	2	1	0	2	0
107	159	7	10000	2	1	0	2	0
110	160	7	10000	2	1	0	2	0
116	160	7	10000	2	1	0	2	0
118	161	7	10000	2	1	0	2	0
116	163	7	10000	2	1	0	2	0
117	164	7	10000	2	1	0	2	0
117	165	7	10000	2	1	0	2	0
115	166	7	10000	2	1	0	2	0
113	167	7	10000	2	1	0	2	0
109	168	7	10000	2	1	0	2	0
105	169	7	10000	2	1	0	2	0
102	170	7	10000	2	1	0	2	0
100	170	7	10000	2	1	0	2	0
98	171	7	10000	2	1	0	2	0
97	173	7	10000	2	1	0	2	0
98	174	7	10000	2	1	0	2	0
102	175	7	10000	2	1	0	2	0
101	176	7	10000	2	1	0	2	0
104	177	7	10000	2	1	0	2	0
100	178	7	10000	2	1	0	2	0
100	179	7	10000	2	1	0	2	0
99	180	7	10000	2	1	0	2	0
97	180	7	10000	2	1	0	2	0
97	181	7	10000	2	1	0	2	0
96	183	7	10000	2	1	0	2	0
100	184	7	10000	2	1	0	2	0
100	185	7	10000	2	1	0	2	0
97	186	7	10000	2	1	0	2	0
99	187	7	10000	2	1	0	2	0
98	188	7	10000	2	1	0	2	0
95	189	7	10000	2	1	0	2	0
93	190	7	10000	2	1	0	2	0
94	190	7	10000	2	1	0	2	0
95	191	7	10000	2	1	0	2	0
100	193	7	10000	2	1	0	2	0
100	194	7	10000	2	1	0	2	0
96	195	7	10000	2	1	0	2	0
95	196	7	10000	2	1	0	2	0
96	197	7	10000	2	1	0	2	0
97	198	7	10000	2	1	0	2	0
102	199	7	10000	2	1	0	2	0
104	200	7	10000	2	1	0	2	0
107	200	7	10000	2	1	0	2	0
110	201	7	10000	2	1	0	2	0
110	203	7	10000	2	1	0	2	0
109	204	7	10000	2	1	0	2	0
106	205	7	10000	2	1	0	2	0
106	206	7	10000	2	1	0	2	0
116	207	7	10000	2	1	0	2	0
122	208	7	10000	2	1	0	2	0
121	209	7	10000	2	1	0	2	0
124	210	7	10000	2	1	0	2	0
127	210	7	10000	2	1	0	2	0
133	211	7	10000	2	1	0	2	0
141	213	7	10000	2	1	0	2	0
140	214	7	10000	2	1	0	2	0
136	215	7	10000	2	1	0	2	0
133	216	7	10000	2	1	0	2	0
129	217	7	10000	2	1	0	2	0
128	218	7	10000	2	1	0	2	0
132	219	7	10000	2	1	0	2	0
140	220	7	10000	2	1	0	2	0
148	220	7	10000	2	1	0	2	0
159	221	7	10000	2	1	0	2	0
159	223	7	10000	2	1	0	2	0
155	224	7	10000	2	1	0	2	0
152	225	7	10000	2	1	0	2	0
151	226	7	10000	2	1	0	2	0
146	227	7	10000	2	1	0	2	0
141	228	7	10000	2	1	0	2	0
141	229	7	10000	2	1	0	2	0
144	230	7	10000	2	1	0	2	0
144	230	7	10000	2	1	0	2	0
144	231	7	10000	2	1	0	2	0
141	233	7	10000	2	1	0	2	0
140	234	7	10000	2	1	0	2	0
142	235	7	10000	2	1	0	2	0
147	236	7	10000	2	1	0	2	0
154	237	7	10000	2	1	0	2	0
152	238	7	10000	2	1	0	2	0
150	239	7	10000	2	1	0	2	0
145	240	7	10000	2	1	0	2	0
140	240	7	10000	2	1	0	2	0
134	241	7	10000	2	1	0	2	0
130	243	7	10000	2	1	0	2	0
140	244	7	10000	2	1	0	2	0
147	245	7	10000	2	1	0	2	0
152	246	7	10000	2	1	0	2	0
149	247	7	10000	2	1	0	2	0
148	248	7	10000	2	1	0	2	0
154	249	7	10000	2	1	0	2	0
152	250	7	10000	2	1	0	2	0
150	250	7	10000	2	1	0	2	0
150	251	7	10000	2	1	0	2	0
148	253	7	10000	2	1	0	2	0
152	254	7	10000	2	1	0	2	0
160	255	7	10000	2	1	0	2	0
165	256	7	10000	2	1	0	2	0
172	257	7	10000	2	1	0	2	0
174	258	7	10000	2	1	0	2	0
171	259	7	10000	2	1	0	2	0
167	260	7	10000	2	1	0	2	0
163	260	7	10000	2	1	0	2	0
155	261	7	10000	2	1	0	2	0
155	263	7	10000	2	1	0	2	0
165	264	7	10000	2	1	0	2	0
171	265	7	10000	2	1	0	2	0
172	266	7	10000	2	1	0	2	0
168	267	7	10000	2	1	0	2	0
164	268	7	10000	2	1	0	2	0
162	269	7	10000	2	1	0	2	0
157	270	7	10000	2	1	0	2	0
154	270	7	10000	2	1	0	2	0
151	271	7	10000	2	1	0	2	0
149	273	7	10000	2	1	0	2	0
149	274	7	10000	2	1	0	2	0
153	275	7	10000	2	1	0	2	0
160	276	7	10000	2	1	0	2	0
165	277	7	10000	2	1	0	2	0
162	278	7	10000	2	1	0	2	0
159	279	7	10000	2	1	0	2	0
156	280	7	10000	2	1	0	2	0
153	280	7	10000	2	1	0	2	0
151	281	7	10000	2	1	0	2	0
148	283	7	10000	2	1	0	2	0
155	284	7	10000	2	1	0	2	0
160	285	7	10000	2	1	0	2	0
162	286	7	10000	2	1	0	2	0
161	287	7	10000	2	1	0	2	0
157	288	7	10000	2	1	0	2	0
153	289	7	10000	2	1	0	2	0
150	290	7	10000	2	1	0	2	0
144	290	7	10000	2	1	0	2	0
142	291	7	10000	2	1	0	2	0
138	293	7	10000	2	1	0	2	0
134	294	7	10000	2	1	0	2	0
133	295	7	10000	2	1	0	2	0
131	296	7	10000	2	1	0	2	0
133	297	7	10000	2	1	0	2	0
128	298	7	10000	2	1	0	2	0
129	299	7	10000	2	1	0	2	0
132	300	7	10000	2	1	0	2	0
131	300	7	10000	2	1	0	2	0
131	301	7	10000	2	1	0	2	0
128	303	7	10000	2	1	0	2	0
133	304	7	10000	2	1	0	2	0
133	305	7	10000	2	1	0	2	0
130	306	7	10000	2	1	0	2	0
131	307	7	10000	2	1	0	2	0
127	308	7	10000	2	1	0	2	0
122	309	7	10000	2	1	0	2	0
120	310	7	10000	2	1	0	2	0
120	310	7	10000	2	1	0	2	0
119	311	7	10000	2	1	0	2	0
121	313	7	10000	2	1	0	2	0
119	314	7	10000	2	1	0	2	0
119	315	7	10000	2	1	0	2	0
121	316	7	10000	2	1	0	2	0
122	317	7	10000	2	1	0	2	0
120	318	7	10000	2	1	0	2	0
122	319	7	10000	2	1	0	2	0
121	320	7	10000	2	1	0	2	0
121	320	7	10000	2	1	0	2	0
117	321	7	10000	2	1	0	2	0
115	323	7	10000	2	1	0	2	0
120	324	7	10000	2	1	0	2	0
120	325	7	10000	2	1	0	2	0
116	326	7	10000	2	1	0	2	0
116	327	7	10000	2	1	0	2	0
111	328	7	10000	2	1	0	2	0
108	329	7	10000	2	1	0	2	0
104	330	7	10000	2	1	0	2	0
99	330	7	10000	2	1	0	2	0
97	331	7	10000	2	1	0	2	0
95	333	7	10000	2	1	0	2	0
94	334	7	10000	2	1	0	2	0
101	335	7	10000	2	1	0	2	0
102	336	7	10000	2	1	0	2	0
102	337	7	10000	2	1	0	2	0
98	338	7	10000	2	1	0	2	0
100	339	7	10000	2	1	0	2	0
104	340	7	10000	2	1	0	2	0
106	340	7	10000	2	1	0	2	0
108	341	7	10000	2	1	0	2	0
105	343	7	10000	2	1	0	2	0
112	344	7	10000	2	1	0	2	0
112	345	7	10000	2	1	0	2	0
110	346	7	10000	2	1	0	2	0
115	347	7	10000	2	1	0	2	0
116	348	7	10000	2	1	0	2	0
114	349	7	10000	2	1	0	2	0
114	350	7	10000	2	1	0	2	0
111	350	7	10000	2	1	0	2	0
108	351	7	10000	2	1	0	2	0
106	353	7	10000	2	1	0	2	0
106	354	7	10000	2	1	0	2	0
109	355	7	10000	2	1	0	2	0
112	356	7	10000	2	1	0	2	0
115	357	7	10000	2	1	0	2	0
111	358	7	10000	2	1	0	2	0
112	359	7	10000	2	1	0	2	0
113	360	7	10000	2	1	0	2	0
114	360	7	10000	2	1	0	2	0
113	361	7	10000	2	1	0	2	0
112	363	7	10000	2	1	0	2	0
121	364	7	10000	2	1	0	2	0
124	365	7	10000	2	1	0	2	0
121	366	7	10000	2	1	0	2	0
122	367	7	10000	2	1	0	2	0
118	368	7	10000	2	1	0	2	0
114	369	7	10000	2	1	0	2	0
112	370	7	10000	2	1	0	2	0
109	370	7	10000	2	1	0	2	0
107	371	7	10000	2	1	0	2	0
105	373	7	10000	2	1	0	2	0
103	374	7	10000	2	1	0	2	0
107	375	7	10000	2	1	0	2	0
110	376	7	10000	2	1	0	2	0
110	377	7	10000	2	1	0	2	0
108	378	7	10000	2	1	0	2	0
113	379	7	10000	2	1	0	2	0
118	380	7	10000	2	1	0	2	0
122	380	7	10000	2	1	0	2	0
125	381	7	10000	2	1	0	2	0
122	383	7	10000	2	1	0	2	0
126	384	7	10000	2	1	0	2	0
126	385	7	10000	2	1	0	2	0
122	386	7	10000	2	1	0	2	0
123	387	7	10000	2	1	0	2	0
121	388	7	10000	2	1	0	2	0
116	389	7	10000	2	1	0	2	0
114	390	7	10000	2	1	0	2	0
112	390	7	10000	2	1	0	2	0
111	391	7	10000	2	1	0	2	0
107	393	7	10000	2	1	0	2	0
105	394	7	10000	2	1	0	2	0
109	395	7	10000	2	1	0	2	0
110	396	7	10000	2	1	0	2	0
110	397	7	10000	2	1	0	2	0
107	398	7	10000	2	1	0	2	0
108	399	7	10000	2	1	0	2	0
112	400	7	10000	2	1	0	2	0
113	400	7	10000	2	1	0	2	0
115	401	7	10000	2	1	0	2	0
112	403	7	10000	2	1	0	2	0
117	404	7	10000	2	1	0	2	0
121	405	7	10000	2	1	0	2	0
121	406	7	10000	2	1	0	2	0
121	407	7	10000	2	1	0	2	0
117	408	7	10000	2	1	0	2	0
115	409	7	10000	2	1	0	2	0
112	410	7	10000	2	1	0	2	0
110	410	7	10000	2	1	0	2	0
112	411	7	10000	2	1	0	2	0
111	413	7	10000	2	1	0	2	0
108	414	7	10000	2	1	0	2	0
108	415	7	10000	2	1	0	2	0
106	416	7	10000	2	1	0	2	0
104	417	7	10000	2	1	0	2	0
101	418	7	10000	2	1	0	2	0
105	419	7	10000	2	1	0	2	0
107	420	7	10000	2	1	0	2	0
105	420	7	10000	2	1	0	2	0
107	421	7	10000	2	1	0	2	0
105	423	7	10000	2	1	0	2	0
113	424	7	10000	2	1	0	2	0
116	425	7	10000	2	1	0	2	0
113	426	7	10000	2	1	0	2	0
112	427	7	10000	2	1	0	2	0
112	428	7	10000	2	1	0	2	0
109	429	7	10000	2	1	0	2	0
106	430	7	10000	2	1	0	2	0
104	430	7	10000	2	1	0	2	0
104	431	7	10000	2	1	0	2	0
105	433	7	10000	2	1	0	2	0
103	434	7	10000	2	1	0	2	0
104	435	7	10000	2	1	0	2	0
106	436	7	10000	2	1	0	2	0
109	437	7	10000	2	1	0	2	0
110	438	7	10000	2	1	0	2	0
109	439	7	10000	2	1	0	2	0
109	440	7	10000	2	1	0	2	0
110	440	7	10000	2	1	0	2	0
116	441	7	10000	2	1	0	2	0
115	443	7	10000	2	1	0	2	0
117	444	7	10000	2	1	0	2	0
117	445	7	10000	2	1	0	2	0
115	446	7	10000	2	1	0	2	0
114	447	7	10000	2	1	0	2	0
113	448	7	10000	2	1	0	2	0
111	449	7	10000	2	1	0	2	0
107	450	7	10000	2	1	0	2	0
104	450	7	10000	2	1	0	2	0
103	451	7	10000	2	1	0	2	0
101	453	7	10000	2	1	0	2	0
99	454	7	10000	2	1	0	2	0
101	455	7	10000	2	1	0	2	0
104	456	7	10000	2	1	0	2	0
106	457	7	10000	2	1	0	2	0
103	458	7	10000	2	1	0	2	0
101	459	7	10000	2	1	0	2	0
100	460	7	10000	2	1	0	2	0
100	460	7	10000	2	1	0	2	0
103	461	7	10000	2	1	0	2	0
103	463	7	10000	2	1	0	2	0
107	464	7	10000	2	1	0	2	0
105	465	7	10000	2	1	0	2	0
102	466	7	10000	2	1	0	2	0
100	467	7	10000	2	1	0	2	0
97	468	7	10000	2	1	0	2	0
94	469	7	10000	2	1	0	2	0
93	470	7	10000	2	1	0	2	0
95	470	7	10000	2	1	0	2	0
95	471	7	10000	2	1	0	2	0
99	473	7	10000	2	1	0	2	0
98	474	7	10000	2	1	0	2	0
100	475	7	10000	2	1	0	2	0
100	476	7	10000	2	1	0	2	0
100	477	7	10000	2	1	0	2	0
96	478	7	10000	2	1	0	2	0
100	479	7	10000	2	1	0	2	0
102	480	7	10000	2	1	0	2	0
105	480	7	10000	2	1	0	2	0
108	481	7	10000	2	1	0	2	0
106	483	7	10000	2	1	0	2	0
110	484	7	10000	2	1	0	2	0
112	485	7	10000	2	1	0	2	0
109	486	7	10000	2	1	0	2	0
109	487	7	10000	2	1	0	2	0
108	488	7	10000	2	1	0	2	0
106	489	7	10000	2	1	0	2	0
104	490	7	10000	2	1	0	2	0
103	490	7	10000	2	1	0	2	0
104	491	7	10000	2	1	0	2	0
103	493	7	10000	2	1	0	2	0
102	494	7	10000	2	1	0	2	0
103	495	7	10000	2	1	0	2	0
105	496	7	10000	2	1	0	2	0
106	497	7	10000	2	1	0	2	0
103	498	7	10000	2	1	0	2	0
103	499	7	10000	2	1	0	2	0
104	500	7	10000	2	1	0	2	0
104	500	7	10000	2	1	0	2	0
106	501	7	10000	2	1	0	2	0
105	503	7	10000	2	1	0	2	1
111	504	7	10000	2	1	0	2	1
116	505	7	10000	2	1	0	2	1
115	506	7	10000	2	1	0	2	1
114	507	7	10000	2	1	0	2	1
109	508	7	10000	2	1	0	2	1
106	509	7	10000	2	1	0	2	1
103	510	7	10000	2	1	0	2	1
102	510	7	10000	2	1	0	2	1
98	511	7	10000	2	1	0	2	1
96	513	7	10000	2	1	0	2	1
95	514	7	10000	2	1	0	2	1
98	515	7	10000	2	1	0	2	1
97	516	7	10000	2	1	0	2	1
96	517	7	10000	2	1	0	2	1
93	518	7	10000	2	1	0	2	1
93	519	7	10000	2	1	0	2	1
96	520	7	10000	2	1	0	2	1
99	520	7	10000	2	1	0	2	1
100	521	7	10000	2	1	0	2	1
98	523	7	10000	2	1	0	2	1
102	524	7	10000	2	1	0	2	1
105	525	7	10000	2	1	0	2	1
105	526	7	10000	2	1	0	2	1
104	527	7	10000	2	1	0	2	1
101	528	7	10000	2	1	0	2	1
99	529	7	10000	2	1	0	2	1
96	530	7	10000	2	1	0	2	1
94	530	7	10000	2	1	0	2	1
92	531	7	10000	2	1	0	2	1
90	533	7	10000	2	1	0	2	1
89	534	7	10000	2	1	0	2	1
90	535	7	10000	2	1	0	2	1
92	536	7	10000	2	1	0	2	1
94	537	7	10000	2	1	0	2	1
91	538	7	10000	2	1	0	2	1
94	539	7	10000	2	1	0	2	1
93	540	7	10000	2	1	0	2	1
92	540	7	10000	2	1	0	2	1
94	541	7	10000	2	1	0	2	1
92	543	7	10000	2	1	0	2	1
97	544	7	10000	2	1	0	2	1
102	545	7	10000	2	1	0	2	1
100	546	7	10000	2	1	0	2	1
100	547	7	10000	2	1	0	2	1
100	548	7	10000	2	1	0	2	1
96	549	7	10000	2	1	0	2	1
94	550	7	10000	2	1	0	2	1
94	550	7	10000	2	1	0	2	1
92	551	7	10000	2	1	0	2	1
95	553	7	10000	2	1	0	2	0
93	554	7	10000	2	1	0	2	0
94	555	7	10000	2	1	0	2	0
96	556	7	10000	2	1	0	2	0
98	557	7	10000	2	1	0	2	0
97	558	7	10000	2	1	0	2	0
99	559	7	10000	2	1	0	2	0
103	560	7	10000	2	1	0	2	0
105	560	7	10000	2	1	0	2	0
107	561	7	10000	2	1	0	2	0
108	563	7	10000	2	1	0	2	0
116	564	7	10000	2	1	0	2	0
119	565	7	10000	2	1	0	2	0
116	566	7	10000	2	1	0	2	0
113	567	7	10000	2	1	0	2	0
111	568	7	10000	2	1	0	2	0
109	569	7	10000	2	1	0	2	0
107	570	7	10000	2	1	0	2	0
106	570	7	10000	2	1	0	2	0
106	571	7	10000	2	1	0	2	0
111	573	7	10000	2	1	0	2	0
114	574	7	10000	2	1	0	2	0
112	575	7	10000	2	1	0	2	0
113	576	7	10000	2	1	0	2	0
114	577	7	10000	2	1	0	2	0
112	578	7	10000	2	1	0	2	0
116	579	7	10000	2	1	0	2	0
117	580	7	10000	2	1	0	2	0
116	580	7	10000	2	1	0	2	0
115	581	7	10000	2	1	0	2	0
111	583	7	10000	2	1	0	2	0
116	584	7	10000	2	1	0	2	0
119	585	7	10000	2	1	0	2	0
117	586	7	10000	2	1	0	2	0
114	587	7	10000	2	1	0	2	0
110	588	7	10000	2	1	0	2	0
108	589	7	10000	2	1	0	2	0
103	590	7	10000	2	1	0	2	0
100	590	7	10000	2	1	0	2	0
100	591	7	10000	2	1	0	2	0
102	593	7	10000	2	1	0	2	0
105	594	7	10000	2	1	0	2	0
111	595	7	10000	2	1	0	2	0
113	596	7	10000	2	1	0	2	0
109	597	7	10000	2	1	0	2	0
105	598	7	10000	2	1	0	2	0
112	599	7	10000	2	1	0	2	0
113	600	7	10000	2	1	0	2	0
114	600	7	10000	2	1	0	2	0
122	601	7	10000	2	1	0	2	0
125	603	7	10000	2	1	0	2	0
121	604	7	10000	2	1	0	2	0
117	605	7	10000	2	1	0	2	0
119	606	7	10000	2	1	0	2	0
126	607	7	10000	2	1	0	2	0
135	608	7	10000	2	1	0	2	0
139	609	7	10000	2	1	0	2	0
141	610	7	10000	2	1	0	2	0
136	610	7	10000	2	1	0	2	0
148	611	7	10000	2	1	0	2	0
154	613	7	10000	2	1	0	2	0
152	614	7	10000	2	1	0	2	0
150	615	7	10000	2	1	0	2	0
151	616	7	10000	2	1	0	2	0
148	617	7	10000	2	1	0	2	0
147	618	7	10000	2	1	0	2	0
156	619	7	10000	2	1	0	2	0
166	620	7	10000	2	1	0	2	0
171	620	7	10000	2	1	0	2	0
172	621	7	10000	2	1	0	2	0
166	623	7	10000	2	1	0	2	0
166	624	7	10000	2	1	0	2	0
161	625	7	10000	2	1	0	2	0
156	626	7	10000	2	1	0	2	0
153	627	7	10000	2	1	0	2	0
157	628	7	10000	2	1	0	2	0
174	629	7	10000	2	1	0	2	0
182	630	7	10000	2	1	0	2	0
192	630	7	10000	2	1	0	2	0
219	631	7	10000	2	1	0	2	0
233	633	7	10000	2	1	0	2	0
233	634	7	10000	2	1	0	2	0
223	635	7	10000	2	1	0	2	0
216	636	7	10000	2	1	0	2	0
214	637	7	10000	2	1	0	2	0
206	638	7	10000	2	1	0	2	0
200	639	7	10000	2	1	0	2	0
194	640	7	10000	2	1	0	2	0
189	640	7	10000	2	1	0	2	0
185	641	7	10000	2	1	0	2	0
178	643	7	10000	2	1	0	2	0
182	644	7	10000	2	1	0	2	0
182	645	7	10000	2	1	0	2	0
179	646	7	10000	2	1	0	2	0
172	647	7	10000	2	1	0	2	0
165	648	7	10000	2	1	0	2	0
164	649	7	10000	2	1	0	2	0
161	650	7	10000	2	1	0	2	0
154	650	7	10000	2	1	0	2	0
151	651	7	10000	2	1	0	2	0
147	653	7	10000	2	1	0	2	0
144	654	7	10000	2	1	0	2	0
148	655	7	10000	2	1	0	2	0
152	656	7	10000	2	1	0	2	0
159	657	7	10000	2	1	0	2	0
158	658	7	10000	2	1	0	2	0
155	659	7	10000	2	1	0	2	0
150	660	7	10000	2	1	0	2	0
146	660	7	10000	2	1	0	2	0
141	661	7	10000	2	1	0	2	0
136	663	7	10000	2	1	0	2	0
137	664	7	10000	2	1	0	2	0
140	665	7	10000	2	1	0	2	0
138	666	7	10000	2	1	0	2	0
135	667	7	10000	2	1	0	2	0
131	668	7	10000	2	1	0	2	0
128	669	7	10000	2	1	0	2	0
126	670	7	10000	2	1	0	2	0
121	670	7	10000	2	1	0	2	0
120	671	7	10000	2	1	0	2	0
118	673	7	10000	2	1	0	2	0
116	674	7	10000	2	1	0	2	0
120	675	7	10000	2	1	0	2	0
123	676	7	10000	2	1	0	2	0
127	677	7	10000	2	1	0	2	0
125	678	7	10000	2	1	0	2	0
124	679	7	10000	2	1	0	2	0
121	680	7	10000	2	1	0	2	0
119	680	7	10000	2	1	0	2	0
113	681	7	10000	2	1	0	2	0
110	683	7	10000	2	1	0	2	0
119	684	7	10000	2	1	0	2	0
121	685	7	10000	2	1	0	2	0
117	686	7	10000	2	1	0	2	0
114	687	7	10000	2	1	0	2	0
111	688	7	10000	2	1	0	2	0
109	689	7	10000	2	1	0	2	0
106	690	7	10000	2	1	0	2	0
103	690	7	10000	2	1	0	2	0
103	691	7	10000	2	1	0	2	0
104	693	7	10000	2	1	0	2	0
103	694	7	10000	2	1	0	2	0
105	695	7	10000	2	1	0	2	0
103	696	7	10000	2	1	0	2	0
104	697	7	10000	2	1	0	2	0
101	698	7	10000	2	1	0	2	0
101	699	7	10000	2	1	0	2	0
106	700	7	10000	2	1	0	2	0
110	700	7	10000	2	1	0	2	0
115	701	7	10000	2	1	0	2	0
115	703	7	10000	2	1	0	2	0
118	704	7	10000	2	1	0	2	0
117	705	7	10000	2	1	0	2	0
114	706	7	10000	2	1	0	2	0
117	707	7	10000	2	1	0	2	0
118	708	7	10000	2	1	0	2	0
115	709	7	10000	2	1	0	2	0
111	710	7	10000	2	1	0	2	0
107	710	7	10000	2	1	0	2	0
105	711	7	10000	2	1	0	2	0
103	713	7	10000	2	1	0	2	0
100	714	7	10000	2	1	0	2	0
100	715	7	10000	2	1	0	2	0
102	716	7	10000	2	1	0	2	0
104	717	7	10000	2	1	0	2	0
103	718	7	10000	2	1	0	2	0
105	719	7	10000	2	1	0	2	0
109	720	7	10000	2	1	0	2	0
112	720	7	10000	2	1	0	2	0
115	721	7	10000	2	1	0	2	0
113	723	7	10000	2	1	0	2	0
119	724	7	10000	2	1	0	2	0
118	725	7	10000	2	1	0	2	0
116	726	7	10000	2	1	0	2	0
117	727	7	10000	2	1	0	2	0
114	728	7	10000	2	1	0	2	0
111	729	7	10000	2	1	0	2	0
110	730	7	10000	2	1	0	2	0
111	730	7	10000	2	1	0	2	0
110	731	7	10000	2	1	0	2	0
109	733	7	10000	2	1	0	2	0
106	734	7	10000	2	1	0	2	0
108	735	7	10000	2	1	0	2	0
109	736	7	10000	2	1	0	2	0
112	737	7	10000	2	1	0	2	0
111	738	7	10000	2	1	0	2	0
108	739	7	10000	2	1	0	2	0
107	740	7	10000	2	1	0	2	0
106	740	7	10000	2	1	0	2	0
110	741	7	10000	2	1	0	2	0
109	743	7	10000	2	1	0	2	0
111	744	7	10000	2	1	0	2	0
110	745	7	10000	2	1	0	2	0
107	746	7	10000	2	1	0	2	0
108	747	7	10000	2	1	0	2	0
108	748	7	10000	2	1	0	2	0
105	749	7	10000	2	1	0	2	0
104	750	7	10000	2	1	0	2	0
103	750	7	10000	2	1	0	2	0
102	751	7	10000	2	1	0	2	0
102	753	7	10000	2	1	0	2	0
101	754	7	10000	2	1	0	2	0
102	755	7	10000	2	1	0	2	0
102	756	7	10000	2	1	0	2	0
106	757	7	10000	2	1	0	2	0
104	758	7	10000	2	1	0	2	0
104	759	7	10000	2	1	0	2	0
106	760	7	10000	2	1	0	2	0
111	760	7	10000	2	1	0	2	0
111	761	7	10000	2	1	0	2	0
110	763	7	10000	2	1	0	2	0
114	764	7	10000	2	1	0	2	0
114	765	7	10000	2	1	0	2	0
111	766	7	10000	2	1	0	2	0
110	767	7	10000	2	1	0	2	0
105	768	7	10000	2	1	0	2	0
105	769	7	10000	2	1	0	2	0
101	770	7	10000	2	1	0	2	0
99	770	7	10000	2	1	0	2	0
99	771	7	10000	2	1	0	2	0
99	773	7	10000	2	1	0	2	0
97	774	7	10000	2	1	0	2	0
95	775	7	10000	2	1	0	2	0
92	776	7	10000	2	1	0	2	0
91	777	7	10000	2	1	0	2	0
86	778	7	10000	2	1	0	2	0
87	779	7	10000	2	1	0	2	0
88	780	7	10000	2	1	0	2	0
88	780	7	10000	2	1	0	2	0
89	781	7	10000	2	1	0	2	0
88	783	7	10000	2	1	0	2	0
93	784	7	10000	2	1	0	2	0
96	785	7	10000	2	1	0	2	0
95	786	7	10000	2	1	0	2	0
94	787	7	10000	2	1	0	2	0
94	788	7	10000	2	1	0	2	0
92	789	7	10000	2	1	0	2	0
91	790	7	10000	2	1	0	2	0
88	790	7	10000	2	1	0	2	0
86	791	7	10000	2	1	0	2	0
84	793	7	10000	2	1	0	2	0
85	794	7	10000	2	1	0	2	0
94	795	7	10000	2	1	0	2	0
97	796	7	10000	2	1	0	2	0
97	797	7	10000	2	1	0	2	0
93	798	7	10000	2	1	0	2	0
96	799	7	10000	2	1	0	2	0
101	800	7	10000	2	1	0	2	0
101	800	7	10000	2	1	0	2	0
99	801	7	10000	2	1	0	2	0
97	803	7	10000	2	1	0	2	0
103	804	7	10000	2	1	0	2	0
107	805	7	10000	2	1	0	2	0
108	806	7	10000	2	1	0	2	0
106	807	7	10000	2	1	0	2	0
104	808	7	10000	2	1	0	2	0
103	809	7	10000	2	1	0	2	0
99	810	7	10000	2	1	0	2	0
99	810	7	10000	2	1	0	2	0
98	811	7	10000	2	1	0	2	0
99	813	7	10000	2	1	0	2	0
99	814	7	10000	2	1	0	2	0
100	815	7	10000	2	1	0	2	0
103	816	7	10000	2	1	0	2	0
106	817	7	10000	2	1	0	2	0
103	818	7	10000	2	1	0	2	0
109	819	7	10000	2	1	0	2	0
113	820	7	10000	2	1	0	2	0
112	820	7	10000	2	1	0	2	0
111	821	7	10000	2	1	0	2	0
109	823	7	10000	2	1	0	2	0
111	824	7	10000	2	1	0	2	0
112	825	7	10000	2	1	0	2	0
110	826	7	10000	2	1	0	2	0
108	827	7	10000	2	1	0	2	0
104	828	7	10000	2	1	0	2	0
102	829	7	10000	2	1	0	2	0
99	830	7	10000	2	1	0	2	0
102	830	7	10000	2	1	0	2	0
102	831	7	10000	2	1	0	2	0
101	833	7	10000	2	1	0	2	0
101	834	7	10000	2	1	0	2	0
109	835	7	10000	2	1	0	2	0
110	836	7	10000	2	1	0	2	0
114	837	7	10000	2	1	0	2	0
112	838	7	10000	2	1	0	2	0
113	839	7	10000	2	1	0	2	0
116	840	7	10000	2	1	0	2	0
116	840	7	10000	2	1	0	2	0
118	841	7	10000	2	1	0	2	0
115	843	7	10000	2	1	0	2	0
119	844	7	10000	2	1	0	2	0
122	845	7	10000	2	1	0	2	0
119	846	7	10000	2	1	0	2	0
120	847	7	10000	2	1	0	2	0
120	848	7	10000	2	1	0	2	0
118	849	7	10000	2	1	0	2	0
115	850	7	10000	2	1	0	2	0
112	850	7	10000	2	1	0	2	0
109	851	7	10000	2	1	0	2	0
107	853	7	10000	2	1	0	2	0
106	854	7	10000	2	1	0	2	0
106	855	7	10000	2	1	0	2	0
107	856	7	10000	2	1	0	2	0
110	857	7	10000	2	1	0	2	0
106	858	7	10000	2	1	0	2	0
109	859	7	10000	2	1	0	2	0
111	860	7	10000	2	1	0	2	0
108	860	7	10000	2	1	0	2	0
110	861	7	10000	2	1	0	2	0
107	863	7	10000	2	1	0	2	0
109	864	7	10000	2	1	0	2	0
111	865	7	10000	2	1	0	2	0
109	866	7	10000	2	1	0	2	0
111	867	7	10000	2	1	0	2	0
109	868	7	10000	2	1	0	2	0
106	869	7	10000	2	1	0	2	0
104	870	7	10000	2	1	0	2	0
104	870	7	10000	2	1	0	2	0
100	871	7	10000	2	1	0	2	0
99	873	7	10000	2	1	0	2	0
98	874	7	10000	2	1	0	2	0
97	875	7	10000	2	1	0	2	0
100	876	7	10000	2	1	0	2	0
100	877	7	10000	2	1	0	2	0
97	878	7	10000	2	1	0	2	0
99	879	7	10000	2	1	0	2	0
104	880	7	10000	2	1	0	2	0
104	880	7	10000	2	1	0	2	0
104	881	7	10000	2	1	0	2	0
101	883	7	10000	2	1	0	2	0
109	884	7	10000	2	1	0	2	0
116	885	7	10000	2	1	0	2	0
114	886	7	10000	2	1	0	2	0
116	887	7	10000	2	1	0	2	0
114	888	7	10000	2	1	0	2	0
110	889	7	10000	2	1	0	2	0
109	890	7	10000	2	1	0	2	0
109	890	7	10000	2	1	0	2	0
108	891	7	10000	2	1	0	2	0
106	893	7	10000	2	1	0	2	0
105	894	7	10000	2	1	0	2	0
108	895	7	10000	2	1	0	2	0
108	896	7	10000	2	1	0	2	0
112	897	7	10000	2	1	0	2	0
110	898	7	10000	2	1	0	2	0
109	899	7	10000	2	1	0	2	0
113	900	7	10000	2	1	0	2	0
115	900	7	10000	2	1	0	2	0
118	901	7	10000	2	1	0	2	0
116	903	7	10000	2	1	0	2	0
122	904	7	10000	2	1	0	2	0
123	905	7	10000	2	1	0	2	0
118	906	7	10000	2	1	0	2	0
115	907	7	10000	2	1	0	2	0
111	908	7	10000	2	1	0	2	0
108	909	7	10000	2	1	0	2	0
105	910	7	10000	2	1	0	2	0
103	910	7	10000	2	1	0	2	0
104	911	7	10000	2	1	0	2	0
105	913	7	10000	2	1	0	2	0
106	914	7	10000	2	1	0	2	0
108	915	7	10000	2	1	0	2	0
110	916	7	10000	2	1	0	2	0
114	917	7	10000	2	1	0	2	0
111	918	7	10000	2	1	0	2	0
110	919	7	10000	2	1	0	2	0
110	920	7	10000	2	1	0	2	0
108	920	7	10000	2	1	0	2	0
107	921	7	10000	2	1	0	2	0
105	923	7	10000	2	1	0	2	0
110	924	7	10000	2	1	0	2	0
113	925	7	10000	2	1	0	2	0
111	926	7	10000	2	1	0	2	0
109	927	7	10000	2	1	0	2	0
107	928	7	10000	2	1	0	2	0
105	929	7	10000	2	1	0	2	0
102	930	7	10000	2	1	0	2	0
99	930	7	10000	2	1	0	2	0
96	931	7	10000	2	1	0	2	0
95	933	7	10000	2	1	0	2	0
93	934	7	10000	2	1	0	2	0
95	935	7	10000	2	1	0	2	0
97	936	7	10000	2	1	0	2	0
100	937	7	10000	2	1	0	2	0
97	938	7	10000	2	1	0	2	0
99	939	7	10000	2	1	0	2	0
103	940	7	10000	2	1	0	2	0
103	940	7	10000	2	1	0	2	0
105	941	7	10000	2	1	0	2	0
103	943	7	10000	2	1	0	2	0
109	944	7	10000	2	1	0	2	0
111	945	7	10000	2	1	0	2	0
109	946	7	10000	2	1	0	2	0
107	947	7	10000	2	1	0	2	0
104	948	7	10000	2	1	0	2	0
101	949	7	10000	2	1	0	2	0
99	950	7	10000	2	1	0	2	0
99	950	7	10000	2	1	0	2	0
100	951	7	10000	2	1	0	2	0
101	953	7	10000	2	1	0	2	0
101	954	7	10000	2	1	0	2	0
105	955	7	10000	2	1	0	2	0
109	956	7	10000	2	1	0	2	0
112	957	7	10000	2	1	0	2	0
108	958	7	10000	2	1	0	2	0
107	959	7	10000	2	1	0	2	0
109	960	7	10000	2	1	0	2	0
108	960	7	10000	2	1	0	2	0
109	961	7	10000	2	1	0	2	0
106	963	7	10000	2	1	0	2	0
108	964	7	10000	2	1	0	2	0
109	965	7	10000	2	1	0	2	0
107	966	7	10000	2	1	0	2	0
107	967	7	10000	2	1	0	2	0
108	968	7	10000	2	1	0	2	0
105	969	7	10000	2	1	0	2	0
103	970	7	10000	2	1	0	2	0
100	970	7	10000	2	1	0	2	0
99	971	7	10000	2	1	0	2	0
98	973	7	10000	2	1	0	2	0
96	974	7	10000	2	1	0	2	0
99	975	7	10000	2	1	0	2	0
100	976	7	10000	2	1	0	2	0
102	977	7	10000	2	1	0	2	0
98	978	7	10000	2	1	0	2	0
98	979	7	10000	2	1	0	2	0
101	980	7	10000	2	1	0	2	0
101	980	7	10000	2	1	0	2	0
103	981	7	10000	2	1	0	2	0
99	983	7	10000	2	1	0	2	0
106	984	7	10000	2	1	0	2	0
111	985	7	10000	2	1	0	2	0
110	986	7	10000	2	1	0	2	0
108	987	7	10000	2	1	0	2	0
104	988	7	10000	2	1	0	2	0
101	989	7	10000	2	1	0	2	0
100	990	7	10000	2	1	0	2	0
98	990	7	10000	2	1	0	2	0
94	991	7	10000	2	1	0	2	0
92	993	7	10000	2	1	0	2	0
90	994	7	10000	2	1	0	2	0
96	995	7	10000	2	1	0	2	0
97	996	7	10000	2	1	0	2	0
98	997	7	10000	2	1	0	2	0
95	998	7	10000	2	1	0	2	0
98	999	7	10000	2	1	0	2	0
104	1000	7	10000	2	1	0	2	0
105	1000	7	10000	2	1	0	2	0
109	1001	7	10000	2	1	0	2	0
116	1	7	10000	3	1	0	3	0
119	2	7	10000	3	1	0	3	0
119	3	7	10000	3	1	0	3	0
121	4	7	10000	3	1	0	3	0
119	5	7	10000	3	1	0	3	0
127	6	7	10000	3	1	0	3	0
133	7	7	10000	3	1	0	3	0
131	8	7	10000	3	1	0	3	0
127	9	7	10000	3	1	0	3	0
123	10	7	10000	3	1	0	3	0
120	11	7	10000	3	1	0	3	0
116	12	7	10000	3	1	0	3	0
112	13	7	10000	3	1	0	3	0
108	14	7	10000	3	1	0	3	0
105	15	7	10000	3	1	0	3	0
103	16	7	10000	3	1	0	3	0
105	17	7	10000	3	1	0	3	0
105	18	7	10000	3	1	0	3	0
106	19	7	10000	3	1	0	3	0
104	20	7	10000	3	1	0	3	0
108	21	7	10000	3	1	0	3	0
113	22	7	10000	3	1	0	3	0
111	23	7	10000	3	1	0	3	0
108	24	7	10000	3	1	0	3	0
105	25	7	10000	3	1	0	3	0
113	26	7	10000	3	1	0	3	0
119	27	7	10000	3	1	0	3	0
118	28	7	10000	3	1	0	3	0
116	29	7	10000	3	1	0	3	0
113	30	7	10000	3	1	0	3	0
111	31	7	10000	3	1	0	3	0
109	32	7	10000	3	1	0	3	0
108	33	7	10000	3	1	0	3	0
107	34	7	10000	3	1	0	3	0
104	35	7	10000	3	1	0	3	0
103	36	7	10000	3	1	0	3	0
109	37	7	10000	3	1	0	3	0
113	38	7	10000	3	1	0	3	0
115	39	7	10000	3	1	0	3	0
111	40	7	10000	3	1	0	3	0
112	41	7	10000	3	1	0	3	0
115	42	7	10000	3	1	0	3	0
115	43	7	10000	3	1	0	3	0
113	44	7	10000	3	1	0	3	0
111	45	7	10000	3	1	0	3	0
116	46	7	10000	3	1	0	3	0
118	47	7	10000	3	1	0	3	0
116	48	7	10000	3	1	0	3	0
115	49	7	10000	3	1	0	3	0
111	50	7	10000	3	1	0	3	0
107	51	7	10000	3	1	0	3	0
105	52	7	10000	3	1	0	3	0
105	53	7	10000	3	1	0	3	0
104	54	7	10000	3	1	0	3	0
104	55	7	10000	3	1	0	3	0
102	56	7	10000	3	1	0	3	0
103	57	7	10000	3	1	0	3	0
102	58	7	10000	3	1	0	3	0
101	59	7	10000	3	1	0	3	0
97	60	7	10000	3	1	0	3	0
96	61	7	10000	3	1	0	3	0
101	62	7	10000	3	1	0	3	0
102	63	7	10000	3	1	0	3	0
104	64	7	10000	3	1	0	3	0
101	65	7	10000	3	1	0	3	0
108	66	7	10000	3	1	0	3	0
116	67	7	10000	3	1	0	3	0
117	68	7	10000	3	1	0	3	0
113	69	7	10000	3	1	0	3	0
108	70	7	10000	3	1	0	3	0
106	71	7	10000	3	1	0	3	0
105	72	7	10000	3	1	0	3	0
100	73	7	10000	3	1	0	3	0
98	74	7	10000	3	1	0	3	0
96	75	7	10000	3	1	0	3	0
95	76	7	10000	3	1	0	3	0
97	77	7	10000	3	1	0	3	0
98	78	7	10000	3	1	0	3	0
102	79	7	10000	3	1	0	3	0
99	80	7	10000	3	1	0	3	0
98	81	7	10000	3	1	0	3	0
99	82	7	10000	3	1	0	3	0
98	83	7	10000	3	1	0	3	0
96	84	7	10000	3	1	0	3	0
94	85	7	10000	3	1	0	3	0
104	86	7	10000	3	1	0	3	0
111	87	7	10000	3	1	0	3	0
116	88	7	10000	3	1	0	3	0
114	89	7	10000	3	1	0	3	0
108	90	7	10000	3	1	0	3	0
104	91	7	10000	3	1	0	3	0
101	92	7	10000	3	1	0	3	0
97	93	7	10000	3	1	0	3	0
94	94	7	10000	3	1	0	3	0
93	95	7	10000	3	1	0	3	0
92	96	7	10000	3	1	0	3	0
99	97	7	10000	3	1	0	3	0
104	98	7	10000	3	1	0	3	0
110	99	7	10000	3	1	0	3	0
105	100	7	10000	3	1	0	3	0
107	101	7	10000	3	1	0	3	0
112	102	7	10000	3	1	0	3	0
113	103	7	10000	3	1	0	3	0
116	104	7	10000	3	1	0	3	0
115	105	7	10000	3	1	0	3	0
117	106	7	10000	3	1	0	3	0
117	107	7	10000	3	1	0	3	0
115	108	7	10000	3	1	0	3	0
113	109	7	10000	3	1	0	3	0
112	110	7	10000	3	1	0	3	0
109	111	7	10000	3	1	0	3	0
106	112	7	10000	3	1	0	3	0
104	113	7	10000	3	1	0	3	0
104	114	7	10000	3	1	0	3	0
105	115	7	10000	3	1	0	3	0
103	116	7	10000	3	1	0	3	0
104	117	7	10000	3	1	0	3	0
103	118	7	10000	3	1	0	3	0
105	119	7	10000	3	1	0	3	0
102	120	7	10000	3	1	0	3	0
104	121	7	10000	3	1	0	3	0
106	122	7	10000	3	1	0	3	0
108	123	7	10000	3	1	0	3	0
109	124	7	10000	3	1	0	3	0
109	125	7	10000	3	1	0	3	0
112	126	7	10000	3	1	0	3	0
116	127	7	10000	3	1	0	3	0
114	128	7	10000	3	1	0	3	0
114	129	7	10000	3	1	0	3	0
112	130	7	10000	3	1	0	3	0
111	131	7	10000	3	1	0	3	0
107	132	7	10000	3	1	0	3	0
105	133	7	10000	3	1	0	3	0
102	134	7	10000	3	1	0	3	0
100	135	7	10000	3	1	0	3	0
100	136	7	10000	3	1	0	3	0
103	137	7	10000	3	1	0	3	0
107	138	7	10000	3	1	0	3	0
111	139	7	10000	3	1	0	3	0
107	140	7	10000	3	1	0	3	0
107	141	7	10000	3	1	0	3	0
109	142	7	10000	3	1	0	3	0
107	143	7	10000	3	1	0	3	0
109	144	7	10000	3	1	0	3	0
106	145	7	10000	3	1	0	3	0
113	146	7	10000	3	1	0	3	0
116	147	7	10000	3	1	0	3	0
116	148	7	10000	3	1	0	3	0
116	149	7	10000	3	1	0	3	0
113	150	7	10000	3	1	0	3	0
111	151	7	10000	3	1	0	3	0
108	152	7	10000	3	1	0	3	0
103	153	7	10000	3	1	0	3	0
100	154	7	10000	3	1	0	3	0
99	155	7	10000	3	1	0	3	0
96	156	7	10000	3	1	0	3	0
101	157	7	10000	3	1	0	3	0
101	158	7	10000	3	1	0	3	0
104	159	7	10000	3	1	0	3	0
102	160	7	10000	3	1	0	3	0
103	161	7	10000	3	1	0	3	0
112	162	7	10000	3	1	0	3	0
117	163	7	10000	3	1	0	3	0
121	164	7	10000	3	1	0	3	0
119	165	7	10000	3	1	0	3	0
123	166	7	10000	3	1	0	3	0
122	167	7	10000	3	1	0	3	0
118	168	7	10000	3	1	0	3	0
120	169	7	10000	3	1	0	3	0
118	170	7	10000	3	1	0	3	0
116	171	7	10000	3	1	0	3	0
113	172	7	10000	3	1	0	3	0
113	173	7	10000	3	1	0	3	0
114	174	7	10000	3	1	0	3	0
114	175	7	10000	3	1	0	3	0
113	176	7	10000	3	1	0	3	0
116	177	7	10000	3	1	0	3	0
117	178	7	10000	3	1	0	3	0
122	179	7	10000	3	1	0	3	0
118	180	7	10000	3	1	0	3	0
119	181	7	10000	3	1	0	3	0
128	182	7	10000	3	1	0	3	0
133	183	7	10000	3	1	0	3	0
141	184	7	10000	3	1	0	3	0
140	185	7	10000	3	1	0	3	0
142	186	7	10000	3	1	0	3	0
141	187	7	10000	3	1	0	3	0
136	188	7	10000	3	1	0	3	0
134	189	7	10000	3	1	0	3	0
131	190	7	10000	3	1	0	3	0
128	191	7	10000	3	1	0	3	0
124	192	7	10000	3	1	0	3	0
121	193	7	10000	3	1	0	3	0
117	194	7	10000	3	1	0	3	0
113	195	7	10000	3	1	0	3	0
113	196	7	10000	3	1	0	3	0
119	197	7	10000	3	1	0	3	0
122	198	7	10000	3	1	0	3	0
127	199	7	10000	3	1	0	3	0
122	200	7	10000	3	1	0	3	0
119	201	7	10000	3	1	0	3	0
120	202	7	10000	3	1	0	3	0
116	203	7	10000	3	1	0	3	0
116	204	7	10000	3	1	0	3	0
114	205	7	10000	3	1	0	3	0
118	206	7	10000	3	1	0	3	0
125	207	7	10000	3	1	0	3	0
126	208	7	10000	3	1	0	3	0
124	209	7	10000	3	1	0	3	0
121	210	7	10000	3	1	0	3	0
118	211	7	10000	3	1	0	3	0
116	212	7	10000	3	1	0	3	0
112	213	7	10000	3	1	0	3	0
108	214	7	10000	3	1	0	3	0
105	215	7	10000	3	1	0	3	0
102	216	7	10000	3	1	0	3	0
102	217	7	10000	3	1	0	3	0
102	218	7	10000	3	1	0	3	0
106	219	7	10000	3	1	0	3	0
104	220	7	10000	3	1	0	3	0
104	221	7	10000	3	1	0	3	0
110	222	7	10000	3	1	0	3	0
109	223	7	10000	3	1	0	3	0
113	224	7	10000	3	1	0	3	0
114	225	7	10000	3	1	0	3	0
115	226	7	10000	3	1	0	3	0
116	227	7	10000	3	1	0	3	0
115	228	7	10000	3	1	0	3	0
114	229	7	10000	3	1	0	3	0
110	230	7	10000	3	1	0	3	0
106	231	7	10000	3	1	0	3	0
103	232	7	10000	3	1	0	3	0
103	233	7	10000	3	1	0	3	0
102	234	7	10000	3	1	0	3	0
100	235	7	10000	3	1	0	3	0
99	236	7	10000	3	1	0	3	0
104	237	7	10000	3	1	0	3	0
104	238	7	10000	3	1	0	3	0
107	239	7	10000	3	1	0	3	0
107	240	7	10000	3	1	0	3	0
112	241	7	10000	3	1	0	3	0
120	242	7	10000	3	1	0	3	0
116	243	7	10000	3	1	0	3	0
113	244	7	10000	3	1	0	3	0
109	245	7	10000	3	1	0	3	0
121	246	7	10000	3	1	0	3	0
127	247	7	10000	3	1	0	3	0
129	248	7	10000	3	1	0	3	0
124	249	7	10000	3	1	0	3	0
119	250	7	10000	3	1	0	3	0
118	251	7	10000	3	1	0	3	0
116	252	7	10000	3	1	0	3	0
112	253	7	10000	3	1	0	3	0
109	254	7	10000	3	1	0	3	0
107	255	7	10000	3	1	0	3	0
105	256	7	10000	3	1	0	3	0
108	257	7	10000	3	1	0	3	0
109	258	7	10000	3	1	0	3	0
111	259	7	10000	3	1	0	3	0
105	260	7	10000	3	1	0	3	0
104	261	7	10000	3	1	0	3	0
108	262	7	10000	3	1	0	3	0
107	263	7	10000	3	1	0	3	0
108	264	7	10000	3	1	0	3	0
104	265	7	10000	3	1	0	3	0
110	266	7	10000	3	1	0	3	0
111	267	7	10000	3	1	0	3	0
111	268	7	10000	3	1	0	3	0
109	269	7	10000	3	1	0	3	0
108	270	7	10000	3	1	0	3	0
105	271	7	10000	3	1	0	3	0
103	272	7	10000	3	1	0	3	0
101	273	7	10000	3	1	0	3	0
96	274	7	10000	3	1	0	3	0
96	275	7	10000	3	1	0	3	0
95	276	7	10000	3	1	0	3	0
98	277	7	10000	3	1	0	3	0
98	278	7	10000	3	1	0	3	0
103	279	7	10000	3	1	0	3	0
100	280	7	10000	3	1	0	3	0
100	281	7	10000	3	1	0	3	0
103	282	7	10000	3	1	0	3	0
100	283	7	10000	3	1	0	3	0
101	284	7	10000	3	1	0	3	0
99	285	7	10000	3	1	0	3	0
106	286	7	10000	3	1	0	3	0
109	287	7	10000	3	1	0	3	0
110	288	7	10000	3	1	0	3	0
108	289	7	10000	3	1	0	3	0
108	290	7	10000	3	1	0	3	0
105	291	7	10000	3	1	0	3	0
101	292	7	10000	3	1	0	3	0
99	293	7	10000	3	1	0	3	0
95	294	7	10000	3	1	0	3	0
93	295	7	10000	3	1	0	3	0
92	296	7	10000	3	1	0	3	0
95	297	7	10000	3	1	0	3	0
96	298	7	10000	3	1	0	3	0
101	299	7	10000	3	1	0	3	0
96	300	7	10000	3	1	0	3	0
96	301	7	10000	3	1	0	3	0
99	302	7	10000	3	1	0	3	0
98	303	7	10000	3	1	0	3	0
101	304	7	10000	3	1	0	3	0
101	305	7	10000	3	1	0	3	0
107	306	7	10000	3	1	0	3	0
109	307	7	10000	3	1	0	3	0
105	308	7	10000	3	1	0	3	0
104	309	7	10000	3	1	0	3	0
100	310	7	10000	3	1	0	3	0
98	311	7	10000	3	1	0	3	0
100	312	7	10000	3	1	0	3	0
102	313	7	10000	3	1	0	3	0
101	314	7	10000	3	1	0	3	0
102	315	7	10000	3	1	0	3	0
101	316	7	10000	3	1	0	3	0
103	317	7	10000	3	1	0	3	0
103	318	7	10000	3	1	0	3	0
109	319	7	10000	3	1	0	3	0
108	320	7	10000	3	1	0	3	0
108	321	7	10000	3	1	0	3	0
112	322	7	10000	3	1	0	3	0
114	323	7	10000	3	1	0	3	0
118	324	7	10000	3	1	0	3	0
116	325	7	10000	3	1	0	3	0
118	326	7	10000	3	1	0	3	0
123	327	7	10000	3	1	0	3	0
123	328	7	10000	3	1	0	3	0
120	329	7	10000	3	1	0	3	0
116	330	7	10000	3	1	0	3	0
114	331	7	10000	3	1	0	3	0
110	332	7	10000	3	1	0	3	0
113	333	7	10000	3	1	0	3	0
116	334	7	10000	3	1	0	3	0
114	335	7	10000	3	1	0	3	0
112	336	7	10000	3	1	0	3	0
118	337	7	10000	3	1	0	3	0
120	338	7	10000	3	1	0	3	0
124	339	7	10000	3	1	0	3	0
120	340	7	10000	3	1	0	3	0
119	341	7	10000	3	1	0	3	0
119	342	7	10000	3	1	0	3	0
116	343	7	10000	3	1	0	3	0
113	344	7	10000	3	1	0	3	0
108	345	7	10000	3	1	0	3	0
117	346	7	10000	3	1	0	3	0
125	347	7	10000	3	1	0	3	0
127	348	7	10000	3	1	0	3	0
124	349	7	10000	3	1	0	3	0
122	350	7	10000	3	1	0	3	0
119	351	7	10000	3	1	0	3	0
116	352	7	10000	3	1	0	3	0
115	353	7	10000	3	1	0	3	0
120	354	7	10000	3	1	0	3	0
119	355	7	10000	3	1	0	3	0
117	356	7	10000	3	1	0	3	0
118	357	7	10000	3	1	0	3	0
113	358	7	10000	3	1	0	3	0
109	359	7	10000	3	1	0	3	0
114	360	7	10000	3	1	0	3	0
123	361	7	10000	3	1	0	3	0
131	362	7	10000	3	1	0	3	0
132	363	7	10000	3	1	0	3	0
132	364	7	10000	3	1	0	3	0
126	365	7	10000	3	1	0	3	0
126	366	7	10000	3	1	0	3	0
125	367	7	10000	3	1	0	3	0
122	368	7	10000	3	1	0	3	0
126	369	7	10000	3	1	0	3	0
134	370	7	10000	3	1	0	3	0
142	371	7	10000	3	1	0	3	0
143	372	7	10000	3	1	0	3	0
146	373	7	10000	3	1	0	3	0
158	374	7	10000	3	1	0	3	0
172	375	7	10000	3	1	0	3	0
181	376	7	10000	3	1	0	3	0
179	377	7	10000	3	1	0	3	0
181	378	7	10000	3	1	0	3	0
173	379	7	10000	3	1	0	3	0
172	380	7	10000	3	1	0	3	0
179	381	7	10000	3	1	0	3	0
191	382	7	10000	3	1	0	3	0
198	383	7	10000	3	1	0	3	0
204	384	7	10000	3	1	0	3	0
205	385	7	10000	3	1	0	3	0
198	386	7	10000	3	1	0	3	0
192	387	7	10000	3	1	0	3	0
187	388	7	10000	3	1	0	3	0
188	389	7	10000	3	1	0	3	0
185	390	7	10000	3	1	0	3	0
187	391	7	10000	3	1	0	3	0
189	392	7	10000	3	1	0	3	0
183	393	7	10000	3	1	0	3	0
176	394	7	10000	3	1	0	3	0
172	395	7	10000	3	1	0	3	0
167	396	7	10000	3	1	0	3	0
162	397	7	10000	3	1	0	3	0
159	398	7	10000	3	1	0	3	0
162	399	7	10000	3	1	0	3	0
156	400	7	10000	3	1	0	3	0
153	401	7	10000	3	1	0	3	0
154	402	7	10000	3	1	0	3	0
151	403	7	10000	3	1	0	3	0
149	404	7	10000	3	1	0	3	0
143	405	7	10000	3	1	0	3	0
154	406	7	10000	3	1	0	3	0
163	407	7	10000	3	1	0	3	0
166	408	7	10000	3	1	0	3	0
161	409	7	10000	3	1	0	3	0
159	410	7	10000	3	1	0	3	0
156	411	7	10000	3	1	0	3	0
155	412	7	10000	3	1	0	3	0
153	413	7	10000	3	1	0	3	0
153	414	7	10000	3	1	0	3	0
153	415	7	10000	3	1	0	3	0
155	416	7	10000	3	1	0	3	0
167	417	7	10000	3	1	0	3	0
173	418	7	10000	3	1	0	3	0
177	419	7	10000	3	1	0	3	0
177	420	7	10000	3	1	0	3	0
174	421	7	10000	3	1	0	3	0
170	422	7	10000	3	1	0	3	0
166	423	7	10000	3	1	0	3	0
162	424	7	10000	3	1	0	3	0
156	425	7	10000	3	1	0	3	0
161	426	7	10000	3	1	0	3	0
165	427	7	10000	3	1	0	3	0
168	428	7	10000	3	1	0	3	0
163	429	7	10000	3	1	0	3	0
159	430	7	10000	3	1	0	3	0
159	431	7	10000	3	1	0	3	0
154	432	7	10000	3	1	0	3	0
149	433	7	10000	3	1	0	3	0
146	434	7	10000	3	1	0	3	0
146	435	7	10000	3	1	0	3	0
143	436	7	10000	3	1	0	3	0
151	437	7	10000	3	1	0	3	0
157	438	7	10000	3	1	0	3	0
165	439	7	10000	3	1	0	3	0
165	440	7	10000	3	1	0	3	0
162	441	7	10000	3	1	0	3	0
162	442	7	10000	3	1	0	3	0
158	443	7	10000	3	1	0	3	0
155	444	7	10000	3	1	0	3	0
150	445	7	10000	3	1	0	3	0
159	446	7	10000	3	1	0	3	0
164	447	7	10000	3	1	0	3	0
165	448	7	10000	3	1	0	3	0
159	449	7	10000	3	1	0	3	0
152	450	7	10000	3	1	0	3	0
149	451	7	10000	3	1	0	3	0
148	452	7	10000	3	1	0	3	0
149	453	7	10000	3	1	0	3	0
146	454	7	10000	3	1	0	3	0
144	455	7	10000	3	1	0	3	0
141	456	7	10000	3	1	0	3	0
142	457	7	10000	3	1	0	3	0
138	458	7	10000	3	1	0	3	0
135	459	7	10000	3	1	0	3	0
131	460	7	10000	3	1	0	3	0
129	461	7	10000	3	1	0	3	0
134	462	7	10000	3	1	0	3	0
132	463	7	10000	3	1	0	3	0
132	464	7	10000	3	1	0	3	0
128	465	7	10000	3	1	0	3	0
131	466	7	10000	3	1	0	3	0
136	467	7	10000	3	1	0	3	0
138	468	7	10000	3	1	0	3	0
135	469	7	10000	3	1	0	3	0
131	470	7	10000	3	1	0	3	0
129	471	7	10000	3	1	0	3	0
125	472	7	10000	3	1	0	3	0
121	473	7	10000	3	1	0	3	0
119	474	7	10000	3	1	0	3	0
116	475	7	10000	3	1	0	3	0
113	476	7	10000	3	1	0	3	0
119	477	7	10000	3	1	0	3	0
121	478	7	10000	3	1	0	3	0
124	479	7	10000	3	1	0	3	0
118	480	7	10000	3	1	0	3	0
116	481	7	10000	3	1	0	3	0
122	482	7	10000	3	1	0	3	0
119	483	7	10000	3	1	0	3	0
117	484	7	10000	3	1	0	3	0
113	485	7	10000	3	1	0	3	0
117	486	7	10000	3	1	0	3	0
125	487	7	10000	3	1	0	3	0
129	488	7	10000	3	1	0	3	0
126	489	7	10000	3	1	0	3	0
124	490	7	10000	3	1	0	3	0
122	491	7	10000	3	1	0	3	0
117	492	7	10000	3	1	0	3	0
113	493	7	10000	3	1	0	3	0
111	494	7	10000	3	1	0	3	0
108	495	7	10000	3	1	0	3	0
105	496	7	10000	3	1	0	3	0
110	497	7	10000	3	1	0	3	0
113	498	7	10000	3	1	0	3	0
118	499	7	10000	3	1	0	3	0
116	500	7	10000	3	1	0	3	0
114	501	7	10000	3	1	0	3	1
119	502	7	10000	3	1	0	3	1
119	503	7	10000	3	1	0	3	1
124	504	7	10000	3	1	0	3	1
123	505	7	10000	3	1	0	3	1
126	506	7	10000	3	1	0	3	1
122	507	7	10000	3	1	0	3	1
118	508	7	10000	3	1	0	3	1
117	509	7	10000	3	1	0	3	1
115	510	7	10000	3	1	0	3	1
112	511	7	10000	3	1	0	3	1
106	512	7	10000	3	1	0	3	1
102	513	7	10000	3	1	0	3	1
99	514	7	10000	3	1	0	3	1
97	515	7	10000	3	1	0	3	1
95	516	7	10000	3	1	0	3	1
100	517	7	10000	3	1	0	3	1
102	518	7	10000	3	1	0	3	1
106	519	7	10000	3	1	0	3	1
104	520	7	10000	3	1	0	3	1
102	521	7	10000	3	1	0	3	1
104	522	7	10000	3	1	0	3	1
102	523	7	10000	3	1	0	3	1
103	524	7	10000	3	1	0	3	1
101	525	7	10000	3	1	0	3	1
107	526	7	10000	3	1	0	3	1
115	527	7	10000	3	1	0	3	1
119	528	7	10000	3	1	0	3	1
115	529	7	10000	3	1	0	3	1
110	530	7	10000	3	1	0	3	1
107	531	7	10000	3	1	0	3	1
104	532	7	10000	3	1	0	3	1
102	533	7	10000	3	1	0	3	1
99	534	7	10000	3	1	0	3	1
97	535	7	10000	3	1	0	3	1
95	536	7	10000	3	1	0	3	1
103	537	7	10000	3	1	0	3	1
106	538	7	10000	3	1	0	3	1
113	539	7	10000	3	1	0	3	1
111	540	7	10000	3	1	0	3	1
109	541	7	10000	3	1	0	3	1
117	542	7	10000	3	1	0	3	1
117	543	7	10000	3	1	0	3	1
120	544	7	10000	3	1	0	3	1
119	545	7	10000	3	1	0	3	1
120	546	7	10000	3	1	0	3	1
121	547	7	10000	3	1	0	3	1
118	548	7	10000	3	1	0	3	1
122	549	7	10000	3	1	0	3	1
124	550	7	10000	3	1	0	3	1
123	551	7	10000	3	1	0	3	0
121	552	7	10000	3	1	0	3	0
125	553	7	10000	3	1	0	3	0
122	554	7	10000	3	1	0	3	0
122	555	7	10000	3	1	0	3	0
122	556	7	10000	3	1	0	3	0
120	557	7	10000	3	1	0	3	0
116	558	7	10000	3	1	0	3	0
118	559	7	10000	3	1	0	3	0
115	560	7	10000	3	1	0	3	0
114	561	7	10000	3	1	0	3	0
117	562	7	10000	3	1	0	3	0
118	563	7	10000	3	1	0	3	0
124	564	7	10000	3	1	0	3	0
123	565	7	10000	3	1	0	3	0
123	566	7	10000	3	1	0	3	0
123	567	7	10000	3	1	0	3	0
123	568	7	10000	3	1	0	3	0
123	569	7	10000	3	1	0	3	0
119	570	7	10000	3	1	0	3	0
117	571	7	10000	3	1	0	3	0
112	572	7	10000	3	1	0	3	0
114	573	7	10000	3	1	0	3	0
113	574	7	10000	3	1	0	3	0
112	575	7	10000	3	1	0	3	0
112	576	7	10000	3	1	0	3	0
109	577	7	10000	3	1	0	3	0
110	578	7	10000	3	1	0	3	0
113	579	7	10000	3	1	0	3	0
121	580	7	10000	3	1	0	3	0
130	581	7	10000	3	1	0	3	0
143	582	7	10000	3	1	0	3	0
148	583	7	10000	3	1	0	3	0
181	584	7	10000	3	1	0	3	0
223	585	7	10000	3	1	0	3	0
226	586	7	10000	3	1	0	3	0
243	587	7	10000	3	1	0	3	0
257	588	7	10000	3	1	0	3	0
262	589	7	10000	3	1	0	3	0
289	590	7	10000	3	1	0	3	0
320	591	7	10000	3	1	0	3	0
321	592	7	10000	3	1	0	3	0
319	593	7	10000	3	1	0	3	0
322	594	7	10000	3	1	0	3	0
339	595	7	10000	3	1	0	3	0
348	596	7	10000	3	1	0	3	0
345	597	7	10000	3	1	0	3	0
369	598	7	10000	3	1	0	3	0
362	599	7	10000	3	1	0	3	0
349	600	7	10000	3	1	0	3	0
345	601	7	10000	3	1	0	3	0
345	602	7	10000	3	1	0	3	0
345	603	7	10000	3	1	0	3	0
364	604	7	10000	3	1	0	3	0
358	605	7	10000	3	1	0	3	0
345	606	7	10000	3	1	0	3	0
355	607	7	10000	3	1	0	3	0
389	608	7	10000	3	1	0	3	0
382	609	7	10000	3	1	0	3	0
394	610	7	10000	3	1	0	3	0
414	611	7	10000	3	1	0	3	0
423	612	7	10000	3	1	0	3	0
410	613	7	10000	3	1	0	3	0
396	614	7	10000	3	1	0	3	0
384	615	7	10000	3	1	0	3	0
367	616	7	10000	3	1	0	3	0
355	617	7	10000	3	1	0	3	0
338	618	7	10000	3	1	0	3	0
325	619	7	10000	3	1	0	3	0
319	620	7	10000	3	1	0	3	0
310	621	7	10000	3	1	0	3	0
311	622	7	10000	3	1	0	3	0
311	623	7	10000	3	1	0	3	0
313	624	7	10000	3	1	0	3	0
313	625	7	10000	3	1	0	3	0
302	626	7	10000	3	1	0	3	0
291	627	7	10000	3	1	0	3	0
279	628	7	10000	3	1	0	3	0
275	629	7	10000	3	1	0	3	0
270	630	7	10000	3	1	0	3	0
260	631	7	10000	3	1	0	3	0
250	632	7	10000	3	1	0	3	0
246	633	7	10000	3	1	0	3	0
238	634	7	10000	3	1	0	3	0
229	635	7	10000	3	1	0	3	0
221	636	7	10000	3	1	0	3	0
223	637	7	10000	3	1	0	3	0
226	638	7	10000	3	1	0	3	0
235	639	7	10000	3	1	0	3	0
235	640	7	10000	3	1	0	3	0
228	641	7	10000	3	1	0	3	0
222	642	7	10000	3	1	0	3	0
213	643	7	10000	3	1	0	3	0
209	644	7	10000	3	1	0	3	0
201	645	7	10000	3	1	0	3	0
204	646	7	10000	3	1	0	3	0
208	647	7	10000	3	1	0	3	0
211	648	7	10000	3	1	0	3	0
204	649	7	10000	3	1	0	3	0
198	650	7	10000	3	1	0	3	0
192	651	7	10000	3	1	0	3	0
188	652	7	10000	3	1	0	3	0
180	653	7	10000	3	1	0	3	0
171	654	7	10000	3	1	0	3	0
167	655	7	10000	3	1	0	3	0
163	656	7	10000	3	1	0	3	0
169	657	7	10000	3	1	0	3	0
172	658	7	10000	3	1	0	3	0
183	659	7	10000	3	1	0	3	0
179	660	7	10000	3	1	0	3	0
175	661	7	10000	3	1	0	3	0
172	662	7	10000	3	1	0	3	0
167	663	7	10000	3	1	0	3	0
162	664	7	10000	3	1	0	3	0
155	665	7	10000	3	1	0	3	0
159	666	7	10000	3	1	0	3	0
160	667	7	10000	3	1	0	3	0
155	668	7	10000	3	1	0	3	0
151	669	7	10000	3	1	0	3	0
149	670	7	10000	3	1	0	3	0
144	671	7	10000	3	1	0	3	0
140	672	7	10000	3	1	0	3	0
141	673	7	10000	3	1	0	3	0
142	674	7	10000	3	1	0	3	0
144	675	7	10000	3	1	0	3	0
140	676	7	10000	3	1	0	3	0
139	677	7	10000	3	1	0	3	0
138	678	7	10000	3	1	0	3	0
139	679	7	10000	3	1	0	3	0
133	680	7	10000	3	1	0	3	0
131	681	7	10000	3	1	0	3	0
143	682	7	10000	3	1	0	3	0
148	683	7	10000	3	1	0	3	0
153	684	7	10000	3	1	0	3	0
150	685	7	10000	3	1	0	3	0
149	686	7	10000	3	1	0	3	0
149	687	7	10000	3	1	0	3	0
145	688	7	10000	3	1	0	3	0
146	689	7	10000	3	1	0	3	0
147	690	7	10000	3	1	0	3	0
145	691	7	10000	3	1	0	3	0
142	692	7	10000	3	1	0	3	0
144	693	7	10000	3	1	0	3	0
139	694	7	10000	3	1	0	3	0
141	695	7	10000	3	1	0	3	0
141	696	7	10000	3	1	0	3	0
140	697	7	10000	3	1	0	3	0
139	698	7	10000	3	1	0	3	0
151	699	7	10000	3	1	0	3	0
147	700	7	10000	3	1	0	3	0
145	701	7	10000	3	1	0	3	0
145	702	7	10000	3	1	0	3	0
141	703	7	10000	3	1	0	3	0
146	704	7	10000	3	1	0	3	0
140	705	7	10000	3	1	0	3	0
149	706	7	10000	3	1	0	3	0
154	707	7	10000	3	1	0	3	0
153	708	7	10000	3	1	0	3	0
150	709	7	10000	3	1	0	3	0
144	710	7	10000	3	1	0	3	0
140	711	7	10000	3	1	0	3	0
137	712	7	10000	3	1	0	3	0
132	713	7	10000	3	1	0	3	0
128	714	7	10000	3	1	0	3	0
125	715	7	10000	3	1	0	3	0
123	716	7	10000	3	1	0	3	0
129	717	7	10000	3	1	0	3	0
132	718	7	10000	3	1	0	3	0
138	719	7	10000	3	1	0	3	0
135	720	7	10000	3	1	0	3	0
131	721	7	10000	3	1	0	3	0
132	722	7	10000	3	1	0	3	0
128	723	7	10000	3	1	0	3	0
127	724	7	10000	3	1	0	3	0
132	725	7	10000	3	1	0	3	0
135	726	7	10000	3	1	0	3	0
146	727	7	10000	3	1	0	3	0
151	728	7	10000	3	1	0	3	0
146	729	7	10000	3	1	0	3	0
140	730	7	10000	3	1	0	3	0
135	731	7	10000	3	1	0	3	0
131	732	7	10000	3	1	0	3	0
130	733	7	10000	3	1	0	3	0
128	734	7	10000	3	1	0	3	0
129	735	7	10000	3	1	0	3	0
134	736	7	10000	3	1	0	3	0
131	737	7	10000	3	1	0	3	0
129	738	7	10000	3	1	0	3	0
138	739	7	10000	3	1	0	3	0
143	740	7	10000	3	1	0	3	0
143	741	7	10000	3	1	0	3	0
158	742	7	10000	3	1	0	3	0
160	743	7	10000	3	1	0	3	0
160	744	7	10000	3	1	0	3	0
161	745	7	10000	3	1	0	3	0
160	746	7	10000	3	1	0	3	0
158	747	7	10000	3	1	0	3	0
155	748	7	10000	3	1	0	3	0
150	749	7	10000	3	1	0	3	0
155	750	7	10000	3	1	0	3	0
165	751	7	10000	3	1	0	3	0
166	752	7	10000	3	1	0	3	0
171	753	7	10000	3	1	0	3	0
176	754	7	10000	3	1	0	3	0
176	755	7	10000	3	1	0	3	0
177	756	7	10000	3	1	0	3	0
173	757	7	10000	3	1	0	3	0
172	758	7	10000	3	1	0	3	0
179	759	7	10000	3	1	0	3	0
175	760	7	10000	3	1	0	3	0
169	761	7	10000	3	1	0	3	0
169	762	7	10000	3	1	0	3	0
167	763	7	10000	3	1	0	3	0
165	764	7	10000	3	1	0	3	0
159	765	7	10000	3	1	0	3	0
158	766	7	10000	3	1	0	3	0
152	767	7	10000	3	1	0	3	0
151	768	7	10000	3	1	0	3	0
152	769	7	10000	3	1	0	3	0
149	770	7	10000	3	1	0	3	0
146	771	7	10000	3	1	0	3	0
151	772	7	10000	3	1	0	3	0
147	773	7	10000	3	1	0	3	0
153	774	7	10000	3	1	0	3	0
163	775	7	10000	3	1	0	3	0
166	776	7	10000	3	1	0	3	0
161	777	7	10000	3	1	0	3	0
161	778	7	10000	3	1	0	3	0
165	779	7	10000	3	1	0	3	0
160	780	7	10000	3	1	0	3	0
156	781	7	10000	3	1	0	3	0
161	782	7	10000	3	1	0	3	0
164	783	7	10000	3	1	0	3	0
162	784	7	10000	3	1	0	3	0
160	785	7	10000	3	1	0	3	0
157	786	7	10000	3	1	0	3	0
152	787	7	10000	3	1	0	3	0
151	788	7	10000	3	1	0	3	0
161	789	7	10000	3	1	0	3	0
168	790	7	10000	3	1	0	3	0
168	791	7	10000	3	1	0	3	0
161	792	7	10000	3	1	0	3	0
159	793	7	10000	3	1	0	3	0
160	794	7	10000	3	1	0	3	0
160	795	7	10000	3	1	0	3	0
155	796	7	10000	3	1	0	3	0
168	797	7	10000	3	1	0	3	0
196	798	7	10000	3	1	0	3	0
205	799	7	10000	3	1	0	3	0
221	800	7	10000	3	1	0	3	0
215	801	7	10000	3	1	0	3	0
216	802	7	10000	3	1	0	3	0
238	803	7	10000	3	1	0	3	0
235	804	7	10000	3	1	0	3	0
230	805	7	10000	3	1	0	3	0
248	806	7	10000	3	1	0	3	0
247	807	7	10000	3	1	0	3	0
252	808	7	10000	3	1	0	3	0
246	809	7	10000	3	1	0	3	0
242	810	7	10000	3	1	0	3	0
233	811	7	10000	3	1	0	3	0
222	812	7	10000	3	1	0	3	0
221	813	7	10000	3	1	0	3	0
245	814	7	10000	3	1	0	3	0
258	815	7	10000	3	1	0	3	0
253	816	7	10000	3	1	0	3	0
257	817	7	10000	3	1	0	3	0
268	818	7	10000	3	1	0	3	0
260	819	7	10000	3	1	0	3	0
252	820	7	10000	3	1	0	3	0
249	821	7	10000	3	1	0	3	0
243	822	7	10000	3	1	0	3	0
245	823	7	10000	3	1	0	3	0
240	824	7	10000	3	1	0	3	0
229	825	7	10000	3	1	0	3	0
224	826	7	10000	3	1	0	3	0
227	827	7	10000	3	1	0	3	0
225	828	7	10000	3	1	0	3	0
232	829	7	10000	3	1	0	3	0
249	830	7	10000	3	1	0	3	0
250	831	7	10000	3	1	0	3	0
258	832	7	10000	3	1	0	3	0
259	833	7	10000	3	1	0	3	0
276	834	7	10000	3	1	0	3	0
284	835	7	10000	3	1	0	3	0
280	836	7	10000	3	1	0	3	0
282	837	7	10000	3	1	0	3	0
273	838	7	10000	3	1	0	3	0
265	839	7	10000	3	1	0	3	0
256	840	7	10000	3	1	0	3	0
260	841	7	10000	3	1	0	3	0
283	842	7	10000	3	1	0	3	0
275	843	7	10000	3	1	0	3	0
264	844	7	10000	3	1	0	3	0
257	845	7	10000	3	1	0	3	0
260	846	7	10000	3	1	0	3	0
260	847	7	10000	3	1	0	3	0
253	848	7	10000	3	1	0	3	0
242	849	7	10000	3	1	0	3	0
241	850	7	10000	3	1	0	3	0
233	851	7	10000	3	1	0	3	0
224	852	7	10000	3	1	0	3	0
215	853	7	10000	3	1	0	3	0
213	854	7	10000	3	1	0	3	0
213	855	7	10000	3	1	0	3	0
210	856	7	10000	3	1	0	3	0
212	857	7	10000	3	1	0	3	0
231	858	7	10000	3	1	0	3	0
255	859	7	10000	3	1	0	3	0
254	860	7	10000	3	1	0	3	0
270	861	7	10000	3	1	0	3	0
285	862	7	10000	3	1	0	3	0
289	863	7	10000	3	1	0	3	0
295	864	7	10000	3	1	0	3	0
293	865	7	10000	3	1	0	3	0
297	866	7	10000	3	1	0	3	0
297	867	7	10000	3	1	0	3	0
287	868	7	10000	3	1	0	3	0
277	869	7	10000	3	1	0	3	0
267	870	7	10000	3	1	0	3	0
258	871	7	10000	3	1	0	3	0
250	872	7	10000	3	1	0	3	0
246	873	7	10000	3	1	0	3	0
238	874	7	10000	3	1	0	3	0
234	875	7	10000	3	1	0	3	0
230	876	7	10000	3	1	0	3	0
222	877	7	10000	3	1	0	3	0
214	878	7	10000	3	1	0	3	0
215	879	7	10000	3	1	0	3	0
207	880	7	10000	3	1	0	3	0
200	881	7	10000	3	1	0	3	0
201	882	7	10000	3	1	0	3	0
196	883	7	10000	3	1	0	3	0
194	884	7	10000	3	1	0	3	0
189	885	7	10000	3	1	0	3	0
192	886	7	10000	3	1	0	3	0
189	887	7	10000	3	1	0	3	0
183	888	7	10000	3	1	0	3	0
181	889	7	10000	3	1	0	3	0
179	890	7	10000	3	1	0	3	0
176	891	7	10000	3	1	0	3	0
171	892	7	10000	3	1	0	3	0
164	893	7	10000	3	1	0	3	0
159	894	7	10000	3	1	0	3	0
158	895	7	10000	3	1	0	3	0
153	896	7	10000	3	1	0	3	0
158	897	7	10000	3	1	0	3	0
160	898	7	10000	3	1	0	3	0
164	899	7	10000	3	1	0	3	0
157	900	7	10000	3	1	0	3	0
155	901	7	10000	3	1	0	3	0
159	902	7	10000	3	1	0	3	0
157	903	7	10000	3	1	0	3	0
159	904	7	10000	3	1	0	3	0
156	905	7	10000	3	1	0	3	0
154	906	7	10000	3	1	0	3	0
151	907	7	10000	3	1	0	3	0
151	908	7	10000	3	1	0	3	0
148	909	7	10000	3	1	0	3	0
142	910	7	10000	3	1	0	3	0
137	911	7	10000	3	1	0	3	0
134	912	7	10000	3	1	0	3	0
130	913	7	10000	3	1	0	3	0
127	914	7	10000	3	1	0	3	0
125	915	7	10000	3	1	0	3	0
120	916	7	10000	3	1	0	3	0
123	917	7	10000	3	1	0	3	0
126	918	7	10000	3	1	0	3	0
132	919	7	10000	3	1	0	3	0
128	920	7	10000	3	1	0	3	0
125	921	7	10000	3	1	0	3	0
130	922	7	10000	3	1	0	3	0
129	923	7	10000	3	1	0	3	0
136	924	7	10000	3	1	0	3	0
137	925	7	10000	3	1	0	3	0
138	926	7	10000	3	1	0	3	0
143	927	7	10000	3	1	0	3	0
145	928	7	10000	3	1	0	3	0
141	929	7	10000	3	1	0	3	0
137	930	7	10000	3	1	0	3	0
132	931	7	10000	3	1	0	3	0
128	932	7	10000	3	1	0	3	0
123	933	7	10000	3	1	0	3	0
119	934	7	10000	3	1	0	3	0
116	935	7	10000	3	1	0	3	0
115	936	7	10000	3	1	0	3	0
119	937	7	10000	3	1	0	3	0
115	938	7	10000	3	1	0	3	0
117	939	7	10000	3	1	0	3	0
114	940	7	10000	3	1	0	3	0
114	941	7	10000	3	1	0	3	0
122	942	7	10000	3	1	0	3	0
121	943	7	10000	3	1	0	3	0
123	944	7	10000	3	1	0	3	0
122	945	7	10000	3	1	0	3	0
122	946	7	10000	3	1	0	3	0
124	947	7	10000	3	1	0	3	0
122	948	7	10000	3	1	0	3	0
119	949	7	10000	3	1	0	3	0
120	950	7	10000	3	1	0	3	0
117	951	7	10000	3	1	0	3	0
112	952	7	10000	3	1	0	3	0
108	953	7	10000	3	1	0	3	0
105	954	7	10000	3	1	0	3	0
102	955	7	10000	3	1	0	3	0
100	956	7	10000	3	1	0	3	0
104	957	7	10000	3	1	0	3	0
105	958	7	10000	3	1	0	3	0
112	959	7	10000	3	1	0	3	0
113	960	7	10000	3	1	0	3	0
111	961	7	10000	3	1	0	3	0
118	962	7	10000	3	1	0	3	0
119	963	7	10000	3	1	0	3	0
130	964	7	10000	3	1	0	3	0
136	965	7	10000	3	1	0	3	0
136	966	7	10000	3	1	0	3	0
138	967	7	10000	3	1	0	3	0
135	968	7	10000	3	1	0	3	0
134	969	7	10000	3	1	0	3	0
132	970	7	10000	3	1	0	3	0
127	971	7	10000	3	1	0	3	0
122	972	7	10000	3	1	0	3	0
122	973	7	10000	3	1	0	3	0
120	974	7	10000	3	1	0	3	0
122	975	7	10000	3	1	0	3	0
120	976	7	10000	3	1	0	3	0
122	977	7	10000	3	1	0	3	0
123	978	7	10000	3	1	0	3	0
127	979	7	10000	3	1	0	3	0
124	980	7	10000	3	1	0	3	0
120	981	7	10000	3	1	0	3	0
124	982	7	10000	3	1	0	3	0
124	983	7	10000	3	1	0	3	0
128	984	7	10000	3	1	0	3	0
125	985	7	10000	3	1	0	3	0
127	986	7	10000	3	1	0	3	0
128	987	7	10000	3	1	0	3	0
125	988	7	10000	3	1	0	3	0
124	989	7	10000	3	1	0	3	0
125	990	7	10000	3	1	0	3	0
124	991	7	10000	3	1	0	3	0
119	992	7	10000	3	1	0	3	0
118	993	7	10000	3	1	0	3	0
116	994	7	10000	3	1	0	3	0
119	995	7	10000	3	1	0	3	0
120	996	7	10000	3	1	0	3	0
116	997	7	10000	3	1	0	3	0
113	998	7	10000	3	1	0	3	0
115	999	7	10000	3	1	0	3	0
111	1000	7	10000	3	1	0	3	0
109	1	0	10000	4	1	0	4	0
113	2	0	10000	4	1	0	4	0
113	3	0	10000	4	1	0	4	0
118	4	0	10000	4	1	0	4	0
124	5	0	10000	4	1	0	4	0
120	6	0	10000	4	1	0	4	0
118	7	0	10000	4	1	0	4	0
114	8	0	10000	4	1	0	4	0
110	9	0	10000	4	1	0	4	0
109	10	0	10000	4	1	0	4	0
106	11	0	10000	4	1	0	4	0
105	12	0	10000	4	1	0	4	0
104	13	0	10000	4	1	0	4	0
103	14	0	10000	4	1	0	4	0
104	15	0	10000	4	1	0	4	0
108	16	0	10000	4	1	0	4	0
107	17	0	10000	4	1	0	4	0
103	18	0	10000	4	1	0	4	0
110	19	0	10000	4	1	0	4	0
109	20	0	10000	4	1	0	4	0
112	21	0	10000	4	1	0	4	0
112	22	0	10000	4	1	0	4	0
112	23	0	10000	4	1	0	4	0
117	24	0	10000	4	1	0	4	0
120	25	0	10000	4	1	0	4	0
117	26	0	10000	4	1	0	4	0
118	27	0	10000	4	1	0	4	0
117	28	0	10000	4	1	0	4	0
112	29	0	10000	4	1	0	4	0
114	30	0	10000	4	1	0	4	0
116	31	0	10000	4	1	0	4	0
118	32	0	10000	4	1	0	4	0
120	33	0	10000	4	1	0	4	0
117	34	0	10000	4	1	0	4	0
116	35	0	10000	4	1	0	4	0
118	36	0	10000	4	1	0	4	0
116	37	0	10000	4	1	0	4	0
111	38	0	10000	4	1	0	4	0
116	39	0	10000	4	1	0	4	0
114	40	0	10000	4	1	0	4	0
116	41	0	10000	4	1	0	4	0
113	42	0	10000	4	1	0	4	0
112	43	0	10000	4	1	0	4	0
117	44	0	10000	4	1	0	4	0
121	45	0	10000	4	1	0	4	0
119	46	0	10000	4	1	0	4	0
116	47	0	10000	4	1	0	4	0
113	48	0	10000	4	1	0	4	0
112	49	0	10000	4	1	0	4	0
108	50	0	10000	4	1	0	4	0
104	51	0	10000	4	1	0	4	0
101	52	0	10000	4	1	0	4	0
100	53	0	10000	4	1	0	4	0
99	54	0	10000	4	1	0	4	0
98	55	0	10000	4	1	0	4	0
102	56	0	10000	4	1	0	4	0
101	57	0	10000	4	1	0	4	0
97	58	0	10000	4	1	0	4	0
103	59	0	10000	4	1	0	4	0
103	60	0	10000	4	1	0	4	0
109	61	0	10000	4	1	0	4	0
110	62	0	10000	4	1	0	4	0
110	63	0	10000	4	1	0	4	0
118	64	0	10000	4	1	0	4	0
121	65	0	10000	4	1	0	4	0
118	66	0	10000	4	1	0	4	0
118	67	0	10000	4	1	0	4	0
115	68	0	10000	4	1	0	4	0
110	69	0	10000	4	1	0	4	0
111	70	0	10000	4	1	0	4	0
111	71	0	10000	4	1	0	4	0
113	72	0	10000	4	1	0	4	0
112	73	0	10000	4	1	0	4	0
111	74	0	10000	4	1	0	4	0
113	75	0	10000	4	1	0	4	0
118	76	0	10000	4	1	0	4	0
120	77	0	10000	4	1	0	4	0
115	78	0	10000	4	1	0	4	0
119	79	0	10000	4	1	0	4	0
122	80	0	10000	4	1	0	4	0
127	81	0	10000	4	1	0	4	0
124	82	0	10000	4	1	0	4	0
122	83	0	10000	4	1	0	4	0
131	84	0	10000	4	1	0	4	0
133	85	0	10000	4	1	0	4	0
130	86	0	10000	4	1	0	4	0
128	87	0	10000	4	1	0	4	0
123	88	0	10000	4	1	0	4	0
118	89	0	10000	4	1	0	4	0
118	90	0	10000	4	1	0	4	0
113	91	0	10000	4	1	0	4	0
113	92	0	10000	4	1	0	4	0
112	93	0	10000	4	1	0	4	0
113	94	0	10000	4	1	0	4	0
114	95	0	10000	4	1	0	4	0
119	96	0	10000	4	1	0	4	0
119	97	0	10000	4	1	0	4	0
115	98	0	10000	4	1	0	4	0
117	99	0	10000	4	1	0	4	0
114	100	0	10000	4	1	0	4	0
114	101	0	10000	4	1	0	4	0
113	102	0	10000	4	1	0	4	0
113	103	0	10000	4	1	0	4	0
118	104	0	10000	4	1	0	4	0
119	105	0	10000	4	1	0	4	0
117	106	0	10000	4	1	0	4	0
114	107	0	10000	4	1	0	4	0
110	108	0	10000	4	1	0	4	0
107	109	0	10000	4	1	0	4	0
106	110	0	10000	4	1	0	4	0
104	111	0	10000	4	1	0	4	0
105	112	0	10000	4	1	0	4	0
105	113	0	10000	4	1	0	4	0
102	114	0	10000	4	1	0	4	0
97	115	0	10000	4	1	0	4	0
97	116	0	10000	4	1	0	4	0
96	117	0	10000	4	1	0	4	0
92	118	0	10000	4	1	0	4	0
100	119	0	10000	4	1	0	4	0
98	120	0	10000	4	1	0	4	0
102	121	0	10000	4	1	0	4	0
104	122	0	10000	4	1	0	4	0
104	123	0	10000	4	1	0	4	0
111	124	0	10000	4	1	0	4	0
116	125	0	10000	4	1	0	4	0
114	126	0	10000	4	1	0	4	0
110	127	0	10000	4	1	0	4	0
106	128	0	10000	4	1	0	4	0
102	129	0	10000	4	1	0	4	0
101	130	0	10000	4	1	0	4	0
98	131	0	10000	4	1	0	4	0
98	132	0	10000	4	1	0	4	0
98	133	0	10000	4	1	0	4	0
97	134	0	10000	4	1	0	4	0
98	135	0	10000	4	1	0	4	0
103	136	0	10000	4	1	0	4	0
104	137	0	10000	4	1	0	4	0
100	138	0	10000	4	1	0	4	0
104	139	0	10000	4	1	0	4	0
104	140	0	10000	4	1	0	4	0
108	141	0	10000	4	1	0	4	0
108	142	0	10000	4	1	0	4	0
108	143	0	10000	4	1	0	4	0
113	144	0	10000	4	1	0	4	0
115	145	0	10000	4	1	0	4	0
112	146	0	10000	4	1	0	4	0
108	147	0	10000	4	1	0	4	0
104	148	0	10000	4	1	0	4	0
101	149	0	10000	4	1	0	4	0
101	150	0	10000	4	1	0	4	0
98	151	0	10000	4	1	0	4	0
99	152	0	10000	4	1	0	4	0
104	153	0	10000	4	1	0	4	0
106	154	0	10000	4	1	0	4	0
109	155	0	10000	4	1	0	4	0
112	156	0	10000	4	1	0	4	0
112	157	0	10000	4	1	0	4	0
110	158	0	10000	4	1	0	4	0
114	159	0	10000	4	1	0	4	0
113	160	0	10000	4	1	0	4	0
116	161	0	10000	4	1	0	4	0
116	162	0	10000	4	1	0	4	0
114	163	0	10000	4	1	0	4	0
116	164	0	10000	4	1	0	4	0
119	165	0	10000	4	1	0	4	0
116	166	0	10000	4	1	0	4	0
118	167	0	10000	4	1	0	4	0
114	168	0	10000	4	1	0	4	0
113	169	0	10000	4	1	0	4	0
110	170	0	10000	4	1	0	4	0
109	171	0	10000	4	1	0	4	0
106	172	0	10000	4	1	0	4	0
105	173	0	10000	4	1	0	4	0
104	174	0	10000	4	1	0	4	0
104	175	0	10000	4	1	0	4	0
108	176	0	10000	4	1	0	4	0
113	177	0	10000	4	1	0	4	0
109	178	0	10000	4	1	0	4	0
112	179	0	10000	4	1	0	4	0
111	180	0	10000	4	1	0	4	0
112	181	0	10000	4	1	0	4	0
110	182	0	10000	4	1	0	4	0
109	183	0	10000	4	1	0	4	0
114	184	0	10000	4	1	0	4	0
115	185	0	10000	4	1	0	4	0
113	186	0	10000	4	1	0	4	0
111	187	0	10000	4	1	0	4	0
106	188	0	10000	4	1	0	4	0
104	189	0	10000	4	1	0	4	0
101	190	0	10000	4	1	0	4	0
97	191	0	10000	4	1	0	4	0
99	192	0	10000	4	1	0	4	0
100	193	0	10000	4	1	0	4	0
99	194	0	10000	4	1	0	4	0
99	195	0	10000	4	1	0	4	0
98	196	0	10000	4	1	0	4	0
98	197	0	10000	4	1	0	4	0
96	198	0	10000	4	1	0	4	0
99	199	0	10000	4	1	0	4	0
100	200	0	10000	4	1	0	4	0
102	201	0	10000	4	1	0	4	0
100	202	0	10000	4	1	0	4	0
99	203	0	10000	4	1	0	4	0
104	204	0	10000	4	1	0	4	0
106	205	0	10000	4	1	0	4	0
104	206	0	10000	4	1	0	4	0
102	207	0	10000	4	1	0	4	0
100	208	0	10000	4	1	0	4	0
99	209	0	10000	4	1	0	4	0
96	210	0	10000	4	1	0	4	0
95	211	0	10000	4	1	0	4	0
98	212	0	10000	4	1	0	4	0
100	213	0	10000	4	1	0	4	0
99	214	0	10000	4	1	0	4	0
97	215	0	10000	4	1	0	4	0
100	216	0	10000	4	1	0	4	0
100	217	0	10000	4	1	0	4	0
98	218	0	10000	4	1	0	4	0
100	219	0	10000	4	1	0	4	0
100	220	0	10000	4	1	0	4	0
104	221	0	10000	4	1	0	4	0
100	222	0	10000	4	1	0	4	0
101	223	0	10000	4	1	0	4	0
108	224	0	10000	4	1	0	4	0
114	225	0	10000	4	1	0	4	0
114	226	0	10000	4	1	0	4	0
111	227	0	10000	4	1	0	4	0
107	228	0	10000	4	1	0	4	0
107	229	0	10000	4	1	0	4	0
105	230	0	10000	4	1	0	4	0
102	231	0	10000	4	1	0	4	0
101	232	0	10000	4	1	0	4	0
101	233	0	10000	4	1	0	4	0
99	234	0	10000	4	1	0	4	0
98	235	0	10000	4	1	0	4	0
99	236	0	10000	4	1	0	4	0
97	237	0	10000	4	1	0	4	0
92	238	0	10000	4	1	0	4	0
98	239	0	10000	4	1	0	4	0
98	240	0	10000	4	1	0	4	0
98	241	0	10000	4	1	0	4	0
100	242	0	10000	4	1	0	4	0
101	243	0	10000	4	1	0	4	0
104	244	0	10000	4	1	0	4	0
104	245	0	10000	4	1	0	4	0
101	246	0	10000	4	1	0	4	0
101	247	0	10000	4	1	0	4	0
99	248	0	10000	4	1	0	4	0
96	249	0	10000	4	1	0	4	0
99	250	0	10000	4	1	0	4	0
98	251	0	10000	4	1	0	4	0
98	252	0	10000	4	1	0	4	0
97	253	0	10000	4	1	0	4	0
97	254	0	10000	4	1	0	4	0
97	255	0	10000	4	1	0	4	0
99	256	0	10000	4	1	0	4	0
98	257	0	10000	4	1	0	4	0
94	258	0	10000	4	1	0	4	0
102	259	0	10000	4	1	0	4	0
107	260	0	10000	4	1	0	4	0
108	261	0	10000	4	1	0	4	0
105	262	0	10000	4	1	0	4	0
104	263	0	10000	4	1	0	4	0
113	264	0	10000	4	1	0	4	0
120	265	0	10000	4	1	0	4	0
119	266	0	10000	4	1	0	4	0
117	267	0	10000	4	1	0	4	0
114	268	0	10000	4	1	0	4	0
114	269	0	10000	4	1	0	4	0
111	270	0	10000	4	1	0	4	0
109	271	0	10000	4	1	0	4	0
109	272	0	10000	4	1	0	4	0
105	273	0	10000	4	1	0	4	0
106	274	0	10000	4	1	0	4	0
111	275	0	10000	4	1	0	4	0
117	276	0	10000	4	1	0	4	0
120	277	0	10000	4	1	0	4	0
116	278	0	10000	4	1	0	4	0
121	279	0	10000	4	1	0	4	0
121	280	0	10000	4	1	0	4	0
123	281	0	10000	4	1	0	4	0
121	282	0	10000	4	1	0	4	0
120	283	0	10000	4	1	0	4	0
127	284	0	10000	4	1	0	4	0
127	285	0	10000	4	1	0	4	0
123	286	0	10000	4	1	0	4	0
119	287	0	10000	4	1	0	4	0
116	288	0	10000	4	1	0	4	0
112	289	0	10000	4	1	0	4	0
112	290	0	10000	4	1	0	4	0
108	291	0	10000	4	1	0	4	0
106	292	0	10000	4	1	0	4	0
104	293	0	10000	4	1	0	4	0
105	294	0	10000	4	1	0	4	0
105	295	0	10000	4	1	0	4	0
106	296	0	10000	4	1	0	4	0
106	297	0	10000	4	1	0	4	0
102	298	0	10000	4	1	0	4	0
109	299	0	10000	4	1	0	4	0
113	300	0	10000	4	1	0	4	0
117	301	0	10000	4	1	0	4	0
120	302	0	10000	4	1	0	4	0
119	303	0	10000	4	1	0	4	0
127	304	0	10000	4	1	0	4	0
132	305	0	10000	4	1	0	4	0
130	306	0	10000	4	1	0	4	0
130	307	0	10000	4	1	0	4	0
126	308	0	10000	4	1	0	4	0
121	309	0	10000	4	1	0	4	0
119	310	0	10000	4	1	0	4	0
117	311	0	10000	4	1	0	4	0
116	312	0	10000	4	1	0	4	0
116	313	0	10000	4	1	0	4	0
115	314	0	10000	4	1	0	4	0
115	315	0	10000	4	1	0	4	0
117	316	0	10000	4	1	0	4	0
120	317	0	10000	4	1	0	4	0
117	318	0	10000	4	1	0	4	0
118	319	0	10000	4	1	0	4	0
116	320	0	10000	4	1	0	4	0
116	321	0	10000	4	1	0	4	0
115	322	0	10000	4	1	0	4	0
115	323	0	10000	4	1	0	4	0
123	324	0	10000	4	1	0	4	0
126	325	0	10000	4	1	0	4	0
123	326	0	10000	4	1	0	4	0
121	327	0	10000	4	1	0	4	0
121	328	0	10000	4	1	0	4	0
116	329	0	10000	4	1	0	4	0
115	330	0	10000	4	1	0	4	0
116	331	0	10000	4	1	0	4	0
115	332	0	10000	4	1	0	4	0
113	333	0	10000	4	1	0	4	0
112	334	0	10000	4	1	0	4	0
113	335	0	10000	4	1	0	4	0
114	336	0	10000	4	1	0	4	0
112	337	0	10000	4	1	0	4	0
112	338	0	10000	4	1	0	4	0
117	339	0	10000	4	1	0	4	0
119	340	0	10000	4	1	0	4	0
121	341	0	10000	4	1	0	4	0
120	342	0	10000	4	1	0	4	0
119	343	0	10000	4	1	0	4	0
128	344	0	10000	4	1	0	4	0
132	345	0	10000	4	1	0	4	0
130	346	0	10000	4	1	0	4	0
128	347	0	10000	4	1	0	4	0
123	348	0	10000	4	1	0	4	0
116	349	0	10000	4	1	0	4	0
118	350	0	10000	4	1	0	4	0
117	351	0	10000	4	1	0	4	0
118	352	0	10000	4	1	0	4	0
117	353	0	10000	4	1	0	4	0
117	354	0	10000	4	1	0	4	0
118	355	0	10000	4	1	0	4	0
119	356	0	10000	4	1	0	4	0
119	357	0	10000	4	1	0	4	0
114	358	0	10000	4	1	0	4	0
117	359	0	10000	4	1	0	4	0
120	360	0	10000	4	1	0	4	0
123	361	0	10000	4	1	0	4	0
122	362	0	10000	4	1	0	4	0
121	363	0	10000	4	1	0	4	0
124	364	0	10000	4	1	0	4	0
126	365	0	10000	4	1	0	4	0
123	366	0	10000	4	1	0	4	0
124	367	0	10000	4	1	0	4	0
122	368	0	10000	4	1	0	4	0
120	369	0	10000	4	1	0	4	0
115	370	0	10000	4	1	0	4	0
111	371	0	10000	4	1	0	4	0
108	372	0	10000	4	1	0	4	0
105	373	0	10000	4	1	0	4	0
107	374	0	10000	4	1	0	4	0
107	375	0	10000	4	1	0	4	0
111	376	0	10000	4	1	0	4	0
115	377	0	10000	4	1	0	4	0
110	378	0	10000	4	1	0	4	0
116	379	0	10000	4	1	0	4	0
115	380	0	10000	4	1	0	4	0
119	381	0	10000	4	1	0	4	0
123	382	0	10000	4	1	0	4	0
121	383	0	10000	4	1	0	4	0
125	384	0	10000	4	1	0	4	0
122	385	0	10000	4	1	0	4	0
118	386	0	10000	4	1	0	4	0
116	387	0	10000	4	1	0	4	0
114	388	0	10000	4	1	0	4	0
110	389	0	10000	4	1	0	4	0
108	390	0	10000	4	1	0	4	0
106	391	0	10000	4	1	0	4	0
104	392	0	10000	4	1	0	4	0
105	393	0	10000	4	1	0	4	0
104	394	0	10000	4	1	0	4	0
102	395	0	10000	4	1	0	4	0
105	396	0	10000	4	1	0	4	0
106	397	0	10000	4	1	0	4	0
102	398	0	10000	4	1	0	4	0
105	399	0	10000	4	1	0	4	0
105	400	0	10000	4	1	0	4	0
108	401	0	10000	4	1	0	4	0
106	402	0	10000	4	1	0	4	0
105	403	0	10000	4	1	0	4	0
113	404	0	10000	4	1	0	4	0
118	405	0	10000	4	1	0	4	0
116	406	0	10000	4	1	0	4	0
115	407	0	10000	4	1	0	4	0
114	408	0	10000	4	1	0	4	0
111	409	0	10000	4	1	0	4	0
109	410	0	10000	4	1	0	4	0
106	411	0	10000	4	1	0	4	0
103	412	0	10000	4	1	0	4	0
103	413	0	10000	4	1	0	4	0
103	414	0	10000	4	1	0	4	0
104	415	0	10000	4	1	0	4	0
108	416	0	10000	4	1	0	4	0
108	417	0	10000	4	1	0	4	0
103	418	0	10000	4	1	0	4	0
109	419	0	10000	4	1	0	4	0
111	420	0	10000	4	1	0	4	0
115	421	0	10000	4	1	0	4	0
116	422	0	10000	4	1	0	4	0
115	423	0	10000	4	1	0	4	0
119	424	0	10000	4	1	0	4	0
120	425	0	10000	4	1	0	4	0
118	426	0	10000	4	1	0	4	0
116	427	0	10000	4	1	0	4	0
112	428	0	10000	4	1	0	4	0
110	429	0	10000	4	1	0	4	0
110	430	0	10000	4	1	0	4	0
108	431	0	10000	4	1	0	4	0
108	432	0	10000	4	1	0	4	0
109	433	0	10000	4	1	0	4	0
106	434	0	10000	4	1	0	4	0
107	435	0	10000	4	1	0	4	0
111	436	0	10000	4	1	0	4	0
113	437	0	10000	4	1	0	4	0
110	438	0	10000	4	1	0	4	0
112	439	0	10000	4	1	0	4	0
114	440	0	10000	4	1	0	4	0
118	441	0	10000	4	1	0	4	0
118	442	0	10000	4	1	0	4	0
116	443	0	10000	4	1	0	4	0
119	444	0	10000	4	1	0	4	0
117	445	0	10000	4	1	0	4	0
114	446	0	10000	4	1	0	4	0
111	447	0	10000	4	1	0	4	0
106	448	0	10000	4	1	0	4	0
106	449	0	10000	4	1	0	4	0
104	450	0	10000	4	1	0	4	0
100	451	0	10000	4	1	0	4	0
101	452	0	10000	4	1	0	4	0
103	453	0	10000	4	1	0	4	0
102	454	0	10000	4	1	0	4	0
101	455	0	10000	4	1	0	4	0
104	456	0	10000	4	1	0	4	0
101	457	0	10000	4	1	0	4	0
96	458	0	10000	4	1	0	4	0
98	459	0	10000	4	1	0	4	0
96	460	0	10000	4	1	0	4	0
96	461	0	10000	4	1	0	4	0
97	462	0	10000	4	1	0	4	0
96	463	0	10000	4	1	0	4	0
103	464	0	10000	4	1	0	4	0
106	465	0	10000	4	1	0	4	0
104	466	0	10000	4	1	0	4	0
104	467	0	10000	4	1	0	4	0
104	468	0	10000	4	1	0	4	0
101	469	0	10000	4	1	0	4	0
103	470	0	10000	4	1	0	4	0
101	471	0	10000	4	1	0	4	0
101	472	0	10000	4	1	0	4	0
102	473	0	10000	4	1	0	4	0
102	474	0	10000	4	1	0	4	0
104	475	0	10000	4	1	0	4	0
108	476	0	10000	4	1	0	4	0
111	477	0	10000	4	1	0	4	0
106	478	0	10000	4	1	0	4	0
108	479	0	10000	4	1	0	4	0
106	480	0	10000	4	1	0	4	0
105	481	0	10000	4	1	0	4	0
101	482	0	10000	4	1	0	4	0
101	483	0	10000	4	1	0	4	0
109	484	0	10000	4	1	0	4	0
110	485	0	10000	4	1	0	4	0
107	486	0	10000	4	1	0	4	0
112	487	0	10000	4	1	0	4	0
109	488	0	10000	4	1	0	4	0
108	489	0	10000	4	1	0	4	0
106	490	0	10000	4	1	0	4	0
103	491	0	10000	4	1	0	4	0
103	492	0	10000	4	1	0	4	0
105	493	0	10000	4	1	0	4	0
104	494	0	10000	4	1	0	4	0
104	495	0	10000	4	1	0	4	0
104	496	0	10000	4	1	0	4	0
105	497	0	10000	4	1	0	4	0
101	498	0	10000	4	1	0	4	0
105	499	0	10000	4	1	0	4	0
105	500	0	10000	4	1	0	4	0
107	501	0	10000	4	1	0	4	1
106	502	0	10000	4	1	0	4	1
104	503	0	10000	4	1	0	4	1
111	504	0	10000	4	1	0	4	1
114	505	0	10000	4	1	0	4	1
111	506	0	10000	4	1	0	4	1
112	507	0	10000	4	1	0	4	1
110	508	0	10000	4	1	0	4	1
107	509	0	10000	4	1	0	4	1
105	510	0	10000	4	1	0	4	1
100	511	0	10000	4	1	0	4	1
98	512	0	10000	4	1	0	4	1
99	513	0	10000	4	1	0	4	1
101	514	0	10000	4	1	0	4	1
105	515	0	10000	4	1	0	4	1
111	516	0	10000	4	1	0	4	1
116	517	0	10000	4	1	0	4	1
115	518	0	10000	4	1	0	4	1
118	519	0	10000	4	1	0	4	1
119	520	0	10000	4	1	0	4	1
120	521	0	10000	4	1	0	4	1
117	522	0	10000	4	1	0	4	1
116	523	0	10000	4	1	0	4	1
123	524	0	10000	4	1	0	4	1
128	525	0	10000	4	1	0	4	1
125	526	0	10000	4	1	0	4	1
121	527	0	10000	4	1	0	4	1
116	528	0	10000	4	1	0	4	1
118	529	0	10000	4	1	0	4	1
116	530	0	10000	4	1	0	4	1
114	531	0	10000	4	1	0	4	1
114	532	0	10000	4	1	0	4	1
115	533	0	10000	4	1	0	4	1
113	534	0	10000	4	1	0	4	1
110	535	0	10000	4	1	0	4	1
109	536	0	10000	4	1	0	4	1
108	537	0	10000	4	1	0	4	1
106	538	0	10000	4	1	0	4	1
110	539	0	10000	4	1	0	4	1
112	540	0	10000	4	1	0	4	1
112	541	0	10000	4	1	0	4	1
111	542	0	10000	4	1	0	4	1
110	543	0	10000	4	1	0	4	1
110	544	0	10000	4	1	0	4	1
107	545	0	10000	4	1	0	4	1
105	546	0	10000	4	1	0	4	1
107	547	0	10000	4	1	0	4	1
107	548	0	10000	4	1	0	4	1
106	549	0	10000	4	1	0	4	1
103	550	0	10000	4	1	0	4	1
99	551	0	10000	4	1	0	4	0
99	552	0	10000	4	1	0	4	0
98	553	0	10000	4	1	0	4	0
99	554	0	10000	4	1	0	4	0
98	555	0	10000	4	1	0	4	0
100	556	0	10000	4	1	0	4	0
102	557	0	10000	4	1	0	4	0
101	558	0	10000	4	1	0	4	0
103	559	0	10000	4	1	0	4	0
105	560	0	10000	4	1	0	4	0
107	561	0	10000	4	1	0	4	0
108	562	0	10000	4	1	0	4	0
109	563	0	10000	4	1	0	4	0
120	564	0	10000	4	1	0	4	0
120	565	0	10000	4	1	0	4	0
121	566	0	10000	4	1	0	4	0
121	567	0	10000	4	1	0	4	0
116	568	0	10000	4	1	0	4	0
115	569	0	10000	4	1	0	4	0
111	570	0	10000	4	1	0	4	0
111	571	0	10000	4	1	0	4	0
109	572	0	10000	4	1	0	4	0
107	573	0	10000	4	1	0	4	0
106	574	0	10000	4	1	0	4	0
109	575	0	10000	4	1	0	4	0
110	576	0	10000	4	1	0	4	0
110	577	0	10000	4	1	0	4	0
108	578	0	10000	4	1	0	4	0
113	579	0	10000	4	1	0	4	0
113	580	0	10000	4	1	0	4	0
115	581	0	10000	4	1	0	4	0
117	582	0	10000	4	1	0	4	0
115	583	0	10000	4	1	0	4	0
120	584	0	10000	4	1	0	4	0
125	585	0	10000	4	1	0	4	0
127	586	0	10000	4	1	0	4	0
133	587	0	10000	4	1	0	4	0
133	588	0	10000	4	1	0	4	0
133	589	0	10000	4	1	0	4	0
134	590	0	10000	4	1	0	4	0
130	591	0	10000	4	1	0	4	0
137	592	0	10000	4	1	0	4	0
148	593	0	10000	4	1	0	4	0
149	594	0	10000	4	1	0	4	0
157	595	0	10000	4	1	0	4	0
181	596	0	10000	4	1	0	4	0
188	597	0	10000	4	1	0	4	0
184	598	0	10000	4	1	0	4	0
198	599	0	10000	4	1	0	4	0
223	600	0	10000	4	1	0	4	0
249	601	0	10000	4	1	0	4	0
253	602	0	10000	4	1	0	4	0
248	603	0	10000	4	1	0	4	0
249	604	0	10000	4	1	0	4	0
251	605	0	10000	4	1	0	4	0
253	606	0	10000	4	1	0	4	0
244	607	0	10000	4	1	0	4	0
234	608	0	10000	4	1	0	4	0
225	609	0	10000	4	1	0	4	0
232	610	0	10000	4	1	0	4	0
229	611	0	10000	4	1	0	4	0
226	612	0	10000	4	1	0	4	0
246	613	0	10000	4	1	0	4	0
243	614	0	10000	4	1	0	4	0
267	615	0	10000	4	1	0	4	0
295	616	0	10000	4	1	0	4	0
287	617	0	10000	4	1	0	4	0
289	618	0	10000	4	1	0	4	0
285	619	0	10000	4	1	0	4	0
285	620	0	10000	4	1	0	4	0
277	621	0	10000	4	1	0	4	0
266	622	0	10000	4	1	0	4	0
264	623	0	10000	4	1	0	4	0
253	624	0	10000	4	1	0	4	0
244	625	0	10000	4	1	0	4	0
236	626	0	10000	4	1	0	4	0
232	627	0	10000	4	1	0	4	0
225	628	0	10000	4	1	0	4	0
216	629	0	10000	4	1	0	4	0
208	630	0	10000	4	1	0	4	0
201	631	0	10000	4	1	0	4	0
196	632	0	10000	4	1	0	4	0
189	633	0	10000	4	1	0	4	0
188	634	0	10000	4	1	0	4	0
188	635	0	10000	4	1	0	4	0
191	636	0	10000	4	1	0	4	0
192	637	0	10000	4	1	0	4	0
185	638	0	10000	4	1	0	4	0
183	639	0	10000	4	1	0	4	0
178	640	0	10000	4	1	0	4	0
173	641	0	10000	4	1	0	4	0
165	642	0	10000	4	1	0	4	0
164	643	0	10000	4	1	0	4	0
173	644	0	10000	4	1	0	4	0
178	645	0	10000	4	1	0	4	0
184	646	0	10000	4	1	0	4	0
180	647	0	10000	4	1	0	4	0
179	648	0	10000	4	1	0	4	0
183	649	0	10000	4	1	0	4	0
181	650	0	10000	4	1	0	4	0
176	651	0	10000	4	1	0	4	0
174	652	0	10000	4	1	0	4	0
169	653	0	10000	4	1	0	4	0
167	654	0	10000	4	1	0	4	0
168	655	0	10000	4	1	0	4	0
171	656	0	10000	4	1	0	4	0
172	657	0	10000	4	1	0	4	0
165	658	0	10000	4	1	0	4	0
163	659	0	10000	4	1	0	4	0
160	660	0	10000	4	1	0	4	0
157	661	0	10000	4	1	0	4	0
155	662	0	10000	4	1	0	4	0
152	663	0	10000	4	1	0	4	0
156	664	0	10000	4	1	0	4	0
158	665	0	10000	4	1	0	4	0
155	666	0	10000	4	1	0	4	0
149	667	0	10000	4	1	0	4	0
143	668	0	10000	4	1	0	4	0
139	669	0	10000	4	1	0	4	0
136	670	0	10000	4	1	0	4	0
133	671	0	10000	4	1	0	4	0
130	672	0	10000	4	1	0	4	0
129	673	0	10000	4	1	0	4	0
127	674	0	10000	4	1	0	4	0
125	675	0	10000	4	1	0	4	0
125	676	0	10000	4	1	0	4	0
123	677	0	10000	4	1	0	4	0
118	678	0	10000	4	1	0	4	0
119	679	0	10000	4	1	0	4	0
120	680	0	10000	4	1	0	4	0
124	681	0	10000	4	1	0	4	0
125	682	0	10000	4	1	0	4	0
123	683	0	10000	4	1	0	4	0
124	684	0	10000	4	1	0	4	0
121	685	0	10000	4	1	0	4	0
118	686	0	10000	4	1	0	4	0
117	687	0	10000	4	1	0	4	0
119	688	0	10000	4	1	0	4	0
114	689	0	10000	4	1	0	4	0
114	690	0	10000	4	1	0	4	0
112	691	0	10000	4	1	0	4	0
112	692	0	10000	4	1	0	4	0
111	693	0	10000	4	1	0	4	0
109	694	0	10000	4	1	0	4	0
109	695	0	10000	4	1	0	4	0
111	696	0	10000	4	1	0	4	0
114	697	0	10000	4	1	0	4	0
110	698	0	10000	4	1	0	4	0
110	699	0	10000	4	1	0	4	0
108	700	0	10000	4	1	0	4	0
112	701	0	10000	4	1	0	4	0
116	702	0	10000	4	1	0	4	0
115	703	0	10000	4	1	0	4	0
119	704	0	10000	4	1	0	4	0
119	705	0	10000	4	1	0	4	0
118	706	0	10000	4	1	0	4	0
121	707	0	10000	4	1	0	4	0
118	708	0	10000	4	1	0	4	0
113	709	0	10000	4	1	0	4	0
111	710	0	10000	4	1	0	4	0
107	711	0	10000	4	1	0	4	0
104	712	0	10000	4	1	0	4	0
102	713	0	10000	4	1	0	4	0
100	714	0	10000	4	1	0	4	0
102	715	0	10000	4	1	0	4	0
105	716	0	10000	4	1	0	4	0
106	717	0	10000	4	1	0	4	0
102	718	0	10000	4	1	0	4	0
105	719	0	10000	4	1	0	4	0
106	720	0	10000	4	1	0	4	0
108	721	0	10000	4	1	0	4	0
109	722	0	10000	4	1	0	4	0
107	723	0	10000	4	1	0	4	0
116	724	0	10000	4	1	0	4	0
120	725	0	10000	4	1	0	4	0
117	726	0	10000	4	1	0	4	0
117	727	0	10000	4	1	0	4	0
116	728	0	10000	4	1	0	4	0
111	729	0	10000	4	1	0	4	0
111	730	0	10000	4	1	0	4	0
107	731	0	10000	4	1	0	4	0
107	732	0	10000	4	1	0	4	0
108	733	0	10000	4	1	0	4	0
107	734	0	10000	4	1	0	4	0
108	735	0	10000	4	1	0	4	0
111	736	0	10000	4	1	0	4	0
110	737	0	10000	4	1	0	4	0
105	738	0	10000	4	1	0	4	0
112	739	0	10000	4	1	0	4	0
118	740	0	10000	4	1	0	4	0
123	741	0	10000	4	1	0	4	0
124	742	0	10000	4	1	0	4	0
120	743	0	10000	4	1	0	4	0
123	744	0	10000	4	1	0	4	0
128	745	0	10000	4	1	0	4	0
126	746	0	10000	4	1	0	4	0
125	747	0	10000	4	1	0	4	0
121	748	0	10000	4	1	0	4	0
119	749	0	10000	4	1	0	4	0
116	750	0	10000	4	1	0	4	0
113	751	0	10000	4	1	0	4	0
114	752	0	10000	4	1	0	4	0
112	753	0	10000	4	1	0	4	0
114	754	0	10000	4	1	0	4	0
115	755	0	10000	4	1	0	4	0
117	756	0	10000	4	1	0	4	0
116	757	0	10000	4	1	0	4	0
113	758	0	10000	4	1	0	4	0
116	759	0	10000	4	1	0	4	0
121	760	0	10000	4	1	0	4	0
125	761	0	10000	4	1	0	4	0
129	762	0	10000	4	1	0	4	0
127	763	0	10000	4	1	0	4	0
128	764	0	10000	4	1	0	4	0
128	765	0	10000	4	1	0	4	0
126	766	0	10000	4	1	0	4	0
122	767	0	10000	4	1	0	4	0
118	768	0	10000	4	1	0	4	0
115	769	0	10000	4	1	0	4	0
112	770	0	10000	4	1	0	4	0
109	771	0	10000	4	1	0	4	0
107	772	0	10000	4	1	0	4	0
107	773	0	10000	4	1	0	4	0
106	774	0	10000	4	1	0	4	0
104	775	0	10000	4	1	0	4	0
104	776	0	10000	4	1	0	4	0
106	777	0	10000	4	1	0	4	0
104	778	0	10000	4	1	0	4	0
105	779	0	10000	4	1	0	4	0
105	780	0	10000	4	1	0	4	0
108	781	0	10000	4	1	0	4	0
107	782	0	10000	4	1	0	4	0
105	783	0	10000	4	1	0	4	0
112	784	0	10000	4	1	0	4	0
114	785	0	10000	4	1	0	4	0
112	786	0	10000	4	1	0	4	0
115	787	0	10000	4	1	0	4	0
112	788	0	10000	4	1	0	4	0
108	789	0	10000	4	1	0	4	0
107	790	0	10000	4	1	0	4	0
106	791	0	10000	4	1	0	4	0
105	792	0	10000	4	1	0	4	0
104	793	0	10000	4	1	0	4	0
105	794	0	10000	4	1	0	4	0
104	795	0	10000	4	1	0	4	0
105	796	0	10000	4	1	0	4	0
107	797	0	10000	4	1	0	4	0
104	798	0	10000	4	1	0	4	0
112	799	0	10000	4	1	0	4	0
116	800	0	10000	4	1	0	4	0
117	801	0	10000	4	1	0	4	0
115	802	0	10000	4	1	0	4	0
112	803	0	10000	4	1	0	4	0
119	804	0	10000	4	1	0	4	0
120	805	0	10000	4	1	0	4	0
118	806	0	10000	4	1	0	4	0
121	807	0	10000	4	1	0	4	0
116	808	0	10000	4	1	0	4	0
114	809	0	10000	4	1	0	4	0
112	810	0	10000	4	1	0	4	0
107	811	0	10000	4	1	0	4	0
104	812	0	10000	4	1	0	4	0
102	813	0	10000	4	1	0	4	0
100	814	0	10000	4	1	0	4	0
102	815	0	10000	4	1	0	4	0
108	816	0	10000	4	1	0	4	0
111	817	0	10000	4	1	0	4	0
107	818	0	10000	4	1	0	4	0
112	819	0	10000	4	1	0	4	0
117	820	0	10000	4	1	0	4	0
121	821	0	10000	4	1	0	4	0
122	822	0	10000	4	1	0	4	0
120	823	0	10000	4	1	0	4	0
125	824	0	10000	4	1	0	4	0
124	825	0	10000	4	1	0	4	0
120	826	0	10000	4	1	0	4	0
119	827	0	10000	4	1	0	4	0
116	828	0	10000	4	1	0	4	0
112	829	0	10000	4	1	0	4	0
111	830	0	10000	4	1	0	4	0
107	831	0	10000	4	1	0	4	0
107	832	0	10000	4	1	0	4	0
104	833	0	10000	4	1	0	4	0
104	834	0	10000	4	1	0	4	0
104	835	0	10000	4	1	0	4	0
107	836	0	10000	4	1	0	4	0
112	837	0	10000	4	1	0	4	0
109	838	0	10000	4	1	0	4	0
108	839	0	10000	4	1	0	4	0
109	840	0	10000	4	1	0	4	0
111	841	0	10000	4	1	0	4	0
113	842	0	10000	4	1	0	4	0
113	843	0	10000	4	1	0	4	0
120	844	0	10000	4	1	0	4	0
122	845	0	10000	4	1	0	4	0
119	846	0	10000	4	1	0	4	0
119	847	0	10000	4	1	0	4	0
114	848	0	10000	4	1	0	4	0
110	849	0	10000	4	1	0	4	0
109	850	0	10000	4	1	0	4	0
107	851	0	10000	4	1	0	4	0
106	852	0	10000	4	1	0	4	0
105	853	0	10000	4	1	0	4	0
104	854	0	10000	4	1	0	4	0
105	855	0	10000	4	1	0	4	0
107	856	0	10000	4	1	0	4	0
109	857	0	10000	4	1	0	4	0
105	858	0	10000	4	1	0	4	0
111	859	0	10000	4	1	0	4	0
113	860	0	10000	4	1	0	4	0
114	861	0	10000	4	1	0	4	0
112	862	0	10000	4	1	0	4	0
111	863	0	10000	4	1	0	4	0
120	864	0	10000	4	1	0	4	0
128	865	0	10000	4	1	0	4	0
127	866	0	10000	4	1	0	4	0
128	867	0	10000	4	1	0	4	0
123	868	0	10000	4	1	0	4	0
118	869	0	10000	4	1	0	4	0
116	870	0	10000	4	1	0	4	0
116	871	0	10000	4	1	0	4	0
117	872	0	10000	4	1	0	4	0
117	873	0	10000	4	1	0	4	0
117	874	0	10000	4	1	0	4	0
122	875	0	10000	4	1	0	4	0
123	876	0	10000	4	1	0	4	0
126	877	0	10000	4	1	0	4	0
121	878	0	10000	4	1	0	4	0
123	879	0	10000	4	1	0	4	0
122	880	0	10000	4	1	0	4	0
123	881	0	10000	4	1	0	4	0
123	882	0	10000	4	1	0	4	0
121	883	0	10000	4	1	0	4	0
125	884	0	10000	4	1	0	4	0
129	885	0	10000	4	1	0	4	0
127	886	0	10000	4	1	0	4	0
125	887	0	10000	4	1	0	4	0
123	888	0	10000	4	1	0	4	0
121	889	0	10000	4	1	0	4	0
117	890	0	10000	4	1	0	4	0
113	891	0	10000	4	1	0	4	0
112	892	0	10000	4	1	0	4	0
109	893	0	10000	4	1	0	4	0
108	894	0	10000	4	1	0	4	0
107	895	0	10000	4	1	0	4	0
110	896	0	10000	4	1	0	4	0
112	897	0	10000	4	1	0	4	0
109	898	0	10000	4	1	0	4	0
110	899	0	10000	4	1	0	4	0
113	900	0	10000	4	1	0	4	0
115	901	0	10000	4	1	0	4	0
116	902	0	10000	4	1	0	4	0
114	903	0	10000	4	1	0	4	0
117	904	0	10000	4	1	0	4	0
119	905	0	10000	4	1	0	4	0
119	906	0	10000	4	1	0	4	0
117	907	0	10000	4	1	0	4	0
113	908	0	10000	4	1	0	4	0
109	909	0	10000	4	1	0	4	0
107	910	0	10000	4	1	0	4	0
104	911	0	10000	4	1	0	4	0
104	912	0	10000	4	1	0	4	0
105	913	0	10000	4	1	0	4	0
104	914	0	10000	4	1	0	4	0
103	915	0	10000	4	1	0	4	0
108	916	0	10000	4	1	0	4	0
114	917	0	10000	4	1	0	4	0
109	918	0	10000	4	1	0	4	0
110	919	0	10000	4	1	0	4	0
111	920	0	10000	4	1	0	4	0
116	921	0	10000	4	1	0	4	0
119	922	0	10000	4	1	0	4	0
118	923	0	10000	4	1	0	4	0
124	924	0	10000	4	1	0	4	0
124	925	0	10000	4	1	0	4	0
120	926	0	10000	4	1	0	4	0
119	927	0	10000	4	1	0	4	0
117	928	0	10000	4	1	0	4	0
114	929	0	10000	4	1	0	4	0
109	930	0	10000	4	1	0	4	0
104	931	0	10000	4	1	0	4	0
103	932	0	10000	4	1	0	4	0
102	933	0	10000	4	1	0	4	0
102	934	0	10000	4	1	0	4	0
103	935	0	10000	4	1	0	4	0
104	936	0	10000	4	1	0	4	0
106	937	0	10000	4	1	0	4	0
102	938	0	10000	4	1	0	4	0
104	939	0	10000	4	1	0	4	0
111	940	0	10000	4	1	0	4	0
116	941	0	10000	4	1	0	4	0
118	942	0	10000	4	1	0	4	0
118	943	0	10000	4	1	0	4	0
124	944	0	10000	4	1	0	4	0
125	945	0	10000	4	1	0	4	0
123	946	0	10000	4	1	0	4	0
125	947	0	10000	4	1	0	4	0
123	948	0	10000	4	1	0	4	0
119	949	0	10000	4	1	0	4	0
116	950	0	10000	4	1	0	4	0
114	951	0	10000	4	1	0	4	0
114	952	0	10000	4	1	0	4	0
112	953	0	10000	4	1	0	4	0
110	954	0	10000	4	1	0	4	0
108	955	0	10000	4	1	0	4	0
108	956	0	10000	4	1	0	4	0
110	957	0	10000	4	1	0	4	0
106	958	0	10000	4	1	0	4	0
108	959	0	10000	4	1	0	4	0
109	960	0	10000	4	1	0	4	0
109	961	0	10000	4	1	0	4	0
107	962	0	10000	4	1	0	4	0
105	963	0	10000	4	1	0	4	0
109	964	0	10000	4	1	0	4	0
114	965	0	10000	4	1	0	4	0
115	966	0	10000	4	1	0	4	0
114	967	0	10000	4	1	0	4	0
110	968	0	10000	4	1	0	4	0
106	969	0	10000	4	1	0	4	0
104	970	0	10000	4	1	0	4	0
102	971	0	10000	4	1	0	4	0
100	972	0	10000	4	1	0	4	0
100	973	0	10000	4	1	0	4	0
101	974	0	10000	4	1	0	4	0
105	975	0	10000	4	1	0	4	0
108	976	0	10000	4	1	0	4	0
110	977	0	10000	4	1	0	4	0
106	978	0	10000	4	1	0	4	0
111	979	0	10000	4	1	0	4	0
113	980	0	10000	4	1	0	4	0
115	981	0	10000	4	1	0	4	0
116	982	0	10000	4	1	0	4	0
114	983	0	10000	4	1	0	4	0
116	984	0	10000	4	1	0	4	0
119	985	0	10000	4	1	0	4	0
116	986	0	10000	4	1	0	4	0
115	987	0	10000	4	1	0	4	0
112	988	0	10000	4	1	0	4	0
110	989	0	10000	4	1	0	4	0
107	990	0	10000	4	1	0	4	0
105	991	0	10000	4	1	0	4	0
102	992	0	10000	4	1	0	4	0
101	993	0	10000	4	1	0	4	0
100	994	0	10000	4	1	0	4	0
104	995	0	10000	4	1	0	4	0
109	996	0	10000	4	1	0	4	0
113	997	0	10000	4	1	0	4	0
108	998	0	10000	4	1	0	4	0
111	999	0	10000	4	1	0	4	0
112	1000	0	10000	4	1	0	4	0
116	1	0	10000	5	1	0	5	0
117	2	0	10000	5	1	0	5	0
112	3	0	10000	5	1	0	5	0
118	4	0	10000	5	1	0	5	0
119	5	0	10000	5	1	0	5	0
116	6	0	10000	5	1	0	5	0
114	7	0	10000	5	1	0	5	0
110	8	0	10000	5	1	0	5	0
107	9	0	10000	5	1	0	5	0
104	10	0	10000	5	1	0	5	0
101	11	0	10000	5	1	0	5	0
102	12	0	10000	5	1	0	5	0
104	13	0	10000	5	1	0	5	0
104	14	0	10000	5	1	0	5	0
105	15	0	10000	5	1	0	5	0
105	16	0	10000	5	1	0	5	0
104	17	0	10000	5	1	0	5	0
100	18	0	10000	5	1	0	5	0
104	19	0	10000	5	1	0	5	0
109	20	0	10000	5	1	0	5	0
111	21	0	10000	5	1	0	5	0
114	22	0	10000	5	1	0	5	0
111	23	0	10000	5	1	0	5	0
116	24	0	10000	5	1	0	5	0
118	25	0	10000	5	1	0	5	0
123	26	0	10000	5	1	0	5	0
122	27	0	10000	5	1	0	5	0
127	28	0	10000	5	1	0	5	0
126	29	0	10000	5	1	0	5	0
125	30	0	10000	5	1	0	5	0
124	31	0	10000	5	1	0	5	0
125	32	0	10000	5	1	0	5	0
128	33	0	10000	5	1	0	5	0
125	34	0	10000	5	1	0	5	0
123	35	0	10000	5	1	0	5	0
123	36	0	10000	5	1	0	5	0
118	37	0	10000	5	1	0	5	0
117	38	0	10000	5	1	0	5	0
120	39	0	10000	5	1	0	5	0
118	40	0	10000	5	1	0	5	0
119	41	0	10000	5	1	0	5	0
119	42	0	10000	5	1	0	5	0
121	43	0	10000	5	1	0	5	0
142	44	0	10000	5	1	0	5	0
156	45	0	10000	5	1	0	5	0
156	46	0	10000	5	1	0	5	0
165	47	0	10000	5	1	0	5	0
168	48	0	10000	5	1	0	5	0
164	49	0	10000	5	1	0	5	0
162	50	0	10000	5	1	0	5	0
178	51	0	10000	5	1	0	5	0
201	52	0	10000	5	1	0	5	0
214	53	0	10000	5	1	0	5	0
213	54	0	10000	5	1	0	5	0
222	55	0	10000	5	1	0	5	0
226	56	0	10000	5	1	0	5	0
225	57	0	10000	5	1	0	5	0
233	58	0	10000	5	1	0	5	0
231	59	0	10000	5	1	0	5	0
223	60	0	10000	5	1	0	5	0
221	61	0	10000	5	1	0	5	0
222	62	0	10000	5	1	0	5	0
220	63	0	10000	5	1	0	5	0
210	64	0	10000	5	1	0	5	0
203	65	0	10000	5	1	0	5	0
205	66	0	10000	5	1	0	5	0
221	67	0	10000	5	1	0	5	0
236	68	0	10000	5	1	0	5	0
238	69	0	10000	5	1	0	5	0
233	70	0	10000	5	1	0	5	0
239	71	0	10000	5	1	0	5	0
250	72	0	10000	5	1	0	5	0
245	73	0	10000	5	1	0	5	0
249	74	0	10000	5	1	0	5	0
243	75	0	10000	5	1	0	5	0
247	76	0	10000	5	1	0	5	0
255	77	0	10000	5	1	0	5	0
247	78	0	10000	5	1	0	5	0
247	79	0	10000	5	1	0	5	0
240	80	0	10000	5	1	0	5	0
233	81	0	10000	5	1	0	5	0
224	82	0	10000	5	1	0	5	0
220	83	0	10000	5	1	0	5	0
223	84	0	10000	5	1	0	5	0
220	85	0	10000	5	1	0	5	0
250	86	0	10000	5	1	0	5	0
253	87	0	10000	5	1	0	5	0
247	88	0	10000	5	1	0	5	0
244	89	0	10000	5	1	0	5	0
257	90	0	10000	5	1	0	5	0
253	91	0	10000	5	1	0	5	0
249	92	0	10000	5	1	0	5	0
246	93	0	10000	5	1	0	5	0
241	94	0	10000	5	1	0	5	0
246	95	0	10000	5	1	0	5	0
259	96	0	10000	5	1	0	5	0
258	97	0	10000	5	1	0	5	0
253	98	0	10000	5	1	0	5	0
245	99	0	10000	5	1	0	5	0
240	100	0	10000	5	1	0	5	0
235	101	0	10000	5	1	0	5	0
224	102	0	10000	5	1	0	5	0
214	103	0	10000	5	1	0	5	0
208	104	0	10000	5	1	0	5	0
205	105	0	10000	5	1	0	5	0
204	106	0	10000	5	1	0	5	0
212	107	0	10000	5	1	0	5	0
207	108	0	10000	5	1	0	5	0
202	109	0	10000	5	1	0	5	0
194	110	0	10000	5	1	0	5	0
194	111	0	10000	5	1	0	5	0
199	112	0	10000	5	1	0	5	0
201	113	0	10000	5	1	0	5	0
199	114	0	10000	5	1	0	5	0
200	115	0	10000	5	1	0	5	0
201	116	0	10000	5	1	0	5	0
201	117	0	10000	5	1	0	5	0
200	118	0	10000	5	1	0	5	0
222	119	0	10000	5	1	0	5	0
237	120	0	10000	5	1	0	5	0
236	121	0	10000	5	1	0	5	0
225	122	0	10000	5	1	0	5	0
214	123	0	10000	5	1	0	5	0
211	124	0	10000	5	1	0	5	0
223	125	0	10000	5	1	0	5	0
243	126	0	10000	5	1	0	5	0
254	127	0	10000	5	1	0	5	0
260	128	0	10000	5	1	0	5	0
261	129	0	10000	5	1	0	5	0
254	130	0	10000	5	1	0	5	0
249	131	0	10000	5	1	0	5	0
248	132	0	10000	5	1	0	5	0
247	133	0	10000	5	1	0	5	0
241	134	0	10000	5	1	0	5	0
240	135	0	10000	5	1	0	5	0
238	136	0	10000	5	1	0	5	0
237	137	0	10000	5	1	0	5	0
228	138	0	10000	5	1	0	5	0
223	139	0	10000	5	1	0	5	0
225	140	0	10000	5	1	0	5	0
232	141	0	10000	5	1	0	5	0
237	142	0	10000	5	1	0	5	0
229	143	0	10000	5	1	0	5	0
230	144	0	10000	5	1	0	5	0
234	145	0	10000	5	1	0	5	0
231	146	0	10000	5	1	0	5	0
225	147	0	10000	5	1	0	5	0
216	148	0	10000	5	1	0	5	0
208	149	0	10000	5	1	0	5	0
201	150	0	10000	5	1	0	5	0
193	151	0	10000	5	1	0	5	0
187	152	0	10000	5	1	0	5	0
183	153	0	10000	5	1	0	5	0
178	154	0	10000	5	1	0	5	0
175	155	0	10000	5	1	0	5	0
172	156	0	10000	5	1	0	5	0
168	157	0	10000	5	1	0	5	0
170	158	0	10000	5	1	0	5	0
173	159	0	10000	5	1	0	5	0
175	160	0	10000	5	1	0	5	0
169	161	0	10000	5	1	0	5	0
163	162	0	10000	5	1	0	5	0
157	163	0	10000	5	1	0	5	0
168	164	0	10000	5	1	0	5	0
173	165	0	10000	5	1	0	5	0
170	166	0	10000	5	1	0	5	0
163	167	0	10000	5	1	0	5	0
161	168	0	10000	5	1	0	5	0
156	169	0	10000	5	1	0	5	0
153	170	0	10000	5	1	0	5	0
146	171	0	10000	5	1	0	5	0
143	172	0	10000	5	1	0	5	0
139	173	0	10000	5	1	0	5	0
135	174	0	10000	5	1	0	5	0
139	175	0	10000	5	1	0	5	0
140	176	0	10000	5	1	0	5	0
142	177	0	10000	5	1	0	5	0
136	178	0	10000	5	1	0	5	0
135	179	0	10000	5	1	0	5	0
135	180	0	10000	5	1	0	5	0
133	181	0	10000	5	1	0	5	0
132	182	0	10000	5	1	0	5	0
129	183	0	10000	5	1	0	5	0
137	184	0	10000	5	1	0	5	0
144	185	0	10000	5	1	0	5	0
148	186	0	10000	5	1	0	5	0
144	187	0	10000	5	1	0	5	0
138	188	0	10000	5	1	0	5	0
140	189	0	10000	5	1	0	5	0
138	190	0	10000	5	1	0	5	0
134	191	0	10000	5	1	0	5	0
136	192	0	10000	5	1	0	5	0
135	193	0	10000	5	1	0	5	0
135	194	0	10000	5	1	0	5	0
140	195	0	10000	5	1	0	5	0
144	196	0	10000	5	1	0	5	0
153	197	0	10000	5	1	0	5	0
153	198	0	10000	5	1	0	5	0
150	199	0	10000	5	1	0	5	0
146	200	0	10000	5	1	0	5	0
144	201	0	10000	5	1	0	5	0
139	202	0	10000	5	1	0	5	0
134	203	0	10000	5	1	0	5	0
144	204	0	10000	5	1	0	5	0
151	205	0	10000	5	1	0	5	0
153	206	0	10000	5	1	0	5	0
147	207	0	10000	5	1	0	5	0
143	208	0	10000	5	1	0	5	0
141	209	0	10000	5	1	0	5	0
136	210	0	10000	5	1	0	5	0
131	211	0	10000	5	1	0	5	0
127	212	0	10000	5	1	0	5	0
122	213	0	10000	5	1	0	5	0
120	214	0	10000	5	1	0	5	0
123	215	0	10000	5	1	0	5	0
123	216	0	10000	5	1	0	5	0
129	217	0	10000	5	1	0	5	0
128	218	0	10000	5	1	0	5	0
126	219	0	10000	5	1	0	5	0
124	220	0	10000	5	1	0	5	0
119	221	0	10000	5	1	0	5	0
115	222	0	10000	5	1	0	5	0
112	223	0	10000	5	1	0	5	0
120	224	0	10000	5	1	0	5	0
125	225	0	10000	5	1	0	5	0
126	226	0	10000	5	1	0	5	0
123	227	0	10000	5	1	0	5	0
122	228	0	10000	5	1	0	5	0
119	229	0	10000	5	1	0	5	0
116	230	0	10000	5	1	0	5	0
116	231	0	10000	5	1	0	5	0
116	232	0	10000	5	1	0	5	0
116	233	0	10000	5	1	0	5	0
115	234	0	10000	5	1	0	5	0
113	235	0	10000	5	1	0	5	0
112	236	0	10000	5	1	0	5	0
111	237	0	10000	5	1	0	5	0
109	238	0	10000	5	1	0	5	0
108	239	0	10000	5	1	0	5	0
112	240	0	10000	5	1	0	5	0
114	241	0	10000	5	1	0	5	0
117	242	0	10000	5	1	0	5	0
116	243	0	10000	5	1	0	5	0
116	244	0	10000	5	1	0	5	0
117	245	0	10000	5	1	0	5	0
115	246	0	10000	5	1	0	5	0
116	247	0	10000	5	1	0	5	0
118	248	0	10000	5	1	0	5	0
115	249	0	10000	5	1	0	5	0
114	250	0	10000	5	1	0	5	0
116	251	0	10000	5	1	0	5	0
118	252	0	10000	5	1	0	5	0
120	253	0	10000	5	1	0	5	0
120	254	0	10000	5	1	0	5	0
117	255	0	10000	5	1	0	5	0
114	256	0	10000	5	1	0	5	0
113	257	0	10000	5	1	0	5	0
113	258	0	10000	5	1	0	5	0
119	259	0	10000	5	1	0	5	0
126	260	0	10000	5	1	0	5	0
129	261	0	10000	5	1	0	5	0
133	262	0	10000	5	1	0	5	0
132	263	0	10000	5	1	0	5	0
133	264	0	10000	5	1	0	5	0
131	265	0	10000	5	1	0	5	0
129	266	0	10000	5	1	0	5	0
131	267	0	10000	5	1	0	5	0
130	268	0	10000	5	1	0	5	0
128	269	0	10000	5	1	0	5	0
126	270	0	10000	5	1	0	5	0
129	271	0	10000	5	1	0	5	0
134	272	0	10000	5	1	0	5	0
135	273	0	10000	5	1	0	5	0
133	274	0	10000	5	1	0	5	0
129	275	0	10000	5	1	0	5	0
126	276	0	10000	5	1	0	5	0
125	277	0	10000	5	1	0	5	0
121	278	0	10000	5	1	0	5	0
122	279	0	10000	5	1	0	5	0
127	280	0	10000	5	1	0	5	0
129	281	0	10000	5	1	0	5	0
135	282	0	10000	5	1	0	5	0
134	283	0	10000	5	1	0	5	0
135	284	0	10000	5	1	0	5	0
134	285	0	10000	5	1	0	5	0
131	286	0	10000	5	1	0	5	0
133	287	0	10000	5	1	0	5	0
131	288	0	10000	5	1	0	5	0
127	289	0	10000	5	1	0	5	0
124	290	0	10000	5	1	0	5	0
123	291	0	10000	5	1	0	5	0
121	292	0	10000	5	1	0	5	0
120	293	0	10000	5	1	0	5	0
119	294	0	10000	5	1	0	5	0
118	295	0	10000	5	1	0	5	0
113	296	0	10000	5	1	0	5	0
110	297	0	10000	5	1	0	5	0
108	298	0	10000	5	1	0	5	0
112	299	0	10000	5	1	0	5	0
119	300	0	10000	5	1	0	5	0
121	301	0	10000	5	1	0	5	0
122	302	0	10000	5	1	0	5	0
119	303	0	10000	5	1	0	5	0
120	304	0	10000	5	1	0	5	0
124	305	0	10000	5	1	0	5	0
122	306	0	10000	5	1	0	5	0
123	307	0	10000	5	1	0	5	0
121	308	0	10000	5	1	0	5	0
117	309	0	10000	5	1	0	5	0
114	310	0	10000	5	1	0	5	0
113	311	0	10000	5	1	0	5	0
112	312	0	10000	5	1	0	5	0
110	313	0	10000	5	1	0	5	0
109	314	0	10000	5	1	0	5	0
112	315	0	10000	5	1	0	5	0
115	316	0	10000	5	1	0	5	0
116	317	0	10000	5	1	0	5	0
113	318	0	10000	5	1	0	5	0
114	319	0	10000	5	1	0	5	0
118	320	0	10000	5	1	0	5	0
117	321	0	10000	5	1	0	5	0
120	322	0	10000	5	1	0	5	0
117	323	0	10000	5	1	0	5	0
120	324	0	10000	5	1	0	5	0
122	325	0	10000	5	1	0	5	0
120	326	0	10000	5	1	0	5	0
117	327	0	10000	5	1	0	5	0
113	328	0	10000	5	1	0	5	0
111	329	0	10000	5	1	0	5	0
109	330	0	10000	5	1	0	5	0
107	331	0	10000	5	1	0	5	0
105	332	0	10000	5	1	0	5	0
107	333	0	10000	5	1	0	5	0
107	334	0	10000	5	1	0	5	0
107	335	0	10000	5	1	0	5	0
107	336	0	10000	5	1	0	5	0
109	337	0	10000	5	1	0	5	0
107	338	0	10000	5	1	0	5	0
111	339	0	10000	5	1	0	5	0
116	340	0	10000	5	1	0	5	0
119	341	0	10000	5	1	0	5	0
122	342	0	10000	5	1	0	5	0
118	343	0	10000	5	1	0	5	0
122	344	0	10000	5	1	0	5	0
122	345	0	10000	5	1	0	5	0
117	346	0	10000	5	1	0	5	0
117	347	0	10000	5	1	0	5	0
115	348	0	10000	5	1	0	5	0
111	349	0	10000	5	1	0	5	0
108	350	0	10000	5	1	0	5	0
105	351	0	10000	5	1	0	5	0
105	352	0	10000	5	1	0	5	0
106	353	0	10000	5	1	0	5	0
105	354	0	10000	5	1	0	5	0
104	355	0	10000	5	1	0	5	0
105	356	0	10000	5	1	0	5	0
106	357	0	10000	5	1	0	5	0
102	358	0	10000	5	1	0	5	0
103	359	0	10000	5	1	0	5	0
107	360	0	10000	5	1	0	5	0
107	361	0	10000	5	1	0	5	0
107	362	0	10000	5	1	0	5	0
104	363	0	10000	5	1	0	5	0
110	364	0	10000	5	1	0	5	0
114	365	0	10000	5	1	0	5	0
113	366	0	10000	5	1	0	5	0
110	367	0	10000	5	1	0	5	0
110	368	0	10000	5	1	0	5	0
105	369	0	10000	5	1	0	5	0
101	370	0	10000	5	1	0	5	0
99	371	0	10000	5	1	0	5	0
102	372	0	10000	5	1	0	5	0
104	373	0	10000	5	1	0	5	0
101	374	0	10000	5	1	0	5	0
101	375	0	10000	5	1	0	5	0
101	376	0	10000	5	1	0	5	0
102	377	0	10000	5	1	0	5	0
100	378	0	10000	5	1	0	5	0
100	379	0	10000	5	1	0	5	0
101	380	0	10000	5	1	0	5	0
99	381	0	10000	5	1	0	5	0
99	382	0	10000	5	1	0	5	0
97	383	0	10000	5	1	0	5	0
107	384	0	10000	5	1	0	5	0
114	385	0	10000	5	1	0	5	0
115	386	0	10000	5	1	0	5	0
112	387	0	10000	5	1	0	5	0
107	388	0	10000	5	1	0	5	0
104	389	0	10000	5	1	0	5	0
100	390	0	10000	5	1	0	5	0
100	391	0	10000	5	1	0	5	0
100	392	0	10000	5	1	0	5	0
98	393	0	10000	5	1	0	5	0
96	394	0	10000	5	1	0	5	0
96	395	0	10000	5	1	0	5	0
95	396	0	10000	5	1	0	5	0
103	397	0	10000	5	1	0	5	0
99	398	0	10000	5	1	0	5	0
102	399	0	10000	5	1	0	5	0
107	400	0	10000	5	1	0	5	0
112	401	0	10000	5	1	0	5	0
117	402	0	10000	5	1	0	5	0
116	403	0	10000	5	1	0	5	0
120	404	0	10000	5	1	0	5	0
124	405	0	10000	5	1	0	5	0
123	406	0	10000	5	1	0	5	0
121	407	0	10000	5	1	0	5	0
118	408	0	10000	5	1	0	5	0
115	409	0	10000	5	1	0	5	0
112	410	0	10000	5	1	0	5	0
112	411	0	10000	5	1	0	5	0
111	412	0	10000	5	1	0	5	0
108	413	0	10000	5	1	0	5	0
106	414	0	10000	5	1	0	5	0
107	415	0	10000	5	1	0	5	0
109	416	0	10000	5	1	0	5	0
113	417	0	10000	5	1	0	5	0
110	418	0	10000	5	1	0	5	0
112	419	0	10000	5	1	0	5	0
118	420	0	10000	5	1	0	5	0
120	421	0	10000	5	1	0	5	0
122	422	0	10000	5	1	0	5	0
119	423	0	10000	5	1	0	5	0
121	424	0	10000	5	1	0	5	0
123	425	0	10000	5	1	0	5	0
124	426	0	10000	5	1	0	5	0
121	427	0	10000	5	1	0	5	0
121	428	0	10000	5	1	0	5	0
119	429	0	10000	5	1	0	5	0
116	430	0	10000	5	1	0	5	0
112	431	0	10000	5	1	0	5	0
109	432	0	10000	5	1	0	5	0
109	433	0	10000	5	1	0	5	0
107	434	0	10000	5	1	0	5	0
106	435	0	10000	5	1	0	5	0
106	436	0	10000	5	1	0	5	0
108	437	0	10000	5	1	0	5	0
104	438	0	10000	5	1	0	5	0
106	439	0	10000	5	1	0	5	0
113	440	0	10000	5	1	0	5	0
112	441	0	10000	5	1	0	5	0
113	442	0	10000	5	1	0	5	0
109	443	0	10000	5	1	0	5	0
116	444	0	10000	5	1	0	5	0
120	445	0	10000	5	1	0	5	0
121	446	0	10000	5	1	0	5	0
119	447	0	10000	5	1	0	5	0
118	448	0	10000	5	1	0	5	0
116	449	0	10000	5	1	0	5	0
114	450	0	10000	5	1	0	5	0
113	451	0	10000	5	1	0	5	0
112	452	0	10000	5	1	0	5	0
111	453	0	10000	5	1	0	5	0
109	454	0	10000	5	1	0	5	0
111	455	0	10000	5	1	0	5	0
114	456	0	10000	5	1	0	5	0
118	457	0	10000	5	1	0	5	0
113	458	0	10000	5	1	0	5	0
114	459	0	10000	5	1	0	5	0
117	460	0	10000	5	1	0	5	0
113	461	0	10000	5	1	0	5	0
113	462	0	10000	5	1	0	5	0
109	463	0	10000	5	1	0	5	0
114	464	0	10000	5	1	0	5	0
118	465	0	10000	5	1	0	5	0
118	466	0	10000	5	1	0	5	0
117	467	0	10000	5	1	0	5	0
115	468	0	10000	5	1	0	5	0
111	469	0	10000	5	1	0	5	0
110	470	0	10000	5	1	0	5	0
108	471	0	10000	5	1	0	5	0
105	472	0	10000	5	1	0	5	0
104	473	0	10000	5	1	0	5	0
103	474	0	10000	5	1	0	5	0
104	475	0	10000	5	1	0	5	0
106	476	0	10000	5	1	0	5	0
107	477	0	10000	5	1	0	5	0
102	478	0	10000	5	1	0	5	0
104	479	0	10000	5	1	0	5	0
106	480	0	10000	5	1	0	5	0
105	481	0	10000	5	1	0	5	0
101	482	0	10000	5	1	0	5	0
100	483	0	10000	5	1	0	5	0
112	484	0	10000	5	1	0	5	0
120	485	0	10000	5	1	0	5	0
121	486	0	10000	5	1	0	5	0
119	487	0	10000	5	1	0	5	0
115	488	0	10000	5	1	0	5	0
111	489	0	10000	5	1	0	5	0
108	490	0	10000	5	1	0	5	0
106	491	0	10000	5	1	0	5	0
104	492	0	10000	5	1	0	5	0
103	493	0	10000	5	1	0	5	0
103	494	0	10000	5	1	0	5	0
104	495	0	10000	5	1	0	5	0
105	496	0	10000	5	1	0	5	0
113	497	0	10000	5	1	0	5	0
109	498	0	10000	5	1	0	5	0
109	499	0	10000	5	1	0	5	0
108	500	0	10000	5	1	0	5	0
107	501	0	10000	5	1	0	5	1
109	502	0	10000	5	1	0	5	1
106	503	0	10000	5	1	0	5	1
113	504	0	10000	5	1	0	5	1
113	505	0	10000	5	1	0	5	1
110	506	0	10000	5	1	0	5	1
108	507	0	10000	5	1	0	5	1
104	508	0	10000	5	1	0	5	1
102	509	0	10000	5	1	0	5	1
100	510	0	10000	5	1	0	5	1
99	511	0	10000	5	1	0	5	1
97	512	0	10000	5	1	0	5	1
97	513	0	10000	5	1	0	5	1
96	514	0	10000	5	1	0	5	1
93	515	0	10000	5	1	0	5	1
95	516	0	10000	5	1	0	5	1
96	517	0	10000	5	1	0	5	1
93	518	0	10000	5	1	0	5	1
94	519	0	10000	5	1	0	5	1
99	520	0	10000	5	1	0	5	1
104	521	0	10000	5	1	0	5	1
105	522	0	10000	5	1	0	5	1
103	523	0	10000	5	1	0	5	1
108	524	0	10000	5	1	0	5	1
111	525	0	10000	5	1	0	5	1
114	526	0	10000	5	1	0	5	1
111	527	0	10000	5	1	0	5	1
109	528	0	10000	5	1	0	5	1
105	529	0	10000	5	1	0	5	1
103	530	0	10000	5	1	0	5	1
101	531	0	10000	5	1	0	5	1
100	532	0	10000	5	1	0	5	1
99	533	0	10000	5	1	0	5	1
97	534	0	10000	5	1	0	5	1
99	535	0	10000	5	1	0	5	1
100	536	0	10000	5	1	0	5	1
104	537	0	10000	5	1	0	5	1
102	538	0	10000	5	1	0	5	1
101	539	0	10000	5	1	0	5	1
104	540	0	10000	5	1	0	5	1
103	541	0	10000	5	1	0	5	1
102	542	0	10000	5	1	0	5	1
99	543	0	10000	5	1	0	5	1
108	544	0	10000	5	1	0	5	1
112	545	0	10000	5	1	0	5	1
113	546	0	10000	5	1	0	5	1
111	547	0	10000	5	1	0	5	1
111	548	0	10000	5	1	0	5	1
107	549	0	10000	5	1	0	5	1
105	550	0	10000	5	1	0	5	1
104	551	0	10000	5	1	0	5	0
105	552	0	10000	5	1	0	5	0
106	553	0	10000	5	1	0	5	0
105	554	0	10000	5	1	0	5	0
106	555	0	10000	5	1	0	5	0
106	556	0	10000	5	1	0	5	0
105	557	0	10000	5	1	0	5	0
101	558	0	10000	5	1	0	5	0
102	559	0	10000	5	1	0	5	0
104	560	0	10000	5	1	0	5	0
107	561	0	10000	5	1	0	5	0
114	562	0	10000	5	1	0	5	0
113	563	0	10000	5	1	0	5	0
116	564	0	10000	5	1	0	5	0
119	565	0	10000	5	1	0	5	0
117	566	0	10000	5	1	0	5	0
116	567	0	10000	5	1	0	5	0
113	568	0	10000	5	1	0	5	0
114	569	0	10000	5	1	0	5	0
115	570	0	10000	5	1	0	5	0
112	571	0	10000	5	1	0	5	0
112	572	0	10000	5	1	0	5	0
110	573	0	10000	5	1	0	5	0
108	574	0	10000	5	1	0	5	0
107	575	0	10000	5	1	0	5	0
108	576	0	10000	5	1	0	5	0
111	577	0	10000	5	1	0	5	0
109	578	0	10000	5	1	0	5	0
110	579	0	10000	5	1	0	5	0
111	580	0	10000	5	1	0	5	0
111	581	0	10000	5	1	0	5	0
114	582	0	10000	5	1	0	5	0
115	583	0	10000	5	1	0	5	0
120	584	0	10000	5	1	0	5	0
120	585	0	10000	5	1	0	5	0
117	586	0	10000	5	1	0	5	0
117	587	0	10000	5	1	0	5	0
115	588	0	10000	5	1	0	5	0
116	589	0	10000	5	1	0	5	0
115	590	0	10000	5	1	0	5	0
113	591	0	10000	5	1	0	5	0
113	592	0	10000	5	1	0	5	0
116	593	0	10000	5	1	0	5	0
114	594	0	10000	5	1	0	5	0
111	595	0	10000	5	1	0	5	0
112	596	0	10000	5	1	0	5	0
116	597	0	10000	5	1	0	5	0
111	598	0	10000	5	1	0	5	0
110	599	0	10000	5	1	0	5	0
110	600	0	10000	5	1	0	5	0
109	601	0	10000	5	1	0	5	0
113	602	0	10000	5	1	0	5	0
113	603	0	10000	5	1	0	5	0
110	604	0	10000	5	1	0	5	0
108	605	0	10000	5	1	0	5	0
109	606	0	10000	5	1	0	5	0
108	607	0	10000	5	1	0	5	0
107	608	0	10000	5	1	0	5	0
105	609	0	10000	5	1	0	5	0
108	610	0	10000	5	1	0	5	0
107	611	0	10000	5	1	0	5	0
107	612	0	10000	5	1	0	5	0
106	613	0	10000	5	1	0	5	0
111	614	0	10000	5	1	0	5	0
115	615	0	10000	5	1	0	5	0
117	616	0	10000	5	1	0	5	0
126	617	0	10000	5	1	0	5	0
121	618	0	10000	5	1	0	5	0
122	619	0	10000	5	1	0	5	0
127	620	0	10000	5	1	0	5	0
126	621	0	10000	5	1	0	5	0
128	622	0	10000	5	1	0	5	0
127	623	0	10000	5	1	0	5	0
140	624	0	10000	5	1	0	5	0
142	625	0	10000	5	1	0	5	0
144	626	0	10000	5	1	0	5	0
150	627	0	10000	5	1	0	5	0
152	628	0	10000	5	1	0	5	0
147	629	0	10000	5	1	0	5	0
144	630	0	10000	5	1	0	5	0
140	631	0	10000	5	1	0	5	0
135	632	0	10000	5	1	0	5	0
132	633	0	10000	5	1	0	5	0
130	634	0	10000	5	1	0	5	0
130	635	0	10000	5	1	0	5	0
129	636	0	10000	5	1	0	5	0
133	637	0	10000	5	1	0	5	0
133	638	0	10000	5	1	0	5	0
131	639	0	10000	5	1	0	5	0
129	640	0	10000	5	1	0	5	0
126	641	0	10000	5	1	0	5	0
124	642	0	10000	5	1	0	5	0
121	643	0	10000	5	1	0	5	0
130	644	0	10000	5	1	0	5	0
