value	EMG	Stimulus	EMG_sensitivity	Total_Trial_Nr	practise	acq	probe_nr	Startle_Probe
86	2	0	10000	1	1	0	1	0
83	3	0	10000	1	1	0	1	0
80	4	0	10000	1	1	0	1	0
75	5	0	10000	1	1	0	1	0
72	6	0	10000	1	1	0	1	0
74	7	0	10000	1	1	0	1	0
73	8	0	10000	1	1	0	1	0
72	9	0	10000	1	1	0	1	0
72	10	0	10000	1	1	0	1	0
72	11	0	10000	1	1	0	1	0
70	12	0	10000	1	1	0	1	0
69	13	0	10000	1	1	0	1	0
76	14	0	10000	1	1	0	1	0
76	15	0	10000	1	1	0	1	0
75	16	0	10000	1	1	0	1	0
78	17	0	10000	1	1	0	1	0
79	18	0	10000	1	1	0	1	0
76	19	0	10000	1	1	0	1	0
76	20	0	10000	1	1	0	1	0
76	21	0	10000	1	1	0	1	0
79	22	0	10000	1	1	0	1	0
82	23	0	10000	1	1	0	1	0
81	24	0	10000	1	1	0	1	0
80	25	0	10000	1	1	0	1	0
82	26	0	10000	1	1	0	1	0
84	27	0	10000	1	1	0	1	0
82	28	0	10000	1	1	0	1	0
80	29	0	10000	1	1	0	1	0
79	30	0	10000	1	1	0	1	0
77	31	0	10000	1	1	0	1	0
76	32	0	10000	1	1	0	1	0
74	33	0	10000	1	1	0	1	0
73	34	0	10000	1	1	0	1	0
74	35	0	10000	1	1	0	1	0
72	36	0	10000	1	1	0	1	0
70	37	0	10000	1	1	0	1	0
68	38	0	10000	1	1	0	1	0
66	39	0	10000	1	1	0	1	0
63	40	0	10000	1	1	0	1	0
61	41	0	10000	1	1	0	1	0
63	42	0	10000	1	1	0	1	0
69	43	0	10000	1	1	0	1	0
76	44	0	10000	1	1	0	1	0
82	45	0	10000	1	1	0	1	0
79	46	0	10000	1	1	0	1	0
77	47	0	10000	1	1	0	1	0
76	48	0	10000	1	1	0	1	0
77	49	0	10000	1	1	0	1	0
80	50	0	10000	1	1	0	1	0
86	51	0	10000	1	1	0	1	0
93	52	0	10000	1	1	0	1	0
95	53	0	10000	1	1	0	1	0
94	54	0	10000	1	1	0	1	0
91	55	0	10000	1	1	0	1	0
88	56	0	10000	1	1	0	1	0
87	57	0	10000	1	1	0	1	0
83	58	0	10000	1	1	0	1	0
80	59	0	10000	1	1	0	1	0
78	60	0	10000	1	1	0	1	0
75	61	0	10000	1	1	0	1	0
72	62	0	10000	1	1	0	1	0
70	63	0	10000	1	1	0	1	0
74	64	0	10000	1	1	0	1	0
77	65	0	10000	1	1	0	1	0
74	66	0	10000	1	1	0	1	0
73	67	0	10000	1	1	0	1	0
73	68	0	10000	1	1	0	1	0
72	69	0	10000	1	1	0	1	0
69	70	0	10000	1	1	0	1	0
69	71	0	10000	1	1	0	1	0
70	72	0	10000	1	1	0	1	0
70	73	0	10000	1	1	0	1	0
73	74	0	10000	1	1	0	1	0
73	75	0	10000	1	1	0	1	0
71	76	0	10000	1	1	0	1	0
70	77	0	10000	1	1	0	1	0
71	78	0	10000	1	1	0	1	0
72	79	0	10000	1	1	0	1	0
73	80	0	10000	1	1	0	1	0
76	81	0	10000	1	1	0	1	0
78	82	0	10000	1	1	0	1	0
80	83	0	10000	1	1	0	1	0
80	84	0	10000	1	1	0	1	0
80	85	0	10000	1	1	0	1	0
83	86	0	10000	1	1	0	1	0
84	87	0	10000	1	1	0	1	0
82	88	0	10000	1	1	0	1	0
80	89	0	10000	1	1	0	1	0
79	90	0	10000	1	1	0	1	0
75	91	0	10000	1	1	0	1	0
74	92	0	10000	1	1	0	1	0
76	93	0	10000	1	1	0	1	0
75	94	0	10000	1	1	0	1	0
73	95	0	10000	1	1	0	1	0
74	96	0	10000	1	1	0	1	0
72	97	0	10000	1	1	0	1	0
70	98	0	10000	1	1	0	1	0
70	99	0	10000	1	1	0	1	0
75	100	0	10000	1	1	0	1	0
75	101	0	10000	1	1	0	1	0
75	102	0	10000	1	1	0	1	0
74	103	0	10000	1	1	0	1	0
72	104	0	10000	1	1	0	1	0
70	105	0	10000	1	1	0	1	0
71	106	0	10000	1	1	0	1	0
75	107	0	10000	1	1	0	1	0
75	108	0	10000	1	1	0	1	0
73	109	0	10000	1	1	0	1	0
72	110	0	10000	1	1	0	1	0
71	111	0	10000	1	1	0	1	0
70	112	0	10000	1	1	0	1	0
70	113	0	10000	1	1	0	1	0
69	114	0	10000	1	1	0	1	0
67	115	0	10000	1	1	0	1	0
65	116	0	10000	1	1	0	1	0
62	117	0	10000	1	1	0	1	0
61	118	0	10000	1	1	0	1	0
60	119	0	10000	1	1	0	1	0
58	120	0	10000	1	1	0	1	0
56	121	0	10000	1	1	0	1	0
57	122	0	10000	1	1	0	1	0
57	123	0	10000	1	1	0	1	0
54	124	0	10000	1	1	0	1	0
55	125	0	10000	1	1	0	1	0
55	126	0	10000	1	1	0	1	0
54	127	0	10000	1	1	0	1	0
56	128	0	10000	1	1	0	1	0
59	129	0	10000	1	1	0	1	0
58	130	0	10000	1	1	0	1	0
56	131	0	10000	1	1	0	1	0
55	132	0	10000	1	1	0	1	0
54	133	0	10000	1	1	0	1	0
59	134	0	10000	1	1	0	1	0
57	135	0	10000	1	1	0	1	0
56	136	0	10000	1	1	0	1	0
59	137	0	10000	1	1	0	1	0
60	138	0	10000	1	1	0	1	0
59	139	0	10000	1	1	0	1	0
58	140	0	10000	1	1	0	1	0
58	141	0	10000	1	1	0	1	0
59	142	0	10000	1	1	0	1	0
56	143	0	10000	1	1	0	1	0
54	144	0	10000	1	1	0	1	0
53	145	0	10000	1	1	0	1	0
54	146	0	10000	1	1	0	1	0
52	147	0	10000	1	1	0	1	0
52	148	0	10000	1	1	0	1	0
55	149	0	10000	1	1	0	1	0
60	150	0	10000	1	1	0	1	0
61	151	0	10000	1	1	0	1	0
60	152	0	10000	1	1	0	1	0
59	153	0	10000	1	1	0	1	0
63	154	0	10000	1	1	0	1	0
65	155	0	10000	1	1	0	1	0
64	156	0	10000	1	1	0	1	0
63	157	0	10000	1	1	0	1	0
62	158	0	10000	1	1	0	1	0
63	159	0	10000	1	1	0	1	0
61	160	0	10000	1	1	0	1	0
65	161	0	10000	1	1	0	1	0
68	162	0	10000	1	1	0	1	0
68	163	0	10000	1	1	0	1	0
71	164	0	10000	1	1	0	1	0
74	165	0	10000	1	1	0	1	0
71	166	0	10000	1	1	0	1	0
69	167	0	10000	1	1	0	1	0
66	168	0	10000	1	1	0	1	0
65	169	0	10000	1	1	0	1	0
64	170	0	10000	1	1	0	1	0
65	171	0	10000	1	1	0	1	0
63	172	0	10000	1	1	0	1	0
63	173	0	10000	1	1	0	1	0
70	174	0	10000	1	1	0	1	0
68	175	0	10000	1	1	0	1	0
68	176	0	10000	1	1	0	1	0
76	177	0	10000	1	1	0	1	0
83	178	0	10000	1	1	0	1	0
81	179	0	10000	1	1	0	1	0
80	180	0	10000	1	1	0	1	0
79	181	0	10000	1	1	0	1	0
76	182	0	10000	1	1	0	1	0
73	183	0	10000	1	1	0	1	0
68	184	0	10000	1	1	0	1	0
69	185	0	10000	1	1	0	1	0
71	186	0	10000	1	1	0	1	0
70	187	0	10000	1	1	0	1	0
70	188	0	10000	1	1	0	1	0
69	189	0	10000	1	1	0	1	0
70	190	0	10000	1	1	0	1	0
68	191	0	10000	1	1	0	1	0
70	192	0	10000	1	1	0	1	0
68	193	0	10000	1	1	0	1	0
68	194	0	10000	1	1	0	1	0
67	195	0	10000	1	1	0	1	0
65	196	0	10000	1	1	0	1	0
63	197	0	10000	1	1	0	1	0
62	198	0	10000	1	1	0	1	0
60	199	0	10000	1	1	0	1	0
62	200	0	10000	1	1	0	1	0
65	201	0	10000	1	1	0	1	0
65	202	0	10000	1	1	0	1	0
64	203	0	10000	1	1	0	1	0
61	204	0	10000	1	1	0	1	0
63	205	0	10000	1	1	0	1	0
64	206	0	10000	1	1	0	1	0
63	207	0	10000	1	1	0	1	0
66	208	0	10000	1	1	0	1	0
69	209	0	10000	1	1	0	1	0
69	210	0	10000	1	1	0	1	0
66	211	0	10000	1	1	0	1	0
63	212	0	10000	1	1	0	1	0
62	213	0	10000	1	1	0	1	0
62	214	0	10000	1	1	0	1	0
61	215	0	10000	1	1	0	1	0
59	216	0	10000	1	1	0	1	0
57	217	0	10000	1	1	0	1	0
56	218	0	10000	1	1	0	1	0
57	219	0	10000	1	1	0	1	0
56	220	0	10000	1	1	0	1	0
56	221	0	10000	1	1	0	1	0
57	222	0	10000	1	1	0	1	0
58	223	0	10000	1	1	0	1	0
58	224	0	10000	1	1	0	1	0
57	225	0	10000	1	1	0	1	0
60	226	0	10000	1	1	0	1	0
59	227	0	10000	1	1	0	1	0
59	228	0	10000	1	1	0	1	0
59	229	0	10000	1	1	0	1	0
62	230	0	10000	1	1	0	1	0
63	231	0	10000	1	1	0	1	0
59	232	0	10000	1	1	0	1	0
57	233	0	10000	1	1	0	1	0
58	234	0	10000	1	1	0	1	0
57	235	0	10000	1	1	0	1	0
57	236	0	10000	1	1	0	1	0
56	237	0	10000	1	1	0	1	0
56	238	0	10000	1	1	0	1	0
59	239	0	10000	1	1	0	1	0
58	240	0	10000	1	1	0	1	0
57	241	0	10000	1	1	0	1	0
55	242	0	10000	1	1	0	1	0
56	243	0	10000	1	1	0	1	0
53	244	0	10000	1	1	0	1	0
53	245	0	10000	1	1	0	1	0
54	246	0	10000	1	1	0	1	0
56	247	0	10000	1	1	0	1	0
57	248	0	10000	1	1	0	1	0
58	249	0	10000	1	1	0	1	0
61	250	0	10000	1	1	0	1	0
59	251	0	10000	1	1	0	1	0
59	252	0	10000	1	1	0	1	0
60	253	0	10000	1	1	0	1	0
63	254	0	10000	1	1	0	1	0
64	255	0	10000	1	1	0	1	0
65	256	0	10000	1	1	0	1	0
63	257	0	10000	1	1	0	1	0
62	258	0	10000	1	1	0	1	0
65	259	0	10000	1	1	0	1	0
65	260	0	10000	1	1	0	1	0
66	261	0	10000	1	1	0	1	0
66	262	0	10000	1	1	0	1	0
66	263	0	10000	1	1	0	1	0
64	264	0	10000	1	1	0	1	0
61	265	0	10000	1	1	0	1	0
60	266	0	10000	1	1	0	1	0
58	267	0	10000	1	1	0	1	0
56	268	0	10000	1	1	0	1	0
56	269	0	10000	1	1	0	1	0
55	270	0	10000	1	1	0	1	0
58	271	0	10000	1	1	0	1	0
67	272	0	10000	1	1	0	1	0
70	273	0	10000	1	1	0	1	0
70	274	0	10000	1	1	0	1	0
67	275	0	10000	1	1	0	1	0
65	276	0	10000	1	1	0	1	0
64	277	0	10000	1	1	0	1	0
62	278	0	10000	1	1	0	1	0
62	279	0	10000	1	1	0	1	0
67	280	0	10000	1	1	0	1	0
69	281	0	10000	1	1	0	1	0
70	282	0	10000	1	1	0	1	0
68	283	0	10000	1	1	0	1	0
65	284	0	10000	1	1	0	1	0
66	285	0	10000	1	1	0	1	0
67	286	0	10000	1	1	0	1	0
65	287	0	10000	1	1	0	1	0
64	288	0	10000	1	1	0	1	0
62	289	0	10000	1	1	0	1	0
60	290	0	10000	1	1	0	1	0
60	291	0	10000	1	1	0	1	0
59	292	0	10000	1	1	0	1	0
61	293	0	10000	1	1	0	1	0
63	294	0	10000	1	1	0	1	0
64	295	0	10000	1	1	0	1	0
64	296	0	10000	1	1	0	1	0
63	297	0	10000	1	1	0	1	0
61	298	0	10000	1	1	0	1	0
61	299	0	10000	1	1	0	1	0
67	300	0	10000	1	1	0	1	0
68	301	0	10000	1	1	0	1	0
67	302	0	10000	1	1	0	1	0
67	303	0	10000	1	1	0	1	0
62	304	0	10000	1	1	0	1	0
61	305	0	10000	1	1	0	1	0
60	306	0	10000	1	1	0	1	0
61	307	0	10000	1	1	0	1	0
59	308	0	10000	1	1	0	1	0
57	309	0	10000	1	1	0	1	0
56	310	0	10000	1	1	0	1	0
55	311	0	10000	1	1	0	1	0
54	312	0	10000	1	1	0	1	0
56	313	0	10000	1	1	0	1	0
60	314	0	10000	1	1	0	1	0
64	315	0	10000	1	1	0	1	0
64	316	0	10000	1	1	0	1	0
63	317	0	10000	1	1	0	1	0
61	318	0	10000	1	1	0	1	0
60	319	0	10000	1	1	0	1	0
59	320	0	10000	1	1	0	1	0
63	321	0	10000	1	1	0	1	0
65	322	0	10000	1	1	0	1	0
63	323	0	10000	1	1	0	1	0
58	324	0	10000	1	1	0	1	0
58	325	0	10000	1	1	0	1	0
56	326	0	10000	1	1	0	1	0
56	327	0	10000	1	1	0	1	0
56	328	0	10000	1	1	0	1	0
55	329	0	10000	1	1	0	1	0
56	330	0	10000	1	1	0	1	0
55	331	0	10000	1	1	0	1	0
53	332	0	10000	1	1	0	1	0
54	333	0	10000	1	1	0	1	0
56	334	0	10000	1	1	0	1	0
56	335	0	10000	1	1	0	1	0
55	336	0	10000	1	1	0	1	0
52	337	0	10000	1	1	0	1	0
51	338	0	10000	1	1	0	1	0
51	339	0	10000	1	1	0	1	0
48	340	0	10000	1	1	0	1	0
50	341	0	10000	1	1	0	1	0
54	342	0	10000	1	1	0	1	0
58	343	0	10000	1	1	0	1	0
59	344	0	10000	1	1	0	1	0
58	345	0	10000	1	1	0	1	0
56	346	0	10000	1	1	0	1	0
55	347	0	10000	1	1	0	1	0
54	348	0	10000	1	1	0	1	0
51	349	0	10000	1	1	0	1	0
52	350	0	10000	1	1	0	1	0
49	351	0	10000	1	1	0	1	0
47	352	0	10000	1	1	0	1	0
46	353	0	10000	1	1	0	1	0
46	354	0	10000	1	1	0	1	0
45	355	0	10000	1	1	0	1	0
44	356	0	10000	1	1	0	1	0
47	357	0	10000	1	1	0	1	0
47	358	0	10000	1	1	0	1	0
45	359	0	10000	1	1	0	1	0
43	360	0	10000	1	1	0	1	0
45	361	0	10000	1	1	0	1	0
48	362	0	10000	1	1	0	1	0
47	363	0	10000	1	1	0	1	0
48	364	0	10000	1	1	0	1	0
47	365	0	10000	1	1	0	1	0
48	366	0	10000	1	1	0	1	0
45	367	0	10000	1	1	0	1	0
44	368	0	10000	1	1	0	1	0
44	369	0	10000	1	1	0	1	0
45	370	0	10000	1	1	0	1	0
46	371	0	10000	1	1	0	1	0
46	372	0	10000	1	1	0	1	0
49	373	0	10000	1	1	0	1	0
54	374	0	10000	1	1	0	1	0
53	375	0	10000	1	1	0	1	0
53	376	0	10000	1	1	0	1	0
54	377	0	10000	1	1	0	1	0
55	378	0	10000	1	1	0	1	0
59	379	0	10000	1	1	0	1	0
58	380	0	10000	1	1	0	1	0
61	381	0	10000	1	1	0	1	0
61	382	0	10000	1	1	0	1	0
61	383	0	10000	1	1	0	1	0
59	384	0	10000	1	1	0	1	0
59	385	0	10000	1	1	0	1	0
63	386	0	10000	1	1	0	1	0
62	387	0	10000	1	1	0	1	0
60	388	0	10000	1	1	0	1	0
58	389	0	10000	1	1	0	1	0
56	390	0	10000	1	1	0	1	0
56	391	0	10000	1	1	0	1	0
54	392	0	10000	1	1	0	1	0
57	393	0	10000	1	1	0	1	0
60	394	0	10000	1	1	0	1	0
62	395	0	10000	1	1	0	1	0
62	396	0	10000	1	1	0	1	0
60	397	0	10000	1	1	0	1	0
61	398	0	10000	1	1	0	1	0
63	399	0	10000	1	1	0	1	0
62	400	0	10000	1	1	0	1	0
62	401	0	10000	1	1	0	1	0
63	402	0	10000	1	1	0	1	0
66	403	0	10000	1	1	0	1	0
67	404	0	10000	1	1	0	1	0
66	405	0	10000	1	1	0	1	0
65	406	0	10000	1	1	0	1	0
64	407	0	10000	1	1	0	1	0
66	408	0	10000	1	1	0	1	0
72	409	0	10000	1	1	0	1	0
75	410	0	10000	1	1	0	1	0
73	411	0	10000	1	1	0	1	0
70	412	0	10000	1	1	0	1	0
69	413	0	10000	1	1	0	1	0
71	414	0	10000	1	1	0	1	0
71	415	0	10000	1	1	0	1	0
67	416	0	10000	1	1	0	1	0
66	417	0	10000	1	1	0	1	0
63	418	0	10000	1	1	0	1	0
61	419	0	10000	1	1	0	1	0
61	420	0	10000	1	1	0	1	0
63	421	0	10000	1	1	0	1	0
66	422	0	10000	1	1	0	1	0
63	423	0	10000	1	1	0	1	0
59	424	0	10000	1	1	0	1	0
60	425	0	10000	1	1	0	1	0
63	426	0	10000	1	1	0	1	0
69	427	0	10000	1	1	0	1	0
69	428	0	10000	1	1	0	1	0
72	429	0	10000	1	1	0	1	0
71	430	0	10000	1	1	0	1	0
68	431	0	10000	1	1	0	1	0
68	432	0	10000	1	1	0	1	0
68	433	0	10000	1	1	0	1	0
70	434	0	10000	1	1	0	1	0
70	435	0	10000	1	1	0	1	0
73	436	0	10000	1	1	0	1	0
70	437	0	10000	1	1	0	1	0
68	438	0	10000	1	1	0	1	0
65	439	0	10000	1	1	0	1	0
64	440	0	10000	1	1	0	1	0
62	441	0	10000	1	1	0	1	0
60	442	0	10000	1	1	0	1	0
62	443	0	10000	1	1	0	1	0
61	444	0	10000	1	1	0	1	0
60	445	0	10000	1	1	0	1	0
58	446	0	10000	1	1	0	1	0
57	447	0	10000	1	1	0	1	0
57	448	0	10000	1	1	0	1	0
58	449	0	10000	1	1	0	1	0
58	450	0	10000	1	1	0	1	0
58	451	0	10000	1	1	0	1	0
59	452	0	10000	1	1	0	1	0
59	453	0	10000	1	1	0	1	0
61	454	0	10000	1	1	0	1	0
65	455	0	10000	1	1	0	1	0
67	456	0	10000	1	1	0	1	0
66	457	0	10000	1	1	0	1	0
66	458	0	10000	1	1	0	1	0
64	459	0	10000	1	1	0	1	0
65	460	0	10000	1	1	0	1	0
65	461	0	10000	1	1	0	1	0
64	462	0	10000	1	1	0	1	0
62	463	0	10000	1	1	0	1	0
61	464	0	10000	1	1	0	1	0
60	465	0	10000	1	1	0	1	0
58	466	0	10000	1	1	0	1	0
62	467	0	10000	1	1	0	1	0
64	468	0	10000	1	1	0	1	0
64	469	0	10000	1	1	0	1	0
62	470	0	10000	1	1	0	1	0
61	471	0	10000	1	1	0	1	0
60	472	0	10000	1	1	0	1	0
59	473	0	10000	1	1	0	1	0
59	474	0	10000	1	1	0	1	0
57	475	0	10000	1	1	0	1	0
56	476	0	10000	1	1	0	1	0
55	477	0	10000	1	1	0	1	0
55	478	0	10000	1	1	0	1	0
60	479	0	10000	1	1	0	1	0
62	480	0	10000	1	1	0	1	0
62	481	0	10000	1	1	0	1	0
66	482	0	10000	1	1	0	1	0
71	483	0	10000	1	1	0	1	0
75	484	0	10000	1	1	0	1	0
80	485	0	10000	1	1	0	1	0
78	486	0	10000	1	1	0	1	0
75	487	0	10000	1	1	0	1	0
73	488	0	10000	1	1	0	1	0
72	489	0	10000	1	1	0	1	0
72	490	0	10000	1	1	0	1	0
72	491	0	10000	1	1	0	1	0
68	492	0	10000	1	1	0	1	0
68	493	0	10000	1	1	0	1	0
69	494	0	10000	1	1	0	1	0
66	495	0	10000	1	1	0	1	0
65	496	0	10000	1	1	0	1	0
62	497	0	10000	1	1	0	1	0
60	498	0	10000	1	1	0	1	0
58	499	0	10000	1	1	0	1	0
57	500	0	10000	1	1	0	1	0
60	501	0	10000	1	1	0	1	0
58	544	0	10000	1	1	0	1	1
56	545	0	10000	1	1	0	1	1
53	546	0	10000	1	1	0	1	1
53	547	0	10000	1	1	0	1	1
52	548	0	10000	1	1	0	1	1
51	549	0	10000	1	1	0	1	1
52	550	0	10000	1	1	0	1	1
51	551	0	10000	1	1	0	1	1
52	552	0	10000	1	1	0	1	1
49	553	0	10000	1	1	0	1	1
47	554	0	10000	1	1	0	1	1
45	555	0	10000	1	1	0	1	1
46	556	0	10000	1	1	0	1	1
49	557	0	10000	1	1	0	1	1
49	558	0	10000	1	1	0	1	1
48	559	0	10000	1	1	0	1	1
50	560	0	10000	1	1	0	1	1
53	561	0	10000	1	1	0	1	1
55	562	0	10000	1	1	0	1	1
60	563	0	10000	1	1	0	1	1
61	564	0	10000	1	1	0	1	1
60	565	0	10000	1	1	0	1	1
59	566	0	10000	1	1	0	1	1
57	567	0	10000	1	1	0	1	1
57	568	0	10000	1	1	0	1	1
60	569	0	10000	1	1	0	1	1
58	570	0	10000	1	1	0	1	1
57	571	0	10000	1	1	0	1	1
58	572	0	10000	1	1	0	1	1
56	573	0	10000	1	1	0	1	1
54	574	0	10000	1	1	0	1	1
53	575	0	10000	1	1	0	1	1
56	576	0	10000	1	1	0	1	1
58	577	0	10000	1	1	0	1	1
58	578	0	10000	1	1	0	1	1
59	579	0	10000	1	1	0	1	1
57	580	0	10000	1	1	0	1	1
56	581	0	10000	1	1	0	1	1
54	582	0	10000	1	1	0	1	1
53	583	0	10000	1	1	0	1	1
53	584	0	10000	1	1	0	1	1
53	585	0	10000	1	1	0	1	1
51	586	0	10000	1	1	0	1	1
50	587	0	10000	1	1	0	1	1
49	548	0	10000	1	1	0	1	1
52	549	0	10000	1	1	0	1	1
53	550	0	10000	1	1	0	1	1
52	551	0	10000	1	1	0	1	1
52	550	0	10000	1	1	0	1	1
50	551	0	10000	1	1	0	1	1
49	552	0	10000	1	1	0	1	0
48	553	0	10000	1	1	0	1	0
49	554	0	10000	1	1	0	1	0
49	555	0	10000	1	1	0	1	0
48	556	0	10000	1	1	0	1	0
47	557	0	10000	1	1	0	1	0
49	558	0	10000	1	1	0	1	0
53	559	0	10000	1	1	0	1	0
52	560	0	10000	1	1	0	1	0
52	561	0	10000	1	1	0	1	0
51	562	0	10000	1	1	0	1	0
51	563	0	10000	1	1	0	1	0
48	564	0	10000	1	1	0	1	0
47	565	0	10000	1	1	0	1	0
48	566	0	10000	1	1	0	1	0
47	567	0	10000	1	1	0	1	0
47	568	0	10000	1	1	0	1	0
46	569	0	10000	1	1	0	1	0
46	570	0	10000	1	1	0	1	0
43	571	0	10000	1	1	0	1	0
41	572	0	10000	1	1	0	1	0
42	573	0	10000	1	1	0	1	0
43	574	0	10000	1	1	0	1	0
44	575	0	10000	1	1	0	1	0
45	576	0	10000	1	1	0	1	0
46	577	0	10000	1	1	0	1	0
47	578	0	10000	1	1	0	1	0
50	579	0	10000	1	1	0	1	0
50	580	0	10000	1	1	0	1	0
49	581	0	10000	1	1	0	1	0
48	582	0	10000	1	1	0	1	0
50	583	0	10000	1	1	0	1	0
46	584	0	10000	1	1	0	1	0
46	585	0	10000	1	1	0	1	0
45	586	0	10000	1	1	0	1	0
48	587	0	10000	1	1	0	1	0
49	588	0	10000	1	1	0	1	0
49	589	0	10000	1	1	0	1	0
47	590	0	10000	1	1	0	1	0
44	591	0	10000	1	1	0	1	0
43	592	0	10000	1	1	0	1	0
44	593	0	10000	1	1	0	1	0
45	594	0	10000	1	1	0	1	0
46	595	0	10000	1	1	0	1	0
44	596	0	10000	1	1	0	1	0
44	597	0	10000	1	1	0	1	0
46	598	0	10000	1	1	0	1	0
53	599	0	10000	1	1	0	1	0
60	600	0	10000	1	1	0	1	0
63	601	0	10000	1	1	0	1	0
62	602	0	10000	1	1	0	1	0
67	603	0	10000	1	1	0	1	0
73	604	0	10000	1	1	0	1	0
83	605	0	10000	1	1	0	1	0
90	606	0	10000	1	1	0	1	0
93	607	0	10000	1	1	0	1	0
93	608	0	10000	1	1	0	1	0
91	609	0	10000	1	1	0	1	0
91	610	0	10000	1	1	0	1	0
87	611	0	10000	1	1	0	1	0
83	612	0	10000	1	1	0	1	0
81	613	0	10000	1	1	0	1	0
80	614	0	10000	1	1	0	1	0
77	615	0	10000	1	1	0	1	0
77	616	0	10000	1	1	0	1	0
74	617	0	10000	1	1	0	1	0
74	618	0	10000	1	1	0	1	0
71	619	0	10000	1	1	0	1	0
68	620	0	10000	1	1	0	1	0
68	621	0	10000	1	1	0	1	0
68	622	0	10000	1	1	0	1	0
73	623	0	10000	1	1	0	1	0
75	624	0	10000	1	1	0	1	0
73	625	0	10000	1	1	0	1	0
71	626	0	10000	1	1	0	1	0
69	627	0	10000	1	1	0	1	0
68	628	0	10000	1	1	0	1	0
67	629	0	10000	1	1	0	1	0
66	630	0	10000	1	1	0	1	0
69	631	0	10000	1	1	0	1	0
66	632	0	10000	1	1	0	1	0
64	633	0	10000	1	1	0	1	0
65	634	0	10000	1	1	0	1	0
65	635	0	10000	1	1	0	1	0
63	636	0	10000	1	1	0	1	0
62	637	0	10000	1	1	0	1	0
68	638	0	10000	1	1	0	1	0
70	639	0	10000	1	1	0	1	0
77	640	0	10000	1	1	0	1	0
84	641	0	10000	1	1	0	1	0
88	642	0	10000	1	1	0	1	0
94	643	0	10000	1	1	0	1	0
97	644	0	10000	1	1	0	1	0
94	645	0	10000	1	1	0	1	0
92	646	0	10000	1	1	0	1	0
88	647	0	10000	1	1	0	1	0
91	648	0	10000	1	1	0	1	0
95	649	0	10000	1	1	0	1	0
93	650	0	10000	1	1	0	1	0
89	651	0	10000	1	1	0	1	0
87	652	0	10000	1	1	0	1	0
87	653	0	10000	1	1	0	1	0
92	654	0	10000	1	1	0	1	0
91	655	0	10000	1	1	0	1	0
102	656	0	10000	1	1	0	1	0
111	657	0	10000	1	1	0	1	0
111	658	0	10000	1	1	0	1	0
111	659	0	10000	1	1	0	1	0
113	660	0	10000	1	1	0	1	0
120	661	0	10000	1	1	0	1	0
117	662	0	10000	1	1	0	1	0
118	663	0	10000	1	1	0	1	0
116	664	0	10000	1	1	0	1	0
113	665	0	10000	1	1	0	1	0
109	666	0	10000	1	1	0	1	0
109	667	0	10000	1	1	0	1	0
109	668	0	10000	1	1	0	1	0
109	669	0	10000	1	1	0	1	0
109	670	0	10000	1	1	0	1	0
107	671	0	10000	1	1	0	1	0
103	672	0	10000	1	1	0	1	0
100	673	0	10000	1	1	0	1	0
100	674	0	10000	1	1	0	1	0
97	675	0	10000	1	1	0	1	0
95	676	0	10000	1	1	0	1	0
92	677	0	10000	1	1	0	1	0
88	678	0	10000	1	1	0	1	0
85	679	0	10000	1	1	0	1	0
84	680	0	10000	1	1	0	1	0
83	681	0	10000	1	1	0	1	0
82	682	0	10000	1	1	0	1	0
79	683	0	10000	1	1	0	1	0
75	684	0	10000	1	1	0	1	0
75	685	0	10000	1	1	0	1	0
74	686	0	10000	1	1	0	1	0
73	687	0	10000	1	1	0	1	0
71	688	0	10000	1	1	0	1	0
70	689	0	10000	1	1	0	1	0
74	690	0	10000	1	1	0	1	0
74	691	0	10000	1	1	0	1	0
74	692	0	10000	1	1	0	1	0
73	693	0	10000	1	1	0	1	0
74	694	0	10000	1	1	0	1	0
73	695	0	10000	1	1	0	1	0
70	696	0	10000	1	1	0	1	0
68	697	0	10000	1	1	0	1	0
66	698	0	10000	1	1	0	1	0
63	699	0	10000	1	1	0	1	0
61	700	0	10000	1	1	0	1	0
61	701	0	10000	1	1	0	1	0
61	702	0	10000	1	1	0	1	0
62	703	0	10000	1	1	0	1	0
59	704	0	10000	1	1	0	1	0
57	705	0	10000	1	1	0	1	0
55	706	0	10000	1	1	0	1	0
53	707	0	10000	1	1	0	1	0
52	708	0	10000	1	1	0	1	0
52	709	0	10000	1	1	0	1	0
55	710	0	10000	1	1	0	1	0
56	711	0	10000	1	1	0	1	0
54	711	0	10000	1	1	0	1	0
53	712	0	10000	1	1	0	1	0
53	714	0	10000	1	1	0	1	0
52	715	0	10000	1	1	0	1	0
52	716	0	10000	1	1	0	1	0
52	717	0	10000	1	1	0	1	0
50	718	0	10000	1	1	0	1	0
48	719	0	10000	1	1	0	1	0
48	720	0	10000	1	1	0	1	0
51	721	0	10000	1	1	0	1	0
55	721	0	10000	1	1	0	1	0
56	722	0	10000	1	1	0	1	0
53	724	0	10000	1	1	0	1	0
53	725	0	10000	1	1	0	1	0
51	726	0	10000	1	1	0	1	0
50	727	0	10000	1	1	0	1	0
53	728	0	10000	1	1	0	1	0
54	729	0	10000	1	1	0	1	0
56	730	0	10000	1	1	0	1	0
56	731	0	10000	1	1	0	1	0
54	731	0	10000	1	1	0	1	0
54	732	0	10000	1	1	0	1	0
55	734	0	10000	1	1	0	1	0
55	735	0	10000	1	1	0	1	0
55	736	0	10000	1	1	0	1	0
56	737	0	10000	1	1	0	1	0
56	738	0	10000	1	1	0	1	0
53	739	0	10000	1	1	0	1	0
52	740	0	10000	1	1	0	1	0
51	741	0	10000	1	1	0	1	0
51	741	0	10000	1	1	0	1	0
50	742	0	10000	1	1	0	1	0
46	744	0	10000	1	1	0	1	0
45	745	0	10000	1	1	0	1	0
51	746	0	10000	1	1	0	1	0
51	747	0	10000	1	1	0	1	0
51	748	0	10000	1	1	0	1	0
52	749	0	10000	1	1	0	1	0
51	750	0	10000	1	1	0	1	0
48	751	0	10000	1	1	0	1	0
46	751	0	10000	1	1	0	1	0
46	752	0	10000	1	1	0	1	0
47	754	0	10000	1	1	0	1	0
47	755	0	10000	1	1	0	1	0
47	756	0	10000	1	1	0	1	0
46	757	0	10000	1	1	0	1	0
48	758	0	10000	1	1	0	1	0
52	759	0	10000	1	1	0	1	0
51	760	0	10000	1	1	0	1	0
52	761	0	10000	1	1	0	1	0
55	761	0	10000	1	1	0	1	0
55	762	0	10000	1	1	0	1	0
53	764	0	10000	1	1	0	1	0
50	765	0	10000	1	1	0	1	0
50	766	0	10000	1	1	0	1	0
50	767	0	10000	1	1	0	1	0
50	768	0	10000	1	1	0	1	0
49	769	0	10000	1	1	0	1	0
48	770	0	10000	1	1	0	1	0
46	771	0	10000	1	1	0	1	0
44	771	0	10000	1	1	0	1	0
42	772	0	10000	1	1	0	1	0
43	774	0	10000	1	1	0	1	0
43	775	0	10000	1	1	0	1	0
43	776	0	10000	1	1	0	1	0
43	777	0	10000	1	1	0	1	0
42	778	0	10000	1	1	0	1	0
43	779	0	10000	1	1	0	1	0
43	780	0	10000	1	1	0	1	0
44	781	0	10000	1	1	0	1	0
45	781	0	10000	1	1	0	1	0
45	782	0	10000	1	1	0	1	0
44	784	0	10000	1	1	0	1	0
42	785	0	10000	1	1	0	1	0
46	786	0	10000	1	1	0	1	0
55	787	0	10000	1	1	0	1	0
63	788	0	10000	1	1	0	1	0
63	789	0	10000	1	1	0	1	0
61	790	0	10000	1	1	0	1	0
59	791	0	10000	1	1	0	1	0
59	791	0	10000	1	1	0	1	0
60	792	0	10000	1	1	0	1	0
64	794	0	10000	1	1	0	1	0
62	795	0	10000	1	1	0	1	0
62	796	0	10000	1	1	0	1	0
61	797	0	10000	1	1	0	1	0
59	798	0	10000	1	1	0	1	0
57	799	0	10000	1	1	0	1	0
55	800	0	10000	1	1	0	1	0
54	801	0	10000	1	1	0	1	0
53	801	0	10000	1	1	0	1	0
54	802	0	10000	1	1	0	1	0
59	804	0	10000	1	1	0	1	0
62	805	0	10000	1	1	0	1	0
63	806	0	10000	1	1	0	1	0
61	807	0	10000	1	1	0	1	0
59	808	0	10000	1	1	0	1	0
56	809	0	10000	1	1	0	1	0
55	810	0	10000	1	1	0	1	0
53	811	0	10000	1	1	0	1	0
56	811	0	10000	1	1	0	1	0
56	812	0	10000	1	1	0	1	0
56	814	0	10000	1	1	0	1	0
56	815	0	10000	1	1	0	1	0
58	816	0	10000	1	1	0	1	0
59	817	0	10000	1	1	0	1	0
57	818	0	10000	1	1	0	1	0
58	819	0	10000	1	1	0	1	0
57	820	0	10000	1	1	0	1	0
56	821	0	10000	1	1	0	1	0
56	821	0	10000	1	1	0	1	0
55	822	0	10000	1	1	0	1	0
53	824	0	10000	1	1	0	1	0
54	825	0	10000	1	1	0	1	0
55	826	0	10000	1	1	0	1	0
53	827	0	10000	1	1	0	1	0
53	828	0	10000	1	1	0	1	0
53	829	0	10000	1	1	0	1	0
52	830	0	10000	1	1	0	1	0
49	831	0	10000	1	1	0	1	0
52	831	0	10000	1	1	0	1	0
52	832	0	10000	1	1	0	1	0
56	834	0	10000	1	1	0	1	0
56	835	0	10000	1	1	0	1	0
54	836	0	10000	1	1	0	1	0
52	837	0	10000	1	1	0	1	0
52	838	0	10000	1	1	0	1	0
58	839	0	10000	1	1	0	1	0
59	840	0	10000	1	1	0	1	0
57	841	0	10000	1	1	0	1	0
55	841	0	10000	1	1	0	1	0
55	842	0	10000	1	1	0	1	0
55	844	0	10000	1	1	0	1	0
58	845	0	10000	1	1	0	1	0
57	846	0	10000	1	1	0	1	0
55	847	0	10000	1	1	0	1	0
55	848	0	10000	1	1	0	1	0
53	849	0	10000	1	1	0	1	0
50	850	0	10000	1	1	0	1	0
48	851	0	10000	1	1	0	1	0
46	851	0	10000	1	1	0	1	0
46	852	0	10000	1	1	0	1	0
50	854	0	10000	1	1	0	1	0
49	855	0	10000	1	1	0	1	0
47	856	0	10000	1	1	0	1	0
46	857	0	10000	1	1	0	1	0
46	858	0	10000	1	1	0	1	0
45	859	0	10000	1	1	0	1	0
45	860	0	10000	1	1	0	1	0
49	861	0	10000	1	1	0	1	0
48	861	0	10000	1	1	0	1	0
48	862	0	10000	1	1	0	1	0
47	864	0	10000	1	1	0	1	0
53	865	0	10000	1	1	0	1	0
60	866	0	10000	1	1	0	1	0
62	867	0	10000	1	1	0	1	0
61	868	0	10000	1	1	0	1	0
59	869	0	10000	1	1	0	1	0
58	870	0	10000	1	1	0	1	0
59	871	0	10000	1	1	0	1	0
61	871	0	10000	1	1	0	1	0
60	872	0	10000	1	1	0	1	0
59	874	0	10000	1	1	0	1	0
60	875	0	10000	1	1	0	1	0
61	876	0	10000	1	1	0	1	0
60	877	0	10000	1	1	0	1	0
57	878	0	10000	1	1	0	1	0
56	879	0	10000	1	1	0	1	0
55	880	0	10000	1	1	0	1	0
54	881	0	10000	1	1	0	1	0
57	881	0	10000	1	1	0	1	0
61	882	0	10000	1	1	0	1	0
59	884	0	10000	1	1	0	1	0
58	885	0	10000	1	1	0	1	0
58	886	0	10000	1	1	0	1	0
57	887	0	10000	1	1	0	1	0
58	888	0	10000	1	1	0	1	0
57	889	0	10000	1	1	0	1	0
57	890	0	10000	1	1	0	1	0
61	891	0	10000	1	1	0	1	0
61	891	0	10000	1	1	0	1	0
59	892	0	10000	1	1	0	1	0
61	894	0	10000	1	1	0	1	0
63	895	0	10000	1	1	0	1	0
70	896	0	10000	1	1	0	1	0
75	897	0	10000	1	1	0	1	0
73	898	0	10000	1	1	0	1	0
74	899	0	10000	1	1	0	1	0
79	900	0	10000	1	1	0	1	0
82	901	0	10000	1	1	0	1	0
86	901	0	10000	1	1	0	1	0
86	902	0	10000	1	1	0	1	0
82	904	0	10000	1	1	0	1	0
83	905	0	10000	1	1	0	1	0
82	906	0	10000	1	1	0	1	0
78	907	0	10000	1	1	0	1	0
77	908	0	10000	1	1	0	1	0
75	909	0	10000	1	1	0	1	0
72	910	0	10000	1	1	0	1	0
70	911	0	10000	1	1	0	1	0
68	911	0	10000	1	1	0	1	0
67	912	0	10000	1	1	0	1	0
68	914	0	10000	1	1	0	1	0
65	915	0	10000	1	1	0	1	0
63	916	0	10000	1	1	0	1	0
62	917	0	10000	1	1	0	1	0
64	918	0	10000	1	1	0	1	0
62	919	0	10000	1	1	0	1	0
59	920	0	10000	1	1	0	1	0
59	921	0	10000	1	1	0	1	0
59	921	0	10000	1	1	0	1	0
63	922	0	10000	1	1	0	1	0
64	924	0	10000	1	1	0	1	0
67	925	0	10000	1	1	0	1	0
67	926	0	10000	1	1	0	1	0
67	927	0	10000	1	1	0	1	0
66	928	0	10000	1	1	0	1	0
67	929	0	10000	1	1	0	1	0
66	930	0	10000	1	1	0	1	0
62	931	0	10000	1	1	0	1	0
61	931	0	10000	1	1	0	1	0
63	932	0	10000	1	1	0	1	0
64	934	0	10000	1	1	0	1	0
63	935	0	10000	1	1	0	1	0
61	936	0	10000	1	1	0	1	0
60	937	0	10000	1	1	0	1	0
61	938	0	10000	1	1	0	1	0
61	939	0	10000	1	1	0	1	0
60	940	0	10000	1	1	0	1	0
58	941	0	10000	1	1	0	1	0
57	941	0	10000	1	1	0	1	0
55	942	0	10000	1	1	0	1	0
52	944	0	10000	1	1	0	1	0
52	945	0	10000	1	1	0	1	0
52	946	0	10000	1	1	0	1	0
54	947	0	10000	1	1	0	1	0
53	948	0	10000	1	1	0	1	0
54	949	0	10000	1	1	0	1	0
54	950	0	10000	1	1	0	1	0
52	951	0	10000	1	1	0	1	0
51	951	0	10000	1	1	0	1	0
50	952	0	10000	1	1	0	1	0
50	954	0	10000	1	1	0	1	0
50	955	0	10000	1	1	0	1	0
49	956	0	10000	1	1	0	1	0
47	957	0	10000	1	1	0	1	0
45	958	0	10000	1	1	0	1	0
44	959	0	10000	1	1	0	1	0
43	960	0	10000	1	1	0	1	0
47	961	0	10000	1	1	0	1	0
54	961	0	10000	1	1	0	1	0
53	962	0	10000	1	1	0	1	0
51	964	0	10000	1	1	0	1	0
50	965	0	10000	1	1	0	1	0
50	966	0	10000	1	1	0	1	0
51	967	0	10000	1	1	0	1	0
50	968	0	10000	1	1	0	1	0
49	969	0	10000	1	1	0	1	0
48	970	0	10000	1	1	0	1	0
46	971	0	10000	1	1	0	1	0
44	971	0	10000	1	1	0	1	0
44	972	0	10000	1	1	0	1	0
48	974	0	10000	1	1	0	1	0
48	975	0	10000	1	1	0	1	0
49	976	0	10000	1	1	0	1	0
50	977	0	10000	1	1	0	1	0
48	978	0	10000	1	1	0	1	0
47	979	0	10000	1	1	0	1	0
46	980	0	10000	1	1	0	1	0
46	981	0	10000	1	1	0	1	0
45	981	0	10000	1	1	0	1	0
47	982	0	10000	1	1	0	1	0
45	984	0	10000	1	1	0	1	0
47	985	0	10000	1	1	0	1	0
48	986	0	10000	1	1	0	1	0
48	987	0	10000	1	1	0	1	0
47	988	0	10000	1	1	0	1	0
45	989	0	10000	1	1	0	1	0
46	990	0	10000	1	1	0	1	0
46	991	0	10000	1	1	0	1	0
48	991	0	10000	1	1	0	1	0
47	992	0	10000	1	1	0	1	0
49	994	0	10000	1	1	0	1	0
48	995	0	10000	1	1	0	1	0
47	996	0	10000	1	1	0	1	0
47	997	0	10000	1	1	0	1	0
47	998	0	10000	1	1	0	1	0
50	999	0	10000	1	1	0	1	0
49	1000	0	10000	1	1	0	1	0
47	1001	0	10000	1	1	0	1	0
124	2	1	10000	2	1	0	2	0
124	3	1	10000	2	1	0	2	0
125	4	1	10000	2	1	0	2	0
121	5	1	10000	2	1	0	2	0
118	6	1	10000	2	1	0	2	0
113	7	1	10000	2	1	0	2	0
108	8	1	10000	2	1	0	2	0
104	9	1	10000	2	1	0	2	0
104	10	1	10000	2	1	0	2	0
108	11	1	10000	2	1	0	2	0
107	12	1	10000	2	1	0	2	0
103	13	1	10000	2	1	0	2	0
97	14	1	10000	2	1	0	2	0
92	15	1	10000	2	1	0	2	0
89	16	1	10000	2	1	0	2	0
90	17	1	10000	2	1	0	2	0
96	18	1	10000	2	1	0	2	0
100	19	1	10000	2	1	0	2	0
102	20	1	10000	2	1	0	2	0
110	21	1	10000	2	1	0	2	0
116	22	1	10000	2	1	0	2	0
113	23	1	10000	2	1	0	2	0
123	24	1	10000	2	1	0	2	0
129	25	1	10000	2	1	0	2	0
128	26	1	10000	2	1	0	2	0
126	27	1	10000	2	1	0	2	0
121	28	1	10000	2	1	0	2	0
116	29	1	10000	2	1	0	2	0
111	30	1	10000	2	1	0	2	0
106	31	1	10000	2	1	0	2	0
104	32	1	10000	2	1	0	2	0
101	33	1	10000	2	1	0	2	0
98	34	1	10000	2	1	0	2	0
97	35	1	10000	2	1	0	2	0
99	36	1	10000	2	1	0	2	0
97	37	1	10000	2	1	0	2	0
94	38	1	10000	2	1	0	2	0
90	39	1	10000	2	1	0	2	0
90	40	1	10000	2	1	0	2	0
89	41	1	10000	2	1	0	2	0
91	42	1	10000	2	1	0	2	0
95	43	1	10000	2	1	0	2	0
98	44	1	10000	2	1	0	2	0
95	45	1	10000	2	1	0	2	0
93	46	1	10000	2	1	0	2	0
91	47	1	10000	2	1	0	2	0
92	48	1	10000	2	1	0	2	0
98	49	1	10000	2	1	0	2	0
98	50	1	10000	2	1	0	2	0
94	51	1	10000	2	1	0	2	0
91	52	1	10000	2	1	0	2	0
89	53	1	10000	2	1	0	2	0
86	54	1	10000	2	1	0	2	0
82	55	1	10000	2	1	0	2	0
82	56	1	10000	2	1	0	2	0
81	57	1	10000	2	1	0	2	0
79	58	1	10000	2	1	0	2	0
76	59	1	10000	2	1	0	2	0
74	60	1	10000	2	1	0	2	0
71	61	1	10000	2	1	0	2	0
68	62	1	10000	2	1	0	2	0
65	63	1	10000	2	1	0	2	0
67	64	1	10000	2	1	0	2	0
72	65	1	10000	2	1	0	2	0
69	66	1	10000	2	1	0	2	0
66	67	1	10000	2	1	0	2	0
66	68	1	10000	2	1	0	2	0
65	69	1	10000	2	1	0	2	0
65	70	1	10000	2	1	0	2	0
65	71	1	10000	2	1	0	2	0
65	72	1	10000	2	1	0	2	0
67	73	1	10000	2	1	0	2	0
63	74	1	10000	2	1	0	2	0
63	75	1	10000	2	1	0	2	0
65	76	1	10000	2	1	0	2	0
66	77	1	10000	2	1	0	2	0
67	78	1	10000	2	1	0	2	0
65	79	1	10000	2	1	0	2	0
67	80	1	10000	2	1	0	2	0
65	81	1	10000	2	1	0	2	0
64	82	1	10000	2	1	0	2	0
60	83	1	10000	2	1	0	2	0
61	84	1	10000	2	1	0	2	0
62	85	1	10000	2	1	0	2	0
63	86	1	10000	2	1	0	2	0
62	87	1	10000	2	1	0	2	0
61	88	1	10000	2	1	0	2	0
58	89	1	10000	2	1	0	2	0
57	90	1	10000	2	1	0	2	0
57	91	1	10000	2	1	0	2	0
56	92	1	10000	2	1	0	2	0
57	93	1	10000	2	1	0	2	0
56	94	1	10000	2	1	0	2	0
59	95	1	10000	2	1	0	2	0
60	96	1	10000	2	1	0	2	0
60	97	1	10000	2	1	0	2	0
59	98	1	10000	2	1	0	2	0
58	99	1	10000	2	1	0	2	0
56	100	1	10000	2	1	0	2	0
55	101	1	10000	2	1	0	2	0
54	102	1	10000	2	1	0	2	0
53	103	1	10000	2	1	0	2	0
55	104	1	10000	2	1	0	2	0
55	105	1	10000	2	1	0	2	0
54	106	1	10000	2	1	0	2	0
58	107	1	10000	2	1	0	2	0
60	108	1	10000	2	1	0	2	0
59	109	1	10000	2	1	0	2	0
59	110	1	10000	2	1	0	2	0
60	111	1	10000	2	1	0	2	0
62	112	1	10000	2	1	0	2	0
66	113	1	10000	2	1	0	2	0
67	114	1	10000	2	1	0	2	0
68	115	1	10000	2	1	0	2	0
70	116	1	10000	2	1	0	2	0
68	117	1	10000	2	1	0	2	0
70	118	1	10000	2	1	0	2	0
69	119	1	10000	2	1	0	2	0
68	120	1	10000	2	1	0	2	0
66	121	1	10000	2	1	0	2	0
66	122	1	10000	2	1	0	2	0
67	123	1	10000	2	1	0	2	0
71	124	1	10000	2	1	0	2	0
74	125	1	10000	2	1	0	2	0
72	126	1	10000	2	1	0	2	0
73	127	1	10000	2	1	0	2	0
74	128	1	10000	2	1	0	2	0
77	129	1	10000	2	1	0	2	0
75	130	1	10000	2	1	0	2	0
74	131	1	10000	2	1	0	2	0
71	132	1	10000	2	1	0	2	0
71	133	1	10000	2	1	0	2	0
75	134	1	10000	2	1	0	2	0
74	135	1	10000	2	1	0	2	0
77	136	1	10000	2	1	0	2	0
77	137	1	10000	2	1	0	2	0
76	138	1	10000	2	1	0	2	0
79	139	1	10000	2	1	0	2	0
82	140	1	10000	2	1	0	2	0
88	141	1	10000	2	1	0	2	0
93	142	1	10000	2	1	0	2	0
91	143	1	10000	2	1	0	2	0
95	144	1	10000	2	1	0	2	0
100	145	1	10000	2	1	0	2	0
101	146	1	10000	2	1	0	2	0
104	147	1	10000	2	1	0	2	0
103	148	1	10000	2	1	0	2	0
103	149	1	10000	2	1	0	2	0
102	150	1	10000	2	1	0	2	0
99	151	1	10000	2	1	0	2	0
95	152	1	10000	2	1	0	2	0
92	153	1	10000	2	1	0	2	0
88	154	1	10000	2	1	0	2	0
84	155	1	10000	2	1	0	2	0
81	156	1	10000	2	1	0	2	0
86	157	1	10000	2	1	0	2	0
89	158	1	10000	2	1	0	2	0
86	159	1	10000	2	1	0	2	0
83	160	1	10000	2	1	0	2	0
79	161	1	10000	2	1	0	2	0
79	162	1	10000	2	1	0	2	0
75	163	1	10000	2	1	0	2	0
75	164	1	10000	2	1	0	2	0
78	165	1	10000	2	1	0	2	0
84	166	1	10000	2	1	0	2	0
85	167	1	10000	2	1	0	2	0
83	168	1	10000	2	1	0	2	0
86	169	1	10000	2	1	0	2	0
89	170	1	10000	2	1	0	2	0
89	171	1	10000	2	1	0	2	0
89	172	1	10000	2	1	0	2	0
92	173	1	10000	2	1	0	2	0
90	174	1	10000	2	1	0	2	0
93	175	1	10000	2	1	0	2	0
94	176	1	10000	2	1	0	2	0
92	177	1	10000	2	1	0	2	0
89	178	1	10000	2	1	0	2	0
89	179	1	10000	2	1	0	2	0
93	180	1	10000	2	1	0	2	0
91	181	1	10000	2	1	0	2	0
89	182	1	10000	2	1	0	2	0
86	183	1	10000	2	1	0	2	0
91	184	1	10000	2	1	0	2	0
95	185	1	10000	2	1	0	2	0
91	186	1	10000	2	1	0	2	0
91	187	1	10000	2	1	0	2	0
91	188	1	10000	2	1	0	2	0
94	189	1	10000	2	1	0	2	0
101	190	1	10000	2	1	0	2	0
104	191	1	10000	2	1	0	2	0
106	192	1	10000	2	1	0	2	0
104	193	1	10000	2	1	0	2	0
99	194	1	10000	2	1	0	2	0
98	195	1	10000	2	1	0	2	0
97	196	1	10000	2	1	0	2	0
97	197	1	10000	2	1	0	2	0
96	198	1	10000	2	1	0	2	0
94	199	1	10000	2	1	0	2	0
93	200	1	10000	2	1	0	2	0
91	201	1	10000	2	1	0	2	0
90	202	1	10000	2	1	0	2	0
89	203	1	10000	2	1	0	2	0
94	204	1	10000	2	1	0	2	0
101	205	1	10000	2	1	0	2	0
104	206	1	10000	2	1	0	2	0
102	207	1	10000	2	1	0	2	0
99	208	1	10000	2	1	0	2	0
95	209	1	10000	2	1	0	2	0
92	210	1	10000	2	1	0	2	0
92	211	1	10000	2	1	0	2	0
91	212	1	10000	2	1	0	2	0
88	213	1	10000	2	1	0	2	0
83	214	1	10000	2	1	0	2	0
80	215	1	10000	2	1	0	2	0
82	216	1	10000	2	1	0	2	0
91	217	1	10000	2	1	0	2	0
98	218	1	10000	2	1	0	2	0
98	219	1	10000	2	1	0	2	0
97	220	1	10000	2	1	0	2	0
97	221	1	10000	2	1	0	2	0
96	222	1	10000	2	1	0	2	0
96	223	1	10000	2	1	0	2	0
97	224	1	10000	2	1	0	2	0
97	225	1	10000	2	1	0	2	0
95	226	1	10000	2	1	0	2	0
93	227	1	10000	2	1	0	2	0
89	228	1	10000	2	1	0	2	0
86	229	1	10000	2	1	0	2	0
84	230	1	10000	2	1	0	2	0
82	231	1	10000	2	1	0	2	0
79	232	1	10000	2	1	0	2	0
77	233	1	10000	2	1	0	2	0
77	234	1	10000	2	1	0	2	0
75	235	1	10000	2	1	0	2	0
74	236	1	10000	2	1	0	2	0
71	237	1	10000	2	1	0	2	0
69	238	1	10000	2	1	0	2	0
68	239	1	10000	2	1	0	2	0
66	240	1	10000	2	1	0	2	0
70	241	1	10000	2	1	0	2	0
78	242	1	10000	2	1	0	2	0
77	243	1	10000	2	1	0	2	0
78	244	1	10000	2	1	0	2	0
77	245	1	10000	2	1	0	2	0
76	246	1	10000	2	1	0	2	0
76	247	1	10000	2	1	0	2	0
78	248	1	10000	2	1	0	2	0
83	249	1	10000	2	1	0	2	0
82	250	1	10000	2	1	0	2	0
82	251	1	10000	2	1	0	2	0
81	252	1	10000	2	1	0	2	0
79	253	1	10000	2	1	0	2	0
79	254	1	10000	2	1	0	2	0
79	255	1	10000	2	1	0	2	0
80	256	1	10000	2	1	0	2	0
78	257	1	10000	2	1	0	2	0
78	258	1	10000	2	1	0	2	0
80	259	1	10000	2	1	0	2	0
77	260	1	10000	2	1	0	2	0
75	261	1	10000	2	1	0	2	0
77	262	1	10000	2	1	0	2	0
76	263	1	10000	2	1	0	2	0
77	264	1	10000	2	1	0	2	0
78	265	1	10000	2	1	0	2	0
77	266	1	10000	2	1	0	2	0
74	267	1	10000	2	1	0	2	0
71	268	1	10000	2	1	0	2	0
69	269	1	10000	2	1	0	2	0
67	270	1	10000	2	1	0	2	0
69	271	1	10000	2	1	0	2	0
72	272	1	10000	2	1	0	2	0
70	273	1	10000	2	1	0	2	0
74	274	1	10000	2	1	0	2	0
81	275	1	10000	2	1	0	2	0
85	276	1	10000	2	1	0	2	0
87	277	1	10000	2	1	0	2	0
87	278	1	10000	2	1	0	2	0
84	279	1	10000	2	1	0	2	0
81	280	1	10000	2	1	0	2	0
80	281	1	10000	2	1	0	2	0
83	282	1	10000	2	1	0	2	0
82	283	1	10000	2	1	0	2	0
82	284	1	10000	2	1	0	2	0
80	285	1	10000	2	1	0	2	0
79	286	1	10000	2	1	0	2	0
79	287	1	10000	2	1	0	2	0
76	288	1	10000	2	1	0	2	0
74	289	1	10000	2	1	0	2	0
73	290	1	10000	2	1	0	2	0
72	291	1	10000	2	1	0	2	0
72	292	1	10000	2	1	0	2	0
75	293	1	10000	2	1	0	2	0
78	294	1	10000	2	1	0	2	0
77	295	1	10000	2	1	0	2	0
80	296	1	10000	2	1	0	2	0
77	297	1	10000	2	1	0	2	0
74	298	1	10000	2	1	0	2	0
71	299	1	10000	2	1	0	2	0
69	300	1	10000	2	1	0	2	0
66	301	1	10000	2	1	0	2	0
64	302	1	10000	2	1	0	2	0
63	303	1	10000	2	1	0	2	0
66	304	1	10000	2	1	0	2	0
67	305	1	10000	2	1	0	2	0
64	306	1	10000	2	1	0	2	0
62	307	1	10000	2	1	0	2	0
59	308	1	10000	2	1	0	2	0
59	309	1	10000	2	1	0	2	0
58	310	1	10000	2	1	0	2	0
59	311	1	10000	2	1	0	2	0
60	312	1	10000	2	1	0	2	0
59	313	1	10000	2	1	0	2	0
56	314	1	10000	2	1	0	2	0
53	315	1	10000	2	1	0	2	0
52	316	1	10000	2	1	0	2	0
50	317	1	10000	2	1	0	2	0
51	318	1	10000	2	1	0	2	0
53	319	1	10000	2	1	0	2	0
51	320	1	10000	2	1	0	2	0
49	321	1	10000	2	1	0	2	0
51	322	1	10000	2	1	0	2	0
54	323	1	10000	2	1	0	2	0
57	324	1	10000	2	1	0	2	0
57	325	1	10000	2	1	0	2	0
58	326	1	10000	2	1	0	2	0
59	327	1	10000	2	1	0	2	0
62	328	1	10000	2	1	0	2	0
62	329	1	10000	2	1	0	2	0
59	330	1	10000	2	1	0	2	0
59	331	1	10000	2	1	0	2	0
61	332	1	10000	2	1	0	2	0
66	333	1	10000	2	1	0	2	0
64	334	1	10000	2	1	0	2	0
64	335	1	10000	2	1	0	2	0
63	336	1	10000	2	1	0	2	0
66	337	1	10000	2	1	0	2	0
67	338	1	10000	2	1	0	2	0
67	339	1	10000	2	1	0	2	0
65	340	1	10000	2	1	0	2	0
64	341	1	10000	2	1	0	2	0
61	342	1	10000	2	1	0	2	0
58	343	1	10000	2	1	0	2	0
57	344	1	10000	2	1	0	2	0
58	345	1	10000	2	1	0	2	0
57	346	1	10000	2	1	0	2	0
55	347	1	10000	2	1	0	2	0
53	348	1	10000	2	1	0	2	0
52	349	1	10000	2	1	0	2	0
52	350	1	10000	2	1	0	2	0
51	351	1	10000	2	1	0	2	0
49	352	1	10000	2	1	0	2	0
49	353	1	10000	2	1	0	2	0
46	354	1	10000	2	1	0	2	0
46	355	1	10000	2	1	0	2	0
46	356	1	10000	2	1	0	2	0
47	357	1	10000	2	1	0	2	0
46	358	1	10000	2	1	0	2	0
48	359	1	10000	2	1	0	2	0
47	360	1	10000	2	1	0	2	0
45	361	1	10000	2	1	0	2	0
44	362	1	10000	2	1	0	2	0
44	363	1	10000	2	1	0	2	0
45	364	1	10000	2	1	0	2	0
47	365	1	10000	2	1	0	2	0
45	366	1	10000	2	1	0	2	0
45	367	1	10000	2	1	0	2	0
43	368	1	10000	2	1	0	2	0
43	369	1	10000	2	1	0	2	0
43	370	1	10000	2	1	0	2	0
43	371	1	10000	2	1	0	2	0
43	372	1	10000	2	1	0	2	0
42	373	1	10000	2	1	0	2	0
44	374	1	10000	2	1	0	2	0
43	375	1	10000	2	1	0	2	0
44	376	1	10000	2	1	0	2	0
44	377	1	10000	2	1	0	2	0
44	378	1	10000	2	1	0	2	0
42	379	1	10000	2	1	0	2	0
42	380	1	10000	2	1	0	2	0
45	381	1	10000	2	1	0	2	0
47	382	1	10000	2	1	0	2	0
48	383	1	10000	2	1	0	2	0
48	384	1	10000	2	1	0	2	0
49	385	1	10000	2	1	0	2	0
50	386	1	10000	2	1	0	2	0
49	387	1	10000	2	1	0	2	0
50	388	1	10000	2	1	0	2	0
49	389	1	10000	2	1	0	2	0
48	390	1	10000	2	1	0	2	0
48	391	1	10000	2	1	0	2	0
49	392	1	10000	2	1	0	2	0
48	393	1	10000	2	1	0	2	0
47	394	1	10000	2	1	0	2	0
45	395	1	10000	2	1	0	2	0
44	396	1	10000	2	1	0	2	0
48	397	1	10000	2	1	0	2	0
50	398	1	10000	2	1	0	2	0
50	399	1	10000	2	1	0	2	0
49	400	1	10000	2	1	0	2	0
47	401	1	10000	2	1	0	2	0
45	402	1	10000	2	1	0	2	0
47	403	1	10000	2	1	0	2	0
55	404	1	10000	2	1	0	2	0
58	405	1	10000	2	1	0	2	0
56	406	1	10000	2	1	0	2	0
61	407	1	10000	2	1	0	2	0
65	408	1	10000	2	1	0	2	0
68	409	1	10000	2	1	0	2	0
68	410	1	10000	2	1	0	2	0
69	411	1	10000	2	1	0	2	0
70	412	1	10000	2	1	0	2	0
68	413	1	10000	2	1	0	2	0
67	414	1	10000	2	1	0	2	0
66	415	1	10000	2	1	0	2	0
63	416	1	10000	2	1	0	2	0
62	417	1	10000	2	1	0	2	0
62	418	1	10000	2	1	0	2	0
63	419	1	10000	2	1	0	2	0
62	420	1	10000	2	1	0	2	0
62	421	1	10000	2	1	0	2	0
61	422	1	10000	2	1	0	2	0
61	423	1	10000	2	1	0	2	0
60	424	1	10000	2	1	0	2	0
59	425	1	10000	2	1	0	2	0
60	426	1	10000	2	1	0	2	0
62	427	1	10000	2	1	0	2	0
62	428	1	10000	2	1	0	2	0
65	429	1	10000	2	1	0	2	0
65	430	1	10000	2	1	0	2	0
67	431	1	10000	2	1	0	2	0
66	432	1	10000	2	1	0	2	0
68	433	1	10000	2	1	0	2	0
66	434	1	10000	2	1	0	2	0
64	435	1	10000	2	1	0	2	0
64	436	1	10000	2	1	0	2	0
62	437	1	10000	2	1	0	2	0
60	438	1	10000	2	1	0	2	0
58	439	1	10000	2	1	0	2	0
57	440	1	10000	2	1	0	2	0
56	441	1	10000	2	1	0	2	0
56	442	1	10000	2	1	0	2	0
55	443	1	10000	2	1	0	2	0
56	444	1	10000	2	1	0	2	0
59	445	1	10000	2	1	0	2	0
63	446	1	10000	2	1	0	2	0
64	447	1	10000	2	1	0	2	0
65	448	1	10000	2	1	0	2	0
63	449	1	10000	2	1	0	2	0
61	450	1	10000	2	1	0	2	0
61	451	1	10000	2	1	0	2	0
61	452	1	10000	2	1	0	2	0
62	453	1	10000	2	1	0	2	0
60	454	1	10000	2	1	0	2	0
58	455	1	10000	2	1	0	2	0
60	456	1	10000	2	1	0	2	0
68	457	1	10000	2	1	0	2	0
70	458	1	10000	2	1	0	2	0
68	459	1	10000	2	1	0	2	0
68	460	1	10000	2	1	0	2	0
66	461	1	10000	2	1	0	2	0
64	462	1	10000	2	1	0	2	0
64	463	1	10000	2	1	0	2	0
65	464	1	10000	2	1	0	2	0
64	465	1	10000	2	1	0	2	0
67	466	1	10000	2	1	0	2	0
68	467	1	10000	2	1	0	2	0
67	468	1	10000	2	1	0	2	0
65	469	1	10000	2	1	0	2	0
62	470	1	10000	2	1	0	2	0
60	471	1	10000	2	1	0	2	0
63	472	1	10000	2	1	0	2	0
67	473	1	10000	2	1	0	2	0
65	474	1	10000	2	1	0	2	0
61	475	1	10000	2	1	0	2	0
60	476	1	10000	2	1	0	2	0
58	477	1	10000	2	1	0	2	0
57	478	1	10000	2	1	0	2	0
56	479	1	10000	2	1	0	2	0
65	480	1	10000	2	1	0	2	0
67	481	1	10000	2	1	0	2	0
68	482	1	10000	2	1	0	2	0
73	483	1	10000	2	1	0	2	0
76	484	1	10000	2	1	0	2	0
79	485	1	10000	2	1	0	2	0
78	486	1	10000	2	1	0	2	0
76	487	1	10000	2	1	0	2	0
78	488	1	10000	2	1	0	2	0
76	489	1	10000	2	1	0	2	0
73	490	1	10000	2	1	0	2	0
69	491	1	10000	2	1	0	2	0
69	492	1	10000	2	1	0	2	0
68	493	1	10000	2	1	0	2	0
65	494	1	10000	2	1	0	2	0
66	495	1	10000	2	1	0	2	0
69	496	1	10000	2	1	0	2	0
67	497	1	10000	2	1	0	2	0
66	498	1	10000	2	1	0	2	0
66	499	1	10000	2	1	0	2	0
65	500	1	10000	2	1	0	2	0
63	501	1	10000	2	1	0	2	0
63	502	1	10000	2	1	0	2	1
62	503	1	10000	2	1	0	2	1
63	504	1	10000	2	1	0	2	1
62	505	1	10000	2	1	0	2	1
61	506	1	10000	2	1	0	2	1
58	507	1	10000	2	1	0	2	1
57	508	1	10000	2	1	0	2	1
56	509	1	10000	2	1	0	2	1
55	510	1	10000	2	1	0	2	1
58	511	1	10000	2	1	0	2	1
57	512	1	10000	2	1	0	2	1
57	513	1	10000	2	1	0	2	1
54	514	1	10000	2	1	0	2	1
53	515	1	10000	2	1	0	2	1
52	516	1	10000	2	1	0	2	1
52	517	1	10000	2	1	0	2	1
51	518	1	10000	2	1	0	2	1
50	519	1	10000	2	1	0	2	1
51	520	1	10000	2	1	0	2	1
50	521	1	10000	2	1	0	2	1
49	522	1	10000	2	1	0	2	1
50	523	1	10000	2	1	0	2	1
49	524	1	10000	2	1	0	2	1
49	525	1	10000	2	1	0	2	1
48	526	1	10000	2	1	0	2	1
50	527	1	10000	2	1	0	2	1
50	528	1	10000	2	1	0	2	1
49	529	1	10000	2	1	0	2	1
49	530	1	10000	2	1	0	2	1
50	531	1	10000	2	1	0	2	1
53	532	1	10000	2	1	0	2	1
54	533	1	10000	2	1	0	2	1
54	534	1	10000	2	1	0	2	1
51	535	1	10000	2	1	0	2	1
50	536	1	10000	2	1	0	2	1
50	537	1	10000	2	1	0	2	1
53	538	1	10000	2	1	0	2	1
53	539	1	10000	2	1	0	2	1
52	540	1	10000	2	1	0	2	1
50	541	1	10000	2	1	0	2	1
50	542	1	10000	2	1	0	2	1
55	543	1	10000	2	1	0	2	1
59	544	1	10000	2	1	0	2	1
61	545	1	10000	2	1	0	2	1
59	546	1	10000	2	1	0	2	1
59	547	1	10000	2	1	0	2	1
63	548	1	10000	2	1	0	2	1
67	549	1	10000	2	1	0	2	1
65	550	1	10000	2	1	0	2	1
64	551	1	10000	2	1	0	2	1
63	552	1	10000	2	1	0	2	0
62	553	1	10000	2	1	0	2	0
59	554	1	10000	2	1	0	2	0
58	555	1	10000	2	1	0	2	0
63	556	1	10000	2	1	0	2	0
63	557	1	10000	2	1	0	2	0
66	558	1	10000	2	1	0	2	0
66	559	1	10000	2	1	0	2	0
68	560	1	10000	2	1	0	2	0
68	561	1	10000	2	1	0	2	0
68	562	1	10000	2	1	0	2	0
68	563	1	10000	2	1	0	2	0
69	564	1	10000	2	1	0	2	0
71	565	1	10000	2	1	0	2	0
73	566	1	10000	2	1	0	2	0
75	567	1	10000	2	1	0	2	0
77	568	1	10000	2	1	0	2	0
75	569	1	10000	2	1	0	2	0
75	570	1	10000	2	1	0	2	0
75	571	1	10000	2	1	0	2	0
76	572	1	10000	2	1	0	2	0
81	573	1	10000	2	1	0	2	0
83	574	1	10000	2	1	0	2	0
86	575	1	10000	2	1	0	2	0
89	576	1	10000	2	1	0	2	0
89	577	1	10000	2	1	0	2	0
88	578	1	10000	2	1	0	2	0
93	579	1	10000	2	1	0	2	0
94	580	1	10000	2	1	0	2	0
92	581	1	10000	2	1	0	2	0
92	582	1	10000	2	1	0	2	0
92	583	1	10000	2	1	0	2	0
92	584	1	10000	2	1	0	2	0
94	585	1	10000	2	1	0	2	0
92	586	1	10000	2	1	0	2	0
87	587	1	10000	2	1	0	2	0
88	588	1	10000	2	1	0	2	0
89	589	1	10000	2	1	0	2	0
86	590	1	10000	2	1	0	2	0
86	591	1	10000	2	1	0	2	0
86	592	1	10000	2	1	0	2	0
91	593	1	10000	2	1	0	2	0
100	594	1	10000	2	1	0	2	0
102	595	1	10000	2	1	0	2	0
100	596	1	10000	2	1	0	2	0
102	597	1	10000	2	1	0	2	0
106	598	1	10000	2	1	0	2	0
105	599	1	10000	2	1	0	2	0
101	600	1	10000	2	1	0	2	0
103	601	1	10000	2	1	0	2	0
101	602	1	10000	2	1	0	2	0
97	603	1	10000	2	1	0	2	0
100	604	1	10000	2	1	0	2	0
105	605	1	10000	2	1	0	2	0
110	606	1	10000	2	1	0	2	0
110	607	1	10000	2	1	0	2	0
117	608	1	10000	2	1	0	2	0
116	609	1	10000	2	1	0	2	0
131	610	1	10000	2	1	0	2	0
135	611	1	10000	2	1	0	2	0
135	612	1	10000	2	1	0	2	0
130	613	1	10000	2	1	0	2	0
126	614	1	10000	2	1	0	2	0
147	615	1	10000	2	1	0	2	0
196	616	1	10000	2	1	0	2	0
207	617	1	10000	2	1	0	2	0
230	618	1	10000	2	1	0	2	0
236	619	1	10000	2	1	0	2	0
251	620	1	10000	2	1	0	2	0
258	621	1	10000	2	1	0	2	0
254	622	1	10000	2	1	0	2	0
257	623	1	10000	2	1	0	2	0
263	624	1	10000	2	1	0	2	0
273	625	1	10000	2	1	0	2	0
273	626	1	10000	2	1	0	2	0
269	627	1	10000	2	1	0	2	0
259	628	1	10000	2	1	0	2	0
249	629	1	10000	2	1	0	2	0
239	630	1	10000	2	1	0	2	0
233	631	1	10000	2	1	0	2	0
224	632	1	10000	2	1	0	2	0
213	633	1	10000	2	1	0	2	0
207	634	1	10000	2	1	0	2	0
201	635	1	10000	2	1	0	2	0
197	636	1	10000	2	1	0	2	0
194	637	1	10000	2	1	0	2	0
190	638	1	10000	2	1	0	2	0
184	639	1	10000	2	1	0	2	0
177	640	1	10000	2	1	0	2	0
174	641	1	10000	2	1	0	2	0
169	642	1	10000	2	1	0	2	0
160	643	1	10000	2	1	0	2	0
154	644	1	10000	2	1	0	2	0
149	645	1	10000	2	1	0	2	0
141	646	1	10000	2	1	0	2	0
139	647	1	10000	2	1	0	2	0
134	648	1	10000	2	1	0	2	0
128	649	1	10000	2	1	0	2	0
123	650	1	10000	2	1	0	2	0
119	651	1	10000	2	1	0	2	0
114	652	1	10000	2	1	0	2	0
111	653	1	10000	2	1	0	2	0
106	654	1	10000	2	1	0	2	0
104	655	1	10000	2	1	0	2	0
99	656	1	10000	2	1	0	2	0
97	657	1	10000	2	1	0	2	0
93	658	1	10000	2	1	0	2	0
91	659	1	10000	2	1	0	2	0
88	660	1	10000	2	1	0	2	0
85	661	1	10000	2	1	0	2	0
83	662	1	10000	2	1	0	2	0
87	663	1	10000	2	1	0	2	0
87	664	1	10000	2	1	0	2	0
85	665	1	10000	2	1	0	2	0
80	666	1	10000	2	1	0	2	0
78	667	1	10000	2	1	0	2	0
74	668	1	10000	2	1	0	2	0
72	669	1	10000	2	1	0	2	0
74	670	1	10000	2	1	0	2	0
75	671	1	10000	2	1	0	2	0
73	672	1	10000	2	1	0	2	0
71	673	1	10000	2	1	0	2	0
68	674	1	10000	2	1	0	2	0
64	675	1	10000	2	1	0	2	0
62	676	1	10000	2	1	0	2	0
62	677	1	10000	2	1	0	2	0
65	678	1	10000	2	1	0	2	0
64	679	1	10000	2	1	0	2	0
62	680	1	10000	2	1	0	2	0
60	681	1	10000	2	1	0	2	0
58	682	1	10000	2	1	0	2	0
56	683	1	10000	2	1	0	2	0
57	684	1	10000	2	1	0	2	0
58	685	1	10000	2	1	0	2	0
56	686	1	10000	2	1	0	2	0
57	687	1	10000	2	1	0	2	0
55	688	1	10000	2	1	0	2	0
53	689	1	10000	2	1	0	2	0
51	690	1	10000	2	1	0	2	0
49	691	1	10000	2	1	0	2	0
49	692	1	10000	2	1	0	2	0
51	693	1	10000	2	1	0	2	0
51	694	1	10000	2	1	0	2	0
51	695	1	10000	2	1	0	2	0
50	696	1	10000	2	1	0	2	0
48	697	1	10000	2	1	0	2	0
47	698	1	10000	2	1	0	2	0
47	699	1	10000	2	1	0	2	0
46	700	1	10000	2	1	0	2	0
47	701	1	10000	2	1	0	2	0
47	702	1	10000	2	1	0	2	0
51	703	1	10000	2	1	0	2	0
57	704	1	10000	2	1	0	2	0
62	705	1	10000	2	1	0	2	0
66	706	1	10000	2	1	0	2	0
65	707	1	10000	2	1	0	2	0
63	708	1	10000	2	1	0	2	0
61	709	1	10000	2	1	0	2	0
59	710	1	10000	2	1	0	2	0
58	711	1	10000	2	1	0	2	0
59	712	1	10000	2	1	0	2	0
58	713	1	10000	2	1	0	2	0
56	714	1	10000	2	1	0	2	0
54	715	1	10000	2	1	0	2	0
57	716	1	10000	2	1	0	2	0
54	717	1	10000	2	1	0	2	0
53	718	1	10000	2	1	0	2	0
57	719	1	10000	2	1	0	2	0
61	720	1	10000	2	1	0	2	0
62	721	1	10000	2	1	0	2	0
60	722	1	10000	2	1	0	2	0
58	723	1	10000	2	1	0	2	0
59	724	1	10000	2	1	0	2	0
60	725	1	10000	2	1	0	2	0
65	726	1	10000	2	1	0	2	0
73	727	1	10000	2	1	0	2	0
77	728	1	10000	2	1	0	2	0
84	729	1	10000	2	1	0	2	0
88	730	1	10000	2	1	0	2	0
87	731	1	10000	2	1	0	2	0
85	732	1	10000	2	1	0	2	0
86	733	1	10000	2	1	0	2	0
83	734	1	10000	2	1	0	2	0
81	735	1	10000	2	1	0	2	0
85	736	1	10000	2	1	0	2	0
83	737	1	10000	2	1	0	2	0
80	738	1	10000	2	1	0	2	0
77	739	1	10000	2	1	0	2	0
75	740	1	10000	2	1	0	2	0
73	741	1	10000	2	1	0	2	0
74	742	1	10000	2	1	0	2	0
75	743	1	10000	2	1	0	2	0
77	744	1	10000	2	1	0	2	0
76	745	1	10000	2	1	0	2	0
73	746	1	10000	2	1	0	2	0
71	747	1	10000	2	1	0	2	0
68	748	1	10000	2	1	0	2	0
69	749	1	10000	2	1	0	2	0
72	750	1	10000	2	1	0	2	0
75	751	1	10000	2	1	0	2	0
76	752	1	10000	2	1	0	2	0
77	753	1	10000	2	1	0	2	0
77	754	1	10000	2	1	0	2	0
83	755	1	10000	2	1	0	2	0
93	756	1	10000	2	1	0	2	0
100	757	1	10000	2	1	0	2	0
104	758	1	10000	2	1	0	2	0
102	759	1	10000	2	1	0	2	0
106	760	1	10000	2	1	0	2	0
107	761	1	10000	2	1	0	2	0
108	762	1	10000	2	1	0	2	0
109	763	1	10000	2	1	0	2	0
112	764	1	10000	2	1	0	2	0
114	765	1	10000	2	1	0	2	0
112	766	1	10000	2	1	0	2	0
110	767	1	10000	2	1	0	2	0
106	768	1	10000	2	1	0	2	0
104	769	1	10000	2	1	0	2	0
105	770	1	10000	2	1	0	2	0
108	771	1	10000	2	1	0	2	0
108	772	1	10000	2	1	0	2	0
111	773	1	10000	2	1	0	2	0
115	774	1	10000	2	1	0	2	0
114	775	1	10000	2	1	0	2	0
111	776	1	10000	2	1	0	2	0
110	777	1	10000	2	1	0	2	0
107	778	1	10000	2	1	0	2	0
104	779	1	10000	2	1	0	2	0
106	780	1	10000	2	1	0	2	0
107	781	1	10000	2	1	0	2	0
110	782	1	10000	2	1	0	2	0
112	783	1	10000	2	1	0	2	0
108	784	1	10000	2	1	0	2	0
106	785	1	10000	2	1	0	2	0
106	786	1	10000	2	1	0	2	0
108	787	1	10000	2	1	0	2	0
111	788	1	10000	2	1	0	2	0
116	789	1	10000	2	1	0	2	0
117	790	1	10000	2	1	0	2	0
116	791	1	10000	2	1	0	2	0
114	792	1	10000	2	1	0	2	0
110	793	1	10000	2	1	0	2	0
110	794	1	10000	2	1	0	2	0
108	795	1	10000	2	1	0	2	0
105	796	1	10000	2	1	0	2	0
102	797	1	10000	2	1	0	2	0
99	798	1	10000	2	1	0	2	0
96	799	1	10000	2	1	0	2	0
93	800	1	10000	2	1	0	2	0
92	801	1	10000	2	1	0	2	0
88	802	1	10000	2	1	0	2	0
85	803	1	10000	2	1	0	2	0
83	804	1	10000	2	1	0	2	0
83	805	1	10000	2	1	0	2	0
80	806	1	10000	2	1	0	2	0
81	807	1	10000	2	1	0	2	0
90	808	1	10000	2	1	0	2	0
92	809	1	10000	2	1	0	2	0
90	810	1	10000	2	1	0	2	0
90	811	1	10000	2	1	0	2	0
87	812	1	10000	2	1	0	2	0
85	813	1	10000	2	1	0	2	0
82	814	1	10000	2	1	0	2	0
78	815	1	10000	2	1	0	2	0
77	816	1	10000	2	1	0	2	0
83	817	1	10000	2	1	0	2	0
88	818	1	10000	2	1	0	2	0
87	819	1	10000	2	1	0	2	0
86	820	1	10000	2	1	0	2	0
85	821	1	10000	2	1	0	2	0
84	822	1	10000	2	1	0	2	0
82	823	1	10000	2	1	0	2	0
82	824	1	10000	2	1	0	2	0
81	825	1	10000	2	1	0	2	0
78	826	1	10000	2	1	0	2	0
75	827	1	10000	2	1	0	2	0
71	828	1	10000	2	1	0	2	0
68	829	1	10000	2	1	0	2	0
66	830	1	10000	2	1	0	2	0
70	831	1	10000	2	1	0	2	0
76	832	1	10000	2	1	0	2	0
79	833	1	10000	2	1	0	2	0
77	834	1	10000	2	1	0	2	0
74	835	1	10000	2	1	0	2	0
72	836	1	10000	2	1	0	2	0
70	837	1	10000	2	1	0	2	0
69	838	1	10000	2	1	0	2	0
71	839	1	10000	2	1	0	2	0
71	840	1	10000	2	1	0	2	0
74	841	1	10000	2	1	0	2	0
74	842	1	10000	2	1	0	2	0
71	843	1	10000	2	1	0	2	0
70	844	1	10000	2	1	0	2	0
70	845	1	10000	2	1	0	2	0
69	846	1	10000	2	1	0	2	0
67	847	1	10000	2	1	0	2	0
67	848	1	10000	2	1	0	2	0
67	849	1	10000	2	1	0	2	0
63	850	1	10000	2	1	0	2	0
61	851	1	10000	2	1	0	2	0
60	852	1	10000	2	1	0	2	0
58	853	1	10000	2	1	0	2	0
58	854	1	10000	2	1	0	2	0
59	855	1	10000	2	1	0	2	0
57	856	1	10000	2	1	0	2	0
58	857	1	10000	2	1	0	2	0
57	858	1	10000	2	1	0	2	0
54	859	1	10000	2	1	0	2	0
56	860	1	10000	2	1	0	2	0
62	861	1	10000	2	1	0	2	0
66	862	1	10000	2	1	0	2	0
68	863	1	10000	2	1	0	2	0
72	864	1	10000	2	1	0	2	0
72	865	1	10000	2	1	0	2	0
71	866	1	10000	2	1	0	2	0
74	867	1	10000	2	1	0	2	0
75	868	1	10000	2	1	0	2	0
76	869	1	10000	2	1	0	2	0
81	870	1	10000	2	1	0	2	0
83	871	1	10000	2	1	0	2	0
83	872	1	10000	2	1	0	2	0
81	873	1	10000	2	1	0	2	0
79	874	1	10000	2	1	0	2	0
79	875	1	10000	2	1	0	2	0
84	876	1	10000	2	1	0	2	0
83	877	1	10000	2	1	0	2	0
80	878	1	10000	2	1	0	2	0
80	879	1	10000	2	1	0	2	0
80	880	1	10000	2	1	0	2	0
78	881	1	10000	2	1	0	2	0
75	882	1	10000	2	1	0	2	0
74	883	1	10000	2	1	0	2	0
72	884	1	10000	2	1	0	2	0
76	885	1	10000	2	1	0	2	0
75	886	1	10000	2	1	0	2	0
74	887	1	10000	2	1	0	2	0
73	888	1	10000	2	1	0	2	0
71	889	1	10000	2	1	0	2	0
70	890	1	10000	2	1	0	2	0
72	891	1	10000	2	1	0	2	0
71	892	1	10000	2	1	0	2	0
71	893	1	10000	2	1	0	2	0
68	894	1	10000	2	1	0	2	0
65	895	1	10000	2	1	0	2	0
63	896	1	10000	2	1	0	2	0
63	897	1	10000	2	1	0	2	0
61	898	1	10000	2	1	0	2	0
60	899	1	10000	2	1	0	2	0
61	900	1	10000	2	1	0	2	0
62	901	1	10000	2	1	0	2	0
60	902	1	10000	2	1	0	2	0
60	903	1	10000	2	1	0	2	0
64	904	1	10000	2	1	0	2	0
66	905	1	10000	2	1	0	2	0
66	906	1	10000	2	1	0	2	0
65	907	1	10000	2	1	0	2	0
65	908	1	10000	2	1	0	2	0
63	909	1	10000	2	1	0	2	0
62	910	1	10000	2	1	0	2	0
63	911	1	10000	2	1	0	2	0
66	912	1	10000	2	1	0	2	0
70	913	1	10000	2	1	0	2	0
70	914	1	10000	2	1	0	2	0
73	915	1	10000	2	1	0	2	0
76	916	1	10000	2	1	0	2	0
75	917	1	10000	2	1	0	2	0
82	918	1	10000	2	1	0	2	0
85	919	1	10000	2	1	0	2	0
83	920	1	10000	2	1	0	2	0
82	921	1	10000	2	1	0	2	0
80	922	1	10000	2	1	0	2	0
84	923	1	10000	2	1	0	2	0
87	924	1	10000	2	1	0	2	0
87	925	1	10000	2	1	0	2	0
85	926	1	10000	2	1	0	2	0
90	927	1	10000	2	1	0	2	0
95	928	1	10000	2	1	0	2	0
95	929	1	10000	2	1	0	2	0
95	930	1	10000	2	1	0	2	0
96	931	1	10000	2	1	0	2	0
92	932	1	10000	2	1	0	2	0
89	933	1	10000	2	1	0	2	0
88	934	1	10000	2	1	0	2	0
85	935	1	10000	2	1	0	2	0
83	936	1	10000	2	1	0	2	0
83	937	1	10000	2	1	0	2	0
85	938	1	10000	2	1	0	2	0
82	939	1	10000	2	1	0	2	0
79	940	1	10000	2	1	0	2	0
79	941	1	10000	2	1	0	2	0
77	942	1	10000	2	1	0	2	0
76	943	1	10000	2	1	0	2	0
74	944	1	10000	2	1	0	2	0
74	945	1	10000	2	1	0	2	0
74	946	1	10000	2	1	0	2	0
71	947	1	10000	2	1	0	2	0
68	948	1	10000	2	1	0	2	0
69	949	1	10000	2	1	0	2	0
71	950	1	10000	2	1	0	2	0
72	951	1	10000	2	1	0	2	0
71	952	1	10000	2	1	0	2	0
69	953	1	10000	2	1	0	2	0
69	954	1	10000	2	1	0	2	0
72	955	1	10000	2	1	0	2	0
73	956	1	10000	2	1	0	2	0
75	957	1	10000	2	1	0	2	0
75	958	1	10000	2	1	0	2	0
73	959	1	10000	2	1	0	2	0
70	960	1	10000	2	1	0	2	0
73	961	1	10000	2	1	0	2	0
72	962	1	10000	2	1	0	2	0
72	963	1	10000	2	1	0	2	0
81	964	1	10000	2	1	0	2	0
89	965	1	10000	2	1	0	2	0
91	966	1	10000	2	1	0	2	0
91	967	1	10000	2	1	0	2	0
94	968	1	10000	2	1	0	2	0
102	969	1	10000	2	1	0	2	0
108	970	1	10000	2	1	0	2	0
109	971	1	10000	2	1	0	2	0
107	972	1	10000	2	1	0	2	0
104	973	1	10000	2	1	0	2	0
100	974	1	10000	2	1	0	2	0
95	975	1	10000	2	1	0	2	0
96	976	1	10000	2	1	0	2	0
95	977	1	10000	2	1	0	2	0
92	978	1	10000	2	1	0	2	0
91	979	1	10000	2	1	0	2	0
90	980	1	10000	2	1	0	2	0
90	981	1	10000	2	1	0	2	0
87	982	1	10000	2	1	0	2	0
87	983	1	10000	2	1	0	2	0
83	984	1	10000	2	1	0	2	0
82	985	1	10000	2	1	0	2	0
83	986	1	10000	2	1	0	2	0
89	987	1	10000	2	1	0	2	0
95	988	1	10000	2	1	0	2	0
102	989	1	10000	2	1	0	2	0
106	990	1	10000	2	1	0	2	0
105	991	1	10000	2	1	0	2	0
105	992	1	10000	2	1	0	2	0
111	993	1	10000	2	1	0	2	0
113	994	1	10000	2	1	0	2	0
109	995	1	10000	2	1	0	2	0
109	996	1	10000	2	1	0	2	0
112	997	1	10000	2	1	0	2	0
115	998	1	10000	2	1	0	2	0
113	999	1	10000	2	1	0	2	0
114	1000	1	10000	2	1	0	2	0
120	1001	1	10000	2	1	0	2	0
53	1	10	10000	3	1	0	3	0
53	2	10	10000	3	1	0	3	0
54	3	10	10000	3	1	0	3	0
50	4	10	10000	3	1	0	3	0
50	5	10	10000	3	1	0	3	0
49	6	10	10000	3	1	0	3	0
47	7	10	10000	3	1	0	3	0
47	8	10	10000	3	1	0	3	0
47	9	10	10000	3	1	0	3	0
47	10	10	10000	3	1	0	3	0
48	11	10	10000	3	1	0	3	0
53	12	10	10000	3	1	0	3	0
55	13	10	10000	3	1	0	3	0
56	14	10	10000	3	1	0	3	0
57	15	10	10000	3	1	0	3	0
58	16	10	10000	3	1	0	3	0
58	17	10	10000	3	1	0	3	0
59	18	10	10000	3	1	0	3	0
60	19	10	10000	3	1	0	3	0
62	20	10	10000	3	1	0	3	0
65	21	10	10000	3	1	0	3	0
66	22	10	10000	3	1	0	3	0
66	23	10	10000	3	1	0	3	0
64	24	10	10000	3	1	0	3	0
61	25	10	10000	3	1	0	3	0
59	26	10	10000	3	1	0	3	0
57	27	10	10000	3	1	0	3	0
56	28	10	10000	3	1	0	3	0
55	29	10	10000	3	1	0	3	0
54	30	10	10000	3	1	0	3	0
58	31	10	10000	3	1	0	3	0
63	32	10	10000	3	1	0	3	0
68	33	10	10000	3	1	0	3	0
67	34	10	10000	3	1	0	3	0
67	35	10	10000	3	1	0	3	0
68	36	10	10000	3	1	0	3	0
72	37	10	10000	3	1	0	3	0
70	38	10	10000	3	1	0	3	0
67	39	10	10000	3	1	0	3	0
68	40	10	10000	3	1	0	3	0
66	41	10	10000	3	1	0	3	0
65	42	10	10000	3	1	0	3	0
65	43	10	10000	3	1	0	3	0
67	44	10	10000	3	1	0	3	0
71	45	10	10000	3	1	0	3	0
78	46	10	10000	3	1	0	3	0
84	47	10	10000	3	1	0	3	0
85	48	10	10000	3	1	0	3	0
84	49	10	10000	3	1	0	3	0
85	50	10	10000	3	1	0	3	0
81	51	10	10000	3	1	0	3	0
79	52	10	10000	3	1	0	3	0
84	53	10	10000	3	1	0	3	0
88	54	10	10000	3	1	0	3	0
85	55	10	10000	3	1	0	3	0
82	56	10	10000	3	1	0	3	0
80	57	10	10000	3	1	0	3	0
77	58	10	10000	3	1	0	3	0
74	59	10	10000	3	1	0	3	0
70	60	10	10000	3	1	0	3	0
68	61	10	10000	3	1	0	3	0
66	62	10	10000	3	1	0	3	0
65	63	10	10000	3	1	0	3	0
61	64	10	10000	3	1	0	3	0
61	65	10	10000	3	1	0	3	0
63	66	10	10000	3	1	0	3	0
65	67	10	10000	3	1	0	3	0
64	68	10	10000	3	1	0	3	0
67	69	10	10000	3	1	0	3	0
68	70	10	10000	3	1	0	3	0
66	71	10	10000	3	1	0	3	0
68	72	10	10000	3	1	0	3	0
73	73	10	10000	3	1	0	3	0
78	74	10	10000	3	1	0	3	0
74	75	10	10000	3	1	0	3	0
71	76	10	10000	3	1	0	3	0
71	77	10	10000	3	1	0	3	0
71	78	10	10000	3	1	0	3	0
72	79	10	10000	3	1	0	3	0
71	80	10	10000	3	1	0	3	0
69	81	10	10000	3	1	0	3	0
67	82	10	10000	3	1	0	3	0
66	83	10	10000	3	1	0	3	0
63	84	10	10000	3	1	0	3	0
60	85	10	10000	3	1	0	3	0
59	86	10	10000	3	1	0	3	0
58	87	10	10000	3	1	0	3	0
59	88	10	10000	3	1	0	3	0
58	89	10	10000	3	1	0	3	0
59	90	10	10000	3	1	0	3	0
56	91	10	10000	3	1	0	3	0
56	92	10	10000	3	1	0	3	0
53	93	10	10000	3	1	0	3	0
52	94	10	10000	3	1	0	3	0
51	95	10	10000	3	1	0	3	0
51	96	10	10000	3	1	0	3	0
51	97	10	10000	3	1	0	3	0
49	98	10	10000	3	1	0	3	0
49	99	10	10000	3	1	0	3	0
49	100	10	10000	3	1	0	3	0
48	101	10	10000	3	1	0	3	0
49	102	10	10000	3	1	0	3	0
52	103	10	10000	3	1	0	3	0
55	104	10	10000	3	1	0	3	0
56	105	10	10000	3	1	0	3	0
61	106	10	10000	3	1	0	3	0
66	107	10	10000	3	1	0	3	0
70	108	10	10000	3	1	0	3	0
74	109	10	10000	3	1	0	3	0
77	110	10	10000	3	1	0	3	0
75	111	10	10000	3	1	0	3	0
73	112	10	10000	3	1	0	3	0
69	113	10	10000	3	1	0	3	0
68	114	10	10000	3	1	0	3	0
73	115	10	10000	3	1	0	3	0
72	116	10	10000	3	1	0	3	0
71	117	10	10000	3	1	0	3	0
70	118	10	10000	3	1	0	3	0
69	119	10	10000	3	1	0	3	0
67	120	10	10000	3	1	0	3	0
67	121	10	10000	3	1	0	3	0
67	122	10	10000	3	1	0	3	0
66	123	10	10000	3	1	0	3	0
67	124	10	10000	3	1	0	3	0
73	125	10	10000	3	1	0	3	0
77	126	10	10000	3	1	0	3	0
78	127	10	10000	3	1	0	3	0
79	128	10	10000	3	1	0	3	0
81	129	10	10000	3	1	0	3	0
85	130	10	10000	3	1	0	3	0
86	131	10	10000	3	1	0	3	0
84	132	10	10000	3	1	0	3	0
81	133	10	10000	3	1	0	3	0
85	134	10	10000	3	1	0	3	0
86	135	10	10000	3	1	0	3	0
84	136	10	10000	3	1	0	3	0
82	137	10	10000	3	1	0	3	0
80	138	10	10000	3	1	0	3	0
79	139	10	10000	3	1	0	3	0
80	140	10	10000	3	1	0	3	0
79	141	10	10000	3	1	0	3	0
77	142	10	10000	3	1	0	3	0
77	143	10	10000	3	1	0	3	0
73	144	10	10000	3	1	0	3	0
72	145	10	10000	3	1	0	3	0
73	146	10	10000	3	1	0	3	0
71	147	10	10000	3	1	0	3	0
69	148	10	10000	3	1	0	3	0
67	149	10	10000	3	1	0	3	0
65	150	10	10000	3	1	0	3	0
65	151	10	10000	3	1	0	3	0
68	152	10	10000	3	1	0	3	0
68	153	10	10000	3	1	0	3	0
68	154	10	10000	3	1	0	3	0
70	155	10	10000	3	1	0	3	0
70	156	10	10000	3	1	0	3	0
71	157	10	10000	3	1	0	3	0
71	158	10	10000	3	1	0	3	0
70	159	10	10000	3	1	0	3	0
69	160	10	10000	3	1	0	3	0
74	161	10	10000	3	1	0	3	0
77	162	10	10000	3	1	0	3	0
76	163	10	10000	3	1	0	3	0
72	164	10	10000	3	1	0	3	0
70	165	10	10000	3	1	0	3	0
73	166	10	10000	3	1	0	3	0
72	167	10	10000	3	1	0	3	0
73	168	10	10000	3	1	0	3	0
69	169	10	10000	3	1	0	3	0
69	170	10	10000	3	1	0	3	0
75	171	10	10000	3	1	0	3	0
77	172	10	10000	3	1	0	3	0
73	173	10	10000	3	1	0	3	0
74	174	10	10000	3	1	0	3	0
76	175	10	10000	3	1	0	3	0
73	176	10	10000	3	1	0	3	0
72	177	10	10000	3	1	0	3	0
73	178	10	10000	3	1	0	3	0
72	179	10	10000	3	1	0	3	0
73	180	10	10000	3	1	0	3	0
73	181	10	10000	3	1	0	3	0
73	182	10	10000	3	1	0	3	0
74	183	10	10000	3	1	0	3	0
79	184	10	10000	3	1	0	3	0
78	185	10	10000	3	1	0	3	0
75	186	10	10000	3	1	0	3	0
75	187	10	10000	3	1	0	3	0
73	188	10	10000	3	1	0	3	0
72	189	10	10000	3	1	0	3	0
73	190	10	10000	3	1	0	3	0
73	191	10	10000	3	1	0	3	0
75	192	10	10000	3	1	0	3	0
73	193	10	10000	3	1	0	3	0
80	194	10	10000	3	1	0	3	0
88	195	10	10000	3	1	0	3	0
93	196	10	10000	3	1	0	3	0
92	197	10	10000	3	1	0	3	0
91	198	10	10000	3	1	0	3	0
92	199	10	10000	3	1	0	3	0
90	200	10	10000	3	1	0	3	0
91	201	10	10000	3	1	0	3	0
91	202	10	10000	3	1	0	3	0
88	203	10	10000	3	1	0	3	0
83	204	10	10000	3	1	0	3	0
82	205	10	10000	3	1	0	3	0
80	206	10	10000	3	1	0	3	0
80	207	10	10000	3	1	0	3	0
77	208	10	10000	3	1	0	3	0
76	209	10	10000	3	1	0	3	0
76	210	10	10000	3	1	0	3	0
76	211	10	10000	3	1	0	3	0
74	212	10	10000	3	1	0	3	0
77	213	10	10000	3	1	0	3	0
78	214	10	10000	3	1	0	3	0
78	215	10	10000	3	1	0	3	0
80	216	10	10000	3	1	0	3	0
90	217	10	10000	3	1	0	3	0
97	218	10	10000	3	1	0	3	0
99	219	10	10000	3	1	0	3	0
98	220	10	10000	3	1	0	3	0
101	221	10	10000	3	1	0	3	0
97	222	10	10000	3	1	0	3	0
96	223	10	10000	3	1	0	3	0
96	224	10	10000	3	1	0	3	0
96	225	10	10000	3	1	0	3	0
96	226	10	10000	3	1	0	3	0
94	227	10	10000	3	1	0	3	0
92	228	10	10000	3	1	0	3	0
93	229	10	10000	3	1	0	3	0
92	230	10	10000	3	1	0	3	0
92	231	10	10000	3	1	0	3	0
92	232	10	10000	3	1	0	3	0
90	233	10	10000	3	1	0	3	0
88	234	10	10000	3	1	0	3	0
85	235	10	10000	3	1	0	3	0
81	236	10	10000	3	1	0	3	0
82	237	10	10000	3	1	0	3	0
89	238	10	10000	3	1	0	3	0
90	239	10	10000	3	1	0	3	0
88	240	10	10000	3	1	0	3	0
86	241	10	10000	3	1	0	3	0
83	242	10	10000	3	1	0	3	0
80	243	10	10000	3	1	0	3	0
76	244	10	10000	3	1	0	3	0
74	245	10	10000	3	1	0	3	0
74	246	10	10000	3	1	0	3	0
75	247	10	10000	3	1	0	3	0
72	248	10	10000	3	1	0	3	0
70	249	10	10000	3	1	0	3	0
67	250	10	10000	3	1	0	3	0
68	251	10	10000	3	1	0	3	0
66	252	10	10000	3	1	0	3	0
67	253	10	10000	3	1	0	3	0
69	254	10	10000	3	1	0	3	0
68	255	10	10000	3	1	0	3	0
66	256	10	10000	3	1	0	3	0
65	257	10	10000	3	1	0	3	0
66	258	10	10000	3	1	0	3	0
69	259	10	10000	3	1	0	3	0
73	260	10	10000	3	1	0	3	0
72	261	10	10000	3	1	0	3	0
71	262	10	10000	3	1	0	3	0
69	263	10	10000	3	1	0	3	0
71	264	10	10000	3	1	0	3	0
69	265	10	10000	3	1	0	3	0
69	266	10	10000	3	1	0	3	0
68	267	10	10000	3	1	0	3	0
67	268	10	10000	3	1	0	3	0
65	269	10	10000	3	1	0	3	0
63	270	10	10000	3	1	0	3	0
62	271	10	10000	3	1	0	3	0
60	272	10	10000	3	1	0	3	0
58	273	10	10000	3	1	0	3	0
58	274	10	10000	3	1	0	3	0
57	275	10	10000	3	1	0	3	0
60	276	10	10000	3	1	0	3	0
63	277	10	10000	3	1	0	3	0
63	278	10	10000	3	1	0	3	0
66	279	10	10000	3	1	0	3	0
65	280	10	10000	3	1	0	3	0
67	281	10	10000	3	1	0	3	0
71	282	10	10000	3	1	0	3	0
80	283	10	10000	3	1	0	3	0
84	284	10	10000	3	1	0	3	0
83	285	10	10000	3	1	0	3	0
83	286	10	10000	3	1	0	3	0
90	287	10	10000	3	1	0	3	0
98	288	10	10000	3	1	0	3	0
104	289	10	10000	3	1	0	3	0
106	290	10	10000	3	1	0	3	0
103	291	10	10000	3	1	0	3	0
101	292	10	10000	3	1	0	3	0
99	293	10	10000	3	1	0	3	0
98	294	10	10000	3	1	0	3	0
94	295	10	10000	3	1	0	3	0
94	296	10	10000	3	1	0	3	0
93	297	10	10000	3	1	0	3	0
91	298	10	10000	3	1	0	3	0
93	299	10	10000	3	1	0	3	0
93	300	10	10000	3	1	0	3	0
90	301	10	10000	3	1	0	3	0
87	302	10	10000	3	1	0	3	0
85	303	10	10000	3	1	0	3	0
80	304	10	10000	3	1	0	3	0
78	305	10	10000	3	1	0	3	0
81	306	10	10000	3	1	0	3	0
81	307	10	10000	3	1	0	3	0
81	308	10	10000	3	1	0	3	0
81	309	10	10000	3	1	0	3	0
84	310	10	10000	3	1	0	3	0
89	311	10	10000	3	1	0	3	0
88	312	10	10000	3	1	0	3	0
87	313	10	10000	3	1	0	3	0
89	314	10	10000	3	1	0	3	0
94	315	10	10000	3	1	0	3	0
94	316	10	10000	3	1	0	3	0
92	317	10	10000	3	1	0	3	0
89	318	10	10000	3	1	0	3	0
90	319	10	10000	3	1	0	3	0
87	320	10	10000	3	1	0	3	0
86	321	10	10000	3	1	0	3	0
85	322	10	10000	3	1	0	3	0
86	323	10	10000	3	1	0	3	0
82	324	10	10000	3	1	0	3	0
81	325	10	10000	3	1	0	3	0
79	326	10	10000	3	1	0	3	0
78	327	10	10000	3	1	0	3	0
86	328	10	10000	3	1	0	3	0
91	329	10	10000	3	1	0	3	0
95	330	10	10000	3	1	0	3	0
103	331	10	10000	3	1	0	3	0
105	332	10	10000	3	1	0	3	0
102	333	10	10000	3	1	0	3	0
105	334	10	10000	3	1	0	3	0
110	335	10	10000	3	1	0	3	0
115	336	10	10000	3	1	0	3	0
113	337	10	10000	3	1	0	3	0
113	338	10	10000	3	1	0	3	0
116	339	10	10000	3	1	0	3	0
114	340	10	10000	3	1	0	3	0
112	341	10	10000	3	1	0	3	0
110	342	10	10000	3	1	0	3	0
111	343	10	10000	3	1	0	3	0
116	344	10	10000	3	1	0	3	0
128	345	10	10000	3	1	0	3	0
129	346	10	10000	3	1	0	3	0
129	347	10	10000	3	1	0	3	0
128	348	10	10000	3	1	0	3	0
127	349	10	10000	3	1	0	3	0
124	350	10	10000	3	1	0	3	0
120	351	10	10000	3	1	0	3	0
123	352	10	10000	3	1	0	3	0
130	353	10	10000	3	1	0	3	0
129	354	10	10000	3	1	0	3	0
142	355	10	10000	3	1	0	3	0
150	356	10	10000	3	1	0	3	0
149	357	10	10000	3	1	0	3	0
160	358	10	10000	3	1	0	3	0
166	359	10	10000	3	1	0	3	0
174	360	10	10000	3	1	0	3	0
199	361	10	10000	3	1	0	3	0
198	362	10	10000	3	1	0	3	0
201	363	10	10000	3	1	0	3	0
192	364	10	10000	3	1	0	3	0
187	365	10	10000	3	1	0	3	0
183	366	10	10000	3	1	0	3	0
186	367	10	10000	3	1	0	3	0
191	368	10	10000	3	1	0	3	0
186	369	10	10000	3	1	0	3	0
179	370	10	10000	3	1	0	3	0
178	371	10	10000	3	1	0	3	0
193	372	10	10000	3	1	0	3	0
200	373	10	10000	3	1	0	3	0
192	374	10	10000	3	1	0	3	0
187	375	10	10000	3	1	0	3	0
183	376	10	10000	3	1	0	3	0
201	377	10	10000	3	1	0	3	0
223	378	10	10000	3	1	0	3	0
235	379	10	10000	3	1	0	3	0
231	380	10	10000	3	1	0	3	0
223	381	10	10000	3	1	0	3	0
217	382	10	10000	3	1	0	3	0
213	383	10	10000	3	1	0	3	0
230	384	10	10000	3	1	0	3	0
250	385	10	10000	3	1	0	3	0
246	386	10	10000	3	1	0	3	0
236	387	10	10000	3	1	0	3	0
228	388	10	10000	3	1	0	3	0
219	389	10	10000	3	1	0	3	0
217	390	10	10000	3	1	0	3	0
215	391	10	10000	3	1	0	3	0
206	392	10	10000	3	1	0	3	0
201	393	10	10000	3	1	0	3	0
201	394	10	10000	3	1	0	3	0
194	395	10	10000	3	1	0	3	0
187	396	10	10000	3	1	0	3	0
179	397	10	10000	3	1	0	3	0
172	398	10	10000	3	1	0	3	0
166	399	10	10000	3	1	0	3	0
161	400	10	10000	3	1	0	3	0
157	401	10	10000	3	1	0	3	0
159	402	10	10000	3	1	0	3	0
160	403	10	10000	3	1	0	3	0
162	404	10	10000	3	1	0	3	0
176	405	10	10000	3	1	0	3	0
182	406	10	10000	3	1	0	3	0
176	407	10	10000	3	1	0	3	0
173	408	10	10000	3	1	0	3	0
174	409	10	10000	3	1	0	3	0
175	410	10	10000	3	1	0	3	0
173	411	10	10000	3	1	0	3	0
169	412	10	10000	3	1	0	3	0
164	413	10	10000	3	1	0	3	0
161	414	10	10000	3	1	0	3	0
164	415	10	10000	3	1	0	3	0
161	416	10	10000	3	1	0	3	0
159	417	10	10000	3	1	0	3	0
155	418	10	10000	3	1	0	3	0
151	419	10	10000	3	1	0	3	0
147	420	10	10000	3	1	0	3	0
153	421	10	10000	3	1	0	3	0
163	422	10	10000	3	1	0	3	0
175	423	10	10000	3	1	0	3	0
183	424	10	10000	3	1	0	3	0
184	425	10	10000	3	1	0	3	0
184	426	10	10000	3	1	0	3	0
183	427	10	10000	3	1	0	3	0
182	428	10	10000	3	1	0	3	0
183	429	10	10000	3	1	0	3	0
185	430	10	10000	3	1	0	3	0
185	431	10	10000	3	1	0	3	0
188	432	10	10000	3	1	0	3	0
185	433	10	10000	3	1	0	3	0
184	434	10	10000	3	1	0	3	0
185	435	10	10000	3	1	0	3	0
184	436	10	10000	3	1	0	3	0
181	437	10	10000	3	1	0	3	0
174	438	10	10000	3	1	0	3	0
167	439	10	10000	3	1	0	3	0
164	440	10	10000	3	1	0	3	0
164	441	10	10000	3	1	0	3	0
158	442	10	10000	3	1	0	3	0
154	443	10	10000	3	1	0	3	0
150	444	10	10000	3	1	0	3	0
144	445	10	10000	3	1	0	3	0
142	446	10	10000	3	1	0	3	0
141	447	10	10000	3	1	0	3	0
135	448	10	10000	3	1	0	3	0
134	449	10	10000	3	1	0	3	0
134	450	10	10000	3	1	0	3	0
128	451	10	10000	3	1	0	3	0
123	452	10	10000	3	1	0	3	0
119	453	10	10000	3	1	0	3	0
117	454	10	10000	3	1	0	3	0
116	455	10	10000	3	1	0	3	0
116	456	10	10000	3	1	0	3	0
119	457	10	10000	3	1	0	3	0
118	458	10	10000	3	1	0	3	0
118	459	10	10000	3	1	0	3	0
123	460	10	10000	3	1	0	3	0
124	461	10	10000	3	1	0	3	0
124	462	10	10000	3	1	0	3	0
127	463	10	10000	3	1	0	3	0
126	464	10	10000	3	1	0	3	0
124	465	10	10000	3	1	0	3	0
119	466	10	10000	3	1	0	3	0
116	467	10	10000	3	1	0	3	0
112	468	10	10000	3	1	0	3	0
106	469	10	10000	3	1	0	3	0
103	470	10	10000	3	1	0	3	0
100	471	10	10000	3	1	0	3	0
95	472	10	10000	3	1	0	3	0
92	473	10	10000	3	1	0	3	0
91	474	10	10000	3	1	0	3	0
90	475	10	10000	3	1	0	3	0
86	476	10	10000	3	1	0	3	0
84	477	10	10000	3	1	0	3	0
82	478	10	10000	3	1	0	3	0
78	479	10	10000	3	1	0	3	0
79	480	10	10000	3	1	0	3	0
79	481	10	10000	3	1	0	3	0
78	482	10	10000	3	1	0	3	0
78	483	10	10000	3	1	0	3	0
76	484	10	10000	3	1	0	3	0
77	485	10	10000	3	1	0	3	0
77	486	10	10000	3	1	0	3	0
83	487	10	10000	3	1	0	3	0
88	488	10	10000	3	1	0	3	0
87	489	10	10000	3	1	0	3	0
84	490	10	10000	3	1	0	3	0
85	491	10	10000	3	1	0	3	0
87	492	10	10000	3	1	0	3	0
87	493	10	10000	3	1	0	3	0
89	494	10	10000	3	1	0	3	0
91	495	10	10000	3	1	0	3	0
91	496	10	10000	3	1	0	3	0
93	497	10	10000	3	1	0	3	0
100	498	10	10000	3	1	0	3	0
99	499	10	10000	3	1	0	3	0
98	500	10	10000	3	1	0	3	0
98	501	10	10000	3	1	0	3	1
98	502	10	10000	3	1	0	3	1
97	503	10	10000	3	1	0	3	1
94	504	10	10000	3	1	0	3	1
90	505	10	10000	3	1	0	3	1
90	506	10	10000	3	1	0	3	1
86	507	10	10000	3	1	0	3	1
87	508	10	10000	3	1	0	3	1
87	509	10	10000	3	1	0	3	1
85	510	10	10000	3	1	0	3	1
82	511	10	10000	3	1	0	3	1
82	512	10	10000	3	1	0	3	1
78	513	10	10000	3	1	0	3	1
77	514	10	10000	3	1	0	3	1
78	515	10	10000	3	1	0	3	1
84	516	10	10000	3	1	0	3	1
94	517	10	10000	3	1	0	3	1
100	518	10	10000	3	1	0	3	1
100	519	10	10000	3	1	0	3	1
104	520	10	10000	3	1	0	3	1
108	521	10	10000	3	1	0	3	1
106	522	10	10000	3	1	0	3	1
108	523	10	10000	3	1	0	3	1
105	524	10	10000	3	1	0	3	1
110	525	10	10000	3	1	0	3	1
109	526	10	10000	3	1	0	3	1
107	527	10	10000	3	1	0	3	1
104	528	10	10000	3	1	0	3	1
101	529	10	10000	3	1	0	3	1
100	530	10	10000	3	1	0	3	1
97	531	10	10000	3	1	0	3	1
94	532	10	10000	3	1	0	3	1
90	533	10	10000	3	1	0	3	1
91	534	10	10000	3	1	0	3	1
91	535	10	10000	3	1	0	3	1
87	536	10	10000	3	1	0	3	1
84	537	10	10000	3	1	0	3	1
85	538	10	10000	3	1	0	3	1
91	539	10	10000	3	1	0	3	1
92	540	10	10000	3	1	0	3	1
89	541	10	10000	3	1	0	3	1
94	542	10	10000	3	1	0	3	1
100	543	10	10000	3	1	0	3	1
100	544	10	10000	3	1	0	3	1
96	545	10	10000	3	1	0	3	1
93	546	10	10000	3	1	0	3	1
91	547	10	10000	3	1	0	3	1
91	548	10	10000	3	1	0	3	1
89	549	10	10000	3	1	0	3	1
92	550	10	10000	3	1	0	3	1
91	551	10	10000	3	1	0	3	0
91	552	10	10000	3	1	0	3	0
87	553	10	10000	3	1	0	3	0
85	554	10	10000	3	1	0	3	0
84	555	10	10000	3	1	0	3	0
81	556	10	10000	3	1	0	3	0
78	557	10	10000	3	1	0	3	0
74	558	10	10000	3	1	0	3	0
73	559	10	10000	3	1	0	3	0
76	560	10	10000	3	1	0	3	0
76	561	10	10000	3	1	0	3	0
78	562	10	10000	3	1	0	3	0
80	563	10	10000	3	1	0	3	0
80	564	10	10000	3	1	0	3	0
82	565	10	10000	3	1	0	3	0
80	566	10	10000	3	1	0	3	0
76	567	10	10000	3	1	0	3	0
73	568	10	10000	3	1	0	3	0
70	569	10	10000	3	1	0	3	0
70	570	10	10000	3	1	0	3	0
68	571	10	10000	3	1	0	3	0
69	572	10	10000	3	1	0	3	0
68	573	10	10000	3	1	0	3	0
70	574	10	10000	3	1	0	3	0
72	575	10	10000	3	1	0	3	0
72	576	10	10000	3	1	0	3	0
76	577	10	10000	3	1	0	3	0
82	578	10	10000	3	1	0	3	0
84	579	10	10000	3	1	0	3	0
83	580	10	10000	3	1	0	3	0
83	581	10	10000	3	1	0	3	0
89	582	10	10000	3	1	0	3	0
91	583	10	10000	3	1	0	3	0
88	584	10	10000	3	1	0	3	0
93	585	10	10000	3	1	0	3	0
101	586	10	10000	3	1	0	3	0
108	587	10	10000	3	1	0	3	0
114	588	10	10000	3	1	0	3	0
113	589	10	10000	3	1	0	3	0
112	590	10	10000	3	1	0	3	0
109	591	10	10000	3	1	0	3	0
111	592	10	10000	3	1	0	3	0
115	593	10	10000	3	1	0	3	0
113	594	10	10000	3	1	0	3	0
111	595	10	10000	3	1	0	3	0
114	596	10	10000	3	1	0	3	0
110	597	10	10000	3	1	0	3	0
106	598	10	10000	3	1	0	3	0
106	599	10	10000	3	1	0	3	0
109	600	10	10000	3	1	0	3	0
108	601	10	10000	3	1	0	3	0
107	602	10	10000	3	1	0	3	0
104	603	10	10000	3	1	0	3	0
100	604	10	10000	3	1	0	3	0
100	605	10	10000	3	1	0	3	0
98	606	10	10000	3	1	0	3	0
99	607	10	10000	3	1	0	3	0
114	608	10	10000	3	1	0	3	0
122	609	10	10000	3	1	0	3	0
120	610	10	10000	3	1	0	3	0
121	611	10	10000	3	1	0	3	0
130	612	10	10000	3	1	0	3	0
143	613	10	10000	3	1	0	3	0
147	614	10	10000	3	1	0	3	0
153	615	10	10000	3	1	0	3	0
154	616	10	10000	3	1	0	3	0
148	617	10	10000	3	1	0	3	0
142	618	10	10000	3	1	0	3	0
140	619	10	10000	3	1	0	3	0
140	620	10	10000	3	1	0	3	0
140	621	10	10000	3	1	0	3	0
135	622	10	10000	3	1	0	3	0
131	623	10	10000	3	1	0	3	0
125	624	10	10000	3	1	0	3	0
119	625	10	10000	3	1	0	3	0
116	626	10	10000	3	1	0	3	0
118	627	10	10000	3	1	0	3	0
123	628	10	10000	3	1	0	3	0
124	629	10	10000	3	1	0	3	0
120	630	10	10000	3	1	0	3	0
115	631	10	10000	3	1	0	3	0
111	632	10	10000	3	1	0	3	0
112	633	10	10000	3	1	0	3	0
115	634	10	10000	3	1	0	3	0
113	635	10	10000	3	1	0	3	0
111	636	10	10000	3	1	0	3	0
109	637	10	10000	3	1	0	3	0
104	638	10	10000	3	1	0	3	0
104	639	10	10000	3	1	0	3	0
100	640	10	10000	3	1	0	3	0
100	641	10	10000	3	1	0	3	0
99	642	10	10000	3	1	0	3	0
97	643	10	10000	3	1	0	3	0
95	644	10	10000	3	1	0	3	0
92	645	10	10000	3	1	0	3	0
91	646	10	10000	3	1	0	3	0
90	647	10	10000	3	1	0	3	0
88	648	10	10000	3	1	0	3	0
85	649	10	10000	3	1	0	3	0
81	650	10	10000	3	1	0	3	0
79	651	10	10000	3	1	0	3	0
84	652	10	10000	3	1	0	3	0
90	653	10	10000	3	1	0	3	0
90	654	10	10000	3	1	0	3	0
90	655	10	10000	3	1	0	3	0
87	656	10	10000	3	1	0	3	0
86	657	10	10000	3	1	0	3	0
86	658	10	10000	3	1	0	3	0
84	659	10	10000	3	1	0	3	0
82	660	10	10000	3	1	0	3	0
80	661	10	10000	3	1	0	3	0
79	662	10	10000	3	1	0	3	0
78	663	10	10000	3	1	0	3	0
75	664	10	10000	3	1	0	3	0
72	665	10	10000	3	1	0	3	0
70	666	10	10000	3	1	0	3	0
69	667	10	10000	3	1	0	3	0
69	668	10	10000	3	1	0	3	0
69	669	10	10000	3	1	0	3	0
69	670	10	10000	3	1	0	3	0
69	671	10	10000	3	1	0	3	0
67	672	10	10000	3	1	0	3	0
66	673	10	10000	3	1	0	3	0
66	674	10	10000	3	1	0	3	0
66	675	10	10000	3	1	0	3	0
62	676	10	10000	3	1	0	3	0
62	677	10	10000	3	1	0	3	0
62	678	10	10000	3	1	0	3	0
64	679	10	10000	3	1	0	3	0
63	680	10	10000	3	1	0	3	0
65	681	10	10000	3	1	0	3	0
68	682	10	10000	3	1	0	3	0
66	683	10	10000	3	1	0	3	0
63	684	10	10000	3	1	0	3	0
60	685	10	10000	3	1	0	3	0
61	686	10	10000	3	1	0	3	0
63	687	10	10000	3	1	0	3	0
72	688	10	10000	3	1	0	3	0
78	689	10	10000	3	1	0	3	0
77	690	10	10000	3	1	0	3	0
76	691	10	10000	3	1	0	3	0
73	692	10	10000	3	1	0	3	0
75	693	10	10000	3	1	0	3	0
82	694	10	10000	3	1	0	3	0
85	695	10	10000	3	1	0	3	0
89	696	10	10000	3	1	0	3	0
96	697	10	10000	3	1	0	3	0
107	698	10	10000	3	1	0	3	0
112	699	10	10000	3	1	0	3	0
111	700	10	10000	3	1	0	3	0
111	701	10	10000	3	1	0	3	0
110	702	10	10000	3	1	0	3	0
107	703	10	10000	3	1	0	3	0
102	704	10	10000	3	1	0	3	0
102	705	10	10000	3	1	0	3	0
116	706	10	10000	3	1	0	3	0
125	707	10	10000	3	1	0	3	0
123	708	10	10000	3	1	0	3	0
121	709	10	10000	3	1	0	3	0
123	710	10	10000	3	1	0	3	0
125	711	10	10000	3	1	0	3	0
118	712	10	10000	3	1	0	3	0
118	713	10	10000	3	1	0	3	0
116	714	10	10000	3	1	0	3	0
121	715	10	10000	3	1	0	3	0
121	716	10	10000	3	1	0	3	0
121	717	10	10000	3	1	0	3	0
125	718	10	10000	3	1	0	3	0
124	719	10	10000	3	1	0	3	0
119	720	10	10000	3	1	0	3	0
116	721	10	10000	3	1	0	3	0
111	722	10	10000	3	1	0	3	0
108	723	10	10000	3	1	0	3	0
110	724	10	10000	3	1	0	3	0
113	725	10	10000	3	1	0	3	0
111	726	10	10000	3	1	0	3	0
107	727	10	10000	3	1	0	3	0
106	728	10	10000	3	1	0	3	0
104	729	10	10000	3	1	0	3	0
100	730	10	10000	3	1	0	3	0
97	731	10	10000	3	1	0	3	0
93	732	10	10000	3	1	0	3	0
93	733	10	10000	3	1	0	3	0
94	734	10	10000	3	1	0	3	0
90	735	10	10000	3	1	0	3	0
88	736	10	10000	3	1	0	3	0
84	737	10	10000	3	1	0	3	0
83	738	10	10000	3	1	0	3	0
82	739	10	10000	3	1	0	3	0
78	740	10	10000	3	1	0	3	0
76	752	10	10000	3	1	0	3	0
76	753	10	10000	3	1	0	3	0
74	754	10	10000	3	1	0	3	0
71	755	10	10000	3	1	0	3	0
70	756	10	10000	3	1	0	3	0
68	757	10	10000	3	1	0	3	0
68	758	10	10000	3	1	0	3	0
72	759	10	10000	3	1	0	3	0
79	760	10	10000	3	1	0	3	0
79	761	10	10000	3	1	0	3	0
82	762	10	10000	3	1	0	3	0
80	763	10	10000	3	1	0	3	0
81	760	10	10000	3	1	0	3	0
84	761	10	10000	3	1	0	3	0
86	762	10	10000	3	1	0	3	0
85	763	10	10000	3	1	0	3	0
83	764	10	10000	3	1	0	3	0
81	765	10	10000	3	1	0	3	0
78	766	10	10000	3	1	0	3	0
75	767	10	10000	3	1	0	3	0
73	769	10	10000	3	1	0	3	0
72	770	10	10000	3	1	0	3	0
72	771	10	10000	3	1	0	3	0
73	772	10	10000	3	1	0	3	0
72	773	10	10000	3	1	0	3	0
75	774	10	10000	3	1	0	3	0
80	775	10	10000	3	1	0	3	0
78	776	10	10000	3	1	0	3	0
77	777	10	10000	3	1	0	3	0
75	778	10	10000	3	1	0	3	0
72	776	10	10000	3	1	0	3	0
69	777	10	10000	3	1	0	3	0
67	778	10	10000	3	1	0	3	0
66	779	10	10000	3	1	0	3	0
65	780	10	10000	3	1	0	3	0
67	781	10	10000	3	1	0	3	0
73	780	10	10000	3	1	0	3	0
78	781	10	10000	3	1	0	3	0
85	782	10	10000	3	1	0	3	0
85	783	10	10000	3	1	0	3	0
95	787	10	10000	3	1	0	3	0
106	788	10	10000	3	1	0	3	0
115	789	10	10000	3	1	0	3	0
117	790	10	10000	3	1	0	3	0
116	791	10	10000	3	1	0	3	0
112	792	10	10000	3	1	0	3	0
109	793	10	10000	3	1	0	3	0
106	794	10	10000	3	1	0	3	0
103	791	10	10000	3	1	0	3	0
100	792	10	10000	3	1	0	3	0
97	793	10	10000	3	1	0	3	0
95	794	10	10000	3	1	0	3	0
93	799	10	10000	3	1	0	3	0
94	800	10	10000	3	1	0	3	0
101	801	10	10000	3	1	0	3	0
102	802	10	10000	3	1	0	3	0
102	803	10	10000	3	1	0	3	0
104	804	10	10000	3	1	0	3	0
107	805	10	10000	3	1	0	3	0
112	806	10	10000	3	1	0	3	0
114	803	10	10000	3	1	0	3	0
112	804	10	10000	3	1	0	3	0
118	805	10	10000	3	1	0	3	0
122	806	10	10000	3	1	0	3	0
118	809	10	10000	3	1	0	3	0
115	810	10	10000	3	1	0	3	0
113	811	10	10000	3	1	0	3	0
119	812	10	10000	3	1	0	3	0
129	813	10	10000	3	1	0	3	0
139	814	10	10000	3	1	0	3	0
140	815	10	10000	3	1	0	3	0
139	816	10	10000	3	1	0	3	0
144	817	10	10000	3	1	0	3	0
143	818	10	10000	3	1	0	3	0
140	819	10	10000	3	1	0	3	0
138	820	10	10000	3	1	0	3	0
143	820	10	10000	3	1	0	3	0
153	821	10	10000	3	1	0	3	0
160	822	10	10000	3	1	0	3	0
171	823	10	10000	3	1	0	3	0
183	826	10	10000	3	1	0	3	0
180	827	10	10000	3	1	0	3	0
187	828	10	10000	3	1	0	3	0
195	829	10	10000	3	1	0	3	0
196	830	10	10000	3	1	0	3	0
192	831	10	10000	3	1	0	3	0
186	832	10	10000	3	1	0	3	0
180	833	10	10000	3	1	0	3	0
173	829	10	10000	3	1	0	3	0
170	830	10	10000	3	1	0	3	0
165	831	10	10000	3	1	0	3	0
159	832	10	10000	3	1	0	3	0
154	833	10	10000	3	1	0	3	0
149	834	10	10000	3	1	0	3	0
144	835	10	10000	3	1	0	3	0
139	836	10	10000	3	1	0	3	0
134	837	10	10000	3	1	0	3	0
130	838	10	10000	3	1	0	3	0
127	839	10	10000	3	1	0	3	0
121	840	10	10000	3	1	0	3	0
118	841	10	10000	3	1	0	3	0
114	842	10	10000	3	1	0	3	0
112	843	10	10000	3	1	0	3	0
118	844	10	10000	3	1	0	3	0
124	845	10	10000	3	1	0	3	0
122	846	10	10000	3	1	0	3	0
118	847	10	10000	3	1	0	3	0
116	848	10	10000	3	1	0	3	0
118	849	10	10000	3	1	0	3	0
120	850	10	10000	3	1	0	3	0
119	851	10	10000	3	1	0	3	0
115	852	10	10000	3	1	0	3	0
110	853	10	10000	3	1	0	3	0
110	854	10	10000	3	1	0	3	0
109	855	10	10000	3	1	0	3	0
107	856	10	10000	3	1	0	3	0
106	857	10	10000	3	1	0	3	0
104	858	10	10000	3	1	0	3	0
105	859	10	10000	3	1	0	3	0
104	860	10	10000	3	1	0	3	0
100	861	10	10000	3	1	0	3	0
100	862	10	10000	3	1	0	3	0
97	863	10	10000	3	1	0	3	0
95	864	10	10000	3	1	0	3	0
97	865	10	10000	3	1	0	3	0
98	866	10	10000	3	1	0	3	0
98	867	10	10000	3	1	0	3	0
100	868	10	10000	3	1	0	3	0
100	869	10	10000	3	1	0	3	0
98	870	10	10000	3	1	0	3	0
95	871	10	10000	3	1	0	3	0
91	872	10	10000	3	1	0	3	0
88	873	10	10000	3	1	0	3	0
94	874	10	10000	3	1	0	3	0
97	875	10	10000	3	1	0	3	0
94	876	10	10000	3	1	0	3	0
91	877	10	10000	3	1	0	3	0
92	878	10	10000	3	1	0	3	0
96	879	10	10000	3	1	0	3	0
101	880	10	10000	3	1	0	3	0
110	881	10	10000	3	1	0	3	0
117	882	10	10000	3	1	0	3	0
114	883	10	10000	3	1	0	3	0
114	884	10	10000	3	1	0	3	0
123	885	10	10000	3	1	0	3	0
129	886	10	10000	3	1	0	3	0
131	887	10	10000	3	1	0	3	0
128	888	10	10000	3	1	0	3	0
132	889	10	10000	3	1	0	3	0
138	890	10	10000	3	1	0	3	0
135	891	10	10000	3	1	0	3	0
130	892	10	10000	3	1	0	3	0
130	893	10	10000	3	1	0	3	0
132	894	10	10000	3	1	0	3	0
134	895	10	10000	3	1	0	3	0
128	896	10	10000	3	1	0	3	0
123	897	10	10000	3	1	0	3	0
121	898	10	10000	3	1	0	3	0
127	899	10	10000	3	1	0	3	0
130	900	10	10000	3	1	0	3	0
127	901	10	10000	3	1	0	3	0
121	902	10	10000	3	1	0	3	0
116	903	10	10000	3	1	0	3	0
111	904	10	10000	3	1	0	3	0
110	905	10	10000	3	1	0	3	0
116	906	10	10000	3	1	0	3	0
118	907	10	10000	3	1	0	3	0
115	908	10	10000	3	1	0	3	0
111	909	10	10000	3	1	0	3	0
109	910	10	10000	3	1	0	3	0
106	911	10	10000	3	1	0	3	0
104	912	10	10000	3	1	0	3	0
106	913	10	10000	3	1	0	3	0
110	914	10	10000	3	1	0	3	0
114	915	10	10000	3	1	0	3	0
113	916	10	10000	3	1	0	3	0
111	917	10	10000	3	1	0	3	0
113	918	10	10000	3	1	0	3	0
116	919	10	10000	3	1	0	3	0
118	920	10	10000	3	1	0	3	0
117	921	10	10000	3	1	0	3	0
116	922	10	10000	3	1	0	3	0
113	923	10	10000	3	1	0	3	0
108	924	10	10000	3	1	0	3	0
109	925	10	10000	3	1	0	3	0
113	926	10	10000	3	1	0	3	0
109	927	10	10000	3	1	0	3	0
105	928	10	10000	3	1	0	3	0
102	929	10	10000	3	1	0	3	0
99	930	10	10000	3	1	0	3	0
101	931	10	10000	3	1	0	3	0
98	932	10	10000	3	1	0	3	0
110	933	10	10000	3	1	0	3	0
127	934	10	10000	3	1	0	3	0
132	935	10	10000	3	1	0	3	0
136	936	10	10000	3	1	0	3	0
144	937	10	10000	3	1	0	3	0
144	938	10	10000	3	1	0	3	0
142	939	10	10000	3	1	0	3	0
141	940	10	10000	3	1	0	3	0
142	941	10	10000	3	1	0	3	0
145	942	10	10000	3	1	0	3	0
143	943	10	10000	3	1	0	3	0
140	944	10	10000	3	1	0	3	0
140	945	10	10000	3	1	0	3	0
144	946	10	10000	3	1	0	3	0
142	947	10	10000	3	1	0	3	0
138	948	10	10000	3	1	0	3	0
135	949	10	10000	3	1	0	3	0
134	950	10	10000	3	1	0	3	0
129	951	10	10000	3	1	0	3	0
123	952	10	10000	3	1	0	3	0
118	953	10	10000	3	1	0	3	0
115	954	10	10000	3	1	0	3	0
110	955	10	10000	3	1	0	3	0
108	956	10	10000	3	1	0	3	0
103	957	10	10000	3	1	0	3	0
100	958	10	10000	3	1	0	3	0
99	959	10	10000	3	1	0	3	0
95	960	10	10000	3	1	0	3	0
97	961	10	10000	3	1	0	3	0
95	962	10	10000	3	1	0	3	0
93	963	10	10000	3	1	0	3	0
89	964	10	10000	3	1	0	3	0
84	965	10	10000	3	1	0	3	0
85	966	10	10000	3	1	0	3	0
83	967	10	10000	3	1	0	3	0
79	968	10	10000	3	1	0	3	0
78	969	10	10000	3	1	0	3	0
81	970	10	10000	3	1	0	3	0
81	971	10	10000	3	1	0	3	0
78	972	10	10000	3	1	0	3	0
74	973	10	10000	3	1	0	3	0
71	974	10	10000	3	1	0	3	0
70	975	10	10000	3	1	0	3	0
68	976	10	10000	3	1	0	3	0
66	977	10	10000	3	1	0	3	0
64	978	10	10000	3	1	0	3	0
68	979	10	10000	3	1	0	3	0
66	980	10	10000	3	1	0	3	0
69	981	10	10000	3	1	0	3	0
74	982	10	10000	3	1	0	3	0
80	983	10	10000	3	1	0	3	0
82	984	10	10000	3	1	0	3	0
81	985	10	10000	3	1	0	3	0
78	986	10	10000	3	1	0	3	0
79	987	10	10000	3	1	0	3	0
80	988	10	10000	3	1	0	3	0
79	989	10	10000	3	1	0	3	0
76	990	10	10000	3	1	0	3	0
74	991	10	10000	3	1	0	3	0
72	992	10	10000	3	1	0	3	0
69	993	10	10000	3	1	0	3	0
72	994	10	10000	3	1	0	3	0
76	995	10	10000	3	1	0	3	0
75	996	10	10000	3	1	0	3	0
79	997	10	10000	3	1	0	3	0
82	998	10	10000	3	1	0	3	0
82	999	10	10000	3	1	0	3	0
80	1000	10	10000	3	1	0	3	0
45	2	10	10000	4	1	0	4	0
47	3	10	10000	4	1	0	4	0
49	4	10	10000	4	1	0	4	0
48	5	10	10000	4	1	0	4	0
47	6	10	10000	4	1	0	4	0
47	7	10	10000	4	1	0	4	0
45	8	10	10000	4	1	0	4	0
44	9	10	10000	4	1	0	4	0
45	10	10	10000	4	1	0	4	0
48	11	10	10000	4	1	0	4	0
50	12	10	10000	4	1	0	4	0
49	13	10	10000	4	1	0	4	0
51	14	10	10000	4	1	0	4	0
55	15	10	10000	4	1	0	4	0
56	16	10	10000	4	1	0	4	0
54	17	10	10000	4	1	0	4	0
53	18	10	10000	4	1	0	4	0
52	19	10	10000	4	1	0	4	0
49	20	10	10000	4	1	0	4	0
47	21	10	10000	4	1	0	4	0
45	21	10	10000	4	1	0	4	0
48	22	10	10000	4	1	0	4	0
48	24	10	10000	4	1	0	4	0
47	25	10	10000	4	1	0	4	0
46	26	10	10000	4	1	0	4	0
46	27	10	10000	4	1	0	4	0
47	28	10	10000	4	1	0	4	0
45	29	10	10000	4	1	0	4	0
46	30	10	10000	4	1	0	4	0
45	31	10	10000	4	1	0	4	0
44	31	10	10000	4	1	0	4	0
43	32	10	10000	4	1	0	4	0
44	34	10	10000	4	1	0	4	0
43	35	10	10000	4	1	0	4	0
46	36	10	10000	4	1	0	4	0
46	37	10	10000	4	1	0	4	0
44	38	10	10000	4	1	0	4	0
45	39	10	10000	4	1	0	4	0
44	40	10	10000	4	1	0	4	0
43	41	10	10000	4	1	0	4	0
43	41	10	10000	4	1	0	4	0
43	42	10	10000	4	1	0	4	0
41	44	10	10000	4	1	0	4	0
41	45	10	10000	4	1	0	4	0
41	46	10	10000	4	1	0	4	0
41	47	10	10000	4	1	0	4	0
43	48	10	10000	4	1	0	4	0
47	49	10	10000	4	1	0	4	0
52	50	10	10000	4	1	0	4	0
50	51	10	10000	4	1	0	4	0
49	51	10	10000	4	1	0	4	0
47	52	10	10000	4	1	0	4	0
47	54	10	10000	4	1	0	4	0
47	55	10	10000	4	1	0	4	0
47	56	10	10000	4	1	0	4	0
53	57	10	10000	4	1	0	4	0
56	58	10	10000	4	1	0	4	0
56	59	10	10000	4	1	0	4	0
54	60	10	10000	4	1	0	4	0
53	61	10	10000	4	1	0	4	0
50	61	10	10000	4	1	0	4	0
52	62	10	10000	4	1	0	4	0
51	64	10	10000	4	1	0	4	0
51	65	10	10000	4	1	0	4	0
48	66	10	10000	4	1	0	4	0
47	67	10	10000	4	1	0	4	0
48	68	10	10000	4	1	0	4	0
48	69	10	10000	4	1	0	4	0
49	70	10	10000	4	1	0	4	0
50	71	10	10000	4	1	0	4	0
51	71	10	10000	4	1	0	4	0
47	72	10	10000	4	1	0	4	0
46	74	10	10000	4	1	0	4	0
45	75	10	10000	4	1	0	4	0
44	76	10	10000	4	1	0	4	0
42	77	10	10000	4	1	0	4	0
41	78	10	10000	4	1	0	4	0
42	79	10	10000	4	1	0	4	0
42	80	10	10000	4	1	0	4	0
41	81	10	10000	4	1	0	4	0
43	81	10	10000	4	1	0	4	0
44	82	10	10000	4	1	0	4	0
43	84	10	10000	4	1	0	4	0
43	85	10	10000	4	1	0	4	0
45	86	10	10000	4	1	0	4	0
45	87	10	10000	4	1	0	4	0
46	88	10	10000	4	1	0	4	0
44	89	10	10000	4	1	0	4	0
45	90	10	10000	4	1	0	4	0
47	91	10	10000	4	1	0	4	0
47	91	10	10000	4	1	0	4	0
48	92	10	10000	4	1	0	4	0
50	94	10	10000	4	1	0	4	0
51	95	10	10000	4	1	0	4	0
53	96	10	10000	4	1	0	4	0
51	97	10	10000	4	1	0	4	0
51	98	10	10000	4	1	0	4	0
49	99	10	10000	4	1	0	4	0
48	100	10	10000	4	1	0	4	0
46	101	10	10000	4	1	0	4	0
49	101	10	10000	4	1	0	4	0
49	102	10	10000	4	1	0	4	0
48	104	10	10000	4	1	0	4	0
46	105	10	10000	4	1	0	4	0
44	106	10	10000	4	1	0	4	0
44	107	10	10000	4	1	0	4	0
42	108	10	10000	4	1	0	4	0
41	109	10	10000	4	1	0	4	0
40	110	10	10000	4	1	0	4	0
41	111	10	10000	4	1	0	4	0
43	111	10	10000	4	1	0	4	0
44	112	10	10000	4	1	0	4	0
43	114	10	10000	4	1	0	4	0
41	115	10	10000	4	1	0	4	0
44	116	10	10000	4	1	0	4	0
42	117	10	10000	4	1	0	4	0
40	118	10	10000	4	1	0	4	0
40	119	10	10000	4	1	0	4	0
38	120	10	10000	4	1	0	4	0
38	121	10	10000	4	1	0	4	0
39	121	10	10000	4	1	0	4	0
40	122	10	10000	4	1	0	4	0
40	124	10	10000	4	1	0	4	0
40	125	10	10000	4	1	0	4	0
41	126	10	10000	4	1	0	4	0
41	127	10	10000	4	1	0	4	0
39	128	10	10000	4	1	0	4	0
39	129	10	10000	4	1	0	4	0
40	130	10	10000	4	1	0	4	0
41	131	10	10000	4	1	0	4	0
41	131	10	10000	4	1	0	4	0
39	132	10	10000	4	1	0	4	0
42	134	10	10000	4	1	0	4	0
40	135	10	10000	4	1	0	4	0
42	136	10	10000	4	1	0	4	0
42	137	10	10000	4	1	0	4	0
40	138	10	10000	4	1	0	4	0
41	139	10	10000	4	1	0	4	0
41	140	10	10000	4	1	0	4	0
39	141	10	10000	4	1	0	4	0
38	141	10	10000	4	1	0	4	0
39	142	10	10000	4	1	0	4	0
42	144	10	10000	4	1	0	4	0
47	145	10	10000	4	1	0	4	0
45	146	10	10000	4	1	0	4	0
44	147	10	10000	4	1	0	4	0
44	148	10	10000	4	1	0	4	0
46	149	10	10000	4	1	0	4	0
46	150	10	10000	4	1	0	4	0
45	151	10	10000	4	1	0	4	0
48	151	10	10000	4	1	0	4	0
49	152	10	10000	4	1	0	4	0
51	154	10	10000	4	1	0	4	0
52	155	10	10000	4	1	0	4	0
56	156	10	10000	4	1	0	4	0
56	157	10	10000	4	1	0	4	0
54	158	10	10000	4	1	0	4	0
53	159	10	10000	4	1	0	4	0
54	160	10	10000	4	1	0	4	0
52	161	10	10000	4	1	0	4	0
51	161	10	10000	4	1	0	4	0
54	162	10	10000	4	1	0	4	0
56	164	10	10000	4	1	0	4	0
56	165	10	10000	4	1	0	4	0
55	166	10	10000	4	1	0	4	0
54	167	10	10000	4	1	0	4	0
54	168	10	10000	4	1	0	4	0
54	169	10	10000	4	1	0	4	0
54	170	10	10000	4	1	0	4	0
52	171	10	10000	4	1	0	4	0
51	171	10	10000	4	1	0	4	0
47	172	10	10000	4	1	0	4	0
48	174	10	10000	4	1	0	4	0
50	175	10	10000	4	1	0	4	0
51	176	10	10000	4	1	0	4	0
52	177	10	10000	4	1	0	4	0
55	178	10	10000	4	1	0	4	0
53	179	10	10000	4	1	0	4	0
51	180	10	10000	4	1	0	4	0
49	181	10	10000	4	1	0	4	0
47	181	10	10000	4	1	0	4	0
47	182	10	10000	4	1	0	4	0
45	184	10	10000	4	1	0	4	0
46	185	10	10000	4	1	0	4	0
47	186	10	10000	4	1	0	4	0
46	187	10	10000	4	1	0	4	0
47	188	10	10000	4	1	0	4	0
45	189	10	10000	4	1	0	4	0
45	190	10	10000	4	1	0	4	0
47	191	10	10000	4	1	0	4	0
47	191	10	10000	4	1	0	4	0
46	192	10	10000	4	1	0	4	0
45	194	10	10000	4	1	0	4	0
44	195	10	10000	4	1	0	4	0
43	196	10	10000	4	1	0	4	0
42	197	10	10000	4	1	0	4	0
42	198	10	10000	4	1	0	4	0
46	199	10	10000	4	1	0	4	0
47	200	10	10000	4	1	0	4	0
46	201	10	10000	4	1	0	4	0
44	201	10	10000	4	1	0	4	0
45	202	10	10000	4	1	0	4	0
43	204	10	10000	4	1	0	4	0
42	205	10	10000	4	1	0	4	0
41	206	10	10000	4	1	0	4	0
42	207	10	10000	4	1	0	4	0
44	208	10	10000	4	1	0	4	0
43	209	10	10000	4	1	0	4	0
46	210	10	10000	4	1	0	4	0
46	211	10	10000	4	1	0	4	0
45	211	10	10000	4	1	0	4	0
42	212	10	10000	4	1	0	4	0
41	214	10	10000	4	1	0	4	0
40	215	10	10000	4	1	0	4	0
40	216	10	10000	4	1	0	4	0
40	217	10	10000	4	1	0	4	0
39	218	10	10000	4	1	0	4	0
38	219	10	10000	4	1	0	4	0
40	220	10	10000	4	1	0	4	0
43	221	10	10000	4	1	0	4	0
41	221	10	10000	4	1	0	4	0
43	222	10	10000	4	1	0	4	0
41	224	10	10000	4	1	0	4	0
39	225	10	10000	4	1	0	4	0
40	226	10	10000	4	1	0	4	0
40	227	10	10000	4	1	0	4	0
38	228	10	10000	4	1	0	4	0
39	229	10	10000	4	1	0	4	0
39	230	10	10000	4	1	0	4	0
40	231	10	10000	4	1	0	4	0
39	231	10	10000	4	1	0	4	0
36	232	10	10000	4	1	0	4	0
36	234	10	10000	4	1	0	4	0
35	235	10	10000	4	1	0	4	0
35	236	10	10000	4	1	0	4	0
36	237	10	10000	4	1	0	4	0
35	238	10	10000	4	1	0	4	0
35	239	10	10000	4	1	0	4	0
35	240	10	10000	4	1	0	4	0
34	241	10	10000	4	1	0	4	0
35	241	10	10000	4	1	0	4	0
35	242	10	10000	4	1	0	4	0
35	244	10	10000	4	1	0	4	0
34	245	10	10000	4	1	0	4	0
34	246	10	10000	4	1	0	4	0
35	247	10	10000	4	1	0	4	0
34	248	10	10000	4	1	0	4	0
34	249	10	10000	4	1	0	4	0
35	250	10	10000	4	1	0	4	0
38	251	10	10000	4	1	0	4	0
42	251	10	10000	4	1	0	4	0
39	252	10	10000	4	1	0	4	0
39	254	10	10000	4	1	0	4	0
39	255	10	10000	4	1	0	4	0
40	256	10	10000	4	1	0	4	0
44	257	10	10000	4	1	0	4	0
42	258	10	10000	4	1	0	4	0
41	259	10	10000	4	1	0	4	0
39	260	10	10000	4	1	0	4	0
38	261	10	10000	4	1	0	4	0
39	261	10	10000	4	1	0	4	0
40	262	10	10000	4	1	0	4	0
40	264	10	10000	4	1	0	4	0
38	265	10	10000	4	1	0	4	0
37	266	10	10000	4	1	0	4	0
36	267	10	10000	4	1	0	4	0
35	268	10	10000	4	1	0	4	0
35	269	10	10000	4	1	0	4	0
36	270	10	10000	4	1	0	4	0
35	271	10	10000	4	1	0	4	0
37	271	10	10000	4	1	0	4	0
37	272	10	10000	4	1	0	4	0
36	274	10	10000	4	1	0	4	0
37	275	10	10000	4	1	0	4	0
36	276	10	10000	4	1	0	4	0
36	277	10	10000	4	1	0	4	0
37	278	10	10000	4	1	0	4	0
35	279	10	10000	4	1	0	4	0
37	280	10	10000	4	1	0	4	0
37	281	10	10000	4	1	0	4	0
38	281	10	10000	4	1	0	4	0
42	282	10	10000	4	1	0	4	0
41	284	10	10000	4	1	0	4	0
40	285	10	10000	4	1	0	4	0
38	286	10	10000	4	1	0	4	0
38	287	10	10000	4	1	0	4	0
36	288	10	10000	4	1	0	4	0
35	289	10	10000	4	1	0	4	0
35	290	10	10000	4	1	0	4	0
39	291	10	10000	4	1	0	4	0
41	291	10	10000	4	1	0	4	0
39	292	10	10000	4	1	0	4	0
40	294	10	10000	4	1	0	4	0
39	295	10	10000	4	1	0	4	0
40	296	10	10000	4	1	0	4	0
40	297	10	10000	4	1	0	4	0
40	298	10	10000	4	1	0	4	0
39	299	10	10000	4	1	0	4	0
36	300	10	10000	4	1	0	4	0
37	301	10	10000	4	1	0	4	0
39	301	10	10000	4	1	0	4	0
43	302	10	10000	4	1	0	4	0
42	304	10	10000	4	1	0	4	0
41	305	10	10000	4	1	0	4	0
41	306	10	10000	4	1	0	4	0
43	307	10	10000	4	1	0	4	0
43	308	10	10000	4	1	0	4	0
42	309	10	10000	4	1	0	4	0
42	310	10	10000	4	1	0	4	0
41	311	10	10000	4	1	0	4	0
40	311	10	10000	4	1	0	4	0
37	312	10	10000	4	1	0	4	0
41	314	10	10000	4	1	0	4	0
44	315	10	10000	4	1	0	4	0
44	316	10	10000	4	1	0	4	0
42	317	10	10000	4	1	0	4	0
41	318	10	10000	4	1	0	4	0
41	319	10	10000	4	1	0	4	0
39	320	10	10000	4	1	0	4	0
40	321	10	10000	4	1	0	4	0
38	321	10	10000	4	1	0	4	0
39	322	10	10000	4	1	0	4	0
41	324	10	10000	4	1	0	4	0
46	325	10	10000	4	1	0	4	0
47	326	10	10000	4	1	0	4	0
45	327	10	10000	4	1	0	4	0
44	328	10	10000	4	1	0	4	0
43	329	10	10000	4	1	0	4	0
42	330	10	10000	4	1	0	4	0
41	331	10	10000	4	1	0	4	0
41	331	10	10000	4	1	0	4	0
40	332	10	10000	4	1	0	4	0
42	334	10	10000	4	1	0	4	0
44	335	10	10000	4	1	0	4	0
44	336	10	10000	4	1	0	4	0
43	337	10	10000	4	1	0	4	0
44	338	10	10000	4	1	0	4	0
44	339	10	10000	4	1	0	4	0
42	340	10	10000	4	1	0	4	0
40	341	10	10000	4	1	0	4	0
39	341	10	10000	4	1	0	4	0
40	342	10	10000	4	1	0	4	0
41	344	10	10000	4	1	0	4	0
41	345	10	10000	4	1	0	4	0
41	346	10	10000	4	1	0	4	0
41	347	10	10000	4	1	0	4	0
40	348	10	10000	4	1	0	4	0
37	349	10	10000	4	1	0	4	0
36	350	10	10000	4	1	0	4	0
37	351	10	10000	4	1	0	4	0
39	351	10	10000	4	1	0	4	0
38	352	10	10000	4	1	0	4	0
40	354	10	10000	4	1	0	4	0
44	355	10	10000	4	1	0	4	0
43	356	10	10000	4	1	0	4	0
44	357	10	10000	4	1	0	4	0
42	358	10	10000	4	1	0	4	0
42	359	10	10000	4	1	0	4	0
40	360	10	10000	4	1	0	4	0
40	361	10	10000	4	1	0	4	0
38	361	10	10000	4	1	0	4	0
39	362	10	10000	4	1	0	4	0
38	364	10	10000	4	1	0	4	0
36	365	10	10000	4	1	0	4	0
35	366	10	10000	4	1	0	4	0
38	367	10	10000	4	1	0	4	0
39	368	10	10000	4	1	0	4	0
38	369	10	10000	4	1	0	4	0
37	370	10	10000	4	1	0	4	0
36	371	10	10000	4	1	0	4	0
35	371	10	10000	4	1	0	4	0
33	372	10	10000	4	1	0	4	0
34	374	10	10000	4	1	0	4	0
34	375	10	10000	4	1	0	4	0
34	376	10	10000	4	1	0	4	0
34	377	10	10000	4	1	0	4	0
37	378	10	10000	4	1	0	4	0
40	379	10	10000	4	1	0	4	0
39	380	10	10000	4	1	0	4	0
39	381	10	10000	4	1	0	4	0
38	381	10	10000	4	1	0	4	0
39	382	10	10000	4	1	0	4	0
38	384	10	10000	4	1	0	4	0
38	385	10	10000	4	1	0	4	0
38	386	10	10000	4	1	0	4	0
38	387	10	10000	4	1	0	4	0
38	388	10	10000	4	1	0	4	0
40	389	10	10000	4	1	0	4	0
40	390	10	10000	4	1	0	4	0
40	391	10	10000	4	1	0	4	0
40	391	10	10000	4	1	0	4	0
36	392	10	10000	4	1	0	4	0
36	394	10	10000	4	1	0	4	0
35	395	10	10000	4	1	0	4	0
36	396	10	10000	4	1	0	4	0
35	397	10	10000	4	1	0	4	0
37	398	10	10000	4	1	0	4	0
36	399	10	10000	4	1	0	4	0
37	400	10	10000	4	1	0	4	0
36	401	10	10000	4	1	0	4	0
37	401	10	10000	4	1	0	4	0
41	402	10	10000	4	1	0	4	0
39	404	10	10000	4	1	0	4	0
39	405	10	10000	4	1	0	4	0
39	406	10	10000	4	1	0	4	0
38	407	10	10000	4	1	0	4	0
38	408	10	10000	4	1	0	4	0
39	409	10	10000	4	1	0	4	0
40	410	10	10000	4	1	0	4	0
40	411	10	10000	4	1	0	4	0
40	411	10	10000	4	1	0	4	0
38	412	10	10000	4	1	0	4	0
37	414	10	10000	4	1	0	4	0
36	415	10	10000	4	1	0	4	0
37	416	10	10000	4	1	0	4	0
36	417	10	10000	4	1	0	4	0
35	418	10	10000	4	1	0	4	0
34	419	10	10000	4	1	0	4	0
32	420	10	10000	4	1	0	4	0
36	421	10	10000	4	1	0	4	0
36	421	10	10000	4	1	0	4	0
38	422	10	10000	4	1	0	4	0
39	424	10	10000	4	1	0	4	0
37	425	10	10000	4	1	0	4	0
37	426	10	10000	4	1	0	4	0
36	427	10	10000	4	1	0	4	0
34	428	10	10000	4	1	0	4	0
33	429	10	10000	4	1	0	4	0
33	430	10	10000	4	1	0	4	0
34	431	10	10000	4	1	0	4	0
39	431	10	10000	4	1	0	4	0
36	432	10	10000	4	1	0	4	0
36	434	10	10000	4	1	0	4	0
35	435	10	10000	4	1	0	4	0
34	436	10	10000	4	1	0	4	0
33	437	10	10000	4	1	0	4	0
34	438	10	10000	4	1	0	4	0
34	439	10	10000	4	1	0	4	0
32	440	10	10000	4	1	0	4	0
31	441	10	10000	4	1	0	4	0
32	441	10	10000	4	1	0	4	0
33	442	10	10000	4	1	0	4	0
34	444	10	10000	4	1	0	4	0
33	445	10	10000	4	1	0	4	0
35	446	10	10000	4	1	0	4	0
37	447	10	10000	4	1	0	4	0
36	448	10	10000	4	1	0	4	0
36	449	10	10000	4	1	0	4	0
36	450	10	10000	4	1	0	4	0
38	451	10	10000	4	1	0	4	0
38	451	10	10000	4	1	0	4	0
37	452	10	10000	4	1	0	4	0
36	454	10	10000	4	1	0	4	0
41	455	10	10000	4	1	0	4	0
45	456	10	10000	4	1	0	4	0
47	457	10	10000	4	1	0	4	0
47	458	10	10000	4	1	0	4	0
47	459	10	10000	4	1	0	4	0
45	460	10	10000	4	1	0	4	0
43	461	10	10000	4	1	0	4	0
42	461	10	10000	4	1	0	4	0
44	462	10	10000	4	1	0	4	0
47	464	10	10000	4	1	0	4	0
46	465	10	10000	4	1	0	4	0
44	466	10	10000	4	1	0	4	0
42	467	10	10000	4	1	0	4	0
41	468	10	10000	4	1	0	4	0
40	469	10	10000	4	1	0	4	0
40	470	10	10000	4	1	0	4	0
39	471	10	10000	4	1	0	4	0
41	471	10	10000	4	1	0	4	0
41	472	10	10000	4	1	0	4	0
41	474	10	10000	4	1	0	4	0
43	475	10	10000	4	1	0	4	0
41	476	10	10000	4	1	0	4	0
40	477	10	10000	4	1	0	4	0
39	478	10	10000	4	1	0	4	0
40	479	10	10000	4	1	0	4	0
39	480	10	10000	4	1	0	4	0
39	481	10	10000	4	1	0	4	0
38	481	10	10000	4	1	0	4	0
40	482	10	10000	4	1	0	4	0
39	484	10	10000	4	1	0	4	0
41	485	10	10000	4	1	0	4	0
40	486	10	10000	4	1	0	4	0
39	487	10	10000	4	1	0	4	0
41	488	10	10000	4	1	0	4	0
43	489	10	10000	4	1	0	4	0
44	490	10	10000	4	1	0	4	0
45	491	10	10000	4	1	0	4	0
44	491	10	10000	4	1	0	4	0
42	492	10	10000	4	1	0	4	0
44	494	10	10000	4	1	0	4	0
44	495	10	10000	4	1	0	4	0
46	496	10	10000	4	1	0	4	0
46	497	10	10000	4	1	0	4	0
46	498	10	10000	4	1	0	4	0
46	499	10	10000	4	1	0	4	0
47	500	10	10000	4	1	0	4	0
48	501	10	10000	4	1	0	4	0
47	502	10	10000	4	1	0	4	1
50	503	10	10000	4	1	0	4	1
49	504	10	10000	4	1	0	4	1
48	505	10	10000	4	1	0	4	1
50	506	10	10000	4	1	0	4	1
53	507	10	10000	4	1	0	4	1
54	508	10	10000	4	1	0	4	1
53	509	10	10000	4	1	0	4	1
52	510	10	10000	4	1	0	4	1
52	511	10	10000	4	1	0	4	1
51	511	10	10000	4	1	0	4	1
48	512	10	10000	4	1	0	4	1
47	514	10	10000	4	1	0	4	1
45	515	10	10000	4	1	0	4	1
45	516	10	10000	4	1	0	4	1
45	517	10	10000	4	1	0	4	1
47	518	10	10000	4	1	0	4	1
46	519	10	10000	4	1	0	4	1
46	520	10	10000	4	1	0	4	1
46	521	10	10000	4	1	0	4	1
44	521	10	10000	4	1	0	4	1
46	522	10	10000	4	1	0	4	1
46	524	10	10000	4	1	0	4	1
47	525	10	10000	4	1	0	4	1
47	526	10	10000	4	1	0	4	1
47	527	10	10000	4	1	0	4	1
46	528	10	10000	4	1	0	4	1
48	529	10	10000	4	1	0	4	1
48	530	10	10000	4	1	0	4	1
48	531	10	10000	4	1	0	4	1
47	531	10	10000	4	1	0	4	1
44	532	10	10000	4	1	0	4	1
45	534	10	10000	4	1	0	4	1
45	535	10	10000	4	1	0	4	1
48	536	10	10000	4	1	0	4	1
48	537	10	10000	4	1	0	4	1
47	538	10	10000	4	1	0	4	1
50	539	10	10000	4	1	0	4	1
49	540	10	10000	4	1	0	4	1
48	541	10	10000	4	1	0	4	1
47	541	10	10000	4	1	0	4	1
48	542	10	10000	4	1	0	4	1
47	544	10	10000	4	1	0	4	1
44	545	10	10000	4	1	0	4	1
43	546	10	10000	4	1	0	4	1
42	547	10	10000	4	1	0	4	1
42	548	10	10000	4	1	0	4	1
41	549	10	10000	4	1	0	4	1
41	550	10	10000	4	1	0	4	1
41	551	10	10000	4	1	0	4	1
41	551	10	10000	4	1	0	4	0
38	552	10	10000	4	1	0	4	0
39	554	10	10000	4	1	0	4	0
40	555	10	10000	4	1	0	4	0
40	556	10	10000	4	1	0	4	0
40	557	10	10000	4	1	0	4	0
40	558	10	10000	4	1	0	4	0
40	559	10	10000	4	1	0	4	0
40	560	10	10000	4	1	0	4	0
42	561	10	10000	4	1	0	4	0
45	561	10	10000	4	1	0	4	0
45	562	10	10000	4	1	0	4	0
45	564	10	10000	4	1	0	4	0
44	565	10	10000	4	1	0	4	0
44	566	10	10000	4	1	0	4	0
45	567	10	10000	4	1	0	4	0
44	568	10	10000	4	1	0	4	0
46	569	10	10000	4	1	0	4	0
46	570	10	10000	4	1	0	4	0
46	571	10	10000	4	1	0	4	0
48	571	10	10000	4	1	0	4	0
45	572	10	10000	4	1	0	4	0
45	574	10	10000	4	1	0	4	0
46	575	10	10000	4	1	0	4	0
45	576	10	10000	4	1	0	4	0
43	577	10	10000	4	1	0	4	0
42	578	10	10000	4	1	0	4	0
41	579	10	10000	4	1	0	4	0
41	580	10	10000	4	1	0	4	0
40	581	10	10000	4	1	0	4	0
39	581	10	10000	4	1	0	4	0
43	582	10	10000	4	1	0	4	0
43	584	10	10000	4	1	0	4	0
42	585	10	10000	4	1	0	4	0
40	586	10	10000	4	1	0	4	0
39	587	10	10000	4	1	0	4	0
38	588	10	10000	4	1	0	4	0
37	589	10	10000	4	1	0	4	0
36	590	10	10000	4	1	0	4	0
37	591	10	10000	4	1	0	4	0
38	591	10	10000	4	1	0	4	0
37	592	10	10000	4	1	0	4	0
39	594	10	10000	4	1	0	4	0
41	595	10	10000	4	1	0	4	0
40	596	10	10000	4	1	0	4	0
42	597	10	10000	4	1	0	4	0
44	598	10	10000	4	1	0	4	0
44	599	10	10000	4	1	0	4	0
44	600	10	10000	4	1	0	4	0
44	601	10	10000	4	1	0	4	0
42	601	10	10000	4	1	0	4	0
45	602	10	10000	4	1	0	4	0
46	604	10	10000	4	1	0	4	0
48	605	10	10000	4	1	0	4	0
47	606	10	10000	4	1	0	4	0
47	607	10	10000	4	1	0	4	0
48	608	10	10000	4	1	0	4	0
50	609	10	10000	4	1	0	4	0
53	610	10	10000	4	1	0	4	0
55	611	10	10000	4	1	0	4	0
59	611	10	10000	4	1	0	4	0
62	612	10	10000	4	1	0	4	0
72	614	10	10000	4	1	0	4	0
74	615	10	10000	4	1	0	4	0
78	616	10	10000	4	1	0	4	0
81	617	10	10000	4	1	0	4	0
81	618	10	10000	4	1	0	4	0
78	619	10	10000	4	1	0	4	0
75	620	10	10000	4	1	0	4	0
74	621	10	10000	4	1	0	4	0
70	621	10	10000	4	1	0	4	0
70	622	10	10000	4	1	0	4	0
68	624	10	10000	4	1	0	4	0
65	625	10	10000	4	1	0	4	0
64	626	10	10000	4	1	0	4	0
65	627	10	10000	4	1	0	4	0
65	628	10	10000	4	1	0	4	0
62	629	10	10000	4	1	0	4	0
61	630	10	10000	4	1	0	4	0
58	631	10	10000	4	1	0	4	0
57	631	10	10000	4	1	0	4	0
55	632	10	10000	4	1	0	4	0
53	634	10	10000	4	1	0	4	0
54	635	10	10000	4	1	0	4	0
55	636	10	10000	4	1	0	4	0
55	637	10	10000	4	1	0	4	0
54	638	10	10000	4	1	0	4	0
55	639	10	10000	4	1	0	4	0
52	640	10	10000	4	1	0	4	0
53	641	10	10000	4	1	0	4	0
53	641	10	10000	4	1	0	4	0
54	642	10	10000	4	1	0	4	0
54	644	10	10000	4	1	0	4	0
51	645	10	10000	4	1	0	4	0
50	646	10	10000	4	1	0	4	0
49	647	10	10000	4	1	0	4	0
48	648	10	10000	4	1	0	4	0
50	649	10	10000	4	1	0	4	0
53	650	10	10000	4	1	0	4	0
53	651	10	10000	4	1	0	4	0
53	651	10	10000	4	1	0	4	0
49	652	10	10000	4	1	0	4	0
48	654	10	10000	4	1	0	4	0
47	655	10	10000	4	1	0	4	0
46	656	10	10000	4	1	0	4	0
45	657	10	10000	4	1	0	4	0
44	658	10	10000	4	1	0	4	0
44	659	10	10000	4	1	0	4	0
44	660	10	10000	4	1	0	4	0
44	661	10	10000	4	1	0	4	0
44	661	10	10000	4	1	0	4	0
45	662	10	10000	4	1	0	4	0
43	664	10	10000	4	1	0	4	0
41	665	10	10000	4	1	0	4	0
40	666	10	10000	4	1	0	4	0
40	667	10	10000	4	1	0	4	0
38	668	10	10000	4	1	0	4	0
37	669	10	10000	4	1	0	4	0
37	670	10	10000	4	1	0	4	0
38	671	10	10000	4	1	0	4	0
40	671	10	10000	4	1	0	4	0
37	672	10	10000	4	1	0	4	0
36	674	10	10000	4	1	0	4	0
35	675	10	10000	4	1	0	4	0
35	676	10	10000	4	1	0	4	0
34	677	10	10000	4	1	0	4	0
33	678	10	10000	4	1	0	4	0
33	679	10	10000	4	1	0	4	0
32	680	10	10000	4	1	0	4	0
32	681	10	10000	4	1	0	4	0
32	681	10	10000	4	1	0	4	0
36	682	10	10000	4	1	0	4	0
35	684	10	10000	4	1	0	4	0
34	685	10	10000	4	1	0	4	0
32	686	10	10000	4	1	0	4	0
32	687	10	10000	4	1	0	4	0
35	688	10	10000	4	1	0	4	0
36	689	10	10000	4	1	0	4	0
40	690	10	10000	4	1	0	4	0
43	691	10	10000	4	1	0	4	0
43	691	10	10000	4	1	0	4	0
44	692	10	10000	4	1	0	4	0
47	694	10	10000	4	1	0	4	0
45	695	10	10000	4	1	0	4	0
46	696	10	10000	4	1	0	4	0
45	697	10	10000	4	1	0	4	0
44	698	10	10000	4	1	0	4	0
44	699	10	10000	4	1	0	4	0
42	700	10	10000	4	1	0	4	0
40	701	10	10000	4	1	0	4	0
40	701	10	10000	4	1	0	4	0
41	702	10	10000	4	1	0	4	0
43	704	10	10000	4	1	0	4	0
45	705	10	10000	4	1	0	4	0
44	706	10	10000	4	1	0	4	0
44	707	10	10000	4	1	0	4	0
43	708	10	10000	4	1	0	4	0
42	709	10	10000	4	1	0	4	0
41	710	10	10000	4	1	0	4	0
40	711	10	10000	4	1	0	4	0
40	711	10	10000	4	1	0	4	0
38	712	10	10000	4	1	0	4	0
37	714	10	10000	4	1	0	4	0
41	715	10	10000	4	1	0	4	0
46	716	10	10000	4	1	0	4	0
47	717	10	10000	4	1	0	4	0
46	718	10	10000	4	1	0	4	0
48	719	10	10000	4	1	0	4	0
46	720	10	10000	4	1	0	4	0
46	721	10	10000	4	1	0	4	0
44	721	10	10000	4	1	0	4	0
48	722	10	10000	4	1	0	4	0
52	734	10	10000	4	1	0	4	0
53	735	10	10000	4	1	0	4	0
54	736	10	10000	4	1	0	4	0
53	737	10	10000	4	1	0	4	0
51	738	10	10000	4	1	0	4	0
50	739	10	10000	4	1	0	4	0
50	740	10	10000	4	1	0	4	0
49	741	10	10000	4	1	0	4	0
47	742	10	10000	4	1	0	4	0
45	743	10	10000	4	1	0	4	0
44	744	10	10000	4	1	0	4	0
42	745	10	10000	4	1	0	4	0
42	742	10	10000	4	1	0	4	0
44	743	10	10000	4	1	0	4	0
46	744	10	10000	4	1	0	4	0
46	745	10	10000	4	1	0	4	0
44	746	10	10000	4	1	0	4	0
44	747	10	10000	4	1	0	4	0
50	748	10	10000	4	1	0	4	0
60	749	10	10000	4	1	0	4	0
64	753	10	10000	4	1	0	4	0
66	754	10	10000	4	1	0	4	0
72	755	10	10000	4	1	0	4	0
79	756	10	10000	4	1	0	4	0
80	757	10	10000	4	1	0	4	0
78	758	10	10000	4	1	0	4	0
76	759	10	10000	4	1	0	4	0
76	760	10	10000	4	1	0	4	0
74	761	10	10000	4	1	0	4	0
68	762	10	10000	4	1	0	4	0
67	763	10	10000	4	1	0	4	0
66	764	10	10000	4	1	0	4	0
66	758	10	10000	4	1	0	4	0
66	759	10	10000	4	1	0	4	0
65	760	10	10000	4	1	0	4	0
64	761	10	10000	4	1	0	4	0
65	763	10	10000	4	1	0	4	0
64	764	10	10000	4	1	0	4	0
62	765	10	10000	4	1	0	4	0
61	766	10	10000	4	1	0	4	0
60	767	10	10000	4	1	0	4	0
58	768	10	10000	4	1	0	4	0
57	769	10	10000	4	1	0	4	0
56	770	10	10000	4	1	0	4	0
53	771	10	10000	4	1	0	4	0
52	772	10	10000	4	1	0	4	0
55	773	10	10000	4	1	0	4	0
60	774	10	10000	4	1	0	4	0
61	774	10	10000	4	1	0	4	0
57	775	10	10000	4	1	0	4	0
56	776	10	10000	4	1	0	4	0
56	777	10	10000	4	1	0	4	0
54	779	10	10000	4	1	0	4	0
55	780	10	10000	4	1	0	4	0
55	781	10	10000	4	1	0	4	0
53	782	10	10000	4	1	0	4	0
51	783	10	10000	4	1	0	4	0
52	784	10	10000	4	1	0	4	0
58	786	10	10000	4	1	0	4	0
60	787	10	10000	4	1	0	4	0
62	788	10	10000	4	1	0	4	0
62	789	10	10000	4	1	0	4	0
59	790	10	10000	4	1	0	4	0
59	791	10	10000	4	1	0	4	0
58	790	10	10000	4	1	0	4	0
59	791	10	10000	4	1	0	4	0
63	792	10	10000	4	1	0	4	0
66	793	10	10000	4	1	0	4	0
64	797	10	10000	4	1	0	4	0
62	798	10	10000	4	1	0	4	0
59	799	10	10000	4	1	0	4	0
58	800	10	10000	4	1	0	4	0
57	801	10	10000	4	1	0	4	0
56	802	10	10000	4	1	0	4	0
54	803	10	10000	4	1	0	4	0
55	804	10	10000	4	1	0	4	0
54	801	10	10000	4	1	0	4	0
51	802	10	10000	4	1	0	4	0
50	803	10	10000	4	1	0	4	0
54	804	10	10000	4	1	0	4	0
54	808	10	10000	4	1	0	4	0
52	809	10	10000	4	1	0	4	0
51	810	10	10000	4	1	0	4	0
50	811	10	10000	4	1	0	4	0
49	812	10	10000	4	1	0	4	0
46	813	10	10000	4	1	0	4	0
48	813	10	10000	4	1	0	4	0
48	814	10	10000	4	1	0	4	0
49	815	10	10000	4	1	0	4	0
48	816	10	10000	4	1	0	4	0
49	817	10	10000	4	1	0	4	0
47	818	10	10000	4	1	0	4	0
46	819	10	10000	4	1	0	4	0
45	820	10	10000	4	1	0	4	0
45	821	10	10000	4	1	0	4	0
44	822	10	10000	4	1	0	4	0
46	823	10	10000	4	1	0	4	0
49	824	10	10000	4	1	0	4	0
52	824	10	10000	4	1	0	4	0
57	825	10	10000	4	1	0	4	0
58	826	10	10000	4	1	0	4	0
57	827	10	10000	4	1	0	4	0
56	829	10	10000	4	1	0	4	0
57	830	10	10000	4	1	0	4	0
57	831	10	10000	4	1	0	4	0
56	832	10	10000	4	1	0	4	0
57	833	10	10000	4	1	0	4	0
58	834	10	10000	4	1	0	4	0
60	836	10	10000	4	1	0	4	0
58	837	10	10000	4	1	0	4	0
56	838	10	10000	4	1	0	4	0
56	839	10	10000	4	1	0	4	0
57	840	10	10000	4	1	0	4	0
56	841	10	10000	4	1	0	4	0
56	838	10	10000	4	1	0	4	0
58	839	10	10000	4	1	0	4	0
56	840	10	10000	4	1	0	4	0
54	841	10	10000	4	1	0	4	0
53	842	10	10000	4	1	0	4	0
54	843	10	10000	4	1	0	4	0
55	844	10	10000	4	1	0	4	0
56	845	10	10000	4	1	0	4	0
55	846	10	10000	4	1	0	4	0
54	847	10	10000	4	1	0	4	0
54	848	10	10000	4	1	0	4	0
53	849	10	10000	4	1	0	4	0
51	850	10	10000	4	1	0	4	0
53	851	10	10000	4	1	0	4	0
56	852	10	10000	4	1	0	4	0
58	853	10	10000	4	1	0	4	0
62	854	10	10000	4	1	0	4	0
65	855	10	10000	4	1	0	4	0
69	856	10	10000	4	1	0	4	0
75	857	10	10000	4	1	0	4	0
81	858	10	10000	4	1	0	4	0
85	859	10	10000	4	1	0	4	0
83	860	10	10000	4	1	0	4	0
79	861	10	10000	4	1	0	4	0
78	862	10	10000	4	1	0	4	0
76	863	10	10000	4	1	0	4	0
73	864	10	10000	4	1	0	4	0
72	865	10	10000	4	1	0	4	0
71	866	10	10000	4	1	0	4	0
72	867	10	10000	4	1	0	4	0
71	868	10	10000	4	1	0	4	0
69	869	10	10000	4	1	0	4	0
71	870	10	10000	4	1	0	4	0
75	871	10	10000	4	1	0	4	0
80	872	10	10000	4	1	0	4	0
80	873	10	10000	4	1	0	4	0
82	874	10	10000	4	1	0	4	0
82	875	10	10000	4	1	0	4	0
82	876	10	10000	4	1	0	4	0
83	877	10	10000	4	1	0	4	0
84	878	10	10000	4	1	0	4	0
85	879	10	10000	4	1	0	4	0
80	880	10	10000	4	1	0	4	0
77	881	10	10000	4	1	0	4	0
78	882	10	10000	4	1	0	4	0
81	883	10	10000	4	1	0	4	0
80	884	10	10000	4	1	0	4	0
84	885	10	10000	4	1	0	4	0
85	886	10	10000	4	1	0	4	0
85	887	10	10000	4	1	0	4	0
85	888	10	10000	4	1	0	4	0
82	889	10	10000	4	1	0	4	0
80	890	10	10000	4	1	0	4	0
80	891	10	10000	4	1	0	4	0
80	892	10	10000	4	1	0	4	0
76	893	10	10000	4	1	0	4	0
75	894	10	10000	4	1	0	4	0
77	895	10	10000	4	1	0	4	0
83	896	10	10000	4	1	0	4	0
89	897	10	10000	4	1	0	4	0
92	898	10	10000	4	1	0	4	0
94	899	10	10000	4	1	0	4	0
95	900	10	10000	4	1	0	4	0
93	901	10	10000	4	1	0	4	0
92	902	10	10000	4	1	0	4	0
92	903	10	10000	4	1	0	4	0
89	904	10	10000	4	1	0	4	0
88	905	10	10000	4	1	0	4	0
84	906	10	10000	4	1	0	4	0
82	907	10	10000	4	1	0	4	0
83	908	10	10000	4	1	0	4	0
82	909	10	10000	4	1	0	4	0
80	910	10	10000	4	1	0	4	0
78	911	10	10000	4	1	0	4	0
77	912	10	10000	4	1	0	4	0
73	913	10	10000	4	1	0	4	0
71	914	10	10000	4	1	0	4	0
69	915	10	10000	4	1	0	4	0
67	916	10	10000	4	1	0	4	0
68	917	10	10000	4	1	0	4	0
69	918	10	10000	4	1	0	4	0
68	919	10	10000	4	1	0	4	0
67	920	10	10000	4	1	0	4	0
66	921	10	10000	4	1	0	4	0
62	922	10	10000	4	1	0	4	0
62	923	10	10000	4	1	0	4	0
63	924	10	10000	4	1	0	4	0
63	925	10	10000	4	1	0	4	0
61	926	10	10000	4	1	0	4	0
60	927	10	10000	4	1	0	4	0
58	928	10	10000	4	1	0	4	0
59	929	10	10000	4	1	0	4	0
57	930	10	10000	4	1	0	4	0
58	931	10	10000	4	1	0	4	0
57	932	10	10000	4	1	0	4	0
56	933	10	10000	4	1	0	4	0
55	934	10	10000	4	1	0	4	0
57	935	10	10000	4	1	0	4	0
56	936	10	10000	4	1	0	4	0
57	937	10	10000	4	1	0	4	0
59	938	10	10000	4	1	0	4	0
57	939	10	10000	4	1	0	4	0
56	940	10	10000	4	1	0	4	0
54	941	10	10000	4	1	0	4	0
53	942	10	10000	4	1	0	4	0
54	943	10	10000	4	1	0	4	0
56	944	10	10000	4	1	0	4	0
54	945	10	10000	4	1	0	4	0
54	946	10	10000	4	1	0	4	0
53	947	10	10000	4	1	0	4	0
52	948	10	10000	4	1	0	4	0
52	949	10	10000	4	1	0	4	0
50	950	10	10000	4	1	0	4	0
51	951	10	10000	4	1	0	4	0
51	952	10	10000	4	1	0	4	0
50	953	10	10000	4	1	0	4	0
49	954	10	10000	4	1	0	4	0
47	955	10	10000	4	1	0	4	0
47	956	10	10000	4	1	0	4	0
47	957	10	10000	4	1	0	4	0
49	958	10	10000	4	1	0	4	0
47	959	10	10000	4	1	0	4	0
45	960	10	10000	4	1	0	4	0
43	961	10	10000	4	1	0	4	0
44	962	10	10000	4	1	0	4	0
44	963	10	10000	4	1	0	4	0
43	964	10	10000	4	1	0	4	0
43	965	10	10000	4	1	0	4	0
43	966	10	10000	4	1	0	4	0
44	967	10	10000	4	1	0	4	0
44	968	10	10000	4	1	0	4	0
47	969	10	10000	4	1	0	4	0
50	970	10	10000	4	1	0	4	0
49	971	10	10000	4	1	0	4	0
48	972	10	10000	4	1	0	4	0
45	973	10	10000	4	1	0	4	0
44	974	10	10000	4	1	0	4	0
43	975	10	10000	4	1	0	4	0
42	976	10	10000	4	1	0	4	0
40	977	10	10000	4	1	0	4	0
40	978	10	10000	4	1	0	4	0
41	979	10	10000	4	1	0	4	0
44	980	10	10000	4	1	0	4	0
44	981	10	10000	4	1	0	4	0
43	982	10	10000	4	1	0	4	0
45	983	10	10000	4	1	0	4	0
47	984	10	10000	4	1	0	4	0
50	985	10	10000	4	1	0	4	0
47	986	10	10000	4	1	0	4	0
46	987	10	10000	4	1	0	4	0
47	988	10	10000	4	1	0	4	0
44	989	10	10000	4	1	0	4	0
44	990	10	10000	4	1	0	4	0
44	991	10	10000	4	1	0	4	0
46	992	10	10000	4	1	0	4	0
47	993	10	10000	4	1	0	4	0
48	994	10	10000	4	1	0	4	0
47	995	10	10000	4	1	0	4	0
47	996	10	10000	4	1	0	4	0
45	997	10	10000	4	1	0	4	0
44	998	10	10000	4	1	0	4	0
43	999	10	10000	4	1	0	4	0
43	1000	10	10000	4	1	0	4	0
43	1001	10	10000	4	1	0	4	0
49	2	0	10000	5	1	0	5	0
50	3	0	10000	5	1	0	5	0
49	4	0	10000	5	1	0	5	0
46	5	0	10000	5	1	0	5	0
46	6	0	10000	5	1	0	5	0
44	7	0	10000	5	1	0	5	0
48	8	0	10000	5	1	0	5	0
54	9	0	10000	5	1	0	5	0
56	10	0	10000	5	1	0	5	0
54	11	0	10000	5	1	0	5	0
53	12	0	10000	5	1	0	5	0
53	13	0	10000	5	1	0	5	0
53	14	0	10000	5	1	0	5	0
52	15	0	10000	5	1	0	5	0
51	16	0	10000	5	1	0	5	0
49	17	0	10000	5	1	0	5	0
47	18	0	10000	5	1	0	5	0
48	19	0	10000	5	1	0	5	0
46	20	0	10000	5	1	0	5	0
45	21	0	10000	5	1	0	5	0
49	22	0	10000	5	1	0	5	0
56	23	0	10000	5	1	0	5	0
59	24	0	10000	5	1	0	5	0
55	25	0	10000	5	1	0	5	0
59	26	0	10000	5	1	0	5	0
63	27	0	10000	5	1	0	5	0
65	28	0	10000	5	1	0	5	0
63	29	0	10000	5	1	0	5	0
63	30	0	10000	5	1	0	5	0
60	31	0	10000	5	1	0	5	0
60	32	0	10000	5	1	0	5	0
62	33	0	10000	5	1	0	5	0
63	34	0	10000	5	1	0	5	0
67	35	0	10000	5	1	0	5	0
64	36	0	10000	5	1	0	5	0
65	37	0	10000	5	1	0	5	0
64	38	0	10000	5	1	0	5	0
62	39	0	10000	5	1	0	5	0
60	40	0	10000	5	1	0	5	0
58	41	0	10000	5	1	0	5	0
62	42	0	10000	5	1	0	5	0
67	43	0	10000	5	1	0	5	0
66	44	0	10000	5	1	0	5	0
62	45	0	10000	5	1	0	5	0
61	46	0	10000	5	1	0	5	0
62	47	0	10000	5	1	0	5	0
62	48	0	10000	5	1	0	5	0
65	49	0	10000	5	1	0	5	0
68	50	0	10000	5	1	0	5	0
67	51	0	10000	5	1	0	5	0
68	52	0	10000	5	1	0	5	0
68	53	0	10000	5	1	0	5	0
66	54	0	10000	5	1	0	5	0
67	55	0	10000	5	1	0	5	0
66	56	0	10000	5	1	0	5	0
63	57	0	10000	5	1	0	5	0
63	58	0	10000	5	1	0	5	0
61	59	0	10000	5	1	0	5	0
62	60	0	10000	5	1	0	5	0
61	61	0	10000	5	1	0	5	0
59	62	0	10000	5	1	0	5	0
57	63	0	10000	5	1	0	5	0
56	64	0	10000	5	1	0	5	0
58	65	0	10000	5	1	0	5	0
62	66	0	10000	5	1	0	5	0
59	67	0	10000	5	1	0	5	0
57	68	0	10000	5	1	0	5	0
56	69	0	10000	5	1	0	5	0
54	70	0	10000	5	1	0	5	0
53	71	0	10000	5	1	0	5	0
50	72	0	10000	5	1	0	5	0
49	73	0	10000	5	1	0	5	0
52	74	0	10000	5	1	0	5	0
53	75	0	10000	5	1	0	5	0
52	76	0	10000	5	1	0	5	0
50	77	0	10000	5	1	0	5	0
49	78	0	10000	5	1	0	5	0
53	79	0	10000	5	1	0	5	0
54	80	0	10000	5	1	0	5	0
53	81	0	10000	5	1	0	5	0
58	82	0	10000	5	1	0	5	0
64	83	0	10000	5	1	0	5	0
66	84	0	10000	5	1	0	5	0
65	85	0	10000	5	1	0	5	0
66	86	0	10000	5	1	0	5	0
65	87	0	10000	5	1	0	5	0
63	88	0	10000	5	1	0	5	0
61	89	0	10000	5	1	0	5	0
59	90	0	10000	5	1	0	5	0
57	91	0	10000	5	1	0	5	0
55	92	0	10000	5	1	0	5	0
55	93	0	10000	5	1	0	5	0
57	94	0	10000	5	1	0	5	0
58	95	0	10000	5	1	0	5	0
57	96	0	10000	5	1	0	5	0
58	97	0	10000	5	1	0	5	0
56	98	0	10000	5	1	0	5	0
56	99	0	10000	5	1	0	5	0
56	100	0	10000	5	1	0	5	0
55	101	0	10000	5	1	0	5	0
57	102	0	10000	5	1	0	5	0
56	103	0	10000	5	1	0	5	0
57	104	0	10000	5	1	0	5	0
57	105	0	10000	5	1	0	5	0
64	106	0	10000	5	1	0	5	0
70	107	0	10000	5	1	0	5	0
71	108	0	10000	5	1	0	5	0
68	109	0	10000	5	1	0	5	0
66	110	0	10000	5	1	0	5	0
65	111	0	10000	5	1	0	5	0
63	112	0	10000	5	1	0	5	0
63	113	0	10000	5	1	0	5	0
65	114	0	10000	5	1	0	5	0
65	115	0	10000	5	1	0	5	0
65	116	0	10000	5	1	0	5	0
66	117	0	10000	5	1	0	5	0
66	118	0	10000	5	1	0	5	0
64	119	0	10000	5	1	0	5	0
64	120	0	10000	5	1	0	5	0
60	121	0	10000	5	1	0	5	0
61	122	0	10000	5	1	0	5	0
63	123	0	10000	5	1	0	5	0
63	124	0	10000	5	1	0	5	0
60	125	0	10000	5	1	0	5	0
61	126	0	10000	5	1	0	5	0
63	127	0	10000	5	1	0	5	0
64	128	0	10000	5	1	0	5	0
62	129	0	10000	5	1	0	5	0
63	130	0	10000	5	1	0	5	0
63	131	0	10000	5	1	0	5	0
61	132	0	10000	5	1	0	5	0
61	133	0	10000	5	1	0	5	0
59	134	0	10000	5	1	0	5	0
62	135	0	10000	5	1	0	5	0
62	136	0	10000	5	1	0	5	0
61	137	0	10000	5	1	0	5	0
62	138	0	10000	5	1	0	5	0
62	139	0	10000	5	1	0	5	0
63	140	0	10000	5	1	0	5	0
61	141	0	10000	5	1	0	5	0
60	142	0	10000	5	1	0	5	0
59	143	0	10000	5	1	0	5	0
56	144	0	10000	5	1	0	5	0
52	145	0	10000	5	1	0	5	0
53	146	0	10000	5	1	0	5	0
53	147	0	10000	5	1	0	5	0
54	148	0	10000	5	1	0	5	0
56	149	0	10000	5	1	0	5	0
54	150	0	10000	5	1	0	5	0
53	151	0	10000	5	1	0	5	0
52	152	0	10000	5	1	0	5	0
50	153	0	10000	5	1	0	5	0
49	154	0	10000	5	1	0	5	0
50	155	0	10000	5	1	0	5	0
49	156	0	10000	5	1	0	5	0
47	157	0	10000	5	1	0	5	0
48	158	0	10000	5	1	0	5	0
49	159	0	10000	5	1	0	5	0
47	160	0	10000	5	1	0	5	0
45	161	0	10000	5	1	0	5	0
46	162	0	10000	5	1	0	5	0
46	163	0	10000	5	1	0	5	0
45	164	0	10000	5	1	0	5	0
42	165	0	10000	5	1	0	5	0
44	166	0	10000	5	1	0	5	0
48	167	0	10000	5	1	0	5	0
53	168	0	10000	5	1	0	5	0
59	169	0	10000	5	1	0	5	0
61	170	0	10000	5	1	0	5	0
63	171	0	10000	5	1	0	5	0
69	172	0	10000	5	1	0	5	0
72	173	0	10000	5	1	0	5	0
71	174	0	10000	5	1	0	5	0
71	175	0	10000	5	1	0	5	0
75	176	0	10000	5	1	0	5	0
77	177	0	10000	5	1	0	5	0
74	178	0	10000	5	1	0	5	0
72	179	0	10000	5	1	0	5	0
68	180	0	10000	5	1	0	5	0
67	181	0	10000	5	1	0	5	0
71	182	0	10000	5	1	0	5	0
76	183	0	10000	5	1	0	5	0
80	184	0	10000	5	1	0	5	0
78	185	0	10000	5	1	0	5	0
78	186	0	10000	5	1	0	5	0
75	187	0	10000	5	1	0	5	0
72	188	0	10000	5	1	0	5	0
72	189	0	10000	5	1	0	5	0
74	190	0	10000	5	1	0	5	0
73	191	0	10000	5	1	0	5	0
71	192	0	10000	5	1	0	5	0
70	193	0	10000	5	1	0	5	0
67	194	0	10000	5	1	0	5	0
70	195	0	10000	5	1	0	5	0
70	196	0	10000	5	1	0	5	0
69	197	0	10000	5	1	0	5	0
65	198	0	10000	5	1	0	5	0
66	199	0	10000	5	1	0	5	0
67	200	0	10000	5	1	0	5	0
67	201	0	10000	5	1	0	5	0
66	202	0	10000	5	1	0	5	0
68	203	0	10000	5	1	0	5	0
70	204	0	10000	5	1	0	5	0
67	205	0	10000	5	1	0	5	0
65	206	0	10000	5	1	0	5	0
62	207	0	10000	5	1	0	5	0
61	208	0	10000	5	1	0	5	0
59	209	0	10000	5	1	0	5	0
57	210	0	10000	5	1	0	5	0
57	211	0	10000	5	1	0	5	0
57	212	0	10000	5	1	0	5	0
60	213	0	10000	5	1	0	5	0
58	214	0	10000	5	1	0	5	0
61	215	0	10000	5	1	0	5	0
63	216	0	10000	5	1	0	5	0
60	217	0	10000	5	1	0	5	0
58	218	0	10000	5	1	0	5	0
60	219	0	10000	5	1	0	5	0
64	220	0	10000	5	1	0	5	0
67	221	0	10000	5	1	0	5	0
66	222	0	10000	5	1	0	5	0
68	223	0	10000	5	1	0	5	0
72	224	0	10000	5	1	0	5	0
74	225	0	10000	5	1	0	5	0
73	226	0	10000	5	1	0	5	0
71	227	0	10000	5	1	0	5	0
72	228	0	10000	5	1	0	5	0
73	229	0	10000	5	1	0	5	0
72	230	0	10000	5	1	0	5	0
71	231	0	10000	5	1	0	5	0
69	232	0	10000	5	1	0	5	0
68	233	0	10000	5	1	0	5	0
66	234	0	10000	5	1	0	5	0
67	235	0	10000	5	1	0	5	0
65	236	0	10000	5	1	0	5	0
63	237	0	10000	5	1	0	5	0
61	238	0	10000	5	1	0	5	0
61	239	0	10000	5	1	0	5	0
60	240	0	10000	5	1	0	5	0
59	241	0	10000	5	1	0	5	0
60	242	0	10000	5	1	0	5	0
62	243	0	10000	5	1	0	5	0
62	244	0	10000	5	1	0	5	0
64	245	0	10000	5	1	0	5	0
64	246	0	10000	5	1	0	5	0
61	247	0	10000	5	1	0	5	0
60	248	0	10000	5	1	0	5	0
58	249	0	10000	5	1	0	5	0
56	250	0	10000	5	1	0	5	0
55	251	0	10000	5	1	0	5	0
54	252	0	10000	5	1	0	5	0
53	253	0	10000	5	1	0	5	0
53	254	0	10000	5	1	0	5	0
57	255	0	10000	5	1	0	5	0
57	256	0	10000	5	1	0	5	0
55	257	0	10000	5	1	0	5	0
57	258	0	10000	5	1	0	5	0
60	259	0	10000	5	1	0	5	0
61	260	0	10000	5	1	0	5	0
60	261	0	10000	5	1	0	5	0
60	262	0	10000	5	1	0	5	0
61	263	0	10000	5	1	0	5	0
63	264	0	10000	5	1	0	5	0
60	265	0	10000	5	1	0	5	0
58	266	0	10000	5	1	0	5	0
57	267	0	10000	5	1	0	5	0
61	268	0	10000	5	1	0	5	0
64	269	0	10000	5	1	0	5	0
64	270	0	10000	5	1	0	5	0
63	271	0	10000	5	1	0	5	0
60	272	0	10000	5	1	0	5	0
61	273	0	10000	5	1	0	5	0
60	274	0	10000	5	1	0	5	0
62	275	0	10000	5	1	0	5	0
62	276	0	10000	5	1	0	5	0
62	277	0	10000	5	1	0	5	0
61	278	0	10000	5	1	0	5	0
62	279	0	10000	5	1	0	5	0
63	280	0	10000	5	1	0	5	0
60	281	0	10000	5	1	0	5	0
59	282	0	10000	5	1	0	5	0
58	283	0	10000	5	1	0	5	0
56	284	0	10000	5	1	0	5	0
55	285	0	10000	5	1	0	5	0
60	286	0	10000	5	1	0	5	0
63	287	0	10000	5	1	0	5	0
60	288	0	10000	5	1	0	5	0
58	289	0	10000	5	1	0	5	0
57	290	0	10000	5	1	0	5	0
56	291	0	10000	5	1	0	5	0
58	292	0	10000	5	1	0	5	0
59	293	0	10000	5	1	0	5	0
56	294	0	10000	5	1	0	5	0
59	295	0	10000	5	1	0	5	0
62	296	0	10000	5	1	0	5	0
63	297	0	10000	5	1	0	5	0
62	298	0	10000	5	1	0	5	0
61	299	0	10000	5	1	0	5	0
64	300	0	10000	5	1	0	5	0
65	301	0	10000	5	1	0	5	0
63	302	0	10000	5	1	0	5	0
61	303	0	10000	5	1	0	5	0
58	304	0	10000	5	1	0	5	0
56	305	0	10000	5	1	0	5	0
54	306	0	10000	5	1	0	5	0
55	307	0	10000	5	1	0	5	0
57	308	0	10000	5	1	0	5	0
54	309	0	10000	5	1	0	5	0
53	310	0	10000	5	1	0	5	0
52	311	0	10000	5	1	0	5	0
52	312	0	10000	5	1	0	5	0
50	313	0	10000	5	1	0	5	0
49	314	0	10000	5	1	0	5	0
51	315	0	10000	5	1	0	5	0
50	316	0	10000	5	1	0	5	0
51	317	0	10000	5	1	0	5	0
50	318	0	10000	5	1	0	5	0
48	319	0	10000	5	1	0	5	0
46	320	0	10000	5	1	0	5	0
46	321	0	10000	5	1	0	5	0
48	322	0	10000	5	1	0	5	0
47	323	0	10000	5	1	0	5	0
45	324	0	10000	5	1	0	5	0
42	325	0	10000	5	1	0	5	0
41	326	0	10000	5	1	0	5	0
41	327	0	10000	5	1	0	5	0
47	328	0	10000	5	1	0	5	0
53	329	0	10000	5	1	0	5	0
58	330	0	10000	5	1	0	5	0
58	331	0	10000	5	1	0	5	0
56	332	0	10000	5	1	0	5	0
57	333	0	10000	5	1	0	5	0
56	334	0	10000	5	1	0	5	0
56	335	0	10000	5	1	0	5	0
54	336	0	10000	5	1	0	5	0
52	337	0	10000	5	1	0	5	0
52	338	0	10000	5	1	0	5	0
50	339	0	10000	5	1	0	5	0
49	340	0	10000	5	1	0	5	0
49	341	0	10000	5	1	0	5	0
50	342	0	10000	5	1	0	5	0
53	343	0	10000	5	1	0	5	0
52	344	0	10000	5	1	0	5	0
51	345	0	10000	5	1	0	5	0
54	346	0	10000	5	1	0	5	0
52	347	0	10000	5	1	0	5	0
50	348	0	10000	5	1	0	5	0
55	349	0	10000	5	1	0	5	0
55	350	0	10000	5	1	0	5	0
53	351	0	10000	5	1	0	5	0
52	352	0	10000	5	1	0	5	0
54	353	0	10000	5	1	0	5	0
57	354	0	10000	5	1	0	5	0
60	355	0	10000	5	1	0	5	0
61	356	0	10000	5	1	0	5	0
65	357	0	10000	5	1	0	5	0
66	358	0	10000	5	1	0	5	0
67	359	0	10000	5	1	0	5	0
63	360	0	10000	5	1	0	5	0
62	361	0	10000	5	1	0	5	0
66	362	0	10000	5	1	0	5	0
70	363	0	10000	5	1	0	5	0
70	364	0	10000	5	1	0	5	0
66	365	0	10000	5	1	0	5	0
66	366	0	10000	5	1	0	5	0
64	367	0	10000	5	1	0	5	0
63	368	0	10000	5	1	0	5	0
62	369	0	10000	5	1	0	5	0
63	370	0	10000	5	1	0	5	0
64	371	0	10000	5	1	0	5	0
62	372	0	10000	5	1	0	5	0
60	373	0	10000	5	1	0	5	0
59	374	0	10000	5	1	0	5	0
60	375	0	10000	5	1	0	5	0
57	376	0	10000	5	1	0	5	0
55	377	0	10000	5	1	0	5	0
52	378	0	10000	5	1	0	5	0
53	379	0	10000	5	1	0	5	0
57	380	0	10000	5	1	0	5	0
60	381	0	10000	5	1	0	5	0
66	382	0	10000	5	1	0	5	0
67	383	0	10000	5	1	0	5	0
65	384	0	10000	5	1	0	5	0
61	385	0	10000	5	1	0	5	0
62	386	0	10000	5	1	0	5	0
63	387	0	10000	5	1	0	5	0
61	388	0	10000	5	1	0	5	0
59	389	0	10000	5	1	0	5	0
56	390	0	10000	5	1	0	5	0
55	391	0	10000	5	1	0	5	0
55	392	0	10000	5	1	0	5	0
57	393	0	10000	5	1	0	5	0
55	394	0	10000	5	1	0	5	0
56	395	0	10000	5	1	0	5	0
54	396	0	10000	5	1	0	5	0
56	397	0	10000	5	1	0	5	0
61	398	0	10000	5	1	0	5	0
61	399	0	10000	5	1	0	5	0
60	400	0	10000	5	1	0	5	0
58	401	0	10000	5	1	0	5	0
56	402	0	10000	5	1	0	5	0
56	403	0	10000	5	1	0	5	0
54	404	0	10000	5	1	0	5	0
54	405	0	10000	5	1	0	5	0
54	406	0	10000	5	1	0	5	0
54	407	0	10000	5	1	0	5	0
53	408	0	10000	5	1	0	5	0
50	409	0	10000	5	1	0	5	0
50	410	0	10000	5	1	0	5	0
52	411	0	10000	5	1	0	5	0
54	412	0	10000	5	1	0	5	0
52	413	0	10000	5	1	0	5	0
55	414	0	10000	5	1	0	5	0
61	415	0	10000	5	1	0	5	0
62	416	0	10000	5	1	0	5	0
61	417	0	10000	5	1	0	5	0
61	418	0	10000	5	1	0	5	0
58	419	0	10000	5	1	0	5	0
57	420	0	10000	5	1	0	5	0
56	421	0	10000	5	1	0	5	0
55	422	0	10000	5	1	0	5	0
53	423	0	10000	5	1	0	5	0
55	424	0	10000	5	1	0	5	0
54	425	0	10000	5	1	0	5	0
53	426	0	10000	5	1	0	5	0
54	427	0	10000	5	1	0	5	0
56	428	0	10000	5	1	0	5	0
54	429	0	10000	5	1	0	5	0
52	430	0	10000	5	1	0	5	0
52	431	0	10000	5	1	0	5	0
49	432	0	10000	5	1	0	5	0
48	433	0	10000	5	1	0	5	0
47	434	0	10000	5	1	0	5	0
49	435	0	10000	5	1	0	5	0
51	436	0	10000	5	1	0	5	0
49	437	0	10000	5	1	0	5	0
54	438	0	10000	5	1	0	5	0
59	439	0	10000	5	1	0	5	0
62	440	0	10000	5	1	0	5	0
63	441	0	10000	5	1	0	5	0
61	442	0	10000	5	1	0	5	0
59	443	0	10000	5	1	0	5	0
59	444	0	10000	5	1	0	5	0
55	445	0	10000	5	1	0	5	0
54	446	0	10000	5	1	0	5	0
54	447	0	10000	5	1	0	5	0
56	448	0	10000	5	1	0	5	0
57	449	0	10000	5	1	0	5	0
55	450	0	10000	5	1	0	5	0
55	451	0	10000	5	1	0	5	0
54	452	0	10000	5	1	0	5	0
51	453	0	10000	5	1	0	5	0
50	454	0	10000	5	1	0	5	0
51	455	0	10000	5	1	0	5	0
50	456	0	10000	5	1	0	5	0
48	457	0	10000	5	1	0	5	0
46	458	0	10000	5	1	0	5	0
47	459	0	10000	5	1	0	5	0
44	460	0	10000	5	1	0	5	0
45	461	0	10000	5	1	0	5	0
47	462	0	10000	5	1	0	5	0
49	463	0	10000	5	1	0	5	0
49	464	0	10000	5	1	0	5	0
49	465	0	10000	5	1	0	5	0
48	466	0	10000	5	1	0	5	0
50	467	0	10000	5	1	0	5	0
53	468	0	10000	5	1	0	5	0
51	469	0	10000	5	1	0	5	0
52	470	0	10000	5	1	0	5	0
54	471	0	10000	5	1	0	5	0
54	472	0	10000	5	1	0	5	0
54	473	0	10000	5	1	0	5	0
53	474	0	10000	5	1	0	5	0
55	475	0	10000	5	1	0	5	0
55	476	0	10000	5	1	0	5	0
54	477	0	10000	5	1	0	5	0
54	478	0	10000	5	1	0	5	0
53	479	0	10000	5	1	0	5	0
53	480	0	10000	5	1	0	5	0
53	481	0	10000	5	1	0	5	0
55	482	0	10000	5	1	0	5	0
54	483	0	10000	5	1	0	5	0
53	484	0	10000	5	1	0	5	0
49	485	0	10000	5	1	0	5	0
47	486	0	10000	5	1	0	5	0
46	487	0	10000	5	1	0	5	0
47	488	0	10000	5	1	0	5	0
46	489	0	10000	5	1	0	5	0
47	490	0	10000	5	1	0	5	0
45	491	0	10000	5	1	0	5	0
44	492	0	10000	5	1	0	5	0
42	493	0	10000	5	1	0	5	0
41	494	0	10000	5	1	0	5	0
44	495	0	10000	5	1	0	5	0
44	496	0	10000	5	1	0	5	0
44	497	0	10000	5	1	0	5	0
43	498	0	10000	5	1	0	5	0
43	499	0	10000	5	1	0	5	0
42	500	0	10000	5	1	0	5	0
40	501	0	10000	5	1	0	5	0
39	501	0	10000	5	1	0	5	1
40	502	0	10000	5	1	0	5	1
38	504	0	10000	5	1	0	5	1
38	505	0	10000	5	1	0	5	1
39	506	0	10000	5	1	0	5	1
40	507	0	10000	5	1	0	5	1
44	508	0	10000	5	1	0	5	1
44	509	0	10000	5	1	0	5	1
43	510	0	10000	5	1	0	5	1
43	511	0	10000	5	1	0	5	1
44	512	0	10000	5	1	0	5	1
44	513	0	10000	5	1	0	5	1
43	514	0	10000	5	1	0	5	1
47	515	0	10000	5	1	0	5	1
52	516	0	10000	5	1	0	5	1
57	517	0	10000	5	1	0	5	1
58	518	0	10000	5	1	0	5	1
56	519	0	10000	5	1	0	5	1
56	520	0	10000	5	1	0	5	1
54	521	0	10000	5	1	0	5	1
53	522	0	10000	5	1	0	5	1
53	523	0	10000	5	1	0	5	1
51	524	0	10000	5	1	0	5	1
48	525	0	10000	5	1	0	5	1
47	526	0	10000	5	1	0	5	1
46	527	0	10000	5	1	0	5	1
44	528	0	10000	5	1	0	5	1
44	529	0	10000	5	1	0	5	1
43	530	0	10000	5	1	0	5	1
42	531	0	10000	5	1	0	5	1
41	532	0	10000	5	1	0	5	1
44	533	0	10000	5	1	0	5	1
46	534	0	10000	5	1	0	5	1
46	535	0	10000	5	1	0	5	1
45	536	0	10000	5	1	0	5	1
44	537	0	10000	5	1	0	5	1
46	538	0	10000	5	1	0	5	1
46	539	0	10000	5	1	0	5	1
44	540	0	10000	5	1	0	5	1
43	541	0	10000	5	1	0	5	1
42	542	0	10000	5	1	0	5	1
43	543	0	10000	5	1	0	5	1
44	544	0	10000	5	1	0	5	1
41	545	0	10000	5	1	0	5	1
41	546	0	10000	5	1	0	5	1
41	547	0	10000	5	1	0	5	1
40	548	0	10000	5	1	0	5	1
40	549	0	10000	5	1	0	5	1
43	550	0	10000	5	1	0	5	1
48	551	0	10000	5	1	0	5	1
50	552	0	10000	5	1	0	5	0
48	553	0	10000	5	1	0	5	0
46	554	0	10000	5	1	0	5	0
45	555	0	10000	5	1	0	5	0
45	556	0	10000	5	1	0	5	0
45	557	0	10000	5	1	0	5	0
42	558	0	10000	5	1	0	5	0
41	559	0	10000	5	1	0	5	0
42	560	0	10000	5	1	0	5	0
44	561	0	10000	5	1	0	5	0
47	562	0	10000	5	1	0	5	0
46	563	0	10000	5	1	0	5	0
45	564	0	10000	5	1	0	5	0
44	565	0	10000	5	1	0	5	0
44	566	0	10000	5	1	0	5	0
44	567	0	10000	5	1	0	5	0
42	568	0	10000	5	1	0	5	0
41	569	0	10000	5	1	0	5	0
41	570	0	10000	5	1	0	5	0
44	571	0	10000	5	1	0	5	0
43	572	0	10000	5	1	0	5	0
40	573	0	10000	5	1	0	5	0
39	574	0	10000	5	1	0	5	0
44	575	0	10000	5	1	0	5	0
48	576	0	10000	5	1	0	5	0
50	577	0	10000	5	1	0	5	0
48	578	0	10000	5	1	0	5	0
45	579	0	10000	5	1	0	5	0
44	580	0	10000	5	1	0	5	0
44	581	0	10000	5	1	0	5	0
48	582	0	10000	5	1	0	5	0
50	583	0	10000	5	1	0	5	0
51	584	0	10000	5	1	0	5	0
50	585	0	10000	5	1	0	5	0
47	586	0	10000	5	1	0	5	0
47	587	0	10000	5	1	0	5	0
54	588	0	10000	5	1	0	5	0
61	589	0	10000	5	1	0	5	0
60	590	0	10000	5	1	0	5	0
62	591	0	10000	5	1	0	5	0
69	592	0	10000	5	1	0	5	0
72	593	0	10000	5	1	0	5	0
70	594	0	10000	5	1	0	5	0
71	595	0	10000	5	1	0	5	0
68	596	0	10000	5	1	0	5	0
67	597	0	10000	5	1	0	5	0
65	598	0	10000	5	1	0	5	0
62	599	0	10000	5	1	0	5	0
59	600	0	10000	5	1	0	5	0
60	601	0	10000	5	1	0	5	0
61	602	0	10000	5	1	0	5	0
63	603	0	10000	5	1	0	5	0
64	604	0	10000	5	1	0	5	0
63	605	0	10000	5	1	0	5	0
70	606	0	10000	5	1	0	5	0
74	607	0	10000	5	1	0	5	0
75	608	0	10000	5	1	0	5	0
81	609	0	10000	5	1	0	5	0
84	610	0	10000	5	1	0	5	0
83	611	0	10000	5	1	0	5	0
84	612	0	10000	5	1	0	5	0
84	613	0	10000	5	1	0	5	0
83	614	0	10000	5	1	0	5	0
82	615	0	10000	5	1	0	5	0
80	616	0	10000	5	1	0	5	0
81	617	0	10000	5	1	0	5	0
80	618	0	10000	5	1	0	5	0
77	619	0	10000	5	1	0	5	0
77	620	0	10000	5	1	0	5	0
77	621	0	10000	5	1	0	5	0
75	622	0	10000	5	1	0	5	0
72	623	0	10000	5	1	0	5	0
72	624	0	10000	5	1	0	5	0
68	625	0	10000	5	1	0	5	0
66	626	0	10000	5	1	0	5	0
65	627	0	10000	5	1	0	5	0
62	628	0	10000	5	1	0	5	0
61	629	0	10000	5	1	0	5	0
60	630	0	10000	5	1	0	5	0
62	631	0	10000	5	1	0	5	0
63	632	0	10000	5	1	0	5	0
60	633	0	10000	5	1	0	5	0
60	634	0	10000	5	1	0	5	0
60	635	0	10000	5	1	0	5	0
58	636	0	10000	5	1	0	5	0
58	637	0	10000	5	1	0	5	0
56	638	0	10000	5	1	0	5	0
55	639	0	10000	5	1	0	5	0
54	640	0	10000	5	1	0	5	0
55	641	0	10000	5	1	0	5	0
57	642	0	10000	5	1	0	5	0
58	643	0	10000	5	1	0	5	0
58	644	0	10000	5	1	0	5	0
56	645	0	10000	5	1	0	5	0
55	646	0	10000	5	1	0	5	0
54	647	0	10000	5	1	0	5	0
55	648	0	10000	5	1	0	5	0
53	649	0	10000	5	1	0	5	0
54	650	0	10000	5	1	0	5	0
56	651	0	10000	5	1	0	5	0
54	652	0	10000	5	1	0	5	0
53	653	0	10000	5	1	0	5	0
51	654	0	10000	5	1	0	5	0
54	655	0	10000	5	1	0	5	0
53	656	0	10000	5	1	0	5	0
53	657	0	10000	5	1	0	5	0
51	658	0	10000	5	1	0	5	0
53	659	0	10000	5	1	0	5	0
53	660	0	10000	5	1	0	5	0
51	661	0	10000	5	1	0	5	0
51	662	0	10000	5	1	0	5	0
51	663	0	10000	5	1	0	5	0
50	664	0	10000	5	1	0	5	0
48	665	0	10000	5	1	0	5	0
46	666	0	10000	5	1	0	5	0
45	667	0	10000	5	1	0	5	0
43	668	0	10000	5	1	0	5	0
41	669	0	10000	5	1	0	5	0
41	670	0	10000	5	1	0	5	0
42	671	0	10000	5	1	0	5	0
40	672	0	10000	5	1	0	5	0
39	673	0	10000	5	1	0	5	0
42	674	0	10000	5	1	0	5	0
47	675	0	10000	5	1	0	5	0
44	676	0	10000	5	1	0	5	0
44	677	0	10000	5	1	0	5	0
45	678	0	10000	5	1	0	5	0
44	679	0	10000	5	1	0	5	0
43	680	0	10000	5	1	0	5	0
42	681	0	10000	5	1	0	5	0
42	682	0	10000	5	1	0	5	0
42	683	0	10000	5	1	0	5	0
44	684	0	10000	5	1	0	5	0
41	685	0	10000	5	1	0	5	0
40	686	0	10000	5	1	0	5	0
40	687	0	10000	5	1	0	5	0
43	688	0	10000	5	1	0	5	0
45	689	0	10000	5	1	0	5	0
44	690	0	10000	5	1	0	5	0
43	691	0	10000	5	1	0	5	0
43	692	0	10000	5	1	0	5	0
43	693	0	10000	5	1	0	5	0
42	694	0	10000	5	1	0	5	0
43	695	0	10000	5	1	0	5	0
43	696	0	10000	5	1	0	5	0
43	697	0	10000	5	1	0	5	0
42	698	0	10000	5	1	0	5	0
41	699	0	10000	5	1	0	5	0
40	700	0	10000	5	1	0	5	0
42	701	0	10000	5	1	0	5	0
42	702	0	10000	5	1	0	5	0
41	703	0	10000	5	1	0	5	0
40	704	0	10000	5	1	0	5	0
36	705	0	10000	5	1	0	5	0
38	706	0	10000	5	1	0	5	0
38	707	0	10000	5	1	0	5	0
38	708	0	10000	5	1	0	5	0
38	709	0	10000	5	1	0	5	0
39	710	0	10000	5	1	0	5	0
40	711	0	10000	5	1	0	5	0
37	712	0	10000	5	1	0	5	0
37	713	0	10000	5	1	0	5	0
35	714	0	10000	5	1	0	5	0
36	715	0	10000	5	1	0	5	0
