value	EMG	Stimulus	EMG_sensitivity	Total_Trial_Nr	practise	acq	probe_nr	Startle_Probe
250	1	1	10000	1	1	0	1	0
244	2	1	10000	1	1	0	1	0
238	3	1	10000	1	1	0	1	0
237	4	1	10000	1	1	0	1	0
242	5	1	10000	1	1	0	1	0
240	6	1	10000	1	1	0	1	0
232	7	1	10000	1	1	0	1	0
227	8	1	10000	1	1	0	1	0
226	9	1	10000	1	1	0	1	0
221	10	1	10000	1	1	0	1	0
216	11	1	10000	1	1	0	1	0
210	12	1	10000	1	1	0	1	0
209	13	1	10000	1	1	0	1	0
214	14	1	10000	1	1	0	1	0
233	15	1	10000	1	1	0	1	0
250	16	1	10000	1	1	0	1	0
252	17	1	10000	1	1	0	1	0
248	18	1	10000	1	1	0	1	0
244	19	1	10000	1	1	0	1	0
245	20	1	10000	1	1	0	1	0
239	21	1	10000	1	1	0	1	0
232	22	1	10000	1	1	0	1	0
221	23	1	10000	1	1	0	1	0
212	24	1	10000	1	1	0	1	0
207	25	1	10000	1	1	0	1	0
201	26	1	10000	1	1	0	1	0
207	27	1	10000	1	1	0	1	0
205	28	1	10000	1	1	0	1	0
217	29	1	10000	1	1	0	1	0
227	30	1	10000	1	1	0	1	0
224	31	1	10000	1	1	0	1	0
217	32	1	10000	1	1	0	1	0
215	33	1	10000	1	1	0	1	0
216	34	1	10000	1	1	0	1	0
221	35	1	10000	1	1	0	1	0
225	36	1	10000	1	1	0	1	0
232	37	1	10000	1	1	0	1	0
250	38	1	10000	1	1	0	1	0
288	39	1	10000	1	1	0	1	0
319	40	1	10000	1	1	0	1	0
313	41	1	10000	1	1	0	1	0
315	42	1	10000	1	1	0	1	0
315	43	1	10000	1	1	0	1	0
313	44	1	10000	1	1	0	1	0
318	45	1	10000	1	1	0	1	0
322	46	1	10000	1	1	0	1	0
319	47	1	10000	1	1	0	1	0
309	48	1	10000	1	1	0	1	0
299	49	1	10000	1	1	0	1	0
291	50	1	10000	1	1	0	1	0
291	51	1	10000	1	1	0	1	0
301	52	1	10000	1	1	0	1	0
305	53	1	10000	1	1	0	1	0
298	54	1	10000	1	1	0	1	0
299	55	1	10000	1	1	0	1	0
300	56	1	10000	1	1	0	1	0
294	57	1	10000	1	1	0	1	0
286	58	1	10000	1	1	0	1	0
283	59	1	10000	1	1	0	1	0
279	60	1	10000	1	1	0	1	0
269	61	1	10000	1	1	0	1	0
261	62	1	10000	1	1	0	1	0
249	63	1	10000	1	1	0	1	0
241	64	1	10000	1	1	0	1	0
238	65	1	10000	1	1	0	1	0
233	66	1	10000	1	1	0	1	0
225	67	1	10000	1	1	0	1	0
224	68	1	10000	1	1	0	1	0
223	69	1	10000	1	1	0	1	0
213	70	1	10000	1	1	0	1	0
213	71	1	10000	1	1	0	1	0
223	72	1	10000	1	1	0	1	0
225	73	1	10000	1	1	0	1	0
232	74	1	10000	1	1	0	1	0
278	75	1	10000	1	1	0	1	0
320	76	1	10000	1	1	0	1	0
329	77	1	10000	1	1	0	1	0
317	78	1	10000	1	1	0	1	0
308	79	1	10000	1	1	0	1	0
303	80	1	10000	1	1	0	1	0
304	81	1	10000	1	1	0	1	0
305	82	1	10000	1	1	0	1	0
293	83	1	10000	1	1	0	1	0
286	84	1	10000	1	1	0	1	0
281	85	1	10000	1	1	0	1	0
270	86	1	10000	1	1	0	1	0
263	87	1	10000	1	1	0	1	0
252	88	1	10000	1	1	0	1	0
241	89	1	10000	1	1	0	1	0
236	90	1	10000	1	1	0	1	0
235	91	1	10000	1	1	0	1	0
235	92	1	10000	1	1	0	1	0
242	93	1	10000	1	1	0	1	0
248	94	1	10000	1	1	0	1	0
252	95	1	10000	1	1	0	1	0
245	96	1	10000	1	1	0	1	0
249	97	1	10000	1	1	0	1	0
243	98	1	10000	1	1	0	1	0
242	99	1	10000	1	1	0	1	0
248	100	1	10000	1	1	0	1	0
250	101	1	10000	1	1	0	1	0
247	102	1	10000	1	1	0	1	0
240	103	1	10000	1	1	0	1	0
236	104	1	10000	1	1	0	1	0
227	105	1	10000	1	1	0	1	0
230	106	1	10000	1	1	0	1	0
241	107	1	10000	1	1	0	1	0
244	108	1	10000	1	1	0	1	0
237	109	1	10000	1	1	0	1	0
227	110	1	10000	1	1	0	1	0
234	111	1	10000	1	1	0	1	0
251	112	1	10000	1	1	0	1	0
250	113	1	10000	1	1	0	1	0
242	114	1	10000	1	1	0	1	0
234	115	1	10000	1	1	0	1	0
235	116	1	10000	1	1	0	1	0
237	117	1	10000	1	1	0	1	0
243	118	1	10000	1	1	0	1	0
242	119	1	10000	1	1	0	1	0
234	120	1	10000	1	1	0	1	0
228	121	1	10000	1	1	0	1	0
236	122	1	10000	1	1	0	1	0
245	123	1	10000	1	1	0	1	0
252	124	1	10000	1	1	0	1	0
250	125	1	10000	1	1	0	1	0
241	126	1	10000	1	1	0	1	0
241	127	1	10000	1	1	0	1	0
245	128	1	10000	1	1	0	1	0
239	129	1	10000	1	1	0	1	0
230	130	1	10000	1	1	0	1	0
222	131	1	10000	1	1	0	1	0
219	132	1	10000	1	1	0	1	0
212	133	1	10000	1	1	0	1	0
208	134	1	10000	1	1	0	1	0
200	135	1	10000	1	1	0	1	0
195	136	1	10000	1	1	0	1	0
187	137	1	10000	1	1	0	1	0
189	138	1	10000	1	1	0	1	0
193	139	1	10000	1	1	0	1	0
190	140	1	10000	1	1	0	1	0
185	141	1	10000	1	1	0	1	0
191	142	1	10000	1	1	0	1	0
195	143	1	10000	1	1	0	1	0
195	144	1	10000	1	1	0	1	0
214	145	1	10000	1	1	0	1	0
233	146	1	10000	1	1	0	1	0
239	147	1	10000	1	1	0	1	0
233	148	1	10000	1	1	0	1	0
223	149	1	10000	1	1	0	1	0
214	150	1	10000	1	1	0	1	0
210	151	1	10000	1	1	0	1	0
206	152	1	10000	1	1	0	1	0
206	153	1	10000	1	1	0	1	0
201	154	1	10000	1	1	0	1	0
203	155	1	10000	1	1	0	1	0
222	156	1	10000	1	1	0	1	0
224	157	1	10000	1	1	0	1	0
221	158	1	10000	1	1	0	1	0
219	159	1	10000	1	1	0	1	0
213	160	1	10000	1	1	0	1	0
218	161	1	10000	1	1	0	1	0
229	162	1	10000	1	1	0	1	0
229	163	1	10000	1	1	0	1	0
227	164	1	10000	1	1	0	1	0
240	165	1	10000	1	1	0	1	0
248	166	1	10000	1	1	0	1	0
245	167	1	10000	1	1	0	1	0
239	168	1	10000	1	1	0	1	0
235	169	1	10000	1	1	0	1	0
232	170	1	10000	1	1	0	1	0
232	171	1	10000	1	1	0	1	0
226	172	1	10000	1	1	0	1	0
219	173	1	10000	1	1	0	1	0
214	174	1	10000	1	1	0	1	0
208	175	1	10000	1	1	0	1	0
199	176	1	10000	1	1	0	1	0
195	177	1	10000	1	1	0	1	0
197	178	1	10000	1	1	0	1	0
199	179	1	10000	1	1	0	1	0
197	180	1	10000	1	1	0	1	0
194	181	1	10000	1	1	0	1	0
189	182	1	10000	1	1	0	1	0
187	183	1	10000	1	1	0	1	0
184	184	1	10000	1	1	0	1	0
193	185	1	10000	1	1	0	1	0
201	186	1	10000	1	1	0	1	0
196	187	1	10000	1	1	0	1	0
200	188	1	10000	1	1	0	1	0
214	189	1	10000	1	1	0	1	0
218	190	1	10000	1	1	0	1	0
215	191	1	10000	1	1	0	1	0
226	192	1	10000	1	1	0	1	0
236	193	1	10000	1	1	0	1	0
228	194	1	10000	1	1	0	1	0
228	195	1	10000	1	1	0	1	0
231	196	1	10000	1	1	0	1	0
230	197	1	10000	1	1	0	1	0
226	198	1	10000	1	1	0	1	0
219	199	1	10000	1	1	0	1	0
210	200	1	10000	1	1	0	1	0
201	201	1	10000	1	1	0	1	0
193	202	1	10000	1	1	0	1	0
184	203	1	10000	1	1	0	1	0
176	204	1	10000	1	1	0	1	0
173	205	1	10000	1	1	0	1	0
173	206	1	10000	1	1	0	1	0
166	207	1	10000	1	1	0	1	0
160	208	1	10000	1	1	0	1	0
154	209	1	10000	1	1	0	1	0
153	210	1	10000	1	1	0	1	0
154	211	1	10000	1	1	0	1	0
158	212	1	10000	1	1	0	1	0
160	213	1	10000	1	1	0	1	0
155	214	1	10000	1	1	0	1	0
162	215	1	10000	1	1	0	1	0
170	216	1	10000	1	1	0	1	0
177	217	1	10000	1	1	0	1	0
177	218	1	10000	1	1	0	1	0
183	219	1	10000	1	1	0	1	0
181	220	1	10000	1	1	0	1	0
187	221	1	10000	1	1	0	1	0
184	222	1	10000	1	1	0	1	0
183	223	1	10000	1	1	0	1	0
182	224	1	10000	1	1	0	1	0
176	225	1	10000	1	1	0	1	0
182	226	1	10000	1	1	0	1	0
189	227	1	10000	1	1	0	1	0
196	228	1	10000	1	1	0	1	0
197	229	1	10000	1	1	0	1	0
189	230	1	10000	1	1	0	1	0
186	231	1	10000	1	1	0	1	0
183	232	1	10000	1	1	0	1	0
182	233	1	10000	1	1	0	1	0
189	234	1	10000	1	1	0	1	0
193	235	1	10000	1	1	0	1	0
188	236	1	10000	1	1	0	1	0
185	237	1	10000	1	1	0	1	0
191	238	1	10000	1	1	0	1	0
197	239	1	10000	1	1	0	1	0
194	240	1	10000	1	1	0	1	0
213	241	1	10000	1	1	0	1	0
234	242	1	10000	1	1	0	1	0
241	243	1	10000	1	1	0	1	0
238	244	1	10000	1	1	0	1	0
237	245	1	10000	1	1	0	1	0
247	246	1	10000	1	1	0	1	0
256	247	1	10000	1	1	0	1	0
251	248	1	10000	1	1	0	1	0
261	249	1	10000	1	1	0	1	0
273	250	1	10000	1	1	0	1	0
288	251	1	10000	1	1	0	1	0
288	252	1	10000	1	1	0	1	0
279	253	1	10000	1	1	0	1	0
280	254	1	10000	1	1	0	1	0
281	255	1	10000	1	1	0	1	0
270	256	1	10000	1	1	0	1	0
258	257	1	10000	1	1	0	1	0
250	258	1	10000	1	1	0	1	0
243	259	1	10000	1	1	0	1	0
240	260	1	10000	1	1	0	1	0
243	261	1	10000	1	1	0	1	0
250	262	1	10000	1	1	0	1	0
243	263	1	10000	1	1	0	1	0
238	264	1	10000	1	1	0	1	0
228	265	1	10000	1	1	0	1	0
224	266	1	10000	1	1	0	1	0
224	267	1	10000	1	1	0	1	0
218	268	1	10000	1	1	0	1	0
208	269	1	10000	1	1	0	1	0
203	270	1	10000	1	1	0	1	0
197	271	1	10000	1	1	0	1	0
193	272	1	10000	1	1	0	1	0
195	273	1	10000	1	1	0	1	0
195	274	1	10000	1	1	0	1	0
198	275	1	10000	1	1	0	1	0
198	276	1	10000	1	1	0	1	0
197	277	1	10000	1	1	0	1	0
190	278	1	10000	1	1	0	1	0
195	279	1	10000	1	1	0	1	0
197	280	1	10000	1	1	0	1	0
218	281	1	10000	1	1	0	1	0
232	282	1	10000	1	1	0	1	0
224	283	1	10000	1	1	0	1	0
227	284	1	10000	1	1	0	1	0
227	285	1	10000	1	1	0	1	0
224	286	1	10000	1	1	0	1	0
218	287	1	10000	1	1	0	1	0
210	288	1	10000	1	1	0	1	0
210	289	1	10000	1	1	0	1	0
222	290	1	10000	1	1	0	1	0
222	291	1	10000	1	1	0	1	0
219	292	1	10000	1	1	0	1	0
228	293	1	10000	1	1	0	1	0
231	294	1	10000	1	1	0	1	0
226	295	1	10000	1	1	0	1	0
219	296	1	10000	1	1	0	1	0
210	297	1	10000	1	1	0	1	0
207	298	1	10000	1	1	0	1	0
204	299	1	10000	1	1	0	1	0
203	300	1	10000	1	1	0	1	0
202	301	1	10000	1	1	0	1	0
202	302	1	10000	1	1	0	1	0
192	303	1	10000	1	1	0	1	0
186	304	1	10000	1	1	0	1	0
178	305	1	10000	1	1	0	1	0
183	306	1	10000	1	1	0	1	0
182	307	1	10000	1	1	0	1	0
186	308	1	10000	1	1	0	1	0
188	309	1	10000	1	1	0	1	0
188	310	1	10000	1	1	0	1	0
198	311	1	10000	1	1	0	1	0
207	312	1	10000	1	1	0	1	0
206	313	1	10000	1	1	0	1	0
198	314	1	10000	1	1	0	1	0
197	315	1	10000	1	1	0	1	0
194	316	1	10000	1	1	0	1	0
190	317	1	10000	1	1	0	1	0
187	318	1	10000	1	1	0	1	0
188	319	1	10000	1	1	0	1	0
189	320	1	10000	1	1	0	1	0
183	321	1	10000	1	1	0	1	0
178	322	1	10000	1	1	0	1	0
176	323	1	10000	1	1	0	1	0
180	324	1	10000	1	1	0	1	0
182	325	1	10000	1	1	0	1	0
180	326	1	10000	1	1	0	1	0
183	327	1	10000	1	1	0	1	0
190	328	1	10000	1	1	0	1	0
196	329	1	10000	1	1	0	1	0
192	330	1	10000	1	1	0	1	0
184	331	1	10000	1	1	0	1	0
180	332	1	10000	1	1	0	1	0
181	333	1	10000	1	1	0	1	0
182	334	1	10000	1	1	0	1	0
193	335	1	10000	1	1	0	1	0
203	336	1	10000	1	1	0	1	0
201	337	1	10000	1	1	0	1	0
193	338	1	10000	1	1	0	1	0
197	339	1	10000	1	1	0	1	0
201	340	1	10000	1	1	0	1	0
197	341	1	10000	1	1	0	1	0
192	342	1	10000	1	1	0	1	0
188	343	1	10000	1	1	0	1	0
192	344	1	10000	1	1	0	1	0
192	345	1	10000	1	1	0	1	0
191	346	1	10000	1	1	0	1	0
187	347	1	10000	1	1	0	1	0
180	348	1	10000	1	1	0	1	0
175	349	1	10000	1	1	0	1	0
176	350	1	10000	1	1	0	1	0
189	351	1	10000	1	1	0	1	0
193	352	1	10000	1	1	0	1	0
188	353	1	10000	1	1	0	1	0
181	354	1	10000	1	1	0	1	0
179	355	1	10000	1	1	0	1	0
173	356	1	10000	1	1	0	1	0
171	357	1	10000	1	1	0	1	0
174	358	1	10000	1	1	0	1	0
176	359	1	10000	1	1	0	1	0
179	360	1	10000	1	1	0	1	0
174	361	1	10000	1	1	0	1	0
167	362	1	10000	1	1	0	1	0
159	363	1	10000	1	1	0	1	0
155	364	1	10000	1	1	0	1	0
158	365	1	10000	1	1	0	1	0
165	366	1	10000	1	1	0	1	0
163	367	1	10000	1	1	0	1	0
166	368	1	10000	1	1	0	1	0
161	369	1	10000	1	1	0	1	0
156	370	1	10000	1	1	0	1	0
155	371	1	10000	1	1	0	1	0
152	372	1	10000	1	1	0	1	0
149	373	1	10000	1	1	0	1	0
143	374	1	10000	1	1	0	1	0
141	375	1	10000	1	1	0	1	0
139	376	1	10000	1	1	0	1	0
133	377	1	10000	1	1	0	1	0
132	378	1	10000	1	1	0	1	0
135	379	1	10000	1	1	0	1	0
135	380	1	10000	1	1	0	1	0
132	381	1	10000	1	1	0	1	0
130	382	1	10000	1	1	0	1	0
133	383	1	10000	1	1	0	1	0
133	384	1	10000	1	1	0	1	0
129	385	1	10000	1	1	0	1	0
128	386	1	10000	1	1	0	1	0
126	387	1	10000	1	1	0	1	0
121	388	1	10000	1	1	0	1	0
122	389	1	10000	1	1	0	1	0
127	390	1	10000	1	1	0	1	0
133	391	1	10000	1	1	0	1	0
142	392	1	10000	1	1	0	1	0
142	393	1	10000	1	1	0	1	0
146	394	1	10000	1	1	0	1	0
148	395	1	10000	1	1	0	1	0
143	396	1	10000	1	1	0	1	0
138	397	1	10000	1	1	0	1	0
137	398	1	10000	1	1	0	1	0
134	399	1	10000	1	1	0	1	0
130	400	1	10000	1	1	0	1	0
128	401	1	10000	1	1	0	1	0
122	402	1	10000	1	1	0	1	0
125	403	1	10000	1	1	0	1	0
132	404	1	10000	1	1	0	1	0
130	405	1	10000	1	1	0	1	0
135	406	1	10000	1	1	0	1	0
139	407	1	10000	1	1	0	1	0
136	408	1	10000	1	1	0	1	0
141	409	1	10000	1	1	0	1	0
148	410	1	10000	1	1	0	1	0
155	411	1	10000	1	1	0	1	0
154	412	1	10000	1	1	0	1	0
158	413	1	10000	1	1	0	1	0
168	414	1	10000	1	1	0	1	0
169	415	1	10000	1	1	0	1	0
164	416	1	10000	1	1	0	1	0
158	417	1	10000	1	1	0	1	0
161	418	1	10000	1	1	0	1	0
157	419	1	10000	1	1	0	1	0
164	420	1	10000	1	1	0	1	0
164	421	1	10000	1	1	0	1	0
166	422	1	10000	1	1	0	1	0
168	423	1	10000	1	1	0	1	0
166	424	1	10000	1	1	0	1	0
168	425	1	10000	1	1	0	1	0
165	426	1	10000	1	1	0	1	0
165	427	1	10000	1	1	0	1	0
163	428	1	10000	1	1	0	1	0
158	429	1	10000	1	1	0	1	0
154	430	1	10000	1	1	0	1	0
156	431	1	10000	1	1	0	1	0
158	432	1	10000	1	1	0	1	0
160	433	1	10000	1	1	0	1	0
158	434	1	10000	1	1	0	1	0
158	435	1	10000	1	1	0	1	0
153	436	1	10000	1	1	0	1	0
148	437	1	10000	1	1	0	1	0
142	438	1	10000	1	1	0	1	0
139	439	1	10000	1	1	0	1	0
137	440	1	10000	1	1	0	1	0
134	441	1	10000	1	1	0	1	0
131	442	1	10000	1	1	0	1	0
134	443	1	10000	1	1	0	1	0
140	444	1	10000	1	1	0	1	0
140	445	1	10000	1	1	0	1	0
140	446	1	10000	1	1	0	1	0
135	447	1	10000	1	1	0	1	0
130	448	1	10000	1	1	0	1	0
127	449	1	10000	1	1	0	1	0
121	450	1	10000	1	1	0	1	0
117	451	1	10000	1	1	0	1	0
113	452	1	10000	1	1	0	1	0
111	453	1	10000	1	1	0	1	0
107	454	1	10000	1	1	0	1	0
101	455	1	10000	1	1	0	1	0
97	456	1	10000	1	1	0	1	0
92	457	1	10000	1	1	0	1	0
90	458	1	10000	1	1	0	1	0
89	459	1	10000	1	1	0	1	0
98	460	1	10000	1	1	0	1	0
104	461	1	10000	1	1	0	1	0
103	462	1	10000	1	1	0	1	0
106	463	1	10000	1	1	0	1	0
115	464	1	10000	1	1	0	1	0
120	465	1	10000	1	1	0	1	0
119	466	1	10000	1	1	0	1	0
114	467	1	10000	1	1	0	1	0
111	468	1	10000	1	1	0	1	0
110	469	1	10000	1	1	0	1	0
120	470	1	10000	1	1	0	1	0
139	471	1	10000	1	1	0	1	0
142	472	1	10000	1	1	0	1	0
146	473	1	10000	1	1	0	1	0
157	474	1	10000	1	1	0	1	0
179	475	1	10000	1	1	0	1	0
180	476	1	10000	1	1	0	1	0
193	477	1	10000	1	1	0	1	0
210	478	1	10000	1	1	0	1	0
226	479	1	10000	1	1	0	1	0
240	480	1	10000	1	1	0	1	0
246	481	1	10000	1	1	0	1	0
241	482	1	10000	1	1	0	1	0
230	483	1	10000	1	1	0	1	0
225	484	1	10000	1	1	0	1	0
221	485	1	10000	1	1	0	1	0
223	486	1	10000	1	1	0	1	0
230	487	1	10000	1	1	0	1	0
224	488	1	10000	1	1	0	1	0
222	489	1	10000	1	1	0	1	0
226	490	1	10000	1	1	0	1	0
227	491	1	10000	1	1	0	1	0
221	492	1	10000	1	1	0	1	0
214	493	1	10000	1	1	0	1	0
206	494	1	10000	1	1	0	1	0
197	495	1	10000	1	1	0	1	0
191	496	1	10000	1	1	0	1	0
199	497	1	10000	1	1	0	1	0
197	498	1	10000	1	1	0	1	0
189	499	1	10000	1	1	0	1	0
183	500	1	10000	1	1	0	1	0
177	544	1	10000	1	1	0	1	1
171	545	1	10000	1	1	0	1	1
167	546	1	10000	1	1	0	1	1
170	547	1	10000	1	1	0	1	1
178	548	1	10000	1	1	0	1	1
176	549	1	10000	1	1	0	1	1
173	550	1	10000	1	1	0	1	1
168	551	1	10000	1	1	0	1	1
169	552	1	10000	1	1	0	1	1
168	553	1	10000	1	1	0	1	1
162	554	1	10000	1	1	0	1	1
155	555	1	10000	1	1	0	1	1
154	556	1	10000	1	1	0	1	1
165	557	1	10000	1	1	0	1	1
165	558	1	10000	1	1	0	1	1
160	559	1	10000	1	1	0	1	1
158	560	1	10000	1	1	0	1	1
162	561	1	10000	1	1	0	1	1
160	562	1	10000	1	1	0	1	1
165	563	1	10000	1	1	0	1	1
176	564	1	10000	1	1	0	1	1
193	565	1	10000	1	1	0	1	1
208	566	1	10000	1	1	0	1	1
213	567	1	10000	1	1	0	1	1
206	568	1	10000	1	1	0	1	1
200	569	1	10000	1	1	0	1	1
198	570	1	10000	1	1	0	1	1
199	571	1	10000	1	1	0	1	1
193	572	1	10000	1	1	0	1	1
185	573	1	10000	1	1	0	1	1
182	574	1	10000	1	1	0	1	1
186	575	1	10000	1	1	0	1	1
194	576	1	10000	1	1	0	1	1
194	577	1	10000	1	1	0	1	1
188	578	1	10000	1	1	0	1	1
185	579	1	10000	1	1	0	1	1
178	580	1	10000	1	1	0	1	1
169	581	1	10000	1	1	0	1	1
164	582	1	10000	1	1	0	1	1
163	583	1	10000	1	1	0	1	1
156	584	1	10000	1	1	0	1	1
150	585	1	10000	1	1	0	1	1
152	586	1	10000	1	1	0	1	1
147	587	1	10000	1	1	0	1	1
141	588	1	10000	1	1	0	1	1
136	589	1	10000	1	1	0	1	1
132	548	1	10000	1	1	0	1	1
131	549	1	10000	1	1	0	1	1
128	550	1	10000	1	1	0	1	1
128	551	1	10000	1	1	0	1	1
132	551	1	10000	1	1	0	1	0
132	552	1	10000	1	1	0	1	0
129	553	1	10000	1	1	0	1	0
123	554	1	10000	1	1	0	1	0
121	555	1	10000	1	1	0	1	0
121	556	1	10000	1	1	0	1	0
119	557	1	10000	1	1	0	1	0
131	558	1	10000	1	1	0	1	0
147	559	1	10000	1	1	0	1	0
148	560	1	10000	1	1	0	1	0
155	561	1	10000	1	1	0	1	0
167	562	1	10000	1	1	0	1	0
169	563	1	10000	1	1	0	1	0
169	564	1	10000	1	1	0	1	0
168	565	1	10000	1	1	0	1	0
162	566	1	10000	1	1	0	1	0
155	567	1	10000	1	1	0	1	0
155	568	1	10000	1	1	0	1	0
155	569	1	10000	1	1	0	1	0
152	570	1	10000	1	1	0	1	0
155	571	1	10000	1	1	0	1	0
159	572	1	10000	1	1	0	1	0
156	573	1	10000	1	1	0	1	0
160	574	1	10000	1	1	0	1	0
159	575	1	10000	1	1	0	1	0
172	576	1	10000	1	1	0	1	0
192	577	1	10000	1	1	0	1	0
209	578	1	10000	1	1	0	1	0
223	579	1	10000	1	1	0	1	0
219	580	1	10000	1	1	0	1	0
225	581	1	10000	1	1	0	1	0
229	582	1	10000	1	1	0	1	0
223	583	1	10000	1	1	0	1	0
216	584	1	10000	1	1	0	1	0
207	585	1	10000	1	1	0	1	0
200	586	1	10000	1	1	0	1	0
196	587	1	10000	1	1	0	1	0
190	588	1	10000	1	1	0	1	0
197	589	1	10000	1	1	0	1	0
193	590	1	10000	1	1	0	1	0
199	591	1	10000	1	1	0	1	0
200	592	1	10000	1	1	0	1	0
197	593	1	10000	1	1	0	1	0
201	594	1	10000	1	1	0	1	0
201	595	1	10000	1	1	0	1	0
195	596	1	10000	1	1	0	1	0
195	597	1	10000	1	1	0	1	0
196	598	1	10000	1	1	0	1	0
192	599	1	10000	1	1	0	1	0
184	600	1	10000	1	1	0	1	0
179	601	1	10000	1	1	0	1	0
174	602	1	10000	1	1	0	1	0
166	603	1	10000	1	1	0	1	0
163	604	1	10000	1	1	0	1	0
161	605	1	10000	1	1	0	1	0
157	606	1	10000	1	1	0	1	0
151	607	1	10000	1	1	0	1	0
144	608	1	10000	1	1	0	1	0
139	609	1	10000	1	1	0	1	0
134	610	1	10000	1	1	0	1	0
131	611	1	10000	1	1	0	1	0
135	612	1	10000	1	1	0	1	0
138	613	1	10000	1	1	0	1	0
135	614	1	10000	1	1	0	1	0
130	615	1	10000	1	1	0	1	0
127	616	1	10000	1	1	0	1	0
127	617	1	10000	1	1	0	1	0
123	618	1	10000	1	1	0	1	0
118	619	1	10000	1	1	0	1	0
115	620	1	10000	1	1	0	1	0
116	621	1	10000	1	1	0	1	0
111	622	1	10000	1	1	0	1	0
112	623	1	10000	1	1	0	1	0
111	624	1	10000	1	1	0	1	0
107	625	1	10000	1	1	0	1	0
106	626	1	10000	1	1	0	1	0
105	627	1	10000	1	1	0	1	0
102	628	1	10000	1	1	0	1	0
107	629	1	10000	1	1	0	1	0
126	630	1	10000	1	1	0	1	0
123	631	1	10000	1	1	0	1	0
129	632	1	10000	1	1	0	1	0
134	633	1	10000	1	1	0	1	0
136	634	1	10000	1	1	0	1	0
136	635	1	10000	1	1	0	1	0
146	636	1	10000	1	1	0	1	0
145	637	1	10000	1	1	0	1	0
160	638	1	10000	1	1	0	1	0
181	639	1	10000	1	1	0	1	0
183	640	1	10000	1	1	0	1	0
185	641	1	10000	1	1	0	1	0
185	642	1	10000	1	1	0	1	0
204	643	1	10000	1	1	0	1	0
255	644	1	10000	1	1	0	1	0
289	645	1	10000	1	1	0	1	0
291	646	1	10000	1	1	0	1	0
323	647	1	10000	1	1	0	1	0
348	648	1	10000	1	1	0	1	0
360	649	1	10000	1	1	0	1	0
357	650	1	10000	1	1	0	1	0
377	651	1	10000	1	1	0	1	0
422	652	1	10000	1	1	0	1	0
467	653	1	10000	1	1	0	1	0
467	654	1	10000	1	1	0	1	0
494	655	1	10000	1	1	0	1	0
525	656	1	10000	1	1	0	1	0
520	657	1	10000	1	1	0	1	0
542	658	1	10000	1	1	0	1	0
567	659	1	10000	1	1	0	1	0
559	660	1	10000	1	1	0	1	0
562	661	1	10000	1	1	0	1	0
563	662	1	10000	1	1	0	1	0
595	663	1	10000	1	1	0	1	0
597	664	1	10000	1	1	0	1	0
627	665	1	10000	1	1	0	1	0
615	666	1	10000	1	1	0	1	0
639	667	1	10000	1	1	0	1	0
632	668	1	10000	1	1	0	1	0
658	669	1	10000	1	1	0	1	0
680	670	1	10000	1	1	0	1	0
683	671	1	10000	1	1	0	1	0
672	672	1	10000	1	1	0	1	0
704	673	1	10000	1	1	0	1	0
741	674	1	10000	1	1	0	1	0
774	675	1	10000	1	1	0	1	0
803	676	1	10000	1	1	0	1	0
823	677	1	10000	1	1	0	1	0
838	678	1	10000	1	1	0	1	0
848	679	1	10000	1	1	0	1	0
858	680	1	10000	1	1	0	1	0
856	681	1	10000	1	1	0	1	0
848	682	1	10000	1	1	0	1	0
835	683	1	10000	1	1	0	1	0
822	684	1	10000	1	1	0	1	0
812	685	1	10000	1	1	0	1	0
808	686	1	10000	1	1	0	1	0
793	687	1	10000	1	1	0	1	0
765	688	1	10000	1	1	0	1	0
736	689	1	10000	1	1	0	1	0
711	690	1	10000	1	1	0	1	0
684	691	1	10000	1	1	0	1	0
656	692	1	10000	1	1	0	1	0
629	693	1	10000	1	1	0	1	0
603	694	1	10000	1	1	0	1	0
580	695	1	10000	1	1	0	1	0
559	696	1	10000	1	1	0	1	0
548	697	1	10000	1	1	0	1	0
548	698	1	10000	1	1	0	1	0
549	699	1	10000	1	1	0	1	0
541	700	1	10000	1	1	0	1	0
535	701	1	10000	1	1	0	1	0
535	702	1	10000	1	1	0	1	0
541	703	1	10000	1	1	0	1	0
552	704	1	10000	1	1	0	1	0
560	705	1	10000	1	1	0	1	0
562	706	1	10000	1	1	0	1	0
564	707	1	10000	1	1	0	1	0
570	708	1	10000	1	1	0	1	0
574	709	1	10000	1	1	0	1	0
580	710	1	10000	1	1	0	1	0
585	711	1	10000	1	1	0	1	0
594	712	1	10000	1	1	0	1	0
603	713	1	10000	1	1	0	1	0
609	714	1	10000	1	1	0	1	0
616	715	1	10000	1	1	0	1	0
622	716	1	10000	1	1	0	1	0
634	717	1	10000	1	1	0	1	0
651	718	1	10000	1	1	0	1	0
665	719	1	10000	1	1	0	1	0
670	720	1	10000	1	1	0	1	0
666	721	1	10000	1	1	0	1	0
660	722	1	10000	1	1	0	1	0
649	723	1	10000	1	1	0	1	0
635	724	1	10000	1	1	0	1	0
620	725	1	10000	1	1	0	1	0
606	726	1	10000	1	1	0	1	0
590	727	1	10000	1	1	0	1	0
576	728	1	10000	1	1	0	1	0
557	729	1	10000	1	1	0	1	0
535	730	1	10000	1	1	0	1	0
519	731	1	10000	1	1	0	1	0
535	732	1	10000	1	1	0	1	0
554	733	1	10000	1	1	0	1	0
545	734	1	10000	1	1	0	1	0
524	735	1	10000	1	1	0	1	0
517	736	1	10000	1	1	0	1	0
514	737	1	10000	1	1	0	1	0
511	738	1	10000	1	1	0	1	0
502	739	1	10000	1	1	0	1	0
484	740	1	10000	1	1	0	1	0
465	741	1	10000	1	1	0	1	0
450	742	1	10000	1	1	0	1	0
434	743	1	10000	1	1	0	1	0
417	744	1	10000	1	1	0	1	0
400	745	1	10000	1	1	0	1	0
384	746	1	10000	1	1	0	1	0
370	747	1	10000	1	1	0	1	0
375	748	1	10000	1	1	0	1	0
390	749	1	10000	1	1	0	1	0
404	750	1	10000	1	1	0	1	0
411	751	1	10000	1	1	0	1	0
402	752	1	10000	1	1	0	1	0
400	753	1	10000	1	1	0	1	0
405	754	1	10000	1	1	0	1	0
406	755	1	10000	1	1	0	1	0
394	756	1	10000	1	1	0	1	0
392	757	1	10000	1	1	0	1	0
395	758	1	10000	1	1	0	1	0
397	759	1	10000	1	1	0	1	0
394	760	1	10000	1	1	0	1	0
382	761	1	10000	1	1	0	1	0
369	762	1	10000	1	1	0	1	0
361	763	1	10000	1	1	0	1	0
352	764	1	10000	1	1	0	1	0
342	765	1	10000	1	1	0	1	0
339	766	1	10000	1	1	0	1	0
331	767	1	10000	1	1	0	1	0
319	768	1	10000	1	1	0	1	0
315	769	1	10000	1	1	0	1	0
316	770	1	10000	1	1	0	1	0
305	771	1	10000	1	1	0	1	0
305	772	1	10000	1	1	0	1	0
305	773	1	10000	1	1	0	1	0
300	774	1	10000	1	1	0	1	0
313	775	1	10000	1	1	0	1	0
329	776	1	10000	1	1	0	1	0
333	777	1	10000	1	1	0	1	0
329	778	1	10000	1	1	0	1	0
325	779	1	10000	1	1	0	1	0
318	780	1	10000	1	1	0	1	0
306	781	1	10000	1	1	0	1	0
294	782	1	10000	1	1	0	1	0
280	783	1	10000	1	1	0	1	0
269	784	1	10000	1	1	0	1	0
264	785	1	10000	1	1	0	1	0
260	786	1	10000	1	1	0	1	0
251	787	1	10000	1	1	0	1	0
241	788	1	10000	1	1	0	1	0
244	789	1	10000	1	1	0	1	0
267	790	1	10000	1	1	0	1	0
288	791	1	10000	1	1	0	1	0
288	792	1	10000	1	1	0	1	0
279	793	1	10000	1	1	0	1	0
265	794	1	10000	1	1	0	1	0
254	795	1	10000	1	1	0	1	0
244	796	1	10000	1	1	0	1	0
234	797	1	10000	1	1	0	1	0
227	798	1	10000	1	1	0	1	0
220	799	1	10000	1	1	0	1	0
219	800	1	10000	1	1	0	1	0
216	801	1	10000	1	1	0	1	0
208	802	1	10000	1	1	0	1	0
197	803	1	10000	1	1	0	1	0
193	804	1	10000	1	1	0	1	0
192	805	1	10000	1	1	0	1	0
196	806	1	10000	1	1	0	1	0
204	807	1	10000	1	1	0	1	0
209	808	1	10000	1	1	0	1	0
210	809	1	10000	1	1	0	1	0
207	810	1	10000	1	1	0	1	0
205	811	1	10000	1	1	0	1	0
204	812	1	10000	1	1	0	1	0
214	813	1	10000	1	1	0	1	0
216	814	1	10000	1	1	0	1	0
216	815	1	10000	1	1	0	1	0
230	816	1	10000	1	1	0	1	0
235	817	1	10000	1	1	0	1	0
228	818	1	10000	1	1	0	1	0
225	819	1	10000	1	1	0	1	0
220	820	1	10000	1	1	0	1	0
221	821	1	10000	1	1	0	1	0
225	822	1	10000	1	1	0	1	0
224	823	1	10000	1	1	0	1	0
225	824	1	10000	1	1	0	1	0
219	825	1	10000	1	1	0	1	0
232	826	1	10000	1	1	0	1	0
258	827	1	10000	1	1	0	1	0
277	828	1	10000	1	1	0	1	0
286	829	1	10000	1	1	0	1	0
292	830	1	10000	1	1	0	1	0
281	831	1	10000	1	1	0	1	0
269	832	1	10000	1	1	0	1	0
261	833	1	10000	1	1	0	1	0
252	834	1	10000	1	1	0	1	0
245	835	1	10000	1	1	0	1	0
256	836	1	10000	1	1	0	1	0
277	837	1	10000	1	1	0	1	0
279	838	1	10000	1	1	0	1	0
267	839	1	10000	1	1	0	1	0
256	840	1	10000	1	1	0	1	0
247	841	1	10000	1	1	0	1	0
237	842	1	10000	1	1	0	1	0
228	843	1	10000	1	1	0	1	0
224	844	1	10000	1	1	0	1	0
214	845	1	10000	1	1	0	1	0
206	846	1	10000	1	1	0	1	0
201	847	1	10000	1	1	0	1	0
199	848	1	10000	1	1	0	1	0
210	849	1	10000	1	1	0	1	0
227	850	1	10000	1	1	0	1	0
239	851	1	10000	1	1	0	1	0
233	852	1	10000	1	1	0	1	0
235	853	1	10000	1	1	0	1	0
238	854	1	10000	1	1	0	1	0
240	855	1	10000	1	1	0	1	0
243	856	1	10000	1	1	0	1	0
243	857	1	10000	1	1	0	1	0
239	858	1	10000	1	1	0	1	0
235	859	1	10000	1	1	0	1	0
228	860	1	10000	1	1	0	1	0
220	861	1	10000	1	1	0	1	0
215	862	1	10000	1	1	0	1	0
209	863	1	10000	1	1	0	1	0
201	864	1	10000	1	1	0	1	0
194	865	1	10000	1	1	0	1	0
187	866	1	10000	1	1	0	1	0
183	867	1	10000	1	1	0	1	0
179	868	1	10000	1	1	0	1	0
173	869	1	10000	1	1	0	1	0
165	870	1	10000	1	1	0	1	0
160	871	1	10000	1	1	0	1	0
159	872	1	10000	1	1	0	1	0
165	873	1	10000	1	1	0	1	0
169	874	1	10000	1	1	0	1	0
184	875	1	10000	1	1	0	1	0
182	876	1	10000	1	1	0	1	0
177	877	1	10000	1	1	0	1	0
170	878	1	10000	1	1	0	1	0
168	879	1	10000	1	1	0	1	0
167	880	1	10000	1	1	0	1	0
164	881	1	10000	1	1	0	1	0
158	882	1	10000	1	1	0	1	0
160	883	1	10000	1	1	0	1	0
173	884	1	10000	1	1	0	1	0
182	885	1	10000	1	1	0	1	0
185	886	1	10000	1	1	0	1	0
183	887	1	10000	1	1	0	1	0
182	888	1	10000	1	1	0	1	0
185	889	1	10000	1	1	0	1	0
178	890	1	10000	1	1	0	1	0
173	891	1	10000	1	1	0	1	0
168	892	1	10000	1	1	0	1	0
163	893	1	10000	1	1	0	1	0
156	894	1	10000	1	1	0	1	0
155	895	1	10000	1	1	0	1	0
152	896	1	10000	1	1	0	1	0
149	897	1	10000	1	1	0	1	0
150	898	1	10000	1	1	0	1	0
147	899	1	10000	1	1	0	1	0
161	900	1	10000	1	1	0	1	0
175	901	1	10000	1	1	0	1	0
175	902	1	10000	1	1	0	1	0
193	903	1	10000	1	1	0	1	0
204	904	1	10000	1	1	0	1	0
206	905	1	10000	1	1	0	1	0
213	906	1	10000	1	1	0	1	0
228	907	1	10000	1	1	0	1	0
249	908	1	10000	1	1	0	1	0
245	909	1	10000	1	1	0	1	0
251	910	1	10000	1	1	0	1	0
251	911	1	10000	1	1	0	1	0
244	912	1	10000	1	1	0	1	0
234	913	1	10000	1	1	0	1	0
228	914	1	10000	1	1	0	1	0
221	915	1	10000	1	1	0	1	0
213	916	1	10000	1	1	0	1	0
209	917	1	10000	1	1	0	1	0
204	918	1	10000	1	1	0	1	0
197	919	1	10000	1	1	0	1	0
192	920	1	10000	1	1	0	1	0
196	921	1	10000	1	1	0	1	0
206	922	1	10000	1	1	0	1	0
208	923	1	10000	1	1	0	1	0
201	924	1	10000	1	1	0	1	0
197	925	1	10000	1	1	0	1	0
196	926	1	10000	1	1	0	1	0
188	927	1	10000	1	1	0	1	0
185	928	1	10000	1	1	0	1	0
183	929	1	10000	1	1	0	1	0
180	930	1	10000	1	1	0	1	0
175	931	1	10000	1	1	0	1	0
176	932	1	10000	1	1	0	1	0
176	933	1	10000	1	1	0	1	0
175	934	1	10000	1	1	0	1	0
175	935	1	10000	1	1	0	1	0
169	936	1	10000	1	1	0	1	0
172	937	1	10000	1	1	0	1	0
180	938	1	10000	1	1	0	1	0
181	939	1	10000	1	1	0	1	0
176	940	1	10000	1	1	0	1	0
175	941	1	10000	1	1	0	1	0
176	942	1	10000	1	1	0	1	0
181	943	1	10000	1	1	0	1	0
181	944	1	10000	1	1	0	1	0
174	945	1	10000	1	1	0	1	0
170	946	1	10000	1	1	0	1	0
164	947	1	10000	1	1	0	1	0
159	948	1	10000	1	1	0	1	0
153	949	1	10000	1	1	0	1	0
147	950	1	10000	1	1	0	1	0
146	951	1	10000	1	1	0	1	0
149	952	1	10000	1	1	0	1	0
155	953	1	10000	1	1	0	1	0
149	954	1	10000	1	1	0	1	0
143	955	1	10000	1	1	0	1	0
140	956	1	10000	1	1	0	1	0
136	957	1	10000	1	1	0	1	0
139	958	1	10000	1	1	0	1	0
136	959	1	10000	1	1	0	1	0
131	960	1	10000	1	1	0	1	0
128	961	1	10000	1	1	0	1	0
123	962	1	10000	1	1	0	1	0
124	963	1	10000	1	1	0	1	0
139	964	1	10000	1	1	0	1	0
165	965	1	10000	1	1	0	1	0
178	966	1	10000	1	1	0	1	0
173	967	1	10000	1	1	0	1	0
170	968	1	10000	1	1	0	1	0
166	969	1	10000	1	1	0	1	0
168	970	1	10000	1	1	0	1	0
168	971	1	10000	1	1	0	1	0
162	972	1	10000	1	1	0	1	0
160	973	1	10000	1	1	0	1	0
154	974	1	10000	1	1	0	1	0
147	975	1	10000	1	1	0	1	0
147	976	1	10000	1	1	0	1	0
143	977	1	10000	1	1	0	1	0
140	978	1	10000	1	1	0	1	0
143	979	1	10000	1	1	0	1	0
142	980	1	10000	1	1	0	1	0
137	981	1	10000	1	1	0	1	0
146	982	1	10000	1	1	0	1	0
169	983	1	10000	1	1	0	1	0
176	984	1	10000	1	1	0	1	0
177	985	1	10000	1	1	0	1	0
188	986	1	10000	1	1	0	1	0
198	987	1	10000	1	1	0	1	0
201	988	1	10000	1	1	0	1	0
200	989	1	10000	1	1	0	1	0
194	990	1	10000	1	1	0	1	0
188	991	1	10000	1	1	0	1	0
183	992	1	10000	1	1	0	1	0
182	993	1	10000	1	1	0	1	0
186	994	1	10000	1	1	0	1	0
191	995	1	10000	1	1	0	1	0
198	996	1	10000	1	1	0	1	0
197	997	1	10000	1	1	0	1	0
192	998	1	10000	1	1	0	1	0
188	999	1	10000	1	1	0	1	0
184	1000	1	10000	1	1	0	1	0
46	2	0	10000	2	1	0	2	0
45	3	0	10000	2	1	0	2	0
44	4	0	10000	2	1	0	2	0
44	5	0	10000	2	1	0	2	0
43	6	0	10000	2	1	0	2	0
42	7	0	10000	2	1	0	2	0
42	8	0	10000	2	1	0	2	0
44	9	0	10000	2	1	0	2	0
42	10	0	10000	2	1	0	2	0
42	11	0	10000	2	1	0	2	0
41	12	0	10000	2	1	0	2	0
42	13	0	10000	2	1	0	2	0
42	14	0	10000	2	1	0	2	0
40	15	0	10000	2	1	0	2	0
39	16	0	10000	2	1	0	2	0
40	17	0	10000	2	1	0	2	0
39	18	0	10000	2	1	0	2	0
39	19	0	10000	2	1	0	2	0
38	20	0	10000	2	1	0	2	0
38	21	0	10000	2	1	0	2	0
41	22	0	10000	2	1	0	2	0
42	23	0	10000	2	1	0	2	0
42	24	0	10000	2	1	0	2	0
41	25	0	10000	2	1	0	2	0
40	26	0	10000	2	1	0	2	0
39	27	0	10000	2	1	0	2	0
42	28	0	10000	2	1	0	2	0
43	29	0	10000	2	1	0	2	0
42	30	0	10000	2	1	0	2	0
40	31	0	10000	2	1	0	2	0
38	32	0	10000	2	1	0	2	0
39	33	0	10000	2	1	0	2	0
37	34	0	10000	2	1	0	2	0
36	35	0	10000	2	1	0	2	0
34	36	0	10000	2	1	0	2	0
34	37	0	10000	2	1	0	2	0
33	38	0	10000	2	1	0	2	0
32	39	0	10000	2	1	0	2	0
31	40	0	10000	2	1	0	2	0
31	41	0	10000	2	1	0	2	0
31	42	0	10000	2	1	0	2	0
30	43	0	10000	2	1	0	2	0
32	44	0	10000	2	1	0	2	0
33	45	0	10000	2	1	0	2	0
32	46	0	10000	2	1	0	2	0
32	47	0	10000	2	1	0	2	0
34	48	0	10000	2	1	0	2	0
35	49	0	10000	2	1	0	2	0
35	50	0	10000	2	1	0	2	0
35	51	0	10000	2	1	0	2	0
37	52	0	10000	2	1	0	2	0
39	53	0	10000	2	1	0	2	0
38	54	0	10000	2	1	0	2	0
39	55	0	10000	2	1	0	2	0
38	56	0	10000	2	1	0	2	0
37	57	0	10000	2	1	0	2	0
36	58	0	10000	2	1	0	2	0
35	59	0	10000	2	1	0	2	0
36	60	0	10000	2	1	0	2	0
35	61	0	10000	2	1	0	2	0
35	62	0	10000	2	1	0	2	0
32	63	0	10000	2	1	0	2	0
32	64	0	10000	2	1	0	2	0
31	65	0	10000	2	1	0	2	0
30	66	0	10000	2	1	0	2	0
31	67	0	10000	2	1	0	2	0
30	68	0	10000	2	1	0	2	0
29	69	0	10000	2	1	0	2	0
28	70	0	10000	2	1	0	2	0
28	71	0	10000	2	1	0	2	0
27	72	0	10000	2	1	0	2	0
29	73	0	10000	2	1	0	2	0
29	74	0	10000	2	1	0	2	0
28	75	0	10000	2	1	0	2	0
28	76	0	10000	2	1	0	2	0
29	77	0	10000	2	1	0	2	0
29	78	0	10000	2	1	0	2	0
27	79	0	10000	2	1	0	2	0
28	80	0	10000	2	1	0	2	0
28	81	0	10000	2	1	0	2	0
27	82	0	10000	2	1	0	2	0
25	83	0	10000	2	1	0	2	0
27	84	0	10000	2	1	0	2	0
27	85	0	10000	2	1	0	2	0
27	86	0	10000	2	1	0	2	0
27	87	0	10000	2	1	0	2	0
31	88	0	10000	2	1	0	2	0
34	89	0	10000	2	1	0	2	0
33	90	0	10000	2	1	0	2	0
32	91	0	10000	2	1	0	2	0
32	92	0	10000	2	1	0	2	0
34	93	0	10000	2	1	0	2	0
34	94	0	10000	2	1	0	2	0
33	95	0	10000	2	1	0	2	0
33	96	0	10000	2	1	0	2	0
32	97	0	10000	2	1	0	2	0
32	98	0	10000	2	1	0	2	0
31	99	0	10000	2	1	0	2	0
31	100	0	10000	2	1	0	2	0
31	101	0	10000	2	1	0	2	0
31	102	0	10000	2	1	0	2	0
30	103	0	10000	2	1	0	2	0
29	104	0	10000	2	1	0	2	0
28	105	0	10000	2	1	0	2	0
28	106	0	10000	2	1	0	2	0
27	107	0	10000	2	1	0	2	0
27	108	0	10000	2	1	0	2	0
27	109	0	10000	2	1	0	2	0
26	110	0	10000	2	1	0	2	0
28	111	0	10000	2	1	0	2	0
29	112	0	10000	2	1	0	2	0
32	113	0	10000	2	1	0	2	0
31	114	0	10000	2	1	0	2	0
30	115	0	10000	2	1	0	2	0
29	116	0	10000	2	1	0	2	0
29	117	0	10000	2	1	0	2	0
28	118	0	10000	2	1	0	2	0
27	119	0	10000	2	1	0	2	0
28	120	0	10000	2	1	0	2	0
30	121	0	10000	2	1	0	2	0
29	122	0	10000	2	1	0	2	0
26	123	0	10000	2	1	0	2	0
27	124	0	10000	2	1	0	2	0
28	125	0	10000	2	1	0	2	0
29	126	0	10000	2	1	0	2	0
30	127	0	10000	2	1	0	2	0
31	128	0	10000	2	1	0	2	0
31	129	0	10000	2	1	0	2	0
30	130	0	10000	2	1	0	2	0
30	131	0	10000	2	1	0	2	0
30	132	0	10000	2	1	0	2	0
32	133	0	10000	2	1	0	2	0
33	134	0	10000	2	1	0	2	0
35	135	0	10000	2	1	0	2	0
37	136	0	10000	2	1	0	2	0
40	137	0	10000	2	1	0	2	0
39	138	0	10000	2	1	0	2	0
39	139	0	10000	2	1	0	2	0
40	140	0	10000	2	1	0	2	0
41	141	0	10000	2	1	0	2	0
41	142	0	10000	2	1	0	2	0
37	143	0	10000	2	1	0	2	0
37	144	0	10000	2	1	0	2	0
35	145	0	10000	2	1	0	2	0
36	146	0	10000	2	1	0	2	0
37	147	0	10000	2	1	0	2	0
36	148	0	10000	2	1	0	2	0
35	149	0	10000	2	1	0	2	0
34	150	0	10000	2	1	0	2	0
34	151	0	10000	2	1	0	2	0
33	152	0	10000	2	1	0	2	0
34	153	0	10000	2	1	0	2	0
33	154	0	10000	2	1	0	2	0
32	155	0	10000	2	1	0	2	0
34	156	0	10000	2	1	0	2	0
34	157	0	10000	2	1	0	2	0
33	158	0	10000	2	1	0	2	0
33	159	0	10000	2	1	0	2	0
33	160	0	10000	2	1	0	2	0
34	161	0	10000	2	1	0	2	0
34	162	0	10000	2	1	0	2	0
35	163	0	10000	2	1	0	2	0
36	164	0	10000	2	1	0	2	0
36	165	0	10000	2	1	0	2	0
35	166	0	10000	2	1	0	2	0
35	167	0	10000	2	1	0	2	0
33	168	0	10000	2	1	0	2	0
33	169	0	10000	2	1	0	2	0
32	170	0	10000	2	1	0	2	0
31	171	0	10000	2	1	0	2	0
31	172	0	10000	2	1	0	2	0
34	173	0	10000	2	1	0	2	0
36	174	0	10000	2	1	0	2	0
35	175	0	10000	2	1	0	2	0
34	176	0	10000	2	1	0	2	0
33	177	0	10000	2	1	0	2	0
35	178	0	10000	2	1	0	2	0
36	179	0	10000	2	1	0	2	0
38	180	0	10000	2	1	0	2	0
41	181	0	10000	2	1	0	2	0
41	182	0	10000	2	1	0	2	0
37	183	0	10000	2	1	0	2	0
37	184	0	10000	2	1	0	2	0
36	185	0	10000	2	1	0	2	0
36	186	0	10000	2	1	0	2	0
35	187	0	10000	2	1	0	2	0
34	188	0	10000	2	1	0	2	0
33	189	0	10000	2	1	0	2	0
32	190	0	10000	2	1	0	2	0
31	191	0	10000	2	1	0	2	0
32	192	0	10000	2	1	0	2	0
32	193	0	10000	2	1	0	2	0
31	194	0	10000	2	1	0	2	0
29	195	0	10000	2	1	0	2	0
28	196	0	10000	2	1	0	2	0
29	197	0	10000	2	1	0	2	0
32	198	0	10000	2	1	0	2	0
35	199	0	10000	2	1	0	2	0
40	200	0	10000	2	1	0	2	0
41	201	0	10000	2	1	0	2	0
42	202	0	10000	2	1	0	2	0
40	203	0	10000	2	1	0	2	0
40	204	0	10000	2	1	0	2	0
42	205	0	10000	2	1	0	2	0
46	206	0	10000	2	1	0	2	0
50	207	0	10000	2	1	0	2	0
54	208	0	10000	2	1	0	2	0
53	209	0	10000	2	1	0	2	0
51	210	0	10000	2	1	0	2	0
50	211	0	10000	2	1	0	2	0
51	212	0	10000	2	1	0	2	0
55	213	0	10000	2	1	0	2	0
59	214	0	10000	2	1	0	2	0
61	215	0	10000	2	1	0	2	0
61	216	0	10000	2	1	0	2	0
60	217	0	10000	2	1	0	2	0
57	218	0	10000	2	1	0	2	0
58	219	0	10000	2	1	0	2	0
62	220	0	10000	2	1	0	2	0
66	221	0	10000	2	1	0	2	0
70	222	0	10000	2	1	0	2	0
71	223	0	10000	2	1	0	2	0
71	224	0	10000	2	1	0	2	0
70	225	0	10000	2	1	0	2	0
68	226	0	10000	2	1	0	2	0
67	227	0	10000	2	1	0	2	0
65	228	0	10000	2	1	0	2	0
63	229	0	10000	2	1	0	2	0
61	230	0	10000	2	1	0	2	0
62	231	0	10000	2	1	0	2	0
63	232	0	10000	2	1	0	2	0
64	233	0	10000	2	1	0	2	0
63	234	0	10000	2	1	0	2	0
59	235	0	10000	2	1	0	2	0
58	236	0	10000	2	1	0	2	0
58	237	0	10000	2	1	0	2	0
58	238	0	10000	2	1	0	2	0
56	239	0	10000	2	1	0	2	0
58	240	0	10000	2	1	0	2	0
59	241	0	10000	2	1	0	2	0
62	242	0	10000	2	1	0	2	0
61	243	0	10000	2	1	0	2	0
61	244	0	10000	2	1	0	2	0
58	245	0	10000	2	1	0	2	0
56	246	0	10000	2	1	0	2	0
55	247	0	10000	2	1	0	2	0
54	248	0	10000	2	1	0	2	0
55	249	0	10000	2	1	0	2	0
55	250	0	10000	2	1	0	2	0
55	251	0	10000	2	1	0	2	0
55	252	0	10000	2	1	0	2	0
56	253	0	10000	2	1	0	2	0
53	254	0	10000	2	1	0	2	0
52	255	0	10000	2	1	0	2	0
53	256	0	10000	2	1	0	2	0
55	257	0	10000	2	1	0	2	0
56	258	0	10000	2	1	0	2	0
59	259	0	10000	2	1	0	2	0
62	260	0	10000	2	1	0	2	0
62	261	0	10000	2	1	0	2	0
60	262	0	10000	2	1	0	2	0
57	263	0	10000	2	1	0	2	0
59	264	0	10000	2	1	0	2	0
62	265	0	10000	2	1	0	2	0
65	266	0	10000	2	1	0	2	0
67	267	0	10000	2	1	0	2	0
68	268	0	10000	2	1	0	2	0
70	269	0	10000	2	1	0	2	0
69	270	0	10000	2	1	0	2	0
68	271	0	10000	2	1	0	2	0
68	272	0	10000	2	1	0	2	0
70	273	0	10000	2	1	0	2	0
69	274	0	10000	2	1	0	2	0
70	275	0	10000	2	1	0	2	0
71	276	0	10000	2	1	0	2	0
71	277	0	10000	2	1	0	2	0
74	278	0	10000	2	1	0	2	0
73	279	0	10000	2	1	0	2	0
74	280	0	10000	2	1	0	2	0
74	281	0	10000	2	1	0	2	0
70	282	0	10000	2	1	0	2	0
66	283	0	10000	2	1	0	2	0
68	284	0	10000	2	1	0	2	0
66	285	0	10000	2	1	0	2	0
65	286	0	10000	2	1	0	2	0
65	287	0	10000	2	1	0	2	0
67	288	0	10000	2	1	0	2	0
68	289	0	10000	2	1	0	2	0
67	290	0	10000	2	1	0	2	0
65	291	0	10000	2	1	0	2	0
65	292	0	10000	2	1	0	2	0
68	293	0	10000	2	1	0	2	0
69	294	0	10000	2	1	0	2	0
70	295	0	10000	2	1	0	2	0
70	296	0	10000	2	1	0	2	0
69	297	0	10000	2	1	0	2	0
67	298	0	10000	2	1	0	2	0
63	299	0	10000	2	1	0	2	0
62	300	0	10000	2	1	0	2	0
61	301	0	10000	2	1	0	2	0
59	302	0	10000	2	1	0	2	0
57	303	0	10000	2	1	0	2	0
59	304	0	10000	2	1	0	2	0
59	305	0	10000	2	1	0	2	0
59	306	0	10000	2	1	0	2	0
58	307	0	10000	2	1	0	2	0
56	308	0	10000	2	1	0	2	0
55	309	0	10000	2	1	0	2	0
54	310	0	10000	2	1	0	2	0
54	311	0	10000	2	1	0	2	0
53	312	0	10000	2	1	0	2	0
55	313	0	10000	2	1	0	2	0
53	314	0	10000	2	1	0	2	0
52	315	0	10000	2	1	0	2	0
50	316	0	10000	2	1	0	2	0
49	317	0	10000	2	1	0	2	0
48	318	0	10000	2	1	0	2	0
49	319	0	10000	2	1	0	2	0
50	320	0	10000	2	1	0	2	0
49	321	0	10000	2	1	0	2	0
49	322	0	10000	2	1	0	2	0
48	323	0	10000	2	1	0	2	0
48	324	0	10000	2	1	0	2	0
47	325	0	10000	2	1	0	2	0
48	326	0	10000	2	1	0	2	0
50	327	0	10000	2	1	0	2	0
52	328	0	10000	2	1	0	2	0
53	329	0	10000	2	1	0	2	0
51	330	0	10000	2	1	0	2	0
50	331	0	10000	2	1	0	2	0
48	332	0	10000	2	1	0	2	0
47	333	0	10000	2	1	0	2	0
45	334	0	10000	2	1	0	2	0
44	335	0	10000	2	1	0	2	0
42	336	0	10000	2	1	0	2	0
41	337	0	10000	2	1	0	2	0
39	338	0	10000	2	1	0	2	0
37	339	0	10000	2	1	0	2	0
37	340	0	10000	2	1	0	2	0
37	341	0	10000	2	1	0	2	0
36	342	0	10000	2	1	0	2	0
35	343	0	10000	2	1	0	2	0
34	344	0	10000	2	1	0	2	0
35	345	0	10000	2	1	0	2	0
33	346	0	10000	2	1	0	2	0
33	347	0	10000	2	1	0	2	0
33	348	0	10000	2	1	0	2	0
33	349	0	10000	2	1	0	2	0
33	350	0	10000	2	1	0	2	0
37	351	0	10000	2	1	0	2	0
37	352	0	10000	2	1	0	2	0
38	353	0	10000	2	1	0	2	0
37	354	0	10000	2	1	0	2	0
36	355	0	10000	2	1	0	2	0
35	356	0	10000	2	1	0	2	0
36	357	0	10000	2	1	0	2	0
36	358	0	10000	2	1	0	2	0
37	359	0	10000	2	1	0	2	0
36	360	0	10000	2	1	0	2	0
36	361	0	10000	2	1	0	2	0
35	362	0	10000	2	1	0	2	0
32	363	0	10000	2	1	0	2	0
33	364	0	10000	2	1	0	2	0
34	365	0	10000	2	1	0	2	0
36	366	0	10000	2	1	0	2	0
38	367	0	10000	2	1	0	2	0
38	368	0	10000	2	1	0	2	0
38	369	0	10000	2	1	0	2	0
37	370	0	10000	2	1	0	2	0
34	371	0	10000	2	1	0	2	0
33	372	0	10000	2	1	0	2	0
35	373	0	10000	2	1	0	2	0
37	374	0	10000	2	1	0	2	0
38	375	0	10000	2	1	0	2	0
37	376	0	10000	2	1	0	2	0
36	377	0	10000	2	1	0	2	0
35	378	0	10000	2	1	0	2	0
34	379	0	10000	2	1	0	2	0
33	380	0	10000	2	1	0	2	0
33	381	0	10000	2	1	0	2	0
32	382	0	10000	2	1	0	2	0
30	383	0	10000	2	1	0	2	0
32	384	0	10000	2	1	0	2	0
32	385	0	10000	2	1	0	2	0
32	386	0	10000	2	1	0	2	0
31	387	0	10000	2	1	0	2	0
32	388	0	10000	2	1	0	2	0
32	389	0	10000	2	1	0	2	0
32	390	0	10000	2	1	0	2	0
31	391	0	10000	2	1	0	2	0
31	392	0	10000	2	1	0	2	0
32	393	0	10000	2	1	0	2	0
31	394	0	10000	2	1	0	2	0
32	395	0	10000	2	1	0	2	0
31	396	0	10000	2	1	0	2	0
30	397	0	10000	2	1	0	2	0
31	398	0	10000	2	1	0	2	0
30	399	0	10000	2	1	0	2	0
32	400	0	10000	2	1	0	2	0
35	401	0	10000	2	1	0	2	0
34	402	0	10000	2	1	0	2	0
32	403	0	10000	2	1	0	2	0
32	404	0	10000	2	1	0	2	0
36	405	0	10000	2	1	0	2	0
42	406	0	10000	2	1	0	2	0
45	407	0	10000	2	1	0	2	0
48	408	0	10000	2	1	0	2	0
48	409	0	10000	2	1	0	2	0
46	410	0	10000	2	1	0	2	0
46	411	0	10000	2	1	0	2	0
44	412	0	10000	2	1	0	2	0
45	413	0	10000	2	1	0	2	0
44	414	0	10000	2	1	0	2	0
43	415	0	10000	2	1	0	2	0
42	416	0	10000	2	1	0	2	0
41	417	0	10000	2	1	0	2	0
39	418	0	10000	2	1	0	2	0
39	419	0	10000	2	1	0	2	0
41	420	0	10000	2	1	0	2	0
39	421	0	10000	2	1	0	2	0
39	422	0	10000	2	1	0	2	0
38	423	0	10000	2	1	0	2	0
41	424	0	10000	2	1	0	2	0
40	425	0	10000	2	1	0	2	0
40	426	0	10000	2	1	0	2	0
41	427	0	10000	2	1	0	2	0
44	428	0	10000	2	1	0	2	0
48	429	0	10000	2	1	0	2	0
51	430	0	10000	2	1	0	2	0
54	431	0	10000	2	1	0	2	0
56	432	0	10000	2	1	0	2	0
56	433	0	10000	2	1	0	2	0
55	434	0	10000	2	1	0	2	0
52	435	0	10000	2	1	0	2	0
50	436	0	10000	2	1	0	2	0
49	437	0	10000	2	1	0	2	0
49	438	0	10000	2	1	0	2	0
50	439	0	10000	2	1	0	2	0
51	440	0	10000	2	1	0	2	0
51	441	0	10000	2	1	0	2	0
49	442	0	10000	2	1	0	2	0
45	443	0	10000	2	1	0	2	0
44	444	0	10000	2	1	0	2	0
44	445	0	10000	2	1	0	2	0
41	446	0	10000	2	1	0	2	0
40	447	0	10000	2	1	0	2	0
41	448	0	10000	2	1	0	2	0
40	449	0	10000	2	1	0	2	0
38	450	0	10000	2	1	0	2	0
36	451	0	10000	2	1	0	2	0
36	452	0	10000	2	1	0	2	0
37	453	0	10000	2	1	0	2	0
37	454	0	10000	2	1	0	2	0
35	455	0	10000	2	1	0	2	0
36	456	0	10000	2	1	0	2	0
35	457	0	10000	2	1	0	2	0
36	458	0	10000	2	1	0	2	0
35	459	0	10000	2	1	0	2	0
34	460	0	10000	2	1	0	2	0
34	461	0	10000	2	1	0	2	0
33	462	0	10000	2	1	0	2	0
32	463	0	10000	2	1	0	2	0
31	464	0	10000	2	1	0	2	0
30	465	0	10000	2	1	0	2	0
29	466	0	10000	2	1	0	2	0
28	467	0	10000	2	1	0	2	0
28	468	0	10000	2	1	0	2	0
30	469	0	10000	2	1	0	2	0
31	470	0	10000	2	1	0	2	0
29	471	0	10000	2	1	0	2	0
28	472	0	10000	2	1	0	2	0
31	473	0	10000	2	1	0	2	0
29	474	0	10000	2	1	0	2	0
30	475	0	10000	2	1	0	2	0
32	476	0	10000	2	1	0	2	0
33	477	0	10000	2	1	0	2	0
33	478	0	10000	2	1	0	2	0
32	479	0	10000	2	1	0	2	0
32	480	0	10000	2	1	0	2	0
33	481	0	10000	2	1	0	2	0
32	482	0	10000	2	1	0	2	0
29	483	0	10000	2	1	0	2	0
31	484	0	10000	2	1	0	2	0
29	485	0	10000	2	1	0	2	0
28	486	0	10000	2	1	0	2	0
29	487	0	10000	2	1	0	2	0
28	488	0	10000	2	1	0	2	0
29	489	0	10000	2	1	0	2	0
28	490	0	10000	2	1	0	2	0
28	491	0	10000	2	1	0	2	0
29	492	0	10000	2	1	0	2	0
31	493	0	10000	2	1	0	2	0
31	494	0	10000	2	1	0	2	0
30	495	0	10000	2	1	0	2	0
29	496	0	10000	2	1	0	2	0
31	497	0	10000	2	1	0	2	0
31	498	0	10000	2	1	0	2	0
29	499	0	10000	2	1	0	2	0
30	500	0	10000	2	1	0	2	0
30	501	0	10000	2	1	0	2	0
30	501	0	10000	2	1	0	2	1
30	502	0	10000	2	1	0	2	1
32	504	0	10000	2	1	0	2	1
32	505	0	10000	2	1	0	2	1
31	506	0	10000	2	1	0	2	1
30	507	0	10000	2	1	0	2	1
29	508	0	10000	2	1	0	2	1
30	509	0	10000	2	1	0	2	1
28	510	0	10000	2	1	0	2	1
27	511	0	10000	2	1	0	2	1
27	512	0	10000	2	1	0	2	1
28	513	0	10000	2	1	0	2	1
27	514	0	10000	2	1	0	2	1
28	515	0	10000	2	1	0	2	1
27	516	0	10000	2	1	0	2	1
27	517	0	10000	2	1	0	2	1
27	518	0	10000	2	1	0	2	1
26	519	0	10000	2	1	0	2	1
26	520	0	10000	2	1	0	2	1
25	521	0	10000	2	1	0	2	1
24	522	0	10000	2	1	0	2	1
24	523	0	10000	2	1	0	2	1
26	524	0	10000	2	1	0	2	1
27	525	0	10000	2	1	0	2	1
28	526	0	10000	2	1	0	2	1
30	527	0	10000	2	1	0	2	1
29	528	0	10000	2	1	0	2	1
28	529	0	10000	2	1	0	2	1
29	530	0	10000	2	1	0	2	1
27	531	0	10000	2	1	0	2	1
26	532	0	10000	2	1	0	2	1
28	533	0	10000	2	1	0	2	1
27	534	0	10000	2	1	0	2	1
25	535	0	10000	2	1	0	2	1
25	536	0	10000	2	1	0	2	1
26	537	0	10000	2	1	0	2	1
25	538	0	10000	2	1	0	2	1
24	539	0	10000	2	1	0	2	1
25	540	0	10000	2	1	0	2	1
24	541	0	10000	2	1	0	2	1
23	542	0	10000	2	1	0	2	1
20	543	0	10000	2	1	0	2	1
21	544	0	10000	2	1	0	2	1
20	545	0	10000	2	1	0	2	1
20	546	0	10000	2	1	0	2	1
21	547	0	10000	2	1	0	2	1
23	548	0	10000	2	1	0	2	1
23	549	0	10000	2	1	0	2	1
24	550	0	10000	2	1	0	2	1
23	551	0	10000	2	1	0	2	1
23	552	0	10000	2	1	0	2	0
24	553	0	10000	2	1	0	2	0
24	554	0	10000	2	1	0	2	0
23	555	0	10000	2	1	0	2	0
24	556	0	10000	2	1	0	2	0
24	557	0	10000	2	1	0	2	0
25	558	0	10000	2	1	0	2	0
25	559	0	10000	2	1	0	2	0
24	560	0	10000	2	1	0	2	0
24	561	0	10000	2	1	0	2	0
24	562	0	10000	2	1	0	2	0
23	563	0	10000	2	1	0	2	0
24	564	0	10000	2	1	0	2	0
24	565	0	10000	2	1	0	2	0
25	566	0	10000	2	1	0	2	0
26	567	0	10000	2	1	0	2	0
26	568	0	10000	2	1	0	2	0
26	569	0	10000	2	1	0	2	0
27	570	0	10000	2	1	0	2	0
28	571	0	10000	2	1	0	2	0
27	572	0	10000	2	1	0	2	0
29	573	0	10000	2	1	0	2	0
32	574	0	10000	2	1	0	2	0
34	575	0	10000	2	1	0	2	0
35	576	0	10000	2	1	0	2	0
40	577	0	10000	2	1	0	2	0
62	578	0	10000	2	1	0	2	0
81	579	0	10000	2	1	0	2	0
83	580	0	10000	2	1	0	2	0
99	581	0	10000	2	1	0	2	0
106	582	0	10000	2	1	0	2	0
109	583	0	10000	2	1	0	2	0
142	584	0	10000	2	1	0	2	0
224	585	0	10000	2	1	0	2	0
274	586	0	10000	2	1	0	2	0
281	587	0	10000	2	1	0	2	0
332	588	0	10000	2	1	0	2	0
367	589	0	10000	2	1	0	2	0
364	590	0	10000	2	1	0	2	0
357	591	0	10000	2	1	0	2	0
383	592	0	10000	2	1	0	2	0
444	593	0	10000	2	1	0	2	0
449	594	0	10000	2	1	0	2	0
449	595	0	10000	2	1	0	2	0
456	596	0	10000	2	1	0	2	0
475	597	0	10000	2	1	0	2	0
526	598	0	10000	2	1	0	2	0
551	599	0	10000	2	1	0	2	0
538	600	0	10000	2	1	0	2	0
545	601	0	10000	2	1	0	2	0
535	602	0	10000	2	1	0	2	0
585	603	0	10000	2	1	0	2	0
641	604	0	10000	2	1	0	2	0
680	605	0	10000	2	1	0	2	0
673	606	0	10000	2	1	0	2	0
651	607	0	10000	2	1	0	2	0
655	608	0	10000	2	1	0	2	0
650	609	0	10000	2	1	0	2	0
625	610	0	10000	2	1	0	2	0
606	611	0	10000	2	1	0	2	0
581	612	0	10000	2	1	0	2	0
571	613	0	10000	2	1	0	2	0
580	614	0	10000	2	1	0	2	0
678	615	0	10000	2	1	0	2	0
681	616	0	10000	2	1	0	2	0
700	617	0	10000	2	1	0	2	0
699	618	0	10000	2	1	0	2	0
682	619	0	10000	2	1	0	2	0
680	620	0	10000	2	1	0	2	0
669	621	0	10000	2	1	0	2	0
649	622	0	10000	2	1	0	2	0
621	623	0	10000	2	1	0	2	0
600	624	0	10000	2	1	0	2	0
594	625	0	10000	2	1	0	2	0
600	626	0	10000	2	1	0	2	0
609	627	0	10000	2	1	0	2	0
615	628	0	10000	2	1	0	2	0
619	629	0	10000	2	1	0	2	0
614	630	0	10000	2	1	0	2	0
607	631	0	10000	2	1	0	2	0
596	632	0	10000	2	1	0	2	0
588	633	0	10000	2	1	0	2	0
584	634	0	10000	2	1	0	2	0
582	635	0	10000	2	1	0	2	0
578	636	0	10000	2	1	0	2	0
584	637	0	10000	2	1	0	2	0
586	638	0	10000	2	1	0	2	0
575	639	0	10000	2	1	0	2	0
558	640	0	10000	2	1	0	2	0
537	641	0	10000	2	1	0	2	0
513	642	0	10000	2	1	0	2	0
491	643	0	10000	2	1	0	2	0
473	644	0	10000	2	1	0	2	0
456	645	0	10000	2	1	0	2	0
436	646	0	10000	2	1	0	2	0
422	647	0	10000	2	1	0	2	0
411	648	0	10000	2	1	0	2	0
398	649	0	10000	2	1	0	2	0
394	650	0	10000	2	1	0	2	0
391	651	0	10000	2	1	0	2	0
387	652	0	10000	2	1	0	2	0
384	653	0	10000	2	1	0	2	0
377	654	0	10000	2	1	0	2	0
372	655	0	10000	2	1	0	2	0
371	656	0	10000	2	1	0	2	0
372	657	0	10000	2	1	0	2	0
372	658	0	10000	2	1	0	2	0
371	659	0	10000	2	1	0	2	0
369	660	0	10000	2	1	0	2	0
362	661	0	10000	2	1	0	2	0
354	662	0	10000	2	1	0	2	0
343	663	0	10000	2	1	0	2	0
333	664	0	10000	2	1	0	2	0
323	665	0	10000	2	1	0	2	0
314	666	0	10000	2	1	0	2	0
306	667	0	10000	2	1	0	2	0
300	668	0	10000	2	1	0	2	0
293	669	0	10000	2	1	0	2	0
284	670	0	10000	2	1	0	2	0
272	671	0	10000	2	1	0	2	0
261	672	0	10000	2	1	0	2	0
251	673	0	10000	2	1	0	2	0
239	674	0	10000	2	1	0	2	0
231	675	0	10000	2	1	0	2	0
225	676	0	10000	2	1	0	2	0
222	677	0	10000	2	1	0	2	0
222	678	0	10000	2	1	0	2	0
224	679	0	10000	2	1	0	2	0
227	680	0	10000	2	1	0	2	0
229	681	0	10000	2	1	0	2	0
231	682	0	10000	2	1	0	2	0
232	683	0	10000	2	1	0	2	0
238	684	0	10000	2	1	0	2	0
243	685	0	10000	2	1	0	2	0
247	686	0	10000	2	1	0	2	0
250	687	0	10000	2	1	0	2	0
249	688	0	10000	2	1	0	2	0
249	689	0	10000	2	1	0	2	0
246	690	0	10000	2	1	0	2	0
242	691	0	10000	2	1	0	2	0
239	692	0	10000	2	1	0	2	0
237	693	0	10000	2	1	0	2	0
234	694	0	10000	2	1	0	2	0
229	695	0	10000	2	1	0	2	0
225	696	0	10000	2	1	0	2	0
219	697	0	10000	2	1	0	2	0
214	698	0	10000	2	1	0	2	0
207	699	0	10000	2	1	0	2	0
201	700	0	10000	2	1	0	2	0
196	701	0	10000	2	1	0	2	0
190	702	0	10000	2	1	0	2	0
184	703	0	10000	2	1	0	2	0
179	704	0	10000	2	1	0	2	0
174	705	0	10000	2	1	0	2	0
170	706	0	10000	2	1	0	2	0
164	707	0	10000	2	1	0	2	0
157	708	0	10000	2	1	0	2	0
153	709	0	10000	2	1	0	2	0
148	710	0	10000	2	1	0	2	0
143	711	0	10000	2	1	0	2	0
141	712	0	10000	2	1	0	2	0
140	713	0	10000	2	1	0	2	0
137	714	0	10000	2	1	0	2	0
134	715	0	10000	2	1	0	2	0
131	716	0	10000	2	1	0	2	0
129	717	0	10000	2	1	0	2	0
126	718	0	10000	2	1	0	2	0
122	719	0	10000	2	1	0	2	0
119	720	0	10000	2	1	0	2	0
116	721	0	10000	2	1	0	2	0
111	722	0	10000	2	1	0	2	0
107	723	0	10000	2	1	0	2	0
104	724	0	10000	2	1	0	2	0
102	725	0	10000	2	1	0	2	0
100	726	0	10000	2	1	0	2	0
97	727	0	10000	2	1	0	2	0
97	728	0	10000	2	1	0	2	0
97	729	0	10000	2	1	0	2	0
101	730	0	10000	2	1	0	2	0
105	731	0	10000	2	1	0	2	0
108	732	0	10000	2	1	0	2	0
109	733	0	10000	2	1	0	2	0
106	734	0	10000	2	1	0	2	0
103	735	0	10000	2	1	0	2	0
98	736	0	10000	2	1	0	2	0
94	737	0	10000	2	1	0	2	0
90	738	0	10000	2	1	0	2	0
86	739	0	10000	2	1	0	2	0
83	740	0	10000	2	1	0	2	0
81	741	0	10000	2	1	0	2	0
81	742	0	10000	2	1	0	2	0
83	743	0	10000	2	1	0	2	0
89	744	0	10000	2	1	0	2	0
91	745	0	10000	2	1	0	2	0
90	746	0	10000	2	1	0	2	0
89	747	0	10000	2	1	0	2	0
89	748	0	10000	2	1	0	2	0
89	749	0	10000	2	1	0	2	0
87	750	0	10000	2	1	0	2	0
84	751	0	10000	2	1	0	2	0
83	752	0	10000	2	1	0	2	0
84	753	0	10000	2	1	0	2	0
80	754	0	10000	2	1	0	2	0
79	755	0	10000	2	1	0	2	0
81	756	0	10000	2	1	0	2	0
87	757	0	10000	2	1	0	2	0
90	758	0	10000	2	1	0	2	0
97	759	0	10000	2	1	0	2	0
102	760	0	10000	2	1	0	2	0
100	761	0	10000	2	1	0	2	0
98	762	0	10000	2	1	0	2	0
94	763	0	10000	2	1	0	2	0
94	764	0	10000	2	1	0	2	0
93	765	0	10000	2	1	0	2	0
93	766	0	10000	2	1	0	2	0
91	767	0	10000	2	1	0	2	0
98	768	0	10000	2	1	0	2	0
110	769	0	10000	2	1	0	2	0
119	770	0	10000	2	1	0	2	0
121	771	0	10000	2	1	0	2	0
118	772	0	10000	2	1	0	2	0
116	773	0	10000	2	1	0	2	0
112	774	0	10000	2	1	0	2	0
113	775	0	10000	2	1	0	2	0
114	776	0	10000	2	1	0	2	0
116	777	0	10000	2	1	0	2	0
115	778	0	10000	2	1	0	2	0
112	779	0	10000	2	1	0	2	0
109	780	0	10000	2	1	0	2	0
104	781	0	10000	2	1	0	2	0
103	782	0	10000	2	1	0	2	0
100	783	0	10000	2	1	0	2	0
103	784	0	10000	2	1	0	2	0
101	785	0	10000	2	1	0	2	0
98	786	0	10000	2	1	0	2	0
95	787	0	10000	2	1	0	2	0
93	788	0	10000	2	1	0	2	0
95	789	0	10000	2	1	0	2	0
100	790	0	10000	2	1	0	2	0
106	791	0	10000	2	1	0	2	0
108	792	0	10000	2	1	0	2	0
107	793	0	10000	2	1	0	2	0
102	794	0	10000	2	1	0	2	0
98	795	0	10000	2	1	0	2	0
96	796	0	10000	2	1	0	2	0
94	797	0	10000	2	1	0	2	0
91	798	0	10000	2	1	0	2	0
92	799	0	10000	2	1	0	2	0
94	800	0	10000	2	1	0	2	0
92	801	0	10000	2	1	0	2	0
90	802	0	10000	2	1	0	2	0
86	803	0	10000	2	1	0	2	0
85	804	0	10000	2	1	0	2	0
81	805	0	10000	2	1	0	2	0
80	806	0	10000	2	1	0	2	0
79	807	0	10000	2	1	0	2	0
80	808	0	10000	2	1	0	2	0
87	809	0	10000	2	1	0	2	0
99	810	0	10000	2	1	0	2	0
104	811	0	10000	2	1	0	2	0
103	812	0	10000	2	1	0	2	0
103	813	0	10000	2	1	0	2	0
105	814	0	10000	2	1	0	2	0
106	815	0	10000	2	1	0	2	0
107	816	0	10000	2	1	0	2	0
104	817	0	10000	2	1	0	2	0
99	818	0	10000	2	1	0	2	0
98	819	0	10000	2	1	0	2	0
96	820	0	10000	2	1	0	2	0
100	821	0	10000	2	1	0	2	0
99	822	0	10000	2	1	0	2	0
100	823	0	10000	2	1	0	2	0
108	824	0	10000	2	1	0	2	0
117	825	0	10000	2	1	0	2	0
126	826	0	10000	2	1	0	2	0
132	827	0	10000	2	1	0	2	0
138	828	0	10000	2	1	0	2	0
142	829	0	10000	2	1	0	2	0
141	830	0	10000	2	1	0	2	0
141	831	0	10000	2	1	0	2	0
143	832	0	10000	2	1	0	2	0
147	833	0	10000	2	1	0	2	0
144	834	0	10000	2	1	0	2	0
138	835	0	10000	2	1	0	2	0
135	836	0	10000	2	1	0	2	0
148	837	0	10000	2	1	0	2	0
160	838	0	10000	2	1	0	2	0
172	839	0	10000	2	1	0	2	0
184	840	0	10000	2	1	0	2	0
188	841	0	10000	2	1	0	2	0
184	842	0	10000	2	1	0	2	0
178	843	0	10000	2	1	0	2	0
174	844	0	10000	2	1	0	2	0
167	845	0	10000	2	1	0	2	0
161	846	0	10000	2	1	0	2	0
154	847	0	10000	2	1	0	2	0
150	848	0	10000	2	1	0	2	0
145	849	0	10000	2	1	0	2	0
140	850	0	10000	2	1	0	2	0
135	851	0	10000	2	1	0	2	0
133	852	0	10000	2	1	0	2	0
129	853	0	10000	2	1	0	2	0
124	854	0	10000	2	1	0	2	0
121	855	0	10000	2	1	0	2	0
119	856	0	10000	2	1	0	2	0
116	857	0	10000	2	1	0	2	0
112	858	0	10000	2	1	0	2	0
107	859	0	10000	2	1	0	2	0
105	860	0	10000	2	1	0	2	0
103	861	0	10000	2	1	0	2	0
101	862	0	10000	2	1	0	2	0
100	863	0	10000	2	1	0	2	0
101	864	0	10000	2	1	0	2	0
101	865	0	10000	2	1	0	2	0
101	866	0	10000	2	1	0	2	0
100	867	0	10000	2	1	0	2	0
96	868	0	10000	2	1	0	2	0
93	869	0	10000	2	1	0	2	0
94	870	0	10000	2	1	0	2	0
98	871	0	10000	2	1	0	2	0
96	872	0	10000	2	1	0	2	0
96	873	0	10000	2	1	0	2	0
97	874	0	10000	2	1	0	2	0
97	875	0	10000	2	1	0	2	0
93	876	0	10000	2	1	0	2	0
90	877	0	10000	2	1	0	2	0
87	878	0	10000	2	1	0	2	0
84	879	0	10000	2	1	0	2	0
81	880	0	10000	2	1	0	2	0
80	881	0	10000	2	1	0	2	0
80	882	0	10000	2	1	0	2	0
80	883	0	10000	2	1	0	2	0
83	884	0	10000	2	1	0	2	0
86	885	0	10000	2	1	0	2	0
94	886	0	10000	2	1	0	2	0
97	887	0	10000	2	1	0	2	0
97	888	0	10000	2	1	0	2	0
101	889	0	10000	2	1	0	2	0
103	890	0	10000	2	1	0	2	0
102	891	0	10000	2	1	0	2	0
99	892	0	10000	2	1	0	2	0
101	893	0	10000	2	1	0	2	0
101	894	0	10000	2	1	0	2	0
100	895	0	10000	2	1	0	2	0
101	896	0	10000	2	1	0	2	0
103	897	0	10000	2	1	0	2	0
103	898	0	10000	2	1	0	2	0
100	899	0	10000	2	1	0	2	0
96	900	0	10000	2	1	0	2	0
92	901	0	10000	2	1	0	2	0
89	902	0	10000	2	1	0	2	0
85	903	0	10000	2	1	0	2	0
84	904	0	10000	2	1	0	2	0
81	905	0	10000	2	1	0	2	0
79	906	0	10000	2	1	0	2	0
78	907	0	10000	2	1	0	2	0
75	908	0	10000	2	1	0	2	0
72	909	0	10000	2	1	0	2	0
69	910	0	10000	2	1	0	2	0
68	911	0	10000	2	1	0	2	0
68	912	0	10000	2	1	0	2	0
71	913	0	10000	2	1	0	2	0
71	914	0	10000	2	1	0	2	0
72	915	0	10000	2	1	0	2	0
73	916	0	10000	2	1	0	2	0
77	917	0	10000	2	1	0	2	0
81	918	0	10000	2	1	0	2	0
81	919	0	10000	2	1	0	2	0
79	920	0	10000	2	1	0	2	0
78	921	0	10000	2	1	0	2	0
75	922	0	10000	2	1	0	2	0
71	923	0	10000	2	1	0	2	0
68	924	0	10000	2	1	0	2	0
65	925	0	10000	2	1	0	2	0
64	926	0	10000	2	1	0	2	0
65	927	0	10000	2	1	0	2	0
68	928	0	10000	2	1	0	2	0
70	929	0	10000	2	1	0	2	0
71	930	0	10000	2	1	0	2	0
68	931	0	10000	2	1	0	2	0
67	932	0	10000	2	1	0	2	0
69	933	0	10000	2	1	0	2	0
73	934	0	10000	2	1	0	2	0
73	935	0	10000	2	1	0	2	0
70	936	0	10000	2	1	0	2	0
73	937	0	10000	2	1	0	2	0
76	938	0	10000	2	1	0	2	0
79	939	0	10000	2	1	0	2	0
79	940	0	10000	2	1	0	2	0
76	941	0	10000	2	1	0	2	0
72	942	0	10000	2	1	0	2	0
68	943	0	10000	2	1	0	2	0
66	944	0	10000	2	1	0	2	0
64	945	0	10000	2	1	0	2	0
62	946	0	10000	2	1	0	2	0
61	947	0	10000	2	1	0	2	0
61	948	0	10000	2	1	0	2	0
62	949	0	10000	2	1	0	2	0
62	950	0	10000	2	1	0	2	0
60	951	0	10000	2	1	0	2	0
60	952	0	10000	2	1	0	2	0
68	953	0	10000	2	1	0	2	0
73	954	0	10000	2	1	0	2	0
77	955	0	10000	2	1	0	2	0
76	956	0	10000	2	1	0	2	0
73	957	0	10000	2	1	0	2	0
71	958	0	10000	2	1	0	2	0
69	959	0	10000	2	1	0	2	0
67	960	0	10000	2	1	0	2	0
68	961	0	10000	2	1	0	2	0
71	962	0	10000	2	1	0	2	0
75	963	0	10000	2	1	0	2	0
80	964	0	10000	2	1	0	2	0
84	965	0	10000	2	1	0	2	0
83	966	0	10000	2	1	0	2	0
79	967	0	10000	2	1	0	2	0
78	968	0	10000	2	1	0	2	0
76	969	0	10000	2	1	0	2	0
74	970	0	10000	2	1	0	2	0
70	971	0	10000	2	1	0	2	0
68	972	0	10000	2	1	0	2	0
70	973	0	10000	2	1	0	2	0
72	974	0	10000	2	1	0	2	0
74	975	0	10000	2	1	0	2	0
76	976	0	10000	2	1	0	2	0
76	977	0	10000	2	1	0	2	0
79	978	0	10000	2	1	0	2	0
81	979	0	10000	2	1	0	2	0
79	980	0	10000	2	1	0	2	0
78	981	0	10000	2	1	0	2	0
80	982	0	10000	2	1	0	2	0
79	983	0	10000	2	1	0	2	0
80	984	0	10000	2	1	0	2	0
79	985	0	10000	2	1	0	2	0
78	986	0	10000	2	1	0	2	0
78	987	0	10000	2	1	0	2	0
77	988	0	10000	2	1	0	2	0
76	989	0	10000	2	1	0	2	0
73	990	0	10000	2	1	0	2	0
70	991	0	10000	2	1	0	2	0
69	992	0	10000	2	1	0	2	0
73	993	0	10000	2	1	0	2	0
74	994	0	10000	2	1	0	2	0
73	995	0	10000	2	1	0	2	0
70	996	0	10000	2	1	0	2	0
70	997	0	10000	2	1	0	2	0
71	998	0	10000	2	1	0	2	0
72	999	0	10000	2	1	0	2	0
71	1000	0	10000	2	1	0	2	0
70	1001	0	10000	2	1	0	2	0
39	2	0	10000	3	1	0	3	0
38	3	0	10000	3	1	0	3	0
39	4	0	10000	3	1	0	3	0
39	5	0	10000	3	1	0	3	0
38	6	0	10000	3	1	0	3	0
35	7	0	10000	3	1	0	3	0
36	8	0	10000	3	1	0	3	0
35	9	0	10000	3	1	0	3	0
34	10	0	10000	3	1	0	3	0
33	11	0	10000	3	1	0	3	0
31	12	0	10000	3	1	0	3	0
31	13	0	10000	3	1	0	3	0
31	14	0	10000	3	1	0	3	0
29	15	0	10000	3	1	0	3	0
28	16	0	10000	3	1	0	3	0
29	17	0	10000	3	1	0	3	0
28	18	0	10000	3	1	0	3	0
29	19	0	10000	3	1	0	3	0
27	20	0	10000	3	1	0	3	0
26	21	0	10000	3	1	0	3	0
26	21	0	10000	3	1	0	3	0
26	22	0	10000	3	1	0	3	0
25	24	0	10000	3	1	0	3	0
25	25	0	10000	3	1	0	3	0
25	26	0	10000	3	1	0	3	0
22	27	0	10000	3	1	0	3	0
22	28	0	10000	3	1	0	3	0
27	29	0	10000	3	1	0	3	0
34	30	0	10000	3	1	0	3	0
36	31	0	10000	3	1	0	3	0
37	31	0	10000	3	1	0	3	0
36	32	0	10000	3	1	0	3	0
35	34	0	10000	3	1	0	3	0
36	35	0	10000	3	1	0	3	0
37	36	0	10000	3	1	0	3	0
39	37	0	10000	3	1	0	3	0
38	38	0	10000	3	1	0	3	0
38	39	0	10000	3	1	0	3	0
38	40	0	10000	3	1	0	3	0
38	41	0	10000	3	1	0	3	0
38	41	0	10000	3	1	0	3	0
39	42	0	10000	3	1	0	3	0
45	44	0	10000	3	1	0	3	0
55	45	0	10000	3	1	0	3	0
63	46	0	10000	3	1	0	3	0
61	47	0	10000	3	1	0	3	0
60	48	0	10000	3	1	0	3	0
62	49	0	10000	3	1	0	3	0
66	50	0	10000	3	1	0	3	0
67	51	0	10000	3	1	0	3	0
65	51	0	10000	3	1	0	3	0
63	52	0	10000	3	1	0	3	0
59	54	0	10000	3	1	0	3	0
57	55	0	10000	3	1	0	3	0
54	56	0	10000	3	1	0	3	0
54	57	0	10000	3	1	0	3	0
53	58	0	10000	3	1	0	3	0
51	59	0	10000	3	1	0	3	0
51	60	0	10000	3	1	0	3	0
52	61	0	10000	3	1	0	3	0
52	61	0	10000	3	1	0	3	0
50	62	0	10000	3	1	0	3	0
50	64	0	10000	3	1	0	3	0
49	65	0	10000	3	1	0	3	0
48	66	0	10000	3	1	0	3	0
44	67	0	10000	3	1	0	3	0
42	68	0	10000	3	1	0	3	0
43	69	0	10000	3	1	0	3	0
43	70	0	10000	3	1	0	3	0
45	71	0	10000	3	1	0	3	0
50	71	0	10000	3	1	0	3	0
56	72	0	10000	3	1	0	3	0
58	74	0	10000	3	1	0	3	0
58	75	0	10000	3	1	0	3	0
57	76	0	10000	3	1	0	3	0
58	77	0	10000	3	1	0	3	0
57	78	0	10000	3	1	0	3	0
57	79	0	10000	3	1	0	3	0
57	80	0	10000	3	1	0	3	0
57	81	0	10000	3	1	0	3	0
57	81	0	10000	3	1	0	3	0
56	82	0	10000	3	1	0	3	0
56	84	0	10000	3	1	0	3	0
56	85	0	10000	3	1	0	3	0
56	86	0	10000	3	1	0	3	0
54	87	0	10000	3	1	0	3	0
55	88	0	10000	3	1	0	3	0
57	89	0	10000	3	1	0	3	0
60	90	0	10000	3	1	0	3	0
63	91	0	10000	3	1	0	3	0
62	91	0	10000	3	1	0	3	0
59	92	0	10000	3	1	0	3	0
57	94	0	10000	3	1	0	3	0
55	95	0	10000	3	1	0	3	0
54	96	0	10000	3	1	0	3	0
58	97	0	10000	3	1	0	3	0
61	98	0	10000	3	1	0	3	0
63	99	0	10000	3	1	0	3	0
64	100	0	10000	3	1	0	3	0
64	101	0	10000	3	1	0	3	0
64	101	0	10000	3	1	0	3	0
62	102	0	10000	3	1	0	3	0
62	104	0	10000	3	1	0	3	0
59	105	0	10000	3	1	0	3	0
59	106	0	10000	3	1	0	3	0
58	107	0	10000	3	1	0	3	0
56	108	0	10000	3	1	0	3	0
55	109	0	10000	3	1	0	3	0
52	110	0	10000	3	1	0	3	0
51	111	0	10000	3	1	0	3	0
51	111	0	10000	3	1	0	3	0
53	112	0	10000	3	1	0	3	0
50	114	0	10000	3	1	0	3	0
50	115	0	10000	3	1	0	3	0
50	116	0	10000	3	1	0	3	0
54	117	0	10000	3	1	0	3	0
56	118	0	10000	3	1	0	3	0
57	119	0	10000	3	1	0	3	0
55	120	0	10000	3	1	0	3	0
56	121	0	10000	3	1	0	3	0
55	121	0	10000	3	1	0	3	0
53	122	0	10000	3	1	0	3	0
53	124	0	10000	3	1	0	3	0
52	125	0	10000	3	1	0	3	0
53	126	0	10000	3	1	0	3	0
53	127	0	10000	3	1	0	3	0
53	128	0	10000	3	1	0	3	0
53	129	0	10000	3	1	0	3	0
52	130	0	10000	3	1	0	3	0
50	131	0	10000	3	1	0	3	0
49	131	0	10000	3	1	0	3	0
49	132	0	10000	3	1	0	3	0
47	134	0	10000	3	1	0	3	0
46	135	0	10000	3	1	0	3	0
46	136	0	10000	3	1	0	3	0
50	137	0	10000	3	1	0	3	0
51	138	0	10000	3	1	0	3	0
53	139	0	10000	3	1	0	3	0
53	140	0	10000	3	1	0	3	0
51	141	0	10000	3	1	0	3	0
50	141	0	10000	3	1	0	3	0
47	142	0	10000	3	1	0	3	0
48	144	0	10000	3	1	0	3	0
48	145	0	10000	3	1	0	3	0
54	146	0	10000	3	1	0	3	0
59	147	0	10000	3	1	0	3	0
64	148	0	10000	3	1	0	3	0
67	149	0	10000	3	1	0	3	0
67	150	0	10000	3	1	0	3	0
64	151	0	10000	3	1	0	3	0
64	151	0	10000	3	1	0	3	0
65	152	0	10000	3	1	0	3	0
68	154	0	10000	3	1	0	3	0
71	155	0	10000	3	1	0	3	0
71	156	0	10000	3	1	0	3	0
73	157	0	10000	3	1	0	3	0
71	158	0	10000	3	1	0	3	0
71	159	0	10000	3	1	0	3	0
75	160	0	10000	3	1	0	3	0
80	161	0	10000	3	1	0	3	0
86	161	0	10000	3	1	0	3	0
90	162	0	10000	3	1	0	3	0
93	164	0	10000	3	1	0	3	0
91	165	0	10000	3	1	0	3	0
88	166	0	10000	3	1	0	3	0
86	167	0	10000	3	1	0	3	0
88	168	0	10000	3	1	0	3	0
93	169	0	10000	3	1	0	3	0
96	170	0	10000	3	1	0	3	0
99	171	0	10000	3	1	0	3	0
102	171	0	10000	3	1	0	3	0
105	172	0	10000	3	1	0	3	0
107	174	0	10000	3	1	0	3	0
108	175	0	10000	3	1	0	3	0
109	176	0	10000	3	1	0	3	0
109	177	0	10000	3	1	0	3	0
108	178	0	10000	3	1	0	3	0
107	179	0	10000	3	1	0	3	0
107	180	0	10000	3	1	0	3	0
108	181	0	10000	3	1	0	3	0
109	181	0	10000	3	1	0	3	0
111	182	0	10000	3	1	0	3	0
111	184	0	10000	3	1	0	3	0
109	185	0	10000	3	1	0	3	0
104	186	0	10000	3	1	0	3	0
98	187	0	10000	3	1	0	3	0
95	188	0	10000	3	1	0	3	0
92	189	0	10000	3	1	0	3	0
91	190	0	10000	3	1	0	3	0
89	191	0	10000	3	1	0	3	0
86	191	0	10000	3	1	0	3	0
84	192	0	10000	3	1	0	3	0
84	194	0	10000	3	1	0	3	0
85	195	0	10000	3	1	0	3	0
85	196	0	10000	3	1	0	3	0
87	197	0	10000	3	1	0	3	0
85	198	0	10000	3	1	0	3	0
81	199	0	10000	3	1	0	3	0
79	200	0	10000	3	1	0	3	0
81	201	0	10000	3	1	0	3	0
84	201	0	10000	3	1	0	3	0
87	202	0	10000	3	1	0	3	0
89	204	0	10000	3	1	0	3	0
90	205	0	10000	3	1	0	3	0
88	206	0	10000	3	1	0	3	0
84	207	0	10000	3	1	0	3	0
84	208	0	10000	3	1	0	3	0
82	209	0	10000	3	1	0	3	0
82	210	0	10000	3	1	0	3	0
83	211	0	10000	3	1	0	3	0
86	211	0	10000	3	1	0	3	0
90	212	0	10000	3	1	0	3	0
92	214	0	10000	3	1	0	3	0
92	215	0	10000	3	1	0	3	0
92	216	0	10000	3	1	0	3	0
95	217	0	10000	3	1	0	3	0
93	218	0	10000	3	1	0	3	0
94	219	0	10000	3	1	0	3	0
95	220	0	10000	3	1	0	3	0
98	221	0	10000	3	1	0	3	0
102	221	0	10000	3	1	0	3	0
107	222	0	10000	3	1	0	3	0
113	224	0	10000	3	1	0	3	0
117	225	0	10000	3	1	0	3	0
124	226	0	10000	3	1	0	3	0
126	227	0	10000	3	1	0	3	0
128	228	0	10000	3	1	0	3	0
126	229	0	10000	3	1	0	3	0
121	230	0	10000	3	1	0	3	0
117	231	0	10000	3	1	0	3	0
117	231	0	10000	3	1	0	3	0
120	232	0	10000	3	1	0	3	0
120	234	0	10000	3	1	0	3	0
121	235	0	10000	3	1	0	3	0
120	236	0	10000	3	1	0	3	0
121	237	0	10000	3	1	0	3	0
119	238	0	10000	3	1	0	3	0
115	239	0	10000	3	1	0	3	0
111	240	0	10000	3	1	0	3	0
108	241	0	10000	3	1	0	3	0
104	241	0	10000	3	1	0	3	0
102	242	0	10000	3	1	0	3	0
101	244	0	10000	3	1	0	3	0
98	245	0	10000	3	1	0	3	0
94	246	0	10000	3	1	0	3	0
90	247	0	10000	3	1	0	3	0
87	248	0	10000	3	1	0	3	0
85	249	0	10000	3	1	0	3	0
82	250	0	10000	3	1	0	3	0
79	251	0	10000	3	1	0	3	0
76	251	0	10000	3	1	0	3	0
73	252	0	10000	3	1	0	3	0
70	254	0	10000	3	1	0	3	0
69	255	0	10000	3	1	0	3	0
69	256	0	10000	3	1	0	3	0
73	257	0	10000	3	1	0	3	0
75	258	0	10000	3	1	0	3	0
74	259	0	10000	3	1	0	3	0
72	260	0	10000	3	1	0	3	0
71	261	0	10000	3	1	0	3	0
70	261	0	10000	3	1	0	3	0
69	262	0	10000	3	1	0	3	0
68	264	0	10000	3	1	0	3	0
65	265	0	10000	3	1	0	3	0
64	266	0	10000	3	1	0	3	0
59	267	0	10000	3	1	0	3	0
57	268	0	10000	3	1	0	3	0
57	269	0	10000	3	1	0	3	0
56	270	0	10000	3	1	0	3	0
55	271	0	10000	3	1	0	3	0
54	271	0	10000	3	1	0	3	0
53	272	0	10000	3	1	0	3	0
52	274	0	10000	3	1	0	3	0
51	275	0	10000	3	1	0	3	0
49	276	0	10000	3	1	0	3	0
51	277	0	10000	3	1	0	3	0
50	278	0	10000	3	1	0	3	0
50	279	0	10000	3	1	0	3	0
48	280	0	10000	3	1	0	3	0
46	281	0	10000	3	1	0	3	0
44	281	0	10000	3	1	0	3	0
43	282	0	10000	3	1	0	3	0
43	284	0	10000	3	1	0	3	0
42	285	0	10000	3	1	0	3	0
41	286	0	10000	3	1	0	3	0
40	287	0	10000	3	1	0	3	0
38	288	0	10000	3	1	0	3	0
38	289	0	10000	3	1	0	3	0
41	290	0	10000	3	1	0	3	0
42	291	0	10000	3	1	0	3	0
46	291	0	10000	3	1	0	3	0
47	292	0	10000	3	1	0	3	0
47	294	0	10000	3	1	0	3	0
44	295	0	10000	3	1	0	3	0
43	296	0	10000	3	1	0	3	0
45	297	0	10000	3	1	0	3	0
47	298	0	10000	3	1	0	3	0
48	299	0	10000	3	1	0	3	0
49	300	0	10000	3	1	0	3	0
51	301	0	10000	3	1	0	3	0
52	301	0	10000	3	1	0	3	0
53	302	0	10000	3	1	0	3	0
52	304	0	10000	3	1	0	3	0
50	305	0	10000	3	1	0	3	0
50	306	0	10000	3	1	0	3	0
46	307	0	10000	3	1	0	3	0
46	308	0	10000	3	1	0	3	0
44	309	0	10000	3	1	0	3	0
44	310	0	10000	3	1	0	3	0
46	311	0	10000	3	1	0	3	0
45	311	0	10000	3	1	0	3	0
45	312	0	10000	3	1	0	3	0
45	314	0	10000	3	1	0	3	0
47	315	0	10000	3	1	0	3	0
48	316	0	10000	3	1	0	3	0
54	317	0	10000	3	1	0	3	0
56	318	0	10000	3	1	0	3	0
56	319	0	10000	3	1	0	3	0
55	320	0	10000	3	1	0	3	0
56	321	0	10000	3	1	0	3	0
57	321	0	10000	3	1	0	3	0
56	322	0	10000	3	1	0	3	0
56	324	0	10000	3	1	0	3	0
54	325	0	10000	3	1	0	3	0
52	326	0	10000	3	1	0	3	0
49	327	0	10000	3	1	0	3	0
51	328	0	10000	3	1	0	3	0
52	329	0	10000	3	1	0	3	0
50	330	0	10000	3	1	0	3	0
49	331	0	10000	3	1	0	3	0
49	331	0	10000	3	1	0	3	0
48	332	0	10000	3	1	0	3	0
46	334	0	10000	3	1	0	3	0
48	335	0	10000	3	1	0	3	0
53	336	0	10000	3	1	0	3	0
59	337	0	10000	3	1	0	3	0
58	338	0	10000	3	1	0	3	0
56	339	0	10000	3	1	0	3	0
56	340	0	10000	3	1	0	3	0
53	341	0	10000	3	1	0	3	0
55	341	0	10000	3	1	0	3	0
56	342	0	10000	3	1	0	3	0
57	344	0	10000	3	1	0	3	0
55	345	0	10000	3	1	0	3	0
53	346	0	10000	3	1	0	3	0
53	347	0	10000	3	1	0	3	0
55	348	0	10000	3	1	0	3	0
55	349	0	10000	3	1	0	3	0
54	350	0	10000	3	1	0	3	0
57	351	0	10000	3	1	0	3	0
58	351	0	10000	3	1	0	3	0
58	352	0	10000	3	1	0	3	0
56	354	0	10000	3	1	0	3	0
55	355	0	10000	3	1	0	3	0
56	356	0	10000	3	1	0	3	0
57	357	0	10000	3	1	0	3	0
56	358	0	10000	3	1	0	3	0
54	359	0	10000	3	1	0	3	0
53	360	0	10000	3	1	0	3	0
54	361	0	10000	3	1	0	3	0
53	361	0	10000	3	1	0	3	0
51	362	0	10000	3	1	0	3	0
50	364	0	10000	3	1	0	3	0
51	365	0	10000	3	1	0	3	0
55	366	0	10000	3	1	0	3	0
55	367	0	10000	3	1	0	3	0
55	368	0	10000	3	1	0	3	0
54	369	0	10000	3	1	0	3	0
53	370	0	10000	3	1	0	3	0
53	371	0	10000	3	1	0	3	0
57	371	0	10000	3	1	0	3	0
55	372	0	10000	3	1	0	3	0
53	374	0	10000	3	1	0	3	0
52	375	0	10000	3	1	0	3	0
50	376	0	10000	3	1	0	3	0
52	377	0	10000	3	1	0	3	0
53	378	0	10000	3	1	0	3	0
52	379	0	10000	3	1	0	3	0
51	380	0	10000	3	1	0	3	0
51	381	0	10000	3	1	0	3	0
49	381	0	10000	3	1	0	3	0
48	382	0	10000	3	1	0	3	0
47	384	0	10000	3	1	0	3	0
46	385	0	10000	3	1	0	3	0
46	386	0	10000	3	1	0	3	0
44	387	0	10000	3	1	0	3	0
43	388	0	10000	3	1	0	3	0
44	389	0	10000	3	1	0	3	0
44	390	0	10000	3	1	0	3	0
46	391	0	10000	3	1	0	3	0
48	391	0	10000	3	1	0	3	0
50	392	0	10000	3	1	0	3	0
52	394	0	10000	3	1	0	3	0
55	395	0	10000	3	1	0	3	0
58	396	0	10000	3	1	0	3	0
63	397	0	10000	3	1	0	3	0
65	398	0	10000	3	1	0	3	0
66	399	0	10000	3	1	0	3	0
67	400	0	10000	3	1	0	3	0
68	401	0	10000	3	1	0	3	0
65	401	0	10000	3	1	0	3	0
63	402	0	10000	3	1	0	3	0
62	404	0	10000	3	1	0	3	0
60	405	0	10000	3	1	0	3	0
58	406	0	10000	3	1	0	3	0
57	407	0	10000	3	1	0	3	0
57	408	0	10000	3	1	0	3	0
54	409	0	10000	3	1	0	3	0
52	410	0	10000	3	1	0	3	0
50	411	0	10000	3	1	0	3	0
50	411	0	10000	3	1	0	3	0
48	412	0	10000	3	1	0	3	0
46	414	0	10000	3	1	0	3	0
44	415	0	10000	3	1	0	3	0
43	416	0	10000	3	1	0	3	0
43	417	0	10000	3	1	0	3	0
41	418	0	10000	3	1	0	3	0
41	419	0	10000	3	1	0	3	0
39	420	0	10000	3	1	0	3	0
38	421	0	10000	3	1	0	3	0
37	421	0	10000	3	1	0	3	0
34	422	0	10000	3	1	0	3	0
37	424	0	10000	3	1	0	3	0
40	425	0	10000	3	1	0	3	0
44	426	0	10000	3	1	0	3	0
46	427	0	10000	3	1	0	3	0
48	428	0	10000	3	1	0	3	0
46	429	0	10000	3	1	0	3	0
45	430	0	10000	3	1	0	3	0
44	431	0	10000	3	1	0	3	0
44	431	0	10000	3	1	0	3	0
45	432	0	10000	3	1	0	3	0
44	434	0	10000	3	1	0	3	0
44	435	0	10000	3	1	0	3	0
43	436	0	10000	3	1	0	3	0
43	437	0	10000	3	1	0	3	0
43	438	0	10000	3	1	0	3	0
42	439	0	10000	3	1	0	3	0
40	440	0	10000	3	1	0	3	0
39	441	0	10000	3	1	0	3	0
39	441	0	10000	3	1	0	3	0
40	442	0	10000	3	1	0	3	0
39	444	0	10000	3	1	0	3	0
40	445	0	10000	3	1	0	3	0
42	446	0	10000	3	1	0	3	0
42	447	0	10000	3	1	0	3	0
40	448	0	10000	3	1	0	3	0
39	449	0	10000	3	1	0	3	0
38	450	0	10000	3	1	0	3	0
37	451	0	10000	3	1	0	3	0
35	451	0	10000	3	1	0	3	0
37	452	0	10000	3	1	0	3	0
37	454	0	10000	3	1	0	3	0
36	455	0	10000	3	1	0	3	0
36	456	0	10000	3	1	0	3	0
38	457	0	10000	3	1	0	3	0
39	458	0	10000	3	1	0	3	0
38	459	0	10000	3	1	0	3	0
37	460	0	10000	3	1	0	3	0
36	461	0	10000	3	1	0	3	0
34	461	0	10000	3	1	0	3	0
36	462	0	10000	3	1	0	3	0
38	464	0	10000	3	1	0	3	0
39	465	0	10000	3	1	0	3	0
41	466	0	10000	3	1	0	3	0
38	467	0	10000	3	1	0	3	0
37	468	0	10000	3	1	0	3	0
39	469	0	10000	3	1	0	3	0
39	470	0	10000	3	1	0	3	0
39	471	0	10000	3	1	0	3	0
38	471	0	10000	3	1	0	3	0
37	472	0	10000	3	1	0	3	0
37	474	0	10000	3	1	0	3	0
38	475	0	10000	3	1	0	3	0
38	476	0	10000	3	1	0	3	0
40	477	0	10000	3	1	0	3	0
40	478	0	10000	3	1	0	3	0
39	479	0	10000	3	1	0	3	0
39	480	0	10000	3	1	0	3	0
39	481	0	10000	3	1	0	3	0
38	481	0	10000	3	1	0	3	0
39	482	0	10000	3	1	0	3	0
42	484	0	10000	3	1	0	3	0
41	485	0	10000	3	1	0	3	0
41	486	0	10000	3	1	0	3	0
42	487	0	10000	3	1	0	3	0
48	488	0	10000	3	1	0	3	0
53	489	0	10000	3	1	0	3	0
56	490	0	10000	3	1	0	3	0
58	491	0	10000	3	1	0	3	0
61	491	0	10000	3	1	0	3	0
62	492	0	10000	3	1	0	3	0
61	494	0	10000	3	1	0	3	0
58	495	0	10000	3	1	0	3	0
55	496	0	10000	3	1	0	3	0
56	497	0	10000	3	1	0	3	0
55	498	0	10000	3	1	0	3	0
56	499	0	10000	3	1	0	3	0
59	500	0	10000	3	1	0	3	0
62	501	0	10000	3	1	0	3	0
66	502	0	10000	3	1	0	3	1
67	503	0	10000	3	1	0	3	1
66	504	0	10000	3	1	0	3	1
68	505	0	10000	3	1	0	3	1
71	506	0	10000	3	1	0	3	1
71	507	0	10000	3	1	0	3	1
72	508	0	10000	3	1	0	3	1
71	509	0	10000	3	1	0	3	1
71	510	0	10000	3	1	0	3	1
70	511	0	10000	3	1	0	3	1
68	511	0	10000	3	1	0	3	1
65	512	0	10000	3	1	0	3	1
65	514	0	10000	3	1	0	3	1
63	515	0	10000	3	1	0	3	1
62	516	0	10000	3	1	0	3	1
62	517	0	10000	3	1	0	3	1
60	518	0	10000	3	1	0	3	1
58	519	0	10000	3	1	0	3	1
56	520	0	10000	3	1	0	3	1
57	521	0	10000	3	1	0	3	1
56	521	0	10000	3	1	0	3	1
55	522	0	10000	3	1	0	3	1
56	524	0	10000	3	1	0	3	1
57	525	0	10000	3	1	0	3	1
56	526	0	10000	3	1	0	3	1
53	527	0	10000	3	1	0	3	1
52	528	0	10000	3	1	0	3	1
49	529	0	10000	3	1	0	3	1
50	530	0	10000	3	1	0	3	1
48	531	0	10000	3	1	0	3	1
47	531	0	10000	3	1	0	3	1
50	532	0	10000	3	1	0	3	1
49	534	0	10000	3	1	0	3	1
49	535	0	10000	3	1	0	3	1
49	536	0	10000	3	1	0	3	1
48	537	0	10000	3	1	0	3	1
49	538	0	10000	3	1	0	3	1
49	539	0	10000	3	1	0	3	1
49	540	0	10000	3	1	0	3	1
48	541	0	10000	3	1	0	3	1
47	541	0	10000	3	1	0	3	1
45	542	0	10000	3	1	0	3	1
43	544	0	10000	3	1	0	3	1
42	545	0	10000	3	1	0	3	1
41	546	0	10000	3	1	0	3	1
39	547	0	10000	3	1	0	3	1
39	548	0	10000	3	1	0	3	1
41	549	0	10000	3	1	0	3	1
45	550	0	10000	3	1	0	3	1
48	551	0	10000	3	1	0	3	1
47	551	0	10000	3	1	0	3	0
46	552	0	10000	3	1	0	3	0
45	554	0	10000	3	1	0	3	0
44	555	0	10000	3	1	0	3	0
43	556	0	10000	3	1	0	3	0
43	557	0	10000	3	1	0	3	0
42	558	0	10000	3	1	0	3	0
41	559	0	10000	3	1	0	3	0
40	560	0	10000	3	1	0	3	0
42	561	0	10000	3	1	0	3	0
43	561	0	10000	3	1	0	3	0
43	562	0	10000	3	1	0	3	0
42	564	0	10000	3	1	0	3	0
40	565	0	10000	3	1	0	3	0
39	566	0	10000	3	1	0	3	0
36	567	0	10000	3	1	0	3	0
35	568	0	10000	3	1	0	3	0
35	569	0	10000	3	1	0	3	0
35	570	0	10000	3	1	0	3	0
35	571	0	10000	3	1	0	3	0
36	571	0	10000	3	1	0	3	0
37	572	0	10000	3	1	0	3	0
36	574	0	10000	3	1	0	3	0
35	575	0	10000	3	1	0	3	0
33	576	0	10000	3	1	0	3	0
34	577	0	10000	3	1	0	3	0
34	578	0	10000	3	1	0	3	0
32	579	0	10000	3	1	0	3	0
32	580	0	10000	3	1	0	3	0
32	581	0	10000	3	1	0	3	0
31	581	0	10000	3	1	0	3	0
29	582	0	10000	3	1	0	3	0
31	584	0	10000	3	1	0	3	0
32	585	0	10000	3	1	0	3	0
36	586	0	10000	3	1	0	3	0
34	587	0	10000	3	1	0	3	0
34	588	0	10000	3	1	0	3	0
32	589	0	10000	3	1	0	3	0
34	590	0	10000	3	1	0	3	0
38	591	0	10000	3	1	0	3	0
57	591	0	10000	3	1	0	3	0
65	592	0	10000	3	1	0	3	0
63	594	0	10000	3	1	0	3	0
62	595	0	10000	3	1	0	3	0
66	596	0	10000	3	1	0	3	0
74	597	0	10000	3	1	0	3	0
88	598	0	10000	3	1	0	3	0
157	599	0	10000	3	1	0	3	0
198	600	0	10000	3	1	0	3	0
192	601	0	10000	3	1	0	3	0
192	601	0	10000	3	1	0	3	0
203	602	0	10000	3	1	0	3	0
206	604	0	10000	3	1	0	3	0
231	605	0	10000	3	1	0	3	0
248	606	0	10000	3	1	0	3	0
269	607	0	10000	3	1	0	3	0
347	608	0	10000	3	1	0	3	0
380	609	0	10000	3	1	0	3	0
391	610	0	10000	3	1	0	3	0
397	611	0	10000	3	1	0	3	0
449	611	0	10000	3	1	0	3	0
474	612	0	10000	3	1	0	3	0
456	614	0	10000	3	1	0	3	0
450	615	0	10000	3	1	0	3	0
461	616	0	10000	3	1	0	3	0
460	617	0	10000	3	1	0	3	0
455	618	0	10000	3	1	0	3	0
441	619	0	10000	3	1	0	3	0
431	620	0	10000	3	1	0	3	0
464	621	0	10000	3	1	0	3	0
494	621	0	10000	3	1	0	3	0
481	622	0	10000	3	1	0	3	0
488	624	0	10000	3	1	0	3	0
496	625	0	10000	3	1	0	3	0
542	626	0	10000	3	1	0	3	0
594	627	0	10000	3	1	0	3	0
600	628	0	10000	3	1	0	3	0
583	629	0	10000	3	1	0	3	0
571	630	0	10000	3	1	0	3	0
568	631	0	10000	3	1	0	3	0
554	631	0	10000	3	1	0	3	0
532	632	0	10000	3	1	0	3	0
520	634	0	10000	3	1	0	3	0
514	635	0	10000	3	1	0	3	0
511	636	0	10000	3	1	0	3	0
512	637	0	10000	3	1	0	3	0
509	638	0	10000	3	1	0	3	0
508	639	0	10000	3	1	0	3	0
505	640	0	10000	3	1	0	3	0
503	641	0	10000	3	1	0	3	0
499	641	0	10000	3	1	0	3	0
494	642	0	10000	3	1	0	3	0
491	644	0	10000	3	1	0	3	0
490	645	0	10000	3	1	0	3	0
486	646	0	10000	3	1	0	3	0
476	647	0	10000	3	1	0	3	0
467	648	0	10000	3	1	0	3	0
457	649	0	10000	3	1	0	3	0
445	650	0	10000	3	1	0	3	0
427	651	0	10000	3	1	0	3	0
409	651	0	10000	3	1	0	3	0
393	652	0	10000	3	1	0	3	0
377	654	0	10000	3	1	0	3	0
368	655	0	10000	3	1	0	3	0
357	656	0	10000	3	1	0	3	0
349	657	0	10000	3	1	0	3	0
344	658	0	10000	3	1	0	3	0
341	659	0	10000	3	1	0	3	0
341	660	0	10000	3	1	0	3	0
347	661	0	10000	3	1	0	3	0
349	661	0	10000	3	1	0	3	0
351	662	0	10000	3	1	0	3	0
350	664	0	10000	3	1	0	3	0
347	665	0	10000	3	1	0	3	0
344	666	0	10000	3	1	0	3	0
337	667	0	10000	3	1	0	3	0
333	668	0	10000	3	1	0	3	0
327	669	0	10000	3	1	0	3	0
324	670	0	10000	3	1	0	3	0
319	671	0	10000	3	1	0	3	0
313	671	0	10000	3	1	0	3	0
307	672	0	10000	3	1	0	3	0
299	674	0	10000	3	1	0	3	0
293	675	0	10000	3	1	0	3	0
285	676	0	10000	3	1	0	3	0
282	677	0	10000	3	1	0	3	0
276	678	0	10000	3	1	0	3	0
267	679	0	10000	3	1	0	3	0
259	680	0	10000	3	1	0	3	0
249	681	0	10000	3	1	0	3	0
237	681	0	10000	3	1	0	3	0
229	682	0	10000	3	1	0	3	0
224	684	0	10000	3	1	0	3	0
217	685	0	10000	3	1	0	3	0
210	686	0	10000	3	1	0	3	0
202	687	0	10000	3	1	0	3	0
203	688	0	10000	3	1	0	3	0
209	689	0	10000	3	1	0	3	0
216	690	0	10000	3	1	0	3	0
225	691	0	10000	3	1	0	3	0
233	691	0	10000	3	1	0	3	0
238	692	0	10000	3	1	0	3	0
241	694	0	10000	3	1	0	3	0
240	695	0	10000	3	1	0	3	0
237	696	0	10000	3	1	0	3	0
236	697	0	10000	3	1	0	3	0
230	698	0	10000	3	1	0	3	0
224	699	0	10000	3	1	0	3	0
216	700	0	10000	3	1	0	3	0
207	701	0	10000	3	1	0	3	0
199	701	0	10000	3	1	0	3	0
192	702	0	10000	3	1	0	3	0
188	704	0	10000	3	1	0	3	0
186	705	0	10000	3	1	0	3	0
187	706	0	10000	3	1	0	3	0
185	707	0	10000	3	1	0	3	0
187	708	0	10000	3	1	0	3	0
189	709	0	10000	3	1	0	3	0
189	710	0	10000	3	1	0	3	0
189	711	0	10000	3	1	0	3	0
185	711	0	10000	3	1	0	3	0
180	712	0	10000	3	1	0	3	0
175	714	0	10000	3	1	0	3	0
168	715	0	10000	3	1	0	3	0
162	716	0	10000	3	1	0	3	0
156	717	0	10000	3	1	0	3	0
150	718	0	10000	3	1	0	3	0
144	719	0	10000	3	1	0	3	0
140	720	0	10000	3	1	0	3	0
138	721	0	10000	3	1	0	3	0
134	721	0	10000	3	1	0	3	0
128	722	0	10000	3	1	0	3	0
125	724	0	10000	3	1	0	3	0
123	725	0	10000	3	1	0	3	0
122	726	0	10000	3	1	0	3	0
119	727	0	10000	3	1	0	3	0
117	728	0	10000	3	1	0	3	0
114	729	0	10000	3	1	0	3	0
111	730	0	10000	3	1	0	3	0
108	731	0	10000	3	1	0	3	0
104	731	0	10000	3	1	0	3	0
100	732	0	10000	3	1	0	3	0
99	734	0	10000	3	1	0	3	0
97	735	0	10000	3	1	0	3	0
94	736	0	10000	3	1	0	3	0
95	737	0	10000	3	1	0	3	0
95	738	0	10000	3	1	0	3	0
98	739	0	10000	3	1	0	3	0
99	740	0	10000	3	1	0	3	0
100	741	0	10000	3	1	0	3	0
99	741	0	10000	3	1	0	3	0
96	742	0	10000	3	1	0	3	0
92	744	0	10000	3	1	0	3	0
89	745	0	10000	3	1	0	3	0
86	746	0	10000	3	1	0	3	0
80	747	0	10000	3	1	0	3	0
78	748	0	10000	3	1	0	3	0
74	749	0	10000	3	1	0	3	0
72	750	0	10000	3	1	0	3	0
69	751	0	10000	3	1	0	3	0
67	751	0	10000	3	1	0	3	0
66	752	0	10000	3	1	0	3	0
65	754	0	10000	3	1	0	3	0
70	755	0	10000	3	1	0	3	0
75	756	0	10000	3	1	0	3	0
82	757	0	10000	3	1	0	3	0
85	758	0	10000	3	1	0	3	0
86	759	0	10000	3	1	0	3	0
84	760	0	10000	3	1	0	3	0
81	761	0	10000	3	1	0	3	0
77	761	0	10000	3	1	0	3	0
76	762	0	10000	3	1	0	3	0
75	764	0	10000	3	1	0	3	0
76	765	0	10000	3	1	0	3	0
74	766	0	10000	3	1	0	3	0
70	767	0	10000	3	1	0	3	0
70	768	0	10000	3	1	0	3	0
69	769	0	10000	3	1	0	3	0
68	770	0	10000	3	1	0	3	0
70	771	0	10000	3	1	0	3	0
72	771	0	10000	3	1	0	3	0
72	772	0	10000	3	1	0	3	0
69	774	0	10000	3	1	0	3	0
67	775	0	10000	3	1	0	3	0
66	776	0	10000	3	1	0	3	0
69	777	0	10000	3	1	0	3	0
73	778	0	10000	3	1	0	3	0
74	779	0	10000	3	1	0	3	0
76	780	0	10000	3	1	0	3	0
80	781	0	10000	3	1	0	3	0
83	781	0	10000	3	1	0	3	0
87	782	0	10000	3	1	0	3	0
91	784	0	10000	3	1	0	3	0
93	785	0	10000	3	1	0	3	0
92	786	0	10000	3	1	0	3	0
88	787	0	10000	3	1	0	3	0
90	788	0	10000	3	1	0	3	0
91	789	0	10000	3	1	0	3	0
88	790	0	10000	3	1	0	3	0
85	791	0	10000	3	1	0	3	0
83	791	0	10000	3	1	0	3	0
82	792	0	10000	3	1	0	3	0
78	794	0	10000	3	1	0	3	0
76	795	0	10000	3	1	0	3	0
73	796	0	10000	3	1	0	3	0
72	797	0	10000	3	1	0	3	0
79	798	0	10000	3	1	0	3	0
89	799	0	10000	3	1	0	3	0
95	800	0	10000	3	1	0	3	0
93	801	0	10000	3	1	0	3	0
97	801	0	10000	3	1	0	3	0
102	802	0	10000	3	1	0	3	0
106	804	0	10000	3	1	0	3	0
106	805	0	10000	3	1	0	3	0
104	806	0	10000	3	1	0	3	0
101	807	0	10000	3	1	0	3	0
103	808	0	10000	3	1	0	3	0
100	809	0	10000	3	1	0	3	0
98	810	0	10000	3	1	0	3	0
100	811	0	10000	3	1	0	3	0
101	811	0	10000	3	1	0	3	0
102	812	0	10000	3	1	0	3	0
104	814	0	10000	3	1	0	3	0
100	815	0	10000	3	1	0	3	0
95	816	0	10000	3	1	0	3	0
99	817	0	10000	3	1	0	3	0
102	818	0	10000	3	1	0	3	0
107	819	0	10000	3	1	0	3	0
110	820	0	10000	3	1	0	3	0
112	821	0	10000	3	1	0	3	0
114	821	0	10000	3	1	0	3	0
113	822	0	10000	3	1	0	3	0
111	824	0	10000	3	1	0	3	0
108	825	0	10000	3	1	0	3	0
104	826	0	10000	3	1	0	3	0
98	827	0	10000	3	1	0	3	0
94	828	0	10000	3	1	0	3	0
92	829	0	10000	3	1	0	3	0
91	830	0	10000	3	1	0	3	0
89	831	0	10000	3	1	0	3	0
88	831	0	10000	3	1	0	3	0
85	832	0	10000	3	1	0	3	0
82	834	0	10000	3	1	0	3	0
82	835	0	10000	3	1	0	3	0
84	836	0	10000	3	1	0	3	0
91	837	0	10000	3	1	0	3	0
91	838	0	10000	3	1	0	3	0
89	839	0	10000	3	1	0	3	0
85	840	0	10000	3	1	0	3	0
82	841	0	10000	3	1	0	3	0
79	841	0	10000	3	1	0	3	0
77	842	0	10000	3	1	0	3	0
76	844	0	10000	3	1	0	3	0
74	845	0	10000	3	1	0	3	0
72	846	0	10000	3	1	0	3	0
67	847	0	10000	3	1	0	3	0
66	848	0	10000	3	1	0	3	0
65	849	0	10000	3	1	0	3	0
67	850	0	10000	3	1	0	3	0
68	851	0	10000	3	1	0	3	0
68	851	0	10000	3	1	0	3	0
69	852	0	10000	3	1	0	3	0
67	854	0	10000	3	1	0	3	0
63	855	0	10000	3	1	0	3	0
62	856	0	10000	3	1	0	3	0
62	857	0	10000	3	1	0	3	0
60	858	0	10000	3	1	0	3	0
58	859	0	10000	3	1	0	3	0
57	860	0	10000	3	1	0	3	0
57	861	0	10000	3	1	0	3	0
58	861	0	10000	3	1	0	3	0
58	862	0	10000	3	1	0	3	0
57	864	0	10000	3	1	0	3	0
55	865	0	10000	3	1	0	3	0
55	866	0	10000	3	1	0	3	0
53	867	0	10000	3	1	0	3	0
51	868	0	10000	3	1	0	3	0
51	869	0	10000	3	1	0	3	0
52	870	0	10000	3	1	0	3	0
55	871	0	10000	3	1	0	3	0
57	871	0	10000	3	1	0	3	0
59	872	0	10000	3	1	0	3	0
61	874	0	10000	3	1	0	3	0
61	875	0	10000	3	1	0	3	0
60	876	0	10000	3	1	0	3	0
60	877	0	10000	3	1	0	3	0
59	878	0	10000	3	1	0	3	0
57	879	0	10000	3	1	0	3	0
57	880	0	10000	3	1	0	3	0
56	881	0	10000	3	1	0	3	0
55	881	0	10000	3	1	0	3	0
57	882	0	10000	3	1	0	3	0
59	884	0	10000	3	1	0	3	0
58	885	0	10000	3	1	0	3	0
60	886	0	10000	3	1	0	3	0
59	887	0	10000	3	1	0	3	0
57	888	0	10000	3	1	0	3	0
58	889	0	10000	3	1	0	3	0
56	890	0	10000	3	1	0	3	0
55	891	0	10000	3	1	0	3	0
57	891	0	10000	3	1	0	3	0
60	892	0	10000	3	1	0	3	0
59	894	0	10000	3	1	0	3	0
63	895	0	10000	3	1	0	3	0
65	896	0	10000	3	1	0	3	0
66	897	0	10000	3	1	0	3	0
63	898	0	10000	3	1	0	3	0
62	899	0	10000	3	1	0	3	0
60	900	0	10000	3	1	0	3	0
60	901	0	10000	3	1	0	3	0
59	901	0	10000	3	1	0	3	0
58	902	0	10000	3	1	0	3	0
56	904	0	10000	3	1	0	3	0
54	905	0	10000	3	1	0	3	0
53	906	0	10000	3	1	0	3	0
50	907	0	10000	3	1	0	3	0
48	908	0	10000	3	1	0	3	0
47	909	0	10000	3	1	0	3	0
46	910	0	10000	3	1	0	3	0
45	911	0	10000	3	1	0	3	0
46	911	0	10000	3	1	0	3	0
51	912	0	10000	3	1	0	3	0
54	914	0	10000	3	1	0	3	0
53	915	0	10000	3	1	0	3	0
53	916	0	10000	3	1	0	3	0
56	917	0	10000	3	1	0	3	0
55	918	0	10000	3	1	0	3	0
56	919	0	10000	3	1	0	3	0
55	920	0	10000	3	1	0	3	0
53	921	0	10000	3	1	0	3	0
53	921	0	10000	3	1	0	3	0
53	922	0	10000	3	1	0	3	0
56	924	0	10000	3	1	0	3	0
57	925	0	10000	3	1	0	3	0
58	926	0	10000	3	1	0	3	0
55	927	0	10000	3	1	0	3	0
54	928	0	10000	3	1	0	3	0
52	929	0	10000	3	1	0	3	0
50	930	0	10000	3	1	0	3	0
50	931	0	10000	3	1	0	3	0
51	931	0	10000	3	1	0	3	0
55	932	0	10000	3	1	0	3	0
57	934	0	10000	3	1	0	3	0
56	935	0	10000	3	1	0	3	0
56	936	0	10000	3	1	0	3	0
58	937	0	10000	3	1	0	3	0
60	938	0	10000	3	1	0	3	0
61	939	0	10000	3	1	0	3	0
58	940	0	10000	3	1	0	3	0
56	941	0	10000	3	1	0	3	0
57	941	0	10000	3	1	0	3	0
58	942	0	10000	3	1	0	3	0
61	944	0	10000	3	1	0	3	0
63	945	0	10000	3	1	0	3	0
61	946	0	10000	3	1	0	3	0
58	947	0	10000	3	1	0	3	0
57	948	0	10000	3	1	0	3	0
56	949	0	10000	3	1	0	3	0
58	950	0	10000	3	1	0	3	0
60	951	0	10000	3	1	0	3	0
61	951	0	10000	3	1	0	3	0
60	952	0	10000	3	1	0	3	0
58	954	0	10000	3	1	0	3	0
55	955	0	10000	3	1	0	3	0
53	956	0	10000	3	1	0	3	0
53	957	0	10000	3	1	0	3	0
51	958	0	10000	3	1	0	3	0
49	959	0	10000	3	1	0	3	0
50	960	0	10000	3	1	0	3	0
49	961	0	10000	3	1	0	3	0
48	961	0	10000	3	1	0	3	0
48	962	0	10000	3	1	0	3	0
49	964	0	10000	3	1	0	3	0
49	965	0	10000	3	1	0	3	0
48	966	0	10000	3	1	0	3	0
46	967	0	10000	3	1	0	3	0
46	968	0	10000	3	1	0	3	0
46	969	0	10000	3	1	0	3	0
45	970	0	10000	3	1	0	3	0
44	971	0	10000	3	1	0	3	0
42	971	0	10000	3	1	0	3	0
41	972	0	10000	3	1	0	3	0
39	974	0	10000	3	1	0	3	0
38	975	0	10000	3	1	0	3	0
38	976	0	10000	3	1	0	3	0
42	977	0	10000	3	1	0	3	0
45	978	0	10000	3	1	0	3	0
43	979	0	10000	3	1	0	3	0
41	980	0	10000	3	1	0	3	0
41	981	0	10000	3	1	0	3	0
41	981	0	10000	3	1	0	3	0
42	982	0	10000	3	1	0	3	0
44	984	0	10000	3	1	0	3	0
44	985	0	10000	3	1	0	3	0
44	986	0	10000	3	1	0	3	0
42	987	0	10000	3	1	0	3	0
41	988	0	10000	3	1	0	3	0
41	989	0	10000	3	1	0	3	0
39	990	0	10000	3	1	0	3	0
40	991	0	10000	3	1	0	3	0
41	991	0	10000	3	1	0	3	0
40	992	0	10000	3	1	0	3	0
40	994	0	10000	3	1	0	3	0
39	995	0	10000	3	1	0	3	0
38	996	0	10000	3	1	0	3	0
43	997	0	10000	3	1	0	3	0
49	998	0	10000	3	1	0	3	0
55	999	0	10000	3	1	0	3	0
56	1000	0	10000	3	1	0	3	0
59	1001	0	10000	3	1	0	3	0
115	2	10	10000	4	1	0	4	0
114	3	10	10000	4	1	0	4	0
111	4	10	10000	4	1	0	4	0
116	5	10	10000	4	1	0	4	0
122	6	10	10000	4	1	0	4	0
127	7	10	10000	4	1	0	4	0
122	8	10	10000	4	1	0	4	0
119	9	10	10000	4	1	0	4	0
120	10	10	10000	4	1	0	4	0
127	11	10	10000	4	1	0	4	0
131	12	10	10000	4	1	0	4	0
129	13	10	10000	4	1	0	4	0
125	14	10	10000	4	1	0	4	0
123	15	10	10000	4	1	0	4	0
121	16	10	10000	4	1	0	4	0
116	17	10	10000	4	1	0	4	0
114	18	10	10000	4	1	0	4	0
115	19	10	10000	4	1	0	4	0
113	20	10	10000	4	1	0	4	0
108	21	10	10000	4	1	0	4	0
105	22	10	10000	4	1	0	4	0
102	23	10	10000	4	1	0	4	0
98	24	10	10000	4	1	0	4	0
94	25	10	10000	4	1	0	4	0
91	26	10	10000	4	1	0	4	0
87	27	10	10000	4	1	0	4	0
82	28	10	10000	4	1	0	4	0
79	29	10	10000	4	1	0	4	0
75	30	10	10000	4	1	0	4	0
73	31	10	10000	4	1	0	4	0
80	32	10	10000	4	1	0	4	0
83	33	10	10000	4	1	0	4	0
83	34	10	10000	4	1	0	4	0
81	35	10	10000	4	1	0	4	0
79	36	10	10000	4	1	0	4	0
77	37	10	10000	4	1	0	4	0
84	38	10	10000	4	1	0	4	0
88	39	10	10000	4	1	0	4	0
90	40	10	10000	4	1	0	4	0
92	41	10	10000	4	1	0	4	0
92	42	10	10000	4	1	0	4	0
91	43	10	10000	4	1	0	4	0
93	44	10	10000	4	1	0	4	0
91	45	10	10000	4	1	0	4	0
88	46	10	10000	4	1	0	4	0
87	47	10	10000	4	1	0	4	0
84	48	10	10000	4	1	0	4	0
81	49	10	10000	4	1	0	4	0
78	50	10	10000	4	1	0	4	0
77	51	10	10000	4	1	0	4	0
77	52	10	10000	4	1	0	4	0
74	53	10	10000	4	1	0	4	0
72	54	10	10000	4	1	0	4	0
75	55	10	10000	4	1	0	4	0
77	56	10	10000	4	1	0	4	0
82	57	10	10000	4	1	0	4	0
79	58	10	10000	4	1	0	4	0
76	59	10	10000	4	1	0	4	0
74	60	10	10000	4	1	0	4	0
70	61	10	10000	4	1	0	4	0
68	62	10	10000	4	1	0	4	0
68	63	10	10000	4	1	0	4	0
68	64	10	10000	4	1	0	4	0
71	65	10	10000	4	1	0	4	0
77	66	10	10000	4	1	0	4	0
78	67	10	10000	4	1	0	4	0
75	68	10	10000	4	1	0	4	0
74	69	10	10000	4	1	0	4	0
72	70	10	10000	4	1	0	4	0
73	71	10	10000	4	1	0	4	0
73	72	10	10000	4	1	0	4	0
76	73	10	10000	4	1	0	4	0
76	74	10	10000	4	1	0	4	0
75	75	10	10000	4	1	0	4	0
74	76	10	10000	4	1	0	4	0
78	77	10	10000	4	1	0	4	0
83	78	10	10000	4	1	0	4	0
87	79	10	10000	4	1	0	4	0
85	80	10	10000	4	1	0	4	0
84	81	10	10000	4	1	0	4	0
83	82	10	10000	4	1	0	4	0
83	83	10	10000	4	1	0	4	0
83	84	10	10000	4	1	0	4	0
86	85	10	10000	4	1	0	4	0
89	86	10	10000	4	1	0	4	0
92	87	10	10000	4	1	0	4	0
92	88	10	10000	4	1	0	4	0
92	89	10	10000	4	1	0	4	0
94	90	10	10000	4	1	0	4	0
104	91	10	10000	4	1	0	4	0
113	92	10	10000	4	1	0	4	0
114	93	10	10000	4	1	0	4	0
110	94	10	10000	4	1	0	4	0
113	95	10	10000	4	1	0	4	0
117	96	10	10000	4	1	0	4	0
120	97	10	10000	4	1	0	4	0
122	98	10	10000	4	1	0	4	0
122	99	10	10000	4	1	0	4	0
120	100	10	10000	4	1	0	4	0
116	101	10	10000	4	1	0	4	0
109	102	10	10000	4	1	0	4	0
106	103	10	10000	4	1	0	4	0
106	104	10	10000	4	1	0	4	0
108	105	10	10000	4	1	0	4	0
106	106	10	10000	4	1	0	4	0
104	107	10	10000	4	1	0	4	0
101	108	10	10000	4	1	0	4	0
101	109	10	10000	4	1	0	4	0
101	110	10	10000	4	1	0	4	0
98	111	10	10000	4	1	0	4	0
96	112	10	10000	4	1	0	4	0
93	113	10	10000	4	1	0	4	0
92	114	10	10000	4	1	0	4	0
89	115	10	10000	4	1	0	4	0
88	116	10	10000	4	1	0	4	0
88	117	10	10000	4	1	0	4	0
86	118	10	10000	4	1	0	4	0
88	119	10	10000	4	1	0	4	0
86	120	10	10000	4	1	0	4	0
85	121	10	10000	4	1	0	4	0
84	122	10	10000	4	1	0	4	0
84	123	10	10000	4	1	0	4	0
83	124	10	10000	4	1	0	4	0
83	125	10	10000	4	1	0	4	0
81	126	10	10000	4	1	0	4	0
81	127	10	10000	4	1	0	4	0
84	128	10	10000	4	1	0	4	0
82	129	10	10000	4	1	0	4	0
78	130	10	10000	4	1	0	4	0
79	131	10	10000	4	1	0	4	0
80	132	10	10000	4	1	0	4	0
78	133	10	10000	4	1	0	4	0
78	134	10	10000	4	1	0	4	0
80	135	10	10000	4	1	0	4	0
80	136	10	10000	4	1	0	4	0
79	137	10	10000	4	1	0	4	0
75	138	10	10000	4	1	0	4	0
75	139	10	10000	4	1	0	4	0
75	140	10	10000	4	1	0	4	0
75	141	10	10000	4	1	0	4	0
71	142	10	10000	4	1	0	4	0
73	143	10	10000	4	1	0	4	0
75	144	10	10000	4	1	0	4	0
72	145	10	10000	4	1	0	4	0
70	146	10	10000	4	1	0	4	0
70	147	10	10000	4	1	0	4	0
72	148	10	10000	4	1	0	4	0
73	149	10	10000	4	1	0	4	0
76	150	10	10000	4	1	0	4	0
84	151	10	10000	4	1	0	4	0
88	152	10	10000	4	1	0	4	0
84	153	10	10000	4	1	0	4	0
84	154	10	10000	4	1	0	4	0
83	155	10	10000	4	1	0	4	0
81	156	10	10000	4	1	0	4	0
79	157	10	10000	4	1	0	4	0
76	158	10	10000	4	1	0	4	0
75	159	10	10000	4	1	0	4	0
74	160	10	10000	4	1	0	4	0
72	161	10	10000	4	1	0	4	0
72	162	10	10000	4	1	0	4	0
74	163	10	10000	4	1	0	4	0
71	164	10	10000	4	1	0	4	0
68	165	10	10000	4	1	0	4	0
69	166	10	10000	4	1	0	4	0
72	167	10	10000	4	1	0	4	0
70	168	10	10000	4	1	0	4	0
72	169	10	10000	4	1	0	4	0
76	170	10	10000	4	1	0	4	0
73	171	10	10000	4	1	0	4	0
76	172	10	10000	4	1	0	4	0
75	173	10	10000	4	1	0	4	0
76	174	10	10000	4	1	0	4	0
80	175	10	10000	4	1	0	4	0
81	176	10	10000	4	1	0	4	0
79	177	10	10000	4	1	0	4	0
80	178	10	10000	4	1	0	4	0
84	179	10	10000	4	1	0	4	0
88	180	10	10000	4	1	0	4	0
89	181	10	10000	4	1	0	4	0
87	182	10	10000	4	1	0	4	0
85	183	10	10000	4	1	0	4	0
82	184	10	10000	4	1	0	4	0
81	185	10	10000	4	1	0	4	0
78	186	10	10000	4	1	0	4	0
78	187	10	10000	4	1	0	4	0
75	188	10	10000	4	1	0	4	0
72	189	10	10000	4	1	0	4	0
71	190	10	10000	4	1	0	4	0
70	191	10	10000	4	1	0	4	0
73	192	10	10000	4	1	0	4	0
72	193	10	10000	4	1	0	4	0
70	194	10	10000	4	1	0	4	0
67	195	10	10000	4	1	0	4	0
65	196	10	10000	4	1	0	4	0
63	197	10	10000	4	1	0	4	0
64	198	10	10000	4	1	0	4	0
65	199	10	10000	4	1	0	4	0
69	200	10	10000	4	1	0	4	0
71	201	10	10000	4	1	0	4	0
72	202	10	10000	4	1	0	4	0
73	203	10	10000	4	1	0	4	0
72	204	10	10000	4	1	0	4	0
72	205	10	10000	4	1	0	4	0
71	206	10	10000	4	1	0	4	0
73	207	10	10000	4	1	0	4	0
78	208	10	10000	4	1	0	4	0
83	209	10	10000	4	1	0	4	0
89	210	10	10000	4	1	0	4	0
92	211	10	10000	4	1	0	4	0
91	212	10	10000	4	1	0	4	0
87	213	10	10000	4	1	0	4	0
85	214	10	10000	4	1	0	4	0
82	215	10	10000	4	1	0	4	0
80	216	10	10000	4	1	0	4	0
77	217	10	10000	4	1	0	4	0
74	218	10	10000	4	1	0	4	0
73	219	10	10000	4	1	0	4	0
71	220	10	10000	4	1	0	4	0
72	221	10	10000	4	1	0	4	0
73	222	10	10000	4	1	0	4	0
74	223	10	10000	4	1	0	4	0
72	224	10	10000	4	1	0	4	0
69	225	10	10000	4	1	0	4	0
67	226	10	10000	4	1	0	4	0
65	227	10	10000	4	1	0	4	0
63	228	10	10000	4	1	0	4	0
62	229	10	10000	4	1	0	4	0
62	230	10	10000	4	1	0	4	0
62	231	10	10000	4	1	0	4	0
67	232	10	10000	4	1	0	4	0
71	233	10	10000	4	1	0	4	0
71	234	10	10000	4	1	0	4	0
71	235	10	10000	4	1	0	4	0
73	236	10	10000	4	1	0	4	0
73	237	10	10000	4	1	0	4	0
75	238	10	10000	4	1	0	4	0
75	239	10	10000	4	1	0	4	0
74	240	10	10000	4	1	0	4	0
75	241	10	10000	4	1	0	4	0
77	242	10	10000	4	1	0	4	0
78	243	10	10000	4	1	0	4	0
80	244	10	10000	4	1	0	4	0
87	245	10	10000	4	1	0	4	0
90	246	10	10000	4	1	0	4	0
89	247	10	10000	4	1	0	4	0
85	248	10	10000	4	1	0	4	0
84	249	10	10000	4	1	0	4	0
80	250	10	10000	4	1	0	4	0
79	251	10	10000	4	1	0	4	0
80	252	10	10000	4	1	0	4	0
78	253	10	10000	4	1	0	4	0
77	254	10	10000	4	1	0	4	0
75	255	10	10000	4	1	0	4	0
75	256	10	10000	4	1	0	4	0
85	257	10	10000	4	1	0	4	0
94	258	10	10000	4	1	0	4	0
95	259	10	10000	4	1	0	4	0
100	260	10	10000	4	1	0	4	0
105	261	10	10000	4	1	0	4	0
102	262	10	10000	4	1	0	4	0
102	263	10	10000	4	1	0	4	0
106	264	10	10000	4	1	0	4	0
115	265	10	10000	4	1	0	4	0
121	266	10	10000	4	1	0	4	0
124	267	10	10000	4	1	0	4	0
122	268	10	10000	4	1	0	4	0
118	269	10	10000	4	1	0	4	0
118	270	10	10000	4	1	0	4	0
117	271	10	10000	4	1	0	4	0
114	272	10	10000	4	1	0	4	0
109	273	10	10000	4	1	0	4	0
105	274	10	10000	4	1	0	4	0
101	275	10	10000	4	1	0	4	0
98	276	10	10000	4	1	0	4	0
94	277	10	10000	4	1	0	4	0
92	278	10	10000	4	1	0	4	0
89	279	10	10000	4	1	0	4	0
89	280	10	10000	4	1	0	4	0
91	281	10	10000	4	1	0	4	0
94	282	10	10000	4	1	0	4	0
96	283	10	10000	4	1	0	4	0
96	284	10	10000	4	1	0	4	0
95	285	10	10000	4	1	0	4	0
92	286	10	10000	4	1	0	4	0
91	287	10	10000	4	1	0	4	0
90	288	10	10000	4	1	0	4	0
89	289	10	10000	4	1	0	4	0
89	290	10	10000	4	1	0	4	0
94	291	10	10000	4	1	0	4	0
97	292	10	10000	4	1	0	4	0
96	293	10	10000	4	1	0	4	0
100	294	10	10000	4	1	0	4	0
104	295	10	10000	4	1	0	4	0
103	296	10	10000	4	1	0	4	0
102	297	10	10000	4	1	0	4	0
105	298	10	10000	4	1	0	4	0
115	299	10	10000	4	1	0	4	0
125	300	10	10000	4	1	0	4	0
127	301	10	10000	4	1	0	4	0
121	302	10	10000	4	1	0	4	0
125	303	10	10000	4	1	0	4	0
128	304	10	10000	4	1	0	4	0
128	305	10	10000	4	1	0	4	0
122	306	10	10000	4	1	0	4	0
117	307	10	10000	4	1	0	4	0
115	308	10	10000	4	1	0	4	0
110	309	10	10000	4	1	0	4	0
108	310	10	10000	4	1	0	4	0
106	311	10	10000	4	1	0	4	0
104	312	10	10000	4	1	0	4	0
101	313	10	10000	4	1	0	4	0
96	314	10	10000	4	1	0	4	0
94	315	10	10000	4	1	0	4	0
91	316	10	10000	4	1	0	4	0
88	317	10	10000	4	1	0	4	0
85	318	10	10000	4	1	0	4	0
86	319	10	10000	4	1	0	4	0
92	320	10	10000	4	1	0	4	0
105	321	10	10000	4	1	0	4	0
107	322	10	10000	4	1	0	4	0
107	323	10	10000	4	1	0	4	0
116	324	10	10000	4	1	0	4	0
120	325	10	10000	4	1	0	4	0
120	326	10	10000	4	1	0	4	0
118	327	10	10000	4	1	0	4	0
113	328	10	10000	4	1	0	4	0
108	329	10	10000	4	1	0	4	0
108	330	10	10000	4	1	0	4	0
110	331	10	10000	4	1	0	4	0
114	332	10	10000	4	1	0	4	0
117	333	10	10000	4	1	0	4	0
115	334	10	10000	4	1	0	4	0
114	335	10	10000	4	1	0	4	0
116	336	10	10000	4	1	0	4	0
115	337	10	10000	4	1	0	4	0
111	338	10	10000	4	1	0	4	0
109	339	10	10000	4	1	0	4	0
106	340	10	10000	4	1	0	4	0
102	341	10	10000	4	1	0	4	0
97	342	10	10000	4	1	0	4	0
93	343	10	10000	4	1	0	4	0
90	344	10	10000	4	1	0	4	0
87	345	10	10000	4	1	0	4	0
83	346	10	10000	4	1	0	4	0
80	347	10	10000	4	1	0	4	0
78	348	10	10000	4	1	0	4	0
78	349	10	10000	4	1	0	4	0
75	350	10	10000	4	1	0	4	0
84	351	10	10000	4	1	0	4	0
101	352	10	10000	4	1	0	4	0
106	353	10	10000	4	1	0	4	0
106	354	10	10000	4	1	0	4	0
111	355	10	10000	4	1	0	4	0
116	356	10	10000	4	1	0	4	0
117	357	10	10000	4	1	0	4	0
119	358	10	10000	4	1	0	4	0
124	359	10	10000	4	1	0	4	0
128	360	10	10000	4	1	0	4	0
131	361	10	10000	4	1	0	4	0
129	362	10	10000	4	1	0	4	0
126	363	10	10000	4	1	0	4	0
122	364	10	10000	4	1	0	4	0
120	365	10	10000	4	1	0	4	0
120	366	10	10000	4	1	0	4	0
121	367	10	10000	4	1	0	4	0
127	368	10	10000	4	1	0	4	0
131	369	10	10000	4	1	0	4	0
134	370	10	10000	4	1	0	4	0
130	371	10	10000	4	1	0	4	0
130	372	10	10000	4	1	0	4	0
128	373	10	10000	4	1	0	4	0
123	374	10	10000	4	1	0	4	0
119	375	10	10000	4	1	0	4	0
118	376	10	10000	4	1	0	4	0
120	377	10	10000	4	1	0	4	0
116	378	10	10000	4	1	0	4	0
115	379	10	10000	4	1	0	4	0
118	380	10	10000	4	1	0	4	0
116	381	10	10000	4	1	0	4	0
112	382	10	10000	4	1	0	4	0
113	383	10	10000	4	1	0	4	0
114	384	10	10000	4	1	0	4	0
112	385	10	10000	4	1	0	4	0
108	386	10	10000	4	1	0	4	0
105	387	10	10000	4	1	0	4	0
111	388	10	10000	4	1	0	4	0
116	389	10	10000	4	1	0	4	0
114	390	10	10000	4	1	0	4	0
113	391	10	10000	4	1	0	4	0
115	392	10	10000	4	1	0	4	0
114	393	10	10000	4	1	0	4	0
116	394	10	10000	4	1	0	4	0
113	395	10	10000	4	1	0	4	0
110	396	10	10000	4	1	0	4	0
105	397	10	10000	4	1	0	4	0
104	398	10	10000	4	1	0	4	0
106	399	10	10000	4	1	0	4	0
108	400	10	10000	4	1	0	4	0
105	401	10	10000	4	1	0	4	0
101	402	10	10000	4	1	0	4	0
102	403	10	10000	4	1	0	4	0
101	404	10	10000	4	1	0	4	0
98	405	10	10000	4	1	0	4	0
95	406	10	10000	4	1	0	4	0
95	407	10	10000	4	1	0	4	0
93	408	10	10000	4	1	0	4	0
91	409	10	10000	4	1	0	4	0
87	410	10	10000	4	1	0	4	0
86	411	10	10000	4	1	0	4	0
89	412	10	10000	4	1	0	4	0
90	413	10	10000	4	1	0	4	0
89	414	10	10000	4	1	0	4	0
86	415	10	10000	4	1	0	4	0
84	416	10	10000	4	1	0	4	0
84	417	10	10000	4	1	0	4	0
80	418	10	10000	4	1	0	4	0
79	419	10	10000	4	1	0	4	0
77	420	10	10000	4	1	0	4	0
74	421	10	10000	4	1	0	4	0
70	422	10	10000	4	1	0	4	0
68	423	10	10000	4	1	0	4	0
66	424	10	10000	4	1	0	4	0
65	425	10	10000	4	1	0	4	0
63	426	10	10000	4	1	0	4	0
66	427	10	10000	4	1	0	4	0
66	428	10	10000	4	1	0	4	0
65	429	10	10000	4	1	0	4	0
68	430	10	10000	4	1	0	4	0
68	431	10	10000	4	1	0	4	0
73	432	10	10000	4	1	0	4	0
74	433	10	10000	4	1	0	4	0
75	434	10	10000	4	1	0	4	0
74	435	10	10000	4	1	0	4	0
73	436	10	10000	4	1	0	4	0
72	437	10	10000	4	1	0	4	0
72	438	10	10000	4	1	0	4	0
70	439	10	10000	4	1	0	4	0
70	440	10	10000	4	1	0	4	0
69	441	10	10000	4	1	0	4	0
65	442	10	10000	4	1	0	4	0
63	443	10	10000	4	1	0	4	0
62	444	10	10000	4	1	0	4	0
62	445	10	10000	4	1	0	4	0
60	446	10	10000	4	1	0	4	0
58	447	10	10000	4	1	0	4	0
58	448	10	10000	4	1	0	4	0
59	449	10	10000	4	1	0	4	0
59	450	10	10000	4	1	0	4	0
58	451	10	10000	4	1	0	4	0
60	452	10	10000	4	1	0	4	0
66	453	10	10000	4	1	0	4	0
73	454	10	10000	4	1	0	4	0
79	455	10	10000	4	1	0	4	0
80	456	10	10000	4	1	0	4	0
78	457	10	10000	4	1	0	4	0
75	458	10	10000	4	1	0	4	0
75	459	10	10000	4	1	0	4	0
78	460	10	10000	4	1	0	4	0
83	461	10	10000	4	1	0	4	0
81	462	10	10000	4	1	0	4	0
79	463	10	10000	4	1	0	4	0
77	464	10	10000	4	1	0	4	0
76	465	10	10000	4	1	0	4	0
81	466	10	10000	4	1	0	4	0
94	467	10	10000	4	1	0	4	0
107	468	10	10000	4	1	0	4	0
107	469	10	10000	4	1	0	4	0
104	470	10	10000	4	1	0	4	0
103	471	10	10000	4	1	0	4	0
105	472	10	10000	4	1	0	4	0
112	473	10	10000	4	1	0	4	0
121	474	10	10000	4	1	0	4	0
129	475	10	10000	4	1	0	4	0
135	476	10	10000	4	1	0	4	0
134	477	10	10000	4	1	0	4	0
129	478	10	10000	4	1	0	4	0
130	479	10	10000	4	1	0	4	0
136	480	10	10000	4	1	0	4	0
136	481	10	10000	4	1	0	4	0
129	482	10	10000	4	1	0	4	0
125	483	10	10000	4	1	0	4	0
119	484	10	10000	4	1	0	4	0
117	485	10	10000	4	1	0	4	0
115	486	10	10000	4	1	0	4	0
112	487	10	10000	4	1	0	4	0
112	488	10	10000	4	1	0	4	0
113	489	10	10000	4	1	0	4	0
110	490	10	10000	4	1	0	4	0
111	491	10	10000	4	1	0	4	0
115	492	10	10000	4	1	0	4	0
111	493	10	10000	4	1	0	4	0
109	494	10	10000	4	1	0	4	0
114	495	10	10000	4	1	0	4	0
118	496	10	10000	4	1	0	4	0
121	497	10	10000	4	1	0	4	0
122	498	10	10000	4	1	0	4	0
118	499	10	10000	4	1	0	4	0
114	500	10	10000	4	1	0	4	0
109	501	10	10000	4	1	0	4	0
107	502	10	10000	4	1	0	4	1
106	503	10	10000	4	1	0	4	1
103	504	10	10000	4	1	0	4	1
103	505	10	10000	4	1	0	4	1
102	506	10	10000	4	1	0	4	1
102	507	10	10000	4	1	0	4	1
104	508	10	10000	4	1	0	4	1
103	509	10	10000	4	1	0	4	1
101	510	10	10000	4	1	0	4	1
100	511	10	10000	4	1	0	4	1
104	512	10	10000	4	1	0	4	1
106	513	10	10000	4	1	0	4	1
103	514	10	10000	4	1	0	4	1
98	515	10	10000	4	1	0	4	1
96	516	10	10000	4	1	0	4	1
94	517	10	10000	4	1	0	4	1
101	518	10	10000	4	1	0	4	1
104	519	10	10000	4	1	0	4	1
102	520	10	10000	4	1	0	4	1
100	521	10	10000	4	1	0	4	1
94	522	10	10000	4	1	0	4	1
91	523	10	10000	4	1	0	4	1
94	524	10	10000	4	1	0	4	1
98	525	10	10000	4	1	0	4	1
104	526	10	10000	4	1	0	4	1
106	527	10	10000	4	1	0	4	1
105	528	10	10000	4	1	0	4	1
101	529	10	10000	4	1	0	4	1
97	530	10	10000	4	1	0	4	1
94	531	10	10000	4	1	0	4	1
92	532	10	10000	4	1	0	4	1
90	533	10	10000	4	1	0	4	1
88	534	10	10000	4	1	0	4	1
84	535	10	10000	4	1	0	4	1
81	536	10	10000	4	1	0	4	1
80	537	10	10000	4	1	0	4	1
80	538	10	10000	4	1	0	4	1
82	539	10	10000	4	1	0	4	1
85	540	10	10000	4	1	0	4	1
89	541	10	10000	4	1	0	4	1
87	542	10	10000	4	1	0	4	1
87	543	10	10000	4	1	0	4	1
88	544	10	10000	4	1	0	4	1
87	545	10	10000	4	1	0	4	1
85	546	10	10000	4	1	0	4	1
82	547	10	10000	4	1	0	4	1
80	548	10	10000	4	1	0	4	1
77	549	10	10000	4	1	0	4	1
75	550	10	10000	4	1	0	4	1
72	551	10	10000	4	1	0	4	1
79	552	10	10000	4	1	0	4	0
83	553	10	10000	4	1	0	4	0
81	554	10	10000	4	1	0	4	0
84	555	10	10000	4	1	0	4	0
92	556	10	10000	4	1	0	4	0
101	557	10	10000	4	1	0	4	0
110	558	10	10000	4	1	0	4	0
114	559	10	10000	4	1	0	4	0
113	560	10	10000	4	1	0	4	0
109	561	10	10000	4	1	0	4	0
112	562	10	10000	4	1	0	4	0
115	563	10	10000	4	1	0	4	0
114	564	10	10000	4	1	0	4	0
113	565	10	10000	4	1	0	4	0
113	566	10	10000	4	1	0	4	0
115	567	10	10000	4	1	0	4	0
112	568	10	10000	4	1	0	4	0
111	569	10	10000	4	1	0	4	0
107	570	10	10000	4	1	0	4	0
104	571	10	10000	4	1	0	4	0
103	572	10	10000	4	1	0	4	0
101	573	10	10000	4	1	0	4	0
102	574	10	10000	4	1	0	4	0
106	575	10	10000	4	1	0	4	0
112	576	10	10000	4	1	0	4	0
114	577	10	10000	4	1	0	4	0
112	578	10	10000	4	1	0	4	0
108	579	10	10000	4	1	0	4	0
105	580	10	10000	4	1	0	4	0
101	581	10	10000	4	1	0	4	0
97	582	10	10000	4	1	0	4	0
102	583	10	10000	4	1	0	4	0
103	584	10	10000	4	1	0	4	0
104	585	10	10000	4	1	0	4	0
107	586	10	10000	4	1	0	4	0
110	587	10	10000	4	1	0	4	0
110	588	10	10000	4	1	0	4	0
107	589	10	10000	4	1	0	4	0
104	590	10	10000	4	1	0	4	0
108	591	10	10000	4	1	0	4	0
112	592	10	10000	4	1	0	4	0
116	593	10	10000	4	1	0	4	0
122	594	10	10000	4	1	0	4	0
125	595	10	10000	4	1	0	4	0
145	596	10	10000	4	1	0	4	0
159	597	10	10000	4	1	0	4	0
176	598	10	10000	4	1	0	4	0
213	599	10	10000	4	1	0	4	0
217	600	10	10000	4	1	0	4	0
242	601	10	10000	4	1	0	4	0
248	602	10	10000	4	1	0	4	0
254	603	10	10000	4	1	0	4	0
261	604	10	10000	4	1	0	4	0
268	605	10	10000	4	1	0	4	0
271	606	10	10000	4	1	0	4	0
268	607	10	10000	4	1	0	4	0
264	608	10	10000	4	1	0	4	0
290	609	10	10000	4	1	0	4	0
296	610	10	10000	4	1	0	4	0
301	611	10	10000	4	1	0	4	0
304	612	10	10000	4	1	0	4	0
341	613	10	10000	4	1	0	4	0
425	614	10	10000	4	1	0	4	0
442	615	10	10000	4	1	0	4	0
524	616	10	10000	4	1	0	4	0
576	617	10	10000	4	1	0	4	0
587	618	10	10000	4	1	0	4	0
592	619	10	10000	4	1	0	4	0
597	620	10	10000	4	1	0	4	0
598	621	10	10000	4	1	0	4	0
589	622	10	10000	4	1	0	4	0
573	623	10	10000	4	1	0	4	0
549	624	10	10000	4	1	0	4	0
534	625	10	10000	4	1	0	4	0
521	626	10	10000	4	1	0	4	0
511	627	10	10000	4	1	0	4	0
499	628	10	10000	4	1	0	4	0
490	629	10	10000	4	1	0	4	0
483	630	10	10000	4	1	0	4	0
479	631	10	10000	4	1	0	4	0
476	632	10	10000	4	1	0	4	0
473	633	10	10000	4	1	0	4	0
469	634	10	10000	4	1	0	4	0
466	635	10	10000	4	1	0	4	0
459	636	10	10000	4	1	0	4	0
449	637	10	10000	4	1	0	4	0
439	638	10	10000	4	1	0	4	0
427	639	10	10000	4	1	0	4	0
415	640	10	10000	4	1	0	4	0
402	641	10	10000	4	1	0	4	0
389	642	10	10000	4	1	0	4	0
378	643	10	10000	4	1	0	4	0
366	644	10	10000	4	1	0	4	0
352	645	10	10000	4	1	0	4	0
337	646	10	10000	4	1	0	4	0
322	647	10	10000	4	1	0	4	0
311	648	10	10000	4	1	0	4	0
301	649	10	10000	4	1	0	4	0
292	650	10	10000	4	1	0	4	0
284	651	10	10000	4	1	0	4	0
277	652	10	10000	4	1	0	4	0
271	653	10	10000	4	1	0	4	0
267	654	10	10000	4	1	0	4	0
266	655	10	10000	4	1	0	4	0
265	656	10	10000	4	1	0	4	0
263	657	10	10000	4	1	0	4	0
257	658	10	10000	4	1	0	4	0
248	659	10	10000	4	1	0	4	0
239	660	10	10000	4	1	0	4	0
233	661	10	10000	4	1	0	4	0
226	662	10	10000	4	1	0	4	0
220	663	10	10000	4	1	0	4	0
213	664	10	10000	4	1	0	4	0
205	665	10	10000	4	1	0	4	0
197	666	10	10000	4	1	0	4	0
189	667	10	10000	4	1	0	4	0
182	668	10	10000	4	1	0	4	0
177	669	10	10000	4	1	0	4	0
170	670	10	10000	4	1	0	4	0
166	671	10	10000	4	1	0	4	0
166	683	10	10000	4	1	0	4	0
163	684	10	10000	4	1	0	4	0
160	685	10	10000	4	1	0	4	0
157	686	10	10000	4	1	0	4	0
152	687	10	10000	4	1	0	4	0
146	688	10	10000	4	1	0	4	0
146	689	10	10000	4	1	0	4	0
150	690	10	10000	4	1	0	4	0
155	691	10	10000	4	1	0	4	0
157	692	10	10000	4	1	0	4	0
156	693	10	10000	4	1	0	4	0
161	694	10	10000	4	1	0	4	0
158	691	10	10000	4	1	0	4	0
157	692	10	10000	4	1	0	4	0
153	693	10	10000	4	1	0	4	0
151	694	10	10000	4	1	0	4	0
153	695	10	10000	4	1	0	4	0
155	696	10	10000	4	1	0	4	0
154	697	10	10000	4	1	0	4	0
148	698	10	10000	4	1	0	4	0
143	700	10	10000	4	1	0	4	0
137	701	10	10000	4	1	0	4	0
133	702	10	10000	4	1	0	4	0
130	703	10	10000	4	1	0	4	0
129	704	10	10000	4	1	0	4	0
136	705	10	10000	4	1	0	4	0
142	706	10	10000	4	1	0	4	0
152	707	10	10000	4	1	0	4	0
158	708	10	10000	4	1	0	4	0
159	709	10	10000	4	1	0	4	0
156	707	10	10000	4	1	0	4	0
154	708	10	10000	4	1	0	4	0
151	709	10	10000	4	1	0	4	0
152	710	10	10000	4	1	0	4	0
151	711	10	10000	4	1	0	4	0
149	712	10	10000	4	1	0	4	0
144	711	10	10000	4	1	0	4	0
141	712	10	10000	4	1	0	4	0
141	713	10	10000	4	1	0	4	0
142	714	10	10000	4	1	0	4	0
144	718	10	10000	4	1	0	4	0
144	719	10	10000	4	1	0	4	0
140	720	10	10000	4	1	0	4	0
136	721	10	10000	4	1	0	4	0
132	722	10	10000	4	1	0	4	0
127	723	10	10000	4	1	0	4	0
123	724	10	10000	4	1	0	4	0
124	725	10	10000	4	1	0	4	0
127	722	10	10000	4	1	0	4	0
127	723	10	10000	4	1	0	4	0
122	724	10	10000	4	1	0	4	0
117	725	10	10000	4	1	0	4	0
114	730	10	10000	4	1	0	4	0
115	731	10	10000	4	1	0	4	0
114	732	10	10000	4	1	0	4	0
114	733	10	10000	4	1	0	4	0
113	734	10	10000	4	1	0	4	0
112	735	10	10000	4	1	0	4	0
112	736	10	10000	4	1	0	4	0
113	737	10	10000	4	1	0	4	0
112	734	10	10000	4	1	0	4	0
108	735	10	10000	4	1	0	4	0
105	736	10	10000	4	1	0	4	0
105	737	10	10000	4	1	0	4	0
111	739	10	10000	4	1	0	4	0
117	740	10	10000	4	1	0	4	0
120	741	10	10000	4	1	0	4	0
116	742	10	10000	4	1	0	4	0
119	745	10	10000	4	1	0	4	0
119	746	10	10000	4	1	0	4	0
118	747	10	10000	4	1	0	4	0
115	748	10	10000	4	1	0	4	0
118	749	10	10000	4	1	0	4	0
119	750	10	10000	4	1	0	4	0
115	752	10	10000	4	1	0	4	0
116	753	10	10000	4	1	0	4	0
114	754	10	10000	4	1	0	4	0
110	755	10	10000	4	1	0	4	0
105	756	10	10000	4	1	0	4	0
110	757	10	10000	4	1	0	4	0
119	758	10	10000	4	1	0	4	0
117	759	10	10000	4	1	0	4	0
119	758	10	10000	4	1	0	4	0
126	759	10	10000	4	1	0	4	0
134	760	10	10000	4	1	0	4	0
143	761	10	10000	4	1	0	4	0
145	762	10	10000	4	1	0	4	0
140	763	10	10000	4	1	0	4	0
136	762	10	10000	4	1	0	4	0
131	763	10	10000	4	1	0	4	0
124	764	10	10000	4	1	0	4	0
124	765	10	10000	4	1	0	4	0
133	769	10	10000	4	1	0	4	0
141	770	10	10000	4	1	0	4	0
139	771	10	10000	4	1	0	4	0
137	772	10	10000	4	1	0	4	0
135	773	10	10000	4	1	0	4	0
131	774	10	10000	4	1	0	4	0
125	773	10	10000	4	1	0	4	0
120	774	10	10000	4	1	0	4	0
121	775	10	10000	4	1	0	4	0
122	776	10	10000	4	1	0	4	0
119	774	10	10000	4	1	0	4	0
118	775	10	10000	4	1	0	4	0
120	776	10	10000	4	1	0	4	0
116	777	10	10000	4	1	0	4	0
116	778	10	10000	4	1	0	4	0
116	779	10	10000	4	1	0	4	0
113	780	10	10000	4	1	0	4	0
111	781	10	10000	4	1	0	4	0
117	782	10	10000	4	1	0	4	0
124	783	10	10000	4	1	0	4	0
122	784	10	10000	4	1	0	4	0
126	785	10	10000	4	1	0	4	0
130	786	10	10000	4	1	0	4	0
128	787	10	10000	4	1	0	4	0
125	788	10	10000	4	1	0	4	0
120	789	10	10000	4	1	0	4	0
115	790	10	10000	4	1	0	4	0
112	791	10	10000	4	1	0	4	0
110	792	10	10000	4	1	0	4	0
106	793	10	10000	4	1	0	4	0
104	794	10	10000	4	1	0	4	0
104	795	10	10000	4	1	0	4	0
102	796	10	10000	4	1	0	4	0
100	797	10	10000	4	1	0	4	0
95	798	10	10000	4	1	0	4	0
94	799	10	10000	4	1	0	4	0
94	800	10	10000	4	1	0	4	0
90	801	10	10000	4	1	0	4	0
86	802	10	10000	4	1	0	4	0
87	803	10	10000	4	1	0	4	0
92	804	10	10000	4	1	0	4	0
92	805	10	10000	4	1	0	4	0
90	806	10	10000	4	1	0	4	0
90	807	10	10000	4	1	0	4	0
89	808	10	10000	4	1	0	4	0
84	809	10	10000	4	1	0	4	0
80	810	10	10000	4	1	0	4	0
80	811	10	10000	4	1	0	4	0
79	812	10	10000	4	1	0	4	0
81	813	10	10000	4	1	0	4	0
85	814	10	10000	4	1	0	4	0
84	815	10	10000	4	1	0	4	0
83	816	10	10000	4	1	0	4	0
81	817	10	10000	4	1	0	4	0
80	818	10	10000	4	1	0	4	0
78	819	10	10000	4	1	0	4	0
79	820	10	10000	4	1	0	4	0
81	821	10	10000	4	1	0	4	0
82	822	10	10000	4	1	0	4	0
81	823	10	10000	4	1	0	4	0
81	824	10	10000	4	1	0	4	0
85	825	10	10000	4	1	0	4	0
81	826	10	10000	4	1	0	4	0
80	827	10	10000	4	1	0	4	0
80	828	10	10000	4	1	0	4	0
76	829	10	10000	4	1	0	4	0
75	830	10	10000	4	1	0	4	0
73	831	10	10000	4	1	0	4	0
72	832	10	10000	4	1	0	4	0
68	833	10	10000	4	1	0	4	0
66	834	10	10000	4	1	0	4	0
63	835	10	10000	4	1	0	4	0
63	836	10	10000	4	1	0	4	0
60	837	10	10000	4	1	0	4	0
61	838	10	10000	4	1	0	4	0
69	839	10	10000	4	1	0	4	0
76	840	10	10000	4	1	0	4	0
79	841	10	10000	4	1	0	4	0
75	842	10	10000	4	1	0	4	0
73	843	10	10000	4	1	0	4	0
75	844	10	10000	4	1	0	4	0
78	845	10	10000	4	1	0	4	0
83	846	10	10000	4	1	0	4	0
83	847	10	10000	4	1	0	4	0
82	848	10	10000	4	1	0	4	0
86	849	10	10000	4	1	0	4	0
94	850	10	10000	4	1	0	4	0
97	851	10	10000	4	1	0	4	0
96	852	10	10000	4	1	0	4	0
96	853	10	10000	4	1	0	4	0
98	854	10	10000	4	1	0	4	0
102	855	10	10000	4	1	0	4	0
104	856	10	10000	4	1	0	4	0
106	857	10	10000	4	1	0	4	0
106	858	10	10000	4	1	0	4	0
103	859	10	10000	4	1	0	4	0
104	860	10	10000	4	1	0	4	0
103	861	10	10000	4	1	0	4	0
97	862	10	10000	4	1	0	4	0
98	863	10	10000	4	1	0	4	0
98	864	10	10000	4	1	0	4	0
96	865	10	10000	4	1	0	4	0
93	866	10	10000	4	1	0	4	0
91	867	10	10000	4	1	0	4	0
86	868	10	10000	4	1	0	4	0
82	869	10	10000	4	1	0	4	0
81	870	10	10000	4	1	0	4	0
83	871	10	10000	4	1	0	4	0
89	872	10	10000	4	1	0	4	0
92	873	10	10000	4	1	0	4	0
91	874	10	10000	4	1	0	4	0
89	875	10	10000	4	1	0	4	0
85	876	10	10000	4	1	0	4	0
83	877	10	10000	4	1	0	4	0
80	878	10	10000	4	1	0	4	0
80	879	10	10000	4	1	0	4	0
83	880	10	10000	4	1	0	4	0
84	881	10	10000	4	1	0	4	0
82	882	10	10000	4	1	0	4	0
79	883	10	10000	4	1	0	4	0
77	884	10	10000	4	1	0	4	0
75	885	10	10000	4	1	0	4	0
72	886	10	10000	4	1	0	4	0
75	887	10	10000	4	1	0	4	0
79	888	10	10000	4	1	0	4	0
83	889	10	10000	4	1	0	4	0
84	890	10	10000	4	1	0	4	0
82	891	10	10000	4	1	0	4	0
80	892	10	10000	4	1	0	4	0
77	893	10	10000	4	1	0	4	0
73	894	10	10000	4	1	0	4	0
74	895	10	10000	4	1	0	4	0
80	896	10	10000	4	1	0	4	0
83	897	10	10000	4	1	0	4	0
82	898	10	10000	4	1	0	4	0
84	899	10	10000	4	1	0	4	0
87	900	10	10000	4	1	0	4	0
83	901	10	10000	4	1	0	4	0
79	902	10	10000	4	1	0	4	0
80	903	10	10000	4	1	0	4	0
79	904	10	10000	4	1	0	4	0
79	905	10	10000	4	1	0	4	0
79	906	10	10000	4	1	0	4	0
79	907	10	10000	4	1	0	4	0
76	908	10	10000	4	1	0	4	0
73	909	10	10000	4	1	0	4	0
75	910	10	10000	4	1	0	4	0
79	911	10	10000	4	1	0	4	0
80	912	10	10000	4	1	0	4	0
84	913	10	10000	4	1	0	4	0
91	914	10	10000	4	1	0	4	0
90	915	10	10000	4	1	0	4	0
90	916	10	10000	4	1	0	4	0
96	917	10	10000	4	1	0	4	0
104	918	10	10000	4	1	0	4	0
105	919	10	10000	4	1	0	4	0
103	920	10	10000	4	1	0	4	0
102	921	10	10000	4	1	0	4	0
97	922	10	10000	4	1	0	4	0
99	923	10	10000	4	1	0	4	0
98	924	10	10000	4	1	0	4	0
95	925	10	10000	4	1	0	4	0
90	926	10	10000	4	1	0	4	0
93	927	10	10000	4	1	0	4	0
99	928	10	10000	4	1	0	4	0
98	929	10	10000	4	1	0	4	0
95	930	10	10000	4	1	0	4	0
95	931	10	10000	4	1	0	4	0
100	932	10	10000	4	1	0	4	0
104	933	10	10000	4	1	0	4	0
107	934	10	10000	4	1	0	4	0
108	935	10	10000	4	1	0	4	0
105	936	10	10000	4	1	0	4	0
104	937	10	10000	4	1	0	4	0
101	938	10	10000	4	1	0	4	0
99	939	10	10000	4	1	0	4	0
101	940	10	10000	4	1	0	4	0
102	941	10	10000	4	1	0	4	0
101	942	10	10000	4	1	0	4	0
104	943	10	10000	4	1	0	4	0
107	944	10	10000	4	1	0	4	0
113	945	10	10000	4	1	0	4	0
116	946	10	10000	4	1	0	4	0
113	947	10	10000	4	1	0	4	0
111	948	10	10000	4	1	0	4	0
110	949	10	10000	4	1	0	4	0
111	950	10	10000	4	1	0	4	0
112	951	10	10000	4	1	0	4	0
113	952	10	10000	4	1	0	4	0
111	953	10	10000	4	1	0	4	0
108	954	10	10000	4	1	0	4	0
105	955	10	10000	4	1	0	4	0
104	956	10	10000	4	1	0	4	0
106	957	10	10000	4	1	0	4	0
105	958	10	10000	4	1	0	4	0
102	959	10	10000	4	1	0	4	0
101	960	10	10000	4	1	0	4	0
100	961	10	10000	4	1	0	4	0
111	962	10	10000	4	1	0	4	0
118	963	10	10000	4	1	0	4	0
118	964	10	10000	4	1	0	4	0
119	965	10	10000	4	1	0	4	0
122	966	10	10000	4	1	0	4	0
123	967	10	10000	4	1	0	4	0
123	968	10	10000	4	1	0	4	0
120	969	10	10000	4	1	0	4	0
117	970	10	10000	4	1	0	4	0
118	971	10	10000	4	1	0	4	0
117	972	10	10000	4	1	0	4	0
113	973	10	10000	4	1	0	4	0
109	974	10	10000	4	1	0	4	0
106	975	10	10000	4	1	0	4	0
106	976	10	10000	4	1	0	4	0
103	977	10	10000	4	1	0	4	0
100	978	10	10000	4	1	0	4	0
98	979	10	10000	4	1	0	4	0
95	980	10	10000	4	1	0	4	0
92	981	10	10000	4	1	0	4	0
87	982	10	10000	4	1	0	4	0
85	983	10	10000	4	1	0	4	0
83	984	10	10000	4	1	0	4	0
83	985	10	10000	4	1	0	4	0
80	986	10	10000	4	1	0	4	0
78	987	10	10000	4	1	0	4	0
80	988	10	10000	4	1	0	4	0
84	989	10	10000	4	1	0	4	0
85	990	10	10000	4	1	0	4	0
82	991	10	10000	4	1	0	4	0
83	992	10	10000	4	1	0	4	0
87	993	10	10000	4	1	0	4	0
91	994	10	10000	4	1	0	4	0
89	995	10	10000	4	1	0	4	0
94	996	10	10000	4	1	0	4	0
100	997	10	10000	4	1	0	4	0
103	998	10	10000	4	1	0	4	0
102	999	10	10000	4	1	0	4	0
101	1000	10	10000	4	1	0	4	0
103	1001	10	10000	4	1	0	4	0
20	1	0	10000	5	1	0	5	0
21	2	0	10000	5	1	0	5	0
22	3	0	10000	5	1	0	5	0
22	4	0	10000	5	1	0	5	0
21	5	0	10000	5	1	0	5	0
21	6	0	10000	5	1	0	5	0
20	7	0	10000	5	1	0	5	0
22	8	0	10000	5	1	0	5	0
22	9	0	10000	5	1	0	5	0
22	10	0	10000	5	1	0	5	0
23	11	0	10000	5	1	0	5	0
24	12	0	10000	5	1	0	5	0
24	13	0	10000	5	1	0	5	0
24	14	0	10000	5	1	0	5	0
23	15	0	10000	5	1	0	5	0
23	16	0	10000	5	1	0	5	0
23	17	0	10000	5	1	0	5	0
21	18	0	10000	5	1	0	5	0
22	19	0	10000	5	1	0	5	0
23	20	0	10000	5	1	0	5	0
23	21	0	10000	5	1	0	5	0
22	22	0	10000	5	1	0	5	0
22	23	0	10000	5	1	0	5	0
22	24	0	10000	5	1	0	5	0
22	25	0	10000	5	1	0	5	0
22	26	0	10000	5	1	0	5	0
22	27	0	10000	5	1	0	5	0
23	28	0	10000	5	1	0	5	0
23	29	0	10000	5	1	0	5	0
22	30	0	10000	5	1	0	5	0
21	31	0	10000	5	1	0	5	0
21	32	0	10000	5	1	0	5	0
22	33	0	10000	5	1	0	5	0
23	34	0	10000	5	1	0	5	0
23	35	0	10000	5	1	0	5	0
23	36	0	10000	5	1	0	5	0
23	37	0	10000	5	1	0	5	0
21	38	0	10000	5	1	0	5	0
22	39	0	10000	5	1	0	5	0
24	40	0	10000	5	1	0	5	0
24	41	0	10000	5	1	0	5	0
24	42	0	10000	5	1	0	5	0
23	43	0	10000	5	1	0	5	0
23	44	0	10000	5	1	0	5	0
24	45	0	10000	5	1	0	5	0
23	46	0	10000	5	1	0	5	0
24	47	0	10000	5	1	0	5	0
27	48	0	10000	5	1	0	5	0
26	49	0	10000	5	1	0	5	0
26	50	0	10000	5	1	0	5	0
24	51	0	10000	5	1	0	5	0
23	52	0	10000	5	1	0	5	0
24	53	0	10000	5	1	0	5	0
23	54	0	10000	5	1	0	5	0
24	55	0	10000	5	1	0	5	0
25	56	0	10000	5	1	0	5	0
27	57	0	10000	5	1	0	5	0
24	58	0	10000	5	1	0	5	0
24	59	0	10000	5	1	0	5	0
25	60	0	10000	5	1	0	5	0
24	61	0	10000	5	1	0	5	0
24	62	0	10000	5	1	0	5	0
24	63	0	10000	5	1	0	5	0
25	64	0	10000	5	1	0	5	0
24	65	0	10000	5	1	0	5	0
24	66	0	10000	5	1	0	5	0
22	67	0	10000	5	1	0	5	0
24	68	0	10000	5	1	0	5	0
23	69	0	10000	5	1	0	5	0
22	70	0	10000	5	1	0	5	0
21	71	0	10000	5	1	0	5	0
21	72	0	10000	5	1	0	5	0
21	73	0	10000	5	1	0	5	0
21	74	0	10000	5	1	0	5	0
21	75	0	10000	5	1	0	5	0
22	76	0	10000	5	1	0	5	0
22	77	0	10000	5	1	0	5	0
20	78	0	10000	5	1	0	5	0
21	79	0	10000	5	1	0	5	0
20	80	0	10000	5	1	0	5	0
21	81	0	10000	5	1	0	5	0
20	82	0	10000	5	1	0	5	0
20	83	0	10000	5	1	0	5	0
20	84	0	10000	5	1	0	5	0
19	85	0	10000	5	1	0	5	0
18	86	0	10000	5	1	0	5	0
19	87	0	10000	5	1	0	5	0
22	88	0	10000	5	1	0	5	0
21	89	0	10000	5	1	0	5	0
20	90	0	10000	5	1	0	5	0
19	91	0	10000	5	1	0	5	0
20	92	0	10000	5	1	0	5	0
19	93	0	10000	5	1	0	5	0
19	94	0	10000	5	1	0	5	0
20	95	0	10000	5	1	0	5	0
21	96	0	10000	5	1	0	5	0
21	97	0	10000	5	1	0	5	0
20	98	0	10000	5	1	0	5	0
19	99	0	10000	5	1	0	5	0
19	100	0	10000	5	1	0	5	0
19	101	0	10000	5	1	0	5	0
19	102	0	10000	5	1	0	5	0
20	103	0	10000	5	1	0	5	0
19	104	0	10000	5	1	0	5	0
19	105	0	10000	5	1	0	5	0
19	106	0	10000	5	1	0	5	0
19	107	0	10000	5	1	0	5	0
20	108	0	10000	5	1	0	5	0
20	109	0	10000	5	1	0	5	0
20	110	0	10000	5	1	0	5	0
20	111	0	10000	5	1	0	5	0
19	112	0	10000	5	1	0	5	0
20	113	0	10000	5	1	0	5	0
20	114	0	10000	5	1	0	5	0
22	115	0	10000	5	1	0	5	0
24	116	0	10000	5	1	0	5	0
26	117	0	10000	5	1	0	5	0
23	118	0	10000	5	1	0	5	0
24	119	0	10000	5	1	0	5	0
24	120	0	10000	5	1	0	5	0
24	121	0	10000	5	1	0	5	0
24	122	0	10000	5	1	0	5	0
24	123	0	10000	5	1	0	5	0
24	124	0	10000	5	1	0	5	0
24	125	0	10000	5	1	0	5	0
23	126	0	10000	5	1	0	5	0
23	127	0	10000	5	1	0	5	0
27	128	0	10000	5	1	0	5	0
26	129	0	10000	5	1	0	5	0
25	130	0	10000	5	1	0	5	0
25	131	0	10000	5	1	0	5	0
24	132	0	10000	5	1	0	5	0
24	133	0	10000	5	1	0	5	0
23	134	0	10000	5	1	0	5	0
24	135	0	10000	5	1	0	5	0
26	136	0	10000	5	1	0	5	0
28	137	0	10000	5	1	0	5	0
27	138	0	10000	5	1	0	5	0
25	139	0	10000	5	1	0	5	0
25	140	0	10000	5	1	0	5	0
24	141	0	10000	5	1	0	5	0
24	142	0	10000	5	1	0	5	0
24	143	0	10000	5	1	0	5	0
24	144	0	10000	5	1	0	5	0
25	145	0	10000	5	1	0	5	0
23	146	0	10000	5	1	0	5	0
24	147	0	10000	5	1	0	5	0
27	148	0	10000	5	1	0	5	0
27	149	0	10000	5	1	0	5	0
27	150	0	10000	5	1	0	5	0
26	151	0	10000	5	1	0	5	0
24	152	0	10000	5	1	0	5	0
24	153	0	10000	5	1	0	5	0
23	154	0	10000	5	1	0	5	0
24	155	0	10000	5	1	0	5	0
25	156	0	10000	5	1	0	5	0
24	157	0	10000	5	1	0	5	0
21	158	0	10000	5	1	0	5	0
21	159	0	10000	5	1	0	5	0
22	160	0	10000	5	1	0	5	0
22	161	0	10000	5	1	0	5	0
22	162	0	10000	5	1	0	5	0
21	163	0	10000	5	1	0	5	0
21	164	0	10000	5	1	0	5	0
21	165	0	10000	5	1	0	5	0
20	166	0	10000	5	1	0	5	0
19	167	0	10000	5	1	0	5	0
21	168	0	10000	5	1	0	5	0
20	169	0	10000	5	1	0	5	0
21	170	0	10000	5	1	0	5	0
20	171	0	10000	5	1	0	5	0
20	172	0	10000	5	1	0	5	0
22	173	0	10000	5	1	0	5	0
22	174	0	10000	5	1	0	5	0
24	175	0	10000	5	1	0	5	0
24	176	0	10000	5	1	0	5	0
25	177	0	10000	5	1	0	5	0
24	178	0	10000	5	1	0	5	0
24	179	0	10000	5	1	0	5	0
24	180	0	10000	5	1	0	5	0
24	181	0	10000	5	1	0	5	0
24	182	0	10000	5	1	0	5	0
24	183	0	10000	5	1	0	5	0
25	184	0	10000	5	1	0	5	0
22	185	0	10000	5	1	0	5	0
21	186	0	10000	5	1	0	5	0
20	187	0	10000	5	1	0	5	0
23	188	0	10000	5	1	0	5	0
21	189	0	10000	5	1	0	5	0
21	190	0	10000	5	1	0	5	0
20	191	0	10000	5	1	0	5	0
20	192	0	10000	5	1	0	5	0
19	193	0	10000	5	1	0	5	0
19	194	0	10000	5	1	0	5	0
19	195	0	10000	5	1	0	5	0
19	196	0	10000	5	1	0	5	0
19	197	0	10000	5	1	0	5	0
17	198	0	10000	5	1	0	5	0
17	199	0	10000	5	1	0	5	0
18	200	0	10000	5	1	0	5	0
19	201	0	10000	5	1	0	5	0
19	202	0	10000	5	1	0	5	0
19	203	0	10000	5	1	0	5	0
18	204	0	10000	5	1	0	5	0
17	205	0	10000	5	1	0	5	0
17	206	0	10000	5	1	0	5	0
16	207	0	10000	5	1	0	5	0
18	208	0	10000	5	1	0	5	0
19	209	0	10000	5	1	0	5	0
18	210	0	10000	5	1	0	5	0
17	211	0	10000	5	1	0	5	0
17	212	0	10000	5	1	0	5	0
17	213	0	10000	5	1	0	5	0
16	214	0	10000	5	1	0	5	0
17	215	0	10000	5	1	0	5	0
17	216	0	10000	5	1	0	5	0
18	217	0	10000	5	1	0	5	0
16	218	0	10000	5	1	0	5	0
17	219	0	10000	5	1	0	5	0
18	220	0	10000	5	1	0	5	0
20	221	0	10000	5	1	0	5	0
20	222	0	10000	5	1	0	5	0
21	223	0	10000	5	1	0	5	0
20	224	0	10000	5	1	0	5	0
19	225	0	10000	5	1	0	5	0
18	226	0	10000	5	1	0	5	0
18	227	0	10000	5	1	0	5	0
22	228	0	10000	5	1	0	5	0
24	229	0	10000	5	1	0	5	0
24	230	0	10000	5	1	0	5	0
25	231	0	10000	5	1	0	5	0
24	232	0	10000	5	1	0	5	0
24	233	0	10000	5	1	0	5	0
23	234	0	10000	5	1	0	5	0
23	235	0	10000	5	1	0	5	0
22	236	0	10000	5	1	0	5	0
23	237	0	10000	5	1	0	5	0
20	238	0	10000	5	1	0	5	0
20	239	0	10000	5	1	0	5	0
20	240	0	10000	5	1	0	5	0
20	241	0	10000	5	1	0	5	0
19	242	0	10000	5	1	0	5	0
20	243	0	10000	5	1	0	5	0
20	244	0	10000	5	1	0	5	0
19	245	0	10000	5	1	0	5	0
18	246	0	10000	5	1	0	5	0
18	247	0	10000	5	1	0	5	0
20	248	0	10000	5	1	0	5	0
19	249	0	10000	5	1	0	5	0
20	250	0	10000	5	1	0	5	0
22	251	0	10000	5	1	0	5	0
24	252	0	10000	5	1	0	5	0
23	253	0	10000	5	1	0	5	0
24	254	0	10000	5	1	0	5	0
24	255	0	10000	5	1	0	5	0
25	256	0	10000	5	1	0	5	0
25	257	0	10000	5	1	0	5	0
22	258	0	10000	5	1	0	5	0
22	259	0	10000	5	1	0	5	0
24	260	0	10000	5	1	0	5	0
25	261	0	10000	5	1	0	5	0
25	262	0	10000	5	1	0	5	0
24	263	0	10000	5	1	0	5	0
24	264	0	10000	5	1	0	5	0
23	265	0	10000	5	1	0	5	0
22	266	0	10000	5	1	0	5	0
21	267	0	10000	5	1	0	5	0
23	268	0	10000	5	1	0	5	0
22	269	0	10000	5	1	0	5	0
21	270	0	10000	5	1	0	5	0
21	271	0	10000	5	1	0	5	0
20	272	0	10000	5	1	0	5	0
20	273	0	10000	5	1	0	5	0
20	274	0	10000	5	1	0	5	0
20	275	0	10000	5	1	0	5	0
20	276	0	10000	5	1	0	5	0
20	277	0	10000	5	1	0	5	0
19	278	0	10000	5	1	0	5	0
20	279	0	10000	5	1	0	5	0
20	280	0	10000	5	1	0	5	0
20	281	0	10000	5	1	0	5	0
20	282	0	10000	5	1	0	5	0
19	283	0	10000	5	1	0	5	0
19	284	0	10000	5	1	0	5	0
19	285	0	10000	5	1	0	5	0
20	286	0	10000	5	1	0	5	0
20	287	0	10000	5	1	0	5	0
21	288	0	10000	5	1	0	5	0
21	289	0	10000	5	1	0	5	0
21	290	0	10000	5	1	0	5	0
20	291	0	10000	5	1	0	5	0
20	292	0	10000	5	1	0	5	0
21	293	0	10000	5	1	0	5	0
21	294	0	10000	5	1	0	5	0
23	295	0	10000	5	1	0	5	0
25	296	0	10000	5	1	0	5	0
25	297	0	10000	5	1	0	5	0
23	298	0	10000	5	1	0	5	0
24	299	0	10000	5	1	0	5	0
27	300	0	10000	5	1	0	5	0
27	301	0	10000	5	1	0	5	0
27	302	0	10000	5	1	0	5	0
32	303	0	10000	5	1	0	5	0
36	304	0	10000	5	1	0	5	0
37	305	0	10000	5	1	0	5	0
37	306	0	10000	5	1	0	5	0
36	307	0	10000	5	1	0	5	0
36	308	0	10000	5	1	0	5	0
35	309	0	10000	5	1	0	5	0
34	310	0	10000	5	1	0	5	0
34	311	0	10000	5	1	0	5	0
33	312	0	10000	5	1	0	5	0
32	313	0	10000	5	1	0	5	0
32	314	0	10000	5	1	0	5	0
33	315	0	10000	5	1	0	5	0
32	316	0	10000	5	1	0	5	0
33	317	0	10000	5	1	0	5	0
32	318	0	10000	5	1	0	5	0
30	319	0	10000	5	1	0	5	0
31	320	0	10000	5	1	0	5	0
30	321	0	10000	5	1	0	5	0
29	322	0	10000	5	1	0	5	0
28	323	0	10000	5	1	0	5	0
28	324	0	10000	5	1	0	5	0
28	325	0	10000	5	1	0	5	0
29	326	0	10000	5	1	0	5	0
29	327	0	10000	5	1	0	5	0
30	328	0	10000	5	1	0	5	0
30	329	0	10000	5	1	0	5	0
30	330	0	10000	5	1	0	5	0
30	331	0	10000	5	1	0	5	0
32	332	0	10000	5	1	0	5	0
33	333	0	10000	5	1	0	5	0
34	334	0	10000	5	1	0	5	0
34	335	0	10000	5	1	0	5	0
33	336	0	10000	5	1	0	5	0
32	337	0	10000	5	1	0	5	0
30	338	0	10000	5	1	0	5	0
30	339	0	10000	5	1	0	5	0
30	340	0	10000	5	1	0	5	0
29	341	0	10000	5	1	0	5	0
28	342	0	10000	5	1	0	5	0
28	343	0	10000	5	1	0	5	0
27	344	0	10000	5	1	0	5	0
25	345	0	10000	5	1	0	5	0
26	346	0	10000	5	1	0	5	0
25	347	0	10000	5	1	0	5	0
27	348	0	10000	5	1	0	5	0
26	349	0	10000	5	1	0	5	0
26	350	0	10000	5	1	0	5	0
24	351	0	10000	5	1	0	5	0
23	352	0	10000	5	1	0	5	0
23	353	0	10000	5	1	0	5	0
23	354	0	10000	5	1	0	5	0
24	355	0	10000	5	1	0	5	0
23	356	0	10000	5	1	0	5	0
23	357	0	10000	5	1	0	5	0
20	358	0	10000	5	1	0	5	0
20	359	0	10000	5	1	0	5	0
20	360	0	10000	5	1	0	5	0
21	361	0	10000	5	1	0	5	0
22	362	0	10000	5	1	0	5	0
23	363	0	10000	5	1	0	5	0
23	364	0	10000	5	1	0	5	0
22	365	0	10000	5	1	0	5	0
21	366	0	10000	5	1	0	5	0
21	367	0	10000	5	1	0	5	0
23	368	0	10000	5	1	0	5	0
22	369	0	10000	5	1	0	5	0
21	370	0	10000	5	1	0	5	0
23	371	0	10000	5	1	0	5	0
24	372	0	10000	5	1	0	5	0
25	373	0	10000	5	1	0	5	0
24	374	0	10000	5	1	0	5	0
25	375	0	10000	5	1	0	5	0
25	376	0	10000	5	1	0	5	0
25	377	0	10000	5	1	0	5	0
22	378	0	10000	5	1	0	5	0
22	379	0	10000	5	1	0	5	0
21	380	0	10000	5	1	0	5	0
21	381	0	10000	5	1	0	5	0
22	382	0	10000	5	1	0	5	0
21	383	0	10000	5	1	0	5	0
21	384	0	10000	5	1	0	5	0
21	385	0	10000	5	1	0	5	0
23	386	0	10000	5	1	0	5	0
23	387	0	10000	5	1	0	5	0
25	388	0	10000	5	1	0	5	0
24	389	0	10000	5	1	0	5	0
23	390	0	10000	5	1	0	5	0
23	391	0	10000	5	1	0	5	0
23	392	0	10000	5	1	0	5	0
23	393	0	10000	5	1	0	5	0
22	394	0	10000	5	1	0	5	0
22	395	0	10000	5	1	0	5	0
22	396	0	10000	5	1	0	5	0
22	397	0	10000	5	1	0	5	0
20	398	0	10000	5	1	0	5	0
20	399	0	10000	5	1	0	5	0
21	400	0	10000	5	1	0	5	0
22	401	0	10000	5	1	0	5	0
21	402	0	10000	5	1	0	5	0
22	403	0	10000	5	1	0	5	0
21	404	0	10000	5	1	0	5	0
21	405	0	10000	5	1	0	5	0
20	406	0	10000	5	1	0	5	0
20	407	0	10000	5	1	0	5	0
22	408	0	10000	5	1	0	5	0
23	409	0	10000	5	1	0	5	0
23	410	0	10000	5	1	0	5	0
23	411	0	10000	5	1	0	5	0
24	412	0	10000	5	1	0	5	0
26	413	0	10000	5	1	0	5	0
27	414	0	10000	5	1	0	5	0
29	415	0	10000	5	1	0	5	0
29	416	0	10000	5	1	0	5	0
28	417	0	10000	5	1	0	5	0
26	418	0	10000	5	1	0	5	0
26	419	0	10000	5	1	0	5	0
27	420	0	10000	5	1	0	5	0
30	421	0	10000	5	1	0	5	0
29	422	0	10000	5	1	0	5	0
30	423	0	10000	5	1	0	5	0
29	424	0	10000	5	1	0	5	0
28	425	0	10000	5	1	0	5	0
27	426	0	10000	5	1	0	5	0
26	427	0	10000	5	1	0	5	0
28	428	0	10000	5	1	0	5	0
29	429	0	10000	5	1	0	5	0
31	430	0	10000	5	1	0	5	0
33	431	0	10000	5	1	0	5	0
35	432	0	10000	5	1	0	5	0
34	433	0	10000	5	1	0	5	0
32	434	0	10000	5	1	0	5	0
32	435	0	10000	5	1	0	5	0
31	436	0	10000	5	1	0	5	0
32	437	0	10000	5	1	0	5	0
29	438	0	10000	5	1	0	5	0
29	439	0	10000	5	1	0	5	0
29	440	0	10000	5	1	0	5	0
29	441	0	10000	5	1	0	5	0
29	442	0	10000	5	1	0	5	0
28	443	0	10000	5	1	0	5	0
28	444	0	10000	5	1	0	5	0
28	445	0	10000	5	1	0	5	0
29	446	0	10000	5	1	0	5	0
28	447	0	10000	5	1	0	5	0
30	448	0	10000	5	1	0	5	0
30	449	0	10000	5	1	0	5	0
30	450	0	10000	5	1	0	5	0
29	451	0	10000	5	1	0	5	0
28	452	0	10000	5	1	0	5	0
28	453	0	10000	5	1	0	5	0
27	454	0	10000	5	1	0	5	0
27	455	0	10000	5	1	0	5	0
26	456	0	10000	5	1	0	5	0
26	457	0	10000	5	1	0	5	0
24	458	0	10000	5	1	0	5	0
23	459	0	10000	5	1	0	5	0
24	460	0	10000	5	1	0	5	0
22	461	0	10000	5	1	0	5	0
23	462	0	10000	5	1	0	5	0
22	463	0	10000	5	1	0	5	0
22	464	0	10000	5	1	0	5	0
22	465	0	10000	5	1	0	5	0
22	466	0	10000	5	1	0	5	0
21	467	0	10000	5	1	0	5	0
23	468	0	10000	5	1	0	5	0
24	469	0	10000	5	1	0	5	0
23	470	0	10000	5	1	0	5	0
23	471	0	10000	5	1	0	5	0
23	472	0	10000	5	1	0	5	0
23	473	0	10000	5	1	0	5	0
24	474	0	10000	5	1	0	5	0
25	475	0	10000	5	1	0	5	0
27	476	0	10000	5	1	0	5	0
27	477	0	10000	5	1	0	5	0
24	478	0	10000	5	1	0	5	0
24	479	0	10000	5	1	0	5	0
25	480	0	10000	5	1	0	5	0
25	481	0	10000	5	1	0	5	0
24	482	0	10000	5	1	0	5	0
25	483	0	10000	5	1	0	5	0
24	484	0	10000	5	1	0	5	0
23	485	0	10000	5	1	0	5	0
23	486	0	10000	5	1	0	5	0
22	487	0	10000	5	1	0	5	0
24	488	0	10000	5	1	0	5	0
22	489	0	10000	5	1	0	5	0
22	490	0	10000	5	1	0	5	0
21	491	0	10000	5	1	0	5	0
21	492	0	10000	5	1	0	5	0
20	493	0	10000	5	1	0	5	0
20	494	0	10000	5	1	0	5	0
21	495	0	10000	5	1	0	5	0
21	496	0	10000	5	1	0	5	0
23	497	0	10000	5	1	0	5	0
20	498	0	10000	5	1	0	5	0
21	499	0	10000	5	1	0	5	0
20	500	0	10000	5	1	0	5	0
20	501	0	10000	5	1	0	5	1
20	502	0	10000	5	1	0	5	1
20	503	0	10000	5	1	0	5	1
20	504	0	10000	5	1	0	5	1
19	505	0	10000	5	1	0	5	1
20	506	0	10000	5	1	0	5	1
20	507	0	10000	5	1	0	5	1
23	508	0	10000	5	1	0	5	1
22	509	0	10000	5	1	0	5	1
21	510	0	10000	5	1	0	5	1
22	511	0	10000	5	1	0	5	1
22	512	0	10000	5	1	0	5	1
22	513	0	10000	5	1	0	5	1
23	514	0	10000	5	1	0	5	1
27	515	0	10000	5	1	0	5	1
30	516	0	10000	5	1	0	5	1
29	517	0	10000	5	1	0	5	1
27	518	0	10000	5	1	0	5	1
27	519	0	10000	5	1	0	5	1
26	520	0	10000	5	1	0	5	1
26	521	0	10000	5	1	0	5	1
25	522	0	10000	5	1	0	5	1
25	523	0	10000	5	1	0	5	1
24	524	0	10000	5	1	0	5	1
24	525	0	10000	5	1	0	5	1
24	526	0	10000	5	1	0	5	1
24	527	0	10000	5	1	0	5	1
25	528	0	10000	5	1	0	5	1
24	529	0	10000	5	1	0	5	1
24	530	0	10000	5	1	0	5	1
23	531	0	10000	5	1	0	5	1
22	532	0	10000	5	1	0	5	1
21	533	0	10000	5	1	0	5	1
21	534	0	10000	5	1	0	5	1
22	535	0	10000	5	1	0	5	1
22	536	0	10000	5	1	0	5	1
23	537	0	10000	5	1	0	5	1
21	538	0	10000	5	1	0	5	1
20	539	0	10000	5	1	0	5	1
21	540	0	10000	5	1	0	5	1
21	541	0	10000	5	1	0	5	1
20	542	0	10000	5	1	0	5	1
20	543	0	10000	5	1	0	5	1
20	544	0	10000	5	1	0	5	1
19	545	0	10000	5	1	0	5	1
19	546	0	10000	5	1	0	5	1
19	547	0	10000	5	1	0	5	1
20	548	0	10000	5	1	0	5	1
20	549	0	10000	5	1	0	5	1
20	550	0	10000	5	1	0	5	1
20	551	0	10000	5	1	0	5	0
20	552	0	10000	5	1	0	5	0
20	553	0	10000	5	1	0	5	0
19	554	0	10000	5	1	0	5	0
19	555	0	10000	5	1	0	5	0
20	556	0	10000	5	1	0	5	0
20	557	0	10000	5	1	0	5	0
19	558	0	10000	5	1	0	5	0
19	559	0	10000	5	1	0	5	0
20	560	0	10000	5	1	0	5	0
21	561	0	10000	5	1	0	5	0
23	562	0	10000	5	1	0	5	0
25	563	0	10000	5	1	0	5	0
26	564	0	10000	5	1	0	5	0
26	565	0	10000	5	1	0	5	0
25	566	0	10000	5	1	0	5	0
24	567	0	10000	5	1	0	5	0
25	568	0	10000	5	1	0	5	0
24	569	0	10000	5	1	0	5	0
23	570	0	10000	5	1	0	5	0
24	571	0	10000	5	1	0	5	0
24	572	0	10000	5	1	0	5	0
23	573	0	10000	5	1	0	5	0
23	574	0	10000	5	1	0	5	0
23	575	0	10000	5	1	0	5	0
24	576	0	10000	5	1	0	5	0
24	577	0	10000	5	1	0	5	0
21	578	0	10000	5	1	0	5	0
20	579	0	10000	5	1	0	5	0
21	580	0	10000	5	1	0	5	0
20	581	0	10000	5	1	0	5	0
20	582	0	10000	5	1	0	5	0
20	583	0	10000	5	1	0	5	0
23	584	0	10000	5	1	0	5	0
31	585	0	10000	5	1	0	5	0
41	586	0	10000	5	1	0	5	0
44	587	0	10000	5	1	0	5	0
48	588	0	10000	5	1	0	5	0
53	589	0	10000	5	1	0	5	0
51	590	0	10000	5	1	0	5	0
53	591	0	10000	5	1	0	5	0
63	592	0	10000	5	1	0	5	0
98	593	0	10000	5	1	0	5	0
121	594	0	10000	5	1	0	5	0
133	595	0	10000	5	1	0	5	0
143	596	0	10000	5	1	0	5	0
164	597	0	10000	5	1	0	5	0
179	598	0	10000	5	1	0	5	0
181	599	0	10000	5	1	0	5	0
179	600	0	10000	5	1	0	5	0
179	601	0	10000	5	1	0	5	0
183	602	0	10000	5	1	0	5	0
229	603	0	10000	5	1	0	5	0
259	604	0	10000	5	1	0	5	0
278	605	0	10000	5	1	0	5	0
288	606	0	10000	5	1	0	5	0
353	607	0	10000	5	1	0	5	0
392	608	0	10000	5	1	0	5	0
392	609	0	10000	5	1	0	5	0
423	610	0	10000	5	1	0	5	0
488	611	0	10000	5	1	0	5	0
544	612	0	10000	5	1	0	5	0
568	613	0	10000	5	1	0	5	0
576	614	0	10000	5	1	0	5	0
575	615	0	10000	5	1	0	5	0
555	616	0	10000	5	1	0	5	0
544	617	0	10000	5	1	0	5	0
520	618	0	10000	5	1	0	5	0
550	619	0	10000	5	1	0	5	0
607	620	0	10000	5	1	0	5	0
648	621	0	10000	5	1	0	5	0
645	622	0	10000	5	1	0	5	0
616	623	0	10000	5	1	0	5	0
594	624	0	10000	5	1	0	5	0
612	625	0	10000	5	1	0	5	0
600	626	0	10000	5	1	0	5	0
597	627	0	10000	5	1	0	5	0
613	628	0	10000	5	1	0	5	0
643	629	0	10000	5	1	0	5	0
666	630	0	10000	5	1	0	5	0
665	631	0	10000	5	1	0	5	0
645	632	0	10000	5	1	0	5	0
619	633	0	10000	5	1	0	5	0
603	634	0	10000	5	1	0	5	0
595	635	0	10000	5	1	0	5	0
593	636	0	10000	5	1	0	5	0
591	637	0	10000	5	1	0	5	0
586	638	0	10000	5	1	0	5	0
579	639	0	10000	5	1	0	5	0
569	640	0	10000	5	1	0	5	0
559	641	0	10000	5	1	0	5	0
549	642	0	10000	5	1	0	5	0
539	643	0	10000	5	1	0	5	0
530	644	0	10000	5	1	0	5	0
521	645	0	10000	5	1	0	5	0
511	646	0	10000	5	1	0	5	0
503	647	0	10000	5	1	0	5	0
497	648	0	10000	5	1	0	5	0
489	649	0	10000	5	1	0	5	0
478	650	0	10000	5	1	0	5	0
464	651	0	10000	5	1	0	5	0
451	652	0	10000	5	1	0	5	0
433	653	0	10000	5	1	0	5	0
414	654	0	10000	5	1	0	5	0
401	655	0	10000	5	1	0	5	0
391	656	0	10000	5	1	0	5	0
387	657	0	10000	5	1	0	5	0
385	658	0	10000	5	1	0	5	0
387	659	0	10000	5	1	0	5	0
392	660	0	10000	5	1	0	5	0
398	661	0	10000	5	1	0	5	0
403	662	0	10000	5	1	0	5	0
408	663	0	10000	5	1	0	5	0
412	664	0	10000	5	1	0	5	0
412	665	0	10000	5	1	0	5	0
412	666	0	10000	5	1	0	5	0
410	667	0	10000	5	1	0	5	0
409	668	0	10000	5	1	0	5	0
407	669	0	10000	5	1	0	5	0
403	670	0	10000	5	1	0	5	0
398	671	0	10000	5	1	0	5	0
395	672	0	10000	5	1	0	5	0
392	673	0	10000	5	1	0	5	0
390	674	0	10000	5	1	0	5	0
389	675	0	10000	5	1	0	5	0
387	676	0	10000	5	1	0	5	0
385	677	0	10000	5	1	0	5	0
379	678	0	10000	5	1	0	5	0
378	679	0	10000	5	1	0	5	0
376	680	0	10000	5	1	0	5	0
372	681	0	10000	5	1	0	5	0
364	682	0	10000	5	1	0	5	0
356	683	0	10000	5	1	0	5	0
343	684	0	10000	5	1	0	5	0
328	685	0	10000	5	1	0	5	0
314	686	0	10000	5	1	0	5	0
303	687	0	10000	5	1	0	5	0
297	688	0	10000	5	1	0	5	0
291	689	0	10000	5	1	0	5	0
284	690	0	10000	5	1	0	5	0
278	691	0	10000	5	1	0	5	0
273	692	0	10000	5	1	0	5	0
269	693	0	10000	5	1	0	5	0
265	694	0	10000	5	1	0	5	0
261	695	0	10000	5	1	0	5	0
255	696	0	10000	5	1	0	5	0
