value	EMG	Stimulus	EMG_sensitivity	Total_Trial_Nr	practise	acq	probe_nr	Startle_Probe
720	2	1	10000	1	1	0	1	0
714	3	1	10000	1	1	0	1	0
690	4	1	10000	1	1	0	1	0
669	5	1	10000	1	1	0	1	0
653	6	1	10000	1	1	0	1	0
672	7	1	10000	1	1	0	1	0
694	8	1	10000	1	1	0	1	0
726	9	1	10000	1	1	0	1	0
754	10	1	10000	1	1	0	1	0
738	11	1	10000	1	1	0	1	0
707	12	1	10000	1	1	0	1	0
708	13	1	10000	1	1	0	1	0
713	14	1	10000	1	1	0	1	0
690	15	1	10000	1	1	0	1	0
681	16	1	10000	1	1	0	1	0
690	17	1	10000	1	1	0	1	0
693	18	1	10000	1	1	0	1	0
696	19	1	10000	1	1	0	1	0
677	20	1	10000	1	1	0	1	0
674	21	1	10000	1	1	0	1	0
675	22	1	10000	1	1	0	1	0
654	23	1	10000	1	1	0	1	0
646	24	1	10000	1	1	0	1	0
627	25	1	10000	1	1	0	1	0
607	26	1	10000	1	1	0	1	0
590	27	1	10000	1	1	0	1	0
572	28	1	10000	1	1	0	1	0
582	29	1	10000	1	1	0	1	0
573	30	1	10000	1	1	0	1	0
564	31	1	10000	1	1	0	1	0
568	32	1	10000	1	1	0	1	0
590	33	1	10000	1	1	0	1	0
605	34	1	10000	1	1	0	1	0
598	35	1	10000	1	1	0	1	0
592	36	1	10000	1	1	0	1	0
601	37	1	10000	1	1	0	1	0
602	38	1	10000	1	1	0	1	0
587	39	1	10000	1	1	0	1	0
597	40	1	10000	1	1	0	1	0
638	41	1	10000	1	1	0	1	0
681	42	1	10000	1	1	0	1	0
684	43	1	10000	1	1	0	1	0
675	44	1	10000	1	1	0	1	0
660	45	1	10000	1	1	0	1	0
656	46	1	10000	1	1	0	1	0
650	47	1	10000	1	1	0	1	0
648	48	1	10000	1	1	0	1	0
655	49	1	10000	1	1	0	1	0
657	50	1	10000	1	1	0	1	0
637	51	1	10000	1	1	0	1	0
623	52	1	10000	1	1	0	1	0
631	53	1	10000	1	1	0	1	0
634	54	1	10000	1	1	0	1	0
615	55	1	10000	1	1	0	1	0
610	56	1	10000	1	1	0	1	0
619	57	1	10000	1	1	0	1	0
637	58	1	10000	1	1	0	1	0
637	59	1	10000	1	1	0	1	0
631	60	1	10000	1	1	0	1	0
648	61	1	10000	1	1	0	1	0
673	62	1	10000	1	1	0	1	0
662	63	1	10000	1	1	0	1	0
641	64	1	10000	1	1	0	1	0
620	65	1	10000	1	1	0	1	0
591	66	1	10000	1	1	0	1	0
571	67	1	10000	1	1	0	1	0
546	68	1	10000	1	1	0	1	0
531	69	1	10000	1	1	0	1	0
526	70	1	10000	1	1	0	1	0
519	71	1	10000	1	1	0	1	0
528	72	1	10000	1	1	0	1	0
529	73	1	10000	1	1	0	1	0
523	74	1	10000	1	1	0	1	0
501	75	1	10000	1	1	0	1	0
503	76	1	10000	1	1	0	1	0
504	77	1	10000	1	1	0	1	0
521	78	1	10000	1	1	0	1	0
525	79	1	10000	1	1	0	1	0
525	80	1	10000	1	1	0	1	0
550	81	1	10000	1	1	0	1	0
572	82	1	10000	1	1	0	1	0
562	83	1	10000	1	1	0	1	0
551	84	1	10000	1	1	0	1	0
540	85	1	10000	1	1	0	1	0
536	86	1	10000	1	1	0	1	0
544	87	1	10000	1	1	0	1	0
575	88	1	10000	1	1	0	1	0
610	89	1	10000	1	1	0	1	0
647	90	1	10000	1	1	0	1	0
634	91	1	10000	1	1	0	1	0
627	92	1	10000	1	1	0	1	0
639	93	1	10000	1	1	0	1	0
649	94	1	10000	1	1	0	1	0
640	95	1	10000	1	1	0	1	0
630	96	1	10000	1	1	0	1	0
627	97	1	10000	1	1	0	1	0
627	98	1	10000	1	1	0	1	0
604	99	1	10000	1	1	0	1	0
609	100	1	10000	1	1	0	1	0
632	101	1	10000	1	1	0	1	0
643	102	1	10000	1	1	0	1	0
622	103	1	10000	1	1	0	1	0
622	104	1	10000	1	1	0	1	0
618	105	1	10000	1	1	0	1	0
614	106	1	10000	1	1	0	1	0
603	107	1	10000	1	1	0	1	0
606	108	1	10000	1	1	0	1	0
609	109	1	10000	1	1	0	1	0
616	110	1	10000	1	1	0	1	0
598	111	1	10000	1	1	0	1	0
593	112	1	10000	1	1	0	1	0
597	113	1	10000	1	1	0	1	0
606	114	1	10000	1	1	0	1	0
589	115	1	10000	1	1	0	1	0
581	116	1	10000	1	1	0	1	0
586	117	1	10000	1	1	0	1	0
585	118	1	10000	1	1	0	1	0
564	119	1	10000	1	1	0	1	0
582	120	1	10000	1	1	0	1	0
623	121	1	10000	1	1	0	1	0
665	122	1	10000	1	1	0	1	0
661	123	1	10000	1	1	0	1	0
641	124	1	10000	1	1	0	1	0
620	125	1	10000	1	1	0	1	0
602	126	1	10000	1	1	0	1	0
597	127	1	10000	1	1	0	1	0
598	128	1	10000	1	1	0	1	0
587	129	1	10000	1	1	0	1	0
578	130	1	10000	1	1	0	1	0
590	131	1	10000	1	1	0	1	0
593	132	1	10000	1	1	0	1	0
587	133	1	10000	1	1	0	1	0
582	134	1	10000	1	1	0	1	0
561	135	1	10000	1	1	0	1	0
565	136	1	10000	1	1	0	1	0
579	137	1	10000	1	1	0	1	0
609	138	1	10000	1	1	0	1	0
622	139	1	10000	1	1	0	1	0
614	140	1	10000	1	1	0	1	0
647	141	1	10000	1	1	0	1	0
680	142	1	10000	1	1	0	1	0
681	143	1	10000	1	1	0	1	0
655	144	1	10000	1	1	0	1	0
637	145	1	10000	1	1	0	1	0
617	146	1	10000	1	1	0	1	0
598	147	1	10000	1	1	0	1	0
591	148	1	10000	1	1	0	1	0
586	149	1	10000	1	1	0	1	0
598	150	1	10000	1	1	0	1	0
579	151	1	10000	1	1	0	1	0
574	152	1	10000	1	1	0	1	0
581	153	1	10000	1	1	0	1	0
572	154	1	10000	1	1	0	1	0
550	155	1	10000	1	1	0	1	0
543	156	1	10000	1	1	0	1	0
544	157	1	10000	1	1	0	1	0
544	158	1	10000	1	1	0	1	0
532	159	1	10000	1	1	0	1	0
540	160	1	10000	1	1	0	1	0
572	161	1	10000	1	1	0	1	0
588	162	1	10000	1	1	0	1	0
586	163	1	10000	1	1	0	1	0
582	164	1	10000	1	1	0	1	0
571	165	1	10000	1	1	0	1	0
569	166	1	10000	1	1	0	1	0
582	167	1	10000	1	1	0	1	0
590	168	1	10000	1	1	0	1	0
598	169	1	10000	1	1	0	1	0
624	170	1	10000	1	1	0	1	0
618	171	1	10000	1	1	0	1	0
622	172	1	10000	1	1	0	1	0
638	173	1	10000	1	1	0	1	0
657	174	1	10000	1	1	0	1	0
639	175	1	10000	1	1	0	1	0
629	176	1	10000	1	1	0	1	0
635	177	1	10000	1	1	0	1	0
635	178	1	10000	1	1	0	1	0
621	179	1	10000	1	1	0	1	0
622	180	1	10000	1	1	0	1	0
661	181	1	10000	1	1	0	1	0
691	182	1	10000	1	1	0	1	0
686	183	1	10000	1	1	0	1	0
671	184	1	10000	1	1	0	1	0
652	185	1	10000	1	1	0	1	0
646	186	1	10000	1	1	0	1	0
663	187	1	10000	1	1	0	1	0
673	188	1	10000	1	1	0	1	0
701	189	1	10000	1	1	0	1	0
727	190	1	10000	1	1	0	1	0
704	191	1	10000	1	1	0	1	0
674	192	1	10000	1	1	0	1	0
655	193	1	10000	1	1	0	1	0
640	194	1	10000	1	1	0	1	0
616	195	1	10000	1	1	0	1	0
609	196	1	10000	1	1	0	1	0
619	197	1	10000	1	1	0	1	0
629	198	1	10000	1	1	0	1	0
625	199	1	10000	1	1	0	1	0
617	200	1	10000	1	1	0	1	0
636	201	1	10000	1	1	0	1	0
650	202	1	10000	1	1	0	1	0
642	203	1	10000	1	1	0	1	0
627	204	1	10000	1	1	0	1	0
607	205	1	10000	1	1	0	1	0
597	206	1	10000	1	1	0	1	0
595	207	1	10000	1	1	0	1	0
591	208	1	10000	1	1	0	1	0
605	209	1	10000	1	1	0	1	0
615	210	1	10000	1	1	0	1	0
609	211	1	10000	1	1	0	1	0
610	212	1	10000	1	1	0	1	0
626	213	1	10000	1	1	0	1	0
628	214	1	10000	1	1	0	1	0
613	215	1	10000	1	1	0	1	0
608	216	1	10000	1	1	0	1	0
607	217	1	10000	1	1	0	1	0
602	218	1	10000	1	1	0	1	0
587	219	1	10000	1	1	0	1	0
594	220	1	10000	1	1	0	1	0
631	221	1	10000	1	1	0	1	0
660	222	1	10000	1	1	0	1	0
672	223	1	10000	1	1	0	1	0
646	224	1	10000	1	1	0	1	0
620	225	1	10000	1	1	0	1	0
600	226	1	10000	1	1	0	1	0
580	227	1	10000	1	1	0	1	0
566	228	1	10000	1	1	0	1	0
574	229	1	10000	1	1	0	1	0
574	230	1	10000	1	1	0	1	0
571	231	1	10000	1	1	0	1	0
580	232	1	10000	1	1	0	1	0
590	233	1	10000	1	1	0	1	0
583	234	1	10000	1	1	0	1	0
566	235	1	10000	1	1	0	1	0
568	236	1	10000	1	1	0	1	0
576	237	1	10000	1	1	0	1	0
582	238	1	10000	1	1	0	1	0
573	239	1	10000	1	1	0	1	0
569	240	1	10000	1	1	0	1	0
587	241	1	10000	1	1	0	1	0
610	242	1	10000	1	1	0	1	0
601	243	1	10000	1	1	0	1	0
585	244	1	10000	1	1	0	1	0
567	245	1	10000	1	1	0	1	0
549	246	1	10000	1	1	0	1	0
558	247	1	10000	1	1	0	1	0
571	248	1	10000	1	1	0	1	0
594	249	1	10000	1	1	0	1	0
606	250	1	10000	1	1	0	1	0
595	251	1	10000	1	1	0	1	0
596	252	1	10000	1	1	0	1	0
605	253	1	10000	1	1	0	1	0
603	254	1	10000	1	1	0	1	0
587	255	1	10000	1	1	0	1	0
573	256	1	10000	1	1	0	1	0
569	257	1	10000	1	1	0	1	0
581	258	1	10000	1	1	0	1	0
580	259	1	10000	1	1	0	1	0
577	260	1	10000	1	1	0	1	0
601	261	1	10000	1	1	0	1	0
621	262	1	10000	1	1	0	1	0
611	263	1	10000	1	1	0	1	0
593	264	1	10000	1	1	0	1	0
573	265	1	10000	1	1	0	1	0
557	266	1	10000	1	1	0	1	0
557	267	1	10000	1	1	0	1	0
577	268	1	10000	1	1	0	1	0
607	269	1	10000	1	1	0	1	0
607	270	1	10000	1	1	0	1	0
604	271	1	10000	1	1	0	1	0
631	272	1	10000	1	1	0	1	0
665	273	1	10000	1	1	0	1	0
683	274	1	10000	1	1	0	1	0
668	275	1	10000	1	1	0	1	0
645	276	1	10000	1	1	0	1	0
636	277	1	10000	1	1	0	1	0
629	278	1	10000	1	1	0	1	0
608	279	1	10000	1	1	0	1	0
622	280	1	10000	1	1	0	1	0
648	281	1	10000	1	1	0	1	0
674	282	1	10000	1	1	0	1	0
657	283	1	10000	1	1	0	1	0
663	284	1	10000	1	1	0	1	0
661	285	1	10000	1	1	0	1	0
660	286	1	10000	1	1	0	1	0
646	287	1	10000	1	1	0	1	0
633	288	1	10000	1	1	0	1	0
631	289	1	10000	1	1	0	1	0
620	290	1	10000	1	1	0	1	0
615	291	1	10000	1	1	0	1	0
633	292	1	10000	1	1	0	1	0
637	293	1	10000	1	1	0	1	0
630	294	1	10000	1	1	0	1	0
615	295	1	10000	1	1	0	1	0
606	296	1	10000	1	1	0	1	0
604	297	1	10000	1	1	0	1	0
608	298	1	10000	1	1	0	1	0
586	299	1	10000	1	1	0	1	0
575	300	1	10000	1	1	0	1	0
585	301	1	10000	1	1	0	1	0
590	302	1	10000	1	1	0	1	0
574	303	1	10000	1	1	0	1	0
578	304	1	10000	1	1	0	1	0
564	305	1	10000	1	1	0	1	0
561	306	1	10000	1	1	0	1	0
551	307	1	10000	1	1	0	1	0
552	308	1	10000	1	1	0	1	0
554	309	1	10000	1	1	0	1	0
574	310	1	10000	1	1	0	1	0
558	311	1	10000	1	1	0	1	0
550	312	1	10000	1	1	0	1	0
543	313	1	10000	1	1	0	1	0
543	314	1	10000	1	1	0	1	0
526	315	1	10000	1	1	0	1	0
539	316	1	10000	1	1	0	1	0
558	317	1	10000	1	1	0	1	0
578	318	1	10000	1	1	0	1	0
566	319	1	10000	1	1	0	1	0
578	320	1	10000	1	1	0	1	0
621	321	1	10000	1	1	0	1	0
675	322	1	10000	1	1	0	1	0
661	323	1	10000	1	1	0	1	0
647	324	1	10000	1	1	0	1	0
639	325	1	10000	1	1	0	1	0
648	326	1	10000	1	1	0	1	0
639	327	1	10000	1	1	0	1	0
643	328	1	10000	1	1	0	1	0
640	329	1	10000	1	1	0	1	0
641	330	1	10000	1	1	0	1	0
630	331	1	10000	1	1	0	1	0
642	332	1	10000	1	1	0	1	0
664	333	1	10000	1	1	0	1	0
675	334	1	10000	1	1	0	1	0
647	335	1	10000	1	1	0	1	0
648	336	1	10000	1	1	0	1	0
655	337	1	10000	1	1	0	1	0
663	338	1	10000	1	1	0	1	0
643	339	1	10000	1	1	0	1	0
669	340	1	10000	1	1	0	1	0
714	341	1	10000	1	1	0	1	0
737	342	1	10000	1	1	0	1	0
715	343	1	10000	1	1	0	1	0
690	344	1	10000	1	1	0	1	0
662	345	1	10000	1	1	0	1	0
644	346	1	10000	1	1	0	1	0
635	347	1	10000	1	1	0	1	0
650	348	1	10000	1	1	0	1	0
675	349	1	10000	1	1	0	1	0
682	350	1	10000	1	1	0	1	0
684	351	1	10000	1	1	0	1	0
680	352	1	10000	1	1	0	1	0
674	353	1	10000	1	1	0	1	0
679	354	1	10000	1	1	0	1	0
655	355	1	10000	1	1	0	1	0
656	356	1	10000	1	1	0	1	0
669	357	1	10000	1	1	0	1	0
700	358	1	10000	1	1	0	1	0
691	359	1	10000	1	1	0	1	0
691	360	1	10000	1	1	0	1	0
731	361	1	10000	1	1	0	1	0
761	362	1	10000	1	1	0	1	0
743	363	1	10000	1	1	0	1	0
728	364	1	10000	1	1	0	1	0
736	365	1	10000	1	1	0	1	0
747	366	1	10000	1	1	0	1	0
738	367	1	10000	1	1	0	1	0
733	368	1	10000	1	1	0	1	0
738	369	1	10000	1	1	0	1	0
745	370	1	10000	1	1	0	1	0
730	371	1	10000	1	1	0	1	0
720	372	1	10000	1	1	0	1	0
715	373	1	10000	1	1	0	1	0
695	374	1	10000	1	1	0	1	0
667	375	1	10000	1	1	0	1	0
647	376	1	10000	1	1	0	1	0
632	377	1	10000	1	1	0	1	0
635	378	1	10000	1	1	0	1	0
621	379	1	10000	1	1	0	1	0
614	380	1	10000	1	1	0	1	0
640	381	1	10000	1	1	0	1	0
653	382	1	10000	1	1	0	1	0
643	383	1	10000	1	1	0	1	0
648	384	1	10000	1	1	0	1	0
655	385	1	10000	1	1	0	1	0
644	386	1	10000	1	1	0	1	0
635	387	1	10000	1	1	0	1	0
639	388	1	10000	1	1	0	1	0
646	389	1	10000	1	1	0	1	0
649	390	1	10000	1	1	0	1	0
655	391	1	10000	1	1	0	1	0
667	392	1	10000	1	1	0	1	0
684	393	1	10000	1	1	0	1	0
686	394	1	10000	1	1	0	1	0
661	395	1	10000	1	1	0	1	0
645	396	1	10000	1	1	0	1	0
649	397	1	10000	1	1	0	1	0
653	398	1	10000	1	1	0	1	0
641	399	1	10000	1	1	0	1	0
634	400	1	10000	1	1	0	1	0
652	401	1	10000	1	1	0	1	0
651	402	1	10000	1	1	0	1	0
634	403	1	10000	1	1	0	1	0
608	404	1	10000	1	1	0	1	0
583	405	1	10000	1	1	0	1	0
566	406	1	10000	1	1	0	1	0
541	407	1	10000	1	1	0	1	0
527	408	1	10000	1	1	0	1	0
532	409	1	10000	1	1	0	1	0
544	410	1	10000	1	1	0	1	0
542	411	1	10000	1	1	0	1	0
551	412	1	10000	1	1	0	1	0
583	413	1	10000	1	1	0	1	0
595	414	1	10000	1	1	0	1	0
575	415	1	10000	1	1	0	1	0
559	416	1	10000	1	1	0	1	0
565	417	1	10000	1	1	0	1	0
582	418	1	10000	1	1	0	1	0
581	419	1	10000	1	1	0	1	0
598	420	1	10000	1	1	0	1	0
627	421	1	10000	1	1	0	1	0
625	422	1	10000	1	1	0	1	0
606	423	1	10000	1	1	0	1	0
599	424	1	10000	1	1	0	1	0
602	425	1	10000	1	1	0	1	0
616	426	1	10000	1	1	0	1	0
628	427	1	10000	1	1	0	1	0
629	428	1	10000	1	1	0	1	0
666	429	1	10000	1	1	0	1	0
695	430	1	10000	1	1	0	1	0
678	431	1	10000	1	1	0	1	0
667	432	1	10000	1	1	0	1	0
679	433	1	10000	1	1	0	1	0
674	434	1	10000	1	1	0	1	0
654	435	1	10000	1	1	0	1	0
649	436	1	10000	1	1	0	1	0
649	437	1	10000	1	1	0	1	0
639	438	1	10000	1	1	0	1	0
629	439	1	10000	1	1	0	1	0
650	440	1	10000	1	1	0	1	0
688	441	1	10000	1	1	0	1	0
714	442	1	10000	1	1	0	1	0
701	443	1	10000	1	1	0	1	0
690	444	1	10000	1	1	0	1	0
666	445	1	10000	1	1	0	1	0
640	446	1	10000	1	1	0	1	0
640	447	1	10000	1	1	0	1	0
645	448	1	10000	1	1	0	1	0
673	449	1	10000	1	1	0	1	0
671	450	1	10000	1	1	0	1	0
669	451	1	10000	1	1	0	1	0
673	452	1	10000	1	1	0	1	0
692	453	1	10000	1	1	0	1	0
681	454	1	10000	1	1	0	1	0
664	455	1	10000	1	1	0	1	0
665	456	1	10000	1	1	0	1	0
669	457	1	10000	1	1	0	1	0
662	458	1	10000	1	1	0	1	0
645	459	1	10000	1	1	0	1	0
666	460	1	10000	1	1	0	1	0
688	461	1	10000	1	1	0	1	0
701	462	1	10000	1	1	0	1	0
679	463	1	10000	1	1	0	1	0
682	464	1	10000	1	1	0	1	0
675	465	1	10000	1	1	0	1	0
658	466	1	10000	1	1	0	1	0
637	467	1	10000	1	1	0	1	0
614	468	1	10000	1	1	0	1	0
605	469	1	10000	1	1	0	1	0
602	470	1	10000	1	1	0	1	0
589	471	1	10000	1	1	0	1	0
576	472	1	10000	1	1	0	1	0
582	473	1	10000	1	1	0	1	0
600	474	1	10000	1	1	0	1	0
602	475	1	10000	1	1	0	1	0
576	476	1	10000	1	1	0	1	0
560	477	1	10000	1	1	0	1	0
550	478	1	10000	1	1	0	1	0
530	479	1	10000	1	1	0	1	0
541	480	1	10000	1	1	0	1	0
569	481	1	10000	1	1	0	1	0
588	482	1	10000	1	1	0	1	0
571	483	1	10000	1	1	0	1	0
572	484	1	10000	1	1	0	1	0
551	485	1	10000	1	1	0	1	0
548	486	1	10000	1	1	0	1	0
553	487	1	10000	1	1	0	1	0
574	488	1	10000	1	1	0	1	0
603	489	1	10000	1	1	0	1	0
619	490	1	10000	1	1	0	1	0
599	491	1	10000	1	1	0	1	0
578	492	1	10000	1	1	0	1	0
566	493	1	10000	1	1	0	1	0
551	494	1	10000	1	1	0	1	0
537	495	1	10000	1	1	0	1	0
558	496	1	10000	1	1	0	1	0
564	497	1	10000	1	1	0	1	0
565	498	1	10000	1	1	0	1	0
541	499	1	10000	1	1	0	1	0
554	500	1	10000	1	1	0	1	0
580	501	1	10000	1	1	0	1	0
602	548	1	10000	1	1	0	1	1
586	549	1	10000	1	1	0	1	1
563	550	1	10000	1	1	0	1	1
553	551	1	10000	1	1	0	1	1
546	552	1	10000	1	1	0	1	1
540	553	1	10000	1	1	0	1	1
564	554	1	10000	1	1	0	1	1
598	555	1	10000	1	1	0	1	1
619	556	1	10000	1	1	0	1	1
605	557	1	10000	1	1	0	1	1
601	558	1	10000	1	1	0	1	1
601	559	1	10000	1	1	0	1	1
601	560	1	10000	1	1	0	1	1
581	561	1	10000	1	1	0	1	1
578	562	1	10000	1	1	0	1	1
564	563	1	10000	1	1	0	1	1
563	564	1	10000	1	1	0	1	1
546	565	1	10000	1	1	0	1	1
570	566	1	10000	1	1	0	1	1
598	567	1	10000	1	1	0	1	1
625	568	1	10000	1	1	0	1	1
619	569	1	10000	1	1	0	1	1
597	570	1	10000	1	1	0	1	1
575	571	1	10000	1	1	0	1	1
562	572	1	10000	1	1	0	1	1
551	573	1	10000	1	1	0	1	1
535	574	1	10000	1	1	0	1	1
535	575	1	10000	1	1	0	1	1
547	576	1	10000	1	1	0	1	1
534	577	1	10000	1	1	0	1	1
536	578	1	10000	1	1	0	1	1
575	579	1	10000	1	1	0	1	1
608	580	1	10000	1	1	0	1	1
598	581	1	10000	1	1	0	1	1
588	582	1	10000	1	1	0	1	1
596	583	1	10000	1	1	0	1	1
601	584	1	10000	1	1	0	1	1
584	585	1	10000	1	1	0	1	1
598	586	1	10000	1	1	0	1	1
642	587	1	10000	1	1	0	1	1
664	588	1	10000	1	1	0	1	1
647	589	1	10000	1	1	0	1	1
636	590	1	10000	1	1	0	1	1
629	591	1	10000	1	1	0	1	1
638	592	1	10000	1	1	0	1	1
655	593	1	10000	1	1	0	1	1
682	594	1	10000	1	1	0	1	1
688	595	1	10000	1	1	0	1	1
705	555	1	10000	1	1	0	1	1
686	556	1	10000	1	1	0	1	1
685	557	1	10000	1	1	0	1	1
685	558	1	10000	1	1	0	1	1
687	559	1	10000	1	1	0	1	1
671	560	1	10000	1	1	0	1	1
676	556	1	10000	1	1	0	1	0
684	557	1	10000	1	1	0	1	0
714	558	1	10000	1	1	0	1	0
710	559	1	10000	1	1	0	1	0
705	560	1	10000	1	1	0	1	0
735	561	1	10000	1	1	0	1	0
741	562	1	10000	1	1	0	1	0
725	563	1	10000	1	1	0	1	0
698	564	1	10000	1	1	0	1	0
673	565	1	10000	1	1	0	1	0
653	566	1	10000	1	1	0	1	0
639	567	1	10000	1	1	0	1	0
635	568	1	10000	1	1	0	1	0
648	569	1	10000	1	1	0	1	0
649	570	1	10000	1	1	0	1	0
642	571	1	10000	1	1	0	1	0
648	572	1	10000	1	1	0	1	0
676	573	1	10000	1	1	0	1	0
680	574	1	10000	1	1	0	1	0
658	575	1	10000	1	1	0	1	0
647	576	1	10000	1	1	0	1	0
647	577	1	10000	1	1	0	1	0
663	578	1	10000	1	1	0	1	0
658	579	1	10000	1	1	0	1	0
660	580	1	10000	1	1	0	1	0
674	581	1	10000	1	1	0	1	0
665	582	1	10000	1	1	0	1	0
655	583	1	10000	1	1	0	1	0
662	584	1	10000	1	1	0	1	0
643	585	1	10000	1	1	0	1	0
639	586	1	10000	1	1	0	1	0
650	587	1	10000	1	1	0	1	0
653	588	1	10000	1	1	0	1	0
664	589	1	10000	1	1	0	1	0
660	590	1	10000	1	1	0	1	0
670	591	1	10000	1	1	0	1	0
663	592	1	10000	1	1	0	1	0
660	593	1	10000	1	1	0	1	0
652	594	1	10000	1	1	0	1	0
635	595	1	10000	1	1	0	1	0
621	596	1	10000	1	1	0	1	0
620	597	1	10000	1	1	0	1	0
630	598	1	10000	1	1	0	1	0
623	599	1	10000	1	1	0	1	0
628	600	1	10000	1	1	0	1	0
646	601	1	10000	1	1	0	1	0
657	602	1	10000	1	1	0	1	0
647	603	1	10000	1	1	0	1	0
633	604	1	10000	1	1	0	1	0
609	605	1	10000	1	1	0	1	0
593	606	1	10000	1	1	0	1	0
598	607	1	10000	1	1	0	1	0
603	608	1	10000	1	1	0	1	0
640	609	1	10000	1	1	0	1	0
661	610	1	10000	1	1	0	1	0
643	611	1	10000	1	1	0	1	0
631	612	1	10000	1	1	0	1	0
643	613	1	10000	1	1	0	1	0
642	614	1	10000	1	1	0	1	0
634	615	1	10000	1	1	0	1	0
613	616	1	10000	1	1	0	1	0
610	617	1	10000	1	1	0	1	0
623	618	1	10000	1	1	0	1	0
609	619	1	10000	1	1	0	1	0
622	620	1	10000	1	1	0	1	0
646	621	1	10000	1	1	0	1	0
648	622	1	10000	1	1	0	1	0
630	623	1	10000	1	1	0	1	0
619	624	1	10000	1	1	0	1	0
601	625	1	10000	1	1	0	1	0
587	626	1	10000	1	1	0	1	0
597	627	1	10000	1	1	0	1	0
600	628	1	10000	1	1	0	1	0
609	629	1	10000	1	1	0	1	0
596	630	1	10000	1	1	0	1	0
595	631	1	10000	1	1	0	1	0
632	632	1	10000	1	1	0	1	0
691	633	1	10000	1	1	0	1	0
717	634	1	10000	1	1	0	1	0
706	635	1	10000	1	1	0	1	0
679	636	1	10000	1	1	0	1	0
656	637	1	10000	1	1	0	1	0
636	638	1	10000	1	1	0	1	0
610	639	1	10000	1	1	0	1	0
624	640	1	10000	1	1	0	1	0
645	641	1	10000	1	1	0	1	0
673	642	1	10000	1	1	0	1	0
721	643	1	10000	1	1	0	1	0
708	644	1	10000	1	1	0	1	0
684	645	1	10000	1	1	0	1	0
656	646	1	10000	1	1	0	1	0
630	647	1	10000	1	1	0	1	0
653	648	1	10000	1	1	0	1	0
659	649	1	10000	1	1	0	1	0
656	650	1	10000	1	1	0	1	0
648	651	1	10000	1	1	0	1	0
693	652	1	10000	1	1	0	1	0
740	653	1	10000	1	1	0	1	0
804	654	1	10000	1	1	0	1	0
864	655	1	10000	1	1	0	1	0
875	656	1	10000	1	1	0	1	0
1081	657	1	10000	1	1	0	1	0
1490	658	1	10000	1	1	0	1	0
1919	659	1	10000	1	1	0	1	0
2302	660	1	10000	1	1	0	1	0
2604	661	1	10000	1	1	0	1	0
2832	662	1	10000	1	1	0	1	0
2997	663	1	10000	1	1	0	1	0
3106	664	1	10000	1	1	0	1	0
3197	665	1	10000	1	1	0	1	0
3513	666	1	10000	1	1	0	1	0
3793	667	1	10000	1	1	0	1	0
3900	668	1	10000	1	1	0	1	0
4105	669	1	10000	1	1	0	1	0
4226	670	1	10000	1	1	0	1	0
4248	671	1	10000	1	1	0	1	0
4163	672	1	10000	1	1	0	1	0
4004	673	1	10000	1	1	0	1	0
3824	674	1	10000	1	1	0	1	0
3672	675	1	10000	1	1	0	1	0
3522	676	1	10000	1	1	0	1	0
3363	677	1	10000	1	1	0	1	0
3247	678	1	10000	1	1	0	1	0
3186	679	1	10000	1	1	0	1	0
3156	680	1	10000	1	1	0	1	0
3106	681	1	10000	1	1	0	1	0
3034	682	1	10000	1	1	0	1	0
2943	683	1	10000	1	1	0	1	0
2838	684	1	10000	1	1	0	1	0
2721	685	1	10000	1	1	0	1	0
2596	686	1	10000	1	1	0	1	0
2481	687	1	10000	1	1	0	1	0
2384	688	1	10000	1	1	0	1	0
2301	689	1	10000	1	1	0	1	0
2232	690	1	10000	1	1	0	1	0
2212	691	1	10000	1	1	0	1	0
2258	692	1	10000	1	1	0	1	0
2344	693	1	10000	1	1	0	1	0
2443	694	1	10000	1	1	0	1	0
2533	695	1	10000	1	1	0	1	0
2589	696	1	10000	1	1	0	1	0
2597	697	1	10000	1	1	0	1	0
2545	698	1	10000	1	1	0	1	0
2439	699	1	10000	1	1	0	1	0
2354	700	1	10000	1	1	0	1	0
2264	701	1	10000	1	1	0	1	0
2169	702	1	10000	1	1	0	1	0
2070	703	1	10000	1	1	0	1	0
1976	704	1	10000	1	1	0	1	0
1892	705	1	10000	1	1	0	1	0
1818	706	1	10000	1	1	0	1	0
1752	707	1	10000	1	1	0	1	0
1694	708	1	10000	1	1	0	1	0
1644	709	1	10000	1	1	0	1	0
1599	710	1	10000	1	1	0	1	0
1594	711	1	10000	1	1	0	1	0
1645	712	1	10000	1	1	0	1	0
1730	713	1	10000	1	1	0	1	0
1827	714	1	10000	1	1	0	1	0
1909	715	1	10000	1	1	0	1	0
1961	716	1	10000	1	1	0	1	0
1966	717	1	10000	1	1	0	1	0
1914	718	1	10000	1	1	0	1	0
1841	719	1	10000	1	1	0	1	0
1807	720	1	10000	1	1	0	1	0
1768	721	1	10000	1	1	0	1	0
1721	722	1	10000	1	1	0	1	0
1669	723	1	10000	1	1	0	1	0
1612	724	1	10000	1	1	0	1	0
1552	725	1	10000	1	1	0	1	0
1490	726	1	10000	1	1	0	1	0
1425	727	1	10000	1	1	0	1	0
1361	728	1	10000	1	1	0	1	0
1299	729	1	10000	1	1	0	1	0
1243	730	1	10000	1	1	0	1	0
1223	731	1	10000	1	1	0	1	0
1257	732	1	10000	1	1	0	1	0
1324	733	1	10000	1	1	0	1	0
1402	734	1	10000	1	1	0	1	0
1469	735	1	10000	1	1	0	1	0
1508	736	1	10000	1	1	0	1	0
1506	737	1	10000	1	1	0	1	0
1453	738	1	10000	1	1	0	1	0
1419	739	1	10000	1	1	0	1	0
1419	740	1	10000	1	1	0	1	0
1412	741	1	10000	1	1	0	1	0
1397	742	1	10000	1	1	0	1	0
1375	743	1	10000	1	1	0	1	0
1347	744	1	10000	1	1	0	1	0
1314	745	1	10000	1	1	0	1	0
1276	746	1	10000	1	1	0	1	0
1236	747	1	10000	1	1	0	1	0
1194	748	1	10000	1	1	0	1	0
1152	749	1	10000	1	1	0	1	0
1104	750	1	10000	1	1	0	1	0
1074	751	1	10000	1	1	0	1	0
1094	752	1	10000	1	1	0	1	0
1147	753	1	10000	1	1	0	1	0
1211	754	1	10000	1	1	0	1	0
1266	755	1	10000	1	1	0	1	0
1297	756	1	10000	1	1	0	1	0
1289	757	1	10000	1	1	0	1	0
1240	758	1	10000	1	1	0	1	0
1223	759	1	10000	1	1	0	1	0
1235	760	1	10000	1	1	0	1	0
1239	761	1	10000	1	1	0	1	0
1235	762	1	10000	1	1	0	1	0
1224	763	1	10000	1	1	0	1	0
1206	764	1	10000	1	1	0	1	0
1184	765	1	10000	1	1	0	1	0
1156	766	1	10000	1	1	0	1	0
1126	767	1	10000	1	1	0	1	0
1094	768	1	10000	1	1	0	1	0
1059	769	1	10000	1	1	0	1	0
1021	770	1	10000	1	1	0	1	0
989	771	1	10000	1	1	0	1	0
1001	772	1	10000	1	1	0	1	0
1045	773	1	10000	1	1	0	1	0
1100	774	1	10000	1	1	0	1	0
1147	775	1	10000	1	1	0	1	0
1172	776	1	10000	1	1	0	1	0
1163	777	1	10000	1	1	0	1	0
1118	778	1	10000	1	1	0	1	0
1106	779	1	10000	1	1	0	1	0
1121	780	1	10000	1	1	0	1	0
1129	781	1	10000	1	1	0	1	0
1127	782	1	10000	1	1	0	1	0
1119	783	1	10000	1	1	0	1	0
1105	784	1	10000	1	1	0	1	0
1087	785	1	10000	1	1	0	1	0
1064	786	1	10000	1	1	0	1	0
1037	787	1	10000	1	1	0	1	0
1010	788	1	10000	1	1	0	1	0
980	789	1	10000	1	1	0	1	0
946	790	1	10000	1	1	0	1	0
913	791	1	10000	1	1	0	1	0
923	792	1	10000	1	1	0	1	0
960	793	1	10000	1	1	0	1	0
1009	794	1	10000	1	1	0	1	0
1053	795	1	10000	1	1	0	1	0
1074	796	1	10000	1	1	0	1	0
1063	797	1	10000	1	1	0	1	0
1022	798	1	10000	1	1	0	1	0
1013	799	1	10000	1	1	0	1	0
1028	800	1	10000	1	1	0	1	0
1034	801	1	10000	1	1	0	1	0
1035	802	1	10000	1	1	0	1	0
1027	803	1	10000	1	1	0	1	0
1015	804	1	10000	1	1	0	1	0
998	805	1	10000	1	1	0	1	0
977	806	1	10000	1	1	0	1	0
954	807	1	10000	1	1	0	1	0
928	808	1	10000	1	1	0	1	0
902	809	1	10000	1	1	0	1	0
871	810	1	10000	1	1	0	1	0
840	811	1	10000	1	1	0	1	0
847	812	1	10000	1	1	0	1	0
881	813	1	10000	1	1	0	1	0
925	814	1	10000	1	1	0	1	0
963	815	1	10000	1	1	0	1	0
983	816	1	10000	1	1	0	1	0
973	817	1	10000	1	1	0	1	0
935	818	1	10000	1	1	0	1	0
928	819	1	10000	1	1	0	1	0
942	820	1	10000	1	1	0	1	0
948	821	1	10000	1	1	0	1	0
938	822	1	10000	1	1	0	1	0
982	823	1	10000	1	1	0	1	0
1180	824	1	10000	1	1	0	1	0
1525	825	1	10000	1	1	0	1	0
1865	826	1	10000	1	1	0	1	0
2065	827	1	10000	1	1	0	1	0
2070	828	1	10000	1	1	0	1	0
2100	829	1	10000	1	1	0	1	0
2243	830	1	10000	1	1	0	1	0
2344	831	1	10000	1	1	0	1	0
2373	832	1	10000	1	1	0	1	0
2351	833	1	10000	1	1	0	1	0
2298	834	1	10000	1	1	0	1	0
2233	835	1	10000	1	1	0	1	0
2174	836	1	10000	1	1	0	1	0
2134	837	1	10000	1	1	0	1	0
2122	838	1	10000	1	1	0	1	0
2141	839	1	10000	1	1	0	1	0
2176	840	1	10000	1	1	0	1	0
2196	841	1	10000	1	1	0	1	0
2185	842	1	10000	1	1	0	1	0
2157	843	1	10000	1	1	0	1	0
2301	844	1	10000	1	1	0	1	0
2566	845	1	10000	1	1	0	1	0
2819	846	1	10000	1	1	0	1	0
2938	847	1	10000	1	1	0	1	0
2880	848	1	10000	1	1	0	1	0
2876	849	1	10000	1	1	0	1	0
3012	850	1	10000	1	1	0	1	0
3108	851	1	10000	1	1	0	1	0
3123	852	1	10000	1	1	0	1	0
3080	853	1	10000	1	1	0	1	0
3001	854	1	10000	1	1	0	1	0
2908	855	1	10000	1	1	0	1	0
2817	856	1	10000	1	1	0	1	0
2747	857	1	10000	1	1	0	1	0
2705	858	1	10000	1	1	0	1	0
2698	859	1	10000	1	1	0	1	0
2713	860	1	10000	1	1	0	1	0
2672	861	1	10000	1	1	0	1	0
2743	862	1	10000	1	1	0	1	0
3029	863	1	10000	1	1	0	1	0
3351	864	1	10000	1	1	0	1	0
3429	865	1	10000	1	1	0	1	0
3786	866	1	10000	1	1	0	1	0
4073	867	1	10000	1	1	0	1	0
4231	868	1	10000	1	1	0	1	0
4163	869	1	10000	1	1	0	1	0
4039	870	1	10000	1	1	0	1	0
4074	871	1	10000	1	1	0	1	0
4251	872	1	10000	1	1	0	1	0
4473	873	1	10000	1	1	0	1	0
4627	874	1	10000	1	1	0	1	0
4717	875	1	10000	1	1	0	1	0
4769	876	1	10000	1	1	0	1	0
4806	877	1	10000	1	1	0	1	0
4845	878	1	10000	1	1	0	1	0
4816	879	1	10000	1	1	0	1	0
4725	880	1	10000	1	1	0	1	0
4827	881	1	10000	1	1	0	1	0
5006	882	1	10000	1	1	0	1	0
5060	883	1	10000	1	1	0	1	0
5323	884	1	10000	1	1	0	1	0
5469	885	1	10000	1	1	0	1	0
5546	886	1	10000	1	1	0	1	0
5590	887	1	10000	1	1	0	1	0
5548	888	1	10000	1	1	0	1	0
5712	889	1	10000	1	1	0	1	0
5922	890	1	10000	1	1	0	1	0
6149	891	1	10000	1	1	0	1	0
6299	892	1	10000	1	1	0	1	0
6372	893	1	10000	1	1	0	1	0
6392	894	1	10000	1	1	0	1	0
6412	895	1	10000	1	1	0	1	0
6344	896	1	10000	1	1	0	1	0
6287	897	1	10000	1	1	0	1	0
6249	898	1	10000	1	1	0	1	0
6173	899	1	10000	1	1	0	1	0
6355	900	1	10000	1	1	0	1	0
6314	901	1	10000	1	1	0	1	0
6416	902	1	10000	1	1	0	1	0
6492	903	1	10000	1	1	0	1	0
6458	904	1	10000	1	1	0	1	0
6363	905	1	10000	1	1	0	1	0
6239	906	1	10000	1	1	0	1	0
6109	907	1	10000	1	1	0	1	0
5996	908	1	10000	1	1	0	1	0
5902	909	1	10000	1	1	0	1	0
5801	910	1	10000	1	1	0	1	0
5949	911	1	10000	1	1	0	1	0
6148	912	1	10000	1	1	0	1	0
6339	913	1	10000	1	1	0	1	0
6550	914	1	10000	1	1	0	1	0
6708	915	1	10000	1	1	0	1	0
6795	916	1	10000	1	1	0	1	0
6821	917	1	10000	1	1	0	1	0
6795	918	1	10000	1	1	0	1	0
6723	919	1	10000	1	1	0	1	0
6588	920	1	10000	1	1	0	1	0
6472	921	1	10000	1	1	0	1	0
6447	922	1	10000	1	1	0	1	0
6635	923	1	10000	1	1	0	1	0
6700	924	1	10000	1	1	0	1	0
6688	925	1	10000	1	1	0	1	0
6634	926	1	10000	1	1	0	1	0
6562	927	1	10000	1	1	0	1	0
6495	928	1	10000	1	1	0	1	0
6439	929	1	10000	1	1	0	1	0
6222	930	1	10000	1	1	0	1	0
6280	931	1	10000	1	1	0	1	0
6465	932	1	10000	1	1	0	1	0
6516	933	1	10000	1	1	0	1	0
6517	934	1	10000	1	1	0	1	0
6505	935	1	10000	1	1	0	1	0
6373	936	1	10000	1	1	0	1	0
6218	937	1	10000	1	1	0	1	0
6062	938	1	10000	1	1	0	1	0
5924	939	1	10000	1	1	0	1	0
5986	940	1	10000	1	1	0	1	0
5831	941	1	10000	1	1	0	1	0
5886	942	1	10000	1	1	0	1	0
5846	943	1	10000	1	1	0	1	0
5730	944	1	10000	1	1	0	1	0
5571	945	1	10000	1	1	0	1	0
5396	946	1	10000	1	1	0	1	0
5228	947	1	10000	1	1	0	1	0
5086	948	1	10000	1	1	0	1	0
4976	949	1	10000	1	1	0	1	0
4837	950	1	10000	1	1	0	1	0
4921	951	1	10000	1	1	0	1	0
5172	952	1	10000	1	1	0	1	0
5409	953	1	10000	1	1	0	1	0
5583	954	1	10000	1	1	0	1	0
5444	955	1	10000	1	1	0	1	0
5536	956	1	10000	1	1	0	1	0
5508	957	1	10000	1	1	0	1	0
5652	958	1	10000	1	1	0	1	0
5891	959	1	10000	1	1	0	1	0
5965	960	1	10000	1	1	0	1	0
5891	961	1	10000	1	1	0	1	0
6101	962	1	10000	1	1	0	1	0
6211	963	1	10000	1	1	0	1	0
6224	964	1	10000	1	1	0	1	0
6175	965	1	10000	1	1	0	1	0
6093	966	1	10000	1	1	0	1	0
6001	967	1	10000	1	1	0	1	0
5919	968	1	10000	1	1	0	1	0
5855	969	1	10000	1	1	0	1	0
5759	970	1	10000	1	1	0	1	0
5757	971	1	10000	1	1	0	1	0
5969	972	1	10000	1	1	0	1	0
6167	973	1	10000	1	1	0	1	0
6365	974	1	10000	1	1	0	1	0
6569	975	1	10000	1	1	0	1	0
6601	976	1	10000	1	1	0	1	0
6556	977	1	10000	1	1	0	1	0
6606	978	1	10000	1	1	0	1	0
6600	979	1	10000	1	1	0	1	0
6523	980	1	10000	1	1	0	1	0
6297	981	1	10000	1	1	0	1	0
6423	982	1	10000	1	1	0	1	0
6563	983	1	10000	1	1	0	1	0
6592	984	1	10000	1	1	0	1	0
6557	985	1	10000	1	1	0	1	0
6485	986	1	10000	1	1	0	1	0
6397	987	1	10000	1	1	0	1	0
6315	988	1	10000	1	1	0	1	0
6248	989	1	10000	1	1	0	1	0
6144	990	1	10000	1	1	0	1	0
6105	991	1	10000	1	1	0	1	0
6302	992	1	10000	1	1	0	1	0
6485	993	1	10000	1	1	0	1	0
6667	994	1	10000	1	1	0	1	0
6823	995	1	10000	1	1	0	1	0
6609	996	1	10000	1	1	0	1	0
6600	997	1	10000	1	1	0	1	0
6649	998	1	10000	1	1	0	1	0
6811	999	1	10000	1	1	0	1	0
6792	1000	1	10000	1	1	0	1	0
6559	1001	1	10000	1	1	0	1	0
1916	2	10	10000	2	1	0	2	0
1955	3	10	10000	2	1	0	2	0
2120	4	10	10000	2	1	0	2	0
2358	5	10	10000	2	1	0	2	0
2540	6	10	10000	2	1	0	2	0
2532	7	10	10000	2	1	0	2	0
2450	8	10	10000	2	1	0	2	0
2445	9	10	10000	2	1	0	2	0
2458	10	10	10000	2	1	0	2	0
2429	11	10	10000	2	1	0	2	0
2333	12	10	10000	2	1	0	2	0
2249	13	10	10000	2	1	0	2	0
2198	14	10	10000	2	1	0	2	0
2165	15	10	10000	2	1	0	2	0
2135	16	10	10000	2	1	0	2	0
2074	17	10	10000	2	1	0	2	0
2004	18	10	10000	2	1	0	2	0
1939	19	10	10000	2	1	0	2	0
1889	20	10	10000	2	1	0	2	0
1851	21	10	10000	2	1	0	2	0
1815	22	10	10000	2	1	0	2	0
1788	23	10	10000	2	1	0	2	0
1899	24	10	10000	2	1	0	2	0
2084	25	10	10000	2	1	0	2	0
2226	26	10	10000	2	1	0	2	0
2197	27	10	10000	2	1	0	2	0
2152	28	10	10000	2	1	0	2	0
2188	29	10	10000	2	1	0	2	0
2234	30	10	10000	2	1	0	2	0
2246	31	10	10000	2	1	0	2	0
2277	32	10	10000	2	1	0	2	0
2381	33	10	10000	2	1	0	2	0
2446	34	10	10000	2	1	0	2	0
2439	35	10	10000	2	1	0	2	0
2401	36	10	10000	2	1	0	2	0
2330	37	10	10000	2	1	0	2	0
2248	38	10	10000	2	1	0	2	0
2154	39	10	10000	2	1	0	2	0
2054	40	10	10000	2	1	0	2	0
1975	41	10	10000	2	1	0	2	0
1919	42	10	10000	2	1	0	2	0
1904	43	10	10000	2	1	0	2	0
2032	44	10	10000	2	1	0	2	0
2230	45	10	10000	2	1	0	2	0
2398	46	10	10000	2	1	0	2	0
2412	47	10	10000	2	1	0	2	0
2326	48	10	10000	2	1	0	2	0
2309	49	10	10000	2	1	0	2	0
2310	50	10	10000	2	1	0	2	0
2285	51	10	10000	2	1	0	2	0
2280	52	10	10000	2	1	0	2	0
2365	53	10	10000	2	1	0	2	0
2455	54	10	10000	2	1	0	2	0
2512	55	10	10000	2	1	0	2	0
2501	56	10	10000	2	1	0	2	0
2443	57	10	10000	2	1	0	2	0
2364	58	10	10000	2	1	0	2	0
2277	59	10	10000	2	1	0	2	0
2216	60	10	10000	2	1	0	2	0
2132	61	10	10000	2	1	0	2	0
2070	62	10	10000	2	1	0	2	0
2009	63	10	10000	2	1	0	2	0
2085	64	10	10000	2	1	0	2	0
2271	65	10	10000	2	1	0	2	0
2471	66	10	10000	2	1	0	2	0
2532	67	10	10000	2	1	0	2	0
2449	68	10	10000	2	1	0	2	0
2383	69	10	10000	2	1	0	2	0
2342	70	10	10000	2	1	0	2	0
2274	71	10	10000	2	1	0	2	0
2228	72	10	10000	2	1	0	2	0
2284	73	10	10000	2	1	0	2	0
2324	74	10	10000	2	1	0	2	0
2352	75	10	10000	2	1	0	2	0
2362	76	10	10000	2	1	0	2	0
2326	77	10	10000	2	1	0	2	0
2250	78	10	10000	2	1	0	2	0
2179	79	10	10000	2	1	0	2	0
2131	80	10	10000	2	1	0	2	0
2056	81	10	10000	2	1	0	2	0
1991	82	10	10000	2	1	0	2	0
1934	83	10	10000	2	1	0	2	0
2005	84	10	10000	2	1	0	2	0
2160	85	10	10000	2	1	0	2	0
2292	86	10	10000	2	1	0	2	0
2323	87	10	10000	2	1	0	2	0
2254	88	10	10000	2	1	0	2	0
2183	89	10	10000	2	1	0	2	0
2141	90	10	10000	2	1	0	2	0
2124	91	10	10000	2	1	0	2	0
2151	92	10	10000	2	1	0	2	0
2263	93	10	10000	2	1	0	2	0
2378	94	10	10000	2	1	0	2	0
2434	95	10	10000	2	1	0	2	0
2439	96	10	10000	2	1	0	2	0
2378	97	10	10000	2	1	0	2	0
2287	98	10	10000	2	1	0	2	0
2261	99	10	10000	2	1	0	2	0
2249	100	10	10000	2	1	0	2	0
2201	101	10	10000	2	1	0	2	0
2120	102	10	10000	2	1	0	2	0
2059	103	10	10000	2	1	0	2	0
2124	104	10	10000	2	1	0	2	0
2271	105	10	10000	2	1	0	2	0
2411	106	10	10000	2	1	0	2	0
2491	107	10	10000	2	1	0	2	0
2441	108	10	10000	2	1	0	2	0
2345	109	10	10000	2	1	0	2	0
2274	110	10	10000	2	1	0	2	0
2197	111	10	10000	2	1	0	2	0
2186	112	10	10000	2	1	0	2	0
2254	113	10	10000	2	1	0	2	0
2333	114	10	10000	2	1	0	2	0
2359	115	10	10000	2	1	0	2	0
2360	116	10	10000	2	1	0	2	0
2321	117	10	10000	2	1	0	2	0
2236	118	10	10000	2	1	0	2	0
2195	119	10	10000	2	1	0	2	0
2169	120	10	10000	2	1	0	2	0
2111	121	10	10000	2	1	0	2	0
2016	122	10	10000	2	1	0	2	0
1991	123	10	10000	2	1	0	2	0
2094	124	10	10000	2	1	0	2	0
2294	125	10	10000	2	1	0	2	0
2456	126	10	10000	2	1	0	2	0
2501	127	10	10000	2	1	0	2	0
2416	128	10	10000	2	1	0	2	0
2357	129	10	10000	2	1	0	2	0
2326	130	10	10000	2	1	0	2	0
2305	131	10	10000	2	1	0	2	0
2375	132	10	10000	2	1	0	2	0
2498	133	10	10000	2	1	0	2	0
2600	134	10	10000	2	1	0	2	0
2620	135	10	10000	2	1	0	2	0
2595	136	10	10000	2	1	0	2	0
2529	137	10	10000	2	1	0	2	0
2431	138	10	10000	2	1	0	2	0
2377	139	10	10000	2	1	0	2	0
2337	140	10	10000	2	1	0	2	0
2265	141	10	10000	2	1	0	2	0
2174	142	10	10000	2	1	0	2	0
2138	143	10	10000	2	1	0	2	0
2238	144	10	10000	2	1	0	2	0
2428	145	10	10000	2	1	0	2	0
2605	146	10	10000	2	1	0	2	0
2646	147	10	10000	2	1	0	2	0
2550	148	10	10000	2	1	0	2	0
2490	149	10	10000	2	1	0	2	0
2450	150	10	10000	2	1	0	2	0
2390	151	10	10000	2	1	0	2	0
2380	152	10	10000	2	1	0	2	0
2444	153	10	10000	2	1	0	2	0
2497	154	10	10000	2	1	0	2	0
2505	155	10	10000	2	1	0	2	0
2469	156	10	10000	2	1	0	2	0
2406	157	10	10000	2	1	0	2	0
2333	158	10	10000	2	1	0	2	0
2245	159	10	10000	2	1	0	2	0
2176	160	10	10000	2	1	0	2	0
2088	161	10	10000	2	1	0	2	0
2019	162	10	10000	2	1	0	2	0
1998	163	10	10000	2	1	0	2	0
2107	164	10	10000	2	1	0	2	0
2287	165	10	10000	2	1	0	2	0
2459	166	10	10000	2	1	0	2	0
2480	167	10	10000	2	1	0	2	0
2390	168	10	10000	2	1	0	2	0
2359	169	10	10000	2	1	0	2	0
2343	170	10	10000	2	1	0	2	0
2293	171	10	10000	2	1	0	2	0
2245	172	10	10000	2	1	0	2	0
2278	173	10	10000	2	1	0	2	0
2304	174	10	10000	2	1	0	2	0
2298	175	10	10000	2	1	0	2	0
2237	176	10	10000	2	1	0	2	0
2136	177	10	10000	2	1	0	2	0
2058	178	10	10000	2	1	0	2	0
1982	179	10	10000	2	1	0	2	0
1892	180	10	10000	2	1	0	2	0
1831	181	10	10000	2	1	0	2	0
1773	182	10	10000	2	1	0	2	0
1773	183	10	10000	2	1	0	2	0
1874	184	10	10000	2	1	0	2	0
2028	185	10	10000	2	1	0	2	0
2171	186	10	10000	2	1	0	2	0
2173	187	10	10000	2	1	0	2	0
2108	188	10	10000	2	1	0	2	0
2113	189	10	10000	2	1	0	2	0
2129	190	10	10000	2	1	0	2	0
2111	191	10	10000	2	1	0	2	0
2090	192	10	10000	2	1	0	2	0
2135	193	10	10000	2	1	0	2	0
2155	194	10	10000	2	1	0	2	0
2153	195	10	10000	2	1	0	2	0
2120	196	10	10000	2	1	0	2	0
2085	197	10	10000	2	1	0	2	0
2056	198	10	10000	2	1	0	2	0
1983	199	10	10000	2	1	0	2	0
1889	200	10	10000	2	1	0	2	0
1827	201	10	10000	2	1	0	2	0
1787	202	10	10000	2	1	0	2	0
1761	203	10	10000	2	1	0	2	0
1867	204	10	10000	2	1	0	2	0
2036	205	10	10000	2	1	0	2	0
2181	206	10	10000	2	1	0	2	0
2196	207	10	10000	2	1	0	2	0
2122	208	10	10000	2	1	0	2	0
2114	209	10	10000	2	1	0	2	0
2116	210	10	10000	2	1	0	2	0
2086	211	10	10000	2	1	0	2	0
2092	212	10	10000	2	1	0	2	0
2221	213	10	10000	2	1	0	2	0
2325	214	10	10000	2	1	0	2	0
2379	215	10	10000	2	1	0	2	0
2394	216	10	10000	2	1	0	2	0
2365	217	10	10000	2	1	0	2	0
2283	218	10	10000	2	1	0	2	0
2215	219	10	10000	2	1	0	2	0
2165	220	10	10000	2	1	0	2	0
2084	221	10	10000	2	1	0	2	0
2001	222	10	10000	2	1	0	2	0
2012	223	10	10000	2	1	0	2	0
2122	224	10	10000	2	1	0	2	0
2305	225	10	10000	2	1	0	2	0
2465	226	10	10000	2	1	0	2	0
2494	227	10	10000	2	1	0	2	0
2402	228	10	10000	2	1	0	2	0
2356	229	10	10000	2	1	0	2	0
2326	230	10	10000	2	1	0	2	0
2276	231	10	10000	2	1	0	2	0
2259	232	10	10000	2	1	0	2	0
2319	233	10	10000	2	1	0	2	0
2362	234	10	10000	2	1	0	2	0
2377	235	10	10000	2	1	0	2	0
2378	236	10	10000	2	1	0	2	0
2347	237	10	10000	2	1	0	2	0
2275	238	10	10000	2	1	0	2	0
2201	239	10	10000	2	1	0	2	0
2144	240	10	10000	2	1	0	2	0
2061	241	10	10000	2	1	0	2	0
2022	242	10	10000	2	1	0	2	0
1968	243	10	10000	2	1	0	2	0
1998	244	10	10000	2	1	0	2	0
2112	245	10	10000	2	1	0	2	0
2228	246	10	10000	2	1	0	2	0
2283	247	10	10000	2	1	0	2	0
2225	248	10	10000	2	1	0	2	0
2147	249	10	10000	2	1	0	2	0
2092	250	10	10000	2	1	0	2	0
2013	251	10	10000	2	1	0	2	0
1978	252	10	10000	2	1	0	2	0
2046	253	10	10000	2	1	0	2	0
2114	254	10	10000	2	1	0	2	0
2129	255	10	10000	2	1	0	2	0
2110	256	10	10000	2	1	0	2	0
2057	257	10	10000	2	1	0	2	0
1985	258	10	10000	2	1	0	2	0
1938	259	10	10000	2	1	0	2	0
1905	260	10	10000	2	1	0	2	0
1840	261	10	10000	2	1	0	2	0
1793	262	10	10000	2	1	0	2	0
1756	263	10	10000	2	1	0	2	0
1848	264	10	10000	2	1	0	2	0
2028	265	10	10000	2	1	0	2	0
2207	266	10	10000	2	1	0	2	0
2268	267	10	10000	2	1	0	2	0
2191	268	10	10000	2	1	0	2	0
2143	269	10	10000	2	1	0	2	0
2112	270	10	10000	2	1	0	2	0
2099	271	10	10000	2	1	0	2	0
2136	272	10	10000	2	1	0	2	0
2224	273	10	10000	2	1	0	2	0
2313	274	10	10000	2	1	0	2	0
2351	275	10	10000	2	1	0	2	0
2329	276	10	10000	2	1	0	2	0
2233	277	10	10000	2	1	0	2	0
2144	278	10	10000	2	1	0	2	0
2092	279	10	10000	2	1	0	2	0
2051	280	10	10000	2	1	0	2	0
1977	281	10	10000	2	1	0	2	0
1893	282	10	10000	2	1	0	2	0
1910	283	10	10000	2	1	0	2	0
2035	284	10	10000	2	1	0	2	0
2209	285	10	10000	2	1	0	2	0
2364	286	10	10000	2	1	0	2	0
2391	287	10	10000	2	1	0	2	0
2304	288	10	10000	2	1	0	2	0
2266	289	10	10000	2	1	0	2	0
2244	290	10	10000	2	1	0	2	0
2191	291	10	10000	2	1	0	2	0
2183	292	10	10000	2	1	0	2	0
2256	293	10	10000	2	1	0	2	0
2321	294	10	10000	2	1	0	2	0
2353	295	10	10000	2	1	0	2	0
2369	296	10	10000	2	1	0	2	0
2363	297	10	10000	2	1	0	2	0
2294	298	10	10000	2	1	0	2	0
2221	299	10	10000	2	1	0	2	0
2163	300	10	10000	2	1	0	2	0
2079	301	10	10000	2	1	0	2	0
2046	302	10	10000	2	1	0	2	0
1994	303	10	10000	2	1	0	2	0
2020	304	10	10000	2	1	0	2	0
2166	305	10	10000	2	1	0	2	0
2333	306	10	10000	2	1	0	2	0
2394	307	10	10000	2	1	0	2	0
2319	308	10	10000	2	1	0	2	0
2251	309	10	10000	2	1	0	2	0
2203	310	10	10000	2	1	0	2	0
2152	311	10	10000	2	1	0	2	0
2182	312	10	10000	2	1	0	2	0
2288	313	10	10000	2	1	0	2	0
2382	314	10	10000	2	1	0	2	0
2461	315	10	10000	2	1	0	2	0
2510	316	10	10000	2	1	0	2	0
2484	317	10	10000	2	1	0	2	0
2394	318	10	10000	2	1	0	2	0
2369	319	10	10000	2	1	0	2	0
2349	320	10	10000	2	1	0	2	0
2288	321	10	10000	2	1	0	2	0
2194	322	10	10000	2	1	0	2	0
2170	323	10	10000	2	1	0	2	0
2260	324	10	10000	2	1	0	2	0
2412	325	10	10000	2	1	0	2	0
2566	326	10	10000	2	1	0	2	0
2621	327	10	10000	2	1	0	2	0
2535	328	10	10000	2	1	0	2	0
2457	329	10	10000	2	1	0	2	0
2397	330	10	10000	2	1	0	2	0
2327	331	10	10000	2	1	0	2	0
2312	332	10	10000	2	1	0	2	0
2356	333	10	10000	2	1	0	2	0
2375	334	10	10000	2	1	0	2	0
2349	335	10	10000	2	1	0	2	0
2298	336	10	10000	2	1	0	2	0
2226	337	10	10000	2	1	0	2	0
2140	338	10	10000	2	1	0	2	0
2063	339	10	10000	2	1	0	2	0
2002	340	10	10000	2	1	0	2	0
1921	341	10	10000	2	1	0	2	0
1857	342	10	10000	2	1	0	2	0
1858	343	10	10000	2	1	0	2	0
1992	344	10	10000	2	1	0	2	0
2199	345	10	10000	2	1	0	2	0
2346	346	10	10000	2	1	0	2	0
2349	347	10	10000	2	1	0	2	0
2267	348	10	10000	2	1	0	2	0
2248	349	10	10000	2	1	0	2	0
2241	350	10	10000	2	1	0	2	0
2205	351	10	10000	2	1	0	2	0
2231	352	10	10000	2	1	0	2	0
2318	353	10	10000	2	1	0	2	0
2363	354	10	10000	2	1	0	2	0
2374	355	10	10000	2	1	0	2	0
2350	356	10	10000	2	1	0	2	0
2296	357	10	10000	2	1	0	2	0
2227	358	10	10000	2	1	0	2	0
2137	359	10	10000	2	1	0	2	0
2062	360	10	10000	2	1	0	2	0
1980	361	10	10000	2	1	0	2	0
1944	362	10	10000	2	1	0	2	0
1891	363	10	10000	2	1	0	2	0
1950	364	10	10000	2	1	0	2	0
2092	365	10	10000	2	1	0	2	0
2231	366	10	10000	2	1	0	2	0
2258	367	10	10000	2	1	0	2	0
2177	368	10	10000	2	1	0	2	0
2137	369	10	10000	2	1	0	2	0
2111	370	10	10000	2	1	0	2	0
2067	371	10	10000	2	1	0	2	0
2073	372	10	10000	2	1	0	2	0
2169	373	10	10000	2	1	0	2	0
2270	374	10	10000	2	1	0	2	0
2360	375	10	10000	2	1	0	2	0
2401	376	10	10000	2	1	0	2	0
2395	377	10	10000	2	1	0	2	0
2308	378	10	10000	2	1	0	2	0
2267	379	10	10000	2	1	0	2	0
2233	380	10	10000	2	1	0	2	0
2161	381	10	10000	2	1	0	2	0
2106	382	10	10000	2	1	0	2	0
2045	383	10	10000	2	1	0	2	0
2086	384	10	10000	2	1	0	2	0
2214	385	10	10000	2	1	0	2	0
2360	386	10	10000	2	1	0	2	0
2408	387	10	10000	2	1	0	2	0
2348	388	10	10000	2	1	0	2	0
2260	389	10	10000	2	1	0	2	0
2197	390	10	10000	2	1	0	2	0
2172	391	10	10000	2	1	0	2	0
2224	392	10	10000	2	1	0	2	0
2338	393	10	10000	2	1	0	2	0
2387	394	10	10000	2	1	0	2	0
2365	395	10	10000	2	1	0	2	0
2301	396	10	10000	2	1	0	2	0
2211	397	10	10000	2	1	0	2	0
2124	398	10	10000	2	1	0	2	0
2095	399	10	10000	2	1	0	2	0
2076	400	10	10000	2	1	0	2	0
2015	401	10	10000	2	1	0	2	0
1926	402	10	10000	2	1	0	2	0
1907	403	10	10000	2	1	0	2	0
2015	404	10	10000	2	1	0	2	0
2183	405	10	10000	2	1	0	2	0
2341	406	10	10000	2	1	0	2	0
2385	407	10	10000	2	1	0	2	0
2303	408	10	10000	2	1	0	2	0
2246	409	10	10000	2	1	0	2	0
2208	410	10	10000	2	1	0	2	0
2183	411	10	10000	2	1	0	2	0
2220	412	10	10000	2	1	0	2	0
2325	413	10	10000	2	1	0	2	0
2406	414	10	10000	2	1	0	2	0
2472	415	10	10000	2	1	0	2	0
2513	416	10	10000	2	1	0	2	0
2495	417	10	10000	2	1	0	2	0
2403	418	10	10000	2	1	0	2	0
2366	419	10	10000	2	1	0	2	0
2336	420	10	10000	2	1	0	2	0
2262	421	10	10000	2	1	0	2	0
2204	422	10	10000	2	1	0	2	0
2152	423	10	10000	2	1	0	2	0
2166	424	10	10000	2	1	0	2	0
2279	425	10	10000	2	1	0	2	0
2383	426	10	10000	2	1	0	2	0
2423	427	10	10000	2	1	0	2	0
2378	428	10	10000	2	1	0	2	0
2278	429	10	10000	2	1	0	2	0
2198	430	10	10000	2	1	0	2	0
2165	431	10	10000	2	1	0	2	0
2198	432	10	10000	2	1	0	2	0
2306	433	10	10000	2	1	0	2	0
2389	434	10	10000	2	1	0	2	0
2442	435	10	10000	2	1	0	2	0
2443	436	10	10000	2	1	0	2	0
2381	437	10	10000	2	1	0	2	0
2308	438	10	10000	2	1	0	2	0
2303	439	10	10000	2	1	0	2	0
2299	440	10	10000	2	1	0	2	0
2248	441	10	10000	2	1	0	2	0
2150	442	10	10000	2	1	0	2	0
2122	443	10	10000	2	1	0	2	0
2230	444	10	10000	2	1	0	2	0
2402	445	10	10000	2	1	0	2	0
2534	446	10	10000	2	1	0	2	0
2571	447	10	10000	2	1	0	2	0
2489	448	10	10000	2	1	0	2	0
2407	449	10	10000	2	1	0	2	0
2343	450	10	10000	2	1	0	2	0
2291	451	10	10000	2	1	0	2	0
2297	452	10	10000	2	1	0	2	0
2401	453	10	10000	2	1	0	2	0
2491	454	10	10000	2	1	0	2	0
2526	455	10	10000	2	1	0	2	0
2509	456	10	10000	2	1	0	2	0
2448	457	10	10000	2	1	0	2	0
2354	458	10	10000	2	1	0	2	0
2310	459	10	10000	2	1	0	2	0
2272	460	10	10000	2	1	0	2	0
2193	461	10	10000	2	1	0	2	0
2112	462	10	10000	2	1	0	2	0
2076	463	10	10000	2	1	0	2	0
2179	464	10	10000	2	1	0	2	0
2343	465	10	10000	2	1	0	2	0
2470	466	10	10000	2	1	0	2	0
2498	467	10	10000	2	1	0	2	0
2408	468	10	10000	2	1	0	2	0
2350	469	10	10000	2	1	0	2	0
2309	470	10	10000	2	1	0	2	0
2267	471	10	10000	2	1	0	2	0
2285	472	10	10000	2	1	0	2	0
2367	473	10	10000	2	1	0	2	0
2424	474	10	10000	2	1	0	2	0
2460	475	10	10000	2	1	0	2	0
2469	476	10	10000	2	1	0	2	0
2429	477	10	10000	2	1	0	2	0
2338	478	10	10000	2	1	0	2	0
2280	479	10	10000	2	1	0	2	0
2231	480	10	10000	2	1	0	2	0
2146	481	10	10000	2	1	0	2	0
2092	482	10	10000	2	1	0	2	0
2055	483	10	10000	2	1	0	2	0
2179	484	10	10000	2	1	0	2	0
2407	485	10	10000	2	1	0	2	0
2588	486	10	10000	2	1	0	2	0
2597	487	10	10000	2	1	0	2	0
2499	488	10	10000	2	1	0	2	0
2456	489	10	10000	2	1	0	2	0
2423	490	10	10000	2	1	0	2	0
2354	491	10	10000	2	1	0	2	0
2295	492	10	10000	2	1	0	2	0
2316	493	10	10000	2	1	0	2	0
2342	494	10	10000	2	1	0	2	0
2341	495	10	10000	2	1	0	2	0
2287	496	10	10000	2	1	0	2	0
2207	497	10	10000	2	1	0	2	0
2131	498	10	10000	2	1	0	2	0
2041	499	10	10000	2	1	0	2	0
1946	500	10	10000	2	1	0	2	0
1888	501	10	10000	2	1	0	2	0
1869	501	10	10000	2	1	0	2	1
1822	502	10	10000	2	1	0	2	1
1885	504	10	10000	2	1	0	2	1
2015	505	10	10000	2	1	0	2	1
2129	506	10	10000	2	1	0	2	1
2140	507	10	10000	2	1	0	2	1
2065	508	10	10000	2	1	0	2	1
2047	509	10	10000	2	1	0	2	1
2036	510	10	10000	2	1	0	2	1
2000	511	10	10000	2	1	0	2	1
2000	512	10	10000	2	1	0	2	1
2054	513	10	10000	2	1	0	2	1
2104	514	10	10000	2	1	0	2	1
2127	515	10	10000	2	1	0	2	1
2134	516	10	10000	2	1	0	2	1
2125	517	10	10000	2	1	0	2	1
2068	518	10	10000	2	1	0	2	1
1995	519	10	10000	2	1	0	2	1
1936	520	10	10000	2	1	0	2	1
1858	521	10	10000	2	1	0	2	1
1801	522	10	10000	2	1	0	2	1
1794	523	10	10000	2	1	0	2	1
1930	524	10	10000	2	1	0	2	1
2145	525	10	10000	2	1	0	2	1
2310	526	10	10000	2	1	0	2	1
2311	527	10	10000	2	1	0	2	1
2231	528	10	10000	2	1	0	2	1
2211	529	10	10000	2	1	0	2	1
2198	530	10	10000	2	1	0	2	1
2145	531	10	10000	2	1	0	2	1
2123	532	10	10000	2	1	0	2	1
2169	533	10	10000	2	1	0	2	1
2222	534	10	10000	2	1	0	2	1
2236	535	10	10000	2	1	0	2	1
2219	536	10	10000	2	1	0	2	1
2188	537	10	10000	2	1	0	2	1
2130	538	10	10000	2	1	0	2	1
2044	539	10	10000	2	1	0	2	1
1970	540	10	10000	2	1	0	2	1
1894	541	10	10000	2	1	0	2	1
1864	542	10	10000	2	1	0	2	1
1823	543	10	10000	2	1	0	2	1
1896	544	10	10000	2	1	0	2	1
2028	545	10	10000	2	1	0	2	1
2140	546	10	10000	2	1	0	2	1
2163	547	10	10000	2	1	0	2	1
2086	548	10	10000	2	1	0	2	1
2048	549	10	10000	2	1	0	2	1
2022	550	10	10000	2	1	0	2	1
1981	551	10	10000	2	1	0	2	1
1993	552	10	10000	2	1	0	2	0
2076	553	10	10000	2	1	0	2	0
2189	554	10	10000	2	1	0	2	0
2254	555	10	10000	2	1	0	2	0
2261	556	10	10000	2	1	0	2	0
2228	557	10	10000	2	1	0	2	0
2142	558	10	10000	2	1	0	2	0
2104	559	10	10000	2	1	0	2	0
2071	560	10	10000	2	1	0	2	0
2000	561	10	10000	2	1	0	2	0
1935	562	10	10000	2	1	0	2	0
1910	563	10	10000	2	1	0	2	0
2069	564	10	10000	2	1	0	2	0
2318	565	10	10000	2	1	0	2	0
2502	566	10	10000	2	1	0	2	0
2514	567	10	10000	2	1	0	2	0
2420	568	10	10000	2	1	0	2	0
2376	569	10	10000	2	1	0	2	0
2341	570	10	10000	2	1	0	2	0
2285	571	10	10000	2	1	0	2	0
2253	572	10	10000	2	1	0	2	0
2311	573	10	10000	2	1	0	2	0
2360	574	10	10000	2	1	0	2	0
2374	575	10	10000	2	1	0	2	0
2344	576	10	10000	2	1	0	2	0
2287	577	10	10000	2	1	0	2	0
2198	578	10	10000	2	1	0	2	0
2120	579	10	10000	2	1	0	2	0
2052	580	10	10000	2	1	0	2	0
1967	581	10	10000	2	1	0	2	0
1899	582	10	10000	2	1	0	2	0
1949	583	10	10000	2	1	0	2	0
2140	584	10	10000	2	1	0	2	0
2366	585	10	10000	2	1	0	2	0
2510	586	10	10000	2	1	0	2	0
2478	587	10	10000	2	1	0	2	0
2404	588	10	10000	2	1	0	2	0
2398	589	10	10000	2	1	0	2	0
2397	590	10	10000	2	1	0	2	0
2343	591	10	10000	2	1	0	2	0
2261	592	10	10000	2	1	0	2	0
2183	593	10	10000	2	1	0	2	0
2084	594	10	10000	2	1	0	2	0
2010	595	10	10000	2	1	0	2	0
2057	596	10	10000	2	1	0	2	0
2397	597	10	10000	2	1	0	2	0
2773	598	10	10000	2	1	0	2	0
3144	599	10	10000	2	1	0	2	0
3428	600	10	10000	2	1	0	2	0
3637	601	10	10000	2	1	0	2	0
3778	602	10	10000	2	1	0	2	0
3867	603	10	10000	2	1	0	2	0
3920	604	10	10000	2	1	0	2	0
3916	605	10	10000	2	1	0	2	0
3898	606	10	10000	2	1	0	2	0
4172	607	10	10000	2	1	0	2	0
4380	608	10	10000	2	1	0	2	0
4513	609	10	10000	2	1	0	2	0
4590	610	10	10000	2	1	0	2	0
4617	611	10	10000	2	1	0	2	0
4603	612	10	10000	2	1	0	2	0
4550	613	10	10000	2	1	0	2	0
4421	614	10	10000	2	1	0	2	0
4461	615	10	10000	2	1	0	2	0
4352	616	10	10000	2	1	0	2	0
4237	617	10	10000	2	1	0	2	0
4072	618	10	10000	2	1	0	2	0
3914	619	10	10000	2	1	0	2	0
3774	620	10	10000	2	1	0	2	0
3610	621	10	10000	2	1	0	2	0
3507	622	10	10000	2	1	0	2	0
3512	623	10	10000	2	1	0	2	0
3630	624	10	10000	2	1	0	2	0
3791	625	10	10000	2	1	0	2	0
3900	626	10	10000	2	1	0	2	0
3958	627	10	10000	2	1	0	2	0
3974	628	10	10000	2	1	0	2	0
3954	629	10	10000	2	1	0	2	0
3901	630	10	10000	2	1	0	2	0
3824	631	10	10000	2	1	0	2	0
3726	632	10	10000	2	1	0	2	0
3610	633	10	10000	2	1	0	2	0
3478	634	10	10000	2	1	0	2	0
3336	635	10	10000	2	1	0	2	0
3310	636	10	10000	2	1	0	2	0
3403	637	10	10000	2	1	0	2	0
3562	638	10	10000	2	1	0	2	0
3738	639	10	10000	2	1	0	2	0
3880	640	10	10000	2	1	0	2	0
3949	641	10	10000	2	1	0	2	0
3912	642	10	10000	2	1	0	2	0
3773	643	10	10000	2	1	0	2	0
3611	644	10	10000	2	1	0	2	0
3531	645	10	10000	2	1	0	2	0
3512	646	10	10000	2	1	0	2	0
3481	647	10	10000	2	1	0	2	0
3427	648	10	10000	2	1	0	2	0
3354	649	10	10000	2	1	0	2	0
3266	650	10	10000	2	1	0	2	0
3165	651	10	10000	2	1	0	2	0
3057	652	10	10000	2	1	0	2	0
2938	653	10	10000	2	1	0	2	0
2815	654	10	10000	2	1	0	2	0
2705	655	10	10000	2	1	0	2	0
2714	656	10	10000	2	1	0	2	0
2830	657	10	10000	2	1	0	2	0
3001	658	10	10000	2	1	0	2	0
3181	659	10	10000	2	1	0	2	0
3324	660	10	10000	2	1	0	2	0
3393	661	10	10000	2	1	0	2	0
3358	662	10	10000	2	1	0	2	0
3230	663	10	10000	2	1	0	2	0
3185	664	10	10000	2	1	0	2	0
3201	665	10	10000	2	1	0	2	0
3193	666	10	10000	2	1	0	2	0
3091	667	10	10000	2	1	0	2	0
3298	668	10	10000	2	1	0	2	0
3586	669	10	10000	2	1	0	2	0
3774	670	10	10000	2	1	0	2	0
3929	671	10	10000	2	1	0	2	0
4097	672	10	10000	2	1	0	2	0
4300	673	10	10000	2	1	0	2	0
4545	674	10	10000	2	1	0	2	0
4605	675	10	10000	2	1	0	2	0
4876	676	10	10000	2	1	0	2	0
5153	677	10	10000	2	1	0	2	0
5326	678	10	10000	2	1	0	2	0
5168	679	10	10000	2	1	0	2	0
4961	680	10	10000	2	1	0	2	0
4803	681	10	10000	2	1	0	2	0
4702	682	10	10000	2	1	0	2	0
4589	683	10	10000	2	1	0	2	0
4549	684	10	10000	2	1	0	2	0
4520	685	10	10000	2	1	0	2	0
4713	686	10	10000	2	1	0	2	0
4803	687	10	10000	2	1	0	2	0
4734	688	10	10000	2	1	0	2	0
4580	689	10	10000	2	1	0	2	0
4395	690	10	10000	2	1	0	2	0
4231	691	10	10000	2	1	0	2	0
4123	692	10	10000	2	1	0	2	0
4094	693	10	10000	2	1	0	2	0
4153	694	10	10000	2	1	0	2	0
4182	695	10	10000	2	1	0	2	0
4475	696	10	10000	2	1	0	2	0
4744	697	10	10000	2	1	0	2	0
5019	698	10	10000	2	1	0	2	0
5275	699	10	10000	2	1	0	2	0
5455	700	10	10000	2	1	0	2	0
5571	701	10	10000	2	1	0	2	0
5628	702	10	10000	2	1	0	2	0
5639	703	10	10000	2	1	0	2	0
5606	704	10	10000	2	1	0	2	0
5500	705	10	10000	2	1	0	2	0
5545	706	10	10000	2	1	0	2	0
5660	707	10	10000	2	1	0	2	0
5613	708	10	10000	2	1	0	2	0
5479	709	10	10000	2	1	0	2	0
5312	710	10	10000	2	1	0	2	0
5261	711	10	10000	2	1	0	2	0
5504	712	10	10000	2	1	0	2	0
5754	713	10	10000	2	1	0	2	0
5940	714	10	10000	2	1	0	2	0
6037	715	10	10000	2	1	0	2	0
5976	716	10	10000	2	1	0	2	0
5774	717	10	10000	2	1	0	2	0
5519	718	10	10000	2	1	0	2	0
5323	719	10	10000	2	1	0	2	0
5142	720	10	10000	2	1	0	2	0
4936	721	10	10000	2	1	0	2	0
4727	722	10	10000	2	1	0	2	0
4613	723	10	10000	2	1	0	2	0
4598	724	10	10000	2	1	0	2	0
4622	725	10	10000	2	1	0	2	0
4611	726	10	10000	2	1	0	2	0
4564	727	10	10000	2	1	0	2	0
4490	728	10	10000	2	1	0	2	0
4391	729	10	10000	2	1	0	2	0
4272	730	10	10000	2	1	0	2	0
4138	731	10	10000	2	1	0	2	0
3992	732	10	10000	2	1	0	2	0
3833	733	10	10000	2	1	0	2	0
3668	734	10	10000	2	1	0	2	0
3512	735	10	10000	2	1	0	2	0
3462	736	10	10000	2	1	0	2	0
3511	737	10	10000	2	1	0	2	0
3618	738	10	10000	2	1	0	2	0
3739	739	10	10000	2	1	0	2	0
3832	740	10	10000	2	1	0	2	0
3866	741	10	10000	2	1	0	2	0
3816	742	10	10000	2	1	0	2	0
3674	743	10	10000	2	1	0	2	0
3566	744	10	10000	2	1	0	2	0
3516	745	10	10000	2	1	0	2	0
3451	746	10	10000	2	1	0	2	0
3369	747	10	10000	2	1	0	2	0
3275	748	10	10000	2	1	0	2	0
3170	749	10	10000	2	1	0	2	0
3056	750	10	10000	2	1	0	2	0
2938	751	10	10000	2	1	0	2	0
2816	752	10	10000	2	1	0	2	0
2690	753	10	10000	2	1	0	2	0
2563	754	10	10000	2	1	0	2	0
2464	755	10	10000	2	1	0	2	0
2461	756	10	10000	2	1	0	2	0
2543	757	10	10000	2	1	0	2	0
2673	758	10	10000	2	1	0	2	0
2811	759	10	10000	2	1	0	2	0
2922	760	10	10000	2	1	0	2	0
2973	761	10	10000	2	1	0	2	0
2943	762	10	10000	2	1	0	2	0
2832	763	10	10000	2	1	0	2	0
2775	764	10	10000	2	1	0	2	0
2769	765	10	10000	2	1	0	2	0
2748	766	10	10000	2	1	0	2	0
2711	767	10	10000	2	1	0	2	0
2661	768	10	10000	2	1	0	2	0
2600	769	10	10000	2	1	0	2	0
2531	770	10	10000	2	1	0	2	0
2454	771	10	10000	2	1	0	2	0
2374	772	10	10000	2	1	0	2	0
2286	773	10	10000	2	1	0	2	0
2197	774	10	10000	2	1	0	2	0
2105	775	10	10000	2	1	0	2	0
2088	776	10	10000	2	1	0	2	0
2155	777	10	10000	2	1	0	2	0
2263	778	10	10000	2	1	0	2	0
2382	779	10	10000	2	1	0	2	0
2476	780	10	10000	2	1	0	2	0
2516	781	10	10000	2	1	0	2	0
2482	782	10	10000	2	1	0	2	0
2386	783	10	10000	2	1	0	2	0
2362	784	10	10000	2	1	0	2	0
2382	785	10	10000	2	1	0	2	0
2386	786	10	10000	2	1	0	2	0
2373	787	10	10000	2	1	0	2	0
2348	788	10	10000	2	1	0	2	0
2309	789	10	10000	2	1	0	2	0
2263	790	10	10000	2	1	0	2	0
2209	791	10	10000	2	1	0	2	0
2150	792	10	10000	2	1	0	2	0
2083	793	10	10000	2	1	0	2	0
2013	794	10	10000	2	1	0	2	0
1932	795	10	10000	2	1	0	2	0
1906	796	10	10000	2	1	0	2	0
1956	797	10	10000	2	1	0	2	0
2048	798	10	10000	2	1	0	2	0
2151	799	10	10000	2	1	0	2	0
2230	800	10	10000	2	1	0	2	0
2261	801	10	10000	2	1	0	2	0
2224	802	10	10000	2	1	0	2	0
2139	803	10	10000	2	1	0	2	0
2128	804	10	10000	2	1	0	2	0
2156	805	10	10000	2	1	0	2	0
2168	806	10	10000	2	1	0	2	0
2163	807	10	10000	2	1	0	2	0
2147	808	10	10000	2	1	0	2	0
2119	809	10	10000	2	1	0	2	0
2081	810	10	10000	2	1	0	2	0
2037	811	10	10000	2	1	0	2	0
1988	812	10	10000	2	1	0	2	0
1931	813	10	10000	2	1	0	2	0
1870	814	10	10000	2	1	0	2	0
1798	815	10	10000	2	1	0	2	0
1768	816	10	10000	2	1	0	2	0
1809	817	10	10000	2	1	0	2	0
1890	818	10	10000	2	1	0	2	0
1981	819	10	10000	2	1	0	2	0
2053	820	10	10000	2	1	0	2	0
2078	821	10	10000	2	1	0	2	0
2042	822	10	10000	2	1	0	2	0
1966	823	10	10000	2	1	0	2	0
1959	824	10	10000	2	1	0	2	0
1988	825	10	10000	2	1	0	2	0
2001	826	10	10000	2	1	0	2	0
2000	827	10	10000	2	1	0	2	0
1985	828	10	10000	2	1	0	2	0
1954	829	10	10000	2	1	0	2	0
1922	830	10	10000	2	1	0	2	0
1884	831	10	10000	2	1	0	2	0
1840	832	10	10000	2	1	0	2	0
1791	833	10	10000	2	1	0	2	0
1737	834	10	10000	2	1	0	2	0
1672	835	10	10000	2	1	0	2	0
1643	836	10	10000	2	1	0	2	0
1682	837	10	10000	2	1	0	2	0
1758	838	10	10000	2	1	0	2	0
1845	839	10	10000	2	1	0	2	0
1911	840	10	10000	2	1	0	2	0
1935	841	10	10000	2	1	0	2	0
1899	842	10	10000	2	1	0	2	0
1829	843	10	10000	2	1	0	2	0
1828	844	10	10000	2	1	0	2	0
1857	845	10	10000	2	1	0	2	0
1872	846	10	10000	2	1	0	2	0
1869	847	10	10000	2	1	0	2	0
1815	848	10	10000	2	1	0	2	0
1740	849	10	10000	2	1	0	2	0
1706	850	10	10000	2	1	0	2	0
1689	851	10	10000	2	1	0	2	0
1668	852	10	10000	2	1	0	2	0
1636	853	10	10000	2	1	0	2	0
1599	854	10	10000	2	1	0	2	0
1549	855	10	10000	2	1	0	2	0
1514	856	10	10000	2	1	0	2	0
1547	857	10	10000	2	1	0	2	0
1617	858	10	10000	2	1	0	2	0
1695	859	10	10000	2	1	0	2	0
1756	860	10	10000	2	1	0	2	0
1776	861	10	10000	2	1	0	2	0
1738	862	10	10000	2	1	0	2	0
1677	863	10	10000	2	1	0	2	0
1685	864	10	10000	2	1	0	2	0
1716	865	10	10000	2	1	0	2	0
1670	866	10	10000	2	1	0	2	0
1688	867	10	10000	2	1	0	2	0
1798	868	10	10000	2	1	0	2	0
1899	869	10	10000	2	1	0	2	0
1903	870	10	10000	2	1	0	2	0
1842	871	10	10000	2	1	0	2	0
1875	872	10	10000	2	1	0	2	0
1954	873	10	10000	2	1	0	2	0
2012	874	10	10000	2	1	0	2	0
2037	875	10	10000	2	1	0	2	0
1985	876	10	10000	2	1	0	2	0
1918	877	10	10000	2	1	0	2	0
1901	878	10	10000	2	1	0	2	0
1903	879	10	10000	2	1	0	2	0
1898	880	10	10000	2	1	0	2	0
1860	881	10	10000	2	1	0	2	0
1784	882	10	10000	2	1	0	2	0
1760	883	10	10000	2	1	0	2	0
1737	884	10	10000	2	1	0	2	0
1840	885	10	10000	2	1	0	2	0
2080	886	10	10000	2	1	0	2	0
2341	887	10	10000	2	1	0	2	0
2615	888	10	10000	2	1	0	2	0
2845	889	10	10000	2	1	0	2	0
2972	890	10	10000	2	1	0	2	0
2946	891	10	10000	2	1	0	2	0
2857	892	10	10000	2	1	0	2	0
2940	893	10	10000	2	1	0	2	0
3116	894	10	10000	2	1	0	2	0
3334	895	10	10000	2	1	0	2	0
3458	896	10	10000	2	1	0	2	0
3473	897	10	10000	2	1	0	2	0
3415	898	10	10000	2	1	0	2	0
3322	899	10	10000	2	1	0	2	0
3225	900	10	10000	2	1	0	2	0
3151	901	10	10000	2	1	0	2	0
3118	902	10	10000	2	1	0	2	0
3142	903	10	10000	2	1	0	2	0
3179	904	10	10000	2	1	0	2	0
3088	905	10	10000	2	1	0	2	0
3100	906	10	10000	2	1	0	2	0
3189	907	10	10000	2	1	0	2	0
3332	908	10	10000	2	1	0	2	0
3442	909	10	10000	2	1	0	2	0
3453	910	10	10000	2	1	0	2	0
3334	911	10	10000	2	1	0	2	0
3281	912	10	10000	2	1	0	2	0
3388	913	10	10000	2	1	0	2	0
3525	914	10	10000	2	1	0	2	0
3670	915	10	10000	2	1	0	2	0
3703	916	10	10000	2	1	0	2	0
3635	917	10	10000	2	1	0	2	0
3503	918	10	10000	2	1	0	2	0
3345	919	10	10000	2	1	0	2	0
3192	920	10	10000	2	1	0	2	0
3070	921	10	10000	2	1	0	2	0
3000	922	10	10000	2	1	0	2	0
2995	923	10	10000	2	1	0	2	0
2975	924	10	10000	2	1	0	2	0
2929	925	10	10000	2	1	0	2	0
3022	926	10	10000	2	1	0	2	0
3159	927	10	10000	2	1	0	2	0
3314	928	10	10000	2	1	0	2	0
3445	929	10	10000	2	1	0	2	0
3489	930	10	10000	2	1	0	2	0
3417	931	10	10000	2	1	0	2	0
3317	932	10	10000	2	1	0	2	0
3367	933	10	10000	2	1	0	2	0
3496	934	10	10000	2	1	0	2	0
3640	935	10	10000	2	1	0	2	0
3681	936	10	10000	2	1	0	2	0
3616	937	10	10000	2	1	0	2	0
3486	938	10	10000	2	1	0	2	0
3329	939	10	10000	2	1	0	2	0
3178	940	10	10000	2	1	0	2	0
3061	941	10	10000	2	1	0	2	0
2997	942	10	10000	2	1	0	2	0
2963	943	10	10000	2	1	0	2	0
2876	944	10	10000	2	1	0	2	0
2966	945	10	10000	2	1	0	2	0
3149	946	10	10000	2	1	0	2	0
3403	947	10	10000	2	1	0	2	0
3672	948	10	10000	2	1	0	2	0
3863	949	10	10000	2	1	0	2	0
3986	950	10	10000	2	1	0	2	0
4045	951	10	10000	2	1	0	2	0
3944	952	10	10000	2	1	0	2	0
3868	953	10	10000	2	1	0	2	0
3889	954	10	10000	2	1	0	2	0
3950	955	10	10000	2	1	0	2	0
4054	956	10	10000	2	1	0	2	0
4151	957	10	10000	2	1	0	2	0
4177	958	10	10000	2	1	0	2	0
4147	959	10	10000	2	1	0	2	0
4099	960	10	10000	2	1	0	2	0
4068	961	10	10000	2	1	0	2	0
4074	962	10	10000	2	1	0	2	0
4019	963	10	10000	2	1	0	2	0
3919	964	10	10000	2	1	0	2	0
4007	965	10	10000	2	1	0	2	0
4167	966	10	10000	2	1	0	2	0
4322	967	10	10000	2	1	0	2	0
4414	968	10	10000	2	1	0	2	0
4426	969	10	10000	2	1	0	2	0
4398	970	10	10000	2	1	0	2	0
4326	971	10	10000	2	1	0	2	0
4177	972	10	10000	2	1	0	2	0
4178	973	10	10000	2	1	0	2	0
4270	974	10	10000	2	1	0	2	0
4442	975	10	10000	2	1	0	2	0
4638	976	10	10000	2	1	0	2	0
4707	977	10	10000	2	1	0	2	0
4675	978	10	10000	2	1	0	2	0
4592	979	10	10000	2	1	0	2	0
4497	980	10	10000	2	1	0	2	0
4426	981	10	10000	2	1	0	2	0
4402	982	10	10000	2	1	0	2	0
4401	983	10	10000	2	1	0	2	0
4259	984	10	10000	2	1	0	2	0
4236	985	10	10000	2	1	0	2	0
4315	986	10	10000	2	1	0	2	0
4439	987	10	10000	2	1	0	2	0
4561	988	10	10000	2	1	0	2	0
4616	989	10	10000	2	1	0	2	0
4626	990	10	10000	2	1	0	2	0
4604	991	10	10000	2	1	0	2	0
4471	992	10	10000	2	1	0	2	0
4291	993	10	10000	2	1	0	2	0
4173	994	10	10000	2	1	0	2	0
4133	995	10	10000	2	1	0	2	0
4178	996	10	10000	2	1	0	2	0
4267	997	10	10000	2	1	0	2	0
4283	998	10	10000	2	1	0	2	0
4236	999	10	10000	2	1	0	2	0
4175	1000	10	10000	2	1	0	2	0
4135	1001	10	10000	2	1	0	2	0
2581	2	0	10000	3	1	0	3	0
2561	3	0	10000	3	1	0	3	0
2507	4	0	10000	3	1	0	3	0
2486	5	0	10000	3	1	0	3	0
2559	6	0	10000	3	1	0	3	0
2635	7	0	10000	3	1	0	3	0
2696	8	0	10000	3	1	0	3	0
2727	9	0	10000	3	1	0	3	0
2728	10	0	10000	3	1	0	3	0
2641	11	0	10000	3	1	0	3	0
2557	12	0	10000	3	1	0	3	0
2490	13	0	10000	3	1	0	3	0
2394	14	0	10000	3	1	0	3	0
2308	15	0	10000	3	1	0	3	0
2319	16	0	10000	3	1	0	3	0
2489	17	0	10000	3	1	0	3	0
2730	18	0	10000	3	1	0	3	0
2903	19	0	10000	3	1	0	3	0
2890	20	0	10000	3	1	0	3	0
2783	21	0	10000	3	1	0	3	0
2742	22	0	10000	3	1	0	3	0
2716	23	0	10000	3	1	0	3	0
2654	24	0	10000	3	1	0	3	0
2619	25	0	10000	3	1	0	3	0
2681	26	0	10000	3	1	0	3	0
2748	27	0	10000	3	1	0	3	0
2795	28	0	10000	3	1	0	3	0
2802	29	0	10000	3	1	0	3	0
2799	30	0	10000	3	1	0	3	0
2711	31	0	10000	3	1	0	3	0
2619	32	0	10000	3	1	0	3	0
2543	33	0	10000	3	1	0	3	0
2441	34	0	10000	3	1	0	3	0
2360	35	0	10000	3	1	0	3	0
2334	36	0	10000	3	1	0	3	0
2467	37	0	10000	3	1	0	3	0
2665	38	0	10000	3	1	0	3	0
2826	39	0	10000	3	1	0	3	0
2828	40	0	10000	3	1	0	3	0
2720	41	0	10000	3	1	0	3	0
2672	42	0	10000	3	1	0	3	0
2637	43	0	10000	3	1	0	3	0
2565	44	0	10000	3	1	0	3	0
2492	45	0	10000	3	1	0	3	0
2522	46	0	10000	3	1	0	3	0
2583	47	0	10000	3	1	0	3	0
2658	48	0	10000	3	1	0	3	0
2697	49	0	10000	3	1	0	3	0
2706	50	0	10000	3	1	0	3	0
2619	51	0	10000	3	1	0	3	0
2533	52	0	10000	3	1	0	3	0
2464	53	0	10000	3	1	0	3	0
2367	54	0	10000	3	1	0	3	0
2287	55	0	10000	3	1	0	3	0
2262	56	0	10000	3	1	0	3	0
2414	57	0	10000	3	1	0	3	0
2644	58	0	10000	3	1	0	3	0
2831	59	0	10000	3	1	0	3	0
2827	60	0	10000	3	1	0	3	0
2721	61	0	10000	3	1	0	3	0
2678	62	0	10000	3	1	0	3	0
2649	63	0	10000	3	1	0	3	0
2580	64	0	10000	3	1	0	3	0
2486	65	0	10000	3	1	0	3	0
2494	66	0	10000	3	1	0	3	0
2531	67	0	10000	3	1	0	3	0
2588	68	0	10000	3	1	0	3	0
2622	69	0	10000	3	1	0	3	0
2631	70	0	10000	3	1	0	3	0
2568	71	0	10000	3	1	0	3	0
2467	72	0	10000	3	1	0	3	0
2385	73	0	10000	3	1	0	3	0
2287	74	0	10000	3	1	0	3	0
2214	75	0	10000	3	1	0	3	0
2216	76	0	10000	3	1	0	3	0
2403	77	0	10000	3	1	0	3	0
2658	78	0	10000	3	1	0	3	0
2819	79	0	10000	3	1	0	3	0
2793	80	0	10000	3	1	0	3	0
2697	81	0	10000	3	1	0	3	0
2673	82	0	10000	3	1	0	3	0
2659	83	0	10000	3	1	0	3	0
2607	84	0	10000	3	1	0	3	0
2564	85	0	10000	3	1	0	3	0
2613	86	0	10000	3	1	0	3	0
2681	87	0	10000	3	1	0	3	0
2759	88	0	10000	3	1	0	3	0
2794	89	0	10000	3	1	0	3	0
2797	90	0	10000	3	1	0	3	0
2714	91	0	10000	3	1	0	3	0
2619	92	0	10000	3	1	0	3	0
2540	93	0	10000	3	1	0	3	0
2436	94	0	10000	3	1	0	3	0
2343	95	0	10000	3	1	0	3	0
2412	96	0	10000	3	1	0	3	0
2618	97	0	10000	3	1	0	3	0
2892	98	0	10000	3	1	0	3	0
3043	99	0	10000	3	1	0	3	0
2993	100	0	10000	3	1	0	3	0
2893	101	0	10000	3	1	0	3	0
2871	102	0	10000	3	1	0	3	0
2858	103	0	10000	3	1	0	3	0
2803	104	0	10000	3	1	0	3	0
2767	105	0	10000	3	1	0	3	0
2807	106	0	10000	3	1	0	3	0
2830	107	0	10000	3	1	0	3	0
2820	108	0	10000	3	1	0	3	0
2781	109	0	10000	3	1	0	3	0
2734	110	0	10000	3	1	0	3	0
2668	111	0	10000	3	1	0	3	0
2554	112	0	10000	3	1	0	3	0
2445	113	0	10000	3	1	0	3	0
2344	114	0	10000	3	1	0	3	0
2259	115	0	10000	3	1	0	3	0
2301	116	0	10000	3	1	0	3	0
2506	117	0	10000	3	1	0	3	0
2787	118	0	10000	3	1	0	3	0
2925	119	0	10000	3	1	0	3	0
2861	120	0	10000	3	1	0	3	0
2783	121	0	10000	3	1	0	3	0
2780	122	0	10000	3	1	0	3	0
2784	123	0	10000	3	1	0	3	0
2740	124	0	10000	3	1	0	3	0
2631	125	0	10000	3	1	0	3	0
2560	126	0	10000	3	1	0	3	0
2507	127	0	10000	3	1	0	3	0
2502	128	0	10000	3	1	0	3	0
2496	129	0	10000	3	1	0	3	0
2477	130	0	10000	3	1	0	3	0
2462	131	0	10000	3	1	0	3	0
2397	132	0	10000	3	1	0	3	0
2311	133	0	10000	3	1	0	3	0
2248	134	0	10000	3	1	0	3	0
2173	135	0	10000	3	1	0	3	0
2207	136	0	10000	3	1	0	3	0
2435	137	0	10000	3	1	0	3	0
2711	138	0	10000	3	1	0	3	0
2823	139	0	10000	3	1	0	3	0
2741	140	0	10000	3	1	0	3	0
2695	141	0	10000	3	1	0	3	0
2717	142	0	10000	3	1	0	3	0
2743	143	0	10000	3	1	0	3	0
2721	144	0	10000	3	1	0	3	0
2707	145	0	10000	3	1	0	3	0
2789	146	0	10000	3	1	0	3	0
2863	147	0	10000	3	1	0	3	0
2935	148	0	10000	3	1	0	3	0
2958	149	0	10000	3	1	0	3	0
2936	150	0	10000	3	1	0	3	0
2860	151	0	10000	3	1	0	3	0
2742	152	0	10000	3	1	0	3	0
2644	153	0	10000	3	1	0	3	0
2531	154	0	10000	3	1	0	3	0
2440	155	0	10000	3	1	0	3	0
2456	156	0	10000	3	1	0	3	0
2627	157	0	10000	3	1	0	3	0
2837	158	0	10000	3	1	0	3	0
2975	159	0	10000	3	1	0	3	0
2948	160	0	10000	3	1	0	3	0
2839	161	0	10000	3	1	0	3	0
2799	162	0	10000	3	1	0	3	0
2770	163	0	10000	3	1	0	3	0
2704	164	0	10000	3	1	0	3	0
2655	165	0	10000	3	1	0	3	0
2678	166	0	10000	3	1	0	3	0
2686	167	0	10000	3	1	0	3	0
2642	168	0	10000	3	1	0	3	0
2549	169	0	10000	3	1	0	3	0
2439	170	0	10000	3	1	0	3	0
2347	171	0	10000	3	1	0	3	0
2242	172	0	10000	3	1	0	3	0
2152	173	0	10000	3	1	0	3	0
2091	174	0	10000	3	1	0	3	0
2068	175	0	10000	3	1	0	3	0
2155	176	0	10000	3	1	0	3	0
2344	177	0	10000	3	1	0	3	0
2569	178	0	10000	3	1	0	3	0
2678	179	0	10000	3	1	0	3	0
2605	180	0	10000	3	1	0	3	0
2560	181	0	10000	3	1	0	3	0
2584	182	0	10000	3	1	0	3	0
2610	183	0	10000	3	1	0	3	0
2587	184	0	10000	3	1	0	3	0
2561	185	0	10000	3	1	0	3	0
2588	186	0	10000	3	1	0	3	0
2629	187	0	10000	3	1	0	3	0
2669	188	0	10000	3	1	0	3	0
2683	189	0	10000	3	1	0	3	0
2700	190	0	10000	3	1	0	3	0
2652	191	0	10000	3	1	0	3	0
2537	192	0	10000	3	1	0	3	0
2430	193	0	10000	3	1	0	3	0
2318	194	0	10000	3	1	0	3	0
2269	195	0	10000	3	1	0	3	0
2390	196	0	10000	3	1	0	3	0
2624	197	0	10000	3	1	0	3	0
2869	198	0	10000	3	1	0	3	0
2968	199	0	10000	3	1	0	3	0
2883	200	0	10000	3	1	0	3	0
2820	201	0	10000	3	1	0	3	0
2825	202	0	10000	3	1	0	3	0
2831	203	0	10000	3	1	0	3	0
2797	204	0	10000	3	1	0	3	0
2793	205	0	10000	3	1	0	3	0
2870	206	0	10000	3	1	0	3	0
2926	207	0	10000	3	1	0	3	0
2988	208	0	10000	3	1	0	3	0
3014	209	0	10000	3	1	0	3	0
3019	210	0	10000	3	1	0	3	0
2923	211	0	10000	3	1	0	3	0
2815	212	0	10000	3	1	0	3	0
2724	213	0	10000	3	1	0	3	0
2610	214	0	10000	3	1	0	3	0
2560	215	0	10000	3	1	0	3	0
2493	216	0	10000	3	1	0	3	0
2542	217	0	10000	3	1	0	3	0
2695	218	0	10000	3	1	0	3	0
2836	219	0	10000	3	1	0	3	0
2866	220	0	10000	3	1	0	3	0
2766	221	0	10000	3	1	0	3	0
2675	222	0	10000	3	1	0	3	0
2600	223	0	10000	3	1	0	3	0
2516	224	0	10000	3	1	0	3	0
2512	225	0	10000	3	1	0	3	0
2589	226	0	10000	3	1	0	3	0
2616	227	0	10000	3	1	0	3	0
2648	228	0	10000	3	1	0	3	0
2674	229	0	10000	3	1	0	3	0
2648	230	0	10000	3	1	0	3	0
2551	231	0	10000	3	1	0	3	0
2515	232	0	10000	3	1	0	3	0
2486	233	0	10000	3	1	0	3	0
2413	234	0	10000	3	1	0	3	0
2329	235	0	10000	3	1	0	3	0
2378	236	0	10000	3	1	0	3	0
2538	237	0	10000	3	1	0	3	0
2750	238	0	10000	3	1	0	3	0
2905	239	0	10000	3	1	0	3	0
2904	240	0	10000	3	1	0	3	0
2791	241	0	10000	3	1	0	3	0
2729	242	0	10000	3	1	0	3	0
2678	243	0	10000	3	1	0	3	0
2605	244	0	10000	3	1	0	3	0
2602	245	0	10000	3	1	0	3	0
2691	246	0	10000	3	1	0	3	0
2772	247	0	10000	3	1	0	3	0
2850	248	0	10000	3	1	0	3	0
2888	249	0	10000	3	1	0	3	0
2862	250	0	10000	3	1	0	3	0
2753	251	0	10000	3	1	0	3	0
2697	252	0	10000	3	1	0	3	0
2647	253	0	10000	3	1	0	3	0
2556	254	0	10000	3	1	0	3	0
2466	255	0	10000	3	1	0	3	0
2433	256	0	10000	3	1	0	3	0
2566	257	0	10000	3	1	0	3	0
2767	258	0	10000	3	1	0	3	0
2917	259	0	10000	3	1	0	3	0
2925	260	0	10000	3	1	0	3	0
2812	261	0	10000	3	1	0	3	0
2740	262	0	10000	3	1	0	3	0
2680	263	0	10000	3	1	0	3	0
2609	264	0	10000	3	1	0	3	0
2634	265	0	10000	3	1	0	3	0
2744	266	0	10000	3	1	0	3	0
2830	267	0	10000	3	1	0	3	0
2864	268	0	10000	3	1	0	3	0
2835	269	0	10000	3	1	0	3	0
2784	270	0	10000	3	1	0	3	0
2677	271	0	10000	3	1	0	3	0
2623	272	0	10000	3	1	0	3	0
2574	273	0	10000	3	1	0	3	0
2482	274	0	10000	3	1	0	3	0
2382	275	0	10000	3	1	0	3	0
2377	276	0	10000	3	1	0	3	0
2512	277	0	10000	3	1	0	3	0
2688	278	0	10000	3	1	0	3	0
2815	279	0	10000	3	1	0	3	0
2815	280	0	10000	3	1	0	3	0
2706	281	0	10000	3	1	0	3	0
2642	282	0	10000	3	1	0	3	0
2589	283	0	10000	3	1	0	3	0
2508	284	0	10000	3	1	0	3	0
2479	285	0	10000	3	1	0	3	0
2549	286	0	10000	3	1	0	3	0
2614	287	0	10000	3	1	0	3	0
2680	288	0	10000	3	1	0	3	0
2703	289	0	10000	3	1	0	3	0
2691	290	0	10000	3	1	0	3	0
2590	291	0	10000	3	1	0	3	0
2527	292	0	10000	3	1	0	3	0
2473	293	0	10000	3	1	0	3	0
2377	294	0	10000	3	1	0	3	0
2285	295	0	10000	3	1	0	3	0
2313	296	0	10000	3	1	0	3	0
2466	297	0	10000	3	1	0	3	0
2663	298	0	10000	3	1	0	3	0
2801	299	0	10000	3	1	0	3	0
2784	300	0	10000	3	1	0	3	0
2678	301	0	10000	3	1	0	3	0
2635	302	0	10000	3	1	0	3	0
2601	303	0	10000	3	1	0	3	0
2593	304	0	10000	3	1	0	3	0
2671	305	0	10000	3	1	0	3	0
2818	306	0	10000	3	1	0	3	0
2909	307	0	10000	3	1	0	3	0
2975	308	0	10000	3	1	0	3	0
2999	309	0	10000	3	1	0	3	0
2950	310	0	10000	3	1	0	3	0
2841	311	0	10000	3	1	0	3	0
2796	312	0	10000	3	1	0	3	0
2752	313	0	10000	3	1	0	3	0
2660	314	0	10000	3	1	0	3	0
2575	315	0	10000	3	1	0	3	0
2500	316	0	10000	3	1	0	3	0
2563	317	0	10000	3	1	0	3	0
2734	318	0	10000	3	1	0	3	0
2884	319	0	10000	3	1	0	3	0
2917	320	0	10000	3	1	0	3	0
2815	321	0	10000	3	1	0	3	0
2718	322	0	10000	3	1	0	3	0
2636	323	0	10000	3	1	0	3	0
2559	324	0	10000	3	1	0	3	0
2595	325	0	10000	3	1	0	3	0
2708	326	0	10000	3	1	0	3	0
2803	327	0	10000	3	1	0	3	0
2891	328	0	10000	3	1	0	3	0
2928	329	0	10000	3	1	0	3	0
2861	330	0	10000	3	1	0	3	0
2772	331	0	10000	3	1	0	3	0
2749	332	0	10000	3	1	0	3	0
2723	333	0	10000	3	1	0	3	0
2645	334	0	10000	3	1	0	3	0
2558	335	0	10000	3	1	0	3	0
2480	336	0	10000	3	1	0	3	0
2544	337	0	10000	3	1	0	3	0
2697	338	0	10000	3	1	0	3	0
2840	339	0	10000	3	1	0	3	0
2881	340	0	10000	3	1	0	3	0
2791	341	0	10000	3	1	0	3	0
2683	342	0	10000	3	1	0	3	0
2591	343	0	10000	3	1	0	3	0
2483	344	0	10000	3	1	0	3	0
2436	345	0	10000	3	1	0	3	0
2485	346	0	10000	3	1	0	3	0
2551	347	0	10000	3	1	0	3	0
2626	348	0	10000	3	1	0	3	0
2669	349	0	10000	3	1	0	3	0
2640	350	0	10000	3	1	0	3	0
2545	351	0	10000	3	1	0	3	0
2508	352	0	10000	3	1	0	3	0
2472	353	0	10000	3	1	0	3	0
2390	354	0	10000	3	1	0	3	0
2350	355	0	10000	3	1	0	3	0
2473	356	0	10000	3	1	0	3	0
2707	357	0	10000	3	1	0	3	0
2953	358	0	10000	3	1	0	3	0
3072	359	0	10000	3	1	0	3	0
3004	360	0	10000	3	1	0	3	0
2911	361	0	10000	3	1	0	3	0
2885	362	0	10000	3	1	0	3	0
2861	363	0	10000	3	1	0	3	0
2796	364	0	10000	3	1	0	3	0
2764	365	0	10000	3	1	0	3	0
2828	366	0	10000	3	1	0	3	0
2903	367	0	10000	3	1	0	3	0
2981	368	0	10000	3	1	0	3	0
3024	369	0	10000	3	1	0	3	0
3024	370	0	10000	3	1	0	3	0
2914	371	0	10000	3	1	0	3	0
2813	372	0	10000	3	1	0	3	0
2719	373	0	10000	3	1	0	3	0
2606	374	0	10000	3	1	0	3	0
2523	375	0	10000	3	1	0	3	0
2492	376	0	10000	3	1	0	3	0
2614	377	0	10000	3	1	0	3	0
2790	378	0	10000	3	1	0	3	0
2912	379	0	10000	3	1	0	3	0
2880	380	0	10000	3	1	0	3	0
2773	381	0	10000	3	1	0	3	0
2728	382	0	10000	3	1	0	3	0
2686	383	0	10000	3	1	0	3	0
2613	384	0	10000	3	1	0	3	0
2616	385	0	10000	3	1	0	3	0
2719	386	0	10000	3	1	0	3	0
2815	387	0	10000	3	1	0	3	0
2894	388	0	10000	3	1	0	3	0
2949	389	0	10000	3	1	0	3	0
2920	390	0	10000	3	1	0	3	0
2807	391	0	10000	3	1	0	3	0
2747	392	0	10000	3	1	0	3	0
2688	393	0	10000	3	1	0	3	0
2586	394	0	10000	3	1	0	3	0
2497	395	0	10000	3	1	0	3	0
2483	396	0	10000	3	1	0	3	0
2628	397	0	10000	3	1	0	3	0
2867	398	0	10000	3	1	0	3	0
3033	399	0	10000	3	1	0	3	0
3006	400	0	10000	3	1	0	3	0
2889	401	0	10000	3	1	0	3	0
2830	402	0	10000	3	1	0	3	0
2774	403	0	10000	3	1	0	3	0
2688	404	0	10000	3	1	0	3	0
2683	405	0	10000	3	1	0	3	0
2747	406	0	10000	3	1	0	3	0
2789	407	0	10000	3	1	0	3	0
2810	408	0	10000	3	1	0	3	0
2829	409	0	10000	3	1	0	3	0
2820	410	0	10000	3	1	0	3	0
2713	411	0	10000	3	1	0	3	0
2639	412	0	10000	3	1	0	3	0
2570	413	0	10000	3	1	0	3	0
2467	414	0	10000	3	1	0	3	0
2415	415	0	10000	3	1	0	3	0
2347	416	0	10000	3	1	0	3	0
2445	417	0	10000	3	1	0	3	0
2637	418	0	10000	3	1	0	3	0
2800	419	0	10000	3	1	0	3	0
2803	420	0	10000	3	1	0	3	0
2693	421	0	10000	3	1	0	3	0
2629	422	0	10000	3	1	0	3	0
2570	423	0	10000	3	1	0	3	0
2474	424	0	10000	3	1	0	3	0
2413	425	0	10000	3	1	0	3	0
2457	426	0	10000	3	1	0	3	0
2473	427	0	10000	3	1	0	3	0
2494	428	0	10000	3	1	0	3	0
2505	429	0	10000	3	1	0	3	0
2507	430	0	10000	3	1	0	3	0
2420	431	0	10000	3	1	0	3	0
2346	432	0	10000	3	1	0	3	0
2279	433	0	10000	3	1	0	3	0
2182	434	0	10000	3	1	0	3	0
2131	435	0	10000	3	1	0	3	0
2222	436	0	10000	3	1	0	3	0
2445	437	0	10000	3	1	0	3	0
2678	438	0	10000	3	1	0	3	0
2794	439	0	10000	3	1	0	3	0
2726	440	0	10000	3	1	0	3	0
2657	441	0	10000	3	1	0	3	0
2651	442	0	10000	3	1	0	3	0
2642	443	0	10000	3	1	0	3	0
2582	444	0	10000	3	1	0	3	0
2504	445	0	10000	3	1	0	3	0
2519	446	0	10000	3	1	0	3	0
2522	447	0	10000	3	1	0	3	0
2507	448	0	10000	3	1	0	3	0
2478	449	0	10000	3	1	0	3	0
2433	450	0	10000	3	1	0	3	0
2380	451	0	10000	3	1	0	3	0
2292	452	0	10000	3	1	0	3	0
2195	453	0	10000	3	1	0	3	0
2105	454	0	10000	3	1	0	3	0
2064	455	0	10000	3	1	0	3	0
2178	456	0	10000	3	1	0	3	0
2436	457	0	10000	3	1	0	3	0
2693	458	0	10000	3	1	0	3	0
2752	459	0	10000	3	1	0	3	0
2657	460	0	10000	3	1	0	3	0
2643	461	0	10000	3	1	0	3	0
2684	462	0	10000	3	1	0	3	0
2715	463	0	10000	3	1	0	3	0
2685	464	0	10000	3	1	0	3	0
2617	465	0	10000	3	1	0	3	0
2622	466	0	10000	3	1	0	3	0
2653	467	0	10000	3	1	0	3	0
2687	468	0	10000	3	1	0	3	0
2696	469	0	10000	3	1	0	3	0
2716	470	0	10000	3	1	0	3	0
2684	471	0	10000	3	1	0	3	0
2580	472	0	10000	3	1	0	3	0
2471	473	0	10000	3	1	0	3	0
2401	474	0	10000	3	1	0	3	0
2379	475	0	10000	3	1	0	3	0
2358	476	0	10000	3	1	0	3	0
2514	477	0	10000	3	1	0	3	0
2744	478	0	10000	3	1	0	3	0
2861	479	0	10000	3	1	0	3	0
2795	480	0	10000	3	1	0	3	0
2715	481	0	10000	3	1	0	3	0
2699	482	0	10000	3	1	0	3	0
2681	483	0	10000	3	1	0	3	0
2633	484	0	10000	3	1	0	3	0
2659	485	0	10000	3	1	0	3	0
2731	486	0	10000	3	1	0	3	0
2775	487	0	10000	3	1	0	3	0
2806	488	0	10000	3	1	0	3	0
2795	489	0	10000	3	1	0	3	0
2754	490	0	10000	3	1	0	3	0
2650	491	0	10000	3	1	0	3	0
2566	492	0	10000	3	1	0	3	0
2491	493	0	10000	3	1	0	3	0
2390	494	0	10000	3	1	0	3	0
2311	495	0	10000	3	1	0	3	0
2319	496	0	10000	3	1	0	3	0
2468	497	0	10000	3	1	0	3	0
2654	498	0	10000	3	1	0	3	0
2790	499	0	10000	3	1	0	3	0
2772	500	0	10000	3	1	0	3	0
2665	501	0	10000	3	1	0	3	0
2615	502	0	10000	3	1	0	3	1
2568	503	0	10000	3	1	0	3	1
2495	504	0	10000	3	1	0	3	1
2483	505	0	10000	3	1	0	3	1
2568	506	0	10000	3	1	0	3	1
2644	507	0	10000	3	1	0	3	1
2718	508	0	10000	3	1	0	3	1
2752	509	0	10000	3	1	0	3	1
2726	510	0	10000	3	1	0	3	1
2623	511	0	10000	3	1	0	3	1
2575	512	0	10000	3	1	0	3	1
2526	513	0	10000	3	1	0	3	1
2433	514	0	10000	3	1	0	3	1
2348	515	0	10000	3	1	0	3	1
2445	516	0	10000	3	1	0	3	1
2690	517	0	10000	3	1	0	3	1
2952	518	0	10000	3	1	0	3	1
3083	519	0	10000	3	1	0	3	1
3021	520	0	10000	3	1	0	3	1
2918	521	0	10000	3	1	0	3	1
2879	522	0	10000	3	1	0	3	1
2839	523	0	10000	3	1	0	3	1
2751	524	0	10000	3	1	0	3	1
2654	525	0	10000	3	1	0	3	1
2646	526	0	10000	3	1	0	3	1
2640	527	0	10000	3	1	0	3	1
2649	528	0	10000	3	1	0	3	1
2633	529	0	10000	3	1	0	3	1
2628	530	0	10000	3	1	0	3	1
2569	531	0	10000	3	1	0	3	1
2456	532	0	10000	3	1	0	3	1
2350	533	0	10000	3	1	0	3	1
2267	534	0	10000	3	1	0	3	1
2227	535	0	10000	3	1	0	3	1
2185	536	0	10000	3	1	0	3	1
2300	537	0	10000	3	1	0	3	1
2512	538	0	10000	3	1	0	3	1
2661	539	0	10000	3	1	0	3	1
2628	540	0	10000	3	1	0	3	1
2539	541	0	10000	3	1	0	3	1
2513	542	0	10000	3	1	0	3	1
2487	543	0	10000	3	1	0	3	1
2429	544	0	10000	3	1	0	3	1
2431	545	0	10000	3	1	0	3	1
2523	546	0	10000	3	1	0	3	1
2610	547	0	10000	3	1	0	3	1
2677	548	0	10000	3	1	0	3	1
2711	549	0	10000	3	1	0	3	1
2693	550	0	10000	3	1	0	3	1
2591	551	0	10000	3	1	0	3	1
2528	552	0	10000	3	1	0	3	0
2470	553	0	10000	3	1	0	3	0
2372	554	0	10000	3	1	0	3	0
2283	555	0	10000	3	1	0	3	0
2288	556	0	10000	3	1	0	3	0
2430	557	0	10000	3	1	0	3	0
2620	558	0	10000	3	1	0	3	0
2754	559	0	10000	3	1	0	3	0
2744	560	0	10000	3	1	0	3	0
2639	561	0	10000	3	1	0	3	0
2584	562	0	10000	3	1	0	3	0
2535	563	0	10000	3	1	0	3	0
2455	564	0	10000	3	1	0	3	0
2431	565	0	10000	3	1	0	3	0
2477	566	0	10000	3	1	0	3	0
2522	567	0	10000	3	1	0	3	0
2602	568	0	10000	3	1	0	3	0
2615	569	0	10000	3	1	0	3	0
2589	570	0	10000	3	1	0	3	0
2491	571	0	10000	3	1	0	3	0
2431	572	0	10000	3	1	0	3	0
2373	573	0	10000	3	1	0	3	0
2280	574	0	10000	3	1	0	3	0
2204	575	0	10000	3	1	0	3	0
2190	576	0	10000	3	1	0	3	0
2361	577	0	10000	3	1	0	3	0
2610	578	0	10000	3	1	0	3	0
2773	579	0	10000	3	1	0	3	0
2748	580	0	10000	3	1	0	3	0
2647	581	0	10000	3	1	0	3	0
2605	582	0	10000	3	1	0	3	0
2566	583	0	10000	3	1	0	3	0
2482	584	0	10000	3	1	0	3	0
2382	585	0	10000	3	1	0	3	0
2283	586	0	10000	3	1	0	3	0
2212	587	0	10000	3	1	0	3	0
2173	588	0	10000	3	1	0	3	0
2121	589	0	10000	3	1	0	3	0
2190	590	0	10000	3	1	0	3	0
2220	591	0	10000	3	1	0	3	0
2175	592	0	10000	3	1	0	3	0
2118	593	0	10000	3	1	0	3	0
2088	594	0	10000	3	1	0	3	0
2041	595	0	10000	3	1	0	3	0
2134	596	0	10000	3	1	0	3	0
2393	597	0	10000	3	1	0	3	0
2640	598	0	10000	3	1	0	3	0
2699	599	0	10000	3	1	0	3	0
2607	600	0	10000	3	1	0	3	0
2599	601	0	10000	3	1	0	3	0
2645	602	0	10000	3	1	0	3	0
2681	603	0	10000	3	1	0	3	0
2656	604	0	10000	3	1	0	3	0
2555	605	0	10000	3	1	0	3	0
2513	606	0	10000	3	1	0	3	0
2515	607	0	10000	3	1	0	3	0
2535	608	0	10000	3	1	0	3	0
2578	609	0	10000	3	1	0	3	0
2583	610	0	10000	3	1	0	3	0
2526	611	0	10000	3	1	0	3	0
2418	612	0	10000	3	1	0	3	0
2313	613	0	10000	3	1	0	3	0
2215	614	0	10000	3	1	0	3	0
2168	615	0	10000	3	1	0	3	0
2234	616	0	10000	3	1	0	3	0
2288	617	0	10000	3	1	0	3	0
2307	618	0	10000	3	1	0	3	0
2270	619	0	10000	3	1	0	3	0
2268	620	0	10000	3	1	0	3	0
2371	621	0	10000	3	1	0	3	0
2512	622	0	10000	3	1	0	3	0
2627	623	0	10000	3	1	0	3	0
2668	624	0	10000	3	1	0	3	0
2630	625	0	10000	3	1	0	3	0
2594	626	0	10000	3	1	0	3	0
2504	627	0	10000	3	1	0	3	0
2406	628	0	10000	3	1	0	3	0
2298	629	0	10000	3	1	0	3	0
2221	630	0	10000	3	1	0	3	0
2205	631	0	10000	3	1	0	3	0
2217	632	0	10000	3	1	0	3	0
2232	633	0	10000	3	1	0	3	0
2223	634	0	10000	3	1	0	3	0
2164	635	0	10000	3	1	0	3	0
2310	636	0	10000	3	1	0	3	0
2388	637	0	10000	3	1	0	3	0
2489	638	0	10000	3	1	0	3	0
2555	639	0	10000	3	1	0	3	0
2469	640	0	10000	3	1	0	3	0
2465	641	0	10000	3	1	0	3	0
2510	642	0	10000	3	1	0	3	0
2540	643	0	10000	3	1	0	3	0
2506	644	0	10000	3	1	0	3	0
2420	645	0	10000	3	1	0	3	0
2452	646	0	10000	3	1	0	3	0
2546	647	0	10000	3	1	0	3	0
2603	648	0	10000	3	1	0	3	0
2659	649	0	10000	3	1	0	3	0
2624	650	0	10000	3	1	0	3	0
2516	651	0	10000	3	1	0	3	0
2412	652	0	10000	3	1	0	3	0
2322	653	0	10000	3	1	0	3	0
2239	654	0	10000	3	1	0	3	0
2199	655	0	10000	3	1	0	3	0
2253	656	0	10000	3	1	0	3	0
2510	657	0	10000	3	1	0	3	0
2565	658	0	10000	3	1	0	3	0
2560	659	0	10000	3	1	0	3	0
2500	660	0	10000	3	1	0	3	0
2545	661	0	10000	3	1	0	3	0
2628	662	0	10000	3	1	0	3	0
2690	663	0	10000	3	1	0	3	0
2682	664	0	10000	3	1	0	3	0
2585	665	0	10000	3	1	0	3	0
2584	666	0	10000	3	1	0	3	0
2696	667	0	10000	3	1	0	3	0
2833	668	0	10000	3	1	0	3	0
2813	669	0	10000	3	1	0	3	0
2735	670	0	10000	3	1	0	3	0
2811	671	0	10000	3	1	0	3	0
2910	672	0	10000	3	1	0	3	0
2944	673	0	10000	3	1	0	3	0
3096	674	0	10000	3	1	0	3	0
3437	675	0	10000	3	1	0	3	0
3756	676	0	10000	3	1	0	3	0
4017	677	0	10000	3	1	0	3	0
4148	678	0	10000	3	1	0	3	0
4266	679	0	10000	3	1	0	3	0
4181	680	0	10000	3	1	0	3	0
4001	681	0	10000	3	1	0	3	0
3860	682	0	10000	3	1	0	3	0
3723	683	0	10000	3	1	0	3	0
3566	684	0	10000	3	1	0	3	0
3497	685	0	10000	3	1	0	3	0
3548	686	0	10000	3	1	0	3	0
3695	687	0	10000	3	1	0	3	0
3787	688	0	10000	3	1	0	3	0
3810	689	0	10000	3	1	0	3	0
3779	690	0	10000	3	1	0	3	0
3722	691	0	10000	3	1	0	3	0
3646	692	0	10000	3	1	0	3	0
3563	693	0	10000	3	1	0	3	0
3488	694	0	10000	3	1	0	3	0
3475	695	0	10000	3	1	0	3	0
3614	696	0	10000	3	1	0	3	0
3870	697	0	10000	3	1	0	3	0
3903	698	0	10000	3	1	0	3	0
3869	699	0	10000	3	1	0	3	0
3720	700	0	10000	3	1	0	3	0
3660	701	0	10000	3	1	0	3	0
3644	702	0	10000	3	1	0	3	0
3614	703	0	10000	3	1	0	3	0
3523	704	0	10000	3	1	0	3	0
3380	705	0	10000	3	1	0	3	0
3271	706	0	10000	3	1	0	3	0
3151	707	0	10000	3	1	0	3	0
3007	708	0	10000	3	1	0	3	0
2884	709	0	10000	3	1	0	3	0
2821	710	0	10000	3	1	0	3	0
2771	711	0	10000	3	1	0	3	0
2736	712	0	10000	3	1	0	3	0
2687	713	0	10000	3	1	0	3	0
2616	714	0	10000	3	1	0	3	0
2551	715	0	10000	3	1	0	3	0
2663	716	0	10000	3	1	0	3	0
2883	717	0	10000	3	1	0	3	0
3023	718	0	10000	3	1	0	3	0
2970	719	0	10000	3	1	0	3	0
2886	720	0	10000	3	1	0	3	0
2899	721	0	10000	3	1	0	3	0
2947	722	0	10000	3	1	0	3	0
2971	723	0	10000	3	1	0	3	0
2934	724	0	10000	3	1	0	3	0
2882	725	0	10000	3	1	0	3	0
2886	726	0	10000	3	1	0	3	0
2892	727	0	10000	3	1	0	3	0
2910	728	0	10000	3	1	0	3	0
2885	729	0	10000	3	1	0	3	0
2840	730	0	10000	3	1	0	3	0
2783	731	0	10000	3	1	0	3	0
2722	732	0	10000	3	1	0	3	0
2630	733	0	10000	3	1	0	3	0
2546	734	0	10000	3	1	0	3	0
2579	735	0	10000	3	1	0	3	0
2772	736	0	10000	3	1	0	3	0
2931	737	0	10000	3	1	0	3	0
3099	738	0	10000	3	1	0	3	0
3100	739	0	10000	3	1	0	3	0
2983	740	0	10000	3	1	0	3	0
2942	741	0	10000	3	1	0	3	0
2940	742	0	10000	3	1	0	3	0
2918	743	0	10000	3	1	0	3	0
2831	744	0	10000	3	1	0	3	0
2716	745	0	10000	3	1	0	3	0
2598	746	0	10000	3	1	0	3	0
2494	747	0	10000	3	1	0	3	0
2416	748	0	10000	3	1	0	3	0
2357	749	0	10000	3	1	0	3	0
2328	750	0	10000	3	1	0	3	0
2336	751	0	10000	3	1	0	3	0
2355	752	0	10000	3	1	0	3	0
2357	753	0	10000	3	1	0	3	0
2298	754	0	10000	3	1	0	3	0
2293	755	0	10000	3	1	0	3	0
2460	756	0	10000	3	1	0	3	0
2711	757	0	10000	3	1	0	3	0
2890	758	0	10000	3	1	0	3	0
2873	759	0	10000	3	1	0	3	0
2773	760	0	10000	3	1	0	3	0
2758	761	0	10000	3	1	0	3	0
2777	762	0	10000	3	1	0	3	0
2772	763	0	10000	3	1	0	3	0
2698	764	0	10000	3	1	0	3	0
2591	765	0	10000	3	1	0	3	0
2481	766	0	10000	3	1	0	3	0
2375	767	0	10000	3	1	0	3	0
2268	768	0	10000	3	1	0	3	0
2176	769	0	10000	3	1	0	3	0
2140	770	0	10000	3	1	0	3	0
2150	771	0	10000	3	1	0	3	0
2164	772	0	10000	3	1	0	3	0
2159	773	0	10000	3	1	0	3	0
2098	774	0	10000	3	1	0	3	0
2073	775	0	10000	3	1	0	3	0
2182	776	0	10000	3	1	0	3	0
2359	777	0	10000	3	1	0	3	0
2510	778	0	10000	3	1	0	3	0
2491	779	0	10000	3	1	0	3	0
2419	780	0	10000	3	1	0	3	0
2435	781	0	10000	3	1	0	3	0
2479	782	0	10000	3	1	0	3	0
2495	783	0	10000	3	1	0	3	0
2440	784	0	10000	3	1	0	3	0
2357	785	0	10000	3	1	0	3	0
2328	786	0	10000	3	1	0	3	0
2295	787	0	10000	3	1	0	3	0
2215	788	0	10000	3	1	0	3	0
2116	789	0	10000	3	1	0	3	0
2043	790	0	10000	3	1	0	3	0
2017	791	0	10000	3	1	0	3	0
2041	792	0	10000	3	1	0	3	0
2045	793	0	10000	3	1	0	3	0
2005	794	0	10000	3	1	0	3	0
1990	795	0	10000	3	1	0	3	0
2144	796	0	10000	3	1	0	3	0
2385	797	0	10000	3	1	0	3	0
2563	798	0	10000	3	1	0	3	0
2548	799	0	10000	3	1	0	3	0
2467	800	0	10000	3	1	0	3	0
2473	801	0	10000	3	1	0	3	0
2505	802	0	10000	3	1	0	3	0
2507	803	0	10000	3	1	0	3	0
2437	804	0	10000	3	1	0	3	0
2361	805	0	10000	3	1	0	3	0
2282	806	0	10000	3	1	0	3	0
2191	807	0	10000	3	1	0	3	0
2098	808	0	10000	3	1	0	3	0
2038	809	0	10000	3	1	0	3	0
1950	810	0	10000	3	1	0	3	0
1873	811	0	10000	3	1	0	3	0
1809	812	0	10000	3	1	0	3	0
1787	813	0	10000	3	1	0	3	0
1765	814	0	10000	3	1	0	3	0
1744	815	0	10000	3	1	0	3	0
1903	816	0	10000	3	1	0	3	0
2133	817	0	10000	3	1	0	3	0
2243	818	0	10000	3	1	0	3	0
2179	819	0	10000	3	1	0	3	0
2181	820	0	10000	3	1	0	3	0
2260	821	0	10000	3	1	0	3	0
2352	822	0	10000	3	1	0	3	0
2406	823	0	10000	3	1	0	3	0
2377	824	0	10000	3	1	0	3	0
2273	825	0	10000	3	1	0	3	0
2211	826	0	10000	3	1	0	3	0
2173	827	0	10000	3	1	0	3	0
2172	828	0	10000	3	1	0	3	0
2157	829	0	10000	3	1	0	3	0
2150	830	0	10000	3	1	0	3	0
2162	831	0	10000	3	1	0	3	0
2187	832	0	10000	3	1	0	3	0
2190	833	0	10000	3	1	0	3	0
2144	834	0	10000	3	1	0	3	0
2107	835	0	10000	3	1	0	3	0
2188	836	0	10000	3	1	0	3	0
2375	837	0	10000	3	1	0	3	0
2542	838	0	10000	3	1	0	3	0
2535	839	0	10000	3	1	0	3	0
2450	840	0	10000	3	1	0	3	0
2444	841	0	10000	3	1	0	3	0
2463	842	0	10000	3	1	0	3	0
2451	843	0	10000	3	1	0	3	0
2389	844	0	10000	3	1	0	3	0
2384	845	0	10000	3	1	0	3	0
2417	846	0	10000	3	1	0	3	0
2426	847	0	10000	3	1	0	3	0
2438	848	0	10000	3	1	0	3	0
2441	849	0	10000	3	1	0	3	0
2431	850	0	10000	3	1	0	3	0
2401	851	0	10000	3	1	0	3	0
2328	852	0	10000	3	1	0	3	0
2262	853	0	10000	3	1	0	3	0
2233	854	0	10000	3	1	0	3	0
2175	855	0	10000	3	1	0	3	0
2280	856	0	10000	3	1	0	3	0
2483	857	0	10000	3	1	0	3	0
2701	858	0	10000	3	1	0	3	0
2778	859	0	10000	3	1	0	3	0
2699	860	0	10000	3	1	0	3	0
2605	861	0	10000	3	1	0	3	0
2548	862	0	10000	3	1	0	3	0
2467	863	0	10000	3	1	0	3	0
2358	864	0	10000	3	1	0	3	0
2327	865	0	10000	3	1	0	3	0
2348	866	0	10000	3	1	0	3	0
2353	867	0	10000	3	1	0	3	0
2351	868	0	10000	3	1	0	3	0
2333	869	0	10000	3	1	0	3	0
2301	870	0	10000	3	1	0	3	0
2220	871	0	10000	3	1	0	3	0
2127	872	0	10000	3	1	0	3	0
2034	873	0	10000	3	1	0	3	0
1949	874	0	10000	3	1	0	3	0
1946	875	0	10000	3	1	0	3	0
2118	876	0	10000	3	1	0	3	0
2372	877	0	10000	3	1	0	3	0
2574	878	0	10000	3	1	0	3	0
2613	879	0	10000	3	1	0	3	0
2518	880	0	10000	3	1	0	3	0
2465	881	0	10000	3	1	0	3	0
2439	882	0	10000	3	1	0	3	0
2386	883	0	10000	3	1	0	3	0
2333	884	0	10000	3	1	0	3	0
2353	885	0	10000	3	1	0	3	0
2390	886	0	10000	3	1	0	3	0
2395	887	0	10000	3	1	0	3	0
2402	888	0	10000	3	1	0	3	0
2358	889	0	10000	3	1	0	3	0
2336	890	0	10000	3	1	0	3	0
2274	891	0	10000	3	1	0	3	0
2175	892	0	10000	3	1	0	3	0
2098	893	0	10000	3	1	0	3	0
2089	894	0	10000	3	1	0	3	0
2103	895	0	10000	3	1	0	3	0
2074	896	0	10000	3	1	0	3	0
2198	897	0	10000	3	1	0	3	0
2370	898	0	10000	3	1	0	3	0
2474	899	0	10000	3	1	0	3	0
2448	900	0	10000	3	1	0	3	0
2347	901	0	10000	3	1	0	3	0
2262	902	0	10000	3	1	0	3	0
2165	903	0	10000	3	1	0	3	0
2078	904	0	10000	3	1	0	3	0
2049	905	0	10000	3	1	0	3	0
2112	906	0	10000	3	1	0	3	0
2177	907	0	10000	3	1	0	3	0
2252	908	0	10000	3	1	0	3	0
2305	909	0	10000	3	1	0	3	0
2259	910	0	10000	3	1	0	3	0
2180	911	0	10000	3	1	0	3	0
2134	912	0	10000	3	1	0	3	0
2062	913	0	10000	3	1	0	3	0
2009	914	0	10000	3	1	0	3	0
2025	915	0	10000	3	1	0	3	0
1991	916	0	10000	3	1	0	3	0
2098	917	0	10000	3	1	0	3	0
2272	918	0	10000	3	1	0	3	0
2403	919	0	10000	3	1	0	3	0
2417	920	0	10000	3	1	0	3	0
2334	921	0	10000	3	1	0	3	0
2225	922	0	10000	3	1	0	3	0
2137	923	0	10000	3	1	0	3	0
2056	924	0	10000	3	1	0	3	0
2033	925	0	10000	3	1	0	3	0
2030	926	0	10000	3	1	0	3	0
1982	927	0	10000	3	1	0	3	0
1900	928	0	10000	3	1	0	3	0
1854	929	0	10000	3	1	0	3	0
1795	930	0	10000	3	1	0	3	0
1715	931	0	10000	3	1	0	3	0
1637	932	0	10000	3	1	0	3	0
1585	933	0	10000	3	1	0	3	0
1566	934	0	10000	3	1	0	3	0
1525	935	0	10000	3	1	0	3	0
1602	936	0	10000	3	1	0	3	0
1786	937	0	10000	3	1	0	3	0
1986	938	0	10000	3	1	0	3	0
2054	939	0	10000	3	1	0	3	0
1987	940	0	10000	3	1	0	3	0
1957	941	0	10000	3	1	0	3	0
1949	942	0	10000	3	1	0	3	0
1906	943	0	10000	3	1	0	3	0
1824	944	0	10000	3	1	0	3	0
1809	945	0	10000	3	1	0	3	0
1833	946	0	10000	3	1	0	3	0
1832	947	0	10000	3	1	0	3	0
1840	948	0	10000	3	1	0	3	0
1815	949	0	10000	3	1	0	3	0
1799	950	0	10000	3	1	0	3	0
1767	951	0	10000	3	1	0	3	0
1710	952	0	10000	3	1	0	3	0
1680	953	0	10000	3	1	0	3	0
1696	954	0	10000	3	1	0	3	0
1660	955	0	10000	3	1	0	3	0
1726	956	0	10000	3	1	0	3	0
1878	957	0	10000	3	1	0	3	0
2018	958	0	10000	3	1	0	3	0
2068	959	0	10000	3	1	0	3	0
1999	960	0	10000	3	1	0	3	0
1974	961	0	10000	3	1	0	3	0
1966	962	0	10000	3	1	0	3	0
1921	963	0	10000	3	1	0	3	0
1839	964	0	10000	3	1	0	3	0
1859	965	0	10000	3	1	0	3	0
1971	966	0	10000	3	1	0	3	0
2057	967	0	10000	3	1	0	3	0
2131	968	0	10000	3	1	0	3	0
2163	969	0	10000	3	1	0	3	0
2130	970	0	10000	3	1	0	3	0
2046	971	0	10000	3	1	0	3	0
1985	972	0	10000	3	1	0	3	0
1906	973	0	10000	3	1	0	3	0
1892	974	0	10000	3	1	0	3	0
1902	975	0	10000	3	1	0	3	0
1867	976	0	10000	3	1	0	3	0
1947	977	0	10000	3	1	0	3	0
2074	978	0	10000	3	1	0	3	0
2131	979	0	10000	3	1	0	3	0
2115	980	0	10000	3	1	0	3	0
2028	981	0	10000	3	1	0	3	0
1951	982	0	10000	3	1	0	3	0
1871	983	0	10000	3	1	0	3	0
1855	984	0	10000	3	1	0	3	0
1925	985	0	10000	3	1	0	3	0
1997	986	0	10000	3	1	0	3	0
2004	987	0	10000	3	1	0	3	0
1953	988	0	10000	3	1	0	3	0
1868	989	0	10000	3	1	0	3	0
1791	990	0	10000	3	1	0	3	0
1753	991	0	10000	3	1	0	3	0
1734	992	0	10000	3	1	0	3	0
1680	993	0	10000	3	1	0	3	0
1649	994	0	10000	3	1	0	3	0
1614	995	0	10000	3	1	0	3	0
1646	996	0	10000	3	1	0	3	0
1783	997	0	10000	3	1	0	3	0
1957	998	0	10000	3	1	0	3	0
2059	999	0	10000	3	1	0	3	0
2028	1000	0	10000	3	1	0	3	0
1949	1001	0	10000	3	1	0	3	0
2448	1	10	10000	4	1	0	4	0
2525	2	10	10000	4	1	0	4	0
2581	3	10	10000	4	1	0	4	0
2502	4	10	10000	4	1	0	4	0
2531	5	10	10000	4	1	0	4	0
2618	6	10	10000	4	1	0	4	0
2697	7	10	10000	4	1	0	4	0
2715	8	10	10000	4	1	0	4	0
2643	9	10	10000	4	1	0	4	0
2563	10	10	10000	4	1	0	4	0
2529	11	10	10000	4	1	0	4	0
2484	12	10	10000	4	1	0	4	0
2394	13	10	10000	4	1	0	4	0
2334	14	10	10000	4	1	0	4	0
2293	15	10	10000	4	1	0	4	0
2271	16	10	10000	4	1	0	4	0
2288	17	10	10000	4	1	0	4	0
2287	18	10	10000	4	1	0	4	0
2213	19	10	10000	4	1	0	4	0
2270	20	10	10000	4	1	0	4	0
2477	20	10	10000	4	1	0	4	0
2688	21	10	10000	4	1	0	4	0
2708	23	10	10000	4	1	0	4	0
2622	24	10	10000	4	1	0	4	0
2646	25	10	10000	4	1	0	4	0
2723	26	10	10000	4	1	0	4	0
2791	27	10	10000	4	1	0	4	0
2794	28	10	10000	4	1	0	4	0
2701	29	10	10000	4	1	0	4	0
2577	30	10	10000	4	1	0	4	0
2486	31	10	10000	4	1	0	4	0
2423	32	10	10000	4	1	0	4	0
2393	33	10	10000	4	1	0	4	0
2337	34	10	10000	4	1	0	4	0
2260	35	10	10000	4	1	0	4	0
2215	36	10	10000	4	1	0	4	0
2136	37	10	10000	4	1	0	4	0
2058	38	10	10000	4	1	0	4	0
1997	39	10	10000	4	1	0	4	0
2051	40	10	10000	4	1	0	4	0
2186	41	10	10000	4	1	0	4	0
2290	42	10	10000	4	1	0	4	0
2254	43	10	10000	4	1	0	4	0
2239	44	10	10000	4	1	0	4	0
2334	45	10	10000	4	1	0	4	0
2468	46	10	10000	4	1	0	4	0
2583	47	10	10000	4	1	0	4	0
2627	48	10	10000	4	1	0	4	0
2583	49	10	10000	4	1	0	4	0
2610	50	10	10000	4	1	0	4	0
2694	51	10	10000	4	1	0	4	0
2778	52	10	10000	4	1	0	4	0
2776	53	10	10000	4	1	0	4	0
2750	54	10	10000	4	1	0	4	0
2716	55	10	10000	4	1	0	4	0
2638	56	10	10000	4	1	0	4	0
2529	57	10	10000	4	1	0	4	0
2431	58	10	10000	4	1	0	4	0
2357	59	10	10000	4	1	0	4	0
2414	60	10	10000	4	1	0	4	0
2625	61	10	10000	4	1	0	4	0
2878	62	10	10000	4	1	0	4	0
2943	63	10	10000	4	1	0	4	0
2841	64	10	10000	4	1	0	4	0
2799	65	10	10000	4	1	0	4	0
2812	66	10	10000	4	1	0	4	0
2817	67	10	10000	4	1	0	4	0
2775	68	10	10000	4	1	0	4	0
2790	69	10	10000	4	1	0	4	0
2939	70	10	10000	4	1	0	4	0
3050	71	10	10000	4	1	0	4	0
3117	72	10	10000	4	1	0	4	0
3088	73	10	10000	4	1	0	4	0
2968	74	10	10000	4	1	0	4	0
2866	75	10	10000	4	1	0	4	0
2764	76	10	10000	4	1	0	4	0
2663	77	10	10000	4	1	0	4	0
2555	78	10	10000	4	1	0	4	0
2480	79	10	10000	4	1	0	4	0
2442	80	10	10000	4	1	0	4	0
2566	81	10	10000	4	1	0	4	0
2781	82	10	10000	4	1	0	4	0
2936	83	10	10000	4	1	0	4	0
2926	84	10	10000	4	1	0	4	0
2810	85	10	10000	4	1	0	4	0
2734	86	10	10000	4	1	0	4	0
2663	87	10	10000	4	1	0	4	0
2555	88	10	10000	4	1	0	4	0
2496	89	10	10000	4	1	0	4	0
2423	90	10	10000	4	1	0	4	0
2312	91	10	10000	4	1	0	4	0
2246	92	10	10000	4	1	0	4	0
2242	93	10	10000	4	1	0	4	0
2228	94	10	10000	4	1	0	4	0
2174	95	10	10000	4	1	0	4	0
2081	96	10	10000	4	1	0	4	0
1996	97	10	10000	4	1	0	4	0
1919	98	10	10000	4	1	0	4	0
1883	99	10	10000	4	1	0	4	0
1954	100	10	10000	4	1	0	4	0
2108	101	10	10000	4	1	0	4	0
2278	102	10	10000	4	1	0	4	0
2289	103	10	10000	4	1	0	4	0
2232	104	10	10000	4	1	0	4	0
2280	105	10	10000	4	1	0	4	0
2370	106	10	10000	4	1	0	4	0
2440	107	10	10000	4	1	0	4	0
2440	108	10	10000	4	1	0	4	0
2401	109	10	10000	4	1	0	4	0
2446	110	10	10000	4	1	0	4	0
2480	110	10	10000	4	1	0	4	0
2526	111	10	10000	4	1	0	4	0
2559	113	10	10000	4	1	0	4	0
2562	114	10	10000	4	1	0	4	0
2541	115	10	10000	4	1	0	4	0
2467	116	10	10000	4	1	0	4	0
2381	117	10	10000	4	1	0	4	0
2336	118	10	10000	4	1	0	4	0
2289	119	10	10000	4	1	0	4	0
2257	120	10	10000	4	1	0	4	0
2375	121	10	10000	4	1	0	4	0
2583	122	10	10000	4	1	0	4	0
2706	123	10	10000	4	1	0	4	0
2651	124	10	10000	4	1	0	4	0
2567	125	10	10000	4	1	0	4	0
2542	126	10	10000	4	1	0	4	0
2508	127	10	10000	4	1	0	4	0
2419	128	10	10000	4	1	0	4	0
2337	129	10	10000	4	1	0	4	0
2338	130	10	10000	4	1	0	4	0
2323	131	10	10000	4	1	0	4	0
2284	132	10	10000	4	1	0	4	0
2231	133	10	10000	4	1	0	4	0
2160	134	10	10000	4	1	0	4	0
2070	135	10	10000	4	1	0	4	0
1984	136	10	10000	4	1	0	4	0
1900	137	10	10000	4	1	0	4	0
1823	138	10	10000	4	1	0	4	0
1754	139	10	10000	4	1	0	4	0
1791	140	10	10000	4	1	0	4	0
1963	140	10	10000	4	1	0	4	0
2186	141	10	10000	4	1	0	4	0
2307	143	10	10000	4	1	0	4	0
2249	144	10	10000	4	1	0	4	0
2205	145	10	10000	4	1	0	4	0
2213	146	10	10000	4	1	0	4	0
2209	147	10	10000	4	1	0	4	0
2145	148	10	10000	4	1	0	4	0
2051	149	10	10000	4	1	0	4	0
2014	150	10	10000	4	1	0	4	0
1978	151	10	10000	4	1	0	4	0
1988	152	10	10000	4	1	0	4	0
2015	153	10	10000	4	1	0	4	0
2001	154	10	10000	4	1	0	4	0
1970	155	10	10000	4	1	0	4	0
1902	156	10	10000	4	1	0	4	0
1833	157	10	10000	4	1	0	4	0
1812	158	10	10000	4	1	0	4	0
1840	159	10	10000	4	1	0	4	0
1795	160	10	10000	4	1	0	4	0
1795	160	10	10000	4	1	0	4	0
1879	161	10	10000	4	1	0	4	0
1961	163	10	10000	4	1	0	4	0
1962	164	10	10000	4	1	0	4	0
1893	165	10	10000	4	1	0	4	0
1841	166	10	10000	4	1	0	4	0
1798	167	10	10000	4	1	0	4	0
1752	168	10	10000	4	1	0	4	0
1765	169	10	10000	4	1	0	4	0
1857	170	10	10000	4	1	0	4	0
1931	171	10	10000	4	1	0	4	0
1946	172	10	10000	4	1	0	4	0
1907	173	10	10000	4	1	0	4	0
1833	174	10	10000	4	1	0	4	0
1770	175	10	10000	4	1	0	4	0
1757	176	10	10000	4	1	0	4	0
1740	177	10	10000	4	1	0	4	0
1679	178	10	10000	4	1	0	4	0
1668	179	10	10000	4	1	0	4	0
1624	180	10	10000	4	1	0	4	0
1714	181	10	10000	4	1	0	4	0
1907	182	10	10000	4	1	0	4	0
2074	183	10	10000	4	1	0	4	0
2123	184	10	10000	4	1	0	4	0
2057	185	10	10000	4	1	0	4	0
1985	186	10	10000	4	1	0	4	0
1916	187	10	10000	4	1	0	4	0
1855	188	10	10000	4	1	0	4	0
1876	189	10	10000	4	1	0	4	0
1962	190	10	10000	4	1	0	4	0
2027	191	10	10000	4	1	0	4	0
2091	192	10	10000	4	1	0	4	0
2139	193	10	10000	4	1	0	4	0
2098	194	10	10000	4	1	0	4	0
2042	195	10	10000	4	1	0	4	0
2040	196	10	10000	4	1	0	4	0
2027	197	10	10000	4	1	0	4	0
1959	198	10	10000	4	1	0	4	0
1882	199	10	10000	4	1	0	4	0
1947	200	10	10000	4	1	0	4	0
2139	201	10	10000	4	1	0	4	0
2385	202	10	10000	4	1	0	4	0
2541	203	10	10000	4	1	0	4	0
2522	204	10	10000	4	1	0	4	0
2429	205	10	10000	4	1	0	4	0
2386	206	10	10000	4	1	0	4	0
2339	207	10	10000	4	1	0	4	0
2246	208	10	10000	4	1	0	4	0
2161	209	10	10000	4	1	0	4	0
2178	210	10	10000	4	1	0	4	0
2237	211	10	10000	4	1	0	4	0
2282	212	10	10000	4	1	0	4	0
2295	213	10	10000	4	1	0	4	0
2291	214	10	10000	4	1	0	4	0
2213	215	10	10000	4	1	0	4	0
2133	216	10	10000	4	1	0	4	0
2055	217	10	10000	4	1	0	4	0
1989	218	10	10000	4	1	0	4	0
1993	219	10	10000	4	1	0	4	0
1943	220	10	10000	4	1	0	4	0
1980	220	10	10000	4	1	0	4	0
2056	221	10	10000	4	1	0	4	0
2096	223	10	10000	4	1	0	4	0
2073	224	10	10000	4	1	0	4	0
2002	225	10	10000	4	1	0	4	0
1935	226	10	10000	4	1	0	4	0
1873	227	10	10000	4	1	0	4	0
1813	228	10	10000	4	1	0	4	0
1793	229	10	10000	4	1	0	4	0
1840	230	10	10000	4	1	0	4	0
1893	231	10	10000	4	1	0	4	0
1920	232	10	10000	4	1	0	4	0
1923	233	10	10000	4	1	0	4	0
1900	234	10	10000	4	1	0	4	0
1836	235	10	10000	4	1	0	4	0
1819	236	10	10000	4	1	0	4	0
1795	237	10	10000	4	1	0	4	0
1730	238	10	10000	4	1	0	4	0
1733	239	10	10000	4	1	0	4	0
1696	240	10	10000	4	1	0	4	0
1752	241	10	10000	4	1	0	4	0
1907	242	10	10000	4	1	0	4	0
2061	243	10	10000	4	1	0	4	0
2106	244	10	10000	4	1	0	4	0
2039	245	10	10000	4	1	0	4	0
1971	246	10	10000	4	1	0	4	0
1913	247	10	10000	4	1	0	4	0
1890	248	10	10000	4	1	0	4	0
1963	249	10	10000	4	1	0	4	0
2068	250	10	10000	4	1	0	4	0
2088	251	10	10000	4	1	0	4	0
2085	252	10	10000	4	1	0	4	0
2036	253	10	10000	4	1	0	4	0
1958	254	10	10000	4	1	0	4	0
1890	255	10	10000	4	1	0	4	0
1873	256	10	10000	4	1	0	4	0
1850	257	10	10000	4	1	0	4	0
1783	258	10	10000	4	1	0	4	0
1768	259	10	10000	4	1	0	4	0
1729	260	10	10000	4	1	0	4	0
1812	260	10	10000	4	1	0	4	0
1983	261	10	10000	4	1	0	4	0
2141	263	10	10000	4	1	0	4	0
2183	264	10	10000	4	1	0	4	0
2106	265	10	10000	4	1	0	4	0
2046	266	10	10000	4	1	0	4	0
1988	267	10	10000	4	1	0	4	0
1906	268	10	10000	4	1	0	4	0
1841	269	10	10000	4	1	0	4	0
1850	270	10	10000	4	1	0	4	0
1861	271	10	10000	4	1	0	4	0
1858	272	10	10000	4	1	0	4	0
1850	273	10	10000	4	1	0	4	0
1846	274	10	10000	4	1	0	4	0
1792	275	10	10000	4	1	0	4	0
1733	276	10	10000	4	1	0	4	0
1675	277	10	10000	4	1	0	4	0
1622	278	10	10000	4	1	0	4	0
1621	279	10	10000	4	1	0	4	0
1591	280	10	10000	4	1	0	4	0
1673	281	10	10000	4	1	0	4	0
1837	282	10	10000	4	1	0	4	0
1987	283	10	10000	4	1	0	4	0
2000	284	10	10000	4	1	0	4	0
1932	285	10	10000	4	1	0	4	0
1910	286	10	10000	4	1	0	4	0
1887	287	10	10000	4	1	0	4	0
1833	288	10	10000	4	1	0	4	0
1835	289	10	10000	4	1	0	4	0
1935	290	10	10000	4	1	0	4	0
2006	290	10	10000	4	1	0	4	0
2074	291	10	10000	4	1	0	4	0
2101	293	10	10000	4	1	0	4	0
2078	294	10	10000	4	1	0	4	0
1999	295	10	10000	4	1	0	4	0
1952	296	10	10000	4	1	0	4	0
1905	297	10	10000	4	1	0	4	0
1834	298	10	10000	4	1	0	4	0
1842	299	10	10000	4	1	0	4	0
1818	300	10	10000	4	1	0	4	0
1843	301	10	10000	4	1	0	4	0
1948	302	10	10000	4	1	0	4	0
2052	303	10	10000	4	1	0	4	0
2084	304	10	10000	4	1	0	4	0
2022	305	10	10000	4	1	0	4	0
1946	306	10	10000	4	1	0	4	0
1899	307	10	10000	4	1	0	4	0
1924	308	10	10000	4	1	0	4	0
2032	309	10	10000	4	1	0	4	0
2210	310	10	10000	4	1	0	4	0
2375	311	10	10000	4	1	0	4	0
2498	312	10	10000	4	1	0	4	0
2523	313	10	10000	4	1	0	4	0
2436	314	10	10000	4	1	0	4	0
2425	315	10	10000	4	1	0	4	0
2463	316	10	10000	4	1	0	4	0
2484	317	10	10000	4	1	0	4	0
2440	318	10	10000	4	1	0	4	0
2333	319	10	10000	4	1	0	4	0
2333	320	10	10000	4	1	0	4	0
2449	320	10	10000	4	1	0	4	0
2604	321	10	10000	4	1	0	4	0
2724	323	10	10000	4	1	0	4	0
2712	324	10	10000	4	1	0	4	0
2614	325	10	10000	4	1	0	4	0
2513	326	10	10000	4	1	0	4	0
2453	327	10	10000	4	1	0	4	0
2423	328	10	10000	4	1	0	4	0
2433	329	10	10000	4	1	0	4	0
2500	330	10	10000	4	1	0	4	0
2541	330	10	10000	4	1	0	4	0
2568	331	10	10000	4	1	0	4	0
2542	333	10	10000	4	1	0	4	0
2466	334	10	10000	4	1	0	4	0
2403	335	10	10000	4	1	0	4	0
2393	336	10	10000	4	1	0	4	0
2373	337	10	10000	4	1	0	4	0
2296	338	10	10000	4	1	0	4	0
2228	339	10	10000	4	1	0	4	0
2171	340	10	10000	4	1	0	4	0
2236	340	10	10000	4	1	0	4	0
2372	341	10	10000	4	1	0	4	0
2490	343	10	10000	4	1	0	4	0
2525	344	10	10000	4	1	0	4	0
2443	345	10	10000	4	1	0	4	0
2353	346	10	10000	4	1	0	4	0
2272	347	10	10000	4	1	0	4	0
2176	348	10	10000	4	1	0	4	0
2088	349	10	10000	4	1	0	4	0
2020	350	10	10000	4	1	0	4	0
1937	350	10	10000	4	1	0	4	0
1851	351	10	10000	4	1	0	4	0
1801	353	10	10000	4	1	0	4	0
1780	354	10	10000	4	1	0	4	0
1715	355	10	10000	4	1	0	4	0
1648	356	10	10000	4	1	0	4	0
1588	357	10	10000	4	1	0	4	0
1525	358	10	10000	4	1	0	4	0
1490	359	10	10000	4	1	0	4	0
1557	360	10	10000	4	1	0	4	0
1738	360	10	10000	4	1	0	4	0
1941	361	10	10000	4	1	0	4	0
1995	363	10	10000	4	1	0	4	0
1941	364	10	10000	4	1	0	4	0
1986	365	10	10000	4	1	0	4	0
2074	366	10	10000	4	1	0	4	0
2144	367	10	10000	4	1	0	4	0
2159	368	10	10000	4	1	0	4	0
2203	369	10	10000	4	1	0	4	0
2304	370	10	10000	4	1	0	4	0
2345	370	10	10000	4	1	0	4	0
2348	371	10	10000	4	1	0	4	0
2347	373	10	10000	4	1	0	4	0
2316	374	10	10000	4	1	0	4	0
2275	375	10	10000	4	1	0	4	0
2208	376	10	10000	4	1	0	4	0
2139	377	10	10000	4	1	0	4	0
2116	378	10	10000	4	1	0	4	0
2145	379	10	10000	4	1	0	4	0
2091	380	10	10000	4	1	0	4	0
2106	381	10	10000	4	1	0	4	0
2201	382	10	10000	4	1	0	4	0
2303	383	10	10000	4	1	0	4	0
2296	384	10	10000	4	1	0	4	0
2212	385	10	10000	4	1	0	4	0
2180	386	10	10000	4	1	0	4	0
2143	387	10	10000	4	1	0	4	0
2062	388	10	10000	4	1	0	4	0
1991	389	10	10000	4	1	0	4	0
1963	390	10	10000	4	1	0	4	0
1960	391	10	10000	4	1	0	4	0
1992	392	10	10000	4	1	0	4	0
2000	393	10	10000	4	1	0	4	0
2003	394	10	10000	4	1	0	4	0
1948	395	10	10000	4	1	0	4	0
1872	396	10	10000	4	1	0	4	0
1801	397	10	10000	4	1	0	4	0
1745	398	10	10000	4	1	0	4	0
1704	399	10	10000	4	1	0	4	0
1722	400	10	10000	4	1	0	4	0
1841	400	10	10000	4	1	0	4	0
2002	401	10	10000	4	1	0	4	0
2123	403	10	10000	4	1	0	4	0
2116	404	10	10000	4	1	0	4	0
2044	405	10	10000	4	1	0	4	0
2024	406	10	10000	4	1	0	4	0
2000	407	10	10000	4	1	0	4	0
1927	408	10	10000	4	1	0	4	0
1860	409	10	10000	4	1	0	4	0
1865	410	10	10000	4	1	0	4	0
1862	410	10	10000	4	1	0	4	0
1838	411	10	10000	4	1	0	4	0
1786	413	10	10000	4	1	0	4	0
1707	414	10	10000	4	1	0	4	0
1633	415	10	10000	4	1	0	4	0
1575	416	10	10000	4	1	0	4	0
1521	417	10	10000	4	1	0	4	0
1498	418	10	10000	4	1	0	4	0
1463	419	10	10000	4	1	0	4	0
1568	420	10	10000	4	1	0	4	0
1805	420	10	10000	4	1	0	4	0
2057	421	10	10000	4	1	0	4	0
2155	423	10	10000	4	1	0	4	0
2090	424	10	10000	4	1	0	4	0
2084	425	10	10000	4	1	0	4	0
2128	426	10	10000	4	1	0	4	0
2158	427	10	10000	4	1	0	4	0
2127	428	10	10000	4	1	0	4	0
2095	429	10	10000	4	1	0	4	0
2142	430	10	10000	4	1	0	4	0
2134	430	10	10000	4	1	0	4	0
2080	431	10	10000	4	1	0	4	0
2000	433	10	10000	4	1	0	4	0
1913	434	10	10000	4	1	0	4	0
1828	435	10	10000	4	1	0	4	0
1766	436	10	10000	4	1	0	4	0
1737	437	10	10000	4	1	0	4	0
1733	438	10	10000	4	1	0	4	0
1690	439	10	10000	4	1	0	4	0
1692	440	10	10000	4	1	0	4	0
1821	440	10	10000	4	1	0	4	0
1985	441	10	10000	4	1	0	4	0
2083	443	10	10000	4	1	0	4	0
2028	444	10	10000	4	1	0	4	0
2013	445	10	10000	4	1	0	4	0
2049	446	10	10000	4	1	0	4	0
2073	447	10	10000	4	1	0	4	0
2055	448	10	10000	4	1	0	4	0
2096	449	10	10000	4	1	0	4	0
2183	450	10	10000	4	1	0	4	0
2234	450	10	10000	4	1	0	4	0
2248	451	10	10000	4	1	0	4	0
2198	453	10	10000	4	1	0	4	0
2095	454	10	10000	4	1	0	4	0
2000	455	10	10000	4	1	0	4	0
1910	456	10	10000	4	1	0	4	0
1823	457	10	10000	4	1	0	4	0
1779	458	10	10000	4	1	0	4	0
1749	459	10	10000	4	1	0	4	0
1727	460	10	10000	4	1	0	4	0
1822	460	10	10000	4	1	0	4	0
1971	461	10	10000	4	1	0	4	0
2074	463	10	10000	4	1	0	4	0
2067	464	10	10000	4	1	0	4	0
1994	465	10	10000	4	1	0	4	0
1971	466	10	10000	4	1	0	4	0
1945	467	10	10000	4	1	0	4	0
1890	468	10	10000	4	1	0	4	0
1889	469	10	10000	4	1	0	4	0
1946	470	10	10000	4	1	0	4	0
1947	470	10	10000	4	1	0	4	0
1934	471	10	10000	4	1	0	4	0
1871	473	10	10000	4	1	0	4	0
1798	474	10	10000	4	1	0	4	0
1740	475	10	10000	4	1	0	4	0
1674	476	10	10000	4	1	0	4	0
1614	477	10	10000	4	1	0	4	0
1564	478	10	10000	4	1	0	4	0
1539	479	10	10000	4	1	0	4	0
1530	480	10	10000	4	1	0	4	0
1668	480	10	10000	4	1	0	4	0
1856	481	10	10000	4	1	0	4	0
1996	483	10	10000	4	1	0	4	0
2003	484	10	10000	4	1	0	4	0
1933	485	10	10000	4	1	0	4	0
1915	486	10	10000	4	1	0	4	0
1893	487	10	10000	4	1	0	4	0
1823	488	10	10000	4	1	0	4	0
1762	489	10	10000	4	1	0	4	0
1770	490	10	10000	4	1	0	4	0
1798	490	10	10000	4	1	0	4	0
1828	491	10	10000	4	1	0	4	0
1826	493	10	10000	4	1	0	4	0
1796	494	10	10000	4	1	0	4	0
1747	495	10	10000	4	1	0	4	0
1673	496	10	10000	4	1	0	4	0
1606	497	10	10000	4	1	0	4	0
1558	498	10	10000	4	1	0	4	0
1520	499	10	10000	4	1	0	4	0
1570	500	10	10000	4	1	0	4	0
1721	500	10	10000	4	1	0	4	0
1927	501	10	10000	4	1	0	4	0
2072	503	10	10000	4	1	0	4	1
2049	504	10	10000	4	1	0	4	1
1996	505	10	10000	4	1	0	4	1
1999	506	10	10000	4	1	0	4	1
1996	507	10	10000	4	1	0	4	1
1965	508	10	10000	4	1	0	4	1
1974	509	10	10000	4	1	0	4	1
2040	510	10	10000	4	1	0	4	1
2072	510	10	10000	4	1	0	4	1
2087	511	10	10000	4	1	0	4	1
2061	513	10	10000	4	1	0	4	1
2011	514	10	10000	4	1	0	4	1
1951	515	10	10000	4	1	0	4	1
1873	516	10	10000	4	1	0	4	1
1802	517	10	10000	4	1	0	4	1
1746	518	10	10000	4	1	0	4	1
1737	519	10	10000	4	1	0	4	1
1700	520	10	10000	4	1	0	4	1
1765	520	10	10000	4	1	0	4	1
1885	521	10	10000	4	1	0	4	1
1969	523	10	10000	4	1	0	4	1
1986	524	10	10000	4	1	0	4	1
1915	525	10	10000	4	1	0	4	1
1874	526	10	10000	4	1	0	4	1
1836	527	10	10000	4	1	0	4	1
1806	528	10	10000	4	1	0	4	1
1845	529	10	10000	4	1	0	4	1
1919	530	10	10000	4	1	0	4	1
1949	530	10	10000	4	1	0	4	1
1963	531	10	10000	4	1	0	4	1
1947	533	10	10000	4	1	0	4	1
1896	534	10	10000	4	1	0	4	1
1838	535	10	10000	4	1	0	4	1
1809	536	10	10000	4	1	0	4	1
1777	537	10	10000	4	1	0	4	1
1709	538	10	10000	4	1	0	4	1
1654	539	10	10000	4	1	0	4	1
1697	540	10	10000	4	1	0	4	1
1869	540	10	10000	4	1	0	4	1
2085	541	10	10000	4	1	0	4	1
2254	543	10	10000	4	1	0	4	1
2248	544	10	10000	4	1	0	4	1
2169	545	10	10000	4	1	0	4	1
2145	546	10	10000	4	1	0	4	1
2117	547	10	10000	4	1	0	4	1
2041	548	10	10000	4	1	0	4	1
1965	549	10	10000	4	1	0	4	1
1935	550	10	10000	4	1	0	4	1
1902	550	10	10000	4	1	0	4	1
1863	551	10	10000	4	1	0	4	1
1786	553	10	10000	4	1	0	4	0
1711	554	10	10000	4	1	0	4	0
1653	555	10	10000	4	1	0	4	0
1616	556	10	10000	4	1	0	4	0
1582	557	10	10000	4	1	0	4	0
1553	558	10	10000	4	1	0	4	0
1520	559	10	10000	4	1	0	4	0
1568	560	10	10000	4	1	0	4	0
1705	560	10	10000	4	1	0	4	0
1885	561	10	10000	4	1	0	4	0
1963	563	10	10000	4	1	0	4	0
1906	564	10	10000	4	1	0	4	0
1909	565	10	10000	4	1	0	4	0
1962	566	10	10000	4	1	0	4	0
2004	567	10	10000	4	1	0	4	0
2014	568	10	10000	4	1	0	4	0
2086	569	10	10000	4	1	0	4	0
2175	570	10	10000	4	1	0	4	0
2235	570	10	10000	4	1	0	4	0
2276	571	10	10000	4	1	0	4	0
2282	573	10	10000	4	1	0	4	0
2262	574	10	10000	4	1	0	4	0
2195	575	10	10000	4	1	0	4	0
2104	576	10	10000	4	1	0	4	0
2020	577	10	10000	4	1	0	4	0
1955	578	10	10000	4	1	0	4	0
1951	579	10	10000	4	1	0	4	0
1902	580	10	10000	4	1	0	4	0
1974	581	10	10000	4	1	0	4	0
2089	582	10	10000	4	1	0	4	0
2178	583	10	10000	4	1	0	4	0
2181	584	10	10000	4	1	0	4	0
2098	585	10	10000	4	1	0	4	0
2046	586	10	10000	4	1	0	4	0
1996	587	10	10000	4	1	0	4	0
1934	588	10	10000	4	1	0	4	0
1937	589	10	10000	4	1	0	4	0
1995	590	10	10000	4	1	0	4	0
1976	591	10	10000	4	1	0	4	0
1937	592	10	10000	4	1	0	4	0
1926	593	10	10000	4	1	0	4	0
1908	594	10	10000	4	1	0	4	0
1838	595	10	10000	4	1	0	4	0
1819	596	10	10000	4	1	0	4	0
1829	597	10	10000	4	1	0	4	0
1863	598	10	10000	4	1	0	4	0
2043	599	10	10000	4	1	0	4	0
2333	600	10	10000	4	1	0	4	0
2333	600	10	10000	4	1	0	4	0
2571	601	10	10000	4	1	0	4	0
2667	603	10	10000	4	1	0	4	0
2580	604	10	10000	4	1	0	4	0
2541	605	10	10000	4	1	0	4	0
2554	606	10	10000	4	1	0	4	0
2628	607	10	10000	4	1	0	4	0
2845	608	10	10000	4	1	0	4	0
3138	609	10	10000	4	1	0	4	0
3447	610	10	10000	4	1	0	4	0
3650	610	10	10000	4	1	0	4	0
3788	611	10	10000	4	1	0	4	0
3749	613	10	10000	4	1	0	4	0
3610	614	10	10000	4	1	0	4	0
3569	615	10	10000	4	1	0	4	0
3570	616	10	10000	4	1	0	4	0
3551	617	10	10000	4	1	0	4	0
3463	618	10	10000	4	1	0	4	0
3310	619	10	10000	4	1	0	4	0
3164	620	10	10000	4	1	0	4	0
3029	620	10	10000	4	1	0	4	0
2951	621	10	10000	4	1	0	4	0
2986	623	10	10000	4	1	0	4	0
3151	624	10	10000	4	1	0	4	0
3296	625	10	10000	4	1	0	4	0
3387	626	10	10000	4	1	0	4	0
3433	627	10	10000	4	1	0	4	0
3444	628	10	10000	4	1	0	4	0
3422	629	10	10000	4	1	0	4	0
3371	630	10	10000	4	1	0	4	0
3296	631	10	10000	4	1	0	4	0
3181	632	10	10000	4	1	0	4	0
3211	633	10	10000	4	1	0	4	0
3362	634	10	10000	4	1	0	4	0
3573	635	10	10000	4	1	0	4	0
3779	636	10	10000	4	1	0	4	0
3929	637	10	10000	4	1	0	4	0
3977	638	10	10000	4	1	0	4	0
3893	639	10	10000	4	1	0	4	0
3755	640	10	10000	4	1	0	4	0
3675	641	10	10000	4	1	0	4	0
3552	642	10	10000	4	1	0	4	0
3449	643	10	10000	4	1	0	4	0
3311	644	10	10000	4	1	0	4	0
3196	645	10	10000	4	1	0	4	0
3139	646	10	10000	4	1	0	4	0
3152	647	10	10000	4	1	0	4	0
3164	648	10	10000	4	1	0	4	0
3149	649	10	10000	4	1	0	4	0
3107	650	10	10000	4	1	0	4	0
3044	650	10	10000	4	1	0	4	0
2940	651	10	10000	4	1	0	4	0
2972	653	10	10000	4	1	0	4	0
3116	654	10	10000	4	1	0	4	0
3312	655	10	10000	4	1	0	4	0
3501	656	10	10000	4	1	0	4	0
3629	657	10	10000	4	1	0	4	0
3656	658	10	10000	4	1	0	4	0
3554	659	10	10000	4	1	0	4	0
3454	660	10	10000	4	1	0	4	0
3467	661	10	10000	4	1	0	4	0
3424	662	10	10000	4	1	0	4	0
3341	663	10	10000	4	1	0	4	0
3260	664	10	10000	4	1	0	4	0
3124	665	10	10000	4	1	0	4	0
3001	666	10	10000	4	1	0	4	0
2957	667	10	10000	4	1	0	4	0
2965	668	10	10000	4	1	0	4	0
2956	669	10	10000	4	1	0	4	0
2924	670	10	10000	4	1	0	4	0
2872	670	10	10000	4	1	0	4	0
2775	671	10	10000	4	1	0	4	0
2805	673	10	10000	4	1	0	4	0
2941	674	10	10000	4	1	0	4	0
3124	675	10	10000	4	1	0	4	0
3299	676	10	10000	4	1	0	4	0
3414	677	10	10000	4	1	0	4	0
3429	678	10	10000	4	1	0	4	0
3321	679	10	10000	4	1	0	4	0
3243	680	10	10000	4	1	0	4	0
3172	680	10	10000	4	1	0	4	0
3056	681	10	10000	4	1	0	4	0
2980	683	10	10000	4	1	0	4	0
2860	684	10	10000	4	1	0	4	0
2736	685	10	10000	4	1	0	4	0
2635	686	10	10000	4	1	0	4	0
2597	687	10	10000	4	1	0	4	0
2601	688	10	10000	4	1	0	4	0
2632	689	10	10000	4	1	0	4	0
2646	690	10	10000	4	1	0	4	0
2558	690	10	10000	4	1	0	4	0
2511	691	10	10000	4	1	0	4	0
2511	693	10	10000	4	1	0	4	0
2536	694	10	10000	4	1	0	4	0
2610	695	10	10000	4	1	0	4	0
2688	696	10	10000	4	1	0	4	0
2725	697	10	10000	4	1	0	4	0
2681	698	10	10000	4	1	0	4	0
2640	699	10	10000	4	1	0	4	0
2725	700	10	10000	4	1	0	4	0
2882	700	10	10000	4	1	0	4	0
3061	701	10	10000	4	1	0	4	0
3230	703	10	10000	4	1	0	4	0
3278	704	10	10000	4	1	0	4	0
3206	705	10	10000	4	1	0	4	0
3081	706	10	10000	4	1	0	4	0
2960	707	10	10000	4	1	0	4	0
2887	708	10	10000	4	1	0	4	0
2815	709	10	10000	4	1	0	4	0
2703	710	10	10000	4	1	0	4	0
2601	711	10	10000	4	1	0	4	0
2483	712	10	10000	4	1	0	4	0
2376	713	10	10000	4	1	0	4	0
2274	714	10	10000	4	1	0	4	0
2188	715	10	10000	4	1	0	4	0
2163	716	10	10000	4	1	0	4	0
2158	717	10	10000	4	1	0	4	0
2161	718	10	10000	4	1	0	4	0
2099	719	10	10000	4	1	0	4	0
2115	720	10	10000	4	1	0	4	0
2225	720	10	10000	4	1	0	4	0
2324	721	10	10000	4	1	0	4	0
2264	723	10	10000	4	1	0	4	0
2253	724	10	10000	4	1	0	4	0
2321	725	10	10000	4	1	0	4	0
2409	726	10	10000	4	1	0	4	0
2464	727	10	10000	4	1	0	4	0
2443	728	10	10000	4	1	0	4	0
2357	729	10	10000	4	1	0	4	0
2371	730	10	10000	4	1	0	4	0
2470	730	10	10000	4	1	0	4	0
2518	731	10	10000	4	1	0	4	0
2521	733	10	10000	4	1	0	4	0
2503	734	10	10000	4	1	0	4	0
2437	735	10	10000	4	1	0	4	0
2369	736	10	10000	4	1	0	4	0
2308	737	10	10000	4	1	0	4	0
2235	738	10	10000	4	1	0	4	0
2428	739	10	10000	4	1	0	4	0
2798	740	10	10000	4	1	0	4	0
2956	741	10	10000	4	1	0	4	0
3039	742	10	10000	4	1	0	4	0
2959	743	10	10000	4	1	0	4	0
2889	744	10	10000	4	1	0	4	0
2897	745	10	10000	4	1	0	4	0
2924	746	10	10000	4	1	0	4	0
2918	747	10	10000	4	1	0	4	0
2840	748	10	10000	4	1	0	4	0
2750	749	10	10000	4	1	0	4	0
2781	750	10	10000	4	1	0	4	0
2857	751	10	10000	4	1	0	4	0
2753	752	10	10000	4	1	0	4	0
2672	753	10	10000	4	1	0	4	0
2712	754	10	10000	4	1	0	4	0
2747	755	10	10000	4	1	0	4	0
2679	756	10	10000	4	1	0	4	0
2588	757	10	10000	4	1	0	4	0
2471	758	10	10000	4	1	0	4	0
2371	759	10	10000	4	1	0	4	0
2318	760	10	10000	4	1	0	4	0
2330	760	10	10000	4	1	0	4	0
2301	761	10	10000	4	1	0	4	0
2248	763	10	10000	4	1	0	4	0
2312	764	10	10000	4	1	0	4	0
2433	765	10	10000	4	1	0	4	0
2556	766	10	10000	4	1	0	4	0
2632	767	10	10000	4	1	0	4	0
2625	768	10	10000	4	1	0	4	0
2532	769	10	10000	4	1	0	4	0
2524	770	10	10000	4	1	0	4	0
2614	770	10	10000	4	1	0	4	0
2682	771	10	10000	4	1	0	4	0
2712	773	10	10000	4	1	0	4	0
2690	774	10	10000	4	1	0	4	0
2588	775	10	10000	4	1	0	4	0
2540	776	10	10000	4	1	0	4	0
2510	777	10	10000	4	1	0	4	0
2455	778	10	10000	4	1	0	4	0
2362	779	10	10000	4	1	0	4	0
2324	780	10	10000	4	1	0	4	0
2270	780	10	10000	4	1	0	4	0
2219	781	10	10000	4	1	0	4	0
2196	783	10	10000	4	1	0	4	0
2282	784	10	10000	4	1	0	4	0
2417	785	10	10000	4	1	0	4	0
2550	786	10	10000	4	1	0	4	0
2634	787	10	10000	4	1	0	4	0
2632	788	10	10000	4	1	0	4	0
2538	789	10	10000	4	1	0	4	0
2511	790	10	10000	4	1	0	4	0
2535	790	10	10000	4	1	0	4	0
2596	791	10	10000	4	1	0	4	0
2650	793	10	10000	4	1	0	4	0
2634	794	10	10000	4	1	0	4	0
2537	795	10	10000	4	1	0	4	0
2502	796	10	10000	4	1	0	4	0
2486	797	10	10000	4	1	0	4	0
2429	798	10	10000	4	1	0	4	0
2365	799	10	10000	4	1	0	4	0
2513	800	10	10000	4	1	0	4	0
2675	800	10	10000	4	1	0	4	0
2758	801	10	10000	4	1	0	4	0
2686	803	10	10000	4	1	0	4	0
2622	804	10	10000	4	1	0	4	0
2624	805	10	10000	4	1	0	4	0
2641	806	10	10000	4	1	0	4	0
2625	807	10	10000	4	1	0	4	0
2540	808	10	10000	4	1	0	4	0
2480	809	10	10000	4	1	0	4	0
2537	810	10	10000	4	1	0	4	0
2680	810	10	10000	4	1	0	4	0
2779	811	10	10000	4	1	0	4	0
2791	813	10	10000	4	1	0	4	0
2725	814	10	10000	4	1	0	4	0
2626	815	10	10000	4	1	0	4	0
2582	816	10	10000	4	1	0	4	0
2552	817	10	10000	4	1	0	4	0
2515	818	10	10000	4	1	0	4	0
2418	819	10	10000	4	1	0	4	0
2392	820	10	10000	4	1	0	4	0
2444	820	10	10000	4	1	0	4	0
2447	821	10	10000	4	1	0	4	0
2368	823	10	10000	4	1	0	4	0
2387	824	10	10000	4	1	0	4	0
2463	825	10	10000	4	1	0	4	0
2544	826	10	10000	4	1	0	4	0
2585	827	10	10000	4	1	0	4	0
2549	828	10	10000	4	1	0	4	0
2443	829	10	10000	4	1	0	4	0
2373	830	10	10000	4	1	0	4	0
2335	830	10	10000	4	1	0	4	0
2304	831	10	10000	4	1	0	4	0
2233	833	10	10000	4	1	0	4	0
2139	834	10	10000	4	1	0	4	0
2043	835	10	10000	4	1	0	4	0
1950	836	10	10000	4	1	0	4	0
1876	837	10	10000	4	1	0	4	0
1794	838	10	10000	4	1	0	4	0
1807	839	10	10000	4	1	0	4	0
1976	840	10	10000	4	1	0	4	0
2081	840	10	10000	4	1	0	4	0
2170	841	10	10000	4	1	0	4	0
2110	843	10	10000	4	1	0	4	0
2085	844	10	10000	4	1	0	4	0
2122	845	10	10000	4	1	0	4	0
2169	846	10	10000	4	1	0	4	0
2181	847	10	10000	4	1	0	4	0
2121	848	10	10000	4	1	0	4	0
2049	849	10	10000	4	1	0	4	0
1973	850	10	10000	4	1	0	4	0
1893	850	10	10000	4	1	0	4	0
1811	851	10	10000	4	1	0	4	0
1747	853	10	10000	4	1	0	4	0
1721	854	10	10000	4	1	0	4	0
1758	855	10	10000	4	1	0	4	0
1840	856	10	10000	4	1	0	4	0
1883	857	10	10000	4	1	0	4	0
1885	858	10	10000	4	1	0	4	0
1826	859	10	10000	4	1	0	4	0
1908	860	10	10000	4	1	0	4	0
2106	860	10	10000	4	1	0	4	0
2260	861	10	10000	4	1	0	4	0
2250	863	10	10000	4	1	0	4	0
2171	864	10	10000	4	1	0	4	0
2155	865	10	10000	4	1	0	4	0
2155	866	10	10000	4	1	0	4	0
2127	867	10	10000	4	1	0	4	0
2045	868	10	10000	4	1	0	4	0
1991	869	10	10000	4	1	0	4	0
1971	870	10	10000	4	1	0	4	0
1906	870	10	10000	4	1	0	4	0
1844	871	10	10000	4	1	0	4	0
1767	873	10	10000	4	1	0	4	0
1692	874	10	10000	4	1	0	4	0
1672	875	10	10000	4	1	0	4	0
1727	876	10	10000	4	1	0	4	0
1812	877	10	10000	4	1	0	4	0
1807	878	10	10000	4	1	0	4	0
1755	879	10	10000	4	1	0	4	0
1814	880	10	10000	4	1	0	4	0
1995	880	10	10000	4	1	0	4	0
2185	881	10	10000	4	1	0	4	0
2233	883	10	10000	4	1	0	4	0
2156	884	10	10000	4	1	0	4	0
2100	885	10	10000	4	1	0	4	0
2066	886	10	10000	4	1	0	4	0
2007	887	10	10000	4	1	0	4	0
1939	888	10	10000	4	1	0	4	0
1887	889	10	10000	4	1	0	4	0
1830	890	10	10000	4	1	0	4	0
1796	890	10	10000	4	1	0	4	0
1785	891	10	10000	4	1	0	4	0
1759	893	10	10000	4	1	0	4	0
1729	894	10	10000	4	1	0	4	0
1764	895	10	10000	4	1	0	4	0
1861	896	10	10000	4	1	0	4	0
1934	897	10	10000	4	1	0	4	0
1944	898	10	10000	4	1	0	4	0
1883	899	10	10000	4	1	0	4	0
1923	900	10	10000	4	1	0	4	0
2064	900	10	10000	4	1	0	4	0
2223	901	10	10000	4	1	0	4	0
2304	903	10	10000	4	1	0	4	0
2265	904	10	10000	4	1	0	4	0
2170	905	10	10000	4	1	0	4	0
2095	906	10	10000	4	1	0	4	0
2008	907	10	10000	4	1	0	4	0
1928	908	10	10000	4	1	0	4	0
1888	909	10	10000	4	1	0	4	0
1904	910	10	10000	4	1	0	4	0
1922	910	10	10000	4	1	0	4	0
1950	911	10	10000	4	1	0	4	0
1933	913	10	10000	4	1	0	4	0
1914	914	10	10000	4	1	0	4	0
1945	915	10	10000	4	1	0	4	0
1963	916	10	10000	4	1	0	4	0
1980	917	10	10000	4	1	0	4	0
2034	918	10	10000	4	1	0	4	0
2050	919	10	10000	4	1	0	4	0
2015	920	10	10000	4	1	0	4	0
2113	920	10	10000	4	1	0	4	0
2272	921	10	10000	4	1	0	4	0
2411	923	10	10000	4	1	0	4	0
2462	924	10	10000	4	1	0	4	0
2423	925	10	10000	4	1	0	4	0
2352	926	10	10000	4	1	0	4	0
2299	927	10	10000	4	1	0	4	0
2299	928	10	10000	4	1	0	4	0
2273	929	10	10000	4	1	0	4	0
2172	930	10	10000	4	1	0	4	0
2074	930	10	10000	4	1	0	4	0
1998	931	10	10000	4	1	0	4	0
1926	933	10	10000	4	1	0	4	0
1873	934	10	10000	4	1	0	4	0
1865	935	10	10000	4	1	0	4	0
1896	936	10	10000	4	1	0	4	0
1929	937	10	10000	4	1	0	4	0
1904	938	10	10000	4	1	0	4	0
1902	939	10	10000	4	1	0	4	0
2065	940	10	10000	4	1	0	4	0
2301	940	10	10000	4	1	0	4	0
2504	941	10	10000	4	1	0	4	0
2538	943	10	10000	4	1	0	4	0
2446	944	10	10000	4	1	0	4	0
2382	945	10	10000	4	1	0	4	0
2343	946	10	10000	4	1	0	4	0
2274	947	10	10000	4	1	0	4	0
2194	948	10	10000	4	1	0	4	0
2153	949	10	10000	4	1	0	4	0
2085	950	10	10000	4	1	0	4	0
2028	950	10	10000	4	1	0	4	0
1978	951	10	10000	4	1	0	4	0
1921	953	10	10000	4	1	0	4	0
1887	954	10	10000	4	1	0	4	0
1898	955	10	10000	4	1	0	4	0
1934	956	10	10000	4	1	0	4	0
1975	957	10	10000	4	1	0	4	0
1992	958	10	10000	4	1	0	4	0
1933	959	10	10000	4	1	0	4	0
1982	960	10	10000	4	1	0	4	0
2116	960	10	10000	4	1	0	4	0
2258	961	10	10000	4	1	0	4	0
2265	963	10	10000	4	1	0	4	0
2183	964	10	10000	4	1	0	4	0
2161	965	10	10000	4	1	0	4	0
2156	966	10	10000	4	1	0	4	0
2118	967	10	10000	4	1	0	4	0
2039	968	10	10000	4	1	0	4	0
1968	969	10	10000	4	1	0	4	0
1904	970	10	10000	4	1	0	4	0
1833	970	10	10000	4	1	0	4	0
1773	971	10	10000	4	1	0	4	0
1714	973	10	10000	4	1	0	4	0
1658	974	10	10000	4	1	0	4	0
1651	975	10	10000	4	1	0	4	0
1704	976	10	10000	4	1	0	4	0
1775	977	10	10000	4	1	0	4	0
1840	978	10	10000	4	1	0	4	0
1861	979	10	10000	4	1	0	4	0
1803	980	10	10000	4	1	0	4	0
1839	980	10	10000	4	1	0	4	0
1906	981	10	10000	4	1	0	4	0
1942	983	10	10000	4	1	0	4	0
1877	984	10	10000	4	1	0	4	0
1844	985	10	10000	4	1	0	4	0
1832	986	10	10000	4	1	0	4	0
1792	987	10	10000	4	1	0	4	0
1746	988	10	10000	4	1	0	4	0
1769	989	10	10000	4	1	0	4	0
1856	990	10	10000	4	1	0	4	0
1929	990	10	10000	4	1	0	4	0
1989	991	10	10000	4	1	0	4	0
2009	993	10	10000	4	1	0	4	0
2008	994	10	10000	4	1	0	4	0
1999	995	10	10000	4	1	0	4	0
1967	996	10	10000	4	1	0	4	0
1945	997	10	10000	4	1	0	4	0
1943	998	10	10000	4	1	0	4	0
1879	999	10	10000	4	1	0	4	0
1916	1000	10	10000	4	1	0	4	0
2053	1000	10	10000	4	1	0	4	0
2225	1001	10	10000	4	1	0	4	0
1080	1	0	10000	5	1	0	5	0
1071	2	0	10000	5	1	0	5	0
1060	3	0	10000	5	1	0	5	0
1055	4	0	10000	5	1	0	5	0
1019	5	0	10000	5	1	0	5	0
991	6	0	10000	5	1	0	5	0
962	7	0	10000	5	1	0	5	0
975	8	0	10000	5	1	0	5	0
1009	9	0	10000	5	1	0	5	0
1068	10	0	10000	5	1	0	5	0
1108	11	0	10000	5	1	0	5	0
1158	12	0	10000	5	1	0	5	0
1160	13	0	10000	5	1	0	5	0
1127	14	0	10000	5	1	0	5	0
1123	15	0	10000	5	1	0	5	0
1170	16	0	10000	5	1	0	5	0
1248	17	0	10000	5	1	0	5	0
1318	18	0	10000	5	1	0	5	0
1327	19	0	10000	5	1	0	5	0
1292	20	0	10000	5	1	0	5	0
1275	21	0	10000	5	1	0	5	0
1251	22	0	10000	5	1	0	5	0
1281	23	0	10000	5	1	0	5	0
1326	24	0	10000	5	1	0	5	0
1348	25	0	10000	5	1	0	5	0
1346	26	0	10000	5	1	0	5	0
1336	27	0	10000	5	1	0	5	0
1306	28	0	10000	5	1	0	5	0
1270	29	0	10000	5	1	0	5	0
1221	30	0	10000	5	1	0	5	0
1210	31	0	10000	5	1	0	5	0
1239	32	0	10000	5	1	0	5	0
1196	33	0	10000	5	1	0	5	0
1165	34	0	10000	5	1	0	5	0
1163	35	0	10000	5	1	0	5	0
1171	36	0	10000	5	1	0	5	0
1192	37	0	10000	5	1	0	5	0
1212	38	0	10000	5	1	0	5	0
1180	39	0	10000	5	1	0	5	0
1191	40	0	10000	5	1	0	5	0
1234	41	0	10000	5	1	0	5	0
1207	42	0	10000	5	1	0	5	0
1240	43	0	10000	5	1	0	5	0
1304	44	0	10000	5	1	0	5	0
1355	45	0	10000	5	1	0	5	0
1343	46	0	10000	5	1	0	5	0
1316	47	0	10000	5	1	0	5	0
1266	48	0	10000	5	1	0	5	0
1223	49	0	10000	5	1	0	5	0
1192	50	0	10000	5	1	0	5	0
1190	51	0	10000	5	1	0	5	0
1194	52	0	10000	5	1	0	5	0
1159	53	0	10000	5	1	0	5	0
1134	54	0	10000	5	1	0	5	0
1130	55	0	10000	5	1	0	5	0
1122	56	0	10000	5	1	0	5	0
1093	57	0	10000	5	1	0	5	0
1065	58	0	10000	5	1	0	5	0
1038	59	0	10000	5	1	0	5	0
1079	60	0	10000	5	1	0	5	0
1089	61	0	10000	5	1	0	5	0
1064	62	0	10000	5	1	0	5	0
1090	63	0	10000	5	1	0	5	0
1123	64	0	10000	5	1	0	5	0
1098	65	0	10000	5	1	0	5	0
1065	66	0	10000	5	1	0	5	0
1039	67	0	10000	5	1	0	5	0
1058	68	0	10000	5	1	0	5	0
1106	69	0	10000	5	1	0	5	0
1171	70	0	10000	5	1	0	5	0
1259	71	0	10000	5	1	0	5	0
1357	72	0	10000	5	1	0	5	0
1366	73	0	10000	5	1	0	5	0
1321	74	0	10000	5	1	0	5	0
1305	75	0	10000	5	1	0	5	0
1299	76	0	10000	5	1	0	5	0
1321	77	0	10000	5	1	0	5	0
1338	78	0	10000	5	1	0	5	0
1302	79	0	10000	5	1	0	5	0
1306	80	0	10000	5	1	0	5	0
1328	81	0	10000	5	1	0	5	0
1290	82	0	10000	5	1	0	5	0
1305	83	0	10000	5	1	0	5	0
1353	84	0	10000	5	1	0	5	0
1356	85	0	10000	5	1	0	5	0
1308	86	0	10000	5	1	0	5	0
1262	87	0	10000	5	1	0	5	0
1252	88	0	10000	5	1	0	5	0
1270	89	0	10000	5	1	0	5	0
1318	90	0	10000	5	1	0	5	0
1378	91	0	10000	5	1	0	5	0
1412	92	0	10000	5	1	0	5	0
1369	93	0	10000	5	1	0	5	0
1329	94	0	10000	5	1	0	5	0
1334	95	0	10000	5	1	0	5	0
1345	96	0	10000	5	1	0	5	0
1388	97	0	10000	5	1	0	5	0
1422	98	0	10000	5	1	0	5	0
1398	99	0	10000	5	1	0	5	0
1362	100	0	10000	5	1	0	5	0
1317	101	0	10000	5	1	0	5	0
1328	102	0	10000	5	1	0	5	0
1424	103	0	10000	5	1	0	5	0
1521	104	0	10000	5	1	0	5	0
1557	105	0	10000	5	1	0	5	0
1535	106	0	10000	5	1	0	5	0
1487	107	0	10000	5	1	0	5	0
1430	108	0	10000	5	1	0	5	0
1387	109	0	10000	5	1	0	5	0
1327	110	0	10000	5	1	0	5	0
1314	111	0	10000	5	1	0	5	0
1319	112	0	10000	5	1	0	5	0
1298	113	0	10000	5	1	0	5	0
1264	114	0	10000	5	1	0	5	0
1229	115	0	10000	5	1	0	5	0
1201	116	0	10000	5	1	0	5	0
1158	117	0	10000	5	1	0	5	0
1111	118	0	10000	5	1	0	5	0
1103	119	0	10000	5	1	0	5	0
1179	120	0	10000	5	1	0	5	0
1283	121	0	10000	5	1	0	5	0
1276	122	0	10000	5	1	0	5	0
1260	123	0	10000	5	1	0	5	0
1266	124	0	10000	5	1	0	5	0
1237	125	0	10000	5	1	0	5	0
1197	126	0	10000	5	1	0	5	0
1151	127	0	10000	5	1	0	5	0
1104	128	0	10000	5	1	0	5	0
1056	129	0	10000	5	1	0	5	0
1023	130	0	10000	5	1	0	5	0
1013	131	0	10000	5	1	0	5	0
1023	132	0	10000	5	1	0	5	0
984	133	0	10000	5	1	0	5	0
969	134	0	10000	5	1	0	5	0
980	135	0	10000	5	1	0	5	0
975	136	0	10000	5	1	0	5	0
959	137	0	10000	5	1	0	5	0
939	138	0	10000	5	1	0	5	0
920	139	0	10000	5	1	0	5	0
961	140	0	10000	5	1	0	5	0
998	141	0	10000	5	1	0	5	0
986	142	0	10000	5	1	0	5	0
1050	143	0	10000	5	1	0	5	0
1134	144	0	10000	5	1	0	5	0
1171	145	0	10000	5	1	0	5	0
1140	146	0	10000	5	1	0	5	0
1091	147	0	10000	5	1	0	5	0
1047	148	0	10000	5	1	0	5	0
1004	149	0	10000	5	1	0	5	0
972	150	0	10000	5	1	0	5	0
943	151	0	10000	5	1	0	5	0
952	152	0	10000	5	1	0	5	0
920	153	0	10000	5	1	0	5	0
903	154	0	10000	5	1	0	5	0
921	155	0	10000	5	1	0	5	0
913	156	0	10000	5	1	0	5	0
880	157	0	10000	5	1	0	5	0
865	158	0	10000	5	1	0	5	0
899	159	0	10000	5	1	0	5	0
1005	160	0	10000	5	1	0	5	0
1084	161	0	10000	5	1	0	5	0
1065	162	0	10000	5	1	0	5	0
1098	163	0	10000	5	1	0	5	0
1146	164	0	10000	5	1	0	5	0
1135	165	0	10000	5	1	0	5	0
1100	166	0	10000	5	1	0	5	0
1080	167	0	10000	5	1	0	5	0
1064	168	0	10000	5	1	0	5	0
1048	169	0	10000	5	1	0	5	0
1040	170	0	10000	5	1	0	5	0
1077	171	0	10000	5	1	0	5	0
1120	172	0	10000	5	1	0	5	0
1089	173	0	10000	5	1	0	5	0
1048	174	0	10000	5	1	0	5	0
1019	175	0	10000	5	1	0	5	0
999	176	0	10000	5	1	0	5	0
986	177	0	10000	5	1	0	5	0
955	178	0	10000	5	1	0	5	0
946	179	0	10000	5	1	0	5	0
1019	180	0	10000	5	1	0	5	0
1085	181	0	10000	5	1	0	5	0
1068	182	0	10000	5	1	0	5	0
1109	183	0	10000	5	1	0	5	0
1157	184	0	10000	5	1	0	5	0
1159	185	0	10000	5	1	0	5	0
1127	186	0	10000	5	1	0	5	0
1084	187	0	10000	5	1	0	5	0
1036	188	0	10000	5	1	0	5	0
995	189	0	10000	5	1	0	5	0
985	190	0	10000	5	1	0	5	0
1027	191	0	10000	5	1	0	5	0
1022	192	0	10000	5	1	0	5	0
1013	193	0	10000	5	1	0	5	0
1026	194	0	10000	5	1	0	5	0
1072	195	0	10000	5	1	0	5	0
1100	196	0	10000	5	1	0	5	0
1077	197	0	10000	5	1	0	5	0
1032	198	0	10000	5	1	0	5	0
1026	199	0	10000	5	1	0	5	0
1055	200	0	10000	5	1	0	5	0
1073	201	0	10000	5	1	0	5	0
1049	202	0	10000	5	1	0	5	0
1087	203	0	10000	5	1	0	5	0
1122	204	0	10000	5	1	0	5	0
1118	205	0	10000	5	1	0	5	0
1082	206	0	10000	5	1	0	5	0
1050	207	0	10000	5	1	0	5	0
1045	208	0	10000	5	1	0	5	0
1032	209	0	10000	5	1	0	5	0
1070	210	0	10000	5	1	0	5	0
1152	211	0	10000	5	1	0	5	0
1220	212	0	10000	5	1	0	5	0
1226	213	0	10000	5	1	0	5	0
1184	214	0	10000	5	1	0	5	0
1157	215	0	10000	5	1	0	5	0
1135	216	0	10000	5	1	0	5	0
1128	217	0	10000	5	1	0	5	0
1114	218	0	10000	5	1	0	5	0
1080	219	0	10000	5	1	0	5	0
1094	220	0	10000	5	1	0	5	0
1099	221	0	10000	5	1	0	5	0
1106	222	0	10000	5	1	0	5	0
1161	223	0	10000	5	1	0	5	0
1223	224	0	10000	5	1	0	5	0
1280	225	0	10000	5	1	0	5	0
1268	226	0	10000	5	1	0	5	0
1217	227	0	10000	5	1	0	5	0
1166	228	0	10000	5	1	0	5	0
1113	229	0	10000	5	1	0	5	0
1099	230	0	10000	5	1	0	5	0
1134	231	0	10000	5	1	0	5	0
1180	232	0	10000	5	1	0	5	0
1135	233	0	10000	5	1	0	5	0
1111	234	0	10000	5	1	0	5	0
1114	235	0	10000	5	1	0	5	0
1097	236	0	10000	5	1	0	5	0
1060	237	0	10000	5	1	0	5	0
1020	238	0	10000	5	1	0	5	0
1009	239	0	10000	5	1	0	5	0
1058	240	0	10000	5	1	0	5	0
1085	241	0	10000	5	1	0	5	0
1064	242	0	10000	5	1	0	5	0
1098	243	0	10000	5	1	0	5	0
1137	244	0	10000	5	1	0	5	0
1153	245	0	10000	5	1	0	5	0
1112	246	0	10000	5	1	0	5	0
1069	247	0	10000	5	1	0	5	0
1045	248	0	10000	5	1	0	5	0
1051	249	0	10000	5	1	0	5	0
1090	250	0	10000	5	1	0	5	0
1149	251	0	10000	5	1	0	5	0
1219	252	0	10000	5	1	0	5	0
1212	253	0	10000	5	1	0	5	0
1168	254	0	10000	5	1	0	5	0
1115	255	0	10000	5	1	0	5	0
1084	256	0	10000	5	1	0	5	0
1088	257	0	10000	5	1	0	5	0
1090	258	0	10000	5	1	0	5	0
1058	259	0	10000	5	1	0	5	0
1100	260	0	10000	5	1	0	5	0
1157	261	0	10000	5	1	0	5	0
1132	262	0	10000	5	1	0	5	0
1163	263	0	10000	5	1	0	5	0
1232	264	0	10000	5	1	0	5	0
1248	265	0	10000	5	1	0	5	0
1201	266	0	10000	5	1	0	5	0
1154	267	0	10000	5	1	0	5	0
1147	268	0	10000	5	1	0	5	0
1163	269	0	10000	5	1	0	5	0
1185	270	0	10000	5	1	0	5	0
1213	271	0	10000	5	1	0	5	0
1219	272	0	10000	5	1	0	5	0
1187	273	0	10000	5	1	0	5	0
1181	274	0	10000	5	1	0	5	0
1217	275	0	10000	5	1	0	5	0
1225	276	0	10000	5	1	0	5	0
1239	277	0	10000	5	1	0	5	0
1246	278	0	10000	5	1	0	5	0
1207	279	0	10000	5	1	0	5	0
1224	280	0	10000	5	1	0	5	0
1235	281	0	10000	5	1	0	5	0
1220	282	0	10000	5	1	0	5	0
1287	283	0	10000	5	1	0	5	0
1368	284	0	10000	5	1	0	5	0
1392	285	0	10000	5	1	0	5	0
1370	286	0	10000	5	1	0	5	0
1319	287	0	10000	5	1	0	5	0
1267	288	0	10000	5	1	0	5	0
1222	289	0	10000	5	1	0	5	0
1222	290	0	10000	5	1	0	5	0
1270	291	0	10000	5	1	0	5	0
1329	292	0	10000	5	1	0	5	0
1303	293	0	10000	5	1	0	5	0
1275	294	0	10000	5	1	0	5	0
1307	295	0	10000	5	1	0	5	0
1324	296	0	10000	5	1	0	5	0
1316	297	0	10000	5	1	0	5	0
1284	298	0	10000	5	1	0	5	0
1246	299	0	10000	5	1	0	5	0
1251	300	0	10000	5	1	0	5	0
1228	301	0	10000	5	1	0	5	0
1225	302	0	10000	5	1	0	5	0
1292	303	0	10000	5	1	0	5	0
1364	304	0	10000	5	1	0	5	0
1375	305	0	10000	5	1	0	5	0
1337	306	0	10000	5	1	0	5	0
1286	307	0	10000	5	1	0	5	0
1255	308	0	10000	5	1	0	5	0
1204	309	0	10000	5	1	0	5	0
1169	310	0	10000	5	1	0	5	0
1169	311	0	10000	5	1	0	5	0
1189	312	0	10000	5	1	0	5	0
1144	313	0	10000	5	1	0	5	0
1106	314	0	10000	5	1	0	5	0
1103	315	0	10000	5	1	0	5	0
1099	316	0	10000	5	1	0	5	0
1089	317	0	10000	5	1	0	5	0
1058	318	0	10000	5	1	0	5	0
1067	319	0	10000	5	1	0	5	0
1095	320	0	10000	5	1	0	5	0
1130	321	0	10000	5	1	0	5	0
1098	322	0	10000	5	1	0	5	0
1114	323	0	10000	5	1	0	5	0
1141	324	0	10000	5	1	0	5	0
1121	325	0	10000	5	1	0	5	0
1086	326	0	10000	5	1	0	5	0
1066	327	0	10000	5	1	0	5	0
1058	328	0	10000	5	1	0	5	0
1064	329	0	10000	5	1	0	5	0
1090	330	0	10000	5	1	0	5	0
1126	331	0	10000	5	1	0	5	0
1164	332	0	10000	5	1	0	5	0
1125	333	0	10000	5	1	0	5	0
1082	334	0	10000	5	1	0	5	0
1075	335	0	10000	5	1	0	5	0
1085	336	0	10000	5	1	0	5	0
1058	337	0	10000	5	1	0	5	0
1017	338	0	10000	5	1	0	5	0
1015	339	0	10000	5	1	0	5	0
1047	340	0	10000	5	1	0	5	0
1038	341	0	10000	5	1	0	5	0
1044	342	0	10000	5	1	0	5	0
1119	343	0	10000	5	1	0	5	0
1214	344	0	10000	5	1	0	5	0
1249	345	0	10000	5	1	0	5	0
1207	346	0	10000	5	1	0	5	0
1189	347	0	10000	5	1	0	5	0
1175	348	0	10000	5	1	0	5	0
1159	349	0	10000	5	1	0	5	0
1139	350	0	10000	5	1	0	5	0
1127	351	0	10000	5	1	0	5	0
1093	352	0	10000	5	1	0	5	0
1088	353	0	10000	5	1	0	5	0
1106	354	0	10000	5	1	0	5	0
1149	355	0	10000	5	1	0	5	0
1173	356	0	10000	5	1	0	5	0
1164	357	0	10000	5	1	0	5	0
1128	358	0	10000	5	1	0	5	0
1125	359	0	10000	5	1	0	5	0
1122	360	0	10000	5	1	0	5	0
1084	361	0	10000	5	1	0	5	0
1108	362	0	10000	5	1	0	5	0
1190	363	0	10000	5	1	0	5	0
1258	364	0	10000	5	1	0	5	0
1249	365	0	10000	5	1	0	5	0
1239	366	0	10000	5	1	0	5	0
1284	367	0	10000	5	1	0	5	0
1320	368	0	10000	5	1	0	5	0
1299	369	0	10000	5	1	0	5	0
1255	370	0	10000	5	1	0	5	0
1257	371	0	10000	5	1	0	5	0
1271	372	0	10000	5	1	0	5	0
1229	373	0	10000	5	1	0	5	0
1203	374	0	10000	5	1	0	5	0
1201	375	0	10000	5	1	0	5	0
1184	376	0	10000	5	1	0	5	0
1149	377	0	10000	5	1	0	5	0
1135	378	0	10000	5	1	0	5	0
1138	379	0	10000	5	1	0	5	0
1137	380	0	10000	5	1	0	5	0
1110	381	0	10000	5	1	0	5	0
1119	382	0	10000	5	1	0	5	0
1186	383	0	10000	5	1	0	5	0
1247	384	0	10000	5	1	0	5	0
1229	385	0	10000	5	1	0	5	0
1241	386	0	10000	5	1	0	5	0
1300	387	0	10000	5	1	0	5	0
1347	388	0	10000	5	1	0	5	0
1338	389	0	10000	5	1	0	5	0
1329	390	0	10000	5	1	0	5	0
1358	391	0	10000	5	1	0	5	0
1382	392	0	10000	5	1	0	5	0
1344	393	0	10000	5	1	0	5	0
1324	394	0	10000	5	1	0	5	0
1381	395	0	10000	5	1	0	5	0
1419	396	0	10000	5	1	0	5	0
1392	397	0	10000	5	1	0	5	0
1370	398	0	10000	5	1	0	5	0
1384	399	0	10000	5	1	0	5	0
1405	400	0	10000	5	1	0	5	0
1391	401	0	10000	5	1	0	5	0
1368	402	0	10000	5	1	0	5	0
1416	403	0	10000	5	1	0	5	0
1456	404	0	10000	5	1	0	5	0
1429	405	0	10000	5	1	0	5	0
1414	406	0	10000	5	1	0	5	0
1449	407	0	10000	5	1	0	5	0
1473	408	0	10000	5	1	0	5	0
1443	409	0	10000	5	1	0	5	0
1424	410	0	10000	5	1	0	5	0
