value	EMG	Stimulus	EMG_sensitivity	Total_Trial_Nr	practise	acq	probe_nr	Startle_Probe
13	2	7	10000	1	1	0	1	0
13	3	7	10000	1	1	0	1	0
12	4	7	10000	1	1	0	1	0
12	5	7	10000	1	1	0	1	0
12	6	7	10000	1	1	0	1	0
13	7	7	10000	1	1	0	1	0
14	8	7	10000	1	1	0	1	0
15	9	7	10000	1	1	0	1	0
12	10	7	10000	1	1	0	1	0
12	11	7	10000	1	1	0	1	0
13	12	7	10000	1	1	0	1	0
14	13	7	10000	1	1	0	1	0
14	14	7	10000	1	1	0	1	0
14	15	7	10000	1	1	0	1	0
14	16	7	10000	1	1	0	1	0
14	17	7	10000	1	1	0	1	0
14	18	7	10000	1	1	0	1	0
14	19	7	10000	1	1	0	1	0
15	20	7	10000	1	1	0	1	0
15	21	7	10000	1	1	0	1	0
15	22	7	10000	1	1	0	1	0
14	23	7	10000	1	1	0	1	0
14	24	7	10000	1	1	0	1	0
13	25	7	10000	1	1	0	1	0
12	26	7	10000	1	1	0	1	0
12	27	7	10000	1	1	0	1	0
13	28	7	10000	1	1	0	1	0
13	29	7	10000	1	1	0	1	0
10	30	7	10000	1	1	0	1	0
11	31	7	10000	1	1	0	1	0
11	32	7	10000	1	1	0	1	0
12	33	7	10000	1	1	0	1	0
12	34	7	10000	1	1	0	1	0
12	35	7	10000	1	1	0	1	0
12	36	7	10000	1	1	0	1	0
11	37	7	10000	1	1	0	1	0
10	38	7	10000	1	1	0	1	0
10	39	7	10000	1	1	0	1	0
12	40	7	10000	1	1	0	1	0
12	41	7	10000	1	1	0	1	0
12	42	7	10000	1	1	0	1	0
12	43	7	10000	1	1	0	1	0
13	44	7	10000	1	1	0	1	0
13	45	7	10000	1	1	0	1	0
12	46	7	10000	1	1	0	1	0
13	47	7	10000	1	1	0	1	0
15	48	7	10000	1	1	0	1	0
15	49	7	10000	1	1	0	1	0
12	50	7	10000	1	1	0	1	0
14	51	7	10000	1	1	0	1	0
15	52	7	10000	1	1	0	1	0
15	53	7	10000	1	1	0	1	0
14	54	7	10000	1	1	0	1	0
15	55	7	10000	1	1	0	1	0
15	56	7	10000	1	1	0	1	0
14	57	7	10000	1	1	0	1	0
14	58	7	10000	1	1	0	1	0
15	59	7	10000	1	1	0	1	0
17	60	7	10000	1	1	0	1	0
18	61	7	10000	1	1	0	1	0
17	62	7	10000	1	1	0	1	0
17	63	7	10000	1	1	0	1	0
17	64	7	10000	1	1	0	1	0
16	65	7	10000	1	1	0	1	0
16	66	7	10000	1	1	0	1	0
19	67	7	10000	1	1	0	1	0
19	68	7	10000	1	1	0	1	0
19	69	7	10000	1	1	0	1	0
17	70	7	10000	1	1	0	1	0
18	71	7	10000	1	1	0	1	0
18	72	7	10000	1	1	0	1	0
20	73	7	10000	1	1	0	1	0
19	74	7	10000	1	1	0	1	0
20	75	7	10000	1	1	0	1	0
19	76	7	10000	1	1	0	1	0
19	77	7	10000	1	1	0	1	0
18	78	7	10000	1	1	0	1	0
16	79	7	10000	1	1	0	1	0
17	80	7	10000	1	1	0	1	0
18	81	7	10000	1	1	0	1	0
18	82	7	10000	1	1	0	1	0
18	83	7	10000	1	1	0	1	0
18	84	7	10000	1	1	0	1	0
17	85	7	10000	1	1	0	1	0
16	86	7	10000	1	1	0	1	0
17	87	7	10000	1	1	0	1	0
17	88	7	10000	1	1	0	1	0
17	89	7	10000	1	1	0	1	0
14	90	7	10000	1	1	0	1	0
15	91	7	10000	1	1	0	1	0
15	92	7	10000	1	1	0	1	0
15	93	7	10000	1	1	0	1	0
15	94	7	10000	1	1	0	1	0
16	95	7	10000	1	1	0	1	0
15	96	7	10000	1	1	0	1	0
15	97	7	10000	1	1	0	1	0
15	98	7	10000	1	1	0	1	0
14	99	7	10000	1	1	0	1	0
16	100	7	10000	1	1	0	1	0
15	101	7	10000	1	1	0	1	0
15	102	7	10000	1	1	0	1	0
14	103	7	10000	1	1	0	1	0
14	104	7	10000	1	1	0	1	0
14	105	7	10000	1	1	0	1	0
15	106	7	10000	1	1	0	1	0
17	107	7	10000	1	1	0	1	0
17	108	7	10000	1	1	0	1	0
17	109	7	10000	1	1	0	1	0
16	110	7	10000	1	1	0	1	0
16	111	7	10000	1	1	0	1	0
17	112	7	10000	1	1	0	1	0
17	113	7	10000	1	1	0	1	0
16	114	7	10000	1	1	0	1	0
17	115	7	10000	1	1	0	1	0
16	116	7	10000	1	1	0	1	0
15	117	7	10000	1	1	0	1	0
17	118	7	10000	1	1	0	1	0
15	119	7	10000	1	1	0	1	0
17	120	7	10000	1	1	0	1	0
17	121	7	10000	1	1	0	1	0
16	122	7	10000	1	1	0	1	0
15	123	7	10000	1	1	0	1	0
15	124	7	10000	1	1	0	1	0
15	125	7	10000	1	1	0	1	0
14	126	7	10000	1	1	0	1	0
14	127	7	10000	1	1	0	1	0
14	128	7	10000	1	1	0	1	0
14	129	7	10000	1	1	0	1	0
11	130	7	10000	1	1	0	1	0
11	131	7	10000	1	1	0	1	0
12	132	7	10000	1	1	0	1	0
13	133	7	10000	1	1	0	1	0
12	134	7	10000	1	1	0	1	0
12	135	7	10000	1	1	0	1	0
12	136	7	10000	1	1	0	1	0
13	137	7	10000	1	1	0	1	0
13	138	7	10000	1	1	0	1	0
12	139	7	10000	1	1	0	1	0
15	140	7	10000	1	1	0	1	0
14	141	7	10000	1	1	0	1	0
13	142	7	10000	1	1	0	1	0
12	143	7	10000	1	1	0	1	0
13	144	7	10000	1	1	0	1	0
12	145	7	10000	1	1	0	1	0
13	146	7	10000	1	1	0	1	0
13	147	7	10000	1	1	0	1	0
12	148	7	10000	1	1	0	1	0
13	149	7	10000	1	1	0	1	0
11	150	7	10000	1	1	0	1	0
11	151	7	10000	1	1	0	1	0
12	152	7	10000	1	1	0	1	0
12	153	7	10000	1	1	0	1	0
11	154	7	10000	1	1	0	1	0
11	155	7	10000	1	1	0	1	0
11	156	7	10000	1	1	0	1	0
11	157	7	10000	1	1	0	1	0
12	158	7	10000	1	1	0	1	0
11	159	7	10000	1	1	0	1	0
12	160	7	10000	1	1	0	1	0
13	161	7	10000	1	1	0	1	0
12	162	7	10000	1	1	0	1	0
12	163	7	10000	1	1	0	1	0
13	164	7	10000	1	1	0	1	0
12	165	7	10000	1	1	0	1	0
13	166	7	10000	1	1	0	1	0
14	167	7	10000	1	1	0	1	0
14	168	7	10000	1	1	0	1	0
14	169	7	10000	1	1	0	1	0
13	170	7	10000	1	1	0	1	0
13	171	7	10000	1	1	0	1	0
12	172	7	10000	1	1	0	1	0
13	173	7	10000	1	1	0	1	0
12	174	7	10000	1	1	0	1	0
13	175	7	10000	1	1	0	1	0
13	176	7	10000	1	1	0	1	0
13	177	7	10000	1	1	0	1	0
14	178	7	10000	1	1	0	1	0
13	179	7	10000	1	1	0	1	0
16	180	7	10000	1	1	0	1	0
16	181	7	10000	1	1	0	1	0
15	182	7	10000	1	1	0	1	0
15	183	7	10000	1	1	0	1	0
15	184	7	10000	1	1	0	1	0
14	185	7	10000	1	1	0	1	0
13	186	7	10000	1	1	0	1	0
15	187	7	10000	1	1	0	1	0
15	188	7	10000	1	1	0	1	0
16	189	7	10000	1	1	0	1	0
13	190	7	10000	1	1	0	1	0
14	191	7	10000	1	1	0	1	0
14	192	7	10000	1	1	0	1	0
14	193	7	10000	1	1	0	1	0
13	194	7	10000	1	1	0	1	0
13	195	7	10000	1	1	0	1	0
14	196	7	10000	1	1	0	1	0
13	197	7	10000	1	1	0	1	0
12	198	7	10000	1	1	0	1	0
12	199	7	10000	1	1	0	1	0
15	200	7	10000	1	1	0	1	0
15	201	7	10000	1	1	0	1	0
14	202	7	10000	1	1	0	1	0
13	203	7	10000	1	1	0	1	0
13	204	7	10000	1	1	0	1	0
13	205	7	10000	1	1	0	1	0
14	206	7	10000	1	1	0	1	0
15	207	7	10000	1	1	0	1	0
15	208	7	10000	1	1	0	1	0
15	209	7	10000	1	1	0	1	0
13	210	7	10000	1	1	0	1	0
13	211	7	10000	1	1	0	1	0
13	212	7	10000	1	1	0	1	0
14	213	7	10000	1	1	0	1	0
14	214	7	10000	1	1	0	1	0
13	215	7	10000	1	1	0	1	0
13	216	7	10000	1	1	0	1	0
12	217	7	10000	1	1	0	1	0
12	218	7	10000	1	1	0	1	0
11	219	7	10000	1	1	0	1	0
13	220	7	10000	1	1	0	1	0
12	221	7	10000	1	1	0	1	0
12	222	7	10000	1	1	0	1	0
12	223	7	10000	1	1	0	1	0
12	224	7	10000	1	1	0	1	0
11	225	7	10000	1	1	0	1	0
11	226	7	10000	1	1	0	1	0
11	227	7	10000	1	1	0	1	0
11	228	7	10000	1	1	0	1	0
11	229	7	10000	1	1	0	1	0
9	230	7	10000	1	1	0	1	0
8	231	7	10000	1	1	0	1	0
9	232	7	10000	1	1	0	1	0
12	233	7	10000	1	1	0	1	0
11	234	7	10000	1	1	0	1	0
11	235	7	10000	1	1	0	1	0
11	236	7	10000	1	1	0	1	0
11	237	7	10000	1	1	0	1	0
10	238	7	10000	1	1	0	1	0
10	239	7	10000	1	1	0	1	0
11	240	7	10000	1	1	0	1	0
12	241	7	10000	1	1	0	1	0
12	242	7	10000	1	1	0	1	0
11	243	7	10000	1	1	0	1	0
12	244	7	10000	1	1	0	1	0
12	245	7	10000	1	1	0	1	0
11	246	7	10000	1	1	0	1	0
13	247	7	10000	1	1	0	1	0
12	248	7	10000	1	1	0	1	0
12	249	7	10000	1	1	0	1	0
11	250	7	10000	1	1	0	1	0
11	251	7	10000	1	1	0	1	0
11	252	7	10000	1	1	0	1	0
12	253	7	10000	1	1	0	1	0
12	254	7	10000	1	1	0	1	0
12	255	7	10000	1	1	0	1	0
13	256	7	10000	1	1	0	1	0
12	257	7	10000	1	1	0	1	0
10	258	7	10000	1	1	0	1	0
11	259	7	10000	1	1	0	1	0
12	260	7	10000	1	1	0	1	0
11	261	7	10000	1	1	0	1	0
12	262	7	10000	1	1	0	1	0
11	263	7	10000	1	1	0	1	0
11	264	7	10000	1	1	0	1	0
11	265	7	10000	1	1	0	1	0
11	266	7	10000	1	1	0	1	0
13	267	7	10000	1	1	0	1	0
13	268	7	10000	1	1	0	1	0
14	269	7	10000	1	1	0	1	0
12	270	7	10000	1	1	0	1	0
12	271	7	10000	1	1	0	1	0
11	272	7	10000	1	1	0	1	0
12	273	7	10000	1	1	0	1	0
11	274	7	10000	1	1	0	1	0
12	275	7	10000	1	1	0	1	0
13	276	7	10000	1	1	0	1	0
12	277	7	10000	1	1	0	1	0
11	278	7	10000	1	1	0	1	0
11	279	7	10000	1	1	0	1	0
12	280	7	10000	1	1	0	1	0
12	281	7	10000	1	1	0	1	0
12	282	7	10000	1	1	0	1	0
12	283	7	10000	1	1	0	1	0
13	284	7	10000	1	1	0	1	0
13	285	7	10000	1	1	0	1	0
12	286	7	10000	1	1	0	1	0
13	287	7	10000	1	1	0	1	0
14	288	7	10000	1	1	0	1	0
14	289	7	10000	1	1	0	1	0
12	290	7	10000	1	1	0	1	0
11	291	7	10000	1	1	0	1	0
12	292	7	10000	1	1	0	1	0
13	293	7	10000	1	1	0	1	0
12	294	7	10000	1	1	0	1	0
13	295	7	10000	1	1	0	1	0
13	296	7	10000	1	1	0	1	0
12	297	7	10000	1	1	0	1	0
12	298	7	10000	1	1	0	1	0
13	299	7	10000	1	1	0	1	0
16	300	7	10000	1	1	0	1	0
15	301	7	10000	1	1	0	1	0
15	302	7	10000	1	1	0	1	0
14	303	7	10000	1	1	0	1	0
14	304	7	10000	1	1	0	1	0
14	305	7	10000	1	1	0	1	0
13	306	7	10000	1	1	0	1	0
13	307	7	10000	1	1	0	1	0
14	308	7	10000	1	1	0	1	0
14	309	7	10000	1	1	0	1	0
13	310	7	10000	1	1	0	1	0
12	311	7	10000	1	1	0	1	0
13	312	7	10000	1	1	0	1	0
14	313	7	10000	1	1	0	1	0
13	314	7	10000	1	1	0	1	0
13	315	7	10000	1	1	0	1	0
12	316	7	10000	1	1	0	1	0
12	317	7	10000	1	1	0	1	0
12	318	7	10000	1	1	0	1	0
12	319	7	10000	1	1	0	1	0
14	320	7	10000	1	1	0	1	0
14	321	7	10000	1	1	0	1	0
13	322	7	10000	1	1	0	1	0
14	323	7	10000	1	1	0	1	0
14	324	7	10000	1	1	0	1	0
14	325	7	10000	1	1	0	1	0
13	326	7	10000	1	1	0	1	0
14	327	7	10000	1	1	0	1	0
16	328	7	10000	1	1	0	1	0
17	329	7	10000	1	1	0	1	0
15	330	7	10000	1	1	0	1	0
15	331	7	10000	1	1	0	1	0
15	332	7	10000	1	1	0	1	0
16	333	7	10000	1	1	0	1	0
16	334	7	10000	1	1	0	1	0
17	335	7	10000	1	1	0	1	0
17	336	7	10000	1	1	0	1	0
16	337	7	10000	1	1	0	1	0
16	338	7	10000	1	1	0	1	0
16	339	7	10000	1	1	0	1	0
18	340	7	10000	1	1	0	1	0
17	341	7	10000	1	1	0	1	0
18	342	7	10000	1	1	0	1	0
17	343	7	10000	1	1	0	1	0
17	344	7	10000	1	1	0	1	0
17	345	7	10000	1	1	0	1	0
15	346	7	10000	1	1	0	1	0
15	347	7	10000	1	1	0	1	0
15	348	7	10000	1	1	0	1	0
16	349	7	10000	1	1	0	1	0
14	350	7	10000	1	1	0	1	0
15	351	7	10000	1	1	0	1	0
16	352	7	10000	1	1	0	1	0
16	353	7	10000	1	1	0	1	0
15	354	7	10000	1	1	0	1	0
15	355	7	10000	1	1	0	1	0
15	356	7	10000	1	1	0	1	0
13	357	7	10000	1	1	0	1	0
13	358	7	10000	1	1	0	1	0
12	359	7	10000	1	1	0	1	0
14	360	7	10000	1	1	0	1	0
14	361	7	10000	1	1	0	1	0
14	362	7	10000	1	1	0	1	0
13	363	7	10000	1	1	0	1	0
13	364	7	10000	1	1	0	1	0
12	365	7	10000	1	1	0	1	0
12	366	7	10000	1	1	0	1	0
12	367	7	10000	1	1	0	1	0
14	368	7	10000	1	1	0	1	0
13	369	7	10000	1	1	0	1	0
11	370	7	10000	1	1	0	1	0
11	371	7	10000	1	1	0	1	0
12	372	7	10000	1	1	0	1	0
12	373	7	10000	1	1	0	1	0
11	374	7	10000	1	1	0	1	0
11	375	7	10000	1	1	0	1	0
12	376	7	10000	1	1	0	1	0
10	377	7	10000	1	1	0	1	0
10	378	7	10000	1	1	0	1	0
10	379	7	10000	1	1	0	1	0
12	380	7	10000	1	1	0	1	0
12	381	7	10000	1	1	0	1	0
11	382	7	10000	1	1	0	1	0
11	383	7	10000	1	1	0	1	0
12	384	7	10000	1	1	0	1	0
12	385	7	10000	1	1	0	1	0
12	386	7	10000	1	1	0	1	0
13	387	7	10000	1	1	0	1	0
13	388	7	10000	1	1	0	1	0
13	389	7	10000	1	1	0	1	0
10	390	7	10000	1	1	0	1	0
10	391	7	10000	1	1	0	1	0
11	392	7	10000	1	1	0	1	0
12	393	7	10000	1	1	0	1	0
12	394	7	10000	1	1	0	1	0
12	395	7	10000	1	1	0	1	0
12	396	7	10000	1	1	0	1	0
11	397	7	10000	1	1	0	1	0
11	398	7	10000	1	1	0	1	0
12	399	7	10000	1	1	0	1	0
13	400	7	10000	1	1	0	1	0
13	401	7	10000	1	1	0	1	0
12	402	7	10000	1	1	0	1	0
11	403	7	10000	1	1	0	1	0
11	404	7	10000	1	1	0	1	0
11	405	7	10000	1	1	0	1	0
10	406	7	10000	1	1	0	1	0
12	407	7	10000	1	1	0	1	0
12	408	7	10000	1	1	0	1	0
12	409	7	10000	1	1	0	1	0
10	410	7	10000	1	1	0	1	0
10	411	7	10000	1	1	0	1	0
11	412	7	10000	1	1	0	1	0
12	413	7	10000	1	1	0	1	0
14	414	7	10000	1	1	0	1	0
16	415	7	10000	1	1	0	1	0
16	416	7	10000	1	1	0	1	0
15	417	7	10000	1	1	0	1	0
15	418	7	10000	1	1	0	1	0
16	419	7	10000	1	1	0	1	0
17	420	7	10000	1	1	0	1	0
17	421	7	10000	1	1	0	1	0
17	422	7	10000	1	1	0	1	0
17	423	7	10000	1	1	0	1	0
16	424	7	10000	1	1	0	1	0
16	425	7	10000	1	1	0	1	0
16	426	7	10000	1	1	0	1	0
17	427	7	10000	1	1	0	1	0
17	428	7	10000	1	1	0	1	0
17	429	7	10000	1	1	0	1	0
15	430	7	10000	1	1	0	1	0
15	431	7	10000	1	1	0	1	0
15	432	7	10000	1	1	0	1	0
16	433	7	10000	1	1	0	1	0
17	434	7	10000	1	1	0	1	0
16	435	7	10000	1	1	0	1	0
16	436	7	10000	1	1	0	1	0
15	437	7	10000	1	1	0	1	0
15	438	7	10000	1	1	0	1	0
14	439	7	10000	1	1	0	1	0
15	440	7	10000	1	1	0	1	0
16	441	7	10000	1	1	0	1	0
17	442	7	10000	1	1	0	1	0
17	443	7	10000	1	1	0	1	0
17	444	7	10000	1	1	0	1	0
17	445	7	10000	1	1	0	1	0
16	446	7	10000	1	1	0	1	0
17	447	7	10000	1	1	0	1	0
17	448	7	10000	1	1	0	1	0
18	449	7	10000	1	1	0	1	0
17	450	7	10000	1	1	0	1	0
18	451	7	10000	1	1	0	1	0
17	452	7	10000	1	1	0	1	0
17	453	7	10000	1	1	0	1	0
17	454	7	10000	1	1	0	1	0
17	455	7	10000	1	1	0	1	0
17	456	7	10000	1	1	0	1	0
16	457	7	10000	1	1	0	1	0
16	458	7	10000	1	1	0	1	0
15	459	7	10000	1	1	0	1	0
18	460	7	10000	1	1	0	1	0
17	461	7	10000	1	1	0	1	0
16	462	7	10000	1	1	0	1	0
16	463	7	10000	1	1	0	1	0
16	464	7	10000	1	1	0	1	0
18	465	7	10000	1	1	0	1	0
18	466	7	10000	1	1	0	1	0
18	467	7	10000	1	1	0	1	0
19	468	7	10000	1	1	0	1	0
19	469	7	10000	1	1	0	1	0
17	470	7	10000	1	1	0	1	0
17	471	7	10000	1	1	0	1	0
18	472	7	10000	1	1	0	1	0
18	473	7	10000	1	1	0	1	0
17	474	7	10000	1	1	0	1	0
18	475	7	10000	1	1	0	1	0
18	476	7	10000	1	1	0	1	0
18	477	7	10000	1	1	0	1	0
17	478	7	10000	1	1	0	1	0
16	479	7	10000	1	1	0	1	0
20	480	7	10000	1	1	0	1	0
20	481	7	10000	1	1	0	1	0
19	482	7	10000	1	1	0	1	0
19	483	7	10000	1	1	0	1	0
19	484	7	10000	1	1	0	1	0
22	485	7	10000	1	1	0	1	0
20	486	7	10000	1	1	0	1	0
21	487	7	10000	1	1	0	1	0
21	488	7	10000	1	1	0	1	0
21	489	7	10000	1	1	0	1	0
20	490	7	10000	1	1	0	1	0
19	491	7	10000	1	1	0	1	0
20	492	7	10000	1	1	0	1	0
22	493	7	10000	1	1	0	1	0
21	494	7	10000	1	1	0	1	0
20	495	7	10000	1	1	0	1	0
20	496	7	10000	1	1	0	1	0
20	497	7	10000	1	1	0	1	0
20	498	7	10000	1	1	0	1	0
20	499	7	10000	1	1	0	1	0
21	500	7	10000	1	1	0	1	0
21	501	7	10000	1	1	0	1	0
21	541	7	10000	1	1	0	1	1
20	542	7	10000	1	1	0	1	1
19	543	7	10000	1	1	0	1	1
19	544	7	10000	1	1	0	1	1
18	545	7	10000	1	1	0	1	1
18	546	7	10000	1	1	0	1	1
18	547	7	10000	1	1	0	1	1
19	548	7	10000	1	1	0	1	1
16	549	7	10000	1	1	0	1	1
16	550	7	10000	1	1	0	1	1
16	551	7	10000	1	1	0	1	1
16	552	7	10000	1	1	0	1	1
15	553	7	10000	1	1	0	1	1
16	554	7	10000	1	1	0	1	1
15	555	7	10000	1	1	0	1	1
15	556	7	10000	1	1	0	1	1
17	557	7	10000	1	1	0	1	1
16	558	7	10000	1	1	0	1	1
18	559	7	10000	1	1	0	1	1
18	560	7	10000	1	1	0	1	1
18	561	7	10000	1	1	0	1	1
19	562	7	10000	1	1	0	1	1
19	563	7	10000	1	1	0	1	1
19	564	7	10000	1	1	0	1	1
18	565	7	10000	1	1	0	1	1
18	566	7	10000	1	1	0	1	1
19	567	7	10000	1	1	0	1	1
19	568	7	10000	1	1	0	1	1
17	569	7	10000	1	1	0	1	1
17	570	7	10000	1	1	0	1	1
17	571	7	10000	1	1	0	1	1
18	572	7	10000	1	1	0	1	1
18	573	7	10000	1	1	0	1	1
20	574	7	10000	1	1	0	1	1
19	575	7	10000	1	1	0	1	1
19	576	7	10000	1	1	0	1	1
19	577	7	10000	1	1	0	1	1
17	578	7	10000	1	1	0	1	1
19	579	7	10000	1	1	0	1	1
19	580	7	10000	1	1	0	1	1
18	581	7	10000	1	1	0	1	1
17	582	7	10000	1	1	0	1	1
17	548	7	10000	1	1	0	1	1
17	549	7	10000	1	1	0	1	1
16	550	7	10000	1	1	0	1	1
16	551	7	10000	1	1	0	1	1
17	552	7	10000	1	1	0	1	1
16	553	7	10000	1	1	0	1	1
13	550	7	10000	1	1	0	1	1
14	551	7	10000	1	1	0	1	1
14	552	7	10000	1	1	0	1	0
14	553	7	10000	1	1	0	1	0
14	554	7	10000	1	1	0	1	0
13	555	7	10000	1	1	0	1	0
15	556	7	10000	1	1	0	1	0
15	557	7	10000	1	1	0	1	0
14	558	7	10000	1	1	0	1	0
14	559	7	10000	1	1	0	1	0
17	560	7	10000	1	1	0	1	0
18	561	7	10000	1	1	0	1	0
19	562	7	10000	1	1	0	1	0
19	563	7	10000	1	1	0	1	0
18	564	7	10000	1	1	0	1	0
18	565	7	10000	1	1	0	1	0
17	566	7	10000	1	1	0	1	0
17	567	7	10000	1	1	0	1	0
17	568	7	10000	1	1	0	1	0
17	569	7	10000	1	1	0	1	0
15	570	7	10000	1	1	0	1	0
15	571	7	10000	1	1	0	1	0
16	572	7	10000	1	1	0	1	0
16	573	7	10000	1	1	0	1	0
17	574	7	10000	1	1	0	1	0
17	575	7	10000	1	1	0	1	0
17	576	7	10000	1	1	0	1	0
17	577	7	10000	1	1	0	1	0
16	578	7	10000	1	1	0	1	0
16	579	7	10000	1	1	0	1	0
18	580	7	10000	1	1	0	1	0
18	581	7	10000	1	1	0	1	0
17	582	7	10000	1	1	0	1	0
17	583	7	10000	1	1	0	1	0
16	584	7	10000	1	1	0	1	0
17	585	7	10000	1	1	0	1	0
18	586	7	10000	1	1	0	1	0
18	587	7	10000	1	1	0	1	0
18	588	7	10000	1	1	0	1	0
18	589	7	10000	1	1	0	1	0
16	590	7	10000	1	1	0	1	0
17	591	7	10000	1	1	0	1	0
17	592	7	10000	1	1	0	1	0
16	593	7	10000	1	1	0	1	0
17	594	7	10000	1	1	0	1	0
16	595	7	10000	1	1	0	1	0
15	596	7	10000	1	1	0	1	0
14	597	7	10000	1	1	0	1	0
13	598	7	10000	1	1	0	1	0
12	599	7	10000	1	1	0	1	0
15	600	7	10000	1	1	0	1	0
15	601	7	10000	1	1	0	1	0
14	602	7	10000	1	1	0	1	0
14	603	7	10000	1	1	0	1	0
14	604	7	10000	1	1	0	1	0
13	605	7	10000	1	1	0	1	0
12	606	7	10000	1	1	0	1	0
13	607	7	10000	1	1	0	1	0
13	608	7	10000	1	1	0	1	0
13	609	7	10000	1	1	0	1	0
13	610	7	10000	1	1	0	1	0
15	611	7	10000	1	1	0	1	0
16	612	7	10000	1	1	0	1	0
15	613	7	10000	1	1	0	1	0
16	614	7	10000	1	1	0	1	0
15	615	7	10000	1	1	0	1	0
15	616	7	10000	1	1	0	1	0
15	617	7	10000	1	1	0	1	0
14	618	7	10000	1	1	0	1	0
14	619	7	10000	1	1	0	1	0
16	620	7	10000	1	1	0	1	0
16	621	7	10000	1	1	0	1	0
16	622	7	10000	1	1	0	1	0
16	623	7	10000	1	1	0	1	0
16	624	7	10000	1	1	0	1	0
15	625	7	10000	1	1	0	1	0
16	626	7	10000	1	1	0	1	0
17	627	7	10000	1	1	0	1	0
19	628	7	10000	1	1	0	1	0
22	629	7	10000	1	1	0	1	0
23	630	7	10000	1	1	0	1	0
26	631	7	10000	1	1	0	1	0
32	632	7	10000	1	1	0	1	0
32	633	7	10000	1	1	0	1	0
40	634	7	10000	1	1	0	1	0
51	635	7	10000	1	1	0	1	0
56	636	7	10000	1	1	0	1	0
58	637	7	10000	1	1	0	1	0
76	638	7	10000	1	1	0	1	0
97	639	7	10000	1	1	0	1	0
105	640	7	10000	1	1	0	1	0
108	641	7	10000	1	1	0	1	0
109	642	7	10000	1	1	0	1	0
120	643	7	10000	1	1	0	1	0
159	644	7	10000	1	1	0	1	0
184	645	7	10000	1	1	0	1	0
187	646	7	10000	1	1	0	1	0
207	647	7	10000	1	1	0	1	0
303	648	7	10000	1	1	0	1	0
408	649	7	10000	1	1	0	1	0
436	650	7	10000	1	1	0	1	0
453	651	7	10000	1	1	0	1	0
514	652	7	10000	1	1	0	1	0
525	653	7	10000	1	1	0	1	0
569	654	7	10000	1	1	0	1	0
613	655	7	10000	1	1	0	1	0
598	656	7	10000	1	1	0	1	0
586	657	7	10000	1	1	0	1	0
598	658	7	10000	1	1	0	1	0
696	659	7	10000	1	1	0	1	0
797	660	7	10000	1	1	0	1	0
793	661	7	10000	1	1	0	1	0
811	662	7	10000	1	1	0	1	0
888	663	7	10000	1	1	0	1	0
916	664	7	10000	1	1	0	1	0
898	665	7	10000	1	1	0	1	0
880	666	7	10000	1	1	0	1	0
876	667	7	10000	1	1	0	1	0
848	668	7	10000	1	1	0	1	0
882	669	7	10000	1	1	0	1	0
869	670	7	10000	1	1	0	1	0
880	671	7	10000	1	1	0	1	0
866	672	7	10000	1	1	0	1	0
839	673	7	10000	1	1	0	1	0
826	674	7	10000	1	1	0	1	0
810	675	7	10000	1	1	0	1	0
781	676	7	10000	1	1	0	1	0
750	677	7	10000	1	1	0	1	0
728	678	7	10000	1	1	0	1	0
711	679	7	10000	1	1	0	1	0
700	680	7	10000	1	1	0	1	0
684	681	7	10000	1	1	0	1	0
667	682	7	10000	1	1	0	1	0
654	683	7	10000	1	1	0	1	0
637	684	7	10000	1	1	0	1	0
612	685	7	10000	1	1	0	1	0
602	686	7	10000	1	1	0	1	0
602	687	7	10000	1	1	0	1	0
598	688	7	10000	1	1	0	1	0
588	689	7	10000	1	1	0	1	0
585	690	7	10000	1	1	0	1	0
576	691	7	10000	1	1	0	1	0
554	692	7	10000	1	1	0	1	0
536	693	7	10000	1	1	0	1	0
538	694	7	10000	1	1	0	1	0
547	695	7	10000	1	1	0	1	0
578	696	7	10000	1	1	0	1	0
585	697	7	10000	1	1	0	1	0
568	698	7	10000	1	1	0	1	0
554	699	7	10000	1	1	0	1	0
544	700	7	10000	1	1	0	1	0
522	701	7	10000	1	1	0	1	0
499	702	7	10000	1	1	0	1	0
481	703	7	10000	1	1	0	1	0
468	704	7	10000	1	1	0	1	0
461	705	7	10000	1	1	0	1	0
449	706	7	10000	1	1	0	1	0
430	707	7	10000	1	1	0	1	0
413	708	7	10000	1	1	0	1	0
398	709	7	10000	1	1	0	1	0
380	710	7	10000	1	1	0	1	0
372	711	7	10000	1	1	0	1	0
377	712	7	10000	1	1	0	1	0
385	713	7	10000	1	1	0	1	0
384	714	7	10000	1	1	0	1	0
368	715	7	10000	1	1	0	1	0
359	716	7	10000	1	1	0	1	0
363	717	7	10000	1	1	0	1	0
375	718	7	10000	1	1	0	1	0
372	719	7	10000	1	1	0	1	0
369	720	7	10000	1	1	0	1	0
370	721	7	10000	1	1	0	1	0
373	722	7	10000	1	1	0	1	0
384	723	7	10000	1	1	0	1	0
446	724	7	10000	1	1	0	1	0
512	725	7	10000	1	1	0	1	0
514	726	7	10000	1	1	0	1	0
531	727	7	10000	1	1	0	1	0
523	728	7	10000	1	1	0	1	0
542	729	7	10000	1	1	0	1	0
547	730	7	10000	1	1	0	1	0
539	731	7	10000	1	1	0	1	0
559	732	7	10000	1	1	0	1	0
569	733	7	10000	1	1	0	1	0
547	734	7	10000	1	1	0	1	0
530	735	7	10000	1	1	0	1	0
519	736	7	10000	1	1	0	1	0
512	737	7	10000	1	1	0	1	0
498	738	7	10000	1	1	0	1	0
478	739	7	10000	1	1	0	1	0
464	740	7	10000	1	1	0	1	0
451	741	7	10000	1	1	0	1	0
432	742	7	10000	1	1	0	1	0
420	743	7	10000	1	1	0	1	0
410	744	7	10000	1	1	0	1	0
398	745	7	10000	1	1	0	1	0
387	746	7	10000	1	1	0	1	0
378	747	7	10000	1	1	0	1	0
379	748	7	10000	1	1	0	1	0
383	749	7	10000	1	1	0	1	0
370	750	7	10000	1	1	0	1	0
358	751	7	10000	1	1	0	1	0
355	752	7	10000	1	1	0	1	0
351	753	7	10000	1	1	0	1	0
347	754	7	10000	1	1	0	1	0
343	755	7	10000	1	1	0	1	0
333	756	7	10000	1	1	0	1	0
321	757	7	10000	1	1	0	1	0
312	758	7	10000	1	1	0	1	0
304	759	7	10000	1	1	0	1	0
296	760	7	10000	1	1	0	1	0
289	761	7	10000	1	1	0	1	0
285	762	7	10000	1	1	0	1	0
276	763	7	10000	1	1	0	1	0
268	764	7	10000	1	1	0	1	0
260	765	7	10000	1	1	0	1	0
250	766	7	10000	1	1	0	1	0
238	767	7	10000	1	1	0	1	0
231	768	7	10000	1	1	0	1	0
232	769	7	10000	1	1	0	1	0
226	770	7	10000	1	1	0	1	0
217	771	7	10000	1	1	0	1	0
211	772	7	10000	1	1	0	1	0
202	773	7	10000	1	1	0	1	0
197	774	7	10000	1	1	0	1	0
194	775	7	10000	1	1	0	1	0
186	776	7	10000	1	1	0	1	0
178	777	7	10000	1	1	0	1	0
170	778	7	10000	1	1	0	1	0
163	779	7	10000	1	1	0	1	0
162	780	7	10000	1	1	0	1	0
162	781	7	10000	1	1	0	1	0
159	782	7	10000	1	1	0	1	0
153	783	7	10000	1	1	0	1	0
147	784	7	10000	1	1	0	1	0
146	785	7	10000	1	1	0	1	0
146	786	7	10000	1	1	0	1	0
145	787	7	10000	1	1	0	1	0
143	788	7	10000	1	1	0	1	0
141	789	7	10000	1	1	0	1	0
137	790	7	10000	1	1	0	1	0
141	791	7	10000	1	1	0	1	0
141	792	7	10000	1	1	0	1	0
136	793	7	10000	1	1	0	1	0
130	794	7	10000	1	1	0	1	0
129	795	7	10000	1	1	0	1	0
133	796	7	10000	1	1	0	1	0
136	797	7	10000	1	1	0	1	0
138	798	7	10000	1	1	0	1	0
134	799	7	10000	1	1	0	1	0
131	800	7	10000	1	1	0	1	0
125	801	7	10000	1	1	0	1	0
122	802	7	10000	1	1	0	1	0
128	803	7	10000	1	1	0	1	0
128	814	7	10000	1	1	0	1	0
127	815	7	10000	1	1	0	1	0
130	816	7	10000	1	1	0	1	0
134	817	7	10000	1	1	0	1	0
139	818	7	10000	1	1	0	1	0
148	819	7	10000	1	1	0	1	0
152	820	7	10000	1	1	0	1	0
157	821	7	10000	1	1	0	1	0
158	822	7	10000	1	1	0	1	0
152	823	7	10000	1	1	0	1	0
146	824	7	10000	1	1	0	1	0
140	825	7	10000	1	1	0	1	0
137	822	7	10000	1	1	0	1	0
139	823	7	10000	1	1	0	1	0
142	824	7	10000	1	1	0	1	0
141	825	7	10000	1	1	0	1	0
146	826	7	10000	1	1	0	1	0
162	827	7	10000	1	1	0	1	0
173	828	7	10000	1	1	0	1	0
176	829	7	10000	1	1	0	1	0
179	833	7	10000	1	1	0	1	0
177	834	7	10000	1	1	0	1	0
170	835	7	10000	1	1	0	1	0
163	836	7	10000	1	1	0	1	0
162	837	7	10000	1	1	0	1	0
166	838	7	10000	1	1	0	1	0
169	839	7	10000	1	1	0	1	0
172	840	7	10000	1	1	0	1	0
167	841	7	10000	1	1	0	1	0
164	842	7	10000	1	1	0	1	0
159	839	7	10000	1	1	0	1	0
152	840	7	10000	1	1	0	1	0
148	841	7	10000	1	1	0	1	0
151	842	7	10000	1	1	0	1	0
149	843	7	10000	1	1	0	1	0
143	844	7	10000	1	1	0	1	0
139	843	7	10000	1	1	0	1	0
133	844	7	10000	1	1	0	1	0
127	845	7	10000	1	1	0	1	0
124	846	7	10000	1	1	0	1	0
123	847	7	10000	1	1	0	1	0
118	848	7	10000	1	1	0	1	0
116	849	7	10000	1	1	0	1	0
111	850	7	10000	1	1	0	1	0
109	851	7	10000	1	1	0	1	0
107	852	7	10000	1	1	0	1	0
104	853	7	10000	1	1	0	1	0
100	854	7	10000	1	1	0	1	0
99	854	7	10000	1	1	0	1	0
96	855	7	10000	1	1	0	1	0
92	856	7	10000	1	1	0	1	0
94	857	7	10000	1	1	0	1	0
93	859	7	10000	1	1	0	1	0
88	860	7	10000	1	1	0	1	0
89	861	7	10000	1	1	0	1	0
95	862	7	10000	1	1	0	1	0
96	863	7	10000	1	1	0	1	0
98	864	7	10000	1	1	0	1	0
95	866	7	10000	1	1	0	1	0
91	867	7	10000	1	1	0	1	0
87	868	7	10000	1	1	0	1	0
84	869	7	10000	1	1	0	1	0
80	870	7	10000	1	1	0	1	0
78	871	7	10000	1	1	0	1	0
76	870	7	10000	1	1	0	1	0
73	871	7	10000	1	1	0	1	0
70	872	7	10000	1	1	0	1	0
68	873	7	10000	1	1	0	1	0
67	877	7	10000	1	1	0	1	0
64	878	7	10000	1	1	0	1	0
61	879	7	10000	1	1	0	1	0
61	880	7	10000	1	1	0	1	0
61	881	7	10000	1	1	0	1	0
61	882	7	10000	1	1	0	1	0
62	881	7	10000	1	1	0	1	0
62	882	7	10000	1	1	0	1	0
64	883	7	10000	1	1	0	1	0
67	884	7	10000	1	1	0	1	0
66	885	7	10000	1	1	0	1	0
65	886	7	10000	1	1	0	1	0
68	883	7	10000	1	1	0	1	0
70	884	7	10000	1	1	0	1	0
69	886	7	10000	1	1	0	1	0
67	887	7	10000	1	1	0	1	0
67	888	7	10000	1	1	0	1	0
66	889	7	10000	1	1	0	1	0
62	890	7	10000	1	1	0	1	0
58	891	7	10000	1	1	0	1	0
57	892	7	10000	1	1	0	1	0
56	893	7	10000	1	1	0	1	0
55	894	7	10000	1	1	0	1	0
56	895	7	10000	1	1	0	1	0
54	896	7	10000	1	1	0	1	0
54	897	7	10000	1	1	0	1	0
54	898	7	10000	1	1	0	1	0
52	899	7	10000	1	1	0	1	0
55	900	7	10000	1	1	0	1	0
56	901	7	10000	1	1	0	1	0
56	902	7	10000	1	1	0	1	0
59	903	7	10000	1	1	0	1	0
57	904	7	10000	1	1	0	1	0
55	905	7	10000	1	1	0	1	0
54	906	7	10000	1	1	0	1	0
55	907	7	10000	1	1	0	1	0
53	908	7	10000	1	1	0	1	0
51	909	7	10000	1	1	0	1	0
53	910	7	10000	1	1	0	1	0
61	911	7	10000	1	1	0	1	0
64	912	7	10000	1	1	0	1	0
62	913	7	10000	1	1	0	1	0
64	914	7	10000	1	1	0	1	0
64	915	7	10000	1	1	0	1	0
64	916	7	10000	1	1	0	1	0
68	917	7	10000	1	1	0	1	0
78	918	7	10000	1	1	0	1	0
81	919	7	10000	1	1	0	1	0
86	920	7	10000	1	1	0	1	0
88	921	7	10000	1	1	0	1	0
85	922	7	10000	1	1	0	1	0
82	923	7	10000	1	1	0	1	0
80	924	7	10000	1	1	0	1	0
79	925	7	10000	1	1	0	1	0
80	926	7	10000	1	1	0	1	0
80	927	7	10000	1	1	0	1	0
79	928	7	10000	1	1	0	1	0
78	929	7	10000	1	1	0	1	0
74	930	7	10000	1	1	0	1	0
72	931	7	10000	1	1	0	1	0
73	932	7	10000	1	1	0	1	0
73	933	7	10000	1	1	0	1	0
72	934	7	10000	1	1	0	1	0
71	935	7	10000	1	1	0	1	0
71	936	7	10000	1	1	0	1	0
70	937	7	10000	1	1	0	1	0
71	938	7	10000	1	1	0	1	0
71	939	7	10000	1	1	0	1	0
69	940	7	10000	1	1	0	1	0
68	941	7	10000	1	1	0	1	0
69	942	7	10000	1	1	0	1	0
68	943	7	10000	1	1	0	1	0
69	944	7	10000	1	1	0	1	0
71	945	7	10000	1	1	0	1	0
72	946	7	10000	1	1	0	1	0
72	947	7	10000	1	1	0	1	0
71	948	7	10000	1	1	0	1	0
70	949	7	10000	1	1	0	1	0
71	950	7	10000	1	1	0	1	0
76	951	7	10000	1	1	0	1	0
81	952	7	10000	1	1	0	1	0
83	953	7	10000	1	1	0	1	0
92	954	7	10000	1	1	0	1	0
98	955	7	10000	1	1	0	1	0
97	956	7	10000	1	1	0	1	0
97	957	7	10000	1	1	0	1	0
98	958	7	10000	1	1	0	1	0
94	959	7	10000	1	1	0	1	0
91	960	7	10000	1	1	0	1	0
91	961	7	10000	1	1	0	1	0
88	962	7	10000	1	1	0	1	0
84	963	7	10000	1	1	0	1	0
82	964	7	10000	1	1	0	1	0
82	965	7	10000	1	1	0	1	0
83	966	7	10000	1	1	0	1	0
81	967	7	10000	1	1	0	1	0
80	968	7	10000	1	1	0	1	0
86	969	7	10000	1	1	0	1	0
93	970	7	10000	1	1	0	1	0
98	971	7	10000	1	1	0	1	0
100	972	7	10000	1	1	0	1	0
104	973	7	10000	1	1	0	1	0
104	974	7	10000	1	1	0	1	0
115	975	7	10000	1	1	0	1	0
116	976	7	10000	1	1	0	1	0
117	977	7	10000	1	1	0	1	0
118	978	7	10000	1	1	0	1	0
128	979	7	10000	1	1	0	1	0
137	980	7	10000	1	1	0	1	0
134	981	7	10000	1	1	0	1	0
128	982	7	10000	1	1	0	1	0
122	983	7	10000	1	1	0	1	0
118	984	7	10000	1	1	0	1	0
124	985	7	10000	1	1	0	1	0
131	986	7	10000	1	1	0	1	0
128	987	7	10000	1	1	0	1	0
134	988	7	10000	1	1	0	1	0
148	989	7	10000	1	1	0	1	0
148	990	7	10000	1	1	0	1	0
159	991	7	10000	1	1	0	1	0
175	992	7	10000	1	1	0	1	0
189	993	7	10000	1	1	0	1	0
191	994	7	10000	1	1	0	1	0
184	995	7	10000	1	1	0	1	0
179	996	7	10000	1	1	0	1	0
172	997	7	10000	1	1	0	1	0
165	998	7	10000	1	1	0	1	0
166	999	7	10000	1	1	0	1	0
171	1000	7	10000	1	1	0	1	0
170	1001	7	10000	1	1	0	1	0
32	1	7	10000	2	1	0	2	0
32	2	7	10000	2	1	0	2	0
33	3	7	10000	2	1	0	2	0
35	4	7	10000	2	1	0	2	0
36	5	7	10000	2	1	0	2	0
36	6	7	10000	2	1	0	2	0
36	7	7	10000	2	1	0	2	0
38	8	7	10000	2	1	0	2	0
41	9	7	10000	2	1	0	2	0
44	10	7	10000	2	1	0	2	0
44	11	7	10000	2	1	0	2	0
44	12	7	10000	2	1	0	2	0
44	13	7	10000	2	1	0	2	0
43	14	7	10000	2	1	0	2	0
41	15	7	10000	2	1	0	2	0
40	16	7	10000	2	1	0	2	0
40	17	7	10000	2	1	0	2	0
39	18	7	10000	2	1	0	2	0
38	19	7	10000	2	1	0	2	0
36	20	7	10000	2	1	0	2	0
35	21	7	10000	2	1	0	2	0
35	22	7	10000	2	1	0	2	0
33	23	7	10000	2	1	0	2	0
32	24	7	10000	2	1	0	2	0
33	25	7	10000	2	1	0	2	0
34	26	7	10000	2	1	0	2	0
34	27	7	10000	2	1	0	2	0
33	28	7	10000	2	1	0	2	0
33	29	7	10000	2	1	0	2	0
37	30	7	10000	2	1	0	2	0
38	31	7	10000	2	1	0	2	0
39	32	7	10000	2	1	0	2	0
39	33	7	10000	2	1	0	2	0
40	34	7	10000	2	1	0	2	0
42	35	7	10000	2	1	0	2	0
40	36	7	10000	2	1	0	2	0
42	37	7	10000	2	1	0	2	0
45	38	7	10000	2	1	0	2	0
47	39	7	10000	2	1	0	2	0
45	40	7	10000	2	1	0	2	0
46	41	7	10000	2	1	0	2	0
48	42	7	10000	2	1	0	2	0
49	43	7	10000	2	1	0	2	0
48	44	7	10000	2	1	0	2	0
49	45	7	10000	2	1	0	2	0
48	46	7	10000	2	1	0	2	0
48	47	7	10000	2	1	0	2	0
47	48	7	10000	2	1	0	2	0
47	49	7	10000	2	1	0	2	0
50	50	7	10000	2	1	0	2	0
49	51	7	10000	2	1	0	2	0
47	52	7	10000	2	1	0	2	0
45	53	7	10000	2	1	0	2	0
45	54	7	10000	2	1	0	2	0
44	55	7	10000	2	1	0	2	0
43	56	7	10000	2	1	0	2	0
42	57	7	10000	2	1	0	2	0
42	58	7	10000	2	1	0	2	0
41	59	7	10000	2	1	0	2	0
38	60	7	10000	2	1	0	2	0
38	61	7	10000	2	1	0	2	0
40	62	7	10000	2	1	0	2	0
40	63	7	10000	2	1	0	2	0
41	64	7	10000	2	1	0	2	0
43	65	7	10000	2	1	0	2	0
44	66	7	10000	2	1	0	2	0
41	67	7	10000	2	1	0	2	0
40	68	7	10000	2	1	0	2	0
38	69	7	10000	2	1	0	2	0
38	70	7	10000	2	1	0	2	0
36	71	7	10000	2	1	0	2	0
34	72	7	10000	2	1	0	2	0
33	73	7	10000	2	1	0	2	0
33	74	7	10000	2	1	0	2	0
32	75	7	10000	2	1	0	2	0
31	76	7	10000	2	1	0	2	0
32	77	7	10000	2	1	0	2	0
33	78	7	10000	2	1	0	2	0
32	79	7	10000	2	1	0	2	0
30	80	7	10000	2	1	0	2	0
30	81	7	10000	2	1	0	2	0
29	82	7	10000	2	1	0	2	0
29	83	7	10000	2	1	0	2	0
28	84	7	10000	2	1	0	2	0
27	85	7	10000	2	1	0	2	0
26	86	7	10000	2	1	0	2	0
25	87	7	10000	2	1	0	2	0
25	88	7	10000	2	1	0	2	0
24	89	7	10000	2	1	0	2	0
25	90	7	10000	2	1	0	2	0
24	91	7	10000	2	1	0	2	0
23	92	7	10000	2	1	0	2	0
22	93	7	10000	2	1	0	2	0
22	94	7	10000	2	1	0	2	0
22	95	7	10000	2	1	0	2	0
22	96	7	10000	2	1	0	2	0
22	97	7	10000	2	1	0	2	0
22	98	7	10000	2	1	0	2	0
22	99	7	10000	2	1	0	2	0
20	100	7	10000	2	1	0	2	0
19	101	7	10000	2	1	0	2	0
20	102	7	10000	2	1	0	2	0
20	103	7	10000	2	1	0	2	0
22	104	7	10000	2	1	0	2	0
23	105	7	10000	2	1	0	2	0
23	106	7	10000	2	1	0	2	0
23	107	7	10000	2	1	0	2	0
23	108	7	10000	2	1	0	2	0
23	109	7	10000	2	1	0	2	0
23	110	7	10000	2	1	0	2	0
23	111	7	10000	2	1	0	2	0
22	112	7	10000	2	1	0	2	0
21	113	7	10000	2	1	0	2	0
22	114	7	10000	2	1	0	2	0
23	115	7	10000	2	1	0	2	0
22	116	7	10000	2	1	0	2	0
23	117	7	10000	2	1	0	2	0
23	118	7	10000	2	1	0	2	0
22	119	7	10000	2	1	0	2	0
20	120	7	10000	2	1	0	2	0
20	121	7	10000	2	1	0	2	0
20	122	7	10000	2	1	0	2	0
19	123	7	10000	2	1	0	2	0
19	124	7	10000	2	1	0	2	0
18	125	7	10000	2	1	0	2	0
18	126	7	10000	2	1	0	2	0
17	127	7	10000	2	1	0	2	0
17	128	7	10000	2	1	0	2	0
17	129	7	10000	2	1	0	2	0
18	130	7	10000	2	1	0	2	0
18	131	7	10000	2	1	0	2	0
17	132	7	10000	2	1	0	2	0
16	133	7	10000	2	1	0	2	0
18	134	7	10000	2	1	0	2	0
17	135	7	10000	2	1	0	2	0
17	136	7	10000	2	1	0	2	0
17	137	7	10000	2	1	0	2	0
17	138	7	10000	2	1	0	2	0
17	139	7	10000	2	1	0	2	0
16	140	7	10000	2	1	0	2	0
16	141	7	10000	2	1	0	2	0
16	142	7	10000	2	1	0	2	0
17	143	7	10000	2	1	0	2	0
17	144	7	10000	2	1	0	2	0
17	145	7	10000	2	1	0	2	0
18	146	7	10000	2	1	0	2	0
17	147	7	10000	2	1	0	2	0
16	148	7	10000	2	1	0	2	0
16	149	7	10000	2	1	0	2	0
18	150	7	10000	2	1	0	2	0
18	151	7	10000	2	1	0	2	0
17	152	7	10000	2	1	0	2	0
17	153	7	10000	2	1	0	2	0
16	154	7	10000	2	1	0	2	0
15	155	7	10000	2	1	0	2	0
14	156	7	10000	2	1	0	2	0
15	157	7	10000	2	1	0	2	0
15	158	7	10000	2	1	0	2	0
16	159	7	10000	2	1	0	2	0
14	160	7	10000	2	1	0	2	0
15	161	7	10000	2	1	0	2	0
15	162	7	10000	2	1	0	2	0
16	163	7	10000	2	1	0	2	0
17	164	7	10000	2	1	0	2	0
17	165	7	10000	2	1	0	2	0
18	166	7	10000	2	1	0	2	0
18	167	7	10000	2	1	0	2	0
18	168	7	10000	2	1	0	2	0
17	169	7	10000	2	1	0	2	0
19	170	7	10000	2	1	0	2	0
20	171	7	10000	2	1	0	2	0
19	172	7	10000	2	1	0	2	0
18	173	7	10000	2	1	0	2	0
18	174	7	10000	2	1	0	2	0
17	175	7	10000	2	1	0	2	0
17	176	7	10000	2	1	0	2	0
19	177	7	10000	2	1	0	2	0
18	178	7	10000	2	1	0	2	0
18	179	7	10000	2	1	0	2	0
16	180	7	10000	2	1	0	2	0
16	181	7	10000	2	1	0	2	0
16	182	7	10000	2	1	0	2	0
15	183	7	10000	2	1	0	2	0
15	184	7	10000	2	1	0	2	0
15	185	7	10000	2	1	0	2	0
15	186	7	10000	2	1	0	2	0
14	187	7	10000	2	1	0	2	0
14	188	7	10000	2	1	0	2	0
14	189	7	10000	2	1	0	2	0
16	190	7	10000	2	1	0	2	0
15	191	7	10000	2	1	0	2	0
15	192	7	10000	2	1	0	2	0
14	193	7	10000	2	1	0	2	0
15	194	7	10000	2	1	0	2	0
15	195	7	10000	2	1	0	2	0
14	196	7	10000	2	1	0	2	0
15	197	7	10000	2	1	0	2	0
15	198	7	10000	2	1	0	2	0
14	199	7	10000	2	1	0	2	0
12	200	7	10000	2	1	0	2	0
13	201	7	10000	2	1	0	2	0
13	202	7	10000	2	1	0	2	0
13	203	7	10000	2	1	0	2	0
13	204	7	10000	2	1	0	2	0
13	205	7	10000	2	1	0	2	0
14	206	7	10000	2	1	0	2	0
14	207	7	10000	2	1	0	2	0
13	208	7	10000	2	1	0	2	0
14	209	7	10000	2	1	0	2	0
16	210	7	10000	2	1	0	2	0
14	211	7	10000	2	1	0	2	0
14	212	7	10000	2	1	0	2	0
13	213	7	10000	2	1	0	2	0
13	214	7	10000	2	1	0	2	0
13	215	7	10000	2	1	0	2	0
12	216	7	10000	2	1	0	2	0
15	217	7	10000	2	1	0	2	0
14	218	7	10000	2	1	0	2	0
14	219	7	10000	2	1	0	2	0
12	220	7	10000	2	1	0	2	0
12	221	7	10000	2	1	0	2	0
13	222	7	10000	2	1	0	2	0
14	223	7	10000	2	1	0	2	0
13	224	7	10000	2	1	0	2	0
13	225	7	10000	2	1	0	2	0
13	226	7	10000	2	1	0	2	0
12	227	7	10000	2	1	0	2	0
11	228	7	10000	2	1	0	2	0
12	229	7	10000	2	1	0	2	0
14	230	7	10000	2	1	0	2	0
13	231	7	10000	2	1	0	2	0
13	232	7	10000	2	1	0	2	0
13	233	7	10000	2	1	0	2	0
14	234	7	10000	2	1	0	2	0
14	235	7	10000	2	1	0	2	0
13	236	7	10000	2	1	0	2	0
14	237	7	10000	2	1	0	2	0
13	238	7	10000	2	1	0	2	0
13	239	7	10000	2	1	0	2	0
11	240	7	10000	2	1	0	2	0
12	241	7	10000	2	1	0	2	0
11	242	7	10000	2	1	0	2	0
13	243	7	10000	2	1	0	2	0
13	244	7	10000	2	1	0	2	0
13	245	7	10000	2	1	0	2	0
13	246	7	10000	2	1	0	2	0
12	247	7	10000	2	1	0	2	0
12	248	7	10000	2	1	0	2	0
12	249	7	10000	2	1	0	2	0
13	250	7	10000	2	1	0	2	0
13	251	7	10000	2	1	0	2	0
14	252	7	10000	2	1	0	2	0
14	253	7	10000	2	1	0	2	0
14	254	7	10000	2	1	0	2	0
13	255	7	10000	2	1	0	2	0
13	256	7	10000	2	1	0	2	0
14	257	7	10000	2	1	0	2	0
14	258	7	10000	2	1	0	2	0
13	259	7	10000	2	1	0	2	0
12	260	7	10000	2	1	0	2	0
12	261	7	10000	2	1	0	2	0
12	262	7	10000	2	1	0	2	0
12	263	7	10000	2	1	0	2	0
11	264	7	10000	2	1	0	2	0
12	265	7	10000	2	1	0	2	0
13	266	7	10000	2	1	0	2	0
12	267	7	10000	2	1	0	2	0
12	268	7	10000	2	1	0	2	0
12	269	7	10000	2	1	0	2	0
13	270	7	10000	2	1	0	2	0
13	271	7	10000	2	1	0	2	0
12	272	7	10000	2	1	0	2	0
12	273	7	10000	2	1	0	2	0
12	274	7	10000	2	1	0	2	0
12	275	7	10000	2	1	0	2	0
12	276	7	10000	2	1	0	2	0
12	277	7	10000	2	1	0	2	0
12	278	7	10000	2	1	0	2	0
11	279	7	10000	2	1	0	2	0
11	280	7	10000	2	1	0	2	0
12	281	7	10000	2	1	0	2	0
11	282	7	10000	2	1	0	2	0
13	283	7	10000	2	1	0	2	0
13	284	7	10000	2	1	0	2	0
12	285	7	10000	2	1	0	2	0
13	286	7	10000	2	1	0	2	0
12	287	7	10000	2	1	0	2	0
11	288	7	10000	2	1	0	2	0
11	289	7	10000	2	1	0	2	0
13	290	7	10000	2	1	0	2	0
12	291	7	10000	2	1	0	2	0
12	292	7	10000	2	1	0	2	0
12	293	7	10000	2	1	0	2	0
12	294	7	10000	2	1	0	2	0
13	295	7	10000	2	1	0	2	0
12	296	7	10000	2	1	0	2	0
12	297	7	10000	2	1	0	2	0
13	298	7	10000	2	1	0	2	0
13	299	7	10000	2	1	0	2	0
12	300	7	10000	2	1	0	2	0
11	301	7	10000	2	1	0	2	0
11	302	7	10000	2	1	0	2	0
12	303	7	10000	2	1	0	2	0
11	304	7	10000	2	1	0	2	0
11	305	7	10000	2	1	0	2	0
11	306	7	10000	2	1	0	2	0
10	307	7	10000	2	1	0	2	0
10	308	7	10000	2	1	0	2	0
11	309	7	10000	2	1	0	2	0
12	310	7	10000	2	1	0	2	0
12	311	7	10000	2	1	0	2	0
11	312	7	10000	2	1	0	2	0
11	313	7	10000	2	1	0	2	0
11	314	7	10000	2	1	0	2	0
11	315	7	10000	2	1	0	2	0
11	316	7	10000	2	1	0	2	0
12	317	7	10000	2	1	0	2	0
12	318	7	10000	2	1	0	2	0
12	319	7	10000	2	1	0	2	0
10	320	7	10000	2	1	0	2	0
10	321	7	10000	2	1	0	2	0
11	322	7	10000	2	1	0	2	0
13	323	7	10000	2	1	0	2	0
13	324	7	10000	2	1	0	2	0
12	325	7	10000	2	1	0	2	0
13	326	7	10000	2	1	0	2	0
11	327	7	10000	2	1	0	2	0
12	328	7	10000	2	1	0	2	0
12	329	7	10000	2	1	0	2	0
14	330	7	10000	2	1	0	2	0
13	331	7	10000	2	1	0	2	0
14	332	7	10000	2	1	0	2	0
16	333	7	10000	2	1	0	2	0
16	334	7	10000	2	1	0	2	0
15	335	7	10000	2	1	0	2	0
15	336	7	10000	2	1	0	2	0
15	337	7	10000	2	1	0	2	0
16	338	7	10000	2	1	0	2	0
16	339	7	10000	2	1	0	2	0
14	340	7	10000	2	1	0	2	0
15	341	7	10000	2	1	0	2	0
15	342	7	10000	2	1	0	2	0
16	343	7	10000	2	1	0	2	0
15	344	7	10000	2	1	0	2	0
16	345	7	10000	2	1	0	2	0
17	346	7	10000	2	1	0	2	0
15	347	7	10000	2	1	0	2	0
14	348	7	10000	2	1	0	2	0
15	349	7	10000	2	1	0	2	0
17	350	7	10000	2	1	0	2	0
16	351	7	10000	2	1	0	2	0
16	352	7	10000	2	1	0	2	0
15	353	7	10000	2	1	0	2	0
15	354	7	10000	2	1	0	2	0
17	355	7	10000	2	1	0	2	0
16	356	7	10000	2	1	0	2	0
16	357	7	10000	2	1	0	2	0
17	358	7	10000	2	1	0	2	0
15	359	7	10000	2	1	0	2	0
13	360	7	10000	2	1	0	2	0
14	361	7	10000	2	1	0	2	0
14	362	7	10000	2	1	0	2	0
14	363	7	10000	2	1	0	2	0
14	364	7	10000	2	1	0	2	0
13	365	7	10000	2	1	0	2	0
14	366	7	10000	2	1	0	2	0
14	367	7	10000	2	1	0	2	0
13	368	7	10000	2	1	0	2	0
14	369	7	10000	2	1	0	2	0
15	370	7	10000	2	1	0	2	0
14	371	7	10000	2	1	0	2	0
15	372	7	10000	2	1	0	2	0
15	373	7	10000	2	1	0	2	0
15	374	7	10000	2	1	0	2	0
16	375	7	10000	2	1	0	2	0
15	376	7	10000	2	1	0	2	0
16	377	7	10000	2	1	0	2	0
16	378	7	10000	2	1	0	2	0
16	379	7	10000	2	1	0	2	0
14	380	7	10000	2	1	0	2	0
15	381	7	10000	2	1	0	2	0
14	382	7	10000	2	1	0	2	0
14	383	7	10000	2	1	0	2	0
15	384	7	10000	2	1	0	2	0
15	385	7	10000	2	1	0	2	0
16	386	7	10000	2	1	0	2	0
15	387	7	10000	2	1	0	2	0
14	388	7	10000	2	1	0	2	0
14	389	7	10000	2	1	0	2	0
15	390	7	10000	2	1	0	2	0
16	391	7	10000	2	1	0	2	0
15	392	7	10000	2	1	0	2	0
15	393	7	10000	2	1	0	2	0
15	394	7	10000	2	1	0	2	0
14	395	7	10000	2	1	0	2	0
13	396	7	10000	2	1	0	2	0
13	397	7	10000	2	1	0	2	0
14	398	7	10000	2	1	0	2	0
14	399	7	10000	2	1	0	2	0
12	400	7	10000	2	1	0	2	0
12	401	7	10000	2	1	0	2	0
12	402	7	10000	2	1	0	2	0
13	403	7	10000	2	1	0	2	0
12	404	7	10000	2	1	0	2	0
12	405	7	10000	2	1	0	2	0
13	406	7	10000	2	1	0	2	0
11	407	7	10000	2	1	0	2	0
12	408	7	10000	2	1	0	2	0
13	409	7	10000	2	1	0	2	0
15	410	7	10000	2	1	0	2	0
15	411	7	10000	2	1	0	2	0
17	412	7	10000	2	1	0	2	0
17	413	7	10000	2	1	0	2	0
18	414	7	10000	2	1	0	2	0
17	415	7	10000	2	1	0	2	0
16	416	7	10000	2	1	0	2	0
18	417	7	10000	2	1	0	2	0
20	418	7	10000	2	1	0	2	0
20	419	7	10000	2	1	0	2	0
19	420	7	10000	2	1	0	2	0
19	421	7	10000	2	1	0	2	0
18	422	7	10000	2	1	0	2	0
18	423	7	10000	2	1	0	2	0
19	424	7	10000	2	1	0	2	0
20	425	7	10000	2	1	0	2	0
21	426	7	10000	2	1	0	2	0
21	427	7	10000	2	1	0	2	0
22	428	7	10000	2	1	0	2	0
24	429	7	10000	2	1	0	2	0
24	430	7	10000	2	1	0	2	0
23	431	7	10000	2	1	0	2	0
23	432	7	10000	2	1	0	2	0
22	433	7	10000	2	1	0	2	0
21	434	7	10000	2	1	0	2	0
21	435	7	10000	2	1	0	2	0
20	436	7	10000	2	1	0	2	0
20	437	7	10000	2	1	0	2	0
21	438	7	10000	2	1	0	2	0
21	439	7	10000	2	1	0	2	0
19	440	7	10000	2	1	0	2	0
20	441	7	10000	2	1	0	2	0
20	442	7	10000	2	1	0	2	0
19	443	7	10000	2	1	0	2	0
19	444	7	10000	2	1	0	2	0
18	445	7	10000	2	1	0	2	0
18	446	7	10000	2	1	0	2	0
17	447	7	10000	2	1	0	2	0
16	448	7	10000	2	1	0	2	0
16	449	7	10000	2	1	0	2	0
18	450	7	10000	2	1	0	2	0
18	451	7	10000	2	1	0	2	0
19	452	7	10000	2	1	0	2	0
18	453	7	10000	2	1	0	2	0
18	454	7	10000	2	1	0	2	0
18	455	7	10000	2	1	0	2	0
17	456	7	10000	2	1	0	2	0
17	457	7	10000	2	1	0	2	0
18	458	7	10000	2	1	0	2	0
18	459	7	10000	2	1	0	2	0
16	460	7	10000	2	1	0	2	0
17	461	7	10000	2	1	0	2	0
18	462	7	10000	2	1	0	2	0
19	463	7	10000	2	1	0	2	0
19	464	7	10000	2	1	0	2	0
19	465	7	10000	2	1	0	2	0
19	466	7	10000	2	1	0	2	0
18	467	7	10000	2	1	0	2	0
18	468	7	10000	2	1	0	2	0
19	469	7	10000	2	1	0	2	0
20	470	7	10000	2	1	0	2	0
20	471	7	10000	2	1	0	2	0
21	472	7	10000	2	1	0	2	0
20	473	7	10000	2	1	0	2	0
19	474	7	10000	2	1	0	2	0
19	475	7	10000	2	1	0	2	0
17	476	7	10000	2	1	0	2	0
18	477	7	10000	2	1	0	2	0
18	478	7	10000	2	1	0	2	0
17	479	7	10000	2	1	0	2	0
15	480	7	10000	2	1	0	2	0
15	481	7	10000	2	1	0	2	0
15	482	7	10000	2	1	0	2	0
15	483	7	10000	2	1	0	2	0
15	484	7	10000	2	1	0	2	0
15	485	7	10000	2	1	0	2	0
15	486	7	10000	2	1	0	2	0
14	487	7	10000	2	1	0	2	0
13	488	7	10000	2	1	0	2	0
13	489	7	10000	2	1	0	2	0
15	490	7	10000	2	1	0	2	0
15	491	7	10000	2	1	0	2	0
16	492	7	10000	2	1	0	2	0
15	493	7	10000	2	1	0	2	0
15	494	7	10000	2	1	0	2	0
16	495	7	10000	2	1	0	2	0
14	496	7	10000	2	1	0	2	0
15	497	7	10000	2	1	0	2	0
16	498	7	10000	2	1	0	2	0
15	499	7	10000	2	1	0	2	0
13	500	7	10000	2	1	0	2	0
14	501	7	10000	2	1	0	2	1
14	502	7	10000	2	1	0	2	1
16	503	7	10000	2	1	0	2	1
16	504	7	10000	2	1	0	2	1
16	505	7	10000	2	1	0	2	1
16	506	7	10000	2	1	0	2	1
15	507	7	10000	2	1	0	2	1
14	508	7	10000	2	1	0	2	1
14	509	7	10000	2	1	0	2	1
17	510	7	10000	2	1	0	2	1
16	511	7	10000	2	1	0	2	1
17	512	7	10000	2	1	0	2	1
17	513	7	10000	2	1	0	2	1
16	514	7	10000	2	1	0	2	1
17	515	7	10000	2	1	0	2	1
15	516	7	10000	2	1	0	2	1
16	517	7	10000	2	1	0	2	1
16	518	7	10000	2	1	0	2	1
15	519	7	10000	2	1	0	2	1
15	520	7	10000	2	1	0	2	1
17	521	7	10000	2	1	0	2	1
17	522	7	10000	2	1	0	2	1
17	523	7	10000	2	1	0	2	1
17	524	7	10000	2	1	0	2	1
16	525	7	10000	2	1	0	2	1
16	526	7	10000	2	1	0	2	1
16	527	7	10000	2	1	0	2	1
16	528	7	10000	2	1	0	2	1
17	529	7	10000	2	1	0	2	1
18	530	7	10000	2	1	0	2	1
18	531	7	10000	2	1	0	2	1
17	532	7	10000	2	1	0	2	1
17	533	7	10000	2	1	0	2	1
16	534	7	10000	2	1	0	2	1
17	535	7	10000	2	1	0	2	1
16	536	7	10000	2	1	0	2	1
16	537	7	10000	2	1	0	2	1
17	538	7	10000	2	1	0	2	1
15	539	7	10000	2	1	0	2	1
13	540	7	10000	2	1	0	2	1
14	541	7	10000	2	1	0	2	1
13	542	7	10000	2	1	0	2	1
14	543	7	10000	2	1	0	2	1
14	544	7	10000	2	1	0	2	1
13	545	7	10000	2	1	0	2	1
13	546	7	10000	2	1	0	2	1
13	547	7	10000	2	1	0	2	1
13	548	7	10000	2	1	0	2	1
14	549	7	10000	2	1	0	2	1
15	550	7	10000	2	1	0	2	1
15	551	7	10000	2	1	0	2	0
14	552	7	10000	2	1	0	2	0
13	553	7	10000	2	1	0	2	0
13	554	7	10000	2	1	0	2	0
14	555	7	10000	2	1	0	2	0
14	556	7	10000	2	1	0	2	0
14	557	7	10000	2	1	0	2	0
15	558	7	10000	2	1	0	2	0
13	559	7	10000	2	1	0	2	0
11	560	7	10000	2	1	0	2	0
11	561	7	10000	2	1	0	2	0
11	562	7	10000	2	1	0	2	0
11	563	7	10000	2	1	0	2	0
11	564	7	10000	2	1	0	2	0
12	565	7	10000	2	1	0	2	0
12	566	7	10000	2	1	0	2	0
11	567	7	10000	2	1	0	2	0
11	568	7	10000	2	1	0	2	0
15	569	7	10000	2	1	0	2	0
19	570	7	10000	2	1	0	2	0
21	571	7	10000	2	1	0	2	0
24	572	7	10000	2	1	0	2	0
27	573	7	10000	2	1	0	2	0
27	574	7	10000	2	1	0	2	0
27	575	7	10000	2	1	0	2	0
26	576	7	10000	2	1	0	2	0
26	577	7	10000	2	1	0	2	0
26	578	7	10000	2	1	0	2	0
25	579	7	10000	2	1	0	2	0
22	580	7	10000	2	1	0	2	0
24	581	7	10000	2	1	0	2	0
28	582	7	10000	2	1	0	2	0
32	583	7	10000	2	1	0	2	0
37	584	7	10000	2	1	0	2	0
51	585	7	10000	2	1	0	2	0
56	586	7	10000	2	1	0	2	0
68	587	7	10000	2	1	0	2	0
77	588	7	10000	2	1	0	2	0
94	589	7	10000	2	1	0	2	0
128	590	7	10000	2	1	0	2	0
137	591	7	10000	2	1	0	2	0
136	592	7	10000	2	1	0	2	0
147	593	7	10000	2	1	0	2	0
160	594	7	10000	2	1	0	2	0
164	595	7	10000	2	1	0	2	0
169	596	7	10000	2	1	0	2	0
186	597	7	10000	2	1	0	2	0
200	598	7	10000	2	1	0	2	0
208	599	7	10000	2	1	0	2	0
270	600	7	10000	2	1	0	2	0
337	601	7	10000	2	1	0	2	0
342	602	7	10000	2	1	0	2	0
336	603	7	10000	2	1	0	2	0
362	604	7	10000	2	1	0	2	0
379	605	7	10000	2	1	0	2	0
398	606	7	10000	2	1	0	2	0
495	607	7	10000	2	1	0	2	0
549	608	7	10000	2	1	0	2	0
558	609	7	10000	2	1	0	2	0
644	610	7	10000	2	1	0	2	0
774	611	7	10000	2	1	0	2	0
875	612	7	10000	2	1	0	2	0
885	613	7	10000	2	1	0	2	0
904	614	7	10000	2	1	0	2	0
973	615	7	10000	2	1	0	2	0
1056	616	7	10000	2	1	0	2	0
1069	617	7	10000	2	1	0	2	0
1072	618	7	10000	2	1	0	2	0
1043	619	7	10000	2	1	0	2	0
1004	620	7	10000	2	1	0	2	0
985	621	7	10000	2	1	0	2	0
970	622	7	10000	2	1	0	2	0
936	623	7	10000	2	1	0	2	0
899	624	7	10000	2	1	0	2	0
884	625	7	10000	2	1	0	2	0
863	626	7	10000	2	1	0	2	0
828	627	7	10000	2	1	0	2	0
803	628	7	10000	2	1	0	2	0
786	629	7	10000	2	1	0	2	0
768	630	7	10000	2	1	0	2	0
751	631	7	10000	2	1	0	2	0
737	632	7	10000	2	1	0	2	0
722	633	7	10000	2	1	0	2	0
708	634	7	10000	2	1	0	2	0
695	635	7	10000	2	1	0	2	0
684	636	7	10000	2	1	0	2	0
677	637	7	10000	2	1	0	2	0
660	638	7	10000	2	1	0	2	0
633	639	7	10000	2	1	0	2	0
615	640	7	10000	2	1	0	2	0
625	641	7	10000	2	1	0	2	0
624	642	7	10000	2	1	0	2	0
612	643	7	10000	2	1	0	2	0
610	644	7	10000	2	1	0	2	0
611	645	7	10000	2	1	0	2	0
606	646	7	10000	2	1	0	2	0
588	647	7	10000	2	1	0	2	0
563	648	7	10000	2	1	0	2	0
543	649	7	10000	2	1	0	2	0
531	650	7	10000	2	1	0	2	0
534	651	7	10000	2	1	0	2	0
522	652	7	10000	2	1	0	2	0
506	653	7	10000	2	1	0	2	0
482	654	7	10000	2	1	0	2	0
462	655	7	10000	2	1	0	2	0
444	656	7	10000	2	1	0	2	0
431	657	7	10000	2	1	0	2	0
421	658	7	10000	2	1	0	2	0
406	659	7	10000	2	1	0	2	0
393	660	7	10000	2	1	0	2	0
384	661	7	10000	2	1	0	2	0
373	662	7	10000	2	1	0	2	0
373	663	7	10000	2	1	0	2	0
365	664	7	10000	2	1	0	2	0
358	665	7	10000	2	1	0	2	0
395	666	7	10000	2	1	0	2	0
432	667	7	10000	2	1	0	2	0
440	668	7	10000	2	1	0	2	0
436	669	7	10000	2	1	0	2	0
426	670	7	10000	2	1	0	2	0
423	671	7	10000	2	1	0	2	0
429	672	7	10000	2	1	0	2	0
450	673	7	10000	2	1	0	2	0
479	674	7	10000	2	1	0	2	0
490	675	7	10000	2	1	0	2	0
480	676	7	10000	2	1	0	2	0
461	677	7	10000	2	1	0	2	0
466	678	7	10000	2	1	0	2	0
496	679	7	10000	2	1	0	2	0
521	680	7	10000	2	1	0	2	0
529	681	7	10000	2	1	0	2	0
523	682	7	10000	2	1	0	2	0
520	683	7	10000	2	1	0	2	0
518	684	7	10000	2	1	0	2	0
518	685	7	10000	2	1	0	2	0
518	686	7	10000	2	1	0	2	0
512	687	7	10000	2	1	0	2	0
502	688	7	10000	2	1	0	2	0
494	689	7	10000	2	1	0	2	0
491	690	7	10000	2	1	0	2	0
475	691	7	10000	2	1	0	2	0
464	692	7	10000	2	1	0	2	0
454	693	7	10000	2	1	0	2	0
453	694	7	10000	2	1	0	2	0
452	695	7	10000	2	1	0	2	0
438	696	7	10000	2	1	0	2	0
429	697	7	10000	2	1	0	2	0
420	698	7	10000	2	1	0	2	0
413	699	7	10000	2	1	0	2	0
403	700	7	10000	2	1	0	2	0
394	701	7	10000	2	1	0	2	0
383	702	7	10000	2	1	0	2	0
369	703	7	10000	2	1	0	2	0
357	704	7	10000	2	1	0	2	0
346	705	7	10000	2	1	0	2	0
333	706	7	10000	2	1	0	2	0
319	707	7	10000	2	1	0	2	0
304	708	7	10000	2	1	0	2	0
290	709	7	10000	2	1	0	2	0
279	710	7	10000	2	1	0	2	0
266	711	7	10000	2	1	0	2	0
254	712	7	10000	2	1	0	2	0
242	713	7	10000	2	1	0	2	0
235	714	7	10000	2	1	0	2	0
230	715	7	10000	2	1	0	2	0
225	716	7	10000	2	1	0	2	0
222	717	7	10000	2	1	0	2	0
214	718	7	10000	2	1	0	2	0
207	719	7	10000	2	1	0	2	0
200	720	7	10000	2	1	0	2	0
192	721	7	10000	2	1	0	2	0
184	722	7	10000	2	1	0	2	0
177	723	7	10000	2	1	0	2	0
174	724	7	10000	2	1	0	2	0
172	725	7	10000	2	1	0	2	0
175	726	7	10000	2	1	0	2	0
178	727	7	10000	2	1	0	2	0
179	728	7	10000	2	1	0	2	0
182	729	7	10000	2	1	0	2	0
187	730	7	10000	2	1	0	2	0
189	731	7	10000	2	1	0	2	0
191	732	7	10000	2	1	0	2	0
191	742	7	10000	2	1	0	2	0
190	743	7	10000	2	1	0	2	0
190	744	7	10000	2	1	0	2	0
188	745	7	10000	2	1	0	2	0
185	746	7	10000	2	1	0	2	0
181	747	7	10000	2	1	0	2	0
177	748	7	10000	2	1	0	2	0
174	749	7	10000	2	1	0	2	0
173	750	7	10000	2	1	0	2	0
171	751	7	10000	2	1	0	2	0
171	752	7	10000	2	1	0	2	0
174	753	7	10000	2	1	0	2	0
176	751	7	10000	2	1	0	2	0
175	752	7	10000	2	1	0	2	0
169	753	7	10000	2	1	0	2	0
165	754	7	10000	2	1	0	2	0
169	755	7	10000	2	1	0	2	0
178	756	7	10000	2	1	0	2	0
182	757	7	10000	2	1	0	2	0
182	758	7	10000	2	1	0	2	0
182	762	7	10000	2	1	0	2	0
179	763	7	10000	2	1	0	2	0
176	764	7	10000	2	1	0	2	0
173	765	7	10000	2	1	0	2	0
170	766	7	10000	2	1	0	2	0
167	767	7	10000	2	1	0	2	0
167	768	7	10000	2	1	0	2	0
162	769	7	10000	2	1	0	2	0
159	770	7	10000	2	1	0	2	0
155	771	7	10000	2	1	0	2	0
149	767	7	10000	2	1	0	2	0
143	768	7	10000	2	1	0	2	0
137	769	7	10000	2	1	0	2	0
133	770	7	10000	2	1	0	2	0
133	771	7	10000	2	1	0	2	0
133	772	7	10000	2	1	0	2	0
134	772	7	10000	2	1	0	2	0
144	773	7	10000	2	1	0	2	0
154	774	7	10000	2	1	0	2	0
155	775	7	10000	2	1	0	2	0
152	778	7	10000	2	1	0	2	0
148	779	7	10000	2	1	0	2	0
142	780	7	10000	2	1	0	2	0
139	781	7	10000	2	1	0	2	0
133	782	7	10000	2	1	0	2	0
131	783	7	10000	2	1	0	2	0
130	783	7	10000	2	1	0	2	0
128	784	7	10000	2	1	0	2	0
126	785	7	10000	2	1	0	2	0
121	786	7	10000	2	1	0	2	0
116	787	7	10000	2	1	0	2	0
113	788	7	10000	2	1	0	2	0
113	789	7	10000	2	1	0	2	0
116	790	7	10000	2	1	0	2	0
120	791	7	10000	2	1	0	2	0
120	792	7	10000	2	1	0	2	0
119	793	7	10000	2	1	0	2	0
120	794	7	10000	2	1	0	2	0
116	794	7	10000	2	1	0	2	0
110	795	7	10000	2	1	0	2	0
105	796	7	10000	2	1	0	2	0
102	797	7	10000	2	1	0	2	0
97	799	7	10000	2	1	0	2	0
94	800	7	10000	2	1	0	2	0
94	801	7	10000	2	1	0	2	0
95	802	7	10000	2	1	0	2	0
92	803	7	10000	2	1	0	2	0
88	804	7	10000	2	1	0	2	0
86	806	7	10000	2	1	0	2	0
85	807	7	10000	2	1	0	2	0
83	808	7	10000	2	1	0	2	0
80	809	7	10000	2	1	0	2	0
79	810	7	10000	2	1	0	2	0
80	811	7	10000	2	1	0	2	0
77	807	7	10000	2	1	0	2	0
75	808	7	10000	2	1	0	2	0
71	809	7	10000	2	1	0	2	0
72	810	7	10000	2	1	0	2	0
73	811	7	10000	2	1	0	2	0
72	812	7	10000	2	1	0	2	0
72	813	7	10000	2	1	0	2	0
71	814	7	10000	2	1	0	2	0
69	815	7	10000	2	1	0	2	0
66	816	7	10000	2	1	0	2	0
66	817	7	10000	2	1	0	2	0
67	818	7	10000	2	1	0	2	0
69	819	7	10000	2	1	0	2	0
68	820	7	10000	2	1	0	2	0
69	821	7	10000	2	1	0	2	0
69	822	7	10000	2	1	0	2	0
69	823	7	10000	2	1	0	2	0
69	824	7	10000	2	1	0	2	0
67	825	7	10000	2	1	0	2	0
66	826	7	10000	2	1	0	2	0
64	827	7	10000	2	1	0	2	0
63	828	7	10000	2	1	0	2	0
64	829	7	10000	2	1	0	2	0
66	830	7	10000	2	1	0	2	0
63	831	7	10000	2	1	0	2	0
61	832	7	10000	2	1	0	2	0
61	833	7	10000	2	1	0	2	0
60	834	7	10000	2	1	0	2	0
59	835	7	10000	2	1	0	2	0
66	836	7	10000	2	1	0	2	0
71	837	7	10000	2	1	0	2	0
71	838	7	10000	2	1	0	2	0
76	839	7	10000	2	1	0	2	0
80	840	7	10000	2	1	0	2	0
80	841	7	10000	2	1	0	2	0
78	842	7	10000	2	1	0	2	0
78	843	7	10000	2	1	0	2	0
76	844	7	10000	2	1	0	2	0
74	845	7	10000	2	1	0	2	0
73	846	7	10000	2	1	0	2	0
74	847	7	10000	2	1	0	2	0
75	848	7	10000	2	1	0	2	0
74	849	7	10000	2	1	0	2	0
74	850	7	10000	2	1	0	2	0
71	851	7	10000	2	1	0	2	0
69	852	7	10000	2	1	0	2	0
68	853	7	10000	2	1	0	2	0
68	854	7	10000	2	1	0	2	0
68	855	7	10000	2	1	0	2	0
67	856	7	10000	2	1	0	2	0
65	857	7	10000	2	1	0	2	0
63	858	7	10000	2	1	0	2	0
61	859	7	10000	2	1	0	2	0
57	860	7	10000	2	1	0	2	0
59	861	7	10000	2	1	0	2	0
65	862	7	10000	2	1	0	2	0
71	863	7	10000	2	1	0	2	0
76	864	7	10000	2	1	0	2	0
77	865	7	10000	2	1	0	2	0
78	866	7	10000	2	1	0	2	0
75	867	7	10000	2	1	0	2	0
73	868	7	10000	2	1	0	2	0
72	869	7	10000	2	1	0	2	0
75	870	7	10000	2	1	0	2	0
79	871	7	10000	2	1	0	2	0
82	872	7	10000	2	1	0	2	0
81	873	7	10000	2	1	0	2	0
78	874	7	10000	2	1	0	2	0
77	875	7	10000	2	1	0	2	0
74	876	7	10000	2	1	0	2	0
73	877	7	10000	2	1	0	2	0
71	878	7	10000	2	1	0	2	0
71	879	7	10000	2	1	0	2	0
70	880	7	10000	2	1	0	2	0
68	881	7	10000	2	1	0	2	0
65	882	7	10000	2	1	0	2	0
63	883	7	10000	2	1	0	2	0
62	884	7	10000	2	1	0	2	0
62	885	7	10000	2	1	0	2	0
61	886	7	10000	2	1	0	2	0
60	887	7	10000	2	1	0	2	0
61	888	7	10000	2	1	0	2	0
63	889	7	10000	2	1	0	2	0
67	890	7	10000	2	1	0	2	0
64	891	7	10000	2	1	0	2	0
61	892	7	10000	2	1	0	2	0
61	893	7	10000	2	1	0	2	0
61	894	7	10000	2	1	0	2	0
64	895	7	10000	2	1	0	2	0
64	896	7	10000	2	1	0	2	0
63	897	7	10000	2	1	0	2	0
61	898	7	10000	2	1	0	2	0
62	899	7	10000	2	1	0	2	0
66	900	7	10000	2	1	0	2	0
74	901	7	10000	2	1	0	2	0
84	902	7	10000	2	1	0	2	0
85	903	7	10000	2	1	0	2	0
88	904	7	10000	2	1	0	2	0
91	905	7	10000	2	1	0	2	0
92	906	7	10000	2	1	0	2	0
92	907	7	10000	2	1	0	2	0
92	908	7	10000	2	1	0	2	0
94	909	7	10000	2	1	0	2	0
96	910	7	10000	2	1	0	2	0
92	911	7	10000	2	1	0	2	0
89	912	7	10000	2	1	0	2	0
88	913	7	10000	2	1	0	2	0
86	914	7	10000	2	1	0	2	0
82	915	7	10000	2	1	0	2	0
80	916	7	10000	2	1	0	2	0
79	917	7	10000	2	1	0	2	0
79	918	7	10000	2	1	0	2	0
79	919	7	10000	2	1	0	2	0
74	920	7	10000	2	1	0	2	0
73	921	7	10000	2	1	0	2	0
72	922	7	10000	2	1	0	2	0
72	923	7	10000	2	1	0	2	0
71	924	7	10000	2	1	0	2	0
69	925	7	10000	2	1	0	2	0
67	926	7	10000	2	1	0	2	0
63	927	7	10000	2	1	0	2	0
61	928	7	10000	2	1	0	2	0
61	929	7	10000	2	1	0	2	0
63	930	7	10000	2	1	0	2	0
60	931	7	10000	2	1	0	2	0
58	932	7	10000	2	1	0	2	0
58	933	7	10000	2	1	0	2	0
58	934	7	10000	2	1	0	2	0
60	935	7	10000	2	1	0	2	0
62	936	7	10000	2	1	0	2	0
61	937	7	10000	2	1	0	2	0
60	938	7	10000	2	1	0	2	0
59	939	7	10000	2	1	0	2	0
59	940	7	10000	2	1	0	2	0
67	941	7	10000	2	1	0	2	0
70	942	7	10000	2	1	0	2	0
72	943	7	10000	2	1	0	2	0
70	944	7	10000	2	1	0	2	0
68	945	7	10000	2	1	0	2	0
71	946	7	10000	2	1	0	2	0
70	947	7	10000	2	1	0	2	0
70	948	7	10000	2	1	0	2	0
70	949	7	10000	2	1	0	2	0
81	950	7	10000	2	1	0	2	0
95	951	7	10000	2	1	0	2	0
101	952	7	10000	2	1	0	2	0
98	953	7	10000	2	1	0	2	0
93	954	7	10000	2	1	0	2	0
92	955	7	10000	2	1	0	2	0
95	956	7	10000	2	1	0	2	0
99	957	7	10000	2	1	0	2	0
100	958	7	10000	2	1	0	2	0
99	959	7	10000	2	1	0	2	0
98	960	7	10000	2	1	0	2	0
97	961	7	10000	2	1	0	2	0
95	962	7	10000	2	1	0	2	0
96	963	7	10000	2	1	0	2	0
100	964	7	10000	2	1	0	2	0
101	965	7	10000	2	1	0	2	0
103	966	7	10000	2	1	0	2	0
108	967	7	10000	2	1	0	2	0
113	968	7	10000	2	1	0	2	0
112	969	7	10000	2	1	0	2	0
122	970	7	10000	2	1	0	2	0
132	971	7	10000	2	1	0	2	0
133	972	7	10000	2	1	0	2	0
129	973	7	10000	2	1	0	2	0
129	974	7	10000	2	1	0	2	0
125	975	7	10000	2	1	0	2	0
120	976	7	10000	2	1	0	2	0
116	977	7	10000	2	1	0	2	0
113	978	7	10000	2	1	0	2	0
113	979	7	10000	2	1	0	2	0
112	980	7	10000	2	1	0	2	0
115	981	7	10000	2	1	0	2	0
118	982	7	10000	2	1	0	2	0
120	983	7	10000	2	1	0	2	0
118	984	7	10000	2	1	0	2	0
120	985	7	10000	2	1	0	2	0
123	986	7	10000	2	1	0	2	0
124	987	7	10000	2	1	0	2	0
125	988	7	10000	2	1	0	2	0
120	989	7	10000	2	1	0	2	0
121	990	7	10000	2	1	0	2	0
121	991	7	10000	2	1	0	2	0
117	992	7	10000	2	1	0	2	0
112	993	7	10000	2	1	0	2	0
110	994	7	10000	2	1	0	2	0
107	995	7	10000	2	1	0	2	0
104	996	7	10000	2	1	0	2	0
103	997	7	10000	2	1	0	2	0
103	998	7	10000	2	1	0	2	0
102	999	7	10000	2	1	0	2	0
100	1000	7	10000	2	1	0	2	0
19	1	7	10000	3	1	0	3	0
18	2	7	10000	3	1	0	3	0
17	3	7	10000	3	1	0	3	0
17	4	7	10000	3	1	0	3	0
19	5	7	10000	3	1	0	3	0
19	6	7	10000	3	1	0	3	0
18	7	7	10000	3	1	0	3	0
17	8	7	10000	3	1	0	3	0
16	9	7	10000	3	1	0	3	0
16	10	7	10000	3	1	0	3	0
15	11	7	10000	3	1	0	3	0
15	12	7	10000	3	1	0	3	0
15	13	7	10000	3	1	0	3	0
15	14	7	10000	3	1	0	3	0
12	15	7	10000	3	1	0	3	0
14	16	7	10000	3	1	0	3	0
17	17	7	10000	3	1	0	3	0
17	18	7	10000	3	1	0	3	0
17	19	7	10000	3	1	0	3	0
16	20	7	10000	3	1	0	3	0
17	21	7	10000	3	1	0	3	0
16	22	7	10000	3	1	0	3	0
16	23	7	10000	3	1	0	3	0
15	24	7	10000	3	1	0	3	0
17	25	7	10000	3	1	0	3	0
16	26	7	10000	3	1	0	3	0
15	27	7	10000	3	1	0	3	0
14	28	7	10000	3	1	0	3	0
14	29	7	10000	3	1	0	3	0
14	30	7	10000	3	1	0	3	0
13	31	7	10000	3	1	0	3	0
14	32	7	10000	3	1	0	3	0
14	33	7	10000	3	1	0	3	0
15	34	7	10000	3	1	0	3	0
13	35	7	10000	3	1	0	3	0
13	36	7	10000	3	1	0	3	0
14	37	7	10000	3	1	0	3	0
15	38	7	10000	3	1	0	3	0
14	39	7	10000	3	1	0	3	0
14	40	7	10000	3	1	0	3	0
14	41	7	10000	3	1	0	3	0
13	42	7	10000	3	1	0	3	0
13	43	7	10000	3	1	0	3	0
13	44	7	10000	3	1	0	3	0
15	45	7	10000	3	1	0	3	0
15	46	7	10000	3	1	0	3	0
15	47	7	10000	3	1	0	3	0
15	48	7	10000	3	1	0	3	0
15	49	7	10000	3	1	0	3	0
14	50	7	10000	3	1	0	3	0
16	51	7	10000	3	1	0	3	0
16	52	7	10000	3	1	0	3	0
17	53	7	10000	3	1	0	3	0
17	54	7	10000	3	1	0	3	0
14	55	7	10000	3	1	0	3	0
15	56	7	10000	3	1	0	3	0
15	57	7	10000	3	1	0	3	0
15	58	7	10000	3	1	0	3	0
16	59	7	10000	3	1	0	3	0
15	60	7	10000	3	1	0	3	0
15	61	7	10000	3	1	0	3	0
14	62	7	10000	3	1	0	3	0
13	63	7	10000	3	1	0	3	0
13	64	7	10000	3	1	0	3	0
16	65	7	10000	3	1	0	3	0
16	66	7	10000	3	1	0	3	0
14	67	7	10000	3	1	0	3	0
14	68	7	10000	3	1	0	3	0
13	69	7	10000	3	1	0	3	0
13	70	7	10000	3	1	0	3	0
13	71	7	10000	3	1	0	3	0
14	72	7	10000	3	1	0	3	0
14	73	7	10000	3	1	0	3	0
14	74	7	10000	3	1	0	3	0
12	75	7	10000	3	1	0	3	0
12	76	7	10000	3	1	0	3	0
13	77	7	10000	3	1	0	3	0
14	78	7	10000	3	1	0	3	0
14	79	7	10000	3	1	0	3	0
14	80	7	10000	3	1	0	3	0
15	81	7	10000	3	1	0	3	0
14	82	7	10000	3	1	0	3	0
13	83	7	10000	3	1	0	3	0
13	84	7	10000	3	1	0	3	0
14	85	7	10000	3	1	0	3	0
14	86	7	10000	3	1	0	3	0
13	87	7	10000	3	1	0	3	0
12	88	7	10000	3	1	0	3	0
12	89	7	10000	3	1	0	3	0
11	90	7	10000	3	1	0	3	0
11	91	7	10000	3	1	0	3	0
12	92	7	10000	3	1	0	3	0
12	93	7	10000	3	1	0	3	0
13	94	7	10000	3	1	0	3	0
11	95	7	10000	3	1	0	3	0
12	96	7	10000	3	1	0	3	0
13	97	7	10000	3	1	0	3	0
12	98	7	10000	3	1	0	3	0
13	99	7	10000	3	1	0	3	0
12	100	7	10000	3	1	0	3	0
13	101	7	10000	3	1	0	3	0
12	102	7	10000	3	1	0	3	0
11	103	7	10000	3	1	0	3	0
11	104	7	10000	3	1	0	3	0
13	105	7	10000	3	1	0	3	0
13	106	7	10000	3	1	0	3	0
13	107	7	10000	3	1	0	3	0
13	108	7	10000	3	1	0	3	0
13	109	7	10000	3	1	0	3	0
12	110	7	10000	3	1	0	3	0
12	111	7	10000	3	1	0	3	0
12	112	7	10000	3	1	0	3	0
12	113	7	10000	3	1	0	3	0
12	114	7	10000	3	1	0	3	0
11	115	7	10000	3	1	0	3	0
12	116	7	10000	3	1	0	3	0
14	117	7	10000	3	1	0	3	0
14	118	7	10000	3	1	0	3	0
13	119	7	10000	3	1	0	3	0
13	120	7	10000	3	1	0	3	0
13	121	7	10000	3	1	0	3	0
13	122	7	10000	3	1	0	3	0
12	123	7	10000	3	1	0	3	0
12	124	7	10000	3	1	0	3	0
13	125	7	10000	3	1	0	3	0
13	126	7	10000	3	1	0	3	0
12	127	7	10000	3	1	0	3	0
12	128	7	10000	3	1	0	3	0
12	129	7	10000	3	1	0	3	0
12	130	7	10000	3	1	0	3	0
11	131	7	10000	3	1	0	3	0
13	132	7	10000	3	1	0	3	0
14	133	7	10000	3	1	0	3	0
14	134	7	10000	3	1	0	3	0
12	135	7	10000	3	1	0	3	0
13	136	7	10000	3	1	0	3	0
15	137	7	10000	3	1	0	3	0
14	138	7	10000	3	1	0	3	0
15	139	7	10000	3	1	0	3	0
15	140	7	10000	3	1	0	3	0
17	141	7	10000	3	1	0	3	0
17	142	7	10000	3	1	0	3	0
16	143	7	10000	3	1	0	3	0
16	144	7	10000	3	1	0	3	0
17	145	7	10000	3	1	0	3	0
16	146	7	10000	3	1	0	3	0
16	147	7	10000	3	1	0	3	0
15	148	7	10000	3	1	0	3	0
15	149	7	10000	3	1	0	3	0
14	150	7	10000	3	1	0	3	0
13	151	7	10000	3	1	0	3	0
14	152	7	10000	3	1	0	3	0
14	153	7	10000	3	1	0	3	0
15	154	7	10000	3	1	0	3	0
13	155	7	10000	3	1	0	3	0
14	156	7	10000	3	1	0	3	0
16	157	7	10000	3	1	0	3	0
16	158	7	10000	3	1	0	3	0
15	159	7	10000	3	1	0	3	0
16	160	7	10000	3	1	0	3	0
16	161	7	10000	3	1	0	3	0
16	162	7	10000	3	1	0	3	0
15	163	7	10000	3	1	0	3	0
16	164	7	10000	3	1	0	3	0
17	165	7	10000	3	1	0	3	0
17	166	7	10000	3	1	0	3	0
16	167	7	10000	3	1	0	3	0
15	168	7	10000	3	1	0	3	0
16	169	7	10000	3	1	0	3	0
16	170	7	10000	3	1	0	3	0
15	171	7	10000	3	1	0	3	0
16	172	7	10000	3	1	0	3	0
16	173	7	10000	3	1	0	3	0
17	174	7	10000	3	1	0	3	0
13	175	7	10000	3	1	0	3	0
13	176	7	10000	3	1	0	3	0
15	177	7	10000	3	1	0	3	0
15	178	7	10000	3	1	0	3	0
15	179	7	10000	3	1	0	3	0
15	180	7	10000	3	1	0	3	0
15	181	7	10000	3	1	0	3	0
15	182	7	10000	3	1	0	3	0
14	183	7	10000	3	1	0	3	0
13	184	7	10000	3	1	0	3	0
15	185	7	10000	3	1	0	3	0
14	186	7	10000	3	1	0	3	0
13	187	7	10000	3	1	0	3	0
13	188	7	10000	3	1	0	3	0
14	189	7	10000	3	1	0	3	0
16	190	7	10000	3	1	0	3	0
16	191	7	10000	3	1	0	3	0
18	192	7	10000	3	1	0	3	0
18	193	7	10000	3	1	0	3	0
20	194	7	10000	3	1	0	3	0
19	195	7	10000	3	1	0	3	0
19	196	7	10000	3	1	0	3	0
19	197	7	10000	3	1	0	3	0
18	198	7	10000	3	1	0	3	0
18	199	7	10000	3	1	0	3	0
18	200	7	10000	3	1	0	3	0
18	201	7	10000	3	1	0	3	0
17	202	7	10000	3	1	0	3	0
16	203	7	10000	3	1	0	3	0
16	204	7	10000	3	1	0	3	0
17	205	7	10000	3	1	0	3	0
17	206	7	10000	3	1	0	3	0
17	207	7	10000	3	1	0	3	0
16	208	7	10000	3	1	0	3	0
17	209	7	10000	3	1	0	3	0
17	210	7	10000	3	1	0	3	0
16	211	7	10000	3	1	0	3	0
16	212	7	10000	3	1	0	3	0
17	213	7	10000	3	1	0	3	0
18	214	7	10000	3	1	0	3	0
15	215	7	10000	3	1	0	3	0
15	216	7	10000	3	1	0	3	0
16	217	7	10000	3	1	0	3	0
15	218	7	10000	3	1	0	3	0
16	219	7	10000	3	1	0	3	0
15	220	7	10000	3	1	0	3	0
15	221	7	10000	3	1	0	3	0
14	222	7	10000	3	1	0	3	0
13	223	7	10000	3	1	0	3	0
13	224	7	10000	3	1	0	3	0
15	225	7	10000	3	1	0	3	0
14	226	7	10000	3	1	0	3	0
13	227	7	10000	3	1	0	3	0
13	228	7	10000	3	1	0	3	0
13	229	7	10000	3	1	0	3	0
12	230	7	10000	3	1	0	3	0
12	231	7	10000	3	1	0	3	0
14	232	7	10000	3	1	0	3	0
15	233	7	10000	3	1	0	3	0
16	234	7	10000	3	1	0	3	0
14	235	7	10000	3	1	0	3	0
14	236	7	10000	3	1	0	3	0
15	237	7	10000	3	1	0	3	0
14	238	7	10000	3	1	0	3	0
14	239	7	10000	3	1	0	3	0
15	240	7	10000	3	1	0	3	0
15	241	7	10000	3	1	0	3	0
16	242	7	10000	3	1	0	3	0
15	243	7	10000	3	1	0	3	0
15	244	7	10000	3	1	0	3	0
17	245	7	10000	3	1	0	3	0
18	246	7	10000	3	1	0	3	0
18	247	7	10000	3	1	0	3	0
20	248	7	10000	3	1	0	3	0
23	249	7	10000	3	1	0	3	0
24	250	7	10000	3	1	0	3	0
25	251	7	10000	3	1	0	3	0
26	252	7	10000	3	1	0	3	0
27	253	7	10000	3	1	0	3	0
28	254	7	10000	3	1	0	3	0
25	255	7	10000	3	1	0	3	0
26	256	7	10000	3	1	0	3	0
27	257	7	10000	3	1	0	3	0
28	258	7	10000	3	1	0	3	0
30	259	7	10000	3	1	0	3	0
31	260	7	10000	3	1	0	3	0
31	261	7	10000	3	1	0	3	0
30	262	7	10000	3	1	0	3	0
29	263	7	10000	3	1	0	3	0
28	264	7	10000	3	1	0	3	0
29	265	7	10000	3	1	0	3	0
29	266	7	10000	3	1	0	3	0
26	267	7	10000	3	1	0	3	0
25	268	7	10000	3	1	0	3	0
25	269	7	10000	3	1	0	3	0
24	270	7	10000	3	1	0	3	0
24	271	7	10000	3	1	0	3	0
24	272	7	10000	3	1	0	3	0
24	273	7	10000	3	1	0	3	0
27	274	7	10000	3	1	0	3	0
25	275	7	10000	3	1	0	3	0
24	276	7	10000	3	1	0	3	0
24	277	7	10000	3	1	0	3	0
23	278	7	10000	3	1	0	3	0
22	279	7	10000	3	1	0	3	0
21	280	7	10000	3	1	0	3	0
21	281	7	10000	3	1	0	3	0
22	282	7	10000	3	1	0	3	0
21	283	7	10000	3	1	0	3	0
20	284	7	10000	3	1	0	3	0
22	285	7	10000	3	1	0	3	0
22	286	7	10000	3	1	0	3	0
22	287	7	10000	3	1	0	3	0
22	288	7	10000	3	1	0	3	0
23	289	7	10000	3	1	0	3	0
23	290	7	10000	3	1	0	3	0
23	291	7	10000	3	1	0	3	0
24	292	7	10000	3	1	0	3	0
27	293	7	10000	3	1	0	3	0
28	294	7	10000	3	1	0	3	0
27	295	7	10000	3	1	0	3	0
29	296	7	10000	3	1	0	3	0
31	297	7	10000	3	1	0	3	0
32	298	7	10000	3	1	0	3	0
32	299	7	10000	3	1	0	3	0
33	300	7	10000	3	1	0	3	0
33	301	7	10000	3	1	0	3	0
31	302	7	10000	3	1	0	3	0
30	303	7	10000	3	1	0	3	0
30	304	7	10000	3	1	0	3	0
32	305	7	10000	3	1	0	3	0
32	306	7	10000	3	1	0	3	0
31	307	7	10000	3	1	0	3	0
29	308	7	10000	3	1	0	3	0
28	309	7	10000	3	1	0	3	0
27	310	7	10000	3	1	0	3	0
26	311	7	10000	3	1	0	3	0
26	312	7	10000	3	1	0	3	0
25	313	7	10000	3	1	0	3	0
25	314	7	10000	3	1	0	3	0
23	315	7	10000	3	1	0	3	0
21	316	7	10000	3	1	0	3	0
21	317	7	10000	3	1	0	3	0
21	318	7	10000	3	1	0	3	0
21	319	7	10000	3	1	0	3	0
21	320	7	10000	3	1	0	3	0
21	321	7	10000	3	1	0	3	0
20	322	7	10000	3	1	0	3	0
20	323	7	10000	3	1	0	3	0
18	324	7	10000	3	1	0	3	0
20	325	7	10000	3	1	0	3	0
19	326	7	10000	3	1	0	3	0
19	327	7	10000	3	1	0	3	0
17	328	7	10000	3	1	0	3	0
17	329	7	10000	3	1	0	3	0
17	330	7	10000	3	1	0	3	0
18	331	7	10000	3	1	0	3	0
19	332	7	10000	3	1	0	3	0
19	333	7	10000	3	1	0	3	0
19	334	7	10000	3	1	0	3	0
16	335	7	10000	3	1	0	3	0
16	336	7	10000	3	1	0	3	0
17	337	7	10000	3	1	0	3	0
16	338	7	10000	3	1	0	3	0
16	339	7	10000	3	1	0	3	0
17	340	7	10000	3	1	0	3	0
17	341	7	10000	3	1	0	3	0
16	342	7	10000	3	1	0	3	0
15	343	7	10000	3	1	0	3	0
15	344	7	10000	3	1	0	3	0
17	345	7	10000	3	1	0	3	0
16	346	7	10000	3	1	0	3	0
16	347	7	10000	3	1	0	3	0
15	348	7	10000	3	1	0	3	0
15	349	7	10000	3	1	0	3	0
14	350	7	10000	3	1	0	3	0
14	351	7	10000	3	1	0	3	0
15	352	7	10000	3	1	0	3	0
14	353	7	10000	3	1	0	3	0
15	354	7	10000	3	1	0	3	0
13	355	7	10000	3	1	0	3	0
13	356	7	10000	3	1	0	3	0
14	357	7	10000	3	1	0	3	0
14	358	7	10000	3	1	0	3	0
13	359	7	10000	3	1	0	3	0
13	360	7	10000	3	1	0	3	0
13	361	7	10000	3	1	0	3	0
12	362	7	10000	3	1	0	3	0
13	363	7	10000	3	1	0	3	0
15	364	7	10000	3	1	0	3	0
17	365	7	10000	3	1	0	3	0
16	366	7	10000	3	1	0	3	0
15	367	7	10000	3	1	0	3	0
15	368	7	10000	3	1	0	3	0
15	369	7	10000	3	1	0	3	0
15	370	7	10000	3	1	0	3	0
16	371	7	10000	3	1	0	3	0
17	372	7	10000	3	1	0	3	0
17	373	7	10000	3	1	0	3	0
16	374	7	10000	3	1	0	3	0
14	375	7	10000	3	1	0	3	0
14	376	7	10000	3	1	0	3	0
15	377	7	10000	3	1	0	3	0
15	378	7	10000	3	1	0	3	0
15	379	7	10000	3	1	0	3	0
16	380	7	10000	3	1	0	3	0
16	381	7	10000	3	1	0	3	0
15	382	7	10000	3	1	0	3	0
16	383	7	10000	3	1	0	3	0
15	384	7	10000	3	1	0	3	0
18	385	7	10000	3	1	0	3	0
17	386	7	10000	3	1	0	3	0
15	387	7	10000	3	1	0	3	0
15	388	7	10000	3	1	0	3	0
15	389	7	10000	3	1	0	3	0
15	390	7	10000	3	1	0	3	0
14	391	7	10000	3	1	0	3	0
16	392	7	10000	3	1	0	3	0
16	393	7	10000	3	1	0	3	0
16	394	7	10000	3	1	0	3	0
14	395	7	10000	3	1	0	3	0
15	396	7	10000	3	1	0	3	0
16	397	7	10000	3	1	0	3	0
15	398	7	10000	3	1	0	3	0
15	399	7	10000	3	1	0	3	0
16	400	7	10000	3	1	0	3	0
15	401	7	10000	3	1	0	3	0
14	402	7	10000	3	1	0	3	0
14	403	7	10000	3	1	0	3	0
13	404	7	10000	3	1	0	3	0
15	405	7	10000	3	1	0	3	0
14	406	7	10000	3	1	0	3	0
14	407	7	10000	3	1	0	3	0
14	408	7	10000	3	1	0	3	0
15	409	7	10000	3	1	0	3	0
15	410	7	10000	3	1	0	3	0
15	411	7	10000	3	1	0	3	0
16	412	7	10000	3	1	0	3	0
15	413	7	10000	3	1	0	3	0
16	414	7	10000	3	1	0	3	0
14	415	7	10000	3	1	0	3	0
14	416	7	10000	3	1	0	3	0
15	417	7	10000	3	1	0	3	0
15	418	7	10000	3	1	0	3	0
15	419	7	10000	3	1	0	3	0
15	420	7	10000	3	1	0	3	0
15	421	7	10000	3	1	0	3	0
16	422	7	10000	3	1	0	3	0
15	423	7	10000	3	1	0	3	0
14	424	7	10000	3	1	0	3	0
16	425	7	10000	3	1	0	3	0
16	426	7	10000	3	1	0	3	0
16	427	7	10000	3	1	0	3	0
15	428	7	10000	3	1	0	3	0
15	429	7	10000	3	1	0	3	0
14	430	7	10000	3	1	0	3	0
16	431	7	10000	3	1	0	3	0
17	432	7	10000	3	1	0	3	0
16	433	7	10000	3	1	0	3	0
16	434	7	10000	3	1	0	3	0
14	435	7	10000	3	1	0	3	0
14	436	7	10000	3	1	0	3	0
16	437	7	10000	3	1	0	3	0
17	438	7	10000	3	1	0	3	0
16	439	7	10000	3	1	0	3	0
17	440	7	10000	3	1	0	3	0
15	441	7	10000	3	1	0	3	0
15	442	7	10000	3	1	0	3	0
15	443	7	10000	3	1	0	3	0
14	444	7	10000	3	1	0	3	0
16	445	7	10000	3	1	0	3	0
16	446	7	10000	3	1	0	3	0
16	447	7	10000	3	1	0	3	0
15	448	7	10000	3	1	0	3	0
14	449	7	10000	3	1	0	3	0
14	450	7	10000	3	1	0	3	0
13	451	7	10000	3	1	0	3	0
15	452	7	10000	3	1	0	3	0
15	453	7	10000	3	1	0	3	0
17	454	7	10000	3	1	0	3	0
17	455	7	10000	3	1	0	3	0
19	456	7	10000	3	1	0	3	0
20	457	7	10000	3	1	0	3	0
19	458	7	10000	3	1	0	3	0
20	459	7	10000	3	1	0	3	0
20	460	7	10000	3	1	0	3	0
20	461	7	10000	3	1	0	3	0
19	462	7	10000	3	1	0	3	0
19	463	7	10000	3	1	0	3	0
17	464	7	10000	3	1	0	3	0
19	465	7	10000	3	1	0	3	0
18	466	7	10000	3	1	0	3	0
16	467	7	10000	3	1	0	3	0
16	468	7	10000	3	1	0	3	0
16	469	7	10000	3	1	0	3	0
16	470	7	10000	3	1	0	3	0
18	471	7	10000	3	1	0	3	0
19	472	7	10000	3	1	0	3	0
19	473	7	10000	3	1	0	3	0
19	474	7	10000	3	1	0	3	0
16	475	7	10000	3	1	0	3	0
16	476	7	10000	3	1	0	3	0
16	477	7	10000	3	1	0	3	0
16	478	7	10000	3	1	0	3	0
17	479	7	10000	3	1	0	3	0
18	480	7	10000	3	1	0	3	0
17	481	7	10000	3	1	0	3	0
17	482	7	10000	3	1	0	3	0
18	483	7	10000	3	1	0	3	0
16	484	7	10000	3	1	0	3	0
18	485	7	10000	3	1	0	3	0
17	486	7	10000	3	1	0	3	0
17	487	7	10000	3	1	0	3	0
15	488	7	10000	3	1	0	3	0
15	489	7	10000	3	1	0	3	0
14	490	7	10000	3	1	0	3	0
13	491	7	10000	3	1	0	3	0
13	492	7	10000	3	1	0	3	0
14	493	7	10000	3	1	0	3	0
14	494	7	10000	3	1	0	3	0
12	495	7	10000	3	1	0	3	0
13	496	7	10000	3	1	0	3	0
13	497	7	10000	3	1	0	3	0
13	498	7	10000	3	1	0	3	0
14	499	7	10000	3	1	0	3	0
16	500	7	10000	3	1	0	3	0
17	501	7	10000	3	1	0	3	1
16	502	7	10000	3	1	0	3	1
17	503	7	10000	3	1	0	3	1
16	504	7	10000	3	1	0	3	1
18	505	7	10000	3	1	0	3	1
18	506	7	10000	3	1	0	3	1
17	507	7	10000	3	1	0	3	1
17	508	7	10000	3	1	0	3	1
18	509	7	10000	3	1	0	3	1
17	510	7	10000	3	1	0	3	1
18	511	7	10000	3	1	0	3	1
18	512	7	10000	3	1	0	3	1
19	513	7	10000	3	1	0	3	1
21	514	7	10000	3	1	0	3	1
19	515	7	10000	3	1	0	3	1
19	516	7	10000	3	1	0	3	1
19	517	7	10000	3	1	0	3	1
19	518	7	10000	3	1	0	3	1
19	519	7	10000	3	1	0	3	1
20	520	7	10000	3	1	0	3	1
20	521	7	10000	3	1	0	3	1
19	522	7	10000	3	1	0	3	1
19	523	7	10000	3	1	0	3	1
18	524	7	10000	3	1	0	3	1
19	525	7	10000	3	1	0	3	1
19	526	7	10000	3	1	0	3	1
18	527	7	10000	3	1	0	3	1
17	528	7	10000	3	1	0	3	1
17	529	7	10000	3	1	0	3	1
17	530	7	10000	3	1	0	3	1
16	531	7	10000	3	1	0	3	1
16	532	7	10000	3	1	0	3	1
16	533	7	10000	3	1	0	3	1
16	534	7	10000	3	1	0	3	1
13	535	7	10000	3	1	0	3	1
14	536	7	10000	3	1	0	3	1
14	537	7	10000	3	1	0	3	1
14	538	7	10000	3	1	0	3	1
14	539	7	10000	3	1	0	3	1
15	540	7	10000	3	1	0	3	1
17	541	7	10000	3	1	0	3	1
17	542	7	10000	3	1	0	3	1
17	543	7	10000	3	1	0	3	1
16	544	7	10000	3	1	0	3	1
18	545	7	10000	3	1	0	3	1
17	546	7	10000	3	1	0	3	1
16	547	7	10000	3	1	0	3	1
16	548	7	10000	3	1	0	3	1
16	549	7	10000	3	1	0	3	1
16	550	7	10000	3	1	0	3	1
15	551	7	10000	3	1	0	3	0
15	552	7	10000	3	1	0	3	0
15	553	7	10000	3	1	0	3	0
16	554	7	10000	3	1	0	3	0
14	555	7	10000	3	1	0	3	0
13	556	7	10000	3	1	0	3	0
14	557	7	10000	3	1	0	3	0
13	558	7	10000	3	1	0	3	0
13	559	7	10000	3	1	0	3	0
14	560	7	10000	3	1	0	3	0
14	561	7	10000	3	1	0	3	0
13	562	7	10000	3	1	0	3	0
13	563	7	10000	3	1	0	3	0
12	564	7	10000	3	1	0	3	0
14	565	7	10000	3	1	0	3	0
15	566	7	10000	3	1	0	3	0
14	567	7	10000	3	1	0	3	0
15	568	7	10000	3	1	0	3	0
15	569	7	10000	3	1	0	3	0
14	570	7	10000	3	1	0	3	0
14	571	7	10000	3	1	0	3	0
14	572	7	10000	3	1	0	3	0
14	573	7	10000	3	1	0	3	0
14	574	7	10000	3	1	0	3	0
12	575	7	10000	3	1	0	3	0
14	576	7	10000	3	1	0	3	0
14	577	7	10000	3	1	0	3	0
14	578	7	10000	3	1	0	3	0
15	579	7	10000	3	1	0	3	0
15	580	7	10000	3	1	0	3	0
14	581	7	10000	3	1	0	3	0
13	582	7	10000	3	1	0	3	0
14	583	7	10000	3	1	0	3	0
14	584	7	10000	3	1	0	3	0
17	585	7	10000	3	1	0	3	0
19	586	7	10000	3	1	0	3	0
22	587	7	10000	3	1	0	3	0
23	588	7	10000	3	1	0	3	0
26	589	7	10000	3	1	0	3	0
33	590	7	10000	3	1	0	3	0
35	591	7	10000	3	1	0	3	0
46	592	7	10000	3	1	0	3	0
53	593	7	10000	3	1	0	3	0
59	594	7	10000	3	1	0	3	0
90	595	7	10000	3	1	0	3	0
112	596	7	10000	3	1	0	3	0
119	597	7	10000	3	1	0	3	0
136	598	7	10000	3	1	0	3	0
142	599	7	10000	3	1	0	3	0
147	600	7	10000	3	1	0	3	0
169	601	7	10000	3	1	0	3	0
177	602	7	10000	3	1	0	3	0
208	603	7	10000	3	1	0	3	0
236	604	7	10000	3	1	0	3	0
297	605	7	10000	3	1	0	3	0
336	606	7	10000	3	1	0	3	0
338	607	7	10000	3	1	0	3	0
335	608	7	10000	3	1	0	3	0
357	609	7	10000	3	1	0	3	0
345	610	7	10000	3	1	0	3	0
358	611	7	10000	3	1	0	3	0
366	612	7	10000	3	1	0	3	0
399	613	7	10000	3	1	0	3	0
456	614	7	10000	3	1	0	3	0
456	615	7	10000	3	1	0	3	0
458	616	7	10000	3	1	0	3	0
466	617	7	10000	3	1	0	3	0
486	618	7	10000	3	1	0	3	0
490	619	7	10000	3	1	0	3	0
610	620	7	10000	3	1	0	3	0
697	621	7	10000	3	1	0	3	0
777	622	7	10000	3	1	0	3	0
922	623	7	10000	3	1	0	3	0
983	624	7	10000	3	1	0	3	0
1037	625	7	10000	3	1	0	3	0
1120	626	7	10000	3	1	0	3	0
1090	627	7	10000	3	1	0	3	0
1057	628	7	10000	3	1	0	3	0
1048	629	7	10000	3	1	0	3	0
1048	630	7	10000	3	1	0	3	0
1024	631	7	10000	3	1	0	3	0
982	632	7	10000	3	1	0	3	0
953	633	7	10000	3	1	0	3	0
938	634	7	10000	3	1	0	3	0
923	635	7	10000	3	1	0	3	0
917	636	7	10000	3	1	0	3	0
913	637	7	10000	3	1	0	3	0
906	638	7	10000	3	1	0	3	0
897	639	7	10000	3	1	0	3	0
890	640	7	10000	3	1	0	3	0
888	641	7	10000	3	1	0	3	0
882	642	7	10000	3	1	0	3	0
863	643	7	10000	3	1	0	3	0
849	644	7	10000	3	1	0	3	0
857	645	7	10000	3	1	0	3	0
867	646	7	10000	3	1	0	3	0
868	647	7	10000	3	1	0	3	0
863	648	7	10000	3	1	0	3	0
874	649	7	10000	3	1	0	3	0
912	650	7	10000	3	1	0	3	0
895	651	7	10000	3	1	0	3	0
877	652	7	10000	3	1	0	3	0
884	653	7	10000	3	1	0	3	0
877	654	7	10000	3	1	0	3	0
843	655	7	10000	3	1	0	3	0
811	656	7	10000	3	1	0	3	0
779	657	7	10000	3	1	0	3	0
747	658	7	10000	3	1	0	3	0
716	659	7	10000	3	1	0	3	0
690	660	7	10000	3	1	0	3	0
674	661	7	10000	3	1	0	3	0
695	662	7	10000	3	1	0	3	0
710	663	7	10000	3	1	0	3	0
690	664	7	10000	3	1	0	3	0
663	665	7	10000	3	1	0	3	0
638	666	7	10000	3	1	0	3	0
618	667	7	10000	3	1	0	3	0
596	668	7	10000	3	1	0	3	0
590	669	7	10000	3	1	0	3	0
574	670	7	10000	3	1	0	3	0
588	671	7	10000	3	1	0	3	0
630	672	7	10000	3	1	0	3	0
665	673	7	10000	3	1	0	3	0
682	674	7	10000	3	1	0	3	0
673	675	7	10000	3	1	0	3	0
661	676	7	10000	3	1	0	3	0
660	677	7	10000	3	1	0	3	0
676	678	7	10000	3	1	0	3	0
677	679	7	10000	3	1	0	3	0
648	680	7	10000	3	1	0	3	0
620	681	7	10000	3	1	0	3	0
631	682	7	10000	3	1	0	3	0
671	683	7	10000	3	1	0	3	0
708	684	7	10000	3	1	0	3	0
704	685	7	10000	3	1	0	3	0
699	686	7	10000	3	1	0	3	0
689	687	7	10000	3	1	0	3	0
669	688	7	10000	3	1	0	3	0
670	689	7	10000	3	1	0	3	0
677	690	7	10000	3	1	0	3	0
698	691	7	10000	3	1	0	3	0
714	692	7	10000	3	1	0	3	0
720	693	7	10000	3	1	0	3	0
721	694	7	10000	3	1	0	3	0
725	695	7	10000	3	1	0	3	0
736	696	7	10000	3	1	0	3	0
740	697	7	10000	3	1	0	3	0
743	698	7	10000	3	1	0	3	0
749	699	7	10000	3	1	0	3	0
762	700	7	10000	3	1	0	3	0
779	701	7	10000	3	1	0	3	0
787	702	7	10000	3	1	0	3	0
793	703	7	10000	3	1	0	3	0
796	704	7	10000	3	1	0	3	0
797	705	7	10000	3	1	0	3	0
794	706	7	10000	3	1	0	3	0
789	707	7	10000	3	1	0	3	0
788	708	7	10000	3	1	0	3	0
791	709	7	10000	3	1	0	3	0
788	710	7	10000	3	1	0	3	0
776	711	7	10000	3	1	0	3	0
759	712	7	10000	3	1	0	3	0
742	713	7	10000	3	1	0	3	0
729	714	7	10000	3	1	0	3	0
713	715	7	10000	3	1	0	3	0
703	716	7	10000	3	1	0	3	0
695	717	7	10000	3	1	0	3	0
682	718	7	10000	3	1	0	3	0
667	719	7	10000	3	1	0	3	0
658	720	7	10000	3	1	0	3	0
651	721	7	10000	3	1	0	3	0
635	722	7	10000	3	1	0	3	0
615	723	7	10000	3	1	0	3	0
599	724	7	10000	3	1	0	3	0
589	725	7	10000	3	1	0	3	0
572	726	7	10000	3	1	0	3	0
548	727	7	10000	3	1	0	3	0
523	728	7	10000	3	1	0	3	0
501	729	7	10000	3	1	0	3	0
483	730	7	10000	3	1	0	3	0
471	731	7	10000	3	1	0	3	0
452	732	7	10000	3	1	0	3	0
433	733	7	10000	3	1	0	3	0
419	734	7	10000	3	1	0	3	0
407	735	7	10000	3	1	0	3	0
401	736	7	10000	3	1	0	3	0
396	737	7	10000	3	1	0	3	0
387	738	7	10000	3	1	0	3	0
375	739	7	10000	3	1	0	3	0
358	740	7	10000	3	1	0	3	0
347	741	7	10000	3	1	0	3	0
344	742	7	10000	3	1	0	3	0
343	743	7	10000	3	1	0	3	0
340	744	7	10000	3	1	0	3	0
340	745	7	10000	3	1	0	3	0
340	746	7	10000	3	1	0	3	0
340	747	7	10000	3	1	0	3	0
341	748	7	10000	3	1	0	3	0
344	749	7	10000	3	1	0	3	0
347	750	7	10000	3	1	0	3	0
350	751	7	10000	3	1	0	3	0
353	752	7	10000	3	1	0	3	0
356	753	7	10000	3	1	0	3	0
367	754	7	10000	3	1	0	3	0
373	755	7	10000	3	1	0	3	0
377	756	7	10000	3	1	0	3	0
382	757	7	10000	3	1	0	3	0
390	758	7	10000	3	1	0	3	0
397	759	7	10000	3	1	0	3	0
403	760	7	10000	3	1	0	3	0
403	761	7	10000	3	1	0	3	0
400	762	7	10000	3	1	0	3	0
396	763	7	10000	3	1	0	3	0
392	764	7	10000	3	1	0	3	0
390	765	7	10000	3	1	0	3	0
385	766	7	10000	3	1	0	3	0
380	767	7	10000	3	1	0	3	0
381	768	7	10000	3	1	0	3	0
389	769	7	10000	3	1	0	3	0
395	770	7	10000	3	1	0	3	0
398	771	7	10000	3	1	0	3	0
401	772	7	10000	3	1	0	3	0
406	773	7	10000	3	1	0	3	0
409	774	7	10000	3	1	0	3	0
403	775	7	10000	3	1	0	3	0
389	776	7	10000	3	1	0	3	0
376	777	7	10000	3	1	0	3	0
368	778	7	10000	3	1	0	3	0
363	779	7	10000	3	1	0	3	0
363	780	7	10000	3	1	0	3	0
359	781	7	10000	3	1	0	3	0
349	782	7	10000	3	1	0	3	0
340	783	7	10000	3	1	0	3	0
329	784	7	10000	3	1	0	3	0
317	785	7	10000	3	1	0	3	0
303	786	7	10000	3	1	0	3	0
293	787	7	10000	3	1	0	3	0
290	788	7	10000	3	1	0	3	0
291	789	7	10000	3	1	0	3	0
291	790	7	10000	3	1	0	3	0
287	791	7	10000	3	1	0	3	0
282	792	7	10000	3	1	0	3	0
274	793	7	10000	3	1	0	3	0
266	794	7	10000	3	1	0	3	0
258	795	7	10000	3	1	0	3	0
254	796	7	10000	3	1	0	3	0
251	797	7	10000	3	1	0	3	0
243	798	7	10000	3	1	0	3	0
236	799	7	10000	3	1	0	3	0
228	800	7	10000	3	1	0	3	0
220	801	7	10000	3	1	0	3	0
212	802	7	10000	3	1	0	3	0
204	803	7	10000	3	1	0	3	0
199	804	7	10000	3	1	0	3	0
198	805	7	10000	3	1	0	3	0
197	806	7	10000	3	1	0	3	0
194	807	7	10000	3	1	0	3	0
191	808	7	10000	3	1	0	3	0
188	809	7	10000	3	1	0	3	0
182	810	7	10000	3	1	0	3	0
174	811	7	10000	3	1	0	3	0
174	812	7	10000	3	1	0	3	0
171	813	7	10000	3	1	0	3	0
167	814	7	10000	3	1	0	3	0
168	815	7	10000	3	1	0	3	0
170	816	7	10000	3	1	0	3	0
164	817	7	10000	3	1	0	3	0
169	818	7	10000	3	1	0	3	0
182	819	7	10000	3	1	0	3	0
193	820	7	10000	3	1	0	3	0
205	821	7	10000	3	1	0	3	0
212	822	7	10000	3	1	0	3	0
215	823	7	10000	3	1	0	3	0
211	824	7	10000	3	1	0	3	0
211	825	7	10000	3	1	0	3	0
212	826	7	10000	3	1	0	3	0
205	827	7	10000	3	1	0	3	0
196	828	7	10000	3	1	0	3	0
189	829	7	10000	3	1	0	3	0
180	830	7	10000	3	1	0	3	0
171	831	7	10000	3	1	0	3	0
166	832	7	10000	3	1	0	3	0
164	833	7	10000	3	1	0	3	0
162	834	7	10000	3	1	0	3	0
155	835	7	10000	3	1	0	3	0
153	836	7	10000	3	1	0	3	0
149	837	7	10000	3	1	0	3	0
143	838	7	10000	3	1	0	3	0
141	839	7	10000	3	1	0	3	0
138	840	7	10000	3	1	0	3	0
138	841	7	10000	3	1	0	3	0
133	842	7	10000	3	1	0	3	0
128	843	7	10000	3	1	0	3	0
126	844	7	10000	3	1	0	3	0
129	845	7	10000	3	1	0	3	0
132	846	7	10000	3	1	0	3	0
128	847	7	10000	3	1	0	3	0
123	848	7	10000	3	1	0	3	0
121	849	7	10000	3	1	0	3	0
119	850	7	10000	3	1	0	3	0
123	851	7	10000	3	1	0	3	0
130	852	7	10000	3	1	0	3	0
140	853	7	10000	3	1	0	3	0
148	854	7	10000	3	1	0	3	0
149	855	7	10000	3	1	0	3	0
145	856	7	10000	3	1	0	3	0
143	857	7	10000	3	1	0	3	0
140	858	7	10000	3	1	0	3	0
135	859	7	10000	3	1	0	3	0
130	860	7	10000	3	1	0	3	0
130	861	7	10000	3	1	0	3	0
141	862	7	10000	3	1	0	3	0
153	863	7	10000	3	1	0	3	0
152	864	7	10000	3	1	0	3	0
163	865	7	10000	3	1	0	3	0
166	866	7	10000	3	1	0	3	0
160	867	7	10000	3	1	0	3	0
157	868	7	10000	3	1	0	3	0
155	869	7	10000	3	1	0	3	0
148	870	7	10000	3	1	0	3	0
141	871	7	10000	3	1	0	3	0
136	872	7	10000	3	1	0	3	0
133	873	7	10000	3	1	0	3	0
132	874	7	10000	3	1	0	3	0
128	875	7	10000	3	1	0	3	0
123	876	7	10000	3	1	0	3	0
125	877	7	10000	3	1	0	3	0
127	878	7	10000	3	1	0	3	0
122	879	7	10000	3	1	0	3	0
120	880	7	10000	3	1	0	3	0
121	881	7	10000	3	1	0	3	0
122	882	7	10000	3	1	0	3	0
120	883	7	10000	3	1	0	3	0
122	884	7	10000	3	1	0	3	0
128	885	7	10000	3	1	0	3	0
125	886	7	10000	3	1	0	3	0
121	887	7	10000	3	1	0	3	0
116	888	7	10000	3	1	0	3	0
113	889	7	10000	3	1	0	3	0
111	890	7	10000	3	1	0	3	0
115	891	7	10000	3	1	0	3	0
118	892	7	10000	3	1	0	3	0
115	893	7	10000	3	1	0	3	0
113	894	7	10000	3	1	0	3	0
108	895	7	10000	3	1	0	3	0
109	896	7	10000	3	1	0	3	0
107	897	7	10000	3	1	0	3	0
111	898	7	10000	3	1	0	3	0
110	899	7	10000	3	1	0	3	0
114	900	7	10000	3	1	0	3	0
114	901	7	10000	3	1	0	3	0
110	902	7	10000	3	1	0	3	0
113	903	7	10000	3	1	0	3	0
120	904	7	10000	3	1	0	3	0
125	905	7	10000	3	1	0	3	0
121	906	7	10000	3	1	0	3	0
117	907	7	10000	3	1	0	3	0
114	908	7	10000	3	1	0	3	0
112	909	7	10000	3	1	0	3	0
109	910	7	10000	3	1	0	3	0
107	911	7	10000	3	1	0	3	0
110	912	7	10000	3	1	0	3	0
106	913	7	10000	3	1	0	3	0
110	914	7	10000	3	1	0	3	0
117	915	7	10000	3	1	0	3	0
119	916	7	10000	3	1	0	3	0
115	917	7	10000	3	1	0	3	0
111	918	7	10000	3	1	0	3	0
105	919	7	10000	3	1	0	3	0
101	920	7	10000	3	1	0	3	0
98	921	7	10000	3	1	0	3	0
97	922	7	10000	3	1	0	3	0
99	923	7	10000	3	1	0	3	0
101	924	7	10000	3	1	0	3	0
101	925	7	10000	3	1	0	3	0
99	926	7	10000	3	1	0	3	0
96	927	7	10000	3	1	0	3	0
92	928	7	10000	3	1	0	3	0
91	929	7	10000	3	1	0	3	0
89	930	7	10000	3	1	0	3	0
87	931	7	10000	3	1	0	3	0
89	932	7	10000	3	1	0	3	0
95	933	7	10000	3	1	0	3	0
97	934	7	10000	3	1	0	3	0
94	935	7	10000	3	1	0	3	0
100	936	7	10000	3	1	0	3	0
108	937	7	10000	3	1	0	3	0
111	938	7	10000	3	1	0	3	0
108	939	7	10000	3	1	0	3	0
105	940	7	10000	3	1	0	3	0
104	941	7	10000	3	1	0	3	0
100	942	7	10000	3	1	0	3	0
97	943	7	10000	3	1	0	3	0
96	944	7	10000	3	1	0	3	0
95	945	7	10000	3	1	0	3	0
92	946	7	10000	3	1	0	3	0
89	947	7	10000	3	1	0	3	0
86	948	7	10000	3	1	0	3	0
85	949	7	10000	3	1	0	3	0
82	950	7	10000	3	1	0	3	0
86	951	7	10000	3	1	0	3	0
91	952	7	10000	3	1	0	3	0
99	953	7	10000	3	1	0	3	0
110	954	7	10000	3	1	0	3	0
108	955	7	10000	3	1	0	3	0
117	956	7	10000	3	1	0	3	0
117	957	7	10000	3	1	0	3	0
113	958	7	10000	3	1	0	3	0
111	959	7	10000	3	1	0	3	0
112	960	7	10000	3	1	0	3	0
110	961	7	10000	3	1	0	3	0
104	962	7	10000	3	1	0	3	0
103	963	7	10000	3	1	0	3	0
104	964	7	10000	3	1	0	3	0
112	965	7	10000	3	1	0	3	0
119	966	7	10000	3	1	0	3	0
122	967	7	10000	3	1	0	3	0
123	968	7	10000	3	1	0	3	0
119	969	7	10000	3	1	0	3	0
114	970	7	10000	3	1	0	3	0
112	971	7	10000	3	1	0	3	0
118	972	7	10000	3	1	0	3	0
119	973	7	10000	3	1	0	3	0
120	974	7	10000	3	1	0	3	0
118	975	7	10000	3	1	0	3	0
113	976	7	10000	3	1	0	3	0
113	977	7	10000	3	1	0	3	0
113	978	7	10000	3	1	0	3	0
110	979	7	10000	3	1	0	3	0
108	980	7	10000	3	1	0	3	0
110	981	7	10000	3	1	0	3	0
110	982	7	10000	3	1	0	3	0
105	983	7	10000	3	1	0	3	0
106	984	7	10000	3	1	0	3	0
105	985	7	10000	3	1	0	3	0
106	986	7	10000	3	1	0	3	0
113	987	7	10000	3	1	0	3	0
118	988	7	10000	3	1	0	3	0
119	989	7	10000	3	1	0	3	0
114	990	7	10000	3	1	0	3	0
115	991	7	10000	3	1	0	3	0
120	992	7	10000	3	1	0	3	0
122	993	7	10000	3	1	0	3	0
123	994	7	10000	3	1	0	3	0
118	995	7	10000	3	1	0	3	0
113	996	7	10000	3	1	0	3	0
110	997	7	10000	3	1	0	3	0
108	998	7	10000	3	1	0	3	0
108	999	7	10000	3	1	0	3	0
112	1000	7	10000	3	1	0	3	0
14	2	0	10000	4	1	0	4	0
14	3	0	10000	4	1	0	4	0
13	4	0	10000	4	1	0	4	0
13	5	0	10000	4	1	0	4	0
14	6	0	10000	4	1	0	4	0
13	7	0	10000	4	1	0	4	0
13	8	0	10000	4	1	0	4	0
11	9	0	10000	4	1	0	4	0
11	10	0	10000	4	1	0	4	0
10	11	0	10000	4	1	0	4	0
10	12	0	10000	4	1	0	4	0
11	13	0	10000	4	1	0	4	0
11	14	0	10000	4	1	0	4	0
11	15	0	10000	4	1	0	4	0
10	16	0	10000	4	1	0	4	0
10	17	0	10000	4	1	0	4	0
10	18	0	10000	4	1	0	4	0
13	19	0	10000	4	1	0	4	0
14	20	0	10000	4	1	0	4	0
13	21	0	10000	4	1	0	4	0
12	22	0	10000	4	1	0	4	0
12	23	0	10000	4	1	0	4	0
11	24	0	10000	4	1	0	4	0
12	25	0	10000	4	1	0	4	0
13	26	0	10000	4	1	0	4	0
13	27	0	10000	4	1	0	4	0
14	28	0	10000	4	1	0	4	0
13	29	0	10000	4	1	0	4	0
13	30	0	10000	4	1	0	4	0
14	31	0	10000	4	1	0	4	0
14	32	0	10000	4	1	0	4	0
16	33	0	10000	4	1	0	4	0
16	34	0	10000	4	1	0	4	0
15	35	0	10000	4	1	0	4	0
14	36	0	10000	4	1	0	4	0
14	37	0	10000	4	1	0	4	0
13	38	0	10000	4	1	0	4	0
16	39	0	10000	4	1	0	4	0
17	40	0	10000	4	1	0	4	0
17	41	0	10000	4	1	0	4	0
16	42	0	10000	4	1	0	4	0
18	43	0	10000	4	1	0	4	0
17	44	0	10000	4	1	0	4	0
16	45	0	10000	4	1	0	4	0
17	46	0	10000	4	1	0	4	0
17	47	0	10000	4	1	0	4	0
18	48	0	10000	4	1	0	4	0
16	49	0	10000	4	1	0	4	0
16	50	0	10000	4	1	0	4	0
16	51	0	10000	4	1	0	4	0
16	52	0	10000	4	1	0	4	0
15	53	0	10000	4	1	0	4	0
16	54	0	10000	4	1	0	4	0
15	55	0	10000	4	1	0	4	0
15	56	0	10000	4	1	0	4	0
15	57	0	10000	4	1	0	4	0
15	58	0	10000	4	1	0	4	0
17	59	0	10000	4	1	0	4	0
17	60	0	10000	4	1	0	4	0
16	61	0	10000	4	1	0	4	0
16	62	0	10000	4	1	0	4	0
17	63	0	10000	4	1	0	4	0
16	64	0	10000	4	1	0	4	0
15	65	0	10000	4	1	0	4	0
16	66	0	10000	4	1	0	4	0
15	67	0	10000	4	1	0	4	0
16	68	0	10000	4	1	0	4	0
14	69	0	10000	4	1	0	4	0
14	70	0	10000	4	1	0	4	0
14	71	0	10000	4	1	0	4	0
14	72	0	10000	4	1	0	4	0
14	73	0	10000	4	1	0	4	0
16	74	0	10000	4	1	0	4	0
15	75	0	10000	4	1	0	4	0
15	76	0	10000	4	1	0	4	0
14	77	0	10000	4	1	0	4	0
14	78	0	10000	4	1	0	4	0
15	79	0	10000	4	1	0	4	0
17	80	0	10000	4	1	0	4	0
16	81	0	10000	4	1	0	4	0
15	82	0	10000	4	1	0	4	0
15	83	0	10000	4	1	0	4	0
14	84	0	10000	4	1	0	4	0
13	85	0	10000	4	1	0	4	0
14	86	0	10000	4	1	0	4	0
14	87	0	10000	4	1	0	4	0
14	88	0	10000	4	1	0	4	0
13	89	0	10000	4	1	0	4	0
13	90	0	10000	4	1	0	4	0
13	91	0	10000	4	1	0	4	0
15	92	0	10000	4	1	0	4	0
16	93	0	10000	4	1	0	4	0
16	94	0	10000	4	1	0	4	0
17	95	0	10000	4	1	0	4	0
16	96	0	10000	4	1	0	4	0
16	97	0	10000	4	1	0	4	0
15	98	0	10000	4	1	0	4	0
17	99	0	10000	4	1	0	4	0
16	100	0	10000	4	1	0	4	0
15	101	0	10000	4	1	0	4	0
15	102	0	10000	4	1	0	4	0
14	103	0	10000	4	1	0	4	0
13	104	0	10000	4	1	0	4	0
13	105	0	10000	4	1	0	4	0
14	106	0	10000	4	1	0	4	0
13	107	0	10000	4	1	0	4	0
14	108	0	10000	4	1	0	4	0
12	109	0	10000	4	1	0	4	0
10	110	0	10000	4	1	0	4	0
11	111	0	10000	4	1	0	4	0
11	112	0	10000	4	1	0	4	0
13	113	0	10000	4	1	0	4	0
14	114	0	10000	4	1	0	4	0
14	115	0	10000	4	1	0	4	0
13	116	0	10000	4	1	0	4	0
12	117	0	10000	4	1	0	4	0
12	118	0	10000	4	1	0	4	0
13	119	0	10000	4	1	0	4	0
15	120	0	10000	4	1	0	4	0
15	121	0	10000	4	1	0	4	0
14	122	0	10000	4	1	0	4	0
14	123	0	10000	4	1	0	4	0
13	124	0	10000	4	1	0	4	0
13	125	0	10000	4	1	0	4	0
14	126	0	10000	4	1	0	4	0
14	127	0	10000	4	1	0	4	0
14	128	0	10000	4	1	0	4	0
13	129	0	10000	4	1	0	4	0
12	130	0	10000	4	1	0	4	0
13	131	0	10000	4	1	0	4	0
13	132	0	10000	4	1	0	4	0
13	133	0	10000	4	1	0	4	0
13	134	0	10000	4	1	0	4	0
13	135	0	10000	4	1	0	4	0
13	136	0	10000	4	1	0	4	0
13	137	0	10000	4	1	0	4	0
12	138	0	10000	4	1	0	4	0
15	139	0	10000	4	1	0	4	0
15	140	0	10000	4	1	0	4	0
15	141	0	10000	4	1	0	4	0
14	142	0	10000	4	1	0	4	0
14	143	0	10000	4	1	0	4	0
13	144	0	10000	4	1	0	4	0
14	145	0	10000	4	1	0	4	0
16	146	0	10000	4	1	0	4	0
17	147	0	10000	4	1	0	4	0
17	148	0	10000	4	1	0	4	0
16	149	0	10000	4	1	0	4	0
15	150	0	10000	4	1	0	4	0
16	151	0	10000	4	1	0	4	0
15	152	0	10000	4	1	0	4	0
15	153	0	10000	4	1	0	4	0
15	154	0	10000	4	1	0	4	0
15	155	0	10000	4	1	0	4	0
14	156	0	10000	4	1	0	4	0
14	157	0	10000	4	1	0	4	0
14	158	0	10000	4	1	0	4	0
16	159	0	10000	4	1	0	4	0
17	160	0	10000	4	1	0	4	0
16	161	0	10000	4	1	0	4	0
16	162	0	10000	4	1	0	4	0
16	163	0	10000	4	1	0	4	0
15	164	0	10000	4	1	0	4	0
14	165	0	10000	4	1	0	4	0
15	166	0	10000	4	1	0	4	0
15	167	0	10000	4	1	0	4	0
16	168	0	10000	4	1	0	4	0
14	169	0	10000	4	1	0	4	0
13	170	0	10000	4	1	0	4	0
14	171	0	10000	4	1	0	4	0
15	172	0	10000	4	1	0	4	0
14	173	0	10000	4	1	0	4	0
14	174	0	10000	4	1	0	4	0
14	175	0	10000	4	1	0	4	0
14	176	0	10000	4	1	0	4	0
13	177	0	10000	4	1	0	4	0
12	178	0	10000	4	1	0	4	0
13	179	0	10000	4	1	0	4	0
14	180	0	10000	4	1	0	4	0
12	181	0	10000	4	1	0	4	0
12	182	0	10000	4	1	0	4	0
13	183	0	10000	4	1	0	4	0
12	184	0	10000	4	1	0	4	0
12	185	0	10000	4	1	0	4	0
12	186	0	10000	4	1	0	4	0
12	187	0	10000	4	1	0	4	0
14	188	0	10000	4	1	0	4	0
12	189	0	10000	4	1	0	4	0
11	190	0	10000	4	1	0	4	0
12	191	0	10000	4	1	0	4	0
13	192	0	10000	4	1	0	4	0
13	193	0	10000	4	1	0	4	0
13	194	0	10000	4	1	0	4	0
13	195	0	10000	4	1	0	4	0
13	196	0	10000	4	1	0	4	0
13	197	0	10000	4	1	0	4	0
13	198	0	10000	4	1	0	4	0
15	199	0	10000	4	1	0	4	0
15	200	0	10000	4	1	0	4	0
14	201	0	10000	4	1	0	4	0
14	202	0	10000	4	1	0	4	0
15	203	0	10000	4	1	0	4	0
14	204	0	10000	4	1	0	4	0
15	205	0	10000	4	1	0	4	0
16	206	0	10000	4	1	0	4	0
15	207	0	10000	4	1	0	4	0
15	208	0	10000	4	1	0	4	0
14	209	0	10000	4	1	0	4	0
13	210	0	10000	4	1	0	4	0
13	211	0	10000	4	1	0	4	0
13	212	0	10000	4	1	0	4	0
12	213	0	10000	4	1	0	4	0
13	214	0	10000	4	1	0	4	0
14	215	0	10000	4	1	0	4	0
12	216	0	10000	4	1	0	4	0
11	217	0	10000	4	1	0	4	0
12	218	0	10000	4	1	0	4	0
14	219	0	10000	4	1	0	4	0
15	220	0	10000	4	1	0	4	0
15	221	0	10000	4	1	0	4	0
16	222	0	10000	4	1	0	4	0
16	223	0	10000	4	1	0	4	0
16	224	0	10000	4	1	0	4	0
16	225	0	10000	4	1	0	4	0
18	226	0	10000	4	1	0	4	0
19	227	0	10000	4	1	0	4	0
19	228	0	10000	4	1	0	4	0
16	229	0	10000	4	1	0	4	0
16	230	0	10000	4	1	0	4	0
16	231	0	10000	4	1	0	4	0
17	232	0	10000	4	1	0	4	0
17	233	0	10000	4	1	0	4	0
17	234	0	10000	4	1	0	4	0
17	235	0	10000	4	1	0	4	0
15	236	0	10000	4	1	0	4	0
15	237	0	10000	4	1	0	4	0
14	238	0	10000	4	1	0	4	0
15	239	0	10000	4	1	0	4	0
16	240	0	10000	4	1	0	4	0
15	241	0	10000	4	1	0	4	0
14	242	0	10000	4	1	0	4	0
14	243	0	10000	4	1	0	4	0
14	244	0	10000	4	1	0	4	0
13	245	0	10000	4	1	0	4	0
13	246	0	10000	4	1	0	4	0
13	247	0	10000	4	1	0	4	0
13	248	0	10000	4	1	0	4	0
12	249	0	10000	4	1	0	4	0
12	250	0	10000	4	1	0	4	0
11	251	0	10000	4	1	0	4	0
11	252	0	10000	4	1	0	4	0
11	253	0	10000	4	1	0	4	0
11	254	0	10000	4	1	0	4	0
12	255	0	10000	4	1	0	4	0
12	256	0	10000	4	1	0	4	0
12	257	0	10000	4	1	0	4	0
13	258	0	10000	4	1	0	4	0
15	259	0	10000	4	1	0	4	0
15	260	0	10000	4	1	0	4	0
14	261	0	10000	4	1	0	4	0
14	262	0	10000	4	1	0	4	0
14	263	0	10000	4	1	0	4	0
13	264	0	10000	4	1	0	4	0
14	265	0	10000	4	1	0	4	0
14	266	0	10000	4	1	0	4	0
14	267	0	10000	4	1	0	4	0
14	268	0	10000	4	1	0	4	0
13	269	0	10000	4	1	0	4	0
12	270	0	10000	4	1	0	4	0
12	271	0	10000	4	1	0	4	0
12	272	0	10000	4	1	0	4	0
12	273	0	10000	4	1	0	4	0
12	274	0	10000	4	1	0	4	0
12	275	0	10000	4	1	0	4	0
11	276	0	10000	4	1	0	4	0
10	277	0	10000	4	1	0	4	0
11	278	0	10000	4	1	0	4	0
13	279	0	10000	4	1	0	4	0
13	280	0	10000	4	1	0	4	0
13	281	0	10000	4	1	0	4	0
13	282	0	10000	4	1	0	4	0
13	283	0	10000	4	1	0	4	0
13	284	0	10000	4	1	0	4	0
12	285	0	10000	4	1	0	4	0
13	286	0	10000	4	1	0	4	0
12	287	0	10000	4	1	0	4	0
13	288	0	10000	4	1	0	4	0
11	289	0	10000	4	1	0	4	0
10	290	0	10000	4	1	0	4	0
10	291	0	10000	4	1	0	4	0
11	292	0	10000	4	1	0	4	0
11	293	0	10000	4	1	0	4	0
10	294	0	10000	4	1	0	4	0
10	295	0	10000	4	1	0	4	0
11	296	0	10000	4	1	0	4	0
10	297	0	10000	4	1	0	4	0
11	298	0	10000	4	1	0	4	0
14	299	0	10000	4	1	0	4	0
16	300	0	10000	4	1	0	4	0
15	301	0	10000	4	1	0	4	0
14	302	0	10000	4	1	0	4	0
14	303	0	10000	4	1	0	4	0
13	304	0	10000	4	1	0	4	0
13	305	0	10000	4	1	0	4	0
14	306	0	10000	4	1	0	4	0
15	307	0	10000	4	1	0	4	0
15	308	0	10000	4	1	0	4	0
14	309	0	10000	4	1	0	4	0
13	310	0	10000	4	1	0	4	0
14	311	0	10000	4	1	0	4	0
13	312	0	10000	4	1	0	4	0
13	313	0	10000	4	1	0	4	0
13	314	0	10000	4	1	0	4	0
13	315	0	10000	4	1	0	4	0
12	316	0	10000	4	1	0	4	0
11	317	0	10000	4	1	0	4	0
10	318	0	10000	4	1	0	4	0
12	319	0	10000	4	1	0	4	0
12	320	0	10000	4	1	0	4	0
12	321	0	10000	4	1	0	4	0
11	322	0	10000	4	1	0	4	0
12	323	0	10000	4	1	0	4	0
11	324	0	10000	4	1	0	4	0
11	325	0	10000	4	1	0	4	0
12	326	0	10000	4	1	0	4	0
12	327	0	10000	4	1	0	4	0
12	328	0	10000	4	1	0	4	0
11	329	0	10000	4	1	0	4	0
10	330	0	10000	4	1	0	4	0
10	331	0	10000	4	1	0	4	0
11	332	0	10000	4	1	0	4	0
12	333	0	10000	4	1	0	4	0
11	334	0	10000	4	1	0	4	0
12	335	0	10000	4	1	0	4	0
12	336	0	10000	4	1	0	4	0
11	337	0	10000	4	1	0	4	0
10	338	0	10000	4	1	0	4	0
13	339	0	10000	4	1	0	4	0
13	340	0	10000	4	1	0	4	0
13	341	0	10000	4	1	0	4	0
12	342	0	10000	4	1	0	4	0
13	343	0	10000	4	1	0	4	0
11	344	0	10000	4	1	0	4	0
11	345	0	10000	4	1	0	4	0
12	346	0	10000	4	1	0	4	0
11	347	0	10000	4	1	0	4	0
12	348	0	10000	4	1	0	4	0
10	349	0	10000	4	1	0	4	0
11	350	0	10000	4	1	0	4	0
12	351	0	10000	4	1	0	4	0
13	352	0	10000	4	1	0	4	0
13	353	0	10000	4	1	0	4	0
13	354	0	10000	4	1	0	4	0
13	355	0	10000	4	1	0	4	0
12	356	0	10000	4	1	0	4	0
12	357	0	10000	4	1	0	4	0
12	358	0	10000	4	1	0	4	0
13	359	0	10000	4	1	0	4	0
14	360	0	10000	4	1	0	4	0
13	361	0	10000	4	1	0	4	0
13	362	0	10000	4	1	0	4	0
12	363	0	10000	4	1	0	4	0
12	364	0	10000	4	1	0	4	0
12	365	0	10000	4	1	0	4	0
13	366	0	10000	4	1	0	4	0
13	367	0	10000	4	1	0	4	0
14	368	0	10000	4	1	0	4	0
12	369	0	10000	4	1	0	4	0
12	370	0	10000	4	1	0	4	0
12	371	0	10000	4	1	0	4	0
13	372	0	10000	4	1	0	4	0
12	373	0	10000	4	1	0	4	0
12	374	0	10000	4	1	0	4	0
12	375	0	10000	4	1	0	4	0
11	376	0	10000	4	1	0	4	0
10	377	0	10000	4	1	0	4	0
9	378	0	10000	4	1	0	4	0
11	379	0	10000	4	1	0	4	0
12	380	0	10000	4	1	0	4	0
12	381	0	10000	4	1	0	4	0
11	382	0	10000	4	1	0	4	0
12	383	0	10000	4	1	0	4	0
11	384	0	10000	4	1	0	4	0
11	385	0	10000	4	1	0	4	0
13	386	0	10000	4	1	0	4	0
12	387	0	10000	4	1	0	4	0
12	388	0	10000	4	1	0	4	0
11	389	0	10000	4	1	0	4	0
12	390	0	10000	4	1	0	4	0
14	391	0	10000	4	1	0	4	0
14	392	0	10000	4	1	0	4	0
15	393	0	10000	4	1	0	4	0
15	394	0	10000	4	1	0	4	0
15	395	0	10000	4	1	0	4	0
15	396	0	10000	4	1	0	4	0
15	397	0	10000	4	1	0	4	0
14	398	0	10000	4	1	0	4	0
16	399	0	10000	4	1	0	4	0
17	400	0	10000	4	1	0	4	0
16	401	0	10000	4	1	0	4	0
15	402	0	10000	4	1	0	4	0
16	403	0	10000	4	1	0	4	0
15	404	0	10000	4	1	0	4	0
15	405	0	10000	4	1	0	4	0
16	406	0	10000	4	1	0	4	0
16	407	0	10000	4	1	0	4	0
16	408	0	10000	4	1	0	4	0
14	409	0	10000	4	1	0	4	0
14	410	0	10000	4	1	0	4	0
13	411	0	10000	4	1	0	4	0
13	412	0	10000	4	1	0	4	0
13	413	0	10000	4	1	0	4	0
13	414	0	10000	4	1	0	4	0
15	415	0	10000	4	1	0	4	0
15	416	0	10000	4	1	0	4	0
15	417	0	10000	4	1	0	4	0
14	418	0	10000	4	1	0	4	0
16	419	0	10000	4	1	0	4	0
16	420	0	10000	4	1	0	4	0
15	421	0	10000	4	1	0	4	0
14	422	0	10000	4	1	0	4	0
14	423	0	10000	4	1	0	4	0
13	424	0	10000	4	1	0	4	0
13	425	0	10000	4	1	0	4	0
13	426	0	10000	4	1	0	4	0
13	427	0	10000	4	1	0	4	0
13	428	0	10000	4	1	0	4	0
12	429	0	10000	4	1	0	4	0
11	430	0	10000	4	1	0	4	0
12	431	0	10000	4	1	0	4	0
14	432	0	10000	4	1	0	4	0
13	433	0	10000	4	1	0	4	0
14	434	0	10000	4	1	0	4	0
15	435	0	10000	4	1	0	4	0
14	436	0	10000	4	1	0	4	0
14	437	0	10000	4	1	0	4	0
14	438	0	10000	4	1	0	4	0
15	439	0	10000	4	1	0	4	0
16	440	0	10000	4	1	0	4	0
16	441	0	10000	4	1	0	4	0
15	442	0	10000	4	1	0	4	0
15	443	0	10000	4	1	0	4	0
15	444	0	10000	4	1	0	4	0
15	445	0	10000	4	1	0	4	0
17	446	0	10000	4	1	0	4	0
17	447	0	10000	4	1	0	4	0
17	448	0	10000	4	1	0	4	0
15	449	0	10000	4	1	0	4	0
15	450	0	10000	4	1	0	4	0
15	451	0	10000	4	1	0	4	0
15	452	0	10000	4	1	0	4	0
15	453	0	10000	4	1	0	4	0
16	454	0	10000	4	1	0	4	0
16	455	0	10000	4	1	0	4	0
15	456	0	10000	4	1	0	4	0
15	457	0	10000	4	1	0	4	0
14	458	0	10000	4	1	0	4	0
18	459	0	10000	4	1	0	4	0
18	460	0	10000	4	1	0	4	0
17	461	0	10000	4	1	0	4	0
17	462	0	10000	4	1	0	4	0
17	463	0	10000	4	1	0	4	0
15	464	0	10000	4	1	0	4	0
15	465	0	10000	4	1	0	4	0
17	466	0	10000	4	1	0	4	0
17	467	0	10000	4	1	0	4	0
17	468	0	10000	4	1	0	4	0
15	469	0	10000	4	1	0	4	0
15	470	0	10000	4	1	0	4	0
15	471	0	10000	4	1	0	4	0
16	472	0	10000	4	1	0	4	0
15	473	0	10000	4	1	0	4	0
14	474	0	10000	4	1	0	4	0
15	475	0	10000	4	1	0	4	0
15	476	0	10000	4	1	0	4	0
15	477	0	10000	4	1	0	4	0
14	478	0	10000	4	1	0	4	0
17	479	0	10000	4	1	0	4	0
19	480	0	10000	4	1	0	4	0
18	481	0	10000	4	1	0	4	0
16	482	0	10000	4	1	0	4	0
17	483	0	10000	4	1	0	4	0
16	484	0	10000	4	1	0	4	0
14	485	0	10000	4	1	0	4	0
15	486	0	10000	4	1	0	4	0
15	487	0	10000	4	1	0	4	0
15	488	0	10000	4	1	0	4	0
14	489	0	10000	4	1	0	4	0
13	490	0	10000	4	1	0	4	0
14	491	0	10000	4	1	0	4	0
14	492	0	10000	4	1	0	4	0
15	493	0	10000	4	1	0	4	0
15	494	0	10000	4	1	0	4	0
16	495	0	10000	4	1	0	4	0
17	496	0	10000	4	1	0	4	0
17	497	0	10000	4	1	0	4	0
16	498	0	10000	4	1	0	4	0
18	499	0	10000	4	1	0	4	0
18	500	0	10000	4	1	0	4	0
17	501	0	10000	4	1	0	4	0
17	502	0	10000	4	1	0	4	1
18	503	0	10000	4	1	0	4	1
17	504	0	10000	4	1	0	4	1
17	505	0	10000	4	1	0	4	1
17	506	0	10000	4	1	0	4	1
16	507	0	10000	4	1	0	4	1
16	508	0	10000	4	1	0	4	1
14	509	0	10000	4	1	0	4	1
14	510	0	10000	4	1	0	4	1
15	511	0	10000	4	1	0	4	1
16	512	0	10000	4	1	0	4	1
16	513	0	10000	4	1	0	4	1
16	514	0	10000	4	1	0	4	1
16	515	0	10000	4	1	0	4	1
15	516	0	10000	4	1	0	4	1
15	517	0	10000	4	1	0	4	1
16	518	0	10000	4	1	0	4	1
19	519	0	10000	4	1	0	4	1
19	520	0	10000	4	1	0	4	1
18	521	0	10000	4	1	0	4	1
18	522	0	10000	4	1	0	4	1
18	523	0	10000	4	1	0	4	1
17	524	0	10000	4	1	0	4	1
16	525	0	10000	4	1	0	4	1
16	526	0	10000	4	1	0	4	1
16	527	0	10000	4	1	0	4	1
16	528	0	10000	4	1	0	4	1
15	529	0	10000	4	1	0	4	1
14	530	0	10000	4	1	0	4	1
15	531	0	10000	4	1	0	4	1
16	532	0	10000	4	1	0	4	1
17	533	0	10000	4	1	0	4	1
16	534	0	10000	4	1	0	4	1
17	535	0	10000	4	1	0	4	1
18	536	0	10000	4	1	0	4	1
17	537	0	10000	4	1	0	4	1
16	538	0	10000	4	1	0	4	1
17	539	0	10000	4	1	0	4	1
17	540	0	10000	4	1	0	4	1
17	541	0	10000	4	1	0	4	1
17	542	0	10000	4	1	0	4	1
18	543	0	10000	4	1	0	4	1
18	544	0	10000	4	1	0	4	1
19	545	0	10000	4	1	0	4	1
20	546	0	10000	4	1	0	4	1
20	547	0	10000	4	1	0	4	1
20	548	0	10000	4	1	0	4	1
18	549	0	10000	4	1	0	4	1
18	550	0	10000	4	1	0	4	1
18	551	0	10000	4	1	0	4	1
18	552	0	10000	4	1	0	4	0
18	553	0	10000	4	1	0	4	0
19	554	0	10000	4	1	0	4	0
19	555	0	10000	4	1	0	4	0
18	556	0	10000	4	1	0	4	0
17	557	0	10000	4	1	0	4	0
17	558	0	10000	4	1	0	4	0
18	559	0	10000	4	1	0	4	0
18	560	0	10000	4	1	0	4	0
18	561	0	10000	4	1	0	4	0
18	562	0	10000	4	1	0	4	0
19	563	0	10000	4	1	0	4	0
19	564	0	10000	4	1	0	4	0
18	565	0	10000	4	1	0	4	0
20	566	0	10000	4	1	0	4	0
20	567	0	10000	4	1	0	4	0
20	568	0	10000	4	1	0	4	0
18	569	0	10000	4	1	0	4	0
17	570	0	10000	4	1	0	4	0
17	571	0	10000	4	1	0	4	0
17	572	0	10000	4	1	0	4	0
18	573	0	10000	4	1	0	4	0
18	574	0	10000	4	1	0	4	0
18	575	0	10000	4	1	0	4	0
18	576	0	10000	4	1	0	4	0
18	577	0	10000	4	1	0	4	0
17	578	0	10000	4	1	0	4	0
20	579	0	10000	4	1	0	4	0
20	580	0	10000	4	1	0	4	0
20	581	0	10000	4	1	0	4	0
19	582	0	10000	4	1	0	4	0
19	583	0	10000	4	1	0	4	0
18	584	0	10000	4	1	0	4	0
17	585	0	10000	4	1	0	4	0
17	586	0	10000	4	1	0	4	0
17	587	0	10000	4	1	0	4	0
18	588	0	10000	4	1	0	4	0
19	589	0	10000	4	1	0	4	0
20	590	0	10000	4	1	0	4	0
23	591	0	10000	4	1	0	4	0
29	592	0	10000	4	1	0	4	0
33	593	0	10000	4	1	0	4	0
35	594	0	10000	4	1	0	4	0
43	595	0	10000	4	1	0	4	0
56	596	0	10000	4	1	0	4	0
67	597	0	10000	4	1	0	4	0
76	598	0	10000	4	1	0	4	0
88	599	0	10000	4	1	0	4	0
103	600	0	10000	4	1	0	4	0
160	601	0	10000	4	1	0	4	0
183	602	0	10000	4	1	0	4	0
249	603	0	10000	4	1	0	4	0
384	604	0	10000	4	1	0	4	0
491	605	0	10000	4	1	0	4	0
516	606	0	10000	4	1	0	4	0
625	607	0	10000	4	1	0	4	0
719	608	0	10000	4	1	0	4	0
738	609	0	10000	4	1	0	4	0
814	610	0	10000	4	1	0	4	0
807	611	0	10000	4	1	0	4	0
796	612	0	10000	4	1	0	4	0
806	613	0	10000	4	1	0	4	0
831	614	0	10000	4	1	0	4	0
867	615	0	10000	4	1	0	4	0
918	616	0	10000	4	1	0	4	0
945	617	0	10000	4	1	0	4	0
994	618	0	10000	4	1	0	4	0
1183	619	0	10000	4	1	0	4	0
1257	620	0	10000	4	1	0	4	0
1361	621	0	10000	4	1	0	4	0
1470	622	0	10000	4	1	0	4	0
1437	623	0	10000	4	1	0	4	0
1468	624	0	10000	4	1	0	4	0
1497	625	0	10000	4	1	0	4	0
1453	626	0	10000	4	1	0	4	0
1424	627	0	10000	4	1	0	4	0
1390	628	0	10000	4	1	0	4	0
1361	629	0	10000	4	1	0	4	0
1345	630	0	10000	4	1	0	4	0
1316	631	0	10000	4	1	0	4	0
1262	632	0	10000	4	1	0	4	0
1223	633	0	10000	4	1	0	4	0
1196	634	0	10000	4	1	0	4	0
1175	635	0	10000	4	1	0	4	0
1153	636	0	10000	4	1	0	4	0
1132	637	0	10000	4	1	0	4	0
1109	638	0	10000	4	1	0	4	0
1089	639	0	10000	4	1	0	4	0
1067	640	0	10000	4	1	0	4	0
1046	641	0	10000	4	1	0	4	0
1027	642	0	10000	4	1	0	4	0
1013	643	0	10000	4	1	0	4	0
1008	644	0	10000	4	1	0	4	0
990	645	0	10000	4	1	0	4	0
987	646	0	10000	4	1	0	4	0
964	647	0	10000	4	1	0	4	0
956	648	0	10000	4	1	0	4	0
951	649	0	10000	4	1	0	4	0
936	650	0	10000	4	1	0	4	0
906	651	0	10000	4	1	0	4	0
881	652	0	10000	4	1	0	4	0
869	653	0	10000	4	1	0	4	0
847	654	0	10000	4	1	0	4	0
824	655	0	10000	4	1	0	4	0
801	656	0	10000	4	1	0	4	0
780	657	0	10000	4	1	0	4	0
758	658	0	10000	4	1	0	4	0
728	659	0	10000	4	1	0	4	0
697	660	0	10000	4	1	0	4	0
678	661	0	10000	4	1	0	4	0
652	662	0	10000	4	1	0	4	0
642	663	0	10000	4	1	0	4	0
637	664	0	10000	4	1	0	4	0
628	665	0	10000	4	1	0	4	0
618	666	0	10000	4	1	0	4	0
614	667	0	10000	4	1	0	4	0
615	668	0	10000	4	1	0	4	0
610	669	0	10000	4	1	0	4	0
600	670	0	10000	4	1	0	4	0
595	671	0	10000	4	1	0	4	0
594	672	0	10000	4	1	0	4	0
598	673	0	10000	4	1	0	4	0
598	674	0	10000	4	1	0	4	0
600	675	0	10000	4	1	0	4	0
606	676	0	10000	4	1	0	4	0
605	677	0	10000	4	1	0	4	0
604	678	0	10000	4	1	0	4	0
608	679	0	10000	4	1	0	4	0
606	680	0	10000	4	1	0	4	0
600	681	0	10000	4	1	0	4	0
625	682	0	10000	4	1	0	4	0
654	683	0	10000	4	1	0	4	0
671	684	0	10000	4	1	0	4	0
676	685	0	10000	4	1	0	4	0
674	686	0	10000	4	1	0	4	0
671	687	0	10000	4	1	0	4	0
675	688	0	10000	4	1	0	4	0
681	689	0	10000	4	1	0	4	0
679	690	0	10000	4	1	0	4	0
670	691	0	10000	4	1	0	4	0
662	692	0	10000	4	1	0	4	0
655	693	0	10000	4	1	0	4	0
646	694	0	10000	4	1	0	4	0
637	695	0	10000	4	1	0	4	0
627	696	0	10000	4	1	0	4	0
618	697	0	10000	4	1	0	4	0
611	698	0	10000	4	1	0	4	0
607	699	0	10000	4	1	0	4	0
601	700	0	10000	4	1	0	4	0
594	701	0	10000	4	1	0	4	0
588	702	0	10000	4	1	0	4	0
579	703	0	10000	4	1	0	4	0
568	704	0	10000	4	1	0	4	0
558	705	0	10000	4	1	0	4	0
546	706	0	10000	4	1	0	4	0
531	707	0	10000	4	1	0	4	0
516	708	0	10000	4	1	0	4	0
501	709	0	10000	4	1	0	4	0
486	710	0	10000	4	1	0	4	0
470	711	0	10000	4	1	0	4	0
456	712	0	10000	4	1	0	4	0
441	713	0	10000	4	1	0	4	0
424	714	0	10000	4	1	0	4	0
406	715	0	10000	4	1	0	4	0
387	716	0	10000	4	1	0	4	0
372	717	0	10000	4	1	0	4	0
359	718	0	10000	4	1	0	4	0
349	719	0	10000	4	1	0	4	0
339	720	0	10000	4	1	0	4	0
328	721	0	10000	4	1	0	4	0
316	722	0	10000	4	1	0	4	0
305	723	0	10000	4	1	0	4	0
291	724	0	10000	4	1	0	4	0
278	725	0	10000	4	1	0	4	0
266	726	0	10000	4	1	0	4	0
256	727	0	10000	4	1	0	4	0
249	728	0	10000	4	1	0	4	0
242	729	0	10000	4	1	0	4	0
238	730	0	10000	4	1	0	4	0
234	731	0	10000	4	1	0	4	0
231	732	0	10000	4	1	0	4	0
229	733	0	10000	4	1	0	4	0
228	734	0	10000	4	1	0	4	0
228	735	0	10000	4	1	0	4	0
226	736	0	10000	4	1	0	4	0
224	737	0	10000	4	1	0	4	0
223	738	0	10000	4	1	0	4	0
222	739	0	10000	4	1	0	4	0
219	740	0	10000	4	1	0	4	0
215	741	0	10000	4	1	0	4	0
212	742	0	10000	4	1	0	4	0
210	743	0	10000	4	1	0	4	0
207	744	0	10000	4	1	0	4	0
207	745	0	10000	4	1	0	4	0
211	746	0	10000	4	1	0	4	0
214	747	0	10000	4	1	0	4	0
220	748	0	10000	4	1	0	4	0
222	749	0	10000	4	1	0	4	0
224	750	0	10000	4	1	0	4	0
225	751	0	10000	4	1	0	4	0
226	752	0	10000	4	1	0	4	0
226	753	0	10000	4	1	0	4	0
225	754	0	10000	4	1	0	4	0
227	755	0	10000	4	1	0	4	0
232	756	0	10000	4	1	0	4	0
237	757	0	10000	4	1	0	4	0
238	758	0	10000	4	1	0	4	0
234	759	0	10000	4	1	0	4	0
227	760	0	10000	4	1	0	4	0
223	761	0	10000	4	1	0	4	0
221	762	0	10000	4	1	0	4	0
218	763	0	10000	4	1	0	4	0
212	764	0	10000	4	1	0	4	0
210	765	0	10000	4	1	0	4	0
210	766	0	10000	4	1	0	4	0
210	767	0	10000	4	1	0	4	0
209	768	0	10000	4	1	0	4	0
205	769	0	10000	4	1	0	4	0
204	770	0	10000	4	1	0	4	0
206	771	0	10000	4	1	0	4	0
205	772	0	10000	4	1	0	4	0
202	773	0	10000	4	1	0	4	0
200	774	0	10000	4	1	0	4	0
197	775	0	10000	4	1	0	4	0
194	776	0	10000	4	1	0	4	0
188	777	0	10000	4	1	0	4	0
181	778	0	10000	4	1	0	4	0
176	779	0	10000	4	1	0	4	0
170	780	0	10000	4	1	0	4	0
164	781	0	10000	4	1	0	4	0
161	782	0	10000	4	1	0	4	0
158	783	0	10000	4	1	0	4	0
152	784	0	10000	4	1	0	4	0
148	785	0	10000	4	1	0	4	0
144	786	0	10000	4	1	0	4	0
139	787	0	10000	4	1	0	4	0
137	788	0	10000	4	1	0	4	0
137	789	0	10000	4	1	0	4	0
147	790	0	10000	4	1	0	4	0
157	791	0	10000	4	1	0	4	0
165	792	0	10000	4	1	0	4	0
165	793	0	10000	4	1	0	4	0
165	794	0	10000	4	1	0	4	0
161	795	0	10000	4	1	0	4	0
154	796	0	10000	4	1	0	4	0
148	797	0	10000	4	1	0	4	0
142	798	0	10000	4	1	0	4	0
140	799	0	10000	4	1	0	4	0
136	800	0	10000	4	1	0	4	0
130	801	0	10000	4	1	0	4	0
124	802	0	10000	4	1	0	4	0
120	803	0	10000	4	1	0	4	0
116	804	0	10000	4	1	0	4	0
114	805	0	10000	4	1	0	4	0
111	806	0	10000	4	1	0	4	0
113	807	0	10000	4	1	0	4	0
114	808	0	10000	4	1	0	4	0
115	809	0	10000	4	1	0	4	0
118	810	0	10000	4	1	0	4	0
118	811	0	10000	4	1	0	4	0
119	812	0	10000	4	1	0	4	0
117	813	0	10000	4	1	0	4	0
114	814	0	10000	4	1	0	4	0
112	815	0	10000	4	1	0	4	0
109	816	0	10000	4	1	0	4	0
108	817	0	10000	4	1	0	4	0
104	818	0	10000	4	1	0	4	0
102	819	0	10000	4	1	0	4	0
98	820	0	10000	4	1	0	4	0
93	821	0	10000	4	1	0	4	0
89	822	0	10000	4	1	0	4	0
86	823	0	10000	4	1	0	4	0
83	824	0	10000	4	1	0	4	0
79	825	0	10000	4	1	0	4	0
77	826	0	10000	4	1	0	4	0
74	827	0	10000	4	1	0	4	0
72	828	0	10000	4	1	0	4	0
70	829	0	10000	4	1	0	4	0
69	830	0	10000	4	1	0	4	0
68	831	0	10000	4	1	0	4	0
66	832	0	10000	4	1	0	4	0
64	833	0	10000	4	1	0	4	0
62	834	0	10000	4	1	0	4	0
61	835	0	10000	4	1	0	4	0
60	836	0	10000	4	1	0	4	0
61	837	0	10000	4	1	0	4	0
58	838	0	10000	4	1	0	4	0
59	839	0	10000	4	1	0	4	0
59	840	0	10000	4	1	0	4	0
56	841	0	10000	4	1	0	4	0
54	842	0	10000	4	1	0	4	0
52	843	0	10000	4	1	0	4	0
50	844	0	10000	4	1	0	4	0
49	845	0	10000	4	1	0	4	0
49	846	0	10000	4	1	0	4	0
52	847	0	10000	4	1	0	4	0
54	848	0	10000	4	1	0	4	0
52	849	0	10000	4	1	0	4	0
58	850	0	10000	4	1	0	4	0
63	851	0	10000	4	1	0	4	0
65	852	0	10000	4	1	0	4	0
66	853	0	10000	4	1	0	4	0
67	854	0	10000	4	1	0	4	0
67	855	0	10000	4	1	0	4	0
66	856	0	10000	4	1	0	4	0
65	857	0	10000	4	1	0	4	0
63	858	0	10000	4	1	0	4	0
66	859	0	10000	4	1	0	4	0
64	860	0	10000	4	1	0	4	0
61	861	0	10000	4	1	0	4	0
59	862	0	10000	4	1	0	4	0
60	863	0	10000	4	1	0	4	0
60	864	0	10000	4	1	0	4	0
57	865	0	10000	4	1	0	4	0
55	866	0	10000	4	1	0	4	0
54	867	0	10000	4	1	0	4	0
54	868	0	10000	4	1	0	4	0
52	869	0	10000	4	1	0	4	0
55	870	0	10000	4	1	0	4	0
58	871	0	10000	4	1	0	4	0
57	872	0	10000	4	1	0	4	0
54	873	0	10000	4	1	0	4	0
55	874	0	10000	4	1	0	4	0
60	875	0	10000	4	1	0	4	0
62	876	0	10000	4	1	0	4	0
64	877	0	10000	4	1	0	4	0
66	878	0	10000	4	1	0	4	0
67	879	0	10000	4	1	0	4	0
66	880	0	10000	4	1	0	4	0
68	881	0	10000	4	1	0	4	0
69	882	0	10000	4	1	0	4	0
69	883	0	10000	4	1	0	4	0
69	884	0	10000	4	1	0	4	0
68	885	0	10000	4	1	0	4	0
69	886	0	10000	4	1	0	4	0
68	887	0	10000	4	1	0	4	0
67	888	0	10000	4	1	0	4	0
63	889	0	10000	4	1	0	4	0
63	890	0	10000	4	1	0	4	0
63	891	0	10000	4	1	0	4	0
61	892	0	10000	4	1	0	4	0
62	893	0	10000	4	1	0	4	0
64	894	0	10000	4	1	0	4	0
62	895	0	10000	4	1	0	4	0
63	896	0	10000	4	1	0	4	0
61	897	0	10000	4	1	0	4	0
61	898	0	10000	4	1	0	4	0
66	899	0	10000	4	1	0	4	0
73	900	0	10000	4	1	0	4	0
81	901	0	10000	4	1	0	4	0
84	902	0	10000	4	1	0	4	0
84	903	0	10000	4	1	0	4	0
89	904	0	10000	4	1	0	4	0
93	905	0	10000	4	1	0	4	0
94	906	0	10000	4	1	0	4	0
92	907	0	10000	4	1	0	4	0
90	908	0	10000	4	1	0	4	0
85	909	0	10000	4	1	0	4	0
82	910	0	10000	4	1	0	4	0
80	911	0	10000	4	1	0	4	0
78	912	0	10000	4	1	0	4	0
74	913	0	10000	4	1	0	4	0
71	914	0	10000	4	1	0	4	0
68	915	0	10000	4	1	0	4	0
66	916	0	10000	4	1	0	4	0
63	917	0	10000	4	1	0	4	0
62	918	0	10000	4	1	0	4	0
66	919	0	10000	4	1	0	4	0
68	920	0	10000	4	1	0	4	0
67	921	0	10000	4	1	0	4	0
66	922	0	10000	4	1	0	4	0
66	923	0	10000	4	1	0	4	0
64	924	0	10000	4	1	0	4	0
60	925	0	10000	4	1	0	4	0
58	926	0	10000	4	1	0	4	0
58	927	0	10000	4	1	0	4	0
57	928	0	10000	4	1	0	4	0
55	929	0	10000	4	1	0	4	0
55	930	0	10000	4	1	0	4	0
56	931	0	10000	4	1	0	4	0
58	932	0	10000	4	1	0	4	0
58	933	0	10000	4	1	0	4	0
56	934	0	10000	4	1	0	4	0
56	935	0	10000	4	1	0	4	0
57	936	0	10000	4	1	0	4	0
59	937	0	10000	4	1	0	4	0
60	938	0	10000	4	1	0	4	0
61	939	0	10000	4	1	0	4	0
59	940	0	10000	4	1	0	4	0
60	941	0	10000	4	1	0	4	0
61	942	0	10000	4	1	0	4	0
60	943	0	10000	4	1	0	4	0
58	944	0	10000	4	1	0	4	0
56	945	0	10000	4	1	0	4	0
54	946	0	10000	4	1	0	4	0
52	947	0	10000	4	1	0	4	0
50	948	0	10000	4	1	0	4	0
46	949	0	10000	4	1	0	4	0
48	950	0	10000	4	1	0	4	0
51	951	0	10000	4	1	0	4	0
51	952	0	10000	4	1	0	4	0
57	953	0	10000	4	1	0	4	0
62	954	0	10000	4	1	0	4	0
64	955	0	10000	4	1	0	4	0
63	956	0	10000	4	1	0	4	0
61	957	0	10000	4	1	0	4	0
59	958	0	10000	4	1	0	4	0
59	959	0	10000	4	1	0	4	0
57	960	0	10000	4	1	0	4	0
55	961	0	10000	4	1	0	4	0
53	962	0	10000	4	1	0	4	0
51	963	0	10000	4	1	0	4	0
51	964	0	10000	4	1	0	4	0
55	965	0	10000	4	1	0	4	0
53	966	0	10000	4	1	0	4	0
53	967	0	10000	4	1	0	4	0
54	968	0	10000	4	1	0	4	0
52	969	0	10000	4	1	0	4	0
50	970	0	10000	4	1	0	4	0
52	971	0	10000	4	1	0	4	0
52	972	0	10000	4	1	0	4	0
51	973	0	10000	4	1	0	4	0
49	974	0	10000	4	1	0	4	0
49	975	0	10000	4	1	0	4	0
50	976	0	10000	4	1	0	4	0
51	977	0	10000	4	1	0	4	0
51	978	0	10000	4	1	0	4	0
56	979	0	10000	4	1	0	4	0
56	980	0	10000	4	1	0	4	0
60	981	0	10000	4	1	0	4	0
60	982	0	10000	4	1	0	4	0
64	983	0	10000	4	1	0	4	0
69	984	0	10000	4	1	0	4	0
68	985	0	10000	4	1	0	4	0
71	986	0	10000	4	1	0	4	0
75	987	0	10000	4	1	0	4	0
77	988	0	10000	4	1	0	4	0
74	989	0	10000	4	1	0	4	0
80	990	0	10000	4	1	0	4	0
87	991	0	10000	4	1	0	4	0
89	992	0	10000	4	1	0	4	0
85	993	0	10000	4	1	0	4	0
81	994	0	10000	4	1	0	4	0
80	995	0	10000	4	1	0	4	0
77	996	0	10000	4	1	0	4	0
76	997	0	10000	4	1	0	4	0
72	998	0	10000	4	1	0	4	0
74	999	0	10000	4	1	0	4	0
78	1000	0	10000	4	1	0	4	0
80	1001	0	10000	4	1	0	4	0
23	7	7	10000	5	1	0	5	0
24	8	7	10000	5	1	0	5	0
24	9	7	10000	5	1	0	5	0
23	10	7	10000	5	1	0	5	0
23	11	7	10000	5	1	0	5	0
23	12	7	10000	5	1	0	5	0
22	13	7	10000	5	1	0	5	0
21	14	7	10000	5	1	0	5	0
22	14	7	10000	5	1	0	5	0
23	15	7	10000	5	1	0	5	0
24	16	7	10000	5	1	0	5	0
24	17	7	10000	5	1	0	5	0
23	18	7	10000	5	1	0	5	0
24	19	7	10000	5	1	0	5	0
23	25	7	10000	5	1	0	5	0
22	26	7	10000	5	1	0	5	0
22	27	7	10000	5	1	0	5	0
22	28	7	10000	5	1	0	5	0
20	29	7	10000	5	1	0	5	0
20	30	7	10000	5	1	0	5	0
21	31	7	10000	5	1	0	5	0
23	32	7	10000	5	1	0	5	0
23	33	7	10000	5	1	0	5	0
21	34	7	10000	5	1	0	5	0
20	30	7	10000	5	1	0	5	0
21	31	7	10000	5	1	0	5	0
21	32	7	10000	5	1	0	5	0
23	33	7	10000	5	1	0	5	0
25	34	7	10000	5	1	0	5	0
24	35	7	10000	5	1	0	5	0
24	35	7	10000	5	1	0	5	0
22	36	7	10000	5	1	0	5	0
21	37	7	10000	5	1	0	5	0
21	38	7	10000	5	1	0	5	0
21	39	7	10000	5	1	0	5	0
21	40	7	10000	5	1	0	5	0
21	40	7	10000	5	1	0	5	0
23	41	7	10000	5	1	0	5	0
22	42	7	10000	5	1	0	5	0
21	43	7	10000	5	1	0	5	0
22	46	7	10000	5	1	0	5	0
24	47	7	10000	5	1	0	5	0
23	48	7	10000	5	1	0	5	0
22	49	7	10000	5	1	0	5	0
21	50	7	10000	5	1	0	5	0
21	51	7	10000	5	1	0	5	0
20	51	7	10000	5	1	0	5	0
19	52	7	10000	5	1	0	5	0
20	53	7	10000	5	1	0	5	0
20	54	7	10000	5	1	0	5	0
20	55	7	10000	5	1	0	5	0
17	56	7	10000	5	1	0	5	0
17	58	7	10000	5	1	0	5	0
17	59	7	10000	5	1	0	5	0
16	60	7	10000	5	1	0	5	0
16	61	7	10000	5	1	0	5	0
15	62	7	10000	5	1	0	5	0
16	63	7	10000	5	1	0	5	0
15	63	7	10000	5	1	0	5	0
15	64	7	10000	5	1	0	5	0
16	65	7	10000	5	1	0	5	0
17	66	7	10000	5	1	0	5	0
17	69	7	10000	5	1	0	5	0
15	70	7	10000	5	1	0	5	0
15	71	7	10000	5	1	0	5	0
16	72	7	10000	5	1	0	5	0
15	73	7	10000	5	1	0	5	0
14	74	7	10000	5	1	0	5	0
17	75	7	10000	5	1	0	5	0
16	76	7	10000	5	1	0	5	0
17	73	7	10000	5	1	0	5	0
14	74	7	10000	5	1	0	5	0
15	75	7	10000	5	1	0	5	0
16	76	7	10000	5	1	0	5	0
18	79	7	10000	5	1	0	5	0
20	80	7	10000	5	1	0	5	0
22	81	7	10000	5	1	0	5	0
22	82	7	10000	5	1	0	5	0
22	83	7	10000	5	1	0	5	0
22	84	7	10000	5	1	0	5	0
22	85	7	10000	5	1	0	5	0
23	86	7	10000	5	1	0	5	0
22	87	7	10000	5	1	0	5	0
24	88	7	10000	5	1	0	5	0
24	89	7	10000	5	1	0	5	0
24	90	7	10000	5	1	0	5	0
23	88	7	10000	5	1	0	5	0
21	89	7	10000	5	1	0	5	0
22	90	7	10000	5	1	0	5	0
22	91	7	10000	5	1	0	5	0
24	92	7	10000	5	1	0	5	0
23	93	7	10000	5	1	0	5	0
25	94	7	10000	5	1	0	5	0
25	95	7	10000	5	1	0	5	0
24	96	7	10000	5	1	0	5	0
24	97	7	10000	5	1	0	5	0
23	98	7	10000	5	1	0	5	0
24	99	7	10000	5	1	0	5	0
23	100	7	10000	5	1	0	5	0
22	101	7	10000	5	1	0	5	0
22	102	7	10000	5	1	0	5	0
24	103	7	10000	5	1	0	5	0
26	104	7	10000	5	1	0	5	0
25	105	7	10000	5	1	0	5	0
24	106	7	10000	5	1	0	5	0
24	107	7	10000	5	1	0	5	0
24	108	7	10000	5	1	0	5	0
24	109	7	10000	5	1	0	5	0
26	110	7	10000	5	1	0	5	0
25	111	7	10000	5	1	0	5	0
24	112	7	10000	5	1	0	5	0
22	113	7	10000	5	1	0	5	0
22	114	7	10000	5	1	0	5	0
23	115	7	10000	5	1	0	5	0
24	116	7	10000	5	1	0	5	0
23	117	7	10000	5	1	0	5	0
23	118	7	10000	5	1	0	5	0
24	119	7	10000	5	1	0	5	0
23	120	7	10000	5	1	0	5	0
24	121	7	10000	5	1	0	5	0
24	122	7	10000	5	1	0	5	0
25	123	7	10000	5	1	0	5	0
26	124	7	10000	5	1	0	5	0
24	125	7	10000	5	1	0	5	0
23	126	7	10000	5	1	0	5	0
23	127	7	10000	5	1	0	5	0
22	128	7	10000	5	1	0	5	0
21	129	7	10000	5	1	0	5	0
22	130	7	10000	5	1	0	5	0
21	131	7	10000	5	1	0	5	0
21	132	7	10000	5	1	0	5	0
20	133	7	10000	5	1	0	5	0
23	134	7	10000	5	1	0	5	0
25	135	7	10000	5	1	0	5	0
25	136	7	10000	5	1	0	5	0
25	137	7	10000	5	1	0	5	0
27	138	7	10000	5	1	0	5	0
32	139	7	10000	5	1	0	5	0
37	140	7	10000	5	1	0	5	0
37	141	7	10000	5	1	0	5	0
37	142	7	10000	5	1	0	5	0
39	143	7	10000	5	1	0	5	0
39	144	7	10000	5	1	0	5	0
38	145	7	10000	5	1	0	5	0
35	146	7	10000	5	1	0	5	0
35	147	7	10000	5	1	0	5	0
34	148	7	10000	5	1	0	5	0
33	149	7	10000	5	1	0	5	0
34	150	7	10000	5	1	0	5	0
32	151	7	10000	5	1	0	5	0
32	152	7	10000	5	1	0	5	0
31	153	7	10000	5	1	0	5	0
29	154	7	10000	5	1	0	5	0
29	155	7	10000	5	1	0	5	0
29	156	7	10000	5	1	0	5	0
29	157	7	10000	5	1	0	5	0
29	158	7	10000	5	1	0	5	0
29	159	7	10000	5	1	0	5	0
27	160	7	10000	5	1	0	5	0
27	161	7	10000	5	1	0	5	0
26	162	7	10000	5	1	0	5	0
27	163	7	10000	5	1	0	5	0
26	164	7	10000	5	1	0	5	0
25	165	7	10000	5	1	0	5	0
25	166	7	10000	5	1	0	5	0
24	167	7	10000	5	1	0	5	0
24	168	7	10000	5	1	0	5	0
23	169	7	10000	5	1	0	5	0
23	170	7	10000	5	1	0	5	0
23	171	7	10000	5	1	0	5	0
23	172	7	10000	5	1	0	5	0
20	173	7	10000	5	1	0	5	0
21	174	7	10000	5	1	0	5	0
23	175	7	10000	5	1	0	5	0
22	176	7	10000	5	1	0	5	0
22	177	7	10000	5	1	0	5	0
21	178	7	10000	5	1	0	5	0
21	179	7	10000	5	1	0	5	0
21	180	7	10000	5	1	0	5	0
20	181	7	10000	5	1	0	5	0
19	182	7	10000	5	1	0	5	0
20	183	7	10000	5	1	0	5	0
20	184	7	10000	5	1	0	5	0
20	185	7	10000	5	1	0	5	0
19	186	7	10000	5	1	0	5	0
19	187	7	10000	5	1	0	5	0
18	188	7	10000	5	1	0	5	0
17	189	7	10000	5	1	0	5	0
18	190	7	10000	5	1	0	5	0
18	191	7	10000	5	1	0	5	0
19	192	7	10000	5	1	0	5	0
17	193	7	10000	5	1	0	5	0
18	194	7	10000	5	1	0	5	0
19	195	7	10000	5	1	0	5	0
19	196	7	10000	5	1	0	5	0
19	197	7	10000	5	1	0	5	0
19	198	7	10000	5	1	0	5	0
19	199	7	10000	5	1	0	5	0
19	200	7	10000	5	1	0	5	0
17	201	7	10000	5	1	0	5	0
16	202	7	10000	5	1	0	5	0
19	203	7	10000	5	1	0	5	0
20	204	7	10000	5	1	0	5	0
19	205	7	10000	5	1	0	5	0
19	206	7	10000	5	1	0	5	0
19	207	7	10000	5	1	0	5	0
19	208	7	10000	5	1	0	5	0
20	209	7	10000	5	1	0	5	0
20	210	7	10000	5	1	0	5	0
20	211	7	10000	5	1	0	5	0
20	212	7	10000	5	1	0	5	0
17	213	7	10000	5	1	0	5	0
17	214	7	10000	5	1	0	5	0
18	215	7	10000	5	1	0	5	0
17	216	7	10000	5	1	0	5	0
16	217	7	10000	5	1	0	5	0
17	218	7	10000	5	1	0	5	0
18	219	7	10000	5	1	0	5	0
18	220	7	10000	5	1	0	5	0
17	221	7	10000	5	1	0	5	0
17	222	7	10000	5	1	0	5	0
18	223	7	10000	5	1	0	5	0
18	224	7	10000	5	1	0	5	0
17	225	7	10000	5	1	0	5	0
17	226	7	10000	5	1	0	5	0
19	227	7	10000	5	1	0	5	0
18	228	7	10000	5	1	0	5	0
17	229	7	10000	5	1	0	5	0
18	230	7	10000	5	1	0	5	0
17	231	7	10000	5	1	0	5	0
17	232	7	10000	5	1	0	5	0
15	233	7	10000	5	1	0	5	0
15	234	7	10000	5	1	0	5	0
16	235	7	10000	5	1	0	5	0
17	236	7	10000	5	1	0	5	0
16	237	7	10000	5	1	0	5	0
17	238	7	10000	5	1	0	5	0
18	239	7	10000	5	1	0	5	0
18	240	7	10000	5	1	0	5	0
17	241	7	10000	5	1	0	5	0
15	242	7	10000	5	1	0	5	0
18	243	7	10000	5	1	0	5	0
18	244	7	10000	5	1	0	5	0
17	245	7	10000	5	1	0	5	0
16	246	7	10000	5	1	0	5	0
16	247	7	10000	5	1	0	5	0
16	248	7	10000	5	1	0	5	0
16	249	7	10000	5	1	0	5	0
20	250	7	10000	5	1	0	5	0
21	251	7	10000	5	1	0	5	0
21	252	7	10000	5	1	0	5	0
19	253	7	10000	5	1	0	5	0
19	254	7	10000	5	1	0	5	0
19	255	7	10000	5	1	0	5	0
20	256	7	10000	5	1	0	5	0
19	257	7	10000	5	1	0	5	0
20	258	7	10000	5	1	0	5	0
19	259	7	10000	5	1	0	5	0
18	260	7	10000	5	1	0	5	0
19	261	7	10000	5	1	0	5	0
19	262	7	10000	5	1	0	5	0
21	263	7	10000	5	1	0	5	0
21	264	7	10000	5	1	0	5	0
19	265	7	10000	5	1	0	5	0
19	266	7	10000	5	1	0	5	0
19	267	7	10000	5	1	0	5	0
18	268	7	10000	5	1	0	5	0
17	269	7	10000	5	1	0	5	0
18	270	7	10000	5	1	0	5	0
18	271	7	10000	5	1	0	5	0
19	272	7	10000	5	1	0	5	0
18	273	7	10000	5	1	0	5	0
17	274	7	10000	5	1	0	5	0
18	275	7	10000	5	1	0	5	0
18	276	7	10000	5	1	0	5	0
18	277	7	10000	5	1	0	5	0
19	278	7	10000	5	1	0	5	0
21	279	7	10000	5	1	0	5	0
20	280	7	10000	5	1	0	5	0
20	281	7	10000	5	1	0	5	0
19	282	7	10000	5	1	0	5	0
20	283	7	10000	5	1	0	5	0
20	284	7	10000	5	1	0	5	0
19	285	7	10000	5	1	0	5	0
19	286	7	10000	5	1	0	5	0
19	287	7	10000	5	1	0	5	0
18	288	7	10000	5	1	0	5	0
17	289	7	10000	5	1	0	5	0
17	290	7	10000	5	1	0	5	0
16	291	7	10000	5	1	0	5	0
16	292	7	10000	5	1	0	5	0
14	293	7	10000	5	1	0	5	0
15	294	7	10000	5	1	0	5	0
15	295	7	10000	5	1	0	5	0
15	296	7	10000	5	1	0	5	0
16	297	7	10000	5	1	0	5	0
16	298	7	10000	5	1	0	5	0
16	299	7	10000	5	1	0	5	0
14	300	7	10000	5	1	0	5	0
14	301	7	10000	5	1	0	5	0
14	302	7	10000	5	1	0	5	0
15	303	7	10000	5	1	0	5	0
16	304	7	10000	5	1	0	5	0
15	305	7	10000	5	1	0	5	0
15	306	7	10000	5	1	0	5	0
15	307	7	10000	5	1	0	5	0
14	308	7	10000	5	1	0	5	0
13	309	7	10000	5	1	0	5	0
15	310	7	10000	5	1	0	5	0
16	311	7	10000	5	1	0	5	0
16	312	7	10000	5	1	0	5	0
13	313	7	10000	5	1	0	5	0
13	314	7	10000	5	1	0	5	0
12	315	7	10000	5	1	0	5	0
13	316	7	10000	5	1	0	5	0
12	317	7	10000	5	1	0	5	0
12	318	7	10000	5	1	0	5	0
13	319	7	10000	5	1	0	5	0
14	320	7	10000	5	1	0	5	0
13	321	7	10000	5	1	0	5	0
12	322	7	10000	5	1	0	5	0
15	323	7	10000	5	1	0	5	0
15	324	7	10000	5	1	0	5	0
16	325	7	10000	5	1	0	5	0
16	326	7	10000	5	1	0	5	0
16	327	7	10000	5	1	0	5	0
16	328	7	10000	5	1	0	5	0
16	329	7	10000	5	1	0	5	0
18	330	7	10000	5	1	0	5	0
18	331	7	10000	5	1	0	5	0
20	332	7	10000	5	1	0	5	0
17	333	7	10000	5	1	0	5	0
17	334	7	10000	5	1	0	5	0
17	335	7	10000	5	1	0	5	0
17	336	7	10000	5	1	0	5	0
17	337	7	10000	5	1	0	5	0
17	338	7	10000	5	1	0	5	0
19	339	7	10000	5	1	0	5	0
20	340	7	10000	5	1	0	5	0
19	341	7	10000	5	1	0	5	0
18	342	7	10000	5	1	0	5	0
20	343	7	10000	5	1	0	5	0
20	344	7	10000	5	1	0	5	0
21	345	7	10000	5	1	0	5	0
21	346	7	10000	5	1	0	5	0
21	347	7	10000	5	1	0	5	0
21	348	7	10000	5	1	0	5	0
22	349	7	10000	5	1	0	5	0
23	350	7	10000	5	1	0	5	0
23	351	7	10000	5	1	0	5	0
24	352	7	10000	5	1	0	5	0
23	353	7	10000	5	1	0	5	0
22	354	7	10000	5	1	0	5	0
21	355	7	10000	5	1	0	5	0
23	356	7	10000	5	1	0	5	0
25	357	7	10000	5	1	0	5	0
25	358	7	10000	5	1	0	5	0
25	359	7	10000	5	1	0	5	0
23	360	7	10000	5	1	0	5	0
22	361	7	10000	5	1	0	5	0
21	362	7	10000	5	1	0	5	0
23	363	7	10000	5	1	0	5	0
22	364	7	10000	5	1	0	5	0
21	365	7	10000	5	1	0	5	0
21	366	7	10000	5	1	0	5	0
21	367	7	10000	5	1	0	5	0
20	368	7	10000	5	1	0	5	0
21	369	7	10000	5	1	0	5	0
21	370	7	10000	5	1	0	5	0
20	371	7	10000	5	1	0	5	0
21	372	7	10000	5	1	0	5	0
18	373	7	10000	5	1	0	5	0
18	374	7	10000	5	1	0	5	0
19	375	7	10000	5	1	0	5	0
19	376	7	10000	5	1	0	5	0
20	377	7	10000	5	1	0	5	0
20	378	7	10000	5	1	0	5	0
20	379	7	10000	5	1	0	5	0
19	380	7	10000	5	1	0	5	0
19	381	7	10000	5	1	0	5	0
18	382	7	10000	5	1	0	5	0
19	383	7	10000	5	1	0	5	0
20	384	7	10000	5	1	0	5	0
19	385	7	10000	5	1	0	5	0
19	386	7	10000	5	1	0	5	0
19	387	7	10000	5	1	0	5	0
20	388	7	10000	5	1	0	5	0
21	389	7	10000	5	1	0	5	0
22	390	7	10000	5	1	0	5	0
21	391	7	10000	5	1	0	5	0
21	392	7	10000	5	1	0	5	0
19	393	7	10000	5	1	0	5	0
18	394	7	10000	5	1	0	5	0
19	395	7	10000	5	1	0	5	0
19	396	7	10000	5	1	0	5	0
18	397	7	10000	5	1	0	5	0
18	398	7	10000	5	1	0	5	0
18	399	7	10000	5	1	0	5	0
18	400	7	10000	5	1	0	5	0
19	401	7	10000	5	1	0	5	0
19	402	7	10000	5	1	0	5	0
22	403	7	10000	5	1	0	5	0
22	404	7	10000	5	1	0	5	0
21	405	7	10000	5	1	0	5	0
20	406	7	10000	5	1	0	5	0
21	407	7	10000	5	1	0	5	0
20	408	7	10000	5	1	0	5	0
19	409	7	10000	5	1	0	5	0
20	410	7	10000	5	1	0	5	0
20	411	7	10000	5	1	0	5	0
21	412	7	10000	5	1	0	5	0
20	413	7	10000	5	1	0	5	0
20	414	7	10000	5	1	0	5	0
20	415	7	10000	5	1	0	5	0
22	416	7	10000	5	1	0	5	0
21	417	7	10000	5	1	0	5	0
22	418	7	10000	5	1	0	5	0
21	419	7	10000	5	1	0	5	0
21	420	7	10000	5	1	0	5	0
22	421	7	10000	5	1	0	5	0
21	422	7	10000	5	1	0	5	0
22	423	7	10000	5	1	0	5	0
22	424	7	10000	5	1	0	5	0
22	425	7	10000	5	1	0	5	0
22	426	7	10000	5	1	0	5	0
22	427	7	10000	5	1	0	5	0
22	428	7	10000	5	1	0	5	0
22	429	7	10000	5	1	0	5	0
23	430	7	10000	5	1	0	5	0
21	431	7	10000	5	1	0	5	0
22	432	7	10000	5	1	0	5	0
21	433	7	10000	5	1	0	5	0
22	434	7	10000	5	1	0	5	0
24	435	7	10000	5	1	0	5	0
25	436	7	10000	5	1	0	5	0
29	437	7	10000	5	1	0	5	0
30	438	7	10000	5	1	0	5	0
30	439	7	10000	5	1	0	5	0
31	440	7	10000	5	1	0	5	0
32	441	7	10000	5	1	0	5	0
32	442	7	10000	5	1	0	5	0
34	443	7	10000	5	1	0	5	0
32	444	7	10000	5	1	0	5	0
31	445	7	10000	5	1	0	5	0
30	446	7	10000	5	1	0	5	0
30	447	7	10000	5	1	0	5	0
29	448	7	10000	5	1	0	5	0
28	449	7	10000	5	1	0	5	0
28	450	7	10000	5	1	0	5	0
27	451	7	10000	5	1	0	5	0
27	452	7	10000	5	1	0	5	0
24	453	7	10000	5	1	0	5	0
24	454	7	10000	5	1	0	5	0
24	455	7	10000	5	1	0	5	0
25	456	7	10000	5	1	0	5	0
25	457	7	10000	5	1	0	5	0
24	458	7	10000	5	1	0	5	0
23	459	7	10000	5	1	0	5	0
22	460	7	10000	5	1	0	5	0
21	461	7	10000	5	1	0	5	0
20	462	7	10000	5	1	0	5	0
21	463	7	10000	5	1	0	5	0
20	464	7	10000	5	1	0	5	0
20	465	7	10000	5	1	0	5	0
18	466	7	10000	5	1	0	5	0
18	467	7	10000	5	1	0	5	0
17	468	7	10000	5	1	0	5	0
17	469	7	10000	5	1	0	5	0
20	470	7	10000	5	1	0	5	0
20	471	7	10000	5	1	0	5	0
21	472	7	10000	5	1	0	5	0
19	473	7	10000	5	1	0	5	0
18	474	7	10000	5	1	0	5	0
18	475	7	10000	5	1	0	5	0
19	476	7	10000	5	1	0	5	0
20	477	7	10000	5	1	0	5	0
20	478	7	10000	5	1	0	5	0
19	479	7	10000	5	1	0	5	0
18	480	7	10000	5	1	0	5	0
17	481	7	10000	5	1	0	5	0
18	482	7	10000	5	1	0	5	0
23	483	7	10000	5	1	0	5	0
23	484	7	10000	5	1	0	5	0
23	485	7	10000	5	1	0	5	0
22	486	7	10000	5	1	0	5	0
23	487	7	10000	5	1	0	5	0
21	488	7	10000	5	1	0	5	0
21	489	7	10000	5	1	0	5	0
22	490	7	10000	5	1	0	5	0
22	491	7	10000	5	1	0	5	0
23	492	7	10000	5	1	0	5	1
20	493	7	10000	5	1	0	5	1
20	494	7	10000	5	1	0	5	1
20	495	7	10000	5	1	0	5	1
20	496	7	10000	5	1	0	5	1
20	497	7	10000	5	1	0	5	1
19	498	7	10000	5	1	0	5	1
19	499	7	10000	5	1	0	5	1
18	500	7	10000	5	1	0	5	1
17	501	7	10000	5	1	0	5	1
16	502	7	10000	5	1	0	5	1
17	503	7	10000	5	1	0	5	1
18	504	7	10000	5	1	0	5	1
17	505	7	10000	5	1	0	5	1
17	506	7	10000	5	1	0	5	1
17	507	7	10000	5	1	0	5	1
17	508	7	10000	5	1	0	5	1
16	509	7	10000	5	1	0	5	1
18	510	7	10000	5	1	0	5	1
20	511	7	10000	5	1	0	5	1
22	512	7	10000	5	1	0	5	1
22	513	7	10000	5	1	0	5	1
22	514	7	10000	5	1	0	5	1
23	515	7	10000	5	1	0	5	1
26	516	7	10000	5	1	0	5	1
25	517	7	10000	5	1	0	5	1
24	518	7	10000	5	1	0	5	1
24	519	7	10000	5	1	0	5	1
24	520	7	10000	5	1	0	5	1
23	521	7	10000	5	1	0	5	1
22	522	7	10000	5	1	0	5	1
24	523	7	10000	5	1	0	5	1
24	524	7	10000	5	1	0	5	1
25	525	7	10000	5	1	0	5	1
26	526	7	10000	5	1	0	5	1
27	527	7	10000	5	1	0	5	1
26	528	7	10000	5	1	0	5	1
25	529	7	10000	5	1	0	5	1
27	530	7	10000	5	1	0	5	1
28	531	7	10000	5	1	0	5	1
29	532	7	10000	5	1	0	5	1
28	533	7	10000	5	1	0	5	1
27	534	7	10000	5	1	0	5	1
27	535	7	10000	5	1	0	5	1
27	536	7	10000	5	1	0	5	1
27	537	7	10000	5	1	0	5	1
26	538	7	10000	5	1	0	5	1
26	539	7	10000	5	1	0	5	1
25	540	7	10000	5	1	0	5	1
25	541	7	10000	5	1	0	5	1
23	542	7	10000	5	1	0	5	0
24	543	7	10000	5	1	0	5	0
24	544	7	10000	5	1	0	5	0
25	545	7	10000	5	1	0	5	0
25	546	7	10000	5	1	0	5	0
25	547	7	10000	5	1	0	5	0
25	548	7	10000	5	1	0	5	0
23	549	7	10000	5	1	0	5	0
24	550	7	10000	5	1	0	5	0
23	551	7	10000	5	1	0	5	0
23	552	7	10000	5	1	0	5	0
22	553	7	10000	5	1	0	5	0
23	554	7	10000	5	1	0	5	0
23	555	7	10000	5	1	0	5	0
22	556	7	10000	5	1	0	5	0
21	557	7	10000	5	1	0	5	0
21	558	7	10000	5	1	0	5	0
21	559	7	10000	5	1	0	5	0
20	560	7	10000	5	1	0	5	0
20	561	7	10000	5	1	0	5	0
19	562	7	10000	5	1	0	5	0
23	563	7	10000	5	1	0	5	0
23	564	7	10000	5	1	0	5	0
25	565	7	10000	5	1	0	5	0
26	566	7	10000	5	1	0	5	0
32	567	7	10000	5	1	0	5	0
33	568	7	10000	5	1	0	5	0
33	569	7	10000	5	1	0	5	0
42	570	7	10000	5	1	0	5	0
54	571	7	10000	5	1	0	5	0
62	572	7	10000	5	1	0	5	0
83	573	7	10000	5	1	0	5	0
117	574	7	10000	5	1	0	5	0
123	575	7	10000	5	1	0	5	0
156	576	7	10000	5	1	0	5	0
183	577	7	10000	5	1	0	5	0
195	578	7	10000	5	1	0	5	0
210	579	7	10000	5	1	0	5	0
261	580	7	10000	5	1	0	5	0
314	581	7	10000	5	1	0	5	0
328	582	7	10000	5	1	0	5	0
316	583	7	10000	5	1	0	5	0
305	584	7	10000	5	1	0	5	0
326	585	7	10000	5	1	0	5	0
333	586	7	10000	5	1	0	5	0
365	587	7	10000	5	1	0	5	0
364	588	7	10000	5	1	0	5	0
375	589	7	10000	5	1	0	5	0
399	590	7	10000	5	1	0	5	0
412	591	7	10000	5	1	0	5	0
461	592	7	10000	5	1	0	5	0
520	593	7	10000	5	1	0	5	0
575	594	7	10000	5	1	0	5	0
720	595	7	10000	5	1	0	5	0
741	596	7	10000	5	1	0	5	0
777	597	7	10000	5	1	0	5	0
878	598	7	10000	5	1	0	5	0
888	599	7	10000	5	1	0	5	0
950	600	7	10000	5	1	0	5	0
943	601	7	10000	5	1	0	5	0
957	602	7	10000	5	1	0	5	0
954	603	7	10000	5	1	0	5	0
937	604	7	10000	5	1	0	5	0
908	605	7	10000	5	1	0	5	0
925	606	7	10000	5	1	0	5	0
949	607	7	10000	5	1	0	5	0
939	608	7	10000	5	1	0	5	0
899	609	7	10000	5	1	0	5	0
866	610	7	10000	5	1	0	5	0
846	611	7	10000	5	1	0	5	0
846	612	7	10000	5	1	0	5	0
864	613	7	10000	5	1	0	5	0
889	614	7	10000	5	1	0	5	0
897	615	7	10000	5	1	0	5	0
885	616	7	10000	5	1	0	5	0
860	617	7	10000	5	1	0	5	0
838	618	7	10000	5	1	0	5	0
858	619	7	10000	5	1	0	5	0
867	620	7	10000	5	1	0	5	0
845	621	7	10000	5	1	0	5	0
838	622	7	10000	5	1	0	5	0
830	623	7	10000	5	1	0	5	0
829	624	7	10000	5	1	0	5	0
837	625	7	10000	5	1	0	5	0
848	626	7	10000	5	1	0	5	0
863	627	7	10000	5	1	0	5	0
875	628	7	10000	5	1	0	5	0
883	629	7	10000	5	1	0	5	0
880	630	7	10000	5	1	0	5	0
870	631	7	10000	5	1	0	5	0
851	632	7	10000	5	1	0	5	0
841	633	7	10000	5	1	0	5	0
839	634	7	10000	5	1	0	5	0
807	635	7	10000	5	1	0	5	0
773	636	7	10000	5	1	0	5	0
742	637	7	10000	5	1	0	5	0
721	638	7	10000	5	1	0	5	0
690	639	7	10000	5	1	0	5	0
676	640	7	10000	5	1	0	5	0
702	641	7	10000	5	1	0	5	0
697	642	7	10000	5	1	0	5	0
687	643	7	10000	5	1	0	5	0
699	644	7	10000	5	1	0	5	0
718	645	7	10000	5	1	0	5	0
702	646	7	10000	5	1	0	5	0
691	647	7	10000	5	1	0	5	0
697	648	7	10000	5	1	0	5	0
698	649	7	10000	5	1	0	5	0
691	650	7	10000	5	1	0	5	0
689	651	7	10000	5	1	0	5	0
687	652	7	10000	5	1	0	5	0
685	653	7	10000	5	1	0	5	0
686	654	7	10000	5	1	0	5	0
687	655	7	10000	5	1	0	5	0
707	656	7	10000	5	1	0	5	0
738	657	7	10000	5	1	0	5	0
762	658	7	10000	5	1	0	5	0
772	659	7	10000	5	1	0	5	0
772	660	7	10000	5	1	0	5	0
785	661	7	10000	5	1	0	5	0
801	662	7	10000	5	1	0	5	0
800	663	7	10000	5	1	0	5	0
789	664	7	10000	5	1	0	5	0
787	665	7	10000	5	1	0	5	0
782	666	7	10000	5	1	0	5	0
791	667	7	10000	5	1	0	5	0
795	668	7	10000	5	1	0	5	0
792	669	7	10000	5	1	0	5	0
794	670	7	10000	5	1	0	5	0
805	671	7	10000	5	1	0	5	0
815	672	7	10000	5	1	0	5	0
816	673	7	10000	5	1	0	5	0
815	674	7	10000	5	1	0	5	0
819	675	7	10000	5	1	0	5	0
827	676	7	10000	5	1	0	5	0
831	677	7	10000	5	1	0	5	0
819	678	7	10000	5	1	0	5	0
807	679	7	10000	5	1	0	5	0
798	680	7	10000	5	1	0	5	0
788	681	7	10000	5	1	0	5	0
776	682	7	10000	5	1	0	5	0
767	683	7	10000	5	1	0	5	0
756	684	7	10000	5	1	0	5	0
747	685	7	10000	5	1	0	5	0
732	686	7	10000	5	1	0	5	0
714	687	7	10000	5	1	0	5	0
695	688	7	10000	5	1	0	5	0
676	689	7	10000	5	1	0	5	0
659	690	7	10000	5	1	0	5	0
641	691	7	10000	5	1	0	5	0
626	692	7	10000	5	1	0	5	0
605	693	7	10000	5	1	0	5	0
584	694	7	10000	5	1	0	5	0
564	695	7	10000	5	1	0	5	0
547	696	7	10000	5	1	0	5	0
529	697	7	10000	5	1	0	5	0
513	698	7	10000	5	1	0	5	0
498	699	7	10000	5	1	0	5	0
482	700	7	10000	5	1	0	5	0
461	701	7	10000	5	1	0	5	0
441	702	7	10000	5	1	0	5	0
426	703	7	10000	5	1	0	5	0
408	704	7	10000	5	1	0	5	0
393	705	7	10000	5	1	0	5	0
379	706	7	10000	5	1	0	5	0
368	707	7	10000	5	1	0	5	0
357	708	7	10000	5	1	0	5	0
347	709	7	10000	5	1	0	5	0
339	710	7	10000	5	1	0	5	0
330	711	7	10000	5	1	0	5	0
324	712	7	10000	5	1	0	5	0
316	713	7	10000	5	1	0	5	0
309	714	7	10000	5	1	0	5	0
304	715	7	10000	5	1	0	5	0
301	716	7	10000	5	1	0	5	0
296	717	7	10000	5	1	0	5	0
287	718	7	10000	5	1	0	5	0
283	719	7	10000	5	1	0	5	0
286	720	7	10000	5	1	0	5	0
296	721	7	10000	5	1	0	5	0
302	722	7	10000	5	1	0	5	0
308	723	7	10000	5	1	0	5	0
311	724	7	10000	5	1	0	5	0
313	725	7	10000	5	1	0	5	0
314	726	7	10000	5	1	0	5	0
314	727	7	10000	5	1	0	5	0
314	728	7	10000	5	1	0	5	0
317	729	7	10000	5	1	0	5	0
320	730	7	10000	5	1	0	5	0
319	731	7	10000	5	1	0	5	0
320	732	7	10000	5	1	0	5	0
320	733	7	10000	5	1	0	5	0
317	734	7	10000	5	1	0	5	0
309	735	7	10000	5	1	0	5	0
305	736	7	10000	5	1	0	5	0
298	737	7	10000	5	1	0	5	0
291	738	7	10000	5	1	0	5	0
291	739	7	10000	5	1	0	5	0
289	740	7	10000	5	1	0	5	0
292	741	7	10000	5	1	0	5	0
299	742	7	10000	5	1	0	5	0
307	743	7	10000	5	1	0	5	0
312	744	7	10000	5	1	0	5	0
312	745	7	10000	5	1	0	5	0
305	746	7	10000	5	1	0	5	0
303	747	7	10000	5	1	0	5	0
309	748	7	10000	5	1	0	5	0
314	749	7	10000	5	1	0	5	0
314	750	7	10000	5	1	0	5	0
312	751	7	10000	5	1	0	5	0
312	752	7	10000	5	1	0	5	0
309	753	7	10000	5	1	0	5	0
306	754	7	10000	5	1	0	5	0
302	755	7	10000	5	1	0	5	0
299	756	7	10000	5	1	0	5	0
291	757	7	10000	5	1	0	5	0
284	758	7	10000	5	1	0	5	0
280	759	7	10000	5	1	0	5	0
272	760	7	10000	5	1	0	5	0
266	761	7	10000	5	1	0	5	0
261	762	7	10000	5	1	0	5	0
254	763	7	10000	5	1	0	5	0
242	764	7	10000	5	1	0	5	0
237	765	7	10000	5	1	0	5	0
