value	EMG	Stimulus	EMG_sensitivity	Total_Trial_Nr	practise	acq	probe_nr	Startle_Probe
29	2	7	10000	1	1	0	1	0
29	3	7	10000	1	1	0	1	0
28	4	7	10000	1	1	0	1	0
26	5	7	10000	1	1	0	1	0
25	6	7	10000	1	1	0	1	0
24	7	7	10000	1	1	0	1	0
24	8	7	10000	1	1	0	1	0
26	9	7	10000	1	1	0	1	0
26	10	7	10000	1	1	0	1	0
25	11	7	10000	1	1	0	1	0
25	12	7	10000	1	1	0	1	0
26	13	7	10000	1	1	0	1	0
26	14	7	10000	1	1	0	1	0
25	15	7	10000	1	1	0	1	0
26	16	7	10000	1	1	0	1	0
27	17	7	10000	1	1	0	1	0
28	18	7	10000	1	1	0	1	0
27	19	7	10000	1	1	0	1	0
26	20	7	10000	1	1	0	1	0
26	21	7	10000	1	1	0	1	0
26	22	7	10000	1	1	0	1	0
25	23	7	10000	1	1	0	1	0
25	24	7	10000	1	1	0	1	0
25	25	7	10000	1	1	0	1	0
25	26	7	10000	1	1	0	1	0
24	27	7	10000	1	1	0	1	0
23	28	7	10000	1	1	0	1	0
24	29	7	10000	1	1	0	1	0
26	30	7	10000	1	1	0	1	0
26	31	7	10000	1	1	0	1	0
26	32	7	10000	1	1	0	1	0
26	33	7	10000	1	1	0	1	0
25	34	7	10000	1	1	0	1	0
25	35	7	10000	1	1	0	1	0
27	46	7	10000	1	1	0	1	0
28	47	7	10000	1	1	0	1	0
28	48	7	10000	1	1	0	1	0
25	49	7	10000	1	1	0	1	0
24	50	7	10000	1	1	0	1	0
23	51	7	10000	1	1	0	1	0
23	52	7	10000	1	1	0	1	0
23	53	7	10000	1	1	0	1	0
22	54	7	10000	1	1	0	1	0
23	55	7	10000	1	1	0	1	0
22	56	7	10000	1	1	0	1	0
21	57	7	10000	1	1	0	1	0
23	55	7	10000	1	1	0	1	0
24	56	7	10000	1	1	0	1	0
26	57	7	10000	1	1	0	1	0
27	58	7	10000	1	1	0	1	0
27	59	7	10000	1	1	0	1	0
26	60	7	10000	1	1	0	1	0
30	61	7	10000	1	1	0	1	0
30	62	7	10000	1	1	0	1	0
31	66	7	10000	1	1	0	1	0
31	67	7	10000	1	1	0	1	0
33	68	7	10000	1	1	0	1	0
33	69	7	10000	1	1	0	1	0
35	70	7	10000	1	1	0	1	0
35	71	7	10000	1	1	0	1	0
36	72	7	10000	1	1	0	1	0
36	73	7	10000	1	1	0	1	0
35	74	7	10000	1	1	0	1	0
35	75	7	10000	1	1	0	1	0
35	76	7	10000	1	1	0	1	0
34	77	7	10000	1	1	0	1	0
32	71	7	10000	1	1	0	1	0
32	72	7	10000	1	1	0	1	0
33	73	7	10000	1	1	0	1	0
33	74	7	10000	1	1	0	1	0
35	76	7	10000	1	1	0	1	0
36	77	7	10000	1	1	0	1	0
36	78	7	10000	1	1	0	1	0
36	79	7	10000	1	1	0	1	0
36	80	7	10000	1	1	0	1	0
35	81	7	10000	1	1	0	1	0
35	81	7	10000	1	1	0	1	0
32	82	7	10000	1	1	0	1	0
31	83	7	10000	1	1	0	1	0
31	84	7	10000	1	1	0	1	0
32	88	7	10000	1	1	0	1	0
31	89	7	10000	1	1	0	1	0
31	90	7	10000	1	1	0	1	0
31	91	7	10000	1	1	0	1	0
30	92	7	10000	1	1	0	1	0
29	93	7	10000	1	1	0	1	0
28	94	7	10000	1	1	0	1	0
28	95	7	10000	1	1	0	1	0
28	92	7	10000	1	1	0	1	0
27	93	7	10000	1	1	0	1	0
27	94	7	10000	1	1	0	1	0
27	95	7	10000	1	1	0	1	0
27	99	7	10000	1	1	0	1	0
26	100	7	10000	1	1	0	1	0
27	101	7	10000	1	1	0	1	0
27	102	7	10000	1	1	0	1	0
26	103	7	10000	1	1	0	1	0
25	104	7	10000	1	1	0	1	0
23	105	7	10000	1	1	0	1	0
23	106	7	10000	1	1	0	1	0
23	104	7	10000	1	1	0	1	0
22	105	7	10000	1	1	0	1	0
21	106	7	10000	1	1	0	1	0
21	107	7	10000	1	1	0	1	0
21	110	7	10000	1	1	0	1	0
21	111	7	10000	1	1	0	1	0
21	112	7	10000	1	1	0	1	0
22	113	7	10000	1	1	0	1	0
25	114	7	10000	1	1	0	1	0
27	115	7	10000	1	1	0	1	0
27	116	7	10000	1	1	0	1	0
26	117	7	10000	1	1	0	1	0
27	118	7	10000	1	1	0	1	0
27	119	7	10000	1	1	0	1	0
26	120	7	10000	1	1	0	1	0
26	121	7	10000	1	1	0	1	0
26	121	7	10000	1	1	0	1	0
24	122	7	10000	1	1	0	1	0
23	123	7	10000	1	1	0	1	0
22	124	7	10000	1	1	0	1	0
21	122	7	10000	1	1	0	1	0
20	123	7	10000	1	1	0	1	0
20	124	7	10000	1	1	0	1	0
19	125	7	10000	1	1	0	1	0
18	126	7	10000	1	1	0	1	0
19	127	7	10000	1	1	0	1	0
20	128	7	10000	1	1	0	1	0
21	129	7	10000	1	1	0	1	0
23	130	7	10000	1	1	0	1	0
23	131	7	10000	1	1	0	1	0
22	132	7	10000	1	1	0	1	0
23	133	7	10000	1	1	0	1	0
24	134	7	10000	1	1	0	1	0
25	135	7	10000	1	1	0	1	0
25	136	7	10000	1	1	0	1	0
24	137	7	10000	1	1	0	1	0
24	138	7	10000	1	1	0	1	0
21	139	7	10000	1	1	0	1	0
20	140	7	10000	1	1	0	1	0
20	141	7	10000	1	1	0	1	0
20	142	7	10000	1	1	0	1	0
21	143	7	10000	1	1	0	1	0
22	144	7	10000	1	1	0	1	0
22	145	7	10000	1	1	0	1	0
23	146	7	10000	1	1	0	1	0
23	147	7	10000	1	1	0	1	0
21	148	7	10000	1	1	0	1	0
23	149	7	10000	1	1	0	1	0
22	150	7	10000	1	1	0	1	0
21	151	7	10000	1	1	0	1	0
20	152	7	10000	1	1	0	1	0
20	153	7	10000	1	1	0	1	0
20	154	7	10000	1	1	0	1	0
22	155	7	10000	1	1	0	1	0
24	156	7	10000	1	1	0	1	0
25	157	7	10000	1	1	0	1	0
26	158	7	10000	1	1	0	1	0
25	159	7	10000	1	1	0	1	0
24	160	7	10000	1	1	0	1	0
25	161	7	10000	1	1	0	1	0
24	162	7	10000	1	1	0	1	0
24	163	7	10000	1	1	0	1	0
24	164	7	10000	1	1	0	1	0
24	165	7	10000	1	1	0	1	0
23	166	7	10000	1	1	0	1	0
22	167	7	10000	1	1	0	1	0
20	168	7	10000	1	1	0	1	0
21	169	7	10000	1	1	0	1	0
22	170	7	10000	1	1	0	1	0
20	171	7	10000	1	1	0	1	0
20	172	7	10000	1	1	0	1	0
20	173	7	10000	1	1	0	1	0
20	174	7	10000	1	1	0	1	0
20	175	7	10000	1	1	0	1	0
22	176	7	10000	1	1	0	1	0
23	177	7	10000	1	1	0	1	0
26	178	7	10000	1	1	0	1	0
25	179	7	10000	1	1	0	1	0
22	180	7	10000	1	1	0	1	0
23	181	7	10000	1	1	0	1	0
24	182	7	10000	1	1	0	1	0
23	183	7	10000	1	1	0	1	0
22	184	7	10000	1	1	0	1	0
22	185	7	10000	1	1	0	1	0
21	186	7	10000	1	1	0	1	0
21	187	7	10000	1	1	0	1	0
20	188	7	10000	1	1	0	1	0
21	189	7	10000	1	1	0	1	0
22	190	7	10000	1	1	0	1	0
20	191	7	10000	1	1	0	1	0
21	192	7	10000	1	1	0	1	0
20	193	7	10000	1	1	0	1	0
20	194	7	10000	1	1	0	1	0
19	195	7	10000	1	1	0	1	0
20	196	7	10000	1	1	0	1	0
21	197	7	10000	1	1	0	1	0
23	198	7	10000	1	1	0	1	0
21	199	7	10000	1	1	0	1	0
20	200	7	10000	1	1	0	1	0
20	201	7	10000	1	1	0	1	0
21	202	7	10000	1	1	0	1	0
23	203	7	10000	1	1	0	1	0
23	204	7	10000	1	1	0	1	0
24	205	7	10000	1	1	0	1	0
23	206	7	10000	1	1	0	1	0
22	207	7	10000	1	1	0	1	0
21	208	7	10000	1	1	0	1	0
21	209	7	10000	1	1	0	1	0
22	210	7	10000	1	1	0	1	0
23	211	7	10000	1	1	0	1	0
25	212	7	10000	1	1	0	1	0
25	213	7	10000	1	1	0	1	0
25	214	7	10000	1	1	0	1	0
24	215	7	10000	1	1	0	1	0
23	216	7	10000	1	1	0	1	0
23	217	7	10000	1	1	0	1	0
22	218	7	10000	1	1	0	1	0
21	219	7	10000	1	1	0	1	0
20	220	7	10000	1	1	0	1	0
20	221	7	10000	1	1	0	1	0
20	222	7	10000	1	1	0	1	0
19	223	7	10000	1	1	0	1	0
19	224	7	10000	1	1	0	1	0
20	225	7	10000	1	1	0	1	0
20	226	7	10000	1	1	0	1	0
20	227	7	10000	1	1	0	1	0
22	228	7	10000	1	1	0	1	0
26	229	7	10000	1	1	0	1	0
28	230	7	10000	1	1	0	1	0
27	231	7	10000	1	1	0	1	0
28	232	7	10000	1	1	0	1	0
28	233	7	10000	1	1	0	1	0
30	234	7	10000	1	1	0	1	0
31	235	7	10000	1	1	0	1	0
31	236	7	10000	1	1	0	1	0
29	237	7	10000	1	1	0	1	0
29	238	7	10000	1	1	0	1	0
28	239	7	10000	1	1	0	1	0
25	240	7	10000	1	1	0	1	0
25	241	7	10000	1	1	0	1	0
25	242	7	10000	1	1	0	1	0
24	243	7	10000	1	1	0	1	0
23	244	7	10000	1	1	0	1	0
23	245	7	10000	1	1	0	1	0
21	246	7	10000	1	1	0	1	0
21	247	7	10000	1	1	0	1	0
21	248	7	10000	1	1	0	1	0
24	249	7	10000	1	1	0	1	0
27	250	7	10000	1	1	0	1	0
27	251	7	10000	1	1	0	1	0
26	252	7	10000	1	1	0	1	0
25	253	7	10000	1	1	0	1	0
26	254	7	10000	1	1	0	1	0
26	255	7	10000	1	1	0	1	0
27	256	7	10000	1	1	0	1	0
25	257	7	10000	1	1	0	1	0
25	258	7	10000	1	1	0	1	0
23	259	7	10000	1	1	0	1	0
22	260	7	10000	1	1	0	1	0
22	261	7	10000	1	1	0	1	0
24	262	7	10000	1	1	0	1	0
24	263	7	10000	1	1	0	1	0
23	264	7	10000	1	1	0	1	0
23	265	7	10000	1	1	0	1	0
23	266	7	10000	1	1	0	1	0
22	267	7	10000	1	1	0	1	0
22	268	7	10000	1	1	0	1	0
22	269	7	10000	1	1	0	1	0
23	270	7	10000	1	1	0	1	0
24	271	7	10000	1	1	0	1	0
25	272	7	10000	1	1	0	1	0
28	273	7	10000	1	1	0	1	0
28	274	7	10000	1	1	0	1	0
27	275	7	10000	1	1	0	1	0
26	276	7	10000	1	1	0	1	0
27	277	7	10000	1	1	0	1	0
27	278	7	10000	1	1	0	1	0
26	279	7	10000	1	1	0	1	0
26	280	7	10000	1	1	0	1	0
25	281	7	10000	1	1	0	1	0
24	282	7	10000	1	1	0	1	0
24	283	7	10000	1	1	0	1	0
25	284	7	10000	1	1	0	1	0
26	285	7	10000	1	1	0	1	0
27	286	7	10000	1	1	0	1	0
26	287	7	10000	1	1	0	1	0
25	288	7	10000	1	1	0	1	0
26	289	7	10000	1	1	0	1	0
28	290	7	10000	1	1	0	1	0
29	291	7	10000	1	1	0	1	0
30	292	7	10000	1	1	0	1	0
29	293	7	10000	1	1	0	1	0
29	294	7	10000	1	1	0	1	0
28	295	7	10000	1	1	0	1	0
27	296	7	10000	1	1	0	1	0
26	297	7	10000	1	1	0	1	0
27	298	7	10000	1	1	0	1	0
27	299	7	10000	1	1	0	1	0
26	300	7	10000	1	1	0	1	0
25	301	7	10000	1	1	0	1	0
25	302	7	10000	1	1	0	1	0
24	303	7	10000	1	1	0	1	0
23	304	7	10000	1	1	0	1	0
23	305	7	10000	1	1	0	1	0
23	306	7	10000	1	1	0	1	0
24	307	7	10000	1	1	0	1	0
23	308	7	10000	1	1	0	1	0
23	309	7	10000	1	1	0	1	0
24	310	7	10000	1	1	0	1	0
24	311	7	10000	1	1	0	1	0
24	312	7	10000	1	1	0	1	0
22	313	7	10000	1	1	0	1	0
22	314	7	10000	1	1	0	1	0
21	315	7	10000	1	1	0	1	0
22	316	7	10000	1	1	0	1	0
24	317	7	10000	1	1	0	1	0
26	318	7	10000	1	1	0	1	0
25	319	7	10000	1	1	0	1	0
23	320	7	10000	1	1	0	1	0
25	321	7	10000	1	1	0	1	0
26	322	7	10000	1	1	0	1	0
26	323	7	10000	1	1	0	1	0
25	324	7	10000	1	1	0	1	0
25	325	7	10000	1	1	0	1	0
24	326	7	10000	1	1	0	1	0
23	327	7	10000	1	1	0	1	0
22	328	7	10000	1	1	0	1	0
22	329	7	10000	1	1	0	1	0
23	330	7	10000	1	1	0	1	0
23	331	7	10000	1	1	0	1	0
24	332	7	10000	1	1	0	1	0
23	333	7	10000	1	1	0	1	0
22	334	7	10000	1	1	0	1	0
21	335	7	10000	1	1	0	1	0
22	336	7	10000	1	1	0	1	0
23	337	7	10000	1	1	0	1	0
23	338	7	10000	1	1	0	1	0
21	339	7	10000	1	1	0	1	0
20	340	7	10000	1	1	0	1	0
20	341	7	10000	1	1	0	1	0
21	342	7	10000	1	1	0	1	0
20	343	7	10000	1	1	0	1	0
21	344	7	10000	1	1	0	1	0
20	345	7	10000	1	1	0	1	0
21	346	7	10000	1	1	0	1	0
21	347	7	10000	1	1	0	1	0
20	348	7	10000	1	1	0	1	0
21	349	7	10000	1	1	0	1	0
22	350	7	10000	1	1	0	1	0
21	351	7	10000	1	1	0	1	0
20	352	7	10000	1	1	0	1	0
20	353	7	10000	1	1	0	1	0
20	354	7	10000	1	1	0	1	0
19	355	7	10000	1	1	0	1	0
18	356	7	10000	1	1	0	1	0
20	357	7	10000	1	1	0	1	0
21	358	7	10000	1	1	0	1	0
20	359	7	10000	1	1	0	1	0
20	360	7	10000	1	1	0	1	0
20	361	7	10000	1	1	0	1	0
20	362	7	10000	1	1	0	1	0
20	363	7	10000	1	1	0	1	0
19	364	7	10000	1	1	0	1	0
19	365	7	10000	1	1	0	1	0
20	366	7	10000	1	1	0	1	0
20	367	7	10000	1	1	0	1	0
19	368	7	10000	1	1	0	1	0
20	369	7	10000	1	1	0	1	0
21	370	7	10000	1	1	0	1	0
21	371	7	10000	1	1	0	1	0
20	372	7	10000	1	1	0	1	0
19	373	7	10000	1	1	0	1	0
20	374	7	10000	1	1	0	1	0
23	375	7	10000	1	1	0	1	0
25	376	7	10000	1	1	0	1	0
25	377	7	10000	1	1	0	1	0
27	378	7	10000	1	1	0	1	0
26	379	7	10000	1	1	0	1	0
24	380	7	10000	1	1	0	1	0
25	381	7	10000	1	1	0	1	0
25	382	7	10000	1	1	0	1	0
25	383	7	10000	1	1	0	1	0
26	384	7	10000	1	1	0	1	0
25	385	7	10000	1	1	0	1	0
26	386	7	10000	1	1	0	1	0
26	387	7	10000	1	1	0	1	0
24	388	7	10000	1	1	0	1	0
26	389	7	10000	1	1	0	1	0
29	390	7	10000	1	1	0	1	0
29	391	7	10000	1	1	0	1	0
31	392	7	10000	1	1	0	1	0
31	393	7	10000	1	1	0	1	0
30	394	7	10000	1	1	0	1	0
31	395	7	10000	1	1	0	1	0
32	396	7	10000	1	1	0	1	0
31	397	7	10000	1	1	0	1	0
31	398	7	10000	1	1	0	1	0
29	399	7	10000	1	1	0	1	0
27	400	7	10000	1	1	0	1	0
27	401	7	10000	1	1	0	1	0
26	402	7	10000	1	1	0	1	0
25	403	7	10000	1	1	0	1	0
25	404	7	10000	1	1	0	1	0
25	405	7	10000	1	1	0	1	0
27	406	7	10000	1	1	0	1	0
29	407	7	10000	1	1	0	1	0
31	408	7	10000	1	1	0	1	0
32	409	7	10000	1	1	0	1	0
32	410	7	10000	1	1	0	1	0
32	411	7	10000	1	1	0	1	0
33	412	7	10000	1	1	0	1	0
34	413	7	10000	1	1	0	1	0
34	414	7	10000	1	1	0	1	0
32	415	7	10000	1	1	0	1	0
31	416	7	10000	1	1	0	1	0
32	417	7	10000	1	1	0	1	0
31	418	7	10000	1	1	0	1	0
29	419	7	10000	1	1	0	1	0
27	420	7	10000	1	1	0	1	0
27	421	7	10000	1	1	0	1	0
27	422	7	10000	1	1	0	1	0
29	423	7	10000	1	1	0	1	0
31	424	7	10000	1	1	0	1	0
32	425	7	10000	1	1	0	1	0
32	426	7	10000	1	1	0	1	0
31	427	7	10000	1	1	0	1	0
29	428	7	10000	1	1	0	1	0
29	429	7	10000	1	1	0	1	0
30	430	7	10000	1	1	0	1	0
28	431	7	10000	1	1	0	1	0
27	432	7	10000	1	1	0	1	0
27	433	7	10000	1	1	0	1	0
27	434	7	10000	1	1	0	1	0
28	435	7	10000	1	1	0	1	0
30	436	7	10000	1	1	0	1	0
32	437	7	10000	1	1	0	1	0
36	438	7	10000	1	1	0	1	0
40	439	7	10000	1	1	0	1	0
42	440	7	10000	1	1	0	1	0
48	441	7	10000	1	1	0	1	0
52	442	7	10000	1	1	0	1	0
57	443	7	10000	1	1	0	1	0
62	444	7	10000	1	1	0	1	0
68	445	7	10000	1	1	0	1	0
74	446	7	10000	1	1	0	1	0
79	447	7	10000	1	1	0	1	0
85	448	7	10000	1	1	0	1	0
90	449	7	10000	1	1	0	1	0
93	450	7	10000	1	1	0	1	0
95	451	7	10000	1	1	0	1	0
98	452	7	10000	1	1	0	1	0
102	453	7	10000	1	1	0	1	0
105	454	7	10000	1	1	0	1	0
107	455	7	10000	1	1	0	1	0
110	456	7	10000	1	1	0	1	0
111	457	7	10000	1	1	0	1	0
112	458	7	10000	1	1	0	1	0
111	459	7	10000	1	1	0	1	0
110	460	7	10000	1	1	0	1	0
110	461	7	10000	1	1	0	1	0
110	462	7	10000	1	1	0	1	0
111	463	7	10000	1	1	0	1	0
108	464	7	10000	1	1	0	1	0
105	465	7	10000	1	1	0	1	0
104	466	7	10000	1	1	0	1	0
103	467	7	10000	1	1	0	1	0
101	468	7	10000	1	1	0	1	0
98	469	7	10000	1	1	0	1	0
95	470	7	10000	1	1	0	1	0
91	471	7	10000	1	1	0	1	0
87	472	7	10000	1	1	0	1	0
85	473	7	10000	1	1	0	1	0
85	474	7	10000	1	1	0	1	0
85	475	7	10000	1	1	0	1	0
87	476	7	10000	1	1	0	1	0
90	477	7	10000	1	1	0	1	0
94	478	7	10000	1	1	0	1	0
97	479	7	10000	1	1	0	1	0
99	480	7	10000	1	1	0	1	0
102	481	7	10000	1	1	0	1	0
105	482	7	10000	1	1	0	1	0
107	483	7	10000	1	1	0	1	0
109	484	7	10000	1	1	0	1	0
112	485	7	10000	1	1	0	1	0
112	486	7	10000	1	1	0	1	0
113	487	7	10000	1	1	0	1	0
115	488	7	10000	1	1	0	1	0
118	489	7	10000	1	1	0	1	0
123	490	7	10000	1	1	0	1	0
127	491	7	10000	1	1	0	1	0
128	492	7	10000	1	1	0	1	0
130	493	7	10000	1	1	0	1	0
131	494	7	10000	1	1	0	1	0
129	495	7	10000	1	1	0	1	0
127	496	7	10000	1	1	0	1	0
126	497	7	10000	1	1	0	1	0
127	498	7	10000	1	1	0	1	0
131	499	7	10000	1	1	0	1	0
134	500	7	10000	1	1	0	1	0
134	501	7	10000	1	1	0	1	0
133	534	7	10000	1	1	0	1	1
135	535	7	10000	1	1	0	1	1
137	536	7	10000	1	1	0	1	1
138	537	7	10000	1	1	0	1	1
137	538	7	10000	1	1	0	1	1
133	539	7	10000	1	1	0	1	1
132	540	7	10000	1	1	0	1	1
134	541	7	10000	1	1	0	1	1
135	542	7	10000	1	1	0	1	1
132	543	7	10000	1	1	0	1	1
128	544	7	10000	1	1	0	1	1
125	545	7	10000	1	1	0	1	1
122	546	7	10000	1	1	0	1	1
119	547	7	10000	1	1	0	1	1
117	548	7	10000	1	1	0	1	1
114	549	7	10000	1	1	0	1	1
112	550	7	10000	1	1	0	1	1
107	551	7	10000	1	1	0	1	1
102	552	7	10000	1	1	0	1	1
100	553	7	10000	1	1	0	1	1
98	554	7	10000	1	1	0	1	1
96	555	7	10000	1	1	0	1	1
94	556	7	10000	1	1	0	1	1
93	557	7	10000	1	1	0	1	1
91	558	7	10000	1	1	0	1	1
89	559	7	10000	1	1	0	1	1
87	560	7	10000	1	1	0	1	1
86	561	7	10000	1	1	0	1	1
83	562	7	10000	1	1	0	1	1
79	563	7	10000	1	1	0	1	1
76	564	7	10000	1	1	0	1	1
72	565	7	10000	1	1	0	1	1
69	566	7	10000	1	1	0	1	1
66	567	7	10000	1	1	0	1	1
65	537	7	10000	1	1	0	1	1
63	538	7	10000	1	1	0	1	1
61	538	7	10000	1	1	0	1	1
58	539	7	10000	1	1	0	1	1
56	540	7	10000	1	1	0	1	1
56	541	7	10000	1	1	0	1	1
55	542	7	10000	1	1	0	1	1
53	543	7	10000	1	1	0	1	1
52	544	7	10000	1	1	0	1	1
50	545	7	10000	1	1	0	1	1
48	546	7	10000	1	1	0	1	1
47	547	7	10000	1	1	0	1	1
47	548	7	10000	1	1	0	1	1
49	549	7	10000	1	1	0	1	1
51	550	7	10000	1	1	0	1	1
49	551	7	10000	1	1	0	1	1
47	552	7	10000	1	1	0	1	0
45	553	7	10000	1	1	0	1	0
43	554	7	10000	1	1	0	1	0
42	555	7	10000	1	1	0	1	0
40	556	7	10000	1	1	0	1	0
39	557	7	10000	1	1	0	1	0
39	558	7	10000	1	1	0	1	0
38	559	7	10000	1	1	0	1	0
36	560	7	10000	1	1	0	1	0
35	561	7	10000	1	1	0	1	0
34	562	7	10000	1	1	0	1	0
33	563	7	10000	1	1	0	1	0
32	564	7	10000	1	1	0	1	0
31	565	7	10000	1	1	0	1	0
30	566	7	10000	1	1	0	1	0
29	567	7	10000	1	1	0	1	0
28	568	7	10000	1	1	0	1	0
28	569	7	10000	1	1	0	1	0
28	570	7	10000	1	1	0	1	0
27	571	7	10000	1	1	0	1	0
26	572	7	10000	1	1	0	1	0
26	573	7	10000	1	1	0	1	0
27	574	7	10000	1	1	0	1	0
26	575	7	10000	1	1	0	1	0
26	576	7	10000	1	1	0	1	0
25	577	7	10000	1	1	0	1	0
25	578	7	10000	1	1	0	1	0
23	579	7	10000	1	1	0	1	0
21	580	7	10000	1	1	0	1	0
21	581	7	10000	1	1	0	1	0
22	582	7	10000	1	1	0	1	0
23	583	7	10000	1	1	0	1	0
24	584	7	10000	1	1	0	1	0
24	585	7	10000	1	1	0	1	0
25	586	7	10000	1	1	0	1	0
23	587	7	10000	1	1	0	1	0
22	588	7	10000	1	1	0	1	0
23	589	7	10000	1	1	0	1	0
23	590	7	10000	1	1	0	1	0
22	591	7	10000	1	1	0	1	0
24	592	7	10000	1	1	0	1	0
25	593	7	10000	1	1	0	1	0
26	594	7	10000	1	1	0	1	0
28	595	7	10000	1	1	0	1	0
28	596	7	10000	1	1	0	1	0
29	597	7	10000	1	1	0	1	0
30	598	7	10000	1	1	0	1	0
30	599	7	10000	1	1	0	1	0
29	600	7	10000	1	1	0	1	0
30	601	7	10000	1	1	0	1	0
28	602	7	10000	1	1	0	1	0
28	603	7	10000	1	1	0	1	0
27	604	7	10000	1	1	0	1	0
26	605	7	10000	1	1	0	1	0
26	606	7	10000	1	1	0	1	0
25	607	7	10000	1	1	0	1	0
25	608	7	10000	1	1	0	1	0
27	609	7	10000	1	1	0	1	0
29	610	7	10000	1	1	0	1	0
27	611	7	10000	1	1	0	1	0
27	612	7	10000	1	1	0	1	0
26	613	7	10000	1	1	0	1	0
25	614	7	10000	1	1	0	1	0
25	615	7	10000	1	1	0	1	0
24	616	7	10000	1	1	0	1	0
23	617	7	10000	1	1	0	1	0
23	618	7	10000	1	1	0	1	0
23	619	7	10000	1	1	0	1	0
23	620	7	10000	1	1	0	1	0
25	621	7	10000	1	1	0	1	0
26	622	7	10000	1	1	0	1	0
28	623	7	10000	1	1	0	1	0
29	624	7	10000	1	1	0	1	0
33	625	7	10000	1	1	0	1	0
37	626	7	10000	1	1	0	1	0
36	627	7	10000	1	1	0	1	0
37	628	7	10000	1	1	0	1	0
44	629	7	10000	1	1	0	1	0
55	630	7	10000	1	1	0	1	0
62	631	7	10000	1	1	0	1	0
74	632	7	10000	1	1	0	1	0
87	633	7	10000	1	1	0	1	0
94	634	7	10000	1	1	0	1	0
113	635	7	10000	1	1	0	1	0
156	636	7	10000	1	1	0	1	0
171	637	7	10000	1	1	0	1	0
177	638	7	10000	1	1	0	1	0
176	639	7	10000	1	1	0	1	0
179	640	7	10000	1	1	0	1	0
217	641	7	10000	1	1	0	1	0
253	642	7	10000	1	1	0	1	0
266	643	7	10000	1	1	0	1	0
333	644	7	10000	1	1	0	1	0
416	645	7	10000	1	1	0	1	0
454	646	7	10000	1	1	0	1	0
450	647	7	10000	1	1	0	1	0
537	648	7	10000	1	1	0	1	0
649	649	7	10000	1	1	0	1	0
668	650	7	10000	1	1	0	1	0
668	651	7	10000	1	1	0	1	0
694	652	7	10000	1	1	0	1	0
742	653	7	10000	1	1	0	1	0
790	654	7	10000	1	1	0	1	0
777	655	7	10000	1	1	0	1	0
750	656	7	10000	1	1	0	1	0
742	657	7	10000	1	1	0	1	0
882	658	7	10000	1	1	0	1	0
1053	659	7	10000	1	1	0	1	0
1060	660	7	10000	1	1	0	1	0
1084	661	7	10000	1	1	0	1	0
1135	662	7	10000	1	1	0	1	0
1171	663	7	10000	1	1	0	1	0
1169	664	7	10000	1	1	0	1	0
1157	665	7	10000	1	1	0	1	0
1158	666	7	10000	1	1	0	1	0
1157	667	7	10000	1	1	0	1	0
1131	668	7	10000	1	1	0	1	0
1084	669	7	10000	1	1	0	1	0
1045	670	7	10000	1	1	0	1	0
1014	671	7	10000	1	1	0	1	0
987	672	7	10000	1	1	0	1	0
963	673	7	10000	1	1	0	1	0
945	674	7	10000	1	1	0	1	0
930	675	7	10000	1	1	0	1	0
915	676	7	10000	1	1	0	1	0
901	677	7	10000	1	1	0	1	0
891	678	7	10000	1	1	0	1	0
884	679	7	10000	1	1	0	1	0
875	680	7	10000	1	1	0	1	0
870	681	7	10000	1	1	0	1	0
864	682	7	10000	1	1	0	1	0
859	683	7	10000	1	1	0	1	0
851	684	7	10000	1	1	0	1	0
841	685	7	10000	1	1	0	1	0
827	686	7	10000	1	1	0	1	0
813	687	7	10000	1	1	0	1	0
796	688	7	10000	1	1	0	1	0
779	689	7	10000	1	1	0	1	0
761	690	7	10000	1	1	0	1	0
737	691	7	10000	1	1	0	1	0
708	692	7	10000	1	1	0	1	0
677	693	7	10000	1	1	0	1	0
646	694	7	10000	1	1	0	1	0
620	695	7	10000	1	1	0	1	0
600	696	7	10000	1	1	0	1	0
583	697	7	10000	1	1	0	1	0
568	698	7	10000	1	1	0	1	0
557	699	7	10000	1	1	0	1	0
544	700	7	10000	1	1	0	1	0
534	701	7	10000	1	1	0	1	0
524	702	7	10000	1	1	0	1	0
512	703	7	10000	1	1	0	1	0
506	704	7	10000	1	1	0	1	0
504	705	7	10000	1	1	0	1	0
502	706	7	10000	1	1	0	1	0
499	707	7	10000	1	1	0	1	0
498	708	7	10000	1	1	0	1	0
499	709	7	10000	1	1	0	1	0
499	710	7	10000	1	1	0	1	0
497	711	7	10000	1	1	0	1	0
495	712	7	10000	1	1	0	1	0
494	713	7	10000	1	1	0	1	0
496	714	7	10000	1	1	0	1	0
498	715	7	10000	1	1	0	1	0
501	716	7	10000	1	1	0	1	0
503	717	7	10000	1	1	0	1	0
506	718	7	10000	1	1	0	1	0
506	719	7	10000	1	1	0	1	0
503	720	7	10000	1	1	0	1	0
495	721	7	10000	1	1	0	1	0
479	722	7	10000	1	1	0	1	0
460	723	7	10000	1	1	0	1	0
442	724	7	10000	1	1	0	1	0
430	725	7	10000	1	1	0	1	0
418	726	7	10000	1	1	0	1	0
406	727	7	10000	1	1	0	1	0
395	728	7	10000	1	1	0	1	0
386	729	7	10000	1	1	0	1	0
380	730	7	10000	1	1	0	1	0
370	731	7	10000	1	1	0	1	0
359	732	7	10000	1	1	0	1	0
347	733	7	10000	1	1	0	1	0
335	734	7	10000	1	1	0	1	0
325	735	7	10000	1	1	0	1	0
317	736	7	10000	1	1	0	1	0
308	737	7	10000	1	1	0	1	0
299	738	7	10000	1	1	0	1	0
288	739	7	10000	1	1	0	1	0
276	740	7	10000	1	1	0	1	0
267	741	7	10000	1	1	0	1	0
257	742	7	10000	1	1	0	1	0
247	743	7	10000	1	1	0	1	0
236	744	7	10000	1	1	0	1	0
226	745	7	10000	1	1	0	1	0
218	746	7	10000	1	1	0	1	0
210	747	7	10000	1	1	0	1	0
201	748	7	10000	1	1	0	1	0
192	749	7	10000	1	1	0	1	0
187	750	7	10000	1	1	0	1	0
179	751	7	10000	1	1	0	1	0
175	752	7	10000	1	1	0	1	0
172	753	7	10000	1	1	0	1	0
171	754	7	10000	1	1	0	1	0
170	755	7	10000	1	1	0	1	0
169	756	7	10000	1	1	0	1	0
167	757	7	10000	1	1	0	1	0
165	758	7	10000	1	1	0	1	0
160	759	7	10000	1	1	0	1	0
153	760	7	10000	1	1	0	1	0
148	761	7	10000	1	1	0	1	0
143	762	7	10000	1	1	0	1	0
137	763	7	10000	1	1	0	1	0
132	764	7	10000	1	1	0	1	0
128	765	7	10000	1	1	0	1	0
125	766	7	10000	1	1	0	1	0
121	767	7	10000	1	1	0	1	0
118	768	7	10000	1	1	0	1	0
114	769	7	10000	1	1	0	1	0
110	770	7	10000	1	1	0	1	0
105	771	7	10000	1	1	0	1	0
101	772	7	10000	1	1	0	1	0
98	773	7	10000	1	1	0	1	0
95	774	7	10000	1	1	0	1	0
91	775	7	10000	1	1	0	1	0
89	776	7	10000	1	1	0	1	0
89	777	7	10000	1	1	0	1	0
90	778	7	10000	1	1	0	1	0
88	779	7	10000	1	1	0	1	0
83	780	7	10000	1	1	0	1	0
81	781	7	10000	1	1	0	1	0
80	782	7	10000	1	1	0	1	0
78	783	7	10000	1	1	0	1	0
78	784	7	10000	1	1	0	1	0
80	785	7	10000	1	1	0	1	0
82	786	7	10000	1	1	0	1	0
83	787	7	10000	1	1	0	1	0
84	788	7	10000	1	1	0	1	0
82	789	7	10000	1	1	0	1	0
80	790	7	10000	1	1	0	1	0
78	791	7	10000	1	1	0	1	0
74	792	7	10000	1	1	0	1	0
70	793	7	10000	1	1	0	1	0
68	794	7	10000	1	1	0	1	0
65	795	7	10000	1	1	0	1	0
64	796	7	10000	1	1	0	1	0
65	797	7	10000	1	1	0	1	0
64	798	7	10000	1	1	0	1	0
62	799	7	10000	1	1	0	1	0
59	800	7	10000	1	1	0	1	0
56	801	7	10000	1	1	0	1	0
55	802	7	10000	1	1	0	1	0
55	803	7	10000	1	1	0	1	0
56	804	7	10000	1	1	0	1	0
60	805	7	10000	1	1	0	1	0
64	806	7	10000	1	1	0	1	0
65	807	7	10000	1	1	0	1	0
67	808	7	10000	1	1	0	1	0
69	809	7	10000	1	1	0	1	0
70	810	7	10000	1	1	0	1	0
68	811	7	10000	1	1	0	1	0
67	812	7	10000	1	1	0	1	0
63	813	7	10000	1	1	0	1	0
61	814	7	10000	1	1	0	1	0
60	815	7	10000	1	1	0	1	0
60	816	7	10000	1	1	0	1	0
60	817	7	10000	1	1	0	1	0
61	818	7	10000	1	1	0	1	0
58	819	7	10000	1	1	0	1	0
55	820	7	10000	1	1	0	1	0
53	821	7	10000	1	1	0	1	0
53	822	7	10000	1	1	0	1	0
52	823	7	10000	1	1	0	1	0
53	824	7	10000	1	1	0	1	0
53	825	7	10000	1	1	0	1	0
54	826	7	10000	1	1	0	1	0
51	827	7	10000	1	1	0	1	0
49	828	7	10000	1	1	0	1	0
47	829	7	10000	1	1	0	1	0
47	830	7	10000	1	1	0	1	0
44	831	7	10000	1	1	0	1	0
43	832	7	10000	1	1	0	1	0
41	833	7	10000	1	1	0	1	0
39	834	7	10000	1	1	0	1	0
39	835	7	10000	1	1	0	1	0
40	836	7	10000	1	1	0	1	0
40	837	7	10000	1	1	0	1	0
39	838	7	10000	1	1	0	1	0
37	839	7	10000	1	1	0	1	0
34	840	7	10000	1	1	0	1	0
34	841	7	10000	1	1	0	1	0
36	842	7	10000	1	1	0	1	0
35	843	7	10000	1	1	0	1	0
35	844	7	10000	1	1	0	1	0
36	845	7	10000	1	1	0	1	0
38	846	7	10000	1	1	0	1	0
39	847	7	10000	1	1	0	1	0
40	848	7	10000	1	1	0	1	0
40	849	7	10000	1	1	0	1	0
43	850	7	10000	1	1	0	1	0
44	851	7	10000	1	1	0	1	0
42	852	7	10000	1	1	0	1	0
42	853	7	10000	1	1	0	1	0
44	854	7	10000	1	1	0	1	0
45	855	7	10000	1	1	0	1	0
50	856	7	10000	1	1	0	1	0
56	857	7	10000	1	1	0	1	0
59	858	7	10000	1	1	0	1	0
57	859	7	10000	1	1	0	1	0
54	860	7	10000	1	1	0	1	0
54	861	7	10000	1	1	0	1	0
56	862	7	10000	1	1	0	1	0
58	863	7	10000	1	1	0	1	0
60	864	7	10000	1	1	0	1	0
61	865	7	10000	1	1	0	1	0
60	866	7	10000	1	1	0	1	0
60	867	7	10000	1	1	0	1	0
59	868	7	10000	1	1	0	1	0
59	869	7	10000	1	1	0	1	0
61	870	7	10000	1	1	0	1	0
59	871	7	10000	1	1	0	1	0
56	872	7	10000	1	1	0	1	0
54	873	7	10000	1	1	0	1	0
53	874	7	10000	1	1	0	1	0
50	875	7	10000	1	1	0	1	0
49	876	7	10000	1	1	0	1	0
49	877	7	10000	1	1	0	1	0
51	878	7	10000	1	1	0	1	0
51	879	7	10000	1	1	0	1	0
51	880	7	10000	1	1	0	1	0
52	881	7	10000	1	1	0	1	0
51	882	7	10000	1	1	0	1	0
51	883	7	10000	1	1	0	1	0
52	884	7	10000	1	1	0	1	0
54	885	7	10000	1	1	0	1	0
56	886	7	10000	1	1	0	1	0
56	887	7	10000	1	1	0	1	0
57	888	7	10000	1	1	0	1	0
56	889	7	10000	1	1	0	1	0
55	890	7	10000	1	1	0	1	0
53	891	7	10000	1	1	0	1	0
53	892	7	10000	1	1	0	1	0
51	893	7	10000	1	1	0	1	0
49	894	7	10000	1	1	0	1	0
48	895	7	10000	1	1	0	1	0
45	896	7	10000	1	1	0	1	0
43	897	7	10000	1	1	0	1	0
43	898	7	10000	1	1	0	1	0
40	899	7	10000	1	1	0	1	0
37	900	7	10000	1	1	0	1	0
38	901	7	10000	1	1	0	1	0
40	902	7	10000	1	1	0	1	0
42	903	7	10000	1	1	0	1	0
43	904	7	10000	1	1	0	1	0
44	905	7	10000	1	1	0	1	0
44	906	7	10000	1	1	0	1	0
44	907	7	10000	1	1	0	1	0
42	908	7	10000	1	1	0	1	0
42	909	7	10000	1	1	0	1	0
44	910	7	10000	1	1	0	1	0
43	911	7	10000	1	1	0	1	0
41	912	7	10000	1	1	0	1	0
40	913	7	10000	1	1	0	1	0
38	914	7	10000	1	1	0	1	0
39	915	7	10000	1	1	0	1	0
41	916	7	10000	1	1	0	1	0
41	917	7	10000	1	1	0	1	0
42	918	7	10000	1	1	0	1	0
44	919	7	10000	1	1	0	1	0
40	920	7	10000	1	1	0	1	0
39	921	7	10000	1	1	0	1	0
39	922	7	10000	1	1	0	1	0
39	923	7	10000	1	1	0	1	0
38	924	7	10000	1	1	0	1	0
39	925	7	10000	1	1	0	1	0
39	926	7	10000	1	1	0	1	0
40	927	7	10000	1	1	0	1	0
41	928	7	10000	1	1	0	1	0
41	929	7	10000	1	1	0	1	0
41	930	7	10000	1	1	0	1	0
40	931	7	10000	1	1	0	1	0
40	932	7	10000	1	1	0	1	0
38	933	7	10000	1	1	0	1	0
39	934	7	10000	1	1	0	1	0
39	935	7	10000	1	1	0	1	0
37	936	7	10000	1	1	0	1	0
36	937	7	10000	1	1	0	1	0
36	938	7	10000	1	1	0	1	0
34	939	7	10000	1	1	0	1	0
32	940	7	10000	1	1	0	1	0
31	941	7	10000	1	1	0	1	0
31	942	7	10000	1	1	0	1	0
32	943	7	10000	1	1	0	1	0
32	944	7	10000	1	1	0	1	0
32	945	7	10000	1	1	0	1	0
32	946	7	10000	1	1	0	1	0
31	947	7	10000	1	1	0	1	0
30	948	7	10000	1	1	0	1	0
29	949	7	10000	1	1	0	1	0
31	950	7	10000	1	1	0	1	0
29	951	7	10000	1	1	0	1	0
29	952	7	10000	1	1	0	1	0
27	953	7	10000	1	1	0	1	0
27	954	7	10000	1	1	0	1	0
28	955	7	10000	1	1	0	1	0
28	956	7	10000	1	1	0	1	0
29	957	7	10000	1	1	0	1	0
30	958	7	10000	1	1	0	1	0
29	959	7	10000	1	1	0	1	0
26	960	7	10000	1	1	0	1	0
28	961	7	10000	1	1	0	1	0
30	962	7	10000	1	1	0	1	0
31	963	7	10000	1	1	0	1	0
31	964	7	10000	1	1	0	1	0
30	965	7	10000	1	1	0	1	0
32	966	7	10000	1	1	0	1	0
33	967	7	10000	1	1	0	1	0
33	968	7	10000	1	1	0	1	0
34	969	7	10000	1	1	0	1	0
39	970	7	10000	1	1	0	1	0
41	971	7	10000	1	1	0	1	0
41	972	7	10000	1	1	0	1	0
40	973	7	10000	1	1	0	1	0
39	974	7	10000	1	1	0	1	0
37	975	7	10000	1	1	0	1	0
36	976	7	10000	1	1	0	1	0
35	977	7	10000	1	1	0	1	0
34	978	7	10000	1	1	0	1	0
34	979	7	10000	1	1	0	1	0
31	980	7	10000	1	1	0	1	0
30	981	7	10000	1	1	0	1	0
30	982	7	10000	1	1	0	1	0
29	983	7	10000	1	1	0	1	0
27	984	7	10000	1	1	0	1	0
27	985	7	10000	1	1	0	1	0
28	986	7	10000	1	1	0	1	0
26	987	7	10000	1	1	0	1	0
26	988	7	10000	1	1	0	1	0
26	989	7	10000	1	1	0	1	0
27	990	7	10000	1	1	0	1	0
26	991	7	10000	1	1	0	1	0
25	992	7	10000	1	1	0	1	0
24	993	7	10000	1	1	0	1	0
24	994	7	10000	1	1	0	1	0
22	995	7	10000	1	1	0	1	0
21	996	7	10000	1	1	0	1	0
22	997	7	10000	1	1	0	1	0
23	998	7	10000	1	1	0	1	0
24	999	7	10000	1	1	0	1	0
23	1000	7	10000	1	1	0	1	0
24	1001	7	10000	1	1	0	1	0
24	1	0	10000	2	1	0	2	0
26	2	0	10000	2	1	0	2	0
26	3	0	10000	2	1	0	2	0
24	4	0	10000	2	1	0	2	0
22	5	0	10000	2	1	0	2	0
22	6	0	10000	2	1	0	2	0
22	7	0	10000	2	1	0	2	0
23	8	0	10000	2	1	0	2	0
23	9	0	10000	2	1	0	2	0
25	10	0	10000	2	1	0	2	0
24	11	0	10000	2	1	0	2	0
24	12	0	10000	2	1	0	2	0
25	13	0	10000	2	1	0	2	0
24	14	0	10000	2	1	0	2	0
24	15	0	10000	2	1	0	2	0
23	16	0	10000	2	1	0	2	0
23	17	0	10000	2	1	0	2	0
22	18	0	10000	2	1	0	2	0
21	19	0	10000	2	1	0	2	0
20	20	0	10000	2	1	0	2	0
20	21	0	10000	2	1	0	2	0
21	22	0	10000	2	1	0	2	0
20	23	0	10000	2	1	0	2	0
20	24	0	10000	2	1	0	2	0
20	25	0	10000	2	1	0	2	0
20	26	0	10000	2	1	0	2	0
19	27	0	10000	2	1	0	2	0
18	28	0	10000	2	1	0	2	0
19	29	0	10000	2	1	0	2	0
19	30	0	10000	2	1	0	2	0
18	31	0	10000	2	1	0	2	0
17	32	0	10000	2	1	0	2	0
17	33	0	10000	2	1	0	2	0
17	34	0	10000	2	1	0	2	0
16	35	0	10000	2	1	0	2	0
17	36	0	10000	2	1	0	2	0
16	37	0	10000	2	1	0	2	0
15	38	0	10000	2	1	0	2	0
15	39	0	10000	2	1	0	2	0
13	40	0	10000	2	1	0	2	0
13	41	0	10000	2	1	0	2	0
16	42	0	10000	2	1	0	2	0
15	43	0	10000	2	1	0	2	0
15	44	0	10000	2	1	0	2	0
15	45	0	10000	2	1	0	2	0
15	46	0	10000	2	1	0	2	0
15	47	0	10000	2	1	0	2	0
15	48	0	10000	2	1	0	2	0
15	49	0	10000	2	1	0	2	0
15	50	0	10000	2	1	0	2	0
16	51	0	10000	2	1	0	2	0
14	52	0	10000	2	1	0	2	0
14	53	0	10000	2	1	0	2	0
15	54	0	10000	2	1	0	2	0
13	55	0	10000	2	1	0	2	0
14	56	0	10000	2	1	0	2	0
15	57	0	10000	2	1	0	2	0
17	58	0	10000	2	1	0	2	0
16	59	0	10000	2	1	0	2	0
16	60	0	10000	2	1	0	2	0
16	61	0	10000	2	1	0	2	0
17	62	0	10000	2	1	0	2	0
17	63	0	10000	2	1	0	2	0
16	64	0	10000	2	1	0	2	0
16	65	0	10000	2	1	0	2	0
16	66	0	10000	2	1	0	2	0
14	67	0	10000	2	1	0	2	0
14	68	0	10000	2	1	0	2	0
15	69	0	10000	2	1	0	2	0
14	70	0	10000	2	1	0	2	0
14	71	0	10000	2	1	0	2	0
13	72	0	10000	2	1	0	2	0
13	73	0	10000	2	1	0	2	0
13	74	0	10000	2	1	0	2	0
14	75	0	10000	2	1	0	2	0
14	76	0	10000	2	1	0	2	0
14	77	0	10000	2	1	0	2	0
14	78	0	10000	2	1	0	2	0
13	79	0	10000	2	1	0	2	0
13	80	0	10000	2	1	0	2	0
13	81	0	10000	2	1	0	2	0
15	82	0	10000	2	1	0	2	0
15	83	0	10000	2	1	0	2	0
15	84	0	10000	2	1	0	2	0
14	85	0	10000	2	1	0	2	0
14	86	0	10000	2	1	0	2	0
14	87	0	10000	2	1	0	2	0
14	88	0	10000	2	1	0	2	0
15	89	0	10000	2	1	0	2	0
15	90	0	10000	2	1	0	2	0
16	91	0	10000	2	1	0	2	0
15	92	0	10000	2	1	0	2	0
17	93	0	10000	2	1	0	2	0
17	94	0	10000	2	1	0	2	0
17	95	0	10000	2	1	0	2	0
16	96	0	10000	2	1	0	2	0
16	97	0	10000	2	1	0	2	0
16	98	0	10000	2	1	0	2	0
16	99	0	10000	2	1	0	2	0
15	100	0	10000	2	1	0	2	0
14	101	0	10000	2	1	0	2	0
16	102	0	10000	2	1	0	2	0
15	103	0	10000	2	1	0	2	0
14	104	0	10000	2	1	0	2	0
13	105	0	10000	2	1	0	2	0
14	106	0	10000	2	1	0	2	0
14	107	0	10000	2	1	0	2	0
13	108	0	10000	2	1	0	2	0
14	109	0	10000	2	1	0	2	0
15	110	0	10000	2	1	0	2	0
15	111	0	10000	2	1	0	2	0
12	112	0	10000	2	1	0	2	0
12	113	0	10000	2	1	0	2	0
14	114	0	10000	2	1	0	2	0
15	115	0	10000	2	1	0	2	0
14	116	0	10000	2	1	0	2	0
14	117	0	10000	2	1	0	2	0
15	118	0	10000	2	1	0	2	0
15	119	0	10000	2	1	0	2	0
15	120	0	10000	2	1	0	2	0
16	121	0	10000	2	1	0	2	0
18	122	0	10000	2	1	0	2	0
17	123	0	10000	2	1	0	2	0
16	124	0	10000	2	1	0	2	0
16	125	0	10000	2	1	0	2	0
15	126	0	10000	2	1	0	2	0
15	127	0	10000	2	1	0	2	0
14	128	0	10000	2	1	0	2	0
15	129	0	10000	2	1	0	2	0
16	130	0	10000	2	1	0	2	0
15	131	0	10000	2	1	0	2	0
13	132	0	10000	2	1	0	2	0
13	133	0	10000	2	1	0	2	0
13	134	0	10000	2	1	0	2	0
13	135	0	10000	2	1	0	2	0
13	136	0	10000	2	1	0	2	0
13	137	0	10000	2	1	0	2	0
13	138	0	10000	2	1	0	2	0
13	139	0	10000	2	1	0	2	0
14	140	0	10000	2	1	0	2	0
15	141	0	10000	2	1	0	2	0
17	142	0	10000	2	1	0	2	0
17	143	0	10000	2	1	0	2	0
19	144	0	10000	2	1	0	2	0
19	145	0	10000	2	1	0	2	0
20	146	0	10000	2	1	0	2	0
19	147	0	10000	2	1	0	2	0
18	148	0	10000	2	1	0	2	0
19	149	0	10000	2	1	0	2	0
20	150	0	10000	2	1	0	2	0
20	151	0	10000	2	1	0	2	0
18	152	0	10000	2	1	0	2	0
19	153	0	10000	2	1	0	2	0
20	154	0	10000	2	1	0	2	0
19	155	0	10000	2	1	0	2	0
19	156	0	10000	2	1	0	2	0
19	157	0	10000	2	1	0	2	0
19	158	0	10000	2	1	0	2	0
17	159	0	10000	2	1	0	2	0
17	160	0	10000	2	1	0	2	0
17	161	0	10000	2	1	0	2	0
19	162	0	10000	2	1	0	2	0
18	163	0	10000	2	1	0	2	0
18	164	0	10000	2	1	0	2	0
18	165	0	10000	2	1	0	2	0
18	166	0	10000	2	1	0	2	0
19	167	0	10000	2	1	0	2	0
19	168	0	10000	2	1	0	2	0
20	169	0	10000	2	1	0	2	0
20	170	0	10000	2	1	0	2	0
19	171	0	10000	2	1	0	2	0
17	172	0	10000	2	1	0	2	0
19	173	0	10000	2	1	0	2	0
18	174	0	10000	2	1	0	2	0
19	175	0	10000	2	1	0	2	0
20	176	0	10000	2	1	0	2	0
19	177	0	10000	2	1	0	2	0
19	178	0	10000	2	1	0	2	0
19	179	0	10000	2	1	0	2	0
18	180	0	10000	2	1	0	2	0
18	181	0	10000	2	1	0	2	0
20	182	0	10000	2	1	0	2	0
18	183	0	10000	2	1	0	2	0
18	184	0	10000	2	1	0	2	0
17	185	0	10000	2	1	0	2	0
17	186	0	10000	2	1	0	2	0
16	187	0	10000	2	1	0	2	0
17	188	0	10000	2	1	0	2	0
16	189	0	10000	2	1	0	2	0
16	190	0	10000	2	1	0	2	0
16	191	0	10000	2	1	0	2	0
13	192	0	10000	2	1	0	2	0
14	193	0	10000	2	1	0	2	0
15	194	0	10000	2	1	0	2	0
14	195	0	10000	2	1	0	2	0
14	196	0	10000	2	1	0	2	0
15	197	0	10000	2	1	0	2	0
15	198	0	10000	2	1	0	2	0
15	199	0	10000	2	1	0	2	0
15	200	0	10000	2	1	0	2	0
15	201	0	10000	2	1	0	2	0
18	202	0	10000	2	1	0	2	0
17	203	0	10000	2	1	0	2	0
16	204	0	10000	2	1	0	2	0
15	205	0	10000	2	1	0	2	0
15	206	0	10000	2	1	0	2	0
15	207	0	10000	2	1	0	2	0
14	208	0	10000	2	1	0	2	0
16	209	0	10000	2	1	0	2	0
17	210	0	10000	2	1	0	2	0
16	211	0	10000	2	1	0	2	0
14	212	0	10000	2	1	0	2	0
14	213	0	10000	2	1	0	2	0
14	214	0	10000	2	1	0	2	0
15	215	0	10000	2	1	0	2	0
14	216	0	10000	2	1	0	2	0
14	217	0	10000	2	1	0	2	0
14	218	0	10000	2	1	0	2	0
13	219	0	10000	2	1	0	2	0
13	220	0	10000	2	1	0	2	0
12	221	0	10000	2	1	0	2	0
15	222	0	10000	2	1	0	2	0
15	223	0	10000	2	1	0	2	0
15	224	0	10000	2	1	0	2	0
14	225	0	10000	2	1	0	2	0
14	226	0	10000	2	1	0	2	0
15	227	0	10000	2	1	0	2	0
15	228	0	10000	2	1	0	2	0
17	229	0	10000	2	1	0	2	0
17	230	0	10000	2	1	0	2	0
17	231	0	10000	2	1	0	2	0
15	232	0	10000	2	1	0	2	0
17	233	0	10000	2	1	0	2	0
17	234	0	10000	2	1	0	2	0
17	235	0	10000	2	1	0	2	0
18	236	0	10000	2	1	0	2	0
19	237	0	10000	2	1	0	2	0
20	238	0	10000	2	1	0	2	0
19	239	0	10000	2	1	0	2	0
18	240	0	10000	2	1	0	2	0
17	241	0	10000	2	1	0	2	0
20	242	0	10000	2	1	0	2	0
18	243	0	10000	2	1	0	2	0
18	244	0	10000	2	1	0	2	0
18	245	0	10000	2	1	0	2	0
18	246	0	10000	2	1	0	2	0
17	247	0	10000	2	1	0	2	0
16	248	0	10000	2	1	0	2	0
17	249	0	10000	2	1	0	2	0
17	250	0	10000	2	1	0	2	0
18	251	0	10000	2	1	0	2	0
15	252	0	10000	2	1	0	2	0
16	253	0	10000	2	1	0	2	0
16	254	0	10000	2	1	0	2	0
16	255	0	10000	2	1	0	2	0
16	256	0	10000	2	1	0	2	0
16	257	0	10000	2	1	0	2	0
16	258	0	10000	2	1	0	2	0
14	259	0	10000	2	1	0	2	0
14	260	0	10000	2	1	0	2	0
13	261	0	10000	2	1	0	2	0
17	262	0	10000	2	1	0	2	0
16	263	0	10000	2	1	0	2	0
16	264	0	10000	2	1	0	2	0
15	265	0	10000	2	1	0	2	0
15	266	0	10000	2	1	0	2	0
16	267	0	10000	2	1	0	2	0
16	268	0	10000	2	1	0	2	0
17	269	0	10000	2	1	0	2	0
17	270	0	10000	2	1	0	2	0
16	271	0	10000	2	1	0	2	0
15	272	0	10000	2	1	0	2	0
15	273	0	10000	2	1	0	2	0
16	274	0	10000	2	1	0	2	0
17	275	0	10000	2	1	0	2	0
18	276	0	10000	2	1	0	2	0
21	277	0	10000	2	1	0	2	0
22	278	0	10000	2	1	0	2	0
21	279	0	10000	2	1	0	2	0
22	280	0	10000	2	1	0	2	0
23	281	0	10000	2	1	0	2	0
25	282	0	10000	2	1	0	2	0
25	283	0	10000	2	1	0	2	0
26	284	0	10000	2	1	0	2	0
26	285	0	10000	2	1	0	2	0
27	286	0	10000	2	1	0	2	0
27	287	0	10000	2	1	0	2	0
27	288	0	10000	2	1	0	2	0
28	289	0	10000	2	1	0	2	0
26	290	0	10000	2	1	0	2	0
26	291	0	10000	2	1	0	2	0
24	292	0	10000	2	1	0	2	0
23	293	0	10000	2	1	0	2	0
22	294	0	10000	2	1	0	2	0
23	295	0	10000	2	1	0	2	0
23	296	0	10000	2	1	0	2	0
22	297	0	10000	2	1	0	2	0
23	298	0	10000	2	1	0	2	0
22	299	0	10000	2	1	0	2	0
21	300	0	10000	2	1	0	2	0
22	301	0	10000	2	1	0	2	0
22	302	0	10000	2	1	0	2	0
23	303	0	10000	2	1	0	2	0
25	304	0	10000	2	1	0	2	0
26	305	0	10000	2	1	0	2	0
26	306	0	10000	2	1	0	2	0
27	307	0	10000	2	1	0	2	0
27	308	0	10000	2	1	0	2	0
27	309	0	10000	2	1	0	2	0
27	310	0	10000	2	1	0	2	0
26	311	0	10000	2	1	0	2	0
24	312	0	10000	2	1	0	2	0
25	313	0	10000	2	1	0	2	0
24	314	0	10000	2	1	0	2	0
24	315	0	10000	2	1	0	2	0
24	316	0	10000	2	1	0	2	0
25	317	0	10000	2	1	0	2	0
26	318	0	10000	2	1	0	2	0
26	319	0	10000	2	1	0	2	0
25	320	0	10000	2	1	0	2	0
23	321	0	10000	2	1	0	2	0
25	322	0	10000	2	1	0	2	0
24	323	0	10000	2	1	0	2	0
24	324	0	10000	2	1	0	2	0
24	325	0	10000	2	1	0	2	0
25	326	0	10000	2	1	0	2	0
26	327	0	10000	2	1	0	2	0
26	328	0	10000	2	1	0	2	0
26	329	0	10000	2	1	0	2	0
27	330	0	10000	2	1	0	2	0
30	331	0	10000	2	1	0	2	0
29	332	0	10000	2	1	0	2	0
29	333	0	10000	2	1	0	2	0
30	334	0	10000	2	1	0	2	0
30	335	0	10000	2	1	0	2	0
29	336	0	10000	2	1	0	2	0
29	337	0	10000	2	1	0	2	0
28	338	0	10000	2	1	0	2	0
27	339	0	10000	2	1	0	2	0
26	340	0	10000	2	1	0	2	0
26	341	0	10000	2	1	0	2	0
27	342	0	10000	2	1	0	2	0
26	343	0	10000	2	1	0	2	0
25	344	0	10000	2	1	0	2	0
23	345	0	10000	2	1	0	2	0
23	346	0	10000	2	1	0	2	0
23	347	0	10000	2	1	0	2	0
22	348	0	10000	2	1	0	2	0
22	349	0	10000	2	1	0	2	0
22	350	0	10000	2	1	0	2	0
21	351	0	10000	2	1	0	2	0
18	352	0	10000	2	1	0	2	0
18	353	0	10000	2	1	0	2	0
20	354	0	10000	2	1	0	2	0
23	355	0	10000	2	1	0	2	0
24	356	0	10000	2	1	0	2	0
26	357	0	10000	2	1	0	2	0
25	358	0	10000	2	1	0	2	0
24	359	0	10000	2	1	0	2	0
23	360	0	10000	2	1	0	2	0
23	361	0	10000	2	1	0	2	0
24	362	0	10000	2	1	0	2	0
24	363	0	10000	2	1	0	2	0
24	364	0	10000	2	1	0	2	0
23	365	0	10000	2	1	0	2	0
22	366	0	10000	2	1	0	2	0
22	367	0	10000	2	1	0	2	0
24	368	0	10000	2	1	0	2	0
27	369	0	10000	2	1	0	2	0
29	370	0	10000	2	1	0	2	0
30	371	0	10000	2	1	0	2	0
28	372	0	10000	2	1	0	2	0
30	373	0	10000	2	1	0	2	0
32	374	0	10000	2	1	0	2	0
34	375	0	10000	2	1	0	2	0
35	376	0	10000	2	1	0	2	0
34	377	0	10000	2	1	0	2	0
35	378	0	10000	2	1	0	2	0
34	379	0	10000	2	1	0	2	0
33	380	0	10000	2	1	0	2	0
32	381	0	10000	2	1	0	2	0
32	382	0	10000	2	1	0	2	0
31	383	0	10000	2	1	0	2	0
30	384	0	10000	2	1	0	2	0
28	385	0	10000	2	1	0	2	0
28	386	0	10000	2	1	0	2	0
27	387	0	10000	2	1	0	2	0
26	388	0	10000	2	1	0	2	0
26	389	0	10000	2	1	0	2	0
25	390	0	10000	2	1	0	2	0
24	391	0	10000	2	1	0	2	0
21	392	0	10000	2	1	0	2	0
22	393	0	10000	2	1	0	2	0
22	394	0	10000	2	1	0	2	0
23	395	0	10000	2	1	0	2	0
23	396	0	10000	2	1	0	2	0
23	397	0	10000	2	1	0	2	0
23	398	0	10000	2	1	0	2	0
22	399	0	10000	2	1	0	2	0
20	400	0	10000	2	1	0	2	0
20	401	0	10000	2	1	0	2	0
22	402	0	10000	2	1	0	2	0
22	403	0	10000	2	1	0	2	0
22	404	0	10000	2	1	0	2	0
24	405	0	10000	2	1	0	2	0
27	406	0	10000	2	1	0	2	0
30	407	0	10000	2	1	0	2	0
29	408	0	10000	2	1	0	2	0
30	409	0	10000	2	1	0	2	0
32	410	0	10000	2	1	0	2	0
34	411	0	10000	2	1	0	2	0
32	412	0	10000	2	1	0	2	0
31	413	0	10000	2	1	0	2	0
31	414	0	10000	2	1	0	2	0
30	415	0	10000	2	1	0	2	0
30	416	0	10000	2	1	0	2	0
31	417	0	10000	2	1	0	2	0
29	418	0	10000	2	1	0	2	0
28	419	0	10000	2	1	0	2	0
28	420	0	10000	2	1	0	2	0
28	421	0	10000	2	1	0	2	0
32	422	0	10000	2	1	0	2	0
32	423	0	10000	2	1	0	2	0
30	424	0	10000	2	1	0	2	0
29	425	0	10000	2	1	0	2	0
28	426	0	10000	2	1	0	2	0
26	427	0	10000	2	1	0	2	0
26	428	0	10000	2	1	0	2	0
27	429	0	10000	2	1	0	2	0
26	430	0	10000	2	1	0	2	0
25	431	0	10000	2	1	0	2	0
23	432	0	10000	2	1	0	2	0
23	433	0	10000	2	1	0	2	0
23	434	0	10000	2	1	0	2	0
24	435	0	10000	2	1	0	2	0
24	436	0	10000	2	1	0	2	0
24	437	0	10000	2	1	0	2	0
24	438	0	10000	2	1	0	2	0
23	439	0	10000	2	1	0	2	0
23	440	0	10000	2	1	0	2	0
23	441	0	10000	2	1	0	2	0
25	442	0	10000	2	1	0	2	0
25	443	0	10000	2	1	0	2	0
25	444	0	10000	2	1	0	2	0
24	445	0	10000	2	1	0	2	0
24	446	0	10000	2	1	0	2	0
25	447	0	10000	2	1	0	2	0
23	448	0	10000	2	1	0	2	0
24	449	0	10000	2	1	0	2	0
25	450	0	10000	2	1	0	2	0
25	451	0	10000	2	1	0	2	0
23	452	0	10000	2	1	0	2	0
24	453	0	10000	2	1	0	2	0
24	454	0	10000	2	1	0	2	0
23	455	0	10000	2	1	0	2	0
22	456	0	10000	2	1	0	2	0
23	457	0	10000	2	1	0	2	0
24	458	0	10000	2	1	0	2	0
24	459	0	10000	2	1	0	2	0
23	460	0	10000	2	1	0	2	0
22	461	0	10000	2	1	0	2	0
25	462	0	10000	2	1	0	2	0
25	463	0	10000	2	1	0	2	0
24	464	0	10000	2	1	0	2	0
23	465	0	10000	2	1	0	2	0
22	466	0	10000	2	1	0	2	0
21	467	0	10000	2	1	0	2	0
21	468	0	10000	2	1	0	2	0
21	469	0	10000	2	1	0	2	0
21	470	0	10000	2	1	0	2	0
21	471	0	10000	2	1	0	2	0
19	472	0	10000	2	1	0	2	0
19	473	0	10000	2	1	0	2	0
20	474	0	10000	2	1	0	2	0
20	475	0	10000	2	1	0	2	0
20	476	0	10000	2	1	0	2	0
20	477	0	10000	2	1	0	2	0
19	478	0	10000	2	1	0	2	0
18	479	0	10000	2	1	0	2	0
18	480	0	10000	2	1	0	2	0
17	481	0	10000	2	1	0	2	0
19	482	0	10000	2	1	0	2	0
18	483	0	10000	2	1	0	2	0
17	484	0	10000	2	1	0	2	0
18	485	0	10000	2	1	0	2	0
19	486	0	10000	2	1	0	2	0
18	487	0	10000	2	1	0	2	0
19	488	0	10000	2	1	0	2	0
20	489	0	10000	2	1	0	2	0
20	490	0	10000	2	1	0	2	0
20	491	0	10000	2	1	0	2	0
19	492	0	10000	2	1	0	2	0
18	493	0	10000	2	1	0	2	0
17	494	0	10000	2	1	0	2	0
18	495	0	10000	2	1	0	2	0
18	496	0	10000	2	1	0	2	0
18	497	0	10000	2	1	0	2	0
19	498	0	10000	2	1	0	2	0
18	499	0	10000	2	1	0	2	0
18	500	0	10000	2	1	0	2	0
18	501	0	10000	2	1	0	2	1
20	502	0	10000	2	1	0	2	1
19	503	0	10000	2	1	0	2	1
18	504	0	10000	2	1	0	2	1
18	505	0	10000	2	1	0	2	1
20	506	0	10000	2	1	0	2	1
20	507	0	10000	2	1	0	2	1
19	508	0	10000	2	1	0	2	1
19	509	0	10000	2	1	0	2	1
18	510	0	10000	2	1	0	2	1
19	511	0	10000	2	1	0	2	1
18	512	0	10000	2	1	0	2	1
19	513	0	10000	2	1	0	2	1
19	514	0	10000	2	1	0	2	1
19	515	0	10000	2	1	0	2	1
19	516	0	10000	2	1	0	2	1
20	517	0	10000	2	1	0	2	1
22	518	0	10000	2	1	0	2	1
21	519	0	10000	2	1	0	2	1
20	520	0	10000	2	1	0	2	1
21	521	0	10000	2	1	0	2	1
23	522	0	10000	2	1	0	2	1
22	523	0	10000	2	1	0	2	1
24	524	0	10000	2	1	0	2	1
26	525	0	10000	2	1	0	2	1
28	526	0	10000	2	1	0	2	1
28	527	0	10000	2	1	0	2	1
27	528	0	10000	2	1	0	2	1
27	529	0	10000	2	1	0	2	1
27	530	0	10000	2	1	0	2	1
26	531	0	10000	2	1	0	2	1
23	532	0	10000	2	1	0	2	1
24	533	0	10000	2	1	0	2	1
23	534	0	10000	2	1	0	2	1
23	535	0	10000	2	1	0	2	1
24	536	0	10000	2	1	0	2	1
24	537	0	10000	2	1	0	2	1
24	538	0	10000	2	1	0	2	1
24	539	0	10000	2	1	0	2	1
22	540	0	10000	2	1	0	2	1
21	541	0	10000	2	1	0	2	1
25	542	0	10000	2	1	0	2	1
25	543	0	10000	2	1	0	2	1
26	544	0	10000	2	1	0	2	1
28	545	0	10000	2	1	0	2	1
27	546	0	10000	2	1	0	2	1
28	547	0	10000	2	1	0	2	1
28	548	0	10000	2	1	0	2	1
29	549	0	10000	2	1	0	2	1
29	550	0	10000	2	1	0	2	1
29	551	0	10000	2	1	0	2	0
28	552	0	10000	2	1	0	2	0
30	553	0	10000	2	1	0	2	0
32	554	0	10000	2	1	0	2	0
31	555	0	10000	2	1	0	2	0
30	556	0	10000	2	1	0	2	0
29	557	0	10000	2	1	0	2	0
29	558	0	10000	2	1	0	2	0
27	559	0	10000	2	1	0	2	0
26	560	0	10000	2	1	0	2	0
25	561	0	10000	2	1	0	2	0
26	562	0	10000	2	1	0	2	0
26	563	0	10000	2	1	0	2	0
25	564	0	10000	2	1	0	2	0
24	565	0	10000	2	1	0	2	0
24	566	0	10000	2	1	0	2	0
24	567	0	10000	2	1	0	2	0
24	568	0	10000	2	1	0	2	0
25	569	0	10000	2	1	0	2	0
24	570	0	10000	2	1	0	2	0
24	571	0	10000	2	1	0	2	0
21	572	0	10000	2	1	0	2	0
22	573	0	10000	2	1	0	2	0
22	574	0	10000	2	1	0	2	0
22	575	0	10000	2	1	0	2	0
22	576	0	10000	2	1	0	2	0
20	577	0	10000	2	1	0	2	0
21	578	0	10000	2	1	0	2	0
20	579	0	10000	2	1	0	2	0
20	580	0	10000	2	1	0	2	0
21	581	0	10000	2	1	0	2	0
24	582	0	10000	2	1	0	2	0
24	583	0	10000	2	1	0	2	0
25	584	0	10000	2	1	0	2	0
26	585	0	10000	2	1	0	2	0
27	586	0	10000	2	1	0	2	0
31	587	0	10000	2	1	0	2	0
34	588	0	10000	2	1	0	2	0
35	589	0	10000	2	1	0	2	0
43	590	0	10000	2	1	0	2	0
49	591	0	10000	2	1	0	2	0
66	592	0	10000	2	1	0	2	0
92	593	0	10000	2	1	0	2	0
95	594	0	10000	2	1	0	2	0
96	595	0	10000	2	1	0	2	0
98	596	0	10000	2	1	0	2	0
102	597	0	10000	2	1	0	2	0
114	598	0	10000	2	1	0	2	0
133	599	0	10000	2	1	0	2	0
159	600	0	10000	2	1	0	2	0
176	601	0	10000	2	1	0	2	0
210	602	0	10000	2	1	0	2	0
241	603	0	10000	2	1	0	2	0
245	604	0	10000	2	1	0	2	0
310	605	0	10000	2	1	0	2	0
378	606	0	10000	2	1	0	2	0
398	607	0	10000	2	1	0	2	0
388	608	0	10000	2	1	0	2	0
381	609	0	10000	2	1	0	2	0
431	610	0	10000	2	1	0	2	0
502	611	0	10000	2	1	0	2	0
525	612	0	10000	2	1	0	2	0
522	613	0	10000	2	1	0	2	0
531	614	0	10000	2	1	0	2	0
538	615	0	10000	2	1	0	2	0
585	616	0	10000	2	1	0	2	0
625	617	0	10000	2	1	0	2	0
620	618	0	10000	2	1	0	2	0
624	619	0	10000	2	1	0	2	0
694	620	0	10000	2	1	0	2	0
755	621	0	10000	2	1	0	2	0
789	622	0	10000	2	1	0	2	0
789	623	0	10000	2	1	0	2	0
785	624	0	10000	2	1	0	2	0
778	625	0	10000	2	1	0	2	0
757	626	0	10000	2	1	0	2	0
725	627	0	10000	2	1	0	2	0
700	628	0	10000	2	1	0	2	0
684	629	0	10000	2	1	0	2	0
673	630	0	10000	2	1	0	2	0
666	631	0	10000	2	1	0	2	0
657	632	0	10000	2	1	0	2	0
650	633	0	10000	2	1	0	2	0
644	634	0	10000	2	1	0	2	0
636	635	0	10000	2	1	0	2	0
631	636	0	10000	2	1	0	2	0
631	637	0	10000	2	1	0	2	0
632	638	0	10000	2	1	0	2	0
631	639	0	10000	2	1	0	2	0
628	640	0	10000	2	1	0	2	0
626	641	0	10000	2	1	0	2	0
628	642	0	10000	2	1	0	2	0
628	643	0	10000	2	1	0	2	0
624	644	0	10000	2	1	0	2	0
617	645	0	10000	2	1	0	2	0
607	646	0	10000	2	1	0	2	0
591	647	0	10000	2	1	0	2	0
571	648	0	10000	2	1	0	2	0
547	649	0	10000	2	1	0	2	0
521	650	0	10000	2	1	0	2	0
498	651	0	10000	2	1	0	2	0
476	652	0	10000	2	1	0	2	0
459	653	0	10000	2	1	0	2	0
447	654	0	10000	2	1	0	2	0
437	655	0	10000	2	1	0	2	0
428	656	0	10000	2	1	0	2	0
422	657	0	10000	2	1	0	2	0
419	658	0	10000	2	1	0	2	0
415	659	0	10000	2	1	0	2	0
413	660	0	10000	2	1	0	2	0
412	661	0	10000	2	1	0	2	0
411	662	0	10000	2	1	0	2	0
408	663	0	10000	2	1	0	2	0
405	664	0	10000	2	1	0	2	0
403	665	0	10000	2	1	0	2	0
405	666	0	10000	2	1	0	2	0
409	667	0	10000	2	1	0	2	0
413	668	0	10000	2	1	0	2	0
420	669	0	10000	2	1	0	2	0
426	670	0	10000	2	1	0	2	0
433	671	0	10000	2	1	0	2	0
438	672	0	10000	2	1	0	2	0
445	673	0	10000	2	1	0	2	0
451	674	0	10000	2	1	0	2	0
456	675	0	10000	2	1	0	2	0
459	676	0	10000	2	1	0	2	0
461	677	0	10000	2	1	0	2	0
461	678	0	10000	2	1	0	2	0
459	679	0	10000	2	1	0	2	0
454	680	0	10000	2	1	0	2	0
446	681	0	10000	2	1	0	2	0
439	682	0	10000	2	1	0	2	0
428	683	0	10000	2	1	0	2	0
415	684	0	10000	2	1	0	2	0
402	685	0	10000	2	1	0	2	0
389	686	0	10000	2	1	0	2	0
378	687	0	10000	2	1	0	2	0
368	688	0	10000	2	1	0	2	0
360	689	0	10000	2	1	0	2	0
353	690	0	10000	2	1	0	2	0
345	691	0	10000	2	1	0	2	0
337	692	0	10000	2	1	0	2	0
331	693	0	10000	2	1	0	2	0
326	694	0	10000	2	1	0	2	0
320	695	0	10000	2	1	0	2	0
312	696	0	10000	2	1	0	2	0
302	697	0	10000	2	1	0	2	0
292	698	0	10000	2	1	0	2	0
281	699	0	10000	2	1	0	2	0
271	700	0	10000	2	1	0	2	0
259	701	0	10000	2	1	0	2	0
249	702	0	10000	2	1	0	2	0
239	703	0	10000	2	1	0	2	0
231	704	0	10000	2	1	0	2	0
223	705	0	10000	2	1	0	2	0
215	706	0	10000	2	1	0	2	0
208	707	0	10000	2	1	0	2	0
200	708	0	10000	2	1	0	2	0
192	709	0	10000	2	1	0	2	0
186	710	0	10000	2	1	0	2	0
180	711	0	10000	2	1	0	2	0
174	712	0	10000	2	1	0	2	0
167	713	0	10000	2	1	0	2	0
160	714	0	10000	2	1	0	2	0
153	715	0	10000	2	1	0	2	0
147	716	0	10000	2	1	0	2	0
142	717	0	10000	2	1	0	2	0
139	718	0	10000	2	1	0	2	0
135	719	0	10000	2	1	0	2	0
133	720	0	10000	2	1	0	2	0
132	721	0	10000	2	1	0	2	0
135	722	0	10000	2	1	0	2	0
134	723	0	10000	2	1	0	2	0
132	724	0	10000	2	1	0	2	0
131	725	0	10000	2	1	0	2	0
130	726	0	10000	2	1	0	2	0
129	727	0	10000	2	1	0	2	0
126	728	0	10000	2	1	0	2	0
122	729	0	10000	2	1	0	2	0
116	730	0	10000	2	1	0	2	0
112	731	0	10000	2	1	0	2	0
108	732	0	10000	2	1	0	2	0
105	733	0	10000	2	1	0	2	0
103	734	0	10000	2	1	0	2	0
99	735	0	10000	2	1	0	2	0
96	736	0	10000	2	1	0	2	0
94	737	0	10000	2	1	0	2	0
91	738	0	10000	2	1	0	2	0
89	739	0	10000	2	1	0	2	0
90	740	0	10000	2	1	0	2	0
90	741	0	10000	2	1	0	2	0
93	742	0	10000	2	1	0	2	0
96	743	0	10000	2	1	0	2	0
97	744	0	10000	2	1	0	2	0
99	745	0	10000	2	1	0	2	0
98	746	0	10000	2	1	0	2	0
97	747	0	10000	2	1	0	2	0
96	748	0	10000	2	1	0	2	0
95	749	0	10000	2	1	0	2	0
92	750	0	10000	2	1	0	2	0
88	751	0	10000	2	1	0	2	0
82	752	0	10000	2	1	0	2	0
80	753	0	10000	2	1	0	2	0
78	754	0	10000	2	1	0	2	0
77	755	0	10000	2	1	0	2	0
77	756	0	10000	2	1	0	2	0
75	757	0	10000	2	1	0	2	0
74	758	0	10000	2	1	0	2	0
71	759	0	10000	2	1	0	2	0
68	760	0	10000	2	1	0	2	0
69	761	0	10000	2	1	0	2	0
76	762	0	10000	2	1	0	2	0
80	763	0	10000	2	1	0	2	0
84	764	0	10000	2	1	0	2	0
88	765	0	10000	2	1	0	2	0
90	766	0	10000	2	1	0	2	0
91	767	0	10000	2	1	0	2	0
90	768	0	10000	2	1	0	2	0
90	769	0	10000	2	1	0	2	0
86	770	0	10000	2	1	0	2	0
83	771	0	10000	2	1	0	2	0
78	772	0	10000	2	1	0	2	0
76	773	0	10000	2	1	0	2	0
76	774	0	10000	2	1	0	2	0
75	775	0	10000	2	1	0	2	0
73	776	0	10000	2	1	0	2	0
71	777	0	10000	2	1	0	2	0
68	778	0	10000	2	1	0	2	0
67	779	0	10000	2	1	0	2	0
69	780	0	10000	2	1	0	2	0
68	781	0	10000	2	1	0	2	0
69	782	0	10000	2	1	0	2	0
70	783	0	10000	2	1	0	2	0
68	784	0	10000	2	1	0	2	0
66	785	0	10000	2	1	0	2	0
66	786	0	10000	2	1	0	2	0
62	787	0	10000	2	1	0	2	0
60	788	0	10000	2	1	0	2	0
58	789	0	10000	2	1	0	2	0
56	790	0	10000	2	1	0	2	0
55	791	0	10000	2	1	0	2	0
53	792	0	10000	2	1	0	2	0
51	793	0	10000	2	1	0	2	0
52	794	0	10000	2	1	0	2	0
54	795	0	10000	2	1	0	2	0
53	796	0	10000	2	1	0	2	0
53	797	0	10000	2	1	0	2	0
52	798	0	10000	2	1	0	2	0
49	799	0	10000	2	1	0	2	0
48	800	0	10000	2	1	0	2	0
46	801	0	10000	2	1	0	2	0
47	802	0	10000	2	1	0	2	0
48	803	0	10000	2	1	0	2	0
50	804	0	10000	2	1	0	2	0
50	805	0	10000	2	1	0	2	0
51	806	0	10000	2	1	0	2	0
51	807	0	10000	2	1	0	2	0
51	808	0	10000	2	1	0	2	0
52	809	0	10000	2	1	0	2	0
51	810	0	10000	2	1	0	2	0
50	811	0	10000	2	1	0	2	0
46	812	0	10000	2	1	0	2	0
44	813	0	10000	2	1	0	2	0
44	814	0	10000	2	1	0	2	0
43	815	0	10000	2	1	0	2	0
42	816	0	10000	2	1	0	2	0
42	817	0	10000	2	1	0	2	0
41	818	0	10000	2	1	0	2	0
40	819	0	10000	2	1	0	2	0
39	820	0	10000	2	1	0	2	0
39	821	0	10000	2	1	0	2	0
41	822	0	10000	2	1	0	2	0
42	823	0	10000	2	1	0	2	0
43	824	0	10000	2	1	0	2	0
44	825	0	10000	2	1	0	2	0
44	826	0	10000	2	1	0	2	0
44	827	0	10000	2	1	0	2	0
45	828	0	10000	2	1	0	2	0
45	829	0	10000	2	1	0	2	0
43	830	0	10000	2	1	0	2	0
43	831	0	10000	2	1	0	2	0
41	832	0	10000	2	1	0	2	0
43	833	0	10000	2	1	0	2	0
44	834	0	10000	2	1	0	2	0
47	835	0	10000	2	1	0	2	0
48	836	0	10000	2	1	0	2	0
47	837	0	10000	2	1	0	2	0
46	838	0	10000	2	1	0	2	0
45	839	0	10000	2	1	0	2	0
47	840	0	10000	2	1	0	2	0
47	841	0	10000	2	1	0	2	0
50	842	0	10000	2	1	0	2	0
52	843	0	10000	2	1	0	2	0
52	844	0	10000	2	1	0	2	0
51	845	0	10000	2	1	0	2	0
51	846	0	10000	2	1	0	2	0
49	847	0	10000	2	1	0	2	0
49	848	0	10000	2	1	0	2	0
49	849	0	10000	2	1	0	2	0
50	850	0	10000	2	1	0	2	0
52	851	0	10000	2	1	0	2	0
51	852	0	10000	2	1	0	2	0
51	853	0	10000	2	1	0	2	0
51	854	0	10000	2	1	0	2	0
50	855	0	10000	2	1	0	2	0
47	856	0	10000	2	1	0	2	0
46	857	0	10000	2	1	0	2	0
46	858	0	10000	2	1	0	2	0
47	859	0	10000	2	1	0	2	0
47	860	0	10000	2	1	0	2	0
45	861	0	10000	2	1	0	2	0
46	862	0	10000	2	1	0	2	0
46	863	0	10000	2	1	0	2	0
47	864	0	10000	2	1	0	2	0
48	865	0	10000	2	1	0	2	0
50	866	0	10000	2	1	0	2	0
52	867	0	10000	2	1	0	2	0
52	868	0	10000	2	1	0	2	0
53	869	0	10000	2	1	0	2	0
51	870	0	10000	2	1	0	2	0
50	871	0	10000	2	1	0	2	0
47	872	0	10000	2	1	0	2	0
46	873	0	10000	2	1	0	2	0
48	874	0	10000	2	1	0	2	0
49	875	0	10000	2	1	0	2	0
49	876	0	10000	2	1	0	2	0
49	877	0	10000	2	1	0	2	0
48	878	0	10000	2	1	0	2	0
46	879	0	10000	2	1	0	2	0
44	880	0	10000	2	1	0	2	0
43	881	0	10000	2	1	0	2	0
44	882	0	10000	2	1	0	2	0
43	883	0	10000	2	1	0	2	0
43	884	0	10000	2	1	0	2	0
42	885	0	10000	2	1	0	2	0
40	886	0	10000	2	1	0	2	0
39	887	0	10000	2	1	0	2	0
38	888	0	10000	2	1	0	2	0
38	889	0	10000	2	1	0	2	0
39	890	0	10000	2	1	0	2	0
39	891	0	10000	2	1	0	2	0
36	892	0	10000	2	1	0	2	0
36	893	0	10000	2	1	0	2	0
36	894	0	10000	2	1	0	2	0
36	895	0	10000	2	1	0	2	0
38	896	0	10000	2	1	0	2	0
36	897	0	10000	2	1	0	2	0
35	898	0	10000	2	1	0	2	0
34	899	0	10000	2	1	0	2	0
33	900	0	10000	2	1	0	2	0
33	901	0	10000	2	1	0	2	0
36	902	0	10000	2	1	0	2	0
36	903	0	10000	2	1	0	2	0
37	904	0	10000	2	1	0	2	0
37	905	0	10000	2	1	0	2	0
37	906	0	10000	2	1	0	2	0
36	907	0	10000	2	1	0	2	0
35	908	0	10000	2	1	0	2	0
34	909	0	10000	2	1	0	2	0
32	910	0	10000	2	1	0	2	0
33	911	0	10000	2	1	0	2	0
31	912	0	10000	2	1	0	2	0
31	913	0	10000	2	1	0	2	0
32	914	0	10000	2	1	0	2	0
31	915	0	10000	2	1	0	2	0
29	916	0	10000	2	1	0	2	0
30	917	0	10000	2	1	0	2	0
29	918	0	10000	2	1	0	2	0
27	919	0	10000	2	1	0	2	0
26	920	0	10000	2	1	0	2	0
26	921	0	10000	2	1	0	2	0
31	922	0	10000	2	1	0	2	0
33	923	0	10000	2	1	0	2	0
34	924	0	10000	2	1	0	2	0
35	925	0	10000	2	1	0	2	0
33	926	0	10000	2	1	0	2	0
32	927	0	10000	2	1	0	2	0
31	928	0	10000	2	1	0	2	0
30	929	0	10000	2	1	0	2	0
29	930	0	10000	2	1	0	2	0
30	931	0	10000	2	1	0	2	0
27	932	0	10000	2	1	0	2	0
26	933	0	10000	2	1	0	2	0
26	934	0	10000	2	1	0	2	0
27	935	0	10000	2	1	0	2	0
26	936	0	10000	2	1	0	2	0
25	937	0	10000	2	1	0	2	0
25	938	0	10000	2	1	0	2	0
24	939	0	10000	2	1	0	2	0
24	940	0	10000	2	1	0	2	0
23	941	0	10000	2	1	0	2	0
24	942	0	10000	2	1	0	2	0
25	943	0	10000	2	1	0	2	0
27	944	0	10000	2	1	0	2	0
28	945	0	10000	2	1	0	2	0
29	946	0	10000	2	1	0	2	0
29	947	0	10000	2	1	0	2	0
27	948	0	10000	2	1	0	2	0
27	949	0	10000	2	1	0	2	0
26	950	0	10000	2	1	0	2	0
26	951	0	10000	2	1	0	2	0
24	952	0	10000	2	1	0	2	0
24	953	0	10000	2	1	0	2	0
26	954	0	10000	2	1	0	2	0
26	955	0	10000	2	1	0	2	0
26	956	0	10000	2	1	0	2	0
25	957	0	10000	2	1	0	2	0
25	958	0	10000	2	1	0	2	0
23	959	0	10000	2	1	0	2	0
22	960	0	10000	2	1	0	2	0
21	961	0	10000	2	1	0	2	0
22	962	0	10000	2	1	0	2	0
22	963	0	10000	2	1	0	2	0
21	964	0	10000	2	1	0	2	0
20	965	0	10000	2	1	0	2	0
21	966	0	10000	2	1	0	2	0
21	967	0	10000	2	1	0	2	0
21	968	0	10000	2	1	0	2	0
21	969	0	10000	2	1	0	2	0
23	970	0	10000	2	1	0	2	0
25	971	0	10000	2	1	0	2	0
24	972	0	10000	2	1	0	2	0
23	973	0	10000	2	1	0	2	0
23	974	0	10000	2	1	0	2	0
23	975	0	10000	2	1	0	2	0
23	976	0	10000	2	1	0	2	0
22	977	0	10000	2	1	0	2	0
23	978	0	10000	2	1	0	2	0
23	979	0	10000	2	1	0	2	0
22	980	0	10000	2	1	0	2	0
21	981	0	10000	2	1	0	2	0
22	982	0	10000	2	1	0	2	0
22	983	0	10000	2	1	0	2	0
23	984	0	10000	2	1	0	2	0
24	985	0	10000	2	1	0	2	0
24	986	0	10000	2	1	0	2	0
24	987	0	10000	2	1	0	2	0
26	988	0	10000	2	1	0	2	0
27	989	0	10000	2	1	0	2	0
26	990	0	10000	2	1	0	2	0
27	991	0	10000	2	1	0	2	0
26	992	0	10000	2	1	0	2	0
25	993	0	10000	2	1	0	2	0
27	994	0	10000	2	1	0	2	0
29	995	0	10000	2	1	0	2	0
30	996	0	10000	2	1	0	2	0
31	997	0	10000	2	1	0	2	0
32	998	0	10000	2	1	0	2	0
31	999	0	10000	2	1	0	2	0
31	1000	0	10000	2	1	0	2	0
18	1	0	10000	3	1	0	3	0
19	2	0	10000	3	1	0	3	0
20	3	0	10000	3	1	0	3	0
20	4	0	10000	3	1	0	3	0
20	5	0	10000	3	1	0	3	0
20	6	0	10000	3	1	0	3	0
22	7	0	10000	3	1	0	3	0
21	8	0	10000	3	1	0	3	0
21	9	0	10000	3	1	0	3	0
20	10	0	10000	3	1	0	3	0
21	11	0	10000	3	1	0	3	0
20	12	0	10000	3	1	0	3	0
19	13	0	10000	3	1	0	3	0
20	14	0	10000	3	1	0	3	0
20	15	0	10000	3	1	0	3	0
19	16	0	10000	3	1	0	3	0
16	17	0	10000	3	1	0	3	0
17	18	0	10000	3	1	0	3	0
17	19	0	10000	3	1	0	3	0
18	20	0	10000	3	1	0	3	0
18	21	0	10000	3	1	0	3	0
19	22	0	10000	3	1	0	3	0
19	23	0	10000	3	1	0	3	0
18	24	0	10000	3	1	0	3	0
17	25	0	10000	3	1	0	3	0
17	26	0	10000	3	1	0	3	0
19	27	0	10000	3	1	0	3	0
17	28	0	10000	3	1	0	3	0
18	29	0	10000	3	1	0	3	0
17	30	0	10000	3	1	0	3	0
19	31	0	10000	3	1	0	3	0
21	32	0	10000	3	1	0	3	0
21	33	0	10000	3	1	0	3	0
22	34	0	10000	3	1	0	3	0
23	35	0	10000	3	1	0	3	0
22	36	0	10000	3	1	0	3	0
20	37	0	10000	3	1	0	3	0
21	38	0	10000	3	1	0	3	0
21	39	0	10000	3	1	0	3	0
20	40	0	10000	3	1	0	3	0
21	41	0	10000	3	1	0	3	0
20	42	0	10000	3	1	0	3	0
20	43	0	10000	3	1	0	3	0
21	44	0	10000	3	1	0	3	0
21	45	0	10000	3	1	0	3	0
21	46	0	10000	3	1	0	3	0
24	47	0	10000	3	1	0	3	0
22	48	0	10000	3	1	0	3	0
22	49	0	10000	3	1	0	3	0
21	50	0	10000	3	1	0	3	0
20	51	0	10000	3	1	0	3	0
20	52	0	10000	3	1	0	3	0
20	53	0	10000	3	1	0	3	0
19	54	0	10000	3	1	0	3	0
18	55	0	10000	3	1	0	3	0
18	56	0	10000	3	1	0	3	0
15	57	0	10000	3	1	0	3	0
15	58	0	10000	3	1	0	3	0
15	59	0	10000	3	1	0	3	0
14	60	0	10000	3	1	0	3	0
14	61	0	10000	3	1	0	3	0
15	62	0	10000	3	1	0	3	0
14	63	0	10000	3	1	0	3	0
14	64	0	10000	3	1	0	3	0
14	65	0	10000	3	1	0	3	0
14	66	0	10000	3	1	0	3	0
15	67	0	10000	3	1	0	3	0
15	68	0	10000	3	1	0	3	0
14	69	0	10000	3	1	0	3	0
13	70	0	10000	3	1	0	3	0
13	71	0	10000	3	1	0	3	0
13	72	0	10000	3	1	0	3	0
12	73	0	10000	3	1	0	3	0
14	74	0	10000	3	1	0	3	0
15	75	0	10000	3	1	0	3	0
15	76	0	10000	3	1	0	3	0
13	77	0	10000	3	1	0	3	0
14	78	0	10000	3	1	0	3	0
14	79	0	10000	3	1	0	3	0
14	80	0	10000	3	1	0	3	0
14	81	0	10000	3	1	0	3	0
15	82	0	10000	3	1	0	3	0
16	83	0	10000	3	1	0	3	0
15	84	0	10000	3	1	0	3	0
13	85	0	10000	3	1	0	3	0
13	86	0	10000	3	1	0	3	0
15	87	0	10000	3	1	0	3	0
14	88	0	10000	3	1	0	3	0
13	89	0	10000	3	1	0	3	0
12	90	0	10000	3	1	0	3	0
12	91	0	10000	3	1	0	3	0
12	92	0	10000	3	1	0	3	0
12	93	0	10000	3	1	0	3	0
13	94	0	10000	3	1	0	3	0
13	95	0	10000	3	1	0	3	0
12	96	0	10000	3	1	0	3	0
10	97	0	10000	3	1	0	3	0
11	98	0	10000	3	1	0	3	0
10	99	0	10000	3	1	0	3	0
11	100	0	10000	3	1	0	3	0
12	101	0	10000	3	1	0	3	0
11	102	0	10000	3	1	0	3	0
12	103	0	10000	3	1	0	3	0
11	104	0	10000	3	1	0	3	0
10	105	0	10000	3	1	0	3	0
10	106	0	10000	3	1	0	3	0
11	107	0	10000	3	1	0	3	0
11	108	0	10000	3	1	0	3	0
11	109	0	10000	3	1	0	3	0
10	110	0	10000	3	1	0	3	0
10	111	0	10000	3	1	0	3	0
10	112	0	10000	3	1	0	3	0
10	113	0	10000	3	1	0	3	0
10	114	0	10000	3	1	0	3	0
10	115	0	10000	3	1	0	3	0
10	116	0	10000	3	1	0	3	0
8	117	0	10000	3	1	0	3	0
8	118	0	10000	3	1	0	3	0
8	119	0	10000	3	1	0	3	0
9	120	0	10000	3	1	0	3	0
8	121	0	10000	3	1	0	3	0
9	122	0	10000	3	1	0	3	0
9	123	0	10000	3	1	0	3	0
9	124	0	10000	3	1	0	3	0
9	125	0	10000	3	1	0	3	0
9	126	0	10000	3	1	0	3	0
10	127	0	10000	3	1	0	3	0
10	128	0	10000	3	1	0	3	0
10	129	0	10000	3	1	0	3	0
11	130	0	10000	3	1	0	3	0
11	131	0	10000	3	1	0	3	0
11	132	0	10000	3	1	0	3	0
11	133	0	10000	3	1	0	3	0
13	134	0	10000	3	1	0	3	0
14	135	0	10000	3	1	0	3	0
15	136	0	10000	3	1	0	3	0
14	137	0	10000	3	1	0	3	0
15	138	0	10000	3	1	0	3	0
15	139	0	10000	3	1	0	3	0
17	140	0	10000	3	1	0	3	0
17	141	0	10000	3	1	0	3	0
18	142	0	10000	3	1	0	3	0
18	143	0	10000	3	1	0	3	0
17	144	0	10000	3	1	0	3	0
16	145	0	10000	3	1	0	3	0
16	146	0	10000	3	1	0	3	0
17	147	0	10000	3	1	0	3	0
17	148	0	10000	3	1	0	3	0
16	149	0	10000	3	1	0	3	0
16	150	0	10000	3	1	0	3	0
16	151	0	10000	3	1	0	3	0
15	152	0	10000	3	1	0	3	0
15	153	0	10000	3	1	0	3	0
16	154	0	10000	3	1	0	3	0
16	155	0	10000	3	1	0	3	0
15	156	0	10000	3	1	0	3	0
14	157	0	10000	3	1	0	3	0
14	158	0	10000	3	1	0	3	0
13	159	0	10000	3	1	0	3	0
14	160	0	10000	3	1	0	3	0
14	161	0	10000	3	1	0	3	0
14	162	0	10000	3	1	0	3	0
14	163	0	10000	3	1	0	3	0
13	164	0	10000	3	1	0	3	0
12	165	0	10000	3	1	0	3	0
13	166	0	10000	3	1	0	3	0
14	167	0	10000	3	1	0	3	0
13	168	0	10000	3	1	0	3	0
13	169	0	10000	3	1	0	3	0
12	170	0	10000	3	1	0	3	0
12	171	0	10000	3	1	0	3	0
12	172	0	10000	3	1	0	3	0
11	173	0	10000	3	1	0	3	0
11	174	0	10000	3	1	0	3	0
12	175	0	10000	3	1	0	3	0
12	176	0	10000	3	1	0	3	0
10	177	0	10000	3	1	0	3	0
10	178	0	10000	3	1	0	3	0
10	179	0	10000	3	1	0	3	0
10	180	0	10000	3	1	0	3	0
11	181	0	10000	3	1	0	3	0
10	182	0	10000	3	1	0	3	0
11	183	0	10000	3	1	0	3	0
11	184	0	10000	3	1	0	3	0
9	185	0	10000	3	1	0	3	0
10	186	0	10000	3	1	0	3	0
13	187	0	10000	3	1	0	3	0
12	188	0	10000	3	1	0	3	0
12	189	0	10000	3	1	0	3	0
13	190	0	10000	3	1	0	3	0
14	191	0	10000	3	1	0	3	0
13	192	0	10000	3	1	0	3	0
13	193	0	10000	3	1	0	3	0
13	194	0	10000	3	1	0	3	0
14	195	0	10000	3	1	0	3	0
13	196	0	10000	3	1	0	3	0
11	197	0	10000	3	1	0	3	0
11	198	0	10000	3	1	0	3	0
11	199	0	10000	3	1	0	3	0
10	200	0	10000	3	1	0	3	0
11	201	0	10000	3	1	0	3	0
11	202	0	10000	3	1	0	3	0
11	203	0	10000	3	1	0	3	0
10	204	0	10000	3	1	0	3	0
10	205	0	10000	3	1	0	3	0
10	206	0	10000	3	1	0	3	0
12	207	0	10000	3	1	0	3	0
12	208	0	10000	3	1	0	3	0
11	209	0	10000	3	1	0	3	0
11	210	0	10000	3	1	0	3	0
11	211	0	10000	3	1	0	3	0
11	212	0	10000	3	1	0	3	0
11	213	0	10000	3	1	0	3	0
12	214	0	10000	3	1	0	3	0
12	215	0	10000	3	1	0	3	0
12	216	0	10000	3	1	0	3	0
12	217	0	10000	3	1	0	3	0
13	218	0	10000	3	1	0	3	0
12	219	0	10000	3	1	0	3	0
13	220	0	10000	3	1	0	3	0
13	221	0	10000	3	1	0	3	0
15	222	0	10000	3	1	0	3	0
15	223	0	10000	3	1	0	3	0
15	224	0	10000	3	1	0	3	0
14	225	0	10000	3	1	0	3	0
14	226	0	10000	3	1	0	3	0
16	227	0	10000	3	1	0	3	0
16	228	0	10000	3	1	0	3	0
15	229	0	10000	3	1	0	3	0
15	230	0	10000	3	1	0	3	0
14	231	0	10000	3	1	0	3	0
13	232	0	10000	3	1	0	3	0
13	233	0	10000	3	1	0	3	0
13	234	0	10000	3	1	0	3	0
14	235	0	10000	3	1	0	3	0
13	236	0	10000	3	1	0	3	0
11	237	0	10000	3	1	0	3	0
12	238	0	10000	3	1	0	3	0
12	239	0	10000	3	1	0	3	0
12	240	0	10000	3	1	0	3	0
12	241	0	10000	3	1	0	3	0
11	242	0	10000	3	1	0	3	0
11	243	0	10000	3	1	0	3	0
12	244	0	10000	3	1	0	3	0
12	245	0	10000	3	1	0	3	0
12	246	0	10000	3	1	0	3	0
14	247	0	10000	3	1	0	3	0
13	248	0	10000	3	1	0	3	0
12	249	0	10000	3	1	0	3	0
12	250	0	10000	3	1	0	3	0
12	251	0	10000	3	1	0	3	0
12	252	0	10000	3	1	0	3	0
11	253	0	10000	3	1	0	3	0
12	254	0	10000	3	1	0	3	0
11	255	0	10000	3	1	0	3	0
12	256	0	10000	3	1	0	3	0
10	257	0	10000	3	1	0	3	0
11	258	0	10000	3	1	0	3	0
11	259	0	10000	3	1	0	3	0
10	260	0	10000	3	1	0	3	0
11	261	0	10000	3	1	0	3	0
12	262	0	10000	3	1	0	3	0
13	263	0	10000	3	1	0	3	0
14	264	0	10000	3	1	0	3	0
14	265	0	10000	3	1	0	3	0
13	266	0	10000	3	1	0	3	0
16	267	0	10000	3	1	0	3	0
15	268	0	10000	3	1	0	3	0
15	269	0	10000	3	1	0	3	0
14	270	0	10000	3	1	0	3	0
15	271	0	10000	3	1	0	3	0
16	272	0	10000	3	1	0	3	0
17	273	0	10000	3	1	0	3	0
19	274	0	10000	3	1	0	3	0
20	275	0	10000	3	1	0	3	0
20	276	0	10000	3	1	0	3	0
16	277	0	10000	3	1	0	3	0
16	278	0	10000	3	1	0	3	0
16	279	0	10000	3	1	0	3	0
16	280	0	10000	3	1	0	3	0
15	281	0	10000	3	1	0	3	0
16	282	0	10000	3	1	0	3	0
15	283	0	10000	3	1	0	3	0
14	284	0	10000	3	1	0	3	0
15	285	0	10000	3	1	0	3	0
16	286	0	10000	3	1	0	3	0
18	287	0	10000	3	1	0	3	0
19	288	0	10000	3	1	0	3	0
19	289	0	10000	3	1	0	3	0
18	290	0	10000	3	1	0	3	0
19	291	0	10000	3	1	0	3	0
18	292	0	10000	3	1	0	3	0
17	293	0	10000	3	1	0	3	0
18	294	0	10000	3	1	0	3	0
19	295	0	10000	3	1	0	3	0
19	296	0	10000	3	1	0	3	0
17	297	0	10000	3	1	0	3	0
16	298	0	10000	3	1	0	3	0
16	299	0	10000	3	1	0	3	0
17	300	0	10000	3	1	0	3	0
15	301	0	10000	3	1	0	3	0
16	302	0	10000	3	1	0	3	0
16	303	0	10000	3	1	0	3	0
15	304	0	10000	3	1	0	3	0
14	305	0	10000	3	1	0	3	0
15	306	0	10000	3	1	0	3	0
16	307	0	10000	3	1	0	3	0
15	308	0	10000	3	1	0	3	0
15	309	0	10000	3	1	0	3	0
13	310	0	10000	3	1	0	3	0
14	311	0	10000	3	1	0	3	0
14	312	0	10000	3	1	0	3	0
13	313	0	10000	3	1	0	3	0
14	314	0	10000	3	1	0	3	0
15	315	0	10000	3	1	0	3	0
14	316	0	10000	3	1	0	3	0
12	317	0	10000	3	1	0	3	0
12	318	0	10000	3	1	0	3	0
12	319	0	10000	3	1	0	3	0
13	320	0	10000	3	1	0	3	0
14	321	0	10000	3	1	0	3	0
13	322	0	10000	3	1	0	3	0
13	323	0	10000	3	1	0	3	0
13	324	0	10000	3	1	0	3	0
12	325	0	10000	3	1	0	3	0
12	326	0	10000	3	1	0	3	0
14	327	0	10000	3	1	0	3	0
14	328	0	10000	3	1	0	3	0
13	329	0	10000	3	1	0	3	0
13	330	0	10000	3	1	0	3	0
12	331	0	10000	3	1	0	3	0
12	332	0	10000	3	1	0	3	0
12	333	0	10000	3	1	0	3	0
13	334	0	10000	3	1	0	3	0
12	335	0	10000	3	1	0	3	0
13	336	0	10000	3	1	0	3	0
12	337	0	10000	3	1	0	3	0
13	338	0	10000	3	1	0	3	0
13	339	0	10000	3	1	0	3	0
13	340	0	10000	3	1	0	3	0
15	341	0	10000	3	1	0	3	0
20	342	0	10000	3	1	0	3	0
22	343	0	10000	3	1	0	3	0
20	344	0	10000	3	1	0	3	0
20	345	0	10000	3	1	0	3	0
22	346	0	10000	3	1	0	3	0
27	347	0	10000	3	1	0	3	0
30	348	0	10000	3	1	0	3	0
32	349	0	10000	3	1	0	3	0
33	350	0	10000	3	1	0	3	0
34	351	0	10000	3	1	0	3	0
33	352	0	10000	3	1	0	3	0
32	353	0	10000	3	1	0	3	0
33	354	0	10000	3	1	0	3	0
34	355	0	10000	3	1	0	3	0
34	356	0	10000	3	1	0	3	0
32	357	0	10000	3	1	0	3	0
36	358	0	10000	3	1	0	3	0
39	359	0	10000	3	1	0	3	0
42	360	0	10000	3	1	0	3	0
43	361	0	10000	3	1	0	3	0
43	362	0	10000	3	1	0	3	0
43	363	0	10000	3	1	0	3	0
48	364	0	10000	3	1	0	3	0
53	365	0	10000	3	1	0	3	0
52	366	0	10000	3	1	0	3	0
54	367	0	10000	3	1	0	3	0
54	368	0	10000	3	1	0	3	0
51	369	0	10000	3	1	0	3	0
50	370	0	10000	3	1	0	3	0
49	371	0	10000	3	1	0	3	0
48	372	0	10000	3	1	0	3	0
49	373	0	10000	3	1	0	3	0
54	374	0	10000	3	1	0	3	0
59	375	0	10000	3	1	0	3	0
63	376	0	10000	3	1	0	3	0
61	377	0	10000	3	1	0	3	0
68	378	0	10000	3	1	0	3	0
81	379	0	10000	3	1	0	3	0
88	380	0	10000	3	1	0	3	0
89	381	0	10000	3	1	0	3	0
89	382	0	10000	3	1	0	3	0
88	383	0	10000	3	1	0	3	0
86	384	0	10000	3	1	0	3	0
81	385	0	10000	3	1	0	3	0
78	386	0	10000	3	1	0	3	0
77	387	0	10000	3	1	0	3	0
75	388	0	10000	3	1	0	3	0
71	389	0	10000	3	1	0	3	0
68	390	0	10000	3	1	0	3	0
66	391	0	10000	3	1	0	3	0
63	392	0	10000	3	1	0	3	0
62	393	0	10000	3	1	0	3	0
61	394	0	10000	3	1	0	3	0
61	395	0	10000	3	1	0	3	0
60	396	0	10000	3	1	0	3	0
58	397	0	10000	3	1	0	3	0
58	398	0	10000	3	1	0	3	0
56	399	0	10000	3	1	0	3	0
56	400	0	10000	3	1	0	3	0
54	401	0	10000	3	1	0	3	0
52	402	0	10000	3	1	0	3	0
51	403	0	10000	3	1	0	3	0
48	404	0	10000	3	1	0	3	0
48	405	0	10000	3	1	0	3	0
48	406	0	10000	3	1	0	3	0
49	407	0	10000	3	1	0	3	0
47	408	0	10000	3	1	0	3	0
48	409	0	10000	3	1	0	3	0
46	410	0	10000	3	1	0	3	0
44	411	0	10000	3	1	0	3	0
43	412	0	10000	3	1	0	3	0
44	413	0	10000	3	1	0	3	0
45	414	0	10000	3	1	0	3	0
45	415	0	10000	3	1	0	3	0
45	416	0	10000	3	1	0	3	0
42	417	0	10000	3	1	0	3	0
43	418	0	10000	3	1	0	3	0
43	419	0	10000	3	1	0	3	0
44	420	0	10000	3	1	0	3	0
45	421	0	10000	3	1	0	3	0
46	422	0	10000	3	1	0	3	0
44	423	0	10000	3	1	0	3	0
43	424	0	10000	3	1	0	3	0
41	425	0	10000	3	1	0	3	0
40	426	0	10000	3	1	0	3	0
42	427	0	10000	3	1	0	3	0
41	428	0	10000	3	1	0	3	0
39	429	0	10000	3	1	0	3	0
38	430	0	10000	3	1	0	3	0
37	431	0	10000	3	1	0	3	0
35	432	0	10000	3	1	0	3	0
34	433	0	10000	3	1	0	3	0
33	434	0	10000	3	1	0	3	0
32	435	0	10000	3	1	0	3	0
31	436	0	10000	3	1	0	3	0
28	437	0	10000	3	1	0	3	0
28	438	0	10000	3	1	0	3	0
28	439	0	10000	3	1	0	3	0
28	440	0	10000	3	1	0	3	0
26	441	0	10000	3	1	0	3	0
26	442	0	10000	3	1	0	3	0
27	443	0	10000	3	1	0	3	0
28	444	0	10000	3	1	0	3	0
28	445	0	10000	3	1	0	3	0
27	446	0	10000	3	1	0	3	0
28	447	0	10000	3	1	0	3	0
28	448	0	10000	3	1	0	3	0
28	449	0	10000	3	1	0	3	0
26	450	0	10000	3	1	0	3	0
26	451	0	10000	3	1	0	3	0
26	452	0	10000	3	1	0	3	0
24	453	0	10000	3	1	0	3	0
24	454	0	10000	3	1	0	3	0
23	455	0	10000	3	1	0	3	0
23	456	0	10000	3	1	0	3	0
22	457	0	10000	3	1	0	3	0
21	458	0	10000	3	1	0	3	0
20	459	0	10000	3	1	0	3	0
20	460	0	10000	3	1	0	3	0
20	461	0	10000	3	1	0	3	0
20	462	0	10000	3	1	0	3	0
19	463	0	10000	3	1	0	3	0
18	464	0	10000	3	1	0	3	0
18	465	0	10000	3	1	0	3	0
19	466	0	10000	3	1	0	3	0
21	467	0	10000	3	1	0	3	0
20	468	0	10000	3	1	0	3	0
19	469	0	10000	3	1	0	3	0
18	470	0	10000	3	1	0	3	0
18	471	0	10000	3	1	0	3	0
17	472	0	10000	3	1	0	3	0
16	473	0	10000	3	1	0	3	0
16	474	0	10000	3	1	0	3	0
16	475	0	10000	3	1	0	3	0
16	476	0	10000	3	1	0	3	0
14	477	0	10000	3	1	0	3	0
15	478	0	10000	3	1	0	3	0
15	479	0	10000	3	1	0	3	0
15	480	0	10000	3	1	0	3	0
17	481	0	10000	3	1	0	3	0
18	482	0	10000	3	1	0	3	0
19	483	0	10000	3	1	0	3	0
21	484	0	10000	3	1	0	3	0
22	485	0	10000	3	1	0	3	0
22	486	0	10000	3	1	0	3	0
23	487	0	10000	3	1	0	3	0
22	488	0	10000	3	1	0	3	0
21	489	0	10000	3	1	0	3	0
20	490	0	10000	3	1	0	3	0
20	491	0	10000	3	1	0	3	0
20	492	0	10000	3	1	0	3	0
19	493	0	10000	3	1	0	3	0
20	494	0	10000	3	1	0	3	0
19	495	0	10000	3	1	0	3	0
19	496	0	10000	3	1	0	3	0
16	497	0	10000	3	1	0	3	0
16	498	0	10000	3	1	0	3	0
18	499	0	10000	3	1	0	3	0
18	500	0	10000	3	1	0	3	0
20	501	0	10000	3	1	0	3	1
21	502	0	10000	3	1	0	3	1
23	503	0	10000	3	1	0	3	1
22	504	0	10000	3	1	0	3	1
22	505	0	10000	3	1	0	3	1
22	506	0	10000	3	1	0	3	1
25	507	0	10000	3	1	0	3	1
25	508	0	10000	3	1	0	3	1
26	509	0	10000	3	1	0	3	1
25	510	0	10000	3	1	0	3	1
24	511	0	10000	3	1	0	3	1
23	512	0	10000	3	1	0	3	1
22	513	0	10000	3	1	0	3	1
22	514	0	10000	3	1	0	3	1
22	515	0	10000	3	1	0	3	1
23	516	0	10000	3	1	0	3	1
20	517	0	10000	3	1	0	3	1
19	518	0	10000	3	1	0	3	1
19	519	0	10000	3	1	0	3	1
19	520	0	10000	3	1	0	3	1
19	521	0	10000	3	1	0	3	1
18	522	0	10000	3	1	0	3	1
18	523	0	10000	3	1	0	3	1
16	524	0	10000	3	1	0	3	1
16	525	0	10000	3	1	0	3	1
16	526	0	10000	3	1	0	3	1
19	527	0	10000	3	1	0	3	1
18	528	0	10000	3	1	0	3	1
17	529	0	10000	3	1	0	3	1
16	530	0	10000	3	1	0	3	1
16	531	0	10000	3	1	0	3	1
16	532	0	10000	3	1	0	3	1
15	533	0	10000	3	1	0	3	1
15	534	0	10000	3	1	0	3	1
16	535	0	10000	3	1	0	3	1
18	536	0	10000	3	1	0	3	1
16	537	0	10000	3	1	0	3	1
15	538	0	10000	3	1	0	3	1
16	539	0	10000	3	1	0	3	1
16	540	0	10000	3	1	0	3	1
15	541	0	10000	3	1	0	3	1
15	542	0	10000	3	1	0	3	1
15	543	0	10000	3	1	0	3	1
16	544	0	10000	3	1	0	3	1
16	545	0	10000	3	1	0	3	1
15	546	0	10000	3	1	0	3	1
17	547	0	10000	3	1	0	3	1
16	548	0	10000	3	1	0	3	1
15	549	0	10000	3	1	0	3	1
15	550	0	10000	3	1	0	3	1
14	551	0	10000	3	1	0	3	0
13	552	0	10000	3	1	0	3	0
13	553	0	10000	3	1	0	3	0
13	554	0	10000	3	1	0	3	0
13	555	0	10000	3	1	0	3	0
14	556	0	10000	3	1	0	3	0
11	557	0	10000	3	1	0	3	0
11	558	0	10000	3	1	0	3	0
12	559	0	10000	3	1	0	3	0
11	560	0	10000	3	1	0	3	0
11	561	0	10000	3	1	0	3	0
12	562	0	10000	3	1	0	3	0
12	563	0	10000	3	1	0	3	0
12	564	0	10000	3	1	0	3	0
13	565	0	10000	3	1	0	3	0
12	566	0	10000	3	1	0	3	0
14	567	0	10000	3	1	0	3	0
14	568	0	10000	3	1	0	3	0
13	569	0	10000	3	1	0	3	0
13	570	0	10000	3	1	0	3	0
14	571	0	10000	3	1	0	3	0
13	572	0	10000	3	1	0	3	0
14	573	0	10000	3	1	0	3	0
15	574	0	10000	3	1	0	3	0
16	575	0	10000	3	1	0	3	0
17	576	0	10000	3	1	0	3	0
15	577	0	10000	3	1	0	3	0
15	578	0	10000	3	1	0	3	0
15	579	0	10000	3	1	0	3	0
16	580	0	10000	3	1	0	3	0
15	581	0	10000	3	1	0	3	0
16	582	0	10000	3	1	0	3	0
18	583	0	10000	3	1	0	3	0
22	584	0	10000	3	1	0	3	0
27	585	0	10000	3	1	0	3	0
27	586	0	10000	3	1	0	3	0
28	587	0	10000	3	1	0	3	0
32	588	0	10000	3	1	0	3	0
40	589	0	10000	3	1	0	3	0
47	590	0	10000	3	1	0	3	0
54	591	0	10000	3	1	0	3	0
89	592	0	10000	3	1	0	3	0
121	593	0	10000	3	1	0	3	0
132	594	0	10000	3	1	0	3	0
146	595	0	10000	3	1	0	3	0
152	596	0	10000	3	1	0	3	0
166	597	0	10000	3	1	0	3	0
179	598	0	10000	3	1	0	3	0
245	599	0	10000	3	1	0	3	0
288	600	0	10000	3	1	0	3	0
287	601	0	10000	3	1	0	3	0
309	602	0	10000	3	1	0	3	0
322	603	0	10000	3	1	0	3	0
315	604	0	10000	3	1	0	3	0
324	605	0	10000	3	1	0	3	0
322	606	0	10000	3	1	0	3	0
351	607	0	10000	3	1	0	3	0
395	608	0	10000	3	1	0	3	0
402	609	0	10000	3	1	0	3	0
480	610	0	10000	3	1	0	3	0
509	611	0	10000	3	1	0	3	0
606	612	0	10000	3	1	0	3	0
692	613	0	10000	3	1	0	3	0
701	614	0	10000	3	1	0	3	0
682	615	0	10000	3	1	0	3	0
696	616	0	10000	3	1	0	3	0
704	617	0	10000	3	1	0	3	0
695	618	0	10000	3	1	0	3	0
719	619	0	10000	3	1	0	3	0
758	620	0	10000	3	1	0	3	0
779	621	0	10000	3	1	0	3	0
778	622	0	10000	3	1	0	3	0
751	623	0	10000	3	1	0	3	0
725	624	0	10000	3	1	0	3	0
704	625	0	10000	3	1	0	3	0
688	626	0	10000	3	1	0	3	0
676	627	0	10000	3	1	0	3	0
665	628	0	10000	3	1	0	3	0
656	629	0	10000	3	1	0	3	0
648	630	0	10000	3	1	0	3	0
641	631	0	10000	3	1	0	3	0
633	632	0	10000	3	1	0	3	0
626	633	0	10000	3	1	0	3	0
623	634	0	10000	3	1	0	3	0
619	635	0	10000	3	1	0	3	0
616	636	0	10000	3	1	0	3	0
611	637	0	10000	3	1	0	3	0
608	638	0	10000	3	1	0	3	0
601	639	0	10000	3	1	0	3	0
595	640	0	10000	3	1	0	3	0
587	641	0	10000	3	1	0	3	0
578	642	0	10000	3	1	0	3	0
568	643	0	10000	3	1	0	3	0
555	644	0	10000	3	1	0	3	0
540	645	0	10000	3	1	0	3	0
521	646	0	10000	3	1	0	3	0
501	647	0	10000	3	1	0	3	0
478	648	0	10000	3	1	0	3	0
460	649	0	10000	3	1	0	3	0
446	650	0	10000	3	1	0	3	0
434	651	0	10000	3	1	0	3	0
424	652	0	10000	3	1	0	3	0
416	653	0	10000	3	1	0	3	0
411	654	0	10000	3	1	0	3	0
407	655	0	10000	3	1	0	3	0
402	656	0	10000	3	1	0	3	0
395	657	0	10000	3	1	0	3	0
392	658	0	10000	3	1	0	3	0
389	659	0	10000	3	1	0	3	0
386	660	0	10000	3	1	0	3	0
384	661	0	10000	3	1	0	3	0
384	662	0	10000	3	1	0	3	0
384	663	0	10000	3	1	0	3	0
385	664	0	10000	3	1	0	3	0
387	665	0	10000	3	1	0	3	0
389	666	0	10000	3	1	0	3	0
395	667	0	10000	3	1	0	3	0
400	668	0	10000	3	1	0	3	0
404	669	0	10000	3	1	0	3	0
408	670	0	10000	3	1	0	3	0
411	671	0	10000	3	1	0	3	0
414	672	0	10000	3	1	0	3	0
416	673	0	10000	3	1	0	3	0
419	674	0	10000	3	1	0	3	0
418	675	0	10000	3	1	0	3	0
417	676	0	10000	3	1	0	3	0
412	677	0	10000	3	1	0	3	0
406	678	0	10000	3	1	0	3	0
400	679	0	10000	3	1	0	3	0
393	680	0	10000	3	1	0	3	0
384	681	0	10000	3	1	0	3	0
375	682	0	10000	3	1	0	3	0
367	683	0	10000	3	1	0	3	0
359	684	0	10000	3	1	0	3	0
351	685	0	10000	3	1	0	3	0
345	686	0	10000	3	1	0	3	0
341	687	0	10000	3	1	0	3	0
335	688	0	10000	3	1	0	3	0
328	689	0	10000	3	1	0	3	0
323	690	0	10000	3	1	0	3	0
316	691	0	10000	3	1	0	3	0
309	692	0	10000	3	1	0	3	0
301	693	0	10000	3	1	0	3	0
292	694	0	10000	3	1	0	3	0
283	695	0	10000	3	1	0	3	0
273	696	0	10000	3	1	0	3	0
259	697	0	10000	3	1	0	3	0
247	698	0	10000	3	1	0	3	0
237	699	0	10000	3	1	0	3	0
226	700	0	10000	3	1	0	3	0
216	701	0	10000	3	1	0	3	0
209	702	0	10000	3	1	0	3	0
199	703	0	10000	3	1	0	3	0
190	704	0	10000	3	1	0	3	0
183	705	0	10000	3	1	0	3	0
173	706	0	10000	3	1	0	3	0
168	707	0	10000	3	1	0	3	0
162	708	0	10000	3	1	0	3	0
153	709	0	10000	3	1	0	3	0
146	710	0	10000	3	1	0	3	0
140	711	0	10000	3	1	0	3	0
135	712	0	10000	3	1	0	3	0
128	713	0	10000	3	1	0	3	0
124	714	0	10000	3	1	0	3	0
118	715	0	10000	3	1	0	3	0
116	716	0	10000	3	1	0	3	0
112	717	0	10000	3	1	0	3	0
109	718	0	10000	3	1	0	3	0
109	719	0	10000	3	1	0	3	0
110	720	0	10000	3	1	0	3	0
110	721	0	10000	3	1	0	3	0
111	722	0	10000	3	1	0	3	0
113	723	0	10000	3	1	0	3	0
112	724	0	10000	3	1	0	3	0
110	725	0	10000	3	1	0	3	0
108	726	0	10000	3	1	0	3	0
107	727	0	10000	3	1	0	3	0
104	728	0	10000	3	1	0	3	0
100	729	0	10000	3	1	0	3	0
96	730	0	10000	3	1	0	3	0
92	731	0	10000	3	1	0	3	0
88	732	0	10000	3	1	0	3	0
84	733	0	10000	3	1	0	3	0
81	734	0	10000	3	1	0	3	0
81	735	0	10000	3	1	0	3	0
81	736	0	10000	3	1	0	3	0
80	737	0	10000	3	1	0	3	0
80	738	0	10000	3	1	0	3	0
80	739	0	10000	3	1	0	3	0
80	740	0	10000	3	1	0	3	0
80	741	0	10000	3	1	0	3	0
80	742	0	10000	3	1	0	3	0
80	743	0	10000	3	1	0	3	0
81	744	0	10000	3	1	0	3	0
81	745	0	10000	3	1	0	3	0
81	746	0	10000	3	1	0	3	0
84	747	0	10000	3	1	0	3	0
83	748	0	10000	3	1	0	3	0
82	749	0	10000	3	1	0	3	0
79	750	0	10000	3	1	0	3	0
76	751	0	10000	3	1	0	3	0
72	752	0	10000	3	1	0	3	0
69	753	0	10000	3	1	0	3	0
66	754	0	10000	3	1	0	3	0
64	755	0	10000	3	1	0	3	0
64	756	0	10000	3	1	0	3	0
61	757	0	10000	3	1	0	3	0
62	758	0	10000	3	1	0	3	0
66	759	0	10000	3	1	0	3	0
68	760	0	10000	3	1	0	3	0
70	761	0	10000	3	1	0	3	0
71	762	0	10000	3	1	0	3	0
72	763	0	10000	3	1	0	3	0
72	764	0	10000	3	1	0	3	0
73	765	0	10000	3	1	0	3	0
71	766	0	10000	3	1	0	3	0
71	767	0	10000	3	1	0	3	0
68	768	0	10000	3	1	0	3	0
66	769	0	10000	3	1	0	3	0
62	770	0	10000	3	1	0	3	0
60	771	0	10000	3	1	0	3	0
57	772	0	10000	3	1	0	3	0
55	773	0	10000	3	1	0	3	0
53	774	0	10000	3	1	0	3	0
51	775	0	10000	3	1	0	3	0
51	776	0	10000	3	1	0	3	0
48	777	0	10000	3	1	0	3	0
49	778	0	10000	3	1	0	3	0
50	779	0	10000	3	1	0	3	0
51	780	0	10000	3	1	0	3	0
51	781	0	10000	3	1	0	3	0
53	782	0	10000	3	1	0	3	0
53	783	0	10000	3	1	0	3	0
52	784	0	10000	3	1	0	3	0
50	785	0	10000	3	1	0	3	0
47	786	0	10000	3	1	0	3	0
47	787	0	10000	3	1	0	3	0
45	788	0	10000	3	1	0	3	0
44	789	0	10000	3	1	0	3	0
42	790	0	10000	3	1	0	3	0
41	791	0	10000	3	1	0	3	0
39	792	0	10000	3	1	0	3	0
37	793	0	10000	3	1	0	3	0
36	794	0	10000	3	1	0	3	0
35	795	0	10000	3	1	0	3	0
34	796	0	10000	3	1	0	3	0
33	797	0	10000	3	1	0	3	0
34	798	0	10000	3	1	0	3	0
36	799	0	10000	3	1	0	3	0
38	800	0	10000	3	1	0	3	0
39	801	0	10000	3	1	0	3	0
41	802	0	10000	3	1	0	3	0
41	803	0	10000	3	1	0	3	0
41	804	0	10000	3	1	0	3	0
41	805	0	10000	3	1	0	3	0
39	806	0	10000	3	1	0	3	0
39	807	0	10000	3	1	0	3	0
38	808	0	10000	3	1	0	3	0
36	809	0	10000	3	1	0	3	0
36	810	0	10000	3	1	0	3	0
35	811	0	10000	3	1	0	3	0
34	812	0	10000	3	1	0	3	0
32	813	0	10000	3	1	0	3	0
32	814	0	10000	3	1	0	3	0
31	815	0	10000	3	1	0	3	0
31	816	0	10000	3	1	0	3	0
28	817	0	10000	3	1	0	3	0
29	818	0	10000	3	1	0	3	0
30	819	0	10000	3	1	0	3	0
31	820	0	10000	3	1	0	3	0
32	821	0	10000	3	1	0	3	0
32	822	0	10000	3	1	0	3	0
32	823	0	10000	3	1	0	3	0
33	824	0	10000	3	1	0	3	0
32	825	0	10000	3	1	0	3	0
31	826	0	10000	3	1	0	3	0
33	827	0	10000	3	1	0	3	0
32	828	0	10000	3	1	0	3	0
31	829	0	10000	3	1	0	3	0
32	830	0	10000	3	1	0	3	0
33	831	0	10000	3	1	0	3	0
35	832	0	10000	3	1	0	3	0
37	833	0	10000	3	1	0	3	0
37	834	0	10000	3	1	0	3	0
36	835	0	10000	3	1	0	3	0
36	836	0	10000	3	1	0	3	0
35	837	0	10000	3	1	0	3	0
37	838	0	10000	3	1	0	3	0
40	839	0	10000	3	1	0	3	0
40	840	0	10000	3	1	0	3	0
39	841	0	10000	3	1	0	3	0
40	842	0	10000	3	1	0	3	0
38	843	0	10000	3	1	0	3	0
38	844	0	10000	3	1	0	3	0
38	845	0	10000	3	1	0	3	0
37	846	0	10000	3	1	0	3	0
36	847	0	10000	3	1	0	3	0
36	848	0	10000	3	1	0	3	0
33	849	0	10000	3	1	0	3	0
32	850	0	10000	3	1	0	3	0
32	851	0	10000	3	1	0	3	0
32	852	0	10000	3	1	0	3	0
31	853	0	10000	3	1	0	3	0
31	854	0	10000	3	1	0	3	0
30	855	0	10000	3	1	0	3	0
30	856	0	10000	3	1	0	3	0
29	857	0	10000	3	1	0	3	0
28	858	0	10000	3	1	0	3	0
30	859	0	10000	3	1	0	3	0
30	860	0	10000	3	1	0	3	0
31	861	0	10000	3	1	0	3	0
31	862	0	10000	3	1	0	3	0
31	863	0	10000	3	1	0	3	0
30	864	0	10000	3	1	0	3	0
29	865	0	10000	3	1	0	3	0
27	866	0	10000	3	1	0	3	0
28	867	0	10000	3	1	0	3	0
28	868	0	10000	3	1	0	3	0
26	869	0	10000	3	1	0	3	0
26	870	0	10000	3	1	0	3	0
27	871	0	10000	3	1	0	3	0
27	872	0	10000	3	1	0	3	0
28	873	0	10000	3	1	0	3	0
28	874	0	10000	3	1	0	3	0
28	875	0	10000	3	1	0	3	0
28	876	0	10000	3	1	0	3	0
27	877	0	10000	3	1	0	3	0
26	878	0	10000	3	1	0	3	0
27	879	0	10000	3	1	0	3	0
27	880	0	10000	3	1	0	3	0
28	881	0	10000	3	1	0	3	0
27	882	0	10000	3	1	0	3	0
27	883	0	10000	3	1	0	3	0
26	884	0	10000	3	1	0	3	0
24	885	0	10000	3	1	0	3	0
23	886	0	10000	3	1	0	3	0
24	887	0	10000	3	1	0	3	0
23	888	0	10000	3	1	0	3	0
23	889	0	10000	3	1	0	3	0
23	890	0	10000	3	1	0	3	0
23	891	0	10000	3	1	0	3	0
24	892	0	10000	3	1	0	3	0
25	893	0	10000	3	1	0	3	0
26	894	0	10000	3	1	0	3	0
27	895	0	10000	3	1	0	3	0
27	896	0	10000	3	1	0	3	0
25	897	0	10000	3	1	0	3	0
25	898	0	10000	3	1	0	3	0
27	899	0	10000	3	1	0	3	0
28	900	0	10000	3	1	0	3	0
29	901	0	10000	3	1	0	3	0
30	902	0	10000	3	1	0	3	0
32	903	0	10000	3	1	0	3	0
34	904	0	10000	3	1	0	3	0
34	905	0	10000	3	1	0	3	0
33	906	0	10000	3	1	0	3	0
34	907	0	10000	3	1	0	3	0
34	908	0	10000	3	1	0	3	0
32	909	0	10000	3	1	0	3	0
31	910	0	10000	3	1	0	3	0
29	911	0	10000	3	1	0	3	0
29	912	0	10000	3	1	0	3	0
27	913	0	10000	3	1	0	3	0
28	914	0	10000	3	1	0	3	0
29	915	0	10000	3	1	0	3	0
28	916	0	10000	3	1	0	3	0
26	917	0	10000	3	1	0	3	0
25	918	0	10000	3	1	0	3	0
25	919	0	10000	3	1	0	3	0
27	920	0	10000	3	1	0	3	0
27	921	0	10000	3	1	0	3	0
26	922	0	10000	3	1	0	3	0
25	923	0	10000	3	1	0	3	0
24	924	0	10000	3	1	0	3	0
23	925	0	10000	3	1	0	3	0
23	926	0	10000	3	1	0	3	0
25	927	0	10000	3	1	0	3	0
26	928	0	10000	3	1	0	3	0
26	929	0	10000	3	1	0	3	0
26	930	0	10000	3	1	0	3	0
26	931	0	10000	3	1	0	3	0
26	932	0	10000	3	1	0	3	0
26	933	0	10000	3	1	0	3	0
26	934	0	10000	3	1	0	3	0
26	935	0	10000	3	1	0	3	0
25	936	0	10000	3	1	0	3	0
24	937	0	10000	3	1	0	3	0
25	938	0	10000	3	1	0	3	0
27	939	0	10000	3	1	0	3	0
27	940	0	10000	3	1	0	3	0
28	941	0	10000	3	1	0	3	0
29	942	0	10000	3	1	0	3	0
29	943	0	10000	3	1	0	3	0
27	944	0	10000	3	1	0	3	0
27	945	0	10000	3	1	0	3	0
27	946	0	10000	3	1	0	3	0
26	947	0	10000	3	1	0	3	0
26	948	0	10000	3	1	0	3	0
26	949	0	10000	3	1	0	3	0
24	950	0	10000	3	1	0	3	0
24	951	0	10000	3	1	0	3	0
25	952	0	10000	3	1	0	3	0
24	953	0	10000	3	1	0	3	0
25	954	0	10000	3	1	0	3	0
26	955	0	10000	3	1	0	3	0
26	956	0	10000	3	1	0	3	0
23	957	0	10000	3	1	0	3	0
23	958	0	10000	3	1	0	3	0
21	959	0	10000	3	1	0	3	0
21	960	0	10000	3	1	0	3	0
23	961	0	10000	3	1	0	3	0
23	962	0	10000	3	1	0	3	0
23	963	0	10000	3	1	0	3	0
22	964	0	10000	3	1	0	3	0
20	965	0	10000	3	1	0	3	0
20	966	0	10000	3	1	0	3	0
22	967	0	10000	3	1	0	3	0
21	968	0	10000	3	1	0	3	0
20	969	0	10000	3	1	0	3	0
20	970	0	10000	3	1	0	3	0
19	971	0	10000	3	1	0	3	0
19	972	0	10000	3	1	0	3	0
19	973	0	10000	3	1	0	3	0
18	974	0	10000	3	1	0	3	0
18	975	0	10000	3	1	0	3	0
20	976	0	10000	3	1	0	3	0
17	977	0	10000	3	1	0	3	0
16	978	0	10000	3	1	0	3	0
17	979	0	10000	3	1	0	3	0
17	980	0	10000	3	1	0	3	0
19	981	0	10000	3	1	0	3	0
19	982	0	10000	3	1	0	3	0
19	983	0	10000	3	1	0	3	0
19	984	0	10000	3	1	0	3	0
19	985	0	10000	3	1	0	3	0
19	986	0	10000	3	1	0	3	0
20	987	0	10000	3	1	0	3	0
20	988	0	10000	3	1	0	3	0
19	989	0	10000	3	1	0	3	0
20	990	0	10000	3	1	0	3	0
20	991	0	10000	3	1	0	3	0
19	992	0	10000	3	1	0	3	0
19	993	0	10000	3	1	0	3	0
18	994	0	10000	3	1	0	3	0
18	995	0	10000	3	1	0	3	0
19	996	0	10000	3	1	0	3	0
18	997	0	10000	3	1	0	3	0
17	998	0	10000	3	1	0	3	0
18	999	0	10000	3	1	0	3	0
20	1000	0	10000	3	1	0	3	0
32	2	7	10000	4	1	0	4	0
34	3	7	10000	4	1	0	4	0
34	4	7	10000	4	1	0	4	0
33	5	7	10000	4	1	0	4	0
34	6	7	10000	4	1	0	4	0
35	7	7	10000	4	1	0	4	0
33	8	7	10000	4	1	0	4	0
32	9	7	10000	4	1	0	4	0
31	10	7	10000	4	1	0	4	0
30	11	7	10000	4	1	0	4	0
31	12	7	10000	4	1	0	4	0
32	13	7	10000	4	1	0	4	0
34	14	7	10000	4	1	0	4	0
35	15	7	10000	4	1	0	4	0
36	16	7	10000	4	1	0	4	0
36	17	7	10000	4	1	0	4	0
38	18	7	10000	4	1	0	4	0
39	19	7	10000	4	1	0	4	0
40	20	7	10000	4	1	0	4	0
39	21	7	10000	4	1	0	4	0
38	22	7	10000	4	1	0	4	0
38	23	7	10000	4	1	0	4	0
37	24	7	10000	4	1	0	4	0
37	25	7	10000	4	1	0	4	0
38	26	7	10000	4	1	0	4	0
41	27	7	10000	4	1	0	4	0
42	28	7	10000	4	1	0	4	0
41	29	7	10000	4	1	0	4	0
40	30	7	10000	4	1	0	4	0
39	31	7	10000	4	1	0	4	0
38	32	7	10000	4	1	0	4	0
36	33	7	10000	4	1	0	4	0
35	34	7	10000	4	1	0	4	0
34	35	7	10000	4	1	0	4	0
33	36	7	10000	4	1	0	4	0
30	37	7	10000	4	1	0	4	0
29	38	7	10000	4	1	0	4	0
29	39	7	10000	4	1	0	4	0
29	40	7	10000	4	1	0	4	0
29	41	7	10000	4	1	0	4	0
28	42	7	10000	4	1	0	4	0
28	43	7	10000	4	1	0	4	0
26	44	7	10000	4	1	0	4	0
24	45	7	10000	4	1	0	4	0
24	46	7	10000	4	1	0	4	0
26	47	7	10000	4	1	0	4	0
26	48	7	10000	4	1	0	4	0
26	49	7	10000	4	1	0	4	0
24	50	7	10000	4	1	0	4	0
23	51	7	10000	4	1	0	4	0
22	52	7	10000	4	1	0	4	0
21	53	7	10000	4	1	0	4	0
21	54	7	10000	4	1	0	4	0
20	55	7	10000	4	1	0	4	0
20	56	7	10000	4	1	0	4	0
18	57	7	10000	4	1	0	4	0
19	58	7	10000	4	1	0	4	0
19	59	7	10000	4	1	0	4	0
19	60	7	10000	4	1	0	4	0
20	61	7	10000	4	1	0	4	0
20	62	7	10000	4	1	0	4	0
21	63	7	10000	4	1	0	4	0
20	64	7	10000	4	1	0	4	0
20	65	7	10000	4	1	0	4	0
20	66	7	10000	4	1	0	4	0
24	67	7	10000	4	1	0	4	0
23	68	7	10000	4	1	0	4	0
22	69	7	10000	4	1	0	4	0
21	70	7	10000	4	1	0	4	0
21	71	7	10000	4	1	0	4	0
20	72	7	10000	4	1	0	4	0
20	73	7	10000	4	1	0	4	0
21	74	7	10000	4	1	0	4	0
24	75	7	10000	4	1	0	4	0
29	76	7	10000	4	1	0	4	0
28	77	7	10000	4	1	0	4	0
27	78	7	10000	4	1	0	4	0
26	79	7	10000	4	1	0	4	0
27	80	7	10000	4	1	0	4	0
29	81	7	10000	4	1	0	4	0
33	82	7	10000	4	1	0	4	0
35	83	7	10000	4	1	0	4	0
36	84	7	10000	4	1	0	4	0
35	85	7	10000	4	1	0	4	0
35	86	7	10000	4	1	0	4	0
36	87	7	10000	4	1	0	4	0
36	88	7	10000	4	1	0	4	0
37	89	7	10000	4	1	0	4	0
37	90	7	10000	4	1	0	4	0
36	91	7	10000	4	1	0	4	0
35	92	7	10000	4	1	0	4	0
33	93	7	10000	4	1	0	4	0
33	94	7	10000	4	1	0	4	0
32	95	7	10000	4	1	0	4	0
32	96	7	10000	4	1	0	4	0
32	97	7	10000	4	1	0	4	0
33	98	7	10000	4	1	0	4	0
33	99	7	10000	4	1	0	4	0
33	100	7	10000	4	1	0	4	0
32	101	7	10000	4	1	0	4	0
32	102	7	10000	4	1	0	4	0
31	103	7	10000	4	1	0	4	0
32	104	7	10000	4	1	0	4	0
32	105	7	10000	4	1	0	4	0
30	106	7	10000	4	1	0	4	0
31	107	7	10000	4	1	0	4	0
30	108	7	10000	4	1	0	4	0
29	109	7	10000	4	1	0	4	0
28	110	7	10000	4	1	0	4	0
30	111	7	10000	4	1	0	4	0
30	112	7	10000	4	1	0	4	0
32	113	7	10000	4	1	0	4	0
33	114	7	10000	4	1	0	4	0
32	115	7	10000	4	1	0	4	0
32	116	7	10000	4	1	0	4	0
30	117	7	10000	4	1	0	4	0
28	118	7	10000	4	1	0	4	0
27	119	7	10000	4	1	0	4	0
28	120	7	10000	4	1	0	4	0
27	121	7	10000	4	1	0	4	0
27	122	7	10000	4	1	0	4	0
27	123	7	10000	4	1	0	4	0
25	124	7	10000	4	1	0	4	0
25	125	7	10000	4	1	0	4	0
24	126	7	10000	4	1	0	4	0
26	127	7	10000	4	1	0	4	0
27	128	7	10000	4	1	0	4	0
27	129	7	10000	4	1	0	4	0
26	130	7	10000	4	1	0	4	0
26	131	7	10000	4	1	0	4	0
27	132	7	10000	4	1	0	4	0
24	133	7	10000	4	1	0	4	0
26	134	7	10000	4	1	0	4	0
28	135	7	10000	4	1	0	4	0
29	136	7	10000	4	1	0	4	0
26	137	7	10000	4	1	0	4	0
26	138	7	10000	4	1	0	4	0
25	139	7	10000	4	1	0	4	0
26	140	7	10000	4	1	0	4	0
28	141	7	10000	4	1	0	4	0
29	142	7	10000	4	1	0	4	0
29	143	7	10000	4	1	0	4	0
28	144	7	10000	4	1	0	4	0
27	145	7	10000	4	1	0	4	0
25	146	7	10000	4	1	0	4	0
26	147	7	10000	4	1	0	4	0
25	148	7	10000	4	1	0	4	0
24	149	7	10000	4	1	0	4	0
24	150	7	10000	4	1	0	4	0
24	151	7	10000	4	1	0	4	0
24	152	7	10000	4	1	0	4	0
24	153	7	10000	4	1	0	4	0
23	154	7	10000	4	1	0	4	0
24	155	7	10000	4	1	0	4	0
24	156	7	10000	4	1	0	4	0
21	157	7	10000	4	1	0	4	0
22	158	7	10000	4	1	0	4	0
24	159	7	10000	4	1	0	4	0
27	160	7	10000	4	1	0	4	0
29	161	7	10000	4	1	0	4	0
29	162	7	10000	4	1	0	4	0
29	163	7	10000	4	1	0	4	0
29	164	7	10000	4	1	0	4	0
29	165	7	10000	4	1	0	4	0
29	166	7	10000	4	1	0	4	0
30	167	7	10000	4	1	0	4	0
30	168	7	10000	4	1	0	4	0
30	169	7	10000	4	1	0	4	0
29	170	7	10000	4	1	0	4	0
29	171	7	10000	4	1	0	4	0
28	172	7	10000	4	1	0	4	0
27	173	7	10000	4	1	0	4	0
29	174	7	10000	4	1	0	4	0
29	175	7	10000	4	1	0	4	0
28	176	7	10000	4	1	0	4	0
26	177	7	10000	4	1	0	4	0
25	178	7	10000	4	1	0	4	0
24	179	7	10000	4	1	0	4	0
24	180	7	10000	4	1	0	4	0
23	181	7	10000	4	1	0	4	0
23	182	7	10000	4	1	0	4	0
22	183	7	10000	4	1	0	4	0
20	184	7	10000	4	1	0	4	0
20	185	7	10000	4	1	0	4	0
19	186	7	10000	4	1	0	4	0
20	187	7	10000	4	1	0	4	0
20	188	7	10000	4	1	0	4	0
19	189	7	10000	4	1	0	4	0
18	190	7	10000	4	1	0	4	0
17	191	7	10000	4	1	0	4	0
18	192	7	10000	4	1	0	4	0
18	193	7	10000	4	1	0	4	0
18	194	7	10000	4	1	0	4	0
18	195	7	10000	4	1	0	4	0
18	196	7	10000	4	1	0	4	0
15	197	7	10000	4	1	0	4	0
15	198	7	10000	4	1	0	4	0
15	199	7	10000	4	1	0	4	0
16	200	7	10000	4	1	0	4	0
16	201	7	10000	4	1	0	4	0
17	202	7	10000	4	1	0	4	0
18	203	7	10000	4	1	0	4	0
19	204	7	10000	4	1	0	4	0
19	205	7	10000	4	1	0	4	0
19	206	7	10000	4	1	0	4	0
21	207	7	10000	4	1	0	4	0
22	208	7	10000	4	1	0	4	0
21	209	7	10000	4	1	0	4	0
21	210	7	10000	4	1	0	4	0
21	211	7	10000	4	1	0	4	0
20	212	7	10000	4	1	0	4	0
19	213	7	10000	4	1	0	4	0
19	214	7	10000	4	1	0	4	0
20	215	7	10000	4	1	0	4	0
22	216	7	10000	4	1	0	4	0
22	217	7	10000	4	1	0	4	0
23	218	7	10000	4	1	0	4	0
22	219	7	10000	4	1	0	4	0
22	220	7	10000	4	1	0	4	0
22	221	7	10000	4	1	0	4	0
22	222	7	10000	4	1	0	4	0
22	223	7	10000	4	1	0	4	0
22	224	7	10000	4	1	0	4	0
20	225	7	10000	4	1	0	4	0
20	226	7	10000	4	1	0	4	0
20	227	7	10000	4	1	0	4	0
20	228	7	10000	4	1	0	4	0
19	229	7	10000	4	1	0	4	0
20	230	7	10000	4	1	0	4	0
20	231	7	10000	4	1	0	4	0
20	232	7	10000	4	1	0	4	0
20	233	7	10000	4	1	0	4	0
20	234	7	10000	4	1	0	4	0
19	235	7	10000	4	1	0	4	0
20	236	7	10000	4	1	0	4	0
17	237	7	10000	4	1	0	4	0
17	238	7	10000	4	1	0	4	0
17	239	7	10000	4	1	0	4	0
17	240	7	10000	4	1	0	4	0
17	241	7	10000	4	1	0	4	0
18	242	7	10000	4	1	0	4	0
16	243	7	10000	4	1	0	4	0
15	244	7	10000	4	1	0	4	0
16	245	7	10000	4	1	0	4	0
14	246	7	10000	4	1	0	4	0
16	247	7	10000	4	1	0	4	0
16	248	7	10000	4	1	0	4	0
15	249	7	10000	4	1	0	4	0
15	250	7	10000	4	1	0	4	0
15	251	7	10000	4	1	0	4	0
15	252	7	10000	4	1	0	4	0
16	253	7	10000	4	1	0	4	0
19	254	7	10000	4	1	0	4	0
18	255	7	10000	4	1	0	4	0
18	256	7	10000	4	1	0	4	0
18	257	7	10000	4	1	0	4	0
18	258	7	10000	4	1	0	4	0
18	259	7	10000	4	1	0	4	0
18	260	7	10000	4	1	0	4	0
17	261	7	10000	4	1	0	4	0
18	262	7	10000	4	1	0	4	0
19	263	7	10000	4	1	0	4	0
17	264	7	10000	4	1	0	4	0
17	265	7	10000	4	1	0	4	0
17	266	7	10000	4	1	0	4	0
18	267	7	10000	4	1	0	4	0
18	268	7	10000	4	1	0	4	0
20	269	7	10000	4	1	0	4	0
22	270	7	10000	4	1	0	4	0
21	271	7	10000	4	1	0	4	0
21	272	7	10000	4	1	0	4	0
20	273	7	10000	4	1	0	4	0
20	274	7	10000	4	1	0	4	0
20	275	7	10000	4	1	0	4	0
19	276	7	10000	4	1	0	4	0
17	277	7	10000	4	1	0	4	0
17	278	7	10000	4	1	0	4	0
16	279	7	10000	4	1	0	4	0
17	280	7	10000	4	1	0	4	0
17	281	7	10000	4	1	0	4	0
17	282	7	10000	4	1	0	4	0
17	283	7	10000	4	1	0	4	0
16	284	7	10000	4	1	0	4	0
15	285	7	10000	4	1	0	4	0
15	286	7	10000	4	1	0	4	0
18	287	7	10000	4	1	0	4	0
18	288	7	10000	4	1	0	4	0
17	289	7	10000	4	1	0	4	0
16	290	7	10000	4	1	0	4	0
16	291	7	10000	4	1	0	4	0
16	292	7	10000	4	1	0	4	0
16	293	7	10000	4	1	0	4	0
16	294	7	10000	4	1	0	4	0
17	295	7	10000	4	1	0	4	0
18	296	7	10000	4	1	0	4	0
17	297	7	10000	4	1	0	4	0
16	298	7	10000	4	1	0	4	0
17	299	7	10000	4	1	0	4	0
17	300	7	10000	4	1	0	4	0
17	301	7	10000	4	1	0	4	0
17	302	7	10000	4	1	0	4	0
18	303	7	10000	4	1	0	4	0
17	304	7	10000	4	1	0	4	0
16	305	7	10000	4	1	0	4	0
15	306	7	10000	4	1	0	4	0
16	307	7	10000	4	1	0	4	0
16	308	7	10000	4	1	0	4	0
15	309	7	10000	4	1	0	4	0
14	310	7	10000	4	1	0	4	0
15	311	7	10000	4	1	0	4	0
14	312	7	10000	4	1	0	4	0
13	313	7	10000	4	1	0	4	0
13	314	7	10000	4	1	0	4	0
14	315	7	10000	4	1	0	4	0
15	316	7	10000	4	1	0	4	0
14	317	7	10000	4	1	0	4	0
13	318	7	10000	4	1	0	4	0
13	319	7	10000	4	1	0	4	0
13	320	7	10000	4	1	0	4	0
15	321	7	10000	4	1	0	4	0
16	322	7	10000	4	1	0	4	0
16	323	7	10000	4	1	0	4	0
15	324	7	10000	4	1	0	4	0
15	325	7	10000	4	1	0	4	0
17	326	7	10000	4	1	0	4	0
19	327	7	10000	4	1	0	4	0
19	328	7	10000	4	1	0	4	0
18	329	7	10000	4	1	0	4	0
17	330	7	10000	4	1	0	4	0
16	331	7	10000	4	1	0	4	0
17	332	7	10000	4	1	0	4	0
17	333	7	10000	4	1	0	4	0
18	334	7	10000	4	1	0	4	0
18	335	7	10000	4	1	0	4	0
19	336	7	10000	4	1	0	4	0
16	337	7	10000	4	1	0	4	0
16	338	7	10000	4	1	0	4	0
17	339	7	10000	4	1	0	4	0
17	340	7	10000	4	1	0	4	0
17	341	7	10000	4	1	0	4	0
17	342	7	10000	4	1	0	4	0
17	343	7	10000	4	1	0	4	0
16	344	7	10000	4	1	0	4	0
17	345	7	10000	4	1	0	4	0
19	346	7	10000	4	1	0	4	0
21	347	7	10000	4	1	0	4	0
21	348	7	10000	4	1	0	4	0
21	349	7	10000	4	1	0	4	0
21	350	7	10000	4	1	0	4	0
21	351	7	10000	4	1	0	4	0
21	352	7	10000	4	1	0	4	0
20	353	7	10000	4	1	0	4	0
20	354	7	10000	4	1	0	4	0
20	355	7	10000	4	1	0	4	0
19	356	7	10000	4	1	0	4	0
17	357	7	10000	4	1	0	4	0
18	358	7	10000	4	1	0	4	0
18	359	7	10000	4	1	0	4	0
19	360	7	10000	4	1	0	4	0
20	361	7	10000	4	1	0	4	0
19	362	7	10000	4	1	0	4	0
18	363	7	10000	4	1	0	4	0
18	364	7	10000	4	1	0	4	0
17	365	7	10000	4	1	0	4	0
16	366	7	10000	4	1	0	4	0
18	367	7	10000	4	1	0	4	0
19	368	7	10000	4	1	0	4	0
20	369	7	10000	4	1	0	4	0
23	370	7	10000	4	1	0	4	0
23	371	7	10000	4	1	0	4	0
24	372	7	10000	4	1	0	4	0
25	373	7	10000	4	1	0	4	0
25	374	7	10000	4	1	0	4	0
24	375	7	10000	4	1	0	4	0
24	376	7	10000	4	1	0	4	0
21	377	7	10000	4	1	0	4	0
21	378	7	10000	4	1	0	4	0
22	379	7	10000	4	1	0	4	0
22	380	7	10000	4	1	0	4	0
22	381	7	10000	4	1	0	4	0
21	382	7	10000	4	1	0	4	0
21	383	7	10000	4	1	0	4	0
20	384	7	10000	4	1	0	4	0
20	385	7	10000	4	1	0	4	0
19	386	7	10000	4	1	0	4	0
20	387	7	10000	4	1	0	4	0
20	388	7	10000	4	1	0	4	0
19	389	7	10000	4	1	0	4	0
18	390	7	10000	4	1	0	4	0
18	391	7	10000	4	1	0	4	0
18	392	7	10000	4	1	0	4	0
17	393	7	10000	4	1	0	4	0
17	394	7	10000	4	1	0	4	0
16	395	7	10000	4	1	0	4	0
17	396	7	10000	4	1	0	4	0
15	397	7	10000	4	1	0	4	0
16	398	7	10000	4	1	0	4	0
16	399	7	10000	4	1	0	4	0
16	400	7	10000	4	1	0	4	0
17	401	7	10000	4	1	0	4	0
18	402	7	10000	4	1	0	4	0
18	403	7	10000	4	1	0	4	0
17	404	7	10000	4	1	0	4	0
17	405	7	10000	4	1	0	4	0
16	406	7	10000	4	1	0	4	0
17	407	7	10000	4	1	0	4	0
17	408	7	10000	4	1	0	4	0
18	409	7	10000	4	1	0	4	0
19	410	7	10000	4	1	0	4	0
18	411	7	10000	4	1	0	4	0
19	412	7	10000	4	1	0	4	0
19	413	7	10000	4	1	0	4	0
21	414	7	10000	4	1	0	4	0
21	415	7	10000	4	1	0	4	0
22	416	7	10000	4	1	0	4	0
20	417	7	10000	4	1	0	4	0
19	418	7	10000	4	1	0	4	0
18	419	7	10000	4	1	0	4	0
19	420	7	10000	4	1	0	4	0
19	421	7	10000	4	1	0	4	0
18	422	7	10000	4	1	0	4	0
17	423	7	10000	4	1	0	4	0
17	424	7	10000	4	1	0	4	0
17	425	7	10000	4	1	0	4	0
16	426	7	10000	4	1	0	4	0
18	427	7	10000	4	1	0	4	0
19	428	7	10000	4	1	0	4	0
18	429	7	10000	4	1	0	4	0
18	430	7	10000	4	1	0	4	0
17	431	7	10000	4	1	0	4	0
17	432	7	10000	4	1	0	4	0
17	433	7	10000	4	1	0	4	0
18	434	7	10000	4	1	0	4	0
18	435	7	10000	4	1	0	4	0
19	436	7	10000	4	1	0	4	0
17	437	7	10000	4	1	0	4	0
17	438	7	10000	4	1	0	4	0
17	439	7	10000	4	1	0	4	0
16	440	7	10000	4	1	0	4	0
16	441	7	10000	4	1	0	4	0
16	442	7	10000	4	1	0	4	0
16	443	7	10000	4	1	0	4	0
15	454	7	10000	4	1	0	4	0
15	455	7	10000	4	1	0	4	0
14	456	7	10000	4	1	0	4	0
15	457	7	10000	4	1	0	4	0
16	458	7	10000	4	1	0	4	0
15	459	7	10000	4	1	0	4	0
15	460	7	10000	4	1	0	4	0
15	461	7	10000	4	1	0	4	0
14	462	7	10000	4	1	0	4	0
13	463	7	10000	4	1	0	4	0
14	464	7	10000	4	1	0	4	0
14	465	7	10000	4	1	0	4	0
15	463	7	10000	4	1	0	4	0
12	464	7	10000	4	1	0	4	0
13	465	7	10000	4	1	0	4	0
14	466	7	10000	4	1	0	4	0
15	467	7	10000	4	1	0	4	0
15	468	7	10000	4	1	0	4	0
15	469	7	10000	4	1	0	4	0
14	470	7	10000	4	1	0	4	0
14	471	7	10000	4	1	0	4	0
13	472	7	10000	4	1	0	4	0
12	474	7	10000	4	1	0	4	0
14	475	7	10000	4	1	0	4	0
13	476	7	10000	4	1	0	4	0
12	477	7	10000	4	1	0	4	0
11	478	7	10000	4	1	0	4	0
12	479	7	10000	4	1	0	4	0
11	480	7	10000	4	1	0	4	0
12	481	7	10000	4	1	0	4	0
15	482	7	10000	4	1	0	4	0
15	483	7	10000	4	1	0	4	0
15	479	7	10000	4	1	0	4	0
14	480	7	10000	4	1	0	4	0
13	481	7	10000	4	1	0	4	0
14	482	7	10000	4	1	0	4	0
15	483	7	10000	4	1	0	4	0
13	484	7	10000	4	1	0	4	0
13	484	7	10000	4	1	0	4	0
14	485	7	10000	4	1	0	4	0
12	486	7	10000	4	1	0	4	0
12	487	7	10000	4	1	0	4	0
13	489	7	10000	4	1	0	4	0
16	490	7	10000	4	1	0	4	0
16	491	7	10000	4	1	0	4	0
16	492	7	10000	4	1	0	4	0
15	493	7	10000	4	1	0	4	0
14	494	7	10000	4	1	0	4	0
14	496	7	10000	4	1	0	4	0
13	497	7	10000	4	1	0	4	0
13	498	7	10000	4	1	0	4	0
14	499	7	10000	4	1	0	4	0
14	500	7	10000	4	1	0	4	0
13	501	7	10000	4	1	0	4	0
15	500	7	10000	4	1	0	4	0
14	501	7	10000	4	1	0	4	0
15	502	7	10000	4	1	0	4	0
16	503	7	10000	4	1	0	4	0
15	507	7	10000	4	1	0	4	1
14	508	7	10000	4	1	0	4	1
14	509	7	10000	4	1	0	4	1
13	510	7	10000	4	1	0	4	1
13	511	7	10000	4	1	0	4	1
15	512	7	10000	4	1	0	4	1
15	511	7	10000	4	1	0	4	1
16	512	7	10000	4	1	0	4	1
15	513	7	10000	4	1	0	4	1
14	514	7	10000	4	1	0	4	1
15	515	7	10000	4	1	0	4	1
14	516	7	10000	4	1	0	4	1
13	519	7	10000	4	1	0	4	1
14	520	7	10000	4	1	0	4	1
14	521	7	10000	4	1	0	4	1
12	522	7	10000	4	1	0	4	1
12	523	7	10000	4	1	0	4	1
12	524	7	10000	4	1	0	4	1
12	523	7	10000	4	1	0	4	1
12	524	7	10000	4	1	0	4	1
12	525	7	10000	4	1	0	4	1
13	526	7	10000	4	1	0	4	1
11	527	7	10000	4	1	0	4	1
11	528	7	10000	4	1	0	4	1
10	530	7	10000	4	1	0	4	1
13	531	7	10000	4	1	0	4	1
14	532	7	10000	4	1	0	4	1
13	533	7	10000	4	1	0	4	1
12	534	7	10000	4	1	0	4	1
12	535	7	10000	4	1	0	4	1
12	534	7	10000	4	1	0	4	1
13	535	7	10000	4	1	0	4	1
15	536	7	10000	4	1	0	4	1
15	537	7	10000	4	1	0	4	1
15	536	7	10000	4	1	0	4	1
13	537	7	10000	4	1	0	4	1
14	538	7	10000	4	1	0	4	1
14	539	7	10000	4	1	0	4	1
14	540	7	10000	4	1	0	4	1
14	541	7	10000	4	1	0	4	1
15	542	7	10000	4	1	0	4	1
16	543	7	10000	4	1	0	4	1
15	544	7	10000	4	1	0	4	1
15	545	7	10000	4	1	0	4	1
13	546	7	10000	4	1	0	4	1
15	547	7	10000	4	1	0	4	1
15	548	7	10000	4	1	0	4	1
14	549	7	10000	4	1	0	4	1
14	550	7	10000	4	1	0	4	1
14	551	7	10000	4	1	0	4	1
15	552	7	10000	4	1	0	4	0
15	553	7	10000	4	1	0	4	0
14	554	7	10000	4	1	0	4	0
15	555	7	10000	4	1	0	4	0
15	556	7	10000	4	1	0	4	0
13	557	7	10000	4	1	0	4	0
13	558	7	10000	4	1	0	4	0
12	559	7	10000	4	1	0	4	0
12	560	7	10000	4	1	0	4	0
12	561	7	10000	4	1	0	4	0
12	562	7	10000	4	1	0	4	0
12	563	7	10000	4	1	0	4	0
12	564	7	10000	4	1	0	4	0
12	565	7	10000	4	1	0	4	0
13	566	7	10000	4	1	0	4	0
17	567	7	10000	4	1	0	4	0
17	568	7	10000	4	1	0	4	0
17	569	7	10000	4	1	0	4	0
19	570	7	10000	4	1	0	4	0
20	571	7	10000	4	1	0	4	0
21	572	7	10000	4	1	0	4	0
23	573	7	10000	4	1	0	4	0
24	574	7	10000	4	1	0	4	0
27	575	7	10000	4	1	0	4	0
28	576	7	10000	4	1	0	4	0
26	577	7	10000	4	1	0	4	0
24	578	7	10000	4	1	0	4	0
25	579	7	10000	4	1	0	4	0
27	580	7	10000	4	1	0	4	0
29	581	7	10000	4	1	0	4	0
31	582	7	10000	4	1	0	4	0
31	583	7	10000	4	1	0	4	0
31	584	7	10000	4	1	0	4	0
33	585	7	10000	4	1	0	4	0
34	586	7	10000	4	1	0	4	0
36	587	7	10000	4	1	0	4	0
39	588	7	10000	4	1	0	4	0
41	589	7	10000	4	1	0	4	0
44	590	7	10000	4	1	0	4	0
63	591	7	10000	4	1	0	4	0
88	592	7	10000	4	1	0	4	0
92	593	7	10000	4	1	0	4	0
92	594	7	10000	4	1	0	4	0
102	595	7	10000	4	1	0	4	0
110	596	7	10000	4	1	0	4	0
105	597	7	10000	4	1	0	4	0
104	598	7	10000	4	1	0	4	0
106	599	7	10000	4	1	0	4	0
136	600	7	10000	4	1	0	4	0
160	601	7	10000	4	1	0	4	0
161	602	7	10000	4	1	0	4	0
165	603	7	10000	4	1	0	4	0
164	604	7	10000	4	1	0	4	0
175	605	7	10000	4	1	0	4	0
215	606	7	10000	4	1	0	4	0
255	607	7	10000	4	1	0	4	0
261	608	7	10000	4	1	0	4	0
257	609	7	10000	4	1	0	4	0
270	610	7	10000	4	1	0	4	0
266	611	7	10000	4	1	0	4	0
264	612	7	10000	4	1	0	4	0
276	613	7	10000	4	1	0	4	0
296	614	7	10000	4	1	0	4	0
293	615	7	10000	4	1	0	4	0
307	616	7	10000	4	1	0	4	0
355	617	7	10000	4	1	0	4	0
438	618	7	10000	4	1	0	4	0
497	619	7	10000	4	1	0	4	0
508	620	7	10000	4	1	0	4	0
566	621	7	10000	4	1	0	4	0
611	622	7	10000	4	1	0	4	0
632	623	7	10000	4	1	0	4	0
629	624	7	10000	4	1	0	4	0
611	625	7	10000	4	1	0	4	0
585	626	7	10000	4	1	0	4	0
561	627	7	10000	4	1	0	4	0
542	628	7	10000	4	1	0	4	0
526	629	7	10000	4	1	0	4	0
513	630	7	10000	4	1	0	4	0
503	631	7	10000	4	1	0	4	0
494	632	7	10000	4	1	0	4	0
484	633	7	10000	4	1	0	4	0
477	634	7	10000	4	1	0	4	0
468	635	7	10000	4	1	0	4	0
462	636	7	10000	4	1	0	4	0
453	637	7	10000	4	1	0	4	0
441	638	7	10000	4	1	0	4	0
429	639	7	10000	4	1	0	4	0
418	640	7	10000	4	1	0	4	0
416	641	7	10000	4	1	0	4	0
414	642	7	10000	4	1	0	4	0
406	643	7	10000	4	1	0	4	0
394	644	7	10000	4	1	0	4	0
384	645	7	10000	4	1	0	4	0
374	646	7	10000	4	1	0	4	0
365	647	7	10000	4	1	0	4	0
354	648	7	10000	4	1	0	4	0
341	649	7	10000	4	1	0	4	0
326	650	7	10000	4	1	0	4	0
311	651	7	10000	4	1	0	4	0
301	652	7	10000	4	1	0	4	0
294	653	7	10000	4	1	0	4	0
288	654	7	10000	4	1	0	4	0
283	655	7	10000	4	1	0	4	0
279	656	7	10000	4	1	0	4	0
273	657	7	10000	4	1	0	4	0
269	658	7	10000	4	1	0	4	0
265	659	7	10000	4	1	0	4	0
262	660	7	10000	4	1	0	4	0
260	661	7	10000	4	1	0	4	0
255	662	7	10000	4	1	0	4	0
250	663	7	10000	4	1	0	4	0
243	664	7	10000	4	1	0	4	0
236	665	7	10000	4	1	0	4	0
229	666	7	10000	4	1	0	4	0
226	667	7	10000	4	1	0	4	0
225	668	7	10000	4	1	0	4	0
224	669	7	10000	4	1	0	4	0
226	670	7	10000	4	1	0	4	0
229	671	7	10000	4	1	0	4	0
231	672	7	10000	4	1	0	4	0
233	673	7	10000	4	1	0	4	0
236	674	7	10000	4	1	0	4	0
239	675	7	10000	4	1	0	4	0
243	676	7	10000	4	1	0	4	0
242	677	7	10000	4	1	0	4	0
241	678	7	10000	4	1	0	4	0
240	679	7	10000	4	1	0	4	0
237	680	7	10000	4	1	0	4	0
234	681	7	10000	4	1	0	4	0
230	682	7	10000	4	1	0	4	0
225	683	7	10000	4	1	0	4	0
219	684	7	10000	4	1	0	4	0
213	685	7	10000	4	1	0	4	0
208	686	7	10000	4	1	0	4	0
203	687	7	10000	4	1	0	4	0
199	688	7	10000	4	1	0	4	0
193	689	7	10000	4	1	0	4	0
188	690	7	10000	4	1	0	4	0
184	691	7	10000	4	1	0	4	0
180	692	7	10000	4	1	0	4	0
176	693	7	10000	4	1	0	4	0
174	694	7	10000	4	1	0	4	0
172	695	7	10000	4	1	0	4	0
169	696	7	10000	4	1	0	4	0
165	697	7	10000	4	1	0	4	0
160	698	7	10000	4	1	0	4	0
156	699	7	10000	4	1	0	4	0
152	700	7	10000	4	1	0	4	0
147	701	7	10000	4	1	0	4	0
140	702	7	10000	4	1	0	4	0
134	703	7	10000	4	1	0	4	0
128	704	7	10000	4	1	0	4	0
122	705	7	10000	4	1	0	4	0
116	706	7	10000	4	1	0	4	0
113	707	7	10000	4	1	0	4	0
108	708	7	10000	4	1	0	4	0
104	709	7	10000	4	1	0	4	0
99	710	7	10000	4	1	0	4	0
94	711	7	10000	4	1	0	4	0
91	712	7	10000	4	1	0	4	0
88	713	7	10000	4	1	0	4	0
84	714	7	10000	4	1	0	4	0
81	715	7	10000	4	1	0	4	0
78	716	7	10000	4	1	0	4	0
73	717	7	10000	4	1	0	4	0
69	718	7	10000	4	1	0	4	0
67	719	7	10000	4	1	0	4	0
64	720	7	10000	4	1	0	4	0
62	721	7	10000	4	1	0	4	0
61	722	7	10000	4	1	0	4	0
63	723	7	10000	4	1	0	4	0
64	724	7	10000	4	1	0	4	0
65	725	7	10000	4	1	0	4	0
68	726	7	10000	4	1	0	4	0
71	727	7	10000	4	1	0	4	0
73	728	7	10000	4	1	0	4	0
74	729	7	10000	4	1	0	4	0
74	730	7	10000	4	1	0	4	0
72	731	7	10000	4	1	0	4	0
70	732	7	10000	4	1	0	4	0
68	733	7	10000	4	1	0	4	0
65	734	7	10000	4	1	0	4	0
63	735	7	10000	4	1	0	4	0
62	736	7	10000	4	1	0	4	0
57	737	7	10000	4	1	0	4	0
56	738	7	10000	4	1	0	4	0
56	739	7	10000	4	1	0	4	0
56	740	7	10000	4	1	0	4	0
56	741	7	10000	4	1	0	4	0
59	742	7	10000	4	1	0	4	0
60	743	7	10000	4	1	0	4	0
61	744	7	10000	4	1	0	4	0
63	745	7	10000	4	1	0	4	0
64	746	7	10000	4	1	0	4	0
66	747	7	10000	4	1	0	4	0
66	748	7	10000	4	1	0	4	0
64	749	7	10000	4	1	0	4	0
63	750	7	10000	4	1	0	4	0
61	751	7	10000	4	1	0	4	0
60	752	7	10000	4	1	0	4	0
58	753	7	10000	4	1	0	4	0
56	754	7	10000	4	1	0	4	0
54	755	7	10000	4	1	0	4	0
53	756	7	10000	4	1	0	4	0
50	757	7	10000	4	1	0	4	0
47	758	7	10000	4	1	0	4	0
47	759	7	10000	4	1	0	4	0
47	760	7	10000	4	1	0	4	0
47	761	7	10000	4	1	0	4	0
47	762	7	10000	4	1	0	4	0
49	763	7	10000	4	1	0	4	0
52	764	7	10000	4	1	0	4	0
54	765	7	10000	4	1	0	4	0
56	766	7	10000	4	1	0	4	0
57	767	7	10000	4	1	0	4	0
58	768	7	10000	4	1	0	4	0
56	769	7	10000	4	1	0	4	0
56	770	7	10000	4	1	0	4	0
55	771	7	10000	4	1	0	4	0
53	772	7	10000	4	1	0	4	0
52	773	7	10000	4	1	0	4	0
51	774	7	10000	4	1	0	4	0
51	775	7	10000	4	1	0	4	0
49	776	7	10000	4	1	0	4	0
45	777	7	10000	4	1	0	4	0
44	778	7	10000	4	1	0	4	0
43	779	7	10000	4	1	0	4	0
42	780	7	10000	4	1	0	4	0
42	781	7	10000	4	1	0	4	0
43	782	7	10000	4	1	0	4	0
44	783	7	10000	4	1	0	4	0
45	784	7	10000	4	1	0	4	0
45	785	7	10000	4	1	0	4	0
44	786	7	10000	4	1	0	4	0
45	787	7	10000	4	1	0	4	0
44	788	7	10000	4	1	0	4	0
43	789	7	10000	4	1	0	4	0
41	790	7	10000	4	1	0	4	0
39	791	7	10000	4	1	0	4	0
39	792	7	10000	4	1	0	4	0
38	793	7	10000	4	1	0	4	0
38	794	7	10000	4	1	0	4	0
37	795	7	10000	4	1	0	4	0
36	796	7	10000	4	1	0	4	0
35	797	7	10000	4	1	0	4	0
33	798	7	10000	4	1	0	4	0
35	799	7	10000	4	1	0	4	0
36	800	7	10000	4	1	0	4	0
37	801	7	10000	4	1	0	4	0
36	802	7	10000	4	1	0	4	0
35	803	7	10000	4	1	0	4	0
36	804	7	10000	4	1	0	4	0
39	805	7	10000	4	1	0	4	0
40	806	7	10000	4	1	0	4	0
44	807	7	10000	4	1	0	4	0
46	808	7	10000	4	1	0	4	0
48	809	7	10000	4	1	0	4	0
49	810	7	10000	4	1	0	4	0
49	811	7	10000	4	1	0	4	0
49	812	7	10000	4	1	0	4	0
47	813	7	10000	4	1	0	4	0
46	814	7	10000	4	1	0	4	0
45	815	7	10000	4	1	0	4	0
44	816	7	10000	4	1	0	4	0
41	817	7	10000	4	1	0	4	0
40	818	7	10000	4	1	0	4	0
40	819	7	10000	4	1	0	4	0
39	820	7	10000	4	1	0	4	0
37	821	7	10000	4	1	0	4	0
35	822	7	10000	4	1	0	4	0
34	823	7	10000	4	1	0	4	0
34	824	7	10000	4	1	0	4	0
35	825	7	10000	4	1	0	4	0
35	826	7	10000	4	1	0	4	0
36	827	7	10000	4	1	0	4	0
36	828	7	10000	4	1	0	4	0
35	829	7	10000	4	1	0	4	0
33	830	7	10000	4	1	0	4	0
31	831	7	10000	4	1	0	4	0
31	832	7	10000	4	1	0	4	0
32	833	7	10000	4	1	0	4	0
33	834	7	10000	4	1	0	4	0
33	835	7	10000	4	1	0	4	0
32	836	7	10000	4	1	0	4	0
32	837	7	10000	4	1	0	4	0
31	838	7	10000	4	1	0	4	0
32	839	7	10000	4	1	0	4	0
32	840	7	10000	4	1	0	4	0
32	841	7	10000	4	1	0	4	0
33	842	7	10000	4	1	0	4	0
34	843	7	10000	4	1	0	4	0
33	844	7	10000	4	1	0	4	0
32	845	7	10000	4	1	0	4	0
32	846	7	10000	4	1	0	4	0
32	847	7	10000	4	1	0	4	0
32	848	7	10000	4	1	0	4	0
32	849	7	10000	4	1	0	4	0
31	850	7	10000	4	1	0	4	0
30	851	7	10000	4	1	0	4	0
31	852	7	10000	4	1	0	4	0
31	853	7	10000	4	1	0	4	0
31	854	7	10000	4	1	0	4	0
33	855	7	10000	4	1	0	4	0
34	856	7	10000	4	1	0	4	0
32	857	7	10000	4	1	0	4	0
31	858	7	10000	4	1	0	4	0
30	859	7	10000	4	1	0	4	0
28	860	7	10000	4	1	0	4	0
29	861	7	10000	4	1	0	4	0
30	862	7	10000	4	1	0	4	0
32	863	7	10000	4	1	0	4	0
35	864	7	10000	4	1	0	4	0
36	865	7	10000	4	1	0	4	0
37	866	7	10000	4	1	0	4	0
38	867	7	10000	4	1	0	4	0
37	868	7	10000	4	1	0	4	0
36	869	7	10000	4	1	0	4	0
36	870	7	10000	4	1	0	4	0
35	871	7	10000	4	1	0	4	0
36	872	7	10000	4	1	0	4	0
36	873	7	10000	4	1	0	4	0
35	874	7	10000	4	1	0	4	0
37	875	7	10000	4	1	0	4	0
38	876	7	10000	4	1	0	4	0
38	877	7	10000	4	1	0	4	0
37	878	7	10000	4	1	0	4	0
40	879	7	10000	4	1	0	4	0
41	880	7	10000	4	1	0	4	0
41	881	7	10000	4	1	0	4	0
39	882	7	10000	4	1	0	4	0
37	883	7	10000	4	1	0	4	0
37	884	7	10000	4	1	0	4	0
36	885	7	10000	4	1	0	4	0
34	886	7	10000	4	1	0	4	0
35	887	7	10000	4	1	0	4	0
34	888	7	10000	4	1	0	4	0
34	889	7	10000	4	1	0	4	0
35	890	7	10000	4	1	0	4	0
35	891	7	10000	4	1	0	4	0
35	892	7	10000	4	1	0	4	0
34	893	7	10000	4	1	0	4	0
34	894	7	10000	4	1	0	4	0
33	895	7	10000	4	1	0	4	0
33	896	7	10000	4	1	0	4	0
32	897	7	10000	4	1	0	4	0
29	898	7	10000	4	1	0	4	0
29	899	7	10000	4	1	0	4	0
29	900	7	10000	4	1	0	4	0
28	901	7	10000	4	1	0	4	0
27	902	7	10000	4	1	0	4	0
27	903	7	10000	4	1	0	4	0
27	904	7	10000	4	1	0	4	0
28	905	7	10000	4	1	0	4	0
28	906	7	10000	4	1	0	4	0
28	907	7	10000	4	1	0	4	0
29	908	7	10000	4	1	0	4	0
28	909	7	10000	4	1	0	4	0
27	910	7	10000	4	1	0	4	0
27	911	7	10000	4	1	0	4	0
26	912	7	10000	4	1	0	4	0
25	913	7	10000	4	1	0	4	0
24	914	7	10000	4	1	0	4	0
24	915	7	10000	4	1	0	4	0
26	916	7	10000	4	1	0	4	0
26	917	7	10000	4	1	0	4	0
25	918	7	10000	4	1	0	4	0
26	919	7	10000	4	1	0	4	0
25	920	7	10000	4	1	0	4	0
25	921	7	10000	4	1	0	4	0
24	922	7	10000	4	1	0	4	0
24	923	7	10000	4	1	0	4	0
23	924	7	10000	4	1	0	4	0
22	925	7	10000	4	1	0	4	0
20	926	7	10000	4	1	0	4	0
21	927	7	10000	4	1	0	4	0
21	928	7	10000	4	1	0	4	0
21	929	7	10000	4	1	0	4	0
20	930	7	10000	4	1	0	4	0
19	931	7	10000	4	1	0	4	0
19	932	7	10000	4	1	0	4	0
19	933	7	10000	4	1	0	4	0
18	934	7	10000	4	1	0	4	0
19	935	7	10000	4	1	0	4	0
20	936	7	10000	4	1	0	4	0
20	937	7	10000	4	1	0	4	0
19	938	7	10000	4	1	0	4	0
19	939	7	10000	4	1	0	4	0
18	940	7	10000	4	1	0	4	0
19	941	7	10000	4	1	0	4	0
19	942	7	10000	4	1	0	4	0
20	943	7	10000	4	1	0	4	0
20	944	7	10000	4	1	0	4	0
20	945	7	10000	4	1	0	4	0
19	946	7	10000	4	1	0	4	0
20	947	7	10000	4	1	0	4	0
22	948	7	10000	4	1	0	4	0
21	949	7	10000	4	1	0	4	0
21	950	7	10000	4	1	0	4	0
21	951	7	10000	4	1	0	4	0
20	952	7	10000	4	1	0	4	0
20	953	7	10000	4	1	0	4	0
21	954	7	10000	4	1	0	4	0
21	955	7	10000	4	1	0	4	0
21	956	7	10000	4	1	0	4	0
20	957	7	10000	4	1	0	4	0
18	958	7	10000	4	1	0	4	0
18	959	7	10000	4	1	0	4	0
18	960	7	10000	4	1	0	4	0
18	961	7	10000	4	1	0	4	0
17	962	7	10000	4	1	0	4	0
17	963	7	10000	4	1	0	4	0
18	964	7	10000	4	1	0	4	0
19	965	7	10000	4	1	0	4	0
20	966	7	10000	4	1	0	4	0
23	967	7	10000	4	1	0	4	0
24	968	7	10000	4	1	0	4	0
23	969	7	10000	4	1	0	4	0
23	970	7	10000	4	1	0	4	0
26	971	7	10000	4	1	0	4	0
28	972	7	10000	4	1	0	4	0
28	973	7	10000	4	1	0	4	0
29	974	7	10000	4	1	0	4	0
27	975	7	10000	4	1	0	4	0
28	976	7	10000	4	1	0	4	0
28	977	7	10000	4	1	0	4	0
26	978	7	10000	4	1	0	4	0
26	979	7	10000	4	1	0	4	0
26	980	7	10000	4	1	0	4	0
25	981	7	10000	4	1	0	4	0
25	982	7	10000	4	1	0	4	0
25	983	7	10000	4	1	0	4	0
24	984	7	10000	4	1	0	4	0
22	985	7	10000	4	1	0	4	0
22	986	7	10000	4	1	0	4	0
23	987	7	10000	4	1	0	4	0
22	988	7	10000	4	1	0	4	0
22	989	7	10000	4	1	0	4	0
20	990	7	10000	4	1	0	4	0
20	991	7	10000	4	1	0	4	0
20	992	7	10000	4	1	0	4	0
21	993	7	10000	4	1	0	4	0
24	994	7	10000	4	1	0	4	0
29	995	7	10000	4	1	0	4	0
30	996	7	10000	4	1	0	4	0
29	997	7	10000	4	1	0	4	0
28	998	7	10000	4	1	0	4	0
28	999	7	10000	4	1	0	4	0
29	1000	7	10000	4	1	0	4	0
29	1001	7	10000	4	1	0	4	0
40	2	7	10000	5	1	0	5	0
42	3	7	10000	5	1	0	5	0
44	4	7	10000	5	1	0	5	0
44	5	7	10000	5	1	0	5	0
44	6	7	10000	5	1	0	5	0
44	7	7	10000	5	1	0	5	0
43	8	7	10000	5	1	0	5	0
41	9	7	10000	5	1	0	5	0
38	10	7	10000	5	1	0	5	0
36	11	7	10000	5	1	0	5	0
37	12	7	10000	5	1	0	5	0
36	13	7	10000	5	1	0	5	0
35	14	7	10000	5	1	0	5	0
34	15	7	10000	5	1	0	5	0
35	16	7	10000	5	1	0	5	0
35	17	7	10000	5	1	0	5	0
36	18	7	10000	5	1	0	5	0
36	19	7	10000	5	1	0	5	0
36	20	7	10000	5	1	0	5	0
35	21	7	10000	5	1	0	5	0
34	22	7	10000	5	1	0	5	0
33	23	7	10000	5	1	0	5	0
32	24	7	10000	5	1	0	5	0
32	25	7	10000	5	1	0	5	0
31	26	7	10000	5	1	0	5	0
32	27	7	10000	5	1	0	5	0
32	28	7	10000	5	1	0	5	0
31	29	7	10000	5	1	0	5	0
28	30	7	10000	5	1	0	5	0
29	31	7	10000	5	1	0	5	0
30	32	7	10000	5	1	0	5	0
30	33	7	10000	5	1	0	5	0
29	34	7	10000	5	1	0	5	0
29	35	7	10000	5	1	0	5	0
32	36	7	10000	5	1	0	5	0
33	37	7	10000	5	1	0	5	0
35	38	7	10000	5	1	0	5	0
35	39	7	10000	5	1	0	5	0
39	40	7	10000	5	1	0	5	0
40	41	7	10000	5	1	0	5	0
40	42	7	10000	5	1	0	5	0
38	43	7	10000	5	1	0	5	0
36	44	7	10000	5	1	0	5	0
34	45	7	10000	5	1	0	5	0
33	46	7	10000	5	1	0	5	0
32	47	7	10000	5	1	0	5	0
32	48	7	10000	5	1	0	5	0
32	49	7	10000	5	1	0	5	0
28	50	7	10000	5	1	0	5	0
28	51	7	10000	5	1	0	5	0
27	52	7	10000	5	1	0	5	0
28	53	7	10000	5	1	0	5	0
29	54	7	10000	5	1	0	5	0
30	55	7	10000	5	1	0	5	0
29	56	7	10000	5	1	0	5	0
28	57	7	10000	5	1	0	5	0
29	58	7	10000	5	1	0	5	0
28	59	7	10000	5	1	0	5	0
29	60	7	10000	5	1	0	5	0
28	61	7	10000	5	1	0	5	0
26	62	7	10000	5	1	0	5	0
26	63	7	10000	5	1	0	5	0
25	64	7	10000	5	1	0	5	0
25	65	7	10000	5	1	0	5	0
24	66	7	10000	5	1	0	5	0
25	67	7	10000	5	1	0	5	0
26	68	7	10000	5	1	0	5	0
25	69	7	10000	5	1	0	5	0
22	70	7	10000	5	1	0	5	0
23	71	7	10000	5	1	0	5	0
26	72	7	10000	5	1	0	5	0
28	73	7	10000	5	1	0	5	0
29	74	7	10000	5	1	0	5	0
29	75	7	10000	5	1	0	5	0
28	76	7	10000	5	1	0	5	0
26	77	7	10000	5	1	0	5	0
25	78	7	10000	5	1	0	5	0
25	79	7	10000	5	1	0	5	0
26	80	7	10000	5	1	0	5	0
25	81	7	10000	5	1	0	5	0
24	82	7	10000	5	1	0	5	0
24	83	7	10000	5	1	0	5	0
23	84	7	10000	5	1	0	5	0
23	85	7	10000	5	1	0	5	0
22	86	7	10000	5	1	0	5	0
23	87	7	10000	5	1	0	5	0
25	88	7	10000	5	1	0	5	0
28	89	7	10000	5	1	0	5	0
30	90	7	10000	5	1	0	5	0
31	91	7	10000	5	1	0	5	0
31	92	7	10000	5	1	0	5	0
31	93	7	10000	5	1	0	5	0
32	94	7	10000	5	1	0	5	0
31	95	7	10000	5	1	0	5	0
31	96	7	10000	5	1	0	5	0
29	97	7	10000	5	1	0	5	0
28	98	7	10000	5	1	0	5	0
28	99	7	10000	5	1	0	5	0
28	100	7	10000	5	1	0	5	0
27	101	7	10000	5	1	0	5	0
27	102	7	10000	5	1	0	5	0
25	103	7	10000	5	1	0	5	0
23	104	7	10000	5	1	0	5	0
24	105	7	10000	5	1	0	5	0
24	106	7	10000	5	1	0	5	0
28	107	7	10000	5	1	0	5	0
31	108	7	10000	5	1	0	5	0
30	109	7	10000	5	1	0	5	0
27	110	7	10000	5	1	0	5	0
27	111	7	10000	5	1	0	5	0
26	112	7	10000	5	1	0	5	0
26	113	7	10000	5	1	0	5	0
28	114	7	10000	5	1	0	5	0
28	115	7	10000	5	1	0	5	0
31	116	7	10000	5	1	0	5	0
32	117	7	10000	5	1	0	5	0
31	118	7	10000	5	1	0	5	0
32	119	7	10000	5	1	0	5	0
34	120	7	10000	5	1	0	5	0
31	121	7	10000	5	1	0	5	0
30	122	7	10000	5	1	0	5	0
31	123	7	10000	5	1	0	5	0
30	124	7	10000	5	1	0	5	0
31	125	7	10000	5	1	0	5	0
32	126	7	10000	5	1	0	5	0
32	127	7	10000	5	1	0	5	0
33	128	7	10000	5	1	0	5	0
33	129	7	10000	5	1	0	5	0
29	130	7	10000	5	1	0	5	0
29	131	7	10000	5	1	0	5	0
30	132	7	10000	5	1	0	5	0
32	133	7	10000	5	1	0	5	0
32	134	7	10000	5	1	0	5	0
32	135	7	10000	5	1	0	5	0
32	136	7	10000	5	1	0	5	0
33	137	7	10000	5	1	0	5	0
32	138	7	10000	5	1	0	5	0
31	139	7	10000	5	1	0	5	0
33	140	7	10000	5	1	0	5	0
32	141	7	10000	5	1	0	5	0
31	142	7	10000	5	1	0	5	0
30	143	7	10000	5	1	0	5	0
30	144	7	10000	5	1	0	5	0
32	145	7	10000	5	1	0	5	0
36	146	7	10000	5	1	0	5	0
38	147	7	10000	5	1	0	5	0
38	148	7	10000	5	1	0	5	0
39	149	7	10000	5	1	0	5	0
36	150	7	10000	5	1	0	5	0
36	151	7	10000	5	1	0	5	0
37	152	7	10000	5	1	0	5	0
37	153	7	10000	5	1	0	5	0
36	154	7	10000	5	1	0	5	0
37	155	7	10000	5	1	0	5	0
38	156	7	10000	5	1	0	5	0
37	157	7	10000	5	1	0	5	0
36	158	7	10000	5	1	0	5	0
34	159	7	10000	5	1	0	5	0
35	160	7	10000	5	1	0	5	0
34	161	7	10000	5	1	0	5	0
33	162	7	10000	5	1	0	5	0
34	163	7	10000	5	1	0	5	0
34	164	7	10000	5	1	0	5	0
34	165	7	10000	5	1	0	5	0
35	166	7	10000	5	1	0	5	0
36	167	7	10000	5	1	0	5	0
35	168	7	10000	5	1	0	5	0
35	169	7	10000	5	1	0	5	0
35	170	7	10000	5	1	0	5	0
40	171	7	10000	5	1	0	5	0
43	172	7	10000	5	1	0	5	0
45	173	7	10000	5	1	0	5	0
45	174	7	10000	5	1	0	5	0
44	175	7	10000	5	1	0	5	0
42	176	7	10000	5	1	0	5	0
40	177	7	10000	5	1	0	5	0
39	178	7	10000	5	1	0	5	0
42	179	7	10000	5	1	0	5	0
47	180	7	10000	5	1	0	5	0
47	181	7	10000	5	1	0	5	0
45	182	7	10000	5	1	0	5	0
45	183	7	10000	5	1	0	5	0
47	184	7	10000	5	1	0	5	0
47	185	7	10000	5	1	0	5	0
44	186	7	10000	5	1	0	5	0
43	187	7	10000	5	1	0	5	0
43	188	7	10000	5	1	0	5	0
44	189	7	10000	5	1	0	5	0
44	190	7	10000	5	1	0	5	0
44	191	7	10000	5	1	0	5	0
44	192	7	10000	5	1	0	5	0
43	193	7	10000	5	1	0	5	0
44	194	7	10000	5	1	0	5	0
45	195	7	10000	5	1	0	5	0
44	196	7	10000	5	1	0	5	0
43	197	7	10000	5	1	0	5	0
43	198	7	10000	5	1	0	5	0
43	199	7	10000	5	1	0	5	0
45	200	7	10000	5	1	0	5	0
44	201	7	10000	5	1	0	5	0
42	202	7	10000	5	1	0	5	0
42	203	7	10000	5	1	0	5	0
41	204	7	10000	5	1	0	5	0
40	205	7	10000	5	1	0	5	0
40	206	7	10000	5	1	0	5	0
43	207	7	10000	5	1	0	5	0
46	208	7	10000	5	1	0	5	0
47	209	7	10000	5	1	0	5	0
45	210	7	10000	5	1	0	5	0
44	211	7	10000	5	1	0	5	0
44	212	7	10000	5	1	0	5	0
43	213	7	10000	5	1	0	5	0
42	214	7	10000	5	1	0	5	0
40	215	7	10000	5	1	0	5	0
40	216	7	10000	5	1	0	5	0
37	217	7	10000	5	1	0	5	0
35	218	7	10000	5	1	0	5	0
34	219	7	10000	5	1	0	5	0
36	220	7	10000	5	1	0	5	0
35	221	7	10000	5	1	0	5	0
33	222	7	10000	5	1	0	5	0
32	223	7	10000	5	1	0	5	0
31	224	7	10000	5	1	0	5	0
30	225	7	10000	5	1	0	5	0
29	226	7	10000	5	1	0	5	0
28	227	7	10000	5	1	0	5	0
28	228	7	10000	5	1	0	5	0
27	229	7	10000	5	1	0	5	0
25	230	7	10000	5	1	0	5	0
26	231	7	10000	5	1	0	5	0
25	232	7	10000	5	1	0	5	0
25	233	7	10000	5	1	0	5	0
26	234	7	10000	5	1	0	5	0
27	235	7	10000	5	1	0	5	0
26	236	7	10000	5	1	0	5	0
26	237	7	10000	5	1	0	5	0
25	238	7	10000	5	1	0	5	0
25	239	7	10000	5	1	0	5	0
26	240	7	10000	5	1	0	5	0
24	241	7	10000	5	1	0	5	0
24	242	7	10000	5	1	0	5	0
24	243	7	10000	5	1	0	5	0
25	244	7	10000	5	1	0	5	0
26	245	7	10000	5	1	0	5	0
25	246	7	10000	5	1	0	5	0
24	247	7	10000	5	1	0	5	0
25	248	7	10000	5	1	0	5	0
26	249	7	10000	5	1	0	5	0
25	250	7	10000	5	1	0	5	0
28	251	7	10000	5	1	0	5	0
28	252	7	10000	5	1	0	5	0
28	253	7	10000	5	1	0	5	0
29	254	7	10000	5	1	0	5	0
28	255	7	10000	5	1	0	5	0
27	256	7	10000	5	1	0	5	0
27	257	7	10000	5	1	0	5	0
25	258	7	10000	5	1	0	5	0
23	259	7	10000	5	1	0	5	0
25	260	7	10000	5	1	0	5	0
24	261	7	10000	5	1	0	5	0
22	262	7	10000	5	1	0	5	0
22	263	7	10000	5	1	0	5	0
20	264	7	10000	5	1	0	5	0
20	265	7	10000	5	1	0	5	0
23	266	7	10000	5	1	0	5	0
26	267	7	10000	5	1	0	5	0
29	268	7	10000	5	1	0	5	0
30	269	7	10000	5	1	0	5	0
27	270	7	10000	5	1	0	5	0
27	271	7	10000	5	1	0	5	0
28	272	7	10000	5	1	0	5	0
28	273	7	10000	5	1	0	5	0
29	274	7	10000	5	1	0	5	0
32	275	7	10000	5	1	0	5	0
31	276	7	10000	5	1	0	5	0
30	277	7	10000	5	1	0	5	0
32	278	7	10000	5	1	0	5	0
32	279	7	10000	5	1	0	5	0
36	280	7	10000	5	1	0	5	0
37	281	7	10000	5	1	0	5	0
36	282	7	10000	5	1	0	5	0
36	283	7	10000	5	1	0	5	0
35	284	7	10000	5	1	0	5	0
34	285	7	10000	5	1	0	5	0
32	286	7	10000	5	1	0	5	0
33	287	7	10000	5	1	0	5	0
34	288	7	10000	5	1	0	5	0
33	289	7	10000	5	1	0	5	0
30	290	7	10000	5	1	0	5	0
30	291	7	10000	5	1	0	5	0
32	292	7	10000	5	1	0	5	0
32	293	7	10000	5	1	0	5	0
32	294	7	10000	5	1	0	5	0
31	295	7	10000	5	1	0	5	0
30	296	7	10000	5	1	0	5	0
28	297	7	10000	5	1	0	5	0
28	298	7	10000	5	1	0	5	0
28	299	7	10000	5	1	0	5	0
30	300	7	10000	5	1	0	5	0
30	301	7	10000	5	1	0	5	0
31	302	7	10000	5	1	0	5	0
31	303	7	10000	5	1	0	5	0
30	304	7	10000	5	1	0	5	0
30	305	7	10000	5	1	0	5	0
31	306	7	10000	5	1	0	5	0
33	307	7	10000	5	1	0	5	0
35	308	7	10000	5	1	0	5	0
35	309	7	10000	5	1	0	5	0
32	310	7	10000	5	1	0	5	0
32	311	7	10000	5	1	0	5	0
35	312	7	10000	5	1	0	5	0
37	313	7	10000	5	1	0	5	0
35	314	7	10000	5	1	0	5	0
34	315	7	10000	5	1	0	5	0
37	316	7	10000	5	1	0	5	0
38	317	7	10000	5	1	0	5	0
38	318	7	10000	5	1	0	5	0
36	319	7	10000	5	1	0	5	0
39	320	7	10000	5	1	0	5	0
39	321	7	10000	5	1	0	5	0
39	322	7	10000	5	1	0	5	0
38	323	7	10000	5	1	0	5	0
36	324	7	10000	5	1	0	5	0
37	325	7	10000	5	1	0	5	0
38	326	7	10000	5	1	0	5	0
38	327	7	10000	5	1	0	5	0
38	328	7	10000	5	1	0	5	0
41	329	7	10000	5	1	0	5	0
39	330	7	10000	5	1	0	5	0
37	331	7	10000	5	1	0	5	0
37	332	7	10000	5	1	0	5	0
39	333	7	10000	5	1	0	5	0
41	334	7	10000	5	1	0	5	0
41	335	7	10000	5	1	0	5	0
42	336	7	10000	5	1	0	5	0
40	337	7	10000	5	1	0	5	0
38	338	7	10000	5	1	0	5	0
37	339	7	10000	5	1	0	5	0
38	340	7	10000	5	1	0	5	0
37	341	7	10000	5	1	0	5	0
36	342	7	10000	5	1	0	5	0
34	343	7	10000	5	1	0	5	0
33	344	7	10000	5	1	0	5	0
32	345	7	10000	5	1	0	5	0
31	346	7	10000	5	1	0	5	0
32	347	7	10000	5	1	0	5	0
34	348	7	10000	5	1	0	5	0
34	349	7	10000	5	1	0	5	0
32	350	7	10000	5	1	0	5	0
30	351	7	10000	5	1	0	5	0
31	352	7	10000	5	1	0	5	0
31	353	7	10000	5	1	0	5	0
31	354	7	10000	5	1	0	5	0
33	355	7	10000	5	1	0	5	0
35	356	7	10000	5	1	0	5	0
35	357	7	10000	5	1	0	5	0
33	358	7	10000	5	1	0	5	0
32	359	7	10000	5	1	0	5	0
34	360	7	10000	5	1	0	5	0
33	361	7	10000	5	1	0	5	0
33	362	7	10000	5	1	0	5	0
33	363	7	10000	5	1	0	5	0
34	364	7	10000	5	1	0	5	0
35	365	7	10000	5	1	0	5	0
35	366	7	10000	5	1	0	5	0
35	367	7	10000	5	1	0	5	0
34	368	7	10000	5	1	0	5	0
33	369	7	10000	5	1	0	5	0
30	370	7	10000	5	1	0	5	0
31	371	7	10000	5	1	0	5	0
32	372	7	10000	5	1	0	5	0
33	373	7	10000	5	1	0	5	0
34	374	7	10000	5	1	0	5	0
36	375	7	10000	5	1	0	5	0
36	376	7	10000	5	1	0	5	0
35	377	7	10000	5	1	0	5	0
37	378	7	10000	5	1	0	5	0
39	379	7	10000	5	1	0	5	0
42	380	7	10000	5	1	0	5	0
42	381	7	10000	5	1	0	5	0
40	382	7	10000	5	1	0	5	0
38	383	7	10000	5	1	0	5	0
36	384	7	10000	5	1	0	5	0
35	385	7	10000	5	1	0	5	0
34	386	7	10000	5	1	0	5	0
33	387	7	10000	5	1	0	5	0
33	388	7	10000	5	1	0	5	0
32	389	7	10000	5	1	0	5	0
30	390	7	10000	5	1	0	5	0
31	391	7	10000	5	1	0	5	0
31	392	7	10000	5	1	0	5	0
30	393	7	10000	5	1	0	5	0
30	394	7	10000	5	1	0	5	0
30	395	7	10000	5	1	0	5	0
31	396	7	10000	5	1	0	5	0
30	397	7	10000	5	1	0	5	0
28	398	7	10000	5	1	0	5	0
27	399	7	10000	5	1	0	5	0
29	400	7	10000	5	1	0	5	0
29	401	7	10000	5	1	0	5	0
29	402	7	10000	5	1	0	5	0
31	403	7	10000	5	1	0	5	0
30	404	7	10000	5	1	0	5	0
29	405	7	10000	5	1	0	5	0
28	406	7	10000	5	1	0	5	0
28	407	7	10000	5	1	0	5	0
28	408	7	10000	5	1	0	5	0
28	409	7	10000	5	1	0	5	0
27	410	7	10000	5	1	0	5	0
28	411	7	10000	5	1	0	5	0
28	412	7	10000	5	1	0	5	0
28	413	7	10000	5	1	0	5	0
28	414	7	10000	5	1	0	5	0
30	415	7	10000	5	1	0	5	0
29	416	7	10000	5	1	0	5	0
28	417	7	10000	5	1	0	5	0
27	418	7	10000	5	1	0	5	0
26	419	7	10000	5	1	0	5	0
27	420	7	10000	5	1	0	5	0
27	421	7	10000	5	1	0	5	0
25	422	7	10000	5	1	0	5	0
24	423	7	10000	5	1	0	5	0
24	424	7	10000	5	1	0	5	0
24	425	7	10000	5	1	0	5	0
23	426	7	10000	5	1	0	5	0
23	427	7	10000	5	1	0	5	0
22	428	7	10000	5	1	0	5	0
21	429	7	10000	5	1	0	5	0
20	430	7	10000	5	1	0	5	0
21	431	7	10000	5	1	0	5	0
22	432	7	10000	5	1	0	5	0
21	433	7	10000	5	1	0	5	0
22	434	7	10000	5	1	0	5	0
22	435	7	10000	5	1	0	5	0
23	436	7	10000	5	1	0	5	0
23	437	7	10000	5	1	0	5	0
24	438	7	10000	5	1	0	5	0
22	439	7	10000	5	1	0	5	0
24	440	7	10000	5	1	0	5	0
23	441	7	10000	5	1	0	5	0
24	442	7	10000	5	1	0	5	0
23	443	7	10000	5	1	0	5	0
22	444	7	10000	5	1	0	5	0
22	445	7	10000	5	1	0	5	0
22	446	7	10000	5	1	0	5	0
24	447	7	10000	5	1	0	5	0
25	448	7	10000	5	1	0	5	0
25	449	7	10000	5	1	0	5	0
23	450	7	10000	5	1	0	5	0
23	451	7	10000	5	1	0	5	0
24	452	7	10000	5	1	0	5	0
27	453	7	10000	5	1	0	5	0
28	454	7	10000	5	1	0	5	0
28	455	7	10000	5	1	0	5	0
28	456	7	10000	5	1	0	5	0
26	457	7	10000	5	1	0	5	0
25	458	7	10000	5	1	0	5	0
25	459	7	10000	5	1	0	5	0
27	460	7	10000	5	1	0	5	0
26	461	7	10000	5	1	0	5	0
25	462	7	10000	5	1	0	5	0
24	463	7	10000	5	1	0	5	0
23	464	7	10000	5	1	0	5	0
22	465	7	10000	5	1	0	5	0
22	466	7	10000	5	1	0	5	0
22	467	7	10000	5	1	0	5	0
24	468	7	10000	5	1	0	5	0
24	469	7	10000	5	1	0	5	0
21	470	7	10000	5	1	0	5	0
22	471	7	10000	5	1	0	5	0
22	472	7	10000	5	1	0	5	0
22	473	7	10000	5	1	0	5	0
22	474	7	10000	5	1	0	5	0
24	475	7	10000	5	1	0	5	0
24	476	7	10000	5	1	0	5	0
23	477	7	10000	5	1	0	5	0
22	478	7	10000	5	1	0	5	0
22	479	7	10000	5	1	0	5	0
26	480	7	10000	5	1	0	5	0
27	481	7	10000	5	1	0	5	0
27	482	7	10000	5	1	0	5	0
26	483	7	10000	5	1	0	5	0
27	484	7	10000	5	1	0	5	0
27	485	7	10000	5	1	0	5	0
26	486	7	10000	5	1	0	5	0
27	487	7	10000	5	1	0	5	0
26	488	7	10000	5	1	0	5	0
26	489	7	10000	5	1	0	5	0
23	490	7	10000	5	1	0	5	0
23	491	7	10000	5	1	0	5	0
23	492	7	10000	5	1	0	5	0
23	493	7	10000	5	1	0	5	0
22	494	7	10000	5	1	0	5	0
23	495	7	10000	5	1	0	5	0
23	496	7	10000	5	1	0	5	0
23	497	7	10000	5	1	0	5	0
22	498	7	10000	5	1	0	5	0
22	499	7	10000	5	1	0	5	0
23	500	7	10000	5	1	0	5	0
22	501	7	10000	5	1	0	5	0
21	501	7	10000	5	1	0	5	1
21	502	7	10000	5	1	0	5	1
23	504	7	10000	5	1	0	5	1
23	505	7	10000	5	1	0	5	1
22	506	7	10000	5	1	0	5	1
22	507	7	10000	5	1	0	5	1
21	508	7	10000	5	1	0	5	1
21	509	7	10000	5	1	0	5	1
19	510	7	10000	5	1	0	5	1
19	511	7	10000	5	1	0	5	1
18	512	7	10000	5	1	0	5	1
18	513	7	10000	5	1	0	5	1
17	514	7	10000	5	1	0	5	1
17	515	7	10000	5	1	0	5	1
17	516	7	10000	5	1	0	5	1
16	517	7	10000	5	1	0	5	1
16	518	7	10000	5	1	0	5	1
15	519	7	10000	5	1	0	5	1
17	520	7	10000	5	1	0	5	1
16	521	7	10000	5	1	0	5	1
16	522	7	10000	5	1	0	5	1
15	523	7	10000	5	1	0	5	1
16	524	7	10000	5	1	0	5	1
18	525	7	10000	5	1	0	5	1
18	526	7	10000	5	1	0	5	1
20	527	7	10000	5	1	0	5	1
22	528	7	10000	5	1	0	5	1
23	529	7	10000	5	1	0	5	1
21	530	7	10000	5	1	0	5	1
22	531	7	10000	5	1	0	5	1
23	532	7	10000	5	1	0	5	1
24	533	7	10000	5	1	0	5	1
24	534	7	10000	5	1	0	5	1
24	535	7	10000	5	1	0	5	1
23	536	7	10000	5	1	0	5	1
23	537	7	10000	5	1	0	5	1
20	538	7	10000	5	1	0	5	1
20	539	7	10000	5	1	0	5	1
25	540	7	10000	5	1	0	5	1
28	541	7	10000	5	1	0	5	1
29	542	7	10000	5	1	0	5	1
31	543	7	10000	5	1	0	5	1
32	544	7	10000	5	1	0	5	1
33	545	7	10000	5	1	0	5	1
35	546	7	10000	5	1	0	5	1
36	547	7	10000	5	1	0	5	1
36	548	7	10000	5	1	0	5	1
38	549	7	10000	5	1	0	5	1
35	550	7	10000	5	1	0	5	1
35	551	7	10000	5	1	0	5	1
35	552	7	10000	5	1	0	5	0
34	553	7	10000	5	1	0	5	0
34	554	7	10000	5	1	0	5	0
34	555	7	10000	5	1	0	5	0
33	556	7	10000	5	1	0	5	0
33	557	7	10000	5	1	0	5	0
36	558	7	10000	5	1	0	5	0
40	559	7	10000	5	1	0	5	0
44	560	7	10000	5	1	0	5	0
44	561	7	10000	5	1	0	5	0
42	562	7	10000	5	1	0	5	0
41	563	7	10000	5	1	0	5	0
41	564	7	10000	5	1	0	5	0
42	565	7	10000	5	1	0	5	0
43	566	7	10000	5	1	0	5	0
44	567	7	10000	5	1	0	5	0
44	568	7	10000	5	1	0	5	0
43	569	7	10000	5	1	0	5	0
40	570	7	10000	5	1	0	5	0
39	571	7	10000	5	1	0	5	0
37	572	7	10000	5	1	0	5	0
36	573	7	10000	5	1	0	5	0
36	574	7	10000	5	1	0	5	0
36	575	7	10000	5	1	0	5	0
35	576	7	10000	5	1	0	5	0
33	577	7	10000	5	1	0	5	0
31	578	7	10000	5	1	0	5	0
31	579	7	10000	5	1	0	5	0
32	580	7	10000	5	1	0	5	0
32	581	7	10000	5	1	0	5	0
34	582	7	10000	5	1	0	5	0
38	583	7	10000	5	1	0	5	0
39	584	7	10000	5	1	0	5	0
40	585	7	10000	5	1	0	5	0
44	586	7	10000	5	1	0	5	0
57	587	7	10000	5	1	0	5	0
76	588	7	10000	5	1	0	5	0
94	589	7	10000	5	1	0	5	0
96	590	7	10000	5	1	0	5	0
123	591	7	10000	5	1	0	5	0
152	592	7	10000	5	1	0	5	0
160	593	7	10000	5	1	0	5	0
158	594	7	10000	5	1	0	5	0
166	595	7	10000	5	1	0	5	0
166	596	7	10000	5	1	0	5	0
174	597	7	10000	5	1	0	5	0
175	598	7	10000	5	1	0	5	0
176	599	7	10000	5	1	0	5	0
187	600	7	10000	5	1	0	5	0
205	601	7	10000	5	1	0	5	0
213	602	7	10000	5	1	0	5	0
240	603	7	10000	5	1	0	5	0
237	604	7	10000	5	1	0	5	0
235	605	7	10000	5	1	0	5	0
252	606	7	10000	5	1	0	5	0
255	607	7	10000	5	1	0	5	0
248	608	7	10000	5	1	0	5	0
240	609	7	10000	5	1	0	5	0
231	610	7	10000	5	1	0	5	0
273	611	7	10000	5	1	0	5	0
363	612	7	10000	5	1	0	5	0
474	613	7	10000	5	1	0	5	0
592	614	7	10000	5	1	0	5	0
619	615	7	10000	5	1	0	5	0
714	616	7	10000	5	1	0	5	0
800	617	7	10000	5	1	0	5	0
875	618	7	10000	5	1	0	5	0
921	619	7	10000	5	1	0	5	0
949	620	7	10000	5	1	0	5	0
947	621	7	10000	5	1	0	5	0
922	622	7	10000	5	1	0	5	0
909	623	7	10000	5	1	0	5	0
884	624	7	10000	5	1	0	5	0
858	625	7	10000	5	1	0	5	0
836	626	7	10000	5	1	0	5	0
819	627	7	10000	5	1	0	5	0
806	628	7	10000	5	1	0	5	0
795	629	7	10000	5	1	0	5	0
783	630	7	10000	5	1	0	5	0
772	631	7	10000	5	1	0	5	0
760	632	7	10000	5	1	0	5	0
751	633	7	10000	5	1	0	5	0
747	634	7	10000	5	1	0	5	0
739	635	7	10000	5	1	0	5	0
731	636	7	10000	5	1	0	5	0
722	637	7	10000	5	1	0	5	0
714	638	7	10000	5	1	0	5	0
707	639	7	10000	5	1	0	5	0
699	640	7	10000	5	1	0	5	0
687	641	7	10000	5	1	0	5	0
673	642	7	10000	5	1	0	5	0
658	643	7	10000	5	1	0	5	0
640	644	7	10000	5	1	0	5	0
617	645	7	10000	5	1	0	5	0
589	646	7	10000	5	1	0	5	0
565	647	7	10000	5	1	0	5	0
545	648	7	10000	5	1	0	5	0
530	649	7	10000	5	1	0	5	0
515	650	7	10000	5	1	0	5	0
505	651	7	10000	5	1	0	5	0
495	652	7	10000	5	1	0	5	0
485	653	7	10000	5	1	0	5	0
477	654	7	10000	5	1	0	5	0
469	655	7	10000	5	1	0	5	0
462	656	7	10000	5	1	0	5	0
455	657	7	10000	5	1	0	5	0
449	658	7	10000	5	1	0	5	0
446	659	7	10000	5	1	0	5	0
445	660	7	10000	5	1	0	5	0
442	661	7	10000	5	1	0	5	0
440	662	7	10000	5	1	0	5	0
439	663	7	10000	5	1	0	5	0
440	664	7	10000	5	1	0	5	0
442	665	7	10000	5	1	0	5	0
445	666	7	10000	5	1	0	5	0
451	667	7	10000	5	1	0	5	0
458	668	7	10000	5	1	0	5	0
464	669	7	10000	5	1	0	5	0
468	670	7	10000	5	1	0	5	0
475	671	7	10000	5	1	0	5	0
478	672	7	10000	5	1	0	5	0
478	673	7	10000	5	1	0	5	0
478	674	7	10000	5	1	0	5	0
473	675	7	10000	5	1	0	5	0
467	676	7	10000	5	1	0	5	0
459	677	7	10000	5	1	0	5	0
449	678	7	10000	5	1	0	5	0
438	679	7	10000	5	1	0	5	0
430	680	7	10000	5	1	0	5	0
419	681	7	10000	5	1	0	5	0
409	682	7	10000	5	1	0	5	0
398	683	7	10000	5	1	0	5	0
387	684	7	10000	5	1	0	5	0
380	685	7	10000	5	1	0	5	0
374	686	7	10000	5	1	0	5	0
368	687	7	10000	5	1	0	5	0
362	688	7	10000	5	1	0	5	0
357	689	7	10000	5	1	0	5	0
351	690	7	10000	5	1	0	5	0
346	691	7	10000	5	1	0	5	0
340	692	7	10000	5	1	0	5	0
331	693	7	10000	5	1	0	5	0
320	694	7	10000	5	1	0	5	0
309	695	7	10000	5	1	0	5	0
295	696	7	10000	5	1	0	5	0
281	697	7	10000	5	1	0	5	0
269	698	7	10000	5	1	0	5	0
259	699	7	10000	5	1	0	5	0
254	700	7	10000	5	1	0	5	0
249	701	7	10000	5	1	0	5	0
243	702	7	10000	5	1	0	5	0
237	703	7	10000	5	1	0	5	0
230	704	7	10000	5	1	0	5	0
222	705	7	10000	5	1	0	5	0
213	706	7	10000	5	1	0	5	0
204	707	7	10000	5	1	0	5	0
196	708	7	10000	5	1	0	5	0
189	709	7	10000	5	1	0	5	0
180	710	7	10000	5	1	0	5	0
175	711	7	10000	5	1	0	5	0
170	712	7	10000	5	1	0	5	0
163	713	7	10000	5	1	0	5	0
156	714	7	10000	5	1	0	5	0
152	715	7	10000	5	1	0	5	0
148	716	7	10000	5	1	0	5	0
147	717	7	10000	5	1	0	5	0
146	718	7	10000	5	1	0	5	0
147	719	7	10000	5	1	0	5	0
150	720	7	10000	5	1	0	5	0
152	721	7	10000	5	1	0	5	0
152	722	7	10000	5	1	0	5	0
151	723	7	10000	5	1	0	5	0
149	724	7	10000	5	1	0	5	0
146	725	7	10000	5	1	0	5	0
142	726	7	10000	5	1	0	5	0
138	727	7	10000	5	1	0	5	0
132	728	7	10000	5	1	0	5	0
127	729	7	10000	5	1	0	5	0
120	730	7	10000	5	1	0	5	0
115	731	7	10000	5	1	0	5	0
111	732	7	10000	5	1	0	5	0
109	733	7	10000	5	1	0	5	0
107	734	7	10000	5	1	0	5	0
107	735	7	10000	5	1	0	5	0
109	736	7	10000	5	1	0	5	0
110	737	7	10000	5	1	0	5	0
114	738	7	10000	5	1	0	5	0
117	739	7	10000	5	1	0	5	0
121	740	7	10000	5	1	0	5	0
122	741	7	10000	5	1	0	5	0
123	742	7	10000	5	1	0	5	0
124	743	7	10000	5	1	0	5	0
124	744	7	10000	5	1	0	5	0
123	745	7	10000	5	1	0	5	0
120	746	7	10000	5	1	0	5	0
116	747	7	10000	5	1	0	5	0
112	748	7	10000	5	1	0	5	0
109	749	7	10000	5	1	0	5	0
102	750	7	10000	5	1	0	5	0
98	751	7	10000	5	1	0	5	0
95	752	7	10000	5	1	0	5	0
91	753	7	10000	5	1	0	5	0
87	754	7	10000	5	1	0	5	0
85	755	7	10000	5	1	0	5	0
85	756	7	10000	5	1	0	5	0
86	757	7	10000	5	1	0	5	0
89	758	7	10000	5	1	0	5	0
93	759	7	10000	5	1	0	5	0
99	760	7	10000	5	1	0	5	0
101	761	7	10000	5	1	0	5	0
102	762	7	10000	5	1	0	5	0
100	763	7	10000	5	1	0	5	0
96	764	7	10000	5	1	0	5	0
91	765	7	10000	5	1	0	5	0
88	766	7	10000	5	1	0	5	0
85	767	7	10000	5	1	0	5	0
82	768	7	10000	5	1	0	5	0
79	769	7	10000	5	1	0	5	0
73	770	7	10000	5	1	0	5	0
70	771	7	10000	5	1	0	5	0
68	772	7	10000	5	1	0	5	0
66	773	7	10000	5	1	0	5	0
65	774	7	10000	5	1	0	5	0
63	775	7	10000	5	1	0	5	0
62	776	7	10000	5	1	0	5	0
61	777	7	10000	5	1	0	5	0
63	778	7	10000	5	1	0	5	0
64	779	7	10000	5	1	0	5	0
67	780	7	10000	5	1	0	5	0
67	781	7	10000	5	1	0	5	0
67	782	7	10000	5	1	0	5	0
66	783	7	10000	5	1	0	5	0
65	784	7	10000	5	1	0	5	0
64	785	7	10000	5	1	0	5	0
65	786	7	10000	5	1	0	5	0
65	787	7	10000	5	1	0	5	0
63	788	7	10000	5	1	0	5	0
