value	EMG	Stimulus	EMG_sensitivity	Total_Trial_Nr	practise	acq	probe_nr	Startle_Probe
23	1	7	10000	1	1	0	1	0
24	2	7	10000	1	1	0	1	0
24	3	7	10000	1	1	0	1	0
25	4	7	10000	1	1	0	1	0
26	5	7	10000	1	1	0	1	0
26	6	7	10000	1	1	0	1	0
26	7	7	10000	1	1	0	1	0
27	8	7	10000	1	1	0	1	0
27	9	7	10000	1	1	0	1	0
27	10	7	10000	1	1	0	1	0
28	11	7	10000	1	1	0	1	0
30	12	7	10000	1	1	0	1	0
32	13	7	10000	1	1	0	1	0
33	14	7	10000	1	1	0	1	0
33	15	7	10000	1	1	0	1	0
32	16	7	10000	1	1	0	1	0
31	17	7	10000	1	1	0	1	0
29	18	7	10000	1	1	0	1	0
30	19	7	10000	1	1	0	1	0
30	20	7	10000	1	1	0	1	0
31	20	7	10000	1	1	0	1	0
32	21	7	10000	1	1	0	1	0
35	23	7	10000	1	1	0	1	0
40	24	7	10000	1	1	0	1	0
42	25	7	10000	1	1	0	1	0
44	26	7	10000	1	1	0	1	0
47	27	7	10000	1	1	0	1	0
51	28	7	10000	1	1	0	1	0
53	29	7	10000	1	1	0	1	0
56	30	7	10000	1	1	0	1	0
60	30	7	10000	1	1	0	1	0
63	31	7	10000	1	1	0	1	0
67	33	7	10000	1	1	0	1	0
68	34	7	10000	1	1	0	1	0
70	35	7	10000	1	1	0	1	0
72	36	7	10000	1	1	0	1	0
72	37	7	10000	1	1	0	1	0
72	38	7	10000	1	1	0	1	0
74	39	7	10000	1	1	0	1	0
75	40	7	10000	1	1	0	1	0
78	40	7	10000	1	1	0	1	0
80	41	7	10000	1	1	0	1	0
83	43	7	10000	1	1	0	1	0
83	44	7	10000	1	1	0	1	0
81	45	7	10000	1	1	0	1	0
78	46	7	10000	1	1	0	1	0
76	47	7	10000	1	1	0	1	0
78	48	7	10000	1	1	0	1	0
80	49	7	10000	1	1	0	1	0
80	50	7	10000	1	1	0	1	0
80	50	7	10000	1	1	0	1	0
81	51	7	10000	1	1	0	1	0
80	53	7	10000	1	1	0	1	0
78	54	7	10000	1	1	0	1	0
75	55	7	10000	1	1	0	1	0
73	56	7	10000	1	1	0	1	0
71	57	7	10000	1	1	0	1	0
67	58	7	10000	1	1	0	1	0
66	59	7	10000	1	1	0	1	0
66	60	7	10000	1	1	0	1	0
68	60	7	10000	1	1	0	1	0
71	61	7	10000	1	1	0	1	0
74	63	7	10000	1	1	0	1	0
77	64	7	10000	1	1	0	1	0
80	65	7	10000	1	1	0	1	0
83	66	7	10000	1	1	0	1	0
86	67	7	10000	1	1	0	1	0
89	68	7	10000	1	1	0	1	0
89	69	7	10000	1	1	0	1	0
90	70	7	10000	1	1	0	1	0
92	70	7	10000	1	1	0	1	0
94	71	7	10000	1	1	0	1	0
97	73	7	10000	1	1	0	1	0
102	74	7	10000	1	1	0	1	0
107	75	7	10000	1	1	0	1	0
110	76	7	10000	1	1	0	1	0
111	77	7	10000	1	1	0	1	0
110	78	7	10000	1	1	0	1	0
110	79	7	10000	1	1	0	1	0
110	80	7	10000	1	1	0	1	0
110	80	7	10000	1	1	0	1	0
109	81	7	10000	1	1	0	1	0
109	83	7	10000	1	1	0	1	0
108	84	7	10000	1	1	0	1	0
109	85	7	10000	1	1	0	1	0
109	86	7	10000	1	1	0	1	0
108	87	7	10000	1	1	0	1	0
111	88	7	10000	1	1	0	1	0
109	89	7	10000	1	1	0	1	0
108	90	7	10000	1	1	0	1	0
108	90	7	10000	1	1	0	1	0
109	91	7	10000	1	1	0	1	0
109	93	7	10000	1	1	0	1	0
108	94	7	10000	1	1	0	1	0
105	95	7	10000	1	1	0	1	0
103	96	7	10000	1	1	0	1	0
99	97	7	10000	1	1	0	1	0
94	98	7	10000	1	1	0	1	0
92	99	7	10000	1	1	0	1	0
92	100	7	10000	1	1	0	1	0
93	100	7	10000	1	1	0	1	0
91	101	7	10000	1	1	0	1	0
90	103	7	10000	1	1	0	1	0
89	104	7	10000	1	1	0	1	0
87	105	7	10000	1	1	0	1	0
84	106	7	10000	1	1	0	1	0
83	107	7	10000	1	1	0	1	0
83	108	7	10000	1	1	0	1	0
79	109	7	10000	1	1	0	1	0
78	110	7	10000	1	1	0	1	0
75	110	7	10000	1	1	0	1	0
73	111	7	10000	1	1	0	1	0
72	113	7	10000	1	1	0	1	0
70	114	7	10000	1	1	0	1	0
67	115	7	10000	1	1	0	1	0
67	116	7	10000	1	1	0	1	0
66	117	7	10000	1	1	0	1	0
63	118	7	10000	1	1	0	1	0
60	119	7	10000	1	1	0	1	0
59	120	7	10000	1	1	0	1	0
56	120	7	10000	1	1	0	1	0
54	121	7	10000	1	1	0	1	0
52	123	7	10000	1	1	0	1	0
49	124	7	10000	1	1	0	1	0
47	125	7	10000	1	1	0	1	0
46	126	7	10000	1	1	0	1	0
46	127	7	10000	1	1	0	1	0
47	128	7	10000	1	1	0	1	0
45	129	7	10000	1	1	0	1	0
44	130	7	10000	1	1	0	1	0
44	130	7	10000	1	1	0	1	0
43	131	7	10000	1	1	0	1	0
42	133	7	10000	1	1	0	1	0
40	134	7	10000	1	1	0	1	0
39	135	7	10000	1	1	0	1	0
40	136	7	10000	1	1	0	1	0
39	137	7	10000	1	1	0	1	0
36	138	7	10000	1	1	0	1	0
36	139	7	10000	1	1	0	1	0
36	140	7	10000	1	1	0	1	0
37	140	7	10000	1	1	0	1	0
35	141	7	10000	1	1	0	1	0
35	143	7	10000	1	1	0	1	0
33	144	7	10000	1	1	0	1	0
32	145	7	10000	1	1	0	1	0
31	146	7	10000	1	1	0	1	0
30	147	7	10000	1	1	0	1	0
32	148	7	10000	1	1	0	1	0
30	149	7	10000	1	1	0	1	0
29	150	7	10000	1	1	0	1	0
28	150	7	10000	1	1	0	1	0
27	151	7	10000	1	1	0	1	0
27	153	7	10000	1	1	0	1	0
26	154	7	10000	1	1	0	1	0
27	155	7	10000	1	1	0	1	0
28	156	7	10000	1	1	0	1	0
27	157	7	10000	1	1	0	1	0
24	158	7	10000	1	1	0	1	0
23	159	7	10000	1	1	0	1	0
24	160	7	10000	1	1	0	1	0
25	160	7	10000	1	1	0	1	0
24	161	7	10000	1	1	0	1	0
25	163	7	10000	1	1	0	1	0
23	164	7	10000	1	1	0	1	0
22	165	7	10000	1	1	0	1	0
20	166	7	10000	1	1	0	1	0
21	167	7	10000	1	1	0	1	0
24	168	7	10000	1	1	0	1	0
23	169	7	10000	1	1	0	1	0
24	170	7	10000	1	1	0	1	0
23	170	7	10000	1	1	0	1	0
22	171	7	10000	1	1	0	1	0
24	173	7	10000	1	1	0	1	0
24	174	7	10000	1	1	0	1	0
26	175	7	10000	1	1	0	1	0
27	176	7	10000	1	1	0	1	0
26	177	7	10000	1	1	0	1	0
24	178	7	10000	1	1	0	1	0
24	179	7	10000	1	1	0	1	0
23	180	7	10000	1	1	0	1	0
23	180	7	10000	1	1	0	1	0
23	181	7	10000	1	1	0	1	0
24	183	7	10000	1	1	0	1	0
24	184	7	10000	1	1	0	1	0
22	185	7	10000	1	1	0	1	0
22	186	7	10000	1	1	0	1	0
22	187	7	10000	1	1	0	1	0
23	188	7	10000	1	1	0	1	0
21	189	7	10000	1	1	0	1	0
21	190	7	10000	1	1	0	1	0
20	190	7	10000	1	1	0	1	0
20	191	7	10000	1	1	0	1	0
22	193	7	10000	1	1	0	1	0
23	194	7	10000	1	1	0	1	0
23	195	7	10000	1	1	0	1	0
23	196	7	10000	1	1	0	1	0
22	197	7	10000	1	1	0	1	0
20	198	7	10000	1	1	0	1	0
20	199	7	10000	1	1	0	1	0
20	200	7	10000	1	1	0	1	0
20	200	7	10000	1	1	0	1	0
20	201	7	10000	1	1	0	1	0
20	203	7	10000	1	1	0	1	0
19	204	7	10000	1	1	0	1	0
18	205	7	10000	1	1	0	1	0
19	206	7	10000	1	1	0	1	0
20	207	7	10000	1	1	0	1	0
22	208	7	10000	1	1	0	1	0
20	209	7	10000	1	1	0	1	0
21	210	7	10000	1	1	0	1	0
20	210	7	10000	1	1	0	1	0
21	211	7	10000	1	1	0	1	0
23	213	7	10000	1	1	0	1	0
24	214	7	10000	1	1	0	1	0
24	215	7	10000	1	1	0	1	0
24	216	7	10000	1	1	0	1	0
24	217	7	10000	1	1	0	1	0
23	218	7	10000	1	1	0	1	0
24	219	7	10000	1	1	0	1	0
27	220	7	10000	1	1	0	1	0
32	220	7	10000	1	1	0	1	0
35	221	7	10000	1	1	0	1	0
42	223	7	10000	1	1	0	1	0
48	224	7	10000	1	1	0	1	0
55	225	7	10000	1	1	0	1	0
58	226	7	10000	1	1	0	1	0
57	227	7	10000	1	1	0	1	0
57	228	7	10000	1	1	0	1	0
54	229	7	10000	1	1	0	1	0
52	230	7	10000	1	1	0	1	0
50	230	7	10000	1	1	0	1	0
48	231	7	10000	1	1	0	1	0
48	233	7	10000	1	1	0	1	0
48	234	7	10000	1	1	0	1	0
49	235	7	10000	1	1	0	1	0
50	236	7	10000	1	1	0	1	0
52	237	7	10000	1	1	0	1	0
54	238	7	10000	1	1	0	1	0
58	239	7	10000	1	1	0	1	0
62	240	7	10000	1	1	0	1	0
67	240	7	10000	1	1	0	1	0
70	241	7	10000	1	1	0	1	0
71	243	7	10000	1	1	0	1	0
73	244	7	10000	1	1	0	1	0
74	245	7	10000	1	1	0	1	0
75	246	7	10000	1	1	0	1	0
80	247	7	10000	1	1	0	1	0
87	248	7	10000	1	1	0	1	0
92	249	7	10000	1	1	0	1	0
97	250	7	10000	1	1	0	1	0
100	250	7	10000	1	1	0	1	0
100	251	7	10000	1	1	0	1	0
99	253	7	10000	1	1	0	1	0
97	254	7	10000	1	1	0	1	0
95	255	7	10000	1	1	0	1	0
94	256	7	10000	1	1	0	1	0
94	257	7	10000	1	1	0	1	0
91	258	7	10000	1	1	0	1	0
89	259	7	10000	1	1	0	1	0
87	260	7	10000	1	1	0	1	0
84	260	7	10000	1	1	0	1	0
80	261	7	10000	1	1	0	1	0
78	263	7	10000	1	1	0	1	0
75	264	7	10000	1	1	0	1	0
71	265	7	10000	1	1	0	1	0
70	266	7	10000	1	1	0	1	0
71	267	7	10000	1	1	0	1	0
73	268	7	10000	1	1	0	1	0
74	269	7	10000	1	1	0	1	0
76	270	7	10000	1	1	0	1	0
80	270	7	10000	1	1	0	1	0
84	271	7	10000	1	1	0	1	0
88	273	7	10000	1	1	0	1	0
91	274	7	10000	1	1	0	1	0
96	275	7	10000	1	1	0	1	0
100	276	7	10000	1	1	0	1	0
103	277	7	10000	1	1	0	1	0
104	278	7	10000	1	1	0	1	0
106	279	7	10000	1	1	0	1	0
110	280	7	10000	1	1	0	1	0
114	280	7	10000	1	1	0	1	0
117	281	7	10000	1	1	0	1	0
120	283	7	10000	1	1	0	1	0
123	284	7	10000	1	1	0	1	0
124	285	7	10000	1	1	0	1	0
127	286	7	10000	1	1	0	1	0
129	287	7	10000	1	1	0	1	0
131	288	7	10000	1	1	0	1	0
128	289	7	10000	1	1	0	1	0
128	290	7	10000	1	1	0	1	0
128	290	7	10000	1	1	0	1	0
129	291	7	10000	1	1	0	1	0
128	293	7	10000	1	1	0	1	0
126	294	7	10000	1	1	0	1	0
126	295	7	10000	1	1	0	1	0
126	296	7	10000	1	1	0	1	0
123	297	7	10000	1	1	0	1	0
119	298	7	10000	1	1	0	1	0
118	299	7	10000	1	1	0	1	0
116	300	7	10000	1	1	0	1	0
114	300	7	10000	1	1	0	1	0
113	301	7	10000	1	1	0	1	0
112	303	7	10000	1	1	0	1	0
112	304	7	10000	1	1	0	1	0
111	305	7	10000	1	1	0	1	0
109	306	7	10000	1	1	0	1	0
107	307	7	10000	1	1	0	1	0
106	308	7	10000	1	1	0	1	0
101	309	7	10000	1	1	0	1	0
97	310	7	10000	1	1	0	1	0
94	310	7	10000	1	1	0	1	0
92	311	7	10000	1	1	0	1	0
90	313	7	10000	1	1	0	1	0
86	314	7	10000	1	1	0	1	0
84	315	7	10000	1	1	0	1	0
82	316	7	10000	1	1	0	1	0
77	317	7	10000	1	1	0	1	0
74	318	7	10000	1	1	0	1	0
72	319	7	10000	1	1	0	1	0
69	320	7	10000	1	1	0	1	0
67	320	7	10000	1	1	0	1	0
66	321	7	10000	1	1	0	1	0
66	323	7	10000	1	1	0	1	0
67	324	7	10000	1	1	0	1	0
65	325	7	10000	1	1	0	1	0
62	326	7	10000	1	1	0	1	0
60	327	7	10000	1	1	0	1	0
60	328	7	10000	1	1	0	1	0
57	329	7	10000	1	1	0	1	0
55	330	7	10000	1	1	0	1	0
53	330	7	10000	1	1	0	1	0
51	331	7	10000	1	1	0	1	0
50	333	7	10000	1	1	0	1	0
49	334	7	10000	1	1	0	1	0
49	335	7	10000	1	1	0	1	0
47	336	7	10000	1	1	0	1	0
46	337	7	10000	1	1	0	1	0
43	338	7	10000	1	1	0	1	0
44	339	7	10000	1	1	0	1	0
42	340	7	10000	1	1	0	1	0
42	340	7	10000	1	1	0	1	0
40	341	7	10000	1	1	0	1	0
39	343	7	10000	1	1	0	1	0
38	344	7	10000	1	1	0	1	0
36	345	7	10000	1	1	0	1	0
35	346	7	10000	1	1	0	1	0
34	347	7	10000	1	1	0	1	0
35	348	7	10000	1	1	0	1	0
33	349	7	10000	1	1	0	1	0
32	350	7	10000	1	1	0	1	0
31	350	7	10000	1	1	0	1	0
30	351	7	10000	1	1	0	1	0
30	353	7	10000	1	1	0	1	0
29	354	7	10000	1	1	0	1	0
29	355	7	10000	1	1	0	1	0
29	356	7	10000	1	1	0	1	0
29	357	7	10000	1	1	0	1	0
27	358	7	10000	1	1	0	1	0
28	359	7	10000	1	1	0	1	0
28	360	7	10000	1	1	0	1	0
27	360	7	10000	1	1	0	1	0
27	361	7	10000	1	1	0	1	0
26	363	7	10000	1	1	0	1	0
27	364	7	10000	1	1	0	1	0
27	365	7	10000	1	1	0	1	0
28	366	7	10000	1	1	0	1	0
28	367	7	10000	1	1	0	1	0
29	368	7	10000	1	1	0	1	0
28	369	7	10000	1	1	0	1	0
27	370	7	10000	1	1	0	1	0
28	370	7	10000	1	1	0	1	0
30	371	7	10000	1	1	0	1	0
29	373	7	10000	1	1	0	1	0
29	374	7	10000	1	1	0	1	0
30	375	7	10000	1	1	0	1	0
30	376	7	10000	1	1	0	1	0
29	377	7	10000	1	1	0	1	0
26	378	7	10000	1	1	0	1	0
27	379	7	10000	1	1	0	1	0
29	380	7	10000	1	1	0	1	0
30	380	7	10000	1	1	0	1	0
29	381	7	10000	1	1	0	1	0
31	383	7	10000	1	1	0	1	0
34	384	7	10000	1	1	0	1	0
39	385	7	10000	1	1	0	1	0
42	386	7	10000	1	1	0	1	0
45	387	7	10000	1	1	0	1	0
48	388	7	10000	1	1	0	1	0
45	389	7	10000	1	1	0	1	0
46	390	7	10000	1	1	0	1	0
46	390	7	10000	1	1	0	1	0
47	391	7	10000	1	1	0	1	0
46	393	7	10000	1	1	0	1	0
46	394	7	10000	1	1	0	1	0
51	395	7	10000	1	1	0	1	0
54	396	7	10000	1	1	0	1	0
56	397	7	10000	1	1	0	1	0
53	398	7	10000	1	1	0	1	0
51	399	7	10000	1	1	0	1	0
51	400	7	10000	1	1	0	1	0
52	400	7	10000	1	1	0	1	0
51	401	7	10000	1	1	0	1	0
52	403	7	10000	1	1	0	1	0
52	404	7	10000	1	1	0	1	0
50	405	7	10000	1	1	0	1	0
47	406	7	10000	1	1	0	1	0
45	407	7	10000	1	1	0	1	0
46	408	7	10000	1	1	0	1	0
44	409	7	10000	1	1	0	1	0
44	410	7	10000	1	1	0	1	0
44	410	7	10000	1	1	0	1	0
44	411	7	10000	1	1	0	1	0
45	413	7	10000	1	1	0	1	0
44	414	7	10000	1	1	0	1	0
44	415	7	10000	1	1	0	1	0
42	416	7	10000	1	1	0	1	0
41	417	7	10000	1	1	0	1	0
38	418	7	10000	1	1	0	1	0
38	419	7	10000	1	1	0	1	0
39	420	7	10000	1	1	0	1	0
40	420	7	10000	1	1	0	1	0
40	421	7	10000	1	1	0	1	0
39	423	7	10000	1	1	0	1	0
38	424	7	10000	1	1	0	1	0
36	425	7	10000	1	1	0	1	0
34	426	7	10000	1	1	0	1	0
33	427	7	10000	1	1	0	1	0
35	428	7	10000	1	1	0	1	0
32	429	7	10000	1	1	0	1	0
31	430	7	10000	1	1	0	1	0
29	430	7	10000	1	1	0	1	0
29	431	7	10000	1	1	0	1	0
30	433	7	10000	1	1	0	1	0
30	434	7	10000	1	1	0	1	0
32	435	7	10000	1	1	0	1	0
32	436	7	10000	1	1	0	1	0
33	437	7	10000	1	1	0	1	0
31	438	7	10000	1	1	0	1	0
31	439	7	10000	1	1	0	1	0
31	440	7	10000	1	1	0	1	0
29	440	7	10000	1	1	0	1	0
29	441	7	10000	1	1	0	1	0
29	443	7	10000	1	1	0	1	0
29	444	7	10000	1	1	0	1	0
29	445	7	10000	1	1	0	1	0
27	446	7	10000	1	1	0	1	0
27	447	7	10000	1	1	0	1	0
28	448	7	10000	1	1	0	1	0
27	449	7	10000	1	1	0	1	0
30	450	7	10000	1	1	0	1	0
31	450	7	10000	1	1	0	1	0
30	451	7	10000	1	1	0	1	0
29	453	7	10000	1	1	0	1	0
28	454	7	10000	1	1	0	1	0
29	455	7	10000	1	1	0	1	0
28	456	7	10000	1	1	0	1	0
29	457	7	10000	1	1	0	1	0
27	458	7	10000	1	1	0	1	0
26	459	7	10000	1	1	0	1	0
27	460	7	10000	1	1	0	1	0
27	460	7	10000	1	1	0	1	0
28	461	7	10000	1	1	0	1	0
30	463	7	10000	1	1	0	1	0
32	464	7	10000	1	1	0	1	0
32	465	7	10000	1	1	0	1	0
31	466	7	10000	1	1	0	1	0
30	467	7	10000	1	1	0	1	0
31	468	7	10000	1	1	0	1	0
29	469	7	10000	1	1	0	1	0
29	470	7	10000	1	1	0	1	0
28	470	7	10000	1	1	0	1	0
29	471	7	10000	1	1	0	1	0
29	473	7	10000	1	1	0	1	0
30	474	7	10000	1	1	0	1	0
31	475	7	10000	1	1	0	1	0
30	476	7	10000	1	1	0	1	0
29	477	7	10000	1	1	0	1	0
26	478	7	10000	1	1	0	1	0
27	479	7	10000	1	1	0	1	0
28	480	7	10000	1	1	0	1	0
28	480	7	10000	1	1	0	1	0
27	481	7	10000	1	1	0	1	0
27	483	7	10000	1	1	0	1	0
29	484	7	10000	1	1	0	1	0
29	485	7	10000	1	1	0	1	0
26	486	7	10000	1	1	0	1	0
26	487	7	10000	1	1	0	1	0
28	488	7	10000	1	1	0	1	0
26	489	7	10000	1	1	0	1	0
27	490	7	10000	1	1	0	1	0
28	490	7	10000	1	1	0	1	0
29	491	7	10000	1	1	0	1	0
28	493	7	10000	1	1	0	1	0
27	494	7	10000	1	1	0	1	0
28	495	7	10000	1	1	0	1	0
27	496	7	10000	1	1	0	1	0
27	497	7	10000	1	1	0	1	0
26	498	7	10000	1	1	0	1	0
24	499	7	10000	1	1	0	1	0
26	500	7	10000	1	1	0	1	0
26	500	7	10000	1	1	0	1	0
26	501	7	10000	1	1	0	1	0
25	540	7	10000	1	1	0	1	1
24	541	7	10000	1	1	0	1	1
24	542	7	10000	1	1	0	1	1
22	543	7	10000	1	1	0	1	1
23	544	7	10000	1	1	0	1	1
26	545	7	10000	1	1	0	1	1
26	546	7	10000	1	1	0	1	1
27	547	7	10000	1	1	0	1	1
24	548	7	10000	1	1	0	1	1
26	549	7	10000	1	1	0	1	1
29	550	7	10000	1	1	0	1	1
28	551	7	10000	1	1	0	1	1
29	552	7	10000	1	1	0	1	1
29	553	7	10000	1	1	0	1	1
33	554	7	10000	1	1	0	1	1
35	555	7	10000	1	1	0	1	1
34	556	7	10000	1	1	0	1	1
36	557	7	10000	1	1	0	1	1
39	558	7	10000	1	1	0	1	1
42	559	7	10000	1	1	0	1	1
46	560	7	10000	1	1	0	1	1
51	561	7	10000	1	1	0	1	1
56	562	7	10000	1	1	0	1	1
59	563	7	10000	1	1	0	1	1
64	564	7	10000	1	1	0	1	1
68	565	7	10000	1	1	0	1	1
68	566	7	10000	1	1	0	1	1
66	567	7	10000	1	1	0	1	1
64	568	7	10000	1	1	0	1	1
64	569	7	10000	1	1	0	1	1
61	570	7	10000	1	1	0	1	1
61	571	7	10000	1	1	0	1	1
64	572	7	10000	1	1	0	1	1
68	573	7	10000	1	1	0	1	1
71	574	7	10000	1	1	0	1	1
71	575	7	10000	1	1	0	1	1
71	576	7	10000	1	1	0	1	1
68	577	7	10000	1	1	0	1	1
66	578	7	10000	1	1	0	1	1
64	579	7	10000	1	1	0	1	1
64	547	7	10000	1	1	0	1	1
63	548	7	10000	1	1	0	1	1
60	549	7	10000	1	1	0	1	1
56	550	7	10000	1	1	0	1	1
55	551	7	10000	1	1	0	1	1
56	552	7	10000	1	1	0	1	1
56	549	7	10000	1	1	0	1	1
57	550	7	10000	1	1	0	1	1
57	551	7	10000	1	1	0	1	0
58	552	7	10000	1	1	0	1	0
60	553	7	10000	1	1	0	1	0
59	554	7	10000	1	1	0	1	0
61	555	7	10000	1	1	0	1	0
60	556	7	10000	1	1	0	1	0
61	557	7	10000	1	1	0	1	0
60	558	7	10000	1	1	0	1	0
60	559	7	10000	1	1	0	1	0
62	560	7	10000	1	1	0	1	0
63	561	7	10000	1	1	0	1	0
63	562	7	10000	1	1	0	1	0
63	563	7	10000	1	1	0	1	0
63	564	7	10000	1	1	0	1	0
63	565	7	10000	1	1	0	1	0
62	566	7	10000	1	1	0	1	0
60	567	7	10000	1	1	0	1	0
60	568	7	10000	1	1	0	1	0
57	569	7	10000	1	1	0	1	0
56	570	7	10000	1	1	0	1	0
52	571	7	10000	1	1	0	1	0
50	572	7	10000	1	1	0	1	0
50	573	7	10000	1	1	0	1	0
50	574	7	10000	1	1	0	1	0
51	575	7	10000	1	1	0	1	0
49	576	7	10000	1	1	0	1	0
49	577	7	10000	1	1	0	1	0
46	578	7	10000	1	1	0	1	0
46	579	7	10000	1	1	0	1	0
46	580	7	10000	1	1	0	1	0
45	580	7	10000	1	1	0	1	0
44	581	7	10000	1	1	0	1	0
44	583	7	10000	1	1	0	1	0
44	584	7	10000	1	1	0	1	0
43	585	7	10000	1	1	0	1	0
41	586	7	10000	1	1	0	1	0
40	587	7	10000	1	1	0	1	0
41	588	7	10000	1	1	0	1	0
40	589	7	10000	1	1	0	1	0
39	590	7	10000	1	1	0	1	0
36	590	7	10000	1	1	0	1	0
35	591	7	10000	1	1	0	1	0
35	593	7	10000	1	1	0	1	0
35	594	7	10000	1	1	0	1	0
35	595	7	10000	1	1	0	1	0
35	596	7	10000	1	1	0	1	0
34	597	7	10000	1	1	0	1	0
32	598	7	10000	1	1	0	1	0
32	599	7	10000	1	1	0	1	0
32	600	7	10000	1	1	0	1	0
31	600	7	10000	1	1	0	1	0
29	601	7	10000	1	1	0	1	0
28	603	7	10000	1	1	0	1	0
28	604	7	10000	1	1	0	1	0
27	605	7	10000	1	1	0	1	0
25	606	7	10000	1	1	0	1	0
25	607	7	10000	1	1	0	1	0
27	608	7	10000	1	1	0	1	0
25	609	7	10000	1	1	0	1	0
24	610	7	10000	1	1	0	1	0
23	610	7	10000	1	1	0	1	0
22	611	7	10000	1	1	0	1	0
21	613	7	10000	1	1	0	1	0
20	614	7	10000	1	1	0	1	0
21	615	7	10000	1	1	0	1	0
21	616	7	10000	1	1	0	1	0
20	617	7	10000	1	1	0	1	0
18	618	7	10000	1	1	0	1	0
18	619	7	10000	1	1	0	1	0
18	620	7	10000	1	1	0	1	0
18	620	7	10000	1	1	0	1	0
18	621	7	10000	1	1	0	1	0
18	623	7	10000	1	1	0	1	0
18	624	7	10000	1	1	0	1	0
17	625	7	10000	1	1	0	1	0
16	626	7	10000	1	1	0	1	0
15	627	7	10000	1	1	0	1	0
17	628	7	10000	1	1	0	1	0
17	629	7	10000	1	1	0	1	0
18	630	7	10000	1	1	0	1	0
18	630	7	10000	1	1	0	1	0
19	631	7	10000	1	1	0	1	0
19	633	7	10000	1	1	0	1	0
22	634	7	10000	1	1	0	1	0
24	635	7	10000	1	1	0	1	0
25	636	7	10000	1	1	0	1	0
40	637	7	10000	1	1	0	1	0
61	638	7	10000	1	1	0	1	0
66	639	7	10000	1	1	0	1	0
92	640	7	10000	1	1	0	1	0
126	640	7	10000	1	1	0	1	0
158	641	7	10000	1	1	0	1	0
170	643	7	10000	1	1	0	1	0
186	644	7	10000	1	1	0	1	0
190	645	7	10000	1	1	0	1	0
196	646	7	10000	1	1	0	1	0
220	647	7	10000	1	1	0	1	0
261	648	7	10000	1	1	0	1	0
276	649	7	10000	1	1	0	1	0
274	650	7	10000	1	1	0	1	0
300	650	7	10000	1	1	0	1	0
331	651	7	10000	1	1	0	1	0
323	653	7	10000	1	1	0	1	0
313	654	7	10000	1	1	0	1	0
330	655	7	10000	1	1	0	1	0
362	656	7	10000	1	1	0	1	0
378	657	7	10000	1	1	0	1	0
373	658	7	10000	1	1	0	1	0
362	659	7	10000	1	1	0	1	0
374	660	7	10000	1	1	0	1	0
395	660	7	10000	1	1	0	1	0
386	661	7	10000	1	1	0	1	0
373	663	7	10000	1	1	0	1	0
358	664	7	10000	1	1	0	1	0
350	665	7	10000	1	1	0	1	0
335	666	7	10000	1	1	0	1	0
328	667	7	10000	1	1	0	1	0
335	668	7	10000	1	1	0	1	0
328	669	7	10000	1	1	0	1	0
319	670	7	10000	1	1	0	1	0
319	670	7	10000	1	1	0	1	0
321	671	7	10000	1	1	0	1	0
319	673	7	10000	1	1	0	1	0
306	674	7	10000	1	1	0	1	0
297	675	7	10000	1	1	0	1	0
291	676	7	10000	1	1	0	1	0
288	677	7	10000	1	1	0	1	0
284	678	7	10000	1	1	0	1	0
281	679	7	10000	1	1	0	1	0
275	680	7	10000	1	1	0	1	0
269	680	7	10000	1	1	0	1	0
261	681	7	10000	1	1	0	1	0
251	683	7	10000	1	1	0	1	0
240	684	7	10000	1	1	0	1	0
229	685	7	10000	1	1	0	1	0
218	686	7	10000	1	1	0	1	0
209	687	7	10000	1	1	0	1	0
202	688	7	10000	1	1	0	1	0
194	689	7	10000	1	1	0	1	0
190	690	7	10000	1	1	0	1	0
187	690	7	10000	1	1	0	1	0
186	691	7	10000	1	1	0	1	0
185	693	7	10000	1	1	0	1	0
183	694	7	10000	1	1	0	1	0
180	695	7	10000	1	1	0	1	0
176	696	7	10000	1	1	0	1	0
169	697	7	10000	1	1	0	1	0
161	698	7	10000	1	1	0	1	0
156	699	7	10000	1	1	0	1	0
153	700	7	10000	1	1	0	1	0
152	700	7	10000	1	1	0	1	0
151	701	7	10000	1	1	0	1	0
152	703	7	10000	1	1	0	1	0
153	704	7	10000	1	1	0	1	0
154	705	7	10000	1	1	0	1	0
154	706	7	10000	1	1	0	1	0
154	707	7	10000	1	1	0	1	0
156	708	7	10000	1	1	0	1	0
154	709	7	10000	1	1	0	1	0
151	710	7	10000	1	1	0	1	0
147	710	7	10000	1	1	0	1	0
142	711	7	10000	1	1	0	1	0
138	713	7	10000	1	1	0	1	0
132	714	7	10000	1	1	0	1	0
128	715	7	10000	1	1	0	1	0
122	716	7	10000	1	1	0	1	0
119	717	7	10000	1	1	0	1	0
115	718	7	10000	1	1	0	1	0
112	719	7	10000	1	1	0	1	0
109	720	7	10000	1	1	0	1	0
107	720	7	10000	1	1	0	1	0
105	721	7	10000	1	1	0	1	0
103	723	7	10000	1	1	0	1	0
99	724	7	10000	1	1	0	1	0
94	725	7	10000	1	1	0	1	0
90	726	7	10000	1	1	0	1	0
87	727	7	10000	1	1	0	1	0
87	728	7	10000	1	1	0	1	0
83	729	7	10000	1	1	0	1	0
81	730	7	10000	1	1	0	1	0
80	730	7	10000	1	1	0	1	0
79	731	7	10000	1	1	0	1	0
80	733	7	10000	1	1	0	1	0
79	734	7	10000	1	1	0	1	0
80	735	7	10000	1	1	0	1	0
80	736	7	10000	1	1	0	1	0
77	737	7	10000	1	1	0	1	0
72	738	7	10000	1	1	0	1	0
69	739	7	10000	1	1	0	1	0
68	740	7	10000	1	1	0	1	0
66	740	7	10000	1	1	0	1	0
65	741	7	10000	1	1	0	1	0
64	743	7	10000	1	1	0	1	0
64	744	7	10000	1	1	0	1	0
62	745	7	10000	1	1	0	1	0
60	746	7	10000	1	1	0	1	0
59	747	7	10000	1	1	0	1	0
60	748	7	10000	1	1	0	1	0
59	749	7	10000	1	1	0	1	0
58	750	7	10000	1	1	0	1	0
57	750	7	10000	1	1	0	1	0
59	751	7	10000	1	1	0	1	0
61	753	7	10000	1	1	0	1	0
63	754	7	10000	1	1	0	1	0
66	755	7	10000	1	1	0	1	0
66	756	7	10000	1	1	0	1	0
66	757	7	10000	1	1	0	1	0
62	758	7	10000	1	1	0	1	0
60	759	7	10000	1	1	0	1	0
58	760	7	10000	1	1	0	1	0
57	760	7	10000	1	1	0	1	0
56	761	7	10000	1	1	0	1	0
53	763	7	10000	1	1	0	1	0
52	764	7	10000	1	1	0	1	0
50	765	7	10000	1	1	0	1	0
48	766	7	10000	1	1	0	1	0
47	767	7	10000	1	1	0	1	0
49	768	7	10000	1	1	0	1	0
50	769	7	10000	1	1	0	1	0
49	770	7	10000	1	1	0	1	0
47	770	7	10000	1	1	0	1	0
45	771	7	10000	1	1	0	1	0
43	773	7	10000	1	1	0	1	0
43	774	7	10000	1	1	0	1	0
44	775	7	10000	1	1	0	1	0
45	776	7	10000	1	1	0	1	0
47	777	7	10000	1	1	0	1	0
45	778	7	10000	1	1	0	1	0
45	779	7	10000	1	1	0	1	0
44	780	7	10000	1	1	0	1	0
43	780	7	10000	1	1	0	1	0
42	781	7	10000	1	1	0	1	0
41	783	7	10000	1	1	0	1	0
40	784	7	10000	1	1	0	1	0
38	785	7	10000	1	1	0	1	0
37	786	7	10000	1	1	0	1	0
37	787	7	10000	1	1	0	1	0
38	788	7	10000	1	1	0	1	0
37	789	7	10000	1	1	0	1	0
35	790	7	10000	1	1	0	1	0
34	790	7	10000	1	1	0	1	0
35	791	7	10000	1	1	0	1	0
34	793	7	10000	1	1	0	1	0
33	794	7	10000	1	1	0	1	0
34	795	7	10000	1	1	0	1	0
35	796	7	10000	1	1	0	1	0
36	797	7	10000	1	1	0	1	0
34	798	7	10000	1	1	0	1	0
35	799	7	10000	1	1	0	1	0
35	800	7	10000	1	1	0	1	0
34	800	7	10000	1	1	0	1	0
34	801	7	10000	1	1	0	1	0
34	803	7	10000	1	1	0	1	0
32	804	7	10000	1	1	0	1	0
31	805	7	10000	1	1	0	1	0
30	806	7	10000	1	1	0	1	0
29	807	7	10000	1	1	0	1	0
30	808	7	10000	1	1	0	1	0
29	809	7	10000	1	1	0	1	0
28	810	7	10000	1	1	0	1	0
26	810	7	10000	1	1	0	1	0
27	811	7	10000	1	1	0	1	0
25	813	7	10000	1	1	0	1	0
24	814	7	10000	1	1	0	1	0
25	815	7	10000	1	1	0	1	0
25	816	7	10000	1	1	0	1	0
25	817	7	10000	1	1	0	1	0
22	818	7	10000	1	1	0	1	0
22	819	7	10000	1	1	0	1	0
23	820	7	10000	1	1	0	1	0
25	820	7	10000	1	1	0	1	0
29	821	7	10000	1	1	0	1	0
32	823	7	10000	1	1	0	1	0
37	824	7	10000	1	1	0	1	0
40	825	7	10000	1	1	0	1	0
44	826	7	10000	1	1	0	1	0
50	827	7	10000	1	1	0	1	0
55	828	7	10000	1	1	0	1	0
53	829	7	10000	1	1	0	1	0
51	830	7	10000	1	1	0	1	0
51	830	7	10000	1	1	0	1	0
57	831	7	10000	1	1	0	1	0
64	833	7	10000	1	1	0	1	0
68	834	7	10000	1	1	0	1	0
70	835	7	10000	1	1	0	1	0
70	836	7	10000	1	1	0	1	0
68	837	7	10000	1	1	0	1	0
62	838	7	10000	1	1	0	1	0
61	839	7	10000	1	1	0	1	0
62	840	7	10000	1	1	0	1	0
64	840	7	10000	1	1	0	1	0
67	841	7	10000	1	1	0	1	0
68	843	7	10000	1	1	0	1	0
71	844	7	10000	1	1	0	1	0
72	845	7	10000	1	1	0	1	0
72	846	7	10000	1	1	0	1	0
72	847	7	10000	1	1	0	1	0
72	848	7	10000	1	1	0	1	0
71	849	7	10000	1	1	0	1	0
71	850	7	10000	1	1	0	1	0
70	850	7	10000	1	1	0	1	0
69	851	7	10000	1	1	0	1	0
65	853	7	10000	1	1	0	1	0
63	854	7	10000	1	1	0	1	0
62	855	7	10000	1	1	0	1	0
60	856	7	10000	1	1	0	1	0
58	857	7	10000	1	1	0	1	0
52	858	7	10000	1	1	0	1	0
51	859	7	10000	1	1	0	1	0
50	860	7	10000	1	1	0	1	0
49	860	7	10000	1	1	0	1	0
47	861	7	10000	1	1	0	1	0
46	863	7	10000	1	1	0	1	0
45	864	7	10000	1	1	0	1	0
43	865	7	10000	1	1	0	1	0
41	866	7	10000	1	1	0	1	0
40	867	7	10000	1	1	0	1	0
41	868	7	10000	1	1	0	1	0
40	869	7	10000	1	1	0	1	0
43	870	7	10000	1	1	0	1	0
46	870	7	10000	1	1	0	1	0
49	871	7	10000	1	1	0	1	0
50	873	7	10000	1	1	0	1	0
49	874	7	10000	1	1	0	1	0
48	875	7	10000	1	1	0	1	0
47	876	7	10000	1	1	0	1	0
46	877	7	10000	1	1	0	1	0
43	878	7	10000	1	1	0	1	0
44	879	7	10000	1	1	0	1	0
44	880	7	10000	1	1	0	1	0
44	880	7	10000	1	1	0	1	0
45	881	7	10000	1	1	0	1	0
43	883	7	10000	1	1	0	1	0
43	884	7	10000	1	1	0	1	0
43	885	7	10000	1	1	0	1	0
42	886	7	10000	1	1	0	1	0
42	887	7	10000	1	1	0	1	0
44	888	7	10000	1	1	0	1	0
43	889	7	10000	1	1	0	1	0
42	890	7	10000	1	1	0	1	0
42	890	7	10000	1	1	0	1	0
42	891	7	10000	1	1	0	1	0
41	893	7	10000	1	1	0	1	0
39	894	7	10000	1	1	0	1	0
38	895	7	10000	1	1	0	1	0
38	896	7	10000	1	1	0	1	0
38	897	7	10000	1	1	0	1	0
34	898	7	10000	1	1	0	1	0
34	899	7	10000	1	1	0	1	0
35	900	7	10000	1	1	0	1	0
36	900	7	10000	1	1	0	1	0
36	901	7	10000	1	1	0	1	0
35	903	7	10000	1	1	0	1	0
34	904	7	10000	1	1	0	1	0
34	905	7	10000	1	1	0	1	0
35	906	7	10000	1	1	0	1	0
35	907	7	10000	1	1	0	1	0
35	908	7	10000	1	1	0	1	0
34	909	7	10000	1	1	0	1	0
33	910	7	10000	1	1	0	1	0
32	910	7	10000	1	1	0	1	0
32	911	7	10000	1	1	0	1	0
32	913	7	10000	1	1	0	1	0
35	914	7	10000	1	1	0	1	0
38	915	7	10000	1	1	0	1	0
37	916	7	10000	1	1	0	1	0
41	917	7	10000	1	1	0	1	0
40	918	7	10000	1	1	0	1	0
43	919	7	10000	1	1	0	1	0
44	920	7	10000	1	1	0	1	0
44	920	7	10000	1	1	0	1	0
43	921	7	10000	1	1	0	1	0
41	923	7	10000	1	1	0	1	0
40	924	7	10000	1	1	0	1	0
39	925	7	10000	1	1	0	1	0
40	926	7	10000	1	1	0	1	0
42	927	7	10000	1	1	0	1	0
42	928	7	10000	1	1	0	1	0
41	929	7	10000	1	1	0	1	0
39	930	7	10000	1	1	0	1	0
38	930	7	10000	1	1	0	1	0
38	931	7	10000	1	1	0	1	0
37	933	7	10000	1	1	0	1	0
38	934	7	10000	1	1	0	1	0
37	935	7	10000	1	1	0	1	0
37	936	7	10000	1	1	0	1	0
38	937	7	10000	1	1	0	1	0
35	938	7	10000	1	1	0	1	0
36	939	7	10000	1	1	0	1	0
38	940	7	10000	1	1	0	1	0
38	940	7	10000	1	1	0	1	0
37	941	7	10000	1	1	0	1	0
35	943	7	10000	1	1	0	1	0
35	944	7	10000	1	1	0	1	0
36	945	7	10000	1	1	0	1	0
36	946	7	10000	1	1	0	1	0
36	947	7	10000	1	1	0	1	0
37	948	7	10000	1	1	0	1	0
37	949	7	10000	1	1	0	1	0
35	950	7	10000	1	1	0	1	0
35	950	7	10000	1	1	0	1	0
37	951	7	10000	1	1	0	1	0
36	953	7	10000	1	1	0	1	0
34	954	7	10000	1	1	0	1	0
34	955	7	10000	1	1	0	1	0
34	956	7	10000	1	1	0	1	0
35	957	7	10000	1	1	0	1	0
31	958	7	10000	1	1	0	1	0
31	959	7	10000	1	1	0	1	0
31	960	7	10000	1	1	0	1	0
31	960	7	10000	1	1	0	1	0
31	961	7	10000	1	1	0	1	0
31	963	7	10000	1	1	0	1	0
32	964	7	10000	1	1	0	1	0
32	965	7	10000	1	1	0	1	0
31	966	7	10000	1	1	0	1	0
30	967	7	10000	1	1	0	1	0
32	968	7	10000	1	1	0	1	0
32	969	7	10000	1	1	0	1	0
32	970	7	10000	1	1	0	1	0
33	970	7	10000	1	1	0	1	0
32	971	7	10000	1	1	0	1	0
31	973	7	10000	1	1	0	1	0
32	974	7	10000	1	1	0	1	0
33	975	7	10000	1	1	0	1	0
32	976	7	10000	1	1	0	1	0
32	977	7	10000	1	1	0	1	0
29	978	7	10000	1	1	0	1	0
29	979	7	10000	1	1	0	1	0
29	980	7	10000	1	1	0	1	0
30	980	7	10000	1	1	0	1	0
31	981	7	10000	1	1	0	1	0
32	983	7	10000	1	1	0	1	0
32	984	7	10000	1	1	0	1	0
32	985	7	10000	1	1	0	1	0
30	986	7	10000	1	1	0	1	0
30	987	7	10000	1	1	0	1	0
32	988	7	10000	1	1	0	1	0
32	989	7	10000	1	1	0	1	0
32	990	7	10000	1	1	0	1	0
33	990	7	10000	1	1	0	1	0
34	991	7	10000	1	1	0	1	0
33	993	7	10000	1	1	0	1	0
33	994	7	10000	1	1	0	1	0
34	995	7	10000	1	1	0	1	0
33	996	7	10000	1	1	0	1	0
35	997	7	10000	1	1	0	1	0
32	998	7	10000	1	1	0	1	0
32	999	7	10000	1	1	0	1	0
31	1000	7	10000	1	1	0	1	0
31	1000	7	10000	1	1	0	1	0
30	1001	7	10000	1	1	0	1	0
16	2	7	10000	2	1	0	2	0
16	3	7	10000	2	1	0	2	0
18	4	7	10000	2	1	0	2	0
19	5	7	10000	2	1	0	2	0
19	6	7	10000	2	1	0	2	0
20	7	7	10000	2	1	0	2	0
20	8	7	10000	2	1	0	2	0
20	9	7	10000	2	1	0	2	0
18	10	7	10000	2	1	0	2	0
18	11	7	10000	2	1	0	2	0
18	12	7	10000	2	1	0	2	0
18	13	7	10000	2	1	0	2	0
18	14	7	10000	2	1	0	2	0
18	15	7	10000	2	1	0	2	0
20	16	7	10000	2	1	0	2	0
20	17	7	10000	2	1	0	2	0
20	18	7	10000	2	1	0	2	0
21	19	7	10000	2	1	0	2	0
22	20	7	10000	2	1	0	2	0
21	21	7	10000	2	1	0	2	0
21	21	7	10000	2	1	0	2	0
21	22	7	10000	2	1	0	2	0
22	24	7	10000	2	1	0	2	0
22	25	7	10000	2	1	0	2	0
21	26	7	10000	2	1	0	2	0
21	27	7	10000	2	1	0	2	0
21	28	7	10000	2	1	0	2	0
23	29	7	10000	2	1	0	2	0
20	30	7	10000	2	1	0	2	0
19	31	7	10000	2	1	0	2	0
20	31	7	10000	2	1	0	2	0
20	32	7	10000	2	1	0	2	0
21	34	7	10000	2	1	0	2	0
20	35	7	10000	2	1	0	2	0
20	36	7	10000	2	1	0	2	0
20	37	7	10000	2	1	0	2	0
21	38	7	10000	2	1	0	2	0
23	39	7	10000	2	1	0	2	0
25	40	7	10000	2	1	0	2	0
24	41	7	10000	2	1	0	2	0
24	41	7	10000	2	1	0	2	0
24	42	7	10000	2	1	0	2	0
26	44	7	10000	2	1	0	2	0
24	45	7	10000	2	1	0	2	0
22	46	7	10000	2	1	0	2	0
22	47	7	10000	2	1	0	2	0
22	48	7	10000	2	1	0	2	0
23	49	7	10000	2	1	0	2	0
20	50	7	10000	2	1	0	2	0
20	51	7	10000	2	1	0	2	0
20	51	7	10000	2	1	0	2	0
20	52	7	10000	2	1	0	2	0
20	54	7	10000	2	1	0	2	0
19	55	7	10000	2	1	0	2	0
19	56	7	10000	2	1	0	2	0
18	57	7	10000	2	1	0	2	0
17	58	7	10000	2	1	0	2	0
18	59	7	10000	2	1	0	2	0
20	60	7	10000	2	1	0	2	0
19	61	7	10000	2	1	0	2	0
18	61	7	10000	2	1	0	2	0
18	62	7	10000	2	1	0	2	0
19	64	7	10000	2	1	0	2	0
19	65	7	10000	2	1	0	2	0
18	66	7	10000	2	1	0	2	0
18	67	7	10000	2	1	0	2	0
18	68	7	10000	2	1	0	2	0
18	69	7	10000	2	1	0	2	0
15	70	7	10000	2	1	0	2	0
15	71	7	10000	2	1	0	2	0
15	71	7	10000	2	1	0	2	0
16	72	7	10000	2	1	0	2	0
16	74	7	10000	2	1	0	2	0
15	75	7	10000	2	1	0	2	0
16	76	7	10000	2	1	0	2	0
16	77	7	10000	2	1	0	2	0
15	78	7	10000	2	1	0	2	0
16	79	7	10000	2	1	0	2	0
18	80	7	10000	2	1	0	2	0
17	81	7	10000	2	1	0	2	0
17	81	7	10000	2	1	0	2	0
17	82	7	10000	2	1	0	2	0
17	84	7	10000	2	1	0	2	0
17	85	7	10000	2	1	0	2	0
17	86	7	10000	2	1	0	2	0
19	87	7	10000	2	1	0	2	0
19	88	7	10000	2	1	0	2	0
19	89	7	10000	2	1	0	2	0
17	90	7	10000	2	1	0	2	0
17	91	7	10000	2	1	0	2	0
18	91	7	10000	2	1	0	2	0
17	92	7	10000	2	1	0	2	0
17	94	7	10000	2	1	0	2	0
16	95	7	10000	2	1	0	2	0
17	96	7	10000	2	1	0	2	0
15	97	7	10000	2	1	0	2	0
16	98	7	10000	2	1	0	2	0
18	99	7	10000	2	1	0	2	0
19	100	7	10000	2	1	0	2	0
19	101	7	10000	2	1	0	2	0
20	101	7	10000	2	1	0	2	0
20	102	7	10000	2	1	0	2	0
21	104	7	10000	2	1	0	2	0
21	105	7	10000	2	1	0	2	0
21	106	7	10000	2	1	0	2	0
22	107	7	10000	2	1	0	2	0
22	108	7	10000	2	1	0	2	0
22	109	7	10000	2	1	0	2	0
21	110	7	10000	2	1	0	2	0
22	111	7	10000	2	1	0	2	0
23	111	7	10000	2	1	0	2	0
23	112	7	10000	2	1	0	2	0
22	114	7	10000	2	1	0	2	0
22	115	7	10000	2	1	0	2	0
22	116	7	10000	2	1	0	2	0
20	117	7	10000	2	1	0	2	0
19	118	7	10000	2	1	0	2	0
20	119	7	10000	2	1	0	2	0
23	120	7	10000	2	1	0	2	0
23	121	7	10000	2	1	0	2	0
24	121	7	10000	2	1	0	2	0
24	122	7	10000	2	1	0	2	0
22	124	7	10000	2	1	0	2	0
22	125	7	10000	2	1	0	2	0
21	126	7	10000	2	1	0	2	0
22	127	7	10000	2	1	0	2	0
22	128	7	10000	2	1	0	2	0
21	129	7	10000	2	1	0	2	0
20	130	7	10000	2	1	0	2	0
20	131	7	10000	2	1	0	2	0
19	131	7	10000	2	1	0	2	0
19	132	7	10000	2	1	0	2	0
19	134	7	10000	2	1	0	2	0
19	135	7	10000	2	1	0	2	0
18	136	7	10000	2	1	0	2	0
18	137	7	10000	2	1	0	2	0
18	138	7	10000	2	1	0	2	0
18	139	7	10000	2	1	0	2	0
20	140	7	10000	2	1	0	2	0
19	141	7	10000	2	1	0	2	0
18	141	7	10000	2	1	0	2	0
17	142	7	10000	2	1	0	2	0
16	144	7	10000	2	1	0	2	0
16	145	7	10000	2	1	0	2	0
16	146	7	10000	2	1	0	2	0
17	147	7	10000	2	1	0	2	0
19	148	7	10000	2	1	0	2	0
18	149	7	10000	2	1	0	2	0
15	150	7	10000	2	1	0	2	0
15	151	7	10000	2	1	0	2	0
15	151	7	10000	2	1	0	2	0
16	152	7	10000	2	1	0	2	0
16	154	7	10000	2	1	0	2	0
17	155	7	10000	2	1	0	2	0
17	156	7	10000	2	1	0	2	0
16	157	7	10000	2	1	0	2	0
15	158	7	10000	2	1	0	2	0
14	159	7	10000	2	1	0	2	0
16	160	7	10000	2	1	0	2	0
16	161	7	10000	2	1	0	2	0
18	161	7	10000	2	1	0	2	0
18	162	7	10000	2	1	0	2	0
16	175	7	10000	2	1	0	2	0
16	176	7	10000	2	1	0	2	0
16	177	7	10000	2	1	0	2	0
17	178	7	10000	2	1	0	2	0
17	179	7	10000	2	1	0	2	0
20	180	7	10000	2	1	0	2	0
24	181	7	10000	2	1	0	2	0
29	182	7	10000	2	1	0	2	0
33	183	7	10000	2	1	0	2	0
32	184	7	10000	2	1	0	2	0
34	185	7	10000	2	1	0	2	0
39	186	7	10000	2	1	0	2	0
46	187	7	10000	2	1	0	2	0
49	188	7	10000	2	1	0	2	0
49	183	7	10000	2	1	0	2	0
48	184	7	10000	2	1	0	2	0
48	185	7	10000	2	1	0	2	0
47	186	7	10000	2	1	0	2	0
44	187	7	10000	2	1	0	2	0
43	188	7	10000	2	1	0	2	0
44	189	7	10000	2	1	0	2	0
44	190	7	10000	2	1	0	2	0
44	194	7	10000	2	1	0	2	0
44	195	7	10000	2	1	0	2	0
43	196	7	10000	2	1	0	2	0
41	197	7	10000	2	1	0	2	0
38	198	7	10000	2	1	0	2	0
37	199	7	10000	2	1	0	2	0
35	200	7	10000	2	1	0	2	0
34	201	7	10000	2	1	0	2	0
33	202	7	10000	2	1	0	2	0
32	203	7	10000	2	1	0	2	0
32	199	7	10000	2	1	0	2	0
32	200	7	10000	2	1	0	2	0
31	201	7	10000	2	1	0	2	0
30	202	7	10000	2	1	0	2	0
32	203	7	10000	2	1	0	2	0
30	204	7	10000	2	1	0	2	0
29	204	7	10000	2	1	0	2	0
28	205	7	10000	2	1	0	2	0
27	206	7	10000	2	1	0	2	0
26	207	7	10000	2	1	0	2	0
24	209	7	10000	2	1	0	2	0
24	210	7	10000	2	1	0	2	0
23	211	7	10000	2	1	0	2	0
23	212	7	10000	2	1	0	2	0
20	213	7	10000	2	1	0	2	0
20	214	7	10000	2	1	0	2	0
20	216	7	10000	2	1	0	2	0
20	217	7	10000	2	1	0	2	0
19	218	7	10000	2	1	0	2	0
19	219	7	10000	2	1	0	2	0
18	220	7	10000	2	1	0	2	0
17	221	7	10000	2	1	0	2	0
16	220	7	10000	2	1	0	2	0
15	221	7	10000	2	1	0	2	0
18	222	7	10000	2	1	0	2	0
17	223	7	10000	2	1	0	2	0
17	227	7	10000	2	1	0	2	0
17	228	7	10000	2	1	0	2	0
17	229	7	10000	2	1	0	2	0
17	230	7	10000	2	1	0	2	0
17	231	7	10000	2	1	0	2	0
19	232	7	10000	2	1	0	2	0
18	231	7	10000	2	1	0	2	0
18	232	7	10000	2	1	0	2	0
16	233	7	10000	2	1	0	2	0
16	234	7	10000	2	1	0	2	0
16	235	7	10000	2	1	0	2	0
16	236	7	10000	2	1	0	2	0
15	238	7	10000	2	1	0	2	0
15	239	7	10000	2	1	0	2	0
16	240	7	10000	2	1	0	2	0
17	241	7	10000	2	1	0	2	0
16	242	7	10000	2	1	0	2	0
15	243	7	10000	2	1	0	2	0
18	243	7	10000	2	1	0	2	0
17	244	7	10000	2	1	0	2	0
17	245	7	10000	2	1	0	2	0
16	246	7	10000	2	1	0	2	0
16	249	7	10000	2	1	0	2	0
16	250	7	10000	2	1	0	2	0
16	251	7	10000	2	1	0	2	0
18	252	7	10000	2	1	0	2	0
19	253	7	10000	2	1	0	2	0
18	254	7	10000	2	1	0	2	0
15	255	7	10000	2	1	0	2	0
16	256	7	10000	2	1	0	2	0
18	253	7	10000	2	1	0	2	0
19	254	7	10000	2	1	0	2	0
18	255	7	10000	2	1	0	2	0
19	256	7	10000	2	1	0	2	0
20	259	7	10000	2	1	0	2	0
20	260	7	10000	2	1	0	2	0
18	261	7	10000	2	1	0	2	0
17	262	7	10000	2	1	0	2	0
19	263	7	10000	2	1	0	2	0
20	264	7	10000	2	1	0	2	0
20	265	7	10000	2	1	0	2	0
19	266	7	10000	2	1	0	2	0
18	267	7	10000	2	1	0	2	0
17	268	7	10000	2	1	0	2	0
17	269	7	10000	2	1	0	2	0
18	270	7	10000	2	1	0	2	0
18	268	7	10000	2	1	0	2	0
17	269	7	10000	2	1	0	2	0
15	270	7	10000	2	1	0	2	0
15	271	7	10000	2	1	0	2	0
17	272	7	10000	2	1	0	2	0
19	273	7	10000	2	1	0	2	0
20	274	7	10000	2	1	0	2	0
21	275	7	10000	2	1	0	2	0
21	276	7	10000	2	1	0	2	0
22	277	7	10000	2	1	0	2	0
21	278	7	10000	2	1	0	2	0
20	279	7	10000	2	1	0	2	0
22	280	7	10000	2	1	0	2	0
21	281	7	10000	2	1	0	2	0
22	282	7	10000	2	1	0	2	0
21	283	7	10000	2	1	0	2	0
20	284	7	10000	2	1	0	2	0
19	285	7	10000	2	1	0	2	0
18	286	7	10000	2	1	0	2	0
19	287	7	10000	2	1	0	2	0
18	288	7	10000	2	1	0	2	0
18	289	7	10000	2	1	0	2	0
16	290	7	10000	2	1	0	2	0
17	291	7	10000	2	1	0	2	0
18	292	7	10000	2	1	0	2	0
18	293	7	10000	2	1	0	2	0
17	294	7	10000	2	1	0	2	0
18	295	7	10000	2	1	0	2	0
19	296	7	10000	2	1	0	2	0
21	297	7	10000	2	1	0	2	0
21	298	7	10000	2	1	0	2	0
21	299	7	10000	2	1	0	2	0
23	300	7	10000	2	1	0	2	0
22	301	7	10000	2	1	0	2	0
22	302	7	10000	2	1	0	2	0
20	303	7	10000	2	1	0	2	0
19	304	7	10000	2	1	0	2	0
19	305	7	10000	2	1	0	2	0
19	306	7	10000	2	1	0	2	0
19	307	7	10000	2	1	0	2	0
18	308	7	10000	2	1	0	2	0
19	309	7	10000	2	1	0	2	0
17	310	7	10000	2	1	0	2	0
18	311	7	10000	2	1	0	2	0
19	312	7	10000	2	1	0	2	0
18	313	7	10000	2	1	0	2	0
19	314	7	10000	2	1	0	2	0
19	315	7	10000	2	1	0	2	0
19	316	7	10000	2	1	0	2	0
18	317	7	10000	2	1	0	2	0
17	318	7	10000	2	1	0	2	0
17	319	7	10000	2	1	0	2	0
19	320	7	10000	2	1	0	2	0
19	321	7	10000	2	1	0	2	0
20	322	7	10000	2	1	0	2	0
21	323	7	10000	2	1	0	2	0
22	324	7	10000	2	1	0	2	0
21	325	7	10000	2	1	0	2	0
21	326	7	10000	2	1	0	2	0
24	327	7	10000	2	1	0	2	0
24	328	7	10000	2	1	0	2	0
24	329	7	10000	2	1	0	2	0
22	330	7	10000	2	1	0	2	0
21	331	7	10000	2	1	0	2	0
22	332	7	10000	2	1	0	2	0
21	333	7	10000	2	1	0	2	0
20	334	7	10000	2	1	0	2	0
21	335	7	10000	2	1	0	2	0
21	336	7	10000	2	1	0	2	0
20	337	7	10000	2	1	0	2	0
19	338	7	10000	2	1	0	2	0
20	339	7	10000	2	1	0	2	0
22	340	7	10000	2	1	0	2	0
22	341	7	10000	2	1	0	2	0
22	342	7	10000	2	1	0	2	0
20	343	7	10000	2	1	0	2	0
20	344	7	10000	2	1	0	2	0
20	345	7	10000	2	1	0	2	0
19	346	7	10000	2	1	0	2	0
21	347	7	10000	2	1	0	2	0
21	348	7	10000	2	1	0	2	0
21	349	7	10000	2	1	0	2	0
19	350	7	10000	2	1	0	2	0
18	351	7	10000	2	1	0	2	0
19	352	7	10000	2	1	0	2	0
19	353	7	10000	2	1	0	2	0
19	354	7	10000	2	1	0	2	0
19	355	7	10000	2	1	0	2	0
19	356	7	10000	2	1	0	2	0
18	357	7	10000	2	1	0	2	0
17	358	7	10000	2	1	0	2	0
17	359	7	10000	2	1	0	2	0
18	360	7	10000	2	1	0	2	0
18	361	7	10000	2	1	0	2	0
19	362	7	10000	2	1	0	2	0
18	363	7	10000	2	1	0	2	0
18	364	7	10000	2	1	0	2	0
17	365	7	10000	2	1	0	2	0
17	366	7	10000	2	1	0	2	0
18	367	7	10000	2	1	0	2	0
17	368	7	10000	2	1	0	2	0
17	369	7	10000	2	1	0	2	0
15	370	7	10000	2	1	0	2	0
15	371	7	10000	2	1	0	2	0
15	372	7	10000	2	1	0	2	0
16	373	7	10000	2	1	0	2	0
17	374	7	10000	2	1	0	2	0
17	375	7	10000	2	1	0	2	0
17	376	7	10000	2	1	0	2	0
16	377	7	10000	2	1	0	2	0
15	378	7	10000	2	1	0	2	0
14	379	7	10000	2	1	0	2	0
17	380	7	10000	2	1	0	2	0
17	381	7	10000	2	1	0	2	0
17	382	7	10000	2	1	0	2	0
17	383	7	10000	2	1	0	2	0
18	384	7	10000	2	1	0	2	0
19	385	7	10000	2	1	0	2	0
18	386	7	10000	2	1	0	2	0
18	387	7	10000	2	1	0	2	0
20	388	7	10000	2	1	0	2	0
23	389	7	10000	2	1	0	2	0
21	390	7	10000	2	1	0	2	0
21	391	7	10000	2	1	0	2	0
21	392	7	10000	2	1	0	2	0
20	393	7	10000	2	1	0	2	0
19	394	7	10000	2	1	0	2	0
19	395	7	10000	2	1	0	2	0
19	396	7	10000	2	1	0	2	0
19	397	7	10000	2	1	0	2	0
18	398	7	10000	2	1	0	2	0
17	399	7	10000	2	1	0	2	0
20	400	7	10000	2	1	0	2	0
18	401	7	10000	2	1	0	2	0
18	402	7	10000	2	1	0	2	0
17	403	7	10000	2	1	0	2	0
17	404	7	10000	2	1	0	2	0
17	405	7	10000	2	1	0	2	0
17	406	7	10000	2	1	0	2	0
18	407	7	10000	2	1	0	2	0
17	408	7	10000	2	1	0	2	0
17	409	7	10000	2	1	0	2	0
15	410	7	10000	2	1	0	2	0
15	411	7	10000	2	1	0	2	0
15	412	7	10000	2	1	0	2	0
16	413	7	10000	2	1	0	2	0
16	414	7	10000	2	1	0	2	0
16	415	7	10000	2	1	0	2	0
16	416	7	10000	2	1	0	2	0
14	417	7	10000	2	1	0	2	0
14	418	7	10000	2	1	0	2	0
13	419	7	10000	2	1	0	2	0
16	420	7	10000	2	1	0	2	0
15	421	7	10000	2	1	0	2	0
14	422	7	10000	2	1	0	2	0
13	423	7	10000	2	1	0	2	0
13	424	7	10000	2	1	0	2	0
12	425	7	10000	2	1	0	2	0
12	426	7	10000	2	1	0	2	0
14	427	7	10000	2	1	0	2	0
17	428	7	10000	2	1	0	2	0
17	429	7	10000	2	1	0	2	0
15	430	7	10000	2	1	0	2	0
16	431	7	10000	2	1	0	2	0
17	432	7	10000	2	1	0	2	0
17	433	7	10000	2	1	0	2	0
17	434	7	10000	2	1	0	2	0
16	435	7	10000	2	1	0	2	0
16	436	7	10000	2	1	0	2	0
15	437	7	10000	2	1	0	2	0
14	438	7	10000	2	1	0	2	0
14	439	7	10000	2	1	0	2	0
16	440	7	10000	2	1	0	2	0
14	441	7	10000	2	1	0	2	0
14	442	7	10000	2	1	0	2	0
14	443	7	10000	2	1	0	2	0
13	444	7	10000	2	1	0	2	0
12	445	7	10000	2	1	0	2	0
12	446	7	10000	2	1	0	2	0
13	447	7	10000	2	1	0	2	0
13	448	7	10000	2	1	0	2	0
13	449	7	10000	2	1	0	2	0
10	450	7	10000	2	1	0	2	0
11	451	7	10000	2	1	0	2	0
13	452	7	10000	2	1	0	2	0
15	453	7	10000	2	1	0	2	0
15	454	7	10000	2	1	0	2	0
15	455	7	10000	2	1	0	2	0
17	456	7	10000	2	1	0	2	0
18	457	7	10000	2	1	0	2	0
19	458	7	10000	2	1	0	2	0
20	459	7	10000	2	1	0	2	0
22	460	7	10000	2	1	0	2	0
21	461	7	10000	2	1	0	2	0
21	462	7	10000	2	1	0	2	0
21	463	7	10000	2	1	0	2	0
21	464	7	10000	2	1	0	2	0
23	465	7	10000	2	1	0	2	0
21	466	7	10000	2	1	0	2	0
21	467	7	10000	2	1	0	2	0
21	468	7	10000	2	1	0	2	0
20	469	7	10000	2	1	0	2	0
18	470	7	10000	2	1	0	2	0
18	471	7	10000	2	1	0	2	0
19	472	7	10000	2	1	0	2	0
20	473	7	10000	2	1	0	2	0
21	474	7	10000	2	1	0	2	0
21	475	7	10000	2	1	0	2	0
21	476	7	10000	2	1	0	2	0
20	477	7	10000	2	1	0	2	0
18	478	7	10000	2	1	0	2	0
18	479	7	10000	2	1	0	2	0
20	480	7	10000	2	1	0	2	0
18	481	7	10000	2	1	0	2	0
17	482	7	10000	2	1	0	2	0
16	483	7	10000	2	1	0	2	0
16	484	7	10000	2	1	0	2	0
17	485	7	10000	2	1	0	2	0
17	486	7	10000	2	1	0	2	0
18	487	7	10000	2	1	0	2	0
18	488	7	10000	2	1	0	2	0
18	489	7	10000	2	1	0	2	0
16	490	7	10000	2	1	0	2	0
16	491	7	10000	2	1	0	2	0
16	492	7	10000	2	1	0	2	0
16	493	7	10000	2	1	0	2	0
16	494	7	10000	2	1	0	2	0
17	495	7	10000	2	1	0	2	0
16	496	7	10000	2	1	0	2	0
16	497	7	10000	2	1	0	2	0
15	498	7	10000	2	1	0	2	0
14	499	7	10000	2	1	0	2	0
17	500	7	10000	2	1	0	2	0
15	501	7	10000	2	1	0	2	0
14	501	7	10000	2	1	0	2	1
14	502	7	10000	2	1	0	2	1
14	504	7	10000	2	1	0	2	1
14	505	7	10000	2	1	0	2	1
13	506	7	10000	2	1	0	2	1
14	507	7	10000	2	1	0	2	1
15	508	7	10000	2	1	0	2	1
15	509	7	10000	2	1	0	2	1
13	510	7	10000	2	1	0	2	1
13	511	7	10000	2	1	0	2	1
13	512	7	10000	2	1	0	2	1
13	513	7	10000	2	1	0	2	1
12	514	7	10000	2	1	0	2	1
13	515	7	10000	2	1	0	2	1
12	516	7	10000	2	1	0	2	1
12	517	7	10000	2	1	0	2	1
12	518	7	10000	2	1	0	2	1
13	519	7	10000	2	1	0	2	1
18	520	7	10000	2	1	0	2	1
18	521	7	10000	2	1	0	2	1
18	522	7	10000	2	1	0	2	1
17	523	7	10000	2	1	0	2	1
17	524	7	10000	2	1	0	2	1
19	525	7	10000	2	1	0	2	1
18	526	7	10000	2	1	0	2	1
18	527	7	10000	2	1	0	2	1
18	528	7	10000	2	1	0	2	1
18	529	7	10000	2	1	0	2	1
15	530	7	10000	2	1	0	2	1
14	531	7	10000	2	1	0	2	1
14	532	7	10000	2	1	0	2	1
14	533	7	10000	2	1	0	2	1
15	534	7	10000	2	1	0	2	1
15	535	7	10000	2	1	0	2	1
14	536	7	10000	2	1	0	2	1
13	537	7	10000	2	1	0	2	1
13	538	7	10000	2	1	0	2	1
13	539	7	10000	2	1	0	2	1
16	540	7	10000	2	1	0	2	1
15	541	7	10000	2	1	0	2	1
14	542	7	10000	2	1	0	2	1
14	543	7	10000	2	1	0	2	1
13	544	7	10000	2	1	0	2	1
13	545	7	10000	2	1	0	2	1
14	546	7	10000	2	1	0	2	1
14	547	7	10000	2	1	0	2	1
15	548	7	10000	2	1	0	2	1
15	549	7	10000	2	1	0	2	1
13	550	7	10000	2	1	0	2	1
12	551	7	10000	2	1	0	2	1
13	552	7	10000	2	1	0	2	0
14	553	7	10000	2	1	0	2	0
14	554	7	10000	2	1	0	2	0
14	555	7	10000	2	1	0	2	0
14	556	7	10000	2	1	0	2	0
13	557	7	10000	2	1	0	2	0
13	558	7	10000	2	1	0	2	0
13	559	7	10000	2	1	0	2	0
16	560	7	10000	2	1	0	2	0
17	561	7	10000	2	1	0	2	0
18	562	7	10000	2	1	0	2	0
18	563	7	10000	2	1	0	2	0
17	564	7	10000	2	1	0	2	0
17	565	7	10000	2	1	0	2	0
16	566	7	10000	2	1	0	2	0
18	567	7	10000	2	1	0	2	0
18	568	7	10000	2	1	0	2	0
18	569	7	10000	2	1	0	2	0
15	570	7	10000	2	1	0	2	0
15	571	7	10000	2	1	0	2	0
16	572	7	10000	2	1	0	2	0
16	573	7	10000	2	1	0	2	0
16	574	7	10000	2	1	0	2	0
16	575	7	10000	2	1	0	2	0
15	576	7	10000	2	1	0	2	0
16	577	7	10000	2	1	0	2	0
16	578	7	10000	2	1	0	2	0
15	579	7	10000	2	1	0	2	0
19	580	7	10000	2	1	0	2	0
19	581	7	10000	2	1	0	2	0
19	582	7	10000	2	1	0	2	0
18	583	7	10000	2	1	0	2	0
18	584	7	10000	2	1	0	2	0
20	585	7	10000	2	1	0	2	0
20	586	7	10000	2	1	0	2	0
20	587	7	10000	2	1	0	2	0
22	588	7	10000	2	1	0	2	0
21	589	7	10000	2	1	0	2	0
21	590	7	10000	2	1	0	2	0
24	591	7	10000	2	1	0	2	0
44	592	7	10000	2	1	0	2	0
62	593	7	10000	2	1	0	2	0
70	594	7	10000	2	1	0	2	0
85	595	7	10000	2	1	0	2	0
88	596	7	10000	2	1	0	2	0
97	597	7	10000	2	1	0	2	0
138	598	7	10000	2	1	0	2	0
185	599	7	10000	2	1	0	2	0
220	600	7	10000	2	1	0	2	0
229	601	7	10000	2	1	0	2	0
249	602	7	10000	2	1	0	2	0
249	603	7	10000	2	1	0	2	0
255	604	7	10000	2	1	0	2	0
249	605	7	10000	2	1	0	2	0
240	606	7	10000	2	1	0	2	0
239	607	7	10000	2	1	0	2	0
261	608	7	10000	2	1	0	2	0
292	609	7	10000	2	1	0	2	0
323	610	7	10000	2	1	0	2	0
344	611	7	10000	2	1	0	2	0
353	612	7	10000	2	1	0	2	0
342	613	7	10000	2	1	0	2	0
339	614	7	10000	2	1	0	2	0
335	615	7	10000	2	1	0	2	0
331	616	7	10000	2	1	0	2	0
325	617	7	10000	2	1	0	2	0
320	618	7	10000	2	1	0	2	0
314	619	7	10000	2	1	0	2	0
322	620	7	10000	2	1	0	2	0
331	621	7	10000	2	1	0	2	0
370	622	7	10000	2	1	0	2	0
391	623	7	10000	2	1	0	2	0
400	624	7	10000	2	1	0	2	0
388	625	7	10000	2	1	0	2	0
385	626	7	10000	2	1	0	2	0
379	627	7	10000	2	1	0	2	0
365	628	7	10000	2	1	0	2	0
350	629	7	10000	2	1	0	2	0
335	630	7	10000	2	1	0	2	0
321	631	7	10000	2	1	0	2	0
310	632	7	10000	2	1	0	2	0
301	633	7	10000	2	1	0	2	0
293	634	7	10000	2	1	0	2	0
286	635	7	10000	2	1	0	2	0
278	636	7	10000	2	1	0	2	0
266	637	7	10000	2	1	0	2	0
256	638	7	10000	2	1	0	2	0
244	639	7	10000	2	1	0	2	0
234	640	7	10000	2	1	0	2	0
224	641	7	10000	2	1	0	2	0
214	642	7	10000	2	1	0	2	0
205	643	7	10000	2	1	0	2	0
198	644	7	10000	2	1	0	2	0
192	645	7	10000	2	1	0	2	0
185	646	7	10000	2	1	0	2	0
180	647	7	10000	2	1	0	2	0
175	648	7	10000	2	1	0	2	0
169	649	7	10000	2	1	0	2	0
159	650	7	10000	2	1	0	2	0
153	651	7	10000	2	1	0	2	0
148	652	7	10000	2	1	0	2	0
144	653	7	10000	2	1	0	2	0
141	654	7	10000	2	1	0	2	0
138	655	7	10000	2	1	0	2	0
138	656	7	10000	2	1	0	2	0
136	657	7	10000	2	1	0	2	0
138	658	7	10000	2	1	0	2	0
139	659	7	10000	2	1	0	2	0
145	660	7	10000	2	1	0	2	0
149	661	7	10000	2	1	0	2	0
152	662	7	10000	2	1	0	2	0
153	663	7	10000	2	1	0	2	0
153	664	7	10000	2	1	0	2	0
152	665	7	10000	2	1	0	2	0
151	666	7	10000	2	1	0	2	0
149	667	7	10000	2	1	0	2	0
144	668	7	10000	2	1	0	2	0
140	669	7	10000	2	1	0	2	0
133	670	7	10000	2	1	0	2	0
128	671	7	10000	2	1	0	2	0
125	672	7	10000	2	1	0	2	0
122	673	7	10000	2	1	0	2	0
120	674	7	10000	2	1	0	2	0
120	675	7	10000	2	1	0	2	0
121	676	7	10000	2	1	0	2	0
122	677	7	10000	2	1	0	2	0
124	678	7	10000	2	1	0	2	0
125	679	7	10000	2	1	0	2	0
129	680	7	10000	2	1	0	2	0
130	681	7	10000	2	1	0	2	0
129	682	7	10000	2	1	0	2	0
128	683	7	10000	2	1	0	2	0
125	684	7	10000	2	1	0	2	0
120	685	7	10000	2	1	0	2	0
115	686	7	10000	2	1	0	2	0
111	687	7	10000	2	1	0	2	0
107	688	7	10000	2	1	0	2	0
104	689	7	10000	2	1	0	2	0
98	690	7	10000	2	1	0	2	0
94	691	7	10000	2	1	0	2	0
91	692	7	10000	2	1	0	2	0
89	693	7	10000	2	1	0	2	0
84	694	7	10000	2	1	0	2	0
82	695	7	10000	2	1	0	2	0
79	696	7	10000	2	1	0	2	0
76	697	7	10000	2	1	0	2	0
75	698	7	10000	2	1	0	2	0
72	699	7	10000	2	1	0	2	0
72	700	7	10000	2	1	0	2	0
70	701	7	10000	2	1	0	2	0
68	702	7	10000	2	1	0	2	0
65	703	7	10000	2	1	0	2	0
61	704	7	10000	2	1	0	2	0
58	705	7	10000	2	1	0	2	0
57	706	7	10000	2	1	0	2	0
57	707	7	10000	2	1	0	2	0
58	708	7	10000	2	1	0	2	0
58	709	7	10000	2	1	0	2	0
56	710	7	10000	2	1	0	2	0
57	711	7	10000	2	1	0	2	0
58	712	7	10000	2	1	0	2	0
57	713	7	10000	2	1	0	2	0
55	714	7	10000	2	1	0	2	0
55	715	7	10000	2	1	0	2	0
53	716	7	10000	2	1	0	2	0
50	717	7	10000	2	1	0	2	0
48	718	7	10000	2	1	0	2	0
47	719	7	10000	2	1	0	2	0
49	720	7	10000	2	1	0	2	0
48	721	7	10000	2	1	0	2	0
47	722	7	10000	2	1	0	2	0
46	723	7	10000	2	1	0	2	0
43	724	7	10000	2	1	0	2	0
43	725	7	10000	2	1	0	2	0
43	726	7	10000	2	1	0	2	0
43	727	7	10000	2	1	0	2	0
44	728	7	10000	2	1	0	2	0
44	729	7	10000	2	1	0	2	0
43	730	7	10000	2	1	0	2	0
44	731	7	10000	2	1	0	2	0
45	732	7	10000	2	1	0	2	0
47	733	7	10000	2	1	0	2	0
47	734	7	10000	2	1	0	2	0
48	735	7	10000	2	1	0	2	0
47	736	7	10000	2	1	0	2	0
45	737	7	10000	2	1	0	2	0
44	738	7	10000	2	1	0	2	0
41	739	7	10000	2	1	0	2	0
42	740	7	10000	2	1	0	2	0
42	741	7	10000	2	1	0	2	0
40	742	7	10000	2	1	0	2	0
40	743	7	10000	2	1	0	2	0
38	744	7	10000	2	1	0	2	0
37	745	7	10000	2	1	0	2	0
37	746	7	10000	2	1	0	2	0
38	747	7	10000	2	1	0	2	0
39	748	7	10000	2	1	0	2	0
40	749	7	10000	2	1	0	2	0
38	750	7	10000	2	1	0	2	0
40	751	7	10000	2	1	0	2	0
41	752	7	10000	2	1	0	2	0
43	753	7	10000	2	1	0	2	0
43	754	7	10000	2	1	0	2	0
43	755	7	10000	2	1	0	2	0
44	756	7	10000	2	1	0	2	0
44	757	7	10000	2	1	0	2	0
43	758	7	10000	2	1	0	2	0
42	759	7	10000	2	1	0	2	0
45	760	7	10000	2	1	0	2	0
47	761	7	10000	2	1	0	2	0
49	762	7	10000	2	1	0	2	0
50	763	7	10000	2	1	0	2	0
48	764	7	10000	2	1	0	2	0
49	765	7	10000	2	1	0	2	0
51	766	7	10000	2	1	0	2	0
53	767	7	10000	2	1	0	2	0
56	768	7	10000	2	1	0	2	0
55	769	7	10000	2	1	0	2	0
53	770	7	10000	2	1	0	2	0
53	771	7	10000	2	1	0	2	0
53	772	7	10000	2	1	0	2	0
52	773	7	10000	2	1	0	2	0
50	774	7	10000	2	1	0	2	0
49	775	7	10000	2	1	0	2	0
49	776	7	10000	2	1	0	2	0
47	777	7	10000	2	1	0	2	0
46	778	7	10000	2	1	0	2	0
42	779	7	10000	2	1	0	2	0
44	780	7	10000	2	1	0	2	0
44	781	7	10000	2	1	0	2	0
45	782	7	10000	2	1	0	2	0
46	783	7	10000	2	1	0	2	0
46	784	7	10000	2	1	0	2	0
45	785	7	10000	2	1	0	2	0
45	786	7	10000	2	1	0	2	0
48	787	7	10000	2	1	0	2	0
49	788	7	10000	2	1	0	2	0
50	789	7	10000	2	1	0	2	0
47	790	7	10000	2	1	0	2	0
47	791	7	10000	2	1	0	2	0
46	792	7	10000	2	1	0	2	0
45	793	7	10000	2	1	0	2	0
43	794	7	10000	2	1	0	2	0
41	795	7	10000	2	1	0	2	0
40	796	7	10000	2	1	0	2	0
39	797	7	10000	2	1	0	2	0
37	798	7	10000	2	1	0	2	0
35	799	7	10000	2	1	0	2	0
37	800	7	10000	2	1	0	2	0
39	801	7	10000	2	1	0	2	0
40	802	7	10000	2	1	0	2	0
40	803	7	10000	2	1	0	2	0
38	804	7	10000	2	1	0	2	0
37	805	7	10000	2	1	0	2	0
35	806	7	10000	2	1	0	2	0
35	807	7	10000	2	1	0	2	0
36	808	7	10000	2	1	0	2	0
37	809	7	10000	2	1	0	2	0
36	810	7	10000	2	1	0	2	0
37	811	7	10000	2	1	0	2	0
36	812	7	10000	2	1	0	2	0
36	813	7	10000	2	1	0	2	0
35	814	7	10000	2	1	0	2	0
35	815	7	10000	2	1	0	2	0
36	816	7	10000	2	1	0	2	0
35	817	7	10000	2	1	0	2	0
35	818	7	10000	2	1	0	2	0
34	819	7	10000	2	1	0	2	0
35	820	7	10000	2	1	0	2	0
35	821	7	10000	2	1	0	2	0
35	822	7	10000	2	1	0	2	0
34	823	7	10000	2	1	0	2	0
34	824	7	10000	2	1	0	2	0
33	825	7	10000	2	1	0	2	0
32	826	7	10000	2	1	0	2	0
32	827	7	10000	2	1	0	2	0
32	828	7	10000	2	1	0	2	0
34	829	7	10000	2	1	0	2	0
32	830	7	10000	2	1	0	2	0
33	831	7	10000	2	1	0	2	0
32	832	7	10000	2	1	0	2	0
32	833	7	10000	2	1	0	2	0
31	834	7	10000	2	1	0	2	0
29	835	7	10000	2	1	0	2	0
29	836	7	10000	2	1	0	2	0
28	837	7	10000	2	1	0	2	0
28	838	7	10000	2	1	0	2	0
28	839	7	10000	2	1	0	2	0
29	840	7	10000	2	1	0	2	0
28	841	7	10000	2	1	0	2	0
26	842	7	10000	2	1	0	2	0
25	843	7	10000	2	1	0	2	0
24	844	7	10000	2	1	0	2	0
24	845	7	10000	2	1	0	2	0
24	846	7	10000	2	1	0	2	0
25	847	7	10000	2	1	0	2	0
25	848	7	10000	2	1	0	2	0
25	849	7	10000	2	1	0	2	0
23	850	7	10000	2	1	0	2	0
24	851	7	10000	2	1	0	2	0
24	852	7	10000	2	1	0	2	0
23	853	7	10000	2	1	0	2	0
23	854	7	10000	2	1	0	2	0
22	855	7	10000	2	1	0	2	0
21	856	7	10000	2	1	0	2	0
21	857	7	10000	2	1	0	2	0
24	858	7	10000	2	1	0	2	0
24	859	7	10000	2	1	0	2	0
27	860	7	10000	2	1	0	2	0
27	861	7	10000	2	1	0	2	0
25	862	7	10000	2	1	0	2	0
24	863	7	10000	2	1	0	2	0
24	864	7	10000	2	1	0	2	0
23	865	7	10000	2	1	0	2	0
22	866	7	10000	2	1	0	2	0
23	867	7	10000	2	1	0	2	0
23	868	7	10000	2	1	0	2	0
26	869	7	10000	2	1	0	2	0
24	870	7	10000	2	1	0	2	0
26	871	7	10000	2	1	0	2	0
27	872	7	10000	2	1	0	2	0
27	873	7	10000	2	1	0	2	0
27	874	7	10000	2	1	0	2	0
26	875	7	10000	2	1	0	2	0
27	876	7	10000	2	1	0	2	0
26	877	7	10000	2	1	0	2	0
28	878	7	10000	2	1	0	2	0
29	879	7	10000	2	1	0	2	0
32	880	7	10000	2	1	0	2	0
32	881	7	10000	2	1	0	2	0
32	882	7	10000	2	1	0	2	0
32	883	7	10000	2	1	0	2	0
31	884	7	10000	2	1	0	2	0
31	885	7	10000	2	1	0	2	0
31	886	7	10000	2	1	0	2	0
32	887	7	10000	2	1	0	2	0
32	888	7	10000	2	1	0	2	0
33	889	7	10000	2	1	0	2	0
32	890	7	10000	2	1	0	2	0
32	891	7	10000	2	1	0	2	0
31	892	7	10000	2	1	0	2	0
30	893	7	10000	2	1	0	2	0
30	894	7	10000	2	1	0	2	0
29	895	7	10000	2	1	0	2	0
29	896	7	10000	2	1	0	2	0
27	897	7	10000	2	1	0	2	0
26	898	7	10000	2	1	0	2	0
25	899	7	10000	2	1	0	2	0
27	900	7	10000	2	1	0	2	0
27	901	7	10000	2	1	0	2	0
26	902	7	10000	2	1	0	2	0
24	903	7	10000	2	1	0	2	0
23	904	7	10000	2	1	0	2	0
23	905	7	10000	2	1	0	2	0
23	906	7	10000	2	1	0	2	0
23	907	7	10000	2	1	0	2	0
23	908	7	10000	2	1	0	2	0
24	909	7	10000	2	1	0	2	0
23	910	7	10000	2	1	0	2	0
25	911	7	10000	2	1	0	2	0
24	912	7	10000	2	1	0	2	0
24	913	7	10000	2	1	0	2	0
23	914	7	10000	2	1	0	2	0
22	915	7	10000	2	1	0	2	0
21	916	7	10000	2	1	0	2	0
20	917	7	10000	2	1	0	2	0
20	918	7	10000	2	1	0	2	0
19	919	7	10000	2	1	0	2	0
20	920	7	10000	2	1	0	2	0
20	921	7	10000	2	1	0	2	0
18	922	7	10000	2	1	0	2	0
18	923	7	10000	2	1	0	2	0
18	924	7	10000	2	1	0	2	0
18	925	7	10000	2	1	0	2	0
18	926	7	10000	2	1	0	2	0
18	927	7	10000	2	1	0	2	0
19	928	7	10000	2	1	0	2	0
19	929	7	10000	2	1	0	2	0
18	930	7	10000	2	1	0	2	0
19	931	7	10000	2	1	0	2	0
18	932	7	10000	2	1	0	2	0
20	933	7	10000	2	1	0	2	0
21	934	7	10000	2	1	0	2	0
21	935	7	10000	2	1	0	2	0
21	936	7	10000	2	1	0	2	0
20	937	7	10000	2	1	0	2	0
20	938	7	10000	2	1	0	2	0
20	939	7	10000	2	1	0	2	0
22	940	7	10000	2	1	0	2	0
24	941	7	10000	2	1	0	2	0
24	942	7	10000	2	1	0	2	0
24	943	7	10000	2	1	0	2	0
25	944	7	10000	2	1	0	2	0
24	945	7	10000	2	1	0	2	0
24	946	7	10000	2	1	0	2	0
24	947	7	10000	2	1	0	2	0
23	948	7	10000	2	1	0	2	0
24	949	7	10000	2	1	0	2	0
23	950	7	10000	2	1	0	2	0
25	951	7	10000	2	1	0	2	0
24	952	7	10000	2	1	0	2	0
23	953	7	10000	2	1	0	2	0
23	954	7	10000	2	1	0	2	0
22	955	7	10000	2	1	0	2	0
22	956	7	10000	2	1	0	2	0
20	957	7	10000	2	1	0	2	0
19	958	7	10000	2	1	0	2	0
19	959	7	10000	2	1	0	2	0
20	960	7	10000	2	1	0	2	0
20	961	7	10000	2	1	0	2	0
18	962	7	10000	2	1	0	2	0
17	963	7	10000	2	1	0	2	0
16	964	7	10000	2	1	0	2	0
16	965	7	10000	2	1	0	2	0
16	966	7	10000	2	1	0	2	0
17	967	7	10000	2	1	0	2	0
19	968	7	10000	2	1	0	2	0
19	969	7	10000	2	1	0	2	0
17	970	7	10000	2	1	0	2	0
17	971	7	10000	2	1	0	2	0
17	972	7	10000	2	1	0	2	0
17	973	7	10000	2	1	0	2	0
17	974	7	10000	2	1	0	2	0
16	975	7	10000	2	1	0	2	0
17	976	7	10000	2	1	0	2	0
16	977	7	10000	2	1	0	2	0
17	978	7	10000	2	1	0	2	0
20	979	7	10000	2	1	0	2	0
23	980	7	10000	2	1	0	2	0
24	981	7	10000	2	1	0	2	0
23	982	7	10000	2	1	0	2	0
24	983	7	10000	2	1	0	2	0
25	984	7	10000	2	1	0	2	0
25	985	7	10000	2	1	0	2	0
25	986	7	10000	2	1	0	2	0
24	987	7	10000	2	1	0	2	0
23	988	7	10000	2	1	0	2	0
24	989	7	10000	2	1	0	2	0
21	990	7	10000	2	1	0	2	0
20	991	7	10000	2	1	0	2	0
20	992	7	10000	2	1	0	2	0
20	993	7	10000	2	1	0	2	0
22	994	7	10000	2	1	0	2	0
22	995	7	10000	2	1	0	2	0
22	996	7	10000	2	1	0	2	0
22	997	7	10000	2	1	0	2	0
23	998	7	10000	2	1	0	2	0
22	999	7	10000	2	1	0	2	0
23	1000	7	10000	2	1	0	2	0
23	1001	7	10000	2	1	0	2	0
20	1	7	10000	3	1	0	3	0
22	2	7	10000	3	1	0	3	0
21	3	7	10000	3	1	0	3	0
21	4	7	10000	3	1	0	3	0
21	5	7	10000	3	1	0	3	0
22	6	7	10000	3	1	0	3	0
23	7	7	10000	3	1	0	3	0
25	8	7	10000	3	1	0	3	0
27	9	7	10000	3	1	0	3	0
27	10	7	10000	3	1	0	3	0
27	11	7	10000	3	1	0	3	0
25	12	7	10000	3	1	0	3	0
25	13	7	10000	3	1	0	3	0
25	14	7	10000	3	1	0	3	0
25	15	7	10000	3	1	0	3	0
25	16	7	10000	3	1	0	3	0
24	17	7	10000	3	1	0	3	0
24	18	7	10000	3	1	0	3	0
23	19	7	10000	3	1	0	3	0
21	20	7	10000	3	1	0	3	0
22	21	7	10000	3	1	0	3	0
23	22	7	10000	3	1	0	3	0
21	23	7	10000	3	1	0	3	0
21	24	7	10000	3	1	0	3	0
20	25	7	10000	3	1	0	3	0
21	26	7	10000	3	1	0	3	0
20	27	7	10000	3	1	0	3	0
20	28	7	10000	3	1	0	3	0
20	29	7	10000	3	1	0	3	0
20	30	7	10000	3	1	0	3	0
20	31	7	10000	3	1	0	3	0
17	32	7	10000	3	1	0	3	0
18	33	7	10000	3	1	0	3	0
18	34	7	10000	3	1	0	3	0
18	35	7	10000	3	1	0	3	0
20	36	7	10000	3	1	0	3	0
19	37	7	10000	3	1	0	3	0
20	38	7	10000	3	1	0	3	0
18	39	7	10000	3	1	0	3	0
18	40	7	10000	3	1	0	3	0
21	41	7	10000	3	1	0	3	0
24	42	7	10000	3	1	0	3	0
23	43	7	10000	3	1	0	3	0
23	44	7	10000	3	1	0	3	0
22	45	7	10000	3	1	0	3	0
22	46	7	10000	3	1	0	3	0
21	47	7	10000	3	1	0	3	0
20	48	7	10000	3	1	0	3	0
21	49	7	10000	3	1	0	3	0
21	50	7	10000	3	1	0	3	0
20	51	7	10000	3	1	0	3	0
18	52	7	10000	3	1	0	3	0
18	53	7	10000	3	1	0	3	0
18	54	7	10000	3	1	0	3	0
18	55	7	10000	3	1	0	3	0
18	56	7	10000	3	1	0	3	0
19	57	7	10000	3	1	0	3	0
19	58	7	10000	3	1	0	3	0
19	59	7	10000	3	1	0	3	0
18	60	7	10000	3	1	0	3	0
20	61	7	10000	3	1	0	3	0
21	62	7	10000	3	1	0	3	0
21	63	7	10000	3	1	0	3	0
22	64	7	10000	3	1	0	3	0
22	65	7	10000	3	1	0	3	0
22	66	7	10000	3	1	0	3	0
21	67	7	10000	3	1	0	3	0
21	68	7	10000	3	1	0	3	0
23	69	7	10000	3	1	0	3	0
25	70	7	10000	3	1	0	3	0
25	71	7	10000	3	1	0	3	0
22	72	7	10000	3	1	0	3	0
23	73	7	10000	3	1	0	3	0
23	74	7	10000	3	1	0	3	0
25	75	7	10000	3	1	0	3	0
25	76	7	10000	3	1	0	3	0
25	77	7	10000	3	1	0	3	0
27	78	7	10000	3	1	0	3	0
28	79	7	10000	3	1	0	3	0
28	80	7	10000	3	1	0	3	0
29	81	7	10000	3	1	0	3	0
30	82	7	10000	3	1	0	3	0
30	83	7	10000	3	1	0	3	0
31	84	7	10000	3	1	0	3	0
31	85	7	10000	3	1	0	3	0
31	86	7	10000	3	1	0	3	0
32	87	7	10000	3	1	0	3	0
31	88	7	10000	3	1	0	3	0
30	89	7	10000	3	1	0	3	0
30	90	7	10000	3	1	0	3	0
28	91	7	10000	3	1	0	3	0
27	92	7	10000	3	1	0	3	0
27	93	7	10000	3	1	0	3	0
27	94	7	10000	3	1	0	3	0
25	95	7	10000	3	1	0	3	0
25	96	7	10000	3	1	0	3	0
24	97	7	10000	3	1	0	3	0
24	98	7	10000	3	1	0	3	0
24	99	7	10000	3	1	0	3	0
22	100	7	10000	3	1	0	3	0
23	101	7	10000	3	1	0	3	0
24	102	7	10000	3	1	0	3	0
23	103	7	10000	3	1	0	3	0
25	104	7	10000	3	1	0	3	0
22	105	7	10000	3	1	0	3	0
22	106	7	10000	3	1	0	3	0
22	107	7	10000	3	1	0	3	0
21	108	7	10000	3	1	0	3	0
21	109	7	10000	3	1	0	3	0
20	110	7	10000	3	1	0	3	0
20	111	7	10000	3	1	0	3	0
18	112	7	10000	3	1	0	3	0
19	113	7	10000	3	1	0	3	0
20	114	7	10000	3	1	0	3	0
19	115	7	10000	3	1	0	3	0
19	116	7	10000	3	1	0	3	0
19	117	7	10000	3	1	0	3	0
19	118	7	10000	3	1	0	3	0
18	119	7	10000	3	1	0	3	0
17	120	7	10000	3	1	0	3	0
16	121	7	10000	3	1	0	3	0
19	122	7	10000	3	1	0	3	0
19	123	7	10000	3	1	0	3	0
18	124	7	10000	3	1	0	3	0
17	125	7	10000	3	1	0	3	0
17	126	7	10000	3	1	0	3	0
17	127	7	10000	3	1	0	3	0
17	128	7	10000	3	1	0	3	0
18	129	7	10000	3	1	0	3	0
20	130	7	10000	3	1	0	3	0
20	131	7	10000	3	1	0	3	0
18	132	7	10000	3	1	0	3	0
18	133	7	10000	3	1	0	3	0
18	134	7	10000	3	1	0	3	0
18	135	7	10000	3	1	0	3	0
19	136	7	10000	3	1	0	3	0
22	137	7	10000	3	1	0	3	0
24	138	7	10000	3	1	0	3	0
24	139	7	10000	3	1	0	3	0
23	140	7	10000	3	1	0	3	0
23	141	7	10000	3	1	0	3	0
27	142	7	10000	3	1	0	3	0
27	143	7	10000	3	1	0	3	0
28	144	7	10000	3	1	0	3	0
27	145	7	10000	3	1	0	3	0
26	146	7	10000	3	1	0	3	0
26	147	7	10000	3	1	0	3	0
25	148	7	10000	3	1	0	3	0
25	149	7	10000	3	1	0	3	0
25	150	7	10000	3	1	0	3	0
23	151	7	10000	3	1	0	3	0
20	152	7	10000	3	1	0	3	0
20	153	7	10000	3	1	0	3	0
20	154	7	10000	3	1	0	3	0
20	155	7	10000	3	1	0	3	0
20	156	7	10000	3	1	0	3	0
20	157	7	10000	3	1	0	3	0
22	158	7	10000	3	1	0	3	0
23	159	7	10000	3	1	0	3	0
24	160	7	10000	3	1	0	3	0
24	161	7	10000	3	1	0	3	0
27	162	7	10000	3	1	0	3	0
25	163	7	10000	3	1	0	3	0
24	164	7	10000	3	1	0	3	0
23	165	7	10000	3	1	0	3	0
22	166	7	10000	3	1	0	3	0
21	167	7	10000	3	1	0	3	0
21	168	7	10000	3	1	0	3	0
21	169	7	10000	3	1	0	3	0
22	170	7	10000	3	1	0	3	0
24	171	7	10000	3	1	0	3	0
24	172	7	10000	3	1	0	3	0
23	173	7	10000	3	1	0	3	0
23	174	7	10000	3	1	0	3	0
23	175	7	10000	3	1	0	3	0
21	176	7	10000	3	1	0	3	0
21	177	7	10000	3	1	0	3	0
21	178	7	10000	3	1	0	3	0
20	179	7	10000	3	1	0	3	0
20	180	7	10000	3	1	0	3	0
19	181	7	10000	3	1	0	3	0
22	182	7	10000	3	1	0	3	0
21	183	7	10000	3	1	0	3	0
21	184	7	10000	3	1	0	3	0
20	185	7	10000	3	1	0	3	0
20	186	7	10000	3	1	0	3	0
20	187	7	10000	3	1	0	3	0
19	188	7	10000	3	1	0	3	0
19	189	7	10000	3	1	0	3	0
19	190	7	10000	3	1	0	3	0
19	191	7	10000	3	1	0	3	0
16	192	7	10000	3	1	0	3	0
16	193	7	10000	3	1	0	3	0
16	194	7	10000	3	1	0	3	0
16	195	7	10000	3	1	0	3	0
15	196	7	10000	3	1	0	3	0
17	197	7	10000	3	1	0	3	0
20	198	7	10000	3	1	0	3	0
20	199	7	10000	3	1	0	3	0
20	200	7	10000	3	1	0	3	0
20	201	7	10000	3	1	0	3	0
21	202	7	10000	3	1	0	3	0
21	203	7	10000	3	1	0	3	0
21	204	7	10000	3	1	0	3	0
20	205	7	10000	3	1	0	3	0
20	206	7	10000	3	1	0	3	0
19	207	7	10000	3	1	0	3	0
19	208	7	10000	3	1	0	3	0
21	209	7	10000	3	1	0	3	0
23	210	7	10000	3	1	0	3	0
23	211	7	10000	3	1	0	3	0
22	212	7	10000	3	1	0	3	0
22	213	7	10000	3	1	0	3	0
22	214	7	10000	3	1	0	3	0
21	215	7	10000	3	1	0	3	0
20	216	7	10000	3	1	0	3	0
19	217	7	10000	3	1	0	3	0
19	218	7	10000	3	1	0	3	0
18	219	7	10000	3	1	0	3	0
17	220	7	10000	3	1	0	3	0
18	221	7	10000	3	1	0	3	0
19	222	7	10000	3	1	0	3	0
18	223	7	10000	3	1	0	3	0
18	224	7	10000	3	1	0	3	0
17	225	7	10000	3	1	0	3	0
16	226	7	10000	3	1	0	3	0
16	227	7	10000	3	1	0	3	0
15	228	7	10000	3	1	0	3	0
15	229	7	10000	3	1	0	3	0
16	230	7	10000	3	1	0	3	0
15	231	7	10000	3	1	0	3	0
13	232	7	10000	3	1	0	3	0
16	233	7	10000	3	1	0	3	0
19	234	7	10000	3	1	0	3	0
22	235	7	10000	3	1	0	3	0
22	236	7	10000	3	1	0	3	0
21	237	7	10000	3	1	0	3	0
21	238	7	10000	3	1	0	3	0
21	239	7	10000	3	1	0	3	0
23	240	7	10000	3	1	0	3	0
22	241	7	10000	3	1	0	3	0
23	242	7	10000	3	1	0	3	0
22	243	7	10000	3	1	0	3	0
22	244	7	10000	3	1	0	3	0
21	245	7	10000	3	1	0	3	0
20	246	7	10000	3	1	0	3	0
20	247	7	10000	3	1	0	3	0
19	248	7	10000	3	1	0	3	0
20	249	7	10000	3	1	0	3	0
20	250	7	10000	3	1	0	3	0
20	251	7	10000	3	1	0	3	0
19	252	7	10000	3	1	0	3	0
20	253	7	10000	3	1	0	3	0
20	254	7	10000	3	1	0	3	0
21	255	7	10000	3	1	0	3	0
20	256	7	10000	3	1	0	3	0
21	257	7	10000	3	1	0	3	0
22	258	7	10000	3	1	0	3	0
22	259	7	10000	3	1	0	3	0
21	260	7	10000	3	1	0	3	0
20	261	7	10000	3	1	0	3	0
23	262	7	10000	3	1	0	3	0
24	263	7	10000	3	1	0	3	0
25	264	7	10000	3	1	0	3	0
25	265	7	10000	3	1	0	3	0
25	266	7	10000	3	1	0	3	0
25	267	7	10000	3	1	0	3	0
24	268	7	10000	3	1	0	3	0
25	269	7	10000	3	1	0	3	0
27	270	7	10000	3	1	0	3	0
27	271	7	10000	3	1	0	3	0
25	272	7	10000	3	1	0	3	0
26	273	7	10000	3	1	0	3	0
28	274	7	10000	3	1	0	3	0
29	275	7	10000	3	1	0	3	0
29	276	7	10000	3	1	0	3	0
29	277	7	10000	3	1	0	3	0
28	278	7	10000	3	1	0	3	0
26	279	7	10000	3	1	0	3	0
26	280	7	10000	3	1	0	3	0
27	281	7	10000	3	1	0	3	0
29	282	7	10000	3	1	0	3	0
28	283	7	10000	3	1	0	3	0
29	284	7	10000	3	1	0	3	0
29	285	7	10000	3	1	0	3	0
29	286	7	10000	3	1	0	3	0
29	287	7	10000	3	1	0	3	0
28	288	7	10000	3	1	0	3	0
29	289	7	10000	3	1	0	3	0
30	290	7	10000	3	1	0	3	0
31	291	7	10000	3	1	0	3	0
28	292	7	10000	3	1	0	3	0
28	293	7	10000	3	1	0	3	0
27	294	7	10000	3	1	0	3	0
27	295	7	10000	3	1	0	3	0
25	296	7	10000	3	1	0	3	0
24	297	7	10000	3	1	0	3	0
25	298	7	10000	3	1	0	3	0
22	299	7	10000	3	1	0	3	0
22	300	7	10000	3	1	0	3	0
21	301	7	10000	3	1	0	3	0
24	302	7	10000	3	1	0	3	0
27	303	7	10000	3	1	0	3	0
25	304	7	10000	3	1	0	3	0
25	305	7	10000	3	1	0	3	0
26	306	7	10000	3	1	0	3	0
27	307	7	10000	3	1	0	3	0
27	308	7	10000	3	1	0	3	0
26	309	7	10000	3	1	0	3	0
26	310	7	10000	3	1	0	3	0
24	311	7	10000	3	1	0	3	0
21	312	7	10000	3	1	0	3	0
21	313	7	10000	3	1	0	3	0
21	314	7	10000	3	1	0	3	0
22	315	7	10000	3	1	0	3	0
21	316	7	10000	3	1	0	3	0
21	317	7	10000	3	1	0	3	0
22	318	7	10000	3	1	0	3	0
20	319	7	10000	3	1	0	3	0
20	320	7	10000	3	1	0	3	0
19	321	7	10000	3	1	0	3	0
20	322	7	10000	3	1	0	3	0
20	323	7	10000	3	1	0	3	0
19	324	7	10000	3	1	0	3	0
18	325	7	10000	3	1	0	3	0
19	326	7	10000	3	1	0	3	0
19	327	7	10000	3	1	0	3	0
18	328	7	10000	3	1	0	3	0
20	329	7	10000	3	1	0	3	0
21	330	7	10000	3	1	0	3	0
20	331	7	10000	3	1	0	3	0
17	332	7	10000	3	1	0	3	0
18	333	7	10000	3	1	0	3	0
19	334	7	10000	3	1	0	3	0
21	335	7	10000	3	1	0	3	0
25	336	7	10000	3	1	0	3	0
27	337	7	10000	3	1	0	3	0
26	338	7	10000	3	1	0	3	0
26	339	7	10000	3	1	0	3	0
27	340	7	10000	3	1	0	3	0
28	341	7	10000	3	1	0	3	0
30	342	7	10000	3	1	0	3	0
30	343	7	10000	3	1	0	3	0
28	344	7	10000	3	1	0	3	0
27	345	7	10000	3	1	0	3	0
26	346	7	10000	3	1	0	3	0
26	347	7	10000	3	1	0	3	0
25	348	7	10000	3	1	0	3	0
26	349	7	10000	3	1	0	3	0
26	350	7	10000	3	1	0	3	0
25	351	7	10000	3	1	0	3	0
23	352	7	10000	3	1	0	3	0
24	353	7	10000	3	1	0	3	0
24	354	7	10000	3	1	0	3	0
25	355	7	10000	3	1	0	3	0
25	356	7	10000	3	1	0	3	0
24	357	7	10000	3	1	0	3	0
23	358	7	10000	3	1	0	3	0
22	359	7	10000	3	1	0	3	0
24	360	7	10000	3	1	0	3	0
27	361	7	10000	3	1	0	3	0
30	362	7	10000	3	1	0	3	0
29	363	7	10000	3	1	0	3	0
28	364	7	10000	3	1	0	3	0
26	365	7	10000	3	1	0	3	0
27	366	7	10000	3	1	0	3	0
25	367	7	10000	3	1	0	3	0
25	368	7	10000	3	1	0	3	0
27	369	7	10000	3	1	0	3	0
29	370	7	10000	3	1	0	3	0
29	371	7	10000	3	1	0	3	0
25	372	7	10000	3	1	0	3	0
24	373	7	10000	3	1	0	3	0
25	374	7	10000	3	1	0	3	0
26	375	7	10000	3	1	0	3	0
25	376	7	10000	3	1	0	3	0
25	377	7	10000	3	1	0	3	0
25	378	7	10000	3	1	0	3	0
26	379	7	10000	3	1	0	3	0
26	380	7	10000	3	1	0	3	0
26	381	7	10000	3	1	0	3	0
28	382	7	10000	3	1	0	3	0
28	383	7	10000	3	1	0	3	0
30	384	7	10000	3	1	0	3	0
28	385	7	10000	3	1	0	3	0
29	386	7	10000	3	1	0	3	0
30	387	7	10000	3	1	0	3	0
30	388	7	10000	3	1	0	3	0
30	389	7	10000	3	1	0	3	0
29	390	7	10000	3	1	0	3	0
29	391	7	10000	3	1	0	3	0
26	392	7	10000	3	1	0	3	0
27	393	7	10000	3	1	0	3	0
29	394	7	10000	3	1	0	3	0
30	395	7	10000	3	1	0	3	0
30	396	7	10000	3	1	0	3	0
29	397	7	10000	3	1	0	3	0
31	398	7	10000	3	1	0	3	0
32	399	7	10000	3	1	0	3	0
30	400	7	10000	3	1	0	3	0
29	401	7	10000	3	1	0	3	0
30	402	7	10000	3	1	0	3	0
30	403	7	10000	3	1	0	3	0
30	404	7	10000	3	1	0	3	0
29	405	7	10000	3	1	0	3	0
28	406	7	10000	3	1	0	3	0
28	407	7	10000	3	1	0	3	0
28	408	7	10000	3	1	0	3	0
28	409	7	10000	3	1	0	3	0
28	410	7	10000	3	1	0	3	0
27	411	7	10000	3	1	0	3	0
25	412	7	10000	3	1	0	3	0
25	413	7	10000	3	1	0	3	0
26	414	7	10000	3	1	0	3	0
29	415	7	10000	3	1	0	3	0
29	416	7	10000	3	1	0	3	0
28	417	7	10000	3	1	0	3	0
28	418	7	10000	3	1	0	3	0
29	419	7	10000	3	1	0	3	0
27	420	7	10000	3	1	0	3	0
26	421	7	10000	3	1	0	3	0
28	422	7	10000	3	1	0	3	0
30	423	7	10000	3	1	0	3	0
30	424	7	10000	3	1	0	3	0
31	425	7	10000	3	1	0	3	0
29	426	7	10000	3	1	0	3	0
29	427	7	10000	3	1	0	3	0
29	428	7	10000	3	1	0	3	0
32	429	7	10000	3	1	0	3	0
31	430	7	10000	3	1	0	3	0
30	431	7	10000	3	1	0	3	0
28	432	7	10000	3	1	0	3	0
27	433	7	10000	3	1	0	3	0
27	434	7	10000	3	1	0	3	0
27	435	7	10000	3	1	0	3	0
27	436	7	10000	3	1	0	3	0
26	437	7	10000	3	1	0	3	0
26	438	7	10000	3	1	0	3	0
27	439	7	10000	3	1	0	3	0
26	440	7	10000	3	1	0	3	0
25	441	7	10000	3	1	0	3	0
27	442	7	10000	3	1	0	3	0
26	443	7	10000	3	1	0	3	0
25	444	7	10000	3	1	0	3	0
24	445	7	10000	3	1	0	3	0
24	446	7	10000	3	1	0	3	0
24	447	7	10000	3	1	0	3	0
23	448	7	10000	3	1	0	3	0
23	449	7	10000	3	1	0	3	0
23	450	7	10000	3	1	0	3	0
22	451	7	10000	3	1	0	3	0
19	452	7	10000	3	1	0	3	0
19	453	7	10000	3	1	0	3	0
19	454	7	10000	3	1	0	3	0
19	455	7	10000	3	1	0	3	0
17	456	7	10000	3	1	0	3	0
17	457	7	10000	3	1	0	3	0
17	458	7	10000	3	1	0	3	0
16	459	7	10000	3	1	0	3	0
17	460	7	10000	3	1	0	3	0
17	461	7	10000	3	1	0	3	0
19	462	7	10000	3	1	0	3	0
18	463	7	10000	3	1	0	3	0
17	464	7	10000	3	1	0	3	0
17	465	7	10000	3	1	0	3	0
17	466	7	10000	3	1	0	3	0
17	467	7	10000	3	1	0	3	0
16	468	7	10000	3	1	0	3	0
16	469	7	10000	3	1	0	3	0
16	470	7	10000	3	1	0	3	0
17	471	7	10000	3	1	0	3	0
14	472	7	10000	3	1	0	3	0
14	473	7	10000	3	1	0	3	0
15	474	7	10000	3	1	0	3	0
16	475	7	10000	3	1	0	3	0
16	476	7	10000	3	1	0	3	0
16	477	7	10000	3	1	0	3	0
16	478	7	10000	3	1	0	3	0
15	479	7	10000	3	1	0	3	0
15	480	7	10000	3	1	0	3	0
14	481	7	10000	3	1	0	3	0
17	482	7	10000	3	1	0	3	0
17	483	7	10000	3	1	0	3	0
18	484	7	10000	3	1	0	3	0
18	485	7	10000	3	1	0	3	0
18	486	7	10000	3	1	0	3	0
19	487	7	10000	3	1	0	3	0
19	488	7	10000	3	1	0	3	0
20	489	7	10000	3	1	0	3	0
21	490	7	10000	3	1	0	3	0
20	491	7	10000	3	1	0	3	0
19	492	7	10000	3	1	0	3	0
18	493	7	10000	3	1	0	3	0
19	494	7	10000	3	1	0	3	0
19	495	7	10000	3	1	0	3	0
18	496	7	10000	3	1	0	3	0
20	497	7	10000	3	1	0	3	0
18	498	7	10000	3	1	0	3	0
18	499	7	10000	3	1	0	3	0
17	500	7	10000	3	1	0	3	0
17	501	7	10000	3	1	0	3	1
19	502	7	10000	3	1	0	3	1
17	503	7	10000	3	1	0	3	1
17	504	7	10000	3	1	0	3	1
18	505	7	10000	3	1	0	3	1
18	506	7	10000	3	1	0	3	1
18	507	7	10000	3	1	0	3	1
17	508	7	10000	3	1	0	3	1
18	509	7	10000	3	1	0	3	1
20	510	7	10000	3	1	0	3	1
20	511	7	10000	3	1	0	3	1
18	512	7	10000	3	1	0	3	1
18	513	7	10000	3	1	0	3	1
19	514	7	10000	3	1	0	3	1
20	515	7	10000	3	1	0	3	1
20	516	7	10000	3	1	0	3	1
19	517	7	10000	3	1	0	3	1
19	518	7	10000	3	1	0	3	1
17	519	7	10000	3	1	0	3	1
17	520	7	10000	3	1	0	3	1
16	521	7	10000	3	1	0	3	1
18	522	7	10000	3	1	0	3	1
18	523	7	10000	3	1	0	3	1
18	524	7	10000	3	1	0	3	1
18	525	7	10000	3	1	0	3	1
18	526	7	10000	3	1	0	3	1
19	527	7	10000	3	1	0	3	1
18	528	7	10000	3	1	0	3	1
18	529	7	10000	3	1	0	3	1
18	530	7	10000	3	1	0	3	1
17	531	7	10000	3	1	0	3	1
16	532	7	10000	3	1	0	3	1
16	533	7	10000	3	1	0	3	1
16	534	7	10000	3	1	0	3	1
16	535	7	10000	3	1	0	3	1
16	536	7	10000	3	1	0	3	1
15	537	7	10000	3	1	0	3	1
15	538	7	10000	3	1	0	3	1
14	539	7	10000	3	1	0	3	1
15	540	7	10000	3	1	0	3	1
16	541	7	10000	3	1	0	3	1
18	542	7	10000	3	1	0	3	1
18	543	7	10000	3	1	0	3	1
19	544	7	10000	3	1	0	3	1
20	545	7	10000	3	1	0	3	1
20	546	7	10000	3	1	0	3	1
20	547	7	10000	3	1	0	3	1
20	548	7	10000	3	1	0	3	1
21	549	7	10000	3	1	0	3	1
22	550	7	10000	3	1	0	3	1
21	551	7	10000	3	1	0	3	0
19	552	7	10000	3	1	0	3	0
20	553	7	10000	3	1	0	3	0
20	554	7	10000	3	1	0	3	0
21	555	7	10000	3	1	0	3	0
20	556	7	10000	3	1	0	3	0
21	557	7	10000	3	1	0	3	0
21	558	7	10000	3	1	0	3	0
20	559	7	10000	3	1	0	3	0
20	560	7	10000	3	1	0	3	0
19	561	7	10000	3	1	0	3	0
22	562	7	10000	3	1	0	3	0
21	563	7	10000	3	1	0	3	0
21	564	7	10000	3	1	0	3	0
20	565	7	10000	3	1	0	3	0
19	566	7	10000	3	1	0	3	0
19	567	7	10000	3	1	0	3	0
18	568	7	10000	3	1	0	3	0
19	569	7	10000	3	1	0	3	0
21	570	7	10000	3	1	0	3	0
21	571	7	10000	3	1	0	3	0
18	572	7	10000	3	1	0	3	0
19	573	7	10000	3	1	0	3	0
20	574	7	10000	3	1	0	3	0
20	575	7	10000	3	1	0	3	0
19	576	7	10000	3	1	0	3	0
19	577	7	10000	3	1	0	3	0
19	578	7	10000	3	1	0	3	0
18	579	7	10000	3	1	0	3	0
18	580	7	10000	3	1	0	3	0
16	581	7	10000	3	1	0	3	0
18	582	7	10000	3	1	0	3	0
17	583	7	10000	3	1	0	3	0
19	584	7	10000	3	1	0	3	0
21	585	7	10000	3	1	0	3	0
23	586	7	10000	3	1	0	3	0
32	587	7	10000	3	1	0	3	0
58	588	7	10000	3	1	0	3	0
105	589	7	10000	3	1	0	3	0
128	590	7	10000	3	1	0	3	0
136	591	7	10000	3	1	0	3	0
149	592	7	10000	3	1	0	3	0
163	593	7	10000	3	1	0	3	0
212	594	7	10000	3	1	0	3	0
224	595	7	10000	3	1	0	3	0
256	596	7	10000	3	1	0	3	0
298	597	7	10000	3	1	0	3	0
326	598	7	10000	3	1	0	3	0
315	599	7	10000	3	1	0	3	0
317	600	7	10000	3	1	0	3	0
331	601	7	10000	3	1	0	3	0
338	602	7	10000	3	1	0	3	0
337	603	7	10000	3	1	0	3	0
346	604	7	10000	3	1	0	3	0
345	605	7	10000	3	1	0	3	0
354	606	7	10000	3	1	0	3	0
363	607	7	10000	3	1	0	3	0
366	608	7	10000	3	1	0	3	0
353	609	7	10000	3	1	0	3	0
351	610	7	10000	3	1	0	3	0
415	611	7	10000	3	1	0	3	0
477	612	7	10000	3	1	0	3	0
494	613	7	10000	3	1	0	3	0
477	614	7	10000	3	1	0	3	0
465	615	7	10000	3	1	0	3	0
447	616	7	10000	3	1	0	3	0
428	617	7	10000	3	1	0	3	0
412	618	7	10000	3	1	0	3	0
398	619	7	10000	3	1	0	3	0
384	620	7	10000	3	1	0	3	0
373	621	7	10000	3	1	0	3	0
369	622	7	10000	3	1	0	3	0
371	623	7	10000	3	1	0	3	0
376	624	7	10000	3	1	0	3	0
383	625	7	10000	3	1	0	3	0
398	626	7	10000	3	1	0	3	0
413	627	7	10000	3	1	0	3	0
409	628	7	10000	3	1	0	3	0
395	629	7	10000	3	1	0	3	0
385	630	7	10000	3	1	0	3	0
380	631	7	10000	3	1	0	3	0
373	632	7	10000	3	1	0	3	0
370	633	7	10000	3	1	0	3	0
369	634	7	10000	3	1	0	3	0
371	635	7	10000	3	1	0	3	0
369	636	7	10000	3	1	0	3	0
362	637	7	10000	3	1	0	3	0
352	638	7	10000	3	1	0	3	0
338	639	7	10000	3	1	0	3	0
323	640	7	10000	3	1	0	3	0
314	641	7	10000	3	1	0	3	0
310	642	7	10000	3	1	0	3	0
306	643	7	10000	3	1	0	3	0
302	644	7	10000	3	1	0	3	0
299	645	7	10000	3	1	0	3	0
291	646	7	10000	3	1	0	3	0
283	647	7	10000	3	1	0	3	0
276	648	7	10000	3	1	0	3	0
271	649	7	10000	3	1	0	3	0
265	650	7	10000	3	1	0	3	0
260	651	7	10000	3	1	0	3	0
251	652	7	10000	3	1	0	3	0
245	653	7	10000	3	1	0	3	0
240	654	7	10000	3	1	0	3	0
237	655	7	10000	3	1	0	3	0
235	656	7	10000	3	1	0	3	0
234	657	7	10000	3	1	0	3	0
236	658	7	10000	3	1	0	3	0
234	659	7	10000	3	1	0	3	0
232	660	7	10000	3	1	0	3	0
230	661	7	10000	3	1	0	3	0
229	662	7	10000	3	1	0	3	0
228	663	7	10000	3	1	0	3	0
228	664	7	10000	3	1	0	3	0
225	665	7	10000	3	1	0	3	0
220	666	7	10000	3	1	0	3	0
214	667	7	10000	3	1	0	3	0
210	668	7	10000	3	1	0	3	0
205	669	7	10000	3	1	0	3	0
201	670	7	10000	3	1	0	3	0
198	671	7	10000	3	1	0	3	0
192	672	7	10000	3	1	0	3	0
189	673	7	10000	3	1	0	3	0
186	674	7	10000	3	1	0	3	0
183	675	7	10000	3	1	0	3	0
180	676	7	10000	3	1	0	3	0
176	677	7	10000	3	1	0	3	0
173	678	7	10000	3	1	0	3	0
169	679	7	10000	3	1	0	3	0
165	680	7	10000	3	1	0	3	0
162	681	7	10000	3	1	0	3	0
160	682	7	10000	3	1	0	3	0
154	683	7	10000	3	1	0	3	0
149	684	7	10000	3	1	0	3	0
143	685	7	10000	3	1	0	3	0
138	686	7	10000	3	1	0	3	0
133	687	7	10000	3	1	0	3	0
129	688	7	10000	3	1	0	3	0
126	689	7	10000	3	1	0	3	0
122	690	7	10000	3	1	0	3	0
119	691	7	10000	3	1	0	3	0
111	692	7	10000	3	1	0	3	0
107	693	7	10000	3	1	0	3	0
103	694	7	10000	3	1	0	3	0
98	695	7	10000	3	1	0	3	0
95	696	7	10000	3	1	0	3	0
91	697	7	10000	3	1	0	3	0
89	698	7	10000	3	1	0	3	0
84	699	7	10000	3	1	0	3	0
80	700	7	10000	3	1	0	3	0
78	701	7	10000	3	1	0	3	0
76	702	7	10000	3	1	0	3	0
73	703	7	10000	3	1	0	3	0
70	704	7	10000	3	1	0	3	0
66	705	7	10000	3	1	0	3	0
64	706	7	10000	3	1	0	3	0
61	707	7	10000	3	1	0	3	0
61	708	7	10000	3	1	0	3	0
62	709	7	10000	3	1	0	3	0
61	710	7	10000	3	1	0	3	0
62	711	7	10000	3	1	0	3	0
58	712	7	10000	3	1	0	3	0
58	713	7	10000	3	1	0	3	0
58	714	7	10000	3	1	0	3	0
58	715	7	10000	3	1	0	3	0
59	716	7	10000	3	1	0	3	0
59	717	7	10000	3	1	0	3	0
60	718	7	10000	3	1	0	3	0
62	719	7	10000	3	1	0	3	0
62	720	7	10000	3	1	0	3	0
60	721	7	10000	3	1	0	3	0
60	722	7	10000	3	1	0	3	0
57	723	7	10000	3	1	0	3	0
55	724	7	10000	3	1	0	3	0
53	725	7	10000	3	1	0	3	0
50	726	7	10000	3	1	0	3	0
48	727	7	10000	3	1	0	3	0
46	728	7	10000	3	1	0	3	0
48	729	7	10000	3	1	0	3	0
48	730	7	10000	3	1	0	3	0
48	731	7	10000	3	1	0	3	0
45	732	7	10000	3	1	0	3	0
45	733	7	10000	3	1	0	3	0
47	734	7	10000	3	1	0	3	0
47	735	7	10000	3	1	0	3	0
47	736	7	10000	3	1	0	3	0
46	737	7	10000	3	1	0	3	0
44	738	7	10000	3	1	0	3	0
44	739	7	10000	3	1	0	3	0
42	740	7	10000	3	1	0	3	0
40	741	7	10000	3	1	0	3	0
42	742	7	10000	3	1	0	3	0
41	743	7	10000	3	1	0	3	0
42	744	7	10000	3	1	0	3	0
41	745	7	10000	3	1	0	3	0
40	746	7	10000	3	1	0	3	0
38	747	7	10000	3	1	0	3	0
36	748	7	10000	3	1	0	3	0
35	749	7	10000	3	1	0	3	0
35	750	7	10000	3	1	0	3	0
37	751	7	10000	3	1	0	3	0
36	752	7	10000	3	1	0	3	0
37	753	7	10000	3	1	0	3	0
39	754	7	10000	3	1	0	3	0
38	755	7	10000	3	1	0	3	0
38	756	7	10000	3	1	0	3	0
38	757	7	10000	3	1	0	3	0
39	758	7	10000	3	1	0	3	0
38	759	7	10000	3	1	0	3	0
35	760	7	10000	3	1	0	3	0
34	761	7	10000	3	1	0	3	0
36	762	7	10000	3	1	0	3	0
36	763	7	10000	3	1	0	3	0
36	764	7	10000	3	1	0	3	0
35	765	7	10000	3	1	0	3	0
36	766	7	10000	3	1	0	3	0
35	767	7	10000	3	1	0	3	0
35	768	7	10000	3	1	0	3	0
35	769	7	10000	3	1	0	3	0
35	770	7	10000	3	1	0	3	0
34	771	7	10000	3	1	0	3	0
32	772	7	10000	3	1	0	3	0
32	773	7	10000	3	1	0	3	0
35	774	7	10000	3	1	0	3	0
36	775	7	10000	3	1	0	3	0
36	776	7	10000	3	1	0	3	0
36	777	7	10000	3	1	0	3	0
34	778	7	10000	3	1	0	3	0
33	779	7	10000	3	1	0	3	0
32	780	7	10000	3	1	0	3	0
30	781	7	10000	3	1	0	3	0
32	782	7	10000	3	1	0	3	0
31	783	7	10000	3	1	0	3	0
30	784	7	10000	3	1	0	3	0
31	785	7	10000	3	1	0	3	0
32	786	7	10000	3	1	0	3	0
33	787	7	10000	3	1	0	3	0
32	788	7	10000	3	1	0	3	0
31	789	7	10000	3	1	0	3	0
32	790	7	10000	3	1	0	3	0
32	791	7	10000	3	1	0	3	0
29	792	7	10000	3	1	0	3	0
28	793	7	10000	3	1	0	3	0
31	794	7	10000	3	1	0	3	0
32	795	7	10000	3	1	0	3	0
32	796	7	10000	3	1	0	3	0
32	797	7	10000	3	1	0	3	0
31	798	7	10000	3	1	0	3	0
30	799	7	10000	3	1	0	3	0
29	800	7	10000	3	1	0	3	0
29	801	7	10000	3	1	0	3	0
30	802	7	10000	3	1	0	3	0
30	803	7	10000	3	1	0	3	0
29	804	7	10000	3	1	0	3	0
28	805	7	10000	3	1	0	3	0
27	806	7	10000	3	1	0	3	0
28	807	7	10000	3	1	0	3	0
26	808	7	10000	3	1	0	3	0
26	809	7	10000	3	1	0	3	0
28	810	7	10000	3	1	0	3	0
27	811	7	10000	3	1	0	3	0
25	812	7	10000	3	1	0	3	0
24	813	7	10000	3	1	0	3	0
24	814	7	10000	3	1	0	3	0
25	815	7	10000	3	1	0	3	0
25	816	7	10000	3	1	0	3	0
25	817	7	10000	3	1	0	3	0
24	818	7	10000	3	1	0	3	0
23	819	7	10000	3	1	0	3	0
21	820	7	10000	3	1	0	3	0
21	821	7	10000	3	1	0	3	0
24	822	7	10000	3	1	0	3	0
24	823	7	10000	3	1	0	3	0
24	824	7	10000	3	1	0	3	0
24	825	7	10000	3	1	0	3	0
24	826	7	10000	3	1	0	3	0
25	827	7	10000	3	1	0	3	0
25	828	7	10000	3	1	0	3	0
25	829	7	10000	3	1	0	3	0
25	830	7	10000	3	1	0	3	0
26	831	7	10000	3	1	0	3	0
24	832	7	10000	3	1	0	3	0
24	833	7	10000	3	1	0	3	0
24	834	7	10000	3	1	0	3	0
24	835	7	10000	3	1	0	3	0
25	836	7	10000	3	1	0	3	0
26	837	7	10000	3	1	0	3	0
26	838	7	10000	3	1	0	3	0
24	839	7	10000	3	1	0	3	0
24	840	7	10000	3	1	0	3	0
26	841	7	10000	3	1	0	3	0
31	842	7	10000	3	1	0	3	0
31	843	7	10000	3	1	0	3	0
31	844	7	10000	3	1	0	3	0
30	845	7	10000	3	1	0	3	0
29	846	7	10000	3	1	0	3	0
29	847	7	10000	3	1	0	3	0
27	848	7	10000	3	1	0	3	0
27	849	7	10000	3	1	0	3	0
27	850	7	10000	3	1	0	3	0
27	851	7	10000	3	1	0	3	0
25	852	7	10000	3	1	0	3	0
25	853	7	10000	3	1	0	3	0
25	854	7	10000	3	1	0	3	0
24	855	7	10000	3	1	0	3	0
23	856	7	10000	3	1	0	3	0
23	857	7	10000	3	1	0	3	0
24	858	7	10000	3	1	0	3	0
24	859	7	10000	3	1	0	3	0
24	860	7	10000	3	1	0	3	0
23	861	7	10000	3	1	0	3	0
24	862	7	10000	3	1	0	3	0
24	863	7	10000	3	1	0	3	0
24	864	7	10000	3	1	0	3	0
23	865	7	10000	3	1	0	3	0
22	866	7	10000	3	1	0	3	0
21	867	7	10000	3	1	0	3	0
21	868	7	10000	3	1	0	3	0
21	869	7	10000	3	1	0	3	0
22	870	7	10000	3	1	0	3	0
22	871	7	10000	3	1	0	3	0
19	872	7	10000	3	1	0	3	0
18	873	7	10000	3	1	0	3	0
18	874	7	10000	3	1	0	3	0
19	875	7	10000	3	1	0	3	0
18	876	7	10000	3	1	0	3	0
18	877	7	10000	3	1	0	3	0
18	878	7	10000	3	1	0	3	0
16	879	7	10000	3	1	0	3	0
17	880	7	10000	3	1	0	3	0
15	881	7	10000	3	1	0	3	0
17	882	7	10000	3	1	0	3	0
17	883	7	10000	3	1	0	3	0
17	884	7	10000	3	1	0	3	0
17	885	7	10000	3	1	0	3	0
15	886	7	10000	3	1	0	3	0
16	887	7	10000	3	1	0	3	0
17	888	7	10000	3	1	0	3	0
17	889	7	10000	3	1	0	3	0
19	890	7	10000	3	1	0	3	0
20	891	7	10000	3	1	0	3	0
20	892	7	10000	3	1	0	3	0
20	893	7	10000	3	1	0	3	0
21	894	7	10000	3	1	0	3	0
24	895	7	10000	3	1	0	3	0
26	896	7	10000	3	1	0	3	0
26	897	7	10000	3	1	0	3	0
26	898	7	10000	3	1	0	3	0
25	899	7	10000	3	1	0	3	0
26	900	7	10000	3	1	0	3	0
27	901	7	10000	3	1	0	3	0
30	902	7	10000	3	1	0	3	0
29	903	7	10000	3	1	0	3	0
27	904	7	10000	3	1	0	3	0
27	905	7	10000	3	1	0	3	0
28	906	7	10000	3	1	0	3	0
29	907	7	10000	3	1	0	3	0
28	908	7	10000	3	1	0	3	0
28	909	7	10000	3	1	0	3	0
29	910	7	10000	3	1	0	3	0
30	911	7	10000	3	1	0	3	0
27	912	7	10000	3	1	0	3	0
27	913	7	10000	3	1	0	3	0
26	914	7	10000	3	1	0	3	0
25	915	7	10000	3	1	0	3	0
25	916	7	10000	3	1	0	3	0
25	917	7	10000	3	1	0	3	0
26	918	7	10000	3	1	0	3	0
24	919	7	10000	3	1	0	3	0
23	920	7	10000	3	1	0	3	0
21	921	7	10000	3	1	0	3	0
22	922	7	10000	3	1	0	3	0
23	923	7	10000	3	1	0	3	0
23	924	7	10000	3	1	0	3	0
22	925	7	10000	3	1	0	3	0
23	926	7	10000	3	1	0	3	0
23	927	7	10000	3	1	0	3	0
23	928	7	10000	3	1	0	3	0
24	929	7	10000	3	1	0	3	0
25	930	7	10000	3	1	0	3	0
24	931	7	10000	3	1	0	3	0
21	932	7	10000	3	1	0	3	0
21	933	7	10000	3	1	0	3	0
21	934	7	10000	3	1	0	3	0
21	935	7	10000	3	1	0	3	0
22	936	7	10000	3	1	0	3	0
22	937	7	10000	3	1	0	3	0
23	938	7	10000	3	1	0	3	0
21	939	7	10000	3	1	0	3	0
21	940	7	10000	3	1	0	3	0
22	941	7	10000	3	1	0	3	0
26	942	7	10000	3	1	0	3	0
29	943	7	10000	3	1	0	3	0
29	944	7	10000	3	1	0	3	0
28	945	7	10000	3	1	0	3	0
31	946	7	10000	3	1	0	3	0
33	947	7	10000	3	1	0	3	0
33	948	7	10000	3	1	0	3	0
32	949	7	10000	3	1	0	3	0
32	950	7	10000	3	1	0	3	0
32	951	7	10000	3	1	0	3	0
29	952	7	10000	3	1	0	3	0
29	953	7	10000	3	1	0	3	0
28	954	7	10000	3	1	0	3	0
27	955	7	10000	3	1	0	3	0
28	956	7	10000	3	1	0	3	0
26	957	7	10000	3	1	0	3	0
26	958	7	10000	3	1	0	3	0
25	959	7	10000	3	1	0	3	0
26	960	7	10000	3	1	0	3	0
26	961	7	10000	3	1	0	3	0
28	962	7	10000	3	1	0	3	0
27	963	7	10000	3	1	0	3	0
27	964	7	10000	3	1	0	3	0
28	965	7	10000	3	1	0	3	0
29	966	7	10000	3	1	0	3	0
29	967	7	10000	3	1	0	3	0
28	968	7	10000	3	1	0	3	0
28	969	7	10000	3	1	0	3	0
28	970	7	10000	3	1	0	3	0
29	971	7	10000	3	1	0	3	0
26	972	7	10000	3	1	0	3	0
25	973	7	10000	3	1	0	3	0
25	974	7	10000	3	1	0	3	0
25	975	7	10000	3	1	0	3	0
26	976	7	10000	3	1	0	3	0
27	977	7	10000	3	1	0	3	0
28	978	7	10000	3	1	0	3	0
28	979	7	10000	3	1	0	3	0
27	980	7	10000	3	1	0	3	0
26	981	7	10000	3	1	0	3	0
27	982	7	10000	3	1	0	3	0
26	983	7	10000	3	1	0	3	0
24	984	7	10000	3	1	0	3	0
24	985	7	10000	3	1	0	3	0
23	986	7	10000	3	1	0	3	0
22	987	7	10000	3	1	0	3	0
23	988	7	10000	3	1	0	3	0
26	989	7	10000	3	1	0	3	0
29	990	7	10000	3	1	0	3	0
29	991	7	10000	3	1	0	3	0
27	992	7	10000	3	1	0	3	0
29	993	7	10000	3	1	0	3	0
32	994	7	10000	3	1	0	3	0
33	995	7	10000	3	1	0	3	0
35	996	7	10000	3	1	0	3	0
34	997	7	10000	3	1	0	3	0
33	998	7	10000	3	1	0	3	0
31	999	7	10000	3	1	0	3	0
30	1000	7	10000	3	1	0	3	0
24	2	7	10000	4	1	0	4	0
21	3	7	10000	4	1	0	4	0
22	4	7	10000	4	1	0	4	0
21	5	7	10000	4	1	0	4	0
21	6	7	10000	4	1	0	4	0
21	7	7	10000	4	1	0	4	0
21	8	7	10000	4	1	0	4	0
23	9	7	10000	4	1	0	4	0
24	10	7	10000	4	1	0	4	0
25	11	7	10000	4	1	0	4	0
24	12	7	10000	4	1	0	4	0
26	13	7	10000	4	1	0	4	0
26	14	7	10000	4	1	0	4	0
26	15	7	10000	4	1	0	4	0
26	16	7	10000	4	1	0	4	0
26	17	7	10000	4	1	0	4	0
24	18	7	10000	4	1	0	4	0
25	19	7	10000	4	1	0	4	0
26	20	7	10000	4	1	0	4	0
27	21	7	10000	4	1	0	4	0
28	21	7	10000	4	1	0	4	0
24	22	7	10000	4	1	0	4	0
24	24	7	10000	4	1	0	4	0
25	25	7	10000	4	1	0	4	0
26	26	7	10000	4	1	0	4	0
26	27	7	10000	4	1	0	4	0
25	28	7	10000	4	1	0	4	0
25	29	7	10000	4	1	0	4	0
24	30	7	10000	4	1	0	4	0
24	31	7	10000	4	1	0	4	0
24	31	7	10000	4	1	0	4	0
26	32	7	10000	4	1	0	4	0
24	34	7	10000	4	1	0	4	0
23	35	7	10000	4	1	0	4	0
23	36	7	10000	4	1	0	4	0
23	37	7	10000	4	1	0	4	0
23	38	7	10000	4	1	0	4	0
23	39	7	10000	4	1	0	4	0
24	40	7	10000	4	1	0	4	0
23	41	7	10000	4	1	0	4	0
23	41	7	10000	4	1	0	4	0
21	42	7	10000	4	1	0	4	0
20	44	7	10000	4	1	0	4	0
20	45	7	10000	4	1	0	4	0
20	46	7	10000	4	1	0	4	0
19	47	7	10000	4	1	0	4	0
19	48	7	10000	4	1	0	4	0
19	49	7	10000	4	1	0	4	0
18	50	7	10000	4	1	0	4	0
17	51	7	10000	4	1	0	4	0
17	51	7	10000	4	1	0	4	0
19	52	7	10000	4	1	0	4	0
19	54	7	10000	4	1	0	4	0
20	55	7	10000	4	1	0	4	0
18	56	7	10000	4	1	0	4	0
18	57	7	10000	4	1	0	4	0
18	58	7	10000	4	1	0	4	0
17	59	7	10000	4	1	0	4	0
18	60	7	10000	4	1	0	4	0
19	61	7	10000	4	1	0	4	0
20	61	7	10000	4	1	0	4	0
18	62	7	10000	4	1	0	4	0
18	64	7	10000	4	1	0	4	0
20	65	7	10000	4	1	0	4	0
20	66	7	10000	4	1	0	4	0
20	67	7	10000	4	1	0	4	0
21	68	7	10000	4	1	0	4	0
21	69	7	10000	4	1	0	4	0
20	70	7	10000	4	1	0	4	0
19	71	7	10000	4	1	0	4	0
18	71	7	10000	4	1	0	4	0
19	72	7	10000	4	1	0	4	0
18	74	7	10000	4	1	0	4	0
18	75	7	10000	4	1	0	4	0
18	76	7	10000	4	1	0	4	0
20	77	7	10000	4	1	0	4	0
20	78	7	10000	4	1	0	4	0
19	79	7	10000	4	1	0	4	0
20	80	7	10000	4	1	0	4	0
19	81	7	10000	4	1	0	4	0
19	81	7	10000	4	1	0	4	0
18	82	7	10000	4	1	0	4	0
17	84	7	10000	4	1	0	4	0
17	85	7	10000	4	1	0	4	0
17	86	7	10000	4	1	0	4	0
17	87	7	10000	4	1	0	4	0
17	88	7	10000	4	1	0	4	0
17	89	7	10000	4	1	0	4	0
16	90	7	10000	4	1	0	4	0
15	91	7	10000	4	1	0	4	0
14	91	7	10000	4	1	0	4	0
16	92	7	10000	4	1	0	4	0
16	94	7	10000	4	1	0	4	0
15	95	7	10000	4	1	0	4	0
14	96	7	10000	4	1	0	4	0
15	97	7	10000	4	1	0	4	0
15	98	7	10000	4	1	0	4	0
14	99	7	10000	4	1	0	4	0
15	100	7	10000	4	1	0	4	0
15	101	7	10000	4	1	0	4	0
15	101	7	10000	4	1	0	4	0
14	102	7	10000	4	1	0	4	0
16	104	7	10000	4	1	0	4	0
18	105	7	10000	4	1	0	4	0
18	106	7	10000	4	1	0	4	0
18	107	7	10000	4	1	0	4	0
19	108	7	10000	4	1	0	4	0
18	109	7	10000	4	1	0	4	0
17	110	7	10000	4	1	0	4	0
16	111	7	10000	4	1	0	4	0
17	111	7	10000	4	1	0	4	0
19	112	7	10000	4	1	0	4	0
18	114	7	10000	4	1	0	4	0
19	115	7	10000	4	1	0	4	0
19	116	7	10000	4	1	0	4	0
19	117	7	10000	4	1	0	4	0
20	118	7	10000	4	1	0	4	0
19	119	7	10000	4	1	0	4	0
19	120	7	10000	4	1	0	4	0
19	121	7	10000	4	1	0	4	0
22	121	7	10000	4	1	0	4	0
25	122	7	10000	4	1	0	4	0
28	124	7	10000	4	1	0	4	0
28	125	7	10000	4	1	0	4	0
28	126	7	10000	4	1	0	4	0
27	127	7	10000	4	1	0	4	0
29	128	7	10000	4	1	0	4	0
33	129	7	10000	4	1	0	4	0
36	130	7	10000	4	1	0	4	0
40	131	7	10000	4	1	0	4	0
43	131	7	10000	4	1	0	4	0
47	132	7	10000	4	1	0	4	0
48	134	7	10000	4	1	0	4	0
46	135	7	10000	4	1	0	4	0
44	136	7	10000	4	1	0	4	0
42	137	7	10000	4	1	0	4	0
40	138	7	10000	4	1	0	4	0
39	139	7	10000	4	1	0	4	0
39	140	7	10000	4	1	0	4	0
39	141	7	10000	4	1	0	4	0
37	141	7	10000	4	1	0	4	0
34	142	7	10000	4	1	0	4	0
34	144	7	10000	4	1	0	4	0
34	145	7	10000	4	1	0	4	0
36	146	7	10000	4	1	0	4	0
36	147	7	10000	4	1	0	4	0
37	148	7	10000	4	1	0	4	0
36	149	7	10000	4	1	0	4	0
35	150	7	10000	4	1	0	4	0
35	151	7	10000	4	1	0	4	0
34	151	7	10000	4	1	0	4	0
37	152	7	10000	4	1	0	4	0
38	154	7	10000	4	1	0	4	0
38	155	7	10000	4	1	0	4	0
36	156	7	10000	4	1	0	4	0
34	157	7	10000	4	1	0	4	0
34	158	7	10000	4	1	0	4	0
32	159	7	10000	4	1	0	4	0
32	160	7	10000	4	1	0	4	0
31	161	7	10000	4	1	0	4	0
31	161	7	10000	4	1	0	4	0
27	162	7	10000	4	1	0	4	0
27	164	7	10000	4	1	0	4	0
26	165	7	10000	4	1	0	4	0
25	166	7	10000	4	1	0	4	0
24	167	7	10000	4	1	0	4	0
24	168	7	10000	4	1	0	4	0
24	169	7	10000	4	1	0	4	0
22	170	7	10000	4	1	0	4	0
21	171	7	10000	4	1	0	4	0
21	171	7	10000	4	1	0	4	0
23	172	7	10000	4	1	0	4	0
22	174	7	10000	4	1	0	4	0
21	175	7	10000	4	1	0	4	0
20	176	7	10000	4	1	0	4	0
20	177	7	10000	4	1	0	4	0
19	178	7	10000	4	1	0	4	0
18	179	7	10000	4	1	0	4	0
18	180	7	10000	4	1	0	4	0
17	181	7	10000	4	1	0	4	0
17	181	7	10000	4	1	0	4	0
14	182	7	10000	4	1	0	4	0
14	184	7	10000	4	1	0	4	0
14	185	7	10000	4	1	0	4	0
15	186	7	10000	4	1	0	4	0
15	187	7	10000	4	1	0	4	0
15	188	7	10000	4	1	0	4	0
16	189	7	10000	4	1	0	4	0
14	190	7	10000	4	1	0	4	0
14	191	7	10000	4	1	0	4	0
13	191	7	10000	4	1	0	4	0
15	192	7	10000	4	1	0	4	0
15	194	7	10000	4	1	0	4	0
14	195	7	10000	4	1	0	4	0
13	196	7	10000	4	1	0	4	0
13	197	7	10000	4	1	0	4	0
12	198	7	10000	4	1	0	4	0
12	199	7	10000	4	1	0	4	0
13	200	7	10000	4	1	0	4	0
13	201	7	10000	4	1	0	4	0
14	201	7	10000	4	1	0	4	0
11	202	7	10000	4	1	0	4	0
11	204	7	10000	4	1	0	4	0
11	205	7	10000	4	1	0	4	0
11	206	7	10000	4	1	0	4	0
12	207	7	10000	4	1	0	4	0
14	208	7	10000	4	1	0	4	0
16	209	7	10000	4	1	0	4	0
15	210	7	10000	4	1	0	4	0
13	211	7	10000	4	1	0	4	0
14	211	7	10000	4	1	0	4	0
17	212	7	10000	4	1	0	4	0
18	214	7	10000	4	1	0	4	0
17	215	7	10000	4	1	0	4	0
16	216	7	10000	4	1	0	4	0
17	217	7	10000	4	1	0	4	0
16	218	7	10000	4	1	0	4	0
14	219	7	10000	4	1	0	4	0
15	220	7	10000	4	1	0	4	0
15	221	7	10000	4	1	0	4	0
16	221	7	10000	4	1	0	4	0
13	222	7	10000	4	1	0	4	0
13	224	7	10000	4	1	0	4	0
14	225	7	10000	4	1	0	4	0
15	226	7	10000	4	1	0	4	0
17	227	7	10000	4	1	0	4	0
16	228	7	10000	4	1	0	4	0
16	229	7	10000	4	1	0	4	0
15	230	7	10000	4	1	0	4	0
14	231	7	10000	4	1	0	4	0
16	231	7	10000	4	1	0	4	0
17	232	7	10000	4	1	0	4	0
17	234	7	10000	4	1	0	4	0
16	235	7	10000	4	1	0	4	0
15	236	7	10000	4	1	0	4	0
15	237	7	10000	4	1	0	4	0
14	238	7	10000	4	1	0	4	0
13	239	7	10000	4	1	0	4	0
15	240	7	10000	4	1	0	4	0
17	241	7	10000	4	1	0	4	0
18	241	7	10000	4	1	0	4	0
16	242	7	10000	4	1	0	4	0
16	244	7	10000	4	1	0	4	0
16	245	7	10000	4	1	0	4	0
16	246	7	10000	4	1	0	4	0
16	247	7	10000	4	1	0	4	0
17	248	7	10000	4	1	0	4	0
17	249	7	10000	4	1	0	4	0
17	250	7	10000	4	1	0	4	0
16	251	7	10000	4	1	0	4	0
16	251	7	10000	4	1	0	4	0
19	252	7	10000	4	1	0	4	0
18	254	7	10000	4	1	0	4	0
18	255	7	10000	4	1	0	4	0
18	256	7	10000	4	1	0	4	0
18	257	7	10000	4	1	0	4	0
19	258	7	10000	4	1	0	4	0
18	259	7	10000	4	1	0	4	0
19	260	7	10000	4	1	0	4	0
19	261	7	10000	4	1	0	4	0
20	261	7	10000	4	1	0	4	0
17	262	7	10000	4	1	0	4	0
17	264	7	10000	4	1	0	4	0
18	265	7	10000	4	1	0	4	0
17	266	7	10000	4	1	0	4	0
17	267	7	10000	4	1	0	4	0
18	268	7	10000	4	1	0	4	0
17	269	7	10000	4	1	0	4	0
18	270	7	10000	4	1	0	4	0
17	271	7	10000	4	1	0	4	0
16	271	7	10000	4	1	0	4	0
18	272	7	10000	4	1	0	4	0
18	274	7	10000	4	1	0	4	0
18	275	7	10000	4	1	0	4	0
17	276	7	10000	4	1	0	4	0
16	277	7	10000	4	1	0	4	0
16	278	7	10000	4	1	0	4	0
14	279	7	10000	4	1	0	4	0
15	280	7	10000	4	1	0	4	0
15	281	7	10000	4	1	0	4	0
15	281	7	10000	4	1	0	4	0
15	282	7	10000	4	1	0	4	0
17	284	7	10000	4	1	0	4	0
16	285	7	10000	4	1	0	4	0
17	286	7	10000	4	1	0	4	0
16	287	7	10000	4	1	0	4	0
16	288	7	10000	4	1	0	4	0
17	289	7	10000	4	1	0	4	0
16	290	7	10000	4	1	0	4	0
15	291	7	10000	4	1	0	4	0
15	291	7	10000	4	1	0	4	0
18	292	7	10000	4	1	0	4	0
18	294	7	10000	4	1	0	4	0
18	295	7	10000	4	1	0	4	0
18	296	7	10000	4	1	0	4	0
20	297	7	10000	4	1	0	4	0
21	298	7	10000	4	1	0	4	0
20	299	7	10000	4	1	0	4	0
19	300	7	10000	4	1	0	4	0
20	301	7	10000	4	1	0	4	0
19	301	7	10000	4	1	0	4	0
17	302	7	10000	4	1	0	4	0
17	303	7	10000	4	1	0	4	0
17	304	7	10000	4	1	0	4	0
18	306	7	10000	4	1	0	4	0
18	307	7	10000	4	1	0	4	0
19	308	7	10000	4	1	0	4	0
18	309	7	10000	4	1	0	4	0
18	310	7	10000	4	1	0	4	0
19	311	7	10000	4	1	0	4	0
19	311	7	10000	4	1	0	4	0
20	312	7	10000	4	1	0	4	0
20	313	7	10000	4	1	0	4	0
20	314	7	10000	4	1	0	4	0
20	316	7	10000	4	1	0	4	0
20	317	7	10000	4	1	0	4	0
20	318	7	10000	4	1	0	4	0
20	319	7	10000	4	1	0	4	0
21	320	7	10000	4	1	0	4	0
23	321	7	10000	4	1	0	4	0
23	321	7	10000	4	1	0	4	0
21	322	7	10000	4	1	0	4	0
21	324	7	10000	4	1	0	4	0
20	325	7	10000	4	1	0	4	0
20	326	7	10000	4	1	0	4	0
20	327	7	10000	4	1	0	4	0
20	328	7	10000	4	1	0	4	0
20	329	7	10000	4	1	0	4	0
19	330	7	10000	4	1	0	4	0
18	331	7	10000	4	1	0	4	0
17	331	7	10000	4	1	0	4	0
21	332	7	10000	4	1	0	4	0
21	334	7	10000	4	1	0	4	0
22	335	7	10000	4	1	0	4	0
21	336	7	10000	4	1	0	4	0
20	337	7	10000	4	1	0	4	0
20	338	7	10000	4	1	0	4	0
19	339	7	10000	4	1	0	4	0
20	340	7	10000	4	1	0	4	0
20	341	7	10000	4	1	0	4	0
19	341	7	10000	4	1	0	4	0
17	342	7	10000	4	1	0	4	0
17	344	7	10000	4	1	0	4	0
17	345	7	10000	4	1	0	4	0
18	346	7	10000	4	1	0	4	0
17	347	7	10000	4	1	0	4	0
16	348	7	10000	4	1	0	4	0
16	349	7	10000	4	1	0	4	0
16	350	7	10000	4	1	0	4	0
16	351	7	10000	4	1	0	4	0
15	351	7	10000	4	1	0	4	0
17	352	7	10000	4	1	0	4	0
17	354	7	10000	4	1	0	4	0
16	355	7	10000	4	1	0	4	0
15	356	7	10000	4	1	0	4	0
15	357	7	10000	4	1	0	4	0
15	358	7	10000	4	1	0	4	0
15	359	7	10000	4	1	0	4	0
14	360	7	10000	4	1	0	4	0
14	361	7	10000	4	1	0	4	0
14	361	7	10000	4	1	0	4	0
12	362	7	10000	4	1	0	4	0
12	364	7	10000	4	1	0	4	0
12	365	7	10000	4	1	0	4	0
13	366	7	10000	4	1	0	4	0
13	367	7	10000	4	1	0	4	0
13	368	7	10000	4	1	0	4	0
13	369	7	10000	4	1	0	4	0
12	370	7	10000	4	1	0	4	0
12	371	7	10000	4	1	0	4	0
12	371	7	10000	4	1	0	4	0
14	372	7	10000	4	1	0	4	0
14	374	7	10000	4	1	0	4	0
12	375	7	10000	4	1	0	4	0
11	376	7	10000	4	1	0	4	0
11	377	7	10000	4	1	0	4	0
11	378	7	10000	4	1	0	4	0
11	379	7	10000	4	1	0	4	0
11	380	7	10000	4	1	0	4	0
12	381	7	10000	4	1	0	4	0
12	381	7	10000	4	1	0	4	0
11	382	7	10000	4	1	0	4	0
12	384	7	10000	4	1	0	4	0
12	385	7	10000	4	1	0	4	0
13	386	7	10000	4	1	0	4	0
12	387	7	10000	4	1	0	4	0
12	388	7	10000	4	1	0	4	0
12	389	7	10000	4	1	0	4	0
11	390	7	10000	4	1	0	4	0
11	391	7	10000	4	1	0	4	0
10	391	7	10000	4	1	0	4	0
13	392	7	10000	4	1	0	4	0
13	394	7	10000	4	1	0	4	0
12	395	7	10000	4	1	0	4	0
11	396	7	10000	4	1	0	4	0
11	397	7	10000	4	1	0	4	0
11	398	7	10000	4	1	0	4	0
12	399	7	10000	4	1	0	4	0
13	400	7	10000	4	1	0	4	0
13	401	7	10000	4	1	0	4	0
13	401	7	10000	4	1	0	4	0
11	402	7	10000	4	1	0	4	0
12	404	7	10000	4	1	0	4	0
13	405	7	10000	4	1	0	4	0
14	406	7	10000	4	1	0	4	0
14	407	7	10000	4	1	0	4	0
14	408	7	10000	4	1	0	4	0
15	409	7	10000	4	1	0	4	0
16	410	7	10000	4	1	0	4	0
15	411	7	10000	4	1	0	4	0
15	411	7	10000	4	1	0	4	0
16	412	7	10000	4	1	0	4	0
16	414	7	10000	4	1	0	4	0
16	415	7	10000	4	1	0	4	0
15	416	7	10000	4	1	0	4	0
15	417	7	10000	4	1	0	4	0
14	418	7	10000	4	1	0	4	0
14	419	7	10000	4	1	0	4	0
15	420	7	10000	4	1	0	4	0
17	421	7	10000	4	1	0	4	0
20	421	7	10000	4	1	0	4	0
18	422	7	10000	4	1	0	4	0
18	424	7	10000	4	1	0	4	0
20	425	7	10000	4	1	0	4	0
23	426	7	10000	4	1	0	4	0
26	427	7	10000	4	1	0	4	0
28	428	7	10000	4	1	0	4	0
30	429	7	10000	4	1	0	4	0
30	430	7	10000	4	1	0	4	0
29	431	7	10000	4	1	0	4	0
28	431	7	10000	4	1	0	4	0
29	432	7	10000	4	1	0	4	0
27	434	7	10000	4	1	0	4	0
26	435	7	10000	4	1	0	4	0
25	436	7	10000	4	1	0	4	0
25	437	7	10000	4	1	0	4	0
25	438	7	10000	4	1	0	4	0
23	439	7	10000	4	1	0	4	0
24	440	7	10000	4	1	0	4	0
24	441	7	10000	4	1	0	4	0
23	441	7	10000	4	1	0	4	0
21	442	7	10000	4	1	0	4	0
20	444	7	10000	4	1	0	4	0
20	445	7	10000	4	1	0	4	0
20	446	7	10000	4	1	0	4	0
19	447	7	10000	4	1	0	4	0
19	448	7	10000	4	1	0	4	0
19	449	7	10000	4	1	0	4	0
19	450	7	10000	4	1	0	4	0
18	451	7	10000	4	1	0	4	0
19	451	7	10000	4	1	0	4	0
20	452	7	10000	4	1	0	4	0
20	454	7	10000	4	1	0	4	0
20	455	7	10000	4	1	0	4	0
18	456	7	10000	4	1	0	4	0
18	457	7	10000	4	1	0	4	0
18	458	7	10000	4	1	0	4	0
17	459	7	10000	4	1	0	4	0
18	460	7	10000	4	1	0	4	0
17	461	7	10000	4	1	0	4	0
17	461	7	10000	4	1	0	4	0
15	462	7	10000	4	1	0	4	0
15	464	7	10000	4	1	0	4	0
16	465	7	10000	4	1	0	4	0
17	466	7	10000	4	1	0	4	0
16	467	7	10000	4	1	0	4	0
17	468	7	10000	4	1	0	4	0
18	469	7	10000	4	1	0	4	0
19	470	7	10000	4	1	0	4	0
19	471	7	10000	4	1	0	4	0
18	471	7	10000	4	1	0	4	0
20	472	7	10000	4	1	0	4	0
21	474	7	10000	4	1	0	4	0
22	475	7	10000	4	1	0	4	0
22	476	7	10000	4	1	0	4	0
21	477	7	10000	4	1	0	4	0
20	478	7	10000	4	1	0	4	0
20	479	7	10000	4	1	0	4	0
20	480	7	10000	4	1	0	4	0
20	481	7	10000	4	1	0	4	0
20	481	7	10000	4	1	0	4	0
18	482	7	10000	4	1	0	4	0
18	484	7	10000	4	1	0	4	0
19	485	7	10000	4	1	0	4	0
18	486	7	10000	4	1	0	4	0
18	487	7	10000	4	1	0	4	0
20	488	7	10000	4	1	0	4	0
20	489	7	10000	4	1	0	4	0
20	490	7	10000	4	1	0	4	0
21	491	7	10000	4	1	0	4	0
20	491	7	10000	4	1	0	4	0
21	492	7	10000	4	1	0	4	0
20	494	7	10000	4	1	0	4	0
20	495	7	10000	4	1	0	4	0
20	496	7	10000	4	1	0	4	0
19	497	7	10000	4	1	0	4	0
19	498	7	10000	4	1	0	4	0
18	499	7	10000	4	1	0	4	0
18	500	7	10000	4	1	0	4	0
19	501	7	10000	4	1	0	4	0
20	502	7	10000	4	1	0	4	1
18	503	7	10000	4	1	0	4	1
18	504	7	10000	4	1	0	4	1
19	505	7	10000	4	1	0	4	1
19	506	7	10000	4	1	0	4	1
19	507	7	10000	4	1	0	4	1
18	508	7	10000	4	1	0	4	1
19	509	7	10000	4	1	0	4	1
20	510	7	10000	4	1	0	4	1
20	511	7	10000	4	1	0	4	1
20	511	7	10000	4	1	0	4	1
21	512	7	10000	4	1	0	4	1
20	514	7	10000	4	1	0	4	1
20	515	7	10000	4	1	0	4	1
19	516	7	10000	4	1	0	4	1
19	517	7	10000	4	1	0	4	1
18	518	7	10000	4	1	0	4	1
19	519	7	10000	4	1	0	4	1
19	520	7	10000	4	1	0	4	1
19	521	7	10000	4	1	0	4	1
18	521	7	10000	4	1	0	4	1
15	522	7	10000	4	1	0	4	1
15	524	7	10000	4	1	0	4	1
16	525	7	10000	4	1	0	4	1
18	526	7	10000	4	1	0	4	1
17	527	7	10000	4	1	0	4	1
18	528	7	10000	4	1	0	4	1
19	529	7	10000	4	1	0	4	1
18	530	7	10000	4	1	0	4	1
18	531	7	10000	4	1	0	4	1
17	531	7	10000	4	1	0	4	1
19	532	7	10000	4	1	0	4	1
19	534	7	10000	4	1	0	4	1
20	535	7	10000	4	1	0	4	1
21	536	7	10000	4	1	0	4	1
20	537	7	10000	4	1	0	4	1
20	538	7	10000	4	1	0	4	1
19	539	7	10000	4	1	0	4	1
19	540	7	10000	4	1	0	4	1
19	541	7	10000	4	1	0	4	1
20	541	7	10000	4	1	0	4	1
16	542	7	10000	4	1	0	4	1
17	544	7	10000	4	1	0	4	1
19	545	7	10000	4	1	0	4	1
20	546	7	10000	4	1	0	4	1
19	547	7	10000	4	1	0	4	1
19	548	7	10000	4	1	0	4	1
20	549	7	10000	4	1	0	4	1
20	550	7	10000	4	1	0	4	1
19	551	7	10000	4	1	0	4	1
18	551	7	10000	4	1	0	4	0
20	552	7	10000	4	1	0	4	0
21	554	7	10000	4	1	0	4	0
20	555	7	10000	4	1	0	4	0
19	556	7	10000	4	1	0	4	0
19	557	7	10000	4	1	0	4	0
20	558	7	10000	4	1	0	4	0
20	559	7	10000	4	1	0	4	0
21	560	7	10000	4	1	0	4	0
21	561	7	10000	4	1	0	4	0
21	561	7	10000	4	1	0	4	0
19	562	7	10000	4	1	0	4	0
21	564	7	10000	4	1	0	4	0
20	565	7	10000	4	1	0	4	0
20	566	7	10000	4	1	0	4	0
20	567	7	10000	4	1	0	4	0
21	568	7	10000	4	1	0	4	0
23	569	7	10000	4	1	0	4	0
22	570	7	10000	4	1	0	4	0
21	571	7	10000	4	1	0	4	0
21	571	7	10000	4	1	0	4	0
23	572	7	10000	4	1	0	4	0
23	574	7	10000	4	1	0	4	0
23	575	7	10000	4	1	0	4	0
23	576	7	10000	4	1	0	4	0
23	577	7	10000	4	1	0	4	0
22	578	7	10000	4	1	0	4	0
21	579	7	10000	4	1	0	4	0
21	580	7	10000	4	1	0	4	0
22	581	7	10000	4	1	0	4	0
22	581	7	10000	4	1	0	4	0
19	582	7	10000	4	1	0	4	0
19	584	7	10000	4	1	0	4	0
19	585	7	10000	4	1	0	4	0
20	586	7	10000	4	1	0	4	0
21	587	7	10000	4	1	0	4	0
23	588	7	10000	4	1	0	4	0
23	589	7	10000	4	1	0	4	0
22	590	7	10000	4	1	0	4	0
22	591	7	10000	4	1	0	4	0
22	591	7	10000	4	1	0	4	0
25	592	7	10000	4	1	0	4	0
24	594	7	10000	4	1	0	4	0
23	595	7	10000	4	1	0	4	0
22	596	7	10000	4	1	0	4	0
22	597	7	10000	4	1	0	4	0
26	598	7	10000	4	1	0	4	0
28	599	7	10000	4	1	0	4	0
49	600	7	10000	4	1	0	4	0
64	601	7	10000	4	1	0	4	0
86	601	7	10000	4	1	0	4	0
120	602	7	10000	4	1	0	4	0
131	603	7	10000	4	1	0	4	0
131	604	7	10000	4	1	0	4	0
132	606	7	10000	4	1	0	4	0
134	607	7	10000	4	1	0	4	0
146	608	7	10000	4	1	0	4	0
158	609	7	10000	4	1	0	4	0
197	609	7	10000	4	1	0	4	0
207	610	7	10000	4	1	0	4	0
263	612	7	10000	4	1	0	4	0
344	613	7	10000	4	1	0	4	0
369	613	7	10000	4	1	0	4	0
369	614	7	10000	4	1	0	4	0
411	616	7	10000	4	1	0	4	0
453	617	7	10000	4	1	0	4	0
482	618	7	10000	4	1	0	4	0
505	619	7	10000	4	1	0	4	0
522	620	7	10000	4	1	0	4	0
521	621	7	10000	4	1	0	4	0
527	621	7	10000	4	1	0	4	0
553	622	7	10000	4	1	0	4	0
555	624	7	10000	4	1	0	4	0
534	625	7	10000	4	1	0	4	0
509	626	7	10000	4	1	0	4	0
488	627	7	10000	4	1	0	4	0
471	628	7	10000	4	1	0	4	0
461	629	7	10000	4	1	0	4	0
453	630	7	10000	4	1	0	4	0
442	631	7	10000	4	1	0	4	0
427	631	7	10000	4	1	0	4	0
415	632	7	10000	4	1	0	4	0
405	634	7	10000	4	1	0	4	0
397	635	7	10000	4	1	0	4	0
387	636	7	10000	4	1	0	4	0
380	637	7	10000	4	1	0	4	0
371	638	7	10000	4	1	0	4	0
362	639	7	10000	4	1	0	4	0
352	640	7	10000	4	1	0	4	0
340	641	7	10000	4	1	0	4	0
327	641	7	10000	4	1	0	4	0
310	642	7	10000	4	1	0	4	0
296	643	7	10000	4	1	0	4	0
284	644	7	10000	4	1	0	4	0
273	646	7	10000	4	1	0	4	0
263	647	7	10000	4	1	0	4	0
255	648	7	10000	4	1	0	4	0
247	649	7	10000	4	1	0	4	0
240	650	7	10000	4	1	0	4	0
234	651	7	10000	4	1	0	4	0
230	651	7	10000	4	1	0	4	0
229	652	7	10000	4	1	0	4	0
224	654	7	10000	4	1	0	4	0
220	655	7	10000	4	1	0	4	0
212	656	7	10000	4	1	0	4	0
206	657	7	10000	4	1	0	4	0
201	658	7	10000	4	1	0	4	0
197	659	7	10000	4	1	0	4	0
194	660	7	10000	4	1	0	4	0
191	661	7	10000	4	1	0	4	0
190	661	7	10000	4	1	0	4	0
189	662	7	10000	4	1	0	4	0
189	663	7	10000	4	1	0	4	0
189	664	7	10000	4	1	0	4	0
187	665	7	10000	4	1	0	4	0
184	666	7	10000	4	1	0	4	0
180	667	7	10000	4	1	0	4	0
178	668	7	10000	4	1	0	4	0
175	669	7	10000	4	1	0	4	0
173	670	7	10000	4	1	0	4	0
170	671	7	10000	4	1	0	4	0
170	672	7	10000	4	1	0	4	0
166	673	7	10000	4	1	0	4	0
163	674	7	10000	4	1	0	4	0
158	675	7	10000	4	1	0	4	0
152	676	7	10000	4	1	0	4	0
146	677	7	10000	4	1	0	4	0
139	678	7	10000	4	1	0	4	0
134	688	7	10000	4	1	0	4	0
129	689	7	10000	4	1	0	4	0
123	690	7	10000	4	1	0	4	0
118	691	7	10000	4	1	0	4	0
115	692	7	10000	4	1	0	4	0
113	693	7	10000	4	1	0	4	0
111	694	7	10000	4	1	0	4	0
109	695	7	10000	4	1	0	4	0
107	696	7	10000	4	1	0	4	0
104	697	7	10000	4	1	0	4	0
99	696	7	10000	4	1	0	4	0
95	697	7	10000	4	1	0	4	0
90	698	7	10000	4	1	0	4	0
88	699	7	10000	4	1	0	4	0
85	700	7	10000	4	1	0	4	0
80	701	7	10000	4	1	0	4	0
77	702	7	10000	4	1	0	4	0
74	703	7	10000	4	1	0	4	0
72	703	7	10000	4	1	0	4	0
71	704	7	10000	4	1	0	4	0
71	705	7	10000	4	1	0	4	0
71	706	7	10000	4	1	0	4	0
70	707	7	10000	4	1	0	4	0
66	708	7	10000	4	1	0	4	0
65	709	7	10000	4	1	0	4	0
63	710	7	10000	4	1	0	4	0
61	711	7	10000	4	1	0	4	0
59	712	7	10000	4	1	0	4	0
57	713	7	10000	4	1	0	4	0
56	714	7	10000	4	1	0	4	0
52	715	7	10000	4	1	0	4	0
50	716	7	10000	4	1	0	4	0
47	717	7	10000	4	1	0	4	0
47	718	7	10000	4	1	0	4	0
45	717	7	10000	4	1	0	4	0
43	718	7	10000	4	1	0	4	0
42	719	7	10000	4	1	0	4	0
40	720	7	10000	4	1	0	4	0
41	721	7	10000	4	1	0	4	0
41	722	7	10000	4	1	0	4	0
44	721	7	10000	4	1	0	4	0
45	722	7	10000	4	1	0	4	0
46	723	7	10000	4	1	0	4	0
44	724	7	10000	4	1	0	4	0
45	728	7	10000	4	1	0	4	0
44	729	7	10000	4	1	0	4	0
44	730	7	10000	4	1	0	4	0
41	731	7	10000	4	1	0	4	0
40	732	7	10000	4	1	0	4	0
40	733	7	10000	4	1	0	4	0
38	733	7	10000	4	1	0	4	0
36	734	7	10000	4	1	0	4	0
35	735	7	10000	4	1	0	4	0
36	736	7	10000	4	1	0	4	0
36	737	7	10000	4	1	0	4	0
35	738	7	10000	4	1	0	4	0
33	739	7	10000	4	1	0	4	0
33	740	7	10000	4	1	0	4	0
33	741	7	10000	4	1	0	4	0
35	742	7	10000	4	1	0	4	0
37	743	7	10000	4	1	0	4	0
39	744	7	10000	4	1	0	4	0
41	744	7	10000	4	1	0	4	0
39	745	7	10000	4	1	0	4	0
38	746	7	10000	4	1	0	4	0
36	747	7	10000	4	1	0	4	0
36	749	7	10000	4	1	0	4	0
34	750	7	10000	4	1	0	4	0
34	751	7	10000	4	1	0	4	0
34	752	7	10000	4	1	0	4	0
32	753	7	10000	4	1	0	4	0
31	754	7	10000	4	1	0	4	0
30	756	7	10000	4	1	0	4	0
31	757	7	10000	4	1	0	4	0
31	758	7	10000	4	1	0	4	0
29	759	7	10000	4	1	0	4	0
29	760	7	10000	4	1	0	4	0
30	761	7	10000	4	1	0	4	0
30	760	7	10000	4	1	0	4	0
30	761	7	10000	4	1	0	4	0
29	762	7	10000	4	1	0	4	0
28	763	7	10000	4	1	0	4	0
28	767	7	10000	4	1	0	4	0
24	768	7	10000	4	1	0	4	0
24	769	7	10000	4	1	0	4	0
23	770	7	10000	4	1	0	4	0
23	771	7	10000	4	1	0	4	0
22	772	7	10000	4	1	0	4	0
21	773	7	10000	4	1	0	4	0
20	774	7	10000	4	1	0	4	0
19	771	7	10000	4	1	0	4	0
18	772	7	10000	4	1	0	4	0
18	773	7	10000	4	1	0	4	0
21	774	7	10000	4	1	0	4	0
22	779	7	10000	4	1	0	4	0
20	780	7	10000	4	1	0	4	0
21	781	7	10000	4	1	0	4	0
23	782	7	10000	4	1	0	4	0
24	783	7	10000	4	1	0	4	0
24	784	7	10000	4	1	0	4	0
24	785	7	10000	4	1	0	4	0
24	786	7	10000	4	1	0	4	0
25	783	7	10000	4	1	0	4	0
22	784	7	10000	4	1	0	4	0
22	785	7	10000	4	1	0	4	0
21	786	7	10000	4	1	0	4	0
21	788	7	10000	4	1	0	4	0
22	789	7	10000	4	1	0	4	0
21	790	7	10000	4	1	0	4	0
21	791	7	10000	4	1	0	4	0
21	792	7	10000	4	1	0	4	0
20	793	7	10000	4	1	0	4	0
20	791	7	10000	4	1	0	4	0
21	792	7	10000	4	1	0	4	0
21	793	7	10000	4	1	0	4	0
21	794	7	10000	4	1	0	4	0
20	795	7	10000	4	1	0	4	0
20	796	7	10000	4	1	0	4	0
19	797	7	10000	4	1	0	4	0
18	798	7	10000	4	1	0	4	0
18	799	7	10000	4	1	0	4	0
18	800	7	10000	4	1	0	4	0
19	801	7	10000	4	1	0	4	0
17	802	7	10000	4	1	0	4	0
17	803	7	10000	4	1	0	4	0
17	804	7	10000	4	1	0	4	0
18	805	7	10000	4	1	0	4	0
18	806	7	10000	4	1	0	4	0
17	807	7	10000	4	1	0	4	0
17	808	7	10000	4	1	0	4	0
16	809	7	10000	4	1	0	4	0
16	810	7	10000	4	1	0	4	0
15	811	7	10000	4	1	0	4	0
17	812	7	10000	4	1	0	4	0
16	813	7	10000	4	1	0	4	0
16	814	7	10000	4	1	0	4	0
15	815	7	10000	4	1	0	4	0
16	816	7	10000	4	1	0	4	0
17	817	7	10000	4	1	0	4	0
17	818	7	10000	4	1	0	4	0
17	819	7	10000	4	1	0	4	0
18	820	7	10000	4	1	0	4	0
18	821	7	10000	4	1	0	4	0
16	822	7	10000	4	1	0	4	0
17	823	7	10000	4	1	0	4	0
19	824	7	10000	4	1	0	4	0
18	825	7	10000	4	1	0	4	0
18	826	7	10000	4	1	0	4	0
18	827	7	10000	4	1	0	4	0
19	828	7	10000	4	1	0	4	0
20	829	7	10000	4	1	0	4	0
21	830	7	10000	4	1	0	4	0
23	831	7	10000	4	1	0	4	0
26	832	7	10000	4	1	0	4	0
25	833	7	10000	4	1	0	4	0
25	834	7	10000	4	1	0	4	0
25	835	7	10000	4	1	0	4	0
24	836	7	10000	4	1	0	4	0
24	837	7	10000	4	1	0	4	0
22	838	7	10000	4	1	0	4	0
22	839	7	10000	4	1	0	4	0
23	840	7	10000	4	1	0	4	0
23	841	7	10000	4	1	0	4	0
22	842	7	10000	4	1	0	4	0
21	843	7	10000	4	1	0	4	0
21	844	7	10000	4	1	0	4	0
21	845	7	10000	4	1	0	4	0
20	846	7	10000	4	1	0	4	0
19	847	7	10000	4	1	0	4	0
19	848	7	10000	4	1	0	4	0
18	849	7	10000	4	1	0	4	0
18	850	7	10000	4	1	0	4	0
17	851	7	10000	4	1	0	4	0
19	852	7	10000	4	1	0	4	0
18	853	7	10000	4	1	0	4	0
17	854	7	10000	4	1	0	4	0
16	855	7	10000	4	1	0	4	0
16	856	7	10000	4	1	0	4	0
16	857	7	10000	4	1	0	4	0
15	858	7	10000	4	1	0	4	0
16	859	7	10000	4	1	0	4	0
15	860	7	10000	4	1	0	4	0
15	861	7	10000	4	1	0	4	0
14	862	7	10000	4	1	0	4	0
14	863	7	10000	4	1	0	4	0
15	864	7	10000	4	1	0	4	0
15	865	7	10000	4	1	0	4	0
15	866	7	10000	4	1	0	4	0
15	867	7	10000	4	1	0	4	0
15	868	7	10000	4	1	0	4	0
13	869	7	10000	4	1	0	4	0
13	870	7	10000	4	1	0	4	0
13	871	7	10000	4	1	0	4	0
16	872	7	10000	4	1	0	4	0
14	873	7	10000	4	1	0	4	0
15	874	7	10000	4	1	0	4	0
16	875	7	10000	4	1	0	4	0
17	876	7	10000	4	1	0	4	0
18	877	7	10000	4	1	0	4	0
17	878	7	10000	4	1	0	4	0
18	879	7	10000	4	1	0	4	0
20	880	7	10000	4	1	0	4	0
22	881	7	10000	4	1	0	4	0
21	882	7	10000	4	1	0	4	0
22	883	7	10000	4	1	0	4	0
22	884	7	10000	4	1	0	4	0
23	885	7	10000	4	1	0	4	0
24	886	7	10000	4	1	0	4	0
24	887	7	10000	4	1	0	4	0
25	888	7	10000	4	1	0	4	0
25	889	7	10000	4	1	0	4	0
24	890	7	10000	4	1	0	4	0
23	891	7	10000	4	1	0	4	0
24	892	7	10000	4	1	0	4	0
23	893	7	10000	4	1	0	4	0
24	894	7	10000	4	1	0	4	0
23	895	7	10000	4	1	0	4	0
22	896	7	10000	4	1	0	4	0
22	897	7	10000	4	1	0	4	0
23	898	7	10000	4	1	0	4	0
24	899	7	10000	4	1	0	4	0
25	900	7	10000	4	1	0	4	0
24	901	7	10000	4	1	0	4	0
21	902	7	10000	4	1	0	4	0
21	903	7	10000	4	1	0	4	0
23	904	7	10000	4	1	0	4	0
25	905	7	10000	4	1	0	4	0
27	906	7	10000	4	1	0	4	0
28	907	7	10000	4	1	0	4	0
28	908	7	10000	4	1	0	4	0
26	909	7	10000	4	1	0	4	0
25	910	7	10000	4	1	0	4	0
24	911	7	10000	4	1	0	4	0
26	912	7	10000	4	1	0	4	0
25	913	7	10000	4	1	0	4	0
24	914	7	10000	4	1	0	4	0
24	915	7	10000	4	1	0	4	0
22	916	7	10000	4	1	0	4	0
21	917	7	10000	4	1	0	4	0
21	918	7	10000	4	1	0	4	0
21	919	7	10000	4	1	0	4	0
22	920	7	10000	4	1	0	4	0
24	921	7	10000	4	1	0	4	0
24	922	7	10000	4	1	0	4	0
25	923	7	10000	4	1	0	4	0
25	924	7	10000	4	1	0	4	0
24	925	7	10000	4	1	0	4	0
23	926	7	10000	4	1	0	4	0
24	927	7	10000	4	1	0	4	0
24	928	7	10000	4	1	0	4	0
24	929	7	10000	4	1	0	4	0
23	930	7	10000	4	1	0	4	0
23	931	7	10000	4	1	0	4	0
26	932	7	10000	4	1	0	4	0
26	933	7	10000	4	1	0	4	0
24	934	7	10000	4	1	0	4	0
23	935	7	10000	4	1	0	4	0
23	936	7	10000	4	1	0	4	0
23	937	7	10000	4	1	0	4	0
24	938	7	10000	4	1	0	4	0
24	939	7	10000	4	1	0	4	0
25	940	7	10000	4	1	0	4	0
25	941	7	10000	4	1	0	4	0
22	942	7	10000	4	1	0	4	0
22	943	7	10000	4	1	0	4	0
22	944	7	10000	4	1	0	4	0
22	945	7	10000	4	1	0	4	0
22	946	7	10000	4	1	0	4	0
23	947	7	10000	4	1	0	4	0
24	948	7	10000	4	1	0	4	0
23	949	7	10000	4	1	0	4	0
22	950	7	10000	4	1	0	4	0
21	951	7	10000	4	1	0	4	0
23	952	7	10000	4	1	0	4	0
23	953	7	10000	4	1	0	4	0
22	954	7	10000	4	1	0	4	0
21	955	7	10000	4	1	0	4	0
21	956	7	10000	4	1	0	4	0
21	957	7	10000	4	1	0	4	0
20	958	7	10000	4	1	0	4	0
21	959	7	10000	4	1	0	4	0
20	960	7	10000	4	1	0	4	0
20	961	7	10000	4	1	0	4	0
17	962	7	10000	4	1	0	4	0
17	963	7	10000	4	1	0	4	0
18	964	7	10000	4	1	0	4	0
19	965	7	10000	4	1	0	4	0
20	966	7	10000	4	1	0	4	0
20	967	7	10000	4	1	0	4	0
20	968	7	10000	4	1	0	4	0
19	969	7	10000	4	1	0	4	0
19	970	7	10000	4	1	0	4	0
19	971	7	10000	4	1	0	4	0
20	972	7	10000	4	1	0	4	0
19	973	7	10000	4	1	0	4	0
18	974	7	10000	4	1	0	4	0
17	975	7	10000	4	1	0	4	0
17	976	7	10000	4	1	0	4	0
17	977	7	10000	4	1	0	4	0
17	978	7	10000	4	1	0	4	0
18	979	7	10000	4	1	0	4	0
18	980	7	10000	4	1	0	4	0
18	981	7	10000	4	1	0	4	0
15	982	7	10000	4	1	0	4	0
14	983	7	10000	4	1	0	4	0
15	984	7	10000	4	1	0	4	0
14	985	7	10000	4	1	0	4	0
15	986	7	10000	4	1	0	4	0
14	987	7	10000	4	1	0	4	0
15	988	7	10000	4	1	0	4	0
13	989	7	10000	4	1	0	4	0
13	990	7	10000	4	1	0	4	0
12	991	7	10000	4	1	0	4	0
15	992	7	10000	4	1	0	4	0
15	993	7	10000	4	1	0	4	0
15	994	7	10000	4	1	0	4	0
14	995	7	10000	4	1	0	4	0
13	996	7	10000	4	1	0	4	0
13	997	7	10000	4	1	0	4	0
12	998	7	10000	4	1	0	4	0
13	999	7	10000	4	1	0	4	0
14	1000	7	10000	4	1	0	4	0
18	2	7	10000	5	1	0	5	0
18	3	7	10000	5	1	0	5	0
18	4	7	10000	5	1	0	5	0
19	5	7	10000	5	1	0	5	0
18	6	7	10000	5	1	0	5	0
17	7	7	10000	5	1	0	5	0
17	8	7	10000	5	1	0	5	0
17	9	7	10000	5	1	0	5	0
18	10	7	10000	5	1	0	5	0
18	11	7	10000	5	1	0	5	0
18	12	7	10000	5	1	0	5	0
18	13	7	10000	5	1	0	5	0
18	14	7	10000	5	1	0	5	0
19	15	7	10000	5	1	0	5	0
20	16	7	10000	5	1	0	5	0
20	17	7	10000	5	1	0	5	0
20	18	7	10000	5	1	0	5	0
21	19	7	10000	5	1	0	5	0
22	20	7	10000	5	1	0	5	0
21	21	7	10000	5	1	0	5	0
20	22	7	10000	5	1	0	5	0
21	23	7	10000	5	1	0	5	0
23	24	7	10000	5	1	0	5	0
25	25	7	10000	5	1	0	5	0
24	26	7	10000	5	1	0	5	0
23	27	7	10000	5	1	0	5	0
25	28	7	10000	5	1	0	5	0
26	29	7	10000	5	1	0	5	0
27	30	7	10000	5	1	0	5	0
26	31	7	10000	5	1	0	5	0
27	32	7	10000	5	1	0	5	0
27	33	7	10000	5	1	0	5	0
26	34	7	10000	5	1	0	5	0
25	35	7	10000	5	1	0	5	0
28	36	7	10000	5	1	0	5	0
30	37	7	10000	5	1	0	5	0
30	38	7	10000	5	1	0	5	0
29	39	7	10000	5	1	0	5	0
28	40	7	10000	5	1	0	5	0
29	41	7	10000	5	1	0	5	0
31	42	7	10000	5	1	0	5	0
32	43	7	10000	5	1	0	5	0
31	44	7	10000	5	1	0	5	0
32	45	7	10000	5	1	0	5	0
31	46	7	10000	5	1	0	5	0
29	47	7	10000	5	1	0	5	0
31	48	7	10000	5	1	0	5	0
30	49	7	10000	5	1	0	5	0
29	50	7	10000	5	1	0	5	0
30	51	7	10000	5	1	0	5	0
30	52	7	10000	5	1	0	5	0
28	53	7	10000	5	1	0	5	0
27	54	7	10000	5	1	0	5	0
25	55	7	10000	5	1	0	5	0
26	56	7	10000	5	1	0	5	0
26	57	7	10000	5	1	0	5	0
24	58	7	10000	5	1	0	5	0
25	59	7	10000	5	1	0	5	0
25	60	7	10000	5	1	0	5	0
26	61	7	10000	5	1	0	5	0
26	62	7	10000	5	1	0	5	0
26	63	7	10000	5	1	0	5	0
26	64	7	10000	5	1	0	5	0
27	65	7	10000	5	1	0	5	0
27	66	7	10000	5	1	0	5	0
26	67	7	10000	5	1	0	5	0
25	68	7	10000	5	1	0	5	0
26	69	7	10000	5	1	0	5	0
28	70	7	10000	5	1	0	5	0
31	71	7	10000	5	1	0	5	0
31	72	7	10000	5	1	0	5	0
29	73	7	10000	5	1	0	5	0
28	74	7	10000	5	1	0	5	0
28	75	7	10000	5	1	0	5	0
33	76	7	10000	5	1	0	5	0
34	77	7	10000	5	1	0	5	0
34	78	7	10000	5	1	0	5	0
33	79	7	10000	5	1	0	5	0
33	80	7	10000	5	1	0	5	0
34	81	7	10000	5	1	0	5	0
33	82	7	10000	5	1	0	5	0
33	83	7	10000	5	1	0	5	0
33	84	7	10000	5	1	0	5	0
34	85	7	10000	5	1	0	5	0
33	86	7	10000	5	1	0	5	0
32	87	7	10000	5	1	0	5	0
32	88	7	10000	5	1	0	5	0
32	89	7	10000	5	1	0	5	0
33	90	7	10000	5	1	0	5	0
33	91	7	10000	5	1	0	5	0
33	92	7	10000	5	1	0	5	0
33	93	7	10000	5	1	0	5	0
32	94	7	10000	5	1	0	5	0
31	95	7	10000	5	1	0	5	0
32	96	7	10000	5	1	0	5	0
32	97	7	10000	5	1	0	5	0
31	98	7	10000	5	1	0	5	0
32	99	7	10000	5	1	0	5	0
32	100	7	10000	5	1	0	5	0
32	101	7	10000	5	1	0	5	0
32	102	7	10000	5	1	0	5	0
31	103	7	10000	5	1	0	5	0
31	104	7	10000	5	1	0	5	0
32	105	7	10000	5	1	0	5	0
29	106	7	10000	5	1	0	5	0
28	107	7	10000	5	1	0	5	0
28	108	7	10000	5	1	0	5	0
28	109	7	10000	5	1	0	5	0
29	110	7	10000	5	1	0	5	0
28	111	7	10000	5	1	0	5	0
29	112	7	10000	5	1	0	5	0
29	113	7	10000	5	1	0	5	0
28	114	7	10000	5	1	0	5	0
27	115	7	10000	5	1	0	5	0
28	116	7	10000	5	1	0	5	0
29	117	7	10000	5	1	0	5	0
27	118	7	10000	5	1	0	5	0
26	119	7	10000	5	1	0	5	0
25	120	7	10000	5	1	0	5	0
26	121	7	10000	5	1	0	5	0
26	122	7	10000	5	1	0	5	0
25	123	7	10000	5	1	0	5	0
25	124	7	10000	5	1	0	5	0
27	125	7	10000	5	1	0	5	0
25	126	7	10000	5	1	0	5	0
25	127	7	10000	5	1	0	5	0
25	128	7	10000	5	1	0	5	0
24	129	7	10000	5	1	0	5	0
23	130	7	10000	5	1	0	5	0
24	131	7	10000	5	1	0	5	0
24	132	7	10000	5	1	0	5	0
23	133	7	10000	5	1	0	5	0
23	134	7	10000	5	1	0	5	0
22	135	7	10000	5	1	0	5	0
23	136	7	10000	5	1	0	5	0
23	137	7	10000	5	1	0	5	0
23	138	7	10000	5	1	0	5	0
23	139	7	10000	5	1	0	5	0
23	140	7	10000	5	1	0	5	0
22	141	7	10000	5	1	0	5	0
21	142	7	10000	5	1	0	5	0
20	143	7	10000	5	1	0	5	0
20	144	7	10000	5	1	0	5	0
21	145	7	10000	5	1	0	5	0
19	146	7	10000	5	1	0	5	0
18	147	7	10000	5	1	0	5	0
19	148	7	10000	5	1	0	5	0
20	149	7	10000	5	1	0	5	0
22	150	7	10000	5	1	0	5	0
24	151	7	10000	5	1	0	5	0
24	152	7	10000	5	1	0	5	0
23	153	7	10000	5	1	0	5	0
22	154	7	10000	5	1	0	5	0
21	155	7	10000	5	1	0	5	0
23	156	7	10000	5	1	0	5	0
25	157	7	10000	5	1	0	5	0
27	158	7	10000	5	1	0	5	0
30	159	7	10000	5	1	0	5	0
35	160	7	10000	5	1	0	5	0
35	161	7	10000	5	1	0	5	0
36	162	7	10000	5	1	0	5	0
39	163	7	10000	5	1	0	5	0
42	164	7	10000	5	1	0	5	0
45	165	7	10000	5	1	0	5	0
42	166	7	10000	5	1	0	5	0
43	167	7	10000	5	1	0	5	0
43	168	7	10000	5	1	0	5	0
43	169	7	10000	5	1	0	5	0
44	170	7	10000	5	1	0	5	0
47	171	7	10000	5	1	0	5	0
50	172	7	10000	5	1	0	5	0
51	173	7	10000	5	1	0	5	0
51	174	7	10000	5	1	0	5	0
50	175	7	10000	5	1	0	5	0
50	176	7	10000	5	1	0	5	0
49	177	7	10000	5	1	0	5	0
51	178	7	10000	5	1	0	5	0
51	179	7	10000	5	1	0	5	0
50	180	7	10000	5	1	0	5	0
47	181	7	10000	5	1	0	5	0
45	182	7	10000	5	1	0	5	0
45	183	7	10000	5	1	0	5	0
43	184	7	10000	5	1	0	5	0
43	185	7	10000	5	1	0	5	0
42	186	7	10000	5	1	0	5	0
44	187	7	10000	5	1	0	5	0
44	188	7	10000	5	1	0	5	0
43	189	7	10000	5	1	0	5	0
45	190	7	10000	5	1	0	5	0
48	191	7	10000	5	1	0	5	0
49	192	7	10000	5	1	0	5	0
47	193	7	10000	5	1	0	5	0
45	194	7	10000	5	1	0	5	0
43	195	7	10000	5	1	0	5	0
44	196	7	10000	5	1	0	5	0
43	197	7	10000	5	1	0	5	0
41	198	7	10000	5	1	0	5	0
39	199	7	10000	5	1	0	5	0
37	200	7	10000	5	1	0	5	0
37	201	7	10000	5	1	0	5	0
37	202	7	10000	5	1	0	5	0
35	203	7	10000	5	1	0	5	0
35	204	7	10000	5	1	0	5	0
34	205	7	10000	5	1	0	5	0
32	206	7	10000	5	1	0	5	0
30	207	7	10000	5	1	0	5	0
30	208	7	10000	5	1	0	5	0
31	209	7	10000	5	1	0	5	0
32	210	7	10000	5	1	0	5	0
34	211	7	10000	5	1	0	5	0
33	212	7	10000	5	1	0	5	0
33	213	7	10000	5	1	0	5	0
32	214	7	10000	5	1	0	5	0
32	215	7	10000	5	1	0	5	0
34	216	7	10000	5	1	0	5	0
35	217	7	10000	5	1	0	5	0
35	218	7	10000	5	1	0	5	0
35	219	7	10000	5	1	0	5	0
34	220	7	10000	5	1	0	5	0
33	221	7	10000	5	1	0	5	0
33	222	7	10000	5	1	0	5	0
34	223	7	10000	5	1	0	5	0
35	224	7	10000	5	1	0	5	0
35	225	7	10000	5	1	0	5	0
32	226	7	10000	5	1	0	5	0
33	227	7	10000	5	1	0	5	0
34	228	7	10000	5	1	0	5	0
34	229	7	10000	5	1	0	5	0
33	230	7	10000	5	1	0	5	0
32	231	7	10000	5	1	0	5	0
32	232	7	10000	5	1	0	5	0
32	233	7	10000	5	1	0	5	0
32	234	7	10000	5	1	0	5	0
30	235	7	10000	5	1	0	5	0
31	236	7	10000	5	1	0	5	0
31	237	7	10000	5	1	0	5	0
30	238	7	10000	5	1	0	5	0
29	239	7	10000	5	1	0	5	0
28	240	7	10000	5	1	0	5	0
28	241	7	10000	5	1	0	5	0
27	242	7	10000	5	1	0	5	0
27	243	7	10000	5	1	0	5	0
28	244	7	10000	5	1	0	5	0
29	245	7	10000	5	1	0	5	0
28	246	7	10000	5	1	0	5	0
28	247	7	10000	5	1	0	5	0
27	248	7	10000	5	1	0	5	0
27	249	7	10000	5	1	0	5	0
27	250	7	10000	5	1	0	5	0
27	251	7	10000	5	1	0	5	0
27	252	7	10000	5	1	0	5	0
28	253	7	10000	5	1	0	5	0
27	254	7	10000	5	1	0	5	0
26	255	7	10000	5	1	0	5	0
27	256	7	10000	5	1	0	5	0
27	257	7	10000	5	1	0	5	0
27	258	7	10000	5	1	0	5	0
26	259	7	10000	5	1	0	5	0
26	260	7	10000	5	1	0	5	0
26	261	7	10000	5	1	0	5	0
27	262	7	10000	5	1	0	5	0
27	263	7	10000	5	1	0	5	0
26	264	7	10000	5	1	0	5	0
25	265	7	10000	5	1	0	5	0
23	266	7	10000	5	1	0	5	0
23	267	7	10000	5	1	0	5	0
23	268	7	10000	5	1	0	5	0
24	269	7	10000	5	1	0	5	0
24	270	7	10000	5	1	0	5	0
23	271	7	10000	5	1	0	5	0
23	272	7	10000	5	1	0	5	0
22	273	7	10000	5	1	0	5	0
25	274	7	10000	5	1	0	5	0
26	275	7	10000	5	1	0	5	0
29	276	7	10000	5	1	0	5	0
29	277	7	10000	5	1	0	5	0
27	278	7	10000	5	1	0	5	0
26	279	7	10000	5	1	0	5	0
26	280	7	10000	5	1	0	5	0
29	281	7	10000	5	1	0	5	0
30	282	7	10000	5	1	0	5	0
32	283	7	10000	5	1	0	5	0
31	284	7	10000	5	1	0	5	0
31	285	7	10000	5	1	0	5	0
28	286	7	10000	5	1	0	5	0
26	287	7	10000	5	1	0	5	0
25	288	7	10000	5	1	0	5	0
25	289	7	10000	5	1	0	5	0
25	290	7	10000	5	1	0	5	0
24	291	7	10000	5	1	0	5	0
25	292	7	10000	5	1	0	5	0
26	293	7	10000	5	1	0	5	0
26	294	7	10000	5	1	0	5	0
25	295	7	10000	5	1	0	5	0
26	296	7	10000	5	1	0	5	0
26	297	7	10000	5	1	0	5	0
24	298	7	10000	5	1	0	5	0
24	299	7	10000	5	1	0	5	0
24	300	7	10000	5	1	0	5	0
23	301	7	10000	5	1	0	5	0
23	302	7	10000	5	1	0	5	0
23	303	7	10000	5	1	0	5	0
23	304	7	10000	5	1	0	5	0
23	305	7	10000	5	1	0	5	0
21	306	7	10000	5	1	0	5	0
20	307	7	10000	5	1	0	5	0
20	308	7	10000	5	1	0	5	0
20	309	7	10000	5	1	0	5	0
20	310	7	10000	5	1	0	5	0
22	311	7	10000	5	1	0	5	0
24	312	7	10000	5	1	0	5	0
25	313	7	10000	5	1	0	5	0
25	314	7	10000	5	1	0	5	0
24	315	7	10000	5	1	0	5	0
26	316	7	10000	5	1	0	5	0
25	317	7	10000	5	1	0	5	0
26	318	7	10000	5	1	0	5	0
23	319	7	10000	5	1	0	5	0
22	320	7	10000	5	1	0	5	0
22	321	7	10000	5	1	0	5	0
21	322	7	10000	5	1	0	5	0
21	323	7	10000	5	1	0	5	0
20	324	7	10000	5	1	0	5	0
20	325	7	10000	5	1	0	5	0
19	326	7	10000	5	1	0	5	0
17	327	7	10000	5	1	0	5	0
20	328	7	10000	5	1	0	5	0
20	329	7	10000	5	1	0	5	0
19	330	7	10000	5	1	0	5	0
19	331	7	10000	5	1	0	5	0
19	332	7	10000	5	1	0	5	0
19	333	7	10000	5	1	0	5	0
17	334	7	10000	5	1	0	5	0
17	335	7	10000	5	1	0	5	0
19	336	7	10000	5	1	0	5	0
20	337	7	10000	5	1	0	5	0
20	338	7	10000	5	1	0	5	0
20	339	7	10000	5	1	0	5	0
21	340	7	10000	5	1	0	5	0
24	341	7	10000	5	1	0	5	0
23	342	7	10000	5	1	0	5	0
23	343	7	10000	5	1	0	5	0
23	344	7	10000	5	1	0	5	0
24	345	7	10000	5	1	0	5	0
25	346	7	10000	5	1	0	5	0
24	347	7	10000	5	1	0	5	0
24	348	7	10000	5	1	0	5	0
26	349	7	10000	5	1	0	5	0
28	350	7	10000	5	1	0	5	0
29	351	7	10000	5	1	0	5	0
27	352	7	10000	5	1	0	5	0
28	353	7	10000	5	1	0	5	0
30	354	7	10000	5	1	0	5	0
30	355	7	10000	5	1	0	5	0
31	356	7	10000	5	1	0	5	0
31	357	7	10000	5	1	0	5	0
32	358	7	10000	5	1	0	5	0
31	359	7	10000	5	1	0	5	0
29	360	7	10000	5	1	0	5	0
30	361	7	10000	5	1	0	5	0
33	362	7	10000	5	1	0	5	0
38	363	7	10000	5	1	0	5	0
40	364	7	10000	5	1	0	5	0
40	365	7	10000	5	1	0	5	0
39	366	7	10000	5	1	0	5	0
40	367	7	10000	5	1	0	5	0
40	368	7	10000	5	1	0	5	0
39	369	7	10000	5	1	0	5	0
38	370	7	10000	5	1	0	5	0
37	371	7	10000	5	1	0	5	0
39	372	7	10000	5	1	0	5	0
42	373	7	10000	5	1	0	5	0
44	374	7	10000	5	1	0	5	0
43	375	7	10000	5	1	0	5	0
46	376	7	10000	5	1	0	5	0
45	377	7	10000	5	1	0	5	0
45	378	7	10000	5	1	0	5	0
44	379	7	10000	5	1	0	5	0
42	380	7	10000	5	1	0	5	0
41	381	7	10000	5	1	0	5	0
40	382	7	10000	5	1	0	5	0
38	383	7	10000	5	1	0	5	0
38	384	7	10000	5	1	0	5	0
38	385	7	10000	5	1	0	5	0
35	386	7	10000	5	1	0	5	0
35	387	7	10000	5	1	0	5	0
35	388	7	10000	5	1	0	5	0
35	389	7	10000	5	1	0	5	0
36	390	7	10000	5	1	0	5	0
36	391	7	10000	5	1	0	5	0
35	392	7	10000	5	1	0	5	0
33	393	7	10000	5	1	0	5	0
32	394	7	10000	5	1	0	5	0
30	395	7	10000	5	1	0	5	0
31	396	7	10000	5	1	0	5	0
32	397	7	10000	5	1	0	5	0
31	398	7	10000	5	1	0	5	0
30	399	7	10000	5	1	0	5	0
29	400	7	10000	5	1	0	5	0
27	401	7	10000	5	1	0	5	0
27	402	7	10000	5	1	0	5	0
26	403	7	10000	5	1	0	5	0
25	404	7	10000	5	1	0	5	0
25	405	7	10000	5	1	0	5	0
22	406	7	10000	5	1	0	5	0
22	407	7	10000	5	1	0	5	0
22	408	7	10000	5	1	0	5	0
21	409	7	10000	5	1	0	5	0
20	410	7	10000	5	1	0	5	0
21	411	7	10000	5	1	0	5	0
23	412	7	10000	5	1	0	5	0
22	413	7	10000	5	1	0	5	0
23	414	7	10000	5	1	0	5	0
25	415	7	10000	5	1	0	5	0
26	416	7	10000	5	1	0	5	0
26	417	7	10000	5	1	0	5	0
26	418	7	10000	5	1	0	5	0
27	419	7	10000	5	1	0	5	0
27	420	7	10000	5	1	0	5	0
26	421	7	10000	5	1	0	5	0
26	422	7	10000	5	1	0	5	0
26	423	7	10000	5	1	0	5	0
26	424	7	10000	5	1	0	5	0
26	425	7	10000	5	1	0	5	0
22	426	7	10000	5	1	0	5	0
21	427	7	10000	5	1	0	5	0
21	428	7	10000	5	1	0	5	0
20	429	7	10000	5	1	0	5	0
21	430	7	10000	5	1	0	5	0
20	431	7	10000	5	1	0	5	0
20	432	7	10000	5	1	0	5	0
20	433	7	10000	5	1	0	5	0
20	434	7	10000	5	1	0	5	0
20	435	7	10000	5	1	0	5	0
21	436	7	10000	5	1	0	5	0
23	437	7	10000	5	1	0	5	0
21	438	7	10000	5	1	0	5	0
20	439	7	10000	5	1	0	5	0
21	440	7	10000	5	1	0	5	0
21	441	7	10000	5	1	0	5	0
21	442	7	10000	5	1	0	5	0
23	443	7	10000	5	1	0	5	0
25	444	7	10000	5	1	0	5	0
25	445	7	10000	5	1	0	5	0
26	446	7	10000	5	1	0	5	0
27	447	7	10000	5	1	0	5	0
29	448	7	10000	5	1	0	5	0
28	449	7	10000	5	1	0	5	0
29	450	7	10000	5	1	0	5	0
30	451	7	10000	5	1	0	5	0
31	452	7	10000	5	1	0	5	0
33	453	7	10000	5	1	0	5	0
31	454	7	10000	5	1	0	5	0
31	455	7	10000	5	1	0	5	0
36	456	7	10000	5	1	0	5	0
38	457	7	10000	5	1	0	5	0
37	458	7	10000	5	1	0	5	0
36	459	7	10000	5	1	0	5	0
37	460	7	10000	5	1	0	5	0
38	461	7	10000	5	1	0	5	0
35	462	7	10000	5	1	0	5	0
35	463	7	10000	5	1	0	5	0
36	464	7	10000	5	1	0	5	0
38	465	7	10000	5	1	0	5	0
37	466	7	10000	5	1	0	5	0
35	467	7	10000	5	1	0	5	0
36	468	7	10000	5	1	0	5	0
37	469	7	10000	5	1	0	5	0
37	470	7	10000	5	1	0	5	0
36	471	7	10000	5	1	0	5	0
34	472	7	10000	5	1	0	5	0
33	473	7	10000	5	1	0	5	0
32	474	7	10000	5	1	0	5	0
31	475	7	10000	5	1	0	5	0
34	476	7	10000	5	1	0	5	0
33	477	7	10000	5	1	0	5	0
32	478	7	10000	5	1	0	5	0
31	479	7	10000	5	1	0	5	0
31	480	7	10000	5	1	0	5	0
32	481	7	10000	5	1	0	5	0
32	482	7	10000	5	1	0	5	0
32	483	7	10000	5	1	0	5	0
32	484	7	10000	5	1	0	5	0
33	485	7	10000	5	1	0	5	0
33	486	7	10000	5	1	0	5	0
32	487	7	10000	5	1	0	5	0
32	488	7	10000	5	1	0	5	0
33	489	7	10000	5	1	0	5	0
34	490	7	10000	5	1	0	5	0
33	491	7	10000	5	1	0	5	0
32	492	7	10000	5	1	0	5	0
31	493	7	10000	5	1	0	5	0
30	494	7	10000	5	1	0	5	0
28	495	7	10000	5	1	0	5	0
29	496	7	10000	5	1	0	5	0
28	497	7	10000	5	1	0	5	0
26	498	7	10000	5	1	0	5	0
26	499	7	10000	5	1	0	5	0
25	500	7	10000	5	1	0	5	0
24	501	7	10000	5	1	0	5	0
23	502	7	10000	5	1	0	5	1
23	503	7	10000	5	1	0	5	1
24	504	7	10000	5	1	0	5	1
24	505	7	10000	5	1	0	5	1
22	506	7	10000	5	1	0	5	1
23	507	7	10000	5	1	0	5	1
25	508	7	10000	5	1	0	5	1
26	509	7	10000	5	1	0	5	1
25	510	7	10000	5	1	0	5	1
25	511	7	10000	5	1	0	5	1
28	512	7	10000	5	1	0	5	1
30	513	7	10000	5	1	0	5	1
30	514	7	10000	5	1	0	5	1
28	515	7	10000	5	1	0	5	1
31	516	7	10000	5	1	0	5	1
32	517	7	10000	5	1	0	5	1
30	518	7	10000	5	1	0	5	1
29	519	7	10000	5	1	0	5	1
29	520	7	10000	5	1	0	5	1
30	521	7	10000	5	1	0	5	1
30	522	7	10000	5	1	0	5	1
29	523	7	10000	5	1	0	5	1
29	524	7	10000	5	1	0	5	1
30	525	7	10000	5	1	0	5	1
29	526	7	10000	5	1	0	5	1
28	527	7	10000	5	1	0	5	1
28	528	7	10000	5	1	0	5	1
28	529	7	10000	5	1	0	5	1
28	530	7	10000	5	1	0	5	1
27	531	7	10000	5	1	0	5	1
29	532	7	10000	5	1	0	5	1
29	533	7	10000	5	1	0	5	1
27	534	7	10000	5	1	0	5	1
26	535	7	10000	5	1	0	5	1
28	536	7	10000	5	1	0	5	1
28	537	7	10000	5	1	0	5	1
26	538	7	10000	5	1	0	5	1
25	539	7	10000	5	1	0	5	1
24	540	7	10000	5	1	0	5	1
25	541	7	10000	5	1	0	5	1
26	542	7	10000	5	1	0	5	1
26	543	7	10000	5	1	0	5	1
26	544	7	10000	5	1	0	5	1
27	545	7	10000	5	1	0	5	1
26	546	7	10000	5	1	0	5	1
26	547	7	10000	5	1	0	5	1
25	548	7	10000	5	1	0	5	1
25	549	7	10000	5	1	0	5	1
25	550	7	10000	5	1	0	5	1
25	551	7	10000	5	1	0	5	1
25	552	7	10000	5	1	0	5	0
24	553	7	10000	5	1	0	5	0
24	554	7	10000	5	1	0	5	0
23	555	7	10000	5	1	0	5	0
25	556	7	10000	5	1	0	5	0
24	557	7	10000	5	1	0	5	0
23	558	7	10000	5	1	0	5	0
22	559	7	10000	5	1	0	5	0
21	560	7	10000	5	1	0	5	0
20	561	7	10000	5	1	0	5	0
20	562	7	10000	5	1	0	5	0
20	563	7	10000	5	1	0	5	0
22	564	7	10000	5	1	0	5	0
24	565	7	10000	5	1	0	5	0
21	566	7	10000	5	1	0	5	0
20	567	7	10000	5	1	0	5	0
21	568	7	10000	5	1	0	5	0
22	569	7	10000	5	1	0	5	0
22	570	7	10000	5	1	0	5	0
22	571	7	10000	5	1	0	5	0
22	572	7	10000	5	1	0	5	0
21	573	7	10000	5	1	0	5	0
20	574	7	10000	5	1	0	5	0
21	575	7	10000	5	1	0	5	0
23	576	7	10000	5	1	0	5	0
23	577	7	10000	5	1	0	5	0
22	578	7	10000	5	1	0	5	0
22	579	7	10000	5	1	0	5	0
22	580	7	10000	5	1	0	5	0
24	581	7	10000	5	1	0	5	0
25	582	7	10000	5	1	0	5	0
29	583	7	10000	5	1	0	5	0
40	584	7	10000	5	1	0	5	0
49	585	7	10000	5	1	0	5	0
54	586	7	10000	5	1	0	5	0
56	587	7	10000	5	1	0	5	0
77	588	7	10000	5	1	0	5	0
92	589	7	10000	5	1	0	5	0
94	590	7	10000	5	1	0	5	0
106	591	7	10000	5	1	0	5	0
112	592	7	10000	5	1	0	5	0
126	593	7	10000	5	1	0	5	0
133	594	7	10000	5	1	0	5	0
144	595	7	10000	5	1	0	5	0
156	596	7	10000	5	1	0	5	0
163	597	7	10000	5	1	0	5	0
211	598	7	10000	5	1	0	5	0
227	599	7	10000	5	1	0	5	0
260	600	7	10000	5	1	0	5	0
289	601	7	10000	5	1	0	5	0
281	602	7	10000	5	1	0	5	0
275	603	7	10000	5	1	0	5	0
271	604	7	10000	5	1	0	5	0
268	605	7	10000	5	1	0	5	0
273	606	7	10000	5	1	0	5	0
273	607	7	10000	5	1	0	5	0
270	608	7	10000	5	1	0	5	0
270	609	7	10000	5	1	0	5	0
301	610	7	10000	5	1	0	5	0
326	611	7	10000	5	1	0	5	0
338	612	7	10000	5	1	0	5	0
354	613	7	10000	5	1	0	5	0
343	614	7	10000	5	1	0	5	0
351	615	7	10000	5	1	0	5	0
362	616	7	10000	5	1	0	5	0
365	617	7	10000	5	1	0	5	0
355	618	7	10000	5	1	0	5	0
344	619	7	10000	5	1	0	5	0
333	620	7	10000	5	1	0	5	0
318	621	7	10000	5	1	0	5	0
305	622	7	10000	5	1	0	5	0
299	623	7	10000	5	1	0	5	0
295	624	7	10000	5	1	0	5	0
295	625	7	10000	5	1	0	5	0
292	626	7	10000	5	1	0	5	0
287	627	7	10000	5	1	0	5	0
284	628	7	10000	5	1	0	5	0
279	629	7	10000	5	1	0	5	0
272	630	7	10000	5	1	0	5	0
267	631	7	10000	5	1	0	5	0
261	632	7	10000	5	1	0	5	0
249	633	7	10000	5	1	0	5	0
238	634	7	10000	5	1	0	5	0
227	635	7	10000	5	1	0	5	0
218	636	7	10000	5	1	0	5	0
210	637	7	10000	5	1	0	5	0
202	638	7	10000	5	1	0	5	0
195	639	7	10000	5	1	0	5	0
188	640	7	10000	5	1	0	5	0
181	641	7	10000	5	1	0	5	0
175	642	7	10000	5	1	0	5	0
170	643	7	10000	5	1	0	5	0
167	644	7	10000	5	1	0	5	0
163	645	7	10000	5	1	0	5	0
158	646	7	10000	5	1	0	5	0
154	647	7	10000	5	1	0	5	0
152	648	7	10000	5	1	0	5	0
150	649	7	10000	5	1	0	5	0
148	650	7	10000	5	1	0	5	0
148	651	7	10000	5	1	0	5	0
147	652	7	10000	5	1	0	5	0
145	653	7	10000	5	1	0	5	0
147	654	7	10000	5	1	0	5	0
148	655	7	10000	5	1	0	5	0
151	656	7	10000	5	1	0	5	0
151	657	7	10000	5	1	0	5	0
149	658	7	10000	5	1	0	5	0
146	659	7	10000	5	1	0	5	0
145	660	7	10000	5	1	0	5	0
143	661	7	10000	5	1	0	5	0
140	662	7	10000	5	1	0	5	0
134	663	7	10000	5	1	0	5	0
129	664	7	10000	5	1	0	5	0
126	665	7	10000	5	1	0	5	0
122	666	7	10000	5	1	0	5	0
119	667	7	10000	5	1	0	5	0
116	668	7	10000	5	1	0	5	0
115	669	7	10000	5	1	0	5	0
112	670	7	10000	5	1	0	5	0
109	671	7	10000	5	1	0	5	0
106	672	7	10000	5	1	0	5	0
105	673	7	10000	5	1	0	5	0
102	674	7	10000	5	1	0	5	0
100	675	7	10000	5	1	0	5	0
99	676	7	10000	5	1	0	5	0
98	677	7	10000	5	1	0	5	0
93	678	7	10000	5	1	0	5	0
91	679	7	10000	5	1	0	5	0
89	680	7	10000	5	1	0	5	0
89	681	7	10000	5	1	0	5	0
86	682	7	10000	5	1	0	5	0
82	683	7	10000	5	1	0	5	0
80	684	7	10000	5	1	0	5	0
79	685	7	10000	5	1	0	5	0
74	686	7	10000	5	1	0	5	0
70	687	7	10000	5	1	0	5	0
68	688	7	10000	5	1	0	5	0
66	689	7	10000	5	1	0	5	0
65	690	7	10000	5	1	0	5	0
63	691	7	10000	5	1	0	5	0
60	692	7	10000	5	1	0	5	0
57	693	7	10000	5	1	0	5	0
55	694	7	10000	5	1	0	5	0
53	695	7	10000	5	1	0	5	0
52	696	7	10000	5	1	0	5	0
51	697	7	10000	5	1	0	5	0
49	698	7	10000	5	1	0	5	0
47	699	7	10000	5	1	0	5	0
46	700	7	10000	5	1	0	5	0
43	701	7	10000	5	1	0	5	0
42	702	7	10000	5	1	0	5	0
42	703	7	10000	5	1	0	5	0
42	704	7	10000	5	1	0	5	0
42	705	7	10000	5	1	0	5	0
41	706	7	10000	5	1	0	5	0
40	707	7	10000	5	1	0	5	0
41	708	7	10000	5	1	0	5	0
40	709	7	10000	5	1	0	5	0
40	710	7	10000	5	1	0	5	0
40	711	7	10000	5	1	0	5	0
39	712	7	10000	5	1	0	5	0
38	713	7	10000	5	1	0	5	0
36	714	7	10000	5	1	0	5	0
35	715	7	10000	5	1	0	5	0
36	716	7	10000	5	1	0	5	0
37	717	7	10000	5	1	0	5	0
36	718	7	10000	5	1	0	5	0
36	719	7	10000	5	1	0	5	0
35	720	7	10000	5	1	0	5	0
33	721	7	10000	5	1	0	5	0
32	722	7	10000	5	1	0	5	0
35	723	7	10000	5	1	0	5	0
37	724	7	10000	5	1	0	5	0
41	725	7	10000	5	1	0	5	0
42	726	7	10000	5	1	0	5	0
44	727	7	10000	5	1	0	5	0
46	728	7	10000	5	1	0	5	0
44	729	7	10000	5	1	0	5	0
43	730	7	10000	5	1	0	5	0
43	731	7	10000	5	1	0	5	0
43	732	7	10000	5	1	0	5	0
42	733	7	10000	5	1	0	5	0
41	734	7	10000	5	1	0	5	0
38	735	7	10000	5	1	0	5	0
39	736	7	10000	5	1	0	5	0
39	737	7	10000	5	1	0	5	0
37	738	7	10000	5	1	0	5	0
36	739	7	10000	5	1	0	5	0
35	740	7	10000	5	1	0	5	0
34	741	7	10000	5	1	0	5	0
34	742	7	10000	5	1	0	5	0
34	743	7	10000	5	1	0	5	0
34	744	7	10000	5	1	0	5	0
34	745	7	10000	5	1	0	5	0
33	746	7	10000	5	1	0	5	0
30	747	7	10000	5	1	0	5	0
31	748	7	10000	5	1	0	5	0
31	749	7	10000	5	1	0	5	0
33	750	7	10000	5	1	0	5	0
35	751	7	10000	5	1	0	5	0
34	752	7	10000	5	1	0	5	0
34	753	7	10000	5	1	0	5	0
33	754	7	10000	5	1	0	5	0
32	755	7	10000	5	1	0	5	0
33	756	7	10000	5	1	0	5	0
33	757	7	10000	5	1	0	5	0
32	758	7	10000	5	1	0	5	0
31	759	7	10000	5	1	0	5	0
31	760	7	10000	5	1	0	5	0
31	761	7	10000	5	1	0	5	0
31	762	7	10000	5	1	0	5	0
29	763	7	10000	5	1	0	5	0
29	764	7	10000	5	1	0	5	0
29	765	7	10000	5	1	0	5	0
27	766	7	10000	5	1	0	5	0
25	767	7	10000	5	1	0	5	0
25	768	7	10000	5	1	0	5	0
27	769	7	10000	5	1	0	5	0
27	770	7	10000	5	1	0	5	0
26	771	7	10000	5	1	0	5	0
25	772	7	10000	5	1	0	5	0
25	773	7	10000	5	1	0	5	0
24	774	7	10000	5	1	0	5	0
22	775	7	10000	5	1	0	5	0
23	776	7	10000	5	1	0	5	0
24	777	7	10000	5	1	0	5	0
24	778	7	10000	5	1	0	5	0
23	779	7	10000	5	1	0	5	0
24	780	7	10000	5	1	0	5	0
24	781	7	10000	5	1	0	5	0
25	782	7	10000	5	1	0	5	0
25	783	7	10000	5	1	0	5	0
26	784	7	10000	5	1	0	5	0
27	785	7	10000	5	1	0	5	0
25	786	7	10000	5	1	0	5	0
24	787	7	10000	5	1	0	5	0
24	788	7	10000	5	1	0	5	0
24	789	7	10000	5	1	0	5	0
24	790	7	10000	5	1	0	5	0
24	791	7	10000	5	1	0	5	0
25	792	7	10000	5	1	0	5	0
24	793	7	10000	5	1	0	5	0
23	794	7	10000	5	1	0	5	0
22	795	7	10000	5	1	0	5	0
23	796	7	10000	5	1	0	5	0
