value	EMG	Stimulus	EMG_sensitivity	Total_Trial_Nr	practise	acq	probe_nr	Startle_Probe
110	2	0	10000	1	1	0	1	0
111	3	0	10000	1	1	0	1	0
112	4	0	10000	1	1	0	1	0
110	5	0	10000	1	1	0	1	0
106	6	0	10000	1	1	0	1	0
102	7	0	10000	1	1	0	1	0
100	8	0	10000	1	1	0	1	0
101	9	0	10000	1	1	0	1	0
104	10	0	10000	1	1	0	1	0
105	11	0	10000	1	1	0	1	0
104	12	0	10000	1	1	0	1	0
108	13	0	10000	1	1	0	1	0
128	14	0	10000	1	1	0	1	0
143	15	0	10000	1	1	0	1	0
146	16	0	10000	1	1	0	1	0
140	17	0	10000	1	1	0	1	0
140	18	0	10000	1	1	0	1	0
136	19	0	10000	1	1	0	1	0
133	20	0	10000	1	1	0	1	0
139	21	0	10000	1	1	0	1	0
148	22	0	10000	1	1	0	1	0
149	23	0	10000	1	1	0	1	0
145	24	0	10000	1	1	0	1	0
142	25	0	10000	1	1	0	1	0
141	26	0	10000	1	1	0	1	0
140	27	0	10000	1	1	0	1	0
143	28	0	10000	1	1	0	1	0
154	29	0	10000	1	1	0	1	0
162	30	0	10000	1	1	0	1	0
162	31	0	10000	1	1	0	1	0
161	32	0	10000	1	1	0	1	0
158	33	0	10000	1	1	0	1	0
154	34	0	10000	1	1	0	1	0
151	35	0	10000	1	1	0	1	0
147	36	0	10000	1	1	0	1	0
141	37	0	10000	1	1	0	1	0
145	38	0	10000	1	1	0	1	0
165	39	0	10000	1	1	0	1	0
188	40	0	10000	1	1	0	1	0
196	41	0	10000	1	1	0	1	0
196	42	0	10000	1	1	0	1	0
189	43	0	10000	1	1	0	1	0
182	44	0	10000	1	1	0	1	0
180	45	0	10000	1	1	0	1	0
180	46	0	10000	1	1	0	1	0
176	47	0	10000	1	1	0	1	0
177	48	0	10000	1	1	0	1	0
183	49	0	10000	1	1	0	1	0
186	50	0	10000	1	1	0	1	0
182	51	0	10000	1	1	0	1	0
175	52	0	10000	1	1	0	1	0
173	53	0	10000	1	1	0	1	0
179	54	0	10000	1	1	0	1	0
193	55	0	10000	1	1	0	1	0
198	56	0	10000	1	1	0	1	0
192	57	0	10000	1	1	0	1	0
194	58	0	10000	1	1	0	1	0
199	59	0	10000	1	1	0	1	0
198	60	0	10000	1	1	0	1	0
190	61	0	10000	1	1	0	1	0
185	62	0	10000	1	1	0	1	0
183	63	0	10000	1	1	0	1	0
182	64	0	10000	1	1	0	1	0
189	65	0	10000	1	1	0	1	0
199	66	0	10000	1	1	0	1	0
201	67	0	10000	1	1	0	1	0
199	68	0	10000	1	1	0	1	0
198	69	0	10000	1	1	0	1	0
202	70	0	10000	1	1	0	1	0
204	71	0	10000	1	1	0	1	0
198	72	0	10000	1	1	0	1	0
192	73	0	10000	1	1	0	1	0
192	74	0	10000	1	1	0	1	0
189	75	0	10000	1	1	0	1	0
183	76	0	10000	1	1	0	1	0
178	77	0	10000	1	1	0	1	0
177	78	0	10000	1	1	0	1	0
178	79	0	10000	1	1	0	1	0
178	80	0	10000	1	1	0	1	0
173	81	0	10000	1	1	0	1	0
165	82	0	10000	1	1	0	1	0
159	83	0	10000	1	1	0	1	0
154	84	0	10000	1	1	0	1	0
148	85	0	10000	1	1	0	1	0
146	86	0	10000	1	1	0	1	0
147	87	0	10000	1	1	0	1	0
143	88	0	10000	1	1	0	1	0
145	89	0	10000	1	1	0	1	0
148	90	0	10000	1	1	0	1	0
144	91	0	10000	1	1	0	1	0
142	92	0	10000	1	1	0	1	0
140	93	0	10000	1	1	0	1	0
135	94	0	10000	1	1	0	1	0
136	95	0	10000	1	1	0	1	0
132	96	0	10000	1	1	0	1	0
136	97	0	10000	1	1	0	1	0
141	98	0	10000	1	1	0	1	0
140	99	0	10000	1	1	0	1	0
142	100	0	10000	1	1	0	1	0
146	101	0	10000	1	1	0	1	0
145	102	0	10000	1	1	0	1	0
142	103	0	10000	1	1	0	1	0
143	104	0	10000	1	1	0	1	0
146	105	0	10000	1	1	0	1	0
144	106	0	10000	1	1	0	1	0
139	107	0	10000	1	1	0	1	0
141	108	0	10000	1	1	0	1	0
144	109	0	10000	1	1	0	1	0
141	110	0	10000	1	1	0	1	0
135	111	0	10000	1	1	0	1	0
131	112	0	10000	1	1	0	1	0
131	113	0	10000	1	1	0	1	0
138	114	0	10000	1	1	0	1	0
147	115	0	10000	1	1	0	1	0
150	116	0	10000	1	1	0	1	0
147	117	0	10000	1	1	0	1	0
141	118	0	10000	1	1	0	1	0
135	119	0	10000	1	1	0	1	0
135	120	0	10000	1	1	0	1	0
138	121	0	10000	1	1	0	1	0
137	122	0	10000	1	1	0	1	0
131	123	0	10000	1	1	0	1	0
126	124	0	10000	1	1	0	1	0
121	125	0	10000	1	1	0	1	0
123	126	0	10000	1	1	0	1	0
127	127	0	10000	1	1	0	1	0
127	128	0	10000	1	1	0	1	0
124	129	0	10000	1	1	0	1	0
122	130	0	10000	1	1	0	1	0
121	131	0	10000	1	1	0	1	0
119	132	0	10000	1	1	0	1	0
116	133	0	10000	1	1	0	1	0
116	134	0	10000	1	1	0	1	0
117	135	0	10000	1	1	0	1	0
120	136	0	10000	1	1	0	1	0
125	137	0	10000	1	1	0	1	0
125	138	0	10000	1	1	0	1	0
122	139	0	10000	1	1	0	1	0
121	140	0	10000	1	1	0	1	0
116	141	0	10000	1	1	0	1	0
114	142	0	10000	1	1	0	1	0
114	143	0	10000	1	1	0	1	0
112	144	0	10000	1	1	0	1	0
107	145	0	10000	1	1	0	1	0
103	146	0	10000	1	1	0	1	0
98	147	0	10000	1	1	0	1	0
94	148	0	10000	1	1	0	1	0
92	149	0	10000	1	1	0	1	0
89	150	0	10000	1	1	0	1	0
87	151	0	10000	1	1	0	1	0
84	152	0	10000	1	1	0	1	0
81	153	0	10000	1	1	0	1	0
80	154	0	10000	1	1	0	1	0
79	155	0	10000	1	1	0	1	0
78	156	0	10000	1	1	0	1	0
76	157	0	10000	1	1	0	1	0
72	158	0	10000	1	1	0	1	0
71	159	0	10000	1	1	0	1	0
75	160	0	10000	1	1	0	1	0
77	161	0	10000	1	1	0	1	0
78	162	0	10000	1	1	0	1	0
76	163	0	10000	1	1	0	1	0
73	164	0	10000	1	1	0	1	0
70	165	0	10000	1	1	0	1	0
69	166	0	10000	1	1	0	1	0
68	167	0	10000	1	1	0	1	0
70	168	0	10000	1	1	0	1	0
71	169	0	10000	1	1	0	1	0
69	170	0	10000	1	1	0	1	0
69	171	0	10000	1	1	0	1	0
67	172	0	10000	1	1	0	1	0
66	173	0	10000	1	1	0	1	0
66	174	0	10000	1	1	0	1	0
68	175	0	10000	1	1	0	1	0
69	176	0	10000	1	1	0	1	0
69	177	0	10000	1	1	0	1	0
68	178	0	10000	1	1	0	1	0
65	179	0	10000	1	1	0	1	0
63	180	0	10000	1	1	0	1	0
60	181	0	10000	1	1	0	1	0
60	182	0	10000	1	1	0	1	0
61	183	0	10000	1	1	0	1	0
61	184	0	10000	1	1	0	1	0
60	185	0	10000	1	1	0	1	0
57	186	0	10000	1	1	0	1	0
57	187	0	10000	1	1	0	1	0
62	188	0	10000	1	1	0	1	0
67	189	0	10000	1	1	0	1	0
67	190	0	10000	1	1	0	1	0
65	191	0	10000	1	1	0	1	0
65	192	0	10000	1	1	0	1	0
64	193	0	10000	1	1	0	1	0
63	194	0	10000	1	1	0	1	0
63	195	0	10000	1	1	0	1	0
65	196	0	10000	1	1	0	1	0
65	197	0	10000	1	1	0	1	0
64	198	0	10000	1	1	0	1	0
62	199	0	10000	1	1	0	1	0
60	200	0	10000	1	1	0	1	0
59	201	0	10000	1	1	0	1	0
59	202	0	10000	1	1	0	1	0
57	203	0	10000	1	1	0	1	0
58	204	0	10000	1	1	0	1	0
58	205	0	10000	1	1	0	1	0
56	206	0	10000	1	1	0	1	0
54	207	0	10000	1	1	0	1	0
55	208	0	10000	1	1	0	1	0
55	209	0	10000	1	1	0	1	0
53	210	0	10000	1	1	0	1	0
50	211	0	10000	1	1	0	1	0
48	212	0	10000	1	1	0	1	0
48	213	0	10000	1	1	0	1	0
50	214	0	10000	1	1	0	1	0
51	215	0	10000	1	1	0	1	0
52	216	0	10000	1	1	0	1	0
54	217	0	10000	1	1	0	1	0
52	218	0	10000	1	1	0	1	0
50	219	0	10000	1	1	0	1	0
54	220	0	10000	1	1	0	1	0
59	221	0	10000	1	1	0	1	0
64	222	0	10000	1	1	0	1	0
65	223	0	10000	1	1	0	1	0
66	224	0	10000	1	1	0	1	0
65	225	0	10000	1	1	0	1	0
65	226	0	10000	1	1	0	1	0
64	227	0	10000	1	1	0	1	0
63	228	0	10000	1	1	0	1	0
64	229	0	10000	1	1	0	1	0
62	230	0	10000	1	1	0	1	0
63	231	0	10000	1	1	0	1	0
62	232	0	10000	1	1	0	1	0
60	233	0	10000	1	1	0	1	0
59	234	0	10000	1	1	0	1	0
60	235	0	10000	1	1	0	1	0
63	236	0	10000	1	1	0	1	0
63	237	0	10000	1	1	0	1	0
60	238	0	10000	1	1	0	1	0
58	239	0	10000	1	1	0	1	0
59	240	0	10000	1	1	0	1	0
60	241	0	10000	1	1	0	1	0
62	242	0	10000	1	1	0	1	0
59	243	0	10000	1	1	0	1	0
56	244	0	10000	1	1	0	1	0
56	245	0	10000	1	1	0	1	0
56	246	0	10000	1	1	0	1	0
57	247	0	10000	1	1	0	1	0
59	248	0	10000	1	1	0	1	0
60	249	0	10000	1	1	0	1	0
60	250	0	10000	1	1	0	1	0
59	251	0	10000	1	1	0	1	0
60	252	0	10000	1	1	0	1	0
60	253	0	10000	1	1	0	1	0
60	254	0	10000	1	1	0	1	0
61	255	0	10000	1	1	0	1	0
64	256	0	10000	1	1	0	1	0
63	257	0	10000	1	1	0	1	0
60	258	0	10000	1	1	0	1	0
61	259	0	10000	1	1	0	1	0
63	260	0	10000	1	1	0	1	0
61	261	0	10000	1	1	0	1	0
65	262	0	10000	1	1	0	1	0
75	263	0	10000	1	1	0	1	0
88	264	0	10000	1	1	0	1	0
100	265	0	10000	1	1	0	1	0
106	266	0	10000	1	1	0	1	0
110	267	0	10000	1	1	0	1	0
113	268	0	10000	1	1	0	1	0
114	269	0	10000	1	1	0	1	0
112	270	0	10000	1	1	0	1	0
110	271	0	10000	1	1	0	1	0
105	272	0	10000	1	1	0	1	0
103	273	0	10000	1	1	0	1	0
104	274	0	10000	1	1	0	1	0
109	275	0	10000	1	1	0	1	0
112	276	0	10000	1	1	0	1	0
111	277	0	10000	1	1	0	1	0
107	278	0	10000	1	1	0	1	0
107	279	0	10000	1	1	0	1	0
109	280	0	10000	1	1	0	1	0
115	281	0	10000	1	1	0	1	0
123	282	0	10000	1	1	0	1	0
128	283	0	10000	1	1	0	1	0
129	284	0	10000	1	1	0	1	0
124	285	0	10000	1	1	0	1	0
123	286	0	10000	1	1	0	1	0
117	287	0	10000	1	1	0	1	0
116	288	0	10000	1	1	0	1	0
113	289	0	10000	1	1	0	1	0
116	290	0	10000	1	1	0	1	0
121	291	0	10000	1	1	0	1	0
127	292	0	10000	1	1	0	1	0
125	293	0	10000	1	1	0	1	0
130	294	0	10000	1	1	0	1	0
140	295	0	10000	1	1	0	1	0
147	296	0	10000	1	1	0	1	0
155	297	0	10000	1	1	0	1	0
161	298	0	10000	1	1	0	1	0
162	299	0	10000	1	1	0	1	0
160	300	0	10000	1	1	0	1	0
157	301	0	10000	1	1	0	1	0
152	302	0	10000	1	1	0	1	0
148	303	0	10000	1	1	0	1	0
156	304	0	10000	1	1	0	1	0
165	305	0	10000	1	1	0	1	0
165	306	0	10000	1	1	0	1	0
158	307	0	10000	1	1	0	1	0
157	308	0	10000	1	1	0	1	0
158	309	0	10000	1	1	0	1	0
155	310	0	10000	1	1	0	1	0
154	311	0	10000	1	1	0	1	0
161	312	0	10000	1	1	0	1	0
162	313	0	10000	1	1	0	1	0
157	314	0	10000	1	1	0	1	0
150	315	0	10000	1	1	0	1	0
148	316	0	10000	1	1	0	1	0
143	317	0	10000	1	1	0	1	0
137	318	0	10000	1	1	0	1	0
131	319	0	10000	1	1	0	1	0
131	320	0	10000	1	1	0	1	0
134	321	0	10000	1	1	0	1	0
137	322	0	10000	1	1	0	1	0
139	323	0	10000	1	1	0	1	0
138	324	0	10000	1	1	0	1	0
133	325	0	10000	1	1	0	1	0
132	326	0	10000	1	1	0	1	0
134	327	0	10000	1	1	0	1	0
142	328	0	10000	1	1	0	1	0
151	329	0	10000	1	1	0	1	0
153	330	0	10000	1	1	0	1	0
149	331	0	10000	1	1	0	1	0
148	332	0	10000	1	1	0	1	0
144	333	0	10000	1	1	0	1	0
139	334	0	10000	1	1	0	1	0
135	335	0	10000	1	1	0	1	0
144	336	0	10000	1	1	0	1	0
161	337	0	10000	1	1	0	1	0
162	338	0	10000	1	1	0	1	0
166	339	0	10000	1	1	0	1	0
183	340	0	10000	1	1	0	1	0
196	341	0	10000	1	1	0	1	0
196	342	0	10000	1	1	0	1	0
200	343	0	10000	1	1	0	1	0
209	344	0	10000	1	1	0	1	0
205	345	0	10000	1	1	0	1	0
212	346	0	10000	1	1	0	1	0
225	347	0	10000	1	1	0	1	0
233	348	0	10000	1	1	0	1	0
227	349	0	10000	1	1	0	1	0
217	350	0	10000	1	1	0	1	0
210	351	0	10000	1	1	0	1	0
209	352	0	10000	1	1	0	1	0
204	353	0	10000	1	1	0	1	0
198	354	0	10000	1	1	0	1	0
196	355	0	10000	1	1	0	1	0
192	356	0	10000	1	1	0	1	0
191	357	0	10000	1	1	0	1	0
189	358	0	10000	1	1	0	1	0
185	359	0	10000	1	1	0	1	0
202	360	0	10000	1	1	0	1	0
223	361	0	10000	1	1	0	1	0
222	362	0	10000	1	1	0	1	0
231	363	0	10000	1	1	0	1	0
249	364	0	10000	1	1	0	1	0
259	365	0	10000	1	1	0	1	0
261	366	0	10000	1	1	0	1	0
252	367	0	10000	1	1	0	1	0
249	368	0	10000	1	1	0	1	0
240	369	0	10000	1	1	0	1	0
233	370	0	10000	1	1	0	1	0
225	371	0	10000	1	1	0	1	0
229	372	0	10000	1	1	0	1	0
237	373	0	10000	1	1	0	1	0
237	374	0	10000	1	1	0	1	0
236	375	0	10000	1	1	0	1	0
233	376	0	10000	1	1	0	1	0
233	377	0	10000	1	1	0	1	0
233	378	0	10000	1	1	0	1	0
227	379	0	10000	1	1	0	1	0
225	380	0	10000	1	1	0	1	0
225	381	0	10000	1	1	0	1	0
222	382	0	10000	1	1	0	1	0
214	383	0	10000	1	1	0	1	0
205	384	0	10000	1	1	0	1	0
195	385	0	10000	1	1	0	1	0
187	386	0	10000	1	1	0	1	0
178	387	0	10000	1	1	0	1	0
172	388	0	10000	1	1	0	1	0
168	389	0	10000	1	1	0	1	0
169	390	0	10000	1	1	0	1	0
179	391	0	10000	1	1	0	1	0
188	392	0	10000	1	1	0	1	0
193	393	0	10000	1	1	0	1	0
189	394	0	10000	1	1	0	1	0
194	395	0	10000	1	1	0	1	0
208	396	0	10000	1	1	0	1	0
214	397	0	10000	1	1	0	1	0
211	398	0	10000	1	1	0	1	0
209	399	0	10000	1	1	0	1	0
212	400	0	10000	1	1	0	1	0
211	401	0	10000	1	1	0	1	0
206	402	0	10000	1	1	0	1	0
198	403	0	10000	1	1	0	1	0
191	404	0	10000	1	1	0	1	0
185	405	0	10000	1	1	0	1	0
179	406	0	10000	1	1	0	1	0
173	407	0	10000	1	1	0	1	0
169	408	0	10000	1	1	0	1	0
166	409	0	10000	1	1	0	1	0
159	410	0	10000	1	1	0	1	0
152	411	0	10000	1	1	0	1	0
146	412	0	10000	1	1	0	1	0
140	413	0	10000	1	1	0	1	0
134	414	0	10000	1	1	0	1	0
134	415	0	10000	1	1	0	1	0
142	416	0	10000	1	1	0	1	0
146	417	0	10000	1	1	0	1	0
140	418	0	10000	1	1	0	1	0
134	419	0	10000	1	1	0	1	0
130	420	0	10000	1	1	0	1	0
125	421	0	10000	1	1	0	1	0
123	422	0	10000	1	1	0	1	0
119	423	0	10000	1	1	0	1	0
115	424	0	10000	1	1	0	1	0
117	425	0	10000	1	1	0	1	0
127	426	0	10000	1	1	0	1	0
133	427	0	10000	1	1	0	1	0
137	428	0	10000	1	1	0	1	0
134	429	0	10000	1	1	0	1	0
128	430	0	10000	1	1	0	1	0
132	431	0	10000	1	1	0	1	0
137	432	0	10000	1	1	0	1	0
135	433	0	10000	1	1	0	1	0
140	434	0	10000	1	1	0	1	0
145	435	0	10000	1	1	0	1	0
145	436	0	10000	1	1	0	1	0
143	437	0	10000	1	1	0	1	0
136	438	0	10000	1	1	0	1	0
130	439	0	10000	1	1	0	1	0
127	440	0	10000	1	1	0	1	0
123	441	0	10000	1	1	0	1	0
121	442	0	10000	1	1	0	1	0
121	443	0	10000	1	1	0	1	0
120	444	0	10000	1	1	0	1	0
120	445	0	10000	1	1	0	1	0
120	446	0	10000	1	1	0	1	0
120	447	0	10000	1	1	0	1	0
121	448	0	10000	1	1	0	1	0
121	449	0	10000	1	1	0	1	0
119	450	0	10000	1	1	0	1	0
117	451	0	10000	1	1	0	1	0
113	452	0	10000	1	1	0	1	0
109	453	0	10000	1	1	0	1	0
107	454	0	10000	1	1	0	1	0
106	455	0	10000	1	1	0	1	0
106	456	0	10000	1	1	0	1	0
108	457	0	10000	1	1	0	1	0
106	458	0	10000	1	1	0	1	0
112	459	0	10000	1	1	0	1	0
114	460	0	10000	1	1	0	1	0
109	461	0	10000	1	1	0	1	0
106	462	0	10000	1	1	0	1	0
104	463	0	10000	1	1	0	1	0
106	464	0	10000	1	1	0	1	0
113	465	0	10000	1	1	0	1	0
122	466	0	10000	1	1	0	1	0
124	467	0	10000	1	1	0	1	0
124	468	0	10000	1	1	0	1	0
127	469	0	10000	1	1	0	1	0
124	470	0	10000	1	1	0	1	0
121	471	0	10000	1	1	0	1	0
121	472	0	10000	1	1	0	1	0
120	473	0	10000	1	1	0	1	0
116	474	0	10000	1	1	0	1	0
112	475	0	10000	1	1	0	1	0
110	476	0	10000	1	1	0	1	0
110	477	0	10000	1	1	0	1	0
108	478	0	10000	1	1	0	1	0
106	479	0	10000	1	1	0	1	0
105	480	0	10000	1	1	0	1	0
104	481	0	10000	1	1	0	1	0
103	482	0	10000	1	1	0	1	0
103	483	0	10000	1	1	0	1	0
102	484	0	10000	1	1	0	1	0
101	485	0	10000	1	1	0	1	0
98	486	0	10000	1	1	0	1	0
96	487	0	10000	1	1	0	1	0
100	488	0	10000	1	1	0	1	0
108	489	0	10000	1	1	0	1	0
105	490	0	10000	1	1	0	1	0
105	491	0	10000	1	1	0	1	0
107	492	0	10000	1	1	0	1	0
109	493	0	10000	1	1	0	1	0
108	494	0	10000	1	1	0	1	0
104	495	0	10000	1	1	0	1	0
101	496	0	10000	1	1	0	1	0
102	497	0	10000	1	1	0	1	0
101	498	0	10000	1	1	0	1	0
97	499	0	10000	1	1	0	1	0
94	500	0	10000	1	1	0	1	0
94	501	0	10000	1	1	0	1	0
99	535	0	10000	1	1	0	1	1
100	536	0	10000	1	1	0	1	1
97	537	0	10000	1	1	0	1	1
93	538	0	10000	1	1	0	1	1
89	539	0	10000	1	1	0	1	1
87	540	0	10000	1	1	0	1	1
90	541	0	10000	1	1	0	1	1
91	542	0	10000	1	1	0	1	1
92	543	0	10000	1	1	0	1	1
103	544	0	10000	1	1	0	1	1
111	545	0	10000	1	1	0	1	1
115	546	0	10000	1	1	0	1	1
116	547	0	10000	1	1	0	1	1
115	548	0	10000	1	1	0	1	1
113	549	0	10000	1	1	0	1	1
111	550	0	10000	1	1	0	1	1
107	551	0	10000	1	1	0	1	1
103	552	0	10000	1	1	0	1	1
106	553	0	10000	1	1	0	1	1
107	554	0	10000	1	1	0	1	1
107	555	0	10000	1	1	0	1	1
104	556	0	10000	1	1	0	1	1
100	557	0	10000	1	1	0	1	1
96	558	0	10000	1	1	0	1	1
93	559	0	10000	1	1	0	1	1
91	560	0	10000	1	1	0	1	1
91	561	0	10000	1	1	0	1	1
91	562	0	10000	1	1	0	1	1
89	563	0	10000	1	1	0	1	1
91	564	0	10000	1	1	0	1	1
92	565	0	10000	1	1	0	1	1
94	566	0	10000	1	1	0	1	1
97	567	0	10000	1	1	0	1	1
97	568	0	10000	1	1	0	1	1
97	569	0	10000	1	1	0	1	1
98	570	0	10000	1	1	0	1	1
101	540	0	10000	1	1	0	1	1
106	541	0	10000	1	1	0	1	1
109	542	0	10000	1	1	0	1	1
105	543	0	10000	1	1	0	1	1
109	542	0	10000	1	1	0	1	1
112	543	0	10000	1	1	0	1	1
116	544	0	10000	1	1	0	1	1
116	545	0	10000	1	1	0	1	1
113	546	0	10000	1	1	0	1	1
108	547	0	10000	1	1	0	1	1
109	548	0	10000	1	1	0	1	1
110	549	0	10000	1	1	0	1	1
111	550	0	10000	1	1	0	1	1
113	551	0	10000	1	1	0	1	1
119	552	0	10000	1	1	0	1	0
126	553	0	10000	1	1	0	1	0
129	554	0	10000	1	1	0	1	0
132	555	0	10000	1	1	0	1	0
139	556	0	10000	1	1	0	1	0
148	557	0	10000	1	1	0	1	0
155	558	0	10000	1	1	0	1	0
158	559	0	10000	1	1	0	1	0
161	560	0	10000	1	1	0	1	0
162	561	0	10000	1	1	0	1	0
163	562	0	10000	1	1	0	1	0
160	563	0	10000	1	1	0	1	0
158	564	0	10000	1	1	0	1	0
155	565	0	10000	1	1	0	1	0
153	566	0	10000	1	1	0	1	0
150	567	0	10000	1	1	0	1	0
148	568	0	10000	1	1	0	1	0
146	569	0	10000	1	1	0	1	0
142	570	0	10000	1	1	0	1	0
137	571	0	10000	1	1	0	1	0
131	572	0	10000	1	1	0	1	0
127	573	0	10000	1	1	0	1	0
124	574	0	10000	1	1	0	1	0
122	575	0	10000	1	1	0	1	0
125	576	0	10000	1	1	0	1	0
128	577	0	10000	1	1	0	1	0
127	578	0	10000	1	1	0	1	0
126	579	0	10000	1	1	0	1	0
126	580	0	10000	1	1	0	1	0
126	581	0	10000	1	1	0	1	0
128	582	0	10000	1	1	0	1	0
124	583	0	10000	1	1	0	1	0
120	584	0	10000	1	1	0	1	0
117	585	0	10000	1	1	0	1	0
115	586	0	10000	1	1	0	1	0
115	587	0	10000	1	1	0	1	0
117	588	0	10000	1	1	0	1	0
119	589	0	10000	1	1	0	1	0
122	590	0	10000	1	1	0	1	0
129	591	0	10000	1	1	0	1	0
135	592	0	10000	1	1	0	1	0
138	593	0	10000	1	1	0	1	0
137	594	0	10000	1	1	0	1	0
135	595	0	10000	1	1	0	1	0
134	596	0	10000	1	1	0	1	0
140	597	0	10000	1	1	0	1	0
147	598	0	10000	1	1	0	1	0
152	599	0	10000	1	1	0	1	0
156	600	0	10000	1	1	0	1	0
153	601	0	10000	1	1	0	1	0
150	602	0	10000	1	1	0	1	0
146	603	0	10000	1	1	0	1	0
152	604	0	10000	1	1	0	1	0
161	605	0	10000	1	1	0	1	0
166	606	0	10000	1	1	0	1	0
170	607	0	10000	1	1	0	1	0
169	608	0	10000	1	1	0	1	0
163	609	0	10000	1	1	0	1	0
156	610	0	10000	1	1	0	1	0
151	611	0	10000	1	1	0	1	0
145	612	0	10000	1	1	0	1	0
147	613	0	10000	1	1	0	1	0
148	614	0	10000	1	1	0	1	0
146	615	0	10000	1	1	0	1	0
142	616	0	10000	1	1	0	1	0
146	617	0	10000	1	1	0	1	0
147	618	0	10000	1	1	0	1	0
150	619	0	10000	1	1	0	1	0
156	620	0	10000	1	1	0	1	0
158	621	0	10000	1	1	0	1	0
163	622	0	10000	1	1	0	1	0
169	623	0	10000	1	1	0	1	0
175	624	0	10000	1	1	0	1	0
188	625	0	10000	1	1	0	1	0
206	626	0	10000	1	1	0	1	0
218	627	0	10000	1	1	0	1	0
240	628	0	10000	1	1	0	1	0
252	629	0	10000	1	1	0	1	0
256	630	0	10000	1	1	0	1	0
256	631	0	10000	1	1	0	1	0
265	632	0	10000	1	1	0	1	0
287	633	0	10000	1	1	0	1	0
288	634	0	10000	1	1	0	1	0
314	635	0	10000	1	1	0	1	0
333	636	0	10000	1	1	0	1	0
348	637	0	10000	1	1	0	1	0
351	638	0	10000	1	1	0	1	0
402	639	0	10000	1	1	0	1	0
435	640	0	10000	1	1	0	1	0
432	641	0	10000	1	1	0	1	0
453	642	0	10000	1	1	0	1	0
478	643	0	10000	1	1	0	1	0
475	644	0	10000	1	1	0	1	0
506	645	0	10000	1	1	0	1	0
519	646	0	10000	1	1	0	1	0
514	647	0	10000	1	1	0	1	0
547	648	0	10000	1	1	0	1	0
605	649	0	10000	1	1	0	1	0
648	650	0	10000	1	1	0	1	0
629	651	0	10000	1	1	0	1	0
609	652	0	10000	1	1	0	1	0
594	653	0	10000	1	1	0	1	0
613	654	0	10000	1	1	0	1	0
661	655	0	10000	1	1	0	1	0
687	656	0	10000	1	1	0	1	0
667	657	0	10000	1	1	0	1	0
676	658	0	10000	1	1	0	1	0
708	659	0	10000	1	1	0	1	0
731	660	0	10000	1	1	0	1	0
730	661	0	10000	1	1	0	1	0
746	662	0	10000	1	1	0	1	0
733	663	0	10000	1	1	0	1	0
754	664	0	10000	1	1	0	1	0
769	665	0	10000	1	1	0	1	0
773	666	0	10000	1	1	0	1	0
757	667	0	10000	1	1	0	1	0
729	668	0	10000	1	1	0	1	0
697	669	0	10000	1	1	0	1	0
668	670	0	10000	1	1	0	1	0
648	671	0	10000	1	1	0	1	0
629	672	0	10000	1	1	0	1	0
602	673	0	10000	1	1	0	1	0
575	674	0	10000	1	1	0	1	0
552	675	0	10000	1	1	0	1	0
527	676	0	10000	1	1	0	1	0
512	677	0	10000	1	1	0	1	0
503	678	0	10000	1	1	0	1	0
485	679	0	10000	1	1	0	1	0
470	680	0	10000	1	1	0	1	0
459	681	0	10000	1	1	0	1	0
440	682	0	10000	1	1	0	1	0
427	683	0	10000	1	1	0	1	0
429	684	0	10000	1	1	0	1	0
434	685	0	10000	1	1	0	1	0
423	686	0	10000	1	1	0	1	0
410	687	0	10000	1	1	0	1	0
397	688	0	10000	1	1	0	1	0
381	689	0	10000	1	1	0	1	0
375	690	0	10000	1	1	0	1	0
369	691	0	10000	1	1	0	1	0
363	692	0	10000	1	1	0	1	0
370	693	0	10000	1	1	0	1	0
390	694	0	10000	1	1	0	1	0
395	695	0	10000	1	1	0	1	0
387	696	0	10000	1	1	0	1	0
373	697	0	10000	1	1	0	1	0
362	698	0	10000	1	1	0	1	0
360	699	0	10000	1	1	0	1	0
365	700	0	10000	1	1	0	1	0
371	701	0	10000	1	1	0	1	0
370	702	0	10000	1	1	0	1	0
369	703	0	10000	1	1	0	1	0
366	704	0	10000	1	1	0	1	0
371	705	0	10000	1	1	0	1	0
387	706	0	10000	1	1	0	1	0
401	707	0	10000	1	1	0	1	0
410	708	0	10000	1	1	0	1	0
411	709	0	10000	1	1	0	1	0
405	710	0	10000	1	1	0	1	0
402	711	0	10000	1	1	0	1	0
405	712	0	10000	1	1	0	1	0
403	713	0	10000	1	1	0	1	0
393	714	0	10000	1	1	0	1	0
383	715	0	10000	1	1	0	1	0
371	716	0	10000	1	1	0	1	0
366	717	0	10000	1	1	0	1	0
356	718	0	10000	1	1	0	1	0
346	719	0	10000	1	1	0	1	0
335	720	0	10000	1	1	0	1	0
320	721	0	10000	1	1	0	1	0
306	722	0	10000	1	1	0	1	0
293	723	0	10000	1	1	0	1	0
281	724	0	10000	1	1	0	1	0
283	725	0	10000	1	1	0	1	0
289	726	0	10000	1	1	0	1	0
286	727	0	10000	1	1	0	1	0
282	728	0	10000	1	1	0	1	0
290	729	0	10000	1	1	0	1	0
306	730	0	10000	1	1	0	1	0
315	731	0	10000	1	1	0	1	0
314	732	0	10000	1	1	0	1	0
319	733	0	10000	1	1	0	1	0
334	734	0	10000	1	1	0	1	0
350	735	0	10000	1	1	0	1	0
360	736	0	10000	1	1	0	1	0
366	737	0	10000	1	1	0	1	0
365	738	0	10000	1	1	0	1	0
367	739	0	10000	1	1	0	1	0
372	740	0	10000	1	1	0	1	0
368	741	0	10000	1	1	0	1	0
366	742	0	10000	1	1	0	1	0
379	743	0	10000	1	1	0	1	0
397	744	0	10000	1	1	0	1	0
410	745	0	10000	1	1	0	1	0
421	746	0	10000	1	1	0	1	0
428	747	0	10000	1	1	0	1	0
434	748	0	10000	1	1	0	1	0
444	749	0	10000	1	1	0	1	0
460	750	0	10000	1	1	0	1	0
487	751	0	10000	1	1	0	1	0
500	752	0	10000	1	1	0	1	0
506	753	0	10000	1	1	0	1	0
510	754	0	10000	1	1	0	1	0
507	755	0	10000	1	1	0	1	0
499	756	0	10000	1	1	0	1	0
484	757	0	10000	1	1	0	1	0
478	758	0	10000	1	1	0	1	0
486	759	0	10000	1	1	0	1	0
484	760	0	10000	1	1	0	1	0
477	761	0	10000	1	1	0	1	0
472	762	0	10000	1	1	0	1	0
459	763	0	10000	1	1	0	1	0
442	764	0	10000	1	1	0	1	0
423	765	0	10000	1	1	0	1	0
410	766	0	10000	1	1	0	1	0
399	767	0	10000	1	1	0	1	0
396	768	0	10000	1	1	0	1	0
393	769	0	10000	1	1	0	1	0
392	770	0	10000	1	1	0	1	0
395	771	0	10000	1	1	0	1	0
397	772	0	10000	1	1	0	1	0
395	773	0	10000	1	1	0	1	0
392	774	0	10000	1	1	0	1	0
389	775	0	10000	1	1	0	1	0
375	776	0	10000	1	1	0	1	0
364	777	0	10000	1	1	0	1	0
357	778	0	10000	1	1	0	1	0
350	779	0	10000	1	1	0	1	0
343	780	0	10000	1	1	0	1	0
339	781	0	10000	1	1	0	1	0
338	782	0	10000	1	1	0	1	0
337	783	0	10000	1	1	0	1	0
333	784	0	10000	1	1	0	1	0
328	785	0	10000	1	1	0	1	0
319	786	0	10000	1	1	0	1	0
304	787	0	10000	1	1	0	1	0
291	788	0	10000	1	1	0	1	0
284	789	0	10000	1	1	0	1	0
291	790	0	10000	1	1	0	1	0
300	791	0	10000	1	1	0	1	0
291	792	0	10000	1	1	0	1	0
280	793	0	10000	1	1	0	1	0
269	794	0	10000	1	1	0	1	0
261	795	0	10000	1	1	0	1	0
261	796	0	10000	1	1	0	1	0
273	797	0	10000	1	1	0	1	0
279	798	0	10000	1	1	0	1	0
276	799	0	10000	1	1	0	1	0
268	800	0	10000	1	1	0	1	0
256	801	0	10000	1	1	0	1	0
248	802	0	10000	1	1	0	1	0
239	803	0	10000	1	1	0	1	0
244	804	0	10000	1	1	0	1	0
252	805	0	10000	1	1	0	1	0
257	806	0	10000	1	1	0	1	0
256	807	0	10000	1	1	0	1	0
251	808	0	10000	1	1	0	1	0
260	809	0	10000	1	1	0	1	0
277	810	0	10000	1	1	0	1	0
305	811	0	10000	1	1	0	1	0
323	812	0	10000	1	1	0	1	0
322	813	0	10000	1	1	0	1	0
309	814	0	10000	1	1	0	1	0
297	815	0	10000	1	1	0	1	0
286	816	0	10000	1	1	0	1	0
278	817	0	10000	1	1	0	1	0
272	818	0	10000	1	1	0	1	0
265	819	0	10000	1	1	0	1	0
262	820	0	10000	1	1	0	1	0
264	821	0	10000	1	1	0	1	0
257	822	0	10000	1	1	0	1	0
253	823	0	10000	1	1	0	1	0
251	824	0	10000	1	1	0	1	0
269	825	0	10000	1	1	0	1	0
288	826	0	10000	1	1	0	1	0
305	827	0	10000	1	1	0	1	0
321	828	0	10000	1	1	0	1	0
327	829	0	10000	1	1	0	1	0
315	830	0	10000	1	1	0	1	0
305	831	0	10000	1	1	0	1	0
296	832	0	10000	1	1	0	1	0
292	833	0	10000	1	1	0	1	0
288	834	0	10000	1	1	0	1	0
286	835	0	10000	1	1	0	1	0
282	836	0	10000	1	1	0	1	0
280	837	0	10000	1	1	0	1	0
274	838	0	10000	1	1	0	1	0
269	839	0	10000	1	1	0	1	0
259	840	0	10000	1	1	0	1	0
255	841	0	10000	1	1	0	1	0
246	842	0	10000	1	1	0	1	0
237	843	0	10000	1	1	0	1	0
240	844	0	10000	1	1	0	1	0
249	845	0	10000	1	1	0	1	0
251	846	0	10000	1	1	0	1	0
245	847	0	10000	1	1	0	1	0
239	848	0	10000	1	1	0	1	0
231	849	0	10000	1	1	0	1	0
226	850	0	10000	1	1	0	1	0
219	851	0	10000	1	1	0	1	0
219	852	0	10000	1	1	0	1	0
221	853	0	10000	1	1	0	1	0
225	854	0	10000	1	1	0	1	0
228	855	0	10000	1	1	0	1	0
238	856	0	10000	1	1	0	1	0
249	857	0	10000	1	1	0	1	0
241	858	0	10000	1	1	0	1	0
243	859	0	10000	1	1	0	1	0
264	860	0	10000	1	1	0	1	0
279	861	0	10000	1	1	0	1	0
282	862	0	10000	1	1	0	1	0
271	863	0	10000	1	1	0	1	0
266	864	0	10000	1	1	0	1	0
257	865	0	10000	1	1	0	1	0
248	866	0	10000	1	1	0	1	0
240	867	0	10000	1	1	0	1	0
234	868	0	10000	1	1	0	1	0
226	869	0	10000	1	1	0	1	0
224	870	0	10000	1	1	0	1	0
219	871	0	10000	1	1	0	1	0
220	872	0	10000	1	1	0	1	0
236	873	0	10000	1	1	0	1	0
237	874	0	10000	1	1	0	1	0
234	875	0	10000	1	1	0	1	0
235	876	0	10000	1	1	0	1	0
231	877	0	10000	1	1	0	1	0
226	878	0	10000	1	1	0	1	0
221	879	0	10000	1	1	0	1	0
215	880	0	10000	1	1	0	1	0
209	881	0	10000	1	1	0	1	0
203	882	0	10000	1	1	0	1	0
196	883	0	10000	1	1	0	1	0
200	884	0	10000	1	1	0	1	0
207	885	0	10000	1	1	0	1	0
214	886	0	10000	1	1	0	1	0
209	887	0	10000	1	1	0	1	0
211	888	0	10000	1	1	0	1	0
222	889	0	10000	1	1	0	1	0
232	890	0	10000	1	1	0	1	0
232	891	0	10000	1	1	0	1	0
224	892	0	10000	1	1	0	1	0
217	893	0	10000	1	1	0	1	0
209	894	0	10000	1	1	0	1	0
203	895	0	10000	1	1	0	1	0
199	896	0	10000	1	1	0	1	0
192	897	0	10000	1	1	0	1	0
186	898	0	10000	1	1	0	1	0
181	899	0	10000	1	1	0	1	0
197	900	0	10000	1	1	0	1	0
221	901	0	10000	1	1	0	1	0
221	902	0	10000	1	1	0	1	0
218	903	0	10000	1	1	0	1	0
217	904	0	10000	1	1	0	1	0
212	905	0	10000	1	1	0	1	0
206	906	0	10000	1	1	0	1	0
199	907	0	10000	1	1	0	1	0
194	908	0	10000	1	1	0	1	0
186	909	0	10000	1	1	0	1	0
182	910	0	10000	1	1	0	1	0
175	911	0	10000	1	1	0	1	0
175	912	0	10000	1	1	0	1	0
180	913	0	10000	1	1	0	1	0
180	914	0	10000	1	1	0	1	0
174	915	0	10000	1	1	0	1	0
170	916	0	10000	1	1	0	1	0
172	917	0	10000	1	1	0	1	0
166	918	0	10000	1	1	0	1	0
165	919	0	10000	1	1	0	1	0
168	920	0	10000	1	1	0	1	0
169	921	0	10000	1	1	0	1	0
189	922	0	10000	1	1	0	1	0
197	923	0	10000	1	1	0	1	0
194	924	0	10000	1	1	0	1	0
186	925	0	10000	1	1	0	1	0
187	926	0	10000	1	1	0	1	0
192	927	0	10000	1	1	0	1	0
192	928	0	10000	1	1	0	1	0
192	929	0	10000	1	1	0	1	0
202	930	0	10000	1	1	0	1	0
200	931	0	10000	1	1	0	1	0
197	932	0	10000	1	1	0	1	0
190	933	0	10000	1	1	0	1	0
185	934	0	10000	1	1	0	1	0
191	935	0	10000	1	1	0	1	0
192	936	0	10000	1	1	0	1	0
184	937	0	10000	1	1	0	1	0
175	938	0	10000	1	1	0	1	0
168	939	0	10000	1	1	0	1	0
163	940	0	10000	1	1	0	1	0
160	941	0	10000	1	1	0	1	0
156	942	0	10000	1	1	0	1	0
153	943	0	10000	1	1	0	1	0
150	944	0	10000	1	1	0	1	0
146	945	0	10000	1	1	0	1	0
143	946	0	10000	1	1	0	1	0
139	947	0	10000	1	1	0	1	0
136	948	0	10000	1	1	0	1	0
135	949	0	10000	1	1	0	1	0
135	950	0	10000	1	1	0	1	0
136	951	0	10000	1	1	0	1	0
133	952	0	10000	1	1	0	1	0
128	953	0	10000	1	1	0	1	0
122	954	0	10000	1	1	0	1	0
119	955	0	10000	1	1	0	1	0
120	956	0	10000	1	1	0	1	0
121	957	0	10000	1	1	0	1	0
131	958	0	10000	1	1	0	1	0
131	959	0	10000	1	1	0	1	0
137	960	0	10000	1	1	0	1	0
142	961	0	10000	1	1	0	1	0
143	962	0	10000	1	1	0	1	0
142	963	0	10000	1	1	0	1	0
148	964	0	10000	1	1	0	1	0
175	965	0	10000	1	1	0	1	0
191	966	0	10000	1	1	0	1	0
197	967	0	10000	1	1	0	1	0
229	968	0	10000	1	1	0	1	0
249	969	0	10000	1	1	0	1	0
260	970	0	10000	1	1	0	1	0
260	971	0	10000	1	1	0	1	0
253	972	0	10000	1	1	0	1	0
242	973	0	10000	1	1	0	1	0
231	974	0	10000	1	1	0	1	0
228	975	0	10000	1	1	0	1	0
224	976	0	10000	1	1	0	1	0
217	977	0	10000	1	1	0	1	0
220	978	0	10000	1	1	0	1	0
240	979	0	10000	1	1	0	1	0
258	980	0	10000	1	1	0	1	0
260	981	0	10000	1	1	0	1	0
251	982	0	10000	1	1	0	1	0
245	983	0	10000	1	1	0	1	0
241	984	0	10000	1	1	0	1	0
235	985	0	10000	1	1	0	1	0
225	986	0	10000	1	1	0	1	0
222	987	0	10000	1	1	0	1	0
218	988	0	10000	1	1	0	1	0
211	989	0	10000	1	1	0	1	0
204	990	0	10000	1	1	0	1	0
201	991	0	10000	1	1	0	1	0
201	992	0	10000	1	1	0	1	0
196	993	0	10000	1	1	0	1	0
191	994	0	10000	1	1	0	1	0
197	995	0	10000	1	1	0	1	0
198	996	0	10000	1	1	0	1	0
201	997	0	10000	1	1	0	1	0
221	998	0	10000	1	1	0	1	0
231	999	0	10000	1	1	0	1	0
224	1000	0	10000	1	1	0	1	0
224	1001	0	10000	1	1	0	1	0
118	1	7	10000	2	1	0	2	0
131	2	7	10000	2	1	0	2	0
131	3	7	10000	2	1	0	2	0
132	4	7	10000	2	1	0	2	0
136	5	7	10000	2	1	0	2	0
133	6	7	10000	2	1	0	2	0
129	7	7	10000	2	1	0	2	0
132	8	7	10000	2	1	0	2	0
132	9	7	10000	2	1	0	2	0
128	10	7	10000	2	1	0	2	0
122	11	7	10000	2	1	0	2	0
117	12	7	10000	2	1	0	2	0
114	13	7	10000	2	1	0	2	0
108	14	7	10000	2	1	0	2	0
104	15	7	10000	2	1	0	2	0
104	16	7	10000	2	1	0	2	0
105	17	7	10000	2	1	0	2	0
104	18	7	10000	2	1	0	2	0
105	19	7	10000	2	1	0	2	0
103	20	7	10000	2	1	0	2	0
104	20	7	10000	2	1	0	2	0
107	21	7	10000	2	1	0	2	0
106	23	7	10000	2	1	0	2	0
108	24	7	10000	2	1	0	2	0
108	25	7	10000	2	1	0	2	0
104	26	7	10000	2	1	0	2	0
102	27	7	10000	2	1	0	2	0
106	28	7	10000	2	1	0	2	0
116	29	7	10000	2	1	0	2	0
121	30	7	10000	2	1	0	2	0
120	30	7	10000	2	1	0	2	0
115	31	7	10000	2	1	0	2	0
115	33	7	10000	2	1	0	2	0
118	34	7	10000	2	1	0	2	0
123	35	7	10000	2	1	0	2	0
126	36	7	10000	2	1	0	2	0
125	37	7	10000	2	1	0	2	0
124	38	7	10000	2	1	0	2	0
122	39	7	10000	2	1	0	2	0
124	40	7	10000	2	1	0	2	0
124	40	7	10000	2	1	0	2	0
126	41	7	10000	2	1	0	2	0
123	43	7	10000	2	1	0	2	0
128	44	7	10000	2	1	0	2	0
139	45	7	10000	2	1	0	2	0
146	46	7	10000	2	1	0	2	0
144	47	7	10000	2	1	0	2	0
140	48	7	10000	2	1	0	2	0
138	49	7	10000	2	1	0	2	0
135	50	7	10000	2	1	0	2	0
130	50	7	10000	2	1	0	2	0
127	51	7	10000	2	1	0	2	0
123	53	7	10000	2	1	0	2	0
119	54	7	10000	2	1	0	2	0
116	55	7	10000	2	1	0	2	0
119	56	7	10000	2	1	0	2	0
126	57	7	10000	2	1	0	2	0
127	58	7	10000	2	1	0	2	0
126	59	7	10000	2	1	0	2	0
121	60	7	10000	2	1	0	2	0
116	60	7	10000	2	1	0	2	0
113	61	7	10000	2	1	0	2	0
114	63	7	10000	2	1	0	2	0
117	64	7	10000	2	1	0	2	0
118	65	7	10000	2	1	0	2	0
117	66	7	10000	2	1	0	2	0
119	67	7	10000	2	1	0	2	0
120	68	7	10000	2	1	0	2	0
116	69	7	10000	2	1	0	2	0
113	70	7	10000	2	1	0	2	0
113	70	7	10000	2	1	0	2	0
112	71	7	10000	2	1	0	2	0
116	73	7	10000	2	1	0	2	0
121	74	7	10000	2	1	0	2	0
124	75	7	10000	2	1	0	2	0
130	76	7	10000	2	1	0	2	0
131	77	7	10000	2	1	0	2	0
125	78	7	10000	2	1	0	2	0
123	79	7	10000	2	1	0	2	0
124	80	7	10000	2	1	0	2	0
121	80	7	10000	2	1	0	2	0
115	81	7	10000	2	1	0	2	0
113	83	7	10000	2	1	0	2	0
116	84	7	10000	2	1	0	2	0
113	85	7	10000	2	1	0	2	0
109	86	7	10000	2	1	0	2	0
103	87	7	10000	2	1	0	2	0
107	88	7	10000	2	1	0	2	0
121	89	7	10000	2	1	0	2	0
133	90	7	10000	2	1	0	2	0
131	90	7	10000	2	1	0	2	0
128	91	7	10000	2	1	0	2	0
128	93	7	10000	2	1	0	2	0
126	94	7	10000	2	1	0	2	0
122	95	7	10000	2	1	0	2	0
124	96	7	10000	2	1	0	2	0
135	97	7	10000	2	1	0	2	0
141	98	7	10000	2	1	0	2	0
142	99	7	10000	2	1	0	2	0
139	100	7	10000	2	1	0	2	0
138	100	7	10000	2	1	0	2	0
140	101	7	10000	2	1	0	2	0
141	103	7	10000	2	1	0	2	0
143	104	7	10000	2	1	0	2	0
141	105	7	10000	2	1	0	2	0
138	106	7	10000	2	1	0	2	0
134	107	7	10000	2	1	0	2	0
133	108	7	10000	2	1	0	2	0
135	109	7	10000	2	1	0	2	0
136	110	7	10000	2	1	0	2	0
138	110	7	10000	2	1	0	2	0
136	111	7	10000	2	1	0	2	0
134	113	7	10000	2	1	0	2	0
134	114	7	10000	2	1	0	2	0
132	115	7	10000	2	1	0	2	0
129	116	7	10000	2	1	0	2	0
128	117	7	10000	2	1	0	2	0
124	118	7	10000	2	1	0	2	0
128	119	7	10000	2	1	0	2	0
136	120	7	10000	2	1	0	2	0
142	120	7	10000	2	1	0	2	0
149	121	7	10000	2	1	0	2	0
146	123	7	10000	2	1	0	2	0
141	124	7	10000	2	1	0	2	0
137	125	7	10000	2	1	0	2	0
138	126	7	10000	2	1	0	2	0
137	127	7	10000	2	1	0	2	0
137	128	7	10000	2	1	0	2	0
137	129	7	10000	2	1	0	2	0
133	130	7	10000	2	1	0	2	0
133	130	7	10000	2	1	0	2	0
130	131	7	10000	2	1	0	2	0
130	133	7	10000	2	1	0	2	0
128	134	7	10000	2	1	0	2	0
126	135	7	10000	2	1	0	2	0
128	136	7	10000	2	1	0	2	0
130	137	7	10000	2	1	0	2	0
130	138	7	10000	2	1	0	2	0
126	139	7	10000	2	1	0	2	0
122	140	7	10000	2	1	0	2	0
118	140	7	10000	2	1	0	2	0
117	141	7	10000	2	1	0	2	0
117	143	7	10000	2	1	0	2	0
119	144	7	10000	2	1	0	2	0
119	145	7	10000	2	1	0	2	0
121	146	7	10000	2	1	0	2	0
126	147	7	10000	2	1	0	2	0
136	148	7	10000	2	1	0	2	0
143	149	7	10000	2	1	0	2	0
140	150	7	10000	2	1	0	2	0
146	150	7	10000	2	1	0	2	0
153	151	7	10000	2	1	0	2	0
157	153	7	10000	2	1	0	2	0
161	154	7	10000	2	1	0	2	0
163	155	7	10000	2	1	0	2	0
161	156	7	10000	2	1	0	2	0
158	157	7	10000	2	1	0	2	0
157	158	7	10000	2	1	0	2	0
150	159	7	10000	2	1	0	2	0
149	160	7	10000	2	1	0	2	0
146	160	7	10000	2	1	0	2	0
140	161	7	10000	2	1	0	2	0
134	163	7	10000	2	1	0	2	0
129	164	7	10000	2	1	0	2	0
128	165	7	10000	2	1	0	2	0
132	166	7	10000	2	1	0	2	0
131	167	7	10000	2	1	0	2	0
134	168	7	10000	2	1	0	2	0
134	169	7	10000	2	1	0	2	0
128	170	7	10000	2	1	0	2	0
123	170	7	10000	2	1	0	2	0
118	171	7	10000	2	1	0	2	0
113	173	7	10000	2	1	0	2	0
108	174	7	10000	2	1	0	2	0
104	175	7	10000	2	1	0	2	0
101	176	7	10000	2	1	0	2	0
99	177	7	10000	2	1	0	2	0
102	178	7	10000	2	1	0	2	0
101	179	7	10000	2	1	0	2	0
109	180	7	10000	2	1	0	2	0
126	180	7	10000	2	1	0	2	0
136	181	7	10000	2	1	0	2	0
141	183	7	10000	2	1	0	2	0
143	184	7	10000	2	1	0	2	0
142	185	7	10000	2	1	0	2	0
139	186	7	10000	2	1	0	2	0
130	187	7	10000	2	1	0	2	0
129	188	7	10000	2	1	0	2	0
135	189	7	10000	2	1	0	2	0
144	190	7	10000	2	1	0	2	0
144	190	7	10000	2	1	0	2	0
147	191	7	10000	2	1	0	2	0
150	193	7	10000	2	1	0	2	0
149	194	7	10000	2	1	0	2	0
150	195	7	10000	2	1	0	2	0
149	196	7	10000	2	1	0	2	0
145	197	7	10000	2	1	0	2	0
139	198	7	10000	2	1	0	2	0
137	199	7	10000	2	1	0	2	0
135	200	7	10000	2	1	0	2	0
130	200	7	10000	2	1	0	2	0
126	201	7	10000	2	1	0	2	0
122	203	7	10000	2	1	0	2	0
118	204	7	10000	2	1	0	2	0
115	205	7	10000	2	1	0	2	0
111	206	7	10000	2	1	0	2	0
104	207	7	10000	2	1	0	2	0
99	208	7	10000	2	1	0	2	0
97	209	7	10000	2	1	0	2	0
94	210	7	10000	2	1	0	2	0
90	210	7	10000	2	1	0	2	0
88	211	7	10000	2	1	0	2	0
89	213	7	10000	2	1	0	2	0
86	214	7	10000	2	1	0	2	0
86	215	7	10000	2	1	0	2	0
85	216	7	10000	2	1	0	2	0
87	217	7	10000	2	1	0	2	0
85	218	7	10000	2	1	0	2	0
91	219	7	10000	2	1	0	2	0
95	220	7	10000	2	1	0	2	0
93	220	7	10000	2	1	0	2	0
89	221	7	10000	2	1	0	2	0
85	223	7	10000	2	1	0	2	0
84	224	7	10000	2	1	0	2	0
89	225	7	10000	2	1	0	2	0
95	226	7	10000	2	1	0	2	0
98	227	7	10000	2	1	0	2	0
96	228	7	10000	2	1	0	2	0
99	229	7	10000	2	1	0	2	0
103	230	7	10000	2	1	0	2	0
102	230	7	10000	2	1	0	2	0
98	231	7	10000	2	1	0	2	0
95	233	7	10000	2	1	0	2	0
96	234	7	10000	2	1	0	2	0
94	235	7	10000	2	1	0	2	0
93	236	7	10000	2	1	0	2	0
99	237	7	10000	2	1	0	2	0
100	238	7	10000	2	1	0	2	0
98	239	7	10000	2	1	0	2	0
94	240	7	10000	2	1	0	2	0
91	240	7	10000	2	1	0	2	0
92	241	7	10000	2	1	0	2	0
93	243	7	10000	2	1	0	2	0
99	244	7	10000	2	1	0	2	0
104	245	7	10000	2	1	0	2	0
103	246	7	10000	2	1	0	2	0
98	247	7	10000	2	1	0	2	0
99	248	7	10000	2	1	0	2	0
104	249	7	10000	2	1	0	2	0
101	250	7	10000	2	1	0	2	0
96	250	7	10000	2	1	0	2	0
93	251	7	10000	2	1	0	2	0
90	253	7	10000	2	1	0	2	0
86	254	7	10000	2	1	0	2	0
89	255	7	10000	2	1	0	2	0
91	256	7	10000	2	1	0	2	0
90	257	7	10000	2	1	0	2	0
86	258	7	10000	2	1	0	2	0
88	259	7	10000	2	1	0	2	0
87	260	7	10000	2	1	0	2	0
85	260	7	10000	2	1	0	2	0
81	261	7	10000	2	1	0	2	0
83	263	7	10000	2	1	0	2	0
89	264	7	10000	2	1	0	2	0
88	265	7	10000	2	1	0	2	0
93	266	7	10000	2	1	0	2	0
98	267	7	10000	2	1	0	2	0
100	268	7	10000	2	1	0	2	0
99	269	7	10000	2	1	0	2	0
97	270	7	10000	2	1	0	2	0
97	270	7	10000	2	1	0	2	0
93	271	7	10000	2	1	0	2	0
90	273	7	10000	2	1	0	2	0
88	274	7	10000	2	1	0	2	0
89	275	7	10000	2	1	0	2	0
91	276	7	10000	2	1	0	2	0
91	277	7	10000	2	1	0	2	0
87	278	7	10000	2	1	0	2	0
85	279	7	10000	2	1	0	2	0
84	280	7	10000	2	1	0	2	0
84	280	7	10000	2	1	0	2	0
83	281	7	10000	2	1	0	2	0
83	283	7	10000	2	1	0	2	0
84	284	7	10000	2	1	0	2	0
87	285	7	10000	2	1	0	2	0
88	286	7	10000	2	1	0	2	0
86	287	7	10000	2	1	0	2	0
90	288	7	10000	2	1	0	2	0
102	289	7	10000	2	1	0	2	0
112	290	7	10000	2	1	0	2	0
112	290	7	10000	2	1	0	2	0
113	291	7	10000	2	1	0	2	0
123	293	7	10000	2	1	0	2	0
131	294	7	10000	2	1	0	2	0
131	295	7	10000	2	1	0	2	0
128	296	7	10000	2	1	0	2	0
129	297	7	10000	2	1	0	2	0
128	298	7	10000	2	1	0	2	0
126	299	7	10000	2	1	0	2	0
123	300	7	10000	2	1	0	2	0
120	300	7	10000	2	1	0	2	0
119	301	7	10000	2	1	0	2	0
115	303	7	10000	2	1	0	2	0
112	304	7	10000	2	1	0	2	0
114	305	7	10000	2	1	0	2	0
111	306	7	10000	2	1	0	2	0
105	307	7	10000	2	1	0	2	0
105	308	7	10000	2	1	0	2	0
105	309	7	10000	2	1	0	2	0
104	310	7	10000	2	1	0	2	0
104	310	7	10000	2	1	0	2	0
109	311	7	10000	2	1	0	2	0
109	313	7	10000	2	1	0	2	0
106	314	7	10000	2	1	0	2	0
102	315	7	10000	2	1	0	2	0
100	316	7	10000	2	1	0	2	0
103	317	7	10000	2	1	0	2	0
108	318	7	10000	2	1	0	2	0
107	319	7	10000	2	1	0	2	0
102	320	7	10000	2	1	0	2	0
100	320	7	10000	2	1	0	2	0
100	321	7	10000	2	1	0	2	0
97	323	7	10000	2	1	0	2	0
95	324	7	10000	2	1	0	2	0
93	325	7	10000	2	1	0	2	0
90	326	7	10000	2	1	0	2	0
88	327	7	10000	2	1	0	2	0
88	328	7	10000	2	1	0	2	0
84	329	7	10000	2	1	0	2	0
82	330	7	10000	2	1	0	2	0
79	330	7	10000	2	1	0	2	0
76	331	7	10000	2	1	0	2	0
76	333	7	10000	2	1	0	2	0
75	334	7	10000	2	1	0	2	0
84	335	7	10000	2	1	0	2	0
98	336	7	10000	2	1	0	2	0
104	337	7	10000	2	1	0	2	0
102	338	7	10000	2	1	0	2	0
100	339	7	10000	2	1	0	2	0
99	340	7	10000	2	1	0	2	0
103	340	7	10000	2	1	0	2	0
106	341	7	10000	2	1	0	2	0
105	343	7	10000	2	1	0	2	0
107	344	7	10000	2	1	0	2	0
109	345	7	10000	2	1	0	2	0
110	346	7	10000	2	1	0	2	0
106	347	7	10000	2	1	0	2	0
103	348	7	10000	2	1	0	2	0
104	349	7	10000	2	1	0	2	0
103	350	7	10000	2	1	0	2	0
101	350	7	10000	2	1	0	2	0
102	351	7	10000	2	1	0	2	0
101	353	7	10000	2	1	0	2	0
102	354	7	10000	2	1	0	2	0
101	355	7	10000	2	1	0	2	0
99	356	7	10000	2	1	0	2	0
101	357	7	10000	2	1	0	2	0
101	358	7	10000	2	1	0	2	0
103	359	7	10000	2	1	0	2	0
105	360	7	10000	2	1	0	2	0
110	360	7	10000	2	1	0	2	0
109	361	7	10000	2	1	0	2	0
115	363	7	10000	2	1	0	2	0
128	364	7	10000	2	1	0	2	0
139	365	7	10000	2	1	0	2	0
139	366	7	10000	2	1	0	2	0
132	367	7	10000	2	1	0	2	0
134	368	7	10000	2	1	0	2	0
135	369	7	10000	2	1	0	2	0
131	370	7	10000	2	1	0	2	0
126	370	7	10000	2	1	0	2	0
122	371	7	10000	2	1	0	2	0
124	373	7	10000	2	1	0	2	0
121	374	7	10000	2	1	0	2	0
118	375	7	10000	2	1	0	2	0
120	376	7	10000	2	1	0	2	0
127	377	7	10000	2	1	0	2	0
133	378	7	10000	2	1	0	2	0
134	379	7	10000	2	1	0	2	0
132	380	7	10000	2	1	0	2	0
131	380	7	10000	2	1	0	2	0
128	381	7	10000	2	1	0	2	0
124	383	7	10000	2	1	0	2	0
127	384	7	10000	2	1	0	2	0
125	385	7	10000	2	1	0	2	0
125	386	7	10000	2	1	0	2	0
132	387	7	10000	2	1	0	2	0
140	388	7	10000	2	1	0	2	0
147	389	7	10000	2	1	0	2	0
149	390	7	10000	2	1	0	2	0
141	390	7	10000	2	1	0	2	0
136	391	7	10000	2	1	0	2	0
131	393	7	10000	2	1	0	2	0
127	394	7	10000	2	1	0	2	0
123	395	7	10000	2	1	0	2	0
120	396	7	10000	2	1	0	2	0
118	397	7	10000	2	1	0	2	0
122	398	7	10000	2	1	0	2	0
132	399	7	10000	2	1	0	2	0
132	400	7	10000	2	1	0	2	0
129	400	7	10000	2	1	0	2	0
126	401	7	10000	2	1	0	2	0
123	403	7	10000	2	1	0	2	0
128	404	7	10000	2	1	0	2	0
134	405	7	10000	2	1	0	2	0
140	406	7	10000	2	1	0	2	0
140	407	7	10000	2	1	0	2	0
140	408	7	10000	2	1	0	2	0
148	409	7	10000	2	1	0	2	0
147	410	7	10000	2	1	0	2	0
149	410	7	10000	2	1	0	2	0
152	411	7	10000	2	1	0	2	0
148	413	7	10000	2	1	0	2	0
142	414	7	10000	2	1	0	2	0
137	415	7	10000	2	1	0	2	0
130	416	7	10000	2	1	0	2	0
128	417	7	10000	2	1	0	2	0
124	418	7	10000	2	1	0	2	0
124	419	7	10000	2	1	0	2	0
125	420	7	10000	2	1	0	2	0
124	420	7	10000	2	1	0	2	0
120	421	7	10000	2	1	0	2	0
118	423	7	10000	2	1	0	2	0
127	424	7	10000	2	1	0	2	0
137	425	7	10000	2	1	0	2	0
136	426	7	10000	2	1	0	2	0
140	427	7	10000	2	1	0	2	0
150	428	7	10000	2	1	0	2	0
153	429	7	10000	2	1	0	2	0
150	430	7	10000	2	1	0	2	0
145	430	7	10000	2	1	0	2	0
145	431	7	10000	2	1	0	2	0
147	433	7	10000	2	1	0	2	0
143	434	7	10000	2	1	0	2	0
143	435	7	10000	2	1	0	2	0
147	436	7	10000	2	1	0	2	0
155	437	7	10000	2	1	0	2	0
161	438	7	10000	2	1	0	2	0
158	439	7	10000	2	1	0	2	0
152	440	7	10000	2	1	0	2	0
150	440	7	10000	2	1	0	2	0
148	441	7	10000	2	1	0	2	0
145	443	7	10000	2	1	0	2	0
146	444	7	10000	2	1	0	2	0
151	445	7	10000	2	1	0	2	0
146	446	7	10000	2	1	0	2	0
140	447	7	10000	2	1	0	2	0
140	448	7	10000	2	1	0	2	0
138	449	7	10000	2	1	0	2	0
133	450	7	10000	2	1	0	2	0
131	450	7	10000	2	1	0	2	0
128	451	7	10000	2	1	0	2	0
123	453	7	10000	2	1	0	2	0
120	454	7	10000	2	1	0	2	0
129	455	7	10000	2	1	0	2	0
138	456	7	10000	2	1	0	2	0
138	457	7	10000	2	1	0	2	0
136	458	7	10000	2	1	0	2	0
134	459	7	10000	2	1	0	2	0
129	460	7	10000	2	1	0	2	0
126	460	7	10000	2	1	0	2	0
122	461	7	10000	2	1	0	2	0
120	463	7	10000	2	1	0	2	0
128	464	7	10000	2	1	0	2	0
129	465	7	10000	2	1	0	2	0
128	466	7	10000	2	1	0	2	0
132	467	7	10000	2	1	0	2	0
139	468	7	10000	2	1	0	2	0
142	469	7	10000	2	1	0	2	0
140	470	7	10000	2	1	0	2	0
135	470	7	10000	2	1	0	2	0
130	471	7	10000	2	1	0	2	0
125	473	7	10000	2	1	0	2	0
120	474	7	10000	2	1	0	2	0
124	475	7	10000	2	1	0	2	0
125	476	7	10000	2	1	0	2	0
124	477	7	10000	2	1	0	2	0
127	478	7	10000	2	1	0	2	0
126	479	7	10000	2	1	0	2	0
121	480	7	10000	2	1	0	2	0
122	480	7	10000	2	1	0	2	0
128	481	7	10000	2	1	0	2	0
129	483	7	10000	2	1	0	2	0
129	484	7	10000	2	1	0	2	0
133	485	7	10000	2	1	0	2	0
129	486	7	10000	2	1	0	2	0
122	487	7	10000	2	1	0	2	0
123	488	7	10000	2	1	0	2	0
124	489	7	10000	2	1	0	2	0
125	490	7	10000	2	1	0	2	0
126	490	7	10000	2	1	0	2	0
125	491	7	10000	2	1	0	2	0
119	493	7	10000	2	1	0	2	0
115	494	7	10000	2	1	0	2	0
113	495	7	10000	2	1	0	2	0
116	496	7	10000	2	1	0	2	0
116	497	7	10000	2	1	0	2	0
111	498	7	10000	2	1	0	2	0
109	499	7	10000	2	1	0	2	0
105	500	7	10000	2	1	0	2	0
101	500	7	10000	2	1	0	2	0
97	501	7	10000	2	1	0	2	0
94	503	7	10000	2	1	0	2	1
97	504	7	10000	2	1	0	2	1
101	505	7	10000	2	1	0	2	1
117	506	7	10000	2	1	0	2	1
135	507	7	10000	2	1	0	2	1
143	508	7	10000	2	1	0	2	1
145	509	7	10000	2	1	0	2	1
155	510	7	10000	2	1	0	2	1
166	510	7	10000	2	1	0	2	1
172	511	7	10000	2	1	0	2	1
175	513	7	10000	2	1	0	2	1
173	514	7	10000	2	1	0	2	1
168	515	7	10000	2	1	0	2	1
163	516	7	10000	2	1	0	2	1
161	517	7	10000	2	1	0	2	1
158	518	7	10000	2	1	0	2	1
154	519	7	10000	2	1	0	2	1
149	520	7	10000	2	1	0	2	1
150	520	7	10000	2	1	0	2	1
153	521	7	10000	2	1	0	2	1
152	523	7	10000	2	1	0	2	1
155	524	7	10000	2	1	0	2	1
158	525	7	10000	2	1	0	2	1
156	526	7	10000	2	1	0	2	1
147	527	7	10000	2	1	0	2	1
141	528	7	10000	2	1	0	2	1
136	529	7	10000	2	1	0	2	1
136	530	7	10000	2	1	0	2	1
134	530	7	10000	2	1	0	2	1
129	531	7	10000	2	1	0	2	1
124	533	7	10000	2	1	0	2	1
119	534	7	10000	2	1	0	2	1
117	535	7	10000	2	1	0	2	1
115	536	7	10000	2	1	0	2	1
125	537	7	10000	2	1	0	2	1
130	538	7	10000	2	1	0	2	1
132	539	7	10000	2	1	0	2	1
143	540	7	10000	2	1	0	2	1
150	540	7	10000	2	1	0	2	1
152	541	7	10000	2	1	0	2	1
155	543	7	10000	2	1	0	2	1
152	544	7	10000	2	1	0	2	1
149	545	7	10000	2	1	0	2	1
143	546	7	10000	2	1	0	2	1
140	547	7	10000	2	1	0	2	1
147	548	7	10000	2	1	0	2	1
148	549	7	10000	2	1	0	2	1
150	550	7	10000	2	1	0	2	1
152	550	7	10000	2	1	0	2	1
152	551	7	10000	2	1	0	2	1
148	553	7	10000	2	1	0	2	0
146	554	7	10000	2	1	0	2	0
143	555	7	10000	2	1	0	2	0
139	556	7	10000	2	1	0	2	0
136	557	7	10000	2	1	0	2	0
141	558	7	10000	2	1	0	2	0
149	559	7	10000	2	1	0	2	0
152	560	7	10000	2	1	0	2	0
149	560	7	10000	2	1	0	2	0
143	561	7	10000	2	1	0	2	0
139	563	7	10000	2	1	0	2	0
140	564	7	10000	2	1	0	2	0
137	565	7	10000	2	1	0	2	0
133	566	7	10000	2	1	0	2	0
128	567	7	10000	2	1	0	2	0
132	568	7	10000	2	1	0	2	0
132	569	7	10000	2	1	0	2	0
137	570	7	10000	2	1	0	2	0
149	570	7	10000	2	1	0	2	0
156	571	7	10000	2	1	0	2	0
157	573	7	10000	2	1	0	2	0
152	574	7	10000	2	1	0	2	0
145	575	7	10000	2	1	0	2	0
139	576	7	10000	2	1	0	2	0
136	577	7	10000	2	1	0	2	0
133	578	7	10000	2	1	0	2	0
135	579	7	10000	2	1	0	2	0
132	580	7	10000	2	1	0	2	0
130	580	7	10000	2	1	0	2	0
130	581	7	10000	2	1	0	2	0
134	583	7	10000	2	1	0	2	0
130	584	7	10000	2	1	0	2	0
126	585	7	10000	2	1	0	2	0
122	586	7	10000	2	1	0	2	0
124	587	7	10000	2	1	0	2	0
127	588	7	10000	2	1	0	2	0
129	589	7	10000	2	1	0	2	0
135	590	7	10000	2	1	0	2	0
135	590	7	10000	2	1	0	2	0
139	591	7	10000	2	1	0	2	0
154	593	7	10000	2	1	0	2	0
176	594	7	10000	2	1	0	2	0
192	595	7	10000	2	1	0	2	0
191	596	7	10000	2	1	0	2	0
197	597	7	10000	2	1	0	2	0
211	598	7	10000	2	1	0	2	0
228	599	7	10000	2	1	0	2	0
232	600	7	10000	2	1	0	2	0
241	600	7	10000	2	1	0	2	0
242	601	7	10000	2	1	0	2	0
249	603	7	10000	2	1	0	2	0
252	604	7	10000	2	1	0	2	0
289	605	7	10000	2	1	0	2	0
315	606	7	10000	2	1	0	2	0
305	607	7	10000	2	1	0	2	0
328	608	7	10000	2	1	0	2	0
375	609	7	10000	2	1	0	2	0
387	610	7	10000	2	1	0	2	0
392	610	7	10000	2	1	0	2	0
397	611	7	10000	2	1	0	2	0
423	613	7	10000	2	1	0	2	0
478	614	7	10000	2	1	0	2	0
499	615	7	10000	2	1	0	2	0
497	616	7	10000	2	1	0	2	0
480	617	7	10000	2	1	0	2	0
482	618	7	10000	2	1	0	2	0
498	619	7	10000	2	1	0	2	0
510	620	7	10000	2	1	0	2	0
500	620	7	10000	2	1	0	2	0
478	621	7	10000	2	1	0	2	0
470	623	7	10000	2	1	0	2	0
465	624	7	10000	2	1	0	2	0
447	625	7	10000	2	1	0	2	0
437	626	7	10000	2	1	0	2	0
438	627	7	10000	2	1	0	2	0
439	628	7	10000	2	1	0	2	0
423	629	7	10000	2	1	0	2	0
403	630	7	10000	2	1	0	2	0
394	630	7	10000	2	1	0	2	0
401	631	7	10000	2	1	0	2	0
403	633	7	10000	2	1	0	2	0
390	634	7	10000	2	1	0	2	0
388	635	7	10000	2	1	0	2	0
390	636	7	10000	2	1	0	2	0
395	637	7	10000	2	1	0	2	0
387	638	7	10000	2	1	0	2	0
375	639	7	10000	2	1	0	2	0
364	640	7	10000	2	1	0	2	0
357	640	7	10000	2	1	0	2	0
351	641	7	10000	2	1	0	2	0
344	643	7	10000	2	1	0	2	0
341	644	7	10000	2	1	0	2	0
338	645	7	10000	2	1	0	2	0
331	646	7	10000	2	1	0	2	0
328	647	7	10000	2	1	0	2	0
328	648	7	10000	2	1	0	2	0
318	649	7	10000	2	1	0	2	0
305	650	7	10000	2	1	0	2	0
296	650	7	10000	2	1	0	2	0
293	651	7	10000	2	1	0	2	0
291	653	7	10000	2	1	0	2	0
304	654	7	10000	2	1	0	2	0
314	655	7	10000	2	1	0	2	0
305	656	7	10000	2	1	0	2	0
299	657	7	10000	2	1	0	2	0
292	658	7	10000	2	1	0	2	0
287	659	7	10000	2	1	0	2	0
278	660	7	10000	2	1	0	2	0
273	660	7	10000	2	1	0	2	0
273	661	7	10000	2	1	0	2	0
270	663	7	10000	2	1	0	2	0
264	664	7	10000	2	1	0	2	0
254	665	7	10000	2	1	0	2	0
247	666	7	10000	2	1	0	2	0
239	667	7	10000	2	1	0	2	0
234	668	7	10000	2	1	0	2	0
234	669	7	10000	2	1	0	2	0
234	670	7	10000	2	1	0	2	0
235	670	7	10000	2	1	0	2	0
236	671	7	10000	2	1	0	2	0
242	673	7	10000	2	1	0	2	0
252	674	7	10000	2	1	0	2	0
261	675	7	10000	2	1	0	2	0
258	676	7	10000	2	1	0	2	0
253	677	7	10000	2	1	0	2	0
257	678	7	10000	2	1	0	2	0
270	679	7	10000	2	1	0	2	0
280	680	7	10000	2	1	0	2	0
280	680	7	10000	2	1	0	2	0
281	681	7	10000	2	1	0	2	0
282	683	7	10000	2	1	0	2	0
279	684	7	10000	2	1	0	2	0
277	685	7	10000	2	1	0	2	0
279	686	7	10000	2	1	0	2	0
279	687	7	10000	2	1	0	2	0
281	688	7	10000	2	1	0	2	0
281	689	7	10000	2	1	0	2	0
285	690	7	10000	2	1	0	2	0
280	690	7	10000	2	1	0	2	0
270	691	7	10000	2	1	0	2	0
261	693	7	10000	2	1	0	2	0
261	694	7	10000	2	1	0	2	0
270	695	7	10000	2	1	0	2	0
272	696	7	10000	2	1	0	2	0
261	697	7	10000	2	1	0	2	0
251	698	7	10000	2	1	0	2	0
258	699	7	10000	2	1	0	2	0
265	700	7	10000	2	1	0	2	0
264	700	7	10000	2	1	0	2	0
266	701	7	10000	2	1	0	2	0
272	703	7	10000	2	1	0	2	0
282	704	7	10000	2	1	0	2	0
289	705	7	10000	2	1	0	2	0
285	706	7	10000	2	1	0	2	0
281	707	7	10000	2	1	0	2	0
286	708	7	10000	2	1	0	2	0
286	709	7	10000	2	1	0	2	0
281	710	7	10000	2	1	0	2	0
271	710	7	10000	2	1	0	2	0
261	711	7	10000	2	1	0	2	0
254	713	7	10000	2	1	0	2	0
244	714	7	10000	2	1	0	2	0
234	715	7	10000	2	1	0	2	0
245	716	7	10000	2	1	0	2	0
273	717	7	10000	2	1	0	2	0
300	718	7	10000	2	1	0	2	0
316	719	7	10000	2	1	0	2	0
323	720	7	10000	2	1	0	2	0
326	720	7	10000	2	1	0	2	0
324	721	7	10000	2	1	0	2	0
319	723	7	10000	2	1	0	2	0
313	724	7	10000	2	1	0	2	0
305	725	7	10000	2	1	0	2	0
296	726	7	10000	2	1	0	2	0
287	727	7	10000	2	1	0	2	0
279	728	7	10000	2	1	0	2	0
268	729	7	10000	2	1	0	2	0
264	730	7	10000	2	1	0	2	0
261	730	7	10000	2	1	0	2	0
259	731	7	10000	2	1	0	2	0
251	733	7	10000	2	1	0	2	0
252	734	7	10000	2	1	0	2	0
257	735	7	10000	2	1	0	2	0
261	736	7	10000	2	1	0	2	0
263	737	7	10000	2	1	0	2	0
258	738	7	10000	2	1	0	2	0
251	739	7	10000	2	1	0	2	0
243	740	7	10000	2	1	0	2	0
233	740	7	10000	2	1	0	2	0
224	741	7	10000	2	1	0	2	0
218	743	7	10000	2	1	0	2	0
229	744	7	10000	2	1	0	2	0
250	745	7	10000	2	1	0	2	0
251	746	7	10000	2	1	0	2	0
245	747	7	10000	2	1	0	2	0
249	748	7	10000	2	1	0	2	0
256	749	7	10000	2	1	0	2	0
262	750	7	10000	2	1	0	2	0
256	750	7	10000	2	1	0	2	0
248	751	7	10000	2	1	0	2	0
242	753	7	10000	2	1	0	2	0
233	754	7	10000	2	1	0	2	0
222	755	7	10000	2	1	0	2	0
221	756	7	10000	2	1	0	2	0
231	757	7	10000	2	1	0	2	0
231	758	7	10000	2	1	0	2	0
223	759	7	10000	2	1	0	2	0
218	760	7	10000	2	1	0	2	0
231	760	7	10000	2	1	0	2	0
225	761	7	10000	2	1	0	2	0
221	763	7	10000	2	1	0	2	0
218	764	7	10000	2	1	0	2	0
212	765	7	10000	2	1	0	2	0
203	766	7	10000	2	1	0	2	0
193	767	7	10000	2	1	0	2	0
186	768	7	10000	2	1	0	2	0
186	769	7	10000	2	1	0	2	0
187	770	7	10000	2	1	0	2	0
190	770	7	10000	2	1	0	2	0
194	771	7	10000	2	1	0	2	0
196	773	7	10000	2	1	0	2	0
200	774	7	10000	2	1	0	2	0
206	775	7	10000	2	1	0	2	0
215	776	7	10000	2	1	0	2	0
220	777	7	10000	2	1	0	2	0
211	778	7	10000	2	1	0	2	0
202	779	7	10000	2	1	0	2	0
200	780	7	10000	2	1	0	2	0
208	780	7	10000	2	1	0	2	0
217	781	7	10000	2	1	0	2	0
212	783	7	10000	2	1	0	2	0
207	784	7	10000	2	1	0	2	0
201	785	7	10000	2	1	0	2	0
200	786	7	10000	2	1	0	2	0
194	787	7	10000	2	1	0	2	0
207	788	7	10000	2	1	0	2	0
216	789	7	10000	2	1	0	2	0
211	790	7	10000	2	1	0	2	0
209	790	7	10000	2	1	0	2	0
208	791	7	10000	2	1	0	2	0
207	793	7	10000	2	1	0	2	0
202	794	7	10000	2	1	0	2	0
195	795	7	10000	2	1	0	2	0
192	796	7	10000	2	1	0	2	0
186	797	7	10000	2	1	0	2	0
182	798	7	10000	2	1	0	2	0
174	799	7	10000	2	1	0	2	0
176	800	7	10000	2	1	0	2	0
177	800	7	10000	2	1	0	2	0
175	801	7	10000	2	1	0	2	0
171	803	7	10000	2	1	0	2	0
188	804	7	10000	2	1	0	2	0
215	805	7	10000	2	1	0	2	0
219	806	7	10000	2	1	0	2	0
213	807	7	10000	2	1	0	2	0
228	808	7	10000	2	1	0	2	0
243	809	7	10000	2	1	0	2	0
241	810	7	10000	2	1	0	2	0
232	810	7	10000	2	1	0	2	0
227	811	7	10000	2	1	0	2	0
219	813	7	10000	2	1	0	2	0
215	814	7	10000	2	1	0	2	0
220	815	7	10000	2	1	0	2	0
225	816	7	10000	2	1	0	2	0
219	817	7	10000	2	1	0	2	0
210	818	7	10000	2	1	0	2	0
208	819	7	10000	2	1	0	2	0
213	820	7	10000	2	1	0	2	0
212	820	7	10000	2	1	0	2	0
207	821	7	10000	2	1	0	2	0
199	823	7	10000	2	1	0	2	0
200	824	7	10000	2	1	0	2	0
208	825	7	10000	2	1	0	2	0
203	826	7	10000	2	1	0	2	0
193	827	7	10000	2	1	0	2	0
190	828	7	10000	2	1	0	2	0
193	829	7	10000	2	1	0	2	0
202	830	7	10000	2	1	0	2	0
210	830	7	10000	2	1	0	2	0
211	831	7	10000	2	1	0	2	0
206	833	7	10000	2	1	0	2	0
198	834	7	10000	2	1	0	2	0
196	835	7	10000	2	1	0	2	0
198	836	7	10000	2	1	0	2	0
194	837	7	10000	2	1	0	2	0
186	838	7	10000	2	1	0	2	0
179	839	7	10000	2	1	0	2	0
173	840	7	10000	2	1	0	2	0
173	840	7	10000	2	1	0	2	0
171	841	7	10000	2	1	0	2	0
164	843	7	10000	2	1	0	2	0
158	844	7	10000	2	1	0	2	0
156	845	7	10000	2	1	0	2	0
170	846	7	10000	2	1	0	2	0
178	847	7	10000	2	1	0	2	0
180	848	7	10000	2	1	0	2	0
223	849	7	10000	2	1	0	2	0
263	850	7	10000	2	1	0	2	0
265	850	7	10000	2	1	0	2	0
266	851	7	10000	2	1	0	2	0
277	853	7	10000	2	1	0	2	0
290	854	7	10000	2	1	0	2	0
304	855	7	10000	2	1	0	2	0
317	856	7	10000	2	1	0	2	0
309	857	7	10000	2	1	0	2	0
308	858	7	10000	2	1	0	2	0
321	859	7	10000	2	1	0	2	0
326	860	7	10000	2	1	0	2	0
315	860	7	10000	2	1	0	2	0
307	861	7	10000	2	1	0	2	0
302	863	7	10000	2	1	0	2	0
297	864	7	10000	2	1	0	2	0
288	865	7	10000	2	1	0	2	0
276	866	7	10000	2	1	0	2	0
270	867	7	10000	2	1	0	2	0
265	868	7	10000	2	1	0	2	0
272	869	7	10000	2	1	0	2	0
274	870	7	10000	2	1	0	2	0
293	870	7	10000	2	1	0	2	0
310	871	7	10000	2	1	0	2	0
315	873	7	10000	2	1	0	2	0
345	874	7	10000	2	1	0	2	0
352	875	7	10000	2	1	0	2	0
343	876	7	10000	2	1	0	2	0
348	877	7	10000	2	1	0	2	0
354	878	7	10000	2	1	0	2	0
380	879	7	10000	2	1	0	2	0
420	880	7	10000	2	1	0	2	0
417	880	7	10000	2	1	0	2	0
402	881	7	10000	2	1	0	2	0
393	883	7	10000	2	1	0	2	0
395	884	7	10000	2	1	0	2	0
398	885	7	10000	2	1	0	2	0
414	886	7	10000	2	1	0	2	0
441	887	7	10000	2	1	0	2	0
460	888	7	10000	2	1	0	2	0
455	889	7	10000	2	1	0	2	0
437	890	7	10000	2	1	0	2	0
427	890	7	10000	2	1	0	2	0
427	891	7	10000	2	1	0	2	0
419	893	7	10000	2	1	0	2	0
420	894	7	10000	2	1	0	2	0
425	895	7	10000	2	1	0	2	0
419	896	7	10000	2	1	0	2	0
416	897	7	10000	2	1	0	2	0
423	898	7	10000	2	1	0	2	0
436	899	7	10000	2	1	0	2	0
436	900	7	10000	2	1	0	2	0
439	900	7	10000	2	1	0	2	0
443	901	7	10000	2	1	0	2	0
431	903	7	10000	2	1	0	2	0
432	904	7	10000	2	1	0	2	0
437	905	7	10000	2	1	0	2	0
431	906	7	10000	2	1	0	2	0
417	907	7	10000	2	1	0	2	0
404	908	7	10000	2	1	0	2	0
401	909	7	10000	2	1	0	2	0
391	910	7	10000	2	1	0	2	0
376	910	7	10000	2	1	0	2	0
361	911	7	10000	2	1	0	2	0
350	913	7	10000	2	1	0	2	0
340	914	7	10000	2	1	0	2	0
353	915	7	10000	2	1	0	2	0
397	916	7	10000	2	1	0	2	0
404	917	7	10000	2	1	0	2	0
444	918	7	10000	2	1	0	2	0
511	919	7	10000	2	1	0	2	0
538	920	7	10000	2	1	0	2	0
522	920	7	10000	2	1	0	2	0
498	921	7	10000	2	1	0	2	0
477	923	7	10000	2	1	0	2	0
461	924	7	10000	2	1	0	2	0
464	925	7	10000	2	1	0	2	0
453	926	7	10000	2	1	0	2	0
449	927	7	10000	2	1	0	2	0
445	928	7	10000	2	1	0	2	0
439	929	7	10000	2	1	0	2	0
432	930	7	10000	2	1	0	2	0
417	930	7	10000	2	1	0	2	0
404	931	7	10000	2	1	0	2	0
418	933	7	10000	2	1	0	2	0
467	934	7	10000	2	1	0	2	0
508	935	7	10000	2	1	0	2	0
523	936	7	10000	2	1	0	2	0
513	937	7	10000	2	1	0	2	0
504	938	7	10000	2	1	0	2	0
516	939	7	10000	2	1	0	2	0
532	940	7	10000	2	1	0	2	0
546	940	7	10000	2	1	0	2	0
555	941	7	10000	2	1	0	2	0
547	943	7	10000	2	1	0	2	0
527	944	7	10000	2	1	0	2	0
508	945	7	10000	2	1	0	2	0
495	946	7	10000	2	1	0	2	0
475	947	7	10000	2	1	0	2	0
458	948	7	10000	2	1	0	2	0
444	949	7	10000	2	1	0	2	0
427	950	7	10000	2	1	0	2	0
408	950	7	10000	2	1	0	2	0
393	951	7	10000	2	1	0	2	0
391	953	7	10000	2	1	0	2	0
382	954	7	10000	2	1	0	2	0
376	955	7	10000	2	1	0	2	0
366	956	7	10000	2	1	0	2	0
359	957	7	10000	2	1	0	2	0
345	958	7	10000	2	1	0	2	0
333	959	7	10000	2	1	0	2	0
326	960	7	10000	2	1	0	2	0
316	960	7	10000	2	1	0	2	0
321	961	7	10000	2	1	0	2	0
326	963	7	10000	2	1	0	2	0
322	964	7	10000	2	1	0	2	0
309	965	7	10000	2	1	0	2	0
305	966	7	10000	2	1	0	2	0
301	967	7	10000	2	1	0	2	0
300	968	7	10000	2	1	0	2	0
293	969	7	10000	2	1	0	2	0
305	970	7	10000	2	1	0	2	0
326	970	7	10000	2	1	0	2	0
334	971	7	10000	2	1	0	2	0
324	973	7	10000	2	1	0	2	0
314	974	7	10000	2	1	0	2	0
300	975	7	10000	2	1	0	2	0
288	976	7	10000	2	1	0	2	0
279	977	7	10000	2	1	0	2	0
269	978	7	10000	2	1	0	2	0
263	979	7	10000	2	1	0	2	0
264	980	7	10000	2	1	0	2	0
260	980	7	10000	2	1	0	2	0
251	981	7	10000	2	1	0	2	0
261	983	7	10000	2	1	0	2	0
277	984	7	10000	2	1	0	2	0
274	985	7	10000	2	1	0	2	0
275	986	7	10000	2	1	0	2	0
262	987	7	10000	2	1	0	2	0
260	988	7	10000	2	1	0	2	0
271	989	7	10000	2	1	0	2	0
271	990	7	10000	2	1	0	2	0
267	990	7	10000	2	1	0	2	0
258	991	7	10000	2	1	0	2	0
246	993	7	10000	2	1	0	2	0
243	994	7	10000	2	1	0	2	0
249	995	7	10000	2	1	0	2	0
265	996	7	10000	2	1	0	2	0
268	997	7	10000	2	1	0	2	0
256	998	7	10000	2	1	0	2	0
246	999	7	10000	2	1	0	2	0
238	1000	7	10000	2	1	0	2	0
237	1000	7	10000	2	1	0	2	0
237	1001	7	10000	2	1	0	2	0
135	1	0	10000	3	1	0	3	0
131	2	0	10000	3	1	0	3	0
129	3	0	10000	3	1	0	3	0
124	4	0	10000	3	1	0	3	0
119	5	0	10000	3	1	0	3	0
116	6	0	10000	3	1	0	3	0
116	7	0	10000	3	1	0	3	0
120	8	0	10000	3	1	0	3	0
118	9	0	10000	3	1	0	3	0
116	10	0	10000	3	1	0	3	0
117	11	0	10000	3	1	0	3	0
117	12	0	10000	3	1	0	3	0
118	13	0	10000	3	1	0	3	0
124	14	0	10000	3	1	0	3	0
126	15	0	10000	3	1	0	3	0
122	16	0	10000	3	1	0	3	0
118	17	0	10000	3	1	0	3	0
114	18	0	10000	3	1	0	3	0
115	19	0	10000	3	1	0	3	0
112	20	0	10000	3	1	0	3	0
108	21	0	10000	3	1	0	3	0
106	22	0	10000	3	1	0	3	0
104	23	0	10000	3	1	0	3	0
109	24	0	10000	3	1	0	3	0
119	25	0	10000	3	1	0	3	0
122	26	0	10000	3	1	0	3	0
121	27	0	10000	3	1	0	3	0
125	28	0	10000	3	1	0	3	0
127	29	0	10000	3	1	0	3	0
129	30	0	10000	3	1	0	3	0
138	31	0	10000	3	1	0	3	0
144	32	0	10000	3	1	0	3	0
144	33	0	10000	3	1	0	3	0
144	34	0	10000	3	1	0	3	0
140	35	0	10000	3	1	0	3	0
133	36	0	10000	3	1	0	3	0
129	37	0	10000	3	1	0	3	0
130	38	0	10000	3	1	0	3	0
132	39	0	10000	3	1	0	3	0
129	40	0	10000	3	1	0	3	0
128	41	0	10000	3	1	0	3	0
126	42	0	10000	3	1	0	3	0
124	43	0	10000	3	1	0	3	0
122	44	0	10000	3	1	0	3	0
120	45	0	10000	3	1	0	3	0
117	46	0	10000	3	1	0	3	0
115	47	0	10000	3	1	0	3	0
113	48	0	10000	3	1	0	3	0
110	49	0	10000	3	1	0	3	0
121	50	0	10000	3	1	0	3	0
128	51	0	10000	3	1	0	3	0
124	52	0	10000	3	1	0	3	0
119	53	0	10000	3	1	0	3	0
115	54	0	10000	3	1	0	3	0
115	55	0	10000	3	1	0	3	0
116	56	0	10000	3	1	0	3	0
120	57	0	10000	3	1	0	3	0
119	58	0	10000	3	1	0	3	0
117	59	0	10000	3	1	0	3	0
112	60	0	10000	3	1	0	3	0
107	61	0	10000	3	1	0	3	0
105	62	0	10000	3	1	0	3	0
111	63	0	10000	3	1	0	3	0
119	64	0	10000	3	1	0	3	0
117	65	0	10000	3	1	0	3	0
114	66	0	10000	3	1	0	3	0
111	67	0	10000	3	1	0	3	0
113	68	0	10000	3	1	0	3	0
112	69	0	10000	3	1	0	3	0
109	70	0	10000	3	1	0	3	0
108	71	0	10000	3	1	0	3	0
105	72	0	10000	3	1	0	3	0
101	73	0	10000	3	1	0	3	0
98	74	0	10000	3	1	0	3	0
97	75	0	10000	3	1	0	3	0
95	76	0	10000	3	1	0	3	0
95	77	0	10000	3	1	0	3	0
92	78	0	10000	3	1	0	3	0
89	79	0	10000	3	1	0	3	0
86	80	0	10000	3	1	0	3	0
85	81	0	10000	3	1	0	3	0
87	82	0	10000	3	1	0	3	0
86	83	0	10000	3	1	0	3	0
87	84	0	10000	3	1	0	3	0
92	85	0	10000	3	1	0	3	0
93	86	0	10000	3	1	0	3	0
97	87	0	10000	3	1	0	3	0
101	88	0	10000	3	1	0	3	0
97	89	0	10000	3	1	0	3	0
94	90	0	10000	3	1	0	3	0
92	91	0	10000	3	1	0	3	0
91	92	0	10000	3	1	0	3	0
91	93	0	10000	3	1	0	3	0
90	94	0	10000	3	1	0	3	0
90	95	0	10000	3	1	0	3	0
90	96	0	10000	3	1	0	3	0
91	97	0	10000	3	1	0	3	0
92	98	0	10000	3	1	0	3	0
93	99	0	10000	3	1	0	3	0
98	100	0	10000	3	1	0	3	0
105	101	0	10000	3	1	0	3	0
109	102	0	10000	3	1	0	3	0
111	103	0	10000	3	1	0	3	0
109	104	0	10000	3	1	0	3	0
106	105	0	10000	3	1	0	3	0
104	106	0	10000	3	1	0	3	0
102	107	0	10000	3	1	0	3	0
103	108	0	10000	3	1	0	3	0
97	109	0	10000	3	1	0	3	0
102	110	0	10000	3	1	0	3	0
110	111	0	10000	3	1	0	3	0
113	112	0	10000	3	1	0	3	0
115	113	0	10000	3	1	0	3	0
114	114	0	10000	3	1	0	3	0
123	115	0	10000	3	1	0	3	0
127	116	0	10000	3	1	0	3	0
129	117	0	10000	3	1	0	3	0
147	118	0	10000	3	1	0	3	0
167	119	0	10000	3	1	0	3	0
175	120	0	10000	3	1	0	3	0
176	121	0	10000	3	1	0	3	0
170	122	0	10000	3	1	0	3	0
167	123	0	10000	3	1	0	3	0
164	124	0	10000	3	1	0	3	0
161	125	0	10000	3	1	0	3	0
156	126	0	10000	3	1	0	3	0
152	127	0	10000	3	1	0	3	0
151	128	0	10000	3	1	0	3	0
148	129	0	10000	3	1	0	3	0
145	130	0	10000	3	1	0	3	0
140	131	0	10000	3	1	0	3	0
133	132	0	10000	3	1	0	3	0
131	133	0	10000	3	1	0	3	0
130	134	0	10000	3	1	0	3	0
126	135	0	10000	3	1	0	3	0
120	136	0	10000	3	1	0	3	0
117	137	0	10000	3	1	0	3	0
116	138	0	10000	3	1	0	3	0
119	139	0	10000	3	1	0	3	0
116	140	0	10000	3	1	0	3	0
123	141	0	10000	3	1	0	3	0
134	142	0	10000	3	1	0	3	0
136	143	0	10000	3	1	0	3	0
134	144	0	10000	3	1	0	3	0
140	145	0	10000	3	1	0	3	0
140	146	0	10000	3	1	0	3	0
144	147	0	10000	3	1	0	3	0
150	148	0	10000	3	1	0	3	0
152	149	0	10000	3	1	0	3	0
152	150	0	10000	3	1	0	3	0
150	151	0	10000	3	1	0	3	0
145	152	0	10000	3	1	0	3	0
144	153	0	10000	3	1	0	3	0
142	154	0	10000	3	1	0	3	0
140	155	0	10000	3	1	0	3	0
136	156	0	10000	3	1	0	3	0
130	157	0	10000	3	1	0	3	0
126	158	0	10000	3	1	0	3	0
125	159	0	10000	3	1	0	3	0
122	160	0	10000	3	1	0	3	0
127	161	0	10000	3	1	0	3	0
127	162	0	10000	3	1	0	3	0
124	163	0	10000	3	1	0	3	0
120	164	0	10000	3	1	0	3	0
122	165	0	10000	3	1	0	3	0
128	166	0	10000	3	1	0	3	0
131	167	0	10000	3	1	0	3	0
128	168	0	10000	3	1	0	3	0
132	169	0	10000	3	1	0	3	0
138	170	0	10000	3	1	0	3	0
137	171	0	10000	3	1	0	3	0
135	172	0	10000	3	1	0	3	0
141	173	0	10000	3	1	0	3	0
147	174	0	10000	3	1	0	3	0
146	175	0	10000	3	1	0	3	0
141	176	0	10000	3	1	0	3	0
140	177	0	10000	3	1	0	3	0
140	178	0	10000	3	1	0	3	0
141	179	0	10000	3	1	0	3	0
143	180	0	10000	3	1	0	3	0
155	181	0	10000	3	1	0	3	0
167	182	0	10000	3	1	0	3	0
171	183	0	10000	3	1	0	3	0
164	184	0	10000	3	1	0	3	0
162	185	0	10000	3	1	0	3	0
157	186	0	10000	3	1	0	3	0
153	187	0	10000	3	1	0	3	0
152	188	0	10000	3	1	0	3	0
147	189	0	10000	3	1	0	3	0
156	190	0	10000	3	1	0	3	0
157	191	0	10000	3	1	0	3	0
165	192	0	10000	3	1	0	3	0
180	193	0	10000	3	1	0	3	0
176	194	0	10000	3	1	0	3	0
182	195	0	10000	3	1	0	3	0
187	196	0	10000	3	1	0	3	0
183	197	0	10000	3	1	0	3	0
178	198	0	10000	3	1	0	3	0
173	199	0	10000	3	1	0	3	0
167	200	0	10000	3	1	0	3	0
160	201	0	10000	3	1	0	3	0
155	202	0	10000	3	1	0	3	0
152	203	0	10000	3	1	0	3	0
150	204	0	10000	3	1	0	3	0
150	205	0	10000	3	1	0	3	0
147	206	0	10000	3	1	0	3	0
152	207	0	10000	3	1	0	3	0
158	208	0	10000	3	1	0	3	0
164	209	0	10000	3	1	0	3	0
183	210	0	10000	3	1	0	3	0
195	211	0	10000	3	1	0	3	0
195	212	0	10000	3	1	0	3	0
214	213	0	10000	3	1	0	3	0
225	214	0	10000	3	1	0	3	0
232	215	0	10000	3	1	0	3	0
229	216	0	10000	3	1	0	3	0
226	217	0	10000	3	1	0	3	0
240	218	0	10000	3	1	0	3	0
256	219	0	10000	3	1	0	3	0
256	220	0	10000	3	1	0	3	0
257	221	0	10000	3	1	0	3	0
261	222	0	10000	3	1	0	3	0
256	223	0	10000	3	1	0	3	0
248	224	0	10000	3	1	0	3	0
238	225	0	10000	3	1	0	3	0
242	226	0	10000	3	1	0	3	0
243	227	0	10000	3	1	0	3	0
237	228	0	10000	3	1	0	3	0
227	229	0	10000	3	1	0	3	0
222	230	0	10000	3	1	0	3	0
214	231	0	10000	3	1	0	3	0
207	232	0	10000	3	1	0	3	0
201	233	0	10000	3	1	0	3	0
193	234	0	10000	3	1	0	3	0
185	235	0	10000	3	1	0	3	0
186	236	0	10000	3	1	0	3	0
195	237	0	10000	3	1	0	3	0
201	238	0	10000	3	1	0	3	0
202	239	0	10000	3	1	0	3	0
192	240	0	10000	3	1	0	3	0
185	241	0	10000	3	1	0	3	0
186	242	0	10000	3	1	0	3	0
192	243	0	10000	3	1	0	3	0
192	244	0	10000	3	1	0	3	0
191	245	0	10000	3	1	0	3	0
191	246	0	10000	3	1	0	3	0
186	247	0	10000	3	1	0	3	0
184	248	0	10000	3	1	0	3	0
181	249	0	10000	3	1	0	3	0
176	250	0	10000	3	1	0	3	0
171	251	0	10000	3	1	0	3	0
171	252	0	10000	3	1	0	3	0
166	253	0	10000	3	1	0	3	0
159	254	0	10000	3	1	0	3	0
152	255	0	10000	3	1	0	3	0
147	256	0	10000	3	1	0	3	0
146	257	0	10000	3	1	0	3	0
142	258	0	10000	3	1	0	3	0
138	259	0	10000	3	1	0	3	0
138	260	0	10000	3	1	0	3	0
138	261	0	10000	3	1	0	3	0
152	262	0	10000	3	1	0	3	0
169	263	0	10000	3	1	0	3	0
181	264	0	10000	3	1	0	3	0
182	265	0	10000	3	1	0	3	0
176	266	0	10000	3	1	0	3	0
175	267	0	10000	3	1	0	3	0
175	268	0	10000	3	1	0	3	0
166	269	0	10000	3	1	0	3	0
160	270	0	10000	3	1	0	3	0
158	271	0	10000	3	1	0	3	0
155	272	0	10000	3	1	0	3	0
152	273	0	10000	3	1	0	3	0
158	274	0	10000	3	1	0	3	0
163	275	0	10000	3	1	0	3	0
161	276	0	10000	3	1	0	3	0
154	277	0	10000	3	1	0	3	0
148	278	0	10000	3	1	0	3	0
147	279	0	10000	3	1	0	3	0
143	280	0	10000	3	1	0	3	0
138	281	0	10000	3	1	0	3	0
131	282	0	10000	3	1	0	3	0
126	283	0	10000	3	1	0	3	0
135	284	0	10000	3	1	0	3	0
154	285	0	10000	3	1	0	3	0
169	286	0	10000	3	1	0	3	0
174	287	0	10000	3	1	0	3	0
174	288	0	10000	3	1	0	3	0
168	289	0	10000	3	1	0	3	0
166	290	0	10000	3	1	0	3	0
162	291	0	10000	3	1	0	3	0
158	292	0	10000	3	1	0	3	0
151	293	0	10000	3	1	0	3	0
146	294	0	10000	3	1	0	3	0
143	295	0	10000	3	1	0	3	0
142	296	0	10000	3	1	0	3	0
148	297	0	10000	3	1	0	3	0
155	298	0	10000	3	1	0	3	0
165	299	0	10000	3	1	0	3	0
180	300	0	10000	3	1	0	3	0
189	301	0	10000	3	1	0	3	0
185	302	0	10000	3	1	0	3	0
178	303	0	10000	3	1	0	3	0
174	304	0	10000	3	1	0	3	0
166	305	0	10000	3	1	0	3	0
160	306	0	10000	3	1	0	3	0
154	307	0	10000	3	1	0	3	0
152	308	0	10000	3	1	0	3	0
148	309	0	10000	3	1	0	3	0
144	310	0	10000	3	1	0	3	0
139	311	0	10000	3	1	0	3	0
136	312	0	10000	3	1	0	3	0
133	313	0	10000	3	1	0	3	0
131	314	0	10000	3	1	0	3	0
129	315	0	10000	3	1	0	3	0
124	316	0	10000	3	1	0	3	0
119	317	0	10000	3	1	0	3	0
120	318	0	10000	3	1	0	3	0
126	319	0	10000	3	1	0	3	0
126	320	0	10000	3	1	0	3	0
127	321	0	10000	3	1	0	3	0
131	322	0	10000	3	1	0	3	0
138	323	0	10000	3	1	0	3	0
146	324	0	10000	3	1	0	3	0
158	325	0	10000	3	1	0	3	0
167	326	0	10000	3	1	0	3	0
170	327	0	10000	3	1	0	3	0
165	328	0	10000	3	1	0	3	0
161	329	0	10000	3	1	0	3	0
161	330	0	10000	3	1	0	3	0
158	331	0	10000	3	1	0	3	0
156	332	0	10000	3	1	0	3	0
153	333	0	10000	3	1	0	3	0
148	334	0	10000	3	1	0	3	0
142	335	0	10000	3	1	0	3	0
137	336	0	10000	3	1	0	3	0
136	337	0	10000	3	1	0	3	0
137	338	0	10000	3	1	0	3	0
142	339	0	10000	3	1	0	3	0
139	340	0	10000	3	1	0	3	0
136	340	0	10000	3	1	0	3	0
131	341	0	10000	3	1	0	3	0
136	343	0	10000	3	1	0	3	0
144	344	0	10000	3	1	0	3	0
148	345	0	10000	3	1	0	3	0
148	346	0	10000	3	1	0	3	0
143	347	0	10000	3	1	0	3	0
138	348	0	10000	3	1	0	3	0
135	349	0	10000	3	1	0	3	0
131	350	0	10000	3	1	0	3	0
125	350	0	10000	3	1	0	3	0
121	351	0	10000	3	1	0	3	0
116	353	0	10000	3	1	0	3	0
112	354	0	10000	3	1	0	3	0
110	355	0	10000	3	1	0	3	0
108	356	0	10000	3	1	0	3	0
107	357	0	10000	3	1	0	3	0
104	358	0	10000	3	1	0	3	0
105	359	0	10000	3	1	0	3	0
105	360	0	10000	3	1	0	3	0
106	360	0	10000	3	1	0	3	0
112	361	0	10000	3	1	0	3	0
116	363	0	10000	3	1	0	3	0
112	364	0	10000	3	1	0	3	0
107	365	0	10000	3	1	0	3	0
107	366	0	10000	3	1	0	3	0
109	367	0	10000	3	1	0	3	0
110	368	0	10000	3	1	0	3	0
105	369	0	10000	3	1	0	3	0
104	370	0	10000	3	1	0	3	0
104	370	0	10000	3	1	0	3	0
100	371	0	10000	3	1	0	3	0
99	373	0	10000	3	1	0	3	0
107	374	0	10000	3	1	0	3	0
116	375	0	10000	3	1	0	3	0
117	376	0	10000	3	1	0	3	0
116	377	0	10000	3	1	0	3	0
114	378	0	10000	3	1	0	3	0
115	379	0	10000	3	1	0	3	0
118	380	0	10000	3	1	0	3	0
117	380	0	10000	3	1	0	3	0
112	381	0	10000	3	1	0	3	0
112	383	0	10000	3	1	0	3	0
115	384	0	10000	3	1	0	3	0
116	385	0	10000	3	1	0	3	0
121	386	0	10000	3	1	0	3	0
125	387	0	10000	3	1	0	3	0
124	388	0	10000	3	1	0	3	0
120	389	0	10000	3	1	0	3	0
124	390	0	10000	3	1	0	3	0
125	390	0	10000	3	1	0	3	0
122	391	0	10000	3	1	0	3	0
120	393	0	10000	3	1	0	3	0
116	394	0	10000	3	1	0	3	0
115	395	0	10000	3	1	0	3	0
118	396	0	10000	3	1	0	3	0
122	397	0	10000	3	1	0	3	0
118	398	0	10000	3	1	0	3	0
116	399	0	10000	3	1	0	3	0
113	400	0	10000	3	1	0	3	0
107	400	0	10000	3	1	0	3	0
102	401	0	10000	3	1	0	3	0
102	403	0	10000	3	1	0	3	0
103	404	0	10000	3	1	0	3	0
102	405	0	10000	3	1	0	3	0
99	406	0	10000	3	1	0	3	0
96	407	0	10000	3	1	0	3	0
95	408	0	10000	3	1	0	3	0
94	409	0	10000	3	1	0	3	0
95	410	0	10000	3	1	0	3	0
96	410	0	10000	3	1	0	3	0
93	411	0	10000	3	1	0	3	0
91	413	0	10000	3	1	0	3	0
92	414	0	10000	3	1	0	3	0
89	415	0	10000	3	1	0	3	0
88	416	0	10000	3	1	0	3	0
90	417	0	10000	3	1	0	3	0
86	418	0	10000	3	1	0	3	0
86	419	0	10000	3	1	0	3	0
84	420	0	10000	3	1	0	3	0
84	420	0	10000	3	1	0	3	0
81	421	0	10000	3	1	0	3	0
83	423	0	10000	3	1	0	3	0
88	424	0	10000	3	1	0	3	0
87	425	0	10000	3	1	0	3	0
94	426	0	10000	3	1	0	3	0
101	427	0	10000	3	1	0	3	0
104	428	0	10000	3	1	0	3	0
106	429	0	10000	3	1	0	3	0
109	430	0	10000	3	1	0	3	0
110	430	0	10000	3	1	0	3	0
106	431	0	10000	3	1	0	3	0
105	433	0	10000	3	1	0	3	0
104	434	0	10000	3	1	0	3	0
99	435	0	10000	3	1	0	3	0
95	436	0	10000	3	1	0	3	0
92	437	0	10000	3	1	0	3	0
91	438	0	10000	3	1	0	3	0
96	439	0	10000	3	1	0	3	0
99	440	0	10000	3	1	0	3	0
98	440	0	10000	3	1	0	3	0
96	441	0	10000	3	1	0	3	0
100	443	0	10000	3	1	0	3	0
97	444	0	10000	3	1	0	3	0
98	445	0	10000	3	1	0	3	0
97	446	0	10000	3	1	0	3	0
102	447	0	10000	3	1	0	3	0
108	448	0	10000	3	1	0	3	0
107	449	0	10000	3	1	0	3	0
104	450	0	10000	3	1	0	3	0
101	450	0	10000	3	1	0	3	0
97	451	0	10000	3	1	0	3	0
95	453	0	10000	3	1	0	3	0
93	454	0	10000	3	1	0	3	0
91	455	0	10000	3	1	0	3	0
90	456	0	10000	3	1	0	3	0
92	457	0	10000	3	1	0	3	0
90	458	0	10000	3	1	0	3	0
90	459	0	10000	3	1	0	3	0
95	460	0	10000	3	1	0	3	0
103	460	0	10000	3	1	0	3	0
112	461	0	10000	3	1	0	3	0
118	463	0	10000	3	1	0	3	0
117	464	0	10000	3	1	0	3	0
115	465	0	10000	3	1	0	3	0
111	466	0	10000	3	1	0	3	0
112	467	0	10000	3	1	0	3	0
109	468	0	10000	3	1	0	3	0
106	469	0	10000	3	1	0	3	0
112	470	0	10000	3	1	0	3	0
111	470	0	10000	3	1	0	3	0
114	471	0	10000	3	1	0	3	0
115	473	0	10000	3	1	0	3	0
113	474	0	10000	3	1	0	3	0
118	475	0	10000	3	1	0	3	0
123	476	0	10000	3	1	0	3	0
126	477	0	10000	3	1	0	3	0
127	478	0	10000	3	1	0	3	0
126	479	0	10000	3	1	0	3	0
131	480	0	10000	3	1	0	3	0
141	480	0	10000	3	1	0	3	0
149	481	0	10000	3	1	0	3	0
146	483	0	10000	3	1	0	3	0
143	484	0	10000	3	1	0	3	0
139	485	0	10000	3	1	0	3	0
136	486	0	10000	3	1	0	3	0
131	487	0	10000	3	1	0	3	0
126	488	0	10000	3	1	0	3	0
122	489	0	10000	3	1	0	3	0
129	490	0	10000	3	1	0	3	0
131	490	0	10000	3	1	0	3	0
128	491	0	10000	3	1	0	3	0
133	493	0	10000	3	1	0	3	0
136	494	0	10000	3	1	0	3	0
131	495	0	10000	3	1	0	3	0
124	496	0	10000	3	1	0	3	0
126	497	0	10000	3	1	0	3	0
138	498	0	10000	3	1	0	3	0
152	499	0	10000	3	1	0	3	0
151	500	0	10000	3	1	0	3	0
145	500	0	10000	3	1	0	3	0
142	501	0	10000	3	1	0	3	0
144	503	0	10000	3	1	0	3	1
144	504	0	10000	3	1	0	3	1
143	505	0	10000	3	1	0	3	1
150	506	0	10000	3	1	0	3	1
152	507	0	10000	3	1	0	3	1
145	508	0	10000	3	1	0	3	1
139	509	0	10000	3	1	0	3	1
138	510	0	10000	3	1	0	3	1
145	510	0	10000	3	1	0	3	1
164	511	0	10000	3	1	0	3	1
185	513	0	10000	3	1	0	3	1
196	514	0	10000	3	1	0	3	1
193	515	0	10000	3	1	0	3	1
190	516	0	10000	3	1	0	3	1
184	517	0	10000	3	1	0	3	1
177	518	0	10000	3	1	0	3	1
173	519	0	10000	3	1	0	3	1
167	520	0	10000	3	1	0	3	1
163	520	0	10000	3	1	0	3	1
158	521	0	10000	3	1	0	3	1
155	523	0	10000	3	1	0	3	1
153	524	0	10000	3	1	0	3	1
157	525	0	10000	3	1	0	3	1
167	526	0	10000	3	1	0	3	1
168	527	0	10000	3	1	0	3	1
166	528	0	10000	3	1	0	3	1
173	529	0	10000	3	1	0	3	1
178	530	0	10000	3	1	0	3	1
175	530	0	10000	3	1	0	3	1
174	531	0	10000	3	1	0	3	1
173	533	0	10000	3	1	0	3	1
167	534	0	10000	3	1	0	3	1
168	535	0	10000	3	1	0	3	1
176	536	0	10000	3	1	0	3	1
185	537	0	10000	3	1	0	3	1
183	538	0	10000	3	1	0	3	1
181	539	0	10000	3	1	0	3	1
178	540	0	10000	3	1	0	3	1
184	540	0	10000	3	1	0	3	1
182	541	0	10000	3	1	0	3	1
203	543	0	10000	3	1	0	3	1
229	544	0	10000	3	1	0	3	1
236	545	0	10000	3	1	0	3	1
233	546	0	10000	3	1	0	3	1
225	547	0	10000	3	1	0	3	1
228	548	0	10000	3	1	0	3	1
234	549	0	10000	3	1	0	3	1
238	550	0	10000	3	1	0	3	1
239	550	0	10000	3	1	0	3	1
236	551	0	10000	3	1	0	3	1
232	553	0	10000	3	1	0	3	0
241	554	0	10000	3	1	0	3	0
255	555	0	10000	3	1	0	3	0
252	556	0	10000	3	1	0	3	0
242	557	0	10000	3	1	0	3	0
231	558	0	10000	3	1	0	3	0
229	559	0	10000	3	1	0	3	0
226	560	0	10000	3	1	0	3	0
220	560	0	10000	3	1	0	3	0
210	561	0	10000	3	1	0	3	0
202	563	0	10000	3	1	0	3	0
195	564	0	10000	3	1	0	3	0
195	565	0	10000	3	1	0	3	0
196	566	0	10000	3	1	0	3	0
196	567	0	10000	3	1	0	3	0
191	568	0	10000	3	1	0	3	0
182	569	0	10000	3	1	0	3	0
182	570	0	10000	3	1	0	3	0
185	570	0	10000	3	1	0	3	0
181	571	0	10000	3	1	0	3	0
183	573	0	10000	3	1	0	3	0
178	574	0	10000	3	1	0	3	0
173	575	0	10000	3	1	0	3	0
172	576	0	10000	3	1	0	3	0
175	577	0	10000	3	1	0	3	0
170	578	0	10000	3	1	0	3	0
167	579	0	10000	3	1	0	3	0
162	580	0	10000	3	1	0	3	0
158	580	0	10000	3	1	0	3	0
157	581	0	10000	3	1	0	3	0
156	583	0	10000	3	1	0	3	0
168	584	0	10000	3	1	0	3	0
169	585	0	10000	3	1	0	3	0
185	586	0	10000	3	1	0	3	0
194	587	0	10000	3	1	0	3	0
201	588	0	10000	3	1	0	3	0
226	589	0	10000	3	1	0	3	0
258	590	0	10000	3	1	0	3	0
271	590	0	10000	3	1	0	3	0
270	591	0	10000	3	1	0	3	0
263	593	0	10000	3	1	0	3	0
267	594	0	10000	3	1	0	3	0
280	595	0	10000	3	1	0	3	0
292	596	0	10000	3	1	0	3	0
296	597	0	10000	3	1	0	3	0
291	598	0	10000	3	1	0	3	0
298	599	0	10000	3	1	0	3	0
295	600	0	10000	3	1	0	3	0
297	600	0	10000	3	1	0	3	0
286	601	0	10000	3	1	0	3	0
309	603	0	10000	3	1	0	3	0
367	604	0	10000	3	1	0	3	0
369	605	0	10000	3	1	0	3	0
405	606	0	10000	3	1	0	3	0
432	607	0	10000	3	1	0	3	0
461	608	0	10000	3	1	0	3	0
476	609	0	10000	3	1	0	3	0
495	610	0	10000	3	1	0	3	0
513	610	0	10000	3	1	0	3	0
498	611	0	10000	3	1	0	3	0
519	613	0	10000	3	1	0	3	0
521	614	0	10000	3	1	0	3	0
502	615	0	10000	3	1	0	3	0
484	616	0	10000	3	1	0	3	0
478	617	0	10000	3	1	0	3	0
470	618	0	10000	3	1	0	3	0
470	619	0	10000	3	1	0	3	0
505	620	0	10000	3	1	0	3	0
559	620	0	10000	3	1	0	3	0
586	621	0	10000	3	1	0	3	0
582	623	0	10000	3	1	0	3	0
564	624	0	10000	3	1	0	3	0
544	625	0	10000	3	1	0	3	0
541	626	0	10000	3	1	0	3	0
553	627	0	10000	3	1	0	3	0
563	628	0	10000	3	1	0	3	0
566	629	0	10000	3	1	0	3	0
570	630	0	10000	3	1	0	3	0
562	630	0	10000	3	1	0	3	0
539	631	0	10000	3	1	0	3	0
521	633	0	10000	3	1	0	3	0
501	634	0	10000	3	1	0	3	0
486	635	0	10000	3	1	0	3	0
481	636	0	10000	3	1	0	3	0
470	637	0	10000	3	1	0	3	0
451	638	0	10000	3	1	0	3	0
437	639	0	10000	3	1	0	3	0
424	640	0	10000	3	1	0	3	0
421	640	0	10000	3	1	0	3	0
428	641	0	10000	3	1	0	3	0
438	643	0	10000	3	1	0	3	0
450	644	0	10000	3	1	0	3	0
466	645	0	10000	3	1	0	3	0
477	646	0	10000	3	1	0	3	0
480	647	0	10000	3	1	0	3	0
479	648	0	10000	3	1	0	3	0
475	649	0	10000	3	1	0	3	0
480	650	0	10000	3	1	0	3	0
490	650	0	10000	3	1	0	3	0
499	651	0	10000	3	1	0	3	0
492	653	0	10000	3	1	0	3	0
472	654	0	10000	3	1	0	3	0
453	655	0	10000	3	1	0	3	0
441	656	0	10000	3	1	0	3	0
434	657	0	10000	3	1	0	3	0
437	658	0	10000	3	1	0	3	0
439	659	0	10000	3	1	0	3	0
435	660	0	10000	3	1	0	3	0
436	660	0	10000	3	1	0	3	0
441	661	0	10000	3	1	0	3	0
448	663	0	10000	3	1	0	3	0
458	664	0	10000	3	1	0	3	0
466	665	0	10000	3	1	0	3	0
472	666	0	10000	3	1	0	3	0
476	667	0	10000	3	1	0	3	0
465	668	0	10000	3	1	0	3	0
446	669	0	10000	3	1	0	3	0
428	670	0	10000	3	1	0	3	0
417	670	0	10000	3	1	0	3	0
409	671	0	10000	3	1	0	3	0
399	673	0	10000	3	1	0	3	0
383	674	0	10000	3	1	0	3	0
366	675	0	10000	3	1	0	3	0
352	676	0	10000	3	1	0	3	0
338	677	0	10000	3	1	0	3	0
330	678	0	10000	3	1	0	3	0
318	679	0	10000	3	1	0	3	0
315	680	0	10000	3	1	0	3	0
335	680	0	10000	3	1	0	3	0
360	681	0	10000	3	1	0	3	0
384	683	0	10000	3	1	0	3	0
399	684	0	10000	3	1	0	3	0
412	685	0	10000	3	1	0	3	0
430	686	0	10000	3	1	0	3	0
448	687	0	10000	3	1	0	3	0
475	688	0	10000	3	1	0	3	0
508	689	0	10000	3	1	0	3	0
526	690	0	10000	3	1	0	3	0
537	690	0	10000	3	1	0	3	0
548	691	0	10000	3	1	0	3	0
562	693	0	10000	3	1	0	3	0
573	694	0	10000	3	1	0	3	0
585	695	0	10000	3	1	0	3	0
585	696	0	10000	3	1	0	3	0
564	697	0	10000	3	1	0	3	0
545	698	0	10000	3	1	0	3	0
530	699	0	10000	3	1	0	3	0
538	700	0	10000	3	1	0	3	0
565	700	0	10000	3	1	0	3	0
598	701	0	10000	3	1	0	3	0
626	703	0	10000	3	1	0	3	0
632	704	0	10000	3	1	0	3	0
637	705	0	10000	3	1	0	3	0
648	706	0	10000	3	1	0	3	0
659	707	0	10000	3	1	0	3	0
663	708	0	10000	3	1	0	3	0
662	709	0	10000	3	1	0	3	0
659	710	0	10000	3	1	0	3	0
658	710	0	10000	3	1	0	3	0
655	711	0	10000	3	1	0	3	0
653	713	0	10000	3	1	0	3	0
639	714	0	10000	3	1	0	3	0
618	715	0	10000	3	1	0	3	0
597	716	0	10000	3	1	0	3	0
584	717	0	10000	3	1	0	3	0
574	718	0	10000	3	1	0	3	0
555	719	0	10000	3	1	0	3	0
530	720	0	10000	3	1	0	3	0
510	720	0	10000	3	1	0	3	0
491	721	0	10000	3	1	0	3	0
472	723	0	10000	3	1	0	3	0
481	724	0	10000	3	1	0	3	0
504	725	0	10000	3	1	0	3	0
523	726	0	10000	3	1	0	3	0
538	727	0	10000	3	1	0	3	0
528	728	0	10000	3	1	0	3	0
509	729	0	10000	3	1	0	3	0
506	730	0	10000	3	1	0	3	0
505	730	0	10000	3	1	0	3	0
494	731	0	10000	3	1	0	3	0
472	733	0	10000	3	1	0	3	0
452	734	0	10000	3	1	0	3	0
435	735	0	10000	3	1	0	3	0
425	736	0	10000	3	1	0	3	0
431	737	0	10000	3	1	0	3	0
445	738	0	10000	3	1	0	3	0
448	739	0	10000	3	1	0	3	0
431	740	0	10000	3	1	0	3	0
420	740	0	10000	3	1	0	3	0
429	741	0	10000	3	1	0	3	0
454	743	0	10000	3	1	0	3	0
461	744	0	10000	3	1	0	3	0
443	745	0	10000	3	1	0	3	0
428	746	0	10000	3	1	0	3	0
418	747	0	10000	3	1	0	3	0
401	748	0	10000	3	1	0	3	0
382	749	0	10000	3	1	0	3	0
366	750	0	10000	3	1	0	3	0
357	750	0	10000	3	1	0	3	0
348	751	0	10000	3	1	0	3	0
341	753	0	10000	3	1	0	3	0
389	754	0	10000	3	1	0	3	0
440	755	0	10000	3	1	0	3	0
435	756	0	10000	3	1	0	3	0
453	757	0	10000	3	1	0	3	0
487	758	0	10000	3	1	0	3	0
516	759	0	10000	3	1	0	3	0
527	760	0	10000	3	1	0	3	0
539	760	0	10000	3	1	0	3	0
551	761	0	10000	3	1	0	3	0
553	763	0	10000	3	1	0	3	0
564	764	0	10000	3	1	0	3	0
589	765	0	10000	3	1	0	3	0
607	766	0	10000	3	1	0	3	0
601	767	0	10000	3	1	0	3	0
577	768	0	10000	3	1	0	3	0
569	769	0	10000	3	1	0	3	0
576	770	0	10000	3	1	0	3	0
564	770	0	10000	3	1	0	3	0
540	771	0	10000	3	1	0	3	0
540	773	0	10000	3	1	0	3	0
567	774	0	10000	3	1	0	3	0
586	775	0	10000	3	1	0	3	0
571	776	0	10000	3	1	0	3	0
574	777	0	10000	3	1	0	3	0
603	778	0	10000	3	1	0	3	0
619	779	0	10000	3	1	0	3	0
594	780	0	10000	3	1	0	3	0
569	780	0	10000	3	1	0	3	0
554	781	0	10000	3	1	0	3	0
562	783	0	10000	3	1	0	3	0
544	784	0	10000	3	1	0	3	0
523	785	0	10000	3	1	0	3	0
511	786	0	10000	3	1	0	3	0
514	787	0	10000	3	1	0	3	0
566	788	0	10000	3	1	0	3	0
615	789	0	10000	3	1	0	3	0
636	790	0	10000	3	1	0	3	0
625	790	0	10000	3	1	0	3	0
604	791	0	10000	3	1	0	3	0
594	793	0	10000	3	1	0	3	0
603	794	0	10000	3	1	0	3	0
622	795	0	10000	3	1	0	3	0
612	796	0	10000	3	1	0	3	0
652	797	0	10000	3	1	0	3	0
718	798	0	10000	3	1	0	3	0
733	799	0	10000	3	1	0	3	0
720	800	0	10000	3	1	0	3	0
731	800	0	10000	3	1	0	3	0
735	801	0	10000	3	1	0	3	0
728	803	0	10000	3	1	0	3	0
706	804	0	10000	3	1	0	3	0
713	805	0	10000	3	1	0	3	0
730	806	0	10000	3	1	0	3	0
757	807	0	10000	3	1	0	3	0
745	808	0	10000	3	1	0	3	0
755	809	0	10000	3	1	0	3	0
745	810	0	10000	3	1	0	3	0
748	810	0	10000	3	1	0	3	0
779	811	0	10000	3	1	0	3	0
766	813	0	10000	3	1	0	3	0
791	814	0	10000	3	1	0	3	0
802	815	0	10000	3	1	0	3	0
773	816	0	10000	3	1	0	3	0
758	817	0	10000	3	1	0	3	0
732	818	0	10000	3	1	0	3	0
710	819	0	10000	3	1	0	3	0
686	820	0	10000	3	1	0	3	0
675	820	0	10000	3	1	0	3	0
680	821	0	10000	3	1	0	3	0
662	823	0	10000	3	1	0	3	0
663	824	0	10000	3	1	0	3	0
655	825	0	10000	3	1	0	3	0
641	826	0	10000	3	1	0	3	0
652	827	0	10000	3	1	0	3	0
657	828	0	10000	3	1	0	3	0
634	829	0	10000	3	1	0	3	0
631	830	0	10000	3	1	0	3	0
615	830	0	10000	3	1	0	3	0
612	831	0	10000	3	1	0	3	0
642	833	0	10000	3	1	0	3	0
656	834	0	10000	3	1	0	3	0
650	835	0	10000	3	1	0	3	0
632	836	0	10000	3	1	0	3	0
605	837	0	10000	3	1	0	3	0
579	838	0	10000	3	1	0	3	0
556	839	0	10000	3	1	0	3	0
532	840	0	10000	3	1	0	3	0
515	840	0	10000	3	1	0	3	0
495	841	0	10000	3	1	0	3	0
478	843	0	10000	3	1	0	3	0
476	844	0	10000	3	1	0	3	0
464	845	0	10000	3	1	0	3	0
455	846	0	10000	3	1	0	3	0
454	847	0	10000	3	1	0	3	0
456	848	0	10000	3	1	0	3	0
510	849	0	10000	3	1	0	3	0
542	850	0	10000	3	1	0	3	0
530	850	0	10000	3	1	0	3	0
536	851	0	10000	3	1	0	3	0
565	853	0	10000	3	1	0	3	0
597	854	0	10000	3	1	0	3	0
615	855	0	10000	3	1	0	3	0
617	856	0	10000	3	1	0	3	0
616	857	0	10000	3	1	0	3	0
598	858	0	10000	3	1	0	3	0
593	859	0	10000	3	1	0	3	0
595	860	0	10000	3	1	0	3	0
576	860	0	10000	3	1	0	3	0
567	861	0	10000	3	1	0	3	0
556	863	0	10000	3	1	0	3	0
542	864	0	10000	3	1	0	3	0
535	865	0	10000	3	1	0	3	0
521	866	0	10000	3	1	0	3	0
525	867	0	10000	3	1	0	3	0
511	868	0	10000	3	1	0	3	0
516	869	0	10000	3	1	0	3	0
554	870	0	10000	3	1	0	3	0
610	870	0	10000	3	1	0	3	0
612	871	0	10000	3	1	0	3	0
664	873	0	10000	3	1	0	3	0
701	874	0	10000	3	1	0	3	0
706	875	0	10000	3	1	0	3	0
683	876	0	10000	3	1	0	3	0
681	877	0	10000	3	1	0	3	0
686	878	0	10000	3	1	0	3	0
673	879	0	10000	3	1	0	3	0
653	880	0	10000	3	1	0	3	0
630	880	0	10000	3	1	0	3	0
603	881	0	10000	3	1	0	3	0
578	883	0	10000	3	1	0	3	0
556	884	0	10000	3	1	0	3	0
551	885	0	10000	3	1	0	3	0
545	886	0	10000	3	1	0	3	0
538	887	0	10000	3	1	0	3	0
539	888	0	10000	3	1	0	3	0
526	889	0	10000	3	1	0	3	0
509	890	0	10000	3	1	0	3	0
491	890	0	10000	3	1	0	3	0
484	891	0	10000	3	1	0	3	0
506	893	0	10000	3	1	0	3	0
514	894	0	10000	3	1	0	3	0
502	895	0	10000	3	1	0	3	0
494	896	0	10000	3	1	0	3	0
490	897	0	10000	3	1	0	3	0
477	898	0	10000	3	1	0	3	0
488	899	0	10000	3	1	0	3	0
496	900	0	10000	3	1	0	3	0
478	900	0	10000	3	1	0	3	0
467	901	0	10000	3	1	0	3	0
490	903	0	10000	3	1	0	3	0
493	904	0	10000	3	1	0	3	0
483	905	0	10000	3	1	0	3	0
480	906	0	10000	3	1	0	3	0
478	907	0	10000	3	1	0	3	0
466	908	0	10000	3	1	0	3	0
448	909	0	10000	3	1	0	3	0
443	910	0	10000	3	1	0	3	0
446	910	0	10000	3	1	0	3	0
455	911	0	10000	3	1	0	3	0
456	913	0	10000	3	1	0	3	0
467	914	0	10000	3	1	0	3	0
479	915	0	10000	3	1	0	3	0
466	916	0	10000	3	1	0	3	0
454	917	0	10000	3	1	0	3	0
437	918	0	10000	3	1	0	3	0
420	919	0	10000	3	1	0	3	0
403	920	0	10000	3	1	0	3	0
390	920	0	10000	3	1	0	3	0
376	921	0	10000	3	1	0	3	0
363	923	0	10000	3	1	0	3	0
352	924	0	10000	3	1	0	3	0
338	925	0	10000	3	1	0	3	0
334	926	0	10000	3	1	0	3	0
325	927	0	10000	3	1	0	3	0
327	928	0	10000	3	1	0	3	0
322	929	0	10000	3	1	0	3	0
347	930	0	10000	3	1	0	3	0
371	930	0	10000	3	1	0	3	0
372	931	0	10000	3	1	0	3	0
362	933	0	10000	3	1	0	3	0
369	934	0	10000	3	1	0	3	0
379	935	0	10000	3	1	0	3	0
366	936	0	10000	3	1	0	3	0
353	937	0	10000	3	1	0	3	0
341	938	0	10000	3	1	0	3	0
333	939	0	10000	3	1	0	3	0
319	940	0	10000	3	1	0	3	0
308	940	0	10000	3	1	0	3	0
314	941	0	10000	3	1	0	3	0
322	943	0	10000	3	1	0	3	0
330	944	0	10000	3	1	0	3	0
339	945	0	10000	3	1	0	3	0
338	946	0	10000	3	1	0	3	0
342	947	0	10000	3	1	0	3	0
358	948	0	10000	3	1	0	3	0
368	949	0	10000	3	1	0	3	0
357	950	0	10000	3	1	0	3	0
362	950	0	10000	3	1	0	3	0
367	951	0	10000	3	1	0	3	0
357	953	0	10000	3	1	0	3	0
359	954	0	10000	3	1	0	3	0
378	955	0	10000	3	1	0	3	0
399	956	0	10000	3	1	0	3	0
400	957	0	10000	3	1	0	3	0
390	958	0	10000	3	1	0	3	0
407	959	0	10000	3	1	0	3	0
434	960	0	10000	3	1	0	3	0
471	960	0	10000	3	1	0	3	0
488	961	0	10000	3	1	0	3	0
474	963	0	10000	3	1	0	3	0
467	964	0	10000	3	1	0	3	0
475	965	0	10000	3	1	0	3	0
476	966	0	10000	3	1	0	3	0
464	967	0	10000	3	1	0	3	0
444	968	0	10000	3	1	0	3	0
427	969	0	10000	3	1	0	3	0
421	970	0	10000	3	1	0	3	0
420	970	0	10000	3	1	0	3	0
447	971	0	10000	3	1	0	3	0
445	973	0	10000	3	1	0	3	0
425	974	0	10000	3	1	0	3	0
419	975	0	10000	3	1	0	3	0
418	976	0	10000	3	1	0	3	0
408	977	0	10000	3	1	0	3	0
393	978	0	10000	3	1	0	3	0
394	979	0	10000	3	1	0	3	0
384	980	0	10000	3	1	0	3	0
376	980	0	10000	3	1	0	3	0
363	981	0	10000	3	1	0	3	0
357	983	0	10000	3	1	0	3	0
348	984	0	10000	3	1	0	3	0
338	985	0	10000	3	1	0	3	0
332	986	0	10000	3	1	0	3	0
326	987	0	10000	3	1	0	3	0
332	988	0	10000	3	1	0	3	0
337	989	0	10000	3	1	0	3	0
327	990	0	10000	3	1	0	3	0
321	990	0	10000	3	1	0	3	0
316	991	0	10000	3	1	0	3	0
305	993	0	10000	3	1	0	3	0
300	994	0	10000	3	1	0	3	0
296	995	0	10000	3	1	0	3	0
300	996	0	10000	3	1	0	3	0
325	997	0	10000	3	1	0	3	0
351	998	0	10000	3	1	0	3	0
355	999	0	10000	3	1	0	3	0
382	1000	0	10000	3	1	0	3	0
455	1000	0	10000	3	1	0	3	0
504	1001	0	10000	3	1	0	3	0
53	1	0	10000	4	1	0	4	0
57	2	0	10000	4	1	0	4	0
59	3	0	10000	4	1	0	4	0
57	4	0	10000	4	1	0	4	0
55	5	0	10000	4	1	0	4	0
54	6	0	10000	4	1	0	4	0
53	7	0	10000	4	1	0	4	0
53	8	0	10000	4	1	0	4	0
54	9	0	10000	4	1	0	4	0
53	10	0	10000	4	1	0	4	0
52	11	0	10000	4	1	0	4	0
53	12	0	10000	4	1	0	4	0
55	13	0	10000	4	1	0	4	0
53	14	0	10000	4	1	0	4	0
51	15	0	10000	4	1	0	4	0
51	16	0	10000	4	1	0	4	0
52	17	0	10000	4	1	0	4	0
49	18	0	10000	4	1	0	4	0
46	19	0	10000	4	1	0	4	0
47	20	0	10000	4	1	0	4	0
49	21	0	10000	4	1	0	4	0
57	22	0	10000	4	1	0	4	0
62	23	0	10000	4	1	0	4	0
62	24	0	10000	4	1	0	4	0
66	25	0	10000	4	1	0	4	0
74	26	0	10000	4	1	0	4	0
81	27	0	10000	4	1	0	4	0
86	28	0	10000	4	1	0	4	0
84	29	0	10000	4	1	0	4	0
85	30	0	10000	4	1	0	4	0
84	31	0	10000	4	1	0	4	0
80	32	0	10000	4	1	0	4	0
80	33	0	10000	4	1	0	4	0
82	34	0	10000	4	1	0	4	0
81	35	0	10000	4	1	0	4	0
81	36	0	10000	4	1	0	4	0
81	37	0	10000	4	1	0	4	0
77	38	0	10000	4	1	0	4	0
73	39	0	10000	4	1	0	4	0
71	40	0	10000	4	1	0	4	0
70	41	0	10000	4	1	0	4	0
68	42	0	10000	4	1	0	4	0
68	43	0	10000	4	1	0	4	0
68	44	0	10000	4	1	0	4	0
67	45	0	10000	4	1	0	4	0
67	46	0	10000	4	1	0	4	0
69	47	0	10000	4	1	0	4	0
73	48	0	10000	4	1	0	4	0
73	49	0	10000	4	1	0	4	0
70	50	0	10000	4	1	0	4	0
69	51	0	10000	4	1	0	4	0
68	52	0	10000	4	1	0	4	0
69	53	0	10000	4	1	0	4	0
67	54	0	10000	4	1	0	4	0
65	55	0	10000	4	1	0	4	0
68	56	0	10000	4	1	0	4	0
74	57	0	10000	4	1	0	4	0
72	58	0	10000	4	1	0	4	0
77	59	0	10000	4	1	0	4	0
89	60	0	10000	4	1	0	4	0
98	61	0	10000	4	1	0	4	0
107	62	0	10000	4	1	0	4	0
109	63	0	10000	4	1	0	4	0
105	64	0	10000	4	1	0	4	0
101	65	0	10000	4	1	0	4	0
96	66	0	10000	4	1	0	4	0
92	67	0	10000	4	1	0	4	0
92	68	0	10000	4	1	0	4	0
90	69	0	10000	4	1	0	4	0
86	70	0	10000	4	1	0	4	0
83	71	0	10000	4	1	0	4	0
80	72	0	10000	4	1	0	4	0
78	73	0	10000	4	1	0	4	0
77	74	0	10000	4	1	0	4	0
75	75	0	10000	4	1	0	4	0
75	76	0	10000	4	1	0	4	0
74	77	0	10000	4	1	0	4	0
72	78	0	10000	4	1	0	4	0
71	79	0	10000	4	1	0	4	0
74	80	0	10000	4	1	0	4	0
78	81	0	10000	4	1	0	4	0
78	82	0	10000	4	1	0	4	0
75	83	0	10000	4	1	0	4	0
72	84	0	10000	4	1	0	4	0
70	85	0	10000	4	1	0	4	0
67	86	0	10000	4	1	0	4	0
65	87	0	10000	4	1	0	4	0
64	88	0	10000	4	1	0	4	0
62	89	0	10000	4	1	0	4	0
60	90	0	10000	4	1	0	4	0
59	91	0	10000	4	1	0	4	0
57	92	0	10000	4	1	0	4	0
56	93	0	10000	4	1	0	4	0
54	94	0	10000	4	1	0	4	0
57	95	0	10000	4	1	0	4	0
61	96	0	10000	4	1	0	4	0
65	97	0	10000	4	1	0	4	0
67	98	0	10000	4	1	0	4	0
65	99	0	10000	4	1	0	4	0
67	100	0	10000	4	1	0	4	0
75	101	0	10000	4	1	0	4	0
86	102	0	10000	4	1	0	4	0
91	103	0	10000	4	1	0	4	0
89	104	0	10000	4	1	0	4	0
90	105	0	10000	4	1	0	4	0
93	106	0	10000	4	1	0	4	0
95	107	0	10000	4	1	0	4	0
94	108	0	10000	4	1	0	4	0
92	109	0	10000	4	1	0	4	0
88	110	0	10000	4	1	0	4	0
86	111	0	10000	4	1	0	4	0
89	112	0	10000	4	1	0	4	0
92	113	0	10000	4	1	0	4	0
91	114	0	10000	4	1	0	4	0
89	115	0	10000	4	1	0	4	0
85	116	0	10000	4	1	0	4	0
82	117	0	10000	4	1	0	4	0
80	118	0	10000	4	1	0	4	0
77	119	0	10000	4	1	0	4	0
76	120	0	10000	4	1	0	4	0
77	121	0	10000	4	1	0	4	0
79	122	0	10000	4	1	0	4	0
78	123	0	10000	4	1	0	4	0
76	124	0	10000	4	1	0	4	0
75	125	0	10000	4	1	0	4	0
73	126	0	10000	4	1	0	4	0
70	127	0	10000	4	1	0	4	0
71	128	0	10000	4	1	0	4	0
72	129	0	10000	4	1	0	4	0
75	130	0	10000	4	1	0	4	0
76	131	0	10000	4	1	0	4	0
74	132	0	10000	4	1	0	4	0
76	133	0	10000	4	1	0	4	0
78	134	0	10000	4	1	0	4	0
81	135	0	10000	4	1	0	4	0
83	136	0	10000	4	1	0	4	0
82	137	0	10000	4	1	0	4	0
82	138	0	10000	4	1	0	4	0
80	139	0	10000	4	1	0	4	0
78	140	0	10000	4	1	0	4	0
79	141	0	10000	4	1	0	4	0
78	142	0	10000	4	1	0	4	0
76	143	0	10000	4	1	0	4	0
74	144	0	10000	4	1	0	4	0
72	145	0	10000	4	1	0	4	0
71	146	0	10000	4	1	0	4	0
68	147	0	10000	4	1	0	4	0
67	148	0	10000	4	1	0	4	0
69	149	0	10000	4	1	0	4	0
72	150	0	10000	4	1	0	4	0
72	151	0	10000	4	1	0	4	0
69	152	0	10000	4	1	0	4	0
67	153	0	10000	4	1	0	4	0
64	154	0	10000	4	1	0	4	0
62	155	0	10000	4	1	0	4	0
62	156	0	10000	4	1	0	4	0
60	157	0	10000	4	1	0	4	0
58	158	0	10000	4	1	0	4	0
56	159	0	10000	4	1	0	4	0
59	160	0	10000	4	1	0	4	0
63	161	0	10000	4	1	0	4	0
62	162	0	10000	4	1	0	4	0
59	163	0	10000	4	1	0	4	0
56	164	0	10000	4	1	0	4	0
54	165	0	10000	4	1	0	4	0
55	166	0	10000	4	1	0	4	0
58	167	0	10000	4	1	0	4	0
60	168	0	10000	4	1	0	4	0
59	169	0	10000	4	1	0	4	0
57	170	0	10000	4	1	0	4	0
57	171	0	10000	4	1	0	4	0
56	172	0	10000	4	1	0	4	0
55	173	0	10000	4	1	0	4	0
54	174	0	10000	4	1	0	4	0
54	175	0	10000	4	1	0	4	0
55	176	0	10000	4	1	0	4	0
55	177	0	10000	4	1	0	4	0
55	178	0	10000	4	1	0	4	0
56	179	0	10000	4	1	0	4	0
57	180	0	10000	4	1	0	4	0
56	181	0	10000	4	1	0	4	0
56	182	0	10000	4	1	0	4	0
54	183	0	10000	4	1	0	4	0
54	184	0	10000	4	1	0	4	0
54	185	0	10000	4	1	0	4	0
53	186	0	10000	4	1	0	4	0
52	187	0	10000	4	1	0	4	0
51	188	0	10000	4	1	0	4	0
49	189	0	10000	4	1	0	4	0
49	190	0	10000	4	1	0	4	0
46	191	0	10000	4	1	0	4	0
45	192	0	10000	4	1	0	4	0
45	193	0	10000	4	1	0	4	0
44	194	0	10000	4	1	0	4	0
43	195	0	10000	4	1	0	4	0
44	196	0	10000	4	1	0	4	0
47	197	0	10000	4	1	0	4	0
47	198	0	10000	4	1	0	4	0
45	199	0	10000	4	1	0	4	0
43	200	0	10000	4	1	0	4	0
43	201	0	10000	4	1	0	4	0
43	202	0	10000	4	1	0	4	0
44	203	0	10000	4	1	0	4	0
45	204	0	10000	4	1	0	4	0
45	205	0	10000	4	1	0	4	0
45	206	0	10000	4	1	0	4	0
44	207	0	10000	4	1	0	4	0
45	208	0	10000	4	1	0	4	0
44	209	0	10000	4	1	0	4	0
42	210	0	10000	4	1	0	4	0
41	211	0	10000	4	1	0	4	0
40	212	0	10000	4	1	0	4	0
39	213	0	10000	4	1	0	4	0
43	214	0	10000	4	1	0	4	0
47	215	0	10000	4	1	0	4	0
48	216	0	10000	4	1	0	4	0
48	217	0	10000	4	1	0	4	0
51	218	0	10000	4	1	0	4	0
58	219	0	10000	4	1	0	4	0
64	220	0	10000	4	1	0	4	0
66	221	0	10000	4	1	0	4	0
69	222	0	10000	4	1	0	4	0
71	223	0	10000	4	1	0	4	0
73	224	0	10000	4	1	0	4	0
71	225	0	10000	4	1	0	4	0
68	226	0	10000	4	1	0	4	0
65	227	0	10000	4	1	0	4	0
65	228	0	10000	4	1	0	4	0
64	229	0	10000	4	1	0	4	0
64	230	0	10000	4	1	0	4	0
64	231	0	10000	4	1	0	4	0
64	232	0	10000	4	1	0	4	0
63	233	0	10000	4	1	0	4	0
61	234	0	10000	4	1	0	4	0
58	235	0	10000	4	1	0	4	0
57	236	0	10000	4	1	0	4	0
55	237	0	10000	4	1	0	4	0
52	238	0	10000	4	1	0	4	0
50	239	0	10000	4	1	0	4	0
52	240	0	10000	4	1	0	4	0
54	241	0	10000	4	1	0	4	0
53	242	0	10000	4	1	0	4	0
51	243	0	10000	4	1	0	4	0
51	244	0	10000	4	1	0	4	0
49	245	0	10000	4	1	0	4	0
48	246	0	10000	4	1	0	4	0
49	247	0	10000	4	1	0	4	0
52	248	0	10000	4	1	0	4	0
55	249	0	10000	4	1	0	4	0
54	250	0	10000	4	1	0	4	0
54	251	0	10000	4	1	0	4	0
54	252	0	10000	4	1	0	4	0
56	253	0	10000	4	1	0	4	0
56	254	0	10000	4	1	0	4	0
55	255	0	10000	4	1	0	4	0
55	256	0	10000	4	1	0	4	0
58	257	0	10000	4	1	0	4	0
60	258	0	10000	4	1	0	4	0
61	259	0	10000	4	1	0	4	0
60	260	0	10000	4	1	0	4	0
58	261	0	10000	4	1	0	4	0
57	262	0	10000	4	1	0	4	0
57	263	0	10000	4	1	0	4	0
59	264	0	10000	4	1	0	4	0
61	265	0	10000	4	1	0	4	0
60	266	0	10000	4	1	0	4	0
58	267	0	10000	4	1	0	4	0
58	268	0	10000	4	1	0	4	0
56	269	0	10000	4	1	0	4	0
54	270	0	10000	4	1	0	4	0
53	271	0	10000	4	1	0	4	0
55	272	0	10000	4	1	0	4	0
56	273	0	10000	4	1	0	4	0
60	274	0	10000	4	1	0	4	0
66	275	0	10000	4	1	0	4	0
69	276	0	10000	4	1	0	4	0
69	277	0	10000	4	1	0	4	0
67	278	0	10000	4	1	0	4	0
65	279	0	10000	4	1	0	4	0
64	280	0	10000	4	1	0	4	0
63	281	0	10000	4	1	0	4	0
60	282	0	10000	4	1	0	4	0
60	283	0	10000	4	1	0	4	0
63	284	0	10000	4	1	0	4	0
63	285	0	10000	4	1	0	4	0
64	286	0	10000	4	1	0	4	0
72	287	0	10000	4	1	0	4	0
83	288	0	10000	4	1	0	4	0
91	289	0	10000	4	1	0	4	0
93	290	0	10000	4	1	0	4	0
95	291	0	10000	4	1	0	4	0
93	292	0	10000	4	1	0	4	0
89	293	0	10000	4	1	0	4	0
86	294	0	10000	4	1	0	4	0
84	295	0	10000	4	1	0	4	0
82	296	0	10000	4	1	0	4	0
80	297	0	10000	4	1	0	4	0
75	298	0	10000	4	1	0	4	0
73	299	0	10000	4	1	0	4	0
71	300	0	10000	4	1	0	4	0
71	301	0	10000	4	1	0	4	0
71	302	0	10000	4	1	0	4	0
72	303	0	10000	4	1	0	4	0
73	304	0	10000	4	1	0	4	0
74	305	0	10000	4	1	0	4	0
73	306	0	10000	4	1	0	4	0
70	307	0	10000	4	1	0	4	0
68	308	0	10000	4	1	0	4	0
70	309	0	10000	4	1	0	4	0
68	310	0	10000	4	1	0	4	0
66	310	0	10000	4	1	0	4	0
64	311	0	10000	4	1	0	4	0
61	313	0	10000	4	1	0	4	0
58	314	0	10000	4	1	0	4	0
57	315	0	10000	4	1	0	4	0
60	316	0	10000	4	1	0	4	0
65	317	0	10000	4	1	0	4	0
65	318	0	10000	4	1	0	4	0
63	319	0	10000	4	1	0	4	0
61	320	0	10000	4	1	0	4	0
60	320	0	10000	4	1	0	4	0
58	321	0	10000	4	1	0	4	0
57	323	0	10000	4	1	0	4	0
58	324	0	10000	4	1	0	4	0
56	325	0	10000	4	1	0	4	0
55	326	0	10000	4	1	0	4	0
54	327	0	10000	4	1	0	4	0
54	328	0	10000	4	1	0	4	0
53	329	0	10000	4	1	0	4	0
52	330	0	10000	4	1	0	4	0
51	330	0	10000	4	1	0	4	0
51	331	0	10000	4	1	0	4	0
50	333	0	10000	4	1	0	4	0
50	334	0	10000	4	1	0	4	0
50	335	0	10000	4	1	0	4	0
50	336	0	10000	4	1	0	4	0
51	337	0	10000	4	1	0	4	0
50	338	0	10000	4	1	0	4	0
50	339	0	10000	4	1	0	4	0
49	340	0	10000	4	1	0	4	0
47	340	0	10000	4	1	0	4	0
47	341	0	10000	4	1	0	4	0
48	343	0	10000	4	1	0	4	0
49	344	0	10000	4	1	0	4	0
49	345	0	10000	4	1	0	4	0
48	346	0	10000	4	1	0	4	0
45	347	0	10000	4	1	0	4	0
46	348	0	10000	4	1	0	4	0
48	349	0	10000	4	1	0	4	0
53	350	0	10000	4	1	0	4	0
58	350	0	10000	4	1	0	4	0
60	351	0	10000	4	1	0	4	0
59	353	0	10000	4	1	0	4	0
62	354	0	10000	4	1	0	4	0
65	355	0	10000	4	1	0	4	0
66	356	0	10000	4	1	0	4	0
64	357	0	10000	4	1	0	4	0
62	358	0	10000	4	1	0	4	0
62	359	0	10000	4	1	0	4	0
62	360	0	10000	4	1	0	4	0
64	360	0	10000	4	1	0	4	0
65	361	0	10000	4	1	0	4	0
65	363	0	10000	4	1	0	4	0
66	364	0	10000	4	1	0	4	0
65	365	0	10000	4	1	0	4	0
65	366	0	10000	4	1	0	4	0
62	367	0	10000	4	1	0	4	0
63	368	0	10000	4	1	0	4	0
65	369	0	10000	4	1	0	4	0
65	370	0	10000	4	1	0	4	0
66	370	0	10000	4	1	0	4	0
67	371	0	10000	4	1	0	4	0
67	373	0	10000	4	1	0	4	0
68	374	0	10000	4	1	0	4	0
68	375	0	10000	4	1	0	4	0
66	376	0	10000	4	1	0	4	0
65	377	0	10000	4	1	0	4	0
60	378	0	10000	4	1	0	4	0
57	379	0	10000	4	1	0	4	0
57	380	0	10000	4	1	0	4	0
56	380	0	10000	4	1	0	4	0
58	381	0	10000	4	1	0	4	0
63	383	0	10000	4	1	0	4	0
67	384	0	10000	4	1	0	4	0
66	385	0	10000	4	1	0	4	0
69	386	0	10000	4	1	0	4	0
74	387	0	10000	4	1	0	4	0
79	388	0	10000	4	1	0	4	0
81	389	0	10000	4	1	0	4	0
84	390	0	10000	4	1	0	4	0
82	390	0	10000	4	1	0	4	0
80	391	0	10000	4	1	0	4	0
78	393	0	10000	4	1	0	4	0
80	394	0	10000	4	1	0	4	0
85	395	0	10000	4	1	0	4	0
87	396	0	10000	4	1	0	4	0
89	397	0	10000	4	1	0	4	0
85	398	0	10000	4	1	0	4	0
81	399	0	10000	4	1	0	4	0
78	400	0	10000	4	1	0	4	0
75	400	0	10000	4	1	0	4	0
73	401	0	10000	4	1	0	4	0
74	403	0	10000	4	1	0	4	0
75	404	0	10000	4	1	0	4	0
73	405	0	10000	4	1	0	4	0
70	406	0	10000	4	1	0	4	0
67	407	0	10000	4	1	0	4	0
67	408	0	10000	4	1	0	4	0
64	409	0	10000	4	1	0	4	0
62	410	0	10000	4	1	0	4	0
61	410	0	10000	4	1	0	4	0
61	411	0	10000	4	1	0	4	0
63	413	0	10000	4	1	0	4	0
64	414	0	10000	4	1	0	4	0
62	415	0	10000	4	1	0	4	0
59	416	0	10000	4	1	0	4	0
61	417	0	10000	4	1	0	4	0
62	418	0	10000	4	1	0	4	0
63	419	0	10000	4	1	0	4	0
64	420	0	10000	4	1	0	4	0
63	420	0	10000	4	1	0	4	0
61	421	0	10000	4	1	0	4	0
60	423	0	10000	4	1	0	4	0
59	424	0	10000	4	1	0	4	0
57	425	0	10000	4	1	0	4	0
54	426	0	10000	4	1	0	4	0
52	427	0	10000	4	1	0	4	0
52	428	0	10000	4	1	0	4	0
52	429	0	10000	4	1	0	4	0
52	430	0	10000	4	1	0	4	0
52	430	0	10000	4	1	0	4	0
53	431	0	10000	4	1	0	4	0
52	433	0	10000	4	1	0	4	0
56	434	0	10000	4	1	0	4	0
60	435	0	10000	4	1	0	4	0
64	436	0	10000	4	1	0	4	0
68	437	0	10000	4	1	0	4	0
66	438	0	10000	4	1	0	4	0
64	439	0	10000	4	1	0	4	0
63	440	0	10000	4	1	0	4	0
61	440	0	10000	4	1	0	4	0
62	441	0	10000	4	1	0	4	0
60	443	0	10000	4	1	0	4	0
61	444	0	10000	4	1	0	4	0
62	445	0	10000	4	1	0	4	0
59	446	0	10000	4	1	0	4	0
57	447	0	10000	4	1	0	4	0
56	448	0	10000	4	1	0	4	0
55	449	0	10000	4	1	0	4	0
53	450	0	10000	4	1	0	4	0
53	450	0	10000	4	1	0	4	0
54	451	0	10000	4	1	0	4	0
57	453	0	10000	4	1	0	4	0
58	454	0	10000	4	1	0	4	0
57	455	0	10000	4	1	0	4	0
55	456	0	10000	4	1	0	4	0
54	457	0	10000	4	1	0	4	0
53	458	0	10000	4	1	0	4	0
58	459	0	10000	4	1	0	4	0
63	460	0	10000	4	1	0	4	0
65	460	0	10000	4	1	0	4	0
64	461	0	10000	4	1	0	4	0
60	463	0	10000	4	1	0	4	0
59	464	0	10000	4	1	0	4	0
58	465	0	10000	4	1	0	4	0
56	466	0	10000	4	1	0	4	0
54	467	0	10000	4	1	0	4	0
55	468	0	10000	4	1	0	4	0
55	469	0	10000	4	1	0	4	0
56	470	0	10000	4	1	0	4	0
55	470	0	10000	4	1	0	4	0
53	471	0	10000	4	1	0	4	0
53	473	0	10000	4	1	0	4	0
63	474	0	10000	4	1	0	4	0
72	475	0	10000	4	1	0	4	0
74	476	0	10000	4	1	0	4	0
77	477	0	10000	4	1	0	4	0
83	478	0	10000	4	1	0	4	0
91	479	0	10000	4	1	0	4	0
99	480	0	10000	4	1	0	4	0
105	480	0	10000	4	1	0	4	0
106	481	0	10000	4	1	0	4	0
102	483	0	10000	4	1	0	4	0
98	484	0	10000	4	1	0	4	0
94	485	0	10000	4	1	0	4	0
91	486	0	10000	4	1	0	4	0
87	487	0	10000	4	1	0	4	0
85	488	0	10000	4	1	0	4	0
83	489	0	10000	4	1	0	4	0
82	490	0	10000	4	1	0	4	0
83	490	0	10000	4	1	0	4	0
83	491	0	10000	4	1	0	4	0
82	493	0	10000	4	1	0	4	0
78	494	0	10000	4	1	0	4	0
76	495	0	10000	4	1	0	4	0
76	496	0	10000	4	1	0	4	0
77	497	0	10000	4	1	0	4	0
80	498	0	10000	4	1	0	4	0
83	499	0	10000	4	1	0	4	0
83	500	0	10000	4	1	0	4	0
80	500	0	10000	4	1	0	4	0
78	501	0	10000	4	1	0	4	0
78	503	0	10000	4	1	0	4	1
77	504	0	10000	4	1	0	4	1
75	505	0	10000	4	1	0	4	1
73	506	0	10000	4	1	0	4	1
71	507	0	10000	4	1	0	4	1
72	508	0	10000	4	1	0	4	1
73	509	0	10000	4	1	0	4	1
73	510	0	10000	4	1	0	4	1
71	510	0	10000	4	1	0	4	1
72	511	0	10000	4	1	0	4	1
73	513	0	10000	4	1	0	4	1
71	514	0	10000	4	1	0	4	1
68	515	0	10000	4	1	0	4	1
67	516	0	10000	4	1	0	4	1
68	517	0	10000	4	1	0	4	1
66	518	0	10000	4	1	0	4	1
63	519	0	10000	4	1	0	4	1
61	520	0	10000	4	1	0	4	1
60	520	0	10000	4	1	0	4	1
58	521	0	10000	4	1	0	4	1
58	523	0	10000	4	1	0	4	1
57	524	0	10000	4	1	0	4	1
56	525	0	10000	4	1	0	4	1
55	526	0	10000	4	1	0	4	1
56	527	0	10000	4	1	0	4	1
59	528	0	10000	4	1	0	4	1
59	529	0	10000	4	1	0	4	1
59	530	0	10000	4	1	0	4	1
64	530	0	10000	4	1	0	4	1
67	531	0	10000	4	1	0	4	1
67	533	0	10000	4	1	0	4	1
66	534	0	10000	4	1	0	4	1
65	535	0	10000	4	1	0	4	1
63	536	0	10000	4	1	0	4	1
63	537	0	10000	4	1	0	4	1
60	538	0	10000	4	1	0	4	1
58	539	0	10000	4	1	0	4	1
57	540	0	10000	4	1	0	4	1
56	540	0	10000	4	1	0	4	1
56	541	0	10000	4	1	0	4	1
57	543	0	10000	4	1	0	4	1
59	544	0	10000	4	1	0	4	1
60	545	0	10000	4	1	0	4	1
65	546	0	10000	4	1	0	4	1
75	547	0	10000	4	1	0	4	1
82	548	0	10000	4	1	0	4	1
81	549	0	10000	4	1	0	4	1
81	550	0	10000	4	1	0	4	1
81	550	0	10000	4	1	0	4	1
80	551	0	10000	4	1	0	4	1
81	553	0	10000	4	1	0	4	0
88	554	0	10000	4	1	0	4	0
95	555	0	10000	4	1	0	4	0
96	556	0	10000	4	1	0	4	0
93	557	0	10000	4	1	0	4	0
88	558	0	10000	4	1	0	4	0
84	559	0	10000	4	1	0	4	0
81	560	0	10000	4	1	0	4	0
79	560	0	10000	4	1	0	4	0
76	561	0	10000	4	1	0	4	0
73	563	0	10000	4	1	0	4	0
69	564	0	10000	4	1	0	4	0
66	565	0	10000	4	1	0	4	0
64	566	0	10000	4	1	0	4	0
64	567	0	10000	4	1	0	4	0
65	568	0	10000	4	1	0	4	0
63	569	0	10000	4	1	0	4	0
61	570	0	10000	4	1	0	4	0
59	570	0	10000	4	1	0	4	0
59	571	0	10000	4	1	0	4	0
60	573	0	10000	4	1	0	4	0
62	574	0	10000	4	1	0	4	0
64	575	0	10000	4	1	0	4	0
65	576	0	10000	4	1	0	4	0
66	577	0	10000	4	1	0	4	0
66	578	0	10000	4	1	0	4	0
65	579	0	10000	4	1	0	4	0
67	580	0	10000	4	1	0	4	0
70	580	0	10000	4	1	0	4	0
72	581	0	10000	4	1	0	4	0
70	583	0	10000	4	1	0	4	0
75	584	0	10000	4	1	0	4	0
78	585	0	10000	4	1	0	4	0
84	586	0	10000	4	1	0	4	0
92	587	0	10000	4	1	0	4	0
99	588	0	10000	4	1	0	4	0
101	589	0	10000	4	1	0	4	0
105	590	0	10000	4	1	0	4	0
116	590	0	10000	4	1	0	4	0
139	591	0	10000	4	1	0	4	0
143	593	0	10000	4	1	0	4	0
143	594	0	10000	4	1	0	4	0
161	595	0	10000	4	1	0	4	0
187	596	0	10000	4	1	0	4	0
192	597	0	10000	4	1	0	4	0
189	598	0	10000	4	1	0	4	0
183	599	0	10000	4	1	0	4	0
209	600	0	10000	4	1	0	4	0
236	600	0	10000	4	1	0	4	0
250	601	0	10000	4	1	0	4	0
298	603	0	10000	4	1	0	4	0
309	604	0	10000	4	1	0	4	0
309	605	0	10000	4	1	0	4	0
298	606	0	10000	4	1	0	4	0
325	607	0	10000	4	1	0	4	0
381	608	0	10000	4	1	0	4	0
395	609	0	10000	4	1	0	4	0
427	610	0	10000	4	1	0	4	0
440	610	0	10000	4	1	0	4	0
437	611	0	10000	4	1	0	4	0
421	613	0	10000	4	1	0	4	0
418	614	0	10000	4	1	0	4	0
419	615	0	10000	4	1	0	4	0
405	616	0	10000	4	1	0	4	0
402	617	0	10000	4	1	0	4	0
387	618	0	10000	4	1	0	4	0
372	619	0	10000	4	1	0	4	0
372	620	0	10000	4	1	0	4	0
368	620	0	10000	4	1	0	4	0
361	621	0	10000	4	1	0	4	0
364	623	0	10000	4	1	0	4	0
378	624	0	10000	4	1	0	4	0
369	625	0	10000	4	1	0	4	0
387	626	0	10000	4	1	0	4	0
414	627	0	10000	4	1	0	4	0
433	628	0	10000	4	1	0	4	0
439	629	0	10000	4	1	0	4	0
429	630	0	10000	4	1	0	4	0
414	630	0	10000	4	1	0	4	0
401	631	0	10000	4	1	0	4	0
391	633	0	10000	4	1	0	4	0
385	634	0	10000	4	1	0	4	0
381	635	0	10000	4	1	0	4	0
381	636	0	10000	4	1	0	4	0
383	637	0	10000	4	1	0	4	0
390	638	0	10000	4	1	0	4	0
389	639	0	10000	4	1	0	4	0
378	640	0	10000	4	1	0	4	0
361	640	0	10000	4	1	0	4	0
350	641	0	10000	4	1	0	4	0
347	643	0	10000	4	1	0	4	0
349	644	0	10000	4	1	0	4	0
352	645	0	10000	4	1	0	4	0
348	646	0	10000	4	1	0	4	0
341	647	0	10000	4	1	0	4	0
343	648	0	10000	4	1	0	4	0
348	649	0	10000	4	1	0	4	0
350	650	0	10000	4	1	0	4	0
361	650	0	10000	4	1	0	4	0
374	651	0	10000	4	1	0	4	0
376	653	0	10000	4	1	0	4	0
368	654	0	10000	4	1	0	4	0
353	655	0	10000	4	1	0	4	0
342	656	0	10000	4	1	0	4	0
339	657	0	10000	4	1	0	4	0
346	658	0	10000	4	1	0	4	0
359	659	0	10000	4	1	0	4	0
362	660	0	10000	4	1	0	4	0
349	660	0	10000	4	1	0	4	0
334	661	0	10000	4	1	0	4	0
320	663	0	10000	4	1	0	4	0
306	664	0	10000	4	1	0	4	0
295	665	0	10000	4	1	0	4	0
291	666	0	10000	4	1	0	4	0
281	667	0	10000	4	1	0	4	0
281	668	0	10000	4	1	0	4	0
279	669	0	10000	4	1	0	4	0
267	670	0	10000	4	1	0	4	0
258	670	0	10000	4	1	0	4	0
255	671	0	10000	4	1	0	4	0
247	673	0	10000	4	1	0	4	0
238	674	0	10000	4	1	0	4	0
231	675	0	10000	4	1	0	4	0
222	676	0	10000	4	1	0	4	0
217	677	0	10000	4	1	0	4	0
212	678	0	10000	4	1	0	4	0
208	679	0	10000	4	1	0	4	0
203	680	0	10000	4	1	0	4	0
200	680	0	10000	4	1	0	4	0
207	681	0	10000	4	1	0	4	0
223	683	0	10000	4	1	0	4	0
237	684	0	10000	4	1	0	4	0
247	685	0	10000	4	1	0	4	0
256	686	0	10000	4	1	0	4	0
264	687	0	10000	4	1	0	4	0
276	688	0	10000	4	1	0	4	0
285	689	0	10000	4	1	0	4	0
291	690	0	10000	4	1	0	4	0
297	690	0	10000	4	1	0	4	0
304	691	0	10000	4	1	0	4	0
309	693	0	10000	4	1	0	4	0
309	694	0	10000	4	1	0	4	0
308	695	0	10000	4	1	0	4	0
309	696	0	10000	4	1	0	4	0
314	697	0	10000	4	1	0	4	0
324	698	0	10000	4	1	0	4	0
340	699	0	10000	4	1	0	4	0
349	700	0	10000	4	1	0	4	0
349	700	0	10000	4	1	0	4	0
340	701	0	10000	4	1	0	4	0
335	703	0	10000	4	1	0	4	0
341	704	0	10000	4	1	0	4	0
353	705	0	10000	4	1	0	4	0
367	706	0	10000	4	1	0	4	0
374	707	0	10000	4	1	0	4	0
382	708	0	10000	4	1	0	4	0
388	709	0	10000	4	1	0	4	0
392	710	0	10000	4	1	0	4	0
399	710	0	10000	4	1	0	4	0
402	711	0	10000	4	1	0	4	0
398	713	0	10000	4	1	0	4	0
393	714	0	10000	4	1	0	4	0
391	715	0	10000	4	1	0	4	0
384	716	0	10000	4	1	0	4	0
377	717	0	10000	4	1	0	4	0
368	718	0	10000	4	1	0	4	0
357	719	0	10000	4	1	0	4	0
344	720	0	10000	4	1	0	4	0
333	720	0	10000	4	1	0	4	0
322	721	0	10000	4	1	0	4	0
310	723	0	10000	4	1	0	4	0
305	724	0	10000	4	1	0	4	0
307	725	0	10000	4	1	0	4	0
300	726	0	10000	4	1	0	4	0
289	727	0	10000	4	1	0	4	0
281	728	0	10000	4	1	0	4	0
268	729	0	10000	4	1	0	4	0
255	730	0	10000	4	1	0	4	0
244	730	0	10000	4	1	0	4	0
234	731	0	10000	4	1	0	4	0
230	733	0	10000	4	1	0	4	0
230	734	0	10000	4	1	0	4	0
225	735	0	10000	4	1	0	4	0
222	736	0	10000	4	1	0	4	0
229	737	0	10000	4	1	0	4	0
225	738	0	10000	4	1	0	4	0
216	739	0	10000	4	1	0	4	0
216	740	0	10000	4	1	0	4	0
222	740	0	10000	4	1	0	4	0
221	741	0	10000	4	1	0	4	0
217	743	0	10000	4	1	0	4	0
211	744	0	10000	4	1	0	4	0
211	745	0	10000	4	1	0	4	0
207	746	0	10000	4	1	0	4	0
201	747	0	10000	4	1	0	4	0
196	748	0	10000	4	1	0	4	0
189	749	0	10000	4	1	0	4	0
187	750	0	10000	4	1	0	4	0
189	750	0	10000	4	1	0	4	0
199	751	0	10000	4	1	0	4	0
207	753	0	10000	4	1	0	4	0
209	754	0	10000	4	1	0	4	0
213	755	0	10000	4	1	0	4	0
215	756	0	10000	4	1	0	4	0
210	757	0	10000	4	1	0	4	0
199	758	0	10000	4	1	0	4	0
192	759	0	10000	4	1	0	4	0
188	760	0	10000	4	1	0	4	0
186	760	0	10000	4	1	0	4	0
183	761	0	10000	4	1	0	4	0
176	763	0	10000	4	1	0	4	0
174	764	0	10000	4	1	0	4	0
174	765	0	10000	4	1	0	4	0
172	766	0	10000	4	1	0	4	0
172	767	0	10000	4	1	0	4	0
178	768	0	10000	4	1	0	4	0
185	769	0	10000	4	1	0	4	0
189	770	0	10000	4	1	0	4	0
190	770	0	10000	4	1	0	4	0
188	771	0	10000	4	1	0	4	0
185	773	0	10000	4	1	0	4	0
182	774	0	10000	4	1	0	4	0
181	775	0	10000	4	1	0	4	0
182	776	0	10000	4	1	0	4	0
178	777	0	10000	4	1	0	4	0
172	778	0	10000	4	1	0	4	0
171	779	0	10000	4	1	0	4	0
175	780	0	10000	4	1	0	4	0
180	780	0	10000	4	1	0	4	0
179	781	0	10000	4	1	0	4	0
170	783	0	10000	4	1	0	4	0
164	784	0	10000	4	1	0	4	0
158	785	0	10000	4	1	0	4	0
155	786	0	10000	4	1	0	4	0
150	787	0	10000	4	1	0	4	0
152	788	0	10000	4	1	0	4	0
151	789	0	10000	4	1	0	4	0
147	790	0	10000	4	1	0	4	0
145	790	0	10000	4	1	0	4	0
139	791	0	10000	4	1	0	4	0
141	793	0	10000	4	1	0	4	0
149	794	0	10000	4	1	0	4	0
159	795	0	10000	4	1	0	4	0
162	796	0	10000	4	1	0	4	0
159	797	0	10000	4	1	0	4	0
156	798	0	10000	4	1	0	4	0
155	799	0	10000	4	1	0	4	0
150	800	0	10000	4	1	0	4	0
147	800	0	10000	4	1	0	4	0
144	801	0	10000	4	1	0	4	0
139	803	0	10000	4	1	0	4	0
140	804	0	10000	4	1	0	4	0
142	805	0	10000	4	1	0	4	0
138	806	0	10000	4	1	0	4	0
140	807	0	10000	4	1	0	4	0
146	808	0	10000	4	1	0	4	0
145	809	0	10000	4	1	0	4	0
140	810	0	10000	4	1	0	4	0
137	810	0	10000	4	1	0	4	0
140	811	0	10000	4	1	0	4	0
140	813	0	10000	4	1	0	4	0
137	814	0	10000	4	1	0	4	0
140	815	0	10000	4	1	0	4	0
147	816	0	10000	4	1	0	4	0
143	817	0	10000	4	1	0	4	0
137	818	0	10000	4	1	0	4	0
137	819	0	10000	4	1	0	4	0
135	820	0	10000	4	1	0	4	0
133	820	0	10000	4	1	0	4	0
136	821	0	10000	4	1	0	4	0
137	823	0	10000	4	1	0	4	0
140	824	0	10000	4	1	0	4	0
139	825	0	10000	4	1	0	4	0
133	826	0	10000	4	1	0	4	0
130	827	0	10000	4	1	0	4	0
133	828	0	10000	4	1	0	4	0
132	829	0	10000	4	1	0	4	0
128	830	0	10000	4	1	0	4	0
127	830	0	10000	4	1	0	4	0
135	831	0	10000	4	1	0	4	0
140	833	0	10000	4	1	0	4	0
138	834	0	10000	4	1	0	4	0
138	835	0	10000	4	1	0	4	0
135	836	0	10000	4	1	0	4	0
130	837	0	10000	4	1	0	4	0
126	838	0	10000	4	1	0	4	0
135	839	0	10000	4	1	0	4	0
133	840	0	10000	4	1	0	4	0
133	840	0	10000	4	1	0	4	0
129	841	0	10000	4	1	0	4	0
137	843	0	10000	4	1	0	4	0
152	844	0	10000	4	1	0	4	0
150	845	0	10000	4	1	0	4	0
160	846	0	10000	4	1	0	4	0
173	847	0	10000	4	1	0	4	0
183	848	0	10000	4	1	0	4	0
184	849	0	10000	4	1	0	4	0
179	850	0	10000	4	1	0	4	0
174	850	0	10000	4	1	0	4	0
179	851	0	10000	4	1	0	4	0
205	853	0	10000	4	1	0	4	0
236	854	0	10000	4	1	0	4	0
257	855	0	10000	4	1	0	4	0
261	856	0	10000	4	1	0	4	0
258	857	0	10000	4	1	0	4	0
260	858	0	10000	4	1	0	4	0
277	859	0	10000	4	1	0	4	0
303	860	0	10000	4	1	0	4	0
309	860	0	10000	4	1	0	4	0
304	861	0	10000	4	1	0	4	0
300	863	0	10000	4	1	0	4	0
296	864	0	10000	4	1	0	4	0
289	865	0	10000	4	1	0	4	0
283	866	0	10000	4	1	0	4	0
275	867	0	10000	4	1	0	4	0
276	868	0	10000	4	1	0	4	0
273	869	0	10000	4	1	0	4	0
267	870	0	10000	4	1	0	4	0
259	870	0	10000	4	1	0	4	0
256	871	0	10000	4	1	0	4	0
248	873	0	10000	4	1	0	4	0
243	874	0	10000	4	1	0	4	0
252	875	0	10000	4	1	0	4	0
247	876	0	10000	4	1	0	4	0
246	877	0	10000	4	1	0	4	0
247	878	0	10000	4	1	0	4	0
238	879	0	10000	4	1	0	4	0
229	880	0	10000	4	1	0	4	0
226	880	0	10000	4	1	0	4	0
228	881	0	10000	4	1	0	4	0
226	883	0	10000	4	1	0	4	0
219	884	0	10000	4	1	0	4	0
212	885	0	10000	4	1	0	4	0
203	886	0	10000	4	1	0	4	0
199	887	0	10000	4	1	0	4	0
192	888	0	10000	4	1	0	4	0
186	889	0	10000	4	1	0	4	0
182	890	0	10000	4	1	0	4	0
175	890	0	10000	4	1	0	4	0
167	891	0	10000	4	1	0	4	0
160	893	0	10000	4	1	0	4	0
155	894	0	10000	4	1	0	4	0
151	895	0	10000	4	1	0	4	0
149	896	0	10000	4	1	0	4	0
147	897	0	10000	4	1	0	4	0
141	898	0	10000	4	1	0	4	0
137	899	0	10000	4	1	0	4	0
146	900	0	10000	4	1	0	4	0
156	900	0	10000	4	1	0	4	0
157	901	0	10000	4	1	0	4	0
152	903	0	10000	4	1	0	4	0
160	904	0	10000	4	1	0	4	0
179	905	0	10000	4	1	0	4	0
198	906	0	10000	4	1	0	4	0
205	907	0	10000	4	1	0	4	0
204	908	0	10000	4	1	0	4	0
198	909	0	10000	4	1	0	4	0
200	910	0	10000	4	1	0	4	0
211	910	0	10000	4	1	0	4	0
211	911	0	10000	4	1	0	4	0
208	913	0	10000	4	1	0	4	0
215	914	0	10000	4	1	0	4	0
219	915	0	10000	4	1	0	4	0
214	916	0	10000	4	1	0	4	0
209	917	0	10000	4	1	0	4	0
205	918	0	10000	4	1	0	4	0
201	919	0	10000	4	1	0	4	0
195	920	0	10000	4	1	0	4	0
189	920	0	10000	4	1	0	4	0
183	921	0	10000	4	1	0	4	0
179	923	0	10000	4	1	0	4	0
174	924	0	10000	4	1	0	4	0
182	925	0	10000	4	1	0	4	0
195	926	0	10000	4	1	0	4	0
201	927	0	10000	4	1	0	4	0
198	928	0	10000	4	1	0	4	0
196	929	0	10000	4	1	0	4	0
195	930	0	10000	4	1	0	4	0
198	930	0	10000	4	1	0	4	0
195	931	0	10000	4	1	0	4	0
197	933	0	10000	4	1	0	4	0
201	934	0	10000	4	1	0	4	0
201	935	0	10000	4	1	0	4	0
198	936	0	10000	4	1	0	4	0
194	937	0	10000	4	1	0	4	0
200	938	0	10000	4	1	0	4	0
197	939	0	10000	4	1	0	4	0
189	940	0	10000	4	1	0	4	0
187	940	0	10000	4	1	0	4	0
188	941	0	10000	4	1	0	4	0
195	943	0	10000	4	1	0	4	0
198	944	0	10000	4	1	0	4	0
198	945	0	10000	4	1	0	4	0
203	946	0	10000	4	1	0	4	0
197	947	0	10000	4	1	0	4	0
201	948	0	10000	4	1	0	4	0
204	949	0	10000	4	1	0	4	0
203	950	0	10000	4	1	0	4	0
203	950	0	10000	4	1	0	4	0
202	951	0	10000	4	1	0	4	0
200	953	0	10000	4	1	0	4	0
195	954	0	10000	4	1	0	4	0
193	955	0	10000	4	1	0	4	0
192	956	0	10000	4	1	0	4	0
191	957	0	10000	4	1	0	4	0
191	958	0	10000	4	1	0	4	0
194	959	0	10000	4	1	0	4	0
193	960	0	10000	4	1	0	4	0
189	960	0	10000	4	1	0	4	0
185	961	0	10000	4	1	0	4	0
187	963	0	10000	4	1	0	4	0
195	964	0	10000	4	1	0	4	0
201	965	0	10000	4	1	0	4	0
205	966	0	10000	4	1	0	4	0
209	967	0	10000	4	1	0	4	0
211	968	0	10000	4	1	0	4	0
204	969	0	10000	4	1	0	4	0
198	970	0	10000	4	1	0	4	0
191	970	0	10000	4	1	0	4	0
184	971	0	10000	4	1	0	4	0
181	973	0	10000	4	1	0	4	0
175	974	0	10000	4	1	0	4	0
170	975	0	10000	4	1	0	4	0
163	976	0	10000	4	1	0	4	0
157	977	0	10000	4	1	0	4	0
152	978	0	10000	4	1	0	4	0
147	979	0	10000	4	1	0	4	0
143	980	0	10000	4	1	0	4	0
140	980	0	10000	4	1	0	4	0
138	981	0	10000	4	1	0	4	0
135	983	0	10000	4	1	0	4	0
130	984	0	10000	4	1	0	4	0
128	985	0	10000	4	1	0	4	0
123	986	0	10000	4	1	0	4	0
118	987	0	10000	4	1	0	4	0
120	988	0	10000	4	1	0	4	0
123	989	0	10000	4	1	0	4	0
121	990	0	10000	4	1	0	4	0
116	990	0	10000	4	1	0	4	0
116	991	0	10000	4	1	0	4	0
115	993	0	10000	4	1	0	4	0
115	994	0	10000	4	1	0	4	0
129	995	0	10000	4	1	0	4	0
140	996	0	10000	4	1	0	4	0
137	997	0	10000	4	1	0	4	0
134	998	0	10000	4	1	0	4	0
133	999	0	10000	4	1	0	4	0
129	1000	0	10000	4	1	0	4	0
126	1000	0	10000	4	1	0	4	0
123	1001	0	10000	4	1	0	4	0
54	1	0	10000	5	1	0	5	0
55	2	0	10000	5	1	0	5	0
58	3	0	10000	5	1	0	5	0
58	4	0	10000	5	1	0	5	0
59	5	0	10000	5	1	0	5	0
60	6	0	10000	5	1	0	5	0
60	7	0	10000	5	1	0	5	0
61	8	0	10000	5	1	0	5	0
64	9	0	10000	5	1	0	5	0
64	10	0	10000	5	1	0	5	0
63	11	0	10000	5	1	0	5	0
61	12	0	10000	5	1	0	5	0
58	13	0	10000	5	1	0	5	0
58	14	0	10000	5	1	0	5	0
60	15	0	10000	5	1	0	5	0
61	16	0	10000	5	1	0	5	0
59	17	0	10000	5	1	0	5	0
59	18	0	10000	5	1	0	5	0
63	19	0	10000	5	1	0	5	0
65	20	0	10000	5	1	0	5	0
66	21	0	10000	5	1	0	5	0
70	22	0	10000	5	1	0	5	0
71	23	0	10000	5	1	0	5	0
70	24	0	10000	5	1	0	5	0
68	25	0	10000	5	1	0	5	0
66	26	0	10000	5	1	0	5	0
64	27	0	10000	5	1	0	5	0
62	28	0	10000	5	1	0	5	0
60	29	0	10000	5	1	0	5	0
59	30	0	10000	5	1	0	5	0
58	31	0	10000	5	1	0	5	0
58	32	0	10000	5	1	0	5	0
57	33	0	10000	5	1	0	5	0
56	34	0	10000	5	1	0	5	0
55	35	0	10000	5	1	0	5	0
55	36	0	10000	5	1	0	5	0
59	37	0	10000	5	1	0	5	0
64	38	0	10000	5	1	0	5	0
66	39	0	10000	5	1	0	5	0
65	40	0	10000	5	1	0	5	0
63	41	0	10000	5	1	0	5	0
63	42	0	10000	5	1	0	5	0
62	43	0	10000	5	1	0	5	0
64	44	0	10000	5	1	0	5	0
69	45	0	10000	5	1	0	5	0
70	46	0	10000	5	1	0	5	0
70	47	0	10000	5	1	0	5	0
67	48	0	10000	5	1	0	5	0
69	49	0	10000	5	1	0	5	0
71	50	0	10000	5	1	0	5	0
75	51	0	10000	5	1	0	5	0
78	52	0	10000	5	1	0	5	0
78	53	0	10000	5	1	0	5	0
77	54	0	10000	5	1	0	5	0
79	55	0	10000	5	1	0	5	0
78	56	0	10000	5	1	0	5	0
78	57	0	10000	5	1	0	5	0
81	58	0	10000	5	1	0	5	0
85	59	0	10000	5	1	0	5	0
85	60	0	10000	5	1	0	5	0
81	61	0	10000	5	1	0	5	0
80	62	0	10000	5	1	0	5	0
80	63	0	10000	5	1	0	5	0
77	64	0	10000	5	1	0	5	0
73	65	0	10000	5	1	0	5	0
72	66	0	10000	5	1	0	5	0
72	67	0	10000	5	1	0	5	0
73	68	0	10000	5	1	0	5	0
75	69	0	10000	5	1	0	5	0
80	70	0	10000	5	1	0	5	0
79	71	0	10000	5	1	0	5	0
78	72	0	10000	5	1	0	5	0
79	73	0	10000	5	1	0	5	0
78	74	0	10000	5	1	0	5	0
77	75	0	10000	5	1	0	5	0
75	76	0	10000	5	1	0	5	0
74	77	0	10000	5	1	0	5	0
74	78	0	10000	5	1	0	5	0
74	79	0	10000	5	1	0	5	0
76	80	0	10000	5	1	0	5	0
75	81	0	10000	5	1	0	5	0
75	82	0	10000	5	1	0	5	0
73	83	0	10000	5	1	0	5	0
76	84	0	10000	5	1	0	5	0
79	85	0	10000	5	1	0	5	0
78	86	0	10000	5	1	0	5	0
77	87	0	10000	5	1	0	5	0
77	88	0	10000	5	1	0	5	0
76	89	0	10000	5	1	0	5	0
74	90	0	10000	5	1	0	5	0
73	91	0	10000	5	1	0	5	0
70	92	0	10000	5	1	0	5	0
72	93	0	10000	5	1	0	5	0
77	94	0	10000	5	1	0	5	0
78	95	0	10000	5	1	0	5	0
77	96	0	10000	5	1	0	5	0
79	97	0	10000	5	1	0	5	0
77	98	0	10000	5	1	0	5	0
74	99	0	10000	5	1	0	5	0
72	100	0	10000	5	1	0	5	0
72	101	0	10000	5	1	0	5	0
75	102	0	10000	5	1	0	5	0
75	103	0	10000	5	1	0	5	0
74	104	0	10000	5	1	0	5	0
74	105	0	10000	5	1	0	5	0
73	106	0	10000	5	1	0	5	0
71	107	0	10000	5	1	0	5	0
72	108	0	10000	5	1	0	5	0
69	109	0	10000	5	1	0	5	0
68	110	0	10000	5	1	0	5	0
66	111	0	10000	5	1	0	5	0
65	112	0	10000	5	1	0	5	0
63	113	0	10000	5	1	0	5	0
61	114	0	10000	5	1	0	5	0
59	115	0	10000	5	1	0	5	0
58	116	0	10000	5	1	0	5	0
57	117	0	10000	5	1	0	5	0
60	118	0	10000	5	1	0	5	0
61	119	0	10000	5	1	0	5	0
62	120	0	10000	5	1	0	5	0
60	121	0	10000	5	1	0	5	0
61	122	0	10000	5	1	0	5	0
62	123	0	10000	5	1	0	5	0
61	124	0	10000	5	1	0	5	0
59	125	0	10000	5	1	0	5	0
57	126	0	10000	5	1	0	5	0
54	127	0	10000	5	1	0	5	0
53	128	0	10000	5	1	0	5	0
52	129	0	10000	5	1	0	5	0
51	130	0	10000	5	1	0	5	0
51	131	0	10000	5	1	0	5	0
50	132	0	10000	5	1	0	5	0
51	133	0	10000	5	1	0	5	0
52	134	0	10000	5	1	0	5	0
50	135	0	10000	5	1	0	5	0
51	136	0	10000	5	1	0	5	0
52	137	0	10000	5	1	0	5	0
50	138	0	10000	5	1	0	5	0
51	139	0	10000	5	1	0	5	0
51	140	0	10000	5	1	0	5	0
50	141	0	10000	5	1	0	5	0
53	142	0	10000	5	1	0	5	0
59	143	0	10000	5	1	0	5	0
64	144	0	10000	5	1	0	5	0
67	145	0	10000	5	1	0	5	0
67	146	0	10000	5	1	0	5	0
65	147	0	10000	5	1	0	5	0
63	148	0	10000	5	1	0	5	0
60	149	0	10000	5	1	0	5	0
60	150	0	10000	5	1	0	5	0
62	151	0	10000	5	1	0	5	0
63	152	0	10000	5	1	0	5	0
62	153	0	10000	5	1	0	5	0
60	154	0	10000	5	1	0	5	0
59	155	0	10000	5	1	0	5	0
61	156	0	10000	5	1	0	5	0
60	157	0	10000	5	1	0	5	0
59	158	0	10000	5	1	0	5	0
57	159	0	10000	5	1	0	5	0
54	160	0	10000	5	1	0	5	0
52	161	0	10000	5	1	0	5	0
53	162	0	10000	5	1	0	5	0
55	163	0	10000	5	1	0	5	0
57	164	0	10000	5	1	0	5	0
61	165	0	10000	5	1	0	5	0
60	166	0	10000	5	1	0	5	0
58	167	0	10000	5	1	0	5	0
58	168	0	10000	5	1	0	5	0
58	169	0	10000	5	1	0	5	0
57	170	0	10000	5	1	0	5	0
56	171	0	10000	5	1	0	5	0
55	172	0	10000	5	1	0	5	0
53	173	0	10000	5	1	0	5	0
51	174	0	10000	5	1	0	5	0
48	175	0	10000	5	1	0	5	0
48	176	0	10000	5	1	0	5	0
49	177	0	10000	5	1	0	5	0
49	178	0	10000	5	1	0	5	0
47	179	0	10000	5	1	0	5	0
44	180	0	10000	5	1	0	5	0
42	181	0	10000	5	1	0	5	0
42	182	0	10000	5	1	0	5	0
42	183	0	10000	5	1	0	5	0
45	184	0	10000	5	1	0	5	0
49	185	0	10000	5	1	0	5	0
52	186	0	10000	5	1	0	5	0
56	187	0	10000	5	1	0	5	0
54	188	0	10000	5	1	0	5	0
54	189	0	10000	5	1	0	5	0
60	190	0	10000	5	1	0	5	0
65	191	0	10000	5	1	0	5	0
70	192	0	10000	5	1	0	5	0
74	193	0	10000	5	1	0	5	0
77	194	0	10000	5	1	0	5	0
81	195	0	10000	5	1	0	5	0
84	196	0	10000	5	1	0	5	0
87	197	0	10000	5	1	0	5	0
88	198	0	10000	5	1	0	5	0
89	199	0	10000	5	1	0	5	0
85	200	0	10000	5	1	0	5	0
82	201	0	10000	5	1	0	5	0
83	202	0	10000	5	1	0	5	0
81	203	0	10000	5	1	0	5	0
79	204	0	10000	5	1	0	5	0
77	205	0	10000	5	1	0	5	0
75	206	0	10000	5	1	0	5	0
73	207	0	10000	5	1	0	5	0
72	208	0	10000	5	1	0	5	0
71	209	0	10000	5	1	0	5	0
73	210	0	10000	5	1	0	5	0
76	211	0	10000	5	1	0	5	0
77	212	0	10000	5	1	0	5	0
74	213	0	10000	5	1	0	5	0
71	214	0	10000	5	1	0	5	0
70	215	0	10000	5	1	0	5	0
69	216	0	10000	5	1	0	5	0
66	217	0	10000	5	1	0	5	0
64	218	0	10000	5	1	0	5	0
64	219	0	10000	5	1	0	5	0
61	220	0	10000	5	1	0	5	0
61	221	0	10000	5	1	0	5	0
60	222	0	10000	5	1	0	5	0
59	223	0	10000	5	1	0	5	0
59	224	0	10000	5	1	0	5	0
60	225	0	10000	5	1	0	5	0
60	226	0	10000	5	1	0	5	0
62	227	0	10000	5	1	0	5	0
65	228	0	10000	5	1	0	5	0
65	229	0	10000	5	1	0	5	0
65	230	0	10000	5	1	0	5	0
62	231	0	10000	5	1	0	5	0
63	232	0	10000	5	1	0	5	0
65	233	0	10000	5	1	0	5	0
64	234	0	10000	5	1	0	5	0
62	235	0	10000	5	1	0	5	0
61	236	0	10000	5	1	0	5	0
60	237	0	10000	5	1	0	5	0
58	238	0	10000	5	1	0	5	0
58	239	0	10000	5	1	0	5	0
58	240	0	10000	5	1	0	5	0
57	241	0	10000	5	1	0	5	0
57	242	0	10000	5	1	0	5	0
57	243	0	10000	5	1	0	5	0
56	244	0	10000	5	1	0	5	0
53	245	0	10000	5	1	0	5	0
52	246	0	10000	5	1	0	5	0
50	247	0	10000	5	1	0	5	0
48	248	0	10000	5	1	0	5	0
47	249	0	10000	5	1	0	5	0
48	250	0	10000	5	1	0	5	0
50	251	0	10000	5	1	0	5	0
53	252	0	10000	5	1	0	5	0
54	253	0	10000	5	1	0	5	0
52	254	0	10000	5	1	0	5	0
50	255	0	10000	5	1	0	5	0
52	256	0	10000	5	1	0	5	0
55	257	0	10000	5	1	0	5	0
61	258	0	10000	5	1	0	5	0
65	259	0	10000	5	1	0	5	0
63	260	0	10000	5	1	0	5	0
60	261	0	10000	5	1	0	5	0
61	262	0	10000	5	1	0	5	0
60	263	0	10000	5	1	0	5	0
58	264	0	10000	5	1	0	5	0
56	265	0	10000	5	1	0	5	0
55	266	0	10000	5	1	0	5	0
54	267	0	10000	5	1	0	5	0
52	268	0	10000	5	1	0	5	0
51	269	0	10000	5	1	0	5	0
54	270	0	10000	5	1	0	5	0
54	271	0	10000	5	1	0	5	0
52	272	0	10000	5	1	0	5	0
52	273	0	10000	5	1	0	5	0
53	274	0	10000	5	1	0	5	0
51	275	0	10000	5	1	0	5	0
51	276	0	10000	5	1	0	5	0
50	277	0	10000	5	1	0	5	0
49	278	0	10000	5	1	0	5	0
51	279	0	10000	5	1	0	5	0
56	280	0	10000	5	1	0	5	0
62	281	0	10000	5	1	0	5	0
69	282	0	10000	5	1	0	5	0
72	283	0	10000	5	1	0	5	0
72	284	0	10000	5	1	0	5	0
69	285	0	10000	5	1	0	5	0
67	286	0	10000	5	1	0	5	0
68	287	0	10000	5	1	0	5	0
68	288	0	10000	5	1	0	5	0
68	289	0	10000	5	1	0	5	0
72	290	0	10000	5	1	0	5	0
74	291	0	10000	5	1	0	5	0
79	292	0	10000	5	1	0	5	0
84	293	0	10000	5	1	0	5	0
85	294	0	10000	5	1	0	5	0
84	295	0	10000	5	1	0	5	0
84	296	0	10000	5	1	0	5	0
81	297	0	10000	5	1	0	5	0
85	298	0	10000	5	1	0	5	0
90	299	0	10000	5	1	0	5	0
90	300	0	10000	5	1	0	5	0
88	301	0	10000	5	1	0	5	0
86	302	0	10000	5	1	0	5	0
82	303	0	10000	5	1	0	5	0
81	304	0	10000	5	1	0	5	0
80	305	0	10000	5	1	0	5	0
80	306	0	10000	5	1	0	5	0
77	307	0	10000	5	1	0	5	0
76	308	0	10000	5	1	0	5	0
75	309	0	10000	5	1	0	5	0
75	310	0	10000	5	1	0	5	0
74	311	0	10000	5	1	0	5	0
71	312	0	10000	5	1	0	5	0
68	313	0	10000	5	1	0	5	0
67	314	0	10000	5	1	0	5	0
64	315	0	10000	5	1	0	5	0
62	316	0	10000	5	1	0	5	0
59	317	0	10000	5	1	0	5	0
58	318	0	10000	5	1	0	5	0
56	319	0	10000	5	1	0	5	0
54	320	0	10000	5	1	0	5	0
54	321	0	10000	5	1	0	5	0
54	322	0	10000	5	1	0	5	0
56	323	0	10000	5	1	0	5	0
56	324	0	10000	5	1	0	5	0
54	325	0	10000	5	1	0	5	0
53	326	0	10000	5	1	0	5	0
52	327	0	10000	5	1	0	5	0
52	328	0	10000	5	1	0	5	0
50	329	0	10000	5	1	0	5	0
50	330	0	10000	5	1	0	5	0
52	331	0	10000	5	1	0	5	0
54	332	0	10000	5	1	0	5	0
55	333	0	10000	5	1	0	5	0
55	334	0	10000	5	1	0	5	0
55	335	0	10000	5	1	0	5	0
56	336	0	10000	5	1	0	5	0
58	337	0	10000	5	1	0	5	0
60	338	0	10000	5	1	0	5	0
59	339	0	10000	5	1	0	5	0
61	340	0	10000	5	1	0	5	0
64	341	0	10000	5	1	0	5	0
64	342	0	10000	5	1	0	5	0
62	343	0	10000	5	1	0	5	0
62	344	0	10000	5	1	0	5	0
61	345	0	10000	5	1	0	5	0
59	346	0	10000	5	1	0	5	0
57	347	0	10000	5	1	0	5	0
55	348	0	10000	5	1	0	5	0
54	349	0	10000	5	1	0	5	0
54	350	0	10000	5	1	0	5	0
53	351	0	10000	5	1	0	5	0
53	352	0	10000	5	1	0	5	0
52	353	0	10000	5	1	0	5	0
50	354	0	10000	5	1	0	5	0
52	355	0	10000	5	1	0	5	0
55	356	0	10000	5	1	0	5	0
57	357	0	10000	5	1	0	5	0
57	358	0	10000	5	1	0	5	0
57	359	0	10000	5	1	0	5	0
59	360	0	10000	5	1	0	5	0
62	361	0	10000	5	1	0	5	0
65	362	0	10000	5	1	0	5	0
66	363	0	10000	5	1	0	5	0
68	364	0	10000	5	1	0	5	0
65	365	0	10000	5	1	0	5	0
65	366	0	10000	5	1	0	5	0
63	367	0	10000	5	1	0	5	0
60	368	0	10000	5	1	0	5	0
57	369	0	10000	5	1	0	5	0
57	370	0	10000	5	1	0	5	0
56	371	0	10000	5	1	0	5	0
54	372	0	10000	5	1	0	5	0
53	373	0	10000	5	1	0	5	0
57	374	0	10000	5	1	0	5	0
63	375	0	10000	5	1	0	5	0
64	376	0	10000	5	1	0	5	0
62	377	0	10000	5	1	0	5	0
61	378	0	10000	5	1	0	5	0
59	379	0	10000	5	1	0	5	0
56	380	0	10000	5	1	0	5	0
54	381	0	10000	5	1	0	5	0
52	382	0	10000	5	1	0	5	0
51	383	0	10000	5	1	0	5	0
51	384	0	10000	5	1	0	5	0
50	385	0	10000	5	1	0	5	0
51	386	0	10000	5	1	0	5	0
50	387	0	10000	5	1	0	5	0
48	388	0	10000	5	1	0	5	0
47	389	0	10000	5	1	0	5	0
49	390	0	10000	5	1	0	5	0
52	391	0	10000	5	1	0	5	0
52	392	0	10000	5	1	0	5	0
50	393	0	10000	5	1	0	5	0
51	394	0	10000	5	1	0	5	0
55	395	0	10000	5	1	0	5	0
59	396	0	10000	5	1	0	5	0
59	397	0	10000	5	1	0	5	0
57	398	0	10000	5	1	0	5	0
58	399	0	10000	5	1	0	5	0
54	400	0	10000	5	1	0	5	0
54	401	0	10000	5	1	0	5	0
56	402	0	10000	5	1	0	5	0
57	403	0	10000	5	1	0	5	0
57	404	0	10000	5	1	0	5	0
60	405	0	10000	5	1	0	5	0
69	406	0	10000	5	1	0	5	0
78	407	0	10000	5	1	0	5	0
82	408	0	10000	5	1	0	5	0
83	409	0	10000	5	1	0	5	0
81	410	0	10000	5	1	0	5	0
78	411	0	10000	5	1	0	5	0
75	412	0	10000	5	1	0	5	0
72	413	0	10000	5	1	0	5	0
74	414	0	10000	5	1	0	5	0
78	415	0	10000	5	1	0	5	0
79	416	0	10000	5	1	0	5	0
78	417	0	10000	5	1	0	5	0
76	418	0	10000	5	1	0	5	0
78	419	0	10000	5	1	0	5	0
79	420	0	10000	5	1	0	5	0
78	421	0	10000	5	1	0	5	0
79	422	0	10000	5	1	0	5	0
79	423	0	10000	5	1	0	5	0
79	424	0	10000	5	1	0	5	0
78	425	0	10000	5	1	0	5	0
78	426	0	10000	5	1	0	5	0
75	427	0	10000	5	1	0	5	0
77	428	0	10000	5	1	0	5	0
79	429	0	10000	5	1	0	5	0
79	430	0	10000	5	1	0	5	0
76	431	0	10000	5	1	0	5	0
73	432	0	10000	5	1	0	5	0
72	433	0	10000	5	1	0	5	0
70	434	0	10000	5	1	0	5	0
68	435	0	10000	5	1	0	5	0
65	436	0	10000	5	1	0	5	0
62	437	0	10000	5	1	0	5	0
61	438	0	10000	5	1	0	5	0
61	439	0	10000	5	1	0	5	0
59	440	0	10000	5	1	0	5	0
57	441	0	10000	5	1	0	5	0
58	442	0	10000	5	1	0	5	0
60	443	0	10000	5	1	0	5	0
60	444	0	10000	5	1	0	5	0
58	445	0	10000	5	1	0	5	0
57	446	0	10000	5	1	0	5	0
55	447	0	10000	5	1	0	5	0
55	448	0	10000	5	1	0	5	0
57	449	0	10000	5	1	0	5	0
61	450	0	10000	5	1	0	5	0
60	451	0	10000	5	1	0	5	0
58	452	0	10000	5	1	0	5	0
57	453	0	10000	5	1	0	5	0
56	454	0	10000	5	1	0	5	0
56	455	0	10000	5	1	0	5	0
54	456	0	10000	5	1	0	5	0
53	457	0	10000	5	1	0	5	0
52	458	0	10000	5	1	0	5	0
52	459	0	10000	5	1	0	5	0
51	460	0	10000	5	1	0	5	0
48	461	0	10000	5	1	0	5	0
48	462	0	10000	5	1	0	5	0
50	463	0	10000	5	1	0	5	0
50	464	0	10000	5	1	0	5	0
50	465	0	10000	5	1	0	5	0
48	466	0	10000	5	1	0	5	0
50	467	0	10000	5	1	0	5	0
60	468	0	10000	5	1	0	5	0
69	469	0	10000	5	1	0	5	0
76	470	0	10000	5	1	0	5	0
78	471	0	10000	5	1	0	5	0
76	472	0	10000	5	1	0	5	0
75	473	0	10000	5	1	0	5	0
77	474	0	10000	5	1	0	5	0
77	475	0	10000	5	1	0	5	0
76	476	0	10000	5	1	0	5	0
76	477	0	10000	5	1	0	5	0
75	478	0	10000	5	1	0	5	0
74	479	0	10000	5	1	0	5	0
72	480	0	10000	5	1	0	5	0
73	481	0	10000	5	1	0	5	0
78	482	0	10000	5	1	0	5	0
80	483	0	10000	5	1	0	5	0
78	484	0	10000	5	1	0	5	0
75	485	0	10000	5	1	0	5	0
75	486	0	10000	5	1	0	5	0
78	487	0	10000	5	1	0	5	0
77	488	0	10000	5	1	0	5	0
74	489	0	10000	5	1	0	5	0
73	490	0	10000	5	1	0	5	0
71	491	0	10000	5	1	0	5	0
69	492	0	10000	5	1	0	5	0
69	493	0	10000	5	1	0	5	0
70	494	0	10000	5	1	0	5	0
70	495	0	10000	5	1	0	5	0
74	496	0	10000	5	1	0	5	0
78	497	0	10000	5	1	0	5	0
79	498	0	10000	5	1	0	5	0
79	499	0	10000	5	1	0	5	0
76	500	0	10000	5	1	0	5	0
74	501	0	10000	5	1	0	5	1
71	502	0	10000	5	1	0	5	1
70	503	0	10000	5	1	0	5	1
69	504	0	10000	5	1	0	5	1
68	505	0	10000	5	1	0	5	1
65	506	0	10000	5	1	0	5	1
62	507	0	10000	5	1	0	5	1
59	508	0	10000	5	1	0	5	1
57	509	0	10000	5	1	0	5	1
59	510	0	10000	5	1	0	5	1
66	511	0	10000	5	1	0	5	1
68	512	0	10000	5	1	0	5	1
67	513	0	10000	5	1	0	5	1
65	514	0	10000	5	1	0	5	1
63	515	0	10000	5	1	0	5	1
65	516	0	10000	5	1	0	5	1
68	517	0	10000	5	1	0	5	1
71	518	0	10000	5	1	0	5	1
71	519	0	10000	5	1	0	5	1
67	520	0	10000	5	1	0	5	1
64	521	0	10000	5	1	0	5	1
62	522	0	10000	5	1	0	5	1
62	523	0	10000	5	1	0	5	1
62	524	0	10000	5	1	0	5	1
60	525	0	10000	5	1	0	5	1
58	526	0	10000	5	1	0	5	1
56	527	0	10000	5	1	0	5	1
57	528	0	10000	5	1	0	5	1
55	529	0	10000	5	1	0	5	1
59	530	0	10000	5	1	0	5	1
61	531	0	10000	5	1	0	5	1
59	532	0	10000	5	1	0	5	1
57	533	0	10000	5	1	0	5	1
60	534	0	10000	5	1	0	5	1
63	535	0	10000	5	1	0	5	1
65	536	0	10000	5	1	0	5	1
65	537	0	10000	5	1	0	5	1
67	538	0	10000	5	1	0	5	1
71	539	0	10000	5	1	0	5	1
70	540	0	10000	5	1	0	5	1
67	541	0	10000	5	1	0	5	1
65	542	0	10000	5	1	0	5	1
64	543	0	10000	5	1	0	5	1
65	544	0	10000	5	1	0	5	1
62	545	0	10000	5	1	0	5	1
62	546	0	10000	5	1	0	5	1
67	547	0	10000	5	1	0	5	1
74	548	0	10000	5	1	0	5	1
78	549	0	10000	5	1	0	5	1
83	550	0	10000	5	1	0	5	1
86	551	0	10000	5	1	0	5	0
85	552	0	10000	5	1	0	5	0
83	553	0	10000	5	1	0	5	0
80	554	0	10000	5	1	0	5	0
77	555	0	10000	5	1	0	5	0
73	556	0	10000	5	1	0	5	0
71	557	0	10000	5	1	0	5	0
68	558	0	10000	5	1	0	5	0
67	559	0	10000	5	1	0	5	0
66	560	0	10000	5	1	0	5	0
67	561	0	10000	5	1	0	5	0
70	562	0	10000	5	1	0	5	0
71	563	0	10000	5	1	0	5	0
70	564	0	10000	5	1	0	5	0
70	565	0	10000	5	1	0	5	0
70	566	0	10000	5	1	0	5	0
68	567	0	10000	5	1	0	5	0
69	568	0	10000	5	1	0	5	0
73	569	0	10000	5	1	0	5	0
82	570	0	10000	5	1	0	5	0
86	571	0	10000	5	1	0	5	0
83	572	0	10000	5	1	0	5	0
83	573	0	10000	5	1	0	5	0
87	574	0	10000	5	1	0	5	0
92	575	0	10000	5	1	0	5	0
92	576	0	10000	5	1	0	5	0
96	577	0	10000	5	1	0	5	0
113	578	0	10000	5	1	0	5	0
127	579	0	10000	5	1	0	5	0
130	580	0	10000	5	1	0	5	0
130	581	0	10000	5	1	0	5	0
135	582	0	10000	5	1	0	5	0
135	583	0	10000	5	1	0	5	0
160	584	0	10000	5	1	0	5	0
184	585	0	10000	5	1	0	5	0
193	586	0	10000	5	1	0	5	0
190	587	0	10000	5	1	0	5	0
204	588	0	10000	5	1	0	5	0
234	589	0	10000	5	1	0	5	0
271	590	0	10000	5	1	0	5	0
284	591	0	10000	5	1	0	5	0
332	592	0	10000	5	1	0	5	0
385	593	0	10000	5	1	0	5	0
408	594	0	10000	5	1	0	5	0
400	595	0	10000	5	1	0	5	0
425	596	0	10000	5	1	0	5	0
464	597	0	10000	5	1	0	5	0
507	598	0	10000	5	1	0	5	0
532	599	0	10000	5	1	0	5	0
566	600	0	10000	5	1	0	5	0
563	601	0	10000	5	1	0	5	0
590	602	0	10000	5	1	0	5	0
589	603	0	10000	5	1	0	5	0
571	604	0	10000	5	1	0	5	0
552	605	0	10000	5	1	0	5	0
534	606	0	10000	5	1	0	5	0
517	607	0	10000	5	1	0	5	0
516	608	0	10000	5	1	0	5	0
501	609	0	10000	5	1	0	5	0
506	610	0	10000	5	1	0	5	0
551	611	0	10000	5	1	0	5	0
564	612	0	10000	5	1	0	5	0
552	613	0	10000	5	1	0	5	0
536	614	0	10000	5	1	0	5	0
551	615	0	10000	5	1	0	5	0
566	616	0	10000	5	1	0	5	0
566	617	0	10000	5	1	0	5	0
562	618	0	10000	5	1	0	5	0
561	619	0	10000	5	1	0	5	0
555	620	0	10000	5	1	0	5	0
551	621	0	10000	5	1	0	5	0
537	622	0	10000	5	1	0	5	0
519	623	0	10000	5	1	0	5	0
509	624	0	10000	5	1	0	5	0
503	625	0	10000	5	1	0	5	0
497	626	0	10000	5	1	0	5	0
487	627	0	10000	5	1	0	5	0
477	628	0	10000	5	1	0	5	0
469	629	0	10000	5	1	0	5	0
459	630	0	10000	5	1	0	5	0
443	631	0	10000	5	1	0	5	0
431	632	0	10000	5	1	0	5	0
424	633	0	10000	5	1	0	5	0
406	634	0	10000	5	1	0	5	0
389	635	0	10000	5	1	0	5	0
379	636	0	10000	5	1	0	5	0
368	637	0	10000	5	1	0	5	0
357	638	0	10000	5	1	0	5	0
346	639	0	10000	5	1	0	5	0
337	640	0	10000	5	1	0	5	0
329	641	0	10000	5	1	0	5	0
321	642	0	10000	5	1	0	5	0
313	643	0	10000	5	1	0	5	0
306	644	0	10000	5	1	0	5	0
300	645	0	10000	5	1	0	5	0
293	646	0	10000	5	1	0	5	0
288	647	0	10000	5	1	0	5	0
283	648	0	10000	5	1	0	5	0
275	649	0	10000	5	1	0	5	0
266	650	0	10000	5	1	0	5	0
255	651	0	10000	5	1	0	5	0
246	652	0	10000	5	1	0	5	0
245	653	0	10000	5	1	0	5	0
237	654	0	10000	5	1	0	5	0
226	655	0	10000	5	1	0	5	0
217	656	0	10000	5	1	0	5	0
210	657	0	10000	5	1	0	5	0
206	658	0	10000	5	1	0	5	0
205	659	0	10000	5	1	0	5	0
201	660	0	10000	5	1	0	5	0
196	661	0	10000	5	1	0	5	0
190	662	0	10000	5	1	0	5	0
186	663	0	10000	5	1	0	5	0
185	664	0	10000	5	1	0	5	0
183	665	0	10000	5	1	0	5	0
185	666	0	10000	5	1	0	5	0
191	667	0	10000	5	1	0	5	0
196	668	0	10000	5	1	0	5	0
203	669	0	10000	5	1	0	5	0
220	670	0	10000	5	1	0	5	0
237	671	0	10000	5	1	0	5	0
251	672	0	10000	5	1	0	5	0
251	673	0	10000	5	1	0	5	0
250	674	0	10000	5	1	0	5	0
267	675	0	10000	5	1	0	5	0
294	676	0	10000	5	1	0	5	0
319	677	0	10000	5	1	0	5	0
343	678	0	10000	5	1	0	5	0
361	679	0	10000	5	1	0	5	0
363	680	0	10000	5	1	0	5	0
364	681	0	10000	5	1	0	5	0
370	682	0	10000	5	1	0	5	0
