value	EMG	Stimulus	EMG_sensitivity	Total_Trial_Nr	practise	acq	probe_nr	Startle_Probe
16	2	7	10000	1	1	0	1	0
15	3	7	10000	1	1	0	1	0
14	4	7	10000	1	1	0	1	0
14	5	7	10000	1	1	0	1	0
14	6	7	10000	1	1	0	1	0
14	7	7	10000	1	1	0	1	0
14	8	7	10000	1	1	0	1	0
14	9	7	10000	1	1	0	1	0
15	10	7	10000	1	1	0	1	0
12	11	7	10000	1	1	0	1	0
12	12	7	10000	1	1	0	1	0
12	13	7	10000	1	1	0	1	0
12	14	7	10000	1	1	0	1	0
12	15	7	10000	1	1	0	1	0
12	16	7	10000	1	1	0	1	0
12	17	7	10000	1	1	0	1	0
11	18	7	10000	1	1	0	1	0
10	19	7	10000	1	1	0	1	0
11	20	7	10000	1	1	0	1	0
13	21	7	10000	1	1	0	1	0
12	22	7	10000	1	1	0	1	0
12	23	7	10000	1	1	0	1	0
11	24	7	10000	1	1	0	1	0
11	25	7	10000	1	1	0	1	0
12	26	7	10000	1	1	0	1	0
11	27	7	10000	1	1	0	1	0
12	28	7	10000	1	1	0	1	0
12	29	7	10000	1	1	0	1	0
12	30	7	10000	1	1	0	1	0
11	31	7	10000	1	1	0	1	0
10	32	7	10000	1	1	0	1	0
10	33	7	10000	1	1	0	1	0
10	34	7	10000	1	1	0	1	0
10	35	7	10000	1	1	0	1	0
12	36	7	10000	1	1	0	1	0
12	37	7	10000	1	1	0	1	0
12	38	7	10000	1	1	0	1	0
13	39	7	10000	1	1	0	1	0
11	40	7	10000	1	1	0	1	0
13	41	7	10000	1	1	0	1	0
12	42	7	10000	1	1	0	1	0
12	43	7	10000	1	1	0	1	0
12	44	7	10000	1	1	0	1	0
11	45	7	10000	1	1	0	1	0
12	46	7	10000	1	1	0	1	0
11	47	7	10000	1	1	0	1	0
11	48	7	10000	1	1	0	1	0
12	49	7	10000	1	1	0	1	0
13	50	7	10000	1	1	0	1	0
11	51	7	10000	1	1	0	1	0
11	52	7	10000	1	1	0	1	0
11	53	7	10000	1	1	0	1	0
11	54	7	10000	1	1	0	1	0
12	55	7	10000	1	1	0	1	0
12	56	7	10000	1	1	0	1	0
12	57	7	10000	1	1	0	1	0
11	58	7	10000	1	1	0	1	0
12	59	7	10000	1	1	0	1	0
12	60	7	10000	1	1	0	1	0
13	61	7	10000	1	1	0	1	0
13	62	7	10000	1	1	0	1	0
12	63	7	10000	1	1	0	1	0
12	64	7	10000	1	1	0	1	0
13	65	7	10000	1	1	0	1	0
14	66	7	10000	1	1	0	1	0
14	67	7	10000	1	1	0	1	0
15	68	7	10000	1	1	0	1	0
15	69	7	10000	1	1	0	1	0
15	70	7	10000	1	1	0	1	0
12	71	7	10000	1	1	0	1	0
12	72	7	10000	1	1	0	1	0
12	73	7	10000	1	1	0	1	0
13	74	7	10000	1	1	0	1	0
13	75	7	10000	1	1	0	1	0
13	76	7	10000	1	1	0	1	0
13	77	7	10000	1	1	0	1	0
13	78	7	10000	1	1	0	1	0
12	79	7	10000	1	1	0	1	0
11	80	7	10000	1	1	0	1	0
14	81	7	10000	1	1	0	1	0
14	82	7	10000	1	1	0	1	0
14	83	7	10000	1	1	0	1	0
13	84	7	10000	1	1	0	1	0
13	85	7	10000	1	1	0	1	0
13	86	7	10000	1	1	0	1	0
12	87	7	10000	1	1	0	1	0
12	88	7	10000	1	1	0	1	0
12	89	7	10000	1	1	0	1	0
12	90	7	10000	1	1	0	1	0
11	91	7	10000	1	1	0	1	0
12	92	7	10000	1	1	0	1	0
11	93	7	10000	1	1	0	1	0
13	94	7	10000	1	1	0	1	0
12	95	7	10000	1	1	0	1	0
12	96	7	10000	1	1	0	1	0
13	97	7	10000	1	1	0	1	0
11	98	7	10000	1	1	0	1	0
12	99	7	10000	1	1	0	1	0
12	100	7	10000	1	1	0	1	0
15	101	7	10000	1	1	0	1	0
15	102	7	10000	1	1	0	1	0
15	103	7	10000	1	1	0	1	0
14	104	7	10000	1	1	0	1	0
14	105	7	10000	1	1	0	1	0
13	106	7	10000	1	1	0	1	0
13	107	7	10000	1	1	0	1	0
13	108	7	10000	1	1	0	1	0
13	109	7	10000	1	1	0	1	0
14	110	7	10000	1	1	0	1	0
11	111	7	10000	1	1	0	1	0
11	112	7	10000	1	1	0	1	0
11	113	7	10000	1	1	0	1	0
11	114	7	10000	1	1	0	1	0
13	115	7	10000	1	1	0	1	0
16	116	7	10000	1	1	0	1	0
21	117	7	10000	1	1	0	1	0
25	118	7	10000	1	1	0	1	0
29	119	7	10000	1	1	0	1	0
32	120	7	10000	1	1	0	1	0
38	121	7	10000	1	1	0	1	0
39	122	7	10000	1	1	0	1	0
40	123	7	10000	1	1	0	1	0
37	124	7	10000	1	1	0	1	0
36	125	7	10000	1	1	0	1	0
35	126	7	10000	1	1	0	1	0
33	127	7	10000	1	1	0	1	0
32	128	7	10000	1	1	0	1	0
32	129	7	10000	1	1	0	1	0
33	130	7	10000	1	1	0	1	0
32	131	7	10000	1	1	0	1	0
35	132	7	10000	1	1	0	1	0
41	133	7	10000	1	1	0	1	0
46	134	7	10000	1	1	0	1	0
52	135	7	10000	1	1	0	1	0
57	136	7	10000	1	1	0	1	0
61	137	7	10000	1	1	0	1	0
67	138	7	10000	1	1	0	1	0
75	139	7	10000	1	1	0	1	0
82	140	7	10000	1	1	0	1	0
92	141	7	10000	1	1	0	1	0
100	142	7	10000	1	1	0	1	0
106	143	7	10000	1	1	0	1	0
112	144	7	10000	1	1	0	1	0
118	145	7	10000	1	1	0	1	0
123	146	7	10000	1	1	0	1	0
127	147	7	10000	1	1	0	1	0
131	148	7	10000	1	1	0	1	0
135	149	7	10000	1	1	0	1	0
140	150	7	10000	1	1	0	1	0
142	151	7	10000	1	1	0	1	0
149	152	7	10000	1	1	0	1	0
153	153	7	10000	1	1	0	1	0
156	154	7	10000	1	1	0	1	0
158	155	7	10000	1	1	0	1	0
158	156	7	10000	1	1	0	1	0
156	157	7	10000	1	1	0	1	0
154	158	7	10000	1	1	0	1	0
152	159	7	10000	1	1	0	1	0
149	160	7	10000	1	1	0	1	0
149	161	7	10000	1	1	0	1	0
147	162	7	10000	1	1	0	1	0
146	163	7	10000	1	1	0	1	0
144	164	7	10000	1	1	0	1	0
142	165	7	10000	1	1	0	1	0
138	166	7	10000	1	1	0	1	0
133	167	7	10000	1	1	0	1	0
128	168	7	10000	1	1	0	1	0
122	169	7	10000	1	1	0	1	0
118	170	7	10000	1	1	0	1	0
112	171	7	10000	1	1	0	1	0
108	172	7	10000	1	1	0	1	0
104	173	7	10000	1	1	0	1	0
100	174	7	10000	1	1	0	1	0
97	175	7	10000	1	1	0	1	0
95	176	7	10000	1	1	0	1	0
93	177	7	10000	1	1	0	1	0
92	178	7	10000	1	1	0	1	0
94	179	7	10000	1	1	0	1	0
95	180	7	10000	1	1	0	1	0
99	181	7	10000	1	1	0	1	0
100	182	7	10000	1	1	0	1	0
102	183	7	10000	1	1	0	1	0
105	184	7	10000	1	1	0	1	0
110	185	7	10000	1	1	0	1	0
114	186	7	10000	1	1	0	1	0
117	187	7	10000	1	1	0	1	0
122	188	7	10000	1	1	0	1	0
126	189	7	10000	1	1	0	1	0
129	190	7	10000	1	1	0	1	0
132	191	7	10000	1	1	0	1	0
137	192	7	10000	1	1	0	1	0
141	193	7	10000	1	1	0	1	0
145	194	7	10000	1	1	0	1	0
147	195	7	10000	1	1	0	1	0
151	196	7	10000	1	1	0	1	0
154	197	7	10000	1	1	0	1	0
157	198	7	10000	1	1	0	1	0
161	199	7	10000	1	1	0	1	0
164	200	7	10000	1	1	0	1	0
169	201	7	10000	1	1	0	1	0
173	202	7	10000	1	1	0	1	0
175	203	7	10000	1	1	0	1	0
178	204	7	10000	1	1	0	1	0
179	205	7	10000	1	1	0	1	0
180	206	7	10000	1	1	0	1	0
181	207	7	10000	1	1	0	1	0
180	208	7	10000	1	1	0	1	0
179	209	7	10000	1	1	0	1	0
180	210	7	10000	1	1	0	1	0
179	211	7	10000	1	1	0	1	0
179	212	7	10000	1	1	0	1	0
179	213	7	10000	1	1	0	1	0
178	214	7	10000	1	1	0	1	0
177	215	7	10000	1	1	0	1	0
176	216	7	10000	1	1	0	1	0
176	217	7	10000	1	1	0	1	0
175	218	7	10000	1	1	0	1	0
175	219	7	10000	1	1	0	1	0
174	220	7	10000	1	1	0	1	0
174	221	7	10000	1	1	0	1	0
171	222	7	10000	1	1	0	1	0
169	223	7	10000	1	1	0	1	0
167	224	7	10000	1	1	0	1	0
165	225	7	10000	1	1	0	1	0
162	226	7	10000	1	1	0	1	0
159	227	7	10000	1	1	0	1	0
156	228	7	10000	1	1	0	1	0
152	229	7	10000	1	1	0	1	0
150	230	7	10000	1	1	0	1	0
145	231	7	10000	1	1	0	1	0
144	232	7	10000	1	1	0	1	0
142	233	7	10000	1	1	0	1	0
139	234	7	10000	1	1	0	1	0
136	235	7	10000	1	1	0	1	0
133	236	7	10000	1	1	0	1	0
128	237	7	10000	1	1	0	1	0
124	238	7	10000	1	1	0	1	0
121	239	7	10000	1	1	0	1	0
117	240	7	10000	1	1	0	1	0
115	241	7	10000	1	1	0	1	0
111	242	7	10000	1	1	0	1	0
108	243	7	10000	1	1	0	1	0
104	244	7	10000	1	1	0	1	0
100	245	7	10000	1	1	0	1	0
96	246	7	10000	1	1	0	1	0
92	247	7	10000	1	1	0	1	0
88	248	7	10000	1	1	0	1	0
87	249	7	10000	1	1	0	1	0
83	250	7	10000	1	1	0	1	0
78	251	7	10000	1	1	0	1	0
75	252	7	10000	1	1	0	1	0
72	253	7	10000	1	1	0	1	0
69	254	7	10000	1	1	0	1	0
67	255	7	10000	1	1	0	1	0
65	256	7	10000	1	1	0	1	0
62	257	7	10000	1	1	0	1	0
59	258	7	10000	1	1	0	1	0
56	259	7	10000	1	1	0	1	0
53	260	7	10000	1	1	0	1	0
53	261	7	10000	1	1	0	1	0
52	262	7	10000	1	1	0	1	0
50	263	7	10000	1	1	0	1	0
48	264	7	10000	1	1	0	1	0
47	265	7	10000	1	1	0	1	0
44	266	7	10000	1	1	0	1	0
43	267	7	10000	1	1	0	1	0
42	268	7	10000	1	1	0	1	0
42	269	7	10000	1	1	0	1	0
42	270	7	10000	1	1	0	1	0
40	271	7	10000	1	1	0	1	0
41	272	7	10000	1	1	0	1	0
40	273	7	10000	1	1	0	1	0
39	274	7	10000	1	1	0	1	0
38	275	7	10000	1	1	0	1	0
36	276	7	10000	1	1	0	1	0
35	277	7	10000	1	1	0	1	0
34	278	7	10000	1	1	0	1	0
33	279	7	10000	1	1	0	1	0
33	280	7	10000	1	1	0	1	0
34	281	7	10000	1	1	0	1	0
32	282	7	10000	1	1	0	1	0
31	283	7	10000	1	1	0	1	0
30	284	7	10000	1	1	0	1	0
29	285	7	10000	1	1	0	1	0
29	286	7	10000	1	1	0	1	0
27	287	7	10000	1	1	0	1	0
27	288	7	10000	1	1	0	1	0
26	289	7	10000	1	1	0	1	0
26	290	7	10000	1	1	0	1	0
24	291	7	10000	1	1	0	1	0
23	292	7	10000	1	1	0	1	0
23	293	7	10000	1	1	0	1	0
24	294	7	10000	1	1	0	1	0
24	295	7	10000	1	1	0	1	0
23	296	7	10000	1	1	0	1	0
23	297	7	10000	1	1	0	1	0
23	298	7	10000	1	1	0	1	0
21	299	7	10000	1	1	0	1	0
20	300	7	10000	1	1	0	1	0
22	301	7	10000	1	1	0	1	0
21	302	7	10000	1	1	0	1	0
20	303	7	10000	1	1	0	1	0
20	304	7	10000	1	1	0	1	0
19	305	7	10000	1	1	0	1	0
19	306	7	10000	1	1	0	1	0
19	307	7	10000	1	1	0	1	0
20	308	7	10000	1	1	0	1	0
21	309	7	10000	1	1	0	1	0
24	310	7	10000	1	1	0	1	0
24	311	7	10000	1	1	0	1	0
24	312	7	10000	1	1	0	1	0
23	313	7	10000	1	1	0	1	0
23	314	7	10000	1	1	0	1	0
23	315	7	10000	1	1	0	1	0
23	316	7	10000	1	1	0	1	0
25	317	7	10000	1	1	0	1	0
24	318	7	10000	1	1	0	1	0
24	319	7	10000	1	1	0	1	0
24	320	7	10000	1	1	0	1	0
25	321	7	10000	1	1	0	1	0
24	322	7	10000	1	1	0	1	0
23	323	7	10000	1	1	0	1	0
22	324	7	10000	1	1	0	1	0
21	325	7	10000	1	1	0	1	0
21	326	7	10000	1	1	0	1	0
21	327	7	10000	1	1	0	1	0
22	328	7	10000	1	1	0	1	0
23	329	7	10000	1	1	0	1	0
23	330	7	10000	1	1	0	1	0
21	331	7	10000	1	1	0	1	0
21	332	7	10000	1	1	0	1	0
21	333	7	10000	1	1	0	1	0
21	334	7	10000	1	1	0	1	0
21	335	7	10000	1	1	0	1	0
20	336	7	10000	1	1	0	1	0
22	337	7	10000	1	1	0	1	0
25	338	7	10000	1	1	0	1	0
28	339	7	10000	1	1	0	1	0
32	340	7	10000	1	1	0	1	0
42	341	7	10000	1	1	0	1	0
49	342	7	10000	1	1	0	1	0
56	343	7	10000	1	1	0	1	0
57	344	7	10000	1	1	0	1	0
56	345	7	10000	1	1	0	1	0
63	346	7	10000	1	1	0	1	0
68	347	7	10000	1	1	0	1	0
75	348	7	10000	1	1	0	1	0
76	349	7	10000	1	1	0	1	0
73	350	7	10000	1	1	0	1	0
71	351	7	10000	1	1	0	1	0
71	352	7	10000	1	1	0	1	0
71	353	7	10000	1	1	0	1	0
72	354	7	10000	1	1	0	1	0
72	355	7	10000	1	1	0	1	0
74	356	7	10000	1	1	0	1	0
77	357	7	10000	1	1	0	1	0
80	358	7	10000	1	1	0	1	0
82	359	7	10000	1	1	0	1	0
84	360	7	10000	1	1	0	1	0
88	361	7	10000	1	1	0	1	0
88	362	7	10000	1	1	0	1	0
87	363	7	10000	1	1	0	1	0
85	364	7	10000	1	1	0	1	0
82	365	7	10000	1	1	0	1	0
80	366	7	10000	1	1	0	1	0
79	367	7	10000	1	1	0	1	0
80	368	7	10000	1	1	0	1	0
84	369	7	10000	1	1	0	1	0
87	370	7	10000	1	1	0	1	0
85	371	7	10000	1	1	0	1	0
84	372	7	10000	1	1	0	1	0
82	373	7	10000	1	1	0	1	0
81	374	7	10000	1	1	0	1	0
85	375	7	10000	1	1	0	1	0
88	376	7	10000	1	1	0	1	0
89	377	7	10000	1	1	0	1	0
87	378	7	10000	1	1	0	1	0
83	379	7	10000	1	1	0	1	0
83	380	7	10000	1	1	0	1	0
86	381	7	10000	1	1	0	1	0
84	382	7	10000	1	1	0	1	0
80	383	7	10000	1	1	0	1	0
79	384	7	10000	1	1	0	1	0
75	385	7	10000	1	1	0	1	0
73	386	7	10000	1	1	0	1	0
71	387	7	10000	1	1	0	1	0
70	388	7	10000	1	1	0	1	0
68	389	7	10000	1	1	0	1	0
65	390	7	10000	1	1	0	1	0
63	391	7	10000	1	1	0	1	0
64	392	7	10000	1	1	0	1	0
67	393	7	10000	1	1	0	1	0
69	394	7	10000	1	1	0	1	0
70	395	7	10000	1	1	0	1	0
71	396	7	10000	1	1	0	1	0
75	397	7	10000	1	1	0	1	0
79	398	7	10000	1	1	0	1	0
80	399	7	10000	1	1	0	1	0
80	400	7	10000	1	1	0	1	0
81	401	7	10000	1	1	0	1	0
80	402	7	10000	1	1	0	1	0
82	403	7	10000	1	1	0	1	0
81	404	7	10000	1	1	0	1	0
79	405	7	10000	1	1	0	1	0
76	406	7	10000	1	1	0	1	0
75	407	7	10000	1	1	0	1	0
74	408	7	10000	1	1	0	1	0
75	409	7	10000	1	1	0	1	0
80	410	7	10000	1	1	0	1	0
92	411	7	10000	1	1	0	1	0
106	412	7	10000	1	1	0	1	0
116	413	7	10000	1	1	0	1	0
121	414	7	10000	1	1	0	1	0
124	415	7	10000	1	1	0	1	0
128	416	7	10000	1	1	0	1	0
129	417	7	10000	1	1	0	1	0
125	418	7	10000	1	1	0	1	0
125	419	7	10000	1	1	0	1	0
138	420	7	10000	1	1	0	1	0
165	421	7	10000	1	1	0	1	0
174	422	7	10000	1	1	0	1	0
171	423	7	10000	1	1	0	1	0
182	424	7	10000	1	1	0	1	0
188	425	7	10000	1	1	0	1	0
181	426	7	10000	1	1	0	1	0
179	427	7	10000	1	1	0	1	0
175	428	7	10000	1	1	0	1	0
169	429	7	10000	1	1	0	1	0
164	430	7	10000	1	1	0	1	0
155	431	7	10000	1	1	0	1	0
153	432	7	10000	1	1	0	1	0
156	433	7	10000	1	1	0	1	0
163	434	7	10000	1	1	0	1	0
164	435	7	10000	1	1	0	1	0
158	436	7	10000	1	1	0	1	0
157	437	7	10000	1	1	0	1	0
154	438	7	10000	1	1	0	1	0
149	439	7	10000	1	1	0	1	0
144	440	7	10000	1	1	0	1	0
144	441	7	10000	1	1	0	1	0
144	442	7	10000	1	1	0	1	0
146	443	7	10000	1	1	0	1	0
147	444	7	10000	1	1	0	1	0
152	445	7	10000	1	1	0	1	0
151	446	7	10000	1	1	0	1	0
144	447	7	10000	1	1	0	1	0
141	448	7	10000	1	1	0	1	0
137	449	7	10000	1	1	0	1	0
132	450	7	10000	1	1	0	1	0
126	451	7	10000	1	1	0	1	0
121	452	7	10000	1	1	0	1	0
116	453	7	10000	1	1	0	1	0
113	454	7	10000	1	1	0	1	0
110	455	7	10000	1	1	0	1	0
107	456	7	10000	1	1	0	1	0
103	457	7	10000	1	1	0	1	0
100	458	7	10000	1	1	0	1	0
98	459	7	10000	1	1	0	1	0
97	460	7	10000	1	1	0	1	0
98	461	7	10000	1	1	0	1	0
98	462	7	10000	1	1	0	1	0
96	463	7	10000	1	1	0	1	0
92	464	7	10000	1	1	0	1	0
88	465	7	10000	1	1	0	1	0
85	466	7	10000	1	1	0	1	0
80	467	7	10000	1	1	0	1	0
78	468	7	10000	1	1	0	1	0
75	469	7	10000	1	1	0	1	0
72	470	7	10000	1	1	0	1	0
68	471	7	10000	1	1	0	1	0
66	472	7	10000	1	1	0	1	0
64	473	7	10000	1	1	0	1	0
61	474	7	10000	1	1	0	1	0
58	475	7	10000	1	1	0	1	0
57	476	7	10000	1	1	0	1	0
58	477	7	10000	1	1	0	1	0
57	478	7	10000	1	1	0	1	0
55	479	7	10000	1	1	0	1	0
53	480	7	10000	1	1	0	1	0
54	481	7	10000	1	1	0	1	0
54	482	7	10000	1	1	0	1	0
54	483	7	10000	1	1	0	1	0
52	484	7	10000	1	1	0	1	0
51	485	7	10000	1	1	0	1	0
49	486	7	10000	1	1	0	1	0
46	487	7	10000	1	1	0	1	0
46	488	7	10000	1	1	0	1	0
45	489	7	10000	1	1	0	1	0
44	490	7	10000	1	1	0	1	0
40	491	7	10000	1	1	0	1	0
40	492	7	10000	1	1	0	1	0
39	493	7	10000	1	1	0	1	0
39	494	7	10000	1	1	0	1	0
37	495	7	10000	1	1	0	1	0
36	496	7	10000	1	1	0	1	0
35	497	7	10000	1	1	0	1	0
35	498	7	10000	1	1	0	1	0
34	499	7	10000	1	1	0	1	0
35	500	7	10000	1	1	0	1	0
38	501	7	10000	1	1	0	1	0
37	568	7	10000	1	1	0	1	1
36	569	7	10000	1	1	0	1	1
37	570	7	10000	1	1	0	1	1
38	571	7	10000	1	1	0	1	1
37	572	7	10000	1	1	0	1	1
36	573	7	10000	1	1	0	1	1
35	574	7	10000	1	1	0	1	1
34	575	7	10000	1	1	0	1	1
33	576	7	10000	1	1	0	1	1
32	577	7	10000	1	1	0	1	1
30	578	7	10000	1	1	0	1	1
29	579	7	10000	1	1	0	1	1
28	580	7	10000	1	1	0	1	1
28	581	7	10000	1	1	0	1	1
27	582	7	10000	1	1	0	1	1
26	583	7	10000	1	1	0	1	1
25	584	7	10000	1	1	0	1	1
24	585	7	10000	1	1	0	1	1
23	586	7	10000	1	1	0	1	1
25	587	7	10000	1	1	0	1	1
24	588	7	10000	1	1	0	1	1
23	589	7	10000	1	1	0	1	1
23	590	7	10000	1	1	0	1	1
21	591	7	10000	1	1	0	1	1
21	592	7	10000	1	1	0	1	1
21	593	7	10000	1	1	0	1	1
21	594	7	10000	1	1	0	1	1
20	595	7	10000	1	1	0	1	1
20	596	7	10000	1	1	0	1	1
19	597	7	10000	1	1	0	1	1
18	598	7	10000	1	1	0	1	1
18	599	7	10000	1	1	0	1	1
18	600	7	10000	1	1	0	1	1
18	601	7	10000	1	1	0	1	1
18	602	7	10000	1	1	0	1	1
18	603	7	10000	1	1	0	1	1
18	604	7	10000	1	1	0	1	1
18	605	7	10000	1	1	0	1	1
18	606	7	10000	1	1	0	1	1
19	607	7	10000	1	1	0	1	1
18	608	7	10000	1	1	0	1	1
18	609	7	10000	1	1	0	1	1
18	610	7	10000	1	1	0	1	1
17	611	7	10000	1	1	0	1	1
18	612	7	10000	1	1	0	1	1
18	613	7	10000	1	1	0	1	1
18	614	7	10000	1	1	0	1	1
19	615	7	10000	1	1	0	1	1
20	616	7	10000	1	1	0	1	1
19	617	7	10000	1	1	0	1	1
19	618	7	10000	1	1	0	1	1
19	619	7	10000	1	1	0	1	1
19	620	7	10000	1	1	0	1	1
18	621	7	10000	1	1	0	1	1
19	622	7	10000	1	1	0	1	1
19	623	7	10000	1	1	0	1	1
18	624	7	10000	1	1	0	1	1
17	625	7	10000	1	1	0	1	1
17	626	7	10000	1	1	0	1	1
20	627	7	10000	1	1	0	1	1
19	628	7	10000	1	1	0	1	1
19	629	7	10000	1	1	0	1	1
18	630	7	10000	1	1	0	1	1
19	631	7	10000	1	1	0	1	1
19	632	7	10000	1	1	0	1	1
17	633	7	10000	1	1	0	1	1
17	634	7	10000	1	1	0	1	1
18	635	7	10000	1	1	0	1	1
17	573	7	10000	1	1	0	1	0
17	574	7	10000	1	1	0	1	0
18	575	7	10000	1	1	0	1	0
19	576	7	10000	1	1	0	1	0
19	574	7	10000	1	1	0	1	0
19	575	7	10000	1	1	0	1	0
18	576	7	10000	1	1	0	1	0
19	577	7	10000	1	1	0	1	0
18	578	7	10000	1	1	0	1	0
18	579	7	10000	1	1	0	1	0
17	580	7	10000	1	1	0	1	0
18	581	7	10000	1	1	0	1	0
19	582	7	10000	1	1	0	1	0
17	583	7	10000	1	1	0	1	0
16	584	7	10000	1	1	0	1	0
16	585	7	10000	1	1	0	1	0
16	586	7	10000	1	1	0	1	0
15	587	7	10000	1	1	0	1	0
15	588	7	10000	1	1	0	1	0
16	589	7	10000	1	1	0	1	0
16	590	7	10000	1	1	0	1	0
13	591	7	10000	1	1	0	1	0
15	592	7	10000	1	1	0	1	0
16	593	7	10000	1	1	0	1	0
16	594	7	10000	1	1	0	1	0
16	595	7	10000	1	1	0	1	0
16	596	7	10000	1	1	0	1	0
17	597	7	10000	1	1	0	1	0
18	598	7	10000	1	1	0	1	0
20	599	7	10000	1	1	0	1	0
21	600	7	10000	1	1	0	1	0
26	601	7	10000	1	1	0	1	0
30	602	7	10000	1	1	0	1	0
33	603	7	10000	1	1	0	1	0
36	604	7	10000	1	1	0	1	0
38	605	7	10000	1	1	0	1	0
36	606	7	10000	1	1	0	1	0
38	607	7	10000	1	1	0	1	0
43	608	7	10000	1	1	0	1	0
47	609	7	10000	1	1	0	1	0
51	610	7	10000	1	1	0	1	0
48	611	7	10000	1	1	0	1	0
46	612	7	10000	1	1	0	1	0
45	613	7	10000	1	1	0	1	0
44	614	7	10000	1	1	0	1	0
43	615	7	10000	1	1	0	1	0
41	616	7	10000	1	1	0	1	0
42	617	7	10000	1	1	0	1	0
41	618	7	10000	1	1	0	1	0
41	619	7	10000	1	1	0	1	0
39	620	7	10000	1	1	0	1	0
41	621	7	10000	1	1	0	1	0
43	622	7	10000	1	1	0	1	0
45	623	7	10000	1	1	0	1	0
45	624	7	10000	1	1	0	1	0
44	625	7	10000	1	1	0	1	0
42	626	7	10000	1	1	0	1	0
42	627	7	10000	1	1	0	1	0
42	628	7	10000	1	1	0	1	0
39	629	7	10000	1	1	0	1	0
38	630	7	10000	1	1	0	1	0
34	631	7	10000	1	1	0	1	0
33	632	7	10000	1	1	0	1	0
34	633	7	10000	1	1	0	1	0
34	634	7	10000	1	1	0	1	0
35	635	7	10000	1	1	0	1	0
34	636	7	10000	1	1	0	1	0
34	637	7	10000	1	1	0	1	0
32	638	7	10000	1	1	0	1	0
32	639	7	10000	1	1	0	1	0
32	640	7	10000	1	1	0	1	0
35	641	7	10000	1	1	0	1	0
35	642	7	10000	1	1	0	1	0
34	643	7	10000	1	1	0	1	0
34	644	7	10000	1	1	0	1	0
33	645	7	10000	1	1	0	1	0
32	646	7	10000	1	1	0	1	0
31	647	7	10000	1	1	0	1	0
31	648	7	10000	1	1	0	1	0
32	649	7	10000	1	1	0	1	0
34	650	7	10000	1	1	0	1	0
31	651	7	10000	1	1	0	1	0
30	652	7	10000	1	1	0	1	0
30	653	7	10000	1	1	0	1	0
31	654	7	10000	1	1	0	1	0
33	655	7	10000	1	1	0	1	0
36	656	7	10000	1	1	0	1	0
43	657	7	10000	1	1	0	1	0
51	658	7	10000	1	1	0	1	0
57	659	7	10000	1	1	0	1	0
59	660	7	10000	1	1	0	1	0
59	661	7	10000	1	1	0	1	0
63	662	7	10000	1	1	0	1	0
83	663	7	10000	1	1	0	1	0
95	664	7	10000	1	1	0	1	0
106	665	7	10000	1	1	0	1	0
117	666	7	10000	1	1	0	1	0
122	667	7	10000	1	1	0	1	0
121	668	7	10000	1	1	0	1	0
120	669	7	10000	1	1	0	1	0
146	670	7	10000	1	1	0	1	0
202	671	7	10000	1	1	0	1	0
247	672	7	10000	1	1	0	1	0
253	673	7	10000	1	1	0	1	0
278	674	7	10000	1	1	0	1	0
318	675	7	10000	1	1	0	1	0
342	676	7	10000	1	1	0	1	0
361	677	7	10000	1	1	0	1	0
395	678	7	10000	1	1	0	1	0
462	679	7	10000	1	1	0	1	0
526	680	7	10000	1	1	0	1	0
543	681	7	10000	1	1	0	1	0
527	682	7	10000	1	1	0	1	0
514	683	7	10000	1	1	0	1	0
549	684	7	10000	1	1	0	1	0
586	685	7	10000	1	1	0	1	0
608	686	7	10000	1	1	0	1	0
604	687	7	10000	1	1	0	1	0
636	688	7	10000	1	1	0	1	0
666	689	7	10000	1	1	0	1	0
691	690	7	10000	1	1	0	1	0
678	691	7	10000	1	1	0	1	0
690	692	7	10000	1	1	0	1	0
682	693	7	10000	1	1	0	1	0
664	694	7	10000	1	1	0	1	0
636	695	7	10000	1	1	0	1	0
607	696	7	10000	1	1	0	1	0
578	697	7	10000	1	1	0	1	0
551	698	7	10000	1	1	0	1	0
534	699	7	10000	1	1	0	1	0
529	700	7	10000	1	1	0	1	0
536	701	7	10000	1	1	0	1	0
552	702	7	10000	1	1	0	1	0
572	703	7	10000	1	1	0	1	0
591	704	7	10000	1	1	0	1	0
601	705	7	10000	1	1	0	1	0
617	706	7	10000	1	1	0	1	0
671	707	7	10000	1	1	0	1	0
701	708	7	10000	1	1	0	1	0
734	709	7	10000	1	1	0	1	0
763	710	7	10000	1	1	0	1	0
747	711	7	10000	1	1	0	1	0
717	712	7	10000	1	1	0	1	0
709	713	7	10000	1	1	0	1	0
685	714	7	10000	1	1	0	1	0
670	715	7	10000	1	1	0	1	0
680	716	7	10000	1	1	0	1	0
693	717	7	10000	1	1	0	1	0
688	718	7	10000	1	1	0	1	0
664	719	7	10000	1	1	0	1	0
641	720	7	10000	1	1	0	1	0
633	721	7	10000	1	1	0	1	0
636	722	7	10000	1	1	0	1	0
670	723	7	10000	1	1	0	1	0
692	724	7	10000	1	1	0	1	0
672	725	7	10000	1	1	0	1	0
646	726	7	10000	1	1	0	1	0
631	727	7	10000	1	1	0	1	0
610	728	7	10000	1	1	0	1	0
587	729	7	10000	1	1	0	1	0
578	730	7	10000	1	1	0	1	0
555	731	7	10000	1	1	0	1	0
561	732	7	10000	1	1	0	1	0
612	733	7	10000	1	1	0	1	0
681	734	7	10000	1	1	0	1	0
692	735	7	10000	1	1	0	1	0
721	736	7	10000	1	1	0	1	0
723	737	7	10000	1	1	0	1	0
702	738	7	10000	1	1	0	1	0
681	739	7	10000	1	1	0	1	0
678	740	7	10000	1	1	0	1	0
674	741	7	10000	1	1	0	1	0
651	742	7	10000	1	1	0	1	0
630	743	7	10000	1	1	0	1	0
645	744	7	10000	1	1	0	1	0
660	745	7	10000	1	1	0	1	0
641	746	7	10000	1	1	0	1	0
651	747	7	10000	1	1	0	1	0
690	748	7	10000	1	1	0	1	0
692	749	7	10000	1	1	0	1	0
670	750	7	10000	1	1	0	1	0
642	751	7	10000	1	1	0	1	0
618	752	7	10000	1	1	0	1	0
601	753	7	10000	1	1	0	1	0
637	754	7	10000	1	1	0	1	0
745	755	7	10000	1	1	0	1	0
766	756	7	10000	1	1	0	1	0
753	757	7	10000	1	1	0	1	0
748	758	7	10000	1	1	0	1	0
717	759	7	10000	1	1	0	1	0
690	760	7	10000	1	1	0	1	0
667	761	7	10000	1	1	0	1	0
657	762	7	10000	1	1	0	1	0
666	763	7	10000	1	1	0	1	0
666	764	7	10000	1	1	0	1	0
695	765	7	10000	1	1	0	1	0
820	766	7	10000	1	1	0	1	0
891	767	7	10000	1	1	0	1	0
880	768	7	10000	1	1	0	1	0
868	769	7	10000	1	1	0	1	0
858	770	7	10000	1	1	0	1	0
829	771	7	10000	1	1	0	1	0
794	772	7	10000	1	1	0	1	0
766	773	7	10000	1	1	0	1	0
753	774	7	10000	1	1	0	1	0
750	775	7	10000	1	1	0	1	0
761	776	7	10000	1	1	0	1	0
776	777	7	10000	1	1	0	1	0
787	778	7	10000	1	1	0	1	0
790	779	7	10000	1	1	0	1	0
787	780	7	10000	1	1	0	1	0
781	781	7	10000	1	1	0	1	0
767	782	7	10000	1	1	0	1	0
749	783	7	10000	1	1	0	1	0
725	784	7	10000	1	1	0	1	0
699	785	7	10000	1	1	0	1	0
668	786	7	10000	1	1	0	1	0
642	787	7	10000	1	1	0	1	0
625	788	7	10000	1	1	0	1	0
615	789	7	10000	1	1	0	1	0
610	790	7	10000	1	1	0	1	0
609	791	7	10000	1	1	0	1	0
613	792	7	10000	1	1	0	1	0
621	793	7	10000	1	1	0	1	0
631	794	7	10000	1	1	0	1	0
642	795	7	10000	1	1	0	1	0
655	796	7	10000	1	1	0	1	0
668	797	7	10000	1	1	0	1	0
682	798	7	10000	1	1	0	1	0
695	799	7	10000	1	1	0	1	0
715	800	7	10000	1	1	0	1	0
743	801	7	10000	1	1	0	1	0
773	802	7	10000	1	1	0	1	0
808	803	7	10000	1	1	0	1	0
847	804	7	10000	1	1	0	1	0
893	805	7	10000	1	1	0	1	0
940	806	7	10000	1	1	0	1	0
991	807	7	10000	1	1	0	1	0
1041	808	7	10000	1	1	0	1	0
1090	809	7	10000	1	1	0	1	0
1135	810	7	10000	1	1	0	1	0
1176	811	7	10000	1	1	0	1	0
1218	812	7	10000	1	1	0	1	0
1257	813	7	10000	1	1	0	1	0
1295	814	7	10000	1	1	0	1	0
1330	815	7	10000	1	1	0	1	0
1363	816	7	10000	1	1	0	1	0
1393	817	7	10000	1	1	0	1	0
1420	818	7	10000	1	1	0	1	0
1442	819	7	10000	1	1	0	1	0
1465	820	7	10000	1	1	0	1	0
1489	821	7	10000	1	1	0	1	0
1509	822	7	10000	1	1	0	1	0
1526	823	7	10000	1	1	0	1	0
1544	824	7	10000	1	1	0	1	0
1561	825	7	10000	1	1	0	1	0
1574	826	7	10000	1	1	0	1	0
1583	827	7	10000	1	1	0	1	0
1587	828	7	10000	1	1	0	1	0
1585	829	7	10000	1	1	0	1	0
1576	830	7	10000	1	1	0	1	0
1560	831	7	10000	1	1	0	1	0
1542	832	7	10000	1	1	0	1	0
1523	833	7	10000	1	1	0	1	0
1501	834	7	10000	1	1	0	1	0
1474	835	7	10000	1	1	0	1	0
1447	836	7	10000	1	1	0	1	0
1414	837	7	10000	1	1	0	1	0
1377	838	7	10000	1	1	0	1	0
1337	839	7	10000	1	1	0	1	0
1293	840	7	10000	1	1	0	1	0
1246	841	7	10000	1	1	0	1	0
1200	842	7	10000	1	1	0	1	0
1165	843	7	10000	1	1	0	1	0
1135	844	7	10000	1	1	0	1	0
1105	845	7	10000	1	1	0	1	0
1068	846	7	10000	1	1	0	1	0
1032	847	7	10000	1	1	0	1	0
994	848	7	10000	1	1	0	1	0
958	849	7	10000	1	1	0	1	0
920	850	7	10000	1	1	0	1	0
875	851	7	10000	1	1	0	1	0
842	852	7	10000	1	1	0	1	0
816	853	7	10000	1	1	0	1	0
798	854	7	10000	1	1	0	1	0
786	855	7	10000	1	1	0	1	0
779	856	7	10000	1	1	0	1	0
774	857	7	10000	1	1	0	1	0
771	858	7	10000	1	1	0	1	0
771	859	7	10000	1	1	0	1	0
769	860	7	10000	1	1	0	1	0
767	861	7	10000	1	1	0	1	0
761	862	7	10000	1	1	0	1	0
756	863	7	10000	1	1	0	1	0
748	864	7	10000	1	1	0	1	0
743	865	7	10000	1	1	0	1	0
736	866	7	10000	1	1	0	1	0
730	867	7	10000	1	1	0	1	0
724	868	7	10000	1	1	0	1	0
717	869	7	10000	1	1	0	1	0
716	870	7	10000	1	1	0	1	0
719	871	7	10000	1	1	0	1	0
727	872	7	10000	1	1	0	1	0
735	873	7	10000	1	1	0	1	0
742	874	7	10000	1	1	0	1	0
747	875	7	10000	1	1	0	1	0
754	876	7	10000	1	1	0	1	0
757	877	7	10000	1	1	0	1	0
758	878	7	10000	1	1	0	1	0
757	879	7	10000	1	1	0	1	0
754	880	7	10000	1	1	0	1	0
748	881	7	10000	1	1	0	1	0
737	882	7	10000	1	1	0	1	0
732	883	7	10000	1	1	0	1	0
736	884	7	10000	1	1	0	1	0
742	885	7	10000	1	1	0	1	0
738	886	7	10000	1	1	0	1	0
718	887	7	10000	1	1	0	1	0
691	888	7	10000	1	1	0	1	0
663	889	7	10000	1	1	0	1	0
641	890	7	10000	1	1	0	1	0
624	891	7	10000	1	1	0	1	0
616	892	7	10000	1	1	0	1	0
611	893	7	10000	1	1	0	1	0
610	894	7	10000	1	1	0	1	0
609	895	7	10000	1	1	0	1	0
609	896	7	10000	1	1	0	1	0
610	897	7	10000	1	1	0	1	0
608	898	7	10000	1	1	0	1	0
604	899	7	10000	1	1	0	1	0
597	900	7	10000	1	1	0	1	0
588	901	7	10000	1	1	0	1	0
580	902	7	10000	1	1	0	1	0
569	903	7	10000	1	1	0	1	0
556	904	7	10000	1	1	0	1	0
544	905	7	10000	1	1	0	1	0
532	906	7	10000	1	1	0	1	0
520	907	7	10000	1	1	0	1	0
509	908	7	10000	1	1	0	1	0
496	909	7	10000	1	1	0	1	0
481	910	7	10000	1	1	0	1	0
464	911	7	10000	1	1	0	1	0
453	912	7	10000	1	1	0	1	0
446	913	7	10000	1	1	0	1	0
439	914	7	10000	1	1	0	1	0
438	915	7	10000	1	1	0	1	0
440	916	7	10000	1	1	0	1	0
442	917	7	10000	1	1	0	1	0
433	918	7	10000	1	1	0	1	0
416	919	7	10000	1	1	0	1	0
403	920	7	10000	1	1	0	1	0
399	921	7	10000	1	1	0	1	0
396	922	7	10000	1	1	0	1	0
391	923	7	10000	1	1	0	1	0
386	924	7	10000	1	1	0	1	0
380	925	7	10000	1	1	0	1	0
374	926	7	10000	1	1	0	1	0
364	927	7	10000	1	1	0	1	0
351	928	7	10000	1	1	0	1	0
336	929	7	10000	1	1	0	1	0
324	930	7	10000	1	1	0	1	0
313	931	7	10000	1	1	0	1	0
307	932	7	10000	1	1	0	1	0
303	933	7	10000	1	1	0	1	0
303	934	7	10000	1	1	0	1	0
302	935	7	10000	1	1	0	1	0
298	936	7	10000	1	1	0	1	0
292	937	7	10000	1	1	0	1	0
286	938	7	10000	1	1	0	1	0
281	939	7	10000	1	1	0	1	0
278	940	7	10000	1	1	0	1	0
273	941	7	10000	1	1	0	1	0
261	942	7	10000	1	1	0	1	0
251	943	7	10000	1	1	0	1	0
244	944	7	10000	1	1	0	1	0
239	945	7	10000	1	1	0	1	0
236	946	7	10000	1	1	0	1	0
232	947	7	10000	1	1	0	1	0
235	948	7	10000	1	1	0	1	0
244	949	7	10000	1	1	0	1	0
257	950	7	10000	1	1	0	1	0
270	951	7	10000	1	1	0	1	0
265	952	7	10000	1	1	0	1	0
269	953	7	10000	1	1	0	1	0
280	954	7	10000	1	1	0	1	0
292	955	7	10000	1	1	0	1	0
290	956	7	10000	1	1	0	1	0
278	957	7	10000	1	1	0	1	0
267	958	7	10000	1	1	0	1	0
266	959	7	10000	1	1	0	1	0
274	960	7	10000	1	1	0	1	0
280	961	7	10000	1	1	0	1	0
279	962	7	10000	1	1	0	1	0
274	963	7	10000	1	1	0	1	0
268	964	7	10000	1	1	0	1	0
266	965	7	10000	1	1	0	1	0
261	966	7	10000	1	1	0	1	0
256	967	7	10000	1	1	0	1	0
254	968	7	10000	1	1	0	1	0
257	969	7	10000	1	1	0	1	0
260	970	7	10000	1	1	0	1	0
249	971	7	10000	1	1	0	1	0
240	972	7	10000	1	1	0	1	0
235	973	7	10000	1	1	0	1	0
230	974	7	10000	1	1	0	1	0
222	975	7	10000	1	1	0	1	0
215	976	7	10000	1	1	0	1	0
209	977	7	10000	1	1	0	1	0
201	978	7	10000	1	1	0	1	0
196	979	7	10000	1	1	0	1	0
192	980	7	10000	1	1	0	1	0
193	981	7	10000	1	1	0	1	0
187	982	7	10000	1	1	0	1	0
182	983	7	10000	1	1	0	1	0
184	984	7	10000	1	1	0	1	0
184	985	7	10000	1	1	0	1	0
192	986	7	10000	1	1	0	1	0
203	987	7	10000	1	1	0	1	0
197	988	7	10000	1	1	0	1	0
194	989	7	10000	1	1	0	1	0
190	990	7	10000	1	1	0	1	0
186	991	7	10000	1	1	0	1	0
197	992	7	10000	1	1	0	1	0
202	993	7	10000	1	1	0	1	0
196	994	7	10000	1	1	0	1	0
197	995	7	10000	1	1	0	1	0
198	996	7	10000	1	1	0	1	0
198	997	7	10000	1	1	0	1	0
196	998	7	10000	1	1	0	1	0
194	999	7	10000	1	1	0	1	0
192	1000	7	10000	1	1	0	1	0
192	1001	7	10000	1	1	0	1	0
19	2	0	10000	2	1	0	2	0
19	3	0	10000	2	1	0	2	0
20	4	0	10000	2	1	0	2	0
20	5	0	10000	2	1	0	2	0
19	6	0	10000	2	1	0	2	0
17	7	0	10000	2	1	0	2	0
17	8	0	10000	2	1	0	2	0
17	9	0	10000	2	1	0	2	0
18	10	0	10000	2	1	0	2	0
18	11	0	10000	2	1	0	2	0
17	12	0	10000	2	1	0	2	0
18	13	0	10000	2	1	0	2	0
17	14	0	10000	2	1	0	2	0
17	15	0	10000	2	1	0	2	0
18	16	0	10000	2	1	0	2	0
21	17	0	10000	2	1	0	2	0
21	18	0	10000	2	1	0	2	0
20	19	0	10000	2	1	0	2	0
20	20	0	10000	2	1	0	2	0
21	21	0	10000	2	1	0	2	0
21	22	0	10000	2	1	0	2	0
21	23	0	10000	2	1	0	2	0
20	24	0	10000	2	1	0	2	0
20	25	0	10000	2	1	0	2	0
19	26	0	10000	2	1	0	2	0
17	27	0	10000	2	1	0	2	0
17	28	0	10000	2	1	0	2	0
16	29	0	10000	2	1	0	2	0
17	30	0	10000	2	1	0	2	0
16	31	0	10000	2	1	0	2	0
17	32	0	10000	2	1	0	2	0
17	33	0	10000	2	1	0	2	0
16	34	0	10000	2	1	0	2	0
15	35	0	10000	2	1	0	2	0
15	36	0	10000	2	1	0	2	0
18	37	0	10000	2	1	0	2	0
18	38	0	10000	2	1	0	2	0
18	39	0	10000	2	1	0	2	0
18	40	0	10000	2	1	0	2	0
17	41	0	10000	2	1	0	2	0
17	42	0	10000	2	1	0	2	0
16	43	0	10000	2	1	0	2	0
16	44	0	10000	2	1	0	2	0
16	45	0	10000	2	1	0	2	0
16	46	0	10000	2	1	0	2	0
14	47	0	10000	2	1	0	2	0
16	48	0	10000	2	1	0	2	0
18	49	0	10000	2	1	0	2	0
18	50	0	10000	2	1	0	2	0
18	51	0	10000	2	1	0	2	0
17	52	0	10000	2	1	0	2	0
17	53	0	10000	2	1	0	2	0
17	54	0	10000	2	1	0	2	0
16	55	0	10000	2	1	0	2	0
19	56	0	10000	2	1	0	2	0
20	57	0	10000	2	1	0	2	0
20	58	0	10000	2	1	0	2	0
19	59	0	10000	2	1	0	2	0
18	60	0	10000	2	1	0	2	0
17	61	0	10000	2	1	0	2	0
18	62	0	10000	2	1	0	2	0
17	63	0	10000	2	1	0	2	0
17	64	0	10000	2	1	0	2	0
17	65	0	10000	2	1	0	2	0
16	66	0	10000	2	1	0	2	0
15	67	0	10000	2	1	0	2	0
16	68	0	10000	2	1	0	2	0
16	69	0	10000	2	1	0	2	0
16	70	0	10000	2	1	0	2	0
16	71	0	10000	2	1	0	2	0
16	72	0	10000	2	1	0	2	0
16	73	0	10000	2	1	0	2	0
15	74	0	10000	2	1	0	2	0
15	75	0	10000	2	1	0	2	0
15	76	0	10000	2	1	0	2	0
16	77	0	10000	2	1	0	2	0
15	78	0	10000	2	1	0	2	0
14	79	0	10000	2	1	0	2	0
14	80	0	10000	2	1	0	2	0
13	81	0	10000	2	1	0	2	0
12	82	0	10000	2	1	0	2	0
12	83	0	10000	2	1	0	2	0
13	84	0	10000	2	1	0	2	0
13	85	0	10000	2	1	0	2	0
12	86	0	10000	2	1	0	2	0
10	87	0	10000	2	1	0	2	0
11	88	0	10000	2	1	0	2	0
12	89	0	10000	2	1	0	2	0
15	90	0	10000	2	1	0	2	0
16	91	0	10000	2	1	0	2	0
16	92	0	10000	2	1	0	2	0
17	93	0	10000	2	1	0	2	0
18	94	0	10000	2	1	0	2	0
17	95	0	10000	2	1	0	2	0
18	96	0	10000	2	1	0	2	0
19	97	0	10000	2	1	0	2	0
18	98	0	10000	2	1	0	2	0
18	99	0	10000	2	1	0	2	0
18	100	0	10000	2	1	0	2	0
19	101	0	10000	2	1	0	2	0
18	102	0	10000	2	1	0	2	0
18	103	0	10000	2	1	0	2	0
19	104	0	10000	2	1	0	2	0
18	105	0	10000	2	1	0	2	0
17	106	0	10000	2	1	0	2	0
14	107	0	10000	2	1	0	2	0
14	108	0	10000	2	1	0	2	0
14	109	0	10000	2	1	0	2	0
14	110	0	10000	2	1	0	2	0
15	111	0	10000	2	1	0	2	0
16	112	0	10000	2	1	0	2	0
16	113	0	10000	2	1	0	2	0
15	114	0	10000	2	1	0	2	0
15	115	0	10000	2	1	0	2	0
14	116	0	10000	2	1	0	2	0
16	117	0	10000	2	1	0	2	0
15	118	0	10000	2	1	0	2	0
15	119	0	10000	2	1	0	2	0
15	120	0	10000	2	1	0	2	0
16	121	0	10000	2	1	0	2	0
15	122	0	10000	2	1	0	2	0
14	123	0	10000	2	1	0	2	0
15	124	0	10000	2	1	0	2	0
14	125	0	10000	2	1	0	2	0
14	126	0	10000	2	1	0	2	0
13	127	0	10000	2	1	0	2	0
13	128	0	10000	2	1	0	2	0
15	129	0	10000	2	1	0	2	0
18	130	0	10000	2	1	0	2	0
20	131	0	10000	2	1	0	2	0
25	132	0	10000	2	1	0	2	0
32	133	0	10000	2	1	0	2	0
36	134	0	10000	2	1	0	2	0
41	135	0	10000	2	1	0	2	0
42	136	0	10000	2	1	0	2	0
43	137	0	10000	2	1	0	2	0
42	138	0	10000	2	1	0	2	0
44	139	0	10000	2	1	0	2	0
45	140	0	10000	2	1	0	2	0
48	141	0	10000	2	1	0	2	0
49	142	0	10000	2	1	0	2	0
51	143	0	10000	2	1	0	2	0
50	144	0	10000	2	1	0	2	0
49	145	0	10000	2	1	0	2	0
49	146	0	10000	2	1	0	2	0
45	147	0	10000	2	1	0	2	0
44	148	0	10000	2	1	0	2	0
44	149	0	10000	2	1	0	2	0
44	150	0	10000	2	1	0	2	0
42	151	0	10000	2	1	0	2	0
40	152	0	10000	2	1	0	2	0
40	153	0	10000	2	1	0	2	0
38	154	0	10000	2	1	0	2	0
37	155	0	10000	2	1	0	2	0
38	156	0	10000	2	1	0	2	0
40	157	0	10000	2	1	0	2	0
42	158	0	10000	2	1	0	2	0
44	159	0	10000	2	1	0	2	0
45	160	0	10000	2	1	0	2	0
46	161	0	10000	2	1	0	2	0
46	162	0	10000	2	1	0	2	0
47	163	0	10000	2	1	0	2	0
47	164	0	10000	2	1	0	2	0
47	165	0	10000	2	1	0	2	0
47	166	0	10000	2	1	0	2	0
45	167	0	10000	2	1	0	2	0
45	168	0	10000	2	1	0	2	0
44	169	0	10000	2	1	0	2	0
43	170	0	10000	2	1	0	2	0
43	171	0	10000	2	1	0	2	0
44	172	0	10000	2	1	0	2	0
46	173	0	10000	2	1	0	2	0
48	174	0	10000	2	1	0	2	0
51	175	0	10000	2	1	0	2	0
53	176	0	10000	2	1	0	2	0
56	177	0	10000	2	1	0	2	0
56	178	0	10000	2	1	0	2	0
55	179	0	10000	2	1	0	2	0
54	180	0	10000	2	1	0	2	0
56	181	0	10000	2	1	0	2	0
56	182	0	10000	2	1	0	2	0
56	183	0	10000	2	1	0	2	0
55	184	0	10000	2	1	0	2	0
55	185	0	10000	2	1	0	2	0
55	186	0	10000	2	1	0	2	0
53	187	0	10000	2	1	0	2	0
52	188	0	10000	2	1	0	2	0
50	189	0	10000	2	1	0	2	0
49	190	0	10000	2	1	0	2	0
46	191	0	10000	2	1	0	2	0
44	192	0	10000	2	1	0	2	0
43	193	0	10000	2	1	0	2	0
42	194	0	10000	2	1	0	2	0
41	195	0	10000	2	1	0	2	0
40	196	0	10000	2	1	0	2	0
42	197	0	10000	2	1	0	2	0
42	198	0	10000	2	1	0	2	0
40	199	0	10000	2	1	0	2	0
39	200	0	10000	2	1	0	2	0
40	201	0	10000	2	1	0	2	0
38	202	0	10000	2	1	0	2	0
36	203	0	10000	2	1	0	2	0
36	204	0	10000	2	1	0	2	0
36	205	0	10000	2	1	0	2	0
36	206	0	10000	2	1	0	2	0
34	207	0	10000	2	1	0	2	0
34	208	0	10000	2	1	0	2	0
33	209	0	10000	2	1	0	2	0
33	210	0	10000	2	1	0	2	0
33	211	0	10000	2	1	0	2	0
32	212	0	10000	2	1	0	2	0
32	213	0	10000	2	1	0	2	0
32	214	0	10000	2	1	0	2	0
32	215	0	10000	2	1	0	2	0
32	216	0	10000	2	1	0	2	0
33	217	0	10000	2	1	0	2	0
32	218	0	10000	2	1	0	2	0
32	219	0	10000	2	1	0	2	0
30	220	0	10000	2	1	0	2	0
30	221	0	10000	2	1	0	2	0
30	222	0	10000	2	1	0	2	0
28	223	0	10000	2	1	0	2	0
28	224	0	10000	2	1	0	2	0
28	225	0	10000	2	1	0	2	0
27	226	0	10000	2	1	0	2	0
25	227	0	10000	2	1	0	2	0
26	228	0	10000	2	1	0	2	0
26	229	0	10000	2	1	0	2	0
26	230	0	10000	2	1	0	2	0
25	231	0	10000	2	1	0	2	0
24	232	0	10000	2	1	0	2	0
24	233	0	10000	2	1	0	2	0
22	234	0	10000	2	1	0	2	0
21	235	0	10000	2	1	0	2	0
23	236	0	10000	2	1	0	2	0
24	237	0	10000	2	1	0	2	0
24	238	0	10000	2	1	0	2	0
24	239	0	10000	2	1	0	2	0
25	240	0	10000	2	1	0	2	0
25	241	0	10000	2	1	0	2	0
24	242	0	10000	2	1	0	2	0
23	243	0	10000	2	1	0	2	0
23	244	0	10000	2	1	0	2	0
24	245	0	10000	2	1	0	2	0
24	246	0	10000	2	1	0	2	0
23	247	0	10000	2	1	0	2	0
22	248	0	10000	2	1	0	2	0
23	249	0	10000	2	1	0	2	0
24	250	0	10000	2	1	0	2	0
24	251	0	10000	2	1	0	2	0
25	252	0	10000	2	1	0	2	0
26	253	0	10000	2	1	0	2	0
24	254	0	10000	2	1	0	2	0
24	255	0	10000	2	1	0	2	0
24	256	0	10000	2	1	0	2	0
24	257	0	10000	2	1	0	2	0
22	258	0	10000	2	1	0	2	0
22	259	0	10000	2	1	0	2	0
22	260	0	10000	2	1	0	2	0
22	261	0	10000	2	1	0	2	0
21	262	0	10000	2	1	0	2	0
21	263	0	10000	2	1	0	2	0
21	264	0	10000	2	1	0	2	0
20	265	0	10000	2	1	0	2	0
20	266	0	10000	2	1	0	2	0
17	267	0	10000	2	1	0	2	0
17	268	0	10000	2	1	0	2	0
18	269	0	10000	2	1	0	2	0
17	270	0	10000	2	1	0	2	0
16	271	0	10000	2	1	0	2	0
16	272	0	10000	2	1	0	2	0
16	273	0	10000	2	1	0	2	0
15	274	0	10000	2	1	0	2	0
15	275	0	10000	2	1	0	2	0
15	276	0	10000	2	1	0	2	0
17	277	0	10000	2	1	0	2	0
16	278	0	10000	2	1	0	2	0
17	279	0	10000	2	1	0	2	0
17	280	0	10000	2	1	0	2	0
16	281	0	10000	2	1	0	2	0
17	282	0	10000	2	1	0	2	0
16	283	0	10000	2	1	0	2	0
15	284	0	10000	2	1	0	2	0
15	285	0	10000	2	1	0	2	0
15	286	0	10000	2	1	0	2	0
13	287	0	10000	2	1	0	2	0
14	288	0	10000	2	1	0	2	0
13	289	0	10000	2	1	0	2	0
14	290	0	10000	2	1	0	2	0
15	291	0	10000	2	1	0	2	0
14	292	0	10000	2	1	0	2	0
14	293	0	10000	2	1	0	2	0
14	294	0	10000	2	1	0	2	0
16	295	0	10000	2	1	0	2	0
17	296	0	10000	2	1	0	2	0
20	297	0	10000	2	1	0	2	0
20	298	0	10000	2	1	0	2	0
19	299	0	10000	2	1	0	2	0
18	300	0	10000	2	1	0	2	0
17	301	0	10000	2	1	0	2	0
17	302	0	10000	2	1	0	2	0
17	303	0	10000	2	1	0	2	0
17	304	0	10000	2	1	0	2	0
17	305	0	10000	2	1	0	2	0
16	306	0	10000	2	1	0	2	0
14	307	0	10000	2	1	0	2	0
15	308	0	10000	2	1	0	2	0
15	309	0	10000	2	1	0	2	0
15	310	0	10000	2	1	0	2	0
15	311	0	10000	2	1	0	2	0
14	312	0	10000	2	1	0	2	0
14	313	0	10000	2	1	0	2	0
13	314	0	10000	2	1	0	2	0
13	315	0	10000	2	1	0	2	0
12	316	0	10000	2	1	0	2	0
14	317	0	10000	2	1	0	2	0
15	318	0	10000	2	1	0	2	0
15	319	0	10000	2	1	0	2	0
14	320	0	10000	2	1	0	2	0
14	321	0	10000	2	1	0	2	0
13	322	0	10000	2	1	0	2	0
14	323	0	10000	2	1	0	2	0
15	324	0	10000	2	1	0	2	0
15	325	0	10000	2	1	0	2	0
15	326	0	10000	2	1	0	2	0
13	327	0	10000	2	1	0	2	0
13	328	0	10000	2	1	0	2	0
13	329	0	10000	2	1	0	2	0
13	330	0	10000	2	1	0	2	0
13	331	0	10000	2	1	0	2	0
13	332	0	10000	2	1	0	2	0
13	333	0	10000	2	1	0	2	0
13	334	0	10000	2	1	0	2	0
13	335	0	10000	2	1	0	2	0
12	336	0	10000	2	1	0	2	0
15	337	0	10000	2	1	0	2	0
13	338	0	10000	2	1	0	2	0
14	339	0	10000	2	1	0	2	0
13	340	0	10000	2	1	0	2	0
13	341	0	10000	2	1	0	2	0
12	342	0	10000	2	1	0	2	0
12	343	0	10000	2	1	0	2	0
12	344	0	10000	2	1	0	2	0
12	345	0	10000	2	1	0	2	0
12	346	0	10000	2	1	0	2	0
9	347	0	10000	2	1	0	2	0
10	348	0	10000	2	1	0	2	0
10	349	0	10000	2	1	0	2	0
13	350	0	10000	2	1	0	2	0
14	351	0	10000	2	1	0	2	0
14	352	0	10000	2	1	0	2	0
14	353	0	10000	2	1	0	2	0
13	354	0	10000	2	1	0	2	0
12	355	0	10000	2	1	0	2	0
11	356	0	10000	2	1	0	2	0
13	357	0	10000	2	1	0	2	0
13	358	0	10000	2	1	0	2	0
13	359	0	10000	2	1	0	2	0
13	360	0	10000	2	1	0	2	0
14	361	0	10000	2	1	0	2	0
14	362	0	10000	2	1	0	2	0
13	363	0	10000	2	1	0	2	0
13	364	0	10000	2	1	0	2	0
14	365	0	10000	2	1	0	2	0
15	366	0	10000	2	1	0	2	0
12	367	0	10000	2	1	0	2	0
13	368	0	10000	2	1	0	2	0
15	369	0	10000	2	1	0	2	0
18	370	0	10000	2	1	0	2	0
20	371	0	10000	2	1	0	2	0
21	372	0	10000	2	1	0	2	0
21	373	0	10000	2	1	0	2	0
21	374	0	10000	2	1	0	2	0
21	375	0	10000	2	1	0	2	0
21	376	0	10000	2	1	0	2	0
23	377	0	10000	2	1	0	2	0
23	378	0	10000	2	1	0	2	0
22	379	0	10000	2	1	0	2	0
20	380	0	10000	2	1	0	2	0
20	381	0	10000	2	1	0	2	0
20	382	0	10000	2	1	0	2	0
20	383	0	10000	2	1	0	2	0
20	384	0	10000	2	1	0	2	0
20	385	0	10000	2	1	0	2	0
19	386	0	10000	2	1	0	2	0
17	387	0	10000	2	1	0	2	0
17	388	0	10000	2	1	0	2	0
17	389	0	10000	2	1	0	2	0
16	390	0	10000	2	1	0	2	0
16	391	0	10000	2	1	0	2	0
16	392	0	10000	2	1	0	2	0
16	393	0	10000	2	1	0	2	0
15	394	0	10000	2	1	0	2	0
16	395	0	10000	2	1	0	2	0
16	396	0	10000	2	1	0	2	0
19	397	0	10000	2	1	0	2	0
19	398	0	10000	2	1	0	2	0
19	399	0	10000	2	1	0	2	0
18	400	0	10000	2	1	0	2	0
19	401	0	10000	2	1	0	2	0
19	402	0	10000	2	1	0	2	0
20	403	0	10000	2	1	0	2	0
20	404	0	10000	2	1	0	2	0
21	405	0	10000	2	1	0	2	0
20	406	0	10000	2	1	0	2	0
18	407	0	10000	2	1	0	2	0
19	408	0	10000	2	1	0	2	0
18	409	0	10000	2	1	0	2	0
18	410	0	10000	2	1	0	2	0
17	411	0	10000	2	1	0	2	0
18	412	0	10000	2	1	0	2	0
18	413	0	10000	2	1	0	2	0
16	414	0	10000	2	1	0	2	0
16	415	0	10000	2	1	0	2	0
16	416	0	10000	2	1	0	2	0
17	417	0	10000	2	1	0	2	0
17	418	0	10000	2	1	0	2	0
16	419	0	10000	2	1	0	2	0
15	420	0	10000	2	1	0	2	0
16	421	0	10000	2	1	0	2	0
15	422	0	10000	2	1	0	2	0
15	423	0	10000	2	1	0	2	0
16	424	0	10000	2	1	0	2	0
17	425	0	10000	2	1	0	2	0
16	426	0	10000	2	1	0	2	0
15	427	0	10000	2	1	0	2	0
15	428	0	10000	2	1	0	2	0
15	429	0	10000	2	1	0	2	0
16	430	0	10000	2	1	0	2	0
16	431	0	10000	2	1	0	2	0
17	432	0	10000	2	1	0	2	0
18	433	0	10000	2	1	0	2	0
18	434	0	10000	2	1	0	2	0
17	435	0	10000	2	1	0	2	0
18	436	0	10000	2	1	0	2	0
20	437	0	10000	2	1	0	2	0
19	438	0	10000	2	1	0	2	0
18	439	0	10000	2	1	0	2	0
18	440	0	10000	2	1	0	2	0
17	441	0	10000	2	1	0	2	0
17	442	0	10000	2	1	0	2	0
16	443	0	10000	2	1	0	2	0
17	444	0	10000	2	1	0	2	0
16	445	0	10000	2	1	0	2	0
16	446	0	10000	2	1	0	2	0
15	447	0	10000	2	1	0	2	0
15	448	0	10000	2	1	0	2	0
16	449	0	10000	2	1	0	2	0
18	450	0	10000	2	1	0	2	0
18	451	0	10000	2	1	0	2	0
17	452	0	10000	2	1	0	2	0
17	453	0	10000	2	1	0	2	0
18	454	0	10000	2	1	0	2	0
17	455	0	10000	2	1	0	2	0
17	456	0	10000	2	1	0	2	0
19	457	0	10000	2	1	0	2	0
18	458	0	10000	2	1	0	2	0
19	459	0	10000	2	1	0	2	0
20	460	0	10000	2	1	0	2	0
20	461	0	10000	2	1	0	2	0
19	462	0	10000	2	1	0	2	0
19	463	0	10000	2	1	0	2	0
18	464	0	10000	2	1	0	2	0
18	465	0	10000	2	1	0	2	0
18	466	0	10000	2	1	0	2	0
15	467	0	10000	2	1	0	2	0
15	468	0	10000	2	1	0	2	0
15	469	0	10000	2	1	0	2	0
16	470	0	10000	2	1	0	2	0
16	471	0	10000	2	1	0	2	0
15	472	0	10000	2	1	0	2	0
16	473	0	10000	2	1	0	2	0
17	474	0	10000	2	1	0	2	0
19	475	0	10000	2	1	0	2	0
20	476	0	10000	2	1	0	2	0
21	477	0	10000	2	1	0	2	0
21	478	0	10000	2	1	0	2	0
22	479	0	10000	2	1	0	2	0
24	480	0	10000	2	1	0	2	0
24	481	0	10000	2	1	0	2	0
24	482	0	10000	2	1	0	2	0
23	483	0	10000	2	1	0	2	0
22	484	0	10000	2	1	0	2	0
22	485	0	10000	2	1	0	2	0
22	486	0	10000	2	1	0	2	0
20	487	0	10000	2	1	0	2	0
20	488	0	10000	2	1	0	2	0
20	489	0	10000	2	1	0	2	0
20	490	0	10000	2	1	0	2	0
19	491	0	10000	2	1	0	2	0
19	492	0	10000	2	1	0	2	0
20	493	0	10000	2	1	0	2	0
19	494	0	10000	2	1	0	2	0
18	495	0	10000	2	1	0	2	0
19	496	0	10000	2	1	0	2	0
20	497	0	10000	2	1	0	2	0
20	498	0	10000	2	1	0	2	0
20	499	0	10000	2	1	0	2	0
19	500	0	10000	2	1	0	2	0
19	501	0	10000	2	1	0	2	0
20	501	0	10000	2	1	0	2	1
19	502	0	10000	2	1	0	2	1
21	504	0	10000	2	1	0	2	1
21	505	0	10000	2	1	0	2	1
21	506	0	10000	2	1	0	2	1
20	507	0	10000	2	1	0	2	1
20	508	0	10000	2	1	0	2	1
20	509	0	10000	2	1	0	2	1
20	510	0	10000	2	1	0	2	1
19	511	0	10000	2	1	0	2	1
20	512	0	10000	2	1	0	2	1
20	513	0	10000	2	1	0	2	1
19	514	0	10000	2	1	0	2	1
20	515	0	10000	2	1	0	2	1
20	516	0	10000	2	1	0	2	1
22	517	0	10000	2	1	0	2	1
23	518	0	10000	2	1	0	2	1
22	519	0	10000	2	1	0	2	1
24	520	0	10000	2	1	0	2	1
26	521	0	10000	2	1	0	2	1
30	522	0	10000	2	1	0	2	1
34	523	0	10000	2	1	0	2	1
40	524	0	10000	2	1	0	2	1
42	525	0	10000	2	1	0	2	1
42	526	0	10000	2	1	0	2	1
38	527	0	10000	2	1	0	2	1
40	528	0	10000	2	1	0	2	1
42	529	0	10000	2	1	0	2	1
44	530	0	10000	2	1	0	2	1
47	531	0	10000	2	1	0	2	1
48	532	0	10000	2	1	0	2	1
46	533	0	10000	2	1	0	2	1
44	534	0	10000	2	1	0	2	1
44	535	0	10000	2	1	0	2	1
44	536	0	10000	2	1	0	2	1
44	537	0	10000	2	1	0	2	1
43	538	0	10000	2	1	0	2	1
42	539	0	10000	2	1	0	2	1
41	540	0	10000	2	1	0	2	1
41	541	0	10000	2	1	0	2	1
41	542	0	10000	2	1	0	2	1
40	543	0	10000	2	1	0	2	1
41	544	0	10000	2	1	0	2	1
40	545	0	10000	2	1	0	2	1
39	546	0	10000	2	1	0	2	1
37	547	0	10000	2	1	0	2	1
39	548	0	10000	2	1	0	2	1
40	549	0	10000	2	1	0	2	1
41	550	0	10000	2	1	0	2	1
42	551	0	10000	2	1	0	2	1
42	552	0	10000	2	1	0	2	0
41	553	0	10000	2	1	0	2	0
39	554	0	10000	2	1	0	2	0
37	555	0	10000	2	1	0	2	0
36	556	0	10000	2	1	0	2	0
37	557	0	10000	2	1	0	2	0
35	558	0	10000	2	1	0	2	0
33	559	0	10000	2	1	0	2	0
32	560	0	10000	2	1	0	2	0
31	561	0	10000	2	1	0	2	0
29	562	0	10000	2	1	0	2	0
28	563	0	10000	2	1	0	2	0
29	564	0	10000	2	1	0	2	0
29	565	0	10000	2	1	0	2	0
30	566	0	10000	2	1	0	2	0
29	567	0	10000	2	1	0	2	0
31	568	0	10000	2	1	0	2	0
33	569	0	10000	2	1	0	2	0
34	570	0	10000	2	1	0	2	0
34	571	0	10000	2	1	0	2	0
35	572	0	10000	2	1	0	2	0
37	573	0	10000	2	1	0	2	0
36	574	0	10000	2	1	0	2	0
36	575	0	10000	2	1	0	2	0
36	576	0	10000	2	1	0	2	0
38	577	0	10000	2	1	0	2	0
37	578	0	10000	2	1	0	2	0
35	579	0	10000	2	1	0	2	0
34	580	0	10000	2	1	0	2	0
32	581	0	10000	2	1	0	2	0
31	582	0	10000	2	1	0	2	0
31	583	0	10000	2	1	0	2	0
31	584	0	10000	2	1	0	2	0
31	585	0	10000	2	1	0	2	0
32	586	0	10000	2	1	0	2	0
32	587	0	10000	2	1	0	2	0
32	588	0	10000	2	1	0	2	0
34	589	0	10000	2	1	0	2	0
42	590	0	10000	2	1	0	2	0
54	591	0	10000	2	1	0	2	0
63	592	0	10000	2	1	0	2	0
66	593	0	10000	2	1	0	2	0
63	594	0	10000	2	1	0	2	0
63	595	0	10000	2	1	0	2	0
74	596	0	10000	2	1	0	2	0
96	597	0	10000	2	1	0	2	0
108	598	0	10000	2	1	0	2	0
107	599	0	10000	2	1	0	2	0
112	600	0	10000	2	1	0	2	0
123	601	0	10000	2	1	0	2	0
152	602	0	10000	2	1	0	2	0
177	603	0	10000	2	1	0	2	0
182	604	0	10000	2	1	0	2	0
185	605	0	10000	2	1	0	2	0
194	606	0	10000	2	1	0	2	0
193	607	0	10000	2	1	0	2	0
213	608	0	10000	2	1	0	2	0
245	609	0	10000	2	1	0	2	0
262	610	0	10000	2	1	0	2	0
277	611	0	10000	2	1	0	2	0
342	612	0	10000	2	1	0	2	0
400	613	0	10000	2	1	0	2	0
401	614	0	10000	2	1	0	2	0
389	615	0	10000	2	1	0	2	0
383	616	0	10000	2	1	0	2	0
404	617	0	10000	2	1	0	2	0
411	618	0	10000	2	1	0	2	0
415	619	0	10000	2	1	0	2	0
406	620	0	10000	2	1	0	2	0
412	621	0	10000	2	1	0	2	0
416	622	0	10000	2	1	0	2	0
425	623	0	10000	2	1	0	2	0
488	624	0	10000	2	1	0	2	0
560	625	0	10000	2	1	0	2	0
566	626	0	10000	2	1	0	2	0
564	627	0	10000	2	1	0	2	0
581	628	0	10000	2	1	0	2	0
586	629	0	10000	2	1	0	2	0
580	630	0	10000	2	1	0	2	0
573	631	0	10000	2	1	0	2	0
577	632	0	10000	2	1	0	2	0
593	633	0	10000	2	1	0	2	0
614	634	0	10000	2	1	0	2	0
639	635	0	10000	2	1	0	2	0
661	636	0	10000	2	1	0	2	0
684	637	0	10000	2	1	0	2	0
708	638	0	10000	2	1	0	2	0
731	639	0	10000	2	1	0	2	0
755	640	0	10000	2	1	0	2	0
780	641	0	10000	2	1	0	2	0
786	642	0	10000	2	1	0	2	0
784	643	0	10000	2	1	0	2	0
784	644	0	10000	2	1	0	2	0
779	645	0	10000	2	1	0	2	0
775	646	0	10000	2	1	0	2	0
780	647	0	10000	2	1	0	2	0
781	648	0	10000	2	1	0	2	0
761	649	0	10000	2	1	0	2	0
727	650	0	10000	2	1	0	2	0
697	651	0	10000	2	1	0	2	0
667	652	0	10000	2	1	0	2	0
643	653	0	10000	2	1	0	2	0
626	654	0	10000	2	1	0	2	0
639	655	0	10000	2	1	0	2	0
653	656	0	10000	2	1	0	2	0
640	657	0	10000	2	1	0	2	0
614	658	0	10000	2	1	0	2	0
601	659	0	10000	2	1	0	2	0
611	660	0	10000	2	1	0	2	0
617	661	0	10000	2	1	0	2	0
599	662	0	10000	2	1	0	2	0
574	663	0	10000	2	1	0	2	0
556	664	0	10000	2	1	0	2	0
546	665	0	10000	2	1	0	2	0
527	666	0	10000	2	1	0	2	0
507	667	0	10000	2	1	0	2	0
491	668	0	10000	2	1	0	2	0
479	669	0	10000	2	1	0	2	0
477	670	0	10000	2	1	0	2	0
483	671	0	10000	2	1	0	2	0
491	672	0	10000	2	1	0	2	0
500	673	0	10000	2	1	0	2	0
504	674	0	10000	2	1	0	2	0
506	675	0	10000	2	1	0	2	0
509	676	0	10000	2	1	0	2	0
513	677	0	10000	2	1	0	2	0
513	678	0	10000	2	1	0	2	0
513	679	0	10000	2	1	0	2	0
514	680	0	10000	2	1	0	2	0
515	681	0	10000	2	1	0	2	0
517	682	0	10000	2	1	0	2	0
517	683	0	10000	2	1	0	2	0
517	684	0	10000	2	1	0	2	0
517	685	0	10000	2	1	0	2	0
517	686	0	10000	2	1	0	2	0
515	687	0	10000	2	1	0	2	0
516	688	0	10000	2	1	0	2	0
521	689	0	10000	2	1	0	2	0
529	690	0	10000	2	1	0	2	0
538	691	0	10000	2	1	0	2	0
548	692	0	10000	2	1	0	2	0
557	693	0	10000	2	1	0	2	0
563	694	0	10000	2	1	0	2	0
570	695	0	10000	2	1	0	2	0
579	696	0	10000	2	1	0	2	0
593	697	0	10000	2	1	0	2	0
604	698	0	10000	2	1	0	2	0
616	699	0	10000	2	1	0	2	0
627	700	0	10000	2	1	0	2	0
636	701	0	10000	2	1	0	2	0
644	702	0	10000	2	1	0	2	0
651	703	0	10000	2	1	0	2	0
655	704	0	10000	2	1	0	2	0
659	705	0	10000	2	1	0	2	0
661	706	0	10000	2	1	0	2	0
660	707	0	10000	2	1	0	2	0
661	708	0	10000	2	1	0	2	0
661	709	0	10000	2	1	0	2	0
659	710	0	10000	2	1	0	2	0
657	711	0	10000	2	1	0	2	0
653	712	0	10000	2	1	0	2	0
651	713	0	10000	2	1	0	2	0
647	714	0	10000	2	1	0	2	0
644	715	0	10000	2	1	0	2	0
641	716	0	10000	2	1	0	2	0
639	717	0	10000	2	1	0	2	0
633	718	0	10000	2	1	0	2	0
625	719	0	10000	2	1	0	2	0
614	720	0	10000	2	1	0	2	0
603	721	0	10000	2	1	0	2	0
593	722	0	10000	2	1	0	2	0
579	723	0	10000	2	1	0	2	0
566	724	0	10000	2	1	0	2	0
547	725	0	10000	2	1	0	2	0
526	726	0	10000	2	1	0	2	0
501	727	0	10000	2	1	0	2	0
478	728	0	10000	2	1	0	2	0
456	729	0	10000	2	1	0	2	0
436	730	0	10000	2	1	0	2	0
421	731	0	10000	2	1	0	2	0
406	732	0	10000	2	1	0	2	0
393	733	0	10000	2	1	0	2	0
381	734	0	10000	2	1	0	2	0
374	735	0	10000	2	1	0	2	0
367	736	0	10000	2	1	0	2	0
361	737	0	10000	2	1	0	2	0
356	738	0	10000	2	1	0	2	0
351	739	0	10000	2	1	0	2	0
349	740	0	10000	2	1	0	2	0
349	741	0	10000	2	1	0	2	0
352	742	0	10000	2	1	0	2	0
356	743	0	10000	2	1	0	2	0
362	744	0	10000	2	1	0	2	0
368	745	0	10000	2	1	0	2	0
370	746	0	10000	2	1	0	2	0
368	747	0	10000	2	1	0	2	0
367	748	0	10000	2	1	0	2	0
366	749	0	10000	2	1	0	2	0
368	750	0	10000	2	1	0	2	0
370	751	0	10000	2	1	0	2	0
371	752	0	10000	2	1	0	2	0
371	753	0	10000	2	1	0	2	0
369	754	0	10000	2	1	0	2	0
368	755	0	10000	2	1	0	2	0
365	756	0	10000	2	1	0	2	0
362	757	0	10000	2	1	0	2	0
357	758	0	10000	2	1	0	2	0
350	759	0	10000	2	1	0	2	0
342	760	0	10000	2	1	0	2	0
337	761	0	10000	2	1	0	2	0
332	762	0	10000	2	1	0	2	0
326	763	0	10000	2	1	0	2	0
323	764	0	10000	2	1	0	2	0
320	765	0	10000	2	1	0	2	0
319	766	0	10000	2	1	0	2	0
316	767	0	10000	2	1	0	2	0
317	768	0	10000	2	1	0	2	0
317	769	0	10000	2	1	0	2	0
314	770	0	10000	2	1	0	2	0
310	771	0	10000	2	1	0	2	0
305	772	0	10000	2	1	0	2	0
299	773	0	10000	2	1	0	2	0
293	774	0	10000	2	1	0	2	0
286	775	0	10000	2	1	0	2	0
279	776	0	10000	2	1	0	2	0
273	777	0	10000	2	1	0	2	0
264	778	0	10000	2	1	0	2	0
257	779	0	10000	2	1	0	2	0
249	780	0	10000	2	1	0	2	0
240	781	0	10000	2	1	0	2	0
231	782	0	10000	2	1	0	2	0
224	783	0	10000	2	1	0	2	0
219	784	0	10000	2	1	0	2	0
215	785	0	10000	2	1	0	2	0
213	786	0	10000	2	1	0	2	0
209	787	0	10000	2	1	0	2	0
205	788	0	10000	2	1	0	2	0
202	789	0	10000	2	1	0	2	0
199	790	0	10000	2	1	0	2	0
195	791	0	10000	2	1	0	2	0
191	792	0	10000	2	1	0	2	0
188	793	0	10000	2	1	0	2	0
182	794	0	10000	2	1	0	2	0
176	795	0	10000	2	1	0	2	0
171	796	0	10000	2	1	0	2	0
166	797	0	10000	2	1	0	2	0
160	798	0	10000	2	1	0	2	0
153	799	0	10000	2	1	0	2	0
146	800	0	10000	2	1	0	2	0
140	801	0	10000	2	1	0	2	0
133	802	0	10000	2	1	0	2	0
127	803	0	10000	2	1	0	2	0
123	804	0	10000	2	1	0	2	0
120	805	0	10000	2	1	0	2	0
120	806	0	10000	2	1	0	2	0
119	807	0	10000	2	1	0	2	0
120	808	0	10000	2	1	0	2	0
122	809	0	10000	2	1	0	2	0
121	810	0	10000	2	1	0	2	0
119	811	0	10000	2	1	0	2	0
117	812	0	10000	2	1	0	2	0
114	813	0	10000	2	1	0	2	0
110	814	0	10000	2	1	0	2	0
106	815	0	10000	2	1	0	2	0
102	816	0	10000	2	1	0	2	0
100	817	0	10000	2	1	0	2	0
95	818	0	10000	2	1	0	2	0
92	819	0	10000	2	1	0	2	0
87	820	0	10000	2	1	0	2	0
84	821	0	10000	2	1	0	2	0
81	822	0	10000	2	1	0	2	0
78	823	0	10000	2	1	0	2	0
76	824	0	10000	2	1	0	2	0
75	825	0	10000	2	1	0	2	0
77	826	0	10000	2	1	0	2	0
79	827	0	10000	2	1	0	2	0
82	828	0	10000	2	1	0	2	0
82	829	0	10000	2	1	0	2	0
80	830	0	10000	2	1	0	2	0
77	831	0	10000	2	1	0	2	0
75	832	0	10000	2	1	0	2	0
72	833	0	10000	2	1	0	2	0
68	834	0	10000	2	1	0	2	0
66	835	0	10000	2	1	0	2	0
62	836	0	10000	2	1	0	2	0
62	837	0	10000	2	1	0	2	0
60	838	0	10000	2	1	0	2	0
59	839	0	10000	2	1	0	2	0
57	840	0	10000	2	1	0	2	0
57	841	0	10000	2	1	0	2	0
59	842	0	10000	2	1	0	2	0
57	843	0	10000	2	1	0	2	0
56	844	0	10000	2	1	0	2	0
54	845	0	10000	2	1	0	2	0
52	846	0	10000	2	1	0	2	0
49	847	0	10000	2	1	0	2	0
49	848	0	10000	2	1	0	2	0
48	849	0	10000	2	1	0	2	0
47	850	0	10000	2	1	0	2	0
45	851	0	10000	2	1	0	2	0
44	852	0	10000	2	1	0	2	0
42	853	0	10000	2	1	0	2	0
41	854	0	10000	2	1	0	2	0
40	855	0	10000	2	1	0	2	0
39	856	0	10000	2	1	0	2	0
40	857	0	10000	2	1	0	2	0
39	858	0	10000	2	1	0	2	0
40	859	0	10000	2	1	0	2	0
41	860	0	10000	2	1	0	2	0
42	861	0	10000	2	1	0	2	0
43	862	0	10000	2	1	0	2	0
48	863	0	10000	2	1	0	2	0
55	864	0	10000	2	1	0	2	0
58	865	0	10000	2	1	0	2	0
60	866	0	10000	2	1	0	2	0
58	867	0	10000	2	1	0	2	0
58	868	0	10000	2	1	0	2	0
58	869	0	10000	2	1	0	2	0
57	870	0	10000	2	1	0	2	0
56	871	0	10000	2	1	0	2	0
55	872	0	10000	2	1	0	2	0
57	873	0	10000	2	1	0	2	0
59	874	0	10000	2	1	0	2	0
60	875	0	10000	2	1	0	2	0
59	876	0	10000	2	1	0	2	0
62	877	0	10000	2	1	0	2	0
61	878	0	10000	2	1	0	2	0
59	879	0	10000	2	1	0	2	0
58	880	0	10000	2	1	0	2	0
60	881	0	10000	2	1	0	2	0
61	882	0	10000	2	1	0	2	0
60	883	0	10000	2	1	0	2	0
58	884	0	10000	2	1	0	2	0
57	885	0	10000	2	1	0	2	0
59	886	0	10000	2	1	0	2	0
60	887	0	10000	2	1	0	2	0
63	888	0	10000	2	1	0	2	0
63	889	0	10000	2	1	0	2	0
63	890	0	10000	2	1	0	2	0
63	891	0	10000	2	1	0	2	0
61	892	0	10000	2	1	0	2	0
60	893	0	10000	2	1	0	2	0
60	894	0	10000	2	1	0	2	0
59	895	0	10000	2	1	0	2	0
59	896	0	10000	2	1	0	2	0
61	897	0	10000	2	1	0	2	0
61	898	0	10000	2	1	0	2	0
60	899	0	10000	2	1	0	2	0
59	900	0	10000	2	1	0	2	0
58	901	0	10000	2	1	0	2	0
56	902	0	10000	2	1	0	2	0
55	903	0	10000	2	1	0	2	0
54	904	0	10000	2	1	0	2	0
55	905	0	10000	2	1	0	2	0
56	906	0	10000	2	1	0	2	0
56	907	0	10000	2	1	0	2	0
56	908	0	10000	2	1	0	2	0
54	909	0	10000	2	1	0	2	0
53	910	0	10000	2	1	0	2	0
51	911	0	10000	2	1	0	2	0
49	912	0	10000	2	1	0	2	0
49	913	0	10000	2	1	0	2	0
49	914	0	10000	2	1	0	2	0
49	915	0	10000	2	1	0	2	0
48	916	0	10000	2	1	0	2	0
48	917	0	10000	2	1	0	2	0
46	918	0	10000	2	1	0	2	0
44	919	0	10000	2	1	0	2	0
43	920	0	10000	2	1	0	2	0
43	921	0	10000	2	1	0	2	0
42	922	0	10000	2	1	0	2	0
41	923	0	10000	2	1	0	2	0
41	924	0	10000	2	1	0	2	0
42	925	0	10000	2	1	0	2	0
43	926	0	10000	2	1	0	2	0
41	927	0	10000	2	1	0	2	0
41	928	0	10000	2	1	0	2	0
40	929	0	10000	2	1	0	2	0
39	930	0	10000	2	1	0	2	0
39	931	0	10000	2	1	0	2	0
39	932	0	10000	2	1	0	2	0
39	933	0	10000	2	1	0	2	0
37	934	0	10000	2	1	0	2	0
38	935	0	10000	2	1	0	2	0
41	936	0	10000	2	1	0	2	0
47	937	0	10000	2	1	0	2	0
52	938	0	10000	2	1	0	2	0
57	939	0	10000	2	1	0	2	0
62	940	0	10000	2	1	0	2	0
67	941	0	10000	2	1	0	2	0
68	942	0	10000	2	1	0	2	0
65	943	0	10000	2	1	0	2	0
66	944	0	10000	2	1	0	2	0
68	945	0	10000	2	1	0	2	0
68	946	0	10000	2	1	0	2	0
67	947	0	10000	2	1	0	2	0
68	948	0	10000	2	1	0	2	0
69	949	0	10000	2	1	0	2	0
68	950	0	10000	2	1	0	2	0
67	951	0	10000	2	1	0	2	0
65	952	0	10000	2	1	0	2	0
63	953	0	10000	2	1	0	2	0
61	954	0	10000	2	1	0	2	0
58	955	0	10000	2	1	0	2	0
55	956	0	10000	2	1	0	2	0
55	957	0	10000	2	1	0	2	0
54	958	0	10000	2	1	0	2	0
51	959	0	10000	2	1	0	2	0
49	960	0	10000	2	1	0	2	0
47	961	0	10000	2	1	0	2	0
45	962	0	10000	2	1	0	2	0
44	963	0	10000	2	1	0	2	0
43	964	0	10000	2	1	0	2	0
42	965	0	10000	2	1	0	2	0
41	966	0	10000	2	1	0	2	0
38	967	0	10000	2	1	0	2	0
38	968	0	10000	2	1	0	2	0
37	969	0	10000	2	1	0	2	0
37	970	0	10000	2	1	0	2	0
39	971	0	10000	2	1	0	2	0
39	972	0	10000	2	1	0	2	0
38	973	0	10000	2	1	0	2	0
36	974	0	10000	2	1	0	2	0
35	975	0	10000	2	1	0	2	0
33	976	0	10000	2	1	0	2	0
34	977	0	10000	2	1	0	2	0
33	978	0	10000	2	1	0	2	0
32	979	0	10000	2	1	0	2	0
31	980	0	10000	2	1	0	2	0
29	981	0	10000	2	1	0	2	0
29	982	0	10000	2	1	0	2	0
29	983	0	10000	2	1	0	2	0
29	984	0	10000	2	1	0	2	0
28	985	0	10000	2	1	0	2	0
30	986	0	10000	2	1	0	2	0
29	987	0	10000	2	1	0	2	0
28	988	0	10000	2	1	0	2	0
30	989	0	10000	2	1	0	2	0
31	990	0	10000	2	1	0	2	0
32	991	0	10000	2	1	0	2	0
31	992	0	10000	2	1	0	2	0
30	993	0	10000	2	1	0	2	0
31	994	0	10000	2	1	0	2	0
31	995	0	10000	2	1	0	2	0
32	996	0	10000	2	1	0	2	0
35	997	0	10000	2	1	0	2	0
34	998	0	10000	2	1	0	2	0
33	999	0	10000	2	1	0	2	0
32	1000	0	10000	2	1	0	2	0
32	1001	0	10000	2	1	0	2	0
20	1	0	10000	3	1	0	3	0
18	2	0	10000	3	1	0	3	0
17	3	0	10000	3	1	0	3	0
18	4	0	10000	3	1	0	3	0
19	5	0	10000	3	1	0	3	0
18	6	0	10000	3	1	0	3	0
17	7	0	10000	3	1	0	3	0
18	8	0	10000	3	1	0	3	0
18	9	0	10000	3	1	0	3	0
17	10	0	10000	3	1	0	3	0
17	11	0	10000	3	1	0	3	0
17	12	0	10000	3	1	0	3	0
18	13	0	10000	3	1	0	3	0
17	14	0	10000	3	1	0	3	0
17	15	0	10000	3	1	0	3	0
16	16	0	10000	3	1	0	3	0
16	17	0	10000	3	1	0	3	0
16	18	0	10000	3	1	0	3	0
15	19	0	10000	3	1	0	3	0
16	20	0	10000	3	1	0	3	0
18	20	0	10000	3	1	0	3	0
17	21	0	10000	3	1	0	3	0
16	23	0	10000	3	1	0	3	0
16	24	0	10000	3	1	0	3	0
16	25	0	10000	3	1	0	3	0
17	26	0	10000	3	1	0	3	0
17	27	0	10000	3	1	0	3	0
17	28	0	10000	3	1	0	3	0
17	29	0	10000	3	1	0	3	0
18	30	0	10000	3	1	0	3	0
18	30	0	10000	3	1	0	3	0
19	31	0	10000	3	1	0	3	0
20	33	0	10000	3	1	0	3	0
21	34	0	10000	3	1	0	3	0
21	35	0	10000	3	1	0	3	0
20	36	0	10000	3	1	0	3	0
21	37	0	10000	3	1	0	3	0
21	38	0	10000	3	1	0	3	0
21	39	0	10000	3	1	0	3	0
21	40	0	10000	3	1	0	3	0
22	40	0	10000	3	1	0	3	0
20	41	0	10000	3	1	0	3	0
18	43	0	10000	3	1	0	3	0
18	44	0	10000	3	1	0	3	0
18	45	0	10000	3	1	0	3	0
18	46	0	10000	3	1	0	3	0
19	47	0	10000	3	1	0	3	0
18	48	0	10000	3	1	0	3	0
18	49	0	10000	3	1	0	3	0
18	50	0	10000	3	1	0	3	0
18	50	0	10000	3	1	0	3	0
19	51	0	10000	3	1	0	3	0
20	53	0	10000	3	1	0	3	0
21	54	0	10000	3	1	0	3	0
22	55	0	10000	3	1	0	3	0
23	56	0	10000	3	1	0	3	0
23	57	0	10000	3	1	0	3	0
24	58	0	10000	3	1	0	3	0
28	59	0	10000	3	1	0	3	0
33	60	0	10000	3	1	0	3	0
36	60	0	10000	3	1	0	3	0
37	61	0	10000	3	1	0	3	0
36	63	0	10000	3	1	0	3	0
38	64	0	10000	3	1	0	3	0
41	65	0	10000	3	1	0	3	0
44	66	0	10000	3	1	0	3	0
47	67	0	10000	3	1	0	3	0
48	68	0	10000	3	1	0	3	0
47	69	0	10000	3	1	0	3	0
46	70	0	10000	3	1	0	3	0
44	70	0	10000	3	1	0	3	0
43	71	0	10000	3	1	0	3	0
43	73	0	10000	3	1	0	3	0
40	74	0	10000	3	1	0	3	0
39	75	0	10000	3	1	0	3	0
37	76	0	10000	3	1	0	3	0
35	77	0	10000	3	1	0	3	0
34	78	0	10000	3	1	0	3	0
33	79	0	10000	3	1	0	3	0
32	80	0	10000	3	1	0	3	0
31	80	0	10000	3	1	0	3	0
29	81	0	10000	3	1	0	3	0
28	83	0	10000	3	1	0	3	0
29	84	0	10000	3	1	0	3	0
30	85	0	10000	3	1	0	3	0
32	86	0	10000	3	1	0	3	0
33	87	0	10000	3	1	0	3	0
34	88	0	10000	3	1	0	3	0
35	89	0	10000	3	1	0	3	0
33	90	0	10000	3	1	0	3	0
31	90	0	10000	3	1	0	3	0
32	91	0	10000	3	1	0	3	0
34	93	0	10000	3	1	0	3	0
33	94	0	10000	3	1	0	3	0
33	95	0	10000	3	1	0	3	0
33	96	0	10000	3	1	0	3	0
33	97	0	10000	3	1	0	3	0
33	98	0	10000	3	1	0	3	0
34	99	0	10000	3	1	0	3	0
33	100	0	10000	3	1	0	3	0
33	100	0	10000	3	1	0	3	0
31	101	0	10000	3	1	0	3	0
29	103	0	10000	3	1	0	3	0
29	104	0	10000	3	1	0	3	0
29	105	0	10000	3	1	0	3	0
28	106	0	10000	3	1	0	3	0
27	107	0	10000	3	1	0	3	0
26	108	0	10000	3	1	0	3	0
26	109	0	10000	3	1	0	3	0
25	110	0	10000	3	1	0	3	0
25	110	0	10000	3	1	0	3	0
26	111	0	10000	3	1	0	3	0
27	113	0	10000	3	1	0	3	0
27	114	0	10000	3	1	0	3	0
27	115	0	10000	3	1	0	3	0
26	116	0	10000	3	1	0	3	0
25	117	0	10000	3	1	0	3	0
26	118	0	10000	3	1	0	3	0
25	119	0	10000	3	1	0	3	0
25	120	0	10000	3	1	0	3	0
24	120	0	10000	3	1	0	3	0
22	121	0	10000	3	1	0	3	0
21	123	0	10000	3	1	0	3	0
21	124	0	10000	3	1	0	3	0
20	125	0	10000	3	1	0	3	0
20	126	0	10000	3	1	0	3	0
19	127	0	10000	3	1	0	3	0
19	128	0	10000	3	1	0	3	0
18	129	0	10000	3	1	0	3	0
17	130	0	10000	3	1	0	3	0
17	130	0	10000	3	1	0	3	0
17	131	0	10000	3	1	0	3	0
17	133	0	10000	3	1	0	3	0
17	134	0	10000	3	1	0	3	0
16	135	0	10000	3	1	0	3	0
16	136	0	10000	3	1	0	3	0
17	137	0	10000	3	1	0	3	0
18	138	0	10000	3	1	0	3	0
18	139	0	10000	3	1	0	3	0
17	140	0	10000	3	1	0	3	0
18	140	0	10000	3	1	0	3	0
17	141	0	10000	3	1	0	3	0
18	143	0	10000	3	1	0	3	0
20	144	0	10000	3	1	0	3	0
19	145	0	10000	3	1	0	3	0
19	146	0	10000	3	1	0	3	0
19	147	0	10000	3	1	0	3	0
19	148	0	10000	3	1	0	3	0
18	149	0	10000	3	1	0	3	0
17	150	0	10000	3	1	0	3	0
17	150	0	10000	3	1	0	3	0
18	151	0	10000	3	1	0	3	0
19	153	0	10000	3	1	0	3	0
19	154	0	10000	3	1	0	3	0
18	155	0	10000	3	1	0	3	0
18	156	0	10000	3	1	0	3	0
17	157	0	10000	3	1	0	3	0
17	158	0	10000	3	1	0	3	0
17	159	0	10000	3	1	0	3	0
17	160	0	10000	3	1	0	3	0
17	160	0	10000	3	1	0	3	0
16	161	0	10000	3	1	0	3	0
15	163	0	10000	3	1	0	3	0
16	164	0	10000	3	1	0	3	0
16	165	0	10000	3	1	0	3	0
15	166	0	10000	3	1	0	3	0
15	167	0	10000	3	1	0	3	0
15	168	0	10000	3	1	0	3	0
15	169	0	10000	3	1	0	3	0
14	170	0	10000	3	1	0	3	0
13	170	0	10000	3	1	0	3	0
14	171	0	10000	3	1	0	3	0
16	173	0	10000	3	1	0	3	0
14	174	0	10000	3	1	0	3	0
14	175	0	10000	3	1	0	3	0
14	176	0	10000	3	1	0	3	0
14	177	0	10000	3	1	0	3	0
15	178	0	10000	3	1	0	3	0
15	179	0	10000	3	1	0	3	0
17	180	0	10000	3	1	0	3	0
17	180	0	10000	3	1	0	3	0
16	181	0	10000	3	1	0	3	0
14	183	0	10000	3	1	0	3	0
14	184	0	10000	3	1	0	3	0
14	185	0	10000	3	1	0	3	0
15	186	0	10000	3	1	0	3	0
14	187	0	10000	3	1	0	3	0
13	188	0	10000	3	1	0	3	0
13	189	0	10000	3	1	0	3	0
12	190	0	10000	3	1	0	3	0
13	190	0	10000	3	1	0	3	0
13	191	0	10000	3	1	0	3	0
15	193	0	10000	3	1	0	3	0
14	194	0	10000	3	1	0	3	0
13	195	0	10000	3	1	0	3	0
13	196	0	10000	3	1	0	3	0
12	197	0	10000	3	1	0	3	0
12	198	0	10000	3	1	0	3	0
14	199	0	10000	3	1	0	3	0
14	200	0	10000	3	1	0	3	0
15	200	0	10000	3	1	0	3	0
14	201	0	10000	3	1	0	3	0
12	203	0	10000	3	1	0	3	0
13	204	0	10000	3	1	0	3	0
12	205	0	10000	3	1	0	3	0
13	206	0	10000	3	1	0	3	0
12	207	0	10000	3	1	0	3	0
12	208	0	10000	3	1	0	3	0
12	209	0	10000	3	1	0	3	0
11	210	0	10000	3	1	0	3	0
11	210	0	10000	3	1	0	3	0
11	211	0	10000	3	1	0	3	0
12	213	0	10000	3	1	0	3	0
12	214	0	10000	3	1	0	3	0
13	215	0	10000	3	1	0	3	0
14	216	0	10000	3	1	0	3	0
16	217	0	10000	3	1	0	3	0
17	218	0	10000	3	1	0	3	0
18	219	0	10000	3	1	0	3	0
18	220	0	10000	3	1	0	3	0
18	220	0	10000	3	1	0	3	0
17	221	0	10000	3	1	0	3	0
16	223	0	10000	3	1	0	3	0
16	224	0	10000	3	1	0	3	0
15	225	0	10000	3	1	0	3	0
15	226	0	10000	3	1	0	3	0
15	227	0	10000	3	1	0	3	0
16	228	0	10000	3	1	0	3	0
15	229	0	10000	3	1	0	3	0
14	230	0	10000	3	1	0	3	0
14	230	0	10000	3	1	0	3	0
14	231	0	10000	3	1	0	3	0
15	233	0	10000	3	1	0	3	0
15	234	0	10000	3	1	0	3	0
15	235	0	10000	3	1	0	3	0
15	236	0	10000	3	1	0	3	0
15	237	0	10000	3	1	0	3	0
15	238	0	10000	3	1	0	3	0
15	239	0	10000	3	1	0	3	0
16	240	0	10000	3	1	0	3	0
16	240	0	10000	3	1	0	3	0
14	241	0	10000	3	1	0	3	0
13	243	0	10000	3	1	0	3	0
14	244	0	10000	3	1	0	3	0
14	245	0	10000	3	1	0	3	0
14	246	0	10000	3	1	0	3	0
13	247	0	10000	3	1	0	3	0
14	248	0	10000	3	1	0	3	0
14	249	0	10000	3	1	0	3	0
14	250	0	10000	3	1	0	3	0
14	250	0	10000	3	1	0	3	0
15	251	0	10000	3	1	0	3	0
17	253	0	10000	3	1	0	3	0
17	254	0	10000	3	1	0	3	0
17	255	0	10000	3	1	0	3	0
16	256	0	10000	3	1	0	3	0
16	257	0	10000	3	1	0	3	0
15	258	0	10000	3	1	0	3	0
16	259	0	10000	3	1	0	3	0
18	260	0	10000	3	1	0	3	0
18	260	0	10000	3	1	0	3	0
18	261	0	10000	3	1	0	3	0
17	263	0	10000	3	1	0	3	0
17	264	0	10000	3	1	0	3	0
17	265	0	10000	3	1	0	3	0
17	266	0	10000	3	1	0	3	0
17	267	0	10000	3	1	0	3	0
19	268	0	10000	3	1	0	3	0
21	269	0	10000	3	1	0	3	0
25	270	0	10000	3	1	0	3	0
25	270	0	10000	3	1	0	3	0
26	271	0	10000	3	1	0	3	0
26	273	0	10000	3	1	0	3	0
24	274	0	10000	3	1	0	3	0
23	275	0	10000	3	1	0	3	0
22	276	0	10000	3	1	0	3	0
23	277	0	10000	3	1	0	3	0
22	278	0	10000	3	1	0	3	0
21	279	0	10000	3	1	0	3	0
21	280	0	10000	3	1	0	3	0
21	280	0	10000	3	1	0	3	0
20	281	0	10000	3	1	0	3	0
20	283	0	10000	3	1	0	3	0
19	284	0	10000	3	1	0	3	0
18	285	0	10000	3	1	0	3	0
20	286	0	10000	3	1	0	3	0
18	287	0	10000	3	1	0	3	0
18	288	0	10000	3	1	0	3	0
19	289	0	10000	3	1	0	3	0
19	290	0	10000	3	1	0	3	0
20	290	0	10000	3	1	0	3	0
23	291	0	10000	3	1	0	3	0
25	293	0	10000	3	1	0	3	0
24	294	0	10000	3	1	0	3	0
23	295	0	10000	3	1	0	3	0
21	296	0	10000	3	1	0	3	0
20	297	0	10000	3	1	0	3	0
20	298	0	10000	3	1	0	3	0
21	299	0	10000	3	1	0	3	0
20	300	0	10000	3	1	0	3	0
20	300	0	10000	3	1	0	3	0
18	301	0	10000	3	1	0	3	0
16	303	0	10000	3	1	0	3	0
16	304	0	10000	3	1	0	3	0
16	305	0	10000	3	1	0	3	0
16	306	0	10000	3	1	0	3	0
15	307	0	10000	3	1	0	3	0
17	308	0	10000	3	1	0	3	0
18	309	0	10000	3	1	0	3	0
17	310	0	10000	3	1	0	3	0
17	310	0	10000	3	1	0	3	0
20	311	0	10000	3	1	0	3	0
22	313	0	10000	3	1	0	3	0
22	314	0	10000	3	1	0	3	0
22	315	0	10000	3	1	0	3	0
20	316	0	10000	3	1	0	3	0
21	317	0	10000	3	1	0	3	0
21	318	0	10000	3	1	0	3	0
21	319	0	10000	3	1	0	3	0
20	320	0	10000	3	1	0	3	0
20	320	0	10000	3	1	0	3	0
20	321	0	10000	3	1	0	3	0
18	323	0	10000	3	1	0	3	0
18	324	0	10000	3	1	0	3	0
18	325	0	10000	3	1	0	3	0
18	326	0	10000	3	1	0	3	0
19	327	0	10000	3	1	0	3	0
19	328	0	10000	3	1	0	3	0
18	329	0	10000	3	1	0	3	0
17	330	0	10000	3	1	0	3	0
16	330	0	10000	3	1	0	3	0
16	331	0	10000	3	1	0	3	0
18	333	0	10000	3	1	0	3	0
18	334	0	10000	3	1	0	3	0
19	335	0	10000	3	1	0	3	0
19	336	0	10000	3	1	0	3	0
21	337	0	10000	3	1	0	3	0
21	338	0	10000	3	1	0	3	0
20	339	0	10000	3	1	0	3	0
21	340	0	10000	3	1	0	3	0
21	340	0	10000	3	1	0	3	0
20	341	0	10000	3	1	0	3	0
20	343	0	10000	3	1	0	3	0
20	344	0	10000	3	1	0	3	0
20	345	0	10000	3	1	0	3	0
20	346	0	10000	3	1	0	3	0
20	347	0	10000	3	1	0	3	0
20	348	0	10000	3	1	0	3	0
20	349	0	10000	3	1	0	3	0
21	350	0	10000	3	1	0	3	0
22	350	0	10000	3	1	0	3	0
22	351	0	10000	3	1	0	3	0
23	353	0	10000	3	1	0	3	0
23	354	0	10000	3	1	0	3	0
22	355	0	10000	3	1	0	3	0
21	356	0	10000	3	1	0	3	0
21	357	0	10000	3	1	0	3	0
20	358	0	10000	3	1	0	3	0
20	359	0	10000	3	1	0	3	0
21	360	0	10000	3	1	0	3	0
21	360	0	10000	3	1	0	3	0
20	361	0	10000	3	1	0	3	0
19	363	0	10000	3	1	0	3	0
20	364	0	10000	3	1	0	3	0
20	365	0	10000	3	1	0	3	0
19	366	0	10000	3	1	0	3	0
19	367	0	10000	3	1	0	3	0
19	368	0	10000	3	1	0	3	0
19	369	0	10000	3	1	0	3	0
20	370	0	10000	3	1	0	3	0
19	370	0	10000	3	1	0	3	0
18	371	0	10000	3	1	0	3	0
19	373	0	10000	3	1	0	3	0
18	374	0	10000	3	1	0	3	0
18	375	0	10000	3	1	0	3	0
17	376	0	10000	3	1	0	3	0
18	377	0	10000	3	1	0	3	0
17	378	0	10000	3	1	0	3	0
17	379	0	10000	3	1	0	3	0
16	380	0	10000	3	1	0	3	0
16	380	0	10000	3	1	0	3	0
15	381	0	10000	3	1	0	3	0
15	383	0	10000	3	1	0	3	0
16	384	0	10000	3	1	0	3	0
17	385	0	10000	3	1	0	3	0
18	386	0	10000	3	1	0	3	0
18	387	0	10000	3	1	0	3	0
17	388	0	10000	3	1	0	3	0
16	389	0	10000	3	1	0	3	0
16	390	0	10000	3	1	0	3	0
16	390	0	10000	3	1	0	3	0
17	391	0	10000	3	1	0	3	0
19	393	0	10000	3	1	0	3	0
19	394	0	10000	3	1	0	3	0
19	395	0	10000	3	1	0	3	0
19	396	0	10000	3	1	0	3	0
18	397	0	10000	3	1	0	3	0
18	398	0	10000	3	1	0	3	0
19	399	0	10000	3	1	0	3	0
19	400	0	10000	3	1	0	3	0
20	400	0	10000	3	1	0	3	0
19	401	0	10000	3	1	0	3	0
17	403	0	10000	3	1	0	3	0
17	404	0	10000	3	1	0	3	0
18	405	0	10000	3	1	0	3	0
19	406	0	10000	3	1	0	3	0
19	407	0	10000	3	1	0	3	0
20	408	0	10000	3	1	0	3	0
21	409	0	10000	3	1	0	3	0
21	410	0	10000	3	1	0	3	0
21	410	0	10000	3	1	0	3	0
22	411	0	10000	3	1	0	3	0
23	413	0	10000	3	1	0	3	0
23	414	0	10000	3	1	0	3	0
22	415	0	10000	3	1	0	3	0
21	416	0	10000	3	1	0	3	0
22	417	0	10000	3	1	0	3	0
22	418	0	10000	3	1	0	3	0
22	419	0	10000	3	1	0	3	0
21	420	0	10000	3	1	0	3	0
20	420	0	10000	3	1	0	3	0
20	421	0	10000	3	1	0	3	0
18	423	0	10000	3	1	0	3	0
19	424	0	10000	3	1	0	3	0
21	425	0	10000	3	1	0	3	0
24	426	0	10000	3	1	0	3	0
23	427	0	10000	3	1	0	3	0
23	428	0	10000	3	1	0	3	0
23	429	0	10000	3	1	0	3	0
24	430	0	10000	3	1	0	3	0
24	430	0	10000	3	1	0	3	0
26	431	0	10000	3	1	0	3	0
25	433	0	10000	3	1	0	3	0
25	434	0	10000	3	1	0	3	0
24	435	0	10000	3	1	0	3	0
25	436	0	10000	3	1	0	3	0
28	437	0	10000	3	1	0	3	0
28	438	0	10000	3	1	0	3	0
27	439	0	10000	3	1	0	3	0
30	440	0	10000	3	1	0	3	0
32	440	0	10000	3	1	0	3	0
32	441	0	10000	3	1	0	3	0
32	443	0	10000	3	1	0	3	0
34	444	0	10000	3	1	0	3	0
34	445	0	10000	3	1	0	3	0
34	446	0	10000	3	1	0	3	0
35	447	0	10000	3	1	0	3	0
34	448	0	10000	3	1	0	3	0
33	449	0	10000	3	1	0	3	0
32	450	0	10000	3	1	0	3	0
32	450	0	10000	3	1	0	3	0
31	451	0	10000	3	1	0	3	0
31	453	0	10000	3	1	0	3	0
31	454	0	10000	3	1	0	3	0
33	455	0	10000	3	1	0	3	0
35	456	0	10000	3	1	0	3	0
34	457	0	10000	3	1	0	3	0
35	458	0	10000	3	1	0	3	0
36	459	0	10000	3	1	0	3	0
37	460	0	10000	3	1	0	3	0
38	460	0	10000	3	1	0	3	0
36	461	0	10000	3	1	0	3	0
34	463	0	10000	3	1	0	3	0
34	464	0	10000	3	1	0	3	0
35	465	0	10000	3	1	0	3	0
36	466	0	10000	3	1	0	3	0
39	467	0	10000	3	1	0	3	0
39	468	0	10000	3	1	0	3	0
38	469	0	10000	3	1	0	3	0
37	470	0	10000	3	1	0	3	0
37	470	0	10000	3	1	0	3	0
37	471	0	10000	3	1	0	3	0
38	473	0	10000	3	1	0	3	0
38	474	0	10000	3	1	0	3	0
38	475	0	10000	3	1	0	3	0
36	476	0	10000	3	1	0	3	0
35	477	0	10000	3	1	0	3	0
34	478	0	10000	3	1	0	3	0
34	479	0	10000	3	1	0	3	0
35	480	0	10000	3	1	0	3	0
32	480	0	10000	3	1	0	3	0
32	481	0	10000	3	1	0	3	0
32	483	0	10000	3	1	0	3	0
34	484	0	10000	3	1	0	3	0
33	485	0	10000	3	1	0	3	0
32	486	0	10000	3	1	0	3	0
32	487	0	10000	3	1	0	3	0
31	488	0	10000	3	1	0	3	0
30	489	0	10000	3	1	0	3	0
29	490	0	10000	3	1	0	3	0
29	490	0	10000	3	1	0	3	0
30	491	0	10000	3	1	0	3	0
32	493	0	10000	3	1	0	3	0
32	494	0	10000	3	1	0	3	0
34	495	0	10000	3	1	0	3	0
33	496	0	10000	3	1	0	3	0
32	497	0	10000	3	1	0	3	0
31	498	0	10000	3	1	0	3	0
31	499	0	10000	3	1	0	3	0
32	500	0	10000	3	1	0	3	0
32	500	0	10000	3	1	0	3	0
31	501	0	10000	3	1	0	3	0
30	503	0	10000	3	1	0	3	1
29	504	0	10000	3	1	0	3	1
29	505	0	10000	3	1	0	3	1
29	506	0	10000	3	1	0	3	1
28	507	0	10000	3	1	0	3	1
29	508	0	10000	3	1	0	3	1
31	509	0	10000	3	1	0	3	1
32	510	0	10000	3	1	0	3	1
32	510	0	10000	3	1	0	3	1
33	511	0	10000	3	1	0	3	1
34	513	0	10000	3	1	0	3	1
32	514	0	10000	3	1	0	3	1
32	515	0	10000	3	1	0	3	1
32	516	0	10000	3	1	0	3	1
30	517	0	10000	3	1	0	3	1
29	518	0	10000	3	1	0	3	1
29	519	0	10000	3	1	0	3	1
30	520	0	10000	3	1	0	3	1
32	520	0	10000	3	1	0	3	1
35	521	0	10000	3	1	0	3	1
35	523	0	10000	3	1	0	3	1
40	524	0	10000	3	1	0	3	1
42	525	0	10000	3	1	0	3	1
42	526	0	10000	3	1	0	3	1
41	527	0	10000	3	1	0	3	1
39	528	0	10000	3	1	0	3	1
39	529	0	10000	3	1	0	3	1
39	530	0	10000	3	1	0	3	1
39	530	0	10000	3	1	0	3	1
43	531	0	10000	3	1	0	3	1
48	533	0	10000	3	1	0	3	1
51	534	0	10000	3	1	0	3	1
51	535	0	10000	3	1	0	3	1
48	536	0	10000	3	1	0	3	1
47	537	0	10000	3	1	0	3	1
46	538	0	10000	3	1	0	3	1
44	539	0	10000	3	1	0	3	1
42	540	0	10000	3	1	0	3	1
41	540	0	10000	3	1	0	3	1
39	541	0	10000	3	1	0	3	1
36	543	0	10000	3	1	0	3	1
34	544	0	10000	3	1	0	3	1
34	545	0	10000	3	1	0	3	1
32	546	0	10000	3	1	0	3	1
33	547	0	10000	3	1	0	3	1
34	548	0	10000	3	1	0	3	1
34	549	0	10000	3	1	0	3	1
33	550	0	10000	3	1	0	3	1
34	550	0	10000	3	1	0	3	1
33	551	0	10000	3	1	0	3	1
33	553	0	10000	3	1	0	3	0
33	554	0	10000	3	1	0	3	0
32	555	0	10000	3	1	0	3	0
32	556	0	10000	3	1	0	3	0
34	557	0	10000	3	1	0	3	0
37	558	0	10000	3	1	0	3	0
37	559	0	10000	3	1	0	3	0
39	560	0	10000	3	1	0	3	0
41	560	0	10000	3	1	0	3	0
39	561	0	10000	3	1	0	3	0
36	563	0	10000	3	1	0	3	0
36	564	0	10000	3	1	0	3	0
34	565	0	10000	3	1	0	3	0
32	566	0	10000	3	1	0	3	0
32	567	0	10000	3	1	0	3	0
33	568	0	10000	3	1	0	3	0
33	569	0	10000	3	1	0	3	0
32	570	0	10000	3	1	0	3	0
33	570	0	10000	3	1	0	3	0
37	571	0	10000	3	1	0	3	0
39	573	0	10000	3	1	0	3	0
38	574	0	10000	3	1	0	3	0
36	575	0	10000	3	1	0	3	0
37	576	0	10000	3	1	0	3	0
38	577	0	10000	3	1	0	3	0
38	578	0	10000	3	1	0	3	0
37	579	0	10000	3	1	0	3	0
37	580	0	10000	3	1	0	3	0
37	580	0	10000	3	1	0	3	0
39	581	0	10000	3	1	0	3	0
38	583	0	10000	3	1	0	3	0
38	584	0	10000	3	1	0	3	0
37	585	0	10000	3	1	0	3	0
39	586	0	10000	3	1	0	3	0
44	587	0	10000	3	1	0	3	0
53	588	0	10000	3	1	0	3	0
58	589	0	10000	3	1	0	3	0
58	590	0	10000	3	1	0	3	0
56	590	0	10000	3	1	0	3	0
62	591	0	10000	3	1	0	3	0
79	593	0	10000	3	1	0	3	0
90	594	0	10000	3	1	0	3	0
110	595	0	10000	3	1	0	3	0
118	596	0	10000	3	1	0	3	0
128	597	0	10000	3	1	0	3	0
133	598	0	10000	3	1	0	3	0
141	599	0	10000	3	1	0	3	0
192	600	0	10000	3	1	0	3	0
226	600	0	10000	3	1	0	3	0
238	601	0	10000	3	1	0	3	0
238	603	0	10000	3	1	0	3	0
278	604	0	10000	3	1	0	3	0
360	605	0	10000	3	1	0	3	0
426	606	0	10000	3	1	0	3	0
439	607	0	10000	3	1	0	3	0
424	608	0	10000	3	1	0	3	0
407	609	0	10000	3	1	0	3	0
389	610	0	10000	3	1	0	3	0
385	610	0	10000	3	1	0	3	0
428	611	0	10000	3	1	0	3	0
481	613	0	10000	3	1	0	3	0
479	614	0	10000	3	1	0	3	0
494	615	0	10000	3	1	0	3	0
523	616	0	10000	3	1	0	3	0
529	617	0	10000	3	1	0	3	0
519	618	0	10000	3	1	0	3	0
526	619	0	10000	3	1	0	3	0
516	620	0	10000	3	1	0	3	0
520	620	0	10000	3	1	0	3	0
510	621	0	10000	3	1	0	3	0
504	623	0	10000	3	1	0	3	0
516	624	0	10000	3	1	0	3	0
516	625	0	10000	3	1	0	3	0
499	626	0	10000	3	1	0	3	0
496	627	0	10000	3	1	0	3	0
506	628	0	10000	3	1	0	3	0
521	629	0	10000	3	1	0	3	0
535	630	0	10000	3	1	0	3	0
551	630	0	10000	3	1	0	3	0
567	631	0	10000	3	1	0	3	0
581	633	0	10000	3	1	0	3	0
593	634	0	10000	3	1	0	3	0
604	635	0	10000	3	1	0	3	0
616	636	0	10000	3	1	0	3	0
640	637	0	10000	3	1	0	3	0
654	638	0	10000	3	1	0	3	0
661	639	0	10000	3	1	0	3	0
673	640	0	10000	3	1	0	3	0
683	640	0	10000	3	1	0	3	0
659	641	0	10000	3	1	0	3	0
636	643	0	10000	3	1	0	3	0
613	644	0	10000	3	1	0	3	0
586	645	0	10000	3	1	0	3	0
564	646	0	10000	3	1	0	3	0
546	647	0	10000	3	1	0	3	0
529	648	0	10000	3	1	0	3	0
511	649	0	10000	3	1	0	3	0
494	650	0	10000	3	1	0	3	0
478	650	0	10000	3	1	0	3	0
458	651	0	10000	3	1	0	3	0
439	653	0	10000	3	1	0	3	0
418	654	0	10000	3	1	0	3	0
399	655	0	10000	3	1	0	3	0
379	656	0	10000	3	1	0	3	0
363	657	0	10000	3	1	0	3	0
348	658	0	10000	3	1	0	3	0
336	659	0	10000	3	1	0	3	0
326	660	0	10000	3	1	0	3	0
319	660	0	10000	3	1	0	3	0
315	661	0	10000	3	1	0	3	0
314	663	0	10000	3	1	0	3	0
316	664	0	10000	3	1	0	3	0
316	665	0	10000	3	1	0	3	0
318	666	0	10000	3	1	0	3	0
322	667	0	10000	3	1	0	3	0
323	668	0	10000	3	1	0	3	0
323	669	0	10000	3	1	0	3	0
323	670	0	10000	3	1	0	3	0
323	670	0	10000	3	1	0	3	0
326	671	0	10000	3	1	0	3	0
332	673	0	10000	3	1	0	3	0
340	674	0	10000	3	1	0	3	0
350	675	0	10000	3	1	0	3	0
364	676	0	10000	3	1	0	3	0
382	677	0	10000	3	1	0	3	0
398	678	0	10000	3	1	0	3	0
411	679	0	10000	3	1	0	3	0
423	680	0	10000	3	1	0	3	0
430	680	0	10000	3	1	0	3	0
430	681	0	10000	3	1	0	3	0
428	683	0	10000	3	1	0	3	0
428	684	0	10000	3	1	0	3	0
429	685	0	10000	3	1	0	3	0
432	686	0	10000	3	1	0	3	0
437	687	0	10000	3	1	0	3	0
444	688	0	10000	3	1	0	3	0
449	689	0	10000	3	1	0	3	0
451	690	0	10000	3	1	0	3	0
449	690	0	10000	3	1	0	3	0
447	691	0	10000	3	1	0	3	0
450	693	0	10000	3	1	0	3	0
449	694	0	10000	3	1	0	3	0
450	695	0	10000	3	1	0	3	0
449	696	0	10000	3	1	0	3	0
447	697	0	10000	3	1	0	3	0
441	698	0	10000	3	1	0	3	0
432	699	0	10000	3	1	0	3	0
425	700	0	10000	3	1	0	3	0
417	700	0	10000	3	1	0	3	0
406	701	0	10000	3	1	0	3	0
395	703	0	10000	3	1	0	3	0
382	704	0	10000	3	1	0	3	0
367	705	0	10000	3	1	0	3	0
351	706	0	10000	3	1	0	3	0
335	707	0	10000	3	1	0	3	0
319	708	0	10000	3	1	0	3	0
305	709	0	10000	3	1	0	3	0
292	710	0	10000	3	1	0	3	0
278	710	0	10000	3	1	0	3	0
266	711	0	10000	3	1	0	3	0
258	713	0	10000	3	1	0	3	0
249	714	0	10000	3	1	0	3	0
243	715	0	10000	3	1	0	3	0
237	716	0	10000	3	1	0	3	0
230	717	0	10000	3	1	0	3	0
224	718	0	10000	3	1	0	3	0
220	719	0	10000	3	1	0	3	0
217	720	0	10000	3	1	0	3	0
219	720	0	10000	3	1	0	3	0
222	721	0	10000	3	1	0	3	0
226	723	0	10000	3	1	0	3	0
229	724	0	10000	3	1	0	3	0
231	725	0	10000	3	1	0	3	0
233	726	0	10000	3	1	0	3	0
234	727	0	10000	3	1	0	3	0
235	728	0	10000	3	1	0	3	0
234	729	0	10000	3	1	0	3	0
231	730	0	10000	3	1	0	3	0
228	730	0	10000	3	1	0	3	0
225	731	0	10000	3	1	0	3	0
220	733	0	10000	3	1	0	3	0
212	734	0	10000	3	1	0	3	0
205	735	0	10000	3	1	0	3	0
199	736	0	10000	3	1	0	3	0
195	737	0	10000	3	1	0	3	0
191	738	0	10000	3	1	0	3	0
189	739	0	10000	3	1	0	3	0
187	740	0	10000	3	1	0	3	0
188	740	0	10000	3	1	0	3	0
187	741	0	10000	3	1	0	3	0
182	743	0	10000	3	1	0	3	0
180	744	0	10000	3	1	0	3	0
177	745	0	10000	3	1	0	3	0
174	746	0	10000	3	1	0	3	0
174	747	0	10000	3	1	0	3	0
176	748	0	10000	3	1	0	3	0
177	749	0	10000	3	1	0	3	0
178	750	0	10000	3	1	0	3	0
178	750	0	10000	3	1	0	3	0
174	751	0	10000	3	1	0	3	0
169	753	0	10000	3	1	0	3	0
161	754	0	10000	3	1	0	3	0
155	755	0	10000	3	1	0	3	0
148	756	0	10000	3	1	0	3	0
140	757	0	10000	3	1	0	3	0
135	758	0	10000	3	1	0	3	0
131	759	0	10000	3	1	0	3	0
127	760	0	10000	3	1	0	3	0
125	760	0	10000	3	1	0	3	0
121	761	0	10000	3	1	0	3	0
118	763	0	10000	3	1	0	3	0
116	764	0	10000	3	1	0	3	0
116	765	0	10000	3	1	0	3	0
115	766	0	10000	3	1	0	3	0
118	767	0	10000	3	1	0	3	0
123	768	0	10000	3	1	0	3	0
124	769	0	10000	3	1	0	3	0
120	770	0	10000	3	1	0	3	0
114	770	0	10000	3	1	0	3	0
110	771	0	10000	3	1	0	3	0
107	773	0	10000	3	1	0	3	0
103	774	0	10000	3	1	0	3	0
100	775	0	10000	3	1	0	3	0
99	776	0	10000	3	1	0	3	0
99	777	0	10000	3	1	0	3	0
95	778	0	10000	3	1	0	3	0
91	779	0	10000	3	1	0	3	0
88	780	0	10000	3	1	0	3	0
87	780	0	10000	3	1	0	3	0
86	781	0	10000	3	1	0	3	0
84	783	0	10000	3	1	0	3	0
86	784	0	10000	3	1	0	3	0
89	785	0	10000	3	1	0	3	0
92	786	0	10000	3	1	0	3	0
94	787	0	10000	3	1	0	3	0
96	788	0	10000	3	1	0	3	0
99	789	0	10000	3	1	0	3	0
100	790	0	10000	3	1	0	3	0
96	790	0	10000	3	1	0	3	0
94	791	0	10000	3	1	0	3	0
95	793	0	10000	3	1	0	3	0
95	794	0	10000	3	1	0	3	0
95	795	0	10000	3	1	0	3	0
91	796	0	10000	3	1	0	3	0
91	797	0	10000	3	1	0	3	0
88	798	0	10000	3	1	0	3	0
87	799	0	10000	3	1	0	3	0
86	800	0	10000	3	1	0	3	0
83	800	0	10000	3	1	0	3	0
81	801	0	10000	3	1	0	3	0
80	803	0	10000	3	1	0	3	0
81	804	0	10000	3	1	0	3	0
84	805	0	10000	3	1	0	3	0
87	806	0	10000	3	1	0	3	0
87	807	0	10000	3	1	0	3	0
86	808	0	10000	3	1	0	3	0
83	809	0	10000	3	1	0	3	0
79	810	0	10000	3	1	0	3	0
76	810	0	10000	3	1	0	3	0
75	811	0	10000	3	1	0	3	0
73	813	0	10000	3	1	0	3	0
70	814	0	10000	3	1	0	3	0
69	815	0	10000	3	1	0	3	0
70	816	0	10000	3	1	0	3	0
71	817	0	10000	3	1	0	3	0
70	818	0	10000	3	1	0	3	0
68	819	0	10000	3	1	0	3	0
66	820	0	10000	3	1	0	3	0
64	820	0	10000	3	1	0	3	0
64	821	0	10000	3	1	0	3	0
62	823	0	10000	3	1	0	3	0
61	824	0	10000	3	1	0	3	0
59	825	0	10000	3	1	0	3	0
57	826	0	10000	3	1	0	3	0
56	827	0	10000	3	1	0	3	0
56	828	0	10000	3	1	0	3	0
57	829	0	10000	3	1	0	3	0
55	830	0	10000	3	1	0	3	0
53	830	0	10000	3	1	0	3	0
53	831	0	10000	3	1	0	3	0
52	833	0	10000	3	1	0	3	0
51	834	0	10000	3	1	0	3	0
51	835	0	10000	3	1	0	3	0
50	836	0	10000	3	1	0	3	0
49	837	0	10000	3	1	0	3	0
49	838	0	10000	3	1	0	3	0
48	839	0	10000	3	1	0	3	0
46	840	0	10000	3	1	0	3	0
45	840	0	10000	3	1	0	3	0
43	841	0	10000	3	1	0	3	0
42	843	0	10000	3	1	0	3	0
44	844	0	10000	3	1	0	3	0
46	845	0	10000	3	1	0	3	0
48	846	0	10000	3	1	0	3	0
49	847	0	10000	3	1	0	3	0
51	848	0	10000	3	1	0	3	0
54	849	0	10000	3	1	0	3	0
53	850	0	10000	3	1	0	3	0
52	850	0	10000	3	1	0	3	0
52	851	0	10000	3	1	0	3	0
54	853	0	10000	3	1	0	3	0
54	854	0	10000	3	1	0	3	0
54	855	0	10000	3	1	0	3	0
53	856	0	10000	3	1	0	3	0
53	857	0	10000	3	1	0	3	0
51	858	0	10000	3	1	0	3	0
50	859	0	10000	3	1	0	3	0
54	860	0	10000	3	1	0	3	0
55	860	0	10000	3	1	0	3	0
54	861	0	10000	3	1	0	3	0
57	863	0	10000	3	1	0	3	0
60	864	0	10000	3	1	0	3	0
61	865	0	10000	3	1	0	3	0
60	866	0	10000	3	1	0	3	0
58	867	0	10000	3	1	0	3	0
60	868	0	10000	3	1	0	3	0
59	869	0	10000	3	1	0	3	0
57	870	0	10000	3	1	0	3	0
55	870	0	10000	3	1	0	3	0
53	871	0	10000	3	1	0	3	0
53	873	0	10000	3	1	0	3	0
52	874	0	10000	3	1	0	3	0
49	875	0	10000	3	1	0	3	0
49	876	0	10000	3	1	0	3	0
48	877	0	10000	3	1	0	3	0
46	878	0	10000	3	1	0	3	0
47	879	0	10000	3	1	0	3	0
48	880	0	10000	3	1	0	3	0
51	880	0	10000	3	1	0	3	0
50	881	0	10000	3	1	0	3	0
47	883	0	10000	3	1	0	3	0
50	884	0	10000	3	1	0	3	0
52	885	0	10000	3	1	0	3	0
54	886	0	10000	3	1	0	3	0
54	887	0	10000	3	1	0	3	0
51	888	0	10000	3	1	0	3	0
50	889	0	10000	3	1	0	3	0
50	890	0	10000	3	1	0	3	0
47	890	0	10000	3	1	0	3	0
47	891	0	10000	3	1	0	3	0
50	893	0	10000	3	1	0	3	0
52	894	0	10000	3	1	0	3	0
53	895	0	10000	3	1	0	3	0
54	896	0	10000	3	1	0	3	0
57	897	0	10000	3	1	0	3	0
60	898	0	10000	3	1	0	3	0
59	899	0	10000	3	1	0	3	0
59	900	0	10000	3	1	0	3	0
60	900	0	10000	3	1	0	3	0
57	901	0	10000	3	1	0	3	0
56	903	0	10000	3	1	0	3	0
57	904	0	10000	3	1	0	3	0
58	905	0	10000	3	1	0	3	0
57	906	0	10000	3	1	0	3	0
57	907	0	10000	3	1	0	3	0
58	908	0	10000	3	1	0	3	0
59	909	0	10000	3	1	0	3	0
57	910	0	10000	3	1	0	3	0
54	910	0	10000	3	1	0	3	0
53	911	0	10000	3	1	0	3	0
52	913	0	10000	3	1	0	3	0
50	914	0	10000	3	1	0	3	0
48	915	0	10000	3	1	0	3	0
47	916	0	10000	3	1	0	3	0
46	917	0	10000	3	1	0	3	0
44	918	0	10000	3	1	0	3	0
44	919	0	10000	3	1	0	3	0
43	920	0	10000	3	1	0	3	0
44	920	0	10000	3	1	0	3	0
44	921	0	10000	3	1	0	3	0
45	923	0	10000	3	1	0	3	0
47	924	0	10000	3	1	0	3	0
49	925	0	10000	3	1	0	3	0
50	926	0	10000	3	1	0	3	0
50	927	0	10000	3	1	0	3	0
54	928	0	10000	3	1	0	3	0
60	929	0	10000	3	1	0	3	0
63	930	0	10000	3	1	0	3	0
64	930	0	10000	3	1	0	3	0
63	931	0	10000	3	1	0	3	0
63	933	0	10000	3	1	0	3	0
63	934	0	10000	3	1	0	3	0
66	935	0	10000	3	1	0	3	0
71	936	0	10000	3	1	0	3	0
73	937	0	10000	3	1	0	3	0
71	938	0	10000	3	1	0	3	0
68	939	0	10000	3	1	0	3	0
68	940	0	10000	3	1	0	3	0
70	940	0	10000	3	1	0	3	0
73	941	0	10000	3	1	0	3	0
70	943	0	10000	3	1	0	3	0
67	944	0	10000	3	1	0	3	0
65	945	0	10000	3	1	0	3	0
63	946	0	10000	3	1	0	3	0
64	947	0	10000	3	1	0	3	0
65	948	0	10000	3	1	0	3	0
64	949	0	10000	3	1	0	3	0
61	950	0	10000	3	1	0	3	0
58	950	0	10000	3	1	0	3	0
57	951	0	10000	3	1	0	3	0
56	953	0	10000	3	1	0	3	0
55	954	0	10000	3	1	0	3	0
57	955	0	10000	3	1	0	3	0
58	956	0	10000	3	1	0	3	0
59	957	0	10000	3	1	0	3	0
64	958	0	10000	3	1	0	3	0
64	959	0	10000	3	1	0	3	0
65	960	0	10000	3	1	0	3	0
67	960	0	10000	3	1	0	3	0
66	961	0	10000	3	1	0	3	0
68	963	0	10000	3	1	0	3	0
73	964	0	10000	3	1	0	3	0
75	965	0	10000	3	1	0	3	0
74	966	0	10000	3	1	0	3	0
71	967	0	10000	3	1	0	3	0
71	968	0	10000	3	1	0	3	0
73	969	0	10000	3	1	0	3	0
74	970	0	10000	3	1	0	3	0
77	970	0	10000	3	1	0	3	0
79	971	0	10000	3	1	0	3	0
83	973	0	10000	3	1	0	3	0
82	974	0	10000	3	1	0	3	0
78	975	0	10000	3	1	0	3	0
81	976	0	10000	3	1	0	3	0
85	977	0	10000	3	1	0	3	0
86	978	0	10000	3	1	0	3	0
83	979	0	10000	3	1	0	3	0
80	980	0	10000	3	1	0	3	0
76	980	0	10000	3	1	0	3	0
74	981	0	10000	3	1	0	3	0
73	983	0	10000	3	1	0	3	0
75	984	0	10000	3	1	0	3	0
76	985	0	10000	3	1	0	3	0
75	986	0	10000	3	1	0	3	0
73	987	0	10000	3	1	0	3	0
71	988	0	10000	3	1	0	3	0
69	989	0	10000	3	1	0	3	0
66	990	0	10000	3	1	0	3	0
64	990	0	10000	3	1	0	3	0
64	991	0	10000	3	1	0	3	0
67	993	0	10000	3	1	0	3	0
66	994	0	10000	3	1	0	3	0
62	995	0	10000	3	1	0	3	0
60	996	0	10000	3	1	0	3	0
59	997	0	10000	3	1	0	3	0
58	998	0	10000	3	1	0	3	0
61	999	0	10000	3	1	0	3	0
66	1000	0	10000	3	1	0	3	0
70	1000	0	10000	3	1	0	3	0
74	1001	0	10000	3	1	0	3	0
28	2	7	10000	4	1	0	4	0
29	3	7	10000	4	1	0	4	0
30	4	7	10000	4	1	0	4	0
28	5	7	10000	4	1	0	4	0
25	6	7	10000	4	1	0	4	0
24	7	7	10000	4	1	0	4	0
25	8	7	10000	4	1	0	4	0
26	9	7	10000	4	1	0	4	0
26	10	7	10000	4	1	0	4	0
25	11	7	10000	4	1	0	4	0
25	12	7	10000	4	1	0	4	0
24	13	7	10000	4	1	0	4	0
24	14	7	10000	4	1	0	4	0
24	15	7	10000	4	1	0	4	0
25	16	7	10000	4	1	0	4	0
26	17	7	10000	4	1	0	4	0
26	18	7	10000	4	1	0	4	0
26	19	7	10000	4	1	0	4	0
26	20	7	10000	4	1	0	4	0
25	21	7	10000	4	1	0	4	0
24	22	7	10000	4	1	0	4	0
24	23	7	10000	4	1	0	4	0
23	24	7	10000	4	1	0	4	0
23	25	7	10000	4	1	0	4	0
21	26	7	10000	4	1	0	4	0
22	27	7	10000	4	1	0	4	0
21	28	7	10000	4	1	0	4	0
22	29	7	10000	4	1	0	4	0
23	30	7	10000	4	1	0	4	0
23	31	7	10000	4	1	0	4	0
23	32	7	10000	4	1	0	4	0
23	33	7	10000	4	1	0	4	0
22	34	7	10000	4	1	0	4	0
22	35	7	10000	4	1	0	4	0
24	36	7	10000	4	1	0	4	0
23	37	7	10000	4	1	0	4	0
23	38	7	10000	4	1	0	4	0
23	39	7	10000	4	1	0	4	0
24	40	7	10000	4	1	0	4	0
23	41	7	10000	4	1	0	4	0
23	42	7	10000	4	1	0	4	0
25	43	7	10000	4	1	0	4	0
24	44	7	10000	4	1	0	4	0
24	45	7	10000	4	1	0	4	0
22	46	7	10000	4	1	0	4	0
21	47	7	10000	4	1	0	4	0
22	48	7	10000	4	1	0	4	0
23	49	7	10000	4	1	0	4	0
23	50	7	10000	4	1	0	4	0
23	51	7	10000	4	1	0	4	0
23	52	7	10000	4	1	0	4	0
23	53	7	10000	4	1	0	4	0
22	54	7	10000	4	1	0	4	0
22	55	7	10000	4	1	0	4	0
24	56	7	10000	4	1	0	4	0
23	57	7	10000	4	1	0	4	0
22	58	7	10000	4	1	0	4	0
22	59	7	10000	4	1	0	4	0
21	60	7	10000	4	1	0	4	0
20	61	7	10000	4	1	0	4	0
19	62	7	10000	4	1	0	4	0
20	63	7	10000	4	1	0	4	0
20	64	7	10000	4	1	0	4	0
19	65	7	10000	4	1	0	4	0
18	66	7	10000	4	1	0	4	0
18	67	7	10000	4	1	0	4	0
17	68	7	10000	4	1	0	4	0
18	69	7	10000	4	1	0	4	0
21	70	7	10000	4	1	0	4	0
23	71	7	10000	4	1	0	4	0
26	72	7	10000	4	1	0	4	0
25	73	7	10000	4	1	0	4	0
26	74	7	10000	4	1	0	4	0
26	75	7	10000	4	1	0	4	0
26	76	7	10000	4	1	0	4	0
25	77	7	10000	4	1	0	4	0
24	78	7	10000	4	1	0	4	0
24	79	7	10000	4	1	0	4	0
26	80	7	10000	4	1	0	4	0
28	81	7	10000	4	1	0	4	0
30	82	7	10000	4	1	0	4	0
31	83	7	10000	4	1	0	4	0
33	84	7	10000	4	1	0	4	0
36	85	7	10000	4	1	0	4	0
37	86	7	10000	4	1	0	4	0
38	87	7	10000	4	1	0	4	0
38	88	7	10000	4	1	0	4	0
39	89	7	10000	4	1	0	4	0
39	90	7	10000	4	1	0	4	0
38	91	7	10000	4	1	0	4	0
36	92	7	10000	4	1	0	4	0
34	93	7	10000	4	1	0	4	0
34	94	7	10000	4	1	0	4	0
34	95	7	10000	4	1	0	4	0
37	96	7	10000	4	1	0	4	0
40	97	7	10000	4	1	0	4	0
44	98	7	10000	4	1	0	4	0
47	99	7	10000	4	1	0	4	0
51	100	7	10000	4	1	0	4	0
54	101	7	10000	4	1	0	4	0
55	102	7	10000	4	1	0	4	0
55	103	7	10000	4	1	0	4	0
53	104	7	10000	4	1	0	4	0
52	105	7	10000	4	1	0	4	0
47	106	7	10000	4	1	0	4	0
45	107	7	10000	4	1	0	4	0
44	108	7	10000	4	1	0	4	0
42	109	7	10000	4	1	0	4	0
41	110	7	10000	4	1	0	4	0
39	111	7	10000	4	1	0	4	0
38	112	7	10000	4	1	0	4	0
37	113	7	10000	4	1	0	4	0
36	114	7	10000	4	1	0	4	0
35	115	7	10000	4	1	0	4	0
36	116	7	10000	4	1	0	4	0
36	117	7	10000	4	1	0	4	0
36	118	7	10000	4	1	0	4	0
37	119	7	10000	4	1	0	4	0
38	120	7	10000	4	1	0	4	0
38	121	7	10000	4	1	0	4	0
37	122	7	10000	4	1	0	4	0
39	123	7	10000	4	1	0	4	0
39	124	7	10000	4	1	0	4	0
40	125	7	10000	4	1	0	4	0
40	126	7	10000	4	1	0	4	0
42	127	7	10000	4	1	0	4	0
41	128	7	10000	4	1	0	4	0
40	129	7	10000	4	1	0	4	0
41	130	7	10000	4	1	0	4	0
41	131	7	10000	4	1	0	4	0
43	132	7	10000	4	1	0	4	0
43	133	7	10000	4	1	0	4	0
44	134	7	10000	4	1	0	4	0
44	135	7	10000	4	1	0	4	0
46	136	7	10000	4	1	0	4	0
47	137	7	10000	4	1	0	4	0
48	138	7	10000	4	1	0	4	0
49	139	7	10000	4	1	0	4	0
51	140	7	10000	4	1	0	4	0
53	141	7	10000	4	1	0	4	0
53	142	7	10000	4	1	0	4	0
55	143	7	10000	4	1	0	4	0
55	144	7	10000	4	1	0	4	0
54	145	7	10000	4	1	0	4	0
50	146	7	10000	4	1	0	4	0
50	147	7	10000	4	1	0	4	0
51	148	7	10000	4	1	0	4	0
51	149	7	10000	4	1	0	4	0
51	150	7	10000	4	1	0	4	0
51	151	7	10000	4	1	0	4	0
50	152	7	10000	4	1	0	4	0
49	153	7	10000	4	1	0	4	0
47	154	7	10000	4	1	0	4	0
45	155	7	10000	4	1	0	4	0
46	156	7	10000	4	1	0	4	0
43	157	7	10000	4	1	0	4	0
41	158	7	10000	4	1	0	4	0
39	159	7	10000	4	1	0	4	0
37	160	7	10000	4	1	0	4	0
35	161	7	10000	4	1	0	4	0
35	162	7	10000	4	1	0	4	0
35	163	7	10000	4	1	0	4	0
34	164	7	10000	4	1	0	4	0
33	165	7	10000	4	1	0	4	0
30	166	7	10000	4	1	0	4	0
29	167	7	10000	4	1	0	4	0
28	168	7	10000	4	1	0	4	0
29	169	7	10000	4	1	0	4	0
28	170	7	10000	4	1	0	4	0
28	171	7	10000	4	1	0	4	0
28	172	7	10000	4	1	0	4	0
27	173	7	10000	4	1	0	4	0
25	174	7	10000	4	1	0	4	0
24	175	7	10000	4	1	0	4	0
26	176	7	10000	4	1	0	4	0
25	177	7	10000	4	1	0	4	0
24	178	7	10000	4	1	0	4	0
23	179	7	10000	4	1	0	4	0
23	180	7	10000	4	1	0	4	0
22	181	7	10000	4	1	0	4	0
22	182	7	10000	4	1	0	4	0
21	183	7	10000	4	1	0	4	0
21	184	7	10000	4	1	0	4	0
23	185	7	10000	4	1	0	4	0
20	186	7	10000	4	1	0	4	0
20	187	7	10000	4	1	0	4	0
20	188	7	10000	4	1	0	4	0
19	189	7	10000	4	1	0	4	0
18	190	7	10000	4	1	0	4	0
17	191	7	10000	4	1	0	4	0
18	192	7	10000	4	1	0	4	0
17	193	7	10000	4	1	0	4	0
16	194	7	10000	4	1	0	4	0
17	195	7	10000	4	1	0	4	0
19	196	7	10000	4	1	0	4	0
18	197	7	10000	4	1	0	4	0
19	198	7	10000	4	1	0	4	0
18	199	7	10000	4	1	0	4	0
18	200	7	10000	4	1	0	4	0
19	201	7	10000	4	1	0	4	0
18	202	7	10000	4	1	0	4	0
18	203	7	10000	4	1	0	4	0
18	204	7	10000	4	1	0	4	0
18	205	7	10000	4	1	0	4	0
16	206	7	10000	4	1	0	4	0
16	207	7	10000	4	1	0	4	0
18	208	7	10000	4	1	0	4	0
18	209	7	10000	4	1	0	4	0
19	210	7	10000	4	1	0	4	0
20	211	7	10000	4	1	0	4	0
20	212	7	10000	4	1	0	4	0
19	213	7	10000	4	1	0	4	0
19	214	7	10000	4	1	0	4	0
18	215	7	10000	4	1	0	4	0
20	216	7	10000	4	1	0	4	0
19	217	7	10000	4	1	0	4	0
18	218	7	10000	4	1	0	4	0
17	219	7	10000	4	1	0	4	0
16	220	7	10000	4	1	0	4	0
16	221	7	10000	4	1	0	4	0
15	222	7	10000	4	1	0	4	0
15	223	7	10000	4	1	0	4	0
16	224	7	10000	4	1	0	4	0
18	225	7	10000	4	1	0	4	0
19	226	7	10000	4	1	0	4	0
21	227	7	10000	4	1	0	4	0
22	228	7	10000	4	1	0	4	0
21	229	7	10000	4	1	0	4	0
22	230	7	10000	4	1	0	4	0
25	231	7	10000	4	1	0	4	0
27	232	7	10000	4	1	0	4	0
26	233	7	10000	4	1	0	4	0
26	234	7	10000	4	1	0	4	0
26	235	7	10000	4	1	0	4	0
28	236	7	10000	4	1	0	4	0
28	237	7	10000	4	1	0	4	0
28	238	7	10000	4	1	0	4	0
27	239	7	10000	4	1	0	4	0
27	240	7	10000	4	1	0	4	0
26	241	7	10000	4	1	0	4	0
25	242	7	10000	4	1	0	4	0
25	243	7	10000	4	1	0	4	0
25	244	7	10000	4	1	0	4	0
25	245	7	10000	4	1	0	4	0
22	246	7	10000	4	1	0	4	0
22	247	7	10000	4	1	0	4	0
22	248	7	10000	4	1	0	4	0
22	249	7	10000	4	1	0	4	0
21	250	7	10000	4	1	0	4	0
21	251	7	10000	4	1	0	4	0
21	252	7	10000	4	1	0	4	0
21	253	7	10000	4	1	0	4	0
22	254	7	10000	4	1	0	4	0
24	255	7	10000	4	1	0	4	0
26	256	7	10000	4	1	0	4	0
24	257	7	10000	4	1	0	4	0
23	258	7	10000	4	1	0	4	0
21	259	7	10000	4	1	0	4	0
21	260	7	10000	4	1	0	4	0
21	261	7	10000	4	1	0	4	0
20	262	7	10000	4	1	0	4	0
21	263	7	10000	4	1	0	4	0
24	264	7	10000	4	1	0	4	0
28	265	7	10000	4	1	0	4	0
29	266	7	10000	4	1	0	4	0
31	267	7	10000	4	1	0	4	0
33	268	7	10000	4	1	0	4	0
34	269	7	10000	4	1	0	4	0
35	270	7	10000	4	1	0	4	0
38	271	7	10000	4	1	0	4	0
39	272	7	10000	4	1	0	4	0
38	273	7	10000	4	1	0	4	0
39	274	7	10000	4	1	0	4	0
40	275	7	10000	4	1	0	4	0
44	276	7	10000	4	1	0	4	0
46	277	7	10000	4	1	0	4	0
50	278	7	10000	4	1	0	4	0
51	279	7	10000	4	1	0	4	0
50	280	7	10000	4	1	0	4	0
50	281	7	10000	4	1	0	4	0
51	282	7	10000	4	1	0	4	0
53	283	7	10000	4	1	0	4	0
59	284	7	10000	4	1	0	4	0
74	285	7	10000	4	1	0	4	0
82	286	7	10000	4	1	0	4	0
82	287	7	10000	4	1	0	4	0
82	288	7	10000	4	1	0	4	0
81	289	7	10000	4	1	0	4	0
78	290	7	10000	4	1	0	4	0
75	291	7	10000	4	1	0	4	0
73	292	7	10000	4	1	0	4	0
69	293	7	10000	4	1	0	4	0
70	294	7	10000	4	1	0	4	0
88	295	7	10000	4	1	0	4	0
107	296	7	10000	4	1	0	4	0
112	297	7	10000	4	1	0	4	0
109	298	7	10000	4	1	0	4	0
105	299	7	10000	4	1	0	4	0
102	300	7	10000	4	1	0	4	0
102	301	7	10000	4	1	0	4	0
100	302	7	10000	4	1	0	4	0
117	303	7	10000	4	1	0	4	0
143	304	7	10000	4	1	0	4	0
158	305	7	10000	4	1	0	4	0
153	306	7	10000	4	1	0	4	0
152	307	7	10000	4	1	0	4	0
151	308	7	10000	4	1	0	4	0
149	309	7	10000	4	1	0	4	0
146	310	7	10000	4	1	0	4	0
146	311	7	10000	4	1	0	4	0
144	312	7	10000	4	1	0	4	0
144	313	7	10000	4	1	0	4	0
145	314	7	10000	4	1	0	4	0
143	315	7	10000	4	1	0	4	0
139	316	7	10000	4	1	0	4	0
133	317	7	10000	4	1	0	4	0
128	318	7	10000	4	1	0	4	0
126	319	7	10000	4	1	0	4	0
129	320	7	10000	4	1	0	4	0
143	321	7	10000	4	1	0	4	0
148	322	7	10000	4	1	0	4	0
143	323	7	10000	4	1	0	4	0
140	324	7	10000	4	1	0	4	0
134	325	7	10000	4	1	0	4	0
132	326	7	10000	4	1	0	4	0
134	327	7	10000	4	1	0	4	0
133	328	7	10000	4	1	0	4	0
129	329	7	10000	4	1	0	4	0
124	330	7	10000	4	1	0	4	0
123	331	7	10000	4	1	0	4	0
123	332	7	10000	4	1	0	4	0
124	333	7	10000	4	1	0	4	0
121	334	7	10000	4	1	0	4	0
116	335	7	10000	4	1	0	4	0
115	336	7	10000	4	1	0	4	0
115	337	7	10000	4	1	0	4	0
113	338	7	10000	4	1	0	4	0
114	339	7	10000	4	1	0	4	0
117	340	7	10000	4	1	0	4	0
116	341	7	10000	4	1	0	4	0
114	342	7	10000	4	1	0	4	0
112	343	7	10000	4	1	0	4	0
112	344	7	10000	4	1	0	4	0
113	345	7	10000	4	1	0	4	0
115	346	7	10000	4	1	0	4	0
119	347	7	10000	4	1	0	4	0
120	348	7	10000	4	1	0	4	0
119	349	7	10000	4	1	0	4	0
118	350	7	10000	4	1	0	4	0
119	351	7	10000	4	1	0	4	0
120	352	7	10000	4	1	0	4	0
120	353	7	10000	4	1	0	4	0
120	354	7	10000	4	1	0	4	0
121	355	7	10000	4	1	0	4	0
126	356	7	10000	4	1	0	4	0
129	357	7	10000	4	1	0	4	0
130	358	7	10000	4	1	0	4	0
131	359	7	10000	4	1	0	4	0
131	360	7	10000	4	1	0	4	0
130	361	7	10000	4	1	0	4	0
130	362	7	10000	4	1	0	4	0
130	363	7	10000	4	1	0	4	0
130	364	7	10000	4	1	0	4	0
130	365	7	10000	4	1	0	4	0
128	366	7	10000	4	1	0	4	0
129	367	7	10000	4	1	0	4	0
131	368	7	10000	4	1	0	4	0
134	369	7	10000	4	1	0	4	0
135	370	7	10000	4	1	0	4	0
136	371	7	10000	4	1	0	4	0
137	372	7	10000	4	1	0	4	0
136	373	7	10000	4	1	0	4	0
135	374	7	10000	4	1	0	4	0
133	375	7	10000	4	1	0	4	0
134	376	7	10000	4	1	0	4	0
134	377	7	10000	4	1	0	4	0
136	378	7	10000	4	1	0	4	0
138	379	7	10000	4	1	0	4	0
140	380	7	10000	4	1	0	4	0
144	381	7	10000	4	1	0	4	0
149	382	7	10000	4	1	0	4	0
151	383	7	10000	4	1	0	4	0
152	384	7	10000	4	1	0	4	0
153	385	7	10000	4	1	0	4	0
151	386	7	10000	4	1	0	4	0
150	387	7	10000	4	1	0	4	0
150	388	7	10000	4	1	0	4	0
150	389	7	10000	4	1	0	4	0
149	390	7	10000	4	1	0	4	0
147	391	7	10000	4	1	0	4	0
145	392	7	10000	4	1	0	4	0
142	393	7	10000	4	1	0	4	0
140	394	7	10000	4	1	0	4	0
139	395	7	10000	4	1	0	4	0
140	396	7	10000	4	1	0	4	0
139	397	7	10000	4	1	0	4	0
139	398	7	10000	4	1	0	4	0
138	399	7	10000	4	1	0	4	0
135	400	7	10000	4	1	0	4	0
132	401	7	10000	4	1	0	4	0
131	402	7	10000	4	1	0	4	0
131	403	7	10000	4	1	0	4	0
130	404	7	10000	4	1	0	4	0
128	405	7	10000	4	1	0	4	0
121	406	7	10000	4	1	0	4	0
117	407	7	10000	4	1	0	4	0
115	408	7	10000	4	1	0	4	0
114	409	7	10000	4	1	0	4	0
112	410	7	10000	4	1	0	4	0
110	411	7	10000	4	1	0	4	0
107	412	7	10000	4	1	0	4	0
102	413	7	10000	4	1	0	4	0
97	414	7	10000	4	1	0	4	0
93	415	7	10000	4	1	0	4	0
91	416	7	10000	4	1	0	4	0
87	417	7	10000	4	1	0	4	0
83	418	7	10000	4	1	0	4	0
80	419	7	10000	4	1	0	4	0
77	420	7	10000	4	1	0	4	0
75	421	7	10000	4	1	0	4	0
73	422	7	10000	4	1	0	4	0
71	423	7	10000	4	1	0	4	0
70	424	7	10000	4	1	0	4	0
69	425	7	10000	4	1	0	4	0
69	426	7	10000	4	1	0	4	0
70	427	7	10000	4	1	0	4	0
70	428	7	10000	4	1	0	4	0
71	429	7	10000	4	1	0	4	0
73	430	7	10000	4	1	0	4	0
75	431	7	10000	4	1	0	4	0
76	432	7	10000	4	1	0	4	0
76	433	7	10000	4	1	0	4	0
76	434	7	10000	4	1	0	4	0
76	435	7	10000	4	1	0	4	0
78	436	7	10000	4	1	0	4	0
79	437	7	10000	4	1	0	4	0
77	438	7	10000	4	1	0	4	0
75	439	7	10000	4	1	0	4	0
73	440	7	10000	4	1	0	4	0
72	441	7	10000	4	1	0	4	0
70	442	7	10000	4	1	0	4	0
70	443	7	10000	4	1	0	4	0
70	444	7	10000	4	1	0	4	0
70	445	7	10000	4	1	0	4	0
68	446	7	10000	4	1	0	4	0
69	447	7	10000	4	1	0	4	0
69	448	7	10000	4	1	0	4	0
69	449	7	10000	4	1	0	4	0
70	450	7	10000	4	1	0	4	0
70	451	7	10000	4	1	0	4	0
72	452	7	10000	4	1	0	4	0
74	453	7	10000	4	1	0	4	0
74	454	7	10000	4	1	0	4	0
75	455	7	10000	4	1	0	4	0
78	456	7	10000	4	1	0	4	0
80	457	7	10000	4	1	0	4	0
80	458	7	10000	4	1	0	4	0
79	459	7	10000	4	1	0	4	0
77	460	7	10000	4	1	0	4	0
76	461	7	10000	4	1	0	4	0
76	462	7	10000	4	1	0	4	0
77	463	7	10000	4	1	0	4	0
77	464	7	10000	4	1	0	4	0
78	465	7	10000	4	1	0	4	0
78	466	7	10000	4	1	0	4	0
76	467	7	10000	4	1	0	4	0
76	468	7	10000	4	1	0	4	0
77	469	7	10000	4	1	0	4	0
76	470	7	10000	4	1	0	4	0
75	471	7	10000	4	1	0	4	0
76	472	7	10000	4	1	0	4	0
77	473	7	10000	4	1	0	4	0
76	474	7	10000	4	1	0	4	0
75	475	7	10000	4	1	0	4	0
76	476	7	10000	4	1	0	4	0
76	477	7	10000	4	1	0	4	0
75	478	7	10000	4	1	0	4	0
75	479	7	10000	4	1	0	4	0
72	480	7	10000	4	1	0	4	0
69	481	7	10000	4	1	0	4	0
67	482	7	10000	4	1	0	4	0
63	483	7	10000	4	1	0	4	0
61	484	7	10000	4	1	0	4	0
60	485	7	10000	4	1	0	4	0
59	486	7	10000	4	1	0	4	0
59	487	7	10000	4	1	0	4	0
61	488	7	10000	4	1	0	4	0
63	489	7	10000	4	1	0	4	0
62	490	7	10000	4	1	0	4	0
63	491	7	10000	4	1	0	4	0
63	492	7	10000	4	1	0	4	0
63	493	7	10000	4	1	0	4	0
64	494	7	10000	4	1	0	4	0
62	495	7	10000	4	1	0	4	0
62	496	7	10000	4	1	0	4	0
62	497	7	10000	4	1	0	4	0
60	498	7	10000	4	1	0	4	0
56	499	7	10000	4	1	0	4	0
54	500	7	10000	4	1	0	4	0
53	501	7	10000	4	1	0	4	0
52	502	7	10000	4	1	0	4	1
50	503	7	10000	4	1	0	4	1
48	504	7	10000	4	1	0	4	1
47	505	7	10000	4	1	0	4	1
44	506	7	10000	4	1	0	4	1
45	507	7	10000	4	1	0	4	1
47	508	7	10000	4	1	0	4	1
47	509	7	10000	4	1	0	4	1
49	510	7	10000	4	1	0	4	1
50	511	7	10000	4	1	0	4	1
49	512	7	10000	4	1	0	4	1
48	513	7	10000	4	1	0	4	1
47	514	7	10000	4	1	0	4	1
45	515	7	10000	4	1	0	4	1
46	516	7	10000	4	1	0	4	1
46	517	7	10000	4	1	0	4	1
45	518	7	10000	4	1	0	4	1
44	519	7	10000	4	1	0	4	1
42	520	7	10000	4	1	0	4	1
42	521	7	10000	4	1	0	4	1
40	522	7	10000	4	1	0	4	1
40	523	7	10000	4	1	0	4	1
41	524	7	10000	4	1	0	4	1
39	525	7	10000	4	1	0	4	1
36	526	7	10000	4	1	0	4	1
35	527	7	10000	4	1	0	4	1
35	528	7	10000	4	1	0	4	1
36	529	7	10000	4	1	0	4	1
35	530	7	10000	4	1	0	4	1
35	531	7	10000	4	1	0	4	1
34	532	7	10000	4	1	0	4	1
32	533	7	10000	4	1	0	4	1
31	534	7	10000	4	1	0	4	1
30	535	7	10000	4	1	0	4	1
31	536	7	10000	4	1	0	4	1
32	537	7	10000	4	1	0	4	1
30	538	7	10000	4	1	0	4	1
29	539	7	10000	4	1	0	4	1
28	540	7	10000	4	1	0	4	1
28	541	7	10000	4	1	0	4	1
27	542	7	10000	4	1	0	4	1
27	543	7	10000	4	1	0	4	1
27	544	7	10000	4	1	0	4	1
25	545	7	10000	4	1	0	4	1
24	546	7	10000	4	1	0	4	1
24	547	7	10000	4	1	0	4	1
25	548	7	10000	4	1	0	4	1
26	549	7	10000	4	1	0	4	1
27	550	7	10000	4	1	0	4	1
27	551	7	10000	4	1	0	4	1
28	552	7	10000	4	1	0	4	0
29	553	7	10000	4	1	0	4	0
29	554	7	10000	4	1	0	4	0
27	555	7	10000	4	1	0	4	0
29	556	7	10000	4	1	0	4	0
28	557	7	10000	4	1	0	4	0
27	558	7	10000	4	1	0	4	0
27	559	7	10000	4	1	0	4	0
26	560	7	10000	4	1	0	4	0
24	561	7	10000	4	1	0	4	0
23	562	7	10000	4	1	0	4	0
24	563	7	10000	4	1	0	4	0
24	564	7	10000	4	1	0	4	0
24	565	7	10000	4	1	0	4	0
22	566	7	10000	4	1	0	4	0
21	567	7	10000	4	1	0	4	0
20	568	7	10000	4	1	0	4	0
21	569	7	10000	4	1	0	4	0
23	570	7	10000	4	1	0	4	0
24	571	7	10000	4	1	0	4	0
27	572	7	10000	4	1	0	4	0
31	573	7	10000	4	1	0	4	0
34	574	7	10000	4	1	0	4	0
40	575	7	10000	4	1	0	4	0
45	576	7	10000	4	1	0	4	0
48	577	7	10000	4	1	0	4	0
46	578	7	10000	4	1	0	4	0
50	579	7	10000	4	1	0	4	0
51	580	7	10000	4	1	0	4	0
54	581	7	10000	4	1	0	4	0
57	582	7	10000	4	1	0	4	0
79	583	7	10000	4	1	0	4	0
86	584	7	10000	4	1	0	4	0
92	585	7	10000	4	1	0	4	0
92	586	7	10000	4	1	0	4	0
120	587	7	10000	4	1	0	4	0
168	588	7	10000	4	1	0	4	0
206	589	7	10000	4	1	0	4	0
235	590	7	10000	4	1	0	4	0
237	591	7	10000	4	1	0	4	0
240	592	7	10000	4	1	0	4	0
236	593	7	10000	4	1	0	4	0
255	594	7	10000	4	1	0	4	0
259	595	7	10000	4	1	0	4	0
278	596	7	10000	4	1	0	4	0
369	597	7	10000	4	1	0	4	0
493	598	7	10000	4	1	0	4	0
575	599	7	10000	4	1	0	4	0
576	600	7	10000	4	1	0	4	0
610	601	7	10000	4	1	0	4	0
649	602	7	10000	4	1	0	4	0
640	603	7	10000	4	1	0	4	0
654	604	7	10000	4	1	0	4	0
666	605	7	10000	4	1	0	4	0
663	606	7	10000	4	1	0	4	0
645	607	7	10000	4	1	0	4	0
633	608	7	10000	4	1	0	4	0
620	609	7	10000	4	1	0	4	0
666	610	7	10000	4	1	0	4	0
776	611	7	10000	4	1	0	4	0
825	612	7	10000	4	1	0	4	0
822	613	7	10000	4	1	0	4	0
861	614	7	10000	4	1	0	4	0
859	615	7	10000	4	1	0	4	0
825	616	7	10000	4	1	0	4	0
804	617	7	10000	4	1	0	4	0
790	618	7	10000	4	1	0	4	0
777	619	7	10000	4	1	0	4	0
774	620	7	10000	4	1	0	4	0
789	621	7	10000	4	1	0	4	0
808	622	7	10000	4	1	0	4	0
828	623	7	10000	4	1	0	4	0
835	624	7	10000	4	1	0	4	0
820	625	7	10000	4	1	0	4	0
801	626	7	10000	4	1	0	4	0
788	627	7	10000	4	1	0	4	0
779	628	7	10000	4	1	0	4	0
776	629	7	10000	4	1	0	4	0
779	630	7	10000	4	1	0	4	0
781	631	7	10000	4	1	0	4	0
788	632	7	10000	4	1	0	4	0
812	633	7	10000	4	1	0	4	0
809	634	7	10000	4	1	0	4	0
787	635	7	10000	4	1	0	4	0
792	636	7	10000	4	1	0	4	0
789	637	7	10000	4	1	0	4	0
769	638	7	10000	4	1	0	4	0
742	639	7	10000	4	1	0	4	0
726	640	7	10000	4	1	0	4	0
699	641	7	10000	4	1	0	4	0
696	642	7	10000	4	1	0	4	0
702	643	7	10000	4	1	0	4	0
700	644	7	10000	4	1	0	4	0
683	645	7	10000	4	1	0	4	0
653	646	7	10000	4	1	0	4	0
626	647	7	10000	4	1	0	4	0
599	648	7	10000	4	1	0	4	0
573	649	7	10000	4	1	0	4	0
549	650	7	10000	4	1	0	4	0
525	651	7	10000	4	1	0	4	0
506	652	7	10000	4	1	0	4	0
486	653	7	10000	4	1	0	4	0
468	654	7	10000	4	1	0	4	0
453	655	7	10000	4	1	0	4	0
441	656	7	10000	4	1	0	4	0
432	657	7	10000	4	1	0	4	0
425	658	7	10000	4	1	0	4	0
422	659	7	10000	4	1	0	4	0
422	660	7	10000	4	1	0	4	0
427	661	7	10000	4	1	0	4	0
436	662	7	10000	4	1	0	4	0
448	663	7	10000	4	1	0	4	0
459	664	7	10000	4	1	0	4	0
471	665	7	10000	4	1	0	4	0
483	666	7	10000	4	1	0	4	0
497	667	7	10000	4	1	0	4	0
512	668	7	10000	4	1	0	4	0
530	669	7	10000	4	1	0	4	0
550	670	7	10000	4	1	0	4	0
572	671	7	10000	4	1	0	4	0
595	672	7	10000	4	1	0	4	0
616	673	7	10000	4	1	0	4	0
635	674	7	10000	4	1	0	4	0
652	675	7	10000	4	1	0	4	0
667	676	7	10000	4	1	0	4	0
677	677	7	10000	4	1	0	4	0
686	678	7	10000	4	1	0	4	0
696	679	7	10000	4	1	0	4	0
706	680	7	10000	4	1	0	4	0
716	681	7	10000	4	1	0	4	0
727	682	7	10000	4	1	0	4	0
740	683	7	10000	4	1	0	4	0
755	684	7	10000	4	1	0	4	0
770	685	7	10000	4	1	0	4	0
781	686	7	10000	4	1	0	4	0
791	687	7	10000	4	1	0	4	0
799	688	7	10000	4	1	0	4	0
805	689	7	10000	4	1	0	4	0
809	690	7	10000	4	1	0	4	0
811	691	7	10000	4	1	0	4	0
812	692	7	10000	4	1	0	4	0
809	693	7	10000	4	1	0	4	0
803	694	7	10000	4	1	0	4	0
793	695	7	10000	4	1	0	4	0
785	696	7	10000	4	1	0	4	0
775	697	7	10000	4	1	0	4	0
762	698	7	10000	4	1	0	4	0
749	699	7	10000	4	1	0	4	0
736	700	7	10000	4	1	0	4	0
725	701	7	10000	4	1	0	4	0
711	702	7	10000	4	1	0	4	0
696	703	7	10000	4	1	0	4	0
682	704	7	10000	4	1	0	4	0
670	705	7	10000	4	1	0	4	0
654	706	7	10000	4	1	0	4	0
638	707	7	10000	4	1	0	4	0
622	708	7	10000	4	1	0	4	0
604	709	7	10000	4	1	0	4	0
583	710	7	10000	4	1	0	4	0
561	711	7	10000	4	1	0	4	0
537	712	7	10000	4	1	0	4	0
513	713	7	10000	4	1	0	4	0
492	714	7	10000	4	1	0	4	0
477	715	7	10000	4	1	0	4	0
465	716	7	10000	4	1	0	4	0
453	717	7	10000	4	1	0	4	0
444	718	7	10000	4	1	0	4	0
435	719	7	10000	4	1	0	4	0
426	720	7	10000	4	1	0	4	0
417	721	7	10000	4	1	0	4	0
407	722	7	10000	4	1	0	4	0
399	723	7	10000	4	1	0	4	0
392	724	7	10000	4	1	0	4	0
384	725	7	10000	4	1	0	4	0
375	726	7	10000	4	1	0	4	0
370	727	7	10000	4	1	0	4	0
367	728	7	10000	4	1	0	4	0
362	729	7	10000	4	1	0	4	0
356	730	7	10000	4	1	0	4	0
348	731	7	10000	4	1	0	4	0
345	732	7	10000	4	1	0	4	0
343	733	7	10000	4	1	0	4	0
345	734	7	10000	4	1	0	4	0
345	735	7	10000	4	1	0	4	0
348	736	7	10000	4	1	0	4	0
350	737	7	10000	4	1	0	4	0
350	738	7	10000	4	1	0	4	0
349	739	7	10000	4	1	0	4	0
347	740	7	10000	4	1	0	4	0
345	741	7	10000	4	1	0	4	0
340	742	7	10000	4	1	0	4	0
338	743	7	10000	4	1	0	4	0
337	744	7	10000	4	1	0	4	0
335	745	7	10000	4	1	0	4	0
330	746	7	10000	4	1	0	4	0
327	747	7	10000	4	1	0	4	0
322	748	7	10000	4	1	0	4	0
319	749	7	10000	4	1	0	4	0
316	750	7	10000	4	1	0	4	0
315	751	7	10000	4	1	0	4	0
313	752	7	10000	4	1	0	4	0
313	753	7	10000	4	1	0	4	0
313	754	7	10000	4	1	0	4	0
312	755	7	10000	4	1	0	4	0
313	756	7	10000	4	1	0	4	0
312	757	7	10000	4	1	0	4	0
311	758	7	10000	4	1	0	4	0
309	759	7	10000	4	1	0	4	0
308	760	7	10000	4	1	0	4	0
303	761	7	10000	4	1	0	4	0
298	762	7	10000	4	1	0	4	0
293	763	7	10000	4	1	0	4	0
287	764	7	10000	4	1	0	4	0
280	765	7	10000	4	1	0	4	0
272	766	7	10000	4	1	0	4	0
264	767	7	10000	4	1	0	4	0
257	768	7	10000	4	1	0	4	0
250	769	7	10000	4	1	0	4	0
244	770	7	10000	4	1	0	4	0
237	771	7	10000	4	1	0	4	0
231	772	7	10000	4	1	0	4	0
228	773	7	10000	4	1	0	4	0
223	774	7	10000	4	1	0	4	0
217	775	7	10000	4	1	0	4	0
214	776	7	10000	4	1	0	4	0
214	777	7	10000	4	1	0	4	0
216	778	7	10000	4	1	0	4	0
218	779	7	10000	4	1	0	4	0
219	780	7	10000	4	1	0	4	0
216	781	7	10000	4	1	0	4	0
213	782	7	10000	4	1	0	4	0
213	783	7	10000	4	1	0	4	0
214	784	7	10000	4	1	0	4	0
215	785	7	10000	4	1	0	4	0
210	786	7	10000	4	1	0	4	0
204	787	7	10000	4	1	0	4	0
198	788	7	10000	4	1	0	4	0
192	789	7	10000	4	1	0	4	0
183	790	7	10000	4	1	0	4	0
176	791	7	10000	4	1	0	4	0
169	792	7	10000	4	1	0	4	0
164	793	7	10000	4	1	0	4	0
160	794	7	10000	4	1	0	4	0
153	795	7	10000	4	1	0	4	0
148	796	7	10000	4	1	0	4	0
143	797	7	10000	4	1	0	4	0
142	798	7	10000	4	1	0	4	0
145	799	7	10000	4	1	0	4	0
147	800	7	10000	4	1	0	4	0
145	801	7	10000	4	1	0	4	0
146	802	7	10000	4	1	0	4	0
146	803	7	10000	4	1	0	4	0
145	804	7	10000	4	1	0	4	0
146	805	7	10000	4	1	0	4	0
142	806	7	10000	4	1	0	4	0
137	807	7	10000	4	1	0	4	0
131	808	7	10000	4	1	0	4	0
126	809	7	10000	4	1	0	4	0
121	810	7	10000	4	1	0	4	0
115	811	7	10000	4	1	0	4	0
111	812	7	10000	4	1	0	4	0
106	813	7	10000	4	1	0	4	0
101	814	7	10000	4	1	0	4	0
97	815	7	10000	4	1	0	4	0
97	816	7	10000	4	1	0	4	0
99	817	7	10000	4	1	0	4	0
102	818	7	10000	4	1	0	4	0
102	819	7	10000	4	1	0	4	0
100	820	7	10000	4	1	0	4	0
96	821	7	10000	4	1	0	4	0
93	822	7	10000	4	1	0	4	0
90	823	7	10000	4	1	0	4	0
86	824	7	10000	4	1	0	4	0
83	825	7	10000	4	1	0	4	0
79	826	7	10000	4	1	0	4	0
76	827	7	10000	4	1	0	4	0
73	828	7	10000	4	1	0	4	0
73	829	7	10000	4	1	0	4	0
73	830	7	10000	4	1	0	4	0
72	831	7	10000	4	1	0	4	0
71	832	7	10000	4	1	0	4	0
69	833	7	10000	4	1	0	4	0
67	834	7	10000	4	1	0	4	0
67	835	7	10000	4	1	0	4	0
70	836	7	10000	4	1	0	4	0
73	837	7	10000	4	1	0	4	0
74	838	7	10000	4	1	0	4	0
74	839	7	10000	4	1	0	4	0
75	840	7	10000	4	1	0	4	0
77	841	7	10000	4	1	0	4	0
79	842	7	10000	4	1	0	4	0
80	843	7	10000	4	1	0	4	0
79	844	7	10000	4	1	0	4	0
77	845	7	10000	4	1	0	4	0
75	846	7	10000	4	1	0	4	0
75	847	7	10000	4	1	0	4	0
75	848	7	10000	4	1	0	4	0
73	849	7	10000	4	1	0	4	0
71	850	7	10000	4	1	0	4	0
71	851	7	10000	4	1	0	4	0
72	852	7	10000	4	1	0	4	0
71	853	7	10000	4	1	0	4	0
70	854	7	10000	4	1	0	4	0
67	855	7	10000	4	1	0	4	0
66	856	7	10000	4	1	0	4	0
66	857	7	10000	4	1	0	4	0
62	858	7	10000	4	1	0	4	0
59	859	7	10000	4	1	0	4	0
57	860	7	10000	4	1	0	4	0
55	861	7	10000	4	1	0	4	0
56	862	7	10000	4	1	0	4	0
59	863	7	10000	4	1	0	4	0
59	864	7	10000	4	1	0	4	0
58	865	7	10000	4	1	0	4	0
55	866	7	10000	4	1	0	4	0
55	867	7	10000	4	1	0	4	0
55	868	7	10000	4	1	0	4	0
53	869	7	10000	4	1	0	4	0
52	870	7	10000	4	1	0	4	0
52	871	7	10000	4	1	0	4	0
52	872	7	10000	4	1	0	4	0
50	873	7	10000	4	1	0	4	0
52	874	7	10000	4	1	0	4	0
56	875	7	10000	4	1	0	4	0
59	876	7	10000	4	1	0	4	0
61	877	7	10000	4	1	0	4	0
60	878	7	10000	4	1	0	4	0
59	879	7	10000	4	1	0	4	0
57	880	7	10000	4	1	0	4	0
55	881	7	10000	4	1	0	4	0
53	882	7	10000	4	1	0	4	0
54	883	7	10000	4	1	0	4	0
52	884	7	10000	4	1	0	4	0
51	885	7	10000	4	1	0	4	0
51	886	7	10000	4	1	0	4	0
51	887	7	10000	4	1	0	4	0
51	888	7	10000	4	1	0	4	0
52	889	7	10000	4	1	0	4	0
54	890	7	10000	4	1	0	4	0
59	891	7	10000	4	1	0	4	0
70	892	7	10000	4	1	0	4	0
78	893	7	10000	4	1	0	4	0
76	894	7	10000	4	1	0	4	0
78	895	7	10000	4	1	0	4	0
86	896	7	10000	4	1	0	4	0
92	897	7	10000	4	1	0	4	0
95	898	7	10000	4	1	0	4	0
96	899	7	10000	4	1	0	4	0
93	900	7	10000	4	1	0	4	0
92	901	7	10000	4	1	0	4	0
89	902	7	10000	4	1	0	4	0
85	903	7	10000	4	1	0	4	0
81	904	7	10000	4	1	0	4	0
79	905	7	10000	4	1	0	4	0
76	906	7	10000	4	1	0	4	0
72	907	7	10000	4	1	0	4	0
71	908	7	10000	4	1	0	4	0
70	909	7	10000	4	1	0	4	0
68	910	7	10000	4	1	0	4	0
66	911	7	10000	4	1	0	4	0
65	912	7	10000	4	1	0	4	0
61	913	7	10000	4	1	0	4	0
59	914	7	10000	4	1	0	4	0
57	915	7	10000	4	1	0	4	0
58	916	7	10000	4	1	0	4	0
59	917	7	10000	4	1	0	4	0
60	918	7	10000	4	1	0	4	0
65	919	7	10000	4	1	0	4	0
70	920	7	10000	4	1	0	4	0
69	921	7	10000	4	1	0	4	0
68	922	7	10000	4	1	0	4	0
67	923	7	10000	4	1	0	4	0
66	924	7	10000	4	1	0	4	0
65	925	7	10000	4	1	0	4	0
60	926	7	10000	4	1	0	4	0
58	927	7	10000	4	1	0	4	0
57	928	7	10000	4	1	0	4	0
56	929	7	10000	4	1	0	4	0
56	930	7	10000	4	1	0	4	0
55	931	7	10000	4	1	0	4	0
54	932	7	10000	4	1	0	4	0
52	933	7	10000	4	1	0	4	0
50	934	7	10000	4	1	0	4	0
50	935	7	10000	4	1	0	4	0
50	936	7	10000	4	1	0	4	0
49	937	7	10000	4	1	0	4	0
48	938	7	10000	4	1	0	4	0
46	939	7	10000	4	1	0	4	0
44	940	7	10000	4	1	0	4	0
44	941	7	10000	4	1	0	4	0
43	942	7	10000	4	1	0	4	0
44	943	7	10000	4	1	0	4	0
44	944	7	10000	4	1	0	4	0
43	945	7	10000	4	1	0	4	0
43	946	7	10000	4	1	0	4	0
43	947	7	10000	4	1	0	4	0
44	948	7	10000	4	1	0	4	0
44	949	7	10000	4	1	0	4	0
42	950	7	10000	4	1	0	4	0
41	951	7	10000	4	1	0	4	0
41	952	7	10000	4	1	0	4	0
39	953	7	10000	4	1	0	4	0
40	954	7	10000	4	1	0	4	0
39	955	7	10000	4	1	0	4	0
40	956	7	10000	4	1	0	4	0
40	957	7	10000	4	1	0	4	0
37	958	7	10000	4	1	0	4	0
37	959	7	10000	4	1	0	4	0
37	960	7	10000	4	1	0	4	0
39	961	7	10000	4	1	0	4	0
44	962	7	10000	4	1	0	4	0
45	963	7	10000	4	1	0	4	0
45	964	7	10000	4	1	0	4	0
43	965	7	10000	4	1	0	4	0
41	966	7	10000	4	1	0	4	0
39	967	7	10000	4	1	0	4	0
40	968	7	10000	4	1	0	4	0
41	969	7	10000	4	1	0	4	0
41	970	7	10000	4	1	0	4	0
40	971	7	10000	4	1	0	4	0
44	972	7	10000	4	1	0	4	0
47	973	7	10000	4	1	0	4	0
50	974	7	10000	4	1	0	4	0
52	975	7	10000	4	1	0	4	0
52	976	7	10000	4	1	0	4	0
51	977	7	10000	4	1	0	4	0
49	978	7	10000	4	1	0	4	0
49	979	7	10000	4	1	0	4	0
48	980	7	10000	4	1	0	4	0
46	981	7	10000	4	1	0	4	0
45	982	7	10000	4	1	0	4	0
44	983	7	10000	4	1	0	4	0
43	984	7	10000	4	1	0	4	0
43	985	7	10000	4	1	0	4	0
41	986	7	10000	4	1	0	4	0
42	987	7	10000	4	1	0	4	0
43	988	7	10000	4	1	0	4	0
43	989	7	10000	4	1	0	4	0
42	990	7	10000	4	1	0	4	0
44	991	7	10000	4	1	0	4	0
45	992	7	10000	4	1	0	4	0
44	993	7	10000	4	1	0	4	0
43	994	7	10000	4	1	0	4	0
43	995	7	10000	4	1	0	4	0
44	996	7	10000	4	1	0	4	0
45	997	7	10000	4	1	0	4	0
44	998	7	10000	4	1	0	4	0
43	999	7	10000	4	1	0	4	0
42	1000	7	10000	4	1	0	4	0
45	1001	7	10000	4	1	0	4	0
16	2	0	10000	5	1	0	5	0
16	3	0	10000	5	1	0	5	0
15	4	0	10000	5	1	0	5	0
14	5	0	10000	5	1	0	5	0
14	6	0	10000	5	1	0	5	0
15	7	0	10000	5	1	0	5	0
15	8	0	10000	5	1	0	5	0
14	9	0	10000	5	1	0	5	0
14	10	0	10000	5	1	0	5	0
14	11	0	10000	5	1	0	5	0
13	12	0	10000	5	1	0	5	0
12	13	0	10000	5	1	0	5	0
13	14	0	10000	5	1	0	5	0
16	15	0	10000	5	1	0	5	0
19	16	0	10000	5	1	0	5	0
18	17	0	10000	5	1	0	5	0
17	18	0	10000	5	1	0	5	0
17	19	0	10000	5	1	0	5	0
17	20	0	10000	5	1	0	5	0
17	21	0	10000	5	1	0	5	0
16	22	0	10000	5	1	0	5	0
16	23	0	10000	5	1	0	5	0
17	24	0	10000	5	1	0	5	0
17	25	0	10000	5	1	0	5	0
16	26	0	10000	5	1	0	5	0
19	27	0	10000	5	1	0	5	0
19	28	0	10000	5	1	0	5	0
20	29	0	10000	5	1	0	5	0
20	30	0	10000	5	1	0	5	0
20	31	0	10000	5	1	0	5	0
20	32	0	10000	5	1	0	5	0
20	33	0	10000	5	1	0	5	0
21	34	0	10000	5	1	0	5	0
21	35	0	10000	5	1	0	5	0
20	36	0	10000	5	1	0	5	0
19	37	0	10000	5	1	0	5	0
18	38	0	10000	5	1	0	5	0
18	39	0	10000	5	1	0	5	0
18	40	0	10000	5	1	0	5	0
17	41	0	10000	5	1	0	5	0
17	42	0	10000	5	1	0	5	0
17	43	0	10000	5	1	0	5	0
16	44	0	10000	5	1	0	5	0
15	45	0	10000	5	1	0	5	0
15	46	0	10000	5	1	0	5	0
16	47	0	10000	5	1	0	5	0
16	48	0	10000	5	1	0	5	0
16	49	0	10000	5	1	0	5	0
17	50	0	10000	5	1	0	5	0
16	51	0	10000	5	1	0	5	0
16	52	0	10000	5	1	0	5	0
15	53	0	10000	5	1	0	5	0
15	54	0	10000	5	1	0	5	0
16	55	0	10000	5	1	0	5	0
16	56	0	10000	5	1	0	5	0
14	57	0	10000	5	1	0	5	0
13	58	0	10000	5	1	0	5	0
14	59	0	10000	5	1	0	5	0
13	60	0	10000	5	1	0	5	0
13	61	0	10000	5	1	0	5	0
13	62	0	10000	5	1	0	5	0
13	63	0	10000	5	1	0	5	0
12	64	0	10000	5	1	0	5	0
12	65	0	10000	5	1	0	5	0
13	66	0	10000	5	1	0	5	0
14	67	0	10000	5	1	0	5	0
14	68	0	10000	5	1	0	5	0
13	69	0	10000	5	1	0	5	0
13	70	0	10000	5	1	0	5	0
13	71	0	10000	5	1	0	5	0
14	72	0	10000	5	1	0	5	0
13	73	0	10000	5	1	0	5	0
14	74	0	10000	5	1	0	5	0
16	75	0	10000	5	1	0	5	0
16	76	0	10000	5	1	0	5	0
14	77	0	10000	5	1	0	5	0
13	78	0	10000	5	1	0	5	0
14	79	0	10000	5	1	0	5	0
13	80	0	10000	5	1	0	5	0
13	81	0	10000	5	1	0	5	0
13	82	0	10000	5	1	0	5	0
14	83	0	10000	5	1	0	5	0
13	84	0	10000	5	1	0	5	0
13	85	0	10000	5	1	0	5	0
12	86	0	10000	5	1	0	5	0
14	87	0	10000	5	1	0	5	0
17	88	0	10000	5	1	0	5	0
17	89	0	10000	5	1	0	5	0
17	90	0	10000	5	1	0	5	0
17	91	0	10000	5	1	0	5	0
17	92	0	10000	5	1	0	5	0
15	93	0	10000	5	1	0	5	0
16	94	0	10000	5	1	0	5	0
17	95	0	10000	5	1	0	5	0
20	96	0	10000	5	1	0	5	0
21	97	0	10000	5	1	0	5	0
21	98	0	10000	5	1	0	5	0
21	99	0	10000	5	1	0	5	0
23	100	0	10000	5	1	0	5	0
25	101	0	10000	5	1	0	5	0
24	102	0	10000	5	1	0	5	0
24	103	0	10000	5	1	0	5	0
24	104	0	10000	5	1	0	5	0
24	105	0	10000	5	1	0	5	0
23	106	0	10000	5	1	0	5	0
25	107	0	10000	5	1	0	5	0
25	108	0	10000	5	1	0	5	0
27	109	0	10000	5	1	0	5	0
31	110	0	10000	5	1	0	5	0
32	111	0	10000	5	1	0	5	0
36	112	0	10000	5	1	0	5	0
46	113	0	10000	5	1	0	5	0
55	114	0	10000	5	1	0	5	0
55	115	0	10000	5	1	0	5	0
59	116	0	10000	5	1	0	5	0
72	117	0	10000	5	1	0	5	0
82	118	0	10000	5	1	0	5	0
86	119	0	10000	5	1	0	5	0
86	120	0	10000	5	1	0	5	0
100	121	0	10000	5	1	0	5	0
113	122	0	10000	5	1	0	5	0
115	123	0	10000	5	1	0	5	0
113	124	0	10000	5	1	0	5	0
114	125	0	10000	5	1	0	5	0
112	126	0	10000	5	1	0	5	0
112	127	0	10000	5	1	0	5	0
114	128	0	10000	5	1	0	5	0
114	129	0	10000	5	1	0	5	0
120	130	0	10000	5	1	0	5	0
127	131	0	10000	5	1	0	5	0
126	132	0	10000	5	1	0	5	0
121	133	0	10000	5	1	0	5	0
117	134	0	10000	5	1	0	5	0
112	135	0	10000	5	1	0	5	0
109	136	0	10000	5	1	0	5	0
105	137	0	10000	5	1	0	5	0
104	138	0	10000	5	1	0	5	0
104	139	0	10000	5	1	0	5	0
105	140	0	10000	5	1	0	5	0
109	141	0	10000	5	1	0	5	0
117	142	0	10000	5	1	0	5	0
119	143	0	10000	5	1	0	5	0
114	144	0	10000	5	1	0	5	0
114	145	0	10000	5	1	0	5	0
111	146	0	10000	5	1	0	5	0
109	147	0	10000	5	1	0	5	0
112	148	0	10000	5	1	0	5	0
118	149	0	10000	5	1	0	5	0
123	150	0	10000	5	1	0	5	0
123	151	0	10000	5	1	0	5	0
123	152	0	10000	5	1	0	5	0
129	153	0	10000	5	1	0	5	0
140	154	0	10000	5	1	0	5	0
149	155	0	10000	5	1	0	5	0
155	156	0	10000	5	1	0	5	0
157	157	0	10000	5	1	0	5	0
161	158	0	10000	5	1	0	5	0
167	159	0	10000	5	1	0	5	0
176	160	0	10000	5	1	0	5	0
187	161	0	10000	5	1	0	5	0
194	162	0	10000	5	1	0	5	0
194	163	0	10000	5	1	0	5	0
191	164	0	10000	5	1	0	5	0
192	165	0	10000	5	1	0	5	0
195	166	0	10000	5	1	0	5	0
194	167	0	10000	5	1	0	5	0
190	168	0	10000	5	1	0	5	0
182	169	0	10000	5	1	0	5	0
175	170	0	10000	5	1	0	5	0
166	171	0	10000	5	1	0	5	0
160	172	0	10000	5	1	0	5	0
153	173	0	10000	5	1	0	5	0
150	174	0	10000	5	1	0	5	0
147	175	0	10000	5	1	0	5	0
143	176	0	10000	5	1	0	5	0
140	177	0	10000	5	1	0	5	0
140	178	0	10000	5	1	0	5	0
143	179	0	10000	5	1	0	5	0
147	180	0	10000	5	1	0	5	0
151	181	0	10000	5	1	0	5	0
157	182	0	10000	5	1	0	5	0
161	183	0	10000	5	1	0	5	0
162	184	0	10000	5	1	0	5	0
163	185	0	10000	5	1	0	5	0
162	186	0	10000	5	1	0	5	0
160	187	0	10000	5	1	0	5	0
158	188	0	10000	5	1	0	5	0
155	189	0	10000	5	1	0	5	0
154	190	0	10000	5	1	0	5	0
154	191	0	10000	5	1	0	5	0
158	192	0	10000	5	1	0	5	0
161	193	0	10000	5	1	0	5	0
165	194	0	10000	5	1	0	5	0
170	195	0	10000	5	1	0	5	0
175	196	0	10000	5	1	0	5	0
176	197	0	10000	5	1	0	5	0
178	198	0	10000	5	1	0	5	0
179	199	0	10000	5	1	0	5	0
179	200	0	10000	5	1	0	5	0
179	201	0	10000	5	1	0	5	0
177	202	0	10000	5	1	0	5	0
175	203	0	10000	5	1	0	5	0
173	204	0	10000	5	1	0	5	0
174	205	0	10000	5	1	0	5	0
175	206	0	10000	5	1	0	5	0
178	207	0	10000	5	1	0	5	0
182	208	0	10000	5	1	0	5	0
185	209	0	10000	5	1	0	5	0
190	210	0	10000	5	1	0	5	0
195	211	0	10000	5	1	0	5	0
200	212	0	10000	5	1	0	5	0
202	213	0	10000	5	1	0	5	0
204	214	0	10000	5	1	0	5	0
204	215	0	10000	5	1	0	5	0
203	216	0	10000	5	1	0	5	0
201	217	0	10000	5	1	0	5	0
198	218	0	10000	5	1	0	5	0
196	219	0	10000	5	1	0	5	0
193	220	0	10000	5	1	0	5	0
191	221	0	10000	5	1	0	5	0
189	222	0	10000	5	1	0	5	0
186	223	0	10000	5	1	0	5	0
182	224	0	10000	5	1	0	5	0
178	225	0	10000	5	1	0	5	0
174	226	0	10000	5	1	0	5	0
173	227	0	10000	5	1	0	5	0
172	228	0	10000	5	1	0	5	0
171	229	0	10000	5	1	0	5	0
169	230	0	10000	5	1	0	5	0
164	231	0	10000	5	1	0	5	0
160	232	0	10000	5	1	0	5	0
155	233	0	10000	5	1	0	5	0
150	234	0	10000	5	1	0	5	0
144	235	0	10000	5	1	0	5	0
139	236	0	10000	5	1	0	5	0
132	237	0	10000	5	1	0	5	0
127	238	0	10000	5	1	0	5	0
125	239	0	10000	5	1	0	5	0
120	240	0	10000	5	1	0	5	0
116	241	0	10000	5	1	0	5	0
111	242	0	10000	5	1	0	5	0
106	243	0	10000	5	1	0	5	0
102	244	0	10000	5	1	0	5	0
99	245	0	10000	5	1	0	5	0
97	246	0	10000	5	1	0	5	0
96	247	0	10000	5	1	0	5	0
93	248	0	10000	5	1	0	5	0
91	249	0	10000	5	1	0	5	0
88	250	0	10000	5	1	0	5	0
86	251	0	10000	5	1	0	5	0
83	252	0	10000	5	1	0	5	0
80	253	0	10000	5	1	0	5	0
80	254	0	10000	5	1	0	5	0
79	255	0	10000	5	1	0	5	0
80	256	0	10000	5	1	0	5	0
79	257	0	10000	5	1	0	5	0
79	258	0	10000	5	1	0	5	0
79	259	0	10000	5	1	0	5	0
77	260	0	10000	5	1	0	5	0
75	261	0	10000	5	1	0	5	0
73	262	0	10000	5	1	0	5	0
71	263	0	10000	5	1	0	5	0
69	264	0	10000	5	1	0	5	0
68	265	0	10000	5	1	0	5	0
66	266	0	10000	5	1	0	5	0
66	267	0	10000	5	1	0	5	0
64	268	0	10000	5	1	0	5	0
62	269	0	10000	5	1	0	5	0
60	270	0	10000	5	1	0	5	0
58	271	0	10000	5	1	0	5	0
58	272	0	10000	5	1	0	5	0
56	273	0	10000	5	1	0	5	0
57	274	0	10000	5	1	0	5	0
56	275	0	10000	5	1	0	5	0
56	276	0	10000	5	1	0	5	0
55	277	0	10000	5	1	0	5	0
55	278	0	10000	5	1	0	5	0
56	279	0	10000	5	1	0	5	0
56	280	0	10000	5	1	0	5	0
57	281	0	10000	5	1	0	5	0
58	282	0	10000	5	1	0	5	0
58	283	0	10000	5	1	0	5	0
57	284	0	10000	5	1	0	5	0
58	285	0	10000	5	1	0	5	0
58	286	0	10000	5	1	0	5	0
61	287	0	10000	5	1	0	5	0
63	288	0	10000	5	1	0	5	0
63	289	0	10000	5	1	0	5	0
64	290	0	10000	5	1	0	5	0
63	291	0	10000	5	1	0	5	0
63	292	0	10000	5	1	0	5	0
62	293	0	10000	5	1	0	5	0
62	294	0	10000	5	1	0	5	0
61	295	0	10000	5	1	0	5	0
61	296	0	10000	5	1	0	5	0
59	297	0	10000	5	1	0	5	0
57	298	0	10000	5	1	0	5	0
57	299	0	10000	5	1	0	5	0
57	300	0	10000	5	1	0	5	0
58	301	0	10000	5	1	0	5	0
57	302	0	10000	5	1	0	5	0
56	303	0	10000	5	1	0	5	0
56	304	0	10000	5	1	0	5	0
56	305	0	10000	5	1	0	5	0
54	306	0	10000	5	1	0	5	0
55	307	0	10000	5	1	0	5	0
54	308	0	10000	5	1	0	5	0
53	309	0	10000	5	1	0	5	0
53	310	0	10000	5	1	0	5	0
53	311	0	10000	5	1	0	5	0
52	312	0	10000	5	1	0	5	0
51	313	0	10000	5	1	0	5	0
52	314	0	10000	5	1	0	5	0
50	315	0	10000	5	1	0	5	0
49	316	0	10000	5	1	0	5	0
46	317	0	10000	5	1	0	5	0
45	318	0	10000	5	1	0	5	0
46	319	0	10000	5	1	0	5	0
47	320	0	10000	5	1	0	5	0
49	321	0	10000	5	1	0	5	0
50	322	0	10000	5	1	0	5	0
51	323	0	10000	5	1	0	5	0
51	324	0	10000	5	1	0	5	0
49	325	0	10000	5	1	0	5	0
47	326	0	10000	5	1	0	5	0
46	327	0	10000	5	1	0	5	0
46	328	0	10000	5	1	0	5	0
46	329	0	10000	5	1	0	5	0
48	330	0	10000	5	1	0	5	0
49	331	0	10000	5	1	0	5	0
48	332	0	10000	5	1	0	5	0
47	333	0	10000	5	1	0	5	0
47	334	0	10000	5	1	0	5	0
47	335	0	10000	5	1	0	5	0
46	336	0	10000	5	1	0	5	0
44	337	0	10000	5	1	0	5	0
42	338	0	10000	5	1	0	5	0
40	339	0	10000	5	1	0	5	0
40	340	0	10000	5	1	0	5	0
39	341	0	10000	5	1	0	5	0
38	342	0	10000	5	1	0	5	0
38	343	0	10000	5	1	0	5	0
36	344	0	10000	5	1	0	5	0
36	345	0	10000	5	1	0	5	0
36	346	0	10000	5	1	0	5	0
37	347	0	10000	5	1	0	5	0
38	348	0	10000	5	1	0	5	0
37	349	0	10000	5	1	0	5	0
37	350	0	10000	5	1	0	5	0
35	351	0	10000	5	1	0	5	0
34	352	0	10000	5	1	0	5	0
32	353	0	10000	5	1	0	5	0
32	354	0	10000	5	1	0	5	0
31	355	0	10000	5	1	0	5	0
30	356	0	10000	5	1	0	5	0
28	357	0	10000	5	1	0	5	0
28	358	0	10000	5	1	0	5	0
28	359	0	10000	5	1	0	5	0
28	360	0	10000	5	1	0	5	0
27	361	0	10000	5	1	0	5	0
26	362	0	10000	5	1	0	5	0
27	363	0	10000	5	1	0	5	0
27	364	0	10000	5	1	0	5	0
27	365	0	10000	5	1	0	5	0
27	366	0	10000	5	1	0	5	0
28	367	0	10000	5	1	0	5	0
28	368	0	10000	5	1	0	5	0
29	369	0	10000	5	1	0	5	0
28	370	0	10000	5	1	0	5	0
27	371	0	10000	5	1	0	5	0
28	372	0	10000	5	1	0	5	0
27	373	0	10000	5	1	0	5	0
27	374	0	10000	5	1	0	5	0
27	375	0	10000	5	1	0	5	0
27	376	0	10000	5	1	0	5	0
24	377	0	10000	5	1	0	5	0
23	378	0	10000	5	1	0	5	0
24	379	0	10000	5	1	0	5	0
24	380	0	10000	5	1	0	5	0
23	381	0	10000	5	1	0	5	0
22	382	0	10000	5	1	0	5	0
22	383	0	10000	5	1	0	5	0
22	384	0	10000	5	1	0	5	0
23	385	0	10000	5	1	0	5	0
24	386	0	10000	5	1	0	5	0
26	387	0	10000	5	1	0	5	0
28	388	0	10000	5	1	0	5	0
27	389	0	10000	5	1	0	5	0
26	390	0	10000	5	1	0	5	0
24	391	0	10000	5	1	0	5	0
24	392	0	10000	5	1	0	5	0
23	393	0	10000	5	1	0	5	0
22	394	0	10000	5	1	0	5	0
22	395	0	10000	5	1	0	5	0
22	396	0	10000	5	1	0	5	0
20	397	0	10000	5	1	0	5	0
19	398	0	10000	5	1	0	5	0
18	399	0	10000	5	1	0	5	0
18	400	0	10000	5	1	0	5	0
19	401	0	10000	5	1	0	5	0
19	402	0	10000	5	1	0	5	0
19	403	0	10000	5	1	0	5	0
18	404	0	10000	5	1	0	5	0
18	405	0	10000	5	1	0	5	0
17	406	0	10000	5	1	0	5	0
18	407	0	10000	5	1	0	5	0
18	408	0	10000	5	1	0	5	0
17	409	0	10000	5	1	0	5	0
17	410	0	10000	5	1	0	5	0
17	411	0	10000	5	1	0	5	0
16	412	0	10000	5	1	0	5	0
15	413	0	10000	5	1	0	5	0
16	414	0	10000	5	1	0	5	0
15	415	0	10000	5	1	0	5	0
15	416	0	10000	5	1	0	5	0
14	417	0	10000	5	1	0	5	0
14	418	0	10000	5	1	0	5	0
13	419	0	10000	5	1	0	5	0
13	420	0	10000	5	1	0	5	0
13	421	0	10000	5	1	0	5	0
13	422	0	10000	5	1	0	5	0
12	423	0	10000	5	1	0	5	0
14	424	0	10000	5	1	0	5	0
15	425	0	10000	5	1	0	5	0
17	426	0	10000	5	1	0	5	0
19	427	0	10000	5	1	0	5	0
19	428	0	10000	5	1	0	5	0
18	429	0	10000	5	1	0	5	0
20	430	0	10000	5	1	0	5	0
19	431	0	10000	5	1	0	5	0
19	432	0	10000	5	1	0	5	0
19	433	0	10000	5	1	0	5	0
19	434	0	10000	5	1	0	5	0
18	435	0	10000	5	1	0	5	0
19	436	0	10000	5	1	0	5	0
20	437	0	10000	5	1	0	5	0
19	438	0	10000	5	1	0	5	0
20	439	0	10000	5	1	0	5	0
20	440	0	10000	5	1	0	5	0
19	441	0	10000	5	1	0	5	0
19	442	0	10000	5	1	0	5	0
20	443	0	10000	5	1	0	5	0
19	444	0	10000	5	1	0	5	0
18	445	0	10000	5	1	0	5	0
17	446	0	10000	5	1	0	5	0
18	447	0	10000	5	1	0	5	0
19	448	0	10000	5	1	0	5	0
18	449	0	10000	5	1	0	5	0
17	450	0	10000	5	1	0	5	0
16	451	0	10000	5	1	0	5	0
15	452	0	10000	5	1	0	5	0
15	453	0	10000	5	1	0	5	0
14	454	0	10000	5	1	0	5	0
15	455	0	10000	5	1	0	5	0
16	456	0	10000	5	1	0	5	0
15	457	0	10000	5	1	0	5	0
15	458	0	10000	5	1	0	5	0
17	459	0	10000	5	1	0	5	0
16	460	0	10000	5	1	0	5	0
16	461	0	10000	5	1	0	5	0
15	462	0	10000	5	1	0	5	0
15	463	0	10000	5	1	0	5	0
15	464	0	10000	5	1	0	5	0
14	465	0	10000	5	1	0	5	0
13	466	0	10000	5	1	0	5	0
14	467	0	10000	5	1	0	5	0
14	468	0	10000	5	1	0	5	0
14	469	0	10000	5	1	0	5	0
14	470	0	10000	5	1	0	5	0
13	471	0	10000	5	1	0	5	0
14	472	0	10000	5	1	0	5	0
12	473	0	10000	5	1	0	5	0
13	474	0	10000	5	1	0	5	0
14	475	0	10000	5	1	0	5	0
14	476	0	10000	5	1	0	5	0
12	477	0	10000	5	1	0	5	0
11	478	0	10000	5	1	0	5	0
11	479	0	10000	5	1	0	5	0
11	480	0	10000	5	1	0	5	0
11	481	0	10000	5	1	0	5	0
13	482	0	10000	5	1	0	5	0
13	483	0	10000	5	1	0	5	0
13	484	0	10000	5	1	0	5	0
13	485	0	10000	5	1	0	5	0
12	486	0	10000	5	1	0	5	0
13	487	0	10000	5	1	0	5	0
13	488	0	10000	5	1	0	5	0
12	489	0	10000	5	1	0	5	0
12	490	0	10000	5	1	0	5	0
11	491	0	10000	5	1	0	5	0
11	492	0	10000	5	1	0	5	0
10	493	0	10000	5	1	0	5	0
10	494	0	10000	5	1	0	5	0
10	495	0	10000	5	1	0	5	0
12	496	0	10000	5	1	0	5	0
12	497	0	10000	5	1	0	5	0
13	498	0	10000	5	1	0	5	0
14	499	0	10000	5	1	0	5	0
16	500	0	10000	5	1	0	5	0
21	501	0	10000	5	1	0	5	0
24	501	0	10000	5	1	0	5	1
28	502	0	10000	5	1	0	5	1
27	504	0	10000	5	1	0	5	1
27	505	0	10000	5	1	0	5	1
27	506	0	10000	5	1	0	5	1
30	507	0	10000	5	1	0	5	1
32	508	0	10000	5	1	0	5	1
33	509	0	10000	5	1	0	5	1
32	510	0	10000	5	1	0	5	1
32	511	0	10000	5	1	0	5	1
33	512	0	10000	5	1	0	5	1
34	513	0	10000	5	1	0	5	1
36	514	0	10000	5	1	0	5	1
37	515	0	10000	5	1	0	5	1
36	516	0	10000	5	1	0	5	1
34	517	0	10000	5	1	0	5	1
33	518	0	10000	5	1	0	5	1
33	519	0	10000	5	1	0	5	1
33	520	0	10000	5	1	0	5	1
32	521	0	10000	5	1	0	5	1
32	522	0	10000	5	1	0	5	1
30	523	0	10000	5	1	0	5	1
29	524	0	10000	5	1	0	5	1
30	525	0	10000	5	1	0	5	1
32	526	0	10000	5	1	0	5	1
39	527	0	10000	5	1	0	5	1
43	528	0	10000	5	1	0	5	1
48	529	0	10000	5	1	0	5	1
53	530	0	10000	5	1	0	5	1
57	531	0	10000	5	1	0	5	1
60	532	0	10000	5	1	0	5	1
61	533	0	10000	5	1	0	5	1
60	534	0	10000	5	1	0	5	1
58	535	0	10000	5	1	0	5	1
56	536	0	10000	5	1	0	5	1
54	537	0	10000	5	1	0	5	1
52	538	0	10000	5	1	0	5	1
54	539	0	10000	5	1	0	5	1
56	540	0	10000	5	1	0	5	1
57	541	0	10000	5	1	0	5	1
57	542	0	10000	5	1	0	5	1
59	543	0	10000	5	1	0	5	1
57	544	0	10000	5	1	0	5	1
55	545	0	10000	5	1	0	5	1
52	546	0	10000	5	1	0	5	1
52	547	0	10000	5	1	0	5	1
51	548	0	10000	5	1	0	5	1
49	549	0	10000	5	1	0	5	1
49	550	0	10000	5	1	0	5	1
49	551	0	10000	5	1	0	5	1
49	552	0	10000	5	1	0	5	0
50	553	0	10000	5	1	0	5	0
50	554	0	10000	5	1	0	5	0
51	555	0	10000	5	1	0	5	0
54	556	0	10000	5	1	0	5	0
55	557	0	10000	5	1	0	5	0
56	558	0	10000	5	1	0	5	0
59	559	0	10000	5	1	0	5	0
61	560	0	10000	5	1	0	5	0
62	561	0	10000	5	1	0	5	0
62	562	0	10000	5	1	0	5	0
63	563	0	10000	5	1	0	5	0
65	564	0	10000	5	1	0	5	0
65	565	0	10000	5	1	0	5	0
66	566	0	10000	5	1	0	5	0
69	567	0	10000	5	1	0	5	0
72	568	0	10000	5	1	0	5	0
74	569	0	10000	5	1	0	5	0
74	570	0	10000	5	1	0	5	0
76	571	0	10000	5	1	0	5	0
77	572	0	10000	5	1	0	5	0
76	573	0	10000	5	1	0	5	0
75	574	0	10000	5	1	0	5	0
74	575	0	10000	5	1	0	5	0
74	576	0	10000	5	1	0	5	0
72	577	0	10000	5	1	0	5	0
71	578	0	10000	5	1	0	5	0
72	579	0	10000	5	1	0	5	0
73	580	0	10000	5	1	0	5	0
74	581	0	10000	5	1	0	5	0
74	582	0	10000	5	1	0	5	0
74	583	0	10000	5	1	0	5	0
74	584	0	10000	5	1	0	5	0
71	585	0	10000	5	1	0	5	0
67	586	0	10000	5	1	0	5	0
65	587	0	10000	5	1	0	5	0
68	588	0	10000	5	1	0	5	0
73	589	0	10000	5	1	0	5	0
77	590	0	10000	5	1	0	5	0
74	591	0	10000	5	1	0	5	0
86	592	0	10000	5	1	0	5	0
107	593	0	10000	5	1	0	5	0
138	594	0	10000	5	1	0	5	0
176	595	0	10000	5	1	0	5	0
186	596	0	10000	5	1	0	5	0
185	597	0	10000	5	1	0	5	0
184	598	0	10000	5	1	0	5	0
201	599	0	10000	5	1	0	5	0
203	600	0	10000	5	1	0	5	0
213	601	0	10000	5	1	0	5	0
230	602	0	10000	5	1	0	5	0
226	603	0	10000	5	1	0	5	0
221	604	0	10000	5	1	0	5	0
240	605	0	10000	5	1	0	5	0
248	606	0	10000	5	1	0	5	0
285	607	0	10000	5	1	0	5	0
336	608	0	10000	5	1	0	5	0
370	609	0	10000	5	1	0	5	0
367	610	0	10000	5	1	0	5	0
368	611	0	10000	5	1	0	5	0
371	612	0	10000	5	1	0	5	0
375	613	0	10000	5	1	0	5	0
376	614	0	10000	5	1	0	5	0
396	615	0	10000	5	1	0	5	0
399	616	0	10000	5	1	0	5	0
395	617	0	10000	5	1	0	5	0
415	618	0	10000	5	1	0	5	0
431	619	0	10000	5	1	0	5	0
425	620	0	10000	5	1	0	5	0
421	621	0	10000	5	1	0	5	0
427	622	0	10000	5	1	0	5	0
439	623	0	10000	5	1	0	5	0
431	624	0	10000	5	1	0	5	0
444	625	0	10000	5	1	0	5	0
446	626	0	10000	5	1	0	5	0
434	627	0	10000	5	1	0	5	0
440	628	0	10000	5	1	0	5	0
456	629	0	10000	5	1	0	5	0
479	630	0	10000	5	1	0	5	0
506	631	0	10000	5	1	0	5	0
533	632	0	10000	5	1	0	5	0
559	633	0	10000	5	1	0	5	0
581	634	0	10000	5	1	0	5	0
600	635	0	10000	5	1	0	5	0
618	636	0	10000	5	1	0	5	0
632	637	0	10000	5	1	0	5	0
644	638	0	10000	5	1	0	5	0
655	639	0	10000	5	1	0	5	0
663	640	0	10000	5	1	0	5	0
670	641	0	10000	5	1	0	5	0
675	642	0	10000	5	1	0	5	0
674	643	0	10000	5	1	0	5	0
669	644	0	10000	5	1	0	5	0
663	645	0	10000	5	1	0	5	0
656	646	0	10000	5	1	0	5	0
651	647	0	10000	5	1	0	5	0
645	648	0	10000	5	1	0	5	0
641	649	0	10000	5	1	0	5	0
624	650	0	10000	5	1	0	5	0
597	651	0	10000	5	1	0	5	0
573	652	0	10000	5	1	0	5	0
555	653	0	10000	5	1	0	5	0
536	654	0	10000	5	1	0	5	0
521	655	0	10000	5	1	0	5	0
508	656	0	10000	5	1	0	5	0
495	657	0	10000	5	1	0	5	0
484	658	0	10000	5	1	0	5	0
478	659	0	10000	5	1	0	5	0
468	660	0	10000	5	1	0	5	0
457	661	0	10000	5	1	0	5	0
445	662	0	10000	5	1	0	5	0
438	663	0	10000	5	1	0	5	0
435	664	0	10000	5	1	0	5	0
431	665	0	10000	5	1	0	5	0
430	666	0	10000	5	1	0	5	0
432	667	0	10000	5	1	0	5	0
438	668	0	10000	5	1	0	5	0
447	669	0	10000	5	1	0	5	0
457	670	0	10000	5	1	0	5	0
469	671	0	10000	5	1	0	5	0
485	672	0	10000	5	1	0	5	0
501	673	0	10000	5	1	0	5	0
518	674	0	10000	5	1	0	5	0
538	675	0	10000	5	1	0	5	0
558	676	0	10000	5	1	0	5	0
579	677	0	10000	5	1	0	5	0
598	678	0	10000	5	1	0	5	0
617	679	0	10000	5	1	0	5	0
635	680	0	10000	5	1	0	5	0
651	681	0	10000	5	1	0	5	0
668	682	0	10000	5	1	0	5	0
680	683	0	10000	5	1	0	5	0
692	684	0	10000	5	1	0	5	0
702	685	0	10000	5	1	0	5	0
711	686	0	10000	5	1	0	5	0
720	687	0	10000	5	1	0	5	0
730	688	0	10000	5	1	0	5	0
738	689	0	10000	5	1	0	5	0
742	690	0	10000	5	1	0	5	0
745	691	0	10000	5	1	0	5	0
748	692	0	10000	5	1	0	5	0
750	693	0	10000	5	1	0	5	0
752	694	0	10000	5	1	0	5	0
752	695	0	10000	5	1	0	5	0
750	696	0	10000	5	1	0	5	0
745	697	0	10000	5	1	0	5	0
741	698	0	10000	5	1	0	5	0
734	699	0	10000	5	1	0	5	0
725	700	0	10000	5	1	0	5	0
715	701	0	10000	5	1	0	5	0
701	702	0	10000	5	1	0	5	0
684	703	0	10000	5	1	0	5	0
667	704	0	10000	5	1	0	5	0
647	705	0	10000	5	1	0	5	0
626	706	0	10000	5	1	0	5	0
605	707	0	10000	5	1	0	5	0
583	708	0	10000	5	1	0	5	0
557	709	0	10000	5	1	0	5	0
532	710	0	10000	5	1	0	5	0
508	711	0	10000	5	1	0	5	0
484	712	0	10000	5	1	0	5	0
461	713	0	10000	5	1	0	5	0
440	714	0	10000	5	1	0	5	0
422	715	0	10000	5	1	0	5	0
406	716	0	10000	5	1	0	5	0
391	717	0	10000	5	1	0	5	0
378	718	0	10000	5	1	0	5	0
369	719	0	10000	5	1	0	5	0
361	720	0	10000	5	1	0	5	0
356	721	0	10000	5	1	0	5	0
353	722	0	10000	5	1	0	5	0
352	723	0	10000	5	1	0	5	0
352	724	0	10000	5	1	0	5	0
351	725	0	10000	5	1	0	5	0
352	726	0	10000	5	1	0	5	0
352	727	0	10000	5	1	0	5	0
353	728	0	10000	5	1	0	5	0
351	729	0	10000	5	1	0	5	0
347	730	0	10000	5	1	0	5	0
343	731	0	10000	5	1	0	5	0
337	732	0	10000	5	1	0	5	0
331	733	0	10000	5	1	0	5	0
325	734	0	10000	5	1	0	5	0
320	735	0	10000	5	1	0	5	0
316	736	0	10000	5	1	0	5	0
311	737	0	10000	5	1	0	5	0
306	738	0	10000	5	1	0	5	0
303	739	0	10000	5	1	0	5	0
300	740	0	10000	5	1	0	5	0
297	741	0	10000	5	1	0	5	0
294	742	0	10000	5	1	0	5	0
292	743	0	10000	5	1	0	5	0
291	744	0	10000	5	1	0	5	0
290	745	0	10000	5	1	0	5	0
290	746	0	10000	5	1	0	5	0
290	747	0	10000	5	1	0	5	0
289	748	0	10000	5	1	0	5	0
286	749	0	10000	5	1	0	5	0
282	750	0	10000	5	1	0	5	0
279	751	0	10000	5	1	0	5	0
275	752	0	10000	5	1	0	5	0
269	753	0	10000	5	1	0	5	0
261	754	0	10000	5	1	0	5	0
