value	EMG	Stimulus	EMG_sensitivity	Total_Trial_Nr	practise	acq	probe_nr	Startle_Probe
36	2	0	10000	1	1	0	1	0
36	3	0	10000	1	1	0	1	0
35	4	0	10000	1	1	0	1	0
34	5	0	10000	1	1	0	1	0
33	6	0	10000	1	1	0	1	0
33	7	0	10000	1	1	0	1	0
34	8	0	10000	1	1	0	1	0
33	9	0	10000	1	1	0	1	0
31	10	0	10000	1	1	0	1	0
30	11	0	10000	1	1	0	1	0
30	12	0	10000	1	1	0	1	0
30	13	0	10000	1	1	0	1	0
30	14	0	10000	1	1	0	1	0
29	15	0	10000	1	1	0	1	0
29	16	0	10000	1	1	0	1	0
28	17	0	10000	1	1	0	1	0
27	18	0	10000	1	1	0	1	0
30	19	0	10000	1	1	0	1	0
30	20	0	10000	1	1	0	1	0
29	21	0	10000	1	1	0	1	0
29	21	0	10000	1	1	0	1	0
30	22	0	10000	1	1	0	1	0
32	24	0	10000	1	1	0	1	0
33	25	0	10000	1	1	0	1	0
33	26	0	10000	1	1	0	1	0
34	27	0	10000	1	1	0	1	0
35	28	0	10000	1	1	0	1	0
35	29	0	10000	1	1	0	1	0
33	30	0	10000	1	1	0	1	0
32	31	0	10000	1	1	0	1	0
32	31	0	10000	1	1	0	1	0
32	32	0	10000	1	1	0	1	0
32	34	0	10000	1	1	0	1	0
32	35	0	10000	1	1	0	1	0
32	36	0	10000	1	1	0	1	0
31	37	0	10000	1	1	0	1	0
29	38	0	10000	1	1	0	1	0
28	39	0	10000	1	1	0	1	0
30	40	0	10000	1	1	0	1	0
32	41	0	10000	1	1	0	1	0
32	41	0	10000	1	1	0	1	0
33	42	0	10000	1	1	0	1	0
32	44	0	10000	1	1	0	1	0
30	45	0	10000	1	1	0	1	0
30	46	0	10000	1	1	0	1	0
29	47	0	10000	1	1	0	1	0
30	48	0	10000	1	1	0	1	0
30	49	0	10000	1	1	0	1	0
31	50	0	10000	1	1	0	1	0
32	51	0	10000	1	1	0	1	0
32	51	0	10000	1	1	0	1	0
32	52	0	10000	1	1	0	1	0
31	54	0	10000	1	1	0	1	0
31	55	0	10000	1	1	0	1	0
32	56	0	10000	1	1	0	1	0
31	57	0	10000	1	1	0	1	0
28	58	0	10000	1	1	0	1	0
29	59	0	10000	1	1	0	1	0
28	60	0	10000	1	1	0	1	0
30	61	0	10000	1	1	0	1	0
31	61	0	10000	1	1	0	1	0
33	62	0	10000	1	1	0	1	0
32	64	0	10000	1	1	0	1	0
31	65	0	10000	1	1	0	1	0
31	66	0	10000	1	1	0	1	0
30	67	0	10000	1	1	0	1	0
32	68	0	10000	1	1	0	1	0
31	69	0	10000	1	1	0	1	0
30	70	0	10000	1	1	0	1	0
29	71	0	10000	1	1	0	1	0
28	71	0	10000	1	1	0	1	0
27	72	0	10000	1	1	0	1	0
27	74	0	10000	1	1	0	1	0
26	75	0	10000	1	1	0	1	0
26	76	0	10000	1	1	0	1	0
25	77	0	10000	1	1	0	1	0
24	78	0	10000	1	1	0	1	0
25	79	0	10000	1	1	0	1	0
25	80	0	10000	1	1	0	1	0
24	81	0	10000	1	1	0	1	0
24	81	0	10000	1	1	0	1	0
24	82	0	10000	1	1	0	1	0
23	84	0	10000	1	1	0	1	0
23	85	0	10000	1	1	0	1	0
23	86	0	10000	1	1	0	1	0
26	87	0	10000	1	1	0	1	0
31	88	0	10000	1	1	0	1	0
32	89	0	10000	1	1	0	1	0
34	90	0	10000	1	1	0	1	0
33	91	0	10000	1	1	0	1	0
33	91	0	10000	1	1	0	1	0
33	92	0	10000	1	1	0	1	0
34	94	0	10000	1	1	0	1	0
36	95	0	10000	1	1	0	1	0
39	96	0	10000	1	1	0	1	0
37	97	0	10000	1	1	0	1	0
34	98	0	10000	1	1	0	1	0
34	99	0	10000	1	1	0	1	0
33	100	0	10000	1	1	0	1	0
33	101	0	10000	1	1	0	1	0
32	101	0	10000	1	1	0	1	0
31	102	0	10000	1	1	0	1	0
31	104	0	10000	1	1	0	1	0
29	105	0	10000	1	1	0	1	0
28	106	0	10000	1	1	0	1	0
28	107	0	10000	1	1	0	1	0
28	108	0	10000	1	1	0	1	0
28	109	0	10000	1	1	0	1	0
30	110	0	10000	1	1	0	1	0
31	111	0	10000	1	1	0	1	0
30	111	0	10000	1	1	0	1	0
33	112	0	10000	1	1	0	1	0
33	114	0	10000	1	1	0	1	0
32	115	0	10000	1	1	0	1	0
32	116	0	10000	1	1	0	1	0
31	117	0	10000	1	1	0	1	0
31	118	0	10000	1	1	0	1	0
31	119	0	10000	1	1	0	1	0
31	120	0	10000	1	1	0	1	0
31	121	0	10000	1	1	0	1	0
32	121	0	10000	1	1	0	1	0
33	122	0	10000	1	1	0	1	0
32	124	0	10000	1	1	0	1	0
31	125	0	10000	1	1	0	1	0
31	126	0	10000	1	1	0	1	0
32	127	0	10000	1	1	0	1	0
33	128	0	10000	1	1	0	1	0
32	129	0	10000	1	1	0	1	0
31	130	0	10000	1	1	0	1	0
31	131	0	10000	1	1	0	1	0
31	131	0	10000	1	1	0	1	0
31	132	0	10000	1	1	0	1	0
30	134	0	10000	1	1	0	1	0
29	135	0	10000	1	1	0	1	0
30	136	0	10000	1	1	0	1	0
29	137	0	10000	1	1	0	1	0
26	138	0	10000	1	1	0	1	0
26	139	0	10000	1	1	0	1	0
27	140	0	10000	1	1	0	1	0
28	141	0	10000	1	1	0	1	0
28	141	0	10000	1	1	0	1	0
27	142	0	10000	1	1	0	1	0
27	144	0	10000	1	1	0	1	0
28	145	0	10000	1	1	0	1	0
29	146	0	10000	1	1	0	1	0
29	147	0	10000	1	1	0	1	0
30	148	0	10000	1	1	0	1	0
30	149	0	10000	1	1	0	1	0
29	150	0	10000	1	1	0	1	0
29	151	0	10000	1	1	0	1	0
29	151	0	10000	1	1	0	1	0
29	152	0	10000	1	1	0	1	0
29	154	0	10000	1	1	0	1	0
29	155	0	10000	1	1	0	1	0
29	156	0	10000	1	1	0	1	0
28	157	0	10000	1	1	0	1	0
27	158	0	10000	1	1	0	1	0
27	159	0	10000	1	1	0	1	0
28	160	0	10000	1	1	0	1	0
28	161	0	10000	1	1	0	1	0
28	161	0	10000	1	1	0	1	0
27	162	0	10000	1	1	0	1	0
27	164	0	10000	1	1	0	1	0
27	165	0	10000	1	1	0	1	0
26	166	0	10000	1	1	0	1	0
27	167	0	10000	1	1	0	1	0
29	168	0	10000	1	1	0	1	0
30	169	0	10000	1	1	0	1	0
31	170	0	10000	1	1	0	1	0
33	171	0	10000	1	1	0	1	0
33	171	0	10000	1	1	0	1	0
32	172	0	10000	1	1	0	1	0
31	174	0	10000	1	1	0	1	0
31	175	0	10000	1	1	0	1	0
31	176	0	10000	1	1	0	1	0
31	177	0	10000	1	1	0	1	0
32	178	0	10000	1	1	0	1	0
34	179	0	10000	1	1	0	1	0
35	180	0	10000	1	1	0	1	0
37	181	0	10000	1	1	0	1	0
38	181	0	10000	1	1	0	1	0
40	182	0	10000	1	1	0	1	0
44	184	0	10000	1	1	0	1	0
45	185	0	10000	1	1	0	1	0
48	186	0	10000	1	1	0	1	0
50	187	0	10000	1	1	0	1	0
53	188	0	10000	1	1	0	1	0
53	189	0	10000	1	1	0	1	0
52	190	0	10000	1	1	0	1	0
49	191	0	10000	1	1	0	1	0
49	191	0	10000	1	1	0	1	0
50	192	0	10000	1	1	0	1	0
51	194	0	10000	1	1	0	1	0
52	195	0	10000	1	1	0	1	0
53	196	0	10000	1	1	0	1	0
52	197	0	10000	1	1	0	1	0
48	198	0	10000	1	1	0	1	0
47	199	0	10000	1	1	0	1	0
45	200	0	10000	1	1	0	1	0
45	201	0	10000	1	1	0	1	0
45	201	0	10000	1	1	0	1	0
45	202	0	10000	1	1	0	1	0
45	204	0	10000	1	1	0	1	0
45	205	0	10000	1	1	0	1	0
46	206	0	10000	1	1	0	1	0
46	207	0	10000	1	1	0	1	0
46	208	0	10000	1	1	0	1	0
46	209	0	10000	1	1	0	1	0
44	210	0	10000	1	1	0	1	0
43	211	0	10000	1	1	0	1	0
44	211	0	10000	1	1	0	1	0
43	212	0	10000	1	1	0	1	0
41	214	0	10000	1	1	0	1	0
40	215	0	10000	1	1	0	1	0
40	216	0	10000	1	1	0	1	0
39	217	0	10000	1	1	0	1	0
38	218	0	10000	1	1	0	1	0
40	219	0	10000	1	1	0	1	0
41	220	0	10000	1	1	0	1	0
41	221	0	10000	1	1	0	1	0
44	221	0	10000	1	1	0	1	0
45	222	0	10000	1	1	0	1	0
44	224	0	10000	1	1	0	1	0
42	225	0	10000	1	1	0	1	0
41	226	0	10000	1	1	0	1	0
40	227	0	10000	1	1	0	1	0
41	228	0	10000	1	1	0	1	0
38	229	0	10000	1	1	0	1	0
38	230	0	10000	1	1	0	1	0
37	231	0	10000	1	1	0	1	0
39	231	0	10000	1	1	0	1	0
39	232	0	10000	1	1	0	1	0
42	234	0	10000	1	1	0	1	0
44	235	0	10000	1	1	0	1	0
44	236	0	10000	1	1	0	1	0
46	237	0	10000	1	1	0	1	0
45	238	0	10000	1	1	0	1	0
44	239	0	10000	1	1	0	1	0
44	240	0	10000	1	1	0	1	0
44	241	0	10000	1	1	0	1	0
43	241	0	10000	1	1	0	1	0
43	242	0	10000	1	1	0	1	0
44	244	0	10000	1	1	0	1	0
45	245	0	10000	1	1	0	1	0
47	246	0	10000	1	1	0	1	0
53	247	0	10000	1	1	0	1	0
58	248	0	10000	1	1	0	1	0
57	249	0	10000	1	1	0	1	0
58	250	0	10000	1	1	0	1	0
58	251	0	10000	1	1	0	1	0
56	251	0	10000	1	1	0	1	0
54	252	0	10000	1	1	0	1	0
53	254	0	10000	1	1	0	1	0
51	255	0	10000	1	1	0	1	0
50	256	0	10000	1	1	0	1	0
47	257	0	10000	1	1	0	1	0
44	258	0	10000	1	1	0	1	0
44	259	0	10000	1	1	0	1	0
42	260	0	10000	1	1	0	1	0
41	261	0	10000	1	1	0	1	0
41	261	0	10000	1	1	0	1	0
40	262	0	10000	1	1	0	1	0
39	264	0	10000	1	1	0	1	0
37	265	0	10000	1	1	0	1	0
36	266	0	10000	1	1	0	1	0
36	267	0	10000	1	1	0	1	0
37	268	0	10000	1	1	0	1	0
36	269	0	10000	1	1	0	1	0
38	270	0	10000	1	1	0	1	0
38	271	0	10000	1	1	0	1	0
39	271	0	10000	1	1	0	1	0
39	272	0	10000	1	1	0	1	0
37	274	0	10000	1	1	0	1	0
40	275	0	10000	1	1	0	1	0
41	276	0	10000	1	1	0	1	0
39	277	0	10000	1	1	0	1	0
36	278	0	10000	1	1	0	1	0
35	279	0	10000	1	1	0	1	0
35	280	0	10000	1	1	0	1	0
34	281	0	10000	1	1	0	1	0
34	281	0	10000	1	1	0	1	0
35	282	0	10000	1	1	0	1	0
34	284	0	10000	1	1	0	1	0
33	285	0	10000	1	1	0	1	0
32	286	0	10000	1	1	0	1	0
33	287	0	10000	1	1	0	1	0
34	288	0	10000	1	1	0	1	0
33	289	0	10000	1	1	0	1	0
32	290	0	10000	1	1	0	1	0
31	291	0	10000	1	1	0	1	0
32	291	0	10000	1	1	0	1	0
33	292	0	10000	1	1	0	1	0
33	294	0	10000	1	1	0	1	0
33	295	0	10000	1	1	0	1	0
32	296	0	10000	1	1	0	1	0
32	297	0	10000	1	1	0	1	0
31	298	0	10000	1	1	0	1	0
31	299	0	10000	1	1	0	1	0
30	300	0	10000	1	1	0	1	0
31	301	0	10000	1	1	0	1	0
32	301	0	10000	1	1	0	1	0
32	302	0	10000	1	1	0	1	0
31	304	0	10000	1	1	0	1	0
30	305	0	10000	1	1	0	1	0
28	306	0	10000	1	1	0	1	0
29	307	0	10000	1	1	0	1	0
30	308	0	10000	1	1	0	1	0
32	309	0	10000	1	1	0	1	0
31	310	0	10000	1	1	0	1	0
30	311	0	10000	1	1	0	1	0
31	311	0	10000	1	1	0	1	0
31	312	0	10000	1	1	0	1	0
34	314	0	10000	1	1	0	1	0
35	315	0	10000	1	1	0	1	0
38	316	0	10000	1	1	0	1	0
38	317	0	10000	1	1	0	1	0
37	318	0	10000	1	1	0	1	0
36	319	0	10000	1	1	0	1	0
37	320	0	10000	1	1	0	1	0
38	321	0	10000	1	1	0	1	0
38	321	0	10000	1	1	0	1	0
38	322	0	10000	1	1	0	1	0
37	324	0	10000	1	1	0	1	0
38	325	0	10000	1	1	0	1	0
37	326	0	10000	1	1	0	1	0
38	327	0	10000	1	1	0	1	0
40	328	0	10000	1	1	0	1	0
38	329	0	10000	1	1	0	1	0
37	330	0	10000	1	1	0	1	0
38	331	0	10000	1	1	0	1	0
38	331	0	10000	1	1	0	1	0
39	332	0	10000	1	1	0	1	0
37	334	0	10000	1	1	0	1	0
36	335	0	10000	1	1	0	1	0
36	336	0	10000	1	1	0	1	0
35	337	0	10000	1	1	0	1	0
35	338	0	10000	1	1	0	1	0
37	339	0	10000	1	1	0	1	0
38	340	0	10000	1	1	0	1	0
37	341	0	10000	1	1	0	1	0
37	341	0	10000	1	1	0	1	0
37	342	0	10000	1	1	0	1	0
36	344	0	10000	1	1	0	1	0
35	345	0	10000	1	1	0	1	0
35	346	0	10000	1	1	0	1	0
34	347	0	10000	1	1	0	1	0
34	348	0	10000	1	1	0	1	0
33	349	0	10000	1	1	0	1	0
33	350	0	10000	1	1	0	1	0
35	351	0	10000	1	1	0	1	0
37	351	0	10000	1	1	0	1	0
36	352	0	10000	1	1	0	1	0
35	354	0	10000	1	1	0	1	0
36	355	0	10000	1	1	0	1	0
34	356	0	10000	1	1	0	1	0
32	357	0	10000	1	1	0	1	0
31	358	0	10000	1	1	0	1	0
30	359	0	10000	1	1	0	1	0
30	360	0	10000	1	1	0	1	0
30	361	0	10000	1	1	0	1	0
29	361	0	10000	1	1	0	1	0
28	362	0	10000	1	1	0	1	0
29	364	0	10000	1	1	0	1	0
28	365	0	10000	1	1	0	1	0
27	366	0	10000	1	1	0	1	0
28	367	0	10000	1	1	0	1	0
30	368	0	10000	1	1	0	1	0
28	369	0	10000	1	1	0	1	0
28	370	0	10000	1	1	0	1	0
27	371	0	10000	1	1	0	1	0
26	371	0	10000	1	1	0	1	0
25	372	0	10000	1	1	0	1	0
26	374	0	10000	1	1	0	1	0
27	375	0	10000	1	1	0	1	0
27	376	0	10000	1	1	0	1	0
26	377	0	10000	1	1	0	1	0
25	378	0	10000	1	1	0	1	0
25	379	0	10000	1	1	0	1	0
25	380	0	10000	1	1	0	1	0
25	381	0	10000	1	1	0	1	0
25	381	0	10000	1	1	0	1	0
25	382	0	10000	1	1	0	1	0
24	384	0	10000	1	1	0	1	0
23	385	0	10000	1	1	0	1	0
23	386	0	10000	1	1	0	1	0
24	387	0	10000	1	1	0	1	0
25	388	0	10000	1	1	0	1	0
23	389	0	10000	1	1	0	1	0
24	390	0	10000	1	1	0	1	0
24	391	0	10000	1	1	0	1	0
23	391	0	10000	1	1	0	1	0
23	392	0	10000	1	1	0	1	0
23	394	0	10000	1	1	0	1	0
22	395	0	10000	1	1	0	1	0
23	396	0	10000	1	1	0	1	0
21	397	0	10000	1	1	0	1	0
20	398	0	10000	1	1	0	1	0
20	399	0	10000	1	1	0	1	0
20	400	0	10000	1	1	0	1	0
20	401	0	10000	1	1	0	1	0
20	401	0	10000	1	1	0	1	0
20	402	0	10000	1	1	0	1	0
19	404	0	10000	1	1	0	1	0
19	405	0	10000	1	1	0	1	0
18	406	0	10000	1	1	0	1	0
18	407	0	10000	1	1	0	1	0
21	408	0	10000	1	1	0	1	0
21	409	0	10000	1	1	0	1	0
21	410	0	10000	1	1	0	1	0
21	411	0	10000	1	1	0	1	0
24	411	0	10000	1	1	0	1	0
23	412	0	10000	1	1	0	1	0
23	414	0	10000	1	1	0	1	0
24	415	0	10000	1	1	0	1	0
26	416	0	10000	1	1	0	1	0
26	417	0	10000	1	1	0	1	0
25	418	0	10000	1	1	0	1	0
25	419	0	10000	1	1	0	1	0
26	420	0	10000	1	1	0	1	0
27	421	0	10000	1	1	0	1	0
26	421	0	10000	1	1	0	1	0
25	422	0	10000	1	1	0	1	0
26	424	0	10000	1	1	0	1	0
25	425	0	10000	1	1	0	1	0
24	426	0	10000	1	1	0	1	0
26	427	0	10000	1	1	0	1	0
26	428	0	10000	1	1	0	1	0
26	429	0	10000	1	1	0	1	0
25	430	0	10000	1	1	0	1	0
25	431	0	10000	1	1	0	1	0
24	431	0	10000	1	1	0	1	0
25	432	0	10000	1	1	0	1	0
25	434	0	10000	1	1	0	1	0
24	435	0	10000	1	1	0	1	0
24	436	0	10000	1	1	0	1	0
23	437	0	10000	1	1	0	1	0
22	438	0	10000	1	1	0	1	0
21	439	0	10000	1	1	0	1	0
21	440	0	10000	1	1	0	1	0
21	441	0	10000	1	1	0	1	0
21	441	0	10000	1	1	0	1	0
21	442	0	10000	1	1	0	1	0
22	444	0	10000	1	1	0	1	0
22	445	0	10000	1	1	0	1	0
22	446	0	10000	1	1	0	1	0
23	447	0	10000	1	1	0	1	0
24	448	0	10000	1	1	0	1	0
24	449	0	10000	1	1	0	1	0
23	450	0	10000	1	1	0	1	0
22	451	0	10000	1	1	0	1	0
22	451	0	10000	1	1	0	1	0
21	452	0	10000	1	1	0	1	0
22	454	0	10000	1	1	0	1	0
23	455	0	10000	1	1	0	1	0
24	456	0	10000	1	1	0	1	0
24	457	0	10000	1	1	0	1	0
24	458	0	10000	1	1	0	1	0
24	459	0	10000	1	1	0	1	0
25	460	0	10000	1	1	0	1	0
24	461	0	10000	1	1	0	1	0
23	461	0	10000	1	1	0	1	0
23	462	0	10000	1	1	0	1	0
22	464	0	10000	1	1	0	1	0
22	465	0	10000	1	1	0	1	0
21	466	0	10000	1	1	0	1	0
22	467	0	10000	1	1	0	1	0
22	468	0	10000	1	1	0	1	0
22	469	0	10000	1	1	0	1	0
21	470	0	10000	1	1	0	1	0
21	471	0	10000	1	1	0	1	0
22	471	0	10000	1	1	0	1	0
22	472	0	10000	1	1	0	1	0
21	474	0	10000	1	1	0	1	0
22	475	0	10000	1	1	0	1	0
23	476	0	10000	1	1	0	1	0
21	477	0	10000	1	1	0	1	0
20	478	0	10000	1	1	0	1	0
21	479	0	10000	1	1	0	1	0
21	480	0	10000	1	1	0	1	0
21	481	0	10000	1	1	0	1	0
21	481	0	10000	1	1	0	1	0
21	482	0	10000	1	1	0	1	0
20	484	0	10000	1	1	0	1	0
20	485	0	10000	1	1	0	1	0
19	486	0	10000	1	1	0	1	0
20	487	0	10000	1	1	0	1	0
20	488	0	10000	1	1	0	1	0
20	489	0	10000	1	1	0	1	0
19	490	0	10000	1	1	0	1	0
19	491	0	10000	1	1	0	1	0
20	491	0	10000	1	1	0	1	0
21	492	0	10000	1	1	0	1	0
22	494	0	10000	1	1	0	1	0
24	495	0	10000	1	1	0	1	0
23	496	0	10000	1	1	0	1	0
21	497	0	10000	1	1	0	1	0
20	498	0	10000	1	1	0	1	0
20	499	0	10000	1	1	0	1	0
20	500	0	10000	1	1	0	1	0
20	501	0	10000	1	1	0	1	0
20	553	0	10000	1	1	0	1	1
20	554	0	10000	1	1	0	1	1
20	555	0	10000	1	1	0	1	1
19	556	0	10000	1	1	0	1	1
18	557	0	10000	1	1	0	1	1
19	558	0	10000	1	1	0	1	1
20	559	0	10000	1	1	0	1	1
19	560	0	10000	1	1	0	1	1
19	561	0	10000	1	1	0	1	1
18	562	0	10000	1	1	0	1	1
18	563	0	10000	1	1	0	1	1
18	564	0	10000	1	1	0	1	1
19	565	0	10000	1	1	0	1	1
20	566	0	10000	1	1	0	1	1
20	567	0	10000	1	1	0	1	1
20	568	0	10000	1	1	0	1	1
17	569	0	10000	1	1	0	1	1
18	570	0	10000	1	1	0	1	1
20	571	0	10000	1	1	0	1	1
20	572	0	10000	1	1	0	1	1
20	573	0	10000	1	1	0	1	1
20	574	0	10000	1	1	0	1	1
20	575	0	10000	1	1	0	1	1
19	576	0	10000	1	1	0	1	1
18	577	0	10000	1	1	0	1	1
21	578	0	10000	1	1	0	1	1
24	579	0	10000	1	1	0	1	1
24	580	0	10000	1	1	0	1	1
24	581	0	10000	1	1	0	1	1
23	582	0	10000	1	1	0	1	1
22	583	0	10000	1	1	0	1	1
21	584	0	10000	1	1	0	1	1
22	585	0	10000	1	1	0	1	1
22	586	0	10000	1	1	0	1	1
22	587	0	10000	1	1	0	1	1
20	588	0	10000	1	1	0	1	1
18	589	0	10000	1	1	0	1	1
19	590	0	10000	1	1	0	1	1
20	591	0	10000	1	1	0	1	1
20	592	0	10000	1	1	0	1	1
20	593	0	10000	1	1	0	1	1
20	594	0	10000	1	1	0	1	1
20	595	0	10000	1	1	0	1	1
20	596	0	10000	1	1	0	1	1
19	597	0	10000	1	1	0	1	1
20	598	0	10000	1	1	0	1	1
21	599	0	10000	1	1	0	1	1
21	600	0	10000	1	1	0	1	1
21	601	0	10000	1	1	0	1	1
20	602	0	10000	1	1	0	1	1
22	603	0	10000	1	1	0	1	1
20	604	0	10000	1	1	0	1	1
20	605	0	10000	1	1	0	1	1
20	606	0	10000	1	1	0	1	1
21	561	0	10000	1	1	0	1	0
20	562	0	10000	1	1	0	1	0
20	563	0	10000	1	1	0	1	0
20	564	0	10000	1	1	0	1	0
20	565	0	10000	1	1	0	1	0
20	566	0	10000	1	1	0	1	0
20	567	0	10000	1	1	0	1	0
20	568	0	10000	1	1	0	1	0
20	564	0	10000	1	1	0	1	0
20	565	0	10000	1	1	0	1	0
19	566	0	10000	1	1	0	1	0
21	567	0	10000	1	1	0	1	0
22	568	0	10000	1	1	0	1	0
21	569	0	10000	1	1	0	1	0
21	570	0	10000	1	1	0	1	0
20	571	0	10000	1	1	0	1	0
20	572	0	10000	1	1	0	1	0
20	573	0	10000	1	1	0	1	0
21	574	0	10000	1	1	0	1	0
20	575	0	10000	1	1	0	1	0
20	576	0	10000	1	1	0	1	0
19	577	0	10000	1	1	0	1	0
18	578	0	10000	1	1	0	1	0
18	579	0	10000	1	1	0	1	0
17	580	0	10000	1	1	0	1	0
17	581	0	10000	1	1	0	1	0
18	582	0	10000	1	1	0	1	0
18	583	0	10000	1	1	0	1	0
18	584	0	10000	1	1	0	1	0
17	585	0	10000	1	1	0	1	0
16	586	0	10000	1	1	0	1	0
18	587	0	10000	1	1	0	1	0
18	588	0	10000	1	1	0	1	0
17	589	0	10000	1	1	0	1	0
17	590	0	10000	1	1	0	1	0
18	591	0	10000	1	1	0	1	0
17	591	0	10000	1	1	0	1	0
17	592	0	10000	1	1	0	1	0
17	594	0	10000	1	1	0	1	0
17	595	0	10000	1	1	0	1	0
18	596	0	10000	1	1	0	1	0
18	597	0	10000	1	1	0	1	0
19	598	0	10000	1	1	0	1	0
19	599	0	10000	1	1	0	1	0
19	600	0	10000	1	1	0	1	0
18	601	0	10000	1	1	0	1	0
18	601	0	10000	1	1	0	1	0
19	602	0	10000	1	1	0	1	0
18	604	0	10000	1	1	0	1	0
19	605	0	10000	1	1	0	1	0
19	606	0	10000	1	1	0	1	0
21	607	0	10000	1	1	0	1	0
23	608	0	10000	1	1	0	1	0
22	609	0	10000	1	1	0	1	0
21	610	0	10000	1	1	0	1	0
20	611	0	10000	1	1	0	1	0
20	611	0	10000	1	1	0	1	0
21	612	0	10000	1	1	0	1	0
21	614	0	10000	1	1	0	1	0
21	615	0	10000	1	1	0	1	0
22	616	0	10000	1	1	0	1	0
22	617	0	10000	1	1	0	1	0
21	618	0	10000	1	1	0	1	0
22	619	0	10000	1	1	0	1	0
22	620	0	10000	1	1	0	1	0
23	621	0	10000	1	1	0	1	0
24	621	0	10000	1	1	0	1	0
22	622	0	10000	1	1	0	1	0
22	624	0	10000	1	1	0	1	0
21	625	0	10000	1	1	0	1	0
21	626	0	10000	1	1	0	1	0
21	627	0	10000	1	1	0	1	0
22	628	0	10000	1	1	0	1	0
22	629	0	10000	1	1	0	1	0
21	630	0	10000	1	1	0	1	0
21	631	0	10000	1	1	0	1	0
21	631	0	10000	1	1	0	1	0
20	632	0	10000	1	1	0	1	0
20	634	0	10000	1	1	0	1	0
20	635	0	10000	1	1	0	1	0
20	636	0	10000	1	1	0	1	0
21	637	0	10000	1	1	0	1	0
28	638	0	10000	1	1	0	1	0
30	639	0	10000	1	1	0	1	0
43	640	0	10000	1	1	0	1	0
56	641	0	10000	1	1	0	1	0
64	641	0	10000	1	1	0	1	0
66	642	0	10000	1	1	0	1	0
65	644	0	10000	1	1	0	1	0
65	645	0	10000	1	1	0	1	0
66	646	0	10000	1	1	0	1	0
72	647	0	10000	1	1	0	1	0
91	648	0	10000	1	1	0	1	0
91	649	0	10000	1	1	0	1	0
96	650	0	10000	1	1	0	1	0
112	651	0	10000	1	1	0	1	0
118	651	0	10000	1	1	0	1	0
116	652	0	10000	1	1	0	1	0
118	654	0	10000	1	1	0	1	0
127	655	0	10000	1	1	0	1	0
131	656	0	10000	1	1	0	1	0
134	657	0	10000	1	1	0	1	0
152	658	0	10000	1	1	0	1	0
160	659	0	10000	1	1	0	1	0
202	660	0	10000	1	1	0	1	0
243	661	0	10000	1	1	0	1	0
265	661	0	10000	1	1	0	1	0
277	662	0	10000	1	1	0	1	0
285	664	0	10000	1	1	0	1	0
276	665	0	10000	1	1	0	1	0
285	666	0	10000	1	1	0	1	0
315	667	0	10000	1	1	0	1	0
332	668	0	10000	1	1	0	1	0
327	669	0	10000	1	1	0	1	0
340	670	0	10000	1	1	0	1	0
339	671	0	10000	1	1	0	1	0
340	671	0	10000	1	1	0	1	0
342	672	0	10000	1	1	0	1	0
345	674	0	10000	1	1	0	1	0
338	675	0	10000	1	1	0	1	0
343	676	0	10000	1	1	0	1	0
363	677	0	10000	1	1	0	1	0
382	678	0	10000	1	1	0	1	0
388	679	0	10000	1	1	0	1	0
379	680	0	10000	1	1	0	1	0
364	681	0	10000	1	1	0	1	0
350	681	0	10000	1	1	0	1	0
347	682	0	10000	1	1	0	1	0
354	684	0	10000	1	1	0	1	0
361	685	0	10000	1	1	0	1	0
359	686	0	10000	1	1	0	1	0
346	687	0	10000	1	1	0	1	0
336	688	0	10000	1	1	0	1	0
330	689	0	10000	1	1	0	1	0
327	690	0	10000	1	1	0	1	0
328	691	0	10000	1	1	0	1	0
331	691	0	10000	1	1	0	1	0
332	692	0	10000	1	1	0	1	0
334	694	0	10000	1	1	0	1	0
335	695	0	10000	1	1	0	1	0
336	696	0	10000	1	1	0	1	0
335	697	0	10000	1	1	0	1	0
332	698	0	10000	1	1	0	1	0
330	699	0	10000	1	1	0	1	0
327	700	0	10000	1	1	0	1	0
324	701	0	10000	1	1	0	1	0
320	701	0	10000	1	1	0	1	0
316	702	0	10000	1	1	0	1	0
309	704	0	10000	1	1	0	1	0
301	705	0	10000	1	1	0	1	0
294	706	0	10000	1	1	0	1	0
286	707	0	10000	1	1	0	1	0
278	708	0	10000	1	1	0	1	0
268	709	0	10000	1	1	0	1	0
257	710	0	10000	1	1	0	1	0
246	711	0	10000	1	1	0	1	0
236	711	0	10000	1	1	0	1	0
227	712	0	10000	1	1	0	1	0
222	714	0	10000	1	1	0	1	0
215	715	0	10000	1	1	0	1	0
209	716	0	10000	1	1	0	1	0
202	717	0	10000	1	1	0	1	0
201	718	0	10000	1	1	0	1	0
208	719	0	10000	1	1	0	1	0
216	720	0	10000	1	1	0	1	0
225	721	0	10000	1	1	0	1	0
235	721	0	10000	1	1	0	1	0
244	722	0	10000	1	1	0	1	0
249	724	0	10000	1	1	0	1	0
249	725	0	10000	1	1	0	1	0
246	726	0	10000	1	1	0	1	0
243	727	0	10000	1	1	0	1	0
237	728	0	10000	1	1	0	1	0
228	729	0	10000	1	1	0	1	0
219	730	0	10000	1	1	0	1	0
212	731	0	10000	1	1	0	1	0
211	731	0	10000	1	1	0	1	0
213	732	0	10000	1	1	0	1	0
219	734	0	10000	1	1	0	1	0
230	735	0	10000	1	1	0	1	0
244	736	0	10000	1	1	0	1	0
253	737	0	10000	1	1	0	1	0
259	738	0	10000	1	1	0	1	0
263	739	0	10000	1	1	0	1	0
265	740	0	10000	1	1	0	1	0
268	741	0	10000	1	1	0	1	0
269	741	0	10000	1	1	0	1	0
263	742	0	10000	1	1	0	1	0
263	744	0	10000	1	1	0	1	0
271	745	0	10000	1	1	0	1	0
284	746	0	10000	1	1	0	1	0
303	747	0	10000	1	1	0	1	0
313	748	0	10000	1	1	0	1	0
304	749	0	10000	1	1	0	1	0
297	750	0	10000	1	1	0	1	0
305	751	0	10000	1	1	0	1	0
318	751	0	10000	1	1	0	1	0
336	752	0	10000	1	1	0	1	0
359	754	0	10000	1	1	0	1	0
371	755	0	10000	1	1	0	1	0
372	756	0	10000	1	1	0	1	0
357	757	0	10000	1	1	0	1	0
345	758	0	10000	1	1	0	1	0
348	759	0	10000	1	1	0	1	0
346	760	0	10000	1	1	0	1	0
340	761	0	10000	1	1	0	1	0
345	761	0	10000	1	1	0	1	0
343	762	0	10000	1	1	0	1	0
333	764	0	10000	1	1	0	1	0
324	765	0	10000	1	1	0	1	0
318	766	0	10000	1	1	0	1	0
320	767	0	10000	1	1	0	1	0
320	768	0	10000	1	1	0	1	0
313	769	0	10000	1	1	0	1	0
301	770	0	10000	1	1	0	1	0
293	771	0	10000	1	1	0	1	0
286	771	0	10000	1	1	0	1	0
282	772	0	10000	1	1	0	1	0
280	774	0	10000	1	1	0	1	0
281	775	0	10000	1	1	0	1	0
281	776	0	10000	1	1	0	1	0
276	777	0	10000	1	1	0	1	0
271	778	0	10000	1	1	0	1	0
266	779	0	10000	1	1	0	1	0
266	780	0	10000	1	1	0	1	0
276	781	0	10000	1	1	0	1	0
290	781	0	10000	1	1	0	1	0
295	782	0	10000	1	1	0	1	0
285	784	0	10000	1	1	0	1	0
273	785	0	10000	1	1	0	1	0
260	786	0	10000	1	1	0	1	0
252	787	0	10000	1	1	0	1	0
249	788	0	10000	1	1	0	1	0
247	789	0	10000	1	1	0	1	0
248	790	0	10000	1	1	0	1	0
248	791	0	10000	1	1	0	1	0
247	791	0	10000	1	1	0	1	0
247	792	0	10000	1	1	0	1	0
245	794	0	10000	1	1	0	1	0
245	795	0	10000	1	1	0	1	0
245	796	0	10000	1	1	0	1	0
244	797	0	10000	1	1	0	1	0
246	798	0	10000	1	1	0	1	0
251	799	0	10000	1	1	0	1	0
256	800	0	10000	1	1	0	1	0
259	801	0	10000	1	1	0	1	0
260	801	0	10000	1	1	0	1	0
261	802	0	10000	1	1	0	1	0
261	804	0	10000	1	1	0	1	0
259	805	0	10000	1	1	0	1	0
255	806	0	10000	1	1	0	1	0
251	807	0	10000	1	1	0	1	0
248	808	0	10000	1	1	0	1	0
243	809	0	10000	1	1	0	1	0
239	810	0	10000	1	1	0	1	0
233	811	0	10000	1	1	0	1	0
226	811	0	10000	1	1	0	1	0
222	812	0	10000	1	1	0	1	0
221	814	0	10000	1	1	0	1	0
219	815	0	10000	1	1	0	1	0
216	816	0	10000	1	1	0	1	0
210	817	0	10000	1	1	0	1	0
206	818	0	10000	1	1	0	1	0
203	819	0	10000	1	1	0	1	0
197	820	0	10000	1	1	0	1	0
194	821	0	10000	1	1	0	1	0
187	821	0	10000	1	1	0	1	0
179	822	0	10000	1	1	0	1	0
172	824	0	10000	1	1	0	1	0
164	825	0	10000	1	1	0	1	0
157	826	0	10000	1	1	0	1	0
153	827	0	10000	1	1	0	1	0
151	828	0	10000	1	1	0	1	0
146	829	0	10000	1	1	0	1	0
143	830	0	10000	1	1	0	1	0
138	831	0	10000	1	1	0	1	0
132	831	0	10000	1	1	0	1	0
129	832	0	10000	1	1	0	1	0
126	834	0	10000	1	1	0	1	0
123	835	0	10000	1	1	0	1	0
122	836	0	10000	1	1	0	1	0
123	837	0	10000	1	1	0	1	0
126	838	0	10000	1	1	0	1	0
130	839	0	10000	1	1	0	1	0
131	840	0	10000	1	1	0	1	0
131	841	0	10000	1	1	0	1	0
127	841	0	10000	1	1	0	1	0
125	842	0	10000	1	1	0	1	0
127	844	0	10000	1	1	0	1	0
127	845	0	10000	1	1	0	1	0
123	846	0	10000	1	1	0	1	0
119	847	0	10000	1	1	0	1	0
120	848	0	10000	1	1	0	1	0
120	849	0	10000	1	1	0	1	0
120	850	0	10000	1	1	0	1	0
115	851	0	10000	1	1	0	1	0
111	851	0	10000	1	1	0	1	0
109	852	0	10000	1	1	0	1	0
108	854	0	10000	1	1	0	1	0
105	855	0	10000	1	1	0	1	0
102	856	0	10000	1	1	0	1	0
97	857	0	10000	1	1	0	1	0
92	858	0	10000	1	1	0	1	0
90	859	0	10000	1	1	0	1	0
87	860	0	10000	1	1	0	1	0
83	861	0	10000	1	1	0	1	0
80	861	0	10000	1	1	0	1	0
79	862	0	10000	1	1	0	1	0
74	864	0	10000	1	1	0	1	0
72	865	0	10000	1	1	0	1	0
70	866	0	10000	1	1	0	1	0
71	867	0	10000	1	1	0	1	0
72	868	0	10000	1	1	0	1	0
71	869	0	10000	1	1	0	1	0
71	870	0	10000	1	1	0	1	0
69	871	0	10000	1	1	0	1	0
70	871	0	10000	1	1	0	1	0
72	872	0	10000	1	1	0	1	0
72	874	0	10000	1	1	0	1	0
72	875	0	10000	1	1	0	1	0
73	876	0	10000	1	1	0	1	0
69	877	0	10000	1	1	0	1	0
67	878	0	10000	1	1	0	1	0
64	879	0	10000	1	1	0	1	0
62	880	0	10000	1	1	0	1	0
61	881	0	10000	1	1	0	1	0
59	881	0	10000	1	1	0	1	0
57	882	0	10000	1	1	0	1	0
55	884	0	10000	1	1	0	1	0
54	885	0	10000	1	1	0	1	0
52	886	0	10000	1	1	0	1	0
56	887	0	10000	1	1	0	1	0
59	888	0	10000	1	1	0	1	0
57	889	0	10000	1	1	0	1	0
55	890	0	10000	1	1	0	1	0
52	891	0	10000	1	1	0	1	0
54	891	0	10000	1	1	0	1	0
57	892	0	10000	1	1	0	1	0
59	894	0	10000	1	1	0	1	0
62	895	0	10000	1	1	0	1	0
63	896	0	10000	1	1	0	1	0
60	897	0	10000	1	1	0	1	0
59	898	0	10000	1	1	0	1	0
56	899	0	10000	1	1	0	1	0
55	900	0	10000	1	1	0	1	0
54	901	0	10000	1	1	0	1	0
52	901	0	10000	1	1	0	1	0
52	902	0	10000	1	1	0	1	0
50	904	0	10000	1	1	0	1	0
49	905	0	10000	1	1	0	1	0
47	906	0	10000	1	1	0	1	0
47	907	0	10000	1	1	0	1	0
45	908	0	10000	1	1	0	1	0
44	909	0	10000	1	1	0	1	0
42	910	0	10000	1	1	0	1	0
41	911	0	10000	1	1	0	1	0
40	911	0	10000	1	1	0	1	0
38	912	0	10000	1	1	0	1	0
37	914	0	10000	1	1	0	1	0
36	915	0	10000	1	1	0	1	0
36	916	0	10000	1	1	0	1	0
34	917	0	10000	1	1	0	1	0
32	918	0	10000	1	1	0	1	0
32	919	0	10000	1	1	0	1	0
33	920	0	10000	1	1	0	1	0
32	921	0	10000	1	1	0	1	0
31	921	0	10000	1	1	0	1	0
30	922	0	10000	1	1	0	1	0
29	924	0	10000	1	1	0	1	0
28	925	0	10000	1	1	0	1	0
28	926	0	10000	1	1	0	1	0
32	927	0	10000	1	1	0	1	0
31	928	0	10000	1	1	0	1	0
30	929	0	10000	1	1	0	1	0
30	930	0	10000	1	1	0	1	0
30	931	0	10000	1	1	0	1	0
30	931	0	10000	1	1	0	1	0
31	932	0	10000	1	1	0	1	0
30	934	0	10000	1	1	0	1	0
30	935	0	10000	1	1	0	1	0
30	936	0	10000	1	1	0	1	0
28	937	0	10000	1	1	0	1	0
29	938	0	10000	1	1	0	1	0
30	939	0	10000	1	1	0	1	0
29	940	0	10000	1	1	0	1	0
29	941	0	10000	1	1	0	1	0
29	941	0	10000	1	1	0	1	0
28	942	0	10000	1	1	0	1	0
29	944	0	10000	1	1	0	1	0
28	945	0	10000	1	1	0	1	0
28	946	0	10000	1	1	0	1	0
32	947	0	10000	1	1	0	1	0
33	948	0	10000	1	1	0	1	0
34	949	0	10000	1	1	0	1	0
34	950	0	10000	1	1	0	1	0
34	951	0	10000	1	1	0	1	0
33	951	0	10000	1	1	0	1	0
33	952	0	10000	1	1	0	1	0
34	954	0	10000	1	1	0	1	0
34	955	0	10000	1	1	0	1	0
34	956	0	10000	1	1	0	1	0
32	957	0	10000	1	1	0	1	0
31	958	0	10000	1	1	0	1	0
31	959	0	10000	1	1	0	1	0
31	960	0	10000	1	1	0	1	0
31	961	0	10000	1	1	0	1	0
31	961	0	10000	1	1	0	1	0
32	962	0	10000	1	1	0	1	0
33	964	0	10000	1	1	0	1	0
32	965	0	10000	1	1	0	1	0
29	966	0	10000	1	1	0	1	0
31	967	0	10000	1	1	0	1	0
32	968	0	10000	1	1	0	1	0
31	969	0	10000	1	1	0	1	0
32	970	0	10000	1	1	0	1	0
34	971	0	10000	1	1	0	1	0
33	971	0	10000	1	1	0	1	0
32	972	0	10000	1	1	0	1	0
33	974	0	10000	1	1	0	1	0
32	975	0	10000	1	1	0	1	0
32	976	0	10000	1	1	0	1	0
32	977	0	10000	1	1	0	1	0
30	978	0	10000	1	1	0	1	0
31	979	0	10000	1	1	0	1	0
30	980	0	10000	1	1	0	1	0
30	981	0	10000	1	1	0	1	0
30	981	0	10000	1	1	0	1	0
30	982	0	10000	1	1	0	1	0
30	984	0	10000	1	1	0	1	0
30	985	0	10000	1	1	0	1	0
32	986	0	10000	1	1	0	1	0
34	987	0	10000	1	1	0	1	0
34	988	0	10000	1	1	0	1	0
35	989	0	10000	1	1	0	1	0
35	990	0	10000	1	1	0	1	0
36	991	0	10000	1	1	0	1	0
41	991	0	10000	1	1	0	1	0
44	992	0	10000	1	1	0	1	0
45	994	0	10000	1	1	0	1	0
45	995	0	10000	1	1	0	1	0
51	996	0	10000	1	1	0	1	0
55	997	0	10000	1	1	0	1	0
61	998	0	10000	1	1	0	1	0
74	999	0	10000	1	1	0	1	0
87	1000	0	10000	1	1	0	1	0
98	1001	0	10000	1	1	0	1	0
58	2	7	10000	2	1	0	2	0
62	3	7	10000	2	1	0	2	0
65	4	7	10000	2	1	0	2	0
63	5	7	10000	2	1	0	2	0
61	6	7	10000	2	1	0	2	0
58	7	7	10000	2	1	0	2	0
57	8	7	10000	2	1	0	2	0
55	9	7	10000	2	1	0	2	0
54	10	7	10000	2	1	0	2	0
52	11	7	10000	2	1	0	2	0
50	12	7	10000	2	1	0	2	0
49	13	7	10000	2	1	0	2	0
48	14	7	10000	2	1	0	2	0
51	15	7	10000	2	1	0	2	0
55	16	7	10000	2	1	0	2	0
58	17	7	10000	2	1	0	2	0
56	18	7	10000	2	1	0	2	0
55	19	7	10000	2	1	0	2	0
56	20	7	10000	2	1	0	2	0
54	21	7	10000	2	1	0	2	0
53	21	7	10000	2	1	0	2	0
53	22	7	10000	2	1	0	2	0
53	24	7	10000	2	1	0	2	0
52	25	7	10000	2	1	0	2	0
52	26	7	10000	2	1	0	2	0
52	27	7	10000	2	1	0	2	0
52	28	7	10000	2	1	0	2	0
53	29	7	10000	2	1	0	2	0
55	30	7	10000	2	1	0	2	0
55	31	7	10000	2	1	0	2	0
56	31	7	10000	2	1	0	2	0
54	32	7	10000	2	1	0	2	0
54	34	7	10000	2	1	0	2	0
54	35	7	10000	2	1	0	2	0
54	36	7	10000	2	1	0	2	0
54	37	7	10000	2	1	0	2	0
53	38	7	10000	2	1	0	2	0
53	39	7	10000	2	1	0	2	0
52	40	7	10000	2	1	0	2	0
50	41	7	10000	2	1	0	2	0
48	41	7	10000	2	1	0	2	0
48	42	7	10000	2	1	0	2	0
52	44	7	10000	2	1	0	2	0
52	45	7	10000	2	1	0	2	0
50	46	7	10000	2	1	0	2	0
49	47	7	10000	2	1	0	2	0
50	48	7	10000	2	1	0	2	0
49	49	7	10000	2	1	0	2	0
48	50	7	10000	2	1	0	2	0
47	51	7	10000	2	1	0	2	0
47	51	7	10000	2	1	0	2	0
45	52	7	10000	2	1	0	2	0
43	54	7	10000	2	1	0	2	0
42	55	7	10000	2	1	0	2	0
43	56	7	10000	2	1	0	2	0
47	57	7	10000	2	1	0	2	0
54	58	7	10000	2	1	0	2	0
53	59	7	10000	2	1	0	2	0
52	60	7	10000	2	1	0	2	0
51	61	7	10000	2	1	0	2	0
49	61	7	10000	2	1	0	2	0
52	62	7	10000	2	1	0	2	0
58	64	7	10000	2	1	0	2	0
61	65	7	10000	2	1	0	2	0
63	66	7	10000	2	1	0	2	0
62	67	7	10000	2	1	0	2	0
60	68	7	10000	2	1	0	2	0
58	69	7	10000	2	1	0	2	0
56	70	7	10000	2	1	0	2	0
59	71	7	10000	2	1	0	2	0
58	71	7	10000	2	1	0	2	0
56	72	7	10000	2	1	0	2	0
52	74	7	10000	2	1	0	2	0
52	75	7	10000	2	1	0	2	0
52	76	7	10000	2	1	0	2	0
50	77	7	10000	2	1	0	2	0
48	78	7	10000	2	1	0	2	0
46	79	7	10000	2	1	0	2	0
48	80	7	10000	2	1	0	2	0
48	81	7	10000	2	1	0	2	0
46	81	7	10000	2	1	0	2	0
45	82	7	10000	2	1	0	2	0
45	84	7	10000	2	1	0	2	0
43	85	7	10000	2	1	0	2	0
42	86	7	10000	2	1	0	2	0
41	87	7	10000	2	1	0	2	0
42	88	7	10000	2	1	0	2	0
41	89	7	10000	2	1	0	2	0
40	90	7	10000	2	1	0	2	0
39	91	7	10000	2	1	0	2	0
39	91	7	10000	2	1	0	2	0
37	92	7	10000	2	1	0	2	0
35	94	7	10000	2	1	0	2	0
35	95	7	10000	2	1	0	2	0
35	96	7	10000	2	1	0	2	0
38	97	7	10000	2	1	0	2	0
40	98	7	10000	2	1	0	2	0
39	99	7	10000	2	1	0	2	0
39	100	7	10000	2	1	0	2	0
39	101	7	10000	2	1	0	2	0
37	101	7	10000	2	1	0	2	0
38	102	7	10000	2	1	0	2	0
38	104	7	10000	2	1	0	2	0
40	105	7	10000	2	1	0	2	0
43	106	7	10000	2	1	0	2	0
42	107	7	10000	2	1	0	2	0
42	108	7	10000	2	1	0	2	0
41	109	7	10000	2	1	0	2	0
40	110	7	10000	2	1	0	2	0
39	111	7	10000	2	1	0	2	0
39	111	7	10000	2	1	0	2	0
37	112	7	10000	2	1	0	2	0
36	114	7	10000	2	1	0	2	0
38	115	7	10000	2	1	0	2	0
42	116	7	10000	2	1	0	2	0
46	117	7	10000	2	1	0	2	0
49	118	7	10000	2	1	0	2	0
49	119	7	10000	2	1	0	2	0
48	120	7	10000	2	1	0	2	0
46	121	7	10000	2	1	0	2	0
44	121	7	10000	2	1	0	2	0
46	122	7	10000	2	1	0	2	0
46	124	7	10000	2	1	0	2	0
44	125	7	10000	2	1	0	2	0
44	126	7	10000	2	1	0	2	0
45	127	7	10000	2	1	0	2	0
48	128	7	10000	2	1	0	2	0
50	129	7	10000	2	1	0	2	0
54	130	7	10000	2	1	0	2	0
58	131	7	10000	2	1	0	2	0
58	131	7	10000	2	1	0	2	0
57	132	7	10000	2	1	0	2	0
56	134	7	10000	2	1	0	2	0
56	135	7	10000	2	1	0	2	0
56	136	7	10000	2	1	0	2	0
56	137	7	10000	2	1	0	2	0
54	138	7	10000	2	1	0	2	0
52	139	7	10000	2	1	0	2	0
50	140	7	10000	2	1	0	2	0
49	141	7	10000	2	1	0	2	0
47	141	7	10000	2	1	0	2	0
47	142	7	10000	2	1	0	2	0
47	144	7	10000	2	1	0	2	0
47	145	7	10000	2	1	0	2	0
46	146	7	10000	2	1	0	2	0
44	147	7	10000	2	1	0	2	0
44	148	7	10000	2	1	0	2	0
45	149	7	10000	2	1	0	2	0
46	150	7	10000	2	1	0	2	0
46	151	7	10000	2	1	0	2	0
46	151	7	10000	2	1	0	2	0
45	152	7	10000	2	1	0	2	0
44	154	7	10000	2	1	0	2	0
45	155	7	10000	2	1	0	2	0
46	156	7	10000	2	1	0	2	0
47	157	7	10000	2	1	0	2	0
46	158	7	10000	2	1	0	2	0
46	159	7	10000	2	1	0	2	0
46	160	7	10000	2	1	0	2	0
45	161	7	10000	2	1	0	2	0
43	161	7	10000	2	1	0	2	0
44	162	7	10000	2	1	0	2	0
46	164	7	10000	2	1	0	2	0
45	165	7	10000	2	1	0	2	0
48	166	7	10000	2	1	0	2	0
51	167	7	10000	2	1	0	2	0
51	168	7	10000	2	1	0	2	0
50	169	7	10000	2	1	0	2	0
49	170	7	10000	2	1	0	2	0
49	171	7	10000	2	1	0	2	0
48	171	7	10000	2	1	0	2	0
49	172	7	10000	2	1	0	2	0
50	174	7	10000	2	1	0	2	0
51	175	7	10000	2	1	0	2	0
50	176	7	10000	2	1	0	2	0
48	177	7	10000	2	1	0	2	0
48	178	7	10000	2	1	0	2	0
50	179	7	10000	2	1	0	2	0
49	180	7	10000	2	1	0	2	0
51	181	7	10000	2	1	0	2	0
50	181	7	10000	2	1	0	2	0
49	182	7	10000	2	1	0	2	0
49	184	7	10000	2	1	0	2	0
48	185	7	10000	2	1	0	2	0
46	186	7	10000	2	1	0	2	0
44	187	7	10000	2	1	0	2	0
44	188	7	10000	2	1	0	2	0
45	189	7	10000	2	1	0	2	0
44	190	7	10000	2	1	0	2	0
44	191	7	10000	2	1	0	2	0
43	191	7	10000	2	1	0	2	0
41	192	7	10000	2	1	0	2	0
39	194	7	10000	2	1	0	2	0
38	195	7	10000	2	1	0	2	0
37	196	7	10000	2	1	0	2	0
37	197	7	10000	2	1	0	2	0
41	198	7	10000	2	1	0	2	0
40	199	7	10000	2	1	0	2	0
39	200	7	10000	2	1	0	2	0
39	201	7	10000	2	1	0	2	0
43	201	7	10000	2	1	0	2	0
46	202	7	10000	2	1	0	2	0
46	204	7	10000	2	1	0	2	0
46	205	7	10000	2	1	0	2	0
46	206	7	10000	2	1	0	2	0
44	207	7	10000	2	1	0	2	0
43	208	7	10000	2	1	0	2	0
42	209	7	10000	2	1	0	2	0
41	210	7	10000	2	1	0	2	0
41	211	7	10000	2	1	0	2	0
40	211	7	10000	2	1	0	2	0
39	212	7	10000	2	1	0	2	0
40	214	7	10000	2	1	0	2	0
41	215	7	10000	2	1	0	2	0
42	216	7	10000	2	1	0	2	0
43	217	7	10000	2	1	0	2	0
42	218	7	10000	2	1	0	2	0
40	219	7	10000	2	1	0	2	0
40	220	7	10000	2	1	0	2	0
39	221	7	10000	2	1	0	2	0
38	221	7	10000	2	1	0	2	0
40	222	7	10000	2	1	0	2	0
42	224	7	10000	2	1	0	2	0
40	225	7	10000	2	1	0	2	0
38	226	7	10000	2	1	0	2	0
38	227	7	10000	2	1	0	2	0
37	228	7	10000	2	1	0	2	0
36	229	7	10000	2	1	0	2	0
36	230	7	10000	2	1	0	2	0
37	231	7	10000	2	1	0	2	0
37	231	7	10000	2	1	0	2	0
37	232	7	10000	2	1	0	2	0
38	234	7	10000	2	1	0	2	0
39	235	7	10000	2	1	0	2	0
39	236	7	10000	2	1	0	2	0
40	237	7	10000	2	1	0	2	0
41	238	7	10000	2	1	0	2	0
42	239	7	10000	2	1	0	2	0
43	240	7	10000	2	1	0	2	0
43	241	7	10000	2	1	0	2	0
43	241	7	10000	2	1	0	2	0
44	242	7	10000	2	1	0	2	0
45	244	7	10000	2	1	0	2	0
44	245	7	10000	2	1	0	2	0
44	246	7	10000	2	1	0	2	0
43	247	7	10000	2	1	0	2	0
42	248	7	10000	2	1	0	2	0
42	249	7	10000	2	1	0	2	0
42	250	7	10000	2	1	0	2	0
46	251	7	10000	2	1	0	2	0
51	251	7	10000	2	1	0	2	0
55	252	7	10000	2	1	0	2	0
57	254	7	10000	2	1	0	2	0
62	255	7	10000	2	1	0	2	0
63	256	7	10000	2	1	0	2	0
67	257	7	10000	2	1	0	2	0
71	258	7	10000	2	1	0	2	0
73	259	7	10000	2	1	0	2	0
72	260	7	10000	2	1	0	2	0
69	261	7	10000	2	1	0	2	0
68	261	7	10000	2	1	0	2	0
72	262	7	10000	2	1	0	2	0
77	264	7	10000	2	1	0	2	0
76	265	7	10000	2	1	0	2	0
75	266	7	10000	2	1	0	2	0
75	267	7	10000	2	1	0	2	0
75	268	7	10000	2	1	0	2	0
75	269	7	10000	2	1	0	2	0
75	270	7	10000	2	1	0	2	0
76	271	7	10000	2	1	0	2	0
77	271	7	10000	2	1	0	2	0
75	272	7	10000	2	1	0	2	0
72	274	7	10000	2	1	0	2	0
73	275	7	10000	2	1	0	2	0
75	276	7	10000	2	1	0	2	0
77	277	7	10000	2	1	0	2	0
77	278	7	10000	2	1	0	2	0
79	279	7	10000	2	1	0	2	0
80	280	7	10000	2	1	0	2	0
84	281	7	10000	2	1	0	2	0
92	281	7	10000	2	1	0	2	0
100	282	7	10000	2	1	0	2	0
105	284	7	10000	2	1	0	2	0
105	285	7	10000	2	1	0	2	0
102	286	7	10000	2	1	0	2	0
98	287	7	10000	2	1	0	2	0
95	288	7	10000	2	1	0	2	0
92	289	7	10000	2	1	0	2	0
92	290	7	10000	2	1	0	2	0
89	291	7	10000	2	1	0	2	0
87	291	7	10000	2	1	0	2	0
82	292	7	10000	2	1	0	2	0
81	294	7	10000	2	1	0	2	0
81	295	7	10000	2	1	0	2	0
81	296	7	10000	2	1	0	2	0
79	297	7	10000	2	1	0	2	0
78	298	7	10000	2	1	0	2	0
79	299	7	10000	2	1	0	2	0
77	300	7	10000	2	1	0	2	0
74	301	7	10000	2	1	0	2	0
71	301	7	10000	2	1	0	2	0
72	302	7	10000	2	1	0	2	0
72	304	7	10000	2	1	0	2	0
74	305	7	10000	2	1	0	2	0
75	306	7	10000	2	1	0	2	0
77	307	7	10000	2	1	0	2	0
79	308	7	10000	2	1	0	2	0
76	309	7	10000	2	1	0	2	0
74	310	7	10000	2	1	0	2	0
74	311	7	10000	2	1	0	2	0
78	311	7	10000	2	1	0	2	0
78	312	7	10000	2	1	0	2	0
74	314	7	10000	2	1	0	2	0
73	315	7	10000	2	1	0	2	0
71	316	7	10000	2	1	0	2	0
68	317	7	10000	2	1	0	2	0
68	318	7	10000	2	1	0	2	0
66	319	7	10000	2	1	0	2	0
64	320	7	10000	2	1	0	2	0
61	321	7	10000	2	1	0	2	0
58	321	7	10000	2	1	0	2	0
57	322	7	10000	2	1	0	2	0
58	324	7	10000	2	1	0	2	0
56	325	7	10000	2	1	0	2	0
54	326	7	10000	2	1	0	2	0
53	327	7	10000	2	1	0	2	0
52	328	7	10000	2	1	0	2	0
53	329	7	10000	2	1	0	2	0
51	330	7	10000	2	1	0	2	0
51	331	7	10000	2	1	0	2	0
49	331	7	10000	2	1	0	2	0
46	332	7	10000	2	1	0	2	0
44	334	7	10000	2	1	0	2	0
45	335	7	10000	2	1	0	2	0
46	336	7	10000	2	1	0	2	0
44	337	7	10000	2	1	0	2	0
48	338	7	10000	2	1	0	2	0
50	339	7	10000	2	1	0	2	0
50	340	7	10000	2	1	0	2	0
50	341	7	10000	2	1	0	2	0
50	341	7	10000	2	1	0	2	0
54	342	7	10000	2	1	0	2	0
53	344	7	10000	2	1	0	2	0
52	345	7	10000	2	1	0	2	0
52	346	7	10000	2	1	0	2	0
54	347	7	10000	2	1	0	2	0
54	348	7	10000	2	1	0	2	0
53	349	7	10000	2	1	0	2	0
52	350	7	10000	2	1	0	2	0
51	351	7	10000	2	1	0	2	0
49	351	7	10000	2	1	0	2	0
46	352	7	10000	2	1	0	2	0
44	354	7	10000	2	1	0	2	0
45	355	7	10000	2	1	0	2	0
47	356	7	10000	2	1	0	2	0
46	357	7	10000	2	1	0	2	0
46	358	7	10000	2	1	0	2	0
46	359	7	10000	2	1	0	2	0
44	360	7	10000	2	1	0	2	0
44	361	7	10000	2	1	0	2	0
43	361	7	10000	2	1	0	2	0
44	362	7	10000	2	1	0	2	0
45	364	7	10000	2	1	0	2	0
44	365	7	10000	2	1	0	2	0
43	366	7	10000	2	1	0	2	0
43	367	7	10000	2	1	0	2	0
44	368	7	10000	2	1	0	2	0
42	369	7	10000	2	1	0	2	0
41	370	7	10000	2	1	0	2	0
42	371	7	10000	2	1	0	2	0
43	371	7	10000	2	1	0	2	0
41	372	7	10000	2	1	0	2	0
39	374	7	10000	2	1	0	2	0
40	375	7	10000	2	1	0	2	0
38	376	7	10000	2	1	0	2	0
39	377	7	10000	2	1	0	2	0
39	378	7	10000	2	1	0	2	0
39	379	7	10000	2	1	0	2	0
38	380	7	10000	2	1	0	2	0
40	381	7	10000	2	1	0	2	0
39	381	7	10000	2	1	0	2	0
39	382	7	10000	2	1	0	2	0
40	384	7	10000	2	1	0	2	0
40	385	7	10000	2	1	0	2	0
40	386	7	10000	2	1	0	2	0
39	387	7	10000	2	1	0	2	0
38	388	7	10000	2	1	0	2	0
36	389	7	10000	2	1	0	2	0
36	390	7	10000	2	1	0	2	0
38	391	7	10000	2	1	0	2	0
41	391	7	10000	2	1	0	2	0
40	392	7	10000	2	1	0	2	0
38	394	7	10000	2	1	0	2	0
37	395	7	10000	2	1	0	2	0
36	396	7	10000	2	1	0	2	0
37	397	7	10000	2	1	0	2	0
38	398	7	10000	2	1	0	2	0
37	399	7	10000	2	1	0	2	0
36	400	7	10000	2	1	0	2	0
35	401	7	10000	2	1	0	2	0
34	401	7	10000	2	1	0	2	0
36	402	7	10000	2	1	0	2	0
37	404	7	10000	2	1	0	2	0
36	405	7	10000	2	1	0	2	0
35	406	7	10000	2	1	0	2	0
34	407	7	10000	2	1	0	2	0
36	408	7	10000	2	1	0	2	0
35	409	7	10000	2	1	0	2	0
34	410	7	10000	2	1	0	2	0
34	411	7	10000	2	1	0	2	0
35	411	7	10000	2	1	0	2	0
32	412	7	10000	2	1	0	2	0
32	414	7	10000	2	1	0	2	0
31	415	7	10000	2	1	0	2	0
29	416	7	10000	2	1	0	2	0
30	417	7	10000	2	1	0	2	0
31	418	7	10000	2	1	0	2	0
30	419	7	10000	2	1	0	2	0
29	420	7	10000	2	1	0	2	0
29	421	7	10000	2	1	0	2	0
28	421	7	10000	2	1	0	2	0
29	422	7	10000	2	1	0	2	0
30	424	7	10000	2	1	0	2	0
32	425	7	10000	2	1	0	2	0
31	426	7	10000	2	1	0	2	0
30	427	7	10000	2	1	0	2	0
33	428	7	10000	2	1	0	2	0
38	429	7	10000	2	1	0	2	0
39	430	7	10000	2	1	0	2	0
40	431	7	10000	2	1	0	2	0
41	431	7	10000	2	1	0	2	0
42	432	7	10000	2	1	0	2	0
44	434	7	10000	2	1	0	2	0
43	435	7	10000	2	1	0	2	0
42	436	7	10000	2	1	0	2	0
40	437	7	10000	2	1	0	2	0
40	438	7	10000	2	1	0	2	0
39	439	7	10000	2	1	0	2	0
37	440	7	10000	2	1	0	2	0
36	441	7	10000	2	1	0	2	0
36	441	7	10000	2	1	0	2	0
39	442	7	10000	2	1	0	2	0
39	444	7	10000	2	1	0	2	0
38	445	7	10000	2	1	0	2	0
37	446	7	10000	2	1	0	2	0
41	447	7	10000	2	1	0	2	0
44	448	7	10000	2	1	0	2	0
46	449	7	10000	2	1	0	2	0
47	450	7	10000	2	1	0	2	0
48	451	7	10000	2	1	0	2	0
47	451	7	10000	2	1	0	2	0
44	452	7	10000	2	1	0	2	0
43	454	7	10000	2	1	0	2	0
42	455	7	10000	2	1	0	2	0
42	456	7	10000	2	1	0	2	0
41	457	7	10000	2	1	0	2	0
42	458	7	10000	2	1	0	2	0
43	459	7	10000	2	1	0	2	0
42	460	7	10000	2	1	0	2	0
44	461	7	10000	2	1	0	2	0
48	461	7	10000	2	1	0	2	0
54	462	7	10000	2	1	0	2	0
54	464	7	10000	2	1	0	2	0
53	465	7	10000	2	1	0	2	0
51	466	7	10000	2	1	0	2	0
49	467	7	10000	2	1	0	2	0
47	468	7	10000	2	1	0	2	0
48	469	7	10000	2	1	0	2	0
50	470	7	10000	2	1	0	2	0
51	471	7	10000	2	1	0	2	0
50	471	7	10000	2	1	0	2	0
46	472	7	10000	2	1	0	2	0
46	474	7	10000	2	1	0	2	0
44	475	7	10000	2	1	0	2	0
43	476	7	10000	2	1	0	2	0
41	477	7	10000	2	1	0	2	0
41	478	7	10000	2	1	0	2	0
40	479	7	10000	2	1	0	2	0
39	480	7	10000	2	1	0	2	0
37	481	7	10000	2	1	0	2	0
37	481	7	10000	2	1	0	2	0
38	482	7	10000	2	1	0	2	0
37	484	7	10000	2	1	0	2	0
35	485	7	10000	2	1	0	2	0
34	486	7	10000	2	1	0	2	0
32	487	7	10000	2	1	0	2	0
33	488	7	10000	2	1	0	2	0
34	489	7	10000	2	1	0	2	0
37	490	7	10000	2	1	0	2	0
39	491	7	10000	2	1	0	2	0
39	491	7	10000	2	1	0	2	0
38	492	7	10000	2	1	0	2	0
36	494	7	10000	2	1	0	2	0
36	495	7	10000	2	1	0	2	0
37	496	7	10000	2	1	0	2	0
38	497	7	10000	2	1	0	2	0
38	498	7	10000	2	1	0	2	0
38	499	7	10000	2	1	0	2	0
39	500	7	10000	2	1	0	2	0
43	501	7	10000	2	1	0	2	0
46	501	7	10000	2	1	0	2	1
49	502	7	10000	2	1	0	2	1
49	504	7	10000	2	1	0	2	1
46	505	7	10000	2	1	0	2	1
44	506	7	10000	2	1	0	2	1
43	507	7	10000	2	1	0	2	1
41	508	7	10000	2	1	0	2	1
42	509	7	10000	2	1	0	2	1
41	510	7	10000	2	1	0	2	1
41	511	7	10000	2	1	0	2	1
44	511	7	10000	2	1	0	2	1
46	512	7	10000	2	1	0	2	1
49	514	7	10000	2	1	0	2	1
49	515	7	10000	2	1	0	2	1
50	516	7	10000	2	1	0	2	1
52	517	7	10000	2	1	0	2	1
53	518	7	10000	2	1	0	2	1
55	519	7	10000	2	1	0	2	1
54	520	7	10000	2	1	0	2	1
52	521	7	10000	2	1	0	2	1
49	521	7	10000	2	1	0	2	1
49	522	7	10000	2	1	0	2	1
49	524	7	10000	2	1	0	2	1
48	525	7	10000	2	1	0	2	1
47	526	7	10000	2	1	0	2	1
45	527	7	10000	2	1	0	2	1
43	528	7	10000	2	1	0	2	1
43	529	7	10000	2	1	0	2	1
44	530	7	10000	2	1	0	2	1
46	531	7	10000	2	1	0	2	1
45	531	7	10000	2	1	0	2	1
43	532	7	10000	2	1	0	2	1
41	534	7	10000	2	1	0	2	1
42	535	7	10000	2	1	0	2	1
43	536	7	10000	2	1	0	2	1
43	537	7	10000	2	1	0	2	1
42	538	7	10000	2	1	0	2	1
42	539	7	10000	2	1	0	2	1
40	540	7	10000	2	1	0	2	1
38	541	7	10000	2	1	0	2	1
37	541	7	10000	2	1	0	2	1
37	542	7	10000	2	1	0	2	1
38	544	7	10000	2	1	0	2	1
40	545	7	10000	2	1	0	2	1
39	546	7	10000	2	1	0	2	1
42	547	7	10000	2	1	0	2	1
42	548	7	10000	2	1	0	2	1
43	549	7	10000	2	1	0	2	1
43	550	7	10000	2	1	0	2	1
44	551	7	10000	2	1	0	2	1
44	551	7	10000	2	1	0	2	0
41	552	7	10000	2	1	0	2	0
41	554	7	10000	2	1	0	2	0
40	555	7	10000	2	1	0	2	0
39	556	7	10000	2	1	0	2	0
38	557	7	10000	2	1	0	2	0
37	558	7	10000	2	1	0	2	0
36	559	7	10000	2	1	0	2	0
34	560	7	10000	2	1	0	2	0
34	561	7	10000	2	1	0	2	0
32	561	7	10000	2	1	0	2	0
34	562	7	10000	2	1	0	2	0
35	564	7	10000	2	1	0	2	0
35	565	7	10000	2	1	0	2	0
34	566	7	10000	2	1	0	2	0
32	567	7	10000	2	1	0	2	0
32	568	7	10000	2	1	0	2	0
32	569	7	10000	2	1	0	2	0
34	570	7	10000	2	1	0	2	0
34	571	7	10000	2	1	0	2	0
33	571	7	10000	2	1	0	2	0
31	572	7	10000	2	1	0	2	0
31	574	7	10000	2	1	0	2	0
31	575	7	10000	2	1	0	2	0
30	576	7	10000	2	1	0	2	0
29	577	7	10000	2	1	0	2	0
31	578	7	10000	2	1	0	2	0
35	579	7	10000	2	1	0	2	0
38	580	7	10000	2	1	0	2	0
37	581	7	10000	2	1	0	2	0
36	581	7	10000	2	1	0	2	0
39	582	7	10000	2	1	0	2	0
41	584	7	10000	2	1	0	2	0
42	585	7	10000	2	1	0	2	0
47	586	7	10000	2	1	0	2	0
48	587	7	10000	2	1	0	2	0
48	588	7	10000	2	1	0	2	0
46	589	7	10000	2	1	0	2	0
50	590	7	10000	2	1	0	2	0
56	591	7	10000	2	1	0	2	0
62	591	7	10000	2	1	0	2	0
82	592	7	10000	2	1	0	2	0
96	594	7	10000	2	1	0	2	0
98	595	7	10000	2	1	0	2	0
107	596	7	10000	2	1	0	2	0
110	597	7	10000	2	1	0	2	0
134	598	7	10000	2	1	0	2	0
169	599	7	10000	2	1	0	2	0
197	600	7	10000	2	1	0	2	0
202	601	7	10000	2	1	0	2	0
236	601	7	10000	2	1	0	2	0
278	602	7	10000	2	1	0	2	0
284	604	7	10000	2	1	0	2	0
279	605	7	10000	2	1	0	2	0
275	606	7	10000	2	1	0	2	0
306	607	7	10000	2	1	0	2	0
327	608	7	10000	2	1	0	2	0
331	609	7	10000	2	1	0	2	0
330	610	7	10000	2	1	0	2	0
321	611	7	10000	2	1	0	2	0
315	611	7	10000	2	1	0	2	0
306	612	7	10000	2	1	0	2	0
310	614	7	10000	2	1	0	2	0
312	615	7	10000	2	1	0	2	0
306	616	7	10000	2	1	0	2	0
300	617	7	10000	2	1	0	2	0
329	618	7	10000	2	1	0	2	0
329	619	7	10000	2	1	0	2	0
345	620	7	10000	2	1	0	2	0
396	621	7	10000	2	1	0	2	0
399	621	7	10000	2	1	0	2	0
407	622	7	10000	2	1	0	2	0
428	624	7	10000	2	1	0	2	0
445	625	7	10000	2	1	0	2	0
454	626	7	10000	2	1	0	2	0
463	627	7	10000	2	1	0	2	0
455	628	7	10000	2	1	0	2	0
444	629	7	10000	2	1	0	2	0
435	630	7	10000	2	1	0	2	0
424	631	7	10000	2	1	0	2	0
417	631	7	10000	2	1	0	2	0
414	632	7	10000	2	1	0	2	0
413	634	7	10000	2	1	0	2	0
413	635	7	10000	2	1	0	2	0
407	636	7	10000	2	1	0	2	0
399	637	7	10000	2	1	0	2	0
395	638	7	10000	2	1	0	2	0
395	639	7	10000	2	1	0	2	0
396	640	7	10000	2	1	0	2	0
395	641	7	10000	2	1	0	2	0
395	641	7	10000	2	1	0	2	0
396	642	7	10000	2	1	0	2	0
396	644	7	10000	2	1	0	2	0
392	645	7	10000	2	1	0	2	0
385	646	7	10000	2	1	0	2	0
378	647	7	10000	2	1	0	2	0
374	648	7	10000	2	1	0	2	0
369	649	7	10000	2	1	0	2	0
364	650	7	10000	2	1	0	2	0
354	651	7	10000	2	1	0	2	0
339	651	7	10000	2	1	0	2	0
322	652	7	10000	2	1	0	2	0
309	654	7	10000	2	1	0	2	0
297	655	7	10000	2	1	0	2	0
287	656	7	10000	2	1	0	2	0
280	657	7	10000	2	1	0	2	0
277	658	7	10000	2	1	0	2	0
274	659	7	10000	2	1	0	2	0
267	660	7	10000	2	1	0	2	0
260	661	7	10000	2	1	0	2	0
254	661	7	10000	2	1	0	2	0
252	662	7	10000	2	1	0	2	0
254	664	7	10000	2	1	0	2	0
252	665	7	10000	2	1	0	2	0
249	666	7	10000	2	1	0	2	0
246	667	7	10000	2	1	0	2	0
246	668	7	10000	2	1	0	2	0
250	669	7	10000	2	1	0	2	0
257	670	7	10000	2	1	0	2	0
264	671	7	10000	2	1	0	2	0
270	671	7	10000	2	1	0	2	0
273	672	7	10000	2	1	0	2	0
275	674	7	10000	2	1	0	2	0
278	675	7	10000	2	1	0	2	0
286	676	7	10000	2	1	0	2	0
298	677	7	10000	2	1	0	2	0
312	678	7	10000	2	1	0	2	0
327	679	7	10000	2	1	0	2	0
336	680	7	10000	2	1	0	2	0
337	681	7	10000	2	1	0	2	0
334	681	7	10000	2	1	0	2	0
335	682	7	10000	2	1	0	2	0
329	684	7	10000	2	1	0	2	0
319	685	7	10000	2	1	0	2	0
309	686	7	10000	2	1	0	2	0
301	687	7	10000	2	1	0	2	0
297	688	7	10000	2	1	0	2	0
296	689	7	10000	2	1	0	2	0
292	690	7	10000	2	1	0	2	0
288	691	7	10000	2	1	0	2	0
286	691	7	10000	2	1	0	2	0
280	692	7	10000	2	1	0	2	0
272	694	7	10000	2	1	0	2	0
261	695	7	10000	2	1	0	2	0
252	696	7	10000	2	1	0	2	0
246	697	7	10000	2	1	0	2	0
238	698	7	10000	2	1	0	2	0
231	699	7	10000	2	1	0	2	0
241	700	7	10000	2	1	0	2	0
249	701	7	10000	2	1	0	2	0
243	701	7	10000	2	1	0	2	0
249	702	7	10000	2	1	0	2	0
248	704	7	10000	2	1	0	2	0
243	705	7	10000	2	1	0	2	0
238	706	7	10000	2	1	0	2	0
232	707	7	10000	2	1	0	2	0
220	708	7	10000	2	1	0	2	0
215	709	7	10000	2	1	0	2	0
209	710	7	10000	2	1	0	2	0
206	711	7	10000	2	1	0	2	0
199	711	7	10000	2	1	0	2	0
189	712	7	10000	2	1	0	2	0
192	714	7	10000	2	1	0	2	0
204	715	7	10000	2	1	0	2	0
212	716	7	10000	2	1	0	2	0
209	717	7	10000	2	1	0	2	0
226	718	7	10000	2	1	0	2	0
234	719	7	10000	2	1	0	2	0
241	720	7	10000	2	1	0	2	0
236	721	7	10000	2	1	0	2	0
228	721	7	10000	2	1	0	2	0
234	722	7	10000	2	1	0	2	0
249	724	7	10000	2	1	0	2	0
251	725	7	10000	2	1	0	2	0
244	726	7	10000	2	1	0	2	0
237	727	7	10000	2	1	0	2	0
255	728	7	10000	2	1	0	2	0
285	729	7	10000	2	1	0	2	0
305	730	7	10000	2	1	0	2	0
311	731	7	10000	2	1	0	2	0
306	731	7	10000	2	1	0	2	0
307	732	7	10000	2	1	0	2	0
305	734	7	10000	2	1	0	2	0
296	735	7	10000	2	1	0	2	0
285	736	7	10000	2	1	0	2	0
276	737	7	10000	2	1	0	2	0
270	738	7	10000	2	1	0	2	0
268	739	7	10000	2	1	0	2	0
256	740	7	10000	2	1	0	2	0
260	741	7	10000	2	1	0	2	0
264	741	7	10000	2	1	0	2	0
259	742	7	10000	2	1	0	2	0
254	744	7	10000	2	1	0	2	0
247	745	7	10000	2	1	0	2	0
242	746	7	10000	2	1	0	2	0
234	747	7	10000	2	1	0	2	0
225	748	7	10000	2	1	0	2	0
220	749	7	10000	2	1	0	2	0
221	750	7	10000	2	1	0	2	0
216	751	7	10000	2	1	0	2	0
211	761	7	10000	2	1	0	2	0
207	762	7	10000	2	1	0	2	0
200	763	7	10000	2	1	0	2	0
195	764	7	10000	2	1	0	2	0
194	765	7	10000	2	1	0	2	0
193	766	7	10000	2	1	0	2	0
192	767	7	10000	2	1	0	2	0
187	768	7	10000	2	1	0	2	0
180	769	7	10000	2	1	0	2	0
175	770	7	10000	2	1	0	2	0
168	771	7	10000	2	1	0	2	0
163	772	7	10000	2	1	0	2	0
159	769	7	10000	2	1	0	2	0
153	770	7	10000	2	1	0	2	0
148	771	7	10000	2	1	0	2	0
147	772	7	10000	2	1	0	2	0
144	773	7	10000	2	1	0	2	0
144	774	7	10000	2	1	0	2	0
145	774	7	10000	2	1	0	2	0
143	775	7	10000	2	1	0	2	0
142	776	7	10000	2	1	0	2	0
136	777	7	10000	2	1	0	2	0
133	778	7	10000	2	1	0	2	0
130	779	7	10000	2	1	0	2	0
133	783	7	10000	2	1	0	2	0
139	784	7	10000	2	1	0	2	0
137	785	7	10000	2	1	0	2	0
132	786	7	10000	2	1	0	2	0
129	787	7	10000	2	1	0	2	0
129	788	7	10000	2	1	0	2	0
125	789	7	10000	2	1	0	2	0
129	790	7	10000	2	1	0	2	0
135	791	7	10000	2	1	0	2	0
137	792	7	10000	2	1	0	2	0
135	789	7	10000	2	1	0	2	0
140	790	7	10000	2	1	0	2	0
139	791	7	10000	2	1	0	2	0
141	792	7	10000	2	1	0	2	0
152	793	7	10000	2	1	0	2	0
150	794	7	10000	2	1	0	2	0
155	793	7	10000	2	1	0	2	0
160	794	7	10000	2	1	0	2	0
163	795	7	10000	2	1	0	2	0
159	796	7	10000	2	1	0	2	0
159	799	7	10000	2	1	0	2	0
161	800	7	10000	2	1	0	2	0
156	801	7	10000	2	1	0	2	0
152	802	7	10000	2	1	0	2	0
146	804	7	10000	2	1	0	2	0
143	805	7	10000	2	1	0	2	0
138	806	7	10000	2	1	0	2	0
135	807	7	10000	2	1	0	2	0
134	808	7	10000	2	1	0	2	0
138	809	7	10000	2	1	0	2	0
135	811	7	10000	2	1	0	2	0
136	812	7	10000	2	1	0	2	0
133	813	7	10000	2	1	0	2	0
133	814	7	10000	2	1	0	2	0
132	815	7	10000	2	1	0	2	0
132	816	7	10000	2	1	0	2	0
128	817	7	10000	2	1	0	2	0
121	818	7	10000	2	1	0	2	0
116	817	7	10000	2	1	0	2	0
114	818	7	10000	2	1	0	2	0
110	819	7	10000	2	1	0	2	0
109	820	7	10000	2	1	0	2	0
108	821	7	10000	2	1	0	2	0
105	822	7	10000	2	1	0	2	0
102	823	7	10000	2	1	0	2	0
106	824	7	10000	2	1	0	2	0
105	825	7	10000	2	1	0	2	0
111	826	7	10000	2	1	0	2	0
110	828	7	10000	2	1	0	2	0
108	829	7	10000	2	1	0	2	0
105	830	7	10000	2	1	0	2	0
102	831	7	10000	2	1	0	2	0
103	832	7	10000	2	1	0	2	0
100	833	7	10000	2	1	0	2	0
98	832	7	10000	2	1	0	2	0
100	833	7	10000	2	1	0	2	0
100	834	7	10000	2	1	0	2	0
95	835	7	10000	2	1	0	2	0
97	838	7	10000	2	1	0	2	0
97	839	7	10000	2	1	0	2	0
95	840	7	10000	2	1	0	2	0
98	841	7	10000	2	1	0	2	0
99	842	7	10000	2	1	0	2	0
103	843	7	10000	2	1	0	2	0
101	843	7	10000	2	1	0	2	0
97	844	7	10000	2	1	0	2	0
94	845	7	10000	2	1	0	2	0
94	846	7	10000	2	1	0	2	0
92	847	7	10000	2	1	0	2	0
89	848	7	10000	2	1	0	2	0
87	849	7	10000	2	1	0	2	0
87	850	7	10000	2	1	0	2	0
101	851	7	10000	2	1	0	2	0
109	852	7	10000	2	1	0	2	0
107	853	7	10000	2	1	0	2	0
105	854	7	10000	2	1	0	2	0
102	854	7	10000	2	1	0	2	0
102	855	7	10000	2	1	0	2	0
103	856	7	10000	2	1	0	2	0
107	857	7	10000	2	1	0	2	0
104	859	7	10000	2	1	0	2	0
108	860	7	10000	2	1	0	2	0
125	861	7	10000	2	1	0	2	0
131	862	7	10000	2	1	0	2	0
136	863	7	10000	2	1	0	2	0
136	864	7	10000	2	1	0	2	0
135	865	7	10000	2	1	0	2	0
145	866	7	10000	2	1	0	2	0
149	867	7	10000	2	1	0	2	0
147	868	7	10000	2	1	0	2	0
141	869	7	10000	2	1	0	2	0
141	870	7	10000	2	1	0	2	0
145	870	7	10000	2	1	0	2	0
140	871	7	10000	2	1	0	2	0
139	872	7	10000	2	1	0	2	0
136	873	7	10000	2	1	0	2	0
137	871	7	10000	2	1	0	2	0
130	872	7	10000	2	1	0	2	0
126	874	7	10000	2	1	0	2	0
126	875	7	10000	2	1	0	2	0
124	876	7	10000	2	1	0	2	0
121	877	7	10000	2	1	0	2	0
120	878	7	10000	2	1	0	2	0
119	879	7	10000	2	1	0	2	0
116	880	7	10000	2	1	0	2	0
114	881	7	10000	2	1	0	2	0
109	882	7	10000	2	1	0	2	0
110	883	7	10000	2	1	0	2	0
106	884	7	10000	2	1	0	2	0
104	885	7	10000	2	1	0	2	0
101	886	7	10000	2	1	0	2	0
99	887	7	10000	2	1	0	2	0
104	888	7	10000	2	1	0	2	0
103	889	7	10000	2	1	0	2	0
107	890	7	10000	2	1	0	2	0
107	891	7	10000	2	1	0	2	0
104	892	7	10000	2	1	0	2	0
105	893	7	10000	2	1	0	2	0
102	894	7	10000	2	1	0	2	0
99	895	7	10000	2	1	0	2	0
96	896	7	10000	2	1	0	2	0
95	897	7	10000	2	1	0	2	0
92	898	7	10000	2	1	0	2	0
91	899	7	10000	2	1	0	2	0
88	900	7	10000	2	1	0	2	0
88	901	7	10000	2	1	0	2	0
87	902	7	10000	2	1	0	2	0
88	903	7	10000	2	1	0	2	0
88	904	7	10000	2	1	0	2	0
84	905	7	10000	2	1	0	2	0
82	906	7	10000	2	1	0	2	0
83	907	7	10000	2	1	0	2	0
84	908	7	10000	2	1	0	2	0
82	909	7	10000	2	1	0	2	0
88	910	7	10000	2	1	0	2	0
92	911	7	10000	2	1	0	2	0
98	912	7	10000	2	1	0	2	0
99	913	7	10000	2	1	0	2	0
97	914	7	10000	2	1	0	2	0
101	915	7	10000	2	1	0	2	0
97	916	7	10000	2	1	0	2	0
94	917	7	10000	2	1	0	2	0
95	918	7	10000	2	1	0	2	0
100	919	7	10000	2	1	0	2	0
98	920	7	10000	2	1	0	2	0
94	921	7	10000	2	1	0	2	0
91	922	7	10000	2	1	0	2	0
89	923	7	10000	2	1	0	2	0
92	924	7	10000	2	1	0	2	0
91	925	7	10000	2	1	0	2	0
88	926	7	10000	2	1	0	2	0
86	927	7	10000	2	1	0	2	0
92	928	7	10000	2	1	0	2	0
91	929	7	10000	2	1	0	2	0
91	930	7	10000	2	1	0	2	0
90	931	7	10000	2	1	0	2	0
87	932	7	10000	2	1	0	2	0
88	933	7	10000	2	1	0	2	0
92	934	7	10000	2	1	0	2	0
90	935	7	10000	2	1	0	2	0
94	936	7	10000	2	1	0	2	0
96	937	7	10000	2	1	0	2	0
94	938	7	10000	2	1	0	2	0
91	939	7	10000	2	1	0	2	0
89	940	7	10000	2	1	0	2	0
88	941	7	10000	2	1	0	2	0
86	942	7	10000	2	1	0	2	0
86	943	7	10000	2	1	0	2	0
84	944	7	10000	2	1	0	2	0
86	945	7	10000	2	1	0	2	0
84	946	7	10000	2	1	0	2	0
82	947	7	10000	2	1	0	2	0
82	948	7	10000	2	1	0	2	0
82	949	7	10000	2	1	0	2	0
82	950	7	10000	2	1	0	2	0
79	951	7	10000	2	1	0	2	0
81	952	7	10000	2	1	0	2	0
80	953	7	10000	2	1	0	2	0
82	954	7	10000	2	1	0	2	0
90	955	7	10000	2	1	0	2	0
89	956	7	10000	2	1	0	2	0
89	957	7	10000	2	1	0	2	0
86	958	7	10000	2	1	0	2	0
89	959	7	10000	2	1	0	2	0
89	960	7	10000	2	1	0	2	0
87	961	7	10000	2	1	0	2	0
85	962	7	10000	2	1	0	2	0
87	963	7	10000	2	1	0	2	0
89	964	7	10000	2	1	0	2	0
86	965	7	10000	2	1	0	2	0
84	966	7	10000	2	1	0	2	0
84	967	7	10000	2	1	0	2	0
85	968	7	10000	2	1	0	2	0
90	969	7	10000	2	1	0	2	0
95	970	7	10000	2	1	0	2	0
102	971	7	10000	2	1	0	2	0
113	972	7	10000	2	1	0	2	0
115	973	7	10000	2	1	0	2	0
116	974	7	10000	2	1	0	2	0
120	975	7	10000	2	1	0	2	0
122	976	7	10000	2	1	0	2	0
118	977	7	10000	2	1	0	2	0
119	978	7	10000	2	1	0	2	0
123	979	7	10000	2	1	0	2	0
123	980	7	10000	2	1	0	2	0
118	981	7	10000	2	1	0	2	0
120	982	7	10000	2	1	0	2	0
120	983	7	10000	2	1	0	2	0
116	984	7	10000	2	1	0	2	0
113	985	7	10000	2	1	0	2	0
107	986	7	10000	2	1	0	2	0
106	987	7	10000	2	1	0	2	0
106	988	7	10000	2	1	0	2	0
105	989	7	10000	2	1	0	2	0
103	990	7	10000	2	1	0	2	0
103	991	7	10000	2	1	0	2	0
100	992	7	10000	2	1	0	2	0
94	993	7	10000	2	1	0	2	0
92	994	7	10000	2	1	0	2	0
88	995	7	10000	2	1	0	2	0
88	996	7	10000	2	1	0	2	0
86	997	7	10000	2	1	0	2	0
92	998	7	10000	2	1	0	2	0
90	999	7	10000	2	1	0	2	0
87	1000	7	10000	2	1	0	2	0
83	1001	7	10000	2	1	0	2	0
55	2	7	10000	3	1	0	3	0
55	3	7	10000	3	1	0	3	0
56	4	7	10000	3	1	0	3	0
56	5	7	10000	3	1	0	3	0
57	6	7	10000	3	1	0	3	0
61	7	7	10000	3	1	0	3	0
62	8	7	10000	3	1	0	3	0
62	9	7	10000	3	1	0	3	0
60	10	7	10000	3	1	0	3	0
60	11	7	10000	3	1	0	3	0
58	12	7	10000	3	1	0	3	0
58	13	7	10000	3	1	0	3	0
54	14	7	10000	3	1	0	3	0
55	15	7	10000	3	1	0	3	0
55	16	7	10000	3	1	0	3	0
55	17	7	10000	3	1	0	3	0
55	18	7	10000	3	1	0	3	0
54	19	7	10000	3	1	0	3	0
54	20	7	10000	3	1	0	3	0
53	21	7	10000	3	1	0	3	0
51	22	7	10000	3	1	0	3	0
50	23	7	10000	3	1	0	3	0
50	24	7	10000	3	1	0	3	0
49	25	7	10000	3	1	0	3	0
46	26	7	10000	3	1	0	3	0
45	27	7	10000	3	1	0	3	0
44	28	7	10000	3	1	0	3	0
43	29	7	10000	3	1	0	3	0
41	30	7	10000	3	1	0	3	0
43	31	7	10000	3	1	0	3	0
45	32	7	10000	3	1	0	3	0
44	33	7	10000	3	1	0	3	0
42	34	7	10000	3	1	0	3	0
41	35	7	10000	3	1	0	3	0
41	36	7	10000	3	1	0	3	0
39	37	7	10000	3	1	0	3	0
39	38	7	10000	3	1	0	3	0
42	39	7	10000	3	1	0	3	0
43	40	7	10000	3	1	0	3	0
41	41	7	10000	3	1	0	3	0
39	42	7	10000	3	1	0	3	0
39	43	7	10000	3	1	0	3	0
47	44	7	10000	3	1	0	3	0
52	45	7	10000	3	1	0	3	0
54	46	7	10000	3	1	0	3	0
52	47	7	10000	3	1	0	3	0
50	48	7	10000	3	1	0	3	0
48	49	7	10000	3	1	0	3	0
48	50	7	10000	3	1	0	3	0
49	51	7	10000	3	1	0	3	0
51	52	7	10000	3	1	0	3	0
51	53	7	10000	3	1	0	3	0
48	54	7	10000	3	1	0	3	0
48	55	7	10000	3	1	0	3	0
46	56	7	10000	3	1	0	3	0
45	57	7	10000	3	1	0	3	0
44	58	7	10000	3	1	0	3	0
44	59	7	10000	3	1	0	3	0
42	60	7	10000	3	1	0	3	0
40	61	7	10000	3	1	0	3	0
38	62	7	10000	3	1	0	3	0
39	63	7	10000	3	1	0	3	0
41	64	7	10000	3	1	0	3	0
41	65	7	10000	3	1	0	3	0
41	66	7	10000	3	1	0	3	0
39	67	7	10000	3	1	0	3	0
40	68	7	10000	3	1	0	3	0
38	69	7	10000	3	1	0	3	0
37	70	7	10000	3	1	0	3	0
36	71	7	10000	3	1	0	3	0
36	72	7	10000	3	1	0	3	0
36	73	7	10000	3	1	0	3	0
33	74	7	10000	3	1	0	3	0
34	75	7	10000	3	1	0	3	0
34	76	7	10000	3	1	0	3	0
34	77	7	10000	3	1	0	3	0
33	78	7	10000	3	1	0	3	0
35	79	7	10000	3	1	0	3	0
35	80	7	10000	3	1	0	3	0
35	81	7	10000	3	1	0	3	0
34	82	7	10000	3	1	0	3	0
34	83	7	10000	3	1	0	3	0
36	84	7	10000	3	1	0	3	0
36	85	7	10000	3	1	0	3	0
36	86	7	10000	3	1	0	3	0
35	87	7	10000	3	1	0	3	0
34	88	7	10000	3	1	0	3	0
33	89	7	10000	3	1	0	3	0
32	90	7	10000	3	1	0	3	0
32	91	7	10000	3	1	0	3	0
31	92	7	10000	3	1	0	3	0
33	93	7	10000	3	1	0	3	0
34	94	7	10000	3	1	0	3	0
38	95	7	10000	3	1	0	3	0
37	96	7	10000	3	1	0	3	0
37	97	7	10000	3	1	0	3	0
37	98	7	10000	3	1	0	3	0
38	99	7	10000	3	1	0	3	0
39	100	7	10000	3	1	0	3	0
37	101	7	10000	3	1	0	3	0
36	102	7	10000	3	1	0	3	0
36	103	7	10000	3	1	0	3	0
38	104	7	10000	3	1	0	3	0
36	105	7	10000	3	1	0	3	0
34	106	7	10000	3	1	0	3	0
35	107	7	10000	3	1	0	3	0
36	108	7	10000	3	1	0	3	0
36	109	7	10000	3	1	0	3	0
35	110	7	10000	3	1	0	3	0
37	111	7	10000	3	1	0	3	0
37	112	7	10000	3	1	0	3	0
37	113	7	10000	3	1	0	3	0
36	114	7	10000	3	1	0	3	0
36	115	7	10000	3	1	0	3	0
36	116	7	10000	3	1	0	3	0
36	117	7	10000	3	1	0	3	0
34	118	7	10000	3	1	0	3	0
34	119	7	10000	3	1	0	3	0
34	120	7	10000	3	1	0	3	0
33	121	7	10000	3	1	0	3	0
32	122	7	10000	3	1	0	3	0
33	123	7	10000	3	1	0	3	0
36	124	7	10000	3	1	0	3	0
36	125	7	10000	3	1	0	3	0
35	126	7	10000	3	1	0	3	0
34	127	7	10000	3	1	0	3	0
34	128	7	10000	3	1	0	3	0
36	129	7	10000	3	1	0	3	0
37	130	7	10000	3	1	0	3	0
41	131	7	10000	3	1	0	3	0
45	132	7	10000	3	1	0	3	0
44	133	7	10000	3	1	0	3	0
41	134	7	10000	3	1	0	3	0
41	135	7	10000	3	1	0	3	0
40	136	7	10000	3	1	0	3	0
42	137	7	10000	3	1	0	3	0
47	138	7	10000	3	1	0	3	0
48	139	7	10000	3	1	0	3	0
47	140	7	10000	3	1	0	3	0
46	141	7	10000	3	1	0	3	0
48	142	7	10000	3	1	0	3	0
49	143	7	10000	3	1	0	3	0
52	144	7	10000	3	1	0	3	0
51	145	7	10000	3	1	0	3	0
48	146	7	10000	3	1	0	3	0
48	147	7	10000	3	1	0	3	0
48	148	7	10000	3	1	0	3	0
47	149	7	10000	3	1	0	3	0
46	150	7	10000	3	1	0	3	0
47	151	7	10000	3	1	0	3	0
48	152	7	10000	3	1	0	3	0
49	153	7	10000	3	1	0	3	0
47	154	7	10000	3	1	0	3	0
46	155	7	10000	3	1	0	3	0
45	156	7	10000	3	1	0	3	0
44	157	7	10000	3	1	0	3	0
44	158	7	10000	3	1	0	3	0
47	159	7	10000	3	1	0	3	0
51	160	7	10000	3	1	0	3	0
49	161	7	10000	3	1	0	3	0
49	162	7	10000	3	1	0	3	0
49	163	7	10000	3	1	0	3	0
54	164	7	10000	3	1	0	3	0
52	165	7	10000	3	1	0	3	0
51	166	7	10000	3	1	0	3	0
49	167	7	10000	3	1	0	3	0
48	168	7	10000	3	1	0	3	0
47	169	7	10000	3	1	0	3	0
46	170	7	10000	3	1	0	3	0
46	171	7	10000	3	1	0	3	0
46	172	7	10000	3	1	0	3	0
46	173	7	10000	3	1	0	3	0
44	174	7	10000	3	1	0	3	0
43	175	7	10000	3	1	0	3	0
43	176	7	10000	3	1	0	3	0
42	177	7	10000	3	1	0	3	0
40	178	7	10000	3	1	0	3	0
39	179	7	10000	3	1	0	3	0
40	180	7	10000	3	1	0	3	0
38	181	7	10000	3	1	0	3	0
38	182	7	10000	3	1	0	3	0
38	183	7	10000	3	1	0	3	0
40	184	7	10000	3	1	0	3	0
39	185	7	10000	3	1	0	3	0
38	186	7	10000	3	1	0	3	0
37	187	7	10000	3	1	0	3	0
36	188	7	10000	3	1	0	3	0
37	189	7	10000	3	1	0	3	0
38	190	7	10000	3	1	0	3	0
39	191	7	10000	3	1	0	3	0
38	192	7	10000	3	1	0	3	0
38	193	7	10000	3	1	0	3	0
34	194	7	10000	3	1	0	3	0
35	195	7	10000	3	1	0	3	0
34	196	7	10000	3	1	0	3	0
37	197	7	10000	3	1	0	3	0
39	198	7	10000	3	1	0	3	0
39	199	7	10000	3	1	0	3	0
40	200	7	10000	3	1	0	3	0
40	201	7	10000	3	1	0	3	0
41	202	7	10000	3	1	0	3	0
42	203	7	10000	3	1	0	3	0
44	204	7	10000	3	1	0	3	0
43	205	7	10000	3	1	0	3	0
45	206	7	10000	3	1	0	3	0
46	207	7	10000	3	1	0	3	0
46	208	7	10000	3	1	0	3	0
47	209	7	10000	3	1	0	3	0
48	210	7	10000	3	1	0	3	0
48	211	7	10000	3	1	0	3	0
46	212	7	10000	3	1	0	3	0
46	213	7	10000	3	1	0	3	0
43	214	7	10000	3	1	0	3	0
42	215	7	10000	3	1	0	3	0
41	216	7	10000	3	1	0	3	0
41	217	7	10000	3	1	0	3	0
41	218	7	10000	3	1	0	3	0
40	219	7	10000	3	1	0	3	0
41	220	7	10000	3	1	0	3	0
42	221	7	10000	3	1	0	3	0
42	222	7	10000	3	1	0	3	0
40	223	7	10000	3	1	0	3	0
42	224	7	10000	3	1	0	3	0
42	225	7	10000	3	1	0	3	0
41	226	7	10000	3	1	0	3	0
39	227	7	10000	3	1	0	3	0
39	228	7	10000	3	1	0	3	0
39	229	7	10000	3	1	0	3	0
43	230	7	10000	3	1	0	3	0
46	231	7	10000	3	1	0	3	0
48	232	7	10000	3	1	0	3	0
48	233	7	10000	3	1	0	3	0
44	234	7	10000	3	1	0	3	0
43	235	7	10000	3	1	0	3	0
43	236	7	10000	3	1	0	3	0
42	237	7	10000	3	1	0	3	0
41	238	7	10000	3	1	0	3	0
45	239	7	10000	3	1	0	3	0
47	240	7	10000	3	1	0	3	0
46	241	7	10000	3	1	0	3	0
44	242	7	10000	3	1	0	3	0
44	243	7	10000	3	1	0	3	0
44	244	7	10000	3	1	0	3	0
43	245	7	10000	3	1	0	3	0
42	246	7	10000	3	1	0	3	0
41	247	7	10000	3	1	0	3	0
40	248	7	10000	3	1	0	3	0
44	249	7	10000	3	1	0	3	0
46	250	7	10000	3	1	0	3	0
50	251	7	10000	3	1	0	3	0
51	252	7	10000	3	1	0	3	0
50	253	7	10000	3	1	0	3	0
46	254	7	10000	3	1	0	3	0
45	255	7	10000	3	1	0	3	0
44	256	7	10000	3	1	0	3	0
44	257	7	10000	3	1	0	3	0
42	258	7	10000	3	1	0	3	0
40	259	7	10000	3	1	0	3	0
40	260	7	10000	3	1	0	3	0
38	261	7	10000	3	1	0	3	0
37	262	7	10000	3	1	0	3	0
35	263	7	10000	3	1	0	3	0
38	264	7	10000	3	1	0	3	0
38	265	7	10000	3	1	0	3	0
37	266	7	10000	3	1	0	3	0
37	267	7	10000	3	1	0	3	0
39	268	7	10000	3	1	0	3	0
43	269	7	10000	3	1	0	3	0
43	270	7	10000	3	1	0	3	0
45	271	7	10000	3	1	0	3	0
47	272	7	10000	3	1	0	3	0
46	273	7	10000	3	1	0	3	0
43	274	7	10000	3	1	0	3	0
43	275	7	10000	3	1	0	3	0
42	276	7	10000	3	1	0	3	0
41	277	7	10000	3	1	0	3	0
40	278	7	10000	3	1	0	3	0
41	279	7	10000	3	1	0	3	0
40	280	7	10000	3	1	0	3	0
39	281	7	10000	3	1	0	3	0
38	282	7	10000	3	1	0	3	0
38	283	7	10000	3	1	0	3	0
39	284	7	10000	3	1	0	3	0
38	285	7	10000	3	1	0	3	0
39	286	7	10000	3	1	0	3	0
38	287	7	10000	3	1	0	3	0
36	288	7	10000	3	1	0	3	0
35	289	7	10000	3	1	0	3	0
34	290	7	10000	3	1	0	3	0
34	291	7	10000	3	1	0	3	0
34	292	7	10000	3	1	0	3	0
33	293	7	10000	3	1	0	3	0
33	294	7	10000	3	1	0	3	0
35	295	7	10000	3	1	0	3	0
36	296	7	10000	3	1	0	3	0
35	297	7	10000	3	1	0	3	0
34	298	7	10000	3	1	0	3	0
33	299	7	10000	3	1	0	3	0
35	300	7	10000	3	1	0	3	0
35	301	7	10000	3	1	0	3	0
37	302	7	10000	3	1	0	3	0
41	303	7	10000	3	1	0	3	0
44	304	7	10000	3	1	0	3	0
43	305	7	10000	3	1	0	3	0
41	306	7	10000	3	1	0	3	0
43	307	7	10000	3	1	0	3	0
45	308	7	10000	3	1	0	3	0
45	309	7	10000	3	1	0	3	0
44	310	7	10000	3	1	0	3	0
45	311	7	10000	3	1	0	3	0
45	312	7	10000	3	1	0	3	0
44	313	7	10000	3	1	0	3	0
41	314	7	10000	3	1	0	3	0
43	315	7	10000	3	1	0	3	0
47	316	7	10000	3	1	0	3	0
47	317	7	10000	3	1	0	3	0
46	318	7	10000	3	1	0	3	0
45	319	7	10000	3	1	0	3	0
45	320	7	10000	3	1	0	3	0
43	321	7	10000	3	1	0	3	0
45	322	7	10000	3	1	0	3	0
46	323	7	10000	3	1	0	3	0
49	324	7	10000	3	1	0	3	0
49	325	7	10000	3	1	0	3	0
47	326	7	10000	3	1	0	3	0
45	327	7	10000	3	1	0	3	0
44	328	7	10000	3	1	0	3	0
45	329	7	10000	3	1	0	3	0
44	330	7	10000	3	1	0	3	0
44	331	7	10000	3	1	0	3	0
44	332	7	10000	3	1	0	3	0
44	333	7	10000	3	1	0	3	0
44	334	7	10000	3	1	0	3	0
46	335	7	10000	3	1	0	3	0
47	336	7	10000	3	1	0	3	0
45	337	7	10000	3	1	0	3	0
44	338	7	10000	3	1	0	3	0
42	339	7	10000	3	1	0	3	0
41	340	7	10000	3	1	0	3	0
39	341	7	10000	3	1	0	3	0
38	342	7	10000	3	1	0	3	0
37	343	7	10000	3	1	0	3	0
39	344	7	10000	3	1	0	3	0
37	345	7	10000	3	1	0	3	0
38	346	7	10000	3	1	0	3	0
41	347	7	10000	3	1	0	3	0
42	348	7	10000	3	1	0	3	0
44	349	7	10000	3	1	0	3	0
45	350	7	10000	3	1	0	3	0
44	351	7	10000	3	1	0	3	0
47	352	7	10000	3	1	0	3	0
48	353	7	10000	3	1	0	3	0
47	354	7	10000	3	1	0	3	0
51	355	7	10000	3	1	0	3	0
52	356	7	10000	3	1	0	3	0
55	357	7	10000	3	1	0	3	0
53	358	7	10000	3	1	0	3	0
52	359	7	10000	3	1	0	3	0
52	360	7	10000	3	1	0	3	0
49	361	7	10000	3	1	0	3	0
48	362	7	10000	3	1	0	3	0
46	363	7	10000	3	1	0	3	0
49	364	7	10000	3	1	0	3	0
46	365	7	10000	3	1	0	3	0
45	366	7	10000	3	1	0	3	0
46	367	7	10000	3	1	0	3	0
47	368	7	10000	3	1	0	3	0
44	369	7	10000	3	1	0	3	0
44	370	7	10000	3	1	0	3	0
42	371	7	10000	3	1	0	3	0
41	372	7	10000	3	1	0	3	0
41	373	7	10000	3	1	0	3	0
39	374	7	10000	3	1	0	3	0
40	375	7	10000	3	1	0	3	0
40	376	7	10000	3	1	0	3	0
39	377	7	10000	3	1	0	3	0
38	378	7	10000	3	1	0	3	0
37	379	7	10000	3	1	0	3	0
40	380	7	10000	3	1	0	3	0
40	381	7	10000	3	1	0	3	0
45	382	7	10000	3	1	0	3	0
51	383	7	10000	3	1	0	3	0
58	384	7	10000	3	1	0	3	0
62	385	7	10000	3	1	0	3	0
64	386	7	10000	3	1	0	3	0
67	387	7	10000	3	1	0	3	0
71	388	7	10000	3	1	0	3	0
74	389	7	10000	3	1	0	3	0
79	390	7	10000	3	1	0	3	0
81	391	7	10000	3	1	0	3	0
82	392	7	10000	3	1	0	3	0
80	393	7	10000	3	1	0	3	0
75	394	7	10000	3	1	0	3	0
77	395	7	10000	3	1	0	3	0
80	396	7	10000	3	1	0	3	0
85	397	7	10000	3	1	0	3	0
82	398	7	10000	3	1	0	3	0
80	399	7	10000	3	1	0	3	0
81	400	7	10000	3	1	0	3	0
80	401	7	10000	3	1	0	3	0
76	402	7	10000	3	1	0	3	0
75	403	7	10000	3	1	0	3	0
77	404	7	10000	3	1	0	3	0
76	405	7	10000	3	1	0	3	0
74	406	7	10000	3	1	0	3	0
71	407	7	10000	3	1	0	3	0
71	408	7	10000	3	1	0	3	0
72	409	7	10000	3	1	0	3	0
72	410	7	10000	3	1	0	3	0
73	411	7	10000	3	1	0	3	0
72	412	7	10000	3	1	0	3	0
71	413	7	10000	3	1	0	3	0
71	414	7	10000	3	1	0	3	0
68	415	7	10000	3	1	0	3	0
65	416	7	10000	3	1	0	3	0
65	417	7	10000	3	1	0	3	0
69	418	7	10000	3	1	0	3	0
72	419	7	10000	3	1	0	3	0
75	420	7	10000	3	1	0	3	0
74	421	7	10000	3	1	0	3	0
72	422	7	10000	3	1	0	3	0
69	423	7	10000	3	1	0	3	0
68	424	7	10000	3	1	0	3	0
65	425	7	10000	3	1	0	3	0
63	426	7	10000	3	1	0	3	0
61	427	7	10000	3	1	0	3	0
61	428	7	10000	3	1	0	3	0
61	429	7	10000	3	1	0	3	0
64	430	7	10000	3	1	0	3	0
66	431	7	10000	3	1	0	3	0
66	432	7	10000	3	1	0	3	0
67	433	7	10000	3	1	0	3	0
64	434	7	10000	3	1	0	3	0
64	435	7	10000	3	1	0	3	0
63	436	7	10000	3	1	0	3	0
62	437	7	10000	3	1	0	3	0
59	438	7	10000	3	1	0	3	0
58	439	7	10000	3	1	0	3	0
57	440	7	10000	3	1	0	3	0
56	441	7	10000	3	1	0	3	0
55	442	7	10000	3	1	0	3	0
56	443	7	10000	3	1	0	3	0
58	444	7	10000	3	1	0	3	0
60	445	7	10000	3	1	0	3	0
59	446	7	10000	3	1	0	3	0
60	447	7	10000	3	1	0	3	0
61	448	7	10000	3	1	0	3	0
63	449	7	10000	3	1	0	3	0
65	450	7	10000	3	1	0	3	0
68	451	7	10000	3	1	0	3	0
67	452	7	10000	3	1	0	3	0
65	453	7	10000	3	1	0	3	0
61	454	7	10000	3	1	0	3	0
60	455	7	10000	3	1	0	3	0
59	456	7	10000	3	1	0	3	0
61	457	7	10000	3	1	0	3	0
62	458	7	10000	3	1	0	3	0
60	459	7	10000	3	1	0	3	0
59	460	7	10000	3	1	0	3	0
56	461	7	10000	3	1	0	3	0
56	462	7	10000	3	1	0	3	0
54	463	7	10000	3	1	0	3	0
56	464	7	10000	3	1	0	3	0
57	465	7	10000	3	1	0	3	0
57	466	7	10000	3	1	0	3	0
56	467	7	10000	3	1	0	3	0
55	468	7	10000	3	1	0	3	0
53	469	7	10000	3	1	0	3	0
51	470	7	10000	3	1	0	3	0
52	471	7	10000	3	1	0	3	0
51	472	7	10000	3	1	0	3	0
51	473	7	10000	3	1	0	3	0
50	474	7	10000	3	1	0	3	0
50	475	7	10000	3	1	0	3	0
49	476	7	10000	3	1	0	3	0
48	477	7	10000	3	1	0	3	0
49	478	7	10000	3	1	0	3	0
52	479	7	10000	3	1	0	3	0
57	480	7	10000	3	1	0	3	0
60	481	7	10000	3	1	0	3	0
58	482	7	10000	3	1	0	3	0
60	483	7	10000	3	1	0	3	0
64	484	7	10000	3	1	0	3	0
62	485	7	10000	3	1	0	3	0
60	486	7	10000	3	1	0	3	0
57	487	7	10000	3	1	0	3	0
56	488	7	10000	3	1	0	3	0
56	489	7	10000	3	1	0	3	0
56	490	7	10000	3	1	0	3	0
56	491	7	10000	3	1	0	3	0
54	492	7	10000	3	1	0	3	0
52	493	7	10000	3	1	0	3	0
48	494	7	10000	3	1	0	3	0
46	495	7	10000	3	1	0	3	0
45	496	7	10000	3	1	0	3	0
48	497	7	10000	3	1	0	3	0
47	498	7	10000	3	1	0	3	0
47	499	7	10000	3	1	0	3	0
47	500	7	10000	3	1	0	3	0
44	501	7	10000	3	1	0	3	0
43	501	7	10000	3	1	0	3	1
42	502	7	10000	3	1	0	3	1
43	504	7	10000	3	1	0	3	1
43	505	7	10000	3	1	0	3	1
43	506	7	10000	3	1	0	3	1
44	507	7	10000	3	1	0	3	1
46	508	7	10000	3	1	0	3	1
47	509	7	10000	3	1	0	3	1
46	510	7	10000	3	1	0	3	1
48	511	7	10000	3	1	0	3	1
52	512	7	10000	3	1	0	3	1
53	513	7	10000	3	1	0	3	1
52	514	7	10000	3	1	0	3	1
52	515	7	10000	3	1	0	3	1
50	516	7	10000	3	1	0	3	1
50	517	7	10000	3	1	0	3	1
51	518	7	10000	3	1	0	3	1
53	519	7	10000	3	1	0	3	1
51	520	7	10000	3	1	0	3	1
48	521	7	10000	3	1	0	3	1
46	522	7	10000	3	1	0	3	1
45	523	7	10000	3	1	0	3	1
47	524	7	10000	3	1	0	3	1
47	525	7	10000	3	1	0	3	1
46	526	7	10000	3	1	0	3	1
45	527	7	10000	3	1	0	3	1
45	528	7	10000	3	1	0	3	1
44	529	7	10000	3	1	0	3	1
43	530	7	10000	3	1	0	3	1
44	531	7	10000	3	1	0	3	1
45	532	7	10000	3	1	0	3	1
44	533	7	10000	3	1	0	3	1
40	534	7	10000	3	1	0	3	1
41	535	7	10000	3	1	0	3	1
40	536	7	10000	3	1	0	3	1
40	537	7	10000	3	1	0	3	1
39	538	7	10000	3	1	0	3	1
38	539	7	10000	3	1	0	3	1
38	540	7	10000	3	1	0	3	1
39	541	7	10000	3	1	0	3	1
43	542	7	10000	3	1	0	3	1
48	543	7	10000	3	1	0	3	1
54	544	7	10000	3	1	0	3	1
54	545	7	10000	3	1	0	3	1
55	546	7	10000	3	1	0	3	1
57	547	7	10000	3	1	0	3	1
63	548	7	10000	3	1	0	3	1
65	549	7	10000	3	1	0	3	1
65	550	7	10000	3	1	0	3	1
64	551	7	10000	3	1	0	3	1
64	552	7	10000	3	1	0	3	0
62	553	7	10000	3	1	0	3	0
61	554	7	10000	3	1	0	3	0
61	555	7	10000	3	1	0	3	0
65	556	7	10000	3	1	0	3	0
70	557	7	10000	3	1	0	3	0
73	558	7	10000	3	1	0	3	0
75	559	7	10000	3	1	0	3	0
76	560	7	10000	3	1	0	3	0
77	561	7	10000	3	1	0	3	0
76	562	7	10000	3	1	0	3	0
73	563	7	10000	3	1	0	3	0
74	564	7	10000	3	1	0	3	0
73	565	7	10000	3	1	0	3	0
72	566	7	10000	3	1	0	3	0
72	567	7	10000	3	1	0	3	0
69	568	7	10000	3	1	0	3	0
70	569	7	10000	3	1	0	3	0
71	570	7	10000	3	1	0	3	0
72	571	7	10000	3	1	0	3	0
72	572	7	10000	3	1	0	3	0
68	573	7	10000	3	1	0	3	0
64	574	7	10000	3	1	0	3	0
65	575	7	10000	3	1	0	3	0
68	576	7	10000	3	1	0	3	0
72	577	7	10000	3	1	0	3	0
74	578	7	10000	3	1	0	3	0
72	579	7	10000	3	1	0	3	0
71	580	7	10000	3	1	0	3	0
68	581	7	10000	3	1	0	3	0
66	582	7	10000	3	1	0	3	0
73	583	7	10000	3	1	0	3	0
78	584	7	10000	3	1	0	3	0
77	585	7	10000	3	1	0	3	0
88	586	7	10000	3	1	0	3	0
99	587	7	10000	3	1	0	3	0
100	588	7	10000	3	1	0	3	0
112	589	7	10000	3	1	0	3	0
117	590	7	10000	3	1	0	3	0
116	591	7	10000	3	1	0	3	0
120	592	7	10000	3	1	0	3	0
123	593	7	10000	3	1	0	3	0
123	594	7	10000	3	1	0	3	0
121	595	7	10000	3	1	0	3	0
119	596	7	10000	3	1	0	3	0
131	597	7	10000	3	1	0	3	0
170	598	7	10000	3	1	0	3	0
206	599	7	10000	3	1	0	3	0
208	600	7	10000	3	1	0	3	0
213	601	7	10000	3	1	0	3	0
240	602	7	10000	3	1	0	3	0
273	603	7	10000	3	1	0	3	0
278	604	7	10000	3	1	0	3	0
275	605	7	10000	3	1	0	3	0
269	606	7	10000	3	1	0	3	0
266	607	7	10000	3	1	0	3	0
263	608	7	10000	3	1	0	3	0
261	609	7	10000	3	1	0	3	0
283	610	7	10000	3	1	0	3	0
307	611	7	10000	3	1	0	3	0
324	612	7	10000	3	1	0	3	0
328	613	7	10000	3	1	0	3	0
331	614	7	10000	3	1	0	3	0
331	615	7	10000	3	1	0	3	0
324	616	7	10000	3	1	0	3	0
335	617	7	10000	3	1	0	3	0
353	618	7	10000	3	1	0	3	0
357	619	7	10000	3	1	0	3	0
361	620	7	10000	3	1	0	3	0
353	621	7	10000	3	1	0	3	0
350	622	7	10000	3	1	0	3	0
356	623	7	10000	3	1	0	3	0
362	624	7	10000	3	1	0	3	0
352	625	7	10000	3	1	0	3	0
338	626	7	10000	3	1	0	3	0
334	627	7	10000	3	1	0	3	0
329	628	7	10000	3	1	0	3	0
318	629	7	10000	3	1	0	3	0
303	630	7	10000	3	1	0	3	0
292	631	7	10000	3	1	0	3	0
286	632	7	10000	3	1	0	3	0
279	633	7	10000	3	1	0	3	0
269	634	7	10000	3	1	0	3	0
265	635	7	10000	3	1	0	3	0
256	636	7	10000	3	1	0	3	0
248	637	7	10000	3	1	0	3	0
240	638	7	10000	3	1	0	3	0
234	639	7	10000	3	1	0	3	0
230	640	7	10000	3	1	0	3	0
227	641	7	10000	3	1	0	3	0
226	642	7	10000	3	1	0	3	0
225	643	7	10000	3	1	0	3	0
221	644	7	10000	3	1	0	3	0
214	645	7	10000	3	1	0	3	0
205	646	7	10000	3	1	0	3	0
196	647	7	10000	3	1	0	3	0
187	648	7	10000	3	1	0	3	0
179	649	7	10000	3	1	0	3	0
174	650	7	10000	3	1	0	3	0
169	651	7	10000	3	1	0	3	0
164	652	7	10000	3	1	0	3	0
155	653	7	10000	3	1	0	3	0
148	654	7	10000	3	1	0	3	0
145	655	7	10000	3	1	0	3	0
141	656	7	10000	3	1	0	3	0
140	657	7	10000	3	1	0	3	0
138	658	7	10000	3	1	0	3	0
136	659	7	10000	3	1	0	3	0
134	660	7	10000	3	1	0	3	0
133	661	7	10000	3	1	0	3	0
135	662	7	10000	3	1	0	3	0
139	663	7	10000	3	1	0	3	0
144	664	7	10000	3	1	0	3	0
146	665	7	10000	3	1	0	3	0
150	666	7	10000	3	1	0	3	0
150	667	7	10000	3	1	0	3	0
151	668	7	10000	3	1	0	3	0
153	669	7	10000	3	1	0	3	0
152	670	7	10000	3	1	0	3	0
154	671	7	10000	3	1	0	3	0
159	672	7	10000	3	1	0	3	0
160	673	7	10000	3	1	0	3	0
160	674	7	10000	3	1	0	3	0
160	675	7	10000	3	1	0	3	0
159	676	7	10000	3	1	0	3	0
157	677	7	10000	3	1	0	3	0
153	678	7	10000	3	1	0	3	0
151	679	7	10000	3	1	0	3	0
150	680	7	10000	3	1	0	3	0
149	681	7	10000	3	1	0	3	0
149	682	7	10000	3	1	0	3	0
149	683	7	10000	3	1	0	3	0
152	684	7	10000	3	1	0	3	0
154	685	7	10000	3	1	0	3	0
154	686	7	10000	3	1	0	3	0
150	687	7	10000	3	1	0	3	0
145	688	7	10000	3	1	0	3	0
141	689	7	10000	3	1	0	3	0
136	690	7	10000	3	1	0	3	0
131	691	7	10000	3	1	0	3	0
128	692	7	10000	3	1	0	3	0
125	693	7	10000	3	1	0	3	0
121	694	7	10000	3	1	0	3	0
117	695	7	10000	3	1	0	3	0
113	696	7	10000	3	1	0	3	0
113	697	7	10000	3	1	0	3	0
109	698	7	10000	3	1	0	3	0
104	699	7	10000	3	1	0	3	0
101	700	7	10000	3	1	0	3	0
99	701	7	10000	3	1	0	3	0
95	702	7	10000	3	1	0	3	0
92	703	7	10000	3	1	0	3	0
94	704	7	10000	3	1	0	3	0
94	705	7	10000	3	1	0	3	0
92	706	7	10000	3	1	0	3	0
93	707	7	10000	3	1	0	3	0
92	708	7	10000	3	1	0	3	0
92	709	7	10000	3	1	0	3	0
99	720	7	10000	3	1	0	3	0
103	721	7	10000	3	1	0	3	0
101	722	7	10000	3	1	0	3	0
97	723	7	10000	3	1	0	3	0
93	724	7	10000	3	1	0	3	0
91	725	7	10000	3	1	0	3	0
88	726	7	10000	3	1	0	3	0
85	727	7	10000	3	1	0	3	0
82	728	7	10000	3	1	0	3	0
79	729	7	10000	3	1	0	3	0
77	730	7	10000	3	1	0	3	0
75	731	7	10000	3	1	0	3	0
74	729	7	10000	3	1	0	3	0
73	730	7	10000	3	1	0	3	0
74	731	7	10000	3	1	0	3	0
76	732	7	10000	3	1	0	3	0
78	733	7	10000	3	1	0	3	0
78	734	7	10000	3	1	0	3	0
80	735	7	10000	3	1	0	3	0
79	736	7	10000	3	1	0	3	0
81	738	7	10000	3	1	0	3	0
85	739	7	10000	3	1	0	3	0
86	740	7	10000	3	1	0	3	0
84	741	7	10000	3	1	0	3	0
79	742	7	10000	3	1	0	3	0
77	743	7	10000	3	1	0	3	0
77	744	7	10000	3	1	0	3	0
75	745	7	10000	3	1	0	3	0
71	746	7	10000	3	1	0	3	0
68	747	7	10000	3	1	0	3	0
67	745	7	10000	3	1	0	3	0
66	746	7	10000	3	1	0	3	0
67	747	7	10000	3	1	0	3	0
67	748	7	10000	3	1	0	3	0
70	749	7	10000	3	1	0	3	0
71	750	7	10000	3	1	0	3	0
71	751	7	10000	3	1	0	3	0
69	752	7	10000	3	1	0	3	0
72	751	7	10000	3	1	0	3	0
73	752	7	10000	3	1	0	3	0
71	753	7	10000	3	1	0	3	0
74	754	7	10000	3	1	0	3	0
74	755	7	10000	3	1	0	3	0
70	756	7	10000	3	1	0	3	0
67	757	7	10000	3	1	0	3	0
67	758	7	10000	3	1	0	3	0
63	759	7	10000	3	1	0	3	0
62	760	7	10000	3	1	0	3	0
59	761	7	10000	3	1	0	3	0
60	762	7	10000	3	1	0	3	0
62	763	7	10000	3	1	0	3	0
66	764	7	10000	3	1	0	3	0
66	767	7	10000	3	1	0	3	0
65	768	7	10000	3	1	0	3	0
66	769	7	10000	3	1	0	3	0
67	770	7	10000	3	1	0	3	0
65	771	7	10000	3	1	0	3	0
63	772	7	10000	3	1	0	3	0
61	771	7	10000	3	1	0	3	0
59	772	7	10000	3	1	0	3	0
61	773	7	10000	3	1	0	3	0
59	774	7	10000	3	1	0	3	0
58	775	7	10000	3	1	0	3	0
56	776	7	10000	3	1	0	3	0
53	779	7	10000	3	1	0	3	0
51	780	7	10000	3	1	0	3	0
50	781	7	10000	3	1	0	3	0
50	782	7	10000	3	1	0	3	0
49	783	7	10000	3	1	0	3	0
47	784	7	10000	3	1	0	3	0
46	783	7	10000	3	1	0	3	0
44	784	7	10000	3	1	0	3	0
42	785	7	10000	3	1	0	3	0
43	786	7	10000	3	1	0	3	0
45	789	7	10000	3	1	0	3	0
46	790	7	10000	3	1	0	3	0
44	791	7	10000	3	1	0	3	0
42	792	7	10000	3	1	0	3	0
41	793	7	10000	3	1	0	3	0
39	794	7	10000	3	1	0	3	0
42	795	7	10000	3	1	0	3	0
41	796	7	10000	3	1	0	3	0
43	794	7	10000	3	1	0	3	0
43	795	7	10000	3	1	0	3	0
41	796	7	10000	3	1	0	3	0
45	797	7	10000	3	1	0	3	0
45	799	7	10000	3	1	0	3	0
47	800	7	10000	3	1	0	3	0
46	801	7	10000	3	1	0	3	0
46	802	7	10000	3	1	0	3	0
45	803	7	10000	3	1	0	3	0
44	804	7	10000	3	1	0	3	0
43	806	7	10000	3	1	0	3	0
44	807	7	10000	3	1	0	3	0
44	808	7	10000	3	1	0	3	0
43	809	7	10000	3	1	0	3	0
41	810	7	10000	3	1	0	3	0
40	811	7	10000	3	1	0	3	0
39	810	7	10000	3	1	0	3	0
39	811	7	10000	3	1	0	3	0
39	812	7	10000	3	1	0	3	0
42	813	7	10000	3	1	0	3	0
45	816	7	10000	3	1	0	3	0
43	817	7	10000	3	1	0	3	0
44	818	7	10000	3	1	0	3	0
49	819	7	10000	3	1	0	3	0
59	820	7	10000	3	1	0	3	0
67	821	7	10000	3	1	0	3	0
69	818	7	10000	3	1	0	3	0
71	819	7	10000	3	1	0	3	0
72	820	7	10000	3	1	0	3	0
70	821	7	10000	3	1	0	3	0
70	822	7	10000	3	1	0	3	0
69	823	7	10000	3	1	0	3	0
68	824	7	10000	3	1	0	3	0
66	825	7	10000	3	1	0	3	0
63	826	7	10000	3	1	0	3	0
61	827	7	10000	3	1	0	3	0
62	828	7	10000	3	1	0	3	0
68	829	7	10000	3	1	0	3	0
76	830	7	10000	3	1	0	3	0
82	831	7	10000	3	1	0	3	0
88	832	7	10000	3	1	0	3	0
92	833	7	10000	3	1	0	3	0
96	834	7	10000	3	1	0	3	0
99	835	7	10000	3	1	0	3	0
101	836	7	10000	3	1	0	3	0
105	837	7	10000	3	1	0	3	0
111	838	7	10000	3	1	0	3	0
117	839	7	10000	3	1	0	3	0
120	840	7	10000	3	1	0	3	0
121	841	7	10000	3	1	0	3	0
121	842	7	10000	3	1	0	3	0
120	843	7	10000	3	1	0	3	0
121	844	7	10000	3	1	0	3	0
120	845	7	10000	3	1	0	3	0
119	846	7	10000	3	1	0	3	0
118	847	7	10000	3	1	0	3	0
115	848	7	10000	3	1	0	3	0
110	849	7	10000	3	1	0	3	0
112	850	7	10000	3	1	0	3	0
116	851	7	10000	3	1	0	3	0
116	852	7	10000	3	1	0	3	0
111	853	7	10000	3	1	0	3	0
105	854	7	10000	3	1	0	3	0
106	855	7	10000	3	1	0	3	0
106	856	7	10000	3	1	0	3	0
107	857	7	10000	3	1	0	3	0
107	858	7	10000	3	1	0	3	0
104	859	7	10000	3	1	0	3	0
104	860	7	10000	3	1	0	3	0
101	861	7	10000	3	1	0	3	0
100	862	7	10000	3	1	0	3	0
97	863	7	10000	3	1	0	3	0
98	864	7	10000	3	1	0	3	0
101	865	7	10000	3	1	0	3	0
104	866	7	10000	3	1	0	3	0
106	867	7	10000	3	1	0	3	0
108	868	7	10000	3	1	0	3	0
111	869	7	10000	3	1	0	3	0
112	870	7	10000	3	1	0	3	0
116	871	7	10000	3	1	0	3	0
119	872	7	10000	3	1	0	3	0
122	873	7	10000	3	1	0	3	0
122	874	7	10000	3	1	0	3	0
122	875	7	10000	3	1	0	3	0
120	876	7	10000	3	1	0	3	0
116	877	7	10000	3	1	0	3	0
117	878	7	10000	3	1	0	3	0
119	879	7	10000	3	1	0	3	0
117	880	7	10000	3	1	0	3	0
117	881	7	10000	3	1	0	3	0
120	882	7	10000	3	1	0	3	0
125	883	7	10000	3	1	0	3	0
129	884	7	10000	3	1	0	3	0
124	885	7	10000	3	1	0	3	0
119	886	7	10000	3	1	0	3	0
117	887	7	10000	3	1	0	3	0
119	888	7	10000	3	1	0	3	0
121	889	7	10000	3	1	0	3	0
119	890	7	10000	3	1	0	3	0
118	891	7	10000	3	1	0	3	0
118	892	7	10000	3	1	0	3	0
118	893	7	10000	3	1	0	3	0
114	894	7	10000	3	1	0	3	0
111	895	7	10000	3	1	0	3	0
109	896	7	10000	3	1	0	3	0
112	897	7	10000	3	1	0	3	0
109	898	7	10000	3	1	0	3	0
106	899	7	10000	3	1	0	3	0
106	900	7	10000	3	1	0	3	0
106	901	7	10000	3	1	0	3	0
103	902	7	10000	3	1	0	3	0
102	903	7	10000	3	1	0	3	0
101	904	7	10000	3	1	0	3	0
96	905	7	10000	3	1	0	3	0
92	906	7	10000	3	1	0	3	0
88	907	7	10000	3	1	0	3	0
84	908	7	10000	3	1	0	3	0
81	909	7	10000	3	1	0	3	0
82	910	7	10000	3	1	0	3	0
84	911	7	10000	3	1	0	3	0
84	912	7	10000	3	1	0	3	0
80	913	7	10000	3	1	0	3	0
76	914	7	10000	3	1	0	3	0
74	915	7	10000	3	1	0	3	0
74	916	7	10000	3	1	0	3	0
74	917	7	10000	3	1	0	3	0
70	918	7	10000	3	1	0	3	0
69	919	7	10000	3	1	0	3	0
67	920	7	10000	3	1	0	3	0
67	921	7	10000	3	1	0	3	0
65	922	7	10000	3	1	0	3	0
63	923	7	10000	3	1	0	3	0
62	924	7	10000	3	1	0	3	0
60	925	7	10000	3	1	0	3	0
59	926	7	10000	3	1	0	3	0
57	927	7	10000	3	1	0	3	0
58	928	7	10000	3	1	0	3	0
56	929	7	10000	3	1	0	3	0
60	930	7	10000	3	1	0	3	0
59	931	7	10000	3	1	0	3	0
58	932	7	10000	3	1	0	3	0
58	933	7	10000	3	1	0	3	0
56	934	7	10000	3	1	0	3	0
55	935	7	10000	3	1	0	3	0
53	936	7	10000	3	1	0	3	0
52	937	7	10000	3	1	0	3	0
51	938	7	10000	3	1	0	3	0
51	939	7	10000	3	1	0	3	0
49	940	7	10000	3	1	0	3	0
47	941	7	10000	3	1	0	3	0
44	942	7	10000	3	1	0	3	0
45	943	7	10000	3	1	0	3	0
44	944	7	10000	3	1	0	3	0
42	945	7	10000	3	1	0	3	0
41	946	7	10000	3	1	0	3	0
40	947	7	10000	3	1	0	3	0
40	948	7	10000	3	1	0	3	0
40	949	7	10000	3	1	0	3	0
40	950	7	10000	3	1	0	3	0
40	951	7	10000	3	1	0	3	0
40	952	7	10000	3	1	0	3	0
38	953	7	10000	3	1	0	3	0
37	954	7	10000	3	1	0	3	0
36	955	7	10000	3	1	0	3	0
38	956	7	10000	3	1	0	3	0
37	957	7	10000	3	1	0	3	0
37	958	7	10000	3	1	0	3	0
40	959	7	10000	3	1	0	3	0
38	960	7	10000	3	1	0	3	0
37	961	7	10000	3	1	0	3	0
37	962	7	10000	3	1	0	3	0
37	963	7	10000	3	1	0	3	0
39	964	7	10000	3	1	0	3	0
44	965	7	10000	3	1	0	3	0
45	966	7	10000	3	1	0	3	0
44	967	7	10000	3	1	0	3	0
42	968	7	10000	3	1	0	3	0
41	969	7	10000	3	1	0	3	0
45	970	7	10000	3	1	0	3	0
52	971	7	10000	3	1	0	3	0
56	972	7	10000	3	1	0	3	0
56	973	7	10000	3	1	0	3	0
54	974	7	10000	3	1	0	3	0
54	975	7	10000	3	1	0	3	0
54	976	7	10000	3	1	0	3	0
54	977	7	10000	3	1	0	3	0
53	978	7	10000	3	1	0	3	0
55	979	7	10000	3	1	0	3	0
60	980	7	10000	3	1	0	3	0
63	981	7	10000	3	1	0	3	0
64	982	7	10000	3	1	0	3	0
68	983	7	10000	3	1	0	3	0
67	984	7	10000	3	1	0	3	0
65	985	7	10000	3	1	0	3	0
62	986	7	10000	3	1	0	3	0
61	987	7	10000	3	1	0	3	0
58	988	7	10000	3	1	0	3	0
57	989	7	10000	3	1	0	3	0
56	990	7	10000	3	1	0	3	0
56	991	7	10000	3	1	0	3	0
57	992	7	10000	3	1	0	3	0
54	993	7	10000	3	1	0	3	0
52	994	7	10000	3	1	0	3	0
55	995	7	10000	3	1	0	3	0
55	996	7	10000	3	1	0	3	0
54	997	7	10000	3	1	0	3	0
52	998	7	10000	3	1	0	3	0
50	999	7	10000	3	1	0	3	0
50	1000	7	10000	3	1	0	3	0
48	1001	7	10000	3	1	0	3	0
72	1	7	10000	4	1	0	4	0
72	2	7	10000	4	1	0	4	0
71	3	7	10000	4	1	0	4	0
72	4	7	10000	4	1	0	4	0
74	5	7	10000	4	1	0	4	0
75	6	7	10000	4	1	0	4	0
72	7	7	10000	4	1	0	4	0
69	8	7	10000	4	1	0	4	0
66	9	7	10000	4	1	0	4	0
66	10	7	10000	4	1	0	4	0
68	11	7	10000	4	1	0	4	0
69	12	7	10000	4	1	0	4	0
70	13	7	10000	4	1	0	4	0
70	14	7	10000	4	1	0	4	0
67	15	7	10000	4	1	0	4	0
68	16	7	10000	4	1	0	4	0
70	17	7	10000	4	1	0	4	0
68	18	7	10000	4	1	0	4	0
69	19	7	10000	4	1	0	4	0
69	20	7	10000	4	1	0	4	0
72	21	7	10000	4	1	0	4	0
71	22	7	10000	4	1	0	4	0
73	23	7	10000	4	1	0	4	0
77	24	7	10000	4	1	0	4	0
79	25	7	10000	4	1	0	4	0
79	26	7	10000	4	1	0	4	0
78	27	7	10000	4	1	0	4	0
77	28	7	10000	4	1	0	4	0
73	29	7	10000	4	1	0	4	0
76	30	7	10000	4	1	0	4	0
76	31	7	10000	4	1	0	4	0
73	32	7	10000	4	1	0	4	0
72	33	7	10000	4	1	0	4	0
72	34	7	10000	4	1	0	4	0
73	35	7	10000	4	1	0	4	0
71	36	7	10000	4	1	0	4	0
69	37	7	10000	4	1	0	4	0
68	38	7	10000	4	1	0	4	0
68	39	7	10000	4	1	0	4	0
63	40	7	10000	4	1	0	4	0
61	41	7	10000	4	1	0	4	0
59	42	7	10000	4	1	0	4	0
58	43	7	10000	4	1	0	4	0
61	44	7	10000	4	1	0	4	0
61	45	7	10000	4	1	0	4	0
61	46	7	10000	4	1	0	4	0
58	47	7	10000	4	1	0	4	0
56	48	7	10000	4	1	0	4	0
53	49	7	10000	4	1	0	4	0
54	50	7	10000	4	1	0	4	0
53	51	7	10000	4	1	0	4	0
51	52	7	10000	4	1	0	4	0
49	53	7	10000	4	1	0	4	0
50	54	7	10000	4	1	0	4	0
51	55	7	10000	4	1	0	4	0
51	56	7	10000	4	1	0	4	0
50	57	7	10000	4	1	0	4	0
49	58	7	10000	4	1	0	4	0
49	59	7	10000	4	1	0	4	0
46	60	7	10000	4	1	0	4	0
45	61	7	10000	4	1	0	4	0
45	62	7	10000	4	1	0	4	0
45	63	7	10000	4	1	0	4	0
46	64	7	10000	4	1	0	4	0
45	65	7	10000	4	1	0	4	0
45	66	7	10000	4	1	0	4	0
45	67	7	10000	4	1	0	4	0
43	68	7	10000	4	1	0	4	0
44	69	7	10000	4	1	0	4	0
50	70	7	10000	4	1	0	4	0
55	71	7	10000	4	1	0	4	0
54	72	7	10000	4	1	0	4	0
52	73	7	10000	4	1	0	4	0
50	74	7	10000	4	1	0	4	0
48	75	7	10000	4	1	0	4	0
48	76	7	10000	4	1	0	4	0
48	77	7	10000	4	1	0	4	0
48	78	7	10000	4	1	0	4	0
48	79	7	10000	4	1	0	4	0
48	80	7	10000	4	1	0	4	0
48	81	7	10000	4	1	0	4	0
49	82	7	10000	4	1	0	4	0
51	83	7	10000	4	1	0	4	0
50	84	7	10000	4	1	0	4	0
49	85	7	10000	4	1	0	4	0
50	86	7	10000	4	1	0	4	0
50	87	7	10000	4	1	0	4	0
48	88	7	10000	4	1	0	4	0
46	89	7	10000	4	1	0	4	0
48	90	7	10000	4	1	0	4	0
47	91	7	10000	4	1	0	4	0
44	92	7	10000	4	1	0	4	0
45	93	7	10000	4	1	0	4	0
45	94	7	10000	4	1	0	4	0
44	95	7	10000	4	1	0	4	0
42	96	7	10000	4	1	0	4	0
41	97	7	10000	4	1	0	4	0
42	98	7	10000	4	1	0	4	0
41	99	7	10000	4	1	0	4	0
41	100	7	10000	4	1	0	4	0
41	101	7	10000	4	1	0	4	0
41	102	7	10000	4	1	0	4	0
43	103	7	10000	4	1	0	4	0
44	104	7	10000	4	1	0	4	0
44	105	7	10000	4	1	0	4	0
47	106	7	10000	4	1	0	4	0
47	107	7	10000	4	1	0	4	0
47	108	7	10000	4	1	0	4	0
46	109	7	10000	4	1	0	4	0
52	110	7	10000	4	1	0	4	0
57	111	7	10000	4	1	0	4	0
59	112	7	10000	4	1	0	4	0
58	113	7	10000	4	1	0	4	0
56	114	7	10000	4	1	0	4	0
59	115	7	10000	4	1	0	4	0
62	116	7	10000	4	1	0	4	0
63	117	7	10000	4	1	0	4	0
62	118	7	10000	4	1	0	4	0
61	119	7	10000	4	1	0	4	0
58	120	7	10000	4	1	0	4	0
59	121	7	10000	4	1	0	4	0
63	122	7	10000	4	1	0	4	0
65	123	7	10000	4	1	0	4	0
68	124	7	10000	4	1	0	4	0
71	125	7	10000	4	1	0	4	0
73	126	7	10000	4	1	0	4	0
74	127	7	10000	4	1	0	4	0
75	128	7	10000	4	1	0	4	0
73	129	7	10000	4	1	0	4	0
74	130	7	10000	4	1	0	4	0
74	131	7	10000	4	1	0	4	0
74	132	7	10000	4	1	0	4	0
73	133	7	10000	4	1	0	4	0
73	134	7	10000	4	1	0	4	0
76	135	7	10000	4	1	0	4	0
76	136	7	10000	4	1	0	4	0
77	137	7	10000	4	1	0	4	0
74	138	7	10000	4	1	0	4	0
75	139	7	10000	4	1	0	4	0
74	140	7	10000	4	1	0	4	0
75	141	7	10000	4	1	0	4	0
79	142	7	10000	4	1	0	4	0
81	143	7	10000	4	1	0	4	0
81	144	7	10000	4	1	0	4	0
79	145	7	10000	4	1	0	4	0
79	146	7	10000	4	1	0	4	0
80	147	7	10000	4	1	0	4	0
80	148	7	10000	4	1	0	4	0
80	149	7	10000	4	1	0	4	0
80	150	7	10000	4	1	0	4	0
79	151	7	10000	4	1	0	4	0
77	152	7	10000	4	1	0	4	0
74	153	7	10000	4	1	0	4	0
71	154	7	10000	4	1	0	4	0
70	155	7	10000	4	1	0	4	0
69	156	7	10000	4	1	0	4	0
72	157	7	10000	4	1	0	4	0
72	158	7	10000	4	1	0	4	0
75	159	7	10000	4	1	0	4	0
75	160	7	10000	4	1	0	4	0
75	161	7	10000	4	1	0	4	0
72	162	7	10000	4	1	0	4	0
71	163	7	10000	4	1	0	4	0
71	164	7	10000	4	1	0	4	0
71	165	7	10000	4	1	0	4	0
70	166	7	10000	4	1	0	4	0
68	167	7	10000	4	1	0	4	0
66	168	7	10000	4	1	0	4	0
66	169	7	10000	4	1	0	4	0
70	170	7	10000	4	1	0	4	0
74	171	7	10000	4	1	0	4	0
72	172	7	10000	4	1	0	4	0
70	173	7	10000	4	1	0	4	0
69	174	7	10000	4	1	0	4	0
66	175	7	10000	4	1	0	4	0
63	176	7	10000	4	1	0	4	0
64	177	7	10000	4	1	0	4	0
67	178	7	10000	4	1	0	4	0
68	179	7	10000	4	1	0	4	0
62	180	7	10000	4	1	0	4	0
61	181	7	10000	4	1	0	4	0
58	182	7	10000	4	1	0	4	0
59	183	7	10000	4	1	0	4	0
58	184	7	10000	4	1	0	4	0
57	185	7	10000	4	1	0	4	0
59	186	7	10000	4	1	0	4	0
66	187	7	10000	4	1	0	4	0
73	188	7	10000	4	1	0	4	0
80	189	7	10000	4	1	0	4	0
95	190	7	10000	4	1	0	4	0
107	191	7	10000	4	1	0	4	0
110	192	7	10000	4	1	0	4	0
108	193	7	10000	4	1	0	4	0
105	194	7	10000	4	1	0	4	0
102	195	7	10000	4	1	0	4	0
102	196	7	10000	4	1	0	4	0
104	197	7	10000	4	1	0	4	0
104	198	7	10000	4	1	0	4	0
101	199	7	10000	4	1	0	4	0
96	200	7	10000	4	1	0	4	0
93	201	7	10000	4	1	0	4	0
90	202	7	10000	4	1	0	4	0
88	203	7	10000	4	1	0	4	0
86	204	7	10000	4	1	0	4	0
83	205	7	10000	4	1	0	4	0
81	206	7	10000	4	1	0	4	0
80	207	7	10000	4	1	0	4	0
81	208	7	10000	4	1	0	4	0
86	209	7	10000	4	1	0	4	0
89	210	7	10000	4	1	0	4	0
88	211	7	10000	4	1	0	4	0
89	212	7	10000	4	1	0	4	0
89	213	7	10000	4	1	0	4	0
89	214	7	10000	4	1	0	4	0
86	215	7	10000	4	1	0	4	0
84	216	7	10000	4	1	0	4	0
86	217	7	10000	4	1	0	4	0
87	218	7	10000	4	1	0	4	0
85	219	7	10000	4	1	0	4	0
83	220	7	10000	4	1	0	4	0
81	221	7	10000	4	1	0	4	0
79	222	7	10000	4	1	0	4	0
80	223	7	10000	4	1	0	4	0
85	224	7	10000	4	1	0	4	0
90	225	7	10000	4	1	0	4	0
92	226	7	10000	4	1	0	4	0
89	227	7	10000	4	1	0	4	0
87	228	7	10000	4	1	0	4	0
85	229	7	10000	4	1	0	4	0
87	230	7	10000	4	1	0	4	0
87	231	7	10000	4	1	0	4	0
84	232	7	10000	4	1	0	4	0
81	233	7	10000	4	1	0	4	0
79	234	7	10000	4	1	0	4	0
77	235	7	10000	4	1	0	4	0
77	236	7	10000	4	1	0	4	0
78	237	7	10000	4	1	0	4	0
80	238	7	10000	4	1	0	4	0
83	239	7	10000	4	1	0	4	0
83	240	7	10000	4	1	0	4	0
87	241	7	10000	4	1	0	4	0
86	242	7	10000	4	1	0	4	0
85	243	7	10000	4	1	0	4	0
86	244	7	10000	4	1	0	4	0
88	245	7	10000	4	1	0	4	0
87	246	7	10000	4	1	0	4	0
83	247	7	10000	4	1	0	4	0
83	248	7	10000	4	1	0	4	0
84	249	7	10000	4	1	0	4	0
90	250	7	10000	4	1	0	4	0
90	251	7	10000	4	1	0	4	0
87	252	7	10000	4	1	0	4	0
89	253	7	10000	4	1	0	4	0
91	254	7	10000	4	1	0	4	0
88	255	7	10000	4	1	0	4	0
90	256	7	10000	4	1	0	4	0
91	257	7	10000	4	1	0	4	0
90	258	7	10000	4	1	0	4	0
89	259	7	10000	4	1	0	4	0
84	260	7	10000	4	1	0	4	0
81	261	7	10000	4	1	0	4	0
79	262	7	10000	4	1	0	4	0
78	263	7	10000	4	1	0	4	0
78	264	7	10000	4	1	0	4	0
76	265	7	10000	4	1	0	4	0
78	266	7	10000	4	1	0	4	0
78	267	7	10000	4	1	0	4	0
75	268	7	10000	4	1	0	4	0
74	269	7	10000	4	1	0	4	0
75	270	7	10000	4	1	0	4	0
72	271	7	10000	4	1	0	4	0
72	272	7	10000	4	1	0	4	0
73	273	7	10000	4	1	0	4	0
72	274	7	10000	4	1	0	4	0
70	275	7	10000	4	1	0	4	0
68	276	7	10000	4	1	0	4	0
68	277	7	10000	4	1	0	4	0
69	278	7	10000	4	1	0	4	0
72	279	7	10000	4	1	0	4	0
68	280	7	10000	4	1	0	4	0
67	281	7	10000	4	1	0	4	0
66	282	7	10000	4	1	0	4	0
63	283	7	10000	4	1	0	4	0
63	284	7	10000	4	1	0	4	0
64	285	7	10000	4	1	0	4	0
66	286	7	10000	4	1	0	4	0
66	287	7	10000	4	1	0	4	0
67	288	7	10000	4	1	0	4	0
64	289	7	10000	4	1	0	4	0
69	290	7	10000	4	1	0	4	0
73	291	7	10000	4	1	0	4	0
74	292	7	10000	4	1	0	4	0
72	293	7	10000	4	1	0	4	0
70	294	7	10000	4	1	0	4	0
67	295	7	10000	4	1	0	4	0
65	296	7	10000	4	1	0	4	0
66	297	7	10000	4	1	0	4	0
64	298	7	10000	4	1	0	4	0
63	299	7	10000	4	1	0	4	0
59	300	7	10000	4	1	0	4	0
58	301	7	10000	4	1	0	4	0
56	302	7	10000	4	1	0	4	0
55	303	7	10000	4	1	0	4	0
56	304	7	10000	4	1	0	4	0
57	305	7	10000	4	1	0	4	0
57	306	7	10000	4	1	0	4	0
55	307	7	10000	4	1	0	4	0
53	308	7	10000	4	1	0	4	0
51	309	7	10000	4	1	0	4	0
51	310	7	10000	4	1	0	4	0
49	311	7	10000	4	1	0	4	0
47	312	7	10000	4	1	0	4	0
49	313	7	10000	4	1	0	4	0
50	314	7	10000	4	1	0	4	0
48	315	7	10000	4	1	0	4	0
46	316	7	10000	4	1	0	4	0
46	317	7	10000	4	1	0	4	0
48	318	7	10000	4	1	0	4	0
50	319	7	10000	4	1	0	4	0
48	320	7	10000	4	1	0	4	0
52	321	7	10000	4	1	0	4	0
56	322	7	10000	4	1	0	4	0
60	323	7	10000	4	1	0	4	0
60	324	7	10000	4	1	0	4	0
58	325	7	10000	4	1	0	4	0
57	326	7	10000	4	1	0	4	0
56	327	7	10000	4	1	0	4	0
56	328	7	10000	4	1	0	4	0
55	329	7	10000	4	1	0	4	0
58	330	7	10000	4	1	0	4	0
56	331	7	10000	4	1	0	4	0
56	332	7	10000	4	1	0	4	0
57	333	7	10000	4	1	0	4	0
57	334	7	10000	4	1	0	4	0
56	335	7	10000	4	1	0	4	0
55	336	7	10000	4	1	0	4	0
54	337	7	10000	4	1	0	4	0
53	338	7	10000	4	1	0	4	0
52	339	7	10000	4	1	0	4	0
48	340	7	10000	4	1	0	4	0
48	341	7	10000	4	1	0	4	0
48	342	7	10000	4	1	0	4	0
46	343	7	10000	4	1	0	4	0
46	344	7	10000	4	1	0	4	0
44	345	7	10000	4	1	0	4	0
44	346	7	10000	4	1	0	4	0
42	347	7	10000	4	1	0	4	0
42	348	7	10000	4	1	0	4	0
44	349	7	10000	4	1	0	4	0
48	350	7	10000	4	1	0	4	0
47	351	7	10000	4	1	0	4	0
46	352	7	10000	4	1	0	4	0
44	353	7	10000	4	1	0	4	0
45	354	7	10000	4	1	0	4	0
49	355	7	10000	4	1	0	4	0
50	356	7	10000	4	1	0	4	0
55	357	7	10000	4	1	0	4	0
58	358	7	10000	4	1	0	4	0
58	359	7	10000	4	1	0	4	0
55	360	7	10000	4	1	0	4	0
54	361	7	10000	4	1	0	4	0
56	362	7	10000	4	1	0	4	0
57	363	7	10000	4	1	0	4	0
58	364	7	10000	4	1	0	4	0
57	365	7	10000	4	1	0	4	0
58	366	7	10000	4	1	0	4	0
56	367	7	10000	4	1	0	4	0
59	368	7	10000	4	1	0	4	0
59	369	7	10000	4	1	0	4	0
60	370	7	10000	4	1	0	4	0
59	371	7	10000	4	1	0	4	0
56	372	7	10000	4	1	0	4	0
54	373	7	10000	4	1	0	4	0
54	374	7	10000	4	1	0	4	0
53	375	7	10000	4	1	0	4	0
53	376	7	10000	4	1	0	4	0
53	377	7	10000	4	1	0	4	0
52	378	7	10000	4	1	0	4	0
53	379	7	10000	4	1	0	4	0
51	380	7	10000	4	1	0	4	0
51	381	7	10000	4	1	0	4	0
53	382	7	10000	4	1	0	4	0
57	383	7	10000	4	1	0	4	0
58	384	7	10000	4	1	0	4	0
58	385	7	10000	4	1	0	4	0
60	386	7	10000	4	1	0	4	0
60	387	7	10000	4	1	0	4	0
59	388	7	10000	4	1	0	4	0
60	389	7	10000	4	1	0	4	0
65	390	7	10000	4	1	0	4	0
64	391	7	10000	4	1	0	4	0
64	392	7	10000	4	1	0	4	0
64	393	7	10000	4	1	0	4	0
62	394	7	10000	4	1	0	4	0
60	395	7	10000	4	1	0	4	0
58	396	7	10000	4	1	0	4	0
62	397	7	10000	4	1	0	4	0
66	398	7	10000	4	1	0	4	0
73	399	7	10000	4	1	0	4	0
79	400	7	10000	4	1	0	4	0
87	401	7	10000	4	1	0	4	0
100	402	7	10000	4	1	0	4	0
116	403	7	10000	4	1	0	4	0
130	404	7	10000	4	1	0	4	0
140	405	7	10000	4	1	0	4	0
148	406	7	10000	4	1	0	4	0
155	407	7	10000	4	1	0	4	0
162	408	7	10000	4	1	0	4	0
166	409	7	10000	4	1	0	4	0
170	410	7	10000	4	1	0	4	0
171	411	7	10000	4	1	0	4	0
175	412	7	10000	4	1	0	4	0
180	413	7	10000	4	1	0	4	0
185	414	7	10000	4	1	0	4	0
190	415	7	10000	4	1	0	4	0
193	416	7	10000	4	1	0	4	0
198	417	7	10000	4	1	0	4	0
202	418	7	10000	4	1	0	4	0
204	419	7	10000	4	1	0	4	0
201	420	7	10000	4	1	0	4	0
200	421	7	10000	4	1	0	4	0
198	422	7	10000	4	1	0	4	0
193	423	7	10000	4	1	0	4	0
188	424	7	10000	4	1	0	4	0
182	425	7	10000	4	1	0	4	0
176	426	7	10000	4	1	0	4	0
167	427	7	10000	4	1	0	4	0
162	428	7	10000	4	1	0	4	0
155	429	7	10000	4	1	0	4	0
153	430	7	10000	4	1	0	4	0
153	431	7	10000	4	1	0	4	0
160	432	7	10000	4	1	0	4	0
166	433	7	10000	4	1	0	4	0
172	434	7	10000	4	1	0	4	0
176	435	7	10000	4	1	0	4	0
181	436	7	10000	4	1	0	4	0
186	437	7	10000	4	1	0	4	0
186	438	7	10000	4	1	0	4	0
185	439	7	10000	4	1	0	4	0
182	440	7	10000	4	1	0	4	0
189	441	7	10000	4	1	0	4	0
193	442	7	10000	4	1	0	4	0
196	443	7	10000	4	1	0	4	0
197	444	7	10000	4	1	0	4	0
198	445	7	10000	4	1	0	4	0
200	446	7	10000	4	1	0	4	0
202	447	7	10000	4	1	0	4	0
206	448	7	10000	4	1	0	4	0
209	449	7	10000	4	1	0	4	0
214	450	7	10000	4	1	0	4	0
218	451	7	10000	4	1	0	4	0
220	452	7	10000	4	1	0	4	0
221	453	7	10000	4	1	0	4	0
222	454	7	10000	4	1	0	4	0
221	455	7	10000	4	1	0	4	0
218	456	7	10000	4	1	0	4	0
218	457	7	10000	4	1	0	4	0
218	458	7	10000	4	1	0	4	0
220	459	7	10000	4	1	0	4	0
225	460	7	10000	4	1	0	4	0
232	461	7	10000	4	1	0	4	0
236	462	7	10000	4	1	0	4	0
234	463	7	10000	4	1	0	4	0
228	464	7	10000	4	1	0	4	0
223	465	7	10000	4	1	0	4	0
213	466	7	10000	4	1	0	4	0
207	467	7	10000	4	1	0	4	0
209	468	7	10000	4	1	0	4	0
210	469	7	10000	4	1	0	4	0
213	470	7	10000	4	1	0	4	0
212	471	7	10000	4	1	0	4	0
211	472	7	10000	4	1	0	4	0
204	473	7	10000	4	1	0	4	0
196	474	7	10000	4	1	0	4	0
189	475	7	10000	4	1	0	4	0
182	476	7	10000	4	1	0	4	0
176	477	7	10000	4	1	0	4	0
172	478	7	10000	4	1	0	4	0
169	479	7	10000	4	1	0	4	0
162	480	7	10000	4	1	0	4	0
155	481	7	10000	4	1	0	4	0
153	482	7	10000	4	1	0	4	0
149	483	7	10000	4	1	0	4	0
143	484	7	10000	4	1	0	4	0
139	485	7	10000	4	1	0	4	0
136	486	7	10000	4	1	0	4	0
135	487	7	10000	4	1	0	4	0
131	488	7	10000	4	1	0	4	0
128	489	7	10000	4	1	0	4	0
128	490	7	10000	4	1	0	4	0
123	491	7	10000	4	1	0	4	0
117	492	7	10000	4	1	0	4	0
113	493	7	10000	4	1	0	4	0
108	494	7	10000	4	1	0	4	0
104	495	7	10000	4	1	0	4	0
101	496	7	10000	4	1	0	4	0
99	497	7	10000	4	1	0	4	0
99	498	7	10000	4	1	0	4	0
99	499	7	10000	4	1	0	4	0
97	500	7	10000	4	1	0	4	0
96	501	7	10000	4	1	0	4	1
94	502	7	10000	4	1	0	4	1
95	503	7	10000	4	1	0	4	1
92	504	7	10000	4	1	0	4	1
89	505	7	10000	4	1	0	4	1
87	506	7	10000	4	1	0	4	1
83	507	7	10000	4	1	0	4	1
80	508	7	10000	4	1	0	4	1
77	509	7	10000	4	1	0	4	1
76	510	7	10000	4	1	0	4	1
73	511	7	10000	4	1	0	4	1
72	512	7	10000	4	1	0	4	1
76	513	7	10000	4	1	0	4	1
76	514	7	10000	4	1	0	4	1
76	515	7	10000	4	1	0	4	1
74	516	7	10000	4	1	0	4	1
74	517	7	10000	4	1	0	4	1
74	518	7	10000	4	1	0	4	1
72	519	7	10000	4	1	0	4	1
69	520	7	10000	4	1	0	4	1
69	521	7	10000	4	1	0	4	1
67	522	7	10000	4	1	0	4	1
67	523	7	10000	4	1	0	4	1
68	524	7	10000	4	1	0	4	1
69	525	7	10000	4	1	0	4	1
70	526	7	10000	4	1	0	4	1
69	527	7	10000	4	1	0	4	1
66	528	7	10000	4	1	0	4	1
65	529	7	10000	4	1	0	4	1
64	530	7	10000	4	1	0	4	1
62	531	7	10000	4	1	0	4	1
65	532	7	10000	4	1	0	4	1
64	533	7	10000	4	1	0	4	1
66	534	7	10000	4	1	0	4	1
65	535	7	10000	4	1	0	4	1
65	536	7	10000	4	1	0	4	1
65	537	7	10000	4	1	0	4	1
63	538	7	10000	4	1	0	4	1
60	539	7	10000	4	1	0	4	1
56	540	7	10000	4	1	0	4	1
56	541	7	10000	4	1	0	4	1
55	542	7	10000	4	1	0	4	1
54	543	7	10000	4	1	0	4	1
54	544	7	10000	4	1	0	4	1
57	545	7	10000	4	1	0	4	1
57	546	7	10000	4	1	0	4	1
54	547	7	10000	4	1	0	4	1
54	548	7	10000	4	1	0	4	1
61	549	7	10000	4	1	0	4	1
74	550	7	10000	4	1	0	4	1
79	551	7	10000	4	1	0	4	0
77	552	7	10000	4	1	0	4	0
78	553	7	10000	4	1	0	4	0
80	554	7	10000	4	1	0	4	0
80	555	7	10000	4	1	0	4	0
80	556	7	10000	4	1	0	4	0
79	557	7	10000	4	1	0	4	0
80	558	7	10000	4	1	0	4	0
84	559	7	10000	4	1	0	4	0
81	560	7	10000	4	1	0	4	0
78	561	7	10000	4	1	0	4	0
77	562	7	10000	4	1	0	4	0
76	563	7	10000	4	1	0	4	0
73	564	7	10000	4	1	0	4	0
69	565	7	10000	4	1	0	4	0
71	566	7	10000	4	1	0	4	0
72	567	7	10000	4	1	0	4	0
69	568	7	10000	4	1	0	4	0
70	569	7	10000	4	1	0	4	0
73	570	7	10000	4	1	0	4	0
74	571	7	10000	4	1	0	4	0
74	572	7	10000	4	1	0	4	0
76	573	7	10000	4	1	0	4	0
77	574	7	10000	4	1	0	4	0
80	575	7	10000	4	1	0	4	0
97	576	7	10000	4	1	0	4	0
117	577	7	10000	4	1	0	4	0
130	578	7	10000	4	1	0	4	0
137	579	7	10000	4	1	0	4	0
158	580	7	10000	4	1	0	4	0
175	581	7	10000	4	1	0	4	0
185	582	7	10000	4	1	0	4	0
184	583	7	10000	4	1	0	4	0
182	584	7	10000	4	1	0	4	0
176	585	7	10000	4	1	0	4	0
169	586	7	10000	4	1	0	4	0
168	587	7	10000	4	1	0	4	0
167	588	7	10000	4	1	0	4	0
176	589	7	10000	4	1	0	4	0
194	590	7	10000	4	1	0	4	0
254	591	7	10000	4	1	0	4	0
293	592	7	10000	4	1	0	4	0
300	593	7	10000	4	1	0	4	0
309	594	7	10000	4	1	0	4	0
302	595	7	10000	4	1	0	4	0
302	596	7	10000	4	1	0	4	0
302	597	7	10000	4	1	0	4	0
335	598	7	10000	4	1	0	4	0
361	599	7	10000	4	1	0	4	0
378	600	7	10000	4	1	0	4	0
377	601	7	10000	4	1	0	4	0
403	602	7	10000	4	1	0	4	0
442	603	7	10000	4	1	0	4	0
459	604	7	10000	4	1	0	4	0
451	605	7	10000	4	1	0	4	0
478	606	7	10000	4	1	0	4	0
515	607	7	10000	4	1	0	4	0
526	608	7	10000	4	1	0	4	0
507	609	7	10000	4	1	0	4	0
493	610	7	10000	4	1	0	4	0
484	611	7	10000	4	1	0	4	0
486	612	7	10000	4	1	0	4	0
492	613	7	10000	4	1	0	4	0
498	614	7	10000	4	1	0	4	0
501	615	7	10000	4	1	0	4	0
504	616	7	10000	4	1	0	4	0
510	617	7	10000	4	1	0	4	0
522	618	7	10000	4	1	0	4	0
533	619	7	10000	4	1	0	4	0
539	620	7	10000	4	1	0	4	0
546	621	7	10000	4	1	0	4	0
553	622	7	10000	4	1	0	4	0
562	623	7	10000	4	1	0	4	0
572	624	7	10000	4	1	0	4	0
580	625	7	10000	4	1	0	4	0
586	626	7	10000	4	1	0	4	0
587	627	7	10000	4	1	0	4	0
593	628	7	10000	4	1	0	4	0
599	629	7	10000	4	1	0	4	0
600	630	7	10000	4	1	0	4	0
598	631	7	10000	4	1	0	4	0
595	632	7	10000	4	1	0	4	0
586	633	7	10000	4	1	0	4	0
579	634	7	10000	4	1	0	4	0
571	635	7	10000	4	1	0	4	0
561	636	7	10000	4	1	0	4	0
547	637	7	10000	4	1	0	4	0
533	638	7	10000	4	1	0	4	0
514	639	7	10000	4	1	0	4	0
492	640	7	10000	4	1	0	4	0
474	641	7	10000	4	1	0	4	0
458	642	7	10000	4	1	0	4	0
440	643	7	10000	4	1	0	4	0
421	644	7	10000	4	1	0	4	0
402	645	7	10000	4	1	0	4	0
386	646	7	10000	4	1	0	4	0
375	647	7	10000	4	1	0	4	0
365	648	7	10000	4	1	0	4	0
362	649	7	10000	4	1	0	4	0
368	650	7	10000	4	1	0	4	0
370	651	7	10000	4	1	0	4	0
369	652	7	10000	4	1	0	4	0
364	653	7	10000	4	1	0	4	0
357	654	7	10000	4	1	0	4	0
357	655	7	10000	4	1	0	4	0
363	656	7	10000	4	1	0	4	0
370	657	7	10000	4	1	0	4	0
380	658	7	10000	4	1	0	4	0
389	659	7	10000	4	1	0	4	0
391	660	7	10000	4	1	0	4	0
398	661	7	10000	4	1	0	4	0
405	662	7	10000	4	1	0	4	0
410	663	7	10000	4	1	0	4	0
418	664	7	10000	4	1	0	4	0
427	665	7	10000	4	1	0	4	0
436	666	7	10000	4	1	0	4	0
444	667	7	10000	4	1	0	4	0
445	668	7	10000	4	1	0	4	0
445	669	7	10000	4	1	0	4	0
447	670	7	10000	4	1	0	4	0
451	671	7	10000	4	1	0	4	0
456	672	7	10000	4	1	0	4	0
458	673	7	10000	4	1	0	4	0
458	674	7	10000	4	1	0	4	0
459	675	7	10000	4	1	0	4	0
462	676	7	10000	4	1	0	4	0
463	677	7	10000	4	1	0	4	0
468	678	7	10000	4	1	0	4	0
472	679	7	10000	4	1	0	4	0
470	680	7	10000	4	1	0	4	0
472	681	7	10000	4	1	0	4	0
467	682	7	10000	4	1	0	4	0
471	683	7	10000	4	1	0	4	0
471	684	7	10000	4	1	0	4	0
464	685	7	10000	4	1	0	4	0
461	686	7	10000	4	1	0	4	0
455	687	7	10000	4	1	0	4	0
455	688	7	10000	4	1	0	4	0
456	689	7	10000	4	1	0	4	0
459	690	7	10000	4	1	0	4	0
456	691	7	10000	4	1	0	4	0
452	692	7	10000	4	1	0	4	0
448	693	7	10000	4	1	0	4	0
445	694	7	10000	4	1	0	4	0
442	695	7	10000	4	1	0	4	0
437	696	7	10000	4	1	0	4	0
434	697	7	10000	4	1	0	4	0
426	698	7	10000	4	1	0	4	0
417	699	7	10000	4	1	0	4	0
408	700	7	10000	4	1	0	4	0
401	701	7	10000	4	1	0	4	0
391	702	7	10000	4	1	0	4	0
382	703	7	10000	4	1	0	4	0
371	704	7	10000	4	1	0	4	0
358	705	7	10000	4	1	0	4	0
344	706	7	10000	4	1	0	4	0
332	707	7	10000	4	1	0	4	0
322	708	7	10000	4	1	0	4	0
311	709	7	10000	4	1	0	4	0
309	710	7	10000	4	1	0	4	0
305	711	7	10000	4	1	0	4	0
297	712	7	10000	4	1	0	4	0
287	713	7	10000	4	1	0	4	0
281	714	7	10000	4	1	0	4	0
273	715	7	10000	4	1	0	4	0
261	716	7	10000	4	1	0	4	0
251	717	7	10000	4	1	0	4	0
241	718	7	10000	4	1	0	4	0
231	719	7	10000	4	1	0	4	0
219	720	7	10000	4	1	0	4	0
215	721	7	10000	4	1	0	4	0
209	722	7	10000	4	1	0	4	0
202	723	7	10000	4	1	0	4	0
199	724	7	10000	4	1	0	4	0
196	725	7	10000	4	1	0	4	0
196	726	7	10000	4	1	0	4	0
195	727	7	10000	4	1	0	4	0
196	728	7	10000	4	1	0	4	0
198	729	7	10000	4	1	0	4	0
200	730	7	10000	4	1	0	4	0
199	731	7	10000	4	1	0	4	0
194	732	7	10000	4	1	0	4	0
188	733	7	10000	4	1	0	4	0
185	734	7	10000	4	1	0	4	0
180	735	7	10000	4	1	0	4	0
175	736	7	10000	4	1	0	4	0
173	737	7	10000	4	1	0	4	0
174	738	7	10000	4	1	0	4	0
172	739	7	10000	4	1	0	4	0
169	740	7	10000	4	1	0	4	0
169	741	7	10000	4	1	0	4	0
166	742	7	10000	4	1	0	4	0
162	743	7	10000	4	1	0	4	0
157	744	7	10000	4	1	0	4	0
155	745	7	10000	4	1	0	4	0
157	746	7	10000	4	1	0	4	0
157	747	7	10000	4	1	0	4	0
155	748	7	10000	4	1	0	4	0
155	749	7	10000	4	1	0	4	0
156	750	7	10000	4	1	0	4	0
156	751	7	10000	4	1	0	4	0
157	752	7	10000	4	1	0	4	0
158	753	7	10000	4	1	0	4	0
161	754	7	10000	4	1	0	4	0
159	755	7	10000	4	1	0	4	0
153	756	7	10000	4	1	0	4	0
149	757	7	10000	4	1	0	4	0
145	758	7	10000	4	1	0	4	0
140	759	7	10000	4	1	0	4	0
136	760	7	10000	4	1	0	4	0
135	761	7	10000	4	1	0	4	0
130	762	7	10000	4	1	0	4	0
125	763	7	10000	4	1	0	4	0
121	764	7	10000	4	1	0	4	0
117	765	7	10000	4	1	0	4	0
113	766	7	10000	4	1	0	4	0
112	767	7	10000	4	1	0	4	0
116	768	7	10000	4	1	0	4	0
124	769	7	10000	4	1	0	4	0
133	770	7	10000	4	1	0	4	0
135	771	7	10000	4	1	0	4	0
133	772	7	10000	4	1	0	4	0
129	773	7	10000	4	1	0	4	0
124	774	7	10000	4	1	0	4	0
122	775	7	10000	4	1	0	4	0
119	776	7	10000	4	1	0	4	0
121	777	7	10000	4	1	0	4	0
120	778	7	10000	4	1	0	4	0
117	779	7	10000	4	1	0	4	0
115	780	7	10000	4	1	0	4	0
112	781	7	10000	4	1	0	4	0
111	782	7	10000	4	1	0	4	0
108	783	7	10000	4	1	0	4	0
107	784	7	10000	4	1	0	4	0
108	785	7	10000	4	1	0	4	0
109	786	7	10000	4	1	0	4	0
108	787	7	10000	4	1	0	4	0
109	788	7	10000	4	1	0	4	0
109	789	7	10000	4	1	0	4	0
112	790	7	10000	4	1	0	4	0
110	791	7	10000	4	1	0	4	0
108	792	7	10000	4	1	0	4	0
106	793	7	10000	4	1	0	4	0
102	794	7	10000	4	1	0	4	0
99	795	7	10000	4	1	0	4	0
95	796	7	10000	4	1	0	4	0
96	797	7	10000	4	1	0	4	0
95	798	7	10000	4	1	0	4	0
92	799	7	10000	4	1	0	4	0
87	800	7	10000	4	1	0	4	0
88	801	7	10000	4	1	0	4	0
88	802	7	10000	4	1	0	4	0
88	803	7	10000	4	1	0	4	0
87	804	7	10000	4	1	0	4	0
84	805	7	10000	4	1	0	4	0
81	806	7	10000	4	1	0	4	0
78	807	7	10000	4	1	0	4	0
76	808	7	10000	4	1	0	4	0
74	809	7	10000	4	1	0	4	0
73	810	7	10000	4	1	0	4	0
73	811	7	10000	4	1	0	4	0
71	812	7	10000	4	1	0	4	0
71	813	7	10000	4	1	0	4	0
68	814	7	10000	4	1	0	4	0
66	815	7	10000	4	1	0	4	0
68	816	7	10000	4	1	0	4	0
70	817	7	10000	4	1	0	4	0
67	818	7	10000	4	1	0	4	0
65	819	7	10000	4	1	0	4	0
60	820	7	10000	4	1	0	4	0
60	821	7	10000	4	1	0	4	0
62	822	7	10000	4	1	0	4	0
64	823	7	10000	4	1	0	4	0
67	824	7	10000	4	1	0	4	0
68	825	7	10000	4	1	0	4	0
67	826	7	10000	4	1	0	4	0
68	827	7	10000	4	1	0	4	0
70	828	7	10000	4	1	0	4	0
73	829	7	10000	4	1	0	4	0
76	830	7	10000	4	1	0	4	0
73	831	7	10000	4	1	0	4	0
72	832	7	10000	4	1	0	4	0
68	833	7	10000	4	1	0	4	0
66	834	7	10000	4	1	0	4	0
64	835	7	10000	4	1	0	4	0
61	836	7	10000	4	1	0	4	0
60	837	7	10000	4	1	0	4	0
59	838	7	10000	4	1	0	4	0
57	839	7	10000	4	1	0	4	0
54	840	7	10000	4	1	0	4	0
54	841	7	10000	4	1	0	4	0
55	842	7	10000	4	1	0	4	0
53	843	7	10000	4	1	0	4	0
52	844	7	10000	4	1	0	4	0
51	845	7	10000	4	1	0	4	0
50	846	7	10000	4	1	0	4	0
48	847	7	10000	4	1	0	4	0
46	848	7	10000	4	1	0	4	0
46	849	7	10000	4	1	0	4	0
47	850	7	10000	4	1	0	4	0
49	851	7	10000	4	1	0	4	0
54	852	7	10000	4	1	0	4	0
55	853	7	10000	4	1	0	4	0
56	854	7	10000	4	1	0	4	0
55	855	7	10000	4	1	0	4	0
53	856	7	10000	4	1	0	4	0
54	857	7	10000	4	1	0	4	0
55	858	7	10000	4	1	0	4	0
52	859	7	10000	4	1	0	4	0
48	860	7	10000	4	1	0	4	0
47	861	7	10000	4	1	0	4	0
47	862	7	10000	4	1	0	4	0
52	863	7	10000	4	1	0	4	0
53	864	7	10000	4	1	0	4	0
53	865	7	10000	4	1	0	4	0
50	866	7	10000	4	1	0	4	0
50	867	7	10000	4	1	0	4	0
53	868	7	10000	4	1	0	4	0
56	869	7	10000	4	1	0	4	0
59	870	7	10000	4	1	0	4	0
57	871	7	10000	4	1	0	4	0
57	872	7	10000	4	1	0	4	0
58	873	7	10000	4	1	0	4	0
59	874	7	10000	4	1	0	4	0
61	875	7	10000	4	1	0	4	0
64	876	7	10000	4	1	0	4	0
64	877	7	10000	4	1	0	4	0
63	878	7	10000	4	1	0	4	0
61	879	7	10000	4	1	0	4	0
59	880	7	10000	4	1	0	4	0
63	881	7	10000	4	1	0	4	0
63	882	7	10000	4	1	0	4	0
61	883	7	10000	4	1	0	4	0
66	884	7	10000	4	1	0	4	0
71	885	7	10000	4	1	0	4	0
75	886	7	10000	4	1	0	4	0
75	887	7	10000	4	1	0	4	0
76	888	7	10000	4	1	0	4	0
82	889	7	10000	4	1	0	4	0
87	890	7	10000	4	1	0	4	0
86	891	7	10000	4	1	0	4	0
90	892	7	10000	4	1	0	4	0
93	893	7	10000	4	1	0	4	0
95	894	7	10000	4	1	0	4	0
95	895	7	10000	4	1	0	4	0
93	896	7	10000	4	1	0	4	0
95	897	7	10000	4	1	0	4	0
95	898	7	10000	4	1	0	4	0
91	899	7	10000	4	1	0	4	0
87	900	7	10000	4	1	0	4	0
83	901	7	10000	4	1	0	4	0
82	902	7	10000	4	1	0	4	0
83	903	7	10000	4	1	0	4	0
86	904	7	10000	4	1	0	4	0
89	905	7	10000	4	1	0	4	0
91	906	7	10000	4	1	0	4	0
88	907	7	10000	4	1	0	4	0
91	908	7	10000	4	1	0	4	0
99	909	7	10000	4	1	0	4	0
99	910	7	10000	4	1	0	4	0
99	911	7	10000	4	1	0	4	0
100	912	7	10000	4	1	0	4	0
105	913	7	10000	4	1	0	4	0
112	914	7	10000	4	1	0	4	0
120	915	7	10000	4	1	0	4	0
127	916	7	10000	4	1	0	4	0
130	917	7	10000	4	1	0	4	0
128	918	7	10000	4	1	0	4	0
125	919	7	10000	4	1	0	4	0
121	920	7	10000	4	1	0	4	0
117	921	7	10000	4	1	0	4	0
122	922	7	10000	4	1	0	4	0
127	923	7	10000	4	1	0	4	0
125	924	7	10000	4	1	0	4	0
120	925	7	10000	4	1	0	4	0
123	926	7	10000	4	1	0	4	0
130	927	7	10000	4	1	0	4	0
137	928	7	10000	4	1	0	4	0
138	929	7	10000	4	1	0	4	0
136	930	7	10000	4	1	0	4	0
137	931	7	10000	4	1	0	4	0
139	932	7	10000	4	1	0	4	0
137	933	7	10000	4	1	0	4	0
133	934	7	10000	4	1	0	4	0
133	935	7	10000	4	1	0	4	0
132	936	7	10000	4	1	0	4	0
128	937	7	10000	4	1	0	4	0
123	938	7	10000	4	1	0	4	0
118	939	7	10000	4	1	0	4	0
113	940	7	10000	4	1	0	4	0
109	941	7	10000	4	1	0	4	0
108	942	7	10000	4	1	0	4	0
104	943	7	10000	4	1	0	4	0
100	944	7	10000	4	1	0	4	0
96	945	7	10000	4	1	0	4	0
92	946	7	10000	4	1	0	4	0
88	947	7	10000	4	1	0	4	0
88	948	7	10000	4	1	0	4	0
91	949	7	10000	4	1	0	4	0
90	950	7	10000	4	1	0	4	0
87	951	7	10000	4	1	0	4	0
87	952	7	10000	4	1	0	4	0
87	953	7	10000	4	1	0	4	0
84	954	7	10000	4	1	0	4	0
80	955	7	10000	4	1	0	4	0
80	956	7	10000	4	1	0	4	0
84	957	7	10000	4	1	0	4	0
87	958	7	10000	4	1	0	4	0
89	959	7	10000	4	1	0	4	0
86	960	7	10000	4	1	0	4	0
85	961	7	10000	4	1	0	4	0
87	962	7	10000	4	1	0	4	0
91	963	7	10000	4	1	0	4	0
92	964	7	10000	4	1	0	4	0
88	965	7	10000	4	1	0	4	0
85	966	7	10000	4	1	0	4	0
83	967	7	10000	4	1	0	4	0
82	968	7	10000	4	1	0	4	0
81	969	7	10000	4	1	0	4	0
80	970	7	10000	4	1	0	4	0
76	971	7	10000	4	1	0	4	0
75	972	7	10000	4	1	0	4	0
73	973	7	10000	4	1	0	4	0
70	974	7	10000	4	1	0	4	0
70	975	7	10000	4	1	0	4	0
70	976	7	10000	4	1	0	4	0
69	977	7	10000	4	1	0	4	0
72	978	7	10000	4	1	0	4	0
76	979	7	10000	4	1	0	4	0
74	980	7	10000	4	1	0	4	0
72	981	7	10000	4	1	0	4	0
72	982	7	10000	4	1	0	4	0
79	983	7	10000	4	1	0	4	0
80	984	7	10000	4	1	0	4	0
78	985	7	10000	4	1	0	4	0
80	986	7	10000	4	1	0	4	0
79	987	7	10000	4	1	0	4	0
75	988	7	10000	4	1	0	4	0
75	989	7	10000	4	1	0	4	0
78	990	7	10000	4	1	0	4	0
76	991	7	10000	4	1	0	4	0
74	992	7	10000	4	1	0	4	0
71	993	7	10000	4	1	0	4	0
69	994	7	10000	4	1	0	4	0
67	995	7	10000	4	1	0	4	0
68	996	7	10000	4	1	0	4	0
70	997	7	10000	4	1	0	4	0
69	998	7	10000	4	1	0	4	0
66	999	7	10000	4	1	0	4	0
65	1000	7	10000	4	1	0	4	0
36	1	0	10000	5	1	0	5	0
35	2	0	10000	5	1	0	5	0
36	3	0	10000	5	1	0	5	0
34	4	0	10000	5	1	0	5	0
33	5	0	10000	5	1	0	5	0
33	6	0	10000	5	1	0	5	0
35	7	0	10000	5	1	0	5	0
37	8	0	10000	5	1	0	5	0
38	9	0	10000	5	1	0	5	0
39	10	0	10000	5	1	0	5	0
42	11	0	10000	5	1	0	5	0
43	12	0	10000	5	1	0	5	0
43	13	0	10000	5	1	0	5	0
43	14	0	10000	5	1	0	5	0
47	15	0	10000	5	1	0	5	0
51	16	0	10000	5	1	0	5	0
51	17	0	10000	5	1	0	5	0
48	18	0	10000	5	1	0	5	0
47	19	0	10000	5	1	0	5	0
47	20	0	10000	5	1	0	5	0
46	20	0	10000	5	1	0	5	0
44	21	0	10000	5	1	0	5	0
44	23	0	10000	5	1	0	5	0
42	24	0	10000	5	1	0	5	0
42	25	0	10000	5	1	0	5	0
41	26	0	10000	5	1	0	5	0
42	27	0	10000	5	1	0	5	0
43	28	0	10000	5	1	0	5	0
42	29	0	10000	5	1	0	5	0
42	30	0	10000	5	1	0	5	0
40	30	0	10000	5	1	0	5	0
41	31	0	10000	5	1	0	5	0
43	33	0	10000	5	1	0	5	0
44	34	0	10000	5	1	0	5	0
43	35	0	10000	5	1	0	5	0
43	36	0	10000	5	1	0	5	0
42	37	0	10000	5	1	0	5	0
41	38	0	10000	5	1	0	5	0
40	39	0	10000	5	1	0	5	0
39	40	0	10000	5	1	0	5	0
40	41	0	10000	5	1	0	5	0
41	42	0	10000	5	1	0	5	0
39	43	0	10000	5	1	0	5	0
39	44	0	10000	5	1	0	5	0
40	45	0	10000	5	1	0	5	0
38	46	0	10000	5	1	0	5	0
38	47	0	10000	5	1	0	5	0
39	48	0	10000	5	1	0	5	0
38	49	0	10000	5	1	0	5	0
36	50	0	10000	5	1	0	5	0
35	50	0	10000	5	1	0	5	0
34	51	0	10000	5	1	0	5	0
33	53	0	10000	5	1	0	5	0
35	54	0	10000	5	1	0	5	0
38	55	0	10000	5	1	0	5	0
40	56	0	10000	5	1	0	5	0
41	57	0	10000	5	1	0	5	0
39	58	0	10000	5	1	0	5	0
42	59	0	10000	5	1	0	5	0
42	60	0	10000	5	1	0	5	0
40	60	0	10000	5	1	0	5	0
42	61	0	10000	5	1	0	5	0
44	63	0	10000	5	1	0	5	0
47	64	0	10000	5	1	0	5	0
47	65	0	10000	5	1	0	5	0
45	66	0	10000	5	1	0	5	0
45	67	0	10000	5	1	0	5	0
45	68	0	10000	5	1	0	5	0
43	69	0	10000	5	1	0	5	0
41	70	0	10000	5	1	0	5	0
40	70	0	10000	5	1	0	5	0
42	71	0	10000	5	1	0	5	0
46	73	0	10000	5	1	0	5	0
50	74	0	10000	5	1	0	5	0
50	75	0	10000	5	1	0	5	0
49	76	0	10000	5	1	0	5	0
50	77	0	10000	5	1	0	5	0
50	78	0	10000	5	1	0	5	0
50	79	0	10000	5	1	0	5	0
50	80	0	10000	5	1	0	5	0
49	80	0	10000	5	1	0	5	0
47	81	0	10000	5	1	0	5	0
47	83	0	10000	5	1	0	5	0
46	84	0	10000	5	1	0	5	0
47	85	0	10000	5	1	0	5	0
50	86	0	10000	5	1	0	5	0
56	87	0	10000	5	1	0	5	0
62	88	0	10000	5	1	0	5	0
64	89	0	10000	5	1	0	5	0
65	90	0	10000	5	1	0	5	0
64	91	0	10000	5	1	0	5	0
65	92	0	10000	5	1	0	5	0
64	93	0	10000	5	1	0	5	0
61	94	0	10000	5	1	0	5	0
61	95	0	10000	5	1	0	5	0
61	96	0	10000	5	1	0	5	0
60	97	0	10000	5	1	0	5	0
57	98	0	10000	5	1	0	5	0
56	99	0	10000	5	1	0	5	0
54	100	0	10000	5	1	0	5	0
55	100	0	10000	5	1	0	5	0
55	101	0	10000	5	1	0	5	0
54	103	0	10000	5	1	0	5	0
52	104	0	10000	5	1	0	5	0
50	105	0	10000	5	1	0	5	0
49	106	0	10000	5	1	0	5	0
48	107	0	10000	5	1	0	5	0
49	108	0	10000	5	1	0	5	0
48	109	0	10000	5	1	0	5	0
47	110	0	10000	5	1	0	5	0
47	111	0	10000	5	1	0	5	0
45	112	0	10000	5	1	0	5	0
46	113	0	10000	5	1	0	5	0
46	114	0	10000	5	1	0	5	0
47	115	0	10000	5	1	0	5	0
49	116	0	10000	5	1	0	5	0
47	117	0	10000	5	1	0	5	0
48	118	0	10000	5	1	0	5	0
51	119	0	10000	5	1	0	5	0
51	120	0	10000	5	1	0	5	0
49	120	0	10000	5	1	0	5	0
47	121	0	10000	5	1	0	5	0
46	123	0	10000	5	1	0	5	0
44	124	0	10000	5	1	0	5	0
46	125	0	10000	5	1	0	5	0
47	126	0	10000	5	1	0	5	0
51	127	0	10000	5	1	0	5	0
54	128	0	10000	5	1	0	5	0
52	129	0	10000	5	1	0	5	0
50	130	0	10000	5	1	0	5	0
48	130	0	10000	5	1	0	5	0
48	131	0	10000	5	1	0	5	0
49	133	0	10000	5	1	0	5	0
52	134	0	10000	5	1	0	5	0
52	135	0	10000	5	1	0	5	0
51	136	0	10000	5	1	0	5	0
50	137	0	10000	5	1	0	5	0
49	138	0	10000	5	1	0	5	0
49	139	0	10000	5	1	0	5	0
49	140	0	10000	5	1	0	5	0
52	141	0	10000	5	1	0	5	0
55	142	0	10000	5	1	0	5	0
56	143	0	10000	5	1	0	5	0
56	144	0	10000	5	1	0	5	0
59	145	0	10000	5	1	0	5	0
61	146	0	10000	5	1	0	5	0
62	147	0	10000	5	1	0	5	0
60	148	0	10000	5	1	0	5	0
57	149	0	10000	5	1	0	5	0
57	150	0	10000	5	1	0	5	0
56	150	0	10000	5	1	0	5	0
54	151	0	10000	5	1	0	5	0
54	153	0	10000	5	1	0	5	0
53	154	0	10000	5	1	0	5	0
53	155	0	10000	5	1	0	5	0
55	156	0	10000	5	1	0	5	0
56	157	0	10000	5	1	0	5	0
55	158	0	10000	5	1	0	5	0
53	159	0	10000	5	1	0	5	0
54	160	0	10000	5	1	0	5	0
53	160	0	10000	5	1	0	5	0
54	161	0	10000	5	1	0	5	0
56	163	0	10000	5	1	0	5	0
58	164	0	10000	5	1	0	5	0
56	165	0	10000	5	1	0	5	0
53	166	0	10000	5	1	0	5	0
53	167	0	10000	5	1	0	5	0
52	168	0	10000	5	1	0	5	0
50	169	0	10000	5	1	0	5	0
50	170	0	10000	5	1	0	5	0
54	170	0	10000	5	1	0	5	0
58	171	0	10000	5	1	0	5	0
60	173	0	10000	5	1	0	5	0
58	174	0	10000	5	1	0	5	0
56	175	0	10000	5	1	0	5	0
58	176	0	10000	5	1	0	5	0
56	177	0	10000	5	1	0	5	0
54	178	0	10000	5	1	0	5	0
53	179	0	10000	5	1	0	5	0
55	180	0	10000	5	1	0	5	0
60	180	0	10000	5	1	0	5	0
65	181	0	10000	5	1	0	5	0
67	183	0	10000	5	1	0	5	0
68	184	0	10000	5	1	0	5	0
70	185	0	10000	5	1	0	5	0
72	186	0	10000	5	1	0	5	0
73	187	0	10000	5	1	0	5	0
72	188	0	10000	5	1	0	5	0
73	189	0	10000	5	1	0	5	0
70	190	0	10000	5	1	0	5	0
69	191	0	10000	5	1	0	5	0
70	192	0	10000	5	1	0	5	0
68	193	0	10000	5	1	0	5	0
67	194	0	10000	5	1	0	5	0
65	195	0	10000	5	1	0	5	0
63	196	0	10000	5	1	0	5	0
61	197	0	10000	5	1	0	5	0
57	198	0	10000	5	1	0	5	0
58	199	0	10000	5	1	0	5	0
59	200	0	10000	5	1	0	5	0
61	200	0	10000	5	1	0	5	0
60	201	0	10000	5	1	0	5	0
59	203	0	10000	5	1	0	5	0
62	204	0	10000	5	1	0	5	0
66	205	0	10000	5	1	0	5	0
66	206	0	10000	5	1	0	5	0
67	207	0	10000	5	1	0	5	0
65	208	0	10000	5	1	0	5	0
62	209	0	10000	5	1	0	5	0
59	210	0	10000	5	1	0	5	0
58	210	0	10000	5	1	0	5	0
57	211	0	10000	5	1	0	5	0
55	213	0	10000	5	1	0	5	0
53	214	0	10000	5	1	0	5	0
53	215	0	10000	5	1	0	5	0
51	216	0	10000	5	1	0	5	0
49	217	0	10000	5	1	0	5	0
46	218	0	10000	5	1	0	5	0
46	219	0	10000	5	1	0	5	0
47	220	0	10000	5	1	0	5	0
51	220	0	10000	5	1	0	5	0
49	221	0	10000	5	1	0	5	0
49	223	0	10000	5	1	0	5	0
48	224	0	10000	5	1	0	5	0
47	225	0	10000	5	1	0	5	0
45	226	0	10000	5	1	0	5	0
45	227	0	10000	5	1	0	5	0
45	228	0	10000	5	1	0	5	0
44	229	0	10000	5	1	0	5	0
44	230	0	10000	5	1	0	5	0
43	230	0	10000	5	1	0	5	0
41	231	0	10000	5	1	0	5	0
40	233	0	10000	5	1	0	5	0
43	234	0	10000	5	1	0	5	0
44	235	0	10000	5	1	0	5	0
45	236	0	10000	5	1	0	5	0
43	237	0	10000	5	1	0	5	0
44	238	0	10000	5	1	0	5	0
44	239	0	10000	5	1	0	5	0
43	240	0	10000	5	1	0	5	0
43	241	0	10000	5	1	0	5	0
42	242	0	10000	5	1	0	5	0
44	243	0	10000	5	1	0	5	0
45	244	0	10000	5	1	0	5	0
45	245	0	10000	5	1	0	5	0
44	246	0	10000	5	1	0	5	0
44	247	0	10000	5	1	0	5	0
42	248	0	10000	5	1	0	5	0
42	249	0	10000	5	1	0	5	0
42	250	0	10000	5	1	0	5	0
43	250	0	10000	5	1	0	5	0
43	251	0	10000	5	1	0	5	0
42	253	0	10000	5	1	0	5	0
44	254	0	10000	5	1	0	5	0
45	255	0	10000	5	1	0	5	0
45	256	0	10000	5	1	0	5	0
42	257	0	10000	5	1	0	5	0
41	258	0	10000	5	1	0	5	0
41	259	0	10000	5	1	0	5	0
41	260	0	10000	5	1	0	5	0
39	260	0	10000	5	1	0	5	0
37	261	0	10000	5	1	0	5	0
38	263	0	10000	5	1	0	5	0
37	264	0	10000	5	1	0	5	0
36	265	0	10000	5	1	0	5	0
37	266	0	10000	5	1	0	5	0
38	267	0	10000	5	1	0	5	0
39	268	0	10000	5	1	0	5	0
39	269	0	10000	5	1	0	5	0
38	270	0	10000	5	1	0	5	0
36	270	0	10000	5	1	0	5	0
35	271	0	10000	5	1	0	5	0
35	273	0	10000	5	1	0	5	0
35	274	0	10000	5	1	0	5	0
35	275	0	10000	5	1	0	5	0
36	276	0	10000	5	1	0	5	0
35	277	0	10000	5	1	0	5	0
33	278	0	10000	5	1	0	5	0
32	279	0	10000	5	1	0	5	0
32	280	0	10000	5	1	0	5	0
32	280	0	10000	5	1	0	5	0
36	281	0	10000	5	1	0	5	0
37	283	0	10000	5	1	0	5	0
38	284	0	10000	5	1	0	5	0
38	285	0	10000	5	1	0	5	0
37	286	0	10000	5	1	0	5	0
39	287	0	10000	5	1	0	5	0
41	288	0	10000	5	1	0	5	0
40	289	0	10000	5	1	0	5	0
38	290	0	10000	5	1	0	5	0
37	290	0	10000	5	1	0	5	0
37	291	0	10000	5	1	0	5	0
36	293	0	10000	5	1	0	5	0
36	294	0	10000	5	1	0	5	0
37	295	0	10000	5	1	0	5	0
37	296	0	10000	5	1	0	5	0
39	297	0	10000	5	1	0	5	0
42	298	0	10000	5	1	0	5	0
42	299	0	10000	5	1	0	5	0
41	300	0	10000	5	1	0	5	0
42	300	0	10000	5	1	0	5	0
42	301	0	10000	5	1	0	5	0
45	303	0	10000	5	1	0	5	0
48	304	0	10000	5	1	0	5	0
52	305	0	10000	5	1	0	5	0
53	306	0	10000	5	1	0	5	0
53	307	0	10000	5	1	0	5	0
52	308	0	10000	5	1	0	5	0
50	309	0	10000	5	1	0	5	0
54	310	0	10000	5	1	0	5	0
58	310	0	10000	5	1	0	5	0
63	311	0	10000	5	1	0	5	0
64	313	0	10000	5	1	0	5	0
64	314	0	10000	5	1	0	5	0
62	315	0	10000	5	1	0	5	0
62	316	0	10000	5	1	0	5	0
58	317	0	10000	5	1	0	5	0
55	318	0	10000	5	1	0	5	0
54	319	0	10000	5	1	0	5	0
52	320	0	10000	5	1	0	5	0
52	320	0	10000	5	1	0	5	0
49	321	0	10000	5	1	0	5	0
48	323	0	10000	5	1	0	5	0
47	324	0	10000	5	1	0	5	0
44	325	0	10000	5	1	0	5	0
43	326	0	10000	5	1	0	5	0
44	327	0	10000	5	1	0	5	0
44	328	0	10000	5	1	0	5	0
42	329	0	10000	5	1	0	5	0
41	330	0	10000	5	1	0	5	0
39	330	0	10000	5	1	0	5	0
37	331	0	10000	5	1	0	5	0
36	333	0	10000	5	1	0	5	0
35	334	0	10000	5	1	0	5	0
35	335	0	10000	5	1	0	5	0
34	336	0	10000	5	1	0	5	0
34	337	0	10000	5	1	0	5	0
37	338	0	10000	5	1	0	5	0
44	339	0	10000	5	1	0	5	0
51	340	0	10000	5	1	0	5	0
53	340	0	10000	5	1	0	5	0
51	341	0	10000	5	1	0	5	0
50	343	0	10000	5	1	0	5	0
48	344	0	10000	5	1	0	5	0
50	345	0	10000	5	1	0	5	0
51	346	0	10000	5	1	0	5	0
54	347	0	10000	5	1	0	5	0
55	348	0	10000	5	1	0	5	0
56	349	0	10000	5	1	0	5	0
56	350	0	10000	5	1	0	5	0
54	350	0	10000	5	1	0	5	0
53	351	0	10000	5	1	0	5	0
51	353	0	10000	5	1	0	5	0
52	354	0	10000	5	1	0	5	0
51	355	0	10000	5	1	0	5	0
50	356	0	10000	5	1	0	5	0
48	357	0	10000	5	1	0	5	0
49	358	0	10000	5	1	0	5	0
49	359	0	10000	5	1	0	5	0
48	360	0	10000	5	1	0	5	0
47	360	0	10000	5	1	0	5	0
45	361	0	10000	5	1	0	5	0
44	363	0	10000	5	1	0	5	0
45	364	0	10000	5	1	0	5	0
49	365	0	10000	5	1	0	5	0
49	366	0	10000	5	1	0	5	0
50	367	0	10000	5	1	0	5	0
49	368	0	10000	5	1	0	5	0
48	369	0	10000	5	1	0	5	0
49	370	0	10000	5	1	0	5	0
51	370	0	10000	5	1	0	5	0
50	371	0	10000	5	1	0	5	0
48	373	0	10000	5	1	0	5	0
48	374	0	10000	5	1	0	5	0
49	375	0	10000	5	1	0	5	0
50	376	0	10000	5	1	0	5	0
46	377	0	10000	5	1	0	5	0
46	378	0	10000	5	1	0	5	0
44	379	0	10000	5	1	0	5	0
45	380	0	10000	5	1	0	5	0
48	380	0	10000	5	1	0	5	0
47	381	0	10000	5	1	0	5	0
45	383	0	10000	5	1	0	5	0
44	384	0	10000	5	1	0	5	0
42	385	0	10000	5	1	0	5	0
41	386	0	10000	5	1	0	5	0
42	387	0	10000	5	1	0	5	0
42	388	0	10000	5	1	0	5	0
42	389	0	10000	5	1	0	5	0
39	390	0	10000	5	1	0	5	0
40	390	0	10000	5	1	0	5	0
38	391	0	10000	5	1	0	5	0
39	393	0	10000	5	1	0	5	0
41	394	0	10000	5	1	0	5	0
48	395	0	10000	5	1	0	5	0
56	396	0	10000	5	1	0	5	0
58	397	0	10000	5	1	0	5	0
60	398	0	10000	5	1	0	5	0
60	399	0	10000	5	1	0	5	0
62	400	0	10000	5	1	0	5	0
65	400	0	10000	5	1	0	5	0
70	401	0	10000	5	1	0	5	0
72	403	0	10000	5	1	0	5	0
73	404	0	10000	5	1	0	5	0
72	405	0	10000	5	1	0	5	0
72	406	0	10000	5	1	0	5	0
77	407	0	10000	5	1	0	5	0
78	408	0	10000	5	1	0	5	0
78	409	0	10000	5	1	0	5	0
75	410	0	10000	5	1	0	5	0
74	410	0	10000	5	1	0	5	0
74	411	0	10000	5	1	0	5	0
74	413	0	10000	5	1	0	5	0
71	414	0	10000	5	1	0	5	0
69	415	0	10000	5	1	0	5	0
67	416	0	10000	5	1	0	5	0
64	417	0	10000	5	1	0	5	0
62	418	0	10000	5	1	0	5	0
63	419	0	10000	5	1	0	5	0
62	420	0	10000	5	1	0	5	0
61	420	0	10000	5	1	0	5	0
58	421	0	10000	5	1	0	5	0
57	423	0	10000	5	1	0	5	0
57	424	0	10000	5	1	0	5	0
57	425	0	10000	5	1	0	5	0
56	426	0	10000	5	1	0	5	0
56	427	0	10000	5	1	0	5	0
54	428	0	10000	5	1	0	5	0
54	429	0	10000	5	1	0	5	0
54	430	0	10000	5	1	0	5	0
54	430	0	10000	5	1	0	5	0
54	431	0	10000	5	1	0	5	0
56	433	0	10000	5	1	0	5	0
58	434	0	10000	5	1	0	5	0
59	435	0	10000	5	1	0	5	0
59	436	0	10000	5	1	0	5	0
56	437	0	10000	5	1	0	5	0
53	438	0	10000	5	1	0	5	0
53	439	0	10000	5	1	0	5	0
52	440	0	10000	5	1	0	5	0
51	440	0	10000	5	1	0	5	0
50	441	0	10000	5	1	0	5	0
50	443	0	10000	5	1	0	5	0
49	444	0	10000	5	1	0	5	0
47	445	0	10000	5	1	0	5	0
45	446	0	10000	5	1	0	5	0
47	447	0	10000	5	1	0	5	0
45	448	0	10000	5	1	0	5	0
44	449	0	10000	5	1	0	5	0
44	450	0	10000	5	1	0	5	0
43	450	0	10000	5	1	0	5	0
44	451	0	10000	5	1	0	5	0
42	453	0	10000	5	1	0	5	0
44	454	0	10000	5	1	0	5	0
50	455	0	10000	5	1	0	5	0
55	456	0	10000	5	1	0	5	0
55	457	0	10000	5	1	0	5	0
53	458	0	10000	5	1	0	5	0
51	459	0	10000	5	1	0	5	0
50	460	0	10000	5	1	0	5	0
52	460	0	10000	5	1	0	5	0
52	461	0	10000	5	1	0	5	0
52	463	0	10000	5	1	0	5	0
53	464	0	10000	5	1	0	5	0
52	465	0	10000	5	1	0	5	0
49	466	0	10000	5	1	0	5	0
51	467	0	10000	5	1	0	5	0
50	468	0	10000	5	1	0	5	0
49	469	0	10000	5	1	0	5	0
47	470	0	10000	5	1	0	5	0
46	470	0	10000	5	1	0	5	0
45	471	0	10000	5	1	0	5	0
45	473	0	10000	5	1	0	5	0
46	474	0	10000	5	1	0	5	0
44	475	0	10000	5	1	0	5	0
44	476	0	10000	5	1	0	5	0
42	477	0	10000	5	1	0	5	0
41	478	0	10000	5	1	0	5	0
41	479	0	10000	5	1	0	5	0
43	480	0	10000	5	1	0	5	0
44	480	0	10000	5	1	0	5	0
44	481	0	10000	5	1	0	5	0
44	483	0	10000	5	1	0	5	0
44	484	0	10000	5	1	0	5	0
43	485	0	10000	5	1	0	5	0
43	486	0	10000	5	1	0	5	0
47	487	0	10000	5	1	0	5	0
50	488	0	10000	5	1	0	5	0
51	489	0	10000	5	1	0	5	0
50	490	0	10000	5	1	0	5	0
49	490	0	10000	5	1	0	5	0
49	491	0	10000	5	1	0	5	0
49	493	0	10000	5	1	0	5	0
49	494	0	10000	5	1	0	5	0
48	495	0	10000	5	1	0	5	0
47	496	0	10000	5	1	0	5	0
46	497	0	10000	5	1	0	5	0
46	498	0	10000	5	1	0	5	0
46	499	0	10000	5	1	0	5	0
46	500	0	10000	5	1	0	5	0
45	500	0	10000	5	1	0	5	0
44	501	0	10000	5	1	0	5	0
45	503	0	10000	5	1	0	5	1
45	504	0	10000	5	1	0	5	1
45	505	0	10000	5	1	0	5	1
45	506	0	10000	5	1	0	5	1
49	507	0	10000	5	1	0	5	1
48	508	0	10000	5	1	0	5	1
49	509	0	10000	5	1	0	5	1
47	510	0	10000	5	1	0	5	1
48	510	0	10000	5	1	0	5	1
51	511	0	10000	5	1	0	5	1
55	513	0	10000	5	1	0	5	1
57	514	0	10000	5	1	0	5	1
55	515	0	10000	5	1	0	5	1
55	516	0	10000	5	1	0	5	1
54	517	0	10000	5	1	0	5	1
55	518	0	10000	5	1	0	5	1
61	519	0	10000	5	1	0	5	1
66	520	0	10000	5	1	0	5	1
70	520	0	10000	5	1	0	5	1
72	521	0	10000	5	1	0	5	1
75	523	0	10000	5	1	0	5	1
73	524	0	10000	5	1	0	5	1
70	525	0	10000	5	1	0	5	1
68	526	0	10000	5	1	0	5	1
69	527	0	10000	5	1	0	5	1
72	528	0	10000	5	1	0	5	1
74	529	0	10000	5	1	0	5	1
75	530	0	10000	5	1	0	5	1
73	530	0	10000	5	1	0	5	1
71	531	0	10000	5	1	0	5	1
69	533	0	10000	5	1	0	5	1
68	534	0	10000	5	1	0	5	1
67	535	0	10000	5	1	0	5	1
65	536	0	10000	5	1	0	5	1
62	537	0	10000	5	1	0	5	1
59	538	0	10000	5	1	0	5	1
59	539	0	10000	5	1	0	5	1
59	540	0	10000	5	1	0	5	1
58	540	0	10000	5	1	0	5	1
56	541	0	10000	5	1	0	5	1
54	543	0	10000	5	1	0	5	1
53	544	0	10000	5	1	0	5	1
53	545	0	10000	5	1	0	5	1
50	546	0	10000	5	1	0	5	1
51	547	0	10000	5	1	0	5	1
53	548	0	10000	5	1	0	5	1
50	549	0	10000	5	1	0	5	1
48	550	0	10000	5	1	0	5	1
45	550	0	10000	5	1	0	5	1
44	551	0	10000	5	1	0	5	1
43	553	0	10000	5	1	0	5	0
43	554	0	10000	5	1	0	5	0
43	555	0	10000	5	1	0	5	0
42	556	0	10000	5	1	0	5	0
39	557	0	10000	5	1	0	5	0
39	558	0	10000	5	1	0	5	0
38	559	0	10000	5	1	0	5	0
39	560	0	10000	5	1	0	5	0
38	560	0	10000	5	1	0	5	0
37	561	0	10000	5	1	0	5	0
40	563	0	10000	5	1	0	5	0
44	564	0	10000	5	1	0	5	0
49	565	0	10000	5	1	0	5	0
52	566	0	10000	5	1	0	5	0
52	567	0	10000	5	1	0	5	0
53	568	0	10000	5	1	0	5	0
52	569	0	10000	5	1	0	5	0
51	570	0	10000	5	1	0	5	0
53	570	0	10000	5	1	0	5	0
56	571	0	10000	5	1	0	5	0
57	573	0	10000	5	1	0	5	0
56	574	0	10000	5	1	0	5	0
54	575	0	10000	5	1	0	5	0
54	576	0	10000	5	1	0	5	0
53	577	0	10000	5	1	0	5	0
54	578	0	10000	5	1	0	5	0
57	579	0	10000	5	1	0	5	0
75	580	0	10000	5	1	0	5	0
102	580	0	10000	5	1	0	5	0
116	581	0	10000	5	1	0	5	0
116	583	0	10000	5	1	0	5	0
128	584	0	10000	5	1	0	5	0
141	585	0	10000	5	1	0	5	0
140	586	0	10000	5	1	0	5	0
145	587	0	10000	5	1	0	5	0
146	588	0	10000	5	1	0	5	0
154	589	0	10000	5	1	0	5	0
152	590	0	10000	5	1	0	5	0
151	590	0	10000	5	1	0	5	0
152	591	0	10000	5	1	0	5	0
165	593	0	10000	5	1	0	5	0
176	594	0	10000	5	1	0	5	0
174	595	0	10000	5	1	0	5	0
172	596	0	10000	5	1	0	5	0
169	597	0	10000	5	1	0	5	0
167	598	0	10000	5	1	0	5	0
164	599	0	10000	5	1	0	5	0
160	600	0	10000	5	1	0	5	0
156	600	0	10000	5	1	0	5	0
160	601	0	10000	5	1	0	5	0
174	603	0	10000	5	1	0	5	0
174	604	0	10000	5	1	0	5	0
187	605	0	10000	5	1	0	5	0
193	606	0	10000	5	1	0	5	0
195	607	0	10000	5	1	0	5	0
193	608	0	10000	5	1	0	5	0
187	609	0	10000	5	1	0	5	0
183	610	0	10000	5	1	0	5	0
179	610	0	10000	5	1	0	5	0
183	611	0	10000	5	1	0	5	0
177	613	0	10000	5	1	0	5	0
173	614	0	10000	5	1	0	5	0
168	615	0	10000	5	1	0	5	0
171	616	0	10000	5	1	0	5	0
173	617	0	10000	5	1	0	5	0
171	618	0	10000	5	1	0	5	0
164	619	0	10000	5	1	0	5	0
158	620	0	10000	5	1	0	5	0
153	620	0	10000	5	1	0	5	0
150	621	0	10000	5	1	0	5	0
149	623	0	10000	5	1	0	5	0
145	624	0	10000	5	1	0	5	0
144	625	0	10000	5	1	0	5	0
144	626	0	10000	5	1	0	5	0
148	627	0	10000	5	1	0	5	0
148	628	0	10000	5	1	0	5	0
146	629	0	10000	5	1	0	5	0
146	630	0	10000	5	1	0	5	0
144	630	0	10000	5	1	0	5	0
144	631	0	10000	5	1	0	5	0
145	633	0	10000	5	1	0	5	0
144	634	0	10000	5	1	0	5	0
145	635	0	10000	5	1	0	5	0
144	636	0	10000	5	1	0	5	0
142	637	0	10000	5	1	0	5	0
140	638	0	10000	5	1	0	5	0
137	639	0	10000	5	1	0	5	0
134	640	0	10000	5	1	0	5	0
130	640	0	10000	5	1	0	5	0
128	641	0	10000	5	1	0	5	0
123	643	0	10000	5	1	0	5	0
119	644	0	10000	5	1	0	5	0
114	645	0	10000	5	1	0	5	0
112	646	0	10000	5	1	0	5	0
110	647	0	10000	5	1	0	5	0
106	648	0	10000	5	1	0	5	0
103	649	0	10000	5	1	0	5	0
99	650	0	10000	5	1	0	5	0
95	650	0	10000	5	1	0	5	0
91	651	0	10000	5	1	0	5	0
93	653	0	10000	5	1	0	5	0
95	654	0	10000	5	1	0	5	0
95	655	0	10000	5	1	0	5	0
98	656	0	10000	5	1	0	5	0
100	657	0	10000	5	1	0	5	0
102	658	0	10000	5	1	0	5	0
104	659	0	10000	5	1	0	5	0
107	660	0	10000	5	1	0	5	0
111	660	0	10000	5	1	0	5	0
112	661	0	10000	5	1	0	5	0
113	663	0	10000	5	1	0	5	0
113	664	0	10000	5	1	0	5	0
112	665	0	10000	5	1	0	5	0
110	666	0	10000	5	1	0	5	0
114	667	0	10000	5	1	0	5	0
116	668	0	10000	5	1	0	5	0
115	669	0	10000	5	1	0	5	0
116	670	0	10000	5	1	0	5	0
116	670	0	10000	5	1	0	5	0
114	671	0	10000	5	1	0	5	0
114	673	0	10000	5	1	0	5	0
113	674	0	10000	5	1	0	5	0
110	675	0	10000	5	1	0	5	0
107	676	0	10000	5	1	0	5	0
101	677	0	10000	5	1	0	5	0
97	678	0	10000	5	1	0	5	0
96	679	0	10000	5	1	0	5	0
98	680	0	10000	5	1	0	5	0
100	680	0	10000	5	1	0	5	0
103	681	0	10000	5	1	0	5	0
104	683	0	10000	5	1	0	5	0
106	684	0	10000	5	1	0	5	0
104	685	0	10000	5	1	0	5	0
102	686	0	10000	5	1	0	5	0
104	687	0	10000	5	1	0	5	0
101	688	0	10000	5	1	0	5	0
96	689	0	10000	5	1	0	5	0
93	690	0	10000	5	1	0	5	0
91	690	0	10000	5	1	0	5	0
90	691	0	10000	5	1	0	5	0
85	693	0	10000	5	1	0	5	0
85	694	0	10000	5	1	0	5	0
88	695	0	10000	5	1	0	5	0
92	696	0	10000	5	1	0	5	0
90	697	0	10000	5	1	0	5	0
87	698	0	10000	5	1	0	5	0
88	699	0	10000	5	1	0	5	0
89	700	0	10000	5	1	0	5	0
88	700	0	10000	5	1	0	5	0
87	701	0	10000	5	1	0	5	0
84	703	0	10000	5	1	0	5	0
80	704	0	10000	5	1	0	5	0
78	705	0	10000	5	1	0	5	0
75	706	0	10000	5	1	0	5	0
73	707	0	10000	5	1	0	5	0
72	708	0	10000	5	1	0	5	0
71	709	0	10000	5	1	0	5	0
70	710	0	10000	5	1	0	5	0
73	710	0	10000	5	1	0	5	0
74	711	0	10000	5	1	0	5	0
76	713	0	10000	5	1	0	5	0
77	714	0	10000	5	1	0	5	0
76	715	0	10000	5	1	0	5	0
74	716	0	10000	5	1	0	5	0
68	717	0	10000	5	1	0	5	0
67	718	0	10000	5	1	0	5	0
63	719	0	10000	5	1	0	5	0
61	720	0	10000	5	1	0	5	0
59	720	0	10000	5	1	0	5	0
57	721	0	10000	5	1	0	5	0
56	723	0	10000	5	1	0	5	0
54	724	0	10000	5	1	0	5	0
54	725	0	10000	5	1	0	5	0
53	726	0	10000	5	1	0	5	0
59	727	0	10000	5	1	0	5	0
61	728	0	10000	5	1	0	5	0
65	729	0	10000	5	1	0	5	0
67	730	0	10000	5	1	0	5	0
65	730	0	10000	5	1	0	5	0
63	731	0	10000	5	1	0	5	0
60	733	0	10000	5	1	0	5	0
62	734	0	10000	5	1	0	5	0
65	735	0	10000	5	1	0	5	0
68	736	0	10000	5	1	0	5	0
68	737	0	10000	5	1	0	5	0
69	738	0	10000	5	1	0	5	0
68	739	0	10000	5	1	0	5	0
67	740	0	10000	5	1	0	5	0
66	740	0	10000	5	1	0	5	0
63	741	0	10000	5	1	0	5	0
63	743	0	10000	5	1	0	5	0
61	744	0	10000	5	1	0	5	0
59	745	0	10000	5	1	0	5	0
56	746	0	10000	5	1	0	5	0
57	747	0	10000	5	1	0	5	0
55	748	0	10000	5	1	0	5	0
54	749	0	10000	5	1	0	5	0
51	750	0	10000	5	1	0	5	0
51	750	0	10000	5	1	0	5	0
50	751	0	10000	5	1	0	5	0
50	753	0	10000	5	1	0	5	0
50	754	0	10000	5	1	0	5	0
51	755	0	10000	5	1	0	5	0
53	756	0	10000	5	1	0	5	0
52	757	0	10000	5	1	0	5	0
50	758	0	10000	5	1	0	5	0
51	759	0	10000	5	1	0	5	0
54	760	0	10000	5	1	0	5	0
55	760	0	10000	5	1	0	5	0
53	761	0	10000	5	1	0	5	0
52	763	0	10000	5	1	0	5	0
49	764	0	10000	5	1	0	5	0
51	765	0	10000	5	1	0	5	0
52	766	0	10000	5	1	0	5	0
52	767	0	10000	5	1	0	5	0
50	768	0	10000	5	1	0	5	0
50	769	0	10000	5	1	0	5	0
52	770	0	10000	5	1	0	5	0
55	770	0	10000	5	1	0	5	0
