value	EMG	Stimulus	EMG_sensitivity	Total_Trial_Nr	practise	acq	probe_nr	Startle_Probe
23	1	7	10000	1	1	0	1	0
22	2	7	10000	1	1	0	1	0
22	3	7	10000	1	1	0	1	0
22	4	7	10000	1	1	0	1	0
22	5	7	10000	1	1	0	1	0
22	6	7	10000	1	1	0	1	0
21	7	7	10000	1	1	0	1	0
21	8	7	10000	1	1	0	1	0
21	9	7	10000	1	1	0	1	0
22	10	7	10000	1	1	0	1	0
25	11	7	10000	1	1	0	1	0
29	12	7	10000	1	1	0	1	0
32	13	7	10000	1	1	0	1	0
35	14	7	10000	1	1	0	1	0
38	15	7	10000	1	1	0	1	0
42	16	7	10000	1	1	0	1	0
45	17	7	10000	1	1	0	1	0
48	18	7	10000	1	1	0	1	0
51	19	7	10000	1	1	0	1	0
54	20	7	10000	1	1	0	1	0
55	20	7	10000	1	1	0	1	0
56	21	7	10000	1	1	0	1	0
58	23	7	10000	1	1	0	1	0
62	24	7	10000	1	1	0	1	0
64	25	7	10000	1	1	0	1	0
66	26	7	10000	1	1	0	1	0
68	27	7	10000	1	1	0	1	0
70	28	7	10000	1	1	0	1	0
71	29	7	10000	1	1	0	1	0
72	30	7	10000	1	1	0	1	0
76	30	7	10000	1	1	0	1	0
81	31	7	10000	1	1	0	1	0
85	33	7	10000	1	1	0	1	0
84	34	7	10000	1	1	0	1	0
85	35	7	10000	1	1	0	1	0
86	36	7	10000	1	1	0	1	0
87	37	7	10000	1	1	0	1	0
86	38	7	10000	1	1	0	1	0
85	39	7	10000	1	1	0	1	0
85	40	7	10000	1	1	0	1	0
81	40	7	10000	1	1	0	1	0
77	41	7	10000	1	1	0	1	0
74	43	7	10000	1	1	0	1	0
72	44	7	10000	1	1	0	1	0
68	45	7	10000	1	1	0	1	0
66	46	7	10000	1	1	0	1	0
65	47	7	10000	1	1	0	1	0
65	48	7	10000	1	1	0	1	0
64	49	7	10000	1	1	0	1	0
62	50	7	10000	1	1	0	1	0
60	50	7	10000	1	1	0	1	0
58	51	7	10000	1	1	0	1	0
56	53	7	10000	1	1	0	1	0
56	54	7	10000	1	1	0	1	0
56	55	7	10000	1	1	0	1	0
59	56	7	10000	1	1	0	1	0
61	57	7	10000	1	1	0	1	0
62	58	7	10000	1	1	0	1	0
64	59	7	10000	1	1	0	1	0
67	60	7	10000	1	1	0	1	0
71	60	7	10000	1	1	0	1	0
76	61	7	10000	1	1	0	1	0
82	63	7	10000	1	1	0	1	0
90	64	7	10000	1	1	0	1	0
95	65	7	10000	1	1	0	1	0
100	66	7	10000	1	1	0	1	0
103	67	7	10000	1	1	0	1	0
106	68	7	10000	1	1	0	1	0
108	69	7	10000	1	1	0	1	0
109	70	7	10000	1	1	0	1	0
112	70	7	10000	1	1	0	1	0
113	71	7	10000	1	1	0	1	0
114	73	7	10000	1	1	0	1	0
114	74	7	10000	1	1	0	1	0
115	75	7	10000	1	1	0	1	0
114	76	7	10000	1	1	0	1	0
114	77	7	10000	1	1	0	1	0
114	78	7	10000	1	1	0	1	0
113	79	7	10000	1	1	0	1	0
113	80	7	10000	1	1	0	1	0
110	80	7	10000	1	1	0	1	0
110	81	7	10000	1	1	0	1	0
109	83	7	10000	1	1	0	1	0
110	84	7	10000	1	1	0	1	0
108	85	7	10000	1	1	0	1	0
105	86	7	10000	1	1	0	1	0
105	87	7	10000	1	1	0	1	0
105	88	7	10000	1	1	0	1	0
105	89	7	10000	1	1	0	1	0
105	90	7	10000	1	1	0	1	0
106	90	7	10000	1	1	0	1	0
105	91	7	10000	1	1	0	1	0
104	93	7	10000	1	1	0	1	0
101	94	7	10000	1	1	0	1	0
100	95	7	10000	1	1	0	1	0
100	96	7	10000	1	1	0	1	0
100	97	7	10000	1	1	0	1	0
98	98	7	10000	1	1	0	1	0
96	99	7	10000	1	1	0	1	0
94	100	7	10000	1	1	0	1	0
91	100	7	10000	1	1	0	1	0
87	101	7	10000	1	1	0	1	0
84	103	7	10000	1	1	0	1	0
82	104	7	10000	1	1	0	1	0
78	105	7	10000	1	1	0	1	0
76	106	7	10000	1	1	0	1	0
74	107	7	10000	1	1	0	1	0
73	108	7	10000	1	1	0	1	0
72	109	7	10000	1	1	0	1	0
71	110	7	10000	1	1	0	1	0
70	110	7	10000	1	1	0	1	0
69	111	7	10000	1	1	0	1	0
67	113	7	10000	1	1	0	1	0
62	114	7	10000	1	1	0	1	0
60	115	7	10000	1	1	0	1	0
58	116	7	10000	1	1	0	1	0
58	117	7	10000	1	1	0	1	0
55	118	7	10000	1	1	0	1	0
53	119	7	10000	1	1	0	1	0
52	120	7	10000	1	1	0	1	0
49	120	7	10000	1	1	0	1	0
47	121	7	10000	1	1	0	1	0
46	123	7	10000	1	1	0	1	0
47	124	7	10000	1	1	0	1	0
45	125	7	10000	1	1	0	1	0
44	126	7	10000	1	1	0	1	0
43	127	7	10000	1	1	0	1	0
42	128	7	10000	1	1	0	1	0
41	129	7	10000	1	1	0	1	0
40	130	7	10000	1	1	0	1	0
40	130	7	10000	1	1	0	1	0
39	131	7	10000	1	1	0	1	0
38	133	7	10000	1	1	0	1	0
34	134	7	10000	1	1	0	1	0
34	135	7	10000	1	1	0	1	0
34	136	7	10000	1	1	0	1	0
34	137	7	10000	1	1	0	1	0
31	138	7	10000	1	1	0	1	0
30	139	7	10000	1	1	0	1	0
29	140	7	10000	1	1	0	1	0
28	140	7	10000	1	1	0	1	0
27	141	7	10000	1	1	0	1	0
27	143	7	10000	1	1	0	1	0
28	144	7	10000	1	1	0	1	0
28	145	7	10000	1	1	0	1	0
28	146	7	10000	1	1	0	1	0
27	147	7	10000	1	1	0	1	0
26	148	7	10000	1	1	0	1	0
26	149	7	10000	1	1	0	1	0
26	150	7	10000	1	1	0	1	0
26	150	7	10000	1	1	0	1	0
27	151	7	10000	1	1	0	1	0
28	153	7	10000	1	1	0	1	0
28	154	7	10000	1	1	0	1	0
29	155	7	10000	1	1	0	1	0
29	156	7	10000	1	1	0	1	0
30	157	7	10000	1	1	0	1	0
29	158	7	10000	1	1	0	1	0
30	159	7	10000	1	1	0	1	0
31	160	7	10000	1	1	0	1	0
31	160	7	10000	1	1	0	1	0
31	161	7	10000	1	1	0	1	0
33	163	7	10000	1	1	0	1	0
36	164	7	10000	1	1	0	1	0
35	165	7	10000	1	1	0	1	0
35	166	7	10000	1	1	0	1	0
36	167	7	10000	1	1	0	1	0
37	168	7	10000	1	1	0	1	0
38	169	7	10000	1	1	0	1	0
36	170	7	10000	1	1	0	1	0
36	170	7	10000	1	1	0	1	0
36	171	7	10000	1	1	0	1	0
35	173	7	10000	1	1	0	1	0
32	174	7	10000	1	1	0	1	0
31	175	7	10000	1	1	0	1	0
30	176	7	10000	1	1	0	1	0
31	177	7	10000	1	1	0	1	0
30	178	7	10000	1	1	0	1	0
31	179	7	10000	1	1	0	1	0
32	180	7	10000	1	1	0	1	0
30	180	7	10000	1	1	0	1	0
28	181	7	10000	1	1	0	1	0
27	183	7	10000	1	1	0	1	0
29	184	7	10000	1	1	0	1	0
29	185	7	10000	1	1	0	1	0
30	186	7	10000	1	1	0	1	0
29	187	7	10000	1	1	0	1	0
29	188	7	10000	1	1	0	1	0
28	189	7	10000	1	1	0	1	0
26	190	7	10000	1	1	0	1	0
26	190	7	10000	1	1	0	1	0
26	191	7	10000	1	1	0	1	0
27	193	7	10000	1	1	0	1	0
29	194	7	10000	1	1	0	1	0
31	195	7	10000	1	1	0	1	0
31	196	7	10000	1	1	0	1	0
31	197	7	10000	1	1	0	1	0
29	198	7	10000	1	1	0	1	0
28	199	7	10000	1	1	0	1	0
28	200	7	10000	1	1	0	1	0
26	200	7	10000	1	1	0	1	0
25	201	7	10000	1	1	0	1	0
25	203	7	10000	1	1	0	1	0
25	204	7	10000	1	1	0	1	0
24	205	7	10000	1	1	0	1	0
23	206	7	10000	1	1	0	1	0
22	207	7	10000	1	1	0	1	0
21	208	7	10000	1	1	0	1	0
21	209	7	10000	1	1	0	1	0
21	210	7	10000	1	1	0	1	0
22	210	7	10000	1	1	0	1	0
23	211	7	10000	1	1	0	1	0
24	213	7	10000	1	1	0	1	0
21	214	7	10000	1	1	0	1	0
20	215	7	10000	1	1	0	1	0
20	216	7	10000	1	1	0	1	0
20	217	7	10000	1	1	0	1	0
19	218	7	10000	1	1	0	1	0
19	219	7	10000	1	1	0	1	0
20	220	7	10000	1	1	0	1	0
19	220	7	10000	1	1	0	1	0
18	221	7	10000	1	1	0	1	0
18	223	7	10000	1	1	0	1	0
19	224	7	10000	1	1	0	1	0
18	225	7	10000	1	1	0	1	0
17	226	7	10000	1	1	0	1	0
17	227	7	10000	1	1	0	1	0
16	228	7	10000	1	1	0	1	0
17	229	7	10000	1	1	0	1	0
18	230	7	10000	1	1	0	1	0
19	230	7	10000	1	1	0	1	0
20	231	7	10000	1	1	0	1	0
19	233	7	10000	1	1	0	1	0
18	234	7	10000	1	1	0	1	0
21	235	7	10000	1	1	0	1	0
24	236	7	10000	1	1	0	1	0
25	237	7	10000	1	1	0	1	0
24	238	7	10000	1	1	0	1	0
23	239	7	10000	1	1	0	1	0
25	240	7	10000	1	1	0	1	0
23	240	7	10000	1	1	0	1	0
21	241	7	10000	1	1	0	1	0
21	243	7	10000	1	1	0	1	0
23	244	7	10000	1	1	0	1	0
22	245	7	10000	1	1	0	1	0
22	246	7	10000	1	1	0	1	0
22	247	7	10000	1	1	0	1	0
21	248	7	10000	1	1	0	1	0
21	249	7	10000	1	1	0	1	0
20	250	7	10000	1	1	0	1	0
21	250	7	10000	1	1	0	1	0
21	251	7	10000	1	1	0	1	0
21	253	7	10000	1	1	0	1	0
19	254	7	10000	1	1	0	1	0
19	255	7	10000	1	1	0	1	0
19	256	7	10000	1	1	0	1	0
20	257	7	10000	1	1	0	1	0
19	258	7	10000	1	1	0	1	0
19	259	7	10000	1	1	0	1	0
20	260	7	10000	1	1	0	1	0
19	260	7	10000	1	1	0	1	0
19	261	7	10000	1	1	0	1	0
18	263	7	10000	1	1	0	1	0
19	264	7	10000	1	1	0	1	0
19	265	7	10000	1	1	0	1	0
19	266	7	10000	1	1	0	1	0
17	267	7	10000	1	1	0	1	0
17	268	7	10000	1	1	0	1	0
17	269	7	10000	1	1	0	1	0
17	270	7	10000	1	1	0	1	0
16	270	7	10000	1	1	0	1	0
16	271	7	10000	1	1	0	1	0
16	273	7	10000	1	1	0	1	0
13	274	7	10000	1	1	0	1	0
13	275	7	10000	1	1	0	1	0
13	276	7	10000	1	1	0	1	0
14	277	7	10000	1	1	0	1	0
14	278	7	10000	1	1	0	1	0
14	279	7	10000	1	1	0	1	0
16	280	7	10000	1	1	0	1	0
14	280	7	10000	1	1	0	1	0
13	281	7	10000	1	1	0	1	0
14	283	7	10000	1	1	0	1	0
15	284	7	10000	1	1	0	1	0
14	285	7	10000	1	1	0	1	0
14	286	7	10000	1	1	0	1	0
14	287	7	10000	1	1	0	1	0
14	288	7	10000	1	1	0	1	0
15	289	7	10000	1	1	0	1	0
15	290	7	10000	1	1	0	1	0
18	290	7	10000	1	1	0	1	0
20	291	7	10000	1	1	0	1	0
21	293	7	10000	1	1	0	1	0
19	294	7	10000	1	1	0	1	0
20	295	7	10000	1	1	0	1	0
20	296	7	10000	1	1	0	1	0
21	297	7	10000	1	1	0	1	0
21	298	7	10000	1	1	0	1	0
21	299	7	10000	1	1	0	1	0
23	300	7	10000	1	1	0	1	0
21	300	7	10000	1	1	0	1	0
22	301	7	10000	1	1	0	1	0
23	303	7	10000	1	1	0	1	0
25	304	7	10000	1	1	0	1	0
25	305	7	10000	1	1	0	1	0
26	306	7	10000	1	1	0	1	0
25	307	7	10000	1	1	0	1	0
24	308	7	10000	1	1	0	1	0
24	309	7	10000	1	1	0	1	0
24	310	7	10000	1	1	0	1	0
25	310	7	10000	1	1	0	1	0
25	311	7	10000	1	1	0	1	0
24	313	7	10000	1	1	0	1	0
21	314	7	10000	1	1	0	1	0
23	315	7	10000	1	1	0	1	0
23	316	7	10000	1	1	0	1	0
22	317	7	10000	1	1	0	1	0
21	318	7	10000	1	1	0	1	0
21	319	7	10000	1	1	0	1	0
22	320	7	10000	1	1	0	1	0
21	320	7	10000	1	1	0	1	0
22	321	7	10000	1	1	0	1	0
23	323	7	10000	1	1	0	1	0
25	324	7	10000	1	1	0	1	0
26	325	7	10000	1	1	0	1	0
27	326	7	10000	1	1	0	1	0
27	327	7	10000	1	1	0	1	0
27	328	7	10000	1	1	0	1	0
26	329	7	10000	1	1	0	1	0
26	330	7	10000	1	1	0	1	0
25	330	7	10000	1	1	0	1	0
25	331	7	10000	1	1	0	1	0
24	333	7	10000	1	1	0	1	0
21	334	7	10000	1	1	0	1	0
23	335	7	10000	1	1	0	1	0
22	336	7	10000	1	1	0	1	0
22	337	7	10000	1	1	0	1	0
22	338	7	10000	1	1	0	1	0
22	339	7	10000	1	1	0	1	0
23	340	7	10000	1	1	0	1	0
21	340	7	10000	1	1	0	1	0
20	341	7	10000	1	1	0	1	0
21	343	7	10000	1	1	0	1	0
21	344	7	10000	1	1	0	1	0
20	345	7	10000	1	1	0	1	0
20	346	7	10000	1	1	0	1	0
20	347	7	10000	1	1	0	1	0
21	348	7	10000	1	1	0	1	0
21	349	7	10000	1	1	0	1	0
22	350	7	10000	1	1	0	1	0
25	350	7	10000	1	1	0	1	0
26	351	7	10000	1	1	0	1	0
26	353	7	10000	1	1	0	1	0
23	354	7	10000	1	1	0	1	0
24	355	7	10000	1	1	0	1	0
24	356	7	10000	1	1	0	1	0
23	357	7	10000	1	1	0	1	0
22	358	7	10000	1	1	0	1	0
22	359	7	10000	1	1	0	1	0
22	360	7	10000	1	1	0	1	0
21	360	7	10000	1	1	0	1	0
20	361	7	10000	1	1	0	1	0
20	363	7	10000	1	1	0	1	0
21	364	7	10000	1	1	0	1	0
20	365	7	10000	1	1	0	1	0
20	366	7	10000	1	1	0	1	0
20	367	7	10000	1	1	0	1	0
20	368	7	10000	1	1	0	1	0
20	369	7	10000	1	1	0	1	0
19	370	7	10000	1	1	0	1	0
19	370	7	10000	1	1	0	1	0
20	371	7	10000	1	1	0	1	0
20	373	7	10000	1	1	0	1	0
20	374	7	10000	1	1	0	1	0
22	375	7	10000	1	1	0	1	0
23	376	7	10000	1	1	0	1	0
22	377	7	10000	1	1	0	1	0
22	378	7	10000	1	1	0	1	0
21	379	7	10000	1	1	0	1	0
22	380	7	10000	1	1	0	1	0
21	380	7	10000	1	1	0	1	0
21	381	7	10000	1	1	0	1	0
22	383	7	10000	1	1	0	1	0
24	384	7	10000	1	1	0	1	0
23	385	7	10000	1	1	0	1	0
22	386	7	10000	1	1	0	1	0
22	387	7	10000	1	1	0	1	0
23	388	7	10000	1	1	0	1	0
22	389	7	10000	1	1	0	1	0
22	390	7	10000	1	1	0	1	0
25	390	7	10000	1	1	0	1	0
27	391	7	10000	1	1	0	1	0
27	393	7	10000	1	1	0	1	0
25	394	7	10000	1	1	0	1	0
25	395	7	10000	1	1	0	1	0
26	396	7	10000	1	1	0	1	0
25	397	7	10000	1	1	0	1	0
25	398	7	10000	1	1	0	1	0
24	399	7	10000	1	1	0	1	0
24	400	7	10000	1	1	0	1	0
23	400	7	10000	1	1	0	1	0
23	401	7	10000	1	1	0	1	0
23	403	7	10000	1	1	0	1	0
23	404	7	10000	1	1	0	1	0
22	405	7	10000	1	1	0	1	0
22	406	7	10000	1	1	0	1	0
20	407	7	10000	1	1	0	1	0
20	408	7	10000	1	1	0	1	0
19	409	7	10000	1	1	0	1	0
19	410	7	10000	1	1	0	1	0
19	410	7	10000	1	1	0	1	0
19	411	7	10000	1	1	0	1	0
19	413	7	10000	1	1	0	1	0
18	414	7	10000	1	1	0	1	0
19	415	7	10000	1	1	0	1	0
20	416	7	10000	1	1	0	1	0
20	417	7	10000	1	1	0	1	0
21	418	7	10000	1	1	0	1	0
22	419	7	10000	1	1	0	1	0
22	420	7	10000	1	1	0	1	0
21	420	7	10000	1	1	0	1	0
20	421	7	10000	1	1	0	1	0
20	423	7	10000	1	1	0	1	0
21	424	7	10000	1	1	0	1	0
21	425	7	10000	1	1	0	1	0
22	426	7	10000	1	1	0	1	0
22	427	7	10000	1	1	0	1	0
22	428	7	10000	1	1	0	1	0
23	429	7	10000	1	1	0	1	0
23	430	7	10000	1	1	0	1	0
25	430	7	10000	1	1	0	1	0
25	431	7	10000	1	1	0	1	0
24	433	7	10000	1	1	0	1	0
22	434	7	10000	1	1	0	1	0
22	435	7	10000	1	1	0	1	0
21	436	7	10000	1	1	0	1	0
22	437	7	10000	1	1	0	1	0
24	438	7	10000	1	1	0	1	0
26	439	7	10000	1	1	0	1	0
29	440	7	10000	1	1	0	1	0
27	440	7	10000	1	1	0	1	0
26	441	7	10000	1	1	0	1	0
27	443	7	10000	1	1	0	1	0
29	444	7	10000	1	1	0	1	0
28	445	7	10000	1	1	0	1	0
29	446	7	10000	1	1	0	1	0
28	447	7	10000	1	1	0	1	0
29	448	7	10000	1	1	0	1	0
31	449	7	10000	1	1	0	1	0
31	450	7	10000	1	1	0	1	0
32	450	7	10000	1	1	0	1	0
34	451	7	10000	1	1	0	1	0
33	453	7	10000	1	1	0	1	0
30	454	7	10000	1	1	0	1	0
31	455	7	10000	1	1	0	1	0
32	456	7	10000	1	1	0	1	0
32	457	7	10000	1	1	0	1	0
32	458	7	10000	1	1	0	1	0
31	459	7	10000	1	1	0	1	0
31	460	7	10000	1	1	0	1	0
29	460	7	10000	1	1	0	1	0
27	461	7	10000	1	1	0	1	0
27	463	7	10000	1	1	0	1	0
28	464	7	10000	1	1	0	1	0
27	465	7	10000	1	1	0	1	0
27	466	7	10000	1	1	0	1	0
25	467	7	10000	1	1	0	1	0
24	468	7	10000	1	1	0	1	0
24	469	7	10000	1	1	0	1	0
23	470	7	10000	1	1	0	1	0
23	470	7	10000	1	1	0	1	0
23	471	7	10000	1	1	0	1	0
23	473	7	10000	1	1	0	1	0
20	474	7	10000	1	1	0	1	0
21	475	7	10000	1	1	0	1	0
20	476	7	10000	1	1	0	1	0
21	477	7	10000	1	1	0	1	0
20	478	7	10000	1	1	0	1	0
21	479	7	10000	1	1	0	1	0
22	480	7	10000	1	1	0	1	0
23	480	7	10000	1	1	0	1	0
22	481	7	10000	1	1	0	1	0
22	483	7	10000	1	1	0	1	0
25	484	7	10000	1	1	0	1	0
23	485	7	10000	1	1	0	1	0
25	486	7	10000	1	1	0	1	0
27	487	7	10000	1	1	0	1	0
30	488	7	10000	1	1	0	1	0
34	489	7	10000	1	1	0	1	0
36	490	7	10000	1	1	0	1	0
38	490	7	10000	1	1	0	1	0
40	491	7	10000	1	1	0	1	0
42	493	7	10000	1	1	0	1	0
42	494	7	10000	1	1	0	1	0
48	495	7	10000	1	1	0	1	0
55	496	7	10000	1	1	0	1	0
63	497	7	10000	1	1	0	1	0
69	498	7	10000	1	1	0	1	0
74	499	7	10000	1	1	0	1	0
79	500	7	10000	1	1	0	1	0
81	500	7	10000	1	1	0	1	0
84	501	7	10000	1	1	0	1	0
86	540	7	10000	1	1	0	1	1
92	541	7	10000	1	1	0	1	1
96	542	7	10000	1	1	0	1	1
101	543	7	10000	1	1	0	1	1
104	544	7	10000	1	1	0	1	1
108	545	7	10000	1	1	0	1	1
112	546	7	10000	1	1	0	1	1
114	547	7	10000	1	1	0	1	1
116	548	7	10000	1	1	0	1	1
117	549	7	10000	1	1	0	1	1
116	550	7	10000	1	1	0	1	1
113	551	7	10000	1	1	0	1	1
111	552	7	10000	1	1	0	1	1
109	553	7	10000	1	1	0	1	1
108	554	7	10000	1	1	0	1	1
106	555	7	10000	1	1	0	1	1
103	556	7	10000	1	1	0	1	1
99	557	7	10000	1	1	0	1	1
94	558	7	10000	1	1	0	1	1
92	559	7	10000	1	1	0	1	1
91	560	7	10000	1	1	0	1	1
93	561	7	10000	1	1	0	1	1
93	562	7	10000	1	1	0	1	1
95	563	7	10000	1	1	0	1	1
95	564	7	10000	1	1	0	1	1
95	565	7	10000	1	1	0	1	1
99	566	7	10000	1	1	0	1	1
104	567	7	10000	1	1	0	1	1
110	568	7	10000	1	1	0	1	1
115	569	7	10000	1	1	0	1	1
119	570	7	10000	1	1	0	1	1
119	571	7	10000	1	1	0	1	1
120	572	7	10000	1	1	0	1	1
122	573	7	10000	1	1	0	1	1
123	574	7	10000	1	1	0	1	1
124	575	7	10000	1	1	0	1	1
126	576	7	10000	1	1	0	1	1
128	577	7	10000	1	1	0	1	1
128	578	7	10000	1	1	0	1	1
128	579	7	10000	1	1	0	1	1
129	547	7	10000	1	1	0	1	1
131	548	7	10000	1	1	0	1	1
131	549	7	10000	1	1	0	1	1
132	550	7	10000	1	1	0	1	1
130	551	7	10000	1	1	0	1	1
129	552	7	10000	1	1	0	1	1
130	549	7	10000	1	1	0	1	1
128	550	7	10000	1	1	0	1	1
129	551	7	10000	1	1	0	1	0
130	552	7	10000	1	1	0	1	0
129	553	7	10000	1	1	0	1	0
127	554	7	10000	1	1	0	1	0
126	555	7	10000	1	1	0	1	0
125	556	7	10000	1	1	0	1	0
123	557	7	10000	1	1	0	1	0
120	558	7	10000	1	1	0	1	0
118	559	7	10000	1	1	0	1	0
116	560	7	10000	1	1	0	1	0
112	561	7	10000	1	1	0	1	0
109	562	7	10000	1	1	0	1	0
107	563	7	10000	1	1	0	1	0
107	564	7	10000	1	1	0	1	0
105	565	7	10000	1	1	0	1	0
103	566	7	10000	1	1	0	1	0
100	567	7	10000	1	1	0	1	0
97	568	7	10000	1	1	0	1	0
96	569	7	10000	1	1	0	1	0
93	570	7	10000	1	1	0	1	0
93	570	7	10000	1	1	0	1	0
93	571	7	10000	1	1	0	1	0
92	573	7	10000	1	1	0	1	0
88	574	7	10000	1	1	0	1	0
87	575	7	10000	1	1	0	1	0
85	576	7	10000	1	1	0	1	0
82	577	7	10000	1	1	0	1	0
80	578	7	10000	1	1	0	1	0
76	579	7	10000	1	1	0	1	0
73	580	7	10000	1	1	0	1	0
70	580	7	10000	1	1	0	1	0
67	581	7	10000	1	1	0	1	0
64	583	7	10000	1	1	0	1	0
64	584	7	10000	1	1	0	1	0
62	585	7	10000	1	1	0	1	0
60	586	7	10000	1	1	0	1	0
58	587	7	10000	1	1	0	1	0
57	588	7	10000	1	1	0	1	0
56	589	7	10000	1	1	0	1	0
52	590	7	10000	1	1	0	1	0
51	590	7	10000	1	1	0	1	0
50	591	7	10000	1	1	0	1	0
48	593	7	10000	1	1	0	1	0
44	594	7	10000	1	1	0	1	0
42	595	7	10000	1	1	0	1	0
41	596	7	10000	1	1	0	1	0
40	597	7	10000	1	1	0	1	0
39	598	7	10000	1	1	0	1	0
36	599	7	10000	1	1	0	1	0
36	600	7	10000	1	1	0	1	0
35	600	7	10000	1	1	0	1	0
33	601	7	10000	1	1	0	1	0
33	603	7	10000	1	1	0	1	0
34	604	7	10000	1	1	0	1	0
33	605	7	10000	1	1	0	1	0
32	606	7	10000	1	1	0	1	0
31	607	7	10000	1	1	0	1	0
30	608	7	10000	1	1	0	1	0
30	609	7	10000	1	1	0	1	0
29	610	7	10000	1	1	0	1	0
31	610	7	10000	1	1	0	1	0
32	611	7	10000	1	1	0	1	0
29	613	7	10000	1	1	0	1	0
26	614	7	10000	1	1	0	1	0
26	615	7	10000	1	1	0	1	0
25	616	7	10000	1	1	0	1	0
24	617	7	10000	1	1	0	1	0
25	618	7	10000	1	1	0	1	0
24	619	7	10000	1	1	0	1	0
23	620	7	10000	1	1	0	1	0
22	620	7	10000	1	1	0	1	0
21	621	7	10000	1	1	0	1	0
21	623	7	10000	1	1	0	1	0
23	624	7	10000	1	1	0	1	0
23	625	7	10000	1	1	0	1	0
22	626	7	10000	1	1	0	1	0
21	627	7	10000	1	1	0	1	0
21	628	7	10000	1	1	0	1	0
21	629	7	10000	1	1	0	1	0
20	630	7	10000	1	1	0	1	0
20	630	7	10000	1	1	0	1	0
20	631	7	10000	1	1	0	1	0
19	633	7	10000	1	1	0	1	0
16	634	7	10000	1	1	0	1	0
17	635	7	10000	1	1	0	1	0
17	636	7	10000	1	1	0	1	0
18	637	7	10000	1	1	0	1	0
17	638	7	10000	1	1	0	1	0
17	639	7	10000	1	1	0	1	0
17	640	7	10000	1	1	0	1	0
15	640	7	10000	1	1	0	1	0
15	641	7	10000	1	1	0	1	0
15	643	7	10000	1	1	0	1	0
16	644	7	10000	1	1	0	1	0
15	645	7	10000	1	1	0	1	0
15	646	7	10000	1	1	0	1	0
16	647	7	10000	1	1	0	1	0
15	648	7	10000	1	1	0	1	0
18	649	7	10000	1	1	0	1	0
27	650	7	10000	1	1	0	1	0
41	650	7	10000	1	1	0	1	0
51	651	7	10000	1	1	0	1	0
59	653	7	10000	1	1	0	1	0
60	654	7	10000	1	1	0	1	0
59	655	7	10000	1	1	0	1	0
62	656	7	10000	1	1	0	1	0
72	657	7	10000	1	1	0	1	0
83	658	7	10000	1	1	0	1	0
92	659	7	10000	1	1	0	1	0
91	660	7	10000	1	1	0	1	0
99	660	7	10000	1	1	0	1	0
125	661	7	10000	1	1	0	1	0
172	663	7	10000	1	1	0	1	0
186	664	7	10000	1	1	0	1	0
193	665	7	10000	1	1	0	1	0
194	666	7	10000	1	1	0	1	0
215	667	7	10000	1	1	0	1	0
269	668	7	10000	1	1	0	1	0
291	669	7	10000	1	1	0	1	0
305	670	7	10000	1	1	0	1	0
352	670	7	10000	1	1	0	1	0
357	671	7	10000	1	1	0	1	0
409	673	7	10000	1	1	0	1	0
476	674	7	10000	1	1	0	1	0
512	675	7	10000	1	1	0	1	0
510	676	7	10000	1	1	0	1	0
565	677	7	10000	1	1	0	1	0
624	678	7	10000	1	1	0	1	0
650	679	7	10000	1	1	0	1	0
730	680	7	10000	1	1	0	1	0
736	680	7	10000	1	1	0	1	0
708	681	7	10000	1	1	0	1	0
699	683	7	10000	1	1	0	1	0
729	684	7	10000	1	1	0	1	0
716	685	7	10000	1	1	0	1	0
714	686	7	10000	1	1	0	1	0
694	687	7	10000	1	1	0	1	0
675	688	7	10000	1	1	0	1	0
715	689	7	10000	1	1	0	1	0
778	690	7	10000	1	1	0	1	0
836	690	7	10000	1	1	0	1	0
881	691	7	10000	1	1	0	1	0
859	693	7	10000	1	1	0	1	0
823	694	7	10000	1	1	0	1	0
800	695	7	10000	1	1	0	1	0
787	696	7	10000	1	1	0	1	0
770	697	7	10000	1	1	0	1	0
750	698	7	10000	1	1	0	1	0
721	699	7	10000	1	1	0	1	0
687	700	7	10000	1	1	0	1	0
656	700	7	10000	1	1	0	1	0
628	701	7	10000	1	1	0	1	0
605	703	7	10000	1	1	0	1	0
586	704	7	10000	1	1	0	1	0
569	705	7	10000	1	1	0	1	0
556	706	7	10000	1	1	0	1	0
546	707	7	10000	1	1	0	1	0
538	708	7	10000	1	1	0	1	0
531	709	7	10000	1	1	0	1	0
524	710	7	10000	1	1	0	1	0
520	710	7	10000	1	1	0	1	0
514	711	7	10000	1	1	0	1	0
507	713	7	10000	1	1	0	1	0
498	714	7	10000	1	1	0	1	0
492	715	7	10000	1	1	0	1	0
485	716	7	10000	1	1	0	1	0
477	717	7	10000	1	1	0	1	0
462	718	7	10000	1	1	0	1	0
443	719	7	10000	1	1	0	1	0
432	720	7	10000	1	1	0	1	0
421	720	7	10000	1	1	0	1	0
404	721	7	10000	1	1	0	1	0
389	723	7	10000	1	1	0	1	0
379	724	7	10000	1	1	0	1	0
364	725	7	10000	1	1	0	1	0
349	726	7	10000	1	1	0	1	0
335	727	7	10000	1	1	0	1	0
323	728	7	10000	1	1	0	1	0
310	729	7	10000	1	1	0	1	0
297	730	7	10000	1	1	0	1	0
286	730	7	10000	1	1	0	1	0
276	731	7	10000	1	1	0	1	0
263	733	7	10000	1	1	0	1	0
250	734	7	10000	1	1	0	1	0
240	735	7	10000	1	1	0	1	0
229	736	7	10000	1	1	0	1	0
219	737	7	10000	1	1	0	1	0
211	738	7	10000	1	1	0	1	0
205	739	7	10000	1	1	0	1	0
200	740	7	10000	1	1	0	1	0
195	740	7	10000	1	1	0	1	0
190	741	7	10000	1	1	0	1	0
184	743	7	10000	1	1	0	1	0
179	744	7	10000	1	1	0	1	0
177	745	7	10000	1	1	0	1	0
171	746	7	10000	1	1	0	1	0
166	747	7	10000	1	1	0	1	0
164	748	7	10000	1	1	0	1	0
157	749	7	10000	1	1	0	1	0
156	750	7	10000	1	1	0	1	0
156	750	7	10000	1	1	0	1	0
157	751	7	10000	1	1	0	1	0
156	753	7	10000	1	1	0	1	0
149	754	7	10000	1	1	0	1	0
144	755	7	10000	1	1	0	1	0
140	756	7	10000	1	1	0	1	0
137	757	7	10000	1	1	0	1	0
134	758	7	10000	1	1	0	1	0
130	759	7	10000	1	1	0	1	0
128	760	7	10000	1	1	0	1	0
124	760	7	10000	1	1	0	1	0
121	761	7	10000	1	1	0	1	0
119	763	7	10000	1	1	0	1	0
119	764	7	10000	1	1	0	1	0
116	765	7	10000	1	1	0	1	0
115	766	7	10000	1	1	0	1	0
116	767	7	10000	1	1	0	1	0
117	768	7	10000	1	1	0	1	0
119	769	7	10000	1	1	0	1	0
119	770	7	10000	1	1	0	1	0
121	770	7	10000	1	1	0	1	0
124	771	7	10000	1	1	0	1	0
126	773	7	10000	1	1	0	1	0
125	774	7	10000	1	1	0	1	0
127	775	7	10000	1	1	0	1	0
126	776	7	10000	1	1	0	1	0
127	777	7	10000	1	1	0	1	0
127	778	7	10000	1	1	0	1	0
127	779	7	10000	1	1	0	1	0
127	780	7	10000	1	1	0	1	0
125	780	7	10000	1	1	0	1	0
124	781	7	10000	1	1	0	1	0
123	783	7	10000	1	1	0	1	0
124	784	7	10000	1	1	0	1	0
123	785	7	10000	1	1	0	1	0
124	786	7	10000	1	1	0	1	0
124	787	7	10000	1	1	0	1	0
127	788	7	10000	1	1	0	1	0
129	789	7	10000	1	1	0	1	0
131	790	7	10000	1	1	0	1	0
134	790	7	10000	1	1	0	1	0
136	791	7	10000	1	1	0	1	0
137	793	7	10000	1	1	0	1	0
137	794	7	10000	1	1	0	1	0
139	795	7	10000	1	1	0	1	0
137	796	7	10000	1	1	0	1	0
134	797	7	10000	1	1	0	1	0
132	798	7	10000	1	1	0	1	0
129	799	7	10000	1	1	0	1	0
128	800	7	10000	1	1	0	1	0
126	800	7	10000	1	1	0	1	0
121	801	7	10000	1	1	0	1	0
116	803	7	10000	1	1	0	1	0
113	804	7	10000	1	1	0	1	0
109	805	7	10000	1	1	0	1	0
106	806	7	10000	1	1	0	1	0
103	807	7	10000	1	1	0	1	0
102	808	7	10000	1	1	0	1	0
103	809	7	10000	1	1	0	1	0
104	810	7	10000	1	1	0	1	0
107	810	7	10000	1	1	0	1	0
119	811	7	10000	1	1	0	1	0
132	813	7	10000	1	1	0	1	0
130	814	7	10000	1	1	0	1	0
128	815	7	10000	1	1	0	1	0
131	816	7	10000	1	1	0	1	0
134	817	7	10000	1	1	0	1	0
135	818	7	10000	1	1	0	1	0
133	819	7	10000	1	1	0	1	0
132	820	7	10000	1	1	0	1	0
129	820	7	10000	1	1	0	1	0
126	821	7	10000	1	1	0	1	0
124	823	7	10000	1	1	0	1	0
127	824	7	10000	1	1	0	1	0
123	825	7	10000	1	1	0	1	0
116	826	7	10000	1	1	0	1	0
112	827	7	10000	1	1	0	1	0
109	828	7	10000	1	1	0	1	0
106	829	7	10000	1	1	0	1	0
104	830	7	10000	1	1	0	1	0
104	830	7	10000	1	1	0	1	0
103	831	7	10000	1	1	0	1	0
102	833	7	10000	1	1	0	1	0
99	834	7	10000	1	1	0	1	0
98	835	7	10000	1	1	0	1	0
98	836	7	10000	1	1	0	1	0
99	837	7	10000	1	1	0	1	0
102	838	7	10000	1	1	0	1	0
104	839	7	10000	1	1	0	1	0
106	840	7	10000	1	1	0	1	0
107	840	7	10000	1	1	0	1	0
109	841	7	10000	1	1	0	1	0
111	843	7	10000	1	1	0	1	0
115	844	7	10000	1	1	0	1	0
114	845	7	10000	1	1	0	1	0
113	846	7	10000	1	1	0	1	0
110	847	7	10000	1	1	0	1	0
107	848	7	10000	1	1	0	1	0
104	849	7	10000	1	1	0	1	0
103	850	7	10000	1	1	0	1	0
101	850	7	10000	1	1	0	1	0
98	851	7	10000	1	1	0	1	0
94	853	7	10000	1	1	0	1	0
89	854	7	10000	1	1	0	1	0
86	855	7	10000	1	1	0	1	0
84	856	7	10000	1	1	0	1	0
82	857	7	10000	1	1	0	1	0
82	858	7	10000	1	1	0	1	0
80	859	7	10000	1	1	0	1	0
79	860	7	10000	1	1	0	1	0
77	860	7	10000	1	1	0	1	0
75	861	7	10000	1	1	0	1	0
74	863	7	10000	1	1	0	1	0
76	864	7	10000	1	1	0	1	0
75	865	7	10000	1	1	0	1	0
73	866	7	10000	1	1	0	1	0
73	867	7	10000	1	1	0	1	0
71	868	7	10000	1	1	0	1	0
69	869	7	10000	1	1	0	1	0
69	870	7	10000	1	1	0	1	0
68	870	7	10000	1	1	0	1	0
67	871	7	10000	1	1	0	1	0
64	873	7	10000	1	1	0	1	0
59	874	7	10000	1	1	0	1	0
58	875	7	10000	1	1	0	1	0
56	876	7	10000	1	1	0	1	0
56	877	7	10000	1	1	0	1	0
56	878	7	10000	1	1	0	1	0
56	879	7	10000	1	1	0	1	0
55	880	7	10000	1	1	0	1	0
52	880	7	10000	1	1	0	1	0
49	881	7	10000	1	1	0	1	0
47	883	7	10000	1	1	0	1	0
47	884	7	10000	1	1	0	1	0
46	885	7	10000	1	1	0	1	0
46	886	7	10000	1	1	0	1	0
46	887	7	10000	1	1	0	1	0
46	888	7	10000	1	1	0	1	0
45	889	7	10000	1	1	0	1	0
44	890	7	10000	1	1	0	1	0
44	890	7	10000	1	1	0	1	0
45	891	7	10000	1	1	0	1	0
45	893	7	10000	1	1	0	1	0
44	894	7	10000	1	1	0	1	0
45	895	7	10000	1	1	0	1	0
46	896	7	10000	1	1	0	1	0
45	897	7	10000	1	1	0	1	0
44	898	7	10000	1	1	0	1	0
42	899	7	10000	1	1	0	1	0
41	900	7	10000	1	1	0	1	0
39	900	7	10000	1	1	0	1	0
38	901	7	10000	1	1	0	1	0
38	903	7	10000	1	1	0	1	0
41	904	7	10000	1	1	0	1	0
40	905	7	10000	1	1	0	1	0
38	906	7	10000	1	1	0	1	0
36	907	7	10000	1	1	0	1	0
36	908	7	10000	1	1	0	1	0
36	909	7	10000	1	1	0	1	0
35	910	7	10000	1	1	0	1	0
36	910	7	10000	1	1	0	1	0
36	911	7	10000	1	1	0	1	0
35	913	7	10000	1	1	0	1	0
32	914	7	10000	1	1	0	1	0
32	915	7	10000	1	1	0	1	0
31	916	7	10000	1	1	0	1	0
30	917	7	10000	1	1	0	1	0
29	918	7	10000	1	1	0	1	0
28	919	7	10000	1	1	0	1	0
27	920	7	10000	1	1	0	1	0
26	920	7	10000	1	1	0	1	0
24	921	7	10000	1	1	0	1	0
23	923	7	10000	1	1	0	1	0
25	924	7	10000	1	1	0	1	0
24	925	7	10000	1	1	0	1	0
22	926	7	10000	1	1	0	1	0
21	927	7	10000	1	1	0	1	0
21	928	7	10000	1	1	0	1	0
21	929	7	10000	1	1	0	1	0
21	930	7	10000	1	1	0	1	0
20	930	7	10000	1	1	0	1	0
20	931	7	10000	1	1	0	1	0
21	933	7	10000	1	1	0	1	0
19	934	7	10000	1	1	0	1	0
19	935	7	10000	1	1	0	1	0
18	936	7	10000	1	1	0	1	0
19	937	7	10000	1	1	0	1	0
21	938	7	10000	1	1	0	1	0
21	939	7	10000	1	1	0	1	0
22	940	7	10000	1	1	0	1	0
22	940	7	10000	1	1	0	1	0
20	941	7	10000	1	1	0	1	0
19	943	7	10000	1	1	0	1	0
21	944	7	10000	1	1	0	1	0
20	945	7	10000	1	1	0	1	0
20	946	7	10000	1	1	0	1	0
21	947	7	10000	1	1	0	1	0
22	948	7	10000	1	1	0	1	0
22	949	7	10000	1	1	0	1	0
22	950	7	10000	1	1	0	1	0
23	950	7	10000	1	1	0	1	0
23	951	7	10000	1	1	0	1	0
22	953	7	10000	1	1	0	1	0
20	954	7	10000	1	1	0	1	0
20	955	7	10000	1	1	0	1	0
19	956	7	10000	1	1	0	1	0
20	957	7	10000	1	1	0	1	0
20	958	7	10000	1	1	0	1	0
20	959	7	10000	1	1	0	1	0
21	960	7	10000	1	1	0	1	0
23	960	7	10000	1	1	0	1	0
23	961	7	10000	1	1	0	1	0
26	963	7	10000	1	1	0	1	0
29	964	7	10000	1	1	0	1	0
29	965	7	10000	1	1	0	1	0
29	966	7	10000	1	1	0	1	0
29	967	7	10000	1	1	0	1	0
27	968	7	10000	1	1	0	1	0
27	969	7	10000	1	1	0	1	0
26	970	7	10000	1	1	0	1	0
25	970	7	10000	1	1	0	1	0
25	971	7	10000	1	1	0	1	0
26	973	7	10000	1	1	0	1	0
24	974	7	10000	1	1	0	1	0
24	975	7	10000	1	1	0	1	0
23	976	7	10000	1	1	0	1	0
22	977	7	10000	1	1	0	1	0
21	978	7	10000	1	1	0	1	0
21	979	7	10000	1	1	0	1	0
21	980	7	10000	1	1	0	1	0
21	980	7	10000	1	1	0	1	0
19	981	7	10000	1	1	0	1	0
18	983	7	10000	1	1	0	1	0
20	984	7	10000	1	1	0	1	0
19	985	7	10000	1	1	0	1	0
19	986	7	10000	1	1	0	1	0
19	987	7	10000	1	1	0	1	0
19	988	7	10000	1	1	0	1	0
19	989	7	10000	1	1	0	1	0
19	990	7	10000	1	1	0	1	0
20	990	7	10000	1	1	0	1	0
19	991	7	10000	1	1	0	1	0
20	993	7	10000	1	1	0	1	0
18	994	7	10000	1	1	0	1	0
19	995	7	10000	1	1	0	1	0
19	996	7	10000	1	1	0	1	0
20	997	7	10000	1	1	0	1	0
20	998	7	10000	1	1	0	1	0
20	999	7	10000	1	1	0	1	0
22	1000	7	10000	1	1	0	1	0
24	1000	7	10000	1	1	0	1	0
24	1001	7	10000	1	1	0	1	0
19	2	7	10000	2	1	0	2	0
19	3	7	10000	2	1	0	2	0
19	4	7	10000	2	1	0	2	0
19	5	7	10000	2	1	0	2	0
19	6	7	10000	2	1	0	2	0
19	7	7	10000	2	1	0	2	0
19	8	7	10000	2	1	0	2	0
17	9	7	10000	2	1	0	2	0
18	10	7	10000	2	1	0	2	0
19	11	7	10000	2	1	0	2	0
20	12	7	10000	2	1	0	2	0
22	13	7	10000	2	1	0	2	0
23	14	7	10000	2	1	0	2	0
24	15	7	10000	2	1	0	2	0
24	16	7	10000	2	1	0	2	0
23	17	7	10000	2	1	0	2	0
22	18	7	10000	2	1	0	2	0
23	19	7	10000	2	1	0	2	0
22	20	7	10000	2	1	0	2	0
21	21	7	10000	2	1	0	2	0
20	21	7	10000	2	1	0	2	0
19	22	7	10000	2	1	0	2	0
19	24	7	10000	2	1	0	2	0
19	25	7	10000	2	1	0	2	0
19	26	7	10000	2	1	0	2	0
18	27	7	10000	2	1	0	2	0
18	28	7	10000	2	1	0	2	0
16	29	7	10000	2	1	0	2	0
16	30	7	10000	2	1	0	2	0
16	31	7	10000	2	1	0	2	0
16	31	7	10000	2	1	0	2	0
16	32	7	10000	2	1	0	2	0
16	34	7	10000	2	1	0	2	0
17	35	7	10000	2	1	0	2	0
16	36	7	10000	2	1	0	2	0
15	37	7	10000	2	1	0	2	0
15	38	7	10000	2	1	0	2	0
16	39	7	10000	2	1	0	2	0
16	40	7	10000	2	1	0	2	0
16	41	7	10000	2	1	0	2	0
14	41	7	10000	2	1	0	2	0
15	42	7	10000	2	1	0	2	0
15	44	7	10000	2	1	0	2	0
15	45	7	10000	2	1	0	2	0
16	46	7	10000	2	1	0	2	0
18	47	7	10000	2	1	0	2	0
18	48	7	10000	2	1	0	2	0
17	49	7	10000	2	1	0	2	0
16	50	7	10000	2	1	0	2	0
18	51	7	10000	2	1	0	2	0
20	51	7	10000	2	1	0	2	0
23	52	7	10000	2	1	0	2	0
25	54	7	10000	2	1	0	2	0
26	55	7	10000	2	1	0	2	0
27	56	7	10000	2	1	0	2	0
26	57	7	10000	2	1	0	2	0
27	58	7	10000	2	1	0	2	0
29	59	7	10000	2	1	0	2	0
30	60	7	10000	2	1	0	2	0
30	61	7	10000	2	1	0	2	0
29	61	7	10000	2	1	0	2	0
29	62	7	10000	2	1	0	2	0
29	64	7	10000	2	1	0	2	0
27	65	7	10000	2	1	0	2	0
26	66	7	10000	2	1	0	2	0
26	67	7	10000	2	1	0	2	0
25	68	7	10000	2	1	0	2	0
22	69	7	10000	2	1	0	2	0
22	70	7	10000	2	1	0	2	0
22	71	7	10000	2	1	0	2	0
22	71	7	10000	2	1	0	2	0
22	72	7	10000	2	1	0	2	0
23	74	7	10000	2	1	0	2	0
22	75	7	10000	2	1	0	2	0
22	76	7	10000	2	1	0	2	0
20	77	7	10000	2	1	0	2	0
19	78	7	10000	2	1	0	2	0
21	79	7	10000	2	1	0	2	0
22	80	7	10000	2	1	0	2	0
22	81	7	10000	2	1	0	2	0
21	81	7	10000	2	1	0	2	0
21	82	7	10000	2	1	0	2	0
21	84	7	10000	2	1	0	2	0
20	85	7	10000	2	1	0	2	0
21	86	7	10000	2	1	0	2	0
22	87	7	10000	2	1	0	2	0
22	88	7	10000	2	1	0	2	0
20	89	7	10000	2	1	0	2	0
19	90	7	10000	2	1	0	2	0
18	91	7	10000	2	1	0	2	0
18	91	7	10000	2	1	0	2	0
18	92	7	10000	2	1	0	2	0
17	94	7	10000	2	1	0	2	0
17	95	7	10000	2	1	0	2	0
17	96	7	10000	2	1	0	2	0
15	97	7	10000	2	1	0	2	0
14	98	7	10000	2	1	0	2	0
16	99	7	10000	2	1	0	2	0
16	100	7	10000	2	1	0	2	0
15	101	7	10000	2	1	0	2	0
14	101	7	10000	2	1	0	2	0
14	102	7	10000	2	1	0	2	0
14	104	7	10000	2	1	0	2	0
14	105	7	10000	2	1	0	2	0
15	106	7	10000	2	1	0	2	0
17	107	7	10000	2	1	0	2	0
17	108	7	10000	2	1	0	2	0
15	109	7	10000	2	1	0	2	0
16	110	7	10000	2	1	0	2	0
16	111	7	10000	2	1	0	2	0
18	111	7	10000	2	1	0	2	0
18	112	7	10000	2	1	0	2	0
19	114	7	10000	2	1	0	2	0
20	115	7	10000	2	1	0	2	0
20	116	7	10000	2	1	0	2	0
19	117	7	10000	2	1	0	2	0
18	118	7	10000	2	1	0	2	0
19	119	7	10000	2	1	0	2	0
19	120	7	10000	2	1	0	2	0
19	121	7	10000	2	1	0	2	0
18	121	7	10000	2	1	0	2	0
19	122	7	10000	2	1	0	2	0
20	124	7	10000	2	1	0	2	0
19	125	7	10000	2	1	0	2	0
19	126	7	10000	2	1	0	2	0
19	127	7	10000	2	1	0	2	0
19	128	7	10000	2	1	0	2	0
17	129	7	10000	2	1	0	2	0
17	130	7	10000	2	1	0	2	0
17	131	7	10000	2	1	0	2	0
18	131	7	10000	2	1	0	2	0
18	132	7	10000	2	1	0	2	0
18	134	7	10000	2	1	0	2	0
18	135	7	10000	2	1	0	2	0
18	136	7	10000	2	1	0	2	0
18	137	7	10000	2	1	0	2	0
17	138	7	10000	2	1	0	2	0
18	139	7	10000	2	1	0	2	0
18	140	7	10000	2	1	0	2	0
19	141	7	10000	2	1	0	2	0
19	141	7	10000	2	1	0	2	0
18	142	7	10000	2	1	0	2	0
19	144	7	10000	2	1	0	2	0
19	145	7	10000	2	1	0	2	0
20	146	7	10000	2	1	0	2	0
20	147	7	10000	2	1	0	2	0
21	148	7	10000	2	1	0	2	0
19	149	7	10000	2	1	0	2	0
21	150	7	10000	2	1	0	2	0
25	151	7	10000	2	1	0	2	0
30	151	7	10000	2	1	0	2	0
36	152	7	10000	2	1	0	2	0
41	154	7	10000	2	1	0	2	0
45	155	7	10000	2	1	0	2	0
50	156	7	10000	2	1	0	2	0
54	157	7	10000	2	1	0	2	0
58	158	7	10000	2	1	0	2	0
63	159	7	10000	2	1	0	2	0
68	160	7	10000	2	1	0	2	0
72	161	7	10000	2	1	0	2	0
77	161	7	10000	2	1	0	2	0
82	162	7	10000	2	1	0	2	0
86	164	7	10000	2	1	0	2	0
90	165	7	10000	2	1	0	2	0
95	166	7	10000	2	1	0	2	0
99	167	7	10000	2	1	0	2	0
103	168	7	10000	2	1	0	2	0
105	169	7	10000	2	1	0	2	0
107	170	7	10000	2	1	0	2	0
108	171	7	10000	2	1	0	2	0
110	171	7	10000	2	1	0	2	0
110	172	7	10000	2	1	0	2	0
109	174	7	10000	2	1	0	2	0
108	175	7	10000	2	1	0	2	0
107	176	7	10000	2	1	0	2	0
107	177	7	10000	2	1	0	2	0
104	178	7	10000	2	1	0	2	0
104	179	7	10000	2	1	0	2	0
101	180	7	10000	2	1	0	2	0
96	181	7	10000	2	1	0	2	0
92	181	7	10000	2	1	0	2	0
88	182	7	10000	2	1	0	2	0
84	184	7	10000	2	1	0	2	0
81	185	7	10000	2	1	0	2	0
80	186	7	10000	2	1	0	2	0
81	187	7	10000	2	1	0	2	0
83	188	7	10000	2	1	0	2	0
85	189	7	10000	2	1	0	2	0
88	190	7	10000	2	1	0	2	0
92	191	7	10000	2	1	0	2	0
95	191	7	10000	2	1	0	2	0
98	192	7	10000	2	1	0	2	0
100	194	7	10000	2	1	0	2	0
104	195	7	10000	2	1	0	2	0
108	196	7	10000	2	1	0	2	0
115	197	7	10000	2	1	0	2	0
120	198	7	10000	2	1	0	2	0
126	199	7	10000	2	1	0	2	0
128	200	7	10000	2	1	0	2	0
130	201	7	10000	2	1	0	2	0
130	201	7	10000	2	1	0	2	0
129	202	7	10000	2	1	0	2	0
129	204	7	10000	2	1	0	2	0
129	205	7	10000	2	1	0	2	0
128	206	7	10000	2	1	0	2	0
127	207	7	10000	2	1	0	2	0
127	208	7	10000	2	1	0	2	0
126	209	7	10000	2	1	0	2	0
125	210	7	10000	2	1	0	2	0
126	211	7	10000	2	1	0	2	0
126	211	7	10000	2	1	0	2	0
127	212	7	10000	2	1	0	2	0
126	214	7	10000	2	1	0	2	0
125	215	7	10000	2	1	0	2	0
123	216	7	10000	2	1	0	2	0
121	217	7	10000	2	1	0	2	0
118	218	7	10000	2	1	0	2	0
118	219	7	10000	2	1	0	2	0
117	220	7	10000	2	1	0	2	0
116	221	7	10000	2	1	0	2	0
114	221	7	10000	2	1	0	2	0
110	222	7	10000	2	1	0	2	0
108	224	7	10000	2	1	0	2	0
105	225	7	10000	2	1	0	2	0
104	226	7	10000	2	1	0	2	0
104	227	7	10000	2	1	0	2	0
106	228	7	10000	2	1	0	2	0
105	229	7	10000	2	1	0	2	0
102	230	7	10000	2	1	0	2	0
99	231	7	10000	2	1	0	2	0
94	231	7	10000	2	1	0	2	0
91	232	7	10000	2	1	0	2	0
86	234	7	10000	2	1	0	2	0
83	235	7	10000	2	1	0	2	0
81	236	7	10000	2	1	0	2	0
77	237	7	10000	2	1	0	2	0
73	238	7	10000	2	1	0	2	0
71	239	7	10000	2	1	0	2	0
70	240	7	10000	2	1	0	2	0
70	241	7	10000	2	1	0	2	0
70	241	7	10000	2	1	0	2	0
68	242	7	10000	2	1	0	2	0
66	244	7	10000	2	1	0	2	0
63	245	7	10000	2	1	0	2	0
61	246	7	10000	2	1	0	2	0
58	247	7	10000	2	1	0	2	0
56	248	7	10000	2	1	0	2	0
53	249	7	10000	2	1	0	2	0
50	250	7	10000	2	1	0	2	0
49	251	7	10000	2	1	0	2	0
47	251	7	10000	2	1	0	2	0
46	252	7	10000	2	1	0	2	0
44	254	7	10000	2	1	0	2	0
43	255	7	10000	2	1	0	2	0
42	256	7	10000	2	1	0	2	0
39	257	7	10000	2	1	0	2	0
37	258	7	10000	2	1	0	2	0
37	259	7	10000	2	1	0	2	0
36	260	7	10000	2	1	0	2	0
35	261	7	10000	2	1	0	2	0
33	261	7	10000	2	1	0	2	0
33	262	7	10000	2	1	0	2	0
32	264	7	10000	2	1	0	2	0
31	265	7	10000	2	1	0	2	0
29	266	7	10000	2	1	0	2	0
29	267	7	10000	2	1	0	2	0
29	268	7	10000	2	1	0	2	0
27	269	7	10000	2	1	0	2	0
25	270	7	10000	2	1	0	2	0
25	271	7	10000	2	1	0	2	0
24	271	7	10000	2	1	0	2	0
23	272	7	10000	2	1	0	2	0
22	274	7	10000	2	1	0	2	0
22	275	7	10000	2	1	0	2	0
22	276	7	10000	2	1	0	2	0
22	277	7	10000	2	1	0	2	0
22	278	7	10000	2	1	0	2	0
25	279	7	10000	2	1	0	2	0
27	280	7	10000	2	1	0	2	0
26	281	7	10000	2	1	0	2	0
26	281	7	10000	2	1	0	2	0
24	282	7	10000	2	1	0	2	0
23	284	7	10000	2	1	0	2	0
22	285	7	10000	2	1	0	2	0
24	286	7	10000	2	1	0	2	0
26	287	7	10000	2	1	0	2	0
28	288	7	10000	2	1	0	2	0
26	289	7	10000	2	1	0	2	0
24	290	7	10000	2	1	0	2	0
23	291	7	10000	2	1	0	2	0
23	291	7	10000	2	1	0	2	0
23	292	7	10000	2	1	0	2	0
22	294	7	10000	2	1	0	2	0
21	295	7	10000	2	1	0	2	0
21	296	7	10000	2	1	0	2	0
21	297	7	10000	2	1	0	2	0
20	298	7	10000	2	1	0	2	0
23	299	7	10000	2	1	0	2	0
22	300	7	10000	2	1	0	2	0
21	301	7	10000	2	1	0	2	0
21	301	7	10000	2	1	0	2	0
20	302	7	10000	2	1	0	2	0
20	304	7	10000	2	1	0	2	0
19	305	7	10000	2	1	0	2	0
19	306	7	10000	2	1	0	2	0
20	307	7	10000	2	1	0	2	0
20	308	7	10000	2	1	0	2	0
20	309	7	10000	2	1	0	2	0
21	310	7	10000	2	1	0	2	0
22	311	7	10000	2	1	0	2	0
21	311	7	10000	2	1	0	2	0
20	312	7	10000	2	1	0	2	0
20	314	7	10000	2	1	0	2	0
20	315	7	10000	2	1	0	2	0
20	316	7	10000	2	1	0	2	0
19	317	7	10000	2	1	0	2	0
18	318	7	10000	2	1	0	2	0
20	319	7	10000	2	1	0	2	0
20	320	7	10000	2	1	0	2	0
19	321	7	10000	2	1	0	2	0
19	321	7	10000	2	1	0	2	0
19	322	7	10000	2	1	0	2	0
19	324	7	10000	2	1	0	2	0
20	325	7	10000	2	1	0	2	0
20	326	7	10000	2	1	0	2	0
20	327	7	10000	2	1	0	2	0
20	328	7	10000	2	1	0	2	0
18	329	7	10000	2	1	0	2	0
17	330	7	10000	2	1	0	2	0
18	331	7	10000	2	1	0	2	0
18	331	7	10000	2	1	0	2	0
18	332	7	10000	2	1	0	2	0
17	334	7	10000	2	1	0	2	0
16	335	7	10000	2	1	0	2	0
15	336	7	10000	2	1	0	2	0
14	337	7	10000	2	1	0	2	0
14	338	7	10000	2	1	0	2	0
16	339	7	10000	2	1	0	2	0
16	340	7	10000	2	1	0	2	0
15	341	7	10000	2	1	0	2	0
15	341	7	10000	2	1	0	2	0
14	342	7	10000	2	1	0	2	0
13	344	7	10000	2	1	0	2	0
14	345	7	10000	2	1	0	2	0
16	346	7	10000	2	1	0	2	0
17	347	7	10000	2	1	0	2	0
18	348	7	10000	2	1	0	2	0
16	349	7	10000	2	1	0	2	0
17	350	7	10000	2	1	0	2	0
17	351	7	10000	2	1	0	2	0
18	351	7	10000	2	1	0	2	0
18	352	7	10000	2	1	0	2	0
18	354	7	10000	2	1	0	2	0
17	355	7	10000	2	1	0	2	0
16	356	7	10000	2	1	0	2	0
15	357	7	10000	2	1	0	2	0
15	358	7	10000	2	1	0	2	0
16	359	7	10000	2	1	0	2	0
16	360	7	10000	2	1	0	2	0
15	361	7	10000	2	1	0	2	0
15	361	7	10000	2	1	0	2	0
15	362	7	10000	2	1	0	2	0
17	364	7	10000	2	1	0	2	0
19	365	7	10000	2	1	0	2	0
19	366	7	10000	2	1	0	2	0
19	367	7	10000	2	1	0	2	0
19	368	7	10000	2	1	0	2	0
17	369	7	10000	2	1	0	2	0
16	370	7	10000	2	1	0	2	0
16	371	7	10000	2	1	0	2	0
15	371	7	10000	2	1	0	2	0
15	372	7	10000	2	1	0	2	0
16	374	7	10000	2	1	0	2	0
16	375	7	10000	2	1	0	2	0
16	376	7	10000	2	1	0	2	0
15	377	7	10000	2	1	0	2	0
15	378	7	10000	2	1	0	2	0
16	379	7	10000	2	1	0	2	0
16	380	7	10000	2	1	0	2	0
15	381	7	10000	2	1	0	2	0
15	381	7	10000	2	1	0	2	0
14	382	7	10000	2	1	0	2	0
13	384	7	10000	2	1	0	2	0
13	385	7	10000	2	1	0	2	0
12	386	7	10000	2	1	0	2	0
12	387	7	10000	2	1	0	2	0
12	388	7	10000	2	1	0	2	0
11	389	7	10000	2	1	0	2	0
10	390	7	10000	2	1	0	2	0
12	391	7	10000	2	1	0	2	0
14	391	7	10000	2	1	0	2	0
16	392	7	10000	2	1	0	2	0
17	394	7	10000	2	1	0	2	0
18	395	7	10000	2	1	0	2	0
19	396	7	10000	2	1	0	2	0
19	397	7	10000	2	1	0	2	0
19	398	7	10000	2	1	0	2	0
20	399	7	10000	2	1	0	2	0
20	400	7	10000	2	1	0	2	0
19	401	7	10000	2	1	0	2	0
18	401	7	10000	2	1	0	2	0
17	402	7	10000	2	1	0	2	0
17	404	7	10000	2	1	0	2	0
17	405	7	10000	2	1	0	2	0
15	406	7	10000	2	1	0	2	0
16	407	7	10000	2	1	0	2	0
17	408	7	10000	2	1	0	2	0
16	409	7	10000	2	1	0	2	0
15	410	7	10000	2	1	0	2	0
15	411	7	10000	2	1	0	2	0
15	411	7	10000	2	1	0	2	0
14	412	7	10000	2	1	0	2	0
15	414	7	10000	2	1	0	2	0
16	415	7	10000	2	1	0	2	0
16	416	7	10000	2	1	0	2	0
15	417	7	10000	2	1	0	2	0
14	418	7	10000	2	1	0	2	0
15	419	7	10000	2	1	0	2	0
16	420	7	10000	2	1	0	2	0
16	421	7	10000	2	1	0	2	0
14	421	7	10000	2	1	0	2	0
14	422	7	10000	2	1	0	2	0
15	424	7	10000	2	1	0	2	0
15	425	7	10000	2	1	0	2	0
14	426	7	10000	2	1	0	2	0
15	427	7	10000	2	1	0	2	0
17	428	7	10000	2	1	0	2	0
15	429	7	10000	2	1	0	2	0
14	430	7	10000	2	1	0	2	0
16	431	7	10000	2	1	0	2	0
18	431	7	10000	2	1	0	2	0
20	432	7	10000	2	1	0	2	0
20	434	7	10000	2	1	0	2	0
21	435	7	10000	2	1	0	2	0
22	436	7	10000	2	1	0	2	0
22	437	7	10000	2	1	0	2	0
20	438	7	10000	2	1	0	2	0
22	439	7	10000	2	1	0	2	0
23	440	7	10000	2	1	0	2	0
22	441	7	10000	2	1	0	2	0
21	441	7	10000	2	1	0	2	0
21	442	7	10000	2	1	0	2	0
21	444	7	10000	2	1	0	2	0
20	445	7	10000	2	1	0	2	0
20	446	7	10000	2	1	0	2	0
20	447	7	10000	2	1	0	2	0
20	448	7	10000	2	1	0	2	0
19	449	7	10000	2	1	0	2	0
18	450	7	10000	2	1	0	2	0
19	451	7	10000	2	1	0	2	0
18	451	7	10000	2	1	0	2	0
19	452	7	10000	2	1	0	2	0
19	454	7	10000	2	1	0	2	0
19	455	7	10000	2	1	0	2	0
18	456	7	10000	2	1	0	2	0
18	457	7	10000	2	1	0	2	0
17	458	7	10000	2	1	0	2	0
18	459	7	10000	2	1	0	2	0
19	460	7	10000	2	1	0	2	0
19	461	7	10000	2	1	0	2	0
19	461	7	10000	2	1	0	2	0
20	462	7	10000	2	1	0	2	0
22	464	7	10000	2	1	0	2	0
24	465	7	10000	2	1	0	2	0
25	466	7	10000	2	1	0	2	0
26	467	7	10000	2	1	0	2	0
27	468	7	10000	2	1	0	2	0
26	469	7	10000	2	1	0	2	0
24	470	7	10000	2	1	0	2	0
26	471	7	10000	2	1	0	2	0
26	471	7	10000	2	1	0	2	0
28	472	7	10000	2	1	0	2	0
30	474	7	10000	2	1	0	2	0
29	475	7	10000	2	1	0	2	0
29	476	7	10000	2	1	0	2	0
29	477	7	10000	2	1	0	2	0
30	478	7	10000	2	1	0	2	0
35	479	7	10000	2	1	0	2	0
40	480	7	10000	2	1	0	2	0
43	481	7	10000	2	1	0	2	0
43	481	7	10000	2	1	0	2	0
42	482	7	10000	2	1	0	2	0
43	484	7	10000	2	1	0	2	0
43	485	7	10000	2	1	0	2	0
42	486	7	10000	2	1	0	2	0
42	487	7	10000	2	1	0	2	0
44	488	7	10000	2	1	0	2	0
45	489	7	10000	2	1	0	2	0
44	490	7	10000	2	1	0	2	0
42	491	7	10000	2	1	0	2	0
41	491	7	10000	2	1	0	2	0
41	492	7	10000	2	1	0	2	0
43	494	7	10000	2	1	0	2	0
43	495	7	10000	2	1	0	2	0
43	496	7	10000	2	1	0	2	0
42	497	7	10000	2	1	0	2	0
40	498	7	10000	2	1	0	2	0
39	499	7	10000	2	1	0	2	0
38	500	7	10000	2	1	0	2	0
37	501	7	10000	2	1	0	2	0
37	501	7	10000	2	1	0	2	1
36	502	7	10000	2	1	0	2	1
36	504	7	10000	2	1	0	2	1
36	505	7	10000	2	1	0	2	1
39	506	7	10000	2	1	0	2	1
41	507	7	10000	2	1	0	2	1
42	508	7	10000	2	1	0	2	1
39	509	7	10000	2	1	0	2	1
42	510	7	10000	2	1	0	2	1
47	511	7	10000	2	1	0	2	1
48	511	7	10000	2	1	0	2	1
47	512	7	10000	2	1	0	2	1
51	514	7	10000	2	1	0	2	1
55	515	7	10000	2	1	0	2	1
58	516	7	10000	2	1	0	2	1
62	517	7	10000	2	1	0	2	1
62	518	7	10000	2	1	0	2	1
64	519	7	10000	2	1	0	2	1
66	520	7	10000	2	1	0	2	1
66	521	7	10000	2	1	0	2	1
65	521	7	10000	2	1	0	2	1
67	522	7	10000	2	1	0	2	1
68	524	7	10000	2	1	0	2	1
74	525	7	10000	2	1	0	2	1
80	526	7	10000	2	1	0	2	1
88	527	7	10000	2	1	0	2	1
91	528	7	10000	2	1	0	2	1
89	529	7	10000	2	1	0	2	1
86	530	7	10000	2	1	0	2	1
84	531	7	10000	2	1	0	2	1
86	531	7	10000	2	1	0	2	1
87	532	7	10000	2	1	0	2	1
89	534	7	10000	2	1	0	2	1
91	535	7	10000	2	1	0	2	1
92	536	7	10000	2	1	0	2	1
91	537	7	10000	2	1	0	2	1
88	538	7	10000	2	1	0	2	1
88	539	7	10000	2	1	0	2	1
87	540	7	10000	2	1	0	2	1
84	541	7	10000	2	1	0	2	1
83	541	7	10000	2	1	0	2	1
79	542	7	10000	2	1	0	2	1
76	544	7	10000	2	1	0	2	1
75	545	7	10000	2	1	0	2	1
80	546	7	10000	2	1	0	2	1
83	547	7	10000	2	1	0	2	1
82	548	7	10000	2	1	0	2	1
77	549	7	10000	2	1	0	2	1
75	550	7	10000	2	1	0	2	1
74	551	7	10000	2	1	0	2	1
73	551	7	10000	2	1	0	2	0
71	552	7	10000	2	1	0	2	0
69	554	7	10000	2	1	0	2	0
67	555	7	10000	2	1	0	2	0
63	556	7	10000	2	1	0	2	0
62	557	7	10000	2	1	0	2	0
63	558	7	10000	2	1	0	2	0
68	559	7	10000	2	1	0	2	0
72	560	7	10000	2	1	0	2	0
74	561	7	10000	2	1	0	2	0
77	561	7	10000	2	1	0	2	0
80	562	7	10000	2	1	0	2	0
81	564	7	10000	2	1	0	2	0
84	565	7	10000	2	1	0	2	0
86	566	7	10000	2	1	0	2	0
88	567	7	10000	2	1	0	2	0
88	568	7	10000	2	1	0	2	0
85	569	7	10000	2	1	0	2	0
83	570	7	10000	2	1	0	2	0
83	571	7	10000	2	1	0	2	0
84	571	7	10000	2	1	0	2	0
83	572	7	10000	2	1	0	2	0
82	574	7	10000	2	1	0	2	0
80	575	7	10000	2	1	0	2	0
77	576	7	10000	2	1	0	2	0
75	577	7	10000	2	1	0	2	0
74	578	7	10000	2	1	0	2	0
75	579	7	10000	2	1	0	2	0
75	580	7	10000	2	1	0	2	0
73	581	7	10000	2	1	0	2	0
73	581	7	10000	2	1	0	2	0
72	582	7	10000	2	1	0	2	0
71	584	7	10000	2	1	0	2	0
70	585	7	10000	2	1	0	2	0
71	586	7	10000	2	1	0	2	0
68	587	7	10000	2	1	0	2	0
66	588	7	10000	2	1	0	2	0
64	589	7	10000	2	1	0	2	0
64	590	7	10000	2	1	0	2	0
63	591	7	10000	2	1	0	2	0
68	591	7	10000	2	1	0	2	0
77	592	7	10000	2	1	0	2	0
79	594	7	10000	2	1	0	2	0
81	595	7	10000	2	1	0	2	0
80	596	7	10000	2	1	0	2	0
78	597	7	10000	2	1	0	2	0
75	598	7	10000	2	1	0	2	0
73	599	7	10000	2	1	0	2	0
73	600	7	10000	2	1	0	2	0
93	601	7	10000	2	1	0	2	0
140	601	7	10000	2	1	0	2	0
183	602	7	10000	2	1	0	2	0
208	604	7	10000	2	1	0	2	0
207	605	7	10000	2	1	0	2	0
215	606	7	10000	2	1	0	2	0
225	607	7	10000	2	1	0	2	0
241	608	7	10000	2	1	0	2	0
257	609	7	10000	2	1	0	2	0
332	610	7	10000	2	1	0	2	0
367	611	7	10000	2	1	0	2	0
370	611	7	10000	2	1	0	2	0
382	612	7	10000	2	1	0	2	0
388	614	7	10000	2	1	0	2	0
426	615	7	10000	2	1	0	2	0
442	616	7	10000	2	1	0	2	0
434	617	7	10000	2	1	0	2	0
419	618	7	10000	2	1	0	2	0
426	619	7	10000	2	1	0	2	0
502	620	7	10000	2	1	0	2	0
585	621	7	10000	2	1	0	2	0
616	621	7	10000	2	1	0	2	0
650	622	7	10000	2	1	0	2	0
641	624	7	10000	2	1	0	2	0
622	625	7	10000	2	1	0	2	0
647	626	7	10000	2	1	0	2	0
690	627	7	10000	2	1	0	2	0
693	628	7	10000	2	1	0	2	0
780	629	7	10000	2	1	0	2	0
961	630	7	10000	2	1	0	2	0
1039	631	7	10000	2	1	0	2	0
1046	631	7	10000	2	1	0	2	0
1115	632	7	10000	2	1	0	2	0
1101	634	7	10000	2	1	0	2	0
1063	635	7	10000	2	1	0	2	0
1090	636	7	10000	2	1	0	2	0
1109	637	7	10000	2	1	0	2	0
1066	638	7	10000	2	1	0	2	0
1043	639	7	10000	2	1	0	2	0
1072	640	7	10000	2	1	0	2	0
1096	641	7	10000	2	1	0	2	0
1094	641	7	10000	2	1	0	2	0
1071	642	7	10000	2	1	0	2	0
1035	644	7	10000	2	1	0	2	0
988	645	7	10000	2	1	0	2	0
949	646	7	10000	2	1	0	2	0
917	647	7	10000	2	1	0	2	0
890	648	7	10000	2	1	0	2	0
867	649	7	10000	2	1	0	2	0
845	650	7	10000	2	1	0	2	0
825	651	7	10000	2	1	0	2	0
807	651	7	10000	2	1	0	2	0
788	652	7	10000	2	1	0	2	0
771	654	7	10000	2	1	0	2	0
755	655	7	10000	2	1	0	2	0
737	656	7	10000	2	1	0	2	0
721	657	7	10000	2	1	0	2	0
708	658	7	10000	2	1	0	2	0
698	659	7	10000	2	1	0	2	0
685	660	7	10000	2	1	0	2	0
669	661	7	10000	2	1	0	2	0
648	661	7	10000	2	1	0	2	0
627	662	7	10000	2	1	0	2	0
603	664	7	10000	2	1	0	2	0
577	665	7	10000	2	1	0	2	0
551	666	7	10000	2	1	0	2	0
528	667	7	10000	2	1	0	2	0
509	668	7	10000	2	1	0	2	0
491	669	7	10000	2	1	0	2	0
475	670	7	10000	2	1	0	2	0
463	671	7	10000	2	1	0	2	0
451	671	7	10000	2	1	0	2	0
437	672	7	10000	2	1	0	2	0
422	674	7	10000	2	1	0	2	0
406	675	7	10000	2	1	0	2	0
389	676	7	10000	2	1	0	2	0
370	677	7	10000	2	1	0	2	0
355	678	7	10000	2	1	0	2	0
345	679	7	10000	2	1	0	2	0
335	680	7	10000	2	1	0	2	0
324	681	7	10000	2	1	0	2	0
311	681	7	10000	2	1	0	2	0
298	682	7	10000	2	1	0	2	0
285	684	7	10000	2	1	0	2	0
273	685	7	10000	2	1	0	2	0
262	686	7	10000	2	1	0	2	0
253	687	7	10000	2	1	0	2	0
246	688	7	10000	2	1	0	2	0
239	689	7	10000	2	1	0	2	0
233	690	7	10000	2	1	0	2	0
227	691	7	10000	2	1	0	2	0
221	691	7	10000	2	1	0	2	0
213	692	7	10000	2	1	0	2	0
203	694	7	10000	2	1	0	2	0
198	695	7	10000	2	1	0	2	0
194	696	7	10000	2	1	0	2	0
193	697	7	10000	2	1	0	2	0
193	698	7	10000	2	1	0	2	0
194	699	7	10000	2	1	0	2	0
195	700	7	10000	2	1	0	2	0
196	701	7	10000	2	1	0	2	0
197	701	7	10000	2	1	0	2	0
196	702	7	10000	2	1	0	2	0
195	704	7	10000	2	1	0	2	0
192	705	7	10000	2	1	0	2	0
188	706	7	10000	2	1	0	2	0
183	707	7	10000	2	1	0	2	0
176	708	7	10000	2	1	0	2	0
168	709	7	10000	2	1	0	2	0
161	710	7	10000	2	1	0	2	0
155	711	7	10000	2	1	0	2	0
151	711	7	10000	2	1	0	2	0
146	712	7	10000	2	1	0	2	0
143	714	7	10000	2	1	0	2	0
143	715	7	10000	2	1	0	2	0
144	716	7	10000	2	1	0	2	0
148	717	7	10000	2	1	0	2	0
154	718	7	10000	2	1	0	2	0
162	719	7	10000	2	1	0	2	0
168	720	7	10000	2	1	0	2	0
173	721	7	10000	2	1	0	2	0
176	721	7	10000	2	1	0	2	0
178	722	7	10000	2	1	0	2	0
180	724	7	10000	2	1	0	2	0
178	725	7	10000	2	1	0	2	0
176	726	7	10000	2	1	0	2	0
173	727	7	10000	2	1	0	2	0
169	728	7	10000	2	1	0	2	0
161	729	7	10000	2	1	0	2	0
154	730	7	10000	2	1	0	2	0
148	731	7	10000	2	1	0	2	0
142	731	7	10000	2	1	0	2	0
138	732	7	10000	2	1	0	2	0
136	734	7	10000	2	1	0	2	0
136	735	7	10000	2	1	0	2	0
136	736	7	10000	2	1	0	2	0
137	737	7	10000	2	1	0	2	0
137	738	7	10000	2	1	0	2	0
139	739	7	10000	2	1	0	2	0
143	740	7	10000	2	1	0	2	0
144	741	7	10000	2	1	0	2	0
143	741	7	10000	2	1	0	2	0
142	742	7	10000	2	1	0	2	0
139	744	7	10000	2	1	0	2	0
133	745	7	10000	2	1	0	2	0
128	746	7	10000	2	1	0	2	0
124	747	7	10000	2	1	0	2	0
120	748	7	10000	2	1	0	2	0
117	749	7	10000	2	1	0	2	0
115	750	7	10000	2	1	0	2	0
114	751	7	10000	2	1	0	2	0
112	751	7	10000	2	1	0	2	0
109	752	7	10000	2	1	0	2	0
104	754	7	10000	2	1	0	2	0
102	755	7	10000	2	1	0	2	0
100	756	7	10000	2	1	0	2	0
98	757	7	10000	2	1	0	2	0
99	758	7	10000	2	1	0	2	0
100	759	7	10000	2	1	0	2	0
101	760	7	10000	2	1	0	2	0
102	761	7	10000	2	1	0	2	0
101	761	7	10000	2	1	0	2	0
101	762	7	10000	2	1	0	2	0
99	764	7	10000	2	1	0	2	0
95	765	7	10000	2	1	0	2	0
91	766	7	10000	2	1	0	2	0
88	767	7	10000	2	1	0	2	0
87	768	7	10000	2	1	0	2	0
84	769	7	10000	2	1	0	2	0
83	770	7	10000	2	1	0	2	0
83	771	7	10000	2	1	0	2	0
83	771	7	10000	2	1	0	2	0
82	772	7	10000	2	1	0	2	0
81	774	7	10000	2	1	0	2	0
82	775	7	10000	2	1	0	2	0
80	776	7	10000	2	1	0	2	0
77	777	7	10000	2	1	0	2	0
74	778	7	10000	2	1	0	2	0
74	779	7	10000	2	1	0	2	0
75	780	7	10000	2	1	0	2	0
75	781	7	10000	2	1	0	2	0
73	781	7	10000	2	1	0	2	0
70	782	7	10000	2	1	0	2	0
70	784	7	10000	2	1	0	2	0
67	785	7	10000	2	1	0	2	0
65	786	7	10000	2	1	0	2	0
66	787	7	10000	2	1	0	2	0
68	788	7	10000	2	1	0	2	0
68	789	7	10000	2	1	0	2	0
72	790	7	10000	2	1	0	2	0
75	791	7	10000	2	1	0	2	0
77	791	7	10000	2	1	0	2	0
79	792	7	10000	2	1	0	2	0
80	794	7	10000	2	1	0	2	0
79	795	7	10000	2	1	0	2	0
76	796	7	10000	2	1	0	2	0
73	797	7	10000	2	1	0	2	0
70	798	7	10000	2	1	0	2	0
70	799	7	10000	2	1	0	2	0
70	800	7	10000	2	1	0	2	0
69	801	7	10000	2	1	0	2	0
68	801	7	10000	2	1	0	2	0
66	802	7	10000	2	1	0	2	0
64	804	7	10000	2	1	0	2	0
61	805	7	10000	2	1	0	2	0
60	806	7	10000	2	1	0	2	0
62	807	7	10000	2	1	0	2	0
63	808	7	10000	2	1	0	2	0
62	809	7	10000	2	1	0	2	0
63	810	7	10000	2	1	0	2	0
63	811	7	10000	2	1	0	2	0
65	811	7	10000	2	1	0	2	0
66	812	7	10000	2	1	0	2	0
67	814	7	10000	2	1	0	2	0
67	815	7	10000	2	1	0	2	0
64	816	7	10000	2	1	0	2	0
62	817	7	10000	2	1	0	2	0
60	818	7	10000	2	1	0	2	0
61	819	7	10000	2	1	0	2	0
60	820	7	10000	2	1	0	2	0
60	821	7	10000	2	1	0	2	0
57	821	7	10000	2	1	0	2	0
55	822	7	10000	2	1	0	2	0
53	824	7	10000	2	1	0	2	0
52	825	7	10000	2	1	0	2	0
53	826	7	10000	2	1	0	2	0
54	827	7	10000	2	1	0	2	0
55	828	7	10000	2	1	0	2	0
56	829	7	10000	2	1	0	2	0
58	830	7	10000	2	1	0	2	0
62	831	7	10000	2	1	0	2	0
65	831	7	10000	2	1	0	2	0
66	832	7	10000	2	1	0	2	0
66	834	7	10000	2	1	0	2	0
65	835	7	10000	2	1	0	2	0
62	836	7	10000	2	1	0	2	0
60	837	7	10000	2	1	0	2	0
60	838	7	10000	2	1	0	2	0
62	839	7	10000	2	1	0	2	0
63	840	7	10000	2	1	0	2	0
62	841	7	10000	2	1	0	2	0
61	841	7	10000	2	1	0	2	0
59	842	7	10000	2	1	0	2	0
57	844	7	10000	2	1	0	2	0
56	845	7	10000	2	1	0	2	0
57	846	7	10000	2	1	0	2	0
59	847	7	10000	2	1	0	2	0
61	848	7	10000	2	1	0	2	0
63	849	7	10000	2	1	0	2	0
66	850	7	10000	2	1	0	2	0
68	851	7	10000	2	1	0	2	0
71	851	7	10000	2	1	0	2	0
73	852	7	10000	2	1	0	2	0
73	854	7	10000	2	1	0	2	0
71	855	7	10000	2	1	0	2	0
68	856	7	10000	2	1	0	2	0
65	857	7	10000	2	1	0	2	0
63	858	7	10000	2	1	0	2	0
65	859	7	10000	2	1	0	2	0
66	860	7	10000	2	1	0	2	0
68	861	7	10000	2	1	0	2	0
68	861	7	10000	2	1	0	2	0
68	862	7	10000	2	1	0	2	0
68	864	7	10000	2	1	0	2	0
65	865	7	10000	2	1	0	2	0
63	866	7	10000	2	1	0	2	0
62	867	7	10000	2	1	0	2	0
61	868	7	10000	2	1	0	2	0
60	869	7	10000	2	1	0	2	0
61	870	7	10000	2	1	0	2	0
62	871	7	10000	2	1	0	2	0
60	871	7	10000	2	1	0	2	0
59	872	7	10000	2	1	0	2	0
58	874	7	10000	2	1	0	2	0
57	875	7	10000	2	1	0	2	0
55	876	7	10000	2	1	0	2	0
54	877	7	10000	2	1	0	2	0
53	878	7	10000	2	1	0	2	0
54	879	7	10000	2	1	0	2	0
54	880	7	10000	2	1	0	2	0
53	881	7	10000	2	1	0	2	0
51	881	7	10000	2	1	0	2	0
49	882	7	10000	2	1	0	2	0
49	884	7	10000	2	1	0	2	0
49	885	7	10000	2	1	0	2	0
51	886	7	10000	2	1	0	2	0
53	887	7	10000	2	1	0	2	0
53	888	7	10000	2	1	0	2	0
53	889	7	10000	2	1	0	2	0
56	890	7	10000	2	1	0	2	0
58	891	7	10000	2	1	0	2	0
60	891	7	10000	2	1	0	2	0
62	892	7	10000	2	1	0	2	0
60	894	7	10000	2	1	0	2	0
57	895	7	10000	2	1	0	2	0
56	896	7	10000	2	1	0	2	0
55	897	7	10000	2	1	0	2	0
55	898	7	10000	2	1	0	2	0
58	899	7	10000	2	1	0	2	0
60	900	7	10000	2	1	0	2	0
62	901	7	10000	2	1	0	2	0
62	901	7	10000	2	1	0	2	0
63	902	7	10000	2	1	0	2	0
60	904	7	10000	2	1	0	2	0
57	905	7	10000	2	1	0	2	0
56	906	7	10000	2	1	0	2	0
54	907	7	10000	2	1	0	2	0
54	908	7	10000	2	1	0	2	0
52	909	7	10000	2	1	0	2	0
52	910	7	10000	2	1	0	2	0
53	911	7	10000	2	1	0	2	0
54	911	7	10000	2	1	0	2	0
55	912	7	10000	2	1	0	2	0
54	914	7	10000	2	1	0	2	0
53	915	7	10000	2	1	0	2	0
50	916	7	10000	2	1	0	2	0
48	917	7	10000	2	1	0	2	0
46	918	7	10000	2	1	0	2	0
47	919	7	10000	2	1	0	2	0
48	920	7	10000	2	1	0	2	0
48	921	7	10000	2	1	0	2	0
47	921	7	10000	2	1	0	2	0
46	922	7	10000	2	1	0	2	0
44	924	7	10000	2	1	0	2	0
43	925	7	10000	2	1	0	2	0
43	926	7	10000	2	1	0	2	0
42	927	7	10000	2	1	0	2	0
42	928	7	10000	2	1	0	2	0
41	929	7	10000	2	1	0	2	0
39	930	7	10000	2	1	0	2	0
38	931	7	10000	2	1	0	2	0
38	931	7	10000	2	1	0	2	0
38	932	7	10000	2	1	0	2	0
36	934	7	10000	2	1	0	2	0
35	935	7	10000	2	1	0	2	0
33	936	7	10000	2	1	0	2	0
31	937	7	10000	2	1	0	2	0
30	938	7	10000	2	1	0	2	0
32	939	7	10000	2	1	0	2	0
34	940	7	10000	2	1	0	2	0
36	941	7	10000	2	1	0	2	0
36	941	7	10000	2	1	0	2	0
35	942	7	10000	2	1	0	2	0
34	944	7	10000	2	1	0	2	0
34	945	7	10000	2	1	0	2	0
35	946	7	10000	2	1	0	2	0
35	947	7	10000	2	1	0	2	0
36	948	7	10000	2	1	0	2	0
34	949	7	10000	2	1	0	2	0
34	950	7	10000	2	1	0	2	0
34	951	7	10000	2	1	0	2	0
35	951	7	10000	2	1	0	2	0
36	952	7	10000	2	1	0	2	0
36	954	7	10000	2	1	0	2	0
34	955	7	10000	2	1	0	2	0
34	956	7	10000	2	1	0	2	0
33	957	7	10000	2	1	0	2	0
32	958	7	10000	2	1	0	2	0
34	959	7	10000	2	1	0	2	0
37	960	7	10000	2	1	0	2	0
39	961	7	10000	2	1	0	2	0
40	961	7	10000	2	1	0	2	0
40	962	7	10000	2	1	0	2	0
39	964	7	10000	2	1	0	2	0
37	965	7	10000	2	1	0	2	0
38	966	7	10000	2	1	0	2	0
40	967	7	10000	2	1	0	2	0
42	968	7	10000	2	1	0	2	0
44	969	7	10000	2	1	0	2	0
45	970	7	10000	2	1	0	2	0
49	971	7	10000	2	1	0	2	0
51	971	7	10000	2	1	0	2	0
52	972	7	10000	2	1	0	2	0
51	974	7	10000	2	1	0	2	0
49	975	7	10000	2	1	0	2	0
47	976	7	10000	2	1	0	2	0
44	977	7	10000	2	1	0	2	0
43	978	7	10000	2	1	0	2	0
42	979	7	10000	2	1	0	2	0
41	980	7	10000	2	1	0	2	0
39	981	7	10000	2	1	0	2	0
38	981	7	10000	2	1	0	2	0
37	982	7	10000	2	1	0	2	0
35	984	7	10000	2	1	0	2	0
34	985	7	10000	2	1	0	2	0
33	986	7	10000	2	1	0	2	0
32	987	7	10000	2	1	0	2	0
32	988	7	10000	2	1	0	2	0
31	989	7	10000	2	1	0	2	0
31	990	7	10000	2	1	0	2	0
32	991	7	10000	2	1	0	2	0
33	991	7	10000	2	1	0	2	0
34	992	7	10000	2	1	0	2	0
32	994	7	10000	2	1	0	2	0
31	995	7	10000	2	1	0	2	0
31	996	7	10000	2	1	0	2	0
31	997	7	10000	2	1	0	2	0
31	998	7	10000	2	1	0	2	0
33	999	7	10000	2	1	0	2	0
34	1000	7	10000	2	1	0	2	0
35	1001	7	10000	2	1	0	2	0
14	6	7	10000	3	1	0	3	0
15	7	7	10000	3	1	0	3	0
15	8	7	10000	3	1	0	3	0
15	9	7	10000	3	1	0	3	0
15	10	7	10000	3	1	0	3	0
16	11	7	10000	3	1	0	3	0
17	13	7	10000	3	1	0	3	0
17	14	7	10000	3	1	0	3	0
19	15	7	10000	3	1	0	3	0
20	16	7	10000	3	1	0	3	0
20	17	7	10000	3	1	0	3	0
18	18	7	10000	3	1	0	3	0
19	19	7	10000	3	1	0	3	0
18	20	7	10000	3	1	0	3	0
17	24	7	10000	3	1	0	3	0
17	25	7	10000	3	1	0	3	0
17	26	7	10000	3	1	0	3	0
18	27	7	10000	3	1	0	3	0
17	28	7	10000	3	1	0	3	0
16	29	7	10000	3	1	0	3	0
15	30	7	10000	3	1	0	3	0
15	31	7	10000	3	1	0	3	0
15	32	7	10000	3	1	0	3	0
15	33	7	10000	3	1	0	3	0
16	29	7	10000	3	1	0	3	0
18	30	7	10000	3	1	0	3	0
17	31	7	10000	3	1	0	3	0
16	32	7	10000	3	1	0	3	0
16	33	7	10000	3	1	0	3	0
16	34	7	10000	3	1	0	3	0
16	34	7	10000	3	1	0	3	0
16	35	7	10000	3	1	0	3	0
17	36	7	10000	3	1	0	3	0
18	37	7	10000	3	1	0	3	0
19	39	7	10000	3	1	0	3	0
19	40	7	10000	3	1	0	3	0
18	41	7	10000	3	1	0	3	0
20	42	7	10000	3	1	0	3	0
19	43	7	10000	3	1	0	3	0
18	44	7	10000	3	1	0	3	0
17	45	7	10000	3	1	0	3	0
16	46	7	10000	3	1	0	3	0
16	47	7	10000	3	1	0	3	0
16	48	7	10000	3	1	0	3	0
16	49	7	10000	3	1	0	3	0
16	50	7	10000	3	1	0	3	0
15	50	7	10000	3	1	0	3	0
14	51	7	10000	3	1	0	3	0
14	52	7	10000	3	1	0	3	0
13	53	7	10000	3	1	0	3	0
14	56	7	10000	3	1	0	3	0
13	57	7	10000	3	1	0	3	0
13	58	7	10000	3	1	0	3	0
14	59	7	10000	3	1	0	3	0
15	60	7	10000	3	1	0	3	0
16	61	7	10000	3	1	0	3	0
16	60	7	10000	3	1	0	3	0
19	61	7	10000	3	1	0	3	0
19	62	7	10000	3	1	0	3	0
17	63	7	10000	3	1	0	3	0
17	64	7	10000	3	1	0	3	0
17	65	7	10000	3	1	0	3	0
16	67	7	10000	3	1	0	3	0
16	68	7	10000	3	1	0	3	0
16	69	7	10000	3	1	0	3	0
16	70	7	10000	3	1	0	3	0
14	71	7	10000	3	1	0	3	0
12	72	7	10000	3	1	0	3	0
12	72	7	10000	3	1	0	3	0
12	73	7	10000	3	1	0	3	0
13	74	7	10000	3	1	0	3	0
13	75	7	10000	3	1	0	3	0
13	78	7	10000	3	1	0	3	0
13	79	7	10000	3	1	0	3	0
11	80	7	10000	3	1	0	3	0
12	81	7	10000	3	1	0	3	0
14	82	7	10000	3	1	0	3	0
16	83	7	10000	3	1	0	3	0
16	83	7	10000	3	1	0	3	0
15	84	7	10000	3	1	0	3	0
14	85	7	10000	3	1	0	3	0
15	86	7	10000	3	1	0	3	0
14	87	7	10000	3	1	0	3	0
14	88	7	10000	3	1	0	3	0
14	89	7	10000	3	1	0	3	0
14	90	7	10000	3	1	0	3	0
13	91	7	10000	3	1	0	3	0
12	92	7	10000	3	1	0	3	0
12	93	7	10000	3	1	0	3	0
12	94	7	10000	3	1	0	3	0
14	93	7	10000	3	1	0	3	0
14	94	7	10000	3	1	0	3	0
13	95	7	10000	3	1	0	3	0
13	96	7	10000	3	1	0	3	0
12	98	7	10000	3	1	0	3	0
11	99	7	10000	3	1	0	3	0
11	100	7	10000	3	1	0	3	0
13	101	7	10000	3	1	0	3	0
13	102	7	10000	3	1	0	3	0
13	103	7	10000	3	1	0	3	0
13	105	7	10000	3	1	0	3	0
14	106	7	10000	3	1	0	3	0
13	107	7	10000	3	1	0	3	0
13	108	7	10000	3	1	0	3	0
14	109	7	10000	3	1	0	3	0
13	110	7	10000	3	1	0	3	0
13	109	7	10000	3	1	0	3	0
11	110	7	10000	3	1	0	3	0
12	111	7	10000	3	1	0	3	0
13	112	7	10000	3	1	0	3	0
13	110	7	10000	3	1	0	3	0
14	111	7	10000	3	1	0	3	0
15	113	7	10000	3	1	0	3	0
15	114	7	10000	3	1	0	3	0
14	115	7	10000	3	1	0	3	0
15	116	7	10000	3	1	0	3	0
15	117	7	10000	3	1	0	3	0
16	118	7	10000	3	1	0	3	0
16	119	7	10000	3	1	0	3	0
16	120	7	10000	3	1	0	3	0
17	121	7	10000	3	1	0	3	0
18	122	7	10000	3	1	0	3	0
17	123	7	10000	3	1	0	3	0
18	124	7	10000	3	1	0	3	0
20	125	7	10000	3	1	0	3	0
20	126	7	10000	3	1	0	3	0
20	127	7	10000	3	1	0	3	0
19	128	7	10000	3	1	0	3	0
20	129	7	10000	3	1	0	3	0
20	130	7	10000	3	1	0	3	0
21	131	7	10000	3	1	0	3	0
21	132	7	10000	3	1	0	3	0
21	133	7	10000	3	1	0	3	0
21	134	7	10000	3	1	0	3	0
19	135	7	10000	3	1	0	3	0
19	136	7	10000	3	1	0	3	0
19	137	7	10000	3	1	0	3	0
20	138	7	10000	3	1	0	3	0
19	139	7	10000	3	1	0	3	0
19	140	7	10000	3	1	0	3	0
18	141	7	10000	3	1	0	3	0
18	142	7	10000	3	1	0	3	0
17	143	7	10000	3	1	0	3	0
16	144	7	10000	3	1	0	3	0
17	145	7	10000	3	1	0	3	0
17	146	7	10000	3	1	0	3	0
17	147	7	10000	3	1	0	3	0
15	148	7	10000	3	1	0	3	0
14	149	7	10000	3	1	0	3	0
14	150	7	10000	3	1	0	3	0
14	151	7	10000	3	1	0	3	0
14	152	7	10000	3	1	0	3	0
15	153	7	10000	3	1	0	3	0
15	154	7	10000	3	1	0	3	0
14	155	7	10000	3	1	0	3	0
14	156	7	10000	3	1	0	3	0
14	157	7	10000	3	1	0	3	0
15	158	7	10000	3	1	0	3	0
14	159	7	10000	3	1	0	3	0
14	160	7	10000	3	1	0	3	0
13	161	7	10000	3	1	0	3	0
13	162	7	10000	3	1	0	3	0
12	163	7	10000	3	1	0	3	0
11	164	7	10000	3	1	0	3	0
12	165	7	10000	3	1	0	3	0
12	166	7	10000	3	1	0	3	0
12	167	7	10000	3	1	0	3	0
13	168	7	10000	3	1	0	3	0
12	169	7	10000	3	1	0	3	0
12	170	7	10000	3	1	0	3	0
12	171	7	10000	3	1	0	3	0
12	172	7	10000	3	1	0	3	0
11	173	7	10000	3	1	0	3	0
11	174	7	10000	3	1	0	3	0
11	175	7	10000	3	1	0	3	0
9	176	7	10000	3	1	0	3	0
10	177	7	10000	3	1	0	3	0
13	178	7	10000	3	1	0	3	0
13	179	7	10000	3	1	0	3	0
15	180	7	10000	3	1	0	3	0
15	181	7	10000	3	1	0	3	0
15	182	7	10000	3	1	0	3	0
14	183	7	10000	3	1	0	3	0
14	184	7	10000	3	1	0	3	0
14	185	7	10000	3	1	0	3	0
14	186	7	10000	3	1	0	3	0
14	187	7	10000	3	1	0	3	0
14	188	7	10000	3	1	0	3	0
14	189	7	10000	3	1	0	3	0
14	190	7	10000	3	1	0	3	0
15	191	7	10000	3	1	0	3	0
14	192	7	10000	3	1	0	3	0
13	193	7	10000	3	1	0	3	0
13	194	7	10000	3	1	0	3	0
12	195	7	10000	3	1	0	3	0
12	196	7	10000	3	1	0	3	0
13	197	7	10000	3	1	0	3	0
13	198	7	10000	3	1	0	3	0
13	199	7	10000	3	1	0	3	0
14	200	7	10000	3	1	0	3	0
15	201	7	10000	3	1	0	3	0
15	202	7	10000	3	1	0	3	0
14	203	7	10000	3	1	0	3	0
13	204	7	10000	3	1	0	3	0
14	205	7	10000	3	1	0	3	0
15	206	7	10000	3	1	0	3	0
14	207	7	10000	3	1	0	3	0
13	208	7	10000	3	1	0	3	0
14	209	7	10000	3	1	0	3	0
15	210	7	10000	3	1	0	3	0
16	211	7	10000	3	1	0	3	0
15	212	7	10000	3	1	0	3	0
15	213	7	10000	3	1	0	3	0
16	214	7	10000	3	1	0	3	0
15	215	7	10000	3	1	0	3	0
15	216	7	10000	3	1	0	3	0
16	217	7	10000	3	1	0	3	0
17	218	7	10000	3	1	0	3	0
18	219	7	10000	3	1	0	3	0
19	220	7	10000	3	1	0	3	0
19	221	7	10000	3	1	0	3	0
20	222	7	10000	3	1	0	3	0
20	223	7	10000	3	1	0	3	0
20	224	7	10000	3	1	0	3	0
20	225	7	10000	3	1	0	3	0
21	226	7	10000	3	1	0	3	0
20	227	7	10000	3	1	0	3	0
19	228	7	10000	3	1	0	3	0
19	229	7	10000	3	1	0	3	0
20	230	7	10000	3	1	0	3	0
21	231	7	10000	3	1	0	3	0
20	232	7	10000	3	1	0	3	0
20	233	7	10000	3	1	0	3	0
20	234	7	10000	3	1	0	3	0
19	235	7	10000	3	1	0	3	0
17	236	7	10000	3	1	0	3	0
18	237	7	10000	3	1	0	3	0
19	238	7	10000	3	1	0	3	0
18	239	7	10000	3	1	0	3	0
17	240	7	10000	3	1	0	3	0
16	241	7	10000	3	1	0	3	0
15	242	7	10000	3	1	0	3	0
15	243	7	10000	3	1	0	3	0
14	244	7	10000	3	1	0	3	0
15	245	7	10000	3	1	0	3	0
15	246	7	10000	3	1	0	3	0
15	247	7	10000	3	1	0	3	0
14	248	7	10000	3	1	0	3	0
14	249	7	10000	3	1	0	3	0
13	250	7	10000	3	1	0	3	0
13	251	7	10000	3	1	0	3	0
13	252	7	10000	3	1	0	3	0
13	253	7	10000	3	1	0	3	0
13	254	7	10000	3	1	0	3	0
13	255	7	10000	3	1	0	3	0
12	256	7	10000	3	1	0	3	0
13	257	7	10000	3	1	0	3	0
13	258	7	10000	3	1	0	3	0
12	259	7	10000	3	1	0	3	0
12	260	7	10000	3	1	0	3	0
12	261	7	10000	3	1	0	3	0
11	262	7	10000	3	1	0	3	0
11	263	7	10000	3	1	0	3	0
12	264	7	10000	3	1	0	3	0
17	265	7	10000	3	1	0	3	0
20	266	7	10000	3	1	0	3	0
21	267	7	10000	3	1	0	3	0
20	268	7	10000	3	1	0	3	0
20	269	7	10000	3	1	0	3	0
22	270	7	10000	3	1	0	3	0
30	271	7	10000	3	1	0	3	0
47	272	7	10000	3	1	0	3	0
71	273	7	10000	3	1	0	3	0
81	274	7	10000	3	1	0	3	0
85	275	7	10000	3	1	0	3	0
91	276	7	10000	3	1	0	3	0
92	277	7	10000	3	1	0	3	0
94	278	7	10000	3	1	0	3	0
110	279	7	10000	3	1	0	3	0
118	280	7	10000	3	1	0	3	0
115	281	7	10000	3	1	0	3	0
119	282	7	10000	3	1	0	3	0
123	283	7	10000	3	1	0	3	0
121	284	7	10000	3	1	0	3	0
122	285	7	10000	3	1	0	3	0
138	286	7	10000	3	1	0	3	0
156	287	7	10000	3	1	0	3	0
154	288	7	10000	3	1	0	3	0
153	289	7	10000	3	1	0	3	0
174	290	7	10000	3	1	0	3	0
206	291	7	10000	3	1	0	3	0
242	292	7	10000	3	1	0	3	0
278	293	7	10000	3	1	0	3	0
285	294	7	10000	3	1	0	3	0
277	295	7	10000	3	1	0	3	0
269	296	7	10000	3	1	0	3	0
267	297	7	10000	3	1	0	3	0
297	298	7	10000	3	1	0	3	0
297	299	7	10000	3	1	0	3	0
298	300	7	10000	3	1	0	3	0
300	301	7	10000	3	1	0	3	0
292	302	7	10000	3	1	0	3	0
287	303	7	10000	3	1	0	3	0
282	304	7	10000	3	1	0	3	0
283	305	7	10000	3	1	0	3	0
323	306	7	10000	3	1	0	3	0
324	307	7	10000	3	1	0	3	0
340	308	7	10000	3	1	0	3	0
385	309	7	10000	3	1	0	3	0
412	310	7	10000	3	1	0	3	0
415	311	7	10000	3	1	0	3	0
415	312	7	10000	3	1	0	3	0
407	313	7	10000	3	1	0	3	0
389	314	7	10000	3	1	0	3	0
377	315	7	10000	3	1	0	3	0
371	316	7	10000	3	1	0	3	0
361	317	7	10000	3	1	0	3	0
351	318	7	10000	3	1	0	3	0
343	319	7	10000	3	1	0	3	0
341	320	7	10000	3	1	0	3	0
333	321	7	10000	3	1	0	3	0
320	322	7	10000	3	1	0	3	0
311	323	7	10000	3	1	0	3	0
302	324	7	10000	3	1	0	3	0
297	325	7	10000	3	1	0	3	0
289	326	7	10000	3	1	0	3	0
277	327	7	10000	3	1	0	3	0
268	328	7	10000	3	1	0	3	0
264	329	7	10000	3	1	0	3	0
262	330	7	10000	3	1	0	3	0
262	331	7	10000	3	1	0	3	0
263	332	7	10000	3	1	0	3	0
263	333	7	10000	3	1	0	3	0
263	334	7	10000	3	1	0	3	0
264	335	7	10000	3	1	0	3	0
262	336	7	10000	3	1	0	3	0
258	337	7	10000	3	1	0	3	0
257	338	7	10000	3	1	0	3	0
254	339	7	10000	3	1	0	3	0
253	340	7	10000	3	1	0	3	0
246	341	7	10000	3	1	0	3	0
237	342	7	10000	3	1	0	3	0
228	343	7	10000	3	1	0	3	0
219	344	7	10000	3	1	0	3	0
211	345	7	10000	3	1	0	3	0
204	346	7	10000	3	1	0	3	0
195	347	7	10000	3	1	0	3	0
185	348	7	10000	3	1	0	3	0
177	349	7	10000	3	1	0	3	0
169	350	7	10000	3	1	0	3	0
162	351	7	10000	3	1	0	3	0
155	352	7	10000	3	1	0	3	0
149	353	7	10000	3	1	0	3	0
144	354	7	10000	3	1	0	3	0
140	355	7	10000	3	1	0	3	0
136	356	7	10000	3	1	0	3	0
136	357	7	10000	3	1	0	3	0
139	358	7	10000	3	1	0	3	0
140	359	7	10000	3	1	0	3	0
142	360	7	10000	3	1	0	3	0
143	361	7	10000	3	1	0	3	0
146	362	7	10000	3	1	0	3	0
151	363	7	10000	3	1	0	3	0
152	364	7	10000	3	1	0	3	0
154	365	7	10000	3	1	0	3	0
155	366	7	10000	3	1	0	3	0
151	367	7	10000	3	1	0	3	0
144	368	7	10000	3	1	0	3	0
138	369	7	10000	3	1	0	3	0
133	370	7	10000	3	1	0	3	0
130	371	7	10000	3	1	0	3	0
127	372	7	10000	3	1	0	3	0
126	373	7	10000	3	1	0	3	0
127	374	7	10000	3	1	0	3	0
127	375	7	10000	3	1	0	3	0
126	376	7	10000	3	1	0	3	0
127	377	7	10000	3	1	0	3	0
129	378	7	10000	3	1	0	3	0
128	379	7	10000	3	1	0	3	0
127	380	7	10000	3	1	0	3	0
126	381	7	10000	3	1	0	3	0
124	382	7	10000	3	1	0	3	0
122	383	7	10000	3	1	0	3	0
118	384	7	10000	3	1	0	3	0
114	385	7	10000	3	1	0	3	0
113	386	7	10000	3	1	0	3	0
106	387	7	10000	3	1	0	3	0
101	388	7	10000	3	1	0	3	0
99	389	7	10000	3	1	0	3	0
96	390	7	10000	3	1	0	3	0
95	391	7	10000	3	1	0	3	0
93	392	7	10000	3	1	0	3	0
91	393	7	10000	3	1	0	3	0
89	394	7	10000	3	1	0	3	0
86	395	7	10000	3	1	0	3	0
84	396	7	10000	3	1	0	3	0
83	397	7	10000	3	1	0	3	0
83	398	7	10000	3	1	0	3	0
81	399	7	10000	3	1	0	3	0
79	400	7	10000	3	1	0	3	0
77	401	7	10000	3	1	0	3	0
75	402	7	10000	3	1	0	3	0
72	403	7	10000	3	1	0	3	0
70	404	7	10000	3	1	0	3	0
70	405	7	10000	3	1	0	3	0
71	406	7	10000	3	1	0	3	0
69	407	7	10000	3	1	0	3	0
68	408	7	10000	3	1	0	3	0
70	409	7	10000	3	1	0	3	0
69	410	7	10000	3	1	0	3	0
69	411	7	10000	3	1	0	3	0
70	412	7	10000	3	1	0	3	0
71	413	7	10000	3	1	0	3	0
72	414	7	10000	3	1	0	3	0
73	415	7	10000	3	1	0	3	0
73	416	7	10000	3	1	0	3	0
74	417	7	10000	3	1	0	3	0
74	418	7	10000	3	1	0	3	0
73	419	7	10000	3	1	0	3	0
71	420	7	10000	3	1	0	3	0
69	421	7	10000	3	1	0	3	0
67	422	7	10000	3	1	0	3	0
65	423	7	10000	3	1	0	3	0
64	424	7	10000	3	1	0	3	0
63	425	7	10000	3	1	0	3	0
62	426	7	10000	3	1	0	3	0
62	427	7	10000	3	1	0	3	0
60	428	7	10000	3	1	0	3	0
61	429	7	10000	3	1	0	3	0
61	430	7	10000	3	1	0	3	0
62	431	7	10000	3	1	0	3	0
64	432	7	10000	3	1	0	3	0
63	433	7	10000	3	1	0	3	0
62	434	7	10000	3	1	0	3	0
60	435	7	10000	3	1	0	3	0
58	436	7	10000	3	1	0	3	0
56	437	7	10000	3	1	0	3	0
56	438	7	10000	3	1	0	3	0
55	439	7	10000	3	1	0	3	0
52	440	7	10000	3	1	0	3	0
51	441	7	10000	3	1	0	3	0
50	442	7	10000	3	1	0	3	0
49	443	7	10000	3	1	0	3	0
47	444	7	10000	3	1	0	3	0
46	445	7	10000	3	1	0	3	0
44	446	7	10000	3	1	0	3	0
42	447	7	10000	3	1	0	3	0
40	448	7	10000	3	1	0	3	0
38	449	7	10000	3	1	0	3	0
37	450	7	10000	3	1	0	3	0
36	451	7	10000	3	1	0	3	0
36	452	7	10000	3	1	0	3	0
35	453	7	10000	3	1	0	3	0
34	454	7	10000	3	1	0	3	0
33	455	7	10000	3	1	0	3	0
31	456	7	10000	3	1	0	3	0
31	457	7	10000	3	1	0	3	0
34	458	7	10000	3	1	0	3	0
34	459	7	10000	3	1	0	3	0
33	460	7	10000	3	1	0	3	0
32	461	7	10000	3	1	0	3	0
32	462	7	10000	3	1	0	3	0
31	463	7	10000	3	1	0	3	0
31	464	7	10000	3	1	0	3	0
31	465	7	10000	3	1	0	3	0
31	466	7	10000	3	1	0	3	0
30	467	7	10000	3	1	0	3	0
27	468	7	10000	3	1	0	3	0
27	469	7	10000	3	1	0	3	0
26	470	7	10000	3	1	0	3	0
25	471	7	10000	3	1	0	3	0
25	472	7	10000	3	1	0	3	0
24	473	7	10000	3	1	0	3	0
24	474	7	10000	3	1	0	3	0
23	475	7	10000	3	1	0	3	0
23	476	7	10000	3	1	0	3	0
25	477	7	10000	3	1	0	3	0
28	478	7	10000	3	1	0	3	0
28	479	7	10000	3	1	0	3	0
28	480	7	10000	3	1	0	3	0
29	481	7	10000	3	1	0	3	0
31	482	7	10000	3	1	0	3	0
34	483	7	10000	3	1	0	3	0
36	484	7	10000	3	1	0	3	0
36	485	7	10000	3	1	0	3	0
35	486	7	10000	3	1	0	3	0
33	487	7	10000	3	1	0	3	0
31	488	7	10000	3	1	0	3	0
30	489	7	10000	3	1	0	3	0
30	490	7	10000	3	1	0	3	0
29	491	7	10000	3	1	0	3	0
28	492	7	10000	3	1	0	3	0
27	493	7	10000	3	1	0	3	0
27	494	7	10000	3	1	0	3	0
27	495	7	10000	3	1	0	3	1
26	496	7	10000	3	1	0	3	1
26	497	7	10000	3	1	0	3	1
27	498	7	10000	3	1	0	3	1
25	499	7	10000	3	1	0	3	1
24	500	7	10000	3	1	0	3	1
23	501	7	10000	3	1	0	3	1
23	502	7	10000	3	1	0	3	1
22	503	7	10000	3	1	0	3	1
22	504	7	10000	3	1	0	3	1
22	505	7	10000	3	1	0	3	1
22	506	7	10000	3	1	0	3	1
21	507	7	10000	3	1	0	3	1
20	508	7	10000	3	1	0	3	1
20	509	7	10000	3	1	0	3	1
22	510	7	10000	3	1	0	3	1
22	511	7	10000	3	1	0	3	1
23	512	7	10000	3	1	0	3	1
24	513	7	10000	3	1	0	3	1
24	514	7	10000	3	1	0	3	1
25	515	7	10000	3	1	0	3	1
24	516	7	10000	3	1	0	3	1
24	517	7	10000	3	1	0	3	1
26	518	7	10000	3	1	0	3	1
24	519	7	10000	3	1	0	3	1
23	520	7	10000	3	1	0	3	1
23	521	7	10000	3	1	0	3	1
23	522	7	10000	3	1	0	3	1
23	523	7	10000	3	1	0	3	1
21	524	7	10000	3	1	0	3	1
22	525	7	10000	3	1	0	3	1
23	526	7	10000	3	1	0	3	1
23	527	7	10000	3	1	0	3	1
21	528	7	10000	3	1	0	3	1
21	529	7	10000	3	1	0	3	1
21	530	7	10000	3	1	0	3	1
21	531	7	10000	3	1	0	3	1
20	532	7	10000	3	1	0	3	1
20	533	7	10000	3	1	0	3	1
20	534	7	10000	3	1	0	3	1
19	535	7	10000	3	1	0	3	1
18	536	7	10000	3	1	0	3	1
20	537	7	10000	3	1	0	3	1
24	538	7	10000	3	1	0	3	1
24	539	7	10000	3	1	0	3	1
24	540	7	10000	3	1	0	3	1
23	541	7	10000	3	1	0	3	1
22	542	7	10000	3	1	0	3	1
24	543	7	10000	3	1	0	3	1
26	544	7	10000	3	1	0	3	1
28	545	7	10000	3	1	0	3	0
29	546	7	10000	3	1	0	3	0
28	547	7	10000	3	1	0	3	0
26	548	7	10000	3	1	0	3	0
26	549	7	10000	3	1	0	3	0
26	550	7	10000	3	1	0	3	0
25	551	7	10000	3	1	0	3	0
24	552	7	10000	3	1	0	3	0
23	553	7	10000	3	1	0	3	0
23	554	7	10000	3	1	0	3	0
22	555	7	10000	3	1	0	3	0
21	556	7	10000	3	1	0	3	0
20	557	7	10000	3	1	0	3	0
22	558	7	10000	3	1	0	3	0
20	559	7	10000	3	1	0	3	0
19	560	7	10000	3	1	0	3	0
20	561	7	10000	3	1	0	3	0
19	562	7	10000	3	1	0	3	0
18	563	7	10000	3	1	0	3	0
18	564	7	10000	3	1	0	3	0
17	565	7	10000	3	1	0	3	0
18	566	7	10000	3	1	0	3	0
16	567	7	10000	3	1	0	3	0
15	568	7	10000	3	1	0	3	0
14	569	7	10000	3	1	0	3	0
15	570	7	10000	3	1	0	3	0
14	571	7	10000	3	1	0	3	0
14	572	7	10000	3	1	0	3	0
15	573	7	10000	3	1	0	3	0
17	574	7	10000	3	1	0	3	0
17	575	7	10000	3	1	0	3	0
17	576	7	10000	3	1	0	3	0
18	577	7	10000	3	1	0	3	0
20	578	7	10000	3	1	0	3	0
20	579	7	10000	3	1	0	3	0
20	580	7	10000	3	1	0	3	0
29	581	7	10000	3	1	0	3	0
34	582	7	10000	3	1	0	3	0
35	583	7	10000	3	1	0	3	0
36	584	7	10000	3	1	0	3	0
40	585	7	10000	3	1	0	3	0
45	586	7	10000	3	1	0	3	0
57	587	7	10000	3	1	0	3	0
64	588	7	10000	3	1	0	3	0
84	589	7	10000	3	1	0	3	0
107	590	7	10000	3	1	0	3	0
116	591	7	10000	3	1	0	3	0
119	592	7	10000	3	1	0	3	0
120	593	7	10000	3	1	0	3	0
117	594	7	10000	3	1	0	3	0
120	595	7	10000	3	1	0	3	0
127	596	7	10000	3	1	0	3	0
126	597	7	10000	3	1	0	3	0
126	598	7	10000	3	1	0	3	0
124	599	7	10000	3	1	0	3	0
128	600	7	10000	3	1	0	3	0
134	601	7	10000	3	1	0	3	0
137	602	7	10000	3	1	0	3	0
206	603	7	10000	3	1	0	3	0
287	604	7	10000	3	1	0	3	0
304	605	7	10000	3	1	0	3	0
302	606	7	10000	3	1	0	3	0
298	607	7	10000	3	1	0	3	0
336	608	7	10000	3	1	0	3	0
390	609	7	10000	3	1	0	3	0
435	610	7	10000	3	1	0	3	0
485	611	7	10000	3	1	0	3	0
536	612	7	10000	3	1	0	3	0
548	613	7	10000	3	1	0	3	0
543	614	7	10000	3	1	0	3	0
524	615	7	10000	3	1	0	3	0
516	616	7	10000	3	1	0	3	0
525	617	7	10000	3	1	0	3	0
549	618	7	10000	3	1	0	3	0
578	619	7	10000	3	1	0	3	0
610	620	7	10000	3	1	0	3	0
600	621	7	10000	3	1	0	3	0
596	622	7	10000	3	1	0	3	0
579	623	7	10000	3	1	0	3	0
563	624	7	10000	3	1	0	3	0
569	625	7	10000	3	1	0	3	0
557	626	7	10000	3	1	0	3	0
554	627	7	10000	3	1	0	3	0
530	628	7	10000	3	1	0	3	0
510	629	7	10000	3	1	0	3	0
502	630	7	10000	3	1	0	3	0
494	631	7	10000	3	1	0	3	0
475	632	7	10000	3	1	0	3	0
462	633	7	10000	3	1	0	3	0
450	634	7	10000	3	1	0	3	0
439	635	7	10000	3	1	0	3	0
428	636	7	10000	3	1	0	3	0
418	637	7	10000	3	1	0	3	0
411	638	7	10000	3	1	0	3	0
403	639	7	10000	3	1	0	3	0
394	640	7	10000	3	1	0	3	0
386	641	7	10000	3	1	0	3	0
379	642	7	10000	3	1	0	3	0
371	643	7	10000	3	1	0	3	0
364	644	7	10000	3	1	0	3	0
356	645	7	10000	3	1	0	3	0
348	646	7	10000	3	1	0	3	0
342	647	7	10000	3	1	0	3	0
334	648	7	10000	3	1	0	3	0
328	649	7	10000	3	1	0	3	0
324	650	7	10000	3	1	0	3	0
318	651	7	10000	3	1	0	3	0
313	652	7	10000	3	1	0	3	0
307	653	7	10000	3	1	0	3	0
301	654	7	10000	3	1	0	3	0
292	655	7	10000	3	1	0	3	0
283	656	7	10000	3	1	0	3	0
274	657	7	10000	3	1	0	3	0
264	658	7	10000	3	1	0	3	0
252	659	7	10000	3	1	0	3	0
244	660	7	10000	3	1	0	3	0
236	661	7	10000	3	1	0	3	0
229	662	7	10000	3	1	0	3	0
223	663	7	10000	3	1	0	3	0
217	664	7	10000	3	1	0	3	0
213	665	7	10000	3	1	0	3	0
208	666	7	10000	3	1	0	3	0
201	667	7	10000	3	1	0	3	0
192	668	7	10000	3	1	0	3	0
186	669	7	10000	3	1	0	3	0
179	670	7	10000	3	1	0	3	0
170	671	7	10000	3	1	0	3	0
163	672	7	10000	3	1	0	3	0
156	673	7	10000	3	1	0	3	0
150	674	7	10000	3	1	0	3	0
144	675	7	10000	3	1	0	3	0
137	676	7	10000	3	1	0	3	0
132	677	7	10000	3	1	0	3	0
127	678	7	10000	3	1	0	3	0
121	679	7	10000	3	1	0	3	0
116	680	7	10000	3	1	0	3	0
111	681	7	10000	3	1	0	3	0
107	682	7	10000	3	1	0	3	0
103	683	7	10000	3	1	0	3	0
100	684	7	10000	3	1	0	3	0
95	685	7	10000	3	1	0	3	0
92	686	7	10000	3	1	0	3	0
88	687	7	10000	3	1	0	3	0
85	688	7	10000	3	1	0	3	0
86	689	7	10000	3	1	0	3	0
88	690	7	10000	3	1	0	3	0
89	691	7	10000	3	1	0	3	0
92	692	7	10000	3	1	0	3	0
96	693	7	10000	3	1	0	3	0
99	694	7	10000	3	1	0	3	0
101	695	7	10000	3	1	0	3	0
103	696	7	10000	3	1	0	3	0
105	697	7	10000	3	1	0	3	0
106	698	7	10000	3	1	0	3	0
105	699	7	10000	3	1	0	3	0
103	700	7	10000	3	1	0	3	0
101	701	7	10000	3	1	0	3	0
99	702	7	10000	3	1	0	3	0
96	703	7	10000	3	1	0	3	0
92	704	7	10000	3	1	0	3	0
90	705	7	10000	3	1	0	3	0
89	706	7	10000	3	1	0	3	0
87	707	7	10000	3	1	0	3	0
84	708	7	10000	3	1	0	3	0
85	709	7	10000	3	1	0	3	0
87	710	7	10000	3	1	0	3	0
88	711	7	10000	3	1	0	3	0
91	712	7	10000	3	1	0	3	0
93	713	7	10000	3	1	0	3	0
94	714	7	10000	3	1	0	3	0
94	715	7	10000	3	1	0	3	0
93	716	7	10000	3	1	0	3	0
92	717	7	10000	3	1	0	3	0
92	718	7	10000	3	1	0	3	0
89	719	7	10000	3	1	0	3	0
86	720	7	10000	3	1	0	3	0
83	721	7	10000	3	1	0	3	0
80	722	7	10000	3	1	0	3	0
75	723	7	10000	3	1	0	3	0
72	724	7	10000	3	1	0	3	0
70	725	7	10000	3	1	0	3	0
69	726	7	10000	3	1	0	3	0
67	727	7	10000	3	1	0	3	0
64	728	7	10000	3	1	0	3	0
63	729	7	10000	3	1	0	3	0
62	730	7	10000	3	1	0	3	0
63	731	7	10000	3	1	0	3	0
64	732	7	10000	3	1	0	3	0
64	733	7	10000	3	1	0	3	0
65	734	7	10000	3	1	0	3	0
65	735	7	10000	3	1	0	3	0
64	736	7	10000	3	1	0	3	0
62	737	7	10000	3	1	0	3	0
60	738	7	10000	3	1	0	3	0
57	739	7	10000	3	1	0	3	0
55	740	7	10000	3	1	0	3	0
54	741	7	10000	3	1	0	3	0
55	742	7	10000	3	1	0	3	0
56	743	7	10000	3	1	0	3	0
56	744	7	10000	3	1	0	3	0
56	745	7	10000	3	1	0	3	0
56	746	7	10000	3	1	0	3	0
54	747	7	10000	3	1	0	3	0
51	748	7	10000	3	1	0	3	0
49	749	7	10000	3	1	0	3	0
47	750	7	10000	3	1	0	3	0
47	751	7	10000	3	1	0	3	0
45	752	7	10000	3	1	0	3	0
44	753	7	10000	3	1	0	3	0
44	754	7	10000	3	1	0	3	0
43	755	7	10000	3	1	0	3	0
43	756	7	10000	3	1	0	3	0
43	757	7	10000	3	1	0	3	0
46	758	7	10000	3	1	0	3	0
47	759	7	10000	3	1	0	3	0
48	760	7	10000	3	1	0	3	0
50	761	7	10000	3	1	0	3	0
53	762	7	10000	3	1	0	3	0
55	763	7	10000	3	1	0	3	0
57	764	7	10000	3	1	0	3	0
59	765	7	10000	3	1	0	3	0
60	766	7	10000	3	1	0	3	0
59	767	7	10000	3	1	0	3	0
56	768	7	10000	3	1	0	3	0
55	769	7	10000	3	1	0	3	0
53	770	7	10000	3	1	0	3	0
52	771	7	10000	3	1	0	3	0
49	772	7	10000	3	1	0	3	0
48	773	7	10000	3	1	0	3	0
46	774	7	10000	3	1	0	3	0
44	775	7	10000	3	1	0	3	0
43	776	7	10000	3	1	0	3	0
42	777	7	10000	3	1	0	3	0
43	778	7	10000	3	1	0	3	0
44	779	7	10000	3	1	0	3	0
44	780	7	10000	3	1	0	3	0
45	781	7	10000	3	1	0	3	0
48	782	7	10000	3	1	0	3	0
49	783	7	10000	3	1	0	3	0
48	784	7	10000	3	1	0	3	0
48	785	7	10000	3	1	0	3	0
48	786	7	10000	3	1	0	3	0
45	787	7	10000	3	1	0	3	0
44	788	7	10000	3	1	0	3	0
44	789	7	10000	3	1	0	3	0
44	790	7	10000	3	1	0	3	0
44	791	7	10000	3	1	0	3	0
43	792	7	10000	3	1	0	3	0
41	793	7	10000	3	1	0	3	0
39	794	7	10000	3	1	0	3	0
37	795	7	10000	3	1	0	3	0
36	796	7	10000	3	1	0	3	0
35	797	7	10000	3	1	0	3	0
37	798	7	10000	3	1	0	3	0
38	799	7	10000	3	1	0	3	0
40	800	7	10000	3	1	0	3	0
42	801	7	10000	3	1	0	3	0
45	802	7	10000	3	1	0	3	0
46	803	7	10000	3	1	0	3	0
47	804	7	10000	3	1	0	3	0
48	805	7	10000	3	1	0	3	0
49	806	7	10000	3	1	0	3	0
49	807	7	10000	3	1	0	3	0
46	808	7	10000	3	1	0	3	0
44	809	7	10000	3	1	0	3	0
43	810	7	10000	3	1	0	3	0
42	811	7	10000	3	1	0	3	0
42	812	7	10000	3	1	0	3	0
41	813	7	10000	3	1	0	3	0
41	814	7	10000	3	1	0	3	0
41	815	7	10000	3	1	0	3	0
40	816	7	10000	3	1	0	3	0
40	817	7	10000	3	1	0	3	0
39	818	7	10000	3	1	0	3	0
39	819	7	10000	3	1	0	3	0
39	820	7	10000	3	1	0	3	0
39	821	7	10000	3	1	0	3	0
40	822	7	10000	3	1	0	3	0
39	823	7	10000	3	1	0	3	0
37	824	7	10000	3	1	0	3	0
37	825	7	10000	3	1	0	3	0
36	826	7	10000	3	1	0	3	0
34	827	7	10000	3	1	0	3	0
32	828	7	10000	3	1	0	3	0
32	829	7	10000	3	1	0	3	0
32	830	7	10000	3	1	0	3	0
33	831	7	10000	3	1	0	3	0
33	832	7	10000	3	1	0	3	0
34	833	7	10000	3	1	0	3	0
34	834	7	10000	3	1	0	3	0
33	835	7	10000	3	1	0	3	0
32	836	7	10000	3	1	0	3	0
31	837	7	10000	3	1	0	3	0
32	838	7	10000	3	1	0	3	0
31	839	7	10000	3	1	0	3	0
29	840	7	10000	3	1	0	3	0
29	841	7	10000	3	1	0	3	0
31	842	7	10000	3	1	0	3	0
32	843	7	10000	3	1	0	3	0
33	844	7	10000	3	1	0	3	0
35	845	7	10000	3	1	0	3	0
37	846	7	10000	3	1	0	3	0
36	847	7	10000	3	1	0	3	0
34	848	7	10000	3	1	0	3	0
33	849	7	10000	3	1	0	3	0
33	850	7	10000	3	1	0	3	0
33	851	7	10000	3	1	0	3	0
33	852	7	10000	3	1	0	3	0
32	853	7	10000	3	1	0	3	0
32	854	7	10000	3	1	0	3	0
30	855	7	10000	3	1	0	3	0
29	856	7	10000	3	1	0	3	0
29	857	7	10000	3	1	0	3	0
29	858	7	10000	3	1	0	3	0
27	859	7	10000	3	1	0	3	0
27	860	7	10000	3	1	0	3	0
26	861	7	10000	3	1	0	3	0
26	862	7	10000	3	1	0	3	0
27	863	7	10000	3	1	0	3	0
28	864	7	10000	3	1	0	3	0
30	865	7	10000	3	1	0	3	0
31	866	7	10000	3	1	0	3	0
30	867	7	10000	3	1	0	3	0
28	868	7	10000	3	1	0	3	0
27	869	7	10000	3	1	0	3	0
27	870	7	10000	3	1	0	3	0
27	871	7	10000	3	1	0	3	0
27	872	7	10000	3	1	0	3	0
27	873	7	10000	3	1	0	3	0
28	874	7	10000	3	1	0	3	0
28	875	7	10000	3	1	0	3	0
27	876	7	10000	3	1	0	3	0
26	877	7	10000	3	1	0	3	0
28	878	7	10000	3	1	0	3	0
26	879	7	10000	3	1	0	3	0
28	880	7	10000	3	1	0	3	0
29	881	7	10000	3	1	0	3	0
31	882	7	10000	3	1	0	3	0
30	883	7	10000	3	1	0	3	0
31	884	7	10000	3	1	0	3	0
32	885	7	10000	3	1	0	3	0
32	886	7	10000	3	1	0	3	0
30	887	7	10000	3	1	0	3	0
28	888	7	10000	3	1	0	3	0
27	889	7	10000	3	1	0	3	0
26	890	7	10000	3	1	0	3	0
25	891	7	10000	3	1	0	3	0
23	892	7	10000	3	1	0	3	0
24	893	7	10000	3	1	0	3	0
24	894	7	10000	3	1	0	3	0
24	895	7	10000	3	1	0	3	0
24	896	7	10000	3	1	0	3	0
25	897	7	10000	3	1	0	3	0
26	898	7	10000	3	1	0	3	0
26	899	7	10000	3	1	0	3	0
24	900	7	10000	3	1	0	3	0
23	901	7	10000	3	1	0	3	0
23	902	7	10000	3	1	0	3	0
22	903	7	10000	3	1	0	3	0
21	904	7	10000	3	1	0	3	0
22	905	7	10000	3	1	0	3	0
21	906	7	10000	3	1	0	3	0
20	907	7	10000	3	1	0	3	0
19	908	7	10000	3	1	0	3	0
18	909	7	10000	3	1	0	3	0
17	910	7	10000	3	1	0	3	0
18	911	7	10000	3	1	0	3	0
18	912	7	10000	3	1	0	3	0
19	913	7	10000	3	1	0	3	0
20	914	7	10000	3	1	0	3	0
21	915	7	10000	3	1	0	3	0
23	916	7	10000	3	1	0	3	0
25	917	7	10000	3	1	0	3	0
27	918	7	10000	3	1	0	3	0
26	919	7	10000	3	1	0	3	0
24	920	7	10000	3	1	0	3	0
23	921	7	10000	3	1	0	3	0
22	922	7	10000	3	1	0	3	0
21	923	7	10000	3	1	0	3	0
21	924	7	10000	3	1	0	3	0
21	925	7	10000	3	1	0	3	0
20	926	7	10000	3	1	0	3	0
20	927	7	10000	3	1	0	3	0
19	928	7	10000	3	1	0	3	0
18	929	7	10000	3	1	0	3	0
18	930	7	10000	3	1	0	3	0
19	931	7	10000	3	1	0	3	0
19	932	7	10000	3	1	0	3	0
21	933	7	10000	3	1	0	3	0
22	934	7	10000	3	1	0	3	0
22	935	7	10000	3	1	0	3	0
21	936	7	10000	3	1	0	3	0
21	937	7	10000	3	1	0	3	0
21	938	7	10000	3	1	0	3	0
20	939	7	10000	3	1	0	3	0
20	940	7	10000	3	1	0	3	0
20	941	7	10000	3	1	0	3	0
21	942	7	10000	3	1	0	3	0
22	943	7	10000	3	1	0	3	0
23	944	7	10000	3	1	0	3	0
24	945	7	10000	3	1	0	3	0
25	946	7	10000	3	1	0	3	0
25	947	7	10000	3	1	0	3	0
23	948	7	10000	3	1	0	3	0
23	949	7	10000	3	1	0	3	0
22	950	7	10000	3	1	0	3	0
22	951	7	10000	3	1	0	3	0
20	952	7	10000	3	1	0	3	0
20	953	7	10000	3	1	0	3	0
19	954	7	10000	3	1	0	3	0
18	955	7	10000	3	1	0	3	0
16	956	7	10000	3	1	0	3	0
17	957	7	10000	3	1	0	3	0
18	958	7	10000	3	1	0	3	0
18	959	7	10000	3	1	0	3	0
18	960	7	10000	3	1	0	3	0
19	961	7	10000	3	1	0	3	0
21	962	7	10000	3	1	0	3	0
23	963	7	10000	3	1	0	3	0
25	964	7	10000	3	1	0	3	0
26	965	7	10000	3	1	0	3	0
27	966	7	10000	3	1	0	3	0
25	967	7	10000	3	1	0	3	0
23	968	7	10000	3	1	0	3	0
23	969	7	10000	3	1	0	3	0
22	970	7	10000	3	1	0	3	0
23	971	7	10000	3	1	0	3	0
21	972	7	10000	3	1	0	3	0
20	973	7	10000	3	1	0	3	0
20	974	7	10000	3	1	0	3	0
19	975	7	10000	3	1	0	3	0
18	976	7	10000	3	1	0	3	0
19	977	7	10000	3	1	0	3	0
20	978	7	10000	3	1	0	3	0
20	979	7	10000	3	1	0	3	0
19	980	7	10000	3	1	0	3	0
18	981	7	10000	3	1	0	3	0
18	982	7	10000	3	1	0	3	0
18	983	7	10000	3	1	0	3	0
18	984	7	10000	3	1	0	3	0
19	985	7	10000	3	1	0	3	0
20	986	7	10000	3	1	0	3	0
18	987	7	10000	3	1	0	3	0
16	988	7	10000	3	1	0	3	0
16	989	7	10000	3	1	0	3	0
15	990	7	10000	3	1	0	3	0
15	991	7	10000	3	1	0	3	0
14	992	7	10000	3	1	0	3	0
14	993	7	10000	3	1	0	3	0
14	994	7	10000	3	1	0	3	0
12	995	7	10000	3	1	0	3	0
12	996	7	10000	3	1	0	3	0
13	997	7	10000	3	1	0	3	0
14	998	7	10000	3	1	0	3	0
14	999	7	10000	3	1	0	3	0
15	1000	7	10000	3	1	0	3	0
119	2	7	10000	4	1	0	4	0
118	3	7	10000	4	1	0	4	0
118	4	7	10000	4	1	0	4	0
116	5	7	10000	4	1	0	4	0
114	6	7	10000	4	1	0	4	0
113	7	7	10000	4	1	0	4	0
113	8	7	10000	4	1	0	4	0
113	9	7	10000	4	1	0	4	0
113	10	7	10000	4	1	0	4	0
112	11	7	10000	4	1	0	4	0
110	12	7	10000	4	1	0	4	0
109	13	7	10000	4	1	0	4	0
106	14	7	10000	4	1	0	4	0
104	15	7	10000	4	1	0	4	0
103	16	7	10000	4	1	0	4	0
100	17	7	10000	4	1	0	4	0
97	18	7	10000	4	1	0	4	0
94	19	7	10000	4	1	0	4	0
92	20	7	10000	4	1	0	4	0
91	21	7	10000	4	1	0	4	0
90	22	7	10000	4	1	0	4	0
87	23	7	10000	4	1	0	4	0
85	24	7	10000	4	1	0	4	0
83	25	7	10000	4	1	0	4	0
81	26	7	10000	4	1	0	4	0
82	27	7	10000	4	1	0	4	0
83	28	7	10000	4	1	0	4	0
83	29	7	10000	4	1	0	4	0
81	30	7	10000	4	1	0	4	0
79	31	7	10000	4	1	0	4	0
75	32	7	10000	4	1	0	4	0
73	33	7	10000	4	1	0	4	0
71	34	7	10000	4	1	0	4	0
68	35	7	10000	4	1	0	4	0
67	36	7	10000	4	1	0	4	0
64	37	7	10000	4	1	0	4	0
60	38	7	10000	4	1	0	4	0
58	39	7	10000	4	1	0	4	0
56	40	7	10000	4	1	0	4	0
55	41	7	10000	4	1	0	4	0
54	42	7	10000	4	1	0	4	0
52	43	7	10000	4	1	0	4	0
51	44	7	10000	4	1	0	4	0
50	45	7	10000	4	1	0	4	0
48	46	7	10000	4	1	0	4	0
48	47	7	10000	4	1	0	4	0
46	48	7	10000	4	1	0	4	0
44	49	7	10000	4	1	0	4	0
42	50	7	10000	4	1	0	4	0
42	51	7	10000	4	1	0	4	0
41	52	7	10000	4	1	0	4	0
41	53	7	10000	4	1	0	4	0
42	54	7	10000	4	1	0	4	0
43	55	7	10000	4	1	0	4	0
47	56	7	10000	4	1	0	4	0
51	57	7	10000	4	1	0	4	0
52	58	7	10000	4	1	0	4	0
52	59	7	10000	4	1	0	4	0
52	60	7	10000	4	1	0	4	0
54	61	7	10000	4	1	0	4	0
56	62	7	10000	4	1	0	4	0
56	63	7	10000	4	1	0	4	0
55	64	7	10000	4	1	0	4	0
52	65	7	10000	4	1	0	4	0
49	66	7	10000	4	1	0	4	0
47	67	7	10000	4	1	0	4	0
45	68	7	10000	4	1	0	4	0
43	69	7	10000	4	1	0	4	0
42	70	7	10000	4	1	0	4	0
41	71	7	10000	4	1	0	4	0
40	72	7	10000	4	1	0	4	0
39	73	7	10000	4	1	0	4	0
40	74	7	10000	4	1	0	4	0
41	75	7	10000	4	1	0	4	0
44	76	7	10000	4	1	0	4	0
44	77	7	10000	4	1	0	4	0
43	78	7	10000	4	1	0	4	0
42	79	7	10000	4	1	0	4	0
41	80	7	10000	4	1	0	4	0
39	81	7	10000	4	1	0	4	0
37	82	7	10000	4	1	0	4	0
36	83	7	10000	4	1	0	4	0
35	84	7	10000	4	1	0	4	0
33	85	7	10000	4	1	0	4	0
32	86	7	10000	4	1	0	4	0
31	87	7	10000	4	1	0	4	0
31	88	7	10000	4	1	0	4	0
30	89	7	10000	4	1	0	4	0
30	90	7	10000	4	1	0	4	0
32	91	7	10000	4	1	0	4	0
35	92	7	10000	4	1	0	4	0
37	93	7	10000	4	1	0	4	0
37	94	7	10000	4	1	0	4	0
38	95	7	10000	4	1	0	4	0
40	96	7	10000	4	1	0	4	0
40	97	7	10000	4	1	0	4	0
38	98	7	10000	4	1	0	4	0
37	99	7	10000	4	1	0	4	0
36	100	7	10000	4	1	0	4	0
34	101	7	10000	4	1	0	4	0
34	102	7	10000	4	1	0	4	0
34	103	7	10000	4	1	0	4	0
33	104	7	10000	4	1	0	4	0
31	105	7	10000	4	1	0	4	0
29	106	7	10000	4	1	0	4	0
28	107	7	10000	4	1	0	4	0
28	108	7	10000	4	1	0	4	0
29	109	7	10000	4	1	0	4	0
29	110	7	10000	4	1	0	4	0
28	111	7	10000	4	1	0	4	0
27	112	7	10000	4	1	0	4	0
26	113	7	10000	4	1	0	4	0
25	114	7	10000	4	1	0	4	0
26	115	7	10000	4	1	0	4	0
28	116	7	10000	4	1	0	4	0
29	117	7	10000	4	1	0	4	0
29	118	7	10000	4	1	0	4	0
28	119	7	10000	4	1	0	4	0
28	120	7	10000	4	1	0	4	0
28	121	7	10000	4	1	0	4	0
30	122	7	10000	4	1	0	4	0
30	123	7	10000	4	1	0	4	0
31	124	7	10000	4	1	0	4	0
31	125	7	10000	4	1	0	4	0
29	126	7	10000	4	1	0	4	0
31	127	7	10000	4	1	0	4	0
31	128	7	10000	4	1	0	4	0
31	129	7	10000	4	1	0	4	0
31	130	7	10000	4	1	0	4	0
30	131	7	10000	4	1	0	4	0
29	132	7	10000	4	1	0	4	0
28	133	7	10000	4	1	0	4	0
27	134	7	10000	4	1	0	4	0
28	135	7	10000	4	1	0	4	0
29	136	7	10000	4	1	0	4	0
28	137	7	10000	4	1	0	4	0
27	138	7	10000	4	1	0	4	0
25	139	7	10000	4	1	0	4	0
24	140	7	10000	4	1	0	4	0
24	141	7	10000	4	1	0	4	0
23	142	7	10000	4	1	0	4	0
23	143	7	10000	4	1	0	4	0
23	144	7	10000	4	1	0	4	0
22	145	7	10000	4	1	0	4	0
20	146	7	10000	4	1	0	4	0
20	147	7	10000	4	1	0	4	0
19	148	7	10000	4	1	0	4	0
20	149	7	10000	4	1	0	4	0
18	150	7	10000	4	1	0	4	0
17	151	7	10000	4	1	0	4	0
18	152	7	10000	4	1	0	4	0
20	153	7	10000	4	1	0	4	0
22	154	7	10000	4	1	0	4	0
23	155	7	10000	4	1	0	4	0
23	156	7	10000	4	1	0	4	0
21	157	7	10000	4	1	0	4	0
21	158	7	10000	4	1	0	4	0
21	159	7	10000	4	1	0	4	0
21	160	7	10000	4	1	0	4	0
20	161	7	10000	4	1	0	4	0
20	162	7	10000	4	1	0	4	0
20	163	7	10000	4	1	0	4	0
20	164	7	10000	4	1	0	4	0
20	165	7	10000	4	1	0	4	0
20	166	7	10000	4	1	0	4	0
21	167	7	10000	4	1	0	4	0
23	168	7	10000	4	1	0	4	0
24	169	7	10000	4	1	0	4	0
25	170	7	10000	4	1	0	4	0
25	171	7	10000	4	1	0	4	0
25	172	7	10000	4	1	0	4	0
23	173	7	10000	4	1	0	4	0
22	174	7	10000	4	1	0	4	0
22	175	7	10000	4	1	0	4	0
22	176	7	10000	4	1	0	4	0
21	177	7	10000	4	1	0	4	0
21	178	7	10000	4	1	0	4	0
20	179	7	10000	4	1	0	4	0
20	180	7	10000	4	1	0	4	0
20	181	7	10000	4	1	0	4	0
19	182	7	10000	4	1	0	4	0
20	183	7	10000	4	1	0	4	0
20	184	7	10000	4	1	0	4	0
19	185	7	10000	4	1	0	4	0
17	186	7	10000	4	1	0	4	0
17	187	7	10000	4	1	0	4	0
16	188	7	10000	4	1	0	4	0
17	189	7	10000	4	1	0	4	0
16	190	7	10000	4	1	0	4	0
15	191	7	10000	4	1	0	4	0
16	192	7	10000	4	1	0	4	0
14	193	7	10000	4	1	0	4	0
13	194	7	10000	4	1	0	4	0
15	195	7	10000	4	1	0	4	0
17	196	7	10000	4	1	0	4	0
18	197	7	10000	4	1	0	4	0
18	198	7	10000	4	1	0	4	0
17	199	7	10000	4	1	0	4	0
16	200	7	10000	4	1	0	4	0
17	201	7	10000	4	1	0	4	0
18	202	7	10000	4	1	0	4	0
18	203	7	10000	4	1	0	4	0
20	204	7	10000	4	1	0	4	0
19	205	7	10000	4	1	0	4	0
17	206	7	10000	4	1	0	4	0
18	207	7	10000	4	1	0	4	0
17	208	7	10000	4	1	0	4	0
17	209	7	10000	4	1	0	4	0
16	210	7	10000	4	1	0	4	0
16	211	7	10000	4	1	0	4	0
18	212	7	10000	4	1	0	4	0
16	213	7	10000	4	1	0	4	0
15	214	7	10000	4	1	0	4	0
15	215	7	10000	4	1	0	4	0
15	216	7	10000	4	1	0	4	0
15	217	7	10000	4	1	0	4	0
14	218	7	10000	4	1	0	4	0
13	219	7	10000	4	1	0	4	0
13	220	7	10000	4	1	0	4	0
13	221	7	10000	4	1	0	4	0
12	222	7	10000	4	1	0	4	0
14	223	7	10000	4	1	0	4	0
16	224	7	10000	4	1	0	4	0
15	225	7	10000	4	1	0	4	0
13	226	7	10000	4	1	0	4	0
14	227	7	10000	4	1	0	4	0
13	228	7	10000	4	1	0	4	0
14	229	7	10000	4	1	0	4	0
15	230	7	10000	4	1	0	4	0
16	231	7	10000	4	1	0	4	0
17	232	7	10000	4	1	0	4	0
16	233	7	10000	4	1	0	4	0
17	234	7	10000	4	1	0	4	0
19	235	7	10000	4	1	0	4	0
21	236	7	10000	4	1	0	4	0
21	237	7	10000	4	1	0	4	0
21	238	7	10000	4	1	0	4	0
20	239	7	10000	4	1	0	4	0
21	240	7	10000	4	1	0	4	0
20	241	7	10000	4	1	0	4	0
20	242	7	10000	4	1	0	4	0
20	243	7	10000	4	1	0	4	0
21	244	7	10000	4	1	0	4	0
20	245	7	10000	4	1	0	4	0
19	246	7	10000	4	1	0	4	0
19	247	7	10000	4	1	0	4	0
19	248	7	10000	4	1	0	4	0
19	249	7	10000	4	1	0	4	0
18	250	7	10000	4	1	0	4	0
19	251	7	10000	4	1	0	4	0
19	252	7	10000	4	1	0	4	0
18	253	7	10000	4	1	0	4	0
18	254	7	10000	4	1	0	4	0
18	255	7	10000	4	1	0	4	0
18	256	7	10000	4	1	0	4	0
18	257	7	10000	4	1	0	4	0
18	258	7	10000	4	1	0	4	0
16	259	7	10000	4	1	0	4	0
16	260	7	10000	4	1	0	4	0
16	261	7	10000	4	1	0	4	0
15	262	7	10000	4	1	0	4	0
15	263	7	10000	4	1	0	4	0
16	264	7	10000	4	1	0	4	0
15	265	7	10000	4	1	0	4	0
13	266	7	10000	4	1	0	4	0
13	267	7	10000	4	1	0	4	0
13	268	7	10000	4	1	0	4	0
14	269	7	10000	4	1	0	4	0
14	270	7	10000	4	1	0	4	0
13	271	7	10000	4	1	0	4	0
14	272	7	10000	4	1	0	4	0
14	273	7	10000	4	1	0	4	0
15	274	7	10000	4	1	0	4	0
16	275	7	10000	4	1	0	4	0
16	276	7	10000	4	1	0	4	0
16	277	7	10000	4	1	0	4	0
16	278	7	10000	4	1	0	4	0
16	279	7	10000	4	1	0	4	0
15	280	7	10000	4	1	0	4	0
16	281	7	10000	4	1	0	4	0
16	282	7	10000	4	1	0	4	0
15	283	7	10000	4	1	0	4	0
17	284	7	10000	4	1	0	4	0
16	285	7	10000	4	1	0	4	0
14	286	7	10000	4	1	0	4	0
17	287	7	10000	4	1	0	4	0
19	288	7	10000	4	1	0	4	0
19	289	7	10000	4	1	0	4	0
18	290	7	10000	4	1	0	4	0
18	291	7	10000	4	1	0	4	0
17	292	7	10000	4	1	0	4	0
17	293	7	10000	4	1	0	4	0
15	294	7	10000	4	1	0	4	0
15	295	7	10000	4	1	0	4	0
17	296	7	10000	4	1	0	4	0
16	297	7	10000	4	1	0	4	0
16	298	7	10000	4	1	0	4	0
16	299	7	10000	4	1	0	4	0
15	300	7	10000	4	1	0	4	0
16	301	7	10000	4	1	0	4	0
15	302	7	10000	4	1	0	4	0
15	303	7	10000	4	1	0	4	0
16	304	7	10000	4	1	0	4	0
15	305	7	10000	4	1	0	4	0
14	306	7	10000	4	1	0	4	0
14	307	7	10000	4	1	0	4	0
16	308	7	10000	4	1	0	4	0
17	309	7	10000	4	1	0	4	0
16	310	7	10000	4	1	0	4	0
15	311	7	10000	4	1	0	4	0
16	312	7	10000	4	1	0	4	0
16	313	7	10000	4	1	0	4	0
15	314	7	10000	4	1	0	4	0
15	315	7	10000	4	1	0	4	0
17	316	7	10000	4	1	0	4	0
16	317	7	10000	4	1	0	4	0
15	318	7	10000	4	1	0	4	0
15	319	7	10000	4	1	0	4	0
15	320	7	10000	4	1	0	4	0
15	321	7	10000	4	1	0	4	0
14	322	7	10000	4	1	0	4	0
14	323	7	10000	4	1	0	4	0
16	324	7	10000	4	1	0	4	0
14	325	7	10000	4	1	0	4	0
14	326	7	10000	4	1	0	4	0
16	327	7	10000	4	1	0	4	0
17	328	7	10000	4	1	0	4	0
18	329	7	10000	4	1	0	4	0
18	330	7	10000	4	1	0	4	0
18	331	7	10000	4	1	0	4	0
18	332	7	10000	4	1	0	4	0
16	333	7	10000	4	1	0	4	0
16	334	7	10000	4	1	0	4	0
17	335	7	10000	4	1	0	4	0
20	336	7	10000	4	1	0	4	0
20	337	7	10000	4	1	0	4	0
21	338	7	10000	4	1	0	4	0
23	339	7	10000	4	1	0	4	0
25	340	7	10000	4	1	0	4	0
25	341	7	10000	4	1	0	4	0
24	342	7	10000	4	1	0	4	0
25	343	7	10000	4	1	0	4	0
24	344	7	10000	4	1	0	4	0
23	345	7	10000	4	1	0	4	0
21	346	7	10000	4	1	0	4	0
22	347	7	10000	4	1	0	4	0
20	348	7	10000	4	1	0	4	0
20	349	7	10000	4	1	0	4	0
20	350	7	10000	4	1	0	4	0
19	351	7	10000	4	1	0	4	0
20	352	7	10000	4	1	0	4	0
20	353	7	10000	4	1	0	4	0
18	354	7	10000	4	1	0	4	0
20	355	7	10000	4	1	0	4	0
23	356	7	10000	4	1	0	4	0
23	357	7	10000	4	1	0	4	0
23	358	7	10000	4	1	0	4	0
23	359	7	10000	4	1	0	4	0
21	360	7	10000	4	1	0	4	0
20	361	7	10000	4	1	0	4	0
20	362	7	10000	4	1	0	4	0
20	363	7	10000	4	1	0	4	0
20	364	7	10000	4	1	0	4	0
19	365	7	10000	4	1	0	4	0
17	366	7	10000	4	1	0	4	0
18	367	7	10000	4	1	0	4	0
18	368	7	10000	4	1	0	4	0
18	369	7	10000	4	1	0	4	0
18	370	7	10000	4	1	0	4	0
18	371	7	10000	4	1	0	4	0
17	372	7	10000	4	1	0	4	0
19	373	7	10000	4	1	0	4	0
18	374	7	10000	4	1	0	4	0
17	375	7	10000	4	1	0	4	0
19	376	7	10000	4	1	0	4	0
18	377	7	10000	4	1	0	4	0
18	378	7	10000	4	1	0	4	0
18	379	7	10000	4	1	0	4	0
18	380	7	10000	4	1	0	4	0
18	381	7	10000	4	1	0	4	0
18	382	7	10000	4	1	0	4	0
18	383	7	10000	4	1	0	4	0
19	384	7	10000	4	1	0	4	0
18	385	7	10000	4	1	0	4	0
16	386	7	10000	4	1	0	4	0
16	387	7	10000	4	1	0	4	0
16	388	7	10000	4	1	0	4	0
17	389	7	10000	4	1	0	4	0
17	390	7	10000	4	1	0	4	0
18	391	7	10000	4	1	0	4	0
18	392	7	10000	4	1	0	4	0
19	393	7	10000	4	1	0	4	0
19	394	7	10000	4	1	0	4	0
20	395	7	10000	4	1	0	4	0
22	396	7	10000	4	1	0	4	0
20	397	7	10000	4	1	0	4	0
22	398	7	10000	4	1	0	4	0
23	399	7	10000	4	1	0	4	0
24	400	7	10000	4	1	0	4	0
25	401	7	10000	4	1	0	4	0
25	402	7	10000	4	1	0	4	0
25	403	7	10000	4	1	0	4	0
25	404	7	10000	4	1	0	4	0
25	405	7	10000	4	1	0	4	0
25	406	7	10000	4	1	0	4	0
27	407	7	10000	4	1	0	4	0
27	408	7	10000	4	1	0	4	0
26	409	7	10000	4	1	0	4	0
28	410	7	10000	4	1	0	4	0
28	411	7	10000	4	1	0	4	0
27	412	7	10000	4	1	0	4	0
28	413	7	10000	4	1	0	4	0
28	414	7	10000	4	1	0	4	0
30	415	7	10000	4	1	0	4	0
33	416	7	10000	4	1	0	4	0
31	417	7	10000	4	1	0	4	0
30	418	7	10000	4	1	0	4	0
29	419	7	10000	4	1	0	4	0
28	420	7	10000	4	1	0	4	0
26	421	7	10000	4	1	0	4	0
25	422	7	10000	4	1	0	4	0
26	423	7	10000	4	1	0	4	0
26	424	7	10000	4	1	0	4	0
25	425	7	10000	4	1	0	4	0
23	426	7	10000	4	1	0	4	0
24	427	7	10000	4	1	0	4	0
24	428	7	10000	4	1	0	4	0
24	429	7	10000	4	1	0	4	0
22	430	7	10000	4	1	0	4	0
22	431	7	10000	4	1	0	4	0
22	432	7	10000	4	1	0	4	0
21	433	7	10000	4	1	0	4	0
20	434	7	10000	4	1	0	4	0
20	435	7	10000	4	1	0	4	0
23	436	7	10000	4	1	0	4	0
23	437	7	10000	4	1	0	4	0
23	438	7	10000	4	1	0	4	0
23	439	7	10000	4	1	0	4	0
21	440	7	10000	4	1	0	4	0
20	441	7	10000	4	1	0	4	0
20	442	7	10000	4	1	0	4	0
20	443	7	10000	4	1	0	4	0
19	444	7	10000	4	1	0	4	0
19	445	7	10000	4	1	0	4	0
16	446	7	10000	4	1	0	4	0
17	447	7	10000	4	1	0	4	0
17	448	7	10000	4	1	0	4	0
17	449	7	10000	4	1	0	4	0
17	450	7	10000	4	1	0	4	0
18	451	7	10000	4	1	0	4	0
18	452	7	10000	4	1	0	4	0
16	453	7	10000	4	1	0	4	0
16	454	7	10000	4	1	0	4	0
16	455	7	10000	4	1	0	4	0
19	456	7	10000	4	1	0	4	0
19	457	7	10000	4	1	0	4	0
18	458	7	10000	4	1	0	4	0
19	459	7	10000	4	1	0	4	0
18	460	7	10000	4	1	0	4	0
17	461	7	10000	4	1	0	4	0
18	462	7	10000	4	1	0	4	0
19	463	7	10000	4	1	0	4	0
19	464	7	10000	4	1	0	4	0
18	465	7	10000	4	1	0	4	0
16	466	7	10000	4	1	0	4	0
16	467	7	10000	4	1	0	4	0
16	468	7	10000	4	1	0	4	0
16	469	7	10000	4	1	0	4	0
16	470	7	10000	4	1	0	4	0
16	471	7	10000	4	1	0	4	0
16	472	7	10000	4	1	0	4	0
15	473	7	10000	4	1	0	4	0
14	474	7	10000	4	1	0	4	0
14	475	7	10000	4	1	0	4	0
15	476	7	10000	4	1	0	4	0
15	477	7	10000	4	1	0	4	0
15	478	7	10000	4	1	0	4	0
16	479	7	10000	4	1	0	4	0
17	480	7	10000	4	1	0	4	0
18	481	7	10000	4	1	0	4	0
20	482	7	10000	4	1	0	4	0
20	483	7	10000	4	1	0	4	0
20	484	7	10000	4	1	0	4	0
19	485	7	10000	4	1	0	4	0
16	486	7	10000	4	1	0	4	0
16	487	7	10000	4	1	0	4	0
16	488	7	10000	4	1	0	4	0
16	489	7	10000	4	1	0	4	0
16	490	7	10000	4	1	0	4	0
17	491	7	10000	4	1	0	4	0
16	492	7	10000	4	1	0	4	0
15	493	7	10000	4	1	0	4	0
15	494	7	10000	4	1	0	4	0
17	495	7	10000	4	1	0	4	0
19	496	7	10000	4	1	0	4	0
19	497	7	10000	4	1	0	4	0
19	498	7	10000	4	1	0	4	0
19	499	7	10000	4	1	0	4	0
18	500	7	10000	4	1	0	4	0
18	501	7	10000	4	1	0	4	0
18	502	7	10000	4	1	0	4	1
18	503	7	10000	4	1	0	4	1
18	504	7	10000	4	1	0	4	1
18	505	7	10000	4	1	0	4	1
16	506	7	10000	4	1	0	4	1
16	507	7	10000	4	1	0	4	1
17	508	7	10000	4	1	0	4	1
16	509	7	10000	4	1	0	4	1
16	510	7	10000	4	1	0	4	1
16	511	7	10000	4	1	0	4	1
16	512	7	10000	4	1	0	4	1
16	513	7	10000	4	1	0	4	1
15	514	7	10000	4	1	0	4	1
15	515	7	10000	4	1	0	4	1
17	516	7	10000	4	1	0	4	1
18	517	7	10000	4	1	0	4	1
18	518	7	10000	4	1	0	4	1
18	519	7	10000	4	1	0	4	1
19	520	7	10000	4	1	0	4	1
19	521	7	10000	4	1	0	4	1
19	522	7	10000	4	1	0	4	1
19	523	7	10000	4	1	0	4	1
20	524	7	10000	4	1	0	4	1
20	525	7	10000	4	1	0	4	1
18	526	7	10000	4	1	0	4	1
17	527	7	10000	4	1	0	4	1
18	528	7	10000	4	1	0	4	1
18	529	7	10000	4	1	0	4	1
18	530	7	10000	4	1	0	4	1
17	531	7	10000	4	1	0	4	1
17	532	7	10000	4	1	0	4	1
18	533	7	10000	4	1	0	4	1
18	534	7	10000	4	1	0	4	1
19	535	7	10000	4	1	0	4	1
19	536	7	10000	4	1	0	4	1
18	537	7	10000	4	1	0	4	1
18	538	7	10000	4	1	0	4	1
19	539	7	10000	4	1	0	4	1
18	540	7	10000	4	1	0	4	1
18	541	7	10000	4	1	0	4	1
20	542	7	10000	4	1	0	4	1
20	543	7	10000	4	1	0	4	1
20	544	7	10000	4	1	0	4	1
19	545	7	10000	4	1	0	4	1
18	546	7	10000	4	1	0	4	1
17	547	7	10000	4	1	0	4	1
17	548	7	10000	4	1	0	4	1
17	549	7	10000	4	1	0	4	1
17	550	7	10000	4	1	0	4	1
17	551	7	10000	4	1	0	4	1
16	552	7	10000	4	1	0	4	0
17	553	7	10000	4	1	0	4	0
17	554	7	10000	4	1	0	4	0
18	555	7	10000	4	1	0	4	0
20	556	7	10000	4	1	0	4	0
20	557	7	10000	4	1	0	4	0
19	558	7	10000	4	1	0	4	0
19	559	7	10000	4	1	0	4	0
20	560	7	10000	4	1	0	4	0
20	561	7	10000	4	1	0	4	0
19	562	7	10000	4	1	0	4	0
20	563	7	10000	4	1	0	4	0
20	564	7	10000	4	1	0	4	0
19	565	7	10000	4	1	0	4	0
17	566	7	10000	4	1	0	4	0
17	567	7	10000	4	1	0	4	0
16	568	7	10000	4	1	0	4	0
16	569	7	10000	4	1	0	4	0
15	570	7	10000	4	1	0	4	0
17	571	7	10000	4	1	0	4	0
18	572	7	10000	4	1	0	4	0
20	573	7	10000	4	1	0	4	0
20	574	7	10000	4	1	0	4	0
20	575	7	10000	4	1	0	4	0
22	576	7	10000	4	1	0	4	0
23	577	7	10000	4	1	0	4	0
22	578	7	10000	4	1	0	4	0
21	579	7	10000	4	1	0	4	0
20	580	7	10000	4	1	0	4	0
20	581	7	10000	4	1	0	4	0
19	582	7	10000	4	1	0	4	0
20	583	7	10000	4	1	0	4	0
20	584	7	10000	4	1	0	4	0
18	585	7	10000	4	1	0	4	0
18	586	7	10000	4	1	0	4	0
20	587	7	10000	4	1	0	4	0
21	588	7	10000	4	1	0	4	0
21	589	7	10000	4	1	0	4	0
20	590	7	10000	4	1	0	4	0
20	591	7	10000	4	1	0	4	0
19	592	7	10000	4	1	0	4	0
18	593	7	10000	4	1	0	4	0
20	594	7	10000	4	1	0	4	0
24	595	7	10000	4	1	0	4	0
26	596	7	10000	4	1	0	4	0
26	597	7	10000	4	1	0	4	0
25	598	7	10000	4	1	0	4	0
24	599	7	10000	4	1	0	4	0
26	600	7	10000	4	1	0	4	0
25	601	7	10000	4	1	0	4	0
29	602	7	10000	4	1	0	4	0
33	603	7	10000	4	1	0	4	0
33	604	7	10000	4	1	0	4	0
33	605	7	10000	4	1	0	4	0
32	606	7	10000	4	1	0	4	0
34	607	7	10000	4	1	0	4	0
56	608	7	10000	4	1	0	4	0
89	609	7	10000	4	1	0	4	0
99	610	7	10000	4	1	0	4	0
98	611	7	10000	4	1	0	4	0
107	612	7	10000	4	1	0	4	0
120	613	7	10000	4	1	0	4	0
123	614	7	10000	4	1	0	4	0
127	615	7	10000	4	1	0	4	0
138	616	7	10000	4	1	0	4	0
139	617	7	10000	4	1	0	4	0
137	618	7	10000	4	1	0	4	0
142	619	7	10000	4	1	0	4	0
143	620	7	10000	4	1	0	4	0
146	621	7	10000	4	1	0	4	0
167	622	7	10000	4	1	0	4	0
187	623	7	10000	4	1	0	4	0
191	624	7	10000	4	1	0	4	0
188	625	7	10000	4	1	0	4	0
185	626	7	10000	4	1	0	4	0
180	627	7	10000	4	1	0	4	0
176	628	7	10000	4	1	0	4	0
176	629	7	10000	4	1	0	4	0
190	630	7	10000	4	1	0	4	0
211	631	7	10000	4	1	0	4	0
231	632	7	10000	4	1	0	4	0
245	633	7	10000	4	1	0	4	0
251	634	7	10000	4	1	0	4	0
252	635	7	10000	4	1	0	4	0
246	636	7	10000	4	1	0	4	0
248	637	7	10000	4	1	0	4	0
246	638	7	10000	4	1	0	4	0
237	639	7	10000	4	1	0	4	0
232	640	7	10000	4	1	0	4	0
231	641	7	10000	4	1	0	4	0
227	642	7	10000	4	1	0	4	0
220	643	7	10000	4	1	0	4	0
212	644	7	10000	4	1	0	4	0
203	645	7	10000	4	1	0	4	0
194	646	7	10000	4	1	0	4	0
188	647	7	10000	4	1	0	4	0
181	648	7	10000	4	1	0	4	0
175	649	7	10000	4	1	0	4	0
170	650	7	10000	4	1	0	4	0
165	651	7	10000	4	1	0	4	0
160	652	7	10000	4	1	0	4	0
155	653	7	10000	4	1	0	4	0
149	654	7	10000	4	1	0	4	0
143	655	7	10000	4	1	0	4	0
141	656	7	10000	4	1	0	4	0
137	657	7	10000	4	1	0	4	0
134	658	7	10000	4	1	0	4	0
130	659	7	10000	4	1	0	4	0
127	660	7	10000	4	1	0	4	0
125	661	7	10000	4	1	0	4	0
122	662	7	10000	4	1	0	4	0
117	663	7	10000	4	1	0	4	0
113	664	7	10000	4	1	0	4	0
109	665	7	10000	4	1	0	4	0
104	666	7	10000	4	1	0	4	0
99	667	7	10000	4	1	0	4	0
94	668	7	10000	4	1	0	4	0
91	669	7	10000	4	1	0	4	0
86	670	7	10000	4	1	0	4	0
83	671	7	10000	4	1	0	4	0
80	672	7	10000	4	1	0	4	0
77	673	7	10000	4	1	0	4	0
75	674	7	10000	4	1	0	4	0
72	675	7	10000	4	1	0	4	0
71	676	7	10000	4	1	0	4	0
68	677	7	10000	4	1	0	4	0
67	678	7	10000	4	1	0	4	0
65	679	7	10000	4	1	0	4	0
63	680	7	10000	4	1	0	4	0
61	681	7	10000	4	1	0	4	0
59	682	7	10000	4	1	0	4	0
59	683	7	10000	4	1	0	4	0
59	684	7	10000	4	1	0	4	0
58	685	7	10000	4	1	0	4	0
56	686	7	10000	4	1	0	4	0
55	687	7	10000	4	1	0	4	0
54	688	7	10000	4	1	0	4	0
56	689	7	10000	4	1	0	4	0
56	690	7	10000	4	1	0	4	0
57	691	7	10000	4	1	0	4	0
57	692	7	10000	4	1	0	4	0
57	693	7	10000	4	1	0	4	0
56	694	7	10000	4	1	0	4	0
57	695	7	10000	4	1	0	4	0
60	696	7	10000	4	1	0	4	0
59	697	7	10000	4	1	0	4	0
59	698	7	10000	4	1	0	4	0
58	699	7	10000	4	1	0	4	0
58	700	7	10000	4	1	0	4	0
56	701	7	10000	4	1	0	4	0
54	702	7	10000	4	1	0	4	0
53	703	7	10000	4	1	0	4	0
52	704	7	10000	4	1	0	4	0
52	705	7	10000	4	1	0	4	0
51	706	7	10000	4	1	0	4	0
51	707	7	10000	4	1	0	4	0
50	708	7	10000	4	1	0	4	0
52	709	7	10000	4	1	0	4	0
51	710	7	10000	4	1	0	4	0
52	711	7	10000	4	1	0	4	0
53	712	7	10000	4	1	0	4	0
53	713	7	10000	4	1	0	4	0
52	714	7	10000	4	1	0	4	0
51	715	7	10000	4	1	0	4	0
49	716	7	10000	4	1	0	4	0
47	717	7	10000	4	1	0	4	0
46	718	7	10000	4	1	0	4	0
44	719	7	10000	4	1	0	4	0
42	720	7	10000	4	1	0	4	0
42	721	7	10000	4	1	0	4	0
40	722	7	10000	4	1	0	4	0
40	723	7	10000	4	1	0	4	0
41	724	7	10000	4	1	0	4	0
39	725	7	10000	4	1	0	4	0
36	726	7	10000	4	1	0	4	0
35	727	7	10000	4	1	0	4	0
36	728	7	10000	4	1	0	4	0
36	729	7	10000	4	1	0	4	0
37	730	7	10000	4	1	0	4	0
37	731	7	10000	4	1	0	4	0
36	732	7	10000	4	1	0	4	0
34	733	7	10000	4	1	0	4	0
32	734	7	10000	4	1	0	4	0
32	735	7	10000	4	1	0	4	0
32	736	7	10000	4	1	0	4	0
30	737	7	10000	4	1	0	4	0
30	738	7	10000	4	1	0	4	0
28	739	7	10000	4	1	0	4	0
27	740	7	10000	4	1	0	4	0
26	741	7	10000	4	1	0	4	0
25	742	7	10000	4	1	0	4	0
26	743	7	10000	4	1	0	4	0
26	744	7	10000	4	1	0	4	0
24	745	7	10000	4	1	0	4	0
21	746	7	10000	4	1	0	4	0
21	747	7	10000	4	1	0	4	0
21	748	7	10000	4	1	0	4	0
21	749	7	10000	4	1	0	4	0
21	750	7	10000	4	1	0	4	0
20	751	7	10000	4	1	0	4	0
20	752	7	10000	4	1	0	4	0
19	753	7	10000	4	1	0	4	0
19	754	7	10000	4	1	0	4	0
20	755	7	10000	4	1	0	4	0
20	756	7	10000	4	1	0	4	0
19	757	7	10000	4	1	0	4	0
19	758	7	10000	4	1	0	4	0
18	759	7	10000	4	1	0	4	0
18	760	7	10000	4	1	0	4	0
17	761	7	10000	4	1	0	4	0
17	762	7	10000	4	1	0	4	0
17	763	7	10000	4	1	0	4	0
17	764	7	10000	4	1	0	4	0
16	765	7	10000	4	1	0	4	0
14	766	7	10000	4	1	0	4	0
16	767	7	10000	4	1	0	4	0
16	768	7	10000	4	1	0	4	0
16	769	7	10000	4	1	0	4	0
15	770	7	10000	4	1	0	4	0
15	771	7	10000	4	1	0	4	0
16	772	7	10000	4	1	0	4	0
14	773	7	10000	4	1	0	4	0
14	774	7	10000	4	1	0	4	0
16	775	7	10000	4	1	0	4	0
18	776	7	10000	4	1	0	4	0
17	777	7	10000	4	1	0	4	0
17	778	7	10000	4	1	0	4	0
16	779	7	10000	4	1	0	4	0
16	780	7	10000	4	1	0	4	0
17	781	7	10000	4	1	0	4	0
17	782	7	10000	4	1	0	4	0
16	783	7	10000	4	1	0	4	0
17	784	7	10000	4	1	0	4	0
17	785	7	10000	4	1	0	4	0
15	786	7	10000	4	1	0	4	0
16	787	7	10000	4	1	0	4	0
17	788	7	10000	4	1	0	4	0
19	789	7	10000	4	1	0	4	0
21	790	7	10000	4	1	0	4	0
20	791	7	10000	4	1	0	4	0
19	792	7	10000	4	1	0	4	0
19	793	7	10000	4	1	0	4	0
19	794	7	10000	4	1	0	4	0
19	795	7	10000	4	1	0	4	0
20	796	7	10000	4	1	0	4	0
19	797	7	10000	4	1	0	4	0
20	798	7	10000	4	1	0	4	0
20	799	7	10000	4	1	0	4	0
20	800	7	10000	4	1	0	4	0
21	801	7	10000	4	1	0	4	0
21	802	7	10000	4	1	0	4	0
20	803	7	10000	4	1	0	4	0
21	804	7	10000	4	1	0	4	0
20	805	7	10000	4	1	0	4	0
19	806	7	10000	4	1	0	4	0
19	807	7	10000	4	1	0	4	0
19	808	7	10000	4	1	0	4	0
18	809	7	10000	4	1	0	4	0
19	810	7	10000	4	1	0	4	0
20	811	7	10000	4	1	0	4	0
20	812	7	10000	4	1	0	4	0
20	813	7	10000	4	1	0	4	0
19	814	7	10000	4	1	0	4	0
20	815	7	10000	4	1	0	4	0
21	816	7	10000	4	1	0	4	0
20	817	7	10000	4	1	0	4	0
20	818	7	10000	4	1	0	4	0
20	819	7	10000	4	1	0	4	0
21	820	7	10000	4	1	0	4	0
24	821	7	10000	4	1	0	4	0
25	822	7	10000	4	1	0	4	0
24	823	7	10000	4	1	0	4	0
24	824	7	10000	4	1	0	4	0
23	825	7	10000	4	1	0	4	0
21	826	7	10000	4	1	0	4	0
21	827	7	10000	4	1	0	4	0
20	828	7	10000	4	1	0	4	0
20	829	7	10000	4	1	0	4	0
20	830	7	10000	4	1	0	4	0
19	831	7	10000	4	1	0	4	0
18	832	7	10000	4	1	0	4	0
18	833	7	10000	4	1	0	4	0
17	834	7	10000	4	1	0	4	0
17	835	7	10000	4	1	0	4	0
18	836	7	10000	4	1	0	4	0
18	837	7	10000	4	1	0	4	0
16	838	7	10000	4	1	0	4	0
16	839	7	10000	4	1	0	4	0
16	840	7	10000	4	1	0	4	0
16	841	7	10000	4	1	0	4	0
16	842	7	10000	4	1	0	4	0
16	843	7	10000	4	1	0	4	0
15	844	7	10000	4	1	0	4	0
15	845	7	10000	4	1	0	4	0
13	846	7	10000	4	1	0	4	0
14	847	7	10000	4	1	0	4	0
14	848	7	10000	4	1	0	4	0
14	849	7	10000	4	1	0	4	0
14	850	7	10000	4	1	0	4	0
13	851	7	10000	4	1	0	4	0
12	852	7	10000	4	1	0	4	0
12	853	7	10000	4	1	0	4	0
13	854	7	10000	4	1	0	4	0
14	855	7	10000	4	1	0	4	0
16	856	7	10000	4	1	0	4	0
14	857	7	10000	4	1	0	4	0
14	858	7	10000	4	1	0	4	0
14	859	7	10000	4	1	0	4	0
15	860	7	10000	4	1	0	4	0
16	861	7	10000	4	1	0	4	0
18	862	7	10000	4	1	0	4	0
18	863	7	10000	4	1	0	4	0
18	864	7	10000	4	1	0	4	0
17	865	7	10000	4	1	0	4	0
15	866	7	10000	4	1	0	4	0
15	867	7	10000	4	1	0	4	0
16	868	7	10000	4	1	0	4	0
16	869	7	10000	4	1	0	4	0
17	870	7	10000	4	1	0	4	0
17	871	7	10000	4	1	0	4	0
17	872	7	10000	4	1	0	4	0
18	873	7	10000	4	1	0	4	0
16	874	7	10000	4	1	0	4	0
18	875	7	10000	4	1	0	4	0
21	876	7	10000	4	1	0	4	0
20	877	7	10000	4	1	0	4	0
20	878	7	10000	4	1	0	4	0
19	879	7	10000	4	1	0	4	0
19	880	7	10000	4	1	0	4	0
19	881	7	10000	4	1	0	4	0
20	882	7	10000	4	1	0	4	0
20	883	7	10000	4	1	0	4	0
20	884	7	10000	4	1	0	4	0
19	885	7	10000	4	1	0	4	0
16	886	7	10000	4	1	0	4	0
15	887	7	10000	4	1	0	4	0
16	888	7	10000	4	1	0	4	0
15	889	7	10000	4	1	0	4	0
15	890	7	10000	4	1	0	4	0
15	891	7	10000	4	1	0	4	0
15	892	7	10000	4	1	0	4	0
15	893	7	10000	4	1	0	4	0
14	894	7	10000	4	1	0	4	0
14	895	7	10000	4	1	0	4	0
16	896	7	10000	4	1	0	4	0
15	897	7	10000	4	1	0	4	0
15	898	7	10000	4	1	0	4	0
16	899	7	10000	4	1	0	4	0
15	900	7	10000	4	1	0	4	0
14	901	7	10000	4	1	0	4	0
14	902	7	10000	4	1	0	4	0
16	903	7	10000	4	1	0	4	0
16	904	7	10000	4	1	0	4	0
16	905	7	10000	4	1	0	4	0
15	906	7	10000	4	1	0	4	0
17	907	7	10000	4	1	0	4	0
17	908	7	10000	4	1	0	4	0
18	909	7	10000	4	1	0	4	0
18	910	7	10000	4	1	0	4	0
18	911	7	10000	4	1	0	4	0
18	912	7	10000	4	1	0	4	0
18	913	7	10000	4	1	0	4	0
18	914	7	10000	4	1	0	4	0
19	915	7	10000	4	1	0	4	0
20	916	7	10000	4	1	0	4	0
20	917	7	10000	4	1	0	4	0
19	918	7	10000	4	1	0	4	0
19	919	7	10000	4	1	0	4	0
18	920	7	10000	4	1	0	4	0
18	921	7	10000	4	1	0	4	0
18	922	7	10000	4	1	0	4	0
18	923	7	10000	4	1	0	4	0
18	924	7	10000	4	1	0	4	0
17	925	7	10000	4	1	0	4	0
15	926	7	10000	4	1	0	4	0
14	927	7	10000	4	1	0	4	0
14	928	7	10000	4	1	0	4	0
15	929	7	10000	4	1	0	4	0
14	930	7	10000	4	1	0	4	0
14	931	7	10000	4	1	0	4	0
14	932	7	10000	4	1	0	4	0
13	933	7	10000	4	1	0	4	0
14	934	7	10000	4	1	0	4	0
14	935	7	10000	4	1	0	4	0
17	936	7	10000	4	1	0	4	0
15	937	7	10000	4	1	0	4	0
15	938	7	10000	4	1	0	4	0
16	939	7	10000	4	1	0	4	0
15	940	7	10000	4	1	0	4	0
15	941	7	10000	4	1	0	4	0
15	942	7	10000	4	1	0	4	0
15	943	7	10000	4	1	0	4	0
14	944	7	10000	4	1	0	4	0
15	945	7	10000	4	1	0	4	0
14	946	7	10000	4	1	0	4	0
14	947	7	10000	4	1	0	4	0
14	948	7	10000	4	1	0	4	0
14	949	7	10000	4	1	0	4	0
14	950	7	10000	4	1	0	4	0
14	951	7	10000	4	1	0	4	0
13	952	7	10000	4	1	0	4	0
15	953	7	10000	4	1	0	4	0
16	954	7	10000	4	1	0	4	0
15	955	7	10000	4	1	0	4	0
17	956	7	10000	4	1	0	4	0
17	957	7	10000	4	1	0	4	0
17	958	7	10000	4	1	0	4	0
17	959	7	10000	4	1	0	4	0
17	960	7	10000	4	1	0	4	0
17	961	7	10000	4	1	0	4	0
19	962	7	10000	4	1	0	4	0
20	963	7	10000	4	1	0	4	0
19	964	7	10000	4	1	0	4	0
19	965	7	10000	4	1	0	4	0
17	966	7	10000	4	1	0	4	0
17	967	7	10000	4	1	0	4	0
18	968	7	10000	4	1	0	4	0
19	969	7	10000	4	1	0	4	0
18	970	7	10000	4	1	0	4	0
18	971	7	10000	4	1	0	4	0
18	972	7	10000	4	1	0	4	0
19	973	7	10000	4	1	0	4	0
20	974	7	10000	4	1	0	4	0
20	975	7	10000	4	1	0	4	0
21	976	7	10000	4	1	0	4	0
21	977	7	10000	4	1	0	4	0
20	978	7	10000	4	1	0	4	0
20	979	7	10000	4	1	0	4	0
19	980	7	10000	4	1	0	4	0
19	981	7	10000	4	1	0	4	0
18	982	7	10000	4	1	0	4	0
19	983	7	10000	4	1	0	4	0
20	984	7	10000	4	1	0	4	0
20	985	7	10000	4	1	0	4	0
17	986	7	10000	4	1	0	4	0
17	987	7	10000	4	1	0	4	0
18	988	7	10000	4	1	0	4	0
17	989	7	10000	4	1	0	4	0
16	990	7	10000	4	1	0	4	0
16	991	7	10000	4	1	0	4	0
15	992	7	10000	4	1	0	4	0
15	993	7	10000	4	1	0	4	0
16	994	7	10000	4	1	0	4	0
17	995	7	10000	4	1	0	4	0
19	996	7	10000	4	1	0	4	0
19	997	7	10000	4	1	0	4	0
18	998	7	10000	4	1	0	4	0
18	999	7	10000	4	1	0	4	0
17	1000	7	10000	4	1	0	4	0
17	1001	7	10000	4	1	0	4	0
13	2	7	10000	5	1	0	5	0
14	3	7	10000	5	1	0	5	0
13	4	7	10000	5	1	0	5	0
12	5	7	10000	5	1	0	5	0
13	6	7	10000	5	1	0	5	0
13	7	7	10000	5	1	0	5	0
12	8	7	10000	5	1	0	5	0
11	9	7	10000	5	1	0	5	0
11	10	7	10000	5	1	0	5	0
11	11	7	10000	5	1	0	5	0
11	12	7	10000	5	1	0	5	0
11	13	7	10000	5	1	0	5	0
11	14	7	10000	5	1	0	5	0
11	15	7	10000	5	1	0	5	0
10	16	7	10000	5	1	0	5	0
10	17	7	10000	5	1	0	5	0
10	18	7	10000	5	1	0	5	0
13	19	7	10000	5	1	0	5	0
13	20	7	10000	5	1	0	5	0
13	21	7	10000	5	1	0	5	0
13	22	7	10000	5	1	0	5	0
13	23	7	10000	5	1	0	5	0
13	24	7	10000	5	1	0	5	0
13	25	7	10000	5	1	0	5	0
13	26	7	10000	5	1	0	5	0
12	27	7	10000	5	1	0	5	0
12	28	7	10000	5	1	0	5	0
11	29	7	10000	5	1	0	5	0
10	30	7	10000	5	1	0	5	0
11	31	7	10000	5	1	0	5	0
12	32	7	10000	5	1	0	5	0
13	33	7	10000	5	1	0	5	0
13	34	7	10000	5	1	0	5	0
13	35	7	10000	5	1	0	5	0
13	36	7	10000	5	1	0	5	0
12	37	7	10000	5	1	0	5	0
12	38	7	10000	5	1	0	5	0
15	39	7	10000	5	1	0	5	0
14	40	7	10000	5	1	0	5	0
14	41	7	10000	5	1	0	5	0
13	42	7	10000	5	1	0	5	0
13	43	7	10000	5	1	0	5	0
13	44	7	10000	5	1	0	5	0
12	45	7	10000	5	1	0	5	0
12	46	7	10000	5	1	0	5	0
12	47	7	10000	5	1	0	5	0
12	48	7	10000	5	1	0	5	0
10	49	7	10000	5	1	0	5	0
10	50	7	10000	5	1	0	5	0
10	51	7	10000	5	1	0	5	0
11	52	7	10000	5	1	0	5	0
10	53	7	10000	5	1	0	5	0
10	54	7	10000	5	1	0	5	0
11	55	7	10000	5	1	0	5	0
10	56	7	10000	5	1	0	5	0
9	57	7	10000	5	1	0	5	0
9	58	7	10000	5	1	0	5	0
12	59	7	10000	5	1	0	5	0
12	60	7	10000	5	1	0	5	0
12	61	7	10000	5	1	0	5	0
13	62	7	10000	5	1	0	5	0
12	63	7	10000	5	1	0	5	0
12	64	7	10000	5	1	0	5	0
11	65	7	10000	5	1	0	5	0
12	66	7	10000	5	1	0	5	0
12	67	7	10000	5	1	0	5	0
12	68	7	10000	5	1	0	5	0
10	69	7	10000	5	1	0	5	0
10	70	7	10000	5	1	0	5	0
10	71	7	10000	5	1	0	5	0
10	72	7	10000	5	1	0	5	0
10	73	7	10000	5	1	0	5	0
10	74	7	10000	5	1	0	5	0
12	75	7	10000	5	1	0	5	0
11	76	7	10000	5	1	0	5	0
11	77	7	10000	5	1	0	5	0
11	78	7	10000	5	1	0	5	0
12	79	7	10000	5	1	0	5	0
12	80	7	10000	5	1	0	5	0
12	81	7	10000	5	1	0	5	0
12	82	7	10000	5	1	0	5	0
12	83	7	10000	5	1	0	5	0
12	84	7	10000	5	1	0	5	0
12	85	7	10000	5	1	0	5	0
13	86	7	10000	5	1	0	5	0
13	87	7	10000	5	1	0	5	0
14	88	7	10000	5	1	0	5	0
13	89	7	10000	5	1	0	5	0
14	90	7	10000	5	1	0	5	0
13	91	7	10000	5	1	0	5	0
13	92	7	10000	5	1	0	5	0
13	93	7	10000	5	1	0	5	0
13	94	7	10000	5	1	0	5	0
15	95	7	10000	5	1	0	5	0
13	96	7	10000	5	1	0	5	0
14	97	7	10000	5	1	0	5	0
14	98	7	10000	5	1	0	5	0
17	99	7	10000	5	1	0	5	0
18	100	7	10000	5	1	0	5	0
18	101	7	10000	5	1	0	5	0
17	101	7	10000	5	1	0	5	0
16	102	7	10000	5	1	0	5	0
16	104	7	10000	5	1	0	5	0
16	105	7	10000	5	1	0	5	0
18	106	7	10000	5	1	0	5	0
18	107	7	10000	5	1	0	5	0
19	108	7	10000	5	1	0	5	0
17	109	7	10000	5	1	0	5	0
16	110	7	10000	5	1	0	5	0
17	111	7	10000	5	1	0	5	0
17	112	7	10000	5	1	0	5	0
18	113	7	10000	5	1	0	5	0
17	114	7	10000	5	1	0	5	0
17	115	7	10000	5	1	0	5	0
16	116	7	10000	5	1	0	5	0
14	117	7	10000	5	1	0	5	0
15	118	7	10000	5	1	0	5	0
16	119	7	10000	5	1	0	5	0
16	120	7	10000	5	1	0	5	0
17	121	7	10000	5	1	0	5	0
15	122	7	10000	5	1	0	5	0
15	123	7	10000	5	1	0	5	0
16	124	7	10000	5	1	0	5	0
15	125	7	10000	5	1	0	5	0
16	126	7	10000	5	1	0	5	0
16	127	7	10000	5	1	0	5	0
16	128	7	10000	5	1	0	5	0
14	129	7	10000	5	1	0	5	0
13	130	7	10000	5	1	0	5	0
13	131	7	10000	5	1	0	5	0
13	132	7	10000	5	1	0	5	0
14	133	7	10000	5	1	0	5	0
13	134	7	10000	5	1	0	5	0
13	135	7	10000	5	1	0	5	0
12	136	7	10000	5	1	0	5	0
11	137	7	10000	5	1	0	5	0
11	138	7	10000	5	1	0	5	0
13	139	7	10000	5	1	0	5	0
13	140	7	10000	5	1	0	5	0
14	141	7	10000	5	1	0	5	0
13	142	7	10000	5	1	0	5	0
13	143	7	10000	5	1	0	5	0
13	144	7	10000	5	1	0	5	0
12	145	7	10000	5	1	0	5	0
12	146	7	10000	5	1	0	5	0
13	147	7	10000	5	1	0	5	0
14	148	7	10000	5	1	0	5	0
13	149	7	10000	5	1	0	5	0
15	150	7	10000	5	1	0	5	0
15	151	7	10000	5	1	0	5	0
15	152	7	10000	5	1	0	5	0
16	153	7	10000	5	1	0	5	0
15	154	7	10000	5	1	0	5	0
15	155	7	10000	5	1	0	5	0
15	156	7	10000	5	1	0	5	0
14	157	7	10000	5	1	0	5	0
14	158	7	10000	5	1	0	5	0
15	159	7	10000	5	1	0	5	0
16	160	7	10000	5	1	0	5	0
16	161	7	10000	5	1	0	5	0
15	162	7	10000	5	1	0	5	0
15	163	7	10000	5	1	0	5	0
15	164	7	10000	5	1	0	5	0
14	165	7	10000	5	1	0	5	0
15	166	7	10000	5	1	0	5	0
16	167	7	10000	5	1	0	5	0
16	168	7	10000	5	1	0	5	0
13	169	7	10000	5	1	0	5	0
13	170	7	10000	5	1	0	5	0
13	171	7	10000	5	1	0	5	0
14	172	7	10000	5	1	0	5	0
13	173	7	10000	5	1	0	5	0
12	174	7	10000	5	1	0	5	0
12	175	7	10000	5	1	0	5	0
13	176	7	10000	5	1	0	5	0
13	177	7	10000	5	1	0	5	0
13	178	7	10000	5	1	0	5	0
15	179	7	10000	5	1	0	5	0
14	180	7	10000	5	1	0	5	0
14	181	7	10000	5	1	0	5	0
15	181	7	10000	5	1	0	5	0
15	182	7	10000	5	1	0	5	0
16	184	7	10000	5	1	0	5	0
16	185	7	10000	5	1	0	5	0
16	186	7	10000	5	1	0	5	0
17	187	7	10000	5	1	0	5	0
18	188	7	10000	5	1	0	5	0
15	189	7	10000	5	1	0	5	0
16	190	7	10000	5	1	0	5	0
16	191	7	10000	5	1	0	5	0
16	192	7	10000	5	1	0	5	0
18	193	7	10000	5	1	0	5	0
18	194	7	10000	5	1	0	5	0
18	195	7	10000	5	1	0	5	0
17	196	7	10000	5	1	0	5	0
16	197	7	10000	5	1	0	5	0
16	198	7	10000	5	1	0	5	0
18	199	7	10000	5	1	0	5	0
19	200	7	10000	5	1	0	5	0
18	201	7	10000	5	1	0	5	0
17	202	7	10000	5	1	0	5	0
16	203	7	10000	5	1	0	5	0
15	204	7	10000	5	1	0	5	0
16	205	7	10000	5	1	0	5	0
16	206	7	10000	5	1	0	5	0
17	207	7	10000	5	1	0	5	0
19	208	7	10000	5	1	0	5	0
17	209	7	10000	5	1	0	5	0
16	210	7	10000	5	1	0	5	0
17	211	7	10000	5	1	0	5	0
17	212	7	10000	5	1	0	5	0
20	213	7	10000	5	1	0	5	0
20	214	7	10000	5	1	0	5	0
19	215	7	10000	5	1	0	5	0
18	216	7	10000	5	1	0	5	0
17	217	7	10000	5	1	0	5	0
16	218	7	10000	5	1	0	5	0
17	219	7	10000	5	1	0	5	0
17	220	7	10000	5	1	0	5	0
16	221	7	10000	5	1	0	5	0
15	221	7	10000	5	1	0	5	0
15	222	7	10000	5	1	0	5	0
17	224	7	10000	5	1	0	5	0
17	225	7	10000	5	1	0	5	0
17	226	7	10000	5	1	0	5	0
17	227	7	10000	5	1	0	5	0
18	228	7	10000	5	1	0	5	0
16	229	7	10000	5	1	0	5	0
17	230	7	10000	5	1	0	5	0
18	231	7	10000	5	1	0	5	0
18	232	7	10000	5	1	0	5	0
17	233	7	10000	5	1	0	5	0
17	234	7	10000	5	1	0	5	0
16	235	7	10000	5	1	0	5	0
16	236	7	10000	5	1	0	5	0
15	237	7	10000	5	1	0	5	0
14	238	7	10000	5	1	0	5	0
18	239	7	10000	5	1	0	5	0
17	240	7	10000	5	1	0	5	0
16	241	7	10000	5	1	0	5	0
15	242	7	10000	5	1	0	5	0
15	243	7	10000	5	1	0	5	0
16	244	7	10000	5	1	0	5	0
17	245	7	10000	5	1	0	5	0
19	246	7	10000	5	1	0	5	0
19	247	7	10000	5	1	0	5	0
20	248	7	10000	5	1	0	5	0
18	249	7	10000	5	1	0	5	0
19	250	7	10000	5	1	0	5	0
20	251	7	10000	5	1	0	5	0
20	252	7	10000	5	1	0	5	0
21	253	7	10000	5	1	0	5	0
22	254	7	10000	5	1	0	5	0
22	255	7	10000	5	1	0	5	0
20	256	7	10000	5	1	0	5	0
20	257	7	10000	5	1	0	5	0
20	258	7	10000	5	1	0	5	0
21	259	7	10000	5	1	0	5	0
20	260	7	10000	5	1	0	5	0
19	261	7	10000	5	1	0	5	0
20	262	7	10000	5	1	0	5	0
18	263	7	10000	5	1	0	5	0
19	264	7	10000	5	1	0	5	0
19	265	7	10000	5	1	0	5	0
18	266	7	10000	5	1	0	5	0
17	267	7	10000	5	1	0	5	0
18	268	7	10000	5	1	0	5	0
16	269	7	10000	5	1	0	5	0
17	270	7	10000	5	1	0	5	0
18	271	7	10000	5	1	0	5	0
19	272	7	10000	5	1	0	5	0
19	273	7	10000	5	1	0	5	0
19	274	7	10000	5	1	0	5	0
19	275	7	10000	5	1	0	5	0
17	276	7	10000	5	1	0	5	0
16	277	7	10000	5	1	0	5	0
16	278	7	10000	5	1	0	5	0
19	279	7	10000	5	1	0	5	0
18	280	7	10000	5	1	0	5	0
18	281	7	10000	5	1	0	5	0
19	282	7	10000	5	1	0	5	0
19	283	7	10000	5	1	0	5	0
20	284	7	10000	5	1	0	5	0
20	285	7	10000	5	1	0	5	0
20	286	7	10000	5	1	0	5	0
20	287	7	10000	5	1	0	5	0
21	288	7	10000	5	1	0	5	0
19	289	7	10000	5	1	0	5	0
18	290	7	10000	5	1	0	5	0
19	291	7	10000	5	1	0	5	0
20	292	7	10000	5	1	0	5	0
20	293	7	10000	5	1	0	5	0
19	294	7	10000	5	1	0	5	0
19	295	7	10000	5	1	0	5	0
18	296	7	10000	5	1	0	5	0
18	297	7	10000	5	1	0	5	0
16	298	7	10000	5	1	0	5	0
17	299	7	10000	5	1	0	5	0
17	300	7	10000	5	1	0	5	0
16	301	7	10000	5	1	0	5	0
16	301	7	10000	5	1	0	5	0
15	302	7	10000	5	1	0	5	0
14	304	7	10000	5	1	0	5	0
14	305	7	10000	5	1	0	5	0
14	306	7	10000	5	1	0	5	0
14	307	7	10000	5	1	0	5	0
15	308	7	10000	5	1	0	5	0
12	309	7	10000	5	1	0	5	0
11	310	7	10000	5	1	0	5	0
12	311	7	10000	5	1	0	5	0
12	312	7	10000	5	1	0	5	0
12	313	7	10000	5	1	0	5	0
11	314	7	10000	5	1	0	5	0
12	315	7	10000	5	1	0	5	0
12	316	7	10000	5	1	0	5	0
13	317	7	10000	5	1	0	5	0
13	318	7	10000	5	1	0	5	0
15	319	7	10000	5	1	0	5	0
15	320	7	10000	5	1	0	5	0
14	321	7	10000	5	1	0	5	0
14	322	7	10000	5	1	0	5	0
14	323	7	10000	5	1	0	5	0
13	324	7	10000	5	1	0	5	0
12	325	7	10000	5	1	0	5	0
13	326	7	10000	5	1	0	5	0
13	327	7	10000	5	1	0	5	0
14	328	7	10000	5	1	0	5	0
11	329	7	10000	5	1	0	5	0
11	330	7	10000	5	1	0	5	0
13	331	7	10000	5	1	0	5	0
12	332	7	10000	5	1	0	5	0
12	333	7	10000	5	1	0	5	0
12	334	7	10000	5	1	0	5	0
12	335	7	10000	5	1	0	5	0
12	336	7	10000	5	1	0	5	0
12	337	7	10000	5	1	0	5	0
13	338	7	10000	5	1	0	5	0
15	339	7	10000	5	1	0	5	0
17	340	7	10000	5	1	0	5	0
17	341	7	10000	5	1	0	5	0
17	342	7	10000	5	1	0	5	0
17	343	7	10000	5	1	0	5	0
18	344	7	10000	5	1	0	5	0
18	345	7	10000	5	1	0	5	0
18	346	7	10000	5	1	0	5	0
17	347	7	10000	5	1	0	5	0
17	348	7	10000	5	1	0	5	0
15	349	7	10000	5	1	0	5	0
14	350	7	10000	5	1	0	5	0
16	351	7	10000	5	1	0	5	0
17	352	7	10000	5	1	0	5	0
17	353	7	10000	5	1	0	5	0
17	354	7	10000	5	1	0	5	0
16	355	7	10000	5	1	0	5	0
15	356	7	10000	5	1	0	5	0
16	357	7	10000	5	1	0	5	0
16	358	7	10000	5	1	0	5	0
18	359	7	10000	5	1	0	5	0
17	360	7	10000	5	1	0	5	0
16	361	7	10000	5	1	0	5	0
16	362	7	10000	5	1	0	5	0
17	363	7	10000	5	1	0	5	0
17	364	7	10000	5	1	0	5	0
16	365	7	10000	5	1	0	5	0
17	366	7	10000	5	1	0	5	0
18	367	7	10000	5	1	0	5	0
18	368	7	10000	5	1	0	5	0
17	369	7	10000	5	1	0	5	0
16	370	7	10000	5	1	0	5	0
16	371	7	10000	5	1	0	5	0
16	372	7	10000	5	1	0	5	0
15	373	7	10000	5	1	0	5	0
16	374	7	10000	5	1	0	5	0
16	375	7	10000	5	1	0	5	0
16	376	7	10000	5	1	0	5	0
17	377	7	10000	5	1	0	5	0
17	378	7	10000	5	1	0	5	0
20	379	7	10000	5	1	0	5	0
20	380	7	10000	5	1	0	5	0
19	381	7	10000	5	1	0	5	0
19	381	7	10000	5	1	0	5	0
19	382	7	10000	5	1	0	5	0
19	384	7	10000	5	1	0	5	0
19	385	7	10000	5	1	0	5	0
20	386	7	10000	5	1	0	5	0
21	387	7	10000	5	1	0	5	0
23	388	7	10000	5	1	0	5	0
21	389	7	10000	5	1	0	5	0
20	390	7	10000	5	1	0	5	0
20	391	7	10000	5	1	0	5	0
21	392	7	10000	5	1	0	5	0
23	393	7	10000	5	1	0	5	0
25	394	7	10000	5	1	0	5	0
25	395	7	10000	5	1	0	5	0
23	396	7	10000	5	1	0	5	0
23	397	7	10000	5	1	0	5	0
21	398	7	10000	5	1	0	5	0
24	399	7	10000	5	1	0	5	0
25	400	7	10000	5	1	0	5	0
23	401	7	10000	5	1	0	5	0
22	402	7	10000	5	1	0	5	0
23	403	7	10000	5	1	0	5	0
21	404	7	10000	5	1	0	5	0
21	405	7	10000	5	1	0	5	0
20	406	7	10000	5	1	0	5	0
20	407	7	10000	5	1	0	5	0
20	408	7	10000	5	1	0	5	0
19	409	7	10000	5	1	0	5	0
17	410	7	10000	5	1	0	5	0
18	411	7	10000	5	1	0	5	0
20	412	7	10000	5	1	0	5	0
20	413	7	10000	5	1	0	5	0
20	414	7	10000	5	1	0	5	0
21	415	7	10000	5	1	0	5	0
20	416	7	10000	5	1	0	5	0
20	417	7	10000	5	1	0	5	0
19	418	7	10000	5	1	0	5	0
20	419	7	10000	5	1	0	5	0
20	420	7	10000	5	1	0	5	0
21	421	7	10000	5	1	0	5	0
22	422	7	10000	5	1	0	5	0
22	423	7	10000	5	1	0	5	0
24	424	7	10000	5	1	0	5	0
27	425	7	10000	5	1	0	5	0
28	426	7	10000	5	1	0	5	0
26	427	7	10000	5	1	0	5	0
27	428	7	10000	5	1	0	5	0
25	429	7	10000	5	1	0	5	0
24	430	7	10000	5	1	0	5	0
23	431	7	10000	5	1	0	5	0
23	432	7	10000	5	1	0	5	0
22	433	7	10000	5	1	0	5	0
22	434	7	10000	5	1	0	5	0
21	435	7	10000	5	1	0	5	0
20	436	7	10000	5	1	0	5	0
20	437	7	10000	5	1	0	5	0
19	438	7	10000	5	1	0	5	0
21	439	7	10000	5	1	0	5	0
20	440	7	10000	5	1	0	5	0
20	441	7	10000	5	1	0	5	0
20	442	7	10000	5	1	0	5	0
21	443	7	10000	5	1	0	5	0
22	444	7	10000	5	1	0	5	0
22	445	7	10000	5	1	0	5	0
24	446	7	10000	5	1	0	5	0
23	447	7	10000	5	1	0	5	0
23	448	7	10000	5	1	0	5	0
21	449	7	10000	5	1	0	5	0
20	450	7	10000	5	1	0	5	0
20	451	7	10000	5	1	0	5	0
19	452	7	10000	5	1	0	5	0
18	453	7	10000	5	1	0	5	0
18	454	7	10000	5	1	0	5	0
18	455	7	10000	5	1	0	5	0
16	456	7	10000	5	1	0	5	0
16	457	7	10000	5	1	0	5	0
15	458	7	10000	5	1	0	5	0
19	459	7	10000	5	1	0	5	0
20	460	7	10000	5	1	0	5	0
20	461	7	10000	5	1	0	5	0
20	461	7	10000	5	1	0	5	0
20	462	7	10000	5	1	0	5	0
19	464	7	10000	5	1	0	5	0
18	465	7	10000	5	1	0	5	0
19	466	7	10000	5	1	0	5	0
18	467	7	10000	5	1	0	5	0
19	468	7	10000	5	1	0	5	0
17	469	7	10000	5	1	0	5	0
16	470	7	10000	5	1	0	5	0
17	471	7	10000	5	1	0	5	0
18	472	7	10000	5	1	0	5	0
18	473	7	10000	5	1	0	5	0
17	474	7	10000	5	1	0	5	0
17	475	7	10000	5	1	0	5	0
16	476	7	10000	5	1	0	5	0
15	477	7	10000	5	1	0	5	0
15	478	7	10000	5	1	0	5	0
17	479	7	10000	5	1	0	5	0
17	480	7	10000	5	1	0	5	0
17	481	7	10000	5	1	0	5	0
18	482	7	10000	5	1	0	5	0
18	483	7	10000	5	1	0	5	0
18	484	7	10000	5	1	0	5	0
17	485	7	10000	5	1	0	5	0
17	486	7	10000	5	1	0	5	0
17	487	7	10000	5	1	0	5	0
18	488	7	10000	5	1	0	5	0
16	489	7	10000	5	1	0	5	0
15	490	7	10000	5	1	0	5	0
16	491	7	10000	5	1	0	5	0
18	492	7	10000	5	1	0	5	0
19	493	7	10000	5	1	0	5	0
20	494	7	10000	5	1	0	5	0
21	495	7	10000	5	1	0	5	0
22	496	7	10000	5	1	0	5	0
23	497	7	10000	5	1	0	5	0
25	498	7	10000	5	1	0	5	0
27	499	7	10000	5	1	0	5	0
28	500	7	10000	5	1	0	5	0
29	501	7	10000	5	1	0	5	0
28	502	7	10000	5	1	0	5	1
28	503	7	10000	5	1	0	5	1
28	504	7	10000	5	1	0	5	1
27	505	7	10000	5	1	0	5	1
26	506	7	10000	5	1	0	5	1
26	507	7	10000	5	1	0	5	1
26	508	7	10000	5	1	0	5	1
24	509	7	10000	5	1	0	5	1
24	510	7	10000	5	1	0	5	1
23	511	7	10000	5	1	0	5	1
23	512	7	10000	5	1	0	5	1
21	513	7	10000	5	1	0	5	1
20	514	7	10000	5	1	0	5	1
20	515	7	10000	5	1	0	5	1
19	516	7	10000	5	1	0	5	1
18	517	7	10000	5	1	0	5	1
18	518	7	10000	5	1	0	5	1
18	519	7	10000	5	1	0	5	1
18	520	7	10000	5	1	0	5	1
17	521	7	10000	5	1	0	5	1
16	522	7	10000	5	1	0	5	1
15	523	7	10000	5	1	0	5	1
15	524	7	10000	5	1	0	5	1
14	525	7	10000	5	1	0	5	1
14	526	7	10000	5	1	0	5	1
14	527	7	10000	5	1	0	5	1
14	528	7	10000	5	1	0	5	1
12	529	7	10000	5	1	0	5	1
12	530	7	10000	5	1	0	5	1
12	531	7	10000	5	1	0	5	1
12	532	7	10000	5	1	0	5	1
13	533	7	10000	5	1	0	5	1
13	534	7	10000	5	1	0	5	1
14	535	7	10000	5	1	0	5	1
14	536	7	10000	5	1	0	5	1
16	537	7	10000	5	1	0	5	1
17	538	7	10000	5	1	0	5	1
18	539	7	10000	5	1	0	5	1
17	540	7	10000	5	1	0	5	1
17	541	7	10000	5	1	0	5	1
16	542	7	10000	5	1	0	5	1
17	543	7	10000	5	1	0	5	1
18	544	7	10000	5	1	0	5	1
18	545	7	10000	5	1	0	5	1
20	546	7	10000	5	1	0	5	1
20	547	7	10000	5	1	0	5	1
21	548	7	10000	5	1	0	5	1
19	549	7	10000	5	1	0	5	1
19	550	7	10000	5	1	0	5	1
18	551	7	10000	5	1	0	5	1
19	552	7	10000	5	1	0	5	0
20	553	7	10000	5	1	0	5	0
20	554	7	10000	5	1	0	5	0
20	555	7	10000	5	1	0	5	0
19	556	7	10000	5	1	0	5	0
18	557	7	10000	5	1	0	5	0
17	558	7	10000	5	1	0	5	0
19	559	7	10000	5	1	0	5	0
18	560	7	10000	5	1	0	5	0
18	561	7	10000	5	1	0	5	0
16	562	7	10000	5	1	0	5	0
17	563	7	10000	5	1	0	5	0
18	564	7	10000	5	1	0	5	0
16	565	7	10000	5	1	0	5	0
17	566	7	10000	5	1	0	5	0
19	567	7	10000	5	1	0	5	0
19	568	7	10000	5	1	0	5	0
18	569	7	10000	5	1	0	5	0
18	570	7	10000	5	1	0	5	0
19	571	7	10000	5	1	0	5	0
20	572	7	10000	5	1	0	5	0
21	573	7	10000	5	1	0	5	0
21	574	7	10000	5	1	0	5	0
21	575	7	10000	5	1	0	5	0
20	576	7	10000	5	1	0	5	0
20	577	7	10000	5	1	0	5	0
21	578	7	10000	5	1	0	5	0
22	579	7	10000	5	1	0	5	0
22	580	7	10000	5	1	0	5	0
22	581	7	10000	5	1	0	5	0
21	582	7	10000	5	1	0	5	0
22	583	7	10000	5	1	0	5	0
25	584	7	10000	5	1	0	5	0
27	585	7	10000	5	1	0	5	0
30	586	7	10000	5	1	0	5	0
34	587	7	10000	5	1	0	5	0
35	588	7	10000	5	1	0	5	0
32	589	7	10000	5	1	0	5	0
31	590	7	10000	5	1	0	5	0
30	591	7	10000	5	1	0	5	0
30	592	7	10000	5	1	0	5	0
29	593	7	10000	5	1	0	5	0
28	594	7	10000	5	1	0	5	0
27	595	7	10000	5	1	0	5	0
27	596	7	10000	5	1	0	5	0
29	597	7	10000	5	1	0	5	0
28	598	7	10000	5	1	0	5	0
31	599	7	10000	5	1	0	5	0
33	609	7	10000	5	1	0	5	0
39	610	7	10000	5	1	0	5	0
51	611	7	10000	5	1	0	5	0
71	612	7	10000	5	1	0	5	0
94	613	7	10000	5	1	0	5	0
106	614	7	10000	5	1	0	5	0
105	615	7	10000	5	1	0	5	0
111	616	7	10000	5	1	0	5	0
113	617	7	10000	5	1	0	5	0
130	618	7	10000	5	1	0	5	0
154	617	7	10000	5	1	0	5	0
152	618	7	10000	5	1	0	5	0
154	619	7	10000	5	1	0	5	0
175	620	7	10000	5	1	0	5	0
205	621	7	10000	5	1	0	5	0
226	622	7	10000	5	1	0	5	0
233	623	7	10000	5	1	0	5	0
233	624	7	10000	5	1	0	5	0
228	625	7	10000	5	1	0	5	0
235	626	7	10000	5	1	0	5	0
249	624	7	10000	5	1	0	5	0
265	625	7	10000	5	1	0	5	0
272	626	7	10000	5	1	0	5	0
268	627	7	10000	5	1	0	5	0
258	628	7	10000	5	1	0	5	0
246	629	7	10000	5	1	0	5	0
235	632	7	10000	5	1	0	5	0
229	633	7	10000	5	1	0	5	0
231	634	7	10000	5	1	0	5	0
237	635	7	10000	5	1	0	5	0
243	636	7	10000	5	1	0	5	0
235	637	7	10000	5	1	0	5	0
233	638	7	10000	5	1	0	5	0
237	639	7	10000	5	1	0	5	0
235	638	7	10000	5	1	0	5	0
229	639	7	10000	5	1	0	5	0
220	640	7	10000	5	1	0	5	0
210	641	7	10000	5	1	0	5	0
199	642	7	10000	5	1	0	5	0
192	643	7	10000	5	1	0	5	0
184	642	7	10000	5	1	0	5	0
176	643	7	10000	5	1	0	5	0
169	644	7	10000	5	1	0	5	0
164	645	7	10000	5	1	0	5	0
160	649	7	10000	5	1	0	5	0
153	650	7	10000	5	1	0	5	0
147	651	7	10000	5	1	0	5	0
142	652	7	10000	5	1	0	5	0
137	653	7	10000	5	1	0	5	0
129	654	7	10000	5	1	0	5	0
124	653	7	10000	5	1	0	5	0
120	654	7	10000	5	1	0	5	0
116	655	7	10000	5	1	0	5	0
113	656	7	10000	5	1	0	5	0
111	657	7	10000	5	1	0	5	0
109	658	7	10000	5	1	0	5	0
108	659	7	10000	5	1	0	5	0
106	660	7	10000	5	1	0	5	0
103	661	7	10000	5	1	0	5	0
101	662	7	10000	5	1	0	5	0
97	663	7	10000	5	1	0	5	0
94	664	7	10000	5	1	0	5	0
90	664	7	10000	5	1	0	5	0
86	665	7	10000	5	1	0	5	0
82	666	7	10000	5	1	0	5	0
80	667	7	10000	5	1	0	5	0
77	669	7	10000	5	1	0	5	0
75	670	7	10000	5	1	0	5	0
72	671	7	10000	5	1	0	5	0
68	672	7	10000	5	1	0	5	0
67	673	7	10000	5	1	0	5	0
66	674	7	10000	5	1	0	5	0
65	672	7	10000	5	1	0	5	0
65	673	7	10000	5	1	0	5	0
65	674	7	10000	5	1	0	5	0
65	675	7	10000	5	1	0	5	0
65	676	7	10000	5	1	0	5	0
65	677	7	10000	5	1	0	5	0
64	678	7	10000	5	1	0	5	0
65	679	7	10000	5	1	0	5	0
63	680	7	10000	5	1	0	5	0
63	681	7	10000	5	1	0	5	0
61	682	7	10000	5	1	0	5	0
59	683	7	10000	5	1	0	5	0
57	684	7	10000	5	1	0	5	0
56	685	7	10000	5	1	0	5	0
55	686	7	10000	5	1	0	5	0
54	687	7	10000	5	1	0	5	0
53	688	7	10000	5	1	0	5	0
49	689	7	10000	5	1	0	5	0
48	690	7	10000	5	1	0	5	0
46	691	7	10000	5	1	0	5	0
45	692	7	10000	5	1	0	5	0
44	693	7	10000	5	1	0	5	0
44	694	7	10000	5	1	0	5	0
45	695	7	10000	5	1	0	5	0
46	696	7	10000	5	1	0	5	0
45	697	7	10000	5	1	0	5	0
45	698	7	10000	5	1	0	5	0
48	699	7	10000	5	1	0	5	0
46	700	7	10000	5	1	0	5	0
44	701	7	10000	5	1	0	5	0
44	702	7	10000	5	1	0	5	0
42	703	7	10000	5	1	0	5	0
40	704	7	10000	5	1	0	5	0
39	705	7	10000	5	1	0	5	0
38	706	7	10000	5	1	0	5	0
36	707	7	10000	5	1	0	5	0
36	708	7	10000	5	1	0	5	0
33	709	7	10000	5	1	0	5	0
33	710	7	10000	5	1	0	5	0
32	711	7	10000	5	1	0	5	0
31	712	7	10000	5	1	0	5	0
30	713	7	10000	5	1	0	5	0
30	714	7	10000	5	1	0	5	0
29	715	7	10000	5	1	0	5	0
29	716	7	10000	5	1	0	5	0
29	717	7	10000	5	1	0	5	0
28	718	7	10000	5	1	0	5	0
29	719	7	10000	5	1	0	5	0
28	720	7	10000	5	1	0	5	0
28	721	7	10000	5	1	0	5	0
28	722	7	10000	5	1	0	5	0
27	723	7	10000	5	1	0	5	0
26	724	7	10000	5	1	0	5	0
25	725	7	10000	5	1	0	5	0
24	726	7	10000	5	1	0	5	0
26	727	7	10000	5	1	0	5	0
27	728	7	10000	5	1	0	5	0
24	729	7	10000	5	1	0	5	0
24	730	7	10000	5	1	0	5	0
23	731	7	10000	5	1	0	5	0
22	732	7	10000	5	1	0	5	0
24	733	7	10000	5	1	0	5	0
26	734	7	10000	5	1	0	5	0
26	735	7	10000	5	1	0	5	0
27	736	7	10000	5	1	0	5	0
28	737	7	10000	5	1	0	5	0
27	738	7	10000	5	1	0	5	0
29	739	7	10000	5	1	0	5	0
29	740	7	10000	5	1	0	5	0
28	741	7	10000	5	1	0	5	0
27	742	7	10000	5	1	0	5	0
26	743	7	10000	5	1	0	5	0
25	744	7	10000	5	1	0	5	0
24	745	7	10000	5	1	0	5	0
25	746	7	10000	5	1	0	5	0
25	747	7	10000	5	1	0	5	0
26	748	7	10000	5	1	0	5	0
22	749	7	10000	5	1	0	5	0
22	750	7	10000	5	1	0	5	0
22	751	7	10000	5	1	0	5	0
22	755	7	10000	5	1	0	5	0
20	756	7	10000	5	1	0	5	0
20	757	7	10000	5	1	0	5	0
21	758	7	10000	5	1	0	5	0
20	760	7	10000	5	1	0	5	0
20	761	7	10000	5	1	0	5	0
20	762	7	10000	5	1	0	5	0
21	763	7	10000	5	1	0	5	0
21	764	7	10000	5	1	0	5	0
20	765	7	10000	5	1	0	5	0
19	767	7	10000	5	1	0	5	0
19	768	7	10000	5	1	0	5	0
20	769	7	10000	5	1	0	5	0
20	770	7	10000	5	1	0	5	0
22	771	7	10000	5	1	0	5	0
23	772	7	10000	5	1	0	5	0
26	771	7	10000	5	1	0	5	0
25	772	7	10000	5	1	0	5	0
25	773	7	10000	5	1	0	5	0
26	774	7	10000	5	1	0	5	0
24	775	7	10000	5	1	0	5	0
23	776	7	10000	5	1	0	5	0
23	778	7	10000	5	1	0	5	0
22	779	7	10000	5	1	0	5	0
22	780	7	10000	5	1	0	5	0
22	781	7	10000	5	1	0	5	0
22	782	7	10000	5	1	0	5	0
24	783	7	10000	5	1	0	5	0
24	782	7	10000	5	1	0	5	0
23	783	7	10000	5	1	0	5	0
23	784	7	10000	5	1	0	5	0
24	785	7	10000	5	1	0	5	0
