value	EMG	Stimulus	EMG_sensitivity	Total_Trial_Nr	practise	acq	probe_nr	Startle_Probe
80	2	7	10000	1	1	0	1	0
77	3	7	10000	1	1	0	1	0
75	4	7	10000	1	1	0	1	0
77	5	7	10000	1	1	0	1	0
80	6	7	10000	1	1	0	1	0
80	7	7	10000	1	1	0	1	0
81	8	7	10000	1	1	0	1	0
83	9	7	10000	1	1	0	1	0
83	10	7	10000	1	1	0	1	0
80	11	7	10000	1	1	0	1	0
79	12	7	10000	1	1	0	1	0
79	13	7	10000	1	1	0	1	0
78	14	7	10000	1	1	0	1	0
77	15	7	10000	1	1	0	1	0
75	16	7	10000	1	1	0	1	0
73	17	7	10000	1	1	0	1	0
74	18	7	10000	1	1	0	1	0
74	19	7	10000	1	1	0	1	0
77	20	7	10000	1	1	0	1	0
84	21	7	10000	1	1	0	1	0
95	22	7	10000	1	1	0	1	0
99	23	7	10000	1	1	0	1	0
100	24	7	10000	1	1	0	1	0
105	25	7	10000	1	1	0	1	0
110	26	7	10000	1	1	0	1	0
113	27	7	10000	1	1	0	1	0
112	28	7	10000	1	1	0	1	0
107	29	7	10000	1	1	0	1	0
104	30	7	10000	1	1	0	1	0
105	31	7	10000	1	1	0	1	0
105	32	7	10000	1	1	0	1	0
102	33	7	10000	1	1	0	1	0
102	34	7	10000	1	1	0	1	0
99	35	7	10000	1	1	0	1	0
96	36	7	10000	1	1	0	1	0
95	37	7	10000	1	1	0	1	0
90	38	7	10000	1	1	0	1	0
87	39	7	10000	1	1	0	1	0
84	40	7	10000	1	1	0	1	0
82	41	7	10000	1	1	0	1	0
79	42	7	10000	1	1	0	1	0
79	43	7	10000	1	1	0	1	0
78	44	7	10000	1	1	0	1	0
77	45	7	10000	1	1	0	1	0
77	46	7	10000	1	1	0	1	0
76	47	7	10000	1	1	0	1	0
76	48	7	10000	1	1	0	1	0
76	49	7	10000	1	1	0	1	0
74	50	7	10000	1	1	0	1	0
71	51	7	10000	1	1	0	1	0
72	52	7	10000	1	1	0	1	0
70	53	7	10000	1	1	0	1	0
67	54	7	10000	1	1	0	1	0
64	55	7	10000	1	1	0	1	0
61	56	7	10000	1	1	0	1	0
59	57	7	10000	1	1	0	1	0
57	58	7	10000	1	1	0	1	0
64	59	7	10000	1	1	0	1	0
66	60	7	10000	1	1	0	1	0
66	61	7	10000	1	1	0	1	0
62	62	7	10000	1	1	0	1	0
62	63	7	10000	1	1	0	1	0
67	64	7	10000	1	1	0	1	0
71	65	7	10000	1	1	0	1	0
70	66	7	10000	1	1	0	1	0
72	67	7	10000	1	1	0	1	0
78	68	7	10000	1	1	0	1	0
80	69	7	10000	1	1	0	1	0
82	70	7	10000	1	1	0	1	0
81	71	7	10000	1	1	0	1	0
80	72	7	10000	1	1	0	1	0
81	73	7	10000	1	1	0	1	0
81	74	7	10000	1	1	0	1	0
80	75	7	10000	1	1	0	1	0
81	76	7	10000	1	1	0	1	0
78	77	7	10000	1	1	0	1	0
76	78	7	10000	1	1	0	1	0
74	79	7	10000	1	1	0	1	0
72	80	7	10000	1	1	0	1	0
77	81	7	10000	1	1	0	1	0
80	82	7	10000	1	1	0	1	0
79	83	7	10000	1	1	0	1	0
76	84	7	10000	1	1	0	1	0
73	85	7	10000	1	1	0	1	0
71	86	7	10000	1	1	0	1	0
69	87	7	10000	1	1	0	1	0
69	88	7	10000	1	1	0	1	0
68	89	7	10000	1	1	0	1	0
64	90	7	10000	1	1	0	1	0
64	91	7	10000	1	1	0	1	0
69	92	7	10000	1	1	0	1	0
72	93	7	10000	1	1	0	1	0
74	94	7	10000	1	1	0	1	0
77	95	7	10000	1	1	0	1	0
74	96	7	10000	1	1	0	1	0
74	97	7	10000	1	1	0	1	0
75	98	7	10000	1	1	0	1	0
72	99	7	10000	1	1	0	1	0
70	100	7	10000	1	1	0	1	0
68	101	7	10000	1	1	0	1	0
63	102	7	10000	1	1	0	1	0
60	103	7	10000	1	1	0	1	0
61	104	7	10000	1	1	0	1	0
61	105	7	10000	1	1	0	1	0
60	106	7	10000	1	1	0	1	0
61	107	7	10000	1	1	0	1	0
69	108	7	10000	1	1	0	1	0
72	109	7	10000	1	1	0	1	0
70	110	7	10000	1	1	0	1	0
68	111	7	10000	1	1	0	1	0
68	112	7	10000	1	1	0	1	0
66	113	7	10000	1	1	0	1	0
65	114	7	10000	1	1	0	1	0
66	115	7	10000	1	1	0	1	0
67	116	7	10000	1	1	0	1	0
66	117	7	10000	1	1	0	1	0
66	118	7	10000	1	1	0	1	0
64	119	7	10000	1	1	0	1	0
67	120	7	10000	1	1	0	1	0
73	121	7	10000	1	1	0	1	0
77	122	7	10000	1	1	0	1	0
79	123	7	10000	1	1	0	1	0
77	124	7	10000	1	1	0	1	0
77	125	7	10000	1	1	0	1	0
79	126	7	10000	1	1	0	1	0
80	127	7	10000	1	1	0	1	0
84	128	7	10000	1	1	0	1	0
84	129	7	10000	1	1	0	1	0
84	130	7	10000	1	1	0	1	0
85	131	7	10000	1	1	0	1	0
85	132	7	10000	1	1	0	1	0
83	133	7	10000	1	1	0	1	0
80	134	7	10000	1	1	0	1	0
78	135	7	10000	1	1	0	1	0
79	136	7	10000	1	1	0	1	0
78	137	7	10000	1	1	0	1	0
78	138	7	10000	1	1	0	1	0
76	139	7	10000	1	1	0	1	0
74	140	7	10000	1	1	0	1	0
73	141	7	10000	1	1	0	1	0
72	142	7	10000	1	1	0	1	0
71	143	7	10000	1	1	0	1	0
71	144	7	10000	1	1	0	1	0
72	145	7	10000	1	1	0	1	0
71	146	7	10000	1	1	0	1	0
68	147	7	10000	1	1	0	1	0
67	148	7	10000	1	1	0	1	0
66	149	7	10000	1	1	0	1	0
64	150	7	10000	1	1	0	1	0
60	151	7	10000	1	1	0	1	0
59	152	7	10000	1	1	0	1	0
59	153	7	10000	1	1	0	1	0
62	154	7	10000	1	1	0	1	0
62	155	7	10000	1	1	0	1	0
60	156	7	10000	1	1	0	1	0
57	157	7	10000	1	1	0	1	0
56	158	7	10000	1	1	0	1	0
57	159	7	10000	1	1	0	1	0
55	160	7	10000	1	1	0	1	0
57	161	7	10000	1	1	0	1	0
62	162	7	10000	1	1	0	1	0
65	163	7	10000	1	1	0	1	0
64	164	7	10000	1	1	0	1	0
68	165	7	10000	1	1	0	1	0
70	166	7	10000	1	1	0	1	0
71	167	7	10000	1	1	0	1	0
68	168	7	10000	1	1	0	1	0
68	169	7	10000	1	1	0	1	0
68	170	7	10000	1	1	0	1	0
66	171	7	10000	1	1	0	1	0
67	172	7	10000	1	1	0	1	0
68	173	7	10000	1	1	0	1	0
70	174	7	10000	1	1	0	1	0
71	175	7	10000	1	1	0	1	0
72	176	7	10000	1	1	0	1	0
71	177	7	10000	1	1	0	1	0
77	178	7	10000	1	1	0	1	0
82	179	7	10000	1	1	0	1	0
82	180	7	10000	1	1	0	1	0
85	181	7	10000	1	1	0	1	0
84	182	7	10000	1	1	0	1	0
81	183	7	10000	1	1	0	1	0
79	184	7	10000	1	1	0	1	0
76	185	7	10000	1	1	0	1	0
76	186	7	10000	1	1	0	1	0
74	187	7	10000	1	1	0	1	0
75	188	7	10000	1	1	0	1	0
79	189	7	10000	1	1	0	1	0
83	190	7	10000	1	1	0	1	0
82	191	7	10000	1	1	0	1	0
81	192	7	10000	1	1	0	1	0
79	193	7	10000	1	1	0	1	0
78	194	7	10000	1	1	0	1	0
80	195	7	10000	1	1	0	1	0
80	196	7	10000	1	1	0	1	0
76	197	7	10000	1	1	0	1	0
74	198	7	10000	1	1	0	1	0
74	199	7	10000	1	1	0	1	0
74	200	7	10000	1	1	0	1	0
73	201	7	10000	1	1	0	1	0
73	202	7	10000	1	1	0	1	0
75	203	7	10000	1	1	0	1	0
74	204	7	10000	1	1	0	1	0
76	205	7	10000	1	1	0	1	0
80	206	7	10000	1	1	0	1	0
82	207	7	10000	1	1	0	1	0
80	208	7	10000	1	1	0	1	0
79	209	7	10000	1	1	0	1	0
78	210	7	10000	1	1	0	1	0
80	211	7	10000	1	1	0	1	0
82	212	7	10000	1	1	0	1	0
80	213	7	10000	1	1	0	1	0
77	214	7	10000	1	1	0	1	0
74	215	7	10000	1	1	0	1	0
73	216	7	10000	1	1	0	1	0
71	217	7	10000	1	1	0	1	0
70	218	7	10000	1	1	0	1	0
70	219	7	10000	1	1	0	1	0
70	220	7	10000	1	1	0	1	0
71	221	7	10000	1	1	0	1	0
74	222	7	10000	1	1	0	1	0
75	223	7	10000	1	1	0	1	0
73	224	7	10000	1	1	0	1	0
72	225	7	10000	1	1	0	1	0
70	226	7	10000	1	1	0	1	0
67	227	7	10000	1	1	0	1	0
65	228	7	10000	1	1	0	1	0
65	229	7	10000	1	1	0	1	0
62	230	7	10000	1	1	0	1	0
60	231	7	10000	1	1	0	1	0
60	232	7	10000	1	1	0	1	0
61	233	7	10000	1	1	0	1	0
59	234	7	10000	1	1	0	1	0
57	235	7	10000	1	1	0	1	0
57	236	7	10000	1	1	0	1	0
56	237	7	10000	1	1	0	1	0
56	238	7	10000	1	1	0	1	0
57	239	7	10000	1	1	0	1	0
59	240	7	10000	1	1	0	1	0
60	241	7	10000	1	1	0	1	0
57	242	7	10000	1	1	0	1	0
58	243	7	10000	1	1	0	1	0
59	244	7	10000	1	1	0	1	0
59	245	7	10000	1	1	0	1	0
59	246	7	10000	1	1	0	1	0
56	247	7	10000	1	1	0	1	0
56	248	7	10000	1	1	0	1	0
54	249	7	10000	1	1	0	1	0
51	250	7	10000	1	1	0	1	0
50	251	7	10000	1	1	0	1	0
54	252	7	10000	1	1	0	1	0
56	253	7	10000	1	1	0	1	0
55	254	7	10000	1	1	0	1	0
56	255	7	10000	1	1	0	1	0
58	256	7	10000	1	1	0	1	0
59	257	7	10000	1	1	0	1	0
59	258	7	10000	1	1	0	1	0
57	259	7	10000	1	1	0	1	0
57	260	7	10000	1	1	0	1	0
59	261	7	10000	1	1	0	1	0
58	262	7	10000	1	1	0	1	0
57	263	7	10000	1	1	0	1	0
61	264	7	10000	1	1	0	1	0
62	265	7	10000	1	1	0	1	0
61	266	7	10000	1	1	0	1	0
59	267	7	10000	1	1	0	1	0
61	268	7	10000	1	1	0	1	0
67	269	7	10000	1	1	0	1	0
71	270	7	10000	1	1	0	1	0
72	271	7	10000	1	1	0	1	0
72	272	7	10000	1	1	0	1	0
71	273	7	10000	1	1	0	1	0
70	274	7	10000	1	1	0	1	0
71	275	7	10000	1	1	0	1	0
69	276	7	10000	1	1	0	1	0
66	277	7	10000	1	1	0	1	0
65	278	7	10000	1	1	0	1	0
63	279	7	10000	1	1	0	1	0
63	280	7	10000	1	1	0	1	0
62	281	7	10000	1	1	0	1	0
61	282	7	10000	1	1	0	1	0
62	283	7	10000	1	1	0	1	0
62	284	7	10000	1	1	0	1	0
63	285	7	10000	1	1	0	1	0
65	286	7	10000	1	1	0	1	0
66	287	7	10000	1	1	0	1	0
66	288	7	10000	1	1	0	1	0
64	289	7	10000	1	1	0	1	0
64	290	7	10000	1	1	0	1	0
64	291	7	10000	1	1	0	1	0
66	292	7	10000	1	1	0	1	0
65	293	7	10000	1	1	0	1	0
63	294	7	10000	1	1	0	1	0
62	295	7	10000	1	1	0	1	0
60	296	7	10000	1	1	0	1	0
58	297	7	10000	1	1	0	1	0
55	298	7	10000	1	1	0	1	0
53	299	7	10000	1	1	0	1	0
51	300	7	10000	1	1	0	1	0
49	301	7	10000	1	1	0	1	0
48	302	7	10000	1	1	0	1	0
50	303	7	10000	1	1	0	1	0
52	304	7	10000	1	1	0	1	0
51	305	7	10000	1	1	0	1	0
51	306	7	10000	1	1	0	1	0
50	307	7	10000	1	1	0	1	0
48	308	7	10000	1	1	0	1	0
48	309	7	10000	1	1	0	1	0
50	310	7	10000	1	1	0	1	0
56	311	7	10000	1	1	0	1	0
67	312	7	10000	1	1	0	1	0
77	313	7	10000	1	1	0	1	0
86	314	7	10000	1	1	0	1	0
90	315	7	10000	1	1	0	1	0
90	316	7	10000	1	1	0	1	0
87	317	7	10000	1	1	0	1	0
84	318	7	10000	1	1	0	1	0
83	319	7	10000	1	1	0	1	0
90	320	7	10000	1	1	0	1	0
96	321	7	10000	1	1	0	1	0
93	322	7	10000	1	1	0	1	0
90	323	7	10000	1	1	0	1	0
87	324	7	10000	1	1	0	1	0
84	325	7	10000	1	1	0	1	0
81	326	7	10000	1	1	0	1	0
80	327	7	10000	1	1	0	1	0
77	328	7	10000	1	1	0	1	0
74	329	7	10000	1	1	0	1	0
71	330	7	10000	1	1	0	1	0
70	331	7	10000	1	1	0	1	0
76	332	7	10000	1	1	0	1	0
81	333	7	10000	1	1	0	1	0
82	334	7	10000	1	1	0	1	0
82	335	7	10000	1	1	0	1	0
81	336	7	10000	1	1	0	1	0
78	337	7	10000	1	1	0	1	0
75	338	7	10000	1	1	0	1	0
77	339	7	10000	1	1	0	1	0
78	340	7	10000	1	1	0	1	0
76	341	7	10000	1	1	0	1	0
72	342	7	10000	1	1	0	1	0
69	343	7	10000	1	1	0	1	0
68	344	7	10000	1	1	0	1	0
67	345	7	10000	1	1	0	1	0
64	346	7	10000	1	1	0	1	0
62	347	7	10000	1	1	0	1	0
60	348	7	10000	1	1	0	1	0
57	349	7	10000	1	1	0	1	0
55	350	7	10000	1	1	0	1	0
52	351	7	10000	1	1	0	1	0
52	352	7	10000	1	1	0	1	0
51	353	7	10000	1	1	0	1	0
49	354	7	10000	1	1	0	1	0
48	355	7	10000	1	1	0	1	0
51	356	7	10000	1	1	0	1	0
52	357	7	10000	1	1	0	1	0
51	358	7	10000	1	1	0	1	0
50	359	7	10000	1	1	0	1	0
52	360	7	10000	1	1	0	1	0
53	361	7	10000	1	1	0	1	0
50	362	7	10000	1	1	0	1	0
51	363	7	10000	1	1	0	1	0
57	364	7	10000	1	1	0	1	0
56	365	7	10000	1	1	0	1	0
56	366	7	10000	1	1	0	1	0
60	367	7	10000	1	1	0	1	0
66	368	7	10000	1	1	0	1	0
70	369	7	10000	1	1	0	1	0
70	370	7	10000	1	1	0	1	0
67	371	7	10000	1	1	0	1	0
67	372	7	10000	1	1	0	1	0
68	373	7	10000	1	1	0	1	0
66	374	7	10000	1	1	0	1	0
63	375	7	10000	1	1	0	1	0
62	376	7	10000	1	1	0	1	0
60	377	7	10000	1	1	0	1	0
58	378	7	10000	1	1	0	1	0
56	379	7	10000	1	1	0	1	0
56	380	7	10000	1	1	0	1	0
55	381	7	10000	1	1	0	1	0
53	382	7	10000	1	1	0	1	0
50	383	7	10000	1	1	0	1	0
48	384	7	10000	1	1	0	1	0
47	385	7	10000	1	1	0	1	0
49	386	7	10000	1	1	0	1	0
55	387	7	10000	1	1	0	1	0
59	388	7	10000	1	1	0	1	0
58	389	7	10000	1	1	0	1	0
61	390	7	10000	1	1	0	1	0
63	391	7	10000	1	1	0	1	0
62	392	7	10000	1	1	0	1	0
62	393	7	10000	1	1	0	1	0
62	394	7	10000	1	1	0	1	0
63	395	7	10000	1	1	0	1	0
65	396	7	10000	1	1	0	1	0
67	397	7	10000	1	1	0	1	0
68	398	7	10000	1	1	0	1	0
67	399	7	10000	1	1	0	1	0
73	400	7	10000	1	1	0	1	0
80	401	7	10000	1	1	0	1	0
83	402	7	10000	1	1	0	1	0
85	403	7	10000	1	1	0	1	0
84	404	7	10000	1	1	0	1	0
81	405	7	10000	1	1	0	1	0
79	406	7	10000	1	1	0	1	0
77	407	7	10000	1	1	0	1	0
74	408	7	10000	1	1	0	1	0
72	409	7	10000	1	1	0	1	0
68	410	7	10000	1	1	0	1	0
65	411	7	10000	1	1	0	1	0
66	412	7	10000	1	1	0	1	0
68	413	7	10000	1	1	0	1	0
66	414	7	10000	1	1	0	1	0
64	415	7	10000	1	1	0	1	0
63	416	7	10000	1	1	0	1	0
65	417	7	10000	1	1	0	1	0
65	418	7	10000	1	1	0	1	0
62	419	7	10000	1	1	0	1	0
61	420	7	10000	1	1	0	1	0
60	421	7	10000	1	1	0	1	0
57	422	7	10000	1	1	0	1	0
55	423	7	10000	1	1	0	1	0
56	424	7	10000	1	1	0	1	0
61	425	7	10000	1	1	0	1	0
66	426	7	10000	1	1	0	1	0
70	427	7	10000	1	1	0	1	0
70	428	7	10000	1	1	0	1	0
67	429	7	10000	1	1	0	1	0
67	430	7	10000	1	1	0	1	0
66	431	7	10000	1	1	0	1	0
65	432	7	10000	1	1	0	1	0
65	433	7	10000	1	1	0	1	0
65	434	7	10000	1	1	0	1	0
65	435	7	10000	1	1	0	1	0
64	436	7	10000	1	1	0	1	0
63	437	7	10000	1	1	0	1	0
63	438	7	10000	1	1	0	1	0
68	439	7	10000	1	1	0	1	0
72	440	7	10000	1	1	0	1	0
72	441	7	10000	1	1	0	1	0
69	442	7	10000	1	1	0	1	0
68	443	7	10000	1	1	0	1	0
65	444	7	10000	1	1	0	1	0
67	445	7	10000	1	1	0	1	0
70	446	7	10000	1	1	0	1	0
68	447	7	10000	1	1	0	1	0
68	448	7	10000	1	1	0	1	0
68	449	7	10000	1	1	0	1	0
66	450	7	10000	1	1	0	1	0
62	451	7	10000	1	1	0	1	0
62	452	7	10000	1	1	0	1	0
60	453	7	10000	1	1	0	1	0
58	454	7	10000	1	1	0	1	0
57	455	7	10000	1	1	0	1	0
54	456	7	10000	1	1	0	1	0
53	457	7	10000	1	1	0	1	0
53	458	7	10000	1	1	0	1	0
56	459	7	10000	1	1	0	1	0
56	460	7	10000	1	1	0	1	0
56	461	7	10000	1	1	0	1	0
54	462	7	10000	1	1	0	1	0
53	463	7	10000	1	1	0	1	0
51	464	7	10000	1	1	0	1	0
49	465	7	10000	1	1	0	1	0
48	466	7	10000	1	1	0	1	0
47	467	7	10000	1	1	0	1	0
47	468	7	10000	1	1	0	1	0
47	469	7	10000	1	1	0	1	0
45	470	7	10000	1	1	0	1	0
51	471	7	10000	1	1	0	1	0
56	472	7	10000	1	1	0	1	0
56	473	7	10000	1	1	0	1	0
54	474	7	10000	1	1	0	1	0
52	475	7	10000	1	1	0	1	0
51	476	7	10000	1	1	0	1	0
49	477	7	10000	1	1	0	1	0
49	478	7	10000	1	1	0	1	0
50	479	7	10000	1	1	0	1	0
56	480	7	10000	1	1	0	1	0
58	481	7	10000	1	1	0	1	0
57	482	7	10000	1	1	0	1	0
59	483	7	10000	1	1	0	1	0
58	484	7	10000	1	1	0	1	0
56	485	7	10000	1	1	0	1	0
55	486	7	10000	1	1	0	1	0
56	487	7	10000	1	1	0	1	0
57	488	7	10000	1	1	0	1	0
56	489	7	10000	1	1	0	1	0
54	490	7	10000	1	1	0	1	0
53	491	7	10000	1	1	0	1	0
53	492	7	10000	1	1	0	1	0
53	493	7	10000	1	1	0	1	0
52	494	7	10000	1	1	0	1	0
53	495	7	10000	1	1	0	1	0
53	496	7	10000	1	1	0	1	0
52	497	7	10000	1	1	0	1	0
54	498	7	10000	1	1	0	1	0
60	499	7	10000	1	1	0	1	0
62	500	7	10000	1	1	0	1	0
62	501	7	10000	1	1	0	1	0
60	565	7	10000	1	1	0	1	1
58	566	7	10000	1	1	0	1	1
58	567	7	10000	1	1	0	1	1
55	568	7	10000	1	1	0	1	1
55	569	7	10000	1	1	0	1	1
56	570	7	10000	1	1	0	1	1
60	571	7	10000	1	1	0	1	1
63	572	7	10000	1	1	0	1	1
63	573	7	10000	1	1	0	1	1
61	574	7	10000	1	1	0	1	1
60	575	7	10000	1	1	0	1	1
60	576	7	10000	1	1	0	1	1
58	577	7	10000	1	1	0	1	1
56	578	7	10000	1	1	0	1	1
56	579	7	10000	1	1	0	1	1
55	580	7	10000	1	1	0	1	1
54	581	7	10000	1	1	0	1	1
52	582	7	10000	1	1	0	1	1
51	583	7	10000	1	1	0	1	1
49	584	7	10000	1	1	0	1	1
47	585	7	10000	1	1	0	1	1
44	586	7	10000	1	1	0	1	1
44	587	7	10000	1	1	0	1	1
47	588	7	10000	1	1	0	1	1
54	589	7	10000	1	1	0	1	1
56	590	7	10000	1	1	0	1	1
57	591	7	10000	1	1	0	1	1
55	592	7	10000	1	1	0	1	1
54	593	7	10000	1	1	0	1	1
53	594	7	10000	1	1	0	1	1
54	595	7	10000	1	1	0	1	1
53	596	7	10000	1	1	0	1	1
51	597	7	10000	1	1	0	1	1
50	598	7	10000	1	1	0	1	1
50	599	7	10000	1	1	0	1	1
50	600	7	10000	1	1	0	1	1
50	601	7	10000	1	1	0	1	1
49	602	7	10000	1	1	0	1	1
47	603	7	10000	1	1	0	1	1
47	604	7	10000	1	1	0	1	1
44	605	7	10000	1	1	0	1	1
43	606	7	10000	1	1	0	1	1
45	607	7	10000	1	1	0	1	1
44	608	7	10000	1	1	0	1	1
46	609	7	10000	1	1	0	1	1
50	610	7	10000	1	1	0	1	1
48	611	7	10000	1	1	0	1	1
49	612	7	10000	1	1	0	1	1
47	613	7	10000	1	1	0	1	1
45	614	7	10000	1	1	0	1	1
45	615	7	10000	1	1	0	1	1
47	616	7	10000	1	1	0	1	1
45	617	7	10000	1	1	0	1	1
44	618	7	10000	1	1	0	1	1
42	619	7	10000	1	1	0	1	1
41	620	7	10000	1	1	0	1	1
44	621	7	10000	1	1	0	1	1
46	622	7	10000	1	1	0	1	1
45	623	7	10000	1	1	0	1	1
46	624	7	10000	1	1	0	1	1
44	625	7	10000	1	1	0	1	1
43	626	7	10000	1	1	0	1	1
46	627	7	10000	1	1	0	1	1
50	628	7	10000	1	1	0	1	1
51	629	7	10000	1	1	0	1	1
53	630	7	10000	1	1	0	1	1
57	571	7	10000	1	1	0	1	0
58	572	7	10000	1	1	0	1	0
58	573	7	10000	1	1	0	1	0
57	574	7	10000	1	1	0	1	0
60	575	7	10000	1	1	0	1	0
64	576	7	10000	1	1	0	1	0
65	574	7	10000	1	1	0	1	0
62	575	7	10000	1	1	0	1	0
60	576	7	10000	1	1	0	1	0
59	577	7	10000	1	1	0	1	0
58	578	7	10000	1	1	0	1	0
56	579	7	10000	1	1	0	1	0
56	580	7	10000	1	1	0	1	0
55	581	7	10000	1	1	0	1	0
51	582	7	10000	1	1	0	1	0
48	583	7	10000	1	1	0	1	0
49	584	7	10000	1	1	0	1	0
51	585	7	10000	1	1	0	1	0
50	586	7	10000	1	1	0	1	0
50	587	7	10000	1	1	0	1	0
49	588	7	10000	1	1	0	1	0
48	589	7	10000	1	1	0	1	0
49	590	7	10000	1	1	0	1	0
48	591	7	10000	1	1	0	1	0
52	592	7	10000	1	1	0	1	0
55	593	7	10000	1	1	0	1	0
57	594	7	10000	1	1	0	1	0
56	595	7	10000	1	1	0	1	0
56	596	7	10000	1	1	0	1	0
58	597	7	10000	1	1	0	1	0
60	598	7	10000	1	1	0	1	0
63	599	7	10000	1	1	0	1	0
63	600	7	10000	1	1	0	1	0
62	601	7	10000	1	1	0	1	0
60	602	7	10000	1	1	0	1	0
58	603	7	10000	1	1	0	1	0
57	604	7	10000	1	1	0	1	0
56	605	7	10000	1	1	0	1	0
54	606	7	10000	1	1	0	1	0
52	607	7	10000	1	1	0	1	0
50	608	7	10000	1	1	0	1	0
48	609	7	10000	1	1	0	1	0
48	610	7	10000	1	1	0	1	0
55	611	7	10000	1	1	0	1	0
59	612	7	10000	1	1	0	1	0
59	613	7	10000	1	1	0	1	0
59	614	7	10000	1	1	0	1	0
61	615	7	10000	1	1	0	1	0
65	616	7	10000	1	1	0	1	0
64	617	7	10000	1	1	0	1	0
68	618	7	10000	1	1	0	1	0
70	619	7	10000	1	1	0	1	0
70	620	7	10000	1	1	0	1	0
71	621	7	10000	1	1	0	1	0
68	622	7	10000	1	1	0	1	0
66	623	7	10000	1	1	0	1	0
63	624	7	10000	1	1	0	1	0
63	625	7	10000	1	1	0	1	0
62	626	7	10000	1	1	0	1	0
61	627	7	10000	1	1	0	1	0
59	628	7	10000	1	1	0	1	0
57	629	7	10000	1	1	0	1	0
56	630	7	10000	1	1	0	1	0
55	631	7	10000	1	1	0	1	0
56	632	7	10000	1	1	0	1	0
56	633	7	10000	1	1	0	1	0
55	634	7	10000	1	1	0	1	0
56	635	7	10000	1	1	0	1	0
56	636	7	10000	1	1	0	1	0
56	637	7	10000	1	1	0	1	0
54	638	7	10000	1	1	0	1	0
56	639	7	10000	1	1	0	1	0
55	640	7	10000	1	1	0	1	0
54	641	7	10000	1	1	0	1	0
52	642	7	10000	1	1	0	1	0
49	643	7	10000	1	1	0	1	0
49	644	7	10000	1	1	0	1	0
51	645	7	10000	1	1	0	1	0
51	646	7	10000	1	1	0	1	0
57	647	7	10000	1	1	0	1	0
65	648	7	10000	1	1	0	1	0
68	649	7	10000	1	1	0	1	0
68	650	7	10000	1	1	0	1	0
66	651	7	10000	1	1	0	1	0
65	652	7	10000	1	1	0	1	0
66	653	7	10000	1	1	0	1	0
78	654	7	10000	1	1	0	1	0
78	655	7	10000	1	1	0	1	0
78	656	7	10000	1	1	0	1	0
92	657	7	10000	1	1	0	1	0
93	658	7	10000	1	1	0	1	0
89	659	7	10000	1	1	0	1	0
90	660	7	10000	1	1	0	1	0
97	661	7	10000	1	1	0	1	0
108	662	7	10000	1	1	0	1	0
111	663	7	10000	1	1	0	1	0
122	664	7	10000	1	1	0	1	0
162	665	7	10000	1	1	0	1	0
181	666	7	10000	1	1	0	1	0
205	667	7	10000	1	1	0	1	0
304	668	7	10000	1	1	0	1	0
451	669	7	10000	1	1	0	1	0
510	670	7	10000	1	1	0	1	0
518	671	7	10000	1	1	0	1	0
608	672	7	10000	1	1	0	1	0
695	673	7	10000	1	1	0	1	0
740	674	7	10000	1	1	0	1	0
761	675	7	10000	1	1	0	1	0
795	676	7	10000	1	1	0	1	0
802	677	7	10000	1	1	0	1	0
774	678	7	10000	1	1	0	1	0
748	679	7	10000	1	1	0	1	0
739	680	7	10000	1	1	0	1	0
752	681	7	10000	1	1	0	1	0
734	682	7	10000	1	1	0	1	0
749	683	7	10000	1	1	0	1	0
757	684	7	10000	1	1	0	1	0
790	685	7	10000	1	1	0	1	0
905	686	7	10000	1	1	0	1	0
930	687	7	10000	1	1	0	1	0
956	688	7	10000	1	1	0	1	0
1052	689	7	10000	1	1	0	1	0
1120	690	7	10000	1	1	0	1	0
1135	691	7	10000	1	1	0	1	0
1119	692	7	10000	1	1	0	1	0
1081	693	7	10000	1	1	0	1	0
1032	694	7	10000	1	1	0	1	0
996	695	7	10000	1	1	0	1	0
971	696	7	10000	1	1	0	1	0
947	697	7	10000	1	1	0	1	0
924	698	7	10000	1	1	0	1	0
901	699	7	10000	1	1	0	1	0
876	700	7	10000	1	1	0	1	0
852	701	7	10000	1	1	0	1	0
826	702	7	10000	1	1	0	1	0
797	703	7	10000	1	1	0	1	0
768	704	7	10000	1	1	0	1	0
739	705	7	10000	1	1	0	1	0
710	706	7	10000	1	1	0	1	0
682	707	7	10000	1	1	0	1	0
653	708	7	10000	1	1	0	1	0
626	709	7	10000	1	1	0	1	0
600	710	7	10000	1	1	0	1	0
573	711	7	10000	1	1	0	1	0
550	712	7	10000	1	1	0	1	0
528	713	7	10000	1	1	0	1	0
503	714	7	10000	1	1	0	1	0
480	715	7	10000	1	1	0	1	0
460	716	7	10000	1	1	0	1	0
444	717	7	10000	1	1	0	1	0
432	718	7	10000	1	1	0	1	0
426	719	7	10000	1	1	0	1	0
423	720	7	10000	1	1	0	1	0
422	721	7	10000	1	1	0	1	0
420	722	7	10000	1	1	0	1	0
420	723	7	10000	1	1	0	1	0
420	724	7	10000	1	1	0	1	0
419	725	7	10000	1	1	0	1	0
415	726	7	10000	1	1	0	1	0
409	727	7	10000	1	1	0	1	0
403	728	7	10000	1	1	0	1	0
396	729	7	10000	1	1	0	1	0
388	730	7	10000	1	1	0	1	0
379	731	7	10000	1	1	0	1	0
370	732	7	10000	1	1	0	1	0
359	733	7	10000	1	1	0	1	0
346	734	7	10000	1	1	0	1	0
332	735	7	10000	1	1	0	1	0
321	736	7	10000	1	1	0	1	0
312	737	7	10000	1	1	0	1	0
305	738	7	10000	1	1	0	1	0
300	739	7	10000	1	1	0	1	0
297	740	7	10000	1	1	0	1	0
295	741	7	10000	1	1	0	1	0
291	742	7	10000	1	1	0	1	0
285	743	7	10000	1	1	0	1	0
282	744	7	10000	1	1	0	1	0
279	745	7	10000	1	1	0	1	0
274	746	7	10000	1	1	0	1	0
268	747	7	10000	1	1	0	1	0
258	748	7	10000	1	1	0	1	0
247	749	7	10000	1	1	0	1	0
237	750	7	10000	1	1	0	1	0
228	751	7	10000	1	1	0	1	0
224	752	7	10000	1	1	0	1	0
220	753	7	10000	1	1	0	1	0
216	754	7	10000	1	1	0	1	0
213	755	7	10000	1	1	0	1	0
209	756	7	10000	1	1	0	1	0
205	757	7	10000	1	1	0	1	0
200	758	7	10000	1	1	0	1	0
192	759	7	10000	1	1	0	1	0
185	760	7	10000	1	1	0	1	0
177	761	7	10000	1	1	0	1	0
168	762	7	10000	1	1	0	1	0
161	763	7	10000	1	1	0	1	0
155	764	7	10000	1	1	0	1	0
151	765	7	10000	1	1	0	1	0
146	766	7	10000	1	1	0	1	0
140	767	7	10000	1	1	0	1	0
137	768	7	10000	1	1	0	1	0
133	769	7	10000	1	1	0	1	0
131	770	7	10000	1	1	0	1	0
132	771	7	10000	1	1	0	1	0
138	772	7	10000	1	1	0	1	0
145	773	7	10000	1	1	0	1	0
150	774	7	10000	1	1	0	1	0
153	775	7	10000	1	1	0	1	0
156	776	7	10000	1	1	0	1	0
157	777	7	10000	1	1	0	1	0
156	778	7	10000	1	1	0	1	0
152	779	7	10000	1	1	0	1	0
147	780	7	10000	1	1	0	1	0
142	781	7	10000	1	1	0	1	0
137	782	7	10000	1	1	0	1	0
132	783	7	10000	1	1	0	1	0
128	784	7	10000	1	1	0	1	0
125	785	7	10000	1	1	0	1	0
119	786	7	10000	1	1	0	1	0
116	787	7	10000	1	1	0	1	0
113	788	7	10000	1	1	0	1	0
112	789	7	10000	1	1	0	1	0
109	790	7	10000	1	1	0	1	0
106	791	7	10000	1	1	0	1	0
104	792	7	10000	1	1	0	1	0
104	793	7	10000	1	1	0	1	0
107	794	7	10000	1	1	0	1	0
113	795	7	10000	1	1	0	1	0
115	796	7	10000	1	1	0	1	0
115	797	7	10000	1	1	0	1	0
114	798	7	10000	1	1	0	1	0
116	799	7	10000	1	1	0	1	0
116	800	7	10000	1	1	0	1	0
112	801	7	10000	1	1	0	1	0
108	802	7	10000	1	1	0	1	0
104	803	7	10000	1	1	0	1	0
100	804	7	10000	1	1	0	1	0
95	805	7	10000	1	1	0	1	0
94	806	7	10000	1	1	0	1	0
90	807	7	10000	1	1	0	1	0
88	808	7	10000	1	1	0	1	0
87	809	7	10000	1	1	0	1	0
87	810	7	10000	1	1	0	1	0
90	811	7	10000	1	1	0	1	0
92	812	7	10000	1	1	0	1	0
95	813	7	10000	1	1	0	1	0
97	814	7	10000	1	1	0	1	0
98	815	7	10000	1	1	0	1	0
98	816	7	10000	1	1	0	1	0
96	817	7	10000	1	1	0	1	0
94	818	7	10000	1	1	0	1	0
91	819	7	10000	1	1	0	1	0
88	820	7	10000	1	1	0	1	0
86	821	7	10000	1	1	0	1	0
83	822	7	10000	1	1	0	1	0
81	823	7	10000	1	1	0	1	0
80	824	7	10000	1	1	0	1	0
79	825	7	10000	1	1	0	1	0
77	826	7	10000	1	1	0	1	0
74	827	7	10000	1	1	0	1	0
72	828	7	10000	1	1	0	1	0
72	829	7	10000	1	1	0	1	0
74	830	7	10000	1	1	0	1	0
77	831	7	10000	1	1	0	1	0
79	832	7	10000	1	1	0	1	0
81	833	7	10000	1	1	0	1	0
79	834	7	10000	1	1	0	1	0
76	835	7	10000	1	1	0	1	0
73	836	7	10000	1	1	0	1	0
74	837	7	10000	1	1	0	1	0
75	838	7	10000	1	1	0	1	0
74	839	7	10000	1	1	0	1	0
72	840	7	10000	1	1	0	1	0
71	841	7	10000	1	1	0	1	0
71	842	7	10000	1	1	0	1	0
70	843	7	10000	1	1	0	1	0
71	844	7	10000	1	1	0	1	0
72	845	7	10000	1	1	0	1	0
70	846	7	10000	1	1	0	1	0
67	847	7	10000	1	1	0	1	0
65	848	7	10000	1	1	0	1	0
65	849	7	10000	1	1	0	1	0
68	850	7	10000	1	1	0	1	0
68	851	7	10000	1	1	0	1	0
68	852	7	10000	1	1	0	1	0
66	853	7	10000	1	1	0	1	0
65	854	7	10000	1	1	0	1	0
66	855	7	10000	1	1	0	1	0
67	856	7	10000	1	1	0	1	0
67	857	7	10000	1	1	0	1	0
66	858	7	10000	1	1	0	1	0
64	859	7	10000	1	1	0	1	0
62	860	7	10000	1	1	0	1	0
61	861	7	10000	1	1	0	1	0
57	862	7	10000	1	1	0	1	0
56	863	7	10000	1	1	0	1	0
58	864	7	10000	1	1	0	1	0
60	865	7	10000	1	1	0	1	0
61	866	7	10000	1	1	0	1	0
62	867	7	10000	1	1	0	1	0
59	868	7	10000	1	1	0	1	0
57	869	7	10000	1	1	0	1	0
56	870	7	10000	1	1	0	1	0
54	871	7	10000	1	1	0	1	0
54	872	7	10000	1	1	0	1	0
56	873	7	10000	1	1	0	1	0
56	874	7	10000	1	1	0	1	0
56	875	7	10000	1	1	0	1	0
55	876	7	10000	1	1	0	1	0
54	877	7	10000	1	1	0	1	0
53	878	7	10000	1	1	0	1	0
53	879	7	10000	1	1	0	1	0
52	880	7	10000	1	1	0	1	0
51	881	7	10000	1	1	0	1	0
51	882	7	10000	1	1	0	1	0
52	883	7	10000	1	1	0	1	0
53	884	7	10000	1	1	0	1	0
53	885	7	10000	1	1	0	1	0
54	886	7	10000	1	1	0	1	0
54	887	7	10000	1	1	0	1	0
52	888	7	10000	1	1	0	1	0
49	889	7	10000	1	1	0	1	0
48	890	7	10000	1	1	0	1	0
48	891	7	10000	1	1	0	1	0
48	892	7	10000	1	1	0	1	0
48	893	7	10000	1	1	0	1	0
46	894	7	10000	1	1	0	1	0
45	895	7	10000	1	1	0	1	0
44	896	7	10000	1	1	0	1	0
46	897	7	10000	1	1	0	1	0
47	898	7	10000	1	1	0	1	0
48	899	7	10000	1	1	0	1	0
49	900	7	10000	1	1	0	1	0
49	901	7	10000	1	1	0	1	0
45	902	7	10000	1	1	0	1	0
44	903	7	10000	1	1	0	1	0
44	904	7	10000	1	1	0	1	0
46	905	7	10000	1	1	0	1	0
47	906	7	10000	1	1	0	1	0
46	907	7	10000	1	1	0	1	0
45	908	7	10000	1	1	0	1	0
46	909	7	10000	1	1	0	1	0
47	910	7	10000	1	1	0	1	0
46	911	7	10000	1	1	0	1	0
47	912	7	10000	1	1	0	1	0
49	913	7	10000	1	1	0	1	0
49	914	7	10000	1	1	0	1	0
49	915	7	10000	1	1	0	1	0
48	916	7	10000	1	1	0	1	0
47	917	7	10000	1	1	0	1	0
46	918	7	10000	1	1	0	1	0
49	919	7	10000	1	1	0	1	0
51	920	7	10000	1	1	0	1	0
53	921	7	10000	1	1	0	1	0
54	922	7	10000	1	1	0	1	0
53	923	7	10000	1	1	0	1	0
55	924	7	10000	1	1	0	1	0
56	925	7	10000	1	1	0	1	0
56	926	7	10000	1	1	0	1	0
56	927	7	10000	1	1	0	1	0
55	928	7	10000	1	1	0	1	0
54	929	7	10000	1	1	0	1	0
55	930	7	10000	1	1	0	1	0
60	931	7	10000	1	1	0	1	0
65	932	7	10000	1	1	0	1	0
65	933	7	10000	1	1	0	1	0
68	934	7	10000	1	1	0	1	0
72	935	7	10000	1	1	0	1	0
75	936	7	10000	1	1	0	1	0
73	937	7	10000	1	1	0	1	0
71	938	7	10000	1	1	0	1	0
69	939	7	10000	1	1	0	1	0
72	940	7	10000	1	1	0	1	0
74	941	7	10000	1	1	0	1	0
71	942	7	10000	1	1	0	1	0
68	943	7	10000	1	1	0	1	0
66	944	7	10000	1	1	0	1	0
66	945	7	10000	1	1	0	1	0
69	946	7	10000	1	1	0	1	0
71	947	7	10000	1	1	0	1	0
69	948	7	10000	1	1	0	1	0
68	949	7	10000	1	1	0	1	0
65	950	7	10000	1	1	0	1	0
64	951	7	10000	1	1	0	1	0
65	952	7	10000	1	1	0	1	0
67	953	7	10000	1	1	0	1	0
68	954	7	10000	1	1	0	1	0
68	955	7	10000	1	1	0	1	0
65	956	7	10000	1	1	0	1	0
63	957	7	10000	1	1	0	1	0
63	958	7	10000	1	1	0	1	0
66	959	7	10000	1	1	0	1	0
68	960	7	10000	1	1	0	1	0
65	961	7	10000	1	1	0	1	0
62	962	7	10000	1	1	0	1	0
61	963	7	10000	1	1	0	1	0
59	964	7	10000	1	1	0	1	0
57	965	7	10000	1	1	0	1	0
55	966	7	10000	1	1	0	1	0
53	967	7	10000	1	1	0	1	0
52	968	7	10000	1	1	0	1	0
51	969	7	10000	1	1	0	1	0
51	970	7	10000	1	1	0	1	0
54	971	7	10000	1	1	0	1	0
55	972	7	10000	1	1	0	1	0
56	973	7	10000	1	1	0	1	0
57	974	7	10000	1	1	0	1	0
60	975	7	10000	1	1	0	1	0
60	976	7	10000	1	1	0	1	0
60	977	7	10000	1	1	0	1	0
62	978	7	10000	1	1	0	1	0
62	979	7	10000	1	1	0	1	0
62	980	7	10000	1	1	0	1	0
61	981	7	10000	1	1	0	1	0
61	982	7	10000	1	1	0	1	0
60	983	7	10000	1	1	0	1	0
59	984	7	10000	1	1	0	1	0
61	985	7	10000	1	1	0	1	0
61	986	7	10000	1	1	0	1	0
59	987	7	10000	1	1	0	1	0
58	988	7	10000	1	1	0	1	0
57	989	7	10000	1	1	0	1	0
54	990	7	10000	1	1	0	1	0
51	991	7	10000	1	1	0	1	0
51	992	7	10000	1	1	0	1	0
51	993	7	10000	1	1	0	1	0
50	994	7	10000	1	1	0	1	0
49	995	7	10000	1	1	0	1	0
50	996	7	10000	1	1	0	1	0
52	997	7	10000	1	1	0	1	0
52	998	7	10000	1	1	0	1	0
51	999	7	10000	1	1	0	1	0
56	1000	7	10000	1	1	0	1	0
66	1001	7	10000	1	1	0	1	0
57	1	0	10000	2	1	0	2	0
58	2	0	10000	2	1	0	2	0
58	3	0	10000	2	1	0	2	0
57	4	0	10000	2	1	0	2	0
56	5	0	10000	2	1	0	2	0
56	6	0	10000	2	1	0	2	0
56	7	0	10000	2	1	0	2	0
56	8	0	10000	2	1	0	2	0
58	9	0	10000	2	1	0	2	0
58	10	0	10000	2	1	0	2	0
58	11	0	10000	2	1	0	2	0
56	12	0	10000	2	1	0	2	0
54	13	0	10000	2	1	0	2	0
54	14	0	10000	2	1	0	2	0
55	15	0	10000	2	1	0	2	0
53	16	0	10000	2	1	0	2	0
56	17	0	10000	2	1	0	2	0
58	18	0	10000	2	1	0	2	0
58	19	0	10000	2	1	0	2	0
59	20	0	10000	2	1	0	2	0
59	21	0	10000	2	1	0	2	0
60	22	0	10000	2	1	0	2	0
59	23	0	10000	2	1	0	2	0
56	24	0	10000	2	1	0	2	0
55	25	0	10000	2	1	0	2	0
55	26	0	10000	2	1	0	2	0
56	27	0	10000	2	1	0	2	0
57	28	0	10000	2	1	0	2	0
58	29	0	10000	2	1	0	2	0
56	30	0	10000	2	1	0	2	0
54	31	0	10000	2	1	0	2	0
52	32	0	10000	2	1	0	2	0
51	33	0	10000	2	1	0	2	0
52	34	0	10000	2	1	0	2	0
50	35	0	10000	2	1	0	2	0
47	36	0	10000	2	1	0	2	0
45	37	0	10000	2	1	0	2	0
44	38	0	10000	2	1	0	2	0
42	39	0	10000	2	1	0	2	0
40	40	0	10000	2	1	0	2	0
40	41	0	10000	2	1	0	2	0
39	42	0	10000	2	1	0	2	0
38	43	0	10000	2	1	0	2	0
37	44	0	10000	2	1	0	2	0
36	45	0	10000	2	1	0	2	0
35	46	0	10000	2	1	0	2	0
34	47	0	10000	2	1	0	2	0
33	48	0	10000	2	1	0	2	0
33	49	0	10000	2	1	0	2	0
33	50	0	10000	2	1	0	2	0
31	51	0	10000	2	1	0	2	0
30	52	0	10000	2	1	0	2	0
32	53	0	10000	2	1	0	2	0
34	54	0	10000	2	1	0	2	0
34	55	0	10000	2	1	0	2	0
34	56	0	10000	2	1	0	2	0
36	57	0	10000	2	1	0	2	0
39	58	0	10000	2	1	0	2	0
40	59	0	10000	2	1	0	2	0
41	60	0	10000	2	1	0	2	0
43	61	0	10000	2	1	0	2	0
48	62	0	10000	2	1	0	2	0
50	63	0	10000	2	1	0	2	0
47	64	0	10000	2	1	0	2	0
47	65	0	10000	2	1	0	2	0
45	66	0	10000	2	1	0	2	0
47	67	0	10000	2	1	0	2	0
47	68	0	10000	2	1	0	2	0
47	69	0	10000	2	1	0	2	0
48	70	0	10000	2	1	0	2	0
50	71	0	10000	2	1	0	2	0
52	72	0	10000	2	1	0	2	0
51	73	0	10000	2	1	0	2	0
54	74	0	10000	2	1	0	2	0
55	75	0	10000	2	1	0	2	0
53	76	0	10000	2	1	0	2	0
51	77	0	10000	2	1	0	2	0
50	78	0	10000	2	1	0	2	0
48	79	0	10000	2	1	0	2	0
46	80	0	10000	2	1	0	2	0
45	81	0	10000	2	1	0	2	0
46	82	0	10000	2	1	0	2	0
44	83	0	10000	2	1	0	2	0
42	84	0	10000	2	1	0	2	0
40	85	0	10000	2	1	0	2	0
39	86	0	10000	2	1	0	2	0
38	87	0	10000	2	1	0	2	0
36	88	0	10000	2	1	0	2	0
36	89	0	10000	2	1	0	2	0
35	90	0	10000	2	1	0	2	0
34	91	0	10000	2	1	0	2	0
36	92	0	10000	2	1	0	2	0
40	93	0	10000	2	1	0	2	0
43	94	0	10000	2	1	0	2	0
43	95	0	10000	2	1	0	2	0
43	96	0	10000	2	1	0	2	0
42	97	0	10000	2	1	0	2	0
41	98	0	10000	2	1	0	2	0
42	99	0	10000	2	1	0	2	0
44	100	0	10000	2	1	0	2	0
44	101	0	10000	2	1	0	2	0
44	102	0	10000	2	1	0	2	0
42	103	0	10000	2	1	0	2	0
39	104	0	10000	2	1	0	2	0
39	105	0	10000	2	1	0	2	0
40	106	0	10000	2	1	0	2	0
42	107	0	10000	2	1	0	2	0
42	108	0	10000	2	1	0	2	0
42	109	0	10000	2	1	0	2	0
45	110	0	10000	2	1	0	2	0
50	111	0	10000	2	1	0	2	0
53	112	0	10000	2	1	0	2	0
56	113	0	10000	2	1	0	2	0
59	114	0	10000	2	1	0	2	0
57	115	0	10000	2	1	0	2	0
55	116	0	10000	2	1	0	2	0
56	117	0	10000	2	1	0	2	0
57	118	0	10000	2	1	0	2	0
57	119	0	10000	2	1	0	2	0
59	120	0	10000	2	1	0	2	0
61	121	0	10000	2	1	0	2	0
62	122	0	10000	2	1	0	2	0
60	123	0	10000	2	1	0	2	0
58	124	0	10000	2	1	0	2	0
58	125	0	10000	2	1	0	2	0
57	126	0	10000	2	1	0	2	0
56	127	0	10000	2	1	0	2	0
54	128	0	10000	2	1	0	2	0
55	129	0	10000	2	1	0	2	0
55	130	0	10000	2	1	0	2	0
52	131	0	10000	2	1	0	2	0
51	132	0	10000	2	1	0	2	0
54	133	0	10000	2	1	0	2	0
58	134	0	10000	2	1	0	2	0
59	135	0	10000	2	1	0	2	0
57	136	0	10000	2	1	0	2	0
56	137	0	10000	2	1	0	2	0
57	138	0	10000	2	1	0	2	0
55	139	0	10000	2	1	0	2	0
52	140	0	10000	2	1	0	2	0
50	141	0	10000	2	1	0	2	0
53	142	0	10000	2	1	0	2	0
54	143	0	10000	2	1	0	2	0
53	144	0	10000	2	1	0	2	0
52	145	0	10000	2	1	0	2	0
52	146	0	10000	2	1	0	2	0
57	147	0	10000	2	1	0	2	0
61	148	0	10000	2	1	0	2	0
61	149	0	10000	2	1	0	2	0
61	150	0	10000	2	1	0	2	0
60	151	0	10000	2	1	0	2	0
59	152	0	10000	2	1	0	2	0
59	153	0	10000	2	1	0	2	0
58	154	0	10000	2	1	0	2	0
56	155	0	10000	2	1	0	2	0
53	156	0	10000	2	1	0	2	0
51	157	0	10000	2	1	0	2	0
49	158	0	10000	2	1	0	2	0
49	159	0	10000	2	1	0	2	0
48	160	0	10000	2	1	0	2	0
47	161	0	10000	2	1	0	2	0
47	162	0	10000	2	1	0	2	0
47	163	0	10000	2	1	0	2	0
44	164	0	10000	2	1	0	2	0
43	165	0	10000	2	1	0	2	0
43	166	0	10000	2	1	0	2	0
41	167	0	10000	2	1	0	2	0
42	168	0	10000	2	1	0	2	0
44	169	0	10000	2	1	0	2	0
46	170	0	10000	2	1	0	2	0
46	171	0	10000	2	1	0	2	0
46	172	0	10000	2	1	0	2	0
45	173	0	10000	2	1	0	2	0
46	174	0	10000	2	1	0	2	0
45	175	0	10000	2	1	0	2	0
42	176	0	10000	2	1	0	2	0
42	177	0	10000	2	1	0	2	0
43	178	0	10000	2	1	0	2	0
42	179	0	10000	2	1	0	2	0
41	180	0	10000	2	1	0	2	0
43	181	0	10000	2	1	0	2	0
44	182	0	10000	2	1	0	2	0
44	183	0	10000	2	1	0	2	0
41	184	0	10000	2	1	0	2	0
40	185	0	10000	2	1	0	2	0
43	186	0	10000	2	1	0	2	0
45	187	0	10000	2	1	0	2	0
45	188	0	10000	2	1	0	2	0
44	189	0	10000	2	1	0	2	0
45	190	0	10000	2	1	0	2	0
46	191	0	10000	2	1	0	2	0
45	192	0	10000	2	1	0	2	0
43	193	0	10000	2	1	0	2	0
43	194	0	10000	2	1	0	2	0
43	195	0	10000	2	1	0	2	0
46	196	0	10000	2	1	0	2	0
48	197	0	10000	2	1	0	2	0
50	198	0	10000	2	1	0	2	0
50	199	0	10000	2	1	0	2	0
48	200	0	10000	2	1	0	2	0
49	201	0	10000	2	1	0	2	0
49	202	0	10000	2	1	0	2	0
49	203	0	10000	2	1	0	2	0
45	204	0	10000	2	1	0	2	0
44	205	0	10000	2	1	0	2	0
43	206	0	10000	2	1	0	2	0
43	207	0	10000	2	1	0	2	0
44	208	0	10000	2	1	0	2	0
44	209	0	10000	2	1	0	2	0
45	210	0	10000	2	1	0	2	0
49	211	0	10000	2	1	0	2	0
53	212	0	10000	2	1	0	2	0
54	213	0	10000	2	1	0	2	0
54	214	0	10000	2	1	0	2	0
52	215	0	10000	2	1	0	2	0
50	216	0	10000	2	1	0	2	0
48	217	0	10000	2	1	0	2	0
47	218	0	10000	2	1	0	2	0
45	219	0	10000	2	1	0	2	0
44	220	0	10000	2	1	0	2	0
44	221	0	10000	2	1	0	2	0
42	222	0	10000	2	1	0	2	0
43	223	0	10000	2	1	0	2	0
44	224	0	10000	2	1	0	2	0
44	225	0	10000	2	1	0	2	0
43	226	0	10000	2	1	0	2	0
43	227	0	10000	2	1	0	2	0
41	228	0	10000	2	1	0	2	0
41	229	0	10000	2	1	0	2	0
42	230	0	10000	2	1	0	2	0
41	231	0	10000	2	1	0	2	0
40	232	0	10000	2	1	0	2	0
40	233	0	10000	2	1	0	2	0
44	234	0	10000	2	1	0	2	0
43	235	0	10000	2	1	0	2	0
47	236	0	10000	2	1	0	2	0
50	237	0	10000	2	1	0	2	0
50	238	0	10000	2	1	0	2	0
49	239	0	10000	2	1	0	2	0
46	240	0	10000	2	1	0	2	0
45	241	0	10000	2	1	0	2	0
45	242	0	10000	2	1	0	2	0
46	243	0	10000	2	1	0	2	0
45	244	0	10000	2	1	0	2	0
45	245	0	10000	2	1	0	2	0
44	246	0	10000	2	1	0	2	0
44	247	0	10000	2	1	0	2	0
44	248	0	10000	2	1	0	2	0
46	249	0	10000	2	1	0	2	0
47	250	0	10000	2	1	0	2	0
45	251	0	10000	2	1	0	2	0
44	252	0	10000	2	1	0	2	0
43	253	0	10000	2	1	0	2	0
48	254	0	10000	2	1	0	2	0
47	255	0	10000	2	1	0	2	0
45	256	0	10000	2	1	0	2	0
43	257	0	10000	2	1	0	2	0
43	258	0	10000	2	1	0	2	0
41	259	0	10000	2	1	0	2	0
40	260	0	10000	2	1	0	2	0
41	261	0	10000	2	1	0	2	0
42	262	0	10000	2	1	0	2	0
44	263	0	10000	2	1	0	2	0
41	264	0	10000	2	1	0	2	0
42	265	0	10000	2	1	0	2	0
46	266	0	10000	2	1	0	2	0
48	267	0	10000	2	1	0	2	0
47	268	0	10000	2	1	0	2	0
46	269	0	10000	2	1	0	2	0
47	270	0	10000	2	1	0	2	0
45	271	0	10000	2	1	0	2	0
45	272	0	10000	2	1	0	2	0
43	273	0	10000	2	1	0	2	0
45	274	0	10000	2	1	0	2	0
45	275	0	10000	2	1	0	2	0
45	276	0	10000	2	1	0	2	0
45	277	0	10000	2	1	0	2	0
44	278	0	10000	2	1	0	2	0
44	279	0	10000	2	1	0	2	0
44	280	0	10000	2	1	0	2	0
44	281	0	10000	2	1	0	2	0
44	282	0	10000	2	1	0	2	0
41	283	0	10000	2	1	0	2	0
39	284	0	10000	2	1	0	2	0
43	285	0	10000	2	1	0	2	0
43	286	0	10000	2	1	0	2	0
42	287	0	10000	2	1	0	2	0
42	288	0	10000	2	1	0	2	0
40	289	0	10000	2	1	0	2	0
39	290	0	10000	2	1	0	2	0
38	291	0	10000	2	1	0	2	0
37	292	0	10000	2	1	0	2	0
36	293	0	10000	2	1	0	2	0
38	294	0	10000	2	1	0	2	0
42	295	0	10000	2	1	0	2	0
46	296	0	10000	2	1	0	2	0
45	297	0	10000	2	1	0	2	0
43	298	0	10000	2	1	0	2	0
41	299	0	10000	2	1	0	2	0
40	300	0	10000	2	1	0	2	0
40	301	0	10000	2	1	0	2	0
40	302	0	10000	2	1	0	2	0
39	303	0	10000	2	1	0	2	0
38	304	0	10000	2	1	0	2	0
38	305	0	10000	2	1	0	2	0
37	306	0	10000	2	1	0	2	0
37	307	0	10000	2	1	0	2	0
38	308	0	10000	2	1	0	2	0
40	309	0	10000	2	1	0	2	0
43	310	0	10000	2	1	0	2	0
43	311	0	10000	2	1	0	2	0
42	312	0	10000	2	1	0	2	0
42	313	0	10000	2	1	0	2	0
44	314	0	10000	2	1	0	2	0
42	315	0	10000	2	1	0	2	0
40	316	0	10000	2	1	0	2	0
38	317	0	10000	2	1	0	2	0
40	318	0	10000	2	1	0	2	0
44	319	0	10000	2	1	0	2	0
49	320	0	10000	2	1	0	2	0
51	321	0	10000	2	1	0	2	0
50	322	0	10000	2	1	0	2	0
50	323	0	10000	2	1	0	2	0
49	324	0	10000	2	1	0	2	0
52	325	0	10000	2	1	0	2	0
54	326	0	10000	2	1	0	2	0
54	327	0	10000	2	1	0	2	0
53	328	0	10000	2	1	0	2	0
51	329	0	10000	2	1	0	2	0
49	330	0	10000	2	1	0	2	0
47	331	0	10000	2	1	0	2	0
47	332	0	10000	2	1	0	2	0
47	333	0	10000	2	1	0	2	0
48	334	0	10000	2	1	0	2	0
44	335	0	10000	2	1	0	2	0
43	336	0	10000	2	1	0	2	0
42	337	0	10000	2	1	0	2	0
41	338	0	10000	2	1	0	2	0
39	339	0	10000	2	1	0	2	0
39	340	0	10000	2	1	0	2	0
39	341	0	10000	2	1	0	2	0
37	342	0	10000	2	1	0	2	0
38	343	0	10000	2	1	0	2	0
34	344	0	10000	2	1	0	2	0
33	345	0	10000	2	1	0	2	0
33	346	0	10000	2	1	0	2	0
33	347	0	10000	2	1	0	2	0
33	348	0	10000	2	1	0	2	0
45	349	0	10000	2	1	0	2	0
62	350	0	10000	2	1	0	2	0
71	351	0	10000	2	1	0	2	0
71	352	0	10000	2	1	0	2	0
76	353	0	10000	2	1	0	2	0
86	354	0	10000	2	1	0	2	0
91	355	0	10000	2	1	0	2	0
93	356	0	10000	2	1	0	2	0
93	357	0	10000	2	1	0	2	0
92	358	0	10000	2	1	0	2	0
91	359	0	10000	2	1	0	2	0
90	360	0	10000	2	1	0	2	0
87	361	0	10000	2	1	0	2	0
86	362	0	10000	2	1	0	2	0
83	363	0	10000	2	1	0	2	0
78	364	0	10000	2	1	0	2	0
78	365	0	10000	2	1	0	2	0
76	366	0	10000	2	1	0	2	0
73	367	0	10000	2	1	0	2	0
72	368	0	10000	2	1	0	2	0
71	369	0	10000	2	1	0	2	0
69	370	0	10000	2	1	0	2	0
66	371	0	10000	2	1	0	2	0
64	372	0	10000	2	1	0	2	0
63	373	0	10000	2	1	0	2	0
63	374	0	10000	2	1	0	2	0
61	375	0	10000	2	1	0	2	0
60	376	0	10000	2	1	0	2	0
60	377	0	10000	2	1	0	2	0
61	378	0	10000	2	1	0	2	0
63	379	0	10000	2	1	0	2	0
63	380	0	10000	2	1	0	2	0
61	381	0	10000	2	1	0	2	0
59	382	0	10000	2	1	0	2	0
57	383	0	10000	2	1	0	2	0
54	384	0	10000	2	1	0	2	0
55	385	0	10000	2	1	0	2	0
54	386	0	10000	2	1	0	2	0
53	387	0	10000	2	1	0	2	0
52	388	0	10000	2	1	0	2	0
50	389	0	10000	2	1	0	2	0
50	390	0	10000	2	1	0	2	0
50	391	0	10000	2	1	0	2	0
52	392	0	10000	2	1	0	2	0
51	393	0	10000	2	1	0	2	0
52	394	0	10000	2	1	0	2	0
52	395	0	10000	2	1	0	2	0
51	396	0	10000	2	1	0	2	0
49	397	0	10000	2	1	0	2	0
48	398	0	10000	2	1	0	2	0
46	399	0	10000	2	1	0	2	0
46	400	0	10000	2	1	0	2	0
48	401	0	10000	2	1	0	2	0
47	402	0	10000	2	1	0	2	0
49	403	0	10000	2	1	0	2	0
50	404	0	10000	2	1	0	2	0
48	405	0	10000	2	1	0	2	0
48	406	0	10000	2	1	0	2	0
49	407	0	10000	2	1	0	2	0
48	408	0	10000	2	1	0	2	0
48	409	0	10000	2	1	0	2	0
52	410	0	10000	2	1	0	2	0
55	411	0	10000	2	1	0	2	0
54	412	0	10000	2	1	0	2	0
52	413	0	10000	2	1	0	2	0
53	414	0	10000	2	1	0	2	0
54	415	0	10000	2	1	0	2	0
57	416	0	10000	2	1	0	2	0
58	417	0	10000	2	1	0	2	0
58	418	0	10000	2	1	0	2	0
59	419	0	10000	2	1	0	2	0
61	420	0	10000	2	1	0	2	0
63	421	0	10000	2	1	0	2	0
62	422	0	10000	2	1	0	2	0
59	423	0	10000	2	1	0	2	0
55	424	0	10000	2	1	0	2	0
53	425	0	10000	2	1	0	2	0
53	426	0	10000	2	1	0	2	0
53	427	0	10000	2	1	0	2	0
53	428	0	10000	2	1	0	2	0
56	429	0	10000	2	1	0	2	0
59	430	0	10000	2	1	0	2	0
59	431	0	10000	2	1	0	2	0
61	432	0	10000	2	1	0	2	0
59	433	0	10000	2	1	0	2	0
61	434	0	10000	2	1	0	2	0
62	435	0	10000	2	1	0	2	0
60	436	0	10000	2	1	0	2	0
60	437	0	10000	2	1	0	2	0
59	438	0	10000	2	1	0	2	0
57	439	0	10000	2	1	0	2	0
55	440	0	10000	2	1	0	2	0
55	441	0	10000	2	1	0	2	0
53	442	0	10000	2	1	0	2	0
50	443	0	10000	2	1	0	2	0
49	444	0	10000	2	1	0	2	0
47	445	0	10000	2	1	0	2	0
47	446	0	10000	2	1	0	2	0
47	447	0	10000	2	1	0	2	0
46	448	0	10000	2	1	0	2	0
44	449	0	10000	2	1	0	2	0
44	450	0	10000	2	1	0	2	0
42	451	0	10000	2	1	0	2	0
40	452	0	10000	2	1	0	2	0
39	453	0	10000	2	1	0	2	0
38	454	0	10000	2	1	0	2	0
38	455	0	10000	2	1	0	2	0
44	456	0	10000	2	1	0	2	0
50	457	0	10000	2	1	0	2	0
52	458	0	10000	2	1	0	2	0
52	459	0	10000	2	1	0	2	0
50	460	0	10000	2	1	0	2	0
49	461	0	10000	2	1	0	2	0
55	462	0	10000	2	1	0	2	0
60	463	0	10000	2	1	0	2	0
63	464	0	10000	2	1	0	2	0
64	465	0	10000	2	1	0	2	0
61	466	0	10000	2	1	0	2	0
60	467	0	10000	2	1	0	2	0
61	468	0	10000	2	1	0	2	0
59	469	0	10000	2	1	0	2	0
57	470	0	10000	2	1	0	2	0
56	471	0	10000	2	1	0	2	0
55	472	0	10000	2	1	0	2	0
54	473	0	10000	2	1	0	2	0
56	474	0	10000	2	1	0	2	0
55	475	0	10000	2	1	0	2	0
52	476	0	10000	2	1	0	2	0
53	477	0	10000	2	1	0	2	0
53	478	0	10000	2	1	0	2	0
54	479	0	10000	2	1	0	2	0
53	480	0	10000	2	1	0	2	0
54	481	0	10000	2	1	0	2	0
53	482	0	10000	2	1	0	2	0
52	483	0	10000	2	1	0	2	0
48	484	0	10000	2	1	0	2	0
46	485	0	10000	2	1	0	2	0
46	486	0	10000	2	1	0	2	0
46	487	0	10000	2	1	0	2	0
46	488	0	10000	2	1	0	2	0
44	489	0	10000	2	1	0	2	0
44	490	0	10000	2	1	0	2	0
42	491	0	10000	2	1	0	2	0
40	492	0	10000	2	1	0	2	0
39	493	0	10000	2	1	0	2	0
39	494	0	10000	2	1	0	2	0
39	495	0	10000	2	1	0	2	0
38	496	0	10000	2	1	0	2	0
36	497	0	10000	2	1	0	2	0
37	498	0	10000	2	1	0	2	0
36	499	0	10000	2	1	0	2	0
36	500	0	10000	2	1	0	2	0
37	501	0	10000	2	1	0	2	1
39	502	0	10000	2	1	0	2	1
39	503	0	10000	2	1	0	2	1
37	504	0	10000	2	1	0	2	1
35	505	0	10000	2	1	0	2	1
34	506	0	10000	2	1	0	2	1
33	507	0	10000	2	1	0	2	1
37	508	0	10000	2	1	0	2	1
42	509	0	10000	2	1	0	2	1
46	510	0	10000	2	1	0	2	1
46	511	0	10000	2	1	0	2	1
44	512	0	10000	2	1	0	2	1
42	513	0	10000	2	1	0	2	1
43	514	0	10000	2	1	0	2	1
44	515	0	10000	2	1	0	2	1
47	516	0	10000	2	1	0	2	1
51	517	0	10000	2	1	0	2	1
55	518	0	10000	2	1	0	2	1
57	519	0	10000	2	1	0	2	1
57	520	0	10000	2	1	0	2	1
55	521	0	10000	2	1	0	2	1
54	522	0	10000	2	1	0	2	1
55	523	0	10000	2	1	0	2	1
50	524	0	10000	2	1	0	2	1
50	525	0	10000	2	1	0	2	1
51	526	0	10000	2	1	0	2	1
50	527	0	10000	2	1	0	2	1
52	528	0	10000	2	1	0	2	1
54	529	0	10000	2	1	0	2	1
53	530	0	10000	2	1	0	2	1
52	531	0	10000	2	1	0	2	1
53	532	0	10000	2	1	0	2	1
53	533	0	10000	2	1	0	2	1
57	534	0	10000	2	1	0	2	1
57	535	0	10000	2	1	0	2	1
58	536	0	10000	2	1	0	2	1
60	537	0	10000	2	1	0	2	1
60	538	0	10000	2	1	0	2	1
59	539	0	10000	2	1	0	2	1
58	540	0	10000	2	1	0	2	1
56	541	0	10000	2	1	0	2	1
55	542	0	10000	2	1	0	2	1
53	543	0	10000	2	1	0	2	1
49	544	0	10000	2	1	0	2	1
48	545	0	10000	2	1	0	2	1
50	546	0	10000	2	1	0	2	1
49	547	0	10000	2	1	0	2	1
47	548	0	10000	2	1	0	2	1
47	549	0	10000	2	1	0	2	1
49	550	0	10000	2	1	0	2	1
55	551	0	10000	2	1	0	2	0
59	552	0	10000	2	1	0	2	0
60	553	0	10000	2	1	0	2	0
61	554	0	10000	2	1	0	2	0
62	555	0	10000	2	1	0	2	0
61	556	0	10000	2	1	0	2	0
59	557	0	10000	2	1	0	2	0
56	558	0	10000	2	1	0	2	0
54	559	0	10000	2	1	0	2	0
55	560	0	10000	2	1	0	2	0
57	561	0	10000	2	1	0	2	0
60	562	0	10000	2	1	0	2	0
60	563	0	10000	2	1	0	2	0
57	564	0	10000	2	1	0	2	0
56	565	0	10000	2	1	0	2	0
55	566	0	10000	2	1	0	2	0
53	567	0	10000	2	1	0	2	0
52	568	0	10000	2	1	0	2	0
52	569	0	10000	2	1	0	2	0
52	570	0	10000	2	1	0	2	0
56	571	0	10000	2	1	0	2	0
60	572	0	10000	2	1	0	2	0
59	573	0	10000	2	1	0	2	0
60	574	0	10000	2	1	0	2	0
59	575	0	10000	2	1	0	2	0
57	576	0	10000	2	1	0	2	0
55	577	0	10000	2	1	0	2	0
54	578	0	10000	2	1	0	2	0
51	579	0	10000	2	1	0	2	0
50	580	0	10000	2	1	0	2	0
50	581	0	10000	2	1	0	2	0
52	582	0	10000	2	1	0	2	0
55	583	0	10000	2	1	0	2	0
55	584	0	10000	2	1	0	2	0
53	585	0	10000	2	1	0	2	0
52	586	0	10000	2	1	0	2	0
52	587	0	10000	2	1	0	2	0
51	588	0	10000	2	1	0	2	0
54	589	0	10000	2	1	0	2	0
61	590	0	10000	2	1	0	2	0
60	591	0	10000	2	1	0	2	0
64	592	0	10000	2	1	0	2	0
71	593	0	10000	2	1	0	2	0
81	594	0	10000	2	1	0	2	0
91	595	0	10000	2	1	0	2	0
103	596	0	10000	2	1	0	2	0
114	597	0	10000	2	1	0	2	0
117	598	0	10000	2	1	0	2	0
135	599	0	10000	2	1	0	2	0
159	600	0	10000	2	1	0	2	0
161	601	0	10000	2	1	0	2	0
175	602	0	10000	2	1	0	2	0
233	603	0	10000	2	1	0	2	0
391	604	0	10000	2	1	0	2	0
454	605	0	10000	2	1	0	2	0
480	606	0	10000	2	1	0	2	0
485	607	0	10000	2	1	0	2	0
549	608	0	10000	2	1	0	2	0
599	609	0	10000	2	1	0	2	0
589	610	0	10000	2	1	0	2	0
583	611	0	10000	2	1	0	2	0
607	612	0	10000	2	1	0	2	0
666	613	0	10000	2	1	0	2	0
652	614	0	10000	2	1	0	2	0
655	615	0	10000	2	1	0	2	0
683	616	0	10000	2	1	0	2	0
796	617	0	10000	2	1	0	2	0
811	618	0	10000	2	1	0	2	0
806	619	0	10000	2	1	0	2	0
774	620	0	10000	2	1	0	2	0
781	621	0	10000	2	1	0	2	0
828	622	0	10000	2	1	0	2	0
880	623	0	10000	2	1	0	2	0
868	624	0	10000	2	1	0	2	0
866	625	0	10000	2	1	0	2	0
930	626	0	10000	2	1	0	2	0
1092	627	0	10000	2	1	0	2	0
1146	628	0	10000	2	1	0	2	0
1213	629	0	10000	2	1	0	2	0
1354	630	0	10000	2	1	0	2	0
1440	631	0	10000	2	1	0	2	0
1448	632	0	10000	2	1	0	2	0
1400	633	0	10000	2	1	0	2	0
1343	634	0	10000	2	1	0	2	0
1307	635	0	10000	2	1	0	2	0
1287	636	0	10000	2	1	0	2	0
1275	637	0	10000	2	1	0	2	0
1266	638	0	10000	2	1	0	2	0
1258	639	0	10000	2	1	0	2	0
1247	640	0	10000	2	1	0	2	0
1233	641	0	10000	2	1	0	2	0
1216	642	0	10000	2	1	0	2	0
1195	643	0	10000	2	1	0	2	0
1169	644	0	10000	2	1	0	2	0
1144	645	0	10000	2	1	0	2	0
1118	646	0	10000	2	1	0	2	0
1091	647	0	10000	2	1	0	2	0
1059	648	0	10000	2	1	0	2	0
1026	649	0	10000	2	1	0	2	0
991	650	0	10000	2	1	0	2	0
952	651	0	10000	2	1	0	2	0
911	652	0	10000	2	1	0	2	0
870	653	0	10000	2	1	0	2	0
836	654	0	10000	2	1	0	2	0
808	655	0	10000	2	1	0	2	0
783	656	0	10000	2	1	0	2	0
763	657	0	10000	2	1	0	2	0
749	658	0	10000	2	1	0	2	0
738	659	0	10000	2	1	0	2	0
731	660	0	10000	2	1	0	2	0
729	661	0	10000	2	1	0	2	0
730	662	0	10000	2	1	0	2	0
732	663	0	10000	2	1	0	2	0
733	664	0	10000	2	1	0	2	0
737	665	0	10000	2	1	0	2	0
737	666	0	10000	2	1	0	2	0
734	667	0	10000	2	1	0	2	0
728	668	0	10000	2	1	0	2	0
719	669	0	10000	2	1	0	2	0
710	670	0	10000	2	1	0	2	0
699	671	0	10000	2	1	0	2	0
688	672	0	10000	2	1	0	2	0
679	673	0	10000	2	1	0	2	0
673	674	0	10000	2	1	0	2	0
667	675	0	10000	2	1	0	2	0
658	676	0	10000	2	1	0	2	0
651	677	0	10000	2	1	0	2	0
644	678	0	10000	2	1	0	2	0
640	679	0	10000	2	1	0	2	0
633	680	0	10000	2	1	0	2	0
626	681	0	10000	2	1	0	2	0
619	682	0	10000	2	1	0	2	0
610	683	0	10000	2	1	0	2	0
597	684	0	10000	2	1	0	2	0
587	685	0	10000	2	1	0	2	0
574	686	0	10000	2	1	0	2	0
559	687	0	10000	2	1	0	2	0
544	688	0	10000	2	1	0	2	0
527	689	0	10000	2	1	0	2	0
506	690	0	10000	2	1	0	2	0
483	691	0	10000	2	1	0	2	0
461	692	0	10000	2	1	0	2	0
440	693	0	10000	2	1	0	2	0
422	694	0	10000	2	1	0	2	0
402	695	0	10000	2	1	0	2	0
384	696	0	10000	2	1	0	2	0
367	697	0	10000	2	1	0	2	0
350	698	0	10000	2	1	0	2	0
334	699	0	10000	2	1	0	2	0
318	700	0	10000	2	1	0	2	0
304	701	0	10000	2	1	0	2	0
291	702	0	10000	2	1	0	2	0
279	703	0	10000	2	1	0	2	0
268	704	0	10000	2	1	0	2	0
261	705	0	10000	2	1	0	2	0
255	706	0	10000	2	1	0	2	0
251	707	0	10000	2	1	0	2	0
249	708	0	10000	2	1	0	2	0
247	709	0	10000	2	1	0	2	0
245	710	0	10000	2	1	0	2	0
244	711	0	10000	2	1	0	2	0
241	712	0	10000	2	1	0	2	0
238	713	0	10000	2	1	0	2	0
239	714	0	10000	2	1	0	2	0
239	715	0	10000	2	1	0	2	0
239	716	0	10000	2	1	0	2	0
237	717	0	10000	2	1	0	2	0
235	718	0	10000	2	1	0	2	0
230	719	0	10000	2	1	0	2	0
223	720	0	10000	2	1	0	2	0
217	721	0	10000	2	1	0	2	0
209	722	0	10000	2	1	0	2	0
201	723	0	10000	2	1	0	2	0
196	724	0	10000	2	1	0	2	0
194	725	0	10000	2	1	0	2	0
191	726	0	10000	2	1	0	2	0
189	727	0	10000	2	1	0	2	0
185	728	0	10000	2	1	0	2	0
183	729	0	10000	2	1	0	2	0
185	730	0	10000	2	1	0	2	0
190	731	0	10000	2	1	0	2	0
194	732	0	10000	2	1	0	2	0
198	733	0	10000	2	1	0	2	0
205	734	0	10000	2	1	0	2	0
210	735	0	10000	2	1	0	2	0
212	736	0	10000	2	1	0	2	0
209	737	0	10000	2	1	0	2	0
204	738	0	10000	2	1	0	2	0
198	739	0	10000	2	1	0	2	0
190	740	0	10000	2	1	0	2	0
182	741	0	10000	2	1	0	2	0
176	742	0	10000	2	1	0	2	0
171	743	0	10000	2	1	0	2	0
165	744	0	10000	2	1	0	2	0
164	745	0	10000	2	1	0	2	0
163	746	0	10000	2	1	0	2	0
162	747	0	10000	2	1	0	2	0
161	748	0	10000	2	1	0	2	0
164	749	0	10000	2	1	0	2	0
165	750	0	10000	2	1	0	2	0
167	751	0	10000	2	1	0	2	0
168	752	0	10000	2	1	0	2	0
168	753	0	10000	2	1	0	2	0
170	754	0	10000	2	1	0	2	0
170	755	0	10000	2	1	0	2	0
168	756	0	10000	2	1	0	2	0
166	757	0	10000	2	1	0	2	0
162	758	0	10000	2	1	0	2	0
155	759	0	10000	2	1	0	2	0
152	760	0	10000	2	1	0	2	0
153	761	0	10000	2	1	0	2	0
158	762	0	10000	2	1	0	2	0
162	763	0	10000	2	1	0	2	0
160	764	0	10000	2	1	0	2	0
155	765	0	10000	2	1	0	2	0
153	766	0	10000	2	1	0	2	0
148	767	0	10000	2	1	0	2	0
148	768	0	10000	2	1	0	2	0
156	769	0	10000	2	1	0	2	0
165	770	0	10000	2	1	0	2	0
171	771	0	10000	2	1	0	2	0
174	772	0	10000	2	1	0	2	0
174	773	0	10000	2	1	0	2	0
174	774	0	10000	2	1	0	2	0
171	775	0	10000	2	1	0	2	0
166	776	0	10000	2	1	0	2	0
159	777	0	10000	2	1	0	2	0
152	778	0	10000	2	1	0	2	0
145	779	0	10000	2	1	0	2	0
138	780	0	10000	2	1	0	2	0
134	780	0	10000	2	1	0	2	0
128	781	0	10000	2	1	0	2	0
124	783	0	10000	2	1	0	2	0
119	784	0	10000	2	1	0	2	0
118	785	0	10000	2	1	0	2	0
115	786	0	10000	2	1	0	2	0
111	787	0	10000	2	1	0	2	0
109	788	0	10000	2	1	0	2	0
107	789	0	10000	2	1	0	2	0
105	790	0	10000	2	1	0	2	0
101	790	0	10000	2	1	0	2	0
102	791	0	10000	2	1	0	2	0
105	793	0	10000	2	1	0	2	0
107	794	0	10000	2	1	0	2	0
103	795	0	10000	2	1	0	2	0
99	796	0	10000	2	1	0	2	0
96	797	0	10000	2	1	0	2	0
95	798	0	10000	2	1	0	2	0
95	799	0	10000	2	1	0	2	0
94	800	0	10000	2	1	0	2	0
92	800	0	10000	2	1	0	2	0
88	801	0	10000	2	1	0	2	0
86	803	0	10000	2	1	0	2	0
84	804	0	10000	2	1	0	2	0
80	805	0	10000	2	1	0	2	0
78	806	0	10000	2	1	0	2	0
81	807	0	10000	2	1	0	2	0
88	808	0	10000	2	1	0	2	0
92	809	0	10000	2	1	0	2	0
95	810	0	10000	2	1	0	2	0
94	810	0	10000	2	1	0	2	0
91	811	0	10000	2	1	0	2	0
89	813	0	10000	2	1	0	2	0
90	814	0	10000	2	1	0	2	0
88	815	0	10000	2	1	0	2	0
87	816	0	10000	2	1	0	2	0
86	817	0	10000	2	1	0	2	0
84	818	0	10000	2	1	0	2	0
81	819	0	10000	2	1	0	2	0
80	820	0	10000	2	1	0	2	0
80	820	0	10000	2	1	0	2	0
80	821	0	10000	2	1	0	2	0
83	823	0	10000	2	1	0	2	0
86	824	0	10000	2	1	0	2	0
93	825	0	10000	2	1	0	2	0
98	826	0	10000	2	1	0	2	0
100	827	0	10000	2	1	0	2	0
97	828	0	10000	2	1	0	2	0
99	829	0	10000	2	1	0	2	0
103	830	0	10000	2	1	0	2	0
104	830	0	10000	2	1	0	2	0
104	831	0	10000	2	1	0	2	0
102	833	0	10000	2	1	0	2	0
103	834	0	10000	2	1	0	2	0
104	835	0	10000	2	1	0	2	0
104	836	0	10000	2	1	0	2	0
101	837	0	10000	2	1	0	2	0
97	838	0	10000	2	1	0	2	0
95	839	0	10000	2	1	0	2	0
92	840	0	10000	2	1	0	2	0
88	840	0	10000	2	1	0	2	0
87	841	0	10000	2	1	0	2	0
86	843	0	10000	2	1	0	2	0
81	844	0	10000	2	1	0	2	0
78	845	0	10000	2	1	0	2	0
76	846	0	10000	2	1	0	2	0
75	847	0	10000	2	1	0	2	0
71	848	0	10000	2	1	0	2	0
70	849	0	10000	2	1	0	2	0
69	850	0	10000	2	1	0	2	0
71	850	0	10000	2	1	0	2	0
75	851	0	10000	2	1	0	2	0
74	853	0	10000	2	1	0	2	0
73	854	0	10000	2	1	0	2	0
71	855	0	10000	2	1	0	2	0
71	856	0	10000	2	1	0	2	0
69	857	0	10000	2	1	0	2	0
67	858	0	10000	2	1	0	2	0
65	859	0	10000	2	1	0	2	0
62	860	0	10000	2	1	0	2	0
59	860	0	10000	2	1	0	2	0
59	861	0	10000	2	1	0	2	0
59	863	0	10000	2	1	0	2	0
57	864	0	10000	2	1	0	2	0
57	865	0	10000	2	1	0	2	0
56	866	0	10000	2	1	0	2	0
55	867	0	10000	2	1	0	2	0
60	868	0	10000	2	1	0	2	0
64	869	0	10000	2	1	0	2	0
62	870	0	10000	2	1	0	2	0
60	870	0	10000	2	1	0	2	0
59	871	0	10000	2	1	0	2	0
65	873	0	10000	2	1	0	2	0
72	874	0	10000	2	1	0	2	0
70	875	0	10000	2	1	0	2	0
70	876	0	10000	2	1	0	2	0
72	877	0	10000	2	1	0	2	0
75	878	0	10000	2	1	0	2	0
81	879	0	10000	2	1	0	2	0
83	880	0	10000	2	1	0	2	0
82	880	0	10000	2	1	0	2	0
79	881	0	10000	2	1	0	2	0
77	883	0	10000	2	1	0	2	0
72	884	0	10000	2	1	0	2	0
69	885	0	10000	2	1	0	2	0
68	886	0	10000	2	1	0	2	0
70	887	0	10000	2	1	0	2	0
72	888	0	10000	2	1	0	2	0
72	889	0	10000	2	1	0	2	0
70	890	0	10000	2	1	0	2	0
69	890	0	10000	2	1	0	2	0
69	891	0	10000	2	1	0	2	0
68	893	0	10000	2	1	0	2	0
68	894	0	10000	2	1	0	2	0
68	895	0	10000	2	1	0	2	0
68	896	0	10000	2	1	0	2	0
67	897	0	10000	2	1	0	2	0
68	898	0	10000	2	1	0	2	0
68	899	0	10000	2	1	0	2	0
65	900	0	10000	2	1	0	2	0
64	900	0	10000	2	1	0	2	0
62	901	0	10000	2	1	0	2	0
63	903	0	10000	2	1	0	2	0
63	904	0	10000	2	1	0	2	0
69	905	0	10000	2	1	0	2	0
69	906	0	10000	2	1	0	2	0
70	907	0	10000	2	1	0	2	0
74	908	0	10000	2	1	0	2	0
76	909	0	10000	2	1	0	2	0
75	910	0	10000	2	1	0	2	0
76	910	0	10000	2	1	0	2	0
78	911	0	10000	2	1	0	2	0
76	913	0	10000	2	1	0	2	0
80	914	0	10000	2	1	0	2	0
76	915	0	10000	2	1	0	2	0
75	916	0	10000	2	1	0	2	0
74	917	0	10000	2	1	0	2	0
71	918	0	10000	2	1	0	2	0
69	919	0	10000	2	1	0	2	0
68	920	0	10000	2	1	0	2	0
68	920	0	10000	2	1	0	2	0
66	921	0	10000	2	1	0	2	0
65	923	0	10000	2	1	0	2	0
63	924	0	10000	2	1	0	2	0
61	925	0	10000	2	1	0	2	0
64	926	0	10000	2	1	0	2	0
66	927	0	10000	2	1	0	2	0
64	928	0	10000	2	1	0	2	0
64	929	0	10000	2	1	0	2	0
68	930	0	10000	2	1	0	2	0
73	930	0	10000	2	1	0	2	0
81	931	0	10000	2	1	0	2	0
85	933	0	10000	2	1	0	2	0
86	934	0	10000	2	1	0	2	0
83	935	0	10000	2	1	0	2	0
82	936	0	10000	2	1	0	2	0
81	937	0	10000	2	1	0	2	0
78	938	0	10000	2	1	0	2	0
75	939	0	10000	2	1	0	2	0
71	940	0	10000	2	1	0	2	0
72	940	0	10000	2	1	0	2	0
74	941	0	10000	2	1	0	2	0
77	943	0	10000	2	1	0	2	0
79	944	0	10000	2	1	0	2	0
83	945	0	10000	2	1	0	2	0
84	946	0	10000	2	1	0	2	0
81	947	0	10000	2	1	0	2	0
80	948	0	10000	2	1	0	2	0
79	949	0	10000	2	1	0	2	0
78	950	0	10000	2	1	0	2	0
77	950	0	10000	2	1	0	2	0
76	951	0	10000	2	1	0	2	0
72	953	0	10000	2	1	0	2	0
73	954	0	10000	2	1	0	2	0
72	955	0	10000	2	1	0	2	0
71	956	0	10000	2	1	0	2	0
68	957	0	10000	2	1	0	2	0
68	958	0	10000	2	1	0	2	0
68	959	0	10000	2	1	0	2	0
68	960	0	10000	2	1	0	2	0
72	960	0	10000	2	1	0	2	0
75	961	0	10000	2	1	0	2	0
74	963	0	10000	2	1	0	2	0
70	964	0	10000	2	1	0	2	0
70	965	0	10000	2	1	0	2	0
69	966	0	10000	2	1	0	2	0
67	967	0	10000	2	1	0	2	0
67	968	0	10000	2	1	0	2	0
67	969	0	10000	2	1	0	2	0
64	970	0	10000	2	1	0	2	0
66	970	0	10000	2	1	0	2	0
68	971	0	10000	2	1	0	2	0
68	973	0	10000	2	1	0	2	0
76	974	0	10000	2	1	0	2	0
80	975	0	10000	2	1	0	2	0
76	976	0	10000	2	1	0	2	0
75	977	0	10000	2	1	0	2	0
72	978	0	10000	2	1	0	2	0
72	979	0	10000	2	1	0	2	0
73	980	0	10000	2	1	0	2	0
73	980	0	10000	2	1	0	2	0
72	981	0	10000	2	1	0	2	0
70	983	0	10000	2	1	0	2	0
66	984	0	10000	2	1	0	2	0
63	985	0	10000	2	1	0	2	0
62	986	0	10000	2	1	0	2	0
62	987	0	10000	2	1	0	2	0
63	988	0	10000	2	1	0	2	0
62	989	0	10000	2	1	0	2	0
61	990	0	10000	2	1	0	2	0
63	990	0	10000	2	1	0	2	0
67	991	0	10000	2	1	0	2	0
67	993	0	10000	2	1	0	2	0
67	994	0	10000	2	1	0	2	0
66	995	0	10000	2	1	0	2	0
64	996	0	10000	2	1	0	2	0
62	997	0	10000	2	1	0	2	0
59	998	0	10000	2	1	0	2	0
59	999	0	10000	2	1	0	2	0
63	1000	0	10000	2	1	0	2	0
67	1000	0	10000	2	1	0	2	0
65	1001	0	10000	2	1	0	2	0
66	2	0	10000	3	1	0	3	0
67	3	0	10000	3	1	0	3	0
65	4	0	10000	3	1	0	3	0
68	5	0	10000	3	1	0	3	0
70	6	0	10000	3	1	0	3	0
69	7	0	10000	3	1	0	3	0
75	8	0	10000	3	1	0	3	0
79	9	0	10000	3	1	0	3	0
80	10	0	10000	3	1	0	3	0
78	11	0	10000	3	1	0	3	0
78	12	0	10000	3	1	0	3	0
80	13	0	10000	3	1	0	3	0
81	14	0	10000	3	1	0	3	0
79	15	0	10000	3	1	0	3	0
75	16	0	10000	3	1	0	3	0
72	17	0	10000	3	1	0	3	0
70	18	0	10000	3	1	0	3	0
67	19	0	10000	3	1	0	3	0
66	20	0	10000	3	1	0	3	0
69	21	0	10000	3	1	0	3	0
72	22	0	10000	3	1	0	3	0
70	23	0	10000	3	1	0	3	0
71	24	0	10000	3	1	0	3	0
74	25	0	10000	3	1	0	3	0
72	26	0	10000	3	1	0	3	0
70	27	0	10000	3	1	0	3	0
72	28	0	10000	3	1	0	3	0
73	29	0	10000	3	1	0	3	0
72	30	0	10000	3	1	0	3	0
68	31	0	10000	3	1	0	3	0
66	32	0	10000	3	1	0	3	0
66	33	0	10000	3	1	0	3	0
67	34	0	10000	3	1	0	3	0
65	35	0	10000	3	1	0	3	0
67	36	0	10000	3	1	0	3	0
68	37	0	10000	3	1	0	3	0
65	38	0	10000	3	1	0	3	0
64	39	0	10000	3	1	0	3	0
65	40	0	10000	3	1	0	3	0
74	41	0	10000	3	1	0	3	0
74	42	0	10000	3	1	0	3	0
76	43	0	10000	3	1	0	3	0
78	44	0	10000	3	1	0	3	0
76	45	0	10000	3	1	0	3	0
74	46	0	10000	3	1	0	3	0
73	47	0	10000	3	1	0	3	0
74	48	0	10000	3	1	0	3	0
74	49	0	10000	3	1	0	3	0
73	50	0	10000	3	1	0	3	0
69	51	0	10000	3	1	0	3	0
68	52	0	10000	3	1	0	3	0
71	53	0	10000	3	1	0	3	0
70	54	0	10000	3	1	0	3	0
68	55	0	10000	3	1	0	3	0
67	56	0	10000	3	1	0	3	0
68	57	0	10000	3	1	0	3	0
67	58	0	10000	3	1	0	3	0
65	59	0	10000	3	1	0	3	0
62	60	0	10000	3	1	0	3	0
64	61	0	10000	3	1	0	3	0
63	62	0	10000	3	1	0	3	0
62	63	0	10000	3	1	0	3	0
59	64	0	10000	3	1	0	3	0
60	65	0	10000	3	1	0	3	0
60	66	0	10000	3	1	0	3	0
58	67	0	10000	3	1	0	3	0
59	68	0	10000	3	1	0	3	0
59	69	0	10000	3	1	0	3	0
58	70	0	10000	3	1	0	3	0
54	71	0	10000	3	1	0	3	0
56	72	0	10000	3	1	0	3	0
59	73	0	10000	3	1	0	3	0
64	74	0	10000	3	1	0	3	0
67	75	0	10000	3	1	0	3	0
68	76	0	10000	3	1	0	3	0
67	77	0	10000	3	1	0	3	0
63	78	0	10000	3	1	0	3	0
66	79	0	10000	3	1	0	3	0
68	80	0	10000	3	1	0	3	0
68	81	0	10000	3	1	0	3	0
68	82	0	10000	3	1	0	3	0
68	83	0	10000	3	1	0	3	0
65	84	0	10000	3	1	0	3	0
66	85	0	10000	3	1	0	3	0
68	86	0	10000	3	1	0	3	0
68	87	0	10000	3	1	0	3	0
71	88	0	10000	3	1	0	3	0
79	89	0	10000	3	1	0	3	0
87	90	0	10000	3	1	0	3	0
86	91	0	10000	3	1	0	3	0
90	92	0	10000	3	1	0	3	0
96	93	0	10000	3	1	0	3	0
101	94	0	10000	3	1	0	3	0
103	95	0	10000	3	1	0	3	0
99	96	0	10000	3	1	0	3	0
99	97	0	10000	3	1	0	3	0
103	98	0	10000	3	1	0	3	0
104	99	0	10000	3	1	0	3	0
103	100	0	10000	3	1	0	3	0
103	101	0	10000	3	1	0	3	0
100	102	0	10000	3	1	0	3	0
97	103	0	10000	3	1	0	3	0
93	104	0	10000	3	1	0	3	0
91	105	0	10000	3	1	0	3	0
93	106	0	10000	3	1	0	3	0
92	107	0	10000	3	1	0	3	0
91	108	0	10000	3	1	0	3	0
89	109	0	10000	3	1	0	3	0
87	110	0	10000	3	1	0	3	0
82	111	0	10000	3	1	0	3	0
80	112	0	10000	3	1	0	3	0
78	113	0	10000	3	1	0	3	0
74	114	0	10000	3	1	0	3	0
76	115	0	10000	3	1	0	3	0
80	116	0	10000	3	1	0	3	0
78	117	0	10000	3	1	0	3	0
78	118	0	10000	3	1	0	3	0
78	119	0	10000	3	1	0	3	0
77	120	0	10000	3	1	0	3	0
78	121	0	10000	3	1	0	3	0
80	122	0	10000	3	1	0	3	0
78	123	0	10000	3	1	0	3	0
75	124	0	10000	3	1	0	3	0
74	125	0	10000	3	1	0	3	0
73	126	0	10000	3	1	0	3	0
69	127	0	10000	3	1	0	3	0
67	128	0	10000	3	1	0	3	0
66	129	0	10000	3	1	0	3	0
70	130	0	10000	3	1	0	3	0
71	131	0	10000	3	1	0	3	0
71	132	0	10000	3	1	0	3	0
75	133	0	10000	3	1	0	3	0
79	134	0	10000	3	1	0	3	0
83	135	0	10000	3	1	0	3	0
83	136	0	10000	3	1	0	3	0
83	137	0	10000	3	1	0	3	0
84	138	0	10000	3	1	0	3	0
87	139	0	10000	3	1	0	3	0
85	140	0	10000	3	1	0	3	0
89	141	0	10000	3	1	0	3	0
90	142	0	10000	3	1	0	3	0
91	143	0	10000	3	1	0	3	0
92	144	0	10000	3	1	0	3	0
92	145	0	10000	3	1	0	3	0
89	146	0	10000	3	1	0	3	0
88	147	0	10000	3	1	0	3	0
91	148	0	10000	3	1	0	3	0
97	149	0	10000	3	1	0	3	0
96	150	0	10000	3	1	0	3	0
92	151	0	10000	3	1	0	3	0
92	152	0	10000	3	1	0	3	0
93	153	0	10000	3	1	0	3	0
95	154	0	10000	3	1	0	3	0
96	155	0	10000	3	1	0	3	0
94	156	0	10000	3	1	0	3	0
91	157	0	10000	3	1	0	3	0
88	158	0	10000	3	1	0	3	0
87	159	0	10000	3	1	0	3	0
85	160	0	10000	3	1	0	3	0
88	161	0	10000	3	1	0	3	0
91	162	0	10000	3	1	0	3	0
90	163	0	10000	3	1	0	3	0
89	164	0	10000	3	1	0	3	0
94	165	0	10000	3	1	0	3	0
96	166	0	10000	3	1	0	3	0
94	167	0	10000	3	1	0	3	0
95	168	0	10000	3	1	0	3	0
95	169	0	10000	3	1	0	3	0
94	170	0	10000	3	1	0	3	0
92	171	0	10000	3	1	0	3	0
91	172	0	10000	3	1	0	3	0
88	173	0	10000	3	1	0	3	0
84	174	0	10000	3	1	0	3	0
81	175	0	10000	3	1	0	3	0
79	176	0	10000	3	1	0	3	0
78	177	0	10000	3	1	0	3	0
80	178	0	10000	3	1	0	3	0
81	179	0	10000	3	1	0	3	0
84	180	0	10000	3	1	0	3	0
87	181	0	10000	3	1	0	3	0
83	182	0	10000	3	1	0	3	0
81	183	0	10000	3	1	0	3	0
80	184	0	10000	3	1	0	3	0
82	185	0	10000	3	1	0	3	0
81	186	0	10000	3	1	0	3	0
82	187	0	10000	3	1	0	3	0
87	188	0	10000	3	1	0	3	0
85	189	0	10000	3	1	0	3	0
85	190	0	10000	3	1	0	3	0
84	191	0	10000	3	1	0	3	0
81	192	0	10000	3	1	0	3	0
78	193	0	10000	3	1	0	3	0
77	194	0	10000	3	1	0	3	0
77	195	0	10000	3	1	0	3	0
75	196	0	10000	3	1	0	3	0
75	197	0	10000	3	1	0	3	0
77	198	0	10000	3	1	0	3	0
78	199	0	10000	3	1	0	3	0
76	200	0	10000	3	1	0	3	0
79	201	0	10000	3	1	0	3	0
82	202	0	10000	3	1	0	3	0
81	203	0	10000	3	1	0	3	0
80	204	0	10000	3	1	0	3	0
78	205	0	10000	3	1	0	3	0
74	206	0	10000	3	1	0	3	0
72	207	0	10000	3	1	0	3	0
72	208	0	10000	3	1	0	3	0
69	209	0	10000	3	1	0	3	0
69	210	0	10000	3	1	0	3	0
69	211	0	10000	3	1	0	3	0
67	212	0	10000	3	1	0	3	0
64	213	0	10000	3	1	0	3	0
65	214	0	10000	3	1	0	3	0
66	215	0	10000	3	1	0	3	0
66	216	0	10000	3	1	0	3	0
72	217	0	10000	3	1	0	3	0
75	218	0	10000	3	1	0	3	0
74	219	0	10000	3	1	0	3	0
73	220	0	10000	3	1	0	3	0
72	221	0	10000	3	1	0	3	0
72	222	0	10000	3	1	0	3	0
74	223	0	10000	3	1	0	3	0
71	224	0	10000	3	1	0	3	0
73	225	0	10000	3	1	0	3	0
76	226	0	10000	3	1	0	3	0
81	227	0	10000	3	1	0	3	0
85	228	0	10000	3	1	0	3	0
83	229	0	10000	3	1	0	3	0
80	230	0	10000	3	1	0	3	0
76	231	0	10000	3	1	0	3	0
74	232	0	10000	3	1	0	3	0
75	233	0	10000	3	1	0	3	0
78	234	0	10000	3	1	0	3	0
78	235	0	10000	3	1	0	3	0
76	236	0	10000	3	1	0	3	0
73	237	0	10000	3	1	0	3	0
71	238	0	10000	3	1	0	3	0
72	239	0	10000	3	1	0	3	0
68	240	0	10000	3	1	0	3	0
67	241	0	10000	3	1	0	3	0
65	242	0	10000	3	1	0	3	0
66	243	0	10000	3	1	0	3	0
66	244	0	10000	3	1	0	3	0
64	245	0	10000	3	1	0	3	0
61	246	0	10000	3	1	0	3	0
60	247	0	10000	3	1	0	3	0
60	248	0	10000	3	1	0	3	0
60	249	0	10000	3	1	0	3	0
66	250	0	10000	3	1	0	3	0
68	251	0	10000	3	1	0	3	0
66	252	0	10000	3	1	0	3	0
65	253	0	10000	3	1	0	3	0
64	254	0	10000	3	1	0	3	0
62	255	0	10000	3	1	0	3	0
63	256	0	10000	3	1	0	3	0
62	257	0	10000	3	1	0	3	0
62	258	0	10000	3	1	0	3	0
62	259	0	10000	3	1	0	3	0
59	260	0	10000	3	1	0	3	0
59	261	0	10000	3	1	0	3	0
57	262	0	10000	3	1	0	3	0
54	263	0	10000	3	1	0	3	0
51	264	0	10000	3	1	0	3	0
50	265	0	10000	3	1	0	3	0
48	266	0	10000	3	1	0	3	0
46	267	0	10000	3	1	0	3	0
49	268	0	10000	3	1	0	3	0
55	269	0	10000	3	1	0	3	0
56	270	0	10000	3	1	0	3	0
56	271	0	10000	3	1	0	3	0
60	272	0	10000	3	1	0	3	0
59	273	0	10000	3	1	0	3	0
57	274	0	10000	3	1	0	3	0
57	275	0	10000	3	1	0	3	0
57	276	0	10000	3	1	0	3	0
58	277	0	10000	3	1	0	3	0
58	278	0	10000	3	1	0	3	0
55	279	0	10000	3	1	0	3	0
54	280	0	10000	3	1	0	3	0
56	281	0	10000	3	1	0	3	0
56	282	0	10000	3	1	0	3	0
58	283	0	10000	3	1	0	3	0
60	284	0	10000	3	1	0	3	0
58	285	0	10000	3	1	0	3	0
55	286	0	10000	3	1	0	3	0
53	287	0	10000	3	1	0	3	0
55	288	0	10000	3	1	0	3	0
57	289	0	10000	3	1	0	3	0
55	290	0	10000	3	1	0	3	0
51	291	0	10000	3	1	0	3	0
50	292	0	10000	3	1	0	3	0
49	293	0	10000	3	1	0	3	0
48	294	0	10000	3	1	0	3	0
49	295	0	10000	3	1	0	3	0
53	296	0	10000	3	1	0	3	0
53	297	0	10000	3	1	0	3	0
51	298	0	10000	3	1	0	3	0
49	299	0	10000	3	1	0	3	0
49	300	0	10000	3	1	0	3	0
49	301	0	10000	3	1	0	3	0
48	302	0	10000	3	1	0	3	0
47	303	0	10000	3	1	0	3	0
48	304	0	10000	3	1	0	3	0
50	305	0	10000	3	1	0	3	0
50	306	0	10000	3	1	0	3	0
49	307	0	10000	3	1	0	3	0
48	308	0	10000	3	1	0	3	0
50	309	0	10000	3	1	0	3	0
51	310	0	10000	3	1	0	3	0
51	311	0	10000	3	1	0	3	0
53	312	0	10000	3	1	0	3	0
53	313	0	10000	3	1	0	3	0
52	314	0	10000	3	1	0	3	0
52	315	0	10000	3	1	0	3	0
50	316	0	10000	3	1	0	3	0
49	317	0	10000	3	1	0	3	0
50	318	0	10000	3	1	0	3	0
51	319	0	10000	3	1	0	3	0
55	320	0	10000	3	1	0	3	0
66	321	0	10000	3	1	0	3	0
69	322	0	10000	3	1	0	3	0
68	323	0	10000	3	1	0	3	0
68	324	0	10000	3	1	0	3	0
66	325	0	10000	3	1	0	3	0
64	326	0	10000	3	1	0	3	0
62	327	0	10000	3	1	0	3	0
61	328	0	10000	3	1	0	3	0
59	329	0	10000	3	1	0	3	0
58	330	0	10000	3	1	0	3	0
54	331	0	10000	3	1	0	3	0
52	332	0	10000	3	1	0	3	0
53	333	0	10000	3	1	0	3	0
51	334	0	10000	3	1	0	3	0
54	335	0	10000	3	1	0	3	0
58	336	0	10000	3	1	0	3	0
58	337	0	10000	3	1	0	3	0
56	338	0	10000	3	1	0	3	0
57	339	0	10000	3	1	0	3	0
57	340	0	10000	3	1	0	3	0
62	341	0	10000	3	1	0	3	0
64	342	0	10000	3	1	0	3	0
60	343	0	10000	3	1	0	3	0
58	344	0	10000	3	1	0	3	0
59	345	0	10000	3	1	0	3	0
57	346	0	10000	3	1	0	3	0
56	347	0	10000	3	1	0	3	0
56	348	0	10000	3	1	0	3	0
57	349	0	10000	3	1	0	3	0
59	350	0	10000	3	1	0	3	0
59	351	0	10000	3	1	0	3	0
65	352	0	10000	3	1	0	3	0
69	353	0	10000	3	1	0	3	0
69	354	0	10000	3	1	0	3	0
67	355	0	10000	3	1	0	3	0
64	356	0	10000	3	1	0	3	0
64	357	0	10000	3	1	0	3	0
61	358	0	10000	3	1	0	3	0
61	359	0	10000	3	1	0	3	0
61	360	0	10000	3	1	0	3	0
59	361	0	10000	3	1	0	3	0
59	362	0	10000	3	1	0	3	0
65	363	0	10000	3	1	0	3	0
68	364	0	10000	3	1	0	3	0
66	365	0	10000	3	1	0	3	0
64	366	0	10000	3	1	0	3	0
65	367	0	10000	3	1	0	3	0
67	368	0	10000	3	1	0	3	0
66	369	0	10000	3	1	0	3	0
69	370	0	10000	3	1	0	3	0
69	371	0	10000	3	1	0	3	0
67	372	0	10000	3	1	0	3	0
65	373	0	10000	3	1	0	3	0
62	374	0	10000	3	1	0	3	0
65	375	0	10000	3	1	0	3	0
68	376	0	10000	3	1	0	3	0
70	377	0	10000	3	1	0	3	0
70	378	0	10000	3	1	0	3	0
70	379	0	10000	3	1	0	3	0
68	380	0	10000	3	1	0	3	0
67	381	0	10000	3	1	0	3	0
65	382	0	10000	3	1	0	3	0
63	383	0	10000	3	1	0	3	0
61	384	0	10000	3	1	0	3	0
59	385	0	10000	3	1	0	3	0
59	386	0	10000	3	1	0	3	0
60	387	0	10000	3	1	0	3	0
58	388	0	10000	3	1	0	3	0
57	389	0	10000	3	1	0	3	0
56	390	0	10000	3	1	0	3	0
53	391	0	10000	3	1	0	3	0
56	392	0	10000	3	1	0	3	0
58	393	0	10000	3	1	0	3	0
57	394	0	10000	3	1	0	3	0
57	395	0	10000	3	1	0	3	0
61	396	0	10000	3	1	0	3	0
63	397	0	10000	3	1	0	3	0
60	398	0	10000	3	1	0	3	0
58	399	0	10000	3	1	0	3	0
59	400	0	10000	3	1	0	3	0
60	401	0	10000	3	1	0	3	0
61	402	0	10000	3	1	0	3	0
63	403	0	10000	3	1	0	3	0
62	404	0	10000	3	1	0	3	0
61	405	0	10000	3	1	0	3	0
60	406	0	10000	3	1	0	3	0
57	407	0	10000	3	1	0	3	0
56	408	0	10000	3	1	0	3	0
56	409	0	10000	3	1	0	3	0
57	410	0	10000	3	1	0	3	0
57	411	0	10000	3	1	0	3	0
58	412	0	10000	3	1	0	3	0
57	413	0	10000	3	1	0	3	0
56	414	0	10000	3	1	0	3	0
54	415	0	10000	3	1	0	3	0
53	416	0	10000	3	1	0	3	0
52	417	0	10000	3	1	0	3	0
52	418	0	10000	3	1	0	3	0
51	419	0	10000	3	1	0	3	0
49	420	0	10000	3	1	0	3	0
50	421	0	10000	3	1	0	3	0
51	422	0	10000	3	1	0	3	0
55	423	0	10000	3	1	0	3	0
57	424	0	10000	3	1	0	3	0
55	425	0	10000	3	1	0	3	0
53	426	0	10000	3	1	0	3	0
52	427	0	10000	3	1	0	3	0
53	428	0	10000	3	1	0	3	0
51	429	0	10000	3	1	0	3	0
50	430	0	10000	3	1	0	3	0
47	431	0	10000	3	1	0	3	0
48	432	0	10000	3	1	0	3	0
47	433	0	10000	3	1	0	3	0
49	434	0	10000	3	1	0	3	0
50	435	0	10000	3	1	0	3	0
48	436	0	10000	3	1	0	3	0
51	437	0	10000	3	1	0	3	0
52	438	0	10000	3	1	0	3	0
50	439	0	10000	3	1	0	3	0
49	440	0	10000	3	1	0	3	0
53	441	0	10000	3	1	0	3	0
52	442	0	10000	3	1	0	3	0
52	443	0	10000	3	1	0	3	0
55	444	0	10000	3	1	0	3	0
57	445	0	10000	3	1	0	3	0
58	446	0	10000	3	1	0	3	0
56	447	0	10000	3	1	0	3	0
54	448	0	10000	3	1	0	3	0
53	449	0	10000	3	1	0	3	0
53	450	0	10000	3	1	0	3	0
54	451	0	10000	3	1	0	3	0
60	452	0	10000	3	1	0	3	0
63	453	0	10000	3	1	0	3	0
61	454	0	10000	3	1	0	3	0
62	455	0	10000	3	1	0	3	0
63	456	0	10000	3	1	0	3	0
62	457	0	10000	3	1	0	3	0
60	458	0	10000	3	1	0	3	0
61	459	0	10000	3	1	0	3	0
60	460	0	10000	3	1	0	3	0
61	461	0	10000	3	1	0	3	0
60	462	0	10000	3	1	0	3	0
59	463	0	10000	3	1	0	3	0
58	464	0	10000	3	1	0	3	0
56	465	0	10000	3	1	0	3	0
55	466	0	10000	3	1	0	3	0
57	467	0	10000	3	1	0	3	0
57	468	0	10000	3	1	0	3	0
58	469	0	10000	3	1	0	3	0
57	470	0	10000	3	1	0	3	0
55	471	0	10000	3	1	0	3	0
54	472	0	10000	3	1	0	3	0
57	473	0	10000	3	1	0	3	0
60	474	0	10000	3	1	0	3	0
59	475	0	10000	3	1	0	3	0
62	476	0	10000	3	1	0	3	0
66	477	0	10000	3	1	0	3	0
64	478	0	10000	3	1	0	3	0
62	479	0	10000	3	1	0	3	0
63	480	0	10000	3	1	0	3	0
63	481	0	10000	3	1	0	3	0
62	482	0	10000	3	1	0	3	0
61	483	0	10000	3	1	0	3	0
59	484	0	10000	3	1	0	3	0
59	485	0	10000	3	1	0	3	0
58	486	0	10000	3	1	0	3	0
59	487	0	10000	3	1	0	3	0
59	488	0	10000	3	1	0	3	0
58	489	0	10000	3	1	0	3	0
57	490	0	10000	3	1	0	3	0
54	491	0	10000	3	1	0	3	0
53	492	0	10000	3	1	0	3	0
54	493	0	10000	3	1	0	3	0
58	494	0	10000	3	1	0	3	0
58	495	0	10000	3	1	0	3	0
60	496	0	10000	3	1	0	3	0
62	497	0	10000	3	1	0	3	0
62	498	0	10000	3	1	0	3	0
60	499	0	10000	3	1	0	3	0
61	500	0	10000	3	1	0	3	0
64	501	0	10000	3	1	0	3	0
61	502	0	10000	3	1	0	3	1
60	503	0	10000	3	1	0	3	1
61	504	0	10000	3	1	0	3	1
63	505	0	10000	3	1	0	3	1
64	506	0	10000	3	1	0	3	1
63	507	0	10000	3	1	0	3	1
64	508	0	10000	3	1	0	3	1
64	509	0	10000	3	1	0	3	1
67	510	0	10000	3	1	0	3	1
64	511	0	10000	3	1	0	3	1
67	512	0	10000	3	1	0	3	1
70	513	0	10000	3	1	0	3	1
68	514	0	10000	3	1	0	3	1
67	515	0	10000	3	1	0	3	1
68	516	0	10000	3	1	0	3	1
68	517	0	10000	3	1	0	3	1
65	518	0	10000	3	1	0	3	1
62	519	0	10000	3	1	0	3	1
59	520	0	10000	3	1	0	3	1
59	521	0	10000	3	1	0	3	1
56	522	0	10000	3	1	0	3	1
54	523	0	10000	3	1	0	3	1
53	524	0	10000	3	1	0	3	1
54	525	0	10000	3	1	0	3	1
55	526	0	10000	3	1	0	3	1
59	527	0	10000	3	1	0	3	1
69	528	0	10000	3	1	0	3	1
78	529	0	10000	3	1	0	3	1
78	530	0	10000	3	1	0	3	1
75	531	0	10000	3	1	0	3	1
77	532	0	10000	3	1	0	3	1
80	533	0	10000	3	1	0	3	1
83	534	0	10000	3	1	0	3	1
84	535	0	10000	3	1	0	3	1
84	536	0	10000	3	1	0	3	1
84	537	0	10000	3	1	0	3	1
82	538	0	10000	3	1	0	3	1
79	539	0	10000	3	1	0	3	1
75	540	0	10000	3	1	0	3	1
74	541	0	10000	3	1	0	3	1
74	542	0	10000	3	1	0	3	1
77	543	0	10000	3	1	0	3	1
81	544	0	10000	3	1	0	3	1
78	545	0	10000	3	1	0	3	1
77	546	0	10000	3	1	0	3	1
76	547	0	10000	3	1	0	3	1
74	548	0	10000	3	1	0	3	1
71	549	0	10000	3	1	0	3	1
69	550	0	10000	3	1	0	3	1
66	551	0	10000	3	1	0	3	1
63	552	0	10000	3	1	0	3	0
63	553	0	10000	3	1	0	3	0
63	554	0	10000	3	1	0	3	0
63	555	0	10000	3	1	0	3	0
67	556	0	10000	3	1	0	3	0
67	557	0	10000	3	1	0	3	0
64	558	0	10000	3	1	0	3	0
61	559	0	10000	3	1	0	3	0
59	560	0	10000	3	1	0	3	0
59	561	0	10000	3	1	0	3	0
59	562	0	10000	3	1	0	3	0
58	563	0	10000	3	1	0	3	0
59	564	0	10000	3	1	0	3	0
57	565	0	10000	3	1	0	3	0
57	566	0	10000	3	1	0	3	0
58	567	0	10000	3	1	0	3	0
58	568	0	10000	3	1	0	3	0
58	569	0	10000	3	1	0	3	0
60	570	0	10000	3	1	0	3	0
59	571	0	10000	3	1	0	3	0
57	572	0	10000	3	1	0	3	0
55	573	0	10000	3	1	0	3	0
54	574	0	10000	3	1	0	3	0
55	575	0	10000	3	1	0	3	0
62	576	0	10000	3	1	0	3	0
70	577	0	10000	3	1	0	3	0
69	578	0	10000	3	1	0	3	0
74	579	0	10000	3	1	0	3	0
79	580	0	10000	3	1	0	3	0
85	581	0	10000	3	1	0	3	0
92	582	0	10000	3	1	0	3	0
101	583	0	10000	3	1	0	3	0
109	584	0	10000	3	1	0	3	0
114	585	0	10000	3	1	0	3	0
117	586	0	10000	3	1	0	3	0
115	587	0	10000	3	1	0	3	0
113	588	0	10000	3	1	0	3	0
117	589	0	10000	3	1	0	3	0
123	590	0	10000	3	1	0	3	0
126	591	0	10000	3	1	0	3	0
142	592	0	10000	3	1	0	3	0
248	593	0	10000	3	1	0	3	0
287	594	0	10000	3	1	0	3	0
314	595	0	10000	3	1	0	3	0
417	596	0	10000	3	1	0	3	0
543	597	0	10000	3	1	0	3	0
646	598	0	10000	3	1	0	3	0
658	599	0	10000	3	1	0	3	0
714	600	0	10000	3	1	0	3	0
694	601	0	10000	3	1	0	3	0
680	602	0	10000	3	1	0	3	0
716	603	0	10000	3	1	0	3	0
744	604	0	10000	3	1	0	3	0
739	605	0	10000	3	1	0	3	0
787	606	0	10000	3	1	0	3	0
855	607	0	10000	3	1	0	3	0
892	608	0	10000	3	1	0	3	0
932	609	0	10000	3	1	0	3	0
959	610	0	10000	3	1	0	3	0
984	611	0	10000	3	1	0	3	0
1160	612	0	10000	3	1	0	3	0
1184	613	0	10000	3	1	0	3	0
1211	614	0	10000	3	1	0	3	0
1197	615	0	10000	3	1	0	3	0
1249	616	0	10000	3	1	0	3	0
1243	617	0	10000	3	1	0	3	0
1285	618	0	10000	3	1	0	3	0
1329	619	0	10000	3	1	0	3	0
1297	620	0	10000	3	1	0	3	0
1285	621	0	10000	3	1	0	3	0
1295	622	0	10000	3	1	0	3	0
1298	623	0	10000	3	1	0	3	0
1249	624	0	10000	3	1	0	3	0
1204	625	0	10000	3	1	0	3	0
1174	626	0	10000	3	1	0	3	0
1148	627	0	10000	3	1	0	3	0
1133	628	0	10000	3	1	0	3	0
1127	629	0	10000	3	1	0	3	0
1124	630	0	10000	3	1	0	3	0
1117	631	0	10000	3	1	0	3	0
1108	632	0	10000	3	1	0	3	0
1096	633	0	10000	3	1	0	3	0
1080	634	0	10000	3	1	0	3	0
1062	635	0	10000	3	1	0	3	0
1037	636	0	10000	3	1	0	3	0
1012	637	0	10000	3	1	0	3	0
984	638	0	10000	3	1	0	3	0
955	639	0	10000	3	1	0	3	0
923	640	0	10000	3	1	0	3	0
893	641	0	10000	3	1	0	3	0
859	642	0	10000	3	1	0	3	0
824	643	0	10000	3	1	0	3	0
787	644	0	10000	3	1	0	3	0
751	645	0	10000	3	1	0	3	0
720	646	0	10000	3	1	0	3	0
696	647	0	10000	3	1	0	3	0
678	648	0	10000	3	1	0	3	0
665	649	0	10000	3	1	0	3	0
657	650	0	10000	3	1	0	3	0
651	651	0	10000	3	1	0	3	0
650	652	0	10000	3	1	0	3	0
651	653	0	10000	3	1	0	3	0
654	654	0	10000	3	1	0	3	0
657	655	0	10000	3	1	0	3	0
662	656	0	10000	3	1	0	3	0
666	657	0	10000	3	1	0	3	0
670	658	0	10000	3	1	0	3	0
674	659	0	10000	3	1	0	3	0
679	660	0	10000	3	1	0	3	0
681	661	0	10000	3	1	0	3	0
677	662	0	10000	3	1	0	3	0
670	663	0	10000	3	1	0	3	0
660	664	0	10000	3	1	0	3	0
652	665	0	10000	3	1	0	3	0
645	666	0	10000	3	1	0	3	0
635	667	0	10000	3	1	0	3	0
631	668	0	10000	3	1	0	3	0
630	669	0	10000	3	1	0	3	0
629	670	0	10000	3	1	0	3	0
624	671	0	10000	3	1	0	3	0
617	672	0	10000	3	1	0	3	0
609	673	0	10000	3	1	0	3	0
597	674	0	10000	3	1	0	3	0
585	675	0	10000	3	1	0	3	0
575	676	0	10000	3	1	0	3	0
563	677	0	10000	3	1	0	3	0
550	678	0	10000	3	1	0	3	0
535	679	0	10000	3	1	0	3	0
519	680	0	10000	3	1	0	3	0
507	681	0	10000	3	1	0	3	0
490	682	0	10000	3	1	0	3	0
468	683	0	10000	3	1	0	3	0
447	684	0	10000	3	1	0	3	0
428	685	0	10000	3	1	0	3	0
411	686	0	10000	3	1	0	3	0
395	687	0	10000	3	1	0	3	0
377	688	0	10000	3	1	0	3	0
363	689	0	10000	3	1	0	3	0
350	690	0	10000	3	1	0	3	0
334	691	0	10000	3	1	0	3	0
320	692	0	10000	3	1	0	3	0
306	693	0	10000	3	1	0	3	0
292	694	0	10000	3	1	0	3	0
280	695	0	10000	3	1	0	3	0
269	696	0	10000	3	1	0	3	0
257	697	0	10000	3	1	0	3	0
245	698	0	10000	3	1	0	3	0
236	699	0	10000	3	1	0	3	0
227	700	0	10000	3	1	0	3	0
224	701	0	10000	3	1	0	3	0
223	702	0	10000	3	1	0	3	0
224	703	0	10000	3	1	0	3	0
221	704	0	10000	3	1	0	3	0
217	705	0	10000	3	1	0	3	0
218	706	0	10000	3	1	0	3	0
223	707	0	10000	3	1	0	3	0
230	708	0	10000	3	1	0	3	0
236	709	0	10000	3	1	0	3	0
239	710	0	10000	3	1	0	3	0
238	711	0	10000	3	1	0	3	0
239	712	0	10000	3	1	0	3	0
241	713	0	10000	3	1	0	3	0
238	714	0	10000	3	1	0	3	0
230	715	0	10000	3	1	0	3	0
221	716	0	10000	3	1	0	3	0
220	717	0	10000	3	1	0	3	0
222	718	0	10000	3	1	0	3	0
224	719	0	10000	3	1	0	3	0
227	720	0	10000	3	1	0	3	0
231	721	0	10000	3	1	0	3	0
235	722	0	10000	3	1	0	3	0
234	723	0	10000	3	1	0	3	0
233	724	0	10000	3	1	0	3	0
229	725	0	10000	3	1	0	3	0
223	726	0	10000	3	1	0	3	0
219	727	0	10000	3	1	0	3	0
218	728	0	10000	3	1	0	3	0
215	729	0	10000	3	1	0	3	0
213	730	0	10000	3	1	0	3	0
204	731	0	10000	3	1	0	3	0
197	732	0	10000	3	1	0	3	0
192	733	0	10000	3	1	0	3	0
184	734	0	10000	3	1	0	3	0
177	735	0	10000	3	1	0	3	0
172	736	0	10000	3	1	0	3	0
170	737	0	10000	3	1	0	3	0
171	738	0	10000	3	1	0	3	0
172	739	0	10000	3	1	0	3	0
169	740	0	10000	3	1	0	3	0
168	741	0	10000	3	1	0	3	0
164	742	0	10000	3	1	0	3	0
159	743	0	10000	3	1	0	3	0
161	744	0	10000	3	1	0	3	0
168	745	0	10000	3	1	0	3	0
177	746	0	10000	3	1	0	3	0
185	747	0	10000	3	1	0	3	0
186	748	0	10000	3	1	0	3	0
185	749	0	10000	3	1	0	3	0
185	750	0	10000	3	1	0	3	0
180	751	0	10000	3	1	0	3	0
171	752	0	10000	3	1	0	3	0
164	753	0	10000	3	1	0	3	0
157	754	0	10000	3	1	0	3	0
151	755	0	10000	3	1	0	3	0
144	756	0	10000	3	1	0	3	0
139	757	0	10000	3	1	0	3	0
133	758	0	10000	3	1	0	3	0
129	759	0	10000	3	1	0	3	0
130	760	0	10000	3	1	0	3	0
130	761	0	10000	3	1	0	3	0
127	762	0	10000	3	1	0	3	0
122	763	0	10000	3	1	0	3	0
121	764	0	10000	3	1	0	3	0
122	765	0	10000	3	1	0	3	0
123	766	0	10000	3	1	0	3	0
122	767	0	10000	3	1	0	3	0
120	768	0	10000	3	1	0	3	0
114	769	0	10000	3	1	0	3	0
113	770	0	10000	3	1	0	3	0
110	771	0	10000	3	1	0	3	0
106	772	0	10000	3	1	0	3	0
109	773	0	10000	3	1	0	3	0
111	774	0	10000	3	1	0	3	0
107	775	0	10000	3	1	0	3	0
104	776	0	10000	3	1	0	3	0
101	777	0	10000	3	1	0	3	0
100	778	0	10000	3	1	0	3	0
101	779	0	10000	3	1	0	3	0
104	780	0	10000	3	1	0	3	0
107	781	0	10000	3	1	0	3	0
107	782	0	10000	3	1	0	3	0
106	783	0	10000	3	1	0	3	0
102	784	0	10000	3	1	0	3	0
97	785	0	10000	3	1	0	3	0
93	786	0	10000	3	1	0	3	0
92	787	0	10000	3	1	0	3	0
91	788	0	10000	3	1	0	3	0
95	789	0	10000	3	1	0	3	0
105	790	0	10000	3	1	0	3	0
105	791	0	10000	3	1	0	3	0
102	792	0	10000	3	1	0	3	0
103	793	0	10000	3	1	0	3	0
103	794	0	10000	3	1	0	3	0
99	795	0	10000	3	1	0	3	0
100	796	0	10000	3	1	0	3	0
103	797	0	10000	3	1	0	3	0
100	798	0	10000	3	1	0	3	0
103	799	0	10000	3	1	0	3	0
108	800	0	10000	3	1	0	3	0
108	801	0	10000	3	1	0	3	0
111	802	0	10000	3	1	0	3	0
116	803	0	10000	3	1	0	3	0
116	804	0	10000	3	1	0	3	0
113	805	0	10000	3	1	0	3	0
112	806	0	10000	3	1	0	3	0
110	807	0	10000	3	1	0	3	0
112	808	0	10000	3	1	0	3	0
111	809	0	10000	3	1	0	3	0
108	810	0	10000	3	1	0	3	0
105	811	0	10000	3	1	0	3	0
102	812	0	10000	3	1	0	3	0
98	813	0	10000	3	1	0	3	0
97	814	0	10000	3	1	0	3	0
98	815	0	10000	3	1	0	3	0
99	816	0	10000	3	1	0	3	0
95	817	0	10000	3	1	0	3	0
92	818	0	10000	3	1	0	3	0
90	819	0	10000	3	1	0	3	0
88	820	0	10000	3	1	0	3	0
92	821	0	10000	3	1	0	3	0
93	822	0	10000	3	1	0	3	0
90	823	0	10000	3	1	0	3	0
87	824	0	10000	3	1	0	3	0
85	825	0	10000	3	1	0	3	0
83	826	0	10000	3	1	0	3	0
80	827	0	10000	3	1	0	3	0
79	828	0	10000	3	1	0	3	0
78	829	0	10000	3	1	0	3	0
76	830	0	10000	3	1	0	3	0
74	831	0	10000	3	1	0	3	0
75	832	0	10000	3	1	0	3	0
77	833	0	10000	3	1	0	3	0
83	834	0	10000	3	1	0	3	0
92	835	0	10000	3	1	0	3	0
92	836	0	10000	3	1	0	3	0
92	837	0	10000	3	1	0	3	0
89	838	0	10000	3	1	0	3	0
89	839	0	10000	3	1	0	3	0
92	840	0	10000	3	1	0	3	0
93	841	0	10000	3	1	0	3	0
90	842	0	10000	3	1	0	3	0
87	843	0	10000	3	1	0	3	0
85	844	0	10000	3	1	0	3	0
82	845	0	10000	3	1	0	3	0
80	846	0	10000	3	1	0	3	0
78	847	0	10000	3	1	0	3	0
77	848	0	10000	3	1	0	3	0
83	849	0	10000	3	1	0	3	0
89	850	0	10000	3	1	0	3	0
89	851	0	10000	3	1	0	3	0
87	852	0	10000	3	1	0	3	0
85	853	0	10000	3	1	0	3	0
83	854	0	10000	3	1	0	3	0
81	855	0	10000	3	1	0	3	0
80	856	0	10000	3	1	0	3	0
85	857	0	10000	3	1	0	3	0
87	858	0	10000	3	1	0	3	0
85	859	0	10000	3	1	0	3	0
83	860	0	10000	3	1	0	3	0
83	861	0	10000	3	1	0	3	0
85	862	0	10000	3	1	0	3	0
84	863	0	10000	3	1	0	3	0
85	864	0	10000	3	1	0	3	0
84	865	0	10000	3	1	0	3	0
84	866	0	10000	3	1	0	3	0
86	867	0	10000	3	1	0	3	0
84	868	0	10000	3	1	0	3	0
84	869	0	10000	3	1	0	3	0
86	870	0	10000	3	1	0	3	0
84	871	0	10000	3	1	0	3	0
86	872	0	10000	3	1	0	3	0
95	873	0	10000	3	1	0	3	0
101	874	0	10000	3	1	0	3	0
103	875	0	10000	3	1	0	3	0
105	876	0	10000	3	1	0	3	0
113	877	0	10000	3	1	0	3	0
125	878	0	10000	3	1	0	3	0
133	879	0	10000	3	1	0	3	0
130	880	0	10000	3	1	0	3	0
131	881	0	10000	3	1	0	3	0
134	882	0	10000	3	1	0	3	0
137	883	0	10000	3	1	0	3	0
145	884	0	10000	3	1	0	3	0
152	885	0	10000	3	1	0	3	0
151	886	0	10000	3	1	0	3	0
144	887	0	10000	3	1	0	3	0
138	888	0	10000	3	1	0	3	0
132	889	0	10000	3	1	0	3	0
127	890	0	10000	3	1	0	3	0
120	891	0	10000	3	1	0	3	0
116	892	0	10000	3	1	0	3	0
116	893	0	10000	3	1	0	3	0
113	894	0	10000	3	1	0	3	0
111	895	0	10000	3	1	0	3	0
115	896	0	10000	3	1	0	3	0
123	897	0	10000	3	1	0	3	0
123	898	0	10000	3	1	0	3	0
123	899	0	10000	3	1	0	3	0
123	900	0	10000	3	1	0	3	0
126	901	0	10000	3	1	0	3	0
124	902	0	10000	3	1	0	3	0
118	903	0	10000	3	1	0	3	0
114	904	0	10000	3	1	0	3	0
109	905	0	10000	3	1	0	3	0
107	906	0	10000	3	1	0	3	0
104	907	0	10000	3	1	0	3	0
104	908	0	10000	3	1	0	3	0
105	909	0	10000	3	1	0	3	0
108	910	0	10000	3	1	0	3	0
103	911	0	10000	3	1	0	3	0
101	912	0	10000	3	1	0	3	0
97	913	0	10000	3	1	0	3	0
96	914	0	10000	3	1	0	3	0
97	915	0	10000	3	1	0	3	0
104	916	0	10000	3	1	0	3	0
115	917	0	10000	3	1	0	3	0
117	918	0	10000	3	1	0	3	0
113	919	0	10000	3	1	0	3	0
115	920	0	10000	3	1	0	3	0
116	921	0	10000	3	1	0	3	0
112	922	0	10000	3	1	0	3	0
108	923	0	10000	3	1	0	3	0
108	924	0	10000	3	1	0	3	0
113	925	0	10000	3	1	0	3	0
116	926	0	10000	3	1	0	3	0
115	927	0	10000	3	1	0	3	0
111	928	0	10000	3	1	0	3	0
109	929	0	10000	3	1	0	3	0
109	930	0	10000	3	1	0	3	0
110	931	0	10000	3	1	0	3	0
111	932	0	10000	3	1	0	3	0
111	933	0	10000	3	1	0	3	0
110	934	0	10000	3	1	0	3	0
105	935	0	10000	3	1	0	3	0
102	936	0	10000	3	1	0	3	0
99	937	0	10000	3	1	0	3	0
96	938	0	10000	3	1	0	3	0
97	939	0	10000	3	1	0	3	0
96	940	0	10000	3	1	0	3	0
98	941	0	10000	3	1	0	3	0
99	942	0	10000	3	1	0	3	0
96	943	0	10000	3	1	0	3	0
100	944	0	10000	3	1	0	3	0
103	945	0	10000	3	1	0	3	0
104	946	0	10000	3	1	0	3	0
117	947	0	10000	3	1	0	3	0
130	948	0	10000	3	1	0	3	0
129	949	0	10000	3	1	0	3	0
134	950	0	10000	3	1	0	3	0
128	951	0	10000	3	1	0	3	0
129	952	0	10000	3	1	0	3	0
133	953	0	10000	3	1	0	3	0
141	954	0	10000	3	1	0	3	0
146	955	0	10000	3	1	0	3	0
146	956	0	10000	3	1	0	3	0
140	957	0	10000	3	1	0	3	0
135	958	0	10000	3	1	0	3	0
139	959	0	10000	3	1	0	3	0
140	960	0	10000	3	1	0	3	0
139	961	0	10000	3	1	0	3	0
139	962	0	10000	3	1	0	3	0
141	963	0	10000	3	1	0	3	0
147	964	0	10000	3	1	0	3	0
152	965	0	10000	3	1	0	3	0
155	966	0	10000	3	1	0	3	0
153	967	0	10000	3	1	0	3	0
148	968	0	10000	3	1	0	3	0
148	969	0	10000	3	1	0	3	0
149	970	0	10000	3	1	0	3	0
142	971	0	10000	3	1	0	3	0
135	972	0	10000	3	1	0	3	0
130	973	0	10000	3	1	0	3	0
130	974	0	10000	3	1	0	3	0
138	975	0	10000	3	1	0	3	0
151	976	0	10000	3	1	0	3	0
160	977	0	10000	3	1	0	3	0
155	978	0	10000	3	1	0	3	0
158	979	0	10000	3	1	0	3	0
156	980	0	10000	3	1	0	3	0
162	981	0	10000	3	1	0	3	0
159	982	0	10000	3	1	0	3	0
159	983	0	10000	3	1	0	3	0
159	984	0	10000	3	1	0	3	0
156	985	0	10000	3	1	0	3	0
149	986	0	10000	3	1	0	3	0
147	987	0	10000	3	1	0	3	0
142	988	0	10000	3	1	0	3	0
139	989	0	10000	3	1	0	3	0
136	990	0	10000	3	1	0	3	0
133	991	0	10000	3	1	0	3	0
129	992	0	10000	3	1	0	3	0
128	993	0	10000	3	1	0	3	0
128	994	0	10000	3	1	0	3	0
134	995	0	10000	3	1	0	3	0
131	996	0	10000	3	1	0	3	0
131	997	0	10000	3	1	0	3	0
131	998	0	10000	3	1	0	3	0
133	999	0	10000	3	1	0	3	0
135	1000	0	10000	3	1	0	3	0
134	1001	0	10000	3	1	0	3	0
29	2	0	10000	4	1	0	4	0
29	3	0	10000	4	1	0	4	0
28	4	0	10000	4	1	0	4	0
27	5	0	10000	4	1	0	4	0
28	6	0	10000	4	1	0	4	0
24	7	0	10000	4	1	0	4	0
24	8	0	10000	4	1	0	4	0
26	9	0	10000	4	1	0	4	0
26	10	0	10000	4	1	0	4	0
26	11	0	10000	4	1	0	4	0
28	12	0	10000	4	1	0	4	0
29	13	0	10000	4	1	0	4	0
29	14	0	10000	4	1	0	4	0
29	15	0	10000	4	1	0	4	0
29	16	0	10000	4	1	0	4	0
31	17	0	10000	4	1	0	4	0
30	18	0	10000	4	1	0	4	0
31	19	0	10000	4	1	0	4	0
29	20	0	10000	4	1	0	4	0
29	21	0	10000	4	1	0	4	0
28	22	0	10000	4	1	0	4	0
26	23	0	10000	4	1	0	4	0
27	24	0	10000	4	1	0	4	0
26	25	0	10000	4	1	0	4	0
25	26	0	10000	4	1	0	4	0
25	27	0	10000	4	1	0	4	0
27	28	0	10000	4	1	0	4	0
27	29	0	10000	4	1	0	4	0
28	30	0	10000	4	1	0	4	0
29	31	0	10000	4	1	0	4	0
28	32	0	10000	4	1	0	4	0
28	33	0	10000	4	1	0	4	0
28	34	0	10000	4	1	0	4	0
27	35	0	10000	4	1	0	4	0
27	36	0	10000	4	1	0	4	0
29	37	0	10000	4	1	0	4	0
28	38	0	10000	4	1	0	4	0
27	39	0	10000	4	1	0	4	0
26	40	0	10000	4	1	0	4	0
26	41	0	10000	4	1	0	4	0
26	42	0	10000	4	1	0	4	0
25	43	0	10000	4	1	0	4	0
25	44	0	10000	4	1	0	4	0
24	45	0	10000	4	1	0	4	0
24	46	0	10000	4	1	0	4	0
21	47	0	10000	4	1	0	4	0
20	48	0	10000	4	1	0	4	0
20	49	0	10000	4	1	0	4	0
20	50	0	10000	4	1	0	4	0
20	51	0	10000	4	1	0	4	0
22	52	0	10000	4	1	0	4	0
25	53	0	10000	4	1	0	4	0
27	54	0	10000	4	1	0	4	0
28	55	0	10000	4	1	0	4	0
28	56	0	10000	4	1	0	4	0
29	57	0	10000	4	1	0	4	0
29	58	0	10000	4	1	0	4	0
30	59	0	10000	4	1	0	4	0
29	60	0	10000	4	1	0	4	0
28	61	0	10000	4	1	0	4	0
27	62	0	10000	4	1	0	4	0
27	63	0	10000	4	1	0	4	0
28	64	0	10000	4	1	0	4	0
29	65	0	10000	4	1	0	4	0
31	66	0	10000	4	1	0	4	0
30	67	0	10000	4	1	0	4	0
31	68	0	10000	4	1	0	4	0
30	69	0	10000	4	1	0	4	0
30	70	0	10000	4	1	0	4	0
29	71	0	10000	4	1	0	4	0
27	72	0	10000	4	1	0	4	0
28	73	0	10000	4	1	0	4	0
27	74	0	10000	4	1	0	4	0
27	75	0	10000	4	1	0	4	0
27	76	0	10000	4	1	0	4	0
28	77	0	10000	4	1	0	4	0
27	78	0	10000	4	1	0	4	0
26	79	0	10000	4	1	0	4	0
24	80	0	10000	4	1	0	4	0
24	81	0	10000	4	1	0	4	0
24	82	0	10000	4	1	0	4	0
24	83	0	10000	4	1	0	4	0
27	84	0	10000	4	1	0	4	0
28	85	0	10000	4	1	0	4	0
28	86	0	10000	4	1	0	4	0
27	87	0	10000	4	1	0	4	0
30	88	0	10000	4	1	0	4	0
30	89	0	10000	4	1	0	4	0
29	90	0	10000	4	1	0	4	0
28	91	0	10000	4	1	0	4	0
28	92	0	10000	4	1	0	4	0
29	93	0	10000	4	1	0	4	0
30	94	0	10000	4	1	0	4	0
30	95	0	10000	4	1	0	4	0
30	96	0	10000	4	1	0	4	0
32	97	0	10000	4	1	0	4	0
31	98	0	10000	4	1	0	4	0
30	99	0	10000	4	1	0	4	0
30	100	0	10000	4	1	0	4	0
31	101	0	10000	4	1	0	4	0
32	102	0	10000	4	1	0	4	0
34	103	0	10000	4	1	0	4	0
35	104	0	10000	4	1	0	4	0
33	105	0	10000	4	1	0	4	0
34	106	0	10000	4	1	0	4	0
33	107	0	10000	4	1	0	4	0
34	108	0	10000	4	1	0	4	0
37	109	0	10000	4	1	0	4	0
38	110	0	10000	4	1	0	4	0
38	111	0	10000	4	1	0	4	0
37	112	0	10000	4	1	0	4	0
36	113	0	10000	4	1	0	4	0
35	114	0	10000	4	1	0	4	0
34	115	0	10000	4	1	0	4	0
35	116	0	10000	4	1	0	4	0
38	117	0	10000	4	1	0	4	0
41	118	0	10000	4	1	0	4	0
42	119	0	10000	4	1	0	4	0
42	120	0	10000	4	1	0	4	0
41	121	0	10000	4	1	0	4	0
41	122	0	10000	4	1	0	4	0
38	123	0	10000	4	1	0	4	0
38	124	0	10000	4	1	0	4	0
38	125	0	10000	4	1	0	4	0
37	126	0	10000	4	1	0	4	0
33	127	0	10000	4	1	0	4	0
34	128	0	10000	4	1	0	4	0
32	129	0	10000	4	1	0	4	0
33	130	0	10000	4	1	0	4	0
32	131	0	10000	4	1	0	4	0
31	132	0	10000	4	1	0	4	0
30	133	0	10000	4	1	0	4	0
29	134	0	10000	4	1	0	4	0
27	135	0	10000	4	1	0	4	0
26	136	0	10000	4	1	0	4	0
30	137	0	10000	4	1	0	4	0
28	138	0	10000	4	1	0	4	0
27	139	0	10000	4	1	0	4	0
27	140	0	10000	4	1	0	4	0
26	141	0	10000	4	1	0	4	0
25	142	0	10000	4	1	0	4	0
25	143	0	10000	4	1	0	4	0
26	144	0	10000	4	1	0	4	0
27	145	0	10000	4	1	0	4	0
28	146	0	10000	4	1	0	4	0
28	147	0	10000	4	1	0	4	0
28	148	0	10000	4	1	0	4	0
28	149	0	10000	4	1	0	4	0
30	150	0	10000	4	1	0	4	0
31	151	0	10000	4	1	0	4	0
30	152	0	10000	4	1	0	4	0
32	153	0	10000	4	1	0	4	0
31	154	0	10000	4	1	0	4	0
29	155	0	10000	4	1	0	4	0
30	156	0	10000	4	1	0	4	0
30	157	0	10000	4	1	0	4	0
29	158	0	10000	4	1	0	4	0
30	159	0	10000	4	1	0	4	0
30	160	0	10000	4	1	0	4	0
29	161	0	10000	4	1	0	4	0
28	162	0	10000	4	1	0	4	0
30	163	0	10000	4	1	0	4	0
30	164	0	10000	4	1	0	4	0
30	165	0	10000	4	1	0	4	0
29	166	0	10000	4	1	0	4	0
28	167	0	10000	4	1	0	4	0
30	168	0	10000	4	1	0	4	0
29	169	0	10000	4	1	0	4	0
29	170	0	10000	4	1	0	4	0
29	171	0	10000	4	1	0	4	0
30	172	0	10000	4	1	0	4	0
32	173	0	10000	4	1	0	4	0
33	174	0	10000	4	1	0	4	0
32	175	0	10000	4	1	0	4	0
32	176	0	10000	4	1	0	4	0
34	177	0	10000	4	1	0	4	0
35	178	0	10000	4	1	0	4	0
34	179	0	10000	4	1	0	4	0
33	180	0	10000	4	1	0	4	0
32	181	0	10000	4	1	0	4	0
32	182	0	10000	4	1	0	4	0
30	183	0	10000	4	1	0	4	0
30	184	0	10000	4	1	0	4	0
30	185	0	10000	4	1	0	4	0
30	186	0	10000	4	1	0	4	0
28	187	0	10000	4	1	0	4	0
29	188	0	10000	4	1	0	4	0
30	189	0	10000	4	1	0	4	0
33	190	0	10000	4	1	0	4	0
34	191	0	10000	4	1	0	4	0
34	192	0	10000	4	1	0	4	0
33	193	0	10000	4	1	0	4	0
32	194	0	10000	4	1	0	4	0
35	195	0	10000	4	1	0	4	0
35	196	0	10000	4	1	0	4	0
38	197	0	10000	4	1	0	4	0
38	198	0	10000	4	1	0	4	0
37	199	0	10000	4	1	0	4	0
35	200	0	10000	4	1	0	4	0
35	201	0	10000	4	1	0	4	0
33	202	0	10000	4	1	0	4	0
33	203	0	10000	4	1	0	4	0
34	204	0	10000	4	1	0	4	0
34	205	0	10000	4	1	0	4	0
33	206	0	10000	4	1	0	4	0
32	207	0	10000	4	1	0	4	0
32	208	0	10000	4	1	0	4	0
32	209	0	10000	4	1	0	4	0
32	210	0	10000	4	1	0	4	0
31	211	0	10000	4	1	0	4	0
31	212	0	10000	4	1	0	4	0
31	213	0	10000	4	1	0	4	0
31	214	0	10000	4	1	0	4	0
30	215	0	10000	4	1	0	4	0
29	216	0	10000	4	1	0	4	0
30	217	0	10000	4	1	0	4	0
30	218	0	10000	4	1	0	4	0
29	219	0	10000	4	1	0	4	0
29	220	0	10000	4	1	0	4	0
31	221	0	10000	4	1	0	4	0
30	222	0	10000	4	1	0	4	0
31	223	0	10000	4	1	0	4	0
34	224	0	10000	4	1	0	4	0
37	225	0	10000	4	1	0	4	0
41	226	0	10000	4	1	0	4	0
42	227	0	10000	4	1	0	4	0
42	228	0	10000	4	1	0	4	0
41	229	0	10000	4	1	0	4	0
40	230	0	10000	4	1	0	4	0
40	231	0	10000	4	1	0	4	0
43	232	0	10000	4	1	0	4	0
44	233	0	10000	4	1	0	4	0
42	234	0	10000	4	1	0	4	0
40	235	0	10000	4	1	0	4	0
37	236	0	10000	4	1	0	4	0
38	237	0	10000	4	1	0	4	0
37	238	0	10000	4	1	0	4	0
36	239	0	10000	4	1	0	4	0
34	240	0	10000	4	1	0	4	0
35	241	0	10000	4	1	0	4	0
36	242	0	10000	4	1	0	4	0
36	243	0	10000	4	1	0	4	0
35	244	0	10000	4	1	0	4	0
34	245	0	10000	4	1	0	4	0
33	246	0	10000	4	1	0	4	0
30	247	0	10000	4	1	0	4	0
30	248	0	10000	4	1	0	4	0
29	249	0	10000	4	1	0	4	0
29	250	0	10000	4	1	0	4	0
28	251	0	10000	4	1	0	4	0
27	252	0	10000	4	1	0	4	0
28	253	0	10000	4	1	0	4	0
29	254	0	10000	4	1	0	4	0
31	255	0	10000	4	1	0	4	0
33	256	0	10000	4	1	0	4	0
33	257	0	10000	4	1	0	4	0
32	258	0	10000	4	1	0	4	0
33	259	0	10000	4	1	0	4	0
34	260	0	10000	4	1	0	4	0
36	261	0	10000	4	1	0	4	0
36	262	0	10000	4	1	0	4	0
36	263	0	10000	4	1	0	4	0
40	264	0	10000	4	1	0	4	0
42	265	0	10000	4	1	0	4	0
42	266	0	10000	4	1	0	4	0
40	267	0	10000	4	1	0	4	0
39	268	0	10000	4	1	0	4	0
38	269	0	10000	4	1	0	4	0
36	270	0	10000	4	1	0	4	0
36	271	0	10000	4	1	0	4	0
35	272	0	10000	4	1	0	4	0
34	273	0	10000	4	1	0	4	0
32	274	0	10000	4	1	0	4	0
32	275	0	10000	4	1	0	4	0
30	276	0	10000	4	1	0	4	0
31	277	0	10000	4	1	0	4	0
31	278	0	10000	4	1	0	4	0
32	279	0	10000	4	1	0	4	0
34	280	0	10000	4	1	0	4	0
35	281	0	10000	4	1	0	4	0
35	282	0	10000	4	1	0	4	0
33	283	0	10000	4	1	0	4	0
33	284	0	10000	4	1	0	4	0
35	285	0	10000	4	1	0	4	0
37	286	0	10000	4	1	0	4	0
34	287	0	10000	4	1	0	4	0
34	288	0	10000	4	1	0	4	0
36	289	0	10000	4	1	0	4	0
38	290	0	10000	4	1	0	4	0
39	291	0	10000	4	1	0	4	0
39	292	0	10000	4	1	0	4	0
38	293	0	10000	4	1	0	4	0
37	294	0	10000	4	1	0	4	0
37	295	0	10000	4	1	0	4	0
36	296	0	10000	4	1	0	4	0
38	297	0	10000	4	1	0	4	0
38	298	0	10000	4	1	0	4	0
38	299	0	10000	4	1	0	4	0
38	300	0	10000	4	1	0	4	0
38	301	0	10000	4	1	0	4	0
39	302	0	10000	4	1	0	4	0
39	303	0	10000	4	1	0	4	0
38	304	0	10000	4	1	0	4	0
39	305	0	10000	4	1	0	4	0
38	306	0	10000	4	1	0	4	0
37	307	0	10000	4	1	0	4	0
37	308	0	10000	4	1	0	4	0
37	309	0	10000	4	1	0	4	0
38	310	0	10000	4	1	0	4	0
40	311	0	10000	4	1	0	4	0
41	312	0	10000	4	1	0	4	0
40	313	0	10000	4	1	0	4	0
38	314	0	10000	4	1	0	4	0
38	315	0	10000	4	1	0	4	0
38	316	0	10000	4	1	0	4	0
40	317	0	10000	4	1	0	4	0
39	318	0	10000	4	1	0	4	0
37	319	0	10000	4	1	0	4	0
38	320	0	10000	4	1	0	4	0
37	321	0	10000	4	1	0	4	0
37	322	0	10000	4	1	0	4	0
39	323	0	10000	4	1	0	4	0
43	324	0	10000	4	1	0	4	0
46	325	0	10000	4	1	0	4	0
47	326	0	10000	4	1	0	4	0
43	327	0	10000	4	1	0	4	0
44	328	0	10000	4	1	0	4	0
43	329	0	10000	4	1	0	4	0
42	330	0	10000	4	1	0	4	0
40	331	0	10000	4	1	0	4	0
39	332	0	10000	4	1	0	4	0
38	333	0	10000	4	1	0	4	0
35	334	0	10000	4	1	0	4	0
34	335	0	10000	4	1	0	4	0
34	336	0	10000	4	1	0	4	0
39	337	0	10000	4	1	0	4	0
42	338	0	10000	4	1	0	4	0
44	339	0	10000	4	1	0	4	0
45	340	0	10000	4	1	0	4	0
44	341	0	10000	4	1	0	4	0
43	342	0	10000	4	1	0	4	0
44	343	0	10000	4	1	0	4	0
47	344	0	10000	4	1	0	4	0
50	345	0	10000	4	1	0	4	0
50	346	0	10000	4	1	0	4	0
45	347	0	10000	4	1	0	4	0
46	348	0	10000	4	1	0	4	0
48	349	0	10000	4	1	0	4	0
49	350	0	10000	4	1	0	4	0
49	351	0	10000	4	1	0	4	0
47	352	0	10000	4	1	0	4	0
48	353	0	10000	4	1	0	4	0
50	354	0	10000	4	1	0	4	0
51	355	0	10000	4	1	0	4	0
50	356	0	10000	4	1	0	4	0
51	357	0	10000	4	1	0	4	0
50	358	0	10000	4	1	0	4	0
51	359	0	10000	4	1	0	4	0
52	360	0	10000	4	1	0	4	0
51	361	0	10000	4	1	0	4	0
50	362	0	10000	4	1	0	4	0
47	363	0	10000	4	1	0	4	0
46	364	0	10000	4	1	0	4	0
45	365	0	10000	4	1	0	4	0
46	366	0	10000	4	1	0	4	0
43	367	0	10000	4	1	0	4	0
41	368	0	10000	4	1	0	4	0
41	369	0	10000	4	1	0	4	0
41	370	0	10000	4	1	0	4	0
45	371	0	10000	4	1	0	4	0
48	372	0	10000	4	1	0	4	0
49	373	0	10000	4	1	0	4	0
47	374	0	10000	4	1	0	4	0
46	375	0	10000	4	1	0	4	0
44	376	0	10000	4	1	0	4	0
44	377	0	10000	4	1	0	4	0
44	378	0	10000	4	1	0	4	0
43	379	0	10000	4	1	0	4	0
42	380	0	10000	4	1	0	4	0
42	381	0	10000	4	1	0	4	0
42	382	0	10000	4	1	0	4	0
43	383	0	10000	4	1	0	4	0
44	384	0	10000	4	1	0	4	0
43	385	0	10000	4	1	0	4	0
42	386	0	10000	4	1	0	4	0
41	387	0	10000	4	1	0	4	0
39	388	0	10000	4	1	0	4	0
37	389	0	10000	4	1	0	4	0
39	390	0	10000	4	1	0	4	0
41	391	0	10000	4	1	0	4	0
39	392	0	10000	4	1	0	4	0
38	393	0	10000	4	1	0	4	0
38	394	0	10000	4	1	0	4	0
38	395	0	10000	4	1	0	4	0
37	396	0	10000	4	1	0	4	0
42	397	0	10000	4	1	0	4	0
43	398	0	10000	4	1	0	4	0
41	399	0	10000	4	1	0	4	0
39	400	0	10000	4	1	0	4	0
38	401	0	10000	4	1	0	4	0
38	402	0	10000	4	1	0	4	0
38	403	0	10000	4	1	0	4	0
37	404	0	10000	4	1	0	4	0
38	405	0	10000	4	1	0	4	0
41	406	0	10000	4	1	0	4	0
40	407	0	10000	4	1	0	4	0
43	408	0	10000	4	1	0	4	0
44	409	0	10000	4	1	0	4	0
44	410	0	10000	4	1	0	4	0
43	411	0	10000	4	1	0	4	0
43	412	0	10000	4	1	0	4	0
43	413	0	10000	4	1	0	4	0
44	414	0	10000	4	1	0	4	0
45	415	0	10000	4	1	0	4	0
44	416	0	10000	4	1	0	4	0
44	417	0	10000	4	1	0	4	0
45	418	0	10000	4	1	0	4	0
45	419	0	10000	4	1	0	4	0
45	420	0	10000	4	1	0	4	0
47	421	0	10000	4	1	0	4	0
47	422	0	10000	4	1	0	4	0
45	423	0	10000	4	1	0	4	0
45	424	0	10000	4	1	0	4	0
44	425	0	10000	4	1	0	4	0
45	426	0	10000	4	1	0	4	0
44	427	0	10000	4	1	0	4	0
45	428	0	10000	4	1	0	4	0
47	429	0	10000	4	1	0	4	0
47	430	0	10000	4	1	0	4	0
47	431	0	10000	4	1	0	4	0
46	432	0	10000	4	1	0	4	0
45	433	0	10000	4	1	0	4	0
43	434	0	10000	4	1	0	4	0
41	435	0	10000	4	1	0	4	0
40	436	0	10000	4	1	0	4	0
41	437	0	10000	4	1	0	4	0
39	438	0	10000	4	1	0	4	0
39	439	0	10000	4	1	0	4	0
37	440	0	10000	4	1	0	4	0
36	441	0	10000	4	1	0	4	0
35	442	0	10000	4	1	0	4	0
32	443	0	10000	4	1	0	4	0
32	444	0	10000	4	1	0	4	0
32	445	0	10000	4	1	0	4	0
31	446	0	10000	4	1	0	4	0
29	447	0	10000	4	1	0	4	0
30	448	0	10000	4	1	0	4	0
28	449	0	10000	4	1	0	4	0
27	450	0	10000	4	1	0	4	0
27	451	0	10000	4	1	0	4	0
26	452	0	10000	4	1	0	4	0
26	453	0	10000	4	1	0	4	0
25	454	0	10000	4	1	0	4	0
25	455	0	10000	4	1	0	4	0
26	456	0	10000	4	1	0	4	0
28	457	0	10000	4	1	0	4	0
30	458	0	10000	4	1	0	4	0
31	459	0	10000	4	1	0	4	0
31	460	0	10000	4	1	0	4	0
30	461	0	10000	4	1	0	4	0
31	462	0	10000	4	1	0	4	0
31	463	0	10000	4	1	0	4	0
30	464	0	10000	4	1	0	4	0
30	465	0	10000	4	1	0	4	0
31	466	0	10000	4	1	0	4	0
28	467	0	10000	4	1	0	4	0
27	468	0	10000	4	1	0	4	0
27	469	0	10000	4	1	0	4	0
28	470	0	10000	4	1	0	4	0
28	471	0	10000	4	1	0	4	0
27	472	0	10000	4	1	0	4	0
28	473	0	10000	4	1	0	4	0
30	474	0	10000	4	1	0	4	0
31	475	0	10000	4	1	0	4	0
35	476	0	10000	4	1	0	4	0
39	477	0	10000	4	1	0	4	0
39	478	0	10000	4	1	0	4	0
38	479	0	10000	4	1	0	4	0
37	480	0	10000	4	1	0	4	0
36	481	0	10000	4	1	0	4	0
34	482	0	10000	4	1	0	4	0
33	483	0	10000	4	1	0	4	0
35	484	0	10000	4	1	0	4	0
35	485	0	10000	4	1	0	4	0
33	486	0	10000	4	1	0	4	0
31	487	0	10000	4	1	0	4	0
30	488	0	10000	4	1	0	4	0
29	489	0	10000	4	1	0	4	0
29	490	0	10000	4	1	0	4	0
30	491	0	10000	4	1	0	4	0
29	492	0	10000	4	1	0	4	0
30	493	0	10000	4	1	0	4	0
30	494	0	10000	4	1	0	4	0
29	495	0	10000	4	1	0	4	0
27	496	0	10000	4	1	0	4	0
30	497	0	10000	4	1	0	4	0
28	498	0	10000	4	1	0	4	0
28	499	0	10000	4	1	0	4	0
29	500	0	10000	4	1	0	4	0
28	501	0	10000	4	1	0	4	0
27	502	0	10000	4	1	0	4	1
28	503	0	10000	4	1	0	4	1
27	504	0	10000	4	1	0	4	1
27	505	0	10000	4	1	0	4	1
27	506	0	10000	4	1	0	4	1
24	507	0	10000	4	1	0	4	1
26	508	0	10000	4	1	0	4	1
30	509	0	10000	4	1	0	4	1
33	510	0	10000	4	1	0	4	1
32	511	0	10000	4	1	0	4	1
32	512	0	10000	4	1	0	4	1
32	513	0	10000	4	1	0	4	1
31	514	0	10000	4	1	0	4	1
32	515	0	10000	4	1	0	4	1
30	516	0	10000	4	1	0	4	1
31	517	0	10000	4	1	0	4	1
31	518	0	10000	4	1	0	4	1
31	519	0	10000	4	1	0	4	1
30	520	0	10000	4	1	0	4	1
30	521	0	10000	4	1	0	4	1
30	522	0	10000	4	1	0	4	1
31	523	0	10000	4	1	0	4	1
32	524	0	10000	4	1	0	4	1
35	525	0	10000	4	1	0	4	1
37	526	0	10000	4	1	0	4	1
34	527	0	10000	4	1	0	4	1
34	528	0	10000	4	1	0	4	1
34	529	0	10000	4	1	0	4	1
36	530	0	10000	4	1	0	4	1
35	531	0	10000	4	1	0	4	1
35	532	0	10000	4	1	0	4	1
35	533	0	10000	4	1	0	4	1
34	534	0	10000	4	1	0	4	1
33	535	0	10000	4	1	0	4	1
32	536	0	10000	4	1	0	4	1
34	537	0	10000	4	1	0	4	1
34	538	0	10000	4	1	0	4	1
34	539	0	10000	4	1	0	4	1
34	540	0	10000	4	1	0	4	1
33	541	0	10000	4	1	0	4	1
33	542	0	10000	4	1	0	4	1
32	543	0	10000	4	1	0	4	1
34	544	0	10000	4	1	0	4	1
34	545	0	10000	4	1	0	4	1
34	546	0	10000	4	1	0	4	1
32	547	0	10000	4	1	0	4	1
33	548	0	10000	4	1	0	4	1
33	549	0	10000	4	1	0	4	1
33	550	0	10000	4	1	0	4	1
33	551	0	10000	4	1	0	4	1
32	552	0	10000	4	1	0	4	0
33	553	0	10000	4	1	0	4	0
32	554	0	10000	4	1	0	4	0
31	555	0	10000	4	1	0	4	0
30	556	0	10000	4	1	0	4	0
32	557	0	10000	4	1	0	4	0
30	558	0	10000	4	1	0	4	0
30	559	0	10000	4	1	0	4	0
30	560	0	10000	4	1	0	4	0
30	561	0	10000	4	1	0	4	0
29	562	0	10000	4	1	0	4	0
31	563	0	10000	4	1	0	4	0
36	564	0	10000	4	1	0	4	0
38	565	0	10000	4	1	0	4	0
37	566	0	10000	4	1	0	4	0
38	567	0	10000	4	1	0	4	0
40	568	0	10000	4	1	0	4	0
41	569	0	10000	4	1	0	4	0
41	570	0	10000	4	1	0	4	0
40	571	0	10000	4	1	0	4	0
39	572	0	10000	4	1	0	4	0
39	573	0	10000	4	1	0	4	0
37	574	0	10000	4	1	0	4	0
36	575	0	10000	4	1	0	4	0
37	576	0	10000	4	1	0	4	0
40	577	0	10000	4	1	0	4	0
40	578	0	10000	4	1	0	4	0
38	579	0	10000	4	1	0	4	0
36	580	0	10000	4	1	0	4	0
35	581	0	10000	4	1	0	4	0
34	582	0	10000	4	1	0	4	0
33	583	0	10000	4	1	0	4	0
33	584	0	10000	4	1	0	4	0
32	585	0	10000	4	1	0	4	0
32	586	0	10000	4	1	0	4	0
30	587	0	10000	4	1	0	4	0
33	588	0	10000	4	1	0	4	0
37	589	0	10000	4	1	0	4	0
41	590	0	10000	4	1	0	4	0
44	591	0	10000	4	1	0	4	0
51	592	0	10000	4	1	0	4	0
70	593	0	10000	4	1	0	4	0
77	594	0	10000	4	1	0	4	0
74	595	0	10000	4	1	0	4	0
77	596	0	10000	4	1	0	4	0
101	597	0	10000	4	1	0	4	0
135	598	0	10000	4	1	0	4	0
144	599	0	10000	4	1	0	4	0
162	600	0	10000	4	1	0	4	0
207	601	0	10000	4	1	0	4	0
249	602	0	10000	4	1	0	4	0
265	603	0	10000	4	1	0	4	0
331	604	0	10000	4	1	0	4	0
450	605	0	10000	4	1	0	4	0
596	606	0	10000	4	1	0	4	0
603	607	0	10000	4	1	0	4	0
592	608	0	10000	4	1	0	4	0
638	609	0	10000	4	1	0	4	0
685	610	0	10000	4	1	0	4	0
669	611	0	10000	4	1	0	4	0
647	612	0	10000	4	1	0	4	0
674	613	0	10000	4	1	0	4	0
730	614	0	10000	4	1	0	4	0
796	615	0	10000	4	1	0	4	0
882	616	0	10000	4	1	0	4	0
917	617	0	10000	4	1	0	4	0
1077	618	0	10000	4	1	0	4	0
1278	619	0	10000	4	1	0	4	0
1320	620	0	10000	4	1	0	4	0
1269	621	0	10000	4	1	0	4	0
1226	622	0	10000	4	1	0	4	0
1185	623	0	10000	4	1	0	4	0
1194	624	0	10000	4	1	0	4	0
1187	625	0	10000	4	1	0	4	0
1142	626	0	10000	4	1	0	4	0
1122	627	0	10000	4	1	0	4	0
1176	628	0	10000	4	1	0	4	0
1235	629	0	10000	4	1	0	4	0
1257	630	0	10000	4	1	0	4	0
1243	631	0	10000	4	1	0	4	0
1194	632	0	10000	4	1	0	4	0
1159	633	0	10000	4	1	0	4	0
1141	634	0	10000	4	1	0	4	0
1132	635	0	10000	4	1	0	4	0
1127	636	0	10000	4	1	0	4	0
1125	637	0	10000	4	1	0	4	0
1118	638	0	10000	4	1	0	4	0
1108	639	0	10000	4	1	0	4	0
1094	640	0	10000	4	1	0	4	0
1077	641	0	10000	4	1	0	4	0
1056	642	0	10000	4	1	0	4	0
1034	643	0	10000	4	1	0	4	0
1012	644	0	10000	4	1	0	4	0
990	645	0	10000	4	1	0	4	0
966	646	0	10000	4	1	0	4	0
939	647	0	10000	4	1	0	4	0
913	648	0	10000	4	1	0	4	0
884	649	0	10000	4	1	0	4	0
854	650	0	10000	4	1	0	4	0
820	651	0	10000	4	1	0	4	0
782	652	0	10000	4	1	0	4	0
747	653	0	10000	4	1	0	4	0
718	654	0	10000	4	1	0	4	0
696	655	0	10000	4	1	0	4	0
679	656	0	10000	4	1	0	4	0
670	657	0	10000	4	1	0	4	0
666	658	0	10000	4	1	0	4	0
664	659	0	10000	4	1	0	4	0
666	660	0	10000	4	1	0	4	0
669	661	0	10000	4	1	0	4	0
673	662	0	10000	4	1	0	4	0
676	663	0	10000	4	1	0	4	0
680	664	0	10000	4	1	0	4	0
682	665	0	10000	4	1	0	4	0
681	666	0	10000	4	1	0	4	0
675	667	0	10000	4	1	0	4	0
670	668	0	10000	4	1	0	4	0
663	669	0	10000	4	1	0	4	0
654	670	0	10000	4	1	0	4	0
645	671	0	10000	4	1	0	4	0
636	672	0	10000	4	1	0	4	0
625	673	0	10000	4	1	0	4	0
614	674	0	10000	4	1	0	4	0
604	675	0	10000	4	1	0	4	0
597	676	0	10000	4	1	0	4	0
593	677	0	10000	4	1	0	4	0
587	678	0	10000	4	1	0	4	0
583	679	0	10000	4	1	0	4	0
577	680	0	10000	4	1	0	4	0
573	681	0	10000	4	1	0	4	0
564	682	0	10000	4	1	0	4	0
557	683	0	10000	4	1	0	4	0
546	684	0	10000	4	1	0	4	0
533	685	0	10000	4	1	0	4	0
518	686	0	10000	4	1	0	4	0
499	687	0	10000	4	1	0	4	0
478	688	0	10000	4	1	0	4	0
457	689	0	10000	4	1	0	4	0
437	690	0	10000	4	1	0	4	0
419	691	0	10000	4	1	0	4	0
404	692	0	10000	4	1	0	4	0
388	693	0	10000	4	1	0	4	0
371	694	0	10000	4	1	0	4	0
355	695	0	10000	4	1	0	4	0
338	696	0	10000	4	1	0	4	0
327	697	0	10000	4	1	0	4	0
317	698	0	10000	4	1	0	4	0
307	699	0	10000	4	1	0	4	0
298	700	0	10000	4	1	0	4	0
289	701	0	10000	4	1	0	4	0
279	702	0	10000	4	1	0	4	0
267	703	0	10000	4	1	0	4	0
256	704	0	10000	4	1	0	4	0
248	705	0	10000	4	1	0	4	0
242	706	0	10000	4	1	0	4	0
236	707	0	10000	4	1	0	4	0
235	708	0	10000	4	1	0	4	0
236	709	0	10000	4	1	0	4	0
237	710	0	10000	4	1	0	4	0
238	711	0	10000	4	1	0	4	0
240	712	0	10000	4	1	0	4	0
240	713	0	10000	4	1	0	4	0
237	714	0	10000	4	1	0	4	0
234	715	0	10000	4	1	0	4	0
228	716	0	10000	4	1	0	4	0
225	717	0	10000	4	1	0	4	0
216	718	0	10000	4	1	0	4	0
206	719	0	10000	4	1	0	4	0
197	720	0	10000	4	1	0	4	0
189	721	0	10000	4	1	0	4	0
180	722	0	10000	4	1	0	4	0
174	723	0	10000	4	1	0	4	0
170	724	0	10000	4	1	0	4	0
171	725	0	10000	4	1	0	4	0
172	726	0	10000	4	1	0	4	0
172	727	0	10000	4	1	0	4	0
176	728	0	10000	4	1	0	4	0
178	729	0	10000	4	1	0	4	0
181	730	0	10000	4	1	0	4	0
183	731	0	10000	4	1	0	4	0
186	732	0	10000	4	1	0	4	0
188	733	0	10000	4	1	0	4	0
190	734	0	10000	4	1	0	4	0
189	735	0	10000	4	1	0	4	0
183	736	0	10000	4	1	0	4	0
177	737	0	10000	4	1	0	4	0
169	738	0	10000	4	1	0	4	0
163	739	0	10000	4	1	0	4	0
159	740	0	10000	4	1	0	4	0
155	741	0	10000	4	1	0	4	0
152	742	0	10000	4	1	0	4	0
148	743	0	10000	4	1	0	4	0
146	744	0	10000	4	1	0	4	0
144	745	0	10000	4	1	0	4	0
142	746	0	10000	4	1	0	4	0
140	747	0	10000	4	1	0	4	0
141	748	0	10000	4	1	0	4	0
142	749	0	10000	4	1	0	4	0
143	750	0	10000	4	1	0	4	0
142	751	0	10000	4	1	0	4	0
142	752	0	10000	4	1	0	4	0
140	753	0	10000	4	1	0	4	0
137	754	0	10000	4	1	0	4	0
133	755	0	10000	4	1	0	4	0
133	756	0	10000	4	1	0	4	0
135	757	0	10000	4	1	0	4	0
130	758	0	10000	4	1	0	4	0
126	759	0	10000	4	1	0	4	0
121	760	0	10000	4	1	0	4	0
116	761	0	10000	4	1	0	4	0
111	762	0	10000	4	1	0	4	0
107	763	0	10000	4	1	0	4	0
105	764	0	10000	4	1	0	4	0
102	765	0	10000	4	1	0	4	0
99	766	0	10000	4	1	0	4	0
96	767	0	10000	4	1	0	4	0
100	768	0	10000	4	1	0	4	0
106	769	0	10000	4	1	0	4	0
112	770	0	10000	4	1	0	4	0
118	771	0	10000	4	1	0	4	0
120	772	0	10000	4	1	0	4	0
120	773	0	10000	4	1	0	4	0
119	774	0	10000	4	1	0	4	0
116	775	0	10000	4	1	0	4	0
112	776	0	10000	4	1	0	4	0
113	777	0	10000	4	1	0	4	0
112	778	0	10000	4	1	0	4	0
109	779	0	10000	4	1	0	4	0
108	780	0	10000	4	1	0	4	0
106	781	0	10000	4	1	0	4	0
103	782	0	10000	4	1	0	4	0
103	783	0	10000	4	1	0	4	0
103	784	0	10000	4	1	0	4	0
102	785	0	10000	4	1	0	4	0
102	786	0	10000	4	1	0	4	0
101	787	0	10000	4	1	0	4	0
102	788	0	10000	4	1	0	4	0
104	789	0	10000	4	1	0	4	0
108	790	0	10000	4	1	0	4	0
110	791	0	10000	4	1	0	4	0
112	792	0	10000	4	1	0	4	0
112	793	0	10000	4	1	0	4	0
109	794	0	10000	4	1	0	4	0
104	795	0	10000	4	1	0	4	0
100	796	0	10000	4	1	0	4	0
102	797	0	10000	4	1	0	4	0
101	798	0	10000	4	1	0	4	0
100	799	0	10000	4	1	0	4	0
100	800	0	10000	4	1	0	4	0
102	801	0	10000	4	1	0	4	0
102	802	0	10000	4	1	0	4	0
99	803	0	10000	4	1	0	4	0
97	804	0	10000	4	1	0	4	0
94	805	0	10000	4	1	0	4	0
94	806	0	10000	4	1	0	4	0
94	807	0	10000	4	1	0	4	0
94	808	0	10000	4	1	0	4	0
90	809	0	10000	4	1	0	4	0
91	810	0	10000	4	1	0	4	0
95	811	0	10000	4	1	0	4	0
98	812	0	10000	4	1	0	4	0
100	813	0	10000	4	1	0	4	0
101	814	0	10000	4	1	0	4	0
98	815	0	10000	4	1	0	4	0
95	816	0	10000	4	1	0	4	0
95	817	0	10000	4	1	0	4	0
91	818	0	10000	4	1	0	4	0
89	819	0	10000	4	1	0	4	0
92	820	0	10000	4	1	0	4	0
95	821	0	10000	4	1	0	4	0
99	822	0	10000	4	1	0	4	0
105	823	0	10000	4	1	0	4	0
110	824	0	10000	4	1	0	4	0
109	825	0	10000	4	1	0	4	0
106	826	0	10000	4	1	0	4	0
104	827	0	10000	4	1	0	4	0
108	828	0	10000	4	1	0	4	0
112	829	0	10000	4	1	0	4	0
113	830	0	10000	4	1	0	4	0
112	831	0	10000	4	1	0	4	0
111	832	0	10000	4	1	0	4	0
108	833	0	10000	4	1	0	4	0
104	834	0	10000	4	1	0	4	0
100	835	0	10000	4	1	0	4	0
95	836	0	10000	4	1	0	4	0
95	837	0	10000	4	1	0	4	0
95	838	0	10000	4	1	0	4	0
97	839	0	10000	4	1	0	4	0
95	840	0	10000	4	1	0	4	0
91	841	0	10000	4	1	0	4	0
87	842	0	10000	4	1	0	4	0
83	843	0	10000	4	1	0	4	0
82	844	0	10000	4	1	0	4	0
80	845	0	10000	4	1	0	4	0
78	846	0	10000	4	1	0	4	0
75	847	0	10000	4	1	0	4	0
73	848	0	10000	4	1	0	4	0
71	849	0	10000	4	1	0	4	0
71	850	0	10000	4	1	0	4	0
70	851	0	10000	4	1	0	4	0
68	852	0	10000	4	1	0	4	0
66	853	0	10000	4	1	0	4	0
66	854	0	10000	4	1	0	4	0
65	855	0	10000	4	1	0	4	0
64	856	0	10000	4	1	0	4	0
66	857	0	10000	4	1	0	4	0
64	858	0	10000	4	1	0	4	0
62	859	0	10000	4	1	0	4	0
60	860	0	10000	4	1	0	4	0
63	861	0	10000	4	1	0	4	0
63	862	0	10000	4	1	0	4	0
64	863	0	10000	4	1	0	4	0
62	864	0	10000	4	1	0	4	0
63	865	0	10000	4	1	0	4	0
61	866	0	10000	4	1	0	4	0
57	867	0	10000	4	1	0	4	0
58	868	0	10000	4	1	0	4	0
58	869	0	10000	4	1	0	4	0
56	870	0	10000	4	1	0	4	0
57	871	0	10000	4	1	0	4	0
57	872	0	10000	4	1	0	4	0
56	873	0	10000	4	1	0	4	0
54	874	0	10000	4	1	0	4	0
52	875	0	10000	4	1	0	4	0
49	876	0	10000	4	1	0	4	0
50	877	0	10000	4	1	0	4	0
49	878	0	10000	4	1	0	4	0
48	879	0	10000	4	1	0	4	0
50	880	0	10000	4	1	0	4	0
50	881	0	10000	4	1	0	4	0
52	882	0	10000	4	1	0	4	0
52	883	0	10000	4	1	0	4	0
52	884	0	10000	4	1	0	4	0
49	885	0	10000	4	1	0	4	0
48	886	0	10000	4	1	0	4	0
46	887	0	10000	4	1	0	4	0
47	888	0	10000	4	1	0	4	0
49	889	0	10000	4	1	0	4	0
52	890	0	10000	4	1	0	4	0
54	891	0	10000	4	1	0	4	0
53	892	0	10000	4	1	0	4	0
54	893	0	10000	4	1	0	4	0
54	894	0	10000	4	1	0	4	0
54	895	0	10000	4	1	0	4	0
53	896	0	10000	4	1	0	4	0
54	897	0	10000	4	1	0	4	0
54	898	0	10000	4	1	0	4	0
55	899	0	10000	4	1	0	4	0
56	900	0	10000	4	1	0	4	0
59	901	0	10000	4	1	0	4	0
63	902	0	10000	4	1	0	4	0
65	903	0	10000	4	1	0	4	0
66	904	0	10000	4	1	0	4	0
65	905	0	10000	4	1	0	4	0
71	906	0	10000	4	1	0	4	0
74	907	0	10000	4	1	0	4	0
78	908	0	10000	4	1	0	4	0
80	909	0	10000	4	1	0	4	0
80	910	0	10000	4	1	0	4	0
77	911	0	10000	4	1	0	4	0
74	912	0	10000	4	1	0	4	0
72	913	0	10000	4	1	0	4	0
74	914	0	10000	4	1	0	4	0
75	915	0	10000	4	1	0	4	0
75	916	0	10000	4	1	0	4	0
76	917	0	10000	4	1	0	4	0
73	918	0	10000	4	1	0	4	0
72	919	0	10000	4	1	0	4	0
73	920	0	10000	4	1	0	4	0
79	921	0	10000	4	1	0	4	0
91	922	0	10000	4	1	0	4	0
99	923	0	10000	4	1	0	4	0
100	924	0	10000	4	1	0	4	0
97	925	0	10000	4	1	0	4	0
99	926	0	10000	4	1	0	4	0
100	927	0	10000	4	1	0	4	0
104	928	0	10000	4	1	0	4	0
102	929	0	10000	4	1	0	4	0
100	930	0	10000	4	1	0	4	0
96	931	0	10000	4	1	0	4	0
93	932	0	10000	4	1	0	4	0
91	933	0	10000	4	1	0	4	0
86	934	0	10000	4	1	0	4	0
82	935	0	10000	4	1	0	4	0
80	936	0	10000	4	1	0	4	0
80	937	0	10000	4	1	0	4	0
78	938	0	10000	4	1	0	4	0
76	939	0	10000	4	1	0	4	0
72	940	0	10000	4	1	0	4	0
72	941	0	10000	4	1	0	4	0
75	942	0	10000	4	1	0	4	0
76	943	0	10000	4	1	0	4	0
78	944	0	10000	4	1	0	4	0
77	945	0	10000	4	1	0	4	0
77	946	0	10000	4	1	0	4	0
76	947	0	10000	4	1	0	4	0
74	948	0	10000	4	1	0	4	0
71	949	0	10000	4	1	0	4	0
70	950	0	10000	4	1	0	4	0
71	951	0	10000	4	1	0	4	0
70	952	0	10000	4	1	0	4	0
70	953	0	10000	4	1	0	4	0
70	954	0	10000	4	1	0	4	0
68	955	0	10000	4	1	0	4	0
66	956	0	10000	4	1	0	4	0
68	957	0	10000	4	1	0	4	0
66	958	0	10000	4	1	0	4	0
64	959	0	10000	4	1	0	4	0
60	960	0	10000	4	1	0	4	0
58	961	0	10000	4	1	0	4	0
56	962	0	10000	4	1	0	4	0
54	963	0	10000	4	1	0	4	0
54	964	0	10000	4	1	0	4	0
59	965	0	10000	4	1	0	4	0
66	966	0	10000	4	1	0	4	0
65	967	0	10000	4	1	0	4	0
63	968	0	10000	4	1	0	4	0
61	969	0	10000	4	1	0	4	0
62	970	0	10000	4	1	0	4	0
63	971	0	10000	4	1	0	4	0
60	972	0	10000	4	1	0	4	0
59	973	0	10000	4	1	0	4	0
58	974	0	10000	4	1	0	4	0
57	975	0	10000	4	1	0	4	0
55	976	0	10000	4	1	0	4	0
55	977	0	10000	4	1	0	4	0
53	978	0	10000	4	1	0	4	0
53	979	0	10000	4	1	0	4	0
52	980	0	10000	4	1	0	4	0
49	981	0	10000	4	1	0	4	0
47	982	0	10000	4	1	0	4	0
47	983	0	10000	4	1	0	4	0
47	984	0	10000	4	1	0	4	0
49	985	0	10000	4	1	0	4	0
54	986	0	10000	4	1	0	4	0
53	987	0	10000	4	1	0	4	0
52	988	0	10000	4	1	0	4	0
51	989	0	10000	4	1	0	4	0
49	990	0	10000	4	1	0	4	0
47	991	0	10000	4	1	0	4	0
47	992	0	10000	4	1	0	4	0
46	993	0	10000	4	1	0	4	0
45	994	0	10000	4	1	0	4	0
44	995	0	10000	4	1	0	4	0
43	996	0	10000	4	1	0	4	0
47	997	0	10000	4	1	0	4	0
50	998	0	10000	4	1	0	4	0
54	999	0	10000	4	1	0	4	0
54	1000	0	10000	4	1	0	4	0
56	1001	0	10000	4	1	0	4	0
26	1	7	10000	5	1	0	5	0
26	2	7	10000	5	1	0	5	0
25	3	7	10000	5	1	0	5	0
24	4	7	10000	5	1	0	5	0
22	5	7	10000	5	1	0	5	0
22	6	7	10000	5	1	0	5	0
23	7	7	10000	5	1	0	5	0
24	8	7	10000	5	1	0	5	0
23	9	7	10000	5	1	0	5	0
24	10	7	10000	5	1	0	5	0
24	11	7	10000	5	1	0	5	0
25	12	7	10000	5	1	0	5	0
26	13	7	10000	5	1	0	5	0
28	14	7	10000	5	1	0	5	0
28	15	7	10000	5	1	0	5	0
27	16	7	10000	5	1	0	5	0
27	17	7	10000	5	1	0	5	0
27	18	7	10000	5	1	0	5	0
29	19	7	10000	5	1	0	5	0
30	20	7	10000	5	1	0	5	0
29	20	7	10000	5	1	0	5	0
31	21	7	10000	5	1	0	5	0
32	23	7	10000	5	1	0	5	0
31	24	7	10000	5	1	0	5	0
32	25	7	10000	5	1	0	5	0
31	26	7	10000	5	1	0	5	0
30	35	7	10000	5	1	0	5	0
29	36	7	10000	5	1	0	5	0
28	37	7	10000	5	1	0	5	0
28	38	7	10000	5	1	0	5	0
27	39	7	10000	5	1	0	5	0
27	40	7	10000	5	1	0	5	0
25	41	7	10000	5	1	0	5	0
26	42	7	10000	5	1	0	5	0
26	43	7	10000	5	1	0	5	0
25	44	7	10000	5	1	0	5	0
24	43	7	10000	5	1	0	5	0
24	44	7	10000	5	1	0	5	0
24	45	7	10000	5	1	0	5	0
25	46	7	10000	5	1	0	5	0
26	47	7	10000	5	1	0	5	0
26	48	7	10000	5	1	0	5	0
27	49	7	10000	5	1	0	5	0
26	50	7	10000	5	1	0	5	0
27	50	7	10000	5	1	0	5	0
29	51	7	10000	5	1	0	5	0
30	52	7	10000	5	1	0	5	0
31	53	7	10000	5	1	0	5	0
30	54	7	10000	5	1	0	5	0
29	55	7	10000	5	1	0	5	0
28	56	7	10000	5	1	0	5	0
28	57	7	10000	5	1	0	5	0
27	58	7	10000	5	1	0	5	0
28	59	7	10000	5	1	0	5	0
28	60	7	10000	5	1	0	5	0
26	61	7	10000	5	1	0	5	0
26	62	7	10000	5	1	0	5	0
25	63	7	10000	5	1	0	5	0
24	64	7	10000	5	1	0	5	0
24	65	7	10000	5	1	0	5	0
23	63	7	10000	5	1	0	5	0
23	64	7	10000	5	1	0	5	0
24	65	7	10000	5	1	0	5	0
23	66	7	10000	5	1	0	5	0
23	68	7	10000	5	1	0	5	0
22	69	7	10000	5	1	0	5	0
22	70	7	10000	5	1	0	5	0
22	71	7	10000	5	1	0	5	0
21	72	7	10000	5	1	0	5	0
21	73	7	10000	5	1	0	5	0
22	74	7	10000	5	1	0	5	0
20	75	7	10000	5	1	0	5	0
20	76	7	10000	5	1	0	5	0
21	77	7	10000	5	1	0	5	0
21	78	7	10000	5	1	0	5	0
21	79	7	10000	5	1	0	5	0
22	79	7	10000	5	1	0	5	0
23	80	7	10000	5	1	0	5	0
23	81	7	10000	5	1	0	5	0
24	82	7	10000	5	1	0	5	0
24	85	7	10000	5	1	0	5	0
23	86	7	10000	5	1	0	5	0
24	87	7	10000	5	1	0	5	0
23	88	7	10000	5	1	0	5	0
24	89	7	10000	5	1	0	5	0
27	90	7	10000	5	1	0	5	0
28	89	7	10000	5	1	0	5	0
28	90	7	10000	5	1	0	5	0
28	91	7	10000	5	1	0	5	0
27	92	7	10000	5	1	0	5	0
27	96	7	10000	5	1	0	5	0
26	97	7	10000	5	1	0	5	0
25	98	7	10000	5	1	0	5	0
25	99	7	10000	5	1	0	5	0
26	100	7	10000	5	1	0	5	0
28	101	7	10000	5	1	0	5	0
28	102	7	10000	5	1	0	5	0
27	103	7	10000	5	1	0	5	0
27	100	7	10000	5	1	0	5	0
26	101	7	10000	5	1	0	5	0
25	102	7	10000	5	1	0	5	0
26	103	7	10000	5	1	0	5	0
25	107	7	10000	5	1	0	5	0
23	108	7	10000	5	1	0	5	0
22	109	7	10000	5	1	0	5	0
23	110	7	10000	5	1	0	5	0
22	111	7	10000	5	1	0	5	0
21	112	7	10000	5	1	0	5	0
22	112	7	10000	5	1	0	5	0
22	113	7	10000	5	1	0	5	0
23	114	7	10000	5	1	0	5	0
24	115	7	10000	5	1	0	5	0
28	116	7	10000	5	1	0	5	0
35	117	7	10000	5	1	0	5	0
38	118	7	10000	5	1	0	5	0
37	119	7	10000	5	1	0	5	0
36	120	7	10000	5	1	0	5	0
36	121	7	10000	5	1	0	5	0
38	122	7	10000	5	1	0	5	0
40	123	7	10000	5	1	0	5	0
42	122	7	10000	5	1	0	5	0
44	123	7	10000	5	1	0	5	0
43	124	7	10000	5	1	0	5	0
40	125	7	10000	5	1	0	5	0
38	128	7	10000	5	1	0	5	0
38	129	7	10000	5	1	0	5	0
38	130	7	10000	5	1	0	5	0
38	131	7	10000	5	1	0	5	0
38	132	7	10000	5	1	0	5	0
38	133	7	10000	5	1	0	5	0
39	134	7	10000	5	1	0	5	0
40	135	7	10000	5	1	0	5	0
40	136	7	10000	5	1	0	5	0
40	137	7	10000	5	1	0	5	0
41	138	7	10000	5	1	0	5	0
39	139	7	10000	5	1	0	5	0
37	138	7	10000	5	1	0	5	0
38	139	7	10000	5	1	0	5	0
36	140	7	10000	5	1	0	5	0
35	141	7	10000	5	1	0	5	0
37	145	7	10000	5	1	0	5	0
39	146	7	10000	5	1	0	5	0
41	147	7	10000	5	1	0	5	0
42	148	7	10000	5	1	0	5	0
40	149	7	10000	5	1	0	5	0
39	150	7	10000	5	1	0	5	0
38	147	7	10000	5	1	0	5	0
38	148	7	10000	5	1	0	5	0
40	149	7	10000	5	1	0	5	0
42	150	7	10000	5	1	0	5	0
44	151	7	10000	5	1	0	5	0
44	152	7	10000	5	1	0	5	0
43	153	7	10000	5	1	0	5	0
43	154	7	10000	5	1	0	5	0
42	155	7	10000	5	1	0	5	0
41	156	7	10000	5	1	0	5	0
40	157	7	10000	5	1	0	5	0
41	158	7	10000	5	1	0	5	0
41	159	7	10000	5	1	0	5	0
41	160	7	10000	5	1	0	5	0
42	161	7	10000	5	1	0	5	0
43	162	7	10000	5	1	0	5	0
42	163	7	10000	5	1	0	5	0
40	164	7	10000	5	1	0	5	0
40	165	7	10000	5	1	0	5	0
41	166	7	10000	5	1	0	5	0
42	167	7	10000	5	1	0	5	0
42	168	7	10000	5	1	0	5	0
41	169	7	10000	5	1	0	5	0
39	170	7	10000	5	1	0	5	0
37	171	7	10000	5	1	0	5	0
36	172	7	10000	5	1	0	5	0
35	173	7	10000	5	1	0	5	0
35	174	7	10000	5	1	0	5	0
35	175	7	10000	5	1	0	5	0
33	176	7	10000	5	1	0	5	0
34	177	7	10000	5	1	0	5	0
36	178	7	10000	5	1	0	5	0
40	179	7	10000	5	1	0	5	0
43	180	7	10000	5	1	0	5	0
44	181	7	10000	5	1	0	5	0
45	182	7	10000	5	1	0	5	0
45	183	7	10000	5	1	0	5	0
43	184	7	10000	5	1	0	5	0
43	185	7	10000	5	1	0	5	0
45	186	7	10000	5	1	0	5	0
46	187	7	10000	5	1	0	5	0
45	188	7	10000	5	1	0	5	0
43	189	7	10000	5	1	0	5	0
42	190	7	10000	5	1	0	5	0
41	191	7	10000	5	1	0	5	0
44	192	7	10000	5	1	0	5	0
46	193	7	10000	5	1	0	5	0
45	194	7	10000	5	1	0	5	0
45	195	7	10000	5	1	0	5	0
47	196	7	10000	5	1	0	5	0
48	197	7	10000	5	1	0	5	0
47	198	7	10000	5	1	0	5	0
47	199	7	10000	5	1	0	5	0
46	200	7	10000	5	1	0	5	0
46	201	7	10000	5	1	0	5	0
47	202	7	10000	5	1	0	5	0
47	203	7	10000	5	1	0	5	0
45	204	7	10000	5	1	0	5	0
45	205	7	10000	5	1	0	5	0
44	206	7	10000	5	1	0	5	0
47	207	7	10000	5	1	0	5	0
51	208	7	10000	5	1	0	5	0
54	209	7	10000	5	1	0	5	0
57	210	7	10000	5	1	0	5	0
57	211	7	10000	5	1	0	5	0
56	212	7	10000	5	1	0	5	0
54	213	7	10000	5	1	0	5	0
54	214	7	10000	5	1	0	5	0
52	215	7	10000	5	1	0	5	0
52	216	7	10000	5	1	0	5	0
55	217	7	10000	5	1	0	5	0
58	218	7	10000	5	1	0	5	0
61	219	7	10000	5	1	0	5	0
60	220	7	10000	5	1	0	5	0
58	221	7	10000	5	1	0	5	0
58	222	7	10000	5	1	0	5	0
57	223	7	10000	5	1	0	5	0
53	224	7	10000	5	1	0	5	0
51	225	7	10000	5	1	0	5	0
50	226	7	10000	5	1	0	5	0
53	227	7	10000	5	1	0	5	0
56	228	7	10000	5	1	0	5	0
54	229	7	10000	5	1	0	5	0
54	230	7	10000	5	1	0	5	0
55	231	7	10000	5	1	0	5	0
55	232	7	10000	5	1	0	5	0
53	233	7	10000	5	1	0	5	0
53	234	7	10000	5	1	0	5	0
52	235	7	10000	5	1	0	5	0
52	236	7	10000	5	1	0	5	0
53	237	7	10000	5	1	0	5	0
52	238	7	10000	5	1	0	5	0
52	239	7	10000	5	1	0	5	0
52	240	7	10000	5	1	0	5	0
50	241	7	10000	5	1	0	5	0
50	242	7	10000	5	1	0	5	0
52	243	7	10000	5	1	0	5	0
51	244	7	10000	5	1	0	5	0
49	245	7	10000	5	1	0	5	0
49	246	7	10000	5	1	0	5	0
47	247	7	10000	5	1	0	5	0
50	248	7	10000	5	1	0	5	0
51	249	7	10000	5	1	0	5	0
50	250	7	10000	5	1	0	5	0
51	251	7	10000	5	1	0	5	0
54	252	7	10000	5	1	0	5	0
54	253	7	10000	5	1	0	5	0
55	254	7	10000	5	1	0	5	0
55	255	7	10000	5	1	0	5	0
55	256	7	10000	5	1	0	5	0
55	257	7	10000	5	1	0	5	0
54	258	7	10000	5	1	0	5	0
53	259	7	10000	5	1	0	5	0
51	260	7	10000	5	1	0	5	0
51	261	7	10000	5	1	0	5	0
50	262	7	10000	5	1	0	5	0
50	263	7	10000	5	1	0	5	0
50	264	7	10000	5	1	0	5	0
51	265	7	10000	5	1	0	5	0
50	266	7	10000	5	1	0	5	0
49	267	7	10000	5	1	0	5	0
48	268	7	10000	5	1	0	5	0
48	269	7	10000	5	1	0	5	0
47	270	7	10000	5	1	0	5	0
49	271	7	10000	5	1	0	5	0
55	272	7	10000	5	1	0	5	0
55	273	7	10000	5	1	0	5	0
55	274	7	10000	5	1	0	5	0
56	275	7	10000	5	1	0	5	0
56	276	7	10000	5	1	0	5	0
55	277	7	10000	5	1	0	5	0
53	278	7	10000	5	1	0	5	0
51	279	7	10000	5	1	0	5	0
48	280	7	10000	5	1	0	5	0
47	281	7	10000	5	1	0	5	0
46	282	7	10000	5	1	0	5	0
50	283	7	10000	5	1	0	5	0
51	284	7	10000	5	1	0	5	0
50	285	7	10000	5	1	0	5	0
53	286	7	10000	5	1	0	5	0
56	287	7	10000	5	1	0	5	0
58	288	7	10000	5	1	0	5	0
56	289	7	10000	5	1	0	5	0
54	290	7	10000	5	1	0	5	0
53	291	7	10000	5	1	0	5	0
52	292	7	10000	5	1	0	5	0
51	293	7	10000	5	1	0	5	0
53	294	7	10000	5	1	0	5	0
52	295	7	10000	5	1	0	5	0
53	296	7	10000	5	1	0	5	0
54	297	7	10000	5	1	0	5	0
52	298	7	10000	5	1	0	5	0
50	299	7	10000	5	1	0	5	0
48	300	7	10000	5	1	0	5	0
46	301	7	10000	5	1	0	5	0
46	302	7	10000	5	1	0	5	0
47	303	7	10000	5	1	0	5	0
44	304	7	10000	5	1	0	5	0
42	305	7	10000	5	1	0	5	0
43	306	7	10000	5	1	0	5	0
44	307	7	10000	5	1	0	5	0
44	308	7	10000	5	1	0	5	0
42	309	7	10000	5	1	0	5	0
41	310	7	10000	5	1	0	5	0
42	311	7	10000	5	1	0	5	0
42	312	7	10000	5	1	0	5	0
40	313	7	10000	5	1	0	5	0
41	314	7	10000	5	1	0	5	0
41	315	7	10000	5	1	0	5	0
40	316	7	10000	5	1	0	5	0
39	317	7	10000	5	1	0	5	0
37	318	7	10000	5	1	0	5	0
36	319	7	10000	5	1	0	5	0
36	320	7	10000	5	1	0	5	0
36	321	7	10000	5	1	0	5	0
36	322	7	10000	5	1	0	5	0
37	323	7	10000	5	1	0	5	0
37	324	7	10000	5	1	0	5	0
37	325	7	10000	5	1	0	5	0
37	326	7	10000	5	1	0	5	0
38	327	7	10000	5	1	0	5	0
37	328	7	10000	5	1	0	5	0
36	329	7	10000	5	1	0	5	0
36	330	7	10000	5	1	0	5	0
34	331	7	10000	5	1	0	5	0
33	332	7	10000	5	1	0	5	0
36	333	7	10000	5	1	0	5	0
46	334	7	10000	5	1	0	5	0
54	335	7	10000	5	1	0	5	0
54	336	7	10000	5	1	0	5	0
53	337	7	10000	5	1	0	5	0
58	338	7	10000	5	1	0	5	0
64	339	7	10000	5	1	0	5	0
64	340	7	10000	5	1	0	5	0
66	341	7	10000	5	1	0	5	0
70	342	7	10000	5	1	0	5	0
73	343	7	10000	5	1	0	5	0
71	344	7	10000	5	1	0	5	0
70	345	7	10000	5	1	0	5	0
68	346	7	10000	5	1	0	5	0
66	347	7	10000	5	1	0	5	0
65	348	7	10000	5	1	0	5	0
63	349	7	10000	5	1	0	5	0
62	350	7	10000	5	1	0	5	0
60	351	7	10000	5	1	0	5	0
60	352	7	10000	5	1	0	5	0
58	353	7	10000	5	1	0	5	0
58	354	7	10000	5	1	0	5	0
60	355	7	10000	5	1	0	5	0
59	356	7	10000	5	1	0	5	0
57	357	7	10000	5	1	0	5	0
55	358	7	10000	5	1	0	5	0
57	359	7	10000	5	1	0	5	0
62	360	7	10000	5	1	0	5	0
65	361	7	10000	5	1	0	5	0
63	362	7	10000	5	1	0	5	0
63	363	7	10000	5	1	0	5	0
61	364	7	10000	5	1	0	5	0
61	365	7	10000	5	1	0	5	0
60	366	7	10000	5	1	0	5	0
61	367	7	10000	5	1	0	5	0
61	368	7	10000	5	1	0	5	0
61	369	7	10000	5	1	0	5	0
62	370	7	10000	5	1	0	5	0
64	371	7	10000	5	1	0	5	0
62	372	7	10000	5	1	0	5	0
63	373	7	10000	5	1	0	5	0
66	374	7	10000	5	1	0	5	0
69	375	7	10000	5	1	0	5	0
69	376	7	10000	5	1	0	5	0
69	377	7	10000	5	1	0	5	0
67	378	7	10000	5	1	0	5	0
65	379	7	10000	5	1	0	5	0
65	380	7	10000	5	1	0	5	0
63	381	7	10000	5	1	0	5	0
61	382	7	10000	5	1	0	5	0
59	383	7	10000	5	1	0	5	0
56	384	7	10000	5	1	0	5	0
55	385	7	10000	5	1	0	5	0
53	386	7	10000	5	1	0	5	0
51	387	7	10000	5	1	0	5	0
50	388	7	10000	5	1	0	5	0
49	389	7	10000	5	1	0	5	0
48	390	7	10000	5	1	0	5	0
49	391	7	10000	5	1	0	5	0
48	392	7	10000	5	1	0	5	0
48	393	7	10000	5	1	0	5	0
48	394	7	10000	5	1	0	5	0
47	395	7	10000	5	1	0	5	0
44	396	7	10000	5	1	0	5	0
43	397	7	10000	5	1	0	5	0
43	398	7	10000	5	1	0	5	0
41	399	7	10000	5	1	0	5	0
41	400	7	10000	5	1	0	5	0
40	401	7	10000	5	1	0	5	0
38	402	7	10000	5	1	0	5	0
38	403	7	10000	5	1	0	5	0
35	404	7	10000	5	1	0	5	0
33	405	7	10000	5	1	0	5	0
32	406	7	10000	5	1	0	5	0
32	407	7	10000	5	1	0	5	0
33	408	7	10000	5	1	0	5	0
33	409	7	10000	5	1	0	5	0
33	410	7	10000	5	1	0	5	0
32	411	7	10000	5	1	0	5	0
31	412	7	10000	5	1	0	5	0
32	413	7	10000	5	1	0	5	0
37	414	7	10000	5	1	0	5	0
41	415	7	10000	5	1	0	5	0
44	416	7	10000	5	1	0	5	0
43	417	7	10000	5	1	0	5	0
42	418	7	10000	5	1	0	5	0
43	419	7	10000	5	1	0	5	0
42	420	7	10000	5	1	0	5	0
42	421	7	10000	5	1	0	5	0
41	422	7	10000	5	1	0	5	0
44	423	7	10000	5	1	0	5	0
45	424	7	10000	5	1	0	5	0
47	425	7	10000	5	1	0	5	0
47	426	7	10000	5	1	0	5	0
49	427	7	10000	5	1	0	5	0
50	428	7	10000	5	1	0	5	0
49	429	7	10000	5	1	0	5	0
47	430	7	10000	5	1	0	5	0
47	431	7	10000	5	1	0	5	0
49	432	7	10000	5	1	0	5	0
51	433	7	10000	5	1	0	5	0
52	434	7	10000	5	1	0	5	0
52	435	7	10000	5	1	0	5	0
54	436	7	10000	5	1	0	5	0
54	437	7	10000	5	1	0	5	0
55	438	7	10000	5	1	0	5	0
53	439	7	10000	5	1	0	5	0
51	440	7	10000	5	1	0	5	0
51	441	7	10000	5	1	0	5	0
50	442	7	10000	5	1	0	5	0
50	443	7	10000	5	1	0	5	0
49	444	7	10000	5	1	0	5	0
48	445	7	10000	5	1	0	5	0
48	446	7	10000	5	1	0	5	0
48	447	7	10000	5	1	0	5	0
46	448	7	10000	5	1	0	5	0
45	449	7	10000	5	1	0	5	0
44	450	7	10000	5	1	0	5	0
44	451	7	10000	5	1	0	5	0
43	452	7	10000	5	1	0	5	0
40	453	7	10000	5	1	0	5	0
41	454	7	10000	5	1	0	5	0
42	455	7	10000	5	1	0	5	0
42	456	7	10000	5	1	0	5	0
44	457	7	10000	5	1	0	5	0
44	458	7	10000	5	1	0	5	0
42	459	7	10000	5	1	0	5	0
41	460	7	10000	5	1	0	5	0
43	461	7	10000	5	1	0	5	0
43	462	7	10000	5	1	0	5	0
42	463	7	10000	5	1	0	5	0
43	464	7	10000	5	1	0	5	0
44	465	7	10000	5	1	0	5	0
46	466	7	10000	5	1	0	5	0
44	467	7	10000	5	1	0	5	0
43	468	7	10000	5	1	0	5	0
43	469	7	10000	5	1	0	5	0
43	470	7	10000	5	1	0	5	0
45	471	7	10000	5	1	0	5	0
50	472	7	10000	5	1	0	5	0
54	473	7	10000	5	1	0	5	0
60	474	7	10000	5	1	0	5	0
61	475	7	10000	5	1	0	5	0
61	476	7	10000	5	1	0	5	0
63	477	7	10000	5	1	0	5	0
62	478	7	10000	5	1	0	5	0
61	479	7	10000	5	1	0	5	0
60	480	7	10000	5	1	0	5	0
66	481	7	10000	5	1	0	5	0
74	482	7	10000	5	1	0	5	0
77	483	7	10000	5	1	0	5	0
76	484	7	10000	5	1	0	5	0
73	485	7	10000	5	1	0	5	0
71	486	7	10000	5	1	0	5	0
72	487	7	10000	5	1	0	5	0
76	488	7	10000	5	1	0	5	0
81	489	7	10000	5	1	0	5	0
82	490	7	10000	5	1	0	5	0
80	491	7	10000	5	1	0	5	0
77	492	7	10000	5	1	0	5	0
73	493	7	10000	5	1	0	5	0
73	494	7	10000	5	1	0	5	0
73	495	7	10000	5	1	0	5	0
71	496	7	10000	5	1	0	5	0
70	497	7	10000	5	1	0	5	0
74	498	7	10000	5	1	0	5	0
80	499	7	10000	5	1	0	5	0
85	500	7	10000	5	1	0	5	0
87	501	7	10000	5	1	0	5	1
85	502	7	10000	5	1	0	5	1
83	503	7	10000	5	1	0	5	1
81	504	7	10000	5	1	0	5	1
78	505	7	10000	5	1	0	5	1
77	506	7	10000	5	1	0	5	1
77	507	7	10000	5	1	0	5	1
76	508	7	10000	5	1	0	5	1
74	509	7	10000	5	1	0	5	1
71	510	7	10000	5	1	0	5	1
68	511	7	10000	5	1	0	5	1
68	512	7	10000	5	1	0	5	1
66	513	7	10000	5	1	0	5	1
65	514	7	10000	5	1	0	5	1
66	515	7	10000	5	1	0	5	1
67	516	7	10000	5	1	0	5	1
66	517	7	10000	5	1	0	5	1
65	518	7	10000	5	1	0	5	1
65	519	7	10000	5	1	0	5	1
62	520	7	10000	5	1	0	5	1
59	521	7	10000	5	1	0	5	1
58	522	7	10000	5	1	0	5	1
55	523	7	10000	5	1	0	5	1
52	524	7	10000	5	1	0	5	1
52	525	7	10000	5	1	0	5	1
53	526	7	10000	5	1	0	5	1
55	527	7	10000	5	1	0	5	1
56	528	7	10000	5	1	0	5	1
55	529	7	10000	5	1	0	5	1
54	530	7	10000	5	1	0	5	1
53	531	7	10000	5	1	0	5	1
52	532	7	10000	5	1	0	5	1
52	533	7	10000	5	1	0	5	1
54	534	7	10000	5	1	0	5	1
55	535	7	10000	5	1	0	5	1
56	536	7	10000	5	1	0	5	1
57	537	7	10000	5	1	0	5	1
57	538	7	10000	5	1	0	5	1
55	539	7	10000	5	1	0	5	1
54	540	7	10000	5	1	0	5	1
52	541	7	10000	5	1	0	5	1
54	542	7	10000	5	1	0	5	1
54	543	7	10000	5	1	0	5	1
53	544	7	10000	5	1	0	5	1
55	545	7	10000	5	1	0	5	1
55	546	7	10000	5	1	0	5	1
56	547	7	10000	5	1	0	5	1
57	548	7	10000	5	1	0	5	1
55	549	7	10000	5	1	0	5	1
54	550	7	10000	5	1	0	5	1
52	551	7	10000	5	1	0	5	0
53	552	7	10000	5	1	0	5	0
55	553	7	10000	5	1	0	5	0
60	554	7	10000	5	1	0	5	0
64	555	7	10000	5	1	0	5	0
66	556	7	10000	5	1	0	5	0
66	557	7	10000	5	1	0	5	0
67	558	7	10000	5	1	0	5	0
66	559	7	10000	5	1	0	5	0
62	560	7	10000	5	1	0	5	0
62	561	7	10000	5	1	0	5	0
62	562	7	10000	5	1	0	5	0
60	563	7	10000	5	1	0	5	0
58	564	7	10000	5	1	0	5	0
56	565	7	10000	5	1	0	5	0
57	566	7	10000	5	1	0	5	0
57	567	7	10000	5	1	0	5	0
56	568	7	10000	5	1	0	5	0
54	569	7	10000	5	1	0	5	0
53	570	7	10000	5	1	0	5	0
50	571	7	10000	5	1	0	5	0
49	572	7	10000	5	1	0	5	0
47	573	7	10000	5	1	0	5	0
48	574	7	10000	5	1	0	5	0
50	575	7	10000	5	1	0	5	0
50	576	7	10000	5	1	0	5	0
50	577	7	10000	5	1	0	5	0
53	578	7	10000	5	1	0	5	0
60	579	7	10000	5	1	0	5	0
66	580	7	10000	5	1	0	5	0
65	581	7	10000	5	1	0	5	0
68	582	7	10000	5	1	0	5	0
75	583	7	10000	5	1	0	5	0
78	584	7	10000	5	1	0	5	0
82	585	7	10000	5	1	0	5	0
85	586	7	10000	5	1	0	5	0
83	587	7	10000	5	1	0	5	0
81	588	7	10000	5	1	0	5	0
82	589	7	10000	5	1	0	5	0
81	590	7	10000	5	1	0	5	0
80	591	7	10000	5	1	0	5	0
81	592	7	10000	5	1	0	5	0
82	593	7	10000	5	1	0	5	0
94	594	7	10000	5	1	0	5	0
102	595	7	10000	5	1	0	5	0
101	596	7	10000	5	1	0	5	0
98	597	7	10000	5	1	0	5	0
100	598	7	10000	5	1	0	5	0
105	599	7	10000	5	1	0	5	0
103	600	7	10000	5	1	0	5	0
100	601	7	10000	5	1	0	5	0
100	602	7	10000	5	1	0	5	0
100	603	7	10000	5	1	0	5	0
103	604	7	10000	5	1	0	5	0
116	605	7	10000	5	1	0	5	0
130	606	7	10000	5	1	0	5	0
136	607	7	10000	5	1	0	5	0
139	608	7	10000	5	1	0	5	0
149	609	7	10000	5	1	0	5	0
167	610	7	10000	5	1	0	5	0
206	611	7	10000	5	1	0	5	0
298	612	7	10000	5	1	0	5	0
378	613	7	10000	5	1	0	5	0
387	614	7	10000	5	1	0	5	0
418	615	7	10000	5	1	0	5	0
488	616	7	10000	5	1	0	5	0
505	617	7	10000	5	1	0	5	0
499	618	7	10000	5	1	0	5	0
490	619	7	10000	5	1	0	5	0
492	620	7	10000	5	1	0	5	0
483	621	7	10000	5	1	0	5	0
496	622	7	10000	5	1	0	5	0
508	623	7	10000	5	1	0	5	0
507	624	7	10000	5	1	0	5	0
500	625	7	10000	5	1	0	5	0
523	626	7	10000	5	1	0	5	0
562	627	7	10000	5	1	0	5	0
667	628	7	10000	5	1	0	5	0
728	629	7	10000	5	1	0	5	0
713	630	7	10000	5	1	0	5	0
683	631	7	10000	5	1	0	5	0
695	632	7	10000	5	1	0	5	0
723	633	7	10000	5	1	0	5	0
746	634	7	10000	5	1	0	5	0
737	635	7	10000	5	1	0	5	0
712	636	7	10000	5	1	0	5	0
682	637	7	10000	5	1	0	5	0
650	638	7	10000	5	1	0	5	0
626	639	7	10000	5	1	0	5	0
608	640	7	10000	5	1	0	5	0
591	641	7	10000	5	1	0	5	0
574	642	7	10000	5	1	0	5	0
558	643	7	10000	5	1	0	5	0
538	644	7	10000	5	1	0	5	0
517	645	7	10000	5	1	0	5	0
498	646	7	10000	5	1	0	5	0
479	647	7	10000	5	1	0	5	0
456	648	7	10000	5	1	0	5	0
435	649	7	10000	5	1	0	5	0
417	650	7	10000	5	1	0	5	0
398	651	7	10000	5	1	0	5	0
383	652	7	10000	5	1	0	5	0
369	653	7	10000	5	1	0	5	0
357	654	7	10000	5	1	0	5	0
344	655	7	10000	5	1	0	5	0
332	656	7	10000	5	1	0	5	0
320	657	7	10000	5	1	0	5	0
309	658	7	10000	5	1	0	5	0
300	659	7	10000	5	1	0	5	0
293	660	7	10000	5	1	0	5	0
290	661	7	10000	5	1	0	5	0
289	662	7	10000	5	1	0	5	0
292	663	7	10000	5	1	0	5	0
292	664	7	10000	5	1	0	5	0
292	665	7	10000	5	1	0	5	0
293	666	7	10000	5	1	0	5	0
293	667	7	10000	5	1	0	5	0
293	668	7	10000	5	1	0	5	0
294	669	7	10000	5	1	0	5	0
296	670	7	10000	5	1	0	5	0
296	671	7	10000	5	1	0	5	0
293	672	7	10000	5	1	0	5	0
288	673	7	10000	5	1	0	5	0
284	674	7	10000	5	1	0	5	0
277	675	7	10000	5	1	0	5	0
270	676	7	10000	5	1	0	5	0
260	677	7	10000	5	1	0	5	0
251	678	7	10000	5	1	0	5	0
242	679	7	10000	5	1	0	5	0
234	680	7	10000	5	1	0	5	0
226	681	7	10000	5	1	0	5	0
220	682	7	10000	5	1	0	5	0
215	683	7	10000	5	1	0	5	0
208	684	7	10000	5	1	0	5	0
202	685	7	10000	5	1	0	5	0
198	686	7	10000	5	1	0	5	0
195	687	7	10000	5	1	0	5	0
193	688	7	10000	5	1	0	5	0
191	689	7	10000	5	1	0	5	0
187	690	7	10000	5	1	0	5	0
181	691	7	10000	5	1	0	5	0
174	692	7	10000	5	1	0	5	0
166	693	7	10000	5	1	0	5	0
162	694	7	10000	5	1	0	5	0
157	695	7	10000	5	1	0	5	0
154	696	7	10000	5	1	0	5	0
151	697	7	10000	5	1	0	5	0
149	698	7	10000	5	1	0	5	0
148	699	7	10000	5	1	0	5	0
145	700	7	10000	5	1	0	5	0
143	701	7	10000	5	1	0	5	0
140	702	7	10000	5	1	0	5	0
135	703	7	10000	5	1	0	5	0
130	704	7	10000	5	1	0	5	0
126	705	7	10000	5	1	0	5	0
121	706	7	10000	5	1	0	5	0
117	707	7	10000	5	1	0	5	0
113	708	7	10000	5	1	0	5	0
109	709	7	10000	5	1	0	5	0
105	710	7	10000	5	1	0	5	0
104	711	7	10000	5	1	0	5	0
101	712	7	10000	5	1	0	5	0
98	713	7	10000	5	1	0	5	0
98	714	7	10000	5	1	0	5	0
96	715	7	10000	5	1	0	5	0
95	716	7	10000	5	1	0	5	0
97	717	7	10000	5	1	0	5	0
98	718	7	10000	5	1	0	5	0
100	719	7	10000	5	1	0	5	0
100	720	7	10000	5	1	0	5	0
100	721	7	10000	5	1	0	5	0
102	722	7	10000	5	1	0	5	0
102	723	7	10000	5	1	0	5	0
99	724	7	10000	5	1	0	5	0
96	725	7	10000	5	1	0	5	0
93	726	7	10000	5	1	0	5	0
92	727	7	10000	5	1	0	5	0
91	728	7	10000	5	1	0	5	0
90	729	7	10000	5	1	0	5	0
91	730	7	10000	5	1	0	5	0
91	731	7	10000	5	1	0	5	0
91	732	7	10000	5	1	0	5	0
91	733	7	10000	5	1	0	5	0
94	734	7	10000	5	1	0	5	0
94	735	7	10000	5	1	0	5	0
94	736	7	10000	5	1	0	5	0
94	737	7	10000	5	1	0	5	0
92	738	7	10000	5	1	0	5	0
93	739	7	10000	5	1	0	5	0
94	740	7	10000	5	1	0	5	0
95	741	7	10000	5	1	0	5	0
95	742	7	10000	5	1	0	5	0
94	743	7	10000	5	1	0	5	0
89	744	7	10000	5	1	0	5	0
88	745	7	10000	5	1	0	5	0
90	746	7	10000	5	1	0	5	0
87	747	7	10000	5	1	0	5	0
84	748	7	10000	5	1	0	5	0
81	749	7	10000	5	1	0	5	0
79	750	7	10000	5	1	0	5	0
77	751	7	10000	5	1	0	5	0
76	752	7	10000	5	1	0	5	0
75	753	7	10000	5	1	0	5	0
77	754	7	10000	5	1	0	5	0
79	755	7	10000	5	1	0	5	0
78	756	7	10000	5	1	0	5	0
77	757	7	10000	5	1	0	5	0
77	758	7	10000	5	1	0	5	0
73	759	7	10000	5	1	0	5	0
70	760	7	10000	5	1	0	5	0
68	761	7	10000	5	1	0	5	0
65	762	7	10000	5	1	0	5	0
64	763	7	10000	5	1	0	5	0
61	764	7	10000	5	1	0	5	0
59	765	7	10000	5	1	0	5	0
59	766	7	10000	5	1	0	5	0
57	767	7	10000	5	1	0	5	0
55	768	7	10000	5	1	0	5	0
54	769	7	10000	5	1	0	5	0
