value	EMG	Stimulus	EMG_sensitivity	Total_Trial_Nr	practise	acq	probe_nr	Startle_Probe
30	1	0	10000	1	1	0	1	0
30	2	0	10000	1	1	0	1	0
31	3	0	10000	1	1	0	1	0
30	4	0	10000	1	1	0	1	0
29	5	0	10000	1	1	0	1	0
29	6	0	10000	1	1	0	1	0
28	7	0	10000	1	1	0	1	0
27	8	0	10000	1	1	0	1	0
27	9	0	10000	1	1	0	1	0
25	10	0	10000	1	1	0	1	0
26	11	0	10000	1	1	0	1	0
27	12	0	10000	1	1	0	1	0
25	13	0	10000	1	1	0	1	0
25	14	0	10000	1	1	0	1	0
24	15	0	10000	1	1	0	1	0
24	16	0	10000	1	1	0	1	0
24	17	0	10000	1	1	0	1	0
25	18	0	10000	1	1	0	1	0
26	19	0	10000	1	1	0	1	0
27	20	0	10000	1	1	0	1	0
25	21	0	10000	1	1	0	1	0
24	22	0	10000	1	1	0	1	0
24	23	0	10000	1	1	0	1	0
24	24	0	10000	1	1	0	1	0
26	25	0	10000	1	1	0	1	0
25	26	0	10000	1	1	0	1	0
24	27	0	10000	1	1	0	1	0
24	28	0	10000	1	1	0	1	0
24	29	0	10000	1	1	0	1	0
23	30	0	10000	1	1	0	1	0
24	31	0	10000	1	1	0	1	0
25	32	0	10000	1	1	0	1	0
24	33	0	10000	1	1	0	1	0
24	34	0	10000	1	1	0	1	0
24	35	0	10000	1	1	0	1	0
22	36	0	10000	1	1	0	1	0
22	37	0	10000	1	1	0	1	0
25	38	0	10000	1	1	0	1	0
24	39	0	10000	1	1	0	1	0
25	40	0	10000	1	1	0	1	0
23	41	0	10000	1	1	0	1	0
22	42	0	10000	1	1	0	1	0
22	43	0	10000	1	1	0	1	0
23	44	0	10000	1	1	0	1	0
24	45	0	10000	1	1	0	1	0
23	46	0	10000	1	1	0	1	0
23	47	0	10000	1	1	0	1	0
24	48	0	10000	1	1	0	1	0
22	49	0	10000	1	1	0	1	0
23	50	0	10000	1	1	0	1	0
23	51	0	10000	1	1	0	1	0
23	52	0	10000	1	1	0	1	0
25	53	0	10000	1	1	0	1	0
26	54	0	10000	1	1	0	1	0
25	55	0	10000	1	1	0	1	0
26	56	0	10000	1	1	0	1	0
26	57	0	10000	1	1	0	1	0
27	58	0	10000	1	1	0	1	0
27	59	0	10000	1	1	0	1	0
29	60	0	10000	1	1	0	1	0
29	61	0	10000	1	1	0	1	0
30	62	0	10000	1	1	0	1	0
33	63	0	10000	1	1	0	1	0
38	64	0	10000	1	1	0	1	0
40	65	0	10000	1	1	0	1	0
39	66	0	10000	1	1	0	1	0
39	67	0	10000	1	1	0	1	0
37	68	0	10000	1	1	0	1	0
38	69	0	10000	1	1	0	1	0
38	70	0	10000	1	1	0	1	0
40	71	0	10000	1	1	0	1	0
39	72	0	10000	1	1	0	1	0
42	73	0	10000	1	1	0	1	0
45	74	0	10000	1	1	0	1	0
49	75	0	10000	1	1	0	1	0
54	76	0	10000	1	1	0	1	0
57	77	0	10000	1	1	0	1	0
60	78	0	10000	1	1	0	1	0
66	79	0	10000	1	1	0	1	0
73	80	0	10000	1	1	0	1	0
81	81	0	10000	1	1	0	1	0
89	82	0	10000	1	1	0	1	0
95	83	0	10000	1	1	0	1	0
100	84	0	10000	1	1	0	1	0
104	85	0	10000	1	1	0	1	0
106	86	0	10000	1	1	0	1	0
108	87	0	10000	1	1	0	1	0
111	88	0	10000	1	1	0	1	0
115	89	0	10000	1	1	0	1	0
117	90	0	10000	1	1	0	1	0
119	91	0	10000	1	1	0	1	0
118	92	0	10000	1	1	0	1	0
117	93	0	10000	1	1	0	1	0
116	94	0	10000	1	1	0	1	0
117	95	0	10000	1	1	0	1	0
118	96	0	10000	1	1	0	1	0
116	97	0	10000	1	1	0	1	0
113	98	0	10000	1	1	0	1	0
110	99	0	10000	1	1	0	1	0
106	100	0	10000	1	1	0	1	0
100	101	0	10000	1	1	0	1	0
97	102	0	10000	1	1	0	1	0
94	103	0	10000	1	1	0	1	0
92	104	0	10000	1	1	0	1	0
90	105	0	10000	1	1	0	1	0
89	106	0	10000	1	1	0	1	0
90	107	0	10000	1	1	0	1	0
92	108	0	10000	1	1	0	1	0
93	109	0	10000	1	1	0	1	0
95	110	0	10000	1	1	0	1	0
99	111	0	10000	1	1	0	1	0
102	112	0	10000	1	1	0	1	0
105	113	0	10000	1	1	0	1	0
110	114	0	10000	1	1	0	1	0
114	115	0	10000	1	1	0	1	0
117	116	0	10000	1	1	0	1	0
120	117	0	10000	1	1	0	1	0
123	118	0	10000	1	1	0	1	0
127	119	0	10000	1	1	0	1	0
130	120	0	10000	1	1	0	1	0
131	121	0	10000	1	1	0	1	0
133	122	0	10000	1	1	0	1	0
134	123	0	10000	1	1	0	1	0
135	124	0	10000	1	1	0	1	0
138	125	0	10000	1	1	0	1	0
137	126	0	10000	1	1	0	1	0
137	127	0	10000	1	1	0	1	0
137	128	0	10000	1	1	0	1	0
137	129	0	10000	1	1	0	1	0
136	130	0	10000	1	1	0	1	0
139	131	0	10000	1	1	0	1	0
139	132	0	10000	1	1	0	1	0
139	133	0	10000	1	1	0	1	0
137	134	0	10000	1	1	0	1	0
135	135	0	10000	1	1	0	1	0
133	136	0	10000	1	1	0	1	0
130	137	0	10000	1	1	0	1	0
128	138	0	10000	1	1	0	1	0
125	139	0	10000	1	1	0	1	0
124	140	0	10000	1	1	0	1	0
120	141	0	10000	1	1	0	1	0
113	142	0	10000	1	1	0	1	0
109	143	0	10000	1	1	0	1	0
108	144	0	10000	1	1	0	1	0
106	145	0	10000	1	1	0	1	0
104	146	0	10000	1	1	0	1	0
103	147	0	10000	1	1	0	1	0
100	148	0	10000	1	1	0	1	0
97	149	0	10000	1	1	0	1	0
96	150	0	10000	1	1	0	1	0
95	151	0	10000	1	1	0	1	0
92	152	0	10000	1	1	0	1	0
89	153	0	10000	1	1	0	1	0
87	154	0	10000	1	1	0	1	0
84	155	0	10000	1	1	0	1	0
81	156	0	10000	1	1	0	1	0
79	157	0	10000	1	1	0	1	0
76	158	0	10000	1	1	0	1	0
74	159	0	10000	1	1	0	1	0
73	160	0	10000	1	1	0	1	0
68	161	0	10000	1	1	0	1	0
65	162	0	10000	1	1	0	1	0
64	163	0	10000	1	1	0	1	0
63	164	0	10000	1	1	0	1	0
62	165	0	10000	1	1	0	1	0
62	166	0	10000	1	1	0	1	0
61	167	0	10000	1	1	0	1	0
59	168	0	10000	1	1	0	1	0
57	169	0	10000	1	1	0	1	0
54	170	0	10000	1	1	0	1	0
56	171	0	10000	1	1	0	1	0
55	172	0	10000	1	1	0	1	0
54	173	0	10000	1	1	0	1	0
53	174	0	10000	1	1	0	1	0
51	175	0	10000	1	1	0	1	0
49	176	0	10000	1	1	0	1	0
48	177	0	10000	1	1	0	1	0
47	178	0	10000	1	1	0	1	0
46	179	0	10000	1	1	0	1	0
44	180	0	10000	1	1	0	1	0
42	181	0	10000	1	1	0	1	0
40	182	0	10000	1	1	0	1	0
40	183	0	10000	1	1	0	1	0
39	184	0	10000	1	1	0	1	0
39	185	0	10000	1	1	0	1	0
39	186	0	10000	1	1	0	1	0
37	187	0	10000	1	1	0	1	0
36	188	0	10000	1	1	0	1	0
37	189	0	10000	1	1	0	1	0
36	190	0	10000	1	1	0	1	0
37	191	0	10000	1	1	0	1	0
36	192	0	10000	1	1	0	1	0
34	193	0	10000	1	1	0	1	0
33	194	0	10000	1	1	0	1	0
33	195	0	10000	1	1	0	1	0
32	196	0	10000	1	1	0	1	0
32	197	0	10000	1	1	0	1	0
31	198	0	10000	1	1	0	1	0
31	199	0	10000	1	1	0	1	0
31	200	0	10000	1	1	0	1	0
29	201	0	10000	1	1	0	1	0
27	202	0	10000	1	1	0	1	0
27	203	0	10000	1	1	0	1	0
27	204	0	10000	1	1	0	1	0
27	205	0	10000	1	1	0	1	0
26	206	0	10000	1	1	0	1	0
29	207	0	10000	1	1	0	1	0
29	208	0	10000	1	1	0	1	0
30	209	0	10000	1	1	0	1	0
30	210	0	10000	1	1	0	1	0
32	211	0	10000	1	1	0	1	0
32	212	0	10000	1	1	0	1	0
31	213	0	10000	1	1	0	1	0
30	214	0	10000	1	1	0	1	0
30	215	0	10000	1	1	0	1	0
30	216	0	10000	1	1	0	1	0
30	217	0	10000	1	1	0	1	0
32	218	0	10000	1	1	0	1	0
33	219	0	10000	1	1	0	1	0
33	220	0	10000	1	1	0	1	0
33	221	0	10000	1	1	0	1	0
31	222	0	10000	1	1	0	1	0
31	223	0	10000	1	1	0	1	0
31	224	0	10000	1	1	0	1	0
30	225	0	10000	1	1	0	1	0
29	226	0	10000	1	1	0	1	0
29	227	0	10000	1	1	0	1	0
29	228	0	10000	1	1	0	1	0
29	229	0	10000	1	1	0	1	0
28	230	0	10000	1	1	0	1	0
29	231	0	10000	1	1	0	1	0
29	232	0	10000	1	1	0	1	0
29	233	0	10000	1	1	0	1	0
28	234	0	10000	1	1	0	1	0
29	235	0	10000	1	1	0	1	0
31	236	0	10000	1	1	0	1	0
32	237	0	10000	1	1	0	1	0
31	238	0	10000	1	1	0	1	0
32	239	0	10000	1	1	0	1	0
31	240	0	10000	1	1	0	1	0
29	241	0	10000	1	1	0	1	0
28	242	0	10000	1	1	0	1	0
27	243	0	10000	1	1	0	1	0
30	244	0	10000	1	1	0	1	0
29	245	0	10000	1	1	0	1	0
29	246	0	10000	1	1	0	1	0
29	247	0	10000	1	1	0	1	0
30	248	0	10000	1	1	0	1	0
29	249	0	10000	1	1	0	1	0
29	250	0	10000	1	1	0	1	0
30	251	0	10000	1	1	0	1	0
30	252	0	10000	1	1	0	1	0
31	253	0	10000	1	1	0	1	0
30	254	0	10000	1	1	0	1	0
29	255	0	10000	1	1	0	1	0
29	256	0	10000	1	1	0	1	0
30	257	0	10000	1	1	0	1	0
29	258	0	10000	1	1	0	1	0
29	259	0	10000	1	1	0	1	0
32	260	0	10000	1	1	0	1	0
32	261	0	10000	1	1	0	1	0
32	262	0	10000	1	1	0	1	0
32	263	0	10000	1	1	0	1	0
32	264	0	10000	1	1	0	1	0
32	265	0	10000	1	1	0	1	0
31	266	0	10000	1	1	0	1	0
30	267	0	10000	1	1	0	1	0
29	268	0	10000	1	1	0	1	0
28	269	0	10000	1	1	0	1	0
29	270	0	10000	1	1	0	1	0
31	271	0	10000	1	1	0	1	0
31	272	0	10000	1	1	0	1	0
33	273	0	10000	1	1	0	1	0
34	274	0	10000	1	1	0	1	0
34	275	0	10000	1	1	0	1	0
34	276	0	10000	1	1	0	1	0
34	277	0	10000	1	1	0	1	0
34	278	0	10000	1	1	0	1	0
35	279	0	10000	1	1	0	1	0
35	280	0	10000	1	1	0	1	0
38	281	0	10000	1	1	0	1	0
37	282	0	10000	1	1	0	1	0
37	283	0	10000	1	1	0	1	0
39	284	0	10000	1	1	0	1	0
39	285	0	10000	1	1	0	1	0
41	286	0	10000	1	1	0	1	0
43	287	0	10000	1	1	0	1	0
43	288	0	10000	1	1	0	1	0
48	289	0	10000	1	1	0	1	0
51	290	0	10000	1	1	0	1	0
51	291	0	10000	1	1	0	1	0
50	292	0	10000	1	1	0	1	0
49	293	0	10000	1	1	0	1	0
49	294	0	10000	1	1	0	1	0
46	295	0	10000	1	1	0	1	0
45	296	0	10000	1	1	0	1	0
44	297	0	10000	1	1	0	1	0
43	298	0	10000	1	1	0	1	0
43	299	0	10000	1	1	0	1	0
44	300	0	10000	1	1	0	1	0
42	301	0	10000	1	1	0	1	0
40	302	0	10000	1	1	0	1	0
39	303	0	10000	1	1	0	1	0
38	304	0	10000	1	1	0	1	0
38	305	0	10000	1	1	0	1	0
37	306	0	10000	1	1	0	1	0
37	307	0	10000	1	1	0	1	0
37	308	0	10000	1	1	0	1	0
36	309	0	10000	1	1	0	1	0
36	310	0	10000	1	1	0	1	0
38	311	0	10000	1	1	0	1	0
41	312	0	10000	1	1	0	1	0
44	313	0	10000	1	1	0	1	0
44	314	0	10000	1	1	0	1	0
44	315	0	10000	1	1	0	1	0
43	316	0	10000	1	1	0	1	0
42	317	0	10000	1	1	0	1	0
43	318	0	10000	1	1	0	1	0
45	319	0	10000	1	1	0	1	0
47	320	0	10000	1	1	0	1	0
49	321	0	10000	1	1	0	1	0
53	322	0	10000	1	1	0	1	0
55	323	0	10000	1	1	0	1	0
56	324	0	10000	1	1	0	1	0
55	325	0	10000	1	1	0	1	0
55	326	0	10000	1	1	0	1	0
58	327	0	10000	1	1	0	1	0
64	328	0	10000	1	1	0	1	0
68	329	0	10000	1	1	0	1	0
71	330	0	10000	1	1	0	1	0
74	331	0	10000	1	1	0	1	0
73	332	0	10000	1	1	0	1	0
72	333	0	10000	1	1	0	1	0
70	334	0	10000	1	1	0	1	0
69	335	0	10000	1	1	0	1	0
70	336	0	10000	1	1	0	1	0
70	337	0	10000	1	1	0	1	0
71	338	0	10000	1	1	0	1	0
72	339	0	10000	1	1	0	1	0
72	340	0	10000	1	1	0	1	0
67	341	0	10000	1	1	0	1	0
64	342	0	10000	1	1	0	1	0
62	343	0	10000	1	1	0	1	0
59	344	0	10000	1	1	0	1	0
58	345	0	10000	1	1	0	1	0
56	346	0	10000	1	1	0	1	0
54	347	0	10000	1	1	0	1	0
52	348	0	10000	1	1	0	1	0
53	349	0	10000	1	1	0	1	0
53	350	0	10000	1	1	0	1	0
57	351	0	10000	1	1	0	1	0
59	352	0	10000	1	1	0	1	0
61	353	0	10000	1	1	0	1	0
63	354	0	10000	1	1	0	1	0
65	355	0	10000	1	1	0	1	0
68	356	0	10000	1	1	0	1	0
68	357	0	10000	1	1	0	1	0
68	358	0	10000	1	1	0	1	0
67	359	0	10000	1	1	0	1	0
67	360	0	10000	1	1	0	1	0
68	361	0	10000	1	1	0	1	0
69	362	0	10000	1	1	0	1	0
70	363	0	10000	1	1	0	1	0
71	364	0	10000	1	1	0	1	0
70	365	0	10000	1	1	0	1	0
70	366	0	10000	1	1	0	1	0
71	367	0	10000	1	1	0	1	0
71	368	0	10000	1	1	0	1	0
71	369	0	10000	1	1	0	1	0
69	370	0	10000	1	1	0	1	0
70	371	0	10000	1	1	0	1	0
69	372	0	10000	1	1	0	1	0
69	373	0	10000	1	1	0	1	0
67	374	0	10000	1	1	0	1	0
66	375	0	10000	1	1	0	1	0
63	376	0	10000	1	1	0	1	0
62	377	0	10000	1	1	0	1	0
61	378	0	10000	1	1	0	1	0
61	379	0	10000	1	1	0	1	0
61	380	0	10000	1	1	0	1	0
61	381	0	10000	1	1	0	1	0
60	382	0	10000	1	1	0	1	0
59	383	0	10000	1	1	0	1	0
58	384	0	10000	1	1	0	1	0
57	385	0	10000	1	1	0	1	0
57	386	0	10000	1	1	0	1	0
58	387	0	10000	1	1	0	1	0
56	388	0	10000	1	1	0	1	0
54	389	0	10000	1	1	0	1	0
52	390	0	10000	1	1	0	1	0
51	391	0	10000	1	1	0	1	0
50	392	0	10000	1	1	0	1	0
48	393	0	10000	1	1	0	1	0
46	394	0	10000	1	1	0	1	0
45	395	0	10000	1	1	0	1	0
43	396	0	10000	1	1	0	1	0
43	397	0	10000	1	1	0	1	0
42	398	0	10000	1	1	0	1	0
41	399	0	10000	1	1	0	1	0
41	400	0	10000	1	1	0	1	0
39	401	0	10000	1	1	0	1	0
37	402	0	10000	1	1	0	1	0
37	403	0	10000	1	1	0	1	0
37	404	0	10000	1	1	0	1	0
36	405	0	10000	1	1	0	1	0
36	406	0	10000	1	1	0	1	0
36	407	0	10000	1	1	0	1	0
34	408	0	10000	1	1	0	1	0
34	409	0	10000	1	1	0	1	0
33	410	0	10000	1	1	0	1	0
34	411	0	10000	1	1	0	1	0
34	412	0	10000	1	1	0	1	0
33	413	0	10000	1	1	0	1	0
32	414	0	10000	1	1	0	1	0
31	415	0	10000	1	1	0	1	0
31	416	0	10000	1	1	0	1	0
30	417	0	10000	1	1	0	1	0
29	418	0	10000	1	1	0	1	0
29	419	0	10000	1	1	0	1	0
29	420	0	10000	1	1	0	1	0
27	421	0	10000	1	1	0	1	0
26	422	0	10000	1	1	0	1	0
26	423	0	10000	1	1	0	1	0
25	424	0	10000	1	1	0	1	0
26	425	0	10000	1	1	0	1	0
26	426	0	10000	1	1	0	1	0
25	427	0	10000	1	1	0	1	0
24	428	0	10000	1	1	0	1	0
24	429	0	10000	1	1	0	1	0
25	430	0	10000	1	1	0	1	0
25	431	0	10000	1	1	0	1	0
26	432	0	10000	1	1	0	1	0
26	433	0	10000	1	1	0	1	0
26	434	0	10000	1	1	0	1	0
25	435	0	10000	1	1	0	1	0
27	436	0	10000	1	1	0	1	0
25	437	0	10000	1	1	0	1	0
25	438	0	10000	1	1	0	1	0
27	439	0	10000	1	1	0	1	0
25	440	0	10000	1	1	0	1	0
24	441	0	10000	1	1	0	1	0
24	442	0	10000	1	1	0	1	0
25	443	0	10000	1	1	0	1	0
24	444	0	10000	1	1	0	1	0
24	445	0	10000	1	1	0	1	0
23	446	0	10000	1	1	0	1	0
23	447	0	10000	1	1	0	1	0
23	448	0	10000	1	1	0	1	0
23	449	0	10000	1	1	0	1	0
24	450	0	10000	1	1	0	1	0
25	451	0	10000	1	1	0	1	0
26	452	0	10000	1	1	0	1	0
26	453	0	10000	1	1	0	1	0
25	454	0	10000	1	1	0	1	0
24	455	0	10000	1	1	0	1	0
23	456	0	10000	1	1	0	1	0
23	457	0	10000	1	1	0	1	0
23	458	0	10000	1	1	0	1	0
24	459	0	10000	1	1	0	1	0
25	460	0	10000	1	1	0	1	0
24	461	0	10000	1	1	0	1	0
22	462	0	10000	1	1	0	1	0
22	463	0	10000	1	1	0	1	0
22	464	0	10000	1	1	0	1	0
23	465	0	10000	1	1	0	1	0
22	466	0	10000	1	1	0	1	0
22	467	0	10000	1	1	0	1	0
23	468	0	10000	1	1	0	1	0
21	469	0	10000	1	1	0	1	0
21	470	0	10000	1	1	0	1	0
22	471	0	10000	1	1	0	1	0
23	472	0	10000	1	1	0	1	0
22	473	0	10000	1	1	0	1	0
22	474	0	10000	1	1	0	1	0
21	475	0	10000	1	1	0	1	0
21	476	0	10000	1	1	0	1	0
20	477	0	10000	1	1	0	1	0
21	478	0	10000	1	1	0	1	0
22	479	0	10000	1	1	0	1	0
22	480	0	10000	1	1	0	1	0
21	481	0	10000	1	1	0	1	0
20	482	0	10000	1	1	0	1	0
20	483	0	10000	1	1	0	1	0
21	484	0	10000	1	1	0	1	0
23	485	0	10000	1	1	0	1	0
24	486	0	10000	1	1	0	1	0
23	487	0	10000	1	1	0	1	0
23	488	0	10000	1	1	0	1	0
22	489	0	10000	1	1	0	1	0
21	490	0	10000	1	1	0	1	0
22	491	0	10000	1	1	0	1	0
23	492	0	10000	1	1	0	1	0
22	493	0	10000	1	1	0	1	0
22	494	0	10000	1	1	0	1	0
21	495	0	10000	1	1	0	1	0
21	496	0	10000	1	1	0	1	0
21	497	0	10000	1	1	0	1	0
20	498	0	10000	1	1	0	1	0
20	499	0	10000	1	1	0	1	0
21	500	0	10000	1	1	0	1	0
20	563	0	10000	1	1	0	1	1
20	564	0	10000	1	1	0	1	1
21	565	0	10000	1	1	0	1	1
21	566	0	10000	1	1	0	1	1
21	567	0	10000	1	1	0	1	1
21	568	0	10000	1	1	0	1	1
21	569	0	10000	1	1	0	1	1
21	570	0	10000	1	1	0	1	1
24	571	0	10000	1	1	0	1	1
26	572	0	10000	1	1	0	1	1
26	573	0	10000	1	1	0	1	1
27	574	0	10000	1	1	0	1	1
27	575	0	10000	1	1	0	1	1
26	576	0	10000	1	1	0	1	1
27	577	0	10000	1	1	0	1	1
26	578	0	10000	1	1	0	1	1
25	579	0	10000	1	1	0	1	1
25	580	0	10000	1	1	0	1	1
25	581	0	10000	1	1	0	1	1
26	582	0	10000	1	1	0	1	1
27	583	0	10000	1	1	0	1	1
30	584	0	10000	1	1	0	1	1
31	585	0	10000	1	1	0	1	1
31	586	0	10000	1	1	0	1	1
31	587	0	10000	1	1	0	1	1
31	588	0	10000	1	1	0	1	1
31	589	0	10000	1	1	0	1	1
31	590	0	10000	1	1	0	1	1
31	591	0	10000	1	1	0	1	1
29	592	0	10000	1	1	0	1	1
30	593	0	10000	1	1	0	1	1
33	594	0	10000	1	1	0	1	1
31	595	0	10000	1	1	0	1	1
30	596	0	10000	1	1	0	1	1
30	597	0	10000	1	1	0	1	1
29	598	0	10000	1	1	0	1	1
29	599	0	10000	1	1	0	1	1
30	600	0	10000	1	1	0	1	1
31	601	0	10000	1	1	0	1	1
31	602	0	10000	1	1	0	1	1
30	603	0	10000	1	1	0	1	1
28	604	0	10000	1	1	0	1	1
28	605	0	10000	1	1	0	1	1
29	606	0	10000	1	1	0	1	1
30	607	0	10000	1	1	0	1	1
30	608	0	10000	1	1	0	1	1
29	609	0	10000	1	1	0	1	1
28	610	0	10000	1	1	0	1	1
28	611	0	10000	1	1	0	1	1
28	612	0	10000	1	1	0	1	1
29	613	0	10000	1	1	0	1	1
32	614	0	10000	1	1	0	1	1
31	615	0	10000	1	1	0	1	1
31	616	0	10000	1	1	0	1	1
32	617	0	10000	1	1	0	1	1
31	618	0	10000	1	1	0	1	1
30	619	0	10000	1	1	0	1	1
31	620	0	10000	1	1	0	1	1
29	621	0	10000	1	1	0	1	1
30	622	0	10000	1	1	0	1	1
29	623	0	10000	1	1	0	1	1
27	624	0	10000	1	1	0	1	1
27	625	0	10000	1	1	0	1	1
27	626	0	10000	1	1	0	1	1
26	574	0	10000	1	1	0	1	0
27	575	0	10000	1	1	0	1	0
30	576	0	10000	1	1	0	1	0
29	577	0	10000	1	1	0	1	0
29	578	0	10000	1	1	0	1	0
29	579	0	10000	1	1	0	1	0
30	580	0	10000	1	1	0	1	0
30	581	0	10000	1	1	0	1	0
29	582	0	10000	1	1	0	1	0
28	583	0	10000	1	1	0	1	0
28	575	0	10000	1	1	0	1	0
28	576	0	10000	1	1	0	1	0
31	577	0	10000	1	1	0	1	0
31	578	0	10000	1	1	0	1	0
30	579	0	10000	1	1	0	1	0
32	580	0	10000	1	1	0	1	0
31	581	0	10000	1	1	0	1	0
31	582	0	10000	1	1	0	1	0
31	583	0	10000	1	1	0	1	0
30	584	0	10000	1	1	0	1	0
31	585	0	10000	1	1	0	1	0
31	586	0	10000	1	1	0	1	0
30	587	0	10000	1	1	0	1	0
29	588	0	10000	1	1	0	1	0
29	589	0	10000	1	1	0	1	0
29	590	0	10000	1	1	0	1	0
28	591	0	10000	1	1	0	1	0
28	592	0	10000	1	1	0	1	0
28	593	0	10000	1	1	0	1	0
27	594	0	10000	1	1	0	1	0
27	595	0	10000	1	1	0	1	0
27	596	0	10000	1	1	0	1	0
26	597	0	10000	1	1	0	1	0
26	598	0	10000	1	1	0	1	0
26	599	0	10000	1	1	0	1	0
26	600	0	10000	1	1	0	1	0
24	601	0	10000	1	1	0	1	0
23	602	0	10000	1	1	0	1	0
22	603	0	10000	1	1	0	1	0
22	604	0	10000	1	1	0	1	0
23	605	0	10000	1	1	0	1	0
24	606	0	10000	1	1	0	1	0
24	607	0	10000	1	1	0	1	0
25	608	0	10000	1	1	0	1	0
24	609	0	10000	1	1	0	1	0
24	610	0	10000	1	1	0	1	0
24	611	0	10000	1	1	0	1	0
26	612	0	10000	1	1	0	1	0
25	613	0	10000	1	1	0	1	0
25	614	0	10000	1	1	0	1	0
24	615	0	10000	1	1	0	1	0
25	616	0	10000	1	1	0	1	0
24	617	0	10000	1	1	0	1	0
23	618	0	10000	1	1	0	1	0
24	619	0	10000	1	1	0	1	0
24	620	0	10000	1	1	0	1	0
22	621	0	10000	1	1	0	1	0
22	622	0	10000	1	1	0	1	0
22	623	0	10000	1	1	0	1	0
23	624	0	10000	1	1	0	1	0
24	625	0	10000	1	1	0	1	0
24	626	0	10000	1	1	0	1	0
25	627	0	10000	1	1	0	1	0
26	628	0	10000	1	1	0	1	0
25	629	0	10000	1	1	0	1	0
24	630	0	10000	1	1	0	1	0
24	631	0	10000	1	1	0	1	0
24	632	0	10000	1	1	0	1	0
23	633	0	10000	1	1	0	1	0
23	634	0	10000	1	1	0	1	0
23	635	0	10000	1	1	0	1	0
23	636	0	10000	1	1	0	1	0
24	637	0	10000	1	1	0	1	0
23	638	0	10000	1	1	0	1	0
23	639	0	10000	1	1	0	1	0
23	640	0	10000	1	1	0	1	0
22	641	0	10000	1	1	0	1	0
20	642	0	10000	1	1	0	1	0
22	643	0	10000	1	1	0	1	0
23	644	0	10000	1	1	0	1	0
24	645	0	10000	1	1	0	1	0
24	646	0	10000	1	1	0	1	0
25	647	0	10000	1	1	0	1	0
26	648	0	10000	1	1	0	1	0
25	649	0	10000	1	1	0	1	0
27	650	0	10000	1	1	0	1	0
33	651	0	10000	1	1	0	1	0
38	652	0	10000	1	1	0	1	0
37	653	0	10000	1	1	0	1	0
37	654	0	10000	1	1	0	1	0
38	655	0	10000	1	1	0	1	0
43	656	0	10000	1	1	0	1	0
45	657	0	10000	1	1	0	1	0
43	658	0	10000	1	1	0	1	0
42	659	0	10000	1	1	0	1	0
42	660	0	10000	1	1	0	1	0
39	661	0	10000	1	1	0	1	0
44	662	0	10000	1	1	0	1	0
59	663	0	10000	1	1	0	1	0
79	664	0	10000	1	1	0	1	0
82	665	0	10000	1	1	0	1	0
92	666	0	10000	1	1	0	1	0
109	667	0	10000	1	1	0	1	0
115	668	0	10000	1	1	0	1	0
113	669	0	10000	1	1	0	1	0
136	670	0	10000	1	1	0	1	0
142	671	0	10000	1	1	0	1	0
147	672	0	10000	1	1	0	1	0
155	673	0	10000	1	1	0	1	0
155	674	0	10000	1	1	0	1	0
170	675	0	10000	1	1	0	1	0
186	676	0	10000	1	1	0	1	0
191	677	0	10000	1	1	0	1	0
186	678	0	10000	1	1	0	1	0
182	679	0	10000	1	1	0	1	0
201	680	0	10000	1	1	0	1	0
206	681	0	10000	1	1	0	1	0
249	682	0	10000	1	1	0	1	0
286	683	0	10000	1	1	0	1	0
297	684	0	10000	1	1	0	1	0
290	685	0	10000	1	1	0	1	0
286	686	0	10000	1	1	0	1	0
292	687	0	10000	1	1	0	1	0
302	688	0	10000	1	1	0	1	0
330	689	0	10000	1	1	0	1	0
340	690	0	10000	1	1	0	1	0
360	691	0	10000	1	1	0	1	0
369	692	0	10000	1	1	0	1	0
361	693	0	10000	1	1	0	1	0
351	694	0	10000	1	1	0	1	0
339	695	0	10000	1	1	0	1	0
326	696	0	10000	1	1	0	1	0
314	697	0	10000	1	1	0	1	0
301	698	0	10000	1	1	0	1	0
288	699	0	10000	1	1	0	1	0
277	700	0	10000	1	1	0	1	0
264	701	0	10000	1	1	0	1	0
252	702	0	10000	1	1	0	1	0
241	703	0	10000	1	1	0	1	0
231	704	0	10000	1	1	0	1	0
222	705	0	10000	1	1	0	1	0
214	706	0	10000	1	1	0	1	0
210	707	0	10000	1	1	0	1	0
206	708	0	10000	1	1	0	1	0
201	709	0	10000	1	1	0	1	0
193	710	0	10000	1	1	0	1	0
187	711	0	10000	1	1	0	1	0
186	712	0	10000	1	1	0	1	0
181	713	0	10000	1	1	0	1	0
176	714	0	10000	1	1	0	1	0
174	715	0	10000	1	1	0	1	0
173	716	0	10000	1	1	0	1	0
171	717	0	10000	1	1	0	1	0
169	718	0	10000	1	1	0	1	0
164	719	0	10000	1	1	0	1	0
165	720	0	10000	1	1	0	1	0
173	721	0	10000	1	1	0	1	0
182	722	0	10000	1	1	0	1	0
192	723	0	10000	1	1	0	1	0
201	724	0	10000	1	1	0	1	0
205	725	0	10000	1	1	0	1	0
204	726	0	10000	1	1	0	1	0
197	727	0	10000	1	1	0	1	0
189	728	0	10000	1	1	0	1	0
181	729	0	10000	1	1	0	1	0
180	730	0	10000	1	1	0	1	0
181	731	0	10000	1	1	0	1	0
192	732	0	10000	1	1	0	1	0
211	733	0	10000	1	1	0	1	0
218	734	0	10000	1	1	0	1	0
216	735	0	10000	1	1	0	1	0
227	736	0	10000	1	1	0	1	0
227	737	0	10000	1	1	0	1	0
278	738	0	10000	1	1	0	1	0
333	739	0	10000	1	1	0	1	0
362	740	0	10000	1	1	0	1	0
416	741	0	10000	1	1	0	1	0
414	742	0	10000	1	1	0	1	0
438	743	0	10000	1	1	0	1	0
444	744	0	10000	1	1	0	1	0
434	745	0	10000	1	1	0	1	0
432	746	0	10000	1	1	0	1	0
428	747	0	10000	1	1	0	1	0
412	748	0	10000	1	1	0	1	0
394	749	0	10000	1	1	0	1	0
382	750	0	10000	1	1	0	1	0
388	751	0	10000	1	1	0	1	0
384	752	0	10000	1	1	0	1	0
423	753	0	10000	1	1	0	1	0
483	754	0	10000	1	1	0	1	0
513	755	0	10000	1	1	0	1	0
509	756	0	10000	1	1	0	1	0
510	757	0	10000	1	1	0	1	0
520	758	0	10000	1	1	0	1	0
518	759	0	10000	1	1	0	1	0
522	760	0	10000	1	1	0	1	0
521	761	0	10000	1	1	0	1	0
506	762	0	10000	1	1	0	1	0
487	763	0	10000	1	1	0	1	0
476	764	0	10000	1	1	0	1	0
470	765	0	10000	1	1	0	1	0
469	766	0	10000	1	1	0	1	0
470	767	0	10000	1	1	0	1	0
464	768	0	10000	1	1	0	1	0
457	769	0	10000	1	1	0	1	0
449	770	0	10000	1	1	0	1	0
441	771	0	10000	1	1	0	1	0
434	772	0	10000	1	1	0	1	0
421	773	0	10000	1	1	0	1	0
409	774	0	10000	1	1	0	1	0
401	775	0	10000	1	1	0	1	0
392	776	0	10000	1	1	0	1	0
378	777	0	10000	1	1	0	1	0
363	778	0	10000	1	1	0	1	0
347	779	0	10000	1	1	0	1	0
334	780	0	10000	1	1	0	1	0
321	781	0	10000	1	1	0	1	0
305	782	0	10000	1	1	0	1	0
292	783	0	10000	1	1	0	1	0
281	784	0	10000	1	1	0	1	0
271	785	0	10000	1	1	0	1	0
259	786	0	10000	1	1	0	1	0
249	787	0	10000	1	1	0	1	0
237	788	0	10000	1	1	0	1	0
229	789	0	10000	1	1	0	1	0
224	790	0	10000	1	1	0	1	0
222	791	0	10000	1	1	0	1	0
218	792	0	10000	1	1	0	1	0
213	793	0	10000	1	1	0	1	0
209	794	0	10000	1	1	0	1	0
203	795	0	10000	1	1	0	1	0
197	796	0	10000	1	1	0	1	0
193	797	0	10000	1	1	0	1	0
189	798	0	10000	1	1	0	1	0
186	799	0	10000	1	1	0	1	0
185	800	0	10000	1	1	0	1	0
182	801	0	10000	1	1	0	1	0
179	802	0	10000	1	1	0	1	0
177	803	0	10000	1	1	0	1	0
176	804	0	10000	1	1	0	1	0
176	805	0	10000	1	1	0	1	0
172	806	0	10000	1	1	0	1	0
170	807	0	10000	1	1	0	1	0
172	808	0	10000	1	1	0	1	0
171	809	0	10000	1	1	0	1	0
170	810	0	10000	1	1	0	1	0
170	811	0	10000	1	1	0	1	0
167	812	0	10000	1	1	0	1	0
165	813	0	10000	1	1	0	1	0
162	814	0	10000	1	1	0	1	0
158	815	0	10000	1	1	0	1	0
153	816	0	10000	1	1	0	1	0
148	817	0	10000	1	1	0	1	0
142	818	0	10000	1	1	0	1	0
139	819	0	10000	1	1	0	1	0
136	820	0	10000	1	1	0	1	0
131	821	0	10000	1	1	0	1	0
125	822	0	10000	1	1	0	1	0
123	823	0	10000	1	1	0	1	0
123	824	0	10000	1	1	0	1	0
121	825	0	10000	1	1	0	1	0
119	826	0	10000	1	1	0	1	0
117	827	0	10000	1	1	0	1	0
112	828	0	10000	1	1	0	1	0
107	829	0	10000	1	1	0	1	0
105	830	0	10000	1	1	0	1	0
102	831	0	10000	1	1	0	1	0
102	832	0	10000	1	1	0	1	0
100	833	0	10000	1	1	0	1	0
100	834	0	10000	1	1	0	1	0
99	835	0	10000	1	1	0	1	0
97	836	0	10000	1	1	0	1	0
94	837	0	10000	1	1	0	1	0
90	838	0	10000	1	1	0	1	0
89	839	0	10000	1	1	0	1	0
90	840	0	10000	1	1	0	1	0
91	841	0	10000	1	1	0	1	0
89	842	0	10000	1	1	0	1	0
94	843	0	10000	1	1	0	1	0
93	844	0	10000	1	1	0	1	0
98	845	0	10000	1	1	0	1	0
108	846	0	10000	1	1	0	1	0
116	847	0	10000	1	1	0	1	0
121	848	0	10000	1	1	0	1	0
121	849	0	10000	1	1	0	1	0
118	850	0	10000	1	1	0	1	0
116	851	0	10000	1	1	0	1	0
114	852	0	10000	1	1	0	1	0
110	853	0	10000	1	1	0	1	0
108	854	0	10000	1	1	0	1	0
104	855	0	10000	1	1	0	1	0
102	856	0	10000	1	1	0	1	0
100	857	0	10000	1	1	0	1	0
101	858	0	10000	1	1	0	1	0
104	859	0	10000	1	1	0	1	0
107	860	0	10000	1	1	0	1	0
106	861	0	10000	1	1	0	1	0
103	862	0	10000	1	1	0	1	0
100	863	0	10000	1	1	0	1	0
96	864	0	10000	1	1	0	1	0
93	865	0	10000	1	1	0	1	0
95	866	0	10000	1	1	0	1	0
102	867	0	10000	1	1	0	1	0
106	868	0	10000	1	1	0	1	0
111	869	0	10000	1	1	0	1	0
113	870	0	10000	1	1	0	1	0
113	871	0	10000	1	1	0	1	0
113	872	0	10000	1	1	0	1	0
109	873	0	10000	1	1	0	1	0
105	874	0	10000	1	1	0	1	0
105	875	0	10000	1	1	0	1	0
106	876	0	10000	1	1	0	1	0
105	877	0	10000	1	1	0	1	0
104	878	0	10000	1	1	0	1	0
109	879	0	10000	1	1	0	1	0
110	880	0	10000	1	1	0	1	0
125	881	0	10000	1	1	0	1	0
152	882	0	10000	1	1	0	1	0
154	883	0	10000	1	1	0	1	0
181	884	0	10000	1	1	0	1	0
206	885	0	10000	1	1	0	1	0
206	886	0	10000	1	1	0	1	0
201	887	0	10000	1	1	0	1	0
200	888	0	10000	1	1	0	1	0
192	889	0	10000	1	1	0	1	0
191	890	0	10000	1	1	0	1	0
186	891	0	10000	1	1	0	1	0
181	892	0	10000	1	1	0	1	0
176	893	0	10000	1	1	0	1	0
171	894	0	10000	1	1	0	1	0
166	895	0	10000	1	1	0	1	0
168	896	0	10000	1	1	0	1	0
224	897	0	10000	1	1	0	1	0
282	898	0	10000	1	1	0	1	0
313	899	0	10000	1	1	0	1	0
383	900	0	10000	1	1	0	1	0
401	901	0	10000	1	1	0	1	0
389	902	0	10000	1	1	0	1	0
373	903	0	10000	1	1	0	1	0
359	904	0	10000	1	1	0	1	0
347	905	0	10000	1	1	0	1	0
336	906	0	10000	1	1	0	1	0
326	907	0	10000	1	1	0	1	0
314	908	0	10000	1	1	0	1	0
302	909	0	10000	1	1	0	1	0
292	910	0	10000	1	1	0	1	0
282	911	0	10000	1	1	0	1	0
274	912	0	10000	1	1	0	1	0
264	913	0	10000	1	1	0	1	0
251	914	0	10000	1	1	0	1	0
240	915	0	10000	1	1	0	1	0
229	916	0	10000	1	1	0	1	0
219	917	0	10000	1	1	0	1	0
209	918	0	10000	1	1	0	1	0
201	919	0	10000	1	1	0	1	0
198	920	0	10000	1	1	0	1	0
190	921	0	10000	1	1	0	1	0
189	922	0	10000	1	1	0	1	0
198	923	0	10000	1	1	0	1	0
194	924	0	10000	1	1	0	1	0
198	925	0	10000	1	1	0	1	0
203	926	0	10000	1	1	0	1	0
209	927	0	10000	1	1	0	1	0
208	928	0	10000	1	1	0	1	0
201	929	0	10000	1	1	0	1	0
193	930	0	10000	1	1	0	1	0
186	931	0	10000	1	1	0	1	0
182	932	0	10000	1	1	0	1	0
176	933	0	10000	1	1	0	1	0
168	934	0	10000	1	1	0	1	0
161	935	0	10000	1	1	0	1	0
155	936	0	10000	1	1	0	1	0
149	937	0	10000	1	1	0	1	0
143	938	0	10000	1	1	0	1	0
140	939	0	10000	1	1	0	1	0
136	940	0	10000	1	1	0	1	0
131	941	0	10000	1	1	0	1	0
125	942	0	10000	1	1	0	1	0
120	943	0	10000	1	1	0	1	0
116	944	0	10000	1	1	0	1	0
112	945	0	10000	1	1	0	1	0
108	946	0	10000	1	1	0	1	0
104	947	0	10000	1	1	0	1	0
100	948	0	10000	1	1	0	1	0
95	949	0	10000	1	1	0	1	0
91	950	0	10000	1	1	0	1	0
87	951	0	10000	1	1	0	1	0
86	952	0	10000	1	1	0	1	0
83	953	0	10000	1	1	0	1	0
80	954	0	10000	1	1	0	1	0
77	955	0	10000	1	1	0	1	0
75	956	0	10000	1	1	0	1	0
72	957	0	10000	1	1	0	1	0
69	958	0	10000	1	1	0	1	0
68	959	0	10000	1	1	0	1	0
67	960	0	10000	1	1	0	1	0
66	961	0	10000	1	1	0	1	0
63	962	0	10000	1	1	0	1	0
61	963	0	10000	1	1	0	1	0
60	964	0	10000	1	1	0	1	0
59	965	0	10000	1	1	0	1	0
56	966	0	10000	1	1	0	1	0
55	967	0	10000	1	1	0	1	0
60	968	0	10000	1	1	0	1	0
61	969	0	10000	1	1	0	1	0
59	970	0	10000	1	1	0	1	0
58	971	0	10000	1	1	0	1	0
67	972	0	10000	1	1	0	1	0
70	973	0	10000	1	1	0	1	0
70	974	0	10000	1	1	0	1	0
75	975	0	10000	1	1	0	1	0
80	976	0	10000	1	1	0	1	0
80	977	0	10000	1	1	0	1	0
78	978	0	10000	1	1	0	1	0
76	979	0	10000	1	1	0	1	0
73	980	0	10000	1	1	0	1	0
70	981	0	10000	1	1	0	1	0
67	982	0	10000	1	1	0	1	0
67	983	0	10000	1	1	0	1	0
65	984	0	10000	1	1	0	1	0
63	985	0	10000	1	1	0	1	0
64	986	0	10000	1	1	0	1	0
64	987	0	10000	1	1	0	1	0
63	988	0	10000	1	1	0	1	0
61	989	0	10000	1	1	0	1	0
58	990	0	10000	1	1	0	1	0
56	991	0	10000	1	1	0	1	0
55	992	0	10000	1	1	0	1	0
53	993	0	10000	1	1	0	1	0
52	994	0	10000	1	1	0	1	0
55	995	0	10000	1	1	0	1	0
56	996	0	10000	1	1	0	1	0
58	997	0	10000	1	1	0	1	0
58	998	0	10000	1	1	0	1	0
56	999	0	10000	1	1	0	1	0
55	1000	0	10000	1	1	0	1	0
22	2	10	10000	2	1	0	2	0
24	3	10	10000	2	1	0	2	0
23	4	10	10000	2	1	0	2	0
23	5	10	10000	2	1	0	2	0
22	6	10	10000	2	1	0	2	0
22	7	10	10000	2	1	0	2	0
21	8	10	10000	2	1	0	2	0
21	9	10	10000	2	1	0	2	0
20	10	10	10000	2	1	0	2	0
22	11	10	10000	2	1	0	2	0
21	12	10	10000	2	1	0	2	0
20	13	10	10000	2	1	0	2	0
20	14	10	10000	2	1	0	2	0
19	15	10	10000	2	1	0	2	0
20	16	10	10000	2	1	0	2	0
20	17	10	10000	2	1	0	2	0
20	18	10	10000	2	1	0	2	0
21	19	10	10000	2	1	0	2	0
20	20	10	10000	2	1	0	2	0
19	21	10	10000	2	1	0	2	0
22	22	10	10000	2	1	0	2	0
22	23	10	10000	2	1	0	2	0
22	24	10	10000	2	1	0	2	0
23	25	10	10000	2	1	0	2	0
21	26	10	10000	2	1	0	2	0
21	27	10	10000	2	1	0	2	0
21	28	10	10000	2	1	0	2	0
21	29	10	10000	2	1	0	2	0
21	30	10	10000	2	1	0	2	0
22	31	10	10000	2	1	0	2	0
22	32	10	10000	2	1	0	2	0
21	33	10	10000	2	1	0	2	0
20	34	10	10000	2	1	0	2	0
20	35	10	10000	2	1	0	2	0
20	36	10	10000	2	1	0	2	0
19	37	10	10000	2	1	0	2	0
19	38	10	10000	2	1	0	2	0
19	39	10	10000	2	1	0	2	0
19	40	10	10000	2	1	0	2	0
17	41	10	10000	2	1	0	2	0
18	42	10	10000	2	1	0	2	0
18	43	10	10000	2	1	0	2	0
19	44	10	10000	2	1	0	2	0
19	45	10	10000	2	1	0	2	0
18	46	10	10000	2	1	0	2	0
18	47	10	10000	2	1	0	2	0
18	48	10	10000	2	1	0	2	0
17	49	10	10000	2	1	0	2	0
17	50	10	10000	2	1	0	2	0
20	51	10	10000	2	1	0	2	0
20	52	10	10000	2	1	0	2	0
20	53	10	10000	2	1	0	2	0
20	54	10	10000	2	1	0	2	0
21	55	10	10000	2	1	0	2	0
20	56	10	10000	2	1	0	2	0
20	57	10	10000	2	1	0	2	0
20	58	10	10000	2	1	0	2	0
20	59	10	10000	2	1	0	2	0
19	60	10	10000	2	1	0	2	0
18	61	10	10000	2	1	0	2	0
17	62	10	10000	2	1	0	2	0
17	63	10	10000	2	1	0	2	0
17	64	10	10000	2	1	0	2	0
17	65	10	10000	2	1	0	2	0
17	66	10	10000	2	1	0	2	0
17	67	10	10000	2	1	0	2	0
16	68	10	10000	2	1	0	2	0
17	69	10	10000	2	1	0	2	0
18	70	10	10000	2	1	0	2	0
21	71	10	10000	2	1	0	2	0
21	72	10	10000	2	1	0	2	0
20	73	10	10000	2	1	0	2	0
19	74	10	10000	2	1	0	2	0
19	75	10	10000	2	1	0	2	0
19	76	10	10000	2	1	0	2	0
19	77	10	10000	2	1	0	2	0
19	78	10	10000	2	1	0	2	0
20	79	10	10000	2	1	0	2	0
21	80	10	10000	2	1	0	2	0
18	81	10	10000	2	1	0	2	0
19	82	10	10000	2	1	0	2	0
20	83	10	10000	2	1	0	2	0
20	84	10	10000	2	1	0	2	0
20	85	10	10000	2	1	0	2	0
20	86	10	10000	2	1	0	2	0
19	87	10	10000	2	1	0	2	0
19	88	10	10000	2	1	0	2	0
18	89	10	10000	2	1	0	2	0
18	90	10	10000	2	1	0	2	0
19	91	10	10000	2	1	0	2	0
19	92	10	10000	2	1	0	2	0
19	93	10	10000	2	1	0	2	0
18	94	10	10000	2	1	0	2	0
18	95	10	10000	2	1	0	2	0
17	96	10	10000	2	1	0	2	0
16	97	10	10000	2	1	0	2	0
18	98	10	10000	2	1	0	2	0
19	99	10	10000	2	1	0	2	0
20	100	10	10000	2	1	0	2	0
19	101	10	10000	2	1	0	2	0
19	102	10	10000	2	1	0	2	0
18	103	10	10000	2	1	0	2	0
19	104	10	10000	2	1	0	2	0
19	105	10	10000	2	1	0	2	0
20	106	10	10000	2	1	0	2	0
20	107	10	10000	2	1	0	2	0
20	108	10	10000	2	1	0	2	0
20	109	10	10000	2	1	0	2	0
20	110	10	10000	2	1	0	2	0
22	111	10	10000	2	1	0	2	0
22	112	10	10000	2	1	0	2	0
21	113	10	10000	2	1	0	2	0
20	114	10	10000	2	1	0	2	0
20	115	10	10000	2	1	0	2	0
20	116	10	10000	2	1	0	2	0
19	117	10	10000	2	1	0	2	0
19	118	10	10000	2	1	0	2	0
19	119	10	10000	2	1	0	2	0
19	120	10	10000	2	1	0	2	0
18	121	10	10000	2	1	0	2	0
17	122	10	10000	2	1	0	2	0
18	123	10	10000	2	1	0	2	0
18	124	10	10000	2	1	0	2	0
19	125	10	10000	2	1	0	2	0
19	126	10	10000	2	1	0	2	0
19	127	10	10000	2	1	0	2	0
19	128	10	10000	2	1	0	2	0
18	129	10	10000	2	1	0	2	0
17	130	10	10000	2	1	0	2	0
19	131	10	10000	2	1	0	2	0
19	132	10	10000	2	1	0	2	0
18	133	10	10000	2	1	0	2	0
18	134	10	10000	2	1	0	2	0
18	135	10	10000	2	1	0	2	0
17	136	10	10000	2	1	0	2	0
16	137	10	10000	2	1	0	2	0
17	138	10	10000	2	1	0	2	0
17	139	10	10000	2	1	0	2	0
18	140	10	10000	2	1	0	2	0
16	141	10	10000	2	1	0	2	0
15	142	10	10000	2	1	0	2	0
16	143	10	10000	2	1	0	2	0
16	144	10	10000	2	1	0	2	0
17	145	10	10000	2	1	0	2	0
17	146	10	10000	2	1	0	2	0
17	147	10	10000	2	1	0	2	0
17	148	10	10000	2	1	0	2	0
16	149	10	10000	2	1	0	2	0
15	150	10	10000	2	1	0	2	0
17	151	10	10000	2	1	0	2	0
16	152	10	10000	2	1	0	2	0
16	153	10	10000	2	1	0	2	0
16	154	10	10000	2	1	0	2	0
15	155	10	10000	2	1	0	2	0
16	156	10	10000	2	1	0	2	0
17	157	10	10000	2	1	0	2	0
18	158	10	10000	2	1	0	2	0
19	159	10	10000	2	1	0	2	0
19	160	10	10000	2	1	0	2	0
17	161	10	10000	2	1	0	2	0
19	162	10	10000	2	1	0	2	0
18	163	10	10000	2	1	0	2	0
19	164	10	10000	2	1	0	2	0
18	165	10	10000	2	1	0	2	0
18	166	10	10000	2	1	0	2	0
19	167	10	10000	2	1	0	2	0
17	168	10	10000	2	1	0	2	0
16	169	10	10000	2	1	0	2	0
17	170	10	10000	2	1	0	2	0
17	171	10	10000	2	1	0	2	0
18	172	10	10000	2	1	0	2	0
17	173	10	10000	2	1	0	2	0
16	174	10	10000	2	1	0	2	0
16	175	10	10000	2	1	0	2	0
16	176	10	10000	2	1	0	2	0
16	177	10	10000	2	1	0	2	0
17	178	10	10000	2	1	0	2	0
16	179	10	10000	2	1	0	2	0
16	180	10	10000	2	1	0	2	0
14	181	10	10000	2	1	0	2	0
15	182	10	10000	2	1	0	2	0
15	183	10	10000	2	1	0	2	0
15	184	10	10000	2	1	0	2	0
16	185	10	10000	2	1	0	2	0
16	186	10	10000	2	1	0	2	0
17	187	10	10000	2	1	0	2	0
16	188	10	10000	2	1	0	2	0
16	189	10	10000	2	1	0	2	0
15	190	10	10000	2	1	0	2	0
18	191	10	10000	2	1	0	2	0
18	192	10	10000	2	1	0	2	0
18	193	10	10000	2	1	0	2	0
17	194	10	10000	2	1	0	2	0
17	195	10	10000	2	1	0	2	0
17	196	10	10000	2	1	0	2	0
16	197	10	10000	2	1	0	2	0
17	198	10	10000	2	1	0	2	0
18	199	10	10000	2	1	0	2	0
17	200	10	10000	2	1	0	2	0
15	201	10	10000	2	1	0	2	0
17	202	10	10000	2	1	0	2	0
18	203	10	10000	2	1	0	2	0
19	204	10	10000	2	1	0	2	0
20	205	10	10000	2	1	0	2	0
19	206	10	10000	2	1	0	2	0
19	207	10	10000	2	1	0	2	0
18	208	10	10000	2	1	0	2	0
18	209	10	10000	2	1	0	2	0
17	210	10	10000	2	1	0	2	0
19	211	10	10000	2	1	0	2	0
18	212	10	10000	2	1	0	2	0
20	213	10	10000	2	1	0	2	0
20	214	10	10000	2	1	0	2	0
19	215	10	10000	2	1	0	2	0
19	216	10	10000	2	1	0	2	0
18	217	10	10000	2	1	0	2	0
18	218	10	10000	2	1	0	2	0
18	219	10	10000	2	1	0	2	0
18	220	10	10000	2	1	0	2	0
17	221	10	10000	2	1	0	2	0
17	222	10	10000	2	1	0	2	0
18	223	10	10000	2	1	0	2	0
18	224	10	10000	2	1	0	2	0
18	225	10	10000	2	1	0	2	0
17	226	10	10000	2	1	0	2	0
18	227	10	10000	2	1	0	2	0
18	228	10	10000	2	1	0	2	0
17	229	10	10000	2	1	0	2	0
16	230	10	10000	2	1	0	2	0
19	231	10	10000	2	1	0	2	0
19	232	10	10000	2	1	0	2	0
20	233	10	10000	2	1	0	2	0
20	234	10	10000	2	1	0	2	0
20	235	10	10000	2	1	0	2	0
20	236	10	10000	2	1	0	2	0
20	237	10	10000	2	1	0	2	0
20	238	10	10000	2	1	0	2	0
20	239	10	10000	2	1	0	2	0
20	240	10	10000	2	1	0	2	0
18	241	10	10000	2	1	0	2	0
17	242	10	10000	2	1	0	2	0
18	243	10	10000	2	1	0	2	0
18	244	10	10000	2	1	0	2	0
18	245	10	10000	2	1	0	2	0
18	246	10	10000	2	1	0	2	0
19	247	10	10000	2	1	0	2	0
18	248	10	10000	2	1	0	2	0
18	249	10	10000	2	1	0	2	0
17	250	10	10000	2	1	0	2	0
19	251	10	10000	2	1	0	2	0
19	252	10	10000	2	1	0	2	0
18	253	10	10000	2	1	0	2	0
18	254	10	10000	2	1	0	2	0
17	255	10	10000	2	1	0	2	0
17	256	10	10000	2	1	0	2	0
17	257	10	10000	2	1	0	2	0
18	258	10	10000	2	1	0	2	0
19	259	10	10000	2	1	0	2	0
20	260	10	10000	2	1	0	2	0
19	261	10	10000	2	1	0	2	0
19	262	10	10000	2	1	0	2	0
20	263	10	10000	2	1	0	2	0
20	264	10	10000	2	1	0	2	0
20	265	10	10000	2	1	0	2	0
20	266	10	10000	2	1	0	2	0
21	267	10	10000	2	1	0	2	0
20	268	10	10000	2	1	0	2	0
20	269	10	10000	2	1	0	2	0
19	270	10	10000	2	1	0	2	0
20	271	10	10000	2	1	0	2	0
20	272	10	10000	2	1	0	2	0
20	273	10	10000	2	1	0	2	0
20	274	10	10000	2	1	0	2	0
20	275	10	10000	2	1	0	2	0
20	276	10	10000	2	1	0	2	0
19	277	10	10000	2	1	0	2	0
20	278	10	10000	2	1	0	2	0
20	279	10	10000	2	1	0	2	0
20	280	10	10000	2	1	0	2	0
18	281	10	10000	2	1	0	2	0
19	282	10	10000	2	1	0	2	0
20	283	10	10000	2	1	0	2	0
20	284	10	10000	2	1	0	2	0
18	285	10	10000	2	1	0	2	0
20	286	10	10000	2	1	0	2	0
20	287	10	10000	2	1	0	2	0
19	288	10	10000	2	1	0	2	0
20	289	10	10000	2	1	0	2	0
20	290	10	10000	2	1	0	2	0
21	291	10	10000	2	1	0	2	0
21	292	10	10000	2	1	0	2	0
20	293	10	10000	2	1	0	2	0
20	294	10	10000	2	1	0	2	0
20	295	10	10000	2	1	0	2	0
20	296	10	10000	2	1	0	2	0
19	297	10	10000	2	1	0	2	0
20	298	10	10000	2	1	0	2	0
20	299	10	10000	2	1	0	2	0
20	300	10	10000	2	1	0	2	0
18	301	10	10000	2	1	0	2	0
17	302	10	10000	2	1	0	2	0
17	303	10	10000	2	1	0	2	0
18	304	10	10000	2	1	0	2	0
19	305	10	10000	2	1	0	2	0
20	306	10	10000	2	1	0	2	0
21	307	10	10000	2	1	0	2	0
20	308	10	10000	2	1	0	2	0
20	309	10	10000	2	1	0	2	0
19	310	10	10000	2	1	0	2	0
20	311	10	10000	2	1	0	2	0
20	312	10	10000	2	1	0	2	0
20	313	10	10000	2	1	0	2	0
19	314	10	10000	2	1	0	2	0
20	315	10	10000	2	1	0	2	0
19	316	10	10000	2	1	0	2	0
18	317	10	10000	2	1	0	2	0
20	318	10	10000	2	1	0	2	0
20	319	10	10000	2	1	0	2	0
19	320	10	10000	2	1	0	2	0
18	321	10	10000	2	1	0	2	0
17	322	10	10000	2	1	0	2	0
18	323	10	10000	2	1	0	2	0
19	324	10	10000	2	1	0	2	0
18	325	10	10000	2	1	0	2	0
17	326	10	10000	2	1	0	2	0
18	327	10	10000	2	1	0	2	0
17	328	10	10000	2	1	0	2	0
17	329	10	10000	2	1	0	2	0
18	330	10	10000	2	1	0	2	0
20	331	10	10000	2	1	0	2	0
20	332	10	10000	2	1	0	2	0
22	333	10	10000	2	1	0	2	0
23	334	10	10000	2	1	0	2	0
22	335	10	10000	2	1	0	2	0
21	336	10	10000	2	1	0	2	0
22	337	10	10000	2	1	0	2	0
22	338	10	10000	2	1	0	2	0
21	339	10	10000	2	1	0	2	0
21	340	10	10000	2	1	0	2	0
20	341	10	10000	2	1	0	2	0
18	342	10	10000	2	1	0	2	0
19	343	10	10000	2	1	0	2	0
20	344	10	10000	2	1	0	2	0
19	345	10	10000	2	1	0	2	0
18	346	10	10000	2	1	0	2	0
19	347	10	10000	2	1	0	2	0
18	348	10	10000	2	1	0	2	0
17	349	10	10000	2	1	0	2	0
17	350	10	10000	2	1	0	2	0
18	351	10	10000	2	1	0	2	0
18	352	10	10000	2	1	0	2	0
18	353	10	10000	2	1	0	2	0
18	354	10	10000	2	1	0	2	0
18	355	10	10000	2	1	0	2	0
17	356	10	10000	2	1	0	2	0
16	357	10	10000	2	1	0	2	0
17	358	10	10000	2	1	0	2	0
17	359	10	10000	2	1	0	2	0
17	360	10	10000	2	1	0	2	0
15	361	10	10000	2	1	0	2	0
15	362	10	10000	2	1	0	2	0
15	363	10	10000	2	1	0	2	0
15	364	10	10000	2	1	0	2	0
15	365	10	10000	2	1	0	2	0
15	366	10	10000	2	1	0	2	0
16	367	10	10000	2	1	0	2	0
16	368	10	10000	2	1	0	2	0
16	369	10	10000	2	1	0	2	0
16	370	10	10000	2	1	0	2	0
18	371	10	10000	2	1	0	2	0
19	372	10	10000	2	1	0	2	0
20	373	10	10000	2	1	0	2	0
18	374	10	10000	2	1	0	2	0
18	375	10	10000	2	1	0	2	0
19	376	10	10000	2	1	0	2	0
19	377	10	10000	2	1	0	2	0
20	378	10	10000	2	1	0	2	0
20	379	10	10000	2	1	0	2	0
20	380	10	10000	2	1	0	2	0
18	381	10	10000	2	1	0	2	0
18	382	10	10000	2	1	0	2	0
18	383	10	10000	2	1	0	2	0
19	384	10	10000	2	1	0	2	0
19	385	10	10000	2	1	0	2	0
18	386	10	10000	2	1	0	2	0
18	387	10	10000	2	1	0	2	0
19	388	10	10000	2	1	0	2	0
18	389	10	10000	2	1	0	2	0
17	390	10	10000	2	1	0	2	0
19	391	10	10000	2	1	0	2	0
18	392	10	10000	2	1	0	2	0
18	393	10	10000	2	1	0	2	0
18	394	10	10000	2	1	0	2	0
17	395	10	10000	2	1	0	2	0
18	396	10	10000	2	1	0	2	0
18	397	10	10000	2	1	0	2	0
18	398	10	10000	2	1	0	2	0
18	399	10	10000	2	1	0	2	0
18	400	10	10000	2	1	0	2	0
17	401	10	10000	2	1	0	2	0
18	402	10	10000	2	1	0	2	0
17	403	10	10000	2	1	0	2	0
17	404	10	10000	2	1	0	2	0
18	405	10	10000	2	1	0	2	0
17	406	10	10000	2	1	0	2	0
17	407	10	10000	2	1	0	2	0
17	408	10	10000	2	1	0	2	0
16	409	10	10000	2	1	0	2	0
16	410	10	10000	2	1	0	2	0
17	411	10	10000	2	1	0	2	0
17	412	10	10000	2	1	0	2	0
17	413	10	10000	2	1	0	2	0
17	414	10	10000	2	1	0	2	0
16	415	10	10000	2	1	0	2	0
16	416	10	10000	2	1	0	2	0
16	417	10	10000	2	1	0	2	0
18	418	10	10000	2	1	0	2	0
18	419	10	10000	2	1	0	2	0
19	420	10	10000	2	1	0	2	0
17	421	10	10000	2	1	0	2	0
17	422	10	10000	2	1	0	2	0
17	423	10	10000	2	1	0	2	0
17	434	10	10000	2	1	0	2	0
18	435	10	10000	2	1	0	2	0
18	436	10	10000	2	1	0	2	0
17	437	10	10000	2	1	0	2	0
18	438	10	10000	2	1	0	2	0
16	439	10	10000	2	1	0	2	0
16	440	10	10000	2	1	0	2	0
19	441	10	10000	2	1	0	2	0
18	442	10	10000	2	1	0	2	0
17	443	10	10000	2	1	0	2	0
18	444	10	10000	2	1	0	2	0
17	445	10	10000	2	1	0	2	0
17	442	10	10000	2	1	0	2	0
16	443	10	10000	2	1	0	2	0
16	444	10	10000	2	1	0	2	0
18	445	10	10000	2	1	0	2	0
18	446	10	10000	2	1	0	2	0
17	447	10	10000	2	1	0	2	0
17	448	10	10000	2	1	0	2	0
17	449	10	10000	2	1	0	2	0
18	453	10	10000	2	1	0	2	0
18	454	10	10000	2	1	0	2	0
18	455	10	10000	2	1	0	2	0
18	456	10	10000	2	1	0	2	0
17	457	10	10000	2	1	0	2	0
17	458	10	10000	2	1	0	2	0
17	459	10	10000	2	1	0	2	0
18	460	10	10000	2	1	0	2	0
19	461	10	10000	2	1	0	2	0
18	462	10	10000	2	1	0	2	0
17	458	10	10000	2	1	0	2	0
18	459	10	10000	2	1	0	2	0
19	460	10	10000	2	1	0	2	0
18	461	10	10000	2	1	0	2	0
18	462	10	10000	2	1	0	2	0
18	463	10	10000	2	1	0	2	0
19	463	10	10000	2	1	0	2	0
17	464	10	10000	2	1	0	2	0
17	465	10	10000	2	1	0	2	0
18	466	10	10000	2	1	0	2	0
17	469	10	10000	2	1	0	2	0
17	470	10	10000	2	1	0	2	0
17	471	10	10000	2	1	0	2	0
17	472	10	10000	2	1	0	2	0
18	473	10	10000	2	1	0	2	0
18	474	10	10000	2	1	0	2	0
17	475	10	10000	2	1	0	2	0
19	476	10	10000	2	1	0	2	0
20	474	10	10000	2	1	0	2	0
19	475	10	10000	2	1	0	2	0
19	476	10	10000	2	1	0	2	0
18	477	10	10000	2	1	0	2	0
18	479	10	10000	2	1	0	2	0
18	480	10	10000	2	1	0	2	0
19	481	10	10000	2	1	0	2	0
20	482	10	10000	2	1	0	2	0
20	483	10	10000	2	1	0	2	0
18	484	10	10000	2	1	0	2	0
17	486	10	10000	2	1	0	2	0
17	487	10	10000	2	1	0	2	0
17	488	10	10000	2	1	0	2	0
18	489	10	10000	2	1	0	2	0
18	490	10	10000	2	1	0	2	0
18	491	10	10000	2	1	0	2	0
16	490	10	10000	2	1	0	2	0
17	491	10	10000	2	1	0	2	0
16	492	10	10000	2	1	0	2	0
17	493	10	10000	2	1	0	2	0
20	497	10	10000	2	1	0	2	0
19	498	10	10000	2	1	0	2	0
20	499	10	10000	2	1	0	2	0
20	500	10	10000	2	1	0	2	0
20	501	10	10000	2	1	0	2	0
20	502	10	10000	2	1	0	2	0
20	502	10	10000	2	1	0	2	0
20	503	10	10000	2	1	0	2	0
20	504	10	10000	2	1	0	2	0
18	505	10	10000	2	1	0	2	0
18	506	10	10000	2	1	0	2	0
18	507	10	10000	2	1	0	2	0
18	509	10	10000	2	1	0	2	1
18	510	10	10000	2	1	0	2	1
18	511	10	10000	2	1	0	2	1
18	512	10	10000	2	1	0	2	1
17	513	10	10000	2	1	0	2	1
17	514	10	10000	2	1	0	2	1
18	513	10	10000	2	1	0	2	1
20	514	10	10000	2	1	0	2	1
20	515	10	10000	2	1	0	2	1
20	516	10	10000	2	1	0	2	1
19	517	10	10000	2	1	0	2	1
19	518	10	10000	2	1	0	2	1
18	520	10	10000	2	1	0	2	1
18	521	10	10000	2	1	0	2	1
19	522	10	10000	2	1	0	2	1
19	523	10	10000	2	1	0	2	1
20	524	10	10000	2	1	0	2	1
18	525	10	10000	2	1	0	2	1
17	524	10	10000	2	1	0	2	1
18	525	10	10000	2	1	0	2	1
18	526	10	10000	2	1	0	2	1
17	527	10	10000	2	1	0	2	1
18	530	10	10000	2	1	0	2	1
17	531	10	10000	2	1	0	2	1
16	532	10	10000	2	1	0	2	1
16	533	10	10000	2	1	0	2	1
15	534	10	10000	2	1	0	2	1
17	535	10	10000	2	1	0	2	1
16	536	10	10000	2	1	0	2	1
16	537	10	10000	2	1	0	2	1
16	538	10	10000	2	1	0	2	1
18	539	10	10000	2	1	0	2	1
18	540	10	10000	2	1	0	2	1
18	541	10	10000	2	1	0	2	1
18	541	10	10000	2	1	0	2	1
18	542	10	10000	2	1	0	2	1
18	543	10	10000	2	1	0	2	1
17	544	10	10000	2	1	0	2	1
16	542	10	10000	2	1	0	2	1
16	543	10	10000	2	1	0	2	1
18	544	10	10000	2	1	0	2	1
18	545	10	10000	2	1	0	2	1
18	546	10	10000	2	1	0	2	1
19	547	10	10000	2	1	0	2	1
17	548	10	10000	2	1	0	2	1
17	549	10	10000	2	1	0	2	1
17	550	10	10000	2	1	0	2	1
18	551	10	10000	2	1	0	2	1
19	552	10	10000	2	1	0	2	0
19	553	10	10000	2	1	0	2	0
18	554	10	10000	2	1	0	2	0
18	555	10	10000	2	1	0	2	0
19	556	10	10000	2	1	0	2	0
20	557	10	10000	2	1	0	2	0
20	558	10	10000	2	1	0	2	0
20	559	10	10000	2	1	0	2	0
20	560	10	10000	2	1	0	2	0
18	561	10	10000	2	1	0	2	0
18	562	10	10000	2	1	0	2	0
18	563	10	10000	2	1	0	2	0
18	564	10	10000	2	1	0	2	0
18	565	10	10000	2	1	0	2	0
19	566	10	10000	2	1	0	2	0
19	567	10	10000	2	1	0	2	0
19	568	10	10000	2	1	0	2	0
18	569	10	10000	2	1	0	2	0
18	570	10	10000	2	1	0	2	0
21	571	10	10000	2	1	0	2	0
22	572	10	10000	2	1	0	2	0
23	573	10	10000	2	1	0	2	0
24	574	10	10000	2	1	0	2	0
23	575	10	10000	2	1	0	2	0
24	576	10	10000	2	1	0	2	0
22	577	10	10000	2	1	0	2	0
22	578	10	10000	2	1	0	2	0
23	579	10	10000	2	1	0	2	0
22	580	10	10000	2	1	0	2	0
21	581	10	10000	2	1	0	2	0
21	582	10	10000	2	1	0	2	0
23	583	10	10000	2	1	0	2	0
27	584	10	10000	2	1	0	2	0
28	585	10	10000	2	1	0	2	0
28	586	10	10000	2	1	0	2	0
32	587	10	10000	2	1	0	2	0
37	588	10	10000	2	1	0	2	0
41	589	10	10000	2	1	0	2	0
41	590	10	10000	2	1	0	2	0
44	591	10	10000	2	1	0	2	0
45	592	10	10000	2	1	0	2	0
46	593	10	10000	2	1	0	2	0
46	594	10	10000	2	1	0	2	0
45	595	10	10000	2	1	0	2	0
51	596	10	10000	2	1	0	2	0
53	597	10	10000	2	1	0	2	0
52	598	10	10000	2	1	0	2	0
53	599	10	10000	2	1	0	2	0
61	600	10	10000	2	1	0	2	0
70	601	10	10000	2	1	0	2	0
72	602	10	10000	2	1	0	2	0
70	603	10	10000	2	1	0	2	0
72	604	10	10000	2	1	0	2	0
70	605	10	10000	2	1	0	2	0
68	606	10	10000	2	1	0	2	0
67	607	10	10000	2	1	0	2	0
71	608	10	10000	2	1	0	2	0
76	609	10	10000	2	1	0	2	0
75	610	10	10000	2	1	0	2	0
76	611	10	10000	2	1	0	2	0
76	612	10	10000	2	1	0	2	0
75	613	10	10000	2	1	0	2	0
83	614	10	10000	2	1	0	2	0
90	615	10	10000	2	1	0	2	0
89	616	10	10000	2	1	0	2	0
93	617	10	10000	2	1	0	2	0
98	618	10	10000	2	1	0	2	0
96	619	10	10000	2	1	0	2	0
93	620	10	10000	2	1	0	2	0
89	621	10	10000	2	1	0	2	0
87	622	10	10000	2	1	0	2	0
87	623	10	10000	2	1	0	2	0
85	624	10	10000	2	1	0	2	0
91	625	10	10000	2	1	0	2	0
105	626	10	10000	2	1	0	2	0
113	627	10	10000	2	1	0	2	0
110	628	10	10000	2	1	0	2	0
109	629	10	10000	2	1	0	2	0
112	630	10	10000	2	1	0	2	0
113	631	10	10000	2	1	0	2	0
110	632	10	10000	2	1	0	2	0
109	633	10	10000	2	1	0	2	0
110	634	10	10000	2	1	0	2	0
107	635	10	10000	2	1	0	2	0
103	636	10	10000	2	1	0	2	0
99	637	10	10000	2	1	0	2	0
94	638	10	10000	2	1	0	2	0
92	639	10	10000	2	1	0	2	0
88	640	10	10000	2	1	0	2	0
82	641	10	10000	2	1	0	2	0
79	642	10	10000	2	1	0	2	0
76	643	10	10000	2	1	0	2	0
73	644	10	10000	2	1	0	2	0
70	645	10	10000	2	1	0	2	0
68	646	10	10000	2	1	0	2	0
67	647	10	10000	2	1	0	2	0
65	648	10	10000	2	1	0	2	0
62	649	10	10000	2	1	0	2	0
59	650	10	10000	2	1	0	2	0
59	651	10	10000	2	1	0	2	0
58	652	10	10000	2	1	0	2	0
56	653	10	10000	2	1	0	2	0
54	654	10	10000	2	1	0	2	0
53	655	10	10000	2	1	0	2	0
52	656	10	10000	2	1	0	2	0
52	657	10	10000	2	1	0	2	0
51	658	10	10000	2	1	0	2	0
49	659	10	10000	2	1	0	2	0
49	660	10	10000	2	1	0	2	0
46	661	10	10000	2	1	0	2	0
46	662	10	10000	2	1	0	2	0
47	663	10	10000	2	1	0	2	0
46	664	10	10000	2	1	0	2	0
46	665	10	10000	2	1	0	2	0
47	666	10	10000	2	1	0	2	0
46	667	10	10000	2	1	0	2	0
45	668	10	10000	2	1	0	2	0
44	669	10	10000	2	1	0	2	0
44	670	10	10000	2	1	0	2	0
44	671	10	10000	2	1	0	2	0
43	672	10	10000	2	1	0	2	0
41	673	10	10000	2	1	0	2	0
41	674	10	10000	2	1	0	2	0
40	675	10	10000	2	1	0	2	0
38	676	10	10000	2	1	0	2	0
36	677	10	10000	2	1	0	2	0
37	678	10	10000	2	1	0	2	0
37	679	10	10000	2	1	0	2	0
37	680	10	10000	2	1	0	2	0
35	681	10	10000	2	1	0	2	0
34	682	10	10000	2	1	0	2	0
34	683	10	10000	2	1	0	2	0
33	684	10	10000	2	1	0	2	0
32	685	10	10000	2	1	0	2	0
32	686	10	10000	2	1	0	2	0
32	687	10	10000	2	1	0	2	0
32	688	10	10000	2	1	0	2	0
31	689	10	10000	2	1	0	2	0
29	690	10	10000	2	1	0	2	0
30	691	10	10000	2	1	0	2	0
32	692	10	10000	2	1	0	2	0
30	693	10	10000	2	1	0	2	0
30	694	10	10000	2	1	0	2	0
29	695	10	10000	2	1	0	2	0
31	696	10	10000	2	1	0	2	0
35	697	10	10000	2	1	0	2	0
39	698	10	10000	2	1	0	2	0
39	699	10	10000	2	1	0	2	0
40	700	10	10000	2	1	0	2	0
41	701	10	10000	2	1	0	2	0
42	702	10	10000	2	1	0	2	0
42	703	10	10000	2	1	0	2	0
40	704	10	10000	2	1	0	2	0
39	705	10	10000	2	1	0	2	0
38	706	10	10000	2	1	0	2	0
39	707	10	10000	2	1	0	2	0
41	708	10	10000	2	1	0	2	0
40	709	10	10000	2	1	0	2	0
41	710	10	10000	2	1	0	2	0
42	711	10	10000	2	1	0	2	0
41	712	10	10000	2	1	0	2	0
44	713	10	10000	2	1	0	2	0
54	714	10	10000	2	1	0	2	0
61	715	10	10000	2	1	0	2	0
69	716	10	10000	2	1	0	2	0
74	717	10	10000	2	1	0	2	0
75	718	10	10000	2	1	0	2	0
80	719	10	10000	2	1	0	2	0
83	720	10	10000	2	1	0	2	0
81	721	10	10000	2	1	0	2	0
80	722	10	10000	2	1	0	2	0
91	723	10	10000	2	1	0	2	0
98	724	10	10000	2	1	0	2	0
97	725	10	10000	2	1	0	2	0
101	726	10	10000	2	1	0	2	0
100	727	10	10000	2	1	0	2	0
103	728	10	10000	2	1	0	2	0
133	729	10	10000	2	1	0	2	0
166	730	10	10000	2	1	0	2	0
170	731	10	10000	2	1	0	2	0
183	732	10	10000	2	1	0	2	0
186	733	10	10000	2	1	0	2	0
190	734	10	10000	2	1	0	2	0
195	735	10	10000	2	1	0	2	0
193	736	10	10000	2	1	0	2	0
188	737	10	10000	2	1	0	2	0
183	738	10	10000	2	1	0	2	0
179	739	10	10000	2	1	0	2	0
192	740	10	10000	2	1	0	2	0
220	741	10	10000	2	1	0	2	0
236	742	10	10000	2	1	0	2	0
239	743	10	10000	2	1	0	2	0
282	744	10	10000	2	1	0	2	0
338	745	10	10000	2	1	0	2	0
343	746	10	10000	2	1	0	2	0
375	747	10	10000	2	1	0	2	0
390	748	10	10000	2	1	0	2	0
390	749	10	10000	2	1	0	2	0
384	750	10	10000	2	1	0	2	0
374	751	10	10000	2	1	0	2	0
360	752	10	10000	2	1	0	2	0
346	753	10	10000	2	1	0	2	0
331	754	10	10000	2	1	0	2	0
319	755	10	10000	2	1	0	2	0
311	756	10	10000	2	1	0	2	0
300	757	10	10000	2	1	0	2	0
289	758	10	10000	2	1	0	2	0
277	759	10	10000	2	1	0	2	0
268	760	10	10000	2	1	0	2	0
257	761	10	10000	2	1	0	2	0
253	762	10	10000	2	1	0	2	0
255	763	10	10000	2	1	0	2	0
253	764	10	10000	2	1	0	2	0
255	765	10	10000	2	1	0	2	0
259	766	10	10000	2	1	0	2	0
262	767	10	10000	2	1	0	2	0
255	768	10	10000	2	1	0	2	0
243	769	10	10000	2	1	0	2	0
232	770	10	10000	2	1	0	2	0
224	771	10	10000	2	1	0	2	0
218	772	10	10000	2	1	0	2	0
212	773	10	10000	2	1	0	2	0
206	774	10	10000	2	1	0	2	0
203	775	10	10000	2	1	0	2	0
196	776	10	10000	2	1	0	2	0
188	777	10	10000	2	1	0	2	0
184	778	10	10000	2	1	0	2	0
178	779	10	10000	2	1	0	2	0
174	780	10	10000	2	1	0	2	0
167	781	10	10000	2	1	0	2	0
161	782	10	10000	2	1	0	2	0
158	783	10	10000	2	1	0	2	0
161	784	10	10000	2	1	0	2	0
163	785	10	10000	2	1	0	2	0
159	786	10	10000	2	1	0	2	0
154	787	10	10000	2	1	0	2	0
149	788	10	10000	2	1	0	2	0
144	789	10	10000	2	1	0	2	0
141	790	10	10000	2	1	0	2	0
141	791	10	10000	2	1	0	2	0
139	792	10	10000	2	1	0	2	0
135	793	10	10000	2	1	0	2	0
132	794	10	10000	2	1	0	2	0
127	795	10	10000	2	1	0	2	0
123	796	10	10000	2	1	0	2	0
120	797	10	10000	2	1	0	2	0
117	798	10	10000	2	1	0	2	0
116	799	10	10000	2	1	0	2	0
116	800	10	10000	2	1	0	2	0
117	801	10	10000	2	1	0	2	0
118	802	10	10000	2	1	0	2	0
115	803	10	10000	2	1	0	2	0
111	804	10	10000	2	1	0	2	0
110	805	10	10000	2	1	0	2	0
108	806	10	10000	2	1	0	2	0
108	807	10	10000	2	1	0	2	0
106	808	10	10000	2	1	0	2	0
102	809	10	10000	2	1	0	2	0
99	810	10	10000	2	1	0	2	0
99	811	10	10000	2	1	0	2	0
97	812	10	10000	2	1	0	2	0
100	813	10	10000	2	1	0	2	0
103	814	10	10000	2	1	0	2	0
102	815	10	10000	2	1	0	2	0
98	816	10	10000	2	1	0	2	0
94	817	10	10000	2	1	0	2	0
91	818	10	10000	2	1	0	2	0
89	819	10	10000	2	1	0	2	0
87	820	10	10000	2	1	0	2	0
86	821	10	10000	2	1	0	2	0
90	822	10	10000	2	1	0	2	0
94	823	10	10000	2	1	0	2	0
97	824	10	10000	2	1	0	2	0
98	825	10	10000	2	1	0	2	0
98	826	10	10000	2	1	0	2	0
97	827	10	10000	2	1	0	2	0
94	828	10	10000	2	1	0	2	0
90	829	10	10000	2	1	0	2	0
87	830	10	10000	2	1	0	2	0
86	831	10	10000	2	1	0	2	0
83	832	10	10000	2	1	0	2	0
79	833	10	10000	2	1	0	2	0
77	834	10	10000	2	1	0	2	0
74	835	10	10000	2	1	0	2	0
72	836	10	10000	2	1	0	2	0
70	837	10	10000	2	1	0	2	0
67	838	10	10000	2	1	0	2	0
67	839	10	10000	2	1	0	2	0
67	840	10	10000	2	1	0	2	0
64	841	10	10000	2	1	0	2	0
61	842	10	10000	2	1	0	2	0
60	843	10	10000	2	1	0	2	0
58	844	10	10000	2	1	0	2	0
56	845	10	10000	2	1	0	2	0
54	846	10	10000	2	1	0	2	0
53	847	10	10000	2	1	0	2	0
50	848	10	10000	2	1	0	2	0
49	849	10	10000	2	1	0	2	0
47	850	10	10000	2	1	0	2	0
47	851	10	10000	2	1	0	2	0
46	852	10	10000	2	1	0	2	0
44	853	10	10000	2	1	0	2	0
42	854	10	10000	2	1	0	2	0
40	855	10	10000	2	1	0	2	0
39	856	10	10000	2	1	0	2	0
38	857	10	10000	2	1	0	2	0
37	858	10	10000	2	1	0	2	0
36	859	10	10000	2	1	0	2	0
36	860	10	10000	2	1	0	2	0
35	861	10	10000	2	1	0	2	0
35	862	10	10000	2	1	0	2	0
36	863	10	10000	2	1	0	2	0
35	864	10	10000	2	1	0	2	0
34	865	10	10000	2	1	0	2	0
34	866	10	10000	2	1	0	2	0
32	867	10	10000	2	1	0	2	0
31	868	10	10000	2	1	0	2	0
31	869	10	10000	2	1	0	2	0
29	870	10	10000	2	1	0	2	0
30	871	10	10000	2	1	0	2	0
29	872	10	10000	2	1	0	2	0
28	873	10	10000	2	1	0	2	0
27	874	10	10000	2	1	0	2	0
26	875	10	10000	2	1	0	2	0
26	876	10	10000	2	1	0	2	0
24	877	10	10000	2	1	0	2	0
25	878	10	10000	2	1	0	2	0
25	879	10	10000	2	1	0	2	0
26	880	10	10000	2	1	0	2	0
25	881	10	10000	2	1	0	2	0
26	882	10	10000	2	1	0	2	0
26	883	10	10000	2	1	0	2	0
26	884	10	10000	2	1	0	2	0
26	885	10	10000	2	1	0	2	0
25	886	10	10000	2	1	0	2	0
25	887	10	10000	2	1	0	2	0
24	888	10	10000	2	1	0	2	0
23	889	10	10000	2	1	0	2	0
22	890	10	10000	2	1	0	2	0
23	891	10	10000	2	1	0	2	0
25	892	10	10000	2	1	0	2	0
25	893	10	10000	2	1	0	2	0
27	894	10	10000	2	1	0	2	0
28	895	10	10000	2	1	0	2	0
27	896	10	10000	2	1	0	2	0
27	897	10	10000	2	1	0	2	0
27	898	10	10000	2	1	0	2	0
28	899	10	10000	2	1	0	2	0
29	900	10	10000	2	1	0	2	0
29	901	10	10000	2	1	0	2	0
29	902	10	10000	2	1	0	2	0
30	903	10	10000	2	1	0	2	0
31	904	10	10000	2	1	0	2	0
32	905	10	10000	2	1	0	2	0
32	906	10	10000	2	1	0	2	0
31	907	10	10000	2	1	0	2	0
30	908	10	10000	2	1	0	2	0
28	909	10	10000	2	1	0	2	0
27	910	10	10000	2	1	0	2	0
29	911	10	10000	2	1	0	2	0
30	912	10	10000	2	1	0	2	0
28	913	10	10000	2	1	0	2	0
27	914	10	10000	2	1	0	2	0
27	915	10	10000	2	1	0	2	0
27	916	10	10000	2	1	0	2	0
26	917	10	10000	2	1	0	2	0
26	918	10	10000	2	1	0	2	0
26	919	10	10000	2	1	0	2	0
27	920	10	10000	2	1	0	2	0
27	921	10	10000	2	1	0	2	0
25	922	10	10000	2	1	0	2	0
25	923	10	10000	2	1	0	2	0
26	924	10	10000	2	1	0	2	0
26	925	10	10000	2	1	0	2	0
26	926	10	10000	2	1	0	2	0
26	927	10	10000	2	1	0	2	0
25	928	10	10000	2	1	0	2	0
24	929	10	10000	2	1	0	2	0
23	930	10	10000	2	1	0	2	0
24	931	10	10000	2	1	0	2	0
25	932	10	10000	2	1	0	2	0
24	933	10	10000	2	1	0	2	0
24	934	10	10000	2	1	0	2	0
23	935	10	10000	2	1	0	2	0
24	936	10	10000	2	1	0	2	0
23	937	10	10000	2	1	0	2	0
23	938	10	10000	2	1	0	2	0
24	939	10	10000	2	1	0	2	0
26	940	10	10000	2	1	0	2	0
26	941	10	10000	2	1	0	2	0
26	942	10	10000	2	1	0	2	0
27	943	10	10000	2	1	0	2	0
26	944	10	10000	2	1	0	2	0
26	945	10	10000	2	1	0	2	0
25	946	10	10000	2	1	0	2	0
25	947	10	10000	2	1	0	2	0
24	948	10	10000	2	1	0	2	0
23	949	10	10000	2	1	0	2	0
23	950	10	10000	2	1	0	2	0
26	951	10	10000	2	1	0	2	0
26	952	10	10000	2	1	0	2	0
28	953	10	10000	2	1	0	2	0
29	954	10	10000	2	1	0	2	0
28	955	10	10000	2	1	0	2	0
30	956	10	10000	2	1	0	2	0
30	957	10	10000	2	1	0	2	0
30	958	10	10000	2	1	0	2	0
30	959	10	10000	2	1	0	2	0
30	960	10	10000	2	1	0	2	0
28	961	10	10000	2	1	0	2	0
27	962	10	10000	2	1	0	2	0
27	963	10	10000	2	1	0	2	0
26	964	10	10000	2	1	0	2	0
27	965	10	10000	2	1	0	2	0
26	966	10	10000	2	1	0	2	0
26	967	10	10000	2	1	0	2	0
25	968	10	10000	2	1	0	2	0
24	969	10	10000	2	1	0	2	0
22	970	10	10000	2	1	0	2	0
23	971	10	10000	2	1	0	2	0
24	972	10	10000	2	1	0	2	0
24	973	10	10000	2	1	0	2	0
23	974	10	10000	2	1	0	2	0
23	975	10	10000	2	1	0	2	0
23	976	10	10000	2	1	0	2	0
23	977	10	10000	2	1	0	2	0
23	978	10	10000	2	1	0	2	0
23	979	10	10000	2	1	0	2	0
22	980	10	10000	2	1	0	2	0
21	981	10	10000	2	1	0	2	0
22	982	10	10000	2	1	0	2	0
21	983	10	10000	2	1	0	2	0
23	984	10	10000	2	1	0	2	0
22	985	10	10000	2	1	0	2	0
21	986	10	10000	2	1	0	2	0
21	987	10	10000	2	1	0	2	0
21	988	10	10000	2	1	0	2	0
20	989	10	10000	2	1	0	2	0
20	990	10	10000	2	1	0	2	0
22	991	10	10000	2	1	0	2	0
23	992	10	10000	2	1	0	2	0
22	993	10	10000	2	1	0	2	0
23	994	10	10000	2	1	0	2	0
22	995	10	10000	2	1	0	2	0
22	996	10	10000	2	1	0	2	0
22	997	10	10000	2	1	0	2	0
22	998	10	10000	2	1	0	2	0
23	999	10	10000	2	1	0	2	0
24	1000	10	10000	2	1	0	2	0
22	1001	10	10000	2	1	0	2	0
20	1	1	10000	3	1	0	3	0
20	2	1	10000	3	1	0	3	0
20	3	1	10000	3	1	0	3	0
20	4	1	10000	3	1	0	3	0
20	5	1	10000	3	1	0	3	0
19	6	1	10000	3	1	0	3	0
19	7	1	10000	3	1	0	3	0
21	8	1	10000	3	1	0	3	0
21	9	1	10000	3	1	0	3	0
22	10	1	10000	3	1	0	3	0
21	11	1	10000	3	1	0	3	0
21	12	1	10000	3	1	0	3	0
21	13	1	10000	3	1	0	3	0
21	14	1	10000	3	1	0	3	0
21	15	1	10000	3	1	0	3	0
21	16	1	10000	3	1	0	3	0
22	17	1	10000	3	1	0	3	0
19	18	1	10000	3	1	0	3	0
19	19	1	10000	3	1	0	3	0
20	20	1	10000	3	1	0	3	0
19	20	1	10000	3	1	0	3	0
19	21	1	10000	3	1	0	3	0
20	23	1	10000	3	1	0	3	0
20	24	1	10000	3	1	0	3	0
19	25	1	10000	3	1	0	3	0
18	26	1	10000	3	1	0	3	0
18	27	1	10000	3	1	0	3	0
20	28	1	10000	3	1	0	3	0
20	29	1	10000	3	1	0	3	0
20	30	1	10000	3	1	0	3	0
20	30	1	10000	3	1	0	3	0
19	31	1	10000	3	1	0	3	0
19	33	1	10000	3	1	0	3	0
19	34	1	10000	3	1	0	3	0
19	35	1	10000	3	1	0	3	0
20	36	1	10000	3	1	0	3	0
20	37	1	10000	3	1	0	3	0
19	38	1	10000	3	1	0	3	0
18	39	1	10000	3	1	0	3	0
19	40	1	10000	3	1	0	3	0
19	40	1	10000	3	1	0	3	0
19	41	1	10000	3	1	0	3	0
20	43	1	10000	3	1	0	3	0
22	44	1	10000	3	1	0	3	0
22	45	1	10000	3	1	0	3	0
21	46	1	10000	3	1	0	3	0
20	47	1	10000	3	1	0	3	0
22	48	1	10000	3	1	0	3	0
22	49	1	10000	3	1	0	3	0
21	50	1	10000	3	1	0	3	0
22	50	1	10000	3	1	0	3	0
25	51	1	10000	3	1	0	3	0
25	53	1	10000	3	1	0	3	0
24	54	1	10000	3	1	0	3	0
24	55	1	10000	3	1	0	3	0
23	56	1	10000	3	1	0	3	0
24	57	1	10000	3	1	0	3	0
21	58	1	10000	3	1	0	3	0
21	59	1	10000	3	1	0	3	0
23	60	1	10000	3	1	0	3	0
21	60	1	10000	3	1	0	3	0
21	61	1	10000	3	1	0	3	0
22	63	1	10000	3	1	0	3	0
23	64	1	10000	3	1	0	3	0
21	65	1	10000	3	1	0	3	0
22	66	1	10000	3	1	0	3	0
21	67	1	10000	3	1	0	3	0
24	68	1	10000	3	1	0	3	0
24	69	1	10000	3	1	0	3	0
24	70	1	10000	3	1	0	3	0
23	70	1	10000	3	1	0	3	0
23	71	1	10000	3	1	0	3	0
23	73	1	10000	3	1	0	3	0
23	74	1	10000	3	1	0	3	0
24	75	1	10000	3	1	0	3	0
24	76	1	10000	3	1	0	3	0
23	77	1	10000	3	1	0	3	0
21	78	1	10000	3	1	0	3	0
21	79	1	10000	3	1	0	3	0
21	80	1	10000	3	1	0	3	0
20	80	1	10000	3	1	0	3	0
20	81	1	10000	3	1	0	3	0
20	83	1	10000	3	1	0	3	0
20	84	1	10000	3	1	0	3	0
19	85	1	10000	3	1	0	3	0
20	86	1	10000	3	1	0	3	0
18	87	1	10000	3	1	0	3	0
21	88	1	10000	3	1	0	3	0
23	89	1	10000	3	1	0	3	0
21	90	1	10000	3	1	0	3	0
21	90	1	10000	3	1	0	3	0
21	91	1	10000	3	1	0	3	0
22	93	1	10000	3	1	0	3	0
24	94	1	10000	3	1	0	3	0
26	95	1	10000	3	1	0	3	0
26	96	1	10000	3	1	0	3	0
29	97	1	10000	3	1	0	3	0
31	98	1	10000	3	1	0	3	0
34	99	1	10000	3	1	0	3	0
37	100	1	10000	3	1	0	3	0
42	100	1	10000	3	1	0	3	0
46	101	1	10000	3	1	0	3	0
51	103	1	10000	3	1	0	3	0
55	104	1	10000	3	1	0	3	0
57	105	1	10000	3	1	0	3	0
58	106	1	10000	3	1	0	3	0
60	107	1	10000	3	1	0	3	0
63	108	1	10000	3	1	0	3	0
63	109	1	10000	3	1	0	3	0
62	110	1	10000	3	1	0	3	0
61	110	1	10000	3	1	0	3	0
61	111	1	10000	3	1	0	3	0
60	113	1	10000	3	1	0	3	0
57	114	1	10000	3	1	0	3	0
57	115	1	10000	3	1	0	3	0
56	116	1	10000	3	1	0	3	0
55	117	1	10000	3	1	0	3	0
53	118	1	10000	3	1	0	3	0
51	119	1	10000	3	1	0	3	0
50	120	1	10000	3	1	0	3	0
49	120	1	10000	3	1	0	3	0
47	121	1	10000	3	1	0	3	0
46	123	1	10000	3	1	0	3	0
45	124	1	10000	3	1	0	3	0
45	125	1	10000	3	1	0	3	0
44	126	1	10000	3	1	0	3	0
45	127	1	10000	3	1	0	3	0
48	128	1	10000	3	1	0	3	0
50	129	1	10000	3	1	0	3	0
50	130	1	10000	3	1	0	3	0
49	130	1	10000	3	1	0	3	0
50	131	1	10000	3	1	0	3	0
50	133	1	10000	3	1	0	3	0
51	134	1	10000	3	1	0	3	0
53	135	1	10000	3	1	0	3	0
55	136	1	10000	3	1	0	3	0
56	137	1	10000	3	1	0	3	0
55	138	1	10000	3	1	0	3	0
55	139	1	10000	3	1	0	3	0
55	140	1	10000	3	1	0	3	0
53	140	1	10000	3	1	0	3	0
51	141	1	10000	3	1	0	3	0
51	143	1	10000	3	1	0	3	0
51	144	1	10000	3	1	0	3	0
49	145	1	10000	3	1	0	3	0
50	146	1	10000	3	1	0	3	0
52	147	1	10000	3	1	0	3	0
53	148	1	10000	3	1	0	3	0
52	149	1	10000	3	1	0	3	0
50	150	1	10000	3	1	0	3	0
47	150	1	10000	3	1	0	3	0
47	151	1	10000	3	1	0	3	0
45	153	1	10000	3	1	0	3	0
43	154	1	10000	3	1	0	3	0
43	155	1	10000	3	1	0	3	0
42	156	1	10000	3	1	0	3	0
41	157	1	10000	3	1	0	3	0
38	158	1	10000	3	1	0	3	0
38	159	1	10000	3	1	0	3	0
37	160	1	10000	3	1	0	3	0
37	160	1	10000	3	1	0	3	0
36	161	1	10000	3	1	0	3	0
35	163	1	10000	3	1	0	3	0
35	164	1	10000	3	1	0	3	0
33	165	1	10000	3	1	0	3	0
32	166	1	10000	3	1	0	3	0
31	167	1	10000	3	1	0	3	0
32	168	1	10000	3	1	0	3	0
32	169	1	10000	3	1	0	3	0
31	170	1	10000	3	1	0	3	0
30	170	1	10000	3	1	0	3	0
29	171	1	10000	3	1	0	3	0
29	173	1	10000	3	1	0	3	0
28	174	1	10000	3	1	0	3	0
28	175	1	10000	3	1	0	3	0
30	176	1	10000	3	1	0	3	0
30	177	1	10000	3	1	0	3	0
28	178	1	10000	3	1	0	3	0
28	179	1	10000	3	1	0	3	0
27	180	1	10000	3	1	0	3	0
27	180	1	10000	3	1	0	3	0
28	181	1	10000	3	1	0	3	0
28	183	1	10000	3	1	0	3	0
28	184	1	10000	3	1	0	3	0
28	185	1	10000	3	1	0	3	0
26	186	1	10000	3	1	0	3	0
26	187	1	10000	3	1	0	3	0
27	188	1	10000	3	1	0	3	0
27	189	1	10000	3	1	0	3	0
25	190	1	10000	3	1	0	3	0
25	190	1	10000	3	1	0	3	0
25	191	1	10000	3	1	0	3	0
28	193	1	10000	3	1	0	3	0
30	194	1	10000	3	1	0	3	0
31	195	1	10000	3	1	0	3	0
31	196	1	10000	3	1	0	3	0
30	197	1	10000	3	1	0	3	0
28	198	1	10000	3	1	0	3	0
30	199	1	10000	3	1	0	3	0
30	200	1	10000	3	1	0	3	0
31	200	1	10000	3	1	0	3	0
31	201	1	10000	3	1	0	3	0
30	203	1	10000	3	1	0	3	0
31	204	1	10000	3	1	0	3	0
30	205	1	10000	3	1	0	3	0
29	206	1	10000	3	1	0	3	0
28	207	1	10000	3	1	0	3	0
30	208	1	10000	3	1	0	3	0
28	209	1	10000	3	1	0	3	0
27	210	1	10000	3	1	0	3	0
27	210	1	10000	3	1	0	3	0
26	211	1	10000	3	1	0	3	0
26	213	1	10000	3	1	0	3	0
25	214	1	10000	3	1	0	3	0
25	215	1	10000	3	1	0	3	0
26	216	1	10000	3	1	0	3	0
28	217	1	10000	3	1	0	3	0
26	218	1	10000	3	1	0	3	0
26	219	1	10000	3	1	0	3	0
27	220	1	10000	3	1	0	3	0
27	220	1	10000	3	1	0	3	0
26	221	1	10000	3	1	0	3	0
27	223	1	10000	3	1	0	3	0
27	224	1	10000	3	1	0	3	0
26	225	1	10000	3	1	0	3	0
26	226	1	10000	3	1	0	3	0
25	227	1	10000	3	1	0	3	0
27	228	1	10000	3	1	0	3	0
27	229	1	10000	3	1	0	3	0
28	230	1	10000	3	1	0	3	0
28	230	1	10000	3	1	0	3	0
28	231	1	10000	3	1	0	3	0
28	233	1	10000	3	1	0	3	0
29	234	1	10000	3	1	0	3	0
28	235	1	10000	3	1	0	3	0
28	236	1	10000	3	1	0	3	0
28	237	1	10000	3	1	0	3	0
25	238	1	10000	3	1	0	3	0
25	239	1	10000	3	1	0	3	0
28	240	1	10000	3	1	0	3	0
28	240	1	10000	3	1	0	3	0
27	241	1	10000	3	1	0	3	0
27	243	1	10000	3	1	0	3	0
27	244	1	10000	3	1	0	3	0
25	245	1	10000	3	1	0	3	0
25	246	1	10000	3	1	0	3	0
25	247	1	10000	3	1	0	3	0
26	248	1	10000	3	1	0	3	0
26	249	1	10000	3	1	0	3	0
25	250	1	10000	3	1	0	3	0
24	250	1	10000	3	1	0	3	0
24	251	1	10000	3	1	0	3	0
24	253	1	10000	3	1	0	3	0
23	254	1	10000	3	1	0	3	0
23	255	1	10000	3	1	0	3	0
24	256	1	10000	3	1	0	3	0
23	257	1	10000	3	1	0	3	0
22	258	1	10000	3	1	0	3	0
21	259	1	10000	3	1	0	3	0
22	260	1	10000	3	1	0	3	0
22	260	1	10000	3	1	0	3	0
24	261	1	10000	3	1	0	3	0
27	263	1	10000	3	1	0	3	0
27	264	1	10000	3	1	0	3	0
27	265	1	10000	3	1	0	3	0
26	266	1	10000	3	1	0	3	0
25	267	1	10000	3	1	0	3	0
27	268	1	10000	3	1	0	3	0
26	269	1	10000	3	1	0	3	0
25	270	1	10000	3	1	0	3	0
26	270	1	10000	3	1	0	3	0
25	271	1	10000	3	1	0	3	0
25	273	1	10000	3	1	0	3	0
24	274	1	10000	3	1	0	3	0
25	275	1	10000	3	1	0	3	0
24	276	1	10000	3	1	0	3	0
25	277	1	10000	3	1	0	3	0
23	278	1	10000	3	1	0	3	0
23	279	1	10000	3	1	0	3	0
24	280	1	10000	3	1	0	3	0
24	280	1	10000	3	1	0	3	0
24	281	1	10000	3	1	0	3	0
23	283	1	10000	3	1	0	3	0
23	284	1	10000	3	1	0	3	0
23	285	1	10000	3	1	0	3	0
23	286	1	10000	3	1	0	3	0
22	287	1	10000	3	1	0	3	0
24	288	1	10000	3	1	0	3	0
23	289	1	10000	3	1	0	3	0
23	290	1	10000	3	1	0	3	0
23	290	1	10000	3	1	0	3	0
23	291	1	10000	3	1	0	3	0
22	293	1	10000	3	1	0	3	0
22	294	1	10000	3	1	0	3	0
22	295	1	10000	3	1	0	3	0
22	296	1	10000	3	1	0	3	0
22	297	1	10000	3	1	0	3	0
21	298	1	10000	3	1	0	3	0
21	299	1	10000	3	1	0	3	0
21	300	1	10000	3	1	0	3	0
21	300	1	10000	3	1	0	3	0
21	301	1	10000	3	1	0	3	0
21	303	1	10000	3	1	0	3	0
21	304	1	10000	3	1	0	3	0
20	305	1	10000	3	1	0	3	0
20	306	1	10000	3	1	0	3	0
20	307	1	10000	3	1	0	3	0
22	308	1	10000	3	1	0	3	0
21	309	1	10000	3	1	0	3	0
22	310	1	10000	3	1	0	3	0
20	310	1	10000	3	1	0	3	0
20	311	1	10000	3	1	0	3	0
20	313	1	10000	3	1	0	3	0
21	314	1	10000	3	1	0	3	0
23	315	1	10000	3	1	0	3	0
23	316	1	10000	3	1	0	3	0
22	317	1	10000	3	1	0	3	0
20	318	1	10000	3	1	0	3	0
19	319	1	10000	3	1	0	3	0
20	320	1	10000	3	1	0	3	0
20	320	1	10000	3	1	0	3	0
20	321	1	10000	3	1	0	3	0
19	323	1	10000	3	1	0	3	0
20	324	1	10000	3	1	0	3	0
20	325	1	10000	3	1	0	3	0
20	326	1	10000	3	1	0	3	0
20	327	1	10000	3	1	0	3	0
21	328	1	10000	3	1	0	3	0
21	329	1	10000	3	1	0	3	0
22	330	1	10000	3	1	0	3	0
23	330	1	10000	3	1	0	3	0
23	331	1	10000	3	1	0	3	0
22	333	1	10000	3	1	0	3	0
22	334	1	10000	3	1	0	3	0
22	335	1	10000	3	1	0	3	0
23	336	1	10000	3	1	0	3	0
23	337	1	10000	3	1	0	3	0
21	338	1	10000	3	1	0	3	0
22	339	1	10000	3	1	0	3	0
22	340	1	10000	3	1	0	3	0
22	340	1	10000	3	1	0	3	0
22	341	1	10000	3	1	0	3	0
22	343	1	10000	3	1	0	3	0
23	344	1	10000	3	1	0	3	0
22	345	1	10000	3	1	0	3	0
22	346	1	10000	3	1	0	3	0
21	347	1	10000	3	1	0	3	0
23	348	1	10000	3	1	0	3	0
23	349	1	10000	3	1	0	3	0
23	350	1	10000	3	1	0	3	0
22	350	1	10000	3	1	0	3	0
22	351	1	10000	3	1	0	3	0
23	353	1	10000	3	1	0	3	0
22	354	1	10000	3	1	0	3	0
22	355	1	10000	3	1	0	3	0
24	356	1	10000	3	1	0	3	0
25	357	1	10000	3	1	0	3	0
22	358	1	10000	3	1	0	3	0
23	359	1	10000	3	1	0	3	0
23	360	1	10000	3	1	0	3	0
22	360	1	10000	3	1	0	3	0
22	361	1	10000	3	1	0	3	0
22	363	1	10000	3	1	0	3	0
22	364	1	10000	3	1	0	3	0
22	365	1	10000	3	1	0	3	0
21	366	1	10000	3	1	0	3	0
20	367	1	10000	3	1	0	3	0
21	368	1	10000	3	1	0	3	0
21	369	1	10000	3	1	0	3	0
21	370	1	10000	3	1	0	3	0
20	370	1	10000	3	1	0	3	0
20	371	1	10000	3	1	0	3	0
20	373	1	10000	3	1	0	3	0
19	374	1	10000	3	1	0	3	0
19	375	1	10000	3	1	0	3	0
20	376	1	10000	3	1	0	3	0
20	377	1	10000	3	1	0	3	0
20	378	1	10000	3	1	0	3	0
20	379	1	10000	3	1	0	3	0
19	380	1	10000	3	1	0	3	0
19	380	1	10000	3	1	0	3	0
20	381	1	10000	3	1	0	3	0
19	383	1	10000	3	1	0	3	0
20	384	1	10000	3	1	0	3	0
20	385	1	10000	3	1	0	3	0
19	386	1	10000	3	1	0	3	0
19	387	1	10000	3	1	0	3	0
21	388	1	10000	3	1	0	3	0
20	389	1	10000	3	1	0	3	0
20	390	1	10000	3	1	0	3	0
20	390	1	10000	3	1	0	3	0
19	391	1	10000	3	1	0	3	0
20	393	1	10000	3	1	0	3	0
19	394	1	10000	3	1	0	3	0
21	395	1	10000	3	1	0	3	0
23	396	1	10000	3	1	0	3	0
24	397	1	10000	3	1	0	3	0
23	398	1	10000	3	1	0	3	0
23	399	1	10000	3	1	0	3	0
24	400	1	10000	3	1	0	3	0
24	400	1	10000	3	1	0	3	0
24	401	1	10000	3	1	0	3	0
24	403	1	10000	3	1	0	3	0
24	404	1	10000	3	1	0	3	0
24	405	1	10000	3	1	0	3	0
22	406	1	10000	3	1	0	3	0
21	407	1	10000	3	1	0	3	0
24	408	1	10000	3	1	0	3	0
23	409	1	10000	3	1	0	3	0
22	410	1	10000	3	1	0	3	0
22	410	1	10000	3	1	0	3	0
21	411	1	10000	3	1	0	3	0
22	413	1	10000	3	1	0	3	0
23	414	1	10000	3	1	0	3	0
23	415	1	10000	3	1	0	3	0
24	416	1	10000	3	1	0	3	0
24	417	1	10000	3	1	0	3	0
21	418	1	10000	3	1	0	3	0
22	419	1	10000	3	1	0	3	0
23	420	1	10000	3	1	0	3	0
23	420	1	10000	3	1	0	3	0
22	421	1	10000	3	1	0	3	0
23	423	1	10000	3	1	0	3	0
24	424	1	10000	3	1	0	3	0
25	425	1	10000	3	1	0	3	0
25	426	1	10000	3	1	0	3	0
27	427	1	10000	3	1	0	3	0
28	428	1	10000	3	1	0	3	0
28	429	1	10000	3	1	0	3	0
27	430	1	10000	3	1	0	3	0
26	430	1	10000	3	1	0	3	0
26	431	1	10000	3	1	0	3	0
26	433	1	10000	3	1	0	3	0
26	434	1	10000	3	1	0	3	0
26	435	1	10000	3	1	0	3	0
26	436	1	10000	3	1	0	3	0
26	437	1	10000	3	1	0	3	0
24	438	1	10000	3	1	0	3	0
23	439	1	10000	3	1	0	3	0
24	440	1	10000	3	1	0	3	0
23	440	1	10000	3	1	0	3	0
23	441	1	10000	3	1	0	3	0
23	443	1	10000	3	1	0	3	0
22	444	1	10000	3	1	0	3	0
21	445	1	10000	3	1	0	3	0
20	446	1	10000	3	1	0	3	0
20	447	1	10000	3	1	0	3	0
21	448	1	10000	3	1	0	3	0
21	449	1	10000	3	1	0	3	0
20	450	1	10000	3	1	0	3	0
20	450	1	10000	3	1	0	3	0
20	451	1	10000	3	1	0	3	0
20	453	1	10000	3	1	0	3	0
19	454	1	10000	3	1	0	3	0
20	455	1	10000	3	1	0	3	0
20	456	1	10000	3	1	0	3	0
20	457	1	10000	3	1	0	3	0
18	458	1	10000	3	1	0	3	0
19	459	1	10000	3	1	0	3	0
20	460	1	10000	3	1	0	3	0
20	460	1	10000	3	1	0	3	0
20	461	1	10000	3	1	0	3	0
20	463	1	10000	3	1	0	3	0
21	464	1	10000	3	1	0	3	0
20	465	1	10000	3	1	0	3	0
21	466	1	10000	3	1	0	3	0
20	467	1	10000	3	1	0	3	0
21	468	1	10000	3	1	0	3	0
22	469	1	10000	3	1	0	3	0
20	470	1	10000	3	1	0	3	0
19	470	1	10000	3	1	0	3	0
20	471	1	10000	3	1	0	3	0
20	473	1	10000	3	1	0	3	0
19	474	1	10000	3	1	0	3	0
20	475	1	10000	3	1	0	3	0
20	476	1	10000	3	1	0	3	0
20	477	1	10000	3	1	0	3	0
18	478	1	10000	3	1	0	3	0
18	479	1	10000	3	1	0	3	0
18	480	1	10000	3	1	0	3	0
18	480	1	10000	3	1	0	3	0
18	481	1	10000	3	1	0	3	0
17	483	1	10000	3	1	0	3	0
18	484	1	10000	3	1	0	3	0
17	485	1	10000	3	1	0	3	0
18	486	1	10000	3	1	0	3	0
17	487	1	10000	3	1	0	3	0
19	488	1	10000	3	1	0	3	0
19	489	1	10000	3	1	0	3	0
19	490	1	10000	3	1	0	3	0
19	490	1	10000	3	1	0	3	0
20	491	1	10000	3	1	0	3	0
19	493	1	10000	3	1	0	3	0
18	494	1	10000	3	1	0	3	0
20	495	1	10000	3	1	0	3	0
19	496	1	10000	3	1	0	3	0
19	497	1	10000	3	1	0	3	0
19	498	1	10000	3	1	0	3	0
18	499	1	10000	3	1	0	3	0
18	500	1	10000	3	1	0	3	0
19	500	1	10000	3	1	0	3	0
19	501	1	10000	3	1	0	3	0
18	503	1	10000	3	1	0	3	1
20	504	1	10000	3	1	0	3	1
21	505	1	10000	3	1	0	3	1
21	506	1	10000	3	1	0	3	1
21	507	1	10000	3	1	0	3	1
23	508	1	10000	3	1	0	3	1
22	509	1	10000	3	1	0	3	1
23	510	1	10000	3	1	0	3	1
22	510	1	10000	3	1	0	3	1
22	511	1	10000	3	1	0	3	1
22	513	1	10000	3	1	0	3	1
22	514	1	10000	3	1	0	3	1
22	515	1	10000	3	1	0	3	1
22	516	1	10000	3	1	0	3	1
23	517	1	10000	3	1	0	3	1
21	518	1	10000	3	1	0	3	1
21	519	1	10000	3	1	0	3	1
20	520	1	10000	3	1	0	3	1
20	520	1	10000	3	1	0	3	1
20	521	1	10000	3	1	0	3	1
20	523	1	10000	3	1	0	3	1
20	524	1	10000	3	1	0	3	1
19	525	1	10000	3	1	0	3	1
18	526	1	10000	3	1	0	3	1
19	527	1	10000	3	1	0	3	1
20	528	1	10000	3	1	0	3	1
20	529	1	10000	3	1	0	3	1
20	530	1	10000	3	1	0	3	1
19	530	1	10000	3	1	0	3	1
20	531	1	10000	3	1	0	3	1
20	533	1	10000	3	1	0	3	1
22	534	1	10000	3	1	0	3	1
23	535	1	10000	3	1	0	3	1
23	536	1	10000	3	1	0	3	1
24	537	1	10000	3	1	0	3	1
22	538	1	10000	3	1	0	3	1
22	539	1	10000	3	1	0	3	1
22	540	1	10000	3	1	0	3	1
22	540	1	10000	3	1	0	3	1
22	541	1	10000	3	1	0	3	1
21	543	1	10000	3	1	0	3	1
21	544	1	10000	3	1	0	3	1
20	545	1	10000	3	1	0	3	1
20	546	1	10000	3	1	0	3	1
20	547	1	10000	3	1	0	3	1
23	548	1	10000	3	1	0	3	1
23	549	1	10000	3	1	0	3	1
24	550	1	10000	3	1	0	3	1
23	550	1	10000	3	1	0	3	1
22	551	1	10000	3	1	0	3	1
22	553	1	10000	3	1	0	3	0
22	554	1	10000	3	1	0	3	0
22	555	1	10000	3	1	0	3	0
23	556	1	10000	3	1	0	3	0
22	557	1	10000	3	1	0	3	0
20	558	1	10000	3	1	0	3	0
20	559	1	10000	3	1	0	3	0
20	560	1	10000	3	1	0	3	0
21	560	1	10000	3	1	0	3	0
21	561	1	10000	3	1	0	3	0
21	563	1	10000	3	1	0	3	0
21	564	1	10000	3	1	0	3	0
21	565	1	10000	3	1	0	3	0
22	566	1	10000	3	1	0	3	0
21	567	1	10000	3	1	0	3	0
22	568	1	10000	3	1	0	3	0
21	569	1	10000	3	1	0	3	0
22	570	1	10000	3	1	0	3	0
23	570	1	10000	3	1	0	3	0
24	571	1	10000	3	1	0	3	0
24	573	1	10000	3	1	0	3	0
23	574	1	10000	3	1	0	3	0
23	575	1	10000	3	1	0	3	0
23	576	1	10000	3	1	0	3	0
26	577	1	10000	3	1	0	3	0
25	578	1	10000	3	1	0	3	0
25	579	1	10000	3	1	0	3	0
25	580	1	10000	3	1	0	3	0
24	580	1	10000	3	1	0	3	0
25	581	1	10000	3	1	0	3	0
23	583	1	10000	3	1	0	3	0
23	584	1	10000	3	1	0	3	0
24	585	1	10000	3	1	0	3	0
23	586	1	10000	3	1	0	3	0
23	587	1	10000	3	1	0	3	0
27	588	1	10000	3	1	0	3	0
28	589	1	10000	3	1	0	3	0
27	590	1	10000	3	1	0	3	0
27	590	1	10000	3	1	0	3	0
26	591	1	10000	3	1	0	3	0
28	593	1	10000	3	1	0	3	0
29	594	1	10000	3	1	0	3	0
29	595	1	10000	3	1	0	3	0
31	596	1	10000	3	1	0	3	0
35	597	1	10000	3	1	0	3	0
38	598	1	10000	3	1	0	3	0
46	599	1	10000	3	1	0	3	0
49	600	1	10000	3	1	0	3	0
59	600	1	10000	3	1	0	3	0
63	601	1	10000	3	1	0	3	0
62	603	1	10000	3	1	0	3	0
65	604	1	10000	3	1	0	3	0
75	605	1	10000	3	1	0	3	0
79	606	1	10000	3	1	0	3	0
89	607	1	10000	3	1	0	3	0
103	608	1	10000	3	1	0	3	0
108	609	1	10000	3	1	0	3	0
106	610	1	10000	3	1	0	3	0
110	610	1	10000	3	1	0	3	0
117	611	1	10000	3	1	0	3	0
122	613	1	10000	3	1	0	3	0
123	614	1	10000	3	1	0	3	0
119	615	1	10000	3	1	0	3	0
114	616	1	10000	3	1	0	3	0
112	617	1	10000	3	1	0	3	0
105	618	1	10000	3	1	0	3	0
101	619	1	10000	3	1	0	3	0
98	620	1	10000	3	1	0	3	0
93	620	1	10000	3	1	0	3	0
92	621	1	10000	3	1	0	3	0
93	623	1	10000	3	1	0	3	0
94	624	1	10000	3	1	0	3	0
96	625	1	10000	3	1	0	3	0
95	626	1	10000	3	1	0	3	0
92	627	1	10000	3	1	0	3	0
93	628	1	10000	3	1	0	3	0
90	629	1	10000	3	1	0	3	0
87	630	1	10000	3	1	0	3	0
87	630	1	10000	3	1	0	3	0
88	631	1	10000	3	1	0	3	0
89	633	1	10000	3	1	0	3	0
88	634	1	10000	3	1	0	3	0
86	635	1	10000	3	1	0	3	0
85	636	1	10000	3	1	0	3	0
84	637	1	10000	3	1	0	3	0
79	638	1	10000	3	1	0	3	0
76	639	1	10000	3	1	0	3	0
77	640	1	10000	3	1	0	3	0
75	640	1	10000	3	1	0	3	0
74	641	1	10000	3	1	0	3	0
73	643	1	10000	3	1	0	3	0
70	644	1	10000	3	1	0	3	0
67	645	1	10000	3	1	0	3	0
66	646	1	10000	3	1	0	3	0
63	647	1	10000	3	1	0	3	0
63	648	1	10000	3	1	0	3	0
62	649	1	10000	3	1	0	3	0
59	650	1	10000	3	1	0	3	0
59	650	1	10000	3	1	0	3	0
57	651	1	10000	3	1	0	3	0
55	653	1	10000	3	1	0	3	0
53	654	1	10000	3	1	0	3	0
52	655	1	10000	3	1	0	3	0
50	656	1	10000	3	1	0	3	0
49	657	1	10000	3	1	0	3	0
46	658	1	10000	3	1	0	3	0
45	659	1	10000	3	1	0	3	0
44	660	1	10000	3	1	0	3	0
43	660	1	10000	3	1	0	3	0
43	661	1	10000	3	1	0	3	0
44	663	1	10000	3	1	0	3	0
45	664	1	10000	3	1	0	3	0
44	665	1	10000	3	1	0	3	0
42	666	1	10000	3	1	0	3	0
41	667	1	10000	3	1	0	3	0
42	668	1	10000	3	1	0	3	0
43	669	1	10000	3	1	0	3	0
42	670	1	10000	3	1	0	3	0
40	670	1	10000	3	1	0	3	0
39	671	1	10000	3	1	0	3	0
37	673	1	10000	3	1	0	3	0
36	674	1	10000	3	1	0	3	0
36	675	1	10000	3	1	0	3	0
34	676	1	10000	3	1	0	3	0
35	677	1	10000	3	1	0	3	0
32	678	1	10000	3	1	0	3	0
31	679	1	10000	3	1	0	3	0
33	680	1	10000	3	1	0	3	0
34	680	1	10000	3	1	0	3	0
33	681	1	10000	3	1	0	3	0
35	683	1	10000	3	1	0	3	0
36	684	1	10000	3	1	0	3	0
35	685	1	10000	3	1	0	3	0
34	686	1	10000	3	1	0	3	0
33	687	1	10000	3	1	0	3	0
34	688	1	10000	3	1	0	3	0
34	689	1	10000	3	1	0	3	0
42	690	1	10000	3	1	0	3	0
47	690	1	10000	3	1	0	3	0
46	691	1	10000	3	1	0	3	0
47	693	1	10000	3	1	0	3	0
49	694	1	10000	3	1	0	3	0
52	695	1	10000	3	1	0	3	0
54	696	1	10000	3	1	0	3	0
53	697	1	10000	3	1	0	3	0
49	698	1	10000	3	1	0	3	0
47	699	1	10000	3	1	0	3	0
47	700	1	10000	3	1	0	3	0
47	700	1	10000	3	1	0	3	0
45	701	1	10000	3	1	0	3	0
44	703	1	10000	3	1	0	3	0
44	704	1	10000	3	1	0	3	0
42	705	1	10000	3	1	0	3	0
40	706	1	10000	3	1	0	3	0
40	707	1	10000	3	1	0	3	0
39	708	1	10000	3	1	0	3	0
39	709	1	10000	3	1	0	3	0
38	710	1	10000	3	1	0	3	0
36	710	1	10000	3	1	0	3	0
34	711	1	10000	3	1	0	3	0
34	713	1	10000	3	1	0	3	0
34	714	1	10000	3	1	0	3	0
39	715	1	10000	3	1	0	3	0
41	716	1	10000	3	1	0	3	0
40	717	1	10000	3	1	0	3	0
38	718	1	10000	3	1	0	3	0
38	719	1	10000	3	1	0	3	0
37	720	1	10000	3	1	0	3	0
37	720	1	10000	3	1	0	3	0
37	721	1	10000	3	1	0	3	0
37	723	1	10000	3	1	0	3	0
37	724	1	10000	3	1	0	3	0
36	725	1	10000	3	1	0	3	0
35	726	1	10000	3	1	0	3	0
35	727	1	10000	3	1	0	3	0
36	728	1	10000	3	1	0	3	0
35	729	1	10000	3	1	0	3	0
35	730	1	10000	3	1	0	3	0
34	730	1	10000	3	1	0	3	0
34	731	1	10000	3	1	0	3	0
35	733	1	10000	3	1	0	3	0
33	734	1	10000	3	1	0	3	0
33	735	1	10000	3	1	0	3	0
33	736	1	10000	3	1	0	3	0
32	737	1	10000	3	1	0	3	0
31	738	1	10000	3	1	0	3	0
32	739	1	10000	3	1	0	3	0
31	740	1	10000	3	1	0	3	0
31	740	1	10000	3	1	0	3	0
31	741	1	10000	3	1	0	3	0
29	743	1	10000	3	1	0	3	0
30	744	1	10000	3	1	0	3	0
29	745	1	10000	3	1	0	3	0
29	746	1	10000	3	1	0	3	0
29	747	1	10000	3	1	0	3	0
33	748	1	10000	3	1	0	3	0
34	749	1	10000	3	1	0	3	0
33	750	1	10000	3	1	0	3	0
32	750	1	10000	3	1	0	3	0
31	751	1	10000	3	1	0	3	0
32	753	1	10000	3	1	0	3	0
33	754	1	10000	3	1	0	3	0
33	755	1	10000	3	1	0	3	0
33	756	1	10000	3	1	0	3	0
33	757	1	10000	3	1	0	3	0
31	758	1	10000	3	1	0	3	0
30	759	1	10000	3	1	0	3	0
29	760	1	10000	3	1	0	3	0
29	760	1	10000	3	1	0	3	0
29	761	1	10000	3	1	0	3	0
29	763	1	10000	3	1	0	3	0
32	764	1	10000	3	1	0	3	0
32	765	1	10000	3	1	0	3	0
32	766	1	10000	3	1	0	3	0
33	767	1	10000	3	1	0	3	0
35	768	1	10000	3	1	0	3	0
35	769	1	10000	3	1	0	3	0
34	770	1	10000	3	1	0	3	0
34	770	1	10000	3	1	0	3	0
32	771	1	10000	3	1	0	3	0
32	773	1	10000	3	1	0	3	0
32	774	1	10000	3	1	0	3	0
32	775	1	10000	3	1	0	3	0
31	776	1	10000	3	1	0	3	0
32	777	1	10000	3	1	0	3	0
31	778	1	10000	3	1	0	3	0
29	779	1	10000	3	1	0	3	0
29	780	1	10000	3	1	0	3	0
28	780	1	10000	3	1	0	3	0
29	781	1	10000	3	1	0	3	0
28	783	1	10000	3	1	0	3	0
28	784	1	10000	3	1	0	3	0
27	785	1	10000	3	1	0	3	0
26	786	1	10000	3	1	0	3	0
25	787	1	10000	3	1	0	3	0
26	788	1	10000	3	1	0	3	0
25	789	1	10000	3	1	0	3	0
25	790	1	10000	3	1	0	3	0
28	790	1	10000	3	1	0	3	0
31	791	1	10000	3	1	0	3	0
31	793	1	10000	3	1	0	3	0
32	794	1	10000	3	1	0	3	0
33	795	1	10000	3	1	0	3	0
34	796	1	10000	3	1	0	3	0
35	797	1	10000	3	1	0	3	0
33	798	1	10000	3	1	0	3	0
33	799	1	10000	3	1	0	3	0
33	800	1	10000	3	1	0	3	0
34	800	1	10000	3	1	0	3	0
35	801	1	10000	3	1	0	3	0
35	803	1	10000	3	1	0	3	0
36	804	1	10000	3	1	0	3	0
36	805	1	10000	3	1	0	3	0
35	806	1	10000	3	1	0	3	0
33	807	1	10000	3	1	0	3	0
34	808	1	10000	3	1	0	3	0
33	809	1	10000	3	1	0	3	0
32	810	1	10000	3	1	0	3	0
32	810	1	10000	3	1	0	3	0
33	811	1	10000	3	1	0	3	0
34	813	1	10000	3	1	0	3	0
34	814	1	10000	3	1	0	3	0
34	815	1	10000	3	1	0	3	0
33	816	1	10000	3	1	0	3	0
34	817	1	10000	3	1	0	3	0
31	818	1	10000	3	1	0	3	0
30	819	1	10000	3	1	0	3	0
30	820	1	10000	3	1	0	3	0
29	820	1	10000	3	1	0	3	0
29	821	1	10000	3	1	0	3	0
29	823	1	10000	3	1	0	3	0
28	824	1	10000	3	1	0	3	0
29	825	1	10000	3	1	0	3	0
29	826	1	10000	3	1	0	3	0
27	827	1	10000	3	1	0	3	0
29	828	1	10000	3	1	0	3	0
30	829	1	10000	3	1	0	3	0
29	830	1	10000	3	1	0	3	0
29	830	1	10000	3	1	0	3	0
29	831	1	10000	3	1	0	3	0
30	833	1	10000	3	1	0	3	0
31	834	1	10000	3	1	0	3	0
32	835	1	10000	3	1	0	3	0
31	836	1	10000	3	1	0	3	0
32	837	1	10000	3	1	0	3	0
31	838	1	10000	3	1	0	3	0
30	839	1	10000	3	1	0	3	0
30	840	1	10000	3	1	0	3	0
31	840	1	10000	3	1	0	3	0
31	841	1	10000	3	1	0	3	0
30	843	1	10000	3	1	0	3	0
29	844	1	10000	3	1	0	3	0
28	845	1	10000	3	1	0	3	0
27	846	1	10000	3	1	0	3	0
26	847	1	10000	3	1	0	3	0
27	848	1	10000	3	1	0	3	0
27	849	1	10000	3	1	0	3	0
26	850	1	10000	3	1	0	3	0
25	850	1	10000	3	1	0	3	0
25	851	1	10000	3	1	0	3	0
24	853	1	10000	3	1	0	3	0
24	854	1	10000	3	1	0	3	0
24	855	1	10000	3	1	0	3	0
23	856	1	10000	3	1	0	3	0
23	857	1	10000	3	1	0	3	0
22	858	1	10000	3	1	0	3	0
21	859	1	10000	3	1	0	3	0
21	860	1	10000	3	1	0	3	0
21	860	1	10000	3	1	0	3	0
21	861	1	10000	3	1	0	3	0
21	863	1	10000	3	1	0	3	0
23	864	1	10000	3	1	0	3	0
22	865	1	10000	3	1	0	3	0
23	866	1	10000	3	1	0	3	0
24	867	1	10000	3	1	0	3	0
26	868	1	10000	3	1	0	3	0
26	869	1	10000	3	1	0	3	0
25	870	1	10000	3	1	0	3	0
26	870	1	10000	3	1	0	3	0
25	871	1	10000	3	1	0	3	0
25	873	1	10000	3	1	0	3	0
24	874	1	10000	3	1	0	3	0
24	875	1	10000	3	1	0	3	0
24	876	1	10000	3	1	0	3	0
24	877	1	10000	3	1	0	3	0
23	878	1	10000	3	1	0	3	0
21	879	1	10000	3	1	0	3	0
21	880	1	10000	3	1	0	3	0
22	880	1	10000	3	1	0	3	0
21	881	1	10000	3	1	0	3	0
21	883	1	10000	3	1	0	3	0
23	884	1	10000	3	1	0	3	0
25	885	1	10000	3	1	0	3	0
27	886	1	10000	3	1	0	3	0
27	887	1	10000	3	1	0	3	0
28	888	1	10000	3	1	0	3	0
28	889	1	10000	3	1	0	3	0
27	890	1	10000	3	1	0	3	0
26	890	1	10000	3	1	0	3	0
25	891	1	10000	3	1	0	3	0
25	893	1	10000	3	1	0	3	0
25	894	1	10000	3	1	0	3	0
26	895	1	10000	3	1	0	3	0
26	896	1	10000	3	1	0	3	0
27	897	1	10000	3	1	0	3	0
25	898	1	10000	3	1	0	3	0
24	899	1	10000	3	1	0	3	0
26	900	1	10000	3	1	0	3	0
28	900	1	10000	3	1	0	3	0
30	901	1	10000	3	1	0	3	0
30	903	1	10000	3	1	0	3	0
30	904	1	10000	3	1	0	3	0
30	905	1	10000	3	1	0	3	0
29	906	1	10000	3	1	0	3	0
30	907	1	10000	3	1	0	3	0
32	908	1	10000	3	1	0	3	0
33	909	1	10000	3	1	0	3	0
32	910	1	10000	3	1	0	3	0
31	910	1	10000	3	1	0	3	0
31	911	1	10000	3	1	0	3	0
31	913	1	10000	3	1	0	3	0
30	914	1	10000	3	1	0	3	0
29	915	1	10000	3	1	0	3	0
30	916	1	10000	3	1	0	3	0
31	917	1	10000	3	1	0	3	0
29	918	1	10000	3	1	0	3	0
28	919	1	10000	3	1	0	3	0
27	920	1	10000	3	1	0	3	0
27	920	1	10000	3	1	0	3	0
27	921	1	10000	3	1	0	3	0
25	923	1	10000	3	1	0	3	0
26	924	1	10000	3	1	0	3	0
26	925	1	10000	3	1	0	3	0
25	926	1	10000	3	1	0	3	0
24	927	1	10000	3	1	0	3	0
25	928	1	10000	3	1	0	3	0
25	938	1	10000	3	1	0	3	0
25	939	1	10000	3	1	0	3	0
24	940	1	10000	3	1	0	3	0
26	941	1	10000	3	1	0	3	0
26	942	1	10000	3	1	0	3	0
26	943	1	10000	3	1	0	3	0
26	944	1	10000	3	1	0	3	0
27	945	1	10000	3	1	0	3	0
29	946	1	10000	3	1	0	3	0
27	947	1	10000	3	1	0	3	0
26	946	1	10000	3	1	0	3	0
25	947	1	10000	3	1	0	3	0
25	948	1	10000	3	1	0	3	0
26	949	1	10000	3	1	0	3	0
27	950	1	10000	3	1	0	3	0
28	951	1	10000	3	1	0	3	0
27	952	1	10000	3	1	0	3	0
28	953	1	10000	3	1	0	3	0
28	954	1	10000	3	1	0	3	0
31	955	1	10000	3	1	0	3	0
32	953	1	10000	3	1	0	3	0
32	954	1	10000	3	1	0	3	0
32	955	1	10000	3	1	0	3	0
30	956	1	10000	3	1	0	3	0
29	957	1	10000	3	1	0	3	0
29	958	1	10000	3	1	0	3	0
29	961	1	10000	3	1	0	3	0
30	962	1	10000	3	1	0	3	0
30	963	1	10000	3	1	0	3	0
28	964	1	10000	3	1	0	3	0
26	965	1	10000	3	1	0	3	0
26	966	1	10000	3	1	0	3	0
26	967	1	10000	3	1	0	3	0
27	968	1	10000	3	1	0	3	0
26	967	1	10000	3	1	0	3	0
26	968	1	10000	3	1	0	3	0
25	969	1	10000	3	1	0	3	0
24	970	1	10000	3	1	0	3	0
23	971	1	10000	3	1	0	3	0
25	972	1	10000	3	1	0	3	0
25	971	1	10000	3	1	0	3	0
25	972	1	10000	3	1	0	3	0
25	973	1	10000	3	1	0	3	0
23	974	1	10000	3	1	0	3	0
23	978	1	10000	3	1	0	3	0
23	979	1	10000	3	1	0	3	0
23	980	1	10000	3	1	0	3	0
24	981	1	10000	3	1	0	3	0
24	982	1	10000	3	1	0	3	0
24	983	1	10000	3	1	0	3	0
25	984	1	10000	3	1	0	3	0
26	985	1	10000	3	1	0	3	0
27	982	1	10000	3	1	0	3	0
30	983	1	10000	3	1	0	3	0
32	984	1	10000	3	1	0	3	0
32	985	1	10000	3	1	0	3	0
31	988	1	10000	3	1	0	3	0
30	989	1	10000	3	1	0	3	0
32	990	1	10000	3	1	0	3	0
36	991	1	10000	3	1	0	3	0
38	993	1	10000	3	1	0	3	0
37	994	1	10000	3	1	0	3	0
36	995	1	10000	3	1	0	3	0
35	996	1	10000	3	1	0	3	0
34	997	1	10000	3	1	0	3	0
37	998	1	10000	3	1	0	3	0
37	1000	1	10000	3	1	0	3	0
36	1001	1	10000	3	1	0	3	0
36	1002	1	10000	3	1	0	3	0
34	1003	1	10000	3	1	0	3	0
35	1004	1	10000	3	1	0	3	0
38	1005	1	10000	3	1	0	3	0
37	1006	1	10000	3	1	0	3	0
36	1007	1	10000	3	1	0	3	0
17	5	1	10000	4	1	0	4	0
17	6	1	10000	4	1	0	4	0
18	7	1	10000	4	1	0	4	0
19	8	1	10000	4	1	0	4	0
20	11	1	10000	4	1	0	4	0
20	12	1	10000	4	1	0	4	0
20	13	1	10000	4	1	0	4	0
20	14	1	10000	4	1	0	4	0
19	15	1	10000	4	1	0	4	0
17	16	1	10000	4	1	0	4	0
18	16	1	10000	4	1	0	4	0
18	17	1	10000	4	1	0	4	0
18	18	1	10000	4	1	0	4	0
18	19	1	10000	4	1	0	4	0
17	20	1	10000	4	1	0	4	0
18	21	1	10000	4	1	0	4	0
17	21	1	10000	4	1	0	4	0
17	22	1	10000	4	1	0	4	0
18	23	1	10000	4	1	0	4	0
18	24	1	10000	4	1	0	4	0
17	28	1	10000	4	1	0	4	0
18	29	1	10000	4	1	0	4	0
17	30	1	10000	4	1	0	4	0
17	31	1	10000	4	1	0	4	0
17	32	1	10000	4	1	0	4	0
16	33	1	10000	4	1	0	4	0
17	34	1	10000	4	1	0	4	0
17	35	1	10000	4	1	0	4	0
17	32	1	10000	4	1	0	4	0
15	33	1	10000	4	1	0	4	0
15	34	1	10000	4	1	0	4	0
17	35	1	10000	4	1	0	4	0
19	39	1	10000	4	1	0	4	0
19	40	1	10000	4	1	0	4	0
21	41	1	10000	4	1	0	4	0
21	42	1	10000	4	1	0	4	0
20	43	1	10000	4	1	0	4	0
20	44	1	10000	4	1	0	4	0
19	44	1	10000	4	1	0	4	0
21	45	1	10000	4	1	0	4	0
22	46	1	10000	4	1	0	4	0
22	47	1	10000	4	1	0	4	0
22	48	1	10000	4	1	0	4	0
22	49	1	10000	4	1	0	4	0
22	50	1	10000	4	1	0	4	0
20	51	1	10000	4	1	0	4	0
21	52	1	10000	4	1	0	4	0
21	53	1	10000	4	1	0	4	0
20	54	1	10000	4	1	0	4	0
19	55	1	10000	4	1	0	4	0
20	55	1	10000	4	1	0	4	0
20	56	1	10000	4	1	0	4	0
19	57	1	10000	4	1	0	4	0
20	58	1	10000	4	1	0	4	0
19	60	1	10000	4	1	0	4	0
19	61	1	10000	4	1	0	4	0
18	62	1	10000	4	1	0	4	0
18	63	1	10000	4	1	0	4	0
18	64	1	10000	4	1	0	4	0
20	65	1	10000	4	1	0	4	0
19	66	1	10000	4	1	0	4	0
19	67	1	10000	4	1	0	4	0
18	68	1	10000	4	1	0	4	0
18	69	1	10000	4	1	0	4	0
19	70	1	10000	4	1	0	4	0
18	71	1	10000	4	1	0	4	0
18	71	1	10000	4	1	0	4	0
18	72	1	10000	4	1	0	4	0
19	73	1	10000	4	1	0	4	0
16	74	1	10000	4	1	0	4	0
17	72	1	10000	4	1	0	4	0
17	73	1	10000	4	1	0	4	0
17	75	1	10000	4	1	0	4	0
17	76	1	10000	4	1	0	4	0
17	77	1	10000	4	1	0	4	0
17	78	1	10000	4	1	0	4	0
16	79	1	10000	4	1	0	4	0
15	80	1	10000	4	1	0	4	0
16	81	1	10000	4	1	0	4	0
18	82	1	10000	4	1	0	4	0
17	83	1	10000	4	1	0	4	0
17	84	1	10000	4	1	0	4	0
17	85	1	10000	4	1	0	4	0
15	86	1	10000	4	1	0	4	0
15	87	1	10000	4	1	0	4	0
15	88	1	10000	4	1	0	4	0
16	89	1	10000	4	1	0	4	0
16	90	1	10000	4	1	0	4	0
16	91	1	10000	4	1	0	4	0
14	92	1	10000	4	1	0	4	0
14	93	1	10000	4	1	0	4	0
15	94	1	10000	4	1	0	4	0
15	95	1	10000	4	1	0	4	0
16	96	1	10000	4	1	0	4	0
17	97	1	10000	4	1	0	4	0
18	98	1	10000	4	1	0	4	0
18	99	1	10000	4	1	0	4	0
18	100	1	10000	4	1	0	4	0
18	101	1	10000	4	1	0	4	0
20	102	1	10000	4	1	0	4	0
21	103	1	10000	4	1	0	4	0
21	104	1	10000	4	1	0	4	0
20	105	1	10000	4	1	0	4	0
20	106	1	10000	4	1	0	4	0
20	107	1	10000	4	1	0	4	0
19	108	1	10000	4	1	0	4	0
19	109	1	10000	4	1	0	4	0
19	110	1	10000	4	1	0	4	0
19	111	1	10000	4	1	0	4	0
17	112	1	10000	4	1	0	4	0
19	113	1	10000	4	1	0	4	0
20	114	1	10000	4	1	0	4	0
20	115	1	10000	4	1	0	4	0
19	116	1	10000	4	1	0	4	0
20	117	1	10000	4	1	0	4	0
19	118	1	10000	4	1	0	4	0
18	119	1	10000	4	1	0	4	0
18	120	1	10000	4	1	0	4	0
17	121	1	10000	4	1	0	4	0
19	122	1	10000	4	1	0	4	0
18	123	1	10000	4	1	0	4	0
18	124	1	10000	4	1	0	4	0
18	125	1	10000	4	1	0	4	0
18	126	1	10000	4	1	0	4	0
18	127	1	10000	4	1	0	4	0
16	128	1	10000	4	1	0	4	0
17	129	1	10000	4	1	0	4	0
17	130	1	10000	4	1	0	4	0
17	131	1	10000	4	1	0	4	0
15	132	1	10000	4	1	0	4	0
15	133	1	10000	4	1	0	4	0
16	134	1	10000	4	1	0	4	0
17	135	1	10000	4	1	0	4	0
20	136	1	10000	4	1	0	4	0
23	137	1	10000	4	1	0	4	0
24	138	1	10000	4	1	0	4	0
22	139	1	10000	4	1	0	4	0
26	140	1	10000	4	1	0	4	0
29	141	1	10000	4	1	0	4	0
32	142	1	10000	4	1	0	4	0
39	143	1	10000	4	1	0	4	0
52	144	1	10000	4	1	0	4	0
66	145	1	10000	4	1	0	4	0
75	146	1	10000	4	1	0	4	0
78	147	1	10000	4	1	0	4	0
75	148	1	10000	4	1	0	4	0
90	149	1	10000	4	1	0	4	0
134	150	1	10000	4	1	0	4	0
154	151	1	10000	4	1	0	4	0
164	152	1	10000	4	1	0	4	0
182	153	1	10000	4	1	0	4	0
191	154	1	10000	4	1	0	4	0
195	155	1	10000	4	1	0	4	0
197	156	1	10000	4	1	0	4	0
194	157	1	10000	4	1	0	4	0
189	158	1	10000	4	1	0	4	0
189	159	1	10000	4	1	0	4	0
188	160	1	10000	4	1	0	4	0
195	161	1	10000	4	1	0	4	0
194	162	1	10000	4	1	0	4	0
188	163	1	10000	4	1	0	4	0
192	164	1	10000	4	1	0	4	0
228	165	1	10000	4	1	0	4	0
238	166	1	10000	4	1	0	4	0
255	167	1	10000	4	1	0	4	0
276	168	1	10000	4	1	0	4	0
279	169	1	10000	4	1	0	4	0
270	170	1	10000	4	1	0	4	0
267	171	1	10000	4	1	0	4	0
269	172	1	10000	4	1	0	4	0
269	173	1	10000	4	1	0	4	0
261	174	1	10000	4	1	0	4	0
251	175	1	10000	4	1	0	4	0
245	176	1	10000	4	1	0	4	0
247	177	1	10000	4	1	0	4	0
249	178	1	10000	4	1	0	4	0
252	179	1	10000	4	1	0	4	0
245	180	1	10000	4	1	0	4	0
242	181	1	10000	4	1	0	4	0
242	182	1	10000	4	1	0	4	0
242	183	1	10000	4	1	0	4	0
240	184	1	10000	4	1	0	4	0
231	185	1	10000	4	1	0	4	0
224	186	1	10000	4	1	0	4	0
216	187	1	10000	4	1	0	4	0
207	188	1	10000	4	1	0	4	0
201	189	1	10000	4	1	0	4	0
202	190	1	10000	4	1	0	4	0
200	191	1	10000	4	1	0	4	0
193	192	1	10000	4	1	0	4	0
185	193	1	10000	4	1	0	4	0
179	194	1	10000	4	1	0	4	0
178	195	1	10000	4	1	0	4	0
176	196	1	10000	4	1	0	4	0
172	197	1	10000	4	1	0	4	0
167	198	1	10000	4	1	0	4	0
158	199	1	10000	4	1	0	4	0
153	200	1	10000	4	1	0	4	0
151	201	1	10000	4	1	0	4	0
147	202	1	10000	4	1	0	4	0
140	203	1	10000	4	1	0	4	0
136	204	1	10000	4	1	0	4	0
130	205	1	10000	4	1	0	4	0
125	206	1	10000	4	1	0	4	0
121	207	1	10000	4	1	0	4	0
117	208	1	10000	4	1	0	4	0
114	209	1	10000	4	1	0	4	0
111	210	1	10000	4	1	0	4	0
109	211	1	10000	4	1	0	4	0
107	212	1	10000	4	1	0	4	0
105	213	1	10000	4	1	0	4	0
101	214	1	10000	4	1	0	4	0
98	215	1	10000	4	1	0	4	0
98	216	1	10000	4	1	0	4	0
98	217	1	10000	4	1	0	4	0
99	218	1	10000	4	1	0	4	0
96	219	1	10000	4	1	0	4	0
92	220	1	10000	4	1	0	4	0
88	221	1	10000	4	1	0	4	0
91	222	1	10000	4	1	0	4	0
90	223	1	10000	4	1	0	4	0
88	224	1	10000	4	1	0	4	0
84	225	1	10000	4	1	0	4	0
84	226	1	10000	4	1	0	4	0
86	227	1	10000	4	1	0	4	0
87	228	1	10000	4	1	0	4	0
88	229	1	10000	4	1	0	4	0
88	230	1	10000	4	1	0	4	0
84	231	1	10000	4	1	0	4	0
81	232	1	10000	4	1	0	4	0
82	233	1	10000	4	1	0	4	0
82	234	1	10000	4	1	0	4	0
82	235	1	10000	4	1	0	4	0
80	236	1	10000	4	1	0	4	0
81	237	1	10000	4	1	0	4	0
84	238	1	10000	4	1	0	4	0
84	239	1	10000	4	1	0	4	0
80	240	1	10000	4	1	0	4	0
79	241	1	10000	4	1	0	4	0
84	242	1	10000	4	1	0	4	0
87	243	1	10000	4	1	0	4	0
86	244	1	10000	4	1	0	4	0
84	245	1	10000	4	1	0	4	0
80	246	1	10000	4	1	0	4	0
78	247	1	10000	4	1	0	4	0
75	248	1	10000	4	1	0	4	0
75	249	1	10000	4	1	0	4	0
78	250	1	10000	4	1	0	4	0
80	251	1	10000	4	1	0	4	0
81	252	1	10000	4	1	0	4	0
86	253	1	10000	4	1	0	4	0
87	254	1	10000	4	1	0	4	0
88	255	1	10000	4	1	0	4	0
88	256	1	10000	4	1	0	4	0
86	257	1	10000	4	1	0	4	0
85	258	1	10000	4	1	0	4	0
83	259	1	10000	4	1	0	4	0
80	260	1	10000	4	1	0	4	0
79	261	1	10000	4	1	0	4	0
81	262	1	10000	4	1	0	4	0
82	263	1	10000	4	1	0	4	0
83	264	1	10000	4	1	0	4	0
83	265	1	10000	4	1	0	4	0
85	266	1	10000	4	1	0	4	0
87	267	1	10000	4	1	0	4	0
88	268	1	10000	4	1	0	4	0
90	269	1	10000	4	1	0	4	0
91	270	1	10000	4	1	0	4	0
92	271	1	10000	4	1	0	4	0
92	272	1	10000	4	1	0	4	0
93	273	1	10000	4	1	0	4	0
94	274	1	10000	4	1	0	4	0
95	275	1	10000	4	1	0	4	0
96	276	1	10000	4	1	0	4	0
95	277	1	10000	4	1	0	4	0
95	278	1	10000	4	1	0	4	0
95	279	1	10000	4	1	0	4	0
94	280	1	10000	4	1	0	4	0
94	281	1	10000	4	1	0	4	0
94	282	1	10000	4	1	0	4	0
92	283	1	10000	4	1	0	4	0
91	284	1	10000	4	1	0	4	0
91	285	1	10000	4	1	0	4	0
89	286	1	10000	4	1	0	4	0
87	287	1	10000	4	1	0	4	0
87	288	1	10000	4	1	0	4	0
85	289	1	10000	4	1	0	4	0
82	290	1	10000	4	1	0	4	0
80	291	1	10000	4	1	0	4	0
75	292	1	10000	4	1	0	4	0
73	293	1	10000	4	1	0	4	0
70	294	1	10000	4	1	0	4	0
69	295	1	10000	4	1	0	4	0
67	296	1	10000	4	1	0	4	0
64	297	1	10000	4	1	0	4	0
62	298	1	10000	4	1	0	4	0
60	299	1	10000	4	1	0	4	0
59	300	1	10000	4	1	0	4	0
57	301	1	10000	4	1	0	4	0
58	302	1	10000	4	1	0	4	0
56	303	1	10000	4	1	0	4	0
53	304	1	10000	4	1	0	4	0
53	305	1	10000	4	1	0	4	0
53	306	1	10000	4	1	0	4	0
52	307	1	10000	4	1	0	4	0
50	308	1	10000	4	1	0	4	0
50	309	1	10000	4	1	0	4	0
49	310	1	10000	4	1	0	4	0
48	311	1	10000	4	1	0	4	0
44	312	1	10000	4	1	0	4	0
43	313	1	10000	4	1	0	4	0
44	314	1	10000	4	1	0	4	0
43	315	1	10000	4	1	0	4	0
42	316	1	10000	4	1	0	4	0
44	317	1	10000	4	1	0	4	0
45	318	1	10000	4	1	0	4	0
43	319	1	10000	4	1	0	4	0
42	320	1	10000	4	1	0	4	0
40	321	1	10000	4	1	0	4	0
40	322	1	10000	4	1	0	4	0
40	323	1	10000	4	1	0	4	0
40	324	1	10000	4	1	0	4	0
39	325	1	10000	4	1	0	4	0
39	326	1	10000	4	1	0	4	0
38	327	1	10000	4	1	0	4	0
36	328	1	10000	4	1	0	4	0
36	329	1	10000	4	1	0	4	0
35	330	1	10000	4	1	0	4	0
34	331	1	10000	4	1	0	4	0
32	332	1	10000	4	1	0	4	0
32	333	1	10000	4	1	0	4	0
32	334	1	10000	4	1	0	4	0
31	335	1	10000	4	1	0	4	0
30	336	1	10000	4	1	0	4	0
30	337	1	10000	4	1	0	4	0
30	338	1	10000	4	1	0	4	0
30	339	1	10000	4	1	0	4	0
28	340	1	10000	4	1	0	4	0
28	341	1	10000	4	1	0	4	0
29	342	1	10000	4	1	0	4	0
28	343	1	10000	4	1	0	4	0
28	344	1	10000	4	1	0	4	0
29	345	1	10000	4	1	0	4	0
29	346	1	10000	4	1	0	4	0
27	347	1	10000	4	1	0	4	0
26	348	1	10000	4	1	0	4	0
27	349	1	10000	4	1	0	4	0
26	350	1	10000	4	1	0	4	0
26	351	1	10000	4	1	0	4	0
23	352	1	10000	4	1	0	4	0
23	353	1	10000	4	1	0	4	0
23	354	1	10000	4	1	0	4	0
22	355	1	10000	4	1	0	4	0
22	356	1	10000	4	1	0	4	0
22	357	1	10000	4	1	0	4	0
23	358	1	10000	4	1	0	4	0
21	359	1	10000	4	1	0	4	0
21	360	1	10000	4	1	0	4	0
21	361	1	10000	4	1	0	4	0
22	362	1	10000	4	1	0	4	0
22	363	1	10000	4	1	0	4	0
22	364	1	10000	4	1	0	4	0
21	365	1	10000	4	1	0	4	0
22	366	1	10000	4	1	0	4	0
23	367	1	10000	4	1	0	4	0
23	368	1	10000	4	1	0	4	0
23	369	1	10000	4	1	0	4	0
23	370	1	10000	4	1	0	4	0
23	371	1	10000	4	1	0	4	0
21	372	1	10000	4	1	0	4	0
21	373	1	10000	4	1	0	4	0
21	374	1	10000	4	1	0	4	0
22	375	1	10000	4	1	0	4	0
22	376	1	10000	4	1	0	4	0
21	377	1	10000	4	1	0	4	0
22	378	1	10000	4	1	0	4	0
21	379	1	10000	4	1	0	4	0
20	380	1	10000	4	1	0	4	0
20	381	1	10000	4	1	0	4	0
20	382	1	10000	4	1	0	4	0
23	383	1	10000	4	1	0	4	0
24	384	1	10000	4	1	0	4	0
23	385	1	10000	4	1	0	4	0
22	386	1	10000	4	1	0	4	0
22	387	1	10000	4	1	0	4	0
21	388	1	10000	4	1	0	4	0
21	389	1	10000	4	1	0	4	0
22	390	1	10000	4	1	0	4	0
22	391	1	10000	4	1	0	4	0
19	392	1	10000	4	1	0	4	0
19	393	1	10000	4	1	0	4	0
19	394	1	10000	4	1	0	4	0
20	395	1	10000	4	1	0	4	0
22	396	1	10000	4	1	0	4	0
22	397	1	10000	4	1	0	4	0
22	398	1	10000	4	1	0	4	0
21	399	1	10000	4	1	0	4	0
21	400	1	10000	4	1	0	4	0
21	401	1	10000	4	1	0	4	0
23	402	1	10000	4	1	0	4	0
22	403	1	10000	4	1	0	4	0
22	404	1	10000	4	1	0	4	0
20	405	1	10000	4	1	0	4	0
21	406	1	10000	4	1	0	4	0
23	407	1	10000	4	1	0	4	0
22	408	1	10000	4	1	0	4	0
21	409	1	10000	4	1	0	4	0
22	410	1	10000	4	1	0	4	0
23	411	1	10000	4	1	0	4	0
21	412	1	10000	4	1	0	4	0
21	413	1	10000	4	1	0	4	0
21	414	1	10000	4	1	0	4	0
21	415	1	10000	4	1	0	4	0
22	416	1	10000	4	1	0	4	0
21	417	1	10000	4	1	0	4	0
22	418	1	10000	4	1	0	4	0
22	419	1	10000	4	1	0	4	0
22	420	1	10000	4	1	0	4	0
21	421	1	10000	4	1	0	4	0
24	422	1	10000	4	1	0	4	0
23	423	1	10000	4	1	0	4	0
22	424	1	10000	4	1	0	4	0
23	425	1	10000	4	1	0	4	0
22	426	1	10000	4	1	0	4	0
22	427	1	10000	4	1	0	4	0
21	428	1	10000	4	1	0	4	0
21	429	1	10000	4	1	0	4	0
21	430	1	10000	4	1	0	4	0
21	431	1	10000	4	1	0	4	0
20	432	1	10000	4	1	0	4	0
20	433	1	10000	4	1	0	4	0
20	434	1	10000	4	1	0	4	0
20	435	1	10000	4	1	0	4	0
21	436	1	10000	4	1	0	4	0
21	437	1	10000	4	1	0	4	0
20	438	1	10000	4	1	0	4	0
20	439	1	10000	4	1	0	4	0
20	440	1	10000	4	1	0	4	0
21	441	1	10000	4	1	0	4	0
23	442	1	10000	4	1	0	4	0
22	443	1	10000	4	1	0	4	0
22	444	1	10000	4	1	0	4	0
21	445	1	10000	4	1	0	4	0
20	446	1	10000	4	1	0	4	0
20	447	1	10000	4	1	0	4	0
19	448	1	10000	4	1	0	4	0
19	449	1	10000	4	1	0	4	0
20	450	1	10000	4	1	0	4	0
20	451	1	10000	4	1	0	4	0
17	452	1	10000	4	1	0	4	0
17	453	1	10000	4	1	0	4	0
18	454	1	10000	4	1	0	4	0
18	455	1	10000	4	1	0	4	0
18	456	1	10000	4	1	0	4	0
18	457	1	10000	4	1	0	4	0
18	458	1	10000	4	1	0	4	0
17	459	1	10000	4	1	0	4	0
18	460	1	10000	4	1	0	4	0
19	461	1	10000	4	1	0	4	0
20	462	1	10000	4	1	0	4	0
20	463	1	10000	4	1	0	4	0
20	464	1	10000	4	1	0	4	0
21	465	1	10000	4	1	0	4	0
20	466	1	10000	4	1	0	4	0
20	467	1	10000	4	1	0	4	0
20	468	1	10000	4	1	0	4	0
21	469	1	10000	4	1	0	4	0
21	470	1	10000	4	1	0	4	0
23	471	1	10000	4	1	0	4	0
20	472	1	10000	4	1	0	4	0
20	473	1	10000	4	1	0	4	0
20	474	1	10000	4	1	0	4	0
20	475	1	10000	4	1	0	4	0
21	476	1	10000	4	1	0	4	0
20	477	1	10000	4	1	0	4	0
21	478	1	10000	4	1	0	4	0
21	479	1	10000	4	1	0	4	0
20	480	1	10000	4	1	0	4	0
20	481	1	10000	4	1	0	4	0
21	482	1	10000	4	1	0	4	0
21	483	1	10000	4	1	0	4	0
20	484	1	10000	4	1	0	4	0
19	485	1	10000	4	1	0	4	0
20	486	1	10000	4	1	0	4	0
19	487	1	10000	4	1	0	4	0
19	488	1	10000	4	1	0	4	0
19	489	1	10000	4	1	0	4	0
19	490	1	10000	4	1	0	4	0
20	491	1	10000	4	1	0	4	0
17	492	1	10000	4	1	0	4	0
17	493	1	10000	4	1	0	4	0
18	494	1	10000	4	1	0	4	0
18	495	1	10000	4	1	0	4	0
17	496	1	10000	4	1	0	4	0
19	497	1	10000	4	1	0	4	0
20	498	1	10000	4	1	0	4	0
19	499	1	10000	4	1	0	4	1
20	500	1	10000	4	1	0	4	1
19	501	1	10000	4	1	0	4	1
21	502	1	10000	4	1	0	4	1
21	503	1	10000	4	1	0	4	1
20	504	1	10000	4	1	0	4	1
20	505	1	10000	4	1	0	4	1
20	506	1	10000	4	1	0	4	1
20	507	1	10000	4	1	0	4	1
20	508	1	10000	4	1	0	4	1
20	509	1	10000	4	1	0	4	1
20	510	1	10000	4	1	0	4	1
21	511	1	10000	4	1	0	4	1
19	512	1	10000	4	1	0	4	1
20	513	1	10000	4	1	0	4	1
19	514	1	10000	4	1	0	4	1
20	515	1	10000	4	1	0	4	1
19	516	1	10000	4	1	0	4	1
19	517	1	10000	4	1	0	4	1
20	518	1	10000	4	1	0	4	1
20	519	1	10000	4	1	0	4	1
19	520	1	10000	4	1	0	4	1
19	521	1	10000	4	1	0	4	1
20	522	1	10000	4	1	0	4	1
20	523	1	10000	4	1	0	4	1
20	524	1	10000	4	1	0	4	1
19	525	1	10000	4	1	0	4	1
20	526	1	10000	4	1	0	4	1
19	527	1	10000	4	1	0	4	1
19	528	1	10000	4	1	0	4	1
19	529	1	10000	4	1	0	4	1
19	530	1	10000	4	1	0	4	1
19	531	1	10000	4	1	0	4	1
18	532	1	10000	4	1	0	4	1
19	533	1	10000	4	1	0	4	1
20	534	1	10000	4	1	0	4	1
21	535	1	10000	4	1	0	4	1
21	536	1	10000	4	1	0	4	1
20	537	1	10000	4	1	0	4	1
20	538	1	10000	4	1	0	4	1
19	539	1	10000	4	1	0	4	1
18	540	1	10000	4	1	0	4	1
20	541	1	10000	4	1	0	4	1
23	542	1	10000	4	1	0	4	1
23	543	1	10000	4	1	0	4	1
22	544	1	10000	4	1	0	4	1
23	545	1	10000	4	1	0	4	1
24	546	1	10000	4	1	0	4	1
24	547	1	10000	4	1	0	4	1
24	548	1	10000	4	1	0	4	1
27	549	1	10000	4	1	0	4	0
26	550	1	10000	4	1	0	4	0
25	551	1	10000	4	1	0	4	0
24	552	1	10000	4	1	0	4	0
24	553	1	10000	4	1	0	4	0
23	554	1	10000	4	1	0	4	0
25	555	1	10000	4	1	0	4	0
24	556	1	10000	4	1	0	4	0
23	557	1	10000	4	1	0	4	0
23	558	1	10000	4	1	0	4	0
21	559	1	10000	4	1	0	4	0
21	560	1	10000	4	1	0	4	0
20	561	1	10000	4	1	0	4	0
22	562	1	10000	4	1	0	4	0
21	563	1	10000	4	1	0	4	0
21	564	1	10000	4	1	0	4	0
23	565	1	10000	4	1	0	4	0
22	566	1	10000	4	1	0	4	0
22	567	1	10000	4	1	0	4	0
21	568	1	10000	4	1	0	4	0
21	569	1	10000	4	1	0	4	0
21	570	1	10000	4	1	0	4	0
21	571	1	10000	4	1	0	4	0
19	572	1	10000	4	1	0	4	0
19	573	1	10000	4	1	0	4	0
20	574	1	10000	4	1	0	4	0
19	575	1	10000	4	1	0	4	0
19	576	1	10000	4	1	0	4	0
20	577	1	10000	4	1	0	4	0
19	578	1	10000	4	1	0	4	0
18	579	1	10000	4	1	0	4	0
18	580	1	10000	4	1	0	4	0
19	581	1	10000	4	1	0	4	0
21	582	1	10000	4	1	0	4	0
21	583	1	10000	4	1	0	4	0
21	584	1	10000	4	1	0	4	0
21	585	1	10000	4	1	0	4	0
21	586	1	10000	4	1	0	4	0
22	587	1	10000	4	1	0	4	0
23	588	1	10000	4	1	0	4	0
25	589	1	10000	4	1	0	4	0
26	590	1	10000	4	1	0	4	0
26	591	1	10000	4	1	0	4	0
23	592	1	10000	4	1	0	4	0
23	593	1	10000	4	1	0	4	0
23	594	1	10000	4	1	0	4	0
23	595	1	10000	4	1	0	4	0
22	596	1	10000	4	1	0	4	0
22	597	1	10000	4	1	0	4	0
23	598	1	10000	4	1	0	4	0
23	599	1	10000	4	1	0	4	0
22	600	1	10000	4	1	0	4	0
22	601	1	10000	4	1	0	4	0
24	602	1	10000	4	1	0	4	0
29	603	1	10000	4	1	0	4	0
37	604	1	10000	4	1	0	4	0
41	605	1	10000	4	1	0	4	0
41	606	1	10000	4	1	0	4	0
44	607	1	10000	4	1	0	4	0
49	608	1	10000	4	1	0	4	0
52	609	1	10000	4	1	0	4	0
53	610	1	10000	4	1	0	4	0
57	611	1	10000	4	1	0	4	0
55	612	1	10000	4	1	0	4	0
54	613	1	10000	4	1	0	4	0
52	614	1	10000	4	1	0	4	0
53	615	1	10000	4	1	0	4	0
52	616	1	10000	4	1	0	4	0
50	617	1	10000	4	1	0	4	0
51	618	1	10000	4	1	0	4	0
56	619	1	10000	4	1	0	4	0
69	620	1	10000	4	1	0	4	0
78	621	1	10000	4	1	0	4	0
79	622	1	10000	4	1	0	4	0
82	623	1	10000	4	1	0	4	0
84	624	1	10000	4	1	0	4	0
82	625	1	10000	4	1	0	4	0
83	626	1	10000	4	1	0	4	0
85	627	1	10000	4	1	0	4	0
86	628	1	10000	4	1	0	4	0
85	629	1	10000	4	1	0	4	0
83	630	1	10000	4	1	0	4	0
86	631	1	10000	4	1	0	4	0
83	632	1	10000	4	1	0	4	0
82	633	1	10000	4	1	0	4	0
81	634	1	10000	4	1	0	4	0
82	635	1	10000	4	1	0	4	0
79	636	1	10000	4	1	0	4	0
78	637	1	10000	4	1	0	4	0
76	638	1	10000	4	1	0	4	0
79	639	1	10000	4	1	0	4	0
78	640	1	10000	4	1	0	4	0
77	641	1	10000	4	1	0	4	0
82	642	1	10000	4	1	0	4	0
79	643	1	10000	4	1	0	4	0
77	644	1	10000	4	1	0	4	0
77	645	1	10000	4	1	0	4	0
75	646	1	10000	4	1	0	4	0
72	647	1	10000	4	1	0	4	0
72	648	1	10000	4	1	0	4	0
71	649	1	10000	4	1	0	4	0
74	650	1	10000	4	1	0	4	0
76	651	1	10000	4	1	0	4	0
72	652	1	10000	4	1	0	4	0
70	653	1	10000	4	1	0	4	0
68	654	1	10000	4	1	0	4	0
65	655	1	10000	4	1	0	4	0
64	656	1	10000	4	1	0	4	0
62	657	1	10000	4	1	0	4	0
61	658	1	10000	4	1	0	4	0
60	659	1	10000	4	1	0	4	0
58	660	1	10000	4	1	0	4	0
56	661	1	10000	4	1	0	4	0
55	662	1	10000	4	1	0	4	0
55	663	1	10000	4	1	0	4	0
53	664	1	10000	4	1	0	4	0
53	665	1	10000	4	1	0	4	0
51	666	1	10000	4	1	0	4	0
49	667	1	10000	4	1	0	4	0
48	668	1	10000	4	1	0	4	0
47	669	1	10000	4	1	0	4	0
46	670	1	10000	4	1	0	4	0
45	671	1	10000	4	1	0	4	0
42	672	1	10000	4	1	0	4	0
41	673	1	10000	4	1	0	4	0
42	674	1	10000	4	1	0	4	0
40	675	1	10000	4	1	0	4	0
39	676	1	10000	4	1	0	4	0
41	677	1	10000	4	1	0	4	0
41	678	1	10000	4	1	0	4	0
40	679	1	10000	4	1	0	4	0
40	680	1	10000	4	1	0	4	0
40	681	1	10000	4	1	0	4	0
42	682	1	10000	4	1	0	4	0
41	683	1	10000	4	1	0	4	0
40	684	1	10000	4	1	0	4	0
38	685	1	10000	4	1	0	4	0
38	686	1	10000	4	1	0	4	0
38	687	1	10000	4	1	0	4	0
37	688	1	10000	4	1	0	4	0
38	689	1	10000	4	1	0	4	0
36	690	1	10000	4	1	0	4	0
36	691	1	10000	4	1	0	4	0
33	692	1	10000	4	1	0	4	0
34	693	1	10000	4	1	0	4	0
33	694	1	10000	4	1	0	4	0
32	695	1	10000	4	1	0	4	0
32	696	1	10000	4	1	0	4	0
31	697	1	10000	4	1	0	4	0
30	698	1	10000	4	1	0	4	0
29	699	1	10000	4	1	0	4	0
28	700	1	10000	4	1	0	4	0
27	701	1	10000	4	1	0	4	0
31	702	1	10000	4	1	0	4	0
32	703	1	10000	4	1	0	4	0
32	704	1	10000	4	1	0	4	0
31	705	1	10000	4	1	0	4	0
32	706	1	10000	4	1	0	4	0
31	707	1	10000	4	1	0	4	0
30	708	1	10000	4	1	0	4	0
31	709	1	10000	4	1	0	4	0
34	710	1	10000	4	1	0	4	0
40	711	1	10000	4	1	0	4	0
42	712	1	10000	4	1	0	4	0
42	713	1	10000	4	1	0	4	0
46	714	1	10000	4	1	0	4	0
52	715	1	10000	4	1	0	4	0
55	716	1	10000	4	1	0	4	0
55	717	1	10000	4	1	0	4	0
53	718	1	10000	4	1	0	4	0
51	719	1	10000	4	1	0	4	0
51	720	1	10000	4	1	0	4	0
52	721	1	10000	4	1	0	4	0
54	722	1	10000	4	1	0	4	0
55	723	1	10000	4	1	0	4	0
56	724	1	10000	4	1	0	4	0
58	725	1	10000	4	1	0	4	0
56	726	1	10000	4	1	0	4	0
55	727	1	10000	4	1	0	4	0
53	728	1	10000	4	1	0	4	0
53	729	1	10000	4	1	0	4	0
51	730	1	10000	4	1	0	4	0
50	731	1	10000	4	1	0	4	0
47	732	1	10000	4	1	0	4	0
45	733	1	10000	4	1	0	4	0
44	734	1	10000	4	1	0	4	0
44	735	1	10000	4	1	0	4	0
42	736	1	10000	4	1	0	4	0
40	737	1	10000	4	1	0	4	0
39	738	1	10000	4	1	0	4	0
38	739	1	10000	4	1	0	4	0
38	740	1	10000	4	1	0	4	0
37	741	1	10000	4	1	0	4	0
39	742	1	10000	4	1	0	4	0
37	743	1	10000	4	1	0	4	0
37	744	1	10000	4	1	0	4	0
35	745	1	10000	4	1	0	4	0
34	746	1	10000	4	1	0	4	0
33	747	1	10000	4	1	0	4	0
33	748	1	10000	4	1	0	4	0
32	749	1	10000	4	1	0	4	0
32	750	1	10000	4	1	0	4	0
32	751	1	10000	4	1	0	4	0
29	752	1	10000	4	1	0	4	0
29	753	1	10000	4	1	0	4	0
30	754	1	10000	4	1	0	4	0
31	755	1	10000	4	1	0	4	0
31	756	1	10000	4	1	0	4	0
30	757	1	10000	4	1	0	4	0
30	758	1	10000	4	1	0	4	0
28	759	1	10000	4	1	0	4	0
28	760	1	10000	4	1	0	4	0
29	761	1	10000	4	1	0	4	0
30	762	1	10000	4	1	0	4	0
31	763	1	10000	4	1	0	4	0
32	764	1	10000	4	1	0	4	0
30	765	1	10000	4	1	0	4	0
30	766	1	10000	4	1	0	4	0
30	767	1	10000	4	1	0	4	0
30	768	1	10000	4	1	0	4	0
29	769	1	10000	4	1	0	4	0
29	770	1	10000	4	1	0	4	0
29	771	1	10000	4	1	0	4	0
27	772	1	10000	4	1	0	4	0
26	773	1	10000	4	1	0	4	0
26	774	1	10000	4	1	0	4	0
29	775	1	10000	4	1	0	4	0
28	776	1	10000	4	1	0	4	0
27	777	1	10000	4	1	0	4	0
28	778	1	10000	4	1	0	4	0
30	779	1	10000	4	1	0	4	0
30	780	1	10000	4	1	0	4	0
32	781	1	10000	4	1	0	4	0
34	782	1	10000	4	1	0	4	0
34	783	1	10000	4	1	0	4	0
36	784	1	10000	4	1	0	4	0
37	785	1	10000	4	1	0	4	0
37	786	1	10000	4	1	0	4	0
38	787	1	10000	4	1	0	4	0
36	788	1	10000	4	1	0	4	0
35	789	1	10000	4	1	0	4	0
36	790	1	10000	4	1	0	4	0
34	791	1	10000	4	1	0	4	0
32	792	1	10000	4	1	0	4	0
33	793	1	10000	4	1	0	4	0
31	794	1	10000	4	1	0	4	0
32	795	1	10000	4	1	0	4	0
32	796	1	10000	4	1	0	4	0
31	797	1	10000	4	1	0	4	0
31	798	1	10000	4	1	0	4	0
32	799	1	10000	4	1	0	4	0
32	800	1	10000	4	1	0	4	0
32	801	1	10000	4	1	0	4	0
35	802	1	10000	4	1	0	4	0
34	803	1	10000	4	1	0	4	0
34	804	1	10000	4	1	0	4	0
34	805	1	10000	4	1	0	4	0
33	806	1	10000	4	1	0	4	0
33	807	1	10000	4	1	0	4	0
32	808	1	10000	4	1	0	4	0
31	809	1	10000	4	1	0	4	0
30	810	1	10000	4	1	0	4	0
30	811	1	10000	4	1	0	4	0
28	812	1	10000	4	1	0	4	0
29	813	1	10000	4	1	0	4	0
29	814	1	10000	4	1	0	4	0
28	815	1	10000	4	1	0	4	0
28	816	1	10000	4	1	0	4	0
27	817	1	10000	4	1	0	4	0
28	818	1	10000	4	1	0	4	0
28	819	1	10000	4	1	0	4	0
26	820	1	10000	4	1	0	4	0
26	821	1	10000	4	1	0	4	0
28	822	1	10000	4	1	0	4	0
27	823	1	10000	4	1	0	4	0
27	824	1	10000	4	1	0	4	0
26	825	1	10000	4	1	0	4	0
26	826	1	10000	4	1	0	4	0
25	827	1	10000	4	1	0	4	0
25	828	1	10000	4	1	0	4	0
25	829	1	10000	4	1	0	4	0
28	830	1	10000	4	1	0	4	0
30	831	1	10000	4	1	0	4	0
30	832	1	10000	4	1	0	4	0
31	833	1	10000	4	1	0	4	0
31	834	1	10000	4	1	0	4	0
30	835	1	10000	4	1	0	4	0
31	836	1	10000	4	1	0	4	0
31	837	1	10000	4	1	0	4	0
33	838	1	10000	4	1	0	4	0
33	839	1	10000	4	1	0	4	0
33	840	1	10000	4	1	0	4	0
32	841	1	10000	4	1	0	4	0
34	842	1	10000	4	1	0	4	0
34	843	1	10000	4	1	0	4	0
33	844	1	10000	4	1	0	4	0
33	845	1	10000	4	1	0	4	0
32	846	1	10000	4	1	0	4	0
31	847	1	10000	4	1	0	4	0
30	848	1	10000	4	1	0	4	0
30	849	1	10000	4	1	0	4	0
31	850	1	10000	4	1	0	4	0
32	851	1	10000	4	1	0	4	0
30	852	1	10000	4	1	0	4	0
29	853	1	10000	4	1	0	4	0
29	854	1	10000	4	1	0	4	0
29	855	1	10000	4	1	0	4	0
29	856	1	10000	4	1	0	4	0
29	857	1	10000	4	1	0	4	0
29	858	1	10000	4	1	0	4	0
28	859	1	10000	4	1	0	4	0
27	860	1	10000	4	1	0	4	0
26	861	1	10000	4	1	0	4	0
27	862	1	10000	4	1	0	4	0
28	863	1	10000	4	1	0	4	0
27	864	1	10000	4	1	0	4	0
26	865	1	10000	4	1	0	4	0
26	866	1	10000	4	1	0	4	0
28	867	1	10000	4	1	0	4	0
28	868	1	10000	4	1	0	4	0
28	869	1	10000	4	1	0	4	0
28	870	1	10000	4	1	0	4	0
27	871	1	10000	4	1	0	4	0
26	872	1	10000	4	1	0	4	0
26	873	1	10000	4	1	0	4	0
26	874	1	10000	4	1	0	4	0
26	875	1	10000	4	1	0	4	0
26	876	1	10000	4	1	0	4	0
29	877	1	10000	4	1	0	4	0
29	878	1	10000	4	1	0	4	0
28	879	1	10000	4	1	0	4	0
28	880	1	10000	4	1	0	4	0
27	881	1	10000	4	1	0	4	0
28	882	1	10000	4	1	0	4	0
28	883	1	10000	4	1	0	4	0
27	884	1	10000	4	1	0	4	0
26	885	1	10000	4	1	0	4	0
26	886	1	10000	4	1	0	4	0
26	887	1	10000	4	1	0	4	0
26	888	1	10000	4	1	0	4	0
26	889	1	10000	4	1	0	4	0
25	890	1	10000	4	1	0	4	0
26	891	1	10000	4	1	0	4	0
25	892	1	10000	4	1	0	4	0
27	893	1	10000	4	1	0	4	0
28	894	1	10000	4	1	0	4	0
29	895	1	10000	4	1	0	4	0
29	896	1	10000	4	1	0	4	0
28	897	1	10000	4	1	0	4	0
28	898	1	10000	4	1	0	4	0
27	899	1	10000	4	1	0	4	0
28	900	1	10000	4	1	0	4	0
27	901	1	10000	4	1	0	4	0
29	902	1	10000	4	1	0	4	0
30	903	1	10000	4	1	0	4	0
30	904	1	10000	4	1	0	4	0
28	905	1	10000	4	1	0	4	0
28	906	1	10000	4	1	0	4	0
27	907	1	10000	4	1	0	4	0
26	908	1	10000	4	1	0	4	0
26	909	1	10000	4	1	0	4	0
26	910	1	10000	4	1	0	4	0
27	911	1	10000	4	1	0	4	0
28	912	1	10000	4	1	0	4	0
27	913	1	10000	4	1	0	4	0
28	914	1	10000	4	1	0	4	0
28	915	1	10000	4	1	0	4	0
27	916	1	10000	4	1	0	4	0
26	917	1	10000	4	1	0	4	0
26	918	1	10000	4	1	0	4	0
25	919	1	10000	4	1	0	4	0
25	920	1	10000	4	1	0	4	0
24	921	1	10000	4	1	0	4	0
26	922	1	10000	4	1	0	4	0
26	923	1	10000	4	1	0	4	0
27	924	1	10000	4	1	0	4	0
27	925	1	10000	4	1	0	4	0
27	926	1	10000	4	1	0	4	0
27	927	1	10000	4	1	0	4	0
27	928	1	10000	4	1	0	4	0
26	929	1	10000	4	1	0	4	0
26	930	1	10000	4	1	0	4	0
26	931	1	10000	4	1	0	4	0
23	932	1	10000	4	1	0	4	0
23	933	1	10000	4	1	0	4	0
23	934	1	10000	4	1	0	4	0
25	935	1	10000	4	1	0	4	0
25	936	1	10000	4	1	0	4	0
25	937	1	10000	4	1	0	4	0
25	938	1	10000	4	1	0	4	0
24	939	1	10000	4	1	0	4	0
23	940	1	10000	4	1	0	4	0
22	941	1	10000	4	1	0	4	0
23	942	1	10000	4	1	0	4	0
22	943	1	10000	4	1	0	4	0
22	944	1	10000	4	1	0	4	0
21	945	1	10000	4	1	0	4	0
20	946	1	10000	4	1	0	4	0
21	947	1	10000	4	1	0	4	0
20	948	1	10000	4	1	0	4	0
20	949	1	10000	4	1	0	4	0
20	950	1	10000	4	1	0	4	0
20	951	1	10000	4	1	0	4	0
18	952	1	10000	4	1	0	4	0
18	953	1	10000	4	1	0	4	0
18	954	1	10000	4	1	0	4	0
18	955	1	10000	4	1	0	4	0
18	956	1	10000	4	1	0	4	0
18	957	1	10000	4	1	0	4	0
18	958	1	10000	4	1	0	4	0
17	959	1	10000	4	1	0	4	0
16	960	1	10000	4	1	0	4	0
16	961	1	10000	4	1	0	4	0
18	962	1	10000	4	1	0	4	0
17	963	1	10000	4	1	0	4	0
18	964	1	10000	4	1	0	4	0
17	965	1	10000	4	1	0	4	0
17	966	1	10000	4	1	0	4	0
17	967	1	10000	4	1	0	4	0
17	968	1	10000	4	1	0	4	0
17	969	1	10000	4	1	0	4	0
18	970	1	10000	4	1	0	4	0
17	971	1	10000	4	1	0	4	0
15	972	1	10000	4	1	0	4	0
16	973	1	10000	4	1	0	4	0
15	974	1	10000	4	1	0	4	0
15	975	1	10000	4	1	0	4	0
16	976	1	10000	4	1	0	4	0
16	977	1	10000	4	1	0	4	0
16	978	1	10000	4	1	0	4	0
16	979	1	10000	4	1	0	4	0
15	980	1	10000	4	1	0	4	0
15	981	1	10000	4	1	0	4	0
17	982	1	10000	4	1	0	4	0
17	983	1	10000	4	1	0	4	0
16	984	1	10000	4	1	0	4	0
17	985	1	10000	4	1	0	4	0
17	986	1	10000	4	1	0	4	0
17	987	1	10000	4	1	0	4	0
18	988	1	10000	4	1	0	4	0
18	989	1	10000	4	1	0	4	0
18	990	1	10000	4	1	0	4	0
18	991	1	10000	4	1	0	4	0
16	992	1	10000	4	1	0	4	0
16	993	1	10000	4	1	0	4	0
16	994	1	10000	4	1	0	4	0
19	995	1	10000	4	1	0	4	0
23	996	1	10000	4	1	0	4	0
24	997	1	10000	4	1	0	4	0
23	998	1	10000	4	1	0	4	0
24	999	1	10000	4	1	0	4	0
24	1000	1	10000	4	1	0	4	0
57	1	10	10000	5	1	0	5	0
55	2	10	10000	5	1	0	5	0
54	3	10	10000	5	1	0	5	0
55	4	10	10000	5	1	0	5	0
56	5	10	10000	5	1	0	5	0
55	6	10	10000	5	1	0	5	0
54	7	10	10000	5	1	0	5	0
53	8	10	10000	5	1	0	5	0
52	9	10	10000	5	1	0	5	0
49	10	10	10000	5	1	0	5	0
48	11	10	10000	5	1	0	5	0
46	12	10	10000	5	1	0	5	0
46	13	10	10000	5	1	0	5	0
48	14	10	10000	5	1	0	5	0
48	15	10	10000	5	1	0	5	0
48	16	10	10000	5	1	0	5	0
47	17	10	10000	5	1	0	5	0
46	18	10	10000	5	1	0	5	0
44	19	10	10000	5	1	0	5	0
45	20	10	10000	5	1	0	5	0
45	21	10	10000	5	1	0	5	0
45	22	10	10000	5	1	0	5	0
44	23	10	10000	5	1	0	5	0
45	24	10	10000	5	1	0	5	0
46	25	10	10000	5	1	0	5	0
50	26	10	10000	5	1	0	5	0
55	27	10	10000	5	1	0	5	0
56	28	10	10000	5	1	0	5	0
58	29	10	10000	5	1	0	5	0
60	30	10	10000	5	1	0	5	0
58	31	10	10000	5	1	0	5	0
58	32	10	10000	5	1	0	5	0
60	33	10	10000	5	1	0	5	0
61	34	10	10000	5	1	0	5	0
59	35	10	10000	5	1	0	5	0
57	36	10	10000	5	1	0	5	0
55	37	10	10000	5	1	0	5	0
54	38	10	10000	5	1	0	5	0
54	39	10	10000	5	1	0	5	0
58	40	10	10000	5	1	0	5	0
65	41	10	10000	5	1	0	5	0
67	42	10	10000	5	1	0	5	0
65	43	10	10000	5	1	0	5	0
64	44	10	10000	5	1	0	5	0
65	45	10	10000	5	1	0	5	0
66	46	10	10000	5	1	0	5	0
68	47	10	10000	5	1	0	5	0
69	48	10	10000	5	1	0	5	0
68	49	10	10000	5	1	0	5	0
67	50	10	10000	5	1	0	5	0
66	51	10	10000	5	1	0	5	0
65	52	10	10000	5	1	0	5	0
66	53	10	10000	5	1	0	5	0
64	54	10	10000	5	1	0	5	0
63	55	10	10000	5	1	0	5	0
64	56	10	10000	5	1	0	5	0
65	57	10	10000	5	1	0	5	0
63	58	10	10000	5	1	0	5	0
69	59	10	10000	5	1	0	5	0
77	60	10	10000	5	1	0	5	0
76	61	10	10000	5	1	0	5	0
85	62	10	10000	5	1	0	5	0
94	63	10	10000	5	1	0	5	0
98	64	10	10000	5	1	0	5	0
98	65	10	10000	5	1	0	5	0
97	66	10	10000	5	1	0	5	0
98	67	10	10000	5	1	0	5	0
101	68	10	10000	5	1	0	5	0
107	69	10	10000	5	1	0	5	0
104	70	10	10000	5	1	0	5	0
101	71	10	10000	5	1	0	5	0
106	72	10	10000	5	1	0	5	0
117	73	10	10000	5	1	0	5	0
121	74	10	10000	5	1	0	5	0
122	75	10	10000	5	1	0	5	0
125	76	10	10000	5	1	0	5	0
123	77	10	10000	5	1	0	5	0
121	78	10	10000	5	1	0	5	0
120	79	10	10000	5	1	0	5	0
119	80	10	10000	5	1	0	5	0
115	81	10	10000	5	1	0	5	0
120	82	10	10000	5	1	0	5	0
128	83	10	10000	5	1	0	5	0
131	84	10	10000	5	1	0	5	0
128	85	10	10000	5	1	0	5	0
126	86	10	10000	5	1	0	5	0
126	87	10	10000	5	1	0	5	0
131	88	10	10000	5	1	0	5	0
131	89	10	10000	5	1	0	5	0
132	90	10	10000	5	1	0	5	0
138	91	10	10000	5	1	0	5	0
140	92	10	10000	5	1	0	5	0
137	93	10	10000	5	1	0	5	0
140	94	10	10000	5	1	0	5	0
146	95	10	10000	5	1	0	5	0
149	96	10	10000	5	1	0	5	0
149	97	10	10000	5	1	0	5	0
153	98	10	10000	5	1	0	5	0
164	99	10	10000	5	1	0	5	0
167	100	10	10000	5	1	0	5	0
168	101	10	10000	5	1	0	5	0
176	102	10	10000	5	1	0	5	0
181	103	10	10000	5	1	0	5	0
181	104	10	10000	5	1	0	5	0
176	105	10	10000	5	1	0	5	0
167	106	10	10000	5	1	0	5	0
161	107	10	10000	5	1	0	5	0
154	108	10	10000	5	1	0	5	0
149	109	10	10000	5	1	0	5	0
143	110	10	10000	5	1	0	5	0
139	111	10	10000	5	1	0	5	0
136	112	10	10000	5	1	0	5	0
137	113	10	10000	5	1	0	5	0
137	114	10	10000	5	1	0	5	0
133	115	10	10000	5	1	0	5	0
132	116	10	10000	5	1	0	5	0
129	117	10	10000	5	1	0	5	0
124	118	10	10000	5	1	0	5	0
119	119	10	10000	5	1	0	5	0
118	120	10	10000	5	1	0	5	0
113	121	10	10000	5	1	0	5	0
109	122	10	10000	5	1	0	5	0
109	123	10	10000	5	1	0	5	0
111	124	10	10000	5	1	0	5	0
114	125	10	10000	5	1	0	5	0
120	126	10	10000	5	1	0	5	0
125	127	10	10000	5	1	0	5	0
122	128	10	10000	5	1	0	5	0
118	129	10	10000	5	1	0	5	0
111	130	10	10000	5	1	0	5	0
107	131	10	10000	5	1	0	5	0
104	132	10	10000	5	1	0	5	0
99	133	10	10000	5	1	0	5	0
96	134	10	10000	5	1	0	5	0
92	135	10	10000	5	1	0	5	0
90	136	10	10000	5	1	0	5	0
85	137	10	10000	5	1	0	5	0
82	138	10	10000	5	1	0	5	0
79	139	10	10000	5	1	0	5	0
83	140	10	10000	5	1	0	5	0
87	141	10	10000	5	1	0	5	0
91	142	10	10000	5	1	0	5	0
94	143	10	10000	5	1	0	5	0
93	144	10	10000	5	1	0	5	0
90	145	10	10000	5	1	0	5	0
87	146	10	10000	5	1	0	5	0
85	147	10	10000	5	1	0	5	0
81	148	10	10000	5	1	0	5	0
80	149	10	10000	5	1	0	5	0
81	150	10	10000	5	1	0	5	0
82	151	10	10000	5	1	0	5	0
82	152	10	10000	5	1	0	5	0
81	153	10	10000	5	1	0	5	0
79	154	10	10000	5	1	0	5	0
76	155	10	10000	5	1	0	5	0
73	156	10	10000	5	1	0	5	0
71	157	10	10000	5	1	0	5	0
69	158	10	10000	5	1	0	5	0
66	159	10	10000	5	1	0	5	0
68	160	10	10000	5	1	0	5	0
71	161	10	10000	5	1	0	5	0
72	162	10	10000	5	1	0	5	0
72	163	10	10000	5	1	0	5	0
70	164	10	10000	5	1	0	5	0
67	165	10	10000	5	1	0	5	0
64	166	10	10000	5	1	0	5	0
63	167	10	10000	5	1	0	5	0
63	168	10	10000	5	1	0	5	0
62	169	10	10000	5	1	0	5	0
59	170	10	10000	5	1	0	5	0
56	171	10	10000	5	1	0	5	0
56	172	10	10000	5	1	0	5	0
56	173	10	10000	5	1	0	5	0
58	174	10	10000	5	1	0	5	0
58	175	10	10000	5	1	0	5	0
56	176	10	10000	5	1	0	5	0
56	177	10	10000	5	1	0	5	0
56	178	10	10000	5	1	0	5	0
55	179	10	10000	5	1	0	5	0
56	180	10	10000	5	1	0	5	0
59	181	10	10000	5	1	0	5	0
59	182	10	10000	5	1	0	5	0
60	183	10	10000	5	1	0	5	0
60	184	10	10000	5	1	0	5	0
58	185	10	10000	5	1	0	5	0
57	186	10	10000	5	1	0	5	0
58	187	10	10000	5	1	0	5	0
58	188	10	10000	5	1	0	5	0
57	189	10	10000	5	1	0	5	0
55	190	10	10000	5	1	0	5	0
56	191	10	10000	5	1	0	5	0
55	192	10	10000	5	1	0	5	0
55	193	10	10000	5	1	0	5	0
54	194	10	10000	5	1	0	5	0
54	195	10	10000	5	1	0	5	0
56	196	10	10000	5	1	0	5	0
59	197	10	10000	5	1	0	5	0
65	198	10	10000	5	1	0	5	0
67	199	10	10000	5	1	0	5	0
68	200	10	10000	5	1	0	5	0
68	201	10	10000	5	1	0	5	0
66	202	10	10000	5	1	0	5	0
66	203	10	10000	5	1	0	5	0
64	204	10	10000	5	1	0	5	0
62	205	10	10000	5	1	0	5	0
60	206	10	10000	5	1	0	5	0
60	207	10	10000	5	1	0	5	0
58	208	10	10000	5	1	0	5	0
57	209	10	10000	5	1	0	5	0
56	210	10	10000	5	1	0	5	0
57	211	10	10000	5	1	0	5	0
59	212	10	10000	5	1	0	5	0
59	213	10	10000	5	1	0	5	0
58	214	10	10000	5	1	0	5	0
56	215	10	10000	5	1	0	5	0
55	216	10	10000	5	1	0	5	0
53	217	10	10000	5	1	0	5	0
51	218	10	10000	5	1	0	5	0
49	219	10	10000	5	1	0	5	0
49	220	10	10000	5	1	0	5	0
49	221	10	10000	5	1	0	5	0
46	222	10	10000	5	1	0	5	0
46	223	10	10000	5	1	0	5	0
46	224	10	10000	5	1	0	5	0
46	225	10	10000	5	1	0	5	0
44	226	10	10000	5	1	0	5	0
43	227	10	10000	5	1	0	5	0
42	228	10	10000	5	1	0	5	0
42	229	10	10000	5	1	0	5	0
40	230	10	10000	5	1	0	5	0
39	231	10	10000	5	1	0	5	0
39	232	10	10000	5	1	0	5	0
40	233	10	10000	5	1	0	5	0
39	234	10	10000	5	1	0	5	0
38	235	10	10000	5	1	0	5	0
39	236	10	10000	5	1	0	5	0
41	237	10	10000	5	1	0	5	0
42	238	10	10000	5	1	0	5	0
41	239	10	10000	5	1	0	5	0
43	240	10	10000	5	1	0	5	0
42	241	10	10000	5	1	0	5	0
41	242	10	10000	5	1	0	5	0
40	243	10	10000	5	1	0	5	0
39	244	10	10000	5	1	0	5	0
38	245	10	10000	5	1	0	5	0
37	246	10	10000	5	1	0	5	0
39	247	10	10000	5	1	0	5	0
38	248	10	10000	5	1	0	5	0
38	249	10	10000	5	1	0	5	0
37	250	10	10000	5	1	0	5	0
37	251	10	10000	5	1	0	5	0
36	252	10	10000	5	1	0	5	0
36	253	10	10000	5	1	0	5	0
35	254	10	10000	5	1	0	5	0
35	255	10	10000	5	1	0	5	0
35	256	10	10000	5	1	0	5	0
34	257	10	10000	5	1	0	5	0
34	258	10	10000	5	1	0	5	0
34	259	10	10000	5	1	0	5	0
37	260	10	10000	5	1	0	5	0
36	261	10	10000	5	1	0	5	0
35	262	10	10000	5	1	0	5	0
33	263	10	10000	5	1	0	5	0
38	264	10	10000	5	1	0	5	0
41	265	10	10000	5	1	0	5	0
43	266	10	10000	5	1	0	5	0
49	267	10	10000	5	1	0	5	0
54	268	10	10000	5	1	0	5	0
55	269	10	10000	5	1	0	5	0
51	270	10	10000	5	1	0	5	0
50	271	10	10000	5	1	0	5	0
48	272	10	10000	5	1	0	5	0
48	273	10	10000	5	1	0	5	0
47	274	10	10000	5	1	0	5	0
46	275	10	10000	5	1	0	5	0
45	276	10	10000	5	1	0	5	0
44	277	10	10000	5	1	0	5	0
44	278	10	10000	5	1	0	5	0
43	279	10	10000	5	1	0	5	0
44	280	10	10000	5	1	0	5	0
45	281	10	10000	5	1	0	5	0
47	282	10	10000	5	1	0	5	0
50	283	10	10000	5	1	0	5	0
49	284	10	10000	5	1	0	5	0
49	285	10	10000	5	1	0	5	0
50	286	10	10000	5	1	0	5	0
49	287	10	10000	5	1	0	5	0
50	288	10	10000	5	1	0	5	0
50	289	10	10000	5	1	0	5	0
48	290	10	10000	5	1	0	5	0
48	291	10	10000	5	1	0	5	0
48	292	10	10000	5	1	0	5	0
47	293	10	10000	5	1	0	5	0
47	294	10	10000	5	1	0	5	0
48	295	10	10000	5	1	0	5	0
46	296	10	10000	5	1	0	5	0
45	297	10	10000	5	1	0	5	0
44	298	10	10000	5	1	0	5	0
43	299	10	10000	5	1	0	5	0
43	300	10	10000	5	1	0	5	0
42	301	10	10000	5	1	0	5	0
41	302	10	10000	5	1	0	5	0
40	303	10	10000	5	1	0	5	0
39	304	10	10000	5	1	0	5	0
38	305	10	10000	5	1	0	5	0
38	306	10	10000	5	1	0	5	0
41	307	10	10000	5	1	0	5	0
41	308	10	10000	5	1	0	5	0
42	309	10	10000	5	1	0	5	0
39	310	10	10000	5	1	0	5	0
39	311	10	10000	5	1	0	5	0
39	312	10	10000	5	1	0	5	0
39	313	10	10000	5	1	0	5	0
38	314	10	10000	5	1	0	5	0
40	315	10	10000	5	1	0	5	0
44	316	10	10000	5	1	0	5	0
45	317	10	10000	5	1	0	5	0
45	318	10	10000	5	1	0	5	0
44	319	10	10000	5	1	0	5	0
47	320	10	10000	5	1	0	5	0
46	321	10	10000	5	1	0	5	0
47	322	10	10000	5	1	0	5	0
47	323	10	10000	5	1	0	5	0
45	324	10	10000	5	1	0	5	0
44	325	10	10000	5	1	0	5	0
43	326	10	10000	5	1	0	5	0
43	327	10	10000	5	1	0	5	0
43	328	10	10000	5	1	0	5	0
41	329	10	10000	5	1	0	5	0
38	330	10	10000	5	1	0	5	0
37	331	10	10000	5	1	0	5	0
38	332	10	10000	5	1	0	5	0
39	333	10	10000	5	1	0	5	0
39	334	10	10000	5	1	0	5	0
39	335	10	10000	5	1	0	5	0
38	336	10	10000	5	1	0	5	0
38	337	10	10000	5	1	0	5	0
38	338	10	10000	5	1	0	5	0
38	339	10	10000	5	1	0	5	0
38	340	10	10000	5	1	0	5	0
38	341	10	10000	5	1	0	5	0
38	342	10	10000	5	1	0	5	0
40	343	10	10000	5	1	0	5	0
39	344	10	10000	5	1	0	5	0
38	345	10	10000	5	1	0	5	0
39	346	10	10000	5	1	0	5	0
38	347	10	10000	5	1	0	5	0
37	348	10	10000	5	1	0	5	0
37	349	10	10000	5	1	0	5	0
35	350	10	10000	5	1	0	5	0
36	351	10	10000	5	1	0	5	0
39	352	10	10000	5	1	0	5	0
39	353	10	10000	5	1	0	5	0
38	354	10	10000	5	1	0	5	0
39	355	10	10000	5	1	0	5	0
37	356	10	10000	5	1	0	5	0
36	357	10	10000	5	1	0	5	0
36	358	10	10000	5	1	0	5	0
34	359	10	10000	5	1	0	5	0
35	360	10	10000	5	1	0	5	0
34	361	10	10000	5	1	0	5	0
33	362	10	10000	5	1	0	5	0
32	363	10	10000	5	1	0	5	0
32	364	10	10000	5	1	0	5	0
31	365	10	10000	5	1	0	5	0
29	366	10	10000	5	1	0	5	0
30	367	10	10000	5	1	0	5	0
30	368	10	10000	5	1	0	5	0
30	369	10	10000	5	1	0	5	0
27	370	10	10000	5	1	0	5	0
27	371	10	10000	5	1	0	5	0
27	372	10	10000	5	1	0	5	0
28	373	10	10000	5	1	0	5	0
30	374	10	10000	5	1	0	5	0
31	375	10	10000	5	1	0	5	0
32	376	10	10000	5	1	0	5	0
33	377	10	10000	5	1	0	5	0
34	378	10	10000	5	1	0	5	0
32	379	10	10000	5	1	0	5	0
33	380	10	10000	5	1	0	5	0
34	381	10	10000	5	1	0	5	0
35	382	10	10000	5	1	0	5	0
34	383	10	10000	5	1	0	5	0
33	384	10	10000	5	1	0	5	0
32	385	10	10000	5	1	0	5	0
31	386	10	10000	5	1	0	5	0
30	387	10	10000	5	1	0	5	0
32	388	10	10000	5	1	0	5	0
34	389	10	10000	5	1	0	5	0
32	390	10	10000	5	1	0	5	0
31	391	10	10000	5	1	0	5	0
31	392	10	10000	5	1	0	5	0
30	393	10	10000	5	1	0	5	0
29	394	10	10000	5	1	0	5	0
29	395	10	10000	5	1	0	5	0
29	396	10	10000	5	1	0	5	0
29	397	10	10000	5	1	0	5	0
31	398	10	10000	5	1	0	5	0
30	399	10	10000	5	1	0	5	0
31	400	10	10000	5	1	0	5	0
32	401	10	10000	5	1	0	5	0
34	402	10	10000	5	1	0	5	0
34	403	10	10000	5	1	0	5	0
35	404	10	10000	5	1	0	5	0
36	405	10	10000	5	1	0	5	0
39	406	10	10000	5	1	0	5	0
43	407	10	10000	5	1	0	5	0
43	408	10	10000	5	1	0	5	0
43	409	10	10000	5	1	0	5	0
44	410	10	10000	5	1	0	5	0
45	411	10	10000	5	1	0	5	0
48	412	10	10000	5	1	0	5	0
47	413	10	10000	5	1	0	5	0
47	414	10	10000	5	1	0	5	0
47	415	10	10000	5	1	0	5	0
47	416	10	10000	5	1	0	5	0
58	417	10	10000	5	1	0	5	0
68	418	10	10000	5	1	0	5	0
73	419	10	10000	5	1	0	5	0
72	420	10	10000	5	1	0	5	0
72	421	10	10000	5	1	0	5	0
73	422	10	10000	5	1	0	5	0
72	423	10	10000	5	1	0	5	0
70	424	10	10000	5	1	0	5	0
70	425	10	10000	5	1	0	5	0
68	426	10	10000	5	1	0	5	0
67	427	10	10000	5	1	0	5	0
65	428	10	10000	5	1	0	5	0
64	429	10	10000	5	1	0	5	0
61	430	10	10000	5	1	0	5	0
58	431	10	10000	5	1	0	5	0
61	432	10	10000	5	1	0	5	0
64	433	10	10000	5	1	0	5	0
69	434	10	10000	5	1	0	5	0
74	435	10	10000	5	1	0	5	0
75	436	10	10000	5	1	0	5	0
73	437	10	10000	5	1	0	5	0
73	438	10	10000	5	1	0	5	0
73	439	10	10000	5	1	0	5	0
76	440	10	10000	5	1	0	5	0
79	441	10	10000	5	1	0	5	0
76	442	10	10000	5	1	0	5	0
74	443	10	10000	5	1	0	5	0
74	444	10	10000	5	1	0	5	0
78	445	10	10000	5	1	0	5	0
78	446	10	10000	5	1	0	5	0
77	447	10	10000	5	1	0	5	0
76	448	10	10000	5	1	0	5	0
74	449	10	10000	5	1	0	5	0
73	450	10	10000	5	1	0	5	0
71	451	10	10000	5	1	0	5	0
69	452	10	10000	5	1	0	5	0
67	453	10	10000	5	1	0	5	0
66	454	10	10000	5	1	0	5	0
66	455	10	10000	5	1	0	5	0
68	456	10	10000	5	1	0	5	0
66	457	10	10000	5	1	0	5	0
68	458	10	10000	5	1	0	5	0
67	459	10	10000	5	1	0	5	0
67	460	10	10000	5	1	0	5	0
72	461	10	10000	5	1	0	5	0
77	462	10	10000	5	1	0	5	0
78	463	10	10000	5	1	0	5	0
76	464	10	10000	5	1	0	5	0
74	465	10	10000	5	1	0	5	0
71	466	10	10000	5	1	0	5	0
73	467	10	10000	5	1	0	5	0
74	468	10	10000	5	1	0	5	0
75	469	10	10000	5	1	0	5	0
73	470	10	10000	5	1	0	5	0
77	471	10	10000	5	1	0	5	0
86	472	10	10000	5	1	0	5	0
94	473	10	10000	5	1	0	5	0
98	474	10	10000	5	1	0	5	0
97	475	10	10000	5	1	0	5	0
95	476	10	10000	5	1	0	5	0
95	477	10	10000	5	1	0	5	0
96	478	10	10000	5	1	0	5	0
92	479	10	10000	5	1	0	5	0
94	480	10	10000	5	1	0	5	0
92	481	10	10000	5	1	0	5	0
94	482	10	10000	5	1	0	5	0
99	483	10	10000	5	1	0	5	0
100	484	10	10000	5	1	0	5	0
100	485	10	10000	5	1	0	5	0
98	486	10	10000	5	1	0	5	0
94	487	10	10000	5	1	0	5	0
91	488	10	10000	5	1	0	5	0
89	489	10	10000	5	1	0	5	0
85	490	10	10000	5	1	0	5	0
84	491	10	10000	5	1	0	5	0
84	492	10	10000	5	1	0	5	0
85	493	10	10000	5	1	0	5	0
85	494	10	10000	5	1	0	5	0
82	495	10	10000	5	1	0	5	0
82	496	10	10000	5	1	0	5	0
82	497	10	10000	5	1	0	5	0
80	498	10	10000	5	1	0	5	0
80	499	10	10000	5	1	0	5	0
79	500	10	10000	5	1	0	5	0
77	501	10	10000	5	1	0	5	1
75	502	10	10000	5	1	0	5	1
72	503	10	10000	5	1	0	5	1
70	504	10	10000	5	1	0	5	1
68	505	10	10000	5	1	0	5	1
67	506	10	10000	5	1	0	5	1
67	507	10	10000	5	1	0	5	1
67	508	10	10000	5	1	0	5	1
68	509	10	10000	5	1	0	5	1
68	510	10	10000	5	1	0	5	1
67	511	10	10000	5	1	0	5	1
65	512	10	10000	5	1	0	5	1
62	513	10	10000	5	1	0	5	1
61	514	10	10000	5	1	0	5	1
60	515	10	10000	5	1	0	5	1
59	516	10	10000	5	1	0	5	1
58	517	10	10000	5	1	0	5	1
56	518	10	10000	5	1	0	5	1
55	519	10	10000	5	1	0	5	1
56	520	10	10000	5	1	0	5	1
57	521	10	10000	5	1	0	5	1
56	522	10	10000	5	1	0	5	1
55	523	10	10000	5	1	0	5	1
53	524	10	10000	5	1	0	5	1
55	525	10	10000	5	1	0	5	1
58	526	10	10000	5	1	0	5	1
57	527	10	10000	5	1	0	5	1
56	528	10	10000	5	1	0	5	1
59	529	10	10000	5	1	0	5	1
60	530	10	10000	5	1	0	5	1
61	531	10	10000	5	1	0	5	1
59	532	10	10000	5	1	0	5	1
59	533	10	10000	5	1	0	5	1
58	534	10	10000	5	1	0	5	1
59	535	10	10000	5	1	0	5	1
58	536	10	10000	5	1	0	5	1
62	537	10	10000	5	1	0	5	1
67	538	10	10000	5	1	0	5	1
67	539	10	10000	5	1	0	5	1
66	540	10	10000	5	1	0	5	1
65	541	10	10000	5	1	0	5	1
64	542	10	10000	5	1	0	5	1
67	543	10	10000	5	1	0	5	1
69	544	10	10000	5	1	0	5	1
67	545	10	10000	5	1	0	5	1
65	546	10	10000	5	1	0	5	1
64	547	10	10000	5	1	0	5	1
62	548	10	10000	5	1	0	5	1
61	549	10	10000	5	1	0	5	1
62	550	10	10000	5	1	0	5	1
60	551	10	10000	5	1	0	5	0
60	552	10	10000	5	1	0	5	0
59	553	10	10000	5	1	0	5	0
57	554	10	10000	5	1	0	5	0
57	555	10	10000	5	1	0	5	0
56	556	10	10000	5	1	0	5	0
54	557	10	10000	5	1	0	5	0
52	558	10	10000	5	1	0	5	0
50	559	10	10000	5	1	0	5	0
50	560	10	10000	5	1	0	5	0
51	561	10	10000	5	1	0	5	0
49	562	10	10000	5	1	0	5	0
50	563	10	10000	5	1	0	5	0
50	564	10	10000	5	1	0	5	0
48	565	10	10000	5	1	0	5	0
46	566	10	10000	5	1	0	5	0
45	567	10	10000	5	1	0	5	0
48	568	10	10000	5	1	0	5	0
55	569	10	10000	5	1	0	5	0
55	570	10	10000	5	1	0	5	0
57	571	10	10000	5	1	0	5	0
63	572	10	10000	5	1	0	5	0
64	573	10	10000	5	1	0	5	0
63	574	10	10000	5	1	0	5	0
63	575	10	10000	5	1	0	5	0
61	576	10	10000	5	1	0	5	0
59	577	10	10000	5	1	0	5	0
58	578	10	10000	5	1	0	5	0
56	579	10	10000	5	1	0	5	0
57	580	10	10000	5	1	0	5	0
62	581	10	10000	5	1	0	5	0
61	582	10	10000	5	1	0	5	0
64	583	10	10000	5	1	0	5	0
63	584	10	10000	5	1	0	5	0
74	585	10	10000	5	1	0	5	0
80	586	10	10000	5	1	0	5	0
95	587	10	10000	5	1	0	5	0
119	588	10	10000	5	1	0	5	0
131	589	10	10000	5	1	0	5	0
131	590	10	10000	5	1	0	5	0
128	591	10	10000	5	1	0	5	0
142	592	10	10000	5	1	0	5	0
179	593	10	10000	5	1	0	5	0
190	594	10	10000	5	1	0	5	0
191	595	10	10000	5	1	0	5	0
201	596	10	10000	5	1	0	5	0
258	597	10	10000	5	1	0	5	0
277	598	10	10000	5	1	0	5	0
293	599	10	10000	5	1	0	5	0
290	600	10	10000	5	1	0	5	0
310	601	10	10000	5	1	0	5	0
357	602	10	10000	5	1	0	5	0
398	603	10	10000	5	1	0	5	0
395	604	10	10000	5	1	0	5	0
425	605	10	10000	5	1	0	5	0
456	606	10	10000	5	1	0	5	0
492	607	10	10000	5	1	0	5	0
486	608	10	10000	5	1	0	5	0
486	609	10	10000	5	1	0	5	0
475	610	10	10000	5	1	0	5	0
476	611	10	10000	5	1	0	5	0
462	612	10	10000	5	1	0	5	0
444	613	10	10000	5	1	0	5	0
425	614	10	10000	5	1	0	5	0
406	615	10	10000	5	1	0	5	0
388	616	10	10000	5	1	0	5	0
374	617	10	10000	5	1	0	5	0
365	618	10	10000	5	1	0	5	0
362	619	10	10000	5	1	0	5	0
369	620	10	10000	5	1	0	5	0
359	621	10	10000	5	1	0	5	0
349	622	10	10000	5	1	0	5	0
342	623	10	10000	5	1	0	5	0
328	624	10	10000	5	1	0	5	0
317	625	10	10000	5	1	0	5	0
306	626	10	10000	5	1	0	5	0
295	627	10	10000	5	1	0	5	0
282	628	10	10000	5	1	0	5	0
270	629	10	10000	5	1	0	5	0
257	630	10	10000	5	1	0	5	0
247	631	10	10000	5	1	0	5	0
236	632	10	10000	5	1	0	5	0
228	633	10	10000	5	1	0	5	0
221	634	10	10000	5	1	0	5	0
214	635	10	10000	5	1	0	5	0
206	636	10	10000	5	1	0	5	0
199	637	10	10000	5	1	0	5	0
195	638	10	10000	5	1	0	5	0
193	639	10	10000	5	1	0	5	0
191	640	10	10000	5	1	0	5	0
188	641	10	10000	5	1	0	5	0
179	642	10	10000	5	1	0	5	0
171	643	10	10000	5	1	0	5	0
163	644	10	10000	5	1	0	5	0
158	645	10	10000	5	1	0	5	0
152	646	10	10000	5	1	0	5	0
146	647	10	10000	5	1	0	5	0
142	648	10	10000	5	1	0	5	0
143	649	10	10000	5	1	0	5	0
143	650	10	10000	5	1	0	5	0
140	651	10	10000	5	1	0	5	0
135	652	10	10000	5	1	0	5	0
130	653	10	10000	5	1	0	5	0
127	654	10	10000	5	1	0	5	0
124	655	10	10000	5	1	0	5	0
120	656	10	10000	5	1	0	5	0
119	657	10	10000	5	1	0	5	0
117	658	10	10000	5	1	0	5	0
114	659	10	10000	5	1	0	5	0
112	660	10	10000	5	1	0	5	0
108	661	10	10000	5	1	0	5	0
108	662	10	10000	5	1	0	5	0
107	663	10	10000	5	1	0	5	0
107	664	10	10000	5	1	0	5	0
106	665	10	10000	5	1	0	5	0
107	666	10	10000	5	1	0	5	0
108	667	10	10000	5	1	0	5	0
109	668	10	10000	5	1	0	5	0
109	669	10	10000	5	1	0	5	0
109	670	10	10000	5	1	0	5	0
108	671	10	10000	5	1	0	5	0
106	672	10	10000	5	1	0	5	0
103	673	10	10000	5	1	0	5	0
100	674	10	10000	5	1	0	5	0
96	675	10	10000	5	1	0	5	0
93	676	10	10000	5	1	0	5	0
91	677	10	10000	5	1	0	5	0
87	678	10	10000	5	1	0	5	0
84	679	10	10000	5	1	0	5	0
82	680	10	10000	5	1	0	5	0
80	681	10	10000	5	1	0	5	0
78	682	10	10000	5	1	0	5	0
79	683	10	10000	5	1	0	5	0
80	684	10	10000	5	1	0	5	0
81	685	10	10000	5	1	0	5	0
79	686	10	10000	5	1	0	5	0
80	687	10	10000	5	1	0	5	0
82	688	10	10000	5	1	0	5	0
81	689	10	10000	5	1	0	5	0
78	690	10	10000	5	1	0	5	0
74	691	10	10000	5	1	0	5	0
74	692	10	10000	5	1	0	5	0
82	693	10	10000	5	1	0	5	0
89	694	10	10000	5	1	0	5	0
91	695	10	10000	5	1	0	5	0
92	696	10	10000	5	1	0	5	0
93	697	10	10000	5	1	0	5	0
98	698	10	10000	5	1	0	5	0
102	699	10	10000	5	1	0	5	0
104	700	10	10000	5	1	0	5	0
100	701	10	10000	5	1	0	5	0
95	702	10	10000	5	1	0	5	0
93	703	10	10000	5	1	0	5	0
91	704	10	10000	5	1	0	5	0
89	705	10	10000	5	1	0	5	0
89	706	10	10000	5	1	0	5	0
87	707	10	10000	5	1	0	5	0
90	708	10	10000	5	1	0	5	0
90	709	10	10000	5	1	0	5	0
86	710	10	10000	5	1	0	5	0
85	711	10	10000	5	1	0	5	0
97	712	10	10000	5	1	0	5	0
109	713	10	10000	5	1	0	5	0
111	714	10	10000	5	1	0	5	0
131	715	10	10000	5	1	0	5	0
191	716	10	10000	5	1	0	5	0
263	717	10	10000	5	1	0	5	0
272	718	10	10000	5	1	0	5	0
318	719	10	10000	5	1	0	5	0
356	720	10	10000	5	1	0	5	0
364	721	10	10000	5	1	0	5	0
