value	EMG	Stimulus	EMG_sensitivity	Total_Trial_Nr	practise	acq	probe_nr	Startle_Probe
13	2	0	10000	1	1	0	1	0
14	3	0	10000	1	1	0	1	0
15	4	0	10000	1	1	0	1	0
15	5	0	10000	1	1	0	1	0
13	6	0	10000	1	1	0	1	0
14	7	0	10000	1	1	0	1	0
14	8	0	10000	1	1	0	1	0
14	9	0	10000	1	1	0	1	0
14	10	0	10000	1	1	0	1	0
13	11	0	10000	1	1	0	1	0
13	12	0	10000	1	1	0	1	0
12	13	0	10000	1	1	0	1	0
12	14	0	10000	1	1	0	1	0
11	15	0	10000	1	1	0	1	0
14	16	0	10000	1	1	0	1	0
14	17	0	10000	1	1	0	1	0
13	18	0	10000	1	1	0	1	0
13	19	0	10000	1	1	0	1	0
14	20	0	10000	1	1	0	1	0
13	21	0	10000	1	1	0	1	0
12	22	0	10000	1	1	0	1	0
14	23	0	10000	1	1	0	1	0
15	24	0	10000	1	1	0	1	0
14	25	0	10000	1	1	0	1	0
12	26	0	10000	1	1	0	1	0
14	27	0	10000	1	1	0	1	0
13	28	0	10000	1	1	0	1	0
13	29	0	10000	1	1	0	1	0
13	30	0	10000	1	1	0	1	0
13	31	0	10000	1	1	0	1	0
13	32	0	10000	1	1	0	1	0
13	33	0	10000	1	1	0	1	0
13	34	0	10000	1	1	0	1	0
12	35	0	10000	1	1	0	1	0
14	36	0	10000	1	1	0	1	0
13	37	0	10000	1	1	0	1	0
13	38	0	10000	1	1	0	1	0
13	39	0	10000	1	1	0	1	0
12	40	0	10000	1	1	0	1	0
11	41	0	10000	1	1	0	1	0
11	42	0	10000	1	1	0	1	0
12	43	0	10000	1	1	0	1	0
12	44	0	10000	1	1	0	1	0
12	45	0	10000	1	1	0	1	0
10	46	0	10000	1	1	0	1	0
10	47	0	10000	1	1	0	1	0
10	48	0	10000	1	1	0	1	0
10	49	0	10000	1	1	0	1	0
10	50	0	10000	1	1	0	1	0
10	51	0	10000	1	1	0	1	0
9	52	0	10000	1	1	0	1	0
9	53	0	10000	1	1	0	1	0
9	54	0	10000	1	1	0	1	0
9	55	0	10000	1	1	0	1	0
12	56	0	10000	1	1	0	1	0
13	57	0	10000	1	1	0	1	0
13	58	0	10000	1	1	0	1	0
13	59	0	10000	1	1	0	1	0
13	60	0	10000	1	1	0	1	0
13	61	0	10000	1	1	0	1	0
14	62	0	10000	1	1	0	1	0
14	63	0	10000	1	1	0	1	0
15	64	0	10000	1	1	0	1	0
16	65	0	10000	1	1	0	1	0
14	66	0	10000	1	1	0	1	0
14	67	0	10000	1	1	0	1	0
13	68	0	10000	1	1	0	1	0
13	69	0	10000	1	1	0	1	0
14	70	0	10000	1	1	0	1	0
13	71	0	10000	1	1	0	1	0
13	72	0	10000	1	1	0	1	0
13	73	0	10000	1	1	0	1	0
12	74	0	10000	1	1	0	1	0
11	75	0	10000	1	1	0	1	0
13	76	0	10000	1	1	0	1	0
14	77	0	10000	1	1	0	1	0
14	78	0	10000	1	1	0	1	0
13	79	0	10000	1	1	0	1	0
13	80	0	10000	1	1	0	1	0
12	81	0	10000	1	1	0	1	0
12	82	0	10000	1	1	0	1	0
12	83	0	10000	1	1	0	1	0
13	84	0	10000	1	1	0	1	0
14	85	0	10000	1	1	0	1	0
12	86	0	10000	1	1	0	1	0
13	87	0	10000	1	1	0	1	0
13	88	0	10000	1	1	0	1	0
14	89	0	10000	1	1	0	1	0
15	90	0	10000	1	1	0	1	0
14	91	0	10000	1	1	0	1	0
14	92	0	10000	1	1	0	1	0
17	93	0	10000	1	1	0	1	0
20	94	0	10000	1	1	0	1	0
20	95	0	10000	1	1	0	1	0
21	96	0	10000	1	1	0	1	0
23	97	0	10000	1	1	0	1	0
23	98	0	10000	1	1	0	1	0
31	99	0	10000	1	1	0	1	0
40	100	0	10000	1	1	0	1	0
44	101	0	10000	1	1	0	1	0
44	102	0	10000	1	1	0	1	0
44	103	0	10000	1	1	0	1	0
49	104	0	10000	1	1	0	1	0
56	105	0	10000	1	1	0	1	0
62	106	0	10000	1	1	0	1	0
63	107	0	10000	1	1	0	1	0
63	108	0	10000	1	1	0	1	0
61	109	0	10000	1	1	0	1	0
65	110	0	10000	1	1	0	1	0
69	111	0	10000	1	1	0	1	0
86	112	0	10000	1	1	0	1	0
102	113	0	10000	1	1	0	1	0
101	114	0	10000	1	1	0	1	0
110	115	0	10000	1	1	0	1	0
126	116	0	10000	1	1	0	1	0
136	117	0	10000	1	1	0	1	0
138	118	0	10000	1	1	0	1	0
136	119	0	10000	1	1	0	1	0
135	120	0	10000	1	1	0	1	0
137	121	0	10000	1	1	0	1	0
133	122	0	10000	1	1	0	1	0
131	123	0	10000	1	1	0	1	0
132	124	0	10000	1	1	0	1	0
131	125	0	10000	1	1	0	1	0
131	126	0	10000	1	1	0	1	0
148	127	0	10000	1	1	0	1	0
155	128	0	10000	1	1	0	1	0
163	129	0	10000	1	1	0	1	0
178	130	0	10000	1	1	0	1	0
185	131	0	10000	1	1	0	1	0
185	132	0	10000	1	1	0	1	0
181	133	0	10000	1	1	0	1	0
173	134	0	10000	1	1	0	1	0
165	135	0	10000	1	1	0	1	0
163	136	0	10000	1	1	0	1	0
157	137	0	10000	1	1	0	1	0
151	138	0	10000	1	1	0	1	0
147	139	0	10000	1	1	0	1	0
148	140	0	10000	1	1	0	1	0
147	141	0	10000	1	1	0	1	0
145	142	0	10000	1	1	0	1	0
144	143	0	10000	1	1	0	1	0
145	144	0	10000	1	1	0	1	0
146	145	0	10000	1	1	0	1	0
147	146	0	10000	1	1	0	1	0
144	147	0	10000	1	1	0	1	0
141	148	0	10000	1	1	0	1	0
136	149	0	10000	1	1	0	1	0
132	150	0	10000	1	1	0	1	0
134	151	0	10000	1	1	0	1	0
131	152	0	10000	1	1	0	1	0
126	153	0	10000	1	1	0	1	0
120	154	0	10000	1	1	0	1	0
115	155	0	10000	1	1	0	1	0
114	156	0	10000	1	1	0	1	0
111	157	0	10000	1	1	0	1	0
112	158	0	10000	1	1	0	1	0
113	159	0	10000	1	1	0	1	0
113	160	0	10000	1	1	0	1	0
110	161	0	10000	1	1	0	1	0
105	162	0	10000	1	1	0	1	0
102	163	0	10000	1	1	0	1	0
98	164	0	10000	1	1	0	1	0
97	165	0	10000	1	1	0	1	0
92	166	0	10000	1	1	0	1	0
92	167	0	10000	1	1	0	1	0
89	168	0	10000	1	1	0	1	0
86	169	0	10000	1	1	0	1	0
83	170	0	10000	1	1	0	1	0
80	171	0	10000	1	1	0	1	0
77	172	0	10000	1	1	0	1	0
73	173	0	10000	1	1	0	1	0
71	174	0	10000	1	1	0	1	0
68	175	0	10000	1	1	0	1	0
68	176	0	10000	1	1	0	1	0
64	177	0	10000	1	1	0	1	0
61	178	0	10000	1	1	0	1	0
60	179	0	10000	1	1	0	1	0
59	180	0	10000	1	1	0	1	0
58	181	0	10000	1	1	0	1	0
56	182	0	10000	1	1	0	1	0
56	183	0	10000	1	1	0	1	0
55	184	0	10000	1	1	0	1	0
55	185	0	10000	1	1	0	1	0
51	186	0	10000	1	1	0	1	0
50	187	0	10000	1	1	0	1	0
50	188	0	10000	1	1	0	1	0
51	189	0	10000	1	1	0	1	0
49	190	0	10000	1	1	0	1	0
47	191	0	10000	1	1	0	1	0
47	192	0	10000	1	1	0	1	0
49	193	0	10000	1	1	0	1	0
50	194	0	10000	1	1	0	1	0
49	195	0	10000	1	1	0	1	0
51	196	0	10000	1	1	0	1	0
49	197	0	10000	1	1	0	1	0
49	198	0	10000	1	1	0	1	0
50	199	0	10000	1	1	0	1	0
49	200	0	10000	1	1	0	1	0
47	201	0	10000	1	1	0	1	0
46	202	0	10000	1	1	0	1	0
46	203	0	10000	1	1	0	1	0
48	204	0	10000	1	1	0	1	0
49	205	0	10000	1	1	0	1	0
47	206	0	10000	1	1	0	1	0
49	207	0	10000	1	1	0	1	0
49	208	0	10000	1	1	0	1	0
48	209	0	10000	1	1	0	1	0
48	210	0	10000	1	1	0	1	0
47	211	0	10000	1	1	0	1	0
46	212	0	10000	1	1	0	1	0
46	213	0	10000	1	1	0	1	0
45	214	0	10000	1	1	0	1	0
44	215	0	10000	1	1	0	1	0
47	216	0	10000	1	1	0	1	0
48	217	0	10000	1	1	0	1	0
50	218	0	10000	1	1	0	1	0
51	219	0	10000	1	1	0	1	0
51	220	0	10000	1	1	0	1	0
50	221	0	10000	1	1	0	1	0
50	222	0	10000	1	1	0	1	0
50	223	0	10000	1	1	0	1	0
50	224	0	10000	1	1	0	1	0
51	225	0	10000	1	1	0	1	0
50	226	0	10000	1	1	0	1	0
49	227	0	10000	1	1	0	1	0
50	228	0	10000	1	1	0	1	0
49	229	0	10000	1	1	0	1	0
49	230	0	10000	1	1	0	1	0
49	231	0	10000	1	1	0	1	0
49	232	0	10000	1	1	0	1	0
47	233	0	10000	1	1	0	1	0
45	234	0	10000	1	1	0	1	0
43	235	0	10000	1	1	0	1	0
44	236	0	10000	1	1	0	1	0
42	237	0	10000	1	1	0	1	0
42	238	0	10000	1	1	0	1	0
42	239	0	10000	1	1	0	1	0
41	240	0	10000	1	1	0	1	0
41	241	0	10000	1	1	0	1	0
39	242	0	10000	1	1	0	1	0
40	243	0	10000	1	1	0	1	0
40	244	0	10000	1	1	0	1	0
40	245	0	10000	1	1	0	1	0
39	246	0	10000	1	1	0	1	0
40	247	0	10000	1	1	0	1	0
40	248	0	10000	1	1	0	1	0
38	249	0	10000	1	1	0	1	0
37	250	0	10000	1	1	0	1	0
36	251	0	10000	1	1	0	1	0
34	252	0	10000	1	1	0	1	0
32	253	0	10000	1	1	0	1	0
32	254	0	10000	1	1	0	1	0
30	255	0	10000	1	1	0	1	0
31	256	0	10000	1	1	0	1	0
30	257	0	10000	1	1	0	1	0
30	258	0	10000	1	1	0	1	0
31	259	0	10000	1	1	0	1	0
30	260	0	10000	1	1	0	1	0
30	261	0	10000	1	1	0	1	0
29	262	0	10000	1	1	0	1	0
29	263	0	10000	1	1	0	1	0
29	264	0	10000	1	1	0	1	0
30	265	0	10000	1	1	0	1	0
28	266	0	10000	1	1	0	1	0
27	267	0	10000	1	1	0	1	0
27	268	0	10000	1	1	0	1	0
26	269	0	10000	1	1	0	1	0
25	270	0	10000	1	1	0	1	0
24	271	0	10000	1	1	0	1	0
24	272	0	10000	1	1	0	1	0
23	273	0	10000	1	1	0	1	0
22	274	0	10000	1	1	0	1	0
21	275	0	10000	1	1	0	1	0
22	276	0	10000	1	1	0	1	0
23	277	0	10000	1	1	0	1	0
22	278	0	10000	1	1	0	1	0
22	279	0	10000	1	1	0	1	0
21	280	0	10000	1	1	0	1	0
20	281	0	10000	1	1	0	1	0
20	282	0	10000	1	1	0	1	0
19	283	0	10000	1	1	0	1	0
19	284	0	10000	1	1	0	1	0
19	285	0	10000	1	1	0	1	0
17	286	0	10000	1	1	0	1	0
18	287	0	10000	1	1	0	1	0
17	288	0	10000	1	1	0	1	0
17	289	0	10000	1	1	0	1	0
17	290	0	10000	1	1	0	1	0
18	291	0	10000	1	1	0	1	0
17	292	0	10000	1	1	0	1	0
16	293	0	10000	1	1	0	1	0
16	294	0	10000	1	1	0	1	0
15	295	0	10000	1	1	0	1	0
18	296	0	10000	1	1	0	1	0
20	297	0	10000	1	1	0	1	0
20	298	0	10000	1	1	0	1	0
21	299	0	10000	1	1	0	1	0
21	300	0	10000	1	1	0	1	0
20	301	0	10000	1	1	0	1	0
20	302	0	10000	1	1	0	1	0
20	303	0	10000	1	1	0	1	0
19	304	0	10000	1	1	0	1	0
20	305	0	10000	1	1	0	1	0
17	306	0	10000	1	1	0	1	0
17	307	0	10000	1	1	0	1	0
18	308	0	10000	1	1	0	1	0
18	309	0	10000	1	1	0	1	0
19	310	0	10000	1	1	0	1	0
20	311	0	10000	1	1	0	1	0
21	312	0	10000	1	1	0	1	0
21	313	0	10000	1	1	0	1	0
20	314	0	10000	1	1	0	1	0
21	315	0	10000	1	1	0	1	0
23	316	0	10000	1	1	0	1	0
21	317	0	10000	1	1	0	1	0
21	318	0	10000	1	1	0	1	0
21	319	0	10000	1	1	0	1	0
20	320	0	10000	1	1	0	1	0
20	321	0	10000	1	1	0	1	0
20	322	0	10000	1	1	0	1	0
20	323	0	10000	1	1	0	1	0
21	324	0	10000	1	1	0	1	0
23	325	0	10000	1	1	0	1	0
21	326	0	10000	1	1	0	1	0
22	327	0	10000	1	1	0	1	0
22	328	0	10000	1	1	0	1	0
22	329	0	10000	1	1	0	1	0
22	330	0	10000	1	1	0	1	0
22	331	0	10000	1	1	0	1	0
21	332	0	10000	1	1	0	1	0
20	333	0	10000	1	1	0	1	0
20	334	0	10000	1	1	0	1	0
20	335	0	10000	1	1	0	1	0
22	336	0	10000	1	1	0	1	0
24	337	0	10000	1	1	0	1	0
23	338	0	10000	1	1	0	1	0
22	339	0	10000	1	1	0	1	0
22	340	0	10000	1	1	0	1	0
21	341	0	10000	1	1	0	1	0
21	342	0	10000	1	1	0	1	0
20	343	0	10000	1	1	0	1	0
20	344	0	10000	1	1	0	1	0
21	345	0	10000	1	1	0	1	0
18	346	0	10000	1	1	0	1	0
17	347	0	10000	1	1	0	1	0
18	348	0	10000	1	1	0	1	0
18	349	0	10000	1	1	0	1	0
17	350	0	10000	1	1	0	1	0
18	351	0	10000	1	1	0	1	0
17	352	0	10000	1	1	0	1	0
18	353	0	10000	1	1	0	1	0
17	354	0	10000	1	1	0	1	0
17	355	0	10000	1	1	0	1	0
19	356	0	10000	1	1	0	1	0
19	357	0	10000	1	1	0	1	0
17	358	0	10000	1	1	0	1	0
17	359	0	10000	1	1	0	1	0
17	360	0	10000	1	1	0	1	0
17	361	0	10000	1	1	0	1	0
16	362	0	10000	1	1	0	1	0
16	363	0	10000	1	1	0	1	0
17	364	0	10000	1	1	0	1	0
18	365	0	10000	1	1	0	1	0
14	366	0	10000	1	1	0	1	0
15	367	0	10000	1	1	0	1	0
15	368	0	10000	1	1	0	1	0
14	369	0	10000	1	1	0	1	0
14	370	0	10000	1	1	0	1	0
15	371	0	10000	1	1	0	1	0
15	372	0	10000	1	1	0	1	0
15	373	0	10000	1	1	0	1	0
14	374	0	10000	1	1	0	1	0
16	375	0	10000	1	1	0	1	0
22	376	0	10000	1	1	0	1	0
26	377	0	10000	1	1	0	1	0
28	378	0	10000	1	1	0	1	0
28	379	0	10000	1	1	0	1	0
31	380	0	10000	1	1	0	1	0
32	381	0	10000	1	1	0	1	0
30	382	0	10000	1	1	0	1	0
32	383	0	10000	1	1	0	1	0
36	384	0	10000	1	1	0	1	0
40	385	0	10000	1	1	0	1	0
37	386	0	10000	1	1	0	1	0
37	387	0	10000	1	1	0	1	0
37	388	0	10000	1	1	0	1	0
36	389	0	10000	1	1	0	1	0
39	390	0	10000	1	1	0	1	0
43	391	0	10000	1	1	0	1	0
44	392	0	10000	1	1	0	1	0
46	393	0	10000	1	1	0	1	0
51	394	0	10000	1	1	0	1	0
51	395	0	10000	1	1	0	1	0
51	396	0	10000	1	1	0	1	0
53	397	0	10000	1	1	0	1	0
56	398	0	10000	1	1	0	1	0
55	399	0	10000	1	1	0	1	0
54	400	0	10000	1	1	0	1	0
60	401	0	10000	1	1	0	1	0
63	402	0	10000	1	1	0	1	0
72	403	0	10000	1	1	0	1	0
88	404	0	10000	1	1	0	1	0
96	405	0	10000	1	1	0	1	0
94	406	0	10000	1	1	0	1	0
93	407	0	10000	1	1	0	1	0
92	408	0	10000	1	1	0	1	0
99	409	0	10000	1	1	0	1	0
108	410	0	10000	1	1	0	1	0
107	411	0	10000	1	1	0	1	0
110	412	0	10000	1	1	0	1	0
107	413	0	10000	1	1	0	1	0
104	414	0	10000	1	1	0	1	0
105	415	0	10000	1	1	0	1	0
105	416	0	10000	1	1	0	1	0
102	417	0	10000	1	1	0	1	0
99	418	0	10000	1	1	0	1	0
102	419	0	10000	1	1	0	1	0
107	420	0	10000	1	1	0	1	0
104	421	0	10000	1	1	0	1	0
105	422	0	10000	1	1	0	1	0
105	423	0	10000	1	1	0	1	0
101	424	0	10000	1	1	0	1	0
97	425	0	10000	1	1	0	1	0
91	426	0	10000	1	1	0	1	0
88	427	0	10000	1	1	0	1	0
86	428	0	10000	1	1	0	1	0
82	429	0	10000	1	1	0	1	0
80	430	0	10000	1	1	0	1	0
78	431	0	10000	1	1	0	1	0
75	432	0	10000	1	1	0	1	0
73	433	0	10000	1	1	0	1	0
71	434	0	10000	1	1	0	1	0
71	435	0	10000	1	1	0	1	0
76	436	0	10000	1	1	0	1	0
76	437	0	10000	1	1	0	1	0
73	438	0	10000	1	1	0	1	0
70	439	0	10000	1	1	0	1	0
68	440	0	10000	1	1	0	1	0
67	441	0	10000	1	1	0	1	0
65	442	0	10000	1	1	0	1	0
64	443	0	10000	1	1	0	1	0
68	444	0	10000	1	1	0	1	0
67	445	0	10000	1	1	0	1	0
63	446	0	10000	1	1	0	1	0
65	447	0	10000	1	1	0	1	0
68	448	0	10000	1	1	0	1	0
67	449	0	10000	1	1	0	1	0
66	450	0	10000	1	1	0	1	0
68	451	0	10000	1	1	0	1	0
70	452	0	10000	1	1	0	1	0
72	453	0	10000	1	1	0	1	0
71	454	0	10000	1	1	0	1	0
69	455	0	10000	1	1	0	1	0
71	456	0	10000	1	1	0	1	0
71	457	0	10000	1	1	0	1	0
68	458	0	10000	1	1	0	1	0
68	459	0	10000	1	1	0	1	0
67	460	0	10000	1	1	0	1	0
65	461	0	10000	1	1	0	1	0
63	462	0	10000	1	1	0	1	0
61	463	0	10000	1	1	0	1	0
59	464	0	10000	1	1	0	1	0
60	465	0	10000	1	1	0	1	0
57	466	0	10000	1	1	0	1	0
57	467	0	10000	1	1	0	1	0
57	468	0	10000	1	1	0	1	0
56	469	0	10000	1	1	0	1	0
56	470	0	10000	1	1	0	1	0
56	471	0	10000	1	1	0	1	0
56	472	0	10000	1	1	0	1	0
56	473	0	10000	1	1	0	1	0
57	474	0	10000	1	1	0	1	0
58	475	0	10000	1	1	0	1	0
60	476	0	10000	1	1	0	1	0
60	477	0	10000	1	1	0	1	0
61	478	0	10000	1	1	0	1	0
62	479	0	10000	1	1	0	1	0
64	480	0	10000	1	1	0	1	0
63	481	0	10000	1	1	0	1	0
63	482	0	10000	1	1	0	1	0
64	483	0	10000	1	1	0	1	0
65	484	0	10000	1	1	0	1	0
64	485	0	10000	1	1	0	1	0
61	486	0	10000	1	1	0	1	0
59	487	0	10000	1	1	0	1	0
59	488	0	10000	1	1	0	1	0
58	489	0	10000	1	1	0	1	0
57	490	0	10000	1	1	0	1	0
56	491	0	10000	1	1	0	1	0
55	492	0	10000	1	1	0	1	0
53	493	0	10000	1	1	0	1	0
52	494	0	10000	1	1	0	1	0
52	495	0	10000	1	1	0	1	0
54	496	0	10000	1	1	0	1	0
53	497	0	10000	1	1	0	1	0
52	498	0	10000	1	1	0	1	0
51	499	0	10000	1	1	0	1	0
49	500	0	10000	1	1	0	1	0
48	501	0	10000	1	1	0	1	0
45	519	0	10000	1	1	0	1	1
44	520	0	10000	1	1	0	1	1
43	521	0	10000	1	1	0	1	1
42	522	0	10000	1	1	0	1	1
40	523	0	10000	1	1	0	1	1
40	524	0	10000	1	1	0	1	1
41	525	0	10000	1	1	0	1	1
42	526	0	10000	1	1	0	1	1
41	527	0	10000	1	1	0	1	1
42	528	0	10000	1	1	0	1	1
41	529	0	10000	1	1	0	1	1
39	530	0	10000	1	1	0	1	1
38	531	0	10000	1	1	0	1	1
37	532	0	10000	1	1	0	1	1
39	533	0	10000	1	1	0	1	1
38	534	0	10000	1	1	0	1	1
37	535	0	10000	1	1	0	1	1
38	536	0	10000	1	1	0	1	1
37	537	0	10000	1	1	0	1	1
37	538	0	10000	1	1	0	1	1
38	522	0	10000	1	1	0	1	1
39	523	0	10000	1	1	0	1	1
42	524	0	10000	1	1	0	1	1
42	525	0	10000	1	1	0	1	1
41	526	0	10000	1	1	0	1	1
42	527	0	10000	1	1	0	1	1
43	528	0	10000	1	1	0	1	1
43	529	0	10000	1	1	0	1	1
43	530	0	10000	1	1	0	1	1
43	531	0	10000	1	1	0	1	1
44	532	0	10000	1	1	0	1	1
42	533	0	10000	1	1	0	1	1
43	534	0	10000	1	1	0	1	1
42	535	0	10000	1	1	0	1	1
44	536	0	10000	1	1	0	1	1
44	537	0	10000	1	1	0	1	1
45	538	0	10000	1	1	0	1	1
46	539	0	10000	1	1	0	1	1
47	540	0	10000	1	1	0	1	1
48	541	0	10000	1	1	0	1	1
47	542	0	10000	1	1	0	1	1
48	543	0	10000	1	1	0	1	1
46	544	0	10000	1	1	0	1	1
45	545	0	10000	1	1	0	1	1
43	546	0	10000	1	1	0	1	1
42	547	0	10000	1	1	0	1	1
42	548	0	10000	1	1	0	1	1
42	549	0	10000	1	1	0	1	1
43	550	0	10000	1	1	0	1	1
43	551	0	10000	1	1	0	1	1
42	552	0	10000	1	1	0	1	0
40	553	0	10000	1	1	0	1	0
40	554	0	10000	1	1	0	1	0
37	555	0	10000	1	1	0	1	0
38	556	0	10000	1	1	0	1	0
39	557	0	10000	1	1	0	1	0
37	558	0	10000	1	1	0	1	0
37	559	0	10000	1	1	0	1	0
37	560	0	10000	1	1	0	1	0
36	561	0	10000	1	1	0	1	0
35	562	0	10000	1	1	0	1	0
35	563	0	10000	1	1	0	1	0
35	564	0	10000	1	1	0	1	0
35	565	0	10000	1	1	0	1	0
32	566	0	10000	1	1	0	1	0
32	567	0	10000	1	1	0	1	0
31	568	0	10000	1	1	0	1	0
30	569	0	10000	1	1	0	1	0
29	570	0	10000	1	1	0	1	0
29	571	0	10000	1	1	0	1	0
29	572	0	10000	1	1	0	1	0
28	573	0	10000	1	1	0	1	0
27	574	0	10000	1	1	0	1	0
27	575	0	10000	1	1	0	1	0
27	576	0	10000	1	1	0	1	0
28	577	0	10000	1	1	0	1	0
26	578	0	10000	1	1	0	1	0
24	579	0	10000	1	1	0	1	0
23	580	0	10000	1	1	0	1	0
22	581	0	10000	1	1	0	1	0
22	582	0	10000	1	1	0	1	0
22	583	0	10000	1	1	0	1	0
21	584	0	10000	1	1	0	1	0
21	585	0	10000	1	1	0	1	0
20	586	0	10000	1	1	0	1	0
20	587	0	10000	1	1	0	1	0
20	588	0	10000	1	1	0	1	0
20	589	0	10000	1	1	0	1	0
19	590	0	10000	1	1	0	1	0
19	591	0	10000	1	1	0	1	0
19	592	0	10000	1	1	0	1	0
19	593	0	10000	1	1	0	1	0
19	594	0	10000	1	1	0	1	0
17	595	0	10000	1	1	0	1	0
18	596	0	10000	1	1	0	1	0
19	597	0	10000	1	1	0	1	0
18	598	0	10000	1	1	0	1	0
17	599	0	10000	1	1	0	1	0
17	600	0	10000	1	1	0	1	0
16	601	0	10000	1	1	0	1	0
16	602	0	10000	1	1	0	1	0
15	603	0	10000	1	1	0	1	0
16	604	0	10000	1	1	0	1	0
17	605	0	10000	1	1	0	1	0
14	606	0	10000	1	1	0	1	0
15	607	0	10000	1	1	0	1	0
15	608	0	10000	1	1	0	1	0
16	609	0	10000	1	1	0	1	0
16	610	0	10000	1	1	0	1	0
15	611	0	10000	1	1	0	1	0
16	612	0	10000	1	1	0	1	0
15	613	0	10000	1	1	0	1	0
15	614	0	10000	1	1	0	1	0
16	615	0	10000	1	1	0	1	0
22	616	0	10000	1	1	0	1	0
25	617	0	10000	1	1	0	1	0
27	618	0	10000	1	1	0	1	0
29	619	0	10000	1	1	0	1	0
30	620	0	10000	1	1	0	1	0
31	621	0	10000	1	1	0	1	0
31	622	0	10000	1	1	0	1	0
30	623	0	10000	1	1	0	1	0
31	624	0	10000	1	1	0	1	0
31	625	0	10000	1	1	0	1	0
31	626	0	10000	1	1	0	1	0
34	627	0	10000	1	1	0	1	0
53	628	0	10000	1	1	0	1	0
77	629	0	10000	1	1	0	1	0
86	630	0	10000	1	1	0	1	0
91	631	0	10000	1	1	0	1	0
102	632	0	10000	1	1	0	1	0
111	633	0	10000	1	1	0	1	0
120	634	0	10000	1	1	0	1	0
127	635	0	10000	1	1	0	1	0
129	636	0	10000	1	1	0	1	0
126	637	0	10000	1	1	0	1	0
122	638	0	10000	1	1	0	1	0
120	639	0	10000	1	1	0	1	0
117	640	0	10000	1	1	0	1	0
121	641	0	10000	1	1	0	1	0
120	642	0	10000	1	1	0	1	0
126	643	0	10000	1	1	0	1	0
128	644	0	10000	1	1	0	1	0
127	645	0	10000	1	1	0	1	0
122	646	0	10000	1	1	0	1	0
128	647	0	10000	1	1	0	1	0
127	648	0	10000	1	1	0	1	0
123	649	0	10000	1	1	0	1	0
120	650	0	10000	1	1	0	1	0
116	651	0	10000	1	1	0	1	0
112	652	0	10000	1	1	0	1	0
107	653	0	10000	1	1	0	1	0
103	654	0	10000	1	1	0	1	0
100	655	0	10000	1	1	0	1	0
98	656	0	10000	1	1	0	1	0
96	657	0	10000	1	1	0	1	0
93	658	0	10000	1	1	0	1	0
89	659	0	10000	1	1	0	1	0
87	660	0	10000	1	1	0	1	0
83	661	0	10000	1	1	0	1	0
80	662	0	10000	1	1	0	1	0
79	663	0	10000	1	1	0	1	0
76	664	0	10000	1	1	0	1	0
74	665	0	10000	1	1	0	1	0
70	666	0	10000	1	1	0	1	0
68	667	0	10000	1	1	0	1	0
66	668	0	10000	1	1	0	1	0
63	669	0	10000	1	1	0	1	0
60	670	0	10000	1	1	0	1	0
58	671	0	10000	1	1	0	1	0
56	672	0	10000	1	1	0	1	0
54	673	0	10000	1	1	0	1	0
52	674	0	10000	1	1	0	1	0
50	675	0	10000	1	1	0	1	0
51	676	0	10000	1	1	0	1	0
50	677	0	10000	1	1	0	1	0
49	678	0	10000	1	1	0	1	0
48	679	0	10000	1	1	0	1	0
49	680	0	10000	1	1	0	1	0
49	681	0	10000	1	1	0	1	0
50	682	0	10000	1	1	0	1	0
53	683	0	10000	1	1	0	1	0
54	684	0	10000	1	1	0	1	0
55	685	0	10000	1	1	0	1	0
55	686	0	10000	1	1	0	1	0
54	687	0	10000	1	1	0	1	0
54	688	0	10000	1	1	0	1	0
55	689	0	10000	1	1	0	1	0
55	690	0	10000	1	1	0	1	0
56	691	0	10000	1	1	0	1	0
56	692	0	10000	1	1	0	1	0
56	693	0	10000	1	1	0	1	0
56	694	0	10000	1	1	0	1	0
56	695	0	10000	1	1	0	1	0
57	696	0	10000	1	1	0	1	0
56	697	0	10000	1	1	0	1	0
56	698	0	10000	1	1	0	1	0
54	699	0	10000	1	1	0	1	0
54	700	0	10000	1	1	0	1	0
53	701	0	10000	1	1	0	1	0
53	702	0	10000	1	1	0	1	0
53	703	0	10000	1	1	0	1	0
52	704	0	10000	1	1	0	1	0
51	705	0	10000	1	1	0	1	0
48	706	0	10000	1	1	0	1	0
46	707	0	10000	1	1	0	1	0
45	708	0	10000	1	1	0	1	0
45	709	0	10000	1	1	0	1	0
45	710	0	10000	1	1	0	1	0
44	711	0	10000	1	1	0	1	0
43	712	0	10000	1	1	0	1	0
42	713	0	10000	1	1	0	1	0
40	714	0	10000	1	1	0	1	0
40	715	0	10000	1	1	0	1	0
40	716	0	10000	1	1	0	1	0
40	717	0	10000	1	1	0	1	0
37	718	0	10000	1	1	0	1	0
36	719	0	10000	1	1	0	1	0
35	720	0	10000	1	1	0	1	0
34	721	0	10000	1	1	0	1	0
33	722	0	10000	1	1	0	1	0
34	723	0	10000	1	1	0	1	0
33	724	0	10000	1	1	0	1	0
33	725	0	10000	1	1	0	1	0
31	726	0	10000	1	1	0	1	0
31	727	0	10000	1	1	0	1	0
31	728	0	10000	1	1	0	1	0
31	729	0	10000	1	1	0	1	0
31	730	0	10000	1	1	0	1	0
30	731	0	10000	1	1	0	1	0
30	732	0	10000	1	1	0	1	0
29	733	0	10000	1	1	0	1	0
29	734	0	10000	1	1	0	1	0
30	735	0	10000	1	1	0	1	0
33	736	0	10000	1	1	0	1	0
32	737	0	10000	1	1	0	1	0
32	738	0	10000	1	1	0	1	0
32	739	0	10000	1	1	0	1	0
32	740	0	10000	1	1	0	1	0
31	741	0	10000	1	1	0	1	0
30	742	0	10000	1	1	0	1	0
30	743	0	10000	1	1	0	1	0
28	744	0	10000	1	1	0	1	0
29	745	0	10000	1	1	0	1	0
28	746	0	10000	1	1	0	1	0
28	747	0	10000	1	1	0	1	0
30	748	0	10000	1	1	0	1	0
30	749	0	10000	1	1	0	1	0
30	750	0	10000	1	1	0	1	0
29	751	0	10000	1	1	0	1	0
29	752	0	10000	1	1	0	1	0
27	753	0	10000	1	1	0	1	0
27	754	0	10000	1	1	0	1	0
26	755	0	10000	1	1	0	1	0
27	756	0	10000	1	1	0	1	0
27	757	0	10000	1	1	0	1	0
27	758	0	10000	1	1	0	1	0
26	759	0	10000	1	1	0	1	0
25	760	0	10000	1	1	0	1	0
25	761	0	10000	1	1	0	1	0
24	762	0	10000	1	1	0	1	0
24	763	0	10000	1	1	0	1	0
24	764	0	10000	1	1	0	1	0
23	765	0	10000	1	1	0	1	0
22	766	0	10000	1	1	0	1	0
20	767	0	10000	1	1	0	1	0
20	768	0	10000	1	1	0	1	0
21	769	0	10000	1	1	0	1	0
21	770	0	10000	1	1	0	1	0
20	771	0	10000	1	1	0	1	0
21	772	0	10000	1	1	0	1	0
21	773	0	10000	1	1	0	1	0
20	774	0	10000	1	1	0	1	0
21	775	0	10000	1	1	0	1	0
24	776	0	10000	1	1	0	1	0
24	777	0	10000	1	1	0	1	0
23	778	0	10000	1	1	0	1	0
22	779	0	10000	1	1	0	1	0
21	780	0	10000	1	1	0	1	0
21	781	0	10000	1	1	0	1	0
21	782	0	10000	1	1	0	1	0
21	783	0	10000	1	1	0	1	0
20	784	0	10000	1	1	0	1	0
23	785	0	10000	1	1	0	1	0
22	786	0	10000	1	1	0	1	0
21	787	0	10000	1	1	0	1	0
22	788	0	10000	1	1	0	1	0
21	789	0	10000	1	1	0	1	0
21	790	0	10000	1	1	0	1	0
21	791	0	10000	1	1	0	1	0
21	792	0	10000	1	1	0	1	0
20	793	0	10000	1	1	0	1	0
19	794	0	10000	1	1	0	1	0
19	795	0	10000	1	1	0	1	0
20	796	0	10000	1	1	0	1	0
20	797	0	10000	1	1	0	1	0
20	798	0	10000	1	1	0	1	0
19	799	0	10000	1	1	0	1	0
18	800	0	10000	1	1	0	1	0
18	801	0	10000	1	1	0	1	0
17	802	0	10000	1	1	0	1	0
18	803	0	10000	1	1	0	1	0
18	804	0	10000	1	1	0	1	0
19	805	0	10000	1	1	0	1	0
19	806	0	10000	1	1	0	1	0
18	807	0	10000	1	1	0	1	0
18	808	0	10000	1	1	0	1	0
20	809	0	10000	1	1	0	1	0
19	810	0	10000	1	1	0	1	0
18	811	0	10000	1	1	0	1	0
18	812	0	10000	1	1	0	1	0
17	813	0	10000	1	1	0	1	0
16	814	0	10000	1	1	0	1	0
16	815	0	10000	1	1	0	1	0
18	816	0	10000	1	1	0	1	0
17	817	0	10000	1	1	0	1	0
16	818	0	10000	1	1	0	1	0
16	819	0	10000	1	1	0	1	0
15	820	0	10000	1	1	0	1	0
15	821	0	10000	1	1	0	1	0
14	822	0	10000	1	1	0	1	0
15	823	0	10000	1	1	0	1	0
15	824	0	10000	1	1	0	1	0
15	825	0	10000	1	1	0	1	0
14	826	0	10000	1	1	0	1	0
13	827	0	10000	1	1	0	1	0
12	828	0	10000	1	1	0	1	0
14	829	0	10000	1	1	0	1	0
14	830	0	10000	1	1	0	1	0
15	831	0	10000	1	1	0	1	0
17	832	0	10000	1	1	0	1	0
18	833	0	10000	1	1	0	1	0
18	834	0	10000	1	1	0	1	0
18	835	0	10000	1	1	0	1	0
20	836	0	10000	1	1	0	1	0
19	837	0	10000	1	1	0	1	0
18	838	0	10000	1	1	0	1	0
18	839	0	10000	1	1	0	1	0
17	840	0	10000	1	1	0	1	0
17	841	0	10000	1	1	0	1	0
16	842	0	10000	1	1	0	1	0
17	843	0	10000	1	1	0	1	0
16	844	0	10000	1	1	0	1	0
17	845	0	10000	1	1	0	1	0
16	846	0	10000	1	1	0	1	0
15	847	0	10000	1	1	0	1	0
15	848	0	10000	1	1	0	1	0
16	849	0	10000	1	1	0	1	0
15	850	0	10000	1	1	0	1	0
14	851	0	10000	1	1	0	1	0
15	852	0	10000	1	1	0	1	0
14	853	0	10000	1	1	0	1	0
13	854	0	10000	1	1	0	1	0
13	855	0	10000	1	1	0	1	0
14	856	0	10000	1	1	0	1	0
14	857	0	10000	1	1	0	1	0
14	858	0	10000	1	1	0	1	0
13	859	0	10000	1	1	0	1	0
13	860	0	10000	1	1	0	1	0
13	861	0	10000	1	1	0	1	0
12	862	0	10000	1	1	0	1	0
12	863	0	10000	1	1	0	1	0
12	864	0	10000	1	1	0	1	0
12	865	0	10000	1	1	0	1	0
10	866	0	10000	1	1	0	1	0
10	867	0	10000	1	1	0	1	0
11	868	0	10000	1	1	0	1	0
13	869	0	10000	1	1	0	1	0
12	870	0	10000	1	1	0	1	0
12	871	0	10000	1	1	0	1	0
13	872	0	10000	1	1	0	1	0
11	873	0	10000	1	1	0	1	0
11	874	0	10000	1	1	0	1	0
11	875	0	10000	1	1	0	1	0
13	876	0	10000	1	1	0	1	0
12	877	0	10000	1	1	0	1	0
12	878	0	10000	1	1	0	1	0
11	879	0	10000	1	1	0	1	0
11	880	0	10000	1	1	0	1	0
11	881	0	10000	1	1	0	1	0
11	882	0	10000	1	1	0	1	0
12	883	0	10000	1	1	0	1	0
13	884	0	10000	1	1	0	1	0
13	885	0	10000	1	1	0	1	0
13	886	0	10000	1	1	0	1	0
12	887	0	10000	1	1	0	1	0
12	888	0	10000	1	1	0	1	0
13	889	0	10000	1	1	0	1	0
12	890	0	10000	1	1	0	1	0
12	891	0	10000	1	1	0	1	0
13	892	0	10000	1	1	0	1	0
11	893	0	10000	1	1	0	1	0
11	894	0	10000	1	1	0	1	0
10	895	0	10000	1	1	0	1	0
12	896	0	10000	1	1	0	1	0
12	897	0	10000	1	1	0	1	0
13	898	0	10000	1	1	0	1	0
13	899	0	10000	1	1	0	1	0
12	900	0	10000	1	1	0	1	0
13	901	0	10000	1	1	0	1	0
14	902	0	10000	1	1	0	1	0
15	903	0	10000	1	1	0	1	0
15	904	0	10000	1	1	0	1	0
15	905	0	10000	1	1	0	1	0
13	906	0	10000	1	1	0	1	0
13	907	0	10000	1	1	0	1	0
13	908	0	10000	1	1	0	1	0
14	909	0	10000	1	1	0	1	0
13	910	0	10000	1	1	0	1	0
14	911	0	10000	1	1	0	1	0
14	912	0	10000	1	1	0	1	0
12	913	0	10000	1	1	0	1	0
12	914	0	10000	1	1	0	1	0
13	915	0	10000	1	1	0	1	0
14	916	0	10000	1	1	0	1	0
15	917	0	10000	1	1	0	1	0
14	918	0	10000	1	1	0	1	0
13	919	0	10000	1	1	0	1	0
13	920	0	10000	1	1	0	1	0
13	921	0	10000	1	1	0	1	0
13	922	0	10000	1	1	0	1	0
14	923	0	10000	1	1	0	1	0
14	924	0	10000	1	1	0	1	0
14	925	0	10000	1	1	0	1	0
13	926	0	10000	1	1	0	1	0
13	927	0	10000	1	1	0	1	0
13	928	0	10000	1	1	0	1	0
14	929	0	10000	1	1	0	1	0
14	930	0	10000	1	1	0	1	0
13	931	0	10000	1	1	0	1	0
14	932	0	10000	1	1	0	1	0
12	933	0	10000	1	1	0	1	0
12	934	0	10000	1	1	0	1	0
12	935	0	10000	1	1	0	1	0
13	936	0	10000	1	1	0	1	0
13	937	0	10000	1	1	0	1	0
13	938	0	10000	1	1	0	1	0
12	939	0	10000	1	1	0	1	0
12	940	0	10000	1	1	0	1	0
13	941	0	10000	1	1	0	1	0
12	942	0	10000	1	1	0	1	0
13	943	0	10000	1	1	0	1	0
13	944	0	10000	1	1	0	1	0
13	945	0	10000	1	1	0	1	0
11	946	0	10000	1	1	0	1	0
11	947	0	10000	1	1	0	1	0
12	948	0	10000	1	1	0	1	0
12	949	0	10000	1	1	0	1	0
11	950	0	10000	1	1	0	1	0
12	951	0	10000	1	1	0	1	0
14	952	0	10000	1	1	0	1	0
13	953	0	10000	1	1	0	1	0
13	954	0	10000	1	1	0	1	0
13	955	0	10000	1	1	0	1	0
14	956	0	10000	1	1	0	1	0
14	957	0	10000	1	1	0	1	0
14	958	0	10000	1	1	0	1	0
14	959	0	10000	1	1	0	1	0
13	960	0	10000	1	1	0	1	0
13	961	0	10000	1	1	0	1	0
12	962	0	10000	1	1	0	1	0
13	963	0	10000	1	1	0	1	0
13	964	0	10000	1	1	0	1	0
14	965	0	10000	1	1	0	1	0
12	966	0	10000	1	1	0	1	0
12	967	0	10000	1	1	0	1	0
12	968	0	10000	1	1	0	1	0
12	969	0	10000	1	1	0	1	0
12	970	0	10000	1	1	0	1	0
12	971	0	10000	1	1	0	1	0
12	972	0	10000	1	1	0	1	0
12	973	0	10000	1	1	0	1	0
11	974	0	10000	1	1	0	1	0
12	975	0	10000	1	1	0	1	0
13	976	0	10000	1	1	0	1	0
13	977	0	10000	1	1	0	1	0
13	978	0	10000	1	1	0	1	0
13	979	0	10000	1	1	0	1	0
14	980	0	10000	1	1	0	1	0
15	981	0	10000	1	1	0	1	0
15	982	0	10000	1	1	0	1	0
16	983	0	10000	1	1	0	1	0
16	984	0	10000	1	1	0	1	0
18	985	0	10000	1	1	0	1	0
16	986	0	10000	1	1	0	1	0
16	987	0	10000	1	1	0	1	0
16	988	0	10000	1	1	0	1	0
16	989	0	10000	1	1	0	1	0
16	990	0	10000	1	1	0	1	0
16	991	0	10000	1	1	0	1	0
16	992	0	10000	1	1	0	1	0
15	993	0	10000	1	1	0	1	0
15	994	0	10000	1	1	0	1	0
16	995	0	10000	1	1	0	1	0
18	996	0	10000	1	1	0	1	0
18	997	0	10000	1	1	0	1	0
18	998	0	10000	1	1	0	1	0
17	999	0	10000	1	1	0	1	0
17	1000	0	10000	1	1	0	1	0
16	1001	0	10000	1	1	0	1	0
11	2	0	10000	2	1	0	2	0
12	3	0	10000	2	1	0	2	0
11	4	0	10000	2	1	0	2	0
11	5	0	10000	2	1	0	2	0
12	6	0	10000	2	1	0	2	0
11	7	0	10000	2	1	0	2	0
11	8	0	10000	2	1	0	2	0
12	9	0	10000	2	1	0	2	0
12	10	0	10000	2	1	0	2	0
11	11	0	10000	2	1	0	2	0
12	12	0	10000	2	1	0	2	0
12	13	0	10000	2	1	0	2	0
11	14	0	10000	2	1	0	2	0
11	15	0	10000	2	1	0	2	0
10	16	0	10000	2	1	0	2	0
12	17	0	10000	2	1	0	2	0
12	18	0	10000	2	1	0	2	0
11	19	0	10000	2	1	0	2	0
12	20	0	10000	2	1	0	2	0
11	21	0	10000	2	1	0	2	0
11	22	0	10000	2	1	0	2	0
12	23	0	10000	2	1	0	2	0
11	24	0	10000	2	1	0	2	0
11	25	0	10000	2	1	0	2	0
12	26	0	10000	2	1	0	2	0
11	27	0	10000	2	1	0	2	0
10	28	0	10000	2	1	0	2	0
10	29	0	10000	2	1	0	2	0
10	30	0	10000	2	1	0	2	0
11	31	0	10000	2	1	0	2	0
11	32	0	10000	2	1	0	2	0
12	33	0	10000	2	1	0	2	0
11	34	0	10000	2	1	0	2	0
11	35	0	10000	2	1	0	2	0
10	36	0	10000	2	1	0	2	0
11	37	0	10000	2	1	0	2	0
12	38	0	10000	2	1	0	2	0
12	39	0	10000	2	1	0	2	0
12	40	0	10000	2	1	0	2	0
12	41	0	10000	2	1	0	2	0
12	42	0	10000	2	1	0	2	0
12	43	0	10000	2	1	0	2	0
12	44	0	10000	2	1	0	2	0
12	45	0	10000	2	1	0	2	0
13	46	0	10000	2	1	0	2	0
12	47	0	10000	2	1	0	2	0
12	48	0	10000	2	1	0	2	0
12	49	0	10000	2	1	0	2	0
12	50	0	10000	2	1	0	2	0
13	51	0	10000	2	1	0	2	0
13	52	0	10000	2	1	0	2	0
13	53	0	10000	2	1	0	2	0
12	54	0	10000	2	1	0	2	0
13	55	0	10000	2	1	0	2	0
12	56	0	10000	2	1	0	2	0
13	57	0	10000	2	1	0	2	0
14	58	0	10000	2	1	0	2	0
13	59	0	10000	2	1	0	2	0
13	60	0	10000	2	1	0	2	0
13	61	0	10000	2	1	0	2	0
13	62	0	10000	2	1	0	2	0
14	63	0	10000	2	1	0	2	0
13	64	0	10000	2	1	0	2	0
14	65	0	10000	2	1	0	2	0
15	66	0	10000	2	1	0	2	0
13	67	0	10000	2	1	0	2	0
12	68	0	10000	2	1	0	2	0
13	69	0	10000	2	1	0	2	0
12	70	0	10000	2	1	0	2	0
12	71	0	10000	2	1	0	2	0
12	72	0	10000	2	1	0	2	0
12	73	0	10000	2	1	0	2	0
11	74	0	10000	2	1	0	2	0
11	75	0	10000	2	1	0	2	0
10	76	0	10000	2	1	0	2	0
12	77	0	10000	2	1	0	2	0
12	78	0	10000	2	1	0	2	0
12	79	0	10000	2	1	0	2	0
11	80	0	10000	2	1	0	2	0
11	81	0	10000	2	1	0	2	0
11	82	0	10000	2	1	0	2	0
12	83	0	10000	2	1	0	2	0
11	84	0	10000	2	1	0	2	0
12	85	0	10000	2	1	0	2	0
13	86	0	10000	2	1	0	2	0
11	87	0	10000	2	1	0	2	0
10	88	0	10000	2	1	0	2	0
10	89	0	10000	2	1	0	2	0
10	90	0	10000	2	1	0	2	0
10	91	0	10000	2	1	0	2	0
10	92	0	10000	2	1	0	2	0
10	93	0	10000	2	1	0	2	0
9	94	0	10000	2	1	0	2	0
9	95	0	10000	2	1	0	2	0
8	96	0	10000	2	1	0	2	0
9	97	0	10000	2	1	0	2	0
10	98	0	10000	2	1	0	2	0
10	99	0	10000	2	1	0	2	0
10	100	0	10000	2	1	0	2	0
10	101	0	10000	2	1	0	2	0
10	102	0	10000	2	1	0	2	0
10	103	0	10000	2	1	0	2	0
11	104	0	10000	2	1	0	2	0
11	105	0	10000	2	1	0	2	0
12	106	0	10000	2	1	0	2	0
10	107	0	10000	2	1	0	2	0
9	108	0	10000	2	1	0	2	0
10	109	0	10000	2	1	0	2	0
10	110	0	10000	2	1	0	2	0
10	111	0	10000	2	1	0	2	0
10	112	0	10000	2	1	0	2	0
10	113	0	10000	2	1	0	2	0
10	114	0	10000	2	1	0	2	0
10	115	0	10000	2	1	0	2	0
9	116	0	10000	2	1	0	2	0
11	117	0	10000	2	1	0	2	0
11	118	0	10000	2	1	0	2	0
11	119	0	10000	2	1	0	2	0
10	120	0	10000	2	1	0	2	0
10	121	0	10000	2	1	0	2	0
10	122	0	10000	2	1	0	2	0
10	123	0	10000	2	1	0	2	0
10	124	0	10000	2	1	0	2	0
10	125	0	10000	2	1	0	2	0
11	126	0	10000	2	1	0	2	0
9	127	0	10000	2	1	0	2	0
9	128	0	10000	2	1	0	2	0
9	129	0	10000	2	1	0	2	0
9	130	0	10000	2	1	0	2	0
10	131	0	10000	2	1	0	2	0
9	132	0	10000	2	1	0	2	0
10	133	0	10000	2	1	0	2	0
10	134	0	10000	2	1	0	2	0
10	135	0	10000	2	1	0	2	0
9	136	0	10000	2	1	0	2	0
11	137	0	10000	2	1	0	2	0
11	138	0	10000	2	1	0	2	0
11	139	0	10000	2	1	0	2	0
11	140	0	10000	2	1	0	2	0
11	141	0	10000	2	1	0	2	0
10	142	0	10000	2	1	0	2	0
11	143	0	10000	2	1	0	2	0
11	144	0	10000	2	1	0	2	0
11	145	0	10000	2	1	0	2	0
12	146	0	10000	2	1	0	2	0
10	147	0	10000	2	1	0	2	0
9	148	0	10000	2	1	0	2	0
10	149	0	10000	2	1	0	2	0
10	150	0	10000	2	1	0	2	0
11	151	0	10000	2	1	0	2	0
11	152	0	10000	2	1	0	2	0
10	153	0	10000	2	1	0	2	0
10	154	0	10000	2	1	0	2	0
10	155	0	10000	2	1	0	2	0
10	156	0	10000	2	1	0	2	0
11	157	0	10000	2	1	0	2	0
12	158	0	10000	2	1	0	2	0
12	159	0	10000	2	1	0	2	0
12	160	0	10000	2	1	0	2	0
12	161	0	10000	2	1	0	2	0
11	162	0	10000	2	1	0	2	0
11	163	0	10000	2	1	0	2	0
12	164	0	10000	2	1	0	2	0
11	165	0	10000	2	1	0	2	0
12	166	0	10000	2	1	0	2	0
11	167	0	10000	2	1	0	2	0
10	168	0	10000	2	1	0	2	0
11	169	0	10000	2	1	0	2	0
10	170	0	10000	2	1	0	2	0
10	171	0	10000	2	1	0	2	0
10	172	0	10000	2	1	0	2	0
10	173	0	10000	2	1	0	2	0
10	174	0	10000	2	1	0	2	0
10	175	0	10000	2	1	0	2	0
10	176	0	10000	2	1	0	2	0
11	177	0	10000	2	1	0	2	0
12	178	0	10000	2	1	0	2	0
11	179	0	10000	2	1	0	2	0
11	180	0	10000	2	1	0	2	0
11	181	0	10000	2	1	0	2	0
11	182	0	10000	2	1	0	2	0
11	183	0	10000	2	1	0	2	0
11	184	0	10000	2	1	0	2	0
12	185	0	10000	2	1	0	2	0
13	186	0	10000	2	1	0	2	0
11	187	0	10000	2	1	0	2	0
10	188	0	10000	2	1	0	2	0
10	189	0	10000	2	1	0	2	0
10	190	0	10000	2	1	0	2	0
10	191	0	10000	2	1	0	2	0
10	192	0	10000	2	1	0	2	0
10	193	0	10000	2	1	0	2	0
10	194	0	10000	2	1	0	2	0
10	195	0	10000	2	1	0	2	0
9	196	0	10000	2	1	0	2	0
10	197	0	10000	2	1	0	2	0
11	198	0	10000	2	1	0	2	0
10	199	0	10000	2	1	0	2	0
10	200	0	10000	2	1	0	2	0
12	201	0	10000	2	1	0	2	0
11	202	0	10000	2	1	0	2	0
12	203	0	10000	2	1	0	2	0
13	204	0	10000	2	1	0	2	0
13	205	0	10000	2	1	0	2	0
13	206	0	10000	2	1	0	2	0
11	207	0	10000	2	1	0	2	0
10	208	0	10000	2	1	0	2	0
12	209	0	10000	2	1	0	2	0
11	210	0	10000	2	1	0	2	0
11	211	0	10000	2	1	0	2	0
11	212	0	10000	2	1	0	2	0
10	213	0	10000	2	1	0	2	0
10	214	0	10000	2	1	0	2	0
10	215	0	10000	2	1	0	2	0
10	216	0	10000	2	1	0	2	0
10	217	0	10000	2	1	0	2	0
12	218	0	10000	2	1	0	2	0
11	219	0	10000	2	1	0	2	0
11	220	0	10000	2	1	0	2	0
11	221	0	10000	2	1	0	2	0
11	222	0	10000	2	1	0	2	0
12	223	0	10000	2	1	0	2	0
14	224	0	10000	2	1	0	2	0
16	225	0	10000	2	1	0	2	0
17	226	0	10000	2	1	0	2	0
16	227	0	10000	2	1	0	2	0
15	228	0	10000	2	1	0	2	0
18	229	0	10000	2	1	0	2	0
18	230	0	10000	2	1	0	2	0
18	231	0	10000	2	1	0	2	0
20	232	0	10000	2	1	0	2	0
20	233	0	10000	2	1	0	2	0
19	234	0	10000	2	1	0	2	0
22	235	0	10000	2	1	0	2	0
22	236	0	10000	2	1	0	2	0
26	237	0	10000	2	1	0	2	0
28	238	0	10000	2	1	0	2	0
34	239	0	10000	2	1	0	2	0
36	240	0	10000	2	1	0	2	0
39	241	0	10000	2	1	0	2	0
42	242	0	10000	2	1	0	2	0
44	243	0	10000	2	1	0	2	0
52	244	0	10000	2	1	0	2	0
60	245	0	10000	2	1	0	2	0
57	246	0	10000	2	1	0	2	0
56	247	0	10000	2	1	0	2	0
55	248	0	10000	2	1	0	2	0
54	249	0	10000	2	1	0	2	0
51	250	0	10000	2	1	0	2	0
51	251	0	10000	2	1	0	2	0
52	252	0	10000	2	1	0	2	0
53	253	0	10000	2	1	0	2	0
55	254	0	10000	2	1	0	2	0
55	255	0	10000	2	1	0	2	0
55	256	0	10000	2	1	0	2	0
58	257	0	10000	2	1	0	2	0
62	258	0	10000	2	1	0	2	0
61	259	0	10000	2	1	0	2	0
61	260	0	10000	2	1	0	2	0
65	261	0	10000	2	1	0	2	0
69	262	0	10000	2	1	0	2	0
73	263	0	10000	2	1	0	2	0
80	264	0	10000	2	1	0	2	0
81	265	0	10000	2	1	0	2	0
81	266	0	10000	2	1	0	2	0
82	267	0	10000	2	1	0	2	0
80	268	0	10000	2	1	0	2	0
81	269	0	10000	2	1	0	2	0
81	270	0	10000	2	1	0	2	0
79	271	0	10000	2	1	0	2	0
77	272	0	10000	2	1	0	2	0
78	273	0	10000	2	1	0	2	0
78	274	0	10000	2	1	0	2	0
76	275	0	10000	2	1	0	2	0
73	276	0	10000	2	1	0	2	0
71	277	0	10000	2	1	0	2	0
69	278	0	10000	2	1	0	2	0
66	279	0	10000	2	1	0	2	0
63	280	0	10000	2	1	0	2	0
61	281	0	10000	2	1	0	2	0
61	282	0	10000	2	1	0	2	0
59	283	0	10000	2	1	0	2	0
60	284	0	10000	2	1	0	2	0
66	285	0	10000	2	1	0	2	0
68	286	0	10000	2	1	0	2	0
66	287	0	10000	2	1	0	2	0
66	288	0	10000	2	1	0	2	0
67	289	0	10000	2	1	0	2	0
67	290	0	10000	2	1	0	2	0
65	291	0	10000	2	1	0	2	0
64	292	0	10000	2	1	0	2	0
61	293	0	10000	2	1	0	2	0
59	294	0	10000	2	1	0	2	0
58	295	0	10000	2	1	0	2	0
56	296	0	10000	2	1	0	2	0
57	297	0	10000	2	1	0	2	0
57	298	0	10000	2	1	0	2	0
54	299	0	10000	2	1	0	2	0
52	300	0	10000	2	1	0	2	0
51	301	0	10000	2	1	0	2	0
49	302	0	10000	2	1	0	2	0
47	303	0	10000	2	1	0	2	0
46	304	0	10000	2	1	0	2	0
44	305	0	10000	2	1	0	2	0
44	306	0	10000	2	1	0	2	0
43	307	0	10000	2	1	0	2	0
40	308	0	10000	2	1	0	2	0
39	309	0	10000	2	1	0	2	0
39	310	0	10000	2	1	0	2	0
39	311	0	10000	2	1	0	2	0
40	312	0	10000	2	1	0	2	0
41	313	0	10000	2	1	0	2	0
40	314	0	10000	2	1	0	2	0
41	315	0	10000	2	1	0	2	0
39	316	0	10000	2	1	0	2	0
39	317	0	10000	2	1	0	2	0
40	318	0	10000	2	1	0	2	0
39	319	0	10000	2	1	0	2	0
38	320	0	10000	2	1	0	2	0
37	321	0	10000	2	1	0	2	0
36	322	0	10000	2	1	0	2	0
35	323	0	10000	2	1	0	2	0
35	324	0	10000	2	1	0	2	0
35	325	0	10000	2	1	0	2	0
35	326	0	10000	2	1	0	2	0
33	327	0	10000	2	1	0	2	0
32	328	0	10000	2	1	0	2	0
34	329	0	10000	2	1	0	2	0
34	330	0	10000	2	1	0	2	0
35	331	0	10000	2	1	0	2	0
35	332	0	10000	2	1	0	2	0
35	333	0	10000	2	1	0	2	0
33	334	0	10000	2	1	0	2	0
33	335	0	10000	2	1	0	2	0
32	336	0	10000	2	1	0	2	0
32	337	0	10000	2	1	0	2	0
34	338	0	10000	2	1	0	2	0
33	339	0	10000	2	1	0	2	0
33	340	0	10000	2	1	0	2	0
34	341	0	10000	2	1	0	2	0
34	342	0	10000	2	1	0	2	0
34	343	0	10000	2	1	0	2	0
34	344	0	10000	2	1	0	2	0
34	345	0	10000	2	1	0	2	0
35	346	0	10000	2	1	0	2	0
35	347	0	10000	2	1	0	2	0
34	348	0	10000	2	1	0	2	0
33	349	0	10000	2	1	0	2	0
33	350	0	10000	2	1	0	2	0
32	351	0	10000	2	1	0	2	0
32	352	0	10000	2	1	0	2	0
32	353	0	10000	2	1	0	2	0
32	354	0	10000	2	1	0	2	0
31	355	0	10000	2	1	0	2	0
30	356	0	10000	2	1	0	2	0
30	357	0	10000	2	1	0	2	0
31	358	0	10000	2	1	0	2	0
29	359	0	10000	2	1	0	2	0
28	360	0	10000	2	1	0	2	0
28	361	0	10000	2	1	0	2	0
29	362	0	10000	2	1	0	2	0
28	363	0	10000	2	1	0	2	0
29	364	0	10000	2	1	0	2	0
28	365	0	10000	2	1	0	2	0
28	366	0	10000	2	1	0	2	0
27	367	0	10000	2	1	0	2	0
26	368	0	10000	2	1	0	2	0
26	369	0	10000	2	1	0	2	0
26	370	0	10000	2	1	0	2	0
26	371	0	10000	2	1	0	2	0
25	372	0	10000	2	1	0	2	0
24	373	0	10000	2	1	0	2	0
24	374	0	10000	2	1	0	2	0
23	375	0	10000	2	1	0	2	0
23	376	0	10000	2	1	0	2	0
24	377	0	10000	2	1	0	2	0
25	378	0	10000	2	1	0	2	0
24	379	0	10000	2	1	0	2	0
24	380	0	10000	2	1	0	2	0
23	381	0	10000	2	1	0	2	0
22	382	0	10000	2	1	0	2	0
21	383	0	10000	2	1	0	2	0
21	384	0	10000	2	1	0	2	0
22	385	0	10000	2	1	0	2	0
23	386	0	10000	2	1	0	2	0
21	387	0	10000	2	1	0	2	0
20	388	0	10000	2	1	0	2	0
20	389	0	10000	2	1	0	2	0
20	390	0	10000	2	1	0	2	0
20	391	0	10000	2	1	0	2	0
20	392	0	10000	2	1	0	2	0
20	393	0	10000	2	1	0	2	0
20	394	0	10000	2	1	0	2	0
20	395	0	10000	2	1	0	2	0
19	396	0	10000	2	1	0	2	0
20	397	0	10000	2	1	0	2	0
21	398	0	10000	2	1	0	2	0
20	399	0	10000	2	1	0	2	0
19	400	0	10000	2	1	0	2	0
19	401	0	10000	2	1	0	2	0
17	402	0	10000	2	1	0	2	0
17	403	0	10000	2	1	0	2	0
17	404	0	10000	2	1	0	2	0
17	405	0	10000	2	1	0	2	0
17	406	0	10000	2	1	0	2	0
15	407	0	10000	2	1	0	2	0
14	408	0	10000	2	1	0	2	0
14	409	0	10000	2	1	0	2	0
15	410	0	10000	2	1	0	2	0
15	411	0	10000	2	1	0	2	0
14	412	0	10000	2	1	0	2	0
14	413	0	10000	2	1	0	2	0
13	414	0	10000	2	1	0	2	0
13	415	0	10000	2	1	0	2	0
12	416	0	10000	2	1	0	2	0
13	417	0	10000	2	1	0	2	0
15	418	0	10000	2	1	0	2	0
14	419	0	10000	2	1	0	2	0
14	420	0	10000	2	1	0	2	0
15	421	0	10000	2	1	0	2	0
13	422	0	10000	2	1	0	2	0
13	423	0	10000	2	1	0	2	0
14	424	0	10000	2	1	0	2	0
14	425	0	10000	2	1	0	2	0
14	426	0	10000	2	1	0	2	0
14	427	0	10000	2	1	0	2	0
15	428	0	10000	2	1	0	2	0
16	429	0	10000	2	1	0	2	0
18	430	0	10000	2	1	0	2	0
18	431	0	10000	2	1	0	2	0
18	432	0	10000	2	1	0	2	0
17	433	0	10000	2	1	0	2	0
17	434	0	10000	2	1	0	2	0
16	435	0	10000	2	1	0	2	0
15	436	0	10000	2	1	0	2	0
16	437	0	10000	2	1	0	2	0
17	438	0	10000	2	1	0	2	0
16	439	0	10000	2	1	0	2	0
16	440	0	10000	2	1	0	2	0
16	441	0	10000	2	1	0	2	0
15	442	0	10000	2	1	0	2	0
15	443	0	10000	2	1	0	2	0
15	444	0	10000	2	1	0	2	0
15	445	0	10000	2	1	0	2	0
16	446	0	10000	2	1	0	2	0
15	447	0	10000	2	1	0	2	0
15	448	0	10000	2	1	0	2	0
16	449	0	10000	2	1	0	2	0
15	450	0	10000	2	1	0	2	0
16	451	0	10000	2	1	0	2	0
15	452	0	10000	2	1	0	2	0
15	453	0	10000	2	1	0	2	0
14	454	0	10000	2	1	0	2	0
13	455	0	10000	2	1	0	2	0
13	456	0	10000	2	1	0	2	0
14	457	0	10000	2	1	0	2	0
15	458	0	10000	2	1	0	2	0
14	459	0	10000	2	1	0	2	0
14	460	0	10000	2	1	0	2	0
14	461	0	10000	2	1	0	2	0
13	462	0	10000	2	1	0	2	0
13	463	0	10000	2	1	0	2	0
14	464	0	10000	2	1	0	2	0
13	465	0	10000	2	1	0	2	0
14	466	0	10000	2	1	0	2	0
12	467	0	10000	2	1	0	2	0
11	468	0	10000	2	1	0	2	0
12	469	0	10000	2	1	0	2	0
12	470	0	10000	2	1	0	2	0
12	471	0	10000	2	1	0	2	0
13	472	0	10000	2	1	0	2	0
13	473	0	10000	2	1	0	2	0
12	474	0	10000	2	1	0	2	0
12	475	0	10000	2	1	0	2	0
11	476	0	10000	2	1	0	2	0
12	477	0	10000	2	1	0	2	0
13	478	0	10000	2	1	0	2	0
13	479	0	10000	2	1	0	2	0
13	480	0	10000	2	1	0	2	0
14	481	0	10000	2	1	0	2	0
13	482	0	10000	2	1	0	2	0
12	483	0	10000	2	1	0	2	0
13	484	0	10000	2	1	0	2	0
13	485	0	10000	2	1	0	2	0
13	486	0	10000	2	1	0	2	0
13	487	0	10000	2	1	0	2	0
12	488	0	10000	2	1	0	2	0
12	489	0	10000	2	1	0	2	0
12	490	0	10000	2	1	0	2	0
12	491	0	10000	2	1	0	2	0
11	492	0	10000	2	1	0	2	0
12	493	0	10000	2	1	0	2	0
12	494	0	10000	2	1	0	2	0
11	495	0	10000	2	1	0	2	0
11	496	0	10000	2	1	0	2	0
12	497	0	10000	2	1	0	2	0
12	498	0	10000	2	1	0	2	0
12	499	0	10000	2	1	0	2	0
12	500	0	10000	2	1	0	2	0
13	501	0	10000	2	1	0	2	0
13	502	0	10000	2	1	0	2	1
15	503	0	10000	2	1	0	2	1
16	504	0	10000	2	1	0	2	1
16	505	0	10000	2	1	0	2	1
15	506	0	10000	2	1	0	2	1
15	507	0	10000	2	1	0	2	1
14	508	0	10000	2	1	0	2	1
14	509	0	10000	2	1	0	2	1
14	510	0	10000	2	1	0	2	1
14	511	0	10000	2	1	0	2	1
14	512	0	10000	2	1	0	2	1
14	513	0	10000	2	1	0	2	1
13	514	0	10000	2	1	0	2	1
13	515	0	10000	2	1	0	2	1
13	516	0	10000	2	1	0	2	1
13	517	0	10000	2	1	0	2	1
14	518	0	10000	2	1	0	2	1
13	519	0	10000	2	1	0	2	1
13	520	0	10000	2	1	0	2	1
13	521	0	10000	2	1	0	2	1
12	522	0	10000	2	1	0	2	1
12	523	0	10000	2	1	0	2	1
13	524	0	10000	2	1	0	2	1
12	525	0	10000	2	1	0	2	1
12	526	0	10000	2	1	0	2	1
11	527	0	10000	2	1	0	2	1
10	528	0	10000	2	1	0	2	1
10	529	0	10000	2	1	0	2	1
11	530	0	10000	2	1	0	2	1
11	531	0	10000	2	1	0	2	1
11	532	0	10000	2	1	0	2	1
11	533	0	10000	2	1	0	2	1
11	534	0	10000	2	1	0	2	1
11	535	0	10000	2	1	0	2	1
11	536	0	10000	2	1	0	2	1
11	537	0	10000	2	1	0	2	1
12	538	0	10000	2	1	0	2	1
12	539	0	10000	2	1	0	2	1
11	540	0	10000	2	1	0	2	1
10	541	0	10000	2	1	0	2	1
11	542	0	10000	2	1	0	2	1
11	543	0	10000	2	1	0	2	1
11	544	0	10000	2	1	0	2	1
11	545	0	10000	2	1	0	2	1
11	546	0	10000	2	1	0	2	1
10	547	0	10000	2	1	0	2	1
9	548	0	10000	2	1	0	2	1
10	549	0	10000	2	1	0	2	1
10	550	0	10000	2	1	0	2	1
11	551	0	10000	2	1	0	2	1
10	552	0	10000	2	1	0	2	0
11	553	0	10000	2	1	0	2	0
11	554	0	10000	2	1	0	2	0
10	555	0	10000	2	1	0	2	0
9	556	0	10000	2	1	0	2	0
10	557	0	10000	2	1	0	2	0
11	558	0	10000	2	1	0	2	0
11	559	0	10000	2	1	0	2	0
10	560	0	10000	2	1	0	2	0
10	561	0	10000	2	1	0	2	0
10	562	0	10000	2	1	0	2	0
10	563	0	10000	2	1	0	2	0
12	564	0	10000	2	1	0	2	0
13	565	0	10000	2	1	0	2	0
13	566	0	10000	2	1	0	2	0
13	567	0	10000	2	1	0	2	0
12	568	0	10000	2	1	0	2	0
12	569	0	10000	2	1	0	2	0
13	570	0	10000	2	1	0	2	0
12	571	0	10000	2	1	0	2	0
12	572	0	10000	2	1	0	2	0
13	573	0	10000	2	1	0	2	0
12	574	0	10000	2	1	0	2	0
11	575	0	10000	2	1	0	2	0
10	576	0	10000	2	1	0	2	0
12	577	0	10000	2	1	0	2	0
12	578	0	10000	2	1	0	2	0
12	579	0	10000	2	1	0	2	0
12	580	0	10000	2	1	0	2	0
12	581	0	10000	2	1	0	2	0
12	582	0	10000	2	1	0	2	0
12	583	0	10000	2	1	0	2	0
12	584	0	10000	2	1	0	2	0
13	585	0	10000	2	1	0	2	0
13	586	0	10000	2	1	0	2	0
12	587	0	10000	2	1	0	2	0
11	588	0	10000	2	1	0	2	0
11	589	0	10000	2	1	0	2	0
12	590	0	10000	2	1	0	2	0
12	591	0	10000	2	1	0	2	0
12	592	0	10000	2	1	0	2	0
13	593	0	10000	2	1	0	2	0
13	594	0	10000	2	1	0	2	0
14	595	0	10000	2	1	0	2	0
14	596	0	10000	2	1	0	2	0
15	597	0	10000	2	1	0	2	0
20	598	0	10000	2	1	0	2	0
21	599	0	10000	2	1	0	2	0
25	600	0	10000	2	1	0	2	0
30	601	0	10000	2	1	0	2	0
34	602	0	10000	2	1	0	2	0
34	603	0	10000	2	1	0	2	0
36	604	0	10000	2	1	0	2	0
46	605	0	10000	2	1	0	2	0
49	606	0	10000	2	1	0	2	0
52	607	0	10000	2	1	0	2	0
58	608	0	10000	2	1	0	2	0
80	609	0	10000	2	1	0	2	0
99	610	0	10000	2	1	0	2	0
106	611	0	10000	2	1	0	2	0
104	612	0	10000	2	1	0	2	0
112	613	0	10000	2	1	0	2	0
116	614	0	10000	2	1	0	2	0
125	615	0	10000	2	1	0	2	0
145	616	0	10000	2	1	0	2	0
147	617	0	10000	2	1	0	2	0
158	618	0	10000	2	1	0	2	0
158	619	0	10000	2	1	0	2	0
154	620	0	10000	2	1	0	2	0
148	621	0	10000	2	1	0	2	0
142	622	0	10000	2	1	0	2	0
141	623	0	10000	2	1	0	2	0
139	624	0	10000	2	1	0	2	0
136	625	0	10000	2	1	0	2	0
139	626	0	10000	2	1	0	2	0
145	627	0	10000	2	1	0	2	0
144	628	0	10000	2	1	0	2	0
144	629	0	10000	2	1	0	2	0
148	630	0	10000	2	1	0	2	0
149	631	0	10000	2	1	0	2	0
147	632	0	10000	2	1	0	2	0
142	633	0	10000	2	1	0	2	0
135	634	0	10000	2	1	0	2	0
130	635	0	10000	2	1	0	2	0
127	636	0	10000	2	1	0	2	0
124	637	0	10000	2	1	0	2	0
122	638	0	10000	2	1	0	2	0
119	639	0	10000	2	1	0	2	0
116	640	0	10000	2	1	0	2	0
112	641	0	10000	2	1	0	2	0
108	642	0	10000	2	1	0	2	0
104	643	0	10000	2	1	0	2	0
100	644	0	10000	2	1	0	2	0
96	645	0	10000	2	1	0	2	0
92	646	0	10000	2	1	0	2	0
87	647	0	10000	2	1	0	2	0
83	648	0	10000	2	1	0	2	0
79	649	0	10000	2	1	0	2	0
76	650	0	10000	2	1	0	2	0
73	651	0	10000	2	1	0	2	0
70	652	0	10000	2	1	0	2	0
68	653	0	10000	2	1	0	2	0
64	654	0	10000	2	1	0	2	0
62	655	0	10000	2	1	0	2	0
60	656	0	10000	2	1	0	2	0
58	657	0	10000	2	1	0	2	0
58	658	0	10000	2	1	0	2	0
56	659	0	10000	2	1	0	2	0
56	660	0	10000	2	1	0	2	0
56	661	0	10000	2	1	0	2	0
56	662	0	10000	2	1	0	2	0
55	663	0	10000	2	1	0	2	0
56	664	0	10000	2	1	0	2	0
57	665	0	10000	2	1	0	2	0
57	666	0	10000	2	1	0	2	0
56	667	0	10000	2	1	0	2	0
57	668	0	10000	2	1	0	2	0
59	669	0	10000	2	1	0	2	0
60	670	0	10000	2	1	0	2	0
62	671	0	10000	2	1	0	2	0
63	672	0	10000	2	1	0	2	0
65	673	0	10000	2	1	0	2	0
64	674	0	10000	2	1	0	2	0
64	675	0	10000	2	1	0	2	0
64	676	0	10000	2	1	0	2	0
64	677	0	10000	2	1	0	2	0
64	678	0	10000	2	1	0	2	0
63	679	0	10000	2	1	0	2	0
63	680	0	10000	2	1	0	2	0
63	681	0	10000	2	1	0	2	0
63	682	0	10000	2	1	0	2	0
63	683	0	10000	2	1	0	2	0
63	684	0	10000	2	1	0	2	0
63	685	0	10000	2	1	0	2	0
63	686	0	10000	2	1	0	2	0
62	687	0	10000	2	1	0	2	0
59	688	0	10000	2	1	0	2	0
58	689	0	10000	2	1	0	2	0
56	690	0	10000	2	1	0	2	0
54	691	0	10000	2	1	0	2	0
51	692	0	10000	2	1	0	2	0
50	693	0	10000	2	1	0	2	0
47	694	0	10000	2	1	0	2	0
45	695	0	10000	2	1	0	2	0
44	696	0	10000	2	1	0	2	0
43	697	0	10000	2	1	0	2	0
43	698	0	10000	2	1	0	2	0
41	699	0	10000	2	1	0	2	0
40	700	0	10000	2	1	0	2	0
39	701	0	10000	2	1	0	2	0
37	702	0	10000	2	1	0	2	0
36	703	0	10000	2	1	0	2	0
35	704	0	10000	2	1	0	2	0
34	705	0	10000	2	1	0	2	0
34	706	0	10000	2	1	0	2	0
31	707	0	10000	2	1	0	2	0
30	708	0	10000	2	1	0	2	0
30	709	0	10000	2	1	0	2	0
29	710	0	10000	2	1	0	2	0
30	711	0	10000	2	1	0	2	0
30	712	0	10000	2	1	0	2	0
31	713	0	10000	2	1	0	2	0
31	714	0	10000	2	1	0	2	0
30	715	0	10000	2	1	0	2	0
30	716	0	10000	2	1	0	2	0
31	717	0	10000	2	1	0	2	0
32	718	0	10000	2	1	0	2	0
31	719	0	10000	2	1	0	2	0
31	720	0	10000	2	1	0	2	0
30	721	0	10000	2	1	0	2	0
30	722	0	10000	2	1	0	2	0
31	723	0	10000	2	1	0	2	0
31	724	0	10000	2	1	0	2	0
31	725	0	10000	2	1	0	2	0
31	726	0	10000	2	1	0	2	0
29	727	0	10000	2	1	0	2	0
28	728	0	10000	2	1	0	2	0
28	729	0	10000	2	1	0	2	0
29	730	0	10000	2	1	0	2	0
30	731	0	10000	2	1	0	2	0
30	732	0	10000	2	1	0	2	0
31	733	0	10000	2	1	0	2	0
31	734	0	10000	2	1	0	2	0
30	735	0	10000	2	1	0	2	0
31	736	0	10000	2	1	0	2	0
32	737	0	10000	2	1	0	2	0
34	738	0	10000	2	1	0	2	0
35	739	0	10000	2	1	0	2	0
33	740	0	10000	2	1	0	2	0
32	741	0	10000	2	1	0	2	0
32	742	0	10000	2	1	0	2	0
31	743	0	10000	2	1	0	2	0
30	744	0	10000	2	1	0	2	0
29	745	0	10000	2	1	0	2	0
30	746	0	10000	2	1	0	2	0
29	747	0	10000	2	1	0	2	0
28	748	0	10000	2	1	0	2	0
29	749	0	10000	2	1	0	2	0
30	750	0	10000	2	1	0	2	0
29	751	0	10000	2	1	0	2	0
30	752	0	10000	2	1	0	2	0
30	753	0	10000	2	1	0	2	0
30	754	0	10000	2	1	0	2	0
29	755	0	10000	2	1	0	2	0
28	756	0	10000	2	1	0	2	0
29	757	0	10000	2	1	0	2	0
30	758	0	10000	2	1	0	2	0
29	759	0	10000	2	1	0	2	0
28	760	0	10000	2	1	0	2	0
27	761	0	10000	2	1	0	2	0
27	762	0	10000	2	1	0	2	0
26	763	0	10000	2	1	0	2	0
25	764	0	10000	2	1	0	2	0
25	765	0	10000	2	1	0	2	0
24	766	0	10000	2	1	0	2	0
23	767	0	10000	2	1	0	2	0
21	768	0	10000	2	1	0	2	0
21	769	0	10000	2	1	0	2	0
20	770	0	10000	2	1	0	2	0
20	771	0	10000	2	1	0	2	0
20	772	0	10000	2	1	0	2	0
20	773	0	10000	2	1	0	2	0
19	774	0	10000	2	1	0	2	0
19	775	0	10000	2	1	0	2	0
18	776	0	10000	2	1	0	2	0
18	777	0	10000	2	1	0	2	0
19	778	0	10000	2	1	0	2	0
19	779	0	10000	2	1	0	2	0
18	780	0	10000	2	1	0	2	0
17	781	0	10000	2	1	0	2	0
17	782	0	10000	2	1	0	2	0
17	783	0	10000	2	1	0	2	0
16	784	0	10000	2	1	0	2	0
17	785	0	10000	2	1	0	2	0
17	786	0	10000	2	1	0	2	0
16	787	0	10000	2	1	0	2	0
16	788	0	10000	2	1	0	2	0
16	789	0	10000	2	1	0	2	0
16	790	0	10000	2	1	0	2	0
16	791	0	10000	2	1	0	2	0
15	792	0	10000	2	1	0	2	0
15	793	0	10000	2	1	0	2	0
15	794	0	10000	2	1	0	2	0
14	795	0	10000	2	1	0	2	0
14	796	0	10000	2	1	0	2	0
16	797	0	10000	2	1	0	2	0
16	798	0	10000	2	1	0	2	0
16	799	0	10000	2	1	0	2	0
15	800	0	10000	2	1	0	2	0
14	801	0	10000	2	1	0	2	0
16	802	0	10000	2	1	0	2	0
16	803	0	10000	2	1	0	2	0
17	804	0	10000	2	1	0	2	0
18	805	0	10000	2	1	0	2	0
17	806	0	10000	2	1	0	2	0
16	807	0	10000	2	1	0	2	0
15	808	0	10000	2	1	0	2	0
15	809	0	10000	2	1	0	2	0
15	810	0	10000	2	1	0	2	0
15	811	0	10000	2	1	0	2	0
15	812	0	10000	2	1	0	2	0
15	813	0	10000	2	1	0	2	0
16	814	0	10000	2	1	0	2	0
15	815	0	10000	2	1	0	2	0
14	816	0	10000	2	1	0	2	0
15	817	0	10000	2	1	0	2	0
16	818	0	10000	2	1	0	2	0
16	819	0	10000	2	1	0	2	0
16	820	0	10000	2	1	0	2	0
15	821	0	10000	2	1	0	2	0
16	822	0	10000	2	1	0	2	0
15	823	0	10000	2	1	0	2	0
15	824	0	10000	2	1	0	2	0
16	825	0	10000	2	1	0	2	0
16	826	0	10000	2	1	0	2	0
14	827	0	10000	2	1	0	2	0
14	828	0	10000	2	1	0	2	0
14	829	0	10000	2	1	0	2	0
14	830	0	10000	2	1	0	2	0
14	831	0	10000	2	1	0	2	0
14	832	0	10000	2	1	0	2	0
14	833	0	10000	2	1	0	2	0
14	834	0	10000	2	1	0	2	0
13	835	0	10000	2	1	0	2	0
14	836	0	10000	2	1	0	2	0
14	837	0	10000	2	1	0	2	0
15	838	0	10000	2	1	0	2	0
14	839	0	10000	2	1	0	2	0
14	840	0	10000	2	1	0	2	0
13	841	0	10000	2	1	0	2	0
13	842	0	10000	2	1	0	2	0
12	843	0	10000	2	1	0	2	0
12	844	0	10000	2	1	0	2	0
13	845	0	10000	2	1	0	2	0
13	846	0	10000	2	1	0	2	0
12	847	0	10000	2	1	0	2	0
11	848	0	10000	2	1	0	2	0
11	849	0	10000	2	1	0	2	0
10	850	0	10000	2	1	0	2	0
11	851	0	10000	2	1	0	2	0
10	852	0	10000	2	1	0	2	0
11	853	0	10000	2	1	0	2	0
11	854	0	10000	2	1	0	2	0
10	855	0	10000	2	1	0	2	0
10	856	0	10000	2	1	0	2	0
11	857	0	10000	2	1	0	2	0
13	858	0	10000	2	1	0	2	0
13	859	0	10000	2	1	0	2	0
13	860	0	10000	2	1	0	2	0
12	861	0	10000	2	1	0	2	0
12	862	0	10000	2	1	0	2	0
13	863	0	10000	2	1	0	2	0
12	864	0	10000	2	1	0	2	0
13	865	0	10000	2	1	0	2	0
13	866	0	10000	2	1	0	2	0
11	867	0	10000	2	1	0	2	0
11	868	0	10000	2	1	0	2	0
10	869	0	10000	2	1	0	2	0
10	870	0	10000	2	1	0	2	0
11	871	0	10000	2	1	0	2	0
11	872	0	10000	2	1	0	2	0
11	873	0	10000	2	1	0	2	0
10	874	0	10000	2	1	0	2	0
10	875	0	10000	2	1	0	2	0
9	876	0	10000	2	1	0	2	0
11	877	0	10000	2	1	0	2	0
11	878	0	10000	2	1	0	2	0
11	879	0	10000	2	1	0	2	0
11	880	0	10000	2	1	0	2	0
10	881	0	10000	2	1	0	2	0
11	882	0	10000	2	1	0	2	0
10	883	0	10000	2	1	0	2	0
11	884	0	10000	2	1	0	2	0
11	885	0	10000	2	1	0	2	0
12	886	0	10000	2	1	0	2	0
12	887	0	10000	2	1	0	2	0
11	888	0	10000	2	1	0	2	0
11	889	0	10000	2	1	0	2	0
11	890	0	10000	2	1	0	2	0
11	891	0	10000	2	1	0	2	0
12	892	0	10000	2	1	0	2	0
12	893	0	10000	2	1	0	2	0
11	894	0	10000	2	1	0	2	0
10	895	0	10000	2	1	0	2	0
10	896	0	10000	2	1	0	2	0
12	897	0	10000	2	1	0	2	0
12	898	0	10000	2	1	0	2	0
12	899	0	10000	2	1	0	2	0
12	900	0	10000	2	1	0	2	0
11	901	0	10000	2	1	0	2	0
12	902	0	10000	2	1	0	2	0
12	903	0	10000	2	1	0	2	0
13	904	0	10000	2	1	0	2	0
13	905	0	10000	2	1	0	2	0
14	906	0	10000	2	1	0	2	0
13	907	0	10000	2	1	0	2	0
13	908	0	10000	2	1	0	2	0
12	909	0	10000	2	1	0	2	0
12	910	0	10000	2	1	0	2	0
12	911	0	10000	2	1	0	2	0
12	912	0	10000	2	1	0	2	0
12	913	0	10000	2	1	0	2	0
12	914	0	10000	2	1	0	2	0
11	915	0	10000	2	1	0	2	0
10	916	0	10000	2	1	0	2	0
11	917	0	10000	2	1	0	2	0
12	918	0	10000	2	1	0	2	0
12	919	0	10000	2	1	0	2	0
12	920	0	10000	2	1	0	2	0
11	921	0	10000	2	1	0	2	0
11	922	0	10000	2	1	0	2	0
11	923	0	10000	2	1	0	2	0
11	924	0	10000	2	1	0	2	0
12	925	0	10000	2	1	0	2	0
12	926	0	10000	2	1	0	2	0
12	927	0	10000	2	1	0	2	0
12	928	0	10000	2	1	0	2	0
12	929	0	10000	2	1	0	2	0
12	930	0	10000	2	1	0	2	0
12	931	0	10000	2	1	0	2	0
12	932	0	10000	2	1	0	2	0
12	933	0	10000	2	1	0	2	0
12	934	0	10000	2	1	0	2	0
11	935	0	10000	2	1	0	2	0
11	936	0	10000	2	1	0	2	0
12	937	0	10000	2	1	0	2	0
13	938	0	10000	2	1	0	2	0
12	939	0	10000	2	1	0	2	0
12	940	0	10000	2	1	0	2	0
11	941	0	10000	2	1	0	2	0
11	942	0	10000	2	1	0	2	0
11	943	0	10000	2	1	0	2	0
11	944	0	10000	2	1	0	2	0
12	945	0	10000	2	1	0	2	0
12	946	0	10000	2	1	0	2	0
11	947	0	10000	2	1	0	2	0
11	948	0	10000	2	1	0	2	0
11	949	0	10000	2	1	0	2	0
10	950	0	10000	2	1	0	2	0
11	951	0	10000	2	1	0	2	0
10	952	0	10000	2	1	0	2	0
10	953	0	10000	2	1	0	2	0
10	954	0	10000	2	1	0	2	0
11	955	0	10000	2	1	0	2	0
11	956	0	10000	2	1	0	2	0
11	957	0	10000	2	1	0	2	0
13	958	0	10000	2	1	0	2	0
12	959	0	10000	2	1	0	2	0
12	960	0	10000	2	1	0	2	0
11	961	0	10000	2	1	0	2	0
11	962	0	10000	2	1	0	2	0
11	963	0	10000	2	1	0	2	0
11	964	0	10000	2	1	0	2	0
11	965	0	10000	2	1	0	2	0
13	966	0	10000	2	1	0	2	0
12	967	0	10000	2	1	0	2	0
10	968	0	10000	2	1	0	2	0
11	969	0	10000	2	1	0	2	0
11	970	0	10000	2	1	0	2	0
12	971	0	10000	2	1	0	2	0
12	972	0	10000	2	1	0	2	0
12	973	0	10000	2	1	0	2	0
13	974	0	10000	2	1	0	2	0
13	975	0	10000	2	1	0	2	0
12	976	0	10000	2	1	0	2	0
13	977	0	10000	2	1	0	2	0
16	978	0	10000	2	1	0	2	0
15	979	0	10000	2	1	0	2	0
15	980	0	10000	2	1	0	2	0
14	981	0	10000	2	1	0	2	0
15	982	0	10000	2	1	0	2	0
14	983	0	10000	2	1	0	2	0
14	984	0	10000	2	1	0	2	0
14	985	0	10000	2	1	0	2	0
14	986	0	10000	2	1	0	2	0
13	987	0	10000	2	1	0	2	0
12	988	0	10000	2	1	0	2	0
12	989	0	10000	2	1	0	2	0
12	990	0	10000	2	1	0	2	0
13	991	0	10000	2	1	0	2	0
12	992	0	10000	2	1	0	2	0
12	993	0	10000	2	1	0	2	0
13	994	0	10000	2	1	0	2	0
12	995	0	10000	2	1	0	2	0
11	996	0	10000	2	1	0	2	0
12	997	0	10000	2	1	0	2	0
13	998	0	10000	2	1	0	2	0
12	999	0	10000	2	1	0	2	0
12	1000	0	10000	2	1	0	2	0
12	1001	0	10000	2	1	0	2	0
11	2	10	10000	3	1	0	3	0
11	3	10	10000	3	1	0	3	0
10	4	10	10000	3	1	0	3	0
10	5	10	10000	3	1	0	3	0
10	6	10	10000	3	1	0	3	0
10	7	10	10000	3	1	0	3	0
11	8	10	10000	3	1	0	3	0
11	9	10	10000	3	1	0	3	0
11	10	10	10000	3	1	0	3	0
11	11	10	10000	3	1	0	3	0
10	12	10	10000	3	1	0	3	0
10	13	10	10000	3	1	0	3	0
12	14	10	10000	3	1	0	3	0
13	15	10	10000	3	1	0	3	0
13	16	10	10000	3	1	0	3	0
13	17	10	10000	3	1	0	3	0
11	18	10	10000	3	1	0	3	0
11	19	10	10000	3	1	0	3	0
12	20	10	10000	3	1	0	3	0
11	21	10	10000	3	1	0	3	0
11	22	10	10000	3	1	0	3	0
12	23	10	10000	3	1	0	3	0
12	24	10	10000	3	1	0	3	0
13	25	10	10000	3	1	0	3	0
14	26	10	10000	3	1	0	3	0
14	27	10	10000	3	1	0	3	0
14	28	10	10000	3	1	0	3	0
14	29	10	10000	3	1	0	3	0
15	30	10	10000	3	1	0	3	0
14	31	10	10000	3	1	0	3	0
14	31	10	10000	3	1	0	3	0
12	32	10	10000	3	1	0	3	0
14	34	10	10000	3	1	0	3	0
14	35	10	10000	3	1	0	3	0
13	36	10	10000	3	1	0	3	0
14	37	10	10000	3	1	0	3	0
13	38	10	10000	3	1	0	3	0
13	39	10	10000	3	1	0	3	0
14	40	10	10000	3	1	0	3	0
13	41	10	10000	3	1	0	3	0
14	42	10	10000	3	1	0	3	0
14	43	10	10000	3	1	0	3	0
13	44	10	10000	3	1	0	3	0
12	45	10	10000	3	1	0	3	0
12	46	10	10000	3	1	0	3	0
12	47	10	10000	3	1	0	3	0
12	48	10	10000	3	1	0	3	0
12	49	10	10000	3	1	0	3	0
12	50	10	10000	3	1	0	3	0
12	51	10	10000	3	1	0	3	0
11	52	10	10000	3	1	0	3	0
10	53	10	10000	3	1	0	3	0
11	54	10	10000	3	1	0	3	0
13	55	10	10000	3	1	0	3	0
12	56	10	10000	3	1	0	3	0
12	57	10	10000	3	1	0	3	0
11	58	10	10000	3	1	0	3	0
11	59	10	10000	3	1	0	3	0
12	60	10	10000	3	1	0	3	0
12	61	10	10000	3	1	0	3	0
13	62	10	10000	3	1	0	3	0
13	63	10	10000	3	1	0	3	0
12	64	10	10000	3	1	0	3	0
11	65	10	10000	3	1	0	3	0
12	66	10	10000	3	1	0	3	0
11	67	10	10000	3	1	0	3	0
11	68	10	10000	3	1	0	3	0
12	69	10	10000	3	1	0	3	0
11	70	10	10000	3	1	0	3	0
10	71	10	10000	3	1	0	3	0
10	72	10	10000	3	1	0	3	0
9	73	10	10000	3	1	0	3	0
10	74	10	10000	3	1	0	3	0
11	75	10	10000	3	1	0	3	0
11	76	10	10000	3	1	0	3	0
11	77	10	10000	3	1	0	3	0
11	78	10	10000	3	1	0	3	0
11	79	10	10000	3	1	0	3	0
11	80	10	10000	3	1	0	3	0
10	81	10	10000	3	1	0	3	0
11	82	10	10000	3	1	0	3	0
11	83	10	10000	3	1	0	3	0
10	84	10	10000	3	1	0	3	0
9	85	10	10000	3	1	0	3	0
9	86	10	10000	3	1	0	3	0
9	87	10	10000	3	1	0	3	0
10	88	10	10000	3	1	0	3	0
9	89	10	10000	3	1	0	3	0
9	90	10	10000	3	1	0	3	0
9	91	10	10000	3	1	0	3	0
9	92	10	10000	3	1	0	3	0
9	93	10	10000	3	1	0	3	0
10	94	10	10000	3	1	0	3	0
11	95	10	10000	3	1	0	3	0
11	96	10	10000	3	1	0	3	0
11	97	10	10000	3	1	0	3	0
10	98	10	10000	3	1	0	3	0
9	99	10	10000	3	1	0	3	0
10	100	10	10000	3	1	0	3	0
9	101	10	10000	3	1	0	3	0
10	102	10	10000	3	1	0	3	0
10	103	10	10000	3	1	0	3	0
10	104	10	10000	3	1	0	3	0
9	105	10	10000	3	1	0	3	0
9	106	10	10000	3	1	0	3	0
9	107	10	10000	3	1	0	3	0
9	108	10	10000	3	1	0	3	0
10	109	10	10000	3	1	0	3	0
9	110	10	10000	3	1	0	3	0
9	111	10	10000	3	1	0	3	0
9	112	10	10000	3	1	0	3	0
9	113	10	10000	3	1	0	3	0
10	114	10	10000	3	1	0	3	0
12	115	10	10000	3	1	0	3	0
12	116	10	10000	3	1	0	3	0
12	117	10	10000	3	1	0	3	0
11	118	10	10000	3	1	0	3	0
11	119	10	10000	3	1	0	3	0
11	120	10	10000	3	1	0	3	0
11	121	10	10000	3	1	0	3	0
11	122	10	10000	3	1	0	3	0
11	123	10	10000	3	1	0	3	0
10	124	10	10000	3	1	0	3	0
9	125	10	10000	3	1	0	3	0
10	126	10	10000	3	1	0	3	0
10	127	10	10000	3	1	0	3	0
10	128	10	10000	3	1	0	3	0
10	129	10	10000	3	1	0	3	0
10	130	10	10000	3	1	0	3	0
10	131	10	10000	3	1	0	3	0
10	132	10	10000	3	1	0	3	0
10	133	10	10000	3	1	0	3	0
10	134	10	10000	3	1	0	3	0
11	135	10	10000	3	1	0	3	0
10	136	10	10000	3	1	0	3	0
11	137	10	10000	3	1	0	3	0
10	138	10	10000	3	1	0	3	0
10	139	10	10000	3	1	0	3	0
11	140	10	10000	3	1	0	3	0
10	141	10	10000	3	1	0	3	0
11	142	10	10000	3	1	0	3	0
13	143	10	10000	3	1	0	3	0
14	144	10	10000	3	1	0	3	0
13	145	10	10000	3	1	0	3	0
14	146	10	10000	3	1	0	3	0
14	147	10	10000	3	1	0	3	0
14	148	10	10000	3	1	0	3	0
14	149	10	10000	3	1	0	3	0
14	150	10	10000	3	1	0	3	0
14	151	10	10000	3	1	0	3	0
14	152	10	10000	3	1	0	3	0
13	153	10	10000	3	1	0	3	0
14	154	10	10000	3	1	0	3	0
16	155	10	10000	3	1	0	3	0
15	156	10	10000	3	1	0	3	0
15	157	10	10000	3	1	0	3	0
14	158	10	10000	3	1	0	3	0
14	159	10	10000	3	1	0	3	0
14	160	10	10000	3	1	0	3	0
15	161	10	10000	3	1	0	3	0
15	162	10	10000	3	1	0	3	0
16	163	10	10000	3	1	0	3	0
14	164	10	10000	3	1	0	3	0
13	165	10	10000	3	1	0	3	0
14	166	10	10000	3	1	0	3	0
14	167	10	10000	3	1	0	3	0
14	168	10	10000	3	1	0	3	0
14	169	10	10000	3	1	0	3	0
14	170	10	10000	3	1	0	3	0
14	171	10	10000	3	1	0	3	0
13	172	10	10000	3	1	0	3	0
12	173	10	10000	3	1	0	3	0
13	174	10	10000	3	1	0	3	0
14	175	10	10000	3	1	0	3	0
13	176	10	10000	3	1	0	3	0
13	177	10	10000	3	1	0	3	0
12	178	10	10000	3	1	0	3	0
13	179	10	10000	3	1	0	3	0
14	180	10	10000	3	1	0	3	0
13	181	10	10000	3	1	0	3	0
13	182	10	10000	3	1	0	3	0
15	183	10	10000	3	1	0	3	0
13	184	10	10000	3	1	0	3	0
11	185	10	10000	3	1	0	3	0
12	186	10	10000	3	1	0	3	0
11	187	10	10000	3	1	0	3	0
12	188	10	10000	3	1	0	3	0
11	189	10	10000	3	1	0	3	0
11	190	10	10000	3	1	0	3	0
11	191	10	10000	3	1	0	3	0
10	192	10	10000	3	1	0	3	0
10	193	10	10000	3	1	0	3	0
10	194	10	10000	3	1	0	3	0
12	195	10	10000	3	1	0	3	0
11	196	10	10000	3	1	0	3	0
11	197	10	10000	3	1	0	3	0
11	198	10	10000	3	1	0	3	0
12	199	10	10000	3	1	0	3	0
12	200	10	10000	3	1	0	3	0
11	201	10	10000	3	1	0	3	0
13	202	10	10000	3	1	0	3	0
13	203	10	10000	3	1	0	3	0
11	204	10	10000	3	1	0	3	0
11	205	10	10000	3	1	0	3	0
12	206	10	10000	3	1	0	3	0
11	207	10	10000	3	1	0	3	0
12	208	10	10000	3	1	0	3	0
11	209	10	10000	3	1	0	3	0
11	210	10	10000	3	1	0	3	0
11	211	10	10000	3	1	0	3	0
11	212	10	10000	3	1	0	3	0
10	213	10	10000	3	1	0	3	0
11	214	10	10000	3	1	0	3	0
12	215	10	10000	3	1	0	3	0
12	216	10	10000	3	1	0	3	0
12	217	10	10000	3	1	0	3	0
11	218	10	10000	3	1	0	3	0
11	219	10	10000	3	1	0	3	0
12	220	10	10000	3	1	0	3	0
12	221	10	10000	3	1	0	3	0
12	222	10	10000	3	1	0	3	0
15	223	10	10000	3	1	0	3	0
13	224	10	10000	3	1	0	3	0
11	225	10	10000	3	1	0	3	0
13	226	10	10000	3	1	0	3	0
13	227	10	10000	3	1	0	3	0
13	228	10	10000	3	1	0	3	0
13	229	10	10000	3	1	0	3	0
13	230	10	10000	3	1	0	3	0
13	231	10	10000	3	1	0	3	0
12	232	10	10000	3	1	0	3	0
11	233	10	10000	3	1	0	3	0
11	234	10	10000	3	1	0	3	0
13	235	10	10000	3	1	0	3	0
13	236	10	10000	3	1	0	3	0
12	237	10	10000	3	1	0	3	0
12	238	10	10000	3	1	0	3	0
11	239	10	10000	3	1	0	3	0
11	240	10	10000	3	1	0	3	0
11	241	10	10000	3	1	0	3	0
11	242	10	10000	3	1	0	3	0
13	243	10	10000	3	1	0	3	0
11	244	10	10000	3	1	0	3	0
9	245	10	10000	3	1	0	3	0
10	246	10	10000	3	1	0	3	0
10	247	10	10000	3	1	0	3	0
11	248	10	10000	3	1	0	3	0
11	249	10	10000	3	1	0	3	0
10	250	10	10000	3	1	0	3	0
11	251	10	10000	3	1	0	3	0
11	252	10	10000	3	1	0	3	0
11	253	10	10000	3	1	0	3	0
12	254	10	10000	3	1	0	3	0
13	255	10	10000	3	1	0	3	0
13	256	10	10000	3	1	0	3	0
13	257	10	10000	3	1	0	3	0
13	258	10	10000	3	1	0	3	0
12	259	10	10000	3	1	0	3	0
13	260	10	10000	3	1	0	3	0
13	261	10	10000	3	1	0	3	0
13	262	10	10000	3	1	0	3	0
14	263	10	10000	3	1	0	3	0
13	264	10	10000	3	1	0	3	0
11	265	10	10000	3	1	0	3	0
12	266	10	10000	3	1	0	3	0
11	267	10	10000	3	1	0	3	0
12	268	10	10000	3	1	0	3	0
12	269	10	10000	3	1	0	3	0
12	270	10	10000	3	1	0	3	0
11	271	10	10000	3	1	0	3	0
11	272	10	10000	3	1	0	3	0
10	273	10	10000	3	1	0	3	0
11	274	10	10000	3	1	0	3	0
12	275	10	10000	3	1	0	3	0
11	276	10	10000	3	1	0	3	0
11	277	10	10000	3	1	0	3	0
12	278	10	10000	3	1	0	3	0
12	279	10	10000	3	1	0	3	0
12	280	10	10000	3	1	0	3	0
12	281	10	10000	3	1	0	3	0
12	282	10	10000	3	1	0	3	0
13	283	10	10000	3	1	0	3	0
12	284	10	10000	3	1	0	3	0
10	285	10	10000	3	1	0	3	0
11	286	10	10000	3	1	0	3	0
10	287	10	10000	3	1	0	3	0
10	288	10	10000	3	1	0	3	0
10	289	10	10000	3	1	0	3	0
10	290	10	10000	3	1	0	3	0
10	291	10	10000	3	1	0	3	0
10	292	10	10000	3	1	0	3	0
10	293	10	10000	3	1	0	3	0
10	294	10	10000	3	1	0	3	0
12	295	10	10000	3	1	0	3	0
12	296	10	10000	3	1	0	3	0
11	297	10	10000	3	1	0	3	0
12	298	10	10000	3	1	0	3	0
11	299	10	10000	3	1	0	3	0
12	300	10	10000	3	1	0	3	0
11	301	10	10000	3	1	0	3	0
12	302	10	10000	3	1	0	3	0
12	303	10	10000	3	1	0	3	0
11	304	10	10000	3	1	0	3	0
9	305	10	10000	3	1	0	3	0
11	306	10	10000	3	1	0	3	0
10	307	10	10000	3	1	0	3	0
10	308	10	10000	3	1	0	3	0
11	309	10	10000	3	1	0	3	0
11	310	10	10000	3	1	0	3	0
10	311	10	10000	3	1	0	3	0
10	312	10	10000	3	1	0	3	0
9	313	10	10000	3	1	0	3	0
11	314	10	10000	3	1	0	3	0
14	315	10	10000	3	1	0	3	0
14	316	10	10000	3	1	0	3	0
13	317	10	10000	3	1	0	3	0
14	318	10	10000	3	1	0	3	0
15	319	10	10000	3	1	0	3	0
15	320	10	10000	3	1	0	3	0
15	321	10	10000	3	1	0	3	0
15	322	10	10000	3	1	0	3	0
16	323	10	10000	3	1	0	3	0
15	324	10	10000	3	1	0	3	0
14	325	10	10000	3	1	0	3	0
16	326	10	10000	3	1	0	3	0
17	327	10	10000	3	1	0	3	0
17	328	10	10000	3	1	0	3	0
17	329	10	10000	3	1	0	3	0
17	330	10	10000	3	1	0	3	0
16	331	10	10000	3	1	0	3	0
15	332	10	10000	3	1	0	3	0
15	333	10	10000	3	1	0	3	0
16	334	10	10000	3	1	0	3	0
17	335	10	10000	3	1	0	3	0
21	336	10	10000	3	1	0	3	0
25	337	10	10000	3	1	0	3	0
28	338	10	10000	3	1	0	3	0
27	339	10	10000	3	1	0	3	0
27	340	10	10000	3	1	0	3	0
28	341	10	10000	3	1	0	3	0
29	342	10	10000	3	1	0	3	0
42	343	10	10000	3	1	0	3	0
57	344	10	10000	3	1	0	3	0
69	345	10	10000	3	1	0	3	0
72	346	10	10000	3	1	0	3	0
69	347	10	10000	3	1	0	3	0
72	348	10	10000	3	1	0	3	0
81	349	10	10000	3	1	0	3	0
86	350	10	10000	3	1	0	3	0
92	351	10	10000	3	1	0	3	0
95	352	10	10000	3	1	0	3	0
95	353	10	10000	3	1	0	3	0
93	354	10	10000	3	1	0	3	0
93	355	10	10000	3	1	0	3	0
114	356	10	10000	3	1	0	3	0
141	357	10	10000	3	1	0	3	0
155	358	10	10000	3	1	0	3	0
156	359	10	10000	3	1	0	3	0
158	360	10	10000	3	1	0	3	0
171	361	10	10000	3	1	0	3	0
180	362	10	10000	3	1	0	3	0
184	363	10	10000	3	1	0	3	0
185	364	10	10000	3	1	0	3	0
207	365	10	10000	3	1	0	3	0
214	366	10	10000	3	1	0	3	0
239	367	10	10000	3	1	0	3	0
253	368	10	10000	3	1	0	3	0
256	369	10	10000	3	1	0	3	0
247	370	10	10000	3	1	0	3	0
236	371	10	10000	3	1	0	3	0
225	372	10	10000	3	1	0	3	0
216	373	10	10000	3	1	0	3	0
210	374	10	10000	3	1	0	3	0
207	375	10	10000	3	1	0	3	0
204	376	10	10000	3	1	0	3	0
201	377	10	10000	3	1	0	3	0
199	378	10	10000	3	1	0	3	0
196	379	10	10000	3	1	0	3	0
192	380	10	10000	3	1	0	3	0
189	381	10	10000	3	1	0	3	0
185	382	10	10000	3	1	0	3	0
180	383	10	10000	3	1	0	3	0
176	384	10	10000	3	1	0	3	0
169	385	10	10000	3	1	0	3	0
164	386	10	10000	3	1	0	3	0
157	387	10	10000	3	1	0	3	0
155	388	10	10000	3	1	0	3	0
154	389	10	10000	3	1	0	3	0
152	390	10	10000	3	1	0	3	0
153	391	10	10000	3	1	0	3	0
149	392	10	10000	3	1	0	3	0
141	393	10	10000	3	1	0	3	0
137	394	10	10000	3	1	0	3	0
134	395	10	10000	3	1	0	3	0
128	396	10	10000	3	1	0	3	0
123	397	10	10000	3	1	0	3	0
118	398	10	10000	3	1	0	3	0
114	399	10	10000	3	1	0	3	0
109	400	10	10000	3	1	0	3	0
106	401	10	10000	3	1	0	3	0
103	402	10	10000	3	1	0	3	0
101	403	10	10000	3	1	0	3	0
99	404	10	10000	3	1	0	3	0
96	405	10	10000	3	1	0	3	0
96	406	10	10000	3	1	0	3	0
95	407	10	10000	3	1	0	3	0
94	408	10	10000	3	1	0	3	0
94	409	10	10000	3	1	0	3	0
94	410	10	10000	3	1	0	3	0
95	411	10	10000	3	1	0	3	0
97	412	10	10000	3	1	0	3	0
98	413	10	10000	3	1	0	3	0
102	414	10	10000	3	1	0	3	0
104	415	10	10000	3	1	0	3	0
107	416	10	10000	3	1	0	3	0
109	417	10	10000	3	1	0	3	0
111	418	10	10000	3	1	0	3	0
114	419	10	10000	3	1	0	3	0
118	420	10	10000	3	1	0	3	0
122	421	10	10000	3	1	0	3	0
127	422	10	10000	3	1	0	3	0
129	423	10	10000	3	1	0	3	0
132	424	10	10000	3	1	0	3	0
132	425	10	10000	3	1	0	3	0
134	426	10	10000	3	1	0	3	0
135	427	10	10000	3	1	0	3	0
137	428	10	10000	3	1	0	3	0
138	429	10	10000	3	1	0	3	0
137	430	10	10000	3	1	0	3	0
134	431	10	10000	3	1	0	3	0
133	432	10	10000	3	1	0	3	0
131	433	10	10000	3	1	0	3	0
129	434	10	10000	3	1	0	3	0
129	435	10	10000	3	1	0	3	0
127	436	10	10000	3	1	0	3	0
125	437	10	10000	3	1	0	3	0
123	438	10	10000	3	1	0	3	0
120	439	10	10000	3	1	0	3	0
116	440	10	10000	3	1	0	3	0
113	441	10	10000	3	1	0	3	0
109	442	10	10000	3	1	0	3	0
104	443	10	10000	3	1	0	3	0
100	444	10	10000	3	1	0	3	0
94	445	10	10000	3	1	0	3	0
92	446	10	10000	3	1	0	3	0
89	447	10	10000	3	1	0	3	0
86	448	10	10000	3	1	0	3	0
83	449	10	10000	3	1	0	3	0
79	450	10	10000	3	1	0	3	0
75	451	10	10000	3	1	0	3	0
74	452	10	10000	3	1	0	3	0
71	453	10	10000	3	1	0	3	0
70	454	10	10000	3	1	0	3	0
72	455	10	10000	3	1	0	3	0
70	456	10	10000	3	1	0	3	0
68	457	10	10000	3	1	0	3	0
66	458	10	10000	3	1	0	3	0
64	459	10	10000	3	1	0	3	0
62	460	10	10000	3	1	0	3	0
59	461	10	10000	3	1	0	3	0
57	462	10	10000	3	1	0	3	0
57	463	10	10000	3	1	0	3	0
55	464	10	10000	3	1	0	3	0
52	465	10	10000	3	1	0	3	0
51	466	10	10000	3	1	0	3	0
51	467	10	10000	3	1	0	3	0
50	468	10	10000	3	1	0	3	0
50	469	10	10000	3	1	0	3	0
50	470	10	10000	3	1	0	3	0
50	471	10	10000	3	1	0	3	0
49	472	10	10000	3	1	0	3	0
49	473	10	10000	3	1	0	3	0
48	474	10	10000	3	1	0	3	0
50	475	10	10000	3	1	0	3	0
50	476	10	10000	3	1	0	3	0
51	477	10	10000	3	1	0	3	0
51	478	10	10000	3	1	0	3	0
52	479	10	10000	3	1	0	3	0
53	480	10	10000	3	1	0	3	0
53	481	10	10000	3	1	0	3	0
54	482	10	10000	3	1	0	3	0
54	483	10	10000	3	1	0	3	0
53	484	10	10000	3	1	0	3	0
50	485	10	10000	3	1	0	3	0
49	486	10	10000	3	1	0	3	0
49	487	10	10000	3	1	0	3	0
48	488	10	10000	3	1	0	3	0
47	489	10	10000	3	1	0	3	0
47	490	10	10000	3	1	0	3	0
47	491	10	10000	3	1	0	3	0
49	492	10	10000	3	1	0	3	0
48	493	10	10000	3	1	0	3	0
50	494	10	10000	3	1	0	3	0
54	495	10	10000	3	1	0	3	0
54	496	10	10000	3	1	0	3	0
54	497	10	10000	3	1	0	3	0
54	498	10	10000	3	1	0	3	0
53	499	10	10000	3	1	0	3	0
53	500	10	10000	3	1	0	3	0
52	501	10	10000	3	1	0	3	0
51	501	10	10000	3	1	0	3	1
49	502	10	10000	3	1	0	3	1
47	504	10	10000	3	1	0	3	1
44	505	10	10000	3	1	0	3	1
44	506	10	10000	3	1	0	3	1
43	507	10	10000	3	1	0	3	1
43	508	10	10000	3	1	0	3	1
43	509	10	10000	3	1	0	3	1
43	510	10	10000	3	1	0	3	1
43	511	10	10000	3	1	0	3	1
43	512	10	10000	3	1	0	3	1
43	513	10	10000	3	1	0	3	1
44	514	10	10000	3	1	0	3	1
46	515	10	10000	3	1	0	3	1
45	516	10	10000	3	1	0	3	1
44	517	10	10000	3	1	0	3	1
43	518	10	10000	3	1	0	3	1
42	519	10	10000	3	1	0	3	1
41	520	10	10000	3	1	0	3	1
39	521	10	10000	3	1	0	3	1
38	522	10	10000	3	1	0	3	1
37	523	10	10000	3	1	0	3	1
36	524	10	10000	3	1	0	3	1
33	525	10	10000	3	1	0	3	1
32	526	10	10000	3	1	0	3	1
32	527	10	10000	3	1	0	3	1
32	528	10	10000	3	1	0	3	1
31	529	10	10000	3	1	0	3	1
31	530	10	10000	3	1	0	3	1
31	531	10	10000	3	1	0	3	1
32	532	10	10000	3	1	0	3	1
30	533	10	10000	3	1	0	3	1
30	534	10	10000	3	1	0	3	1
31	535	10	10000	3	1	0	3	1
29	536	10	10000	3	1	0	3	1
28	537	10	10000	3	1	0	3	1
27	538	10	10000	3	1	0	3	1
26	539	10	10000	3	1	0	3	1
25	540	10	10000	3	1	0	3	1
25	541	10	10000	3	1	0	3	1
24	542	10	10000	3	1	0	3	1
24	543	10	10000	3	1	0	3	1
23	544	10	10000	3	1	0	3	1
21	545	10	10000	3	1	0	3	1
21	546	10	10000	3	1	0	3	1
22	547	10	10000	3	1	0	3	1
21	548	10	10000	3	1	0	3	1
21	549	10	10000	3	1	0	3	1
20	550	10	10000	3	1	0	3	1
20	551	10	10000	3	1	0	3	1
19	552	10	10000	3	1	0	3	0
19	553	10	10000	3	1	0	3	0
19	554	10	10000	3	1	0	3	0
20	555	10	10000	3	1	0	3	0
19	556	10	10000	3	1	0	3	0
18	557	10	10000	3	1	0	3	0
18	558	10	10000	3	1	0	3	0
18	559	10	10000	3	1	0	3	0
17	560	10	10000	3	1	0	3	0
16	561	10	10000	3	1	0	3	0
17	562	10	10000	3	1	0	3	0
17	563	10	10000	3	1	0	3	0
17	564	10	10000	3	1	0	3	0
15	565	10	10000	3	1	0	3	0
15	566	10	10000	3	1	0	3	0
15	567	10	10000	3	1	0	3	0
16	568	10	10000	3	1	0	3	0
16	569	10	10000	3	1	0	3	0
15	570	10	10000	3	1	0	3	0
16	571	10	10000	3	1	0	3	0
16	572	10	10000	3	1	0	3	0
14	573	10	10000	3	1	0	3	0
15	574	10	10000	3	1	0	3	0
17	575	10	10000	3	1	0	3	0
16	576	10	10000	3	1	0	3	0
16	577	10	10000	3	1	0	3	0
15	578	10	10000	3	1	0	3	0
15	579	10	10000	3	1	0	3	0
15	580	10	10000	3	1	0	3	0
15	581	10	10000	3	1	0	3	0
15	582	10	10000	3	1	0	3	0
15	583	10	10000	3	1	0	3	0
15	584	10	10000	3	1	0	3	0
12	585	10	10000	3	1	0	3	0
12	586	10	10000	3	1	0	3	0
12	587	10	10000	3	1	0	3	0
13	588	10	10000	3	1	0	3	0
13	589	10	10000	3	1	0	3	0
13	590	10	10000	3	1	0	3	0
12	591	10	10000	3	1	0	3	0
13	592	10	10000	3	1	0	3	0
13	593	10	10000	3	1	0	3	0
14	594	10	10000	3	1	0	3	0
18	595	10	10000	3	1	0	3	0
20	596	10	10000	3	1	0	3	0
23	597	10	10000	3	1	0	3	0
33	598	10	10000	3	1	0	3	0
36	599	10	10000	3	1	0	3	0
44	600	10	10000	3	1	0	3	0
46	601	10	10000	3	1	0	3	0
48	602	10	10000	3	1	0	3	0
51	603	10	10000	3	1	0	3	0
52	604	10	10000	3	1	0	3	0
49	605	10	10000	3	1	0	3	0
60	606	10	10000	3	1	0	3	0
69	607	10	10000	3	1	0	3	0
75	608	10	10000	3	1	0	3	0
80	609	10	10000	3	1	0	3	0
80	610	10	10000	3	1	0	3	0
99	611	10	10000	3	1	0	3	0
105	612	10	10000	3	1	0	3	0
128	613	10	10000	3	1	0	3	0
138	614	10	10000	3	1	0	3	0
140	615	10	10000	3	1	0	3	0
149	616	10	10000	3	1	0	3	0
163	617	10	10000	3	1	0	3	0
174	618	10	10000	3	1	0	3	0
176	619	10	10000	3	1	0	3	0
177	620	10	10000	3	1	0	3	0
174	621	10	10000	3	1	0	3	0
169	622	10	10000	3	1	0	3	0
162	623	10	10000	3	1	0	3	0
155	624	10	10000	3	1	0	3	0
147	625	10	10000	3	1	0	3	0
142	626	10	10000	3	1	0	3	0
140	627	10	10000	3	1	0	3	0
136	628	10	10000	3	1	0	3	0
132	629	10	10000	3	1	0	3	0
131	630	10	10000	3	1	0	3	0
135	631	10	10000	3	1	0	3	0
137	632	10	10000	3	1	0	3	0
132	633	10	10000	3	1	0	3	0
126	634	10	10000	3	1	0	3	0
123	635	10	10000	3	1	0	3	0
119	636	10	10000	3	1	0	3	0
116	637	10	10000	3	1	0	3	0
116	638	10	10000	3	1	0	3	0
114	639	10	10000	3	1	0	3	0
110	640	10	10000	3	1	0	3	0
106	641	10	10000	3	1	0	3	0
102	642	10	10000	3	1	0	3	0
98	643	10	10000	3	1	0	3	0
94	644	10	10000	3	1	0	3	0
89	645	10	10000	3	1	0	3	0
86	646	10	10000	3	1	0	3	0
82	647	10	10000	3	1	0	3	0
79	648	10	10000	3	1	0	3	0
76	649	10	10000	3	1	0	3	0
74	650	10	10000	3	1	0	3	0
73	651	10	10000	3	1	0	3	0
71	652	10	10000	3	1	0	3	0
68	653	10	10000	3	1	0	3	0
67	654	10	10000	3	1	0	3	0
67	655	10	10000	3	1	0	3	0
65	656	10	10000	3	1	0	3	0
64	657	10	10000	3	1	0	3	0
63	658	10	10000	3	1	0	3	0
60	659	10	10000	3	1	0	3	0
59	660	10	10000	3	1	0	3	0
58	661	10	10000	3	1	0	3	0
59	662	10	10000	3	1	0	3	0
60	663	10	10000	3	1	0	3	0
58	664	10	10000	3	1	0	3	0
56	665	10	10000	3	1	0	3	0
57	666	10	10000	3	1	0	3	0
58	667	10	10000	3	1	0	3	0
58	668	10	10000	3	1	0	3	0
58	669	10	10000	3	1	0	3	0
59	670	10	10000	3	1	0	3	0
58	671	10	10000	3	1	0	3	0
57	672	10	10000	3	1	0	3	0
56	673	10	10000	3	1	0	3	0
53	674	10	10000	3	1	0	3	0
54	675	10	10000	3	1	0	3	0
51	676	10	10000	3	1	0	3	0
49	677	10	10000	3	1	0	3	0
48	678	10	10000	3	1	0	3	0
46	679	10	10000	3	1	0	3	0
44	680	10	10000	3	1	0	3	0
43	681	10	10000	3	1	0	3	0
44	693	10	10000	3	1	0	3	0
43	694	10	10000	3	1	0	3	0
43	695	10	10000	3	1	0	3	0
42	696	10	10000	3	1	0	3	0
41	697	10	10000	3	1	0	3	0
42	698	10	10000	3	1	0	3	0
40	699	10	10000	3	1	0	3	0
39	700	10	10000	3	1	0	3	0
37	701	10	10000	3	1	0	3	0
37	702	10	10000	3	1	0	3	0
34	703	10	10000	3	1	0	3	0
33	704	10	10000	3	1	0	3	0
33	705	10	10000	3	1	0	3	0
34	706	10	10000	3	1	0	3	0
33	701	10	10000	3	1	0	3	0
32	702	10	10000	3	1	0	3	0
31	703	10	10000	3	1	0	3	0
31	704	10	10000	3	1	0	3	0
30	705	10	10000	3	1	0	3	0
29	706	10	10000	3	1	0	3	0
29	710	10	10000	3	1	0	3	0
28	711	10	10000	3	1	0	3	0
29	712	10	10000	3	1	0	3	0
26	713	10	10000	3	1	0	3	0
25	714	10	10000	3	1	0	3	0
25	715	10	10000	3	1	0	3	0
25	716	10	10000	3	1	0	3	0
24	717	10	10000	3	1	0	3	0
24	718	10	10000	3	1	0	3	0
23	719	10	10000	3	1	0	3	0
22	717	10	10000	3	1	0	3	0
21	718	10	10000	3	1	0	3	0
22	719	10	10000	3	1	0	3	0
25	720	10	10000	3	1	0	3	0
24	721	10	10000	3	1	0	3	0
24	722	10	10000	3	1	0	3	0
24	721	10	10000	3	1	0	3	0
23	722	10	10000	3	1	0	3	0
22	723	10	10000	3	1	0	3	0
22	724	10	10000	3	1	0	3	0
21	725	10	10000	3	1	0	3	0
23	726	10	10000	3	1	0	3	0
24	728	10	10000	3	1	0	3	0
24	729	10	10000	3	1	0	3	0
25	730	10	10000	3	1	0	3	0
26	731	10	10000	3	1	0	3	0
28	732	10	10000	3	1	0	3	0
31	733	10	10000	3	1	0	3	0
34	733	10	10000	3	1	0	3	0
36	734	10	10000	3	1	0	3	0
36	735	10	10000	3	1	0	3	0
35	736	10	10000	3	1	0	3	0
37	737	10	10000	3	1	0	3	0
39	738	10	10000	3	1	0	3	0
38	740	10	10000	3	1	0	3	0
39	741	10	10000	3	1	0	3	0
40	742	10	10000	3	1	0	3	0
40	743	10	10000	3	1	0	3	0
41	744	10	10000	3	1	0	3	0
42	745	10	10000	3	1	0	3	0
44	744	10	10000	3	1	0	3	0
44	745	10	10000	3	1	0	3	0
45	746	10	10000	3	1	0	3	0
44	747	10	10000	3	1	0	3	0
48	750	10	10000	3	1	0	3	0
49	751	10	10000	3	1	0	3	0
52	752	10	10000	3	1	0	3	0
53	753	10	10000	3	1	0	3	0
54	754	10	10000	3	1	0	3	0
54	755	10	10000	3	1	0	3	0
53	756	10	10000	3	1	0	3	0
54	757	10	10000	3	1	0	3	0
54	758	10	10000	3	1	0	3	0
57	759	10	10000	3	1	0	3	0
56	760	10	10000	3	1	0	3	0
55	761	10	10000	3	1	0	3	0
53	761	10	10000	3	1	0	3	0
50	762	10	10000	3	1	0	3	0
49	763	10	10000	3	1	0	3	0
49	764	10	10000	3	1	0	3	0
49	767	10	10000	3	1	0	3	0
48	768	10	10000	3	1	0	3	0
47	769	10	10000	3	1	0	3	0
46	770	10	10000	3	1	0	3	0
45	771	10	10000	3	1	0	3	0
45	772	10	10000	3	1	0	3	0
46	773	10	10000	3	1	0	3	0
47	774	10	10000	3	1	0	3	0
49	772	10	10000	3	1	0	3	0
51	773	10	10000	3	1	0	3	0
52	774	10	10000	3	1	0	3	0
53	775	10	10000	3	1	0	3	0
54	779	10	10000	3	1	0	3	0
56	780	10	10000	3	1	0	3	0
57	781	10	10000	3	1	0	3	0
57	782	10	10000	3	1	0	3	0
56	783	10	10000	3	1	0	3	0
55	784	10	10000	3	1	0	3	0
54	783	10	10000	3	1	0	3	0
52	784	10	10000	3	1	0	3	0
51	785	10	10000	3	1	0	3	0
52	786	10	10000	3	1	0	3	0
53	787	10	10000	3	1	0	3	0
51	788	10	10000	3	1	0	3	0
52	790	10	10000	3	1	0	3	0
53	791	10	10000	3	1	0	3	0
52	792	10	10000	3	1	0	3	0
52	793	10	10000	3	1	0	3	0
51	794	10	10000	3	1	0	3	0
50	795	10	10000	3	1	0	3	0
48	794	10	10000	3	1	0	3	0
47	795	10	10000	3	1	0	3	0
46	796	10	10000	3	1	0	3	0
47	797	10	10000	3	1	0	3	0
45	799	10	10000	3	1	0	3	0
44	800	10	10000	3	1	0	3	0
44	801	10	10000	3	1	0	3	0
43	802	10	10000	3	1	0	3	0
41	803	10	10000	3	1	0	3	0
41	804	10	10000	3	1	0	3	0
40	806	10	10000	3	1	0	3	0
41	807	10	10000	3	1	0	3	0
41	808	10	10000	3	1	0	3	0
39	809	10	10000	3	1	0	3	0
40	810	10	10000	3	1	0	3	0
41	811	10	10000	3	1	0	3	0
43	810	10	10000	3	1	0	3	0
43	811	10	10000	3	1	0	3	0
45	812	10	10000	3	1	0	3	0
46	813	10	10000	3	1	0	3	0
45	817	10	10000	3	1	0	3	0
45	818	10	10000	3	1	0	3	0
43	819	10	10000	3	1	0	3	0
43	820	10	10000	3	1	0	3	0
41	821	10	10000	3	1	0	3	0
40	822	10	10000	3	1	0	3	0
38	821	10	10000	3	1	0	3	0
38	822	10	10000	3	1	0	3	0
38	823	10	10000	3	1	0	3	0
38	824	10	10000	3	1	0	3	0
38	825	10	10000	3	1	0	3	0
38	826	10	10000	3	1	0	3	0
39	823	10	10000	3	1	0	3	0
36	824	10	10000	3	1	0	3	0
36	826	10	10000	3	1	0	3	0
37	827	10	10000	3	1	0	3	0
37	828	10	10000	3	1	0	3	0
35	829	10	10000	3	1	0	3	0
34	830	10	10000	3	1	0	3	0
33	831	10	10000	3	1	0	3	0
31	832	10	10000	3	1	0	3	0
30	833	10	10000	3	1	0	3	0
29	834	10	10000	3	1	0	3	0
30	835	10	10000	3	1	0	3	0
29	836	10	10000	3	1	0	3	0
28	837	10	10000	3	1	0	3	0
27	838	10	10000	3	1	0	3	0
27	839	10	10000	3	1	0	3	0
27	840	10	10000	3	1	0	3	0
27	841	10	10000	3	1	0	3	0
26	842	10	10000	3	1	0	3	0
26	843	10	10000	3	1	0	3	0
25	844	10	10000	3	1	0	3	0
22	845	10	10000	3	1	0	3	0
22	846	10	10000	3	1	0	3	0
22	847	10	10000	3	1	0	3	0
22	848	10	10000	3	1	0	3	0
21	849	10	10000	3	1	0	3	0
21	850	10	10000	3	1	0	3	0
20	851	10	10000	3	1	0	3	0
19	852	10	10000	3	1	0	3	0
19	853	10	10000	3	1	0	3	0
19	854	10	10000	3	1	0	3	0
23	855	10	10000	3	1	0	3	0
24	856	10	10000	3	1	0	3	0
25	857	10	10000	3	1	0	3	0
27	858	10	10000	3	1	0	3	0
27	859	10	10000	3	1	0	3	0
28	860	10	10000	3	1	0	3	0
28	861	10	10000	3	1	0	3	0
27	862	10	10000	3	1	0	3	0
26	863	10	10000	3	1	0	3	0
26	864	10	10000	3	1	0	3	0
23	865	10	10000	3	1	0	3	0
22	866	10	10000	3	1	0	3	0
22	867	10	10000	3	1	0	3	0
21	868	10	10000	3	1	0	3	0
21	869	10	10000	3	1	0	3	0
21	870	10	10000	3	1	0	3	0
20	871	10	10000	3	1	0	3	0
20	872	10	10000	3	1	0	3	0
20	873	10	10000	3	1	0	3	0
20	874	10	10000	3	1	0	3	0
22	875	10	10000	3	1	0	3	0
21	876	10	10000	3	1	0	3	0
20	877	10	10000	3	1	0	3	0
20	878	10	10000	3	1	0	3	0
20	879	10	10000	3	1	0	3	0
18	880	10	10000	3	1	0	3	0
19	881	10	10000	3	1	0	3	0
18	882	10	10000	3	1	0	3	0
18	883	10	10000	3	1	0	3	0
19	884	10	10000	3	1	0	3	0
16	885	10	10000	3	1	0	3	0
15	886	10	10000	3	1	0	3	0
16	887	10	10000	3	1	0	3	0
16	888	10	10000	3	1	0	3	0
15	889	10	10000	3	1	0	3	0
15	890	10	10000	3	1	0	3	0
15	891	10	10000	3	1	0	3	0
14	892	10	10000	3	1	0	3	0
14	893	10	10000	3	1	0	3	0
15	894	10	10000	3	1	0	3	0
16	895	10	10000	3	1	0	3	0
16	896	10	10000	3	1	0	3	0
16	897	10	10000	3	1	0	3	0
15	898	10	10000	3	1	0	3	0
15	899	10	10000	3	1	0	3	0
15	900	10	10000	3	1	0	3	0
14	901	10	10000	3	1	0	3	0
14	902	10	10000	3	1	0	3	0
15	903	10	10000	3	1	0	3	0
15	904	10	10000	3	1	0	3	0
12	905	10	10000	3	1	0	3	0
12	906	10	10000	3	1	0	3	0
12	907	10	10000	3	1	0	3	0
12	908	10	10000	3	1	0	3	0
11	909	10	10000	3	1	0	3	0
12	910	10	10000	3	1	0	3	0
13	911	10	10000	3	1	0	3	0
12	912	10	10000	3	1	0	3	0
13	913	10	10000	3	1	0	3	0
13	914	10	10000	3	1	0	3	0
15	915	10	10000	3	1	0	3	0
15	916	10	10000	3	1	0	3	0
14	917	10	10000	3	1	0	3	0
14	918	10	10000	3	1	0	3	0
14	919	10	10000	3	1	0	3	0
15	920	10	10000	3	1	0	3	0
15	921	10	10000	3	1	0	3	0
14	922	10	10000	3	1	0	3	0
14	923	10	10000	3	1	0	3	0
16	924	10	10000	3	1	0	3	0
13	925	10	10000	3	1	0	3	0
14	926	10	10000	3	1	0	3	0
16	927	10	10000	3	1	0	3	0
16	928	10	10000	3	1	0	3	0
16	929	10	10000	3	1	0	3	0
17	930	10	10000	3	1	0	3	0
17	931	10	10000	3	1	0	3	0
16	932	10	10000	3	1	0	3	0
16	933	10	10000	3	1	0	3	0
16	934	10	10000	3	1	0	3	0
17	935	10	10000	3	1	0	3	0
17	936	10	10000	3	1	0	3	0
17	937	10	10000	3	1	0	3	0
17	938	10	10000	3	1	0	3	0
16	939	10	10000	3	1	0	3	0
16	940	10	10000	3	1	0	3	0
16	941	10	10000	3	1	0	3	0
15	942	10	10000	3	1	0	3	0
16	943	10	10000	3	1	0	3	0
16	944	10	10000	3	1	0	3	0
13	945	10	10000	3	1	0	3	0
13	946	10	10000	3	1	0	3	0
13	947	10	10000	3	1	0	3	0
13	948	10	10000	3	1	0	3	0
13	949	10	10000	3	1	0	3	0
12	950	10	10000	3	1	0	3	0
12	951	10	10000	3	1	0	3	0
11	952	10	10000	3	1	0	3	0
11	953	10	10000	3	1	0	3	0
11	954	10	10000	3	1	0	3	0
14	955	10	10000	3	1	0	3	0
13	956	10	10000	3	1	0	3	0
12	957	10	10000	3	1	0	3	0
12	958	10	10000	3	1	0	3	0
13	959	10	10000	3	1	0	3	0
12	960	10	10000	3	1	0	3	0
12	961	10	10000	3	1	0	3	0
12	962	10	10000	3	1	0	3	0
12	963	10	10000	3	1	0	3	0
13	964	10	10000	3	1	0	3	0
10	965	10	10000	3	1	0	3	0
11	966	10	10000	3	1	0	3	0
12	967	10	10000	3	1	0	3	0
13	968	10	10000	3	1	0	3	0
13	969	10	10000	3	1	0	3	0
13	970	10	10000	3	1	0	3	0
13	971	10	10000	3	1	0	3	0
12	972	10	10000	3	1	0	3	0
12	973	10	10000	3	1	0	3	0
12	974	10	10000	3	1	0	3	0
14	975	10	10000	3	1	0	3	0
14	976	10	10000	3	1	0	3	0
13	977	10	10000	3	1	0	3	0
13	978	10	10000	3	1	0	3	0
13	979	10	10000	3	1	0	3	0
12	980	10	10000	3	1	0	3	0
13	981	10	10000	3	1	0	3	0
13	982	10	10000	3	1	0	3	0
13	983	10	10000	3	1	0	3	0
13	984	10	10000	3	1	0	3	0
11	985	10	10000	3	1	0	3	0
11	986	10	10000	3	1	0	3	0
12	987	10	10000	3	1	0	3	0
12	988	10	10000	3	1	0	3	0
12	989	10	10000	3	1	0	3	0
12	990	10	10000	3	1	0	3	0
12	991	10	10000	3	1	0	3	0
11	992	10	10000	3	1	0	3	0
11	993	10	10000	3	1	0	3	0
11	994	10	10000	3	1	0	3	0
13	995	10	10000	3	1	0	3	0
13	996	10	10000	3	1	0	3	0
13	997	10	10000	3	1	0	3	0
13	998	10	10000	3	1	0	3	0
13	999	10	10000	3	1	0	3	0
12	1000	10	10000	3	1	0	3	0
12	1001	10	10000	3	1	0	3	0
19	2	10	10000	4	1	0	4	0
19	3	10	10000	4	1	0	4	0
17	4	10	10000	4	1	0	4	0
18	5	10	10000	4	1	0	4	0
19	6	10	10000	4	1	0	4	0
19	7	10	10000	4	1	0	4	0
19	8	10	10000	4	1	0	4	0
18	9	10	10000	4	1	0	4	0
18	10	10	10000	4	1	0	4	0
17	11	10	10000	4	1	0	4	0
16	12	10	10000	4	1	0	4	0
18	13	10	10000	4	1	0	4	0
19	14	10	10000	4	1	0	4	0
19	15	10	10000	4	1	0	4	0
19	16	10	10000	4	1	0	4	0
18	17	10	10000	4	1	0	4	0
18	18	10	10000	4	1	0	4	0
17	19	10	10000	4	1	0	4	0
16	20	10	10000	4	1	0	4	0
17	21	10	10000	4	1	0	4	0
16	22	10	10000	4	1	0	4	0
15	23	10	10000	4	1	0	4	0
14	24	10	10000	4	1	0	4	0
14	25	10	10000	4	1	0	4	0
14	26	10	10000	4	1	0	4	0
15	27	10	10000	4	1	0	4	0
14	28	10	10000	4	1	0	4	0
14	29	10	10000	4	1	0	4	0
14	30	10	10000	4	1	0	4	0
13	31	10	10000	4	1	0	4	0
12	32	10	10000	4	1	0	4	0
13	33	10	10000	4	1	0	4	0
14	34	10	10000	4	1	0	4	0
14	35	10	10000	4	1	0	4	0
15	36	10	10000	4	1	0	4	0
14	37	10	10000	4	1	0	4	0
15	38	10	10000	4	1	0	4	0
16	39	10	10000	4	1	0	4	0
16	40	10	10000	4	1	0	4	0
17	41	10	10000	4	1	0	4	0
17	42	10	10000	4	1	0	4	0
16	43	10	10000	4	1	0	4	0
15	44	10	10000	4	1	0	4	0
15	45	10	10000	4	1	0	4	0
15	46	10	10000	4	1	0	4	0
16	47	10	10000	4	1	0	4	0
16	48	10	10000	4	1	0	4	0
15	49	10	10000	4	1	0	4	0
16	50	10	10000	4	1	0	4	0
15	51	10	10000	4	1	0	4	0
14	52	10	10000	4	1	0	4	0
15	53	10	10000	4	1	0	4	0
16	54	10	10000	4	1	0	4	0
15	55	10	10000	4	1	0	4	0
15	56	10	10000	4	1	0	4	0
14	57	10	10000	4	1	0	4	0
15	58	10	10000	4	1	0	4	0
14	59	10	10000	4	1	0	4	0
14	60	10	10000	4	1	0	4	0
14	61	10	10000	4	1	0	4	0
14	62	10	10000	4	1	0	4	0
14	63	10	10000	4	1	0	4	0
13	64	10	10000	4	1	0	4	0
13	65	10	10000	4	1	0	4	0
13	66	10	10000	4	1	0	4	0
13	67	10	10000	4	1	0	4	0
13	68	10	10000	4	1	0	4	0
13	69	10	10000	4	1	0	4	0
12	70	10	10000	4	1	0	4	0
11	71	10	10000	4	1	0	4	0
11	72	10	10000	4	1	0	4	0
11	73	10	10000	4	1	0	4	0
12	74	10	10000	4	1	0	4	0
12	75	10	10000	4	1	0	4	0
12	76	10	10000	4	1	0	4	0
11	77	10	10000	4	1	0	4	0
11	78	10	10000	4	1	0	4	0
12	79	10	10000	4	1	0	4	0
12	80	10	10000	4	1	0	4	0
12	81	10	10000	4	1	0	4	0
13	82	10	10000	4	1	0	4	0
13	83	10	10000	4	1	0	4	0
12	84	10	10000	4	1	0	4	0
12	85	10	10000	4	1	0	4	0
12	86	10	10000	4	1	0	4	0
13	87	10	10000	4	1	0	4	0
12	88	10	10000	4	1	0	4	0
12	89	10	10000	4	1	0	4	0
12	90	10	10000	4	1	0	4	0
11	91	10	10000	4	1	0	4	0
10	92	10	10000	4	1	0	4	0
11	93	10	10000	4	1	0	4	0
12	94	10	10000	4	1	0	4	0
12	95	10	10000	4	1	0	4	0
13	96	10	10000	4	1	0	4	0
12	97	10	10000	4	1	0	4	0
11	98	10	10000	4	1	0	4	0
12	99	10	10000	4	1	0	4	0
12	100	10	10000	4	1	0	4	0
11	101	10	10000	4	1	0	4	0
12	102	10	10000	4	1	0	4	0
11	103	10	10000	4	1	0	4	0
9	104	10	10000	4	1	0	4	0
10	105	10	10000	4	1	0	4	0
10	106	10	10000	4	1	0	4	0
11	107	10	10000	4	1	0	4	0
11	108	10	10000	4	1	0	4	0
11	109	10	10000	4	1	0	4	0
12	110	10	10000	4	1	0	4	0
12	111	10	10000	4	1	0	4	0
11	112	10	10000	4	1	0	4	0
13	113	10	10000	4	1	0	4	0
14	114	10	10000	4	1	0	4	0
13	115	10	10000	4	1	0	4	0
13	116	10	10000	4	1	0	4	0
12	117	10	10000	4	1	0	4	0
13	118	10	10000	4	1	0	4	0
13	119	10	10000	4	1	0	4	0
13	120	10	10000	4	1	0	4	0
13	121	10	10000	4	1	0	4	0
14	122	10	10000	4	1	0	4	0
13	123	10	10000	4	1	0	4	0
12	124	10	10000	4	1	0	4	0
12	125	10	10000	4	1	0	4	0
13	126	10	10000	4	1	0	4	0
12	127	10	10000	4	1	0	4	0
12	128	10	10000	4	1	0	4	0
12	129	10	10000	4	1	0	4	0
12	130	10	10000	4	1	0	4	0
12	131	10	10000	4	1	0	4	0
11	132	10	10000	4	1	0	4	0
12	133	10	10000	4	1	0	4	0
13	134	10	10000	4	1	0	4	0
12	135	10	10000	4	1	0	4	0
12	136	10	10000	4	1	0	4	0
12	137	10	10000	4	1	0	4	0
12	138	10	10000	4	1	0	4	0
12	139	10	10000	4	1	0	4	0
12	140	10	10000	4	1	0	4	0
13	141	10	10000	4	1	0	4	0
12	142	10	10000	4	1	0	4	0
12	143	10	10000	4	1	0	4	0
11	144	10	10000	4	1	0	4	0
11	145	10	10000	4	1	0	4	0
12	146	10	10000	4	1	0	4	0
13	147	10	10000	4	1	0	4	0
13	148	10	10000	4	1	0	4	0
13	149	10	10000	4	1	0	4	0
13	150	10	10000	4	1	0	4	0
12	151	10	10000	4	1	0	4	0
12	152	10	10000	4	1	0	4	0
13	153	10	10000	4	1	0	4	0
14	154	10	10000	4	1	0	4	0
14	155	10	10000	4	1	0	4	0
15	156	10	10000	4	1	0	4	0
13	157	10	10000	4	1	0	4	0
13	158	10	10000	4	1	0	4	0
14	159	10	10000	4	1	0	4	0
15	160	10	10000	4	1	0	4	0
14	161	10	10000	4	1	0	4	0
15	162	10	10000	4	1	0	4	0
15	163	10	10000	4	1	0	4	0
13	164	10	10000	4	1	0	4	0
14	165	10	10000	4	1	0	4	0
14	166	10	10000	4	1	0	4	0
14	167	10	10000	4	1	0	4	0
14	168	10	10000	4	1	0	4	0
14	169	10	10000	4	1	0	4	0
13	170	10	10000	4	1	0	4	0
12	171	10	10000	4	1	0	4	0
12	172	10	10000	4	1	0	4	0
12	173	10	10000	4	1	0	4	0
14	174	10	10000	4	1	0	4	0
14	175	10	10000	4	1	0	4	0
14	176	10	10000	4	1	0	4	0
13	177	10	10000	4	1	0	4	0
13	178	10	10000	4	1	0	4	0
14	179	10	10000	4	1	0	4	0
14	180	10	10000	4	1	0	4	0
15	181	10	10000	4	1	0	4	0
17	182	10	10000	4	1	0	4	0
18	183	10	10000	4	1	0	4	0
17	184	10	10000	4	1	0	4	0
17	185	10	10000	4	1	0	4	0
17	186	10	10000	4	1	0	4	0
19	187	10	10000	4	1	0	4	0
19	188	10	10000	4	1	0	4	0
20	189	10	10000	4	1	0	4	0
19	190	10	10000	4	1	0	4	0
18	191	10	10000	4	1	0	4	0
20	192	10	10000	4	1	0	4	0
22	193	10	10000	4	1	0	4	0
26	194	10	10000	4	1	0	4	0
26	195	10	10000	4	1	0	4	0
26	196	10	10000	4	1	0	4	0
24	197	10	10000	4	1	0	4	0
24	198	10	10000	4	1	0	4	0
24	199	10	10000	4	1	0	4	0
23	200	10	10000	4	1	0	4	0
23	201	10	10000	4	1	0	4	0
25	202	10	10000	4	1	0	4	0
25	203	10	10000	4	1	0	4	0
24	204	10	10000	4	1	0	4	0
26	205	10	10000	4	1	0	4	0
25	206	10	10000	4	1	0	4	0
25	207	10	10000	4	1	0	4	0
24	208	10	10000	4	1	0	4	0
23	209	10	10000	4	1	0	4	0
23	210	10	10000	4	1	0	4	0
24	211	10	10000	4	1	0	4	0
23	212	10	10000	4	1	0	4	0
24	213	10	10000	4	1	0	4	0
25	214	10	10000	4	1	0	4	0
23	215	10	10000	4	1	0	4	0
23	216	10	10000	4	1	0	4	0
22	217	10	10000	4	1	0	4	0
22	218	10	10000	4	1	0	4	0
23	219	10	10000	4	1	0	4	0
22	220	10	10000	4	1	0	4	0
22	221	10	10000	4	1	0	4	0
23	222	10	10000	4	1	0	4	0
23	223	10	10000	4	1	0	4	0
21	224	10	10000	4	1	0	4	0
21	225	10	10000	4	1	0	4	0
21	226	10	10000	4	1	0	4	0
21	227	10	10000	4	1	0	4	0
21	228	10	10000	4	1	0	4	0
21	229	10	10000	4	1	0	4	0
20	230	10	10000	4	1	0	4	0
20	231	10	10000	4	1	0	4	0
19	232	10	10000	4	1	0	4	0
18	233	10	10000	4	1	0	4	0
20	234	10	10000	4	1	0	4	0
20	235	10	10000	4	1	0	4	0
19	236	10	10000	4	1	0	4	0
19	237	10	10000	4	1	0	4	0
19	238	10	10000	4	1	0	4	0
20	239	10	10000	4	1	0	4	0
20	240	10	10000	4	1	0	4	0
20	241	10	10000	4	1	0	4	0
20	242	10	10000	4	1	0	4	0
20	243	10	10000	4	1	0	4	0
17	244	10	10000	4	1	0	4	0
18	245	10	10000	4	1	0	4	0
17	246	10	10000	4	1	0	4	0
18	247	10	10000	4	1	0	4	0
17	248	10	10000	4	1	0	4	0
18	249	10	10000	4	1	0	4	0
18	250	10	10000	4	1	0	4	0
18	251	10	10000	4	1	0	4	0
17	252	10	10000	4	1	0	4	0
16	253	10	10000	4	1	0	4	0
18	254	10	10000	4	1	0	4	0
17	255	10	10000	4	1	0	4	0
16	256	10	10000	4	1	0	4	0
16	257	10	10000	4	1	0	4	0
15	258	10	10000	4	1	0	4	0
16	259	10	10000	4	1	0	4	0
16	260	10	10000	4	1	0	4	0
17	261	10	10000	4	1	0	4	0
18	262	10	10000	4	1	0	4	0
16	263	10	10000	4	1	0	4	0
14	264	10	10000	4	1	0	4	0
15	265	10	10000	4	1	0	4	0
15	266	10	10000	4	1	0	4	0
15	267	10	10000	4	1	0	4	0
15	268	10	10000	4	1	0	4	0
15	269	10	10000	4	1	0	4	0
15	270	10	10000	4	1	0	4	0
14	271	10	10000	4	1	0	4	0
14	272	10	10000	4	1	0	4	0
14	273	10	10000	4	1	0	4	0
16	274	10	10000	4	1	0	4	0
15	275	10	10000	4	1	0	4	0
15	276	10	10000	4	1	0	4	0
15	277	10	10000	4	1	0	4	0
15	278	10	10000	4	1	0	4	0
15	279	10	10000	4	1	0	4	0
14	280	10	10000	4	1	0	4	0
14	281	10	10000	4	1	0	4	0
16	282	10	10000	4	1	0	4	0
15	283	10	10000	4	1	0	4	0
14	284	10	10000	4	1	0	4	0
14	285	10	10000	4	1	0	4	0
13	286	10	10000	4	1	0	4	0
14	287	10	10000	4	1	0	4	0
14	288	10	10000	4	1	0	4	0
14	289	10	10000	4	1	0	4	0
15	290	10	10000	4	1	0	4	0
14	291	10	10000	4	1	0	4	0
13	292	10	10000	4	1	0	4	0
14	293	10	10000	4	1	0	4	0
15	294	10	10000	4	1	0	4	0
14	295	10	10000	4	1	0	4	0
14	296	10	10000	4	1	0	4	0
14	297	10	10000	4	1	0	4	0
14	298	10	10000	4	1	0	4	0
14	299	10	10000	4	1	0	4	0
13	300	10	10000	4	1	0	4	0
13	301	10	10000	4	1	0	4	0
15	302	10	10000	4	1	0	4	0
14	303	10	10000	4	1	0	4	0
12	304	10	10000	4	1	0	4	0
12	305	10	10000	4	1	0	4	0
13	306	10	10000	4	1	0	4	0
13	307	10	10000	4	1	0	4	0
14	308	10	10000	4	1	0	4	0
14	309	10	10000	4	1	0	4	0
15	310	10	10000	4	1	0	4	0
14	311	10	10000	4	1	0	4	0
14	312	10	10000	4	1	0	4	0
14	313	10	10000	4	1	0	4	0
16	314	10	10000	4	1	0	4	0
15	315	10	10000	4	1	0	4	0
15	316	10	10000	4	1	0	4	0
15	317	10	10000	4	1	0	4	0
15	318	10	10000	4	1	0	4	0
14	319	10	10000	4	1	0	4	0
14	320	10	10000	4	1	0	4	0
16	321	10	10000	4	1	0	4	0
16	322	10	10000	4	1	0	4	0
15	323	10	10000	4	1	0	4	0
13	324	10	10000	4	1	0	4	0
15	325	10	10000	4	1	0	4	0
14	326	10	10000	4	1	0	4	0
14	327	10	10000	4	1	0	4	0
14	328	10	10000	4	1	0	4	0
14	329	10	10000	4	1	0	4	0
14	330	10	10000	4	1	0	4	0
12	331	10	10000	4	1	0	4	0
12	332	10	10000	4	1	0	4	0
12	333	10	10000	4	1	0	4	0
15	334	10	10000	4	1	0	4	0
15	335	10	10000	4	1	0	4	0
14	336	10	10000	4	1	0	4	0
14	337	10	10000	4	1	0	4	0
13	338	10	10000	4	1	0	4	0
13	339	10	10000	4	1	0	4	0
13	340	10	10000	4	1	0	4	0
13	341	10	10000	4	1	0	4	0
13	342	10	10000	4	1	0	4	0
13	343	10	10000	4	1	0	4	0
12	344	10	10000	4	1	0	4	0
13	345	10	10000	4	1	0	4	0
12	346	10	10000	4	1	0	4	0
14	347	10	10000	4	1	0	4	0
16	348	10	10000	4	1	0	4	0
18	349	10	10000	4	1	0	4	0
19	350	10	10000	4	1	0	4	0
18	351	10	10000	4	1	0	4	0
17	352	10	10000	4	1	0	4	0
16	353	10	10000	4	1	0	4	0
20	354	10	10000	4	1	0	4	0
20	355	10	10000	4	1	0	4	0
19	356	10	10000	4	1	0	4	0
19	357	10	10000	4	1	0	4	0
21	358	10	10000	4	1	0	4	0
20	359	10	10000	4	1	0	4	0
20	360	10	10000	4	1	0	4	0
22	361	10	10000	4	1	0	4	0
22	362	10	10000	4	1	0	4	0
21	363	10	10000	4	1	0	4	0
19	364	10	10000	4	1	0	4	0
20	365	10	10000	4	1	0	4	0
20	366	10	10000	4	1	0	4	0
20	367	10	10000	4	1	0	4	0
20	368	10	10000	4	1	0	4	0
20	369	10	10000	4	1	0	4	0
20	370	10	10000	4	1	0	4	0
19	371	10	10000	4	1	0	4	0
18	372	10	10000	4	1	0	4	0
18	373	10	10000	4	1	0	4	0
19	374	10	10000	4	1	0	4	0
19	375	10	10000	4	1	0	4	0
19	376	10	10000	4	1	0	4	0
19	377	10	10000	4	1	0	4	0
22	378	10	10000	4	1	0	4	0
26	379	10	10000	4	1	0	4	0
28	380	10	10000	4	1	0	4	0
30	381	10	10000	4	1	0	4	0
34	382	10	10000	4	1	0	4	0
34	383	10	10000	4	1	0	4	0
35	384	10	10000	4	1	0	4	0
35	385	10	10000	4	1	0	4	0
34	386	10	10000	4	1	0	4	0
34	387	10	10000	4	1	0	4	0
33	388	10	10000	4	1	0	4	0
33	389	10	10000	4	1	0	4	0
34	390	10	10000	4	1	0	4	0
35	391	10	10000	4	1	0	4	0
34	392	10	10000	4	1	0	4	0
38	393	10	10000	4	1	0	4	0
58	394	10	10000	4	1	0	4	0
70	395	10	10000	4	1	0	4	0
72	396	10	10000	4	1	0	4	0
72	397	10	10000	4	1	0	4	0
79	398	10	10000	4	1	0	4	0
87	399	10	10000	4	1	0	4	0
95	400	10	10000	4	1	0	4	0
95	401	10	10000	4	1	0	4	0
95	402	10	10000	4	1	0	4	0
99	403	10	10000	4	1	0	4	0
110	404	10	10000	4	1	0	4	0
121	405	10	10000	4	1	0	4	0
128	406	10	10000	4	1	0	4	0
126	407	10	10000	4	1	0	4	0
121	408	10	10000	4	1	0	4	0
125	409	10	10000	4	1	0	4	0
144	410	10	10000	4	1	0	4	0
163	411	10	10000	4	1	0	4	0
164	412	10	10000	4	1	0	4	0
157	413	10	10000	4	1	0	4	0
153	414	10	10000	4	1	0	4	0
146	415	10	10000	4	1	0	4	0
141	416	10	10000	4	1	0	4	0
137	417	10	10000	4	1	0	4	0
135	418	10	10000	4	1	0	4	0
133	419	10	10000	4	1	0	4	0
133	420	10	10000	4	1	0	4	0
132	421	10	10000	4	1	0	4	0
129	422	10	10000	4	1	0	4	0
126	423	10	10000	4	1	0	4	0
120	424	10	10000	4	1	0	4	0
118	425	10	10000	4	1	0	4	0
116	426	10	10000	4	1	0	4	0
114	427	10	10000	4	1	0	4	0
112	428	10	10000	4	1	0	4	0
109	429	10	10000	4	1	0	4	0
107	430	10	10000	4	1	0	4	0
104	431	10	10000	4	1	0	4	0
100	432	10	10000	4	1	0	4	0
96	433	10	10000	4	1	0	4	0
94	434	10	10000	4	1	0	4	0
89	435	10	10000	4	1	0	4	0
86	436	10	10000	4	1	0	4	0
82	437	10	10000	4	1	0	4	0
80	438	10	10000	4	1	0	4	0
79	439	10	10000	4	1	0	4	0
78	440	10	10000	4	1	0	4	0
79	441	10	10000	4	1	0	4	0
79	442	10	10000	4	1	0	4	0
80	443	10	10000	4	1	0	4	0
79	444	10	10000	4	1	0	4	0
79	445	10	10000	4	1	0	4	0
80	446	10	10000	4	1	0	4	0
81	447	10	10000	4	1	0	4	0
81	448	10	10000	4	1	0	4	0
80	449	10	10000	4	1	0	4	0
81	450	10	10000	4	1	0	4	0
81	451	10	10000	4	1	0	4	0
80	452	10	10000	4	1	0	4	0
81	453	10	10000	4	1	0	4	0
83	454	10	10000	4	1	0	4	0
82	455	10	10000	4	1	0	4	0
82	456	10	10000	4	1	0	4	0
82	457	10	10000	4	1	0	4	0
81	458	10	10000	4	1	0	4	0
82	459	10	10000	4	1	0	4	0
82	460	10	10000	4	1	0	4	0
82	461	10	10000	4	1	0	4	0
82	462	10	10000	4	1	0	4	0
83	463	10	10000	4	1	0	4	0
79	464	10	10000	4	1	0	4	0
79	465	10	10000	4	1	0	4	0
78	466	10	10000	4	1	0	4	0
77	467	10	10000	4	1	0	4	0
75	468	10	10000	4	1	0	4	0
73	469	10	10000	4	1	0	4	0
71	470	10	10000	4	1	0	4	0
68	471	10	10000	4	1	0	4	0
66	472	10	10000	4	1	0	4	0
63	473	10	10000	4	1	0	4	0
63	474	10	10000	4	1	0	4	0
60	475	10	10000	4	1	0	4	0
57	476	10	10000	4	1	0	4	0
54	477	10	10000	4	1	0	4	0
53	478	10	10000	4	1	0	4	0
50	479	10	10000	4	1	0	4	0
48	480	10	10000	4	1	0	4	0
47	481	10	10000	4	1	0	4	0
47	482	10	10000	4	1	0	4	0
45	483	10	10000	4	1	0	4	0
41	484	10	10000	4	1	0	4	0
40	485	10	10000	4	1	0	4	0
40	486	10	10000	4	1	0	4	0
39	487	10	10000	4	1	0	4	0
39	488	10	10000	4	1	0	4	0
38	489	10	10000	4	1	0	4	0
38	490	10	10000	4	1	0	4	0
37	491	10	10000	4	1	0	4	0
35	492	10	10000	4	1	0	4	0
35	493	10	10000	4	1	0	4	0
37	494	10	10000	4	1	0	4	0
37	495	10	10000	4	1	0	4	0
36	496	10	10000	4	1	0	4	0
37	497	10	10000	4	1	0	4	0
37	498	10	10000	4	1	0	4	0
36	499	10	10000	4	1	0	4	0
35	500	10	10000	4	1	0	4	0
34	501	10	10000	4	1	0	4	0
35	502	10	10000	4	1	0	4	1
34	503	10	10000	4	1	0	4	1
31	504	10	10000	4	1	0	4	1
31	505	10	10000	4	1	0	4	1
31	506	10	10000	4	1	0	4	1
32	507	10	10000	4	1	0	4	1
32	508	10	10000	4	1	0	4	1
31	509	10	10000	4	1	0	4	1
32	510	10	10000	4	1	0	4	1
31	511	10	10000	4	1	0	4	1
31	512	10	10000	4	1	0	4	1
31	513	10	10000	4	1	0	4	1
32	514	10	10000	4	1	0	4	1
33	515	10	10000	4	1	0	4	1
31	516	10	10000	4	1	0	4	1
31	517	10	10000	4	1	0	4	1
32	518	10	10000	4	1	0	4	1
32	519	10	10000	4	1	0	4	1
33	520	10	10000	4	1	0	4	1
34	521	10	10000	4	1	0	4	1
34	522	10	10000	4	1	0	4	1
33	523	10	10000	4	1	0	4	1
31	524	10	10000	4	1	0	4	1
30	525	10	10000	4	1	0	4	1
30	526	10	10000	4	1	0	4	1
30	527	10	10000	4	1	0	4	1
30	528	10	10000	4	1	0	4	1
31	529	10	10000	4	1	0	4	1
32	530	10	10000	4	1	0	4	1
31	531	10	10000	4	1	0	4	1
31	532	10	10000	4	1	0	4	1
30	533	10	10000	4	1	0	4	1
32	534	10	10000	4	1	0	4	1
30	535	10	10000	4	1	0	4	1
30	536	10	10000	4	1	0	4	1
29	537	10	10000	4	1	0	4	1
27	538	10	10000	4	1	0	4	1
27	539	10	10000	4	1	0	4	1
28	540	10	10000	4	1	0	4	1
29	541	10	10000	4	1	0	4	1
30	542	10	10000	4	1	0	4	1
29	543	10	10000	4	1	0	4	1
27	544	10	10000	4	1	0	4	1
26	545	10	10000	4	1	0	4	1
27	546	10	10000	4	1	0	4	1
27	547	10	10000	4	1	0	4	1
26	548	10	10000	4	1	0	4	1
26	549	10	10000	4	1	0	4	1
26	550	10	10000	4	1	0	4	1
24	551	10	10000	4	1	0	4	1
24	552	10	10000	4	1	0	4	0
23	553	10	10000	4	1	0	4	0
26	554	10	10000	4	1	0	4	0
26	555	10	10000	4	1	0	4	0
26	556	10	10000	4	1	0	4	0
28	557	10	10000	4	1	0	4	0
26	558	10	10000	4	1	0	4	0
25	559	10	10000	4	1	0	4	0
25	560	10	10000	4	1	0	4	0
26	561	10	10000	4	1	0	4	0
27	562	10	10000	4	1	0	4	0
29	563	10	10000	4	1	0	4	0
27	564	10	10000	4	1	0	4	0
29	565	10	10000	4	1	0	4	0
30	566	10	10000	4	1	0	4	0
29	567	10	10000	4	1	0	4	0
29	568	10	10000	4	1	0	4	0
29	569	10	10000	4	1	0	4	0
31	570	10	10000	4	1	0	4	0
31	571	10	10000	4	1	0	4	0
30	572	10	10000	4	1	0	4	0
32	573	10	10000	4	1	0	4	0
34	574	10	10000	4	1	0	4	0
36	575	10	10000	4	1	0	4	0
41	576	10	10000	4	1	0	4	0
49	577	10	10000	4	1	0	4	0
54	578	10	10000	4	1	0	4	0
54	579	10	10000	4	1	0	4	0
54	580	10	10000	4	1	0	4	0
55	581	10	10000	4	1	0	4	0
57	582	10	10000	4	1	0	4	0
57	583	10	10000	4	1	0	4	0
57	584	10	10000	4	1	0	4	0
59	585	10	10000	4	1	0	4	0
68	586	10	10000	4	1	0	4	0
70	587	10	10000	4	1	0	4	0
75	588	10	10000	4	1	0	4	0
78	589	10	10000	4	1	0	4	0
81	590	10	10000	4	1	0	4	0
82	591	10	10000	4	1	0	4	0
86	592	10	10000	4	1	0	4	0
92	593	10	10000	4	1	0	4	0
95	594	10	10000	4	1	0	4	0
95	595	10	10000	4	1	0	4	0
102	596	10	10000	4	1	0	4	0
113	597	10	10000	4	1	0	4	0
117	598	10	10000	4	1	0	4	0
137	599	10	10000	4	1	0	4	0
142	600	10	10000	4	1	0	4	0
148	601	10	10000	4	1	0	4	0
180	602	10	10000	4	1	0	4	0
223	603	10	10000	4	1	0	4	0
227	604	10	10000	4	1	0	4	0
262	605	10	10000	4	1	0	4	0
292	606	10	10000	4	1	0	4	0
291	607	10	10000	4	1	0	4	0
285	608	10	10000	4	1	0	4	0
281	609	10	10000	4	1	0	4	0
288	610	10	10000	4	1	0	4	0
284	611	10	10000	4	1	0	4	0
290	612	10	10000	4	1	0	4	0
290	613	10	10000	4	1	0	4	0
303	614	10	10000	4	1	0	4	0
301	615	10	10000	4	1	0	4	0
291	616	10	10000	4	1	0	4	0
280	617	10	10000	4	1	0	4	0
267	618	10	10000	4	1	0	4	0
258	619	10	10000	4	1	0	4	0
253	620	10	10000	4	1	0	4	0
252	621	10	10000	4	1	0	4	0
254	622	10	10000	4	1	0	4	0
257	623	10	10000	4	1	0	4	0
256	624	10	10000	4	1	0	4	0
258	625	10	10000	4	1	0	4	0
260	626	10	10000	4	1	0	4	0
258	627	10	10000	4	1	0	4	0
257	628	10	10000	4	1	0	4	0
259	629	10	10000	4	1	0	4	0
264	630	10	10000	4	1	0	4	0
267	631	10	10000	4	1	0	4	0
267	632	10	10000	4	1	0	4	0
265	633	10	10000	4	1	0	4	0
270	634	10	10000	4	1	0	4	0
272	635	10	10000	4	1	0	4	0
270	636	10	10000	4	1	0	4	0
268	637	10	10000	4	1	0	4	0
265	638	10	10000	4	1	0	4	0
258	639	10	10000	4	1	0	4	0
248	640	10	10000	4	1	0	4	0
237	641	10	10000	4	1	0	4	0
226	642	10	10000	4	1	0	4	0
218	643	10	10000	4	1	0	4	0
205	644	10	10000	4	1	0	4	0
199	645	10	10000	4	1	0	4	0
196	646	10	10000	4	1	0	4	0
190	647	10	10000	4	1	0	4	0
185	648	10	10000	4	1	0	4	0
180	649	10	10000	4	1	0	4	0
176	650	10	10000	4	1	0	4	0
172	651	10	10000	4	1	0	4	0
170	652	10	10000	4	1	0	4	0
170	653	10	10000	4	1	0	4	0
173	654	10	10000	4	1	0	4	0
176	655	10	10000	4	1	0	4	0
182	656	10	10000	4	1	0	4	0
188	657	10	10000	4	1	0	4	0
196	658	10	10000	4	1	0	4	0
204	659	10	10000	4	1	0	4	0
210	660	10	10000	4	1	0	4	0
218	661	10	10000	4	1	0	4	0
225	662	10	10000	4	1	0	4	0
231	663	10	10000	4	1	0	4	0
232	664	10	10000	4	1	0	4	0
236	665	10	10000	4	1	0	4	0
239	666	10	10000	4	1	0	4	0
241	667	10	10000	4	1	0	4	0
241	668	10	10000	4	1	0	4	0
241	669	10	10000	4	1	0	4	0
241	670	10	10000	4	1	0	4	0
239	671	10	10000	4	1	0	4	0
237	672	10	10000	4	1	0	4	0
234	673	10	10000	4	1	0	4	0
232	674	10	10000	4	1	0	4	0
229	675	10	10000	4	1	0	4	0
224	676	10	10000	4	1	0	4	0
220	677	10	10000	4	1	0	4	0
215	678	10	10000	4	1	0	4	0
211	679	10	10000	4	1	0	4	0
207	680	10	10000	4	1	0	4	0
202	681	10	10000	4	1	0	4	0
198	682	10	10000	4	1	0	4	0
194	683	10	10000	4	1	0	4	0
186	684	10	10000	4	1	0	4	0
179	685	10	10000	4	1	0	4	0
174	686	10	10000	4	1	0	4	0
168	687	10	10000	4	1	0	4	0
162	688	10	10000	4	1	0	4	0
157	689	10	10000	4	1	0	4	0
150	690	10	10000	4	1	0	4	0
144	691	10	10000	4	1	0	4	0
139	692	10	10000	4	1	0	4	0
132	693	10	10000	4	1	0	4	0
128	694	10	10000	4	1	0	4	0
122	695	10	10000	4	1	0	4	0
117	696	10	10000	4	1	0	4	0
112	697	10	10000	4	1	0	4	0
107	698	10	10000	4	1	0	4	0
103	699	10	10000	4	1	0	4	0
98	700	10	10000	4	1	0	4	0
94	701	10	10000	4	1	0	4	0
91	702	10	10000	4	1	0	4	0
87	703	10	10000	4	1	0	4	0
82	704	10	10000	4	1	0	4	0
79	705	10	10000	4	1	0	4	0
78	706	10	10000	4	1	0	4	0
76	707	10	10000	4	1	0	4	0
74	708	10	10000	4	1	0	4	0
73	709	10	10000	4	1	0	4	0
71	710	10	10000	4	1	0	4	0
70	711	10	10000	4	1	0	4	0
70	712	10	10000	4	1	0	4	0
70	713	10	10000	4	1	0	4	0
73	714	10	10000	4	1	0	4	0
73	715	10	10000	4	1	0	4	0
72	716	10	10000	4	1	0	4	0
71	717	10	10000	4	1	0	4	0
71	718	10	10000	4	1	0	4	0
71	719	10	10000	4	1	0	4	0
69	720	10	10000	4	1	0	4	0
69	721	10	10000	4	1	0	4	0
68	722	10	10000	4	1	0	4	0
66	723	10	10000	4	1	0	4	0
63	724	10	10000	4	1	0	4	0
62	725	10	10000	4	1	0	4	0
62	726	10	10000	4	1	0	4	0
63	727	10	10000	4	1	0	4	0
64	728	10	10000	4	1	0	4	0
66	729	10	10000	4	1	0	4	0
68	730	10	10000	4	1	0	4	0
69	731	10	10000	4	1	0	4	0
70	732	10	10000	4	1	0	4	0
71	733	10	10000	4	1	0	4	0
73	734	10	10000	4	1	0	4	0
71	735	10	10000	4	1	0	4	0
70	736	10	10000	4	1	0	4	0
69	737	10	10000	4	1	0	4	0
67	738	10	10000	4	1	0	4	0
65	739	10	10000	4	1	0	4	0
64	740	10	10000	4	1	0	4	0
64	741	10	10000	4	1	0	4	0
64	742	10	10000	4	1	0	4	0
63	743	10	10000	4	1	0	4	0
61	744	10	10000	4	1	0	4	0
61	745	10	10000	4	1	0	4	0
61	746	10	10000	4	1	0	4	0
60	747	10	10000	4	1	0	4	0
60	748	10	10000	4	1	0	4	0
59	749	10	10000	4	1	0	4	0
58	750	10	10000	4	1	0	4	0
56	751	10	10000	4	1	0	4	0
57	752	10	10000	4	1	0	4	0
56	753	10	10000	4	1	0	4	0
59	754	10	10000	4	1	0	4	0
58	755	10	10000	4	1	0	4	0
57	756	10	10000	4	1	0	4	0
56	757	10	10000	4	1	0	4	0
55	758	10	10000	4	1	0	4	0
53	759	10	10000	4	1	0	4	0
50	760	10	10000	4	1	0	4	0
50	761	10	10000	4	1	0	4	0
47	762	10	10000	4	1	0	4	0
46	763	10	10000	4	1	0	4	0
42	764	10	10000	4	1	0	4	0
43	765	10	10000	4	1	0	4	0
43	766	10	10000	4	1	0	4	0
43	767	10	10000	4	1	0	4	0
43	768	10	10000	4	1	0	4	0
42	769	10	10000	4	1	0	4	0
43	770	10	10000	4	1	0	4	0
42	771	10	10000	4	1	0	4	0
42	772	10	10000	4	1	0	4	0
40	773	10	10000	4	1	0	4	0
40	774	10	10000	4	1	0	4	0
40	775	10	10000	4	1	0	4	0
38	776	10	10000	4	1	0	4	0
37	777	10	10000	4	1	0	4	0
36	778	10	10000	4	1	0	4	0
35	779	10	10000	4	1	0	4	0
33	780	10	10000	4	1	0	4	0
34	781	10	10000	4	1	0	4	0
34	782	10	10000	4	1	0	4	0
33	783	10	10000	4	1	0	4	0
30	784	10	10000	4	1	0	4	0
29	785	10	10000	4	1	0	4	0
28	786	10	10000	4	1	0	4	0
28	787	10	10000	4	1	0	4	0
28	788	10	10000	4	1	0	4	0
27	789	10	10000	4	1	0	4	0
26	790	10	10000	4	1	0	4	0
25	791	10	10000	4	1	0	4	0
25	792	10	10000	4	1	0	4	0
24	793	10	10000	4	1	0	4	0
28	794	10	10000	4	1	0	4	0
28	795	10	10000	4	1	0	4	0
26	796	10	10000	4	1	0	4	0
27	797	10	10000	4	1	0	4	0
26	798	10	10000	4	1	0	4	0
25	799	10	10000	4	1	0	4	0
25	800	10	10000	4	1	0	4	0
25	801	10	10000	4	1	0	4	0
24	802	10	10000	4	1	0	4	0
24	803	10	10000	4	1	0	4	0
22	804	10	10000	4	1	0	4	0
21	805	10	10000	4	1	0	4	0
20	806	10	10000	4	1	0	4	0
21	807	10	10000	4	1	0	4	0
20	808	10	10000	4	1	0	4	0
20	809	10	10000	4	1	0	4	0
21	810	10	10000	4	1	0	4	0
20	811	10	10000	4	1	0	4	0
20	812	10	10000	4	1	0	4	0
19	813	10	10000	4	1	0	4	0
21	814	10	10000	4	1	0	4	0
21	815	10	10000	4	1	0	4	0
20	816	10	10000	4	1	0	4	0
19	817	10	10000	4	1	0	4	0
19	818	10	10000	4	1	0	4	0
18	819	10	10000	4	1	0	4	0
18	820	10	10000	4	1	0	4	0
19	821	10	10000	4	1	0	4	0
19	822	10	10000	4	1	0	4	0
20	823	10	10000	4	1	0	4	0
18	824	10	10000	4	1	0	4	0
18	825	10	10000	4	1	0	4	0
17	826	10	10000	4	1	0	4	0
18	827	10	10000	4	1	0	4	0
17	828	10	10000	4	1	0	4	0
17	829	10	10000	4	1	0	4	0
17	830	10	10000	4	1	0	4	0
16	831	10	10000	4	1	0	4	0
15	832	10	10000	4	1	0	4	0
15	833	10	10000	4	1	0	4	0
17	834	10	10000	4	1	0	4	0
16	835	10	10000	4	1	0	4	0
15	836	10	10000	4	1	0	4	0
15	837	10	10000	4	1	0	4	0
16	838	10	10000	4	1	0	4	0
14	839	10	10000	4	1	0	4	0
14	840	10	10000	4	1	0	4	0
14	841	10	10000	4	1	0	4	0
14	842	10	10000	4	1	0	4	0
14	843	10	10000	4	1	0	4	0
12	844	10	10000	4	1	0	4	0
13	845	10	10000	4	1	0	4	0
14	846	10	10000	4	1	0	4	0
15	847	10	10000	4	1	0	4	0
15	848	10	10000	4	1	0	4	0
14	849	10	10000	4	1	0	4	0
14	850	10	10000	4	1	0	4	0
13	851	10	10000	4	1	0	4	0
14	852	10	10000	4	1	0	4	0
13	853	10	10000	4	1	0	4	0
15	854	10	10000	4	1	0	4	0
16	855	10	10000	4	1	0	4	0
14	856	10	10000	4	1	0	4	0
13	857	10	10000	4	1	0	4	0
14	858	10	10000	4	1	0	4	0
13	859	10	10000	4	1	0	4	0
13	860	10	10000	4	1	0	4	0
14	861	10	10000	4	1	0	4	0
15	862	10	10000	4	1	0	4	0
15	863	10	10000	4	1	0	4	0
15	864	10	10000	4	1	0	4	0
14	865	10	10000	4	1	0	4	0
14	866	10	10000	4	1	0	4	0
16	867	10	10000	4	1	0	4	0
15	868	10	10000	4	1	0	4	0
14	869	10	10000	4	1	0	4	0
15	870	10	10000	4	1	0	4	0
13	871	10	10000	4	1	0	4	0
13	872	10	10000	4	1	0	4	0
14	873	10	10000	4	1	0	4	0
15	874	10	10000	4	1	0	4	0
15	875	10	10000	4	1	0	4	0
15	876	10	10000	4	1	0	4	0
14	877	10	10000	4	1	0	4	0
15	878	10	10000	4	1	0	4	0
15	879	10	10000	4	1	0	4	0
15	880	10	10000	4	1	0	4	0
16	881	10	10000	4	1	0	4	0
16	882	10	10000	4	1	0	4	0
15	883	10	10000	4	1	0	4	0
13	884	10	10000	4	1	0	4	0
13	885	10	10000	4	1	0	4	0
13	886	10	10000	4	1	0	4	0
14	887	10	10000	4	1	0	4	0
13	888	10	10000	4	1	0	4	0
14	889	10	10000	4	1	0	4	0
14	890	10	10000	4	1	0	4	0
13	891	10	10000	4	1	0	4	0
13	892	10	10000	4	1	0	4	0
13	893	10	10000	4	1	0	4	0
16	894	10	10000	4	1	0	4	0
15	895	10	10000	4	1	0	4	0
15	896	10	10000	4	1	0	4	0
14	897	10	10000	4	1	0	4	0
15	898	10	10000	4	1	0	4	0
13	899	10	10000	4	1	0	4	0
13	900	10	10000	4	1	0	4	0
15	901	10	10000	4	1	0	4	0
14	902	10	10000	4	1	0	4	0
16	903	10	10000	4	1	0	4	0
14	904	10	10000	4	1	0	4	0
15	905	10	10000	4	1	0	4	0
15	906	10	10000	4	1	0	4	0
16	907	10	10000	4	1	0	4	0
16	908	10	10000	4	1	0	4	0
16	909	10	10000	4	1	0	4	0
16	910	10	10000	4	1	0	4	0
15	911	10	10000	4	1	0	4	0
14	912	10	10000	4	1	0	4	0
14	913	10	10000	4	1	0	4	0
15	914	10	10000	4	1	0	4	0
14	915	10	10000	4	1	0	4	0
14	916	10	10000	4	1	0	4	0
13	917	10	10000	4	1	0	4	0
14	918	10	10000	4	1	0	4	0
13	919	10	10000	4	1	0	4	0
12	920	10	10000	4	1	0	4	0
13	921	10	10000	4	1	0	4	0
13	922	10	10000	4	1	0	4	0
14	923	10	10000	4	1	0	4	0
12	924	10	10000	4	1	0	4	0
13	925	10	10000	4	1	0	4	0
13	926	10	10000	4	1	0	4	0
13	927	10	10000	4	1	0	4	0
13	928	10	10000	4	1	0	4	0
13	929	10	10000	4	1	0	4	0
13	930	10	10000	4	1	0	4	0
12	931	10	10000	4	1	0	4	0
11	932	10	10000	4	1	0	4	0
11	933	10	10000	4	1	0	4	0
13	934	10	10000	4	1	0	4	0
13	935	10	10000	4	1	0	4	0
12	936	10	10000	4	1	0	4	0
12	937	10	10000	4	1	0	4	0
14	938	10	10000	4	1	0	4	0
13	939	10	10000	4	1	0	4	0
12	940	10	10000	4	1	0	4	0
14	941	10	10000	4	1	0	4	0
14	942	10	10000	4	1	0	4	0
14	943	10	10000	4	1	0	4	0
13	944	10	10000	4	1	0	4	0
13	945	10	10000	4	1	0	4	0
13	946	10	10000	4	1	0	4	0
14	947	10	10000	4	1	0	4	0
13	948	10	10000	4	1	0	4	0
14	949	10	10000	4	1	0	4	0
15	950	10	10000	4	1	0	4	0
13	951	10	10000	4	1	0	4	0
12	952	10	10000	4	1	0	4	0
13	953	10	10000	4	1	0	4	0
16	954	10	10000	4	1	0	4	0
16	955	10	10000	4	1	0	4	0
17	956	10	10000	4	1	0	4	0
17	957	10	10000	4	1	0	4	0
17	958	10	10000	4	1	0	4	0
16	959	10	10000	4	1	0	4	0
16	960	10	10000	4	1	0	4	0
16	961	10	10000	4	1	0	4	0
15	962	10	10000	4	1	0	4	0
16	963	10	10000	4	1	0	4	0
15	964	10	10000	4	1	0	4	0
15	965	10	10000	4	1	0	4	0
18	966	10	10000	4	1	0	4	0
20	967	10	10000	4	1	0	4	0
21	968	10	10000	4	1	0	4	0
23	969	10	10000	4	1	0	4	0
24	970	10	10000	4	1	0	4	0
23	971	10	10000	4	1	0	4	0
23	972	10	10000	4	1	0	4	0
21	973	10	10000	4	1	0	4	0
23	974	10	10000	4	1	0	4	0
22	975	10	10000	4	1	0	4	0
22	976	10	10000	4	1	0	4	0
20	977	10	10000	4	1	0	4	0
20	978	10	10000	4	1	0	4	0
20	979	10	10000	4	1	0	4	0
20	980	10	10000	4	1	0	4	0
21	981	10	10000	4	1	0	4	0
20	982	10	10000	4	1	0	4	0
21	983	10	10000	4	1	0	4	0
19	984	10	10000	4	1	0	4	0
18	985	10	10000	4	1	0	4	0
18	986	10	10000	4	1	0	4	0
18	987	10	10000	4	1	0	4	0
17	988	10	10000	4	1	0	4	0
17	989	10	10000	4	1	0	4	0
17	990	10	10000	4	1	0	4	0
17	991	10	10000	4	1	0	4	0
16	992	10	10000	4	1	0	4	0
15	993	10	10000	4	1	0	4	0
17	994	10	10000	4	1	0	4	0
16	995	10	10000	4	1	0	4	0
16	996	10	10000	4	1	0	4	0
15	997	10	10000	4	1	0	4	0
15	998	10	10000	4	1	0	4	0
16	999	10	10000	4	1	0	4	0
17	1000	10	10000	4	1	0	4	0
18	1001	10	10000	4	1	0	4	0
15	1	0	10000	5	1	0	5	0
14	2	0	10000	5	1	0	5	0
14	3	0	10000	5	1	0	5	0
14	4	0	10000	5	1	0	5	0
14	5	0	10000	5	1	0	5	0
15	6	0	10000	5	1	0	5	0
14	7	0	10000	5	1	0	5	0
15	8	0	10000	5	1	0	5	0
14	9	0	10000	5	1	0	5	0
15	10	0	10000	5	1	0	5	0
13	11	0	10000	5	1	0	5	0
12	12	0	10000	5	1	0	5	0
13	13	0	10000	5	1	0	5	0
14	14	0	10000	5	1	0	5	0
13	15	0	10000	5	1	0	5	0
13	16	0	10000	5	1	0	5	0
13	17	0	10000	5	1	0	5	0
12	18	0	10000	5	1	0	5	0
11	19	0	10000	5	1	0	5	0
12	20	0	10000	5	1	0	5	0
13	21	0	10000	5	1	0	5	0
13	22	0	10000	5	1	0	5	0
13	23	0	10000	5	1	0	5	0
13	24	0	10000	5	1	0	5	0
13	25	0	10000	5	1	0	5	0
13	26	0	10000	5	1	0	5	0
12	27	0	10000	5	1	0	5	0
13	28	0	10000	5	1	0	5	0
13	29	0	10000	5	1	0	5	0
13	30	0	10000	5	1	0	5	0
12	31	0	10000	5	1	0	5	0
11	32	0	10000	5	1	0	5	0
11	33	0	10000	5	1	0	5	0
12	34	0	10000	5	1	0	5	0
11	35	0	10000	5	1	0	5	0
12	36	0	10000	5	1	0	5	0
12	37	0	10000	5	1	0	5	0
11	38	0	10000	5	1	0	5	0
11	39	0	10000	5	1	0	5	0
11	40	0	10000	5	1	0	5	0
13	41	0	10000	5	1	0	5	0
12	42	0	10000	5	1	0	5	0
12	43	0	10000	5	1	0	5	0
12	44	0	10000	5	1	0	5	0
12	45	0	10000	5	1	0	5	0
12	46	0	10000	5	1	0	5	0
11	47	0	10000	5	1	0	5	0
12	48	0	10000	5	1	0	5	0
12	49	0	10000	5	1	0	5	0
12	50	0	10000	5	1	0	5	0
10	51	0	10000	5	1	0	5	0
10	52	0	10000	5	1	0	5	0
11	53	0	10000	5	1	0	5	0
11	54	0	10000	5	1	0	5	0
11	55	0	10000	5	1	0	5	0
11	56	0	10000	5	1	0	5	0
11	57	0	10000	5	1	0	5	0
10	58	0	10000	5	1	0	5	0
10	59	0	10000	5	1	0	5	0
10	60	0	10000	5	1	0	5	0
12	61	0	10000	5	1	0	5	0
12	62	0	10000	5	1	0	5	0
13	63	0	10000	5	1	0	5	0
12	64	0	10000	5	1	0	5	0
12	65	0	10000	5	1	0	5	0
12	66	0	10000	5	1	0	5	0
12	67	0	10000	5	1	0	5	0
13	68	0	10000	5	1	0	5	0
14	69	0	10000	5	1	0	5	0
13	70	0	10000	5	1	0	5	0
11	71	0	10000	5	1	0	5	0
11	72	0	10000	5	1	0	5	0
11	73	0	10000	5	1	0	5	0
12	74	0	10000	5	1	0	5	0
11	75	0	10000	5	1	0	5	0
11	76	0	10000	5	1	0	5	0
12	77	0	10000	5	1	0	5	0
11	78	0	10000	5	1	0	5	0
12	79	0	10000	5	1	0	5	0
12	80	0	10000	5	1	0	5	0
14	81	0	10000	5	1	0	5	0
14	82	0	10000	5	1	0	5	0
13	83	0	10000	5	1	0	5	0
13	84	0	10000	5	1	0	5	0
12	85	0	10000	5	1	0	5	0
12	86	0	10000	5	1	0	5	0
11	87	0	10000	5	1	0	5	0
12	88	0	10000	5	1	0	5	0
12	89	0	10000	5	1	0	5	0
12	90	0	10000	5	1	0	5	0
10	91	0	10000	5	1	0	5	0
10	92	0	10000	5	1	0	5	0
11	93	0	10000	5	1	0	5	0
12	94	0	10000	5	1	0	5	0
11	95	0	10000	5	1	0	5	0
11	96	0	10000	5	1	0	5	0
12	97	0	10000	5	1	0	5	0
10	98	0	10000	5	1	0	5	0
10	99	0	10000	5	1	0	5	0
10	100	0	10000	5	1	0	5	0
12	101	0	10000	5	1	0	5	0
12	102	0	10000	5	1	0	5	0
11	103	0	10000	5	1	0	5	0
11	104	0	10000	5	1	0	5	0
11	105	0	10000	5	1	0	5	0
11	106	0	10000	5	1	0	5	0
11	107	0	10000	5	1	0	5	0
12	108	0	10000	5	1	0	5	0
13	109	0	10000	5	1	0	5	0
14	110	0	10000	5	1	0	5	0
13	111	0	10000	5	1	0	5	0
14	112	0	10000	5	1	0	5	0
14	113	0	10000	5	1	0	5	0
14	114	0	10000	5	1	0	5	0
14	115	0	10000	5	1	0	5	0
14	116	0	10000	5	1	0	5	0
14	117	0	10000	5	1	0	5	0
13	118	0	10000	5	1	0	5	0
13	119	0	10000	5	1	0	5	0
14	120	0	10000	5	1	0	5	0
17	121	0	10000	5	1	0	5	0
17	122	0	10000	5	1	0	5	0
20	123	0	10000	5	1	0	5	0
22	124	0	10000	5	1	0	5	0
25	125	0	10000	5	1	0	5	0
27	126	0	10000	5	1	0	5	0
28	127	0	10000	5	1	0	5	0
31	128	0	10000	5	1	0	5	0
33	129	0	10000	5	1	0	5	0
35	130	0	10000	5	1	0	5	0
32	131	0	10000	5	1	0	5	0
33	132	0	10000	5	1	0	5	0
33	133	0	10000	5	1	0	5	0
33	134	0	10000	5	1	0	5	0
32	135	0	10000	5	1	0	5	0
33	136	0	10000	5	1	0	5	0
34	137	0	10000	5	1	0	5	0
33	138	0	10000	5	1	0	5	0
34	139	0	10000	5	1	0	5	0
35	140	0	10000	5	1	0	5	0
38	141	0	10000	5	1	0	5	0
38	142	0	10000	5	1	0	5	0
38	143	0	10000	5	1	0	5	0
38	144	0	10000	5	1	0	5	0
40	145	0	10000	5	1	0	5	0
40	146	0	10000	5	1	0	5	0
40	147	0	10000	5	1	0	5	0
40	148	0	10000	5	1	0	5	0
40	149	0	10000	5	1	0	5	0
40	150	0	10000	5	1	0	5	0
36	151	0	10000	5	1	0	5	0
36	152	0	10000	5	1	0	5	0
36	153	0	10000	5	1	0	5	0
36	154	0	10000	5	1	0	5	0
37	155	0	10000	5	1	0	5	0
38	156	0	10000	5	1	0	5	0
38	157	0	10000	5	1	0	5	0
36	158	0	10000	5	1	0	5	0
36	159	0	10000	5	1	0	5	0
35	160	0	10000	5	1	0	5	0
35	161	0	10000	5	1	0	5	0
34	162	0	10000	5	1	0	5	0
33	163	0	10000	5	1	0	5	0
32	164	0	10000	5	1	0	5	0
31	165	0	10000	5	1	0	5	0
31	166	0	10000	5	1	0	5	0
30	167	0	10000	5	1	0	5	0
30	168	0	10000	5	1	0	5	0
31	169	0	10000	5	1	0	5	0
32	170	0	10000	5	1	0	5	0
31	171	0	10000	5	1	0	5	0
32	172	0	10000	5	1	0	5	0
34	173	0	10000	5	1	0	5	0
34	174	0	10000	5	1	0	5	0
35	175	0	10000	5	1	0	5	0
36	176	0	10000	5	1	0	5	0
37	177	0	10000	5	1	0	5	0
37	178	0	10000	5	1	0	5	0
38	179	0	10000	5	1	0	5	0
39	180	0	10000	5	1	0	5	0
43	181	0	10000	5	1	0	5	0
44	182	0	10000	5	1	0	5	0
46	183	0	10000	5	1	0	5	0
47	184	0	10000	5	1	0	5	0
49	185	0	10000	5	1	0	5	0
50	186	0	10000	5	1	0	5	0
50	187	0	10000	5	1	0	5	0
52	188	0	10000	5	1	0	5	0
53	189	0	10000	5	1	0	5	0
55	190	0	10000	5	1	0	5	0
53	191	0	10000	5	1	0	5	0
55	192	0	10000	5	1	0	5	0
55	193	0	10000	5	1	0	5	0
55	194	0	10000	5	1	0	5	0
55	195	0	10000	5	1	0	5	0
56	196	0	10000	5	1	0	5	0
56	197	0	10000	5	1	0	5	0
57	198	0	10000	5	1	0	5	0
56	199	0	10000	5	1	0	5	0
56	200	0	10000	5	1	0	5	0
59	201	0	10000	5	1	0	5	0
58	202	0	10000	5	1	0	5	0
58	203	0	10000	5	1	0	5	0
57	204	0	10000	5	1	0	5	0
57	205	0	10000	5	1	0	5	0
57	206	0	10000	5	1	0	5	0
56	207	0	10000	5	1	0	5	0
56	208	0	10000	5	1	0	5	0
57	209	0	10000	5	1	0	5	0
55	210	0	10000	5	1	0	5	0
53	211	0	10000	5	1	0	5	0
52	212	0	10000	5	1	0	5	0
51	213	0	10000	5	1	0	5	0
50	214	0	10000	5	1	0	5	0
48	215	0	10000	5	1	0	5	0
46	216	0	10000	5	1	0	5	0
44	217	0	10000	5	1	0	5	0
42	218	0	10000	5	1	0	5	0
41	219	0	10000	5	1	0	5	0
39	220	0	10000	5	1	0	5	0
40	221	0	10000	5	1	0	5	0
38	222	0	10000	5	1	0	5	0
36	223	0	10000	5	1	0	5	0
35	224	0	10000	5	1	0	5	0
34	225	0	10000	5	1	0	5	0
33	226	0	10000	5	1	0	5	0
33	227	0	10000	5	1	0	5	0
33	228	0	10000	5	1	0	5	0
32	229	0	10000	5	1	0	5	0
31	230	0	10000	5	1	0	5	0
29	231	0	10000	5	1	0	5	0
28	232	0	10000	5	1	0	5	0
28	233	0	10000	5	1	0	5	0
27	234	0	10000	5	1	0	5	0
26	235	0	10000	5	1	0	5	0
25	236	0	10000	5	1	0	5	0
25	237	0	10000	5	1	0	5	0
24	238	0	10000	5	1	0	5	0
23	239	0	10000	5	1	0	5	0
22	240	0	10000	5	1	0	5	0
24	241	0	10000	5	1	0	5	0
23	242	0	10000	5	1	0	5	0
22	243	0	10000	5	1	0	5	0
21	244	0	10000	5	1	0	5	0
21	245	0	10000	5	1	0	5	0
20	246	0	10000	5	1	0	5	0
19	247	0	10000	5	1	0	5	0
20	248	0	10000	5	1	0	5	0
20	249	0	10000	5	1	0	5	0
19	250	0	10000	5	1	0	5	0
16	251	0	10000	5	1	0	5	0
17	252	0	10000	5	1	0	5	0
15	253	0	10000	5	1	0	5	0
16	254	0	10000	5	1	0	5	0
16	255	0	10000	5	1	0	5	0
16	256	0	10000	5	1	0	5	0
15	257	0	10000	5	1	0	5	0
15	258	0	10000	5	1	0	5	0
14	259	0	10000	5	1	0	5	0
13	260	0	10000	5	1	0	5	0
16	261	0	10000	5	1	0	5	0
15	262	0	10000	5	1	0	5	0
14	263	0	10000	5	1	0	5	0
15	264	0	10000	5	1	0	5	0
14	265	0	10000	5	1	0	5	0
14	266	0	10000	5	1	0	5	0
13	267	0	10000	5	1	0	5	0
14	268	0	10000	5	1	0	5	0
13	269	0	10000	5	1	0	5	0
14	270	0	10000	5	1	0	5	0
12	271	0	10000	5	1	0	5	0
13	272	0	10000	5	1	0	5	0
12	273	0	10000	5	1	0	5	0
12	274	0	10000	5	1	0	5	0
12	275	0	10000	5	1	0	5	0
12	276	0	10000	5	1	0	5	0
12	277	0	10000	5	1	0	5	0
11	278	0	10000	5	1	0	5	0
11	279	0	10000	5	1	0	5	0
10	280	0	10000	5	1	0	5	0
12	281	0	10000	5	1	0	5	0
12	282	0	10000	5	1	0	5	0
11	283	0	10000	5	1	0	5	0
12	284	0	10000	5	1	0	5	0
11	285	0	10000	5	1	0	5	0
11	286	0	10000	5	1	0	5	0
11	287	0	10000	5	1	0	5	0
11	288	0	10000	5	1	0	5	0
11	289	0	10000	5	1	0	5	0
12	290	0	10000	5	1	0	5	0
10	291	0	10000	5	1	0	5	0
12	292	0	10000	5	1	0	5	0
12	293	0	10000	5	1	0	5	0
12	294	0	10000	5	1	0	5	0
13	295	0	10000	5	1	0	5	0
12	296	0	10000	5	1	0	5	0
12	297	0	10000	5	1	0	5	0
12	298	0	10000	5	1	0	5	0
11	299	0	10000	5	1	0	5	0
10	300	0	10000	5	1	0	5	0
13	301	0	10000	5	1	0	5	0
12	302	0	10000	5	1	0	5	0
11	303	0	10000	5	1	0	5	0
12	304	0	10000	5	1	0	5	0
13	305	0	10000	5	1	0	5	0
13	306	0	10000	5	1	0	5	0
13	307	0	10000	5	1	0	5	0
14	308	0	10000	5	1	0	5	0
14	309	0	10000	5	1	0	5	0
15	310	0	10000	5	1	0	5	0
12	311	0	10000	5	1	0	5	0
12	312	0	10000	5	1	0	5	0
12	313	0	10000	5	1	0	5	0
13	314	0	10000	5	1	0	5	0
13	315	0	10000	5	1	0	5	0
13	316	0	10000	5	1	0	5	0
13	317	0	10000	5	1	0	5	0
13	318	0	10000	5	1	0	5	0
12	319	0	10000	5	1	0	5	0
11	320	0	10000	5	1	0	5	0
13	321	0	10000	5	1	0	5	0
13	322	0	10000	5	1	0	5	0
13	323	0	10000	5	1	0	5	0
12	324	0	10000	5	1	0	5	0
12	325	0	10000	5	1	0	5	0
12	326	0	10000	5	1	0	5	0
12	327	0	10000	5	1	0	5	0
13	328	0	10000	5	1	0	5	0
13	329	0	10000	5	1	0	5	0
13	330	0	10000	5	1	0	5	0
10	331	0	10000	5	1	0	5	0
11	332	0	10000	5	1	0	5	0
12	333	0	10000	5	1	0	5	0
11	334	0	10000	5	1	0	5	0
14	335	0	10000	5	1	0	5	0
18	336	0	10000	5	1	0	5	0
20	337	0	10000	5	1	0	5	0
20	338	0	10000	5	1	0	5	0
19	339	0	10000	5	1	0	5	0
20	340	0	10000	5	1	0	5	0
24	341	0	10000	5	1	0	5	0
22	342	0	10000	5	1	0	5	0
21	343	0	10000	5	1	0	5	0
23	344	0	10000	5	1	0	5	0
27	345	0	10000	5	1	0	5	0
33	346	0	10000	5	1	0	5	0
38	347	0	10000	5	1	0	5	0
40	348	0	10000	5	1	0	5	0
38	349	0	10000	5	1	0	5	0
39	350	0	10000	5	1	0	5	0
36	351	0	10000	5	1	0	5	0
39	352	0	10000	5	1	0	5	0
45	353	0	10000	5	1	0	5	0
51	354	0	10000	5	1	0	5	0
53	355	0	10000	5	1	0	5	0
53	356	0	10000	5	1	0	5	0
54	357	0	10000	5	1	0	5	0
63	358	0	10000	5	1	0	5	0
75	359	0	10000	5	1	0	5	0
80	360	0	10000	5	1	0	5	0
82	361	0	10000	5	1	0	5	0
85	362	0	10000	5	1	0	5	0
84	363	0	10000	5	1	0	5	0
82	364	0	10000	5	1	0	5	0
84	365	0	10000	5	1	0	5	0
92	366	0	10000	5	1	0	5	0
104	367	0	10000	5	1	0	5	0
117	368	0	10000	5	1	0	5	0
117	369	0	10000	5	1	0	5	0
128	370	0	10000	5	1	0	5	0
138	371	0	10000	5	1	0	5	0
145	372	0	10000	5	1	0	5	0
144	373	0	10000	5	1	0	5	0
148	374	0	10000	5	1	0	5	0
148	375	0	10000	5	1	0	5	0
142	376	0	10000	5	1	0	5	0
140	377	0	10000	5	1	0	5	0
136	378	0	10000	5	1	0	5	0
135	379	0	10000	5	1	0	5	0
133	380	0	10000	5	1	0	5	0
132	381	0	10000	5	1	0	5	0
129	382	0	10000	5	1	0	5	0
125	383	0	10000	5	1	0	5	0
124	384	0	10000	5	1	0	5	0
126	385	0	10000	5	1	0	5	0
127	386	0	10000	5	1	0	5	0
123	387	0	10000	5	1	0	5	0
118	388	0	10000	5	1	0	5	0
115	389	0	10000	5	1	0	5	0
111	390	0	10000	5	1	0	5	0
105	391	0	10000	5	1	0	5	0
102	392	0	10000	5	1	0	5	0
99	393	0	10000	5	1	0	5	0
95	394	0	10000	5	1	0	5	0
95	395	0	10000	5	1	0	5	0
95	396	0	10000	5	1	0	5	0
93	397	0	10000	5	1	0	5	0
91	398	0	10000	5	1	0	5	0
94	399	0	10000	5	1	0	5	0
103	400	0	10000	5	1	0	5	0
113	401	0	10000	5	1	0	5	0
118	402	0	10000	5	1	0	5	0
123	403	0	10000	5	1	0	5	0
128	404	0	10000	5	1	0	5	0
130	405	0	10000	5	1	0	5	0
130	406	0	10000	5	1	0	5	0
128	407	0	10000	5	1	0	5	0
125	408	0	10000	5	1	0	5	0
121	409	0	10000	5	1	0	5	0
116	410	0	10000	5	1	0	5	0
110	411	0	10000	5	1	0	5	0
110	412	0	10000	5	1	0	5	0
114	413	0	10000	5	1	0	5	0
119	414	0	10000	5	1	0	5	0
123	415	0	10000	5	1	0	5	0
128	416	0	10000	5	1	0	5	0
131	417	0	10000	5	1	0	5	0
131	418	0	10000	5	1	0	5	0
129	419	0	10000	5	1	0	5	0
127	420	0	10000	5	1	0	5	0
126	421	0	10000	5	1	0	5	0
124	422	0	10000	5	1	0	5	0
124	423	0	10000	5	1	0	5	0
122	424	0	10000	5	1	0	5	0
119	425	0	10000	5	1	0	5	0
118	426	0	10000	5	1	0	5	0
117	427	0	10000	5	1	0	5	0
113	428	0	10000	5	1	0	5	0
109	429	0	10000	5	1	0	5	0
106	430	0	10000	5	1	0	5	0
100	431	0	10000	5	1	0	5	0
96	432	0	10000	5	1	0	5	0
92	433	0	10000	5	1	0	5	0
89	434	0	10000	5	1	0	5	0
86	435	0	10000	5	1	0	5	0
82	436	0	10000	5	1	0	5	0
80	437	0	10000	5	1	0	5	0
76	438	0	10000	5	1	0	5	0
72	439	0	10000	5	1	0	5	0
69	440	0	10000	5	1	0	5	0
69	441	0	10000	5	1	0	5	0
68	442	0	10000	5	1	0	5	0
67	443	0	10000	5	1	0	5	0
68	444	0	10000	5	1	0	5	0
70	445	0	10000	5	1	0	5	0
72	446	0	10000	5	1	0	5	0
74	447	0	10000	5	1	0	5	0
75	448	0	10000	5	1	0	5	0
77	449	0	10000	5	1	0	5	0
78	450	0	10000	5	1	0	5	0
75	451	0	10000	5	1	0	5	0
75	452	0	10000	5	1	0	5	0
76	453	0	10000	5	1	0	5	0
76	454	0	10000	5	1	0	5	0
77	455	0	10000	5	1	0	5	0
80	456	0	10000	5	1	0	5	0
81	457	0	10000	5	1	0	5	0
83	458	0	10000	5	1	0	5	0
84	459	0	10000	5	1	0	5	0
85	460	0	10000	5	1	0	5	0
89	461	0	10000	5	1	0	5	0
91	462	0	10000	5	1	0	5	0
90	463	0	10000	5	1	0	5	0
90	464	0	10000	5	1	0	5	0
90	465	0	10000	5	1	0	5	0
89	466	0	10000	5	1	0	5	0
88	467	0	10000	5	1	0	5	0
87	468	0	10000	5	1	0	5	0
87	469	0	10000	5	1	0	5	0
87	470	0	10000	5	1	0	5	0
83	471	0	10000	5	1	0	5	0
81	472	0	10000	5	1	0	5	0
81	473	0	10000	5	1	0	5	0
81	474	0	10000	5	1	0	5	0
81	475	0	10000	5	1	0	5	0
82	476	0	10000	5	1	0	5	0
83	477	0	10000	5	1	0	5	0
83	478	0	10000	5	1	0	5	0
83	479	0	10000	5	1	0	5	0
81	480	0	10000	5	1	0	5	0
84	481	0	10000	5	1	0	5	0
84	482	0	10000	5	1	0	5	0
84	483	0	10000	5	1	0	5	0
86	484	0	10000	5	1	0	5	0
86	485	0	10000	5	1	0	5	0
85	486	0	10000	5	1	0	5	0
84	487	0	10000	5	1	0	5	0
84	488	0	10000	5	1	0	5	0
82	489	0	10000	5	1	0	5	0
81	490	0	10000	5	1	0	5	0
78	491	0	10000	5	1	0	5	0
77	492	0	10000	5	1	0	5	0
77	493	0	10000	5	1	0	5	0
75	494	0	10000	5	1	0	5	0
73	495	0	10000	5	1	0	5	0
72	496	0	10000	5	1	0	5	0
71	497	0	10000	5	1	0	5	0
70	498	0	10000	5	1	0	5	0
69	499	0	10000	5	1	0	5	0
68	500	0	10000	5	1	0	5	0
71	501	0	10000	5	1	0	5	1
70	502	0	10000	5	1	0	5	1
68	503	0	10000	5	1	0	5	1
68	504	0	10000	5	1	0	5	1
67	505	0	10000	5	1	0	5	1
66	506	0	10000	5	1	0	5	1
65	507	0	10000	5	1	0	5	1
65	508	0	10000	5	1	0	5	1
62	509	0	10000	5	1	0	5	1
61	510	0	10000	5	1	0	5	1
57	511	0	10000	5	1	0	5	1
55	512	0	10000	5	1	0	5	1
54	513	0	10000	5	1	0	5	1
53	514	0	10000	5	1	0	5	1
50	515	0	10000	5	1	0	5	1
50	516	0	10000	5	1	0	5	1
47	517	0	10000	5	1	0	5	1
45	518	0	10000	5	1	0	5	1
43	519	0	10000	5	1	0	5	1
42	520	0	10000	5	1	0	5	1
43	521	0	10000	5	1	0	5	1
41	522	0	10000	5	1	0	5	1
40	523	0	10000	5	1	0	5	1
39	524	0	10000	5	1	0	5	1
37	525	0	10000	5	1	0	5	1
36	526	0	10000	5	1	0	5	1
34	527	0	10000	5	1	0	5	1
33	528	0	10000	5	1	0	5	1
32	529	0	10000	5	1	0	5	1
34	530	0	10000	5	1	0	5	1
30	531	0	10000	5	1	0	5	1
30	532	0	10000	5	1	0	5	1
30	533	0	10000	5	1	0	5	1
29	534	0	10000	5	1	0	5	1
28	535	0	10000	5	1	0	5	1
28	536	0	10000	5	1	0	5	1
27	537	0	10000	5	1	0	5	1
25	538	0	10000	5	1	0	5	1
25	539	0	10000	5	1	0	5	1
24	540	0	10000	5	1	0	5	1
25	541	0	10000	5	1	0	5	1
24	542	0	10000	5	1	0	5	1
23	543	0	10000	5	1	0	5	1
23	544	0	10000	5	1	0	5	1
22	545	0	10000	5	1	0	5	1
23	546	0	10000	5	1	0	5	1
24	547	0	10000	5	1	0	5	1
25	548	0	10000	5	1	0	5	1
25	549	0	10000	5	1	0	5	1
25	550	0	10000	5	1	0	5	1
22	551	0	10000	5	1	0	5	0
22	552	0	10000	5	1	0	5	0
22	553	0	10000	5	1	0	5	0
23	554	0	10000	5	1	0	5	0
22	555	0	10000	5	1	0	5	0
22	556	0	10000	5	1	0	5	0
22	557	0	10000	5	1	0	5	0
21	558	0	10000	5	1	0	5	0
22	559	0	10000	5	1	0	5	0
25	560	0	10000	5	1	0	5	0
28	561	0	10000	5	1	0	5	0
33	562	0	10000	5	1	0	5	0
37	563	0	10000	5	1	0	5	0
37	564	0	10000	5	1	0	5	0
42	565	0	10000	5	1	0	5	0
44	566	0	10000	5	1	0	5	0
54	567	0	10000	5	1	0	5	0
58	568	0	10000	5	1	0	5	0
60	569	0	10000	5	1	0	5	0
67	570	0	10000	5	1	0	5	0
71	571	0	10000	5	1	0	5	0
72	572	0	10000	5	1	0	5	0
70	573	0	10000	5	1	0	5	0
68	574	0	10000	5	1	0	5	0
66	575	0	10000	5	1	0	5	0
66	576	0	10000	5	1	0	5	0
65	577	0	10000	5	1	0	5	0
65	578	0	10000	5	1	0	5	0
69	579	0	10000	5	1	0	5	0
80	580	0	10000	5	1	0	5	0
93	581	0	10000	5	1	0	5	0
98	582	0	10000	5	1	0	5	0
102	583	0	10000	5	1	0	5	0
116	584	0	10000	5	1	0	5	0
116	585	0	10000	5	1	0	5	0
113	586	0	10000	5	1	0	5	0
113	587	0	10000	5	1	0	5	0
121	588	0	10000	5	1	0	5	0
128	589	0	10000	5	1	0	5	0
128	590	0	10000	5	1	0	5	0
121	591	0	10000	5	1	0	5	0
125	592	0	10000	5	1	0	5	0
126	593	0	10000	5	1	0	5	0
122	594	0	10000	5	1	0	5	0
117	595	0	10000	5	1	0	5	0
115	596	0	10000	5	1	0	5	0
112	597	0	10000	5	1	0	5	0
109	598	0	10000	5	1	0	5	0
110	599	0	10000	5	1	0	5	0
120	600	0	10000	5	1	0	5	0
132	601	0	10000	5	1	0	5	0
132	602	0	10000	5	1	0	5	0
133	603	0	10000	5	1	0	5	0
130	604	0	10000	5	1	0	5	0
137	605	0	10000	5	1	0	5	0
153	606	0	10000	5	1	0	5	0
159	607	0	10000	5	1	0	5	0
186	608	0	10000	5	1	0	5	0
195	609	0	10000	5	1	0	5	0
191	610	0	10000	5	1	0	5	0
183	611	0	10000	5	1	0	5	0
185	612	0	10000	5	1	0	5	0
181	613	0	10000	5	1	0	5	0
176	614	0	10000	5	1	0	5	0
174	615	0	10000	5	1	0	5	0
170	616	0	10000	5	1	0	5	0
166	617	0	10000	5	1	0	5	0
159	618	0	10000	5	1	0	5	0
153	619	0	10000	5	1	0	5	0
148	620	0	10000	5	1	0	5	0
143	621	0	10000	5	1	0	5	0
139	622	0	10000	5	1	0	5	0
136	623	0	10000	5	1	0	5	0
133	624	0	10000	5	1	0	5	0
131	625	0	10000	5	1	0	5	0
127	626	0	10000	5	1	0	5	0
122	627	0	10000	5	1	0	5	0
119	628	0	10000	5	1	0	5	0
116	629	0	10000	5	1	0	5	0
114	630	0	10000	5	1	0	5	0
108	631	0	10000	5	1	0	5	0
104	632	0	10000	5	1	0	5	0
100	633	0	10000	5	1	0	5	0
96	634	0	10000	5	1	0	5	0
92	635	0	10000	5	1	0	5	0
90	636	0	10000	5	1	0	5	0
87	637	0	10000	5	1	0	5	0
81	638	0	10000	5	1	0	5	0
79	639	0	10000	5	1	0	5	0
76	640	0	10000	5	1	0	5	0
75	641	0	10000	5	1	0	5	0
73	642	0	10000	5	1	0	5	0
70	643	0	10000	5	1	0	5	0
69	644	0	10000	5	1	0	5	0
68	645	0	10000	5	1	0	5	0
67	646	0	10000	5	1	0	5	0
66	647	0	10000	5	1	0	5	0
66	648	0	10000	5	1	0	5	0
66	649	0	10000	5	1	0	5	0
65	650	0	10000	5	1	0	5	0
65	651	0	10000	5	1	0	5	0
67	652	0	10000	5	1	0	5	0
70	653	0	10000	5	1	0	5	0
75	654	0	10000	5	1	0	5	0
79	655	0	10000	5	1	0	5	0
83	656	0	10000	5	1	0	5	0
89	657	0	10000	5	1	0	5	0
94	658	0	10000	5	1	0	5	0
100	659	0	10000	5	1	0	5	0
105	660	0	10000	5	1	0	5	0
112	661	0	10000	5	1	0	5	0
115	662	0	10000	5	1	0	5	0
116	663	0	10000	5	1	0	5	0
116	664	0	10000	5	1	0	5	0
117	665	0	10000	5	1	0	5	0
116	666	0	10000	5	1	0	5	0
114	667	0	10000	5	1	0	5	0
115	668	0	10000	5	1	0	5	0
113	669	0	10000	5	1	0	5	0
111	670	0	10000	5	1	0	5	0
108	671	0	10000	5	1	0	5	0
107	672	0	10000	5	1	0	5	0
106	673	0	10000	5	1	0	5	0
106	674	0	10000	5	1	0	5	0
106	675	0	10000	5	1	0	5	0
105	676	0	10000	5	1	0	5	0
103	677	0	10000	5	1	0	5	0
100	678	0	10000	5	1	0	5	0
97	679	0	10000	5	1	0	5	0
93	680	0	10000	5	1	0	5	0
90	681	0	10000	5	1	0	5	0
86	682	0	10000	5	1	0	5	0
83	683	0	10000	5	1	0	5	0
79	684	0	10000	5	1	0	5	0
76	685	0	10000	5	1	0	5	0
74	686	0	10000	5	1	0	5	0
71	687	0	10000	5	1	0	5	0
69	688	0	10000	5	1	0	5	0
66	689	0	10000	5	1	0	5	0
64	690	0	10000	5	1	0	5	0
60	691	0	10000	5	1	0	5	0
57	692	0	10000	5	1	0	5	0
56	693	0	10000	5	1	0	5	0
55	694	0	10000	5	1	0	5	0
54	695	0	10000	5	1	0	5	0
52	696	0	10000	5	1	0	5	0
53	697	0	10000	5	1	0	5	0
51	698	0	10000	5	1	0	5	0
50	699	0	10000	5	1	0	5	0
48	700	0	10000	5	1	0	5	0
49	701	0	10000	5	1	0	5	0
50	702	0	10000	5	1	0	5	0
49	703	0	10000	5	1	0	5	0
50	704	0	10000	5	1	0	5	0
52	705	0	10000	5	1	0	5	0
52	706	0	10000	5	1	0	5	0
54	707	0	10000	5	1	0	5	0
56	708	0	10000	5	1	0	5	0
58	709	0	10000	5	1	0	5	0
60	710	0	10000	5	1	0	5	0
60	711	0	10000	5	1	0	5	0
61	712	0	10000	5	1	0	5	0
62	713	0	10000	5	1	0	5	0
64	714	0	10000	5	1	0	5	0
63	715	0	10000	5	1	0	5	0
63	716	0	10000	5	1	0	5	0
62	717	0	10000	5	1	0	5	0
60	718	0	10000	5	1	0	5	0
59	719	0	10000	5	1	0	5	0
