value	EMG	Stimulus	EMG_sensitivity	Total_Trial_Nr	practise	acq	probe_nr	Startle_Probe
24	2	0	10000	1	1	0	1	0
25	3	0	10000	1	1	0	1	0
24	4	0	10000	1	1	0	1	0
24	5	0	10000	1	1	0	1	0
23	6	0	10000	1	1	0	1	0
23	7	0	10000	1	1	0	1	0
22	8	0	10000	1	1	0	1	0
22	9	0	10000	1	1	0	1	0
24	10	0	10000	1	1	0	1	0
25	11	0	10000	1	1	0	1	0
25	12	0	10000	1	1	0	1	0
23	13	0	10000	1	1	0	1	0
22	14	0	10000	1	1	0	1	0
22	15	0	10000	1	1	0	1	0
23	16	0	10000	1	1	0	1	0
22	17	0	10000	1	1	0	1	0
23	18	0	10000	1	1	0	1	0
22	19	0	10000	1	1	0	1	0
20	20	0	10000	1	1	0	1	0
20	21	0	10000	1	1	0	1	0
21	22	0	10000	1	1	0	1	0
21	23	0	10000	1	1	0	1	0
21	24	0	10000	1	1	0	1	0
21	25	0	10000	1	1	0	1	0
20	26	0	10000	1	1	0	1	0
21	27	0	10000	1	1	0	1	0
20	28	0	10000	1	1	0	1	0
20	29	0	10000	1	1	0	1	0
20	30	0	10000	1	1	0	1	0
21	31	0	10000	1	1	0	1	0
20	32	0	10000	1	1	0	1	0
17	33	0	10000	1	1	0	1	0
17	34	0	10000	1	1	0	1	0
17	35	0	10000	1	1	0	1	0
17	36	0	10000	1	1	0	1	0
17	37	0	10000	1	1	0	1	0
17	38	0	10000	1	1	0	1	0
18	39	0	10000	1	1	0	1	0
17	40	0	10000	1	1	0	1	0
16	41	0	10000	1	1	0	1	0
18	42	0	10000	1	1	0	1	0
19	43	0	10000	1	1	0	1	0
17	44	0	10000	1	1	0	1	0
18	45	0	10000	1	1	0	1	0
18	46	0	10000	1	1	0	1	0
18	47	0	10000	1	1	0	1	0
19	48	0	10000	1	1	0	1	0
18	49	0	10000	1	1	0	1	0
18	50	0	10000	1	1	0	1	0
19	51	0	10000	1	1	0	1	0
18	52	0	10000	1	1	0	1	0
18	53	0	10000	1	1	0	1	0
20	54	0	10000	1	1	0	1	0
19	55	0	10000	1	1	0	1	0
18	56	0	10000	1	1	0	1	0
18	57	0	10000	1	1	0	1	0
18	58	0	10000	1	1	0	1	0
19	59	0	10000	1	1	0	1	0
18	60	0	10000	1	1	0	1	0
17	61	0	10000	1	1	0	1	0
17	62	0	10000	1	1	0	1	0
19	63	0	10000	1	1	0	1	0
18	64	0	10000	1	1	0	1	0
18	65	0	10000	1	1	0	1	0
18	66	0	10000	1	1	0	1	0
18	67	0	10000	1	1	0	1	0
18	68	0	10000	1	1	0	1	0
18	69	0	10000	1	1	0	1	0
17	70	0	10000	1	1	0	1	0
19	71	0	10000	1	1	0	1	0
20	72	0	10000	1	1	0	1	0
19	73	0	10000	1	1	0	1	0
19	74	0	10000	1	1	0	1	0
20	75	0	10000	1	1	0	1	0
23	76	0	10000	1	1	0	1	0
24	77	0	10000	1	1	0	1	0
24	78	0	10000	1	1	0	1	0
24	79	0	10000	1	1	0	1	0
24	80	0	10000	1	1	0	1	0
24	81	0	10000	1	1	0	1	0
25	82	0	10000	1	1	0	1	0
25	83	0	10000	1	1	0	1	0
25	84	0	10000	1	1	0	1	0
24	85	0	10000	1	1	0	1	0
23	86	0	10000	1	1	0	1	0
23	87	0	10000	1	1	0	1	0
23	88	0	10000	1	1	0	1	0
23	89	0	10000	1	1	0	1	0
22	90	0	10000	1	1	0	1	0
23	91	0	10000	1	1	0	1	0
22	92	0	10000	1	1	0	1	0
20	93	0	10000	1	1	0	1	0
20	94	0	10000	1	1	0	1	0
21	95	0	10000	1	1	0	1	0
21	96	0	10000	1	1	0	1	0
20	97	0	10000	1	1	0	1	0
20	98	0	10000	1	1	0	1	0
20	99	0	10000	1	1	0	1	0
20	100	0	10000	1	1	0	1	0
20	101	0	10000	1	1	0	1	0
19	102	0	10000	1	1	0	1	0
20	103	0	10000	1	1	0	1	0
21	104	0	10000	1	1	0	1	0
21	105	0	10000	1	1	0	1	0
21	106	0	10000	1	1	0	1	0
21	107	0	10000	1	1	0	1	0
20	108	0	10000	1	1	0	1	0
20	109	0	10000	1	1	0	1	0
20	110	0	10000	1	1	0	1	0
20	111	0	10000	1	1	0	1	0
19	112	0	10000	1	1	0	1	0
18	113	0	10000	1	1	0	1	0
19	114	0	10000	1	1	0	1	0
21	115	0	10000	1	1	0	1	0
23	116	0	10000	1	1	0	1	0
23	117	0	10000	1	1	0	1	0
23	118	0	10000	1	1	0	1	0
24	119	0	10000	1	1	0	1	0
22	120	0	10000	1	1	0	1	0
22	121	0	10000	1	1	0	1	0
23	122	0	10000	1	1	0	1	0
23	123	0	10000	1	1	0	1	0
22	124	0	10000	1	1	0	1	0
23	125	0	10000	1	1	0	1	0
24	126	0	10000	1	1	0	1	0
26	127	0	10000	1	1	0	1	0
27	128	0	10000	1	1	0	1	0
26	129	0	10000	1	1	0	1	0
26	130	0	10000	1	1	0	1	0
27	131	0	10000	1	1	0	1	0
27	132	0	10000	1	1	0	1	0
25	133	0	10000	1	1	0	1	0
25	134	0	10000	1	1	0	1	0
25	135	0	10000	1	1	0	1	0
26	136	0	10000	1	1	0	1	0
27	137	0	10000	1	1	0	1	0
26	138	0	10000	1	1	0	1	0
26	139	0	10000	1	1	0	1	0
25	140	0	10000	1	1	0	1	0
25	141	0	10000	1	1	0	1	0
26	142	0	10000	1	1	0	1	0
27	143	0	10000	1	1	0	1	0
26	144	0	10000	1	1	0	1	0
27	145	0	10000	1	1	0	1	0
26	146	0	10000	1	1	0	1	0
26	147	0	10000	1	1	0	1	0
27	148	0	10000	1	1	0	1	0
25	149	0	10000	1	1	0	1	0
25	150	0	10000	1	1	0	1	0
25	151	0	10000	1	1	0	1	0
24	152	0	10000	1	1	0	1	0
21	153	0	10000	1	1	0	1	0
22	154	0	10000	1	1	0	1	0
22	155	0	10000	1	1	0	1	0
23	156	0	10000	1	1	0	1	0
24	157	0	10000	1	1	0	1	0
23	158	0	10000	1	1	0	1	0
23	159	0	10000	1	1	0	1	0
23	160	0	10000	1	1	0	1	0
22	161	0	10000	1	1	0	1	0
24	162	0	10000	1	1	0	1	0
25	163	0	10000	1	1	0	1	0
24	164	0	10000	1	1	0	1	0
24	165	0	10000	1	1	0	1	0
26	166	0	10000	1	1	0	1	0
27	167	0	10000	1	1	0	1	0
26	168	0	10000	1	1	0	1	0
25	169	0	10000	1	1	0	1	0
27	170	0	10000	1	1	0	1	0
27	171	0	10000	1	1	0	1	0
27	172	0	10000	1	1	0	1	0
26	173	0	10000	1	1	0	1	0
25	174	0	10000	1	1	0	1	0
24	175	0	10000	1	1	0	1	0
25	176	0	10000	1	1	0	1	0
24	177	0	10000	1	1	0	1	0
23	178	0	10000	1	1	0	1	0
22	179	0	10000	1	1	0	1	0
22	180	0	10000	1	1	0	1	0
21	181	0	10000	1	1	0	1	0
22	182	0	10000	1	1	0	1	0
23	183	0	10000	1	1	0	1	0
22	184	0	10000	1	1	0	1	0
21	185	0	10000	1	1	0	1	0
20	186	0	10000	1	1	0	1	0
19	187	0	10000	1	1	0	1	0
19	188	0	10000	1	1	0	1	0
19	189	0	10000	1	1	0	1	0
19	190	0	10000	1	1	0	1	0
19	191	0	10000	1	1	0	1	0
18	192	0	10000	1	1	0	1	0
17	193	0	10000	1	1	0	1	0
19	194	0	10000	1	1	0	1	0
20	195	0	10000	1	1	0	1	0
19	196	0	10000	1	1	0	1	0
19	197	0	10000	1	1	0	1	0
21	198	0	10000	1	1	0	1	0
22	199	0	10000	1	1	0	1	0
23	200	0	10000	1	1	0	1	0
23	201	0	10000	1	1	0	1	0
22	202	0	10000	1	1	0	1	0
24	203	0	10000	1	1	0	1	0
23	204	0	10000	1	1	0	1	0
22	205	0	10000	1	1	0	1	0
22	206	0	10000	1	1	0	1	0
22	207	0	10000	1	1	0	1	0
21	208	0	10000	1	1	0	1	0
20	209	0	10000	1	1	0	1	0
20	210	0	10000	1	1	0	1	0
21	211	0	10000	1	1	0	1	0
20	212	0	10000	1	1	0	1	0
18	213	0	10000	1	1	0	1	0
18	214	0	10000	1	1	0	1	0
18	215	0	10000	1	1	0	1	0
18	216	0	10000	1	1	0	1	0
18	217	0	10000	1	1	0	1	0
17	218	0	10000	1	1	0	1	0
17	219	0	10000	1	1	0	1	0
17	220	0	10000	1	1	0	1	0
18	221	0	10000	1	1	0	1	0
20	222	0	10000	1	1	0	1	0
20	223	0	10000	1	1	0	1	0
20	224	0	10000	1	1	0	1	0
19	225	0	10000	1	1	0	1	0
17	226	0	10000	1	1	0	1	0
17	227	0	10000	1	1	0	1	0
17	228	0	10000	1	1	0	1	0
16	229	0	10000	1	1	0	1	0
16	230	0	10000	1	1	0	1	0
17	231	0	10000	1	1	0	1	0
17	232	0	10000	1	1	0	1	0
15	233	0	10000	1	1	0	1	0
15	234	0	10000	1	1	0	1	0
15	235	0	10000	1	1	0	1	0
15	236	0	10000	1	1	0	1	0
15	237	0	10000	1	1	0	1	0
14	238	0	10000	1	1	0	1	0
15	239	0	10000	1	1	0	1	0
14	240	0	10000	1	1	0	1	0
15	241	0	10000	1	1	0	1	0
15	242	0	10000	1	1	0	1	0
16	243	0	10000	1	1	0	1	0
17	244	0	10000	1	1	0	1	0
17	245	0	10000	1	1	0	1	0
16	246	0	10000	1	1	0	1	0
16	247	0	10000	1	1	0	1	0
16	248	0	10000	1	1	0	1	0
15	249	0	10000	1	1	0	1	0
15	250	0	10000	1	1	0	1	0
17	251	0	10000	1	1	0	1	0
16	252	0	10000	1	1	0	1	0
15	253	0	10000	1	1	0	1	0
17	254	0	10000	1	1	0	1	0
16	255	0	10000	1	1	0	1	0
16	256	0	10000	1	1	0	1	0
16	257	0	10000	1	1	0	1	0
16	258	0	10000	1	1	0	1	0
16	259	0	10000	1	1	0	1	0
15	260	0	10000	1	1	0	1	0
15	261	0	10000	1	1	0	1	0
15	262	0	10000	1	1	0	1	0
17	263	0	10000	1	1	0	1	0
17	264	0	10000	1	1	0	1	0
16	265	0	10000	1	1	0	1	0
16	266	0	10000	1	1	0	1	0
16	267	0	10000	1	1	0	1	0
15	268	0	10000	1	1	0	1	0
15	269	0	10000	1	1	0	1	0
15	270	0	10000	1	1	0	1	0
15	271	0	10000	1	1	0	1	0
14	272	0	10000	1	1	0	1	0
13	273	0	10000	1	1	0	1	0
13	274	0	10000	1	1	0	1	0
14	275	0	10000	1	1	0	1	0
14	276	0	10000	1	1	0	1	0
13	277	0	10000	1	1	0	1	0
14	278	0	10000	1	1	0	1	0
15	279	0	10000	1	1	0	1	0
14	280	0	10000	1	1	0	1	0
14	281	0	10000	1	1	0	1	0
14	282	0	10000	1	1	0	1	0
17	283	0	10000	1	1	0	1	0
17	284	0	10000	1	1	0	1	0
18	285	0	10000	1	1	0	1	0
17	286	0	10000	1	1	0	1	0
18	287	0	10000	1	1	0	1	0
17	288	0	10000	1	1	0	1	0
17	289	0	10000	1	1	0	1	0
17	290	0	10000	1	1	0	1	0
19	291	0	10000	1	1	0	1	0
18	292	0	10000	1	1	0	1	0
16	293	0	10000	1	1	0	1	0
16	294	0	10000	1	1	0	1	0
17	295	0	10000	1	1	0	1	0
16	296	0	10000	1	1	0	1	0
16	297	0	10000	1	1	0	1	0
18	298	0	10000	1	1	0	1	0
17	299	0	10000	1	1	0	1	0
17	300	0	10000	1	1	0	1	0
16	301	0	10000	1	1	0	1	0
16	302	0	10000	1	1	0	1	0
18	303	0	10000	1	1	0	1	0
18	304	0	10000	1	1	0	1	0
17	305	0	10000	1	1	0	1	0
18	306	0	10000	1	1	0	1	0
18	307	0	10000	1	1	0	1	0
17	308	0	10000	1	1	0	1	0
18	309	0	10000	1	1	0	1	0
19	310	0	10000	1	1	0	1	0
19	311	0	10000	1	1	0	1	0
18	312	0	10000	1	1	0	1	0
16	313	0	10000	1	1	0	1	0
18	314	0	10000	1	1	0	1	0
20	315	0	10000	1	1	0	1	0
20	316	0	10000	1	1	0	1	0
20	317	0	10000	1	1	0	1	0
19	318	0	10000	1	1	0	1	0
19	319	0	10000	1	1	0	1	0
19	320	0	10000	1	1	0	1	0
17	321	0	10000	1	1	0	1	0
18	322	0	10000	1	1	0	1	0
19	323	0	10000	1	1	0	1	0
18	324	0	10000	1	1	0	1	0
17	325	0	10000	1	1	0	1	0
16	326	0	10000	1	1	0	1	0
16	327	0	10000	1	1	0	1	0
16	328	0	10000	1	1	0	1	0
15	329	0	10000	1	1	0	1	0
15	330	0	10000	1	1	0	1	0
15	331	0	10000	1	1	0	1	0
15	332	0	10000	1	1	0	1	0
13	333	0	10000	1	1	0	1	0
14	334	0	10000	1	1	0	1	0
14	335	0	10000	1	1	0	1	0
14	336	0	10000	1	1	0	1	0
14	337	0	10000	1	1	0	1	0
14	338	0	10000	1	1	0	1	0
13	339	0	10000	1	1	0	1	0
13	340	0	10000	1	1	0	1	0
14	341	0	10000	1	1	0	1	0
15	342	0	10000	1	1	0	1	0
16	343	0	10000	1	1	0	1	0
15	344	0	10000	1	1	0	1	0
16	345	0	10000	1	1	0	1	0
15	346	0	10000	1	1	0	1	0
15	347	0	10000	1	1	0	1	0
16	348	0	10000	1	1	0	1	0
15	349	0	10000	1	1	0	1	0
15	350	0	10000	1	1	0	1	0
16	351	0	10000	1	1	0	1	0
15	352	0	10000	1	1	0	1	0
14	353	0	10000	1	1	0	1	0
15	354	0	10000	1	1	0	1	0
14	355	0	10000	1	1	0	1	0
15	356	0	10000	1	1	0	1	0
16	357	0	10000	1	1	0	1	0
15	358	0	10000	1	1	0	1	0
14	359	0	10000	1	1	0	1	0
14	360	0	10000	1	1	0	1	0
13	361	0	10000	1	1	0	1	0
13	362	0	10000	1	1	0	1	0
15	363	0	10000	1	1	0	1	0
14	364	0	10000	1	1	0	1	0
14	365	0	10000	1	1	0	1	0
13	366	0	10000	1	1	0	1	0
14	367	0	10000	1	1	0	1	0
16	368	0	10000	1	1	0	1	0
16	369	0	10000	1	1	0	1	0
16	370	0	10000	1	1	0	1	0
17	371	0	10000	1	1	0	1	0
16	372	0	10000	1	1	0	1	0
15	373	0	10000	1	1	0	1	0
15	374	0	10000	1	1	0	1	0
14	375	0	10000	1	1	0	1	0
14	376	0	10000	1	1	0	1	0
14	377	0	10000	1	1	0	1	0
15	378	0	10000	1	1	0	1	0
16	379	0	10000	1	1	0	1	0
16	380	0	10000	1	1	0	1	0
15	381	0	10000	1	1	0	1	0
16	382	0	10000	1	1	0	1	0
17	383	0	10000	1	1	0	1	0
18	384	0	10000	1	1	0	1	0
19	385	0	10000	1	1	0	1	0
19	386	0	10000	1	1	0	1	0
18	387	0	10000	1	1	0	1	0
18	388	0	10000	1	1	0	1	0
19	389	0	10000	1	1	0	1	0
19	390	0	10000	1	1	0	1	0
21	391	0	10000	1	1	0	1	0
21	392	0	10000	1	1	0	1	0
19	393	0	10000	1	1	0	1	0
20	394	0	10000	1	1	0	1	0
21	395	0	10000	1	1	0	1	0
20	396	0	10000	1	1	0	1	0
20	397	0	10000	1	1	0	1	0
21	398	0	10000	1	1	0	1	0
20	399	0	10000	1	1	0	1	0
19	400	0	10000	1	1	0	1	0
19	401	0	10000	1	1	0	1	0
19	402	0	10000	1	1	0	1	0
20	403	0	10000	1	1	0	1	0
21	404	0	10000	1	1	0	1	0
20	405	0	10000	1	1	0	1	0
20	406	0	10000	1	1	0	1	0
19	407	0	10000	1	1	0	1	0
19	408	0	10000	1	1	0	1	0
19	409	0	10000	1	1	0	1	0
20	410	0	10000	1	1	0	1	0
21	411	0	10000	1	1	0	1	0
21	412	0	10000	1	1	0	1	0
19	413	0	10000	1	1	0	1	0
20	414	0	10000	1	1	0	1	0
19	415	0	10000	1	1	0	1	0
19	416	0	10000	1	1	0	1	0
19	417	0	10000	1	1	0	1	0
19	418	0	10000	1	1	0	1	0
19	419	0	10000	1	1	0	1	0
18	420	0	10000	1	1	0	1	0
18	421	0	10000	1	1	0	1	0
20	422	0	10000	1	1	0	1	0
20	423	0	10000	1	1	0	1	0
20	424	0	10000	1	1	0	1	0
20	425	0	10000	1	1	0	1	0
19	426	0	10000	1	1	0	1	0
19	427	0	10000	1	1	0	1	0
18	428	0	10000	1	1	0	1	0
18	429	0	10000	1	1	0	1	0
18	430	0	10000	1	1	0	1	0
18	431	0	10000	1	1	0	1	0
16	432	0	10000	1	1	0	1	0
15	433	0	10000	1	1	0	1	0
16	434	0	10000	1	1	0	1	0
15	435	0	10000	1	1	0	1	0
16	436	0	10000	1	1	0	1	0
17	437	0	10000	1	1	0	1	0
18	438	0	10000	1	1	0	1	0
18	439	0	10000	1	1	0	1	0
19	440	0	10000	1	1	0	1	0
19	441	0	10000	1	1	0	1	0
20	442	0	10000	1	1	0	1	0
21	443	0	10000	1	1	0	1	0
20	444	0	10000	1	1	0	1	0
20	445	0	10000	1	1	0	1	0
19	446	0	10000	1	1	0	1	0
19	447	0	10000	1	1	0	1	0
20	448	0	10000	1	1	0	1	0
20	449	0	10000	1	1	0	1	0
20	450	0	10000	1	1	0	1	0
20	451	0	10000	1	1	0	1	0
19	452	0	10000	1	1	0	1	0
17	453	0	10000	1	1	0	1	0
19	454	0	10000	1	1	0	1	0
18	455	0	10000	1	1	0	1	0
18	456	0	10000	1	1	0	1	0
17	457	0	10000	1	1	0	1	0
17	458	0	10000	1	1	0	1	0
16	459	0	10000	1	1	0	1	0
16	460	0	10000	1	1	0	1	0
15	461	0	10000	1	1	0	1	0
15	462	0	10000	1	1	0	1	0
16	463	0	10000	1	1	0	1	0
16	464	0	10000	1	1	0	1	0
15	465	0	10000	1	1	0	1	0
16	466	0	10000	1	1	0	1	0
17	467	0	10000	1	1	0	1	0
20	468	0	10000	1	1	0	1	0
22	469	0	10000	1	1	0	1	0
24	470	0	10000	1	1	0	1	0
23	471	0	10000	1	1	0	1	0
22	472	0	10000	1	1	0	1	0
20	473	0	10000	1	1	0	1	0
20	474	0	10000	1	1	0	1	0
20	475	0	10000	1	1	0	1	0
21	476	0	10000	1	1	0	1	0
22	477	0	10000	1	1	0	1	0
26	478	0	10000	1	1	0	1	0
32	479	0	10000	1	1	0	1	0
36	480	0	10000	1	1	0	1	0
41	481	0	10000	1	1	0	1	0
44	482	0	10000	1	1	0	1	0
47	483	0	10000	1	1	0	1	0
49	484	0	10000	1	1	0	1	0
48	485	0	10000	1	1	0	1	0
47	486	0	10000	1	1	0	1	0
48	487	0	10000	1	1	0	1	0
48	488	0	10000	1	1	0	1	0
46	489	0	10000	1	1	0	1	0
46	490	0	10000	1	1	0	1	0
46	491	0	10000	1	1	0	1	0
47	492	0	10000	1	1	0	1	0
46	493	0	10000	1	1	0	1	0
47	494	0	10000	1	1	0	1	0
51	495	0	10000	1	1	0	1	0
51	496	0	10000	1	1	0	1	0
52	497	0	10000	1	1	0	1	0
56	498	0	10000	1	1	0	1	0
59	499	0	10000	1	1	0	1	0
63	500	0	10000	1	1	0	1	0
68	501	0	10000	1	1	0	1	0
73	520	0	10000	1	1	0	1	1
80	521	0	10000	1	1	0	1	1
85	522	0	10000	1	1	0	1	1
89	523	0	10000	1	1	0	1	1
92	524	0	10000	1	1	0	1	1
95	525	0	10000	1	1	0	1	1
96	526	0	10000	1	1	0	1	1
98	527	0	10000	1	1	0	1	1
100	528	0	10000	1	1	0	1	1
100	529	0	10000	1	1	0	1	1
101	530	0	10000	1	1	0	1	1
99	531	0	10000	1	1	0	1	1
100	532	0	10000	1	1	0	1	1
99	533	0	10000	1	1	0	1	1
97	534	0	10000	1	1	0	1	1
94	535	0	10000	1	1	0	1	1
92	536	0	10000	1	1	0	1	1
91	537	0	10000	1	1	0	1	1
89	538	0	10000	1	1	0	1	1
86	539	0	10000	1	1	0	1	1
84	523	0	10000	1	1	0	1	1
82	524	0	10000	1	1	0	1	1
78	524	0	10000	1	1	0	1	1
77	525	0	10000	1	1	0	1	1
76	526	0	10000	1	1	0	1	1
75	527	0	10000	1	1	0	1	1
74	528	0	10000	1	1	0	1	1
74	529	0	10000	1	1	0	1	1
77	530	0	10000	1	1	0	1	1
79	531	0	10000	1	1	0	1	1
80	532	0	10000	1	1	0	1	1
80	533	0	10000	1	1	0	1	1
81	534	0	10000	1	1	0	1	1
85	535	0	10000	1	1	0	1	1
89	536	0	10000	1	1	0	1	1
92	537	0	10000	1	1	0	1	1
94	538	0	10000	1	1	0	1	1
95	539	0	10000	1	1	0	1	1
96	540	0	10000	1	1	0	1	1
95	541	0	10000	1	1	0	1	1
95	542	0	10000	1	1	0	1	1
96	543	0	10000	1	1	0	1	1
95	544	0	10000	1	1	0	1	1
95	545	0	10000	1	1	0	1	1
96	546	0	10000	1	1	0	1	1
96	547	0	10000	1	1	0	1	1
98	548	0	10000	1	1	0	1	1
98	549	0	10000	1	1	0	1	1
100	550	0	10000	1	1	0	1	1
103	551	0	10000	1	1	0	1	1
103	552	0	10000	1	1	0	1	0
102	553	0	10000	1	1	0	1	0
104	554	0	10000	1	1	0	1	0
105	555	0	10000	1	1	0	1	0
105	556	0	10000	1	1	0	1	0
105	557	0	10000	1	1	0	1	0
105	558	0	10000	1	1	0	1	0
104	559	0	10000	1	1	0	1	0
104	560	0	10000	1	1	0	1	0
103	561	0	10000	1	1	0	1	0
104	562	0	10000	1	1	0	1	0
106	563	0	10000	1	1	0	1	0
106	564	0	10000	1	1	0	1	0
105	565	0	10000	1	1	0	1	0
104	566	0	10000	1	1	0	1	0
102	567	0	10000	1	1	0	1	0
100	568	0	10000	1	1	0	1	0
98	569	0	10000	1	1	0	1	0
96	570	0	10000	1	1	0	1	0
94	571	0	10000	1	1	0	1	0
91	572	0	10000	1	1	0	1	0
88	573	0	10000	1	1	0	1	0
87	574	0	10000	1	1	0	1	0
86	575	0	10000	1	1	0	1	0
86	576	0	10000	1	1	0	1	0
84	577	0	10000	1	1	0	1	0
83	578	0	10000	1	1	0	1	0
82	579	0	10000	1	1	0	1	0
81	580	0	10000	1	1	0	1	0
79	581	0	10000	1	1	0	1	0
78	582	0	10000	1	1	0	1	0
78	583	0	10000	1	1	0	1	0
76	584	0	10000	1	1	0	1	0
74	585	0	10000	1	1	0	1	0
72	586	0	10000	1	1	0	1	0
70	587	0	10000	1	1	0	1	0
68	588	0	10000	1	1	0	1	0
67	589	0	10000	1	1	0	1	0
63	590	0	10000	1	1	0	1	0
62	591	0	10000	1	1	0	1	0
59	592	0	10000	1	1	0	1	0
55	593	0	10000	1	1	0	1	0
53	594	0	10000	1	1	0	1	0
52	595	0	10000	1	1	0	1	0
50	596	0	10000	1	1	0	1	0
48	597	0	10000	1	1	0	1	0
46	598	0	10000	1	1	0	1	0
44	599	0	10000	1	1	0	1	0
42	600	0	10000	1	1	0	1	0
40	601	0	10000	1	1	0	1	0
39	602	0	10000	1	1	0	1	0
39	603	0	10000	1	1	0	1	0
37	604	0	10000	1	1	0	1	0
35	605	0	10000	1	1	0	1	0
34	606	0	10000	1	1	0	1	0
33	607	0	10000	1	1	0	1	0
31	608	0	10000	1	1	0	1	0
32	609	0	10000	1	1	0	1	0
33	610	0	10000	1	1	0	1	0
38	611	0	10000	1	1	0	1	0
42	612	0	10000	1	1	0	1	0
40	613	0	10000	1	1	0	1	0
41	614	0	10000	1	1	0	1	0
40	615	0	10000	1	1	0	1	0
44	616	0	10000	1	1	0	1	0
53	617	0	10000	1	1	0	1	0
54	618	0	10000	1	1	0	1	0
59	619	0	10000	1	1	0	1	0
59	620	0	10000	1	1	0	1	0
60	621	0	10000	1	1	0	1	0
61	622	0	10000	1	1	0	1	0
75	623	0	10000	1	1	0	1	0
107	624	0	10000	1	1	0	1	0
112	625	0	10000	1	1	0	1	0
133	626	0	10000	1	1	0	1	0
145	627	0	10000	1	1	0	1	0
141	628	0	10000	1	1	0	1	0
147	629	0	10000	1	1	0	1	0
177	630	0	10000	1	1	0	1	0
203	631	0	10000	1	1	0	1	0
208	632	0	10000	1	1	0	1	0
222	633	0	10000	1	1	0	1	0
242	634	0	10000	1	1	0	1	0
258	635	0	10000	1	1	0	1	0
261	636	0	10000	1	1	0	1	0
277	637	0	10000	1	1	0	1	0
269	638	0	10000	1	1	0	1	0
259	639	0	10000	1	1	0	1	0
254	640	0	10000	1	1	0	1	0
246	641	0	10000	1	1	0	1	0
240	642	0	10000	1	1	0	1	0
244	643	0	10000	1	1	0	1	0
248	644	0	10000	1	1	0	1	0
244	645	0	10000	1	1	0	1	0
245	646	0	10000	1	1	0	1	0
244	647	0	10000	1	1	0	1	0
239	648	0	10000	1	1	0	1	0
271	649	0	10000	1	1	0	1	0
305	650	0	10000	1	1	0	1	0
387	651	0	10000	1	1	0	1	0
423	652	0	10000	1	1	0	1	0
410	653	0	10000	1	1	0	1	0
405	654	0	10000	1	1	0	1	0
392	655	0	10000	1	1	0	1	0
376	656	0	10000	1	1	0	1	0
359	657	0	10000	1	1	0	1	0
345	658	0	10000	1	1	0	1	0
333	659	0	10000	1	1	0	1	0
323	660	0	10000	1	1	0	1	0
313	661	0	10000	1	1	0	1	0
306	662	0	10000	1	1	0	1	0
298	663	0	10000	1	1	0	1	0
288	664	0	10000	1	1	0	1	0
277	665	0	10000	1	1	0	1	0
267	666	0	10000	1	1	0	1	0
256	667	0	10000	1	1	0	1	0
245	668	0	10000	1	1	0	1	0
236	669	0	10000	1	1	0	1	0
225	670	0	10000	1	1	0	1	0
215	671	0	10000	1	1	0	1	0
206	672	0	10000	1	1	0	1	0
197	673	0	10000	1	1	0	1	0
191	674	0	10000	1	1	0	1	0
185	675	0	10000	1	1	0	1	0
181	676	0	10000	1	1	0	1	0
179	677	0	10000	1	1	0	1	0
176	678	0	10000	1	1	0	1	0
174	679	0	10000	1	1	0	1	0
173	680	0	10000	1	1	0	1	0
173	681	0	10000	1	1	0	1	0
176	682	0	10000	1	1	0	1	0
180	683	0	10000	1	1	0	1	0
182	684	0	10000	1	1	0	1	0
182	685	0	10000	1	1	0	1	0
181	686	0	10000	1	1	0	1	0
180	687	0	10000	1	1	0	1	0
181	688	0	10000	1	1	0	1	0
183	689	0	10000	1	1	0	1	0
186	690	0	10000	1	1	0	1	0
191	691	0	10000	1	1	0	1	0
195	692	0	10000	1	1	0	1	0
197	693	0	10000	1	1	0	1	0
200	694	0	10000	1	1	0	1	0
204	695	0	10000	1	1	0	1	0
206	696	0	10000	1	1	0	1	0
207	697	0	10000	1	1	0	1	0
208	698	0	10000	1	1	0	1	0
207	699	0	10000	1	1	0	1	0
206	700	0	10000	1	1	0	1	0
205	701	0	10000	1	1	0	1	0
205	702	0	10000	1	1	0	1	0
207	703	0	10000	1	1	0	1	0
206	704	0	10000	1	1	0	1	0
204	705	0	10000	1	1	0	1	0
201	706	0	10000	1	1	0	1	0
198	707	0	10000	1	1	0	1	0
194	708	0	10000	1	1	0	1	0
192	709	0	10000	1	1	0	1	0
189	710	0	10000	1	1	0	1	0
187	711	0	10000	1	1	0	1	0
186	712	0	10000	1	1	0	1	0
182	713	0	10000	1	1	0	1	0
176	714	0	10000	1	1	0	1	0
169	715	0	10000	1	1	0	1	0
162	716	0	10000	1	1	0	1	0
155	717	0	10000	1	1	0	1	0
150	718	0	10000	1	1	0	1	0
144	719	0	10000	1	1	0	1	0
138	720	0	10000	1	1	0	1	0
132	721	0	10000	1	1	0	1	0
127	722	0	10000	1	1	0	1	0
122	723	0	10000	1	1	0	1	0
116	724	0	10000	1	1	0	1	0
113	725	0	10000	1	1	0	1	0
110	726	0	10000	1	1	0	1	0
106	727	0	10000	1	1	0	1	0
104	728	0	10000	1	1	0	1	0
101	729	0	10000	1	1	0	1	0
99	730	0	10000	1	1	0	1	0
97	731	0	10000	1	1	0	1	0
95	732	0	10000	1	1	0	1	0
92	733	0	10000	1	1	0	1	0
89	734	0	10000	1	1	0	1	0
87	735	0	10000	1	1	0	1	0
86	736	0	10000	1	1	0	1	0
85	737	0	10000	1	1	0	1	0
85	738	0	10000	1	1	0	1	0
86	739	0	10000	1	1	0	1	0
86	740	0	10000	1	1	0	1	0
89	741	0	10000	1	1	0	1	0
93	742	0	10000	1	1	0	1	0
95	743	0	10000	1	1	0	1	0
96	744	0	10000	1	1	0	1	0
97	745	0	10000	1	1	0	1	0
96	746	0	10000	1	1	0	1	0
94	747	0	10000	1	1	0	1	0
92	748	0	10000	1	1	0	1	0
91	749	0	10000	1	1	0	1	0
89	750	0	10000	1	1	0	1	0
90	751	0	10000	1	1	0	1	0
89	752	0	10000	1	1	0	1	0
89	753	0	10000	1	1	0	1	0
90	754	0	10000	1	1	0	1	0
90	755	0	10000	1	1	0	1	0
88	756	0	10000	1	1	0	1	0
89	757	0	10000	1	1	0	1	0
92	758	0	10000	1	1	0	1	0
95	759	0	10000	1	1	0	1	0
97	760	0	10000	1	1	0	1	0
106	761	0	10000	1	1	0	1	0
111	762	0	10000	1	1	0	1	0
110	763	0	10000	1	1	0	1	0
112	764	0	10000	1	1	0	1	0
113	765	0	10000	1	1	0	1	0
109	766	0	10000	1	1	0	1	0
108	767	0	10000	1	1	0	1	0
110	768	0	10000	1	1	0	1	0
116	769	0	10000	1	1	0	1	0
124	770	0	10000	1	1	0	1	0
121	771	0	10000	1	1	0	1	0
119	772	0	10000	1	1	0	1	0
117	773	0	10000	1	1	0	1	0
124	774	0	10000	1	1	0	1	0
129	775	0	10000	1	1	0	1	0
127	776	0	10000	1	1	0	1	0
128	777	0	10000	1	1	0	1	0
128	778	0	10000	1	1	0	1	0
126	779	0	10000	1	1	0	1	0
121	780	0	10000	1	1	0	1	0
118	781	0	10000	1	1	0	1	0
119	782	0	10000	1	1	0	1	0
120	783	0	10000	1	1	0	1	0
119	784	0	10000	1	1	0	1	0
123	785	0	10000	1	1	0	1	0
125	786	0	10000	1	1	0	1	0
123	787	0	10000	1	1	0	1	0
122	788	0	10000	1	1	0	1	0
122	789	0	10000	1	1	0	1	0
117	790	0	10000	1	1	0	1	0
118	791	0	10000	1	1	0	1	0
116	792	0	10000	1	1	0	1	0
114	793	0	10000	1	1	0	1	0
116	794	0	10000	1	1	0	1	0
113	795	0	10000	1	1	0	1	0
110	796	0	10000	1	1	0	1	0
106	797	0	10000	1	1	0	1	0
103	798	0	10000	1	1	0	1	0
99	799	0	10000	1	1	0	1	0
102	800	0	10000	1	1	0	1	0
100	801	0	10000	1	1	0	1	0
103	802	0	10000	1	1	0	1	0
104	803	0	10000	1	1	0	1	0
100	804	0	10000	1	1	0	1	0
96	805	0	10000	1	1	0	1	0
94	806	0	10000	1	1	0	1	0
95	807	0	10000	1	1	0	1	0
91	808	0	10000	1	1	0	1	0
89	809	0	10000	1	1	0	1	0
91	810	0	10000	1	1	0	1	0
94	811	0	10000	1	1	0	1	0
102	812	0	10000	1	1	0	1	0
102	813	0	10000	1	1	0	1	0
102	814	0	10000	1	1	0	1	0
105	815	0	10000	1	1	0	1	0
106	816	0	10000	1	1	0	1	0
102	817	0	10000	1	1	0	1	0
106	818	0	10000	1	1	0	1	0
114	819	0	10000	1	1	0	1	0
112	820	0	10000	1	1	0	1	0
108	821	0	10000	1	1	0	1	0
105	822	0	10000	1	1	0	1	0
103	823	0	10000	1	1	0	1	0
100	824	0	10000	1	1	0	1	0
98	825	0	10000	1	1	0	1	0
95	826	0	10000	1	1	0	1	0
93	827	0	10000	1	1	0	1	0
91	828	0	10000	1	1	0	1	0
89	829	0	10000	1	1	0	1	0
90	830	0	10000	1	1	0	1	0
91	831	0	10000	1	1	0	1	0
87	832	0	10000	1	1	0	1	0
84	833	0	10000	1	1	0	1	0
80	834	0	10000	1	1	0	1	0
83	835	0	10000	1	1	0	1	0
97	836	0	10000	1	1	0	1	0
101	837	0	10000	1	1	0	1	0
97	838	0	10000	1	1	0	1	0
94	839	0	10000	1	1	0	1	0
94	840	0	10000	1	1	0	1	0
92	841	0	10000	1	1	0	1	0
95	842	0	10000	1	1	0	1	0
95	843	0	10000	1	1	0	1	0
99	844	0	10000	1	1	0	1	0
104	845	0	10000	1	1	0	1	0
106	846	0	10000	1	1	0	1	0
108	847	0	10000	1	1	0	1	0
107	848	0	10000	1	1	0	1	0
104	849	0	10000	1	1	0	1	0
101	850	0	10000	1	1	0	1	0
99	851	0	10000	1	1	0	1	0
99	852	0	10000	1	1	0	1	0
99	853	0	10000	1	1	0	1	0
100	854	0	10000	1	1	0	1	0
105	855	0	10000	1	1	0	1	0
110	856	0	10000	1	1	0	1	0
111	857	0	10000	1	1	0	1	0
112	858	0	10000	1	1	0	1	0
109	859	0	10000	1	1	0	1	0
104	860	0	10000	1	1	0	1	0
104	861	0	10000	1	1	0	1	0
103	862	0	10000	1	1	0	1	0
102	863	0	10000	1	1	0	1	0
98	864	0	10000	1	1	0	1	0
100	865	0	10000	1	1	0	1	0
108	866	0	10000	1	1	0	1	0
116	867	0	10000	1	1	0	1	0
125	868	0	10000	1	1	0	1	0
134	869	0	10000	1	1	0	1	0
137	870	0	10000	1	1	0	1	0
136	871	0	10000	1	1	0	1	0
131	872	0	10000	1	1	0	1	0
126	873	0	10000	1	1	0	1	0
125	874	0	10000	1	1	0	1	0
126	875	0	10000	1	1	0	1	0
122	876	0	10000	1	1	0	1	0
121	877	0	10000	1	1	0	1	0
123	878	0	10000	1	1	0	1	0
125	879	0	10000	1	1	0	1	0
124	880	0	10000	1	1	0	1	0
120	881	0	10000	1	1	0	1	0
116	882	0	10000	1	1	0	1	0
114	883	0	10000	1	1	0	1	0
110	884	0	10000	1	1	0	1	0
107	885	0	10000	1	1	0	1	0
104	886	0	10000	1	1	0	1	0
102	887	0	10000	1	1	0	1	0
101	888	0	10000	1	1	0	1	0
98	889	0	10000	1	1	0	1	0
96	890	0	10000	1	1	0	1	0
96	891	0	10000	1	1	0	1	0
96	892	0	10000	1	1	0	1	0
95	893	0	10000	1	1	0	1	0
96	894	0	10000	1	1	0	1	0
96	895	0	10000	1	1	0	1	0
96	896	0	10000	1	1	0	1	0
93	897	0	10000	1	1	0	1	0
90	898	0	10000	1	1	0	1	0
87	899	0	10000	1	1	0	1	0
86	900	0	10000	1	1	0	1	0
85	901	0	10000	1	1	0	1	0
86	902	0	10000	1	1	0	1	0
89	903	0	10000	1	1	0	1	0
91	904	0	10000	1	1	0	1	0
93	905	0	10000	1	1	0	1	0
95	906	0	10000	1	1	0	1	0
98	907	0	10000	1	1	0	1	0
100	908	0	10000	1	1	0	1	0
103	909	0	10000	1	1	0	1	0
106	910	0	10000	1	1	0	1	0
109	911	0	10000	1	1	0	1	0
111	912	0	10000	1	1	0	1	0
110	913	0	10000	1	1	0	1	0
112	914	0	10000	1	1	0	1	0
114	915	0	10000	1	1	0	1	0
116	916	0	10000	1	1	0	1	0
117	917	0	10000	1	1	0	1	0
120	918	0	10000	1	1	0	1	0
122	919	0	10000	1	1	0	1	0
123	920	0	10000	1	1	0	1	0
123	921	0	10000	1	1	0	1	0
123	922	0	10000	1	1	0	1	0
124	923	0	10000	1	1	0	1	0
123	924	0	10000	1	1	0	1	0
123	925	0	10000	1	1	0	1	0
122	926	0	10000	1	1	0	1	0
124	927	0	10000	1	1	0	1	0
125	928	0	10000	1	1	0	1	0
125	929	0	10000	1	1	0	1	0
126	930	0	10000	1	1	0	1	0
123	931	0	10000	1	1	0	1	0
121	932	0	10000	1	1	0	1	0
118	933	0	10000	1	1	0	1	0
115	934	0	10000	1	1	0	1	0
110	935	0	10000	1	1	0	1	0
106	936	0	10000	1	1	0	1	0
101	937	0	10000	1	1	0	1	0
97	938	0	10000	1	1	0	1	0
95	939	0	10000	1	1	0	1	0
91	940	0	10000	1	1	0	1	0
89	941	0	10000	1	1	0	1	0
87	942	0	10000	1	1	0	1	0
87	943	0	10000	1	1	0	1	0
84	944	0	10000	1	1	0	1	0
82	945	0	10000	1	1	0	1	0
80	946	0	10000	1	1	0	1	0
79	947	0	10000	1	1	0	1	0
77	948	0	10000	1	1	0	1	0
75	949	0	10000	1	1	0	1	0
75	950	0	10000	1	1	0	1	0
74	951	0	10000	1	1	0	1	0
72	952	0	10000	1	1	0	1	0
70	953	0	10000	1	1	0	1	0
72	954	0	10000	1	1	0	1	0
73	955	0	10000	1	1	0	1	0
75	956	0	10000	1	1	0	1	0
76	957	0	10000	1	1	0	1	0
76	958	0	10000	1	1	0	1	0
75	959	0	10000	1	1	0	1	0
74	960	0	10000	1	1	0	1	0
75	961	0	10000	1	1	0	1	0
77	962	0	10000	1	1	0	1	0
80	963	0	10000	1	1	0	1	0
82	964	0	10000	1	1	0	1	0
84	965	0	10000	1	1	0	1	0
86	966	0	10000	1	1	0	1	0
87	967	0	10000	1	1	0	1	0
88	968	0	10000	1	1	0	1	0
88	969	0	10000	1	1	0	1	0
88	970	0	10000	1	1	0	1	0
87	971	0	10000	1	1	0	1	0
85	972	0	10000	1	1	0	1	0
83	973	0	10000	1	1	0	1	0
83	974	0	10000	1	1	0	1	0
83	975	0	10000	1	1	0	1	0
82	976	0	10000	1	1	0	1	0
82	977	0	10000	1	1	0	1	0
81	978	0	10000	1	1	0	1	0
81	979	0	10000	1	1	0	1	0
82	980	0	10000	1	1	0	1	0
81	981	0	10000	1	1	0	1	0
81	982	0	10000	1	1	0	1	0
84	983	0	10000	1	1	0	1	0
82	984	0	10000	1	1	0	1	0
82	985	0	10000	1	1	0	1	0
81	986	0	10000	1	1	0	1	0
80	987	0	10000	1	1	0	1	0
79	988	0	10000	1	1	0	1	0
79	989	0	10000	1	1	0	1	0
77	990	0	10000	1	1	0	1	0
76	991	0	10000	1	1	0	1	0
74	992	0	10000	1	1	0	1	0
71	993	0	10000	1	1	0	1	0
71	994	0	10000	1	1	0	1	0
72	995	0	10000	1	1	0	1	0
72	996	0	10000	1	1	0	1	0
72	997	0	10000	1	1	0	1	0
72	998	0	10000	1	1	0	1	0
70	999	0	10000	1	1	0	1	0
69	1000	0	10000	1	1	0	1	0
68	1001	0	10000	1	1	0	1	0
18	1	10	10000	2	1	0	2	0
18	2	10	10000	2	1	0	2	0
17	3	10	10000	2	1	0	2	0
16	4	10	10000	2	1	0	2	0
16	5	10	10000	2	1	0	2	0
16	6	10	10000	2	1	0	2	0
17	7	10	10000	2	1	0	2	0
17	8	10	10000	2	1	0	2	0
15	9	10	10000	2	1	0	2	0
14	10	10	10000	2	1	0	2	0
14	11	10	10000	2	1	0	2	0
14	12	10	10000	2	1	0	2	0
14	13	10	10000	2	1	0	2	0
14	14	10	10000	2	1	0	2	0
15	15	10	10000	2	1	0	2	0
14	16	10	10000	2	1	0	2	0
13	17	10	10000	2	1	0	2	0
13	18	10	10000	2	1	0	2	0
14	19	10	10000	2	1	0	2	0
14	20	10	10000	2	1	0	2	0
14	21	10	10000	2	1	0	2	0
14	22	10	10000	2	1	0	2	0
13	23	10	10000	2	1	0	2	0
14	24	10	10000	2	1	0	2	0
13	25	10	10000	2	1	0	2	0
12	26	10	10000	2	1	0	2	0
14	27	10	10000	2	1	0	2	0
13	28	10	10000	2	1	0	2	0
12	29	10	10000	2	1	0	2	0
11	30	10	10000	2	1	0	2	0
10	31	10	10000	2	1	0	2	0
10	32	10	10000	2	1	0	2	0
10	33	10	10000	2	1	0	2	0
10	34	10	10000	2	1	0	2	0
10	35	10	10000	2	1	0	2	0
11	36	10	10000	2	1	0	2	0
10	37	10	10000	2	1	0	2	0
8	38	10	10000	2	1	0	2	0
9	39	10	10000	2	1	0	2	0
11	40	10	10000	2	1	0	2	0
10	41	10	10000	2	1	0	2	0
10	42	10	10000	2	1	0	2	0
10	43	10	10000	2	1	0	2	0
11	44	10	10000	2	1	0	2	0
10	45	10	10000	2	1	0	2	0
10	46	10	10000	2	1	0	2	0
11	47	10	10000	2	1	0	2	0
12	48	10	10000	2	1	0	2	0
11	49	10	10000	2	1	0	2	0
10	50	10	10000	2	1	0	2	0
10	51	10	10000	2	1	0	2	0
10	52	10	10000	2	1	0	2	0
9	53	10	10000	2	1	0	2	0
9	54	10	10000	2	1	0	2	0
9	55	10	10000	2	1	0	2	0
10	56	10	10000	2	1	0	2	0
10	57	10	10000	2	1	0	2	0
9	58	10	10000	2	1	0	2	0
10	59	10	10000	2	1	0	2	0
11	60	10	10000	2	1	0	2	0
10	61	10	10000	2	1	0	2	0
9	62	10	10000	2	1	0	2	0
9	63	10	10000	2	1	0	2	0
9	64	10	10000	2	1	0	2	0
9	65	10	10000	2	1	0	2	0
9	66	10	10000	2	1	0	2	0
9	67	10	10000	2	1	0	2	0
10	68	10	10000	2	1	0	2	0
9	69	10	10000	2	1	0	2	0
8	70	10	10000	2	1	0	2	0
9	71	10	10000	2	1	0	2	0
9	72	10	10000	2	1	0	2	0
10	73	10	10000	2	1	0	2	0
10	74	10	10000	2	1	0	2	0
9	75	10	10000	2	1	0	2	0
10	76	10	10000	2	1	0	2	0
10	77	10	10000	2	1	0	2	0
8	78	10	10000	2	1	0	2	0
9	79	10	10000	2	1	0	2	0
11	80	10	10000	2	1	0	2	0
10	81	10	10000	2	1	0	2	0
9	82	10	10000	2	1	0	2	0
10	83	10	10000	2	1	0	2	0
10	84	10	10000	2	1	0	2	0
9	85	10	10000	2	1	0	2	0
9	86	10	10000	2	1	0	2	0
10	87	10	10000	2	1	0	2	0
10	88	10	10000	2	1	0	2	0
10	89	10	10000	2	1	0	2	0
9	90	10	10000	2	1	0	2	0
8	91	10	10000	2	1	0	2	0
9	92	10	10000	2	1	0	2	0
9	93	10	10000	2	1	0	2	0
9	94	10	10000	2	1	0	2	0
10	95	10	10000	2	1	0	2	0
10	96	10	10000	2	1	0	2	0
10	97	10	10000	2	1	0	2	0
11	98	10	10000	2	1	0	2	0
12	99	10	10000	2	1	0	2	0
15	100	10	10000	2	1	0	2	0
17	101	10	10000	2	1	0	2	0
20	102	10	10000	2	1	0	2	0
25	103	10	10000	2	1	0	2	0
30	104	10	10000	2	1	0	2	0
34	105	10	10000	2	1	0	2	0
38	106	10	10000	2	1	0	2	0
40	107	10	10000	2	1	0	2	0
39	108	10	10000	2	1	0	2	0
38	109	10	10000	2	1	0	2	0
39	110	10	10000	2	1	0	2	0
42	111	10	10000	2	1	0	2	0
44	112	10	10000	2	1	0	2	0
45	113	10	10000	2	1	0	2	0
44	114	10	10000	2	1	0	2	0
44	115	10	10000	2	1	0	2	0
42	116	10	10000	2	1	0	2	0
39	117	10	10000	2	1	0	2	0
39	118	10	10000	2	1	0	2	0
40	119	10	10000	2	1	0	2	0
41	120	10	10000	2	1	0	2	0
43	121	10	10000	2	1	0	2	0
42	122	10	10000	2	1	0	2	0
42	123	10	10000	2	1	0	2	0
44	124	10	10000	2	1	0	2	0
42	125	10	10000	2	1	0	2	0
41	126	10	10000	2	1	0	2	0
42	127	10	10000	2	1	0	2	0
43	128	10	10000	2	1	0	2	0
42	129	10	10000	2	1	0	2	0
43	130	10	10000	2	1	0	2	0
44	131	10	10000	2	1	0	2	0
45	132	10	10000	2	1	0	2	0
47	133	10	10000	2	1	0	2	0
47	134	10	10000	2	1	0	2	0
47	135	10	10000	2	1	0	2	0
48	136	10	10000	2	1	0	2	0
47	137	10	10000	2	1	0	2	0
44	138	10	10000	2	1	0	2	0
43	139	10	10000	2	1	0	2	0
43	140	10	10000	2	1	0	2	0
42	141	10	10000	2	1	0	2	0
41	142	10	10000	2	1	0	2	0
41	143	10	10000	2	1	0	2	0
41	144	10	10000	2	1	0	2	0
40	145	10	10000	2	1	0	2	0
40	146	10	10000	2	1	0	2	0
41	147	10	10000	2	1	0	2	0
42	148	10	10000	2	1	0	2	0
42	149	10	10000	2	1	0	2	0
40	150	10	10000	2	1	0	2	0
41	151	10	10000	2	1	0	2	0
41	152	10	10000	2	1	0	2	0
41	153	10	10000	2	1	0	2	0
41	154	10	10000	2	1	0	2	0
40	155	10	10000	2	1	0	2	0
40	156	10	10000	2	1	0	2	0
40	157	10	10000	2	1	0	2	0
39	158	10	10000	2	1	0	2	0
40	159	10	10000	2	1	0	2	0
42	160	10	10000	2	1	0	2	0
42	161	10	10000	2	1	0	2	0
42	162	10	10000	2	1	0	2	0
41	163	10	10000	2	1	0	2	0
42	164	10	10000	2	1	0	2	0
43	165	10	10000	2	1	0	2	0
41	166	10	10000	2	1	0	2	0
40	167	10	10000	2	1	0	2	0
40	168	10	10000	2	1	0	2	0
37	169	10	10000	2	1	0	2	0
36	170	10	10000	2	1	0	2	0
36	171	10	10000	2	1	0	2	0
35	172	10	10000	2	1	0	2	0
34	173	10	10000	2	1	0	2	0
35	174	10	10000	2	1	0	2	0
33	175	10	10000	2	1	0	2	0
32	176	10	10000	2	1	0	2	0
32	177	10	10000	2	1	0	2	0
31	178	10	10000	2	1	0	2	0
30	179	10	10000	2	1	0	2	0
32	180	10	10000	2	1	0	2	0
31	181	10	10000	2	1	0	2	0
30	182	10	10000	2	1	0	2	0
30	183	10	10000	2	1	0	2	0
30	184	10	10000	2	1	0	2	0
29	185	10	10000	2	1	0	2	0
28	186	10	10000	2	1	0	2	0
28	187	10	10000	2	1	0	2	0
27	188	10	10000	2	1	0	2	0
25	189	10	10000	2	1	0	2	0
24	190	10	10000	2	1	0	2	0
24	191	10	10000	2	1	0	2	0
24	192	10	10000	2	1	0	2	0
23	193	10	10000	2	1	0	2	0
23	194	10	10000	2	1	0	2	0
22	195	10	10000	2	1	0	2	0
21	196	10	10000	2	1	0	2	0
20	197	10	10000	2	1	0	2	0
19	198	10	10000	2	1	0	2	0
19	199	10	10000	2	1	0	2	0
20	200	10	10000	2	1	0	2	0
20	201	10	10000	2	1	0	2	0
20	202	10	10000	2	1	0	2	0
20	203	10	10000	2	1	0	2	0
19	204	10	10000	2	1	0	2	0
18	205	10	10000	2	1	0	2	0
18	206	10	10000	2	1	0	2	0
18	207	10	10000	2	1	0	2	0
17	208	10	10000	2	1	0	2	0
17	209	10	10000	2	1	0	2	0
15	210	10	10000	2	1	0	2	0
15	211	10	10000	2	1	0	2	0
15	212	10	10000	2	1	0	2	0
15	213	10	10000	2	1	0	2	0
14	214	10	10000	2	1	0	2	0
14	215	10	10000	2	1	0	2	0
14	216	10	10000	2	1	0	2	0
13	217	10	10000	2	1	0	2	0
14	218	10	10000	2	1	0	2	0
14	219	10	10000	2	1	0	2	0
15	220	10	10000	2	1	0	2	0
16	221	10	10000	2	1	0	2	0
14	222	10	10000	2	1	0	2	0
14	223	10	10000	2	1	0	2	0
14	224	10	10000	2	1	0	2	0
13	225	10	10000	2	1	0	2	0
12	226	10	10000	2	1	0	2	0
13	227	10	10000	2	1	0	2	0
13	228	10	10000	2	1	0	2	0
12	229	10	10000	2	1	0	2	0
11	230	10	10000	2	1	0	2	0
11	231	10	10000	2	1	0	2	0
12	232	10	10000	2	1	0	2	0
13	233	10	10000	2	1	0	2	0
12	234	10	10000	2	1	0	2	0
11	235	10	10000	2	1	0	2	0
11	236	10	10000	2	1	0	2	0
11	237	10	10000	2	1	0	2	0
10	238	10	10000	2	1	0	2	0
11	239	10	10000	2	1	0	2	0
11	240	10	10000	2	1	0	2	0
11	241	10	10000	2	1	0	2	0
11	242	10	10000	2	1	0	2	0
11	243	10	10000	2	1	0	2	0
10	244	10	10000	2	1	0	2	0
11	245	10	10000	2	1	0	2	0
11	246	10	10000	2	1	0	2	0
11	247	10	10000	2	1	0	2	0
12	248	10	10000	2	1	0	2	0
11	249	10	10000	2	1	0	2	0
11	250	10	10000	2	1	0	2	0
11	251	10	10000	2	1	0	2	0
11	252	10	10000	2	1	0	2	0
11	253	10	10000	2	1	0	2	0
11	254	10	10000	2	1	0	2	0
10	255	10	10000	2	1	0	2	0
10	256	10	10000	2	1	0	2	0
10	257	10	10000	2	1	0	2	0
11	258	10	10000	2	1	0	2	0
14	259	10	10000	2	1	0	2	0
17	260	10	10000	2	1	0	2	0
18	261	10	10000	2	1	0	2	0
20	262	10	10000	2	1	0	2	0
21	263	10	10000	2	1	0	2	0
24	264	10	10000	2	1	0	2	0
28	265	10	10000	2	1	0	2	0
30	266	10	10000	2	1	0	2	0
32	267	10	10000	2	1	0	2	0
35	268	10	10000	2	1	0	2	0
35	269	10	10000	2	1	0	2	0
34	270	10	10000	2	1	0	2	0
35	271	10	10000	2	1	0	2	0
35	272	10	10000	2	1	0	2	0
36	273	10	10000	2	1	0	2	0
38	274	10	10000	2	1	0	2	0
38	275	10	10000	2	1	0	2	0
39	276	10	10000	2	1	0	2	0
39	277	10	10000	2	1	0	2	0
38	278	10	10000	2	1	0	2	0
39	279	10	10000	2	1	0	2	0
39	280	10	10000	2	1	0	2	0
37	281	10	10000	2	1	0	2	0
36	282	10	10000	2	1	0	2	0
35	283	10	10000	2	1	0	2	0
33	284	10	10000	2	1	0	2	0
33	285	10	10000	2	1	0	2	0
32	286	10	10000	2	1	0	2	0
33	287	10	10000	2	1	0	2	0
35	288	10	10000	2	1	0	2	0
37	289	10	10000	2	1	0	2	0
37	290	10	10000	2	1	0	2	0
40	291	10	10000	2	1	0	2	0
41	292	10	10000	2	1	0	2	0
41	293	10	10000	2	1	0	2	0
43	294	10	10000	2	1	0	2	0
44	295	10	10000	2	1	0	2	0
44	296	10	10000	2	1	0	2	0
45	297	10	10000	2	1	0	2	0
45	298	10	10000	2	1	0	2	0
47	299	10	10000	2	1	0	2	0
48	300	10	10000	2	1	0	2	0
48	301	10	10000	2	1	0	2	0
48	302	10	10000	2	1	0	2	0
48	303	10	10000	2	1	0	2	0
48	304	10	10000	2	1	0	2	0
47	305	10	10000	2	1	0	2	0
48	306	10	10000	2	1	0	2	0
49	307	10	10000	2	1	0	2	0
48	308	10	10000	2	1	0	2	0
47	309	10	10000	2	1	0	2	0
45	310	10	10000	2	1	0	2	0
44	311	10	10000	2	1	0	2	0
45	312	10	10000	2	1	0	2	0
45	313	10	10000	2	1	0	2	0
45	314	10	10000	2	1	0	2	0
47	315	10	10000	2	1	0	2	0
47	316	10	10000	2	1	0	2	0
44	317	10	10000	2	1	0	2	0
44	318	10	10000	2	1	0	2	0
43	319	10	10000	2	1	0	2	0
43	320	10	10000	2	1	0	2	0
42	321	10	10000	2	1	0	2	0
41	322	10	10000	2	1	0	2	0
41	323	10	10000	2	1	0	2	0
41	324	10	10000	2	1	0	2	0
40	325	10	10000	2	1	0	2	0
38	326	10	10000	2	1	0	2	0
38	327	10	10000	2	1	0	2	0
37	328	10	10000	2	1	0	2	0
36	329	10	10000	2	1	0	2	0
34	330	10	10000	2	1	0	2	0
35	331	10	10000	2	1	0	2	0
35	332	10	10000	2	1	0	2	0
35	333	10	10000	2	1	0	2	0
34	334	10	10000	2	1	0	2	0
32	335	10	10000	2	1	0	2	0
31	336	10	10000	2	1	0	2	0
30	337	10	10000	2	1	0	2	0
28	338	10	10000	2	1	0	2	0
29	339	10	10000	2	1	0	2	0
29	340	10	10000	2	1	0	2	0
29	341	10	10000	2	1	0	2	0
28	342	10	10000	2	1	0	2	0
26	343	10	10000	2	1	0	2	0
26	344	10	10000	2	1	0	2	0
24	345	10	10000	2	1	0	2	0
24	346	10	10000	2	1	0	2	0
23	347	10	10000	2	1	0	2	0
23	348	10	10000	2	1	0	2	0
21	349	10	10000	2	1	0	2	0
20	350	10	10000	2	1	0	2	0
20	351	10	10000	2	1	0	2	0
20	352	10	10000	2	1	0	2	0
19	353	10	10000	2	1	0	2	0
19	354	10	10000	2	1	0	2	0
17	355	10	10000	2	1	0	2	0
17	356	10	10000	2	1	0	2	0
16	357	10	10000	2	1	0	2	0
16	358	10	10000	2	1	0	2	0
17	359	10	10000	2	1	0	2	0
18	360	10	10000	2	1	0	2	0
17	361	10	10000	2	1	0	2	0
17	362	10	10000	2	1	0	2	0
16	363	10	10000	2	1	0	2	0
16	364	10	10000	2	1	0	2	0
16	365	10	10000	2	1	0	2	0
14	366	10	10000	2	1	0	2	0
15	367	10	10000	2	1	0	2	0
15	368	10	10000	2	1	0	2	0
14	369	10	10000	2	1	0	2	0
13	370	10	10000	2	1	0	2	0
13	371	10	10000	2	1	0	2	0
12	372	10	10000	2	1	0	2	0
12	373	10	10000	2	1	0	2	0
12	374	10	10000	2	1	0	2	0
12	375	10	10000	2	1	0	2	0
12	376	10	10000	2	1	0	2	0
11	377	10	10000	2	1	0	2	0
10	378	10	10000	2	1	0	2	0
11	379	10	10000	2	1	0	2	0
12	380	10	10000	2	1	0	2	0
12	381	10	10000	2	1	0	2	0
11	382	10	10000	2	1	0	2	0
11	383	10	10000	2	1	0	2	0
11	384	10	10000	2	1	0	2	0
11	385	10	10000	2	1	0	2	0
11	386	10	10000	2	1	0	2	0
10	387	10	10000	2	1	0	2	0
11	388	10	10000	2	1	0	2	0
10	389	10	10000	2	1	0	2	0
9	390	10	10000	2	1	0	2	0
9	391	10	10000	2	1	0	2	0
10	392	10	10000	2	1	0	2	0
10	393	10	10000	2	1	0	2	0
11	394	10	10000	2	1	0	2	0
11	395	10	10000	2	1	0	2	0
11	396	10	10000	2	1	0	2	0
10	397	10	10000	2	1	0	2	0
10	398	10	10000	2	1	0	2	0
10	399	10	10000	2	1	0	2	0
11	400	10	10000	2	1	0	2	0
10	401	10	10000	2	1	0	2	0
10	402	10	10000	2	1	0	2	0
10	403	10	10000	2	1	0	2	0
10	404	10	10000	2	1	0	2	0
10	405	10	10000	2	1	0	2	0
10	406	10	10000	2	1	0	2	0
10	407	10	10000	2	1	0	2	0
11	408	10	10000	2	1	0	2	0
10	409	10	10000	2	1	0	2	0
9	410	10	10000	2	1	0	2	0
8	411	10	10000	2	1	0	2	0
9	412	10	10000	2	1	0	2	0
9	413	10	10000	2	1	0	2	0
9	414	10	10000	2	1	0	2	0
10	415	10	10000	2	1	0	2	0
10	416	10	10000	2	1	0	2	0
10	417	10	10000	2	1	0	2	0
11	418	10	10000	2	1	0	2	0
11	419	10	10000	2	1	0	2	0
11	420	10	10000	2	1	0	2	0
11	421	10	10000	2	1	0	2	0
11	422	10	10000	2	1	0	2	0
10	423	10	10000	2	1	0	2	0
10	424	10	10000	2	1	0	2	0
10	425	10	10000	2	1	0	2	0
11	426	10	10000	2	1	0	2	0
11	427	10	10000	2	1	0	2	0
12	428	10	10000	2	1	0	2	0
11	429	10	10000	2	1	0	2	0
9	430	10	10000	2	1	0	2	0
11	431	10	10000	2	1	0	2	0
10	432	10	10000	2	1	0	2	0
11	433	10	10000	2	1	0	2	0
10	434	10	10000	2	1	0	2	0
10	435	10	10000	2	1	0	2	0
10	436	10	10000	2	1	0	2	0
9	437	10	10000	2	1	0	2	0
9	438	10	10000	2	1	0	2	0
10	439	10	10000	2	1	0	2	0
12	440	10	10000	2	1	0	2	0
11	441	10	10000	2	1	0	2	0
11	442	10	10000	2	1	0	2	0
12	443	10	10000	2	1	0	2	0
12	444	10	10000	2	1	0	2	0
12	445	10	10000	2	1	0	2	0
12	446	10	10000	2	1	0	2	0
12	447	10	10000	2	1	0	2	0
12	448	10	10000	2	1	0	2	0
11	449	10	10000	2	1	0	2	0
10	450	10	10000	2	1	0	2	0
10	451	10	10000	2	1	0	2	0
11	452	10	10000	2	1	0	2	0
12	453	10	10000	2	1	0	2	0
11	454	10	10000	2	1	0	2	0
12	455	10	10000	2	1	0	2	0
13	456	10	10000	2	1	0	2	0
13	457	10	10000	2	1	0	2	0
12	458	10	10000	2	1	0	2	0
13	459	10	10000	2	1	0	2	0
14	460	10	10000	2	1	0	2	0
13	461	10	10000	2	1	0	2	0
14	462	10	10000	2	1	0	2	0
12	463	10	10000	2	1	0	2	0
12	464	10	10000	2	1	0	2	0
12	465	10	10000	2	1	0	2	0
11	466	10	10000	2	1	0	2	0
11	467	10	10000	2	1	0	2	0
12	468	10	10000	2	1	0	2	0
10	469	10	10000	2	1	0	2	0
9	470	10	10000	2	1	0	2	0
9	471	10	10000	2	1	0	2	0
9	472	10	10000	2	1	0	2	0
9	473	10	10000	2	1	0	2	0
9	474	10	10000	2	1	0	2	0
9	475	10	10000	2	1	0	2	0
9	476	10	10000	2	1	0	2	0
9	477	10	10000	2	1	0	2	0
8	478	10	10000	2	1	0	2	0
8	479	10	10000	2	1	0	2	0
9	480	10	10000	2	1	0	2	0
9	481	10	10000	2	1	0	2	0
9	482	10	10000	2	1	0	2	0
9	483	10	10000	2	1	0	2	0
9	484	10	10000	2	1	0	2	0
10	485	10	10000	2	1	0	2	0
10	486	10	10000	2	1	0	2	0
11	487	10	10000	2	1	0	2	0
11	488	10	10000	2	1	0	2	0
10	489	10	10000	2	1	0	2	0
8	490	10	10000	2	1	0	2	0
9	491	10	10000	2	1	0	2	0
9	492	10	10000	2	1	0	2	0
10	493	10	10000	2	1	0	2	0
9	494	10	10000	2	1	0	2	0
10	495	10	10000	2	1	0	2	0
10	496	10	10000	2	1	0	2	0
9	497	10	10000	2	1	0	2	0
9	498	10	10000	2	1	0	2	0
10	499	10	10000	2	1	0	2	0
11	500	10	10000	2	1	0	2	0
10	501	10	10000	2	1	0	2	1
10	502	10	10000	2	1	0	2	1
11	503	10	10000	2	1	0	2	1
10	504	10	10000	2	1	0	2	1
10	505	10	10000	2	1	0	2	1
11	506	10	10000	2	1	0	2	1
10	507	10	10000	2	1	0	2	1
10	508	10	10000	2	1	0	2	1
9	509	10	10000	2	1	0	2	1
8	510	10	10000	2	1	0	2	1
8	511	10	10000	2	1	0	2	1
9	512	10	10000	2	1	0	2	1
9	513	10	10000	2	1	0	2	1
9	514	10	10000	2	1	0	2	1
10	515	10	10000	2	1	0	2	1
9	516	10	10000	2	1	0	2	1
9	517	10	10000	2	1	0	2	1
8	518	10	10000	2	1	0	2	1
9	519	10	10000	2	1	0	2	1
10	520	10	10000	2	1	0	2	1
10	521	10	10000	2	1	0	2	1
10	522	10	10000	2	1	0	2	1
10	523	10	10000	2	1	0	2	1
11	524	10	10000	2	1	0	2	1
11	525	10	10000	2	1	0	2	1
11	526	10	10000	2	1	0	2	1
11	527	10	10000	2	1	0	2	1
11	528	10	10000	2	1	0	2	1
10	529	10	10000	2	1	0	2	1
9	530	10	10000	2	1	0	2	1
9	531	10	10000	2	1	0	2	1
10	532	10	10000	2	1	0	2	1
11	533	10	10000	2	1	0	2	1
10	534	10	10000	2	1	0	2	1
10	535	10	10000	2	1	0	2	1
10	536	10	10000	2	1	0	2	1
10	537	10	10000	2	1	0	2	1
8	538	10	10000	2	1	0	2	1
9	539	10	10000	2	1	0	2	1
10	540	10	10000	2	1	0	2	1
10	541	10	10000	2	1	0	2	1
9	542	10	10000	2	1	0	2	1
9	543	10	10000	2	1	0	2	1
9	544	10	10000	2	1	0	2	1
9	545	10	10000	2	1	0	2	1
9	546	10	10000	2	1	0	2	1
10	547	10	10000	2	1	0	2	1
9	548	10	10000	2	1	0	2	1
8	549	10	10000	2	1	0	2	1
8	550	10	10000	2	1	0	2	1
8	551	10	10000	2	1	0	2	0
8	552	10	10000	2	1	0	2	0
8	553	10	10000	2	1	0	2	0
8	554	10	10000	2	1	0	2	0
8	555	10	10000	2	1	0	2	0
8	556	10	10000	2	1	0	2	0
7	557	10	10000	2	1	0	2	0
7	558	10	10000	2	1	0	2	0
8	559	10	10000	2	1	0	2	0
8	560	10	10000	2	1	0	2	0
8	561	10	10000	2	1	0	2	0
8	562	10	10000	2	1	0	2	0
7	563	10	10000	2	1	0	2	0
7	564	10	10000	2	1	0	2	0
7	565	10	10000	2	1	0	2	0
7	566	10	10000	2	1	0	2	0
8	567	10	10000	2	1	0	2	0
9	568	10	10000	2	1	0	2	0
8	569	10	10000	2	1	0	2	0
7	570	10	10000	2	1	0	2	0
8	571	10	10000	2	1	0	2	0
8	572	10	10000	2	1	0	2	0
9	573	10	10000	2	1	0	2	0
9	574	10	10000	2	1	0	2	0
10	575	10	10000	2	1	0	2	0
10	576	10	10000	2	1	0	2	0
10	577	10	10000	2	1	0	2	0
10	578	10	10000	2	1	0	2	0
10	579	10	10000	2	1	0	2	0
11	580	10	10000	2	1	0	2	0
10	581	10	10000	2	1	0	2	0
10	582	10	10000	2	1	0	2	0
10	583	10	10000	2	1	0	2	0
11	584	10	10000	2	1	0	2	0
17	585	10	10000	2	1	0	2	0
25	586	10	10000	2	1	0	2	0
35	587	10	10000	2	1	0	2	0
50	588	10	10000	2	1	0	2	0
56	589	10	10000	2	1	0	2	0
63	590	10	10000	2	1	0	2	0
70	591	10	10000	2	1	0	2	0
123	592	10	10000	2	1	0	2	0
144	593	10	10000	2	1	0	2	0
152	594	10	10000	2	1	0	2	0
168	595	10	10000	2	1	0	2	0
182	596	10	10000	2	1	0	2	0
203	597	10	10000	2	1	0	2	0
220	598	10	10000	2	1	0	2	0
219	599	10	10000	2	1	0	2	0
230	600	10	10000	2	1	0	2	0
239	601	10	10000	2	1	0	2	0
252	602	10	10000	2	1	0	2	0
259	603	10	10000	2	1	0	2	0
269	604	10	10000	2	1	0	2	0
271	605	10	10000	2	1	0	2	0
266	606	10	10000	2	1	0	2	0
264	607	10	10000	2	1	0	2	0
267	608	10	10000	2	1	0	2	0
265	609	10	10000	2	1	0	2	0
257	610	10	10000	2	1	0	2	0
260	611	10	10000	2	1	0	2	0
275	612	10	10000	2	1	0	2	0
278	613	10	10000	2	1	0	2	0
318	614	10	10000	2	1	0	2	0
355	615	10	10000	2	1	0	2	0
367	616	10	10000	2	1	0	2	0
364	617	10	10000	2	1	0	2	0
363	618	10	10000	2	1	0	2	0
355	619	10	10000	2	1	0	2	0
353	620	10	10000	2	1	0	2	0
356	621	10	10000	2	1	0	2	0
360	622	10	10000	2	1	0	2	0
357	623	10	10000	2	1	0	2	0
357	624	10	10000	2	1	0	2	0
362	625	10	10000	2	1	0	2	0
360	626	10	10000	2	1	0	2	0
351	627	10	10000	2	1	0	2	0
337	628	10	10000	2	1	0	2	0
327	629	10	10000	2	1	0	2	0
320	630	10	10000	2	1	0	2	0
314	631	10	10000	2	1	0	2	0
310	632	10	10000	2	1	0	2	0
306	633	10	10000	2	1	0	2	0
300	634	10	10000	2	1	0	2	0
295	635	10	10000	2	1	0	2	0
289	636	10	10000	2	1	0	2	0
281	637	10	10000	2	1	0	2	0
272	638	10	10000	2	1	0	2	0
265	639	10	10000	2	1	0	2	0
259	640	10	10000	2	1	0	2	0
252	641	10	10000	2	1	0	2	0
243	642	10	10000	2	1	0	2	0
232	643	10	10000	2	1	0	2	0
222	644	10	10000	2	1	0	2	0
212	645	10	10000	2	1	0	2	0
202	646	10	10000	2	1	0	2	0
196	647	10	10000	2	1	0	2	0
192	648	10	10000	2	1	0	2	0
189	649	10	10000	2	1	0	2	0
189	650	10	10000	2	1	0	2	0
189	651	10	10000	2	1	0	2	0
190	652	10	10000	2	1	0	2	0
192	653	10	10000	2	1	0	2	0
196	654	10	10000	2	1	0	2	0
201	655	10	10000	2	1	0	2	0
208	656	10	10000	2	1	0	2	0
212	657	10	10000	2	1	0	2	0
217	658	10	10000	2	1	0	2	0
224	659	10	10000	2	1	0	2	0
229	660	10	10000	2	1	0	2	0
233	661	10	10000	2	1	0	2	0
237	662	10	10000	2	1	0	2	0
241	663	10	10000	2	1	0	2	0
245	664	10	10000	2	1	0	2	0
247	665	10	10000	2	1	0	2	0
249	666	10	10000	2	1	0	2	0
251	667	10	10000	2	1	0	2	0
253	668	10	10000	2	1	0	2	0
251	669	10	10000	2	1	0	2	0
252	670	10	10000	2	1	0	2	0
253	671	10	10000	2	1	0	2	0
251	672	10	10000	2	1	0	2	0
250	673	10	10000	2	1	0	2	0
247	674	10	10000	2	1	0	2	0
244	675	10	10000	2	1	0	2	0
243	676	10	10000	2	1	0	2	0
240	677	10	10000	2	1	0	2	0
234	678	10	10000	2	1	0	2	0
229	679	10	10000	2	1	0	2	0
223	680	10	10000	2	1	0	2	0
215	681	10	10000	2	1	0	2	0
208	682	10	10000	2	1	0	2	0
200	683	10	10000	2	1	0	2	0
193	684	10	10000	2	1	0	2	0
186	685	10	10000	2	1	0	2	0
178	686	10	10000	2	1	0	2	0
172	687	10	10000	2	1	0	2	0
167	688	10	10000	2	1	0	2	0
161	689	10	10000	2	1	0	2	0
156	690	10	10000	2	1	0	2	0
153	691	10	10000	2	1	0	2	0
149	692	10	10000	2	1	0	2	0
144	693	10	10000	2	1	0	2	0
141	694	10	10000	2	1	0	2	0
137	695	10	10000	2	1	0	2	0
132	696	10	10000	2	1	0	2	0
129	697	10	10000	2	1	0	2	0
126	698	10	10000	2	1	0	2	0
127	699	10	10000	2	1	0	2	0
128	700	10	10000	2	1	0	2	0
126	701	10	10000	2	1	0	2	0
125	702	10	10000	2	1	0	2	0
125	703	10	10000	2	1	0	2	0
124	704	10	10000	2	1	0	2	0
123	705	10	10000	2	1	0	2	0
123	706	10	10000	2	1	0	2	0
122	707	10	10000	2	1	0	2	0
123	708	10	10000	2	1	0	2	0
122	709	10	10000	2	1	0	2	0
120	710	10	10000	2	1	0	2	0
120	711	10	10000	2	1	0	2	0
119	712	10	10000	2	1	0	2	0
117	713	10	10000	2	1	0	2	0
115	714	10	10000	2	1	0	2	0
114	715	10	10000	2	1	0	2	0
113	716	10	10000	2	1	0	2	0
110	717	10	10000	2	1	0	2	0
109	718	10	10000	2	1	0	2	0
109	719	10	10000	2	1	0	2	0
110	720	10	10000	2	1	0	2	0
110	721	10	10000	2	1	0	2	0
110	722	10	10000	2	1	0	2	0
109	723	10	10000	2	1	0	2	0
109	724	10	10000	2	1	0	2	0
108	725	10	10000	2	1	0	2	0
105	726	10	10000	2	1	0	2	0
104	727	10	10000	2	1	0	2	0
102	728	10	10000	2	1	0	2	0
100	729	10	10000	2	1	0	2	0
99	730	10	10000	2	1	0	2	0
100	731	10	10000	2	1	0	2	0
100	732	10	10000	2	1	0	2	0
101	733	10	10000	2	1	0	2	0
101	734	10	10000	2	1	0	2	0
99	735	10	10000	2	1	0	2	0
98	736	10	10000	2	1	0	2	0
95	737	10	10000	2	1	0	2	0
92	738	10	10000	2	1	0	2	0
92	739	10	10000	2	1	0	2	0
92	740	10	10000	2	1	0	2	0
91	741	10	10000	2	1	0	2	0
88	742	10	10000	2	1	0	2	0
85	743	10	10000	2	1	0	2	0
84	744	10	10000	2	1	0	2	0
87	745	10	10000	2	1	0	2	0
91	746	10	10000	2	1	0	2	0
90	747	10	10000	2	1	0	2	0
90	748	10	10000	2	1	0	2	0
88	749	10	10000	2	1	0	2	0
84	750	10	10000	2	1	0	2	0
83	751	10	10000	2	1	0	2	0
83	752	10	10000	2	1	0	2	0
83	753	10	10000	2	1	0	2	0
79	754	10	10000	2	1	0	2	0
76	755	10	10000	2	1	0	2	0
74	756	10	10000	2	1	0	2	0
72	757	10	10000	2	1	0	2	0
69	758	10	10000	2	1	0	2	0
68	759	10	10000	2	1	0	2	0
68	760	10	10000	2	1	0	2	0
67	761	10	10000	2	1	0	2	0
66	762	10	10000	2	1	0	2	0
65	763	10	10000	2	1	0	2	0
65	764	10	10000	2	1	0	2	0
65	765	10	10000	2	1	0	2	0
66	766	10	10000	2	1	0	2	0
70	767	10	10000	2	1	0	2	0
73	768	10	10000	2	1	0	2	0
69	769	10	10000	2	1	0	2	0
67	770	10	10000	2	1	0	2	0
72	771	10	10000	2	1	0	2	0
96	772	10	10000	2	1	0	2	0
114	773	10	10000	2	1	0	2	0
141	774	10	10000	2	1	0	2	0
168	775	10	10000	2	1	0	2	0
165	776	10	10000	2	1	0	2	0
161	777	10	10000	2	1	0	2	0
158	778	10	10000	2	1	0	2	0
167	779	10	10000	2	1	0	2	0
177	780	10	10000	2	1	0	2	0
192	781	10	10000	2	1	0	2	0
217	782	10	10000	2	1	0	2	0
222	783	10	10000	2	1	0	2	0
255	784	10	10000	2	1	0	2	0
269	785	10	10000	2	1	0	2	0
270	786	10	10000	2	1	0	2	0
279	787	10	10000	2	1	0	2	0
279	788	10	10000	2	1	0	2	0
305	789	10	10000	2	1	0	2	0
334	790	10	10000	2	1	0	2	0
341	791	10	10000	2	1	0	2	0
334	792	10	10000	2	1	0	2	0
336	793	10	10000	2	1	0	2	0
341	794	10	10000	2	1	0	2	0
347	795	10	10000	2	1	0	2	0
342	796	10	10000	2	1	0	2	0
344	797	10	10000	2	1	0	2	0
334	798	10	10000	2	1	0	2	0
334	799	10	10000	2	1	0	2	0
328	800	10	10000	2	1	0	2	0
338	801	10	10000	2	1	0	2	0
354	802	10	10000	2	1	0	2	0
357	803	10	10000	2	1	0	2	0
365	804	10	10000	2	1	0	2	0
369	805	10	10000	2	1	0	2	0
369	806	10	10000	2	1	0	2	0
356	807	10	10000	2	1	0	2	0
344	808	10	10000	2	1	0	2	0
336	809	10	10000	2	1	0	2	0
336	810	10	10000	2	1	0	2	0
333	811	10	10000	2	1	0	2	0
322	812	10	10000	2	1	0	2	0
316	813	10	10000	2	1	0	2	0
313	814	10	10000	2	1	0	2	0
312	815	10	10000	2	1	0	2	0
311	816	10	10000	2	1	0	2	0
309	817	10	10000	2	1	0	2	0
309	818	10	10000	2	1	0	2	0
310	819	10	10000	2	1	0	2	0
310	820	10	10000	2	1	0	2	0
309	821	10	10000	2	1	0	2	0
313	822	10	10000	2	1	0	2	0
310	823	10	10000	2	1	0	2	0
305	824	10	10000	2	1	0	2	0
302	825	10	10000	2	1	0	2	0
297	826	10	10000	2	1	0	2	0
292	827	10	10000	2	1	0	2	0
288	828	10	10000	2	1	0	2	0
276	829	10	10000	2	1	0	2	0
264	830	10	10000	2	1	0	2	0
253	831	10	10000	2	1	0	2	0
245	832	10	10000	2	1	0	2	0
242	833	10	10000	2	1	0	2	0
241	834	10	10000	2	1	0	2	0
240	835	10	10000	2	1	0	2	0
236	836	10	10000	2	1	0	2	0
225	837	10	10000	2	1	0	2	0
219	838	10	10000	2	1	0	2	0
216	839	10	10000	2	1	0	2	0
218	840	10	10000	2	1	0	2	0
223	841	10	10000	2	1	0	2	0
225	842	10	10000	2	1	0	2	0
227	843	10	10000	2	1	0	2	0
230	844	10	10000	2	1	0	2	0
231	845	10	10000	2	1	0	2	0
231	846	10	10000	2	1	0	2	0
233	847	10	10000	2	1	0	2	0
234	848	10	10000	2	1	0	2	0
235	849	10	10000	2	1	0	2	0
235	850	10	10000	2	1	0	2	0
236	851	10	10000	2	1	0	2	0
237	852	10	10000	2	1	0	2	0
239	853	10	10000	2	1	0	2	0
240	854	10	10000	2	1	0	2	0
242	855	10	10000	2	1	0	2	0
244	856	10	10000	2	1	0	2	0
247	857	10	10000	2	1	0	2	0
250	858	10	10000	2	1	0	2	0
254	859	10	10000	2	1	0	2	0
259	860	10	10000	2	1	0	2	0
265	861	10	10000	2	1	0	2	0
268	862	10	10000	2	1	0	2	0
273	863	10	10000	2	1	0	2	0
277	864	10	10000	2	1	0	2	0
282	865	10	10000	2	1	0	2	0
284	866	10	10000	2	1	0	2	0
287	867	10	10000	2	1	0	2	0
290	868	10	10000	2	1	0	2	0
291	869	10	10000	2	1	0	2	0
292	870	10	10000	2	1	0	2	0
294	871	10	10000	2	1	0	2	0
296	872	10	10000	2	1	0	2	0
298	873	10	10000	2	1	0	2	0
301	874	10	10000	2	1	0	2	0
302	875	10	10000	2	1	0	2	0
303	876	10	10000	2	1	0	2	0
304	877	10	10000	2	1	0	2	0
301	878	10	10000	2	1	0	2	0
300	879	10	10000	2	1	0	2	0
298	880	10	10000	2	1	0	2	0
295	881	10	10000	2	1	0	2	0
292	882	10	10000	2	1	0	2	0
289	883	10	10000	2	1	0	2	0
285	884	10	10000	2	1	0	2	0
279	885	10	10000	2	1	0	2	0
274	886	10	10000	2	1	0	2	0
267	887	10	10000	2	1	0	2	0
260	888	10	10000	2	1	0	2	0
250	889	10	10000	2	1	0	2	0
242	890	10	10000	2	1	0	2	0
234	891	10	10000	2	1	0	2	0
226	892	10	10000	2	1	0	2	0
215	893	10	10000	2	1	0	2	0
206	894	10	10000	2	1	0	2	0
197	895	10	10000	2	1	0	2	0
190	896	10	10000	2	1	0	2	0
184	897	10	10000	2	1	0	2	0
177	898	10	10000	2	1	0	2	0
174	899	10	10000	2	1	0	2	0
171	900	10	10000	2	1	0	2	0
165	901	10	10000	2	1	0	2	0
161	902	10	10000	2	1	0	2	0
158	903	10	10000	2	1	0	2	0
156	904	10	10000	2	1	0	2	0
154	905	10	10000	2	1	0	2	0
153	906	10	10000	2	1	0	2	0
153	907	10	10000	2	1	0	2	0
153	908	10	10000	2	1	0	2	0
153	909	10	10000	2	1	0	2	0
152	910	10	10000	2	1	0	2	0
155	911	10	10000	2	1	0	2	0
156	912	10	10000	2	1	0	2	0
158	913	10	10000	2	1	0	2	0
159	914	10	10000	2	1	0	2	0
160	915	10	10000	2	1	0	2	0
159	916	10	10000	2	1	0	2	0
158	917	10	10000	2	1	0	2	0
158	918	10	10000	2	1	0	2	0
159	919	10	10000	2	1	0	2	0
158	920	10	10000	2	1	0	2	0
156	921	10	10000	2	1	0	2	0
153	922	10	10000	2	1	0	2	0
151	923	10	10000	2	1	0	2	0
150	924	10	10000	2	1	0	2	0
150	925	10	10000	2	1	0	2	0
151	926	10	10000	2	1	0	2	0
152	927	10	10000	2	1	0	2	0
152	928	10	10000	2	1	0	2	0
150	929	10	10000	2	1	0	2	0
147	930	10	10000	2	1	0	2	0
146	931	10	10000	2	1	0	2	0
145	932	10	10000	2	1	0	2	0
144	933	10	10000	2	1	0	2	0
142	934	10	10000	2	1	0	2	0
140	935	10	10000	2	1	0	2	0
138	936	10	10000	2	1	0	2	0
136	937	10	10000	2	1	0	2	0
134	938	10	10000	2	1	0	2	0
132	939	10	10000	2	1	0	2	0
131	940	10	10000	2	1	0	2	0
128	941	10	10000	2	1	0	2	0
126	942	10	10000	2	1	0	2	0
123	943	10	10000	2	1	0	2	0
124	944	10	10000	2	1	0	2	0
123	945	10	10000	2	1	0	2	0
123	946	10	10000	2	1	0	2	0
123	947	10	10000	2	1	0	2	0
122	948	10	10000	2	1	0	2	0
120	949	10	10000	2	1	0	2	0
116	950	10	10000	2	1	0	2	0
113	951	10	10000	2	1	0	2	0
110	952	10	10000	2	1	0	2	0
108	953	10	10000	2	1	0	2	0
107	954	10	10000	2	1	0	2	0
105	955	10	10000	2	1	0	2	0
103	956	10	10000	2	1	0	2	0
99	957	10	10000	2	1	0	2	0
96	958	10	10000	2	1	0	2	0
94	959	10	10000	2	1	0	2	0
93	960	10	10000	2	1	0	2	0
92	961	10	10000	2	1	0	2	0
89	962	10	10000	2	1	0	2	0
87	963	10	10000	2	1	0	2	0
85	964	10	10000	2	1	0	2	0
81	965	10	10000	2	1	0	2	0
79	966	10	10000	2	1	0	2	0
77	967	10	10000	2	1	0	2	0
76	968	10	10000	2	1	0	2	0
71	969	10	10000	2	1	0	2	0
68	970	10	10000	2	1	0	2	0
67	971	10	10000	2	1	0	2	0
66	972	10	10000	2	1	0	2	0
64	973	10	10000	2	1	0	2	0
63	974	10	10000	2	1	0	2	0
61	975	10	10000	2	1	0	2	0
60	976	10	10000	2	1	0	2	0
59	977	10	10000	2	1	0	2	0
58	978	10	10000	2	1	0	2	0
58	979	10	10000	2	1	0	2	0
56	980	10	10000	2	1	0	2	0
54	981	10	10000	2	1	0	2	0
51	982	10	10000	2	1	0	2	0
49	983	10	10000	2	1	0	2	0
47	984	10	10000	2	1	0	2	0
46	985	10	10000	2	1	0	2	0
45	986	10	10000	2	1	0	2	0
44	987	10	10000	2	1	0	2	0
42	988	10	10000	2	1	0	2	0
40	989	10	10000	2	1	0	2	0
37	990	10	10000	2	1	0	2	0
37	991	10	10000	2	1	0	2	0
36	992	10	10000	2	1	0	2	0
36	993	10	10000	2	1	0	2	0
36	994	10	10000	2	1	0	2	0
36	995	10	10000	2	1	0	2	0
36	996	10	10000	2	1	0	2	0
36	997	10	10000	2	1	0	2	0
34	998	10	10000	2	1	0	2	0
34	999	10	10000	2	1	0	2	0
34	1000	10	10000	2	1	0	2	0
40	2	1	10000	3	1	0	3	0
43	3	1	10000	3	1	0	3	0
43	4	1	10000	3	1	0	3	0
41	5	1	10000	3	1	0	3	0
40	6	1	10000	3	1	0	3	0
38	7	1	10000	3	1	0	3	0
37	8	1	10000	3	1	0	3	0
36	9	1	10000	3	1	0	3	0
36	10	1	10000	3	1	0	3	0
36	11	1	10000	3	1	0	3	0
36	12	1	10000	3	1	0	3	0
35	13	1	10000	3	1	0	3	0
34	14	1	10000	3	1	0	3	0
34	15	1	10000	3	1	0	3	0
33	16	1	10000	3	1	0	3	0
33	17	1	10000	3	1	0	3	0
32	18	1	10000	3	1	0	3	0
31	19	1	10000	3	1	0	3	0
29	20	1	10000	3	1	0	3	0
29	21	1	10000	3	1	0	3	0
29	22	1	10000	3	1	0	3	0
31	23	1	10000	3	1	0	3	0
31	24	1	10000	3	1	0	3	0
30	25	1	10000	3	1	0	3	0
30	26	1	10000	3	1	0	3	0
28	27	1	10000	3	1	0	3	0
27	28	1	10000	3	1	0	3	0
26	29	1	10000	3	1	0	3	0
25	30	1	10000	3	1	0	3	0
25	31	1	10000	3	1	0	3	0
25	32	1	10000	3	1	0	3	0
22	33	1	10000	3	1	0	3	0
20	34	1	10000	3	1	0	3	0
20	35	1	10000	3	1	0	3	0
20	36	1	10000	3	1	0	3	0
19	37	1	10000	3	1	0	3	0
20	38	1	10000	3	1	0	3	0
20	39	1	10000	3	1	0	3	0
19	40	1	10000	3	1	0	3	0
18	41	1	10000	3	1	0	3	0
17	42	1	10000	3	1	0	3	0
19	43	1	10000	3	1	0	3	0
20	44	1	10000	3	1	0	3	0
20	45	1	10000	3	1	0	3	0
20	46	1	10000	3	1	0	3	0
19	47	1	10000	3	1	0	3	0
18	48	1	10000	3	1	0	3	0
17	49	1	10000	3	1	0	3	0
18	50	1	10000	3	1	0	3	0
17	51	1	10000	3	1	0	3	0
17	52	1	10000	3	1	0	3	0
16	53	1	10000	3	1	0	3	0
15	54	1	10000	3	1	0	3	0
15	55	1	10000	3	1	0	3	0
16	56	1	10000	3	1	0	3	0
16	57	1	10000	3	1	0	3	0
16	58	1	10000	3	1	0	3	0
16	59	1	10000	3	1	0	3	0
15	60	1	10000	3	1	0	3	0
15	61	1	10000	3	1	0	3	0
16	62	1	10000	3	1	0	3	0
18	63	1	10000	3	1	0	3	0
18	64	1	10000	3	1	0	3	0
17	65	1	10000	3	1	0	3	0
17	66	1	10000	3	1	0	3	0
16	67	1	10000	3	1	0	3	0
15	68	1	10000	3	1	0	3	0
14	69	1	10000	3	1	0	3	0
14	70	1	10000	3	1	0	3	0
14	71	1	10000	3	1	0	3	0
14	72	1	10000	3	1	0	3	0
13	73	1	10000	3	1	0	3	0
12	74	1	10000	3	1	0	3	0
13	75	1	10000	3	1	0	3	0
13	76	1	10000	3	1	0	3	0
13	77	1	10000	3	1	0	3	0
14	78	1	10000	3	1	0	3	0
16	79	1	10000	3	1	0	3	0
14	80	1	10000	3	1	0	3	0
13	81	1	10000	3	1	0	3	0
13	82	1	10000	3	1	0	3	0
14	83	1	10000	3	1	0	3	0
14	84	1	10000	3	1	0	3	0
14	85	1	10000	3	1	0	3	0
14	86	1	10000	3	1	0	3	0
14	87	1	10000	3	1	0	3	0
14	88	1	10000	3	1	0	3	0
13	89	1	10000	3	1	0	3	0
13	90	1	10000	3	1	0	3	0
13	91	1	10000	3	1	0	3	0
14	92	1	10000	3	1	0	3	0
12	93	1	10000	3	1	0	3	0
12	94	1	10000	3	1	0	3	0
13	95	1	10000	3	1	0	3	0
13	96	1	10000	3	1	0	3	0
15	97	1	10000	3	1	0	3	0
15	98	1	10000	3	1	0	3	0
16	99	1	10000	3	1	0	3	0
16	100	1	10000	3	1	0	3	0
15	101	1	10000	3	1	0	3	0
15	102	1	10000	3	1	0	3	0
17	103	1	10000	3	1	0	3	0
17	104	1	10000	3	1	0	3	0
16	105	1	10000	3	1	0	3	0
16	106	1	10000	3	1	0	3	0
15	107	1	10000	3	1	0	3	0
15	108	1	10000	3	1	0	3	0
15	109	1	10000	3	1	0	3	0
15	110	1	10000	3	1	0	3	0
15	111	1	10000	3	1	0	3	0
16	112	1	10000	3	1	0	3	0
13	113	1	10000	3	1	0	3	0
12	114	1	10000	3	1	0	3	0
13	115	1	10000	3	1	0	3	0
13	116	1	10000	3	1	0	3	0
14	117	1	10000	3	1	0	3	0
13	118	1	10000	3	1	0	3	0
13	119	1	10000	3	1	0	3	0
13	120	1	10000	3	1	0	3	0
13	121	1	10000	3	1	0	3	0
12	122	1	10000	3	1	0	3	0
14	123	1	10000	3	1	0	3	0
12	124	1	10000	3	1	0	3	0
12	125	1	10000	3	1	0	3	0
13	126	1	10000	3	1	0	3	0
11	127	1	10000	3	1	0	3	0
11	128	1	10000	3	1	0	3	0
11	129	1	10000	3	1	0	3	0
11	130	1	10000	3	1	0	3	0
10	131	1	10000	3	1	0	3	0
12	132	1	10000	3	1	0	3	0
9	133	1	10000	3	1	0	3	0
10	134	1	10000	3	1	0	3	0
10	135	1	10000	3	1	0	3	0
10	136	1	10000	3	1	0	3	0
10	137	1	10000	3	1	0	3	0
10	138	1	10000	3	1	0	3	0
11	139	1	10000	3	1	0	3	0
11	140	1	10000	3	1	0	3	0
11	141	1	10000	3	1	0	3	0
10	142	1	10000	3	1	0	3	0
11	143	1	10000	3	1	0	3	0
11	144	1	10000	3	1	0	3	0
11	145	1	10000	3	1	0	3	0
11	146	1	10000	3	1	0	3	0
11	147	1	10000	3	1	0	3	0
10	148	1	10000	3	1	0	3	0
10	149	1	10000	3	1	0	3	0
11	150	1	10000	3	1	0	3	0
11	151	1	10000	3	1	0	3	0
11	152	1	10000	3	1	0	3	0
9	153	1	10000	3	1	0	3	0
9	154	1	10000	3	1	0	3	0
9	155	1	10000	3	1	0	3	0
9	156	1	10000	3	1	0	3	0
9	157	1	10000	3	1	0	3	0
9	158	1	10000	3	1	0	3	0
10	159	1	10000	3	1	0	3	0
10	160	1	10000	3	1	0	3	0
9	161	1	10000	3	1	0	3	0
9	162	1	10000	3	1	0	3	0
11	163	1	10000	3	1	0	3	0
10	164	1	10000	3	1	0	3	0
10	165	1	10000	3	1	0	3	0
9	166	1	10000	3	1	0	3	0
10	167	1	10000	3	1	0	3	0
10	168	1	10000	3	1	0	3	0
10	169	1	10000	3	1	0	3	0
10	170	1	10000	3	1	0	3	0
10	171	1	10000	3	1	0	3	0
10	172	1	10000	3	1	0	3	0
9	173	1	10000	3	1	0	3	0
8	174	1	10000	3	1	0	3	0
9	175	1	10000	3	1	0	3	0
11	176	1	10000	3	1	0	3	0
10	177	1	10000	3	1	0	3	0
10	178	1	10000	3	1	0	3	0
11	179	1	10000	3	1	0	3	0
11	180	1	10000	3	1	0	3	0
11	181	1	10000	3	1	0	3	0
12	182	1	10000	3	1	0	3	0
15	183	1	10000	3	1	0	3	0
14	184	1	10000	3	1	0	3	0
14	185	1	10000	3	1	0	3	0
13	186	1	10000	3	1	0	3	0
13	187	1	10000	3	1	0	3	0
13	188	1	10000	3	1	0	3	0
12	189	1	10000	3	1	0	3	0
12	190	1	10000	3	1	0	3	0
13	191	1	10000	3	1	0	3	0
13	192	1	10000	3	1	0	3	0
12	193	1	10000	3	1	0	3	0
12	194	1	10000	3	1	0	3	0
12	195	1	10000	3	1	0	3	0
13	196	1	10000	3	1	0	3	0
13	197	1	10000	3	1	0	3	0
13	198	1	10000	3	1	0	3	0
14	199	1	10000	3	1	0	3	0
13	200	1	10000	3	1	0	3	0
13	201	1	10000	3	1	0	3	0
13	202	1	10000	3	1	0	3	0
14	203	1	10000	3	1	0	3	0
14	204	1	10000	3	1	0	3	0
13	205	1	10000	3	1	0	3	0
13	206	1	10000	3	1	0	3	0
13	207	1	10000	3	1	0	3	0
12	208	1	10000	3	1	0	3	0
13	209	1	10000	3	1	0	3	0
12	210	1	10000	3	1	0	3	0
12	211	1	10000	3	1	0	3	0
13	212	1	10000	3	1	0	3	0
11	213	1	10000	3	1	0	3	0
11	214	1	10000	3	1	0	3	0
12	215	1	10000	3	1	0	3	0
13	216	1	10000	3	1	0	3	0
14	217	1	10000	3	1	0	3	0
13	218	1	10000	3	1	0	3	0
13	219	1	10000	3	1	0	3	0
13	220	1	10000	3	1	0	3	0
12	221	1	10000	3	1	0	3	0
11	222	1	10000	3	1	0	3	0
13	223	1	10000	3	1	0	3	0
13	224	1	10000	3	1	0	3	0
12	225	1	10000	3	1	0	3	0
13	226	1	10000	3	1	0	3	0
12	227	1	10000	3	1	0	3	0
11	228	1	10000	3	1	0	3	0
12	229	1	10000	3	1	0	3	0
11	230	1	10000	3	1	0	3	0
11	231	1	10000	3	1	0	3	0
12	232	1	10000	3	1	0	3	0
10	233	1	10000	3	1	0	3	0
10	234	1	10000	3	1	0	3	0
9	235	1	10000	3	1	0	3	0
10	236	1	10000	3	1	0	3	0
9	237	1	10000	3	1	0	3	0
10	238	1	10000	3	1	0	3	0
11	239	1	10000	3	1	0	3	0
13	240	1	10000	3	1	0	3	0
16	241	1	10000	3	1	0	3	0
19	242	1	10000	3	1	0	3	0
25	243	1	10000	3	1	0	3	0
29	244	1	10000	3	1	0	3	0
30	245	1	10000	3	1	0	3	0
30	246	1	10000	3	1	0	3	0
30	247	1	10000	3	1	0	3	0
31	248	1	10000	3	1	0	3	0
32	249	1	10000	3	1	0	3	0
35	250	1	10000	3	1	0	3	0
38	251	1	10000	3	1	0	3	0
41	252	1	10000	3	1	0	3	0
39	253	1	10000	3	1	0	3	0
37	254	1	10000	3	1	0	3	0
37	255	1	10000	3	1	0	3	0
36	256	1	10000	3	1	0	3	0
37	257	1	10000	3	1	0	3	0
37	258	1	10000	3	1	0	3	0
36	259	1	10000	3	1	0	3	0
34	260	1	10000	3	1	0	3	0
33	261	1	10000	3	1	0	3	0
32	262	1	10000	3	1	0	3	0
32	263	1	10000	3	1	0	3	0
33	264	1	10000	3	1	0	3	0
33	265	1	10000	3	1	0	3	0
33	266	1	10000	3	1	0	3	0
34	267	1	10000	3	1	0	3	0
34	268	1	10000	3	1	0	3	0
33	269	1	10000	3	1	0	3	0
34	270	1	10000	3	1	0	3	0
33	271	1	10000	3	1	0	3	0
34	272	1	10000	3	1	0	3	0
32	273	1	10000	3	1	0	3	0
30	274	1	10000	3	1	0	3	0
29	275	1	10000	3	1	0	3	0
29	276	1	10000	3	1	0	3	0
28	277	1	10000	3	1	0	3	0
28	278	1	10000	3	1	0	3	0
29	279	1	10000	3	1	0	3	0
29	280	1	10000	3	1	0	3	0
28	281	1	10000	3	1	0	3	0
28	282	1	10000	3	1	0	3	0
29	283	1	10000	3	1	0	3	0
29	284	1	10000	3	1	0	3	0
30	285	1	10000	3	1	0	3	0
28	286	1	10000	3	1	0	3	0
27	287	1	10000	3	1	0	3	0
27	288	1	10000	3	1	0	3	0
28	289	1	10000	3	1	0	3	0
29	290	1	10000	3	1	0	3	0
28	291	1	10000	3	1	0	3	0
29	292	1	10000	3	1	0	3	0
28	293	1	10000	3	1	0	3	0
29	294	1	10000	3	1	0	3	0
28	295	1	10000	3	1	0	3	0
28	296	1	10000	3	1	0	3	0
27	297	1	10000	3	1	0	3	0
26	298	1	10000	3	1	0	3	0
25	299	1	10000	3	1	0	3	0
24	300	1	10000	3	1	0	3	0
23	301	1	10000	3	1	0	3	0
23	302	1	10000	3	1	0	3	0
24	303	1	10000	3	1	0	3	0
24	304	1	10000	3	1	0	3	0
23	305	1	10000	3	1	0	3	0
23	306	1	10000	3	1	0	3	0
22	307	1	10000	3	1	0	3	0
22	308	1	10000	3	1	0	3	0
21	309	1	10000	3	1	0	3	0
21	310	1	10000	3	1	0	3	0
20	311	1	10000	3	1	0	3	0
20	312	1	10000	3	1	0	3	0
20	313	1	10000	3	1	0	3	0
19	314	1	10000	3	1	0	3	0
18	315	1	10000	3	1	0	3	0
18	316	1	10000	3	1	0	3	0
18	317	1	10000	3	1	0	3	0
17	318	1	10000	3	1	0	3	0
17	319	1	10000	3	1	0	3	0
17	320	1	10000	3	1	0	3	0
16	321	1	10000	3	1	0	3	0
16	322	1	10000	3	1	0	3	0
18	323	1	10000	3	1	0	3	0
18	324	1	10000	3	1	0	3	0
18	325	1	10000	3	1	0	3	0
19	326	1	10000	3	1	0	3	0
18	327	1	10000	3	1	0	3	0
18	328	1	10000	3	1	0	3	0
18	329	1	10000	3	1	0	3	0
18	330	1	10000	3	1	0	3	0
18	331	1	10000	3	1	0	3	0
17	332	1	10000	3	1	0	3	0
15	333	1	10000	3	1	0	3	0
14	334	1	10000	3	1	0	3	0
14	335	1	10000	3	1	0	3	0
14	336	1	10000	3	1	0	3	0
13	337	1	10000	3	1	0	3	0
13	338	1	10000	3	1	0	3	0
13	339	1	10000	3	1	0	3	0
13	340	1	10000	3	1	0	3	0
13	341	1	10000	3	1	0	3	0
12	342	1	10000	3	1	0	3	0
14	343	1	10000	3	1	0	3	0
15	344	1	10000	3	1	0	3	0
15	345	1	10000	3	1	0	3	0
14	346	1	10000	3	1	0	3	0
14	347	1	10000	3	1	0	3	0
15	348	1	10000	3	1	0	3	0
16	349	1	10000	3	1	0	3	0
16	350	1	10000	3	1	0	3	0
17	351	1	10000	3	1	0	3	0
17	352	1	10000	3	1	0	3	0
15	353	1	10000	3	1	0	3	0
14	354	1	10000	3	1	0	3	0
14	355	1	10000	3	1	0	3	0
14	356	1	10000	3	1	0	3	0
14	357	1	10000	3	1	0	3	0
14	358	1	10000	3	1	0	3	0
14	359	1	10000	3	1	0	3	0
13	360	1	10000	3	1	0	3	0
13	361	1	10000	3	1	0	3	0
12	362	1	10000	3	1	0	3	0
13	363	1	10000	3	1	0	3	0
13	364	1	10000	3	1	0	3	0
12	365	1	10000	3	1	0	3	0
11	366	1	10000	3	1	0	3	0
12	367	1	10000	3	1	0	3	0
11	368	1	10000	3	1	0	3	0
11	369	1	10000	3	1	0	3	0
12	370	1	10000	3	1	0	3	0
12	371	1	10000	3	1	0	3	0
11	372	1	10000	3	1	0	3	0
11	373	1	10000	3	1	0	3	0
10	374	1	10000	3	1	0	3	0
10	375	1	10000	3	1	0	3	0
11	376	1	10000	3	1	0	3	0
12	377	1	10000	3	1	0	3	0
13	378	1	10000	3	1	0	3	0
14	379	1	10000	3	1	0	3	0
13	380	1	10000	3	1	0	3	0
12	381	1	10000	3	1	0	3	0
12	382	1	10000	3	1	0	3	0
13	383	1	10000	3	1	0	3	0
13	384	1	10000	3	1	0	3	0
13	385	1	10000	3	1	0	3	0
13	386	1	10000	3	1	0	3	0
14	387	1	10000	3	1	0	3	0
16	388	1	10000	3	1	0	3	0
15	389	1	10000	3	1	0	3	0
15	390	1	10000	3	1	0	3	0
15	391	1	10000	3	1	0	3	0
15	392	1	10000	3	1	0	3	0
13	393	1	10000	3	1	0	3	0
13	394	1	10000	3	1	0	3	0
13	395	1	10000	3	1	0	3	0
13	396	1	10000	3	1	0	3	0
13	397	1	10000	3	1	0	3	0
12	398	1	10000	3	1	0	3	0
12	399	1	10000	3	1	0	3	0
11	400	1	10000	3	1	0	3	0
11	401	1	10000	3	1	0	3	0
11	402	1	10000	3	1	0	3	0
12	403	1	10000	3	1	0	3	0
12	404	1	10000	3	1	0	3	0
11	405	1	10000	3	1	0	3	0
11	406	1	10000	3	1	0	3	0
11	407	1	10000	3	1	0	3	0
10	408	1	10000	3	1	0	3	0
10	409	1	10000	3	1	0	3	0
10	410	1	10000	3	1	0	3	0
11	411	1	10000	3	1	0	3	0
11	412	1	10000	3	1	0	3	0
10	413	1	10000	3	1	0	3	0
10	414	1	10000	3	1	0	3	0
10	415	1	10000	3	1	0	3	0
11	416	1	10000	3	1	0	3	0
13	417	1	10000	3	1	0	3	0
12	418	1	10000	3	1	0	3	0
12	419	1	10000	3	1	0	3	0
12	420	1	10000	3	1	0	3	0
11	421	1	10000	3	1	0	3	0
10	422	1	10000	3	1	0	3	0
13	423	1	10000	3	1	0	3	0
12	424	1	10000	3	1	0	3	0
11	425	1	10000	3	1	0	3	0
12	426	1	10000	3	1	0	3	0
11	427	1	10000	3	1	0	3	0
11	428	1	10000	3	1	0	3	0
11	429	1	10000	3	1	0	3	0
12	430	1	10000	3	1	0	3	0
14	431	1	10000	3	1	0	3	0
15	432	1	10000	3	1	0	3	0
14	433	1	10000	3	1	0	3	0
15	434	1	10000	3	1	0	3	0
16	435	1	10000	3	1	0	3	0
16	436	1	10000	3	1	0	3	0
17	437	1	10000	3	1	0	3	0
16	438	1	10000	3	1	0	3	0
17	439	1	10000	3	1	0	3	0
21	440	1	10000	3	1	0	3	0
27	441	1	10000	3	1	0	3	0
27	442	1	10000	3	1	0	3	0
29	443	1	10000	3	1	0	3	0
32	444	1	10000	3	1	0	3	0
33	445	1	10000	3	1	0	3	0
33	446	1	10000	3	1	0	3	0
33	447	1	10000	3	1	0	3	0
35	448	1	10000	3	1	0	3	0
37	449	1	10000	3	1	0	3	0
38	450	1	10000	3	1	0	3	0
37	451	1	10000	3	1	0	3	0
40	452	1	10000	3	1	0	3	0
41	453	1	10000	3	1	0	3	0
40	454	1	10000	3	1	0	3	0
41	455	1	10000	3	1	0	3	0
42	456	1	10000	3	1	0	3	0
45	457	1	10000	3	1	0	3	0
47	458	1	10000	3	1	0	3	0
50	459	1	10000	3	1	0	3	0
50	460	1	10000	3	1	0	3	0
50	461	1	10000	3	1	0	3	0
51	462	1	10000	3	1	0	3	0
52	463	1	10000	3	1	0	3	0
52	464	1	10000	3	1	0	3	0
50	465	1	10000	3	1	0	3	0
48	466	1	10000	3	1	0	3	0
47	467	1	10000	3	1	0	3	0
47	468	1	10000	3	1	0	3	0
48	469	1	10000	3	1	0	3	0
49	470	1	10000	3	1	0	3	0
48	471	1	10000	3	1	0	3	0
50	472	1	10000	3	1	0	3	0
48	473	1	10000	3	1	0	3	0
47	474	1	10000	3	1	0	3	0
52	475	1	10000	3	1	0	3	0
60	476	1	10000	3	1	0	3	0
60	477	1	10000	3	1	0	3	0
58	478	1	10000	3	1	0	3	0
66	479	1	10000	3	1	0	3	0
73	480	1	10000	3	1	0	3	0
72	481	1	10000	3	1	0	3	0
70	482	1	10000	3	1	0	3	0
74	483	1	10000	3	1	0	3	0
73	484	1	10000	3	1	0	3	0
74	485	1	10000	3	1	0	3	0
76	486	1	10000	3	1	0	3	0
76	487	1	10000	3	1	0	3	0
74	488	1	10000	3	1	0	3	0
75	489	1	10000	3	1	0	3	0
81	490	1	10000	3	1	0	3	0
91	491	1	10000	3	1	0	3	0
96	492	1	10000	3	1	0	3	0
92	493	1	10000	3	1	0	3	0
90	494	1	10000	3	1	0	3	0
89	495	1	10000	3	1	0	3	0
92	496	1	10000	3	1	0	3	0
98	497	1	10000	3	1	0	3	0
102	498	1	10000	3	1	0	3	0
98	499	1	10000	3	1	0	3	0
94	500	1	10000	3	1	0	3	0
90	501	1	10000	3	1	0	3	0
90	501	1	10000	3	1	0	3	1
89	502	1	10000	3	1	0	3	1
87	504	1	10000	3	1	0	3	1
86	505	1	10000	3	1	0	3	1
85	506	1	10000	3	1	0	3	1
85	507	1	10000	3	1	0	3	1
85	508	1	10000	3	1	0	3	1
85	509	1	10000	3	1	0	3	1
86	510	1	10000	3	1	0	3	1
84	511	1	10000	3	1	0	3	1
81	512	1	10000	3	1	0	3	1
78	513	1	10000	3	1	0	3	1
78	514	1	10000	3	1	0	3	1
78	515	1	10000	3	1	0	3	1
77	516	1	10000	3	1	0	3	1
79	517	1	10000	3	1	0	3	1
76	518	1	10000	3	1	0	3	1
76	519	1	10000	3	1	0	3	1
74	520	1	10000	3	1	0	3	1
70	521	1	10000	3	1	0	3	1
70	522	1	10000	3	1	0	3	1
72	523	1	10000	3	1	0	3	1
71	524	1	10000	3	1	0	3	1
69	525	1	10000	3	1	0	3	1
69	526	1	10000	3	1	0	3	1
67	527	1	10000	3	1	0	3	1
67	528	1	10000	3	1	0	3	1
66	529	1	10000	3	1	0	3	1
66	530	1	10000	3	1	0	3	1
68	531	1	10000	3	1	0	3	1
72	532	1	10000	3	1	0	3	1
75	533	1	10000	3	1	0	3	1
80	534	1	10000	3	1	0	3	1
81	535	1	10000	3	1	0	3	1
85	536	1	10000	3	1	0	3	1
89	537	1	10000	3	1	0	3	1
91	538	1	10000	3	1	0	3	1
94	539	1	10000	3	1	0	3	1
97	540	1	10000	3	1	0	3	1
100	541	1	10000	3	1	0	3	1
101	542	1	10000	3	1	0	3	1
104	543	1	10000	3	1	0	3	1
107	544	1	10000	3	1	0	3	1
109	545	1	10000	3	1	0	3	1
112	546	1	10000	3	1	0	3	1
114	547	1	10000	3	1	0	3	1
116	548	1	10000	3	1	0	3	1
119	549	1	10000	3	1	0	3	1
124	550	1	10000	3	1	0	3	1
128	551	1	10000	3	1	0	3	1
134	552	1	10000	3	1	0	3	0
139	553	1	10000	3	1	0	3	0
143	554	1	10000	3	1	0	3	0
150	555	1	10000	3	1	0	3	0
154	556	1	10000	3	1	0	3	0
155	557	1	10000	3	1	0	3	0
157	558	1	10000	3	1	0	3	0
158	559	1	10000	3	1	0	3	0
159	560	1	10000	3	1	0	3	0
159	561	1	10000	3	1	0	3	0
158	562	1	10000	3	1	0	3	0
159	563	1	10000	3	1	0	3	0
160	564	1	10000	3	1	0	3	0
160	565	1	10000	3	1	0	3	0
160	566	1	10000	3	1	0	3	0
161	567	1	10000	3	1	0	3	0
161	568	1	10000	3	1	0	3	0
161	569	1	10000	3	1	0	3	0
163	570	1	10000	3	1	0	3	0
163	571	1	10000	3	1	0	3	0
163	572	1	10000	3	1	0	3	0
161	573	1	10000	3	1	0	3	0
158	574	1	10000	3	1	0	3	0
154	575	1	10000	3	1	0	3	0
151	576	1	10000	3	1	0	3	0
147	577	1	10000	3	1	0	3	0
143	578	1	10000	3	1	0	3	0
140	579	1	10000	3	1	0	3	0
135	580	1	10000	3	1	0	3	0
131	581	1	10000	3	1	0	3	0
128	582	1	10000	3	1	0	3	0
126	583	1	10000	3	1	0	3	0
122	584	1	10000	3	1	0	3	0
118	585	1	10000	3	1	0	3	0
114	586	1	10000	3	1	0	3	0
109	587	1	10000	3	1	0	3	0
104	588	1	10000	3	1	0	3	0
107	589	1	10000	3	1	0	3	0
121	590	1	10000	3	1	0	3	0
136	591	1	10000	3	1	0	3	0
138	592	1	10000	3	1	0	3	0
145	593	1	10000	3	1	0	3	0
146	594	1	10000	3	1	0	3	0
161	595	1	10000	3	1	0	3	0
169	596	1	10000	3	1	0	3	0
163	597	1	10000	3	1	0	3	0
159	598	1	10000	3	1	0	3	0
169	599	1	10000	3	1	0	3	0
184	600	1	10000	3	1	0	3	0
200	601	1	10000	3	1	0	3	0
203	602	1	10000	3	1	0	3	0
205	603	1	10000	3	1	0	3	0
219	604	1	10000	3	1	0	3	0
225	605	1	10000	3	1	0	3	0
251	606	1	10000	3	1	0	3	0
259	607	1	10000	3	1	0	3	0
256	608	1	10000	3	1	0	3	0
250	609	1	10000	3	1	0	3	0
259	610	1	10000	3	1	0	3	0
255	611	1	10000	3	1	0	3	0
252	612	1	10000	3	1	0	3	0
253	613	1	10000	3	1	0	3	0
252	614	1	10000	3	1	0	3	0
247	615	1	10000	3	1	0	3	0
263	616	1	10000	3	1	0	3	0
261	617	1	10000	3	1	0	3	0
250	618	1	10000	3	1	0	3	0
244	619	1	10000	3	1	0	3	0
238	620	1	10000	3	1	0	3	0
237	621	1	10000	3	1	0	3	0
238	622	1	10000	3	1	0	3	0
244	623	1	10000	3	1	0	3	0
254	624	1	10000	3	1	0	3	0
273	625	1	10000	3	1	0	3	0
289	626	1	10000	3	1	0	3	0
313	627	1	10000	3	1	0	3	0
322	628	1	10000	3	1	0	3	0
317	629	1	10000	3	1	0	3	0
305	630	1	10000	3	1	0	3	0
299	631	1	10000	3	1	0	3	0
288	632	1	10000	3	1	0	3	0
273	633	1	10000	3	1	0	3	0
261	634	1	10000	3	1	0	3	0
253	635	1	10000	3	1	0	3	0
246	636	1	10000	3	1	0	3	0
242	637	1	10000	3	1	0	3	0
238	638	1	10000	3	1	0	3	0
235	639	1	10000	3	1	0	3	0
231	640	1	10000	3	1	0	3	0
225	641	1	10000	3	1	0	3	0
217	642	1	10000	3	1	0	3	0
211	643	1	10000	3	1	0	3	0
202	644	1	10000	3	1	0	3	0
193	645	1	10000	3	1	0	3	0
185	646	1	10000	3	1	0	3	0
178	647	1	10000	3	1	0	3	0
173	648	1	10000	3	1	0	3	0
167	649	1	10000	3	1	0	3	0
164	650	1	10000	3	1	0	3	0
160	651	1	10000	3	1	0	3	0
157	652	1	10000	3	1	0	3	0
153	653	1	10000	3	1	0	3	0
151	654	1	10000	3	1	0	3	0
151	655	1	10000	3	1	0	3	0
152	656	1	10000	3	1	0	3	0
152	657	1	10000	3	1	0	3	0
155	658	1	10000	3	1	0	3	0
157	659	1	10000	3	1	0	3	0
160	660	1	10000	3	1	0	3	0
164	661	1	10000	3	1	0	3	0
165	662	1	10000	3	1	0	3	0
170	663	1	10000	3	1	0	3	0
172	664	1	10000	3	1	0	3	0
173	665	1	10000	3	1	0	3	0
174	666	1	10000	3	1	0	3	0
175	667	1	10000	3	1	0	3	0
176	668	1	10000	3	1	0	3	0
176	669	1	10000	3	1	0	3	0
176	670	1	10000	3	1	0	3	0
176	671	1	10000	3	1	0	3	0
177	672	1	10000	3	1	0	3	0
175	673	1	10000	3	1	0	3	0
174	674	1	10000	3	1	0	3	0
174	675	1	10000	3	1	0	3	0
173	676	1	10000	3	1	0	3	0
172	677	1	10000	3	1	0	3	0
170	678	1	10000	3	1	0	3	0
168	679	1	10000	3	1	0	3	0
163	680	1	10000	3	1	0	3	0
160	681	1	10000	3	1	0	3	0
158	682	1	10000	3	1	0	3	0
156	683	1	10000	3	1	0	3	0
154	684	1	10000	3	1	0	3	0
151	685	1	10000	3	1	0	3	0
148	686	1	10000	3	1	0	3	0
142	687	1	10000	3	1	0	3	0
136	688	1	10000	3	1	0	3	0
129	689	1	10000	3	1	0	3	0
124	690	1	10000	3	1	0	3	0
118	691	1	10000	3	1	0	3	0
114	692	1	10000	3	1	0	3	0
107	693	1	10000	3	1	0	3	0
103	694	1	10000	3	1	0	3	0
99	695	1	10000	3	1	0	3	0
96	696	1	10000	3	1	0	3	0
93	697	1	10000	3	1	0	3	0
90	698	1	10000	3	1	0	3	0
88	699	1	10000	3	1	0	3	0
84	700	1	10000	3	1	0	3	0
82	701	1	10000	3	1	0	3	0
81	702	1	10000	3	1	0	3	0
80	703	1	10000	3	1	0	3	0
79	704	1	10000	3	1	0	3	0
79	705	1	10000	3	1	0	3	0
79	706	1	10000	3	1	0	3	0
79	707	1	10000	3	1	0	3	0
80	708	1	10000	3	1	0	3	0
79	709	1	10000	3	1	0	3	0
81	710	1	10000	3	1	0	3	0
83	711	1	10000	3	1	0	3	0
84	712	1	10000	3	1	0	3	0
83	713	1	10000	3	1	0	3	0
82	714	1	10000	3	1	0	3	0
83	715	1	10000	3	1	0	3	0
84	716	1	10000	3	1	0	3	0
85	717	1	10000	3	1	0	3	0
86	718	1	10000	3	1	0	3	0
86	719	1	10000	3	1	0	3	0
88	720	1	10000	3	1	0	3	0
88	721	1	10000	3	1	0	3	0
89	722	1	10000	3	1	0	3	0
92	723	1	10000	3	1	0	3	0
92	724	1	10000	3	1	0	3	0
92	725	1	10000	3	1	0	3	0
92	726	1	10000	3	1	0	3	0
92	727	1	10000	3	1	0	3	0
93	728	1	10000	3	1	0	3	0
93	729	1	10000	3	1	0	3	0
94	730	1	10000	3	1	0	3	0
95	731	1	10000	3	1	0	3	0
96	732	1	10000	3	1	0	3	0
94	733	1	10000	3	1	0	3	0
94	734	1	10000	3	1	0	3	0
94	735	1	10000	3	1	0	3	0
94	736	1	10000	3	1	0	3	0
94	737	1	10000	3	1	0	3	0
93	738	1	10000	3	1	0	3	0
92	739	1	10000	3	1	0	3	0
91	740	1	10000	3	1	0	3	0
89	741	1	10000	3	1	0	3	0
86	742	1	10000	3	1	0	3	0
87	743	1	10000	3	1	0	3	0
85	744	1	10000	3	1	0	3	0
84	745	1	10000	3	1	0	3	0
85	746	1	10000	3	1	0	3	0
84	747	1	10000	3	1	0	3	0
84	748	1	10000	3	1	0	3	0
83	749	1	10000	3	1	0	3	0
82	750	1	10000	3	1	0	3	0
81	751	1	10000	3	1	0	3	0
80	752	1	10000	3	1	0	3	0
76	753	1	10000	3	1	0	3	0
75	754	1	10000	3	1	0	3	0
75	755	1	10000	3	1	0	3	0
73	756	1	10000	3	1	0	3	0
72	757	1	10000	3	1	0	3	0
71	758	1	10000	3	1	0	3	0
70	759	1	10000	3	1	0	3	0
68	760	1	10000	3	1	0	3	0
65	761	1	10000	3	1	0	3	0
63	762	1	10000	3	1	0	3	0
66	763	1	10000	3	1	0	3	0
66	764	1	10000	3	1	0	3	0
65	765	1	10000	3	1	0	3	0
61	766	1	10000	3	1	0	3	0
60	767	1	10000	3	1	0	3	0
57	768	1	10000	3	1	0	3	0
56	769	1	10000	3	1	0	3	0
56	770	1	10000	3	1	0	3	0
54	771	1	10000	3	1	0	3	0
54	772	1	10000	3	1	0	3	0
52	773	1	10000	3	1	0	3	0
51	774	1	10000	3	1	0	3	0
49	775	1	10000	3	1	0	3	0
49	776	1	10000	3	1	0	3	0
49	777	1	10000	3	1	0	3	0
48	778	1	10000	3	1	0	3	0
46	779	1	10000	3	1	0	3	0
44	780	1	10000	3	1	0	3	0
42	781	1	10000	3	1	0	3	0
41	782	1	10000	3	1	0	3	0
43	783	1	10000	3	1	0	3	0
43	784	1	10000	3	1	0	3	0
43	785	1	10000	3	1	0	3	0
43	786	1	10000	3	1	0	3	0
44	787	1	10000	3	1	0	3	0
44	788	1	10000	3	1	0	3	0
43	789	1	10000	3	1	0	3	0
43	790	1	10000	3	1	0	3	0
47	791	1	10000	3	1	0	3	0
49	792	1	10000	3	1	0	3	0
48	793	1	10000	3	1	0	3	0
50	794	1	10000	3	1	0	3	0
53	795	1	10000	3	1	0	3	0
54	796	1	10000	3	1	0	3	0
55	797	1	10000	3	1	0	3	0
59	798	1	10000	3	1	0	3	0
64	799	1	10000	3	1	0	3	0
62	800	1	10000	3	1	0	3	0
59	801	1	10000	3	1	0	3	0
60	802	1	10000	3	1	0	3	0
64	803	1	10000	3	1	0	3	0
67	804	1	10000	3	1	0	3	0
67	805	1	10000	3	1	0	3	0
71	806	1	10000	3	1	0	3	0
85	807	1	10000	3	1	0	3	0
86	808	1	10000	3	1	0	3	0
92	809	1	10000	3	1	0	3	0
94	810	1	10000	3	1	0	3	0
92	811	1	10000	3	1	0	3	0
91	812	1	10000	3	1	0	3	0
90	813	1	10000	3	1	0	3	0
86	814	1	10000	3	1	0	3	0
83	815	1	10000	3	1	0	3	0
86	816	1	10000	3	1	0	3	0
90	817	1	10000	3	1	0	3	0
87	818	1	10000	3	1	0	3	0
84	819	1	10000	3	1	0	3	0
87	820	1	10000	3	1	0	3	0
87	821	1	10000	3	1	0	3	0
85	822	1	10000	3	1	0	3	0
86	823	1	10000	3	1	0	3	0
87	824	1	10000	3	1	0	3	0
94	825	1	10000	3	1	0	3	0
100	826	1	10000	3	1	0	3	0
103	827	1	10000	3	1	0	3	0
107	828	1	10000	3	1	0	3	0
108	829	1	10000	3	1	0	3	0
105	830	1	10000	3	1	0	3	0
105	831	1	10000	3	1	0	3	0
107	832	1	10000	3	1	0	3	0
104	833	1	10000	3	1	0	3	0
101	834	1	10000	3	1	0	3	0
101	835	1	10000	3	1	0	3	0
99	836	1	10000	3	1	0	3	0
96	837	1	10000	3	1	0	3	0
97	838	1	10000	3	1	0	3	0
99	839	1	10000	3	1	0	3	0
99	840	1	10000	3	1	0	3	0
103	841	1	10000	3	1	0	3	0
113	842	1	10000	3	1	0	3	0
123	843	1	10000	3	1	0	3	0
123	844	1	10000	3	1	0	3	0
117	845	1	10000	3	1	0	3	0
114	846	1	10000	3	1	0	3	0
112	847	1	10000	3	1	0	3	0
114	848	1	10000	3	1	0	3	0
117	849	1	10000	3	1	0	3	0
121	850	1	10000	3	1	0	3	0
126	851	1	10000	3	1	0	3	0
131	852	1	10000	3	1	0	3	0
130	853	1	10000	3	1	0	3	0
134	854	1	10000	3	1	0	3	0
140	855	1	10000	3	1	0	3	0
147	856	1	10000	3	1	0	3	0
155	857	1	10000	3	1	0	3	0
158	858	1	10000	3	1	0	3	0
158	859	1	10000	3	1	0	3	0
151	860	1	10000	3	1	0	3	0
146	861	1	10000	3	1	0	3	0
140	862	1	10000	3	1	0	3	0
137	863	1	10000	3	1	0	3	0
134	864	1	10000	3	1	0	3	0
129	865	1	10000	3	1	0	3	0
125	866	1	10000	3	1	0	3	0
121	867	1	10000	3	1	0	3	0
116	868	1	10000	3	1	0	3	0
111	869	1	10000	3	1	0	3	0
107	870	1	10000	3	1	0	3	0
103	871	1	10000	3	1	0	3	0
100	872	1	10000	3	1	0	3	0
97	873	1	10000	3	1	0	3	0
96	874	1	10000	3	1	0	3	0
94	875	1	10000	3	1	0	3	0
94	876	1	10000	3	1	0	3	0
96	877	1	10000	3	1	0	3	0
98	878	1	10000	3	1	0	3	0
102	879	1	10000	3	1	0	3	0
106	880	1	10000	3	1	0	3	0
109	881	1	10000	3	1	0	3	0
112	882	1	10000	3	1	0	3	0
115	883	1	10000	3	1	0	3	0
118	884	1	10000	3	1	0	3	0
121	885	1	10000	3	1	0	3	0
124	886	1	10000	3	1	0	3	0
128	887	1	10000	3	1	0	3	0
128	888	1	10000	3	1	0	3	0
136	889	1	10000	3	1	0	3	0
150	890	1	10000	3	1	0	3	0
161	891	1	10000	3	1	0	3	0
170	892	1	10000	3	1	0	3	0
177	893	1	10000	3	1	0	3	0
184	894	1	10000	3	1	0	3	0
191	895	1	10000	3	1	0	3	0
200	896	1	10000	3	1	0	3	0
207	897	1	10000	3	1	0	3	0
216	898	1	10000	3	1	0	3	0
227	899	1	10000	3	1	0	3	0
236	900	1	10000	3	1	0	3	0
243	901	1	10000	3	1	0	3	0
252	902	1	10000	3	1	0	3	0
259	903	1	10000	3	1	0	3	0
266	904	1	10000	3	1	0	3	0
272	905	1	10000	3	1	0	3	0
278	906	1	10000	3	1	0	3	0
283	907	1	10000	3	1	0	3	0
287	908	1	10000	3	1	0	3	0
290	909	1	10000	3	1	0	3	0
292	910	1	10000	3	1	0	3	0
294	911	1	10000	3	1	0	3	0
294	912	1	10000	3	1	0	3	0
293	913	1	10000	3	1	0	3	0
292	914	1	10000	3	1	0	3	0
290	915	1	10000	3	1	0	3	0
289	916	1	10000	3	1	0	3	0
287	917	1	10000	3	1	0	3	0
284	918	1	10000	3	1	0	3	0
281	919	1	10000	3	1	0	3	0
277	920	1	10000	3	1	0	3	0
272	921	1	10000	3	1	0	3	0
266	922	1	10000	3	1	0	3	0
262	923	1	10000	3	1	0	3	0
256	924	1	10000	3	1	0	3	0
248	925	1	10000	3	1	0	3	0
240	926	1	10000	3	1	0	3	0
231	927	1	10000	3	1	0	3	0
222	928	1	10000	3	1	0	3	0
212	929	1	10000	3	1	0	3	0
203	930	1	10000	3	1	0	3	0
194	931	1	10000	3	1	0	3	0
187	932	1	10000	3	1	0	3	0
177	933	1	10000	3	1	0	3	0
170	934	1	10000	3	1	0	3	0
163	935	1	10000	3	1	0	3	0
156	936	1	10000	3	1	0	3	0
152	937	1	10000	3	1	0	3	0
148	938	1	10000	3	1	0	3	0
144	939	1	10000	3	1	0	3	0
140	940	1	10000	3	1	0	3	0
137	941	1	10000	3	1	0	3	0
132	942	1	10000	3	1	0	3	0
130	943	1	10000	3	1	0	3	0
126	944	1	10000	3	1	0	3	0
122	945	1	10000	3	1	0	3	0
120	946	1	10000	3	1	0	3	0
117	947	1	10000	3	1	0	3	0
116	948	1	10000	3	1	0	3	0
115	949	1	10000	3	1	0	3	0
114	950	1	10000	3	1	0	3	0
113	951	1	10000	3	1	0	3	0
113	952	1	10000	3	1	0	3	0
111	953	1	10000	3	1	0	3	0
110	954	1	10000	3	1	0	3	0
111	955	1	10000	3	1	0	3	0
110	956	1	10000	3	1	0	3	0
109	957	1	10000	3	1	0	3	0
107	958	1	10000	3	1	0	3	0
106	959	1	10000	3	1	0	3	0
104	960	1	10000	3	1	0	3	0
102	961	1	10000	3	1	0	3	0
103	962	1	10000	3	1	0	3	0
104	963	1	10000	3	1	0	3	0
104	964	1	10000	3	1	0	3	0
104	965	1	10000	3	1	0	3	0
102	966	1	10000	3	1	0	3	0
102	967	1	10000	3	1	0	3	0
101	968	1	10000	3	1	0	3	0
99	969	1	10000	3	1	0	3	0
99	970	1	10000	3	1	0	3	0
99	971	1	10000	3	1	0	3	0
99	972	1	10000	3	1	0	3	0
97	973	1	10000	3	1	0	3	0
96	974	1	10000	3	1	0	3	0
97	975	1	10000	3	1	0	3	0
97	976	1	10000	3	1	0	3	0
96	977	1	10000	3	1	0	3	0
95	978	1	10000	3	1	0	3	0
95	979	1	10000	3	1	0	3	0
94	980	1	10000	3	1	0	3	0
91	981	1	10000	3	1	0	3	0
90	982	1	10000	3	1	0	3	0
89	983	1	10000	3	1	0	3	0
88	984	1	10000	3	1	0	3	0
86	985	1	10000	3	1	0	3	0
84	986	1	10000	3	1	0	3	0
84	987	1	10000	3	1	0	3	0
85	988	1	10000	3	1	0	3	0
85	989	1	10000	3	1	0	3	0
86	990	1	10000	3	1	0	3	0
85	991	1	10000	3	1	0	3	0
86	992	1	10000	3	1	0	3	0
83	993	1	10000	3	1	0	3	0
80	994	1	10000	3	1	0	3	0
80	995	1	10000	3	1	0	3	0
79	996	1	10000	3	1	0	3	0
77	997	1	10000	3	1	0	3	0
76	998	1	10000	3	1	0	3	0
75	999	1	10000	3	1	0	3	0
73	1000	1	10000	3	1	0	3	0
71	1001	1	10000	3	1	0	3	0
100	1	0	10000	4	1	0	4	0
99	2	0	10000	4	1	0	4	0
98	3	0	10000	4	1	0	4	0
103	4	0	10000	4	1	0	4	0
104	5	0	10000	4	1	0	4	0
105	6	0	10000	4	1	0	4	0
104	7	0	10000	4	1	0	4	0
106	8	0	10000	4	1	0	4	0
108	9	0	10000	4	1	0	4	0
110	10	0	10000	4	1	0	4	0
111	11	0	10000	4	1	0	4	0
117	12	0	10000	4	1	0	4	0
122	13	0	10000	4	1	0	4	0
127	14	0	10000	4	1	0	4	0
127	15	0	10000	4	1	0	4	0
131	16	0	10000	4	1	0	4	0
132	17	0	10000	4	1	0	4	0
136	18	0	10000	4	1	0	4	0
136	19	0	10000	4	1	0	4	0
131	20	0	10000	4	1	0	4	0
130	20	0	10000	4	1	0	4	0
130	21	0	10000	4	1	0	4	0
132	23	0	10000	4	1	0	4	0
133	24	0	10000	4	1	0	4	0
129	25	0	10000	4	1	0	4	0
125	26	0	10000	4	1	0	4	0
119	27	0	10000	4	1	0	4	0
116	28	0	10000	4	1	0	4	0
112	29	0	10000	4	1	0	4	0
110	30	0	10000	4	1	0	4	0
108	30	0	10000	4	1	0	4	0
107	31	0	10000	4	1	0	4	0
109	33	0	10000	4	1	0	4	0
106	34	0	10000	4	1	0	4	0
102	35	0	10000	4	1	0	4	0
99	36	0	10000	4	1	0	4	0
95	37	0	10000	4	1	0	4	0
92	38	0	10000	4	1	0	4	0
89	39	0	10000	4	1	0	4	0
86	40	0	10000	4	1	0	4	0
84	40	0	10000	4	1	0	4	0
83	41	0	10000	4	1	0	4	0
82	43	0	10000	4	1	0	4	0
80	44	0	10000	4	1	0	4	0
80	45	0	10000	4	1	0	4	0
78	46	0	10000	4	1	0	4	0
76	47	0	10000	4	1	0	4	0
73	48	0	10000	4	1	0	4	0
71	49	0	10000	4	1	0	4	0
72	50	0	10000	4	1	0	4	0
69	50	0	10000	4	1	0	4	0
69	51	0	10000	4	1	0	4	0
68	53	0	10000	4	1	0	4	0
66	54	0	10000	4	1	0	4	0
67	55	0	10000	4	1	0	4	0
66	56	0	10000	4	1	0	4	0
66	57	0	10000	4	1	0	4	0
62	58	0	10000	4	1	0	4	0
60	59	0	10000	4	1	0	4	0
57	60	0	10000	4	1	0	4	0
57	60	0	10000	4	1	0	4	0
56	61	0	10000	4	1	0	4	0
56	63	0	10000	4	1	0	4	0
56	64	0	10000	4	1	0	4	0
56	65	0	10000	4	1	0	4	0
56	66	0	10000	4	1	0	4	0
55	67	0	10000	4	1	0	4	0
57	68	0	10000	4	1	0	4	0
55	69	0	10000	4	1	0	4	0
56	70	0	10000	4	1	0	4	0
53	70	0	10000	4	1	0	4	0
50	71	0	10000	4	1	0	4	0
50	73	0	10000	4	1	0	4	0
50	74	0	10000	4	1	0	4	0
49	75	0	10000	4	1	0	4	0
50	76	0	10000	4	1	0	4	0
52	77	0	10000	4	1	0	4	0
51	78	0	10000	4	1	0	4	0
51	79	0	10000	4	1	0	4	0
53	80	0	10000	4	1	0	4	0
55	80	0	10000	4	1	0	4	0
53	81	0	10000	4	1	0	4	0
51	83	0	10000	4	1	0	4	0
48	84	0	10000	4	1	0	4	0
47	85	0	10000	4	1	0	4	0
46	86	0	10000	4	1	0	4	0
44	87	0	10000	4	1	0	4	0
43	88	0	10000	4	1	0	4	0
42	89	0	10000	4	1	0	4	0
42	90	0	10000	4	1	0	4	0
44	90	0	10000	4	1	0	4	0
44	91	0	10000	4	1	0	4	0
44	93	0	10000	4	1	0	4	0
43	94	0	10000	4	1	0	4	0
43	95	0	10000	4	1	0	4	0
44	96	0	10000	4	1	0	4	0
46	97	0	10000	4	1	0	4	0
47	98	0	10000	4	1	0	4	0
48	99	0	10000	4	1	0	4	0
50	100	0	10000	4	1	0	4	0
51	100	0	10000	4	1	0	4	0
50	101	0	10000	4	1	0	4	0
49	103	0	10000	4	1	0	4	0
47	104	0	10000	4	1	0	4	0
48	105	0	10000	4	1	0	4	0
47	106	0	10000	4	1	0	4	0
46	107	0	10000	4	1	0	4	0
46	108	0	10000	4	1	0	4	0
46	109	0	10000	4	1	0	4	0
44	110	0	10000	4	1	0	4	0
41	110	0	10000	4	1	0	4	0
39	111	0	10000	4	1	0	4	0
39	113	0	10000	4	1	0	4	0
38	114	0	10000	4	1	0	4	0
39	115	0	10000	4	1	0	4	0
39	116	0	10000	4	1	0	4	0
41	117	0	10000	4	1	0	4	0
42	118	0	10000	4	1	0	4	0
43	119	0	10000	4	1	0	4	0
44	120	0	10000	4	1	0	4	0
46	120	0	10000	4	1	0	4	0
46	121	0	10000	4	1	0	4	0
44	123	0	10000	4	1	0	4	0
43	124	0	10000	4	1	0	4	0
42	125	0	10000	4	1	0	4	0
41	126	0	10000	4	1	0	4	0
40	127	0	10000	4	1	0	4	0
39	128	0	10000	4	1	0	4	0
37	129	0	10000	4	1	0	4	0
38	130	0	10000	4	1	0	4	0
38	130	0	10000	4	1	0	4	0
37	131	0	10000	4	1	0	4	0
37	133	0	10000	4	1	0	4	0
37	134	0	10000	4	1	0	4	0
39	135	0	10000	4	1	0	4	0
41	136	0	10000	4	1	0	4	0
42	137	0	10000	4	1	0	4	0
42	138	0	10000	4	1	0	4	0
39	139	0	10000	4	1	0	4	0
38	140	0	10000	4	1	0	4	0
39	140	0	10000	4	1	0	4	0
37	141	0	10000	4	1	0	4	0
35	143	0	10000	4	1	0	4	0
35	144	0	10000	4	1	0	4	0
35	145	0	10000	4	1	0	4	0
36	146	0	10000	4	1	0	4	0
37	147	0	10000	4	1	0	4	0
39	148	0	10000	4	1	0	4	0
42	149	0	10000	4	1	0	4	0
43	150	0	10000	4	1	0	4	0
39	150	0	10000	4	1	0	4	0
37	151	0	10000	4	1	0	4	0
39	153	0	10000	4	1	0	4	0
38	154	0	10000	4	1	0	4	0
37	155	0	10000	4	1	0	4	0
36	156	0	10000	4	1	0	4	0
35	157	0	10000	4	1	0	4	0
34	158	0	10000	4	1	0	4	0
34	159	0	10000	4	1	0	4	0
33	160	0	10000	4	1	0	4	0
34	160	0	10000	4	1	0	4	0
34	161	0	10000	4	1	0	4	0
34	163	0	10000	4	1	0	4	0
32	164	0	10000	4	1	0	4	0
33	165	0	10000	4	1	0	4	0
32	166	0	10000	4	1	0	4	0
33	167	0	10000	4	1	0	4	0
33	168	0	10000	4	1	0	4	0
32	169	0	10000	4	1	0	4	0
32	170	0	10000	4	1	0	4	0
29	170	0	10000	4	1	0	4	0
29	171	0	10000	4	1	0	4	0
28	173	0	10000	4	1	0	4	0
28	174	0	10000	4	1	0	4	0
28	175	0	10000	4	1	0	4	0
28	176	0	10000	4	1	0	4	0
28	177	0	10000	4	1	0	4	0
28	178	0	10000	4	1	0	4	0
28	179	0	10000	4	1	0	4	0
27	180	0	10000	4	1	0	4	0
27	180	0	10000	4	1	0	4	0
27	181	0	10000	4	1	0	4	0
26	183	0	10000	4	1	0	4	0
25	184	0	10000	4	1	0	4	0
26	185	0	10000	4	1	0	4	0
25	186	0	10000	4	1	0	4	0
24	187	0	10000	4	1	0	4	0
27	188	0	10000	4	1	0	4	0
27	189	0	10000	4	1	0	4	0
29	190	0	10000	4	1	0	4	0
27	190	0	10000	4	1	0	4	0
27	191	0	10000	4	1	0	4	0
27	193	0	10000	4	1	0	4	0
27	194	0	10000	4	1	0	4	0
26	195	0	10000	4	1	0	4	0
25	196	0	10000	4	1	0	4	0
26	197	0	10000	4	1	0	4	0
26	198	0	10000	4	1	0	4	0
26	199	0	10000	4	1	0	4	0
25	200	0	10000	4	1	0	4	0
27	200	0	10000	4	1	0	4	0
27	201	0	10000	4	1	0	4	0
25	203	0	10000	4	1	0	4	0
27	204	0	10000	4	1	0	4	0
27	205	0	10000	4	1	0	4	0
27	206	0	10000	4	1	0	4	0
27	207	0	10000	4	1	0	4	0
27	208	0	10000	4	1	0	4	0
26	209	0	10000	4	1	0	4	0
25	210	0	10000	4	1	0	4	0
22	210	0	10000	4	1	0	4	0
23	211	0	10000	4	1	0	4	0
23	213	0	10000	4	1	0	4	0
25	214	0	10000	4	1	0	4	0
25	215	0	10000	4	1	0	4	0
26	216	0	10000	4	1	0	4	0
26	217	0	10000	4	1	0	4	0
25	218	0	10000	4	1	0	4	0
26	219	0	10000	4	1	0	4	0
25	220	0	10000	4	1	0	4	0
27	220	0	10000	4	1	0	4	0
27	221	0	10000	4	1	0	4	0
26	223	0	10000	4	1	0	4	0
26	224	0	10000	4	1	0	4	0
26	225	0	10000	4	1	0	4	0
28	226	0	10000	4	1	0	4	0
29	227	0	10000	4	1	0	4	0
29	228	0	10000	4	1	0	4	0
31	229	0	10000	4	1	0	4	0
31	230	0	10000	4	1	0	4	0
29	230	0	10000	4	1	0	4	0
30	231	0	10000	4	1	0	4	0
32	233	0	10000	4	1	0	4	0
32	234	0	10000	4	1	0	4	0
31	235	0	10000	4	1	0	4	0
30	236	0	10000	4	1	0	4	0
32	237	0	10000	4	1	0	4	0
32	238	0	10000	4	1	0	4	0
31	239	0	10000	4	1	0	4	0
31	240	0	10000	4	1	0	4	0
34	240	0	10000	4	1	0	4	0
35	241	0	10000	4	1	0	4	0
34	243	0	10000	4	1	0	4	0
33	244	0	10000	4	1	0	4	0
31	244	0	10000	4	1	0	4	0
31	245	0	10000	4	1	0	4	0
32	247	0	10000	4	1	0	4	0
31	248	0	10000	4	1	0	4	0
32	249	0	10000	4	1	0	4	0
31	250	0	10000	4	1	0	4	0
28	250	0	10000	4	1	0	4	0
31	251	0	10000	4	1	0	4	0
33	253	0	10000	4	1	0	4	0
34	254	0	10000	4	1	0	4	0
33	254	0	10000	4	1	0	4	0
33	255	0	10000	4	1	0	4	0
33	256	0	10000	4	1	0	4	0
32	257	0	10000	4	1	0	4	0
31	258	0	10000	4	1	0	4	0
31	259	0	10000	4	1	0	4	0
36	260	0	10000	4	1	0	4	0
38	261	0	10000	4	1	0	4	0
36	262	0	10000	4	1	0	4	0
35	263	0	10000	4	1	0	4	0
34	264	0	10000	4	1	0	4	0
34	265	0	10000	4	1	0	4	0
34	266	0	10000	4	1	0	4	0
37	267	0	10000	4	1	0	4	0
39	268	0	10000	4	1	0	4	0
39	269	0	10000	4	1	0	4	0
37	270	0	10000	4	1	0	4	0
38	271	0	10000	4	1	0	4	0
38	272	0	10000	4	1	0	4	0
36	273	0	10000	4	1	0	4	0
35	274	0	10000	4	1	0	4	0
36	275	0	10000	4	1	0	4	0
35	276	0	10000	4	1	0	4	0
34	277	0	10000	4	1	0	4	0
34	278	0	10000	4	1	0	4	0
33	279	0	10000	4	1	0	4	0
35	280	0	10000	4	1	0	4	0
35	281	0	10000	4	1	0	4	0
33	282	0	10000	4	1	0	4	0
31	283	0	10000	4	1	0	4	0
31	284	0	10000	4	1	0	4	0
29	285	0	10000	4	1	0	4	0
28	286	0	10000	4	1	0	4	0
29	287	0	10000	4	1	0	4	0
28	288	0	10000	4	1	0	4	0
29	289	0	10000	4	1	0	4	0
27	290	0	10000	4	1	0	4	0
26	291	0	10000	4	1	0	4	0
25	292	0	10000	4	1	0	4	0
25	293	0	10000	4	1	0	4	0
25	294	0	10000	4	1	0	4	0
24	295	0	10000	4	1	0	4	0
24	296	0	10000	4	1	0	4	0
23	297	0	10000	4	1	0	4	0
22	298	0	10000	4	1	0	4	0
22	299	0	10000	4	1	0	4	0
23	300	0	10000	4	1	0	4	0
22	301	0	10000	4	1	0	4	0
21	302	0	10000	4	1	0	4	0
20	303	0	10000	4	1	0	4	0
20	304	0	10000	4	1	0	4	0
19	305	0	10000	4	1	0	4	0
21	306	0	10000	4	1	0	4	0
22	307	0	10000	4	1	0	4	0
21	308	0	10000	4	1	0	4	0
22	309	0	10000	4	1	0	4	0
22	310	0	10000	4	1	0	4	0
22	311	0	10000	4	1	0	4	0
22	312	0	10000	4	1	0	4	0
21	313	0	10000	4	1	0	4	0
21	314	0	10000	4	1	0	4	0
20	315	0	10000	4	1	0	4	0
21	316	0	10000	4	1	0	4	0
20	317	0	10000	4	1	0	4	0
20	318	0	10000	4	1	0	4	0
19	319	0	10000	4	1	0	4	0
20	320	0	10000	4	1	0	4	0
20	321	0	10000	4	1	0	4	0
20	322	0	10000	4	1	0	4	0
18	323	0	10000	4	1	0	4	0
18	324	0	10000	4	1	0	4	0
19	325	0	10000	4	1	0	4	0
17	326	0	10000	4	1	0	4	0
18	327	0	10000	4	1	0	4	0
18	328	0	10000	4	1	0	4	0
17	329	0	10000	4	1	0	4	0
15	330	0	10000	4	1	0	4	0
15	331	0	10000	4	1	0	4	0
14	332	0	10000	4	1	0	4	0
14	333	0	10000	4	1	0	4	0
14	334	0	10000	4	1	0	4	0
13	335	0	10000	4	1	0	4	0
13	336	0	10000	4	1	0	4	0
12	337	0	10000	4	1	0	4	0
13	338	0	10000	4	1	0	4	0
13	339	0	10000	4	1	0	4	0
15	340	0	10000	4	1	0	4	0
14	341	0	10000	4	1	0	4	0
13	342	0	10000	4	1	0	4	0
14	343	0	10000	4	1	0	4	0
14	344	0	10000	4	1	0	4	0
14	345	0	10000	4	1	0	4	0
14	346	0	10000	4	1	0	4	0
14	347	0	10000	4	1	0	4	0
15	348	0	10000	4	1	0	4	0
16	349	0	10000	4	1	0	4	0
13	350	0	10000	4	1	0	4	0
13	351	0	10000	4	1	0	4	0
14	352	0	10000	4	1	0	4	0
14	353	0	10000	4	1	0	4	0
14	354	0	10000	4	1	0	4	0
14	355	0	10000	4	1	0	4	0
14	356	0	10000	4	1	0	4	0
12	357	0	10000	4	1	0	4	0
13	358	0	10000	4	1	0	4	0
13	359	0	10000	4	1	0	4	0
14	360	0	10000	4	1	0	4	0
14	361	0	10000	4	1	0	4	0
14	362	0	10000	4	1	0	4	0
14	363	0	10000	4	1	0	4	0
14	364	0	10000	4	1	0	4	0
13	365	0	10000	4	1	0	4	0
13	366	0	10000	4	1	0	4	0
13	367	0	10000	4	1	0	4	0
14	368	0	10000	4	1	0	4	0
17	369	0	10000	4	1	0	4	0
16	370	0	10000	4	1	0	4	0
17	371	0	10000	4	1	0	4	0
19	372	0	10000	4	1	0	4	0
20	373	0	10000	4	1	0	4	0
21	374	0	10000	4	1	0	4	0
22	375	0	10000	4	1	0	4	0
22	376	0	10000	4	1	0	4	0
22	377	0	10000	4	1	0	4	0
23	378	0	10000	4	1	0	4	0
25	379	0	10000	4	1	0	4	0
30	380	0	10000	4	1	0	4	0
32	381	0	10000	4	1	0	4	0
34	382	0	10000	4	1	0	4	0
33	383	0	10000	4	1	0	4	0
32	384	0	10000	4	1	0	4	0
32	385	0	10000	4	1	0	4	0
30	386	0	10000	4	1	0	4	0
30	387	0	10000	4	1	0	4	0
29	388	0	10000	4	1	0	4	0
28	389	0	10000	4	1	0	4	0
26	390	0	10000	4	1	0	4	0
25	391	0	10000	4	1	0	4	0
25	392	0	10000	4	1	0	4	0
25	393	0	10000	4	1	0	4	0
26	394	0	10000	4	1	0	4	0
28	395	0	10000	4	1	0	4	0
28	396	0	10000	4	1	0	4	0
28	397	0	10000	4	1	0	4	0
27	398	0	10000	4	1	0	4	0
26	399	0	10000	4	1	0	4	0
26	400	0	10000	4	1	0	4	0
25	401	0	10000	4	1	0	4	0
24	402	0	10000	4	1	0	4	0
23	403	0	10000	4	1	0	4	0
23	404	0	10000	4	1	0	4	0
24	405	0	10000	4	1	0	4	0
22	406	0	10000	4	1	0	4	0
22	407	0	10000	4	1	0	4	0
22	408	0	10000	4	1	0	4	0
21	409	0	10000	4	1	0	4	0
19	410	0	10000	4	1	0	4	0
19	411	0	10000	4	1	0	4	0
20	412	0	10000	4	1	0	4	0
20	413	0	10000	4	1	0	4	0
20	414	0	10000	4	1	0	4	0
20	415	0	10000	4	1	0	4	0
22	416	0	10000	4	1	0	4	0
20	417	0	10000	4	1	0	4	0
19	418	0	10000	4	1	0	4	0
19	419	0	10000	4	1	0	4	0
20	420	0	10000	4	1	0	4	0
20	421	0	10000	4	1	0	4	0
19	422	0	10000	4	1	0	4	0
18	423	0	10000	4	1	0	4	0
17	424	0	10000	4	1	0	4	0
17	425	0	10000	4	1	0	4	0
17	426	0	10000	4	1	0	4	0
17	427	0	10000	4	1	0	4	0
17	428	0	10000	4	1	0	4	0
18	429	0	10000	4	1	0	4	0
18	430	0	10000	4	1	0	4	0
18	431	0	10000	4	1	0	4	0
18	432	0	10000	4	1	0	4	0
18	433	0	10000	4	1	0	4	0
18	434	0	10000	4	1	0	4	0
18	435	0	10000	4	1	0	4	0
19	436	0	10000	4	1	0	4	0
18	437	0	10000	4	1	0	4	0
18	438	0	10000	4	1	0	4	0
18	439	0	10000	4	1	0	4	0
21	440	0	10000	4	1	0	4	0
21	441	0	10000	4	1	0	4	0
21	442	0	10000	4	1	0	4	0
20	443	0	10000	4	1	0	4	0
19	444	0	10000	4	1	0	4	0
18	445	0	10000	4	1	0	4	0
18	446	0	10000	4	1	0	4	0
19	447	0	10000	4	1	0	4	0
19	448	0	10000	4	1	0	4	0
20	449	0	10000	4	1	0	4	0
17	450	0	10000	4	1	0	4	0
16	451	0	10000	4	1	0	4	0
16	452	0	10000	4	1	0	4	0
18	453	0	10000	4	1	0	4	0
19	454	0	10000	4	1	0	4	0
18	455	0	10000	4	1	0	4	0
19	456	0	10000	4	1	0	4	0
20	457	0	10000	4	1	0	4	0
20	458	0	10000	4	1	0	4	0
20	459	0	10000	4	1	0	4	0
22	460	0	10000	4	1	0	4	0
20	461	0	10000	4	1	0	4	0
20	462	0	10000	4	1	0	4	0
21	463	0	10000	4	1	0	4	0
20	464	0	10000	4	1	0	4	0
22	465	0	10000	4	1	0	4	0
23	466	0	10000	4	1	0	4	0
24	467	0	10000	4	1	0	4	0
23	468	0	10000	4	1	0	4	0
23	469	0	10000	4	1	0	4	0
21	470	0	10000	4	1	0	4	0
21	471	0	10000	4	1	0	4	0
22	472	0	10000	4	1	0	4	0
22	473	0	10000	4	1	0	4	0
23	474	0	10000	4	1	0	4	0
24	475	0	10000	4	1	0	4	0
23	476	0	10000	4	1	0	4	0
22	477	0	10000	4	1	0	4	0
21	478	0	10000	4	1	0	4	0
22	479	0	10000	4	1	0	4	0
23	480	0	10000	4	1	0	4	0
23	481	0	10000	4	1	0	4	0
21	482	0	10000	4	1	0	4	0
20	483	0	10000	4	1	0	4	0
20	484	0	10000	4	1	0	4	0
20	485	0	10000	4	1	0	4	0
20	486	0	10000	4	1	0	4	0
21	487	0	10000	4	1	0	4	0
21	488	0	10000	4	1	0	4	0
22	489	0	10000	4	1	0	4	0
20	490	0	10000	4	1	0	4	0
19	491	0	10000	4	1	0	4	0
19	492	0	10000	4	1	0	4	0
19	493	0	10000	4	1	0	4	0
19	494	0	10000	4	1	0	4	0
20	495	0	10000	4	1	0	4	0
20	496	0	10000	4	1	0	4	0
19	497	0	10000	4	1	0	4	0
18	498	0	10000	4	1	0	4	0
18	499	0	10000	4	1	0	4	0
20	500	0	10000	4	1	0	4	0
20	501	0	10000	4	1	0	4	0
20	502	0	10000	4	1	0	4	1
20	503	0	10000	4	1	0	4	1
20	504	0	10000	4	1	0	4	1
19	505	0	10000	4	1	0	4	1
19	506	0	10000	4	1	0	4	1
20	507	0	10000	4	1	0	4	1
20	508	0	10000	4	1	0	4	1
20	509	0	10000	4	1	0	4	1
19	510	0	10000	4	1	0	4	1
18	511	0	10000	4	1	0	4	1
18	512	0	10000	4	1	0	4	1
18	513	0	10000	4	1	0	4	1
17	514	0	10000	4	1	0	4	1
17	515	0	10000	4	1	0	4	1
17	516	0	10000	4	1	0	4	1
15	517	0	10000	4	1	0	4	1
14	518	0	10000	4	1	0	4	1
15	519	0	10000	4	1	0	4	1
18	520	0	10000	4	1	0	4	1
18	521	0	10000	4	1	0	4	1
18	522	0	10000	4	1	0	4	1
19	523	0	10000	4	1	0	4	1
19	524	0	10000	4	1	0	4	1
18	525	0	10000	4	1	0	4	1
17	526	0	10000	4	1	0	4	1
18	527	0	10000	4	1	0	4	1
18	528	0	10000	4	1	0	4	1
18	529	0	10000	4	1	0	4	1
16	530	0	10000	4	1	0	4	1
16	531	0	10000	4	1	0	4	1
15	532	0	10000	4	1	0	4	1
16	533	0	10000	4	1	0	4	1
16	534	0	10000	4	1	0	4	1
15	535	0	10000	4	1	0	4	1
15	536	0	10000	4	1	0	4	1
15	537	0	10000	4	1	0	4	1
14	538	0	10000	4	1	0	4	1
15	539	0	10000	4	1	0	4	1
17	540	0	10000	4	1	0	4	1
17	541	0	10000	4	1	0	4	1
16	542	0	10000	4	1	0	4	1
16	543	0	10000	4	1	0	4	1
15	544	0	10000	4	1	0	4	1
16	545	0	10000	4	1	0	4	1
16	546	0	10000	4	1	0	4	1
16	547	0	10000	4	1	0	4	1
16	548	0	10000	4	1	0	4	1
16	549	0	10000	4	1	0	4	1
14	550	0	10000	4	1	0	4	1
15	551	0	10000	4	1	0	4	1
15	552	0	10000	4	1	0	4	0
15	553	0	10000	4	1	0	4	0
16	554	0	10000	4	1	0	4	0
15	555	0	10000	4	1	0	4	0
15	556	0	10000	4	1	0	4	0
14	557	0	10000	4	1	0	4	0
14	558	0	10000	4	1	0	4	0
14	559	0	10000	4	1	0	4	0
16	560	0	10000	4	1	0	4	0
18	561	0	10000	4	1	0	4	0
18	562	0	10000	4	1	0	4	0
18	563	0	10000	4	1	0	4	0
19	564	0	10000	4	1	0	4	0
21	565	0	10000	4	1	0	4	0
23	566	0	10000	4	1	0	4	0
24	567	0	10000	4	1	0	4	0
23	568	0	10000	4	1	0	4	0
24	569	0	10000	4	1	0	4	0
21	570	0	10000	4	1	0	4	0
22	571	0	10000	4	1	0	4	0
23	572	0	10000	4	1	0	4	0
26	573	0	10000	4	1	0	4	0
25	574	0	10000	4	1	0	4	0
28	575	0	10000	4	1	0	4	0
30	576	0	10000	4	1	0	4	0
30	577	0	10000	4	1	0	4	0
29	578	0	10000	4	1	0	4	0
29	579	0	10000	4	1	0	4	0
31	580	0	10000	4	1	0	4	0
32	581	0	10000	4	1	0	4	0
31	582	0	10000	4	1	0	4	0
33	583	0	10000	4	1	0	4	0
35	584	0	10000	4	1	0	4	0
41	585	0	10000	4	1	0	4	0
45	586	0	10000	4	1	0	4	0
57	587	0	10000	4	1	0	4	0
74	588	0	10000	4	1	0	4	0
79	589	0	10000	4	1	0	4	0
73	590	0	10000	4	1	0	4	0
74	591	0	10000	4	1	0	4	0
75	592	0	10000	4	1	0	4	0
82	593	0	10000	4	1	0	4	0
95	594	0	10000	4	1	0	4	0
103	595	0	10000	4	1	0	4	0
123	596	0	10000	4	1	0	4	0
194	597	0	10000	4	1	0	4	0
211	598	0	10000	4	1	0	4	0
238	599	0	10000	4	1	0	4	0
254	600	0	10000	4	1	0	4	0
251	601	0	10000	4	1	0	4	0
255	602	0	10000	4	1	0	4	0
251	603	0	10000	4	1	0	4	0
261	604	0	10000	4	1	0	4	0
256	605	0	10000	4	1	0	4	0
263	606	0	10000	4	1	0	4	0
261	607	0	10000	4	1	0	4	0
250	608	0	10000	4	1	0	4	0
244	609	0	10000	4	1	0	4	0
244	610	0	10000	4	1	0	4	0
282	611	0	10000	4	1	0	4	0
329	612	0	10000	4	1	0	4	0
338	613	0	10000	4	1	0	4	0
329	614	0	10000	4	1	0	4	0
323	615	0	10000	4	1	0	4	0
334	616	0	10000	4	1	0	4	0
366	617	0	10000	4	1	0	4	0
396	618	0	10000	4	1	0	4	0
429	619	0	10000	4	1	0	4	0
467	620	0	10000	4	1	0	4	0
460	621	0	10000	4	1	0	4	0
469	622	0	10000	4	1	0	4	0
487	623	0	10000	4	1	0	4	0
488	624	0	10000	4	1	0	4	0
474	625	0	10000	4	1	0	4	0
455	626	0	10000	4	1	0	4	0
442	627	0	10000	4	1	0	4	0
432	628	0	10000	4	1	0	4	0
423	629	0	10000	4	1	0	4	0
414	630	0	10000	4	1	0	4	0
407	631	0	10000	4	1	0	4	0
400	632	0	10000	4	1	0	4	0
394	633	0	10000	4	1	0	4	0
388	634	0	10000	4	1	0	4	0
383	635	0	10000	4	1	0	4	0
378	636	0	10000	4	1	0	4	0
370	637	0	10000	4	1	0	4	0
361	638	0	10000	4	1	0	4	0
353	639	0	10000	4	1	0	4	0
345	640	0	10000	4	1	0	4	0
334	641	0	10000	4	1	0	4	0
321	642	0	10000	4	1	0	4	0
305	643	0	10000	4	1	0	4	0
291	644	0	10000	4	1	0	4	0
279	645	0	10000	4	1	0	4	0
267	646	0	10000	4	1	0	4	0
260	647	0	10000	4	1	0	4	0
256	648	0	10000	4	1	0	4	0
251	649	0	10000	4	1	0	4	0
248	650	0	10000	4	1	0	4	0
250	651	0	10000	4	1	0	4	0
253	652	0	10000	4	1	0	4	0
256	653	0	10000	4	1	0	4	0
258	654	0	10000	4	1	0	4	0
261	655	0	10000	4	1	0	4	0
266	656	0	10000	4	1	0	4	0
270	657	0	10000	4	1	0	4	0
273	658	0	10000	4	1	0	4	0
276	659	0	10000	4	1	0	4	0
282	660	0	10000	4	1	0	4	0
287	661	0	10000	4	1	0	4	0
291	662	0	10000	4	1	0	4	0
297	663	0	10000	4	1	0	4	0
304	664	0	10000	4	1	0	4	0
312	665	0	10000	4	1	0	4	0
319	666	0	10000	4	1	0	4	0
325	667	0	10000	4	1	0	4	0
330	668	0	10000	4	1	0	4	0
333	669	0	10000	4	1	0	4	0
335	670	0	10000	4	1	0	4	0
338	671	0	10000	4	1	0	4	0
340	672	0	10000	4	1	0	4	0
341	673	0	10000	4	1	0	4	0
341	674	0	10000	4	1	0	4	0
340	675	0	10000	4	1	0	4	0
338	676	0	10000	4	1	0	4	0
335	677	0	10000	4	1	0	4	0
333	678	0	10000	4	1	0	4	0
330	679	0	10000	4	1	0	4	0
328	680	0	10000	4	1	0	4	0
323	681	0	10000	4	1	0	4	0
318	682	0	10000	4	1	0	4	0
313	683	0	10000	4	1	0	4	0
306	684	0	10000	4	1	0	4	0
298	685	0	10000	4	1	0	4	0
292	686	0	10000	4	1	0	4	0
285	687	0	10000	4	1	0	4	0
278	688	0	10000	4	1	0	4	0
271	689	0	10000	4	1	0	4	0
261	690	0	10000	4	1	0	4	0
254	691	0	10000	4	1	0	4	0
246	692	0	10000	4	1	0	4	0
236	693	0	10000	4	1	0	4	0
226	694	0	10000	4	1	0	4	0
217	695	0	10000	4	1	0	4	0
208	696	0	10000	4	1	0	4	0
199	697	0	10000	4	1	0	4	0
191	698	0	10000	4	1	0	4	0
184	699	0	10000	4	1	0	4	0
181	700	0	10000	4	1	0	4	0
176	701	0	10000	4	1	0	4	0
172	702	0	10000	4	1	0	4	0
170	703	0	10000	4	1	0	4	0
168	704	0	10000	4	1	0	4	0
166	705	0	10000	4	1	0	4	0
164	706	0	10000	4	1	0	4	0
163	707	0	10000	4	1	0	4	0
161	708	0	10000	4	1	0	4	0
159	709	0	10000	4	1	0	4	0
154	710	0	10000	4	1	0	4	0
152	711	0	10000	4	1	0	4	0
151	712	0	10000	4	1	0	4	0
149	713	0	10000	4	1	0	4	0
146	714	0	10000	4	1	0	4	0
144	715	0	10000	4	1	0	4	0
144	716	0	10000	4	1	0	4	0
143	717	0	10000	4	1	0	4	0
142	718	0	10000	4	1	0	4	0
141	719	0	10000	4	1	0	4	0
142	720	0	10000	4	1	0	4	0
143	721	0	10000	4	1	0	4	0
144	722	0	10000	4	1	0	4	0
146	723	0	10000	4	1	0	4	0
149	724	0	10000	4	1	0	4	0
151	725	0	10000	4	1	0	4	0
152	726	0	10000	4	1	0	4	0
153	727	0	10000	4	1	0	4	0
152	728	0	10000	4	1	0	4	0
150	729	0	10000	4	1	0	4	0
147	730	0	10000	4	1	0	4	0
143	731	0	10000	4	1	0	4	0
140	732	0	10000	4	1	0	4	0
139	733	0	10000	4	1	0	4	0
136	734	0	10000	4	1	0	4	0
134	735	0	10000	4	1	0	4	0
134	736	0	10000	4	1	0	4	0
131	737	0	10000	4	1	0	4	0
130	738	0	10000	4	1	0	4	0
130	739	0	10000	4	1	0	4	0
131	740	0	10000	4	1	0	4	0
131	741	0	10000	4	1	0	4	0
132	742	0	10000	4	1	0	4	0
131	743	0	10000	4	1	0	4	0
129	744	0	10000	4	1	0	4	0
129	745	0	10000	4	1	0	4	0
129	746	0	10000	4	1	0	4	0
128	747	0	10000	4	1	0	4	0
126	748	0	10000	4	1	0	4	0
123	749	0	10000	4	1	0	4	0
118	750	0	10000	4	1	0	4	0
115	751	0	10000	4	1	0	4	0
114	752	0	10000	4	1	0	4	0
110	753	0	10000	4	1	0	4	0
108	754	0	10000	4	1	0	4	0
106	755	0	10000	4	1	0	4	0
104	756	0	10000	4	1	0	4	0
101	757	0	10000	4	1	0	4	0
99	758	0	10000	4	1	0	4	0
98	759	0	10000	4	1	0	4	0
98	760	0	10000	4	1	0	4	0
97	761	0	10000	4	1	0	4	0
96	762	0	10000	4	1	0	4	0
96	763	0	10000	4	1	0	4	0
96	764	0	10000	4	1	0	4	0
95	765	0	10000	4	1	0	4	0
93	766	0	10000	4	1	0	4	0
92	767	0	10000	4	1	0	4	0
90	768	0	10000	4	1	0	4	0
88	769	0	10000	4	1	0	4	0
82	770	0	10000	4	1	0	4	0
78	771	0	10000	4	1	0	4	0
75	772	0	10000	4	1	0	4	0
72	773	0	10000	4	1	0	4	0
69	774	0	10000	4	1	0	4	0
66	775	0	10000	4	1	0	4	0
63	776	0	10000	4	1	0	4	0
62	777	0	10000	4	1	0	4	0
60	778	0	10000	4	1	0	4	0
58	779	0	10000	4	1	0	4	0
59	780	0	10000	4	1	0	4	0
57	781	0	10000	4	1	0	4	0
56	782	0	10000	4	1	0	4	0
55	783	0	10000	4	1	0	4	0
54	784	0	10000	4	1	0	4	0
54	785	0	10000	4	1	0	4	0
54	786	0	10000	4	1	0	4	0
52	787	0	10000	4	1	0	4	0
51	788	0	10000	4	1	0	4	0
49	789	0	10000	4	1	0	4	0
46	790	0	10000	4	1	0	4	0
46	791	0	10000	4	1	0	4	0
46	792	0	10000	4	1	0	4	0
45	793	0	10000	4	1	0	4	0
44	794	0	10000	4	1	0	4	0
43	795	0	10000	4	1	0	4	0
41	796	0	10000	4	1	0	4	0
40	797	0	10000	4	1	0	4	0
38	798	0	10000	4	1	0	4	0
37	799	0	10000	4	1	0	4	0
40	800	0	10000	4	1	0	4	0
41	801	0	10000	4	1	0	4	0
41	802	0	10000	4	1	0	4	0
42	803	0	10000	4	1	0	4	0
42	804	0	10000	4	1	0	4	0
41	805	0	10000	4	1	0	4	0
39	806	0	10000	4	1	0	4	0
39	807	0	10000	4	1	0	4	0
38	808	0	10000	4	1	0	4	0
38	809	0	10000	4	1	0	4	0
37	810	0	10000	4	1	0	4	0
37	811	0	10000	4	1	0	4	0
35	812	0	10000	4	1	0	4	0
34	813	0	10000	4	1	0	4	0
33	814	0	10000	4	1	0	4	0
33	815	0	10000	4	1	0	4	0
33	816	0	10000	4	1	0	4	0
32	817	0	10000	4	1	0	4	0
32	818	0	10000	4	1	0	4	0
31	819	0	10000	4	1	0	4	0
32	820	0	10000	4	1	0	4	0
31	821	0	10000	4	1	0	4	0
29	822	0	10000	4	1	0	4	0
28	823	0	10000	4	1	0	4	0
29	824	0	10000	4	1	0	4	0
28	825	0	10000	4	1	0	4	0
27	826	0	10000	4	1	0	4	0
27	827	0	10000	4	1	0	4	0
28	828	0	10000	4	1	0	4	0
28	829	0	10000	4	1	0	4	0
27	830	0	10000	4	1	0	4	0
26	831	0	10000	4	1	0	4	0
27	832	0	10000	4	1	0	4	0
26	833	0	10000	4	1	0	4	0
25	834	0	10000	4	1	0	4	0
24	835	0	10000	4	1	0	4	0
25	836	0	10000	4	1	0	4	0
25	837	0	10000	4	1	0	4	0
25	838	0	10000	4	1	0	4	0
23	839	0	10000	4	1	0	4	0
24	840	0	10000	4	1	0	4	0
24	841	0	10000	4	1	0	4	0
23	842	0	10000	4	1	0	4	0
24	843	0	10000	4	1	0	4	0
24	844	0	10000	4	1	0	4	0
24	845	0	10000	4	1	0	4	0
24	846	0	10000	4	1	0	4	0
24	847	0	10000	4	1	0	4	0
24	848	0	10000	4	1	0	4	0
24	849	0	10000	4	1	0	4	0
23	850	0	10000	4	1	0	4	0
23	851	0	10000	4	1	0	4	0
24	852	0	10000	4	1	0	4	0
24	853	0	10000	4	1	0	4	0
25	854	0	10000	4	1	0	4	0
24	855	0	10000	4	1	0	4	0
24	856	0	10000	4	1	0	4	0
23	857	0	10000	4	1	0	4	0
22	858	0	10000	4	1	0	4	0
21	859	0	10000	4	1	0	4	0
22	860	0	10000	4	1	0	4	0
23	861	0	10000	4	1	0	4	0
23	862	0	10000	4	1	0	4	0
23	863	0	10000	4	1	0	4	0
23	864	0	10000	4	1	0	4	0
23	865	0	10000	4	1	0	4	0
24	866	0	10000	4	1	0	4	0
26	867	0	10000	4	1	0	4	0
27	868	0	10000	4	1	0	4	0
27	869	0	10000	4	1	0	4	0
26	870	0	10000	4	1	0	4	0
27	871	0	10000	4	1	0	4	0
27	872	0	10000	4	1	0	4	0
27	873	0	10000	4	1	0	4	0
27	874	0	10000	4	1	0	4	0
25	875	0	10000	4	1	0	4	0
26	876	0	10000	4	1	0	4	0
25	877	0	10000	4	1	0	4	0
24	878	0	10000	4	1	0	4	0
22	879	0	10000	4	1	0	4	0
24	880	0	10000	4	1	0	4	0
23	881	0	10000	4	1	0	4	0
22	882	0	10000	4	1	0	4	0
21	883	0	10000	4	1	0	4	0
21	884	0	10000	4	1	0	4	0
21	885	0	10000	4	1	0	4	0
21	886	0	10000	4	1	0	4	0
21	887	0	10000	4	1	0	4	0
21	888	0	10000	4	1	0	4	0
21	889	0	10000	4	1	0	4	0
20	890	0	10000	4	1	0	4	0
22	891	0	10000	4	1	0	4	0
23	892	0	10000	4	1	0	4	0
23	893	0	10000	4	1	0	4	0
23	894	0	10000	4	1	0	4	0
22	895	0	10000	4	1	0	4	0
22	896	0	10000	4	1	0	4	0
20	897	0	10000	4	1	0	4	0
21	898	0	10000	4	1	0	4	0
19	899	0	10000	4	1	0	4	0
20	900	0	10000	4	1	0	4	0
21	901	0	10000	4	1	0	4	0
20	902	0	10000	4	1	0	4	0
19	903	0	10000	4	1	0	4	0
20	904	0	10000	4	1	0	4	0
20	905	0	10000	4	1	0	4	0
20	906	0	10000	4	1	0	4	0
21	907	0	10000	4	1	0	4	0
21	908	0	10000	4	1	0	4	0
21	909	0	10000	4	1	0	4	0
19	910	0	10000	4	1	0	4	0
20	911	0	10000	4	1	0	4	0
20	912	0	10000	4	1	0	4	0
19	913	0	10000	4	1	0	4	0
19	914	0	10000	4	1	0	4	0
19	915	0	10000	4	1	0	4	0
18	916	0	10000	4	1	0	4	0
19	917	0	10000	4	1	0	4	0
18	918	0	10000	4	1	0	4	0
17	919	0	10000	4	1	0	4	0
19	920	0	10000	4	1	0	4	0
20	921	0	10000	4	1	0	4	0
18	922	0	10000	4	1	0	4	0
17	923	0	10000	4	1	0	4	0
17	924	0	10000	4	1	0	4	0
16	925	0	10000	4	1	0	4	0
16	926	0	10000	4	1	0	4	0
16	927	0	10000	4	1	0	4	0
16	928	0	10000	4	1	0	4	0
16	929	0	10000	4	1	0	4	0
14	930	0	10000	4	1	0	4	0
15	931	0	10000	4	1	0	4	0
16	932	0	10000	4	1	0	4	0
18	933	0	10000	4	1	0	4	0
18	934	0	10000	4	1	0	4	0
18	935	0	10000	4	1	0	4	0
17	936	0	10000	4	1	0	4	0
16	937	0	10000	4	1	0	4	0
16	938	0	10000	4	1	0	4	0
16	939	0	10000	4	1	0	4	0
17	940	0	10000	4	1	0	4	0
17	941	0	10000	4	1	0	4	0
16	942	0	10000	4	1	0	4	0
16	943	0	10000	4	1	0	4	0
17	944	0	10000	4	1	0	4	0
17	945	0	10000	4	1	0	4	0
18	946	0	10000	4	1	0	4	0
19	947	0	10000	4	1	0	4	0
19	948	0	10000	4	1	0	4	0
19	949	0	10000	4	1	0	4	0
16	950	0	10000	4	1	0	4	0
16	951	0	10000	4	1	0	4	0
16	952	0	10000	4	1	0	4	0
17	953	0	10000	4	1	0	4	0
18	954	0	10000	4	1	0	4	0
19	955	0	10000	4	1	0	4	0
20	956	0	10000	4	1	0	4	0
19	957	0	10000	4	1	0	4	0
19	958	0	10000	4	1	0	4	0
19	959	0	10000	4	1	0	4	0
21	960	0	10000	4	1	0	4	0
21	961	0	10000	4	1	0	4	0
22	962	0	10000	4	1	0	4	0
22	963	0	10000	4	1	0	4	0
23	964	0	10000	4	1	0	4	0
24	965	0	10000	4	1	0	4	0
24	966	0	10000	4	1	0	4	0
26	967	0	10000	4	1	0	4	0
27	968	0	10000	4	1	0	4	0
25	969	0	10000	4	1	0	4	0
23	970	0	10000	4	1	0	4	0
23	971	0	10000	4	1	0	4	0
23	972	0	10000	4	1	0	4	0
23	973	0	10000	4	1	0	4	0
22	974	0	10000	4	1	0	4	0
22	975	0	10000	4	1	0	4	0
23	976	0	10000	4	1	0	4	0
22	977	0	10000	4	1	0	4	0
23	978	0	10000	4	1	0	4	0
24	979	0	10000	4	1	0	4	0
26	980	0	10000	4	1	0	4	0
27	981	0	10000	4	1	0	4	0
26	982	0	10000	4	1	0	4	0
25	983	0	10000	4	1	0	4	0
24	984	0	10000	4	1	0	4	0
24	985	0	10000	4	1	0	4	0
23	986	0	10000	4	1	0	4	0
23	987	0	10000	4	1	0	4	0
23	988	0	10000	4	1	0	4	0
23	989	0	10000	4	1	0	4	0
20	990	0	10000	4	1	0	4	0
20	991	0	10000	4	1	0	4	0
19	992	0	10000	4	1	0	4	0
19	993	0	10000	4	1	0	4	0
19	994	0	10000	4	1	0	4	0
18	995	0	10000	4	1	0	4	0
18	996	0	10000	4	1	0	4	0
18	997	0	10000	4	1	0	4	0
18	998	0	10000	4	1	0	4	0
17	999	0	10000	4	1	0	4	0
18	1000	0	10000	4	1	0	4	0
18	1001	0	10000	4	1	0	4	0
14	1	10	10000	5	1	0	5	0
15	2	10	10000	5	1	0	5	0
14	3	10	10000	5	1	0	5	0
14	4	10	10000	5	1	0	5	0
15	5	10	10000	5	1	0	5	0
15	6	10	10000	5	1	0	5	0
15	7	10	10000	5	1	0	5	0
15	8	10	10000	5	1	0	5	0
14	9	10	10000	5	1	0	5	0
13	10	10	10000	5	1	0	5	0
15	11	10	10000	5	1	0	5	0
14	12	10	10000	5	1	0	5	0
14	13	10	10000	5	1	0	5	0
14	14	10	10000	5	1	0	5	0
13	15	10	10000	5	1	0	5	0
12	16	10	10000	5	1	0	5	0
11	17	10	10000	5	1	0	5	0
12	18	10	10000	5	1	0	5	0
12	19	10	10000	5	1	0	5	0
12	20	10	10000	5	1	0	5	0
10	21	10	10000	5	1	0	5	0
10	22	10	10000	5	1	0	5	0
11	23	10	10000	5	1	0	5	0
12	24	10	10000	5	1	0	5	0
12	25	10	10000	5	1	0	5	0
13	26	10	10000	5	1	0	5	0
14	27	10	10000	5	1	0	5	0
16	28	10	10000	5	1	0	5	0
18	29	10	10000	5	1	0	5	0
21	30	10	10000	5	1	0	5	0
25	31	10	10000	5	1	0	5	0
26	32	10	10000	5	1	0	5	0
28	33	10	10000	5	1	0	5	0
28	34	10	10000	5	1	0	5	0
28	35	10	10000	5	1	0	5	0
28	36	10	10000	5	1	0	5	0
28	37	10	10000	5	1	0	5	0
30	38	10	10000	5	1	0	5	0
33	39	10	10000	5	1	0	5	0
33	40	10	10000	5	1	0	5	0
32	41	10	10000	5	1	0	5	0
32	42	10	10000	5	1	0	5	0
32	43	10	10000	5	1	0	5	0
32	44	10	10000	5	1	0	5	0
32	45	10	10000	5	1	0	5	0
34	46	10	10000	5	1	0	5	0
36	47	10	10000	5	1	0	5	0
36	48	10	10000	5	1	0	5	0
36	49	10	10000	5	1	0	5	0
35	50	10	10000	5	1	0	5	0
36	51	10	10000	5	1	0	5	0
35	52	10	10000	5	1	0	5	0
34	53	10	10000	5	1	0	5	0
33	54	10	10000	5	1	0	5	0
33	55	10	10000	5	1	0	5	0
32	56	10	10000	5	1	0	5	0
32	57	10	10000	5	1	0	5	0
32	58	10	10000	5	1	0	5	0
32	59	10	10000	5	1	0	5	0
31	60	10	10000	5	1	0	5	0
28	61	10	10000	5	1	0	5	0
27	62	10	10000	5	1	0	5	0
27	63	10	10000	5	1	0	5	0
25	64	10	10000	5	1	0	5	0
25	65	10	10000	5	1	0	5	0
25	66	10	10000	5	1	0	5	0
25	67	10	10000	5	1	0	5	0
25	68	10	10000	5	1	0	5	0
26	69	10	10000	5	1	0	5	0
27	70	10	10000	5	1	0	5	0
29	71	10	10000	5	1	0	5	0
30	72	10	10000	5	1	0	5	0
31	73	10	10000	5	1	0	5	0
29	74	10	10000	5	1	0	5	0
28	75	10	10000	5	1	0	5	0
28	76	10	10000	5	1	0	5	0
27	77	10	10000	5	1	0	5	0
27	78	10	10000	5	1	0	5	0
27	79	10	10000	5	1	0	5	0
27	80	10	10000	5	1	0	5	0
26	81	10	10000	5	1	0	5	0
26	82	10	10000	5	1	0	5	0
25	83	10	10000	5	1	0	5	0
25	84	10	10000	5	1	0	5	0
23	85	10	10000	5	1	0	5	0
23	86	10	10000	5	1	0	5	0
23	87	10	10000	5	1	0	5	0
22	88	10	10000	5	1	0	5	0
22	89	10	10000	5	1	0	5	0
23	90	10	10000	5	1	0	5	0
24	91	10	10000	5	1	0	5	0
24	92	10	10000	5	1	0	5	0
23	93	10	10000	5	1	0	5	0
22	94	10	10000	5	1	0	5	0
21	95	10	10000	5	1	0	5	0
21	96	10	10000	5	1	0	5	0
21	97	10	10000	5	1	0	5	0
21	98	10	10000	5	1	0	5	0
21	99	10	10000	5	1	0	5	0
20	100	10	10000	5	1	0	5	0
17	101	10	10000	5	1	0	5	0
18	102	10	10000	5	1	0	5	0
18	103	10	10000	5	1	0	5	0
17	104	10	10000	5	1	0	5	0
17	105	10	10000	5	1	0	5	0
17	106	10	10000	5	1	0	5	0
17	107	10	10000	5	1	0	5	0
16	108	10	10000	5	1	0	5	0
16	109	10	10000	5	1	0	5	0
16	110	10	10000	5	1	0	5	0
17	111	10	10000	5	1	0	5	0
17	112	10	10000	5	1	0	5	0
16	113	10	10000	5	1	0	5	0
16	114	10	10000	5	1	0	5	0
15	115	10	10000	5	1	0	5	0
15	116	10	10000	5	1	0	5	0
14	117	10	10000	5	1	0	5	0
14	118	10	10000	5	1	0	5	0
14	119	10	10000	5	1	0	5	0
14	120	10	10000	5	1	0	5	0
12	121	10	10000	5	1	0	5	0
12	122	10	10000	5	1	0	5	0
12	123	10	10000	5	1	0	5	0
12	124	10	10000	5	1	0	5	0
12	125	10	10000	5	1	0	5	0
12	126	10	10000	5	1	0	5	0
12	127	10	10000	5	1	0	5	0
11	128	10	10000	5	1	0	5	0
11	129	10	10000	5	1	0	5	0
11	130	10	10000	5	1	0	5	0
13	131	10	10000	5	1	0	5	0
12	132	10	10000	5	1	0	5	0
12	133	10	10000	5	1	0	5	0
12	134	10	10000	5	1	0	5	0
11	135	10	10000	5	1	0	5	0
12	136	10	10000	5	1	0	5	0
13	137	10	10000	5	1	0	5	0
13	138	10	10000	5	1	0	5	0
13	139	10	10000	5	1	0	5	0
14	140	10	10000	5	1	0	5	0
12	141	10	10000	5	1	0	5	0
12	142	10	10000	5	1	0	5	0
13	143	10	10000	5	1	0	5	0
12	144	10	10000	5	1	0	5	0
12	145	10	10000	5	1	0	5	0
12	146	10	10000	5	1	0	5	0
12	147	10	10000	5	1	0	5	0
12	148	10	10000	5	1	0	5	0
11	149	10	10000	5	1	0	5	0
11	150	10	10000	5	1	0	5	0
13	151	10	10000	5	1	0	5	0
13	152	10	10000	5	1	0	5	0
11	153	10	10000	5	1	0	5	0
11	154	10	10000	5	1	0	5	0
11	155	10	10000	5	1	0	5	0
10	156	10	10000	5	1	0	5	0
10	157	10	10000	5	1	0	5	0
11	158	10	10000	5	1	0	5	0
12	159	10	10000	5	1	0	5	0
11	160	10	10000	5	1	0	5	0
10	161	10	10000	5	1	0	5	0
10	162	10	10000	5	1	0	5	0
11	163	10	10000	5	1	0	5	0
10	164	10	10000	5	1	0	5	0
10	165	10	10000	5	1	0	5	0
10	166	10	10000	5	1	0	5	0
11	167	10	10000	5	1	0	5	0
9	168	10	10000	5	1	0	5	0
9	169	10	10000	5	1	0	5	0
9	170	10	10000	5	1	0	5	0
10	171	10	10000	5	1	0	5	0
10	172	10	10000	5	1	0	5	0
10	173	10	10000	5	1	0	5	0
10	174	10	10000	5	1	0	5	0
11	175	10	10000	5	1	0	5	0
10	176	10	10000	5	1	0	5	0
9	177	10	10000	5	1	0	5	0
11	178	10	10000	5	1	0	5	0
10	179	10	10000	5	1	0	5	0
9	180	10	10000	5	1	0	5	0
8	181	10	10000	5	1	0	5	0
7	182	10	10000	5	1	0	5	0
8	183	10	10000	5	1	0	5	0
8	184	10	10000	5	1	0	5	0
8	185	10	10000	5	1	0	5	0
8	186	10	10000	5	1	0	5	0
9	187	10	10000	5	1	0	5	0
8	188	10	10000	5	1	0	5	0
8	189	10	10000	5	1	0	5	0
8	190	10	10000	5	1	0	5	0
10	191	10	10000	5	1	0	5	0
9	192	10	10000	5	1	0	5	0
9	193	10	10000	5	1	0	5	0
9	194	10	10000	5	1	0	5	0
9	195	10	10000	5	1	0	5	0
9	196	10	10000	5	1	0	5	0
9	197	10	10000	5	1	0	5	0
10	198	10	10000	5	1	0	5	0
12	199	10	10000	5	1	0	5	0
11	200	10	10000	5	1	0	5	0
9	201	10	10000	5	1	0	5	0
9	202	10	10000	5	1	0	5	0
9	203	10	10000	5	1	0	5	0
9	204	10	10000	5	1	0	5	0
9	205	10	10000	5	1	0	5	0
9	206	10	10000	5	1	0	5	0
9	207	10	10000	5	1	0	5	0
9	208	10	10000	5	1	0	5	0
8	209	10	10000	5	1	0	5	0
8	210	10	10000	5	1	0	5	0
9	211	10	10000	5	1	0	5	0
9	212	10	10000	5	1	0	5	0
9	213	10	10000	5	1	0	5	0
10	214	10	10000	5	1	0	5	0
10	215	10	10000	5	1	0	5	0
10	216	10	10000	5	1	0	5	0
9	217	10	10000	5	1	0	5	0
10	218	10	10000	5	1	0	5	0
10	219	10	10000	5	1	0	5	0
9	220	10	10000	5	1	0	5	0
8	221	10	10000	5	1	0	5	0
9	222	10	10000	5	1	0	5	0
8	223	10	10000	5	1	0	5	0
8	224	10	10000	5	1	0	5	0
9	225	10	10000	5	1	0	5	0
9	226	10	10000	5	1	0	5	0
9	227	10	10000	5	1	0	5	0
10	228	10	10000	5	1	0	5	0
10	229	10	10000	5	1	0	5	0
10	230	10	10000	5	1	0	5	0
12	231	10	10000	5	1	0	5	0
12	232	10	10000	5	1	0	5	0
12	233	10	10000	5	1	0	5	0
11	234	10	10000	5	1	0	5	0
11	235	10	10000	5	1	0	5	0
12	236	10	10000	5	1	0	5	0
10	237	10	10000	5	1	0	5	0
11	238	10	10000	5	1	0	5	0
11	239	10	10000	5	1	0	5	0
11	240	10	10000	5	1	0	5	0
10	241	10	10000	5	1	0	5	0
10	242	10	10000	5	1	0	5	0
11	243	10	10000	5	1	0	5	0
10	244	10	10000	5	1	0	5	0
11	245	10	10000	5	1	0	5	0
11	246	10	10000	5	1	0	5	0
11	247	10	10000	5	1	0	5	0
10	248	10	10000	5	1	0	5	0
9	249	10	10000	5	1	0	5	0
10	250	10	10000	5	1	0	5	0
11	251	10	10000	5	1	0	5	0
10	252	10	10000	5	1	0	5	0
9	253	10	10000	5	1	0	5	0
9	254	10	10000	5	1	0	5	0
10	255	10	10000	5	1	0	5	0
10	256	10	10000	5	1	0	5	0
9	257	10	10000	5	1	0	5	0
10	258	10	10000	5	1	0	5	0
10	259	10	10000	5	1	0	5	0
10	260	10	10000	5	1	0	5	0
9	261	10	10000	5	1	0	5	0
8	262	10	10000	5	1	0	5	0
9	263	10	10000	5	1	0	5	0
8	264	10	10000	5	1	0	5	0
8	265	10	10000	5	1	0	5	0
10	266	10	10000	5	1	0	5	0
9	267	10	10000	5	1	0	5	0
8	268	10	10000	5	1	0	5	0
9	269	10	10000	5	1	0	5	0
9	270	10	10000	5	1	0	5	0
11	271	10	10000	5	1	0	5	0
13	272	10	10000	5	1	0	5	0
12	273	10	10000	5	1	0	5	0
12	274	10	10000	5	1	0	5	0
13	275	10	10000	5	1	0	5	0
14	276	10	10000	5	1	0	5	0
13	277	10	10000	5	1	0	5	0
13	278	10	10000	5	1	0	5	0
14	279	10	10000	5	1	0	5	0
13	280	10	10000	5	1	0	5	0
12	281	10	10000	5	1	0	5	0
12	282	10	10000	5	1	0	5	0
12	283	10	10000	5	1	0	5	0
13	284	10	10000	5	1	0	5	0
13	285	10	10000	5	1	0	5	0
12	286	10	10000	5	1	0	5	0
12	287	10	10000	5	1	0	5	0
11	288	10	10000	5	1	0	5	0
11	289	10	10000	5	1	0	5	0
12	290	10	10000	5	1	0	5	0
13	291	10	10000	5	1	0	5	0
13	292	10	10000	5	1	0	5	0
12	293	10	10000	5	1	0	5	0
12	294	10	10000	5	1	0	5	0
11	295	10	10000	5	1	0	5	0
11	296	10	10000	5	1	0	5	0
11	297	10	10000	5	1	0	5	0
11	298	10	10000	5	1	0	5	0
12	299	10	10000	5	1	0	5	0
12	300	10	10000	5	1	0	5	0
12	301	10	10000	5	1	0	5	0
13	302	10	10000	5	1	0	5	0
13	303	10	10000	5	1	0	5	0
14	304	10	10000	5	1	0	5	0
13	305	10	10000	5	1	0	5	0
13	306	10	10000	5	1	0	5	0
14	307	10	10000	5	1	0	5	0
12	308	10	10000	5	1	0	5	0
12	309	10	10000	5	1	0	5	0
14	310	10	10000	5	1	0	5	0
16	311	10	10000	5	1	0	5	0
16	312	10	10000	5	1	0	5	0
17	313	10	10000	5	1	0	5	0
15	314	10	10000	5	1	0	5	0
15	315	10	10000	5	1	0	5	0
15	316	10	10000	5	1	0	5	0
15	317	10	10000	5	1	0	5	0
17	318	10	10000	5	1	0	5	0
17	319	10	10000	5	1	0	5	0
17	320	10	10000	5	1	0	5	0
16	321	10	10000	5	1	0	5	0
16	322	10	10000	5	1	0	5	0
18	323	10	10000	5	1	0	5	0
18	324	10	10000	5	1	0	5	0
17	325	10	10000	5	1	0	5	0
17	326	10	10000	5	1	0	5	0
19	327	10	10000	5	1	0	5	0
19	328	10	10000	5	1	0	5	0
19	329	10	10000	5	1	0	5	0
19	330	10	10000	5	1	0	5	0
21	331	10	10000	5	1	0	5	0
20	332	10	10000	5	1	0	5	0
20	333	10	10000	5	1	0	5	0
20	334	10	10000	5	1	0	5	0
20	335	10	10000	5	1	0	5	0
20	336	10	10000	5	1	0	5	0
19	337	10	10000	5	1	0	5	0
20	338	10	10000	5	1	0	5	0
21	339	10	10000	5	1	0	5	0
20	340	10	10000	5	1	0	5	0
18	341	10	10000	5	1	0	5	0
18	342	10	10000	5	1	0	5	0
17	343	10	10000	5	1	0	5	0
17	344	10	10000	5	1	0	5	0
17	345	10	10000	5	1	0	5	0
17	346	10	10000	5	1	0	5	0
17	347	10	10000	5	1	0	5	0
17	348	10	10000	5	1	0	5	0
17	349	10	10000	5	1	0	5	0
17	350	10	10000	5	1	0	5	0
19	351	10	10000	5	1	0	5	0
17	352	10	10000	5	1	0	5	0
16	353	10	10000	5	1	0	5	0
16	354	10	10000	5	1	0	5	0
15	355	10	10000	5	1	0	5	0
15	356	10	10000	5	1	0	5	0
14	357	10	10000	5	1	0	5	0
15	358	10	10000	5	1	0	5	0
14	359	10	10000	5	1	0	5	0
14	360	10	10000	5	1	0	5	0
12	361	10	10000	5	1	0	5	0
12	362	10	10000	5	1	0	5	0
12	363	10	10000	5	1	0	5	0
12	364	10	10000	5	1	0	5	0
11	365	10	10000	5	1	0	5	0
11	366	10	10000	5	1	0	5	0
12	367	10	10000	5	1	0	5	0
10	368	10	10000	5	1	0	5	0
10	369	10	10000	5	1	0	5	0
11	370	10	10000	5	1	0	5	0
12	371	10	10000	5	1	0	5	0
12	372	10	10000	5	1	0	5	0
12	373	10	10000	5	1	0	5	0
12	374	10	10000	5	1	0	5	0
12	375	10	10000	5	1	0	5	0
11	376	10	10000	5	1	0	5	0
10	377	10	10000	5	1	0	5	0
11	378	10	10000	5	1	0	5	0
11	379	10	10000	5	1	0	5	0
11	380	10	10000	5	1	0	5	0
9	381	10	10000	5	1	0	5	0
9	382	10	10000	5	1	0	5	0
9	383	10	10000	5	1	0	5	0
9	384	10	10000	5	1	0	5	0
10	385	10	10000	5	1	0	5	0
10	386	10	10000	5	1	0	5	0
10	387	10	10000	5	1	0	5	0
9	388	10	10000	5	1	0	5	0
9	389	10	10000	5	1	0	5	0
9	390	10	10000	5	1	0	5	0
10	391	10	10000	5	1	0	5	0
10	392	10	10000	5	1	0	5	0
9	393	10	10000	5	1	0	5	0
9	394	10	10000	5	1	0	5	0
10	395	10	10000	5	1	0	5	0
9	396	10	10000	5	1	0	5	0
9	397	10	10000	5	1	0	5	0
10	398	10	10000	5	1	0	5	0
10	399	10	10000	5	1	0	5	0
10	400	10	10000	5	1	0	5	0
8	401	10	10000	5	1	0	5	0
8	402	10	10000	5	1	0	5	0
9	403	10	10000	5	1	0	5	0
9	404	10	10000	5	1	0	5	0
8	405	10	10000	5	1	0	5	0
8	406	10	10000	5	1	0	5	0
8	407	10	10000	5	1	0	5	0
7	408	10	10000	5	1	0	5	0
7	409	10	10000	5	1	0	5	0
7	410	10	10000	5	1	0	5	0
10	411	10	10000	5	1	0	5	0
9	412	10	10000	5	1	0	5	0
9	413	10	10000	5	1	0	5	0
8	414	10	10000	5	1	0	5	0
8	415	10	10000	5	1	0	5	0
8	416	10	10000	5	1	0	5	0
8	417	10	10000	5	1	0	5	0
8	418	10	10000	5	1	0	5	0
9	419	10	10000	5	1	0	5	0
9	420	10	10000	5	1	0	5	0
7	421	10	10000	5	1	0	5	0
8	422	10	10000	5	1	0	5	0
8	423	10	10000	5	1	0	5	0
8	424	10	10000	5	1	0	5	0
9	425	10	10000	5	1	0	5	0
10	426	10	10000	5	1	0	5	0
11	427	10	10000	5	1	0	5	0
11	428	10	10000	5	1	0	5	0
10	429	10	10000	5	1	0	5	0
11	430	10	10000	5	1	0	5	0
12	431	10	10000	5	1	0	5	0
12	432	10	10000	5	1	0	5	0
12	433	10	10000	5	1	0	5	0
11	434	10	10000	5	1	0	5	0
10	435	10	10000	5	1	0	5	0
11	436	10	10000	5	1	0	5	0
10	437	10	10000	5	1	0	5	0
10	438	10	10000	5	1	0	5	0
11	439	10	10000	5	1	0	5	0
10	440	10	10000	5	1	0	5	0
8	441	10	10000	5	1	0	5	0
9	442	10	10000	5	1	0	5	0
9	443	10	10000	5	1	0	5	0
9	444	10	10000	5	1	0	5	0
10	445	10	10000	5	1	0	5	0
9	446	10	10000	5	1	0	5	0
10	447	10	10000	5	1	0	5	0
10	448	10	10000	5	1	0	5	0
9	449	10	10000	5	1	0	5	0
9	450	10	10000	5	1	0	5	0
11	451	10	10000	5	1	0	5	0
10	452	10	10000	5	1	0	5	0
11	453	10	10000	5	1	0	5	0
14	454	10	10000	5	1	0	5	0
17	455	10	10000	5	1	0	5	0
19	456	10	10000	5	1	0	5	0
22	457	10	10000	5	1	0	5	0
26	458	10	10000	5	1	0	5	0
28	459	10	10000	5	1	0	5	0
28	460	10	10000	5	1	0	5	0
25	461	10	10000	5	1	0	5	0
25	462	10	10000	5	1	0	5	0
26	463	10	10000	5	1	0	5	0
27	464	10	10000	5	1	0	5	0
27	465	10	10000	5	1	0	5	0
28	466	10	10000	5	1	0	5	0
27	467	10	10000	5	1	0	5	0
26	468	10	10000	5	1	0	5	0
25	469	10	10000	5	1	0	5	0
24	470	10	10000	5	1	0	5	0
27	471	10	10000	5	1	0	5	0
27	472	10	10000	5	1	0	5	0
29	473	10	10000	5	1	0	5	0
31	474	10	10000	5	1	0	5	0
33	475	10	10000	5	1	0	5	0
34	476	10	10000	5	1	0	5	0
35	477	10	10000	5	1	0	5	0
36	478	10	10000	5	1	0	5	0
37	479	10	10000	5	1	0	5	0
38	480	10	10000	5	1	0	5	0
36	481	10	10000	5	1	0	5	0
40	482	10	10000	5	1	0	5	0
42	483	10	10000	5	1	0	5	0
44	484	10	10000	5	1	0	5	0
45	485	10	10000	5	1	0	5	0
46	486	10	10000	5	1	0	5	0
45	487	10	10000	5	1	0	5	0
44	488	10	10000	5	1	0	5	0
42	489	10	10000	5	1	0	5	0
41	490	10	10000	5	1	0	5	0
41	491	10	10000	5	1	0	5	0
39	492	10	10000	5	1	0	5	0
38	493	10	10000	5	1	0	5	0
38	494	10	10000	5	1	0	5	0
38	495	10	10000	5	1	0	5	0
38	496	10	10000	5	1	0	5	0
40	497	10	10000	5	1	0	5	0
41	498	10	10000	5	1	0	5	0
41	499	10	10000	5	1	0	5	0
41	500	10	10000	5	1	0	5	0
40	501	10	10000	5	1	0	5	1
40	502	10	10000	5	1	0	5	1
41	503	10	10000	5	1	0	5	1
42	504	10	10000	5	1	0	5	1
42	505	10	10000	5	1	0	5	1
44	506	10	10000	5	1	0	5	1
44	507	10	10000	5	1	0	5	1
44	508	10	10000	5	1	0	5	1
44	509	10	10000	5	1	0	5	1
45	510	10	10000	5	1	0	5	1
47	511	10	10000	5	1	0	5	1
46	512	10	10000	5	1	0	5	1
47	513	10	10000	5	1	0	5	1
47	514	10	10000	5	1	0	5	1
47	515	10	10000	5	1	0	5	1
47	516	10	10000	5	1	0	5	1
46	517	10	10000	5	1	0	5	1
47	518	10	10000	5	1	0	5	1
46	519	10	10000	5	1	0	5	1
44	520	10	10000	5	1	0	5	1
42	521	10	10000	5	1	0	5	1
42	522	10	10000	5	1	0	5	1
41	523	10	10000	5	1	0	5	1
40	524	10	10000	5	1	0	5	1
38	525	10	10000	5	1	0	5	1
36	526	10	10000	5	1	0	5	1
36	527	10	10000	5	1	0	5	1
33	528	10	10000	5	1	0	5	1
32	529	10	10000	5	1	0	5	1
32	530	10	10000	5	1	0	5	1
33	531	10	10000	5	1	0	5	1
32	532	10	10000	5	1	0	5	1
32	533	10	10000	5	1	0	5	1
31	534	10	10000	5	1	0	5	1
31	535	10	10000	5	1	0	5	1
31	536	10	10000	5	1	0	5	1
29	537	10	10000	5	1	0	5	1
30	538	10	10000	5	1	0	5	1
31	539	10	10000	5	1	0	5	1
29	540	10	10000	5	1	0	5	1
27	541	10	10000	5	1	0	5	1
27	542	10	10000	5	1	0	5	1
26	543	10	10000	5	1	0	5	1
26	544	10	10000	5	1	0	5	1
25	545	10	10000	5	1	0	5	1
24	546	10	10000	5	1	0	5	1
24	547	10	10000	5	1	0	5	1
23	548	10	10000	5	1	0	5	1
22	549	10	10000	5	1	0	5	1
22	550	10	10000	5	1	0	5	1
24	551	10	10000	5	1	0	5	0
22	552	10	10000	5	1	0	5	0
21	553	10	10000	5	1	0	5	0
21	554	10	10000	5	1	0	5	0
20	555	10	10000	5	1	0	5	0
20	556	10	10000	5	1	0	5	0
19	557	10	10000	5	1	0	5	0
19	558	10	10000	5	1	0	5	0
19	559	10	10000	5	1	0	5	0
18	560	10	10000	5	1	0	5	0
17	561	10	10000	5	1	0	5	0
17	562	10	10000	5	1	0	5	0
16	563	10	10000	5	1	0	5	0
17	564	10	10000	5	1	0	5	0
17	565	10	10000	5	1	0	5	0
16	566	10	10000	5	1	0	5	0
16	567	10	10000	5	1	0	5	0
16	568	10	10000	5	1	0	5	0
15	569	10	10000	5	1	0	5	0
15	570	10	10000	5	1	0	5	0
17	571	10	10000	5	1	0	5	0
14	572	10	10000	5	1	0	5	0
14	573	10	10000	5	1	0	5	0
15	574	10	10000	5	1	0	5	0
14	575	10	10000	5	1	0	5	0
14	576	10	10000	5	1	0	5	0
13	577	10	10000	5	1	0	5	0
13	578	10	10000	5	1	0	5	0
14	579	10	10000	5	1	0	5	0
14	580	10	10000	5	1	0	5	0
14	581	10	10000	5	1	0	5	0
14	582	10	10000	5	1	0	5	0
14	583	10	10000	5	1	0	5	0
13	584	10	10000	5	1	0	5	0
13	585	10	10000	5	1	0	5	0
13	586	10	10000	5	1	0	5	0
14	587	10	10000	5	1	0	5	0
15	588	10	10000	5	1	0	5	0
18	589	10	10000	5	1	0	5	0
23	590	10	10000	5	1	0	5	0
28	591	10	10000	5	1	0	5	0
27	592	10	10000	5	1	0	5	0
28	593	10	10000	5	1	0	5	0
38	594	10	10000	5	1	0	5	0
48	595	10	10000	5	1	0	5	0
49	596	10	10000	5	1	0	5	0
51	597	10	10000	5	1	0	5	0
56	598	10	10000	5	1	0	5	0
62	599	10	10000	5	1	0	5	0
85	600	10	10000	5	1	0	5	0
91	601	10	10000	5	1	0	5	0
103	602	10	10000	5	1	0	5	0
130	603	10	10000	5	1	0	5	0
155	604	10	10000	5	1	0	5	0
164	605	10	10000	5	1	0	5	0
161	606	10	10000	5	1	0	5	0
164	607	10	10000	5	1	0	5	0
171	608	10	10000	5	1	0	5	0
169	609	10	10000	5	1	0	5	0
162	610	10	10000	5	1	0	5	0
165	611	10	10000	5	1	0	5	0
174	612	10	10000	5	1	0	5	0
177	613	10	10000	5	1	0	5	0
176	614	10	10000	5	1	0	5	0
182	615	10	10000	5	1	0	5	0
184	616	10	10000	5	1	0	5	0
179	617	10	10000	5	1	0	5	0
177	618	10	10000	5	1	0	5	0
177	619	10	10000	5	1	0	5	0
174	620	10	10000	5	1	0	5	0
168	621	10	10000	5	1	0	5	0
165	622	10	10000	5	1	0	5	0
168	623	10	10000	5	1	0	5	0
175	624	10	10000	5	1	0	5	0
183	625	10	10000	5	1	0	5	0
185	626	10	10000	5	1	0	5	0
186	627	10	10000	5	1	0	5	0
183	628	10	10000	5	1	0	5	0
177	629	10	10000	5	1	0	5	0
175	630	10	10000	5	1	0	5	0
171	631	10	10000	5	1	0	5	0
165	632	10	10000	5	1	0	5	0
163	633	10	10000	5	1	0	5	0
160	634	10	10000	5	1	0	5	0
157	635	10	10000	5	1	0	5	0
153	636	10	10000	5	1	0	5	0
149	637	10	10000	5	1	0	5	0
144	638	10	10000	5	1	0	5	0
139	639	10	10000	5	1	0	5	0
134	640	10	10000	5	1	0	5	0
128	641	10	10000	5	1	0	5	0
123	642	10	10000	5	1	0	5	0
118	643	10	10000	5	1	0	5	0
113	644	10	10000	5	1	0	5	0
109	645	10	10000	5	1	0	5	0
106	646	10	10000	5	1	0	5	0
104	647	10	10000	5	1	0	5	0
103	648	10	10000	5	1	0	5	0
103	649	10	10000	5	1	0	5	0
103	650	10	10000	5	1	0	5	0
106	651	10	10000	5	1	0	5	0
107	652	10	10000	5	1	0	5	0
109	653	10	10000	5	1	0	5	0
110	654	10	10000	5	1	0	5	0
113	655	10	10000	5	1	0	5	0
116	656	10	10000	5	1	0	5	0
117	657	10	10000	5	1	0	5	0
120	658	10	10000	5	1	0	5	0
124	659	10	10000	5	1	0	5	0
125	660	10	10000	5	1	0	5	0
127	661	10	10000	5	1	0	5	0
130	662	10	10000	5	1	0	5	0
131	663	10	10000	5	1	0	5	0
131	664	10	10000	5	1	0	5	0
132	665	10	10000	5	1	0	5	0
132	666	10	10000	5	1	0	5	0
132	667	10	10000	5	1	0	5	0
131	668	10	10000	5	1	0	5	0
130	669	10	10000	5	1	0	5	0
131	670	10	10000	5	1	0	5	0
132	671	10	10000	5	1	0	5	0
132	672	10	10000	5	1	0	5	0
133	673	10	10000	5	1	0	5	0
133	674	10	10000	5	1	0	5	0
132	675	10	10000	5	1	0	5	0
132	676	10	10000	5	1	0	5	0
130	677	10	10000	5	1	0	5	0
130	678	10	10000	5	1	0	5	0
129	679	10	10000	5	1	0	5	0
127	680	10	10000	5	1	0	5	0
123	681	10	10000	5	1	0	5	0
120	682	10	10000	5	1	0	5	0
118	683	10	10000	5	1	0	5	0
114	684	10	10000	5	1	0	5	0
111	685	10	10000	5	1	0	5	0
107	686	10	10000	5	1	0	5	0
103	687	10	10000	5	1	0	5	0
98	688	10	10000	5	1	0	5	0
94	689	10	10000	5	1	0	5	0
90	690	10	10000	5	1	0	5	0
89	691	10	10000	5	1	0	5	0
85	692	10	10000	5	1	0	5	0
82	693	10	10000	5	1	0	5	0
79	694	10	10000	5	1	0	5	0
76	695	10	10000	5	1	0	5	0
72	696	10	10000	5	1	0	5	0
68	697	10	10000	5	1	0	5	0
67	698	10	10000	5	1	0	5	0
64	699	10	10000	5	1	0	5	0
62	700	10	10000	5	1	0	5	0
58	701	10	10000	5	1	0	5	0
56	702	10	10000	5	1	0	5	0
57	703	10	10000	5	1	0	5	0
56	704	10	10000	5	1	0	5	0
55	705	10	10000	5	1	0	5	0
56	706	10	10000	5	1	0	5	0
56	707	10	10000	5	1	0	5	0
55	708	10	10000	5	1	0	5	0
55	709	10	10000	5	1	0	5	0
