value	EMG	Stimulus	EMG_sensitivity	Total_Trial_Nr	practise	acq	probe_nr	Startle_Probe
200	1	0	10000	1	1	0	1	0
196	2	0	10000	1	1	0	1	0
187	3	0	10000	1	1	0	1	0
185	4	0	10000	1	1	0	1	0
183	5	0	10000	1	1	0	1	0
184	6	0	10000	1	1	0	1	0
180	7	0	10000	1	1	0	1	0
174	8	0	10000	1	1	0	1	0
166	9	0	10000	1	1	0	1	0
159	10	0	10000	1	1	0	1	0
152	11	0	10000	1	1	0	1	0
149	12	0	10000	1	1	0	1	0
147	13	0	10000	1	1	0	1	0
142	14	0	10000	1	1	0	1	0
139	15	0	10000	1	1	0	1	0
135	16	0	10000	1	1	0	1	0
135	17	0	10000	1	1	0	1	0
135	18	0	10000	1	1	0	1	0
130	19	0	10000	1	1	0	1	0
126	20	0	10000	1	1	0	1	0
124	21	0	10000	1	1	0	1	0
124	22	0	10000	1	1	0	1	0
120	23	0	10000	1	1	0	1	0
117	24	0	10000	1	1	0	1	0
115	25	0	10000	1	1	0	1	0
115	26	0	10000	1	1	0	1	0
111	27	0	10000	1	1	0	1	0
109	28	0	10000	1	1	0	1	0
105	29	0	10000	1	1	0	1	0
102	30	0	10000	1	1	0	1	0
102	31	0	10000	1	1	0	1	0
101	32	0	10000	1	1	0	1	0
100	33	0	10000	1	1	0	1	0
99	34	0	10000	1	1	0	1	0
99	35	0	10000	1	1	0	1	0
96	36	0	10000	1	1	0	1	0
94	37	0	10000	1	1	0	1	0
92	38	0	10000	1	1	0	1	0
89	39	0	10000	1	1	0	1	0
86	40	0	10000	1	1	0	1	0
83	41	0	10000	1	1	0	1	0
81	42	0	10000	1	1	0	1	0
78	43	0	10000	1	1	0	1	0
78	44	0	10000	1	1	0	1	0
80	45	0	10000	1	1	0	1	0
84	46	0	10000	1	1	0	1	0
85	47	0	10000	1	1	0	1	0
84	48	0	10000	1	1	0	1	0
81	49	0	10000	1	1	0	1	0
78	50	0	10000	1	1	0	1	0
75	51	0	10000	1	1	0	1	0
72	52	0	10000	1	1	0	1	0
71	53	0	10000	1	1	0	1	0
68	54	0	10000	1	1	0	1	0
67	55	0	10000	1	1	0	1	0
62	56	0	10000	1	1	0	1	0
60	57	0	10000	1	1	0	1	0
58	58	0	10000	1	1	0	1	0
58	59	0	10000	1	1	0	1	0
58	60	0	10000	1	1	0	1	0
59	61	0	10000	1	1	0	1	0
61	62	0	10000	1	1	0	1	0
61	63	0	10000	1	1	0	1	0
61	64	0	10000	1	1	0	1	0
60	65	0	10000	1	1	0	1	0
61	66	0	10000	1	1	0	1	0
59	67	0	10000	1	1	0	1	0
59	68	0	10000	1	1	0	1	0
61	69	0	10000	1	1	0	1	0
64	70	0	10000	1	1	0	1	0
65	71	0	10000	1	1	0	1	0
62	72	0	10000	1	1	0	1	0
64	73	0	10000	1	1	0	1	0
66	74	0	10000	1	1	0	1	0
65	75	0	10000	1	1	0	1	0
63	76	0	10000	1	1	0	1	0
64	77	0	10000	1	1	0	1	0
64	78	0	10000	1	1	0	1	0
63	79	0	10000	1	1	0	1	0
62	80	0	10000	1	1	0	1	0
60	81	0	10000	1	1	0	1	0
60	82	0	10000	1	1	0	1	0
57	83	0	10000	1	1	0	1	0
57	84	0	10000	1	1	0	1	0
59	85	0	10000	1	1	0	1	0
64	86	0	10000	1	1	0	1	0
68	87	0	10000	1	1	0	1	0
72	88	0	10000	1	1	0	1	0
74	89	0	10000	1	1	0	1	0
76	90	0	10000	1	1	0	1	0
79	91	0	10000	1	1	0	1	0
82	92	0	10000	1	1	0	1	0
86	93	0	10000	1	1	0	1	0
86	94	0	10000	1	1	0	1	0
85	95	0	10000	1	1	0	1	0
85	96	0	10000	1	1	0	1	0
88	97	0	10000	1	1	0	1	0
90	98	0	10000	1	1	0	1	0
91	99	0	10000	1	1	0	1	0
89	100	0	10000	1	1	0	1	0
86	101	0	10000	1	1	0	1	0
86	102	0	10000	1	1	0	1	0
88	103	0	10000	1	1	0	1	0
92	104	0	10000	1	1	0	1	0
95	105	0	10000	1	1	0	1	0
101	106	0	10000	1	1	0	1	0
103	107	0	10000	1	1	0	1	0
104	108	0	10000	1	1	0	1	0
103	109	0	10000	1	1	0	1	0
104	110	0	10000	1	1	0	1	0
105	111	0	10000	1	1	0	1	0
104	112	0	10000	1	1	0	1	0
101	113	0	10000	1	1	0	1	0
97	114	0	10000	1	1	0	1	0
94	115	0	10000	1	1	0	1	0
89	116	0	10000	1	1	0	1	0
86	117	0	10000	1	1	0	1	0
83	118	0	10000	1	1	0	1	0
79	119	0	10000	1	1	0	1	0
76	120	0	10000	1	1	0	1	0
74	121	0	10000	1	1	0	1	0
75	122	0	10000	1	1	0	1	0
76	123	0	10000	1	1	0	1	0
77	124	0	10000	1	1	0	1	0
76	125	0	10000	1	1	0	1	0
76	126	0	10000	1	1	0	1	0
74	127	0	10000	1	1	0	1	0
73	128	0	10000	1	1	0	1	0
73	129	0	10000	1	1	0	1	0
74	130	0	10000	1	1	0	1	0
72	131	0	10000	1	1	0	1	0
70	132	0	10000	1	1	0	1	0
70	133	0	10000	1	1	0	1	0
68	134	0	10000	1	1	0	1	0
67	135	0	10000	1	1	0	1	0
63	136	0	10000	1	1	0	1	0
61	137	0	10000	1	1	0	1	0
59	138	0	10000	1	1	0	1	0
58	139	0	10000	1	1	0	1	0
57	140	0	10000	1	1	0	1	0
57	141	0	10000	1	1	0	1	0
57	142	0	10000	1	1	0	1	0
54	143	0	10000	1	1	0	1	0
52	144	0	10000	1	1	0	1	0
52	145	0	10000	1	1	0	1	0
56	146	0	10000	1	1	0	1	0
58	147	0	10000	1	1	0	1	0
59	148	0	10000	1	1	0	1	0
59	149	0	10000	1	1	0	1	0
56	150	0	10000	1	1	0	1	0
57	151	0	10000	1	1	0	1	0
57	152	0	10000	1	1	0	1	0
56	153	0	10000	1	1	0	1	0
56	154	0	10000	1	1	0	1	0
55	155	0	10000	1	1	0	1	0
51	156	0	10000	1	1	0	1	0
50	157	0	10000	1	1	0	1	0
48	158	0	10000	1	1	0	1	0
47	159	0	10000	1	1	0	1	0
47	160	0	10000	1	1	0	1	0
47	161	0	10000	1	1	0	1	0
47	162	0	10000	1	1	0	1	0
47	163	0	10000	1	1	0	1	0
46	164	0	10000	1	1	0	1	0
45	165	0	10000	1	1	0	1	0
46	166	0	10000	1	1	0	1	0
45	167	0	10000	1	1	0	1	0
43	168	0	10000	1	1	0	1	0
42	169	0	10000	1	1	0	1	0
41	170	0	10000	1	1	0	1	0
39	171	0	10000	1	1	0	1	0
38	172	0	10000	1	1	0	1	0
37	173	0	10000	1	1	0	1	0
37	174	0	10000	1	1	0	1	0
36	175	0	10000	1	1	0	1	0
35	176	0	10000	1	1	0	1	0
36	177	0	10000	1	1	0	1	0
35	178	0	10000	1	1	0	1	0
34	179	0	10000	1	1	0	1	0
34	180	0	10000	1	1	0	1	0
33	181	0	10000	1	1	0	1	0
32	182	0	10000	1	1	0	1	0
31	183	0	10000	1	1	0	1	0
30	184	0	10000	1	1	0	1	0
29	185	0	10000	1	1	0	1	0
32	186	0	10000	1	1	0	1	0
34	187	0	10000	1	1	0	1	0
33	188	0	10000	1	1	0	1	0
32	189	0	10000	1	1	0	1	0
32	190	0	10000	1	1	0	1	0
33	191	0	10000	1	1	0	1	0
36	192	0	10000	1	1	0	1	0
39	193	0	10000	1	1	0	1	0
42	194	0	10000	1	1	0	1	0
43	195	0	10000	1	1	0	1	0
41	196	0	10000	1	1	0	1	0
41	197	0	10000	1	1	0	1	0
41	198	0	10000	1	1	0	1	0
40	199	0	10000	1	1	0	1	0
38	200	0	10000	1	1	0	1	0
38	201	0	10000	1	1	0	1	0
36	202	0	10000	1	1	0	1	0
36	203	0	10000	1	1	0	1	0
36	204	0	10000	1	1	0	1	0
35	205	0	10000	1	1	0	1	0
36	206	0	10000	1	1	0	1	0
35	207	0	10000	1	1	0	1	0
35	208	0	10000	1	1	0	1	0
33	209	0	10000	1	1	0	1	0
32	210	0	10000	1	1	0	1	0
32	211	0	10000	1	1	0	1	0
31	212	0	10000	1	1	0	1	0
31	213	0	10000	1	1	0	1	0
31	214	0	10000	1	1	0	1	0
31	215	0	10000	1	1	0	1	0
28	216	0	10000	1	1	0	1	0
27	217	0	10000	1	1	0	1	0
27	218	0	10000	1	1	0	1	0
26	219	0	10000	1	1	0	1	0
26	220	0	10000	1	1	0	1	0
27	221	0	10000	1	1	0	1	0
28	222	0	10000	1	1	0	1	0
28	223	0	10000	1	1	0	1	0
27	224	0	10000	1	1	0	1	0
26	225	0	10000	1	1	0	1	0
28	226	0	10000	1	1	0	1	0
28	227	0	10000	1	1	0	1	0
29	228	0	10000	1	1	0	1	0
30	229	0	10000	1	1	0	1	0
30	230	0	10000	1	1	0	1	0
31	231	0	10000	1	1	0	1	0
30	232	0	10000	1	1	0	1	0
30	233	0	10000	1	1	0	1	0
29	234	0	10000	1	1	0	1	0
29	235	0	10000	1	1	0	1	0
26	236	0	10000	1	1	0	1	0
26	237	0	10000	1	1	0	1	0
25	238	0	10000	1	1	0	1	0
27	239	0	10000	1	1	0	1	0
26	240	0	10000	1	1	0	1	0
26	241	0	10000	1	1	0	1	0
25	242	0	10000	1	1	0	1	0
25	243	0	10000	1	1	0	1	0
25	244	0	10000	1	1	0	1	0
26	245	0	10000	1	1	0	1	0
30	246	0	10000	1	1	0	1	0
30	247	0	10000	1	1	0	1	0
28	248	0	10000	1	1	0	1	0
29	249	0	10000	1	1	0	1	0
29	250	0	10000	1	1	0	1	0
28	251	0	10000	1	1	0	1	0
28	252	0	10000	1	1	0	1	0
28	253	0	10000	1	1	0	1	0
27	254	0	10000	1	1	0	1	0
27	255	0	10000	1	1	0	1	0
25	256	0	10000	1	1	0	1	0
25	257	0	10000	1	1	0	1	0
24	258	0	10000	1	1	0	1	0
24	259	0	10000	1	1	0	1	0
26	260	0	10000	1	1	0	1	0
29	261	0	10000	1	1	0	1	0
30	262	0	10000	1	1	0	1	0
30	263	0	10000	1	1	0	1	0
29	264	0	10000	1	1	0	1	0
28	265	0	10000	1	1	0	1	0
29	266	0	10000	1	1	0	1	0
28	267	0	10000	1	1	0	1	0
28	268	0	10000	1	1	0	1	0
28	269	0	10000	1	1	0	1	0
28	270	0	10000	1	1	0	1	0
27	271	0	10000	1	1	0	1	0
26	272	0	10000	1	1	0	1	0
26	273	0	10000	1	1	0	1	0
26	274	0	10000	1	1	0	1	0
27	275	0	10000	1	1	0	1	0
26	276	0	10000	1	1	0	1	0
26	277	0	10000	1	1	0	1	0
24	278	0	10000	1	1	0	1	0
25	279	0	10000	1	1	0	1	0
25	280	0	10000	1	1	0	1	0
25	281	0	10000	1	1	0	1	0
27	282	0	10000	1	1	0	1	0
27	283	0	10000	1	1	0	1	0
28	284	0	10000	1	1	0	1	0
27	285	0	10000	1	1	0	1	0
30	286	0	10000	1	1	0	1	0
30	287	0	10000	1	1	0	1	0
29	288	0	10000	1	1	0	1	0
29	289	0	10000	1	1	0	1	0
29	290	0	10000	1	1	0	1	0
29	291	0	10000	1	1	0	1	0
31	292	0	10000	1	1	0	1	0
35	293	0	10000	1	1	0	1	0
38	294	0	10000	1	1	0	1	0
40	295	0	10000	1	1	0	1	0
38	296	0	10000	1	1	0	1	0
37	297	0	10000	1	1	0	1	0
37	298	0	10000	1	1	0	1	0
38	299	0	10000	1	1	0	1	0
39	300	0	10000	1	1	0	1	0
39	301	0	10000	1	1	0	1	0
39	302	0	10000	1	1	0	1	0
38	303	0	10000	1	1	0	1	0
37	304	0	10000	1	1	0	1	0
38	305	0	10000	1	1	0	1	0
43	306	0	10000	1	1	0	1	0
44	307	0	10000	1	1	0	1	0
44	308	0	10000	1	1	0	1	0
42	309	0	10000	1	1	0	1	0
40	310	0	10000	1	1	0	1	0
40	311	0	10000	1	1	0	1	0
41	312	0	10000	1	1	0	1	0
44	313	0	10000	1	1	0	1	0
47	314	0	10000	1	1	0	1	0
48	315	0	10000	1	1	0	1	0
46	316	0	10000	1	1	0	1	0
44	317	0	10000	1	1	0	1	0
43	318	0	10000	1	1	0	1	0
42	319	0	10000	1	1	0	1	0
42	320	0	10000	1	1	0	1	0
42	321	0	10000	1	1	0	1	0
43	322	0	10000	1	1	0	1	0
41	323	0	10000	1	1	0	1	0
40	324	0	10000	1	1	0	1	0
39	325	0	10000	1	1	0	1	0
42	326	0	10000	1	1	0	1	0
42	327	0	10000	1	1	0	1	0
41	328	0	10000	1	1	0	1	0
40	329	0	10000	1	1	0	1	0
40	330	0	10000	1	1	0	1	0
40	331	0	10000	1	1	0	1	0
41	332	0	10000	1	1	0	1	0
41	333	0	10000	1	1	0	1	0
41	334	0	10000	1	1	0	1	0
43	335	0	10000	1	1	0	1	0
42	336	0	10000	1	1	0	1	0
41	337	0	10000	1	1	0	1	0
41	338	0	10000	1	1	0	1	0
41	339	0	10000	1	1	0	1	0
40	340	0	10000	1	1	0	1	0
39	341	0	10000	1	1	0	1	0
38	342	0	10000	1	1	0	1	0
36	343	0	10000	1	1	0	1	0
34	344	0	10000	1	1	0	1	0
33	345	0	10000	1	1	0	1	0
35	346	0	10000	1	1	0	1	0
35	347	0	10000	1	1	0	1	0
35	348	0	10000	1	1	0	1	0
33	349	0	10000	1	1	0	1	0
32	350	0	10000	1	1	0	1	0
32	351	0	10000	1	1	0	1	0
31	352	0	10000	1	1	0	1	0
32	353	0	10000	1	1	0	1	0
32	354	0	10000	1	1	0	1	0
33	355	0	10000	1	1	0	1	0
31	356	0	10000	1	1	0	1	0
31	357	0	10000	1	1	0	1	0
30	358	0	10000	1	1	0	1	0
30	359	0	10000	1	1	0	1	0
30	360	0	10000	1	1	0	1	0
29	361	0	10000	1	1	0	1	0
29	362	0	10000	1	1	0	1	0
28	363	0	10000	1	1	0	1	0
27	364	0	10000	1	1	0	1	0
26	365	0	10000	1	1	0	1	0
27	366	0	10000	1	1	0	1	0
28	367	0	10000	1	1	0	1	0
27	368	0	10000	1	1	0	1	0
29	369	0	10000	1	1	0	1	0
31	370	0	10000	1	1	0	1	0
32	371	0	10000	1	1	0	1	0
31	372	0	10000	1	1	0	1	0
32	373	0	10000	1	1	0	1	0
32	374	0	10000	1	1	0	1	0
32	375	0	10000	1	1	0	1	0
30	376	0	10000	1	1	0	1	0
29	377	0	10000	1	1	0	1	0
28	378	0	10000	1	1	0	1	0
31	379	0	10000	1	1	0	1	0
34	380	0	10000	1	1	0	1	0
38	381	0	10000	1	1	0	1	0
42	382	0	10000	1	1	0	1	0
41	383	0	10000	1	1	0	1	0
39	384	0	10000	1	1	0	1	0
39	385	0	10000	1	1	0	1	0
43	386	0	10000	1	1	0	1	0
43	387	0	10000	1	1	0	1	0
43	388	0	10000	1	1	0	1	0
41	389	0	10000	1	1	0	1	0
40	390	0	10000	1	1	0	1	0
39	391	0	10000	1	1	0	1	0
38	392	0	10000	1	1	0	1	0
37	393	0	10000	1	1	0	1	0
36	394	0	10000	1	1	0	1	0
36	395	0	10000	1	1	0	1	0
34	396	0	10000	1	1	0	1	0
35	397	0	10000	1	1	0	1	0
36	398	0	10000	1	1	0	1	0
37	399	0	10000	1	1	0	1	0
40	400	0	10000	1	1	0	1	0
44	401	0	10000	1	1	0	1	0
49	402	0	10000	1	1	0	1	0
50	403	0	10000	1	1	0	1	0
51	404	0	10000	1	1	0	1	0
52	405	0	10000	1	1	0	1	0
51	406	0	10000	1	1	0	1	0
50	407	0	10000	1	1	0	1	0
49	408	0	10000	1	1	0	1	0
48	409	0	10000	1	1	0	1	0
47	410	0	10000	1	1	0	1	0
46	411	0	10000	1	1	0	1	0
46	412	0	10000	1	1	0	1	0
46	413	0	10000	1	1	0	1	0
49	414	0	10000	1	1	0	1	0
52	415	0	10000	1	1	0	1	0
51	416	0	10000	1	1	0	1	0
50	417	0	10000	1	1	0	1	0
50	418	0	10000	1	1	0	1	0
49	419	0	10000	1	1	0	1	0
47	420	0	10000	1	1	0	1	0
46	421	0	10000	1	1	0	1	0
45	422	0	10000	1	1	0	1	0
43	423	0	10000	1	1	0	1	0
41	424	0	10000	1	1	0	1	0
40	425	0	10000	1	1	0	1	0
41	426	0	10000	1	1	0	1	0
40	427	0	10000	1	1	0	1	0
39	428	0	10000	1	1	0	1	0
39	429	0	10000	1	1	0	1	0
37	430	0	10000	1	1	0	1	0
36	431	0	10000	1	1	0	1	0
35	432	0	10000	1	1	0	1	0
38	433	0	10000	1	1	0	1	0
40	434	0	10000	1	1	0	1	0
41	435	0	10000	1	1	0	1	0
41	436	0	10000	1	1	0	1	0
41	437	0	10000	1	1	0	1	0
43	438	0	10000	1	1	0	1	0
45	439	0	10000	1	1	0	1	0
43	440	0	10000	1	1	0	1	0
43	441	0	10000	1	1	0	1	0
42	442	0	10000	1	1	0	1	0
42	443	0	10000	1	1	0	1	0
40	444	0	10000	1	1	0	1	0
39	445	0	10000	1	1	0	1	0
40	446	0	10000	1	1	0	1	0
39	447	0	10000	1	1	0	1	0
37	448	0	10000	1	1	0	1	0
36	449	0	10000	1	1	0	1	0
35	450	0	10000	1	1	0	1	0
34	451	0	10000	1	1	0	1	0
35	452	0	10000	1	1	0	1	0
36	453	0	10000	1	1	0	1	0
35	454	0	10000	1	1	0	1	0
34	455	0	10000	1	1	0	1	0
32	456	0	10000	1	1	0	1	0
32	457	0	10000	1	1	0	1	0
31	458	0	10000	1	1	0	1	0
31	459	0	10000	1	1	0	1	0
32	460	0	10000	1	1	0	1	0
33	461	0	10000	1	1	0	1	0
34	462	0	10000	1	1	0	1	0
33	463	0	10000	1	1	0	1	0
33	464	0	10000	1	1	0	1	0
32	465	0	10000	1	1	0	1	0
35	466	0	10000	1	1	0	1	0
36	467	0	10000	1	1	0	1	0
36	468	0	10000	1	1	0	1	0
36	469	0	10000	1	1	0	1	0
35	470	0	10000	1	1	0	1	0
34	471	0	10000	1	1	0	1	0
33	472	0	10000	1	1	0	1	0
34	473	0	10000	1	1	0	1	0
35	474	0	10000	1	1	0	1	0
35	475	0	10000	1	1	0	1	0
32	476	0	10000	1	1	0	1	0
33	477	0	10000	1	1	0	1	0
34	478	0	10000	1	1	0	1	0
34	479	0	10000	1	1	0	1	0
33	480	0	10000	1	1	0	1	0
33	481	0	10000	1	1	0	1	0
32	482	0	10000	1	1	0	1	0
31	483	0	10000	1	1	0	1	0
30	484	0	10000	1	1	0	1	0
29	485	0	10000	1	1	0	1	0
32	486	0	10000	1	1	0	1	0
32	487	0	10000	1	1	0	1	0
31	488	0	10000	1	1	0	1	0
29	489	0	10000	1	1	0	1	0
29	490	0	10000	1	1	0	1	0
28	491	0	10000	1	1	0	1	0
27	492	0	10000	1	1	0	1	0
27	493	0	10000	1	1	0	1	0
29	494	0	10000	1	1	0	1	0
30	495	0	10000	1	1	0	1	0
27	496	0	10000	1	1	0	1	0
26	497	0	10000	1	1	0	1	0
26	498	0	10000	1	1	0	1	0
26	499	0	10000	1	1	0	1	0
25	500	0	10000	1	1	0	1	0
24	578	0	10000	1	1	0	1	1
25	579	0	10000	1	1	0	1	1
24	580	0	10000	1	1	0	1	1
24	581	0	10000	1	1	0	1	1
22	582	0	10000	1	1	0	1	1
24	583	0	10000	1	1	0	1	1
24	584	0	10000	1	1	0	1	1
24	585	0	10000	1	1	0	1	1
25	586	0	10000	1	1	0	1	1
25	587	0	10000	1	1	0	1	1
24	588	0	10000	1	1	0	1	1
23	589	0	10000	1	1	0	1	1
23	590	0	10000	1	1	0	1	1
24	591	0	10000	1	1	0	1	1
24	592	0	10000	1	1	0	1	1
21	593	0	10000	1	1	0	1	1
21	594	0	10000	1	1	0	1	1
22	595	0	10000	1	1	0	1	1
22	596	0	10000	1	1	0	1	1
21	597	0	10000	1	1	0	1	1
21	598	0	10000	1	1	0	1	1
21	599	0	10000	1	1	0	1	1
22	600	0	10000	1	1	0	1	1
25	601	0	10000	1	1	0	1	1
26	602	0	10000	1	1	0	1	1
28	603	0	10000	1	1	0	1	1
29	604	0	10000	1	1	0	1	1
30	605	0	10000	1	1	0	1	1
32	606	0	10000	1	1	0	1	1
32	607	0	10000	1	1	0	1	1
31	608	0	10000	1	1	0	1	1
30	609	0	10000	1	1	0	1	1
31	610	0	10000	1	1	0	1	1
29	611	0	10000	1	1	0	1	1
29	612	0	10000	1	1	0	1	1
26	613	0	10000	1	1	0	1	1
26	614	0	10000	1	1	0	1	1
26	615	0	10000	1	1	0	1	1
27	616	0	10000	1	1	0	1	1
31	617	0	10000	1	1	0	1	1
32	618	0	10000	1	1	0	1	1
33	619	0	10000	1	1	0	1	1
32	620	0	10000	1	1	0	1	1
31	621	0	10000	1	1	0	1	1
31	622	0	10000	1	1	0	1	1
34	623	0	10000	1	1	0	1	1
37	624	0	10000	1	1	0	1	1
38	625	0	10000	1	1	0	1	1
40	626	0	10000	1	1	0	1	1
41	627	0	10000	1	1	0	1	1
40	628	0	10000	1	1	0	1	1
39	629	0	10000	1	1	0	1	1
42	630	0	10000	1	1	0	1	1
44	631	0	10000	1	1	0	1	1
46	632	0	10000	1	1	0	1	1
44	633	0	10000	1	1	0	1	1
43	634	0	10000	1	1	0	1	1
41	635	0	10000	1	1	0	1	1
41	636	0	10000	1	1	0	1	1
40	637	0	10000	1	1	0	1	1
39	638	0	10000	1	1	0	1	1
39	639	0	10000	1	1	0	1	1
38	640	0	10000	1	1	0	1	1
38	641	0	10000	1	1	0	1	1
36	642	0	10000	1	1	0	1	1
38	643	0	10000	1	1	0	1	1
38	644	0	10000	1	1	0	1	1
37	645	0	10000	1	1	0	1	1
37	646	0	10000	1	1	0	1	1
36	647	0	10000	1	1	0	1	1
36	648	0	10000	1	1	0	1	1
34	649	0	10000	1	1	0	1	1
33	650	0	10000	1	1	0	1	1
34	651	0	10000	1	1	0	1	1
36	652	0	10000	1	1	0	1	1
33	653	0	10000	1	1	0	1	1
32	654	0	10000	1	1	0	1	1
32	655	0	10000	1	1	0	1	1
32	584	0	10000	1	1	0	1	0
32	585	0	10000	1	1	0	1	0
32	586	0	10000	1	1	0	1	0
32	587	0	10000	1	1	0	1	0
33	588	0	10000	1	1	0	1	0
35	589	0	10000	1	1	0	1	0
36	590	0	10000	1	1	0	1	0
37	591	0	10000	1	1	0	1	0
36	587	0	10000	1	1	0	1	0
36	588	0	10000	1	1	0	1	0
37	589	0	10000	1	1	0	1	0
36	590	0	10000	1	1	0	1	0
35	591	0	10000	1	1	0	1	0
34	592	0	10000	1	1	0	1	0
34	593	0	10000	1	1	0	1	0
34	594	0	10000	1	1	0	1	0
35	595	0	10000	1	1	0	1	0
33	596	0	10000	1	1	0	1	0
33	597	0	10000	1	1	0	1	0
33	598	0	10000	1	1	0	1	0
36	599	0	10000	1	1	0	1	0
37	600	0	10000	1	1	0	1	0
36	601	0	10000	1	1	0	1	0
39	602	0	10000	1	1	0	1	0
41	603	0	10000	1	1	0	1	0
44	604	0	10000	1	1	0	1	0
44	605	0	10000	1	1	0	1	0
48	606	0	10000	1	1	0	1	0
47	607	0	10000	1	1	0	1	0
46	608	0	10000	1	1	0	1	0
46	609	0	10000	1	1	0	1	0
43	610	0	10000	1	1	0	1	0
43	611	0	10000	1	1	0	1	0
41	612	0	10000	1	1	0	1	0
40	613	0	10000	1	1	0	1	0
39	614	0	10000	1	1	0	1	0
38	615	0	10000	1	1	0	1	0
36	616	0	10000	1	1	0	1	0
36	617	0	10000	1	1	0	1	0
37	618	0	10000	1	1	0	1	0
37	619	0	10000	1	1	0	1	0
38	620	0	10000	1	1	0	1	0
38	621	0	10000	1	1	0	1	0
40	622	0	10000	1	1	0	1	0
41	623	0	10000	1	1	0	1	0
39	624	0	10000	1	1	0	1	0
39	625	0	10000	1	1	0	1	0
42	626	0	10000	1	1	0	1	0
43	627	0	10000	1	1	0	1	0
42	628	0	10000	1	1	0	1	0
42	629	0	10000	1	1	0	1	0
41	630	0	10000	1	1	0	1	0
39	631	0	10000	1	1	0	1	0
38	632	0	10000	1	1	0	1	0
37	633	0	10000	1	1	0	1	0
36	634	0	10000	1	1	0	1	0
36	635	0	10000	1	1	0	1	0
33	636	0	10000	1	1	0	1	0
32	637	0	10000	1	1	0	1	0
32	638	0	10000	1	1	0	1	0
32	639	0	10000	1	1	0	1	0
33	640	0	10000	1	1	0	1	0
33	641	0	10000	1	1	0	1	0
35	642	0	10000	1	1	0	1	0
38	643	0	10000	1	1	0	1	0
38	644	0	10000	1	1	0	1	0
37	645	0	10000	1	1	0	1	0
37	646	0	10000	1	1	0	1	0
37	647	0	10000	1	1	0	1	0
35	648	0	10000	1	1	0	1	0
35	649	0	10000	1	1	0	1	0
34	650	0	10000	1	1	0	1	0
34	651	0	10000	1	1	0	1	0
33	652	0	10000	1	1	0	1	0
35	653	0	10000	1	1	0	1	0
38	654	0	10000	1	1	0	1	0
37	655	0	10000	1	1	0	1	0
34	656	0	10000	1	1	0	1	0
33	657	0	10000	1	1	0	1	0
33	658	0	10000	1	1	0	1	0
33	659	0	10000	1	1	0	1	0
32	660	0	10000	1	1	0	1	0
32	661	0	10000	1	1	0	1	0
32	662	0	10000	1	1	0	1	0
31	663	0	10000	1	1	0	1	0
29	664	0	10000	1	1	0	1	0
29	665	0	10000	1	1	0	1	0
30	666	0	10000	1	1	0	1	0
31	667	0	10000	1	1	0	1	0
33	668	0	10000	1	1	0	1	0
33	669	0	10000	1	1	0	1	0
33	670	0	10000	1	1	0	1	0
37	671	0	10000	1	1	0	1	0
44	672	0	10000	1	1	0	1	0
49	673	0	10000	1	1	0	1	0
52	674	0	10000	1	1	0	1	0
54	675	0	10000	1	1	0	1	0
50	676	0	10000	1	1	0	1	0
49	677	0	10000	1	1	0	1	0
49	678	0	10000	1	1	0	1	0
48	679	0	10000	1	1	0	1	0
49	680	0	10000	1	1	0	1	0
48	681	0	10000	1	1	0	1	0
47	682	0	10000	1	1	0	1	0
45	683	0	10000	1	1	0	1	0
44	684	0	10000	1	1	0	1	0
42	685	0	10000	1	1	0	1	0
44	686	0	10000	1	1	0	1	0
44	687	0	10000	1	1	0	1	0
45	688	0	10000	1	1	0	1	0
46	689	0	10000	1	1	0	1	0
47	690	0	10000	1	1	0	1	0
46	691	0	10000	1	1	0	1	0
45	692	0	10000	1	1	0	1	0
43	693	0	10000	1	1	0	1	0
43	694	0	10000	1	1	0	1	0
42	695	0	10000	1	1	0	1	0
39	696	0	10000	1	1	0	1	0
40	697	0	10000	1	1	0	1	0
43	698	0	10000	1	1	0	1	0
47	699	0	10000	1	1	0	1	0
47	700	0	10000	1	1	0	1	0
48	701	0	10000	1	1	0	1	0
57	702	0	10000	1	1	0	1	0
61	703	0	10000	1	1	0	1	0
60	704	0	10000	1	1	0	1	0
83	705	0	10000	1	1	0	1	0
126	706	0	10000	1	1	0	1	0
133	707	0	10000	1	1	0	1	0
154	708	0	10000	1	1	0	1	0
175	709	0	10000	1	1	0	1	0
188	710	0	10000	1	1	0	1	0
201	711	0	10000	1	1	0	1	0
209	712	0	10000	1	1	0	1	0
208	713	0	10000	1	1	0	1	0
200	714	0	10000	1	1	0	1	0
206	715	0	10000	1	1	0	1	0
210	716	0	10000	1	1	0	1	0
203	717	0	10000	1	1	0	1	0
202	718	0	10000	1	1	0	1	0
205	719	0	10000	1	1	0	1	0
209	720	0	10000	1	1	0	1	0
214	721	0	10000	1	1	0	1	0
216	722	0	10000	1	1	0	1	0
210	723	0	10000	1	1	0	1	0
201	724	0	10000	1	1	0	1	0
195	725	0	10000	1	1	0	1	0
189	726	0	10000	1	1	0	1	0
181	727	0	10000	1	1	0	1	0
173	728	0	10000	1	1	0	1	0
165	729	0	10000	1	1	0	1	0
159	730	0	10000	1	1	0	1	0
152	731	0	10000	1	1	0	1	0
148	732	0	10000	1	1	0	1	0
143	733	0	10000	1	1	0	1	0
140	734	0	10000	1	1	0	1	0
134	735	0	10000	1	1	0	1	0
127	736	0	10000	1	1	0	1	0
122	737	0	10000	1	1	0	1	0
117	738	0	10000	1	1	0	1	0
113	739	0	10000	1	1	0	1	0
108	740	0	10000	1	1	0	1	0
106	741	0	10000	1	1	0	1	0
105	742	0	10000	1	1	0	1	0
102	743	0	10000	1	1	0	1	0
97	744	0	10000	1	1	0	1	0
95	745	0	10000	1	1	0	1	0
96	746	0	10000	1	1	0	1	0
93	747	0	10000	1	1	0	1	0
90	748	0	10000	1	1	0	1	0
89	749	0	10000	1	1	0	1	0
86	750	0	10000	1	1	0	1	0
84	751	0	10000	1	1	0	1	0
86	752	0	10000	1	1	0	1	0
89	753	0	10000	1	1	0	1	0
91	754	0	10000	1	1	0	1	0
92	755	0	10000	1	1	0	1	0
93	756	0	10000	1	1	0	1	0
94	757	0	10000	1	1	0	1	0
96	758	0	10000	1	1	0	1	0
96	759	0	10000	1	1	0	1	0
94	760	0	10000	1	1	0	1	0
94	761	0	10000	1	1	0	1	0
92	762	0	10000	1	1	0	1	0
89	763	0	10000	1	1	0	1	0
87	764	0	10000	1	1	0	1	0
85	765	0	10000	1	1	0	1	0
87	766	0	10000	1	1	0	1	0
84	767	0	10000	1	1	0	1	0
84	768	0	10000	1	1	0	1	0
82	769	0	10000	1	1	0	1	0
82	770	0	10000	1	1	0	1	0
81	771	0	10000	1	1	0	1	0
79	772	0	10000	1	1	0	1	0
80	773	0	10000	1	1	0	1	0
84	774	0	10000	1	1	0	1	0
86	775	0	10000	1	1	0	1	0
88	776	0	10000	1	1	0	1	0
100	777	0	10000	1	1	0	1	0
102	778	0	10000	1	1	0	1	0
106	779	0	10000	1	1	0	1	0
121	780	0	10000	1	1	0	1	0
132	781	0	10000	1	1	0	1	0
131	782	0	10000	1	1	0	1	0
134	783	0	10000	1	1	0	1	0
131	784	0	10000	1	1	0	1	0
137	785	0	10000	1	1	0	1	0
145	786	0	10000	1	1	0	1	0
139	787	0	10000	1	1	0	1	0
134	788	0	10000	1	1	0	1	0
132	789	0	10000	1	1	0	1	0
134	790	0	10000	1	1	0	1	0
133	791	0	10000	1	1	0	1	0
131	792	0	10000	1	1	0	1	0
132	793	0	10000	1	1	0	1	0
129	794	0	10000	1	1	0	1	0
128	795	0	10000	1	1	0	1	0
122	796	0	10000	1	1	0	1	0
118	797	0	10000	1	1	0	1	0
119	798	0	10000	1	1	0	1	0
118	799	0	10000	1	1	0	1	0
114	800	0	10000	1	1	0	1	0
117	801	0	10000	1	1	0	1	0
120	802	0	10000	1	1	0	1	0
117	803	0	10000	1	1	0	1	0
114	804	0	10000	1	1	0	1	0
112	805	0	10000	1	1	0	1	0
113	806	0	10000	1	1	0	1	0
110	807	0	10000	1	1	0	1	0
106	808	0	10000	1	1	0	1	0
102	809	0	10000	1	1	0	1	0
98	810	0	10000	1	1	0	1	0
95	811	0	10000	1	1	0	1	0
91	812	0	10000	1	1	0	1	0
89	813	0	10000	1	1	0	1	0
85	814	0	10000	1	1	0	1	0
84	815	0	10000	1	1	0	1	0
82	816	0	10000	1	1	0	1	0
81	817	0	10000	1	1	0	1	0
79	818	0	10000	1	1	0	1	0
77	819	0	10000	1	1	0	1	0
78	820	0	10000	1	1	0	1	0
81	821	0	10000	1	1	0	1	0
83	822	0	10000	1	1	0	1	0
80	823	0	10000	1	1	0	1	0
84	824	0	10000	1	1	0	1	0
91	825	0	10000	1	1	0	1	0
91	826	0	10000	1	1	0	1	0
92	827	0	10000	1	1	0	1	0
89	828	0	10000	1	1	0	1	0
88	829	0	10000	1	1	0	1	0
93	830	0	10000	1	1	0	1	0
97	831	0	10000	1	1	0	1	0
98	832	0	10000	1	1	0	1	0
97	833	0	10000	1	1	0	1	0
96	834	0	10000	1	1	0	1	0
97	835	0	10000	1	1	0	1	0
95	836	0	10000	1	1	0	1	0
93	837	0	10000	1	1	0	1	0
99	838	0	10000	1	1	0	1	0
122	839	0	10000	1	1	0	1	0
133	840	0	10000	1	1	0	1	0
143	841	0	10000	1	1	0	1	0
168	842	0	10000	1	1	0	1	0
187	843	0	10000	1	1	0	1	0
193	844	0	10000	1	1	0	1	0
185	845	0	10000	1	1	0	1	0
179	846	0	10000	1	1	0	1	0
173	847	0	10000	1	1	0	1	0
165	848	0	10000	1	1	0	1	0
159	849	0	10000	1	1	0	1	0
152	850	0	10000	1	1	0	1	0
147	851	0	10000	1	1	0	1	0
141	852	0	10000	1	1	0	1	0
140	853	0	10000	1	1	0	1	0
138	854	0	10000	1	1	0	1	0
136	855	0	10000	1	1	0	1	0
131	856	0	10000	1	1	0	1	0
129	857	0	10000	1	1	0	1	0
127	858	0	10000	1	1	0	1	0
122	859	0	10000	1	1	0	1	0
117	860	0	10000	1	1	0	1	0
112	861	0	10000	1	1	0	1	0
110	862	0	10000	1	1	0	1	0
104	863	0	10000	1	1	0	1	0
100	864	0	10000	1	1	0	1	0
97	865	0	10000	1	1	0	1	0
98	866	0	10000	1	1	0	1	0
96	867	0	10000	1	1	0	1	0
95	868	0	10000	1	1	0	1	0
95	869	0	10000	1	1	0	1	0
96	870	0	10000	1	1	0	1	0
93	871	0	10000	1	1	0	1	0
92	872	0	10000	1	1	0	1	0
88	873	0	10000	1	1	0	1	0
87	874	0	10000	1	1	0	1	0
93	875	0	10000	1	1	0	1	0
90	876	0	10000	1	1	0	1	0
88	877	0	10000	1	1	0	1	0
85	878	0	10000	1	1	0	1	0
82	879	0	10000	1	1	0	1	0
80	880	0	10000	1	1	0	1	0
81	881	0	10000	1	1	0	1	0
86	882	0	10000	1	1	0	1	0
87	883	0	10000	1	1	0	1	0
89	884	0	10000	1	1	0	1	0
89	885	0	10000	1	1	0	1	0
99	886	0	10000	1	1	0	1	0
115	887	0	10000	1	1	0	1	0
114	888	0	10000	1	1	0	1	0
125	889	0	10000	1	1	0	1	0
138	890	0	10000	1	1	0	1	0
146	891	0	10000	1	1	0	1	0
149	892	0	10000	1	1	0	1	0
149	893	0	10000	1	1	0	1	0
145	894	0	10000	1	1	0	1	0
139	895	0	10000	1	1	0	1	0
132	896	0	10000	1	1	0	1	0
130	897	0	10000	1	1	0	1	0
126	898	0	10000	1	1	0	1	0
120	899	0	10000	1	1	0	1	0
117	900	0	10000	1	1	0	1	0
115	901	0	10000	1	1	0	1	0
112	902	0	10000	1	1	0	1	0
108	903	0	10000	1	1	0	1	0
104	904	0	10000	1	1	0	1	0
100	905	0	10000	1	1	0	1	0
102	906	0	10000	1	1	0	1	0
118	907	0	10000	1	1	0	1	0
129	908	0	10000	1	1	0	1	0
139	909	0	10000	1	1	0	1	0
155	910	0	10000	1	1	0	1	0
172	911	0	10000	1	1	0	1	0
174	912	0	10000	1	1	0	1	0
182	913	0	10000	1	1	0	1	0
209	914	0	10000	1	1	0	1	0
242	915	0	10000	1	1	0	1	0
270	916	0	10000	1	1	0	1	0
271	917	0	10000	1	1	0	1	0
286	918	0	10000	1	1	0	1	0
316	919	0	10000	1	1	0	1	0
316	920	0	10000	1	1	0	1	0
312	921	0	10000	1	1	0	1	0
309	922	0	10000	1	1	0	1	0
298	923	0	10000	1	1	0	1	0
287	924	0	10000	1	1	0	1	0
286	925	0	10000	1	1	0	1	0
304	926	0	10000	1	1	0	1	0
333	927	0	10000	1	1	0	1	0
345	928	0	10000	1	1	0	1	0
337	929	0	10000	1	1	0	1	0
329	930	0	10000	1	1	0	1	0
343	931	0	10000	1	1	0	1	0
360	932	0	10000	1	1	0	1	0
352	933	0	10000	1	1	0	1	0
352	934	0	10000	1	1	0	1	0
343	935	0	10000	1	1	0	1	0
345	936	0	10000	1	1	0	1	0
336	937	0	10000	1	1	0	1	0
338	938	0	10000	1	1	0	1	0
342	939	0	10000	1	1	0	1	0
336	940	0	10000	1	1	0	1	0
323	941	0	10000	1	1	0	1	0
308	942	0	10000	1	1	0	1	0
294	943	0	10000	1	1	0	1	0
282	944	0	10000	1	1	0	1	0
271	945	0	10000	1	1	0	1	0
263	946	0	10000	1	1	0	1	0
253	947	0	10000	1	1	0	1	0
242	948	0	10000	1	1	0	1	0
233	949	0	10000	1	1	0	1	0
228	950	0	10000	1	1	0	1	0
224	951	0	10000	1	1	0	1	0
219	952	0	10000	1	1	0	1	0
216	953	0	10000	1	1	0	1	0
213	954	0	10000	1	1	0	1	0
210	955	0	10000	1	1	0	1	0
207	956	0	10000	1	1	0	1	0
202	957	0	10000	1	1	0	1	0
195	958	0	10000	1	1	0	1	0
187	959	0	10000	1	1	0	1	0
178	960	0	10000	1	1	0	1	0
172	961	0	10000	1	1	0	1	0
165	962	0	10000	1	1	0	1	0
159	963	0	10000	1	1	0	1	0
157	964	0	10000	1	1	0	1	0
154	965	0	10000	1	1	0	1	0
152	966	0	10000	1	1	0	1	0
148	967	0	10000	1	1	0	1	0
144	968	0	10000	1	1	0	1	0
138	969	0	10000	1	1	0	1	0
136	970	0	10000	1	1	0	1	0
136	971	0	10000	1	1	0	1	0
134	972	0	10000	1	1	0	1	0
129	973	0	10000	1	1	0	1	0
124	974	0	10000	1	1	0	1	0
119	975	0	10000	1	1	0	1	0
116	976	0	10000	1	1	0	1	0
120	977	0	10000	1	1	0	1	0
122	978	0	10000	1	1	0	1	0
119	979	0	10000	1	1	0	1	0
115	980	0	10000	1	1	0	1	0
112	981	0	10000	1	1	0	1	0
110	982	0	10000	1	1	0	1	0
108	983	0	10000	1	1	0	1	0
104	984	0	10000	1	1	0	1	0
100	985	0	10000	1	1	0	1	0
98	986	0	10000	1	1	0	1	0
95	987	0	10000	1	1	0	1	0
92	988	0	10000	1	1	0	1	0
89	989	0	10000	1	1	0	1	0
88	990	0	10000	1	1	0	1	0
84	991	0	10000	1	1	0	1	0
81	992	0	10000	1	1	0	1	0
80	993	0	10000	1	1	0	1	0
79	994	0	10000	1	1	0	1	0
78	995	0	10000	1	1	0	1	0
74	996	0	10000	1	1	0	1	0
72	997	0	10000	1	1	0	1	0
69	998	0	10000	1	1	0	1	0
68	999	0	10000	1	1	0	1	0
69	1000	0	10000	1	1	0	1	0
49	1	0	10000	2	1	0	2	0
56	2	0	10000	2	1	0	2	0
59	3	0	10000	2	1	0	2	0
58	4	0	10000	2	1	0	2	0
58	5	0	10000	2	1	0	2	0
58	6	0	10000	2	1	0	2	0
60	7	0	10000	2	1	0	2	0
60	8	0	10000	2	1	0	2	0
59	9	0	10000	2	1	0	2	0
56	10	0	10000	2	1	0	2	0
56	11	0	10000	2	1	0	2	0
58	12	0	10000	2	1	0	2	0
56	13	0	10000	2	1	0	2	0
54	14	0	10000	2	1	0	2	0
52	15	0	10000	2	1	0	2	0
50	16	0	10000	2	1	0	2	0
49	17	0	10000	2	1	0	2	0
51	18	0	10000	2	1	0	2	0
55	19	0	10000	2	1	0	2	0
56	20	0	10000	2	1	0	2	0
55	21	0	10000	2	1	0	2	0
54	22	0	10000	2	1	0	2	0
52	23	0	10000	2	1	0	2	0
51	24	0	10000	2	1	0	2	0
54	25	0	10000	2	1	0	2	0
58	26	0	10000	2	1	0	2	0
57	27	0	10000	2	1	0	2	0
56	28	0	10000	2	1	0	2	0
55	29	0	10000	2	1	0	2	0
56	30	0	10000	2	1	0	2	0
56	31	0	10000	2	1	0	2	0
56	32	0	10000	2	1	0	2	0
58	33	0	10000	2	1	0	2	0
57	34	0	10000	2	1	0	2	0
54	35	0	10000	2	1	0	2	0
53	36	0	10000	2	1	0	2	0
51	37	0	10000	2	1	0	2	0
49	38	0	10000	2	1	0	2	0
49	39	0	10000	2	1	0	2	0
48	40	0	10000	2	1	0	2	0
47	41	0	10000	2	1	0	2	0
46	42	0	10000	2	1	0	2	0
46	43	0	10000	2	1	0	2	0
44	44	0	10000	2	1	0	2	0
44	45	0	10000	2	1	0	2	0
43	46	0	10000	2	1	0	2	0
42	47	0	10000	2	1	0	2	0
40	48	0	10000	2	1	0	2	0
38	49	0	10000	2	1	0	2	0
36	50	0	10000	2	1	0	2	0
36	51	0	10000	2	1	0	2	0
36	52	0	10000	2	1	0	2	0
35	53	0	10000	2	1	0	2	0
35	54	0	10000	2	1	0	2	0
37	55	0	10000	2	1	0	2	0
38	56	0	10000	2	1	0	2	0
39	57	0	10000	2	1	0	2	0
39	58	0	10000	2	1	0	2	0
41	59	0	10000	2	1	0	2	0
42	60	0	10000	2	1	0	2	0
42	61	0	10000	2	1	0	2	0
45	62	0	10000	2	1	0	2	0
51	63	0	10000	2	1	0	2	0
56	64	0	10000	2	1	0	2	0
54	65	0	10000	2	1	0	2	0
53	66	0	10000	2	1	0	2	0
55	67	0	10000	2	1	0	2	0
55	68	0	10000	2	1	0	2	0
53	69	0	10000	2	1	0	2	0
52	70	0	10000	2	1	0	2	0
54	71	0	10000	2	1	0	2	0
54	72	0	10000	2	1	0	2	0
53	73	0	10000	2	1	0	2	0
51	74	0	10000	2	1	0	2	0
49	75	0	10000	2	1	0	2	0
48	76	0	10000	2	1	0	2	0
47	77	0	10000	2	1	0	2	0
47	78	0	10000	2	1	0	2	0
46	79	0	10000	2	1	0	2	0
45	80	0	10000	2	1	0	2	0
43	81	0	10000	2	1	0	2	0
41	82	0	10000	2	1	0	2	0
39	83	0	10000	2	1	0	2	0
38	84	0	10000	2	1	0	2	0
38	85	0	10000	2	1	0	2	0
36	86	0	10000	2	1	0	2	0
36	87	0	10000	2	1	0	2	0
35	88	0	10000	2	1	0	2	0
35	89	0	10000	2	1	0	2	0
34	90	0	10000	2	1	0	2	0
35	91	0	10000	2	1	0	2	0
34	92	0	10000	2	1	0	2	0
33	93	0	10000	2	1	0	2	0
36	94	0	10000	2	1	0	2	0
41	95	0	10000	2	1	0	2	0
45	96	0	10000	2	1	0	2	0
45	97	0	10000	2	1	0	2	0
44	98	0	10000	2	1	0	2	0
45	99	0	10000	2	1	0	2	0
46	100	0	10000	2	1	0	2	0
47	101	0	10000	2	1	0	2	0
48	102	0	10000	2	1	0	2	0
47	103	0	10000	2	1	0	2	0
47	104	0	10000	2	1	0	2	0
47	105	0	10000	2	1	0	2	0
48	106	0	10000	2	1	0	2	0
47	107	0	10000	2	1	0	2	0
46	108	0	10000	2	1	0	2	0
47	109	0	10000	2	1	0	2	0
45	110	0	10000	2	1	0	2	0
44	111	0	10000	2	1	0	2	0
44	112	0	10000	2	1	0	2	0
43	113	0	10000	2	1	0	2	0
44	114	0	10000	2	1	0	2	0
44	115	0	10000	2	1	0	2	0
44	116	0	10000	2	1	0	2	0
44	117	0	10000	2	1	0	2	0
47	118	0	10000	2	1	0	2	0
47	119	0	10000	2	1	0	2	0
47	120	0	10000	2	1	0	2	0
44	121	0	10000	2	1	0	2	0
42	122	0	10000	2	1	0	2	0
43	123	0	10000	2	1	0	2	0
42	124	0	10000	2	1	0	2	0
42	125	0	10000	2	1	0	2	0
40	126	0	10000	2	1	0	2	0
39	127	0	10000	2	1	0	2	0
38	128	0	10000	2	1	0	2	0
36	129	0	10000	2	1	0	2	0
35	130	0	10000	2	1	0	2	0
36	131	0	10000	2	1	0	2	0
39	132	0	10000	2	1	0	2	0
39	133	0	10000	2	1	0	2	0
39	134	0	10000	2	1	0	2	0
39	135	0	10000	2	1	0	2	0
38	136	0	10000	2	1	0	2	0
38	137	0	10000	2	1	0	2	0
40	138	0	10000	2	1	0	2	0
42	139	0	10000	2	1	0	2	0
42	140	0	10000	2	1	0	2	0
40	141	0	10000	2	1	0	2	0
37	142	0	10000	2	1	0	2	0
38	143	0	10000	2	1	0	2	0
37	144	0	10000	2	1	0	2	0
35	145	0	10000	2	1	0	2	0
35	146	0	10000	2	1	0	2	0
37	147	0	10000	2	1	0	2	0
38	148	0	10000	2	1	0	2	0
37	149	0	10000	2	1	0	2	0
36	150	0	10000	2	1	0	2	0
37	151	0	10000	2	1	0	2	0
38	152	0	10000	2	1	0	2	0
37	153	0	10000	2	1	0	2	0
37	154	0	10000	2	1	0	2	0
36	155	0	10000	2	1	0	2	0
36	156	0	10000	2	1	0	2	0
37	157	0	10000	2	1	0	2	0
37	158	0	10000	2	1	0	2	0
40	159	0	10000	2	1	0	2	0
42	160	0	10000	2	1	0	2	0
41	161	0	10000	2	1	0	2	0
42	162	0	10000	2	1	0	2	0
47	163	0	10000	2	1	0	2	0
49	164	0	10000	2	1	0	2	0
50	165	0	10000	2	1	0	2	0
50	166	0	10000	2	1	0	2	0
49	167	0	10000	2	1	0	2	0
47	168	0	10000	2	1	0	2	0
45	169	0	10000	2	1	0	2	0
43	170	0	10000	2	1	0	2	0
43	171	0	10000	2	1	0	2	0
43	172	0	10000	2	1	0	2	0
41	173	0	10000	2	1	0	2	0
40	174	0	10000	2	1	0	2	0
38	175	0	10000	2	1	0	2	0
37	176	0	10000	2	1	0	2	0
36	177	0	10000	2	1	0	2	0
35	178	0	10000	2	1	0	2	0
35	179	0	10000	2	1	0	2	0
36	180	0	10000	2	1	0	2	0
35	181	0	10000	2	1	0	2	0
34	182	0	10000	2	1	0	2	0
34	183	0	10000	2	1	0	2	0
34	184	0	10000	2	1	0	2	0
34	185	0	10000	2	1	0	2	0
33	186	0	10000	2	1	0	2	0
33	187	0	10000	2	1	0	2	0
32	188	0	10000	2	1	0	2	0
31	189	0	10000	2	1	0	2	0
31	190	0	10000	2	1	0	2	0
31	191	0	10000	2	1	0	2	0
33	192	0	10000	2	1	0	2	0
34	193	0	10000	2	1	0	2	0
33	194	0	10000	2	1	0	2	0
36	195	0	10000	2	1	0	2	0
42	196	0	10000	2	1	0	2	0
44	197	0	10000	2	1	0	2	0
44	198	0	10000	2	1	0	2	0
44	199	0	10000	2	1	0	2	0
44	200	0	10000	2	1	0	2	0
44	201	0	10000	2	1	0	2	0
44	202	0	10000	2	1	0	2	0
43	203	0	10000	2	1	0	2	0
42	204	0	10000	2	1	0	2	0
42	205	0	10000	2	1	0	2	0
42	206	0	10000	2	1	0	2	0
40	207	0	10000	2	1	0	2	0
38	208	0	10000	2	1	0	2	0
37	209	0	10000	2	1	0	2	0
36	210	0	10000	2	1	0	2	0
37	211	0	10000	2	1	0	2	0
40	212	0	10000	2	1	0	2	0
41	213	0	10000	2	1	0	2	0
39	214	0	10000	2	1	0	2	0
38	215	0	10000	2	1	0	2	0
38	216	0	10000	2	1	0	2	0
37	217	0	10000	2	1	0	2	0
37	218	0	10000	2	1	0	2	0
37	219	0	10000	2	1	0	2	0
37	220	0	10000	2	1	0	2	0
35	221	0	10000	2	1	0	2	0
34	222	0	10000	2	1	0	2	0
37	223	0	10000	2	1	0	2	0
39	224	0	10000	2	1	0	2	0
40	225	0	10000	2	1	0	2	0
39	226	0	10000	2	1	0	2	0
38	227	0	10000	2	1	0	2	0
36	228	0	10000	2	1	0	2	0
35	229	0	10000	2	1	0	2	0
34	230	0	10000	2	1	0	2	0
33	231	0	10000	2	1	0	2	0
34	232	0	10000	2	1	0	2	0
33	233	0	10000	2	1	0	2	0
32	234	0	10000	2	1	0	2	0
31	235	0	10000	2	1	0	2	0
32	236	0	10000	2	1	0	2	0
31	237	0	10000	2	1	0	2	0
31	238	0	10000	2	1	0	2	0
32	239	0	10000	2	1	0	2	0
33	240	0	10000	2	1	0	2	0
32	241	0	10000	2	1	0	2	0
31	242	0	10000	2	1	0	2	0
31	243	0	10000	2	1	0	2	0
32	244	0	10000	2	1	0	2	0
31	245	0	10000	2	1	0	2	0
32	246	0	10000	2	1	0	2	0
33	247	0	10000	2	1	0	2	0
33	248	0	10000	2	1	0	2	0
32	249	0	10000	2	1	0	2	0
32	250	0	10000	2	1	0	2	0
32	251	0	10000	2	1	0	2	0
32	252	0	10000	2	1	0	2	0
32	253	0	10000	2	1	0	2	0
31	254	0	10000	2	1	0	2	0
30	255	0	10000	2	1	0	2	0
30	256	0	10000	2	1	0	2	0
28	257	0	10000	2	1	0	2	0
29	258	0	10000	2	1	0	2	0
28	259	0	10000	2	1	0	2	0
28	260	0	10000	2	1	0	2	0
28	261	0	10000	2	1	0	2	0
28	262	0	10000	2	1	0	2	0
29	263	0	10000	2	1	0	2	0
30	264	0	10000	2	1	0	2	0
32	265	0	10000	2	1	0	2	0
32	266	0	10000	2	1	0	2	0
32	267	0	10000	2	1	0	2	0
31	268	0	10000	2	1	0	2	0
31	269	0	10000	2	1	0	2	0
32	270	0	10000	2	1	0	2	0
33	271	0	10000	2	1	0	2	0
34	272	0	10000	2	1	0	2	0
35	273	0	10000	2	1	0	2	0
37	274	0	10000	2	1	0	2	0
41	275	0	10000	2	1	0	2	0
43	276	0	10000	2	1	0	2	0
43	277	0	10000	2	1	0	2	0
43	278	0	10000	2	1	0	2	0
42	279	0	10000	2	1	0	2	0
41	280	0	10000	2	1	0	2	0
39	281	0	10000	2	1	0	2	0
37	282	0	10000	2	1	0	2	0
37	283	0	10000	2	1	0	2	0
38	284	0	10000	2	1	0	2	0
39	285	0	10000	2	1	0	2	0
39	286	0	10000	2	1	0	2	0
38	287	0	10000	2	1	0	2	0
39	288	0	10000	2	1	0	2	0
40	289	0	10000	2	1	0	2	0
41	290	0	10000	2	1	0	2	0
44	291	0	10000	2	1	0	2	0
47	292	0	10000	2	1	0	2	0
46	293	0	10000	2	1	0	2	0
46	294	0	10000	2	1	0	2	0
46	295	0	10000	2	1	0	2	0
47	296	0	10000	2	1	0	2	0
47	297	0	10000	2	1	0	2	0
48	298	0	10000	2	1	0	2	0
47	299	0	10000	2	1	0	2	0
47	300	0	10000	2	1	0	2	0
44	301	0	10000	2	1	0	2	0
44	302	0	10000	2	1	0	2	0
49	303	0	10000	2	1	0	2	0
54	304	0	10000	2	1	0	2	0
59	305	0	10000	2	1	0	2	0
65	306	0	10000	2	1	0	2	0
72	307	0	10000	2	1	0	2	0
81	308	0	10000	2	1	0	2	0
88	309	0	10000	2	1	0	2	0
94	310	0	10000	2	1	0	2	0
99	311	0	10000	2	1	0	2	0
104	312	0	10000	2	1	0	2	0
107	313	0	10000	2	1	0	2	0
111	314	0	10000	2	1	0	2	0
116	315	0	10000	2	1	0	2	0
124	316	0	10000	2	1	0	2	0
131	317	0	10000	2	1	0	2	0
138	318	0	10000	2	1	0	2	0
146	319	0	10000	2	1	0	2	0
155	320	0	10000	2	1	0	2	0
163	321	0	10000	2	1	0	2	0
170	322	0	10000	2	1	0	2	0
176	323	0	10000	2	1	0	2	0
180	324	0	10000	2	1	0	2	0
184	325	0	10000	2	1	0	2	0
185	326	0	10000	2	1	0	2	0
184	327	0	10000	2	1	0	2	0
184	328	0	10000	2	1	0	2	0
182	329	0	10000	2	1	0	2	0
179	330	0	10000	2	1	0	2	0
180	331	0	10000	2	1	0	2	0
177	332	0	10000	2	1	0	2	0
173	333	0	10000	2	1	0	2	0
170	334	0	10000	2	1	0	2	0
166	335	0	10000	2	1	0	2	0
164	336	0	10000	2	1	0	2	0
162	337	0	10000	2	1	0	2	0
159	338	0	10000	2	1	0	2	0
157	339	0	10000	2	1	0	2	0
154	340	0	10000	2	1	0	2	0
151	341	0	10000	2	1	0	2	0
143	342	0	10000	2	1	0	2	0
138	343	0	10000	2	1	0	2	0
132	344	0	10000	2	1	0	2	0
128	345	0	10000	2	1	0	2	0
125	346	0	10000	2	1	0	2	0
120	347	0	10000	2	1	0	2	0
117	348	0	10000	2	1	0	2	0
117	349	0	10000	2	1	0	2	0
122	350	0	10000	2	1	0	2	0
126	351	0	10000	2	1	0	2	0
130	352	0	10000	2	1	0	2	0
132	353	0	10000	2	1	0	2	0
133	354	0	10000	2	1	0	2	0
137	355	0	10000	2	1	0	2	0
139	356	0	10000	2	1	0	2	0
141	357	0	10000	2	1	0	2	0
147	358	0	10000	2	1	0	2	0
155	359	0	10000	2	1	0	2	0
164	360	0	10000	2	1	0	2	0
173	361	0	10000	2	1	0	2	0
182	362	0	10000	2	1	0	2	0
189	363	0	10000	2	1	0	2	0
195	364	0	10000	2	1	0	2	0
198	365	0	10000	2	1	0	2	0
199	366	0	10000	2	1	0	2	0
197	367	0	10000	2	1	0	2	0
198	368	0	10000	2	1	0	2	0
199	369	0	10000	2	1	0	2	0
205	370	0	10000	2	1	0	2	0
213	371	0	10000	2	1	0	2	0
218	372	0	10000	2	1	0	2	0
216	373	0	10000	2	1	0	2	0
211	374	0	10000	2	1	0	2	0
207	375	0	10000	2	1	0	2	0
204	376	0	10000	2	1	0	2	0
201	377	0	10000	2	1	0	2	0
199	378	0	10000	2	1	0	2	0
197	379	0	10000	2	1	0	2	0
196	380	0	10000	2	1	0	2	0
196	381	0	10000	2	1	0	2	0
196	382	0	10000	2	1	0	2	0
199	383	0	10000	2	1	0	2	0
201	384	0	10000	2	1	0	2	0
200	385	0	10000	2	1	0	2	0
197	386	0	10000	2	1	0	2	0
191	387	0	10000	2	1	0	2	0
186	388	0	10000	2	1	0	2	0
179	389	0	10000	2	1	0	2	0
172	390	0	10000	2	1	0	2	0
167	391	0	10000	2	1	0	2	0
162	392	0	10000	2	1	0	2	0
158	393	0	10000	2	1	0	2	0
155	394	0	10000	2	1	0	2	0
155	395	0	10000	2	1	0	2	0
157	396	0	10000	2	1	0	2	0
158	397	0	10000	2	1	0	2	0
157	398	0	10000	2	1	0	2	0
157	399	0	10000	2	1	0	2	0
160	400	0	10000	2	1	0	2	0
160	401	0	10000	2	1	0	2	0
158	402	0	10000	2	1	0	2	0
155	403	0	10000	2	1	0	2	0
150	404	0	10000	2	1	0	2	0
144	405	0	10000	2	1	0	2	0
138	406	0	10000	2	1	0	2	0
133	407	0	10000	2	1	0	2	0
128	408	0	10000	2	1	0	2	0
123	409	0	10000	2	1	0	2	0
118	410	0	10000	2	1	0	2	0
115	411	0	10000	2	1	0	2	0
114	412	0	10000	2	1	0	2	0
113	413	0	10000	2	1	0	2	0
110	414	0	10000	2	1	0	2	0
105	415	0	10000	2	1	0	2	0
102	416	0	10000	2	1	0	2	0
98	417	0	10000	2	1	0	2	0
94	418	0	10000	2	1	0	2	0
92	419	0	10000	2	1	0	2	0
91	420	0	10000	2	1	0	2	0
86	421	0	10000	2	1	0	2	0
82	422	0	10000	2	1	0	2	0
80	423	0	10000	2	1	0	2	0
78	424	0	10000	2	1	0	2	0
75	425	0	10000	2	1	0	2	0
72	426	0	10000	2	1	0	2	0
70	427	0	10000	2	1	0	2	0
67	428	0	10000	2	1	0	2	0
64	429	0	10000	2	1	0	2	0
62	430	0	10000	2	1	0	2	0
61	431	0	10000	2	1	0	2	0
59	432	0	10000	2	1	0	2	0
57	433	0	10000	2	1	0	2	0
55	434	0	10000	2	1	0	2	0
53	435	0	10000	2	1	0	2	0
51	436	0	10000	2	1	0	2	0
51	437	0	10000	2	1	0	2	0
51	438	0	10000	2	1	0	2	0
54	439	0	10000	2	1	0	2	0
53	440	0	10000	2	1	0	2	0
52	441	0	10000	2	1	0	2	0
55	442	0	10000	2	1	0	2	0
58	443	0	10000	2	1	0	2	0
60	444	0	10000	2	1	0	2	0
59	445	0	10000	2	1	0	2	0
56	446	0	10000	2	1	0	2	0
54	447	0	10000	2	1	0	2	0
53	448	0	10000	2	1	0	2	0
53	449	0	10000	2	1	0	2	0
50	450	0	10000	2	1	0	2	0
49	451	0	10000	2	1	0	2	0
50	452	0	10000	2	1	0	2	0
48	453	0	10000	2	1	0	2	0
48	454	0	10000	2	1	0	2	0
48	455	0	10000	2	1	0	2	0
47	456	0	10000	2	1	0	2	0
46	457	0	10000	2	1	0	2	0
45	458	0	10000	2	1	0	2	0
44	459	0	10000	2	1	0	2	0
43	460	0	10000	2	1	0	2	0
42	461	0	10000	2	1	0	2	0
40	462	0	10000	2	1	0	2	0
40	463	0	10000	2	1	0	2	0
39	464	0	10000	2	1	0	2	0
38	465	0	10000	2	1	0	2	0
37	466	0	10000	2	1	0	2	0
36	467	0	10000	2	1	0	2	0
36	468	0	10000	2	1	0	2	0
36	469	0	10000	2	1	0	2	0
34	470	0	10000	2	1	0	2	0
34	471	0	10000	2	1	0	2	0
35	472	0	10000	2	1	0	2	0
35	473	0	10000	2	1	0	2	0
37	474	0	10000	2	1	0	2	0
37	475	0	10000	2	1	0	2	0
37	476	0	10000	2	1	0	2	0
36	477	0	10000	2	1	0	2	0
39	478	0	10000	2	1	0	2	0
40	479	0	10000	2	1	0	2	0
42	480	0	10000	2	1	0	2	0
42	481	0	10000	2	1	0	2	0
43	482	0	10000	2	1	0	2	0
43	483	0	10000	2	1	0	2	0
43	484	0	10000	2	1	0	2	0
42	485	0	10000	2	1	0	2	0
43	486	0	10000	2	1	0	2	0
49	487	0	10000	2	1	0	2	0
55	488	0	10000	2	1	0	2	0
58	489	0	10000	2	1	0	2	0
60	490	0	10000	2	1	0	2	0
60	491	0	10000	2	1	0	2	0
59	492	0	10000	2	1	0	2	0
56	493	0	10000	2	1	0	2	0
55	494	0	10000	2	1	0	2	0
55	495	0	10000	2	1	0	2	0
56	496	0	10000	2	1	0	2	0
60	497	0	10000	2	1	0	2	0
62	498	0	10000	2	1	0	2	0
65	499	0	10000	2	1	0	2	0
68	500	0	10000	2	1	0	2	0
68	501	0	10000	2	1	0	2	1
67	502	0	10000	2	1	0	2	1
67	503	0	10000	2	1	0	2	1
66	504	0	10000	2	1	0	2	1
63	505	0	10000	2	1	0	2	1
61	506	0	10000	2	1	0	2	1
59	507	0	10000	2	1	0	2	1
57	508	0	10000	2	1	0	2	1
56	509	0	10000	2	1	0	2	1
53	510	0	10000	2	1	0	2	1
53	511	0	10000	2	1	0	2	1
52	512	0	10000	2	1	0	2	1
50	513	0	10000	2	1	0	2	1
49	514	0	10000	2	1	0	2	1
46	515	0	10000	2	1	0	2	1
44	516	0	10000	2	1	0	2	1
44	517	0	10000	2	1	0	2	1
46	518	0	10000	2	1	0	2	1
51	519	0	10000	2	1	0	2	1
55	520	0	10000	2	1	0	2	1
56	521	0	10000	2	1	0	2	1
53	522	0	10000	2	1	0	2	1
54	523	0	10000	2	1	0	2	1
54	524	0	10000	2	1	0	2	1
56	525	0	10000	2	1	0	2	1
55	526	0	10000	2	1	0	2	1
53	527	0	10000	2	1	0	2	1
54	528	0	10000	2	1	0	2	1
55	529	0	10000	2	1	0	2	1
56	530	0	10000	2	1	0	2	1
59	531	0	10000	2	1	0	2	1
61	532	0	10000	2	1	0	2	1
62	533	0	10000	2	1	0	2	1
63	534	0	10000	2	1	0	2	1
66	535	0	10000	2	1	0	2	1
65	536	0	10000	2	1	0	2	1
63	537	0	10000	2	1	0	2	1
62	538	0	10000	2	1	0	2	1
63	539	0	10000	2	1	0	2	1
62	540	0	10000	2	1	0	2	1
64	541	0	10000	2	1	0	2	1
63	542	0	10000	2	1	0	2	1
61	543	0	10000	2	1	0	2	1
60	544	0	10000	2	1	0	2	1
62	545	0	10000	2	1	0	2	1
62	546	0	10000	2	1	0	2	1
63	547	0	10000	2	1	0	2	1
62	548	0	10000	2	1	0	2	1
59	549	0	10000	2	1	0	2	1
57	550	0	10000	2	1	0	2	1
56	551	0	10000	2	1	0	2	0
58	552	0	10000	2	1	0	2	0
60	553	0	10000	2	1	0	2	0
60	554	0	10000	2	1	0	2	0
58	555	0	10000	2	1	0	2	0
57	556	0	10000	2	1	0	2	0
56	557	0	10000	2	1	0	2	0
55	558	0	10000	2	1	0	2	0
56	559	0	10000	2	1	0	2	0
57	560	0	10000	2	1	0	2	0
56	561	0	10000	2	1	0	2	0
56	562	0	10000	2	1	0	2	0
55	563	0	10000	2	1	0	2	0
57	564	0	10000	2	1	0	2	0
61	565	0	10000	2	1	0	2	0
62	566	0	10000	2	1	0	2	0
59	567	0	10000	2	1	0	2	0
58	568	0	10000	2	1	0	2	0
56	569	0	10000	2	1	0	2	0
54	570	0	10000	2	1	0	2	0
53	571	0	10000	2	1	0	2	0
54	572	0	10000	2	1	0	2	0
55	573	0	10000	2	1	0	2	0
53	574	0	10000	2	1	0	2	0
52	575	0	10000	2	1	0	2	0
52	576	0	10000	2	1	0	2	0
52	577	0	10000	2	1	0	2	0
52	578	0	10000	2	1	0	2	0
51	579	0	10000	2	1	0	2	0
51	580	0	10000	2	1	0	2	0
48	581	0	10000	2	1	0	2	0
47	582	0	10000	2	1	0	2	0
46	583	0	10000	2	1	0	2	0
45	584	0	10000	2	1	0	2	0
46	585	0	10000	2	1	0	2	0
45	586	0	10000	2	1	0	2	0
47	587	0	10000	2	1	0	2	0
49	588	0	10000	2	1	0	2	0
53	589	0	10000	2	1	0	2	0
54	590	0	10000	2	1	0	2	0
56	591	0	10000	2	1	0	2	0
56	592	0	10000	2	1	0	2	0
55	593	0	10000	2	1	0	2	0
54	594	0	10000	2	1	0	2	0
56	595	0	10000	2	1	0	2	0
59	596	0	10000	2	1	0	2	0
63	597	0	10000	2	1	0	2	0
64	598	0	10000	2	1	0	2	0
62	599	0	10000	2	1	0	2	0
60	600	0	10000	2	1	0	2	0
57	601	0	10000	2	1	0	2	0
54	602	0	10000	2	1	0	2	0
54	603	0	10000	2	1	0	2	0
54	604	0	10000	2	1	0	2	0
52	605	0	10000	2	1	0	2	0
52	606	0	10000	2	1	0	2	0
52	607	0	10000	2	1	0	2	0
54	608	0	10000	2	1	0	2	0
53	609	0	10000	2	1	0	2	0
53	610	0	10000	2	1	0	2	0
57	611	0	10000	2	1	0	2	0
61	612	0	10000	2	1	0	2	0
62	613	0	10000	2	1	0	2	0
63	614	0	10000	2	1	0	2	0
71	615	0	10000	2	1	0	2	0
72	616	0	10000	2	1	0	2	0
72	617	0	10000	2	1	0	2	0
77	618	0	10000	2	1	0	2	0
80	619	0	10000	2	1	0	2	0
85	620	0	10000	2	1	0	2	0
122	621	0	10000	2	1	0	2	0
148	622	0	10000	2	1	0	2	0
205	623	0	10000	2	1	0	2	0
279	624	0	10000	2	1	0	2	0
321	625	0	10000	2	1	0	2	0
330	626	0	10000	2	1	0	2	0
337	627	0	10000	2	1	0	2	0
379	628	0	10000	2	1	0	2	0
380	629	0	10000	2	1	0	2	0
390	630	0	10000	2	1	0	2	0
419	631	0	10000	2	1	0	2	0
415	632	0	10000	2	1	0	2	0
411	633	0	10000	2	1	0	2	0
419	634	0	10000	2	1	0	2	0
444	635	0	10000	2	1	0	2	0
468	636	0	10000	2	1	0	2	0
479	637	0	10000	2	1	0	2	0
484	638	0	10000	2	1	0	2	0
479	639	0	10000	2	1	0	2	0
460	640	0	10000	2	1	0	2	0
443	641	0	10000	2	1	0	2	0
423	642	0	10000	2	1	0	2	0
412	643	0	10000	2	1	0	2	0
399	644	0	10000	2	1	0	2	0
381	645	0	10000	2	1	0	2	0
364	646	0	10000	2	1	0	2	0
347	647	0	10000	2	1	0	2	0
332	648	0	10000	2	1	0	2	0
318	649	0	10000	2	1	0	2	0
303	650	0	10000	2	1	0	2	0
292	651	0	10000	2	1	0	2	0
283	652	0	10000	2	1	0	2	0
271	653	0	10000	2	1	0	2	0
259	654	0	10000	2	1	0	2	0
248	655	0	10000	2	1	0	2	0
245	656	0	10000	2	1	0	2	0
248	657	0	10000	2	1	0	2	0
248	658	0	10000	2	1	0	2	0
240	659	0	10000	2	1	0	2	0
233	660	0	10000	2	1	0	2	0
222	661	0	10000	2	1	0	2	0
212	662	0	10000	2	1	0	2	0
203	663	0	10000	2	1	0	2	0
194	664	0	10000	2	1	0	2	0
187	665	0	10000	2	1	0	2	0
179	666	0	10000	2	1	0	2	0
174	667	0	10000	2	1	0	2	0
166	668	0	10000	2	1	0	2	0
159	669	0	10000	2	1	0	2	0
155	670	0	10000	2	1	0	2	0
151	671	0	10000	2	1	0	2	0
149	672	0	10000	2	1	0	2	0
144	673	0	10000	2	1	0	2	0
140	674	0	10000	2	1	0	2	0
138	675	0	10000	2	1	0	2	0
138	676	0	10000	2	1	0	2	0
135	677	0	10000	2	1	0	2	0
131	678	0	10000	2	1	0	2	0
127	679	0	10000	2	1	0	2	0
122	680	0	10000	2	1	0	2	0
116	681	0	10000	2	1	0	2	0
110	682	0	10000	2	1	0	2	0
106	683	0	10000	2	1	0	2	0
102	684	0	10000	2	1	0	2	0
98	685	0	10000	2	1	0	2	0
95	686	0	10000	2	1	0	2	0
99	687	0	10000	2	1	0	2	0
100	688	0	10000	2	1	0	2	0
98	689	0	10000	2	1	0	2	0
94	690	0	10000	2	1	0	2	0
96	691	0	10000	2	1	0	2	0
100	692	0	10000	2	1	0	2	0
102	693	0	10000	2	1	0	2	0
103	694	0	10000	2	1	0	2	0
100	695	0	10000	2	1	0	2	0
97	696	0	10000	2	1	0	2	0
96	697	0	10000	2	1	0	2	0
96	698	0	10000	2	1	0	2	0
94	699	0	10000	2	1	0	2	0
93	700	0	10000	2	1	0	2	0
92	701	0	10000	2	1	0	2	0
88	702	0	10000	2	1	0	2	0
86	703	0	10000	2	1	0	2	0
82	704	0	10000	2	1	0	2	0
79	705	0	10000	2	1	0	2	0
76	706	0	10000	2	1	0	2	0
73	707	0	10000	2	1	0	2	0
72	708	0	10000	2	1	0	2	0
70	709	0	10000	2	1	0	2	0
71	710	0	10000	2	1	0	2	0
74	711	0	10000	2	1	0	2	0
79	712	0	10000	2	1	0	2	0
77	713	0	10000	2	1	0	2	0
74	714	0	10000	2	1	0	2	0
73	715	0	10000	2	1	0	2	0
71	716	0	10000	2	1	0	2	0
68	717	0	10000	2	1	0	2	0
68	718	0	10000	2	1	0	2	0
70	719	0	10000	2	1	0	2	0
72	720	0	10000	2	1	0	2	0
71	721	0	10000	2	1	0	2	0
68	722	0	10000	2	1	0	2	0
66	723	0	10000	2	1	0	2	0
65	724	0	10000	2	1	0	2	0
65	725	0	10000	2	1	0	2	0
64	726	0	10000	2	1	0	2	0
61	727	0	10000	2	1	0	2	0
59	728	0	10000	2	1	0	2	0
57	729	0	10000	2	1	0	2	0
55	730	0	10000	2	1	0	2	0
55	731	0	10000	2	1	0	2	0
54	732	0	10000	2	1	0	2	0
51	733	0	10000	2	1	0	2	0
50	734	0	10000	2	1	0	2	0
50	735	0	10000	2	1	0	2	0
50	736	0	10000	2	1	0	2	0
49	737	0	10000	2	1	0	2	0
48	738	0	10000	2	1	0	2	0
47	739	0	10000	2	1	0	2	0
47	740	0	10000	2	1	0	2	0
47	741	0	10000	2	1	0	2	0
49	742	0	10000	2	1	0	2	0
54	743	0	10000	2	1	0	2	0
57	744	0	10000	2	1	0	2	0
58	745	0	10000	2	1	0	2	0
57	746	0	10000	2	1	0	2	0
56	747	0	10000	2	1	0	2	0
57	748	0	10000	2	1	0	2	0
57	749	0	10000	2	1	0	2	0
59	750	0	10000	2	1	0	2	0
64	751	0	10000	2	1	0	2	0
69	752	0	10000	2	1	0	2	0
70	753	0	10000	2	1	0	2	0
69	754	0	10000	2	1	0	2	0
68	755	0	10000	2	1	0	2	0
67	756	0	10000	2	1	0	2	0
65	757	0	10000	2	1	0	2	0
63	758	0	10000	2	1	0	2	0
63	759	0	10000	2	1	0	2	0
66	760	0	10000	2	1	0	2	0
64	761	0	10000	2	1	0	2	0
61	762	0	10000	2	1	0	2	0
63	763	0	10000	2	1	0	2	0
64	764	0	10000	2	1	0	2	0
63	765	0	10000	2	1	0	2	0
64	766	0	10000	2	1	0	2	0
65	767	0	10000	2	1	0	2	0
63	768	0	10000	2	1	0	2	0
62	769	0	10000	2	1	0	2	0
63	770	0	10000	2	1	0	2	0
66	771	0	10000	2	1	0	2	0
67	772	0	10000	2	1	0	2	0
65	773	0	10000	2	1	0	2	0
63	774	0	10000	2	1	0	2	0
61	775	0	10000	2	1	0	2	0
59	776	0	10000	2	1	0	2	0
57	777	0	10000	2	1	0	2	0
57	778	0	10000	2	1	0	2	0
55	779	0	10000	2	1	0	2	0
54	780	0	10000	2	1	0	2	0
53	781	0	10000	2	1	0	2	0
52	782	0	10000	2	1	0	2	0
53	783	0	10000	2	1	0	2	0
56	784	0	10000	2	1	0	2	0
59	785	0	10000	2	1	0	2	0
60	786	0	10000	2	1	0	2	0
59	787	0	10000	2	1	0	2	0
56	788	0	10000	2	1	0	2	0
54	789	0	10000	2	1	0	2	0
52	790	0	10000	2	1	0	2	0
52	791	0	10000	2	1	0	2	0
53	792	0	10000	2	1	0	2	0
55	793	0	10000	2	1	0	2	0
55	794	0	10000	2	1	0	2	0
55	795	0	10000	2	1	0	2	0
54	796	0	10000	2	1	0	2	0
56	797	0	10000	2	1	0	2	0
61	798	0	10000	2	1	0	2	0
61	799	0	10000	2	1	0	2	0
63	800	0	10000	2	1	0	2	0
64	801	0	10000	2	1	0	2	0
62	802	0	10000	2	1	0	2	0
60	803	0	10000	2	1	0	2	0
60	804	0	10000	2	1	0	2	0
61	805	0	10000	2	1	0	2	0
59	806	0	10000	2	1	0	2	0
59	807	0	10000	2	1	0	2	0
63	808	0	10000	2	1	0	2	0
68	809	0	10000	2	1	0	2	0
68	810	0	10000	2	1	0	2	0
68	811	0	10000	2	1	0	2	0
72	812	0	10000	2	1	0	2	0
73	813	0	10000	2	1	0	2	0
74	814	0	10000	2	1	0	2	0
74	815	0	10000	2	1	0	2	0
71	816	0	10000	2	1	0	2	0
69	817	0	10000	2	1	0	2	0
70	818	0	10000	2	1	0	2	0
71	819	0	10000	2	1	0	2	0
68	820	0	10000	2	1	0	2	0
67	821	0	10000	2	1	0	2	0
67	822	0	10000	2	1	0	2	0
67	823	0	10000	2	1	0	2	0
68	824	0	10000	2	1	0	2	0
68	825	0	10000	2	1	0	2	0
68	826	0	10000	2	1	0	2	0
69	827	0	10000	2	1	0	2	0
68	828	0	10000	2	1	0	2	0
66	829	0	10000	2	1	0	2	0
66	830	0	10000	2	1	0	2	0
69	831	0	10000	2	1	0	2	0
71	832	0	10000	2	1	0	2	0
68	833	0	10000	2	1	0	2	0
65	834	0	10000	2	1	0	2	0
64	835	0	10000	2	1	0	2	0
66	836	0	10000	2	1	0	2	0
66	837	0	10000	2	1	0	2	0
66	838	0	10000	2	1	0	2	0
66	839	0	10000	2	1	0	2	0
65	840	0	10000	2	1	0	2	0
62	841	0	10000	2	1	0	2	0
61	842	0	10000	2	1	0	2	0
62	843	0	10000	2	1	0	2	0
60	844	0	10000	2	1	0	2	0
61	845	0	10000	2	1	0	2	0
62	846	0	10000	2	1	0	2	0
63	847	0	10000	2	1	0	2	0
60	848	0	10000	2	1	0	2	0
58	849	0	10000	2	1	0	2	0
58	850	0	10000	2	1	0	2	0
58	851	0	10000	2	1	0	2	0
61	852	0	10000	2	1	0	2	0
62	853	0	10000	2	1	0	2	0
63	854	0	10000	2	1	0	2	0
60	855	0	10000	2	1	0	2	0
58	856	0	10000	2	1	0	2	0
56	857	0	10000	2	1	0	2	0
55	858	0	10000	2	1	0	2	0
55	859	0	10000	2	1	0	2	0
58	860	0	10000	2	1	0	2	0
62	861	0	10000	2	1	0	2	0
64	862	0	10000	2	1	0	2	0
66	863	0	10000	2	1	0	2	0
67	864	0	10000	2	1	0	2	0
66	865	0	10000	2	1	0	2	0
64	866	0	10000	2	1	0	2	0
62	867	0	10000	2	1	0	2	0
59	868	0	10000	2	1	0	2	0
57	869	0	10000	2	1	0	2	0
54	870	0	10000	2	1	0	2	0
54	871	0	10000	2	1	0	2	0
53	872	0	10000	2	1	0	2	0
51	873	0	10000	2	1	0	2	0
50	874	0	10000	2	1	0	2	0
54	875	0	10000	2	1	0	2	0
61	876	0	10000	2	1	0	2	0
64	877	0	10000	2	1	0	2	0
62	878	0	10000	2	1	0	2	0
63	879	0	10000	2	1	0	2	0
62	880	0	10000	2	1	0	2	0
61	881	0	10000	2	1	0	2	0
58	882	0	10000	2	1	0	2	0
61	883	0	10000	2	1	0	2	0
64	884	0	10000	2	1	0	2	0
65	885	0	10000	2	1	0	2	0
65	886	0	10000	2	1	0	2	0
63	887	0	10000	2	1	0	2	0
62	888	0	10000	2	1	0	2	0
61	889	0	10000	2	1	0	2	0
59	890	0	10000	2	1	0	2	0
58	891	0	10000	2	1	0	2	0
57	892	0	10000	2	1	0	2	0
56	893	0	10000	2	1	0	2	0
54	894	0	10000	2	1	0	2	0
52	895	0	10000	2	1	0	2	0
53	896	0	10000	2	1	0	2	0
54	897	0	10000	2	1	0	2	0
57	898	0	10000	2	1	0	2	0
57	899	0	10000	2	1	0	2	0
55	900	0	10000	2	1	0	2	0
55	901	0	10000	2	1	0	2	0
56	902	0	10000	2	1	0	2	0
57	903	0	10000	2	1	0	2	0
56	904	0	10000	2	1	0	2	0
56	905	0	10000	2	1	0	2	0
54	906	0	10000	2	1	0	2	0
51	907	0	10000	2	1	0	2	0
50	908	0	10000	2	1	0	2	0
47	909	0	10000	2	1	0	2	0
45	910	0	10000	2	1	0	2	0
46	911	0	10000	2	1	0	2	0
49	912	0	10000	2	1	0	2	0
49	913	0	10000	2	1	0	2	0
53	914	0	10000	2	1	0	2	0
55	915	0	10000	2	1	0	2	0
55	916	0	10000	2	1	0	2	0
54	917	0	10000	2	1	0	2	0
52	918	0	10000	2	1	0	2	0
55	919	0	10000	2	1	0	2	0
57	920	0	10000	2	1	0	2	0
56	921	0	10000	2	1	0	2	0
54	922	0	10000	2	1	0	2	0
56	923	0	10000	2	1	0	2	0
54	924	0	10000	2	1	0	2	0
54	925	0	10000	2	1	0	2	0
54	926	0	10000	2	1	0	2	0
51	927	0	10000	2	1	0	2	0
50	928	0	10000	2	1	0	2	0
47	929	0	10000	2	1	0	2	0
47	930	0	10000	2	1	0	2	0
49	931	0	10000	2	1	0	2	0
52	932	0	10000	2	1	0	2	0
55	933	0	10000	2	1	0	2	0
53	934	0	10000	2	1	0	2	0
54	935	0	10000	2	1	0	2	0
54	936	0	10000	2	1	0	2	0
52	937	0	10000	2	1	0	2	0
52	938	0	10000	2	1	0	2	0
56	939	0	10000	2	1	0	2	0
61	940	0	10000	2	1	0	2	0
63	941	0	10000	2	1	0	2	0
61	942	0	10000	2	1	0	2	0
59	943	0	10000	2	1	0	2	0
58	944	0	10000	2	1	0	2	0
56	945	0	10000	2	1	0	2	0
55	946	0	10000	2	1	0	2	0
54	947	0	10000	2	1	0	2	0
52	948	0	10000	2	1	0	2	0
50	949	0	10000	2	1	0	2	0
49	950	0	10000	2	1	0	2	0
48	951	0	10000	2	1	0	2	0
52	952	0	10000	2	1	0	2	0
60	953	0	10000	2	1	0	2	0
67	954	0	10000	2	1	0	2	0
68	955	0	10000	2	1	0	2	0
66	956	0	10000	2	1	0	2	0
64	957	0	10000	2	1	0	2	0
63	958	0	10000	2	1	0	2	0
62	959	0	10000	2	1	0	2	0
62	960	0	10000	2	1	0	2	0
61	961	0	10000	2	1	0	2	0
58	962	0	10000	2	1	0	2	0
57	963	0	10000	2	1	0	2	0
56	964	0	10000	2	1	0	2	0
55	965	0	10000	2	1	0	2	0
53	966	0	10000	2	1	0	2	0
51	967	0	10000	2	1	0	2	0
52	968	0	10000	2	1	0	2	0
52	969	0	10000	2	1	0	2	0
51	970	0	10000	2	1	0	2	0
51	971	0	10000	2	1	0	2	0
51	972	0	10000	2	1	0	2	0
49	973	0	10000	2	1	0	2	0
48	974	0	10000	2	1	0	2	0
49	975	0	10000	2	1	0	2	0
49	976	0	10000	2	1	0	2	0
50	977	0	10000	2	1	0	2	0
53	978	0	10000	2	1	0	2	0
53	979	0	10000	2	1	0	2	0
53	980	0	10000	2	1	0	2	0
54	981	0	10000	2	1	0	2	0
55	982	0	10000	2	1	0	2	0
55	983	0	10000	2	1	0	2	0
54	984	0	10000	2	1	0	2	0
53	985	0	10000	2	1	0	2	0
51	986	0	10000	2	1	0	2	0
49	987	0	10000	2	1	0	2	0
48	988	0	10000	2	1	0	2	0
46	989	0	10000	2	1	0	2	0
44	990	0	10000	2	1	0	2	0
44	991	0	10000	2	1	0	2	0
44	992	0	10000	2	1	0	2	0
43	993	0	10000	2	1	0	2	0
41	994	0	10000	2	1	0	2	0
40	995	0	10000	2	1	0	2	0
38	996	0	10000	2	1	0	2	0
40	997	0	10000	2	1	0	2	0
40	998	0	10000	2	1	0	2	0
39	999	0	10000	2	1	0	2	0
40	1000	0	10000	2	1	0	2	0
80	1	1	10000	3	1	0	3	0
78	2	1	10000	3	1	0	3	0
77	3	1	10000	3	1	0	3	0
76	4	1	10000	3	1	0	3	0
76	5	1	10000	3	1	0	3	0
79	6	1	10000	3	1	0	3	0
81	7	1	10000	3	1	0	3	0
81	8	1	10000	3	1	0	3	0
82	9	1	10000	3	1	0	3	0
82	10	1	10000	3	1	0	3	0
81	11	1	10000	3	1	0	3	0
82	12	1	10000	3	1	0	3	0
83	13	1	10000	3	1	0	3	0
84	14	1	10000	3	1	0	3	0
87	15	1	10000	3	1	0	3	0
87	16	1	10000	3	1	0	3	0
88	17	1	10000	3	1	0	3	0
88	18	1	10000	3	1	0	3	0
90	19	1	10000	3	1	0	3	0
91	20	1	10000	3	1	0	3	0
91	21	1	10000	3	1	0	3	0
92	22	1	10000	3	1	0	3	0
91	23	1	10000	3	1	0	3	0
90	24	1	10000	3	1	0	3	0
88	25	1	10000	3	1	0	3	0
89	26	1	10000	3	1	0	3	0
88	27	1	10000	3	1	0	3	0
88	28	1	10000	3	1	0	3	0
89	29	1	10000	3	1	0	3	0
88	30	1	10000	3	1	0	3	0
87	31	1	10000	3	1	0	3	0
87	32	1	10000	3	1	0	3	0
88	33	1	10000	3	1	0	3	0
89	34	1	10000	3	1	0	3	0
89	35	1	10000	3	1	0	3	0
87	36	1	10000	3	1	0	3	0
85	37	1	10000	3	1	0	3	0
84	38	1	10000	3	1	0	3	0
84	39	1	10000	3	1	0	3	0
83	40	1	10000	3	1	0	3	0
82	41	1	10000	3	1	0	3	0
82	42	1	10000	3	1	0	3	0
81	43	1	10000	3	1	0	3	0
79	44	1	10000	3	1	0	3	0
77	45	1	10000	3	1	0	3	0
78	46	1	10000	3	1	0	3	0
77	47	1	10000	3	1	0	3	0
76	48	1	10000	3	1	0	3	0
75	49	1	10000	3	1	0	3	0
74	50	1	10000	3	1	0	3	0
72	51	1	10000	3	1	0	3	0
70	52	1	10000	3	1	0	3	0
71	53	1	10000	3	1	0	3	0
70	54	1	10000	3	1	0	3	0
70	55	1	10000	3	1	0	3	0
68	56	1	10000	3	1	0	3	0
67	57	1	10000	3	1	0	3	0
65	58	1	10000	3	1	0	3	0
62	59	1	10000	3	1	0	3	0
61	60	1	10000	3	1	0	3	0
59	61	1	10000	3	1	0	3	0
58	62	1	10000	3	1	0	3	0
56	63	1	10000	3	1	0	3	0
53	64	1	10000	3	1	0	3	0
51	65	1	10000	3	1	0	3	0
51	66	1	10000	3	1	0	3	0
50	67	1	10000	3	1	0	3	0
47	68	1	10000	3	1	0	3	0
45	69	1	10000	3	1	0	3	0
44	70	1	10000	3	1	0	3	0
44	71	1	10000	3	1	0	3	0
43	72	1	10000	3	1	0	3	0
42	73	1	10000	3	1	0	3	0
41	74	1	10000	3	1	0	3	0
40	75	1	10000	3	1	0	3	0
38	76	1	10000	3	1	0	3	0
36	77	1	10000	3	1	0	3	0
34	78	1	10000	3	1	0	3	0
35	79	1	10000	3	1	0	3	0
36	80	1	10000	3	1	0	3	0
36	81	1	10000	3	1	0	3	0
35	82	1	10000	3	1	0	3	0
34	83	1	10000	3	1	0	3	0
34	84	1	10000	3	1	0	3	0
33	85	1	10000	3	1	0	3	0
34	86	1	10000	3	1	0	3	0
34	87	1	10000	3	1	0	3	0
32	88	1	10000	3	1	0	3	0
32	89	1	10000	3	1	0	3	0
31	90	1	10000	3	1	0	3	0
31	91	1	10000	3	1	0	3	0
30	92	1	10000	3	1	0	3	0
29	93	1	10000	3	1	0	3	0
29	94	1	10000	3	1	0	3	0
30	95	1	10000	3	1	0	3	0
28	96	1	10000	3	1	0	3	0
26	97	1	10000	3	1	0	3	0
27	98	1	10000	3	1	0	3	0
26	99	1	10000	3	1	0	3	0
26	100	1	10000	3	1	0	3	0
26	101	1	10000	3	1	0	3	0
27	102	1	10000	3	1	0	3	0
27	103	1	10000	3	1	0	3	0
28	104	1	10000	3	1	0	3	0
27	105	1	10000	3	1	0	3	0
27	106	1	10000	3	1	0	3	0
28	107	1	10000	3	1	0	3	0
28	108	1	10000	3	1	0	3	0
27	109	1	10000	3	1	0	3	0
27	110	1	10000	3	1	0	3	0
28	111	1	10000	3	1	0	3	0
32	112	1	10000	3	1	0	3	0
33	113	1	10000	3	1	0	3	0
34	114	1	10000	3	1	0	3	0
35	115	1	10000	3	1	0	3	0
32	116	1	10000	3	1	0	3	0
32	117	1	10000	3	1	0	3	0
34	118	1	10000	3	1	0	3	0
38	119	1	10000	3	1	0	3	0
40	120	1	10000	3	1	0	3	0
43	121	1	10000	3	1	0	3	0
46	122	1	10000	3	1	0	3	0
46	123	1	10000	3	1	0	3	0
45	124	1	10000	3	1	0	3	0
43	125	1	10000	3	1	0	3	0
46	126	1	10000	3	1	0	3	0
47	127	1	10000	3	1	0	3	0
47	128	1	10000	3	1	0	3	0
47	129	1	10000	3	1	0	3	0
45	130	1	10000	3	1	0	3	0
44	131	1	10000	3	1	0	3	0
42	132	1	10000	3	1	0	3	0
41	133	1	10000	3	1	0	3	0
40	134	1	10000	3	1	0	3	0
39	135	1	10000	3	1	0	3	0
37	136	1	10000	3	1	0	3	0
35	137	1	10000	3	1	0	3	0
35	138	1	10000	3	1	0	3	0
35	139	1	10000	3	1	0	3	0
35	140	1	10000	3	1	0	3	0
34	141	1	10000	3	1	0	3	0
33	142	1	10000	3	1	0	3	0
33	143	1	10000	3	1	0	3	0
32	144	1	10000	3	1	0	3	0
32	145	1	10000	3	1	0	3	0
33	146	1	10000	3	1	0	3	0
34	147	1	10000	3	1	0	3	0
33	148	1	10000	3	1	0	3	0
32	149	1	10000	3	1	0	3	0
31	150	1	10000	3	1	0	3	0
31	151	1	10000	3	1	0	3	0
32	152	1	10000	3	1	0	3	0
32	153	1	10000	3	1	0	3	0
33	154	1	10000	3	1	0	3	0
33	155	1	10000	3	1	0	3	0
32	156	1	10000	3	1	0	3	0
32	157	1	10000	3	1	0	3	0
32	158	1	10000	3	1	0	3	0
32	159	1	10000	3	1	0	3	0
32	160	1	10000	3	1	0	3	0
31	161	1	10000	3	1	0	3	0
31	162	1	10000	3	1	0	3	0
30	163	1	10000	3	1	0	3	0
29	164	1	10000	3	1	0	3	0
27	165	1	10000	3	1	0	3	0
28	166	1	10000	3	1	0	3	0
31	167	1	10000	3	1	0	3	0
31	168	1	10000	3	1	0	3	0
29	169	1	10000	3	1	0	3	0
29	170	1	10000	3	1	0	3	0
28	171	1	10000	3	1	0	3	0
28	172	1	10000	3	1	0	3	0
28	173	1	10000	3	1	0	3	0
28	174	1	10000	3	1	0	3	0
28	175	1	10000	3	1	0	3	0
25	176	1	10000	3	1	0	3	0
24	177	1	10000	3	1	0	3	0
24	178	1	10000	3	1	0	3	0
24	179	1	10000	3	1	0	3	0
24	180	1	10000	3	1	0	3	0
25	181	1	10000	3	1	0	3	0
24	182	1	10000	3	1	0	3	0
23	183	1	10000	3	1	0	3	0
22	184	1	10000	3	1	0	3	0
22	185	1	10000	3	1	0	3	0
25	186	1	10000	3	1	0	3	0
28	187	1	10000	3	1	0	3	0
27	188	1	10000	3	1	0	3	0
27	189	1	10000	3	1	0	3	0
30	190	1	10000	3	1	0	3	0
32	191	1	10000	3	1	0	3	0
32	192	1	10000	3	1	0	3	0
32	193	1	10000	3	1	0	3	0
32	194	1	10000	3	1	0	3	0
31	195	1	10000	3	1	0	3	0
30	196	1	10000	3	1	0	3	0
29	197	1	10000	3	1	0	3	0
30	198	1	10000	3	1	0	3	0
29	199	1	10000	3	1	0	3	0
30	200	1	10000	3	1	0	3	0
30	201	1	10000	3	1	0	3	0
31	202	1	10000	3	1	0	3	0
30	203	1	10000	3	1	0	3	0
29	204	1	10000	3	1	0	3	0
29	205	1	10000	3	1	0	3	0
31	206	1	10000	3	1	0	3	0
33	207	1	10000	3	1	0	3	0
33	208	1	10000	3	1	0	3	0
33	209	1	10000	3	1	0	3	0
32	210	1	10000	3	1	0	3	0
31	211	1	10000	3	1	0	3	0
32	212	1	10000	3	1	0	3	0
32	213	1	10000	3	1	0	3	0
33	214	1	10000	3	1	0	3	0
33	215	1	10000	3	1	0	3	0
31	216	1	10000	3	1	0	3	0
30	217	1	10000	3	1	0	3	0
29	218	1	10000	3	1	0	3	0
29	219	1	10000	3	1	0	3	0
28	220	1	10000	3	1	0	3	0
27	221	1	10000	3	1	0	3	0
26	222	1	10000	3	1	0	3	0
26	223	1	10000	3	1	0	3	0
25	224	1	10000	3	1	0	3	0
23	225	1	10000	3	1	0	3	0
25	226	1	10000	3	1	0	3	0
24	227	1	10000	3	1	0	3	0
24	228	1	10000	3	1	0	3	0
23	229	1	10000	3	1	0	3	0
22	230	1	10000	3	1	0	3	0
22	231	1	10000	3	1	0	3	0
22	232	1	10000	3	1	0	3	0
23	233	1	10000	3	1	0	3	0
22	234	1	10000	3	1	0	3	0
22	235	1	10000	3	1	0	3	0
20	236	1	10000	3	1	0	3	0
19	237	1	10000	3	1	0	3	0
20	238	1	10000	3	1	0	3	0
20	239	1	10000	3	1	0	3	0
21	240	1	10000	3	1	0	3	0
20	241	1	10000	3	1	0	3	0
20	242	1	10000	3	1	0	3	0
19	243	1	10000	3	1	0	3	0
20	244	1	10000	3	1	0	3	0
21	245	1	10000	3	1	0	3	0
25	246	1	10000	3	1	0	3	0
28	247	1	10000	3	1	0	3	0
30	248	1	10000	3	1	0	3	0
32	249	1	10000	3	1	0	3	0
35	250	1	10000	3	1	0	3	0
38	251	1	10000	3	1	0	3	0
42	252	1	10000	3	1	0	3	0
47	253	1	10000	3	1	0	3	0
52	254	1	10000	3	1	0	3	0
57	255	1	10000	3	1	0	3	0
61	256	1	10000	3	1	0	3	0
66	257	1	10000	3	1	0	3	0
73	258	1	10000	3	1	0	3	0
81	259	1	10000	3	1	0	3	0
89	260	1	10000	3	1	0	3	0
98	261	1	10000	3	1	0	3	0
108	262	1	10000	3	1	0	3	0
117	263	1	10000	3	1	0	3	0
126	264	1	10000	3	1	0	3	0
133	265	1	10000	3	1	0	3	0
143	266	1	10000	3	1	0	3	0
152	267	1	10000	3	1	0	3	0
159	268	1	10000	3	1	0	3	0
165	269	1	10000	3	1	0	3	0
171	270	1	10000	3	1	0	3	0
177	271	1	10000	3	1	0	3	0
182	272	1	10000	3	1	0	3	0
188	273	1	10000	3	1	0	3	0
193	274	1	10000	3	1	0	3	0
198	275	1	10000	3	1	0	3	0
199	276	1	10000	3	1	0	3	0
199	277	1	10000	3	1	0	3	0
200	278	1	10000	3	1	0	3	0
200	279	1	10000	3	1	0	3	0
201	280	1	10000	3	1	0	3	0
200	281	1	10000	3	1	0	3	0
197	282	1	10000	3	1	0	3	0
194	283	1	10000	3	1	0	3	0
189	284	1	10000	3	1	0	3	0
183	285	1	10000	3	1	0	3	0
176	286	1	10000	3	1	0	3	0
169	287	1	10000	3	1	0	3	0
162	288	1	10000	3	1	0	3	0
155	289	1	10000	3	1	0	3	0
150	290	1	10000	3	1	0	3	0
147	291	1	10000	3	1	0	3	0
145	292	1	10000	3	1	0	3	0
145	293	1	10000	3	1	0	3	0
146	294	1	10000	3	1	0	3	0
149	295	1	10000	3	1	0	3	0
150	296	1	10000	3	1	0	3	0
153	297	1	10000	3	1	0	3	0
158	298	1	10000	3	1	0	3	0
163	299	1	10000	3	1	0	3	0
168	300	1	10000	3	1	0	3	0
173	301	1	10000	3	1	0	3	0
179	302	1	10000	3	1	0	3	0
185	303	1	10000	3	1	0	3	0
190	304	1	10000	3	1	0	3	0
195	305	1	10000	3	1	0	3	0
201	306	1	10000	3	1	0	3	0
207	307	1	10000	3	1	0	3	0
212	308	1	10000	3	1	0	3	0
216	309	1	10000	3	1	0	3	0
221	310	1	10000	3	1	0	3	0
224	311	1	10000	3	1	0	3	0
226	312	1	10000	3	1	0	3	0
228	313	1	10000	3	1	0	3	0
230	314	1	10000	3	1	0	3	0
231	315	1	10000	3	1	0	3	0
233	316	1	10000	3	1	0	3	0
234	317	1	10000	3	1	0	3	0
236	318	1	10000	3	1	0	3	0
236	319	1	10000	3	1	0	3	0
236	320	1	10000	3	1	0	3	0
234	321	1	10000	3	1	0	3	0
233	322	1	10000	3	1	0	3	0
231	323	1	10000	3	1	0	3	0
231	324	1	10000	3	1	0	3	0
229	325	1	10000	3	1	0	3	0
230	326	1	10000	3	1	0	3	0
229	327	1	10000	3	1	0	3	0
224	328	1	10000	3	1	0	3	0
221	329	1	10000	3	1	0	3	0
217	330	1	10000	3	1	0	3	0
214	331	1	10000	3	1	0	3	0
211	332	1	10000	3	1	0	3	0
208	333	1	10000	3	1	0	3	0
204	334	1	10000	3	1	0	3	0
200	335	1	10000	3	1	0	3	0
193	336	1	10000	3	1	0	3	0
188	337	1	10000	3	1	0	3	0
183	338	1	10000	3	1	0	3	0
180	339	1	10000	3	1	0	3	0
177	340	1	10000	3	1	0	3	0
172	341	1	10000	3	1	0	3	0
168	342	1	10000	3	1	0	3	0
165	343	1	10000	3	1	0	3	0
162	344	1	10000	3	1	0	3	0
157	345	1	10000	3	1	0	3	0
152	346	1	10000	3	1	0	3	0
148	347	1	10000	3	1	0	3	0
140	348	1	10000	3	1	0	3	0
136	349	1	10000	3	1	0	3	0
132	350	1	10000	3	1	0	3	0
129	351	1	10000	3	1	0	3	0
127	352	1	10000	3	1	0	3	0
123	353	1	10000	3	1	0	3	0
119	354	1	10000	3	1	0	3	0
114	355	1	10000	3	1	0	3	0
108	356	1	10000	3	1	0	3	0
103	357	1	10000	3	1	0	3	0
100	358	1	10000	3	1	0	3	0
98	359	1	10000	3	1	0	3	0
95	360	1	10000	3	1	0	3	0
91	361	1	10000	3	1	0	3	0
87	362	1	10000	3	1	0	3	0
83	363	1	10000	3	1	0	3	0
80	364	1	10000	3	1	0	3	0
77	365	1	10000	3	1	0	3	0
74	366	1	10000	3	1	0	3	0
73	367	1	10000	3	1	0	3	0
70	368	1	10000	3	1	0	3	0
67	369	1	10000	3	1	0	3	0
64	370	1	10000	3	1	0	3	0
63	371	1	10000	3	1	0	3	0
61	372	1	10000	3	1	0	3	0
59	373	1	10000	3	1	0	3	0
59	374	1	10000	3	1	0	3	0
58	375	1	10000	3	1	0	3	0
56	376	1	10000	3	1	0	3	0
54	377	1	10000	3	1	0	3	0
54	378	1	10000	3	1	0	3	0
53	379	1	10000	3	1	0	3	0
51	380	1	10000	3	1	0	3	0
49	381	1	10000	3	1	0	3	0
48	382	1	10000	3	1	0	3	0
46	383	1	10000	3	1	0	3	0
44	384	1	10000	3	1	0	3	0
43	385	1	10000	3	1	0	3	0
42	386	1	10000	3	1	0	3	0
42	387	1	10000	3	1	0	3	0
43	388	1	10000	3	1	0	3	0
42	389	1	10000	3	1	0	3	0
41	390	1	10000	3	1	0	3	0
40	391	1	10000	3	1	0	3	0
39	392	1	10000	3	1	0	3	0
37	393	1	10000	3	1	0	3	0
37	394	1	10000	3	1	0	3	0
36	395	1	10000	3	1	0	3	0
34	396	1	10000	3	1	0	3	0
33	397	1	10000	3	1	0	3	0
34	398	1	10000	3	1	0	3	0
35	399	1	10000	3	1	0	3	0
35	400	1	10000	3	1	0	3	0
34	401	1	10000	3	1	0	3	0
33	402	1	10000	3	1	0	3	0
33	403	1	10000	3	1	0	3	0
32	404	1	10000	3	1	0	3	0
30	405	1	10000	3	1	0	3	0
31	406	1	10000	3	1	0	3	0
32	407	1	10000	3	1	0	3	0
31	408	1	10000	3	1	0	3	0
32	409	1	10000	3	1	0	3	0
33	410	1	10000	3	1	0	3	0
33	411	1	10000	3	1	0	3	0
35	412	1	10000	3	1	0	3	0
36	413	1	10000	3	1	0	3	0
35	414	1	10000	3	1	0	3	0
35	415	1	10000	3	1	0	3	0
33	416	1	10000	3	1	0	3	0
31	417	1	10000	3	1	0	3	0
31	418	1	10000	3	1	0	3	0
30	419	1	10000	3	1	0	3	0
30	420	1	10000	3	1	0	3	0
32	421	1	10000	3	1	0	3	0
32	422	1	10000	3	1	0	3	0
33	423	1	10000	3	1	0	3	0
31	424	1	10000	3	1	0	3	0
30	425	1	10000	3	1	0	3	0
30	426	1	10000	3	1	0	3	0
30	427	1	10000	3	1	0	3	0
30	428	1	10000	3	1	0	3	0
32	429	1	10000	3	1	0	3	0
34	430	1	10000	3	1	0	3	0
34	431	1	10000	3	1	0	3	0
33	432	1	10000	3	1	0	3	0
32	433	1	10000	3	1	0	3	0
32	434	1	10000	3	1	0	3	0
32	435	1	10000	3	1	0	3	0
30	436	1	10000	3	1	0	3	0
28	437	1	10000	3	1	0	3	0
29	438	1	10000	3	1	0	3	0
28	439	1	10000	3	1	0	3	0
28	440	1	10000	3	1	0	3	0
28	441	1	10000	3	1	0	3	0
28	442	1	10000	3	1	0	3	0
26	443	1	10000	3	1	0	3	0
26	444	1	10000	3	1	0	3	0
25	445	1	10000	3	1	0	3	0
26	446	1	10000	3	1	0	3	0
27	447	1	10000	3	1	0	3	0
25	448	1	10000	3	1	0	3	0
25	449	1	10000	3	1	0	3	0
25	450	1	10000	3	1	0	3	0
26	451	1	10000	3	1	0	3	0
26	452	1	10000	3	1	0	3	0
29	453	1	10000	3	1	0	3	0
32	454	1	10000	3	1	0	3	0
34	455	1	10000	3	1	0	3	0
32	456	1	10000	3	1	0	3	0
30	457	1	10000	3	1	0	3	0
31	458	1	10000	3	1	0	3	0
30	459	1	10000	3	1	0	3	0
30	460	1	10000	3	1	0	3	0
30	461	1	10000	3	1	0	3	0
29	462	1	10000	3	1	0	3	0
28	463	1	10000	3	1	0	3	0
27	464	1	10000	3	1	0	3	0
27	465	1	10000	3	1	0	3	0
28	466	1	10000	3	1	0	3	0
28	467	1	10000	3	1	0	3	0
28	468	1	10000	3	1	0	3	0
26	469	1	10000	3	1	0	3	0
25	470	1	10000	3	1	0	3	0
25	471	1	10000	3	1	0	3	0
26	472	1	10000	3	1	0	3	0
26	473	1	10000	3	1	0	3	0
26	474	1	10000	3	1	0	3	0
27	475	1	10000	3	1	0	3	0
25	476	1	10000	3	1	0	3	0
25	477	1	10000	3	1	0	3	0
26	478	1	10000	3	1	0	3	0
26	479	1	10000	3	1	0	3	0
25	480	1	10000	3	1	0	3	0
24	481	1	10000	3	1	0	3	0
25	482	1	10000	3	1	0	3	0
24	483	1	10000	3	1	0	3	0
25	484	1	10000	3	1	0	3	0
24	485	1	10000	3	1	0	3	0
25	486	1	10000	3	1	0	3	0
25	487	1	10000	3	1	0	3	0
24	488	1	10000	3	1	0	3	0
25	489	1	10000	3	1	0	3	0
25	490	1	10000	3	1	0	3	0
24	491	1	10000	3	1	0	3	0
26	492	1	10000	3	1	0	3	0
26	493	1	10000	3	1	0	3	0
26	494	1	10000	3	1	0	3	0
26	495	1	10000	3	1	0	3	0
25	496	1	10000	3	1	0	3	0
23	497	1	10000	3	1	0	3	0
23	498	1	10000	3	1	0	3	0
23	499	1	10000	3	1	0	3	0
23	500	1	10000	3	1	0	3	0
22	501	1	10000	3	1	0	3	1
21	502	1	10000	3	1	0	3	1
22	503	1	10000	3	1	0	3	1
21	504	1	10000	3	1	0	3	1
20	505	1	10000	3	1	0	3	1
21	506	1	10000	3	1	0	3	1
21	507	1	10000	3	1	0	3	1
21	508	1	10000	3	1	0	3	1
20	509	1	10000	3	1	0	3	1
20	510	1	10000	3	1	0	3	1
20	511	1	10000	3	1	0	3	1
19	512	1	10000	3	1	0	3	1
20	513	1	10000	3	1	0	3	1
19	514	1	10000	3	1	0	3	1
19	515	1	10000	3	1	0	3	1
18	516	1	10000	3	1	0	3	1
17	517	1	10000	3	1	0	3	1
17	518	1	10000	3	1	0	3	1
17	519	1	10000	3	1	0	3	1
18	520	1	10000	3	1	0	3	1
18	521	1	10000	3	1	0	3	1
19	522	1	10000	3	1	0	3	1
19	523	1	10000	3	1	0	3	1
18	524	1	10000	3	1	0	3	1
17	525	1	10000	3	1	0	3	1
18	526	1	10000	3	1	0	3	1
19	527	1	10000	3	1	0	3	1
19	528	1	10000	3	1	0	3	1
19	529	1	10000	3	1	0	3	1
20	530	1	10000	3	1	0	3	1
21	531	1	10000	3	1	0	3	1
21	532	1	10000	3	1	0	3	1
21	533	1	10000	3	1	0	3	1
21	534	1	10000	3	1	0	3	1
22	535	1	10000	3	1	0	3	1
20	536	1	10000	3	1	0	3	1
20	537	1	10000	3	1	0	3	1
20	538	1	10000	3	1	0	3	1
20	539	1	10000	3	1	0	3	1
20	540	1	10000	3	1	0	3	1
19	541	1	10000	3	1	0	3	1
19	542	1	10000	3	1	0	3	1
20	543	1	10000	3	1	0	3	1
21	544	1	10000	3	1	0	3	1
20	545	1	10000	3	1	0	3	1
21	546	1	10000	3	1	0	3	1
23	547	1	10000	3	1	0	3	1
24	548	1	10000	3	1	0	3	1
24	549	1	10000	3	1	0	3	1
26	550	1	10000	3	1	0	3	1
29	551	1	10000	3	1	0	3	0
29	552	1	10000	3	1	0	3	0
28	553	1	10000	3	1	0	3	0
29	554	1	10000	3	1	0	3	0
32	555	1	10000	3	1	0	3	0
33	556	1	10000	3	1	0	3	0
34	557	1	10000	3	1	0	3	0
38	558	1	10000	3	1	0	3	0
41	559	1	10000	3	1	0	3	0
44	560	1	10000	3	1	0	3	0
46	561	1	10000	3	1	0	3	0
48	562	1	10000	3	1	0	3	0
49	563	1	10000	3	1	0	3	0
50	564	1	10000	3	1	0	3	0
51	565	1	10000	3	1	0	3	0
52	566	1	10000	3	1	0	3	0
52	567	1	10000	3	1	0	3	0
51	568	1	10000	3	1	0	3	0
49	569	1	10000	3	1	0	3	0
47	570	1	10000	3	1	0	3	0
46	571	1	10000	3	1	0	3	0
45	572	1	10000	3	1	0	3	0
44	573	1	10000	3	1	0	3	0
44	574	1	10000	3	1	0	3	0
43	575	1	10000	3	1	0	3	0
41	576	1	10000	3	1	0	3	0
38	577	1	10000	3	1	0	3	0
38	578	1	10000	3	1	0	3	0
38	579	1	10000	3	1	0	3	0
37	580	1	10000	3	1	0	3	0
35	581	1	10000	3	1	0	3	0
36	582	1	10000	3	1	0	3	0
35	583	1	10000	3	1	0	3	0
36	584	1	10000	3	1	0	3	0
37	585	1	10000	3	1	0	3	0
39	586	1	10000	3	1	0	3	0
39	587	1	10000	3	1	0	3	0
38	588	1	10000	3	1	0	3	0
37	589	1	10000	3	1	0	3	0
36	590	1	10000	3	1	0	3	0
35	591	1	10000	3	1	0	3	0
35	592	1	10000	3	1	0	3	0
36	593	1	10000	3	1	0	3	0
38	594	1	10000	3	1	0	3	0
39	595	1	10000	3	1	0	3	0
39	596	1	10000	3	1	0	3	0
37	597	1	10000	3	1	0	3	0
36	598	1	10000	3	1	0	3	0
36	599	1	10000	3	1	0	3	0
36	600	1	10000	3	1	0	3	0
36	601	1	10000	3	1	0	3	0
41	602	1	10000	3	1	0	3	0
44	603	1	10000	3	1	0	3	0
48	604	1	10000	3	1	0	3	0
53	605	1	10000	3	1	0	3	0
54	606	1	10000	3	1	0	3	0
60	607	1	10000	3	1	0	3	0
61	608	1	10000	3	1	0	3	0
75	609	1	10000	3	1	0	3	0
135	610	1	10000	3	1	0	3	0
152	611	1	10000	3	1	0	3	0
186	612	1	10000	3	1	0	3	0
219	613	1	10000	3	1	0	3	0
232	614	1	10000	3	1	0	3	0
233	615	1	10000	3	1	0	3	0
226	616	1	10000	3	1	0	3	0
238	617	1	10000	3	1	0	3	0
242	618	1	10000	3	1	0	3	0
252	619	1	10000	3	1	0	3	0
273	620	1	10000	3	1	0	3	0
277	621	1	10000	3	1	0	3	0
267	622	1	10000	3	1	0	3	0
269	623	1	10000	3	1	0	3	0
279	624	1	10000	3	1	0	3	0
284	625	1	10000	3	1	0	3	0
284	626	1	10000	3	1	0	3	0
282	627	1	10000	3	1	0	3	0
274	628	1	10000	3	1	0	3	0
267	629	1	10000	3	1	0	3	0
256	630	1	10000	3	1	0	3	0
246	631	1	10000	3	1	0	3	0
234	632	1	10000	3	1	0	3	0
224	633	1	10000	3	1	0	3	0
215	634	1	10000	3	1	0	3	0
208	635	1	10000	3	1	0	3	0
199	636	1	10000	3	1	0	3	0
189	637	1	10000	3	1	0	3	0
182	638	1	10000	3	1	0	3	0
174	639	1	10000	3	1	0	3	0
166	640	1	10000	3	1	0	3	0
159	641	1	10000	3	1	0	3	0
153	642	1	10000	3	1	0	3	0
146	643	1	10000	3	1	0	3	0
141	644	1	10000	3	1	0	3	0
134	645	1	10000	3	1	0	3	0
129	646	1	10000	3	1	0	3	0
127	647	1	10000	3	1	0	3	0
122	648	1	10000	3	1	0	3	0
117	649	1	10000	3	1	0	3	0
114	650	1	10000	3	1	0	3	0
111	651	1	10000	3	1	0	3	0
106	652	1	10000	3	1	0	3	0
104	653	1	10000	3	1	0	3	0
100	654	1	10000	3	1	0	3	0
97	655	1	10000	3	1	0	3	0
93	656	1	10000	3	1	0	3	0
88	657	1	10000	3	1	0	3	0
88	658	1	10000	3	1	0	3	0
85	659	1	10000	3	1	0	3	0
83	660	1	10000	3	1	0	3	0
80	661	1	10000	3	1	0	3	0
77	662	1	10000	3	1	0	3	0
73	663	1	10000	3	1	0	3	0
70	664	1	10000	3	1	0	3	0
68	665	1	10000	3	1	0	3	0
68	666	1	10000	3	1	0	3	0
67	667	1	10000	3	1	0	3	0
66	668	1	10000	3	1	0	3	0
65	669	1	10000	3	1	0	3	0
62	670	1	10000	3	1	0	3	0
59	671	1	10000	3	1	0	3	0
58	672	1	10000	3	1	0	3	0
56	673	1	10000	3	1	0	3	0
54	674	1	10000	3	1	0	3	0
54	675	1	10000	3	1	0	3	0
51	676	1	10000	3	1	0	3	0
48	677	1	10000	3	1	0	3	0
47	678	1	10000	3	1	0	3	0
45	679	1	10000	3	1	0	3	0
44	680	1	10000	3	1	0	3	0
43	681	1	10000	3	1	0	3	0
42	682	1	10000	3	1	0	3	0
41	683	1	10000	3	1	0	3	0
40	684	1	10000	3	1	0	3	0
40	685	1	10000	3	1	0	3	0
42	686	1	10000	3	1	0	3	0
43	687	1	10000	3	1	0	3	0
42	688	1	10000	3	1	0	3	0
40	689	1	10000	3	1	0	3	0
39	690	1	10000	3	1	0	3	0
38	691	1	10000	3	1	0	3	0
37	692	1	10000	3	1	0	3	0
37	693	1	10000	3	1	0	3	0
36	694	1	10000	3	1	0	3	0
36	695	1	10000	3	1	0	3	0
36	696	1	10000	3	1	0	3	0
34	697	1	10000	3	1	0	3	0
34	698	1	10000	3	1	0	3	0
33	699	1	10000	3	1	0	3	0
33	700	1	10000	3	1	0	3	0
32	701	1	10000	3	1	0	3	0
32	702	1	10000	3	1	0	3	0
33	703	1	10000	3	1	0	3	0
32	704	1	10000	3	1	0	3	0
32	705	1	10000	3	1	0	3	0
34	706	1	10000	3	1	0	3	0
35	707	1	10000	3	1	0	3	0
34	708	1	10000	3	1	0	3	0
33	709	1	10000	3	1	0	3	0
32	710	1	10000	3	1	0	3	0
31	711	1	10000	3	1	0	3	0
31	712	1	10000	3	1	0	3	0
31	713	1	10000	3	1	0	3	0
32	714	1	10000	3	1	0	3	0
32	715	1	10000	3	1	0	3	0
30	716	1	10000	3	1	0	3	0
29	717	1	10000	3	1	0	3	0
29	718	1	10000	3	1	0	3	0
29	719	1	10000	3	1	0	3	0
29	720	1	10000	3	1	0	3	0
28	721	1	10000	3	1	0	3	0
27	722	1	10000	3	1	0	3	0
27	723	1	10000	3	1	0	3	0
28	724	1	10000	3	1	0	3	0
28	725	1	10000	3	1	0	3	0
30	726	1	10000	3	1	0	3	0
32	727	1	10000	3	1	0	3	0
30	728	1	10000	3	1	0	3	0
29	729	1	10000	3	1	0	3	0
28	730	1	10000	3	1	0	3	0
28	731	1	10000	3	1	0	3	0
27	732	1	10000	3	1	0	3	0
27	733	1	10000	3	1	0	3	0
29	734	1	10000	3	1	0	3	0
28	735	1	10000	3	1	0	3	0
28	736	1	10000	3	1	0	3	0
28	737	1	10000	3	1	0	3	0
32	738	1	10000	3	1	0	3	0
33	739	1	10000	3	1	0	3	0
35	740	1	10000	3	1	0	3	0
34	741	1	10000	3	1	0	3	0
33	742	1	10000	3	1	0	3	0
34	743	1	10000	3	1	0	3	0
35	744	1	10000	3	1	0	3	0
36	745	1	10000	3	1	0	3	0
36	746	1	10000	3	1	0	3	0
38	747	1	10000	3	1	0	3	0
41	748	1	10000	3	1	0	3	0
43	749	1	10000	3	1	0	3	0
44	750	1	10000	3	1	0	3	0
43	751	1	10000	3	1	0	3	0
43	752	1	10000	3	1	0	3	0
45	753	1	10000	3	1	0	3	0
50	754	1	10000	3	1	0	3	0
53	755	1	10000	3	1	0	3	0
53	756	1	10000	3	1	0	3	0
51	757	1	10000	3	1	0	3	0
51	758	1	10000	3	1	0	3	0
50	759	1	10000	3	1	0	3	0
51	760	1	10000	3	1	0	3	0
52	761	1	10000	3	1	0	3	0
54	762	1	10000	3	1	0	3	0
56	763	1	10000	3	1	0	3	0
56	764	1	10000	3	1	0	3	0
56	765	1	10000	3	1	0	3	0
58	766	1	10000	3	1	0	3	0
60	767	1	10000	3	1	0	3	0
61	768	1	10000	3	1	0	3	0
60	769	1	10000	3	1	0	3	0
59	770	1	10000	3	1	0	3	0
58	771	1	10000	3	1	0	3	0
56	772	1	10000	3	1	0	3	0
54	773	1	10000	3	1	0	3	0
53	774	1	10000	3	1	0	3	0
52	775	1	10000	3	1	0	3	0
53	776	1	10000	3	1	0	3	0
52	777	1	10000	3	1	0	3	0
52	778	1	10000	3	1	0	3	0
52	779	1	10000	3	1	0	3	0
50	780	1	10000	3	1	0	3	0
49	781	1	10000	3	1	0	3	0
48	782	1	10000	3	1	0	3	0
46	783	1	10000	3	1	0	3	0
44	784	1	10000	3	1	0	3	0
42	785	1	10000	3	1	0	3	0
43	786	1	10000	3	1	0	3	0
44	787	1	10000	3	1	0	3	0
45	788	1	10000	3	1	0	3	0
46	789	1	10000	3	1	0	3	0
45	790	1	10000	3	1	0	3	0
45	791	1	10000	3	1	0	3	0
44	792	1	10000	3	1	0	3	0
45	793	1	10000	3	1	0	3	0
46	794	1	10000	3	1	0	3	0
46	795	1	10000	3	1	0	3	0
44	796	1	10000	3	1	0	3	0
43	797	1	10000	3	1	0	3	0
43	798	1	10000	3	1	0	3	0
43	799	1	10000	3	1	0	3	0
45	800	1	10000	3	1	0	3	0
45	801	1	10000	3	1	0	3	0
45	802	1	10000	3	1	0	3	0
46	803	1	10000	3	1	0	3	0
44	804	1	10000	3	1	0	3	0
43	805	1	10000	3	1	0	3	0
43	806	1	10000	3	1	0	3	0
43	807	1	10000	3	1	0	3	0
41	808	1	10000	3	1	0	3	0
40	809	1	10000	3	1	0	3	0
40	810	1	10000	3	1	0	3	0
42	811	1	10000	3	1	0	3	0
42	812	1	10000	3	1	0	3	0
42	813	1	10000	3	1	0	3	0
41	814	1	10000	3	1	0	3	0
40	815	1	10000	3	1	0	3	0
38	816	1	10000	3	1	0	3	0
37	817	1	10000	3	1	0	3	0
37	818	1	10000	3	1	0	3	0
38	819	1	10000	3	1	0	3	0
40	820	1	10000	3	1	0	3	0
40	821	1	10000	3	1	0	3	0
39	822	1	10000	3	1	0	3	0
37	823	1	10000	3	1	0	3	0
36	824	1	10000	3	1	0	3	0
34	825	1	10000	3	1	0	3	0
37	826	1	10000	3	1	0	3	0
39	827	1	10000	3	1	0	3	0
39	828	1	10000	3	1	0	3	0
38	829	1	10000	3	1	0	3	0
36	830	1	10000	3	1	0	3	0
36	831	1	10000	3	1	0	3	0
35	832	1	10000	3	1	0	3	0
36	833	1	10000	3	1	0	3	0
37	834	1	10000	3	1	0	3	0
37	835	1	10000	3	1	0	3	0
35	836	1	10000	3	1	0	3	0
34	837	1	10000	3	1	0	3	0
34	838	1	10000	3	1	0	3	0
33	839	1	10000	3	1	0	3	0
33	840	1	10000	3	1	0	3	0
32	841	1	10000	3	1	0	3	0
32	842	1	10000	3	1	0	3	0
31	843	1	10000	3	1	0	3	0
30	844	1	10000	3	1	0	3	0
29	845	1	10000	3	1	0	3	0
30	846	1	10000	3	1	0	3	0
33	847	1	10000	3	1	0	3	0
33	848	1	10000	3	1	0	3	0
31	849	1	10000	3	1	0	3	0
31	850	1	10000	3	1	0	3	0
30	851	1	10000	3	1	0	3	0
31	852	1	10000	3	1	0	3	0
35	853	1	10000	3	1	0	3	0
38	854	1	10000	3	1	0	3	0
39	855	1	10000	3	1	0	3	0
37	856	1	10000	3	1	0	3	0
36	857	1	10000	3	1	0	3	0
39	858	1	10000	3	1	0	3	0
40	859	1	10000	3	1	0	3	0
41	860	1	10000	3	1	0	3	0
41	861	1	10000	3	1	0	3	0
41	862	1	10000	3	1	0	3	0
40	863	1	10000	3	1	0	3	0
38	864	1	10000	3	1	0	3	0
39	865	1	10000	3	1	0	3	0
40	866	1	10000	3	1	0	3	0
41	867	1	10000	3	1	0	3	0
41	868	1	10000	3	1	0	3	0
42	869	1	10000	3	1	0	3	0
40	870	1	10000	3	1	0	3	0
39	871	1	10000	3	1	0	3	0
38	872	1	10000	3	1	0	3	0
37	873	1	10000	3	1	0	3	0
36	874	1	10000	3	1	0	3	0
36	875	1	10000	3	1	0	3	0
35	876	1	10000	3	1	0	3	0
34	877	1	10000	3	1	0	3	0
35	878	1	10000	3	1	0	3	0
35	879	1	10000	3	1	0	3	0
34	880	1	10000	3	1	0	3	0
34	881	1	10000	3	1	0	3	0
33	882	1	10000	3	1	0	3	0
32	883	1	10000	3	1	0	3	0
31	884	1	10000	3	1	0	3	0
30	885	1	10000	3	1	0	3	0
31	886	1	10000	3	1	0	3	0
32	887	1	10000	3	1	0	3	0
30	888	1	10000	3	1	0	3	0
29	889	1	10000	3	1	0	3	0
28	890	1	10000	3	1	0	3	0
27	891	1	10000	3	1	0	3	0
27	892	1	10000	3	1	0	3	0
27	893	1	10000	3	1	0	3	0
26	894	1	10000	3	1	0	3	0
26	895	1	10000	3	1	0	3	0
25	896	1	10000	3	1	0	3	0
23	897	1	10000	3	1	0	3	0
23	898	1	10000	3	1	0	3	0
22	899	1	10000	3	1	0	3	0
25	900	1	10000	3	1	0	3	0
30	901	1	10000	3	1	0	3	0
40	902	1	10000	3	1	0	3	0
52	903	1	10000	3	1	0	3	0
63	904	1	10000	3	1	0	3	0
71	905	1	10000	3	1	0	3	0
79	906	1	10000	3	1	0	3	0
81	907	1	10000	3	1	0	3	0
79	908	1	10000	3	1	0	3	0
83	909	1	10000	3	1	0	3	0
90	910	1	10000	3	1	0	3	0
99	911	1	10000	3	1	0	3	0
104	912	1	10000	3	1	0	3	0
104	913	1	10000	3	1	0	3	0
102	914	1	10000	3	1	0	3	0
105	915	1	10000	3	1	0	3	0
109	916	1	10000	3	1	0	3	0
115	917	1	10000	3	1	0	3	0
122	918	1	10000	3	1	0	3	0
127	919	1	10000	3	1	0	3	0
130	920	1	10000	3	1	0	3	0
131	921	1	10000	3	1	0	3	0
134	922	1	10000	3	1	0	3	0
139	923	1	10000	3	1	0	3	0
143	924	1	10000	3	1	0	3	0
148	925	1	10000	3	1	0	3	0
152	926	1	10000	3	1	0	3	0
157	927	1	10000	3	1	0	3	0
162	928	1	10000	3	1	0	3	0
168	929	1	10000	3	1	0	3	0
178	930	1	10000	3	1	0	3	0
189	931	1	10000	3	1	0	3	0
196	932	1	10000	3	1	0	3	0
200	933	1	10000	3	1	0	3	0
201	934	1	10000	3	1	0	3	0
200	935	1	10000	3	1	0	3	0
198	936	1	10000	3	1	0	3	0
196	937	1	10000	3	1	0	3	0
195	938	1	10000	3	1	0	3	0
194	939	1	10000	3	1	0	3	0
197	940	1	10000	3	1	0	3	0
200	941	1	10000	3	1	0	3	0
201	942	1	10000	3	1	0	3	0
200	943	1	10000	3	1	0	3	0
193	944	1	10000	3	1	0	3	0
184	945	1	10000	3	1	0	3	0
177	946	1	10000	3	1	0	3	0
172	947	1	10000	3	1	0	3	0
167	948	1	10000	3	1	0	3	0
165	949	1	10000	3	1	0	3	0
162	950	1	10000	3	1	0	3	0
157	951	1	10000	3	1	0	3	0
151	952	1	10000	3	1	0	3	0
148	953	1	10000	3	1	0	3	0
148	954	1	10000	3	1	0	3	0
150	955	1	10000	3	1	0	3	0
149	956	1	10000	3	1	0	3	0
146	957	1	10000	3	1	0	3	0
144	958	1	10000	3	1	0	3	0
141	959	1	10000	3	1	0	3	0
138	960	1	10000	3	1	0	3	0
139	961	1	10000	3	1	0	3	0
143	962	1	10000	3	1	0	3	0
149	963	1	10000	3	1	0	3	0
155	964	1	10000	3	1	0	3	0
161	965	1	10000	3	1	0	3	0
166	966	1	10000	3	1	0	3	0
169	967	1	10000	3	1	0	3	0
171	968	1	10000	3	1	0	3	0
175	969	1	10000	3	1	0	3	0
178	970	1	10000	3	1	0	3	0
184	971	1	10000	3	1	0	3	0
189	972	1	10000	3	1	0	3	0
195	973	1	10000	3	1	0	3	0
200	974	1	10000	3	1	0	3	0
204	975	1	10000	3	1	0	3	0
207	976	1	10000	3	1	0	3	0
204	977	1	10000	3	1	0	3	0
203	978	1	10000	3	1	0	3	0
202	979	1	10000	3	1	0	3	0
205	980	1	10000	3	1	0	3	0
209	981	1	10000	3	1	0	3	0
213	982	1	10000	3	1	0	3	0
217	983	1	10000	3	1	0	3	0
220	984	1	10000	3	1	0	3	0
222	985	1	10000	3	1	0	3	0
223	986	1	10000	3	1	0	3	0
226	987	1	10000	3	1	0	3	0
225	988	1	10000	3	1	0	3	0
222	989	1	10000	3	1	0	3	0
220	990	1	10000	3	1	0	3	0
218	991	1	10000	3	1	0	3	0
216	992	1	10000	3	1	0	3	0
214	993	1	10000	3	1	0	3	0
212	994	1	10000	3	1	0	3	0
208	995	1	10000	3	1	0	3	0
205	996	1	10000	3	1	0	3	0
201	997	1	10000	3	1	0	3	0
197	998	1	10000	3	1	0	3	0
195	999	1	10000	3	1	0	3	0
194	1000	1	10000	3	1	0	3	0
54	1	1	10000	4	1	0	4	0
52	2	1	10000	4	1	0	4	0
51	3	1	10000	4	1	0	4	0
49	4	1	10000	4	1	0	4	0
48	5	1	10000	4	1	0	4	0
46	6	1	10000	4	1	0	4	0
45	7	1	10000	4	1	0	4	0
44	8	1	10000	4	1	0	4	0
45	9	1	10000	4	1	0	4	0
46	10	1	10000	4	1	0	4	0
49	11	1	10000	4	1	0	4	0
53	12	1	10000	4	1	0	4	0
56	13	1	10000	4	1	0	4	0
58	14	1	10000	4	1	0	4	0
60	15	1	10000	4	1	0	4	0
62	16	1	10000	4	1	0	4	0
64	17	1	10000	4	1	0	4	0
66	18	1	10000	4	1	0	4	0
68	19	1	10000	4	1	0	4	0
72	20	1	10000	4	1	0	4	0
71	21	1	10000	4	1	0	4	0
70	22	1	10000	4	1	0	4	0
68	23	1	10000	4	1	0	4	0
65	24	1	10000	4	1	0	4	0
63	25	1	10000	4	1	0	4	0
61	26	1	10000	4	1	0	4	0
61	27	1	10000	4	1	0	4	0
59	28	1	10000	4	1	0	4	0
59	29	1	10000	4	1	0	4	0
60	30	1	10000	4	1	0	4	0
60	31	1	10000	4	1	0	4	0
59	32	1	10000	4	1	0	4	0
56	33	1	10000	4	1	0	4	0
57	34	1	10000	4	1	0	4	0
56	35	1	10000	4	1	0	4	0
55	36	1	10000	4	1	0	4	0
55	37	1	10000	4	1	0	4	0
57	38	1	10000	4	1	0	4	0
57	39	1	10000	4	1	0	4	0
56	40	1	10000	4	1	0	4	0
54	41	1	10000	4	1	0	4	0
51	42	1	10000	4	1	0	4	0
52	43	1	10000	4	1	0	4	0
55	44	1	10000	4	1	0	4	0
59	45	1	10000	4	1	0	4	0
62	46	1	10000	4	1	0	4	0
64	47	1	10000	4	1	0	4	0
65	48	1	10000	4	1	0	4	0
63	49	1	10000	4	1	0	4	0
61	50	1	10000	4	1	0	4	0
60	51	1	10000	4	1	0	4	0
59	52	1	10000	4	1	0	4	0
56	53	1	10000	4	1	0	4	0
54	54	1	10000	4	1	0	4	0
52	55	1	10000	4	1	0	4	0
50	56	1	10000	4	1	0	4	0
48	57	1	10000	4	1	0	4	0
47	58	1	10000	4	1	0	4	0
46	59	1	10000	4	1	0	4	0
45	60	1	10000	4	1	0	4	0
43	61	1	10000	4	1	0	4	0
41	62	1	10000	4	1	0	4	0
40	63	1	10000	4	1	0	4	0
39	64	1	10000	4	1	0	4	0
38	65	1	10000	4	1	0	4	0
37	66	1	10000	4	1	0	4	0
36	67	1	10000	4	1	0	4	0
35	68	1	10000	4	1	0	4	0
35	69	1	10000	4	1	0	4	0
34	70	1	10000	4	1	0	4	0
34	71	1	10000	4	1	0	4	0
35	72	1	10000	4	1	0	4	0
34	73	1	10000	4	1	0	4	0
32	74	1	10000	4	1	0	4	0
32	75	1	10000	4	1	0	4	0
31	76	1	10000	4	1	0	4	0
30	77	1	10000	4	1	0	4	0
30	78	1	10000	4	1	0	4	0
30	79	1	10000	4	1	0	4	0
29	80	1	10000	4	1	0	4	0
29	81	1	10000	4	1	0	4	0
28	82	1	10000	4	1	0	4	0
29	83	1	10000	4	1	0	4	0
29	84	1	10000	4	1	0	4	0
29	85	1	10000	4	1	0	4	0
29	86	1	10000	4	1	0	4	0
29	87	1	10000	4	1	0	4	0
28	88	1	10000	4	1	0	4	0
29	89	1	10000	4	1	0	4	0
28	90	1	10000	4	1	0	4	0
29	91	1	10000	4	1	0	4	0
30	92	1	10000	4	1	0	4	0
30	93	1	10000	4	1	0	4	0
29	94	1	10000	4	1	0	4	0
28	95	1	10000	4	1	0	4	0
28	96	1	10000	4	1	0	4	0
29	97	1	10000	4	1	0	4	0
31	98	1	10000	4	1	0	4	0
31	99	1	10000	4	1	0	4	0
30	100	1	10000	4	1	0	4	0
30	101	1	10000	4	1	0	4	0
30	102	1	10000	4	1	0	4	0
30	103	1	10000	4	1	0	4	0
29	104	1	10000	4	1	0	4	0
28	105	1	10000	4	1	0	4	0
28	106	1	10000	4	1	0	4	0
27	107	1	10000	4	1	0	4	0
26	108	1	10000	4	1	0	4	0
25	109	1	10000	4	1	0	4	0
24	110	1	10000	4	1	0	4	0
24	111	1	10000	4	1	0	4	0
25	112	1	10000	4	1	0	4	0
24	113	1	10000	4	1	0	4	0
23	114	1	10000	4	1	0	4	0
23	115	1	10000	4	1	0	4	0
23	116	1	10000	4	1	0	4	0
26	117	1	10000	4	1	0	4	0
27	118	1	10000	4	1	0	4	0
28	119	1	10000	4	1	0	4	0
30	120	1	10000	4	1	0	4	0
30	121	1	10000	4	1	0	4	0
28	122	1	10000	4	1	0	4	0
28	123	1	10000	4	1	0	4	0
27	124	1	10000	4	1	0	4	0
27	125	1	10000	4	1	0	4	0
26	126	1	10000	4	1	0	4	0
25	127	1	10000	4	1	0	4	0
25	128	1	10000	4	1	0	4	0
24	129	1	10000	4	1	0	4	0
23	130	1	10000	4	1	0	4	0
25	131	1	10000	4	1	0	4	0
27	132	1	10000	4	1	0	4	0
27	133	1	10000	4	1	0	4	0
28	134	1	10000	4	1	0	4	0
27	135	1	10000	4	1	0	4	0
26	136	1	10000	4	1	0	4	0
26	137	1	10000	4	1	0	4	0
28	138	1	10000	4	1	0	4	0
29	139	1	10000	4	1	0	4	0
29	140	1	10000	4	1	0	4	0
27	141	1	10000	4	1	0	4	0
25	142	1	10000	4	1	0	4	0
26	143	1	10000	4	1	0	4	0
25	144	1	10000	4	1	0	4	0
25	145	1	10000	4	1	0	4	0
24	146	1	10000	4	1	0	4	0
24	147	1	10000	4	1	0	4	0
24	148	1	10000	4	1	0	4	0
22	149	1	10000	4	1	0	4	0
21	150	1	10000	4	1	0	4	0
22	151	1	10000	4	1	0	4	0
23	152	1	10000	4	1	0	4	0
24	153	1	10000	4	1	0	4	0
24	154	1	10000	4	1	0	4	0
24	155	1	10000	4	1	0	4	0
23	156	1	10000	4	1	0	4	0
22	157	1	10000	4	1	0	4	0
22	158	1	10000	4	1	0	4	0
23	159	1	10000	4	1	0	4	0
23	160	1	10000	4	1	0	4	0
21	161	1	10000	4	1	0	4	0
22	162	1	10000	4	1	0	4	0
23	163	1	10000	4	1	0	4	0
26	164	1	10000	4	1	0	4	0
26	165	1	10000	4	1	0	4	0
26	166	1	10000	4	1	0	4	0
26	167	1	10000	4	1	0	4	0
27	168	1	10000	4	1	0	4	0
26	169	1	10000	4	1	0	4	0
24	170	1	10000	4	1	0	4	0
26	171	1	10000	4	1	0	4	0
27	172	1	10000	4	1	0	4	0
26	173	1	10000	4	1	0	4	0
26	174	1	10000	4	1	0	4	0
25	175	1	10000	4	1	0	4	0
25	176	1	10000	4	1	0	4	0
25	177	1	10000	4	1	0	4	0
24	178	1	10000	4	1	0	4	0
24	179	1	10000	4	1	0	4	0
24	180	1	10000	4	1	0	4	0
23	181	1	10000	4	1	0	4	0
21	182	1	10000	4	1	0	4	0
21	183	1	10000	4	1	0	4	0
21	184	1	10000	4	1	0	4	0
23	185	1	10000	4	1	0	4	0
23	186	1	10000	4	1	0	4	0
23	187	1	10000	4	1	0	4	0
25	188	1	10000	4	1	0	4	0
27	189	1	10000	4	1	0	4	0
27	190	1	10000	4	1	0	4	0
28	191	1	10000	4	1	0	4	0
28	192	1	10000	4	1	0	4	0
31	193	1	10000	4	1	0	4	0
31	194	1	10000	4	1	0	4	0
29	195	1	10000	4	1	0	4	0
30	196	1	10000	4	1	0	4	0
31	197	1	10000	4	1	0	4	0
34	198	1	10000	4	1	0	4	0
37	199	1	10000	4	1	0	4	0
39	200	1	10000	4	1	0	4	0
36	201	1	10000	4	1	0	4	0
35	202	1	10000	4	1	0	4	0
37	203	1	10000	4	1	0	4	0
39	204	1	10000	4	1	0	4	0
43	205	1	10000	4	1	0	4	0
46	206	1	10000	4	1	0	4	0
49	207	1	10000	4	1	0	4	0
50	208	1	10000	4	1	0	4	0
50	209	1	10000	4	1	0	4	0
50	210	1	10000	4	1	0	4	0
52	211	1	10000	4	1	0	4	0
53	212	1	10000	4	1	0	4	0
52	213	1	10000	4	1	0	4	0
51	214	1	10000	4	1	0	4	0
49	215	1	10000	4	1	0	4	0
48	216	1	10000	4	1	0	4	0
47	217	1	10000	4	1	0	4	0
48	218	1	10000	4	1	0	4	0
51	219	1	10000	4	1	0	4	0
53	220	1	10000	4	1	0	4	0
55	221	1	10000	4	1	0	4	0
54	222	1	10000	4	1	0	4	0
54	223	1	10000	4	1	0	4	0
53	224	1	10000	4	1	0	4	0
51	225	1	10000	4	1	0	4	0
49	226	1	10000	4	1	0	4	0
50	227	1	10000	4	1	0	4	0
50	228	1	10000	4	1	0	4	0
49	229	1	10000	4	1	0	4	0
51	230	1	10000	4	1	0	4	0
53	231	1	10000	4	1	0	4	0
53	232	1	10000	4	1	0	4	0
54	233	1	10000	4	1	0	4	0
54	234	1	10000	4	1	0	4	0
54	235	1	10000	4	1	0	4	0
54	236	1	10000	4	1	0	4	0
53	237	1	10000	4	1	0	4	0
54	238	1	10000	4	1	0	4	0
55	239	1	10000	4	1	0	4	0
56	240	1	10000	4	1	0	4	0
55	241	1	10000	4	1	0	4	0
56	242	1	10000	4	1	0	4	0
57	243	1	10000	4	1	0	4	0
59	244	1	10000	4	1	0	4	0
61	245	1	10000	4	1	0	4	0
59	246	1	10000	4	1	0	4	0
59	247	1	10000	4	1	0	4	0
57	248	1	10000	4	1	0	4	0
54	249	1	10000	4	1	0	4	0
52	250	1	10000	4	1	0	4	0
51	251	1	10000	4	1	0	4	0
51	252	1	10000	4	1	0	4	0
50	253	1	10000	4	1	0	4	0
49	254	1	10000	4	1	0	4	0
47	255	1	10000	4	1	0	4	0
46	256	1	10000	4	1	0	4	0
44	257	1	10000	4	1	0	4	0
44	258	1	10000	4	1	0	4	0
42	259	1	10000	4	1	0	4	0
41	260	1	10000	4	1	0	4	0
39	261	1	10000	4	1	0	4	0
37	262	1	10000	4	1	0	4	0
37	263	1	10000	4	1	0	4	0
36	264	1	10000	4	1	0	4	0
35	265	1	10000	4	1	0	4	0
35	266	1	10000	4	1	0	4	0
36	267	1	10000	4	1	0	4	0
35	268	1	10000	4	1	0	4	0
36	269	1	10000	4	1	0	4	0
38	270	1	10000	4	1	0	4	0
41	271	1	10000	4	1	0	4	0
41	272	1	10000	4	1	0	4	0
41	273	1	10000	4	1	0	4	0
39	274	1	10000	4	1	0	4	0
37	275	1	10000	4	1	0	4	0
37	276	1	10000	4	1	0	4	0
36	277	1	10000	4	1	0	4	0
34	278	1	10000	4	1	0	4	0
34	279	1	10000	4	1	0	4	0
33	280	1	10000	4	1	0	4	0
32	281	1	10000	4	1	0	4	0
30	282	1	10000	4	1	0	4	0
30	283	1	10000	4	1	0	4	0
29	284	1	10000	4	1	0	4	0
28	285	1	10000	4	1	0	4	0
28	286	1	10000	4	1	0	4	0
28	287	1	10000	4	1	0	4	0
27	288	1	10000	4	1	0	4	0
26	289	1	10000	4	1	0	4	0
26	290	1	10000	4	1	0	4	0
26	291	1	10000	4	1	0	4	0
27	292	1	10000	4	1	0	4	0
26	293	1	10000	4	1	0	4	0
27	294	1	10000	4	1	0	4	0
27	295	1	10000	4	1	0	4	0
28	296	1	10000	4	1	0	4	0
31	297	1	10000	4	1	0	4	0
32	298	1	10000	4	1	0	4	0
31	299	1	10000	4	1	0	4	0
32	300	1	10000	4	1	0	4	0
32	301	1	10000	4	1	0	4	0
33	302	1	10000	4	1	0	4	0
36	303	1	10000	4	1	0	4	0
39	304	1	10000	4	1	0	4	0
39	305	1	10000	4	1	0	4	0
43	306	1	10000	4	1	0	4	0
50	307	1	10000	4	1	0	4	0
57	308	1	10000	4	1	0	4	0
65	309	1	10000	4	1	0	4	0
69	310	1	10000	4	1	0	4	0
74	311	1	10000	4	1	0	4	0
82	312	1	10000	4	1	0	4	0
91	313	1	10000	4	1	0	4	0
100	314	1	10000	4	1	0	4	0
107	315	1	10000	4	1	0	4	0
117	316	1	10000	4	1	0	4	0
126	317	1	10000	4	1	0	4	0
136	318	1	10000	4	1	0	4	0
144	319	1	10000	4	1	0	4	0
153	320	1	10000	4	1	0	4	0
163	321	1	10000	4	1	0	4	0
170	322	1	10000	4	1	0	4	0
177	323	1	10000	4	1	0	4	0
183	324	1	10000	4	1	0	4	0
190	325	1	10000	4	1	0	4	0
194	326	1	10000	4	1	0	4	0
199	327	1	10000	4	1	0	4	0
203	328	1	10000	4	1	0	4	0
205	329	1	10000	4	1	0	4	0
208	330	1	10000	4	1	0	4	0
213	331	1	10000	4	1	0	4	0
215	332	1	10000	4	1	0	4	0
212	333	1	10000	4	1	0	4	0
212	334	1	10000	4	1	0	4	0
211	335	1	10000	4	1	0	4	0
212	336	1	10000	4	1	0	4	0
215	337	1	10000	4	1	0	4	0
220	338	1	10000	4	1	0	4	0
224	339	1	10000	4	1	0	4	0
226	340	1	10000	4	1	0	4	0
222	341	1	10000	4	1	0	4	0
219	342	1	10000	4	1	0	4	0
216	343	1	10000	4	1	0	4	0
215	344	1	10000	4	1	0	4	0
215	345	1	10000	4	1	0	4	0
213	346	1	10000	4	1	0	4	0
211	347	1	10000	4	1	0	4	0
208	348	1	10000	4	1	0	4	0
204	349	1	10000	4	1	0	4	0
199	350	1	10000	4	1	0	4	0
194	351	1	10000	4	1	0	4	0
188	352	1	10000	4	1	0	4	0
179	353	1	10000	4	1	0	4	0
171	354	1	10000	4	1	0	4	0
164	355	1	10000	4	1	0	4	0
161	356	1	10000	4	1	0	4	0
158	357	1	10000	4	1	0	4	0
154	358	1	10000	4	1	0	4	0
153	359	1	10000	4	1	0	4	0
150	360	1	10000	4	1	0	4	0
147	361	1	10000	4	1	0	4	0
143	362	1	10000	4	1	0	4	0
144	363	1	10000	4	1	0	4	0
147	364	1	10000	4	1	0	4	0
152	365	1	10000	4	1	0	4	0
155	366	1	10000	4	1	0	4	0
158	367	1	10000	4	1	0	4	0
163	368	1	10000	4	1	0	4	0
168	369	1	10000	4	1	0	4	0
175	370	1	10000	4	1	0	4	0
183	371	1	10000	4	1	0	4	0
190	372	1	10000	4	1	0	4	0
198	373	1	10000	4	1	0	4	0
205	374	1	10000	4	1	0	4	0
213	375	1	10000	4	1	0	4	0
223	376	1	10000	4	1	0	4	0
233	377	1	10000	4	1	0	4	0
241	378	1	10000	4	1	0	4	0
250	379	1	10000	4	1	0	4	0
261	380	1	10000	4	1	0	4	0
268	381	1	10000	4	1	0	4	0
275	382	1	10000	4	1	0	4	0
281	383	1	10000	4	1	0	4	0
287	384	1	10000	4	1	0	4	0
292	385	1	10000	4	1	0	4	0
296	386	1	10000	4	1	0	4	0
299	387	1	10000	4	1	0	4	0
302	388	1	10000	4	1	0	4	0
303	389	1	10000	4	1	0	4	0
304	390	1	10000	4	1	0	4	0
306	391	1	10000	4	1	0	4	0
308	392	1	10000	4	1	0	4	0
307	393	1	10000	4	1	0	4	0
307	394	1	10000	4	1	0	4	0
305	395	1	10000	4	1	0	4	0
304	396	1	10000	4	1	0	4	0
300	397	1	10000	4	1	0	4	0
294	398	1	10000	4	1	0	4	0
289	399	1	10000	4	1	0	4	0
284	400	1	10000	4	1	0	4	0
281	401	1	10000	4	1	0	4	0
277	402	1	10000	4	1	0	4	0
274	403	1	10000	4	1	0	4	0
271	404	1	10000	4	1	0	4	0
265	405	1	10000	4	1	0	4	0
258	406	1	10000	4	1	0	4	0
255	407	1	10000	4	1	0	4	0
253	408	1	10000	4	1	0	4	0
248	409	1	10000	4	1	0	4	0
242	410	1	10000	4	1	0	4	0
238	411	1	10000	4	1	0	4	0
233	412	1	10000	4	1	0	4	0
227	413	1	10000	4	1	0	4	0
221	414	1	10000	4	1	0	4	0
214	415	1	10000	4	1	0	4	0
207	416	1	10000	4	1	0	4	0
200	417	1	10000	4	1	0	4	0
194	418	1	10000	4	1	0	4	0
188	419	1	10000	4	1	0	4	0
182	420	1	10000	4	1	0	4	0
176	421	1	10000	4	1	0	4	0
170	422	1	10000	4	1	0	4	0
165	423	1	10000	4	1	0	4	0
161	424	1	10000	4	1	0	4	0
156	425	1	10000	4	1	0	4	0
149	426	1	10000	4	1	0	4	0
143	427	1	10000	4	1	0	4	0
138	428	1	10000	4	1	0	4	0
131	429	1	10000	4	1	0	4	0
125	430	1	10000	4	1	0	4	0
120	431	1	10000	4	1	0	4	0
117	432	1	10000	4	1	0	4	0
112	433	1	10000	4	1	0	4	0
107	434	1	10000	4	1	0	4	0
104	435	1	10000	4	1	0	4	0
100	436	1	10000	4	1	0	4	0
96	437	1	10000	4	1	0	4	0
92	438	1	10000	4	1	0	4	0
90	439	1	10000	4	1	0	4	0
86	440	1	10000	4	1	0	4	0
82	441	1	10000	4	1	0	4	0
79	442	1	10000	4	1	0	4	0
76	443	1	10000	4	1	0	4	0
73	444	1	10000	4	1	0	4	0
71	445	1	10000	4	1	0	4	0
70	446	1	10000	4	1	0	4	0
67	447	1	10000	4	1	0	4	0
65	448	1	10000	4	1	0	4	0
63	449	1	10000	4	1	0	4	0
60	450	1	10000	4	1	0	4	0
61	451	1	10000	4	1	0	4	0
62	452	1	10000	4	1	0	4	0
61	453	1	10000	4	1	0	4	0
59	454	1	10000	4	1	0	4	0
58	455	1	10000	4	1	0	4	0
57	456	1	10000	4	1	0	4	0
58	457	1	10000	4	1	0	4	0
58	458	1	10000	4	1	0	4	0
58	459	1	10000	4	1	0	4	0
58	460	1	10000	4	1	0	4	0
57	461	1	10000	4	1	0	4	0
56	462	1	10000	4	1	0	4	0
56	463	1	10000	4	1	0	4	0
56	464	1	10000	4	1	0	4	0
56	465	1	10000	4	1	0	4	0
55	466	1	10000	4	1	0	4	0
53	467	1	10000	4	1	0	4	0
51	468	1	10000	4	1	0	4	0
50	469	1	10000	4	1	0	4	0
48	470	1	10000	4	1	0	4	0
47	471	1	10000	4	1	0	4	0
47	472	1	10000	4	1	0	4	0
47	473	1	10000	4	1	0	4	0
44	474	1	10000	4	1	0	4	0
43	475	1	10000	4	1	0	4	0
41	476	1	10000	4	1	0	4	0
40	477	1	10000	4	1	0	4	0
39	478	1	10000	4	1	0	4	0
39	479	1	10000	4	1	0	4	0
39	480	1	10000	4	1	0	4	0
37	481	1	10000	4	1	0	4	0
34	482	1	10000	4	1	0	4	0
33	483	1	10000	4	1	0	4	0
33	484	1	10000	4	1	0	4	0
32	485	1	10000	4	1	0	4	0
32	486	1	10000	4	1	0	4	0
36	487	1	10000	4	1	0	4	0
36	488	1	10000	4	1	0	4	0
35	489	1	10000	4	1	0	4	0
35	490	1	10000	4	1	0	4	0
39	491	1	10000	4	1	0	4	0
44	492	1	10000	4	1	0	4	0
45	493	1	10000	4	1	0	4	0
46	494	1	10000	4	1	0	4	0
46	495	1	10000	4	1	0	4	0
46	496	1	10000	4	1	0	4	0
47	497	1	10000	4	1	0	4	0
48	498	1	10000	4	1	0	4	0
48	499	1	10000	4	1	0	4	0
49	500	1	10000	4	1	0	4	0
49	501	1	10000	4	1	0	4	1
48	502	1	10000	4	1	0	4	1
48	503	1	10000	4	1	0	4	1
47	504	1	10000	4	1	0	4	1
46	505	1	10000	4	1	0	4	1
47	506	1	10000	4	1	0	4	1
47	507	1	10000	4	1	0	4	1
47	508	1	10000	4	1	0	4	1
47	509	1	10000	4	1	0	4	1
47	510	1	10000	4	1	0	4	1
48	511	1	10000	4	1	0	4	1
47	512	1	10000	4	1	0	4	1
46	513	1	10000	4	1	0	4	1
44	514	1	10000	4	1	0	4	1
43	515	1	10000	4	1	0	4	1
42	516	1	10000	4	1	0	4	1
42	517	1	10000	4	1	0	4	1
41	518	1	10000	4	1	0	4	1
40	519	1	10000	4	1	0	4	1
41	520	1	10000	4	1	0	4	1
39	521	1	10000	4	1	0	4	1
37	522	1	10000	4	1	0	4	1
36	523	1	10000	4	1	0	4	1
36	524	1	10000	4	1	0	4	1
37	525	1	10000	4	1	0	4	1
35	526	1	10000	4	1	0	4	1
34	527	1	10000	4	1	0	4	1
33	528	1	10000	4	1	0	4	1
33	529	1	10000	4	1	0	4	1
32	530	1	10000	4	1	0	4	1
35	531	1	10000	4	1	0	4	1
37	532	1	10000	4	1	0	4	1
36	533	1	10000	4	1	0	4	1
37	534	1	10000	4	1	0	4	1
36	535	1	10000	4	1	0	4	1
35	536	1	10000	4	1	0	4	1
37	537	1	10000	4	1	0	4	1
40	538	1	10000	4	1	0	4	1
44	539	1	10000	4	1	0	4	1
46	540	1	10000	4	1	0	4	1
46	541	1	10000	4	1	0	4	1
45	542	1	10000	4	1	0	4	1
45	543	1	10000	4	1	0	4	1
44	544	1	10000	4	1	0	4	1
43	545	1	10000	4	1	0	4	1
41	546	1	10000	4	1	0	4	1
42	547	1	10000	4	1	0	4	1
45	548	1	10000	4	1	0	4	1
45	549	1	10000	4	1	0	4	1
44	550	1	10000	4	1	0	4	1
45	551	1	10000	4	1	0	4	0
44	552	1	10000	4	1	0	4	0
43	553	1	10000	4	1	0	4	0
42	554	1	10000	4	1	0	4	0
40	555	1	10000	4	1	0	4	0
39	556	1	10000	4	1	0	4	0
38	557	1	10000	4	1	0	4	0
36	558	1	10000	4	1	0	4	0
36	559	1	10000	4	1	0	4	0
36	560	1	10000	4	1	0	4	0
34	561	1	10000	4	1	0	4	0
33	562	1	10000	4	1	0	4	0
33	563	1	10000	4	1	0	4	0
33	564	1	10000	4	1	0	4	0
33	565	1	10000	4	1	0	4	0
32	566	1	10000	4	1	0	4	0
32	567	1	10000	4	1	0	4	0
33	568	1	10000	4	1	0	4	0
33	569	1	10000	4	1	0	4	0
34	570	1	10000	4	1	0	4	0
34	571	1	10000	4	1	0	4	0
34	572	1	10000	4	1	0	4	0
33	573	1	10000	4	1	0	4	0
33	574	1	10000	4	1	0	4	0
31	575	1	10000	4	1	0	4	0
30	576	1	10000	4	1	0	4	0
30	577	1	10000	4	1	0	4	0
29	578	1	10000	4	1	0	4	0
29	579	1	10000	4	1	0	4	0
29	580	1	10000	4	1	0	4	0
27	581	1	10000	4	1	0	4	0
26	582	1	10000	4	1	0	4	0
25	583	1	10000	4	1	0	4	0
26	584	1	10000	4	1	0	4	0
25	585	1	10000	4	1	0	4	0
25	586	1	10000	4	1	0	4	0
24	587	1	10000	4	1	0	4	0
23	588	1	10000	4	1	0	4	0
23	589	1	10000	4	1	0	4	0
22	590	1	10000	4	1	0	4	0
22	591	1	10000	4	1	0	4	0
24	592	1	10000	4	1	0	4	0
23	593	1	10000	4	1	0	4	0
23	594	1	10000	4	1	0	4	0
22	595	1	10000	4	1	0	4	0
22	596	1	10000	4	1	0	4	0
23	597	1	10000	4	1	0	4	0
23	598	1	10000	4	1	0	4	0
28	599	1	10000	4	1	0	4	0
34	600	1	10000	4	1	0	4	0
36	601	1	10000	4	1	0	4	0
39	602	1	10000	4	1	0	4	0
45	603	1	10000	4	1	0	4	0
52	604	1	10000	4	1	0	4	0
91	605	1	10000	4	1	0	4	0
110	606	1	10000	4	1	0	4	0
130	607	1	10000	4	1	0	4	0
169	608	1	10000	4	1	0	4	0
195	609	1	10000	4	1	0	4	0
209	610	1	10000	4	1	0	4	0
219	611	1	10000	4	1	0	4	0
223	612	1	10000	4	1	0	4	0
222	613	1	10000	4	1	0	4	0
222	614	1	10000	4	1	0	4	0
237	615	1	10000	4	1	0	4	0
244	616	1	10000	4	1	0	4	0
247	617	1	10000	4	1	0	4	0
269	618	1	10000	4	1	0	4	0
282	619	1	10000	4	1	0	4	0
287	620	1	10000	4	1	0	4	0
292	621	1	10000	4	1	0	4	0
293	622	1	10000	4	1	0	4	0
289	623	1	10000	4	1	0	4	0
284	624	1	10000	4	1	0	4	0
277	625	1	10000	4	1	0	4	0
268	626	1	10000	4	1	0	4	0
257	627	1	10000	4	1	0	4	0
245	628	1	10000	4	1	0	4	0
236	629	1	10000	4	1	0	4	0
223	630	1	10000	4	1	0	4	0
214	631	1	10000	4	1	0	4	0
206	632	1	10000	4	1	0	4	0
197	633	1	10000	4	1	0	4	0
188	634	1	10000	4	1	0	4	0
180	635	1	10000	4	1	0	4	0
173	636	1	10000	4	1	0	4	0
168	637	1	10000	4	1	0	4	0
164	638	1	10000	4	1	0	4	0
162	639	1	10000	4	1	0	4	0
158	640	1	10000	4	1	0	4	0
151	641	1	10000	4	1	0	4	0
145	642	1	10000	4	1	0	4	0
142	643	1	10000	4	1	0	4	0
139	644	1	10000	4	1	0	4	0
134	645	1	10000	4	1	0	4	0
132	646	1	10000	4	1	0	4	0
129	647	1	10000	4	1	0	4	0
125	648	1	10000	4	1	0	4	0
120	649	1	10000	4	1	0	4	0
116	650	1	10000	4	1	0	4	0
112	651	1	10000	4	1	0	4	0
109	652	1	10000	4	1	0	4	0
104	653	1	10000	4	1	0	4	0
99	654	1	10000	4	1	0	4	0
95	655	1	10000	4	1	0	4	0
92	656	1	10000	4	1	0	4	0
89	657	1	10000	4	1	0	4	0
86	658	1	10000	4	1	0	4	0
85	659	1	10000	4	1	0	4	0
85	660	1	10000	4	1	0	4	0
81	661	1	10000	4	1	0	4	0
79	662	1	10000	4	1	0	4	0
79	663	1	10000	4	1	0	4	0
79	664	1	10000	4	1	0	4	0
78	665	1	10000	4	1	0	4	0
75	666	1	10000	4	1	0	4	0
73	667	1	10000	4	1	0	4	0
71	668	1	10000	4	1	0	4	0
69	669	1	10000	4	1	0	4	0
66	670	1	10000	4	1	0	4	0
65	671	1	10000	4	1	0	4	0
64	672	1	10000	4	1	0	4	0
62	673	1	10000	4	1	0	4	0
61	674	1	10000	4	1	0	4	0
58	675	1	10000	4	1	0	4	0
56	676	1	10000	4	1	0	4	0
55	677	1	10000	4	1	0	4	0
55	678	1	10000	4	1	0	4	0
53	679	1	10000	4	1	0	4	0
53	680	1	10000	4	1	0	4	0
51	681	1	10000	4	1	0	4	0
49	682	1	10000	4	1	0	4	0
50	683	1	10000	4	1	0	4	0
50	684	1	10000	4	1	0	4	0
51	685	1	10000	4	1	0	4	0
53	686	1	10000	4	1	0	4	0
53	687	1	10000	4	1	0	4	0
51	688	1	10000	4	1	0	4	0
50	689	1	10000	4	1	0	4	0
48	690	1	10000	4	1	0	4	0
50	691	1	10000	4	1	0	4	0
54	692	1	10000	4	1	0	4	0
54	693	1	10000	4	1	0	4	0
52	694	1	10000	4	1	0	4	0
52	695	1	10000	4	1	0	4	0
51	696	1	10000	4	1	0	4	0
50	697	1	10000	4	1	0	4	0
51	698	1	10000	4	1	0	4	0
52	699	1	10000	4	1	0	4	0
53	700	1	10000	4	1	0	4	0
54	701	1	10000	4	1	0	4	0
53	702	1	10000	4	1	0	4	0
53	703	1	10000	4	1	0	4	0
53	704	1	10000	4	1	0	4	0
53	705	1	10000	4	1	0	4	0
51	706	1	10000	4	1	0	4	0
49	707	1	10000	4	1	0	4	0
47	708	1	10000	4	1	0	4	0
46	709	1	10000	4	1	0	4	0
45	710	1	10000	4	1	0	4	0
46	711	1	10000	4	1	0	4	0
47	712	1	10000	4	1	0	4	0
46	713	1	10000	4	1	0	4	0
44	714	1	10000	4	1	0	4	0
42	715	1	10000	4	1	0	4	0
41	716	1	10000	4	1	0	4	0
42	717	1	10000	4	1	0	4	0
43	718	1	10000	4	1	0	4	0
43	719	1	10000	4	1	0	4	0
43	720	1	10000	4	1	0	4	0
42	721	1	10000	4	1	0	4	0
42	722	1	10000	4	1	0	4	0
43	723	1	10000	4	1	0	4	0
41	724	1	10000	4	1	0	4	0
42	725	1	10000	4	1	0	4	0
41	726	1	10000	4	1	0	4	0
39	727	1	10000	4	1	0	4	0
39	728	1	10000	4	1	0	4	0
38	729	1	10000	4	1	0	4	0
37	730	1	10000	4	1	0	4	0
37	731	1	10000	4	1	0	4	0
37	732	1	10000	4	1	0	4	0
36	733	1	10000	4	1	0	4	0
34	734	1	10000	4	1	0	4	0
33	735	1	10000	4	1	0	4	0
33	736	1	10000	4	1	0	4	0
31	737	1	10000	4	1	0	4	0
31	738	1	10000	4	1	0	4	0
32	739	1	10000	4	1	0	4	0
32	740	1	10000	4	1	0	4	0
31	741	1	10000	4	1	0	4	0
28	742	1	10000	4	1	0	4	0
29	743	1	10000	4	1	0	4	0
29	744	1	10000	4	1	0	4	0
29	745	1	10000	4	1	0	4	0
29	746	1	10000	4	1	0	4	0
31	747	1	10000	4	1	0	4	0
33	748	1	10000	4	1	0	4	0
36	749	1	10000	4	1	0	4	0
40	750	1	10000	4	1	0	4	0
42	751	1	10000	4	1	0	4	0
45	752	1	10000	4	1	0	4	0
46	753	1	10000	4	1	0	4	0
44	754	1	10000	4	1	0	4	0
43	755	1	10000	4	1	0	4	0
41	756	1	10000	4	1	0	4	0
41	757	1	10000	4	1	0	4	0
42	758	1	10000	4	1	0	4	0
43	759	1	10000	4	1	0	4	0
43	760	1	10000	4	1	0	4	0
41	761	1	10000	4	1	0	4	0
39	762	1	10000	4	1	0	4	0
39	763	1	10000	4	1	0	4	0
37	764	1	10000	4	1	0	4	0
37	765	1	10000	4	1	0	4	0
35	766	1	10000	4	1	0	4	0
35	767	1	10000	4	1	0	4	0
34	768	1	10000	4	1	0	4	0
35	769	1	10000	4	1	0	4	0
34	770	1	10000	4	1	0	4	0
36	771	1	10000	4	1	0	4	0
37	772	1	10000	4	1	0	4	0
37	773	1	10000	4	1	0	4	0
38	774	1	10000	4	1	0	4	0
37	775	1	10000	4	1	0	4	0
36	776	1	10000	4	1	0	4	0
35	777	1	10000	4	1	0	4	0
35	778	1	10000	4	1	0	4	0
35	779	1	10000	4	1	0	4	0
35	780	1	10000	4	1	0	4	0
36	781	1	10000	4	1	0	4	0
33	782	1	10000	4	1	0	4	0
33	783	1	10000	4	1	0	4	0
32	784	1	10000	4	1	0	4	0
32	785	1	10000	4	1	0	4	0
31	786	1	10000	4	1	0	4	0
30	787	1	10000	4	1	0	4	0
29	788	1	10000	4	1	0	4	0
27	789	1	10000	4	1	0	4	0
27	790	1	10000	4	1	0	4	0
27	791	1	10000	4	1	0	4	0
28	792	1	10000	4	1	0	4	0
27	793	1	10000	4	1	0	4	0
26	794	1	10000	4	1	0	4	0
29	795	1	10000	4	1	0	4	0
31	796	1	10000	4	1	0	4	0
32	797	1	10000	4	1	0	4	0
32	798	1	10000	4	1	0	4	0
32	799	1	10000	4	1	0	4	0
34	800	1	10000	4	1	0	4	0
33	801	1	10000	4	1	0	4	0
34	802	1	10000	4	1	0	4	0
33	803	1	10000	4	1	0	4	0
34	804	1	10000	4	1	0	4	0
35	805	1	10000	4	1	0	4	0
35	806	1	10000	4	1	0	4	0
35	807	1	10000	4	1	0	4	0
34	808	1	10000	4	1	0	4	0
33	809	1	10000	4	1	0	4	0
33	810	1	10000	4	1	0	4	0
32	811	1	10000	4	1	0	4	0
33	812	1	10000	4	1	0	4	0
33	813	1	10000	4	1	0	4	0
35	814	1	10000	4	1	0	4	0
35	815	1	10000	4	1	0	4	0
36	816	1	10000	4	1	0	4	0
37	817	1	10000	4	1	0	4	0
37	818	1	10000	4	1	0	4	0
38	819	1	10000	4	1	0	4	0
38	820	1	10000	4	1	0	4	0
36	821	1	10000	4	1	0	4	0
34	822	1	10000	4	1	0	4	0
34	823	1	10000	4	1	0	4	0
33	824	1	10000	4	1	0	4	0
32	825	1	10000	4	1	0	4	0
32	826	1	10000	4	1	0	4	0
31	827	1	10000	4	1	0	4	0
31	828	1	10000	4	1	0	4	0
29	829	1	10000	4	1	0	4	0
29	830	1	10000	4	1	0	4	0
29	831	1	10000	4	1	0	4	0
32	832	1	10000	4	1	0	4	0
34	833	1	10000	4	1	0	4	0
34	834	1	10000	4	1	0	4	0
34	835	1	10000	4	1	0	4	0
33	836	1	10000	4	1	0	4	0
32	837	1	10000	4	1	0	4	0
31	838	1	10000	4	1	0	4	0
31	839	1	10000	4	1	0	4	0
32	840	1	10000	4	1	0	4	0
31	841	1	10000	4	1	0	4	0
30	842	1	10000	4	1	0	4	0
29	843	1	10000	4	1	0	4	0
31	844	1	10000	4	1	0	4	0
32	845	1	10000	4	1	0	4	0
33	846	1	10000	4	1	0	4	0
33	847	1	10000	4	1	0	4	0
34	848	1	10000	4	1	0	4	0
34	849	1	10000	4	1	0	4	0
33	850	1	10000	4	1	0	4	0
33	851	1	10000	4	1	0	4	0
34	852	1	10000	4	1	0	4	0
33	853	1	10000	4	1	0	4	0
33	854	1	10000	4	1	0	4	0
34	855	1	10000	4	1	0	4	0
34	856	1	10000	4	1	0	4	0
35	857	1	10000	4	1	0	4	0
34	858	1	10000	4	1	0	4	0
33	859	1	10000	4	1	0	4	0
33	860	1	10000	4	1	0	4	0
32	861	1	10000	4	1	0	4	0
29	862	1	10000	4	1	0	4	0
29	863	1	10000	4	1	0	4	0
30	864	1	10000	4	1	0	4	0
31	865	1	10000	4	1	0	4	0
32	866	1	10000	4	1	0	4	0
33	867	1	10000	4	1	0	4	0
34	868	1	10000	4	1	0	4	0
35	869	1	10000	4	1	0	4	0
35	870	1	10000	4	1	0	4	0
35	871	1	10000	4	1	0	4	0
35	872	1	10000	4	1	0	4	0
33	873	1	10000	4	1	0	4	0
32	874	1	10000	4	1	0	4	0
31	875	1	10000	4	1	0	4	0
30	876	1	10000	4	1	0	4	0
32	877	1	10000	4	1	0	4	0
33	878	1	10000	4	1	0	4	0
34	879	1	10000	4	1	0	4	0
35	880	1	10000	4	1	0	4	0
35	881	1	10000	4	1	0	4	0
35	882	1	10000	4	1	0	4	0
35	883	1	10000	4	1	0	4	0
34	884	1	10000	4	1	0	4	0
34	885	1	10000	4	1	0	4	0
34	886	1	10000	4	1	0	4	0
36	887	1	10000	4	1	0	4	0
37	888	1	10000	4	1	0	4	0
37	889	1	10000	4	1	0	4	0
36	890	1	10000	4	1	0	4	0
37	891	1	10000	4	1	0	4	0
38	892	1	10000	4	1	0	4	0
36	893	1	10000	4	1	0	4	0
35	894	1	10000	4	1	0	4	0
34	895	1	10000	4	1	0	4	0
32	896	1	10000	4	1	0	4	0
32	897	1	10000	4	1	0	4	0
32	898	1	10000	4	1	0	4	0
34	899	1	10000	4	1	0	4	0
36	900	1	10000	4	1	0	4	0
35	901	1	10000	4	1	0	4	0
33	902	1	10000	4	1	0	4	0
33	903	1	10000	4	1	0	4	0
33	904	1	10000	4	1	0	4	0
32	905	1	10000	4	1	0	4	0
31	906	1	10000	4	1	0	4	0
30	907	1	10000	4	1	0	4	0
30	908	1	10000	4	1	0	4	0
30	909	1	10000	4	1	0	4	0
31	910	1	10000	4	1	0	4	0
34	911	1	10000	4	1	0	4	0
36	912	1	10000	4	1	0	4	0
35	913	1	10000	4	1	0	4	0
34	914	1	10000	4	1	0	4	0
35	915	1	10000	4	1	0	4	0
37	916	1	10000	4	1	0	4	0
38	917	1	10000	4	1	0	4	0
39	918	1	10000	4	1	0	4	0
40	919	1	10000	4	1	0	4	0
40	920	1	10000	4	1	0	4	0
39	921	1	10000	4	1	0	4	0
37	922	1	10000	4	1	0	4	0
37	923	1	10000	4	1	0	4	0
35	924	1	10000	4	1	0	4	0
35	925	1	10000	4	1	0	4	0
33	926	1	10000	4	1	0	4	0
33	927	1	10000	4	1	0	4	0
32	928	1	10000	4	1	0	4	0
31	929	1	10000	4	1	0	4	0
30	930	1	10000	4	1	0	4	0
29	931	1	10000	4	1	0	4	0
31	932	1	10000	4	1	0	4	0
30	933	1	10000	4	1	0	4	0
29	934	1	10000	4	1	0	4	0
28	935	1	10000	4	1	0	4	0
30	936	1	10000	4	1	0	4	0
30	937	1	10000	4	1	0	4	0
29	938	1	10000	4	1	0	4	0
30	939	1	10000	4	1	0	4	0
30	940	1	10000	4	1	0	4	0
29	941	1	10000	4	1	0	4	0
28	942	1	10000	4	1	0	4	0
28	943	1	10000	4	1	0	4	0
29	944	1	10000	4	1	0	4	0
28	945	1	10000	4	1	0	4	0
27	946	1	10000	4	1	0	4	0
27	947	1	10000	4	1	0	4	0
27	948	1	10000	4	1	0	4	0
25	949	1	10000	4	1	0	4	0
24	950	1	10000	4	1	0	4	0
25	951	1	10000	4	1	0	4	0
26	952	1	10000	4	1	0	4	0
25	953	1	10000	4	1	0	4	0
25	954	1	10000	4	1	0	4	0
25	955	1	10000	4	1	0	4	0
26	956	1	10000	4	1	0	4	0
26	957	1	10000	4	1	0	4	0
27	958	1	10000	4	1	0	4	0
27	959	1	10000	4	1	0	4	0
27	960	1	10000	4	1	0	4	0
26	961	1	10000	4	1	0	4	0
24	962	1	10000	4	1	0	4	0
26	963	1	10000	4	1	0	4	0
29	964	1	10000	4	1	0	4	0
31	965	1	10000	4	1	0	4	0
29	966	1	10000	4	1	0	4	0
30	967	1	10000	4	1	0	4	0
32	968	1	10000	4	1	0	4	0
31	969	1	10000	4	1	0	4	0
30	970	1	10000	4	1	0	4	0
30	971	1	10000	4	1	0	4	0
32	972	1	10000	4	1	0	4	0
31	973	1	10000	4	1	0	4	0
31	974	1	10000	4	1	0	4	0
30	975	1	10000	4	1	0	4	0
29	976	1	10000	4	1	0	4	0
29	977	1	10000	4	1	0	4	0
31	978	1	10000	4	1	0	4	0
33	979	1	10000	4	1	0	4	0
35	980	1	10000	4	1	0	4	0
34	981	1	10000	4	1	0	4	0
32	982	1	10000	4	1	0	4	0
32	983	1	10000	4	1	0	4	0
31	984	1	10000	4	1	0	4	0
31	985	1	10000	4	1	0	4	0
29	986	1	10000	4	1	0	4	0
28	987	1	10000	4	1	0	4	0
28	988	1	10000	4	1	0	4	0
26	989	1	10000	4	1	0	4	0
25	990	1	10000	4	1	0	4	0
25	991	1	10000	4	1	0	4	0
27	992	1	10000	4	1	0	4	0
26	993	1	10000	4	1	0	4	0
30	994	1	10000	4	1	0	4	0
33	995	1	10000	4	1	0	4	0
33	996	1	10000	4	1	0	4	0
32	997	1	10000	4	1	0	4	0
32	998	1	10000	4	1	0	4	0
34	999	1	10000	4	1	0	4	0
36	1000	1	10000	4	1	0	4	0
43	1	10	10000	5	1	0	5	0
46	2	10	10000	5	1	0	5	0
49	3	10	10000	5	1	0	5	0
55	4	10	10000	5	1	0	5	0
57	5	10	10000	5	1	0	5	0
62	6	10	10000	5	1	0	5	0
67	7	10	10000	5	1	0	5	0
72	8	10	10000	5	1	0	5	0
80	9	10	10000	5	1	0	5	0
88	10	10	10000	5	1	0	5	0
95	11	10	10000	5	1	0	5	0
102	12	10	10000	5	1	0	5	0
109	13	10	10000	5	1	0	5	0
117	14	10	10000	5	1	0	5	0
126	15	10	10000	5	1	0	5	0
133	16	10	10000	5	1	0	5	0
140	17	10	10000	5	1	0	5	0
147	18	10	10000	5	1	0	5	0
154	19	10	10000	5	1	0	5	0
159	20	10	10000	5	1	0	5	0
164	20	10	10000	5	1	0	5	0
170	21	10	10000	5	1	0	5	0
177	23	10	10000	5	1	0	5	0
182	24	10	10000	5	1	0	5	0
184	25	10	10000	5	1	0	5	0
188	26	10	10000	5	1	0	5	0
194	27	10	10000	5	1	0	5	0
197	28	10	10000	5	1	0	5	0
199	29	10	10000	5	1	0	5	0
201	30	10	10000	5	1	0	5	0
200	30	10	10000	5	1	0	5	0
198	31	10	10000	5	1	0	5	0
195	33	10	10000	5	1	0	5	0
191	34	10	10000	5	1	0	5	0
192	35	10	10000	5	1	0	5	0
189	36	10	10000	5	1	0	5	0
187	37	10	10000	5	1	0	5	0
181	38	10	10000	5	1	0	5	0
176	39	10	10000	5	1	0	5	0
170	40	10	10000	5	1	0	5	0
163	40	10	10000	5	1	0	5	0
157	41	10	10000	5	1	0	5	0
152	43	10	10000	5	1	0	5	0
149	44	10	10000	5	1	0	5	0
145	45	10	10000	5	1	0	5	0
143	46	10	10000	5	1	0	5	0
140	47	10	10000	5	1	0	5	0
138	48	10	10000	5	1	0	5	0
137	49	10	10000	5	1	0	5	0
138	50	10	10000	5	1	0	5	0
141	50	10	10000	5	1	0	5	0
144	51	10	10000	5	1	0	5	0
147	53	10	10000	5	1	0	5	0
152	54	10	10000	5	1	0	5	0
158	55	10	10000	5	1	0	5	0
162	56	10	10000	5	1	0	5	0
166	57	10	10000	5	1	0	5	0
171	58	10	10000	5	1	0	5	0
176	59	10	10000	5	1	0	5	0
183	60	10	10000	5	1	0	5	0
189	60	10	10000	5	1	0	5	0
195	61	10	10000	5	1	0	5	0
201	63	10	10000	5	1	0	5	0
207	64	10	10000	5	1	0	5	0
213	65	10	10000	5	1	0	5	0
219	66	10	10000	5	1	0	5	0
224	67	10	10000	5	1	0	5	0
229	68	10	10000	5	1	0	5	0
233	69	10	10000	5	1	0	5	0
235	70	10	10000	5	1	0	5	0
237	70	10	10000	5	1	0	5	0
238	71	10	10000	5	1	0	5	0
238	73	10	10000	5	1	0	5	0
239	74	10	10000	5	1	0	5	0
242	75	10	10000	5	1	0	5	0
245	76	10	10000	5	1	0	5	0
249	77	10	10000	5	1	0	5	0
252	78	10	10000	5	1	0	5	0
252	79	10	10000	5	1	0	5	0
249	80	10	10000	5	1	0	5	0
244	80	10	10000	5	1	0	5	0
240	81	10	10000	5	1	0	5	0
236	83	10	10000	5	1	0	5	0
233	84	10	10000	5	1	0	5	0
229	85	10	10000	5	1	0	5	0
227	86	10	10000	5	1	0	5	0
228	87	10	10000	5	1	0	5	0
226	88	10	10000	5	1	0	5	0
224	89	10	10000	5	1	0	5	0
219	90	10	10000	5	1	0	5	0
215	90	10	10000	5	1	0	5	0
210	91	10	10000	5	1	0	5	0
203	93	10	10000	5	1	0	5	0
198	94	10	10000	5	1	0	5	0
194	95	10	10000	5	1	0	5	0
190	96	10	10000	5	1	0	5	0
186	97	10	10000	5	1	0	5	0
184	98	10	10000	5	1	0	5	0
184	99	10	10000	5	1	0	5	0
181	100	10	10000	5	1	0	5	0
175	100	10	10000	5	1	0	5	0
171	101	10	10000	5	1	0	5	0
167	103	10	10000	5	1	0	5	0
162	104	10	10000	5	1	0	5	0
154	105	10	10000	5	1	0	5	0
152	106	10	10000	5	1	0	5	0
146	107	10	10000	5	1	0	5	0
140	108	10	10000	5	1	0	5	0
135	109	10	10000	5	1	0	5	0
130	110	10	10000	5	1	0	5	0
127	110	10	10000	5	1	0	5	0
123	111	10	10000	5	1	0	5	0
123	113	10	10000	5	1	0	5	0
120	114	10	10000	5	1	0	5	0
117	115	10	10000	5	1	0	5	0
113	116	10	10000	5	1	0	5	0
109	117	10	10000	5	1	0	5	0
105	118	10	10000	5	1	0	5	0
100	119	10	10000	5	1	0	5	0
97	120	10	10000	5	1	0	5	0
92	120	10	10000	5	1	0	5	0
90	121	10	10000	5	1	0	5	0
87	123	10	10000	5	1	0	5	0
83	124	10	10000	5	1	0	5	0
78	125	10	10000	5	1	0	5	0
76	126	10	10000	5	1	0	5	0
73	127	10	10000	5	1	0	5	0
71	128	10	10000	5	1	0	5	0
68	129	10	10000	5	1	0	5	0
67	130	10	10000	5	1	0	5	0
64	130	10	10000	5	1	0	5	0
61	131	10	10000	5	1	0	5	0
58	133	10	10000	5	1	0	5	0
56	134	10	10000	5	1	0	5	0
56	135	10	10000	5	1	0	5	0
55	136	10	10000	5	1	0	5	0
55	137	10	10000	5	1	0	5	0
52	138	10	10000	5	1	0	5	0
50	139	10	10000	5	1	0	5	0
48	140	10	10000	5	1	0	5	0
47	140	10	10000	5	1	0	5	0
47	141	10	10000	5	1	0	5	0
46	143	10	10000	5	1	0	5	0
47	144	10	10000	5	1	0	5	0
44	145	10	10000	5	1	0	5	0
43	146	10	10000	5	1	0	5	0
41	147	10	10000	5	1	0	5	0
41	148	10	10000	5	1	0	5	0
42	149	10	10000	5	1	0	5	0
43	150	10	10000	5	1	0	5	0
46	150	10	10000	5	1	0	5	0
45	151	10	10000	5	1	0	5	0
44	153	10	10000	5	1	0	5	0
45	154	10	10000	5	1	0	5	0
48	155	10	10000	5	1	0	5	0
47	156	10	10000	5	1	0	5	0
45	157	10	10000	5	1	0	5	0
44	158	10	10000	5	1	0	5	0
43	159	10	10000	5	1	0	5	0
44	160	10	10000	5	1	0	5	0
43	160	10	10000	5	1	0	5	0
42	161	10	10000	5	1	0	5	0
41	163	10	10000	5	1	0	5	0
41	164	10	10000	5	1	0	5	0
38	165	10	10000	5	1	0	5	0
38	166	10	10000	5	1	0	5	0
40	167	10	10000	5	1	0	5	0
42	168	10	10000	5	1	0	5	0
43	169	10	10000	5	1	0	5	0
44	170	10	10000	5	1	0	5	0
43	170	10	10000	5	1	0	5	0
43	171	10	10000	5	1	0	5	0
44	173	10	10000	5	1	0	5	0
44	174	10	10000	5	1	0	5	0
46	175	10	10000	5	1	0	5	0
44	176	10	10000	5	1	0	5	0
42	177	10	10000	5	1	0	5	0
40	178	10	10000	5	1	0	5	0
40	179	10	10000	5	1	0	5	0
41	180	10	10000	5	1	0	5	0
40	180	10	10000	5	1	0	5	0
40	181	10	10000	5	1	0	5	0
40	183	10	10000	5	1	0	5	0
40	184	10	10000	5	1	0	5	0
39	185	10	10000	5	1	0	5	0
41	186	10	10000	5	1	0	5	0
43	187	10	10000	5	1	0	5	0
44	188	10	10000	5	1	0	5	0
44	189	10	10000	5	1	0	5	0
42	190	10	10000	5	1	0	5	0
42	190	10	10000	5	1	0	5	0
40	191	10	10000	5	1	0	5	0
39	193	10	10000	5	1	0	5	0
38	194	10	10000	5	1	0	5	0
39	195	10	10000	5	1	0	5	0
37	196	10	10000	5	1	0	5	0
36	197	10	10000	5	1	0	5	0
34	198	10	10000	5	1	0	5	0
34	199	10	10000	5	1	0	5	0
35	200	10	10000	5	1	0	5	0
35	200	10	10000	5	1	0	5	0
34	201	10	10000	5	1	0	5	0
34	203	10	10000	5	1	0	5	0
34	204	10	10000	5	1	0	5	0
32	205	10	10000	5	1	0	5	0
32	206	10	10000	5	1	0	5	0
32	207	10	10000	5	1	0	5	0
31	208	10	10000	5	1	0	5	0
31	209	10	10000	5	1	0	5	0
30	210	10	10000	5	1	0	5	0
29	210	10	10000	5	1	0	5	0
29	211	10	10000	5	1	0	5	0
29	213	10	10000	5	1	0	5	0
29	214	10	10000	5	1	0	5	0
32	215	10	10000	5	1	0	5	0
32	216	10	10000	5	1	0	5	0
34	217	10	10000	5	1	0	5	0
36	218	10	10000	5	1	0	5	0
36	219	10	10000	5	1	0	5	0
37	220	10	10000	5	1	0	5	0
35	220	10	10000	5	1	0	5	0
33	221	10	10000	5	1	0	5	0
33	223	10	10000	5	1	0	5	0
33	224	10	10000	5	1	0	5	0
31	225	10	10000	5	1	0	5	0
32	226	10	10000	5	1	0	5	0
34	227	10	10000	5	1	0	5	0
33	228	10	10000	5	1	0	5	0
34	229	10	10000	5	1	0	5	0
35	230	10	10000	5	1	0	5	0
36	230	10	10000	5	1	0	5	0
36	231	10	10000	5	1	0	5	0
34	233	10	10000	5	1	0	5	0
34	234	10	10000	5	1	0	5	0
34	235	10	10000	5	1	0	5	0
33	236	10	10000	5	1	0	5	0
33	237	10	10000	5	1	0	5	0
32	238	10	10000	5	1	0	5	0
31	239	10	10000	5	1	0	5	0
30	240	10	10000	5	1	0	5	0
30	240	10	10000	5	1	0	5	0
32	241	10	10000	5	1	0	5	0
32	243	10	10000	5	1	0	5	0
33	244	10	10000	5	1	0	5	0
31	245	10	10000	5	1	0	5	0
31	246	10	10000	5	1	0	5	0
30	247	10	10000	5	1	0	5	0
30	248	10	10000	5	1	0	5	0
30	249	10	10000	5	1	0	5	0
29	250	10	10000	5	1	0	5	0
30	250	10	10000	5	1	0	5	0
28	251	10	10000	5	1	0	5	0
26	253	10	10000	5	1	0	5	0
26	254	10	10000	5	1	0	5	0
28	255	10	10000	5	1	0	5	0
29	256	10	10000	5	1	0	5	0
29	257	10	10000	5	1	0	5	0
30	258	10	10000	5	1	0	5	0
28	259	10	10000	5	1	0	5	0
28	260	10	10000	5	1	0	5	0
27	260	10	10000	5	1	0	5	0
28	261	10	10000	5	1	0	5	0
29	263	10	10000	5	1	0	5	0
28	264	10	10000	5	1	0	5	0
26	265	10	10000	5	1	0	5	0
27	266	10	10000	5	1	0	5	0
27	267	10	10000	5	1	0	5	0
28	268	10	10000	5	1	0	5	0
28	269	10	10000	5	1	0	5	0
27	270	10	10000	5	1	0	5	0
27	270	10	10000	5	1	0	5	0
27	271	10	10000	5	1	0	5	0
26	273	10	10000	5	1	0	5	0
26	274	10	10000	5	1	0	5	0
29	275	10	10000	5	1	0	5	0
28	276	10	10000	5	1	0	5	0
27	277	10	10000	5	1	0	5	0
26	278	10	10000	5	1	0	5	0
26	279	10	10000	5	1	0	5	0
25	280	10	10000	5	1	0	5	0
25	280	10	10000	5	1	0	5	0
25	281	10	10000	5	1	0	5	0
26	283	10	10000	5	1	0	5	0
27	284	10	10000	5	1	0	5	0
25	285	10	10000	5	1	0	5	0
24	286	10	10000	5	1	0	5	0
24	287	10	10000	5	1	0	5	0
25	288	10	10000	5	1	0	5	0
24	289	10	10000	5	1	0	5	0
24	290	10	10000	5	1	0	5	0
24	290	10	10000	5	1	0	5	0
24	291	10	10000	5	1	0	5	0
23	293	10	10000	5	1	0	5	0
22	294	10	10000	5	1	0	5	0
23	295	10	10000	5	1	0	5	0
23	296	10	10000	5	1	0	5	0
22	297	10	10000	5	1	0	5	0
22	298	10	10000	5	1	0	5	0
21	299	10	10000	5	1	0	5	0
21	300	10	10000	5	1	0	5	0
21	300	10	10000	5	1	0	5	0
21	301	10	10000	5	1	0	5	0
22	303	10	10000	5	1	0	5	0
21	304	10	10000	5	1	0	5	0
21	305	10	10000	5	1	0	5	0
22	306	10	10000	5	1	0	5	0
22	307	10	10000	5	1	0	5	0
22	308	10	10000	5	1	0	5	0
22	309	10	10000	5	1	0	5	0
23	310	10	10000	5	1	0	5	0
22	310	10	10000	5	1	0	5	0
21	311	10	10000	5	1	0	5	0
20	313	10	10000	5	1	0	5	0
20	314	10	10000	5	1	0	5	0
21	315	10	10000	5	1	0	5	0
20	316	10	10000	5	1	0	5	0
20	317	10	10000	5	1	0	5	0
20	318	10	10000	5	1	0	5	0
20	319	10	10000	5	1	0	5	0
20	320	10	10000	5	1	0	5	0
20	320	10	10000	5	1	0	5	0
21	321	10	10000	5	1	0	5	0
22	323	10	10000	5	1	0	5	0
23	324	10	10000	5	1	0	5	0
21	325	10	10000	5	1	0	5	0
21	326	10	10000	5	1	0	5	0
21	327	10	10000	5	1	0	5	0
21	328	10	10000	5	1	0	5	0
21	329	10	10000	5	1	0	5	0
21	330	10	10000	5	1	0	5	0
23	330	10	10000	5	1	0	5	0
22	331	10	10000	5	1	0	5	0
22	333	10	10000	5	1	0	5	0
21	334	10	10000	5	1	0	5	0
24	335	10	10000	5	1	0	5	0
24	336	10	10000	5	1	0	5	0
24	337	10	10000	5	1	0	5	0
24	338	10	10000	5	1	0	5	0
23	339	10	10000	5	1	0	5	0
25	340	10	10000	5	1	0	5	0
26	340	10	10000	5	1	0	5	0
26	341	10	10000	5	1	0	5	0
26	343	10	10000	5	1	0	5	0
28	344	10	10000	5	1	0	5	0
28	345	10	10000	5	1	0	5	0
29	346	10	10000	5	1	0	5	0
31	347	10	10000	5	1	0	5	0
32	348	10	10000	5	1	0	5	0
30	349	10	10000	5	1	0	5	0
30	350	10	10000	5	1	0	5	0
31	350	10	10000	5	1	0	5	0
31	351	10	10000	5	1	0	5	0
30	353	10	10000	5	1	0	5	0
28	354	10	10000	5	1	0	5	0
31	355	10	10000	5	1	0	5	0
29	356	10	10000	5	1	0	5	0
28	357	10	10000	5	1	0	5	0
28	358	10	10000	5	1	0	5	0
27	359	10	10000	5	1	0	5	0
26	360	10	10000	5	1	0	5	0
25	360	10	10000	5	1	0	5	0
26	361	10	10000	5	1	0	5	0
25	363	10	10000	5	1	0	5	0
25	364	10	10000	5	1	0	5	0
24	365	10	10000	5	1	0	5	0
24	366	10	10000	5	1	0	5	0
24	367	10	10000	5	1	0	5	0
24	368	10	10000	5	1	0	5	0
23	369	10	10000	5	1	0	5	0
23	370	10	10000	5	1	0	5	0
23	370	10	10000	5	1	0	5	0
24	371	10	10000	5	1	0	5	0
23	373	10	10000	5	1	0	5	0
22	374	10	10000	5	1	0	5	0
24	375	10	10000	5	1	0	5	0
24	376	10	10000	5	1	0	5	0
24	377	10	10000	5	1	0	5	0
24	378	10	10000	5	1	0	5	0
24	379	10	10000	5	1	0	5	0
24	380	10	10000	5	1	0	5	0
24	380	10	10000	5	1	0	5	0
25	381	10	10000	5	1	0	5	0
26	383	10	10000	5	1	0	5	0
26	384	10	10000	5	1	0	5	0
23	385	10	10000	5	1	0	5	0
24	386	10	10000	5	1	0	5	0
23	387	10	10000	5	1	0	5	0
24	388	10	10000	5	1	0	5	0
23	389	10	10000	5	1	0	5	0
23	390	10	10000	5	1	0	5	0
23	390	10	10000	5	1	0	5	0
22	391	10	10000	5	1	0	5	0
23	393	10	10000	5	1	0	5	0
24	394	10	10000	5	1	0	5	0
26	395	10	10000	5	1	0	5	0
26	396	10	10000	5	1	0	5	0
26	397	10	10000	5	1	0	5	0
27	398	10	10000	5	1	0	5	0
29	399	10	10000	5	1	0	5	0
31	400	10	10000	5	1	0	5	0
32	400	10	10000	5	1	0	5	0
32	401	10	10000	5	1	0	5	0
32	403	10	10000	5	1	0	5	0
31	404	10	10000	5	1	0	5	0
28	405	10	10000	5	1	0	5	0
28	406	10	10000	5	1	0	5	0
28	407	10	10000	5	1	0	5	0
28	408	10	10000	5	1	0	5	0
29	409	10	10000	5	1	0	5	0
31	410	10	10000	5	1	0	5	0
31	410	10	10000	5	1	0	5	0
29	411	10	10000	5	1	0	5	0
28	413	10	10000	5	1	0	5	0
27	414	10	10000	5	1	0	5	0
28	415	10	10000	5	1	0	5	0
27	416	10	10000	5	1	0	5	0
27	417	10	10000	5	1	0	5	0
26	418	10	10000	5	1	0	5	0
25	419	10	10000	5	1	0	5	0
24	420	10	10000	5	1	0	5	0
25	420	10	10000	5	1	0	5	0
26	421	10	10000	5	1	0	5	0
26	423	10	10000	5	1	0	5	0
28	424	10	10000	5	1	0	5	0
25	425	10	10000	5	1	0	5	0
25	426	10	10000	5	1	0	5	0
24	427	10	10000	5	1	0	5	0
25	428	10	10000	5	1	0	5	0
23	429	10	10000	5	1	0	5	0
23	430	10	10000	5	1	0	5	0
23	430	10	10000	5	1	0	5	0
22	431	10	10000	5	1	0	5	0
23	433	10	10000	5	1	0	5	0
24	434	10	10000	5	1	0	5	0
26	435	10	10000	5	1	0	5	0
25	436	10	10000	5	1	0	5	0
24	437	10	10000	5	1	0	5	0
23	438	10	10000	5	1	0	5	0
23	439	10	10000	5	1	0	5	0
22	440	10	10000	5	1	0	5	0
21	440	10	10000	5	1	0	5	0
22	441	10	10000	5	1	0	5	0
22	443	10	10000	5	1	0	5	0
23	444	10	10000	5	1	0	5	0
24	445	10	10000	5	1	0	5	0
28	446	10	10000	5	1	0	5	0
29	447	10	10000	5	1	0	5	0
30	448	10	10000	5	1	0	5	0
30	449	10	10000	5	1	0	5	0
32	450	10	10000	5	1	0	5	0
36	450	10	10000	5	1	0	5	0
38	451	10	10000	5	1	0	5	0
40	453	10	10000	5	1	0	5	0
41	454	10	10000	5	1	0	5	0
44	455	10	10000	5	1	0	5	0
43	456	10	10000	5	1	0	5	0
41	457	10	10000	5	1	0	5	0
39	458	10	10000	5	1	0	5	0
38	459	10	10000	5	1	0	5	0
37	460	10	10000	5	1	0	5	0
37	460	10	10000	5	1	0	5	0
37	461	10	10000	5	1	0	5	0
36	463	10	10000	5	1	0	5	0
35	464	10	10000	5	1	0	5	0
32	465	10	10000	5	1	0	5	0
32	466	10	10000	5	1	0	5	0
31	467	10	10000	5	1	0	5	0
30	468	10	10000	5	1	0	5	0
31	469	10	10000	5	1	0	5	0
31	470	10	10000	5	1	0	5	0
31	470	10	10000	5	1	0	5	0
30	471	10	10000	5	1	0	5	0
29	473	10	10000	5	1	0	5	0
28	474	10	10000	5	1	0	5	0
29	475	10	10000	5	1	0	5	0
29	476	10	10000	5	1	0	5	0
28	477	10	10000	5	1	0	5	0
27	478	10	10000	5	1	0	5	0
27	479	10	10000	5	1	0	5	0
26	480	10	10000	5	1	0	5	0
25	480	10	10000	5	1	0	5	0
26	481	10	10000	5	1	0	5	0
26	483	10	10000	5	1	0	5	0
26	484	10	10000	5	1	0	5	0
23	485	10	10000	5	1	0	5	0
23	486	10	10000	5	1	0	5	0
24	487	10	10000	5	1	0	5	0
24	488	10	10000	5	1	0	5	0
25	489	10	10000	5	1	0	5	0
24	490	10	10000	5	1	0	5	0
24	490	10	10000	5	1	0	5	0
24	491	10	10000	5	1	0	5	0
26	493	10	10000	5	1	0	5	0
25	494	10	10000	5	1	0	5	0
27	495	10	10000	5	1	0	5	0
26	496	10	10000	5	1	0	5	0
26	497	10	10000	5	1	0	5	0
25	498	10	10000	5	1	0	5	0
24	499	10	10000	5	1	0	5	0
24	500	10	10000	5	1	0	5	0
24	500	10	10000	5	1	0	5	0
26	501	10	10000	5	1	0	5	0
27	503	10	10000	5	1	0	5	1
27	504	10	10000	5	1	0	5	1
25	505	10	10000	5	1	0	5	1
24	506	10	10000	5	1	0	5	1
25	507	10	10000	5	1	0	5	1
25	508	10	10000	5	1	0	5	1
24	509	10	10000	5	1	0	5	1
24	510	10	10000	5	1	0	5	1
25	510	10	10000	5	1	0	5	1
23	511	10	10000	5	1	0	5	1
22	513	10	10000	5	1	0	5	1
22	514	10	10000	5	1	0	5	1
24	515	10	10000	5	1	0	5	1
24	516	10	10000	5	1	0	5	1
24	517	10	10000	5	1	0	5	1
24	518	10	10000	5	1	0	5	1
24	519	10	10000	5	1	0	5	1
24	520	10	10000	5	1	0	5	1
24	520	10	10000	5	1	0	5	1
23	521	10	10000	5	1	0	5	1
23	523	10	10000	5	1	0	5	1
23	524	10	10000	5	1	0	5	1
21	525	10	10000	5	1	0	5	1
21	526	10	10000	5	1	0	5	1
21	527	10	10000	5	1	0	5	1
22	528	10	10000	5	1	0	5	1
23	529	10	10000	5	1	0	5	1
23	530	10	10000	5	1	0	5	1
24	530	10	10000	5	1	0	5	1
23	531	10	10000	5	1	0	5	1
24	533	10	10000	5	1	0	5	1
24	534	10	10000	5	1	0	5	1
27	535	10	10000	5	1	0	5	1
26	536	10	10000	5	1	0	5	1
25	537	10	10000	5	1	0	5	1
25	538	10	10000	5	1	0	5	1
24	539	10	10000	5	1	0	5	1
23	540	10	10000	5	1	0	5	1
22	540	10	10000	5	1	0	5	1
24	541	10	10000	5	1	0	5	1
26	543	10	10000	5	1	0	5	1
27	544	10	10000	5	1	0	5	1
25	545	10	10000	5	1	0	5	1
23	546	10	10000	5	1	0	5	1
23	547	10	10000	5	1	0	5	1
23	548	10	10000	5	1	0	5	1
23	549	10	10000	5	1	0	5	1
22	550	10	10000	5	1	0	5	1
22	550	10	10000	5	1	0	5	1
22	551	10	10000	5	1	0	5	1
20	553	10	10000	5	1	0	5	0
20	554	10	10000	5	1	0	5	0
22	555	10	10000	5	1	0	5	0
22	556	10	10000	5	1	0	5	0
21	557	10	10000	5	1	0	5	0
20	558	10	10000	5	1	0	5	0
21	559	10	10000	5	1	0	5	0
21	560	10	10000	5	1	0	5	0
21	560	10	10000	5	1	0	5	0
21	561	10	10000	5	1	0	5	0
21	563	10	10000	5	1	0	5	0
21	564	10	10000	5	1	0	5	0
20	565	10	10000	5	1	0	5	0
20	566	10	10000	5	1	0	5	0
21	567	10	10000	5	1	0	5	0
20	568	10	10000	5	1	0	5	0
20	569	10	10000	5	1	0	5	0
20	570	10	10000	5	1	0	5	0
20	570	10	10000	5	1	0	5	0
20	571	10	10000	5	1	0	5	0
20	573	10	10000	5	1	0	5	0
21	574	10	10000	5	1	0	5	0
24	575	10	10000	5	1	0	5	0
25	576	10	10000	5	1	0	5	0
23	577	10	10000	5	1	0	5	0
22	578	10	10000	5	1	0	5	0
22	579	10	10000	5	1	0	5	0
23	580	10	10000	5	1	0	5	0
21	580	10	10000	5	1	0	5	0
22	581	10	10000	5	1	0	5	0
22	583	10	10000	5	1	0	5	0
21	584	10	10000	5	1	0	5	0
19	585	10	10000	5	1	0	5	0
19	586	10	10000	5	1	0	5	0
20	587	10	10000	5	1	0	5	0
20	588	10	10000	5	1	0	5	0
19	589	10	10000	5	1	0	5	0
20	590	10	10000	5	1	0	5	0
20	590	10	10000	5	1	0	5	0
21	591	10	10000	5	1	0	5	0
21	593	10	10000	5	1	0	5	0
20	594	10	10000	5	1	0	5	0
23	595	10	10000	5	1	0	5	0
22	596	10	10000	5	1	0	5	0
22	597	10	10000	5	1	0	5	0
20	598	10	10000	5	1	0	5	0
21	599	10	10000	5	1	0	5	0
21	600	10	10000	5	1	0	5	0
21	600	10	10000	5	1	0	5	0
24	601	10	10000	5	1	0	5	0
26	603	10	10000	5	1	0	5	0
27	604	10	10000	5	1	0	5	0
24	605	10	10000	5	1	0	5	0
24	606	10	10000	5	1	0	5	0
24	607	10	10000	5	1	0	5	0
24	608	10	10000	5	1	0	5	0
27	609	10	10000	5	1	0	5	0
31	610	10	10000	5	1	0	5	0
33	610	10	10000	5	1	0	5	0
32	611	10	10000	5	1	0	5	0
40	613	10	10000	5	1	0	5	0
49	614	10	10000	5	1	0	5	0
53	615	10	10000	5	1	0	5	0
53	616	10	10000	5	1	0	5	0
58	617	10	10000	5	1	0	5	0
65	618	10	10000	5	1	0	5	0
70	619	10	10000	5	1	0	5	0
73	620	10	10000	5	1	0	5	0
71	620	10	10000	5	1	0	5	0
70	621	10	10000	5	1	0	5	0
73	623	10	10000	5	1	0	5	0
75	624	10	10000	5	1	0	5	0
75	625	10	10000	5	1	0	5	0
76	626	10	10000	5	1	0	5	0
76	627	10	10000	5	1	0	5	0
76	628	10	10000	5	1	0	5	0
73	629	10	10000	5	1	0	5	0
70	630	10	10000	5	1	0	5	0
68	630	10	10000	5	1	0	5	0
65	631	10	10000	5	1	0	5	0
63	633	10	10000	5	1	0	5	0
61	634	10	10000	5	1	0	5	0
62	635	10	10000	5	1	0	5	0
59	636	10	10000	5	1	0	5	0
56	637	10	10000	5	1	0	5	0
54	638	10	10000	5	1	0	5	0
53	639	10	10000	5	1	0	5	0
50	640	10	10000	5	1	0	5	0
48	640	10	10000	5	1	0	5	0
48	641	10	10000	5	1	0	5	0
46	643	10	10000	5	1	0	5	0
44	644	10	10000	5	1	0	5	0
42	645	10	10000	5	1	0	5	0
41	646	10	10000	5	1	0	5	0
40	647	10	10000	5	1	0	5	0
39	648	10	10000	5	1	0	5	0
40	649	10	10000	5	1	0	5	0
39	650	10	10000	5	1	0	5	0
38	650	10	10000	5	1	0	5	0
37	651	10	10000	5	1	0	5	0
36	653	10	10000	5	1	0	5	0
37	654	10	10000	5	1	0	5	0
39	655	10	10000	5	1	0	5	0
38	656	10	10000	5	1	0	5	0
37	657	10	10000	5	1	0	5	0
36	658	10	10000	5	1	0	5	0
35	659	10	10000	5	1	0	5	0
34	660	10	10000	5	1	0	5	0
33	660	10	10000	5	1	0	5	0
33	661	10	10000	5	1	0	5	0
33	663	10	10000	5	1	0	5	0
32	664	10	10000	5	1	0	5	0
30	665	10	10000	5	1	0	5	0
30	666	10	10000	5	1	0	5	0
30	667	10	10000	5	1	0	5	0
31	668	10	10000	5	1	0	5	0
33	669	10	10000	5	1	0	5	0
33	670	10	10000	5	1	0	5	0
33	670	10	10000	5	1	0	5	0
32	671	10	10000	5	1	0	5	0
32	673	10	10000	5	1	0	5	0
30	674	10	10000	5	1	0	5	0
31	675	10	10000	5	1	0	5	0
30	676	10	10000	5	1	0	5	0
30	677	10	10000	5	1	0	5	0
30	678	10	10000	5	1	0	5	0
30	679	10	10000	5	1	0	5	0
29	680	10	10000	5	1	0	5	0
28	680	10	10000	5	1	0	5	0
28	681	10	10000	5	1	0	5	0
28	683	10	10000	5	1	0	5	0
28	684	10	10000	5	1	0	5	0
25	685	10	10000	5	1	0	5	0
25	686	10	10000	5	1	0	5	0
25	687	10	10000	5	1	0	5	0
26	688	10	10000	5	1	0	5	0
26	689	10	10000	5	1	0	5	0
26	690	10	10000	5	1	0	5	0
26	690	10	10000	5	1	0	5	0
25	691	10	10000	5	1	0	5	0
25	693	10	10000	5	1	0	5	0
24	694	10	10000	5	1	0	5	0
26	695	10	10000	5	1	0	5	0
26	696	10	10000	5	1	0	5	0
26	697	10	10000	5	1	0	5	0
25	698	10	10000	5	1	0	5	0
24	699	10	10000	5	1	0	5	0
23	700	10	10000	5	1	0	5	0
24	700	10	10000	5	1	0	5	0
24	701	10	10000	5	1	0	5	0
24	703	10	10000	5	1	0	5	0
24	704	10	10000	5	1	0	5	0
21	705	10	10000	5	1	0	5	0
21	706	10	10000	5	1	0	5	0
21	707	10	10000	5	1	0	5	0
21	708	10	10000	5	1	0	5	0
20	709	10	10000	5	1	0	5	0
21	710	10	10000	5	1	0	5	0
23	710	10	10000	5	1	0	5	0
23	711	10	10000	5	1	0	5	0
24	713	10	10000	5	1	0	5	0
24	714	10	10000	5	1	0	5	0
27	715	10	10000	5	1	0	5	0
26	716	10	10000	5	1	0	5	0
25	717	10	10000	5	1	0	5	0
25	718	10	10000	5	1	0	5	0
24	719	10	10000	5	1	0	5	0
23	720	10	10000	5	1	0	5	0
23	720	10	10000	5	1	0	5	0
24	721	10	10000	5	1	0	5	0
24	723	10	10000	5	1	0	5	0
24	724	10	10000	5	1	0	5	0
22	725	10	10000	5	1	0	5	0
22	726	10	10000	5	1	0	5	0
23	727	10	10000	5	1	0	5	0
22	728	10	10000	5	1	0	5	0
23	729	10	10000	5	1	0	5	0
23	730	10	10000	5	1	0	5	0
24	730	10	10000	5	1	0	5	0
24	731	10	10000	5	1	0	5	0
24	733	10	10000	5	1	0	5	0
23	734	10	10000	5	1	0	5	0
25	735	10	10000	5	1	0	5	0
25	736	10	10000	5	1	0	5	0
23	737	10	10000	5	1	0	5	0
22	738	10	10000	5	1	0	5	0
22	739	10	10000	5	1	0	5	0
21	740	10	10000	5	1	0	5	0
20	740	10	10000	5	1	0	5	0
22	741	10	10000	5	1	0	5	0
22	743	10	10000	5	1	0	5	0
22	744	10	10000	5	1	0	5	0
20	745	10	10000	5	1	0	5	0
19	746	10	10000	5	1	0	5	0
19	747	10	10000	5	1	0	5	0
19	748	10	10000	5	1	0	5	0
19	749	10	10000	5	1	0	5	0
19	750	10	10000	5	1	0	5	0
19	750	10	10000	5	1	0	5	0
