value	EMG	Stimulus	EMG_sensitivity	Total_Trial_Nr	practise	acq	probe_nr	Startle_Probe
16	2	0	10000	1	1	0	1	0
16	3	0	10000	1	1	0	1	0
16	4	0	10000	1	1	0	1	0
17	5	0	10000	1	1	0	1	0
17	6	0	10000	1	1	0	1	0
16	7	0	10000	1	1	0	1	0
16	8	0	10000	1	1	0	1	0
17	9	0	10000	1	1	0	1	0
17	10	0	10000	1	1	0	1	0
17	11	0	10000	1	1	0	1	0
17	12	0	10000	1	1	0	1	0
16	13	0	10000	1	1	0	1	0
15	14	0	10000	1	1	0	1	0
14	15	0	10000	1	1	0	1	0
13	16	0	10000	1	1	0	1	0
15	17	0	10000	1	1	0	1	0
15	18	0	10000	1	1	0	1	0
15	19	0	10000	1	1	0	1	0
14	20	0	10000	1	1	0	1	0
13	21	0	10000	1	1	0	1	0
13	22	0	10000	1	1	0	1	0
14	23	0	10000	1	1	0	1	0
14	24	0	10000	1	1	0	1	0
14	25	0	10000	1	1	0	1	0
14	26	0	10000	1	1	0	1	0
14	27	0	10000	1	1	0	1	0
16	28	0	10000	1	1	0	1	0
17	29	0	10000	1	1	0	1	0
19	30	0	10000	1	1	0	1	0
20	31	0	10000	1	1	0	1	0
21	32	0	10000	1	1	0	1	0
22	33	0	10000	1	1	0	1	0
22	34	0	10000	1	1	0	1	0
22	35	0	10000	1	1	0	1	0
24	36	0	10000	1	1	0	1	0
29	37	0	10000	1	1	0	1	0
34	38	0	10000	1	1	0	1	0
38	39	0	10000	1	1	0	1	0
38	40	0	10000	1	1	0	1	0
37	41	0	10000	1	1	0	1	0
37	42	0	10000	1	1	0	1	0
37	43	0	10000	1	1	0	1	0
37	44	0	10000	1	1	0	1	0
37	45	0	10000	1	1	0	1	0
37	46	0	10000	1	1	0	1	0
35	47	0	10000	1	1	0	1	0
33	48	0	10000	1	1	0	1	0
33	49	0	10000	1	1	0	1	0
35	50	0	10000	1	1	0	1	0
33	51	0	10000	1	1	0	1	0
32	52	0	10000	1	1	0	1	0
30	53	0	10000	1	1	0	1	0
30	54	0	10000	1	1	0	1	0
29	55	0	10000	1	1	0	1	0
28	56	0	10000	1	1	0	1	0
29	57	0	10000	1	1	0	1	0
29	58	0	10000	1	1	0	1	0
30	59	0	10000	1	1	0	1	0
31	60	0	10000	1	1	0	1	0
32	61	0	10000	1	1	0	1	0
33	62	0	10000	1	1	0	1	0
34	63	0	10000	1	1	0	1	0
32	64	0	10000	1	1	0	1	0
31	65	0	10000	1	1	0	1	0
30	66	0	10000	1	1	0	1	0
28	67	0	10000	1	1	0	1	0
29	68	0	10000	1	1	0	1	0
30	69	0	10000	1	1	0	1	0
31	70	0	10000	1	1	0	1	0
30	71	0	10000	1	1	0	1	0
30	72	0	10000	1	1	0	1	0
29	73	0	10000	1	1	0	1	0
28	74	0	10000	1	1	0	1	0
29	75	0	10000	1	1	0	1	0
30	76	0	10000	1	1	0	1	0
31	77	0	10000	1	1	0	1	0
31	78	0	10000	1	1	0	1	0
31	79	0	10000	1	1	0	1	0
28	80	0	10000	1	1	0	1	0
30	81	0	10000	1	1	0	1	0
28	82	0	10000	1	1	0	1	0
27	83	0	10000	1	1	0	1	0
26	84	0	10000	1	1	0	1	0
26	85	0	10000	1	1	0	1	0
25	86	0	10000	1	1	0	1	0
23	87	0	10000	1	1	0	1	0
22	88	0	10000	1	1	0	1	0
21	89	0	10000	1	1	0	1	0
24	90	0	10000	1	1	0	1	0
23	91	0	10000	1	1	0	1	0
24	92	0	10000	1	1	0	1	0
22	93	0	10000	1	1	0	1	0
21	94	0	10000	1	1	0	1	0
21	95	0	10000	1	1	0	1	0
20	96	0	10000	1	1	0	1	0
21	97	0	10000	1	1	0	1	0
22	98	0	10000	1	1	0	1	0
22	99	0	10000	1	1	0	1	0
21	100	0	10000	1	1	0	1	0
23	101	0	10000	1	1	0	1	0
25	102	0	10000	1	1	0	1	0
26	103	0	10000	1	1	0	1	0
26	104	0	10000	1	1	0	1	0
26	105	0	10000	1	1	0	1	0
26	106	0	10000	1	1	0	1	0
25	107	0	10000	1	1	0	1	0
24	108	0	10000	1	1	0	1	0
24	109	0	10000	1	1	0	1	0
27	110	0	10000	1	1	0	1	0
28	111	0	10000	1	1	0	1	0
28	112	0	10000	1	1	0	1	0
27	113	0	10000	1	1	0	1	0
28	114	0	10000	1	1	0	1	0
27	115	0	10000	1	1	0	1	0
26	116	0	10000	1	1	0	1	0
25	117	0	10000	1	1	0	1	0
25	118	0	10000	1	1	0	1	0
24	119	0	10000	1	1	0	1	0
22	120	0	10000	1	1	0	1	0
21	121	0	10000	1	1	0	1	0
21	122	0	10000	1	1	0	1	0
21	123	0	10000	1	1	0	1	0
20	124	0	10000	1	1	0	1	0
19	125	0	10000	1	1	0	1	0
19	126	0	10000	1	1	0	1	0
19	127	0	10000	1	1	0	1	0
18	128	0	10000	1	1	0	1	0
17	129	0	10000	1	1	0	1	0
20	130	0	10000	1	1	0	1	0
19	131	0	10000	1	1	0	1	0
19	132	0	10000	1	1	0	1	0
20	133	0	10000	1	1	0	1	0
20	134	0	10000	1	1	0	1	0
19	135	0	10000	1	1	0	1	0
19	136	0	10000	1	1	0	1	0
19	137	0	10000	1	1	0	1	0
20	138	0	10000	1	1	0	1	0
21	139	0	10000	1	1	0	1	0
20	140	0	10000	1	1	0	1	0
19	141	0	10000	1	1	0	1	0
21	142	0	10000	1	1	0	1	0
22	143	0	10000	1	1	0	1	0
24	144	0	10000	1	1	0	1	0
26	145	0	10000	1	1	0	1	0
27	146	0	10000	1	1	0	1	0
25	147	0	10000	1	1	0	1	0
25	148	0	10000	1	1	0	1	0
24	149	0	10000	1	1	0	1	0
26	150	0	10000	1	1	0	1	0
25	151	0	10000	1	1	0	1	0
25	152	0	10000	1	1	0	1	0
24	153	0	10000	1	1	0	1	0
23	154	0	10000	1	1	0	1	0
23	155	0	10000	1	1	0	1	0
24	156	0	10000	1	1	0	1	0
25	157	0	10000	1	1	0	1	0
24	158	0	10000	1	1	0	1	0
24	159	0	10000	1	1	0	1	0
21	160	0	10000	1	1	0	1	0
22	161	0	10000	1	1	0	1	0
23	162	0	10000	1	1	0	1	0
22	163	0	10000	1	1	0	1	0
21	164	0	10000	1	1	0	1	0
21	165	0	10000	1	1	0	1	0
20	166	0	10000	1	1	0	1	0
19	167	0	10000	1	1	0	1	0
18	168	0	10000	1	1	0	1	0
19	169	0	10000	1	1	0	1	0
20	170	0	10000	1	1	0	1	0
22	171	0	10000	1	1	0	1	0
21	172	0	10000	1	1	0	1	0
20	173	0	10000	1	1	0	1	0
20	174	0	10000	1	1	0	1	0
21	175	0	10000	1	1	0	1	0
21	176	0	10000	1	1	0	1	0
24	177	0	10000	1	1	0	1	0
25	178	0	10000	1	1	0	1	0
27	179	0	10000	1	1	0	1	0
25	180	0	10000	1	1	0	1	0
24	181	0	10000	1	1	0	1	0
24	182	0	10000	1	1	0	1	0
23	183	0	10000	1	1	0	1	0
24	184	0	10000	1	1	0	1	0
24	185	0	10000	1	1	0	1	0
22	186	0	10000	1	1	0	1	0
21	187	0	10000	1	1	0	1	0
20	188	0	10000	1	1	0	1	0
20	189	0	10000	1	1	0	1	0
21	190	0	10000	1	1	0	1	0
21	191	0	10000	1	1	0	1	0
21	192	0	10000	1	1	0	1	0
22	193	0	10000	1	1	0	1	0
22	194	0	10000	1	1	0	1	0
21	195	0	10000	1	1	0	1	0
20	196	0	10000	1	1	0	1	0
21	197	0	10000	1	1	0	1	0
20	198	0	10000	1	1	0	1	0
20	199	0	10000	1	1	0	1	0
18	200	0	10000	1	1	0	1	0
18	201	0	10000	1	1	0	1	0
18	202	0	10000	1	1	0	1	0
18	203	0	10000	1	1	0	1	0
18	204	0	10000	1	1	0	1	0
18	205	0	10000	1	1	0	1	0
18	206	0	10000	1	1	0	1	0
17	207	0	10000	1	1	0	1	0
16	208	0	10000	1	1	0	1	0
16	209	0	10000	1	1	0	1	0
17	210	0	10000	1	1	0	1	0
17	211	0	10000	1	1	0	1	0
16	212	0	10000	1	1	0	1	0
18	213	0	10000	1	1	0	1	0
19	214	0	10000	1	1	0	1	0
18	215	0	10000	1	1	0	1	0
20	216	0	10000	1	1	0	1	0
20	217	0	10000	1	1	0	1	0
20	218	0	10000	1	1	0	1	0
20	219	0	10000	1	1	0	1	0
18	220	0	10000	1	1	0	1	0
18	221	0	10000	1	1	0	1	0
18	222	0	10000	1	1	0	1	0
19	223	0	10000	1	1	0	1	0
20	224	0	10000	1	1	0	1	0
21	225	0	10000	1	1	0	1	0
21	226	0	10000	1	1	0	1	0
20	227	0	10000	1	1	0	1	0
21	228	0	10000	1	1	0	1	0
22	229	0	10000	1	1	0	1	0
25	230	0	10000	1	1	0	1	0
25	231	0	10000	1	1	0	1	0
24	232	0	10000	1	1	0	1	0
23	233	0	10000	1	1	0	1	0
23	234	0	10000	1	1	0	1	0
22	235	0	10000	1	1	0	1	0
21	236	0	10000	1	1	0	1	0
23	237	0	10000	1	1	0	1	0
24	238	0	10000	1	1	0	1	0
24	239	0	10000	1	1	0	1	0
22	240	0	10000	1	1	0	1	0
21	241	0	10000	1	1	0	1	0
20	242	0	10000	1	1	0	1	0
20	243	0	10000	1	1	0	1	0
20	244	0	10000	1	1	0	1	0
20	245	0	10000	1	1	0	1	0
20	246	0	10000	1	1	0	1	0
18	247	0	10000	1	1	0	1	0
17	248	0	10000	1	1	0	1	0
16	249	0	10000	1	1	0	1	0
19	250	0	10000	1	1	0	1	0
17	251	0	10000	1	1	0	1	0
17	252	0	10000	1	1	0	1	0
16	253	0	10000	1	1	0	1	0
16	254	0	10000	1	1	0	1	0
18	255	0	10000	1	1	0	1	0
20	256	0	10000	1	1	0	1	0
21	257	0	10000	1	1	0	1	0
20	258	0	10000	1	1	0	1	0
20	259	0	10000	1	1	0	1	0
18	260	0	10000	1	1	0	1	0
17	261	0	10000	1	1	0	1	0
18	262	0	10000	1	1	0	1	0
17	263	0	10000	1	1	0	1	0
18	264	0	10000	1	1	0	1	0
20	265	0	10000	1	1	0	1	0
21	266	0	10000	1	1	0	1	0
23	267	0	10000	1	1	0	1	0
26	268	0	10000	1	1	0	1	0
26	269	0	10000	1	1	0	1	0
29	270	0	10000	1	1	0	1	0
27	271	0	10000	1	1	0	1	0
26	272	0	10000	1	1	0	1	0
26	273	0	10000	1	1	0	1	0
26	274	0	10000	1	1	0	1	0
27	275	0	10000	1	1	0	1	0
26	276	0	10000	1	1	0	1	0
26	277	0	10000	1	1	0	1	0
25	278	0	10000	1	1	0	1	0
24	279	0	10000	1	1	0	1	0
22	280	0	10000	1	1	0	1	0
22	281	0	10000	1	1	0	1	0
22	282	0	10000	1	1	0	1	0
22	283	0	10000	1	1	0	1	0
21	284	0	10000	1	1	0	1	0
23	285	0	10000	1	1	0	1	0
25	286	0	10000	1	1	0	1	0
25	287	0	10000	1	1	0	1	0
26	288	0	10000	1	1	0	1	0
27	289	0	10000	1	1	0	1	0
28	290	0	10000	1	1	0	1	0
28	291	0	10000	1	1	0	1	0
28	292	0	10000	1	1	0	1	0
26	293	0	10000	1	1	0	1	0
26	294	0	10000	1	1	0	1	0
26	295	0	10000	1	1	0	1	0
25	296	0	10000	1	1	0	1	0
25	297	0	10000	1	1	0	1	0
26	298	0	10000	1	1	0	1	0
24	299	0	10000	1	1	0	1	0
23	300	0	10000	1	1	0	1	0
22	301	0	10000	1	1	0	1	0
21	302	0	10000	1	1	0	1	0
21	303	0	10000	1	1	0	1	0
21	304	0	10000	1	1	0	1	0
21	305	0	10000	1	1	0	1	0
21	306	0	10000	1	1	0	1	0
22	307	0	10000	1	1	0	1	0
21	308	0	10000	1	1	0	1	0
20	309	0	10000	1	1	0	1	0
21	310	0	10000	1	1	0	1	0
22	311	0	10000	1	1	0	1	0
21	312	0	10000	1	1	0	1	0
19	313	0	10000	1	1	0	1	0
19	314	0	10000	1	1	0	1	0
19	315	0	10000	1	1	0	1	0
19	316	0	10000	1	1	0	1	0
20	317	0	10000	1	1	0	1	0
20	318	0	10000	1	1	0	1	0
21	319	0	10000	1	1	0	1	0
20	320	0	10000	1	1	0	1	0
20	321	0	10000	1	1	0	1	0
20	322	0	10000	1	1	0	1	0
19	323	0	10000	1	1	0	1	0
19	324	0	10000	1	1	0	1	0
18	325	0	10000	1	1	0	1	0
19	326	0	10000	1	1	0	1	0
18	327	0	10000	1	1	0	1	0
17	328	0	10000	1	1	0	1	0
17	329	0	10000	1	1	0	1	0
19	330	0	10000	1	1	0	1	0
18	331	0	10000	1	1	0	1	0
17	332	0	10000	1	1	0	1	0
16	333	0	10000	1	1	0	1	0
15	334	0	10000	1	1	0	1	0
16	335	0	10000	1	1	0	1	0
15	336	0	10000	1	1	0	1	0
15	337	0	10000	1	1	0	1	0
17	338	0	10000	1	1	0	1	0
16	339	0	10000	1	1	0	1	0
13	340	0	10000	1	1	0	1	0
14	341	0	10000	1	1	0	1	0
15	342	0	10000	1	1	0	1	0
16	343	0	10000	1	1	0	1	0
17	344	0	10000	1	1	0	1	0
18	345	0	10000	1	1	0	1	0
18	346	0	10000	1	1	0	1	0
17	347	0	10000	1	1	0	1	0
17	348	0	10000	1	1	0	1	0
16	349	0	10000	1	1	0	1	0
19	350	0	10000	1	1	0	1	0
19	351	0	10000	1	1	0	1	0
20	352	0	10000	1	1	0	1	0
20	353	0	10000	1	1	0	1	0
20	354	0	10000	1	1	0	1	0
19	355	0	10000	1	1	0	1	0
19	356	0	10000	1	1	0	1	0
20	357	0	10000	1	1	0	1	0
20	358	0	10000	1	1	0	1	0
21	359	0	10000	1	1	0	1	0
19	360	0	10000	1	1	0	1	0
19	361	0	10000	1	1	0	1	0
18	362	0	10000	1	1	0	1	0
19	363	0	10000	1	1	0	1	0
19	364	0	10000	1	1	0	1	0
20	365	0	10000	1	1	0	1	0
22	366	0	10000	1	1	0	1	0
23	367	0	10000	1	1	0	1	0
23	368	0	10000	1	1	0	1	0
23	369	0	10000	1	1	0	1	0
25	370	0	10000	1	1	0	1	0
24	371	0	10000	1	1	0	1	0
23	372	0	10000	1	1	0	1	0
22	373	0	10000	1	1	0	1	0
22	374	0	10000	1	1	0	1	0
24	375	0	10000	1	1	0	1	0
24	376	0	10000	1	1	0	1	0
25	377	0	10000	1	1	0	1	0
27	378	0	10000	1	1	0	1	0
26	379	0	10000	1	1	0	1	0
23	380	0	10000	1	1	0	1	0
25	381	0	10000	1	1	0	1	0
26	382	0	10000	1	1	0	1	0
28	383	0	10000	1	1	0	1	0
29	384	0	10000	1	1	0	1	0
28	385	0	10000	1	1	0	1	0
28	386	0	10000	1	1	0	1	0
27	387	0	10000	1	1	0	1	0
26	388	0	10000	1	1	0	1	0
25	389	0	10000	1	1	0	1	0
27	390	0	10000	1	1	0	1	0
26	391	0	10000	1	1	0	1	0
25	392	0	10000	1	1	0	1	0
24	393	0	10000	1	1	0	1	0
23	394	0	10000	1	1	0	1	0
22	395	0	10000	1	1	0	1	0
22	396	0	10000	1	1	0	1	0
22	397	0	10000	1	1	0	1	0
21	398	0	10000	1	1	0	1	0
21	399	0	10000	1	1	0	1	0
19	400	0	10000	1	1	0	1	0
19	401	0	10000	1	1	0	1	0
19	402	0	10000	1	1	0	1	0
20	403	0	10000	1	1	0	1	0
21	404	0	10000	1	1	0	1	0
22	405	0	10000	1	1	0	1	0
22	406	0	10000	1	1	0	1	0
22	407	0	10000	1	1	0	1	0
21	408	0	10000	1	1	0	1	0
21	409	0	10000	1	1	0	1	0
24	410	0	10000	1	1	0	1	0
23	411	0	10000	1	1	0	1	0
22	412	0	10000	1	1	0	1	0
21	413	0	10000	1	1	0	1	0
21	414	0	10000	1	1	0	1	0
20	415	0	10000	1	1	0	1	0
20	416	0	10000	1	1	0	1	0
20	417	0	10000	1	1	0	1	0
20	418	0	10000	1	1	0	1	0
20	419	0	10000	1	1	0	1	0
17	420	0	10000	1	1	0	1	0
18	421	0	10000	1	1	0	1	0
18	422	0	10000	1	1	0	1	0
19	423	0	10000	1	1	0	1	0
20	424	0	10000	1	1	0	1	0
21	425	0	10000	1	1	0	1	0
21	426	0	10000	1	1	0	1	0
20	427	0	10000	1	1	0	1	0
20	428	0	10000	1	1	0	1	0
19	429	0	10000	1	1	0	1	0
21	430	0	10000	1	1	0	1	0
21	431	0	10000	1	1	0	1	0
20	432	0	10000	1	1	0	1	0
21	433	0	10000	1	1	0	1	0
20	434	0	10000	1	1	0	1	0
20	435	0	10000	1	1	0	1	0
20	436	0	10000	1	1	0	1	0
20	437	0	10000	1	1	0	1	0
20	438	0	10000	1	1	0	1	0
20	439	0	10000	1	1	0	1	0
17	440	0	10000	1	1	0	1	0
18	441	0	10000	1	1	0	1	0
20	442	0	10000	1	1	0	1	0
20	443	0	10000	1	1	0	1	0
22	444	0	10000	1	1	0	1	0
22	445	0	10000	1	1	0	1	0
22	446	0	10000	1	1	0	1	0
20	447	0	10000	1	1	0	1	0
19	448	0	10000	1	1	0	1	0
18	449	0	10000	1	1	0	1	0
20	450	0	10000	1	1	0	1	0
19	451	0	10000	1	1	0	1	0
18	452	0	10000	1	1	0	1	0
18	453	0	10000	1	1	0	1	0
19	454	0	10000	1	1	0	1	0
18	455	0	10000	1	1	0	1	0
18	456	0	10000	1	1	0	1	0
19	457	0	10000	1	1	0	1	0
20	458	0	10000	1	1	0	1	0
22	459	0	10000	1	1	0	1	0
20	460	0	10000	1	1	0	1	0
19	461	0	10000	1	1	0	1	0
19	462	0	10000	1	1	0	1	0
18	463	0	10000	1	1	0	1	0
18	464	0	10000	1	1	0	1	0
18	465	0	10000	1	1	0	1	0
18	466	0	10000	1	1	0	1	0
19	467	0	10000	1	1	0	1	0
18	468	0	10000	1	1	0	1	0
18	469	0	10000	1	1	0	1	0
20	470	0	10000	1	1	0	1	0
21	471	0	10000	1	1	0	1	0
23	472	0	10000	1	1	0	1	0
21	473	0	10000	1	1	0	1	0
21	474	0	10000	1	1	0	1	0
22	475	0	10000	1	1	0	1	0
22	476	0	10000	1	1	0	1	0
22	477	0	10000	1	1	0	1	0
22	478	0	10000	1	1	0	1	0
21	479	0	10000	1	1	0	1	0
19	480	0	10000	1	1	0	1	0
19	481	0	10000	1	1	0	1	0
20	482	0	10000	1	1	0	1	0
21	483	0	10000	1	1	0	1	0
21	484	0	10000	1	1	0	1	0
21	485	0	10000	1	1	0	1	0
21	486	0	10000	1	1	0	1	0
22	487	0	10000	1	1	0	1	0
22	488	0	10000	1	1	0	1	0
22	489	0	10000	1	1	0	1	0
23	490	0	10000	1	1	0	1	0
23	491	0	10000	1	1	0	1	0
21	492	0	10000	1	1	0	1	0
20	493	0	10000	1	1	0	1	0
20	494	0	10000	1	1	0	1	0
20	495	0	10000	1	1	0	1	0
21	496	0	10000	1	1	0	1	0
23	497	0	10000	1	1	0	1	0
24	498	0	10000	1	1	0	1	0
24	499	0	10000	1	1	0	1	0
22	500	0	10000	1	1	0	1	0
21	501	0	10000	1	1	0	1	0
21	552	0	10000	1	1	0	1	1
21	553	0	10000	1	1	0	1	1
21	554	0	10000	1	1	0	1	1
21	555	0	10000	1	1	0	1	1
20	556	0	10000	1	1	0	1	1
20	557	0	10000	1	1	0	1	1
20	558	0	10000	1	1	0	1	1
19	559	0	10000	1	1	0	1	1
20	560	0	10000	1	1	0	1	1
20	561	0	10000	1	1	0	1	1
19	562	0	10000	1	1	0	1	1
19	563	0	10000	1	1	0	1	1
18	564	0	10000	1	1	0	1	1
19	565	0	10000	1	1	0	1	1
18	566	0	10000	1	1	0	1	1
18	567	0	10000	1	1	0	1	1
18	568	0	10000	1	1	0	1	1
20	569	0	10000	1	1	0	1	1
17	570	0	10000	1	1	0	1	1
17	571	0	10000	1	1	0	1	1
17	572	0	10000	1	1	0	1	1
16	573	0	10000	1	1	0	1	1
16	574	0	10000	1	1	0	1	1
16	575	0	10000	1	1	0	1	1
16	576	0	10000	1	1	0	1	1
14	577	0	10000	1	1	0	1	1
14	578	0	10000	1	1	0	1	1
13	579	0	10000	1	1	0	1	1
14	580	0	10000	1	1	0	1	1
16	581	0	10000	1	1	0	1	1
14	582	0	10000	1	1	0	1	1
13	583	0	10000	1	1	0	1	1
15	584	0	10000	1	1	0	1	1
15	585	0	10000	1	1	0	1	1
15	586	0	10000	1	1	0	1	1
17	587	0	10000	1	1	0	1	1
17	588	0	10000	1	1	0	1	1
19	589	0	10000	1	1	0	1	1
19	590	0	10000	1	1	0	1	1
18	591	0	10000	1	1	0	1	1
17	592	0	10000	1	1	0	1	1
17	593	0	10000	1	1	0	1	1
17	594	0	10000	1	1	0	1	1
17	595	0	10000	1	1	0	1	1
17	596	0	10000	1	1	0	1	1
17	597	0	10000	1	1	0	1	1
16	598	0	10000	1	1	0	1	1
16	599	0	10000	1	1	0	1	1
18	600	0	10000	1	1	0	1	1
19	601	0	10000	1	1	0	1	1
19	602	0	10000	1	1	0	1	1
20	603	0	10000	1	1	0	1	1
20	557	0	10000	1	1	0	1	0
19	558	0	10000	1	1	0	1	0
19	559	0	10000	1	1	0	1	0
20	560	0	10000	1	1	0	1	0
21	558	0	10000	1	1	0	1	0
22	559	0	10000	1	1	0	1	0
20	560	0	10000	1	1	0	1	0
20	561	0	10000	1	1	0	1	0
20	562	0	10000	1	1	0	1	0
19	563	0	10000	1	1	0	1	0
19	564	0	10000	1	1	0	1	0
19	565	0	10000	1	1	0	1	0
19	566	0	10000	1	1	0	1	0
18	567	0	10000	1	1	0	1	0
18	568	0	10000	1	1	0	1	0
17	569	0	10000	1	1	0	1	0
18	570	0	10000	1	1	0	1	0
18	571	0	10000	1	1	0	1	0
16	572	0	10000	1	1	0	1	0
16	573	0	10000	1	1	0	1	0
16	574	0	10000	1	1	0	1	0
16	575	0	10000	1	1	0	1	0
16	576	0	10000	1	1	0	1	0
16	577	0	10000	1	1	0	1	0
16	578	0	10000	1	1	0	1	0
16	579	0	10000	1	1	0	1	0
13	580	0	10000	1	1	0	1	0
13	581	0	10000	1	1	0	1	0
13	582	0	10000	1	1	0	1	0
12	583	0	10000	1	1	0	1	0
13	584	0	10000	1	1	0	1	0
16	585	0	10000	1	1	0	1	0
21	586	0	10000	1	1	0	1	0
22	587	0	10000	1	1	0	1	0
25	588	0	10000	1	1	0	1	0
26	589	0	10000	1	1	0	1	0
26	590	0	10000	1	1	0	1	0
27	591	0	10000	1	1	0	1	0
28	592	0	10000	1	1	0	1	0
28	593	0	10000	1	1	0	1	0
28	594	0	10000	1	1	0	1	0
29	595	0	10000	1	1	0	1	0
28	596	0	10000	1	1	0	1	0
27	597	0	10000	1	1	0	1	0
27	598	0	10000	1	1	0	1	0
27	599	0	10000	1	1	0	1	0
26	600	0	10000	1	1	0	1	0
25	601	0	10000	1	1	0	1	0
25	602	0	10000	1	1	0	1	0
28	603	0	10000	1	1	0	1	0
29	604	0	10000	1	1	0	1	0
32	605	0	10000	1	1	0	1	0
33	606	0	10000	1	1	0	1	0
32	607	0	10000	1	1	0	1	0
31	608	0	10000	1	1	0	1	0
30	609	0	10000	1	1	0	1	0
33	610	0	10000	1	1	0	1	0
36	611	0	10000	1	1	0	1	0
40	612	0	10000	1	1	0	1	0
44	613	0	10000	1	1	0	1	0
45	614	0	10000	1	1	0	1	0
45	615	0	10000	1	1	0	1	0
44	616	0	10000	1	1	0	1	0
44	617	0	10000	1	1	0	1	0
44	618	0	10000	1	1	0	1	0
43	619	0	10000	1	1	0	1	0
39	620	0	10000	1	1	0	1	0
38	621	0	10000	1	1	0	1	0
38	622	0	10000	1	1	0	1	0
39	623	0	10000	1	1	0	1	0
40	624	0	10000	1	1	0	1	0
40	625	0	10000	1	1	0	1	0
41	626	0	10000	1	1	0	1	0
39	627	0	10000	1	1	0	1	0
37	628	0	10000	1	1	0	1	0
37	629	0	10000	1	1	0	1	0
40	630	0	10000	1	1	0	1	0
41	631	0	10000	1	1	0	1	0
40	632	0	10000	1	1	0	1	0
39	633	0	10000	1	1	0	1	0
39	634	0	10000	1	1	0	1	0
38	635	0	10000	1	1	0	1	0
36	636	0	10000	1	1	0	1	0
35	637	0	10000	1	1	0	1	0
34	638	0	10000	1	1	0	1	0
34	639	0	10000	1	1	0	1	0
31	640	0	10000	1	1	0	1	0
31	641	0	10000	1	1	0	1	0
31	642	0	10000	1	1	0	1	0
30	643	0	10000	1	1	0	1	0
31	644	0	10000	1	1	0	1	0
33	645	0	10000	1	1	0	1	0
37	646	0	10000	1	1	0	1	0
41	647	0	10000	1	1	0	1	0
43	648	0	10000	1	1	0	1	0
46	649	0	10000	1	1	0	1	0
52	650	0	10000	1	1	0	1	0
52	651	0	10000	1	1	0	1	0
50	652	0	10000	1	1	0	1	0
54	653	0	10000	1	1	0	1	0
56	654	0	10000	1	1	0	1	0
56	655	0	10000	1	1	0	1	0
64	656	0	10000	1	1	0	1	0
87	657	0	10000	1	1	0	1	0
107	658	0	10000	1	1	0	1	0
115	659	0	10000	1	1	0	1	0
117	660	0	10000	1	1	0	1	0
128	661	0	10000	1	1	0	1	0
128	662	0	10000	1	1	0	1	0
139	663	0	10000	1	1	0	1	0
154	664	0	10000	1	1	0	1	0
172	665	0	10000	1	1	0	1	0
175	666	0	10000	1	1	0	1	0
194	667	0	10000	1	1	0	1	0
249	668	0	10000	1	1	0	1	0
293	669	0	10000	1	1	0	1	0
294	670	0	10000	1	1	0	1	0
315	671	0	10000	1	1	0	1	0
350	672	0	10000	1	1	0	1	0
381	673	0	10000	1	1	0	1	0
402	674	0	10000	1	1	0	1	0
415	675	0	10000	1	1	0	1	0
415	676	0	10000	1	1	0	1	0
407	677	0	10000	1	1	0	1	0
392	678	0	10000	1	1	0	1	0
375	679	0	10000	1	1	0	1	0
360	680	0	10000	1	1	0	1	0
349	681	0	10000	1	1	0	1	0
341	682	0	10000	1	1	0	1	0
336	683	0	10000	1	1	0	1	0
332	684	0	10000	1	1	0	1	0
344	685	0	10000	1	1	0	1	0
376	686	0	10000	1	1	0	1	0
387	687	0	10000	1	1	0	1	0
375	688	0	10000	1	1	0	1	0
372	689	0	10000	1	1	0	1	0
371	690	0	10000	1	1	0	1	0
361	691	0	10000	1	1	0	1	0
347	692	0	10000	1	1	0	1	0
331	693	0	10000	1	1	0	1	0
318	694	0	10000	1	1	0	1	0
309	695	0	10000	1	1	0	1	0
301	696	0	10000	1	1	0	1	0
295	697	0	10000	1	1	0	1	0
288	698	0	10000	1	1	0	1	0
279	699	0	10000	1	1	0	1	0
264	700	0	10000	1	1	0	1	0
253	701	0	10000	1	1	0	1	0
246	702	0	10000	1	1	0	1	0
239	703	0	10000	1	1	0	1	0
233	704	0	10000	1	1	0	1	0
229	705	0	10000	1	1	0	1	0
225	706	0	10000	1	1	0	1	0
220	707	0	10000	1	1	0	1	0
213	708	0	10000	1	1	0	1	0
206	709	0	10000	1	1	0	1	0
200	710	0	10000	1	1	0	1	0
192	711	0	10000	1	1	0	1	0
184	712	0	10000	1	1	0	1	0
175	713	0	10000	1	1	0	1	0
166	714	0	10000	1	1	0	1	0
159	715	0	10000	1	1	0	1	0
156	716	0	10000	1	1	0	1	0
152	717	0	10000	1	1	0	1	0
152	718	0	10000	1	1	0	1	0
153	719	0	10000	1	1	0	1	0
148	720	0	10000	1	1	0	1	0
146	721	0	10000	1	1	0	1	0
142	722	0	10000	1	1	0	1	0
138	723	0	10000	1	1	0	1	0
135	724	0	10000	1	1	0	1	0
135	725	0	10000	1	1	0	1	0
134	726	0	10000	1	1	0	1	0
133	727	0	10000	1	1	0	1	0
135	728	0	10000	1	1	0	1	0
134	729	0	10000	1	1	0	1	0
133	730	0	10000	1	1	0	1	0
130	731	0	10000	1	1	0	1	0
125	732	0	10000	1	1	0	1	0
119	733	0	10000	1	1	0	1	0
114	734	0	10000	1	1	0	1	0
109	735	0	10000	1	1	0	1	0
105	736	0	10000	1	1	0	1	0
103	737	0	10000	1	1	0	1	0
102	738	0	10000	1	1	0	1	0
100	739	0	10000	1	1	0	1	0
99	740	0	10000	1	1	0	1	0
100	741	0	10000	1	1	0	1	0
100	742	0	10000	1	1	0	1	0
102	743	0	10000	1	1	0	1	0
104	744	0	10000	1	1	0	1	0
107	745	0	10000	1	1	0	1	0
104	746	0	10000	1	1	0	1	0
100	747	0	10000	1	1	0	1	0
99	748	0	10000	1	1	0	1	0
98	749	0	10000	1	1	0	1	0
100	750	0	10000	1	1	0	1	0
100	751	0	10000	1	1	0	1	0
98	752	0	10000	1	1	0	1	0
96	753	0	10000	1	1	0	1	0
97	754	0	10000	1	1	0	1	0
97	755	0	10000	1	1	0	1	0
96	756	0	10000	1	1	0	1	0
95	757	0	10000	1	1	0	1	0
91	758	0	10000	1	1	0	1	0
87	759	0	10000	1	1	0	1	0
82	760	0	10000	1	1	0	1	0
81	761	0	10000	1	1	0	1	0
80	762	0	10000	1	1	0	1	0
77	763	0	10000	1	1	0	1	0
76	764	0	10000	1	1	0	1	0
76	765	0	10000	1	1	0	1	0
78	766	0	10000	1	1	0	1	0
77	767	0	10000	1	1	0	1	0
75	768	0	10000	1	1	0	1	0
72	769	0	10000	1	1	0	1	0
70	770	0	10000	1	1	0	1	0
68	771	0	10000	1	1	0	1	0
66	772	0	10000	1	1	0	1	0
63	773	0	10000	1	1	0	1	0
60	774	0	10000	1	1	0	1	0
58	775	0	10000	1	1	0	1	0
56	776	0	10000	1	1	0	1	0
55	777	0	10000	1	1	0	1	0
55	778	0	10000	1	1	0	1	0
55	779	0	10000	1	1	0	1	0
54	780	0	10000	1	1	0	1	0
56	781	0	10000	1	1	0	1	0
58	782	0	10000	1	1	0	1	0
61	783	0	10000	1	1	0	1	0
62	784	0	10000	1	1	0	1	0
61	785	0	10000	1	1	0	1	0
58	786	0	10000	1	1	0	1	0
56	787	0	10000	1	1	0	1	0
53	788	0	10000	1	1	0	1	0
51	789	0	10000	1	1	0	1	0
52	790	0	10000	1	1	0	1	0
51	791	0	10000	1	1	0	1	0
50	792	0	10000	1	1	0	1	0
48	793	0	10000	1	1	0	1	0
50	794	0	10000	1	1	0	1	0
50	795	0	10000	1	1	0	1	0
50	796	0	10000	1	1	0	1	0
54	797	0	10000	1	1	0	1	0
53	798	0	10000	1	1	0	1	0
53	799	0	10000	1	1	0	1	0
51	800	0	10000	1	1	0	1	0
47	801	0	10000	1	1	0	1	0
46	802	0	10000	1	1	0	1	0
44	803	0	10000	1	1	0	1	0
42	804	0	10000	1	1	0	1	0
41	805	0	10000	1	1	0	1	0
41	806	0	10000	1	1	0	1	0
41	807	0	10000	1	1	0	1	0
42	808	0	10000	1	1	0	1	0
42	809	0	10000	1	1	0	1	0
45	810	0	10000	1	1	0	1	0
49	811	0	10000	1	1	0	1	0
53	812	0	10000	1	1	0	1	0
57	813	0	10000	1	1	0	1	0
61	814	0	10000	1	1	0	1	0
64	815	0	10000	1	1	0	1	0
68	816	0	10000	1	1	0	1	0
71	817	0	10000	1	1	0	1	0
75	818	0	10000	1	1	0	1	0
78	819	0	10000	1	1	0	1	0
75	820	0	10000	1	1	0	1	0
75	821	0	10000	1	1	0	1	0
74	822	0	10000	1	1	0	1	0
72	823	0	10000	1	1	0	1	0
71	824	0	10000	1	1	0	1	0
71	825	0	10000	1	1	0	1	0
71	826	0	10000	1	1	0	1	0
70	827	0	10000	1	1	0	1	0
71	828	0	10000	1	1	0	1	0
72	829	0	10000	1	1	0	1	0
74	830	0	10000	1	1	0	1	0
75	831	0	10000	1	1	0	1	0
75	832	0	10000	1	1	0	1	0
73	833	0	10000	1	1	0	1	0
72	834	0	10000	1	1	0	1	0
71	835	0	10000	1	1	0	1	0
70	836	0	10000	1	1	0	1	0
72	837	0	10000	1	1	0	1	0
73	838	0	10000	1	1	0	1	0
71	839	0	10000	1	1	0	1	0
67	840	0	10000	1	1	0	1	0
63	841	0	10000	1	1	0	1	0
62	842	0	10000	1	1	0	1	0
61	843	0	10000	1	1	0	1	0
58	844	0	10000	1	1	0	1	0
57	845	0	10000	1	1	0	1	0
57	846	0	10000	1	1	0	1	0
55	847	0	10000	1	1	0	1	0
54	848	0	10000	1	1	0	1	0
54	849	0	10000	1	1	0	1	0
53	850	0	10000	1	1	0	1	0
51	851	0	10000	1	1	0	1	0
51	852	0	10000	1	1	0	1	0
52	853	0	10000	1	1	0	1	0
50	854	0	10000	1	1	0	1	0
51	855	0	10000	1	1	0	1	0
52	856	0	10000	1	1	0	1	0
52	857	0	10000	1	1	0	1	0
51	858	0	10000	1	1	0	1	0
49	859	0	10000	1	1	0	1	0
47	860	0	10000	1	1	0	1	0
47	861	0	10000	1	1	0	1	0
48	862	0	10000	1	1	0	1	0
48	863	0	10000	1	1	0	1	0
52	864	0	10000	1	1	0	1	0
54	865	0	10000	1	1	0	1	0
53	866	0	10000	1	1	0	1	0
50	867	0	10000	1	1	0	1	0
49	868	0	10000	1	1	0	1	0
48	869	0	10000	1	1	0	1	0
48	870	0	10000	1	1	0	1	0
48	871	0	10000	1	1	0	1	0
46	872	0	10000	1	1	0	1	0
44	873	0	10000	1	1	0	1	0
43	874	0	10000	1	1	0	1	0
42	875	0	10000	1	1	0	1	0
43	876	0	10000	1	1	0	1	0
44	877	0	10000	1	1	0	1	0
46	878	0	10000	1	1	0	1	0
48	879	0	10000	1	1	0	1	0
47	880	0	10000	1	1	0	1	0
46	881	0	10000	1	1	0	1	0
45	882	0	10000	1	1	0	1	0
44	883	0	10000	1	1	0	1	0
43	884	0	10000	1	1	0	1	0
43	885	0	10000	1	1	0	1	0
46	886	0	10000	1	1	0	1	0
50	887	0	10000	1	1	0	1	0
52	888	0	10000	1	1	0	1	0
53	889	0	10000	1	1	0	1	0
53	890	0	10000	1	1	0	1	0
53	891	0	10000	1	1	0	1	0
53	892	0	10000	1	1	0	1	0
51	893	0	10000	1	1	0	1	0
49	894	0	10000	1	1	0	1	0
48	895	0	10000	1	1	0	1	0
45	896	0	10000	1	1	0	1	0
44	897	0	10000	1	1	0	1	0
44	898	0	10000	1	1	0	1	0
44	899	0	10000	1	1	0	1	0
47	900	0	10000	1	1	0	1	0
57	901	0	10000	1	1	0	1	0
63	902	0	10000	1	1	0	1	0
63	903	0	10000	1	1	0	1	0
62	904	0	10000	1	1	0	1	0
62	905	0	10000	1	1	0	1	0
64	906	0	10000	1	1	0	1	0
66	907	0	10000	1	1	0	1	0
66	908	0	10000	1	1	0	1	0
67	909	0	10000	1	1	0	1	0
66	910	0	10000	1	1	0	1	0
66	911	0	10000	1	1	0	1	0
64	912	0	10000	1	1	0	1	0
61	913	0	10000	1	1	0	1	0
59	914	0	10000	1	1	0	1	0
59	915	0	10000	1	1	0	1	0
60	916	0	10000	1	1	0	1	0
60	917	0	10000	1	1	0	1	0
57	918	0	10000	1	1	0	1	0
56	919	0	10000	1	1	0	1	0
56	920	0	10000	1	1	0	1	0
59	921	0	10000	1	1	0	1	0
59	922	0	10000	1	1	0	1	0
58	923	0	10000	1	1	0	1	0
56	924	0	10000	1	1	0	1	0
56	925	0	10000	1	1	0	1	0
57	926	0	10000	1	1	0	1	0
56	927	0	10000	1	1	0	1	0
54	928	0	10000	1	1	0	1	0
52	929	0	10000	1	1	0	1	0
52	930	0	10000	1	1	0	1	0
52	931	0	10000	1	1	0	1	0
52	932	0	10000	1	1	0	1	0
51	933	0	10000	1	1	0	1	0
51	934	0	10000	1	1	0	1	0
50	935	0	10000	1	1	0	1	0
50	936	0	10000	1	1	0	1	0
50	937	0	10000	1	1	0	1	0
50	938	0	10000	1	1	0	1	0
49	939	0	10000	1	1	0	1	0
46	940	0	10000	1	1	0	1	0
45	941	0	10000	1	1	0	1	0
44	942	0	10000	1	1	0	1	0
44	943	0	10000	1	1	0	1	0
44	944	0	10000	1	1	0	1	0
42	945	0	10000	1	1	0	1	0
42	946	0	10000	1	1	0	1	0
41	947	0	10000	1	1	0	1	0
40	948	0	10000	1	1	0	1	0
40	949	0	10000	1	1	0	1	0
42	950	0	10000	1	1	0	1	0
41	951	0	10000	1	1	0	1	0
38	952	0	10000	1	1	0	1	0
38	953	0	10000	1	1	0	1	0
38	954	0	10000	1	1	0	1	0
38	955	0	10000	1	1	0	1	0
38	956	0	10000	1	1	0	1	0
38	957	0	10000	1	1	0	1	0
37	958	0	10000	1	1	0	1	0
36	959	0	10000	1	1	0	1	0
35	960	0	10000	1	1	0	1	0
37	961	0	10000	1	1	0	1	0
39	962	0	10000	1	1	0	1	0
39	963	0	10000	1	1	0	1	0
38	964	0	10000	1	1	0	1	0
37	965	0	10000	1	1	0	1	0
37	966	0	10000	1	1	0	1	0
34	967	0	10000	1	1	0	1	0
33	968	0	10000	1	1	0	1	0
32	969	0	10000	1	1	0	1	0
32	970	0	10000	1	1	0	1	0
32	971	0	10000	1	1	0	1	0
31	972	0	10000	1	1	0	1	0
29	973	0	10000	1	1	0	1	0
29	974	0	10000	1	1	0	1	0
29	975	0	10000	1	1	0	1	0
29	976	0	10000	1	1	0	1	0
32	977	0	10000	1	1	0	1	0
37	978	0	10000	1	1	0	1	0
37	979	0	10000	1	1	0	1	0
36	980	0	10000	1	1	0	1	0
39	981	0	10000	1	1	0	1	0
43	982	0	10000	1	1	0	1	0
45	983	0	10000	1	1	0	1	0
44	984	0	10000	1	1	0	1	0
43	985	0	10000	1	1	0	1	0
42	986	0	10000	1	1	0	1	0
41	987	0	10000	1	1	0	1	0
38	988	0	10000	1	1	0	1	0
36	989	0	10000	1	1	0	1	0
36	990	0	10000	1	1	0	1	0
36	991	0	10000	1	1	0	1	0
36	992	0	10000	1	1	0	1	0
37	993	0	10000	1	1	0	1	0
36	994	0	10000	1	1	0	1	0
35	995	0	10000	1	1	0	1	0
33	996	0	10000	1	1	0	1	0
33	997	0	10000	1	1	0	1	0
32	998	0	10000	1	1	0	1	0
32	999	0	10000	1	1	0	1	0
30	1000	0	10000	1	1	0	1	0
28	1001	0	10000	1	1	0	1	0
47	1	7	10000	2	1	0	2	0
49	2	7	10000	2	1	0	2	0
50	3	7	10000	2	1	0	2	0
50	4	7	10000	2	1	0	2	0
51	5	7	10000	2	1	0	2	0
52	6	7	10000	2	1	0	2	0
52	7	7	10000	2	1	0	2	0
50	8	7	10000	2	1	0	2	0
50	9	7	10000	2	1	0	2	0
49	10	7	10000	2	1	0	2	0
48	11	7	10000	2	1	0	2	0
45	12	7	10000	2	1	0	2	0
44	13	7	10000	2	1	0	2	0
46	14	7	10000	2	1	0	2	0
49	15	7	10000	2	1	0	2	0
51	16	7	10000	2	1	0	2	0
52	17	7	10000	2	1	0	2	0
55	18	7	10000	2	1	0	2	0
53	19	7	10000	2	1	0	2	0
52	20	7	10000	2	1	0	2	0
51	21	7	10000	2	1	0	2	0
50	22	7	10000	2	1	0	2	0
49	23	7	10000	2	1	0	2	0
46	24	7	10000	2	1	0	2	0
45	25	7	10000	2	1	0	2	0
44	26	7	10000	2	1	0	2	0
42	27	7	10000	2	1	0	2	0
40	28	7	10000	2	1	0	2	0
39	29	7	10000	2	1	0	2	0
39	30	7	10000	2	1	0	2	0
38	31	7	10000	2	1	0	2	0
36	32	7	10000	2	1	0	2	0
35	33	7	10000	2	1	0	2	0
35	34	7	10000	2	1	0	2	0
35	35	7	10000	2	1	0	2	0
37	36	7	10000	2	1	0	2	0
37	37	7	10000	2	1	0	2	0
37	38	7	10000	2	1	0	2	0
38	39	7	10000	2	1	0	2	0
35	40	7	10000	2	1	0	2	0
36	41	7	10000	2	1	0	2	0
39	42	7	10000	2	1	0	2	0
40	43	7	10000	2	1	0	2	0
41	44	7	10000	2	1	0	2	0
43	45	7	10000	2	1	0	2	0
43	46	7	10000	2	1	0	2	0
44	47	7	10000	2	1	0	2	0
43	48	7	10000	2	1	0	2	0
42	49	7	10000	2	1	0	2	0
42	50	7	10000	2	1	0	2	0
42	51	7	10000	2	1	0	2	0
41	52	7	10000	2	1	0	2	0
39	53	7	10000	2	1	0	2	0
38	54	7	10000	2	1	0	2	0
37	55	7	10000	2	1	0	2	0
39	56	7	10000	2	1	0	2	0
41	57	7	10000	2	1	0	2	0
40	58	7	10000	2	1	0	2	0
39	59	7	10000	2	1	0	2	0
37	60	7	10000	2	1	0	2	0
35	61	7	10000	2	1	0	2	0
35	62	7	10000	2	1	0	2	0
35	63	7	10000	2	1	0	2	0
34	64	7	10000	2	1	0	2	0
34	65	7	10000	2	1	0	2	0
36	66	7	10000	2	1	0	2	0
37	67	7	10000	2	1	0	2	0
35	68	7	10000	2	1	0	2	0
34	69	7	10000	2	1	0	2	0
34	70	7	10000	2	1	0	2	0
35	71	7	10000	2	1	0	2	0
33	72	7	10000	2	1	0	2	0
33	73	7	10000	2	1	0	2	0
33	74	7	10000	2	1	0	2	0
35	75	7	10000	2	1	0	2	0
35	76	7	10000	2	1	0	2	0
35	77	7	10000	2	1	0	2	0
36	78	7	10000	2	1	0	2	0
35	79	7	10000	2	1	0	2	0
33	80	7	10000	2	1	0	2	0
31	81	7	10000	2	1	0	2	0
32	82	7	10000	2	1	0	2	0
32	83	7	10000	2	1	0	2	0
30	84	7	10000	2	1	0	2	0
30	85	7	10000	2	1	0	2	0
28	86	7	10000	2	1	0	2	0
27	87	7	10000	2	1	0	2	0
28	88	7	10000	2	1	0	2	0
29	89	7	10000	2	1	0	2	0
29	90	7	10000	2	1	0	2	0
30	91	7	10000	2	1	0	2	0
28	92	7	10000	2	1	0	2	0
29	93	7	10000	2	1	0	2	0
32	94	7	10000	2	1	0	2	0
33	95	7	10000	2	1	0	2	0
32	96	7	10000	2	1	0	2	0
34	97	7	10000	2	1	0	2	0
39	98	7	10000	2	1	0	2	0
41	99	7	10000	2	1	0	2	0
40	100	7	10000	2	1	0	2	0
38	101	7	10000	2	1	0	2	0
38	102	7	10000	2	1	0	2	0
40	103	7	10000	2	1	0	2	0
39	104	7	10000	2	1	0	2	0
40	105	7	10000	2	1	0	2	0
43	106	7	10000	2	1	0	2	0
45	107	7	10000	2	1	0	2	0
46	108	7	10000	2	1	0	2	0
45	109	7	10000	2	1	0	2	0
44	110	7	10000	2	1	0	2	0
43	111	7	10000	2	1	0	2	0
41	112	7	10000	2	1	0	2	0
40	113	7	10000	2	1	0	2	0
40	114	7	10000	2	1	0	2	0
39	115	7	10000	2	1	0	2	0
39	116	7	10000	2	1	0	2	0
38	117	7	10000	2	1	0	2	0
39	118	7	10000	2	1	0	2	0
40	119	7	10000	2	1	0	2	0
42	120	7	10000	2	1	0	2	0
43	121	7	10000	2	1	0	2	0
44	122	7	10000	2	1	0	2	0
43	123	7	10000	2	1	0	2	0
41	124	7	10000	2	1	0	2	0
40	125	7	10000	2	1	0	2	0
39	126	7	10000	2	1	0	2	0
38	127	7	10000	2	1	0	2	0
38	128	7	10000	2	1	0	2	0
36	129	7	10000	2	1	0	2	0
35	130	7	10000	2	1	0	2	0
35	131	7	10000	2	1	0	2	0
36	132	7	10000	2	1	0	2	0
37	133	7	10000	2	1	0	2	0
39	134	7	10000	2	1	0	2	0
39	135	7	10000	2	1	0	2	0
39	136	7	10000	2	1	0	2	0
39	137	7	10000	2	1	0	2	0
37	138	7	10000	2	1	0	2	0
35	139	7	10000	2	1	0	2	0
35	140	7	10000	2	1	0	2	0
33	141	7	10000	2	1	0	2	0
33	142	7	10000	2	1	0	2	0
34	143	7	10000	2	1	0	2	0
32	144	7	10000	2	1	0	2	0
31	145	7	10000	2	1	0	2	0
31	146	7	10000	2	1	0	2	0
30	147	7	10000	2	1	0	2	0
28	148	7	10000	2	1	0	2	0
28	149	7	10000	2	1	0	2	0
28	150	7	10000	2	1	0	2	0
29	151	7	10000	2	1	0	2	0
28	152	7	10000	2	1	0	2	0
28	153	7	10000	2	1	0	2	0
28	154	7	10000	2	1	0	2	0
30	155	7	10000	2	1	0	2	0
30	156	7	10000	2	1	0	2	0
31	157	7	10000	2	1	0	2	0
34	158	7	10000	2	1	0	2	0
35	159	7	10000	2	1	0	2	0
35	160	7	10000	2	1	0	2	0
34	161	7	10000	2	1	0	2	0
34	162	7	10000	2	1	0	2	0
36	163	7	10000	2	1	0	2	0
35	164	7	10000	2	1	0	2	0
36	165	7	10000	2	1	0	2	0
35	166	7	10000	2	1	0	2	0
34	167	7	10000	2	1	0	2	0
34	168	7	10000	2	1	0	2	0
34	169	7	10000	2	1	0	2	0
34	170	7	10000	2	1	0	2	0
35	171	7	10000	2	1	0	2	0
35	172	7	10000	2	1	0	2	0
35	173	7	10000	2	1	0	2	0
35	174	7	10000	2	1	0	2	0
34	175	7	10000	2	1	0	2	0
35	176	7	10000	2	1	0	2	0
38	177	7	10000	2	1	0	2	0
41	178	7	10000	2	1	0	2	0
40	179	7	10000	2	1	0	2	0
40	180	7	10000	2	1	0	2	0
41	181	7	10000	2	1	0	2	0
43	182	7	10000	2	1	0	2	0
45	183	7	10000	2	1	0	2	0
45	184	7	10000	2	1	0	2	0
45	185	7	10000	2	1	0	2	0
45	186	7	10000	2	1	0	2	0
43	187	7	10000	2	1	0	2	0
41	188	7	10000	2	1	0	2	0
40	189	7	10000	2	1	0	2	0
39	190	7	10000	2	1	0	2	0
38	191	7	10000	2	1	0	2	0
38	192	7	10000	2	1	0	2	0
37	193	7	10000	2	1	0	2	0
39	194	7	10000	2	1	0	2	0
42	195	7	10000	2	1	0	2	0
40	196	7	10000	2	1	0	2	0
39	197	7	10000	2	1	0	2	0
38	198	7	10000	2	1	0	2	0
37	199	7	10000	2	1	0	2	0
37	200	7	10000	2	1	0	2	0
37	201	7	10000	2	1	0	2	0
38	202	7	10000	2	1	0	2	0
37	203	7	10000	2	1	0	2	0
37	204	7	10000	2	1	0	2	0
35	205	7	10000	2	1	0	2	0
35	206	7	10000	2	1	0	2	0
37	207	7	10000	2	1	0	2	0
39	208	7	10000	2	1	0	2	0
40	209	7	10000	2	1	0	2	0
42	210	7	10000	2	1	0	2	0
44	211	7	10000	2	1	0	2	0
44	212	7	10000	2	1	0	2	0
43	213	7	10000	2	1	0	2	0
43	214	7	10000	2	1	0	2	0
41	215	7	10000	2	1	0	2	0
39	216	7	10000	2	1	0	2	0
39	217	7	10000	2	1	0	2	0
40	218	7	10000	2	1	0	2	0
43	219	7	10000	2	1	0	2	0
47	220	7	10000	2	1	0	2	0
48	221	7	10000	2	1	0	2	0
47	222	7	10000	2	1	0	2	0
47	223	7	10000	2	1	0	2	0
45	224	7	10000	2	1	0	2	0
45	225	7	10000	2	1	0	2	0
44	226	7	10000	2	1	0	2	0
43	227	7	10000	2	1	0	2	0
43	228	7	10000	2	1	0	2	0
42	229	7	10000	2	1	0	2	0
43	230	7	10000	2	1	0	2	0
44	231	7	10000	2	1	0	2	0
45	232	7	10000	2	1	0	2	0
48	233	7	10000	2	1	0	2	0
50	234	7	10000	2	1	0	2	0
49	235	7	10000	2	1	0	2	0
47	236	7	10000	2	1	0	2	0
47	237	7	10000	2	1	0	2	0
48	238	7	10000	2	1	0	2	0
49	239	7	10000	2	1	0	2	0
49	240	7	10000	2	1	0	2	0
47	241	7	10000	2	1	0	2	0
46	242	7	10000	2	1	0	2	0
45	243	7	10000	2	1	0	2	0
43	244	7	10000	2	1	0	2	0
40	245	7	10000	2	1	0	2	0
39	246	7	10000	2	1	0	2	0
38	247	7	10000	2	1	0	2	0
38	248	7	10000	2	1	0	2	0
37	249	7	10000	2	1	0	2	0
37	250	7	10000	2	1	0	2	0
36	251	7	10000	2	1	0	2	0
36	252	7	10000	2	1	0	2	0
35	253	7	10000	2	1	0	2	0
35	254	7	10000	2	1	0	2	0
36	255	7	10000	2	1	0	2	0
35	256	7	10000	2	1	0	2	0
35	257	7	10000	2	1	0	2	0
35	258	7	10000	2	1	0	2	0
34	259	7	10000	2	1	0	2	0
33	260	7	10000	2	1	0	2	0
33	261	7	10000	2	1	0	2	0
34	262	7	10000	2	1	0	2	0
35	263	7	10000	2	1	0	2	0
37	264	7	10000	2	1	0	2	0
38	265	7	10000	2	1	0	2	0
37	266	7	10000	2	1	0	2	0
37	267	7	10000	2	1	0	2	0
39	268	7	10000	2	1	0	2	0
40	269	7	10000	2	1	0	2	0
39	270	7	10000	2	1	0	2	0
40	271	7	10000	2	1	0	2	0
41	272	7	10000	2	1	0	2	0
40	273	7	10000	2	1	0	2	0
40	274	7	10000	2	1	0	2	0
39	275	7	10000	2	1	0	2	0
39	276	7	10000	2	1	0	2	0
38	277	7	10000	2	1	0	2	0
38	278	7	10000	2	1	0	2	0
37	279	7	10000	2	1	0	2	0
38	280	7	10000	2	1	0	2	0
42	281	7	10000	2	1	0	2	0
45	282	7	10000	2	1	0	2	0
49	283	7	10000	2	1	0	2	0
51	284	7	10000	2	1	0	2	0
53	285	7	10000	2	1	0	2	0
53	286	7	10000	2	1	0	2	0
54	287	7	10000	2	1	0	2	0
53	288	7	10000	2	1	0	2	0
51	289	7	10000	2	1	0	2	0
50	290	7	10000	2	1	0	2	0
50	291	7	10000	2	1	0	2	0
50	292	7	10000	2	1	0	2	0
50	293	7	10000	2	1	0	2	0
48	294	7	10000	2	1	0	2	0
46	295	7	10000	2	1	0	2	0
47	296	7	10000	2	1	0	2	0
45	297	7	10000	2	1	0	2	0
44	298	7	10000	2	1	0	2	0
44	299	7	10000	2	1	0	2	0
45	300	7	10000	2	1	0	2	0
49	301	7	10000	2	1	0	2	0
56	302	7	10000	2	1	0	2	0
61	303	7	10000	2	1	0	2	0
63	304	7	10000	2	1	0	2	0
63	305	7	10000	2	1	0	2	0
60	306	7	10000	2	1	0	2	0
59	307	7	10000	2	1	0	2	0
60	308	7	10000	2	1	0	2	0
61	309	7	10000	2	1	0	2	0
60	310	7	10000	2	1	0	2	0
59	311	7	10000	2	1	0	2	0
55	312	7	10000	2	1	0	2	0
52	313	7	10000	2	1	0	2	0
51	314	7	10000	2	1	0	2	0
49	315	7	10000	2	1	0	2	0
48	316	7	10000	2	1	0	2	0
47	317	7	10000	2	1	0	2	0
45	318	7	10000	2	1	0	2	0
44	319	7	10000	2	1	0	2	0
42	320	7	10000	2	1	0	2	0
42	321	7	10000	2	1	0	2	0
43	322	7	10000	2	1	0	2	0
43	323	7	10000	2	1	0	2	0
42	324	7	10000	2	1	0	2	0
43	325	7	10000	2	1	0	2	0
43	326	7	10000	2	1	0	2	0
45	327	7	10000	2	1	0	2	0
43	328	7	10000	2	1	0	2	0
43	329	7	10000	2	1	0	2	0
43	330	7	10000	2	1	0	2	0
42	331	7	10000	2	1	0	2	0
40	332	7	10000	2	1	0	2	0
38	333	7	10000	2	1	0	2	0
38	334	7	10000	2	1	0	2	0
38	335	7	10000	2	1	0	2	0
37	336	7	10000	2	1	0	2	0
35	337	7	10000	2	1	0	2	0
36	338	7	10000	2	1	0	2	0
36	339	7	10000	2	1	0	2	0
36	340	7	10000	2	1	0	2	0
37	341	7	10000	2	1	0	2	0
38	342	7	10000	2	1	0	2	0
41	343	7	10000	2	1	0	2	0
40	344	7	10000	2	1	0	2	0
39	345	7	10000	2	1	0	2	0
37	346	7	10000	2	1	0	2	0
37	347	7	10000	2	1	0	2	0
36	348	7	10000	2	1	0	2	0
34	349	7	10000	2	1	0	2	0
35	350	7	10000	2	1	0	2	0
35	351	7	10000	2	1	0	2	0
32	352	7	10000	2	1	0	2	0
31	353	7	10000	2	1	0	2	0
30	354	7	10000	2	1	0	2	0
30	355	7	10000	2	1	0	2	0
31	356	7	10000	2	1	0	2	0
32	357	7	10000	2	1	0	2	0
31	358	7	10000	2	1	0	2	0
31	359	7	10000	2	1	0	2	0
30	360	7	10000	2	1	0	2	0
29	361	7	10000	2	1	0	2	0
29	362	7	10000	2	1	0	2	0
29	363	7	10000	2	1	0	2	0
28	364	7	10000	2	1	0	2	0
28	365	7	10000	2	1	0	2	0
27	366	7	10000	2	1	0	2	0
27	367	7	10000	2	1	0	2	0
27	368	7	10000	2	1	0	2	0
27	369	7	10000	2	1	0	2	0
30	370	7	10000	2	1	0	2	0
30	371	7	10000	2	1	0	2	0
28	372	7	10000	2	1	0	2	0
27	373	7	10000	2	1	0	2	0
29	374	7	10000	2	1	0	2	0
30	375	7	10000	2	1	0	2	0
29	376	7	10000	2	1	0	2	0
30	377	7	10000	2	1	0	2	0
32	378	7	10000	2	1	0	2	0
32	379	7	10000	2	1	0	2	0
36	380	7	10000	2	1	0	2	0
40	381	7	10000	2	1	0	2	0
44	382	7	10000	2	1	0	2	0
48	383	7	10000	2	1	0	2	0
47	384	7	10000	2	1	0	2	0
46	385	7	10000	2	1	0	2	0
44	386	7	10000	2	1	0	2	0
45	387	7	10000	2	1	0	2	0
47	388	7	10000	2	1	0	2	0
45	389	7	10000	2	1	0	2	0
45	390	7	10000	2	1	0	2	0
46	391	7	10000	2	1	0	2	0
46	392	7	10000	2	1	0	2	0
44	393	7	10000	2	1	0	2	0
43	394	7	10000	2	1	0	2	0
41	395	7	10000	2	1	0	2	0
40	396	7	10000	2	1	0	2	0
40	397	7	10000	2	1	0	2	0
39	398	7	10000	2	1	0	2	0
39	399	7	10000	2	1	0	2	0
40	400	7	10000	2	1	0	2	0
38	401	7	10000	2	1	0	2	0
38	402	7	10000	2	1	0	2	0
39	403	7	10000	2	1	0	2	0
37	404	7	10000	2	1	0	2	0
38	405	7	10000	2	1	0	2	0
42	406	7	10000	2	1	0	2	0
43	407	7	10000	2	1	0	2	0
42	408	7	10000	2	1	0	2	0
41	409	7	10000	2	1	0	2	0
39	410	7	10000	2	1	0	2	0
38	411	7	10000	2	1	0	2	0
37	412	7	10000	2	1	0	2	0
35	413	7	10000	2	1	0	2	0
34	414	7	10000	2	1	0	2	0
37	415	7	10000	2	1	0	2	0
38	416	7	10000	2	1	0	2	0
39	417	7	10000	2	1	0	2	0
38	418	7	10000	2	1	0	2	0
39	419	7	10000	2	1	0	2	0
42	420	7	10000	2	1	0	2	0
44	421	7	10000	2	1	0	2	0
47	422	7	10000	2	1	0	2	0
47	423	7	10000	2	1	0	2	0
46	424	7	10000	2	1	0	2	0
44	425	7	10000	2	1	0	2	0
42	426	7	10000	2	1	0	2	0
40	427	7	10000	2	1	0	2	0
40	428	7	10000	2	1	0	2	0
39	429	7	10000	2	1	0	2	0
38	430	7	10000	2	1	0	2	0
37	431	7	10000	2	1	0	2	0
36	432	7	10000	2	1	0	2	0
33	433	7	10000	2	1	0	2	0
33	434	7	10000	2	1	0	2	0
34	435	7	10000	2	1	0	2	0
34	436	7	10000	2	1	0	2	0
37	437	7	10000	2	1	0	2	0
38	438	7	10000	2	1	0	2	0
39	439	7	10000	2	1	0	2	0
38	440	7	10000	2	1	0	2	0
39	441	7	10000	2	1	0	2	0
42	442	7	10000	2	1	0	2	0
42	443	7	10000	2	1	0	2	0
43	444	7	10000	2	1	0	2	0
43	445	7	10000	2	1	0	2	0
41	446	7	10000	2	1	0	2	0
40	447	7	10000	2	1	0	2	0
39	448	7	10000	2	1	0	2	0
37	449	7	10000	2	1	0	2	0
37	450	7	10000	2	1	0	2	0
36	451	7	10000	2	1	0	2	0
35	452	7	10000	2	1	0	2	0
33	453	7	10000	2	1	0	2	0
33	454	7	10000	2	1	0	2	0
32	455	7	10000	2	1	0	2	0
32	456	7	10000	2	1	0	2	0
33	457	7	10000	2	1	0	2	0
33	458	7	10000	2	1	0	2	0
31	459	7	10000	2	1	0	2	0
30	460	7	10000	2	1	0	2	0
30	461	7	10000	2	1	0	2	0
32	462	7	10000	2	1	0	2	0
34	463	7	10000	2	1	0	2	0
38	464	7	10000	2	1	0	2	0
38	465	7	10000	2	1	0	2	0
37	466	7	10000	2	1	0	2	0
37	467	7	10000	2	1	0	2	0
38	468	7	10000	2	1	0	2	0
40	469	7	10000	2	1	0	2	0
42	470	7	10000	2	1	0	2	0
43	471	7	10000	2	1	0	2	0
41	472	7	10000	2	1	0	2	0
38	473	7	10000	2	1	0	2	0
38	474	7	10000	2	1	0	2	0
38	475	7	10000	2	1	0	2	0
37	476	7	10000	2	1	0	2	0
35	477	7	10000	2	1	0	2	0
35	478	7	10000	2	1	0	2	0
35	479	7	10000	2	1	0	2	0
37	480	7	10000	2	1	0	2	0
39	481	7	10000	2	1	0	2	0
41	482	7	10000	2	1	0	2	0
41	483	7	10000	2	1	0	2	0
40	484	7	10000	2	1	0	2	0
39	485	7	10000	2	1	0	2	0
40	486	7	10000	2	1	0	2	0
42	487	7	10000	2	1	0	2	0
40	488	7	10000	2	1	0	2	0
41	489	7	10000	2	1	0	2	0
44	490	7	10000	2	1	0	2	0
48	491	7	10000	2	1	0	2	0
49	492	7	10000	2	1	0	2	0
45	493	7	10000	2	1	0	2	0
45	494	7	10000	2	1	0	2	0
47	495	7	10000	2	1	0	2	0
49	496	7	10000	2	1	0	2	0
48	497	7	10000	2	1	0	2	0
45	498	7	10000	2	1	0	2	0
44	499	7	10000	2	1	0	2	0
45	500	7	10000	2	1	0	2	0
48	501	7	10000	2	1	0	2	1
50	502	7	10000	2	1	0	2	1
52	503	7	10000	2	1	0	2	1
52	504	7	10000	2	1	0	2	1
49	505	7	10000	2	1	0	2	1
50	506	7	10000	2	1	0	2	1
51	507	7	10000	2	1	0	2	1
48	508	7	10000	2	1	0	2	1
46	509	7	10000	2	1	0	2	1
47	510	7	10000	2	1	0	2	1
47	511	7	10000	2	1	0	2	1
44	512	7	10000	2	1	0	2	1
43	513	7	10000	2	1	0	2	1
41	514	7	10000	2	1	0	2	1
42	515	7	10000	2	1	0	2	1
42	516	7	10000	2	1	0	2	1
41	517	7	10000	2	1	0	2	1
40	518	7	10000	2	1	0	2	1
42	519	7	10000	2	1	0	2	1
43	520	7	10000	2	1	0	2	1
42	521	7	10000	2	1	0	2	1
41	522	7	10000	2	1	0	2	1
42	523	7	10000	2	1	0	2	1
42	524	7	10000	2	1	0	2	1
43	525	7	10000	2	1	0	2	1
43	526	7	10000	2	1	0	2	1
43	527	7	10000	2	1	0	2	1
42	528	7	10000	2	1	0	2	1
43	529	7	10000	2	1	0	2	1
44	530	7	10000	2	1	0	2	1
44	531	7	10000	2	1	0	2	1
44	532	7	10000	2	1	0	2	1
44	533	7	10000	2	1	0	2	1
45	534	7	10000	2	1	0	2	1
44	535	7	10000	2	1	0	2	1
44	536	7	10000	2	1	0	2	1
44	537	7	10000	2	1	0	2	1
45	538	7	10000	2	1	0	2	1
46	539	7	10000	2	1	0	2	1
47	540	7	10000	2	1	0	2	1
50	541	7	10000	2	1	0	2	1
51	542	7	10000	2	1	0	2	1
52	543	7	10000	2	1	0	2	1
50	544	7	10000	2	1	0	2	1
48	545	7	10000	2	1	0	2	1
46	546	7	10000	2	1	0	2	1
44	547	7	10000	2	1	0	2	1
45	548	7	10000	2	1	0	2	1
44	549	7	10000	2	1	0	2	1
44	550	7	10000	2	1	0	2	1
44	551	7	10000	2	1	0	2	0
44	552	7	10000	2	1	0	2	0
41	553	7	10000	2	1	0	2	0
40	554	7	10000	2	1	0	2	0
41	555	7	10000	2	1	0	2	0
44	556	7	10000	2	1	0	2	0
46	557	7	10000	2	1	0	2	0
47	558	7	10000	2	1	0	2	0
47	559	7	10000	2	1	0	2	0
46	560	7	10000	2	1	0	2	0
44	561	7	10000	2	1	0	2	0
44	562	7	10000	2	1	0	2	0
44	563	7	10000	2	1	0	2	0
44	564	7	10000	2	1	0	2	0
44	565	7	10000	2	1	0	2	0
43	566	7	10000	2	1	0	2	0
43	567	7	10000	2	1	0	2	0
43	568	7	10000	2	1	0	2	0
42	569	7	10000	2	1	0	2	0
45	570	7	10000	2	1	0	2	0
48	571	7	10000	2	1	0	2	0
49	572	7	10000	2	1	0	2	0
50	573	7	10000	2	1	0	2	0
49	574	7	10000	2	1	0	2	0
51	575	7	10000	2	1	0	2	0
53	576	7	10000	2	1	0	2	0
53	577	7	10000	2	1	0	2	0
51	578	7	10000	2	1	0	2	0
49	579	7	10000	2	1	0	2	0
47	580	7	10000	2	1	0	2	0
45	581	7	10000	2	1	0	2	0
45	582	7	10000	2	1	0	2	0
48	583	7	10000	2	1	0	2	0
48	584	7	10000	2	1	0	2	0
48	585	7	10000	2	1	0	2	0
47	586	7	10000	2	1	0	2	0
46	587	7	10000	2	1	0	2	0
44	588	7	10000	2	1	0	2	0
44	589	7	10000	2	1	0	2	0
46	590	7	10000	2	1	0	2	0
49	591	7	10000	2	1	0	2	0
48	592	7	10000	2	1	0	2	0
46	593	7	10000	2	1	0	2	0
50	594	7	10000	2	1	0	2	0
55	595	7	10000	2	1	0	2	0
57	596	7	10000	2	1	0	2	0
56	597	7	10000	2	1	0	2	0
56	598	7	10000	2	1	0	2	0
57	599	7	10000	2	1	0	2	0
64	600	7	10000	2	1	0	2	0
75	601	7	10000	2	1	0	2	0
90	602	7	10000	2	1	0	2	0
115	603	7	10000	2	1	0	2	0
130	604	7	10000	2	1	0	2	0
131	605	7	10000	2	1	0	2	0
150	606	7	10000	2	1	0	2	0
169	607	7	10000	2	1	0	2	0
177	608	7	10000	2	1	0	2	0
174	609	7	10000	2	1	0	2	0
174	610	7	10000	2	1	0	2	0
202	611	7	10000	2	1	0	2	0
224	612	7	10000	2	1	0	2	0
223	613	7	10000	2	1	0	2	0
226	614	7	10000	2	1	0	2	0
256	615	7	10000	2	1	0	2	0
290	616	7	10000	2	1	0	2	0
291	617	7	10000	2	1	0	2	0
333	618	7	10000	2	1	0	2	0
397	619	7	10000	2	1	0	2	0
435	620	7	10000	2	1	0	2	0
429	621	7	10000	2	1	0	2	0
420	622	7	10000	2	1	0	2	0
418	623	7	10000	2	1	0	2	0
438	624	7	10000	2	1	0	2	0
431	625	7	10000	2	1	0	2	0
445	626	7	10000	2	1	0	2	0
470	627	7	10000	2	1	0	2	0
478	628	7	10000	2	1	0	2	0
479	629	7	10000	2	1	0	2	0
473	630	7	10000	2	1	0	2	0
456	631	7	10000	2	1	0	2	0
439	632	7	10000	2	1	0	2	0
423	633	7	10000	2	1	0	2	0
407	634	7	10000	2	1	0	2	0
393	635	7	10000	2	1	0	2	0
389	636	7	10000	2	1	0	2	0
385	637	7	10000	2	1	0	2	0
379	638	7	10000	2	1	0	2	0
370	639	7	10000	2	1	0	2	0
362	640	7	10000	2	1	0	2	0
357	641	7	10000	2	1	0	2	0
346	642	7	10000	2	1	0	2	0
339	643	7	10000	2	1	0	2	0
339	644	7	10000	2	1	0	2	0
341	645	7	10000	2	1	0	2	0
342	646	7	10000	2	1	0	2	0
348	647	7	10000	2	1	0	2	0
350	648	7	10000	2	1	0	2	0
344	649	7	10000	2	1	0	2	0
333	650	7	10000	2	1	0	2	0
320	651	7	10000	2	1	0	2	0
306	652	7	10000	2	1	0	2	0
297	653	7	10000	2	1	0	2	0
287	654	7	10000	2	1	0	2	0
275	655	7	10000	2	1	0	2	0
264	656	7	10000	2	1	0	2	0
257	657	7	10000	2	1	0	2	0
251	658	7	10000	2	1	0	2	0
242	659	7	10000	2	1	0	2	0
237	660	7	10000	2	1	0	2	0
234	661	7	10000	2	1	0	2	0
232	662	7	10000	2	1	0	2	0
230	663	7	10000	2	1	0	2	0
225	664	7	10000	2	1	0	2	0
221	665	7	10000	2	1	0	2	0
219	666	7	10000	2	1	0	2	0
215	667	7	10000	2	1	0	2	0
215	668	7	10000	2	1	0	2	0
219	669	7	10000	2	1	0	2	0
224	670	7	10000	2	1	0	2	0
227	671	7	10000	2	1	0	2	0
224	672	7	10000	2	1	0	2	0
219	673	7	10000	2	1	0	2	0
217	674	7	10000	2	1	0	2	0
216	675	7	10000	2	1	0	2	0
215	676	7	10000	2	1	0	2	0
210	677	7	10000	2	1	0	2	0
201	678	7	10000	2	1	0	2	0
194	679	7	10000	2	1	0	2	0
189	680	7	10000	2	1	0	2	0
184	681	7	10000	2	1	0	2	0
179	682	7	10000	2	1	0	2	0
173	683	7	10000	2	1	0	2	0
166	684	7	10000	2	1	0	2	0
161	685	7	10000	2	1	0	2	0
159	686	7	10000	2	1	0	2	0
162	687	7	10000	2	1	0	2	0
165	688	7	10000	2	1	0	2	0
164	689	7	10000	2	1	0	2	0
158	690	7	10000	2	1	0	2	0
152	691	7	10000	2	1	0	2	0
146	692	7	10000	2	1	0	2	0
147	693	7	10000	2	1	0	2	0
155	694	7	10000	2	1	0	2	0
159	695	7	10000	2	1	0	2	0
158	696	7	10000	2	1	0	2	0
154	697	7	10000	2	1	0	2	0
148	698	7	10000	2	1	0	2	0
141	699	7	10000	2	1	0	2	0
137	700	7	10000	2	1	0	2	0
136	701	7	10000	2	1	0	2	0
134	702	7	10000	2	1	0	2	0
130	703	7	10000	2	1	0	2	0
129	704	7	10000	2	1	0	2	0
125	705	7	10000	2	1	0	2	0
120	706	7	10000	2	1	0	2	0
116	707	7	10000	2	1	0	2	0
113	708	7	10000	2	1	0	2	0
114	709	7	10000	2	1	0	2	0
114	710	7	10000	2	1	0	2	0
112	711	7	10000	2	1	0	2	0
111	712	7	10000	2	1	0	2	0
104	713	7	10000	2	1	0	2	0
100	714	7	10000	2	1	0	2	0
99	715	7	10000	2	1	0	2	0
98	716	7	10000	2	1	0	2	0
97	717	7	10000	2	1	0	2	0
101	718	7	10000	2	1	0	2	0
106	719	7	10000	2	1	0	2	0
109	720	7	10000	2	1	0	2	0
115	721	7	10000	2	1	0	2	0
115	722	7	10000	2	1	0	2	0
116	723	7	10000	2	1	0	2	0
115	724	7	10000	2	1	0	2	0
112	725	7	10000	2	1	0	2	0
111	726	7	10000	2	1	0	2	0
112	727	7	10000	2	1	0	2	0
112	728	7	10000	2	1	0	2	0
109	729	7	10000	2	1	0	2	0
108	730	7	10000	2	1	0	2	0
105	731	7	10000	2	1	0	2	0
104	732	7	10000	2	1	0	2	0
104	733	7	10000	2	1	0	2	0
110	734	7	10000	2	1	0	2	0
113	735	7	10000	2	1	0	2	0
111	736	7	10000	2	1	0	2	0
110	737	7	10000	2	1	0	2	0
113	738	7	10000	2	1	0	2	0
116	739	7	10000	2	1	0	2	0
116	740	7	10000	2	1	0	2	0
111	741	7	10000	2	1	0	2	0
109	742	7	10000	2	1	0	2	0
110	743	7	10000	2	1	0	2	0
107	744	7	10000	2	1	0	2	0
108	745	7	10000	2	1	0	2	0
110	746	7	10000	2	1	0	2	0
110	747	7	10000	2	1	0	2	0
109	748	7	10000	2	1	0	2	0
105	749	7	10000	2	1	0	2	0
109	750	7	10000	2	1	0	2	0
119	751	7	10000	2	1	0	2	0
128	752	7	10000	2	1	0	2	0
135	753	7	10000	2	1	0	2	0
141	754	7	10000	2	1	0	2	0
145	755	7	10000	2	1	0	2	0
147	756	7	10000	2	1	0	2	0
147	757	7	10000	2	1	0	2	0
144	758	7	10000	2	1	0	2	0
138	759	7	10000	2	1	0	2	0
132	760	7	10000	2	1	0	2	0
129	761	7	10000	2	1	0	2	0
129	762	7	10000	2	1	0	2	0
133	763	7	10000	2	1	0	2	0
133	764	7	10000	2	1	0	2	0
132	765	7	10000	2	1	0	2	0
132	766	7	10000	2	1	0	2	0
128	767	7	10000	2	1	0	2	0
122	768	7	10000	2	1	0	2	0
117	769	7	10000	2	1	0	2	0
114	770	7	10000	2	1	0	2	0
110	771	7	10000	2	1	0	2	0
108	772	7	10000	2	1	0	2	0
103	773	7	10000	2	1	0	2	0
101	774	7	10000	2	1	0	2	0
100	775	7	10000	2	1	0	2	0
99	776	7	10000	2	1	0	2	0
98	777	7	10000	2	1	0	2	0
97	778	7	10000	2	1	0	2	0
96	779	7	10000	2	1	0	2	0
94	780	7	10000	2	1	0	2	0
92	781	7	10000	2	1	0	2	0
89	782	7	10000	2	1	0	2	0
89	783	7	10000	2	1	0	2	0
86	784	7	10000	2	1	0	2	0
85	785	7	10000	2	1	0	2	0
82	786	7	10000	2	1	0	2	0
80	787	7	10000	2	1	0	2	0
78	788	7	10000	2	1	0	2	0
76	789	7	10000	2	1	0	2	0
74	790	7	10000	2	1	0	2	0
76	791	7	10000	2	1	0	2	0
82	792	7	10000	2	1	0	2	0
79	793	7	10000	2	1	0	2	0
84	794	7	10000	2	1	0	2	0
91	795	7	10000	2	1	0	2	0
93	796	7	10000	2	1	0	2	0
91	797	7	10000	2	1	0	2	0
89	798	7	10000	2	1	0	2	0
88	799	7	10000	2	1	0	2	0
91	800	7	10000	2	1	0	2	0
97	801	7	10000	2	1	0	2	0
104	802	7	10000	2	1	0	2	0
112	803	7	10000	2	1	0	2	0
114	804	7	10000	2	1	0	2	0
111	805	7	10000	2	1	0	2	0
106	806	7	10000	2	1	0	2	0
102	807	7	10000	2	1	0	2	0
101	808	7	10000	2	1	0	2	0
98	809	7	10000	2	1	0	2	0
95	810	7	10000	2	1	0	2	0
93	811	7	10000	2	1	0	2	0
94	812	7	10000	2	1	0	2	0
97	813	7	10000	2	1	0	2	0
102	814	7	10000	2	1	0	2	0
103	815	7	10000	2	1	0	2	0
104	816	7	10000	2	1	0	2	0
104	817	7	10000	2	1	0	2	0
107	818	7	10000	2	1	0	2	0
113	819	7	10000	2	1	0	2	0
111	820	7	10000	2	1	0	2	0
106	821	7	10000	2	1	0	2	0
105	822	7	10000	2	1	0	2	0
104	823	7	10000	2	1	0	2	0
101	824	7	10000	2	1	0	2	0
100	825	7	10000	2	1	0	2	0
98	826	7	10000	2	1	0	2	0
97	827	7	10000	2	1	0	2	0
93	828	7	10000	2	1	0	2	0
90	829	7	10000	2	1	0	2	0
87	830	7	10000	2	1	0	2	0
84	831	7	10000	2	1	0	2	0
80	832	7	10000	2	1	0	2	0
76	833	7	10000	2	1	0	2	0
76	834	7	10000	2	1	0	2	0
78	835	7	10000	2	1	0	2	0
79	836	7	10000	2	1	0	2	0
79	837	7	10000	2	1	0	2	0
76	838	7	10000	2	1	0	2	0
74	839	7	10000	2	1	0	2	0
74	840	7	10000	2	1	0	2	0
71	841	7	10000	2	1	0	2	0
68	842	7	10000	2	1	0	2	0
68	843	7	10000	2	1	0	2	0
64	844	7	10000	2	1	0	2	0
63	845	7	10000	2	1	0	2	0
64	846	7	10000	2	1	0	2	0
63	847	7	10000	2	1	0	2	0
61	848	7	10000	2	1	0	2	0
59	849	7	10000	2	1	0	2	0
57	850	7	10000	2	1	0	2	0
56	851	7	10000	2	1	0	2	0
56	852	7	10000	2	1	0	2	0
55	853	7	10000	2	1	0	2	0
55	854	7	10000	2	1	0	2	0
54	855	7	10000	2	1	0	2	0
54	856	7	10000	2	1	0	2	0
54	857	7	10000	2	1	0	2	0
57	858	7	10000	2	1	0	2	0
58	859	7	10000	2	1	0	2	0
56	860	7	10000	2	1	0	2	0
54	861	7	10000	2	1	0	2	0
55	862	7	10000	2	1	0	2	0
56	863	7	10000	2	1	0	2	0
56	864	7	10000	2	1	0	2	0
57	865	7	10000	2	1	0	2	0
56	866	7	10000	2	1	0	2	0
55	867	7	10000	2	1	0	2	0
55	868	7	10000	2	1	0	2	0
56	869	7	10000	2	1	0	2	0
58	870	7	10000	2	1	0	2	0
60	871	7	10000	2	1	0	2	0
61	872	7	10000	2	1	0	2	0
60	873	7	10000	2	1	0	2	0
63	874	7	10000	2	1	0	2	0
63	875	7	10000	2	1	0	2	0
64	876	7	10000	2	1	0	2	0
68	877	7	10000	2	1	0	2	0
71	878	7	10000	2	1	0	2	0
72	879	7	10000	2	1	0	2	0
71	880	7	10000	2	1	0	2	0
71	881	7	10000	2	1	0	2	0
73	882	7	10000	2	1	0	2	0
77	883	7	10000	2	1	0	2	0
79	884	7	10000	2	1	0	2	0
77	885	7	10000	2	1	0	2	0
74	886	7	10000	2	1	0	2	0
73	887	7	10000	2	1	0	2	0
70	888	7	10000	2	1	0	2	0
67	889	7	10000	2	1	0	2	0
66	890	7	10000	2	1	0	2	0
67	891	7	10000	2	1	0	2	0
68	892	7	10000	2	1	0	2	0
66	893	7	10000	2	1	0	2	0
64	894	7	10000	2	1	0	2	0
63	895	7	10000	2	1	0	2	0
63	896	7	10000	2	1	0	2	0
66	897	7	10000	2	1	0	2	0
68	898	7	10000	2	1	0	2	0
66	899	7	10000	2	1	0	2	0
63	900	7	10000	2	1	0	2	0
60	901	7	10000	2	1	0	2	0
57	902	7	10000	2	1	0	2	0
58	903	7	10000	2	1	0	2	0
55	904	7	10000	2	1	0	2	0
52	905	7	10000	2	1	0	2	0
51	906	7	10000	2	1	0	2	0
49	907	7	10000	2	1	0	2	0
47	908	7	10000	2	1	0	2	0
44	909	7	10000	2	1	0	2	0
44	910	7	10000	2	1	0	2	0
45	911	7	10000	2	1	0	2	0
46	912	7	10000	2	1	0	2	0
43	913	7	10000	2	1	0	2	0
43	914	7	10000	2	1	0	2	0
43	915	7	10000	2	1	0	2	0
45	916	7	10000	2	1	0	2	0
45	917	7	10000	2	1	0	2	0
43	918	7	10000	2	1	0	2	0
42	919	7	10000	2	1	0	2	0
40	920	7	10000	2	1	0	2	0
41	921	7	10000	2	1	0	2	0
44	922	7	10000	2	1	0	2	0
47	923	7	10000	2	1	0	2	0
46	924	7	10000	2	1	0	2	0
45	925	7	10000	2	1	0	2	0
45	926	7	10000	2	1	0	2	0
44	927	7	10000	2	1	0	2	0
42	928	7	10000	2	1	0	2	0
40	929	7	10000	2	1	0	2	0
39	930	7	10000	2	1	0	2	0
38	931	7	10000	2	1	0	2	0
38	932	7	10000	2	1	0	2	0
36	933	7	10000	2	1	0	2	0
39	934	7	10000	2	1	0	2	0
39	935	7	10000	2	1	0	2	0
39	936	7	10000	2	1	0	2	0
38	937	7	10000	2	1	0	2	0
37	938	7	10000	2	1	0	2	0
37	939	7	10000	2	1	0	2	0
38	940	7	10000	2	1	0	2	0
39	941	7	10000	2	1	0	2	0
39	942	7	10000	2	1	0	2	0
42	943	7	10000	2	1	0	2	0
46	944	7	10000	2	1	0	2	0
47	945	7	10000	2	1	0	2	0
45	946	7	10000	2	1	0	2	0
44	947	7	10000	2	1	0	2	0
45	948	7	10000	2	1	0	2	0
47	949	7	10000	2	1	0	2	0
49	950	7	10000	2	1	0	2	0
49	951	7	10000	2	1	0	2	0
49	952	7	10000	2	1	0	2	0
45	953	7	10000	2	1	0	2	0
44	954	7	10000	2	1	0	2	0
43	955	7	10000	2	1	0	2	0
44	956	7	10000	2	1	0	2	0
47	957	7	10000	2	1	0	2	0
46	958	7	10000	2	1	0	2	0
45	959	7	10000	2	1	0	2	0
45	960	7	10000	2	1	0	2	0
47	961	7	10000	2	1	0	2	0
48	962	7	10000	2	1	0	2	0
50	963	7	10000	2	1	0	2	0
49	964	7	10000	2	1	0	2	0
48	965	7	10000	2	1	0	2	0
49	966	7	10000	2	1	0	2	0
47	967	7	10000	2	1	0	2	0
47	968	7	10000	2	1	0	2	0
45	969	7	10000	2	1	0	2	0
44	970	7	10000	2	1	0	2	0
45	971	7	10000	2	1	0	2	0
47	972	7	10000	2	1	0	2	0
46	973	7	10000	2	1	0	2	0
50	974	7	10000	2	1	0	2	0
51	975	7	10000	2	1	0	2	0
49	976	7	10000	2	1	0	2	0
48	977	7	10000	2	1	0	2	0
48	978	7	10000	2	1	0	2	0
48	979	7	10000	2	1	0	2	0
45	980	7	10000	2	1	0	2	0
46	981	7	10000	2	1	0	2	0
47	982	7	10000	2	1	0	2	0
50	983	7	10000	2	1	0	2	0
49	984	7	10000	2	1	0	2	0
49	985	7	10000	2	1	0	2	0
51	986	7	10000	2	1	0	2	0
50	987	7	10000	2	1	0	2	0
49	988	7	10000	2	1	0	2	0
48	989	7	10000	2	1	0	2	0
48	990	7	10000	2	1	0	2	0
52	991	7	10000	2	1	0	2	0
55	992	7	10000	2	1	0	2	0
54	993	7	10000	2	1	0	2	0
52	994	7	10000	2	1	0	2	0
50	995	7	10000	2	1	0	2	0
51	996	7	10000	2	1	0	2	0
50	997	7	10000	2	1	0	2	0
52	998	7	10000	2	1	0	2	0
53	999	7	10000	2	1	0	2	0
51	1000	7	10000	2	1	0	2	0
33	2	0	10000	3	1	0	3	0
32	3	0	10000	3	1	0	3	0
32	4	0	10000	3	1	0	3	0
32	5	0	10000	3	1	0	3	0
33	6	0	10000	3	1	0	3	0
32	7	0	10000	3	1	0	3	0
31	8	0	10000	3	1	0	3	0
29	9	0	10000	3	1	0	3	0
28	10	0	10000	3	1	0	3	0
27	11	0	10000	3	1	0	3	0
26	12	0	10000	3	1	0	3	0
27	13	0	10000	3	1	0	3	0
27	14	0	10000	3	1	0	3	0
26	15	0	10000	3	1	0	3	0
24	16	0	10000	3	1	0	3	0
24	17	0	10000	3	1	0	3	0
23	18	0	10000	3	1	0	3	0
24	19	0	10000	3	1	0	3	0
24	20	0	10000	3	1	0	3	0
23	21	0	10000	3	1	0	3	0
23	22	0	10000	3	1	0	3	0
22	23	0	10000	3	1	0	3	0
21	24	0	10000	3	1	0	3	0
21	25	0	10000	3	1	0	3	0
24	26	0	10000	3	1	0	3	0
23	27	0	10000	3	1	0	3	0
22	28	0	10000	3	1	0	3	0
21	29	0	10000	3	1	0	3	0
20	30	0	10000	3	1	0	3	0
20	31	0	10000	3	1	0	3	0
20	32	0	10000	3	1	0	3	0
20	33	0	10000	3	1	0	3	0
21	34	0	10000	3	1	0	3	0
20	35	0	10000	3	1	0	3	0
18	36	0	10000	3	1	0	3	0
19	37	0	10000	3	1	0	3	0
19	38	0	10000	3	1	0	3	0
19	39	0	10000	3	1	0	3	0
22	40	0	10000	3	1	0	3	0
22	41	0	10000	3	1	0	3	0
22	42	0	10000	3	1	0	3	0
23	43	0	10000	3	1	0	3	0
22	44	0	10000	3	1	0	3	0
20	45	0	10000	3	1	0	3	0
22	46	0	10000	3	1	0	3	0
22	47	0	10000	3	1	0	3	0
20	48	0	10000	3	1	0	3	0
19	49	0	10000	3	1	0	3	0
19	50	0	10000	3	1	0	3	0
18	51	0	10000	3	1	0	3	0
18	52	0	10000	3	1	0	3	0
18	53	0	10000	3	1	0	3	0
18	54	0	10000	3	1	0	3	0
18	55	0	10000	3	1	0	3	0
16	56	0	10000	3	1	0	3	0
15	57	0	10000	3	1	0	3	0
15	58	0	10000	3	1	0	3	0
15	59	0	10000	3	1	0	3	0
15	60	0	10000	3	1	0	3	0
15	61	0	10000	3	1	0	3	0
16	62	0	10000	3	1	0	3	0
15	63	0	10000	3	1	0	3	0
16	64	0	10000	3	1	0	3	0
18	65	0	10000	3	1	0	3	0
20	66	0	10000	3	1	0	3	0
20	67	0	10000	3	1	0	3	0
20	68	0	10000	3	1	0	3	0
21	69	0	10000	3	1	0	3	0
22	70	0	10000	3	1	0	3	0
24	71	0	10000	3	1	0	3	0
24	72	0	10000	3	1	0	3	0
23	73	0	10000	3	1	0	3	0
23	74	0	10000	3	1	0	3	0
24	75	0	10000	3	1	0	3	0
23	76	0	10000	3	1	0	3	0
24	77	0	10000	3	1	0	3	0
24	78	0	10000	3	1	0	3	0
24	79	0	10000	3	1	0	3	0
24	80	0	10000	3	1	0	3	0
23	81	0	10000	3	1	0	3	0
23	82	0	10000	3	1	0	3	0
23	83	0	10000	3	1	0	3	0
22	84	0	10000	3	1	0	3	0
23	85	0	10000	3	1	0	3	0
26	86	0	10000	3	1	0	3	0
26	87	0	10000	3	1	0	3	0
25	88	0	10000	3	1	0	3	0
25	89	0	10000	3	1	0	3	0
24	90	0	10000	3	1	0	3	0
24	91	0	10000	3	1	0	3	0
23	92	0	10000	3	1	0	3	0
22	93	0	10000	3	1	0	3	0
23	94	0	10000	3	1	0	3	0
23	95	0	10000	3	1	0	3	0
23	96	0	10000	3	1	0	3	0
23	97	0	10000	3	1	0	3	0
23	98	0	10000	3	1	0	3	0
25	99	0	10000	3	1	0	3	0
26	100	0	10000	3	1	0	3	0
26	101	0	10000	3	1	0	3	0
26	102	0	10000	3	1	0	3	0
26	103	0	10000	3	1	0	3	0
25	104	0	10000	3	1	0	3	0
24	105	0	10000	3	1	0	3	0
25	106	0	10000	3	1	0	3	0
25	107	0	10000	3	1	0	3	0
26	108	0	10000	3	1	0	3	0
25	109	0	10000	3	1	0	3	0
25	110	0	10000	3	1	0	3	0
24	111	0	10000	3	1	0	3	0
22	112	0	10000	3	1	0	3	0
22	113	0	10000	3	1	0	3	0
22	114	0	10000	3	1	0	3	0
21	115	0	10000	3	1	0	3	0
19	116	0	10000	3	1	0	3	0
19	117	0	10000	3	1	0	3	0
20	118	0	10000	3	1	0	3	0
20	119	0	10000	3	1	0	3	0
20	120	0	10000	3	1	0	3	0
20	121	0	10000	3	1	0	3	0
20	122	0	10000	3	1	0	3	0
21	123	0	10000	3	1	0	3	0
23	124	0	10000	3	1	0	3	0
25	125	0	10000	3	1	0	3	0
29	126	0	10000	3	1	0	3	0
29	127	0	10000	3	1	0	3	0
28	128	0	10000	3	1	0	3	0
29	129	0	10000	3	1	0	3	0
29	130	0	10000	3	1	0	3	0
30	131	0	10000	3	1	0	3	0
32	132	0	10000	3	1	0	3	0
32	133	0	10000	3	1	0	3	0
32	134	0	10000	3	1	0	3	0
34	135	0	10000	3	1	0	3	0
30	136	0	10000	3	1	0	3	0
30	137	0	10000	3	1	0	3	0
32	138	0	10000	3	1	0	3	0
32	139	0	10000	3	1	0	3	0
33	140	0	10000	3	1	0	3	0
35	141	0	10000	3	1	0	3	0
36	142	0	10000	3	1	0	3	0
34	143	0	10000	3	1	0	3	0
34	144	0	10000	3	1	0	3	0
33	145	0	10000	3	1	0	3	0
34	146	0	10000	3	1	0	3	0
35	147	0	10000	3	1	0	3	0
34	148	0	10000	3	1	0	3	0
33	149	0	10000	3	1	0	3	0
32	150	0	10000	3	1	0	3	0
31	151	0	10000	3	1	0	3	0
30	152	0	10000	3	1	0	3	0
29	153	0	10000	3	1	0	3	0
29	154	0	10000	3	1	0	3	0
29	155	0	10000	3	1	0	3	0
26	156	0	10000	3	1	0	3	0
27	157	0	10000	3	1	0	3	0
28	158	0	10000	3	1	0	3	0
30	159	0	10000	3	1	0	3	0
32	160	0	10000	3	1	0	3	0
32	161	0	10000	3	1	0	3	0
30	162	0	10000	3	1	0	3	0
29	163	0	10000	3	1	0	3	0
29	164	0	10000	3	1	0	3	0
29	165	0	10000	3	1	0	3	0
31	166	0	10000	3	1	0	3	0
32	167	0	10000	3	1	0	3	0
32	168	0	10000	3	1	0	3	0
33	169	0	10000	3	1	0	3	0
35	170	0	10000	3	1	0	3	0
34	171	0	10000	3	1	0	3	0
34	172	0	10000	3	1	0	3	0
34	173	0	10000	3	1	0	3	0
34	174	0	10000	3	1	0	3	0
33	175	0	10000	3	1	0	3	0
31	176	0	10000	3	1	0	3	0
31	177	0	10000	3	1	0	3	0
32	178	0	10000	3	1	0	3	0
30	179	0	10000	3	1	0	3	0
32	180	0	10000	3	1	0	3	0
34	181	0	10000	3	1	0	3	0
34	182	0	10000	3	1	0	3	0
33	183	0	10000	3	1	0	3	0
34	184	0	10000	3	1	0	3	0
32	185	0	10000	3	1	0	3	0
33	186	0	10000	3	1	0	3	0
32	187	0	10000	3	1	0	3	0
30	188	0	10000	3	1	0	3	0
29	189	0	10000	3	1	0	3	0
28	190	0	10000	3	1	0	3	0
28	191	0	10000	3	1	0	3	0
28	192	0	10000	3	1	0	3	0
28	193	0	10000	3	1	0	3	0
27	194	0	10000	3	1	0	3	0
27	195	0	10000	3	1	0	3	0
25	196	0	10000	3	1	0	3	0
26	197	0	10000	3	1	0	3	0
26	198	0	10000	3	1	0	3	0
25	199	0	10000	3	1	0	3	0
24	200	0	10000	3	1	0	3	0
23	201	0	10000	3	1	0	3	0
23	202	0	10000	3	1	0	3	0
23	203	0	10000	3	1	0	3	0
22	204	0	10000	3	1	0	3	0
21	205	0	10000	3	1	0	3	0
22	206	0	10000	3	1	0	3	0
22	207	0	10000	3	1	0	3	0
21	208	0	10000	3	1	0	3	0
21	209	0	10000	3	1	0	3	0
20	210	0	10000	3	1	0	3	0
20	211	0	10000	3	1	0	3	0
20	212	0	10000	3	1	0	3	0
20	213	0	10000	3	1	0	3	0
20	214	0	10000	3	1	0	3	0
20	215	0	10000	3	1	0	3	0
18	216	0	10000	3	1	0	3	0
17	217	0	10000	3	1	0	3	0
17	218	0	10000	3	1	0	3	0
18	219	0	10000	3	1	0	3	0
17	220	0	10000	3	1	0	3	0
17	221	0	10000	3	1	0	3	0
16	222	0	10000	3	1	0	3	0
15	223	0	10000	3	1	0	3	0
16	224	0	10000	3	1	0	3	0
15	225	0	10000	3	1	0	3	0
17	226	0	10000	3	1	0	3	0
17	227	0	10000	3	1	0	3	0
16	228	0	10000	3	1	0	3	0
14	229	0	10000	3	1	0	3	0
17	230	0	10000	3	1	0	3	0
18	231	0	10000	3	1	0	3	0
19	232	0	10000	3	1	0	3	0
21	233	0	10000	3	1	0	3	0
20	234	0	10000	3	1	0	3	0
21	235	0	10000	3	1	0	3	0
22	236	0	10000	3	1	0	3	0
21	237	0	10000	3	1	0	3	0
22	238	0	10000	3	1	0	3	0
24	239	0	10000	3	1	0	3	0
24	240	0	10000	3	1	0	3	0
26	241	0	10000	3	1	0	3	0
28	242	0	10000	3	1	0	3	0
27	243	0	10000	3	1	0	3	0
25	244	0	10000	3	1	0	3	0
24	245	0	10000	3	1	0	3	0
25	246	0	10000	3	1	0	3	0
26	247	0	10000	3	1	0	3	0
28	248	0	10000	3	1	0	3	0
27	249	0	10000	3	1	0	3	0
27	250	0	10000	3	1	0	3	0
28	251	0	10000	3	1	0	3	0
31	252	0	10000	3	1	0	3	0
32	253	0	10000	3	1	0	3	0
31	254	0	10000	3	1	0	3	0
30	255	0	10000	3	1	0	3	0
28	256	0	10000	3	1	0	3	0
28	257	0	10000	3	1	0	3	0
29	258	0	10000	3	1	0	3	0
31	259	0	10000	3	1	0	3	0
30	260	0	10000	3	1	0	3	0
31	261	0	10000	3	1	0	3	0
32	262	0	10000	3	1	0	3	0
34	263	0	10000	3	1	0	3	0
35	264	0	10000	3	1	0	3	0
36	265	0	10000	3	1	0	3	0
37	266	0	10000	3	1	0	3	0
36	267	0	10000	3	1	0	3	0
36	268	0	10000	3	1	0	3	0
38	269	0	10000	3	1	0	3	0
38	270	0	10000	3	1	0	3	0
38	271	0	10000	3	1	0	3	0
37	272	0	10000	3	1	0	3	0
39	273	0	10000	3	1	0	3	0
37	274	0	10000	3	1	0	3	0
37	275	0	10000	3	1	0	3	0
35	276	0	10000	3	1	0	3	0
36	277	0	10000	3	1	0	3	0
36	278	0	10000	3	1	0	3	0
36	279	0	10000	3	1	0	3	0
34	280	0	10000	3	1	0	3	0
34	281	0	10000	3	1	0	3	0
34	282	0	10000	3	1	0	3	0
32	283	0	10000	3	1	0	3	0
32	284	0	10000	3	1	0	3	0
33	285	0	10000	3	1	0	3	0
34	286	0	10000	3	1	0	3	0
35	287	0	10000	3	1	0	3	0
34	288	0	10000	3	1	0	3	0
31	289	0	10000	3	1	0	3	0
31	290	0	10000	3	1	0	3	0
32	291	0	10000	3	1	0	3	0
30	292	0	10000	3	1	0	3	0
30	293	0	10000	3	1	0	3	0
31	294	0	10000	3	1	0	3	0
33	295	0	10000	3	1	0	3	0
32	296	0	10000	3	1	0	3	0
32	297	0	10000	3	1	0	3	0
32	298	0	10000	3	1	0	3	0
33	299	0	10000	3	1	0	3	0
33	300	0	10000	3	1	0	3	0
34	301	0	10000	3	1	0	3	0
35	302	0	10000	3	1	0	3	0
36	303	0	10000	3	1	0	3	0
36	304	0	10000	3	1	0	3	0
36	305	0	10000	3	1	0	3	0
36	306	0	10000	3	1	0	3	0
35	307	0	10000	3	1	0	3	0
34	308	0	10000	3	1	0	3	0
33	309	0	10000	3	1	0	3	0
32	310	0	10000	3	1	0	3	0
30	311	0	10000	3	1	0	3	0
30	312	0	10000	3	1	0	3	0
30	313	0	10000	3	1	0	3	0
30	314	0	10000	3	1	0	3	0
29	315	0	10000	3	1	0	3	0
28	316	0	10000	3	1	0	3	0
30	317	0	10000	3	1	0	3	0
31	318	0	10000	3	1	0	3	0
32	319	0	10000	3	1	0	3	0
32	320	0	10000	3	1	0	3	0
31	321	0	10000	3	1	0	3	0
32	322	0	10000	3	1	0	3	0
32	323	0	10000	3	1	0	3	0
32	324	0	10000	3	1	0	3	0
32	325	0	10000	3	1	0	3	0
32	326	0	10000	3	1	0	3	0
32	327	0	10000	3	1	0	3	0
32	328	0	10000	3	1	0	3	0
30	329	0	10000	3	1	0	3	0
31	330	0	10000	3	1	0	3	0
34	331	0	10000	3	1	0	3	0
34	332	0	10000	3	1	0	3	0
36	333	0	10000	3	1	0	3	0
37	334	0	10000	3	1	0	3	0
35	335	0	10000	3	1	0	3	0
33	336	0	10000	3	1	0	3	0
33	337	0	10000	3	1	0	3	0
33	338	0	10000	3	1	0	3	0
33	339	0	10000	3	1	0	3	0
34	340	0	10000	3	1	0	3	0
35	341	0	10000	3	1	0	3	0
33	342	0	10000	3	1	0	3	0
33	343	0	10000	3	1	0	3	0
32	344	0	10000	3	1	0	3	0
30	345	0	10000	3	1	0	3	0
31	346	0	10000	3	1	0	3	0
30	347	0	10000	3	1	0	3	0
28	348	0	10000	3	1	0	3	0
27	349	0	10000	3	1	0	3	0
27	350	0	10000	3	1	0	3	0
26	351	0	10000	3	1	0	3	0
26	352	0	10000	3	1	0	3	0
25	353	0	10000	3	1	0	3	0
24	354	0	10000	3	1	0	3	0
23	355	0	10000	3	1	0	3	0
21	356	0	10000	3	1	0	3	0
22	357	0	10000	3	1	0	3	0
22	358	0	10000	3	1	0	3	0
22	359	0	10000	3	1	0	3	0
21	360	0	10000	3	1	0	3	0
22	361	0	10000	3	1	0	3	0
24	362	0	10000	3	1	0	3	0
25	363	0	10000	3	1	0	3	0
25	364	0	10000	3	1	0	3	0
23	365	0	10000	3	1	0	3	0
25	366	0	10000	3	1	0	3	0
24	367	0	10000	3	1	0	3	0
24	368	0	10000	3	1	0	3	0
23	369	0	10000	3	1	0	3	0
23	370	0	10000	3	1	0	3	0
24	371	0	10000	3	1	0	3	0
24	372	0	10000	3	1	0	3	0
26	373	0	10000	3	1	0	3	0
26	374	0	10000	3	1	0	3	0
26	375	0	10000	3	1	0	3	0
23	376	0	10000	3	1	0	3	0
24	377	0	10000	3	1	0	3	0
24	378	0	10000	3	1	0	3	0
26	379	0	10000	3	1	0	3	0
28	380	0	10000	3	1	0	3	0
27	381	0	10000	3	1	0	3	0
26	382	0	10000	3	1	0	3	0
26	383	0	10000	3	1	0	3	0
24	384	0	10000	3	1	0	3	0
23	385	0	10000	3	1	0	3	0
25	386	0	10000	3	1	0	3	0
24	387	0	10000	3	1	0	3	0
24	388	0	10000	3	1	0	3	0
24	389	0	10000	3	1	0	3	0
23	390	0	10000	3	1	0	3	0
25	391	0	10000	3	1	0	3	0
25	392	0	10000	3	1	0	3	0
25	393	0	10000	3	1	0	3	0
26	394	0	10000	3	1	0	3	0
27	395	0	10000	3	1	0	3	0
25	396	0	10000	3	1	0	3	0
24	397	0	10000	3	1	0	3	0
25	398	0	10000	3	1	0	3	0
25	399	0	10000	3	1	0	3	0
24	400	0	10000	3	1	0	3	0
24	401	0	10000	3	1	0	3	0
25	402	0	10000	3	1	0	3	0
24	403	0	10000	3	1	0	3	0
23	404	0	10000	3	1	0	3	0
23	405	0	10000	3	1	0	3	0
23	406	0	10000	3	1	0	3	0
22	407	0	10000	3	1	0	3	0
21	408	0	10000	3	1	0	3	0
22	409	0	10000	3	1	0	3	0
21	410	0	10000	3	1	0	3	0
21	411	0	10000	3	1	0	3	0
20	412	0	10000	3	1	0	3	0
22	413	0	10000	3	1	0	3	0
23	414	0	10000	3	1	0	3	0
25	415	0	10000	3	1	0	3	0
23	416	0	10000	3	1	0	3	0
24	417	0	10000	3	1	0	3	0
24	418	0	10000	3	1	0	3	0
24	419	0	10000	3	1	0	3	0
24	420	0	10000	3	1	0	3	0
24	421	0	10000	3	1	0	3	0
22	422	0	10000	3	1	0	3	0
23	423	0	10000	3	1	0	3	0
24	424	0	10000	3	1	0	3	0
24	425	0	10000	3	1	0	3	0
28	426	0	10000	3	1	0	3	0
28	427	0	10000	3	1	0	3	0
26	428	0	10000	3	1	0	3	0
26	429	0	10000	3	1	0	3	0
25	430	0	10000	3	1	0	3	0
23	431	0	10000	3	1	0	3	0
23	432	0	10000	3	1	0	3	0
23	433	0	10000	3	1	0	3	0
23	434	0	10000	3	1	0	3	0
23	435	0	10000	3	1	0	3	0
21	436	0	10000	3	1	0	3	0
21	437	0	10000	3	1	0	3	0
21	438	0	10000	3	1	0	3	0
20	439	0	10000	3	1	0	3	0
20	440	0	10000	3	1	0	3	0
21	441	0	10000	3	1	0	3	0
22	442	0	10000	3	1	0	3	0
21	443	0	10000	3	1	0	3	0
20	444	0	10000	3	1	0	3	0
20	445	0	10000	3	1	0	3	0
20	446	0	10000	3	1	0	3	0
20	447	0	10000	3	1	0	3	0
19	448	0	10000	3	1	0	3	0
19	449	0	10000	3	1	0	3	0
18	450	0	10000	3	1	0	3	0
19	451	0	10000	3	1	0	3	0
18	452	0	10000	3	1	0	3	0
20	453	0	10000	3	1	0	3	0
21	454	0	10000	3	1	0	3	0
22	455	0	10000	3	1	0	3	0
20	456	0	10000	3	1	0	3	0
19	457	0	10000	3	1	0	3	0
19	458	0	10000	3	1	0	3	0
19	459	0	10000	3	1	0	3	0
20	460	0	10000	3	1	0	3	0
20	461	0	10000	3	1	0	3	0
21	462	0	10000	3	1	0	3	0
20	463	0	10000	3	1	0	3	0
20	464	0	10000	3	1	0	3	0
19	465	0	10000	3	1	0	3	0
21	466	0	10000	3	1	0	3	0
20	467	0	10000	3	1	0	3	0
20	468	0	10000	3	1	0	3	0
20	469	0	10000	3	1	0	3	0
20	470	0	10000	3	1	0	3	0
20	471	0	10000	3	1	0	3	0
20	472	0	10000	3	1	0	3	0
19	473	0	10000	3	1	0	3	0
19	474	0	10000	3	1	0	3	0
19	475	0	10000	3	1	0	3	0
17	476	0	10000	3	1	0	3	0
17	477	0	10000	3	1	0	3	0
17	478	0	10000	3	1	0	3	0
17	479	0	10000	3	1	0	3	0
17	480	0	10000	3	1	0	3	0
17	481	0	10000	3	1	0	3	0
17	482	0	10000	3	1	0	3	0
16	483	0	10000	3	1	0	3	0
16	484	0	10000	3	1	0	3	0
15	485	0	10000	3	1	0	3	0
17	486	0	10000	3	1	0	3	0
17	487	0	10000	3	1	0	3	0
16	488	0	10000	3	1	0	3	0
15	489	0	10000	3	1	0	3	0
15	490	0	10000	3	1	0	3	0
15	491	0	10000	3	1	0	3	0
14	492	0	10000	3	1	0	3	0
14	493	0	10000	3	1	0	3	0
14	494	0	10000	3	1	0	3	0
13	495	0	10000	3	1	0	3	0
12	496	0	10000	3	1	0	3	0
14	497	0	10000	3	1	0	3	0
14	498	0	10000	3	1	0	3	0
15	499	0	10000	3	1	0	3	0
16	500	0	10000	3	1	0	3	0
16	501	0	10000	3	1	0	3	0
16	502	0	10000	3	1	0	3	1
15	503	0	10000	3	1	0	3	1
15	504	0	10000	3	1	0	3	1
15	505	0	10000	3	1	0	3	1
17	506	0	10000	3	1	0	3	1
17	507	0	10000	3	1	0	3	1
17	508	0	10000	3	1	0	3	1
17	509	0	10000	3	1	0	3	1
16	510	0	10000	3	1	0	3	1
16	511	0	10000	3	1	0	3	1
17	512	0	10000	3	1	0	3	1
17	513	0	10000	3	1	0	3	1
17	514	0	10000	3	1	0	3	1
17	515	0	10000	3	1	0	3	1
15	516	0	10000	3	1	0	3	1
14	517	0	10000	3	1	0	3	1
14	518	0	10000	3	1	0	3	1
15	519	0	10000	3	1	0	3	1
14	520	0	10000	3	1	0	3	1
16	521	0	10000	3	1	0	3	1
17	522	0	10000	3	1	0	3	1
16	523	0	10000	3	1	0	3	1
16	524	0	10000	3	1	0	3	1
15	525	0	10000	3	1	0	3	1
17	526	0	10000	3	1	0	3	1
20	527	0	10000	3	1	0	3	1
19	528	0	10000	3	1	0	3	1
20	529	0	10000	3	1	0	3	1
22	530	0	10000	3	1	0	3	1
21	531	0	10000	3	1	0	3	1
20	532	0	10000	3	1	0	3	1
21	533	0	10000	3	1	0	3	1
21	534	0	10000	3	1	0	3	1
21	535	0	10000	3	1	0	3	1
18	536	0	10000	3	1	0	3	1
18	537	0	10000	3	1	0	3	1
17	538	0	10000	3	1	0	3	1
18	539	0	10000	3	1	0	3	1
17	540	0	10000	3	1	0	3	1
18	541	0	10000	3	1	0	3	1
19	542	0	10000	3	1	0	3	1
20	543	0	10000	3	1	0	3	1
21	544	0	10000	3	1	0	3	1
20	545	0	10000	3	1	0	3	1
22	546	0	10000	3	1	0	3	1
20	547	0	10000	3	1	0	3	1
21	548	0	10000	3	1	0	3	1
20	549	0	10000	3	1	0	3	1
20	550	0	10000	3	1	0	3	1
19	551	0	10000	3	1	0	3	1
20	552	0	10000	3	1	0	3	0
20	553	0	10000	3	1	0	3	0
20	554	0	10000	3	1	0	3	0
21	555	0	10000	3	1	0	3	0
19	556	0	10000	3	1	0	3	0
19	557	0	10000	3	1	0	3	0
20	558	0	10000	3	1	0	3	0
19	559	0	10000	3	1	0	3	0
19	560	0	10000	3	1	0	3	0
19	561	0	10000	3	1	0	3	0
21	562	0	10000	3	1	0	3	0
21	563	0	10000	3	1	0	3	0
21	564	0	10000	3	1	0	3	0
21	565	0	10000	3	1	0	3	0
24	566	0	10000	3	1	0	3	0
25	567	0	10000	3	1	0	3	0
25	568	0	10000	3	1	0	3	0
26	569	0	10000	3	1	0	3	0
29	570	0	10000	3	1	0	3	0
30	571	0	10000	3	1	0	3	0
30	572	0	10000	3	1	0	3	0
32	573	0	10000	3	1	0	3	0
33	574	0	10000	3	1	0	3	0
34	575	0	10000	3	1	0	3	0
32	576	0	10000	3	1	0	3	0
30	577	0	10000	3	1	0	3	0
30	578	0	10000	3	1	0	3	0
32	579	0	10000	3	1	0	3	0
32	580	0	10000	3	1	0	3	0
34	581	0	10000	3	1	0	3	0
37	582	0	10000	3	1	0	3	0
38	583	0	10000	3	1	0	3	0
38	584	0	10000	3	1	0	3	0
37	585	0	10000	3	1	0	3	0
41	586	0	10000	3	1	0	3	0
44	587	0	10000	3	1	0	3	0
42	588	0	10000	3	1	0	3	0
45	589	0	10000	3	1	0	3	0
50	590	0	10000	3	1	0	3	0
57	591	0	10000	3	1	0	3	0
64	592	0	10000	3	1	0	3	0
67	593	0	10000	3	1	0	3	0
65	594	0	10000	3	1	0	3	0
66	595	0	10000	3	1	0	3	0
65	596	0	10000	3	1	0	3	0
68	597	0	10000	3	1	0	3	0
68	598	0	10000	3	1	0	3	0
71	599	0	10000	3	1	0	3	0
72	600	0	10000	3	1	0	3	0
81	601	0	10000	3	1	0	3	0
148	602	0	10000	3	1	0	3	0
225	603	0	10000	3	1	0	3	0
237	604	0	10000	3	1	0	3	0
253	605	0	10000	3	1	0	3	0
303	606	0	10000	3	1	0	3	0
359	607	0	10000	3	1	0	3	0
407	608	0	10000	3	1	0	3	0
433	609	0	10000	3	1	0	3	0
437	610	0	10000	3	1	0	3	0
426	611	0	10000	3	1	0	3	0
410	612	0	10000	3	1	0	3	0
447	613	0	10000	3	1	0	3	0
505	614	0	10000	3	1	0	3	0
538	615	0	10000	3	1	0	3	0
550	616	0	10000	3	1	0	3	0
545	617	0	10000	3	1	0	3	0
537	618	0	10000	3	1	0	3	0
559	619	0	10000	3	1	0	3	0
603	620	0	10000	3	1	0	3	0
642	621	0	10000	3	1	0	3	0
644	622	0	10000	3	1	0	3	0
623	623	0	10000	3	1	0	3	0
601	624	0	10000	3	1	0	3	0
580	625	0	10000	3	1	0	3	0
560	626	0	10000	3	1	0	3	0
535	627	0	10000	3	1	0	3	0
514	628	0	10000	3	1	0	3	0
496	629	0	10000	3	1	0	3	0
484	630	0	10000	3	1	0	3	0
476	631	0	10000	3	1	0	3	0
466	632	0	10000	3	1	0	3	0
457	633	0	10000	3	1	0	3	0
449	634	0	10000	3	1	0	3	0
437	635	0	10000	3	1	0	3	0
423	636	0	10000	3	1	0	3	0
411	637	0	10000	3	1	0	3	0
399	638	0	10000	3	1	0	3	0
386	639	0	10000	3	1	0	3	0
374	640	0	10000	3	1	0	3	0
362	641	0	10000	3	1	0	3	0
353	642	0	10000	3	1	0	3	0
344	643	0	10000	3	1	0	3	0
337	644	0	10000	3	1	0	3	0
329	645	0	10000	3	1	0	3	0
322	646	0	10000	3	1	0	3	0
312	647	0	10000	3	1	0	3	0
298	648	0	10000	3	1	0	3	0
286	649	0	10000	3	1	0	3	0
274	650	0	10000	3	1	0	3	0
263	651	0	10000	3	1	0	3	0
255	652	0	10000	3	1	0	3	0
250	653	0	10000	3	1	0	3	0
246	654	0	10000	3	1	0	3	0
244	655	0	10000	3	1	0	3	0
237	656	0	10000	3	1	0	3	0
234	657	0	10000	3	1	0	3	0
232	658	0	10000	3	1	0	3	0
228	659	0	10000	3	1	0	3	0
225	660	0	10000	3	1	0	3	0
223	661	0	10000	3	1	0	3	0
222	662	0	10000	3	1	0	3	0
217	663	0	10000	3	1	0	3	0
211	664	0	10000	3	1	0	3	0
207	665	0	10000	3	1	0	3	0
204	666	0	10000	3	1	0	3	0
200	667	0	10000	3	1	0	3	0
194	668	0	10000	3	1	0	3	0
187	669	0	10000	3	1	0	3	0
182	670	0	10000	3	1	0	3	0
181	671	0	10000	3	1	0	3	0
179	672	0	10000	3	1	0	3	0
182	673	0	10000	3	1	0	3	0
184	674	0	10000	3	1	0	3	0
184	675	0	10000	3	1	0	3	0
182	676	0	10000	3	1	0	3	0
180	677	0	10000	3	1	0	3	0
175	678	0	10000	3	1	0	3	0
170	679	0	10000	3	1	0	3	0
165	680	0	10000	3	1	0	3	0
159	681	0	10000	3	1	0	3	0
152	682	0	10000	3	1	0	3	0
146	683	0	10000	3	1	0	3	0
142	684	0	10000	3	1	0	3	0
139	685	0	10000	3	1	0	3	0
138	686	0	10000	3	1	0	3	0
134	687	0	10000	3	1	0	3	0
130	688	0	10000	3	1	0	3	0
128	689	0	10000	3	1	0	3	0
124	690	0	10000	3	1	0	3	0
119	691	0	10000	3	1	0	3	0
115	692	0	10000	3	1	0	3	0
110	693	0	10000	3	1	0	3	0
106	694	0	10000	3	1	0	3	0
105	695	0	10000	3	1	0	3	0
102	696	0	10000	3	1	0	3	0
100	697	0	10000	3	1	0	3	0
97	698	0	10000	3	1	0	3	0
94	699	0	10000	3	1	0	3	0
91	700	0	10000	3	1	0	3	0
90	701	0	10000	3	1	0	3	0
90	702	0	10000	3	1	0	3	0
89	703	0	10000	3	1	0	3	0
88	704	0	10000	3	1	0	3	0
88	705	0	10000	3	1	0	3	0
89	706	0	10000	3	1	0	3	0
87	707	0	10000	3	1	0	3	0
84	708	0	10000	3	1	0	3	0
81	709	0	10000	3	1	0	3	0
78	710	0	10000	3	1	0	3	0
74	711	0	10000	3	1	0	3	0
72	712	0	10000	3	1	0	3	0
70	713	0	10000	3	1	0	3	0
69	714	0	10000	3	1	0	3	0
66	715	0	10000	3	1	0	3	0
61	716	0	10000	3	1	0	3	0
60	717	0	10000	3	1	0	3	0
57	718	0	10000	3	1	0	3	0
55	719	0	10000	3	1	0	3	0
54	720	0	10000	3	1	0	3	0
51	721	0	10000	3	1	0	3	0
50	722	0	10000	3	1	0	3	0
48	723	0	10000	3	1	0	3	0
48	724	0	10000	3	1	0	3	0
51	725	0	10000	3	1	0	3	0
56	726	0	10000	3	1	0	3	0
58	727	0	10000	3	1	0	3	0
59	728	0	10000	3	1	0	3	0
61	729	0	10000	3	1	0	3	0
62	730	0	10000	3	1	0	3	0
62	731	0	10000	3	1	0	3	0
60	732	0	10000	3	1	0	3	0
58	733	0	10000	3	1	0	3	0
56	734	0	10000	3	1	0	3	0
55	735	0	10000	3	1	0	3	0
53	736	0	10000	3	1	0	3	0
52	737	0	10000	3	1	0	3	0
50	738	0	10000	3	1	0	3	0
48	739	0	10000	3	1	0	3	0
48	740	0	10000	3	1	0	3	0
50	741	0	10000	3	1	0	3	0
52	742	0	10000	3	1	0	3	0
53	743	0	10000	3	1	0	3	0
56	744	0	10000	3	1	0	3	0
58	745	0	10000	3	1	0	3	0
62	746	0	10000	3	1	0	3	0
64	747	0	10000	3	1	0	3	0
65	748	0	10000	3	1	0	3	0
64	749	0	10000	3	1	0	3	0
63	750	0	10000	3	1	0	3	0
63	751	0	10000	3	1	0	3	0
61	752	0	10000	3	1	0	3	0
61	753	0	10000	3	1	0	3	0
60	754	0	10000	3	1	0	3	0
57	755	0	10000	3	1	0	3	0
54	756	0	10000	3	1	0	3	0
52	757	0	10000	3	1	0	3	0
49	758	0	10000	3	1	0	3	0
48	759	0	10000	3	1	0	3	0
47	760	0	10000	3	1	0	3	0
45	761	0	10000	3	1	0	3	0
45	762	0	10000	3	1	0	3	0
46	763	0	10000	3	1	0	3	0
47	764	0	10000	3	1	0	3	0
49	765	0	10000	3	1	0	3	0
52	766	0	10000	3	1	0	3	0
51	767	0	10000	3	1	0	3	0
49	768	0	10000	3	1	0	3	0
49	769	0	10000	3	1	0	3	0
49	770	0	10000	3	1	0	3	0
49	771	0	10000	3	1	0	3	0
47	772	0	10000	3	1	0	3	0
45	773	0	10000	3	1	0	3	0
44	774	0	10000	3	1	0	3	0
45	775	0	10000	3	1	0	3	0
42	776	0	10000	3	1	0	3	0
40	777	0	10000	3	1	0	3	0
41	778	0	10000	3	1	0	3	0
44	779	0	10000	3	1	0	3	0
45	780	0	10000	3	1	0	3	0
44	781	0	10000	3	1	0	3	0
45	782	0	10000	3	1	0	3	0
48	783	0	10000	3	1	0	3	0
53	784	0	10000	3	1	0	3	0
57	785	0	10000	3	1	0	3	0
62	786	0	10000	3	1	0	3	0
64	787	0	10000	3	1	0	3	0
63	788	0	10000	3	1	0	3	0
62	789	0	10000	3	1	0	3	0
59	790	0	10000	3	1	0	3	0
59	791	0	10000	3	1	0	3	0
59	792	0	10000	3	1	0	3	0
61	793	0	10000	3	1	0	3	0
61	794	0	10000	3	1	0	3	0
63	795	0	10000	3	1	0	3	0
60	796	0	10000	3	1	0	3	0
59	797	0	10000	3	1	0	3	0
57	798	0	10000	3	1	0	3	0
55	799	0	10000	3	1	0	3	0
53	800	0	10000	3	1	0	3	0
51	801	0	10000	3	1	0	3	0
49	802	0	10000	3	1	0	3	0
47	803	0	10000	3	1	0	3	0
45	804	0	10000	3	1	0	3	0
44	805	0	10000	3	1	0	3	0
44	806	0	10000	3	1	0	3	0
45	807	0	10000	3	1	0	3	0
45	808	0	10000	3	1	0	3	0
45	809	0	10000	3	1	0	3	0
46	810	0	10000	3	1	0	3	0
46	811	0	10000	3	1	0	3	0
45	812	0	10000	3	1	0	3	0
46	813	0	10000	3	1	0	3	0
46	814	0	10000	3	1	0	3	0
47	815	0	10000	3	1	0	3	0
46	816	0	10000	3	1	0	3	0
46	817	0	10000	3	1	0	3	0
46	818	0	10000	3	1	0	3	0
46	819	0	10000	3	1	0	3	0
45	820	0	10000	3	1	0	3	0
44	821	0	10000	3	1	0	3	0
42	822	0	10000	3	1	0	3	0
40	823	0	10000	3	1	0	3	0
39	824	0	10000	3	1	0	3	0
36	825	0	10000	3	1	0	3	0
37	826	0	10000	3	1	0	3	0
35	827	0	10000	3	1	0	3	0
34	828	0	10000	3	1	0	3	0
32	829	0	10000	3	1	0	3	0
31	830	0	10000	3	1	0	3	0
31	831	0	10000	3	1	0	3	0
32	832	0	10000	3	1	0	3	0
34	833	0	10000	3	1	0	3	0
35	834	0	10000	3	1	0	3	0
33	835	0	10000	3	1	0	3	0
31	836	0	10000	3	1	0	3	0
30	837	0	10000	3	1	0	3	0
30	838	0	10000	3	1	0	3	0
30	839	0	10000	3	1	0	3	0
31	840	0	10000	3	1	0	3	0
31	841	0	10000	3	1	0	3	0
32	842	0	10000	3	1	0	3	0
32	843	0	10000	3	1	0	3	0
32	844	0	10000	3	1	0	3	0
32	845	0	10000	3	1	0	3	0
34	846	0	10000	3	1	0	3	0
36	847	0	10000	3	1	0	3	0
36	848	0	10000	3	1	0	3	0
35	849	0	10000	3	1	0	3	0
33	850	0	10000	3	1	0	3	0
33	851	0	10000	3	1	0	3	0
33	852	0	10000	3	1	0	3	0
35	853	0	10000	3	1	0	3	0
36	854	0	10000	3	1	0	3	0
38	855	0	10000	3	1	0	3	0
37	856	0	10000	3	1	0	3	0
37	857	0	10000	3	1	0	3	0
39	858	0	10000	3	1	0	3	0
39	859	0	10000	3	1	0	3	0
38	860	0	10000	3	1	0	3	0
38	861	0	10000	3	1	0	3	0
36	862	0	10000	3	1	0	3	0
34	863	0	10000	3	1	0	3	0
34	864	0	10000	3	1	0	3	0
32	865	0	10000	3	1	0	3	0
33	866	0	10000	3	1	0	3	0
33	867	0	10000	3	1	0	3	0
31	868	0	10000	3	1	0	3	0
31	869	0	10000	3	1	0	3	0
32	870	0	10000	3	1	0	3	0
32	871	0	10000	3	1	0	3	0
32	872	0	10000	3	1	0	3	0
32	873	0	10000	3	1	0	3	0
32	874	0	10000	3	1	0	3	0
33	875	0	10000	3	1	0	3	0
35	876	0	10000	3	1	0	3	0
37	877	0	10000	3	1	0	3	0
37	878	0	10000	3	1	0	3	0
36	879	0	10000	3	1	0	3	0
35	880	0	10000	3	1	0	3	0
35	881	0	10000	3	1	0	3	0
35	882	0	10000	3	1	0	3	0
37	883	0	10000	3	1	0	3	0
40	884	0	10000	3	1	0	3	0
39	885	0	10000	3	1	0	3	0
40	886	0	10000	3	1	0	3	0
39	887	0	10000	3	1	0	3	0
38	888	0	10000	3	1	0	3	0
38	889	0	10000	3	1	0	3	0
36	890	0	10000	3	1	0	3	0
35	891	0	10000	3	1	0	3	0
33	892	0	10000	3	1	0	3	0
32	893	0	10000	3	1	0	3	0
32	894	0	10000	3	1	0	3	0
34	895	0	10000	3	1	0	3	0
34	896	0	10000	3	1	0	3	0
35	897	0	10000	3	1	0	3	0
40	898	0	10000	3	1	0	3	0
42	899	0	10000	3	1	0	3	0
43	900	0	10000	3	1	0	3	0
44	901	0	10000	3	1	0	3	0
43	902	0	10000	3	1	0	3	0
44	903	0	10000	3	1	0	3	0
46	904	0	10000	3	1	0	3	0
47	905	0	10000	3	1	0	3	0
51	906	0	10000	3	1	0	3	0
54	907	0	10000	3	1	0	3	0
51	908	0	10000	3	1	0	3	0
50	909	0	10000	3	1	0	3	0
48	910	0	10000	3	1	0	3	0
46	911	0	10000	3	1	0	3	0
44	912	0	10000	3	1	0	3	0
44	913	0	10000	3	1	0	3	0
42	914	0	10000	3	1	0	3	0
41	915	0	10000	3	1	0	3	0
39	916	0	10000	3	1	0	3	0
42	917	0	10000	3	1	0	3	0
42	918	0	10000	3	1	0	3	0
42	919	0	10000	3	1	0	3	0
40	920	0	10000	3	1	0	3	0
40	921	0	10000	3	1	0	3	0
41	922	0	10000	3	1	0	3	0
40	923	0	10000	3	1	0	3	0
38	924	0	10000	3	1	0	3	0
39	925	0	10000	3	1	0	3	0
41	926	0	10000	3	1	0	3	0
39	927	0	10000	3	1	0	3	0
38	928	0	10000	3	1	0	3	0
37	929	0	10000	3	1	0	3	0
36	930	0	10000	3	1	0	3	0
36	931	0	10000	3	1	0	3	0
34	932	0	10000	3	1	0	3	0
33	933	0	10000	3	1	0	3	0
33	934	0	10000	3	1	0	3	0
33	935	0	10000	3	1	0	3	0
30	936	0	10000	3	1	0	3	0
30	937	0	10000	3	1	0	3	0
30	938	0	10000	3	1	0	3	0
30	939	0	10000	3	1	0	3	0
29	940	0	10000	3	1	0	3	0
29	941	0	10000	3	1	0	3	0
30	942	0	10000	3	1	0	3	0
35	943	0	10000	3	1	0	3	0
40	944	0	10000	3	1	0	3	0
40	945	0	10000	3	1	0	3	0
43	946	0	10000	3	1	0	3	0
45	947	0	10000	3	1	0	3	0
43	948	0	10000	3	1	0	3	0
43	949	0	10000	3	1	0	3	0
44	950	0	10000	3	1	0	3	0
47	951	0	10000	3	1	0	3	0
51	952	0	10000	3	1	0	3	0
51	953	0	10000	3	1	0	3	0
50	954	0	10000	3	1	0	3	0
49	955	0	10000	3	1	0	3	0
45	956	0	10000	3	1	0	3	0
44	957	0	10000	3	1	0	3	0
43	958	0	10000	3	1	0	3	0
42	959	0	10000	3	1	0	3	0
41	960	0	10000	3	1	0	3	0
41	961	0	10000	3	1	0	3	0
42	962	0	10000	3	1	0	3	0
40	963	0	10000	3	1	0	3	0
39	964	0	10000	3	1	0	3	0
40	965	0	10000	3	1	0	3	0
40	966	0	10000	3	1	0	3	0
41	967	0	10000	3	1	0	3	0
41	968	0	10000	3	1	0	3	0
42	969	0	10000	3	1	0	3	0
41	970	0	10000	3	1	0	3	0
44	971	0	10000	3	1	0	3	0
52	972	0	10000	3	1	0	3	0
57	973	0	10000	3	1	0	3	0
57	974	0	10000	3	1	0	3	0
55	975	0	10000	3	1	0	3	0
51	976	0	10000	3	1	0	3	0
49	977	0	10000	3	1	0	3	0
48	978	0	10000	3	1	0	3	0
51	979	0	10000	3	1	0	3	0
51	980	0	10000	3	1	0	3	0
51	981	0	10000	3	1	0	3	0
56	982	0	10000	3	1	0	3	0
59	983	0	10000	3	1	0	3	0
61	984	0	10000	3	1	0	3	0
59	985	0	10000	3	1	0	3	0
60	986	0	10000	3	1	0	3	0
58	987	0	10000	3	1	0	3	0
57	988	0	10000	3	1	0	3	0
60	989	0	10000	3	1	0	3	0
61	990	0	10000	3	1	0	3	0
59	991	0	10000	3	1	0	3	0
59	992	0	10000	3	1	0	3	0
59	993	0	10000	3	1	0	3	0
59	994	0	10000	3	1	0	3	0
59	995	0	10000	3	1	0	3	0
57	996	0	10000	3	1	0	3	0
56	997	0	10000	3	1	0	3	0
63	998	0	10000	3	1	0	3	0
66	999	0	10000	3	1	0	3	0
66	1000	0	10000	3	1	0	3	0
69	1001	0	10000	3	1	0	3	0
62	1	7	10000	4	1	0	4	0
63	2	7	10000	4	1	0	4	0
60	3	7	10000	4	1	0	4	0
62	4	7	10000	4	1	0	4	0
62	5	7	10000	4	1	0	4	0
61	6	7	10000	4	1	0	4	0
56	7	7	10000	4	1	0	4	0
55	8	7	10000	4	1	0	4	0
53	9	7	10000	4	1	0	4	0
53	10	7	10000	4	1	0	4	0
54	11	7	10000	4	1	0	4	0
54	12	7	10000	4	1	0	4	0
55	13	7	10000	4	1	0	4	0
56	14	7	10000	4	1	0	4	0
57	15	7	10000	4	1	0	4	0
56	16	7	10000	4	1	0	4	0
56	17	7	10000	4	1	0	4	0
54	18	7	10000	4	1	0	4	0
54	19	7	10000	4	1	0	4	0
55	20	7	10000	4	1	0	4	0
56	21	7	10000	4	1	0	4	0
58	22	7	10000	4	1	0	4	0
59	23	7	10000	4	1	0	4	0
58	24	7	10000	4	1	0	4	0
56	25	7	10000	4	1	0	4	0
55	26	7	10000	4	1	0	4	0
50	27	7	10000	4	1	0	4	0
49	28	7	10000	4	1	0	4	0
47	29	7	10000	4	1	0	4	0
45	30	7	10000	4	1	0	4	0
44	31	7	10000	4	1	0	4	0
42	32	7	10000	4	1	0	4	0
40	33	7	10000	4	1	0	4	0
39	34	7	10000	4	1	0	4	0
37	35	7	10000	4	1	0	4	0
35	36	7	10000	4	1	0	4	0
38	37	7	10000	4	1	0	4	0
36	38	7	10000	4	1	0	4	0
35	39	7	10000	4	1	0	4	0
33	40	7	10000	4	1	0	4	0
32	41	7	10000	4	1	0	4	0
31	42	7	10000	4	1	0	4	0
31	43	7	10000	4	1	0	4	0
32	44	7	10000	4	1	0	4	0
32	45	7	10000	4	1	0	4	0
34	46	7	10000	4	1	0	4	0
34	47	7	10000	4	1	0	4	0
34	48	7	10000	4	1	0	4	0
35	49	7	10000	4	1	0	4	0
34	50	7	10000	4	1	0	4	0
33	51	7	10000	4	1	0	4	0
33	52	7	10000	4	1	0	4	0
32	53	7	10000	4	1	0	4	0
31	54	7	10000	4	1	0	4	0
31	55	7	10000	4	1	0	4	0
31	56	7	10000	4	1	0	4	0
32	57	7	10000	4	1	0	4	0
31	58	7	10000	4	1	0	4	0
31	59	7	10000	4	1	0	4	0
30	60	7	10000	4	1	0	4	0
30	61	7	10000	4	1	0	4	0
30	62	7	10000	4	1	0	4	0
30	63	7	10000	4	1	0	4	0
30	64	7	10000	4	1	0	4	0
31	65	7	10000	4	1	0	4	0
30	66	7	10000	4	1	0	4	0
29	67	7	10000	4	1	0	4	0
30	68	7	10000	4	1	0	4	0
30	69	7	10000	4	1	0	4	0
30	70	7	10000	4	1	0	4	0
28	71	7	10000	4	1	0	4	0
27	72	7	10000	4	1	0	4	0
27	73	7	10000	4	1	0	4	0
27	74	7	10000	4	1	0	4	0
26	75	7	10000	4	1	0	4	0
27	76	7	10000	4	1	0	4	0
29	77	7	10000	4	1	0	4	0
29	78	7	10000	4	1	0	4	0
29	79	7	10000	4	1	0	4	0
28	80	7	10000	4	1	0	4	0
28	81	7	10000	4	1	0	4	0
28	82	7	10000	4	1	0	4	0
27	83	7	10000	4	1	0	4	0
27	84	7	10000	4	1	0	4	0
27	85	7	10000	4	1	0	4	0
28	86	7	10000	4	1	0	4	0
27	87	7	10000	4	1	0	4	0
26	88	7	10000	4	1	0	4	0
26	89	7	10000	4	1	0	4	0
24	90	7	10000	4	1	0	4	0
24	91	7	10000	4	1	0	4	0
24	92	7	10000	4	1	0	4	0
24	93	7	10000	4	1	0	4	0
23	94	7	10000	4	1	0	4	0
23	95	7	10000	4	1	0	4	0
24	96	7	10000	4	1	0	4	0
27	97	7	10000	4	1	0	4	0
28	98	7	10000	4	1	0	4	0
29	99	7	10000	4	1	0	4	0
29	100	7	10000	4	1	0	4	0
29	101	7	10000	4	1	0	4	0
30	102	7	10000	4	1	0	4	0
29	103	7	10000	4	1	0	4	0
29	104	7	10000	4	1	0	4	0
31	105	7	10000	4	1	0	4	0
32	106	7	10000	4	1	0	4	0
28	107	7	10000	4	1	0	4	0
28	108	7	10000	4	1	0	4	0
30	109	7	10000	4	1	0	4	0
33	110	7	10000	4	1	0	4	0
33	111	7	10000	4	1	0	4	0
32	112	7	10000	4	1	0	4	0
32	113	7	10000	4	1	0	4	0
31	114	7	10000	4	1	0	4	0
30	115	7	10000	4	1	0	4	0
29	116	7	10000	4	1	0	4	0
30	117	7	10000	4	1	0	4	0
29	118	7	10000	4	1	0	4	0
28	119	7	10000	4	1	0	4	0
28	120	7	10000	4	1	0	4	0
28	121	7	10000	4	1	0	4	0
30	122	7	10000	4	1	0	4	0
33	123	7	10000	4	1	0	4	0
36	124	7	10000	4	1	0	4	0
37	125	7	10000	4	1	0	4	0
39	126	7	10000	4	1	0	4	0
38	127	7	10000	4	1	0	4	0
38	128	7	10000	4	1	0	4	0
36	129	7	10000	4	1	0	4	0
35	130	7	10000	4	1	0	4	0
35	131	7	10000	4	1	0	4	0
35	132	7	10000	4	1	0	4	0
33	133	7	10000	4	1	0	4	0
33	134	7	10000	4	1	0	4	0
32	135	7	10000	4	1	0	4	0
34	136	7	10000	4	1	0	4	0
40	137	7	10000	4	1	0	4	0
44	138	7	10000	4	1	0	4	0
47	139	7	10000	4	1	0	4	0
51	140	7	10000	4	1	0	4	0
57	141	7	10000	4	1	0	4	0
58	142	7	10000	4	1	0	4	0
62	143	7	10000	4	1	0	4	0
66	144	7	10000	4	1	0	4	0
69	145	7	10000	4	1	0	4	0
73	146	7	10000	4	1	0	4	0
75	147	7	10000	4	1	0	4	0
79	148	7	10000	4	1	0	4	0
82	149	7	10000	4	1	0	4	0
87	150	7	10000	4	1	0	4	0
90	151	7	10000	4	1	0	4	0
91	152	7	10000	4	1	0	4	0
92	153	7	10000	4	1	0	4	0
91	154	7	10000	4	1	0	4	0
90	155	7	10000	4	1	0	4	0
91	156	7	10000	4	1	0	4	0
94	157	7	10000	4	1	0	4	0
96	158	7	10000	4	1	0	4	0
100	159	7	10000	4	1	0	4	0
103	160	7	10000	4	1	0	4	0
105	161	7	10000	4	1	0	4	0
108	162	7	10000	4	1	0	4	0
109	163	7	10000	4	1	0	4	0
109	164	7	10000	4	1	0	4	0
107	165	7	10000	4	1	0	4	0
104	166	7	10000	4	1	0	4	0
101	167	7	10000	4	1	0	4	0
100	168	7	10000	4	1	0	4	0
100	169	7	10000	4	1	0	4	0
99	170	7	10000	4	1	0	4	0
96	171	7	10000	4	1	0	4	0
97	172	7	10000	4	1	0	4	0
98	173	7	10000	4	1	0	4	0
97	174	7	10000	4	1	0	4	0
95	175	7	10000	4	1	0	4	0
93	176	7	10000	4	1	0	4	0
93	177	7	10000	4	1	0	4	0
90	178	7	10000	4	1	0	4	0
87	179	7	10000	4	1	0	4	0
84	180	7	10000	4	1	0	4	0
81	181	7	10000	4	1	0	4	0
79	182	7	10000	4	1	0	4	0
78	183	7	10000	4	1	0	4	0
77	184	7	10000	4	1	0	4	0
73	185	7	10000	4	1	0	4	0
70	186	7	10000	4	1	0	4	0
67	187	7	10000	4	1	0	4	0
64	188	7	10000	4	1	0	4	0
63	189	7	10000	4	1	0	4	0
64	190	7	10000	4	1	0	4	0
66	191	7	10000	4	1	0	4	0
68	192	7	10000	4	1	0	4	0
73	193	7	10000	4	1	0	4	0
77	194	7	10000	4	1	0	4	0
82	195	7	10000	4	1	0	4	0
88	196	7	10000	4	1	0	4	0
95	197	7	10000	4	1	0	4	0
99	198	7	10000	4	1	0	4	0
103	199	7	10000	4	1	0	4	0
107	200	7	10000	4	1	0	4	0
111	201	7	10000	4	1	0	4	0
116	202	7	10000	4	1	0	4	0
122	203	7	10000	4	1	0	4	0
132	204	7	10000	4	1	0	4	0
138	205	7	10000	4	1	0	4	0
141	206	7	10000	4	1	0	4	0
140	207	7	10000	4	1	0	4	0
140	208	7	10000	4	1	0	4	0
137	209	7	10000	4	1	0	4	0
134	210	7	10000	4	1	0	4	0
133	211	7	10000	4	1	0	4	0
136	212	7	10000	4	1	0	4	0
138	213	7	10000	4	1	0	4	0
140	214	7	10000	4	1	0	4	0
142	215	7	10000	4	1	0	4	0
145	216	7	10000	4	1	0	4	0
149	217	7	10000	4	1	0	4	0
151	218	7	10000	4	1	0	4	0
152	219	7	10000	4	1	0	4	0
155	220	7	10000	4	1	0	4	0
158	221	7	10000	4	1	0	4	0
160	222	7	10000	4	1	0	4	0
162	223	7	10000	4	1	0	4	0
166	224	7	10000	4	1	0	4	0
168	225	7	10000	4	1	0	4	0
169	226	7	10000	4	1	0	4	0
167	227	7	10000	4	1	0	4	0
165	228	7	10000	4	1	0	4	0
163	229	7	10000	4	1	0	4	0
159	230	7	10000	4	1	0	4	0
152	231	7	10000	4	1	0	4	0
147	232	7	10000	4	1	0	4	0
143	233	7	10000	4	1	0	4	0
138	234	7	10000	4	1	0	4	0
134	235	7	10000	4	1	0	4	0
133	236	7	10000	4	1	0	4	0
132	237	7	10000	4	1	0	4	0
129	238	7	10000	4	1	0	4	0
125	239	7	10000	4	1	0	4	0
119	240	7	10000	4	1	0	4	0
114	241	7	10000	4	1	0	4	0
110	242	7	10000	4	1	0	4	0
107	243	7	10000	4	1	0	4	0
107	244	7	10000	4	1	0	4	0
106	245	7	10000	4	1	0	4	0
103	246	7	10000	4	1	0	4	0
100	247	7	10000	4	1	0	4	0
99	248	7	10000	4	1	0	4	0
99	249	7	10000	4	1	0	4	0
96	250	7	10000	4	1	0	4	0
92	251	7	10000	4	1	0	4	0
90	252	7	10000	4	1	0	4	0
89	253	7	10000	4	1	0	4	0
85	254	7	10000	4	1	0	4	0
82	255	7	10000	4	1	0	4	0
78	256	7	10000	4	1	0	4	0
78	257	7	10000	4	1	0	4	0
77	258	7	10000	4	1	0	4	0
75	259	7	10000	4	1	0	4	0
72	260	7	10000	4	1	0	4	0
69	261	7	10000	4	1	0	4	0
66	262	7	10000	4	1	0	4	0
63	263	7	10000	4	1	0	4	0
61	264	7	10000	4	1	0	4	0
58	265	7	10000	4	1	0	4	0
56	266	7	10000	4	1	0	4	0
52	267	7	10000	4	1	0	4	0
50	268	7	10000	4	1	0	4	0
49	269	7	10000	4	1	0	4	0
47	270	7	10000	4	1	0	4	0
45	271	7	10000	4	1	0	4	0
44	272	7	10000	4	1	0	4	0
43	273	7	10000	4	1	0	4	0
42	274	7	10000	4	1	0	4	0
41	275	7	10000	4	1	0	4	0
40	276	7	10000	4	1	0	4	0
41	277	7	10000	4	1	0	4	0
40	278	7	10000	4	1	0	4	0
40	279	7	10000	4	1	0	4	0
38	280	7	10000	4	1	0	4	0
37	281	7	10000	4	1	0	4	0
37	282	7	10000	4	1	0	4	0
34	283	7	10000	4	1	0	4	0
34	284	7	10000	4	1	0	4	0
33	285	7	10000	4	1	0	4	0
32	286	7	10000	4	1	0	4	0
30	287	7	10000	4	1	0	4	0
30	288	7	10000	4	1	0	4	0
30	289	7	10000	4	1	0	4	0
31	290	7	10000	4	1	0	4	0
32	291	7	10000	4	1	0	4	0
32	292	7	10000	4	1	0	4	0
32	293	7	10000	4	1	0	4	0
32	294	7	10000	4	1	0	4	0
32	295	7	10000	4	1	0	4	0
31	296	7	10000	4	1	0	4	0
32	297	7	10000	4	1	0	4	0
32	298	7	10000	4	1	0	4	0
31	299	7	10000	4	1	0	4	0
30	300	7	10000	4	1	0	4	0
31	301	7	10000	4	1	0	4	0
33	302	7	10000	4	1	0	4	0
32	303	7	10000	4	1	0	4	0
32	304	7	10000	4	1	0	4	0
31	305	7	10000	4	1	0	4	0
31	306	7	10000	4	1	0	4	0
30	307	7	10000	4	1	0	4	0
31	308	7	10000	4	1	0	4	0
31	309	7	10000	4	1	0	4	0
32	310	7	10000	4	1	0	4	0
32	311	7	10000	4	1	0	4	0
32	312	7	10000	4	1	0	4	0
34	313	7	10000	4	1	0	4	0
34	314	7	10000	4	1	0	4	0
33	315	7	10000	4	1	0	4	0
32	316	7	10000	4	1	0	4	0
33	317	7	10000	4	1	0	4	0
32	318	7	10000	4	1	0	4	0
32	319	7	10000	4	1	0	4	0
32	320	7	10000	4	1	0	4	0
32	321	7	10000	4	1	0	4	0
33	322	7	10000	4	1	0	4	0
33	323	7	10000	4	1	0	4	0
33	324	7	10000	4	1	0	4	0
33	325	7	10000	4	1	0	4	0
32	326	7	10000	4	1	0	4	0
30	327	7	10000	4	1	0	4	0
29	328	7	10000	4	1	0	4	0
29	329	7	10000	4	1	0	4	0
29	330	7	10000	4	1	0	4	0
29	331	7	10000	4	1	0	4	0
29	332	7	10000	4	1	0	4	0
30	333	7	10000	4	1	0	4	0
33	334	7	10000	4	1	0	4	0
34	335	7	10000	4	1	0	4	0
37	336	7	10000	4	1	0	4	0
42	337	7	10000	4	1	0	4	0
43	338	7	10000	4	1	0	4	0
43	339	7	10000	4	1	0	4	0
42	340	7	10000	4	1	0	4	0
41	341	7	10000	4	1	0	4	0
40	342	7	10000	4	1	0	4	0
41	343	7	10000	4	1	0	4	0
43	344	7	10000	4	1	0	4	0
44	345	7	10000	4	1	0	4	0
44	346	7	10000	4	1	0	4	0
44	347	7	10000	4	1	0	4	0
45	348	7	10000	4	1	0	4	0
48	349	7	10000	4	1	0	4	0
52	350	7	10000	4	1	0	4	0
53	351	7	10000	4	1	0	4	0
51	352	7	10000	4	1	0	4	0
50	353	7	10000	4	1	0	4	0
47	354	7	10000	4	1	0	4	0
45	355	7	10000	4	1	0	4	0
44	356	7	10000	4	1	0	4	0
46	357	7	10000	4	1	0	4	0
47	358	7	10000	4	1	0	4	0
47	359	7	10000	4	1	0	4	0
46	360	7	10000	4	1	0	4	0
45	361	7	10000	4	1	0	4	0
45	362	7	10000	4	1	0	4	0
44	363	7	10000	4	1	0	4	0
47	364	7	10000	4	1	0	4	0
50	365	7	10000	4	1	0	4	0
51	366	7	10000	4	1	0	4	0
49	367	7	10000	4	1	0	4	0
52	368	7	10000	4	1	0	4	0
53	369	7	10000	4	1	0	4	0
54	370	7	10000	4	1	0	4	0
54	371	7	10000	4	1	0	4	0
54	372	7	10000	4	1	0	4	0
53	373	7	10000	4	1	0	4	0
50	374	7	10000	4	1	0	4	0
48	375	7	10000	4	1	0	4	0
49	376	7	10000	4	1	0	4	0
52	377	7	10000	4	1	0	4	0
51	378	7	10000	4	1	0	4	0
51	379	7	10000	4	1	0	4	0
53	380	7	10000	4	1	0	4	0
52	381	7	10000	4	1	0	4	0
51	382	7	10000	4	1	0	4	0
51	383	7	10000	4	1	0	4	0
50	384	7	10000	4	1	0	4	0
51	385	7	10000	4	1	0	4	0
51	386	7	10000	4	1	0	4	0
48	387	7	10000	4	1	0	4	0
47	388	7	10000	4	1	0	4	0
47	389	7	10000	4	1	0	4	0
46	390	7	10000	4	1	0	4	0
45	391	7	10000	4	1	0	4	0
43	392	7	10000	4	1	0	4	0
42	393	7	10000	4	1	0	4	0
40	394	7	10000	4	1	0	4	0
38	395	7	10000	4	1	0	4	0
38	396	7	10000	4	1	0	4	0
40	397	7	10000	4	1	0	4	0
39	398	7	10000	4	1	0	4	0
40	399	7	10000	4	1	0	4	0
40	400	7	10000	4	1	0	4	0
39	401	7	10000	4	1	0	4	0
38	402	7	10000	4	1	0	4	0
36	403	7	10000	4	1	0	4	0
35	404	7	10000	4	1	0	4	0
36	405	7	10000	4	1	0	4	0
37	406	7	10000	4	1	0	4	0
36	407	7	10000	4	1	0	4	0
37	408	7	10000	4	1	0	4	0
37	409	7	10000	4	1	0	4	0
37	410	7	10000	4	1	0	4	0
37	411	7	10000	4	1	0	4	0
36	412	7	10000	4	1	0	4	0
36	413	7	10000	4	1	0	4	0
37	414	7	10000	4	1	0	4	0
35	415	7	10000	4	1	0	4	0
33	416	7	10000	4	1	0	4	0
34	417	7	10000	4	1	0	4	0
32	418	7	10000	4	1	0	4	0
32	419	7	10000	4	1	0	4	0
32	420	7	10000	4	1	0	4	0
32	421	7	10000	4	1	0	4	0
33	422	7	10000	4	1	0	4	0
33	423	7	10000	4	1	0	4	0
32	424	7	10000	4	1	0	4	0
31	425	7	10000	4	1	0	4	0
32	426	7	10000	4	1	0	4	0
33	427	7	10000	4	1	0	4	0
34	428	7	10000	4	1	0	4	0
35	429	7	10000	4	1	0	4	0
34	430	7	10000	4	1	0	4	0
32	431	7	10000	4	1	0	4	0
31	432	7	10000	4	1	0	4	0
30	433	7	10000	4	1	0	4	0
29	434	7	10000	4	1	0	4	0
30	435	7	10000	4	1	0	4	0
30	436	7	10000	4	1	0	4	0
30	437	7	10000	4	1	0	4	0
29	438	7	10000	4	1	0	4	0
28	439	7	10000	4	1	0	4	0
26	440	7	10000	4	1	0	4	0
27	441	7	10000	4	1	0	4	0
27	442	7	10000	4	1	0	4	0
26	443	7	10000	4	1	0	4	0
25	444	7	10000	4	1	0	4	0
25	445	7	10000	4	1	0	4	0
24	446	7	10000	4	1	0	4	0
22	447	7	10000	4	1	0	4	0
22	448	7	10000	4	1	0	4	0
22	449	7	10000	4	1	0	4	0
22	450	7	10000	4	1	0	4	0
23	451	7	10000	4	1	0	4	0
25	452	7	10000	4	1	0	4	0
26	453	7	10000	4	1	0	4	0
26	454	7	10000	4	1	0	4	0
29	455	7	10000	4	1	0	4	0
32	456	7	10000	4	1	0	4	0
35	457	7	10000	4	1	0	4	0
36	458	7	10000	4	1	0	4	0
37	459	7	10000	4	1	0	4	0
39	460	7	10000	4	1	0	4	0
41	461	7	10000	4	1	0	4	0
44	462	7	10000	4	1	0	4	0
46	463	7	10000	4	1	0	4	0
49	464	7	10000	4	1	0	4	0
50	465	7	10000	4	1	0	4	0
51	466	7	10000	4	1	0	4	0
46	467	7	10000	4	1	0	4	0
46	468	7	10000	4	1	0	4	0
47	469	7	10000	4	1	0	4	0
46	470	7	10000	4	1	0	4	0
45	471	7	10000	4	1	0	4	0
46	472	7	10000	4	1	0	4	0
45	473	7	10000	4	1	0	4	0
44	474	7	10000	4	1	0	4	0
43	475	7	10000	4	1	0	4	0
40	476	7	10000	4	1	0	4	0
40	477	7	10000	4	1	0	4	0
40	478	7	10000	4	1	0	4	0
40	479	7	10000	4	1	0	4	0
40	480	7	10000	4	1	0	4	0
39	481	7	10000	4	1	0	4	0
37	482	7	10000	4	1	0	4	0
39	483	7	10000	4	1	0	4	0
41	484	7	10000	4	1	0	4	0
42	485	7	10000	4	1	0	4	0
43	486	7	10000	4	1	0	4	0
41	487	7	10000	4	1	0	4	0
40	488	7	10000	4	1	0	4	0
38	489	7	10000	4	1	0	4	0
38	490	7	10000	4	1	0	4	0
37	491	7	10000	4	1	0	4	0
37	492	7	10000	4	1	0	4	0
37	493	7	10000	4	1	0	4	0
39	494	7	10000	4	1	0	4	0
40	495	7	10000	4	1	0	4	0
39	496	7	10000	4	1	0	4	0
40	497	7	10000	4	1	0	4	0
39	498	7	10000	4	1	0	4	0
37	499	7	10000	4	1	0	4	0
36	500	7	10000	4	1	0	4	0
36	501	7	10000	4	1	0	4	1
34	502	7	10000	4	1	0	4	1
33	503	7	10000	4	1	0	4	1
33	504	7	10000	4	1	0	4	1
33	505	7	10000	4	1	0	4	1
33	506	7	10000	4	1	0	4	1
32	507	7	10000	4	1	0	4	1
34	508	7	10000	4	1	0	4	1
36	509	7	10000	4	1	0	4	1
36	510	7	10000	4	1	0	4	1
35	511	7	10000	4	1	0	4	1
34	512	7	10000	4	1	0	4	1
35	513	7	10000	4	1	0	4	1
35	514	7	10000	4	1	0	4	1
36	515	7	10000	4	1	0	4	1
34	516	7	10000	4	1	0	4	1
36	517	7	10000	4	1	0	4	1
37	518	7	10000	4	1	0	4	1
37	519	7	10000	4	1	0	4	1
39	520	7	10000	4	1	0	4	1
44	521	7	10000	4	1	0	4	1
49	522	7	10000	4	1	0	4	1
54	523	7	10000	4	1	0	4	1
62	524	7	10000	4	1	0	4	1
69	525	7	10000	4	1	0	4	1
72	526	7	10000	4	1	0	4	1
69	527	7	10000	4	1	0	4	1
68	528	7	10000	4	1	0	4	1
70	529	7	10000	4	1	0	4	1
75	530	7	10000	4	1	0	4	1
78	531	7	10000	4	1	0	4	1
79	532	7	10000	4	1	0	4	1
76	533	7	10000	4	1	0	4	1
73	534	7	10000	4	1	0	4	1
71	535	7	10000	4	1	0	4	1
71	536	7	10000	4	1	0	4	1
75	537	7	10000	4	1	0	4	1
74	538	7	10000	4	1	0	4	1
71	539	7	10000	4	1	0	4	1
71	540	7	10000	4	1	0	4	1
73	541	7	10000	4	1	0	4	1
79	542	7	10000	4	1	0	4	1
88	543	7	10000	4	1	0	4	1
99	544	7	10000	4	1	0	4	1
107	545	7	10000	4	1	0	4	1
111	546	7	10000	4	1	0	4	1
112	547	7	10000	4	1	0	4	1
110	548	7	10000	4	1	0	4	1
106	549	7	10000	4	1	0	4	1
104	550	7	10000	4	1	0	4	1
106	551	7	10000	4	1	0	4	0
111	552	7	10000	4	1	0	4	0
117	553	7	10000	4	1	0	4	0
123	554	7	10000	4	1	0	4	0
126	555	7	10000	4	1	0	4	0
128	556	7	10000	4	1	0	4	0
130	557	7	10000	4	1	0	4	0
128	558	7	10000	4	1	0	4	0
127	559	7	10000	4	1	0	4	0
128	560	7	10000	4	1	0	4	0
130	561	7	10000	4	1	0	4	0
132	562	7	10000	4	1	0	4	0
131	563	7	10000	4	1	0	4	0
129	564	7	10000	4	1	0	4	0
123	565	7	10000	4	1	0	4	0
117	566	7	10000	4	1	0	4	0
111	567	7	10000	4	1	0	4	0
106	568	7	10000	4	1	0	4	0
103	569	7	10000	4	1	0	4	0
99	570	7	10000	4	1	0	4	0
96	571	7	10000	4	1	0	4	0
94	572	7	10000	4	1	0	4	0
92	573	7	10000	4	1	0	4	0
94	574	7	10000	4	1	0	4	0
96	575	7	10000	4	1	0	4	0
98	576	7	10000	4	1	0	4	0
100	577	7	10000	4	1	0	4	0
97	578	7	10000	4	1	0	4	0
93	579	7	10000	4	1	0	4	0
90	580	7	10000	4	1	0	4	0
88	581	7	10000	4	1	0	4	0
90	582	7	10000	4	1	0	4	0
96	583	7	10000	4	1	0	4	0
118	584	7	10000	4	1	0	4	0
159	585	7	10000	4	1	0	4	0
194	586	7	10000	4	1	0	4	0
203	587	7	10000	4	1	0	4	0
201	588	7	10000	4	1	0	4	0
214	589	7	10000	4	1	0	4	0
225	590	7	10000	4	1	0	4	0
225	591	7	10000	4	1	0	4	0
217	592	7	10000	4	1	0	4	0
222	593	7	10000	4	1	0	4	0
248	594	7	10000	4	1	0	4	0
296	595	7	10000	4	1	0	4	0
328	596	7	10000	4	1	0	4	0
324	597	7	10000	4	1	0	4	0
331	598	7	10000	4	1	0	4	0
344	599	7	10000	4	1	0	4	0
345	600	7	10000	4	1	0	4	0
333	601	7	10000	4	1	0	4	0
327	602	7	10000	4	1	0	4	0
329	603	7	10000	4	1	0	4	0
337	604	7	10000	4	1	0	4	0
342	605	7	10000	4	1	0	4	0
374	606	7	10000	4	1	0	4	0
427	607	7	10000	4	1	0	4	0
451	608	7	10000	4	1	0	4	0
434	609	7	10000	4	1	0	4	0
434	610	7	10000	4	1	0	4	0
419	611	7	10000	4	1	0	4	0
416	612	7	10000	4	1	0	4	0
411	613	7	10000	4	1	0	4	0
410	614	7	10000	4	1	0	4	0
429	615	7	10000	4	1	0	4	0
452	616	7	10000	4	1	0	4	0
439	617	7	10000	4	1	0	4	0
425	618	7	10000	4	1	0	4	0
436	619	7	10000	4	1	0	4	0
457	620	7	10000	4	1	0	4	0
465	621	7	10000	4	1	0	4	0
455	622	7	10000	4	1	0	4	0
436	623	7	10000	4	1	0	4	0
427	624	7	10000	4	1	0	4	0
425	625	7	10000	4	1	0	4	0
426	626	7	10000	4	1	0	4	0
424	627	7	10000	4	1	0	4	0
420	628	7	10000	4	1	0	4	0
416	629	7	10000	4	1	0	4	0
412	630	7	10000	4	1	0	4	0
407	631	7	10000	4	1	0	4	0
403	632	7	10000	4	1	0	4	0
399	633	7	10000	4	1	0	4	0
394	634	7	10000	4	1	0	4	0
388	635	7	10000	4	1	0	4	0
379	636	7	10000	4	1	0	4	0
372	637	7	10000	4	1	0	4	0
362	638	7	10000	4	1	0	4	0
351	639	7	10000	4	1	0	4	0
338	640	7	10000	4	1	0	4	0
325	641	7	10000	4	1	0	4	0
311	642	7	10000	4	1	0	4	0
297	643	7	10000	4	1	0	4	0
285	644	7	10000	4	1	0	4	0
273	645	7	10000	4	1	0	4	0
263	646	7	10000	4	1	0	4	0
255	647	7	10000	4	1	0	4	0
249	648	7	10000	4	1	0	4	0
243	649	7	10000	4	1	0	4	0
238	650	7	10000	4	1	0	4	0
235	651	7	10000	4	1	0	4	0
231	652	7	10000	4	1	0	4	0
228	653	7	10000	4	1	0	4	0
225	654	7	10000	4	1	0	4	0
220	655	7	10000	4	1	0	4	0
215	656	7	10000	4	1	0	4	0
212	657	7	10000	4	1	0	4	0
208	658	7	10000	4	1	0	4	0
207	659	7	10000	4	1	0	4	0
206	660	7	10000	4	1	0	4	0
207	661	7	10000	4	1	0	4	0
205	662	7	10000	4	1	0	4	0
201	663	7	10000	4	1	0	4	0
200	664	7	10000	4	1	0	4	0
201	665	7	10000	4	1	0	4	0
199	666	7	10000	4	1	0	4	0
194	667	7	10000	4	1	0	4	0
191	668	7	10000	4	1	0	4	0
190	669	7	10000	4	1	0	4	0
190	670	7	10000	4	1	0	4	0
189	671	7	10000	4	1	0	4	0
186	672	7	10000	4	1	0	4	0
183	673	7	10000	4	1	0	4	0
179	674	7	10000	4	1	0	4	0
175	675	7	10000	4	1	0	4	0
170	676	7	10000	4	1	0	4	0
167	677	7	10000	4	1	0	4	0
161	678	7	10000	4	1	0	4	0
154	679	7	10000	4	1	0	4	0
148	680	7	10000	4	1	0	4	0
142	681	7	10000	4	1	0	4	0
138	682	7	10000	4	1	0	4	0
134	683	7	10000	4	1	0	4	0
133	684	7	10000	4	1	0	4	0
132	685	7	10000	4	1	0	4	0
132	686	7	10000	4	1	0	4	0
131	687	7	10000	4	1	0	4	0
130	688	7	10000	4	1	0	4	0
128	689	7	10000	4	1	0	4	0
128	690	7	10000	4	1	0	4	0
125	691	7	10000	4	1	0	4	0
122	692	7	10000	4	1	0	4	0
117	693	7	10000	4	1	0	4	0
113	694	7	10000	4	1	0	4	0
113	695	7	10000	4	1	0	4	0
113	696	7	10000	4	1	0	4	0
113	697	7	10000	4	1	0	4	0
113	698	7	10000	4	1	0	4	0
112	699	7	10000	4	1	0	4	0
109	700	7	10000	4	1	0	4	0
107	701	7	10000	4	1	0	4	0
105	702	7	10000	4	1	0	4	0
102	703	7	10000	4	1	0	4	0
100	704	7	10000	4	1	0	4	0
99	705	7	10000	4	1	0	4	0
95	706	7	10000	4	1	0	4	0
89	707	7	10000	4	1	0	4	0
86	708	7	10000	4	1	0	4	0
82	709	7	10000	4	1	0	4	0
79	710	7	10000	4	1	0	4	0
77	711	7	10000	4	1	0	4	0
74	712	7	10000	4	1	0	4	0
71	713	7	10000	4	1	0	4	0
69	714	7	10000	4	1	0	4	0
66	715	7	10000	4	1	0	4	0
64	716	7	10000	4	1	0	4	0
64	717	7	10000	4	1	0	4	0
62	718	7	10000	4	1	0	4	0
60	719	7	10000	4	1	0	4	0
63	720	7	10000	4	1	0	4	0
66	721	7	10000	4	1	0	4	0
69	722	7	10000	4	1	0	4	0
69	723	7	10000	4	1	0	4	0
67	724	7	10000	4	1	0	4	0
68	725	7	10000	4	1	0	4	0
70	726	7	10000	4	1	0	4	0
67	727	7	10000	4	1	0	4	0
65	728	7	10000	4	1	0	4	0
65	729	7	10000	4	1	0	4	0
66	730	7	10000	4	1	0	4	0
66	731	7	10000	4	1	0	4	0
65	732	7	10000	4	1	0	4	0
67	733	7	10000	4	1	0	4	0
68	734	7	10000	4	1	0	4	0
71	735	7	10000	4	1	0	4	0
72	736	7	10000	4	1	0	4	0
76	737	7	10000	4	1	0	4	0
76	738	7	10000	4	1	0	4	0
76	739	7	10000	4	1	0	4	0
76	740	7	10000	4	1	0	4	0
73	741	7	10000	4	1	0	4	0
71	742	7	10000	4	1	0	4	0
68	743	7	10000	4	1	0	4	0
66	744	7	10000	4	1	0	4	0
66	745	7	10000	4	1	0	4	0
68	746	7	10000	4	1	0	4	0
69	747	7	10000	4	1	0	4	0
73	748	7	10000	4	1	0	4	0
72	749	7	10000	4	1	0	4	0
73	750	7	10000	4	1	0	4	0
76	751	7	10000	4	1	0	4	0
77	752	7	10000	4	1	0	4	0
78	753	7	10000	4	1	0	4	0
78	754	7	10000	4	1	0	4	0
77	755	7	10000	4	1	0	4	0
74	756	7	10000	4	1	0	4	0
76	757	7	10000	4	1	0	4	0
73	758	7	10000	4	1	0	4	0
70	759	7	10000	4	1	0	4	0
69	760	7	10000	4	1	0	4	0
67	761	7	10000	4	1	0	4	0
65	762	7	10000	4	1	0	4	0
62	763	7	10000	4	1	0	4	0
62	764	7	10000	4	1	0	4	0
63	765	7	10000	4	1	0	4	0
62	766	7	10000	4	1	0	4	0
57	767	7	10000	4	1	0	4	0
55	768	7	10000	4	1	0	4	0
53	769	7	10000	4	1	0	4	0
52	770	7	10000	4	1	0	4	0
50	771	7	10000	4	1	0	4	0
50	772	7	10000	4	1	0	4	0
51	773	7	10000	4	1	0	4	0
51	774	7	10000	4	1	0	4	0
52	775	7	10000	4	1	0	4	0
51	776	7	10000	4	1	0	4	0
53	777	7	10000	4	1	0	4	0
55	778	7	10000	4	1	0	4	0
55	779	7	10000	4	1	0	4	0
55	780	7	10000	4	1	0	4	0
55	781	7	10000	4	1	0	4	0
53	782	7	10000	4	1	0	4	0
50	783	7	10000	4	1	0	4	0
49	784	7	10000	4	1	0	4	0
48	785	7	10000	4	1	0	4	0
49	786	7	10000	4	1	0	4	0
50	787	7	10000	4	1	0	4	0
54	788	7	10000	4	1	0	4	0
54	789	7	10000	4	1	0	4	0
52	790	7	10000	4	1	0	4	0
51	791	7	10000	4	1	0	4	0
50	792	7	10000	4	1	0	4	0
49	793	7	10000	4	1	0	4	0
47	794	7	10000	4	1	0	4	0
45	795	7	10000	4	1	0	4	0
44	796	7	10000	4	1	0	4	0
46	797	7	10000	4	1	0	4	0
45	798	7	10000	4	1	0	4	0
45	799	7	10000	4	1	0	4	0
46	800	7	10000	4	1	0	4	0
44	801	7	10000	4	1	0	4	0
44	802	7	10000	4	1	0	4	0
44	803	7	10000	4	1	0	4	0
42	804	7	10000	4	1	0	4	0
40	805	7	10000	4	1	0	4	0
40	806	7	10000	4	1	0	4	0
36	807	7	10000	4	1	0	4	0
36	808	7	10000	4	1	0	4	0
37	809	7	10000	4	1	0	4	0
39	810	7	10000	4	1	0	4	0
40	811	7	10000	4	1	0	4	0
40	812	7	10000	4	1	0	4	0
40	813	7	10000	4	1	0	4	0
38	814	7	10000	4	1	0	4	0
37	815	7	10000	4	1	0	4	0
35	816	7	10000	4	1	0	4	0
35	817	7	10000	4	1	0	4	0
35	818	7	10000	4	1	0	4	0
36	819	7	10000	4	1	0	4	0
38	820	7	10000	4	1	0	4	0
39	821	7	10000	4	1	0	4	0
41	822	7	10000	4	1	0	4	0
40	823	7	10000	4	1	0	4	0
39	824	7	10000	4	1	0	4	0
39	825	7	10000	4	1	0	4	0
39	826	7	10000	4	1	0	4	0
39	827	7	10000	4	1	0	4	0
39	828	7	10000	4	1	0	4	0
39	829	7	10000	4	1	0	4	0
39	830	7	10000	4	1	0	4	0
42	831	7	10000	4	1	0	4	0
42	832	7	10000	4	1	0	4	0
42	833	7	10000	4	1	0	4	0
41	834	7	10000	4	1	0	4	0
41	835	7	10000	4	1	0	4	0
39	836	7	10000	4	1	0	4	0
43	837	7	10000	4	1	0	4	0
45	838	7	10000	4	1	0	4	0
48	839	7	10000	4	1	0	4	0
51	840	7	10000	4	1	0	4	0
51	841	7	10000	4	1	0	4	0
49	842	7	10000	4	1	0	4	0
50	843	7	10000	4	1	0	4	0
55	844	7	10000	4	1	0	4	0
61	845	7	10000	4	1	0	4	0
67	846	7	10000	4	1	0	4	0
68	847	7	10000	4	1	0	4	0
70	848	7	10000	4	1	0	4	0
71	849	7	10000	4	1	0	4	0
68	850	7	10000	4	1	0	4	0
68	851	7	10000	4	1	0	4	0
71	852	7	10000	4	1	0	4	0
73	853	7	10000	4	1	0	4	0
73	854	7	10000	4	1	0	4	0
70	855	7	10000	4	1	0	4	0
67	856	7	10000	4	1	0	4	0
68	857	7	10000	4	1	0	4	0
69	858	7	10000	4	1	0	4	0
67	859	7	10000	4	1	0	4	0
65	860	7	10000	4	1	0	4	0
63	861	7	10000	4	1	0	4	0
60	862	7	10000	4	1	0	4	0
58	863	7	10000	4	1	0	4	0
56	864	7	10000	4	1	0	4	0
55	865	7	10000	4	1	0	4	0
56	866	7	10000	4	1	0	4	0
56	867	7	10000	4	1	0	4	0
60	868	7	10000	4	1	0	4	0
62	869	7	10000	4	1	0	4	0
64	870	7	10000	4	1	0	4	0
65	871	7	10000	4	1	0	4	0
64	872	7	10000	4	1	0	4	0
62	873	7	10000	4	1	0	4	0
59	874	7	10000	4	1	0	4	0
59	875	7	10000	4	1	0	4	0
62	876	7	10000	4	1	0	4	0
65	877	7	10000	4	1	0	4	0
64	878	7	10000	4	1	0	4	0
61	879	7	10000	4	1	0	4	0
58	880	7	10000	4	1	0	4	0
56	881	7	10000	4	1	0	4	0
54	882	7	10000	4	1	0	4	0
53	883	7	10000	4	1	0	4	0
51	884	7	10000	4	1	0	4	0
51	885	7	10000	4	1	0	4	0
52	886	7	10000	4	1	0	4	0
51	887	7	10000	4	1	0	4	0
53	888	7	10000	4	1	0	4	0
55	889	7	10000	4	1	0	4	0
53	890	7	10000	4	1	0	4	0
51	891	7	10000	4	1	0	4	0
49	892	7	10000	4	1	0	4	0
48	893	7	10000	4	1	0	4	0
48	894	7	10000	4	1	0	4	0
53	895	7	10000	4	1	0	4	0
56	896	7	10000	4	1	0	4	0
61	897	7	10000	4	1	0	4	0
63	898	7	10000	4	1	0	4	0
62	899	7	10000	4	1	0	4	0
60	900	7	10000	4	1	0	4	0
60	901	7	10000	4	1	0	4	0
58	902	7	10000	4	1	0	4	0
56	903	7	10000	4	1	0	4	0
55	904	7	10000	4	1	0	4	0
53	905	7	10000	4	1	0	4	0
52	906	7	10000	4	1	0	4	0
51	907	7	10000	4	1	0	4	0
51	908	7	10000	4	1	0	4	0
53	909	7	10000	4	1	0	4	0
55	910	7	10000	4	1	0	4	0
56	911	7	10000	4	1	0	4	0
54	912	7	10000	4	1	0	4	0
54	913	7	10000	4	1	0	4	0
54	914	7	10000	4	1	0	4	0
54	915	7	10000	4	1	0	4	0
54	916	7	10000	4	1	0	4	0
54	917	7	10000	4	1	0	4	0
53	918	7	10000	4	1	0	4	0
52	919	7	10000	4	1	0	4	0
51	920	7	10000	4	1	0	4	0
51	921	7	10000	4	1	0	4	0
51	922	7	10000	4	1	0	4	0
49	923	7	10000	4	1	0	4	0
48	924	7	10000	4	1	0	4	0
47	925	7	10000	4	1	0	4	0
46	926	7	10000	4	1	0	4	0
44	927	7	10000	4	1	0	4	0
43	928	7	10000	4	1	0	4	0
42	929	7	10000	4	1	0	4	0
41	930	7	10000	4	1	0	4	0
40	931	7	10000	4	1	0	4	0
39	932	7	10000	4	1	0	4	0
41	933	7	10000	4	1	0	4	0
43	934	7	10000	4	1	0	4	0
47	935	7	10000	4	1	0	4	0
48	936	7	10000	4	1	0	4	0
51	937	7	10000	4	1	0	4	0
51	938	7	10000	4	1	0	4	0
48	939	7	10000	4	1	0	4	0
46	940	7	10000	4	1	0	4	0
45	941	7	10000	4	1	0	4	0
43	942	7	10000	4	1	0	4	0
43	943	7	10000	4	1	0	4	0
45	944	7	10000	4	1	0	4	0
47	945	7	10000	4	1	0	4	0
49	946	7	10000	4	1	0	4	0
50	947	7	10000	4	1	0	4	0
53	948	7	10000	4	1	0	4	0
56	949	7	10000	4	1	0	4	0
55	950	7	10000	4	1	0	4	0
54	951	7	10000	4	1	0	4	0
54	952	7	10000	4	1	0	4	0
56	953	7	10000	4	1	0	4	0
58	954	7	10000	4	1	0	4	0
59	955	7	10000	4	1	0	4	0
59	956	7	10000	4	1	0	4	0
60	957	7	10000	4	1	0	4	0
62	958	7	10000	4	1	0	4	0
62	959	7	10000	4	1	0	4	0
60	960	7	10000	4	1	0	4	0
57	961	7	10000	4	1	0	4	0
56	962	7	10000	4	1	0	4	0
55	963	7	10000	4	1	0	4	0
56	964	7	10000	4	1	0	4	0
56	965	7	10000	4	1	0	4	0
56	966	7	10000	4	1	0	4	0
53	967	7	10000	4	1	0	4	0
51	968	7	10000	4	1	0	4	0
50	969	7	10000	4	1	0	4	0
49	970	7	10000	4	1	0	4	0
48	971	7	10000	4	1	0	4	0
48	972	7	10000	4	1	0	4	0
48	973	7	10000	4	1	0	4	0
45	974	7	10000	4	1	0	4	0
43	975	7	10000	4	1	0	4	0
42	976	7	10000	4	1	0	4	0
44	977	7	10000	4	1	0	4	0
44	978	7	10000	4	1	0	4	0
43	979	7	10000	4	1	0	4	0
42	980	7	10000	4	1	0	4	0
42	981	7	10000	4	1	0	4	0
41	982	7	10000	4	1	0	4	0
40	983	7	10000	4	1	0	4	0
39	984	7	10000	4	1	0	4	0
37	985	7	10000	4	1	0	4	0
36	986	7	10000	4	1	0	4	0
34	987	7	10000	4	1	0	4	0
32	988	7	10000	4	1	0	4	0
32	989	7	10000	4	1	0	4	0
32	990	7	10000	4	1	0	4	0
30	991	7	10000	4	1	0	4	0
31	992	7	10000	4	1	0	4	0
32	993	7	10000	4	1	0	4	0
32	994	7	10000	4	1	0	4	0
31	995	7	10000	4	1	0	4	0
32	996	7	10000	4	1	0	4	0
35	997	7	10000	4	1	0	4	0
34	998	7	10000	4	1	0	4	0
35	999	7	10000	4	1	0	4	0
36	1000	7	10000	4	1	0	4	0
31	2	0	10000	5	1	0	5	0
31	3	0	10000	5	1	0	5	0
32	4	0	10000	5	1	0	5	0
32	5	0	10000	5	1	0	5	0
31	6	0	10000	5	1	0	5	0
30	7	0	10000	5	1	0	5	0
28	8	0	10000	5	1	0	5	0
29	9	0	10000	5	1	0	5	0
29	10	0	10000	5	1	0	5	0
28	11	0	10000	5	1	0	5	0
26	12	0	10000	5	1	0	5	0
26	13	0	10000	5	1	0	5	0
26	14	0	10000	5	1	0	5	0
25	15	0	10000	5	1	0	5	0
24	16	0	10000	5	1	0	5	0
25	17	0	10000	5	1	0	5	0
26	18	0	10000	5	1	0	5	0
24	19	0	10000	5	1	0	5	0
23	20	0	10000	5	1	0	5	0
24	21	0	10000	5	1	0	5	0
28	22	0	10000	5	1	0	5	0
29	23	0	10000	5	1	0	5	0
28	24	0	10000	5	1	0	5	0
27	25	0	10000	5	1	0	5	0
28	26	0	10000	5	1	0	5	0
29	27	0	10000	5	1	0	5	0
29	28	0	10000	5	1	0	5	0
31	29	0	10000	5	1	0	5	0
33	30	0	10000	5	1	0	5	0
32	31	0	10000	5	1	0	5	0
29	32	0	10000	5	1	0	5	0
29	33	0	10000	5	1	0	5	0
28	34	0	10000	5	1	0	5	0
28	35	0	10000	5	1	0	5	0
28	36	0	10000	5	1	0	5	0
28	37	0	10000	5	1	0	5	0
29	38	0	10000	5	1	0	5	0
29	39	0	10000	5	1	0	5	0
28	40	0	10000	5	1	0	5	0
27	41	0	10000	5	1	0	5	0
29	42	0	10000	5	1	0	5	0
28	43	0	10000	5	1	0	5	0
28	44	0	10000	5	1	0	5	0
26	45	0	10000	5	1	0	5	0
26	46	0	10000	5	1	0	5	0
26	47	0	10000	5	1	0	5	0
25	48	0	10000	5	1	0	5	0
25	49	0	10000	5	1	0	5	0
24	50	0	10000	5	1	0	5	0
23	51	0	10000	5	1	0	5	0
21	52	0	10000	5	1	0	5	0
21	53	0	10000	5	1	0	5	0
20	54	0	10000	5	1	0	5	0
20	55	0	10000	5	1	0	5	0
20	56	0	10000	5	1	0	5	0
19	57	0	10000	5	1	0	5	0
20	58	0	10000	5	1	0	5	0
19	59	0	10000	5	1	0	5	0
18	60	0	10000	5	1	0	5	0
17	61	0	10000	5	1	0	5	0
18	62	0	10000	5	1	0	5	0
18	63	0	10000	5	1	0	5	0
17	64	0	10000	5	1	0	5	0
18	65	0	10000	5	1	0	5	0
17	66	0	10000	5	1	0	5	0
17	67	0	10000	5	1	0	5	0
17	68	0	10000	5	1	0	5	0
17	69	0	10000	5	1	0	5	0
18	70	0	10000	5	1	0	5	0
19	71	0	10000	5	1	0	5	0
16	72	0	10000	5	1	0	5	0
18	73	0	10000	5	1	0	5	0
18	74	0	10000	5	1	0	5	0
18	75	0	10000	5	1	0	5	0
19	76	0	10000	5	1	0	5	0
17	77	0	10000	5	1	0	5	0
18	78	0	10000	5	1	0	5	0
19	79	0	10000	5	1	0	5	0
19	80	0	10000	5	1	0	5	0
20	81	0	10000	5	1	0	5	0
22	82	0	10000	5	1	0	5	0
21	83	0	10000	5	1	0	5	0
20	84	0	10000	5	1	0	5	0
21	85	0	10000	5	1	0	5	0
21	86	0	10000	5	1	0	5	0
20	87	0	10000	5	1	0	5	0
20	88	0	10000	5	1	0	5	0
21	89	0	10000	5	1	0	5	0
21	90	0	10000	5	1	0	5	0
21	91	0	10000	5	1	0	5	0
19	92	0	10000	5	1	0	5	0
18	93	0	10000	5	1	0	5	0
18	94	0	10000	5	1	0	5	0
18	95	0	10000	5	1	0	5	0
18	96	0	10000	5	1	0	5	0
19	97	0	10000	5	1	0	5	0
19	98	0	10000	5	1	0	5	0
18	99	0	10000	5	1	0	5	0
17	100	0	10000	5	1	0	5	0
17	101	0	10000	5	1	0	5	0
18	102	0	10000	5	1	0	5	0
17	103	0	10000	5	1	0	5	0
18	104	0	10000	5	1	0	5	0
18	105	0	10000	5	1	0	5	0
18	106	0	10000	5	1	0	5	0
18	107	0	10000	5	1	0	5	0
19	108	0	10000	5	1	0	5	0
21	109	0	10000	5	1	0	5	0
22	110	0	10000	5	1	0	5	0
23	111	0	10000	5	1	0	5	0
20	112	0	10000	5	1	0	5	0
20	113	0	10000	5	1	0	5	0
20	114	0	10000	5	1	0	5	0
21	115	0	10000	5	1	0	5	0
21	116	0	10000	5	1	0	5	0
20	117	0	10000	5	1	0	5	0
21	118	0	10000	5	1	0	5	0
22	119	0	10000	5	1	0	5	0
23	120	0	10000	5	1	0	5	0
23	121	0	10000	5	1	0	5	0
24	122	0	10000	5	1	0	5	0
23	123	0	10000	5	1	0	5	0
22	124	0	10000	5	1	0	5	0
22	125	0	10000	5	1	0	5	0
22	126	0	10000	5	1	0	5	0
24	127	0	10000	5	1	0	5	0
24	128	0	10000	5	1	0	5	0
24	129	0	10000	5	1	0	5	0
24	130	0	10000	5	1	0	5	0
24	131	0	10000	5	1	0	5	0
21	132	0	10000	5	1	0	5	0
21	133	0	10000	5	1	0	5	0
22	134	0	10000	5	1	0	5	0
22	135	0	10000	5	1	0	5	0
22	136	0	10000	5	1	0	5	0
23	137	0	10000	5	1	0	5	0
25	138	0	10000	5	1	0	5	0
24	139	0	10000	5	1	0	5	0
24	140	0	10000	5	1	0	5	0
25	141	0	10000	5	1	0	5	0
26	142	0	10000	5	1	0	5	0
24	143	0	10000	5	1	0	5	0
23	144	0	10000	5	1	0	5	0
22	145	0	10000	5	1	0	5	0
21	146	0	10000	5	1	0	5	0
21	147	0	10000	5	1	0	5	0
22	148	0	10000	5	1	0	5	0
23	149	0	10000	5	1	0	5	0
23	150	0	10000	5	1	0	5	0
23	151	0	10000	5	1	0	5	0
23	152	0	10000	5	1	0	5	0
25	153	0	10000	5	1	0	5	0
27	154	0	10000	5	1	0	5	0
27	155	0	10000	5	1	0	5	0
27	156	0	10000	5	1	0	5	0
27	157	0	10000	5	1	0	5	0
27	158	0	10000	5	1	0	5	0
26	159	0	10000	5	1	0	5	0
26	160	0	10000	5	1	0	5	0
25	161	0	10000	5	1	0	5	0
27	162	0	10000	5	1	0	5	0
26	163	0	10000	5	1	0	5	0
25	164	0	10000	5	1	0	5	0
25	165	0	10000	5	1	0	5	0
24	166	0	10000	5	1	0	5	0
24	167	0	10000	5	1	0	5	0
24	168	0	10000	5	1	0	5	0
23	169	0	10000	5	1	0	5	0
22	170	0	10000	5	1	0	5	0
23	171	0	10000	5	1	0	5	0
19	172	0	10000	5	1	0	5	0
19	173	0	10000	5	1	0	5	0
20	174	0	10000	5	1	0	5	0
20	175	0	10000	5	1	0	5	0
20	176	0	10000	5	1	0	5	0
20	177	0	10000	5	1	0	5	0
20	178	0	10000	5	1	0	5	0
19	179	0	10000	5	1	0	5	0
19	180	0	10000	5	1	0	5	0
19	181	0	10000	5	1	0	5	0
21	182	0	10000	5	1	0	5	0
21	183	0	10000	5	1	0	5	0
21	184	0	10000	5	1	0	5	0
20	185	0	10000	5	1	0	5	0
20	186	0	10000	5	1	0	5	0
21	187	0	10000	5	1	0	5	0
22	188	0	10000	5	1	0	5	0
23	189	0	10000	5	1	0	5	0
23	190	0	10000	5	1	0	5	0
24	191	0	10000	5	1	0	5	0
22	192	0	10000	5	1	0	5	0
23	193	0	10000	5	1	0	5	0
23	194	0	10000	5	1	0	5	0
24	195	0	10000	5	1	0	5	0
23	196	0	10000	5	1	0	5	0
23	197	0	10000	5	1	0	5	0
22	198	0	10000	5	1	0	5	0
22	199	0	10000	5	1	0	5	0
21	200	0	10000	5	1	0	5	0
22	201	0	10000	5	1	0	5	0
26	202	0	10000	5	1	0	5	0
27	203	0	10000	5	1	0	5	0
27	204	0	10000	5	1	0	5	0
28	205	0	10000	5	1	0	5	0
27	206	0	10000	5	1	0	5	0
27	207	0	10000	5	1	0	5	0
26	208	0	10000	5	1	0	5	0
26	209	0	10000	5	1	0	5	0
25	210	0	10000	5	1	0	5	0
25	211	0	10000	5	1	0	5	0
23	212	0	10000	5	1	0	5	0
22	213	0	10000	5	1	0	5	0
23	214	0	10000	5	1	0	5	0
23	215	0	10000	5	1	0	5	0
23	216	0	10000	5	1	0	5	0
24	217	0	10000	5	1	0	5	0
25	218	0	10000	5	1	0	5	0
27	219	0	10000	5	1	0	5	0
29	220	0	10000	5	1	0	5	0
31	221	0	10000	5	1	0	5	0
34	222	0	10000	5	1	0	5	0
34	223	0	10000	5	1	0	5	0
32	224	0	10000	5	1	0	5	0
30	225	0	10000	5	1	0	5	0
30	226	0	10000	5	1	0	5	0
29	227	0	10000	5	1	0	5	0
29	228	0	10000	5	1	0	5	0
30	229	0	10000	5	1	0	5	0
32	230	0	10000	5	1	0	5	0
31	231	0	10000	5	1	0	5	0
28	232	0	10000	5	1	0	5	0
27	233	0	10000	5	1	0	5	0
26	234	0	10000	5	1	0	5	0
26	235	0	10000	5	1	0	5	0
25	236	0	10000	5	1	0	5	0
25	237	0	10000	5	1	0	5	0
24	238	0	10000	5	1	0	5	0
22	239	0	10000	5	1	0	5	0
22	240	0	10000	5	1	0	5	0
21	241	0	10000	5	1	0	5	0
23	242	0	10000	5	1	0	5	0
23	243	0	10000	5	1	0	5	0
23	244	0	10000	5	1	0	5	0
23	245	0	10000	5	1	0	5	0
24	246	0	10000	5	1	0	5	0
26	247	0	10000	5	1	0	5	0
26	248	0	10000	5	1	0	5	0
26	249	0	10000	5	1	0	5	0
26	250	0	10000	5	1	0	5	0
27	251	0	10000	5	1	0	5	0
25	252	0	10000	5	1	0	5	0
24	253	0	10000	5	1	0	5	0
24	254	0	10000	5	1	0	5	0
24	255	0	10000	5	1	0	5	0
23	256	0	10000	5	1	0	5	0
24	257	0	10000	5	1	0	5	0
24	258	0	10000	5	1	0	5	0
25	259	0	10000	5	1	0	5	0
26	260	0	10000	5	1	0	5	0
25	261	0	10000	5	1	0	5	0
27	262	0	10000	5	1	0	5	0
27	263	0	10000	5	1	0	5	0
26	264	0	10000	5	1	0	5	0
27	265	0	10000	5	1	0	5	0
28	266	0	10000	5	1	0	5	0
27	267	0	10000	5	1	0	5	0
26	268	0	10000	5	1	0	5	0
26	269	0	10000	5	1	0	5	0
26	270	0	10000	5	1	0	5	0
26	271	0	10000	5	1	0	5	0
23	272	0	10000	5	1	0	5	0
22	273	0	10000	5	1	0	5	0
22	274	0	10000	5	1	0	5	0
23	275	0	10000	5	1	0	5	0
23	276	0	10000	5	1	0	5	0
23	277	0	10000	5	1	0	5	0
23	278	0	10000	5	1	0	5	0
23	279	0	10000	5	1	0	5	0
24	280	0	10000	5	1	0	5	0
24	281	0	10000	5	1	0	5	0
25	282	0	10000	5	1	0	5	0
25	283	0	10000	5	1	0	5	0
26	284	0	10000	5	1	0	5	0
27	285	0	10000	5	1	0	5	0
29	286	0	10000	5	1	0	5	0
30	287	0	10000	5	1	0	5	0
30	288	0	10000	5	1	0	5	0
30	289	0	10000	5	1	0	5	0
29	290	0	10000	5	1	0	5	0
29	291	0	10000	5	1	0	5	0
26	292	0	10000	5	1	0	5	0
27	293	0	10000	5	1	0	5	0
27	294	0	10000	5	1	0	5	0
27	295	0	10000	5	1	0	5	0
26	296	0	10000	5	1	0	5	0
25	297	0	10000	5	1	0	5	0
24	298	0	10000	5	1	0	5	0
24	299	0	10000	5	1	0	5	0
24	300	0	10000	5	1	0	5	0
23	301	0	10000	5	1	0	5	0
25	302	0	10000	5	1	0	5	0
26	303	0	10000	5	1	0	5	0
27	304	0	10000	5	1	0	5	0
29	305	0	10000	5	1	0	5	0
31	306	0	10000	5	1	0	5	0
30	307	0	10000	5	1	0	5	0
30	308	0	10000	5	1	0	5	0
32	309	0	10000	5	1	0	5	0
31	310	0	10000	5	1	0	5	0
32	311	0	10000	5	1	0	5	0
30	312	0	10000	5	1	0	5	0
28	313	0	10000	5	1	0	5	0
28	314	0	10000	5	1	0	5	0
29	315	0	10000	5	1	0	5	0
28	316	0	10000	5	1	0	5	0
27	317	0	10000	5	1	0	5	0
29	318	0	10000	5	1	0	5	0
30	319	0	10000	5	1	0	5	0
30	320	0	10000	5	1	0	5	0
28	321	0	10000	5	1	0	5	0
30	322	0	10000	5	1	0	5	0
31	323	0	10000	5	1	0	5	0
33	324	0	10000	5	1	0	5	0
34	325	0	10000	5	1	0	5	0
35	326	0	10000	5	1	0	5	0
35	327	0	10000	5	1	0	5	0
34	328	0	10000	5	1	0	5	0
33	329	0	10000	5	1	0	5	0
33	330	0	10000	5	1	0	5	0
34	331	0	10000	5	1	0	5	0
32	332	0	10000	5	1	0	5	0
32	333	0	10000	5	1	0	5	0
31	334	0	10000	5	1	0	5	0
31	335	0	10000	5	1	0	5	0
31	336	0	10000	5	1	0	5	0
30	337	0	10000	5	1	0	5	0
30	338	0	10000	5	1	0	5	0
30	339	0	10000	5	1	0	5	0
30	340	0	10000	5	1	0	5	0
29	341	0	10000	5	1	0	5	0
30	342	0	10000	5	1	0	5	0
29	343	0	10000	5	1	0	5	0
27	344	0	10000	5	1	0	5	0
27	345	0	10000	5	1	0	5	0
27	346	0	10000	5	1	0	5	0
26	347	0	10000	5	1	0	5	0
25	348	0	10000	5	1	0	5	0
26	349	0	10000	5	1	0	5	0
28	350	0	10000	5	1	0	5	0
34	351	0	10000	5	1	0	5	0
37	352	0	10000	5	1	0	5	0
36	353	0	10000	5	1	0	5	0
35	354	0	10000	5	1	0	5	0
37	355	0	10000	5	1	0	5	0
38	356	0	10000	5	1	0	5	0
41	357	0	10000	5	1	0	5	0
44	358	0	10000	5	1	0	5	0
44	359	0	10000	5	1	0	5	0
45	360	0	10000	5	1	0	5	0
45	361	0	10000	5	1	0	5	0
45	362	0	10000	5	1	0	5	0
44	363	0	10000	5	1	0	5	0
44	364	0	10000	5	1	0	5	0
44	365	0	10000	5	1	0	5	0
45	366	0	10000	5	1	0	5	0
45	367	0	10000	5	1	0	5	0
45	368	0	10000	5	1	0	5	0
44	369	0	10000	5	1	0	5	0
42	370	0	10000	5	1	0	5	0
41	371	0	10000	5	1	0	5	0
38	372	0	10000	5	1	0	5	0
37	373	0	10000	5	1	0	5	0
36	374	0	10000	5	1	0	5	0
35	375	0	10000	5	1	0	5	0
34	376	0	10000	5	1	0	5	0
32	377	0	10000	5	1	0	5	0
32	378	0	10000	5	1	0	5	0
32	379	0	10000	5	1	0	5	0
32	380	0	10000	5	1	0	5	0
31	381	0	10000	5	1	0	5	0
32	382	0	10000	5	1	0	5	0
30	383	0	10000	5	1	0	5	0
29	384	0	10000	5	1	0	5	0
27	385	0	10000	5	1	0	5	0
27	386	0	10000	5	1	0	5	0
26	387	0	10000	5	1	0	5	0
25	388	0	10000	5	1	0	5	0
26	389	0	10000	5	1	0	5	0
25	390	0	10000	5	1	0	5	0
26	391	0	10000	5	1	0	5	0
24	392	0	10000	5	1	0	5	0
23	393	0	10000	5	1	0	5	0
23	394	0	10000	5	1	0	5	0
24	395	0	10000	5	1	0	5	0
24	396	0	10000	5	1	0	5	0
23	397	0	10000	5	1	0	5	0
23	398	0	10000	5	1	0	5	0
22	399	0	10000	5	1	0	5	0
21	400	0	10000	5	1	0	5	0
22	401	0	10000	5	1	0	5	0
23	402	0	10000	5	1	0	5	0
23	403	0	10000	5	1	0	5	0
23	404	0	10000	5	1	0	5	0
23	405	0	10000	5	1	0	5	0
25	406	0	10000	5	1	0	5	0
26	407	0	10000	5	1	0	5	0
27	408	0	10000	5	1	0	5	0
28	409	0	10000	5	1	0	5	0
27	410	0	10000	5	1	0	5	0
26	411	0	10000	5	1	0	5	0
23	412	0	10000	5	1	0	5	0
23	413	0	10000	5	1	0	5	0
24	414	0	10000	5	1	0	5	0
25	415	0	10000	5	1	0	5	0
26	416	0	10000	5	1	0	5	0
26	417	0	10000	5	1	0	5	0
26	418	0	10000	5	1	0	5	0
25	419	0	10000	5	1	0	5	0
26	420	0	10000	5	1	0	5	0
27	421	0	10000	5	1	0	5	0
29	422	0	10000	5	1	0	5	0
29	423	0	10000	5	1	0	5	0
28	424	0	10000	5	1	0	5	0
27	425	0	10000	5	1	0	5	0
27	426	0	10000	5	1	0	5	0
27	427	0	10000	5	1	0	5	0
26	428	0	10000	5	1	0	5	0
27	429	0	10000	5	1	0	5	0
28	430	0	10000	5	1	0	5	0
27	431	0	10000	5	1	0	5	0
24	432	0	10000	5	1	0	5	0
24	433	0	10000	5	1	0	5	0
23	434	0	10000	5	1	0	5	0
23	435	0	10000	5	1	0	5	0
23	436	0	10000	5	1	0	5	0
22	437	0	10000	5	1	0	5	0
23	438	0	10000	5	1	0	5	0
22	439	0	10000	5	1	0	5	0
22	440	0	10000	5	1	0	5	0
23	441	0	10000	5	1	0	5	0
24	442	0	10000	5	1	0	5	0
24	443	0	10000	5	1	0	5	0
24	444	0	10000	5	1	0	5	0
24	445	0	10000	5	1	0	5	0
24	446	0	10000	5	1	0	5	0
26	447	0	10000	5	1	0	5	0
24	448	0	10000	5	1	0	5	0
25	449	0	10000	5	1	0	5	0
27	450	0	10000	5	1	0	5	0
29	451	0	10000	5	1	0	5	0
28	452	0	10000	5	1	0	5	0
29	453	0	10000	5	1	0	5	0
29	454	0	10000	5	1	0	5	0
29	455	0	10000	5	1	0	5	0
28	456	0	10000	5	1	0	5	0
27	457	0	10000	5	1	0	5	0
28	458	0	10000	5	1	0	5	0
29	459	0	10000	5	1	0	5	0
29	460	0	10000	5	1	0	5	0
28	461	0	10000	5	1	0	5	0
29	462	0	10000	5	1	0	5	0
29	463	0	10000	5	1	0	5	0
30	464	0	10000	5	1	0	5	0
32	465	0	10000	5	1	0	5	0
34	466	0	10000	5	1	0	5	0
34	467	0	10000	5	1	0	5	0
34	468	0	10000	5	1	0	5	0
34	469	0	10000	5	1	0	5	0
33	470	0	10000	5	1	0	5	0
32	471	0	10000	5	1	0	5	0
32	472	0	10000	5	1	0	5	0
32	473	0	10000	5	1	0	5	0
33	474	0	10000	5	1	0	5	0
34	475	0	10000	5	1	0	5	0
34	476	0	10000	5	1	0	5	0
33	477	0	10000	5	1	0	5	0
32	478	0	10000	5	1	0	5	0
31	479	0	10000	5	1	0	5	0
30	480	0	10000	5	1	0	5	0
31	481	0	10000	5	1	0	5	0
32	482	0	10000	5	1	0	5	0
31	483	0	10000	5	1	0	5	0
31	484	0	10000	5	1	0	5	0
31	485	0	10000	5	1	0	5	0
32	486	0	10000	5	1	0	5	0
32	487	0	10000	5	1	0	5	0
31	488	0	10000	5	1	0	5	0
33	489	0	10000	5	1	0	5	0
34	490	0	10000	5	1	0	5	0
34	491	0	10000	5	1	0	5	0
32	492	0	10000	5	1	0	5	0
32	493	0	10000	5	1	0	5	0
31	494	0	10000	5	1	0	5	0
31	495	0	10000	5	1	0	5	0
32	496	0	10000	5	1	0	5	0
33	497	0	10000	5	1	0	5	0
33	498	0	10000	5	1	0	5	0
31	499	0	10000	5	1	0	5	0
30	500	0	10000	5	1	0	5	0
29	501	0	10000	5	1	0	5	0
31	502	0	10000	5	1	0	5	1
29	503	0	10000	5	1	0	5	1
28	504	0	10000	5	1	0	5	1
27	505	0	10000	5	1	0	5	1
26	506	0	10000	5	1	0	5	1
26	507	0	10000	5	1	0	5	1
25	508	0	10000	5	1	0	5	1
26	509	0	10000	5	1	0	5	1
25	510	0	10000	5	1	0	5	1
25	511	0	10000	5	1	0	5	1
23	512	0	10000	5	1	0	5	1
23	513	0	10000	5	1	0	5	1
24	514	0	10000	5	1	0	5	1
24	515	0	10000	5	1	0	5	1
24	516	0	10000	5	1	0	5	1
23	517	0	10000	5	1	0	5	1
23	518	0	10000	5	1	0	5	1
22	519	0	10000	5	1	0	5	1
22	520	0	10000	5	1	0	5	1
22	521	0	10000	5	1	0	5	1
23	522	0	10000	5	1	0	5	1
23	523	0	10000	5	1	0	5	1
21	524	0	10000	5	1	0	5	1
20	525	0	10000	5	1	0	5	1
20	526	0	10000	5	1	0	5	1
20	527	0	10000	5	1	0	5	1
21	528	0	10000	5	1	0	5	1
22	529	0	10000	5	1	0	5	1
25	530	0	10000	5	1	0	5	1
24	531	0	10000	5	1	0	5	1
22	532	0	10000	5	1	0	5	1
22	533	0	10000	5	1	0	5	1
21	534	0	10000	5	1	0	5	1
22	535	0	10000	5	1	0	5	1
22	536	0	10000	5	1	0	5	1
21	537	0	10000	5	1	0	5	1
21	538	0	10000	5	1	0	5	1
21	539	0	10000	5	1	0	5	1
20	540	0	10000	5	1	0	5	1
19	541	0	10000	5	1	0	5	1
20	542	0	10000	5	1	0	5	1
19	543	0	10000	5	1	0	5	1
20	544	0	10000	5	1	0	5	1
19	545	0	10000	5	1	0	5	1
19	546	0	10000	5	1	0	5	1
20	547	0	10000	5	1	0	5	1
19	548	0	10000	5	1	0	5	1
20	549	0	10000	5	1	0	5	1
19	550	0	10000	5	1	0	5	1
20	551	0	10000	5	1	0	5	1
19	552	0	10000	5	1	0	5	0
22	553	0	10000	5	1	0	5	0
23	554	0	10000	5	1	0	5	0
23	555	0	10000	5	1	0	5	0
22	556	0	10000	5	1	0	5	0
23	557	0	10000	5	1	0	5	0
26	558	0	10000	5	1	0	5	0
28	559	0	10000	5	1	0	5	0
30	560	0	10000	5	1	0	5	0
29	561	0	10000	5	1	0	5	0
31	562	0	10000	5	1	0	5	0
30	563	0	10000	5	1	0	5	0
30	564	0	10000	5	1	0	5	0
28	565	0	10000	5	1	0	5	0
27	566	0	10000	5	1	0	5	0
27	567	0	10000	5	1	0	5	0
27	568	0	10000	5	1	0	5	0
27	569	0	10000	5	1	0	5	0
26	570	0	10000	5	1	0	5	0
27	571	0	10000	5	1	0	5	0
27	572	0	10000	5	1	0	5	0
29	573	0	10000	5	1	0	5	0
32	574	0	10000	5	1	0	5	0
34	575	0	10000	5	1	0	5	0
37	576	0	10000	5	1	0	5	0
36	577	0	10000	5	1	0	5	0
36	578	0	10000	5	1	0	5	0
35	579	0	10000	5	1	0	5	0
32	580	0	10000	5	1	0	5	0
32	581	0	10000	5	1	0	5	0
34	582	0	10000	5	1	0	5	0
33	583	0	10000	5	1	0	5	0
32	584	0	10000	5	1	0	5	0
30	585	0	10000	5	1	0	5	0
30	586	0	10000	5	1	0	5	0
32	587	0	10000	5	1	0	5	0
33	588	0	10000	5	1	0	5	0
33	589	0	10000	5	1	0	5	0
35	590	0	10000	5	1	0	5	0
35	591	0	10000	5	1	0	5	0
34	592	0	10000	5	1	0	5	0
34	593	0	10000	5	1	0	5	0
32	594	0	10000	5	1	0	5	0
33	595	0	10000	5	1	0	5	0
35	596	0	10000	5	1	0	5	0
39	597	0	10000	5	1	0	5	0
40	598	0	10000	5	1	0	5	0
39	599	0	10000	5	1	0	5	0
37	600	0	10000	5	1	0	5	0
38	601	0	10000	5	1	0	5	0
42	602	0	10000	5	1	0	5	0
42	603	0	10000	5	1	0	5	0
43	604	0	10000	5	1	0	5	0
42	605	0	10000	5	1	0	5	0
43	606	0	10000	5	1	0	5	0
43	607	0	10000	5	1	0	5	0
43	608	0	10000	5	1	0	5	0
44	609	0	10000	5	1	0	5	0
43	610	0	10000	5	1	0	5	0
42	611	0	10000	5	1	0	5	0
41	612	0	10000	5	1	0	5	0
57	613	0	10000	5	1	0	5	0
76	614	0	10000	5	1	0	5	0
77	615	0	10000	5	1	0	5	0
83	616	0	10000	5	1	0	5	0
93	617	0	10000	5	1	0	5	0
106	618	0	10000	5	1	0	5	0
115	619	0	10000	5	1	0	5	0
119	620	0	10000	5	1	0	5	0
119	621	0	10000	5	1	0	5	0
120	622	0	10000	5	1	0	5	0
116	623	0	10000	5	1	0	5	0
112	624	0	10000	5	1	0	5	0
108	625	0	10000	5	1	0	5	0
105	626	0	10000	5	1	0	5	0
104	627	0	10000	5	1	0	5	0
104	628	0	10000	5	1	0	5	0
103	629	0	10000	5	1	0	5	0
101	630	0	10000	5	1	0	5	0
101	631	0	10000	5	1	0	5	0
98	632	0	10000	5	1	0	5	0
97	633	0	10000	5	1	0	5	0
96	634	0	10000	5	1	0	5	0
96	635	0	10000	5	1	0	5	0
97	636	0	10000	5	1	0	5	0
96	637	0	10000	5	1	0	5	0
95	638	0	10000	5	1	0	5	0
91	639	0	10000	5	1	0	5	0
88	640	0	10000	5	1	0	5	0
84	641	0	10000	5	1	0	5	0
85	642	0	10000	5	1	0	5	0
83	643	0	10000	5	1	0	5	0
80	644	0	10000	5	1	0	5	0
77	645	0	10000	5	1	0	5	0
77	646	0	10000	5	1	0	5	0
75	647	0	10000	5	1	0	5	0
73	648	0	10000	5	1	0	5	0
72	649	0	10000	5	1	0	5	0
71	650	0	10000	5	1	0	5	0
68	651	0	10000	5	1	0	5	0
63	652	0	10000	5	1	0	5	0
61	653	0	10000	5	1	0	5	0
59	654	0	10000	5	1	0	5	0
57	655	0	10000	5	1	0	5	0
55	656	0	10000	5	1	0	5	0
53	657	0	10000	5	1	0	5	0
51	658	0	10000	5	1	0	5	0
48	659	0	10000	5	1	0	5	0
46	660	0	10000	5	1	0	5	0
44	661	0	10000	5	1	0	5	0
45	662	0	10000	5	1	0	5	0
43	663	0	10000	5	1	0	5	0
42	664	0	10000	5	1	0	5	0
41	665	0	10000	5	1	0	5	0
42	666	0	10000	5	1	0	5	0
43	667	0	10000	5	1	0	5	0
47	668	0	10000	5	1	0	5	0
49	669	0	10000	5	1	0	5	0
50	670	0	10000	5	1	0	5	0
53	671	0	10000	5	1	0	5	0
51	672	0	10000	5	1	0	5	0
54	673	0	10000	5	1	0	5	0
56	674	0	10000	5	1	0	5	0
54	675	0	10000	5	1	0	5	0
54	676	0	10000	5	1	0	5	0
55	677	0	10000	5	1	0	5	0
54	678	0	10000	5	1	0	5	0
54	679	0	10000	5	1	0	5	0
53	680	0	10000	5	1	0	5	0
51	681	0	10000	5	1	0	5	0
53	682	0	10000	5	1	0	5	0
51	683	0	10000	5	1	0	5	0
52	684	0	10000	5	1	0	5	0
51	685	0	10000	5	1	0	5	0
49	686	0	10000	5	1	0	5	0
48	687	0	10000	5	1	0	5	0
47	688	0	10000	5	1	0	5	0
49	689	0	10000	5	1	0	5	0
49	690	0	10000	5	1	0	5	0
48	691	0	10000	5	1	0	5	0
44	692	0	10000	5	1	0	5	0
43	693	0	10000	5	1	0	5	0
42	694	0	10000	5	1	0	5	0
41	695	0	10000	5	1	0	5	0
40	696	0	10000	5	1	0	5	0
40	697	0	10000	5	1	0	5	0
39	698	0	10000	5	1	0	5	0
37	699	0	10000	5	1	0	5	0
36	700	0	10000	5	1	0	5	0
34	701	0	10000	5	1	0	5	0
35	702	0	10000	5	1	0	5	0
34	703	0	10000	5	1	0	5	0
33	704	0	10000	5	1	0	5	0
33	705	0	10000	5	1	0	5	0
32	706	0	10000	5	1	0	5	0
32	707	0	10000	5	1	0	5	0
32	708	0	10000	5	1	0	5	0
32	709	0	10000	5	1	0	5	0
32	710	0	10000	5	1	0	5	0
35	711	0	10000	5	1	0	5	0
32	712	0	10000	5	1	0	5	0
32	713	0	10000	5	1	0	5	0
33	714	0	10000	5	1	0	5	0
35	715	0	10000	5	1	0	5	0
36	716	0	10000	5	1	0	5	0
35	717	0	10000	5	1	0	5	0
33	718	0	10000	5	1	0	5	0
32	719	0	10000	5	1	0	5	0
31	720	0	10000	5	1	0	5	0
30	721	0	10000	5	1	0	5	0
31	722	0	10000	5	1	0	5	0
32	723	0	10000	5	1	0	5	0
32	724	0	10000	5	1	0	5	0
34	725	0	10000	5	1	0	5	0
36	726	0	10000	5	1	0	5	0
37	727	0	10000	5	1	0	5	0
37	728	0	10000	5	1	0	5	0
36	729	0	10000	5	1	0	5	0
35	730	0	10000	5	1	0	5	0
35	731	0	10000	5	1	0	5	0
32	732	0	10000	5	1	0	5	0
31	733	0	10000	5	1	0	5	0
30	734	0	10000	5	1	0	5	0
29	735	0	10000	5	1	0	5	0
30	736	0	10000	5	1	0	5	0
30	737	0	10000	5	1	0	5	0
30	738	0	10000	5	1	0	5	0
29	739	0	10000	5	1	0	5	0
29	740	0	10000	5	1	0	5	0
28	741	0	10000	5	1	0	5	0
30	742	0	10000	5	1	0	5	0
29	743	0	10000	5	1	0	5	0
29	744	0	10000	5	1	0	5	0
29	745	0	10000	5	1	0	5	0
31	746	0	10000	5	1	0	5	0
32	747	0	10000	5	1	0	5	0
31	748	0	10000	5	1	0	5	0
31	749	0	10000	5	1	0	5	0
31	750	0	10000	5	1	0	5	0
31	751	0	10000	5	1	0	5	0
29	752	0	10000	5	1	0	5	0
30	753	0	10000	5	1	0	5	0
30	754	0	10000	5	1	0	5	0
29	755	0	10000	5	1	0	5	0
29	756	0	10000	5	1	0	5	0
29	757	0	10000	5	1	0	5	0
28	758	0	10000	5	1	0	5	0
28	759	0	10000	5	1	0	5	0
28	760	0	10000	5	1	0	5	0
26	761	0	10000	5	1	0	5	0
27	762	0	10000	5	1	0	5	0
26	763	0	10000	5	1	0	5	0
25	764	0	10000	5	1	0	5	0
24	765	0	10000	5	1	0	5	0
24	766	0	10000	5	1	0	5	0
23	767	0	10000	5	1	0	5	0
23	768	0	10000	5	1	0	5	0
25	769	0	10000	5	1	0	5	0
25	770	0	10000	5	1	0	5	0
25	771	0	10000	5	1	0	5	0
23	772	0	10000	5	1	0	5	0
25	773	0	10000	5	1	0	5	0
29	774	0	10000	5	1	0	5	0
31	775	0	10000	5	1	0	5	0
32	776	0	10000	5	1	0	5	0
35	777	0	10000	5	1	0	5	0
35	778	0	10000	5	1	0	5	0
34	779	0	10000	5	1	0	5	0
34	780	0	10000	5	1	0	5	0
34	781	0	10000	5	1	0	5	0
35	782	0	10000	5	1	0	5	0
34	783	0	10000	5	1	0	5	0
33	784	0	10000	5	1	0	5	0
32	785	0	10000	5	1	0	5	0
32	786	0	10000	5	1	0	5	0
32	787	0	10000	5	1	0	5	0
32	788	0	10000	5	1	0	5	0
32	789	0	10000	5	1	0	5	0
31	790	0	10000	5	1	0	5	0
31	791	0	10000	5	1	0	5	0
28	792	0	10000	5	1	0	5	0
28	793	0	10000	5	1	0	5	0
28	794	0	10000	5	1	0	5	0
