value	EMG	Stimulus	EMG_sensitivity	Total_Trial_Nr	practise	acq	probe_nr	Startle_Probe
87	2	7	10000	1	1	0	1	0
87	3	7	10000	1	1	0	1	0
86	4	7	10000	1	1	0	1	0
82	5	7	10000	1	1	0	1	0
78	6	7	10000	1	1	0	1	0
75	7	7	10000	1	1	0	1	0
72	8	7	10000	1	1	0	1	0
69	9	7	10000	1	1	0	1	0
67	10	7	10000	1	1	0	1	0
66	11	7	10000	1	1	0	1	0
65	12	7	10000	1	1	0	1	0
64	13	7	10000	1	1	0	1	0
60	14	7	10000	1	1	0	1	0
58	15	7	10000	1	1	0	1	0
56	16	7	10000	1	1	0	1	0
55	17	7	10000	1	1	0	1	0
52	18	7	10000	1	1	0	1	0
51	19	7	10000	1	1	0	1	0
50	20	7	10000	1	1	0	1	0
49	21	7	10000	1	1	0	1	0
48	21	7	10000	1	1	0	1	0
50	22	7	10000	1	1	0	1	0
52	24	7	10000	1	1	0	1	0
49	25	7	10000	1	1	0	1	0
48	26	7	10000	1	1	0	1	0
47	27	7	10000	1	1	0	1	0
47	28	7	10000	1	1	0	1	0
45	29	7	10000	1	1	0	1	0
43	30	7	10000	1	1	0	1	0
47	31	7	10000	1	1	0	1	0
52	31	7	10000	1	1	0	1	0
51	32	7	10000	1	1	0	1	0
53	34	7	10000	1	1	0	1	0
58	35	7	10000	1	1	0	1	0
61	36	7	10000	1	1	0	1	0
60	37	7	10000	1	1	0	1	0
58	38	7	10000	1	1	0	1	0
58	39	7	10000	1	1	0	1	0
63	40	7	10000	1	1	0	1	0
63	41	7	10000	1	1	0	1	0
62	41	7	10000	1	1	0	1	0
67	42	7	10000	1	1	0	1	0
74	44	7	10000	1	1	0	1	0
77	45	7	10000	1	1	0	1	0
78	46	7	10000	1	1	0	1	0
76	47	7	10000	1	1	0	1	0
75	48	7	10000	1	1	0	1	0
72	49	7	10000	1	1	0	1	0
69	50	7	10000	1	1	0	1	0
67	51	7	10000	1	1	0	1	0
66	51	7	10000	1	1	0	1	0
63	52	7	10000	1	1	0	1	0
60	54	7	10000	1	1	0	1	0
62	55	7	10000	1	1	0	1	0
62	56	7	10000	1	1	0	1	0
62	57	7	10000	1	1	0	1	0
61	58	7	10000	1	1	0	1	0
58	59	7	10000	1	1	0	1	0
57	60	7	10000	1	1	0	1	0
57	61	7	10000	1	1	0	1	0
56	61	7	10000	1	1	0	1	0
56	62	7	10000	1	1	0	1	0
57	64	7	10000	1	1	0	1	0
56	65	7	10000	1	1	0	1	0
53	66	7	10000	1	1	0	1	0
51	67	7	10000	1	1	0	1	0
49	68	7	10000	1	1	0	1	0
47	69	7	10000	1	1	0	1	0
46	70	7	10000	1	1	0	1	0
45	71	7	10000	1	1	0	1	0
44	71	7	10000	1	1	0	1	0
44	72	7	10000	1	1	0	1	0
41	74	7	10000	1	1	0	1	0
42	75	7	10000	1	1	0	1	0
43	76	7	10000	1	1	0	1	0
44	77	7	10000	1	1	0	1	0
47	78	7	10000	1	1	0	1	0
49	79	7	10000	1	1	0	1	0
53	80	7	10000	1	1	0	1	0
55	81	7	10000	1	1	0	1	0
53	81	7	10000	1	1	0	1	0
52	82	7	10000	1	1	0	1	0
57	84	7	10000	1	1	0	1	0
58	85	7	10000	1	1	0	1	0
59	86	7	10000	1	1	0	1	0
58	87	7	10000	1	1	0	1	0
58	88	7	10000	1	1	0	1	0
57	89	7	10000	1	1	0	1	0
57	90	7	10000	1	1	0	1	0
56	91	7	10000	1	1	0	1	0
54	91	7	10000	1	1	0	1	0
51	92	7	10000	1	1	0	1	0
48	94	7	10000	1	1	0	1	0
47	95	7	10000	1	1	0	1	0
46	96	7	10000	1	1	0	1	0
46	97	7	10000	1	1	0	1	0
44	98	7	10000	1	1	0	1	0
45	99	7	10000	1	1	0	1	0
47	100	7	10000	1	1	0	1	0
48	101	7	10000	1	1	0	1	0
50	101	7	10000	1	1	0	1	0
50	102	7	10000	1	1	0	1	0
52	104	7	10000	1	1	0	1	0
56	105	7	10000	1	1	0	1	0
55	106	7	10000	1	1	0	1	0
56	107	7	10000	1	1	0	1	0
62	108	7	10000	1	1	0	1	0
66	109	7	10000	1	1	0	1	0
68	110	7	10000	1	1	0	1	0
71	111	7	10000	1	1	0	1	0
72	111	7	10000	1	1	0	1	0
72	112	7	10000	1	1	0	1	0
69	114	7	10000	1	1	0	1	0
68	115	7	10000	1	1	0	1	0
65	116	7	10000	1	1	0	1	0
63	117	7	10000	1	1	0	1	0
61	118	7	10000	1	1	0	1	0
60	119	7	10000	1	1	0	1	0
59	120	7	10000	1	1	0	1	0
56	121	7	10000	1	1	0	1	0
56	121	7	10000	1	1	0	1	0
55	122	7	10000	1	1	0	1	0
54	124	7	10000	1	1	0	1	0
51	125	7	10000	1	1	0	1	0
51	126	7	10000	1	1	0	1	0
54	127	7	10000	1	1	0	1	0
55	128	7	10000	1	1	0	1	0
56	129	7	10000	1	1	0	1	0
56	130	7	10000	1	1	0	1	0
58	131	7	10000	1	1	0	1	0
58	131	7	10000	1	1	0	1	0
61	132	7	10000	1	1	0	1	0
63	134	7	10000	1	1	0	1	0
70	135	7	10000	1	1	0	1	0
73	136	7	10000	1	1	0	1	0
74	137	7	10000	1	1	0	1	0
73	138	7	10000	1	1	0	1	0
70	139	7	10000	1	1	0	1	0
68	140	7	10000	1	1	0	1	0
68	141	7	10000	1	1	0	1	0
68	141	7	10000	1	1	0	1	0
65	142	7	10000	1	1	0	1	0
66	144	7	10000	1	1	0	1	0
66	145	7	10000	1	1	0	1	0
66	146	7	10000	1	1	0	1	0
64	147	7	10000	1	1	0	1	0
62	148	7	10000	1	1	0	1	0
61	149	7	10000	1	1	0	1	0
62	150	7	10000	1	1	0	1	0
66	151	7	10000	1	1	0	1	0
69	151	7	10000	1	1	0	1	0
66	152	7	10000	1	1	0	1	0
61	154	7	10000	1	1	0	1	0
64	155	7	10000	1	1	0	1	0
63	156	7	10000	1	1	0	1	0
65	157	7	10000	1	1	0	1	0
67	158	7	10000	1	1	0	1	0
66	159	7	10000	1	1	0	1	0
65	160	7	10000	1	1	0	1	0
61	161	7	10000	1	1	0	1	0
57	161	7	10000	1	1	0	1	0
58	162	7	10000	1	1	0	1	0
64	164	7	10000	1	1	0	1	0
62	165	7	10000	1	1	0	1	0
61	166	7	10000	1	1	0	1	0
61	167	7	10000	1	1	0	1	0
61	168	7	10000	1	1	0	1	0
59	169	7	10000	1	1	0	1	0
57	170	7	10000	1	1	0	1	0
58	171	7	10000	1	1	0	1	0
57	171	7	10000	1	1	0	1	0
55	172	7	10000	1	1	0	1	0
51	174	7	10000	1	1	0	1	0
51	175	7	10000	1	1	0	1	0
50	176	7	10000	1	1	0	1	0
48	177	7	10000	1	1	0	1	0
46	178	7	10000	1	1	0	1	0
45	179	7	10000	1	1	0	1	0
45	180	7	10000	1	1	0	1	0
42	181	7	10000	1	1	0	1	0
40	181	7	10000	1	1	0	1	0
39	182	7	10000	1	1	0	1	0
40	184	7	10000	1	1	0	1	0
39	185	7	10000	1	1	0	1	0
37	186	7	10000	1	1	0	1	0
36	187	7	10000	1	1	0	1	0
35	188	7	10000	1	1	0	1	0
35	189	7	10000	1	1	0	1	0
34	190	7	10000	1	1	0	1	0
34	191	7	10000	1	1	0	1	0
34	191	7	10000	1	1	0	1	0
33	192	7	10000	1	1	0	1	0
31	194	7	10000	1	1	0	1	0
34	195	7	10000	1	1	0	1	0
39	196	7	10000	1	1	0	1	0
39	197	7	10000	1	1	0	1	0
39	198	7	10000	1	1	0	1	0
42	199	7	10000	1	1	0	1	0
43	200	7	10000	1	1	0	1	0
44	201	7	10000	1	1	0	1	0
46	201	7	10000	1	1	0	1	0
46	202	7	10000	1	1	0	1	0
48	204	7	10000	1	1	0	1	0
46	205	7	10000	1	1	0	1	0
44	206	7	10000	1	1	0	1	0
43	207	7	10000	1	1	0	1	0
43	208	7	10000	1	1	0	1	0
41	209	7	10000	1	1	0	1	0
39	210	7	10000	1	1	0	1	0
38	211	7	10000	1	1	0	1	0
40	211	7	10000	1	1	0	1	0
47	212	7	10000	1	1	0	1	0
51	214	7	10000	1	1	0	1	0
50	215	7	10000	1	1	0	1	0
50	216	7	10000	1	1	0	1	0
52	217	7	10000	1	1	0	1	0
54	218	7	10000	1	1	0	1	0
54	219	7	10000	1	1	0	1	0
55	220	7	10000	1	1	0	1	0
55	221	7	10000	1	1	0	1	0
56	221	7	10000	1	1	0	1	0
56	222	7	10000	1	1	0	1	0
55	224	7	10000	1	1	0	1	0
55	225	7	10000	1	1	0	1	0
56	226	7	10000	1	1	0	1	0
56	227	7	10000	1	1	0	1	0
56	228	7	10000	1	1	0	1	0
57	229	7	10000	1	1	0	1	0
59	230	7	10000	1	1	0	1	0
59	231	7	10000	1	1	0	1	0
59	231	7	10000	1	1	0	1	0
59	232	7	10000	1	1	0	1	0
58	234	7	10000	1	1	0	1	0
58	235	7	10000	1	1	0	1	0
56	236	7	10000	1	1	0	1	0
56	237	7	10000	1	1	0	1	0
53	238	7	10000	1	1	0	1	0
53	239	7	10000	1	1	0	1	0
54	240	7	10000	1	1	0	1	0
53	241	7	10000	1	1	0	1	0
51	241	7	10000	1	1	0	1	0
52	242	7	10000	1	1	0	1	0
54	244	7	10000	1	1	0	1	0
52	245	7	10000	1	1	0	1	0
51	246	7	10000	1	1	0	1	0
50	247	7	10000	1	1	0	1	0
50	248	7	10000	1	1	0	1	0
48	249	7	10000	1	1	0	1	0
45	250	7	10000	1	1	0	1	0
44	251	7	10000	1	1	0	1	0
43	251	7	10000	1	1	0	1	0
43	252	7	10000	1	1	0	1	0
39	254	7	10000	1	1	0	1	0
38	255	7	10000	1	1	0	1	0
37	256	7	10000	1	1	0	1	0
42	257	7	10000	1	1	0	1	0
45	258	7	10000	1	1	0	1	0
44	259	7	10000	1	1	0	1	0
44	260	7	10000	1	1	0	1	0
42	261	7	10000	1	1	0	1	0
40	261	7	10000	1	1	0	1	0
39	262	7	10000	1	1	0	1	0
41	264	7	10000	1	1	0	1	0
39	265	7	10000	1	1	0	1	0
38	266	7	10000	1	1	0	1	0
41	267	7	10000	1	1	0	1	0
43	268	7	10000	1	1	0	1	0
42	269	7	10000	1	1	0	1	0
42	270	7	10000	1	1	0	1	0
43	271	7	10000	1	1	0	1	0
44	271	7	10000	1	1	0	1	0
46	272	7	10000	1	1	0	1	0
45	274	7	10000	1	1	0	1	0
46	275	7	10000	1	1	0	1	0
47	276	7	10000	1	1	0	1	0
52	277	7	10000	1	1	0	1	0
58	278	7	10000	1	1	0	1	0
57	279	7	10000	1	1	0	1	0
56	280	7	10000	1	1	0	1	0
55	281	7	10000	1	1	0	1	0
56	281	7	10000	1	1	0	1	0
61	282	7	10000	1	1	0	1	0
64	284	7	10000	1	1	0	1	0
65	285	7	10000	1	1	0	1	0
71	286	7	10000	1	1	0	1	0
77	287	7	10000	1	1	0	1	0
80	288	7	10000	1	1	0	1	0
80	289	7	10000	1	1	0	1	0
80	290	7	10000	1	1	0	1	0
78	291	7	10000	1	1	0	1	0
75	291	7	10000	1	1	0	1	0
74	292	7	10000	1	1	0	1	0
68	294	7	10000	1	1	0	1	0
66	295	7	10000	1	1	0	1	0
66	296	7	10000	1	1	0	1	0
64	297	7	10000	1	1	0	1	0
62	298	7	10000	1	1	0	1	0
61	299	7	10000	1	1	0	1	0
62	300	7	10000	1	1	0	1	0
62	301	7	10000	1	1	0	1	0
62	301	7	10000	1	1	0	1	0
63	302	7	10000	1	1	0	1	0
67	304	7	10000	1	1	0	1	0
67	305	7	10000	1	1	0	1	0
66	306	7	10000	1	1	0	1	0
63	307	7	10000	1	1	0	1	0
61	308	7	10000	1	1	0	1	0
59	309	7	10000	1	1	0	1	0
56	310	7	10000	1	1	0	1	0
55	311	7	10000	1	1	0	1	0
55	311	7	10000	1	1	0	1	0
54	312	7	10000	1	1	0	1	0
51	314	7	10000	1	1	0	1	0
49	315	7	10000	1	1	0	1	0
48	316	7	10000	1	1	0	1	0
49	317	7	10000	1	1	0	1	0
51	318	7	10000	1	1	0	1	0
51	319	7	10000	1	1	0	1	0
56	320	7	10000	1	1	0	1	0
57	321	7	10000	1	1	0	1	0
60	321	7	10000	1	1	0	1	0
60	322	7	10000	1	1	0	1	0
60	324	7	10000	1	1	0	1	0
58	325	7	10000	1	1	0	1	0
56	326	7	10000	1	1	0	1	0
56	327	7	10000	1	1	0	1	0
56	328	7	10000	1	1	0	1	0
55	329	7	10000	1	1	0	1	0
53	330	7	10000	1	1	0	1	0
54	331	7	10000	1	1	0	1	0
54	331	7	10000	1	1	0	1	0
52	332	7	10000	1	1	0	1	0
52	334	7	10000	1	1	0	1	0
53	335	7	10000	1	1	0	1	0
56	336	7	10000	1	1	0	1	0
58	337	7	10000	1	1	0	1	0
58	338	7	10000	1	1	0	1	0
61	339	7	10000	1	1	0	1	0
64	340	7	10000	1	1	0	1	0
62	341	7	10000	1	1	0	1	0
60	341	7	10000	1	1	0	1	0
58	342	7	10000	1	1	0	1	0
61	344	7	10000	1	1	0	1	0
62	345	7	10000	1	1	0	1	0
62	346	7	10000	1	1	0	1	0
61	347	7	10000	1	1	0	1	0
59	348	7	10000	1	1	0	1	0
57	349	7	10000	1	1	0	1	0
54	350	7	10000	1	1	0	1	0
53	351	7	10000	1	1	0	1	0
52	351	7	10000	1	1	0	1	0
50	352	7	10000	1	1	0	1	0
47	354	7	10000	1	1	0	1	0
47	355	7	10000	1	1	0	1	0
46	356	7	10000	1	1	0	1	0
45	357	7	10000	1	1	0	1	0
44	358	7	10000	1	1	0	1	0
43	359	7	10000	1	1	0	1	0
43	360	7	10000	1	1	0	1	0
45	361	7	10000	1	1	0	1	0
45	361	7	10000	1	1	0	1	0
47	362	7	10000	1	1	0	1	0
55	364	7	10000	1	1	0	1	0
56	365	7	10000	1	1	0	1	0
54	366	7	10000	1	1	0	1	0
56	367	7	10000	1	1	0	1	0
59	368	7	10000	1	1	0	1	0
63	369	7	10000	1	1	0	1	0
65	370	7	10000	1	1	0	1	0
65	371	7	10000	1	1	0	1	0
64	371	7	10000	1	1	0	1	0
60	372	7	10000	1	1	0	1	0
56	374	7	10000	1	1	0	1	0
56	375	7	10000	1	1	0	1	0
54	376	7	10000	1	1	0	1	0
53	377	7	10000	1	1	0	1	0
57	378	7	10000	1	1	0	1	0
63	379	7	10000	1	1	0	1	0
64	380	7	10000	1	1	0	1	0
62	381	7	10000	1	1	0	1	0
62	381	7	10000	1	1	0	1	0
63	382	7	10000	1	1	0	1	0
65	384	7	10000	1	1	0	1	0
63	385	7	10000	1	1	0	1	0
61	386	7	10000	1	1	0	1	0
60	387	7	10000	1	1	0	1	0
60	388	7	10000	1	1	0	1	0
59	389	7	10000	1	1	0	1	0
57	390	7	10000	1	1	0	1	0
56	391	7	10000	1	1	0	1	0
54	391	7	10000	1	1	0	1	0
52	392	7	10000	1	1	0	1	0
48	394	7	10000	1	1	0	1	0
46	395	7	10000	1	1	0	1	0
45	396	7	10000	1	1	0	1	0
44	397	7	10000	1	1	0	1	0
43	398	7	10000	1	1	0	1	0
41	399	7	10000	1	1	0	1	0
41	400	7	10000	1	1	0	1	0
38	401	7	10000	1	1	0	1	0
36	401	7	10000	1	1	0	1	0
38	402	7	10000	1	1	0	1	0
42	404	7	10000	1	1	0	1	0
47	405	7	10000	1	1	0	1	0
48	406	7	10000	1	1	0	1	0
48	407	7	10000	1	1	0	1	0
52	408	7	10000	1	1	0	1	0
54	409	7	10000	1	1	0	1	0
55	410	7	10000	1	1	0	1	0
56	411	7	10000	1	1	0	1	0
58	411	7	10000	1	1	0	1	0
60	412	7	10000	1	1	0	1	0
57	414	7	10000	1	1	0	1	0
56	415	7	10000	1	1	0	1	0
55	416	7	10000	1	1	0	1	0
52	417	7	10000	1	1	0	1	0
50	418	7	10000	1	1	0	1	0
50	419	7	10000	1	1	0	1	0
51	420	7	10000	1	1	0	1	0
55	421	7	10000	1	1	0	1	0
61	421	7	10000	1	1	0	1	0
60	422	7	10000	1	1	0	1	0
66	424	7	10000	1	1	0	1	0
70	425	7	10000	1	1	0	1	0
70	426	7	10000	1	1	0	1	0
69	427	7	10000	1	1	0	1	0
67	428	7	10000	1	1	0	1	0
64	429	7	10000	1	1	0	1	0
62	430	7	10000	1	1	0	1	0
60	431	7	10000	1	1	0	1	0
59	431	7	10000	1	1	0	1	0
60	432	7	10000	1	1	0	1	0
60	434	7	10000	1	1	0	1	0
64	435	7	10000	1	1	0	1	0
64	436	7	10000	1	1	0	1	0
63	437	7	10000	1	1	0	1	0
61	438	7	10000	1	1	0	1	0
62	439	7	10000	1	1	0	1	0
64	440	7	10000	1	1	0	1	0
63	441	7	10000	1	1	0	1	0
64	441	7	10000	1	1	0	1	0
64	442	7	10000	1	1	0	1	0
64	444	7	10000	1	1	0	1	0
61	445	7	10000	1	1	0	1	0
59	446	7	10000	1	1	0	1	0
58	447	7	10000	1	1	0	1	0
57	459	7	10000	1	1	0	1	0
62	460	7	10000	1	1	0	1	0
68	461	7	10000	1	1	0	1	0
69	462	7	10000	1	1	0	1	0
67	463	7	10000	1	1	0	1	0
64	464	7	10000	1	1	0	1	0
60	465	7	10000	1	1	0	1	0
58	466	7	10000	1	1	0	1	0
57	467	7	10000	1	1	0	1	0
56	468	7	10000	1	1	0	1	0
54	469	7	10000	1	1	0	1	0
53	470	7	10000	1	1	0	1	0
51	471	7	10000	1	1	0	1	0
49	472	7	10000	1	1	0	1	0
48	468	7	10000	1	1	0	1	0
47	469	7	10000	1	1	0	1	0
47	470	7	10000	1	1	0	1	0
45	471	7	10000	1	1	0	1	0
49	472	7	10000	1	1	0	1	0
50	473	7	10000	1	1	0	1	0
49	474	7	10000	1	1	0	1	0
52	475	7	10000	1	1	0	1	0
54	477	7	10000	1	1	0	1	0
55	478	7	10000	1	1	0	1	0
54	479	7	10000	1	1	0	1	0
55	480	7	10000	1	1	0	1	0
55	481	7	10000	1	1	0	1	0
58	482	7	10000	1	1	0	1	0
57	483	7	10000	1	1	0	1	0
59	484	7	10000	1	1	0	1	0
63	485	7	10000	1	1	0	1	0
65	486	7	10000	1	1	0	1	0
66	485	7	10000	1	1	0	1	0
64	486	7	10000	1	1	0	1	0
61	487	7	10000	1	1	0	1	0
59	488	7	10000	1	1	0	1	0
59	489	7	10000	1	1	0	1	0
56	490	7	10000	1	1	0	1	0
52	491	7	10000	1	1	0	1	0
52	492	7	10000	1	1	0	1	0
56	490	7	10000	1	1	0	1	0
58	491	7	10000	1	1	0	1	0
56	492	7	10000	1	1	0	1	0
54	493	7	10000	1	1	0	1	0
52	495	7	10000	1	1	0	1	0
50	496	7	10000	1	1	0	1	0
48	497	7	10000	1	1	0	1	0
47	498	7	10000	1	1	0	1	0
48	499	7	10000	1	1	0	1	0
48	500	7	10000	1	1	0	1	0
48	500	7	10000	1	1	0	1	0
46	501	7	10000	1	1	0	1	0
45	502	7	10000	1	1	0	1	0
43	503	7	10000	1	1	0	1	0
41	539	7	10000	1	1	0	1	1
39	540	7	10000	1	1	0	1	1
40	541	7	10000	1	1	0	1	1
38	542	7	10000	1	1	0	1	1
37	543	7	10000	1	1	0	1	1
36	544	7	10000	1	1	0	1	1
34	545	7	10000	1	1	0	1	1
33	546	7	10000	1	1	0	1	1
35	547	7	10000	1	1	0	1	1
41	548	7	10000	1	1	0	1	1
46	549	7	10000	1	1	0	1	1
49	550	7	10000	1	1	0	1	1
44	551	7	10000	1	1	0	1	1
45	552	7	10000	1	1	0	1	1
48	553	7	10000	1	1	0	1	1
50	554	7	10000	1	1	0	1	1
52	555	7	10000	1	1	0	1	1
54	556	7	10000	1	1	0	1	1
54	557	7	10000	1	1	0	1	1
55	558	7	10000	1	1	0	1	1
52	559	7	10000	1	1	0	1	1
50	560	7	10000	1	1	0	1	1
53	561	7	10000	1	1	0	1	1
54	562	7	10000	1	1	0	1	1
53	563	7	10000	1	1	0	1	1
51	564	7	10000	1	1	0	1	1
49	565	7	10000	1	1	0	1	1
47	566	7	10000	1	1	0	1	1
46	567	7	10000	1	1	0	1	1
46	568	7	10000	1	1	0	1	1
45	569	7	10000	1	1	0	1	1
45	570	7	10000	1	1	0	1	1
42	571	7	10000	1	1	0	1	1
41	572	7	10000	1	1	0	1	1
41	573	7	10000	1	1	0	1	1
40	574	7	10000	1	1	0	1	1
41	575	7	10000	1	1	0	1	1
44	576	7	10000	1	1	0	1	1
44	577	7	10000	1	1	0	1	1
47	578	7	10000	1	1	0	1	1
53	547	7	10000	1	1	0	1	1
57	548	7	10000	1	1	0	1	1
60	549	7	10000	1	1	0	1	1
58	550	7	10000	1	1	0	1	1
57	551	7	10000	1	1	0	1	1
56	552	7	10000	1	1	0	1	1
56	553	7	10000	1	1	0	1	1
58	554	7	10000	1	1	0	1	1
59	552	7	10000	1	1	0	1	1
59	553	7	10000	1	1	0	1	1
59	554	7	10000	1	1	0	1	1
59	555	7	10000	1	1	0	1	1
58	559	7	10000	1	1	0	1	0
61	560	7	10000	1	1	0	1	0
60	561	7	10000	1	1	0	1	0
65	562	7	10000	1	1	0	1	0
66	563	7	10000	1	1	0	1	0
65	564	7	10000	1	1	0	1	0
64	560	7	10000	1	1	0	1	0
62	561	7	10000	1	1	0	1	0
59	562	7	10000	1	1	0	1	0
59	563	7	10000	1	1	0	1	0
58	564	7	10000	1	1	0	1	0
56	565	7	10000	1	1	0	1	0
54	566	7	10000	1	1	0	1	0
52	567	7	10000	1	1	0	1	0
50	568	7	10000	1	1	0	1	0
50	569	7	10000	1	1	0	1	0
50	570	7	10000	1	1	0	1	0
52	571	7	10000	1	1	0	1	0
56	572	7	10000	1	1	0	1	0
57	573	7	10000	1	1	0	1	0
53	574	7	10000	1	1	0	1	0
54	575	7	10000	1	1	0	1	0
54	576	7	10000	1	1	0	1	0
53	577	7	10000	1	1	0	1	0
51	578	7	10000	1	1	0	1	0
50	579	7	10000	1	1	0	1	0
49	580	7	10000	1	1	0	1	0
47	581	7	10000	1	1	0	1	0
46	582	7	10000	1	1	0	1	0
46	583	7	10000	1	1	0	1	0
47	584	7	10000	1	1	0	1	0
45	585	7	10000	1	1	0	1	0
48	586	7	10000	1	1	0	1	0
53	587	7	10000	1	1	0	1	0
54	588	7	10000	1	1	0	1	0
53	589	7	10000	1	1	0	1	0
53	590	7	10000	1	1	0	1	0
58	591	7	10000	1	1	0	1	0
62	592	7	10000	1	1	0	1	0
63	593	7	10000	1	1	0	1	0
60	594	7	10000	1	1	0	1	0
59	595	7	10000	1	1	0	1	0
59	596	7	10000	1	1	0	1	0
59	597	7	10000	1	1	0	1	0
59	598	7	10000	1	1	0	1	0
57	599	7	10000	1	1	0	1	0
56	600	7	10000	1	1	0	1	0
53	601	7	10000	1	1	0	1	0
50	602	7	10000	1	1	0	1	0
49	603	7	10000	1	1	0	1	0
51	604	7	10000	1	1	0	1	0
50	605	7	10000	1	1	0	1	0
48	606	7	10000	1	1	0	1	0
46	607	7	10000	1	1	0	1	0
44	608	7	10000	1	1	0	1	0
42	609	7	10000	1	1	0	1	0
42	610	7	10000	1	1	0	1	0
41	611	7	10000	1	1	0	1	0
41	612	7	10000	1	1	0	1	0
42	613	7	10000	1	1	0	1	0
39	614	7	10000	1	1	0	1	0
39	615	7	10000	1	1	0	1	0
40	616	7	10000	1	1	0	1	0
44	617	7	10000	1	1	0	1	0
49	618	7	10000	1	1	0	1	0
49	619	7	10000	1	1	0	1	0
48	620	7	10000	1	1	0	1	0
47	621	7	10000	1	1	0	1	0
50	622	7	10000	1	1	0	1	0
49	623	7	10000	1	1	0	1	0
49	624	7	10000	1	1	0	1	0
49	625	7	10000	1	1	0	1	0
56	626	7	10000	1	1	0	1	0
66	627	7	10000	1	1	0	1	0
69	628	7	10000	1	1	0	1	0
93	629	7	10000	1	1	0	1	0
113	630	7	10000	1	1	0	1	0
118	631	7	10000	1	1	0	1	0
167	632	7	10000	1	1	0	1	0
226	633	7	10000	1	1	0	1	0
232	634	7	10000	1	1	0	1	0
278	635	7	10000	1	1	0	1	0
319	636	7	10000	1	1	0	1	0
328	637	7	10000	1	1	0	1	0
381	638	7	10000	1	1	0	1	0
419	639	7	10000	1	1	0	1	0
414	640	7	10000	1	1	0	1	0
416	641	7	10000	1	1	0	1	0
474	642	7	10000	1	1	0	1	0
492	643	7	10000	1	1	0	1	0
501	644	7	10000	1	1	0	1	0
548	645	7	10000	1	1	0	1	0
634	646	7	10000	1	1	0	1	0
711	647	7	10000	1	1	0	1	0
696	648	7	10000	1	1	0	1	0
679	649	7	10000	1	1	0	1	0
660	650	7	10000	1	1	0	1	0
692	651	7	10000	1	1	0	1	0
717	652	7	10000	1	1	0	1	0
767	653	7	10000	1	1	0	1	0
786	654	7	10000	1	1	0	1	0
895	655	7	10000	1	1	0	1	0
898	656	7	10000	1	1	0	1	0
960	657	7	10000	1	1	0	1	0
1009	658	7	10000	1	1	0	1	0
1006	659	7	10000	1	1	0	1	0
986	660	7	10000	1	1	0	1	0
1002	661	7	10000	1	1	0	1	0
1011	662	7	10000	1	1	0	1	0
1006	663	7	10000	1	1	0	1	0
990	664	7	10000	1	1	0	1	0
960	665	7	10000	1	1	0	1	0
919	666	7	10000	1	1	0	1	0
879	667	7	10000	1	1	0	1	0
847	668	7	10000	1	1	0	1	0
818	669	7	10000	1	1	0	1	0
790	670	7	10000	1	1	0	1	0
763	671	7	10000	1	1	0	1	0
739	672	7	10000	1	1	0	1	0
715	673	7	10000	1	1	0	1	0
684	674	7	10000	1	1	0	1	0
660	675	7	10000	1	1	0	1	0
645	676	7	10000	1	1	0	1	0
626	677	7	10000	1	1	0	1	0
603	678	7	10000	1	1	0	1	0
579	679	7	10000	1	1	0	1	0
552	680	7	10000	1	1	0	1	0
527	681	7	10000	1	1	0	1	0
505	682	7	10000	1	1	0	1	0
485	683	7	10000	1	1	0	1	0
468	684	7	10000	1	1	0	1	0
447	685	7	10000	1	1	0	1	0
428	686	7	10000	1	1	0	1	0
408	687	7	10000	1	1	0	1	0
389	688	7	10000	1	1	0	1	0
373	689	7	10000	1	1	0	1	0
358	690	7	10000	1	1	0	1	0
348	691	7	10000	1	1	0	1	0
341	692	7	10000	1	1	0	1	0
334	693	7	10000	1	1	0	1	0
326	694	7	10000	1	1	0	1	0
324	695	7	10000	1	1	0	1	0
323	696	7	10000	1	1	0	1	0
324	697	7	10000	1	1	0	1	0
326	698	7	10000	1	1	0	1	0
321	699	7	10000	1	1	0	1	0
315	700	7	10000	1	1	0	1	0
306	701	7	10000	1	1	0	1	0
296	702	7	10000	1	1	0	1	0
287	703	7	10000	1	1	0	1	0
282	704	7	10000	1	1	0	1	0
273	705	7	10000	1	1	0	1	0
266	706	7	10000	1	1	0	1	0
260	707	7	10000	1	1	0	1	0
254	708	7	10000	1	1	0	1	0
245	709	7	10000	1	1	0	1	0
239	710	7	10000	1	1	0	1	0
238	711	7	10000	1	1	0	1	0
235	712	7	10000	1	1	0	1	0
231	713	7	10000	1	1	0	1	0
225	714	7	10000	1	1	0	1	0
223	715	7	10000	1	1	0	1	0
219	716	7	10000	1	1	0	1	0
215	717	7	10000	1	1	0	1	0
214	718	7	10000	1	1	0	1	0
217	719	7	10000	1	1	0	1	0
215	720	7	10000	1	1	0	1	0
210	721	7	10000	1	1	0	1	0
203	722	7	10000	1	1	0	1	0
198	723	7	10000	1	1	0	1	0
194	724	7	10000	1	1	0	1	0
187	725	7	10000	1	1	0	1	0
179	726	7	10000	1	1	0	1	0
171	727	7	10000	1	1	0	1	0
165	728	7	10000	1	1	0	1	0
160	729	7	10000	1	1	0	1	0
154	730	7	10000	1	1	0	1	0
155	731	7	10000	1	1	0	1	0
155	732	7	10000	1	1	0	1	0
151	733	7	10000	1	1	0	1	0
142	734	7	10000	1	1	0	1	0
136	735	7	10000	1	1	0	1	0
132	736	7	10000	1	1	0	1	0
126	737	7	10000	1	1	0	1	0
121	738	7	10000	1	1	0	1	0
121	739	7	10000	1	1	0	1	0
122	740	7	10000	1	1	0	1	0
123	741	7	10000	1	1	0	1	0
127	742	7	10000	1	1	0	1	0
129	743	7	10000	1	1	0	1	0
132	744	7	10000	1	1	0	1	0
136	745	7	10000	1	1	0	1	0
139	746	7	10000	1	1	0	1	0
139	747	7	10000	1	1	0	1	0
141	748	7	10000	1	1	0	1	0
143	749	7	10000	1	1	0	1	0
142	750	7	10000	1	1	0	1	0
141	751	7	10000	1	1	0	1	0
136	752	7	10000	1	1	0	1	0
132	753	7	10000	1	1	0	1	0
127	754	7	10000	1	1	0	1	0
125	755	7	10000	1	1	0	1	0
126	756	7	10000	1	1	0	1	0
129	757	7	10000	1	1	0	1	0
132	758	7	10000	1	1	0	1	0
134	759	7	10000	1	1	0	1	0
130	760	7	10000	1	1	0	1	0
125	761	7	10000	1	1	0	1	0
120	762	7	10000	1	1	0	1	0
116	763	7	10000	1	1	0	1	0
119	764	7	10000	1	1	0	1	0
123	765	7	10000	1	1	0	1	0
126	766	7	10000	1	1	0	1	0
128	767	7	10000	1	1	0	1	0
132	768	7	10000	1	1	0	1	0
135	769	7	10000	1	1	0	1	0
138	770	7	10000	1	1	0	1	0
143	771	7	10000	1	1	0	1	0
147	772	7	10000	1	1	0	1	0
151	773	7	10000	1	1	0	1	0
152	774	7	10000	1	1	0	1	0
155	775	7	10000	1	1	0	1	0
157	776	7	10000	1	1	0	1	0
160	777	7	10000	1	1	0	1	0
163	778	7	10000	1	1	0	1	0
164	779	7	10000	1	1	0	1	0
167	780	7	10000	1	1	0	1	0
171	781	7	10000	1	1	0	1	0
175	782	7	10000	1	1	0	1	0
179	783	7	10000	1	1	0	1	0
183	784	7	10000	1	1	0	1	0
186	785	7	10000	1	1	0	1	0
187	786	7	10000	1	1	0	1	0
185	787	7	10000	1	1	0	1	0
179	788	7	10000	1	1	0	1	0
174	789	7	10000	1	1	0	1	0
166	790	7	10000	1	1	0	1	0
160	791	7	10000	1	1	0	1	0
153	792	7	10000	1	1	0	1	0
150	793	7	10000	1	1	0	1	0
145	794	7	10000	1	1	0	1	0
144	795	7	10000	1	1	0	1	0
145	796	7	10000	1	1	0	1	0
147	797	7	10000	1	1	0	1	0
147	798	7	10000	1	1	0	1	0
150	799	7	10000	1	1	0	1	0
158	800	7	10000	1	1	0	1	0
165	801	7	10000	1	1	0	1	0
168	802	7	10000	1	1	0	1	0
164	803	7	10000	1	1	0	1	0
161	804	7	10000	1	1	0	1	0
157	805	7	10000	1	1	0	1	0
155	806	7	10000	1	1	0	1	0
150	807	7	10000	1	1	0	1	0
143	808	7	10000	1	1	0	1	0
139	809	7	10000	1	1	0	1	0
137	810	7	10000	1	1	0	1	0
138	811	7	10000	1	1	0	1	0
139	812	7	10000	1	1	0	1	0
140	813	7	10000	1	1	0	1	0
137	814	7	10000	1	1	0	1	0
136	815	7	10000	1	1	0	1	0
134	816	7	10000	1	1	0	1	0
130	817	7	10000	1	1	0	1	0
127	818	7	10000	1	1	0	1	0
124	819	7	10000	1	1	0	1	0
123	820	7	10000	1	1	0	1	0
120	821	7	10000	1	1	0	1	0
117	822	7	10000	1	1	0	1	0
113	823	7	10000	1	1	0	1	0
112	824	7	10000	1	1	0	1	0
109	825	7	10000	1	1	0	1	0
106	826	7	10000	1	1	0	1	0
103	827	7	10000	1	1	0	1	0
98	828	7	10000	1	1	0	1	0
93	829	7	10000	1	1	0	1	0
90	830	7	10000	1	1	0	1	0
86	831	7	10000	1	1	0	1	0
85	832	7	10000	1	1	0	1	0
86	833	7	10000	1	1	0	1	0
84	834	7	10000	1	1	0	1	0
84	835	7	10000	1	1	0	1	0
85	836	7	10000	1	1	0	1	0
87	837	7	10000	1	1	0	1	0
84	838	7	10000	1	1	0	1	0
85	839	7	10000	1	1	0	1	0
87	840	7	10000	1	1	0	1	0
90	841	7	10000	1	1	0	1	0
93	842	7	10000	1	1	0	1	0
96	843	7	10000	1	1	0	1	0
99	844	7	10000	1	1	0	1	0
102	845	7	10000	1	1	0	1	0
103	846	7	10000	1	1	0	1	0
103	847	7	10000	1	1	0	1	0
104	848	7	10000	1	1	0	1	0
104	849	7	10000	1	1	0	1	0
105	850	7	10000	1	1	0	1	0
105	851	7	10000	1	1	0	1	0
103	852	7	10000	1	1	0	1	0
102	853	7	10000	1	1	0	1	0
99	854	7	10000	1	1	0	1	0
97	855	7	10000	1	1	0	1	0
95	856	7	10000	1	1	0	1	0
92	857	7	10000	1	1	0	1	0
93	858	7	10000	1	1	0	1	0
93	859	7	10000	1	1	0	1	0
93	860	7	10000	1	1	0	1	0
92	861	7	10000	1	1	0	1	0
95	862	7	10000	1	1	0	1	0
96	863	7	10000	1	1	0	1	0
99	864	7	10000	1	1	0	1	0
96	865	7	10000	1	1	0	1	0
92	866	7	10000	1	1	0	1	0
88	867	7	10000	1	1	0	1	0
87	868	7	10000	1	1	0	1	0
86	869	7	10000	1	1	0	1	0
84	870	7	10000	1	1	0	1	0
83	871	7	10000	1	1	0	1	0
82	872	7	10000	1	1	0	1	0
83	873	7	10000	1	1	0	1	0
84	874	7	10000	1	1	0	1	0
87	875	7	10000	1	1	0	1	0
91	876	7	10000	1	1	0	1	0
97	877	7	10000	1	1	0	1	0
100	878	7	10000	1	1	0	1	0
104	879	7	10000	1	1	0	1	0
106	880	7	10000	1	1	0	1	0
106	881	7	10000	1	1	0	1	0
112	882	7	10000	1	1	0	1	0
121	883	7	10000	1	1	0	1	0
128	884	7	10000	1	1	0	1	0
127	885	7	10000	1	1	0	1	0
125	886	7	10000	1	1	0	1	0
122	887	7	10000	1	1	0	1	0
118	888	7	10000	1	1	0	1	0
113	889	7	10000	1	1	0	1	0
110	890	7	10000	1	1	0	1	0
109	891	7	10000	1	1	0	1	0
106	892	7	10000	1	1	0	1	0
101	893	7	10000	1	1	0	1	0
101	894	7	10000	1	1	0	1	0
104	895	7	10000	1	1	0	1	0
101	896	7	10000	1	1	0	1	0
98	897	7	10000	1	1	0	1	0
94	898	7	10000	1	1	0	1	0
91	899	7	10000	1	1	0	1	0
88	900	7	10000	1	1	0	1	0
88	901	7	10000	1	1	0	1	0
95	902	7	10000	1	1	0	1	0
97	903	7	10000	1	1	0	1	0
99	904	7	10000	1	1	0	1	0
103	905	7	10000	1	1	0	1	0
109	906	7	10000	1	1	0	1	0
113	907	7	10000	1	1	0	1	0
111	908	7	10000	1	1	0	1	0
108	909	7	10000	1	1	0	1	0
103	910	7	10000	1	1	0	1	0
100	911	7	10000	1	1	0	1	0
98	912	7	10000	1	1	0	1	0
95	913	7	10000	1	1	0	1	0
92	914	7	10000	1	1	0	1	0
93	915	7	10000	1	1	0	1	0
90	916	7	10000	1	1	0	1	0
86	917	7	10000	1	1	0	1	0
84	918	7	10000	1	1	0	1	0
80	919	7	10000	1	1	0	1	0
77	920	7	10000	1	1	0	1	0
76	921	7	10000	1	1	0	1	0
74	922	7	10000	1	1	0	1	0
71	923	7	10000	1	1	0	1	0
78	924	7	10000	1	1	0	1	0
80	925	7	10000	1	1	0	1	0
77	926	7	10000	1	1	0	1	0
75	927	7	10000	1	1	0	1	0
79	928	7	10000	1	1	0	1	0
84	929	7	10000	1	1	0	1	0
90	930	7	10000	1	1	0	1	0
93	931	7	10000	1	1	0	1	0
97	932	7	10000	1	1	0	1	0
101	933	7	10000	1	1	0	1	0
99	934	7	10000	1	1	0	1	0
96	935	7	10000	1	1	0	1	0
94	936	7	10000	1	1	0	1	0
93	937	7	10000	1	1	0	1	0
92	938	7	10000	1	1	0	1	0
89	939	7	10000	1	1	0	1	0
89	940	7	10000	1	1	0	1	0
93	941	7	10000	1	1	0	1	0
99	942	7	10000	1	1	0	1	0
104	943	7	10000	1	1	0	1	0
109	944	7	10000	1	1	0	1	0
109	945	7	10000	1	1	0	1	0
109	946	7	10000	1	1	0	1	0
108	947	7	10000	1	1	0	1	0
106	948	7	10000	1	1	0	1	0
104	949	7	10000	1	1	0	1	0
102	950	7	10000	1	1	0	1	0
99	951	7	10000	1	1	0	1	0
99	952	7	10000	1	1	0	1	0
100	953	7	10000	1	1	0	1	0
95	954	7	10000	1	1	0	1	0
93	955	7	10000	1	1	0	1	0
90	956	7	10000	1	1	0	1	0
86	957	7	10000	1	1	0	1	0
84	958	7	10000	1	1	0	1	0
83	959	7	10000	1	1	0	1	0
79	960	7	10000	1	1	0	1	0
75	961	7	10000	1	1	0	1	0
72	962	7	10000	1	1	0	1	0
69	963	7	10000	1	1	0	1	0
76	964	7	10000	1	1	0	1	0
84	965	7	10000	1	1	0	1	0
83	966	7	10000	1	1	0	1	0
81	967	7	10000	1	1	0	1	0
82	968	7	10000	1	1	0	1	0
83	969	7	10000	1	1	0	1	0
85	970	7	10000	1	1	0	1	0
86	971	7	10000	1	1	0	1	0
85	972	7	10000	1	1	0	1	0
82	973	7	10000	1	1	0	1	0
78	974	7	10000	1	1	0	1	0
78	975	7	10000	1	1	0	1	0
79	976	7	10000	1	1	0	1	0
80	977	7	10000	1	1	0	1	0
83	978	7	10000	1	1	0	1	0
89	979	7	10000	1	1	0	1	0
92	980	7	10000	1	1	0	1	0
88	981	7	10000	1	1	0	1	0
84	982	7	10000	1	1	0	1	0
80	983	7	10000	1	1	0	1	0
80	984	7	10000	1	1	0	1	0
81	985	7	10000	1	1	0	1	0
86	986	7	10000	1	1	0	1	0
89	987	7	10000	1	1	0	1	0
90	988	7	10000	1	1	0	1	0
89	989	7	10000	1	1	0	1	0
87	990	7	10000	1	1	0	1	0
86	991	7	10000	1	1	0	1	0
85	992	7	10000	1	1	0	1	0
84	993	7	10000	1	1	0	1	0
82	994	7	10000	1	1	0	1	0
82	995	7	10000	1	1	0	1	0
83	996	7	10000	1	1	0	1	0
86	997	7	10000	1	1	0	1	0
86	998	7	10000	1	1	0	1	0
85	999	7	10000	1	1	0	1	0
82	1000	7	10000	1	1	0	1	0
79	1001	7	10000	1	1	0	1	0
31	1	7	10000	2	1	0	2	0
29	2	7	10000	2	1	0	2	0
28	3	7	10000	2	1	0	2	0
29	4	7	10000	2	1	0	2	0
28	5	7	10000	2	1	0	2	0
27	6	7	10000	2	1	0	2	0
28	7	7	10000	2	1	0	2	0
28	8	7	10000	2	1	0	2	0
28	9	7	10000	2	1	0	2	0
28	10	7	10000	2	1	0	2	0
26	11	7	10000	2	1	0	2	0
27	12	7	10000	2	1	0	2	0
27	13	7	10000	2	1	0	2	0
26	14	7	10000	2	1	0	2	0
25	15	7	10000	2	1	0	2	0
23	16	7	10000	2	1	0	2	0
23	17	7	10000	2	1	0	2	0
22	18	7	10000	2	1	0	2	0
22	19	7	10000	2	1	0	2	0
23	20	7	10000	2	1	0	2	0
26	20	7	10000	2	1	0	2	0
27	21	7	10000	2	1	0	2	0
25	23	7	10000	2	1	0	2	0
26	24	7	10000	2	1	0	2	0
25	25	7	10000	2	1	0	2	0
24	26	7	10000	2	1	0	2	0
24	27	7	10000	2	1	0	2	0
25	28	7	10000	2	1	0	2	0
26	29	7	10000	2	1	0	2	0
26	30	7	10000	2	1	0	2	0
25	30	7	10000	2	1	0	2	0
25	31	7	10000	2	1	0	2	0
25	33	7	10000	2	1	0	2	0
24	34	7	10000	2	1	0	2	0
24	35	7	10000	2	1	0	2	0
23	36	7	10000	2	1	0	2	0
23	37	7	10000	2	1	0	2	0
24	38	7	10000	2	1	0	2	0
26	39	7	10000	2	1	0	2	0
26	40	7	10000	2	1	0	2	0
26	40	7	10000	2	1	0	2	0
25	41	7	10000	2	1	0	2	0
22	43	7	10000	2	1	0	2	0
23	44	7	10000	2	1	0	2	0
23	45	7	10000	2	1	0	2	0
22	46	7	10000	2	1	0	2	0
21	47	7	10000	2	1	0	2	0
23	48	7	10000	2	1	0	2	0
22	49	7	10000	2	1	0	2	0
21	50	7	10000	2	1	0	2	0
21	50	7	10000	2	1	0	2	0
22	51	7	10000	2	1	0	2	0
23	53	7	10000	2	1	0	2	0
23	54	7	10000	2	1	0	2	0
24	55	7	10000	2	1	0	2	0
22	56	7	10000	2	1	0	2	0
22	57	7	10000	2	1	0	2	0
21	58	7	10000	2	1	0	2	0
20	59	7	10000	2	1	0	2	0
22	60	7	10000	2	1	0	2	0
24	60	7	10000	2	1	0	2	0
23	61	7	10000	2	1	0	2	0
22	63	7	10000	2	1	0	2	0
22	64	7	10000	2	1	0	2	0
21	65	7	10000	2	1	0	2	0
22	66	7	10000	2	1	0	2	0
20	67	7	10000	2	1	0	2	0
21	68	7	10000	2	1	0	2	0
20	69	7	10000	2	1	0	2	0
19	70	7	10000	2	1	0	2	0
18	70	7	10000	2	1	0	2	0
20	71	7	10000	2	1	0	2	0
21	73	7	10000	2	1	0	2	0
20	74	7	10000	2	1	0	2	0
19	75	7	10000	2	1	0	2	0
19	76	7	10000	2	1	0	2	0
19	77	7	10000	2	1	0	2	0
19	78	7	10000	2	1	0	2	0
20	79	7	10000	2	1	0	2	0
22	80	7	10000	2	1	0	2	0
22	80	7	10000	2	1	0	2	0
22	81	7	10000	2	1	0	2	0
22	83	7	10000	2	1	0	2	0
24	84	7	10000	2	1	0	2	0
25	85	7	10000	2	1	0	2	0
27	86	7	10000	2	1	0	2	0
26	87	7	10000	2	1	0	2	0
26	88	7	10000	2	1	0	2	0
26	89	7	10000	2	1	0	2	0
26	90	7	10000	2	1	0	2	0
25	90	7	10000	2	1	0	2	0
27	91	7	10000	2	1	0	2	0
26	93	7	10000	2	1	0	2	0
26	94	7	10000	2	1	0	2	0
27	95	7	10000	2	1	0	2	0
25	96	7	10000	2	1	0	2	0
24	97	7	10000	2	1	0	2	0
23	98	7	10000	2	1	0	2	0
22	99	7	10000	2	1	0	2	0
22	100	7	10000	2	1	0	2	0
22	100	7	10000	2	1	0	2	0
20	101	7	10000	2	1	0	2	0
18	103	7	10000	2	1	0	2	0
19	104	7	10000	2	1	0	2	0
19	105	7	10000	2	1	0	2	0
18	106	7	10000	2	1	0	2	0
18	107	7	10000	2	1	0	2	0
18	108	7	10000	2	1	0	2	0
18	109	7	10000	2	1	0	2	0
19	110	7	10000	2	1	0	2	0
17	110	7	10000	2	1	0	2	0
19	111	7	10000	2	1	0	2	0
21	113	7	10000	2	1	0	2	0
21	114	7	10000	2	1	0	2	0
22	115	7	10000	2	1	0	2	0
22	116	7	10000	2	1	0	2	0
22	117	7	10000	2	1	0	2	0
22	118	7	10000	2	1	0	2	0
21	119	7	10000	2	1	0	2	0
21	120	7	10000	2	1	0	2	0
21	120	7	10000	2	1	0	2	0
20	121	7	10000	2	1	0	2	0
18	123	7	10000	2	1	0	2	0
18	124	7	10000	2	1	0	2	0
17	125	7	10000	2	1	0	2	0
17	126	7	10000	2	1	0	2	0
16	127	7	10000	2	1	0	2	0
17	128	7	10000	2	1	0	2	0
16	129	7	10000	2	1	0	2	0
15	130	7	10000	2	1	0	2	0
14	130	7	10000	2	1	0	2	0
15	131	7	10000	2	1	0	2	0
17	133	7	10000	2	1	0	2	0
16	134	7	10000	2	1	0	2	0
16	135	7	10000	2	1	0	2	0
16	136	7	10000	2	1	0	2	0
15	137	7	10000	2	1	0	2	0
18	138	7	10000	2	1	0	2	0
20	139	7	10000	2	1	0	2	0
20	140	7	10000	2	1	0	2	0
20	140	7	10000	2	1	0	2	0
20	141	7	10000	2	1	0	2	0
19	143	7	10000	2	1	0	2	0
20	144	7	10000	2	1	0	2	0
22	145	7	10000	2	1	0	2	0
22	146	7	10000	2	1	0	2	0
22	147	7	10000	2	1	0	2	0
23	148	7	10000	2	1	0	2	0
24	149	7	10000	2	1	0	2	0
23	150	7	10000	2	1	0	2	0
23	150	7	10000	2	1	0	2	0
25	151	7	10000	2	1	0	2	0
27	153	7	10000	2	1	0	2	0
26	154	7	10000	2	1	0	2	0
25	155	7	10000	2	1	0	2	0
27	156	7	10000	2	1	0	2	0
30	157	7	10000	2	1	0	2	0
32	158	7	10000	2	1	0	2	0
32	159	7	10000	2	1	0	2	0
32	160	7	10000	2	1	0	2	0
31	160	7	10000	2	1	0	2	0
30	161	7	10000	2	1	0	2	0
28	163	7	10000	2	1	0	2	0
28	164	7	10000	2	1	0	2	0
28	165	7	10000	2	1	0	2	0
28	166	7	10000	2	1	0	2	0
28	167	7	10000	2	1	0	2	0
28	168	7	10000	2	1	0	2	0
28	169	7	10000	2	1	0	2	0
26	170	7	10000	2	1	0	2	0
25	170	7	10000	2	1	0	2	0
25	171	7	10000	2	1	0	2	0
26	173	7	10000	2	1	0	2	0
26	174	7	10000	2	1	0	2	0
27	175	7	10000	2	1	0	2	0
29	176	7	10000	2	1	0	2	0
31	177	7	10000	2	1	0	2	0
32	178	7	10000	2	1	0	2	0
32	179	7	10000	2	1	0	2	0
32	180	7	10000	2	1	0	2	0
32	180	7	10000	2	1	0	2	0
30	181	7	10000	2	1	0	2	0
29	183	7	10000	2	1	0	2	0
29	184	7	10000	2	1	0	2	0
27	185	7	10000	2	1	0	2	0
28	186	7	10000	2	1	0	2	0
26	187	7	10000	2	1	0	2	0
26	188	7	10000	2	1	0	2	0
26	189	7	10000	2	1	0	2	0
25	190	7	10000	2	1	0	2	0
24	190	7	10000	2	1	0	2	0
24	191	7	10000	2	1	0	2	0
25	193	7	10000	2	1	0	2	0
24	194	7	10000	2	1	0	2	0
24	195	7	10000	2	1	0	2	0
24	196	7	10000	2	1	0	2	0
26	197	7	10000	2	1	0	2	0
27	198	7	10000	2	1	0	2	0
30	199	7	10000	2	1	0	2	0
32	200	7	10000	2	1	0	2	0
32	200	7	10000	2	1	0	2	0
31	201	7	10000	2	1	0	2	0
28	203	7	10000	2	1	0	2	0
28	204	7	10000	2	1	0	2	0
28	205	7	10000	2	1	0	2	0
28	206	7	10000	2	1	0	2	0
28	207	7	10000	2	1	0	2	0
28	208	7	10000	2	1	0	2	0
29	209	7	10000	2	1	0	2	0
31	210	7	10000	2	1	0	2	0
31	210	7	10000	2	1	0	2	0
32	211	7	10000	2	1	0	2	0
33	213	7	10000	2	1	0	2	0
32	214	7	10000	2	1	0	2	0
31	215	7	10000	2	1	0	2	0
30	216	7	10000	2	1	0	2	0
29	217	7	10000	2	1	0	2	0
28	218	7	10000	2	1	0	2	0
27	219	7	10000	2	1	0	2	0
28	220	7	10000	2	1	0	2	0
29	220	7	10000	2	1	0	2	0
26	221	7	10000	2	1	0	2	0
25	223	7	10000	2	1	0	2	0
26	224	7	10000	2	1	0	2	0
24	225	7	10000	2	1	0	2	0
25	226	7	10000	2	1	0	2	0
24	227	7	10000	2	1	0	2	0
25	228	7	10000	2	1	0	2	0
25	229	7	10000	2	1	0	2	0
27	230	7	10000	2	1	0	2	0
25	230	7	10000	2	1	0	2	0
26	231	7	10000	2	1	0	2	0
29	233	7	10000	2	1	0	2	0
29	234	7	10000	2	1	0	2	0
29	235	7	10000	2	1	0	2	0
28	236	7	10000	2	1	0	2	0
27	237	7	10000	2	1	0	2	0
27	238	7	10000	2	1	0	2	0
26	239	7	10000	2	1	0	2	0
26	240	7	10000	2	1	0	2	0
28	240	7	10000	2	1	0	2	0
28	241	7	10000	2	1	0	2	0
27	243	7	10000	2	1	0	2	0
27	244	7	10000	2	1	0	2	0
27	245	7	10000	2	1	0	2	0
26	246	7	10000	2	1	0	2	0
26	247	7	10000	2	1	0	2	0
26	248	7	10000	2	1	0	2	0
26	249	7	10000	2	1	0	2	0
25	250	7	10000	2	1	0	2	0
25	250	7	10000	2	1	0	2	0
25	251	7	10000	2	1	0	2	0
26	253	7	10000	2	1	0	2	0
24	254	7	10000	2	1	0	2	0
24	255	7	10000	2	1	0	2	0
22	256	7	10000	2	1	0	2	0
23	257	7	10000	2	1	0	2	0
21	258	7	10000	2	1	0	2	0
22	259	7	10000	2	1	0	2	0
22	260	7	10000	2	1	0	2	0
24	260	7	10000	2	1	0	2	0
24	261	7	10000	2	1	0	2	0
21	263	7	10000	2	1	0	2	0
21	264	7	10000	2	1	0	2	0
21	265	7	10000	2	1	0	2	0
21	266	7	10000	2	1	0	2	0
21	267	7	10000	2	1	0	2	0
20	268	7	10000	2	1	0	2	0
20	269	7	10000	2	1	0	2	0
18	270	7	10000	2	1	0	2	0
18	270	7	10000	2	1	0	2	0
18	271	7	10000	2	1	0	2	0
19	273	7	10000	2	1	0	2	0
18	274	7	10000	2	1	0	2	0
18	275	7	10000	2	1	0	2	0
19	276	7	10000	2	1	0	2	0
22	277	7	10000	2	1	0	2	0
23	278	7	10000	2	1	0	2	0
23	279	7	10000	2	1	0	2	0
24	280	7	10000	2	1	0	2	0
23	280	7	10000	2	1	0	2	0
21	281	7	10000	2	1	0	2	0
20	283	7	10000	2	1	0	2	0
19	284	7	10000	2	1	0	2	0
20	285	7	10000	2	1	0	2	0
21	286	7	10000	2	1	0	2	0
21	287	7	10000	2	1	0	2	0
20	288	7	10000	2	1	0	2	0
19	289	7	10000	2	1	0	2	0
19	290	7	10000	2	1	0	2	0
18	290	7	10000	2	1	0	2	0
18	291	7	10000	2	1	0	2	0
19	293	7	10000	2	1	0	2	0
18	294	7	10000	2	1	0	2	0
18	295	7	10000	2	1	0	2	0
18	296	7	10000	2	1	0	2	0
16	297	7	10000	2	1	0	2	0
16	298	7	10000	2	1	0	2	0
16	299	7	10000	2	1	0	2	0
16	300	7	10000	2	1	0	2	0
16	300	7	10000	2	1	0	2	0
15	301	7	10000	2	1	0	2	0
12	303	7	10000	2	1	0	2	0
14	304	7	10000	2	1	0	2	0
13	305	7	10000	2	1	0	2	0
14	306	7	10000	2	1	0	2	0
15	307	7	10000	2	1	0	2	0
16	308	7	10000	2	1	0	2	0
15	309	7	10000	2	1	0	2	0
16	310	7	10000	2	1	0	2	0
16	310	7	10000	2	1	0	2	0
18	311	7	10000	2	1	0	2	0
19	313	7	10000	2	1	0	2	0
18	314	7	10000	2	1	0	2	0
18	315	7	10000	2	1	0	2	0
20	316	7	10000	2	1	0	2	0
21	317	7	10000	2	1	0	2	0
23	318	7	10000	2	1	0	2	0
23	319	7	10000	2	1	0	2	0
23	320	7	10000	2	1	0	2	0
23	320	7	10000	2	1	0	2	0
21	321	7	10000	2	1	0	2	0
19	323	7	10000	2	1	0	2	0
20	324	7	10000	2	1	0	2	0
20	325	7	10000	2	1	0	2	0
20	326	7	10000	2	1	0	2	0
20	327	7	10000	2	1	0	2	0
21	328	7	10000	2	1	0	2	0
23	329	7	10000	2	1	0	2	0
23	330	7	10000	2	1	0	2	0
21	330	7	10000	2	1	0	2	0
23	331	7	10000	2	1	0	2	0
25	333	7	10000	2	1	0	2	0
25	334	7	10000	2	1	0	2	0
25	335	7	10000	2	1	0	2	0
27	336	7	10000	2	1	0	2	0
28	337	7	10000	2	1	0	2	0
29	338	7	10000	2	1	0	2	0
32	339	7	10000	2	1	0	2	0
33	340	7	10000	2	1	0	2	0
35	340	7	10000	2	1	0	2	0
34	341	7	10000	2	1	0	2	0
32	343	7	10000	2	1	0	2	0
31	344	7	10000	2	1	0	2	0
31	345	7	10000	2	1	0	2	0
30	346	7	10000	2	1	0	2	0
30	347	7	10000	2	1	0	2	0
32	348	7	10000	2	1	0	2	0
34	349	7	10000	2	1	0	2	0
35	350	7	10000	2	1	0	2	0
36	350	7	10000	2	1	0	2	0
39	351	7	10000	2	1	0	2	0
39	353	7	10000	2	1	0	2	0
38	354	7	10000	2	1	0	2	0
38	355	7	10000	2	1	0	2	0
36	356	7	10000	2	1	0	2	0
35	357	7	10000	2	1	0	2	0
34	358	7	10000	2	1	0	2	0
34	359	7	10000	2	1	0	2	0
33	360	7	10000	2	1	0	2	0
33	360	7	10000	2	1	0	2	0
32	361	7	10000	2	1	0	2	0
29	363	7	10000	2	1	0	2	0
29	364	7	10000	2	1	0	2	0
29	365	7	10000	2	1	0	2	0
29	366	7	10000	2	1	0	2	0
27	367	7	10000	2	1	0	2	0
27	368	7	10000	2	1	0	2	0
27	369	7	10000	2	1	0	2	0
27	370	7	10000	2	1	0	2	0
28	370	7	10000	2	1	0	2	0
28	371	7	10000	2	1	0	2	0
29	373	7	10000	2	1	0	2	0
28	374	7	10000	2	1	0	2	0
26	375	7	10000	2	1	0	2	0
25	376	7	10000	2	1	0	2	0
24	377	7	10000	2	1	0	2	0
24	378	7	10000	2	1	0	2	0
24	379	7	10000	2	1	0	2	0
24	380	7	10000	2	1	0	2	0
25	380	7	10000	2	1	0	2	0
23	381	7	10000	2	1	0	2	0
23	383	7	10000	2	1	0	2	0
25	384	7	10000	2	1	0	2	0
26	385	7	10000	2	1	0	2	0
27	386	7	10000	2	1	0	2	0
26	387	7	10000	2	1	0	2	0
26	388	7	10000	2	1	0	2	0
25	389	7	10000	2	1	0	2	0
25	390	7	10000	2	1	0	2	0
23	390	7	10000	2	1	0	2	0
23	391	7	10000	2	1	0	2	0
24	393	7	10000	2	1	0	2	0
22	394	7	10000	2	1	0	2	0
22	395	7	10000	2	1	0	2	0
21	396	7	10000	2	1	0	2	0
21	397	7	10000	2	1	0	2	0
21	398	7	10000	2	1	0	2	0
21	399	7	10000	2	1	0	2	0
20	400	7	10000	2	1	0	2	0
20	400	7	10000	2	1	0	2	0
21	401	7	10000	2	1	0	2	0
21	403	7	10000	2	1	0	2	0
24	404	7	10000	2	1	0	2	0
24	405	7	10000	2	1	0	2	0
24	406	7	10000	2	1	0	2	0
24	407	7	10000	2	1	0	2	0
25	408	7	10000	2	1	0	2	0
26	409	7	10000	2	1	0	2	0
26	410	7	10000	2	1	0	2	0
26	410	7	10000	2	1	0	2	0
27	411	7	10000	2	1	0	2	0
26	413	7	10000	2	1	0	2	0
25	414	7	10000	2	1	0	2	0
25	415	7	10000	2	1	0	2	0
24	416	7	10000	2	1	0	2	0
24	417	7	10000	2	1	0	2	0
24	418	7	10000	2	1	0	2	0
23	419	7	10000	2	1	0	2	0
23	420	7	10000	2	1	0	2	0
23	420	7	10000	2	1	0	2	0
20	421	7	10000	2	1	0	2	0
18	423	7	10000	2	1	0	2	0
18	424	7	10000	2	1	0	2	0
18	425	7	10000	2	1	0	2	0
17	426	7	10000	2	1	0	2	0
17	427	7	10000	2	1	0	2	0
16	428	7	10000	2	1	0	2	0
16	429	7	10000	2	1	0	2	0
15	430	7	10000	2	1	0	2	0
14	430	7	10000	2	1	0	2	0
16	431	7	10000	2	1	0	2	0
20	433	7	10000	2	1	0	2	0
20	434	7	10000	2	1	0	2	0
20	435	7	10000	2	1	0	2	0
19	436	7	10000	2	1	0	2	0
19	437	7	10000	2	1	0	2	0
19	438	7	10000	2	1	0	2	0
22	439	7	10000	2	1	0	2	0
24	440	7	10000	2	1	0	2	0
24	440	7	10000	2	1	0	2	0
24	441	7	10000	2	1	0	2	0
23	443	7	10000	2	1	0	2	0
24	444	7	10000	2	1	0	2	0
23	445	7	10000	2	1	0	2	0
24	446	7	10000	2	1	0	2	0
22	447	7	10000	2	1	0	2	0
22	448	7	10000	2	1	0	2	0
22	449	7	10000	2	1	0	2	0
22	450	7	10000	2	1	0	2	0
22	450	7	10000	2	1	0	2	0
24	451	7	10000	2	1	0	2	0
27	453	7	10000	2	1	0	2	0
27	454	7	10000	2	1	0	2	0
27	455	7	10000	2	1	0	2	0
26	456	7	10000	2	1	0	2	0
25	457	7	10000	2	1	0	2	0
24	458	7	10000	2	1	0	2	0
25	459	7	10000	2	1	0	2	0
24	460	7	10000	2	1	0	2	0
24	460	7	10000	2	1	0	2	0
23	461	7	10000	2	1	0	2	0
21	463	7	10000	2	1	0	2	0
21	464	7	10000	2	1	0	2	0
22	465	7	10000	2	1	0	2	0
21	466	7	10000	2	1	0	2	0
21	467	7	10000	2	1	0	2	0
20	468	7	10000	2	1	0	2	0
20	469	7	10000	2	1	0	2	0
19	470	7	10000	2	1	0	2	0
19	470	7	10000	2	1	0	2	0
20	471	7	10000	2	1	0	2	0
20	473	7	10000	2	1	0	2	0
19	474	7	10000	2	1	0	2	0
18	475	7	10000	2	1	0	2	0
17	476	7	10000	2	1	0	2	0
17	477	7	10000	2	1	0	2	0
19	478	7	10000	2	1	0	2	0
18	479	7	10000	2	1	0	2	0
19	480	7	10000	2	1	0	2	0
19	480	7	10000	2	1	0	2	0
18	481	7	10000	2	1	0	2	0
16	483	7	10000	2	1	0	2	0
16	484	7	10000	2	1	0	2	0
16	485	7	10000	2	1	0	2	0
17	486	7	10000	2	1	0	2	0
17	487	7	10000	2	1	0	2	0
16	488	7	10000	2	1	0	2	0
16	489	7	10000	2	1	0	2	0
15	490	7	10000	2	1	0	2	0
14	490	7	10000	2	1	0	2	0
15	491	7	10000	2	1	0	2	0
16	493	7	10000	2	1	0	2	0
15	494	7	10000	2	1	0	2	0
14	495	7	10000	2	1	0	2	0
15	496	7	10000	2	1	0	2	0
15	497	7	10000	2	1	0	2	0
14	498	7	10000	2	1	0	2	0
15	499	7	10000	2	1	0	2	0
15	500	7	10000	2	1	0	2	0
16	500	7	10000	2	1	0	2	0
15	501	7	10000	2	1	0	2	0
13	503	7	10000	2	1	0	2	1
14	504	7	10000	2	1	0	2	1
14	505	7	10000	2	1	0	2	1
16	506	7	10000	2	1	0	2	1
15	507	7	10000	2	1	0	2	1
14	508	7	10000	2	1	0	2	1
15	509	7	10000	2	1	0	2	1
14	510	7	10000	2	1	0	2	1
13	510	7	10000	2	1	0	2	1
14	511	7	10000	2	1	0	2	1
15	513	7	10000	2	1	0	2	1
16	514	7	10000	2	1	0	2	1
17	515	7	10000	2	1	0	2	1
17	516	7	10000	2	1	0	2	1
17	517	7	10000	2	1	0	2	1
16	518	7	10000	2	1	0	2	1
17	519	7	10000	2	1	0	2	1
17	520	7	10000	2	1	0	2	1
19	520	7	10000	2	1	0	2	1
19	521	7	10000	2	1	0	2	1
18	523	7	10000	2	1	0	2	1
19	524	7	10000	2	1	0	2	1
18	525	7	10000	2	1	0	2	1
19	526	7	10000	2	1	0	2	1
19	527	7	10000	2	1	0	2	1
18	528	7	10000	2	1	0	2	1
17	529	7	10000	2	1	0	2	1
17	530	7	10000	2	1	0	2	1
17	530	7	10000	2	1	0	2	1
17	531	7	10000	2	1	0	2	1
20	533	7	10000	2	1	0	2	1
20	534	7	10000	2	1	0	2	1
20	535	7	10000	2	1	0	2	1
19	536	7	10000	2	1	0	2	1
20	537	7	10000	2	1	0	2	1
20	538	7	10000	2	1	0	2	1
20	539	7	10000	2	1	0	2	1
20	540	7	10000	2	1	0	2	1
20	540	7	10000	2	1	0	2	1
18	541	7	10000	2	1	0	2	1
17	543	7	10000	2	1	0	2	1
17	544	7	10000	2	1	0	2	1
17	545	7	10000	2	1	0	2	1
17	546	7	10000	2	1	0	2	1
18	547	7	10000	2	1	0	2	1
16	548	7	10000	2	1	0	2	1
15	549	7	10000	2	1	0	2	1
15	550	7	10000	2	1	0	2	1
13	550	7	10000	2	1	0	2	1
14	551	7	10000	2	1	0	2	1
17	553	7	10000	2	1	0	2	0
16	554	7	10000	2	1	0	2	0
16	555	7	10000	2	1	0	2	0
17	556	7	10000	2	1	0	2	0
16	557	7	10000	2	1	0	2	0
15	558	7	10000	2	1	0	2	0
16	559	7	10000	2	1	0	2	0
15	560	7	10000	2	1	0	2	0
16	560	7	10000	2	1	0	2	0
15	561	7	10000	2	1	0	2	0
15	563	7	10000	2	1	0	2	0
15	564	7	10000	2	1	0	2	0
16	565	7	10000	2	1	0	2	0
15	566	7	10000	2	1	0	2	0
15	567	7	10000	2	1	0	2	0
16	568	7	10000	2	1	0	2	0
16	569	7	10000	2	1	0	2	0
17	570	7	10000	2	1	0	2	0
19	570	7	10000	2	1	0	2	0
20	571	7	10000	2	1	0	2	0
20	573	7	10000	2	1	0	2	0
20	574	7	10000	2	1	0	2	0
20	575	7	10000	2	1	0	2	0
19	576	7	10000	2	1	0	2	0
20	577	7	10000	2	1	0	2	0
19	578	7	10000	2	1	0	2	0
18	579	7	10000	2	1	0	2	0
18	580	7	10000	2	1	0	2	0
18	580	7	10000	2	1	0	2	0
17	581	7	10000	2	1	0	2	0
16	583	7	10000	2	1	0	2	0
17	584	7	10000	2	1	0	2	0
20	585	7	10000	2	1	0	2	0
22	586	7	10000	2	1	0	2	0
23	587	7	10000	2	1	0	2	0
23	588	7	10000	2	1	0	2	0
23	589	7	10000	2	1	0	2	0
24	590	7	10000	2	1	0	2	0
25	590	7	10000	2	1	0	2	0
24	591	7	10000	2	1	0	2	0
25	593	7	10000	2	1	0	2	0
34	594	7	10000	2	1	0	2	0
48	595	7	10000	2	1	0	2	0
53	596	7	10000	2	1	0	2	0
53	597	7	10000	2	1	0	2	0
54	598	7	10000	2	1	0	2	0
54	599	7	10000	2	1	0	2	0
55	600	7	10000	2	1	0	2	0
56	600	7	10000	2	1	0	2	0
65	601	7	10000	2	1	0	2	0
84	603	7	10000	2	1	0	2	0
99	604	7	10000	2	1	0	2	0
115	605	7	10000	2	1	0	2	0
180	606	7	10000	2	1	0	2	0
307	607	7	10000	2	1	0	2	0
407	608	7	10000	2	1	0	2	0
411	609	7	10000	2	1	0	2	0
459	610	7	10000	2	1	0	2	0
524	610	7	10000	2	1	0	2	0
548	611	7	10000	2	1	0	2	0
582	613	7	10000	2	1	0	2	0
615	614	7	10000	2	1	0	2	0
694	615	7	10000	2	1	0	2	0
760	616	7	10000	2	1	0	2	0
859	617	7	10000	2	1	0	2	0
1039	618	7	10000	2	1	0	2	0
1109	619	7	10000	2	1	0	2	0
1088	620	7	10000	2	1	0	2	0
1111	620	7	10000	2	1	0	2	0
1128	621	7	10000	2	1	0	2	0
1116	623	7	10000	2	1	0	2	0
1107	624	7	10000	2	1	0	2	0
1086	625	7	10000	2	1	0	2	0
1042	626	7	10000	2	1	0	2	0
1023	627	7	10000	2	1	0	2	0
1013	628	7	10000	2	1	0	2	0
973	629	7	10000	2	1	0	2	0
950	630	7	10000	2	1	0	2	0
941	630	7	10000	2	1	0	2	0
929	631	7	10000	2	1	0	2	0
912	633	7	10000	2	1	0	2	0
888	634	7	10000	2	1	0	2	0
863	635	7	10000	2	1	0	2	0
835	636	7	10000	2	1	0	2	0
807	637	7	10000	2	1	0	2	0
779	638	7	10000	2	1	0	2	0
749	639	7	10000	2	1	0	2	0
718	640	7	10000	2	1	0	2	0
687	640	7	10000	2	1	0	2	0
655	641	7	10000	2	1	0	2	0
625	643	7	10000	2	1	0	2	0
600	644	7	10000	2	1	0	2	0
574	645	7	10000	2	1	0	2	0
548	646	7	10000	2	1	0	2	0
527	647	7	10000	2	1	0	2	0
506	648	7	10000	2	1	0	2	0
487	649	7	10000	2	1	0	2	0
468	650	7	10000	2	1	0	2	0
450	650	7	10000	2	1	0	2	0
434	651	7	10000	2	1	0	2	0
420	653	7	10000	2	1	0	2	0
405	654	7	10000	2	1	0	2	0
393	655	7	10000	2	1	0	2	0
384	656	7	10000	2	1	0	2	0
377	657	7	10000	2	1	0	2	0
371	658	7	10000	2	1	0	2	0
367	659	7	10000	2	1	0	2	0
363	660	7	10000	2	1	0	2	0
360	660	7	10000	2	1	0	2	0
356	661	7	10000	2	1	0	2	0
351	663	7	10000	2	1	0	2	0
348	664	7	10000	2	1	0	2	0
345	665	7	10000	2	1	0	2	0
343	666	7	10000	2	1	0	2	0
338	667	7	10000	2	1	0	2	0
333	668	7	10000	2	1	0	2	0
327	669	7	10000	2	1	0	2	0
321	670	7	10000	2	1	0	2	0
312	670	7	10000	2	1	0	2	0
307	671	7	10000	2	1	0	2	0
301	673	7	10000	2	1	0	2	0
293	674	7	10000	2	1	0	2	0
284	675	7	10000	2	1	0	2	0
274	676	7	10000	2	1	0	2	0
267	677	7	10000	2	1	0	2	0
259	678	7	10000	2	1	0	2	0
251	679	7	10000	2	1	0	2	0
244	680	7	10000	2	1	0	2	0
238	680	7	10000	2	1	0	2	0
230	681	7	10000	2	1	0	2	0
220	683	7	10000	2	1	0	2	0
212	684	7	10000	2	1	0	2	0
203	685	7	10000	2	1	0	2	0
194	686	7	10000	2	1	0	2	0
186	687	7	10000	2	1	0	2	0
181	688	7	10000	2	1	0	2	0
177	689	7	10000	2	1	0	2	0
175	690	7	10000	2	1	0	2	0
172	690	7	10000	2	1	0	2	0
170	691	7	10000	2	1	0	2	0
169	693	7	10000	2	1	0	2	0
165	694	7	10000	2	1	0	2	0
161	695	7	10000	2	1	0	2	0
158	696	7	10000	2	1	0	2	0
155	697	7	10000	2	1	0	2	0
150	698	7	10000	2	1	0	2	0
144	699	7	10000	2	1	0	2	0
139	700	7	10000	2	1	0	2	0
134	700	7	10000	2	1	0	2	0
132	701	7	10000	2	1	0	2	0
133	703	7	10000	2	1	0	2	0
136	704	7	10000	2	1	0	2	0
139	705	7	10000	2	1	0	2	0
142	706	7	10000	2	1	0	2	0
145	707	7	10000	2	1	0	2	0
150	708	7	10000	2	1	0	2	0
153	709	7	10000	2	1	0	2	0
155	710	7	10000	2	1	0	2	0
156	710	7	10000	2	1	0	2	0
156	711	7	10000	2	1	0	2	0
157	713	7	10000	2	1	0	2	0
156	714	7	10000	2	1	0	2	0
155	715	7	10000	2	1	0	2	0
154	716	7	10000	2	1	0	2	0
152	717	7	10000	2	1	0	2	0
149	718	7	10000	2	1	0	2	0
145	719	7	10000	2	1	0	2	0
141	720	7	10000	2	1	0	2	0
138	720	7	10000	2	1	0	2	0
133	721	7	10000	2	1	0	2	0
128	723	7	10000	2	1	0	2	0
125	724	7	10000	2	1	0	2	0
122	725	7	10000	2	1	0	2	0
120	726	7	10000	2	1	0	2	0
118	727	7	10000	2	1	0	2	0
115	728	7	10000	2	1	0	2	0
114	729	7	10000	2	1	0	2	0
111	730	7	10000	2	1	0	2	0
108	730	7	10000	2	1	0	2	0
108	731	7	10000	2	1	0	2	0
106	733	7	10000	2	1	0	2	0
103	734	7	10000	2	1	0	2	0
100	735	7	10000	2	1	0	2	0
95	736	7	10000	2	1	0	2	0
91	737	7	10000	2	1	0	2	0
88	738	7	10000	2	1	0	2	0
83	739	7	10000	2	1	0	2	0
82	740	7	10000	2	1	0	2	0
79	740	7	10000	2	1	0	2	0
75	741	7	10000	2	1	0	2	0
72	743	7	10000	2	1	0	2	0
70	744	7	10000	2	1	0	2	0
68	745	7	10000	2	1	0	2	0
66	746	7	10000	2	1	0	2	0
64	747	7	10000	2	1	0	2	0
62	748	7	10000	2	1	0	2	0
61	749	7	10000	2	1	0	2	0
61	750	7	10000	2	1	0	2	0
60	750	7	10000	2	1	0	2	0
60	751	7	10000	2	1	0	2	0
60	753	7	10000	2	1	0	2	0
57	754	7	10000	2	1	0	2	0
55	755	7	10000	2	1	0	2	0
52	756	7	10000	2	1	0	2	0
51	757	7	10000	2	1	0	2	0
50	758	7	10000	2	1	0	2	0
49	759	7	10000	2	1	0	2	0
48	760	7	10000	2	1	0	2	0
47	760	7	10000	2	1	0	2	0
46	761	7	10000	2	1	0	2	0
44	763	7	10000	2	1	0	2	0
44	764	7	10000	2	1	0	2	0
44	765	7	10000	2	1	0	2	0
45	766	7	10000	2	1	0	2	0
46	767	7	10000	2	1	0	2	0
46	768	7	10000	2	1	0	2	0
45	769	7	10000	2	1	0	2	0
42	770	7	10000	2	1	0	2	0
40	770	7	10000	2	1	0	2	0
40	771	7	10000	2	1	0	2	0
39	773	7	10000	2	1	0	2	0
37	774	7	10000	2	1	0	2	0
36	775	7	10000	2	1	0	2	0
37	776	7	10000	2	1	0	2	0
37	777	7	10000	2	1	0	2	0
37	778	7	10000	2	1	0	2	0
38	779	7	10000	2	1	0	2	0
39	780	7	10000	2	1	0	2	0
41	780	7	10000	2	1	0	2	0
42	781	7	10000	2	1	0	2	0
40	783	7	10000	2	1	0	2	0
40	784	7	10000	2	1	0	2	0
41	785	7	10000	2	1	0	2	0
41	786	7	10000	2	1	0	2	0
41	787	7	10000	2	1	0	2	0
40	788	7	10000	2	1	0	2	0
40	789	7	10000	2	1	0	2	0
38	790	7	10000	2	1	0	2	0
36	790	7	10000	2	1	0	2	0
36	791	7	10000	2	1	0	2	0
36	793	7	10000	2	1	0	2	0
34	794	7	10000	2	1	0	2	0
33	795	7	10000	2	1	0	2	0
32	796	7	10000	2	1	0	2	0
32	797	7	10000	2	1	0	2	0
30	798	7	10000	2	1	0	2	0
29	799	7	10000	2	1	0	2	0
29	800	7	10000	2	1	0	2	0
29	800	7	10000	2	1	0	2	0
29	801	7	10000	2	1	0	2	0
28	803	7	10000	2	1	0	2	0
27	804	7	10000	2	1	0	2	0
27	805	7	10000	2	1	0	2	0
26	806	7	10000	2	1	0	2	0
26	807	7	10000	2	1	0	2	0
26	808	7	10000	2	1	0	2	0
26	809	7	10000	2	1	0	2	0
25	810	7	10000	2	1	0	2	0
23	810	7	10000	2	1	0	2	0
24	811	7	10000	2	1	0	2	0
24	813	7	10000	2	1	0	2	0
23	814	7	10000	2	1	0	2	0
22	815	7	10000	2	1	0	2	0
21	816	7	10000	2	1	0	2	0
22	817	7	10000	2	1	0	2	0
23	818	7	10000	2	1	0	2	0
23	819	7	10000	2	1	0	2	0
25	820	7	10000	2	1	0	2	0
24	820	7	10000	2	1	0	2	0
22	821	7	10000	2	1	0	2	0
21	823	7	10000	2	1	0	2	0
20	824	7	10000	2	1	0	2	0
21	825	7	10000	2	1	0	2	0
20	826	7	10000	2	1	0	2	0
20	827	7	10000	2	1	0	2	0
19	828	7	10000	2	1	0	2	0
20	829	7	10000	2	1	0	2	0
19	830	7	10000	2	1	0	2	0
18	830	7	10000	2	1	0	2	0
19	831	7	10000	2	1	0	2	0
21	833	7	10000	2	1	0	2	0
21	834	7	10000	2	1	0	2	0
22	835	7	10000	2	1	0	2	0
22	836	7	10000	2	1	0	2	0
23	837	7	10000	2	1	0	2	0
22	838	7	10000	2	1	0	2	0
23	839	7	10000	2	1	0	2	0
26	840	7	10000	2	1	0	2	0
30	840	7	10000	2	1	0	2	0
30	841	7	10000	2	1	0	2	0
29	843	7	10000	2	1	0	2	0
29	844	7	10000	2	1	0	2	0
29	845	7	10000	2	1	0	2	0
28	846	7	10000	2	1	0	2	0
29	847	7	10000	2	1	0	2	0
31	848	7	10000	2	1	0	2	0
32	849	7	10000	2	1	0	2	0
32	850	7	10000	2	1	0	2	0
31	850	7	10000	2	1	0	2	0
30	851	7	10000	2	1	0	2	0
30	853	7	10000	2	1	0	2	0
29	854	7	10000	2	1	0	2	0
28	855	7	10000	2	1	0	2	0
29	856	7	10000	2	1	0	2	0
29	857	7	10000	2	1	0	2	0
29	858	7	10000	2	1	0	2	0
28	859	7	10000	2	1	0	2	0
27	860	7	10000	2	1	0	2	0
27	860	7	10000	2	1	0	2	0
25	861	7	10000	2	1	0	2	0
23	863	7	10000	2	1	0	2	0
23	864	7	10000	2	1	0	2	0
22	865	7	10000	2	1	0	2	0
23	866	7	10000	2	1	0	2	0
24	867	7	10000	2	1	0	2	0
25	868	7	10000	2	1	0	2	0
29	869	7	10000	2	1	0	2	0
38	870	7	10000	2	1	0	2	0
41	870	7	10000	2	1	0	2	0
46	871	7	10000	2	1	0	2	0
49	873	7	10000	2	1	0	2	0
47	874	7	10000	2	1	0	2	0
47	875	7	10000	2	1	0	2	0
50	876	7	10000	2	1	0	2	0
52	877	7	10000	2	1	0	2	0
56	878	7	10000	2	1	0	2	0
69	879	7	10000	2	1	0	2	0
78	880	7	10000	2	1	0	2	0
77	880	7	10000	2	1	0	2	0
76	881	7	10000	2	1	0	2	0
76	883	7	10000	2	1	0	2	0
74	884	7	10000	2	1	0	2	0
72	885	7	10000	2	1	0	2	0
77	886	7	10000	2	1	0	2	0
88	887	7	10000	2	1	0	2	0
104	888	7	10000	2	1	0	2	0
106	889	7	10000	2	1	0	2	0
111	890	7	10000	2	1	0	2	0
118	890	7	10000	2	1	0	2	0
119	891	7	10000	2	1	0	2	0
122	893	7	10000	2	1	0	2	0
125	894	7	10000	2	1	0	2	0
126	895	7	10000	2	1	0	2	0
123	896	7	10000	2	1	0	2	0
128	897	7	10000	2	1	0	2	0
136	898	7	10000	2	1	0	2	0
134	899	7	10000	2	1	0	2	0
135	900	7	10000	2	1	0	2	0
138	900	7	10000	2	1	0	2	0
172	901	7	10000	2	1	0	2	0
176	903	7	10000	2	1	0	2	0
197	904	7	10000	2	1	0	2	0
230	905	7	10000	2	1	0	2	0
249	906	7	10000	2	1	0	2	0
241	907	7	10000	2	1	0	2	0
231	908	7	10000	2	1	0	2	0
222	909	7	10000	2	1	0	2	0
213	910	7	10000	2	1	0	2	0
209	910	7	10000	2	1	0	2	0
202	911	7	10000	2	1	0	2	0
199	913	7	10000	2	1	0	2	0
197	914	7	10000	2	1	0	2	0
197	915	7	10000	2	1	0	2	0
198	916	7	10000	2	1	0	2	0
194	917	7	10000	2	1	0	2	0
203	918	7	10000	2	1	0	2	0
218	919	7	10000	2	1	0	2	0
220	920	7	10000	2	1	0	2	0
210	920	7	10000	2	1	0	2	0
211	921	7	10000	2	1	0	2	0
220	923	7	10000	2	1	0	2	0
252	924	7	10000	2	1	0	2	0
252	925	7	10000	2	1	0	2	0
262	926	7	10000	2	1	0	2	0
260	927	7	10000	2	1	0	2	0
258	928	7	10000	2	1	0	2	0
253	929	7	10000	2	1	0	2	0
244	930	7	10000	2	1	0	2	0
248	930	7	10000	2	1	0	2	0
254	931	7	10000	2	1	0	2	0
248	933	7	10000	2	1	0	2	0
242	934	7	10000	2	1	0	2	0
238	935	7	10000	2	1	0	2	0
235	936	7	10000	2	1	0	2	0
240	937	7	10000	2	1	0	2	0
236	938	7	10000	2	1	0	2	0
236	939	7	10000	2	1	0	2	0
249	940	7	10000	2	1	0	2	0
261	940	7	10000	2	1	0	2	0
260	941	7	10000	2	1	0	2	0
254	943	7	10000	2	1	0	2	0
246	944	7	10000	2	1	0	2	0
240	945	7	10000	2	1	0	2	0
239	946	7	10000	2	1	0	2	0
232	947	7	10000	2	1	0	2	0
227	948	7	10000	2	1	0	2	0
236	949	7	10000	2	1	0	2	0
237	950	7	10000	2	1	0	2	0
230	950	7	10000	2	1	0	2	0
225	951	7	10000	2	1	0	2	0
225	953	7	10000	2	1	0	2	0
220	954	7	10000	2	1	0	2	0
236	955	7	10000	2	1	0	2	0
242	956	7	10000	2	1	0	2	0
235	957	7	10000	2	1	0	2	0
233	958	7	10000	2	1	0	2	0
229	959	7	10000	2	1	0	2	0
247	960	7	10000	2	1	0	2	0
246	960	7	10000	2	1	0	2	0
250	961	7	10000	2	1	0	2	0
242	963	7	10000	2	1	0	2	0
259	964	7	10000	2	1	0	2	0
261	965	7	10000	2	1	0	2	0
261	966	7	10000	2	1	0	2	0
264	967	7	10000	2	1	0	2	0
276	968	7	10000	2	1	0	2	0
281	969	7	10000	2	1	0	2	0
311	970	7	10000	2	1	0	2	0
335	970	7	10000	2	1	0	2	0
333	971	7	10000	2	1	0	2	0
324	973	7	10000	2	1	0	2	0
314	974	7	10000	2	1	0	2	0
314	975	7	10000	2	1	0	2	0
303	976	7	10000	2	1	0	2	0
291	977	7	10000	2	1	0	2	0
283	978	7	10000	2	1	0	2	0
277	979	7	10000	2	1	0	2	0
269	980	7	10000	2	1	0	2	0
260	980	7	10000	2	1	0	2	0
253	981	7	10000	2	1	0	2	0
245	983	7	10000	2	1	0	2	0
238	984	7	10000	2	1	0	2	0
229	985	7	10000	2	1	0	2	0
225	986	7	10000	2	1	0	2	0
227	987	7	10000	2	1	0	2	0
222	988	7	10000	2	1	0	2	0
217	989	7	10000	2	1	0	2	0
225	990	7	10000	2	1	0	2	0
235	990	7	10000	2	1	0	2	0
229	991	7	10000	2	1	0	2	0
230	993	7	10000	2	1	0	2	0
241	994	7	10000	2	1	0	2	0
261	995	7	10000	2	1	0	2	0
263	996	7	10000	2	1	0	2	0
259	997	7	10000	2	1	0	2	0
253	998	7	10000	2	1	0	2	0
245	999	7	10000	2	1	0	2	0
245	1000	7	10000	2	1	0	2	0
237	1000	7	10000	2	1	0	2	0
229	1001	7	10000	2	1	0	2	0
12	2	7	10000	3	1	0	3	0
13	3	7	10000	3	1	0	3	0
14	4	7	10000	3	1	0	3	0
12	5	7	10000	3	1	0	3	0
13	6	7	10000	3	1	0	3	0
13	7	7	10000	3	1	0	3	0
11	8	7	10000	3	1	0	3	0
11	9	7	10000	3	1	0	3	0
11	10	7	10000	3	1	0	3	0
11	11	7	10000	3	1	0	3	0
12	12	7	10000	3	1	0	3	0
13	13	7	10000	3	1	0	3	0
12	14	7	10000	3	1	0	3	0
11	15	7	10000	3	1	0	3	0
11	16	7	10000	3	1	0	3	0
10	17	7	10000	3	1	0	3	0
12	18	7	10000	3	1	0	3	0
12	19	7	10000	3	1	0	3	0
11	20	7	10000	3	1	0	3	0
11	21	7	10000	3	1	0	3	0
11	22	7	10000	3	1	0	3	0
10	23	7	10000	3	1	0	3	0
10	24	7	10000	3	1	0	3	0
10	25	7	10000	3	1	0	3	0
11	26	7	10000	3	1	0	3	0
12	27	7	10000	3	1	0	3	0
11	28	7	10000	3	1	0	3	0
11	29	7	10000	3	1	0	3	0
13	30	7	10000	3	1	0	3	0
13	31	7	10000	3	1	0	3	0
13	32	7	10000	3	1	0	3	0
13	33	7	10000	3	1	0	3	0
13	34	7	10000	3	1	0	3	0
13	35	7	10000	3	1	0	3	0
13	36	7	10000	3	1	0	3	0
11	37	7	10000	3	1	0	3	0
13	38	7	10000	3	1	0	3	0
16	39	7	10000	3	1	0	3	0
17	40	7	10000	3	1	0	3	0
17	41	7	10000	3	1	0	3	0
17	42	7	10000	3	1	0	3	0
17	43	7	10000	3	1	0	3	0
17	44	7	10000	3	1	0	3	0
18	45	7	10000	3	1	0	3	0
18	46	7	10000	3	1	0	3	0
18	47	7	10000	3	1	0	3	0
17	48	7	10000	3	1	0	3	0
16	49	7	10000	3	1	0	3	0
16	50	7	10000	3	1	0	3	0
17	51	7	10000	3	1	0	3	0
16	52	7	10000	3	1	0	3	0
16	53	7	10000	3	1	0	3	0
17	54	7	10000	3	1	0	3	0
16	55	7	10000	3	1	0	3	0
16	56	7	10000	3	1	0	3	0
16	57	7	10000	3	1	0	3	0
17	58	7	10000	3	1	0	3	0
17	59	7	10000	3	1	0	3	0
18	60	7	10000	3	1	0	3	0
19	61	7	10000	3	1	0	3	0
20	62	7	10000	3	1	0	3	0
21	63	7	10000	3	1	0	3	0
21	64	7	10000	3	1	0	3	0
20	65	7	10000	3	1	0	3	0
20	66	7	10000	3	1	0	3	0
21	67	7	10000	3	1	0	3	0
19	68	7	10000	3	1	0	3	0
21	69	7	10000	3	1	0	3	0
24	70	7	10000	3	1	0	3	0
26	71	7	10000	3	1	0	3	0
27	72	7	10000	3	1	0	3	0
25	73	7	10000	3	1	0	3	0
24	74	7	10000	3	1	0	3	0
23	75	7	10000	3	1	0	3	0
22	76	7	10000	3	1	0	3	0
22	77	7	10000	3	1	0	3	0
26	78	7	10000	3	1	0	3	0
27	79	7	10000	3	1	0	3	0
28	80	7	10000	3	1	0	3	0
26	81	7	10000	3	1	0	3	0
26	82	7	10000	3	1	0	3	0
26	83	7	10000	3	1	0	3	0
24	84	7	10000	3	1	0	3	0
24	85	7	10000	3	1	0	3	0
26	86	7	10000	3	1	0	3	0
27	87	7	10000	3	1	0	3	0
29	88	7	10000	3	1	0	3	0
30	89	7	10000	3	1	0	3	0
30	90	7	10000	3	1	0	3	0
29	91	7	10000	3	1	0	3	0
29	92	7	10000	3	1	0	3	0
28	93	7	10000	3	1	0	3	0
27	94	7	10000	3	1	0	3	0
26	95	7	10000	3	1	0	3	0
24	96	7	10000	3	1	0	3	0
23	97	7	10000	3	1	0	3	0
26	98	7	10000	3	1	0	3	0
27	99	7	10000	3	1	0	3	0
29	100	7	10000	3	1	0	3	0
29	101	7	10000	3	1	0	3	0
29	102	7	10000	3	1	0	3	0
28	103	7	10000	3	1	0	3	0
27	104	7	10000	3	1	0	3	0
26	105	7	10000	3	1	0	3	0
26	106	7	10000	3	1	0	3	0
26	107	7	10000	3	1	0	3	0
25	108	7	10000	3	1	0	3	0
25	109	7	10000	3	1	0	3	0
26	110	7	10000	3	1	0	3	0
27	111	7	10000	3	1	0	3	0
27	112	7	10000	3	1	0	3	0
27	113	7	10000	3	1	0	3	0
28	114	7	10000	3	1	0	3	0
28	115	7	10000	3	1	0	3	0
29	116	7	10000	3	1	0	3	0
30	117	7	10000	3	1	0	3	0
32	118	7	10000	3	1	0	3	0
32	119	7	10000	3	1	0	3	0
31	120	7	10000	3	1	0	3	0
31	121	7	10000	3	1	0	3	0
31	122	7	10000	3	1	0	3	0
31	123	7	10000	3	1	0	3	0
31	124	7	10000	3	1	0	3	0
32	125	7	10000	3	1	0	3	0
32	126	7	10000	3	1	0	3	0
32	127	7	10000	3	1	0	3	0
29	128	7	10000	3	1	0	3	0
27	129	7	10000	3	1	0	3	0
27	130	7	10000	3	1	0	3	0
27	131	7	10000	3	1	0	3	0
25	132	7	10000	3	1	0	3	0
25	133	7	10000	3	1	0	3	0
24	134	7	10000	3	1	0	3	0
23	135	7	10000	3	1	0	3	0
22	136	7	10000	3	1	0	3	0
21	137	7	10000	3	1	0	3	0
23	138	7	10000	3	1	0	3	0
23	139	7	10000	3	1	0	3	0
22	140	7	10000	3	1	0	3	0
22	141	7	10000	3	1	0	3	0
21	142	7	10000	3	1	0	3	0
20	143	7	10000	3	1	0	3	0
20	144	7	10000	3	1	0	3	0
20	145	7	10000	3	1	0	3	0
19	146	7	10000	3	1	0	3	0
20	147	7	10000	3	1	0	3	0
18	148	7	10000	3	1	0	3	0
17	149	7	10000	3	1	0	3	0
17	150	7	10000	3	1	0	3	0
17	151	7	10000	3	1	0	3	0
16	152	7	10000	3	1	0	3	0
16	153	7	10000	3	1	0	3	0
16	154	7	10000	3	1	0	3	0
15	155	7	10000	3	1	0	3	0
14	156	7	10000	3	1	0	3	0
13	157	7	10000	3	1	0	3	0
15	158	7	10000	3	1	0	3	0
15	159	7	10000	3	1	0	3	0
14	160	7	10000	3	1	0	3	0
14	161	7	10000	3	1	0	3	0
13	162	7	10000	3	1	0	3	0
14	163	7	10000	3	1	0	3	0
13	164	7	10000	3	1	0	3	0
13	165	7	10000	3	1	0	3	0
13	166	7	10000	3	1	0	3	0
13	167	7	10000	3	1	0	3	0
11	168	7	10000	3	1	0	3	0
11	169	7	10000	3	1	0	3	0
11	170	7	10000	3	1	0	3	0
11	171	7	10000	3	1	0	3	0
12	172	7	10000	3	1	0	3	0
12	173	7	10000	3	1	0	3	0
14	174	7	10000	3	1	0	3	0
14	175	7	10000	3	1	0	3	0
14	176	7	10000	3	1	0	3	0
13	177	7	10000	3	1	0	3	0
15	178	7	10000	3	1	0	3	0
16	179	7	10000	3	1	0	3	0
17	180	7	10000	3	1	0	3	0
16	181	7	10000	3	1	0	3	0
16	182	7	10000	3	1	0	3	0
16	183	7	10000	3	1	0	3	0
16	184	7	10000	3	1	0	3	0
16	185	7	10000	3	1	0	3	0
17	186	7	10000	3	1	0	3	0
17	187	7	10000	3	1	0	3	0
14	188	7	10000	3	1	0	3	0
13	189	7	10000	3	1	0	3	0
13	190	7	10000	3	1	0	3	0
13	191	7	10000	3	1	0	3	0
13	192	7	10000	3	1	0	3	0
13	193	7	10000	3	1	0	3	0
14	194	7	10000	3	1	0	3	0
14	195	7	10000	3	1	0	3	0
13	196	7	10000	3	1	0	3	0
13	197	7	10000	3	1	0	3	0
15	198	7	10000	3	1	0	3	0
16	199	7	10000	3	1	0	3	0
15	200	7	10000	3	1	0	3	0
15	201	7	10000	3	1	0	3	0
14	202	7	10000	3	1	0	3	0
14	203	7	10000	3	1	0	3	0
14	204	7	10000	3	1	0	3	0
13	205	7	10000	3	1	0	3	0
13	206	7	10000	3	1	0	3	0
14	207	7	10000	3	1	0	3	0
11	208	7	10000	3	1	0	3	0
11	209	7	10000	3	1	0	3	0
11	210	7	10000	3	1	0	3	0
11	211	7	10000	3	1	0	3	0
12	212	7	10000	3	1	0	3	0
12	213	7	10000	3	1	0	3	0
13	214	7	10000	3	1	0	3	0
11	215	7	10000	3	1	0	3	0
11	216	7	10000	3	1	0	3	0
10	217	7	10000	3	1	0	3	0
12	218	7	10000	3	1	0	3	0
12	219	7	10000	3	1	0	3	0
12	220	7	10000	3	1	0	3	0
12	221	7	10000	3	1	0	3	0
11	222	7	10000	3	1	0	3	0
10	223	7	10000	3	1	0	3	0
10	224	7	10000	3	1	0	3	0
11	225	7	10000	3	1	0	3	0
11	226	7	10000	3	1	0	3	0
12	227	7	10000	3	1	0	3	0
9	228	7	10000	3	1	0	3	0
8	229	7	10000	3	1	0	3	0
9	230	7	10000	3	1	0	3	0
9	231	7	10000	3	1	0	3	0
8	232	7	10000	3	1	0	3	0
9	233	7	10000	3	1	0	3	0
9	234	7	10000	3	1	0	3	0
8	235	7	10000	3	1	0	3	0
8	236	7	10000	3	1	0	3	0
7	237	7	10000	3	1	0	3	0
10	238	7	10000	3	1	0	3	0
10	239	7	10000	3	1	0	3	0
10	240	7	10000	3	1	0	3	0
10	241	7	10000	3	1	0	3	0
11	242	7	10000	3	1	0	3	0
11	243	7	10000	3	1	0	3	0
11	244	7	10000	3	1	0	3	0
12	245	7	10000	3	1	0	3	0
13	246	7	10000	3	1	0	3	0
13	247	7	10000	3	1	0	3	0
11	248	7	10000	3	1	0	3	0
10	249	7	10000	3	1	0	3	0
11	250	7	10000	3	1	0	3	0
11	251	7	10000	3	1	0	3	0
11	252	7	10000	3	1	0	3	0
10	253	7	10000	3	1	0	3	0
10	254	7	10000	3	1	0	3	0
10	255	7	10000	3	1	0	3	0
9	256	7	10000	3	1	0	3	0
9	257	7	10000	3	1	0	3	0
11	258	7	10000	3	1	0	3	0
11	259	7	10000	3	1	0	3	0
11	260	7	10000	3	1	0	3	0
10	261	7	10000	3	1	0	3	0
11	262	7	10000	3	1	0	3	0
11	263	7	10000	3	1	0	3	0
11	264	7	10000	3	1	0	3	0
12	265	7	10000	3	1	0	3	0
12	266	7	10000	3	1	0	3	0
13	267	7	10000	3	1	0	3	0
11	268	7	10000	3	1	0	3	0
10	269	7	10000	3	1	0	3	0
11	270	7	10000	3	1	0	3	0
12	271	7	10000	3	1	0	3	0
12	272	7	10000	3	1	0	3	0
12	273	7	10000	3	1	0	3	0
12	274	7	10000	3	1	0	3	0
11	275	7	10000	3	1	0	3	0
11	276	7	10000	3	1	0	3	0
11	277	7	10000	3	1	0	3	0
12	278	7	10000	3	1	0	3	0
13	279	7	10000	3	1	0	3	0
14	280	7	10000	3	1	0	3	0
14	281	7	10000	3	1	0	3	0
14	282	7	10000	3	1	0	3	0
14	283	7	10000	3	1	0	3	0
14	284	7	10000	3	1	0	3	0
14	285	7	10000	3	1	0	3	0
14	286	7	10000	3	1	0	3	0
15	287	7	10000	3	1	0	3	0
14	288	7	10000	3	1	0	3	0
13	289	7	10000	3	1	0	3	0
13	290	7	10000	3	1	0	3	0
13	291	7	10000	3	1	0	3	0
14	292	7	10000	3	1	0	3	0
14	293	7	10000	3	1	0	3	0
14	294	7	10000	3	1	0	3	0
14	295	7	10000	3	1	0	3	0
14	296	7	10000	3	1	0	3	0
13	297	7	10000	3	1	0	3	0
15	298	7	10000	3	1	0	3	0
15	299	7	10000	3	1	0	3	0
14	300	7	10000	3	1	0	3	0
13	301	7	10000	3	1	0	3	0
13	302	7	10000	3	1	0	3	0
13	303	7	10000	3	1	0	3	0
13	304	7	10000	3	1	0	3	0
13	305	7	10000	3	1	0	3	0
14	306	7	10000	3	1	0	3	0
15	307	7	10000	3	1	0	3	0
13	308	7	10000	3	1	0	3	0
14	309	7	10000	3	1	0	3	0
14	310	7	10000	3	1	0	3	0
13	311	7	10000	3	1	0	3	0
14	312	7	10000	3	1	0	3	0
15	313	7	10000	3	1	0	3	0
16	314	7	10000	3	1	0	3	0
17	315	7	10000	3	1	0	3	0
17	316	7	10000	3	1	0	3	0
17	317	7	10000	3	1	0	3	0
19	318	7	10000	3	1	0	3	0
18	319	7	10000	3	1	0	3	0
16	320	7	10000	3	1	0	3	0
17	321	7	10000	3	1	0	3	0
16	322	7	10000	3	1	0	3	0
15	323	7	10000	3	1	0	3	0
16	324	7	10000	3	1	0	3	0
17	325	7	10000	3	1	0	3	0
17	326	7	10000	3	1	0	3	0
19	327	7	10000	3	1	0	3	0
19	328	7	10000	3	1	0	3	0
18	329	7	10000	3	1	0	3	0
19	330	7	10000	3	1	0	3	0
19	331	7	10000	3	1	0	3	0
20	332	7	10000	3	1	0	3	0
20	333	7	10000	3	1	0	3	0
19	334	7	10000	3	1	0	3	0
18	335	7	10000	3	1	0	3	0
18	336	7	10000	3	1	0	3	0
18	337	7	10000	3	1	0	3	0
19	338	7	10000	3	1	0	3	0
20	339	7	10000	3	1	0	3	0
18	340	7	10000	3	1	0	3	0
18	341	7	10000	3	1	0	3	0
17	342	7	10000	3	1	0	3	0
17	343	7	10000	3	1	0	3	0
16	344	7	10000	3	1	0	3	0
16	345	7	10000	3	1	0	3	0
16	346	7	10000	3	1	0	3	0
15	347	7	10000	3	1	0	3	0
14	348	7	10000	3	1	0	3	0
13	349	7	10000	3	1	0	3	0
14	350	7	10000	3	1	0	3	0
13	351	7	10000	3	1	0	3	0
13	352	7	10000	3	1	0	3	0
12	353	7	10000	3	1	0	3	0
12	354	7	10000	3	1	0	3	0
11	355	7	10000	3	1	0	3	0
11	356	7	10000	3	1	0	3	0
11	357	7	10000	3	1	0	3	0
14	358	7	10000	3	1	0	3	0
14	359	7	10000	3	1	0	3	0
14	360	7	10000	3	1	0	3	0
13	361	7	10000	3	1	0	3	0
13	362	7	10000	3	1	0	3	0
13	363	7	10000	3	1	0	3	0
12	364	7	10000	3	1	0	3	0
12	365	7	10000	3	1	0	3	0
12	366	7	10000	3	1	0	3	0
13	367	7	10000	3	1	0	3	0
11	368	7	10000	3	1	0	3	0
10	369	7	10000	3	1	0	3	0
10	370	7	10000	3	1	0	3	0
11	371	7	10000	3	1	0	3	0
10	372	7	10000	3	1	0	3	0
11	373	7	10000	3	1	0	3	0
11	374	7	10000	3	1	0	3	0
10	375	7	10000	3	1	0	3	0
10	376	7	10000	3	1	0	3	0
11	377	7	10000	3	1	0	3	0
12	378	7	10000	3	1	0	3	0
13	379	7	10000	3	1	0	3	0
13	380	7	10000	3	1	0	3	0
13	381	7	10000	3	1	0	3	0
13	382	7	10000	3	1	0	3	0
14	383	7	10000	3	1	0	3	0
14	384	7	10000	3	1	0	3	0
15	385	7	10000	3	1	0	3	0
15	386	7	10000	3	1	0	3	0
14	387	7	10000	3	1	0	3	0
11	388	7	10000	3	1	0	3	0
11	389	7	10000	3	1	0	3	0
12	390	7	10000	3	1	0	3	0
12	391	7	10000	3	1	0	3	0
14	392	7	10000	3	1	0	3	0
18	393	7	10000	3	1	0	3	0
20	394	7	10000	3	1	0	3	0
20	395	7	10000	3	1	0	3	0
20	396	7	10000	3	1	0	3	0
19	397	7	10000	3	1	0	3	0
20	398	7	10000	3	1	0	3	0
20	399	7	10000	3	1	0	3	0
19	400	7	10000	3	1	0	3	0
18	401	7	10000	3	1	0	3	0
18	402	7	10000	3	1	0	3	0
19	403	7	10000	3	1	0	3	0
18	404	7	10000	3	1	0	3	0
20	405	7	10000	3	1	0	3	0
22	406	7	10000	3	1	0	3	0
25	407	7	10000	3	1	0	3	0
25	408	7	10000	3	1	0	3	0
27	409	7	10000	3	1	0	3	0
28	410	7	10000	3	1	0	3	0
29	411	7	10000	3	1	0	3	0
31	412	7	10000	3	1	0	3	0
32	413	7	10000	3	1	0	3	0
31	414	7	10000	3	1	0	3	0
31	415	7	10000	3	1	0	3	0
29	416	7	10000	3	1	0	3	0
29	417	7	10000	3	1	0	3	0
34	418	7	10000	3	1	0	3	0
36	419	7	10000	3	1	0	3	0
38	420	7	10000	3	1	0	3	0
39	421	7	10000	3	1	0	3	0
37	422	7	10000	3	1	0	3	0
36	423	7	10000	3	1	0	3	0
36	424	7	10000	3	1	0	3	0
35	425	7	10000	3	1	0	3	0
33	426	7	10000	3	1	0	3	0
33	427	7	10000	3	1	0	3	0
32	428	7	10000	3	1	0	3	0
33	429	7	10000	3	1	0	3	0
35	430	7	10000	3	1	0	3	0
37	431	7	10000	3	1	0	3	0
38	432	7	10000	3	1	0	3	0
42	433	7	10000	3	1	0	3	0
43	434	7	10000	3	1	0	3	0
42	435	7	10000	3	1	0	3	0
41	436	7	10000	3	1	0	3	0
41	437	7	10000	3	1	0	3	0
43	438	7	10000	3	1	0	3	0
43	439	7	10000	3	1	0	3	0
43	440	7	10000	3	1	0	3	0
43	441	7	10000	3	1	0	3	0
43	442	7	10000	3	1	0	3	0
43	443	7	10000	3	1	0	3	0
43	444	7	10000	3	1	0	3	0
44	445	7	10000	3	1	0	3	0
44	446	7	10000	3	1	0	3	0
43	447	7	10000	3	1	0	3	0
41	448	7	10000	3	1	0	3	0
41	449	7	10000	3	1	0	3	0
41	450	7	10000	3	1	0	3	0
40	451	7	10000	3	1	0	3	0
39	452	7	10000	3	1	0	3	0
38	453	7	10000	3	1	0	3	0
36	454	7	10000	3	1	0	3	0
34	455	7	10000	3	1	0	3	0
32	456	7	10000	3	1	0	3	0
32	457	7	10000	3	1	0	3	0
33	458	7	10000	3	1	0	3	0
33	459	7	10000	3	1	0	3	0
31	460	7	10000	3	1	0	3	0
30	461	7	10000	3	1	0	3	0
30	462	7	10000	3	1	0	3	0
28	463	7	10000	3	1	0	3	0
27	464	7	10000	3	1	0	3	0
28	465	7	10000	3	1	0	3	0
29	466	7	10000	3	1	0	3	0
28	467	7	10000	3	1	0	3	0
26	468	7	10000	3	1	0	3	0
24	469	7	10000	3	1	0	3	0
24	470	7	10000	3	1	0	3	0
24	471	7	10000	3	1	0	3	0
23	472	7	10000	3	1	0	3	0
23	473	7	10000	3	1	0	3	0
22	474	7	10000	3	1	0	3	0
21	475	7	10000	3	1	0	3	0
20	476	7	10000	3	1	0	3	0
19	477	7	10000	3	1	0	3	0
20	478	7	10000	3	1	0	3	0
20	479	7	10000	3	1	0	3	0
20	480	7	10000	3	1	0	3	0
19	481	7	10000	3	1	0	3	0
18	482	7	10000	3	1	0	3	0
18	483	7	10000	3	1	0	3	0
16	484	7	10000	3	1	0	3	0
16	485	7	10000	3	1	0	3	0
16	486	7	10000	3	1	0	3	0
16	487	7	10000	3	1	0	3	0
14	488	7	10000	3	1	0	3	0
13	489	7	10000	3	1	0	3	0
13	490	7	10000	3	1	0	3	0
13	491	7	10000	3	1	0	3	0
13	492	7	10000	3	1	0	3	0
12	493	7	10000	3	1	0	3	0
13	494	7	10000	3	1	0	3	0
11	495	7	10000	3	1	0	3	0
12	496	7	10000	3	1	0	3	0
11	497	7	10000	3	1	0	3	0
13	498	7	10000	3	1	0	3	0
14	499	7	10000	3	1	0	3	0
14	500	7	10000	3	1	0	3	0
13	501	7	10000	3	1	0	3	0
12	502	7	10000	3	1	0	3	1
13	503	7	10000	3	1	0	3	1
12	504	7	10000	3	1	0	3	1
12	505	7	10000	3	1	0	3	1
13	506	7	10000	3	1	0	3	1
13	507	7	10000	3	1	0	3	1
11	508	7	10000	3	1	0	3	1
11	509	7	10000	3	1	0	3	1
11	510	7	10000	3	1	0	3	1
12	511	7	10000	3	1	0	3	1
12	512	7	10000	3	1	0	3	1
11	513	7	10000	3	1	0	3	1
11	514	7	10000	3	1	0	3	1
11	515	7	10000	3	1	0	3	1
10	516	7	10000	3	1	0	3	1
10	517	7	10000	3	1	0	3	1
12	518	7	10000	3	1	0	3	1
12	519	7	10000	3	1	0	3	1
11	520	7	10000	3	1	0	3	1
12	521	7	10000	3	1	0	3	1
13	522	7	10000	3	1	0	3	1
13	523	7	10000	3	1	0	3	1
13	524	7	10000	3	1	0	3	1
13	525	7	10000	3	1	0	3	1
14	526	7	10000	3	1	0	3	1
16	527	7	10000	3	1	0	3	1
13	528	7	10000	3	1	0	3	1
14	529	7	10000	3	1	0	3	1
14	530	7	10000	3	1	0	3	1
14	531	7	10000	3	1	0	3	1
14	532	7	10000	3	1	0	3	1
13	533	7	10000	3	1	0	3	1
13	534	7	10000	3	1	0	3	1
12	535	7	10000	3	1	0	3	1
12	536	7	10000	3	1	0	3	1
12	537	7	10000	3	1	0	3	1
14	538	7	10000	3	1	0	3	1
15	539	7	10000	3	1	0	3	1
14	540	7	10000	3	1	0	3	1
14	541	7	10000	3	1	0	3	1
14	542	7	10000	3	1	0	3	1
14	543	7	10000	3	1	0	3	1
14	544	7	10000	3	1	0	3	1
13	545	7	10000	3	1	0	3	1
13	546	7	10000	3	1	0	3	1
14	547	7	10000	3	1	0	3	1
11	548	7	10000	3	1	0	3	1
11	549	7	10000	3	1	0	3	1
12	550	7	10000	3	1	0	3	1
11	551	7	10000	3	1	0	3	1
12	552	7	10000	3	1	0	3	0
13	553	7	10000	3	1	0	3	0
12	554	7	10000	3	1	0	3	0
12	555	7	10000	3	1	0	3	0
12	556	7	10000	3	1	0	3	0
11	557	7	10000	3	1	0	3	0
12	558	7	10000	3	1	0	3	0
13	559	7	10000	3	1	0	3	0
12	560	7	10000	3	1	0	3	0
14	561	7	10000	3	1	0	3	0
15	562	7	10000	3	1	0	3	0
14	563	7	10000	3	1	0	3	0
14	564	7	10000	3	1	0	3	0
14	565	7	10000	3	1	0	3	0
15	566	7	10000	3	1	0	3	0
16	567	7	10000	3	1	0	3	0
13	568	7	10000	3	1	0	3	0
12	569	7	10000	3	1	0	3	0
12	570	7	10000	3	1	0	3	0
13	571	7	10000	3	1	0	3	0
13	572	7	10000	3	1	0	3	0
15	573	7	10000	3	1	0	3	0
15	574	7	10000	3	1	0	3	0
14	575	7	10000	3	1	0	3	0
14	576	7	10000	3	1	0	3	0
13	577	7	10000	3	1	0	3	0
14	578	7	10000	3	1	0	3	0
15	579	7	10000	3	1	0	3	0
16	580	7	10000	3	1	0	3	0
16	581	7	10000	3	1	0	3	0
16	582	7	10000	3	1	0	3	0
17	583	7	10000	3	1	0	3	0
17	584	7	10000	3	1	0	3	0
17	585	7	10000	3	1	0	3	0
17	586	7	10000	3	1	0	3	0
17	587	7	10000	3	1	0	3	0
16	588	7	10000	3	1	0	3	0
19	589	7	10000	3	1	0	3	0
26	590	7	10000	3	1	0	3	0
37	591	7	10000	3	1	0	3	0
53	592	7	10000	3	1	0	3	0
98	593	7	10000	3	1	0	3	0
121	594	7	10000	3	1	0	3	0
170	595	7	10000	3	1	0	3	0
217	596	7	10000	3	1	0	3	0
236	597	7	10000	3	1	0	3	0
320	598	7	10000	3	1	0	3	0
346	599	7	10000	3	1	0	3	0
433	600	7	10000	3	1	0	3	0
605	601	7	10000	3	1	0	3	0
708	602	7	10000	3	1	0	3	0
722	603	7	10000	3	1	0	3	0
823	604	7	10000	3	1	0	3	0
930	605	7	10000	3	1	0	3	0
950	606	7	10000	3	1	0	3	0
1094	607	7	10000	3	1	0	3	0
1163	608	7	10000	3	1	0	3	0
1185	609	7	10000	3	1	0	3	0
1283	610	7	10000	3	1	0	3	0
1305	611	7	10000	3	1	0	3	0
1288	612	7	10000	3	1	0	3	0
1295	613	7	10000	3	1	0	3	0
1306	614	7	10000	3	1	0	3	0
1311	615	7	10000	3	1	0	3	0
1321	616	7	10000	3	1	0	3	0
1305	617	7	10000	3	1	0	3	0
1352	618	7	10000	3	1	0	3	0
1340	619	7	10000	3	1	0	3	0
1343	620	7	10000	3	1	0	3	0
1382	621	7	10000	3	1	0	3	0
1356	622	7	10000	3	1	0	3	0
1300	623	7	10000	3	1	0	3	0
1261	624	7	10000	3	1	0	3	0
1241	625	7	10000	3	1	0	3	0
1194	626	7	10000	3	1	0	3	0
1167	627	7	10000	3	1	0	3	0
1149	628	7	10000	3	1	0	3	0
1129	629	7	10000	3	1	0	3	0
1102	630	7	10000	3	1	0	3	0
1065	631	7	10000	3	1	0	3	0
1020	632	7	10000	3	1	0	3	0
976	633	7	10000	3	1	0	3	0
940	634	7	10000	3	1	0	3	0
903	635	7	10000	3	1	0	3	0
873	636	7	10000	3	1	0	3	0
850	637	7	10000	3	1	0	3	0
832	638	7	10000	3	1	0	3	0
809	639	7	10000	3	1	0	3	0
785	640	7	10000	3	1	0	3	0
761	641	7	10000	3	1	0	3	0
736	642	7	10000	3	1	0	3	0
711	643	7	10000	3	1	0	3	0
684	644	7	10000	3	1	0	3	0
660	645	7	10000	3	1	0	3	0
638	646	7	10000	3	1	0	3	0
618	647	7	10000	3	1	0	3	0
590	648	7	10000	3	1	0	3	0
564	649	7	10000	3	1	0	3	0
540	650	7	10000	3	1	0	3	0
521	651	7	10000	3	1	0	3	0
503	652	7	10000	3	1	0	3	0
483	653	7	10000	3	1	0	3	0
462	654	7	10000	3	1	0	3	0
441	655	7	10000	3	1	0	3	0
427	656	7	10000	3	1	0	3	0
418	657	7	10000	3	1	0	3	0
413	658	7	10000	3	1	0	3	0
406	659	7	10000	3	1	0	3	0
400	660	7	10000	3	1	0	3	0
396	661	7	10000	3	1	0	3	0
391	662	7	10000	3	1	0	3	0
386	663	7	10000	3	1	0	3	0
380	664	7	10000	3	1	0	3	0
372	665	7	10000	3	1	0	3	0
364	666	7	10000	3	1	0	3	0
356	667	7	10000	3	1	0	3	0
345	668	7	10000	3	1	0	3	0
335	669	7	10000	3	1	0	3	0
327	670	7	10000	3	1	0	3	0
319	671	7	10000	3	1	0	3	0
312	672	7	10000	3	1	0	3	0
307	673	7	10000	3	1	0	3	0
303	674	7	10000	3	1	0	3	0
297	675	7	10000	3	1	0	3	0
290	676	7	10000	3	1	0	3	0
283	677	7	10000	3	1	0	3	0
278	678	7	10000	3	1	0	3	0
270	679	7	10000	3	1	0	3	0
262	680	7	10000	3	1	0	3	0
255	681	7	10000	3	1	0	3	0
248	682	7	10000	3	1	0	3	0
239	683	7	10000	3	1	0	3	0
230	684	7	10000	3	1	0	3	0
220	685	7	10000	3	1	0	3	0
213	686	7	10000	3	1	0	3	0
208	687	7	10000	3	1	0	3	0
204	688	7	10000	3	1	0	3	0
202	689	7	10000	3	1	0	3	0
199	690	7	10000	3	1	0	3	0
198	691	7	10000	3	1	0	3	0
193	692	7	10000	3	1	0	3	0
187	693	7	10000	3	1	0	3	0
185	694	7	10000	3	1	0	3	0
185	695	7	10000	3	1	0	3	0
188	696	7	10000	3	1	0	3	0
189	697	7	10000	3	1	0	3	0
188	698	7	10000	3	1	0	3	0
186	699	7	10000	3	1	0	3	0
185	700	7	10000	3	1	0	3	0
184	701	7	10000	3	1	0	3	0
184	702	7	10000	3	1	0	3	0
186	703	7	10000	3	1	0	3	0
188	704	7	10000	3	1	0	3	0
191	705	7	10000	3	1	0	3	0
195	706	7	10000	3	1	0	3	0
200	707	7	10000	3	1	0	3	0
202	708	7	10000	3	1	0	3	0
205	709	7	10000	3	1	0	3	0
209	710	7	10000	3	1	0	3	0
212	711	7	10000	3	1	0	3	0
215	712	7	10000	3	1	0	3	0
218	713	7	10000	3	1	0	3	0
219	714	7	10000	3	1	0	3	0
220	715	7	10000	3	1	0	3	0
219	716	7	10000	3	1	0	3	0
216	717	7	10000	3	1	0	3	0
215	718	7	10000	3	1	0	3	0
211	719	7	10000	3	1	0	3	0
207	720	7	10000	3	1	0	3	0
201	721	7	10000	3	1	0	3	0
197	722	7	10000	3	1	0	3	0
192	723	7	10000	3	1	0	3	0
188	724	7	10000	3	1	0	3	0
185	725	7	10000	3	1	0	3	0
182	726	7	10000	3	1	0	3	0
180	727	7	10000	3	1	0	3	0
177	728	7	10000	3	1	0	3	0
176	729	7	10000	3	1	0	3	0
176	730	7	10000	3	1	0	3	0
173	731	7	10000	3	1	0	3	0
170	732	7	10000	3	1	0	3	0
164	733	7	10000	3	1	0	3	0
158	734	7	10000	3	1	0	3	0
151	735	7	10000	3	1	0	3	0
143	736	7	10000	3	1	0	3	0
137	737	7	10000	3	1	0	3	0
135	738	7	10000	3	1	0	3	0
131	739	7	10000	3	1	0	3	0
127	740	7	10000	3	1	0	3	0
124	741	7	10000	3	1	0	3	0
119	742	7	10000	3	1	0	3	0
116	743	7	10000	3	1	0	3	0
112	744	7	10000	3	1	0	3	0
107	745	7	10000	3	1	0	3	0
103	746	7	10000	3	1	0	3	0
100	747	7	10000	3	1	0	3	0
94	748	7	10000	3	1	0	3	0
91	749	7	10000	3	1	0	3	0
89	750	7	10000	3	1	0	3	0
85	751	7	10000	3	1	0	3	0
82	752	7	10000	3	1	0	3	0
79	753	7	10000	3	1	0	3	0
76	754	7	10000	3	1	0	3	0
75	755	7	10000	3	1	0	3	0
74	756	7	10000	3	1	0	3	0
76	757	7	10000	3	1	0	3	0
80	758	7	10000	3	1	0	3	0
82	759	7	10000	3	1	0	3	0
83	760	7	10000	3	1	0	3	0
84	761	7	10000	3	1	0	3	0
84	762	7	10000	3	1	0	3	0
81	763	7	10000	3	1	0	3	0
80	764	7	10000	3	1	0	3	0
77	765	7	10000	3	1	0	3	0
74	766	7	10000	3	1	0	3	0
73	767	7	10000	3	1	0	3	0
69	768	7	10000	3	1	0	3	0
66	769	7	10000	3	1	0	3	0
64	770	7	10000	3	1	0	3	0
63	771	7	10000	3	1	0	3	0
62	772	7	10000	3	1	0	3	0
61	773	7	10000	3	1	0	3	0
63	774	7	10000	3	1	0	3	0
63	775	7	10000	3	1	0	3	0
63	776	7	10000	3	1	0	3	0
63	777	7	10000	3	1	0	3	0
65	778	7	10000	3	1	0	3	0
66	779	7	10000	3	1	0	3	0
65	780	7	10000	3	1	0	3	0
67	781	7	10000	3	1	0	3	0
68	782	7	10000	3	1	0	3	0
69	783	7	10000	3	1	0	3	0
68	784	7	10000	3	1	0	3	0
68	785	7	10000	3	1	0	3	0
67	786	7	10000	3	1	0	3	0
66	787	7	10000	3	1	0	3	0
62	788	7	10000	3	1	0	3	0
59	789	7	10000	3	1	0	3	0
56	790	7	10000	3	1	0	3	0
55	791	7	10000	3	1	0	3	0
52	792	7	10000	3	1	0	3	0
51	793	7	10000	3	1	0	3	0
52	794	7	10000	3	1	0	3	0
56	795	7	10000	3	1	0	3	0
61	796	7	10000	3	1	0	3	0
64	797	7	10000	3	1	0	3	0
63	798	7	10000	3	1	0	3	0
61	799	7	10000	3	1	0	3	0
62	800	7	10000	3	1	0	3	0
66	801	7	10000	3	1	0	3	0
69	802	7	10000	3	1	0	3	0
69	803	7	10000	3	1	0	3	0
66	804	7	10000	3	1	0	3	0
64	805	7	10000	3	1	0	3	0
64	806	7	10000	3	1	0	3	0
63	807	7	10000	3	1	0	3	0
61	808	7	10000	3	1	0	3	0
60	809	7	10000	3	1	0	3	0
60	810	7	10000	3	1	0	3	0
57	811	7	10000	3	1	0	3	0
55	812	7	10000	3	1	0	3	0
53	813	7	10000	3	1	0	3	0
51	814	7	10000	3	1	0	3	0
49	815	7	10000	3	1	0	3	0
47	816	7	10000	3	1	0	3	0
46	817	7	10000	3	1	0	3	0
49	818	7	10000	3	1	0	3	0
50	819	7	10000	3	1	0	3	0
51	820	7	10000	3	1	0	3	0
51	821	7	10000	3	1	0	3	0
51	822	7	10000	3	1	0	3	0
50	823	7	10000	3	1	0	3	0
50	824	7	10000	3	1	0	3	0
49	825	7	10000	3	1	0	3	0
48	826	7	10000	3	1	0	3	0
47	827	7	10000	3	1	0	3	0
43	828	7	10000	3	1	0	3	0
42	829	7	10000	3	1	0	3	0
40	830	7	10000	3	1	0	3	0
39	831	7	10000	3	1	0	3	0
39	832	7	10000	3	1	0	3	0
39	833	7	10000	3	1	0	3	0
38	834	7	10000	3	1	0	3	0
38	835	7	10000	3	1	0	3	0
37	836	7	10000	3	1	0	3	0
38	837	7	10000	3	1	0	3	0
41	838	7	10000	3	1	0	3	0
42	839	7	10000	3	1	0	3	0
43	840	7	10000	3	1	0	3	0
43	841	7	10000	3	1	0	3	0
43	842	7	10000	3	1	0	3	0
42	843	7	10000	3	1	0	3	0
41	844	7	10000	3	1	0	3	0
39	845	7	10000	3	1	0	3	0
39	846	7	10000	3	1	0	3	0
38	847	7	10000	3	1	0	3	0
34	848	7	10000	3	1	0	3	0
32	849	7	10000	3	1	0	3	0
32	850	7	10000	3	1	0	3	0
31	851	7	10000	3	1	0	3	0
33	852	7	10000	3	1	0	3	0
32	853	7	10000	3	1	0	3	0
31	854	7	10000	3	1	0	3	0
31	855	7	10000	3	1	0	3	0
30	856	7	10000	3	1	0	3	0
29	857	7	10000	3	1	0	3	0
30	858	7	10000	3	1	0	3	0
30	859	7	10000	3	1	0	3	0
28	860	7	10000	3	1	0	3	0
27	861	7	10000	3	1	0	3	0
25	862	7	10000	3	1	0	3	0
25	863	7	10000	3	1	0	3	0
24	864	7	10000	3	1	0	3	0
24	865	7	10000	3	1	0	3	0
24	866	7	10000	3	1	0	3	0
24	867	7	10000	3	1	0	3	0
23	868	7	10000	3	1	0	3	0
23	869	7	10000	3	1	0	3	0
26	870	7	10000	3	1	0	3	0
28	871	7	10000	3	1	0	3	0
29	872	7	10000	3	1	0	3	0
31	873	7	10000	3	1	0	3	0
30	874	7	10000	3	1	0	3	0
28	875	7	10000	3	1	0	3	0
28	876	7	10000	3	1	0	3	0
26	877	7	10000	3	1	0	3	0
29	878	7	10000	3	1	0	3	0
31	879	7	10000	3	1	0	3	0
31	880	7	10000	3	1	0	3	0
31	881	7	10000	3	1	0	3	0
33	882	7	10000	3	1	0	3	0
33	883	7	10000	3	1	0	3	0
32	884	7	10000	3	1	0	3	0
32	885	7	10000	3	1	0	3	0
32	886	7	10000	3	1	0	3	0
31	887	7	10000	3	1	0	3	0
29	888	7	10000	3	1	0	3	0
29	889	7	10000	3	1	0	3	0
28	890	7	10000	3	1	0	3	0
28	891	7	10000	3	1	0	3	0
27	892	7	10000	3	1	0	3	0
26	893	7	10000	3	1	0	3	0
25	894	7	10000	3	1	0	3	0
24	895	7	10000	3	1	0	3	0
23	896	7	10000	3	1	0	3	0
22	897	7	10000	3	1	0	3	0
24	898	7	10000	3	1	0	3	0
25	899	7	10000	3	1	0	3	0
24	900	7	10000	3	1	0	3	0
24	901	7	10000	3	1	0	3	0
23	902	7	10000	3	1	0	3	0
22	903	7	10000	3	1	0	3	0
22	904	7	10000	3	1	0	3	0
21	905	7	10000	3	1	0	3	0
21	906	7	10000	3	1	0	3	0
21	907	7	10000	3	1	0	3	0
20	908	7	10000	3	1	0	3	0
20	909	7	10000	3	1	0	3	0
20	910	7	10000	3	1	0	3	0
19	911	7	10000	3	1	0	3	0
19	912	7	10000	3	1	0	3	0
19	913	7	10000	3	1	0	3	0
19	914	7	10000	3	1	0	3	0
19	915	7	10000	3	1	0	3	0
19	916	7	10000	3	1	0	3	0
19	917	7	10000	3	1	0	3	0
20	918	7	10000	3	1	0	3	0
19	919	7	10000	3	1	0	3	0
19	920	7	10000	3	1	0	3	0
17	921	7	10000	3	1	0	3	0
17	922	7	10000	3	1	0	3	0
17	923	7	10000	3	1	0	3	0
16	924	7	10000	3	1	0	3	0
17	925	7	10000	3	1	0	3	0
17	926	7	10000	3	1	0	3	0
16	927	7	10000	3	1	0	3	0
14	928	7	10000	3	1	0	3	0
15	929	7	10000	3	1	0	3	0
16	930	7	10000	3	1	0	3	0
17	931	7	10000	3	1	0	3	0
20	932	7	10000	3	1	0	3	0
20	933	7	10000	3	1	0	3	0
20	934	7	10000	3	1	0	3	0
19	935	7	10000	3	1	0	3	0
18	936	7	10000	3	1	0	3	0
17	937	7	10000	3	1	0	3	0
19	938	7	10000	3	1	0	3	0
19	939	7	10000	3	1	0	3	0
18	940	7	10000	3	1	0	3	0
17	941	7	10000	3	1	0	3	0
16	942	7	10000	3	1	0	3	0
16	943	7	10000	3	1	0	3	0
16	944	7	10000	3	1	0	3	0
15	945	7	10000	3	1	0	3	0
15	946	7	10000	3	1	0	3	0
15	947	7	10000	3	1	0	3	0
13	948	7	10000	3	1	0	3	0
12	949	7	10000	3	1	0	3	0
13	950	7	10000	3	1	0	3	0
13	951	7	10000	3	1	0	3	0
13	952	7	10000	3	1	0	3	0
13	953	7	10000	3	1	0	3	0
14	954	7	10000	3	1	0	3	0
15	955	7	10000	3	1	0	3	0
15	956	7	10000	3	1	0	3	0
14	957	7	10000	3	1	0	3	0
17	958	7	10000	3	1	0	3	0
16	959	7	10000	3	1	0	3	0
16	960	7	10000	3	1	0	3	0
18	961	7	10000	3	1	0	3	0
19	962	7	10000	3	1	0	3	0
19	963	7	10000	3	1	0	3	0
20	964	7	10000	3	1	0	3	0
20	965	7	10000	3	1	0	3	0
19	966	7	10000	3	1	0	3	0
20	967	7	10000	3	1	0	3	0
18	968	7	10000	3	1	0	3	0
18	969	7	10000	3	1	0	3	0
20	970	7	10000	3	1	0	3	0
21	971	7	10000	3	1	0	3	0
21	972	7	10000	3	1	0	3	0
22	973	7	10000	3	1	0	3	0
20	974	7	10000	3	1	0	3	0
20	975	7	10000	3	1	0	3	0
19	976	7	10000	3	1	0	3	0
18	977	7	10000	3	1	0	3	0
19	978	7	10000	3	1	0	3	0
19	979	7	10000	3	1	0	3	0
17	980	7	10000	3	1	0	3	0
16	981	7	10000	3	1	0	3	0
16	982	7	10000	3	1	0	3	0
16	983	7	10000	3	1	0	3	0
15	984	7	10000	3	1	0	3	0
16	985	7	10000	3	1	0	3	0
16	986	7	10000	3	1	0	3	0
18	987	7	10000	3	1	0	3	0
17	988	7	10000	3	1	0	3	0
18	989	7	10000	3	1	0	3	0
18	990	7	10000	3	1	0	3	0
19	991	7	10000	3	1	0	3	0
18	992	7	10000	3	1	0	3	0
18	993	7	10000	3	1	0	3	0
18	994	7	10000	3	1	0	3	0
18	995	7	10000	3	1	0	3	0
17	996	7	10000	3	1	0	3	0
17	997	7	10000	3	1	0	3	0
18	998	7	10000	3	1	0	3	0
18	999	7	10000	3	1	0	3	0
17	1000	7	10000	3	1	0	3	0
17	1001	7	10000	3	1	0	3	0
44	1	7	10000	4	1	0	4	0
45	2	7	10000	4	1	0	4	0
45	3	7	10000	4	1	0	4	0
44	4	7	10000	4	1	0	4	0
42	5	7	10000	4	1	0	4	0
41	6	7	10000	4	1	0	4	0
41	7	7	10000	4	1	0	4	0
40	8	7	10000	4	1	0	4	0
39	9	7	10000	4	1	0	4	0
39	10	7	10000	4	1	0	4	0
38	11	7	10000	4	1	0	4	0
39	12	7	10000	4	1	0	4	0
40	13	7	10000	4	1	0	4	0
41	14	7	10000	4	1	0	4	0
41	15	7	10000	4	1	0	4	0
41	16	7	10000	4	1	0	4	0
39	17	7	10000	4	1	0	4	0
39	18	7	10000	4	1	0	4	0
39	19	7	10000	4	1	0	4	0
38	20	7	10000	4	1	0	4	0
37	21	7	10000	4	1	0	4	0
35	22	7	10000	4	1	0	4	0
32	23	7	10000	4	1	0	4	0
32	24	7	10000	4	1	0	4	0
33	25	7	10000	4	1	0	4	0
34	26	7	10000	4	1	0	4	0
35	27	7	10000	4	1	0	4	0
34	28	7	10000	4	1	0	4	0
32	29	7	10000	4	1	0	4	0
32	30	7	10000	4	1	0	4	0
31	31	7	10000	4	1	0	4	0
33	32	7	10000	4	1	0	4	0
34	33	7	10000	4	1	0	4	0
34	34	7	10000	4	1	0	4	0
34	35	7	10000	4	1	0	4	0
32	36	7	10000	4	1	0	4	0
33	37	7	10000	4	1	0	4	0
32	38	7	10000	4	1	0	4	0
33	39	7	10000	4	1	0	4	0
32	40	7	10000	4	1	0	4	0
32	41	7	10000	4	1	0	4	0
31	42	7	10000	4	1	0	4	0
32	43	7	10000	4	1	0	4	0
33	44	7	10000	4	1	0	4	0
34	45	7	10000	4	1	0	4	0
35	46	7	10000	4	1	0	4	0
35	47	7	10000	4	1	0	4	0
35	48	7	10000	4	1	0	4	0
34	49	7	10000	4	1	0	4	0
32	50	7	10000	4	1	0	4	0
30	51	7	10000	4	1	0	4	0
31	52	7	10000	4	1	0	4	0
31	53	7	10000	4	1	0	4	0
32	54	7	10000	4	1	0	4	0
33	55	7	10000	4	1	0	4	0
34	56	7	10000	4	1	0	4	0
34	57	7	10000	4	1	0	4	0
33	58	7	10000	4	1	0	4	0
33	59	7	10000	4	1	0	4	0
35	60	7	10000	4	1	0	4	0
34	61	7	10000	4	1	0	4	0
31	62	7	10000	4	1	0	4	0
30	63	7	10000	4	1	0	4	0
31	64	7	10000	4	1	0	4	0
31	65	7	10000	4	1	0	4	0
30	66	7	10000	4	1	0	4	0
28	67	7	10000	4	1	0	4	0
28	68	7	10000	4	1	0	4	0
28	69	7	10000	4	1	0	4	0
28	70	7	10000	4	1	0	4	0
28	71	7	10000	4	1	0	4	0
30	72	7	10000	4	1	0	4	0
29	73	7	10000	4	1	0	4	0
29	74	7	10000	4	1	0	4	0
29	75	7	10000	4	1	0	4	0
28	76	7	10000	4	1	0	4	0
26	77	7	10000	4	1	0	4	0
26	78	7	10000	4	1	0	4	0
27	79	7	10000	4	1	0	4	0
28	80	7	10000	4	1	0	4	0
30	81	7	10000	4	1	0	4	0
33	82	7	10000	4	1	0	4	0
37	83	7	10000	4	1	0	4	0
40	84	7	10000	4	1	0	4	0
40	85	7	10000	4	1	0	4	0
40	86	7	10000	4	1	0	4	0
38	87	7	10000	4	1	0	4	0
37	88	7	10000	4	1	0	4	0
35	89	7	10000	4	1	0	4	0
35	90	7	10000	4	1	0	4	0
34	91	7	10000	4	1	0	4	0
35	92	7	10000	4	1	0	4	0
34	93	7	10000	4	1	0	4	0
32	94	7	10000	4	1	0	4	0
33	95	7	10000	4	1	0	4	0
32	96	7	10000	4	1	0	4	0
33	97	7	10000	4	1	0	4	0
34	98	7	10000	4	1	0	4	0
34	99	7	10000	4	1	0	4	0
34	100	7	10000	4	1	0	4	0
36	101	7	10000	4	1	0	4	0
35	102	7	10000	4	1	0	4	0
34	103	7	10000	4	1	0	4	0
34	104	7	10000	4	1	0	4	0
33	105	7	10000	4	1	0	4	0
33	106	7	10000	4	1	0	4	0
32	107	7	10000	4	1	0	4	0
32	108	7	10000	4	1	0	4	0
32	109	7	10000	4	1	0	4	0
32	110	7	10000	4	1	0	4	0
31	111	7	10000	4	1	0	4	0
32	112	7	10000	4	1	0	4	0
32	113	7	10000	4	1	0	4	0
32	114	7	10000	4	1	0	4	0
32	115	7	10000	4	1	0	4	0
32	116	7	10000	4	1	0	4	0
32	117	7	10000	4	1	0	4	0
32	118	7	10000	4	1	0	4	0
34	119	7	10000	4	1	0	4	0
34	120	7	10000	4	1	0	4	0
33	121	7	10000	4	1	0	4	0
31	122	7	10000	4	1	0	4	0
30	123	7	10000	4	1	0	4	0
31	124	7	10000	4	1	0	4	0
32	125	7	10000	4	1	0	4	0
31	126	7	10000	4	1	0	4	0
30	127	7	10000	4	1	0	4	0
30	128	7	10000	4	1	0	4	0
30	129	7	10000	4	1	0	4	0
29	130	7	10000	4	1	0	4	0
29	131	7	10000	4	1	0	4	0
29	132	7	10000	4	1	0	4	0
30	133	7	10000	4	1	0	4	0
29	134	7	10000	4	1	0	4	0
30	135	7	10000	4	1	0	4	0
32	136	7	10000	4	1	0	4	0
33	137	7	10000	4	1	0	4	0
32	138	7	10000	4	1	0	4	0
32	139	7	10000	4	1	0	4	0
32	140	7	10000	4	1	0	4	0
31	141	7	10000	4	1	0	4	0
30	142	7	10000	4	1	0	4	0
30	143	7	10000	4	1	0	4	0
32	144	7	10000	4	1	0	4	0
32	145	7	10000	4	1	0	4	0
32	146	7	10000	4	1	0	4	0
33	147	7	10000	4	1	0	4	0
36	148	7	10000	4	1	0	4	0
37	149	7	10000	4	1	0	4	0
39	150	7	10000	4	1	0	4	0
40	151	7	10000	4	1	0	4	0
43	152	7	10000	4	1	0	4	0
44	153	7	10000	4	1	0	4	0
43	154	7	10000	4	1	0	4	0
42	155	7	10000	4	1	0	4	0
44	156	7	10000	4	1	0	4	0
46	157	7	10000	4	1	0	4	0
44	158	7	10000	4	1	0	4	0
44	159	7	10000	4	1	0	4	0
44	160	7	10000	4	1	0	4	0
42	161	7	10000	4	1	0	4	0
39	162	7	10000	4	1	0	4	0
38	163	7	10000	4	1	0	4	0
36	164	7	10000	4	1	0	4	0
35	165	7	10000	4	1	0	4	0
35	166	7	10000	4	1	0	4	0
34	167	7	10000	4	1	0	4	0
34	168	7	10000	4	1	0	4	0
36	169	7	10000	4	1	0	4	0
38	170	7	10000	4	1	0	4	0
37	171	7	10000	4	1	0	4	0
39	172	7	10000	4	1	0	4	0
41	173	7	10000	4	1	0	4	0
42	174	7	10000	4	1	0	4	0
41	175	7	10000	4	1	0	4	0
39	176	7	10000	4	1	0	4	0
39	177	7	10000	4	1	0	4	0
37	178	7	10000	4	1	0	4	0
35	179	7	10000	4	1	0	4	0
36	180	7	10000	4	1	0	4	0
37	181	7	10000	4	1	0	4	0
36	182	7	10000	4	1	0	4	0
35	183	7	10000	4	1	0	4	0
36	184	7	10000	4	1	0	4	0
38	185	7	10000	4	1	0	4	0
37	186	7	10000	4	1	0	4	0
38	187	7	10000	4	1	0	4	0
39	188	7	10000	4	1	0	4	0
38	189	7	10000	4	1	0	4	0
42	190	7	10000	4	1	0	4	0
43	191	7	10000	4	1	0	4	0
43	192	7	10000	4	1	0	4	0
44	193	7	10000	4	1	0	4	0
44	194	7	10000	4	1	0	4	0
44	195	7	10000	4	1	0	4	0
44	196	7	10000	4	1	0	4	0
44	197	7	10000	4	1	0	4	0
42	198	7	10000	4	1	0	4	0
43	199	7	10000	4	1	0	4	0
43	200	7	10000	4	1	0	4	0
44	201	7	10000	4	1	0	4	0
44	202	7	10000	4	1	0	4	0
42	203	7	10000	4	1	0	4	0
43	204	7	10000	4	1	0	4	0
41	205	7	10000	4	1	0	4	0
40	206	7	10000	4	1	0	4	0
41	207	7	10000	4	1	0	4	0
43	208	7	10000	4	1	0	4	0
41	209	7	10000	4	1	0	4	0
42	210	7	10000	4	1	0	4	0
40	211	7	10000	4	1	0	4	0
44	212	7	10000	4	1	0	4	0
44	213	7	10000	4	1	0	4	0
42	214	7	10000	4	1	0	4	0
42	215	7	10000	4	1	0	4	0
41	216	7	10000	4	1	0	4	0
40	217	7	10000	4	1	0	4	0
40	218	7	10000	4	1	0	4	0
41	219	7	10000	4	1	0	4	0
42	220	7	10000	4	1	0	4	0
43	221	7	10000	4	1	0	4	0
42	222	7	10000	4	1	0	4	0
42	223	7	10000	4	1	0	4	0
42	224	7	10000	4	1	0	4	0
41	225	7	10000	4	1	0	4	0
39	226	7	10000	4	1	0	4	0
39	227	7	10000	4	1	0	4	0
38	228	7	10000	4	1	0	4	0
36	229	7	10000	4	1	0	4	0
35	230	7	10000	4	1	0	4	0
36	231	7	10000	4	1	0	4	0
36	232	7	10000	4	1	0	4	0
35	233	7	10000	4	1	0	4	0
35	234	7	10000	4	1	0	4	0
34	235	7	10000	4	1	0	4	0
37	236	7	10000	4	1	0	4	0
38	237	7	10000	4	1	0	4	0
40	238	7	10000	4	1	0	4	0
41	239	7	10000	4	1	0	4	0
40	240	7	10000	4	1	0	4	0
42	241	7	10000	4	1	0	4	0
40	242	7	10000	4	1	0	4	0
42	243	7	10000	4	1	0	4	0
42	244	7	10000	4	1	0	4	0
42	245	7	10000	4	1	0	4	0
43	246	7	10000	4	1	0	4	0
43	247	7	10000	4	1	0	4	0
41	248	7	10000	4	1	0	4	0
40	249	7	10000	4	1	0	4	0
42	250	7	10000	4	1	0	4	0
44	251	7	10000	4	1	0	4	0
44	252	7	10000	4	1	0	4	0
46	253	7	10000	4	1	0	4	0
49	254	7	10000	4	1	0	4	0
49	255	7	10000	4	1	0	4	0
48	256	7	10000	4	1	0	4	0
46	257	7	10000	4	1	0	4	0
45	258	7	10000	4	1	0	4	0
48	259	7	10000	4	1	0	4	0
49	260	7	10000	4	1	0	4	0
49	261	7	10000	4	1	0	4	0
48	262	7	10000	4	1	0	4	0
47	263	7	10000	4	1	0	4	0
47	264	7	10000	4	1	0	4	0
46	265	7	10000	4	1	0	4	0
46	266	7	10000	4	1	0	4	0
44	267	7	10000	4	1	0	4	0
45	268	7	10000	4	1	0	4	0
43	269	7	10000	4	1	0	4	0
43	270	7	10000	4	1	0	4	0
42	271	7	10000	4	1	0	4	0
42	272	7	10000	4	1	0	4	0
41	273	7	10000	4	1	0	4	0
39	274	7	10000	4	1	0	4	0
39	275	7	10000	4	1	0	4	0
38	276	7	10000	4	1	0	4	0
37	277	7	10000	4	1	0	4	0
35	278	7	10000	4	1	0	4	0
35	279	7	10000	4	1	0	4	0
34	280	7	10000	4	1	0	4	0
37	281	7	10000	4	1	0	4	0
39	282	7	10000	4	1	0	4	0
38	283	7	10000	4	1	0	4	0
37	284	7	10000	4	1	0	4	0
37	285	7	10000	4	1	0	4	0
37	286	7	10000	4	1	0	4	0
36	287	7	10000	4	1	0	4	0
36	288	7	10000	4	1	0	4	0
36	289	7	10000	4	1	0	4	0
37	290	7	10000	4	1	0	4	0
36	291	7	10000	4	1	0	4	0
40	292	7	10000	4	1	0	4	0
44	293	7	10000	4	1	0	4	0
44	294	7	10000	4	1	0	4	0
46	295	7	10000	4	1	0	4	0
48	296	7	10000	4	1	0	4	0
45	297	7	10000	4	1	0	4	0
45	298	7	10000	4	1	0	4	0
44	299	7	10000	4	1	0	4	0
45	300	7	10000	4	1	0	4	0
47	301	7	10000	4	1	0	4	0
46	302	7	10000	4	1	0	4	0
44	303	7	10000	4	1	0	4	0
50	304	7	10000	4	1	0	4	0
52	305	7	10000	4	1	0	4	0
51	306	7	10000	4	1	0	4	0
51	307	7	10000	4	1	0	4	0
54	308	7	10000	4	1	0	4	0
53	309	7	10000	4	1	0	4	0
52	310	7	10000	4	1	0	4	0
52	311	7	10000	4	1	0	4	0
52	312	7	10000	4	1	0	4	0
52	313	7	10000	4	1	0	4	0
57	314	7	10000	4	1	0	4	0
62	315	7	10000	4	1	0	4	0
62	316	7	10000	4	1	0	4	0
64	317	7	10000	4	1	0	4	0
63	318	7	10000	4	1	0	4	0
63	319	7	10000	4	1	0	4	0
62	320	7	10000	4	1	0	4	0
61	321	7	10000	4	1	0	4	0
59	322	7	10000	4	1	0	4	0
56	323	7	10000	4	1	0	4	0
56	324	7	10000	4	1	0	4	0
57	325	7	10000	4	1	0	4	0
57	326	7	10000	4	1	0	4	0
56	327	7	10000	4	1	0	4	0
55	328	7	10000	4	1	0	4	0
55	329	7	10000	4	1	0	4	0
57	330	7	10000	4	1	0	4	0
57	331	7	10000	4	1	0	4	0
59	332	7	10000	4	1	0	4	0
57	333	7	10000	4	1	0	4	0
56	334	7	10000	4	1	0	4	0
55	335	7	10000	4	1	0	4	0
57	336	7	10000	4	1	0	4	0
61	337	7	10000	4	1	0	4	0
65	338	7	10000	4	1	0	4	0
64	339	7	10000	4	1	0	4	0
66	340	7	10000	4	1	0	4	0
66	341	7	10000	4	1	0	4	0
62	342	7	10000	4	1	0	4	0
59	343	7	10000	4	1	0	4	0
58	344	7	10000	4	1	0	4	0
57	345	7	10000	4	1	0	4	0
54	346	7	10000	4	1	0	4	0
53	347	7	10000	4	1	0	4	0
51	348	7	10000	4	1	0	4	0
49	349	7	10000	4	1	0	4	0
50	350	7	10000	4	1	0	4	0
56	351	7	10000	4	1	0	4	0
59	352	7	10000	4	1	0	4	0
59	353	7	10000	4	1	0	4	0
65	354	7	10000	4	1	0	4	0
71	355	7	10000	4	1	0	4	0
68	356	7	10000	4	1	0	4	0
67	357	7	10000	4	1	0	4	0
66	358	7	10000	4	1	0	4	0
64	359	7	10000	4	1	0	4	0
63	360	7	10000	4	1	0	4	0
64	361	7	10000	4	1	0	4	0
60	362	7	10000	4	1	0	4	0
57	363	7	10000	4	1	0	4	0
55	364	7	10000	4	1	0	4	0
55	365	7	10000	4	1	0	4	0
57	366	7	10000	4	1	0	4	0
56	367	7	10000	4	1	0	4	0
57	368	7	10000	4	1	0	4	0
55	369	7	10000	4	1	0	4	0
53	370	7	10000	4	1	0	4	0
54	371	7	10000	4	1	0	4	0
56	372	7	10000	4	1	0	4	0
56	373	7	10000	4	1	0	4	0
55	374	7	10000	4	1	0	4	0
57	375	7	10000	4	1	0	4	0
57	376	7	10000	4	1	0	4	0
59	377	7	10000	4	1	0	4	0
62	378	7	10000	4	1	0	4	0
63	379	7	10000	4	1	0	4	0
61	380	7	10000	4	1	0	4	0
62	381	7	10000	4	1	0	4	0
60	382	7	10000	4	1	0	4	0
58	383	7	10000	4	1	0	4	0
59	384	7	10000	4	1	0	4	0
58	385	7	10000	4	1	0	4	0
59	386	7	10000	4	1	0	4	0
56	387	7	10000	4	1	0	4	0
56	388	7	10000	4	1	0	4	0
56	389	7	10000	4	1	0	4	0
53	390	7	10000	4	1	0	4	0
50	391	7	10000	4	1	0	4	0
53	392	7	10000	4	1	0	4	0
52	393	7	10000	4	1	0	4	0
50	394	7	10000	4	1	0	4	0
49	395	7	10000	4	1	0	4	0
48	396	7	10000	4	1	0	4	0
49	397	7	10000	4	1	0	4	0
50	398	7	10000	4	1	0	4	0
50	399	7	10000	4	1	0	4	0
50	400	7	10000	4	1	0	4	0
53	401	7	10000	4	1	0	4	0
50	402	7	10000	4	1	0	4	0
48	403	7	10000	4	1	0	4	0
49	404	7	10000	4	1	0	4	0
50	405	7	10000	4	1	0	4	0
49	406	7	10000	4	1	0	4	0
48	407	7	10000	4	1	0	4	0
46	408	7	10000	4	1	0	4	0
47	409	7	10000	4	1	0	4	0
46	410	7	10000	4	1	0	4	0
46	411	7	10000	4	1	0	4	0
47	412	7	10000	4	1	0	4	0
48	413	7	10000	4	1	0	4	0
48	414	7	10000	4	1	0	4	0
46	415	7	10000	4	1	0	4	0
45	416	7	10000	4	1	0	4	0
44	417	7	10000	4	1	0	4	0
42	418	7	10000	4	1	0	4	0
41	419	7	10000	4	1	0	4	0
40	420	7	10000	4	1	0	4	0
43	421	7	10000	4	1	0	4	0
43	422	7	10000	4	1	0	4	0
41	423	7	10000	4	1	0	4	0
41	424	7	10000	4	1	0	4	0
43	425	7	10000	4	1	0	4	0
42	426	7	10000	4	1	0	4	0
42	427	7	10000	4	1	0	4	0
45	428	7	10000	4	1	0	4	0
46	429	7	10000	4	1	0	4	0
45	430	7	10000	4	1	0	4	0
45	431	7	10000	4	1	0	4	0
49	432	7	10000	4	1	0	4	0
49	433	7	10000	4	1	0	4	0
46	434	7	10000	4	1	0	4	0
44	435	7	10000	4	1	0	4	0
42	436	7	10000	4	1	0	4	0
40	437	7	10000	4	1	0	4	0
39	438	7	10000	4	1	0	4	0
38	439	7	10000	4	1	0	4	0
37	440	7	10000	4	1	0	4	0
38	441	7	10000	4	1	0	4	0
39	442	7	10000	4	1	0	4	0
42	443	7	10000	4	1	0	4	0
43	444	7	10000	4	1	0	4	0
43	445	7	10000	4	1	0	4	0
42	446	7	10000	4	1	0	4	0
44	447	7	10000	4	1	0	4	0
44	448	7	10000	4	1	0	4	0
52	449	7	10000	4	1	0	4	0
61	450	7	10000	4	1	0	4	0
62	451	7	10000	4	1	0	4	0
68	452	7	10000	4	1	0	4	0
69	453	7	10000	4	1	0	4	0
68	454	7	10000	4	1	0	4	0
66	455	7	10000	4	1	0	4	0
63	456	7	10000	4	1	0	4	0
62	457	7	10000	4	1	0	4	0
60	458	7	10000	4	1	0	4	0
58	459	7	10000	4	1	0	4	0
57	460	7	10000	4	1	0	4	0
58	461	7	10000	4	1	0	4	0
56	462	7	10000	4	1	0	4	0
59	463	7	10000	4	1	0	4	0
61	464	7	10000	4	1	0	4	0
58	465	7	10000	4	1	0	4	0
57	466	7	10000	4	1	0	4	0
55	467	7	10000	4	1	0	4	0
53	468	7	10000	4	1	0	4	0
54	469	7	10000	4	1	0	4	0
53	470	7	10000	4	1	0	4	0
54	471	7	10000	4	1	0	4	0
56	472	7	10000	4	1	0	4	0
56	473	7	10000	4	1	0	4	0
58	474	7	10000	4	1	0	4	0
57	475	7	10000	4	1	0	4	0
61	476	7	10000	4	1	0	4	0
63	477	7	10000	4	1	0	4	0
62	478	7	10000	4	1	0	4	0
67	479	7	10000	4	1	0	4	0
71	480	7	10000	4	1	0	4	0
71	481	7	10000	4	1	0	4	0
67	482	7	10000	4	1	0	4	0
67	483	7	10000	4	1	0	4	0
67	484	7	10000	4	1	0	4	0
67	485	7	10000	4	1	0	4	0
67	486	7	10000	4	1	0	4	0
68	487	7	10000	4	1	0	4	0
68	488	7	10000	4	1	0	4	0
69	489	7	10000	4	1	0	4	0
75	490	7	10000	4	1	0	4	0
77	491	7	10000	4	1	0	4	0
77	492	7	10000	4	1	0	4	0
78	493	7	10000	4	1	0	4	0
75	494	7	10000	4	1	0	4	0
73	495	7	10000	4	1	0	4	0
70	496	7	10000	4	1	0	4	0
68	497	7	10000	4	1	0	4	0
68	498	7	10000	4	1	0	4	0
66	499	7	10000	4	1	0	4	0
65	500	7	10000	4	1	0	4	0
72	501	7	10000	4	1	0	4	1
71	502	7	10000	4	1	0	4	1
73	503	7	10000	4	1	0	4	1
72	504	7	10000	4	1	0	4	1
75	505	7	10000	4	1	0	4	1
75	506	7	10000	4	1	0	4	1
75	507	7	10000	4	1	0	4	1
77	508	7	10000	4	1	0	4	1
74	509	7	10000	4	1	0	4	1
72	510	7	10000	4	1	0	4	1
70	511	7	10000	4	1	0	4	1
70	512	7	10000	4	1	0	4	1
68	513	7	10000	4	1	0	4	1
68	514	7	10000	4	1	0	4	1
71	515	7	10000	4	1	0	4	1
75	516	7	10000	4	1	0	4	1
76	517	7	10000	4	1	0	4	1
75	518	7	10000	4	1	0	4	1
75	519	7	10000	4	1	0	4	1
75	520	7	10000	4	1	0	4	1
76	521	7	10000	4	1	0	4	1
73	522	7	10000	4	1	0	4	1
75	523	7	10000	4	1	0	4	1
76	524	7	10000	4	1	0	4	1
74	525	7	10000	4	1	0	4	1
78	526	7	10000	4	1	0	4	1
84	527	7	10000	4	1	0	4	1
85	528	7	10000	4	1	0	4	1
84	529	7	10000	4	1	0	4	1
87	530	7	10000	4	1	0	4	1
85	531	7	10000	4	1	0	4	1
82	532	7	10000	4	1	0	4	1
80	533	7	10000	4	1	0	4	1
79	534	7	10000	4	1	0	4	1
78	535	7	10000	4	1	0	4	1
80	536	7	10000	4	1	0	4	1
79	537	7	10000	4	1	0	4	1
78	538	7	10000	4	1	0	4	1
75	539	7	10000	4	1	0	4	1
75	540	7	10000	4	1	0	4	1
78	541	7	10000	4	1	0	4	1
79	542	7	10000	4	1	0	4	1
82	543	7	10000	4	1	0	4	1
81	544	7	10000	4	1	0	4	1
83	545	7	10000	4	1	0	4	1
86	546	7	10000	4	1	0	4	1
84	547	7	10000	4	1	0	4	1
83	548	7	10000	4	1	0	4	1
84	549	7	10000	4	1	0	4	1
87	550	7	10000	4	1	0	4	1
88	551	7	10000	4	1	0	4	0
89	552	7	10000	4	1	0	4	0
87	553	7	10000	4	1	0	4	0
86	554	7	10000	4	1	0	4	0
84	555	7	10000	4	1	0	4	0
81	556	7	10000	4	1	0	4	0
82	557	7	10000	4	1	0	4	0
80	558	7	10000	4	1	0	4	0
79	559	7	10000	4	1	0	4	0
80	560	7	10000	4	1	0	4	0
78	561	7	10000	4	1	0	4	0
76	562	7	10000	4	1	0	4	0
77	563	7	10000	4	1	0	4	0
75	564	7	10000	4	1	0	4	0
75	565	7	10000	4	1	0	4	0
72	566	7	10000	4	1	0	4	0
70	567	7	10000	4	1	0	4	0
68	568	7	10000	4	1	0	4	0
65	569	7	10000	4	1	0	4	0
66	570	7	10000	4	1	0	4	0
64	571	7	10000	4	1	0	4	0
64	572	7	10000	4	1	0	4	0
63	573	7	10000	4	1	0	4	0
64	574	7	10000	4	1	0	4	0
67	575	7	10000	4	1	0	4	0
69	576	7	10000	4	1	0	4	0
69	577	7	10000	4	1	0	4	0
70	578	7	10000	4	1	0	4	0
68	579	7	10000	4	1	0	4	0
71	580	7	10000	4	1	0	4	0
74	581	7	10000	4	1	0	4	0
76	582	7	10000	4	1	0	4	0
74	583	7	10000	4	1	0	4	0
72	584	7	10000	4	1	0	4	0
69	585	7	10000	4	1	0	4	0
70	586	7	10000	4	1	0	4	0
77	587	7	10000	4	1	0	4	0
82	588	7	10000	4	1	0	4	0
92	589	7	10000	4	1	0	4	0
121	590	7	10000	4	1	0	4	0
147	591	7	10000	4	1	0	4	0
147	592	7	10000	4	1	0	4	0
152	593	7	10000	4	1	0	4	0
160	594	7	10000	4	1	0	4	0
175	595	7	10000	4	1	0	4	0
183	596	7	10000	4	1	0	4	0
186	597	7	10000	4	1	0	4	0
187	598	7	10000	4	1	0	4	0
209	599	7	10000	4	1	0	4	0
219	600	7	10000	4	1	0	4	0
269	601	7	10000	4	1	0	4	0
368	602	7	10000	4	1	0	4	0
460	603	7	10000	4	1	0	4	0
469	604	7	10000	4	1	0	4	0
548	605	7	10000	4	1	0	4	0
650	606	7	10000	4	1	0	4	0
658	607	7	10000	4	1	0	4	0
682	608	7	10000	4	1	0	4	0
677	609	7	10000	4	1	0	4	0
679	610	7	10000	4	1	0	4	0
670	611	7	10000	4	1	0	4	0
703	612	7	10000	4	1	0	4	0
699	613	7	10000	4	1	0	4	0
743	614	7	10000	4	1	0	4	0
731	615	7	10000	4	1	0	4	0
720	616	7	10000	4	1	0	4	0
728	617	7	10000	4	1	0	4	0
705	618	7	10000	4	1	0	4	0
711	619	7	10000	4	1	0	4	0
744	620	7	10000	4	1	0	4	0
730	621	7	10000	4	1	0	4	0
731	622	7	10000	4	1	0	4	0
735	623	7	10000	4	1	0	4	0
730	624	7	10000	4	1	0	4	0
717	625	7	10000	4	1	0	4	0
696	626	7	10000	4	1	0	4	0
668	627	7	10000	4	1	0	4	0
650	628	7	10000	4	1	0	4	0
634	629	7	10000	4	1	0	4	0
619	630	7	10000	4	1	0	4	0
605	631	7	10000	4	1	0	4	0
595	632	7	10000	4	1	0	4	0
585	633	7	10000	4	1	0	4	0
567	634	7	10000	4	1	0	4	0
550	635	7	10000	4	1	0	4	0
527	636	7	10000	4	1	0	4	0
508	637	7	10000	4	1	0	4	0
497	638	7	10000	4	1	0	4	0
477	639	7	10000	4	1	0	4	0
456	640	7	10000	4	1	0	4	0
441	641	7	10000	4	1	0	4	0
424	642	7	10000	4	1	0	4	0
404	643	7	10000	4	1	0	4	0
389	644	7	10000	4	1	0	4	0
373	645	7	10000	4	1	0	4	0
358	646	7	10000	4	1	0	4	0
346	647	7	10000	4	1	0	4	0
334	648	7	10000	4	1	0	4	0
319	649	7	10000	4	1	0	4	0
304	650	7	10000	4	1	0	4	0
296	651	7	10000	4	1	0	4	0
292	652	7	10000	4	1	0	4	0
286	653	7	10000	4	1	0	4	0
280	654	7	10000	4	1	0	4	0
279	655	7	10000	4	1	0	4	0
281	656	7	10000	4	1	0	4	0
280	657	7	10000	4	1	0	4	0
280	658	7	10000	4	1	0	4	0
281	659	7	10000	4	1	0	4	0
282	660	7	10000	4	1	0	4	0
280	661	7	10000	4	1	0	4	0
273	662	7	10000	4	1	0	4	0
268	663	7	10000	4	1	0	4	0
265	664	7	10000	4	1	0	4	0
262	665	7	10000	4	1	0	4	0
257	666	7	10000	4	1	0	4	0
250	667	7	10000	4	1	0	4	0
246	668	7	10000	4	1	0	4	0
238	669	7	10000	4	1	0	4	0
231	670	7	10000	4	1	0	4	0
222	671	7	10000	4	1	0	4	0
213	672	7	10000	4	1	0	4	0
205	673	7	10000	4	1	0	4	0
199	674	7	10000	4	1	0	4	0
194	675	7	10000	4	1	0	4	0
188	676	7	10000	4	1	0	4	0
180	677	7	10000	4	1	0	4	0
174	678	7	10000	4	1	0	4	0
167	679	7	10000	4	1	0	4	0
164	680	7	10000	4	1	0	4	0
161	681	7	10000	4	1	0	4	0
154	682	7	10000	4	1	0	4	0
155	683	7	10000	4	1	0	4	0
161	684	7	10000	4	1	0	4	0
161	685	7	10000	4	1	0	4	0
159	686	7	10000	4	1	0	4	0
156	687	7	10000	4	1	0	4	0
150	688	7	10000	4	1	0	4	0
146	689	7	10000	4	1	0	4	0
141	690	7	10000	4	1	0	4	0
140	691	7	10000	4	1	0	4	0
139	692	7	10000	4	1	0	4	0
145	693	7	10000	4	1	0	4	0
150	694	7	10000	4	1	0	4	0
154	695	7	10000	4	1	0	4	0
154	696	7	10000	4	1	0	4	0
154	697	7	10000	4	1	0	4	0
159	698	7	10000	4	1	0	4	0
159	699	7	10000	4	1	0	4	0
157	700	7	10000	4	1	0	4	0
159	701	7	10000	4	1	0	4	0
158	702	7	10000	4	1	0	4	0
157	703	7	10000	4	1	0	4	0
154	704	7	10000	4	1	0	4	0
160	705	7	10000	4	1	0	4	0
166	706	7	10000	4	1	0	4	0
169	707	7	10000	4	1	0	4	0
170	708	7	10000	4	1	0	4	0
167	709	7	10000	4	1	0	4	0
163	710	7	10000	4	1	0	4	0
157	711	7	10000	4	1	0	4	0
153	712	7	10000	4	1	0	4	0
148	713	7	10000	4	1	0	4	0
140	714	7	10000	4	1	0	4	0
137	715	7	10000	4	1	0	4	0
133	716	7	10000	4	1	0	4	0
130	717	7	10000	4	1	0	4	0
129	718	7	10000	4	1	0	4	0
125	719	7	10000	4	1	0	4	0
123	720	7	10000	4	1	0	4	0
122	721	7	10000	4	1	0	4	0
120	722	7	10000	4	1	0	4	0
116	723	7	10000	4	1	0	4	0
112	724	7	10000	4	1	0	4	0
108	725	7	10000	4	1	0	4	0
110	726	7	10000	4	1	0	4	0
110	727	7	10000	4	1	0	4	0
117	728	7	10000	4	1	0	4	0
121	729	7	10000	4	1	0	4	0
122	730	7	10000	4	1	0	4	0
119	731	7	10000	4	1	0	4	0
120	732	7	10000	4	1	0	4	0
120	733	7	10000	4	1	0	4	0
122	734	7	10000	4	1	0	4	0
126	735	7	10000	4	1	0	4	0
124	736	7	10000	4	1	0	4	0
119	737	7	10000	4	1	0	4	0
115	738	7	10000	4	1	0	4	0
114	739	7	10000	4	1	0	4	0
110	740	7	10000	4	1	0	4	0
106	741	7	10000	4	1	0	4	0
101	742	7	10000	4	1	0	4	0
97	743	7	10000	4	1	0	4	0
96	744	7	10000	4	1	0	4	0
93	745	7	10000	4	1	0	4	0
92	746	7	10000	4	1	0	4	0
91	747	7	10000	4	1	0	4	0
89	748	7	10000	4	1	0	4	0
88	749	7	10000	4	1	0	4	0
93	750	7	10000	4	1	0	4	0
95	751	7	10000	4	1	0	4	0
93	752	7	10000	4	1	0	4	0
91	753	7	10000	4	1	0	4	0
90	754	7	10000	4	1	0	4	0
88	755	7	10000	4	1	0	4	0
87	756	7	10000	4	1	0	4	0
91	757	7	10000	4	1	0	4	0
97	758	7	10000	4	1	0	4	0
99	759	7	10000	4	1	0	4	0
112	760	7	10000	4	1	0	4	0
115	761	7	10000	4	1	0	4	0
122	762	7	10000	4	1	0	4	0
129	763	7	10000	4	1	0	4	0
131	764	7	10000	4	1	0	4	0
128	765	7	10000	4	1	0	4	0
124	766	7	10000	4	1	0	4	0
120	767	7	10000	4	1	0	4	0
115	768	7	10000	4	1	0	4	0
110	769	7	10000	4	1	0	4	0
109	770	7	10000	4	1	0	4	0
107	771	7	10000	4	1	0	4	0
109	772	7	10000	4	1	0	4	0
112	773	7	10000	4	1	0	4	0
111	774	7	10000	4	1	0	4	0
116	775	7	10000	4	1	0	4	0
112	776	7	10000	4	1	0	4	0
109	777	7	10000	4	1	0	4	0
106	778	7	10000	4	1	0	4	0
105	779	7	10000	4	1	0	4	0
104	780	7	10000	4	1	0	4	0
102	781	7	10000	4	1	0	4	0
98	782	7	10000	4	1	0	4	0
96	783	7	10000	4	1	0	4	0
101	784	7	10000	4	1	0	4	0
108	785	7	10000	4	1	0	4	0
105	786	7	10000	4	1	0	4	0
111	787	7	10000	4	1	0	4	0
126	788	7	10000	4	1	0	4	0
141	789	7	10000	4	1	0	4	0
164	790	7	10000	4	1	0	4	0
208	791	7	10000	4	1	0	4	0
236	792	7	10000	4	1	0	4	0
227	793	7	10000	4	1	0	4	0
220	794	7	10000	4	1	0	4	0
211	795	7	10000	4	1	0	4	0
208	796	7	10000	4	1	0	4	0
204	797	7	10000	4	1	0	4	0
199	798	7	10000	4	1	0	4	0
193	799	7	10000	4	1	0	4	0
189	800	7	10000	4	1	0	4	0
188	801	7	10000	4	1	0	4	0
225	802	7	10000	4	1	0	4	0
262	803	7	10000	4	1	0	4	0
267	804	7	10000	4	1	0	4	0
297	805	7	10000	4	1	0	4	0
296	806	7	10000	4	1	0	4	0
321	807	7	10000	4	1	0	4	0
367	808	7	10000	4	1	0	4	0
371	809	7	10000	4	1	0	4	0
359	810	7	10000	4	1	0	4	0
367	811	7	10000	4	1	0	4	0
402	812	7	10000	4	1	0	4	0
421	813	7	10000	4	1	0	4	0
426	814	7	10000	4	1	0	4	0
436	815	7	10000	4	1	0	4	0
442	816	7	10000	4	1	0	4	0
434	817	7	10000	4	1	0	4	0
416	818	7	10000	4	1	0	4	0
401	819	7	10000	4	1	0	4	0
416	820	7	10000	4	1	0	4	0
413	821	7	10000	4	1	0	4	0
466	822	7	10000	4	1	0	4	0
572	823	7	10000	4	1	0	4	0
613	824	7	10000	4	1	0	4	0
624	825	7	10000	4	1	0	4	0
648	826	7	10000	4	1	0	4	0
641	827	7	10000	4	1	0	4	0
652	828	7	10000	4	1	0	4	0
633	829	7	10000	4	1	0	4	0
637	830	7	10000	4	1	0	4	0
649	831	7	10000	4	1	0	4	0
663	832	7	10000	4	1	0	4	0
665	833	7	10000	4	1	0	4	0
672	834	7	10000	4	1	0	4	0
676	835	7	10000	4	1	0	4	0
646	836	7	10000	4	1	0	4	0
623	837	7	10000	4	1	0	4	0
601	838	7	10000	4	1	0	4	0
596	839	7	10000	4	1	0	4	0
585	840	7	10000	4	1	0	4	0
587	841	7	10000	4	1	0	4	0
563	842	7	10000	4	1	0	4	0
541	843	7	10000	4	1	0	4	0
518	844	7	10000	4	1	0	4	0
498	845	7	10000	4	1	0	4	0
477	846	7	10000	4	1	0	4	0
462	847	7	10000	4	1	0	4	0
450	848	7	10000	4	1	0	4	0
454	849	7	10000	4	1	0	4	0
464	850	7	10000	4	1	0	4	0
461	851	7	10000	4	1	0	4	0
489	852	7	10000	4	1	0	4	0
484	853	7	10000	4	1	0	4	0
464	854	7	10000	4	1	0	4	0
448	855	7	10000	4	1	0	4	0
430	856	7	10000	4	1	0	4	0
413	857	7	10000	4	1	0	4	0
400	858	7	10000	4	1	0	4	0
390	859	7	10000	4	1	0	4	0
379	860	7	10000	4	1	0	4	0
391	861	7	10000	4	1	0	4	0
381	862	7	10000	4	1	0	4	0
389	863	7	10000	4	1	0	4	0
401	864	7	10000	4	1	0	4	0
428	865	7	10000	4	1	0	4	0
449	866	7	10000	4	1	0	4	0
443	867	7	10000	4	1	0	4	0
454	868	7	10000	4	1	0	4	0
474	869	7	10000	4	1	0	4	0
466	870	7	10000	4	1	0	4	0
465	871	7	10000	4	1	0	4	0
502	872	7	10000	4	1	0	4	0
527	873	7	10000	4	1	0	4	0
517	874	7	10000	4	1	0	4	0
546	875	7	10000	4	1	0	4	0
601	876	7	10000	4	1	0	4	0
644	877	7	10000	4	1	0	4	0
656	878	7	10000	4	1	0	4	0
649	879	7	10000	4	1	0	4	0
630	880	7	10000	4	1	0	4	0
603	881	7	10000	4	1	0	4	0
574	882	7	10000	4	1	0	4	0
550	883	7	10000	4	1	0	4	0
529	884	7	10000	4	1	0	4	0
522	885	7	10000	4	1	0	4	0
523	886	7	10000	4	1	0	4	0
511	887	7	10000	4	1	0	4	0
489	888	7	10000	4	1	0	4	0
476	889	7	10000	4	1	0	4	0
473	890	7	10000	4	1	0	4	0
460	891	7	10000	4	1	0	4	0
448	892	7	10000	4	1	0	4	0
441	893	7	10000	4	1	0	4	0
433	894	7	10000	4	1	0	4	0
428	895	7	10000	4	1	0	4	0
419	896	7	10000	4	1	0	4	0
403	897	7	10000	4	1	0	4	0
387	898	7	10000	4	1	0	4	0
373	899	7	10000	4	1	0	4	0
367	900	7	10000	4	1	0	4	0
355	901	7	10000	4	1	0	4	0
340	902	7	10000	4	1	0	4	0
341	903	7	10000	4	1	0	4	0
336	904	7	10000	4	1	0	4	0
341	905	7	10000	4	1	0	4	0
362	906	7	10000	4	1	0	4	0
358	907	7	10000	4	1	0	4	0
342	908	7	10000	4	1	0	4	0
329	909	7	10000	4	1	0	4	0
322	910	7	10000	4	1	0	4	0
310	911	7	10000	4	1	0	4	0
301	912	7	10000	4	1	0	4	0
293	913	7	10000	4	1	0	4	0
281	914	7	10000	4	1	0	4	0
274	915	7	10000	4	1	0	4	0
272	916	7	10000	4	1	0	4	0
277	917	7	10000	4	1	0	4	0
275	918	7	10000	4	1	0	4	0
271	919	7	10000	4	1	0	4	0
265	920	7	10000	4	1	0	4	0
255	921	7	10000	4	1	0	4	0
252	922	7	10000	4	1	0	4	0
247	923	7	10000	4	1	0	4	0
243	924	7	10000	4	1	0	4	0
239	925	7	10000	4	1	0	4	0
235	926	7	10000	4	1	0	4	0
227	927	7	10000	4	1	0	4	0
230	928	7	10000	4	1	0	4	0
240	929	7	10000	4	1	0	4	0
236	930	7	10000	4	1	0	4	0
247	931	7	10000	4	1	0	4	0
274	932	7	10000	4	1	0	4	0
300	933	7	10000	4	1	0	4	0
292	934	7	10000	4	1	0	4	0
279	935	7	10000	4	1	0	4	0
271	936	7	10000	4	1	0	4	0
262	937	7	10000	4	1	0	4	0
254	938	7	10000	4	1	0	4	0
255	939	7	10000	4	1	0	4	0
268	940	7	10000	4	1	0	4	0
262	941	7	10000	4	1	0	4	0
265	942	7	10000	4	1	0	4	0
272	943	7	10000	4	1	0	4	0
275	944	7	10000	4	1	0	4	0
280	945	7	10000	4	1	0	4	0
296	946	7	10000	4	1	0	4	0
291	947	7	10000	4	1	0	4	0
300	948	7	10000	4	1	0	4	0
300	949	7	10000	4	1	0	4	0
289	950	7	10000	4	1	0	4	0
282	951	7	10000	4	1	0	4	0
286	952	7	10000	4	1	0	4	0
293	953	7	10000	4	1	0	4	0
296	954	7	10000	4	1	0	4	0
300	955	7	10000	4	1	0	4	0
299	956	7	10000	4	1	0	4	0
289	957	7	10000	4	1	0	4	0
298	958	7	10000	4	1	0	4	0
314	959	7	10000	4	1	0	4	0
312	960	7	10000	4	1	0	4	0
317	961	7	10000	4	1	0	4	0
333	962	7	10000	4	1	0	4	0
344	963	7	10000	4	1	0	4	0
365	964	7	10000	4	1	0	4	0
360	965	7	10000	4	1	0	4	0
353	966	7	10000	4	1	0	4	0
339	967	7	10000	4	1	0	4	0
333	968	7	10000	4	1	0	4	0
327	969	7	10000	4	1	0	4	0
330	970	7	10000	4	1	0	4	0
336	971	7	10000	4	1	0	4	0
330	972	7	10000	4	1	0	4	0
324	973	7	10000	4	1	0	4	0
331	974	7	10000	4	1	0	4	0
330	975	7	10000	4	1	0	4	0
318	976	7	10000	4	1	0	4	0
311	977	7	10000	4	1	0	4	0
310	978	7	10000	4	1	0	4	0
306	979	7	10000	4	1	0	4	0
318	980	7	10000	4	1	0	4	0
318	981	7	10000	4	1	0	4	0
304	982	7	10000	4	1	0	4	0
293	983	7	10000	4	1	0	4	0
288	984	7	10000	4	1	0	4	0
278	985	7	10000	4	1	0	4	0
268	986	7	10000	4	1	0	4	0
261	987	7	10000	4	1	0	4	0
254	988	7	10000	4	1	0	4	0
247	989	7	10000	4	1	0	4	0
243	990	7	10000	4	1	0	4	0
234	991	7	10000	4	1	0	4	0
228	992	7	10000	4	1	0	4	0
223	993	7	10000	4	1	0	4	0
217	994	7	10000	4	1	0	4	0
217	995	7	10000	4	1	0	4	0
228	996	7	10000	4	1	0	4	0
233	997	7	10000	4	1	0	4	0
233	998	7	10000	4	1	0	4	0
246	999	7	10000	4	1	0	4	0
260	1000	7	10000	4	1	0	4	0
20	1	0	10000	5	1	0	5	0
18	2	0	10000	5	1	0	5	0
16	3	0	10000	5	1	0	5	0
16	4	0	10000	5	1	0	5	0
16	5	0	10000	5	1	0	5	0
18	6	0	10000	5	1	0	5	0
18	7	0	10000	5	1	0	5	0
17	8	0	10000	5	1	0	5	0
18	9	0	10000	5	1	0	5	0
18	10	0	10000	5	1	0	5	0
18	11	0	10000	5	1	0	5	0
19	12	0	10000	5	1	0	5	0
20	13	0	10000	5	1	0	5	0
19	14	0	10000	5	1	0	5	0
18	15	0	10000	5	1	0	5	0
17	16	0	10000	5	1	0	5	0
17	17	0	10000	5	1	0	5	0
16	18	0	10000	5	1	0	5	0
16	19	0	10000	5	1	0	5	0
15	20	0	10000	5	1	0	5	0
16	20	0	10000	5	1	0	5	0
15	21	0	10000	5	1	0	5	0
14	23	0	10000	5	1	0	5	0
14	24	0	10000	5	1	0	5	0
14	25	0	10000	5	1	0	5	0
14	26	0	10000	5	1	0	5	0
15	27	0	10000	5	1	0	5	0
14	28	0	10000	5	1	0	5	0
15	29	0	10000	5	1	0	5	0
13	30	0	10000	5	1	0	5	0
13	30	0	10000	5	1	0	5	0
14	31	0	10000	5	1	0	5	0
15	33	0	10000	5	1	0	5	0
14	34	0	10000	5	1	0	5	0
15	35	0	10000	5	1	0	5	0
16	36	0	10000	5	1	0	5	0
15	37	0	10000	5	1	0	5	0
15	38	0	10000	5	1	0	5	0
15	39	0	10000	5	1	0	5	0
17	40	0	10000	5	1	0	5	0
18	40	0	10000	5	1	0	5	0
19	41	0	10000	5	1	0	5	0
16	43	0	10000	5	1	0	5	0
16	44	0	10000	5	1	0	5	0
16	45	0	10000	5	1	0	5	0
16	46	0	10000	5	1	0	5	0
16	47	0	10000	5	1	0	5	0
16	48	0	10000	5	1	0	5	0
16	49	0	10000	5	1	0	5	0
14	50	0	10000	5	1	0	5	0
13	50	0	10000	5	1	0	5	0
14	51	0	10000	5	1	0	5	0
16	53	0	10000	5	1	0	5	0
16	54	0	10000	5	1	0	5	0
16	55	0	10000	5	1	0	5	0
17	56	0	10000	5	1	0	5	0
17	57	0	10000	5	1	0	5	0
17	58	0	10000	5	1	0	5	0
16	59	0	10000	5	1	0	5	0
17	60	0	10000	5	1	0	5	0
17	60	0	10000	5	1	0	5	0
15	61	0	10000	5	1	0	5	0
15	63	0	10000	5	1	0	5	0
16	64	0	10000	5	1	0	5	0
15	65	0	10000	5	1	0	5	0
15	66	0	10000	5	1	0	5	0
15	67	0	10000	5	1	0	5	0
15	68	0	10000	5	1	0	5	0
17	69	0	10000	5	1	0	5	0
18	70	0	10000	5	1	0	5	0
18	70	0	10000	5	1	0	5	0
18	71	0	10000	5	1	0	5	0
19	73	0	10000	5	1	0	5	0
19	74	0	10000	5	1	0	5	0
18	75	0	10000	5	1	0	5	0
18	76	0	10000	5	1	0	5	0
18	77	0	10000	5	1	0	5	0
18	78	0	10000	5	1	0	5	0
17	79	0	10000	5	1	0	5	0
17	80	0	10000	5	1	0	5	0
18	80	0	10000	5	1	0	5	0
17	81	0	10000	5	1	0	5	0
16	83	0	10000	5	1	0	5	0
15	84	0	10000	5	1	0	5	0
15	85	0	10000	5	1	0	5	0
16	86	0	10000	5	1	0	5	0
14	87	0	10000	5	1	0	5	0
15	88	0	10000	5	1	0	5	0
15	89	0	10000	5	1	0	5	0
13	90	0	10000	5	1	0	5	0
12	90	0	10000	5	1	0	5	0
13	91	0	10000	5	1	0	5	0
15	93	0	10000	5	1	0	5	0
15	94	0	10000	5	1	0	5	0
14	95	0	10000	5	1	0	5	0
15	96	0	10000	5	1	0	5	0
15	97	0	10000	5	1	0	5	0
16	98	0	10000	5	1	0	5	0
18	99	0	10000	5	1	0	5	0
20	100	0	10000	5	1	0	5	0
21	100	0	10000	5	1	0	5	0
20	101	0	10000	5	1	0	5	0
18	103	0	10000	5	1	0	5	0
18	104	0	10000	5	1	0	5	0
18	105	0	10000	5	1	0	5	0
17	106	0	10000	5	1	0	5	0
17	107	0	10000	5	1	0	5	0
16	108	0	10000	5	1	0	5	0
16	109	0	10000	5	1	0	5	0
15	110	0	10000	5	1	0	5	0
14	110	0	10000	5	1	0	5	0
14	111	0	10000	5	1	0	5	0
16	113	0	10000	5	1	0	5	0
17	114	0	10000	5	1	0	5	0
18	115	0	10000	5	1	0	5	0
18	116	0	10000	5	1	0	5	0
18	117	0	10000	5	1	0	5	0
18	118	0	10000	5	1	0	5	0
17	119	0	10000	5	1	0	5	0
18	120	0	10000	5	1	0	5	0
18	120	0	10000	5	1	0	5	0
17	121	0	10000	5	1	0	5	0
16	123	0	10000	5	1	0	5	0
17	124	0	10000	5	1	0	5	0
17	125	0	10000	5	1	0	5	0
16	126	0	10000	5	1	0	5	0
17	127	0	10000	5	1	0	5	0
18	128	0	10000	5	1	0	5	0
18	129	0	10000	5	1	0	5	0
20	130	0	10000	5	1	0	5	0
18	130	0	10000	5	1	0	5	0
19	131	0	10000	5	1	0	5	0
20	133	0	10000	5	1	0	5	0
20	134	0	10000	5	1	0	5	0
22	135	0	10000	5	1	0	5	0
23	136	0	10000	5	1	0	5	0
23	137	0	10000	5	1	0	5	0
22	138	0	10000	5	1	0	5	0
22	139	0	10000	5	1	0	5	0
22	140	0	10000	5	1	0	5	0
23	140	0	10000	5	1	0	5	0
22	141	0	10000	5	1	0	5	0
20	143	0	10000	5	1	0	5	0
22	144	0	10000	5	1	0	5	0
25	145	0	10000	5	1	0	5	0
27	146	0	10000	5	1	0	5	0
27	147	0	10000	5	1	0	5	0
26	148	0	10000	5	1	0	5	0
26	149	0	10000	5	1	0	5	0
26	150	0	10000	5	1	0	5	0
26	150	0	10000	5	1	0	5	0
27	151	0	10000	5	1	0	5	0
28	153	0	10000	5	1	0	5	0
29	154	0	10000	5	1	0	5	0
31	155	0	10000	5	1	0	5	0
32	156	0	10000	5	1	0	5	0
32	157	0	10000	5	1	0	5	0
32	158	0	10000	5	1	0	5	0
31	159	0	10000	5	1	0	5	0
30	160	0	10000	5	1	0	5	0
30	160	0	10000	5	1	0	5	0
27	161	0	10000	5	1	0	5	0
26	163	0	10000	5	1	0	5	0
28	164	0	10000	5	1	0	5	0
30	165	0	10000	5	1	0	5	0
29	166	0	10000	5	1	0	5	0
28	167	0	10000	5	1	0	5	0
29	168	0	10000	5	1	0	5	0
28	169	0	10000	5	1	0	5	0
26	170	0	10000	5	1	0	5	0
25	170	0	10000	5	1	0	5	0
25	171	0	10000	5	1	0	5	0
26	173	0	10000	5	1	0	5	0
27	174	0	10000	5	1	0	5	0
27	175	0	10000	5	1	0	5	0
26	176	0	10000	5	1	0	5	0
26	177	0	10000	5	1	0	5	0
25	178	0	10000	5	1	0	5	0
25	179	0	10000	5	1	0	5	0
25	180	0	10000	5	1	0	5	0
24	180	0	10000	5	1	0	5	0
23	181	0	10000	5	1	0	5	0
20	183	0	10000	5	1	0	5	0
20	184	0	10000	5	1	0	5	0
20	185	0	10000	5	1	0	5	0
20	186	0	10000	5	1	0	5	0
20	187	0	10000	5	1	0	5	0
20	188	0	10000	5	1	0	5	0
19	189	0	10000	5	1	0	5	0
18	190	0	10000	5	1	0	5	0
18	190	0	10000	5	1	0	5	0
20	191	0	10000	5	1	0	5	0
22	193	0	10000	5	1	0	5	0
20	194	0	10000	5	1	0	5	0
20	195	0	10000	5	1	0	5	0
19	196	0	10000	5	1	0	5	0
18	197	0	10000	5	1	0	5	0
19	198	0	10000	5	1	0	5	0
18	199	0	10000	5	1	0	5	0
18	200	0	10000	5	1	0	5	0
18	200	0	10000	5	1	0	5	0
17	201	0	10000	5	1	0	5	0
15	203	0	10000	5	1	0	5	0
16	204	0	10000	5	1	0	5	0
16	205	0	10000	5	1	0	5	0
16	206	0	10000	5	1	0	5	0
16	207	0	10000	5	1	0	5	0
16	208	0	10000	5	1	0	5	0
16	209	0	10000	5	1	0	5	0
16	210	0	10000	5	1	0	5	0
15	210	0	10000	5	1	0	5	0
17	211	0	10000	5	1	0	5	0
19	213	0	10000	5	1	0	5	0
17	214	0	10000	5	1	0	5	0
18	215	0	10000	5	1	0	5	0
17	216	0	10000	5	1	0	5	0
16	217	0	10000	5	1	0	5	0
16	218	0	10000	5	1	0	5	0
15	219	0	10000	5	1	0	5	0
16	220	0	10000	5	1	0	5	0
17	220	0	10000	5	1	0	5	0
15	221	0	10000	5	1	0	5	0
13	223	0	10000	5	1	0	5	0
14	224	0	10000	5	1	0	5	0
13	225	0	10000	5	1	0	5	0
13	226	0	10000	5	1	0	5	0
13	227	0	10000	5	1	0	5	0
14	228	0	10000	5	1	0	5	0
15	229	0	10000	5	1	0	5	0
15	230	0	10000	5	1	0	5	0
15	230	0	10000	5	1	0	5	0
16	231	0	10000	5	1	0	5	0
18	233	0	10000	5	1	0	5	0
17	234	0	10000	5	1	0	5	0
16	235	0	10000	5	1	0	5	0
16	236	0	10000	5	1	0	5	0
16	237	0	10000	5	1	0	5	0
16	238	0	10000	5	1	0	5	0
17	239	0	10000	5	1	0	5	0
18	240	0	10000	5	1	0	5	0
20	240	0	10000	5	1	0	5	0
20	241	0	10000	5	1	0	5	0
18	243	0	10000	5	1	0	5	0
19	244	0	10000	5	1	0	5	0
20	245	0	10000	5	1	0	5	0
20	246	0	10000	5	1	0	5	0
20	247	0	10000	5	1	0	5	0
21	248	0	10000	5	1	0	5	0
23	249	0	10000	5	1	0	5	0
22	250	0	10000	5	1	0	5	0
22	250	0	10000	5	1	0	5	0
21	251	0	10000	5	1	0	5	0
23	253	0	10000	5	1	0	5	0
22	254	0	10000	5	1	0	5	0
22	255	0	10000	5	1	0	5	0
22	256	0	10000	5	1	0	5	0
22	257	0	10000	5	1	0	5	0
21	258	0	10000	5	1	0	5	0
21	259	0	10000	5	1	0	5	0
20	260	0	10000	5	1	0	5	0
20	260	0	10000	5	1	0	5	0
20	261	0	10000	5	1	0	5	0
17	263	0	10000	5	1	0	5	0
17	264	0	10000	5	1	0	5	0
17	265	0	10000	5	1	0	5	0
16	266	0	10000	5	1	0	5	0
15	267	0	10000	5	1	0	5	0
15	268	0	10000	5	1	0	5	0
14	269	0	10000	5	1	0	5	0
13	270	0	10000	5	1	0	5	0
13	270	0	10000	5	1	0	5	0
14	271	0	10000	5	1	0	5	0
16	273	0	10000	5	1	0	5	0
15	274	0	10000	5	1	0	5	0
14	275	0	10000	5	1	0	5	0
13	276	0	10000	5	1	0	5	0
14	277	0	10000	5	1	0	5	0
15	278	0	10000	5	1	0	5	0
17	279	0	10000	5	1	0	5	0
18	280	0	10000	5	1	0	5	0
20	280	0	10000	5	1	0	5	0
20	281	0	10000	5	1	0	5	0
18	283	0	10000	5	1	0	5	0
17	284	0	10000	5	1	0	5	0
17	285	0	10000	5	1	0	5	0
17	286	0	10000	5	1	0	5	0
17	287	0	10000	5	1	0	5	0
18	288	0	10000	5	1	0	5	0
19	289	0	10000	5	1	0	5	0
20	290	0	10000	5	1	0	5	0
21	290	0	10000	5	1	0	5	0
22	291	0	10000	5	1	0	5	0
23	293	0	10000	5	1	0	5	0
22	294	0	10000	5	1	0	5	0
21	295	0	10000	5	1	0	5	0
20	296	0	10000	5	1	0	5	0
20	297	0	10000	5	1	0	5	0
19	298	0	10000	5	1	0	5	0
19	299	0	10000	5	1	0	5	0
19	300	0	10000	5	1	0	5	0
19	300	0	10000	5	1	0	5	0
18	301	0	10000	5	1	0	5	0
18	303	0	10000	5	1	0	5	0
18	304	0	10000	5	1	0	5	0
17	305	0	10000	5	1	0	5	0
18	306	0	10000	5	1	0	5	0
17	307	0	10000	5	1	0	5	0
19	308	0	10000	5	1	0	5	0
22	309	0	10000	5	1	0	5	0
23	310	0	10000	5	1	0	5	0
22	310	0	10000	5	1	0	5	0
22	311	0	10000	5	1	0	5	0
23	313	0	10000	5	1	0	5	0
23	314	0	10000	5	1	0	5	0
23	315	0	10000	5	1	0	5	0
22	316	0	10000	5	1	0	5	0
21	317	0	10000	5	1	0	5	0
20	318	0	10000	5	1	0	5	0
20	319	0	10000	5	1	0	5	0
20	320	0	10000	5	1	0	5	0
22	320	0	10000	5	1	0	5	0
21	321	0	10000	5	1	0	5	0
19	323	0	10000	5	1	0	5	0
19	324	0	10000	5	1	0	5	0
19	325	0	10000	5	1	0	5	0
19	326	0	10000	5	1	0	5	0
20	327	0	10000	5	1	0	5	0
21	328	0	10000	5	1	0	5	0
21	329	0	10000	5	1	0	5	0
22	330	0	10000	5	1	0	5	0
22	330	0	10000	5	1	0	5	0
22	331	0	10000	5	1	0	5	0
23	333	0	10000	5	1	0	5	0
22	334	0	10000	5	1	0	5	0
20	335	0	10000	5	1	0	5	0
20	336	0	10000	5	1	0	5	0
20	337	0	10000	5	1	0	5	0
20	338	0	10000	5	1	0	5	0
21	339	0	10000	5	1	0	5	0
20	340	0	10000	5	1	0	5	0
20	340	0	10000	5	1	0	5	0
21	341	0	10000	5	1	0	5	0
18	343	0	10000	5	1	0	5	0
19	344	0	10000	5	1	0	5	0
18	345	0	10000	5	1	0	5	0
18	346	0	10000	5	1	0	5	0
18	347	0	10000	5	1	0	5	0
18	348	0	10000	5	1	0	5	0
17	349	0	10000	5	1	0	5	0
18	350	0	10000	5	1	0	5	0
15	350	0	10000	5	1	0	5	0
16	351	0	10000	5	1	0	5	0
18	353	0	10000	5	1	0	5	0
16	354	0	10000	5	1	0	5	0
16	355	0	10000	5	1	0	5	0
16	356	0	10000	5	1	0	5	0
16	357	0	10000	5	1	0	5	0
15	358	0	10000	5	1	0	5	0
16	359	0	10000	5	1	0	5	0
16	360	0	10000	5	1	0	5	0
16	360	0	10000	5	1	0	5	0
16	361	0	10000	5	1	0	5	0
13	363	0	10000	5	1	0	5	0
14	364	0	10000	5	1	0	5	0
15	365	0	10000	5	1	0	5	0
16	366	0	10000	5	1	0	5	0
16	367	0	10000	5	1	0	5	0
16	368	0	10000	5	1	0	5	0
16	369	0	10000	5	1	0	5	0
16	370	0	10000	5	1	0	5	0
15	370	0	10000	5	1	0	5	0
16	371	0	10000	5	1	0	5	0
17	373	0	10000	5	1	0	5	0
17	374	0	10000	5	1	0	5	0
17	375	0	10000	5	1	0	5	0
18	376	0	10000	5	1	0	5	0
19	377	0	10000	5	1	0	5	0
19	378	0	10000	5	1	0	5	0
19	379	0	10000	5	1	0	5	0
20	380	0	10000	5	1	0	5	0
20	380	0	10000	5	1	0	5	0
20	381	0	10000	5	1	0	5	0
17	383	0	10000	5	1	0	5	0
18	384	0	10000	5	1	0	5	0
18	385	0	10000	5	1	0	5	0
19	386	0	10000	5	1	0	5	0
20	387	0	10000	5	1	0	5	0
20	388	0	10000	5	1	0	5	0
20	389	0	10000	5	1	0	5	0
19	390	0	10000	5	1	0	5	0
19	390	0	10000	5	1	0	5	0
18	391	0	10000	5	1	0	5	0
20	393	0	10000	5	1	0	5	0
21	394	0	10000	5	1	0	5	0
22	395	0	10000	5	1	0	5	0
22	396	0	10000	5	1	0	5	0
22	397	0	10000	5	1	0	5	0
21	398	0	10000	5	1	0	5	0
20	399	0	10000	5	1	0	5	0
21	400	0	10000	5	1	0	5	0
20	400	0	10000	5	1	0	5	0
20	401	0	10000	5	1	0	5	0
19	403	0	10000	5	1	0	5	0
20	404	0	10000	5	1	0	5	0
20	405	0	10000	5	1	0	5	0
20	406	0	10000	5	1	0	5	0
19	407	0	10000	5	1	0	5	0
18	408	0	10000	5	1	0	5	0
18	409	0	10000	5	1	0	5	0
18	410	0	10000	5	1	0	5	0
18	410	0	10000	5	1	0	5	0
19	411	0	10000	5	1	0	5	0
20	413	0	10000	5	1	0	5	0
19	414	0	10000	5	1	0	5	0
19	415	0	10000	5	1	0	5	0
19	416	0	10000	5	1	0	5	0
18	417	0	10000	5	1	0	5	0
18	418	0	10000	5	1	0	5	0
18	419	0	10000	5	1	0	5	0
18	420	0	10000	5	1	0	5	0
18	420	0	10000	5	1	0	5	0
18	421	0	10000	5	1	0	5	0
17	423	0	10000	5	1	0	5	0
17	424	0	10000	5	1	0	5	0
17	425	0	10000	5	1	0	5	0
17	426	0	10000	5	1	0	5	0
17	427	0	10000	5	1	0	5	0
17	428	0	10000	5	1	0	5	0
16	429	0	10000	5	1	0	5	0
15	430	0	10000	5	1	0	5	0
15	430	0	10000	5	1	0	5	0
15	431	0	10000	5	1	0	5	0
17	433	0	10000	5	1	0	5	0
17	434	0	10000	5	1	0	5	0
18	435	0	10000	5	1	0	5	0
17	436	0	10000	5	1	0	5	0
17	437	0	10000	5	1	0	5	0
17	438	0	10000	5	1	0	5	0
16	439	0	10000	5	1	0	5	0
16	440	0	10000	5	1	0	5	0
17	440	0	10000	5	1	0	5	0
15	441	0	10000	5	1	0	5	0
13	443	0	10000	5	1	0	5	0
14	444	0	10000	5	1	0	5	0
13	445	0	10000	5	1	0	5	0
13	446	0	10000	5	1	0	5	0
13	447	0	10000	5	1	0	5	0
13	448	0	10000	5	1	0	5	0
12	449	0	10000	5	1	0	5	0
12	450	0	10000	5	1	0	5	0
12	450	0	10000	5	1	0	5	0
13	451	0	10000	5	1	0	5	0
16	453	0	10000	5	1	0	5	0
15	454	0	10000	5	1	0	5	0
16	455	0	10000	5	1	0	5	0
17	456	0	10000	5	1	0	5	0
17	457	0	10000	5	1	0	5	0
17	458	0	10000	5	1	0	5	0
17	459	0	10000	5	1	0	5	0
16	460	0	10000	5	1	0	5	0
17	460	0	10000	5	1	0	5	0
16	461	0	10000	5	1	0	5	0
14	463	0	10000	5	1	0	5	0
15	464	0	10000	5	1	0	5	0
15	465	0	10000	5	1	0	5	0
16	466	0	10000	5	1	0	5	0
15	467	0	10000	5	1	0	5	0
15	468	0	10000	5	1	0	5	0
15	469	0	10000	5	1	0	5	0
15	470	0	10000	5	1	0	5	0
14	470	0	10000	5	1	0	5	0
14	471	0	10000	5	1	0	5	0
17	473	0	10000	5	1	0	5	0
16	474	0	10000	5	1	0	5	0
16	475	0	10000	5	1	0	5	0
15	476	0	10000	5	1	0	5	0
15	477	0	10000	5	1	0	5	0
15	478	0	10000	5	1	0	5	0
16	479	0	10000	5	1	0	5	0
17	480	0	10000	5	1	0	5	0
19	480	0	10000	5	1	0	5	0
22	481	0	10000	5	1	0	5	0
20	483	0	10000	5	1	0	5	0
20	484	0	10000	5	1	0	5	0
21	485	0	10000	5	1	0	5	0
20	486	0	10000	5	1	0	5	0
20	487	0	10000	5	1	0	5	0
19	488	0	10000	5	1	0	5	0
19	489	0	10000	5	1	0	5	0
18	490	0	10000	5	1	0	5	0
17	490	0	10000	5	1	0	5	0
17	491	0	10000	5	1	0	5	0
18	493	0	10000	5	1	0	5	0
18	494	0	10000	5	1	0	5	0
16	495	0	10000	5	1	0	5	0
16	496	0	10000	5	1	0	5	0
16	497	0	10000	5	1	0	5	0
16	498	0	10000	5	1	0	5	0
15	499	0	10000	5	1	0	5	0
16	500	0	10000	5	1	0	5	0
16	500	0	10000	5	1	0	5	0
15	501	0	10000	5	1	0	5	0
13	503	0	10000	5	1	0	5	1
14	504	0	10000	5	1	0	5	1
13	505	0	10000	5	1	0	5	1
14	506	0	10000	5	1	0	5	1
13	507	0	10000	5	1	0	5	1
13	508	0	10000	5	1	0	5	1
14	509	0	10000	5	1	0	5	1
13	510	0	10000	5	1	0	5	1
12	510	0	10000	5	1	0	5	1
13	511	0	10000	5	1	0	5	1
15	513	0	10000	5	1	0	5	1
14	514	0	10000	5	1	0	5	1
13	515	0	10000	5	1	0	5	1
12	516	0	10000	5	1	0	5	1
12	517	0	10000	5	1	0	5	1
12	518	0	10000	5	1	0	5	1
11	519	0	10000	5	1	0	5	1
12	520	0	10000	5	1	0	5	1
12	520	0	10000	5	1	0	5	1
11	521	0	10000	5	1	0	5	1
9	523	0	10000	5	1	0	5	1
10	524	0	10000	5	1	0	5	1
10	525	0	10000	5	1	0	5	1
11	526	0	10000	5	1	0	5	1
10	527	0	10000	5	1	0	5	1
12	528	0	10000	5	1	0	5	1
14	529	0	10000	5	1	0	5	1
12	530	0	10000	5	1	0	5	1
12	530	0	10000	5	1	0	5	1
12	531	0	10000	5	1	0	5	1
13	533	0	10000	5	1	0	5	1
13	534	0	10000	5	1	0	5	1
13	535	0	10000	5	1	0	5	1
12	536	0	10000	5	1	0	5	1
13	537	0	10000	5	1	0	5	1
14	538	0	10000	5	1	0	5	1
15	539	0	10000	5	1	0	5	1
15	540	0	10000	5	1	0	5	1
15	540	0	10000	5	1	0	5	1
15	541	0	10000	5	1	0	5	1
13	543	0	10000	5	1	0	5	1
13	544	0	10000	5	1	0	5	1
14	545	0	10000	5	1	0	5	1
13	546	0	10000	5	1	0	5	1
13	547	0	10000	5	1	0	5	1
12	548	0	10000	5	1	0	5	1
12	549	0	10000	5	1	0	5	1
11	550	0	10000	5	1	0	5	1
10	550	0	10000	5	1	0	5	1
11	551	0	10000	5	1	0	5	1
12	553	0	10000	5	1	0	5	0
11	554	0	10000	5	1	0	5	0
11	555	0	10000	5	1	0	5	0
10	556	0	10000	5	1	0	5	0
10	557	0	10000	5	1	0	5	0
10	558	0	10000	5	1	0	5	0
10	559	0	10000	5	1	0	5	0
10	560	0	10000	5	1	0	5	0
11	560	0	10000	5	1	0	5	0
10	561	0	10000	5	1	0	5	0
9	563	0	10000	5	1	0	5	0
9	564	0	10000	5	1	0	5	0
9	565	0	10000	5	1	0	5	0
10	566	0	10000	5	1	0	5	0
10	567	0	10000	5	1	0	5	0
11	568	0	10000	5	1	0	5	0
10	569	0	10000	5	1	0	5	0
10	570	0	10000	5	1	0	5	0
9	570	0	10000	5	1	0	5	0
9	571	0	10000	5	1	0	5	0
11	573	0	10000	5	1	0	5	0
10	574	0	10000	5	1	0	5	0
10	575	0	10000	5	1	0	5	0
11	576	0	10000	5	1	0	5	0
11	577	0	10000	5	1	0	5	0
10	578	0	10000	5	1	0	5	0
11	579	0	10000	5	1	0	5	0
11	580	0	10000	5	1	0	5	0
12	580	0	10000	5	1	0	5	0
13	581	0	10000	5	1	0	5	0
10	583	0	10000	5	1	0	5	0
11	584	0	10000	5	1	0	5	0
13	585	0	10000	5	1	0	5	0
14	586	0	10000	5	1	0	5	0
15	587	0	10000	5	1	0	5	0
23	588	0	10000	5	1	0	5	0
30	589	0	10000	5	1	0	5	0
29	590	0	10000	5	1	0	5	0
32	590	0	10000	5	1	0	5	0
63	591	0	10000	5	1	0	5	0
83	593	0	10000	5	1	0	5	0
86	594	0	10000	5	1	0	5	0
91	595	0	10000	5	1	0	5	0
121	596	0	10000	5	1	0	5	0
141	597	0	10000	5	1	0	5	0
203	598	0	10000	5	1	0	5	0
252	599	0	10000	5	1	0	5	0
333	600	0	10000	5	1	0	5	0
479	600	0	10000	5	1	0	5	0
551	601	0	10000	5	1	0	5	0
553	603	0	10000	5	1	0	5	0
553	604	0	10000	5	1	0	5	0
606	605	0	10000	5	1	0	5	0
690	606	0	10000	5	1	0	5	0
767	607	0	10000	5	1	0	5	0
767	608	0	10000	5	1	0	5	0
778	609	0	10000	5	1	0	5	0
843	610	0	10000	5	1	0	5	0
897	610	0	10000	5	1	0	5	0
892	611	0	10000	5	1	0	5	0
934	613	0	10000	5	1	0	5	0
925	614	0	10000	5	1	0	5	0
937	615	0	10000	5	1	0	5	0
985	616	0	10000	5	1	0	5	0
1008	617	0	10000	5	1	0	5	0
1117	618	0	10000	5	1	0	5	0
1121	619	0	10000	5	1	0	5	0
1113	620	0	10000	5	1	0	5	0
1138	620	0	10000	5	1	0	5	0
1108	621	0	10000	5	1	0	5	0
1073	623	0	10000	5	1	0	5	0
1026	624	0	10000	5	1	0	5	0
988	625	0	10000	5	1	0	5	0
977	626	0	10000	5	1	0	5	0
968	627	0	10000	5	1	0	5	0
950	628	0	10000	5	1	0	5	0
918	629	0	10000	5	1	0	5	0
876	630	0	10000	5	1	0	5	0
841	630	0	10000	5	1	0	5	0
815	631	0	10000	5	1	0	5	0
796	633	0	10000	5	1	0	5	0
777	634	0	10000	5	1	0	5	0
757	635	0	10000	5	1	0	5	0
737	636	0	10000	5	1	0	5	0
718	637	0	10000	5	1	0	5	0
699	638	0	10000	5	1	0	5	0
679	639	0	10000	5	1	0	5	0
659	640	0	10000	5	1	0	5	0
639	640	0	10000	5	1	0	5	0
617	641	0	10000	5	1	0	5	0
597	643	0	10000	5	1	0	5	0
580	644	0	10000	5	1	0	5	0
562	645	0	10000	5	1	0	5	0
543	646	0	10000	5	1	0	5	0
524	647	0	10000	5	1	0	5	0
502	648	0	10000	5	1	0	5	0
480	649	0	10000	5	1	0	5	0
461	650	0	10000	5	1	0	5	0
441	650	0	10000	5	1	0	5	0
422	651	0	10000	5	1	0	5	0
407	653	0	10000	5	1	0	5	0
395	654	0	10000	5	1	0	5	0
386	655	0	10000	5	1	0	5	0
380	656	0	10000	5	1	0	5	0
378	657	0	10000	5	1	0	5	0
380	658	0	10000	5	1	0	5	0
378	659	0	10000	5	1	0	5	0
376	660	0	10000	5	1	0	5	0
373	660	0	10000	5	1	0	5	0
366	661	0	10000	5	1	0	5	0
358	663	0	10000	5	1	0	5	0
354	664	0	10000	5	1	0	5	0
350	665	0	10000	5	1	0	5	0
345	666	0	10000	5	1	0	5	0
340	667	0	10000	5	1	0	5	0
333	668	0	10000	5	1	0	5	0
326	669	0	10000	5	1	0	5	0
318	670	0	10000	5	1	0	5	0
310	670	0	10000	5	1	0	5	0
303	671	0	10000	5	1	0	5	0
299	673	0	10000	5	1	0	5	0
293	674	0	10000	5	1	0	5	0
288	675	0	10000	5	1	0	5	0
283	676	0	10000	5	1	0	5	0
279	677	0	10000	5	1	0	5	0
272	678	0	10000	5	1	0	5	0
265	679	0	10000	5	1	0	5	0
258	680	0	10000	5	1	0	5	0
248	680	0	10000	5	1	0	5	0
237	681	0	10000	5	1	0	5	0
227	683	0	10000	5	1	0	5	0
223	684	0	10000	5	1	0	5	0
220	685	0	10000	5	1	0	5	0
219	686	0	10000	5	1	0	5	0
218	687	0	10000	5	1	0	5	0
217	688	0	10000	5	1	0	5	0
216	689	0	10000	5	1	0	5	0
213	690	0	10000	5	1	0	5	0
212	690	0	10000	5	1	0	5	0
212	691	0	10000	5	1	0	5	0
213	693	0	10000	5	1	0	5	0
212	694	0	10000	5	1	0	5	0
209	695	0	10000	5	1	0	5	0
205	696	0	10000	5	1	0	5	0
200	697	0	10000	5	1	0	5	0
198	698	0	10000	5	1	0	5	0
197	699	0	10000	5	1	0	5	0
196	700	0	10000	5	1	0	5	0
195	700	0	10000	5	1	0	5	0
194	701	0	10000	5	1	0	5	0
189	703	0	10000	5	1	0	5	0
189	704	0	10000	5	1	0	5	0
192	705	0	10000	5	1	0	5	0
194	706	0	10000	5	1	0	5	0
198	707	0	10000	5	1	0	5	0
203	708	0	10000	5	1	0	5	0
205	709	0	10000	5	1	0	5	0
205	710	0	10000	5	1	0	5	0
202	710	0	10000	5	1	0	5	0
197	711	0	10000	5	1	0	5	0
194	713	0	10000	5	1	0	5	0
190	714	0	10000	5	1	0	5	0
186	715	0	10000	5	1	0	5	0
179	716	0	10000	5	1	0	5	0
173	717	0	10000	5	1	0	5	0
166	718	0	10000	5	1	0	5	0
158	719	0	10000	5	1	0	5	0
153	720	0	10000	5	1	0	5	0
148	720	0	10000	5	1	0	5	0
144	721	0	10000	5	1	0	5	0
138	723	0	10000	5	1	0	5	0
133	724	0	10000	5	1	0	5	0
128	725	0	10000	5	1	0	5	0
124	726	0	10000	5	1	0	5	0
122	727	0	10000	5	1	0	5	0
126	728	0	10000	5	1	0	5	0
131	729	0	10000	5	1	0	5	0
130	730	0	10000	5	1	0	5	0
126	730	0	10000	5	1	0	5	0
121	731	0	10000	5	1	0	5	0
122	733	0	10000	5	1	0	5	0
126	734	0	10000	5	1	0	5	0
127	735	0	10000	5	1	0	5	0
124	736	0	10000	5	1	0	5	0
130	737	0	10000	5	1	0	5	0
132	738	0	10000	5	1	0	5	0
128	739	0	10000	5	1	0	5	0
124	740	0	10000	5	1	0	5	0
122	740	0	10000	5	1	0	5	0
119	741	0	10000	5	1	0	5	0
114	743	0	10000	5	1	0	5	0
110	744	0	10000	5	1	0	5	0
106	745	0	10000	5	1	0	5	0
102	746	0	10000	5	1	0	5	0
97	747	0	10000	5	1	0	5	0
93	748	0	10000	5	1	0	5	0
90	749	0	10000	5	1	0	5	0
85	750	0	10000	5	1	0	5	0
80	750	0	10000	5	1	0	5	0
78	751	0	10000	5	1	0	5	0
76	753	0	10000	5	1	0	5	0
74	754	0	10000	5	1	0	5	0
74	755	0	10000	5	1	0	5	0
73	756	0	10000	5	1	0	5	0
72	757	0	10000	5	1	0	5	0
73	758	0	10000	5	1	0	5	0
72	759	0	10000	5	1	0	5	0
72	760	0	10000	5	1	0	5	0
73	760	0	10000	5	1	0	5	0
72	761	0	10000	5	1	0	5	0
67	763	0	10000	5	1	0	5	0
65	764	0	10000	5	1	0	5	0
64	765	0	10000	5	1	0	5	0
63	766	0	10000	5	1	0	5	0
