value	EMG	Stimulus	EMG_sensitivity	Total_Trial_Nr	practise	acq	probe_nr	Startle_Probe
17	2	0	10000	1	1	0	1	0
16	3	0	10000	1	1	0	1	0
16	4	0	10000	1	1	0	1	0
17	5	0	10000	1	1	0	1	0
19	6	0	10000	1	1	0	1	0
17	7	0	10000	1	1	0	1	0
17	8	0	10000	1	1	0	1	0
16	9	0	10000	1	1	0	1	0
16	10	0	10000	1	1	0	1	0
16	11	0	10000	1	1	0	1	0
16	12	0	10000	1	1	0	1	0
15	13	0	10000	1	1	0	1	0
16	14	0	10000	1	1	0	1	0
15	15	0	10000	1	1	0	1	0
13	16	0	10000	1	1	0	1	0
13	17	0	10000	1	1	0	1	0
14	18	0	10000	1	1	0	1	0
15	19	0	10000	1	1	0	1	0
16	20	0	10000	1	1	0	1	0
17	21	0	10000	1	1	0	1	0
16	21	0	10000	1	1	0	1	0
16	22	0	10000	1	1	0	1	0
15	24	0	10000	1	1	0	1	0
15	25	0	10000	1	1	0	1	0
16	26	0	10000	1	1	0	1	0
15	27	0	10000	1	1	0	1	0
15	28	0	10000	1	1	0	1	0
15	29	0	10000	1	1	0	1	0
15	30	0	10000	1	1	0	1	0
15	31	0	10000	1	1	0	1	0
15	31	0	10000	1	1	0	1	0
16	32	0	10000	1	1	0	1	0
16	34	0	10000	1	1	0	1	0
15	35	0	10000	1	1	0	1	0
14	36	0	10000	1	1	0	1	0
14	37	0	10000	1	1	0	1	0
14	38	0	10000	1	1	0	1	0
14	39	0	10000	1	1	0	1	0
14	40	0	10000	1	1	0	1	0
13	41	0	10000	1	1	0	1	0
13	41	0	10000	1	1	0	1	0
12	42	0	10000	1	1	0	1	0
12	44	0	10000	1	1	0	1	0
13	45	0	10000	1	1	0	1	0
15	46	0	10000	1	1	0	1	0
14	47	0	10000	1	1	0	1	0
14	48	0	10000	1	1	0	1	0
14	49	0	10000	1	1	0	1	0
15	50	0	10000	1	1	0	1	0
15	51	0	10000	1	1	0	1	0
15	51	0	10000	1	1	0	1	0
14	52	0	10000	1	1	0	1	0
16	54	0	10000	1	1	0	1	0
16	55	0	10000	1	1	0	1	0
16	56	0	10000	1	1	0	1	0
16	57	0	10000	1	1	0	1	0
15	58	0	10000	1	1	0	1	0
15	59	0	10000	1	1	0	1	0
15	60	0	10000	1	1	0	1	0
15	61	0	10000	1	1	0	1	0
14	61	0	10000	1	1	0	1	0
14	62	0	10000	1	1	0	1	0
14	64	0	10000	1	1	0	1	0
15	65	0	10000	1	1	0	1	0
16	66	0	10000	1	1	0	1	0
17	67	0	10000	1	1	0	1	0
17	68	0	10000	1	1	0	1	0
16	69	0	10000	1	1	0	1	0
16	70	0	10000	1	1	0	1	0
16	71	0	10000	1	1	0	1	0
16	71	0	10000	1	1	0	1	0
16	72	0	10000	1	1	0	1	0
16	74	0	10000	1	1	0	1	0
15	75	0	10000	1	1	0	1	0
13	76	0	10000	1	1	0	1	0
14	77	0	10000	1	1	0	1	0
14	78	0	10000	1	1	0	1	0
14	79	0	10000	1	1	0	1	0
14	80	0	10000	1	1	0	1	0
14	81	0	10000	1	1	0	1	0
14	81	0	10000	1	1	0	1	0
13	82	0	10000	1	1	0	1	0
13	84	0	10000	1	1	0	1	0
13	85	0	10000	1	1	0	1	0
14	86	0	10000	1	1	0	1	0
13	87	0	10000	1	1	0	1	0
14	88	0	10000	1	1	0	1	0
14	89	0	10000	1	1	0	1	0
14	90	0	10000	1	1	0	1	0
13	91	0	10000	1	1	0	1	0
14	91	0	10000	1	1	0	1	0
13	92	0	10000	1	1	0	1	0
14	94	0	10000	1	1	0	1	0
13	95	0	10000	1	1	0	1	0
12	96	0	10000	1	1	0	1	0
11	97	0	10000	1	1	0	1	0
12	98	0	10000	1	1	0	1	0
12	99	0	10000	1	1	0	1	0
12	100	0	10000	1	1	0	1	0
12	101	0	10000	1	1	0	1	0
12	101	0	10000	1	1	0	1	0
12	102	0	10000	1	1	0	1	0
12	104	0	10000	1	1	0	1	0
13	105	0	10000	1	1	0	1	0
15	106	0	10000	1	1	0	1	0
14	107	0	10000	1	1	0	1	0
14	108	0	10000	1	1	0	1	0
13	109	0	10000	1	1	0	1	0
13	110	0	10000	1	1	0	1	0
13	111	0	10000	1	1	0	1	0
13	111	0	10000	1	1	0	1	0
13	112	0	10000	1	1	0	1	0
14	114	0	10000	1	1	0	1	0
15	115	0	10000	1	1	0	1	0
18	116	0	10000	1	1	0	1	0
24	117	0	10000	1	1	0	1	0
27	118	0	10000	1	1	0	1	0
31	119	0	10000	1	1	0	1	0
32	120	0	10000	1	1	0	1	0
32	121	0	10000	1	1	0	1	0
32	121	0	10000	1	1	0	1	0
32	122	0	10000	1	1	0	1	0
32	124	0	10000	1	1	0	1	0
32	125	0	10000	1	1	0	1	0
34	126	0	10000	1	1	0	1	0
33	127	0	10000	1	1	0	1	0
33	128	0	10000	1	1	0	1	0
31	129	0	10000	1	1	0	1	0
30	130	0	10000	1	1	0	1	0
31	131	0	10000	1	1	0	1	0
30	131	0	10000	1	1	0	1	0
31	132	0	10000	1	1	0	1	0
33	134	0	10000	1	1	0	1	0
32	135	0	10000	1	1	0	1	0
32	136	0	10000	1	1	0	1	0
32	137	0	10000	1	1	0	1	0
32	138	0	10000	1	1	0	1	0
33	139	0	10000	1	1	0	1	0
32	140	0	10000	1	1	0	1	0
32	141	0	10000	1	1	0	1	0
36	141	0	10000	1	1	0	1	0
36	142	0	10000	1	1	0	1	0
41	144	0	10000	1	1	0	1	0
44	145	0	10000	1	1	0	1	0
45	146	0	10000	1	1	0	1	0
43	147	0	10000	1	1	0	1	0
41	148	0	10000	1	1	0	1	0
39	149	0	10000	1	1	0	1	0
38	150	0	10000	1	1	0	1	0
36	151	0	10000	1	1	0	1	0
34	151	0	10000	1	1	0	1	0
34	152	0	10000	1	1	0	1	0
33	154	0	10000	1	1	0	1	0
32	155	0	10000	1	1	0	1	0
30	156	0	10000	1	1	0	1	0
30	157	0	10000	1	1	0	1	0
31	158	0	10000	1	1	0	1	0
32	159	0	10000	1	1	0	1	0
32	160	0	10000	1	1	0	1	0
33	161	0	10000	1	1	0	1	0
32	161	0	10000	1	1	0	1	0
31	162	0	10000	1	1	0	1	0
31	164	0	10000	1	1	0	1	0
29	165	0	10000	1	1	0	1	0
30	166	0	10000	1	1	0	1	0
30	167	0	10000	1	1	0	1	0
28	168	0	10000	1	1	0	1	0
28	169	0	10000	1	1	0	1	0
29	170	0	10000	1	1	0	1	0
29	171	0	10000	1	1	0	1	0
29	171	0	10000	1	1	0	1	0
29	172	0	10000	1	1	0	1	0
29	174	0	10000	1	1	0	1	0
29	175	0	10000	1	1	0	1	0
27	176	0	10000	1	1	0	1	0
29	177	0	10000	1	1	0	1	0
31	178	0	10000	1	1	0	1	0
31	179	0	10000	1	1	0	1	0
32	180	0	10000	1	1	0	1	0
33	181	0	10000	1	1	0	1	0
33	181	0	10000	1	1	0	1	0
32	182	0	10000	1	1	0	1	0
32	184	0	10000	1	1	0	1	0
32	185	0	10000	1	1	0	1	0
33	186	0	10000	1	1	0	1	0
32	187	0	10000	1	1	0	1	0
31	188	0	10000	1	1	0	1	0
31	189	0	10000	1	1	0	1	0
29	190	0	10000	1	1	0	1	0
28	191	0	10000	1	1	0	1	0
28	191	0	10000	1	1	0	1	0
31	192	0	10000	1	1	0	1	0
32	194	0	10000	1	1	0	1	0
33	195	0	10000	1	1	0	1	0
32	196	0	10000	1	1	0	1	0
31	197	0	10000	1	1	0	1	0
32	198	0	10000	1	1	0	1	0
32	199	0	10000	1	1	0	1	0
33	200	0	10000	1	1	0	1	0
33	201	0	10000	1	1	0	1	0
33	201	0	10000	1	1	0	1	0
32	202	0	10000	1	1	0	1	0
30	204	0	10000	1	1	0	1	0
30	205	0	10000	1	1	0	1	0
31	206	0	10000	1	1	0	1	0
29	207	0	10000	1	1	0	1	0
29	208	0	10000	1	1	0	1	0
29	209	0	10000	1	1	0	1	0
28	210	0	10000	1	1	0	1	0
27	211	0	10000	1	1	0	1	0
26	211	0	10000	1	1	0	1	0
26	212	0	10000	1	1	0	1	0
26	214	0	10000	1	1	0	1	0
24	215	0	10000	1	1	0	1	0
22	216	0	10000	1	1	0	1	0
23	217	0	10000	1	1	0	1	0
23	218	0	10000	1	1	0	1	0
23	219	0	10000	1	1	0	1	0
23	220	0	10000	1	1	0	1	0
22	221	0	10000	1	1	0	1	0
23	221	0	10000	1	1	0	1	0
22	222	0	10000	1	1	0	1	0
21	224	0	10000	1	1	0	1	0
21	225	0	10000	1	1	0	1	0
22	226	0	10000	1	1	0	1	0
20	227	0	10000	1	1	0	1	0
20	228	0	10000	1	1	0	1	0
21	229	0	10000	1	1	0	1	0
20	230	0	10000	1	1	0	1	0
20	231	0	10000	1	1	0	1	0
19	231	0	10000	1	1	0	1	0
19	232	0	10000	1	1	0	1	0
20	234	0	10000	1	1	0	1	0
19	235	0	10000	1	1	0	1	0
18	236	0	10000	1	1	0	1	0
18	237	0	10000	1	1	0	1	0
18	238	0	10000	1	1	0	1	0
18	239	0	10000	1	1	0	1	0
17	240	0	10000	1	1	0	1	0
17	241	0	10000	1	1	0	1	0
17	241	0	10000	1	1	0	1	0
16	242	0	10000	1	1	0	1	0
16	244	0	10000	1	1	0	1	0
16	245	0	10000	1	1	0	1	0
17	246	0	10000	1	1	0	1	0
17	247	0	10000	1	1	0	1	0
16	248	0	10000	1	1	0	1	0
15	249	0	10000	1	1	0	1	0
16	250	0	10000	1	1	0	1	0
15	251	0	10000	1	1	0	1	0
14	251	0	10000	1	1	0	1	0
17	252	0	10000	1	1	0	1	0
18	254	0	10000	1	1	0	1	0
18	255	0	10000	1	1	0	1	0
16	256	0	10000	1	1	0	1	0
16	257	0	10000	1	1	0	1	0
17	258	0	10000	1	1	0	1	0
16	259	0	10000	1	1	0	1	0
16	260	0	10000	1	1	0	1	0
16	261	0	10000	1	1	0	1	0
15	261	0	10000	1	1	0	1	0
15	262	0	10000	1	1	0	1	0
15	264	0	10000	1	1	0	1	0
15	265	0	10000	1	1	0	1	0
17	266	0	10000	1	1	0	1	0
17	267	0	10000	1	1	0	1	0
16	268	0	10000	1	1	0	1	0
15	269	0	10000	1	1	0	1	0
15	270	0	10000	1	1	0	1	0
15	271	0	10000	1	1	0	1	0
15	271	0	10000	1	1	0	1	0
15	272	0	10000	1	1	0	1	0
15	274	0	10000	1	1	0	1	0
15	275	0	10000	1	1	0	1	0
14	276	0	10000	1	1	0	1	0
15	277	0	10000	1	1	0	1	0
16	278	0	10000	1	1	0	1	0
16	279	0	10000	1	1	0	1	0
15	280	0	10000	1	1	0	1	0
15	281	0	10000	1	1	0	1	0
15	281	0	10000	1	1	0	1	0
15	282	0	10000	1	1	0	1	0
14	284	0	10000	1	1	0	1	0
15	285	0	10000	1	1	0	1	0
19	286	0	10000	1	1	0	1	0
17	287	0	10000	1	1	0	1	0
17	288	0	10000	1	1	0	1	0
17	289	0	10000	1	1	0	1	0
16	290	0	10000	1	1	0	1	0
16	291	0	10000	1	1	0	1	0
15	291	0	10000	1	1	0	1	0
16	292	0	10000	1	1	0	1	0
16	294	0	10000	1	1	0	1	0
17	295	0	10000	1	1	0	1	0
16	296	0	10000	1	1	0	1	0
17	297	0	10000	1	1	0	1	0
17	298	0	10000	1	1	0	1	0
17	299	0	10000	1	1	0	1	0
17	300	0	10000	1	1	0	1	0
17	301	0	10000	1	1	0	1	0
18	301	0	10000	1	1	0	1	0
17	302	0	10000	1	1	0	1	0
17	304	0	10000	1	1	0	1	0
18	305	0	10000	1	1	0	1	0
19	306	0	10000	1	1	0	1	0
18	307	0	10000	1	1	0	1	0
18	308	0	10000	1	1	0	1	0
18	309	0	10000	1	1	0	1	0
17	310	0	10000	1	1	0	1	0
19	311	0	10000	1	1	0	1	0
17	311	0	10000	1	1	0	1	0
17	312	0	10000	1	1	0	1	0
18	314	0	10000	1	1	0	1	0
17	315	0	10000	1	1	0	1	0
15	316	0	10000	1	1	0	1	0
16	317	0	10000	1	1	0	1	0
16	318	0	10000	1	1	0	1	0
16	319	0	10000	1	1	0	1	0
16	320	0	10000	1	1	0	1	0
15	321	0	10000	1	1	0	1	0
16	321	0	10000	1	1	0	1	0
14	322	0	10000	1	1	0	1	0
13	324	0	10000	1	1	0	1	0
14	325	0	10000	1	1	0	1	0
15	326	0	10000	1	1	0	1	0
15	327	0	10000	1	1	0	1	0
15	328	0	10000	1	1	0	1	0
15	329	0	10000	1	1	0	1	0
15	330	0	10000	1	1	0	1	0
14	331	0	10000	1	1	0	1	0
14	331	0	10000	1	1	0	1	0
15	332	0	10000	1	1	0	1	0
15	334	0	10000	1	1	0	1	0
14	335	0	10000	1	1	0	1	0
14	336	0	10000	1	1	0	1	0
14	337	0	10000	1	1	0	1	0
14	338	0	10000	1	1	0	1	0
14	339	0	10000	1	1	0	1	0
14	340	0	10000	1	1	0	1	0
15	341	0	10000	1	1	0	1	0
15	341	0	10000	1	1	0	1	0
14	342	0	10000	1	1	0	1	0
13	344	0	10000	1	1	0	1	0
13	345	0	10000	1	1	0	1	0
15	346	0	10000	1	1	0	1	0
15	347	0	10000	1	1	0	1	0
14	348	0	10000	1	1	0	1	0
14	349	0	10000	1	1	0	1	0
14	350	0	10000	1	1	0	1	0
14	351	0	10000	1	1	0	1	0
14	351	0	10000	1	1	0	1	0
15	352	0	10000	1	1	0	1	0
15	354	0	10000	1	1	0	1	0
16	355	0	10000	1	1	0	1	0
15	356	0	10000	1	1	0	1	0
15	357	0	10000	1	1	0	1	0
15	358	0	10000	1	1	0	1	0
15	359	0	10000	1	1	0	1	0
16	360	0	10000	1	1	0	1	0
16	361	0	10000	1	1	0	1	0
16	361	0	10000	1	1	0	1	0
14	362	0	10000	1	1	0	1	0
14	364	0	10000	1	1	0	1	0
14	365	0	10000	1	1	0	1	0
16	366	0	10000	1	1	0	1	0
15	367	0	10000	1	1	0	1	0
15	368	0	10000	1	1	0	1	0
15	369	0	10000	1	1	0	1	0
16	370	0	10000	1	1	0	1	0
16	371	0	10000	1	1	0	1	0
17	371	0	10000	1	1	0	1	0
17	372	0	10000	1	1	0	1	0
17	374	0	10000	1	1	0	1	0
17	375	0	10000	1	1	0	1	0
14	376	0	10000	1	1	0	1	0
15	377	0	10000	1	1	0	1	0
15	378	0	10000	1	1	0	1	0
15	379	0	10000	1	1	0	1	0
15	380	0	10000	1	1	0	1	0
16	381	0	10000	1	1	0	1	0
16	381	0	10000	1	1	0	1	0
16	382	0	10000	1	1	0	1	0
14	384	0	10000	1	1	0	1	0
14	385	0	10000	1	1	0	1	0
16	386	0	10000	1	1	0	1	0
15	387	0	10000	1	1	0	1	0
15	388	0	10000	1	1	0	1	0
14	389	0	10000	1	1	0	1	0
14	390	0	10000	1	1	0	1	0
14	391	0	10000	1	1	0	1	0
14	391	0	10000	1	1	0	1	0
15	392	0	10000	1	1	0	1	0
15	394	0	10000	1	1	0	1	0
14	395	0	10000	1	1	0	1	0
14	396	0	10000	1	1	0	1	0
14	397	0	10000	1	1	0	1	0
13	398	0	10000	1	1	0	1	0
14	399	0	10000	1	1	0	1	0
15	400	0	10000	1	1	0	1	0
16	401	0	10000	1	1	0	1	0
18	401	0	10000	1	1	0	1	0
17	402	0	10000	1	1	0	1	0
16	404	0	10000	1	1	0	1	0
16	405	0	10000	1	1	0	1	0
17	406	0	10000	1	1	0	1	0
17	407	0	10000	1	1	0	1	0
18	408	0	10000	1	1	0	1	0
16	409	0	10000	1	1	0	1	0
16	410	0	10000	1	1	0	1	0
16	411	0	10000	1	1	0	1	0
15	411	0	10000	1	1	0	1	0
16	412	0	10000	1	1	0	1	0
16	414	0	10000	1	1	0	1	0
16	415	0	10000	1	1	0	1	0
14	416	0	10000	1	1	0	1	0
14	417	0	10000	1	1	0	1	0
14	418	0	10000	1	1	0	1	0
15	419	0	10000	1	1	0	1	0
15	420	0	10000	1	1	0	1	0
15	421	0	10000	1	1	0	1	0
16	421	0	10000	1	1	0	1	0
15	422	0	10000	1	1	0	1	0
15	424	0	10000	1	1	0	1	0
15	425	0	10000	1	1	0	1	0
17	426	0	10000	1	1	0	1	0
16	427	0	10000	1	1	0	1	0
16	428	0	10000	1	1	0	1	0
15	429	0	10000	1	1	0	1	0
15	430	0	10000	1	1	0	1	0
15	431	0	10000	1	1	0	1	0
14	431	0	10000	1	1	0	1	0
16	432	0	10000	1	1	0	1	0
15	434	0	10000	1	1	0	1	0
15	435	0	10000	1	1	0	1	0
13	436	0	10000	1	1	0	1	0
13	437	0	10000	1	1	0	1	0
13	438	0	10000	1	1	0	1	0
13	439	0	10000	1	1	0	1	0
13	440	0	10000	1	1	0	1	0
12	441	0	10000	1	1	0	1	0
13	441	0	10000	1	1	0	1	0
12	442	0	10000	1	1	0	1	0
12	444	0	10000	1	1	0	1	0
11	445	0	10000	1	1	0	1	0
14	446	0	10000	1	1	0	1	0
13	447	0	10000	1	1	0	1	0
12	448	0	10000	1	1	0	1	0
12	449	0	10000	1	1	0	1	0
12	450	0	10000	1	1	0	1	0
12	451	0	10000	1	1	0	1	0
11	451	0	10000	1	1	0	1	0
13	452	0	10000	1	1	0	1	0
13	454	0	10000	1	1	0	1	0
14	455	0	10000	1	1	0	1	0
12	456	0	10000	1	1	0	1	0
13	457	0	10000	1	1	0	1	0
15	458	0	10000	1	1	0	1	0
15	459	0	10000	1	1	0	1	0
15	460	0	10000	1	1	0	1	0
15	461	0	10000	1	1	0	1	0
16	461	0	10000	1	1	0	1	0
15	462	0	10000	1	1	0	1	0
15	464	0	10000	1	1	0	1	0
17	465	0	10000	1	1	0	1	0
17	466	0	10000	1	1	0	1	0
17	467	0	10000	1	1	0	1	0
17	468	0	10000	1	1	0	1	0
17	469	0	10000	1	1	0	1	0
16	470	0	10000	1	1	0	1	0
15	471	0	10000	1	1	0	1	0
15	471	0	10000	1	1	0	1	0
15	472	0	10000	1	1	0	1	0
16	474	0	10000	1	1	0	1	0
16	475	0	10000	1	1	0	1	0
13	476	0	10000	1	1	0	1	0
14	477	0	10000	1	1	0	1	0
15	478	0	10000	1	1	0	1	0
16	479	0	10000	1	1	0	1	0
17	480	0	10000	1	1	0	1	0
17	481	0	10000	1	1	0	1	0
16	481	0	10000	1	1	0	1	0
17	482	0	10000	1	1	0	1	0
15	484	0	10000	1	1	0	1	0
16	485	0	10000	1	1	0	1	0
20	486	0	10000	1	1	0	1	0
19	487	0	10000	1	1	0	1	0
19	488	0	10000	1	1	0	1	0
18	489	0	10000	1	1	0	1	0
18	490	0	10000	1	1	0	1	0
18	491	0	10000	1	1	0	1	0
17	491	0	10000	1	1	0	1	0
17	492	0	10000	1	1	0	1	0
18	494	0	10000	1	1	0	1	0
19	495	0	10000	1	1	0	1	0
15	496	0	10000	1	1	0	1	0
16	497	0	10000	1	1	0	1	0
15	498	0	10000	1	1	0	1	0
17	499	0	10000	1	1	0	1	0
19	500	0	10000	1	1	0	1	0
20	501	0	10000	1	1	0	1	0
21	521	0	10000	1	1	0	1	1
20	522	0	10000	1	1	0	1	1
19	523	0	10000	1	1	0	1	1
20	524	0	10000	1	1	0	1	1
20	525	0	10000	1	1	0	1	1
20	526	0	10000	1	1	0	1	1
19	527	0	10000	1	1	0	1	1
19	528	0	10000	1	1	0	1	1
20	529	0	10000	1	1	0	1	1
21	530	0	10000	1	1	0	1	1
20	531	0	10000	1	1	0	1	1
21	532	0	10000	1	1	0	1	1
22	533	0	10000	1	1	0	1	1
21	534	0	10000	1	1	0	1	1
19	535	0	10000	1	1	0	1	1
19	536	0	10000	1	1	0	1	1
19	537	0	10000	1	1	0	1	1
20	538	0	10000	1	1	0	1	1
19	539	0	10000	1	1	0	1	1
18	540	0	10000	1	1	0	1	1
18	541	0	10000	1	1	0	1	1
17	542	0	10000	1	1	0	1	1
16	526	0	10000	1	1	0	1	1
16	527	0	10000	1	1	0	1	1
18	528	0	10000	1	1	0	1	1
17	529	0	10000	1	1	0	1	1
16	528	0	10000	1	1	0	1	1
16	529	0	10000	1	1	0	1	1
17	530	0	10000	1	1	0	1	1
18	531	0	10000	1	1	0	1	1
18	532	0	10000	1	1	0	1	1
19	533	0	10000	1	1	0	1	1
19	534	0	10000	1	1	0	1	1
19	535	0	10000	1	1	0	1	1
17	536	0	10000	1	1	0	1	1
17	537	0	10000	1	1	0	1	1
17	538	0	10000	1	1	0	1	1
17	539	0	10000	1	1	0	1	1
16	540	0	10000	1	1	0	1	1
17	541	0	10000	1	1	0	1	1
16	542	0	10000	1	1	0	1	1
15	543	0	10000	1	1	0	1	1
14	544	0	10000	1	1	0	1	1
14	545	0	10000	1	1	0	1	1
16	546	0	10000	1	1	0	1	1
15	547	0	10000	1	1	0	1	1
14	548	0	10000	1	1	0	1	1
14	549	0	10000	1	1	0	1	1
15	550	0	10000	1	1	0	1	1
14	551	0	10000	1	1	0	1	1
14	551	0	10000	1	1	0	1	0
14	552	0	10000	1	1	0	1	0
14	554	0	10000	1	1	0	1	0
14	555	0	10000	1	1	0	1	0
12	556	0	10000	1	1	0	1	0
12	557	0	10000	1	1	0	1	0
12	558	0	10000	1	1	0	1	0
12	559	0	10000	1	1	0	1	0
13	560	0	10000	1	1	0	1	0
13	561	0	10000	1	1	0	1	0
13	561	0	10000	1	1	0	1	0
12	562	0	10000	1	1	0	1	0
12	564	0	10000	1	1	0	1	0
12	565	0	10000	1	1	0	1	0
14	566	0	10000	1	1	0	1	0
13	567	0	10000	1	1	0	1	0
13	568	0	10000	1	1	0	1	0
12	569	0	10000	1	1	0	1	0
12	570	0	10000	1	1	0	1	0
12	571	0	10000	1	1	0	1	0
12	571	0	10000	1	1	0	1	0
12	572	0	10000	1	1	0	1	0
12	574	0	10000	1	1	0	1	0
13	575	0	10000	1	1	0	1	0
11	576	0	10000	1	1	0	1	0
12	577	0	10000	1	1	0	1	0
12	578	0	10000	1	1	0	1	0
13	579	0	10000	1	1	0	1	0
13	580	0	10000	1	1	0	1	0
13	581	0	10000	1	1	0	1	0
13	581	0	10000	1	1	0	1	0
12	582	0	10000	1	1	0	1	0
12	584	0	10000	1	1	0	1	0
12	585	0	10000	1	1	0	1	0
14	586	0	10000	1	1	0	1	0
13	587	0	10000	1	1	0	1	0
13	588	0	10000	1	1	0	1	0
13	589	0	10000	1	1	0	1	0
13	590	0	10000	1	1	0	1	0
13	591	0	10000	1	1	0	1	0
12	591	0	10000	1	1	0	1	0
13	592	0	10000	1	1	0	1	0
13	594	0	10000	1	1	0	1	0
13	595	0	10000	1	1	0	1	0
12	596	0	10000	1	1	0	1	0
11	597	0	10000	1	1	0	1	0
11	598	0	10000	1	1	0	1	0
11	599	0	10000	1	1	0	1	0
11	600	0	10000	1	1	0	1	0
11	601	0	10000	1	1	0	1	0
12	601	0	10000	1	1	0	1	0
11	602	0	10000	1	1	0	1	0
10	604	0	10000	1	1	0	1	0
10	605	0	10000	1	1	0	1	0
12	606	0	10000	1	1	0	1	0
11	607	0	10000	1	1	0	1	0
12	608	0	10000	1	1	0	1	0
11	609	0	10000	1	1	0	1	0
11	610	0	10000	1	1	0	1	0
11	611	0	10000	1	1	0	1	0
11	611	0	10000	1	1	0	1	0
12	612	0	10000	1	1	0	1	0
12	614	0	10000	1	1	0	1	0
14	615	0	10000	1	1	0	1	0
14	616	0	10000	1	1	0	1	0
14	617	0	10000	1	1	0	1	0
24	618	0	10000	1	1	0	1	0
37	619	0	10000	1	1	0	1	0
38	620	0	10000	1	1	0	1	0
40	621	0	10000	1	1	0	1	0
40	621	0	10000	1	1	0	1	0
40	622	0	10000	1	1	0	1	0
42	624	0	10000	1	1	0	1	0
51	625	0	10000	1	1	0	1	0
65	626	0	10000	1	1	0	1	0
97	627	0	10000	1	1	0	1	0
115	628	0	10000	1	1	0	1	0
117	629	0	10000	1	1	0	1	0
131	630	0	10000	1	1	0	1	0
154	631	0	10000	1	1	0	1	0
170	631	0	10000	1	1	0	1	0
181	632	0	10000	1	1	0	1	0
188	634	0	10000	1	1	0	1	0
188	635	0	10000	1	1	0	1	0
180	636	0	10000	1	1	0	1	0
179	637	0	10000	1	1	0	1	0
173	638	0	10000	1	1	0	1	0
166	639	0	10000	1	1	0	1	0
162	640	0	10000	1	1	0	1	0
157	641	0	10000	1	1	0	1	0
155	641	0	10000	1	1	0	1	0
150	642	0	10000	1	1	0	1	0
145	644	0	10000	1	1	0	1	0
140	645	0	10000	1	1	0	1	0
136	646	0	10000	1	1	0	1	0
132	647	0	10000	1	1	0	1	0
128	648	0	10000	1	1	0	1	0
124	649	0	10000	1	1	0	1	0
133	650	0	10000	1	1	0	1	0
157	651	0	10000	1	1	0	1	0
198	651	0	10000	1	1	0	1	0
220	652	0	10000	1	1	0	1	0
216	654	0	10000	1	1	0	1	0
229	655	0	10000	1	1	0	1	0
247	656	0	10000	1	1	0	1	0
260	657	0	10000	1	1	0	1	0
266	658	0	10000	1	1	0	1	0
265	659	0	10000	1	1	0	1	0
260	660	0	10000	1	1	0	1	0
253	661	0	10000	1	1	0	1	0
245	661	0	10000	1	1	0	1	0
236	662	0	10000	1	1	0	1	0
226	664	0	10000	1	1	0	1	0
216	665	0	10000	1	1	0	1	0
209	666	0	10000	1	1	0	1	0
199	667	0	10000	1	1	0	1	0
190	668	0	10000	1	1	0	1	0
181	669	0	10000	1	1	0	1	0
173	670	0	10000	1	1	0	1	0
165	671	0	10000	1	1	0	1	0
158	671	0	10000	1	1	0	1	0
152	672	0	10000	1	1	0	1	0
146	674	0	10000	1	1	0	1	0
139	675	0	10000	1	1	0	1	0
132	676	0	10000	1	1	0	1	0
127	677	0	10000	1	1	0	1	0
121	678	0	10000	1	1	0	1	0
117	679	0	10000	1	1	0	1	0
114	680	0	10000	1	1	0	1	0
110	681	0	10000	1	1	0	1	0
107	681	0	10000	1	1	0	1	0
105	682	0	10000	1	1	0	1	0
102	684	0	10000	1	1	0	1	0
100	685	0	10000	1	1	0	1	0
101	686	0	10000	1	1	0	1	0
101	687	0	10000	1	1	0	1	0
99	688	0	10000	1	1	0	1	0
96	689	0	10000	1	1	0	1	0
92	690	0	10000	1	1	0	1	0
88	691	0	10000	1	1	0	1	0
85	691	0	10000	1	1	0	1	0
82	692	0	10000	1	1	0	1	0
80	694	0	10000	1	1	0	1	0
78	695	0	10000	1	1	0	1	0
73	696	0	10000	1	1	0	1	0
71	697	0	10000	1	1	0	1	0
70	698	0	10000	1	1	0	1	0
68	699	0	10000	1	1	0	1	0
65	700	0	10000	1	1	0	1	0
62	701	0	10000	1	1	0	1	0
60	701	0	10000	1	1	0	1	0
57	702	0	10000	1	1	0	1	0
55	704	0	10000	1	1	0	1	0
55	705	0	10000	1	1	0	1	0
56	706	0	10000	1	1	0	1	0
53	707	0	10000	1	1	0	1	0
51	708	0	10000	1	1	0	1	0
48	709	0	10000	1	1	0	1	0
47	710	0	10000	1	1	0	1	0
44	711	0	10000	1	1	0	1	0
43	711	0	10000	1	1	0	1	0
42	712	0	10000	1	1	0	1	0
40	714	0	10000	1	1	0	1	0
39	715	0	10000	1	1	0	1	0
36	716	0	10000	1	1	0	1	0
34	717	0	10000	1	1	0	1	0
34	718	0	10000	1	1	0	1	0
34	719	0	10000	1	1	0	1	0
32	720	0	10000	1	1	0	1	0
32	721	0	10000	1	1	0	1	0
32	721	0	10000	1	1	0	1	0
32	722	0	10000	1	1	0	1	0
32	724	0	10000	1	1	0	1	0
32	725	0	10000	1	1	0	1	0
32	726	0	10000	1	1	0	1	0
32	727	0	10000	1	1	0	1	0
31	728	0	10000	1	1	0	1	0
30	729	0	10000	1	1	0	1	0
30	730	0	10000	1	1	0	1	0
28	731	0	10000	1	1	0	1	0
27	731	0	10000	1	1	0	1	0
27	732	0	10000	1	1	0	1	0
28	734	0	10000	1	1	0	1	0
29	735	0	10000	1	1	0	1	0
29	736	0	10000	1	1	0	1	0
30	737	0	10000	1	1	0	1	0
30	738	0	10000	1	1	0	1	0
32	739	0	10000	1	1	0	1	0
33	740	0	10000	1	1	0	1	0
33	741	0	10000	1	1	0	1	0
32	741	0	10000	1	1	0	1	0
32	742	0	10000	1	1	0	1	0
32	744	0	10000	1	1	0	1	0
30	745	0	10000	1	1	0	1	0
32	746	0	10000	1	1	0	1	0
31	747	0	10000	1	1	0	1	0
30	748	0	10000	1	1	0	1	0
29	749	0	10000	1	1	0	1	0
28	750	0	10000	1	1	0	1	0
27	751	0	10000	1	1	0	1	0
26	751	0	10000	1	1	0	1	0
27	752	0	10000	1	1	0	1	0
28	754	0	10000	1	1	0	1	0
28	755	0	10000	1	1	0	1	0
25	756	0	10000	1	1	0	1	0
25	757	0	10000	1	1	0	1	0
26	758	0	10000	1	1	0	1	0
25	759	0	10000	1	1	0	1	0
26	760	0	10000	1	1	0	1	0
25	761	0	10000	1	1	0	1	0
26	761	0	10000	1	1	0	1	0
25	762	0	10000	1	1	0	1	0
24	764	0	10000	1	1	0	1	0
23	765	0	10000	1	1	0	1	0
26	766	0	10000	1	1	0	1	0
25	767	0	10000	1	1	0	1	0
24	768	0	10000	1	1	0	1	0
24	769	0	10000	1	1	0	1	0
24	770	0	10000	1	1	0	1	0
24	771	0	10000	1	1	0	1	0
22	771	0	10000	1	1	0	1	0
22	772	0	10000	1	1	0	1	0
24	774	0	10000	1	1	0	1	0
26	775	0	10000	1	1	0	1	0
28	776	0	10000	1	1	0	1	0
30	777	0	10000	1	1	0	1	0
32	778	0	10000	1	1	0	1	0
35	779	0	10000	1	1	0	1	0
41	780	0	10000	1	1	0	1	0
41	781	0	10000	1	1	0	1	0
41	781	0	10000	1	1	0	1	0
40	782	0	10000	1	1	0	1	0
40	784	0	10000	1	1	0	1	0
43	785	0	10000	1	1	0	1	0
46	786	0	10000	1	1	0	1	0
54	787	0	10000	1	1	0	1	0
60	788	0	10000	1	1	0	1	0
62	789	0	10000	1	1	0	1	0
67	790	0	10000	1	1	0	1	0
71	791	0	10000	1	1	0	1	0
73	791	0	10000	1	1	0	1	0
86	792	0	10000	1	1	0	1	0
91	794	0	10000	1	1	0	1	0
95	795	0	10000	1	1	0	1	0
100	796	0	10000	1	1	0	1	0
115	797	0	10000	1	1	0	1	0
121	798	0	10000	1	1	0	1	0
130	799	0	10000	1	1	0	1	0
141	800	0	10000	1	1	0	1	0
144	801	0	10000	1	1	0	1	0
141	801	0	10000	1	1	0	1	0
137	802	0	10000	1	1	0	1	0
134	804	0	10000	1	1	0	1	0
132	805	0	10000	1	1	0	1	0
144	806	0	10000	1	1	0	1	0
147	807	0	10000	1	1	0	1	0
145	808	0	10000	1	1	0	1	0
142	809	0	10000	1	1	0	1	0
138	810	0	10000	1	1	0	1	0
133	811	0	10000	1	1	0	1	0
131	811	0	10000	1	1	0	1	0
128	812	0	10000	1	1	0	1	0
128	814	0	10000	1	1	0	1	0
132	815	0	10000	1	1	0	1	0
127	816	0	10000	1	1	0	1	0
122	817	0	10000	1	1	0	1	0
128	818	0	10000	1	1	0	1	0
135	819	0	10000	1	1	0	1	0
130	820	0	10000	1	1	0	1	0
128	821	0	10000	1	1	0	1	0
125	821	0	10000	1	1	0	1	0
120	822	0	10000	1	1	0	1	0
115	824	0	10000	1	1	0	1	0
113	825	0	10000	1	1	0	1	0
115	826	0	10000	1	1	0	1	0
115	827	0	10000	1	1	0	1	0
113	828	0	10000	1	1	0	1	0
110	829	0	10000	1	1	0	1	0
108	830	0	10000	1	1	0	1	0
105	831	0	10000	1	1	0	1	0
103	831	0	10000	1	1	0	1	0
99	832	0	10000	1	1	0	1	0
97	834	0	10000	1	1	0	1	0
95	835	0	10000	1	1	0	1	0
90	836	0	10000	1	1	0	1	0
88	837	0	10000	1	1	0	1	0
86	838	0	10000	1	1	0	1	0
84	839	0	10000	1	1	0	1	0
82	840	0	10000	1	1	0	1	0
80	841	0	10000	1	1	0	1	0
78	841	0	10000	1	1	0	1	0
75	842	0	10000	1	1	0	1	0
71	844	0	10000	1	1	0	1	0
68	845	0	10000	1	1	0	1	0
70	846	0	10000	1	1	0	1	0
68	847	0	10000	1	1	0	1	0
68	848	0	10000	1	1	0	1	0
68	849	0	10000	1	1	0	1	0
70	850	0	10000	1	1	0	1	0
73	851	0	10000	1	1	0	1	0
75	851	0	10000	1	1	0	1	0
80	852	0	10000	1	1	0	1	0
83	854	0	10000	1	1	0	1	0
87	855	0	10000	1	1	0	1	0
89	856	0	10000	1	1	0	1	0
94	857	0	10000	1	1	0	1	0
99	858	0	10000	1	1	0	1	0
103	859	0	10000	1	1	0	1	0
107	860	0	10000	1	1	0	1	0
111	861	0	10000	1	1	0	1	0
115	861	0	10000	1	1	0	1	0
117	862	0	10000	1	1	0	1	0
116	864	0	10000	1	1	0	1	0
116	865	0	10000	1	1	0	1	0
119	866	0	10000	1	1	0	1	0
119	867	0	10000	1	1	0	1	0
120	868	0	10000	1	1	0	1	0
118	869	0	10000	1	1	0	1	0
119	870	0	10000	1	1	0	1	0
122	871	0	10000	1	1	0	1	0
122	871	0	10000	1	1	0	1	0
123	872	0	10000	1	1	0	1	0
123	874	0	10000	1	1	0	1	0
121	875	0	10000	1	1	0	1	0
116	876	0	10000	1	1	0	1	0
113	877	0	10000	1	1	0	1	0
111	878	0	10000	1	1	0	1	0
110	879	0	10000	1	1	0	1	0
109	880	0	10000	1	1	0	1	0
106	881	0	10000	1	1	0	1	0
105	881	0	10000	1	1	0	1	0
103	882	0	10000	1	1	0	1	0
101	884	0	10000	1	1	0	1	0
99	885	0	10000	1	1	0	1	0
99	886	0	10000	1	1	0	1	0
96	887	0	10000	1	1	0	1	0
92	888	0	10000	1	1	0	1	0
90	889	0	10000	1	1	0	1	0
87	890	0	10000	1	1	0	1	0
86	891	0	10000	1	1	0	1	0
81	891	0	10000	1	1	0	1	0
80	892	0	10000	1	1	0	1	0
78	894	0	10000	1	1	0	1	0
76	895	0	10000	1	1	0	1	0
73	896	0	10000	1	1	0	1	0
71	897	0	10000	1	1	0	1	0
71	898	0	10000	1	1	0	1	0
68	899	0	10000	1	1	0	1	0
67	900	0	10000	1	1	0	1	0
67	901	0	10000	1	1	0	1	0
67	901	0	10000	1	1	0	1	0
67	902	0	10000	1	1	0	1	0
65	904	0	10000	1	1	0	1	0
62	905	0	10000	1	1	0	1	0
63	906	0	10000	1	1	0	1	0
61	907	0	10000	1	1	0	1	0
59	908	0	10000	1	1	0	1	0
58	909	0	10000	1	1	0	1	0
57	910	0	10000	1	1	0	1	0
57	911	0	10000	1	1	0	1	0
56	911	0	10000	1	1	0	1	0
56	912	0	10000	1	1	0	1	0
56	914	0	10000	1	1	0	1	0
56	915	0	10000	1	1	0	1	0
56	916	0	10000	1	1	0	1	0
56	917	0	10000	1	1	0	1	0
58	918	0	10000	1	1	0	1	0
59	919	0	10000	1	1	0	1	0
60	920	0	10000	1	1	0	1	0
61	921	0	10000	1	1	0	1	0
61	921	0	10000	1	1	0	1	0
59	922	0	10000	1	1	0	1	0
57	924	0	10000	1	1	0	1	0
55	925	0	10000	1	1	0	1	0
55	926	0	10000	1	1	0	1	0
54	927	0	10000	1	1	0	1	0
52	928	0	10000	1	1	0	1	0
51	929	0	10000	1	1	0	1	0
49	930	0	10000	1	1	0	1	0
48	931	0	10000	1	1	0	1	0
49	931	0	10000	1	1	0	1	0
49	932	0	10000	1	1	0	1	0
50	934	0	10000	1	1	0	1	0
52	935	0	10000	1	1	0	1	0
51	936	0	10000	1	1	0	1	0
53	937	0	10000	1	1	0	1	0
55	938	0	10000	1	1	0	1	0
57	939	0	10000	1	1	0	1	0
59	940	0	10000	1	1	0	1	0
58	941	0	10000	1	1	0	1	0
58	941	0	10000	1	1	0	1	0
56	942	0	10000	1	1	0	1	0
53	944	0	10000	1	1	0	1	0
51	945	0	10000	1	1	0	1	0
51	946	0	10000	1	1	0	1	0
50	947	0	10000	1	1	0	1	0
47	948	0	10000	1	1	0	1	0
46	949	0	10000	1	1	0	1	0
46	950	0	10000	1	1	0	1	0
44	951	0	10000	1	1	0	1	0
43	951	0	10000	1	1	0	1	0
42	952	0	10000	1	1	0	1	0
42	954	0	10000	1	1	0	1	0
40	955	0	10000	1	1	0	1	0
37	956	0	10000	1	1	0	1	0
36	957	0	10000	1	1	0	1	0
35	958	0	10000	1	1	0	1	0
34	959	0	10000	1	1	0	1	0
34	960	0	10000	1	1	0	1	0
33	961	0	10000	1	1	0	1	0
33	961	0	10000	1	1	0	1	0
34	962	0	10000	1	1	0	1	0
32	964	0	10000	1	1	0	1	0
32	965	0	10000	1	1	0	1	0
33	966	0	10000	1	1	0	1	0
31	967	0	10000	1	1	0	1	0
32	968	0	10000	1	1	0	1	0
31	969	0	10000	1	1	0	1	0
30	970	0	10000	1	1	0	1	0
29	971	0	10000	1	1	0	1	0
28	971	0	10000	1	1	0	1	0
27	972	0	10000	1	1	0	1	0
27	974	0	10000	1	1	0	1	0
26	975	0	10000	1	1	0	1	0
25	976	0	10000	1	1	0	1	0
26	977	0	10000	1	1	0	1	0
26	978	0	10000	1	1	0	1	0
26	979	0	10000	1	1	0	1	0
25	980	0	10000	1	1	0	1	0
25	981	0	10000	1	1	0	1	0
25	981	0	10000	1	1	0	1	0
23	982	0	10000	1	1	0	1	0
22	984	0	10000	1	1	0	1	0
21	985	0	10000	1	1	0	1	0
23	986	0	10000	1	1	0	1	0
22	987	0	10000	1	1	0	1	0
21	988	0	10000	1	1	0	1	0
20	989	0	10000	1	1	0	1	0
20	990	0	10000	1	1	0	1	0
19	991	0	10000	1	1	0	1	0
18	991	0	10000	1	1	0	1	0
20	992	0	10000	1	1	0	1	0
19	994	0	10000	1	1	0	1	0
20	995	0	10000	1	1	0	1	0
18	996	0	10000	1	1	0	1	0
19	997	0	10000	1	1	0	1	0
21	998	0	10000	1	1	0	1	0
22	999	0	10000	1	1	0	1	0
22	1000	0	10000	1	1	0	1	0
22	1001	0	10000	1	1	0	1	0
15	1	10	10000	2	1	0	2	0
13	2	10	10000	2	1	0	2	0
13	3	10	10000	2	1	0	2	0
13	4	10	10000	2	1	0	2	0
14	5	10	10000	2	1	0	2	0
15	6	10	10000	2	1	0	2	0
14	7	10	10000	2	1	0	2	0
14	8	10	10000	2	1	0	2	0
14	9	10	10000	2	1	0	2	0
13	10	10	10000	2	1	0	2	0
12	11	10	10000	2	1	0	2	0
13	12	10	10000	2	1	0	2	0
13	13	10	10000	2	1	0	2	0
14	14	10	10000	2	1	0	2	0
12	15	10	10000	2	1	0	2	0
12	16	10	10000	2	1	0	2	0
12	17	10	10000	2	1	0	2	0
12	18	10	10000	2	1	0	2	0
12	19	10	10000	2	1	0	2	0
13	20	10	10000	2	1	0	2	0
12	20	10	10000	2	1	0	2	0
12	21	10	10000	2	1	0	2	0
12	23	10	10000	2	1	0	2	0
12	24	10	10000	2	1	0	2	0
14	25	10	10000	2	1	0	2	0
14	26	10	10000	2	1	0	2	0
14	27	10	10000	2	1	0	2	0
14	28	10	10000	2	1	0	2	0
13	29	10	10000	2	1	0	2	0
13	30	10	10000	2	1	0	2	0
13	30	10	10000	2	1	0	2	0
12	31	10	10000	2	1	0	2	0
13	33	10	10000	2	1	0	2	0
14	34	10	10000	2	1	0	2	0
11	35	10	10000	2	1	0	2	0
11	36	10	10000	2	1	0	2	0
11	37	10	10000	2	1	0	2	0
11	38	10	10000	2	1	0	2	0
11	39	10	10000	2	1	0	2	0
12	40	10	10000	2	1	0	2	0
11	40	10	10000	2	1	0	2	0
11	41	10	10000	2	1	0	2	0
11	43	10	10000	2	1	0	2	0
10	44	10	10000	2	1	0	2	0
12	45	10	10000	2	1	0	2	0
12	46	10	10000	2	1	0	2	0
12	47	10	10000	2	1	0	2	0
12	48	10	10000	2	1	0	2	0
12	49	10	10000	2	1	0	2	0
12	50	10	10000	2	1	0	2	0
12	50	10	10000	2	1	0	2	0
11	51	10	10000	2	1	0	2	0
12	53	10	10000	2	1	0	2	0
12	54	10	10000	2	1	0	2	0
10	55	10	10000	2	1	0	2	0
10	56	10	10000	2	1	0	2	0
10	57	10	10000	2	1	0	2	0
10	58	10	10000	2	1	0	2	0
11	59	10	10000	2	1	0	2	0
11	60	10	10000	2	1	0	2	0
10	60	10	10000	2	1	0	2	0
11	61	10	10000	2	1	0	2	0
10	63	10	10000	2	1	0	2	0
10	64	10	10000	2	1	0	2	0
12	65	10	10000	2	1	0	2	0
13	66	10	10000	2	1	0	2	0
12	67	10	10000	2	1	0	2	0
12	68	10	10000	2	1	0	2	0
12	69	10	10000	2	1	0	2	0
12	70	10	10000	2	1	0	2	0
11	70	10	10000	2	1	0	2	0
11	71	10	10000	2	1	0	2	0
11	73	10	10000	2	1	0	2	0
12	74	10	10000	2	1	0	2	0
11	75	10	10000	2	1	0	2	0
11	76	10	10000	2	1	0	2	0
12	77	10	10000	2	1	0	2	0
12	78	10	10000	2	1	0	2	0
12	79	10	10000	2	1	0	2	0
12	80	10	10000	2	1	0	2	0
13	80	10	10000	2	1	0	2	0
12	81	10	10000	2	1	0	2	0
11	83	10	10000	2	1	0	2	0
11	84	10	10000	2	1	0	2	0
13	85	10	10000	2	1	0	2	0
13	86	10	10000	2	1	0	2	0
13	87	10	10000	2	1	0	2	0
12	88	10	10000	2	1	0	2	0
12	89	10	10000	2	1	0	2	0
12	90	10	10000	2	1	0	2	0
13	90	10	10000	2	1	0	2	0
13	91	10	10000	2	1	0	2	0
14	93	10	10000	2	1	0	2	0
14	94	10	10000	2	1	0	2	0
13	95	10	10000	2	1	0	2	0
11	96	10	10000	2	1	0	2	0
12	97	10	10000	2	1	0	2	0
13	98	10	10000	2	1	0	2	0
13	99	10	10000	2	1	0	2	0
12	100	10	10000	2	1	0	2	0
12	100	10	10000	2	1	0	2	0
13	101	10	10000	2	1	0	2	0
13	103	10	10000	2	1	0	2	0
14	104	10	10000	2	1	0	2	0
17	105	10	10000	2	1	0	2	0
20	106	10	10000	2	1	0	2	0
21	107	10	10000	2	1	0	2	0
22	108	10	10000	2	1	0	2	0
23	109	10	10000	2	1	0	2	0
22	110	10	10000	2	1	0	2	0
22	110	10	10000	2	1	0	2	0
22	111	10	10000	2	1	0	2	0
22	113	10	10000	2	1	0	2	0
22	114	10	10000	2	1	0	2	0
21	115	10	10000	2	1	0	2	0
23	116	10	10000	2	1	0	2	0
23	117	10	10000	2	1	0	2	0
23	118	10	10000	2	1	0	2	0
27	119	10	10000	2	1	0	2	0
32	120	10	10000	2	1	0	2	0
35	120	10	10000	2	1	0	2	0
40	121	10	10000	2	1	0	2	0
44	123	10	10000	2	1	0	2	0
49	124	10	10000	2	1	0	2	0
55	125	10	10000	2	1	0	2	0
58	126	10	10000	2	1	0	2	0
58	127	10	10000	2	1	0	2	0
57	128	10	10000	2	1	0	2	0
57	129	10	10000	2	1	0	2	0
57	130	10	10000	2	1	0	2	0
59	130	10	10000	2	1	0	2	0
62	131	10	10000	2	1	0	2	0
65	133	10	10000	2	1	0	2	0
70	134	10	10000	2	1	0	2	0
72	135	10	10000	2	1	0	2	0
71	136	10	10000	2	1	0	2	0
69	137	10	10000	2	1	0	2	0
66	138	10	10000	2	1	0	2	0
64	139	10	10000	2	1	0	2	0
63	140	10	10000	2	1	0	2	0
63	140	10	10000	2	1	0	2	0
62	141	10	10000	2	1	0	2	0
60	143	10	10000	2	1	0	2	0
59	144	10	10000	2	1	0	2	0
61	145	10	10000	2	1	0	2	0
62	146	10	10000	2	1	0	2	0
63	147	10	10000	2	1	0	2	0
64	148	10	10000	2	1	0	2	0
64	149	10	10000	2	1	0	2	0
66	150	10	10000	2	1	0	2	0
68	150	10	10000	2	1	0	2	0
71	151	10	10000	2	1	0	2	0
74	153	10	10000	2	1	0	2	0
76	154	10	10000	2	1	0	2	0
75	155	10	10000	2	1	0	2	0
74	156	10	10000	2	1	0	2	0
73	157	10	10000	2	1	0	2	0
73	158	10	10000	2	1	0	2	0
74	159	10	10000	2	1	0	2	0
75	160	10	10000	2	1	0	2	0
76	160	10	10000	2	1	0	2	0
76	161	10	10000	2	1	0	2	0
76	163	10	10000	2	1	0	2	0
76	164	10	10000	2	1	0	2	0
77	165	10	10000	2	1	0	2	0
76	166	10	10000	2	1	0	2	0
76	167	10	10000	2	1	0	2	0
75	168	10	10000	2	1	0	2	0
74	169	10	10000	2	1	0	2	0
74	170	10	10000	2	1	0	2	0
72	170	10	10000	2	1	0	2	0
71	171	10	10000	2	1	0	2	0
70	173	10	10000	2	1	0	2	0
69	174	10	10000	2	1	0	2	0
65	175	10	10000	2	1	0	2	0
63	176	10	10000	2	1	0	2	0
61	177	10	10000	2	1	0	2	0
61	178	10	10000	2	1	0	2	0
60	179	10	10000	2	1	0	2	0
59	180	10	10000	2	1	0	2	0
58	180	10	10000	2	1	0	2	0
55	181	10	10000	2	1	0	2	0
54	183	10	10000	2	1	0	2	0
53	184	10	10000	2	1	0	2	0
52	185	10	10000	2	1	0	2	0
51	186	10	10000	2	1	0	2	0
49	187	10	10000	2	1	0	2	0
47	188	10	10000	2	1	0	2	0
45	189	10	10000	2	1	0	2	0
44	190	10	10000	2	1	0	2	0
43	190	10	10000	2	1	0	2	0
41	191	10	10000	2	1	0	2	0
39	193	10	10000	2	1	0	2	0
39	194	10	10000	2	1	0	2	0
36	195	10	10000	2	1	0	2	0
35	196	10	10000	2	1	0	2	0
34	197	10	10000	2	1	0	2	0
34	198	10	10000	2	1	0	2	0
33	199	10	10000	2	1	0	2	0
32	200	10	10000	2	1	0	2	0
32	200	10	10000	2	1	0	2	0
32	201	10	10000	2	1	0	2	0
31	203	10	10000	2	1	0	2	0
31	204	10	10000	2	1	0	2	0
31	205	10	10000	2	1	0	2	0
31	206	10	10000	2	1	0	2	0
30	207	10	10000	2	1	0	2	0
29	208	10	10000	2	1	0	2	0
29	209	10	10000	2	1	0	2	0
28	210	10	10000	2	1	0	2	0
28	210	10	10000	2	1	0	2	0
28	211	10	10000	2	1	0	2	0
27	213	10	10000	2	1	0	2	0
26	214	10	10000	2	1	0	2	0
24	215	10	10000	2	1	0	2	0
23	216	10	10000	2	1	0	2	0
24	217	10	10000	2	1	0	2	0
23	218	10	10000	2	1	0	2	0
23	219	10	10000	2	1	0	2	0
24	220	10	10000	2	1	0	2	0
23	220	10	10000	2	1	0	2	0
22	221	10	10000	2	1	0	2	0
21	223	10	10000	2	1	0	2	0
20	224	10	10000	2	1	0	2	0
21	225	10	10000	2	1	0	2	0
21	226	10	10000	2	1	0	2	0
20	227	10	10000	2	1	0	2	0
21	228	10	10000	2	1	0	2	0
21	229	10	10000	2	1	0	2	0
20	230	10	10000	2	1	0	2	0
21	230	10	10000	2	1	0	2	0
20	231	10	10000	2	1	0	2	0
20	233	10	10000	2	1	0	2	0
20	234	10	10000	2	1	0	2	0
18	235	10	10000	2	1	0	2	0
17	236	10	10000	2	1	0	2	0
17	237	10	10000	2	1	0	2	0
17	238	10	10000	2	1	0	2	0
17	239	10	10000	2	1	0	2	0
16	240	10	10000	2	1	0	2	0
16	240	10	10000	2	1	0	2	0
16	241	10	10000	2	1	0	2	0
16	243	10	10000	2	1	0	2	0
16	244	10	10000	2	1	0	2	0
18	245	10	10000	2	1	0	2	0
18	246	10	10000	2	1	0	2	0
17	247	10	10000	2	1	0	2	0
17	248	10	10000	2	1	0	2	0
16	249	10	10000	2	1	0	2	0
16	250	10	10000	2	1	0	2	0
15	250	10	10000	2	1	0	2	0
15	251	10	10000	2	1	0	2	0
15	253	10	10000	2	1	0	2	0
15	254	10	10000	2	1	0	2	0
13	255	10	10000	2	1	0	2	0
13	256	10	10000	2	1	0	2	0
13	257	10	10000	2	1	0	2	0
13	258	10	10000	2	1	0	2	0
14	259	10	10000	2	1	0	2	0
13	260	10	10000	2	1	0	2	0
13	260	10	10000	2	1	0	2	0
14	261	10	10000	2	1	0	2	0
13	263	10	10000	2	1	0	2	0
13	264	10	10000	2	1	0	2	0
14	265	10	10000	2	1	0	2	0
14	266	10	10000	2	1	0	2	0
14	267	10	10000	2	1	0	2	0
15	268	10	10000	2	1	0	2	0
15	269	10	10000	2	1	0	2	0
15	270	10	10000	2	1	0	2	0
15	270	10	10000	2	1	0	2	0
15	271	10	10000	2	1	0	2	0
15	273	10	10000	2	1	0	2	0
16	274	10	10000	2	1	0	2	0
14	275	10	10000	2	1	0	2	0
14	276	10	10000	2	1	0	2	0
14	277	10	10000	2	1	0	2	0
14	278	10	10000	2	1	0	2	0
14	279	10	10000	2	1	0	2	0
13	280	10	10000	2	1	0	2	0
14	280	10	10000	2	1	0	2	0
14	281	10	10000	2	1	0	2	0
14	283	10	10000	2	1	0	2	0
13	284	10	10000	2	1	0	2	0
14	285	10	10000	2	1	0	2	0
14	286	10	10000	2	1	0	2	0
14	287	10	10000	2	1	0	2	0
14	288	10	10000	2	1	0	2	0
14	289	10	10000	2	1	0	2	0
15	290	10	10000	2	1	0	2	0
16	290	10	10000	2	1	0	2	0
18	291	10	10000	2	1	0	2	0
17	293	10	10000	2	1	0	2	0
17	294	10	10000	2	1	0	2	0
16	295	10	10000	2	1	0	2	0
14	296	10	10000	2	1	0	2	0
15	297	10	10000	2	1	0	2	0
15	298	10	10000	2	1	0	2	0
15	299	10	10000	2	1	0	2	0
14	300	10	10000	2	1	0	2	0
15	300	10	10000	2	1	0	2	0
14	301	10	10000	2	1	0	2	0
14	303	10	10000	2	1	0	2	0
13	304	10	10000	2	1	0	2	0
14	305	10	10000	2	1	0	2	0
15	306	10	10000	2	1	0	2	0
14	307	10	10000	2	1	0	2	0
14	308	10	10000	2	1	0	2	0
13	309	10	10000	2	1	0	2	0
13	310	10	10000	2	1	0	2	0
13	310	10	10000	2	1	0	2	0
13	311	10	10000	2	1	0	2	0
15	313	10	10000	2	1	0	2	0
15	314	10	10000	2	1	0	2	0
14	315	10	10000	2	1	0	2	0
13	316	10	10000	2	1	0	2	0
14	317	10	10000	2	1	0	2	0
14	318	10	10000	2	1	0	2	0
14	319	10	10000	2	1	0	2	0
14	320	10	10000	2	1	0	2	0
14	320	10	10000	2	1	0	2	0
13	321	10	10000	2	1	0	2	0
13	323	10	10000	2	1	0	2	0
13	324	10	10000	2	1	0	2	0
15	325	10	10000	2	1	0	2	0
15	326	10	10000	2	1	0	2	0
15	327	10	10000	2	1	0	2	0
14	328	10	10000	2	1	0	2	0
13	329	10	10000	2	1	0	2	0
13	330	10	10000	2	1	0	2	0
13	330	10	10000	2	1	0	2	0
12	331	10	10000	2	1	0	2	0
13	333	10	10000	2	1	0	2	0
13	334	10	10000	2	1	0	2	0
11	335	10	10000	2	1	0	2	0
10	336	10	10000	2	1	0	2	0
11	337	10	10000	2	1	0	2	0
11	338	10	10000	2	1	0	2	0
12	339	10	10000	2	1	0	2	0
13	340	10	10000	2	1	0	2	0
14	340	10	10000	2	1	0	2	0
15	341	10	10000	2	1	0	2	0
14	343	10	10000	2	1	0	2	0
14	344	10	10000	2	1	0	2	0
15	345	10	10000	2	1	0	2	0
15	346	10	10000	2	1	0	2	0
15	347	10	10000	2	1	0	2	0
14	348	10	10000	2	1	0	2	0
14	349	10	10000	2	1	0	2	0
16	350	10	10000	2	1	0	2	0
18	350	10	10000	2	1	0	2	0
20	351	10	10000	2	1	0	2	0
24	353	10	10000	2	1	0	2	0
25	354	10	10000	2	1	0	2	0
24	355	10	10000	2	1	0	2	0
23	356	10	10000	2	1	0	2	0
25	357	10	10000	2	1	0	2	0
26	358	10	10000	2	1	0	2	0
28	359	10	10000	2	1	0	2	0
30	360	10	10000	2	1	0	2	0
32	360	10	10000	2	1	0	2	0
33	361	10	10000	2	1	0	2	0
33	363	10	10000	2	1	0	2	0
34	364	10	10000	2	1	0	2	0
34	365	10	10000	2	1	0	2	0
34	366	10	10000	2	1	0	2	0
33	367	10	10000	2	1	0	2	0
32	368	10	10000	2	1	0	2	0
31	369	10	10000	2	1	0	2	0
30	370	10	10000	2	1	0	2	0
29	370	10	10000	2	1	0	2	0
28	371	10	10000	2	1	0	2	0
29	373	10	10000	2	1	0	2	0
29	374	10	10000	2	1	0	2	0
28	375	10	10000	2	1	0	2	0
28	376	10	10000	2	1	0	2	0
28	377	10	10000	2	1	0	2	0
28	378	10	10000	2	1	0	2	0
27	379	10	10000	2	1	0	2	0
26	380	10	10000	2	1	0	2	0
27	380	10	10000	2	1	0	2	0
27	381	10	10000	2	1	0	2	0
29	383	10	10000	2	1	0	2	0
29	384	10	10000	2	1	0	2	0
30	385	10	10000	2	1	0	2	0
30	386	10	10000	2	1	0	2	0
31	387	10	10000	2	1	0	2	0
31	388	10	10000	2	1	0	2	0
31	389	10	10000	2	1	0	2	0
32	390	10	10000	2	1	0	2	0
33	390	10	10000	2	1	0	2	0
33	391	10	10000	2	1	0	2	0
32	393	10	10000	2	1	0	2	0
33	394	10	10000	2	1	0	2	0
32	395	10	10000	2	1	0	2	0
32	396	10	10000	2	1	0	2	0
33	397	10	10000	2	1	0	2	0
33	398	10	10000	2	1	0	2	0
34	399	10	10000	2	1	0	2	0
33	400	10	10000	2	1	0	2	0
32	400	10	10000	2	1	0	2	0
32	401	10	10000	2	1	0	2	0
32	403	10	10000	2	1	0	2	0
31	404	10	10000	2	1	0	2	0
31	405	10	10000	2	1	0	2	0
31	406	10	10000	2	1	0	2	0
30	407	10	10000	2	1	0	2	0
29	408	10	10000	2	1	0	2	0
29	409	10	10000	2	1	0	2	0
28	410	10	10000	2	1	0	2	0
27	410	10	10000	2	1	0	2	0
26	411	10	10000	2	1	0	2	0
26	413	10	10000	2	1	0	2	0
27	414	10	10000	2	1	0	2	0
27	415	10	10000	2	1	0	2	0
26	416	10	10000	2	1	0	2	0
27	417	10	10000	2	1	0	2	0
25	418	10	10000	2	1	0	2	0
25	419	10	10000	2	1	0	2	0
25	420	10	10000	2	1	0	2	0
25	420	10	10000	2	1	0	2	0
24	421	10	10000	2	1	0	2	0
24	423	10	10000	2	1	0	2	0
23	424	10	10000	2	1	0	2	0
23	425	10	10000	2	1	0	2	0
24	426	10	10000	2	1	0	2	0
22	427	10	10000	2	1	0	2	0
23	428	10	10000	2	1	0	2	0
21	429	10	10000	2	1	0	2	0
20	430	10	10000	2	1	0	2	0
20	430	10	10000	2	1	0	2	0
21	431	10	10000	2	1	0	2	0
21	433	10	10000	2	1	0	2	0
21	434	10	10000	2	1	0	2	0
20	435	10	10000	2	1	0	2	0
19	436	10	10000	2	1	0	2	0
19	437	10	10000	2	1	0	2	0
18	438	10	10000	2	1	0	2	0
20	439	10	10000	2	1	0	2	0
19	440	10	10000	2	1	0	2	0
19	440	10	10000	2	1	0	2	0
19	441	10	10000	2	1	0	2	0
18	443	10	10000	2	1	0	2	0
17	444	10	10000	2	1	0	2	0
18	445	10	10000	2	1	0	2	0
18	446	10	10000	2	1	0	2	0
18	447	10	10000	2	1	0	2	0
18	448	10	10000	2	1	0	2	0
18	449	10	10000	2	1	0	2	0
18	450	10	10000	2	1	0	2	0
17	450	10	10000	2	1	0	2	0
18	451	10	10000	2	1	0	2	0
18	453	10	10000	2	1	0	2	0
18	454	10	10000	2	1	0	2	0
16	455	10	10000	2	1	0	2	0
15	456	10	10000	2	1	0	2	0
15	457	10	10000	2	1	0	2	0
15	458	10	10000	2	1	0	2	0
15	459	10	10000	2	1	0	2	0
16	460	10	10000	2	1	0	2	0
16	460	10	10000	2	1	0	2	0
16	461	10	10000	2	1	0	2	0
15	463	10	10000	2	1	0	2	0
14	464	10	10000	2	1	0	2	0
15	465	10	10000	2	1	0	2	0
16	466	10	10000	2	1	0	2	0
15	467	10	10000	2	1	0	2	0
14	468	10	10000	2	1	0	2	0
14	469	10	10000	2	1	0	2	0
15	470	10	10000	2	1	0	2	0
14	470	10	10000	2	1	0	2	0
14	471	10	10000	2	1	0	2	0
14	473	10	10000	2	1	0	2	0
14	474	10	10000	2	1	0	2	0
14	475	10	10000	2	1	0	2	0
12	476	10	10000	2	1	0	2	0
12	477	10	10000	2	1	0	2	0
12	478	10	10000	2	1	0	2	0
12	479	10	10000	2	1	0	2	0
12	480	10	10000	2	1	0	2	0
12	480	10	10000	2	1	0	2	0
12	481	10	10000	2	1	0	2	0
12	483	10	10000	2	1	0	2	0
11	484	10	10000	2	1	0	2	0
12	485	10	10000	2	1	0	2	0
13	486	10	10000	2	1	0	2	0
14	487	10	10000	2	1	0	2	0
15	488	10	10000	2	1	0	2	0
14	489	10	10000	2	1	0	2	0
13	490	10	10000	2	1	0	2	0
13	490	10	10000	2	1	0	2	0
15	491	10	10000	2	1	0	2	0
16	493	10	10000	2	1	0	2	0
17	494	10	10000	2	1	0	2	0
16	495	10	10000	2	1	0	2	0
14	496	10	10000	2	1	0	2	0
15	497	10	10000	2	1	0	2	0
14	498	10	10000	2	1	0	2	0
14	499	10	10000	2	1	0	2	0
16	500	10	10000	2	1	0	2	0
15	500	10	10000	2	1	0	2	0
15	501	10	10000	2	1	0	2	0
16	503	10	10000	2	1	0	2	1
14	504	10	10000	2	1	0	2	1
18	505	10	10000	2	1	0	2	1
20	506	10	10000	2	1	0	2	1
20	507	10	10000	2	1	0	2	1
19	508	10	10000	2	1	0	2	1
20	509	10	10000	2	1	0	2	1
19	510	10	10000	2	1	0	2	1
19	510	10	10000	2	1	0	2	1
19	511	10	10000	2	1	0	2	1
19	513	10	10000	2	1	0	2	1
19	514	10	10000	2	1	0	2	1
17	515	10	10000	2	1	0	2	1
16	516	10	10000	2	1	0	2	1
16	517	10	10000	2	1	0	2	1
16	518	10	10000	2	1	0	2	1
16	519	10	10000	2	1	0	2	1
16	520	10	10000	2	1	0	2	1
16	520	10	10000	2	1	0	2	1
15	521	10	10000	2	1	0	2	1
14	523	10	10000	2	1	0	2	1
13	524	10	10000	2	1	0	2	1
15	525	10	10000	2	1	0	2	1
16	526	10	10000	2	1	0	2	1
14	527	10	10000	2	1	0	2	1
15	528	10	10000	2	1	0	2	1
13	529	10	10000	2	1	0	2	1
13	530	10	10000	2	1	0	2	1
13	530	10	10000	2	1	0	2	1
12	531	10	10000	2	1	0	2	1
13	533	10	10000	2	1	0	2	1
14	534	10	10000	2	1	0	2	1
14	535	10	10000	2	1	0	2	1
13	536	10	10000	2	1	0	2	1
13	537	10	10000	2	1	0	2	1
14	538	10	10000	2	1	0	2	1
15	539	10	10000	2	1	0	2	1
14	540	10	10000	2	1	0	2	1
14	540	10	10000	2	1	0	2	1
14	541	10	10000	2	1	0	2	1
13	543	10	10000	2	1	0	2	1
12	544	10	10000	2	1	0	2	1
13	545	10	10000	2	1	0	2	1
14	546	10	10000	2	1	0	2	1
14	547	10	10000	2	1	0	2	1
14	548	10	10000	2	1	0	2	1
15	549	10	10000	2	1	0	2	1
15	550	10	10000	2	1	0	2	1
14	550	10	10000	2	1	0	2	1
14	551	10	10000	2	1	0	2	1
15	553	10	10000	2	1	0	2	0
14	554	10	10000	2	1	0	2	0
14	555	10	10000	2	1	0	2	0
13	556	10	10000	2	1	0	2	0
14	557	10	10000	2	1	0	2	0
13	558	10	10000	2	1	0	2	0
14	559	10	10000	2	1	0	2	0
13	560	10	10000	2	1	0	2	0
13	560	10	10000	2	1	0	2	0
13	561	10	10000	2	1	0	2	0
13	563	10	10000	2	1	0	2	0
14	564	10	10000	2	1	0	2	0
14	565	10	10000	2	1	0	2	0
16	566	10	10000	2	1	0	2	0
15	567	10	10000	2	1	0	2	0
15	568	10	10000	2	1	0	2	0
14	569	10	10000	2	1	0	2	0
14	570	10	10000	2	1	0	2	0
13	570	10	10000	2	1	0	2	0
13	571	10	10000	2	1	0	2	0
14	573	10	10000	2	1	0	2	0
14	574	10	10000	2	1	0	2	0
14	575	10	10000	2	1	0	2	0
12	576	10	10000	2	1	0	2	0
13	577	10	10000	2	1	0	2	0
13	578	10	10000	2	1	0	2	0
12	579	10	10000	2	1	0	2	0
12	580	10	10000	2	1	0	2	0
12	580	10	10000	2	1	0	2	0
12	581	10	10000	2	1	0	2	0
12	583	10	10000	2	1	0	2	0
11	584	10	10000	2	1	0	2	0
12	585	10	10000	2	1	0	2	0
14	586	10	10000	2	1	0	2	0
13	587	10	10000	2	1	0	2	0
12	588	10	10000	2	1	0	2	0
13	589	10	10000	2	1	0	2	0
12	590	10	10000	2	1	0	2	0
14	590	10	10000	2	1	0	2	0
16	591	10	10000	2	1	0	2	0
27	593	10	10000	2	1	0	2	0
44	594	10	10000	2	1	0	2	0
48	595	10	10000	2	1	0	2	0
48	596	10	10000	2	1	0	2	0
66	597	10	10000	2	1	0	2	0
77	598	10	10000	2	1	0	2	0
82	599	10	10000	2	1	0	2	0
82	600	10	10000	2	1	0	2	0
82	600	10	10000	2	1	0	2	0
82	601	10	10000	2	1	0	2	0
83	603	10	10000	2	1	0	2	0
92	604	10	10000	2	1	0	2	0
108	605	10	10000	2	1	0	2	0
122	606	10	10000	2	1	0	2	0
131	607	10	10000	2	1	0	2	0
135	608	10	10000	2	1	0	2	0
138	609	10	10000	2	1	0	2	0
140	610	10	10000	2	1	0	2	0
139	610	10	10000	2	1	0	2	0
134	611	10	10000	2	1	0	2	0
131	613	10	10000	2	1	0	2	0
128	614	10	10000	2	1	0	2	0
124	615	10	10000	2	1	0	2	0
120	616	10	10000	2	1	0	2	0
116	617	10	10000	2	1	0	2	0
112	618	10	10000	2	1	0	2	0
109	619	10	10000	2	1	0	2	0
113	620	10	10000	2	1	0	2	0
122	620	10	10000	2	1	0	2	0
139	621	10	10000	2	1	0	2	0
169	623	10	10000	2	1	0	2	0
201	624	10	10000	2	1	0	2	0
203	625	10	10000	2	1	0	2	0
209	626	10	10000	2	1	0	2	0
216	627	10	10000	2	1	0	2	0
224	628	10	10000	2	1	0	2	0
226	629	10	10000	2	1	0	2	0
228	630	10	10000	2	1	0	2	0
226	630	10	10000	2	1	0	2	0
220	631	10	10000	2	1	0	2	0
213	633	10	10000	2	1	0	2	0
206	634	10	10000	2	1	0	2	0
198	635	10	10000	2	1	0	2	0
190	636	10	10000	2	1	0	2	0
183	637	10	10000	2	1	0	2	0
178	638	10	10000	2	1	0	2	0
172	639	10	10000	2	1	0	2	0
165	640	10	10000	2	1	0	2	0
161	640	10	10000	2	1	0	2	0
159	641	10	10000	2	1	0	2	0
153	643	10	10000	2	1	0	2	0
148	644	10	10000	2	1	0	2	0
142	645	10	10000	2	1	0	2	0
139	646	10	10000	2	1	0	2	0
133	647	10	10000	2	1	0	2	0
129	648	10	10000	2	1	0	2	0
124	649	10	10000	2	1	0	2	0
120	650	10	10000	2	1	0	2	0
114	650	10	10000	2	1	0	2	0
109	651	10	10000	2	1	0	2	0
107	653	10	10000	2	1	0	2	0
105	654	10	10000	2	1	0	2	0
103	655	10	10000	2	1	0	2	0
100	656	10	10000	2	1	0	2	0
98	657	10	10000	2	1	0	2	0
98	658	10	10000	2	1	0	2	0
100	659	10	10000	2	1	0	2	0
99	660	10	10000	2	1	0	2	0
98	660	10	10000	2	1	0	2	0
94	661	10	10000	2	1	0	2	0
90	663	10	10000	2	1	0	2	0
86	664	10	10000	2	1	0	2	0
83	665	10	10000	2	1	0	2	0
83	666	10	10000	2	1	0	2	0
81	667	10	10000	2	1	0	2	0
78	668	10	10000	2	1	0	2	0
74	669	10	10000	2	1	0	2	0
72	670	10	10000	2	1	0	2	0
68	670	10	10000	2	1	0	2	0
67	671	10	10000	2	1	0	2	0
66	673	10	10000	2	1	0	2	0
66	674	10	10000	2	1	0	2	0
66	675	10	10000	2	1	0	2	0
64	676	10	10000	2	1	0	2	0
64	677	10	10000	2	1	0	2	0
65	678	10	10000	2	1	0	2	0
66	679	10	10000	2	1	0	2	0
65	680	10	10000	2	1	0	2	0
66	680	10	10000	2	1	0	2	0
66	681	10	10000	2	1	0	2	0
68	683	10	10000	2	1	0	2	0
66	684	10	10000	2	1	0	2	0
67	685	10	10000	2	1	0	2	0
70	686	10	10000	2	1	0	2	0
69	687	10	10000	2	1	0	2	0
68	688	10	10000	2	1	0	2	0
66	689	10	10000	2	1	0	2	0
66	690	10	10000	2	1	0	2	0
65	690	10	10000	2	1	0	2	0
65	691	10	10000	2	1	0	2	0
64	693	10	10000	2	1	0	2	0
63	694	10	10000	2	1	0	2	0
61	695	10	10000	2	1	0	2	0
57	696	10	10000	2	1	0	2	0
56	697	10	10000	2	1	0	2	0
55	698	10	10000	2	1	0	2	0
54	699	10	10000	2	1	0	2	0
53	700	10	10000	2	1	0	2	0
50	700	10	10000	2	1	0	2	0
48	701	10	10000	2	1	0	2	0
46	703	10	10000	2	1	0	2	0
44	704	10	10000	2	1	0	2	0
44	705	10	10000	2	1	0	2	0
44	706	10	10000	2	1	0	2	0
44	707	10	10000	2	1	0	2	0
44	708	10	10000	2	1	0	2	0
43	709	10	10000	2	1	0	2	0
43	710	10	10000	2	1	0	2	0
42	710	10	10000	2	1	0	2	0
41	711	10	10000	2	1	0	2	0
42	713	10	10000	2	1	0	2	0
42	714	10	10000	2	1	0	2	0
41	715	10	10000	2	1	0	2	0
38	716	10	10000	2	1	0	2	0
38	717	10	10000	2	1	0	2	0
36	718	10	10000	2	1	0	2	0
35	719	10	10000	2	1	0	2	0
35	720	10	10000	2	1	0	2	0
33	720	10	10000	2	1	0	2	0
33	721	10	10000	2	1	0	2	0
31	723	10	10000	2	1	0	2	0
30	724	10	10000	2	1	0	2	0
31	725	10	10000	2	1	0	2	0
32	726	10	10000	2	1	0	2	0
32	727	10	10000	2	1	0	2	0
32	728	10	10000	2	1	0	2	0
32	729	10	10000	2	1	0	2	0
31	730	10	10000	2	1	0	2	0
30	730	10	10000	2	1	0	2	0
30	731	10	10000	2	1	0	2	0
31	733	10	10000	2	1	0	2	0
30	734	10	10000	2	1	0	2	0
29	735	10	10000	2	1	0	2	0
27	736	10	10000	2	1	0	2	0
27	737	10	10000	2	1	0	2	0
27	738	10	10000	2	1	0	2	0
28	739	10	10000	2	1	0	2	0
27	740	10	10000	2	1	0	2	0
27	740	10	10000	2	1	0	2	0
27	741	10	10000	2	1	0	2	0
25	743	10	10000	2	1	0	2	0
23	744	10	10000	2	1	0	2	0
24	745	10	10000	2	1	0	2	0
25	746	10	10000	2	1	0	2	0
26	747	10	10000	2	1	0	2	0
25	748	10	10000	2	1	0	2	0
25	749	10	10000	2	1	0	2	0
25	750	10	10000	2	1	0	2	0
23	750	10	10000	2	1	0	2	0
23	751	10	10000	2	1	0	2	0
24	753	10	10000	2	1	0	2	0
25	754	10	10000	2	1	0	2	0
24	755	10	10000	2	1	0	2	0
22	756	10	10000	2	1	0	2	0
22	757	10	10000	2	1	0	2	0
23	758	10	10000	2	1	0	2	0
25	759	10	10000	2	1	0	2	0
27	760	10	10000	2	1	0	2	0
28	760	10	10000	2	1	0	2	0
29	761	10	10000	2	1	0	2	0
30	763	10	10000	2	1	0	2	0
33	764	10	10000	2	1	0	2	0
33	765	10	10000	2	1	0	2	0
33	766	10	10000	2	1	0	2	0
32	767	10	10000	2	1	0	2	0
32	768	10	10000	2	1	0	2	0
31	769	10	10000	2	1	0	2	0
31	770	10	10000	2	1	0	2	0
31	770	10	10000	2	1	0	2	0
30	771	10	10000	2	1	0	2	0
30	773	10	10000	2	1	0	2	0
30	774	10	10000	2	1	0	2	0
30	775	10	10000	2	1	0	2	0
29	776	10	10000	2	1	0	2	0
29	777	10	10000	2	1	0	2	0
29	778	10	10000	2	1	0	2	0
31	779	10	10000	2	1	0	2	0
30	780	10	10000	2	1	0	2	0
31	780	10	10000	2	1	0	2	0
32	781	10	10000	2	1	0	2	0
31	783	10	10000	2	1	0	2	0
30	784	10	10000	2	1	0	2	0
30	785	10	10000	2	1	0	2	0
31	786	10	10000	2	1	0	2	0
30	787	10	10000	2	1	0	2	0
30	788	10	10000	2	1	0	2	0
29	789	10	10000	2	1	0	2	0
29	790	10	10000	2	1	0	2	0
29	790	10	10000	2	1	0	2	0
28	791	10	10000	2	1	0	2	0
28	793	10	10000	2	1	0	2	0
28	794	10	10000	2	1	0	2	0
27	795	10	10000	2	1	0	2	0
25	796	10	10000	2	1	0	2	0
26	797	10	10000	2	1	0	2	0
24	798	10	10000	2	1	0	2	0
24	799	10	10000	2	1	0	2	0
24	800	10	10000	2	1	0	2	0
24	800	10	10000	2	1	0	2	0
23	801	10	10000	2	1	0	2	0
22	803	10	10000	2	1	0	2	0
20	804	10	10000	2	1	0	2	0
21	805	10	10000	2	1	0	2	0
22	806	10	10000	2	1	0	2	0
23	807	10	10000	2	1	0	2	0
23	808	10	10000	2	1	0	2	0
22	809	10	10000	2	1	0	2	0
21	810	10	10000	2	1	0	2	0
22	810	10	10000	2	1	0	2	0
20	811	10	10000	2	1	0	2	0
20	813	10	10000	2	1	0	2	0
20	814	10	10000	2	1	0	2	0
19	815	10	10000	2	1	0	2	0
18	816	10	10000	2	1	0	2	0
19	817	10	10000	2	1	0	2	0
20	818	10	10000	2	1	0	2	0
21	819	10	10000	2	1	0	2	0
21	820	10	10000	2	1	0	2	0
22	820	10	10000	2	1	0	2	0
23	821	10	10000	2	1	0	2	0
23	823	10	10000	2	1	0	2	0
22	824	10	10000	2	1	0	2	0
23	825	10	10000	2	1	0	2	0
25	826	10	10000	2	1	0	2	0
23	827	10	10000	2	1	0	2	0
23	828	10	10000	2	1	0	2	0
22	829	10	10000	2	1	0	2	0
22	830	10	10000	2	1	0	2	0
21	830	10	10000	2	1	0	2	0
20	831	10	10000	2	1	0	2	0
21	833	10	10000	2	1	0	2	0
21	834	10	10000	2	1	0	2	0
21	835	10	10000	2	1	0	2	0
21	836	10	10000	2	1	0	2	0
22	837	10	10000	2	1	0	2	0
24	838	10	10000	2	1	0	2	0
25	839	10	10000	2	1	0	2	0
24	840	10	10000	2	1	0	2	0
24	840	10	10000	2	1	0	2	0
24	841	10	10000	2	1	0	2	0
22	843	10	10000	2	1	0	2	0
21	844	10	10000	2	1	0	2	0
21	845	10	10000	2	1	0	2	0
23	846	10	10000	2	1	0	2	0
22	847	10	10000	2	1	0	2	0
21	848	10	10000	2	1	0	2	0
21	849	10	10000	2	1	0	2	0
21	850	10	10000	2	1	0	2	0
20	850	10	10000	2	1	0	2	0
19	851	10	10000	2	1	0	2	0
20	853	10	10000	2	1	0	2	0
19	854	10	10000	2	1	0	2	0
18	855	10	10000	2	1	0	2	0
16	856	10	10000	2	1	0	2	0
16	857	10	10000	2	1	0	2	0
18	858	10	10000	2	1	0	2	0
17	859	10	10000	2	1	0	2	0
18	860	10	10000	2	1	0	2	0
19	860	10	10000	2	1	0	2	0
20	861	10	10000	2	1	0	2	0
19	863	10	10000	2	1	0	2	0
19	864	10	10000	2	1	0	2	0
20	865	10	10000	2	1	0	2	0
21	866	10	10000	2	1	0	2	0
21	867	10	10000	2	1	0	2	0
21	868	10	10000	2	1	0	2	0
21	869	10	10000	2	1	0	2	0
20	870	10	10000	2	1	0	2	0
20	870	10	10000	2	1	0	2	0
21	871	10	10000	2	1	0	2	0
20	873	10	10000	2	1	0	2	0
20	874	10	10000	2	1	0	2	0
20	875	10	10000	2	1	0	2	0
17	876	10	10000	2	1	0	2	0
18	877	10	10000	2	1	0	2	0
17	878	10	10000	2	1	0	2	0
18	879	10	10000	2	1	0	2	0
18	880	10	10000	2	1	0	2	0
18	880	10	10000	2	1	0	2	0
18	881	10	10000	2	1	0	2	0
17	883	10	10000	2	1	0	2	0
16	884	10	10000	2	1	0	2	0
16	885	10	10000	2	1	0	2	0
17	886	10	10000	2	1	0	2	0
17	887	10	10000	2	1	0	2	0
17	888	10	10000	2	1	0	2	0
17	889	10	10000	2	1	0	2	0
17	890	10	10000	2	1	0	2	0
17	890	10	10000	2	1	0	2	0
17	891	10	10000	2	1	0	2	0
17	893	10	10000	2	1	0	2	0
18	894	10	10000	2	1	0	2	0
17	895	10	10000	2	1	0	2	0
14	896	10	10000	2	1	0	2	0
16	897	10	10000	2	1	0	2	0
15	898	10	10000	2	1	0	2	0
16	899	10	10000	2	1	0	2	0
16	900	10	10000	2	1	0	2	0
16	900	10	10000	2	1	0	2	0
16	901	10	10000	2	1	0	2	0
16	903	10	10000	2	1	0	2	0
15	904	10	10000	2	1	0	2	0
14	905	10	10000	2	1	0	2	0
16	906	10	10000	2	1	0	2	0
16	907	10	10000	2	1	0	2	0
18	908	10	10000	2	1	0	2	0
16	909	10	10000	2	1	0	2	0
16	910	10	10000	2	1	0	2	0
16	910	10	10000	2	1	0	2	0
14	911	10	10000	2	1	0	2	0
15	913	10	10000	2	1	0	2	0
15	914	10	10000	2	1	0	2	0
16	915	10	10000	2	1	0	2	0
15	916	10	10000	2	1	0	2	0
15	917	10	10000	2	1	0	2	0
15	918	10	10000	2	1	0	2	0
15	919	10	10000	2	1	0	2	0
15	920	10	10000	2	1	0	2	0
15	920	10	10000	2	1	0	2	0
17	921	10	10000	2	1	0	2	0
15	923	10	10000	2	1	0	2	0
14	924	10	10000	2	1	0	2	0
14	925	10	10000	2	1	0	2	0
16	926	10	10000	2	1	0	2	0
15	927	10	10000	2	1	0	2	0
16	928	10	10000	2	1	0	2	0
16	929	10	10000	2	1	0	2	0
18	930	10	10000	2	1	0	2	0
18	930	10	10000	2	1	0	2	0
18	931	10	10000	2	1	0	2	0
19	933	10	10000	2	1	0	2	0
19	934	10	10000	2	1	0	2	0
20	935	10	10000	2	1	0	2	0
20	936	10	10000	2	1	0	2	0
19	937	10	10000	2	1	0	2	0
19	938	10	10000	2	1	0	2	0
19	939	10	10000	2	1	0	2	0
20	940	10	10000	2	1	0	2	0
19	940	10	10000	2	1	0	2	0
19	941	10	10000	2	1	0	2	0
19	943	10	10000	2	1	0	2	0
19	944	10	10000	2	1	0	2	0
18	945	10	10000	2	1	0	2	0
19	946	10	10000	2	1	0	2	0
19	947	10	10000	2	1	0	2	0
18	948	10	10000	2	1	0	2	0
17	949	10	10000	2	1	0	2	0
18	950	10	10000	2	1	0	2	0
17	950	10	10000	2	1	0	2	0
16	951	10	10000	2	1	0	2	0
17	953	10	10000	2	1	0	2	0
17	954	10	10000	2	1	0	2	0
17	955	10	10000	2	1	0	2	0
14	956	10	10000	2	1	0	2	0
15	957	10	10000	2	1	0	2	0
15	958	10	10000	2	1	0	2	0
15	959	10	10000	2	1	0	2	0
14	960	10	10000	2	1	0	2	0
15	960	10	10000	2	1	0	2	0
16	961	10	10000	2	1	0	2	0
15	963	10	10000	2	1	0	2	0
14	964	10	10000	2	1	0	2	0
14	965	10	10000	2	1	0	2	0
16	966	10	10000	2	1	0	2	0
15	967	10	10000	2	1	0	2	0
14	968	10	10000	2	1	0	2	0
14	969	10	10000	2	1	0	2	0
14	970	10	10000	2	1	0	2	0
14	970	10	10000	2	1	0	2	0
14	971	10	10000	2	1	0	2	0
14	973	10	10000	2	1	0	2	0
14	974	10	10000	2	1	0	2	0
14	975	10	10000	2	1	0	2	0
12	976	10	10000	2	1	0	2	0
12	977	10	10000	2	1	0	2	0
13	978	10	10000	2	1	0	2	0
14	979	10	10000	2	1	0	2	0
14	980	10	10000	2	1	0	2	0
14	980	10	10000	2	1	0	2	0
14	981	10	10000	2	1	0	2	0
14	983	10	10000	2	1	0	2	0
13	984	10	10000	2	1	0	2	0
14	985	10	10000	2	1	0	2	0
16	986	10	10000	2	1	0	2	0
16	987	10	10000	2	1	0	2	0
15	988	10	10000	2	1	0	2	0
15	989	10	10000	2	1	0	2	0
16	990	10	10000	2	1	0	2	0
16	990	10	10000	2	1	0	2	0
15	991	10	10000	2	1	0	2	0
16	993	10	10000	2	1	0	2	0
16	994	10	10000	2	1	0	2	0
15	995	10	10000	2	1	0	2	0
13	996	10	10000	2	1	0	2	0
14	997	10	10000	2	1	0	2	0
14	998	10	10000	2	1	0	2	0
15	999	10	10000	2	1	0	2	0
15	1000	10	10000	2	1	0	2	0
15	1000	10	10000	2	1	0	2	0
15	1001	10	10000	2	1	0	2	0
32	2	0	10000	3	1	0	3	0
31	3	0	10000	3	1	0	3	0
31	4	0	10000	3	1	0	3	0
31	5	0	10000	3	1	0	3	0
29	6	0	10000	3	1	0	3	0
30	7	0	10000	3	1	0	3	0
29	8	0	10000	3	1	0	3	0
27	9	0	10000	3	1	0	3	0
25	10	0	10000	3	1	0	3	0
24	11	0	10000	3	1	0	3	0
24	12	0	10000	3	1	0	3	0
24	13	0	10000	3	1	0	3	0
23	14	0	10000	3	1	0	3	0
22	15	0	10000	3	1	0	3	0
23	16	0	10000	3	1	0	3	0
23	17	0	10000	3	1	0	3	0
21	18	0	10000	3	1	0	3	0
21	19	0	10000	3	1	0	3	0
22	20	0	10000	3	1	0	3	0
22	21	0	10000	3	1	0	3	0
22	22	0	10000	3	1	0	3	0
24	23	0	10000	3	1	0	3	0
29	24	0	10000	3	1	0	3	0
29	25	0	10000	3	1	0	3	0
31	26	0	10000	3	1	0	3	0
33	27	0	10000	3	1	0	3	0
32	28	0	10000	3	1	0	3	0
31	29	0	10000	3	1	0	3	0
30	30	0	10000	3	1	0	3	0
30	31	0	10000	3	1	0	3	0
30	32	0	10000	3	1	0	3	0
31	33	0	10000	3	1	0	3	0
30	34	0	10000	3	1	0	3	0
31	35	0	10000	3	1	0	3	0
30	36	0	10000	3	1	0	3	0
31	37	0	10000	3	1	0	3	0
34	38	0	10000	3	1	0	3	0
37	39	0	10000	3	1	0	3	0
36	40	0	10000	3	1	0	3	0
37	41	0	10000	3	1	0	3	0
36	42	0	10000	3	1	0	3	0
36	43	0	10000	3	1	0	3	0
35	44	0	10000	3	1	0	3	0
35	45	0	10000	3	1	0	3	0
35	46	0	10000	3	1	0	3	0
37	47	0	10000	3	1	0	3	0
39	48	0	10000	3	1	0	3	0
40	49	0	10000	3	1	0	3	0
37	50	0	10000	3	1	0	3	0
36	51	0	10000	3	1	0	3	0
37	52	0	10000	3	1	0	3	0
37	53	0	10000	3	1	0	3	0
38	54	0	10000	3	1	0	3	0
37	55	0	10000	3	1	0	3	0
36	56	0	10000	3	1	0	3	0
36	57	0	10000	3	1	0	3	0
34	58	0	10000	3	1	0	3	0
34	59	0	10000	3	1	0	3	0
36	60	0	10000	3	1	0	3	0
35	61	0	10000	3	1	0	3	0
34	62	0	10000	3	1	0	3	0
33	63	0	10000	3	1	0	3	0
32	64	0	10000	3	1	0	3	0
30	65	0	10000	3	1	0	3	0
30	66	0	10000	3	1	0	3	0
29	67	0	10000	3	1	0	3	0
28	68	0	10000	3	1	0	3	0
28	69	0	10000	3	1	0	3	0
27	70	0	10000	3	1	0	3	0
27	71	0	10000	3	1	0	3	0
26	72	0	10000	3	1	0	3	0
25	73	0	10000	3	1	0	3	0
27	74	0	10000	3	1	0	3	0
28	75	0	10000	3	1	0	3	0
30	76	0	10000	3	1	0	3	0
30	77	0	10000	3	1	0	3	0
33	78	0	10000	3	1	0	3	0
33	79	0	10000	3	1	0	3	0
37	80	0	10000	3	1	0	3	0
39	81	0	10000	3	1	0	3	0
40	82	0	10000	3	1	0	3	0
40	83	0	10000	3	1	0	3	0
40	84	0	10000	3	1	0	3	0
44	85	0	10000	3	1	0	3	0
44	86	0	10000	3	1	0	3	0
43	87	0	10000	3	1	0	3	0
43	88	0	10000	3	1	0	3	0
42	89	0	10000	3	1	0	3	0
38	90	0	10000	3	1	0	3	0
39	91	0	10000	3	1	0	3	0
39	92	0	10000	3	1	0	3	0
39	93	0	10000	3	1	0	3	0
37	94	0	10000	3	1	0	3	0
36	95	0	10000	3	1	0	3	0
36	96	0	10000	3	1	0	3	0
35	97	0	10000	3	1	0	3	0
34	98	0	10000	3	1	0	3	0
34	99	0	10000	3	1	0	3	0
33	100	0	10000	3	1	0	3	0
33	101	0	10000	3	1	0	3	0
31	102	0	10000	3	1	0	3	0
30	103	0	10000	3	1	0	3	0
29	104	0	10000	3	1	0	3	0
29	105	0	10000	3	1	0	3	0
29	106	0	10000	3	1	0	3	0
30	107	0	10000	3	1	0	3	0
30	108	0	10000	3	1	0	3	0
28	109	0	10000	3	1	0	3	0
27	110	0	10000	3	1	0	3	0
26	111	0	10000	3	1	0	3	0
25	112	0	10000	3	1	0	3	0
25	113	0	10000	3	1	0	3	0
25	114	0	10000	3	1	0	3	0
25	115	0	10000	3	1	0	3	0
25	116	0	10000	3	1	0	3	0
27	117	0	10000	3	1	0	3	0
26	118	0	10000	3	1	0	3	0
27	119	0	10000	3	1	0	3	0
28	120	0	10000	3	1	0	3	0
28	121	0	10000	3	1	0	3	0
27	122	0	10000	3	1	0	3	0
26	123	0	10000	3	1	0	3	0
26	124	0	10000	3	1	0	3	0
25	125	0	10000	3	1	0	3	0
24	126	0	10000	3	1	0	3	0
24	127	0	10000	3	1	0	3	0
25	128	0	10000	3	1	0	3	0
25	129	0	10000	3	1	0	3	0
25	130	0	10000	3	1	0	3	0
26	131	0	10000	3	1	0	3	0
27	132	0	10000	3	1	0	3	0
28	133	0	10000	3	1	0	3	0
36	134	0	10000	3	1	0	3	0
40	135	0	10000	3	1	0	3	0
41	136	0	10000	3	1	0	3	0
48	137	0	10000	3	1	0	3	0
52	138	0	10000	3	1	0	3	0
53	139	0	10000	3	1	0	3	0
54	140	0	10000	3	1	0	3	0
53	141	0	10000	3	1	0	3	0
53	142	0	10000	3	1	0	3	0
52	143	0	10000	3	1	0	3	0
52	144	0	10000	3	1	0	3	0
51	145	0	10000	3	1	0	3	0
50	146	0	10000	3	1	0	3	0
49	147	0	10000	3	1	0	3	0
48	148	0	10000	3	1	0	3	0
47	149	0	10000	3	1	0	3	0
44	150	0	10000	3	1	0	3	0
43	151	0	10000	3	1	0	3	0
44	152	0	10000	3	1	0	3	0
47	153	0	10000	3	1	0	3	0
48	154	0	10000	3	1	0	3	0
49	155	0	10000	3	1	0	3	0
48	156	0	10000	3	1	0	3	0
47	157	0	10000	3	1	0	3	0
44	158	0	10000	3	1	0	3	0
43	159	0	10000	3	1	0	3	0
44	160	0	10000	3	1	0	3	0
44	161	0	10000	3	1	0	3	0
45	162	0	10000	3	1	0	3	0
44	163	0	10000	3	1	0	3	0
44	164	0	10000	3	1	0	3	0
44	165	0	10000	3	1	0	3	0
45	166	0	10000	3	1	0	3	0
44	167	0	10000	3	1	0	3	0
42	168	0	10000	3	1	0	3	0
41	169	0	10000	3	1	0	3	0
38	170	0	10000	3	1	0	3	0
37	171	0	10000	3	1	0	3	0
35	172	0	10000	3	1	0	3	0
35	173	0	10000	3	1	0	3	0
34	174	0	10000	3	1	0	3	0
33	175	0	10000	3	1	0	3	0
34	176	0	10000	3	1	0	3	0
33	177	0	10000	3	1	0	3	0
32	178	0	10000	3	1	0	3	0
31	179	0	10000	3	1	0	3	0
33	180	0	10000	3	1	0	3	0
33	181	0	10000	3	1	0	3	0
34	182	0	10000	3	1	0	3	0
38	183	0	10000	3	1	0	3	0
39	184	0	10000	3	1	0	3	0
42	185	0	10000	3	1	0	3	0
44	186	0	10000	3	1	0	3	0
47	187	0	10000	3	1	0	3	0
47	188	0	10000	3	1	0	3	0
45	189	0	10000	3	1	0	3	0
44	190	0	10000	3	1	0	3	0
45	191	0	10000	3	1	0	3	0
51	192	0	10000	3	1	0	3	0
61	193	0	10000	3	1	0	3	0
63	194	0	10000	3	1	0	3	0
68	195	0	10000	3	1	0	3	0
77	196	0	10000	3	1	0	3	0
80	197	0	10000	3	1	0	3	0
83	198	0	10000	3	1	0	3	0
82	199	0	10000	3	1	0	3	0
83	200	0	10000	3	1	0	3	0
80	201	0	10000	3	1	0	3	0
76	202	0	10000	3	1	0	3	0
72	203	0	10000	3	1	0	3	0
73	204	0	10000	3	1	0	3	0
72	205	0	10000	3	1	0	3	0
69	206	0	10000	3	1	0	3	0
69	207	0	10000	3	1	0	3	0
69	208	0	10000	3	1	0	3	0
68	209	0	10000	3	1	0	3	0
66	210	0	10000	3	1	0	3	0
63	211	0	10000	3	1	0	3	0
60	212	0	10000	3	1	0	3	0
59	213	0	10000	3	1	0	3	0
56	214	0	10000	3	1	0	3	0
54	215	0	10000	3	1	0	3	0
52	216	0	10000	3	1	0	3	0
49	217	0	10000	3	1	0	3	0
47	218	0	10000	3	1	0	3	0
46	219	0	10000	3	1	0	3	0
46	220	0	10000	3	1	0	3	0
45	221	0	10000	3	1	0	3	0
42	222	0	10000	3	1	0	3	0
44	223	0	10000	3	1	0	3	0
50	224	0	10000	3	1	0	3	0
49	225	0	10000	3	1	0	3	0
51	226	0	10000	3	1	0	3	0
53	227	0	10000	3	1	0	3	0
53	228	0	10000	3	1	0	3	0
51	229	0	10000	3	1	0	3	0
48	230	0	10000	3	1	0	3	0
47	231	0	10000	3	1	0	3	0
45	232	0	10000	3	1	0	3	0
44	233	0	10000	3	1	0	3	0
43	234	0	10000	3	1	0	3	0
44	235	0	10000	3	1	0	3	0
44	236	0	10000	3	1	0	3	0
42	237	0	10000	3	1	0	3	0
40	238	0	10000	3	1	0	3	0
39	239	0	10000	3	1	0	3	0
39	240	0	10000	3	1	0	3	0
37	241	0	10000	3	1	0	3	0
37	242	0	10000	3	1	0	3	0
34	243	0	10000	3	1	0	3	0
34	244	0	10000	3	1	0	3	0
33	245	0	10000	3	1	0	3	0
33	246	0	10000	3	1	0	3	0
33	247	0	10000	3	1	0	3	0
35	248	0	10000	3	1	0	3	0
34	249	0	10000	3	1	0	3	0
31	250	0	10000	3	1	0	3	0
31	251	0	10000	3	1	0	3	0
30	252	0	10000	3	1	0	3	0
29	253	0	10000	3	1	0	3	0
28	254	0	10000	3	1	0	3	0
28	255	0	10000	3	1	0	3	0
28	256	0	10000	3	1	0	3	0
26	257	0	10000	3	1	0	3	0
24	258	0	10000	3	1	0	3	0
25	259	0	10000	3	1	0	3	0
26	260	0	10000	3	1	0	3	0
25	261	0	10000	3	1	0	3	0
24	262	0	10000	3	1	0	3	0
25	263	0	10000	3	1	0	3	0
24	264	0	10000	3	1	0	3	0
24	265	0	10000	3	1	0	3	0
23	266	0	10000	3	1	0	3	0
22	267	0	10000	3	1	0	3	0
23	268	0	10000	3	1	0	3	0
23	269	0	10000	3	1	0	3	0
22	270	0	10000	3	1	0	3	0
23	271	0	10000	3	1	0	3	0
22	272	0	10000	3	1	0	3	0
21	273	0	10000	3	1	0	3	0
23	274	0	10000	3	1	0	3	0
21	275	0	10000	3	1	0	3	0
22	276	0	10000	3	1	0	3	0
22	277	0	10000	3	1	0	3	0
22	278	0	10000	3	1	0	3	0
22	279	0	10000	3	1	0	3	0
24	280	0	10000	3	1	0	3	0
24	281	0	10000	3	1	0	3	0
22	282	0	10000	3	1	0	3	0
22	283	0	10000	3	1	0	3	0
21	284	0	10000	3	1	0	3	0
22	285	0	10000	3	1	0	3	0
20	286	0	10000	3	1	0	3	0
20	287	0	10000	3	1	0	3	0
20	288	0	10000	3	1	0	3	0
19	289	0	10000	3	1	0	3	0
17	290	0	10000	3	1	0	3	0
17	291	0	10000	3	1	0	3	0
17	292	0	10000	3	1	0	3	0
17	293	0	10000	3	1	0	3	0
17	294	0	10000	3	1	0	3	0
16	295	0	10000	3	1	0	3	0
18	296	0	10000	3	1	0	3	0
16	297	0	10000	3	1	0	3	0
16	298	0	10000	3	1	0	3	0
17	299	0	10000	3	1	0	3	0
18	300	0	10000	3	1	0	3	0
18	301	0	10000	3	1	0	3	0
18	302	0	10000	3	1	0	3	0
20	303	0	10000	3	1	0	3	0
23	304	0	10000	3	1	0	3	0
24	305	0	10000	3	1	0	3	0
24	306	0	10000	3	1	0	3	0
26	307	0	10000	3	1	0	3	0
28	308	0	10000	3	1	0	3	0
28	309	0	10000	3	1	0	3	0
28	310	0	10000	3	1	0	3	0
27	311	0	10000	3	1	0	3	0
25	312	0	10000	3	1	0	3	0
26	313	0	10000	3	1	0	3	0
25	314	0	10000	3	1	0	3	0
24	315	0	10000	3	1	0	3	0
25	316	0	10000	3	1	0	3	0
23	317	0	10000	3	1	0	3	0
22	318	0	10000	3	1	0	3	0
22	319	0	10000	3	1	0	3	0
23	320	0	10000	3	1	0	3	0
23	321	0	10000	3	1	0	3	0
24	322	0	10000	3	1	0	3	0
23	323	0	10000	3	1	0	3	0
24	324	0	10000	3	1	0	3	0
22	325	0	10000	3	1	0	3	0
21	326	0	10000	3	1	0	3	0
21	327	0	10000	3	1	0	3	0
22	328	0	10000	3	1	0	3	0
22	329	0	10000	3	1	0	3	0
20	330	0	10000	3	1	0	3	0
20	331	0	10000	3	1	0	3	0
19	332	0	10000	3	1	0	3	0
19	333	0	10000	3	1	0	3	0
18	334	0	10000	3	1	0	3	0
19	335	0	10000	3	1	0	3	0
19	336	0	10000	3	1	0	3	0
19	337	0	10000	3	1	0	3	0
19	338	0	10000	3	1	0	3	0
18	339	0	10000	3	1	0	3	0
19	340	0	10000	3	1	0	3	0
20	341	0	10000	3	1	0	3	0
20	342	0	10000	3	1	0	3	0
19	343	0	10000	3	1	0	3	0
18	344	0	10000	3	1	0	3	0
18	345	0	10000	3	1	0	3	0
17	346	0	10000	3	1	0	3	0
18	347	0	10000	3	1	0	3	0
18	348	0	10000	3	1	0	3	0
18	349	0	10000	3	1	0	3	0
15	350	0	10000	3	1	0	3	0
15	351	0	10000	3	1	0	3	0
17	352	0	10000	3	1	0	3	0
18	353	0	10000	3	1	0	3	0
18	354	0	10000	3	1	0	3	0
18	355	0	10000	3	1	0	3	0
19	356	0	10000	3	1	0	3	0
19	357	0	10000	3	1	0	3	0
19	358	0	10000	3	1	0	3	0
20	359	0	10000	3	1	0	3	0
22	360	0	10000	3	1	0	3	0
21	361	0	10000	3	1	0	3	0
21	362	0	10000	3	1	0	3	0
21	363	0	10000	3	1	0	3	0
20	364	0	10000	3	1	0	3	0
20	365	0	10000	3	1	0	3	0
19	366	0	10000	3	1	0	3	0
20	367	0	10000	3	1	0	3	0
20	368	0	10000	3	1	0	3	0
21	369	0	10000	3	1	0	3	0
21	370	0	10000	3	1	0	3	0
21	371	0	10000	3	1	0	3	0
21	372	0	10000	3	1	0	3	0
23	373	0	10000	3	1	0	3	0
24	374	0	10000	3	1	0	3	0
23	375	0	10000	3	1	0	3	0
23	376	0	10000	3	1	0	3	0
23	377	0	10000	3	1	0	3	0
23	378	0	10000	3	1	0	3	0
23	379	0	10000	3	1	0	3	0
26	380	0	10000	3	1	0	3	0
28	381	0	10000	3	1	0	3	0
29	382	0	10000	3	1	0	3	0
29	383	0	10000	3	1	0	3	0
34	384	0	10000	3	1	0	3	0
43	385	0	10000	3	1	0	3	0
48	386	0	10000	3	1	0	3	0
51	387	0	10000	3	1	0	3	0
52	388	0	10000	3	1	0	3	0
51	389	0	10000	3	1	0	3	0
48	390	0	10000	3	1	0	3	0
49	391	0	10000	3	1	0	3	0
60	392	0	10000	3	1	0	3	0
64	393	0	10000	3	1	0	3	0
71	394	0	10000	3	1	0	3	0
85	395	0	10000	3	1	0	3	0
88	396	0	10000	3	1	0	3	0
90	397	0	10000	3	1	0	3	0
90	398	0	10000	3	1	0	3	0
89	399	0	10000	3	1	0	3	0
92	400	0	10000	3	1	0	3	0
90	401	0	10000	3	1	0	3	0
89	402	0	10000	3	1	0	3	0
84	403	0	10000	3	1	0	3	0
84	404	0	10000	3	1	0	3	0
83	405	0	10000	3	1	0	3	0
82	406	0	10000	3	1	0	3	0
92	407	0	10000	3	1	0	3	0
97	408	0	10000	3	1	0	3	0
95	409	0	10000	3	1	0	3	0
94	410	0	10000	3	1	0	3	0
104	411	0	10000	3	1	0	3	0
115	412	0	10000	3	1	0	3	0
123	413	0	10000	3	1	0	3	0
127	414	0	10000	3	1	0	3	0
125	415	0	10000	3	1	0	3	0
133	416	0	10000	3	1	0	3	0
137	417	0	10000	3	1	0	3	0
135	418	0	10000	3	1	0	3	0
133	419	0	10000	3	1	0	3	0
131	420	0	10000	3	1	0	3	0
129	421	0	10000	3	1	0	3	0
132	422	0	10000	3	1	0	3	0
139	423	0	10000	3	1	0	3	0
145	424	0	10000	3	1	0	3	0
142	425	0	10000	3	1	0	3	0
136	426	0	10000	3	1	0	3	0
131	427	0	10000	3	1	0	3	0
127	428	0	10000	3	1	0	3	0
123	429	0	10000	3	1	0	3	0
119	430	0	10000	3	1	0	3	0
115	431	0	10000	3	1	0	3	0
116	432	0	10000	3	1	0	3	0
123	433	0	10000	3	1	0	3	0
120	434	0	10000	3	1	0	3	0
116	435	0	10000	3	1	0	3	0
115	436	0	10000	3	1	0	3	0
119	437	0	10000	3	1	0	3	0
122	438	0	10000	3	1	0	3	0
117	439	0	10000	3	1	0	3	0
116	440	0	10000	3	1	0	3	0
115	441	0	10000	3	1	0	3	0
112	442	0	10000	3	1	0	3	0
107	443	0	10000	3	1	0	3	0
104	444	0	10000	3	1	0	3	0
102	445	0	10000	3	1	0	3	0
98	446	0	10000	3	1	0	3	0
95	447	0	10000	3	1	0	3	0
92	448	0	10000	3	1	0	3	0
90	449	0	10000	3	1	0	3	0
86	450	0	10000	3	1	0	3	0
84	451	0	10000	3	1	0	3	0
83	452	0	10000	3	1	0	3	0
83	453	0	10000	3	1	0	3	0
82	454	0	10000	3	1	0	3	0
81	455	0	10000	3	1	0	3	0
79	456	0	10000	3	1	0	3	0
78	457	0	10000	3	1	0	3	0
78	458	0	10000	3	1	0	3	0
80	459	0	10000	3	1	0	3	0
84	460	0	10000	3	1	0	3	0
83	461	0	10000	3	1	0	3	0
83	462	0	10000	3	1	0	3	0
83	463	0	10000	3	1	0	3	0
83	464	0	10000	3	1	0	3	0
84	465	0	10000	3	1	0	3	0
84	466	0	10000	3	1	0	3	0
88	467	0	10000	3	1	0	3	0
89	468	0	10000	3	1	0	3	0
89	469	0	10000	3	1	0	3	0
88	470	0	10000	3	1	0	3	0
90	471	0	10000	3	1	0	3	0
92	472	0	10000	3	1	0	3	0
94	473	0	10000	3	1	0	3	0
96	474	0	10000	3	1	0	3	0
95	475	0	10000	3	1	0	3	0
96	476	0	10000	3	1	0	3	0
96	477	0	10000	3	1	0	3	0
97	478	0	10000	3	1	0	3	0
99	479	0	10000	3	1	0	3	0
102	480	0	10000	3	1	0	3	0
102	481	0	10000	3	1	0	3	0
101	482	0	10000	3	1	0	3	0
101	483	0	10000	3	1	0	3	0
106	484	0	10000	3	1	0	3	0
110	485	0	10000	3	1	0	3	0
111	486	0	10000	3	1	0	3	0
112	487	0	10000	3	1	0	3	0
110	488	0	10000	3	1	0	3	0
107	489	0	10000	3	1	0	3	0
101	490	0	10000	3	1	0	3	0
100	491	0	10000	3	1	0	3	0
100	492	0	10000	3	1	0	3	0
100	493	0	10000	3	1	0	3	0
99	494	0	10000	3	1	0	3	0
99	495	0	10000	3	1	0	3	0
98	496	0	10000	3	1	0	3	0
94	497	0	10000	3	1	0	3	0
91	498	0	10000	3	1	0	3	0
89	499	0	10000	3	1	0	3	0
87	500	0	10000	3	1	0	3	0
86	501	0	10000	3	1	0	3	0
84	501	0	10000	3	1	0	3	1
83	502	0	10000	3	1	0	3	1
83	504	0	10000	3	1	0	3	1
83	505	0	10000	3	1	0	3	1
82	506	0	10000	3	1	0	3	1
81	507	0	10000	3	1	0	3	1
80	508	0	10000	3	1	0	3	1
76	509	0	10000	3	1	0	3	1
71	510	0	10000	3	1	0	3	1
68	511	0	10000	3	1	0	3	1
67	512	0	10000	3	1	0	3	1
66	513	0	10000	3	1	0	3	1
63	514	0	10000	3	1	0	3	1
61	515	0	10000	3	1	0	3	1
61	516	0	10000	3	1	0	3	1
59	517	0	10000	3	1	0	3	1
57	518	0	10000	3	1	0	3	1
56	519	0	10000	3	1	0	3	1
57	520	0	10000	3	1	0	3	1
56	521	0	10000	3	1	0	3	1
55	522	0	10000	3	1	0	3	1
53	523	0	10000	3	1	0	3	1
52	524	0	10000	3	1	0	3	1
50	525	0	10000	3	1	0	3	1
50	526	0	10000	3	1	0	3	1
52	527	0	10000	3	1	0	3	1
53	528	0	10000	3	1	0	3	1
53	529	0	10000	3	1	0	3	1
50	530	0	10000	3	1	0	3	1
50	531	0	10000	3	1	0	3	1
51	532	0	10000	3	1	0	3	1
53	533	0	10000	3	1	0	3	1
54	534	0	10000	3	1	0	3	1
54	535	0	10000	3	1	0	3	1
54	536	0	10000	3	1	0	3	1
52	537	0	10000	3	1	0	3	1
53	538	0	10000	3	1	0	3	1
52	539	0	10000	3	1	0	3	1
53	540	0	10000	3	1	0	3	1
53	541	0	10000	3	1	0	3	1
52	542	0	10000	3	1	0	3	1
51	543	0	10000	3	1	0	3	1
51	544	0	10000	3	1	0	3	1
50	545	0	10000	3	1	0	3	1
49	546	0	10000	3	1	0	3	1
48	547	0	10000	3	1	0	3	1
50	548	0	10000	3	1	0	3	1
51	549	0	10000	3	1	0	3	1
50	550	0	10000	3	1	0	3	1
51	551	0	10000	3	1	0	3	1
52	552	0	10000	3	1	0	3	0
52	553	0	10000	3	1	0	3	0
51	554	0	10000	3	1	0	3	0
51	555	0	10000	3	1	0	3	0
52	556	0	10000	3	1	0	3	0
54	557	0	10000	3	1	0	3	0
55	558	0	10000	3	1	0	3	0
56	559	0	10000	3	1	0	3	0
58	560	0	10000	3	1	0	3	0
57	561	0	10000	3	1	0	3	0
58	562	0	10000	3	1	0	3	0
59	563	0	10000	3	1	0	3	0
57	564	0	10000	3	1	0	3	0
55	565	0	10000	3	1	0	3	0
54	566	0	10000	3	1	0	3	0
54	567	0	10000	3	1	0	3	0
52	568	0	10000	3	1	0	3	0
50	569	0	10000	3	1	0	3	0
48	570	0	10000	3	1	0	3	0
48	571	0	10000	3	1	0	3	0
49	572	0	10000	3	1	0	3	0
48	573	0	10000	3	1	0	3	0
48	574	0	10000	3	1	0	3	0
48	575	0	10000	3	1	0	3	0
47	576	0	10000	3	1	0	3	0
47	577	0	10000	3	1	0	3	0
46	578	0	10000	3	1	0	3	0
45	579	0	10000	3	1	0	3	0
46	580	0	10000	3	1	0	3	0
44	581	0	10000	3	1	0	3	0
43	582	0	10000	3	1	0	3	0
40	583	0	10000	3	1	0	3	0
39	584	0	10000	3	1	0	3	0
38	585	0	10000	3	1	0	3	0
36	586	0	10000	3	1	0	3	0
36	587	0	10000	3	1	0	3	0
37	588	0	10000	3	1	0	3	0
36	589	0	10000	3	1	0	3	0
34	590	0	10000	3	1	0	3	0
37	591	0	10000	3	1	0	3	0
39	592	0	10000	3	1	0	3	0
41	593	0	10000	3	1	0	3	0
44	594	0	10000	3	1	0	3	0
43	595	0	10000	3	1	0	3	0
46	596	0	10000	3	1	0	3	0
48	597	0	10000	3	1	0	3	0
51	598	0	10000	3	1	0	3	0
61	599	0	10000	3	1	0	3	0
62	600	0	10000	3	1	0	3	0
60	601	0	10000	3	1	0	3	0
60	602	0	10000	3	1	0	3	0
63	603	0	10000	3	1	0	3	0
65	604	0	10000	3	1	0	3	0
67	605	0	10000	3	1	0	3	0
80	606	0	10000	3	1	0	3	0
98	607	0	10000	3	1	0	3	0
100	608	0	10000	3	1	0	3	0
100	609	0	10000	3	1	0	3	0
97	610	0	10000	3	1	0	3	0
99	611	0	10000	3	1	0	3	0
106	612	0	10000	3	1	0	3	0
126	613	0	10000	3	1	0	3	0
139	614	0	10000	3	1	0	3	0
145	615	0	10000	3	1	0	3	0
151	616	0	10000	3	1	0	3	0
156	617	0	10000	3	1	0	3	0
157	618	0	10000	3	1	0	3	0
154	619	0	10000	3	1	0	3	0
159	620	0	10000	3	1	0	3	0
161	621	0	10000	3	1	0	3	0
161	622	0	10000	3	1	0	3	0
159	623	0	10000	3	1	0	3	0
157	624	0	10000	3	1	0	3	0
155	625	0	10000	3	1	0	3	0
154	626	0	10000	3	1	0	3	0
152	627	0	10000	3	1	0	3	0
149	628	0	10000	3	1	0	3	0
145	629	0	10000	3	1	0	3	0
142	630	0	10000	3	1	0	3	0
140	631	0	10000	3	1	0	3	0
136	632	0	10000	3	1	0	3	0
133	633	0	10000	3	1	0	3	0
128	634	0	10000	3	1	0	3	0
123	635	0	10000	3	1	0	3	0
118	636	0	10000	3	1	0	3	0
113	637	0	10000	3	1	0	3	0
109	638	0	10000	3	1	0	3	0
104	639	0	10000	3	1	0	3	0
102	640	0	10000	3	1	0	3	0
99	641	0	10000	3	1	0	3	0
95	642	0	10000	3	1	0	3	0
90	643	0	10000	3	1	0	3	0
89	644	0	10000	3	1	0	3	0
88	645	0	10000	3	1	0	3	0
89	646	0	10000	3	1	0	3	0
90	647	0	10000	3	1	0	3	0
91	648	0	10000	3	1	0	3	0
92	649	0	10000	3	1	0	3	0
89	650	0	10000	3	1	0	3	0
89	651	0	10000	3	1	0	3	0
89	652	0	10000	3	1	0	3	0
88	653	0	10000	3	1	0	3	0
86	654	0	10000	3	1	0	3	0
84	655	0	10000	3	1	0	3	0
82	656	0	10000	3	1	0	3	0
80	657	0	10000	3	1	0	3	0
79	658	0	10000	3	1	0	3	0
76	659	0	10000	3	1	0	3	0
77	660	0	10000	3	1	0	3	0
75	661	0	10000	3	1	0	3	0
73	662	0	10000	3	1	0	3	0
71	663	0	10000	3	1	0	3	0
69	664	0	10000	3	1	0	3	0
68	665	0	10000	3	1	0	3	0
67	666	0	10000	3	1	0	3	0
67	667	0	10000	3	1	0	3	0
66	668	0	10000	3	1	0	3	0
65	669	0	10000	3	1	0	3	0
61	670	0	10000	3	1	0	3	0
59	671	0	10000	3	1	0	3	0
58	672	0	10000	3	1	0	3	0
56	673	0	10000	3	1	0	3	0
53	674	0	10000	3	1	0	3	0
52	675	0	10000	3	1	0	3	0
50	676	0	10000	3	1	0	3	0
50	677	0	10000	3	1	0	3	0
48	678	0	10000	3	1	0	3	0
48	679	0	10000	3	1	0	3	0
49	680	0	10000	3	1	0	3	0
48	681	0	10000	3	1	0	3	0
46	682	0	10000	3	1	0	3	0
45	683	0	10000	3	1	0	3	0
45	684	0	10000	3	1	0	3	0
46	685	0	10000	3	1	0	3	0
46	686	0	10000	3	1	0	3	0
45	687	0	10000	3	1	0	3	0
45	688	0	10000	3	1	0	3	0
43	689	0	10000	3	1	0	3	0
40	690	0	10000	3	1	0	3	0
40	691	0	10000	3	1	0	3	0
39	692	0	10000	3	1	0	3	0
40	693	0	10000	3	1	0	3	0
39	694	0	10000	3	1	0	3	0
39	695	0	10000	3	1	0	3	0
40	696	0	10000	3	1	0	3	0
40	697	0	10000	3	1	0	3	0
41	698	0	10000	3	1	0	3	0
39	699	0	10000	3	1	0	3	0
42	700	0	10000	3	1	0	3	0
41	701	0	10000	3	1	0	3	0
40	702	0	10000	3	1	0	3	0
38	703	0	10000	3	1	0	3	0
37	704	0	10000	3	1	0	3	0
35	705	0	10000	3	1	0	3	0
34	706	0	10000	3	1	0	3	0
33	707	0	10000	3	1	0	3	0
33	708	0	10000	3	1	0	3	0
32	709	0	10000	3	1	0	3	0
29	710	0	10000	3	1	0	3	0
28	711	0	10000	3	1	0	3	0
28	712	0	10000	3	1	0	3	0
27	713	0	10000	3	1	0	3	0
27	714	0	10000	3	1	0	3	0
28	715	0	10000	3	1	0	3	0
29	716	0	10000	3	1	0	3	0
29	717	0	10000	3	1	0	3	0
27	718	0	10000	3	1	0	3	0
27	719	0	10000	3	1	0	3	0
30	720	0	10000	3	1	0	3	0
31	721	0	10000	3	1	0	3	0
29	722	0	10000	3	1	0	3	0
28	723	0	10000	3	1	0	3	0
27	724	0	10000	3	1	0	3	0
26	725	0	10000	3	1	0	3	0
25	726	0	10000	3	1	0	3	0
26	727	0	10000	3	1	0	3	0
25	728	0	10000	3	1	0	3	0
26	729	0	10000	3	1	0	3	0
26	730	0	10000	3	1	0	3	0
29	731	0	10000	3	1	0	3	0
34	732	0	10000	3	1	0	3	0
35	733	0	10000	3	1	0	3	0
35	734	0	10000	3	1	0	3	0
39	735	0	10000	3	1	0	3	0
42	736	0	10000	3	1	0	3	0
40	737	0	10000	3	1	0	3	0
41	738	0	10000	3	1	0	3	0
42	739	0	10000	3	1	0	3	0
46	740	0	10000	3	1	0	3	0
47	741	0	10000	3	1	0	3	0
45	742	0	10000	3	1	0	3	0
44	743	0	10000	3	1	0	3	0
43	744	0	10000	3	1	0	3	0
42	745	0	10000	3	1	0	3	0
43	746	0	10000	3	1	0	3	0
45	747	0	10000	3	1	0	3	0
45	748	0	10000	3	1	0	3	0
46	749	0	10000	3	1	0	3	0
46	750	0	10000	3	1	0	3	0
45	751	0	10000	3	1	0	3	0
46	752	0	10000	3	1	0	3	0
44	753	0	10000	3	1	0	3	0
43	754	0	10000	3	1	0	3	0
43	755	0	10000	3	1	0	3	0
43	756	0	10000	3	1	0	3	0
42	757	0	10000	3	1	0	3	0
40	758	0	10000	3	1	0	3	0
41	759	0	10000	3	1	0	3	0
51	760	0	10000	3	1	0	3	0
55	761	0	10000	3	1	0	3	0
56	762	0	10000	3	1	0	3	0
57	763	0	10000	3	1	0	3	0
67	764	0	10000	3	1	0	3	0
68	765	0	10000	3	1	0	3	0
69	766	0	10000	3	1	0	3	0
67	767	0	10000	3	1	0	3	0
64	768	0	10000	3	1	0	3	0
66	769	0	10000	3	1	0	3	0
73	770	0	10000	3	1	0	3	0
76	771	0	10000	3	1	0	3	0
74	772	0	10000	3	1	0	3	0
72	773	0	10000	3	1	0	3	0
75	774	0	10000	3	1	0	3	0
79	775	0	10000	3	1	0	3	0
90	776	0	10000	3	1	0	3	0
88	777	0	10000	3	1	0	3	0
91	778	0	10000	3	1	0	3	0
101	779	0	10000	3	1	0	3	0
108	780	0	10000	3	1	0	3	0
106	781	0	10000	3	1	0	3	0
109	782	0	10000	3	1	0	3	0
115	783	0	10000	3	1	0	3	0
130	784	0	10000	3	1	0	3	0
130	785	0	10000	3	1	0	3	0
127	786	0	10000	3	1	0	3	0
122	787	0	10000	3	1	0	3	0
117	788	0	10000	3	1	0	3	0
113	789	0	10000	3	1	0	3	0
109	790	0	10000	3	1	0	3	0
108	791	0	10000	3	1	0	3	0
108	792	0	10000	3	1	0	3	0
121	793	0	10000	3	1	0	3	0
135	794	0	10000	3	1	0	3	0
142	795	0	10000	3	1	0	3	0
146	796	0	10000	3	1	0	3	0
144	797	0	10000	3	1	0	3	0
147	798	0	10000	3	1	0	3	0
152	799	0	10000	3	1	0	3	0
152	800	0	10000	3	1	0	3	0
152	801	0	10000	3	1	0	3	0
149	802	0	10000	3	1	0	3	0
142	803	0	10000	3	1	0	3	0
140	804	0	10000	3	1	0	3	0
140	805	0	10000	3	1	0	3	0
140	806	0	10000	3	1	0	3	0
141	807	0	10000	3	1	0	3	0
138	808	0	10000	3	1	0	3	0
133	809	0	10000	3	1	0	3	0
126	810	0	10000	3	1	0	3	0
123	811	0	10000	3	1	0	3	0
125	812	0	10000	3	1	0	3	0
127	813	0	10000	3	1	0	3	0
126	814	0	10000	3	1	0	3	0
120	815	0	10000	3	1	0	3	0
117	816	0	10000	3	1	0	3	0
113	817	0	10000	3	1	0	3	0
111	818	0	10000	3	1	0	3	0
111	819	0	10000	3	1	0	3	0
111	820	0	10000	3	1	0	3	0
107	821	0	10000	3	1	0	3	0
103	822	0	10000	3	1	0	3	0
100	823	0	10000	3	1	0	3	0
101	824	0	10000	3	1	0	3	0
105	825	0	10000	3	1	0	3	0
108	826	0	10000	3	1	0	3	0
112	827	0	10000	3	1	0	3	0
113	828	0	10000	3	1	0	3	0
114	829	0	10000	3	1	0	3	0
113	830	0	10000	3	1	0	3	0
113	831	0	10000	3	1	0	3	0
113	832	0	10000	3	1	0	3	0
114	833	0	10000	3	1	0	3	0
115	834	0	10000	3	1	0	3	0
117	835	0	10000	3	1	0	3	0
120	836	0	10000	3	1	0	3	0
121	837	0	10000	3	1	0	3	0
124	838	0	10000	3	1	0	3	0
128	839	0	10000	3	1	0	3	0
134	840	0	10000	3	1	0	3	0
138	841	0	10000	3	1	0	3	0
140	842	0	10000	3	1	0	3	0
143	843	0	10000	3	1	0	3	0
145	844	0	10000	3	1	0	3	0
146	845	0	10000	3	1	0	3	0
148	846	0	10000	3	1	0	3	0
149	847	0	10000	3	1	0	3	0
148	848	0	10000	3	1	0	3	0
147	849	0	10000	3	1	0	3	0
143	850	0	10000	3	1	0	3	0
142	851	0	10000	3	1	0	3	0
142	852	0	10000	3	1	0	3	0
141	853	0	10000	3	1	0	3	0
140	854	0	10000	3	1	0	3	0
138	855	0	10000	3	1	0	3	0
136	856	0	10000	3	1	0	3	0
132	857	0	10000	3	1	0	3	0
130	858	0	10000	3	1	0	3	0
128	859	0	10000	3	1	0	3	0
127	860	0	10000	3	1	0	3	0
125	861	0	10000	3	1	0	3	0
121	862	0	10000	3	1	0	3	0
119	863	0	10000	3	1	0	3	0
116	864	0	10000	3	1	0	3	0
111	865	0	10000	3	1	0	3	0
107	866	0	10000	3	1	0	3	0
103	867	0	10000	3	1	0	3	0
99	868	0	10000	3	1	0	3	0
96	869	0	10000	3	1	0	3	0
90	870	0	10000	3	1	0	3	0
87	871	0	10000	3	1	0	3	0
84	872	0	10000	3	1	0	3	0
80	873	0	10000	3	1	0	3	0
79	874	0	10000	3	1	0	3	0
78	875	0	10000	3	1	0	3	0
79	876	0	10000	3	1	0	3	0
79	877	0	10000	3	1	0	3	0
78	878	0	10000	3	1	0	3	0
78	879	0	10000	3	1	0	3	0
78	880	0	10000	3	1	0	3	0
75	881	0	10000	3	1	0	3	0
73	882	0	10000	3	1	0	3	0
71	883	0	10000	3	1	0	3	0
69	884	0	10000	3	1	0	3	0
67	885	0	10000	3	1	0	3	0
64	886	0	10000	3	1	0	3	0
62	887	0	10000	3	1	0	3	0
61	888	0	10000	3	1	0	3	0
61	889	0	10000	3	1	0	3	0
59	890	0	10000	3	1	0	3	0
58	891	0	10000	3	1	0	3	0
58	892	0	10000	3	1	0	3	0
58	893	0	10000	3	1	0	3	0
58	894	0	10000	3	1	0	3	0
59	895	0	10000	3	1	0	3	0
61	896	0	10000	3	1	0	3	0
62	897	0	10000	3	1	0	3	0
64	898	0	10000	3	1	0	3	0
65	899	0	10000	3	1	0	3	0
70	900	0	10000	3	1	0	3	0
73	901	0	10000	3	1	0	3	0
73	902	0	10000	3	1	0	3	0
74	903	0	10000	3	1	0	3	0
74	904	0	10000	3	1	0	3	0
74	905	0	10000	3	1	0	3	0
72	906	0	10000	3	1	0	3	0
71	907	0	10000	3	1	0	3	0
70	908	0	10000	3	1	0	3	0
68	909	0	10000	3	1	0	3	0
64	910	0	10000	3	1	0	3	0
62	911	0	10000	3	1	0	3	0
60	912	0	10000	3	1	0	3	0
61	913	0	10000	3	1	0	3	0
61	914	0	10000	3	1	0	3	0
62	915	0	10000	3	1	0	3	0
64	916	0	10000	3	1	0	3	0
65	917	0	10000	3	1	0	3	0
65	918	0	10000	3	1	0	3	0
65	919	0	10000	3	1	0	3	0
66	920	0	10000	3	1	0	3	0
63	921	0	10000	3	1	0	3	0
60	922	0	10000	3	1	0	3	0
58	923	0	10000	3	1	0	3	0
56	924	0	10000	3	1	0	3	0
55	925	0	10000	3	1	0	3	0
54	926	0	10000	3	1	0	3	0
52	927	0	10000	3	1	0	3	0
50	928	0	10000	3	1	0	3	0
50	929	0	10000	3	1	0	3	0
48	930	0	10000	3	1	0	3	0
47	931	0	10000	3	1	0	3	0
46	932	0	10000	3	1	0	3	0
46	933	0	10000	3	1	0	3	0
49	934	0	10000	3	1	0	3	0
49	935	0	10000	3	1	0	3	0
48	936	0	10000	3	1	0	3	0
46	937	0	10000	3	1	0	3	0
44	938	0	10000	3	1	0	3	0
43	939	0	10000	3	1	0	3	0
46	940	0	10000	3	1	0	3	0
45	941	0	10000	3	1	0	3	0
46	942	0	10000	3	1	0	3	0
47	943	0	10000	3	1	0	3	0
48	944	0	10000	3	1	0	3	0
46	945	0	10000	3	1	0	3	0
45	946	0	10000	3	1	0	3	0
44	947	0	10000	3	1	0	3	0
44	948	0	10000	3	1	0	3	0
43	949	0	10000	3	1	0	3	0
40	950	0	10000	3	1	0	3	0
42	951	0	10000	3	1	0	3	0
45	952	0	10000	3	1	0	3	0
44	953	0	10000	3	1	0	3	0
47	954	0	10000	3	1	0	3	0
53	955	0	10000	3	1	0	3	0
57	956	0	10000	3	1	0	3	0
58	957	0	10000	3	1	0	3	0
59	958	0	10000	3	1	0	3	0
58	959	0	10000	3	1	0	3	0
59	960	0	10000	3	1	0	3	0
59	961	0	10000	3	1	0	3	0
56	962	0	10000	3	1	0	3	0
55	963	0	10000	3	1	0	3	0
56	964	0	10000	3	1	0	3	0
58	965	0	10000	3	1	0	3	0
59	966	0	10000	3	1	0	3	0
58	967	0	10000	3	1	0	3	0
56	968	0	10000	3	1	0	3	0
56	969	0	10000	3	1	0	3	0
52	970	0	10000	3	1	0	3	0
50	971	0	10000	3	1	0	3	0
50	972	0	10000	3	1	0	3	0
48	973	0	10000	3	1	0	3	0
47	974	0	10000	3	1	0	3	0
47	975	0	10000	3	1	0	3	0
45	976	0	10000	3	1	0	3	0
43	977	0	10000	3	1	0	3	0
43	978	0	10000	3	1	0	3	0
43	979	0	10000	3	1	0	3	0
43	980	0	10000	3	1	0	3	0
43	981	0	10000	3	1	0	3	0
42	982	0	10000	3	1	0	3	0
41	983	0	10000	3	1	0	3	0
40	984	0	10000	3	1	0	3	0
40	985	0	10000	3	1	0	3	0
39	986	0	10000	3	1	0	3	0
40	987	0	10000	3	1	0	3	0
41	988	0	10000	3	1	0	3	0
42	989	0	10000	3	1	0	3	0
39	990	0	10000	3	1	0	3	0
39	991	0	10000	3	1	0	3	0
37	992	0	10000	3	1	0	3	0
36	993	0	10000	3	1	0	3	0
36	994	0	10000	3	1	0	3	0
36	995	0	10000	3	1	0	3	0
36	996	0	10000	3	1	0	3	0
37	997	0	10000	3	1	0	3	0
37	998	0	10000	3	1	0	3	0
36	999	0	10000	3	1	0	3	0
36	1000	0	10000	3	1	0	3	0
35	1001	0	10000	3	1	0	3	0
26	1	1	10000	4	1	0	4	0
27	2	1	10000	4	1	0	4	0
28	3	1	10000	4	1	0	4	0
26	4	1	10000	4	1	0	4	0
27	5	1	10000	4	1	0	4	0
28	6	1	10000	4	1	0	4	0
28	7	1	10000	4	1	0	4	0
27	8	1	10000	4	1	0	4	0
27	9	1	10000	4	1	0	4	0
26	10	1	10000	4	1	0	4	0
27	11	1	10000	4	1	0	4	0
26	12	1	10000	4	1	0	4	0
27	13	1	10000	4	1	0	4	0
27	14	1	10000	4	1	0	4	0
26	15	1	10000	4	1	0	4	0
25	16	1	10000	4	1	0	4	0
25	17	1	10000	4	1	0	4	0
25	18	1	10000	4	1	0	4	0
26	19	1	10000	4	1	0	4	0
25	20	1	10000	4	1	0	4	0
24	21	1	10000	4	1	0	4	0
24	22	1	10000	4	1	0	4	0
24	23	1	10000	4	1	0	4	0
21	24	1	10000	4	1	0	4	0
20	25	1	10000	4	1	0	4	0
20	26	1	10000	4	1	0	4	0
21	27	1	10000	4	1	0	4	0
20	28	1	10000	4	1	0	4	0
20	29	1	10000	4	1	0	4	0
20	30	1	10000	4	1	0	4	0
20	31	1	10000	4	1	0	4	0
18	32	1	10000	4	1	0	4	0
18	33	1	10000	4	1	0	4	0
20	34	1	10000	4	1	0	4	0
20	35	1	10000	4	1	0	4	0
19	36	1	10000	4	1	0	4	0
18	37	1	10000	4	1	0	4	0
18	38	1	10000	4	1	0	4	0
18	39	1	10000	4	1	0	4	0
18	40	1	10000	4	1	0	4	0
18	41	1	10000	4	1	0	4	0
19	42	1	10000	4	1	0	4	0
18	43	1	10000	4	1	0	4	0
16	44	1	10000	4	1	0	4	0
18	45	1	10000	4	1	0	4	0
18	46	1	10000	4	1	0	4	0
17	47	1	10000	4	1	0	4	0
18	48	1	10000	4	1	0	4	0
17	49	1	10000	4	1	0	4	0
18	50	1	10000	4	1	0	4	0
17	51	1	10000	4	1	0	4	0
16	52	1	10000	4	1	0	4	0
16	53	1	10000	4	1	0	4	0
18	54	1	10000	4	1	0	4	0
17	55	1	10000	4	1	0	4	0
17	56	1	10000	4	1	0	4	0
15	57	1	10000	4	1	0	4	0
15	58	1	10000	4	1	0	4	0
16	59	1	10000	4	1	0	4	0
14	60	1	10000	4	1	0	4	0
15	61	1	10000	4	1	0	4	0
15	62	1	10000	4	1	0	4	0
15	63	1	10000	4	1	0	4	0
13	64	1	10000	4	1	0	4	0
14	65	1	10000	4	1	0	4	0
14	66	1	10000	4	1	0	4	0
14	67	1	10000	4	1	0	4	0
14	68	1	10000	4	1	0	4	0
14	69	1	10000	4	1	0	4	0
15	70	1	10000	4	1	0	4	0
13	71	1	10000	4	1	0	4	0
13	72	1	10000	4	1	0	4	0
13	73	1	10000	4	1	0	4	0
15	74	1	10000	4	1	0	4	0
15	75	1	10000	4	1	0	4	0
15	76	1	10000	4	1	0	4	0
14	77	1	10000	4	1	0	4	0
14	78	1	10000	4	1	0	4	0
14	79	1	10000	4	1	0	4	0
13	80	1	10000	4	1	0	4	0
14	81	1	10000	4	1	0	4	0
14	82	1	10000	4	1	0	4	0
15	83	1	10000	4	1	0	4	0
15	84	1	10000	4	1	0	4	0
15	85	1	10000	4	1	0	4	0
14	86	1	10000	4	1	0	4	0
15	87	1	10000	4	1	0	4	0
14	88	1	10000	4	1	0	4	0
14	89	1	10000	4	1	0	4	0
16	90	1	10000	4	1	0	4	0
15	91	1	10000	4	1	0	4	0
15	92	1	10000	4	1	0	4	0
15	93	1	10000	4	1	0	4	0
17	94	1	10000	4	1	0	4	0
17	95	1	10000	4	1	0	4	0
16	96	1	10000	4	1	0	4	0
15	97	1	10000	4	1	0	4	0
15	98	1	10000	4	1	0	4	0
15	99	1	10000	4	1	0	4	0
15	100	1	10000	4	1	0	4	0
16	101	1	10000	4	1	0	4	0
15	102	1	10000	4	1	0	4	0
14	103	1	10000	4	1	0	4	0
13	104	1	10000	4	1	0	4	0
13	105	1	10000	4	1	0	4	0
13	106	1	10000	4	1	0	4	0
14	107	1	10000	4	1	0	4	0
16	108	1	10000	4	1	0	4	0
16	109	1	10000	4	1	0	4	0
16	110	1	10000	4	1	0	4	0
15	111	1	10000	4	1	0	4	0
14	112	1	10000	4	1	0	4	0
14	113	1	10000	4	1	0	4	0
16	114	1	10000	4	1	0	4	0
16	115	1	10000	4	1	0	4	0
16	116	1	10000	4	1	0	4	0
16	117	1	10000	4	1	0	4	0
16	118	1	10000	4	1	0	4	0
16	119	1	10000	4	1	0	4	0
16	120	1	10000	4	1	0	4	0
16	121	1	10000	4	1	0	4	0
15	122	1	10000	4	1	0	4	0
15	123	1	10000	4	1	0	4	0
14	124	1	10000	4	1	0	4	0
16	125	1	10000	4	1	0	4	0
18	126	1	10000	4	1	0	4	0
20	127	1	10000	4	1	0	4	0
23	128	1	10000	4	1	0	4	0
25	129	1	10000	4	1	0	4	0
26	130	1	10000	4	1	0	4	0
25	131	1	10000	4	1	0	4	0
24	132	1	10000	4	1	0	4	0
23	133	1	10000	4	1	0	4	0
25	134	1	10000	4	1	0	4	0
25	135	1	10000	4	1	0	4	0
26	136	1	10000	4	1	0	4	0
26	137	1	10000	4	1	0	4	0
26	138	1	10000	4	1	0	4	0
29	139	1	10000	4	1	0	4	0
32	140	1	10000	4	1	0	4	0
38	141	1	10000	4	1	0	4	0
42	142	1	10000	4	1	0	4	0
45	143	1	10000	4	1	0	4	0
49	144	1	10000	4	1	0	4	0
53	145	1	10000	4	1	0	4	0
56	146	1	10000	4	1	0	4	0
60	147	1	10000	4	1	0	4	0
64	148	1	10000	4	1	0	4	0
67	149	1	10000	4	1	0	4	0
68	150	1	10000	4	1	0	4	0
71	151	1	10000	4	1	0	4	0
72	152	1	10000	4	1	0	4	0
76	153	1	10000	4	1	0	4	0
79	154	1	10000	4	1	0	4	0
81	155	1	10000	4	1	0	4	0
84	156	1	10000	4	1	0	4	0
87	157	1	10000	4	1	0	4	0
88	158	1	10000	4	1	0	4	0
87	159	1	10000	4	1	0	4	0
84	160	1	10000	4	1	0	4	0
81	161	1	10000	4	1	0	4	0
79	162	1	10000	4	1	0	4	0
76	163	1	10000	4	1	0	4	0
72	164	1	10000	4	1	0	4	0
71	165	1	10000	4	1	0	4	0
70	166	1	10000	4	1	0	4	0
70	167	1	10000	4	1	0	4	0
71	168	1	10000	4	1	0	4	0
73	169	1	10000	4	1	0	4	0
74	170	1	10000	4	1	0	4	0
75	171	1	10000	4	1	0	4	0
76	172	1	10000	4	1	0	4	0
78	173	1	10000	4	1	0	4	0
79	174	1	10000	4	1	0	4	0
80	175	1	10000	4	1	0	4	0
82	176	1	10000	4	1	0	4	0
84	177	1	10000	4	1	0	4	0
87	178	1	10000	4	1	0	4	0
89	179	1	10000	4	1	0	4	0
91	180	1	10000	4	1	0	4	0
93	181	1	10000	4	1	0	4	0
95	182	1	10000	4	1	0	4	0
96	183	1	10000	4	1	0	4	0
96	184	1	10000	4	1	0	4	0
99	185	1	10000	4	1	0	4	0
101	186	1	10000	4	1	0	4	0
103	187	1	10000	4	1	0	4	0
102	188	1	10000	4	1	0	4	0
102	189	1	10000	4	1	0	4	0
101	190	1	10000	4	1	0	4	0
97	191	1	10000	4	1	0	4	0
95	192	1	10000	4	1	0	4	0
93	193	1	10000	4	1	0	4	0
94	194	1	10000	4	1	0	4	0
93	195	1	10000	4	1	0	4	0
93	196	1	10000	4	1	0	4	0
92	197	1	10000	4	1	0	4	0
90	198	1	10000	4	1	0	4	0
87	199	1	10000	4	1	0	4	0
85	200	1	10000	4	1	0	4	0
86	201	1	10000	4	1	0	4	0
86	202	1	10000	4	1	0	4	0
85	203	1	10000	4	1	0	4	0
83	204	1	10000	4	1	0	4	0
83	205	1	10000	4	1	0	4	0
83	206	1	10000	4	1	0	4	0
82	207	1	10000	4	1	0	4	0
79	208	1	10000	4	1	0	4	0
77	209	1	10000	4	1	0	4	0
75	210	1	10000	4	1	0	4	0
72	211	1	10000	4	1	0	4	0
71	212	1	10000	4	1	0	4	0
69	213	1	10000	4	1	0	4	0
68	214	1	10000	4	1	0	4	0
67	215	1	10000	4	1	0	4	0
64	216	1	10000	4	1	0	4	0
62	217	1	10000	4	1	0	4	0
59	218	1	10000	4	1	0	4	0
57	219	1	10000	4	1	0	4	0
55	220	1	10000	4	1	0	4	0
54	221	1	10000	4	1	0	4	0
51	222	1	10000	4	1	0	4	0
49	223	1	10000	4	1	0	4	0
46	224	1	10000	4	1	0	4	0
45	225	1	10000	4	1	0	4	0
44	226	1	10000	4	1	0	4	0
42	227	1	10000	4	1	0	4	0
41	228	1	10000	4	1	0	4	0
40	229	1	10000	4	1	0	4	0
39	230	1	10000	4	1	0	4	0
37	231	1	10000	4	1	0	4	0
35	232	1	10000	4	1	0	4	0
34	233	1	10000	4	1	0	4	0
35	234	1	10000	4	1	0	4	0
33	235	1	10000	4	1	0	4	0
32	236	1	10000	4	1	0	4	0
31	237	1	10000	4	1	0	4	0
30	238	1	10000	4	1	0	4	0
29	239	1	10000	4	1	0	4	0
29	240	1	10000	4	1	0	4	0
28	241	1	10000	4	1	0	4	0
28	242	1	10000	4	1	0	4	0
27	243	1	10000	4	1	0	4	0
24	244	1	10000	4	1	0	4	0
24	245	1	10000	4	1	0	4	0
26	246	1	10000	4	1	0	4	0
25	247	1	10000	4	1	0	4	0
25	248	1	10000	4	1	0	4	0
24	249	1	10000	4	1	0	4	0
23	250	1	10000	4	1	0	4	0
23	251	1	10000	4	1	0	4	0
22	252	1	10000	4	1	0	4	0
21	253	1	10000	4	1	0	4	0
23	254	1	10000	4	1	0	4	0
22	255	1	10000	4	1	0	4	0
23	256	1	10000	4	1	0	4	0
22	257	1	10000	4	1	0	4	0
22	258	1	10000	4	1	0	4	0
21	259	1	10000	4	1	0	4	0
20	260	1	10000	4	1	0	4	0
20	261	1	10000	4	1	0	4	0
21	262	1	10000	4	1	0	4	0
20	263	1	10000	4	1	0	4	0
19	264	1	10000	4	1	0	4	0
19	265	1	10000	4	1	0	4	0
18	266	1	10000	4	1	0	4	0
18	267	1	10000	4	1	0	4	0
18	268	1	10000	4	1	0	4	0
17	269	1	10000	4	1	0	4	0
18	270	1	10000	4	1	0	4	0
17	271	1	10000	4	1	0	4	0
17	272	1	10000	4	1	0	4	0
16	273	1	10000	4	1	0	4	0
18	274	1	10000	4	1	0	4	0
19	275	1	10000	4	1	0	4	0
19	276	1	10000	4	1	0	4	0
18	277	1	10000	4	1	0	4	0
18	278	1	10000	4	1	0	4	0
18	279	1	10000	4	1	0	4	0
16	280	1	10000	4	1	0	4	0
17	281	1	10000	4	1	0	4	0
17	282	1	10000	4	1	0	4	0
17	283	1	10000	4	1	0	4	0
14	284	1	10000	4	1	0	4	0
14	285	1	10000	4	1	0	4	0
14	286	1	10000	4	1	0	4	0
15	287	1	10000	4	1	0	4	0
14	288	1	10000	4	1	0	4	0
14	289	1	10000	4	1	0	4	0
15	290	1	10000	4	1	0	4	0
14	291	1	10000	4	1	0	4	0
13	292	1	10000	4	1	0	4	0
14	293	1	10000	4	1	0	4	0
15	294	1	10000	4	1	0	4	0
15	295	1	10000	4	1	0	4	0
14	296	1	10000	4	1	0	4	0
13	297	1	10000	4	1	0	4	0
13	298	1	10000	4	1	0	4	0
13	299	1	10000	4	1	0	4	0
12	300	1	10000	4	1	0	4	0
13	301	1	10000	4	1	0	4	0
13	302	1	10000	4	1	0	4	0
14	303	1	10000	4	1	0	4	0
12	304	1	10000	4	1	0	4	0
13	305	1	10000	4	1	0	4	0
14	306	1	10000	4	1	0	4	0
15	307	1	10000	4	1	0	4	0
14	308	1	10000	4	1	0	4	0
14	309	1	10000	4	1	0	4	0
14	310	1	10000	4	1	0	4	0
14	311	1	10000	4	1	0	4	0
14	312	1	10000	4	1	0	4	0
14	313	1	10000	4	1	0	4	0
15	314	1	10000	4	1	0	4	0
15	315	1	10000	4	1	0	4	0
15	316	1	10000	4	1	0	4	0
15	317	1	10000	4	1	0	4	0
16	318	1	10000	4	1	0	4	0
15	319	1	10000	4	1	0	4	0
14	320	1	10000	4	1	0	4	0
15	321	1	10000	4	1	0	4	0
15	322	1	10000	4	1	0	4	0
16	323	1	10000	4	1	0	4	0
14	324	1	10000	4	1	0	4	0
14	325	1	10000	4	1	0	4	0
15	326	1	10000	4	1	0	4	0
16	327	1	10000	4	1	0	4	0
15	328	1	10000	4	1	0	4	0
16	329	1	10000	4	1	0	4	0
15	330	1	10000	4	1	0	4	0
15	331	1	10000	4	1	0	4	0
16	332	1	10000	4	1	0	4	0
16	333	1	10000	4	1	0	4	0
18	334	1	10000	4	1	0	4	0
19	335	1	10000	4	1	0	4	0
18	336	1	10000	4	1	0	4	0
17	337	1	10000	4	1	0	4	0
18	338	1	10000	4	1	0	4	0
17	339	1	10000	4	1	0	4	0
17	340	1	10000	4	1	0	4	0
17	341	1	10000	4	1	0	4	0
18	342	1	10000	4	1	0	4	0
17	343	1	10000	4	1	0	4	0
15	344	1	10000	4	1	0	4	0
15	345	1	10000	4	1	0	4	0
16	346	1	10000	4	1	0	4	0
15	347	1	10000	4	1	0	4	0
15	348	1	10000	4	1	0	4	0
15	349	1	10000	4	1	0	4	0
15	350	1	10000	4	1	0	4	0
14	351	1	10000	4	1	0	4	0
14	352	1	10000	4	1	0	4	0
13	353	1	10000	4	1	0	4	0
15	354	1	10000	4	1	0	4	0
15	355	1	10000	4	1	0	4	0
15	356	1	10000	4	1	0	4	0
15	357	1	10000	4	1	0	4	0
14	358	1	10000	4	1	0	4	0
14	359	1	10000	4	1	0	4	0
15	360	1	10000	4	1	0	4	0
14	361	1	10000	4	1	0	4	0
14	362	1	10000	4	1	0	4	0
14	363	1	10000	4	1	0	4	0
12	364	1	10000	4	1	0	4	0
13	365	1	10000	4	1	0	4	0
13	366	1	10000	4	1	0	4	0
13	367	1	10000	4	1	0	4	0
14	368	1	10000	4	1	0	4	0
14	369	1	10000	4	1	0	4	0
14	370	1	10000	4	1	0	4	0
14	371	1	10000	4	1	0	4	0
12	372	1	10000	4	1	0	4	0
12	373	1	10000	4	1	0	4	0
14	374	1	10000	4	1	0	4	0
14	375	1	10000	4	1	0	4	0
13	376	1	10000	4	1	0	4	0
13	377	1	10000	4	1	0	4	0
13	378	1	10000	4	1	0	4	0
13	379	1	10000	4	1	0	4	0
12	380	1	10000	4	1	0	4	0
13	381	1	10000	4	1	0	4	0
13	382	1	10000	4	1	0	4	0
13	383	1	10000	4	1	0	4	0
12	384	1	10000	4	1	0	4	0
13	385	1	10000	4	1	0	4	0
12	386	1	10000	4	1	0	4	0
13	387	1	10000	4	1	0	4	0
13	388	1	10000	4	1	0	4	0
13	389	1	10000	4	1	0	4	0
13	390	1	10000	4	1	0	4	0
15	391	1	10000	4	1	0	4	0
15	392	1	10000	4	1	0	4	0
16	393	1	10000	4	1	0	4	0
18	394	1	10000	4	1	0	4	0
17	395	1	10000	4	1	0	4	0
17	396	1	10000	4	1	0	4	0
17	397	1	10000	4	1	0	4	0
16	398	1	10000	4	1	0	4	0
17	399	1	10000	4	1	0	4	0
18	400	1	10000	4	1	0	4	0
19	401	1	10000	4	1	0	4	0
20	402	1	10000	4	1	0	4	0
19	403	1	10000	4	1	0	4	0
17	404	1	10000	4	1	0	4	0
16	405	1	10000	4	1	0	4	0
16	406	1	10000	4	1	0	4	0
16	407	1	10000	4	1	0	4	0
16	408	1	10000	4	1	0	4	0
15	409	1	10000	4	1	0	4	0
16	410	1	10000	4	1	0	4	0
14	411	1	10000	4	1	0	4	0
14	412	1	10000	4	1	0	4	0
13	413	1	10000	4	1	0	4	0
15	414	1	10000	4	1	0	4	0
15	415	1	10000	4	1	0	4	0
14	416	1	10000	4	1	0	4	0
14	417	1	10000	4	1	0	4	0
13	418	1	10000	4	1	0	4	0
13	419	1	10000	4	1	0	4	0
13	420	1	10000	4	1	0	4	0
13	421	1	10000	4	1	0	4	0
13	422	1	10000	4	1	0	4	0
13	423	1	10000	4	1	0	4	0
12	424	1	10000	4	1	0	4	0
11	425	1	10000	4	1	0	4	0
12	426	1	10000	4	1	0	4	0
12	427	1	10000	4	1	0	4	0
13	428	1	10000	4	1	0	4	0
13	429	1	10000	4	1	0	4	0
13	430	1	10000	4	1	0	4	0
12	431	1	10000	4	1	0	4	0
12	432	1	10000	4	1	0	4	0
12	433	1	10000	4	1	0	4	0
13	434	1	10000	4	1	0	4	0
13	435	1	10000	4	1	0	4	0
13	436	1	10000	4	1	0	4	0
12	437	1	10000	4	1	0	4	0
12	438	1	10000	4	1	0	4	0
12	439	1	10000	4	1	0	4	0
11	440	1	10000	4	1	0	4	0
12	441	1	10000	4	1	0	4	0
12	442	1	10000	4	1	0	4	0
12	443	1	10000	4	1	0	4	0
10	444	1	10000	4	1	0	4	0
11	445	1	10000	4	1	0	4	0
10	446	1	10000	4	1	0	4	0
11	447	1	10000	4	1	0	4	0
10	448	1	10000	4	1	0	4	0
11	449	1	10000	4	1	0	4	0
12	450	1	10000	4	1	0	4	0
12	451	1	10000	4	1	0	4	0
12	452	1	10000	4	1	0	4	0
12	453	1	10000	4	1	0	4	0
13	454	1	10000	4	1	0	4	0
13	455	1	10000	4	1	0	4	0
13	456	1	10000	4	1	0	4	0
12	457	1	10000	4	1	0	4	0
13	458	1	10000	4	1	0	4	0
12	459	1	10000	4	1	0	4	0
11	460	1	10000	4	1	0	4	0
12	461	1	10000	4	1	0	4	0
12	462	1	10000	4	1	0	4	0
13	463	1	10000	4	1	0	4	0
10	464	1	10000	4	1	0	4	0
10	465	1	10000	4	1	0	4	0
11	466	1	10000	4	1	0	4	0
12	467	1	10000	4	1	0	4	0
11	468	1	10000	4	1	0	4	0
12	469	1	10000	4	1	0	4	0
12	470	1	10000	4	1	0	4	0
12	471	1	10000	4	1	0	4	0
11	472	1	10000	4	1	0	4	0
11	473	1	10000	4	1	0	4	0
14	474	1	10000	4	1	0	4	0
12	475	1	10000	4	1	0	4	0
12	476	1	10000	4	1	0	4	0
12	477	1	10000	4	1	0	4	0
13	478	1	10000	4	1	0	4	0
12	479	1	10000	4	1	0	4	0
11	480	1	10000	4	1	0	4	0
12	481	1	10000	4	1	0	4	0
13	482	1	10000	4	1	0	4	0
13	483	1	10000	4	1	0	4	0
11	484	1	10000	4	1	0	4	0
11	485	1	10000	4	1	0	4	0
11	486	1	10000	4	1	0	4	0
11	487	1	10000	4	1	0	4	0
12	488	1	10000	4	1	0	4	0
11	489	1	10000	4	1	0	4	0
12	490	1	10000	4	1	0	4	0
12	491	1	10000	4	1	0	4	0
11	492	1	10000	4	1	0	4	0
10	493	1	10000	4	1	0	4	0
13	494	1	10000	4	1	0	4	0
13	495	1	10000	4	1	0	4	0
13	496	1	10000	4	1	0	4	0
13	497	1	10000	4	1	0	4	0
13	498	1	10000	4	1	0	4	0
12	499	1	10000	4	1	0	4	0
12	500	1	10000	4	1	0	4	0
13	501	1	10000	4	1	0	4	1
14	502	1	10000	4	1	0	4	1
13	503	1	10000	4	1	0	4	1
10	504	1	10000	4	1	0	4	1
11	505	1	10000	4	1	0	4	1
12	506	1	10000	4	1	0	4	1
11	507	1	10000	4	1	0	4	1
12	508	1	10000	4	1	0	4	1
13	509	1	10000	4	1	0	4	1
12	510	1	10000	4	1	0	4	1
12	511	1	10000	4	1	0	4	1
12	512	1	10000	4	1	0	4	1
11	513	1	10000	4	1	0	4	1
14	514	1	10000	4	1	0	4	1
14	515	1	10000	4	1	0	4	1
15	516	1	10000	4	1	0	4	1
14	517	1	10000	4	1	0	4	1
15	518	1	10000	4	1	0	4	1
14	519	1	10000	4	1	0	4	1
14	520	1	10000	4	1	0	4	1
15	521	1	10000	4	1	0	4	1
15	522	1	10000	4	1	0	4	1
15	523	1	10000	4	1	0	4	1
14	524	1	10000	4	1	0	4	1
14	525	1	10000	4	1	0	4	1
14	526	1	10000	4	1	0	4	1
15	527	1	10000	4	1	0	4	1
14	528	1	10000	4	1	0	4	1
14	529	1	10000	4	1	0	4	1
15	530	1	10000	4	1	0	4	1
14	531	1	10000	4	1	0	4	1
13	532	1	10000	4	1	0	4	1
13	533	1	10000	4	1	0	4	1
15	534	1	10000	4	1	0	4	1
14	535	1	10000	4	1	0	4	1
14	536	1	10000	4	1	0	4	1
14	537	1	10000	4	1	0	4	1
13	538	1	10000	4	1	0	4	1
13	539	1	10000	4	1	0	4	1
12	540	1	10000	4	1	0	4	1
14	541	1	10000	4	1	0	4	1
15	542	1	10000	4	1	0	4	1
16	543	1	10000	4	1	0	4	1
16	544	1	10000	4	1	0	4	1
18	545	1	10000	4	1	0	4	1
21	546	1	10000	4	1	0	4	1
24	547	1	10000	4	1	0	4	1
26	548	1	10000	4	1	0	4	1
29	549	1	10000	4	1	0	4	1
32	550	1	10000	4	1	0	4	1
30	551	1	10000	4	1	0	4	0
29	552	1	10000	4	1	0	4	0
28	553	1	10000	4	1	0	4	0
30	554	1	10000	4	1	0	4	0
31	555	1	10000	4	1	0	4	0
29	556	1	10000	4	1	0	4	0
29	557	1	10000	4	1	0	4	0
31	558	1	10000	4	1	0	4	0
34	559	1	10000	4	1	0	4	0
39	560	1	10000	4	1	0	4	0
46	561	1	10000	4	1	0	4	0
55	562	1	10000	4	1	0	4	0
63	563	1	10000	4	1	0	4	0
66	564	1	10000	4	1	0	4	0
69	565	1	10000	4	1	0	4	0
74	566	1	10000	4	1	0	4	0
77	567	1	10000	4	1	0	4	0
81	568	1	10000	4	1	0	4	0
87	569	1	10000	4	1	0	4	0
91	570	1	10000	4	1	0	4	0
93	571	1	10000	4	1	0	4	0
93	572	1	10000	4	1	0	4	0
93	573	1	10000	4	1	0	4	0
95	574	1	10000	4	1	0	4	0
95	575	1	10000	4	1	0	4	0
93	576	1	10000	4	1	0	4	0
91	577	1	10000	4	1	0	4	0
90	578	1	10000	4	1	0	4	0
87	579	1	10000	4	1	0	4	0
85	580	1	10000	4	1	0	4	0
82	581	1	10000	4	1	0	4	0
79	582	1	10000	4	1	0	4	0
76	583	1	10000	4	1	0	4	0
71	584	1	10000	4	1	0	4	0
70	585	1	10000	4	1	0	4	0
70	586	1	10000	4	1	0	4	0
78	587	1	10000	4	1	0	4	0
85	588	1	10000	4	1	0	4	0
87	589	1	10000	4	1	0	4	0
88	590	1	10000	4	1	0	4	0
95	591	1	10000	4	1	0	4	0
106	592	1	10000	4	1	0	4	0
108	593	1	10000	4	1	0	4	0
107	594	1	10000	4	1	0	4	0
107	595	1	10000	4	1	0	4	0
105	596	1	10000	4	1	0	4	0
104	597	1	10000	4	1	0	4	0
109	598	1	10000	4	1	0	4	0
132	599	1	10000	4	1	0	4	0
158	600	1	10000	4	1	0	4	0
164	601	1	10000	4	1	0	4	0
164	602	1	10000	4	1	0	4	0
167	603	1	10000	4	1	0	4	0
162	604	1	10000	4	1	0	4	0
155	605	1	10000	4	1	0	4	0
150	606	1	10000	4	1	0	4	0
151	607	1	10000	4	1	0	4	0
163	608	1	10000	4	1	0	4	0
165	609	1	10000	4	1	0	4	0
165	610	1	10000	4	1	0	4	0
164	611	1	10000	4	1	0	4	0
164	612	1	10000	4	1	0	4	0
163	613	1	10000	4	1	0	4	0
159	614	1	10000	4	1	0	4	0
155	615	1	10000	4	1	0	4	0
162	616	1	10000	4	1	0	4	0
164	617	1	10000	4	1	0	4	0
159	618	1	10000	4	1	0	4	0
155	619	1	10000	4	1	0	4	0
149	620	1	10000	4	1	0	4	0
148	621	1	10000	4	1	0	4	0
150	622	1	10000	4	1	0	4	0
153	623	1	10000	4	1	0	4	0
154	624	1	10000	4	1	0	4	0
157	625	1	10000	4	1	0	4	0
159	626	1	10000	4	1	0	4	0
160	627	1	10000	4	1	0	4	0
161	628	1	10000	4	1	0	4	0
159	629	1	10000	4	1	0	4	0
157	630	1	10000	4	1	0	4	0
154	631	1	10000	4	1	0	4	0
148	632	1	10000	4	1	0	4	0
143	633	1	10000	4	1	0	4	0
139	634	1	10000	4	1	0	4	0
133	635	1	10000	4	1	0	4	0
128	636	1	10000	4	1	0	4	0
122	637	1	10000	4	1	0	4	0
118	638	1	10000	4	1	0	4	0
113	639	1	10000	4	1	0	4	0
108	640	1	10000	4	1	0	4	0
104	641	1	10000	4	1	0	4	0
101	642	1	10000	4	1	0	4	0
99	643	1	10000	4	1	0	4	0
94	644	1	10000	4	1	0	4	0
92	645	1	10000	4	1	0	4	0
92	646	1	10000	4	1	0	4	0
91	647	1	10000	4	1	0	4	0
89	648	1	10000	4	1	0	4	0
87	649	1	10000	4	1	0	4	0
85	650	1	10000	4	1	0	4	0
83	651	1	10000	4	1	0	4	0
83	652	1	10000	4	1	0	4	0
82	653	1	10000	4	1	0	4	0
84	654	1	10000	4	1	0	4	0
84	655	1	10000	4	1	0	4	0
83	656	1	10000	4	1	0	4	0
81	657	1	10000	4	1	0	4	0
78	658	1	10000	4	1	0	4	0
75	659	1	10000	4	1	0	4	0
73	660	1	10000	4	1	0	4	0
73	661	1	10000	4	1	0	4	0
71	662	1	10000	4	1	0	4	0
70	663	1	10000	4	1	0	4	0
67	664	1	10000	4	1	0	4	0
66	665	1	10000	4	1	0	4	0
65	666	1	10000	4	1	0	4	0
64	667	1	10000	4	1	0	4	0
62	668	1	10000	4	1	0	4	0
60	669	1	10000	4	1	0	4	0
58	670	1	10000	4	1	0	4	0
56	671	1	10000	4	1	0	4	0
55	672	1	10000	4	1	0	4	0
52	673	1	10000	4	1	0	4	0
51	674	1	10000	4	1	0	4	0
50	675	1	10000	4	1	0	4	0
48	676	1	10000	4	1	0	4	0
45	677	1	10000	4	1	0	4	0
44	678	1	10000	4	1	0	4	0
43	679	1	10000	4	1	0	4	0
41	680	1	10000	4	1	0	4	0
40	681	1	10000	4	1	0	4	0
41	682	1	10000	4	1	0	4	0
44	683	1	10000	4	1	0	4	0
43	684	1	10000	4	1	0	4	0
43	685	1	10000	4	1	0	4	0
45	686	1	10000	4	1	0	4	0
43	687	1	10000	4	1	0	4	0
46	688	1	10000	4	1	0	4	0
54	689	1	10000	4	1	0	4	0
54	690	1	10000	4	1	0	4	0
55	691	1	10000	4	1	0	4	0
57	692	1	10000	4	1	0	4	0
56	693	1	10000	4	1	0	4	0
56	694	1	10000	4	1	0	4	0
60	695	1	10000	4	1	0	4	0
64	696	1	10000	4	1	0	4	0
65	697	1	10000	4	1	0	4	0
74	698	1	10000	4	1	0	4	0
80	699	1	10000	4	1	0	4	0
79	700	1	10000	4	1	0	4	0
81	701	1	10000	4	1	0	4	0
91	702	1	10000	4	1	0	4	0
91	703	1	10000	4	1	0	4	0
90	704	1	10000	4	1	0	4	0
115	705	1	10000	4	1	0	4	0
125	706	1	10000	4	1	0	4	0
128	707	1	10000	4	1	0	4	0
124	708	1	10000	4	1	0	4	0
121	709	1	10000	4	1	0	4	0
119	710	1	10000	4	1	0	4	0
137	711	1	10000	4	1	0	4	0
149	712	1	10000	4	1	0	4	0
167	713	1	10000	4	1	0	4	0
189	714	1	10000	4	1	0	4	0
198	715	1	10000	4	1	0	4	0
197	716	1	10000	4	1	0	4	0
198	717	1	10000	4	1	0	4	0
204	718	1	10000	4	1	0	4	0
201	719	1	10000	4	1	0	4	0
198	720	1	10000	4	1	0	4	0
192	721	1	10000	4	1	0	4	0
188	722	1	10000	4	1	0	4	0
184	723	1	10000	4	1	0	4	0
186	724	1	10000	4	1	0	4	0
193	725	1	10000	4	1	0	4	0
195	726	1	10000	4	1	0	4	0
200	727	1	10000	4	1	0	4	0
199	728	1	10000	4	1	0	4	0
192	729	1	10000	4	1	0	4	0
191	730	1	10000	4	1	0	4	0
192	731	1	10000	4	1	0	4	0
191	732	1	10000	4	1	0	4	0
183	733	1	10000	4	1	0	4	0
180	734	1	10000	4	1	0	4	0
173	735	1	10000	4	1	0	4	0
168	736	1	10000	4	1	0	4	0
162	737	1	10000	4	1	0	4	0
158	738	1	10000	4	1	0	4	0
155	739	1	10000	4	1	0	4	0
150	740	1	10000	4	1	0	4	0
145	741	1	10000	4	1	0	4	0
139	742	1	10000	4	1	0	4	0
133	743	1	10000	4	1	0	4	0
126	744	1	10000	4	1	0	4	0
122	745	1	10000	4	1	0	4	0
121	746	1	10000	4	1	0	4	0
120	747	1	10000	4	1	0	4	0
117	748	1	10000	4	1	0	4	0
112	749	1	10000	4	1	0	4	0
109	750	1	10000	4	1	0	4	0
106	751	1	10000	4	1	0	4	0
104	752	1	10000	4	1	0	4	0
108	753	1	10000	4	1	0	4	0
113	754	1	10000	4	1	0	4	0
116	755	1	10000	4	1	0	4	0
115	756	1	10000	4	1	0	4	0
115	757	1	10000	4	1	0	4	0
115	758	1	10000	4	1	0	4	0
115	759	1	10000	4	1	0	4	0
118	760	1	10000	4	1	0	4	0
125	761	1	10000	4	1	0	4	0
135	762	1	10000	4	1	0	4	0
142	763	1	10000	4	1	0	4	0
144	764	1	10000	4	1	0	4	0
145	765	1	10000	4	1	0	4	0
146	766	1	10000	4	1	0	4	0
147	767	1	10000	4	1	0	4	0
147	768	1	10000	4	1	0	4	0
151	769	1	10000	4	1	0	4	0
155	770	1	10000	4	1	0	4	0
158	771	1	10000	4	1	0	4	0
161	772	1	10000	4	1	0	4	0
162	773	1	10000	4	1	0	4	0
163	774	1	10000	4	1	0	4	0
160	775	1	10000	4	1	0	4	0
156	776	1	10000	4	1	0	4	0
153	777	1	10000	4	1	0	4	0
152	778	1	10000	4	1	0	4	0
151	779	1	10000	4	1	0	4	0
149	780	1	10000	4	1	0	4	0
149	781	1	10000	4	1	0	4	0
148	782	1	10000	4	1	0	4	0
147	783	1	10000	4	1	0	4	0
143	784	1	10000	4	1	0	4	0
141	785	1	10000	4	1	0	4	0
137	786	1	10000	4	1	0	4	0
134	787	1	10000	4	1	0	4	0
128	788	1	10000	4	1	0	4	0
123	789	1	10000	4	1	0	4	0
118	790	1	10000	4	1	0	4	0
112	791	1	10000	4	1	0	4	0
108	792	1	10000	4	1	0	4	0
102	793	1	10000	4	1	0	4	0
99	794	1	10000	4	1	0	4	0
95	795	1	10000	4	1	0	4	0
92	796	1	10000	4	1	0	4	0
89	797	1	10000	4	1	0	4	0
87	798	1	10000	4	1	0	4	0
83	799	1	10000	4	1	0	4	0
80	800	1	10000	4	1	0	4	0
79	801	1	10000	4	1	0	4	0
78	802	1	10000	4	1	0	4	0
77	803	1	10000	4	1	0	4	0
72	804	1	10000	4	1	0	4	0
73	805	1	10000	4	1	0	4	0
75	806	1	10000	4	1	0	4	0
76	807	1	10000	4	1	0	4	0
76	808	1	10000	4	1	0	4	0
75	809	1	10000	4	1	0	4	0
74	810	1	10000	4	1	0	4	0
74	811	1	10000	4	1	0	4	0
75	812	1	10000	4	1	0	4	0
76	813	1	10000	4	1	0	4	0
79	814	1	10000	4	1	0	4	0
79	815	1	10000	4	1	0	4	0
80	816	1	10000	4	1	0	4	0
82	817	1	10000	4	1	0	4	0
83	818	1	10000	4	1	0	4	0
85	819	1	10000	4	1	0	4	0
85	820	1	10000	4	1	0	4	0
84	821	1	10000	4	1	0	4	0
83	822	1	10000	4	1	0	4	0
83	823	1	10000	4	1	0	4	0
80	824	1	10000	4	1	0	4	0
78	825	1	10000	4	1	0	4	0
76	826	1	10000	4	1	0	4	0
73	827	1	10000	4	1	0	4	0
72	828	1	10000	4	1	0	4	0
72	829	1	10000	4	1	0	4	0
72	830	1	10000	4	1	0	4	0
73	831	1	10000	4	1	0	4	0
72	832	1	10000	4	1	0	4	0
72	833	1	10000	4	1	0	4	0
73	834	1	10000	4	1	0	4	0
72	835	1	10000	4	1	0	4	0
71	836	1	10000	4	1	0	4	0
69	837	1	10000	4	1	0	4	0
67	838	1	10000	4	1	0	4	0
64	839	1	10000	4	1	0	4	0
62	840	1	10000	4	1	0	4	0
60	841	1	10000	4	1	0	4	0
58	842	1	10000	4	1	0	4	0
56	843	1	10000	4	1	0	4	0
52	844	1	10000	4	1	0	4	0
52	845	1	10000	4	1	0	4	0
51	846	1	10000	4	1	0	4	0
52	847	1	10000	4	1	0	4	0
52	848	1	10000	4	1	0	4	0
51	849	1	10000	4	1	0	4	0
51	850	1	10000	4	1	0	4	0
51	851	1	10000	4	1	0	4	0
50	852	1	10000	4	1	0	4	0
49	853	1	10000	4	1	0	4	0
52	854	1	10000	4	1	0	4	0
53	855	1	10000	4	1	0	4	0
53	856	1	10000	4	1	0	4	0
53	857	1	10000	4	1	0	4	0
53	858	1	10000	4	1	0	4	0
52	859	1	10000	4	1	0	4	0
51	860	1	10000	4	1	0	4	0
50	861	1	10000	4	1	0	4	0
48	862	1	10000	4	1	0	4	0
47	863	1	10000	4	1	0	4	0
44	864	1	10000	4	1	0	4	0
44	865	1	10000	4	1	0	4	0
43	866	1	10000	4	1	0	4	0
42	867	1	10000	4	1	0	4	0
41	868	1	10000	4	1	0	4	0
40	869	1	10000	4	1	0	4	0
39	870	1	10000	4	1	0	4	0
37	871	1	10000	4	1	0	4	0
35	872	1	10000	4	1	0	4	0
33	873	1	10000	4	1	0	4	0
36	874	1	10000	4	1	0	4	0
37	875	1	10000	4	1	0	4	0
37	876	1	10000	4	1	0	4	0
37	877	1	10000	4	1	0	4	0
35	878	1	10000	4	1	0	4	0
34	879	1	10000	4	1	0	4	0
34	880	1	10000	4	1	0	4	0
37	881	1	10000	4	1	0	4	0
37	882	1	10000	4	1	0	4	0
38	883	1	10000	4	1	0	4	0
36	884	1	10000	4	1	0	4	0
37	885	1	10000	4	1	0	4	0
39	886	1	10000	4	1	0	4	0
39	887	1	10000	4	1	0	4	0
39	888	1	10000	4	1	0	4	0
38	889	1	10000	4	1	0	4	0
36	890	1	10000	4	1	0	4	0
36	891	1	10000	4	1	0	4	0
34	892	1	10000	4	1	0	4	0
33	893	1	10000	4	1	0	4	0
34	894	1	10000	4	1	0	4	0
34	895	1	10000	4	1	0	4	0
33	896	1	10000	4	1	0	4	0
33	897	1	10000	4	1	0	4	0
33	898	1	10000	4	1	0	4	0
32	899	1	10000	4	1	0	4	0
31	900	1	10000	4	1	0	4	0
31	901	1	10000	4	1	0	4	0
31	902	1	10000	4	1	0	4	0
30	903	1	10000	4	1	0	4	0
28	904	1	10000	4	1	0	4	0
28	905	1	10000	4	1	0	4	0
29	906	1	10000	4	1	0	4	0
29	907	1	10000	4	1	0	4	0
29	908	1	10000	4	1	0	4	0
31	909	1	10000	4	1	0	4	0
29	910	1	10000	4	1	0	4	0
28	911	1	10000	4	1	0	4	0
27	912	1	10000	4	1	0	4	0
26	913	1	10000	4	1	0	4	0
27	914	1	10000	4	1	0	4	0
29	915	1	10000	4	1	0	4	0
29	916	1	10000	4	1	0	4	0
28	917	1	10000	4	1	0	4	0
29	918	1	10000	4	1	0	4	0
29	919	1	10000	4	1	0	4	0
29	920	1	10000	4	1	0	4	0
27	921	1	10000	4	1	0	4	0
28	922	1	10000	4	1	0	4	0
29	923	1	10000	4	1	0	4	0
25	924	1	10000	4	1	0	4	0
25	925	1	10000	4	1	0	4	0
27	926	1	10000	4	1	0	4	0
28	927	1	10000	4	1	0	4	0
28	928	1	10000	4	1	0	4	0
28	929	1	10000	4	1	0	4	0
28	930	1	10000	4	1	0	4	0
27	931	1	10000	4	1	0	4	0
25	932	1	10000	4	1	0	4	0
24	933	1	10000	4	1	0	4	0
28	934	1	10000	4	1	0	4	0
27	935	1	10000	4	1	0	4	0
28	936	1	10000	4	1	0	4	0
29	937	1	10000	4	1	0	4	0
29	938	1	10000	4	1	0	4	0
30	939	1	10000	4	1	0	4	0
32	940	1	10000	4	1	0	4	0
32	941	1	10000	4	1	0	4	0
32	942	1	10000	4	1	0	4	0
32	943	1	10000	4	1	0	4	0
30	944	1	10000	4	1	0	4	0
29	945	1	10000	4	1	0	4	0
29	946	1	10000	4	1	0	4	0
29	947	1	10000	4	1	0	4	0
29	948	1	10000	4	1	0	4	0
28	949	1	10000	4	1	0	4	0
28	950	1	10000	4	1	0	4	0
26	951	1	10000	4	1	0	4	0
25	952	1	10000	4	1	0	4	0
24	953	1	10000	4	1	0	4	0
26	954	1	10000	4	1	0	4	0
26	955	1	10000	4	1	0	4	0
25	956	1	10000	4	1	0	4	0
25	957	1	10000	4	1	0	4	0
24	958	1	10000	4	1	0	4	0
26	959	1	10000	4	1	0	4	0
25	960	1	10000	4	1	0	4	0
25	961	1	10000	4	1	0	4	0
27	962	1	10000	4	1	0	4	0
26	963	1	10000	4	1	0	4	0
23	964	1	10000	4	1	0	4	0
23	965	1	10000	4	1	0	4	0
22	966	1	10000	4	1	0	4	0
22	967	1	10000	4	1	0	4	0
22	968	1	10000	4	1	0	4	0
21	969	1	10000	4	1	0	4	0
22	970	1	10000	4	1	0	4	0
20	971	1	10000	4	1	0	4	0
20	972	1	10000	4	1	0	4	0
20	973	1	10000	4	1	0	4	0
20	974	1	10000	4	1	0	4	0
21	975	1	10000	4	1	0	4	0
21	976	1	10000	4	1	0	4	0
21	977	1	10000	4	1	0	4	0
20	978	1	10000	4	1	0	4	0
21	979	1	10000	4	1	0	4	0
20	980	1	10000	4	1	0	4	0
20	981	1	10000	4	1	0	4	0
21	982	1	10000	4	1	0	4	0
20	983	1	10000	4	1	0	4	0
19	984	1	10000	4	1	0	4	0
20	985	1	10000	4	1	0	4	0
23	986	1	10000	4	1	0	4	0
24	987	1	10000	4	1	0	4	0
24	988	1	10000	4	1	0	4	0
23	989	1	10000	4	1	0	4	0
23	990	1	10000	4	1	0	4	0
22	991	1	10000	4	1	0	4	0
21	992	1	10000	4	1	0	4	0
20	993	1	10000	4	1	0	4	0
21	994	1	10000	4	1	0	4	0
21	995	1	10000	4	1	0	4	0
21	996	1	10000	4	1	0	4	0
22	997	1	10000	4	1	0	4	0
23	998	1	10000	4	1	0	4	0
22	999	1	10000	4	1	0	4	0
23	1000	1	10000	4	1	0	4	0
13	1	0	10000	5	1	0	5	0
13	2	0	10000	5	1	0	5	0
15	3	0	10000	5	1	0	5	0
15	4	0	10000	5	1	0	5	0
14	5	0	10000	5	1	0	5	0
13	6	0	10000	5	1	0	5	0
13	7	0	10000	5	1	0	5	0
13	8	0	10000	5	1	0	5	0
13	9	0	10000	5	1	0	5	0
13	10	0	10000	5	1	0	5	0
13	11	0	10000	5	1	0	5	0
12	12	0	10000	5	1	0	5	0
11	13	0	10000	5	1	0	5	0
11	14	0	10000	5	1	0	5	0
11	15	0	10000	5	1	0	5	0
12	16	0	10000	5	1	0	5	0
12	17	0	10000	5	1	0	5	0
11	18	0	10000	5	1	0	5	0
11	19	0	10000	5	1	0	5	0
11	20	0	10000	5	1	0	5	0
10	20	0	10000	5	1	0	5	0
11	21	0	10000	5	1	0	5	0
12	23	0	10000	5	1	0	5	0
12	24	0	10000	5	1	0	5	0
11	25	0	10000	5	1	0	5	0
11	26	0	10000	5	1	0	5	0
11	27	0	10000	5	1	0	5	0
11	28	0	10000	5	1	0	5	0
11	29	0	10000	5	1	0	5	0
11	30	0	10000	5	1	0	5	0
12	30	0	10000	5	1	0	5	0
11	31	0	10000	5	1	0	5	0
10	33	0	10000	5	1	0	5	0
10	34	0	10000	5	1	0	5	0
11	35	0	10000	5	1	0	5	0
12	36	0	10000	5	1	0	5	0
13	37	0	10000	5	1	0	5	0
15	38	0	10000	5	1	0	5	0
14	39	0	10000	5	1	0	5	0
13	40	0	10000	5	1	0	5	0
13	40	0	10000	5	1	0	5	0
14	41	0	10000	5	1	0	5	0
15	43	0	10000	5	1	0	5	0
14	44	0	10000	5	1	0	5	0
14	45	0	10000	5	1	0	5	0
13	46	0	10000	5	1	0	5	0
13	47	0	10000	5	1	0	5	0
13	48	0	10000	5	1	0	5	0
13	49	0	10000	5	1	0	5	0
13	50	0	10000	5	1	0	5	0
13	50	0	10000	5	1	0	5	0
13	51	0	10000	5	1	0	5	0
12	53	0	10000	5	1	0	5	0
12	54	0	10000	5	1	0	5	0
12	55	0	10000	5	1	0	5	0
13	56	0	10000	5	1	0	5	0
13	57	0	10000	5	1	0	5	0
13	58	0	10000	5	1	0	5	0
13	59	0	10000	5	1	0	5	0
13	60	0	10000	5	1	0	5	0
12	60	0	10000	5	1	0	5	0
13	61	0	10000	5	1	0	5	0
14	63	0	10000	5	1	0	5	0
13	64	0	10000	5	1	0	5	0
13	65	0	10000	5	1	0	5	0
13	66	0	10000	5	1	0	5	0
13	67	0	10000	5	1	0	5	0
13	68	0	10000	5	1	0	5	0
13	69	0	10000	5	1	0	5	0
15	70	0	10000	5	1	0	5	0
15	70	0	10000	5	1	0	5	0
15	71	0	10000	5	1	0	5	0
13	73	0	10000	5	1	0	5	0
13	74	0	10000	5	1	0	5	0
13	75	0	10000	5	1	0	5	0
14	76	0	10000	5	1	0	5	0
13	77	0	10000	5	1	0	5	0
13	78	0	10000	5	1	0	5	0
14	79	0	10000	5	1	0	5	0
13	80	0	10000	5	1	0	5	0
13	80	0	10000	5	1	0	5	0
13	81	0	10000	5	1	0	5	0
14	83	0	10000	5	1	0	5	0
15	84	0	10000	5	1	0	5	0
14	85	0	10000	5	1	0	5	0
13	86	0	10000	5	1	0	5	0
13	87	0	10000	5	1	0	5	0
13	88	0	10000	5	1	0	5	0
12	89	0	10000	5	1	0	5	0
13	90	0	10000	5	1	0	5	0
13	90	0	10000	5	1	0	5	0
13	91	0	10000	5	1	0	5	0
11	93	0	10000	5	1	0	5	0
11	94	0	10000	5	1	0	5	0
12	95	0	10000	5	1	0	5	0
12	96	0	10000	5	1	0	5	0
12	97	0	10000	5	1	0	5	0
13	98	0	10000	5	1	0	5	0
12	99	0	10000	5	1	0	5	0
12	100	0	10000	5	1	0	5	0
11	100	0	10000	5	1	0	5	0
12	101	0	10000	5	1	0	5	0
14	103	0	10000	5	1	0	5	0
14	104	0	10000	5	1	0	5	0
12	105	0	10000	5	1	0	5	0
12	106	0	10000	5	1	0	5	0
13	107	0	10000	5	1	0	5	0
13	108	0	10000	5	1	0	5	0
12	109	0	10000	5	1	0	5	0
13	110	0	10000	5	1	0	5	0
13	110	0	10000	5	1	0	5	0
13	111	0	10000	5	1	0	5	0
10	113	0	10000	5	1	0	5	0
10	114	0	10000	5	1	0	5	0
11	115	0	10000	5	1	0	5	0
12	116	0	10000	5	1	0	5	0
12	117	0	10000	5	1	0	5	0
12	118	0	10000	5	1	0	5	0
12	119	0	10000	5	1	0	5	0
12	120	0	10000	5	1	0	5	0
11	120	0	10000	5	1	0	5	0
11	121	0	10000	5	1	0	5	0
14	123	0	10000	5	1	0	5	0
13	124	0	10000	5	1	0	5	0
12	125	0	10000	5	1	0	5	0
12	126	0	10000	5	1	0	5	0
12	127	0	10000	5	1	0	5	0
12	128	0	10000	5	1	0	5	0
11	129	0	10000	5	1	0	5	0
12	130	0	10000	5	1	0	5	0
12	130	0	10000	5	1	0	5	0
12	131	0	10000	5	1	0	5	0
10	133	0	10000	5	1	0	5	0
10	134	0	10000	5	1	0	5	0
11	135	0	10000	5	1	0	5	0
11	136	0	10000	5	1	0	5	0
12	137	0	10000	5	1	0	5	0
11	138	0	10000	5	1	0	5	0
11	139	0	10000	5	1	0	5	0
10	140	0	10000	5	1	0	5	0
11	140	0	10000	5	1	0	5	0
12	141	0	10000	5	1	0	5	0
14	143	0	10000	5	1	0	5	0
13	144	0	10000	5	1	0	5	0
13	145	0	10000	5	1	0	5	0
14	146	0	10000	5	1	0	5	0
13	147	0	10000	5	1	0	5	0
14	148	0	10000	5	1	0	5	0
12	149	0	10000	5	1	0	5	0
13	150	0	10000	5	1	0	5	0
14	150	0	10000	5	1	0	5	0
12	151	0	10000	5	1	0	5	0
11	153	0	10000	5	1	0	5	0
11	154	0	10000	5	1	0	5	0
10	155	0	10000	5	1	0	5	0
11	156	0	10000	5	1	0	5	0
11	157	0	10000	5	1	0	5	0
12	158	0	10000	5	1	0	5	0
12	159	0	10000	5	1	0	5	0
12	160	0	10000	5	1	0	5	0
12	160	0	10000	5	1	0	5	0
12	161	0	10000	5	1	0	5	0
13	163	0	10000	5	1	0	5	0
13	164	0	10000	5	1	0	5	0
13	165	0	10000	5	1	0	5	0
13	166	0	10000	5	1	0	5	0
13	167	0	10000	5	1	0	5	0
14	168	0	10000	5	1	0	5	0
13	169	0	10000	5	1	0	5	0
14	170	0	10000	5	1	0	5	0
14	170	0	10000	5	1	0	5	0
15	171	0	10000	5	1	0	5	0
13	173	0	10000	5	1	0	5	0
13	174	0	10000	5	1	0	5	0
13	175	0	10000	5	1	0	5	0
13	176	0	10000	5	1	0	5	0
13	177	0	10000	5	1	0	5	0
13	178	0	10000	5	1	0	5	0
13	179	0	10000	5	1	0	5	0
12	180	0	10000	5	1	0	5	0
12	180	0	10000	5	1	0	5	0
11	181	0	10000	5	1	0	5	0
14	183	0	10000	5	1	0	5	0
14	184	0	10000	5	1	0	5	0
15	185	0	10000	5	1	0	5	0
13	186	0	10000	5	1	0	5	0
14	187	0	10000	5	1	0	5	0
14	188	0	10000	5	1	0	5	0
14	189	0	10000	5	1	0	5	0
14	190	0	10000	5	1	0	5	0
15	190	0	10000	5	1	0	5	0
15	191	0	10000	5	1	0	5	0
14	193	0	10000	5	1	0	5	0
13	194	0	10000	5	1	0	5	0
13	195	0	10000	5	1	0	5	0
14	196	0	10000	5	1	0	5	0
13	197	0	10000	5	1	0	5	0
13	198	0	10000	5	1	0	5	0
13	199	0	10000	5	1	0	5	0
14	200	0	10000	5	1	0	5	0
15	200	0	10000	5	1	0	5	0
15	201	0	10000	5	1	0	5	0
16	203	0	10000	5	1	0	5	0
16	204	0	10000	5	1	0	5	0
15	205	0	10000	5	1	0	5	0
14	206	0	10000	5	1	0	5	0
15	207	0	10000	5	1	0	5	0
14	208	0	10000	5	1	0	5	0
13	209	0	10000	5	1	0	5	0
14	210	0	10000	5	1	0	5	0
14	210	0	10000	5	1	0	5	0
14	211	0	10000	5	1	0	5	0
13	213	0	10000	5	1	0	5	0
14	214	0	10000	5	1	0	5	0
15	215	0	10000	5	1	0	5	0
16	216	0	10000	5	1	0	5	0
18	217	0	10000	5	1	0	5	0
20	218	0	10000	5	1	0	5	0
20	219	0	10000	5	1	0	5	0
22	220	0	10000	5	1	0	5	0
25	220	0	10000	5	1	0	5	0
30	221	0	10000	5	1	0	5	0
35	223	0	10000	5	1	0	5	0
38	224	0	10000	5	1	0	5	0
43	225	0	10000	5	1	0	5	0
47	226	0	10000	5	1	0	5	0
48	227	0	10000	5	1	0	5	0
50	228	0	10000	5	1	0	5	0
59	229	0	10000	5	1	0	5	0
68	230	0	10000	5	1	0	5	0
73	230	0	10000	5	1	0	5	0
74	231	0	10000	5	1	0	5	0
70	233	0	10000	5	1	0	5	0
68	234	0	10000	5	1	0	5	0
67	235	0	10000	5	1	0	5	0
65	236	0	10000	5	1	0	5	0
62	237	0	10000	5	1	0	5	0
60	238	0	10000	5	1	0	5	0
58	239	0	10000	5	1	0	5	0
56	240	0	10000	5	1	0	5	0
54	240	0	10000	5	1	0	5	0
52	241	0	10000	5	1	0	5	0
53	243	0	10000	5	1	0	5	0
51	244	0	10000	5	1	0	5	0
51	245	0	10000	5	1	0	5	0
49	246	0	10000	5	1	0	5	0
47	247	0	10000	5	1	0	5	0
44	248	0	10000	5	1	0	5	0
44	249	0	10000	5	1	0	5	0
43	250	0	10000	5	1	0	5	0
43	250	0	10000	5	1	0	5	0
41	251	0	10000	5	1	0	5	0
38	253	0	10000	5	1	0	5	0
37	254	0	10000	5	1	0	5	0
38	255	0	10000	5	1	0	5	0
41	256	0	10000	5	1	0	5	0
42	257	0	10000	5	1	0	5	0
40	258	0	10000	5	1	0	5	0
39	259	0	10000	5	1	0	5	0
37	260	0	10000	5	1	0	5	0
35	260	0	10000	5	1	0	5	0
34	261	0	10000	5	1	0	5	0
36	263	0	10000	5	1	0	5	0
36	264	0	10000	5	1	0	5	0
36	265	0	10000	5	1	0	5	0
37	266	0	10000	5	1	0	5	0
36	267	0	10000	5	1	0	5	0
35	268	0	10000	5	1	0	5	0
33	269	0	10000	5	1	0	5	0
33	270	0	10000	5	1	0	5	0
34	270	0	10000	5	1	0	5	0
34	271	0	10000	5	1	0	5	0
32	273	0	10000	5	1	0	5	0
33	274	0	10000	5	1	0	5	0
32	275	0	10000	5	1	0	5	0
32	276	0	10000	5	1	0	5	0
32	277	0	10000	5	1	0	5	0
29	278	0	10000	5	1	0	5	0
29	279	0	10000	5	1	0	5	0
28	280	0	10000	5	1	0	5	0
26	280	0	10000	5	1	0	5	0
25	281	0	10000	5	1	0	5	0
26	283	0	10000	5	1	0	5	0
25	284	0	10000	5	1	0	5	0
25	285	0	10000	5	1	0	5	0
23	286	0	10000	5	1	0	5	0
23	287	0	10000	5	1	0	5	0
23	288	0	10000	5	1	0	5	0
21	289	0	10000	5	1	0	5	0
22	290	0	10000	5	1	0	5	0
22	290	0	10000	5	1	0	5	0
22	291	0	10000	5	1	0	5	0
20	293	0	10000	5	1	0	5	0
20	294	0	10000	5	1	0	5	0
21	295	0	10000	5	1	0	5	0
22	296	0	10000	5	1	0	5	0
22	297	0	10000	5	1	0	5	0
21	298	0	10000	5	1	0	5	0
21	299	0	10000	5	1	0	5	0
20	300	0	10000	5	1	0	5	0
19	300	0	10000	5	1	0	5	0
19	301	0	10000	5	1	0	5	0
20	303	0	10000	5	1	0	5	0
19	304	0	10000	5	1	0	5	0
18	305	0	10000	5	1	0	5	0
18	306	0	10000	5	1	0	5	0
17	307	0	10000	5	1	0	5	0
17	308	0	10000	5	1	0	5	0
16	309	0	10000	5	1	0	5	0
17	310	0	10000	5	1	0	5	0
16	310	0	10000	5	1	0	5	0
16	311	0	10000	5	1	0	5	0
15	313	0	10000	5	1	0	5	0
15	314	0	10000	5	1	0	5	0
15	315	0	10000	5	1	0	5	0
16	316	0	10000	5	1	0	5	0
15	317	0	10000	5	1	0	5	0
14	318	0	10000	5	1	0	5	0
15	319	0	10000	5	1	0	5	0
14	320	0	10000	5	1	0	5	0
13	320	0	10000	5	1	0	5	0
15	321	0	10000	5	1	0	5	0
16	323	0	10000	5	1	0	5	0
17	324	0	10000	5	1	0	5	0
16	325	0	10000	5	1	0	5	0
15	326	0	10000	5	1	0	5	0
16	327	0	10000	5	1	0	5	0
15	328	0	10000	5	1	0	5	0
14	329	0	10000	5	1	0	5	0
16	330	0	10000	5	1	0	5	0
18	330	0	10000	5	1	0	5	0
18	331	0	10000	5	1	0	5	0
16	333	0	10000	5	1	0	5	0
16	334	0	10000	5	1	0	5	0
15	335	0	10000	5	1	0	5	0
16	336	0	10000	5	1	0	5	0
16	337	0	10000	5	1	0	5	0
16	338	0	10000	5	1	0	5	0
16	339	0	10000	5	1	0	5	0
15	340	0	10000	5	1	0	5	0
15	340	0	10000	5	1	0	5	0
15	341	0	10000	5	1	0	5	0
16	343	0	10000	5	1	0	5	0
16	344	0	10000	5	1	0	5	0
15	345	0	10000	5	1	0	5	0
15	346	0	10000	5	1	0	5	0
15	347	0	10000	5	1	0	5	0
15	348	0	10000	5	1	0	5	0
15	349	0	10000	5	1	0	5	0
15	350	0	10000	5	1	0	5	0
15	350	0	10000	5	1	0	5	0
16	351	0	10000	5	1	0	5	0
13	353	0	10000	5	1	0	5	0
13	354	0	10000	5	1	0	5	0
13	355	0	10000	5	1	0	5	0
14	356	0	10000	5	1	0	5	0
13	357	0	10000	5	1	0	5	0
13	358	0	10000	5	1	0	5	0
14	359	0	10000	5	1	0	5	0
13	360	0	10000	5	1	0	5	0
13	360	0	10000	5	1	0	5	0
12	361	0	10000	5	1	0	5	0
15	363	0	10000	5	1	0	5	0
15	364	0	10000	5	1	0	5	0
14	365	0	10000	5	1	0	5	0
15	366	0	10000	5	1	0	5	0
14	367	0	10000	5	1	0	5	0
14	368	0	10000	5	1	0	5	0
14	369	0	10000	5	1	0	5	0
14	370	0	10000	5	1	0	5	0
15	370	0	10000	5	1	0	5	0
16	371	0	10000	5	1	0	5	0
14	373	0	10000	5	1	0	5	0
14	374	0	10000	5	1	0	5	0
14	375	0	10000	5	1	0	5	0
14	376	0	10000	5	1	0	5	0
14	377	0	10000	5	1	0	5	0
15	378	0	10000	5	1	0	5	0
14	379	0	10000	5	1	0	5	0
16	380	0	10000	5	1	0	5	0
15	380	0	10000	5	1	0	5	0
15	381	0	10000	5	1	0	5	0
17	383	0	10000	5	1	0	5	0
17	384	0	10000	5	1	0	5	0
17	385	0	10000	5	1	0	5	0
16	386	0	10000	5	1	0	5	0
17	387	0	10000	5	1	0	5	0
16	388	0	10000	5	1	0	5	0
15	389	0	10000	5	1	0	5	0
15	390	0	10000	5	1	0	5	0
16	390	0	10000	5	1	0	5	0
16	391	0	10000	5	1	0	5	0
14	393	0	10000	5	1	0	5	0
14	394	0	10000	5	1	0	5	0
14	395	0	10000	5	1	0	5	0
15	396	0	10000	5	1	0	5	0
15	397	0	10000	5	1	0	5	0
14	398	0	10000	5	1	0	5	0
15	399	0	10000	5	1	0	5	0
14	400	0	10000	5	1	0	5	0
14	400	0	10000	5	1	0	5	0
14	401	0	10000	5	1	0	5	0
15	403	0	10000	5	1	0	5	0
15	404	0	10000	5	1	0	5	0
16	405	0	10000	5	1	0	5	0
14	406	0	10000	5	1	0	5	0
14	407	0	10000	5	1	0	5	0
14	408	0	10000	5	1	0	5	0
14	409	0	10000	5	1	0	5	0
14	410	0	10000	5	1	0	5	0
15	410	0	10000	5	1	0	5	0
15	411	0	10000	5	1	0	5	0
12	413	0	10000	5	1	0	5	0
13	414	0	10000	5	1	0	5	0
13	415	0	10000	5	1	0	5	0
14	416	0	10000	5	1	0	5	0
13	417	0	10000	5	1	0	5	0
13	418	0	10000	5	1	0	5	0
15	419	0	10000	5	1	0	5	0
14	420	0	10000	5	1	0	5	0
14	420	0	10000	5	1	0	5	0
14	421	0	10000	5	1	0	5	0
16	423	0	10000	5	1	0	5	0
16	424	0	10000	5	1	0	5	0
16	425	0	10000	5	1	0	5	0
15	426	0	10000	5	1	0	5	0
14	427	0	10000	5	1	0	5	0
15	428	0	10000	5	1	0	5	0
15	429	0	10000	5	1	0	5	0
16	430	0	10000	5	1	0	5	0
16	430	0	10000	5	1	0	5	0
16	431	0	10000	5	1	0	5	0
15	433	0	10000	5	1	0	5	0
14	434	0	10000	5	1	0	5	0
15	435	0	10000	5	1	0	5	0
14	436	0	10000	5	1	0	5	0
15	437	0	10000	5	1	0	5	0
14	438	0	10000	5	1	0	5	0
14	439	0	10000	5	1	0	5	0
14	440	0	10000	5	1	0	5	0
14	440	0	10000	5	1	0	5	0
13	441	0	10000	5	1	0	5	0
16	443	0	10000	5	1	0	5	0
16	444	0	10000	5	1	0	5	0
15	445	0	10000	5	1	0	5	0
15	446	0	10000	5	1	0	5	0
15	447	0	10000	5	1	0	5	0
14	448	0	10000	5	1	0	5	0
14	449	0	10000	5	1	0	5	0
14	450	0	10000	5	1	0	5	0
15	450	0	10000	5	1	0	5	0
16	451	0	10000	5	1	0	5	0
14	453	0	10000	5	1	0	5	0
14	454	0	10000	5	1	0	5	0
15	455	0	10000	5	1	0	5	0
15	456	0	10000	5	1	0	5	0
15	457	0	10000	5	1	0	5	0
15	458	0	10000	5	1	0	5	0
16	459	0	10000	5	1	0	5	0
14	460	0	10000	5	1	0	5	0
16	460	0	10000	5	1	0	5	0
16	461	0	10000	5	1	0	5	0
18	463	0	10000	5	1	0	5	0
18	464	0	10000	5	1	0	5	0
17	465	0	10000	5	1	0	5	0
17	466	0	10000	5	1	0	5	0
16	467	0	10000	5	1	0	5	0
16	468	0	10000	5	1	0	5	0
15	469	0	10000	5	1	0	5	0
15	470	0	10000	5	1	0	5	0
15	470	0	10000	5	1	0	5	0
15	471	0	10000	5	1	0	5	0
13	473	0	10000	5	1	0	5	0
13	474	0	10000	5	1	0	5	0
13	475	0	10000	5	1	0	5	0
14	476	0	10000	5	1	0	5	0
15	477	0	10000	5	1	0	5	0
16	478	0	10000	5	1	0	5	0
16	479	0	10000	5	1	0	5	0
16	480	0	10000	5	1	0	5	0
17	480	0	10000	5	1	0	5	0
16	481	0	10000	5	1	0	5	0
19	483	0	10000	5	1	0	5	0
18	484	0	10000	5	1	0	5	0
18	485	0	10000	5	1	0	5	0
18	486	0	10000	5	1	0	5	0
17	487	0	10000	5	1	0	5	0
16	488	0	10000	5	1	0	5	0
16	489	0	10000	5	1	0	5	0
16	490	0	10000	5	1	0	5	0
17	490	0	10000	5	1	0	5	0
17	491	0	10000	5	1	0	5	0
14	493	0	10000	5	1	0	5	0
15	494	0	10000	5	1	0	5	0
15	495	0	10000	5	1	0	5	0
14	496	0	10000	5	1	0	5	0
14	497	0	10000	5	1	0	5	0
15	498	0	10000	5	1	0	5	0
14	499	0	10000	5	1	0	5	0
15	500	0	10000	5	1	0	5	0
14	500	0	10000	5	1	0	5	0
13	501	0	10000	5	1	0	5	0
15	503	0	10000	5	1	0	5	1
15	504	0	10000	5	1	0	5	1
15	505	0	10000	5	1	0	5	1
15	506	0	10000	5	1	0	5	1
14	507	0	10000	5	1	0	5	1
14	508	0	10000	5	1	0	5	1
14	509	0	10000	5	1	0	5	1
15	510	0	10000	5	1	0	5	1
15	510	0	10000	5	1	0	5	1
14	511	0	10000	5	1	0	5	1
13	513	0	10000	5	1	0	5	1
14	514	0	10000	5	1	0	5	1
13	515	0	10000	5	1	0	5	1
13	516	0	10000	5	1	0	5	1
13	517	0	10000	5	1	0	5	1
13	518	0	10000	5	1	0	5	1
13	519	0	10000	5	1	0	5	1
13	520	0	10000	5	1	0	5	1
14	520	0	10000	5	1	0	5	1
13	521	0	10000	5	1	0	5	1
15	523	0	10000	5	1	0	5	1
15	524	0	10000	5	1	0	5	1
15	525	0	10000	5	1	0	5	1
14	526	0	10000	5	1	0	5	1
14	527	0	10000	5	1	0	5	1
13	528	0	10000	5	1	0	5	1
13	529	0	10000	5	1	0	5	1
14	530	0	10000	5	1	0	5	1
15	530	0	10000	5	1	0	5	1
15	531	0	10000	5	1	0	5	1
13	533	0	10000	5	1	0	5	1
13	534	0	10000	5	1	0	5	1
13	535	0	10000	5	1	0	5	1
13	536	0	10000	5	1	0	5	1
13	537	0	10000	5	1	0	5	1
13	538	0	10000	5	1	0	5	1
14	539	0	10000	5	1	0	5	1
13	540	0	10000	5	1	0	5	1
12	540	0	10000	5	1	0	5	1
12	541	0	10000	5	1	0	5	1
14	543	0	10000	5	1	0	5	1
15	544	0	10000	5	1	0	5	1
15	545	0	10000	5	1	0	5	1
14	546	0	10000	5	1	0	5	1
14	547	0	10000	5	1	0	5	1
16	548	0	10000	5	1	0	5	1
17	549	0	10000	5	1	0	5	1
18	550	0	10000	5	1	0	5	1
19	550	0	10000	5	1	0	5	1
19	551	0	10000	5	1	0	5	1
18	553	0	10000	5	1	0	5	0
17	554	0	10000	5	1	0	5	0
18	555	0	10000	5	1	0	5	0
18	556	0	10000	5	1	0	5	0
17	557	0	10000	5	1	0	5	0
18	558	0	10000	5	1	0	5	0
18	559	0	10000	5	1	0	5	0
17	560	0	10000	5	1	0	5	0
18	560	0	10000	5	1	0	5	0
17	561	0	10000	5	1	0	5	0
20	563	0	10000	5	1	0	5	0
20	564	0	10000	5	1	0	5	0
22	565	0	10000	5	1	0	5	0
22	566	0	10000	5	1	0	5	0
22	567	0	10000	5	1	0	5	0
21	568	0	10000	5	1	0	5	0
20	569	0	10000	5	1	0	5	0
21	570	0	10000	5	1	0	5	0
21	570	0	10000	5	1	0	5	0
20	571	0	10000	5	1	0	5	0
19	573	0	10000	5	1	0	5	0
20	574	0	10000	5	1	0	5	0
22	575	0	10000	5	1	0	5	0
23	576	0	10000	5	1	0	5	0
25	577	0	10000	5	1	0	5	0
30	578	0	10000	5	1	0	5	0
28	579	0	10000	5	1	0	5	0
31	580	0	10000	5	1	0	5	0
32	580	0	10000	5	1	0	5	0
32	581	0	10000	5	1	0	5	0
41	583	0	10000	5	1	0	5	0
51	584	0	10000	5	1	0	5	0
50	585	0	10000	5	1	0	5	0
51	586	0	10000	5	1	0	5	0
51	587	0	10000	5	1	0	5	0
51	588	0	10000	5	1	0	5	0
62	589	0	10000	5	1	0	5	0
82	590	0	10000	5	1	0	5	0
93	590	0	10000	5	1	0	5	0
108	591	0	10000	5	1	0	5	0
116	593	0	10000	5	1	0	5	0
117	594	0	10000	5	1	0	5	0
129	595	0	10000	5	1	0	5	0
127	596	0	10000	5	1	0	5	0
131	597	0	10000	5	1	0	5	0
149	598	0	10000	5	1	0	5	0
161	599	0	10000	5	1	0	5	0
179	600	0	10000	5	1	0	5	0
179	600	0	10000	5	1	0	5	0
196	601	0	10000	5	1	0	5	0
249	603	0	10000	5	1	0	5	0
294	604	0	10000	5	1	0	5	0
308	605	0	10000	5	1	0	5	0
297	606	0	10000	5	1	0	5	0
286	607	0	10000	5	1	0	5	0
285	608	0	10000	5	1	0	5	0
277	609	0	10000	5	1	0	5	0
268	610	0	10000	5	1	0	5	0
260	610	0	10000	5	1	0	5	0
251	611	0	10000	5	1	0	5	0
248	613	0	10000	5	1	0	5	0
250	614	0	10000	5	1	0	5	0
259	615	0	10000	5	1	0	5	0
285	616	0	10000	5	1	0	5	0
292	617	0	10000	5	1	0	5	0
284	618	0	10000	5	1	0	5	0
276	619	0	10000	5	1	0	5	0
271	620	0	10000	5	1	0	5	0
261	620	0	10000	5	1	0	5	0
261	621	0	10000	5	1	0	5	0
267	623	0	10000	5	1	0	5	0
261	624	0	10000	5	1	0	5	0
254	625	0	10000	5	1	0	5	0
244	626	0	10000	5	1	0	5	0
237	627	0	10000	5	1	0	5	0
230	628	0	10000	5	1	0	5	0
221	629	0	10000	5	1	0	5	0
213	630	0	10000	5	1	0	5	0
204	630	0	10000	5	1	0	5	0
196	631	0	10000	5	1	0	5	0
186	633	0	10000	5	1	0	5	0
180	634	0	10000	5	1	0	5	0
173	635	0	10000	5	1	0	5	0
168	636	0	10000	5	1	0	5	0
162	637	0	10000	5	1	0	5	0
157	638	0	10000	5	1	0	5	0
153	639	0	10000	5	1	0	5	0
150	640	0	10000	5	1	0	5	0
146	640	0	10000	5	1	0	5	0
141	641	0	10000	5	1	0	5	0
139	643	0	10000	5	1	0	5	0
134	644	0	10000	5	1	0	5	0
129	645	0	10000	5	1	0	5	0
126	646	0	10000	5	1	0	5	0
123	647	0	10000	5	1	0	5	0
122	648	0	10000	5	1	0	5	0
120	649	0	10000	5	1	0	5	0
120	650	0	10000	5	1	0	5	0
121	650	0	10000	5	1	0	5	0
120	651	0	10000	5	1	0	5	0
117	653	0	10000	5	1	0	5	0
118	654	0	10000	5	1	0	5	0
121	655	0	10000	5	1	0	5	0
123	656	0	10000	5	1	0	5	0
126	657	0	10000	5	1	0	5	0
127	658	0	10000	5	1	0	5	0
128	659	0	10000	5	1	0	5	0
124	660	0	10000	5	1	0	5	0
120	660	0	10000	5	1	0	5	0
115	661	0	10000	5	1	0	5	0
111	663	0	10000	5	1	0	5	0
107	664	0	10000	5	1	0	5	0
103	665	0	10000	5	1	0	5	0
98	666	0	10000	5	1	0	5	0
94	667	0	10000	5	1	0	5	0
91	668	0	10000	5	1	0	5	0
87	669	0	10000	5	1	0	5	0
85	670	0	10000	5	1	0	5	0
83	670	0	10000	5	1	0	5	0
81	671	0	10000	5	1	0	5	0
79	673	0	10000	5	1	0	5	0
77	674	0	10000	5	1	0	5	0
74	675	0	10000	5	1	0	5	0
72	676	0	10000	5	1	0	5	0
69	677	0	10000	5	1	0	5	0
66	678	0	10000	5	1	0	5	0
65	679	0	10000	5	1	0	5	0
63	680	0	10000	5	1	0	5	0
63	680	0	10000	5	1	0	5	0
64	681	0	10000	5	1	0	5	0
66	683	0	10000	5	1	0	5	0
66	684	0	10000	5	1	0	5	0
65	685	0	10000	5	1	0	5	0
64	686	0	10000	5	1	0	5	0
61	687	0	10000	5	1	0	5	0
58	688	0	10000	5	1	0	5	0
56	689	0	10000	5	1	0	5	0
55	690	0	10000	5	1	0	5	0
54	690	0	10000	5	1	0	5	0
52	691	0	10000	5	1	0	5	0
49	693	0	10000	5	1	0	5	0
48	694	0	10000	5	1	0	5	0
48	695	0	10000	5	1	0	5	0
46	696	0	10000	5	1	0	5	0
44	697	0	10000	5	1	0	5	0
44	698	0	10000	5	1	0	5	0
44	699	0	10000	5	1	0	5	0
43	700	0	10000	5	1	0	5	0
43	700	0	10000	5	1	0	5	0
43	701	0	10000	5	1	0	5	0
46	703	0	10000	5	1	0	5	0
48	704	0	10000	5	1	0	5	0
49	705	0	10000	5	1	0	5	0
48	706	0	10000	5	1	0	5	0
49	707	0	10000	5	1	0	5	0
48	708	0	10000	5	1	0	5	0
49	709	0	10000	5	1	0	5	0
48	710	0	10000	5	1	0	5	0
47	710	0	10000	5	1	0	5	0
45	711	0	10000	5	1	0	5	0
42	713	0	10000	5	1	0	5	0
40	714	0	10000	5	1	0	5	0
40	715	0	10000	5	1	0	5	0
39	716	0	10000	5	1	0	5	0
39	717	0	10000	5	1	0	5	0
40	718	0	10000	5	1	0	5	0
39	719	0	10000	5	1	0	5	0
38	720	0	10000	5	1	0	5	0
38	720	0	10000	5	1	0	5	0
37	721	0	10000	5	1	0	5	0
39	723	0	10000	5	1	0	5	0
39	724	0	10000	5	1	0	5	0
38	725	0	10000	5	1	0	5	0
38	726	0	10000	5	1	0	5	0
37	727	0	10000	5	1	0	5	0
36	728	0	10000	5	1	0	5	0
38	729	0	10000	5	1	0	5	0
39	730	0	10000	5	1	0	5	0
43	730	0	10000	5	1	0	5	0
52	731	0	10000	5	1	0	5	0
51	733	0	10000	5	1	0	5	0
51	734	0	10000	5	1	0	5	0
51	735	0	10000	5	1	0	5	0
51	736	0	10000	5	1	0	5	0
55	737	0	10000	5	1	0	5	0
56	738	0	10000	5	1	0	5	0
71	739	0	10000	5	1	0	5	0
87	740	0	10000	5	1	0	5	0
89	740	0	10000	5	1	0	5	0
91	741	0	10000	5	1	0	5	0
102	743	0	10000	5	1	0	5	0
106	744	0	10000	5	1	0	5	0
116	745	0	10000	5	1	0	5	0
118	746	0	10000	5	1	0	5	0
130	747	0	10000	5	1	0	5	0
140	748	0	10000	5	1	0	5	0
139	749	0	10000	5	1	0	5	0
146	750	0	10000	5	1	0	5	0
156	750	0	10000	5	1	0	5	0
154	751	0	10000	5	1	0	5	0
