value	EMG	Stimulus	EMG_sensitivity	Total_Trial_Nr	practise	acq	probe_nr	Startle_Probe
45	2	0	10000	1	1	0	1	0
44	3	0	10000	1	1	0	1	0
44	4	0	10000	1	1	0	1	0
44	5	0	10000	1	1	0	1	0
40	6	0	10000	1	1	0	1	0
39	7	0	10000	1	1	0	1	0
39	8	0	10000	1	1	0	1	0
38	9	0	10000	1	1	0	1	0
37	10	0	10000	1	1	0	1	0
37	11	0	10000	1	1	0	1	0
35	12	0	10000	1	1	0	1	0
34	13	0	10000	1	1	0	1	0
32	14	0	10000	1	1	0	1	0
32	15	0	10000	1	1	0	1	0
33	16	0	10000	1	1	0	1	0
33	17	0	10000	1	1	0	1	0
33	18	0	10000	1	1	0	1	0
34	19	0	10000	1	1	0	1	0
35	20	0	10000	1	1	0	1	0
33	21	0	10000	1	1	0	1	0
32	22	0	10000	1	1	0	1	0
34	23	0	10000	1	1	0	1	0
36	24	0	10000	1	1	0	1	0
37	25	0	10000	1	1	0	1	0
37	26	0	10000	1	1	0	1	0
37	27	0	10000	1	1	0	1	0
37	28	0	10000	1	1	0	1	0
39	29	0	10000	1	1	0	1	0
40	30	0	10000	1	1	0	1	0
40	31	0	10000	1	1	0	1	0
40	32	0	10000	1	1	0	1	0
38	33	0	10000	1	1	0	1	0
37	34	0	10000	1	1	0	1	0
36	35	0	10000	1	1	0	1	0
37	36	0	10000	1	1	0	1	0
35	37	0	10000	1	1	0	1	0
33	38	0	10000	1	1	0	1	0
32	39	0	10000	1	1	0	1	0
31	40	0	10000	1	1	0	1	0
31	41	0	10000	1	1	0	1	0
30	42	0	10000	1	1	0	1	0
31	43	0	10000	1	1	0	1	0
32	44	0	10000	1	1	0	1	0
32	45	0	10000	1	1	0	1	0
30	46	0	10000	1	1	0	1	0
31	47	0	10000	1	1	0	1	0
30	48	0	10000	1	1	0	1	0
29	49	0	10000	1	1	0	1	0
29	50	0	10000	1	1	0	1	0
28	51	0	10000	1	1	0	1	0
27	52	0	10000	1	1	0	1	0
27	53	0	10000	1	1	0	1	0
27	54	0	10000	1	1	0	1	0
27	55	0	10000	1	1	0	1	0
29	56	0	10000	1	1	0	1	0
29	57	0	10000	1	1	0	1	0
27	58	0	10000	1	1	0	1	0
26	59	0	10000	1	1	0	1	0
26	60	0	10000	1	1	0	1	0
27	61	0	10000	1	1	0	1	0
27	62	0	10000	1	1	0	1	0
28	63	0	10000	1	1	0	1	0
28	64	0	10000	1	1	0	1	0
29	65	0	10000	1	1	0	1	0
26	66	0	10000	1	1	0	1	0
27	67	0	10000	1	1	0	1	0
26	68	0	10000	1	1	0	1	0
26	69	0	10000	1	1	0	1	0
26	70	0	10000	1	1	0	1	0
27	71	0	10000	1	1	0	1	0
28	72	0	10000	1	1	0	1	0
26	73	0	10000	1	1	0	1	0
25	74	0	10000	1	1	0	1	0
24	75	0	10000	1	1	0	1	0
26	76	0	10000	1	1	0	1	0
24	77	0	10000	1	1	0	1	0
24	78	0	10000	1	1	0	1	0
24	79	0	10000	1	1	0	1	0
26	80	0	10000	1	1	0	1	0
28	81	0	10000	1	1	0	1	0
28	82	0	10000	1	1	0	1	0
29	83	0	10000	1	1	0	1	0
30	84	0	10000	1	1	0	1	0
29	85	0	10000	1	1	0	1	0
26	86	0	10000	1	1	0	1	0
27	87	0	10000	1	1	0	1	0
26	88	0	10000	1	1	0	1	0
26	89	0	10000	1	1	0	1	0
25	90	0	10000	1	1	0	1	0
24	91	0	10000	1	1	0	1	0
23	92	0	10000	1	1	0	1	0
22	93	0	10000	1	1	0	1	0
21	94	0	10000	1	1	0	1	0
20	95	0	10000	1	1	0	1	0
22	96	0	10000	1	1	0	1	0
21	97	0	10000	1	1	0	1	0
21	98	0	10000	1	1	0	1	0
22	99	0	10000	1	1	0	1	0
21	100	0	10000	1	1	0	1	0
23	101	0	10000	1	1	0	1	0
25	102	0	10000	1	1	0	1	0
27	103	0	10000	1	1	0	1	0
27	104	0	10000	1	1	0	1	0
27	105	0	10000	1	1	0	1	0
25	106	0	10000	1	1	0	1	0
25	107	0	10000	1	1	0	1	0
25	108	0	10000	1	1	0	1	0
25	109	0	10000	1	1	0	1	0
25	110	0	10000	1	1	0	1	0
25	111	0	10000	1	1	0	1	0
25	112	0	10000	1	1	0	1	0
24	113	0	10000	1	1	0	1	0
22	114	0	10000	1	1	0	1	0
21	115	0	10000	1	1	0	1	0
23	116	0	10000	1	1	0	1	0
23	117	0	10000	1	1	0	1	0
22	118	0	10000	1	1	0	1	0
21	119	0	10000	1	1	0	1	0
20	120	0	10000	1	1	0	1	0
19	121	0	10000	1	1	0	1	0
20	122	0	10000	1	1	0	1	0
20	123	0	10000	1	1	0	1	0
20	124	0	10000	1	1	0	1	0
20	125	0	10000	1	1	0	1	0
17	126	0	10000	1	1	0	1	0
17	127	0	10000	1	1	0	1	0
17	128	0	10000	1	1	0	1	0
17	129	0	10000	1	1	0	1	0
16	130	0	10000	1	1	0	1	0
16	131	0	10000	1	1	0	1	0
17	132	0	10000	1	1	0	1	0
15	133	0	10000	1	1	0	1	0
15	134	0	10000	1	1	0	1	0
14	135	0	10000	1	1	0	1	0
17	136	0	10000	1	1	0	1	0
17	137	0	10000	1	1	0	1	0
17	138	0	10000	1	1	0	1	0
18	139	0	10000	1	1	0	1	0
18	140	0	10000	1	1	0	1	0
17	141	0	10000	1	1	0	1	0
17	142	0	10000	1	1	0	1	0
17	143	0	10000	1	1	0	1	0
18	144	0	10000	1	1	0	1	0
20	145	0	10000	1	1	0	1	0
18	146	0	10000	1	1	0	1	0
18	147	0	10000	1	1	0	1	0
18	148	0	10000	1	1	0	1	0
18	149	0	10000	1	1	0	1	0
18	150	0	10000	1	1	0	1	0
18	151	0	10000	1	1	0	1	0
17	152	0	10000	1	1	0	1	0
16	153	0	10000	1	1	0	1	0
16	154	0	10000	1	1	0	1	0
16	155	0	10000	1	1	0	1	0
18	156	0	10000	1	1	0	1	0
18	157	0	10000	1	1	0	1	0
18	158	0	10000	1	1	0	1	0
17	159	0	10000	1	1	0	1	0
16	160	0	10000	1	1	0	1	0
16	161	0	10000	1	1	0	1	0
15	162	0	10000	1	1	0	1	0
15	163	0	10000	1	1	0	1	0
15	164	0	10000	1	1	0	1	0
16	165	0	10000	1	1	0	1	0
12	166	0	10000	1	1	0	1	0
13	167	0	10000	1	1	0	1	0
14	168	0	10000	1	1	0	1	0
14	169	0	10000	1	1	0	1	0
13	170	0	10000	1	1	0	1	0
14	171	0	10000	1	1	0	1	0
14	172	0	10000	1	1	0	1	0
13	173	0	10000	1	1	0	1	0
14	174	0	10000	1	1	0	1	0
12	175	0	10000	1	1	0	1	0
14	176	0	10000	1	1	0	1	0
15	177	0	10000	1	1	0	1	0
15	178	0	10000	1	1	0	1	0
16	179	0	10000	1	1	0	1	0
17	180	0	10000	1	1	0	1	0
16	181	0	10000	1	1	0	1	0
16	182	0	10000	1	1	0	1	0
17	183	0	10000	1	1	0	1	0
17	184	0	10000	1	1	0	1	0
16	185	0	10000	1	1	0	1	0
14	186	0	10000	1	1	0	1	0
13	187	0	10000	1	1	0	1	0
14	188	0	10000	1	1	0	1	0
15	189	0	10000	1	1	0	1	0
14	190	0	10000	1	1	0	1	0
15	191	0	10000	1	1	0	1	0
16	192	0	10000	1	1	0	1	0
15	193	0	10000	1	1	0	1	0
14	194	0	10000	1	1	0	1	0
14	195	0	10000	1	1	0	1	0
14	196	0	10000	1	1	0	1	0
16	197	0	10000	1	1	0	1	0
17	198	0	10000	1	1	0	1	0
18	199	0	10000	1	1	0	1	0
19	200	0	10000	1	1	0	1	0
18	201	0	10000	1	1	0	1	0
17	202	0	10000	1	1	0	1	0
18	203	0	10000	1	1	0	1	0
20	204	0	10000	1	1	0	1	0
19	205	0	10000	1	1	0	1	0
16	206	0	10000	1	1	0	1	0
17	207	0	10000	1	1	0	1	0
17	208	0	10000	1	1	0	1	0
16	209	0	10000	1	1	0	1	0
16	210	0	10000	1	1	0	1	0
15	211	0	10000	1	1	0	1	0
15	212	0	10000	1	1	0	1	0
14	213	0	10000	1	1	0	1	0
13	214	0	10000	1	1	0	1	0
13	215	0	10000	1	1	0	1	0
15	216	0	10000	1	1	0	1	0
14	217	0	10000	1	1	0	1	0
13	218	0	10000	1	1	0	1	0
14	219	0	10000	1	1	0	1	0
14	220	0	10000	1	1	0	1	0
13	221	0	10000	1	1	0	1	0
12	222	0	10000	1	1	0	1	0
13	223	0	10000	1	1	0	1	0
13	224	0	10000	1	1	0	1	0
15	225	0	10000	1	1	0	1	0
13	226	0	10000	1	1	0	1	0
12	227	0	10000	1	1	0	1	0
13	228	0	10000	1	1	0	1	0
14	229	0	10000	1	1	0	1	0
14	230	0	10000	1	1	0	1	0
15	231	0	10000	1	1	0	1	0
17	232	0	10000	1	1	0	1	0
19	233	0	10000	1	1	0	1	0
21	234	0	10000	1	1	0	1	0
21	235	0	10000	1	1	0	1	0
24	236	0	10000	1	1	0	1	0
23	237	0	10000	1	1	0	1	0
22	238	0	10000	1	1	0	1	0
21	239	0	10000	1	1	0	1	0
20	240	0	10000	1	1	0	1	0
19	241	0	10000	1	1	0	1	0
19	242	0	10000	1	1	0	1	0
19	243	0	10000	1	1	0	1	0
19	244	0	10000	1	1	0	1	0
18	245	0	10000	1	1	0	1	0
15	246	0	10000	1	1	0	1	0
16	247	0	10000	1	1	0	1	0
16	248	0	10000	1	1	0	1	0
15	249	0	10000	1	1	0	1	0
16	250	0	10000	1	1	0	1	0
16	251	0	10000	1	1	0	1	0
18	252	0	10000	1	1	0	1	0
17	253	0	10000	1	1	0	1	0
17	254	0	10000	1	1	0	1	0
16	255	0	10000	1	1	0	1	0
19	256	0	10000	1	1	0	1	0
20	257	0	10000	1	1	0	1	0
19	258	0	10000	1	1	0	1	0
18	259	0	10000	1	1	0	1	0
18	260	0	10000	1	1	0	1	0
17	261	0	10000	1	1	0	1	0
16	262	0	10000	1	1	0	1	0
17	263	0	10000	1	1	0	1	0
18	264	0	10000	1	1	0	1	0
19	265	0	10000	1	1	0	1	0
16	266	0	10000	1	1	0	1	0
16	267	0	10000	1	1	0	1	0
16	268	0	10000	1	1	0	1	0
16	269	0	10000	1	1	0	1	0
16	270	0	10000	1	1	0	1	0
16	271	0	10000	1	1	0	1	0
16	272	0	10000	1	1	0	1	0
15	273	0	10000	1	1	0	1	0
14	274	0	10000	1	1	0	1	0
14	275	0	10000	1	1	0	1	0
16	276	0	10000	1	1	0	1	0
15	277	0	10000	1	1	0	1	0
14	278	0	10000	1	1	0	1	0
14	279	0	10000	1	1	0	1	0
16	280	0	10000	1	1	0	1	0
18	281	0	10000	1	1	0	1	0
19	282	0	10000	1	1	0	1	0
19	283	0	10000	1	1	0	1	0
19	284	0	10000	1	1	0	1	0
19	285	0	10000	1	1	0	1	0
17	286	0	10000	1	1	0	1	0
17	287	0	10000	1	1	0	1	0
19	288	0	10000	1	1	0	1	0
20	289	0	10000	1	1	0	1	0
20	290	0	10000	1	1	0	1	0
19	291	0	10000	1	1	0	1	0
19	292	0	10000	1	1	0	1	0
18	293	0	10000	1	1	0	1	0
18	294	0	10000	1	1	0	1	0
17	295	0	10000	1	1	0	1	0
20	296	0	10000	1	1	0	1	0
19	297	0	10000	1	1	0	1	0
19	298	0	10000	1	1	0	1	0
19	299	0	10000	1	1	0	1	0
19	300	0	10000	1	1	0	1	0
19	301	0	10000	1	1	0	1	0
19	302	0	10000	1	1	0	1	0
20	303	0	10000	1	1	0	1	0
21	304	0	10000	1	1	0	1	0
21	305	0	10000	1	1	0	1	0
19	306	0	10000	1	1	0	1	0
19	307	0	10000	1	1	0	1	0
19	308	0	10000	1	1	0	1	0
18	309	0	10000	1	1	0	1	0
19	310	0	10000	1	1	0	1	0
20	311	0	10000	1	1	0	1	0
20	312	0	10000	1	1	0	1	0
19	313	0	10000	1	1	0	1	0
18	314	0	10000	1	1	0	1	0
17	315	0	10000	1	1	0	1	0
20	316	0	10000	1	1	0	1	0
21	317	0	10000	1	1	0	1	0
21	318	0	10000	1	1	0	1	0
20	319	0	10000	1	1	0	1	0
20	320	0	10000	1	1	0	1	0
21	321	0	10000	1	1	0	1	0
20	322	0	10000	1	1	0	1	0
20	323	0	10000	1	1	0	1	0
20	324	0	10000	1	1	0	1	0
20	325	0	10000	1	1	0	1	0
17	326	0	10000	1	1	0	1	0
17	327	0	10000	1	1	0	1	0
17	328	0	10000	1	1	0	1	0
16	329	0	10000	1	1	0	1	0
15	330	0	10000	1	1	0	1	0
16	331	0	10000	1	1	0	1	0
15	332	0	10000	1	1	0	1	0
14	333	0	10000	1	1	0	1	0
14	334	0	10000	1	1	0	1	0
13	335	0	10000	1	1	0	1	0
16	336	0	10000	1	1	0	1	0
17	337	0	10000	1	1	0	1	0
16	338	0	10000	1	1	0	1	0
15	339	0	10000	1	1	0	1	0
15	340	0	10000	1	1	0	1	0
14	341	0	10000	1	1	0	1	0
14	342	0	10000	1	1	0	1	0
16	343	0	10000	1	1	0	1	0
16	344	0	10000	1	1	0	1	0
16	345	0	10000	1	1	0	1	0
14	346	0	10000	1	1	0	1	0
13	347	0	10000	1	1	0	1	0
13	348	0	10000	1	1	0	1	0
15	349	0	10000	1	1	0	1	0
14	350	0	10000	1	1	0	1	0
14	351	0	10000	1	1	0	1	0
16	352	0	10000	1	1	0	1	0
15	353	0	10000	1	1	0	1	0
16	354	0	10000	1	1	0	1	0
17	355	0	10000	1	1	0	1	0
20	356	0	10000	1	1	0	1	0
19	357	0	10000	1	1	0	1	0
19	358	0	10000	1	1	0	1	0
19	359	0	10000	1	1	0	1	0
18	360	0	10000	1	1	0	1	0
20	361	0	10000	1	1	0	1	0
20	362	0	10000	1	1	0	1	0
22	363	0	10000	1	1	0	1	0
24	364	0	10000	1	1	0	1	0
23	365	0	10000	1	1	0	1	0
19	366	0	10000	1	1	0	1	0
20	367	0	10000	1	1	0	1	0
20	368	0	10000	1	1	0	1	0
19	369	0	10000	1	1	0	1	0
19	370	0	10000	1	1	0	1	0
20	371	0	10000	1	1	0	1	0
22	372	0	10000	1	1	0	1	0
24	373	0	10000	1	1	0	1	0
23	374	0	10000	1	1	0	1	0
22	375	0	10000	1	1	0	1	0
25	376	0	10000	1	1	0	1	0
30	377	0	10000	1	1	0	1	0
39	378	0	10000	1	1	0	1	0
49	379	0	10000	1	1	0	1	0
54	380	0	10000	1	1	0	1	0
55	381	0	10000	1	1	0	1	0
55	382	0	10000	1	1	0	1	0
63	383	0	10000	1	1	0	1	0
76	384	0	10000	1	1	0	1	0
89	385	0	10000	1	1	0	1	0
91	386	0	10000	1	1	0	1	0
88	387	0	10000	1	1	0	1	0
85	388	0	10000	1	1	0	1	0
88	389	0	10000	1	1	0	1	0
92	390	0	10000	1	1	0	1	0
93	391	0	10000	1	1	0	1	0
100	392	0	10000	1	1	0	1	0
108	393	0	10000	1	1	0	1	0
112	394	0	10000	1	1	0	1	0
108	395	0	10000	1	1	0	1	0
109	396	0	10000	1	1	0	1	0
111	397	0	10000	1	1	0	1	0
109	398	0	10000	1	1	0	1	0
107	399	0	10000	1	1	0	1	0
108	400	0	10000	1	1	0	1	0
115	401	0	10000	1	1	0	1	0
122	402	0	10000	1	1	0	1	0
128	403	0	10000	1	1	0	1	0
129	404	0	10000	1	1	0	1	0
134	405	0	10000	1	1	0	1	0
146	406	0	10000	1	1	0	1	0
153	407	0	10000	1	1	0	1	0
153	408	0	10000	1	1	0	1	0
156	409	0	10000	1	1	0	1	0
174	410	0	10000	1	1	0	1	0
196	411	0	10000	1	1	0	1	0
204	412	0	10000	1	1	0	1	0
203	413	0	10000	1	1	0	1	0
198	414	0	10000	1	1	0	1	0
201	415	0	10000	1	1	0	1	0
209	416	0	10000	1	1	0	1	0
210	417	0	10000	1	1	0	1	0
203	418	0	10000	1	1	0	1	0
200	419	0	10000	1	1	0	1	0
196	420	0	10000	1	1	0	1	0
189	421	0	10000	1	1	0	1	0
183	422	0	10000	1	1	0	1	0
176	423	0	10000	1	1	0	1	0
176	424	0	10000	1	1	0	1	0
178	425	0	10000	1	1	0	1	0
172	426	0	10000	1	1	0	1	0
168	427	0	10000	1	1	0	1	0
169	428	0	10000	1	1	0	1	0
169	429	0	10000	1	1	0	1	0
164	430	0	10000	1	1	0	1	0
161	431	0	10000	1	1	0	1	0
161	432	0	10000	1	1	0	1	0
157	433	0	10000	1	1	0	1	0
152	434	0	10000	1	1	0	1	0
152	435	0	10000	1	1	0	1	0
155	436	0	10000	1	1	0	1	0
152	437	0	10000	1	1	0	1	0
147	438	0	10000	1	1	0	1	0
143	439	0	10000	1	1	0	1	0
143	440	0	10000	1	1	0	1	0
140	441	0	10000	1	1	0	1	0
134	442	0	10000	1	1	0	1	0
129	443	0	10000	1	1	0	1	0
126	444	0	10000	1	1	0	1	0
128	445	0	10000	1	1	0	1	0
129	446	0	10000	1	1	0	1	0
136	447	0	10000	1	1	0	1	0
143	448	0	10000	1	1	0	1	0
147	449	0	10000	1	1	0	1	0
148	450	0	10000	1	1	0	1	0
146	451	0	10000	1	1	0	1	0
144	452	0	10000	1	1	0	1	0
141	453	0	10000	1	1	0	1	0
138	454	0	10000	1	1	0	1	0
137	455	0	10000	1	1	0	1	0
139	456	0	10000	1	1	0	1	0
138	457	0	10000	1	1	0	1	0
135	458	0	10000	1	1	0	1	0
133	459	0	10000	1	1	0	1	0
133	460	0	10000	1	1	0	1	0
135	461	0	10000	1	1	0	1	0
138	462	0	10000	1	1	0	1	0
141	463	0	10000	1	1	0	1	0
142	464	0	10000	1	1	0	1	0
143	465	0	10000	1	1	0	1	0
144	466	0	10000	1	1	0	1	0
149	467	0	10000	1	1	0	1	0
154	468	0	10000	1	1	0	1	0
158	469	0	10000	1	1	0	1	0
160	470	0	10000	1	1	0	1	0
161	471	0	10000	1	1	0	1	0
162	472	0	10000	1	1	0	1	0
163	473	0	10000	1	1	0	1	0
163	474	0	10000	1	1	0	1	0
165	475	0	10000	1	1	0	1	0
170	476	0	10000	1	1	0	1	0
171	477	0	10000	1	1	0	1	0
171	478	0	10000	1	1	0	1	0
171	479	0	10000	1	1	0	1	0
171	480	0	10000	1	1	0	1	0
172	481	0	10000	1	1	0	1	0
173	482	0	10000	1	1	0	1	0
177	483	0	10000	1	1	0	1	0
181	484	0	10000	1	1	0	1	0
184	485	0	10000	1	1	0	1	0
183	486	0	10000	1	1	0	1	0
184	487	0	10000	1	1	0	1	0
186	488	0	10000	1	1	0	1	0
186	489	0	10000	1	1	0	1	0
185	490	0	10000	1	1	0	1	0
182	491	0	10000	1	1	0	1	0
180	492	0	10000	1	1	0	1	0
176	493	0	10000	1	1	0	1	0
172	494	0	10000	1	1	0	1	0
168	495	0	10000	1	1	0	1	0
167	496	0	10000	1	1	0	1	0
163	497	0	10000	1	1	0	1	0
158	498	0	10000	1	1	0	1	0
154	499	0	10000	1	1	0	1	0
151	500	0	10000	1	1	0	1	0
147	501	0	10000	1	1	0	1	0
144	533	0	10000	1	1	0	1	1
142	534	0	10000	1	1	0	1	1
139	535	0	10000	1	1	0	1	1
135	536	0	10000	1	1	0	1	1
128	537	0	10000	1	1	0	1	1
123	538	0	10000	1	1	0	1	1
119	539	0	10000	1	1	0	1	1
114	540	0	10000	1	1	0	1	1
109	541	0	10000	1	1	0	1	1
105	542	0	10000	1	1	0	1	1
101	543	0	10000	1	1	0	1	1
97	544	0	10000	1	1	0	1	1
92	545	0	10000	1	1	0	1	1
89	546	0	10000	1	1	0	1	1
87	547	0	10000	1	1	0	1	1
84	548	0	10000	1	1	0	1	1
80	549	0	10000	1	1	0	1	1
76	550	0	10000	1	1	0	1	1
74	551	0	10000	1	1	0	1	1
72	552	0	10000	1	1	0	1	1
68	553	0	10000	1	1	0	1	1
66	554	0	10000	1	1	0	1	1
65	555	0	10000	1	1	0	1	1
63	556	0	10000	1	1	0	1	1
58	557	0	10000	1	1	0	1	1
57	558	0	10000	1	1	0	1	1
55	559	0	10000	1	1	0	1	1
55	560	0	10000	1	1	0	1	1
57	561	0	10000	1	1	0	1	1
57	562	0	10000	1	1	0	1	1
57	563	0	10000	1	1	0	1	1
55	564	0	10000	1	1	0	1	1
52	536	0	10000	1	1	0	1	1
51	537	0	10000	1	1	0	1	1
52	538	0	10000	1	1	0	1	1
50	539	0	10000	1	1	0	1	1
50	538	0	10000	1	1	0	1	1
50	539	0	10000	1	1	0	1	1
50	540	0	10000	1	1	0	1	1
52	541	0	10000	1	1	0	1	1
53	542	0	10000	1	1	0	1	1
53	543	0	10000	1	1	0	1	1
52	544	0	10000	1	1	0	1	1
50	545	0	10000	1	1	0	1	1
46	546	0	10000	1	1	0	1	1
45	547	0	10000	1	1	0	1	1
46	548	0	10000	1	1	0	1	1
46	549	0	10000	1	1	0	1	1
46	550	0	10000	1	1	0	1	1
48	551	0	10000	1	1	0	1	1
49	552	0	10000	1	1	0	1	0
51	553	0	10000	1	1	0	1	0
54	554	0	10000	1	1	0	1	0
55	555	0	10000	1	1	0	1	0
56	556	0	10000	1	1	0	1	0
55	557	0	10000	1	1	0	1	0
54	558	0	10000	1	1	0	1	0
53	559	0	10000	1	1	0	1	0
51	560	0	10000	1	1	0	1	0
50	561	0	10000	1	1	0	1	0
47	562	0	10000	1	1	0	1	0
46	563	0	10000	1	1	0	1	0
44	564	0	10000	1	1	0	1	0
44	565	0	10000	1	1	0	1	0
41	566	0	10000	1	1	0	1	0
41	567	0	10000	1	1	0	1	0
41	568	0	10000	1	1	0	1	0
42	569	0	10000	1	1	0	1	0
43	570	0	10000	1	1	0	1	0
43	571	0	10000	1	1	0	1	0
44	572	0	10000	1	1	0	1	0
45	573	0	10000	1	1	0	1	0
46	574	0	10000	1	1	0	1	0
47	575	0	10000	1	1	0	1	0
51	576	0	10000	1	1	0	1	0
51	577	0	10000	1	1	0	1	0
51	578	0	10000	1	1	0	1	0
50	579	0	10000	1	1	0	1	0
49	580	0	10000	1	1	0	1	0
48	581	0	10000	1	1	0	1	0
47	582	0	10000	1	1	0	1	0
47	583	0	10000	1	1	0	1	0
46	584	0	10000	1	1	0	1	0
45	585	0	10000	1	1	0	1	0
42	586	0	10000	1	1	0	1	0
41	587	0	10000	1	1	0	1	0
40	588	0	10000	1	1	0	1	0
39	589	0	10000	1	1	0	1	0
39	590	0	10000	1	1	0	1	0
39	591	0	10000	1	1	0	1	0
39	592	0	10000	1	1	0	1	0
38	593	0	10000	1	1	0	1	0
37	594	0	10000	1	1	0	1	0
36	595	0	10000	1	1	0	1	0
39	596	0	10000	1	1	0	1	0
38	597	0	10000	1	1	0	1	0
38	598	0	10000	1	1	0	1	0
38	599	0	10000	1	1	0	1	0
39	600	0	10000	1	1	0	1	0
38	601	0	10000	1	1	0	1	0
38	602	0	10000	1	1	0	1	0
38	603	0	10000	1	1	0	1	0
37	604	0	10000	1	1	0	1	0
38	605	0	10000	1	1	0	1	0
35	606	0	10000	1	1	0	1	0
35	607	0	10000	1	1	0	1	0
33	608	0	10000	1	1	0	1	0
32	609	0	10000	1	1	0	1	0
31	610	0	10000	1	1	0	1	0
29	611	0	10000	1	1	0	1	0
30	612	0	10000	1	1	0	1	0
30	613	0	10000	1	1	0	1	0
31	614	0	10000	1	1	0	1	0
31	615	0	10000	1	1	0	1	0
33	616	0	10000	1	1	0	1	0
32	617	0	10000	1	1	0	1	0
33	618	0	10000	1	1	0	1	0
33	619	0	10000	1	1	0	1	0
35	620	0	10000	1	1	0	1	0
35	621	0	10000	1	1	0	1	0
36	622	0	10000	1	1	0	1	0
36	623	0	10000	1	1	0	1	0
43	624	0	10000	1	1	0	1	0
56	625	0	10000	1	1	0	1	0
66	626	0	10000	1	1	0	1	0
65	627	0	10000	1	1	0	1	0
70	628	0	10000	1	1	0	1	0
81	629	0	10000	1	1	0	1	0
98	630	0	10000	1	1	0	1	0
114	631	0	10000	1	1	0	1	0
113	632	0	10000	1	1	0	1	0
112	633	0	10000	1	1	0	1	0
125	634	0	10000	1	1	0	1	0
180	635	0	10000	1	1	0	1	0
260	636	0	10000	1	1	0	1	0
296	637	0	10000	1	1	0	1	0
345	638	0	10000	1	1	0	1	0
449	639	0	10000	1	1	0	1	0
517	640	0	10000	1	1	0	1	0
529	641	0	10000	1	1	0	1	0
542	642	0	10000	1	1	0	1	0
546	643	0	10000	1	1	0	1	0
531	644	0	10000	1	1	0	1	0
528	645	0	10000	1	1	0	1	0
529	646	0	10000	1	1	0	1	0
539	647	0	10000	1	1	0	1	0
531	648	0	10000	1	1	0	1	0
521	649	0	10000	1	1	0	1	0
540	650	0	10000	1	1	0	1	0
555	651	0	10000	1	1	0	1	0
549	652	0	10000	1	1	0	1	0
545	653	0	10000	1	1	0	1	0
562	654	0	10000	1	1	0	1	0
554	655	0	10000	1	1	0	1	0
545	656	0	10000	1	1	0	1	0
536	657	0	10000	1	1	0	1	0
535	658	0	10000	1	1	0	1	0
533	659	0	10000	1	1	0	1	0
528	660	0	10000	1	1	0	1	0
511	661	0	10000	1	1	0	1	0
489	662	0	10000	1	1	0	1	0
472	663	0	10000	1	1	0	1	0
461	664	0	10000	1	1	0	1	0
455	665	0	10000	1	1	0	1	0
449	666	0	10000	1	1	0	1	0
445	667	0	10000	1	1	0	1	0
441	668	0	10000	1	1	0	1	0
438	669	0	10000	1	1	0	1	0
433	670	0	10000	1	1	0	1	0
428	671	0	10000	1	1	0	1	0
425	672	0	10000	1	1	0	1	0
419	673	0	10000	1	1	0	1	0
414	674	0	10000	1	1	0	1	0
409	675	0	10000	1	1	0	1	0
405	676	0	10000	1	1	0	1	0
398	677	0	10000	1	1	0	1	0
392	678	0	10000	1	1	0	1	0
382	679	0	10000	1	1	0	1	0
371	680	0	10000	1	1	0	1	0
359	681	0	10000	1	1	0	1	0
345	682	0	10000	1	1	0	1	0
332	683	0	10000	1	1	0	1	0
319	684	0	10000	1	1	0	1	0
306	685	0	10000	1	1	0	1	0
291	686	0	10000	1	1	0	1	0
279	687	0	10000	1	1	0	1	0
272	688	0	10000	1	1	0	1	0
271	689	0	10000	1	1	0	1	0
272	690	0	10000	1	1	0	1	0
269	691	0	10000	1	1	0	1	0
264	692	0	10000	1	1	0	1	0
260	693	0	10000	1	1	0	1	0
254	694	0	10000	1	1	0	1	0
247	695	0	10000	1	1	0	1	0
244	696	0	10000	1	1	0	1	0
238	697	0	10000	1	1	0	1	0
233	698	0	10000	1	1	0	1	0
229	699	0	10000	1	1	0	1	0
224	700	0	10000	1	1	0	1	0
221	701	0	10000	1	1	0	1	0
218	702	0	10000	1	1	0	1	0
215	703	0	10000	1	1	0	1	0
214	704	0	10000	1	1	0	1	0
214	705	0	10000	1	1	0	1	0
211	706	0	10000	1	1	0	1	0
211	707	0	10000	1	1	0	1	0
213	708	0	10000	1	1	0	1	0
214	709	0	10000	1	1	0	1	0
216	710	0	10000	1	1	0	1	0
218	711	0	10000	1	1	0	1	0
218	712	0	10000	1	1	0	1	0
217	713	0	10000	1	1	0	1	0
214	714	0	10000	1	1	0	1	0
209	715	0	10000	1	1	0	1	0
205	716	0	10000	1	1	0	1	0
198	717	0	10000	1	1	0	1	0
190	718	0	10000	1	1	0	1	0
182	719	0	10000	1	1	0	1	0
182	720	0	10000	1	1	0	1	0
182	721	0	10000	1	1	0	1	0
180	722	0	10000	1	1	0	1	0
177	723	0	10000	1	1	0	1	0
174	724	0	10000	1	1	0	1	0
171	725	0	10000	1	1	0	1	0
164	726	0	10000	1	1	0	1	0
160	727	0	10000	1	1	0	1	0
156	728	0	10000	1	1	0	1	0
152	729	0	10000	1	1	0	1	0
147	730	0	10000	1	1	0	1	0
141	731	0	10000	1	1	0	1	0
136	732	0	10000	1	1	0	1	0
129	733	0	10000	1	1	0	1	0
124	734	0	10000	1	1	0	1	0
118	735	0	10000	1	1	0	1	0
115	736	0	10000	1	1	0	1	0
111	737	0	10000	1	1	0	1	0
110	738	0	10000	1	1	0	1	0
110	739	0	10000	1	1	0	1	0
110	740	0	10000	1	1	0	1	0
111	741	0	10000	1	1	0	1	0
110	742	0	10000	1	1	0	1	0
110	743	0	10000	1	1	0	1	0
108	744	0	10000	1	1	0	1	0
107	745	0	10000	1	1	0	1	0
102	746	0	10000	1	1	0	1	0
99	747	0	10000	1	1	0	1	0
96	748	0	10000	1	1	0	1	0
92	749	0	10000	1	1	0	1	0
88	750	0	10000	1	1	0	1	0
85	751	0	10000	1	1	0	1	0
83	752	0	10000	1	1	0	1	0
82	753	0	10000	1	1	0	1	0
82	754	0	10000	1	1	0	1	0
81	755	0	10000	1	1	0	1	0
84	756	0	10000	1	1	0	1	0
85	757	0	10000	1	1	0	1	0
87	758	0	10000	1	1	0	1	0
88	759	0	10000	1	1	0	1	0
90	760	0	10000	1	1	0	1	0
91	761	0	10000	1	1	0	1	0
90	762	0	10000	1	1	0	1	0
90	763	0	10000	1	1	0	1	0
87	764	0	10000	1	1	0	1	0
85	765	0	10000	1	1	0	1	0
80	766	0	10000	1	1	0	1	0
78	767	0	10000	1	1	0	1	0
77	768	0	10000	1	1	0	1	0
75	769	0	10000	1	1	0	1	0
73	770	0	10000	1	1	0	1	0
70	771	0	10000	1	1	0	1	0
68	772	0	10000	1	1	0	1	0
65	773	0	10000	1	1	0	1	0
64	774	0	10000	1	1	0	1	0
62	775	0	10000	1	1	0	1	0
65	776	0	10000	1	1	0	1	0
66	777	0	10000	1	1	0	1	0
67	778	0	10000	1	1	0	1	0
68	779	0	10000	1	1	0	1	0
70	780	0	10000	1	1	0	1	0
71	781	0	10000	1	1	0	1	0
73	782	0	10000	1	1	0	1	0
79	783	0	10000	1	1	0	1	0
83	784	0	10000	1	1	0	1	0
84	785	0	10000	1	1	0	1	0
79	786	0	10000	1	1	0	1	0
78	787	0	10000	1	1	0	1	0
78	788	0	10000	1	1	0	1	0
77	789	0	10000	1	1	0	1	0
76	790	0	10000	1	1	0	1	0
76	791	0	10000	1	1	0	1	0
73	792	0	10000	1	1	0	1	0
70	793	0	10000	1	1	0	1	0
68	794	0	10000	1	1	0	1	0
67	795	0	10000	1	1	0	1	0
66	796	0	10000	1	1	0	1	0
66	797	0	10000	1	1	0	1	0
65	798	0	10000	1	1	0	1	0
64	799	0	10000	1	1	0	1	0
65	800	0	10000	1	1	0	1	0
64	801	0	10000	1	1	0	1	0
64	802	0	10000	1	1	0	1	0
63	803	0	10000	1	1	0	1	0
61	804	0	10000	1	1	0	1	0
59	805	0	10000	1	1	0	1	0
54	806	0	10000	1	1	0	1	0
52	807	0	10000	1	1	0	1	0
51	808	0	10000	1	1	0	1	0
50	809	0	10000	1	1	0	1	0
48	810	0	10000	1	1	0	1	0
48	811	0	10000	1	1	0	1	0
49	812	0	10000	1	1	0	1	0
49	813	0	10000	1	1	0	1	0
48	814	0	10000	1	1	0	1	0
46	815	0	10000	1	1	0	1	0
47	816	0	10000	1	1	0	1	0
46	817	0	10000	1	1	0	1	0
46	818	0	10000	1	1	0	1	0
45	819	0	10000	1	1	0	1	0
45	820	0	10000	1	1	0	1	0
45	821	0	10000	1	1	0	1	0
46	822	0	10000	1	1	0	1	0
46	823	0	10000	1	1	0	1	0
47	824	0	10000	1	1	0	1	0
46	825	0	10000	1	1	0	1	0
43	826	0	10000	1	1	0	1	0
43	827	0	10000	1	1	0	1	0
47	828	0	10000	1	1	0	1	0
52	829	0	10000	1	1	0	1	0
58	830	0	10000	1	1	0	1	0
63	831	0	10000	1	1	0	1	0
67	832	0	10000	1	1	0	1	0
68	833	0	10000	1	1	0	1	0
67	834	0	10000	1	1	0	1	0
66	835	0	10000	1	1	0	1	0
68	836	0	10000	1	1	0	1	0
68	837	0	10000	1	1	0	1	0
66	838	0	10000	1	1	0	1	0
65	839	0	10000	1	1	0	1	0
66	840	0	10000	1	1	0	1	0
72	841	0	10000	1	1	0	1	0
79	842	0	10000	1	1	0	1	0
88	843	0	10000	1	1	0	1	0
96	844	0	10000	1	1	0	1	0
103	845	0	10000	1	1	0	1	0
109	846	0	10000	1	1	0	1	0
118	847	0	10000	1	1	0	1	0
126	848	0	10000	1	1	0	1	0
133	849	0	10000	1	1	0	1	0
141	850	0	10000	1	1	0	1	0
147	851	0	10000	1	1	0	1	0
155	852	0	10000	1	1	0	1	0
163	853	0	10000	1	1	0	1	0
168	854	0	10000	1	1	0	1	0
171	855	0	10000	1	1	0	1	0
175	856	0	10000	1	1	0	1	0
176	857	0	10000	1	1	0	1	0
176	858	0	10000	1	1	0	1	0
176	859	0	10000	1	1	0	1	0
174	860	0	10000	1	1	0	1	0
171	861	0	10000	1	1	0	1	0
169	862	0	10000	1	1	0	1	0
163	863	0	10000	1	1	0	1	0
157	864	0	10000	1	1	0	1	0
151	865	0	10000	1	1	0	1	0
142	866	0	10000	1	1	0	1	0
139	867	0	10000	1	1	0	1	0
139	868	0	10000	1	1	0	1	0
139	869	0	10000	1	1	0	1	0
140	870	0	10000	1	1	0	1	0
139	871	0	10000	1	1	0	1	0
135	872	0	10000	1	1	0	1	0
132	873	0	10000	1	1	0	1	0
133	874	0	10000	1	1	0	1	0
128	875	0	10000	1	1	0	1	0
127	876	0	10000	1	1	0	1	0
132	877	0	10000	1	1	0	1	0
144	878	0	10000	1	1	0	1	0
157	879	0	10000	1	1	0	1	0
167	880	0	10000	1	1	0	1	0
173	881	0	10000	1	1	0	1	0
176	882	0	10000	1	1	0	1	0
176	883	0	10000	1	1	0	1	0
174	884	0	10000	1	1	0	1	0
173	885	0	10000	1	1	0	1	0
170	886	0	10000	1	1	0	1	0
170	887	0	10000	1	1	0	1	0
170	888	0	10000	1	1	0	1	0
172	889	0	10000	1	1	0	1	0
172	890	0	10000	1	1	0	1	0
171	891	0	10000	1	1	0	1	0
170	892	0	10000	1	1	0	1	0
168	893	0	10000	1	1	0	1	0
168	894	0	10000	1	1	0	1	0
170	895	0	10000	1	1	0	1	0
174	896	0	10000	1	1	0	1	0
176	897	0	10000	1	1	0	1	0
176	898	0	10000	1	1	0	1	0
173	899	0	10000	1	1	0	1	0
170	900	0	10000	1	1	0	1	0
166	901	0	10000	1	1	0	1	0
164	902	0	10000	1	1	0	1	0
165	903	0	10000	1	1	0	1	0
165	904	0	10000	1	1	0	1	0
164	905	0	10000	1	1	0	1	0
160	906	0	10000	1	1	0	1	0
157	907	0	10000	1	1	0	1	0
155	908	0	10000	1	1	0	1	0
153	909	0	10000	1	1	0	1	0
150	910	0	10000	1	1	0	1	0
147	911	0	10000	1	1	0	1	0
143	912	0	10000	1	1	0	1	0
137	913	0	10000	1	1	0	1	0
131	914	0	10000	1	1	0	1	0
128	915	0	10000	1	1	0	1	0
126	916	0	10000	1	1	0	1	0
122	917	0	10000	1	1	0	1	0
117	918	0	10000	1	1	0	1	0
115	919	0	10000	1	1	0	1	0
119	920	0	10000	1	1	0	1	0
124	921	0	10000	1	1	0	1	0
124	922	0	10000	1	1	0	1	0
120	923	0	10000	1	1	0	1	0
115	924	0	10000	1	1	0	1	0
112	925	0	10000	1	1	0	1	0
107	926	0	10000	1	1	0	1	0
103	927	0	10000	1	1	0	1	0
99	928	0	10000	1	1	0	1	0
97	929	0	10000	1	1	0	1	0
94	930	0	10000	1	1	0	1	0
90	931	0	10000	1	1	0	1	0
87	932	0	10000	1	1	0	1	0
84	933	0	10000	1	1	0	1	0
81	934	0	10000	1	1	0	1	0
78	935	0	10000	1	1	0	1	0
77	936	0	10000	1	1	0	1	0
73	937	0	10000	1	1	0	1	0
70	938	0	10000	1	1	0	1	0
68	939	0	10000	1	1	0	1	0
66	940	0	10000	1	1	0	1	0
65	941	0	10000	1	1	0	1	0
62	942	0	10000	1	1	0	1	0
61	943	0	10000	1	1	0	1	0
61	944	0	10000	1	1	0	1	0
65	945	0	10000	1	1	0	1	0
67	946	0	10000	1	1	0	1	0
70	947	0	10000	1	1	0	1	0
68	948	0	10000	1	1	0	1	0
67	949	0	10000	1	1	0	1	0
67	950	0	10000	1	1	0	1	0
68	951	0	10000	1	1	0	1	0
68	952	0	10000	1	1	0	1	0
65	953	0	10000	1	1	0	1	0
62	954	0	10000	1	1	0	1	0
60	955	0	10000	1	1	0	1	0
60	956	0	10000	1	1	0	1	0
58	957	0	10000	1	1	0	1	0
56	958	0	10000	1	1	0	1	0
55	959	0	10000	1	1	0	1	0
55	960	0	10000	1	1	0	1	0
55	961	0	10000	1	1	0	1	0
53	962	0	10000	1	1	0	1	0
52	963	0	10000	1	1	0	1	0
52	964	0	10000	1	1	0	1	0
51	965	0	10000	1	1	0	1	0
47	966	0	10000	1	1	0	1	0
46	967	0	10000	1	1	0	1	0
44	968	0	10000	1	1	0	1	0
43	969	0	10000	1	1	0	1	0
42	970	0	10000	1	1	0	1	0
41	971	0	10000	1	1	0	1	0
41	972	0	10000	1	1	0	1	0
39	973	0	10000	1	1	0	1	0
37	974	0	10000	1	1	0	1	0
37	975	0	10000	1	1	0	1	0
38	976	0	10000	1	1	0	1	0
37	977	0	10000	1	1	0	1	0
36	978	0	10000	1	1	0	1	0
37	979	0	10000	1	1	0	1	0
39	980	0	10000	1	1	0	1	0
43	981	0	10000	1	1	0	1	0
48	982	0	10000	1	1	0	1	0
49	983	0	10000	1	1	0	1	0
53	984	0	10000	1	1	0	1	0
56	985	0	10000	1	1	0	1	0
53	986	0	10000	1	1	0	1	0
55	987	0	10000	1	1	0	1	0
56	988	0	10000	1	1	0	1	0
57	989	0	10000	1	1	0	1	0
58	990	0	10000	1	1	0	1	0
56	991	0	10000	1	1	0	1	0
56	992	0	10000	1	1	0	1	0
54	993	0	10000	1	1	0	1	0
51	994	0	10000	1	1	0	1	0
50	995	0	10000	1	1	0	1	0
51	996	0	10000	1	1	0	1	0
50	997	0	10000	1	1	0	1	0
49	998	0	10000	1	1	0	1	0
46	999	0	10000	1	1	0	1	0
44	1000	0	10000	1	1	0	1	0
43	1001	0	10000	1	1	0	1	0
26	1	7	10000	2	1	0	2	0
26	2	7	10000	2	1	0	2	0
29	3	7	10000	2	1	0	2	0
29	4	7	10000	2	1	0	2	0
28	5	7	10000	2	1	0	2	0
30	6	7	10000	2	1	0	2	0
32	7	7	10000	2	1	0	2	0
32	8	7	10000	2	1	0	2	0
32	9	7	10000	2	1	0	2	0
34	10	7	10000	2	1	0	2	0
39	11	7	10000	2	1	0	2	0
41	12	7	10000	2	1	0	2	0
40	13	7	10000	2	1	0	2	0
41	14	7	10000	2	1	0	2	0
40	15	7	10000	2	1	0	2	0
38	16	7	10000	2	1	0	2	0
37	17	7	10000	2	1	0	2	0
36	18	7	10000	2	1	0	2	0
35	19	7	10000	2	1	0	2	0
36	20	7	10000	2	1	0	2	0
33	21	7	10000	2	1	0	2	0
33	22	7	10000	2	1	0	2	0
38	23	7	10000	2	1	0	2	0
37	24	7	10000	2	1	0	2	0
36	25	7	10000	2	1	0	2	0
35	26	7	10000	2	1	0	2	0
35	27	7	10000	2	1	0	2	0
35	28	7	10000	2	1	0	2	0
36	29	7	10000	2	1	0	2	0
37	30	7	10000	2	1	0	2	0
37	31	7	10000	2	1	0	2	0
37	32	7	10000	2	1	0	2	0
34	33	7	10000	2	1	0	2	0
32	34	7	10000	2	1	0	2	0
32	35	7	10000	2	1	0	2	0
32	36	7	10000	2	1	0	2	0
32	37	7	10000	2	1	0	2	0
33	38	7	10000	2	1	0	2	0
32	39	7	10000	2	1	0	2	0
32	40	7	10000	2	1	0	2	0
33	41	7	10000	2	1	0	2	0
31	42	7	10000	2	1	0	2	0
33	43	7	10000	2	1	0	2	0
32	44	7	10000	2	1	0	2	0
31	45	7	10000	2	1	0	2	0
29	46	7	10000	2	1	0	2	0
28	47	7	10000	2	1	0	2	0
27	48	7	10000	2	1	0	2	0
25	49	7	10000	2	1	0	2	0
26	50	7	10000	2	1	0	2	0
26	51	7	10000	2	1	0	2	0
26	52	7	10000	2	1	0	2	0
23	53	7	10000	2	1	0	2	0
23	54	7	10000	2	1	0	2	0
24	55	7	10000	2	1	0	2	0
25	56	7	10000	2	1	0	2	0
24	57	7	10000	2	1	0	2	0
24	58	7	10000	2	1	0	2	0
23	59	7	10000	2	1	0	2	0
22	60	7	10000	2	1	0	2	0
24	61	7	10000	2	1	0	2	0
24	62	7	10000	2	1	0	2	0
27	63	7	10000	2	1	0	2	0
29	64	7	10000	2	1	0	2	0
29	65	7	10000	2	1	0	2	0
28	66	7	10000	2	1	0	2	0
28	67	7	10000	2	1	0	2	0
29	68	7	10000	2	1	0	2	0
29	69	7	10000	2	1	0	2	0
30	70	7	10000	2	1	0	2	0
30	71	7	10000	2	1	0	2	0
31	72	7	10000	2	1	0	2	0
28	73	7	10000	2	1	0	2	0
27	74	7	10000	2	1	0	2	0
27	75	7	10000	2	1	0	2	0
28	76	7	10000	2	1	0	2	0
28	77	7	10000	2	1	0	2	0
30	78	7	10000	2	1	0	2	0
31	79	7	10000	2	1	0	2	0
29	80	7	10000	2	1	0	2	0
29	81	7	10000	2	1	0	2	0
29	82	7	10000	2	1	0	2	0
32	83	7	10000	2	1	0	2	0
33	84	7	10000	2	1	0	2	0
32	85	7	10000	2	1	0	2	0
31	86	7	10000	2	1	0	2	0
31	87	7	10000	2	1	0	2	0
30	88	7	10000	2	1	0	2	0
30	89	7	10000	2	1	0	2	0
30	90	7	10000	2	1	0	2	0
29	91	7	10000	2	1	0	2	0
28	92	7	10000	2	1	0	2	0
26	93	7	10000	2	1	0	2	0
24	94	7	10000	2	1	0	2	0
26	95	7	10000	2	1	0	2	0
27	96	7	10000	2	1	0	2	0
26	97	7	10000	2	1	0	2	0
28	98	7	10000	2	1	0	2	0
28	99	7	10000	2	1	0	2	0
27	100	7	10000	2	1	0	2	0
26	101	7	10000	2	1	0	2	0
24	102	7	10000	2	1	0	2	0
26	103	7	10000	2	1	0	2	0
25	104	7	10000	2	1	0	2	0
24	105	7	10000	2	1	0	2	0
23	106	7	10000	2	1	0	2	0
22	107	7	10000	2	1	0	2	0
21	108	7	10000	2	1	0	2	0
20	109	7	10000	2	1	0	2	0
20	110	7	10000	2	1	0	2	0
21	111	7	10000	2	1	0	2	0
21	112	7	10000	2	1	0	2	0
19	113	7	10000	2	1	0	2	0
19	114	7	10000	2	1	0	2	0
19	115	7	10000	2	1	0	2	0
18	116	7	10000	2	1	0	2	0
18	117	7	10000	2	1	0	2	0
18	118	7	10000	2	1	0	2	0
18	119	7	10000	2	1	0	2	0
16	120	7	10000	2	1	0	2	0
15	121	7	10000	2	1	0	2	0
15	122	7	10000	2	1	0	2	0
18	123	7	10000	2	1	0	2	0
17	124	7	10000	2	1	0	2	0
16	125	7	10000	2	1	0	2	0
16	126	7	10000	2	1	0	2	0
17	127	7	10000	2	1	0	2	0
17	128	7	10000	2	1	0	2	0
18	129	7	10000	2	1	0	2	0
19	130	7	10000	2	1	0	2	0
21	131	7	10000	2	1	0	2	0
23	132	7	10000	2	1	0	2	0
20	133	7	10000	2	1	0	2	0
20	134	7	10000	2	1	0	2	0
22	135	7	10000	2	1	0	2	0
21	136	7	10000	2	1	0	2	0
21	137	7	10000	2	1	0	2	0
21	138	7	10000	2	1	0	2	0
20	139	7	10000	2	1	0	2	0
20	140	7	10000	2	1	0	2	0
19	141	7	10000	2	1	0	2	0
17	142	7	10000	2	1	0	2	0
19	143	7	10000	2	1	0	2	0
20	144	7	10000	2	1	0	2	0
19	145	7	10000	2	1	0	2	0
20	146	7	10000	2	1	0	2	0
19	147	7	10000	2	1	0	2	0
17	148	7	10000	2	1	0	2	0
17	149	7	10000	2	1	0	2	0
18	150	7	10000	2	1	0	2	0
18	151	7	10000	2	1	0	2	0
17	152	7	10000	2	1	0	2	0
16	153	7	10000	2	1	0	2	0
16	154	7	10000	2	1	0	2	0
16	155	7	10000	2	1	0	2	0
17	156	7	10000	2	1	0	2	0
18	157	7	10000	2	1	0	2	0
18	158	7	10000	2	1	0	2	0
19	159	7	10000	2	1	0	2	0
18	160	7	10000	2	1	0	2	0
20	161	7	10000	2	1	0	2	0
23	162	7	10000	2	1	0	2	0
25	163	7	10000	2	1	0	2	0
27	164	7	10000	2	1	0	2	0
27	165	7	10000	2	1	0	2	0
26	166	7	10000	2	1	0	2	0
27	167	7	10000	2	1	0	2	0
29	168	7	10000	2	1	0	2	0
28	169	7	10000	2	1	0	2	0
28	170	7	10000	2	1	0	2	0
29	171	7	10000	2	1	0	2	0
29	172	7	10000	2	1	0	2	0
28	173	7	10000	2	1	0	2	0
29	174	7	10000	2	1	0	2	0
27	175	7	10000	2	1	0	2	0
27	176	7	10000	2	1	0	2	0
27	177	7	10000	2	1	0	2	0
26	178	7	10000	2	1	0	2	0
26	179	7	10000	2	1	0	2	0
26	180	7	10000	2	1	0	2	0
24	181	7	10000	2	1	0	2	0
22	182	7	10000	2	1	0	2	0
25	183	7	10000	2	1	0	2	0
24	184	7	10000	2	1	0	2	0
23	185	7	10000	2	1	0	2	0
23	186	7	10000	2	1	0	2	0
24	187	7	10000	2	1	0	2	0
25	188	7	10000	2	1	0	2	0
25	189	7	10000	2	1	0	2	0
26	190	7	10000	2	1	0	2	0
26	191	7	10000	2	1	0	2	0
28	192	7	10000	2	1	0	2	0
27	193	7	10000	2	1	0	2	0
26	194	7	10000	2	1	0	2	0
25	195	7	10000	2	1	0	2	0
24	196	7	10000	2	1	0	2	0
24	197	7	10000	2	1	0	2	0
23	198	7	10000	2	1	0	2	0
24	199	7	10000	2	1	0	2	0
24	200	7	10000	2	1	0	2	0
24	201	7	10000	2	1	0	2	0
24	202	7	10000	2	1	0	2	0
25	203	7	10000	2	1	0	2	0
24	204	7	10000	2	1	0	2	0
24	205	7	10000	2	1	0	2	0
25	206	7	10000	2	1	0	2	0
25	207	7	10000	2	1	0	2	0
25	208	7	10000	2	1	0	2	0
24	209	7	10000	2	1	0	2	0
25	210	7	10000	2	1	0	2	0
27	211	7	10000	2	1	0	2	0
28	212	7	10000	2	1	0	2	0
26	213	7	10000	2	1	0	2	0
28	214	7	10000	2	1	0	2	0
29	215	7	10000	2	1	0	2	0
28	216	7	10000	2	1	0	2	0
29	217	7	10000	2	1	0	2	0
32	218	7	10000	2	1	0	2	0
34	219	7	10000	2	1	0	2	0
35	220	7	10000	2	1	0	2	0
36	221	7	10000	2	1	0	2	0
37	222	7	10000	2	1	0	2	0
39	223	7	10000	2	1	0	2	0
38	224	7	10000	2	1	0	2	0
37	225	7	10000	2	1	0	2	0
36	226	7	10000	2	1	0	2	0
35	227	7	10000	2	1	0	2	0
33	228	7	10000	2	1	0	2	0
32	229	7	10000	2	1	0	2	0
33	230	7	10000	2	1	0	2	0
33	231	7	10000	2	1	0	2	0
32	232	7	10000	2	1	0	2	0
31	233	7	10000	2	1	0	2	0
31	234	7	10000	2	1	0	2	0
31	235	7	10000	2	1	0	2	0
32	236	7	10000	2	1	0	2	0
31	237	7	10000	2	1	0	2	0
30	238	7	10000	2	1	0	2	0
29	239	7	10000	2	1	0	2	0
27	240	7	10000	2	1	0	2	0
26	241	7	10000	2	1	0	2	0
25	242	7	10000	2	1	0	2	0
25	243	7	10000	2	1	0	2	0
25	244	7	10000	2	1	0	2	0
24	245	7	10000	2	1	0	2	0
23	246	7	10000	2	1	0	2	0
22	247	7	10000	2	1	0	2	0
21	248	7	10000	2	1	0	2	0
20	249	7	10000	2	1	0	2	0
20	250	7	10000	2	1	0	2	0
23	251	7	10000	2	1	0	2	0
26	252	7	10000	2	1	0	2	0
24	253	7	10000	2	1	0	2	0
24	254	7	10000	2	1	0	2	0
24	255	7	10000	2	1	0	2	0
24	256	7	10000	2	1	0	2	0
24	257	7	10000	2	1	0	2	0
24	258	7	10000	2	1	0	2	0
24	259	7	10000	2	1	0	2	0
22	260	7	10000	2	1	0	2	0
21	261	7	10000	2	1	0	2	0
21	262	7	10000	2	1	0	2	0
25	263	7	10000	2	1	0	2	0
26	264	7	10000	2	1	0	2	0
26	265	7	10000	2	1	0	2	0
26	266	7	10000	2	1	0	2	0
25	267	7	10000	2	1	0	2	0
23	268	7	10000	2	1	0	2	0
22	269	7	10000	2	1	0	2	0
22	270	7	10000	2	1	0	2	0
22	271	7	10000	2	1	0	2	0
23	272	7	10000	2	1	0	2	0
20	273	7	10000	2	1	0	2	0
20	274	7	10000	2	1	0	2	0
23	275	7	10000	2	1	0	2	0
24	276	7	10000	2	1	0	2	0
23	277	7	10000	2	1	0	2	0
24	278	7	10000	2	1	0	2	0
27	279	7	10000	2	1	0	2	0
29	280	7	10000	2	1	0	2	0
29	281	7	10000	2	1	0	2	0
30	282	7	10000	2	1	0	2	0
31	283	7	10000	2	1	0	2	0
30	284	7	10000	2	1	0	2	0
29	285	7	10000	2	1	0	2	0
27	286	7	10000	2	1	0	2	0
27	287	7	10000	2	1	0	2	0
25	288	7	10000	2	1	0	2	0
25	289	7	10000	2	1	0	2	0
25	290	7	10000	2	1	0	2	0
25	291	7	10000	2	1	0	2	0
25	292	7	10000	2	1	0	2	0
24	293	7	10000	2	1	0	2	0
25	294	7	10000	2	1	0	2	0
27	295	7	10000	2	1	0	2	0
26	296	7	10000	2	1	0	2	0
27	297	7	10000	2	1	0	2	0
29	298	7	10000	2	1	0	2	0
30	299	7	10000	2	1	0	2	0
31	300	7	10000	2	1	0	2	0
32	301	7	10000	2	1	0	2	0
30	302	7	10000	2	1	0	2	0
33	303	7	10000	2	1	0	2	0
33	304	7	10000	2	1	0	2	0
37	305	7	10000	2	1	0	2	0
45	306	7	10000	2	1	0	2	0
59	307	7	10000	2	1	0	2	0
73	308	7	10000	2	1	0	2	0
87	309	7	10000	2	1	0	2	0
94	310	7	10000	2	1	0	2	0
93	311	7	10000	2	1	0	2	0
96	312	7	10000	2	1	0	2	0
101	313	7	10000	2	1	0	2	0
100	314	7	10000	2	1	0	2	0
106	315	7	10000	2	1	0	2	0
111	316	7	10000	2	1	0	2	0
107	317	7	10000	2	1	0	2	0
109	318	7	10000	2	1	0	2	0
115	319	7	10000	2	1	0	2	0
111	320	7	10000	2	1	0	2	0
107	321	7	10000	2	1	0	2	0
106	322	7	10000	2	1	0	2	0
113	323	7	10000	2	1	0	2	0
124	324	7	10000	2	1	0	2	0
138	325	7	10000	2	1	0	2	0
148	326	7	10000	2	1	0	2	0
156	327	7	10000	2	1	0	2	0
162	328	7	10000	2	1	0	2	0
162	329	7	10000	2	1	0	2	0
165	330	7	10000	2	1	0	2	0
163	331	7	10000	2	1	0	2	0
158	332	7	10000	2	1	0	2	0
153	333	7	10000	2	1	0	2	0
156	334	7	10000	2	1	0	2	0
165	335	7	10000	2	1	0	2	0
185	336	7	10000	2	1	0	2	0
195	337	7	10000	2	1	0	2	0
191	338	7	10000	2	1	0	2	0
187	339	7	10000	2	1	0	2	0
181	340	7	10000	2	1	0	2	0
175	341	7	10000	2	1	0	2	0
177	342	7	10000	2	1	0	2	0
186	343	7	10000	2	1	0	2	0
188	344	7	10000	2	1	0	2	0
184	345	7	10000	2	1	0	2	0
179	346	7	10000	2	1	0	2	0
173	347	7	10000	2	1	0	2	0
177	348	7	10000	2	1	0	2	0
184	349	7	10000	2	1	0	2	0
180	350	7	10000	2	1	0	2	0
174	351	7	10000	2	1	0	2	0
174	352	7	10000	2	1	0	2	0
172	353	7	10000	2	1	0	2	0
172	354	7	10000	2	1	0	2	0
171	355	7	10000	2	1	0	2	0
167	356	7	10000	2	1	0	2	0
160	357	7	10000	2	1	0	2	0
157	358	7	10000	2	1	0	2	0
155	359	7	10000	2	1	0	2	0
151	360	7	10000	2	1	0	2	0
148	361	7	10000	2	1	0	2	0
145	362	7	10000	2	1	0	2	0
145	363	7	10000	2	1	0	2	0
143	364	7	10000	2	1	0	2	0
141	365	7	10000	2	1	0	2	0
136	366	7	10000	2	1	0	2	0
131	367	7	10000	2	1	0	2	0
130	368	7	10000	2	1	0	2	0
138	369	7	10000	2	1	0	2	0
145	370	7	10000	2	1	0	2	0
143	371	7	10000	2	1	0	2	0
146	372	7	10000	2	1	0	2	0
150	373	7	10000	2	1	0	2	0
157	374	7	10000	2	1	0	2	0
159	375	7	10000	2	1	0	2	0
157	376	7	10000	2	1	0	2	0
157	377	7	10000	2	1	0	2	0
155	378	7	10000	2	1	0	2	0
150	379	7	10000	2	1	0	2	0
144	380	7	10000	2	1	0	2	0
140	381	7	10000	2	1	0	2	0
135	382	7	10000	2	1	0	2	0
133	383	7	10000	2	1	0	2	0
128	384	7	10000	2	1	0	2	0
125	385	7	10000	2	1	0	2	0
126	386	7	10000	2	1	0	2	0
127	387	7	10000	2	1	0	2	0
125	388	7	10000	2	1	0	2	0
123	389	7	10000	2	1	0	2	0
122	390	7	10000	2	1	0	2	0
120	391	7	10000	2	1	0	2	0
116	392	7	10000	2	1	0	2	0
110	393	7	10000	2	1	0	2	0
107	394	7	10000	2	1	0	2	0
106	395	7	10000	2	1	0	2	0
104	396	7	10000	2	1	0	2	0
101	397	7	10000	2	1	0	2	0
101	398	7	10000	2	1	0	2	0
103	399	7	10000	2	1	0	2	0
107	400	7	10000	2	1	0	2	0
108	401	7	10000	2	1	0	2	0
105	402	7	10000	2	1	0	2	0
104	403	7	10000	2	1	0	2	0
102	404	7	10000	2	1	0	2	0
99	405	7	10000	2	1	0	2	0
95	406	7	10000	2	1	0	2	0
93	407	7	10000	2	1	0	2	0
94	408	7	10000	2	1	0	2	0
94	409	7	10000	2	1	0	2	0
97	410	7	10000	2	1	0	2	0
97	411	7	10000	2	1	0	2	0
95	412	7	10000	2	1	0	2	0
88	413	7	10000	2	1	0	2	0
84	414	7	10000	2	1	0	2	0
83	415	7	10000	2	1	0	2	0
83	416	7	10000	2	1	0	2	0
81	417	7	10000	2	1	0	2	0
82	418	7	10000	2	1	0	2	0
83	419	7	10000	2	1	0	2	0
84	420	7	10000	2	1	0	2	0
82	421	7	10000	2	1	0	2	0
79	422	7	10000	2	1	0	2	0
78	423	7	10000	2	1	0	2	0
74	424	7	10000	2	1	0	2	0
72	425	7	10000	2	1	0	2	0
70	426	7	10000	2	1	0	2	0
72	427	7	10000	2	1	0	2	0
76	428	7	10000	2	1	0	2	0
77	429	7	10000	2	1	0	2	0
77	430	7	10000	2	1	0	2	0
74	431	7	10000	2	1	0	2	0
75	432	7	10000	2	1	0	2	0
72	433	7	10000	2	1	0	2	0
70	434	7	10000	2	1	0	2	0
69	435	7	10000	2	1	0	2	0
67	436	7	10000	2	1	0	2	0
68	437	7	10000	2	1	0	2	0
68	438	7	10000	2	1	0	2	0
70	439	7	10000	2	1	0	2	0
70	440	7	10000	2	1	0	2	0
69	441	7	10000	2	1	0	2	0
66	442	7	10000	2	1	0	2	0
67	443	7	10000	2	1	0	2	0
69	444	7	10000	2	1	0	2	0
69	445	7	10000	2	1	0	2	0
67	446	7	10000	2	1	0	2	0
65	447	7	10000	2	1	0	2	0
65	448	7	10000	2	1	0	2	0
65	449	7	10000	2	1	0	2	0
63	450	7	10000	2	1	0	2	0
60	451	7	10000	2	1	0	2	0
59	452	7	10000	2	1	0	2	0
56	453	7	10000	2	1	0	2	0
55	454	7	10000	2	1	0	2	0
56	455	7	10000	2	1	0	2	0
54	456	7	10000	2	1	0	2	0
53	457	7	10000	2	1	0	2	0
51	458	7	10000	2	1	0	2	0
49	459	7	10000	2	1	0	2	0
47	460	7	10000	2	1	0	2	0
46	461	7	10000	2	1	0	2	0
44	462	7	10000	2	1	0	2	0
46	463	7	10000	2	1	0	2	0
45	464	7	10000	2	1	0	2	0
44	465	7	10000	2	1	0	2	0
42	466	7	10000	2	1	0	2	0
41	467	7	10000	2	1	0	2	0
41	468	7	10000	2	1	0	2	0
41	469	7	10000	2	1	0	2	0
41	470	7	10000	2	1	0	2	0
40	471	7	10000	2	1	0	2	0
39	472	7	10000	2	1	0	2	0
36	473	7	10000	2	1	0	2	0
34	474	7	10000	2	1	0	2	0
33	475	7	10000	2	1	0	2	0
32	476	7	10000	2	1	0	2	0
31	477	7	10000	2	1	0	2	0
30	478	7	10000	2	1	0	2	0
32	479	7	10000	2	1	0	2	0
30	480	7	10000	2	1	0	2	0
28	481	7	10000	2	1	0	2	0
29	482	7	10000	2	1	0	2	0
31	483	7	10000	2	1	0	2	0
33	484	7	10000	2	1	0	2	0
34	485	7	10000	2	1	0	2	0
33	486	7	10000	2	1	0	2	0
33	487	7	10000	2	1	0	2	0
32	488	7	10000	2	1	0	2	0
30	489	7	10000	2	1	0	2	0
30	490	7	10000	2	1	0	2	0
31	491	7	10000	2	1	0	2	0
31	492	7	10000	2	1	0	2	0
28	493	7	10000	2	1	0	2	0
30	494	7	10000	2	1	0	2	0
32	495	7	10000	2	1	0	2	0
34	496	7	10000	2	1	0	2	0
35	497	7	10000	2	1	0	2	0
34	498	7	10000	2	1	0	2	0
34	499	7	10000	2	1	0	2	0
34	500	7	10000	2	1	0	2	0
34	501	7	10000	2	1	0	2	1
34	502	7	10000	2	1	0	2	1
36	503	7	10000	2	1	0	2	1
35	504	7	10000	2	1	0	2	1
34	505	7	10000	2	1	0	2	1
33	506	7	10000	2	1	0	2	1
32	507	7	10000	2	1	0	2	1
32	508	7	10000	2	1	0	2	1
32	509	7	10000	2	1	0	2	1
33	510	7	10000	2	1	0	2	1
33	511	7	10000	2	1	0	2	1
34	512	7	10000	2	1	0	2	1
32	513	7	10000	2	1	0	2	1
31	514	7	10000	2	1	0	2	1
31	515	7	10000	2	1	0	2	1
30	516	7	10000	2	1	0	2	1
31	517	7	10000	2	1	0	2	1
31	518	7	10000	2	1	0	2	1
31	519	7	10000	2	1	0	2	1
30	520	7	10000	2	1	0	2	1
29	521	7	10000	2	1	0	2	1
28	522	7	10000	2	1	0	2	1
29	523	7	10000	2	1	0	2	1
30	524	7	10000	2	1	0	2	1
28	525	7	10000	2	1	0	2	1
29	526	7	10000	2	1	0	2	1
29	527	7	10000	2	1	0	2	1
29	528	7	10000	2	1	0	2	1
30	529	7	10000	2	1	0	2	1
31	530	7	10000	2	1	0	2	1
31	531	7	10000	2	1	0	2	1
32	532	7	10000	2	1	0	2	1
33	533	7	10000	2	1	0	2	1
37	534	7	10000	2	1	0	2	1
40	535	7	10000	2	1	0	2	1
43	536	7	10000	2	1	0	2	1
45	537	7	10000	2	1	0	2	1
45	538	7	10000	2	1	0	2	1
43	539	7	10000	2	1	0	2	1
41	540	7	10000	2	1	0	2	1
39	541	7	10000	2	1	0	2	1
37	542	7	10000	2	1	0	2	1
39	543	7	10000	2	1	0	2	1
37	544	7	10000	2	1	0	2	1
36	545	7	10000	2	1	0	2	1
38	546	7	10000	2	1	0	2	1
39	547	7	10000	2	1	0	2	1
40	548	7	10000	2	1	0	2	1
39	549	7	10000	2	1	0	2	1
40	550	7	10000	2	1	0	2	1
40	551	7	10000	2	1	0	2	0
43	552	7	10000	2	1	0	2	0
42	553	7	10000	2	1	0	2	0
41	554	7	10000	2	1	0	2	0
41	555	7	10000	2	1	0	2	0
41	556	7	10000	2	1	0	2	0
41	557	7	10000	2	1	0	2	0
40	558	7	10000	2	1	0	2	0
40	559	7	10000	2	1	0	2	0
38	560	7	10000	2	1	0	2	0
37	561	7	10000	2	1	0	2	0
36	562	7	10000	2	1	0	2	0
39	563	7	10000	2	1	0	2	0
39	564	7	10000	2	1	0	2	0
39	565	7	10000	2	1	0	2	0
38	566	7	10000	2	1	0	2	0
39	567	7	10000	2	1	0	2	0
37	568	7	10000	2	1	0	2	0
38	569	7	10000	2	1	0	2	0
41	570	7	10000	2	1	0	2	0
43	571	7	10000	2	1	0	2	0
46	572	7	10000	2	1	0	2	0
48	573	7	10000	2	1	0	2	0
50	574	7	10000	2	1	0	2	0
53	575	7	10000	2	1	0	2	0
56	576	7	10000	2	1	0	2	0
59	577	7	10000	2	1	0	2	0
60	578	7	10000	2	1	0	2	0
64	579	7	10000	2	1	0	2	0
71	580	7	10000	2	1	0	2	0
83	581	7	10000	2	1	0	2	0
94	582	7	10000	2	1	0	2	0
109	583	7	10000	2	1	0	2	0
124	584	7	10000	2	1	0	2	0
138	585	7	10000	2	1	0	2	0
138	586	7	10000	2	1	0	2	0
138	587	7	10000	2	1	0	2	0
137	588	7	10000	2	1	0	2	0
143	589	7	10000	2	1	0	2	0
154	590	7	10000	2	1	0	2	0
164	591	7	10000	2	1	0	2	0
164	592	7	10000	2	1	0	2	0
171	593	7	10000	2	1	0	2	0
183	594	7	10000	2	1	0	2	0
257	595	7	10000	2	1	0	2	0
356	596	7	10000	2	1	0	2	0
420	597	7	10000	2	1	0	2	0
430	598	7	10000	2	1	0	2	0
498	599	7	10000	2	1	0	2	0
552	600	7	10000	2	1	0	2	0
616	601	7	10000	2	1	0	2	0
665	602	7	10000	2	1	0	2	0
683	603	7	10000	2	1	0	2	0
709	604	7	10000	2	1	0	2	0
697	605	7	10000	2	1	0	2	0
736	606	7	10000	2	1	0	2	0
804	607	7	10000	2	1	0	2	0
844	608	7	10000	2	1	0	2	0
840	609	7	10000	2	1	0	2	0
860	610	7	10000	2	1	0	2	0
834	611	7	10000	2	1	0	2	0
815	612	7	10000	2	1	0	2	0
808	613	7	10000	2	1	0	2	0
781	614	7	10000	2	1	0	2	0
764	615	7	10000	2	1	0	2	0
750	616	7	10000	2	1	0	2	0
749	617	7	10000	2	1	0	2	0
758	618	7	10000	2	1	0	2	0
755	619	7	10000	2	1	0	2	0
733	620	7	10000	2	1	0	2	0
706	621	7	10000	2	1	0	2	0
674	622	7	10000	2	1	0	2	0
660	623	7	10000	2	1	0	2	0
660	624	7	10000	2	1	0	2	0
667	625	7	10000	2	1	0	2	0
670	626	7	10000	2	1	0	2	0
668	627	7	10000	2	1	0	2	0
661	628	7	10000	2	1	0	2	0
654	629	7	10000	2	1	0	2	0
646	630	7	10000	2	1	0	2	0
635	631	7	10000	2	1	0	2	0
622	632	7	10000	2	1	0	2	0
606	633	7	10000	2	1	0	2	0
591	634	7	10000	2	1	0	2	0
575	635	7	10000	2	1	0	2	0
562	636	7	10000	2	1	0	2	0
546	637	7	10000	2	1	0	2	0
528	638	7	10000	2	1	0	2	0
508	639	7	10000	2	1	0	2	0
486	640	7	10000	2	1	0	2	0
464	641	7	10000	2	1	0	2	0
444	642	7	10000	2	1	0	2	0
430	643	7	10000	2	1	0	2	0
415	644	7	10000	2	1	0	2	0
399	645	7	10000	2	1	0	2	0
379	646	7	10000	2	1	0	2	0
362	647	7	10000	2	1	0	2	0
349	648	7	10000	2	1	0	2	0
342	649	7	10000	2	1	0	2	0
340	650	7	10000	2	1	0	2	0
339	651	7	10000	2	1	0	2	0
337	652	7	10000	2	1	0	2	0
332	653	7	10000	2	1	0	2	0
331	654	7	10000	2	1	0	2	0
330	655	7	10000	2	1	0	2	0
330	656	7	10000	2	1	0	2	0
330	657	7	10000	2	1	0	2	0
329	658	7	10000	2	1	0	2	0
326	659	7	10000	2	1	0	2	0
323	660	7	10000	2	1	0	2	0
319	661	7	10000	2	1	0	2	0
314	662	7	10000	2	1	0	2	0
311	663	7	10000	2	1	0	2	0
306	664	7	10000	2	1	0	2	0
299	665	7	10000	2	1	0	2	0
294	666	7	10000	2	1	0	2	0
284	667	7	10000	2	1	0	2	0
278	668	7	10000	2	1	0	2	0
270	669	7	10000	2	1	0	2	0
275	670	7	10000	2	1	0	2	0
285	671	7	10000	2	1	0	2	0
291	672	7	10000	2	1	0	2	0
289	673	7	10000	2	1	0	2	0
284	674	7	10000	2	1	0	2	0
278	675	7	10000	2	1	0	2	0
270	676	7	10000	2	1	0	2	0
260	677	7	10000	2	1	0	2	0
251	678	7	10000	2	1	0	2	0
247	679	7	10000	2	1	0	2	0
241	680	7	10000	2	1	0	2	0
231	681	7	10000	2	1	0	2	0
234	682	7	10000	2	1	0	2	0
254	683	7	10000	2	1	0	2	0
261	684	7	10000	2	1	0	2	0
253	685	7	10000	2	1	0	2	0
259	686	7	10000	2	1	0	2	0
268	687	7	10000	2	1	0	2	0
271	688	7	10000	2	1	0	2	0
272	689	7	10000	2	1	0	2	0
267	690	7	10000	2	1	0	2	0
258	691	7	10000	2	1	0	2	0
249	692	7	10000	2	1	0	2	0
241	693	7	10000	2	1	0	2	0
237	694	7	10000	2	1	0	2	0
231	695	7	10000	2	1	0	2	0
221	696	7	10000	2	1	0	2	0
212	697	7	10000	2	1	0	2	0
206	698	7	10000	2	1	0	2	0
205	699	7	10000	2	1	0	2	0
205	700	7	10000	2	1	0	2	0
207	701	7	10000	2	1	0	2	0
202	702	7	10000	2	1	0	2	0
197	703	7	10000	2	1	0	2	0
189	704	7	10000	2	1	0	2	0
184	705	7	10000	2	1	0	2	0
184	706	7	10000	2	1	0	2	0
182	707	7	10000	2	1	0	2	0
180	708	7	10000	2	1	0	2	0
180	709	7	10000	2	1	0	2	0
178	710	7	10000	2	1	0	2	0
172	711	7	10000	2	1	0	2	0
166	712	7	10000	2	1	0	2	0
158	713	7	10000	2	1	0	2	0
157	714	7	10000	2	1	0	2	0
160	715	7	10000	2	1	0	2	0
156	716	7	10000	2	1	0	2	0
157	717	7	10000	2	1	0	2	0
162	718	7	10000	2	1	0	2	0
159	719	7	10000	2	1	0	2	0
152	720	7	10000	2	1	0	2	0
146	721	7	10000	2	1	0	2	0
140	722	7	10000	2	1	0	2	0
137	723	7	10000	2	1	0	2	0
142	724	7	10000	2	1	0	2	0
150	725	7	10000	2	1	0	2	0
154	726	7	10000	2	1	0	2	0
153	727	7	10000	2	1	0	2	0
146	728	7	10000	2	1	0	2	0
142	729	7	10000	2	1	0	2	0
138	730	7	10000	2	1	0	2	0
133	731	7	10000	2	1	0	2	0
131	732	7	10000	2	1	0	2	0
128	733	7	10000	2	1	0	2	0
125	734	7	10000	2	1	0	2	0
121	735	7	10000	2	1	0	2	0
116	736	7	10000	2	1	0	2	0
115	737	7	10000	2	1	0	2	0
112	738	7	10000	2	1	0	2	0
109	739	7	10000	2	1	0	2	0
108	740	7	10000	2	1	0	2	0
108	741	7	10000	2	1	0	2	0
109	742	7	10000	2	1	0	2	0
114	743	7	10000	2	1	0	2	0
116	744	7	10000	2	1	0	2	0
120	745	7	10000	2	1	0	2	0
125	746	7	10000	2	1	0	2	0
123	747	7	10000	2	1	0	2	0
121	748	7	10000	2	1	0	2	0
123	749	7	10000	2	1	0	2	0
126	750	7	10000	2	1	0	2	0
125	751	7	10000	2	1	0	2	0
123	752	7	10000	2	1	0	2	0
122	753	7	10000	2	1	0	2	0
124	754	7	10000	2	1	0	2	0
123	755	7	10000	2	1	0	2	0
124	756	7	10000	2	1	0	2	0
121	757	7	10000	2	1	0	2	0
118	758	7	10000	2	1	0	2	0
116	759	7	10000	2	1	0	2	0
115	760	7	10000	2	1	0	2	0
111	761	7	10000	2	1	0	2	0
109	762	7	10000	2	1	0	2	0
112	763	7	10000	2	1	0	2	0
123	764	7	10000	2	1	0	2	0
132	765	7	10000	2	1	0	2	0
131	766	7	10000	2	1	0	2	0
134	767	7	10000	2	1	0	2	0
138	768	7	10000	2	1	0	2	0
149	769	7	10000	2	1	0	2	0
152	770	7	10000	2	1	0	2	0
149	771	7	10000	2	1	0	2	0
153	772	7	10000	2	1	0	2	0
155	773	7	10000	2	1	0	2	0
158	774	7	10000	2	1	0	2	0
156	775	7	10000	2	1	0	2	0
152	776	7	10000	2	1	0	2	0
150	777	7	10000	2	1	0	2	0
145	778	7	10000	2	1	0	2	0
140	779	7	10000	2	1	0	2	0
134	780	7	10000	2	1	0	2	0
135	781	7	10000	2	1	0	2	0
140	782	7	10000	2	1	0	2	0
147	783	7	10000	2	1	0	2	0
148	784	7	10000	2	1	0	2	0
142	785	7	10000	2	1	0	2	0
138	786	7	10000	2	1	0	2	0
133	787	7	10000	2	1	0	2	0
129	788	7	10000	2	1	0	2	0
125	789	7	10000	2	1	0	2	0
120	790	7	10000	2	1	0	2	0
116	791	7	10000	2	1	0	2	0
111	792	7	10000	2	1	0	2	0
107	793	7	10000	2	1	0	2	0
108	794	7	10000	2	1	0	2	0
108	795	7	10000	2	1	0	2	0
108	796	7	10000	2	1	0	2	0
111	797	7	10000	2	1	0	2	0
113	798	7	10000	2	1	0	2	0
110	799	7	10000	2	1	0	2	0
106	800	7	10000	2	1	0	2	0
108	801	7	10000	2	1	0	2	0
108	802	7	10000	2	1	0	2	0
106	803	7	10000	2	1	0	2	0
109	804	7	10000	2	1	0	2	0
115	805	7	10000	2	1	0	2	0
116	806	7	10000	2	1	0	2	0
114	807	7	10000	2	1	0	2	0
110	808	7	10000	2	1	0	2	0
106	809	7	10000	2	1	0	2	0
104	810	7	10000	2	1	0	2	0
102	811	7	10000	2	1	0	2	0
112	812	7	10000	2	1	0	2	0
124	813	7	10000	2	1	0	2	0
128	814	7	10000	2	1	0	2	0
128	815	7	10000	2	1	0	2	0
139	816	7	10000	2	1	0	2	0
151	817	7	10000	2	1	0	2	0
156	818	7	10000	2	1	0	2	0
152	819	7	10000	2	1	0	2	0
150	820	7	10000	2	1	0	2	0
147	821	7	10000	2	1	0	2	0
143	822	7	10000	2	1	0	2	0
163	823	7	10000	2	1	0	2	0
178	824	7	10000	2	1	0	2	0
176	825	7	10000	2	1	0	2	0
203	826	7	10000	2	1	0	2	0
221	827	7	10000	2	1	0	2	0
246	828	7	10000	2	1	0	2	0
303	829	7	10000	2	1	0	2	0
370	830	7	10000	2	1	0	2	0
380	831	7	10000	2	1	0	2	0
432	832	7	10000	2	1	0	2	0
488	833	7	10000	2	1	0	2	0
515	834	7	10000	2	1	0	2	0
503	835	7	10000	2	1	0	2	0
487	836	7	10000	2	1	0	2	0
482	837	7	10000	2	1	0	2	0
475	838	7	10000	2	1	0	2	0
463	839	7	10000	2	1	0	2	0
444	840	7	10000	2	1	0	2	0
425	841	7	10000	2	1	0	2	0
407	842	7	10000	2	1	0	2	0
392	843	7	10000	2	1	0	2	0
376	844	7	10000	2	1	0	2	0
363	845	7	10000	2	1	0	2	0
351	846	7	10000	2	1	0	2	0
339	847	7	10000	2	1	0	2	0
328	848	7	10000	2	1	0	2	0
318	849	7	10000	2	1	0	2	0
309	850	7	10000	2	1	0	2	0
296	851	7	10000	2	1	0	2	0
283	852	7	10000	2	1	0	2	0
269	853	7	10000	2	1	0	2	0
257	854	7	10000	2	1	0	2	0
248	855	7	10000	2	1	0	2	0
246	856	7	10000	2	1	0	2	0
250	857	7	10000	2	1	0	2	0
248	858	7	10000	2	1	0	2	0
237	859	7	10000	2	1	0	2	0
227	860	7	10000	2	1	0	2	0
220	861	7	10000	2	1	0	2	0
215	862	7	10000	2	1	0	2	0
221	863	7	10000	2	1	0	2	0
235	864	7	10000	2	1	0	2	0
243	865	7	10000	2	1	0	2	0
236	866	7	10000	2	1	0	2	0
244	867	7	10000	2	1	0	2	0
267	868	7	10000	2	1	0	2	0
277	869	7	10000	2	1	0	2	0
270	870	7	10000	2	1	0	2	0
273	871	7	10000	2	1	0	2	0
282	872	7	10000	2	1	0	2	0
274	873	7	10000	2	1	0	2	0
278	874	7	10000	2	1	0	2	0
285	875	7	10000	2	1	0	2	0
286	876	7	10000	2	1	0	2	0
280	877	7	10000	2	1	0	2	0
273	878	7	10000	2	1	0	2	0
261	879	7	10000	2	1	0	2	0
250	880	7	10000	2	1	0	2	0
242	881	7	10000	2	1	0	2	0
234	882	7	10000	2	1	0	2	0
232	883	7	10000	2	1	0	2	0
225	884	7	10000	2	1	0	2	0
225	885	7	10000	2	1	0	2	0
221	886	7	10000	2	1	0	2	0
213	887	7	10000	2	1	0	2	0
204	888	7	10000	2	1	0	2	0
201	889	7	10000	2	1	0	2	0
196	890	7	10000	2	1	0	2	0
189	891	7	10000	2	1	0	2	0
182	892	7	10000	2	1	0	2	0
172	893	7	10000	2	1	0	2	0
167	894	7	10000	2	1	0	2	0
166	895	7	10000	2	1	0	2	0
160	896	7	10000	2	1	0	2	0
156	897	7	10000	2	1	0	2	0
152	898	7	10000	2	1	0	2	0
151	899	7	10000	2	1	0	2	0
149	900	7	10000	2	1	0	2	0
144	901	7	10000	2	1	0	2	0
138	902	7	10000	2	1	0	2	0
136	903	7	10000	2	1	0	2	0
134	904	7	10000	2	1	0	2	0
135	905	7	10000	2	1	0	2	0
145	906	7	10000	2	1	0	2	0
156	907	7	10000	2	1	0	2	0
159	908	7	10000	2	1	0	2	0
153	909	7	10000	2	1	0	2	0
152	910	7	10000	2	1	0	2	0
156	911	7	10000	2	1	0	2	0
152	912	7	10000	2	1	0	2	0
144	913	7	10000	2	1	0	2	0
139	914	7	10000	2	1	0	2	0
139	915	7	10000	2	1	0	2	0
142	916	7	10000	2	1	0	2	0
146	917	7	10000	2	1	0	2	0
144	918	7	10000	2	1	0	2	0
140	919	7	10000	2	1	0	2	0
135	920	7	10000	2	1	0	2	0
130	921	7	10000	2	1	0	2	0
129	922	7	10000	2	1	0	2	0
129	923	7	10000	2	1	0	2	0
124	924	7	10000	2	1	0	2	0
119	925	7	10000	2	1	0	2	0
120	926	7	10000	2	1	0	2	0
118	927	7	10000	2	1	0	2	0
120	928	7	10000	2	1	0	2	0
133	929	7	10000	2	1	0	2	0
141	930	7	10000	2	1	0	2	0
140	931	7	10000	2	1	0	2	0
145	932	7	10000	2	1	0	2	0
171	933	7	10000	2	1	0	2	0
177	934	7	10000	2	1	0	2	0
181	935	7	10000	2	1	0	2	0
190	936	7	10000	2	1	0	2	0
195	937	7	10000	2	1	0	2	0
224	938	7	10000	2	1	0	2	0
249	939	7	10000	2	1	0	2	0
262	940	7	10000	2	1	0	2	0
267	941	7	10000	2	1	0	2	0
267	942	7	10000	2	1	0	2	0
267	943	7	10000	2	1	0	2	0
264	944	7	10000	2	1	0	2	0
262	945	7	10000	2	1	0	2	0
262	946	7	10000	2	1	0	2	0
255	947	7	10000	2	1	0	2	0
245	948	7	10000	2	1	0	2	0
234	949	7	10000	2	1	0	2	0
226	950	7	10000	2	1	0	2	0
217	951	7	10000	2	1	0	2	0
213	952	7	10000	2	1	0	2	0
209	953	7	10000	2	1	0	2	0
206	954	7	10000	2	1	0	2	0
203	955	7	10000	2	1	0	2	0
199	956	7	10000	2	1	0	2	0
195	957	7	10000	2	1	0	2	0
193	958	7	10000	2	1	0	2	0
189	959	7	10000	2	1	0	2	0
182	960	7	10000	2	1	0	2	0
176	961	7	10000	2	1	0	2	0
171	962	7	10000	2	1	0	2	0
167	963	7	10000	2	1	0	2	0
161	964	7	10000	2	1	0	2	0
155	965	7	10000	2	1	0	2	0
151	966	7	10000	2	1	0	2	0
147	967	7	10000	2	1	0	2	0
143	968	7	10000	2	1	0	2	0
139	969	7	10000	2	1	0	2	0
137	970	7	10000	2	1	0	2	0
137	971	7	10000	2	1	0	2	0
136	972	7	10000	2	1	0	2	0
128	973	7	10000	2	1	0	2	0
122	974	7	10000	2	1	0	2	0
117	975	7	10000	2	1	0	2	0
113	976	7	10000	2	1	0	2	0
107	977	7	10000	2	1	0	2	0
104	978	7	10000	2	1	0	2	0
101	979	7	10000	2	1	0	2	0
98	980	7	10000	2	1	0	2	0
94	981	7	10000	2	1	0	2	0
92	982	7	10000	2	1	0	2	0
91	983	7	10000	2	1	0	2	0
89	984	7	10000	2	1	0	2	0
92	985	7	10000	2	1	0	2	0
106	986	7	10000	2	1	0	2	0
114	987	7	10000	2	1	0	2	0
116	988	7	10000	2	1	0	2	0
123	989	7	10000	2	1	0	2	0
137	990	7	10000	2	1	0	2	0
153	991	7	10000	2	1	0	2	0
160	992	7	10000	2	1	0	2	0
154	993	7	10000	2	1	0	2	0
154	994	7	10000	2	1	0	2	0
155	995	7	10000	2	1	0	2	0
156	996	7	10000	2	1	0	2	0
154	997	7	10000	2	1	0	2	0
151	998	7	10000	2	1	0	2	0
146	999	7	10000	2	1	0	2	0
140	1000	7	10000	2	1	0	2	0
84	1	7	10000	3	1	0	3	0
82	2	7	10000	3	1	0	3	0
83	3	7	10000	3	1	0	3	0
85	4	7	10000	3	1	0	3	0
83	5	7	10000	3	1	0	3	0
80	6	7	10000	3	1	0	3	0
78	7	7	10000	3	1	0	3	0
75	8	7	10000	3	1	0	3	0
73	9	7	10000	3	1	0	3	0
76	10	7	10000	3	1	0	3	0
80	11	7	10000	3	1	0	3	0
79	12	7	10000	3	1	0	3	0
76	13	7	10000	3	1	0	3	0
72	14	7	10000	3	1	0	3	0
71	15	7	10000	3	1	0	3	0
72	16	7	10000	3	1	0	3	0
73	17	7	10000	3	1	0	3	0
72	18	7	10000	3	1	0	3	0
69	19	7	10000	3	1	0	3	0
70	20	7	10000	3	1	0	3	0
72	20	7	10000	3	1	0	3	0
71	21	7	10000	3	1	0	3	0
68	23	7	10000	3	1	0	3	0
68	24	7	10000	3	1	0	3	0
70	25	7	10000	3	1	0	3	0
73	26	7	10000	3	1	0	3	0
71	27	7	10000	3	1	0	3	0
70	28	7	10000	3	1	0	3	0
75	29	7	10000	3	1	0	3	0
78	30	7	10000	3	1	0	3	0
76	30	7	10000	3	1	0	3	0
75	31	7	10000	3	1	0	3	0
76	33	7	10000	3	1	0	3	0
73	34	7	10000	3	1	0	3	0
77	35	7	10000	3	1	0	3	0
76	36	7	10000	3	1	0	3	0
75	37	7	10000	3	1	0	3	0
73	38	7	10000	3	1	0	3	0
71	39	7	10000	3	1	0	3	0
68	40	7	10000	3	1	0	3	0
64	40	7	10000	3	1	0	3	0
61	41	7	10000	3	1	0	3	0
58	43	7	10000	3	1	0	3	0
59	44	7	10000	3	1	0	3	0
59	45	7	10000	3	1	0	3	0
56	46	7	10000	3	1	0	3	0
56	47	7	10000	3	1	0	3	0
57	48	7	10000	3	1	0	3	0
58	49	7	10000	3	1	0	3	0
56	50	7	10000	3	1	0	3	0
56	50	7	10000	3	1	0	3	0
56	51	7	10000	3	1	0	3	0
56	53	7	10000	3	1	0	3	0
56	54	7	10000	3	1	0	3	0
55	55	7	10000	3	1	0	3	0
53	56	7	10000	3	1	0	3	0
51	57	7	10000	3	1	0	3	0
49	58	7	10000	3	1	0	3	0
49	59	7	10000	3	1	0	3	0
48	60	7	10000	3	1	0	3	0
48	60	7	10000	3	1	0	3	0
49	61	7	10000	3	1	0	3	0
48	63	7	10000	3	1	0	3	0
52	64	7	10000	3	1	0	3	0
52	65	7	10000	3	1	0	3	0
49	66	7	10000	3	1	0	3	0
50	67	7	10000	3	1	0	3	0
51	68	7	10000	3	1	0	3	0
49	69	7	10000	3	1	0	3	0
51	70	7	10000	3	1	0	3	0
55	70	7	10000	3	1	0	3	0
54	71	7	10000	3	1	0	3	0
55	73	7	10000	3	1	0	3	0
52	74	7	10000	3	1	0	3	0
53	75	7	10000	3	1	0	3	0
54	76	7	10000	3	1	0	3	0
56	77	7	10000	3	1	0	3	0
60	78	7	10000	3	1	0	3	0
60	79	7	10000	3	1	0	3	0
59	80	7	10000	3	1	0	3	0
58	80	7	10000	3	1	0	3	0
56	81	7	10000	3	1	0	3	0
56	83	7	10000	3	1	0	3	0
58	84	7	10000	3	1	0	3	0
56	85	7	10000	3	1	0	3	0
59	86	7	10000	3	1	0	3	0
61	87	7	10000	3	1	0	3	0
60	88	7	10000	3	1	0	3	0
62	89	7	10000	3	1	0	3	0
65	90	7	10000	3	1	0	3	0
66	90	7	10000	3	1	0	3	0
64	91	7	10000	3	1	0	3	0
63	93	7	10000	3	1	0	3	0
58	94	7	10000	3	1	0	3	0
57	95	7	10000	3	1	0	3	0
58	96	7	10000	3	1	0	3	0
56	97	7	10000	3	1	0	3	0
55	98	7	10000	3	1	0	3	0
55	99	7	10000	3	1	0	3	0
53	100	7	10000	3	1	0	3	0
50	100	7	10000	3	1	0	3	0
51	101	7	10000	3	1	0	3	0
47	103	7	10000	3	1	0	3	0
49	104	7	10000	3	1	0	3	0
49	105	7	10000	3	1	0	3	0
50	106	7	10000	3	1	0	3	0
53	107	7	10000	3	1	0	3	0
54	108	7	10000	3	1	0	3	0
50	109	7	10000	3	1	0	3	0
54	110	7	10000	3	1	0	3	0
59	110	7	10000	3	1	0	3	0
60	111	7	10000	3	1	0	3	0
59	113	7	10000	3	1	0	3	0
56	114	7	10000	3	1	0	3	0
54	115	7	10000	3	1	0	3	0
53	116	7	10000	3	1	0	3	0
52	117	7	10000	3	1	0	3	0
52	118	7	10000	3	1	0	3	0
53	119	7	10000	3	1	0	3	0
52	120	7	10000	3	1	0	3	0
52	120	7	10000	3	1	0	3	0
53	121	7	10000	3	1	0	3	0
56	123	7	10000	3	1	0	3	0
61	124	7	10000	3	1	0	3	0
59	125	7	10000	3	1	0	3	0
60	126	7	10000	3	1	0	3	0
64	127	7	10000	3	1	0	3	0
69	128	7	10000	3	1	0	3	0
76	129	7	10000	3	1	0	3	0
81	130	7	10000	3	1	0	3	0
85	130	7	10000	3	1	0	3	0
86	131	7	10000	3	1	0	3	0
84	133	7	10000	3	1	0	3	0
78	134	7	10000	3	1	0	3	0
76	135	7	10000	3	1	0	3	0
75	136	7	10000	3	1	0	3	0
73	137	7	10000	3	1	0	3	0
71	138	7	10000	3	1	0	3	0
69	139	7	10000	3	1	0	3	0
67	140	7	10000	3	1	0	3	0
64	140	7	10000	3	1	0	3	0
65	141	7	10000	3	1	0	3	0
67	143	7	10000	3	1	0	3	0
69	144	7	10000	3	1	0	3	0
66	145	7	10000	3	1	0	3	0
63	146	7	10000	3	1	0	3	0
60	147	7	10000	3	1	0	3	0
60	148	7	10000	3	1	0	3	0
59	149	7	10000	3	1	0	3	0
60	150	7	10000	3	1	0	3	0
66	150	7	10000	3	1	0	3	0
66	151	7	10000	3	1	0	3	0
68	153	7	10000	3	1	0	3	0
69	154	7	10000	3	1	0	3	0
70	155	7	10000	3	1	0	3	0
69	156	7	10000	3	1	0	3	0
69	157	7	10000	3	1	0	3	0
66	158	7	10000	3	1	0	3	0
63	159	7	10000	3	1	0	3	0
61	160	7	10000	3	1	0	3	0
57	160	7	10000	3	1	0	3	0
55	161	7	10000	3	1	0	3	0
53	163	7	10000	3	1	0	3	0
53	164	7	10000	3	1	0	3	0
51	165	7	10000	3	1	0	3	0
50	166	7	10000	3	1	0	3	0
50	167	7	10000	3	1	0	3	0
54	168	7	10000	3	1	0	3	0
62	169	7	10000	3	1	0	3	0
72	170	7	10000	3	1	0	3	0
76	170	7	10000	3	1	0	3	0
76	171	7	10000	3	1	0	3	0
81	173	7	10000	3	1	0	3	0
84	174	7	10000	3	1	0	3	0
90	175	7	10000	3	1	0	3	0
92	176	7	10000	3	1	0	3	0
89	177	7	10000	3	1	0	3	0
86	178	7	10000	3	1	0	3	0
83	179	7	10000	3	1	0	3	0
82	180	7	10000	3	1	0	3	0
84	180	7	10000	3	1	0	3	0
82	181	7	10000	3	1	0	3	0
80	183	7	10000	3	1	0	3	0
84	184	7	10000	3	1	0	3	0
84	185	7	10000	3	1	0	3	0
82	186	7	10000	3	1	0	3	0
82	187	7	10000	3	1	0	3	0
79	188	7	10000	3	1	0	3	0
75	189	7	10000	3	1	0	3	0
72	190	7	10000	3	1	0	3	0
72	190	7	10000	3	1	0	3	0
71	191	7	10000	3	1	0	3	0
69	193	7	10000	3	1	0	3	0
64	194	7	10000	3	1	0	3	0
63	195	7	10000	3	1	0	3	0
66	196	7	10000	3	1	0	3	0
64	197	7	10000	3	1	0	3	0
62	198	7	10000	3	1	0	3	0
60	199	7	10000	3	1	0	3	0
58	200	7	10000	3	1	0	3	0
56	200	7	10000	3	1	0	3	0
55	201	7	10000	3	1	0	3	0
54	203	7	10000	3	1	0	3	0
57	204	7	10000	3	1	0	3	0
56	205	7	10000	3	1	0	3	0
56	206	7	10000	3	1	0	3	0
57	207	7	10000	3	1	0	3	0
57	208	7	10000	3	1	0	3	0
57	209	7	10000	3	1	0	3	0
56	210	7	10000	3	1	0	3	0
56	210	7	10000	3	1	0	3	0
58	211	7	10000	3	1	0	3	0
60	213	7	10000	3	1	0	3	0
57	214	7	10000	3	1	0	3	0
58	215	7	10000	3	1	0	3	0
59	216	7	10000	3	1	0	3	0
59	217	7	10000	3	1	0	3	0
58	218	7	10000	3	1	0	3	0
56	219	7	10000	3	1	0	3	0
55	220	7	10000	3	1	0	3	0
52	220	7	10000	3	1	0	3	0
50	221	7	10000	3	1	0	3	0
51	223	7	10000	3	1	0	3	0
52	224	7	10000	3	1	0	3	0
51	225	7	10000	3	1	0	3	0
51	226	7	10000	3	1	0	3	0
49	227	7	10000	3	1	0	3	0
48	228	7	10000	3	1	0	3	0
47	229	7	10000	3	1	0	3	0
46	230	7	10000	3	1	0	3	0
49	230	7	10000	3	1	0	3	0
50	231	7	10000	3	1	0	3	0
50	233	7	10000	3	1	0	3	0
49	234	7	10000	3	1	0	3	0
49	235	7	10000	3	1	0	3	0
48	236	7	10000	3	1	0	3	0
48	237	7	10000	3	1	0	3	0
51	238	7	10000	3	1	0	3	0
52	239	7	10000	3	1	0	3	0
52	240	7	10000	3	1	0	3	0
51	240	7	10000	3	1	0	3	0
50	241	7	10000	3	1	0	3	0
49	243	7	10000	3	1	0	3	0
52	244	7	10000	3	1	0	3	0
51	245	7	10000	3	1	0	3	0
50	246	7	10000	3	1	0	3	0
53	247	7	10000	3	1	0	3	0
56	248	7	10000	3	1	0	3	0
57	249	7	10000	3	1	0	3	0
59	250	7	10000	3	1	0	3	0
59	250	7	10000	3	1	0	3	0
58	251	7	10000	3	1	0	3	0
57	253	7	10000	3	1	0	3	0
55	254	7	10000	3	1	0	3	0
55	255	7	10000	3	1	0	3	0
56	256	7	10000	3	1	0	3	0
56	257	7	10000	3	1	0	3	0
54	258	7	10000	3	1	0	3	0
52	259	7	10000	3	1	0	3	0
50	260	7	10000	3	1	0	3	0
48	260	7	10000	3	1	0	3	0
48	261	7	10000	3	1	0	3	0
49	263	7	10000	3	1	0	3	0
59	264	7	10000	3	1	0	3	0
63	265	7	10000	3	1	0	3	0
61	266	7	10000	3	1	0	3	0
61	267	7	10000	3	1	0	3	0
64	268	7	10000	3	1	0	3	0
65	269	7	10000	3	1	0	3	0
64	270	7	10000	3	1	0	3	0
63	270	7	10000	3	1	0	3	0
62	271	7	10000	3	1	0	3	0
63	273	7	10000	3	1	0	3	0
63	274	7	10000	3	1	0	3	0
63	275	7	10000	3	1	0	3	0
61	276	7	10000	3	1	0	3	0
60	277	7	10000	3	1	0	3	0
57	278	7	10000	3	1	0	3	0
55	279	7	10000	3	1	0	3	0
55	280	7	10000	3	1	0	3	0
57	280	7	10000	3	1	0	3	0
62	281	7	10000	3	1	0	3	0
65	283	7	10000	3	1	0	3	0
66	284	7	10000	3	1	0	3	0
65	285	7	10000	3	1	0	3	0
68	286	7	10000	3	1	0	3	0
73	287	7	10000	3	1	0	3	0
77	288	7	10000	3	1	0	3	0
80	289	7	10000	3	1	0	3	0
78	290	7	10000	3	1	0	3	0
75	290	7	10000	3	1	0	3	0
72	291	7	10000	3	1	0	3	0
69	293	7	10000	3	1	0	3	0
64	294	7	10000	3	1	0	3	0
63	295	7	10000	3	1	0	3	0
62	296	7	10000	3	1	0	3	0
60	297	7	10000	3	1	0	3	0
61	298	7	10000	3	1	0	3	0
63	299	7	10000	3	1	0	3	0
64	300	7	10000	3	1	0	3	0
63	300	7	10000	3	1	0	3	0
63	301	7	10000	3	1	0	3	0
64	303	7	10000	3	1	0	3	0
70	304	7	10000	3	1	0	3	0
76	305	7	10000	3	1	0	3	0
77	306	7	10000	3	1	0	3	0
76	307	7	10000	3	1	0	3	0
77	308	7	10000	3	1	0	3	0
79	309	7	10000	3	1	0	3	0
80	310	7	10000	3	1	0	3	0
81	310	7	10000	3	1	0	3	0
79	311	7	10000	3	1	0	3	0
77	313	7	10000	3	1	0	3	0
72	314	7	10000	3	1	0	3	0
68	315	7	10000	3	1	0	3	0
67	316	7	10000	3	1	0	3	0
68	317	7	10000	3	1	0	3	0
68	318	7	10000	3	1	0	3	0
67	319	7	10000	3	1	0	3	0
65	320	7	10000	3	1	0	3	0
65	320	7	10000	3	1	0	3	0
65	321	7	10000	3	1	0	3	0
65	323	7	10000	3	1	0	3	0
65	324	7	10000	3	1	0	3	0
62	325	7	10000	3	1	0	3	0
59	326	7	10000	3	1	0	3	0
57	327	7	10000	3	1	0	3	0
56	328	7	10000	3	1	0	3	0
54	329	7	10000	3	1	0	3	0
51	330	7	10000	3	1	0	3	0
49	330	7	10000	3	1	0	3	0
48	331	7	10000	3	1	0	3	0
48	333	7	10000	3	1	0	3	0
46	334	7	10000	3	1	0	3	0
46	335	7	10000	3	1	0	3	0
45	336	7	10000	3	1	0	3	0
46	337	7	10000	3	1	0	3	0
49	338	7	10000	3	1	0	3	0
51	339	7	10000	3	1	0	3	0
52	340	7	10000	3	1	0	3	0
51	340	7	10000	3	1	0	3	0
50	341	7	10000	3	1	0	3	0
47	343	7	10000	3	1	0	3	0
52	344	7	10000	3	1	0	3	0
51	345	7	10000	3	1	0	3	0
49	346	7	10000	3	1	0	3	0
48	347	7	10000	3	1	0	3	0
50	348	7	10000	3	1	0	3	0
52	349	7	10000	3	1	0	3	0
54	350	7	10000	3	1	0	3	0
53	350	7	10000	3	1	0	3	0
52	351	7	10000	3	1	0	3	0
52	353	7	10000	3	1	0	3	0
50	354	7	10000	3	1	0	3	0
50	355	7	10000	3	1	0	3	0
49	356	7	10000	3	1	0	3	0
49	357	7	10000	3	1	0	3	0
48	358	7	10000	3	1	0	3	0
48	359	7	10000	3	1	0	3	0
50	360	7	10000	3	1	0	3	0
51	360	7	10000	3	1	0	3	0
55	361	7	10000	3	1	0	3	0
54	363	7	10000	3	1	0	3	0
54	364	7	10000	3	1	0	3	0
53	365	7	10000	3	1	0	3	0
50	366	7	10000	3	1	0	3	0
51	367	7	10000	3	1	0	3	0
57	368	7	10000	3	1	0	3	0
62	369	7	10000	3	1	0	3	0
67	370	7	10000	3	1	0	3	0
67	370	7	10000	3	1	0	3	0
67	371	7	10000	3	1	0	3	0
70	373	7	10000	3	1	0	3	0
69	374	7	10000	3	1	0	3	0
66	375	7	10000	3	1	0	3	0
65	376	7	10000	3	1	0	3	0
63	377	7	10000	3	1	0	3	0
60	378	7	10000	3	1	0	3	0
59	379	7	10000	3	1	0	3	0
58	380	7	10000	3	1	0	3	0
58	380	7	10000	3	1	0	3	0
59	381	7	10000	3	1	0	3	0
57	383	7	10000	3	1	0	3	0
56	384	7	10000	3	1	0	3	0
55	385	7	10000	3	1	0	3	0
53	386	7	10000	3	1	0	3	0
51	387	7	10000	3	1	0	3	0
52	388	7	10000	3	1	0	3	0
51	389	7	10000	3	1	0	3	0
49	390	7	10000	3	1	0	3	0
51	390	7	10000	3	1	0	3	0
58	391	7	10000	3	1	0	3	0
59	393	7	10000	3	1	0	3	0
57	394	7	10000	3	1	0	3	0
59	395	7	10000	3	1	0	3	0
61	396	7	10000	3	1	0	3	0
61	397	7	10000	3	1	0	3	0
60	398	7	10000	3	1	0	3	0
60	399	7	10000	3	1	0	3	0
63	400	7	10000	3	1	0	3	0
64	400	7	10000	3	1	0	3	0
62	401	7	10000	3	1	0	3	0
61	403	7	10000	3	1	0	3	0
65	404	7	10000	3	1	0	3	0
68	405	7	10000	3	1	0	3	0
71	406	7	10000	3	1	0	3	0
70	407	7	10000	3	1	0	3	0
69	408	7	10000	3	1	0	3	0
68	409	7	10000	3	1	0	3	0
67	410	7	10000	3	1	0	3	0
67	410	7	10000	3	1	0	3	0
64	411	7	10000	3	1	0	3	0
62	413	7	10000	3	1	0	3	0
58	414	7	10000	3	1	0	3	0
56	415	7	10000	3	1	0	3	0
55	416	7	10000	3	1	0	3	0
55	417	7	10000	3	1	0	3	0
55	418	7	10000	3	1	0	3	0
55	419	7	10000	3	1	0	3	0
55	420	7	10000	3	1	0	3	0
53	420	7	10000	3	1	0	3	0
52	421	7	10000	3	1	0	3	0
50	423	7	10000	3	1	0	3	0
52	424	7	10000	3	1	0	3	0
52	425	7	10000	3	1	0	3	0
51	426	7	10000	3	1	0	3	0
52	427	7	10000	3	1	0	3	0
55	428	7	10000	3	1	0	3	0
57	429	7	10000	3	1	0	3	0
54	430	7	10000	3	1	0	3	0
54	430	7	10000	3	1	0	3	0
54	431	7	10000	3	1	0	3	0
53	433	7	10000	3	1	0	3	0
50	434	7	10000	3	1	0	3	0
50	435	7	10000	3	1	0	3	0
51	436	7	10000	3	1	0	3	0
51	437	7	10000	3	1	0	3	0
50	438	7	10000	3	1	0	3	0
48	439	7	10000	3	1	0	3	0
50	440	7	10000	3	1	0	3	0
50	440	7	10000	3	1	0	3	0
49	441	7	10000	3	1	0	3	0
47	443	7	10000	3	1	0	3	0
50	444	7	10000	3	1	0	3	0
48	445	7	10000	3	1	0	3	0
45	446	7	10000	3	1	0	3	0
45	447	7	10000	3	1	0	3	0
44	448	7	10000	3	1	0	3	0
43	449	7	10000	3	1	0	3	0
44	450	7	10000	3	1	0	3	0
47	450	7	10000	3	1	0	3	0
48	451	7	10000	3	1	0	3	0
47	453	7	10000	3	1	0	3	0
43	454	7	10000	3	1	0	3	0
41	455	7	10000	3	1	0	3	0
42	456	7	10000	3	1	0	3	0
43	457	7	10000	3	1	0	3	0
42	458	7	10000	3	1	0	3	0
42	459	7	10000	3	1	0	3	0
44	460	7	10000	3	1	0	3	0
47	460	7	10000	3	1	0	3	0
47	461	7	10000	3	1	0	3	0
48	463	7	10000	3	1	0	3	0
57	464	7	10000	3	1	0	3	0
63	465	7	10000	3	1	0	3	0
68	466	7	10000	3	1	0	3	0
70	467	7	10000	3	1	0	3	0
70	468	7	10000	3	1	0	3	0
69	469	7	10000	3	1	0	3	0
70	470	7	10000	3	1	0	3	0
69	470	7	10000	3	1	0	3	0
68	471	7	10000	3	1	0	3	0
71	473	7	10000	3	1	0	3	0
72	474	7	10000	3	1	0	3	0
78	475	7	10000	3	1	0	3	0
79	476	7	10000	3	1	0	3	0
78	477	7	10000	3	1	0	3	0
80	478	7	10000	3	1	0	3	0
81	479	7	10000	3	1	0	3	0
80	480	7	10000	3	1	0	3	0
80	480	7	10000	3	1	0	3	0
79	481	7	10000	3	1	0	3	0
75	483	7	10000	3	1	0	3	0
74	484	7	10000	3	1	0	3	0
74	485	7	10000	3	1	0	3	0
74	486	7	10000	3	1	0	3	0
74	487	7	10000	3	1	0	3	0
74	488	7	10000	3	1	0	3	0
73	489	7	10000	3	1	0	3	0
70	490	7	10000	3	1	0	3	0
70	490	7	10000	3	1	0	3	0
73	491	7	10000	3	1	0	3	0
73	493	7	10000	3	1	0	3	0
69	494	7	10000	3	1	0	3	0
68	495	7	10000	3	1	0	3	0
66	496	7	10000	3	1	0	3	0
69	497	7	10000	3	1	0	3	0
77	498	7	10000	3	1	0	3	0
79	499	7	10000	3	1	0	3	0
77	500	7	10000	3	1	0	3	0
77	500	7	10000	3	1	0	3	0
77	501	7	10000	3	1	0	3	0
78	503	7	10000	3	1	0	3	1
81	504	7	10000	3	1	0	3	1
84	505	7	10000	3	1	0	3	1
88	506	7	10000	3	1	0	3	1
91	507	7	10000	3	1	0	3	1
89	508	7	10000	3	1	0	3	1
87	509	7	10000	3	1	0	3	1
85	510	7	10000	3	1	0	3	1
81	510	7	10000	3	1	0	3	1
79	511	7	10000	3	1	0	3	1
76	513	7	10000	3	1	0	3	1
70	514	7	10000	3	1	0	3	1
67	515	7	10000	3	1	0	3	1
66	516	7	10000	3	1	0	3	1
63	517	7	10000	3	1	0	3	1
63	518	7	10000	3	1	0	3	1
67	519	7	10000	3	1	0	3	1
68	520	7	10000	3	1	0	3	1
66	520	7	10000	3	1	0	3	1
64	521	7	10000	3	1	0	3	1
63	523	7	10000	3	1	0	3	1
63	524	7	10000	3	1	0	3	1
65	525	7	10000	3	1	0	3	1
62	526	7	10000	3	1	0	3	1
60	527	7	10000	3	1	0	3	1
60	528	7	10000	3	1	0	3	1
59	529	7	10000	3	1	0	3	1
58	530	7	10000	3	1	0	3	1
56	530	7	10000	3	1	0	3	1
56	531	7	10000	3	1	0	3	1
56	533	7	10000	3	1	0	3	1
55	534	7	10000	3	1	0	3	1
55	535	7	10000	3	1	0	3	1
53	536	7	10000	3	1	0	3	1
53	537	7	10000	3	1	0	3	1
51	538	7	10000	3	1	0	3	1
49	539	7	10000	3	1	0	3	1
47	540	7	10000	3	1	0	3	1
45	540	7	10000	3	1	0	3	1
44	541	7	10000	3	1	0	3	1
42	543	7	10000	3	1	0	3	1
43	544	7	10000	3	1	0	3	1
43	545	7	10000	3	1	0	3	1
41	546	7	10000	3	1	0	3	1
39	547	7	10000	3	1	0	3	1
37	548	7	10000	3	1	0	3	1
36	549	7	10000	3	1	0	3	1
36	550	7	10000	3	1	0	3	1
36	550	7	10000	3	1	0	3	1
36	551	7	10000	3	1	0	3	1
35	553	7	10000	3	1	0	3	0
33	554	7	10000	3	1	0	3	0
33	555	7	10000	3	1	0	3	0
32	556	7	10000	3	1	0	3	0
35	557	7	10000	3	1	0	3	0
39	558	7	10000	3	1	0	3	0
44	559	7	10000	3	1	0	3	0
47	560	7	10000	3	1	0	3	0
46	560	7	10000	3	1	0	3	0
45	561	7	10000	3	1	0	3	0
46	563	7	10000	3	1	0	3	0
50	564	7	10000	3	1	0	3	0
52	565	7	10000	3	1	0	3	0
51	566	7	10000	3	1	0	3	0
49	567	7	10000	3	1	0	3	0
47	568	7	10000	3	1	0	3	0
45	569	7	10000	3	1	0	3	0
46	570	7	10000	3	1	0	3	0
49	570	7	10000	3	1	0	3	0
49	571	7	10000	3	1	0	3	0
48	573	7	10000	3	1	0	3	0
45	574	7	10000	3	1	0	3	0
44	575	7	10000	3	1	0	3	0
44	576	7	10000	3	1	0	3	0
48	577	7	10000	3	1	0	3	0
48	578	7	10000	3	1	0	3	0
50	579	7	10000	3	1	0	3	0
53	580	7	10000	3	1	0	3	0
52	580	7	10000	3	1	0	3	0
50	581	7	10000	3	1	0	3	0
50	583	7	10000	3	1	0	3	0
55	584	7	10000	3	1	0	3	0
62	585	7	10000	3	1	0	3	0
73	586	7	10000	3	1	0	3	0
91	587	7	10000	3	1	0	3	0
117	588	7	10000	3	1	0	3	0
139	589	7	10000	3	1	0	3	0
140	590	7	10000	3	1	0	3	0
147	590	7	10000	3	1	0	3	0
155	591	7	10000	3	1	0	3	0
152	593	7	10000	3	1	0	3	0
146	594	7	10000	3	1	0	3	0
146	595	7	10000	3	1	0	3	0
152	596	7	10000	3	1	0	3	0
165	597	7	10000	3	1	0	3	0
240	598	7	10000	3	1	0	3	0
342	599	7	10000	3	1	0	3	0
405	600	7	10000	3	1	0	3	0
416	600	7	10000	3	1	0	3	0
500	601	7	10000	3	1	0	3	0
609	603	7	10000	3	1	0	3	0
639	604	7	10000	3	1	0	3	0
629	605	7	10000	3	1	0	3	0
613	606	7	10000	3	1	0	3	0
636	607	7	10000	3	1	0	3	0
651	608	7	10000	3	1	0	3	0
640	609	7	10000	3	1	0	3	0
633	610	7	10000	3	1	0	3	0
631	610	7	10000	3	1	0	3	0
674	611	7	10000	3	1	0	3	0
705	613	7	10000	3	1	0	3	0
701	614	7	10000	3	1	0	3	0
675	615	7	10000	3	1	0	3	0
677	616	7	10000	3	1	0	3	0
694	617	7	10000	3	1	0	3	0
704	618	7	10000	3	1	0	3	0
684	619	7	10000	3	1	0	3	0
652	620	7	10000	3	1	0	3	0
625	620	7	10000	3	1	0	3	0
612	621	7	10000	3	1	0	3	0
599	623	7	10000	3	1	0	3	0
583	624	7	10000	3	1	0	3	0
557	625	7	10000	3	1	0	3	0
533	626	7	10000	3	1	0	3	0
514	627	7	10000	3	1	0	3	0
503	628	7	10000	3	1	0	3	0
496	629	7	10000	3	1	0	3	0
490	630	7	10000	3	1	0	3	0
481	630	7	10000	3	1	0	3	0
470	631	7	10000	3	1	0	3	0
458	633	7	10000	3	1	0	3	0
446	634	7	10000	3	1	0	3	0
435	635	7	10000	3	1	0	3	0
422	636	7	10000	3	1	0	3	0
409	637	7	10000	3	1	0	3	0
399	638	7	10000	3	1	0	3	0
384	639	7	10000	3	1	0	3	0
368	640	7	10000	3	1	0	3	0
355	640	7	10000	3	1	0	3	0
352	641	7	10000	3	1	0	3	0
351	643	7	10000	3	1	0	3	0
348	644	7	10000	3	1	0	3	0
338	645	7	10000	3	1	0	3	0
344	646	7	10000	3	1	0	3	0
341	647	7	10000	3	1	0	3	0
339	648	7	10000	3	1	0	3	0
336	649	7	10000	3	1	0	3	0
323	650	7	10000	3	1	0	3	0
313	650	7	10000	3	1	0	3	0
315	651	7	10000	3	1	0	3	0
315	653	7	10000	3	1	0	3	0
307	654	7	10000	3	1	0	3	0
297	655	7	10000	3	1	0	3	0
288	656	7	10000	3	1	0	3	0
285	657	7	10000	3	1	0	3	0
284	658	7	10000	3	1	0	3	0
274	659	7	10000	3	1	0	3	0
265	660	7	10000	3	1	0	3	0
257	660	7	10000	3	1	0	3	0
254	661	7	10000	3	1	0	3	0
271	663	7	10000	3	1	0	3	0
276	664	7	10000	3	1	0	3	0
266	665	7	10000	3	1	0	3	0
269	666	7	10000	3	1	0	3	0
263	667	7	10000	3	1	0	3	0
260	668	7	10000	3	1	0	3	0
261	669	7	10000	3	1	0	3	0
271	670	7	10000	3	1	0	3	0
302	670	7	10000	3	1	0	3	0
303	671	7	10000	3	1	0	3	0
342	673	7	10000	3	1	0	3	0
384	674	7	10000	3	1	0	3	0
382	675	7	10000	3	1	0	3	0
414	676	7	10000	3	1	0	3	0
448	677	7	10000	3	1	0	3	0
451	678	7	10000	3	1	0	3	0
492	679	7	10000	3	1	0	3	0
517	680	7	10000	3	1	0	3	0
506	680	7	10000	3	1	0	3	0
533	681	7	10000	3	1	0	3	0
566	683	7	10000	3	1	0	3	0
592	684	7	10000	3	1	0	3	0
598	685	7	10000	3	1	0	3	0
587	686	7	10000	3	1	0	3	0
566	687	7	10000	3	1	0	3	0
543	688	7	10000	3	1	0	3	0
518	689	7	10000	3	1	0	3	0
496	690	7	10000	3	1	0	3	0
475	690	7	10000	3	1	0	3	0
456	691	7	10000	3	1	0	3	0
439	693	7	10000	3	1	0	3	0
420	694	7	10000	3	1	0	3	0
403	695	7	10000	3	1	0	3	0
390	696	7	10000	3	1	0	3	0
379	697	7	10000	3	1	0	3	0
365	698	7	10000	3	1	0	3	0
359	699	7	10000	3	1	0	3	0
356	700	7	10000	3	1	0	3	0
342	700	7	10000	3	1	0	3	0
330	701	7	10000	3	1	0	3	0
336	703	7	10000	3	1	0	3	0
379	704	7	10000	3	1	0	3	0
452	705	7	10000	3	1	0	3	0
496	706	7	10000	3	1	0	3	0
494	707	7	10000	3	1	0	3	0
539	708	7	10000	3	1	0	3	0
587	709	7	10000	3	1	0	3	0
579	710	7	10000	3	1	0	3	0
592	710	7	10000	3	1	0	3	0
670	711	7	10000	3	1	0	3	0
734	713	7	10000	3	1	0	3	0
750	714	7	10000	3	1	0	3	0
746	715	7	10000	3	1	0	3	0
808	716	7	10000	3	1	0	3	0
867	717	7	10000	3	1	0	3	0
909	718	7	10000	3	1	0	3	0
914	719	7	10000	3	1	0	3	0
889	720	7	10000	3	1	0	3	0
868	720	7	10000	3	1	0	3	0
847	721	7	10000	3	1	0	3	0
865	723	7	10000	3	1	0	3	0
848	724	7	10000	3	1	0	3	0
858	725	7	10000	3	1	0	3	0
891	726	7	10000	3	1	0	3	0
895	727	7	10000	3	1	0	3	0
866	728	7	10000	3	1	0	3	0
869	729	7	10000	3	1	0	3	0
862	730	7	10000	3	1	0	3	0
836	730	7	10000	3	1	0	3	0
803	731	7	10000	3	1	0	3	0
769	733	7	10000	3	1	0	3	0
739	734	7	10000	3	1	0	3	0
728	735	7	10000	3	1	0	3	0
716	736	7	10000	3	1	0	3	0
693	737	7	10000	3	1	0	3	0
666	738	7	10000	3	1	0	3	0
643	739	7	10000	3	1	0	3	0
627	740	7	10000	3	1	0	3	0
612	740	7	10000	3	1	0	3	0
597	741	7	10000	3	1	0	3	0
583	743	7	10000	3	1	0	3	0
571	744	7	10000	3	1	0	3	0
555	745	7	10000	3	1	0	3	0
536	746	7	10000	3	1	0	3	0
514	747	7	10000	3	1	0	3	0
491	748	7	10000	3	1	0	3	0
472	749	7	10000	3	1	0	3	0
453	750	7	10000	3	1	0	3	0
433	750	7	10000	3	1	0	3	0
418	751	7	10000	3	1	0	3	0
406	753	7	10000	3	1	0	3	0
389	754	7	10000	3	1	0	3	0
380	755	7	10000	3	1	0	3	0
375	756	7	10000	3	1	0	3	0
367	757	7	10000	3	1	0	3	0
353	758	7	10000	3	1	0	3	0
340	759	7	10000	3	1	0	3	0
326	760	7	10000	3	1	0	3	0
322	760	7	10000	3	1	0	3	0
338	761	7	10000	3	1	0	3	0
372	763	7	10000	3	1	0	3	0
380	764	7	10000	3	1	0	3	0
409	765	7	10000	3	1	0	3	0
466	766	7	10000	3	1	0	3	0
476	767	7	10000	3	1	0	3	0
492	768	7	10000	3	1	0	3	0
497	769	7	10000	3	1	0	3	0
511	770	7	10000	3	1	0	3	0
501	770	7	10000	3	1	0	3	0
479	771	7	10000	3	1	0	3	0
464	773	7	10000	3	1	0	3	0
451	774	7	10000	3	1	0	3	0
440	775	7	10000	3	1	0	3	0
424	776	7	10000	3	1	0	3	0
425	777	7	10000	3	1	0	3	0
487	778	7	10000	3	1	0	3	0
551	779	7	10000	3	1	0	3	0
548	780	7	10000	3	1	0	3	0
553	780	7	10000	3	1	0	3	0
567	781	7	10000	3	1	0	3	0
579	783	7	10000	3	1	0	3	0
593	784	7	10000	3	1	0	3	0
600	785	7	10000	3	1	0	3	0
600	786	7	10000	3	1	0	3	0
597	787	7	10000	3	1	0	3	0
589	788	7	10000	3	1	0	3	0
567	789	7	10000	3	1	0	3	0
545	790	7	10000	3	1	0	3	0
535	790	7	10000	3	1	0	3	0
521	791	7	10000	3	1	0	3	0
504	793	7	10000	3	1	0	3	0
498	794	7	10000	3	1	0	3	0
481	795	7	10000	3	1	0	3	0
464	796	7	10000	3	1	0	3	0
451	797	7	10000	3	1	0	3	0
434	798	7	10000	3	1	0	3	0
418	799	7	10000	3	1	0	3	0
424	800	7	10000	3	1	0	3	0
440	800	7	10000	3	1	0	3	0
488	801	7	10000	3	1	0	3	0
489	803	7	10000	3	1	0	3	0
514	804	7	10000	3	1	0	3	0
545	805	7	10000	3	1	0	3	0
557	806	7	10000	3	1	0	3	0
546	807	7	10000	3	1	0	3	0
523	808	7	10000	3	1	0	3	0
510	809	7	10000	3	1	0	3	0
494	810	7	10000	3	1	0	3	0
474	810	7	10000	3	1	0	3	0
455	811	7	10000	3	1	0	3	0
441	813	7	10000	3	1	0	3	0
423	814	7	10000	3	1	0	3	0
405	815	7	10000	3	1	0	3	0
393	816	7	10000	3	1	0	3	0
380	817	7	10000	3	1	0	3	0
378	818	7	10000	3	1	0	3	0
369	819	7	10000	3	1	0	3	0
368	820	7	10000	3	1	0	3	0
370	820	7	10000	3	1	0	3	0
360	821	7	10000	3	1	0	3	0
356	823	7	10000	3	1	0	3	0
348	824	7	10000	3	1	0	3	0
335	825	7	10000	3	1	0	3	0
330	826	7	10000	3	1	0	3	0
322	827	7	10000	3	1	0	3	0
309	828	7	10000	3	1	0	3	0
306	829	7	10000	3	1	0	3	0
307	830	7	10000	3	1	0	3	0
299	830	7	10000	3	1	0	3	0
293	831	7	10000	3	1	0	3	0
285	833	7	10000	3	1	0	3	0
274	834	7	10000	3	1	0	3	0
268	835	7	10000	3	1	0	3	0
269	836	7	10000	3	1	0	3	0
283	837	7	10000	3	1	0	3	0
297	838	7	10000	3	1	0	3	0
305	839	7	10000	3	1	0	3	0
299	840	7	10000	3	1	0	3	0
316	840	7	10000	3	1	0	3	0
326	841	7	10000	3	1	0	3	0
319	843	7	10000	3	1	0	3	0
309	844	7	10000	3	1	0	3	0
297	845	7	10000	3	1	0	3	0
289	846	7	10000	3	1	0	3	0
283	847	7	10000	3	1	0	3	0
272	848	7	10000	3	1	0	3	0
267	849	7	10000	3	1	0	3	0
296	850	7	10000	3	1	0	3	0
349	850	7	10000	3	1	0	3	0
354	851	7	10000	3	1	0	3	0
367	853	7	10000	3	1	0	3	0
402	854	7	10000	3	1	0	3	0
429	855	7	10000	3	1	0	3	0
431	856	7	10000	3	1	0	3	0
412	857	7	10000	3	1	0	3	0
398	858	7	10000	3	1	0	3	0
382	859	7	10000	3	1	0	3	0
376	860	7	10000	3	1	0	3	0
372	860	7	10000	3	1	0	3	0
356	861	7	10000	3	1	0	3	0
345	863	7	10000	3	1	0	3	0
342	864	7	10000	3	1	0	3	0
336	865	7	10000	3	1	0	3	0
331	866	7	10000	3	1	0	3	0
336	867	7	10000	3	1	0	3	0
329	868	7	10000	3	1	0	3	0
329	869	7	10000	3	1	0	3	0
330	870	7	10000	3	1	0	3	0
323	870	7	10000	3	1	0	3	0
310	871	7	10000	3	1	0	3	0
300	873	7	10000	3	1	0	3	0
286	874	7	10000	3	1	0	3	0
275	875	7	10000	3	1	0	3	0
270	876	7	10000	3	1	0	3	0
280	877	7	10000	3	1	0	3	0
314	878	7	10000	3	1	0	3	0
316	879	7	10000	3	1	0	3	0
329	880	7	10000	3	1	0	3	0
332	880	7	10000	3	1	0	3	0
328	881	7	10000	3	1	0	3	0
324	883	7	10000	3	1	0	3	0
313	884	7	10000	3	1	0	3	0
304	885	7	10000	3	1	0	3	0
303	886	7	10000	3	1	0	3	0
302	887	7	10000	3	1	0	3	0
291	888	7	10000	3	1	0	3	0
287	889	7	10000	3	1	0	3	0
284	890	7	10000	3	1	0	3	0
280	890	7	10000	3	1	0	3	0
270	891	7	10000	3	1	0	3	0
259	893	7	10000	3	1	0	3	0
252	894	7	10000	3	1	0	3	0
247	895	7	10000	3	1	0	3	0
243	896	7	10000	3	1	0	3	0
237	897	7	10000	3	1	0	3	0
229	898	7	10000	3	1	0	3	0
223	899	7	10000	3	1	0	3	0
221	900	7	10000	3	1	0	3	0
211	900	7	10000	3	1	0	3	0
210	901	7	10000	3	1	0	3	0
205	903	7	10000	3	1	0	3	0
203	904	7	10000	3	1	0	3	0
201	905	7	10000	3	1	0	3	0
201	906	7	10000	3	1	0	3	0
204	907	7	10000	3	1	0	3	0
212	908	7	10000	3	1	0	3	0
221	909	7	10000	3	1	0	3	0
229	910	7	10000	3	1	0	3	0
234	910	7	10000	3	1	0	3	0
228	911	7	10000	3	1	0	3	0
230	913	7	10000	3	1	0	3	0
250	914	7	10000	3	1	0	3	0
259	915	7	10000	3	1	0	3	0
251	916	7	10000	3	1	0	3	0
245	917	7	10000	3	1	0	3	0
247	918	7	10000	3	1	0	3	0
252	919	7	10000	3	1	0	3	0
259	920	7	10000	3	1	0	3	0
253	920	7	10000	3	1	0	3	0
252	921	7	10000	3	1	0	3	0
263	923	7	10000	3	1	0	3	0
281	924	7	10000	3	1	0	3	0
288	925	7	10000	3	1	0	3	0
292	926	7	10000	3	1	0	3	0
284	927	7	10000	3	1	0	3	0
280	928	7	10000	3	1	0	3	0
271	929	7	10000	3	1	0	3	0
271	930	7	10000	3	1	0	3	0
264	930	7	10000	3	1	0	3	0
271	931	7	10000	3	1	0	3	0
277	933	7	10000	3	1	0	3	0
265	934	7	10000	3	1	0	3	0
255	935	7	10000	3	1	0	3	0
247	936	7	10000	3	1	0	3	0
250	937	7	10000	3	1	0	3	0
250	938	7	10000	3	1	0	3	0
244	939	7	10000	3	1	0	3	0
245	940	7	10000	3	1	0	3	0
239	940	7	10000	3	1	0	3	0
228	941	7	10000	3	1	0	3	0
217	943	7	10000	3	1	0	3	0
211	944	7	10000	3	1	0	3	0
202	945	7	10000	3	1	0	3	0
197	946	7	10000	3	1	0	3	0
194	947	7	10000	3	1	0	3	0
199	948	7	10000	3	1	0	3	0
213	949	7	10000	3	1	0	3	0
214	950	7	10000	3	1	0	3	0
211	950	7	10000	3	1	0	3	0
209	951	7	10000	3	1	0	3	0
204	953	7	10000	3	1	0	3	0
207	954	7	10000	3	1	0	3	0
212	955	7	10000	3	1	0	3	0
208	956	7	10000	3	1	0	3	0
208	957	7	10000	3	1	0	3	0
220	958	7	10000	3	1	0	3	0
234	959	7	10000	3	1	0	3	0
233	960	7	10000	3	1	0	3	0
225	960	7	10000	3	1	0	3	0
220	961	7	10000	3	1	0	3	0
222	963	7	10000	3	1	0	3	0
230	964	7	10000	3	1	0	3	0
227	965	7	10000	3	1	0	3	0
216	966	7	10000	3	1	0	3	0
210	967	7	10000	3	1	0	3	0
211	968	7	10000	3	1	0	3	0
219	969	7	10000	3	1	0	3	0
228	970	7	10000	3	1	0	3	0
233	970	7	10000	3	1	0	3	0
247	971	7	10000	3	1	0	3	0
276	973	7	10000	3	1	0	3	0
275	974	7	10000	3	1	0	3	0
263	975	7	10000	3	1	0	3	0
253	976	7	10000	3	1	0	3	0
243	977	7	10000	3	1	0	3	0
232	978	7	10000	3	1	0	3	0
223	979	7	10000	3	1	0	3	0
214	980	7	10000	3	1	0	3	0
206	980	7	10000	3	1	0	3	0
202	981	7	10000	3	1	0	3	0
198	983	7	10000	3	1	0	3	0
196	984	7	10000	3	1	0	3	0
191	985	7	10000	3	1	0	3	0
187	986	7	10000	3	1	0	3	0
198	987	7	10000	3	1	0	3	0
206	988	7	10000	3	1	0	3	0
201	989	7	10000	3	1	0	3	0
194	990	7	10000	3	1	0	3	0
188	990	7	10000	3	1	0	3	0
183	991	7	10000	3	1	0	3	0
175	993	7	10000	3	1	0	3	0
166	994	7	10000	3	1	0	3	0
160	995	7	10000	3	1	0	3	0
155	996	7	10000	3	1	0	3	0
149	997	7	10000	3	1	0	3	0
143	998	7	10000	3	1	0	3	0
139	999	7	10000	3	1	0	3	0
141	1000	7	10000	3	1	0	3	0
148	1000	7	10000	3	1	0	3	0
150	1001	7	10000	3	1	0	3	0
77	2	0	10000	4	1	0	4	0
79	3	0	10000	4	1	0	4	0
80	4	0	10000	4	1	0	4	0
78	5	0	10000	4	1	0	4	0
78	6	0	10000	4	1	0	4	0
78	7	0	10000	4	1	0	4	0
76	8	0	10000	4	1	0	4	0
77	9	0	10000	4	1	0	4	0
78	10	0	10000	4	1	0	4	0
79	11	0	10000	4	1	0	4	0
79	12	0	10000	4	1	0	4	0
79	13	0	10000	4	1	0	4	0
75	14	0	10000	4	1	0	4	0
73	15	0	10000	4	1	0	4	0
70	16	0	10000	4	1	0	4	0
68	17	0	10000	4	1	0	4	0
69	18	0	10000	4	1	0	4	0
70	19	0	10000	4	1	0	4	0
69	20	0	10000	4	1	0	4	0
68	21	0	10000	4	1	0	4	0
68	22	0	10000	4	1	0	4	0
65	23	0	10000	4	1	0	4	0
62	24	0	10000	4	1	0	4	0
60	25	0	10000	4	1	0	4	0
59	26	0	10000	4	1	0	4	0
60	27	0	10000	4	1	0	4	0
61	28	0	10000	4	1	0	4	0
60	29	0	10000	4	1	0	4	0
57	30	0	10000	4	1	0	4	0
56	31	0	10000	4	1	0	4	0
54	32	0	10000	4	1	0	4	0
53	33	0	10000	4	1	0	4	0
52	34	0	10000	4	1	0	4	0
51	35	0	10000	4	1	0	4	0
47	36	0	10000	4	1	0	4	0
46	37	0	10000	4	1	0	4	0
47	38	0	10000	4	1	0	4	0
47	39	0	10000	4	1	0	4	0
48	40	0	10000	4	1	0	4	0
48	41	0	10000	4	1	0	4	0
46	42	0	10000	4	1	0	4	0
44	43	0	10000	4	1	0	4	0
42	44	0	10000	4	1	0	4	0
40	45	0	10000	4	1	0	4	0
41	46	0	10000	4	1	0	4	0
41	47	0	10000	4	1	0	4	0
39	48	0	10000	4	1	0	4	0
39	49	0	10000	4	1	0	4	0
38	50	0	10000	4	1	0	4	0
38	51	0	10000	4	1	0	4	0
38	52	0	10000	4	1	0	4	0
40	53	0	10000	4	1	0	4	0
42	54	0	10000	4	1	0	4	0
41	55	0	10000	4	1	0	4	0
39	56	0	10000	4	1	0	4	0
41	57	0	10000	4	1	0	4	0
46	58	0	10000	4	1	0	4	0
49	59	0	10000	4	1	0	4	0
50	60	0	10000	4	1	0	4	0
48	61	0	10000	4	1	0	4	0
46	62	0	10000	4	1	0	4	0
44	63	0	10000	4	1	0	4	0
42	64	0	10000	4	1	0	4	0
40	65	0	10000	4	1	0	4	0
40	66	0	10000	4	1	0	4	0
40	67	0	10000	4	1	0	4	0
39	68	0	10000	4	1	0	4	0
37	69	0	10000	4	1	0	4	0
35	70	0	10000	4	1	0	4	0
35	71	0	10000	4	1	0	4	0
34	72	0	10000	4	1	0	4	0
33	73	0	10000	4	1	0	4	0
33	74	0	10000	4	1	0	4	0
34	75	0	10000	4	1	0	4	0
33	76	0	10000	4	1	0	4	0
34	77	0	10000	4	1	0	4	0
37	78	0	10000	4	1	0	4	0
40	79	0	10000	4	1	0	4	0
43	80	0	10000	4	1	0	4	0
44	81	0	10000	4	1	0	4	0
43	82	0	10000	4	1	0	4	0
43	83	0	10000	4	1	0	4	0
43	84	0	10000	4	1	0	4	0
44	85	0	10000	4	1	0	4	0
46	86	0	10000	4	1	0	4	0
48	87	0	10000	4	1	0	4	0
45	88	0	10000	4	1	0	4	0
45	89	0	10000	4	1	0	4	0
43	90	0	10000	4	1	0	4	0
41	91	0	10000	4	1	0	4	0
40	92	0	10000	4	1	0	4	0
38	93	0	10000	4	1	0	4	0
37	94	0	10000	4	1	0	4	0
41	95	0	10000	4	1	0	4	0
44	96	0	10000	4	1	0	4	0
44	97	0	10000	4	1	0	4	0
45	98	0	10000	4	1	0	4	0
45	99	0	10000	4	1	0	4	0
44	100	0	10000	4	1	0	4	0
43	101	0	10000	4	1	0	4	0
41	102	0	10000	4	1	0	4	0
39	103	0	10000	4	1	0	4	0
37	104	0	10000	4	1	0	4	0
37	105	0	10000	4	1	0	4	0
37	106	0	10000	4	1	0	4	0
37	107	0	10000	4	1	0	4	0
35	108	0	10000	4	1	0	4	0
33	109	0	10000	4	1	0	4	0
32	110	0	10000	4	1	0	4	0
31	111	0	10000	4	1	0	4	0
32	112	0	10000	4	1	0	4	0
32	113	0	10000	4	1	0	4	0
33	114	0	10000	4	1	0	4	0
35	115	0	10000	4	1	0	4	0
34	116	0	10000	4	1	0	4	0
33	117	0	10000	4	1	0	4	0
33	118	0	10000	4	1	0	4	0
32	119	0	10000	4	1	0	4	0
30	120	0	10000	4	1	0	4	0
30	121	0	10000	4	1	0	4	0
32	122	0	10000	4	1	0	4	0
32	123	0	10000	4	1	0	4	0
31	124	0	10000	4	1	0	4	0
30	125	0	10000	4	1	0	4	0
31	126	0	10000	4	1	0	4	0
33	127	0	10000	4	1	0	4	0
34	128	0	10000	4	1	0	4	0
33	129	0	10000	4	1	0	4	0
32	130	0	10000	4	1	0	4	0
32	131	0	10000	4	1	0	4	0
32	132	0	10000	4	1	0	4	0
34	133	0	10000	4	1	0	4	0
35	134	0	10000	4	1	0	4	0
37	135	0	10000	4	1	0	4	0
37	136	0	10000	4	1	0	4	0
37	137	0	10000	4	1	0	4	0
35	138	0	10000	4	1	0	4	0
34	139	0	10000	4	1	0	4	0
35	140	0	10000	4	1	0	4	0
33	141	0	10000	4	1	0	4	0
34	142	0	10000	4	1	0	4	0
36	143	0	10000	4	1	0	4	0
35	144	0	10000	4	1	0	4	0
34	145	0	10000	4	1	0	4	0
35	146	0	10000	4	1	0	4	0
34	147	0	10000	4	1	0	4	0
33	148	0	10000	4	1	0	4	0
34	149	0	10000	4	1	0	4	0
36	150	0	10000	4	1	0	4	0
36	151	0	10000	4	1	0	4	0
36	152	0	10000	4	1	0	4	0
36	153	0	10000	4	1	0	4	0
37	154	0	10000	4	1	0	4	0
38	155	0	10000	4	1	0	4	0
38	156	0	10000	4	1	0	4	0
37	157	0	10000	4	1	0	4	0
38	158	0	10000	4	1	0	4	0
36	159	0	10000	4	1	0	4	0
36	160	0	10000	4	1	0	4	0
34	161	0	10000	4	1	0	4	0
34	162	0	10000	4	1	0	4	0
32	163	0	10000	4	1	0	4	0
32	164	0	10000	4	1	0	4	0
32	165	0	10000	4	1	0	4	0
32	166	0	10000	4	1	0	4	0
33	167	0	10000	4	1	0	4	0
32	168	0	10000	4	1	0	4	0
31	169	0	10000	4	1	0	4	0
32	170	0	10000	4	1	0	4	0
31	171	0	10000	4	1	0	4	0
32	172	0	10000	4	1	0	4	0
31	173	0	10000	4	1	0	4	0
30	174	0	10000	4	1	0	4	0
30	175	0	10000	4	1	0	4	0
28	176	0	10000	4	1	0	4	0
25	177	0	10000	4	1	0	4	0
25	178	0	10000	4	1	0	4	0
25	179	0	10000	4	1	0	4	0
24	180	0	10000	4	1	0	4	0
24	181	0	10000	4	1	0	4	0
23	182	0	10000	4	1	0	4	0
24	183	0	10000	4	1	0	4	0
24	184	0	10000	4	1	0	4	0
23	185	0	10000	4	1	0	4	0
27	186	0	10000	4	1	0	4	0
29	187	0	10000	4	1	0	4	0
27	188	0	10000	4	1	0	4	0
28	189	0	10000	4	1	0	4	0
28	190	0	10000	4	1	0	4	0
30	191	0	10000	4	1	0	4	0
30	192	0	10000	4	1	0	4	0
30	193	0	10000	4	1	0	4	0
31	194	0	10000	4	1	0	4	0
32	195	0	10000	4	1	0	4	0
32	196	0	10000	4	1	0	4	0
31	197	0	10000	4	1	0	4	0
31	198	0	10000	4	1	0	4	0
30	199	0	10000	4	1	0	4	0
30	200	0	10000	4	1	0	4	0
29	201	0	10000	4	1	0	4	0
29	202	0	10000	4	1	0	4	0
29	203	0	10000	4	1	0	4	0
30	204	0	10000	4	1	0	4	0
29	205	0	10000	4	1	0	4	0
30	206	0	10000	4	1	0	4	0
31	207	0	10000	4	1	0	4	0
30	208	0	10000	4	1	0	4	0
32	209	0	10000	4	1	0	4	0
34	210	0	10000	4	1	0	4	0
38	211	0	10000	4	1	0	4	0
39	212	0	10000	4	1	0	4	0
38	213	0	10000	4	1	0	4	0
37	214	0	10000	4	1	0	4	0
38	215	0	10000	4	1	0	4	0
37	216	0	10000	4	1	0	4	0
35	217	0	10000	4	1	0	4	0
34	218	0	10000	4	1	0	4	0
34	219	0	10000	4	1	0	4	0
34	220	0	10000	4	1	0	4	0
34	221	0	10000	4	1	0	4	0
33	222	0	10000	4	1	0	4	0
33	223	0	10000	4	1	0	4	0
34	224	0	10000	4	1	0	4	0
35	225	0	10000	4	1	0	4	0
35	226	0	10000	4	1	0	4	0
36	227	0	10000	4	1	0	4	0
36	228	0	10000	4	1	0	4	0
36	229	0	10000	4	1	0	4	0
35	230	0	10000	4	1	0	4	0
33	231	0	10000	4	1	0	4	0
32	232	0	10000	4	1	0	4	0
33	233	0	10000	4	1	0	4	0
34	234	0	10000	4	1	0	4	0
33	235	0	10000	4	1	0	4	0
31	236	0	10000	4	1	0	4	0
29	237	0	10000	4	1	0	4	0
28	238	0	10000	4	1	0	4	0
29	239	0	10000	4	1	0	4	0
29	240	0	10000	4	1	0	4	0
30	241	0	10000	4	1	0	4	0
31	242	0	10000	4	1	0	4	0
31	243	0	10000	4	1	0	4	0
30	244	0	10000	4	1	0	4	0
31	245	0	10000	4	1	0	4	0
34	246	0	10000	4	1	0	4	0
37	247	0	10000	4	1	0	4	0
37	248	0	10000	4	1	0	4	0
36	249	0	10000	4	1	0	4	0
35	250	0	10000	4	1	0	4	0
37	251	0	10000	4	1	0	4	0
39	252	0	10000	4	1	0	4	0
41	253	0	10000	4	1	0	4	0
42	254	0	10000	4	1	0	4	0
42	255	0	10000	4	1	0	4	0
41	256	0	10000	4	1	0	4	0
41	257	0	10000	4	1	0	4	0
42	258	0	10000	4	1	0	4	0
41	259	0	10000	4	1	0	4	0
40	260	0	10000	4	1	0	4	0
41	261	0	10000	4	1	0	4	0
41	262	0	10000	4	1	0	4	0
41	263	0	10000	4	1	0	4	0
40	264	0	10000	4	1	0	4	0
37	265	0	10000	4	1	0	4	0
37	266	0	10000	4	1	0	4	0
39	267	0	10000	4	1	0	4	0
37	268	0	10000	4	1	0	4	0
36	269	0	10000	4	1	0	4	0
35	270	0	10000	4	1	0	4	0
33	271	0	10000	4	1	0	4	0
32	272	0	10000	4	1	0	4	0
32	273	0	10000	4	1	0	4	0
31	274	0	10000	4	1	0	4	0
33	275	0	10000	4	1	0	4	0
32	276	0	10000	4	1	0	4	0
29	277	0	10000	4	1	0	4	0
28	278	0	10000	4	1	0	4	0
29	279	0	10000	4	1	0	4	0
28	280	0	10000	4	1	0	4	0
27	281	0	10000	4	1	0	4	0
28	282	0	10000	4	1	0	4	0
26	283	0	10000	4	1	0	4	0
26	284	0	10000	4	1	0	4	0
25	285	0	10000	4	1	0	4	0
26	286	0	10000	4	1	0	4	0
26	287	0	10000	4	1	0	4	0
26	288	0	10000	4	1	0	4	0
26	289	0	10000	4	1	0	4	0
27	290	0	10000	4	1	0	4	0
28	291	0	10000	4	1	0	4	0
29	292	0	10000	4	1	0	4	0
30	293	0	10000	4	1	0	4	0
29	294	0	10000	4	1	0	4	0
29	295	0	10000	4	1	0	4	0
27	296	0	10000	4	1	0	4	0
26	297	0	10000	4	1	0	4	0
26	298	0	10000	4	1	0	4	0
26	299	0	10000	4	1	0	4	0
26	300	0	10000	4	1	0	4	0
26	301	0	10000	4	1	0	4	0
24	302	0	10000	4	1	0	4	0
25	303	0	10000	4	1	0	4	0
25	304	0	10000	4	1	0	4	0
23	305	0	10000	4	1	0	4	0
23	306	0	10000	4	1	0	4	0
25	307	0	10000	4	1	0	4	0
25	308	0	10000	4	1	0	4	0
24	309	0	10000	4	1	0	4	0
23	310	0	10000	4	1	0	4	0
22	311	0	10000	4	1	0	4	0
21	312	0	10000	4	1	0	4	0
20	313	0	10000	4	1	0	4	0
20	314	0	10000	4	1	0	4	0
20	315	0	10000	4	1	0	4	0
21	316	0	10000	4	1	0	4	0
22	317	0	10000	4	1	0	4	0
24	318	0	10000	4	1	0	4	0
28	319	0	10000	4	1	0	4	0
32	320	0	10000	4	1	0	4	0
33	321	0	10000	4	1	0	4	0
33	322	0	10000	4	1	0	4	0
32	323	0	10000	4	1	0	4	0
32	324	0	10000	4	1	0	4	0
34	325	0	10000	4	1	0	4	0
36	326	0	10000	4	1	0	4	0
36	327	0	10000	4	1	0	4	0
35	328	0	10000	4	1	0	4	0
33	329	0	10000	4	1	0	4	0
32	330	0	10000	4	1	0	4	0
32	331	0	10000	4	1	0	4	0
31	332	0	10000	4	1	0	4	0
31	333	0	10000	4	1	0	4	0
32	334	0	10000	4	1	0	4	0
31	335	0	10000	4	1	0	4	0
30	336	0	10000	4	1	0	4	0
29	337	0	10000	4	1	0	4	0
29	338	0	10000	4	1	0	4	0
28	339	0	10000	4	1	0	4	0
28	340	0	10000	4	1	0	4	0
28	341	0	10000	4	1	0	4	0
28	342	0	10000	4	1	0	4	0
27	343	0	10000	4	1	0	4	0
26	344	0	10000	4	1	0	4	0
25	345	0	10000	4	1	0	4	0
27	346	0	10000	4	1	0	4	0
29	347	0	10000	4	1	0	4	0
28	348	0	10000	4	1	0	4	0
27	349	0	10000	4	1	0	4	0
25	350	0	10000	4	1	0	4	0
24	351	0	10000	4	1	0	4	0
23	352	0	10000	4	1	0	4	0
23	353	0	10000	4	1	0	4	0
22	354	0	10000	4	1	0	4	0
22	355	0	10000	4	1	0	4	0
20	356	0	10000	4	1	0	4	0
19	357	0	10000	4	1	0	4	0
19	358	0	10000	4	1	0	4	0
19	359	0	10000	4	1	0	4	0
19	360	0	10000	4	1	0	4	0
20	361	0	10000	4	1	0	4	0
21	362	0	10000	4	1	0	4	0
22	363	0	10000	4	1	0	4	0
22	364	0	10000	4	1	0	4	0
20	365	0	10000	4	1	0	4	0
21	366	0	10000	4	1	0	4	0
23	367	0	10000	4	1	0	4	0
21	368	0	10000	4	1	0	4	0
21	369	0	10000	4	1	0	4	0
20	370	0	10000	4	1	0	4	0
19	371	0	10000	4	1	0	4	0
19	372	0	10000	4	1	0	4	0
19	373	0	10000	4	1	0	4	0
19	374	0	10000	4	1	0	4	0
19	375	0	10000	4	1	0	4	0
19	376	0	10000	4	1	0	4	0
18	377	0	10000	4	1	0	4	0
20	378	0	10000	4	1	0	4	0
19	379	0	10000	4	1	0	4	0
20	380	0	10000	4	1	0	4	0
22	381	0	10000	4	1	0	4	0
22	382	0	10000	4	1	0	4	0
21	383	0	10000	4	1	0	4	0
21	384	0	10000	4	1	0	4	0
22	385	0	10000	4	1	0	4	0
23	386	0	10000	4	1	0	4	0
24	387	0	10000	4	1	0	4	0
24	388	0	10000	4	1	0	4	0
24	389	0	10000	4	1	0	4	0
23	390	0	10000	4	1	0	4	0
23	391	0	10000	4	1	0	4	0
22	392	0	10000	4	1	0	4	0
21	393	0	10000	4	1	0	4	0
21	394	0	10000	4	1	0	4	0
22	395	0	10000	4	1	0	4	0
22	396	0	10000	4	1	0	4	0
21	397	0	10000	4	1	0	4	0
20	398	0	10000	4	1	0	4	0
22	399	0	10000	4	1	0	4	0
24	400	0	10000	4	1	0	4	0
24	401	0	10000	4	1	0	4	0
25	402	0	10000	4	1	0	4	0
27	403	0	10000	4	1	0	4	0
29	404	0	10000	4	1	0	4	0
36	405	0	10000	4	1	0	4	0
46	406	0	10000	4	1	0	4	0
52	407	0	10000	4	1	0	4	0
52	408	0	10000	4	1	0	4	0
54	409	0	10000	4	1	0	4	0
57	410	0	10000	4	1	0	4	0
60	411	0	10000	4	1	0	4	0
59	412	0	10000	4	1	0	4	0
59	413	0	10000	4	1	0	4	0
57	414	0	10000	4	1	0	4	0
56	415	0	10000	4	1	0	4	0
53	416	0	10000	4	1	0	4	0
49	417	0	10000	4	1	0	4	0
49	418	0	10000	4	1	0	4	0
51	419	0	10000	4	1	0	4	0
54	420	0	10000	4	1	0	4	0
58	421	0	10000	4	1	0	4	0
59	422	0	10000	4	1	0	4	0
57	423	0	10000	4	1	0	4	0
56	424	0	10000	4	1	0	4	0
56	425	0	10000	4	1	0	4	0
56	426	0	10000	4	1	0	4	0
58	427	0	10000	4	1	0	4	0
59	428	0	10000	4	1	0	4	0
61	429	0	10000	4	1	0	4	0
63	430	0	10000	4	1	0	4	0
67	431	0	10000	4	1	0	4	0
71	432	0	10000	4	1	0	4	0
74	433	0	10000	4	1	0	4	0
75	434	0	10000	4	1	0	4	0
73	435	0	10000	4	1	0	4	0
72	436	0	10000	4	1	0	4	0
71	437	0	10000	4	1	0	4	0
70	438	0	10000	4	1	0	4	0
68	439	0	10000	4	1	0	4	0
67	440	0	10000	4	1	0	4	0
63	441	0	10000	4	1	0	4	0
64	442	0	10000	4	1	0	4	0
66	443	0	10000	4	1	0	4	0
64	444	0	10000	4	1	0	4	0
61	445	0	10000	4	1	0	4	0
61	446	0	10000	4	1	0	4	0
61	447	0	10000	4	1	0	4	0
59	448	0	10000	4	1	0	4	0
57	449	0	10000	4	1	0	4	0
56	450	0	10000	4	1	0	4	0
57	451	0	10000	4	1	0	4	0
57	452	0	10000	4	1	0	4	0
56	453	0	10000	4	1	0	4	0
55	454	0	10000	4	1	0	4	0
55	455	0	10000	4	1	0	4	0
54	456	0	10000	4	1	0	4	0
52	457	0	10000	4	1	0	4	0
53	458	0	10000	4	1	0	4	0
53	459	0	10000	4	1	0	4	0
54	460	0	10000	4	1	0	4	0
55	461	0	10000	4	1	0	4	0
54	462	0	10000	4	1	0	4	0
52	463	0	10000	4	1	0	4	0
50	464	0	10000	4	1	0	4	0
50	465	0	10000	4	1	0	4	0
52	466	0	10000	4	1	0	4	0
53	467	0	10000	4	1	0	4	0
52	468	0	10000	4	1	0	4	0
51	469	0	10000	4	1	0	4	0
51	470	0	10000	4	1	0	4	0
50	471	0	10000	4	1	0	4	0
50	472	0	10000	4	1	0	4	0
49	473	0	10000	4	1	0	4	0
46	474	0	10000	4	1	0	4	0
45	475	0	10000	4	1	0	4	0
44	476	0	10000	4	1	0	4	0
44	477	0	10000	4	1	0	4	0
47	478	0	10000	4	1	0	4	0
47	479	0	10000	4	1	0	4	0
47	480	0	10000	4	1	0	4	0
46	481	0	10000	4	1	0	4	0
44	482	0	10000	4	1	0	4	0
43	483	0	10000	4	1	0	4	0
42	484	0	10000	4	1	0	4	0
43	485	0	10000	4	1	0	4	0
48	486	0	10000	4	1	0	4	0
54	487	0	10000	4	1	0	4	0
58	488	0	10000	4	1	0	4	0
59	489	0	10000	4	1	0	4	0
58	490	0	10000	4	1	0	4	0
56	491	0	10000	4	1	0	4	0
55	492	0	10000	4	1	0	4	0
54	493	0	10000	4	1	0	4	0
53	494	0	10000	4	1	0	4	0
51	495	0	10000	4	1	0	4	0
48	496	0	10000	4	1	0	4	0
45	497	0	10000	4	1	0	4	0
46	498	0	10000	4	1	0	4	0
45	499	0	10000	4	1	0	4	0
44	500	0	10000	4	1	0	4	0
43	501	0	10000	4	1	0	4	0
43	502	0	10000	4	1	0	4	1
43	503	0	10000	4	1	0	4	1
40	504	0	10000	4	1	0	4	1
38	505	0	10000	4	1	0	4	1
38	506	0	10000	4	1	0	4	1
40	507	0	10000	4	1	0	4	1
40	508	0	10000	4	1	0	4	1
40	509	0	10000	4	1	0	4	1
41	510	0	10000	4	1	0	4	1
42	511	0	10000	4	1	0	4	1
42	512	0	10000	4	1	0	4	1
44	513	0	10000	4	1	0	4	1
48	514	0	10000	4	1	0	4	1
51	515	0	10000	4	1	0	4	1
50	516	0	10000	4	1	0	4	1
48	517	0	10000	4	1	0	4	1
46	518	0	10000	4	1	0	4	1
44	519	0	10000	4	1	0	4	1
45	520	0	10000	4	1	0	4	1
46	521	0	10000	4	1	0	4	1
46	522	0	10000	4	1	0	4	1
46	523	0	10000	4	1	0	4	1
48	524	0	10000	4	1	0	4	1
44	525	0	10000	4	1	0	4	1
44	526	0	10000	4	1	0	4	1
45	527	0	10000	4	1	0	4	1
42	528	0	10000	4	1	0	4	1
42	529	0	10000	4	1	0	4	1
42	530	0	10000	4	1	0	4	1
41	531	0	10000	4	1	0	4	1
40	532	0	10000	4	1	0	4	1
41	533	0	10000	4	1	0	4	1
42	534	0	10000	4	1	0	4	1
42	535	0	10000	4	1	0	4	1
42	536	0	10000	4	1	0	4	1
40	537	0	10000	4	1	0	4	1
42	538	0	10000	4	1	0	4	1
43	539	0	10000	4	1	0	4	1
42	540	0	10000	4	1	0	4	1
41	541	0	10000	4	1	0	4	1
41	542	0	10000	4	1	0	4	1
42	543	0	10000	4	1	0	4	1
44	544	0	10000	4	1	0	4	1
46	545	0	10000	4	1	0	4	1
47	546	0	10000	4	1	0	4	1
48	547	0	10000	4	1	0	4	1
47	548	0	10000	4	1	0	4	1
47	549	0	10000	4	1	0	4	1
46	550	0	10000	4	1	0	4	1
45	551	0	10000	4	1	0	4	1
46	552	0	10000	4	1	0	4	0
48	553	0	10000	4	1	0	4	0
50	554	0	10000	4	1	0	4	0
48	555	0	10000	4	1	0	4	0
46	556	0	10000	4	1	0	4	0
43	557	0	10000	4	1	0	4	0
41	558	0	10000	4	1	0	4	0
42	559	0	10000	4	1	0	4	0
43	560	0	10000	4	1	0	4	0
41	561	0	10000	4	1	0	4	0
41	562	0	10000	4	1	0	4	0
43	563	0	10000	4	1	0	4	0
43	564	0	10000	4	1	0	4	0
41	565	0	10000	4	1	0	4	0
41	566	0	10000	4	1	0	4	0
41	567	0	10000	4	1	0	4	0
40	568	0	10000	4	1	0	4	0
39	569	0	10000	4	1	0	4	0
40	570	0	10000	4	1	0	4	0
39	571	0	10000	4	1	0	4	0
37	572	0	10000	4	1	0	4	0
36	573	0	10000	4	1	0	4	0
37	574	0	10000	4	1	0	4	0
36	575	0	10000	4	1	0	4	0
35	576	0	10000	4	1	0	4	0
32	577	0	10000	4	1	0	4	0
32	578	0	10000	4	1	0	4	0
33	579	0	10000	4	1	0	4	0
34	580	0	10000	4	1	0	4	0
34	581	0	10000	4	1	0	4	0
34	582	0	10000	4	1	0	4	0
37	583	0	10000	4	1	0	4	0
47	584	0	10000	4	1	0	4	0
62	585	0	10000	4	1	0	4	0
69	586	0	10000	4	1	0	4	0
74	587	0	10000	4	1	0	4	0
112	588	0	10000	4	1	0	4	0
174	589	0	10000	4	1	0	4	0
205	590	0	10000	4	1	0	4	0
216	591	0	10000	4	1	0	4	0
253	592	0	10000	4	1	0	4	0
273	593	0	10000	4	1	0	4	0
292	594	0	10000	4	1	0	4	0
295	595	0	10000	4	1	0	4	0
304	596	0	10000	4	1	0	4	0
364	597	0	10000	4	1	0	4	0
421	598	0	10000	4	1	0	4	0
421	599	0	10000	4	1	0	4	0
463	600	0	10000	4	1	0	4	0
557	601	0	10000	4	1	0	4	0
647	602	0	10000	4	1	0	4	0
697	603	0	10000	4	1	0	4	0
698	604	0	10000	4	1	0	4	0
748	605	0	10000	4	1	0	4	0
781	606	0	10000	4	1	0	4	0
777	607	0	10000	4	1	0	4	0
801	608	0	10000	4	1	0	4	0
862	609	0	10000	4	1	0	4	0
885	610	0	10000	4	1	0	4	0
856	611	0	10000	4	1	0	4	0
818	612	0	10000	4	1	0	4	0
807	613	0	10000	4	1	0	4	0
776	614	0	10000	4	1	0	4	0
795	615	0	10000	4	1	0	4	0
819	616	0	10000	4	1	0	4	0
796	617	0	10000	4	1	0	4	0
802	618	0	10000	4	1	0	4	0
805	619	0	10000	4	1	0	4	0
792	620	0	10000	4	1	0	4	0
760	621	0	10000	4	1	0	4	0
734	622	0	10000	4	1	0	4	0
712	623	0	10000	4	1	0	4	0
693	624	0	10000	4	1	0	4	0
675	625	0	10000	4	1	0	4	0
659	626	0	10000	4	1	0	4	0
643	627	0	10000	4	1	0	4	0
627	628	0	10000	4	1	0	4	0
613	629	0	10000	4	1	0	4	0
604	630	0	10000	4	1	0	4	0
595	631	0	10000	4	1	0	4	0
584	632	0	10000	4	1	0	4	0
568	633	0	10000	4	1	0	4	0
555	634	0	10000	4	1	0	4	0
542	635	0	10000	4	1	0	4	0
530	636	0	10000	4	1	0	4	0
519	637	0	10000	4	1	0	4	0
519	638	0	10000	4	1	0	4	0
517	639	0	10000	4	1	0	4	0
502	640	0	10000	4	1	0	4	0
482	641	0	10000	4	1	0	4	0
466	642	0	10000	4	1	0	4	0
445	643	0	10000	4	1	0	4	0
425	644	0	10000	4	1	0	4	0
406	645	0	10000	4	1	0	4	0
395	646	0	10000	4	1	0	4	0
384	647	0	10000	4	1	0	4	0
367	648	0	10000	4	1	0	4	0
351	649	0	10000	4	1	0	4	0
341	650	0	10000	4	1	0	4	0
336	651	0	10000	4	1	0	4	0
323	652	0	10000	4	1	0	4	0
311	653	0	10000	4	1	0	4	0
309	654	0	10000	4	1	0	4	0
309	655	0	10000	4	1	0	4	0
305	656	0	10000	4	1	0	4	0
302	657	0	10000	4	1	0	4	0
306	658	0	10000	4	1	0	4	0
311	659	0	10000	4	1	0	4	0
312	660	0	10000	4	1	0	4	0
304	661	0	10000	4	1	0	4	0
294	662	0	10000	4	1	0	4	0
286	663	0	10000	4	1	0	4	0
278	664	0	10000	4	1	0	4	0
271	665	0	10000	4	1	0	4	0
263	666	0	10000	4	1	0	4	0
254	667	0	10000	4	1	0	4	0
252	668	0	10000	4	1	0	4	0
260	669	0	10000	4	1	0	4	0
259	670	0	10000	4	1	0	4	0
249	671	0	10000	4	1	0	4	0
240	672	0	10000	4	1	0	4	0
235	673	0	10000	4	1	0	4	0
232	674	0	10000	4	1	0	4	0
232	675	0	10000	4	1	0	4	0
228	676	0	10000	4	1	0	4	0
221	677	0	10000	4	1	0	4	0
220	678	0	10000	4	1	0	4	0
221	679	0	10000	4	1	0	4	0
222	680	0	10000	4	1	0	4	0
222	681	0	10000	4	1	0	4	0
220	682	0	10000	4	1	0	4	0
211	683	0	10000	4	1	0	4	0
205	684	0	10000	4	1	0	4	0
198	685	0	10000	4	1	0	4	0
197	686	0	10000	4	1	0	4	0
192	687	0	10000	4	1	0	4	0
190	688	0	10000	4	1	0	4	0
185	689	0	10000	4	1	0	4	0
177	690	0	10000	4	1	0	4	0
174	691	0	10000	4	1	0	4	0
189	692	0	10000	4	1	0	4	0
205	693	0	10000	4	1	0	4	0
209	694	0	10000	4	1	0	4	0
205	695	0	10000	4	1	0	4	0
214	696	0	10000	4	1	0	4	0
214	697	0	10000	4	1	0	4	0
208	698	0	10000	4	1	0	4	0
204	699	0	10000	4	1	0	4	0
198	700	0	10000	4	1	0	4	0
189	701	0	10000	4	1	0	4	0
184	702	0	10000	4	1	0	4	0
198	703	0	10000	4	1	0	4	0
213	704	0	10000	4	1	0	4	0
208	705	0	10000	4	1	0	4	0
228	706	0	10000	4	1	0	4	0
284	707	0	10000	4	1	0	4	0
322	708	0	10000	4	1	0	4	0
332	709	0	10000	4	1	0	4	0
321	710	0	10000	4	1	0	4	0
312	711	0	10000	4	1	0	4	0
304	712	0	10000	4	1	0	4	0
305	713	0	10000	4	1	0	4	0
311	714	0	10000	4	1	0	4	0
313	715	0	10000	4	1	0	4	0
310	716	0	10000	4	1	0	4	0
297	717	0	10000	4	1	0	4	0
289	718	0	10000	4	1	0	4	0
288	719	0	10000	4	1	0	4	0
290	720	0	10000	4	1	0	4	0
290	721	0	10000	4	1	0	4	0
283	722	0	10000	4	1	0	4	0
275	723	0	10000	4	1	0	4	0
265	724	0	10000	4	1	0	4	0
253	725	0	10000	4	1	0	4	0
245	726	0	10000	4	1	0	4	0
240	727	0	10000	4	1	0	4	0
231	728	0	10000	4	1	0	4	0
224	729	0	10000	4	1	0	4	0
217	730	0	10000	4	1	0	4	0
210	731	0	10000	4	1	0	4	0
203	732	0	10000	4	1	0	4	0
200	733	0	10000	4	1	0	4	0
197	734	0	10000	4	1	0	4	0
195	735	0	10000	4	1	0	4	0
193	736	0	10000	4	1	0	4	0
190	737	0	10000	4	1	0	4	0
191	738	0	10000	4	1	0	4	0
193	739	0	10000	4	1	0	4	0
198	740	0	10000	4	1	0	4	0
203	741	0	10000	4	1	0	4	0
208	742	0	10000	4	1	0	4	0
209	743	0	10000	4	1	0	4	0
208	744	0	10000	4	1	0	4	0
202	745	0	10000	4	1	0	4	0
194	746	0	10000	4	1	0	4	0
188	747	0	10000	4	1	0	4	0
183	748	0	10000	4	1	0	4	0
180	749	0	10000	4	1	0	4	0
179	750	0	10000	4	1	0	4	0
175	751	0	10000	4	1	0	4	0
168	752	0	10000	4	1	0	4	0
165	753	0	10000	4	1	0	4	0
167	754	0	10000	4	1	0	4	0
167	755	0	10000	4	1	0	4	0
162	756	0	10000	4	1	0	4	0
162	757	0	10000	4	1	0	4	0
168	758	0	10000	4	1	0	4	0
174	759	0	10000	4	1	0	4	0
180	760	0	10000	4	1	0	4	0
184	761	0	10000	4	1	0	4	0
179	762	0	10000	4	1	0	4	0
173	763	0	10000	4	1	0	4	0
169	764	0	10000	4	1	0	4	0
166	765	0	10000	4	1	0	4	0
162	766	0	10000	4	1	0	4	0
157	767	0	10000	4	1	0	4	0
151	768	0	10000	4	1	0	4	0
144	769	0	10000	4	1	0	4	0
138	770	0	10000	4	1	0	4	0
137	771	0	10000	4	1	0	4	0
140	772	0	10000	4	1	0	4	0
143	773	0	10000	4	1	0	4	0
142	774	0	10000	4	1	0	4	0
137	775	0	10000	4	1	0	4	0
131	776	0	10000	4	1	0	4	0
127	777	0	10000	4	1	0	4	0
132	778	0	10000	4	1	0	4	0
134	779	0	10000	4	1	0	4	0
133	780	0	10000	4	1	0	4	0
136	781	0	10000	4	1	0	4	0
132	782	0	10000	4	1	0	4	0
134	783	0	10000	4	1	0	4	0
149	784	0	10000	4	1	0	4	0
154	785	0	10000	4	1	0	4	0
156	786	0	10000	4	1	0	4	0
171	787	0	10000	4	1	0	4	0
180	788	0	10000	4	1	0	4	0
183	789	0	10000	4	1	0	4	0
185	790	0	10000	4	1	0	4	0
182	791	0	10000	4	1	0	4	0
176	792	0	10000	4	1	0	4	0
181	793	0	10000	4	1	0	4	0
176	794	0	10000	4	1	0	4	0
173	795	0	10000	4	1	0	4	0
169	796	0	10000	4	1	0	4	0
162	797	0	10000	4	1	0	4	0
172	798	0	10000	4	1	0	4	0
190	799	0	10000	4	1	0	4	0
188	800	0	10000	4	1	0	4	0
192	801	0	10000	4	1	0	4	0
196	802	0	10000	4	1	0	4	0
191	803	0	10000	4	1	0	4	0
183	804	0	10000	4	1	0	4	0
176	805	0	10000	4	1	0	4	0
170	806	0	10000	4	1	0	4	0
169	807	0	10000	4	1	0	4	0
164	808	0	10000	4	1	0	4	0
157	809	0	10000	4	1	0	4	0
154	810	0	10000	4	1	0	4	0
150	811	0	10000	4	1	0	4	0
145	812	0	10000	4	1	0	4	0
143	813	0	10000	4	1	0	4	0
140	814	0	10000	4	1	0	4	0
135	815	0	10000	4	1	0	4	0
137	816	0	10000	4	1	0	4	0
138	817	0	10000	4	1	0	4	0
135	818	0	10000	4	1	0	4	0
131	819	0	10000	4	1	0	4	0
129	820	0	10000	4	1	0	4	0
130	821	0	10000	4	1	0	4	0
127	822	0	10000	4	1	0	4	0
128	823	0	10000	4	1	0	4	0
128	824	0	10000	4	1	0	4	0
123	825	0	10000	4	1	0	4	0
119	826	0	10000	4	1	0	4	0
125	827	0	10000	4	1	0	4	0
139	828	0	10000	4	1	0	4	0
165	829	0	10000	4	1	0	4	0
186	830	0	10000	4	1	0	4	0
186	831	0	10000	4	1	0	4	0
199	832	0	10000	4	1	0	4	0
219	833	0	10000	4	1	0	4	0
235	834	0	10000	4	1	0	4	0
248	835	0	10000	4	1	0	4	0
254	836	0	10000	4	1	0	4	0
265	837	0	10000	4	1	0	4	0
289	838	0	10000	4	1	0	4	0
297	839	0	10000	4	1	0	4	0
301	840	0	10000	4	1	0	4	0
312	841	0	10000	4	1	0	4	0
305	842	0	10000	4	1	0	4	0
293	843	0	10000	4	1	0	4	0
282	844	0	10000	4	1	0	4	0
275	845	0	10000	4	1	0	4	0
271	846	0	10000	4	1	0	4	0
268	847	0	10000	4	1	0	4	0
258	848	0	10000	4	1	0	4	0
250	849	0	10000	4	1	0	4	0
241	850	0	10000	4	1	0	4	0
237	851	0	10000	4	1	0	4	0
232	852	0	10000	4	1	0	4	0
225	853	0	10000	4	1	0	4	0
218	854	0	10000	4	1	0	4	0
213	855	0	10000	4	1	0	4	0
232	856	0	10000	4	1	0	4	0
258	857	0	10000	4	1	0	4	0
257	858	0	10000	4	1	0	4	0
254	859	0	10000	4	1	0	4	0
253	860	0	10000	4	1	0	4	0
254	861	0	10000	4	1	0	4	0
251	862	0	10000	4	1	0	4	0
242	863	0	10000	4	1	0	4	0
231	864	0	10000	4	1	0	4	0
222	865	0	10000	4	1	0	4	0
218	866	0	10000	4	1	0	4	0
216	867	0	10000	4	1	0	4	0
210	868	0	10000	4	1	0	4	0
201	869	0	10000	4	1	0	4	0
194	870	0	10000	4	1	0	4	0
186	871	0	10000	4	1	0	4	0
179	872	0	10000	4	1	0	4	0
177	873	0	10000	4	1	0	4	0
177	874	0	10000	4	1	0	4	0
172	875	0	10000	4	1	0	4	0
165	876	0	10000	4	1	0	4	0
156	877	0	10000	4	1	0	4	0
152	878	0	10000	4	1	0	4	0
146	879	0	10000	4	1	0	4	0
143	880	0	10000	4	1	0	4	0
150	881	0	10000	4	1	0	4	0
173	882	0	10000	4	1	0	4	0
182	883	0	10000	4	1	0	4	0
179	884	0	10000	4	1	0	4	0
183	885	0	10000	4	1	0	4	0
180	886	0	10000	4	1	0	4	0
175	887	0	10000	4	1	0	4	0
176	888	0	10000	4	1	0	4	0
176	889	0	10000	4	1	0	4	0
186	890	0	10000	4	1	0	4	0
208	891	0	10000	4	1	0	4	0
218	892	0	10000	4	1	0	4	0
216	893	0	10000	4	1	0	4	0
207	894	0	10000	4	1	0	4	0
198	895	0	10000	4	1	0	4	0
192	896	0	10000	4	1	0	4	0
189	897	0	10000	4	1	0	4	0
186	898	0	10000	4	1	0	4	0
186	899	0	10000	4	1	0	4	0
186	900	0	10000	4	1	0	4	0
181	901	0	10000	4	1	0	4	0
187	902	0	10000	4	1	0	4	0
196	903	0	10000	4	1	0	4	0
201	904	0	10000	4	1	0	4	0
213	905	0	10000	4	1	0	4	0
214	906	0	10000	4	1	0	4	0
209	907	0	10000	4	1	0	4	0
209	908	0	10000	4	1	0	4	0
215	909	0	10000	4	1	0	4	0
213	910	0	10000	4	1	0	4	0
205	911	0	10000	4	1	0	4	0
197	912	0	10000	4	1	0	4	0
190	913	0	10000	4	1	0	4	0
189	914	0	10000	4	1	0	4	0
183	915	0	10000	4	1	0	4	0
175	916	0	10000	4	1	0	4	0
167	917	0	10000	4	1	0	4	0
167	918	0	10000	4	1	0	4	0
171	919	0	10000	4	1	0	4	0
176	920	0	10000	4	1	0	4	0
176	921	0	10000	4	1	0	4	0
175	922	0	10000	4	1	0	4	0
171	923	0	10000	4	1	0	4	0
172	924	0	10000	4	1	0	4	0
172	925	0	10000	4	1	0	4	0
174	926	0	10000	4	1	0	4	0
169	927	0	10000	4	1	0	4	0
162	928	0	10000	4	1	0	4	0
159	929	0	10000	4	1	0	4	0
157	930	0	10000	4	1	0	4	0
150	931	0	10000	4	1	0	4	0
150	932	0	10000	4	1	0	4	0
147	933	0	10000	4	1	0	4	0
158	934	0	10000	4	1	0	4	0
167	935	0	10000	4	1	0	4	0
162	936	0	10000	4	1	0	4	0
162	937	0	10000	4	1	0	4	0
164	938	0	10000	4	1	0	4	0
159	939	0	10000	4	1	0	4	0
153	940	0	10000	4	1	0	4	0
151	941	0	10000	4	1	0	4	0
145	942	0	10000	4	1	0	4	0
141	943	0	10000	4	1	0	4	0
143	944	0	10000	4	1	0	4	0
143	945	0	10000	4	1	0	4	0
138	946	0	10000	4	1	0	4	0
139	947	0	10000	4	1	0	4	0
137	948	0	10000	4	1	0	4	0
143	949	0	10000	4	1	0	4	0
141	950	0	10000	4	1	0	4	0
140	951	0	10000	4	1	0	4	0
135	952	0	10000	4	1	0	4	0
133	953	0	10000	4	1	0	4	0
133	954	0	10000	4	1	0	4	0
132	955	0	10000	4	1	0	4	0
127	956	0	10000	4	1	0	4	0
121	957	0	10000	4	1	0	4	0
117	958	0	10000	4	1	0	4	0
112	959	0	10000	4	1	0	4	0
109	960	0	10000	4	1	0	4	0
105	961	0	10000	4	1	0	4	0
102	962	0	10000	4	1	0	4	0
101	963	0	10000	4	1	0	4	0
99	964	0	10000	4	1	0	4	0
96	965	0	10000	4	1	0	4	0
94	966	0	10000	4	1	0	4	0
92	967	0	10000	4	1	0	4	0
87	968	0	10000	4	1	0	4	0
83	969	0	10000	4	1	0	4	0
80	970	0	10000	4	1	0	4	0
78	971	0	10000	4	1	0	4	0
80	972	0	10000	4	1	0	4	0
88	973	0	10000	4	1	0	4	0
88	974	0	10000	4	1	0	4	0
91	975	0	10000	4	1	0	4	0
101	976	0	10000	4	1	0	4	0
107	977	0	10000	4	1	0	4	0
108	978	0	10000	4	1	0	4	0
110	979	0	10000	4	1	0	4	0
117	980	0	10000	4	1	0	4	0
125	981	0	10000	4	1	0	4	0
134	982	0	10000	4	1	0	4	0
141	983	0	10000	4	1	0	4	0
140	984	0	10000	4	1	0	4	0
152	985	0	10000	4	1	0	4	0
165	986	0	10000	4	1	0	4	0
181	987	0	10000	4	1	0	4	0
198	988	0	10000	4	1	0	4	0
197	989	0	10000	4	1	0	4	0
204	990	0	10000	4	1	0	4	0
219	991	0	10000	4	1	0	4	0
217	992	0	10000	4	1	0	4	0
209	993	0	10000	4	1	0	4	0
202	994	0	10000	4	1	0	4	0
198	995	0	10000	4	1	0	4	0
192	996	0	10000	4	1	0	4	0
183	997	0	10000	4	1	0	4	0
175	998	0	10000	4	1	0	4	0
167	999	0	10000	4	1	0	4	0
161	1000	0	10000	4	1	0	4	0
158	1001	0	10000	4	1	0	4	0
47	2	7	10000	5	1	0	5	0
47	3	7	10000	5	1	0	5	0
46	4	7	10000	5	1	0	5	0
44	5	7	10000	5	1	0	5	0
44	6	7	10000	5	1	0	5	0
43	7	7	10000	5	1	0	5	0
42	8	7	10000	5	1	0	5	0
41	9	7	10000	5	1	0	5	0
42	10	7	10000	5	1	0	5	0
42	11	7	10000	5	1	0	5	0
39	12	7	10000	5	1	0	5	0
38	13	7	10000	5	1	0	5	0
37	14	7	10000	5	1	0	5	0
39	15	7	10000	5	1	0	5	0
40	16	7	10000	5	1	0	5	0
41	17	7	10000	5	1	0	5	0
40	18	7	10000	5	1	0	5	0
43	19	7	10000	5	1	0	5	0
46	20	7	10000	5	1	0	5	0
48	21	7	10000	5	1	0	5	0
47	22	7	10000	5	1	0	5	0
46	23	7	10000	5	1	0	5	0
49	24	7	10000	5	1	0	5	0
50	25	7	10000	5	1	0	5	0
50	26	7	10000	5	1	0	5	0
50	27	7	10000	5	1	0	5	0
48	28	7	10000	5	1	0	5	0
48	29	7	10000	5	1	0	5	0
50	30	7	10000	5	1	0	5	0
52	31	7	10000	5	1	0	5	0
53	32	7	10000	5	1	0	5	0
53	33	7	10000	5	1	0	5	0
53	34	7	10000	5	1	0	5	0
57	35	7	10000	5	1	0	5	0
59	36	7	10000	5	1	0	5	0
59	37	7	10000	5	1	0	5	0
58	38	7	10000	5	1	0	5	0
56	39	7	10000	5	1	0	5	0
52	40	7	10000	5	1	0	5	0
50	41	7	10000	5	1	0	5	0
51	42	7	10000	5	1	0	5	0
51	43	7	10000	5	1	0	5	0
50	44	7	10000	5	1	0	5	0
47	45	7	10000	5	1	0	5	0
45	46	7	10000	5	1	0	5	0
45	47	7	10000	5	1	0	5	0
45	48	7	10000	5	1	0	5	0
49	49	7	10000	5	1	0	5	0
58	50	7	10000	5	1	0	5	0
63	51	7	10000	5	1	0	5	0
62	52	7	10000	5	1	0	5	0
66	53	7	10000	5	1	0	5	0
71	54	7	10000	5	1	0	5	0
75	55	7	10000	5	1	0	5	0
77	56	7	10000	5	1	0	5	0
77	57	7	10000	5	1	0	5	0
77	58	7	10000	5	1	0	5	0
74	59	7	10000	5	1	0	5	0
72	60	7	10000	5	1	0	5	0
68	61	7	10000	5	1	0	5	0
67	62	7	10000	5	1	0	5	0
66	63	7	10000	5	1	0	5	0
64	64	7	10000	5	1	0	5	0
63	65	7	10000	5	1	0	5	0
64	66	7	10000	5	1	0	5	0
67	67	7	10000	5	1	0	5	0
71	68	7	10000	5	1	0	5	0
71	69	7	10000	5	1	0	5	0
70	70	7	10000	5	1	0	5	0
70	71	7	10000	5	1	0	5	0
72	72	7	10000	5	1	0	5	0
75	73	7	10000	5	1	0	5	0
78	74	7	10000	5	1	0	5	0
77	75	7	10000	5	1	0	5	0
74	76	7	10000	5	1	0	5	0
71	77	7	10000	5	1	0	5	0
72	78	7	10000	5	1	0	5	0
75	79	7	10000	5	1	0	5	0
72	80	7	10000	5	1	0	5	0
68	81	7	10000	5	1	0	5	0
68	81	7	10000	5	1	0	5	0
69	82	7	10000	5	1	0	5	0
72	84	7	10000	5	1	0	5	0
70	85	7	10000	5	1	0	5	0
70	86	7	10000	5	1	0	5	0
68	87	7	10000	5	1	0	5	0
66	88	7	10000	5	1	0	5	0
64	89	7	10000	5	1	0	5	0
66	90	7	10000	5	1	0	5	0
68	91	7	10000	5	1	0	5	0
69	92	7	10000	5	1	0	5	0
67	93	7	10000	5	1	0	5	0
63	94	7	10000	5	1	0	5	0
61	95	7	10000	5	1	0	5	0
58	96	7	10000	5	1	0	5	0
56	97	7	10000	5	1	0	5	0
54	98	7	10000	5	1	0	5	0
53	99	7	10000	5	1	0	5	0
53	100	7	10000	5	1	0	5	0
52	101	7	10000	5	1	0	5	0
51	102	7	10000	5	1	0	5	0
55	103	7	10000	5	1	0	5	0
61	104	7	10000	5	1	0	5	0
60	105	7	10000	5	1	0	5	0
58	106	7	10000	5	1	0	5	0
56	107	7	10000	5	1	0	5	0
54	108	7	10000	5	1	0	5	0
55	109	7	10000	5	1	0	5	0
56	110	7	10000	5	1	0	5	0
58	111	7	10000	5	1	0	5	0
61	112	7	10000	5	1	0	5	0
61	113	7	10000	5	1	0	5	0
57	114	7	10000	5	1	0	5	0
56	115	7	10000	5	1	0	5	0
56	116	7	10000	5	1	0	5	0
53	117	7	10000	5	1	0	5	0
53	118	7	10000	5	1	0	5	0
55	119	7	10000	5	1	0	5	0
55	120	7	10000	5	1	0	5	0
55	121	7	10000	5	1	0	5	0
55	122	7	10000	5	1	0	5	0
53	123	7	10000	5	1	0	5	0
53	124	7	10000	5	1	0	5	0
53	125	7	10000	5	1	0	5	0
56	126	7	10000	5	1	0	5	0
60	127	7	10000	5	1	0	5	0
60	128	7	10000	5	1	0	5	0
62	129	7	10000	5	1	0	5	0
65	130	7	10000	5	1	0	5	0
64	131	7	10000	5	1	0	5	0
64	132	7	10000	5	1	0	5	0
64	133	7	10000	5	1	0	5	0
62	134	7	10000	5	1	0	5	0
64	135	7	10000	5	1	0	5	0
67	136	7	10000	5	1	0	5	0
71	137	7	10000	5	1	0	5	0
70	138	7	10000	5	1	0	5	0
68	139	7	10000	5	1	0	5	0
69	140	7	10000	5	1	0	5	0
70	141	7	10000	5	1	0	5	0
68	142	7	10000	5	1	0	5	0
65	143	7	10000	5	1	0	5	0
63	144	7	10000	5	1	0	5	0
60	145	7	10000	5	1	0	5	0
59	146	7	10000	5	1	0	5	0
60	147	7	10000	5	1	0	5	0
62	148	7	10000	5	1	0	5	0
62	149	7	10000	5	1	0	5	0
64	150	7	10000	5	1	0	5	0
64	151	7	10000	5	1	0	5	0
62	152	7	10000	5	1	0	5	0
62	153	7	10000	5	1	0	5	0
60	154	7	10000	5	1	0	5	0
65	155	7	10000	5	1	0	5	0
69	156	7	10000	5	1	0	5	0
67	157	7	10000	5	1	0	5	0
69	158	7	10000	5	1	0	5	0
72	159	7	10000	5	1	0	5	0
72	160	7	10000	5	1	0	5	0
72	161	7	10000	5	1	0	5	0
74	162	7	10000	5	1	0	5	0
73	163	7	10000	5	1	0	5	0
72	164	7	10000	5	1	0	5	0
69	165	7	10000	5	1	0	5	0
70	166	7	10000	5	1	0	5	0
68	167	7	10000	5	1	0	5	0
66	168	7	10000	5	1	0	5	0
64	169	7	10000	5	1	0	5	0
65	170	7	10000	5	1	0	5	0
66	171	7	10000	5	1	0	5	0
63	172	7	10000	5	1	0	5	0
64	173	7	10000	5	1	0	5	0
68	174	7	10000	5	1	0	5	0
69	175	7	10000	5	1	0	5	0
70	176	7	10000	5	1	0	5	0
71	177	7	10000	5	1	0	5	0
69	178	7	10000	5	1	0	5	0
69	179	7	10000	5	1	0	5	0
68	180	7	10000	5	1	0	5	0
69	181	7	10000	5	1	0	5	0
68	182	7	10000	5	1	0	5	0
67	183	7	10000	5	1	0	5	0
64	184	7	10000	5	1	0	5	0
64	185	7	10000	5	1	0	5	0
65	186	7	10000	5	1	0	5	0
63	187	7	10000	5	1	0	5	0
63	188	7	10000	5	1	0	5	0
61	189	7	10000	5	1	0	5	0
61	190	7	10000	5	1	0	5	0
63	191	7	10000	5	1	0	5	0
62	192	7	10000	5	1	0	5	0
60	193	7	10000	5	1	0	5	0
61	194	7	10000	5	1	0	5	0
61	195	7	10000	5	1	0	5	0
60	196	7	10000	5	1	0	5	0
58	197	7	10000	5	1	0	5	0
61	198	7	10000	5	1	0	5	0
62	199	7	10000	5	1	0	5	0
59	200	7	10000	5	1	0	5	0
57	201	7	10000	5	1	0	5	0
58	202	7	10000	5	1	0	5	0
56	203	7	10000	5	1	0	5	0
55	204	7	10000	5	1	0	5	0
52	205	7	10000	5	1	0	5	0
50	206	7	10000	5	1	0	5	0
49	207	7	10000	5	1	0	5	0
51	208	7	10000	5	1	0	5	0
57	209	7	10000	5	1	0	5	0
62	210	7	10000	5	1	0	5	0
61	211	7	10000	5	1	0	5	0
60	212	7	10000	5	1	0	5	0
60	213	7	10000	5	1	0	5	0
57	214	7	10000	5	1	0	5	0
55	215	7	10000	5	1	0	5	0
54	216	7	10000	5	1	0	5	0
55	217	7	10000	5	1	0	5	0
58	218	7	10000	5	1	0	5	0
62	219	7	10000	5	1	0	5	0
61	220	7	10000	5	1	0	5	0
58	221	7	10000	5	1	0	5	0
57	222	7	10000	5	1	0	5	0
56	223	7	10000	5	1	0	5	0
59	224	7	10000	5	1	0	5	0
61	225	7	10000	5	1	0	5	0
59	226	7	10000	5	1	0	5	0
56	227	7	10000	5	1	0	5	0
55	228	7	10000	5	1	0	5	0
54	229	7	10000	5	1	0	5	0
54	230	7	10000	5	1	0	5	0
53	231	7	10000	5	1	0	5	0
51	232	7	10000	5	1	0	5	0
50	233	7	10000	5	1	0	5	0
52	234	7	10000	5	1	0	5	0
53	235	7	10000	5	1	0	5	0
53	236	7	10000	5	1	0	5	0
53	237	7	10000	5	1	0	5	0
55	238	7	10000	5	1	0	5	0
55	239	7	10000	5	1	0	5	0
53	240	7	10000	5	1	0	5	0
50	241	7	10000	5	1	0	5	0
50	242	7	10000	5	1	0	5	0
50	243	7	10000	5	1	0	5	0
48	244	7	10000	5	1	0	5	0
46	245	7	10000	5	1	0	5	0
46	246	7	10000	5	1	0	5	0
46	247	7	10000	5	1	0	5	0
45	248	7	10000	5	1	0	5	0
43	249	7	10000	5	1	0	5	0
43	250	7	10000	5	1	0	5	0
43	251	7	10000	5	1	0	5	0
41	261	7	10000	5	1	0	5	0
40	262	7	10000	5	1	0	5	0
39	263	7	10000	5	1	0	5	0
44	264	7	10000	5	1	0	5	0
51	265	7	10000	5	1	0	5	0
55	266	7	10000	5	1	0	5	0
54	267	7	10000	5	1	0	5	0
54	268	7	10000	5	1	0	5	0
52	269	7	10000	5	1	0	5	0
51	270	7	10000	5	1	0	5	0
51	268	7	10000	5	1	0	5	0
51	269	7	10000	5	1	0	5	0
50	270	7	10000	5	1	0	5	0
54	271	7	10000	5	1	0	5	0
61	272	7	10000	5	1	0	5	0
67	273	7	10000	5	1	0	5	0
71	274	7	10000	5	1	0	5	0
69	275	7	10000	5	1	0	5	0
68	273	7	10000	5	1	0	5	0
67	274	7	10000	5	1	0	5	0
63	275	7	10000	5	1	0	5	0
61	276	7	10000	5	1	0	5	0
62	277	7	10000	5	1	0	5	0
62	278	7	10000	5	1	0	5	0
60	284	7	10000	5	1	0	5	0
58	285	7	10000	5	1	0	5	0
56	286	7	10000	5	1	0	5	0
55	287	7	10000	5	1	0	5	0
52	288	7	10000	5	1	0	5	0
48	289	7	10000	5	1	0	5	0
48	290	7	10000	5	1	0	5	0
48	291	7	10000	5	1	0	5	0
46	292	7	10000	5	1	0	5	0
47	293	7	10000	5	1	0	5	0
46	289	7	10000	5	1	0	5	0
45	290	7	10000	5	1	0	5	0
46	291	7	10000	5	1	0	5	0
45	292	7	10000	5	1	0	5	0
45	293	7	10000	5	1	0	5	0
45	294	7	10000	5	1	0	5	0
45	294	7	10000	5	1	0	5	0
42	295	7	10000	5	1	0	5	0
41	296	7	10000	5	1	0	5	0
40	297	7	10000	5	1	0	5	0
41	299	7	10000	5	1	0	5	0
45	300	7	10000	5	1	0	5	0
52	301	7	10000	5	1	0	5	0
54	302	7	10000	5	1	0	5	0
52	304	7	10000	5	1	0	5	0
50	305	7	10000	5	1	0	5	0
49	306	7	10000	5	1	0	5	0
49	307	7	10000	5	1	0	5	0
48	308	7	10000	5	1	0	5	0
46	309	7	10000	5	1	0	5	0
46	312	7	10000	5	1	0	5	0
45	313	7	10000	5	1	0	5	0
44	314	7	10000	5	1	0	5	0
44	315	7	10000	5	1	0	5	0
46	316	7	10000	5	1	0	5	0
46	317	7	10000	5	1	0	5	0
44	318	7	10000	5	1	0	5	0
43	319	7	10000	5	1	0	5	0
44	317	7	10000	5	1	0	5	0
45	318	7	10000	5	1	0	5	0
43	319	7	10000	5	1	0	5	0
42	320	7	10000	5	1	0	5	0
41	321	7	10000	5	1	0	5	0
42	322	7	10000	5	1	0	5	0
39	322	7	10000	5	1	0	5	0
37	323	7	10000	5	1	0	5	0
37	324	7	10000	5	1	0	5	0
36	325	7	10000	5	1	0	5	0
36	328	7	10000	5	1	0	5	0
37	329	7	10000	5	1	0	5	0
37	330	7	10000	5	1	0	5	0
36	331	7	10000	5	1	0	5	0
36	332	7	10000	5	1	0	5	0
35	333	7	10000	5	1	0	5	0
37	333	7	10000	5	1	0	5	0
40	334	7	10000	5	1	0	5	0
40	335	7	10000	5	1	0	5	0
40	336	7	10000	5	1	0	5	0
40	339	7	10000	5	1	0	5	0
42	340	7	10000	5	1	0	5	0
44	341	7	10000	5	1	0	5	0
48	342	7	10000	5	1	0	5	0
54	343	7	10000	5	1	0	5	0
63	344	7	10000	5	1	0	5	0
68	345	7	10000	5	1	0	5	0
68	346	7	10000	5	1	0	5	0
67	344	7	10000	5	1	0	5	0
67	345	7	10000	5	1	0	5	0
67	346	7	10000	5	1	0	5	0
66	347	7	10000	5	1	0	5	0
65	349	7	10000	5	1	0	5	0
62	350	7	10000	5	1	0	5	0
62	351	7	10000	5	1	0	5	0
63	352	7	10000	5	1	0	5	0
62	353	7	10000	5	1	0	5	0
61	354	7	10000	5	1	0	5	0
61	356	7	10000	5	1	0	5	0
61	357	7	10000	5	1	0	5	0
59	358	7	10000	5	1	0	5	0
59	359	7	10000	5	1	0	5	0
59	360	7	10000	5	1	0	5	0
58	361	7	10000	5	1	0	5	0
58	360	7	10000	5	1	0	5	0
60	361	7	10000	5	1	0	5	0
59	362	7	10000	5	1	0	5	0
56	363	7	10000	5	1	0	5	0
56	367	7	10000	5	1	0	5	0
56	368	7	10000	5	1	0	5	0
55	369	7	10000	5	1	0	5	0
52	370	7	10000	5	1	0	5	0
50	371	7	10000	5	1	0	5	0
49	372	7	10000	5	1	0	5	0
49	371	7	10000	5	1	0	5	0
50	372	7	10000	5	1	0	5	0
51	373	7	10000	5	1	0	5	0
52	374	7	10000	5	1	0	5	0
53	375	7	10000	5	1	0	5	0
54	376	7	10000	5	1	0	5	0
55	378	7	10000	5	1	0	5	0
54	379	7	10000	5	1	0	5	0
52	380	7	10000	5	1	0	5	0
50	381	7	10000	5	1	0	5	0
49	382	7	10000	5	1	0	5	0
48	383	7	10000	5	1	0	5	0
46	383	7	10000	5	1	0	5	0
44	384	7	10000	5	1	0	5	0
42	385	7	10000	5	1	0	5	0
42	386	7	10000	5	1	0	5	0
44	389	7	10000	5	1	0	5	0
43	390	7	10000	5	1	0	5	0
42	391	7	10000	5	1	0	5	0
40	392	7	10000	5	1	0	5	0
42	393	7	10000	5	1	0	5	0
44	394	7	10000	5	1	0	5	0
46	395	7	10000	5	1	0	5	0
46	396	7	10000	5	1	0	5	0
48	393	7	10000	5	1	0	5	0
52	394	7	10000	5	1	0	5	0
54	395	7	10000	5	1	0	5	0
54	396	7	10000	5	1	0	5	0
53	396	7	10000	5	1	0	5	0
51	397	7	10000	5	1	0	5	0
49	398	7	10000	5	1	0	5	0
48	399	7	10000	5	1	0	5	0
47	400	7	10000	5	1	0	5	0
50	401	7	10000	5	1	0	5	0
55	402	7	10000	5	1	0	5	0
57	403	7	10000	5	1	0	5	0
57	404	7	10000	5	1	0	5	0
62	405	7	10000	5	1	0	5	0
68	406	7	10000	5	1	0	5	0
71	407	7	10000	5	1	0	5	0
69	408	7	10000	5	1	0	5	0
66	409	7	10000	5	1	0	5	0
66	410	7	10000	5	1	0	5	0
65	411	7	10000	5	1	0	5	0
62	412	7	10000	5	1	0	5	0
61	413	7	10000	5	1	0	5	0
60	414	7	10000	5	1	0	5	0
58	415	7	10000	5	1	0	5	0
56	416	7	10000	5	1	0	5	0
55	417	7	10000	5	1	0	5	0
54	418	7	10000	5	1	0	5	0
53	419	7	10000	5	1	0	5	0
50	420	7	10000	5	1	0	5	0
48	421	7	10000	5	1	0	5	0
49	422	7	10000	5	1	0	5	0
48	423	7	10000	5	1	0	5	0
46	424	7	10000	5	1	0	5	0
45	425	7	10000	5	1	0	5	0
46	426	7	10000	5	1	0	5	0
44	427	7	10000	5	1	0	5	0
46	428	7	10000	5	1	0	5	0
46	429	7	10000	5	1	0	5	0
45	430	7	10000	5	1	0	5	0
45	431	7	10000	5	1	0	5	0
43	432	7	10000	5	1	0	5	0
42	433	7	10000	5	1	0	5	0
44	434	7	10000	5	1	0	5	0
47	435	7	10000	5	1	0	5	0
48	436	7	10000	5	1	0	5	0
54	437	7	10000	5	1	0	5	0
64	438	7	10000	5	1	0	5	0
69	439	7	10000	5	1	0	5	0
68	440	7	10000	5	1	0	5	0
66	441	7	10000	5	1	0	5	0
69	442	7	10000	5	1	0	5	0
72	443	7	10000	5	1	0	5	0
72	444	7	10000	5	1	0	5	0
72	445	7	10000	5	1	0	5	0
73	446	7	10000	5	1	0	5	0
71	447	7	10000	5	1	0	5	0
70	448	7	10000	5	1	0	5	0
71	449	7	10000	5	1	0	5	0
71	450	7	10000	5	1	0	5	0
70	451	7	10000	5	1	0	5	0
68	452	7	10000	5	1	0	5	0
66	453	7	10000	5	1	0	5	0
65	454	7	10000	5	1	0	5	0
68	455	7	10000	5	1	0	5	0
70	456	7	10000	5	1	0	5	0
70	457	7	10000	5	1	0	5	0
69	458	7	10000	5	1	0	5	0
70	459	7	10000	5	1	0	5	0
70	460	7	10000	5	1	0	5	0
69	461	7	10000	5	1	0	5	0
70	462	7	10000	5	1	0	5	0
69	463	7	10000	5	1	0	5	0
69	464	7	10000	5	1	0	5	0
81	465	7	10000	5	1	0	5	0
101	466	7	10000	5	1	0	5	0
109	467	7	10000	5	1	0	5	0
107	468	7	10000	5	1	0	5	0
110	469	7	10000	5	1	0	5	0
110	470	7	10000	5	1	0	5	0
119	471	7	10000	5	1	0	5	0
121	472	7	10000	5	1	0	5	0
126	473	7	10000	5	1	0	5	0
136	474	7	10000	5	1	0	5	0
145	475	7	10000	5	1	0	5	0
148	476	7	10000	5	1	0	5	0
148	477	7	10000	5	1	0	5	0
145	478	7	10000	5	1	0	5	0
153	479	7	10000	5	1	0	5	0
166	480	7	10000	5	1	0	5	0
173	481	7	10000	5	1	0	5	0
171	482	7	10000	5	1	0	5	0
166	483	7	10000	5	1	0	5	0
163	484	7	10000	5	1	0	5	0
159	485	7	10000	5	1	0	5	0
165	486	7	10000	5	1	0	5	0
173	487	7	10000	5	1	0	5	0
183	488	7	10000	5	1	0	5	0
199	489	7	10000	5	1	0	5	0
209	490	7	10000	5	1	0	5	0
208	491	7	10000	5	1	0	5	0
199	492	7	10000	5	1	0	5	0
191	493	7	10000	5	1	0	5	0
192	494	7	10000	5	1	0	5	0
208	495	7	10000	5	1	0	5	0
222	496	7	10000	5	1	0	5	0
224	497	7	10000	5	1	0	5	0
218	498	7	10000	5	1	0	5	0
215	499	7	10000	5	1	0	5	0
215	500	7	10000	5	1	0	5	0
215	501	7	10000	5	1	0	5	0
212	501	7	10000	5	1	0	5	1
204	502	7	10000	5	1	0	5	1
204	504	7	10000	5	1	0	5	1
209	505	7	10000	5	1	0	5	1
214	506	7	10000	5	1	0	5	1
214	507	7	10000	5	1	0	5	1
213	508	7	10000	5	1	0	5	1
205	509	7	10000	5	1	0	5	1
198	510	7	10000	5	1	0	5	1
194	511	7	10000	5	1	0	5	1
189	512	7	10000	5	1	0	5	1
200	513	7	10000	5	1	0	5	1
211	514	7	10000	5	1	0	5	1
213	515	7	10000	5	1	0	5	1
206	516	7	10000	5	1	0	5	1
206	517	7	10000	5	1	0	5	1
205	518	7	10000	5	1	0	5	1
202	519	7	10000	5	1	0	5	1
194	520	7	10000	5	1	0	5	1
185	521	7	10000	5	1	0	5	1
181	522	7	10000	5	1	0	5	1
174	523	7	10000	5	1	0	5	1
169	524	7	10000	5	1	0	5	1
162	525	7	10000	5	1	0	5	1
158	526	7	10000	5	1	0	5	1
153	527	7	10000	5	1	0	5	1
150	528	7	10000	5	1	0	5	1
147	529	7	10000	5	1	0	5	1
144	530	7	10000	5	1	0	5	1
140	531	7	10000	5	1	0	5	1
134	532	7	10000	5	1	0	5	1
130	533	7	10000	5	1	0	5	1
128	534	7	10000	5	1	0	5	1
124	535	7	10000	5	1	0	5	1
122	536	7	10000	5	1	0	5	1
117	537	7	10000	5	1	0	5	1
114	538	7	10000	5	1	0	5	1
116	539	7	10000	5	1	0	5	1
128	540	7	10000	5	1	0	5	1
142	541	7	10000	5	1	0	5	1
152	542	7	10000	5	1	0	5	1
152	543	7	10000	5	1	0	5	1
145	544	7	10000	5	1	0	5	1
142	545	7	10000	5	1	0	5	1
141	546	7	10000	5	1	0	5	1
140	547	7	10000	5	1	0	5	1
138	548	7	10000	5	1	0	5	1
133	549	7	10000	5	1	0	5	1
128	550	7	10000	5	1	0	5	1
126	551	7	10000	5	1	0	5	1
124	552	7	10000	5	1	0	5	0
119	553	7	10000	5	1	0	5	0
114	554	7	10000	5	1	0	5	0
111	555	7	10000	5	1	0	5	0
108	556	7	10000	5	1	0	5	0
105	557	7	10000	5	1	0	5	0
104	558	7	10000	5	1	0	5	0
102	559	7	10000	5	1	0	5	0
100	560	7	10000	5	1	0	5	0
96	561	7	10000	5	1	0	5	0
94	562	7	10000	5	1	0	5	0
92	563	7	10000	5	1	0	5	0
92	564	7	10000	5	1	0	5	0
91	565	7	10000	5	1	0	5	0
90	566	7	10000	5	1	0	5	0
92	567	7	10000	5	1	0	5	0
93	568	7	10000	5	1	0	5	0
96	569	7	10000	5	1	0	5	0
103	570	7	10000	5	1	0	5	0
110	571	7	10000	5	1	0	5	0
112	572	7	10000	5	1	0	5	0
115	573	7	10000	5	1	0	5	0
121	574	7	10000	5	1	0	5	0
128	575	7	10000	5	1	0	5	0
131	576	7	10000	5	1	0	5	0
125	577	7	10000	5	1	0	5	0
120	578	7	10000	5	1	0	5	0
116	579	7	10000	5	1	0	5	0
112	580	7	10000	5	1	0	5	0
109	581	7	10000	5	1	0	5	0
109	582	7	10000	5	1	0	5	0
104	583	7	10000	5	1	0	5	0
103	584	7	10000	5	1	0	5	0
104	585	7	10000	5	1	0	5	0
103	586	7	10000	5	1	0	5	0
99	587	7	10000	5	1	0	5	0
98	588	7	10000	5	1	0	5	0
95	589	7	10000	5	1	0	5	0
93	590	7	10000	5	1	0	5	0
94	591	7	10000	5	1	0	5	0
95	592	7	10000	5	1	0	5	0
96	593	7	10000	5	1	0	5	0
92	594	7	10000	5	1	0	5	0
91	595	7	10000	5	1	0	5	0
91	596	7	10000	5	1	0	5	0
87	597	7	10000	5	1	0	5	0
86	598	7	10000	5	1	0	5	0
87	599	7	10000	5	1	0	5	0
92	600	7	10000	5	1	0	5	0
103	601	7	10000	5	1	0	5	0
125	602	7	10000	5	1	0	5	0
143	603	7	10000	5	1	0	5	0
143	604	7	10000	5	1	0	5	0
150	605	7	10000	5	1	0	5	0
203	606	7	10000	5	1	0	5	0
230	607	7	10000	5	1	0	5	0
224	608	7	10000	5	1	0	5	0
218	609	7	10000	5	1	0	5	0
210	610	7	10000	5	1	0	5	0
210	611	7	10000	5	1	0	5	0
214	612	7	10000	5	1	0	5	0
221	613	7	10000	5	1	0	5	0
291	614	7	10000	5	1	0	5	0
362	615	7	10000	5	1	0	5	0
380	616	7	10000	5	1	0	5	0
375	617	7	10000	5	1	0	5	0
367	618	7	10000	5	1	0	5	0
376	619	7	10000	5	1	0	5	0
411	620	7	10000	5	1	0	5	0
411	621	7	10000	5	1	0	5	0
415	622	7	10000	5	1	0	5	0
423	623	7	10000	5	1	0	5	0
413	624	7	10000	5	1	0	5	0
423	625	7	10000	5	1	0	5	0
430	626	7	10000	5	1	0	5	0
427	627	7	10000	5	1	0	5	0
421	628	7	10000	5	1	0	5	0
410	629	7	10000	5	1	0	5	0
393	630	7	10000	5	1	0	5	0
384	631	7	10000	5	1	0	5	0
386	632	7	10000	5	1	0	5	0
398	633	7	10000	5	1	0	5	0
404	634	7	10000	5	1	0	5	0
405	635	7	10000	5	1	0	5	0
410	636	7	10000	5	1	0	5	0
412	637	7	10000	5	1	0	5	0
411	638	7	10000	5	1	0	5	0
411	639	7	10000	5	1	0	5	0
406	640	7	10000	5	1	0	5	0
397	641	7	10000	5	1	0	5	0
388	642	7	10000	5	1	0	5	0
377	643	7	10000	5	1	0	5	0
368	644	7	10000	5	1	0	5	0
355	645	7	10000	5	1	0	5	0
344	646	7	10000	5	1	0	5	0
336	647	7	10000	5	1	0	5	0
331	648	7	10000	5	1	0	5	0
323	649	7	10000	5	1	0	5	0
314	650	7	10000	5	1	0	5	0
304	651	7	10000	5	1	0	5	0
290	652	7	10000	5	1	0	5	0
276	653	7	10000	5	1	0	5	0
262	654	7	10000	5	1	0	5	0
251	655	7	10000	5	1	0	5	0
239	656	7	10000	5	1	0	5	0
229	657	7	10000	5	1	0	5	0
221	658	7	10000	5	1	0	5	0
214	659	7	10000	5	1	0	5	0
204	660	7	10000	5	1	0	5	0
197	661	7	10000	5	1	0	5	0
192	662	7	10000	5	1	0	5	0
187	663	7	10000	5	1	0	5	0
191	664	7	10000	5	1	0	5	0
191	665	7	10000	5	1	0	5	0
186	666	7	10000	5	1	0	5	0
184	667	7	10000	5	1	0	5	0
186	668	7	10000	5	1	0	5	0
188	669	7	10000	5	1	0	5	0
185	670	7	10000	5	1	0	5	0
179	671	7	10000	5	1	0	5	0
177	672	7	10000	5	1	0	5	0
181	673	7	10000	5	1	0	5	0
186	674	7	10000	5	1	0	5	0
186	675	7	10000	5	1	0	5	0
179	676	7	10000	5	1	0	5	0
173	677	7	10000	5	1	0	5	0
168	678	7	10000	5	1	0	5	0
164	679	7	10000	5	1	0	5	0
162	680	7	10000	5	1	0	5	0
161	681	7	10000	5	1	0	5	0
163	682	7	10000	5	1	0	5	0
164	683	7	10000	5	1	0	5	0
161	684	7	10000	5	1	0	5	0
158	685	7	10000	5	1	0	5	0
155	686	7	10000	5	1	0	5	0
153	687	7	10000	5	1	0	5	0
175	688	7	10000	5	1	0	5	0
201	689	7	10000	5	1	0	5	0
208	690	7	10000	5	1	0	5	0
220	691	7	10000	5	1	0	5	0
242	692	7	10000	5	1	0	5	0
267	693	7	10000	5	1	0	5	0
281	694	7	10000	5	1	0	5	0
305	695	7	10000	5	1	0	5	0
382	696	7	10000	5	1	0	5	0
455	697	7	10000	5	1	0	5	0
467	698	7	10000	5	1	0	5	0
467	699	7	10000	5	1	0	5	0
513	700	7	10000	5	1	0	5	0
582	701	7	10000	5	1	0	5	0
627	702	7	10000	5	1	0	5	0
616	703	7	10000	5	1	0	5	0
597	704	7	10000	5	1	0	5	0
607	705	7	10000	5	1	0	5	0
604	706	7	10000	5	1	0	5	0
638	707	7	10000	5	1	0	5	0
663	708	7	10000	5	1	0	5	0
648	709	7	10000	5	1	0	5	0
663	710	7	10000	5	1	0	5	0
695	711	7	10000	5	1	0	5	0
670	712	7	10000	5	1	0	5	0
645	713	7	10000	5	1	0	5	0
616	714	7	10000	5	1	0	5	0
607	715	7	10000	5	1	0	5	0
613	716	7	10000	5	1	0	5	0
614	717	7	10000	5	1	0	5	0
598	718	7	10000	5	1	0	5	0
600	719	7	10000	5	1	0	5	0
603	720	7	10000	5	1	0	5	0
623	721	7	10000	5	1	0	5	0
620	722	7	10000	5	1	0	5	0
603	723	7	10000	5	1	0	5	0
596	724	7	10000	5	1	0	5	0
578	725	7	10000	5	1	0	5	0
557	726	7	10000	5	1	0	5	0
546	727	7	10000	5	1	0	5	0
538	728	7	10000	5	1	0	5	0
559	729	7	10000	5	1	0	5	0
618	730	7	10000	5	1	0	5	0
653	731	7	10000	5	1	0	5	0
634	732	7	10000	5	1	0	5	0
630	733	7	10000	5	1	0	5	0
636	734	7	10000	5	1	0	5	0
671	735	7	10000	5	1	0	5	0
749	736	7	10000	5	1	0	5	0
859	737	7	10000	5	1	0	5	0
927	738	7	10000	5	1	0	5	0
911	739	7	10000	5	1	0	5	0
876	740	7	10000	5	1	0	5	0
