value	EMG	Stimulus	EMG_sensitivity	Total_Trial_Nr	practise	acq	probe_nr	Startle_Probe
23	2	0	10000	1	1	0	1	0
23	3	0	10000	1	1	0	1	0
22	4	0	10000	1	1	0	1	0
21	5	0	10000	1	1	0	1	0
20	6	0	10000	1	1	0	1	0
21	7	0	10000	1	1	0	1	0
21	8	0	10000	1	1	0	1	0
21	9	0	10000	1	1	0	1	0
19	10	0	10000	1	1	0	1	0
19	11	0	10000	1	1	0	1	0
19	12	0	10000	1	1	0	1	0
19	13	0	10000	1	1	0	1	0
20	14	0	10000	1	1	0	1	0
22	15	0	10000	1	1	0	1	0
24	16	0	10000	1	1	0	1	0
24	17	0	10000	1	1	0	1	0
23	18	0	10000	1	1	0	1	0
24	19	0	10000	1	1	0	1	0
26	20	0	10000	1	1	0	1	0
25	21	0	10000	1	1	0	1	0
25	22	0	10000	1	1	0	1	0
23	23	0	10000	1	1	0	1	0
22	24	0	10000	1	1	0	1	0
22	25	0	10000	1	1	0	1	0
22	26	0	10000	1	1	0	1	0
21	27	0	10000	1	1	0	1	0
23	28	0	10000	1	1	0	1	0
23	29	0	10000	1	1	0	1	0
23	30	0	10000	1	1	0	1	0
24	31	0	10000	1	1	0	1	0
26	32	0	10000	1	1	0	1	0
27	33	0	10000	1	1	0	1	0
27	34	0	10000	1	1	0	1	0
29	35	0	10000	1	1	0	1	0
31	36	0	10000	1	1	0	1	0
31	37	0	10000	1	1	0	1	0
38	38	0	10000	1	1	0	1	0
49	39	0	10000	1	1	0	1	0
61	40	0	10000	1	1	0	1	0
70	41	0	10000	1	1	0	1	0
78	42	0	10000	1	1	0	1	0
83	43	0	10000	1	1	0	1	0
87	44	0	10000	1	1	0	1	0
85	45	0	10000	1	1	0	1	0
91	46	0	10000	1	1	0	1	0
102	47	0	10000	1	1	0	1	0
110	48	0	10000	1	1	0	1	0
112	49	0	10000	1	1	0	1	0
110	50	0	10000	1	1	0	1	0
109	51	0	10000	1	1	0	1	0
114	52	0	10000	1	1	0	1	0
120	53	0	10000	1	1	0	1	0
121	54	0	10000	1	1	0	1	0
117	55	0	10000	1	1	0	1	0
116	56	0	10000	1	1	0	1	0
115	57	0	10000	1	1	0	1	0
111	58	0	10000	1	1	0	1	0
107	59	0	10000	1	1	0	1	0
105	60	0	10000	1	1	0	1	0
105	61	0	10000	1	1	0	1	0
106	62	0	10000	1	1	0	1	0
115	63	0	10000	1	1	0	1	0
127	64	0	10000	1	1	0	1	0
127	65	0	10000	1	1	0	1	0
124	66	0	10000	1	1	0	1	0
120	67	0	10000	1	1	0	1	0
116	68	0	10000	1	1	0	1	0
112	69	0	10000	1	1	0	1	0
108	70	0	10000	1	1	0	1	0
117	71	0	10000	1	1	0	1	0
126	72	0	10000	1	1	0	1	0
124	73	0	10000	1	1	0	1	0
129	74	0	10000	1	1	0	1	0
141	75	0	10000	1	1	0	1	0
146	76	0	10000	1	1	0	1	0
141	77	0	10000	1	1	0	1	0
143	78	0	10000	1	1	0	1	0
146	79	0	10000	1	1	0	1	0
145	80	0	10000	1	1	0	1	0
142	81	0	10000	1	1	0	1	0
141	82	0	10000	1	1	0	1	0
137	83	0	10000	1	1	0	1	0
132	84	0	10000	1	1	0	1	0
128	85	0	10000	1	1	0	1	0
122	86	0	10000	1	1	0	1	0
118	87	0	10000	1	1	0	1	0
114	88	0	10000	1	1	0	1	0
110	89	0	10000	1	1	0	1	0
109	90	0	10000	1	1	0	1	0
111	91	0	10000	1	1	0	1	0
114	92	0	10000	1	1	0	1	0
114	93	0	10000	1	1	0	1	0
111	94	0	10000	1	1	0	1	0
106	95	0	10000	1	1	0	1	0
102	96	0	10000	1	1	0	1	0
99	97	0	10000	1	1	0	1	0
99	98	0	10000	1	1	0	1	0
98	99	0	10000	1	1	0	1	0
95	100	0	10000	1	1	0	1	0
93	101	0	10000	1	1	0	1	0
91	102	0	10000	1	1	0	1	0
88	103	0	10000	1	1	0	1	0
85	104	0	10000	1	1	0	1	0
83	105	0	10000	1	1	0	1	0
80	106	0	10000	1	1	0	1	0
78	107	0	10000	1	1	0	1	0
78	108	0	10000	1	1	0	1	0
79	109	0	10000	1	1	0	1	0
76	110	0	10000	1	1	0	1	0
75	111	0	10000	1	1	0	1	0
77	112	0	10000	1	1	0	1	0
79	113	0	10000	1	1	0	1	0
81	114	0	10000	1	1	0	1	0
81	115	0	10000	1	1	0	1	0
78	116	0	10000	1	1	0	1	0
77	117	0	10000	1	1	0	1	0
76	118	0	10000	1	1	0	1	0
74	119	0	10000	1	1	0	1	0
72	120	0	10000	1	1	0	1	0
72	121	0	10000	1	1	0	1	0
71	122	0	10000	1	1	0	1	0
68	123	0	10000	1	1	0	1	0
67	124	0	10000	1	1	0	1	0
65	125	0	10000	1	1	0	1	0
64	126	0	10000	1	1	0	1	0
63	127	0	10000	1	1	0	1	0
63	128	0	10000	1	1	0	1	0
67	129	0	10000	1	1	0	1	0
68	130	0	10000	1	1	0	1	0
69	131	0	10000	1	1	0	1	0
68	132	0	10000	1	1	0	1	0
67	133	0	10000	1	1	0	1	0
66	134	0	10000	1	1	0	1	0
65	135	0	10000	1	1	0	1	0
63	136	0	10000	1	1	0	1	0
62	137	0	10000	1	1	0	1	0
61	138	0	10000	1	1	0	1	0
60	139	0	10000	1	1	0	1	0
60	140	0	10000	1	1	0	1	0
60	141	0	10000	1	1	0	1	0
59	142	0	10000	1	1	0	1	0
60	143	0	10000	1	1	0	1	0
57	144	0	10000	1	1	0	1	0
55	145	0	10000	1	1	0	1	0
53	146	0	10000	1	1	0	1	0
51	147	0	10000	1	1	0	1	0
49	148	0	10000	1	1	0	1	0
48	149	0	10000	1	1	0	1	0
46	150	0	10000	1	1	0	1	0
43	151	0	10000	1	1	0	1	0
42	152	0	10000	1	1	0	1	0
41	153	0	10000	1	1	0	1	0
40	154	0	10000	1	1	0	1	0
40	155	0	10000	1	1	0	1	0
42	156	0	10000	1	1	0	1	0
43	157	0	10000	1	1	0	1	0
43	158	0	10000	1	1	0	1	0
42	159	0	10000	1	1	0	1	0
42	160	0	10000	1	1	0	1	0
42	161	0	10000	1	1	0	1	0
43	162	0	10000	1	1	0	1	0
44	163	0	10000	1	1	0	1	0
43	164	0	10000	1	1	0	1	0
42	165	0	10000	1	1	0	1	0
41	166	0	10000	1	1	0	1	0
40	167	0	10000	1	1	0	1	0
43	168	0	10000	1	1	0	1	0
46	169	0	10000	1	1	0	1	0
46	170	0	10000	1	1	0	1	0
46	171	0	10000	1	1	0	1	0
47	172	0	10000	1	1	0	1	0
46	173	0	10000	1	1	0	1	0
49	174	0	10000	1	1	0	1	0
47	175	0	10000	1	1	0	1	0
46	176	0	10000	1	1	0	1	0
45	177	0	10000	1	1	0	1	0
42	178	0	10000	1	1	0	1	0
40	179	0	10000	1	1	0	1	0
40	180	0	10000	1	1	0	1	0
41	181	0	10000	1	1	0	1	0
41	182	0	10000	1	1	0	1	0
39	183	0	10000	1	1	0	1	0
39	184	0	10000	1	1	0	1	0
41	185	0	10000	1	1	0	1	0
42	186	0	10000	1	1	0	1	0
42	187	0	10000	1	1	0	1	0
42	188	0	10000	1	1	0	1	0
41	189	0	10000	1	1	0	1	0
40	190	0	10000	1	1	0	1	0
40	191	0	10000	1	1	0	1	0
39	192	0	10000	1	1	0	1	0
37	193	0	10000	1	1	0	1	0
36	194	0	10000	1	1	0	1	0
36	195	0	10000	1	1	0	1	0
35	196	0	10000	1	1	0	1	0
36	197	0	10000	1	1	0	1	0
35	198	0	10000	1	1	0	1	0
33	199	0	10000	1	1	0	1	0
34	200	0	10000	1	1	0	1	0
34	201	0	10000	1	1	0	1	0
34	202	0	10000	1	1	0	1	0
33	203	0	10000	1	1	0	1	0
32	204	0	10000	1	1	0	1	0
33	205	0	10000	1	1	0	1	0
32	206	0	10000	1	1	0	1	0
31	207	0	10000	1	1	0	1	0
31	208	0	10000	1	1	0	1	0
32	209	0	10000	1	1	0	1	0
30	210	0	10000	1	1	0	1	0
29	211	0	10000	1	1	0	1	0
29	212	0	10000	1	1	0	1	0
29	213	0	10000	1	1	0	1	0
29	214	0	10000	1	1	0	1	0
29	215	0	10000	1	1	0	1	0
30	216	0	10000	1	1	0	1	0
30	217	0	10000	1	1	0	1	0
30	218	0	10000	1	1	0	1	0
29	219	0	10000	1	1	0	1	0
30	220	0	10000	1	1	0	1	0
33	221	0	10000	1	1	0	1	0
32	222	0	10000	1	1	0	1	0
31	223	0	10000	1	1	0	1	0
30	224	0	10000	1	1	0	1	0
30	225	0	10000	1	1	0	1	0
31	226	0	10000	1	1	0	1	0
32	227	0	10000	1	1	0	1	0
32	228	0	10000	1	1	0	1	0
31	229	0	10000	1	1	0	1	0
29	230	0	10000	1	1	0	1	0
27	231	0	10000	1	1	0	1	0
25	232	0	10000	1	1	0	1	0
26	233	0	10000	1	1	0	1	0
25	234	0	10000	1	1	0	1	0
24	235	0	10000	1	1	0	1	0
24	236	0	10000	1	1	0	1	0
24	237	0	10000	1	1	0	1	0
23	238	0	10000	1	1	0	1	0
22	239	0	10000	1	1	0	1	0
24	240	0	10000	1	1	0	1	0
27	241	0	10000	1	1	0	1	0
29	242	0	10000	1	1	0	1	0
29	243	0	10000	1	1	0	1	0
28	244	0	10000	1	1	0	1	0
27	245	0	10000	1	1	0	1	0
26	246	0	10000	1	1	0	1	0
27	247	0	10000	1	1	0	1	0
28	248	0	10000	1	1	0	1	0
31	249	0	10000	1	1	0	1	0
31	250	0	10000	1	1	0	1	0
29	251	0	10000	1	1	0	1	0
29	252	0	10000	1	1	0	1	0
29	253	0	10000	1	1	0	1	0
29	254	0	10000	1	1	0	1	0
28	255	0	10000	1	1	0	1	0
28	256	0	10000	1	1	0	1	0
29	257	0	10000	1	1	0	1	0
31	258	0	10000	1	1	0	1	0
31	259	0	10000	1	1	0	1	0
32	260	0	10000	1	1	0	1	0
32	261	0	10000	1	1	0	1	0
32	262	0	10000	1	1	0	1	0
32	263	0	10000	1	1	0	1	0
32	264	0	10000	1	1	0	1	0
32	265	0	10000	1	1	0	1	0
33	266	0	10000	1	1	0	1	0
33	267	0	10000	1	1	0	1	0
33	268	0	10000	1	1	0	1	0
34	269	0	10000	1	1	0	1	0
33	270	0	10000	1	1	0	1	0
33	271	0	10000	1	1	0	1	0
32	272	0	10000	1	1	0	1	0
32	273	0	10000	1	1	0	1	0
31	274	0	10000	1	1	0	1	0
30	275	0	10000	1	1	0	1	0
30	276	0	10000	1	1	0	1	0
28	277	0	10000	1	1	0	1	0
29	278	0	10000	1	1	0	1	0
26	279	0	10000	1	1	0	1	0
26	280	0	10000	1	1	0	1	0
28	281	0	10000	1	1	0	1	0
27	282	0	10000	1	1	0	1	0
26	283	0	10000	1	1	0	1	0
28	284	0	10000	1	1	0	1	0
29	285	0	10000	1	1	0	1	0
30	286	0	10000	1	1	0	1	0
32	287	0	10000	1	1	0	1	0
33	288	0	10000	1	1	0	1	0
33	289	0	10000	1	1	0	1	0
32	290	0	10000	1	1	0	1	0
30	291	0	10000	1	1	0	1	0
30	292	0	10000	1	1	0	1	0
30	293	0	10000	1	1	0	1	0
33	294	0	10000	1	1	0	1	0
34	295	0	10000	1	1	0	1	0
34	296	0	10000	1	1	0	1	0
32	297	0	10000	1	1	0	1	0
33	298	0	10000	1	1	0	1	0
32	299	0	10000	1	1	0	1	0
32	300	0	10000	1	1	0	1	0
32	301	0	10000	1	1	0	1	0
30	302	0	10000	1	1	0	1	0
29	303	0	10000	1	1	0	1	0
28	304	0	10000	1	1	0	1	0
27	305	0	10000	1	1	0	1	0
26	306	0	10000	1	1	0	1	0
25	307	0	10000	1	1	0	1	0
25	308	0	10000	1	1	0	1	0
25	309	0	10000	1	1	0	1	0
23	310	0	10000	1	1	0	1	0
22	311	0	10000	1	1	0	1	0
22	312	0	10000	1	1	0	1	0
22	313	0	10000	1	1	0	1	0
23	314	0	10000	1	1	0	1	0
26	315	0	10000	1	1	0	1	0
27	316	0	10000	1	1	0	1	0
27	317	0	10000	1	1	0	1	0
26	318	0	10000	1	1	0	1	0
25	319	0	10000	1	1	0	1	0
26	320	0	10000	1	1	0	1	0
28	321	0	10000	1	1	0	1	0
28	322	0	10000	1	1	0	1	0
28	323	0	10000	1	1	0	1	0
28	324	0	10000	1	1	0	1	0
29	325	0	10000	1	1	0	1	0
29	326	0	10000	1	1	0	1	0
29	327	0	10000	1	1	0	1	0
31	328	0	10000	1	1	0	1	0
34	329	0	10000	1	1	0	1	0
35	330	0	10000	1	1	0	1	0
34	331	0	10000	1	1	0	1	0
34	332	0	10000	1	1	0	1	0
34	333	0	10000	1	1	0	1	0
35	334	0	10000	1	1	0	1	0
33	335	0	10000	1	1	0	1	0
32	336	0	10000	1	1	0	1	0
32	337	0	10000	1	1	0	1	0
31	338	0	10000	1	1	0	1	0
31	339	0	10000	1	1	0	1	0
31	340	0	10000	1	1	0	1	0
32	341	0	10000	1	1	0	1	0
31	342	0	10000	1	1	0	1	0
30	343	0	10000	1	1	0	1	0
29	344	0	10000	1	1	0	1	0
29	345	0	10000	1	1	0	1	0
28	346	0	10000	1	1	0	1	0
28	347	0	10000	1	1	0	1	0
29	348	0	10000	1	1	0	1	0
28	349	0	10000	1	1	0	1	0
26	350	0	10000	1	1	0	1	0
26	351	0	10000	1	1	0	1	0
25	352	0	10000	1	1	0	1	0
25	353	0	10000	1	1	0	1	0
25	354	0	10000	1	1	0	1	0
24	355	0	10000	1	1	0	1	0
23	356	0	10000	1	1	0	1	0
22	357	0	10000	1	1	0	1	0
22	358	0	10000	1	1	0	1	0
20	359	0	10000	1	1	0	1	0
20	360	0	10000	1	1	0	1	0
20	361	0	10000	1	1	0	1	0
20	362	0	10000	1	1	0	1	0
19	363	0	10000	1	1	0	1	0
19	364	0	10000	1	1	0	1	0
20	365	0	10000	1	1	0	1	0
18	366	0	10000	1	1	0	1	0
18	367	0	10000	1	1	0	1	0
18	368	0	10000	1	1	0	1	0
19	369	0	10000	1	1	0	1	0
20	370	0	10000	1	1	0	1	0
20	371	0	10000	1	1	0	1	0
21	372	0	10000	1	1	0	1	0
21	373	0	10000	1	1	0	1	0
21	374	0	10000	1	1	0	1	0
20	375	0	10000	1	1	0	1	0
20	376	0	10000	1	1	0	1	0
20	377	0	10000	1	1	0	1	0
19	378	0	10000	1	1	0	1	0
18	379	0	10000	1	1	0	1	0
18	380	0	10000	1	1	0	1	0
20	381	0	10000	1	1	0	1	0
22	382	0	10000	1	1	0	1	0
23	383	0	10000	1	1	0	1	0
23	384	0	10000	1	1	0	1	0
23	385	0	10000	1	1	0	1	0
21	386	0	10000	1	1	0	1	0
20	387	0	10000	1	1	0	1	0
20	388	0	10000	1	1	0	1	0
20	389	0	10000	1	1	0	1	0
21	390	0	10000	1	1	0	1	0
23	391	0	10000	1	1	0	1	0
28	392	0	10000	1	1	0	1	0
32	393	0	10000	1	1	0	1	0
34	394	0	10000	1	1	0	1	0
33	395	0	10000	1	1	0	1	0
32	396	0	10000	1	1	0	1	0
31	397	0	10000	1	1	0	1	0
30	398	0	10000	1	1	0	1	0
30	399	0	10000	1	1	0	1	0
33	400	0	10000	1	1	0	1	0
37	401	0	10000	1	1	0	1	0
38	402	0	10000	1	1	0	1	0
37	403	0	10000	1	1	0	1	0
35	404	0	10000	1	1	0	1	0
34	405	0	10000	1	1	0	1	0
33	406	0	10000	1	1	0	1	0
32	407	0	10000	1	1	0	1	0
33	408	0	10000	1	1	0	1	0
35	409	0	10000	1	1	0	1	0
38	410	0	10000	1	1	0	1	0
38	411	0	10000	1	1	0	1	0
40	412	0	10000	1	1	0	1	0
38	413	0	10000	1	1	0	1	0
36	414	0	10000	1	1	0	1	0
35	415	0	10000	1	1	0	1	0
34	416	0	10000	1	1	0	1	0
33	417	0	10000	1	1	0	1	0
32	418	0	10000	1	1	0	1	0
32	419	0	10000	1	1	0	1	0
32	420	0	10000	1	1	0	1	0
32	421	0	10000	1	1	0	1	0
31	422	0	10000	1	1	0	1	0
30	423	0	10000	1	1	0	1	0
29	424	0	10000	1	1	0	1	0
28	425	0	10000	1	1	0	1	0
28	426	0	10000	1	1	0	1	0
29	427	0	10000	1	1	0	1	0
29	428	0	10000	1	1	0	1	0
28	429	0	10000	1	1	0	1	0
27	430	0	10000	1	1	0	1	0
25	431	0	10000	1	1	0	1	0
25	432	0	10000	1	1	0	1	0
25	433	0	10000	1	1	0	1	0
24	434	0	10000	1	1	0	1	0
25	435	0	10000	1	1	0	1	0
27	436	0	10000	1	1	0	1	0
25	437	0	10000	1	1	0	1	0
25	438	0	10000	1	1	0	1	0
24	439	0	10000	1	1	0	1	0
24	440	0	10000	1	1	0	1	0
26	441	0	10000	1	1	0	1	0
25	442	0	10000	1	1	0	1	0
24	443	0	10000	1	1	0	1	0
24	444	0	10000	1	1	0	1	0
24	445	0	10000	1	1	0	1	0
22	446	0	10000	1	1	0	1	0
22	447	0	10000	1	1	0	1	0
21	448	0	10000	1	1	0	1	0
21	449	0	10000	1	1	0	1	0
20	450	0	10000	1	1	0	1	0
20	451	0	10000	1	1	0	1	0
21	452	0	10000	1	1	0	1	0
20	453	0	10000	1	1	0	1	0
22	454	0	10000	1	1	0	1	0
26	455	0	10000	1	1	0	1	0
27	456	0	10000	1	1	0	1	0
28	457	0	10000	1	1	0	1	0
28	458	0	10000	1	1	0	1	0
28	459	0	10000	1	1	0	1	0
28	460	0	10000	1	1	0	1	0
29	461	0	10000	1	1	0	1	0
29	462	0	10000	1	1	0	1	0
29	463	0	10000	1	1	0	1	0
29	464	0	10000	1	1	0	1	0
28	465	0	10000	1	1	0	1	0
27	466	0	10000	1	1	0	1	0
27	467	0	10000	1	1	0	1	0
26	468	0	10000	1	1	0	1	0
26	469	0	10000	1	1	0	1	0
24	470	0	10000	1	1	0	1	0
23	471	0	10000	1	1	0	1	0
24	472	0	10000	1	1	0	1	0
23	473	0	10000	1	1	0	1	0
23	474	0	10000	1	1	0	1	0
24	475	0	10000	1	1	0	1	0
25	476	0	10000	1	1	0	1	0
23	477	0	10000	1	1	0	1	0
23	478	0	10000	1	1	0	1	0
22	479	0	10000	1	1	0	1	0
22	480	0	10000	1	1	0	1	0
25	481	0	10000	1	1	0	1	0
23	482	0	10000	1	1	0	1	0
24	483	0	10000	1	1	0	1	0
23	484	0	10000	1	1	0	1	0
23	485	0	10000	1	1	0	1	0
23	486	0	10000	1	1	0	1	0
23	487	0	10000	1	1	0	1	0
24	488	0	10000	1	1	0	1	0
26	489	0	10000	1	1	0	1	0
25	490	0	10000	1	1	0	1	0
24	491	0	10000	1	1	0	1	0
27	492	0	10000	1	1	0	1	0
28	493	0	10000	1	1	0	1	0
29	494	0	10000	1	1	0	1	0
29	495	0	10000	1	1	0	1	0
30	496	0	10000	1	1	0	1	0
31	497	0	10000	1	1	0	1	0
29	498	0	10000	1	1	0	1	0
28	499	0	10000	1	1	0	1	0
29	500	0	10000	1	1	0	1	0
30	501	0	10000	1	1	0	1	0
30	535	0	10000	1	1	0	1	1
30	536	0	10000	1	1	0	1	1
29	537	0	10000	1	1	0	1	1
28	538	0	10000	1	1	0	1	1
28	539	0	10000	1	1	0	1	1
31	540	0	10000	1	1	0	1	1
33	541	0	10000	1	1	0	1	1
34	542	0	10000	1	1	0	1	1
33	543	0	10000	1	1	0	1	1
31	544	0	10000	1	1	0	1	1
30	545	0	10000	1	1	0	1	1
30	546	0	10000	1	1	0	1	1
31	547	0	10000	1	1	0	1	1
31	548	0	10000	1	1	0	1	1
30	549	0	10000	1	1	0	1	1
29	550	0	10000	1	1	0	1	1
28	551	0	10000	1	1	0	1	1
28	552	0	10000	1	1	0	1	1
28	553	0	10000	1	1	0	1	1
29	554	0	10000	1	1	0	1	1
28	555	0	10000	1	1	0	1	1
27	556	0	10000	1	1	0	1	1
25	557	0	10000	1	1	0	1	1
26	558	0	10000	1	1	0	1	1
26	559	0	10000	1	1	0	1	1
25	560	0	10000	1	1	0	1	1
25	561	0	10000	1	1	0	1	1
25	562	0	10000	1	1	0	1	1
26	563	0	10000	1	1	0	1	1
27	564	0	10000	1	1	0	1	1
29	565	0	10000	1	1	0	1	1
28	566	0	10000	1	1	0	1	1
27	567	0	10000	1	1	0	1	1
26	568	0	10000	1	1	0	1	1
26	569	0	10000	1	1	0	1	1
28	570	0	10000	1	1	0	1	1
28	538	0	10000	1	1	0	1	1
28	539	0	10000	1	1	0	1	1
28	540	0	10000	1	1	0	1	1
31	541	0	10000	1	1	0	1	1
32	542	0	10000	1	1	0	1	1
32	543	0	10000	1	1	0	1	1
32	544	0	10000	1	1	0	1	1
33	545	0	10000	1	1	0	1	1
33	546	0	10000	1	1	0	1	1
35	547	0	10000	1	1	0	1	1
34	548	0	10000	1	1	0	1	1
37	549	0	10000	1	1	0	1	1
40	550	0	10000	1	1	0	1	1
42	551	0	10000	1	1	0	1	1
42	552	0	10000	1	1	0	1	0
41	553	0	10000	1	1	0	1	0
41	554	0	10000	1	1	0	1	0
39	555	0	10000	1	1	0	1	0
38	556	0	10000	1	1	0	1	0
38	557	0	10000	1	1	0	1	0
36	558	0	10000	1	1	0	1	0
35	559	0	10000	1	1	0	1	0
33	560	0	10000	1	1	0	1	0
34	561	0	10000	1	1	0	1	0
33	562	0	10000	1	1	0	1	0
33	563	0	10000	1	1	0	1	0
35	564	0	10000	1	1	0	1	0
37	565	0	10000	1	1	0	1	0
38	566	0	10000	1	1	0	1	0
37	567	0	10000	1	1	0	1	0
37	568	0	10000	1	1	0	1	0
39	569	0	10000	1	1	0	1	0
41	570	0	10000	1	1	0	1	0
38	571	0	10000	1	1	0	1	0
37	572	0	10000	1	1	0	1	0
38	573	0	10000	1	1	0	1	0
37	574	0	10000	1	1	0	1	0
36	575	0	10000	1	1	0	1	0
35	576	0	10000	1	1	0	1	0
34	577	0	10000	1	1	0	1	0
33	578	0	10000	1	1	0	1	0
33	579	0	10000	1	1	0	1	0
32	580	0	10000	1	1	0	1	0
34	581	0	10000	1	1	0	1	0
33	582	0	10000	1	1	0	1	0
34	583	0	10000	1	1	0	1	0
33	584	0	10000	1	1	0	1	0
32	585	0	10000	1	1	0	1	0
33	586	0	10000	1	1	0	1	0
34	587	0	10000	1	1	0	1	0
34	588	0	10000	1	1	0	1	0
33	589	0	10000	1	1	0	1	0
34	590	0	10000	1	1	0	1	0
34	591	0	10000	1	1	0	1	0
34	591	0	10000	1	1	0	1	0
34	592	0	10000	1	1	0	1	0
33	594	0	10000	1	1	0	1	0
32	595	0	10000	1	1	0	1	0
31	596	0	10000	1	1	0	1	0
31	597	0	10000	1	1	0	1	0
30	598	0	10000	1	1	0	1	0
29	599	0	10000	1	1	0	1	0
28	600	0	10000	1	1	0	1	0
32	601	0	10000	1	1	0	1	0
32	601	0	10000	1	1	0	1	0
32	602	0	10000	1	1	0	1	0
31	604	0	10000	1	1	0	1	0
32	605	0	10000	1	1	0	1	0
34	606	0	10000	1	1	0	1	0
33	607	0	10000	1	1	0	1	0
35	608	0	10000	1	1	0	1	0
36	609	0	10000	1	1	0	1	0
37	610	0	10000	1	1	0	1	0
34	611	0	10000	1	1	0	1	0
33	611	0	10000	1	1	0	1	0
32	612	0	10000	1	1	0	1	0
32	614	0	10000	1	1	0	1	0
32	615	0	10000	1	1	0	1	0
34	616	0	10000	1	1	0	1	0
40	617	0	10000	1	1	0	1	0
41	618	0	10000	1	1	0	1	0
39	619	0	10000	1	1	0	1	0
39	620	0	10000	1	1	0	1	0
47	621	0	10000	1	1	0	1	0
50	621	0	10000	1	1	0	1	0
51	622	0	10000	1	1	0	1	0
60	624	0	10000	1	1	0	1	0
64	625	0	10000	1	1	0	1	0
62	626	0	10000	1	1	0	1	0
63	627	0	10000	1	1	0	1	0
70	628	0	10000	1	1	0	1	0
77	629	0	10000	1	1	0	1	0
76	630	0	10000	1	1	0	1	0
75	631	0	10000	1	1	0	1	0
79	631	0	10000	1	1	0	1	0
75	632	0	10000	1	1	0	1	0
77	634	0	10000	1	1	0	1	0
76	635	0	10000	1	1	0	1	0
79	636	0	10000	1	1	0	1	0
84	637	0	10000	1	1	0	1	0
104	638	0	10000	1	1	0	1	0
114	639	0	10000	1	1	0	1	0
116	640	0	10000	1	1	0	1	0
116	641	0	10000	1	1	0	1	0
113	641	0	10000	1	1	0	1	0
129	642	0	10000	1	1	0	1	0
153	644	0	10000	1	1	0	1	0
170	645	0	10000	1	1	0	1	0
179	646	0	10000	1	1	0	1	0
180	647	0	10000	1	1	0	1	0
178	648	0	10000	1	1	0	1	0
173	649	0	10000	1	1	0	1	0
175	650	0	10000	1	1	0	1	0
175	651	0	10000	1	1	0	1	0
186	651	0	10000	1	1	0	1	0
194	652	0	10000	1	1	0	1	0
191	654	0	10000	1	1	0	1	0
186	655	0	10000	1	1	0	1	0
181	656	0	10000	1	1	0	1	0
174	657	0	10000	1	1	0	1	0
169	658	0	10000	1	1	0	1	0
171	659	0	10000	1	1	0	1	0
178	660	0	10000	1	1	0	1	0
175	661	0	10000	1	1	0	1	0
170	661	0	10000	1	1	0	1	0
168	662	0	10000	1	1	0	1	0
164	664	0	10000	1	1	0	1	0
160	665	0	10000	1	1	0	1	0
155	666	0	10000	1	1	0	1	0
151	667	0	10000	1	1	0	1	0
146	668	0	10000	1	1	0	1	0
141	669	0	10000	1	1	0	1	0
134	670	0	10000	1	1	0	1	0
128	671	0	10000	1	1	0	1	0
125	671	0	10000	1	1	0	1	0
122	672	0	10000	1	1	0	1	0
120	674	0	10000	1	1	0	1	0
117	675	0	10000	1	1	0	1	0
115	676	0	10000	1	1	0	1	0
111	677	0	10000	1	1	0	1	0
105	678	0	10000	1	1	0	1	0
100	679	0	10000	1	1	0	1	0
97	680	0	10000	1	1	0	1	0
99	681	0	10000	1	1	0	1	0
95	681	0	10000	1	1	0	1	0
92	682	0	10000	1	1	0	1	0
87	684	0	10000	1	1	0	1	0
84	685	0	10000	1	1	0	1	0
81	686	0	10000	1	1	0	1	0
79	687	0	10000	1	1	0	1	0
83	688	0	10000	1	1	0	1	0
87	689	0	10000	1	1	0	1	0
90	690	0	10000	1	1	0	1	0
90	691	0	10000	1	1	0	1	0
91	691	0	10000	1	1	0	1	0
97	692	0	10000	1	1	0	1	0
106	694	0	10000	1	1	0	1	0
116	695	0	10000	1	1	0	1	0
129	696	0	10000	1	1	0	1	0
139	697	0	10000	1	1	0	1	0
140	698	0	10000	1	1	0	1	0
136	699	0	10000	1	1	0	1	0
134	700	0	10000	1	1	0	1	0
140	701	0	10000	1	1	0	1	0
146	701	0	10000	1	1	0	1	0
152	702	0	10000	1	1	0	1	0
157	704	0	10000	1	1	0	1	0
164	705	0	10000	1	1	0	1	0
165	706	0	10000	1	1	0	1	0
163	707	0	10000	1	1	0	1	0
159	708	0	10000	1	1	0	1	0
158	709	0	10000	1	1	0	1	0
156	710	0	10000	1	1	0	1	0
150	711	0	10000	1	1	0	1	0
144	711	0	10000	1	1	0	1	0
140	712	0	10000	1	1	0	1	0
141	714	0	10000	1	1	0	1	0
143	715	0	10000	1	1	0	1	0
143	716	0	10000	1	1	0	1	0
141	717	0	10000	1	1	0	1	0
136	718	0	10000	1	1	0	1	0
132	719	0	10000	1	1	0	1	0
127	720	0	10000	1	1	0	1	0
126	721	0	10000	1	1	0	1	0
125	721	0	10000	1	1	0	1	0
124	722	0	10000	1	1	0	1	0
121	724	0	10000	1	1	0	1	0
118	725	0	10000	1	1	0	1	0
116	726	0	10000	1	1	0	1	0
114	727	0	10000	1	1	0	1	0
111	728	0	10000	1	1	0	1	0
107	729	0	10000	1	1	0	1	0
104	730	0	10000	1	1	0	1	0
98	731	0	10000	1	1	0	1	0
97	731	0	10000	1	1	0	1	0
94	732	0	10000	1	1	0	1	0
91	734	0	10000	1	1	0	1	0
87	735	0	10000	1	1	0	1	0
84	736	0	10000	1	1	0	1	0
80	737	0	10000	1	1	0	1	0
77	738	0	10000	1	1	0	1	0
75	739	0	10000	1	1	0	1	0
76	740	0	10000	1	1	0	1	0
78	741	0	10000	1	1	0	1	0
77	741	0	10000	1	1	0	1	0
73	742	0	10000	1	1	0	1	0
70	744	0	10000	1	1	0	1	0
69	745	0	10000	1	1	0	1	0
67	746	0	10000	1	1	0	1	0
64	747	0	10000	1	1	0	1	0
63	748	0	10000	1	1	0	1	0
62	749	0	10000	1	1	0	1	0
62	750	0	10000	1	1	0	1	0
61	751	0	10000	1	1	0	1	0
60	751	0	10000	1	1	0	1	0
63	752	0	10000	1	1	0	1	0
68	754	0	10000	1	1	0	1	0
73	755	0	10000	1	1	0	1	0
78	756	0	10000	1	1	0	1	0
83	757	0	10000	1	1	0	1	0
84	758	0	10000	1	1	0	1	0
85	759	0	10000	1	1	0	1	0
84	760	0	10000	1	1	0	1	0
83	761	0	10000	1	1	0	1	0
80	761	0	10000	1	1	0	1	0
77	762	0	10000	1	1	0	1	0
74	764	0	10000	1	1	0	1	0
71	765	0	10000	1	1	0	1	0
68	766	0	10000	1	1	0	1	0
65	767	0	10000	1	1	0	1	0
64	768	0	10000	1	1	0	1	0
66	769	0	10000	1	1	0	1	0
68	770	0	10000	1	1	0	1	0
65	771	0	10000	1	1	0	1	0
65	771	0	10000	1	1	0	1	0
64	772	0	10000	1	1	0	1	0
61	774	0	10000	1	1	0	1	0
59	775	0	10000	1	1	0	1	0
58	776	0	10000	1	1	0	1	0
57	777	0	10000	1	1	0	1	0
56	778	0	10000	1	1	0	1	0
53	779	0	10000	1	1	0	1	0
52	780	0	10000	1	1	0	1	0
54	781	0	10000	1	1	0	1	0
55	781	0	10000	1	1	0	1	0
57	782	0	10000	1	1	0	1	0
56	784	0	10000	1	1	0	1	0
56	785	0	10000	1	1	0	1	0
60	786	0	10000	1	1	0	1	0
66	787	0	10000	1	1	0	1	0
68	788	0	10000	1	1	0	1	0
66	789	0	10000	1	1	0	1	0
67	790	0	10000	1	1	0	1	0
67	791	0	10000	1	1	0	1	0
70	791	0	10000	1	1	0	1	0
70	792	0	10000	1	1	0	1	0
68	794	0	10000	1	1	0	1	0
66	795	0	10000	1	1	0	1	0
64	796	0	10000	1	1	0	1	0
62	797	0	10000	1	1	0	1	0
59	798	0	10000	1	1	0	1	0
59	799	0	10000	1	1	0	1	0
60	800	0	10000	1	1	0	1	0
62	801	0	10000	1	1	0	1	0
61	801	0	10000	1	1	0	1	0
65	802	0	10000	1	1	0	1	0
66	804	0	10000	1	1	0	1	0
64	805	0	10000	1	1	0	1	0
62	806	0	10000	1	1	0	1	0
60	807	0	10000	1	1	0	1	0
60	808	0	10000	1	1	0	1	0
62	809	0	10000	1	1	0	1	0
61	810	0	10000	1	1	0	1	0
60	811	0	10000	1	1	0	1	0
67	811	0	10000	1	1	0	1	0
72	812	0	10000	1	1	0	1	0
73	814	0	10000	1	1	0	1	0
70	815	0	10000	1	1	0	1	0
68	816	0	10000	1	1	0	1	0
70	817	0	10000	1	1	0	1	0
71	818	0	10000	1	1	0	1	0
72	819	0	10000	1	1	0	1	0
75	820	0	10000	1	1	0	1	0
79	821	0	10000	1	1	0	1	0
79	821	0	10000	1	1	0	1	0
79	822	0	10000	1	1	0	1	0
76	824	0	10000	1	1	0	1	0
77	825	0	10000	1	1	0	1	0
79	826	0	10000	1	1	0	1	0
76	827	0	10000	1	1	0	1	0
76	828	0	10000	1	1	0	1	0
75	829	0	10000	1	1	0	1	0
73	830	0	10000	1	1	0	1	0
71	831	0	10000	1	1	0	1	0
74	831	0	10000	1	1	0	1	0
72	832	0	10000	1	1	0	1	0
72	834	0	10000	1	1	0	1	0
72	835	0	10000	1	1	0	1	0
71	836	0	10000	1	1	0	1	0
70	837	0	10000	1	1	0	1	0
68	838	0	10000	1	1	0	1	0
66	839	0	10000	1	1	0	1	0
64	840	0	10000	1	1	0	1	0
63	841	0	10000	1	1	0	1	0
60	841	0	10000	1	1	0	1	0
58	842	0	10000	1	1	0	1	0
56	844	0	10000	1	1	0	1	0
57	845	0	10000	1	1	0	1	0
57	846	0	10000	1	1	0	1	0
55	847	0	10000	1	1	0	1	0
54	848	0	10000	1	1	0	1	0
53	849	0	10000	1	1	0	1	0
54	850	0	10000	1	1	0	1	0
56	851	0	10000	1	1	0	1	0
55	851	0	10000	1	1	0	1	0
54	852	0	10000	1	1	0	1	0
54	854	0	10000	1	1	0	1	0
52	855	0	10000	1	1	0	1	0
50	856	0	10000	1	1	0	1	0
48	857	0	10000	1	1	0	1	0
46	858	0	10000	1	1	0	1	0
44	859	0	10000	1	1	0	1	0
43	860	0	10000	1	1	0	1	0
44	861	0	10000	1	1	0	1	0
44	861	0	10000	1	1	0	1	0
46	862	0	10000	1	1	0	1	0
45	864	0	10000	1	1	0	1	0
48	865	0	10000	1	1	0	1	0
48	866	0	10000	1	1	0	1	0
47	867	0	10000	1	1	0	1	0
46	868	0	10000	1	1	0	1	0
45	869	0	10000	1	1	0	1	0
45	870	0	10000	1	1	0	1	0
43	871	0	10000	1	1	0	1	0
42	871	0	10000	1	1	0	1	0
42	872	0	10000	1	1	0	1	0
42	874	0	10000	1	1	0	1	0
44	875	0	10000	1	1	0	1	0
44	876	0	10000	1	1	0	1	0
45	877	0	10000	1	1	0	1	0
43	878	0	10000	1	1	0	1	0
43	879	0	10000	1	1	0	1	0
46	880	0	10000	1	1	0	1	0
51	881	0	10000	1	1	0	1	0
51	881	0	10000	1	1	0	1	0
51	882	0	10000	1	1	0	1	0
54	884	0	10000	1	1	0	1	0
56	885	0	10000	1	1	0	1	0
55	886	0	10000	1	1	0	1	0
53	887	0	10000	1	1	0	1	0
54	888	0	10000	1	1	0	1	0
54	889	0	10000	1	1	0	1	0
53	890	0	10000	1	1	0	1	0
50	891	0	10000	1	1	0	1	0
50	891	0	10000	1	1	0	1	0
51	892	0	10000	1	1	0	1	0
50	894	0	10000	1	1	0	1	0
49	895	0	10000	1	1	0	1	0
48	896	0	10000	1	1	0	1	0
46	897	0	10000	1	1	0	1	0
45	898	0	10000	1	1	0	1	0
45	899	0	10000	1	1	0	1	0
45	900	0	10000	1	1	0	1	0
48	901	0	10000	1	1	0	1	0
47	901	0	10000	1	1	0	1	0
45	902	0	10000	1	1	0	1	0
45	904	0	10000	1	1	0	1	0
47	905	0	10000	1	1	0	1	0
50	906	0	10000	1	1	0	1	0
51	907	0	10000	1	1	0	1	0
50	908	0	10000	1	1	0	1	0
49	909	0	10000	1	1	0	1	0
51	910	0	10000	1	1	0	1	0
48	911	0	10000	1	1	0	1	0
48	911	0	10000	1	1	0	1	0
48	912	0	10000	1	1	0	1	0
50	914	0	10000	1	1	0	1	0
51	915	0	10000	1	1	0	1	0
52	916	0	10000	1	1	0	1	0
52	917	0	10000	1	1	0	1	0
53	918	0	10000	1	1	0	1	0
53	919	0	10000	1	1	0	1	0
51	920	0	10000	1	1	0	1	0
51	921	0	10000	1	1	0	1	0
52	921	0	10000	1	1	0	1	0
55	922	0	10000	1	1	0	1	0
57	924	0	10000	1	1	0	1	0
55	925	0	10000	1	1	0	1	0
56	926	0	10000	1	1	0	1	0
55	927	0	10000	1	1	0	1	0
55	928	0	10000	1	1	0	1	0
53	929	0	10000	1	1	0	1	0
52	930	0	10000	1	1	0	1	0
49	931	0	10000	1	1	0	1	0
47	931	0	10000	1	1	0	1	0
47	932	0	10000	1	1	0	1	0
46	934	0	10000	1	1	0	1	0
44	935	0	10000	1	1	0	1	0
43	936	0	10000	1	1	0	1	0
42	937	0	10000	1	1	0	1	0
41	938	0	10000	1	1	0	1	0
42	939	0	10000	1	1	0	1	0
42	940	0	10000	1	1	0	1	0
43	941	0	10000	1	1	0	1	0
42	941	0	10000	1	1	0	1	0
43	942	0	10000	1	1	0	1	0
43	944	0	10000	1	1	0	1	0
42	945	0	10000	1	1	0	1	0
44	946	0	10000	1	1	0	1	0
45	947	0	10000	1	1	0	1	0
45	948	0	10000	1	1	0	1	0
44	949	0	10000	1	1	0	1	0
44	950	0	10000	1	1	0	1	0
43	951	0	10000	1	1	0	1	0
43	951	0	10000	1	1	0	1	0
42	952	0	10000	1	1	0	1	0
41	954	0	10000	1	1	0	1	0
41	955	0	10000	1	1	0	1	0
41	956	0	10000	1	1	0	1	0
41	957	0	10000	1	1	0	1	0
44	958	0	10000	1	1	0	1	0
45	959	0	10000	1	1	0	1	0
45	960	0	10000	1	1	0	1	0
51	961	0	10000	1	1	0	1	0
54	961	0	10000	1	1	0	1	0
54	962	0	10000	1	1	0	1	0
54	964	0	10000	1	1	0	1	0
58	965	0	10000	1	1	0	1	0
60	966	0	10000	1	1	0	1	0
59	967	0	10000	1	1	0	1	0
58	968	0	10000	1	1	0	1	0
60	969	0	10000	1	1	0	1	0
62	970	0	10000	1	1	0	1	0
61	971	0	10000	1	1	0	1	0
60	971	0	10000	1	1	0	1	0
58	972	0	10000	1	1	0	1	0
58	974	0	10000	1	1	0	1	0
56	975	0	10000	1	1	0	1	0
55	976	0	10000	1	1	0	1	0
54	977	0	10000	1	1	0	1	0
52	978	0	10000	1	1	0	1	0
52	979	0	10000	1	1	0	1	0
51	980	0	10000	1	1	0	1	0
54	981	0	10000	1	1	0	1	0
54	981	0	10000	1	1	0	1	0
54	982	0	10000	1	1	0	1	0
52	984	0	10000	1	1	0	1	0
51	985	0	10000	1	1	0	1	0
51	986	0	10000	1	1	0	1	0
54	987	0	10000	1	1	0	1	0
59	988	0	10000	1	1	0	1	0
61	989	0	10000	1	1	0	1	0
59	990	0	10000	1	1	0	1	0
58	991	0	10000	1	1	0	1	0
59	991	0	10000	1	1	0	1	0
59	992	0	10000	1	1	0	1	0
59	994	0	10000	1	1	0	1	0
61	995	0	10000	1	1	0	1	0
58	996	0	10000	1	1	0	1	0
57	997	0	10000	1	1	0	1	0
57	998	0	10000	1	1	0	1	0
58	999	0	10000	1	1	0	1	0
61	1000	0	10000	1	1	0	1	0
62	1001	0	10000	1	1	0	1	0
25	1	7	10000	2	1	0	2	0
25	2	7	10000	2	1	0	2	0
26	3	7	10000	2	1	0	2	0
27	4	7	10000	2	1	0	2	0
25	5	7	10000	2	1	0	2	0
25	6	7	10000	2	1	0	2	0
24	7	7	10000	2	1	0	2	0
24	8	7	10000	2	1	0	2	0
22	9	7	10000	2	1	0	2	0
23	10	7	10000	2	1	0	2	0
24	11	7	10000	2	1	0	2	0
23	12	7	10000	2	1	0	2	0
23	13	7	10000	2	1	0	2	0
21	14	7	10000	2	1	0	2	0
24	15	7	10000	2	1	0	2	0
26	16	7	10000	2	1	0	2	0
25	17	7	10000	2	1	0	2	0
25	18	7	10000	2	1	0	2	0
25	19	7	10000	2	1	0	2	0
24	20	7	10000	2	1	0	2	0
23	20	7	10000	2	1	0	2	0
25	21	7	10000	2	1	0	2	0
23	23	7	10000	2	1	0	2	0
23	24	7	10000	2	1	0	2	0
22	25	7	10000	2	1	0	2	0
20	26	7	10000	2	1	0	2	0
20	27	7	10000	2	1	0	2	0
20	28	7	10000	2	1	0	2	0
20	29	7	10000	2	1	0	2	0
20	30	7	10000	2	1	0	2	0
19	30	7	10000	2	1	0	2	0
18	31	7	10000	2	1	0	2	0
18	33	7	10000	2	1	0	2	0
17	34	7	10000	2	1	0	2	0
19	35	7	10000	2	1	0	2	0
20	36	7	10000	2	1	0	2	0
20	37	7	10000	2	1	0	2	0
20	38	7	10000	2	1	0	2	0
21	39	7	10000	2	1	0	2	0
21	40	7	10000	2	1	0	2	0
23	40	7	10000	2	1	0	2	0
25	41	7	10000	2	1	0	2	0
24	43	7	10000	2	1	0	2	0
25	44	7	10000	2	1	0	2	0
24	45	7	10000	2	1	0	2	0
23	46	7	10000	2	1	0	2	0
22	47	7	10000	2	1	0	2	0
22	48	7	10000	2	1	0	2	0
21	49	7	10000	2	1	0	2	0
21	50	7	10000	2	1	0	2	0
20	50	7	10000	2	1	0	2	0
20	51	7	10000	2	1	0	2	0
20	53	7	10000	2	1	0	2	0
20	54	7	10000	2	1	0	2	0
24	55	7	10000	2	1	0	2	0
25	56	7	10000	2	1	0	2	0
24	57	7	10000	2	1	0	2	0
26	58	7	10000	2	1	0	2	0
30	59	7	10000	2	1	0	2	0
33	60	7	10000	2	1	0	2	0
36	60	7	10000	2	1	0	2	0
37	61	7	10000	2	1	0	2	0
37	63	7	10000	2	1	0	2	0
36	64	7	10000	2	1	0	2	0
34	65	7	10000	2	1	0	2	0
33	66	7	10000	2	1	0	2	0
35	67	7	10000	2	1	0	2	0
34	68	7	10000	2	1	0	2	0
33	69	7	10000	2	1	0	2	0
33	70	7	10000	2	1	0	2	0
33	70	7	10000	2	1	0	2	0
32	71	7	10000	2	1	0	2	0
32	73	7	10000	2	1	0	2	0
32	74	7	10000	2	1	0	2	0
35	75	7	10000	2	1	0	2	0
36	76	7	10000	2	1	0	2	0
36	77	7	10000	2	1	0	2	0
36	78	7	10000	2	1	0	2	0
35	79	7	10000	2	1	0	2	0
33	80	7	10000	2	1	0	2	0
33	80	7	10000	2	1	0	2	0
33	81	7	10000	2	1	0	2	0
35	83	7	10000	2	1	0	2	0
36	84	7	10000	2	1	0	2	0
34	85	7	10000	2	1	0	2	0
33	86	7	10000	2	1	0	2	0
34	87	7	10000	2	1	0	2	0
34	88	7	10000	2	1	0	2	0
34	89	7	10000	2	1	0	2	0
38	90	7	10000	2	1	0	2	0
42	90	7	10000	2	1	0	2	0
42	91	7	10000	2	1	0	2	0
43	93	7	10000	2	1	0	2	0
46	94	7	10000	2	1	0	2	0
52	95	7	10000	2	1	0	2	0
54	96	7	10000	2	1	0	2	0
53	97	7	10000	2	1	0	2	0
53	98	7	10000	2	1	0	2	0
51	99	7	10000	2	1	0	2	0
48	100	7	10000	2	1	0	2	0
49	100	7	10000	2	1	0	2	0
51	101	7	10000	2	1	0	2	0
55	103	7	10000	2	1	0	2	0
60	104	7	10000	2	1	0	2	0
61	105	7	10000	2	1	0	2	0
59	106	7	10000	2	1	0	2	0
58	107	7	10000	2	1	0	2	0
58	108	7	10000	2	1	0	2	0
58	109	7	10000	2	1	0	2	0
57	110	7	10000	2	1	0	2	0
56	110	7	10000	2	1	0	2	0
54	111	7	10000	2	1	0	2	0
54	113	7	10000	2	1	0	2	0
56	114	7	10000	2	1	0	2	0
57	115	7	10000	2	1	0	2	0
57	116	7	10000	2	1	0	2	0
55	117	7	10000	2	1	0	2	0
53	118	7	10000	2	1	0	2	0
51	119	7	10000	2	1	0	2	0
53	120	7	10000	2	1	0	2	0
56	120	7	10000	2	1	0	2	0
55	121	7	10000	2	1	0	2	0
54	123	7	10000	2	1	0	2	0
52	124	7	10000	2	1	0	2	0
49	125	7	10000	2	1	0	2	0
47	126	7	10000	2	1	0	2	0
45	127	7	10000	2	1	0	2	0
46	128	7	10000	2	1	0	2	0
49	129	7	10000	2	1	0	2	0
52	130	7	10000	2	1	0	2	0
55	130	7	10000	2	1	0	2	0
59	131	7	10000	2	1	0	2	0
59	133	7	10000	2	1	0	2	0
57	134	7	10000	2	1	0	2	0
58	135	7	10000	2	1	0	2	0
60	136	7	10000	2	1	0	2	0
60	137	7	10000	2	1	0	2	0
58	138	7	10000	2	1	0	2	0
56	139	7	10000	2	1	0	2	0
56	140	7	10000	2	1	0	2	0
55	140	7	10000	2	1	0	2	0
54	141	7	10000	2	1	0	2	0
53	143	7	10000	2	1	0	2	0
50	144	7	10000	2	1	0	2	0
47	145	7	10000	2	1	0	2	0
45	146	7	10000	2	1	0	2	0
44	147	7	10000	2	1	0	2	0
42	148	7	10000	2	1	0	2	0
42	149	7	10000	2	1	0	2	0
43	150	7	10000	2	1	0	2	0
46	150	7	10000	2	1	0	2	0
49	151	7	10000	2	1	0	2	0
49	153	7	10000	2	1	0	2	0
50	154	7	10000	2	1	0	2	0
53	155	7	10000	2	1	0	2	0
55	156	7	10000	2	1	0	2	0
56	157	7	10000	2	1	0	2	0
54	158	7	10000	2	1	0	2	0
54	159	7	10000	2	1	0	2	0
57	160	7	10000	2	1	0	2	0
60	160	7	10000	2	1	0	2	0
64	161	7	10000	2	1	0	2	0
65	163	7	10000	2	1	0	2	0
65	164	7	10000	2	1	0	2	0
62	165	7	10000	2	1	0	2	0
60	166	7	10000	2	1	0	2	0
59	167	7	10000	2	1	0	2	0
59	168	7	10000	2	1	0	2	0
60	169	7	10000	2	1	0	2	0
62	170	7	10000	2	1	0	2	0
65	170	7	10000	2	1	0	2	0
65	171	7	10000	2	1	0	2	0
64	173	7	10000	2	1	0	2	0
61	174	7	10000	2	1	0	2	0
59	175	7	10000	2	1	0	2	0
58	176	7	10000	2	1	0	2	0
57	177	7	10000	2	1	0	2	0
56	178	7	10000	2	1	0	2	0
55	179	7	10000	2	1	0	2	0
53	180	7	10000	2	1	0	2	0
51	180	7	10000	2	1	0	2	0
49	181	7	10000	2	1	0	2	0
48	183	7	10000	2	1	0	2	0
48	184	7	10000	2	1	0	2	0
47	185	7	10000	2	1	0	2	0
44	186	7	10000	2	1	0	2	0
43	187	7	10000	2	1	0	2	0
44	188	7	10000	2	1	0	2	0
45	189	7	10000	2	1	0	2	0
45	190	7	10000	2	1	0	2	0
47	190	7	10000	2	1	0	2	0
48	191	7	10000	2	1	0	2	0
47	193	7	10000	2	1	0	2	0
45	194	7	10000	2	1	0	2	0
45	195	7	10000	2	1	0	2	0
45	196	7	10000	2	1	0	2	0
44	197	7	10000	2	1	0	2	0
44	198	7	10000	2	1	0	2	0
44	199	7	10000	2	1	0	2	0
44	200	7	10000	2	1	0	2	0
44	200	7	10000	2	1	0	2	0
44	201	7	10000	2	1	0	2	0
42	203	7	10000	2	1	0	2	0
42	204	7	10000	2	1	0	2	0
40	205	7	10000	2	1	0	2	0
38	206	7	10000	2	1	0	2	0
39	207	7	10000	2	1	0	2	0
40	208	7	10000	2	1	0	2	0
40	209	7	10000	2	1	0	2	0
38	210	7	10000	2	1	0	2	0
37	210	7	10000	2	1	0	2	0
36	211	7	10000	2	1	0	2	0
34	213	7	10000	2	1	0	2	0
33	214	7	10000	2	1	0	2	0
34	215	7	10000	2	1	0	2	0
35	216	7	10000	2	1	0	2	0
33	217	7	10000	2	1	0	2	0
32	218	7	10000	2	1	0	2	0
31	219	7	10000	2	1	0	2	0
31	220	7	10000	2	1	0	2	0
30	220	7	10000	2	1	0	2	0
29	221	7	10000	2	1	0	2	0
31	223	7	10000	2	1	0	2	0
32	224	7	10000	2	1	0	2	0
32	225	7	10000	2	1	0	2	0
30	226	7	10000	2	1	0	2	0
29	227	7	10000	2	1	0	2	0
29	228	7	10000	2	1	0	2	0
32	229	7	10000	2	1	0	2	0
35	230	7	10000	2	1	0	2	0
34	230	7	10000	2	1	0	2	0
34	231	7	10000	2	1	0	2	0
33	233	7	10000	2	1	0	2	0
33	234	7	10000	2	1	0	2	0
36	235	7	10000	2	1	0	2	0
38	236	7	10000	2	1	0	2	0
38	237	7	10000	2	1	0	2	0
37	238	7	10000	2	1	0	2	0
36	239	7	10000	2	1	0	2	0
34	240	7	10000	2	1	0	2	0
34	240	7	10000	2	1	0	2	0
35	241	7	10000	2	1	0	2	0
34	243	7	10000	2	1	0	2	0
34	244	7	10000	2	1	0	2	0
33	245	7	10000	2	1	0	2	0
30	246	7	10000	2	1	0	2	0
31	247	7	10000	2	1	0	2	0
31	248	7	10000	2	1	0	2	0
30	249	7	10000	2	1	0	2	0
29	250	7	10000	2	1	0	2	0
30	250	7	10000	2	1	0	2	0
30	251	7	10000	2	1	0	2	0
30	253	7	10000	2	1	0	2	0
28	254	7	10000	2	1	0	2	0
28	255	7	10000	2	1	0	2	0
29	256	7	10000	2	1	0	2	0
29	257	7	10000	2	1	0	2	0
30	258	7	10000	2	1	0	2	0
30	259	7	10000	2	1	0	2	0
30	260	7	10000	2	1	0	2	0
30	260	7	10000	2	1	0	2	0
32	261	7	10000	2	1	0	2	0
31	263	7	10000	2	1	0	2	0
32	264	7	10000	2	1	0	2	0
32	265	7	10000	2	1	0	2	0
33	266	7	10000	2	1	0	2	0
34	267	7	10000	2	1	0	2	0
33	268	7	10000	2	1	0	2	0
31	269	7	10000	2	1	0	2	0
31	270	7	10000	2	1	0	2	0
32	270	7	10000	2	1	0	2	0
31	271	7	10000	2	1	0	2	0
30	273	7	10000	2	1	0	2	0
31	274	7	10000	2	1	0	2	0
34	275	7	10000	2	1	0	2	0
35	276	7	10000	2	1	0	2	0
33	277	7	10000	2	1	0	2	0
32	278	7	10000	2	1	0	2	0
30	279	7	10000	2	1	0	2	0
31	280	7	10000	2	1	0	2	0
31	280	7	10000	2	1	0	2	0
31	281	7	10000	2	1	0	2	0
31	283	7	10000	2	1	0	2	0
31	284	7	10000	2	1	0	2	0
30	285	7	10000	2	1	0	2	0
29	286	7	10000	2	1	0	2	0
30	287	7	10000	2	1	0	2	0
30	288	7	10000	2	1	0	2	0
31	289	7	10000	2	1	0	2	0
30	290	7	10000	2	1	0	2	0
30	290	7	10000	2	1	0	2	0
30	291	7	10000	2	1	0	2	0
30	293	7	10000	2	1	0	2	0
29	294	7	10000	2	1	0	2	0
28	295	7	10000	2	1	0	2	0
29	296	7	10000	2	1	0	2	0
28	297	7	10000	2	1	0	2	0
29	298	7	10000	2	1	0	2	0
28	299	7	10000	2	1	0	2	0
28	300	7	10000	2	1	0	2	0
28	300	7	10000	2	1	0	2	0
27	301	7	10000	2	1	0	2	0
27	303	7	10000	2	1	0	2	0
26	304	7	10000	2	1	0	2	0
25	305	7	10000	2	1	0	2	0
25	306	7	10000	2	1	0	2	0
27	307	7	10000	2	1	0	2	0
30	308	7	10000	2	1	0	2	0
33	309	7	10000	2	1	0	2	0
34	310	7	10000	2	1	0	2	0
36	310	7	10000	2	1	0	2	0
36	311	7	10000	2	1	0	2	0
34	313	7	10000	2	1	0	2	0
32	314	7	10000	2	1	0	2	0
33	315	7	10000	2	1	0	2	0
34	316	7	10000	2	1	0	2	0
34	317	7	10000	2	1	0	2	0
33	318	7	10000	2	1	0	2	0
31	319	7	10000	2	1	0	2	0
31	320	7	10000	2	1	0	2	0
31	320	7	10000	2	1	0	2	0
32	321	7	10000	2	1	0	2	0
33	323	7	10000	2	1	0	2	0
32	324	7	10000	2	1	0	2	0
30	325	7	10000	2	1	0	2	0
27	326	7	10000	2	1	0	2	0
26	327	7	10000	2	1	0	2	0
27	328	7	10000	2	1	0	2	0
28	329	7	10000	2	1	0	2	0
28	330	7	10000	2	1	0	2	0
29	330	7	10000	2	1	0	2	0
32	331	7	10000	2	1	0	2	0
34	333	7	10000	2	1	0	2	0
34	334	7	10000	2	1	0	2	0
35	335	7	10000	2	1	0	2	0
37	336	7	10000	2	1	0	2	0
37	337	7	10000	2	1	0	2	0
36	338	7	10000	2	1	0	2	0
35	339	7	10000	2	1	0	2	0
34	340	7	10000	2	1	0	2	0
33	340	7	10000	2	1	0	2	0
32	341	7	10000	2	1	0	2	0
33	343	7	10000	2	1	0	2	0
36	344	7	10000	2	1	0	2	0
36	345	7	10000	2	1	0	2	0
33	346	7	10000	2	1	0	2	0
34	347	7	10000	2	1	0	2	0
33	348	7	10000	2	1	0	2	0
32	349	7	10000	2	1	0	2	0
33	350	7	10000	2	1	0	2	0
35	350	7	10000	2	1	0	2	0
36	351	7	10000	2	1	0	2	0
36	353	7	10000	2	1	0	2	0
36	354	7	10000	2	1	0	2	0
38	355	7	10000	2	1	0	2	0
42	356	7	10000	2	1	0	2	0
42	357	7	10000	2	1	0	2	0
42	358	7	10000	2	1	0	2	0
40	359	7	10000	2	1	0	2	0
39	360	7	10000	2	1	0	2	0
38	360	7	10000	2	1	0	2	0
38	361	7	10000	2	1	0	2	0
36	363	7	10000	2	1	0	2	0
36	364	7	10000	2	1	0	2	0
34	365	7	10000	2	1	0	2	0
31	366	7	10000	2	1	0	2	0
31	367	7	10000	2	1	0	2	0
31	368	7	10000	2	1	0	2	0
30	369	7	10000	2	1	0	2	0
29	370	7	10000	2	1	0	2	0
28	370	7	10000	2	1	0	2	0
28	371	7	10000	2	1	0	2	0
28	373	7	10000	2	1	0	2	0
27	374	7	10000	2	1	0	2	0
27	375	7	10000	2	1	0	2	0
29	376	7	10000	2	1	0	2	0
28	377	7	10000	2	1	0	2	0
29	378	7	10000	2	1	0	2	0
29	379	7	10000	2	1	0	2	0
28	380	7	10000	2	1	0	2	0
28	380	7	10000	2	1	0	2	0
31	381	7	10000	2	1	0	2	0
35	383	7	10000	2	1	0	2	0
36	384	7	10000	2	1	0	2	0
38	385	7	10000	2	1	0	2	0
39	386	7	10000	2	1	0	2	0
41	387	7	10000	2	1	0	2	0
43	388	7	10000	2	1	0	2	0
43	389	7	10000	2	1	0	2	0
43	390	7	10000	2	1	0	2	0
42	390	7	10000	2	1	0	2	0
43	391	7	10000	2	1	0	2	0
44	393	7	10000	2	1	0	2	0
42	394	7	10000	2	1	0	2	0
40	395	7	10000	2	1	0	2	0
41	396	7	10000	2	1	0	2	0
43	397	7	10000	2	1	0	2	0
44	398	7	10000	2	1	0	2	0
44	399	7	10000	2	1	0	2	0
43	400	7	10000	2	1	0	2	0
44	400	7	10000	2	1	0	2	0
47	401	7	10000	2	1	0	2	0
49	403	7	10000	2	1	0	2	0
48	404	7	10000	2	1	0	2	0
47	405	7	10000	2	1	0	2	0
44	406	7	10000	2	1	0	2	0
45	407	7	10000	2	1	0	2	0
44	408	7	10000	2	1	0	2	0
44	409	7	10000	2	1	0	2	0
44	410	7	10000	2	1	0	2	0
44	410	7	10000	2	1	0	2	0
47	411	7	10000	2	1	0	2	0
49	413	7	10000	2	1	0	2	0
47	414	7	10000	2	1	0	2	0
46	415	7	10000	2	1	0	2	0
47	416	7	10000	2	1	0	2	0
45	417	7	10000	2	1	0	2	0
45	418	7	10000	2	1	0	2	0
46	419	7	10000	2	1	0	2	0
50	420	7	10000	2	1	0	2	0
54	420	7	10000	2	1	0	2	0
55	421	7	10000	2	1	0	2	0
56	423	7	10000	2	1	0	2	0
57	424	7	10000	2	1	0	2	0
55	425	7	10000	2	1	0	2	0
54	426	7	10000	2	1	0	2	0
56	427	7	10000	2	1	0	2	0
56	428	7	10000	2	1	0	2	0
55	429	7	10000	2	1	0	2	0
54	430	7	10000	2	1	0	2	0
52	430	7	10000	2	1	0	2	0
52	431	7	10000	2	1	0	2	0
50	433	7	10000	2	1	0	2	0
48	434	7	10000	2	1	0	2	0
49	435	7	10000	2	1	0	2	0
51	436	7	10000	2	1	0	2	0
51	437	7	10000	2	1	0	2	0
53	438	7	10000	2	1	0	2	0
56	439	7	10000	2	1	0	2	0
56	440	7	10000	2	1	0	2	0
56	440	7	10000	2	1	0	2	0
54	441	7	10000	2	1	0	2	0
53	443	7	10000	2	1	0	2	0
54	444	7	10000	2	1	0	2	0
57	445	7	10000	2	1	0	2	0
62	446	7	10000	2	1	0	2	0
65	447	7	10000	2	1	0	2	0
66	448	7	10000	2	1	0	2	0
67	449	7	10000	2	1	0	2	0
63	450	7	10000	2	1	0	2	0
61	450	7	10000	2	1	0	2	0
63	451	7	10000	2	1	0	2	0
64	453	7	10000	2	1	0	2	0
63	454	7	10000	2	1	0	2	0
64	455	7	10000	2	1	0	2	0
64	456	7	10000	2	1	0	2	0
62	457	7	10000	2	1	0	2	0
62	458	7	10000	2	1	0	2	0
59	459	7	10000	2	1	0	2	0
56	460	7	10000	2	1	0	2	0
55	460	7	10000	2	1	0	2	0
54	461	7	10000	2	1	0	2	0
53	463	7	10000	2	1	0	2	0
53	464	7	10000	2	1	0	2	0
51	465	7	10000	2	1	0	2	0
51	466	7	10000	2	1	0	2	0
51	467	7	10000	2	1	0	2	0
50	468	7	10000	2	1	0	2	0
49	469	7	10000	2	1	0	2	0
47	470	7	10000	2	1	0	2	0
46	470	7	10000	2	1	0	2	0
45	471	7	10000	2	1	0	2	0
42	473	7	10000	2	1	0	2	0
40	474	7	10000	2	1	0	2	0
41	475	7	10000	2	1	0	2	0
42	476	7	10000	2	1	0	2	0
41	477	7	10000	2	1	0	2	0
39	478	7	10000	2	1	0	2	0
37	479	7	10000	2	1	0	2	0
37	480	7	10000	2	1	0	2	0
37	480	7	10000	2	1	0	2	0
36	481	7	10000	2	1	0	2	0
38	483	7	10000	2	1	0	2	0
39	484	7	10000	2	1	0	2	0
40	485	7	10000	2	1	0	2	0
43	486	7	10000	2	1	0	2	0
48	487	7	10000	2	1	0	2	0
49	488	7	10000	2	1	0	2	0
49	489	7	10000	2	1	0	2	0
48	490	7	10000	2	1	0	2	0
50	490	7	10000	2	1	0	2	0
52	491	7	10000	2	1	0	2	0
50	493	7	10000	2	1	0	2	0
49	494	7	10000	2	1	0	2	0
50	495	7	10000	2	1	0	2	0
53	496	7	10000	2	1	0	2	0
53	497	7	10000	2	1	0	2	0
50	498	7	10000	2	1	0	2	0
48	499	7	10000	2	1	0	2	0
47	500	7	10000	2	1	0	2	0
48	500	7	10000	2	1	0	2	0
49	501	7	10000	2	1	0	2	0
51	503	7	10000	2	1	0	2	1
53	504	7	10000	2	1	0	2	1
53	505	7	10000	2	1	0	2	1
50	506	7	10000	2	1	0	2	1
48	507	7	10000	2	1	0	2	1
47	508	7	10000	2	1	0	2	1
45	509	7	10000	2	1	0	2	1
44	510	7	10000	2	1	0	2	1
44	510	7	10000	2	1	0	2	1
44	511	7	10000	2	1	0	2	1
42	513	7	10000	2	1	0	2	1
40	514	7	10000	2	1	0	2	1
39	515	7	10000	2	1	0	2	1
39	516	7	10000	2	1	0	2	1
39	517	7	10000	2	1	0	2	1
42	518	7	10000	2	1	0	2	1
43	519	7	10000	2	1	0	2	1
44	520	7	10000	2	1	0	2	1
44	520	7	10000	2	1	0	2	1
43	521	7	10000	2	1	0	2	1
42	523	7	10000	2	1	0	2	1
43	524	7	10000	2	1	0	2	1
43	525	7	10000	2	1	0	2	1
39	526	7	10000	2	1	0	2	1
39	527	7	10000	2	1	0	2	1
38	528	7	10000	2	1	0	2	1
38	529	7	10000	2	1	0	2	1
38	530	7	10000	2	1	0	2	1
37	530	7	10000	2	1	0	2	1
40	531	7	10000	2	1	0	2	1
43	533	7	10000	2	1	0	2	1
43	534	7	10000	2	1	0	2	1
42	535	7	10000	2	1	0	2	1
44	536	7	10000	2	1	0	2	1
41	537	7	10000	2	1	0	2	1
40	538	7	10000	2	1	0	2	1
42	539	7	10000	2	1	0	2	1
44	540	7	10000	2	1	0	2	1
48	540	7	10000	2	1	0	2	1
56	541	7	10000	2	1	0	2	1
65	543	7	10000	2	1	0	2	1
71	544	7	10000	2	1	0	2	1
75	545	7	10000	2	1	0	2	1
75	546	7	10000	2	1	0	2	1
76	547	7	10000	2	1	0	2	1
76	548	7	10000	2	1	0	2	1
74	549	7	10000	2	1	0	2	1
72	550	7	10000	2	1	0	2	1
70	550	7	10000	2	1	0	2	1
67	551	7	10000	2	1	0	2	1
65	553	7	10000	2	1	0	2	0
63	554	7	10000	2	1	0	2	0
64	555	7	10000	2	1	0	2	0
68	556	7	10000	2	1	0	2	0
68	557	7	10000	2	1	0	2	0
70	558	7	10000	2	1	0	2	0
72	559	7	10000	2	1	0	2	0
73	560	7	10000	2	1	0	2	0
75	560	7	10000	2	1	0	2	0
74	561	7	10000	2	1	0	2	0
72	563	7	10000	2	1	0	2	0
70	564	7	10000	2	1	0	2	0
68	565	7	10000	2	1	0	2	0
65	566	7	10000	2	1	0	2	0
63	567	7	10000	2	1	0	2	0
61	568	7	10000	2	1	0	2	0
58	569	7	10000	2	1	0	2	0
58	570	7	10000	2	1	0	2	0
58	570	7	10000	2	1	0	2	0
59	571	7	10000	2	1	0	2	0
60	573	7	10000	2	1	0	2	0
61	574	7	10000	2	1	0	2	0
61	575	7	10000	2	1	0	2	0
62	576	7	10000	2	1	0	2	0
60	577	7	10000	2	1	0	2	0
63	578	7	10000	2	1	0	2	0
63	579	7	10000	2	1	0	2	0
63	580	7	10000	2	1	0	2	0
61	580	7	10000	2	1	0	2	0
59	581	7	10000	2	1	0	2	0
59	583	7	10000	2	1	0	2	0
62	584	7	10000	2	1	0	2	0
64	585	7	10000	2	1	0	2	0
68	586	7	10000	2	1	0	2	0
77	587	7	10000	2	1	0	2	0
78	588	7	10000	2	1	0	2	0
75	589	7	10000	2	1	0	2	0
75	590	7	10000	2	1	0	2	0
73	590	7	10000	2	1	0	2	0
73	591	7	10000	2	1	0	2	0
73	593	7	10000	2	1	0	2	0
70	594	7	10000	2	1	0	2	0
69	595	7	10000	2	1	0	2	0
70	596	7	10000	2	1	0	2	0
68	597	7	10000	2	1	0	2	0
75	598	7	10000	2	1	0	2	0
79	599	7	10000	2	1	0	2	0
80	600	7	10000	2	1	0	2	0
79	600	7	10000	2	1	0	2	0
77	601	7	10000	2	1	0	2	0
77	603	7	10000	2	1	0	2	0
76	604	7	10000	2	1	0	2	0
73	605	7	10000	2	1	0	2	0
71	606	7	10000	2	1	0	2	0
72	607	7	10000	2	1	0	2	0
76	608	7	10000	2	1	0	2	0
76	609	7	10000	2	1	0	2	0
81	610	7	10000	2	1	0	2	0
88	610	7	10000	2	1	0	2	0
87	611	7	10000	2	1	0	2	0
84	613	7	10000	2	1	0	2	0
81	614	7	10000	2	1	0	2	0
79	615	7	10000	2	1	0	2	0
77	616	7	10000	2	1	0	2	0
74	617	7	10000	2	1	0	2	0
72	618	7	10000	2	1	0	2	0
69	619	7	10000	2	1	0	2	0
68	620	7	10000	2	1	0	2	0
65	620	7	10000	2	1	0	2	0
64	621	7	10000	2	1	0	2	0
63	623	7	10000	2	1	0	2	0
62	624	7	10000	2	1	0	2	0
58	625	7	10000	2	1	0	2	0
56	626	7	10000	2	1	0	2	0
55	627	7	10000	2	1	0	2	0
54	628	7	10000	2	1	0	2	0
53	629	7	10000	2	1	0	2	0
50	630	7	10000	2	1	0	2	0
49	630	7	10000	2	1	0	2	0
47	631	7	10000	2	1	0	2	0
45	633	7	10000	2	1	0	2	0
44	634	7	10000	2	1	0	2	0
46	635	7	10000	2	1	0	2	0
49	636	7	10000	2	1	0	2	0
52	637	7	10000	2	1	0	2	0
54	638	7	10000	2	1	0	2	0
54	639	7	10000	2	1	0	2	0
52	640	7	10000	2	1	0	2	0
49	640	7	10000	2	1	0	2	0
47	641	7	10000	2	1	0	2	0
49	643	7	10000	2	1	0	2	0
49	644	7	10000	2	1	0	2	0
46	645	7	10000	2	1	0	2	0
44	646	7	10000	2	1	0	2	0
45	647	7	10000	2	1	0	2	0
44	648	7	10000	2	1	0	2	0
44	649	7	10000	2	1	0	2	0
43	650	7	10000	2	1	0	2	0
41	650	7	10000	2	1	0	2	0
40	651	7	10000	2	1	0	2	0
38	653	7	10000	2	1	0	2	0
36	654	7	10000	2	1	0	2	0
35	655	7	10000	2	1	0	2	0
35	656	7	10000	2	1	0	2	0
35	657	7	10000	2	1	0	2	0
35	658	7	10000	2	1	0	2	0
37	659	7	10000	2	1	0	2	0
38	660	7	10000	2	1	0	2	0
39	660	7	10000	2	1	0	2	0
37	661	7	10000	2	1	0	2	0
37	663	7	10000	2	1	0	2	0
37	664	7	10000	2	1	0	2	0
39	665	7	10000	2	1	0	2	0
37	666	7	10000	2	1	0	2	0
37	667	7	10000	2	1	0	2	0
39	668	7	10000	2	1	0	2	0
40	669	7	10000	2	1	0	2	0
38	670	7	10000	2	1	0	2	0
39	670	7	10000	2	1	0	2	0
38	671	7	10000	2	1	0	2	0
39	673	7	10000	2	1	0	2	0
42	674	7	10000	2	1	0	2	0
42	675	7	10000	2	1	0	2	0
42	676	7	10000	2	1	0	2	0
41	677	7	10000	2	1	0	2	0
42	678	7	10000	2	1	0	2	0
43	679	7	10000	2	1	0	2	0
43	680	7	10000	2	1	0	2	0
40	680	7	10000	2	1	0	2	0
38	681	7	10000	2	1	0	2	0
38	683	7	10000	2	1	0	2	0
38	684	7	10000	2	1	0	2	0
39	685	7	10000	2	1	0	2	0
35	686	7	10000	2	1	0	2	0
34	687	7	10000	2	1	0	2	0
35	688	7	10000	2	1	0	2	0
35	689	7	10000	2	1	0	2	0
35	690	7	10000	2	1	0	2	0
35	690	7	10000	2	1	0	2	0
37	691	7	10000	2	1	0	2	0
38	693	7	10000	2	1	0	2	0
39	694	7	10000	2	1	0	2	0
37	695	7	10000	2	1	0	2	0
38	696	7	10000	2	1	0	2	0
37	697	7	10000	2	1	0	2	0
36	698	7	10000	2	1	0	2	0
38	699	7	10000	2	1	0	2	0
36	700	7	10000	2	1	0	2	0
37	700	7	10000	2	1	0	2	0
37	701	7	10000	2	1	0	2	0
35	703	7	10000	2	1	0	2	0
37	704	7	10000	2	1	0	2	0
36	705	7	10000	2	1	0	2	0
35	706	7	10000	2	1	0	2	0
36	707	7	10000	2	1	0	2	0
38	708	7	10000	2	1	0	2	0
39	709	7	10000	2	1	0	2	0
40	710	7	10000	2	1	0	2	0
39	710	7	10000	2	1	0	2	0
40	711	7	10000	2	1	0	2	0
39	713	7	10000	2	1	0	2	0
38	714	7	10000	2	1	0	2	0
38	715	7	10000	2	1	0	2	0
40	716	7	10000	2	1	0	2	0
40	717	7	10000	2	1	0	2	0
41	718	7	10000	2	1	0	2	0
40	719	7	10000	2	1	0	2	0
39	720	7	10000	2	1	0	2	0
38	720	7	10000	2	1	0	2	0
37	721	7	10000	2	1	0	2	0
37	723	7	10000	2	1	0	2	0
35	724	7	10000	2	1	0	2	0
36	725	7	10000	2	1	0	2	0
35	726	7	10000	2	1	0	2	0
35	727	7	10000	2	1	0	2	0
34	728	7	10000	2	1	0	2	0
37	729	7	10000	2	1	0	2	0
39	730	7	10000	2	1	0	2	0
40	730	7	10000	2	1	0	2	0
39	731	7	10000	2	1	0	2	0
37	733	7	10000	2	1	0	2	0
38	734	7	10000	2	1	0	2	0
38	735	7	10000	2	1	0	2	0
40	736	7	10000	2	1	0	2	0
44	737	7	10000	2	1	0	2	0
49	738	7	10000	2	1	0	2	0
50	739	7	10000	2	1	0	2	0
49	740	7	10000	2	1	0	2	0
48	740	7	10000	2	1	0	2	0
46	741	7	10000	2	1	0	2	0
45	743	7	10000	2	1	0	2	0
47	744	7	10000	2	1	0	2	0
48	745	7	10000	2	1	0	2	0
46	746	7	10000	2	1	0	2	0
44	747	7	10000	2	1	0	2	0
43	748	7	10000	2	1	0	2	0
44	749	7	10000	2	1	0	2	0
44	750	7	10000	2	1	0	2	0
44	750	7	10000	2	1	0	2	0
43	751	7	10000	2	1	0	2	0
41	753	7	10000	2	1	0	2	0
41	754	7	10000	2	1	0	2	0
40	755	7	10000	2	1	0	2	0
41	756	7	10000	2	1	0	2	0
40	757	7	10000	2	1	0	2	0
40	758	7	10000	2	1	0	2	0
43	759	7	10000	2	1	0	2	0
44	760	7	10000	2	1	0	2	0
45	760	7	10000	2	1	0	2	0
46	761	7	10000	2	1	0	2	0
48	763	7	10000	2	1	0	2	0
47	764	7	10000	2	1	0	2	0
44	765	7	10000	2	1	0	2	0
42	766	7	10000	2	1	0	2	0
42	767	7	10000	2	1	0	2	0
41	768	7	10000	2	1	0	2	0
40	769	7	10000	2	1	0	2	0
40	770	7	10000	2	1	0	2	0
39	770	7	10000	2	1	0	2	0
39	771	7	10000	2	1	0	2	0
41	773	7	10000	2	1	0	2	0
40	774	7	10000	2	1	0	2	0
41	775	7	10000	2	1	0	2	0
42	776	7	10000	2	1	0	2	0
42	777	7	10000	2	1	0	2	0
42	778	7	10000	2	1	0	2	0
42	779	7	10000	2	1	0	2	0
40	780	7	10000	2	1	0	2	0
39	780	7	10000	2	1	0	2	0
39	781	7	10000	2	1	0	2	0
40	783	7	10000	2	1	0	2	0
40	784	7	10000	2	1	0	2	0
40	785	7	10000	2	1	0	2	0
38	786	7	10000	2	1	0	2	0
41	787	7	10000	2	1	0	2	0
42	788	7	10000	2	1	0	2	0
43	789	7	10000	2	1	0	2	0
42	790	7	10000	2	1	0	2	0
42	790	7	10000	2	1	0	2	0
42	791	7	10000	2	1	0	2	0
41	793	7	10000	2	1	0	2	0
40	794	7	10000	2	1	0	2	0
43	795	7	10000	2	1	0	2	0
47	796	7	10000	2	1	0	2	0
47	797	7	10000	2	1	0	2	0
46	798	7	10000	2	1	0	2	0
45	799	7	10000	2	1	0	2	0
45	800	7	10000	2	1	0	2	0
45	800	7	10000	2	1	0	2	0
43	801	7	10000	2	1	0	2	0
43	803	7	10000	2	1	0	2	0
42	804	7	10000	2	1	0	2	0
40	805	7	10000	2	1	0	2	0
40	806	7	10000	2	1	0	2	0
40	807	7	10000	2	1	0	2	0
41	808	7	10000	2	1	0	2	0
43	809	7	10000	2	1	0	2	0
43	810	7	10000	2	1	0	2	0
44	810	7	10000	2	1	0	2	0
47	811	7	10000	2	1	0	2	0
51	813	7	10000	2	1	0	2	0
55	814	7	10000	2	1	0	2	0
54	815	7	10000	2	1	0	2	0
57	816	7	10000	2	1	0	2	0
60	817	7	10000	2	1	0	2	0
62	818	7	10000	2	1	0	2	0
62	819	7	10000	2	1	0	2	0
63	820	7	10000	2	1	0	2	0
61	820	7	10000	2	1	0	2	0
60	821	7	10000	2	1	0	2	0
62	823	7	10000	2	1	0	2	0
62	824	7	10000	2	1	0	2	0
61	825	7	10000	2	1	0	2	0
57	826	7	10000	2	1	0	2	0
56	827	7	10000	2	1	0	2	0
56	828	7	10000	2	1	0	2	0
56	829	7	10000	2	1	0	2	0
54	830	7	10000	2	1	0	2	0
53	830	7	10000	2	1	0	2	0
52	831	7	10000	2	1	0	2	0
50	833	7	10000	2	1	0	2	0
50	834	7	10000	2	1	0	2	0
48	835	7	10000	2	1	0	2	0
52	836	7	10000	2	1	0	2	0
57	837	7	10000	2	1	0	2	0
58	838	7	10000	2	1	0	2	0
59	839	7	10000	2	1	0	2	0
59	840	7	10000	2	1	0	2	0
61	840	7	10000	2	1	0	2	0
61	841	7	10000	2	1	0	2	0
62	843	7	10000	2	1	0	2	0
63	844	7	10000	2	1	0	2	0
64	845	7	10000	2	1	0	2	0
62	846	7	10000	2	1	0	2	0
65	847	7	10000	2	1	0	2	0
70	848	7	10000	2	1	0	2	0
74	849	7	10000	2	1	0	2	0
78	850	7	10000	2	1	0	2	0
81	850	7	10000	2	1	0	2	0
85	851	7	10000	2	1	0	2	0
89	853	7	10000	2	1	0	2	0
90	854	7	10000	2	1	0	2	0
87	855	7	10000	2	1	0	2	0
86	856	7	10000	2	1	0	2	0
82	857	7	10000	2	1	0	2	0
79	858	7	10000	2	1	0	2	0
79	859	7	10000	2	1	0	2	0
79	860	7	10000	2	1	0	2	0
80	860	7	10000	2	1	0	2	0
83	861	7	10000	2	1	0	2	0
87	863	7	10000	2	1	0	2	0
88	864	7	10000	2	1	0	2	0
85	865	7	10000	2	1	0	2	0
79	866	7	10000	2	1	0	2	0
77	867	7	10000	2	1	0	2	0
76	868	7	10000	2	1	0	2	0
74	869	7	10000	2	1	0	2	0
73	870	7	10000	2	1	0	2	0
75	870	7	10000	2	1	0	2	0
78	871	7	10000	2	1	0	2	0
81	873	7	10000	2	1	0	2	0
83	874	7	10000	2	1	0	2	0
84	875	7	10000	2	1	0	2	0
84	876	7	10000	2	1	0	2	0
83	877	7	10000	2	1	0	2	0
85	878	7	10000	2	1	0	2	0
90	879	7	10000	2	1	0	2	0
92	880	7	10000	2	1	0	2	0
94	880	7	10000	2	1	0	2	0
95	881	7	10000	2	1	0	2	0
95	883	7	10000	2	1	0	2	0
95	884	7	10000	2	1	0	2	0
94	885	7	10000	2	1	0	2	0
89	886	7	10000	2	1	0	2	0
89	887	7	10000	2	1	0	2	0
91	888	7	10000	2	1	0	2	0
95	889	7	10000	2	1	0	2	0
97	890	7	10000	2	1	0	2	0
97	890	7	10000	2	1	0	2	0
98	891	7	10000	2	1	0	2	0
104	893	7	10000	2	1	0	2	0
113	894	7	10000	2	1	0	2	0
122	895	7	10000	2	1	0	2	0
128	896	7	10000	2	1	0	2	0
127	897	7	10000	2	1	0	2	0
123	898	7	10000	2	1	0	2	0
118	899	7	10000	2	1	0	2	0
113	900	7	10000	2	1	0	2	0
110	900	7	10000	2	1	0	2	0
107	901	7	10000	2	1	0	2	0
106	903	7	10000	2	1	0	2	0
108	904	7	10000	2	1	0	2	0
107	905	7	10000	2	1	0	2	0
104	906	7	10000	2	1	0	2	0
106	907	7	10000	2	1	0	2	0
105	908	7	10000	2	1	0	2	0
109	909	7	10000	2	1	0	2	0
110	910	7	10000	2	1	0	2	0
108	910	7	10000	2	1	0	2	0
106	911	7	10000	2	1	0	2	0
101	913	7	10000	2	1	0	2	0
98	914	7	10000	2	1	0	2	0
94	915	7	10000	2	1	0	2	0
92	916	7	10000	2	1	0	2	0
90	917	7	10000	2	1	0	2	0
90	918	7	10000	2	1	0	2	0
89	919	7	10000	2	1	0	2	0
90	920	7	10000	2	1	0	2	0
90	920	7	10000	2	1	0	2	0
89	921	7	10000	2	1	0	2	0
89	923	7	10000	2	1	0	2	0
88	924	7	10000	2	1	0	2	0
86	925	7	10000	2	1	0	2	0
84	926	7	10000	2	1	0	2	0
83	927	7	10000	2	1	0	2	0
88	928	7	10000	2	1	0	2	0
89	929	7	10000	2	1	0	2	0
86	930	7	10000	2	1	0	2	0
86	930	7	10000	2	1	0	2	0
87	931	7	10000	2	1	0	2	0
88	933	7	10000	2	1	0	2	0
88	934	7	10000	2	1	0	2	0
87	935	7	10000	2	1	0	2	0
85	936	7	10000	2	1	0	2	0
81	937	7	10000	2	1	0	2	0
80	938	7	10000	2	1	0	2	0
77	939	7	10000	2	1	0	2	0
77	940	7	10000	2	1	0	2	0
74	940	7	10000	2	1	0	2	0
70	941	7	10000	2	1	0	2	0
69	943	7	10000	2	1	0	2	0
69	944	7	10000	2	1	0	2	0
67	945	7	10000	2	1	0	2	0
63	946	7	10000	2	1	0	2	0
63	947	7	10000	2	1	0	2	0
63	948	7	10000	2	1	0	2	0
63	949	7	10000	2	1	0	2	0
62	950	7	10000	2	1	0	2	0
59	950	7	10000	2	1	0	2	0
58	951	7	10000	2	1	0	2	0
57	953	7	10000	2	1	0	2	0
59	954	7	10000	2	1	0	2	0
58	955	7	10000	2	1	0	2	0
62	956	7	10000	2	1	0	2	0
66	957	7	10000	2	1	0	2	0
65	958	7	10000	2	1	0	2	0
64	959	7	10000	2	1	0	2	0
66	960	7	10000	2	1	0	2	0
66	960	7	10000	2	1	0	2	0
64	961	7	10000	2	1	0	2	0
64	963	7	10000	2	1	0	2	0
65	964	7	10000	2	1	0	2	0
65	965	7	10000	2	1	0	2	0
61	966	7	10000	2	1	0	2	0
58	967	7	10000	2	1	0	2	0
58	968	7	10000	2	1	0	2	0
56	969	7	10000	2	1	0	2	0
54	970	7	10000	2	1	0	2	0
53	970	7	10000	2	1	0	2	0
52	971	7	10000	2	1	0	2	0
50	973	7	10000	2	1	0	2	0
48	974	7	10000	2	1	0	2	0
54	975	7	10000	2	1	0	2	0
69	976	7	10000	2	1	0	2	0
72	977	7	10000	2	1	0	2	0
70	978	7	10000	2	1	0	2	0
69	979	7	10000	2	1	0	2	0
74	980	7	10000	2	1	0	2	0
79	980	7	10000	2	1	0	2	0
83	981	7	10000	2	1	0	2	0
87	983	7	10000	2	1	0	2	0
90	984	7	10000	2	1	0	2	0
92	985	7	10000	2	1	0	2	0
91	986	7	10000	2	1	0	2	0
89	987	7	10000	2	1	0	2	0
87	988	7	10000	2	1	0	2	0
85	989	7	10000	2	1	0	2	0
82	990	7	10000	2	1	0	2	0
78	990	7	10000	2	1	0	2	0
76	991	7	10000	2	1	0	2	0
73	993	7	10000	2	1	0	2	0
72	994	7	10000	2	1	0	2	0
68	995	7	10000	2	1	0	2	0
69	996	7	10000	2	1	0	2	0
67	997	7	10000	2	1	0	2	0
65	998	7	10000	2	1	0	2	0
64	999	7	10000	2	1	0	2	0
63	1000	7	10000	2	1	0	2	0
62	1000	7	10000	2	1	0	2	0
60	1001	7	10000	2	1	0	2	0
19	2	7	10000	3	1	0	3	0
18	3	7	10000	3	1	0	3	0
19	4	7	10000	3	1	0	3	0
18	5	7	10000	3	1	0	3	0
18	6	7	10000	3	1	0	3	0
20	7	7	10000	3	1	0	3	0
22	8	7	10000	3	1	0	3	0
22	9	7	10000	3	1	0	3	0
21	10	7	10000	3	1	0	3	0
20	11	7	10000	3	1	0	3	0
21	12	7	10000	3	1	0	3	0
21	13	7	10000	3	1	0	3	0
22	14	7	10000	3	1	0	3	0
21	15	7	10000	3	1	0	3	0
21	16	7	10000	3	1	0	3	0
20	17	7	10000	3	1	0	3	0
23	18	7	10000	3	1	0	3	0
25	19	7	10000	3	1	0	3	0
26	20	7	10000	3	1	0	3	0
26	21	7	10000	3	1	0	3	0
23	21	7	10000	3	1	0	3	0
24	22	7	10000	3	1	0	3	0
27	24	7	10000	3	1	0	3	0
30	25	7	10000	3	1	0	3	0
31	26	7	10000	3	1	0	3	0
32	27	7	10000	3	1	0	3	0
32	28	7	10000	3	1	0	3	0
29	29	7	10000	3	1	0	3	0
29	30	7	10000	3	1	0	3	0
30	31	7	10000	3	1	0	3	0
33	32	7	10000	3	1	0	3	0
33	33	7	10000	3	1	0	3	0
33	34	7	10000	3	1	0	3	0
32	35	7	10000	3	1	0	3	0
30	36	7	10000	3	1	0	3	0
29	37	7	10000	3	1	0	3	0
30	38	7	10000	3	1	0	3	0
31	39	7	10000	3	1	0	3	0
31	40	7	10000	3	1	0	3	0
31	41	7	10000	3	1	0	3	0
28	42	7	10000	3	1	0	3	0
28	43	7	10000	3	1	0	3	0
29	44	7	10000	3	1	0	3	0
28	45	7	10000	3	1	0	3	0
28	46	7	10000	3	1	0	3	0
27	47	7	10000	3	1	0	3	0
26	48	7	10000	3	1	0	3	0
25	49	7	10000	3	1	0	3	0
23	50	7	10000	3	1	0	3	0
23	51	7	10000	3	1	0	3	0
25	52	7	10000	3	1	0	3	0
26	53	7	10000	3	1	0	3	0
26	54	7	10000	3	1	0	3	0
26	55	7	10000	3	1	0	3	0
26	56	7	10000	3	1	0	3	0
27	57	7	10000	3	1	0	3	0
27	58	7	10000	3	1	0	3	0
29	59	7	10000	3	1	0	3	0
28	60	7	10000	3	1	0	3	0
27	61	7	10000	3	1	0	3	0
24	62	7	10000	3	1	0	3	0
26	63	7	10000	3	1	0	3	0
26	64	7	10000	3	1	0	3	0
27	65	7	10000	3	1	0	3	0
27	66	7	10000	3	1	0	3	0
26	67	7	10000	3	1	0	3	0
26	68	7	10000	3	1	0	3	0
25	69	7	10000	3	1	0	3	0
24	70	7	10000	3	1	0	3	0
23	71	7	10000	3	1	0	3	0
24	72	7	10000	3	1	0	3	0
22	73	7	10000	3	1	0	3	0
21	74	7	10000	3	1	0	3	0
20	75	7	10000	3	1	0	3	0
20	76	7	10000	3	1	0	3	0
20	77	7	10000	3	1	0	3	0
18	78	7	10000	3	1	0	3	0
19	79	7	10000	3	1	0	3	0
19	80	7	10000	3	1	0	3	0
21	81	7	10000	3	1	0	3	0
20	82	7	10000	3	1	0	3	0
20	83	7	10000	3	1	0	3	0
20	84	7	10000	3	1	0	3	0
20	85	7	10000	3	1	0	3	0
21	86	7	10000	3	1	0	3	0
20	87	7	10000	3	1	0	3	0
20	88	7	10000	3	1	0	3	0
19	89	7	10000	3	1	0	3	0
20	90	7	10000	3	1	0	3	0
20	91	7	10000	3	1	0	3	0
21	92	7	10000	3	1	0	3	0
20	93	7	10000	3	1	0	3	0
19	94	7	10000	3	1	0	3	0
18	95	7	10000	3	1	0	3	0
18	96	7	10000	3	1	0	3	0
18	97	7	10000	3	1	0	3	0
18	98	7	10000	3	1	0	3	0
18	99	7	10000	3	1	0	3	0
18	100	7	10000	3	1	0	3	0
20	101	7	10000	3	1	0	3	0
21	102	7	10000	3	1	0	3	0
24	103	7	10000	3	1	0	3	0
25	104	7	10000	3	1	0	3	0
26	105	7	10000	3	1	0	3	0
26	106	7	10000	3	1	0	3	0
25	107	7	10000	3	1	0	3	0
27	108	7	10000	3	1	0	3	0
27	109	7	10000	3	1	0	3	0
27	110	7	10000	3	1	0	3	0
28	111	7	10000	3	1	0	3	0
30	111	7	10000	3	1	0	3	0
29	112	7	10000	3	1	0	3	0
28	114	7	10000	3	1	0	3	0
27	115	7	10000	3	1	0	3	0
26	116	7	10000	3	1	0	3	0
26	117	7	10000	3	1	0	3	0
27	118	7	10000	3	1	0	3	0
28	119	7	10000	3	1	0	3	0
29	120	7	10000	3	1	0	3	0
30	121	7	10000	3	1	0	3	0
30	122	7	10000	3	1	0	3	0
29	123	7	10000	3	1	0	3	0
30	124	7	10000	3	1	0	3	0
32	125	7	10000	3	1	0	3	0
35	126	7	10000	3	1	0	3	0
35	127	7	10000	3	1	0	3	0
34	128	7	10000	3	1	0	3	0
32	129	7	10000	3	1	0	3	0
31	130	7	10000	3	1	0	3	0
31	131	7	10000	3	1	0	3	0
32	132	7	10000	3	1	0	3	0
32	133	7	10000	3	1	0	3	0
30	134	7	10000	3	1	0	3	0
29	135	7	10000	3	1	0	3	0
29	136	7	10000	3	1	0	3	0
29	137	7	10000	3	1	0	3	0
27	138	7	10000	3	1	0	3	0
28	139	7	10000	3	1	0	3	0
27	140	7	10000	3	1	0	3	0
26	141	7	10000	3	1	0	3	0
23	142	7	10000	3	1	0	3	0
23	143	7	10000	3	1	0	3	0
22	144	7	10000	3	1	0	3	0
23	145	7	10000	3	1	0	3	0
22	146	7	10000	3	1	0	3	0
21	147	7	10000	3	1	0	3	0
21	148	7	10000	3	1	0	3	0
19	149	7	10000	3	1	0	3	0
19	150	7	10000	3	1	0	3	0
19	151	7	10000	3	1	0	3	0
20	152	7	10000	3	1	0	3	0
20	153	7	10000	3	1	0	3	0
20	154	7	10000	3	1	0	3	0
20	155	7	10000	3	1	0	3	0
19	156	7	10000	3	1	0	3	0
19	157	7	10000	3	1	0	3	0
19	158	7	10000	3	1	0	3	0
20	159	7	10000	3	1	0	3	0
20	160	7	10000	3	1	0	3	0
21	161	7	10000	3	1	0	3	0
21	162	7	10000	3	1	0	3	0
23	163	7	10000	3	1	0	3	0
23	164	7	10000	3	1	0	3	0
23	165	7	10000	3	1	0	3	0
22	166	7	10000	3	1	0	3	0
23	167	7	10000	3	1	0	3	0
24	168	7	10000	3	1	0	3	0
23	169	7	10000	3	1	0	3	0
23	170	7	10000	3	1	0	3	0
23	171	7	10000	3	1	0	3	0
25	172	7	10000	3	1	0	3	0
26	173	7	10000	3	1	0	3	0
25	174	7	10000	3	1	0	3	0
25	175	7	10000	3	1	0	3	0
25	176	7	10000	3	1	0	3	0
25	177	7	10000	3	1	0	3	0
24	178	7	10000	3	1	0	3	0
24	179	7	10000	3	1	0	3	0
27	180	7	10000	3	1	0	3	0
29	181	7	10000	3	1	0	3	0
28	182	7	10000	3	1	0	3	0
27	183	7	10000	3	1	0	3	0
27	184	7	10000	3	1	0	3	0
27	185	7	10000	3	1	0	3	0
28	186	7	10000	3	1	0	3	0
29	187	7	10000	3	1	0	3	0
31	188	7	10000	3	1	0	3	0
33	189	7	10000	3	1	0	3	0
32	190	7	10000	3	1	0	3	0
31	191	7	10000	3	1	0	3	0
32	191	7	10000	3	1	0	3	0
32	192	7	10000	3	1	0	3	0
32	194	7	10000	3	1	0	3	0
31	195	7	10000	3	1	0	3	0
31	196	7	10000	3	1	0	3	0
30	197	7	10000	3	1	0	3	0
29	198	7	10000	3	1	0	3	0
28	199	7	10000	3	1	0	3	0
28	200	7	10000	3	1	0	3	0
27	201	7	10000	3	1	0	3	0
25	202	7	10000	3	1	0	3	0
23	203	7	10000	3	1	0	3	0
23	204	7	10000	3	1	0	3	0
22	205	7	10000	3	1	0	3	0
22	206	7	10000	3	1	0	3	0
24	207	7	10000	3	1	0	3	0
24	208	7	10000	3	1	0	3	0
24	209	7	10000	3	1	0	3	0
22	210	7	10000	3	1	0	3	0
21	211	7	10000	3	1	0	3	0
26	212	7	10000	3	1	0	3	0
27	213	7	10000	3	1	0	3	0
28	214	7	10000	3	1	0	3	0
29	215	7	10000	3	1	0	3	0
30	216	7	10000	3	1	0	3	0
30	217	7	10000	3	1	0	3	0
28	218	7	10000	3	1	0	3	0
28	219	7	10000	3	1	0	3	0
27	220	7	10000	3	1	0	3	0
26	221	7	10000	3	1	0	3	0
24	222	7	10000	3	1	0	3	0
25	223	7	10000	3	1	0	3	0
25	224	7	10000	3	1	0	3	0
25	225	7	10000	3	1	0	3	0
24	226	7	10000	3	1	0	3	0
24	227	7	10000	3	1	0	3	0
24	228	7	10000	3	1	0	3	0
23	229	7	10000	3	1	0	3	0
22	230	7	10000	3	1	0	3	0
22	231	7	10000	3	1	0	3	0
25	231	7	10000	3	1	0	3	0
25	232	7	10000	3	1	0	3	0
24	234	7	10000	3	1	0	3	0
23	235	7	10000	3	1	0	3	0
22	236	7	10000	3	1	0	3	0
22	237	7	10000	3	1	0	3	0
20	238	7	10000	3	1	0	3	0
21	239	7	10000	3	1	0	3	0
21	240	7	10000	3	1	0	3	0
20	241	7	10000	3	1	0	3	0
18	242	7	10000	3	1	0	3	0
20	243	7	10000	3	1	0	3	0
20	244	7	10000	3	1	0	3	0
21	245	7	10000	3	1	0	3	0
20	246	7	10000	3	1	0	3	0
20	247	7	10000	3	1	0	3	0
20	248	7	10000	3	1	0	3	0
19	249	7	10000	3	1	0	3	0
18	250	7	10000	3	1	0	3	0
18	251	7	10000	3	1	0	3	0
20	252	7	10000	3	1	0	3	0
19	253	7	10000	3	1	0	3	0
20	254	7	10000	3	1	0	3	0
19	255	7	10000	3	1	0	3	0
18	256	7	10000	3	1	0	3	0
17	257	7	10000	3	1	0	3	0
17	258	7	10000	3	1	0	3	0
17	259	7	10000	3	1	0	3	0
17	260	7	10000	3	1	0	3	0
17	261	7	10000	3	1	0	3	0
14	262	7	10000	3	1	0	3	0
14	263	7	10000	3	1	0	3	0
15	264	7	10000	3	1	0	3	0
15	265	7	10000	3	1	0	3	0
14	266	7	10000	3	1	0	3	0
15	267	7	10000	3	1	0	3	0
17	268	7	10000	3	1	0	3	0
16	269	7	10000	3	1	0	3	0
15	270	7	10000	3	1	0	3	0
15	271	7	10000	3	1	0	3	0
18	271	7	10000	3	1	0	3	0
19	272	7	10000	3	1	0	3	0
20	274	7	10000	3	1	0	3	0
19	275	7	10000	3	1	0	3	0
19	276	7	10000	3	1	0	3	0
18	277	7	10000	3	1	0	3	0
18	278	7	10000	3	1	0	3	0
21	279	7	10000	3	1	0	3	0
23	280	7	10000	3	1	0	3	0
24	281	7	10000	3	1	0	3	0
21	282	7	10000	3	1	0	3	0
21	283	7	10000	3	1	0	3	0
20	284	7	10000	3	1	0	3	0
21	285	7	10000	3	1	0	3	0
21	286	7	10000	3	1	0	3	0
23	287	7	10000	3	1	0	3	0
27	288	7	10000	3	1	0	3	0
28	289	7	10000	3	1	0	3	0
28	290	7	10000	3	1	0	3	0
27	291	7	10000	3	1	0	3	0
30	291	7	10000	3	1	0	3	0
31	292	7	10000	3	1	0	3	0
33	294	7	10000	3	1	0	3	0
33	295	7	10000	3	1	0	3	0
33	296	7	10000	3	1	0	3	0
32	297	7	10000	3	1	0	3	0
31	298	7	10000	3	1	0	3	0
32	299	7	10000	3	1	0	3	0
31	300	7	10000	3	1	0	3	0
31	301	7	10000	3	1	0	3	0
27	302	7	10000	3	1	0	3	0
27	303	7	10000	3	1	0	3	0
27	304	7	10000	3	1	0	3	0
27	305	7	10000	3	1	0	3	0
27	306	7	10000	3	1	0	3	0
28	307	7	10000	3	1	0	3	0
28	308	7	10000	3	1	0	3	0
27	309	7	10000	3	1	0	3	0
26	310	7	10000	3	1	0	3	0
25	311	7	10000	3	1	0	3	0
26	311	7	10000	3	1	0	3	0
26	312	7	10000	3	1	0	3	0
26	314	7	10000	3	1	0	3	0
27	315	7	10000	3	1	0	3	0
27	316	7	10000	3	1	0	3	0
25	317	7	10000	3	1	0	3	0
26	318	7	10000	3	1	0	3	0
28	319	7	10000	3	1	0	3	0
28	320	7	10000	3	1	0	3	0
29	321	7	10000	3	1	0	3	0
26	322	7	10000	3	1	0	3	0
26	323	7	10000	3	1	0	3	0
27	324	7	10000	3	1	0	3	0
28	325	7	10000	3	1	0	3	0
26	326	7	10000	3	1	0	3	0
27	327	7	10000	3	1	0	3	0
27	328	7	10000	3	1	0	3	0
26	329	7	10000	3	1	0	3	0
25	330	7	10000	3	1	0	3	0
26	331	7	10000	3	1	0	3	0
29	332	7	10000	3	1	0	3	0
28	333	7	10000	3	1	0	3	0
27	334	7	10000	3	1	0	3	0
27	335	7	10000	3	1	0	3	0
26	336	7	10000	3	1	0	3	0
26	337	7	10000	3	1	0	3	0
24	338	7	10000	3	1	0	3	0
24	339	7	10000	3	1	0	3	0
24	340	7	10000	3	1	0	3	0
24	341	7	10000	3	1	0	3	0
20	342	7	10000	3	1	0	3	0
20	343	7	10000	3	1	0	3	0
20	344	7	10000	3	1	0	3	0
22	345	7	10000	3	1	0	3	0
23	346	7	10000	3	1	0	3	0
25	347	7	10000	3	1	0	3	0
25	348	7	10000	3	1	0	3	0
25	349	7	10000	3	1	0	3	0
24	350	7	10000	3	1	0	3	0
24	351	7	10000	3	1	0	3	0
25	352	7	10000	3	1	0	3	0
24	353	7	10000	3	1	0	3	0
23	354	7	10000	3	1	0	3	0
22	355	7	10000	3	1	0	3	0
22	356	7	10000	3	1	0	3	0
22	357	7	10000	3	1	0	3	0
21	358	7	10000	3	1	0	3	0
21	359	7	10000	3	1	0	3	0
21	360	7	10000	3	1	0	3	0
22	361	7	10000	3	1	0	3	0
19	362	7	10000	3	1	0	3	0
19	363	7	10000	3	1	0	3	0
19	364	7	10000	3	1	0	3	0
18	365	7	10000	3	1	0	3	0
18	366	7	10000	3	1	0	3	0
20	367	7	10000	3	1	0	3	0
20	368	7	10000	3	1	0	3	0
20	369	7	10000	3	1	0	3	0
19	370	7	10000	3	1	0	3	0
18	371	7	10000	3	1	0	3	0
20	372	7	10000	3	1	0	3	0
19	373	7	10000	3	1	0	3	0
19	374	7	10000	3	1	0	3	0
19	375	7	10000	3	1	0	3	0
20	376	7	10000	3	1	0	3	0
20	377	7	10000	3	1	0	3	0
20	378	7	10000	3	1	0	3	0
20	379	7	10000	3	1	0	3	0
20	380	7	10000	3	1	0	3	0
21	381	7	10000	3	1	0	3	0
22	382	7	10000	3	1	0	3	0
26	383	7	10000	3	1	0	3	0
28	384	7	10000	3	1	0	3	0
29	385	7	10000	3	1	0	3	0
28	386	7	10000	3	1	0	3	0
27	387	7	10000	3	1	0	3	0
27	388	7	10000	3	1	0	3	0
26	389	7	10000	3	1	0	3	0
25	390	7	10000	3	1	0	3	0
24	391	7	10000	3	1	0	3	0
25	391	7	10000	3	1	0	3	0
24	392	7	10000	3	1	0	3	0
23	394	7	10000	3	1	0	3	0
22	395	7	10000	3	1	0	3	0
22	396	7	10000	3	1	0	3	0
21	397	7	10000	3	1	0	3	0
20	398	7	10000	3	1	0	3	0
20	399	7	10000	3	1	0	3	0
20	400	7	10000	3	1	0	3	0
21	401	7	10000	3	1	0	3	0
20	402	7	10000	3	1	0	3	0
22	403	7	10000	3	1	0	3	0
24	404	7	10000	3	1	0	3	0
25	405	7	10000	3	1	0	3	0
25	406	7	10000	3	1	0	3	0
25	407	7	10000	3	1	0	3	0
25	408	7	10000	3	1	0	3	0
24	409	7	10000	3	1	0	3	0
24	410	7	10000	3	1	0	3	0
23	411	7	10000	3	1	0	3	0
25	412	7	10000	3	1	0	3	0
25	413	7	10000	3	1	0	3	0
25	414	7	10000	3	1	0	3	0
24	415	7	10000	3	1	0	3	0
24	416	7	10000	3	1	0	3	0
24	417	7	10000	3	1	0	3	0
26	418	7	10000	3	1	0	3	0
29	419	7	10000	3	1	0	3	0
33	420	7	10000	3	1	0	3	0
36	421	7	10000	3	1	0	3	0
36	422	7	10000	3	1	0	3	0
35	423	7	10000	3	1	0	3	0
35	424	7	10000	3	1	0	3	0
36	425	7	10000	3	1	0	3	0
37	426	7	10000	3	1	0	3	0
37	427	7	10000	3	1	0	3	0
38	428	7	10000	3	1	0	3	0
37	429	7	10000	3	1	0	3	0
37	430	7	10000	3	1	0	3	0
36	431	7	10000	3	1	0	3	0
37	432	7	10000	3	1	0	3	0
38	433	7	10000	3	1	0	3	0
38	434	7	10000	3	1	0	3	0
37	435	7	10000	3	1	0	3	0
37	436	7	10000	3	1	0	3	0
37	437	7	10000	3	1	0	3	0
36	438	7	10000	3	1	0	3	0
35	439	7	10000	3	1	0	3	0
33	440	7	10000	3	1	0	3	0
33	441	7	10000	3	1	0	3	0
31	442	7	10000	3	1	0	3	0
30	443	7	10000	3	1	0	3	0
30	444	7	10000	3	1	0	3	0
31	445	7	10000	3	1	0	3	0
30	446	7	10000	3	1	0	3	0
31	447	7	10000	3	1	0	3	0
31	448	7	10000	3	1	0	3	0
31	449	7	10000	3	1	0	3	0
31	450	7	10000	3	1	0	3	0
30	451	7	10000	3	1	0	3	0
31	452	7	10000	3	1	0	3	0
30	453	7	10000	3	1	0	3	0
29	454	7	10000	3	1	0	3	0
28	455	7	10000	3	1	0	3	0
27	456	7	10000	3	1	0	3	0
28	457	7	10000	3	1	0	3	0
29	458	7	10000	3	1	0	3	0
29	459	7	10000	3	1	0	3	0
28	460	7	10000	3	1	0	3	0
29	461	7	10000	3	1	0	3	0
28	462	7	10000	3	1	0	3	0
27	463	7	10000	3	1	0	3	0
27	464	7	10000	3	1	0	3	0
28	465	7	10000	3	1	0	3	0
28	466	7	10000	3	1	0	3	0
29	467	7	10000	3	1	0	3	0
31	468	7	10000	3	1	0	3	0
31	469	7	10000	3	1	0	3	0
31	470	7	10000	3	1	0	3	0
30	471	7	10000	3	1	0	3	0
31	472	7	10000	3	1	0	3	0
32	473	7	10000	3	1	0	3	0
29	474	7	10000	3	1	0	3	0
29	475	7	10000	3	1	0	3	0
29	476	7	10000	3	1	0	3	0
29	477	7	10000	3	1	0	3	0
29	478	7	10000	3	1	0	3	0
31	479	7	10000	3	1	0	3	0
32	480	7	10000	3	1	0	3	0
32	481	7	10000	3	1	0	3	0
29	481	7	10000	3	1	0	3	0
28	482	7	10000	3	1	0	3	0
28	484	7	10000	3	1	0	3	0
28	485	7	10000	3	1	0	3	0
27	486	7	10000	3	1	0	3	0
27	487	7	10000	3	1	0	3	0
25	488	7	10000	3	1	0	3	0
24	489	7	10000	3	1	0	3	0
25	490	7	10000	3	1	0	3	0
24	491	7	10000	3	1	0	3	0
25	491	7	10000	3	1	0	3	0
24	492	7	10000	3	1	0	3	0
24	494	7	10000	3	1	0	3	0
22	495	7	10000	3	1	0	3	0
22	496	7	10000	3	1	0	3	0
22	497	7	10000	3	1	0	3	0
21	498	7	10000	3	1	0	3	0
21	499	7	10000	3	1	0	3	0
21	500	7	10000	3	1	0	3	0
21	501	7	10000	3	1	0	3	0
18	502	7	10000	3	1	0	3	1
18	503	7	10000	3	1	0	3	1
19	504	7	10000	3	1	0	3	1
20	505	7	10000	3	1	0	3	1
20	506	7	10000	3	1	0	3	1
20	507	7	10000	3	1	0	3	1
19	508	7	10000	3	1	0	3	1
18	509	7	10000	3	1	0	3	1
18	510	7	10000	3	1	0	3	1
18	511	7	10000	3	1	0	3	1
21	511	7	10000	3	1	0	3	1
22	512	7	10000	3	1	0	3	1
22	514	7	10000	3	1	0	3	1
21	515	7	10000	3	1	0	3	1
20	516	7	10000	3	1	0	3	1
20	517	7	10000	3	1	0	3	1
20	518	7	10000	3	1	0	3	1
20	519	7	10000	3	1	0	3	1
20	520	7	10000	3	1	0	3	1
20	521	7	10000	3	1	0	3	1
17	522	7	10000	3	1	0	3	1
18	523	7	10000	3	1	0	3	1
18	524	7	10000	3	1	0	3	1
18	525	7	10000	3	1	0	3	1
18	526	7	10000	3	1	0	3	1
18	527	7	10000	3	1	0	3	1
19	528	7	10000	3	1	0	3	1
19	529	7	10000	3	1	0	3	1
18	530	7	10000	3	1	0	3	1
17	531	7	10000	3	1	0	3	1
20	531	7	10000	3	1	0	3	1
20	532	7	10000	3	1	0	3	1
19	534	7	10000	3	1	0	3	1
20	535	7	10000	3	1	0	3	1
20	536	7	10000	3	1	0	3	1
19	537	7	10000	3	1	0	3	1
19	538	7	10000	3	1	0	3	1
19	539	7	10000	3	1	0	3	1
19	540	7	10000	3	1	0	3	1
20	541	7	10000	3	1	0	3	1
17	542	7	10000	3	1	0	3	1
18	543	7	10000	3	1	0	3	1
18	544	7	10000	3	1	0	3	1
19	545	7	10000	3	1	0	3	1
21	546	7	10000	3	1	0	3	1
21	547	7	10000	3	1	0	3	1
21	548	7	10000	3	1	0	3	1
21	549	7	10000	3	1	0	3	1
20	550	7	10000	3	1	0	3	1
20	551	7	10000	3	1	0	3	1
21	551	7	10000	3	1	0	3	0
20	552	7	10000	3	1	0	3	0
20	554	7	10000	3	1	0	3	0
19	555	7	10000	3	1	0	3	0
18	556	7	10000	3	1	0	3	0
18	557	7	10000	3	1	0	3	0
18	558	7	10000	3	1	0	3	0
18	559	7	10000	3	1	0	3	0
20	560	7	10000	3	1	0	3	0
19	561	7	10000	3	1	0	3	0
17	561	7	10000	3	1	0	3	0
19	562	7	10000	3	1	0	3	0
19	564	7	10000	3	1	0	3	0
20	565	7	10000	3	1	0	3	0
20	566	7	10000	3	1	0	3	0
21	567	7	10000	3	1	0	3	0
21	568	7	10000	3	1	0	3	0
20	569	7	10000	3	1	0	3	0
19	570	7	10000	3	1	0	3	0
18	571	7	10000	3	1	0	3	0
20	572	7	10000	3	1	0	3	0
20	573	7	10000	3	1	0	3	0
21	574	7	10000	3	1	0	3	0
20	575	7	10000	3	1	0	3	0
20	576	7	10000	3	1	0	3	0
20	577	7	10000	3	1	0	3	0
20	578	7	10000	3	1	0	3	0
21	579	7	10000	3	1	0	3	0
23	580	7	10000	3	1	0	3	0
26	581	7	10000	3	1	0	3	0
26	582	7	10000	3	1	0	3	0
27	583	7	10000	3	1	0	3	0
27	584	7	10000	3	1	0	3	0
28	585	7	10000	3	1	0	3	0
30	586	7	10000	3	1	0	3	0
31	587	7	10000	3	1	0	3	0
31	588	7	10000	3	1	0	3	0
28	589	7	10000	3	1	0	3	0
28	590	7	10000	3	1	0	3	0
30	591	7	10000	3	1	0	3	0
32	592	7	10000	3	1	0	3	0
36	593	7	10000	3	1	0	3	0
47	594	7	10000	3	1	0	3	0
55	595	7	10000	3	1	0	3	0
54	596	7	10000	3	1	0	3	0
54	597	7	10000	3	1	0	3	0
51	598	7	10000	3	1	0	3	0
54	599	7	10000	3	1	0	3	0
63	600	7	10000	3	1	0	3	0
64	601	7	10000	3	1	0	3	0
74	602	7	10000	3	1	0	3	0
89	603	7	10000	3	1	0	3	0
95	604	7	10000	3	1	0	3	0
93	605	7	10000	3	1	0	3	0
92	606	7	10000	3	1	0	3	0
90	607	7	10000	3	1	0	3	0
94	608	7	10000	3	1	0	3	0
99	609	7	10000	3	1	0	3	0
97	610	7	10000	3	1	0	3	0
98	611	7	10000	3	1	0	3	0
102	612	7	10000	3	1	0	3	0
100	613	7	10000	3	1	0	3	0
95	614	7	10000	3	1	0	3	0
92	615	7	10000	3	1	0	3	0
90	616	7	10000	3	1	0	3	0
86	617	7	10000	3	1	0	3	0
84	618	7	10000	3	1	0	3	0
84	619	7	10000	3	1	0	3	0
84	620	7	10000	3	1	0	3	0
82	621	7	10000	3	1	0	3	0
77	622	7	10000	3	1	0	3	0
74	623	7	10000	3	1	0	3	0
73	624	7	10000	3	1	0	3	0
74	625	7	10000	3	1	0	3	0
79	626	7	10000	3	1	0	3	0
83	627	7	10000	3	1	0	3	0
86	628	7	10000	3	1	0	3	0
83	629	7	10000	3	1	0	3	0
80	630	7	10000	3	1	0	3	0
78	631	7	10000	3	1	0	3	0
76	632	7	10000	3	1	0	3	0
74	633	7	10000	3	1	0	3	0
70	634	7	10000	3	1	0	3	0
68	635	7	10000	3	1	0	3	0
68	636	7	10000	3	1	0	3	0
67	637	7	10000	3	1	0	3	0
65	638	7	10000	3	1	0	3	0
63	639	7	10000	3	1	0	3	0
63	640	7	10000	3	1	0	3	0
63	641	7	10000	3	1	0	3	0
61	642	7	10000	3	1	0	3	0
59	643	7	10000	3	1	0	3	0
57	644	7	10000	3	1	0	3	0
55	645	7	10000	3	1	0	3	0
53	646	7	10000	3	1	0	3	0
51	647	7	10000	3	1	0	3	0
50	648	7	10000	3	1	0	3	0
48	649	7	10000	3	1	0	3	0
49	650	7	10000	3	1	0	3	0
45	651	7	10000	3	1	0	3	0
46	652	7	10000	3	1	0	3	0
45	653	7	10000	3	1	0	3	0
44	654	7	10000	3	1	0	3	0
43	655	7	10000	3	1	0	3	0
41	656	7	10000	3	1	0	3	0
40	657	7	10000	3	1	0	3	0
40	658	7	10000	3	1	0	3	0
41	659	7	10000	3	1	0	3	0
41	660	7	10000	3	1	0	3	0
41	661	7	10000	3	1	0	3	0
37	662	7	10000	3	1	0	3	0
36	663	7	10000	3	1	0	3	0
36	664	7	10000	3	1	0	3	0
35	665	7	10000	3	1	0	3	0
36	666	7	10000	3	1	0	3	0
39	667	7	10000	3	1	0	3	0
39	668	7	10000	3	1	0	3	0
40	669	7	10000	3	1	0	3	0
42	670	7	10000	3	1	0	3	0
44	671	7	10000	3	1	0	3	0
47	672	7	10000	3	1	0	3	0
45	673	7	10000	3	1	0	3	0
44	674	7	10000	3	1	0	3	0
43	675	7	10000	3	1	0	3	0
43	676	7	10000	3	1	0	3	0
44	677	7	10000	3	1	0	3	0
45	678	7	10000	3	1	0	3	0
43	679	7	10000	3	1	0	3	0
43	680	7	10000	3	1	0	3	0
43	681	7	10000	3	1	0	3	0
39	681	7	10000	3	1	0	3	0
37	682	7	10000	3	1	0	3	0
36	684	7	10000	3	1	0	3	0
37	685	7	10000	3	1	0	3	0
38	686	7	10000	3	1	0	3	0
40	687	7	10000	3	1	0	3	0
40	688	7	10000	3	1	0	3	0
38	689	7	10000	3	1	0	3	0
37	690	7	10000	3	1	0	3	0
37	691	7	10000	3	1	0	3	0
40	691	7	10000	3	1	0	3	0
40	692	7	10000	3	1	0	3	0
38	694	7	10000	3	1	0	3	0
36	695	7	10000	3	1	0	3	0
35	696	7	10000	3	1	0	3	0
33	697	7	10000	3	1	0	3	0
33	706	7	10000	3	1	0	3	0
33	707	7	10000	3	1	0	3	0
33	708	7	10000	3	1	0	3	0
35	709	7	10000	3	1	0	3	0
33	710	7	10000	3	1	0	3	0
34	711	7	10000	3	1	0	3	0
36	712	7	10000	3	1	0	3	0
37	713	7	10000	3	1	0	3	0
38	714	7	10000	3	1	0	3	0
36	715	7	10000	3	1	0	3	0
35	714	7	10000	3	1	0	3	0
35	715	7	10000	3	1	0	3	0
33	716	7	10000	3	1	0	3	0
33	717	7	10000	3	1	0	3	0
35	718	7	10000	3	1	0	3	0
35	719	7	10000	3	1	0	3	0
34	720	7	10000	3	1	0	3	0
32	721	7	10000	3	1	0	3	0
32	721	7	10000	3	1	0	3	0
32	722	7	10000	3	1	0	3	0
33	723	7	10000	3	1	0	3	0
36	724	7	10000	3	1	0	3	0
39	725	7	10000	3	1	0	3	0
40	726	7	10000	3	1	0	3	0
38	728	7	10000	3	1	0	3	0
37	729	7	10000	3	1	0	3	0
39	730	7	10000	3	1	0	3	0
42	731	7	10000	3	1	0	3	0
43	732	7	10000	3	1	0	3	0
41	733	7	10000	3	1	0	3	0
40	734	7	10000	3	1	0	3	0
40	735	7	10000	3	1	0	3	0
39	733	7	10000	3	1	0	3	0
38	734	7	10000	3	1	0	3	0
39	735	7	10000	3	1	0	3	0
38	736	7	10000	3	1	0	3	0
37	737	7	10000	3	1	0	3	0
39	738	7	10000	3	1	0	3	0
43	741	7	10000	3	1	0	3	0
49	742	7	10000	3	1	0	3	0
51	743	7	10000	3	1	0	3	0
50	744	7	10000	3	1	0	3	0
50	745	7	10000	3	1	0	3	0
48	746	7	10000	3	1	0	3	0
45	745	7	10000	3	1	0	3	0
44	746	7	10000	3	1	0	3	0
43	747	7	10000	3	1	0	3	0
42	748	7	10000	3	1	0	3	0
43	749	7	10000	3	1	0	3	0
45	750	7	10000	3	1	0	3	0
48	750	7	10000	3	1	0	3	0
49	751	7	10000	3	1	0	3	0
47	752	7	10000	3	1	0	3	0
47	753	7	10000	3	1	0	3	0
47	757	7	10000	3	1	0	3	0
47	758	7	10000	3	1	0	3	0
45	759	7	10000	3	1	0	3	0
44	760	7	10000	3	1	0	3	0
42	761	7	10000	3	1	0	3	0
40	762	7	10000	3	1	0	3	0
40	761	7	10000	3	1	0	3	0
42	762	7	10000	3	1	0	3	0
41	763	7	10000	3	1	0	3	0
41	764	7	10000	3	1	0	3	0
38	765	7	10000	3	1	0	3	0
37	766	7	10000	3	1	0	3	0
37	768	7	10000	3	1	0	3	0
37	769	7	10000	3	1	0	3	0
36	770	7	10000	3	1	0	3	0
36	771	7	10000	3	1	0	3	0
36	772	7	10000	3	1	0	3	0
34	773	7	10000	3	1	0	3	0
33	773	7	10000	3	1	0	3	0
32	774	7	10000	3	1	0	3	0
33	775	7	10000	3	1	0	3	0
33	776	7	10000	3	1	0	3	0
32	779	7	10000	3	1	0	3	0
30	780	7	10000	3	1	0	3	0
30	781	7	10000	3	1	0	3	0
30	782	7	10000	3	1	0	3	0
29	783	7	10000	3	1	0	3	0
30	784	7	10000	3	1	0	3	0
29	785	7	10000	3	1	0	3	0
30	786	7	10000	3	1	0	3	0
30	783	7	10000	3	1	0	3	0
31	784	7	10000	3	1	0	3	0
33	785	7	10000	3	1	0	3	0
32	786	7	10000	3	1	0	3	0
31	789	7	10000	3	1	0	3	0
31	790	7	10000	3	1	0	3	0
30	791	7	10000	3	1	0	3	0
29	792	7	10000	3	1	0	3	0
28	794	7	10000	3	1	0	3	0
27	795	7	10000	3	1	0	3	0
33	796	7	10000	3	1	0	3	0
37	797	7	10000	3	1	0	3	0
35	798	7	10000	3	1	0	3	0
36	799	7	10000	3	1	0	3	0
40	801	7	10000	3	1	0	3	0
43	802	7	10000	3	1	0	3	0
44	803	7	10000	3	1	0	3	0
43	804	7	10000	3	1	0	3	0
42	805	7	10000	3	1	0	3	0
41	806	7	10000	3	1	0	3	0
40	807	7	10000	3	1	0	3	0
38	808	7	10000	3	1	0	3	0
37	807	7	10000	3	1	0	3	0
36	808	7	10000	3	1	0	3	0
36	809	7	10000	3	1	0	3	0
39	810	7	10000	3	1	0	3	0
39	811	7	10000	3	1	0	3	0
37	812	7	10000	3	1	0	3	0
36	813	7	10000	3	1	0	3	0
35	814	7	10000	3	1	0	3	0
38	815	7	10000	3	1	0	3	0
37	816	7	10000	3	1	0	3	0
37	818	7	10000	3	1	0	3	0
36	819	7	10000	3	1	0	3	0
36	820	7	10000	3	1	0	3	0
34	821	7	10000	3	1	0	3	0
33	822	7	10000	3	1	0	3	0
34	823	7	10000	3	1	0	3	0
35	822	7	10000	3	1	0	3	0
38	823	7	10000	3	1	0	3	0
37	824	7	10000	3	1	0	3	0
35	825	7	10000	3	1	0	3	0
35	828	7	10000	3	1	0	3	0
34	829	7	10000	3	1	0	3	0
33	830	7	10000	3	1	0	3	0
34	831	7	10000	3	1	0	3	0
36	832	7	10000	3	1	0	3	0
35	833	7	10000	3	1	0	3	0
35	833	7	10000	3	1	0	3	0
35	834	7	10000	3	1	0	3	0
39	835	7	10000	3	1	0	3	0
40	836	7	10000	3	1	0	3	0
37	837	7	10000	3	1	0	3	0
38	838	7	10000	3	1	0	3	0
38	839	7	10000	3	1	0	3	0
39	840	7	10000	3	1	0	3	0
38	841	7	10000	3	1	0	3	0
37	842	7	10000	3	1	0	3	0
38	843	7	10000	3	1	0	3	0
38	844	7	10000	3	1	0	3	0
36	844	7	10000	3	1	0	3	0
37	845	7	10000	3	1	0	3	0
37	846	7	10000	3	1	0	3	0
36	847	7	10000	3	1	0	3	0
36	849	7	10000	3	1	0	3	0
36	850	7	10000	3	1	0	3	0
36	851	7	10000	3	1	0	3	0
35	852	7	10000	3	1	0	3	0
33	853	7	10000	3	1	0	3	0
32	854	7	10000	3	1	0	3	0
33	855	7	10000	3	1	0	3	0
33	856	7	10000	3	1	0	3	0
37	857	7	10000	3	1	0	3	0
39	858	7	10000	3	1	0	3	0
38	859	7	10000	3	1	0	3	0
41	860	7	10000	3	1	0	3	0
41	858	7	10000	3	1	0	3	0
43	859	7	10000	3	1	0	3	0
44	860	7	10000	3	1	0	3	0
44	861	7	10000	3	1	0	3	0
44	862	7	10000	3	1	0	3	0
47	863	7	10000	3	1	0	3	0
48	864	7	10000	3	1	0	3	0
46	865	7	10000	3	1	0	3	0
46	866	7	10000	3	1	0	3	0
45	867	7	10000	3	1	0	3	0
45	868	7	10000	3	1	0	3	0
45	869	7	10000	3	1	0	3	0
44	870	7	10000	3	1	0	3	0
42	871	7	10000	3	1	0	3	0
43	872	7	10000	3	1	0	3	0
43	873	7	10000	3	1	0	3	0
42	874	7	10000	3	1	0	3	0
45	875	7	10000	3	1	0	3	0
48	876	7	10000	3	1	0	3	0
47	877	7	10000	3	1	0	3	0
49	878	7	10000	3	1	0	3	0
54	879	7	10000	3	1	0	3	0
53	880	7	10000	3	1	0	3	0
53	881	7	10000	3	1	0	3	0
50	882	7	10000	3	1	0	3	0
49	883	7	10000	3	1	0	3	0
47	884	7	10000	3	1	0	3	0
46	885	7	10000	3	1	0	3	0
45	886	7	10000	3	1	0	3	0
44	887	7	10000	3	1	0	3	0
44	888	7	10000	3	1	0	3	0
42	889	7	10000	3	1	0	3	0
40	890	7	10000	3	1	0	3	0
39	891	7	10000	3	1	0	3	0
40	892	7	10000	3	1	0	3	0
41	893	7	10000	3	1	0	3	0
39	894	7	10000	3	1	0	3	0
38	895	7	10000	3	1	0	3	0
37	896	7	10000	3	1	0	3	0
39	897	7	10000	3	1	0	3	0
38	898	7	10000	3	1	0	3	0
39	899	7	10000	3	1	0	3	0
41	900	7	10000	3	1	0	3	0
41	901	7	10000	3	1	0	3	0
39	902	7	10000	3	1	0	3	0
38	903	7	10000	3	1	0	3	0
40	904	7	10000	3	1	0	3	0
40	905	7	10000	3	1	0	3	0
40	906	7	10000	3	1	0	3	0
38	907	7	10000	3	1	0	3	0
37	908	7	10000	3	1	0	3	0
36	909	7	10000	3	1	0	3	0
35	910	7	10000	3	1	0	3	0
35	911	7	10000	3	1	0	3	0
38	912	7	10000	3	1	0	3	0
40	913	7	10000	3	1	0	3	0
40	914	7	10000	3	1	0	3	0
40	915	7	10000	3	1	0	3	0
38	916	7	10000	3	1	0	3	0
37	917	7	10000	3	1	0	3	0
37	918	7	10000	3	1	0	3	0
40	919	7	10000	3	1	0	3	0
40	920	7	10000	3	1	0	3	0
40	921	7	10000	3	1	0	3	0
38	922	7	10000	3	1	0	3	0
37	923	7	10000	3	1	0	3	0
36	924	7	10000	3	1	0	3	0
36	925	7	10000	3	1	0	3	0
36	926	7	10000	3	1	0	3	0
35	927	7	10000	3	1	0	3	0
38	928	7	10000	3	1	0	3	0
42	929	7	10000	3	1	0	3	0
51	930	7	10000	3	1	0	3	0
55	931	7	10000	3	1	0	3	0
56	932	7	10000	3	1	0	3	0
62	933	7	10000	3	1	0	3	0
65	934	7	10000	3	1	0	3	0
67	935	7	10000	3	1	0	3	0
71	936	7	10000	3	1	0	3	0
76	937	7	10000	3	1	0	3	0
76	938	7	10000	3	1	0	3	0
75	939	7	10000	3	1	0	3	0
81	940	7	10000	3	1	0	3	0
86	941	7	10000	3	1	0	3	0
84	942	7	10000	3	1	0	3	0
80	943	7	10000	3	1	0	3	0
77	944	7	10000	3	1	0	3	0
76	945	7	10000	3	1	0	3	0
73	946	7	10000	3	1	0	3	0
71	947	7	10000	3	1	0	3	0
72	948	7	10000	3	1	0	3	0
74	949	7	10000	3	1	0	3	0
76	950	7	10000	3	1	0	3	0
75	951	7	10000	3	1	0	3	0
74	952	7	10000	3	1	0	3	0
75	953	7	10000	3	1	0	3	0
77	954	7	10000	3	1	0	3	0
80	955	7	10000	3	1	0	3	0
83	956	7	10000	3	1	0	3	0
83	957	7	10000	3	1	0	3	0
80	958	7	10000	3	1	0	3	0
80	959	7	10000	3	1	0	3	0
82	960	7	10000	3	1	0	3	0
80	961	7	10000	3	1	0	3	0
76	962	7	10000	3	1	0	3	0
73	963	7	10000	3	1	0	3	0
71	964	7	10000	3	1	0	3	0
69	965	7	10000	3	1	0	3	0
67	966	7	10000	3	1	0	3	0
64	967	7	10000	3	1	0	3	0
62	968	7	10000	3	1	0	3	0
63	969	7	10000	3	1	0	3	0
61	970	7	10000	3	1	0	3	0
59	971	7	10000	3	1	0	3	0
62	972	7	10000	3	1	0	3	0
65	973	7	10000	3	1	0	3	0
64	974	7	10000	3	1	0	3	0
65	975	7	10000	3	1	0	3	0
64	976	7	10000	3	1	0	3	0
62	977	7	10000	3	1	0	3	0
61	978	7	10000	3	1	0	3	0
60	979	7	10000	3	1	0	3	0
58	980	7	10000	3	1	0	3	0
58	981	7	10000	3	1	0	3	0
56	982	7	10000	3	1	0	3	0
53	983	7	10000	3	1	0	3	0
52	984	7	10000	3	1	0	3	0
51	985	7	10000	3	1	0	3	0
52	986	7	10000	3	1	0	3	0
57	987	7	10000	3	1	0	3	0
56	988	7	10000	3	1	0	3	0
55	989	7	10000	3	1	0	3	0
54	990	7	10000	3	1	0	3	0
52	991	7	10000	3	1	0	3	0
51	992	7	10000	3	1	0	3	0
52	993	7	10000	3	1	0	3	0
50	994	7	10000	3	1	0	3	0
48	995	7	10000	3	1	0	3	0
48	996	7	10000	3	1	0	3	0
46	997	7	10000	3	1	0	3	0
45	998	7	10000	3	1	0	3	0
45	999	7	10000	3	1	0	3	0
44	1000	7	10000	3	1	0	3	0
45	1001	7	10000	3	1	0	3	0
61	1	7	10000	4	1	0	4	0
61	2	7	10000	4	1	0	4	0
63	3	7	10000	4	1	0	4	0
68	4	7	10000	4	1	0	4	0
71	5	7	10000	4	1	0	4	0
71	6	7	10000	4	1	0	4	0
72	7	7	10000	4	1	0	4	0
72	8	7	10000	4	1	0	4	0
70	9	7	10000	4	1	0	4	0
70	10	7	10000	4	1	0	4	0
70	11	7	10000	4	1	0	4	0
72	12	7	10000	4	1	0	4	0
74	13	7	10000	4	1	0	4	0
72	14	7	10000	4	1	0	4	0
71	15	7	10000	4	1	0	4	0
71	16	7	10000	4	1	0	4	0
70	17	7	10000	4	1	0	4	0
66	18	7	10000	4	1	0	4	0
64	19	7	10000	4	1	0	4	0
61	20	7	10000	4	1	0	4	0
58	21	7	10000	4	1	0	4	0
56	22	7	10000	4	1	0	4	0
56	23	7	10000	4	1	0	4	0
58	24	7	10000	4	1	0	4	0
61	25	7	10000	4	1	0	4	0
62	26	7	10000	4	1	0	4	0
63	27	7	10000	4	1	0	4	0
61	28	7	10000	4	1	0	4	0
60	29	7	10000	4	1	0	4	0
58	30	7	10000	4	1	0	4	0
55	31	7	10000	4	1	0	4	0
55	32	7	10000	4	1	0	4	0
56	33	7	10000	4	1	0	4	0
55	34	7	10000	4	1	0	4	0
54	35	7	10000	4	1	0	4	0
55	36	7	10000	4	1	0	4	0
54	37	7	10000	4	1	0	4	0
53	38	7	10000	4	1	0	4	0
51	39	7	10000	4	1	0	4	0
50	40	7	10000	4	1	0	4	0
50	41	7	10000	4	1	0	4	0
49	42	7	10000	4	1	0	4	0
47	43	7	10000	4	1	0	4	0
46	44	7	10000	4	1	0	4	0
45	45	7	10000	4	1	0	4	0
43	46	7	10000	4	1	0	4	0
42	47	7	10000	4	1	0	4	0
40	48	7	10000	4	1	0	4	0
39	49	7	10000	4	1	0	4	0
39	50	7	10000	4	1	0	4	0
39	51	7	10000	4	1	0	4	0
38	52	7	10000	4	1	0	4	0
39	53	7	10000	4	1	0	4	0
37	54	7	10000	4	1	0	4	0
37	55	7	10000	4	1	0	4	0
35	56	7	10000	4	1	0	4	0
34	57	7	10000	4	1	0	4	0
33	58	7	10000	4	1	0	4	0
33	59	7	10000	4	1	0	4	0
33	60	7	10000	4	1	0	4	0
32	61	7	10000	4	1	0	4	0
31	62	7	10000	4	1	0	4	0
30	63	7	10000	4	1	0	4	0
31	64	7	10000	4	1	0	4	0
32	65	7	10000	4	1	0	4	0
31	66	7	10000	4	1	0	4	0
29	67	7	10000	4	1	0	4	0
28	68	7	10000	4	1	0	4	0
28	69	7	10000	4	1	0	4	0
27	70	7	10000	4	1	0	4	0
27	71	7	10000	4	1	0	4	0
28	72	7	10000	4	1	0	4	0
28	73	7	10000	4	1	0	4	0
26	74	7	10000	4	1	0	4	0
26	75	7	10000	4	1	0	4	0
25	76	7	10000	4	1	0	4	0
25	77	7	10000	4	1	0	4	0
24	78	7	10000	4	1	0	4	0
24	79	7	10000	4	1	0	4	0
24	80	7	10000	4	1	0	4	0
24	81	7	10000	4	1	0	4	0
23	82	7	10000	4	1	0	4	0
24	83	7	10000	4	1	0	4	0
27	84	7	10000	4	1	0	4	0
28	85	7	10000	4	1	0	4	0
27	86	7	10000	4	1	0	4	0
26	87	7	10000	4	1	0	4	0
26	88	7	10000	4	1	0	4	0
26	89	7	10000	4	1	0	4	0
25	90	7	10000	4	1	0	4	0
25	91	7	10000	4	1	0	4	0
25	92	7	10000	4	1	0	4	0
24	93	7	10000	4	1	0	4	0
22	94	7	10000	4	1	0	4	0
23	95	7	10000	4	1	0	4	0
23	96	7	10000	4	1	0	4	0
23	97	7	10000	4	1	0	4	0
22	98	7	10000	4	1	0	4	0
23	99	7	10000	4	1	0	4	0
24	100	7	10000	4	1	0	4	0
23	101	7	10000	4	1	0	4	0
21	102	7	10000	4	1	0	4	0
21	103	7	10000	4	1	0	4	0
22	104	7	10000	4	1	0	4	0
22	105	7	10000	4	1	0	4	0
24	106	7	10000	4	1	0	4	0
24	107	7	10000	4	1	0	4	0
24	108	7	10000	4	1	0	4	0
24	109	7	10000	4	1	0	4	0
23	110	7	10000	4	1	0	4	0
23	111	7	10000	4	1	0	4	0
23	112	7	10000	4	1	0	4	0
24	113	7	10000	4	1	0	4	0
23	114	7	10000	4	1	0	4	0
23	115	7	10000	4	1	0	4	0
24	116	7	10000	4	1	0	4	0
25	117	7	10000	4	1	0	4	0
25	118	7	10000	4	1	0	4	0
27	119	7	10000	4	1	0	4	0
27	120	7	10000	4	1	0	4	0
28	121	7	10000	4	1	0	4	0
28	122	7	10000	4	1	0	4	0
26	123	7	10000	4	1	0	4	0
26	124	7	10000	4	1	0	4	0
26	125	7	10000	4	1	0	4	0
25	126	7	10000	4	1	0	4	0
25	127	7	10000	4	1	0	4	0
24	128	7	10000	4	1	0	4	0
23	129	7	10000	4	1	0	4	0
22	130	7	10000	4	1	0	4	0
24	131	7	10000	4	1	0	4	0
24	132	7	10000	4	1	0	4	0
25	133	7	10000	4	1	0	4	0
25	134	7	10000	4	1	0	4	0
23	135	7	10000	4	1	0	4	0
23	136	7	10000	4	1	0	4	0
23	137	7	10000	4	1	0	4	0
26	138	7	10000	4	1	0	4	0
28	139	7	10000	4	1	0	4	0
29	140	7	10000	4	1	0	4	0
28	141	7	10000	4	1	0	4	0
28	142	7	10000	4	1	0	4	0
29	143	7	10000	4	1	0	4	0
33	144	7	10000	4	1	0	4	0
36	145	7	10000	4	1	0	4	0
37	146	7	10000	4	1	0	4	0
38	147	7	10000	4	1	0	4	0
38	148	7	10000	4	1	0	4	0
37	149	7	10000	4	1	0	4	0
35	150	7	10000	4	1	0	4	0
35	151	7	10000	4	1	0	4	0
35	152	7	10000	4	1	0	4	0
37	153	7	10000	4	1	0	4	0
35	154	7	10000	4	1	0	4	0
33	155	7	10000	4	1	0	4	0
35	156	7	10000	4	1	0	4	0
34	157	7	10000	4	1	0	4	0
34	158	7	10000	4	1	0	4	0
33	159	7	10000	4	1	0	4	0
32	160	7	10000	4	1	0	4	0
31	161	7	10000	4	1	0	4	0
31	162	7	10000	4	1	0	4	0
31	163	7	10000	4	1	0	4	0
33	164	7	10000	4	1	0	4	0
34	165	7	10000	4	1	0	4	0
34	166	7	10000	4	1	0	4	0
34	167	7	10000	4	1	0	4	0
35	168	7	10000	4	1	0	4	0
35	169	7	10000	4	1	0	4	0
34	170	7	10000	4	1	0	4	0
33	171	7	10000	4	1	0	4	0
32	172	7	10000	4	1	0	4	0
33	173	7	10000	4	1	0	4	0
32	174	7	10000	4	1	0	4	0
32	175	7	10000	4	1	0	4	0
32	176	7	10000	4	1	0	4	0
32	177	7	10000	4	1	0	4	0
32	178	7	10000	4	1	0	4	0
32	179	7	10000	4	1	0	4	0
31	180	7	10000	4	1	0	4	0
31	181	7	10000	4	1	0	4	0
29	182	7	10000	4	1	0	4	0
28	183	7	10000	4	1	0	4	0
28	184	7	10000	4	1	0	4	0
28	185	7	10000	4	1	0	4	0
28	186	7	10000	4	1	0	4	0
29	187	7	10000	4	1	0	4	0
28	188	7	10000	4	1	0	4	0
28	189	7	10000	4	1	0	4	0
27	190	7	10000	4	1	0	4	0
26	191	7	10000	4	1	0	4	0
27	192	7	10000	4	1	0	4	0
29	193	7	10000	4	1	0	4	0
28	194	7	10000	4	1	0	4	0
27	195	7	10000	4	1	0	4	0
30	196	7	10000	4	1	0	4	0
30	197	7	10000	4	1	0	4	0
30	198	7	10000	4	1	0	4	0
29	199	7	10000	4	1	0	4	0
29	200	7	10000	4	1	0	4	0
30	201	7	10000	4	1	0	4	0
27	202	7	10000	4	1	0	4	0
28	203	7	10000	4	1	0	4	0
33	204	7	10000	4	1	0	4	0
41	205	7	10000	4	1	0	4	0
44	206	7	10000	4	1	0	4	0
48	207	7	10000	4	1	0	4	0
48	208	7	10000	4	1	0	4	0
46	209	7	10000	4	1	0	4	0
45	210	7	10000	4	1	0	4	0
45	211	7	10000	4	1	0	4	0
43	212	7	10000	4	1	0	4	0
42	213	7	10000	4	1	0	4	0
39	214	7	10000	4	1	0	4	0
39	215	7	10000	4	1	0	4	0
38	216	7	10000	4	1	0	4	0
38	217	7	10000	4	1	0	4	0
37	218	7	10000	4	1	0	4	0
37	219	7	10000	4	1	0	4	0
36	220	7	10000	4	1	0	4	0
35	221	7	10000	4	1	0	4	0
34	222	7	10000	4	1	0	4	0
32	223	7	10000	4	1	0	4	0
33	224	7	10000	4	1	0	4	0
33	225	7	10000	4	1	0	4	0
32	226	7	10000	4	1	0	4	0
34	227	7	10000	4	1	0	4	0
36	228	7	10000	4	1	0	4	0
39	229	7	10000	4	1	0	4	0
39	230	7	10000	4	1	0	4	0
38	231	7	10000	4	1	0	4	0
37	232	7	10000	4	1	0	4	0
36	233	7	10000	4	1	0	4	0
33	234	7	10000	4	1	0	4	0
31	235	7	10000	4	1	0	4	0
30	236	7	10000	4	1	0	4	0
30	237	7	10000	4	1	0	4	0
30	238	7	10000	4	1	0	4	0
29	239	7	10000	4	1	0	4	0
30	240	7	10000	4	1	0	4	0
30	241	7	10000	4	1	0	4	0
31	242	7	10000	4	1	0	4	0
32	243	7	10000	4	1	0	4	0
35	244	7	10000	4	1	0	4	0
37	245	7	10000	4	1	0	4	0
39	246	7	10000	4	1	0	4	0
38	247	7	10000	4	1	0	4	0
36	248	7	10000	4	1	0	4	0
36	249	7	10000	4	1	0	4	0
35	250	7	10000	4	1	0	4	0
34	251	7	10000	4	1	0	4	0
35	252	7	10000	4	1	0	4	0
34	253	7	10000	4	1	0	4	0
32	254	7	10000	4	1	0	4	0
30	255	7	10000	4	1	0	4	0
29	256	7	10000	4	1	0	4	0
29	257	7	10000	4	1	0	4	0
29	258	7	10000	4	1	0	4	0
28	259	7	10000	4	1	0	4	0
29	260	7	10000	4	1	0	4	0
30	261	7	10000	4	1	0	4	0
30	262	7	10000	4	1	0	4	0
32	263	7	10000	4	1	0	4	0
32	264	7	10000	4	1	0	4	0
32	265	7	10000	4	1	0	4	0
30	266	7	10000	4	1	0	4	0
30	267	7	10000	4	1	0	4	0
32	268	7	10000	4	1	0	4	0
32	269	7	10000	4	1	0	4	0
32	270	7	10000	4	1	0	4	0
32	271	7	10000	4	1	0	4	0
31	272	7	10000	4	1	0	4	0
29	273	7	10000	4	1	0	4	0
30	274	7	10000	4	1	0	4	0
30	275	7	10000	4	1	0	4	0
32	276	7	10000	4	1	0	4	0
35	277	7	10000	4	1	0	4	0
35	278	7	10000	4	1	0	4	0
33	279	7	10000	4	1	0	4	0
33	280	7	10000	4	1	0	4	0
33	281	7	10000	4	1	0	4	0
33	282	7	10000	4	1	0	4	0
33	283	7	10000	4	1	0	4	0
32	284	7	10000	4	1	0	4	0
32	285	7	10000	4	1	0	4	0
32	286	7	10000	4	1	0	4	0
32	287	7	10000	4	1	0	4	0
32	288	7	10000	4	1	0	4	0
32	289	7	10000	4	1	0	4	0
30	290	7	10000	4	1	0	4	0
30	291	7	10000	4	1	0	4	0
31	292	7	10000	4	1	0	4	0
35	293	7	10000	4	1	0	4	0
35	294	7	10000	4	1	0	4	0
35	295	7	10000	4	1	0	4	0
35	296	7	10000	4	1	0	4	0
33	297	7	10000	4	1	0	4	0
32	298	7	10000	4	1	0	4	0
32	299	7	10000	4	1	0	4	0
32	300	7	10000	4	1	0	4	0
31	301	7	10000	4	1	0	4	0
29	302	7	10000	4	1	0	4	0
29	303	7	10000	4	1	0	4	0
30	304	7	10000	4	1	0	4	0
32	305	7	10000	4	1	0	4	0
30	306	7	10000	4	1	0	4	0
29	307	7	10000	4	1	0	4	0
28	308	7	10000	4	1	0	4	0
28	309	7	10000	4	1	0	4	0
29	310	7	10000	4	1	0	4	0
29	311	7	10000	4	1	0	4	0
28	312	7	10000	4	1	0	4	0
27	313	7	10000	4	1	0	4	0
25	314	7	10000	4	1	0	4	0
23	315	7	10000	4	1	0	4	0
24	316	7	10000	4	1	0	4	0
24	317	7	10000	4	1	0	4	0
23	318	7	10000	4	1	0	4	0
23	319	7	10000	4	1	0	4	0
22	320	7	10000	4	1	0	4	0
21	321	7	10000	4	1	0	4	0
21	322	7	10000	4	1	0	4	0
20	323	7	10000	4	1	0	4	0
20	324	7	10000	4	1	0	4	0
22	325	7	10000	4	1	0	4	0
22	326	7	10000	4	1	0	4	0
24	327	7	10000	4	1	0	4	0
26	328	7	10000	4	1	0	4	0
27	329	7	10000	4	1	0	4	0
26	330	7	10000	4	1	0	4	0
27	331	7	10000	4	1	0	4	0
27	332	7	10000	4	1	0	4	0
28	333	7	10000	4	1	0	4	0
26	334	7	10000	4	1	0	4	0
25	335	7	10000	4	1	0	4	0
29	336	7	10000	4	1	0	4	0
30	337	7	10000	4	1	0	4	0
30	338	7	10000	4	1	0	4	0
30	339	7	10000	4	1	0	4	0
30	340	7	10000	4	1	0	4	0
29	341	7	10000	4	1	0	4	0
29	342	7	10000	4	1	0	4	0
29	343	7	10000	4	1	0	4	0
31	344	7	10000	4	1	0	4	0
33	345	7	10000	4	1	0	4	0
32	346	7	10000	4	1	0	4	0
31	347	7	10000	4	1	0	4	0
30	348	7	10000	4	1	0	4	0
29	349	7	10000	4	1	0	4	0
28	350	7	10000	4	1	0	4	0
27	351	7	10000	4	1	0	4	0
26	352	7	10000	4	1	0	4	0
26	353	7	10000	4	1	0	4	0
25	354	7	10000	4	1	0	4	0
23	355	7	10000	4	1	0	4	0
22	356	7	10000	4	1	0	4	0
21	357	7	10000	4	1	0	4	0
21	358	7	10000	4	1	0	4	0
21	359	7	10000	4	1	0	4	0
23	360	7	10000	4	1	0	4	0
26	361	7	10000	4	1	0	4	0
28	362	7	10000	4	1	0	4	0
30	363	7	10000	4	1	0	4	0
32	364	7	10000	4	1	0	4	0
32	365	7	10000	4	1	0	4	0
31	366	7	10000	4	1	0	4	0
31	367	7	10000	4	1	0	4	0
29	368	7	10000	4	1	0	4	0
29	369	7	10000	4	1	0	4	0
30	370	7	10000	4	1	0	4	0
30	371	7	10000	4	1	0	4	0
30	372	7	10000	4	1	0	4	0
31	373	7	10000	4	1	0	4	0
31	374	7	10000	4	1	0	4	0
28	375	7	10000	4	1	0	4	0
27	376	7	10000	4	1	0	4	0
27	377	7	10000	4	1	0	4	0
28	378	7	10000	4	1	0	4	0
27	379	7	10000	4	1	0	4	0
28	380	7	10000	4	1	0	4	0
28	381	7	10000	4	1	0	4	0
27	382	7	10000	4	1	0	4	0
27	383	7	10000	4	1	0	4	0
30	384	7	10000	4	1	0	4	0
32	385	7	10000	4	1	0	4	0
33	386	7	10000	4	1	0	4	0
32	387	7	10000	4	1	0	4	0
32	388	7	10000	4	1	0	4	0
33	389	7	10000	4	1	0	4	0
34	390	7	10000	4	1	0	4	0
33	391	7	10000	4	1	0	4	0
33	392	7	10000	4	1	0	4	0
32	393	7	10000	4	1	0	4	0
32	394	7	10000	4	1	0	4	0
29	395	7	10000	4	1	0	4	0
28	396	7	10000	4	1	0	4	0
27	397	7	10000	4	1	0	4	0
27	398	7	10000	4	1	0	4	0
27	399	7	10000	4	1	0	4	0
26	400	7	10000	4	1	0	4	0
26	401	7	10000	4	1	0	4	0
26	402	7	10000	4	1	0	4	0
26	403	7	10000	4	1	0	4	0
27	404	7	10000	4	1	0	4	0
28	405	7	10000	4	1	0	4	0
27	406	7	10000	4	1	0	4	0
25	407	7	10000	4	1	0	4	0
24	408	7	10000	4	1	0	4	0
25	409	7	10000	4	1	0	4	0
24	410	7	10000	4	1	0	4	0
26	411	7	10000	4	1	0	4	0
31	412	7	10000	4	1	0	4	0
35	413	7	10000	4	1	0	4	0
38	414	7	10000	4	1	0	4	0
39	415	7	10000	4	1	0	4	0
40	416	7	10000	4	1	0	4	0
43	417	7	10000	4	1	0	4	0
47	418	7	10000	4	1	0	4	0
52	419	7	10000	4	1	0	4	0
59	420	7	10000	4	1	0	4	0
64	421	7	10000	4	1	0	4	0
67	422	7	10000	4	1	0	4	0
66	423	7	10000	4	1	0	4	0
64	424	7	10000	4	1	0	4	0
63	425	7	10000	4	1	0	4	0
61	426	7	10000	4	1	0	4	0
59	427	7	10000	4	1	0	4	0
56	428	7	10000	4	1	0	4	0
55	429	7	10000	4	1	0	4	0
54	430	7	10000	4	1	0	4	0
53	431	7	10000	4	1	0	4	0
52	432	7	10000	4	1	0	4	0
50	433	7	10000	4	1	0	4	0
48	434	7	10000	4	1	0	4	0
44	435	7	10000	4	1	0	4	0
44	436	7	10000	4	1	0	4	0
46	437	7	10000	4	1	0	4	0
48	438	7	10000	4	1	0	4	0
52	439	7	10000	4	1	0	4	0
53	440	7	10000	4	1	0	4	0
52	441	7	10000	4	1	0	4	0
50	442	7	10000	4	1	0	4	0
50	443	7	10000	4	1	0	4	0
52	444	7	10000	4	1	0	4	0
56	445	7	10000	4	1	0	4	0
55	446	7	10000	4	1	0	4	0
54	447	7	10000	4	1	0	4	0
54	448	7	10000	4	1	0	4	0
52	449	7	10000	4	1	0	4	0
50	450	7	10000	4	1	0	4	0
49	451	7	10000	4	1	0	4	0
46	452	7	10000	4	1	0	4	0
46	453	7	10000	4	1	0	4	0
45	454	7	10000	4	1	0	4	0
44	455	7	10000	4	1	0	4	0
45	456	7	10000	4	1	0	4	0
44	457	7	10000	4	1	0	4	0
43	458	7	10000	4	1	0	4	0
42	459	7	10000	4	1	0	4	0
43	460	7	10000	4	1	0	4	0
44	461	7	10000	4	1	0	4	0
44	462	7	10000	4	1	0	4	0
44	463	7	10000	4	1	0	4	0
44	464	7	10000	4	1	0	4	0
48	465	7	10000	4	1	0	4	0
48	466	7	10000	4	1	0	4	0
49	467	7	10000	4	1	0	4	0
50	468	7	10000	4	1	0	4	0
48	469	7	10000	4	1	0	4	0
47	470	7	10000	4	1	0	4	0
46	471	7	10000	4	1	0	4	0
44	472	7	10000	4	1	0	4	0
43	473	7	10000	4	1	0	4	0
42	474	7	10000	4	1	0	4	0
39	475	7	10000	4	1	0	4	0
37	476	7	10000	4	1	0	4	0
39	477	7	10000	4	1	0	4	0
42	478	7	10000	4	1	0	4	0
44	479	7	10000	4	1	0	4	0
42	480	7	10000	4	1	0	4	0
43	481	7	10000	4	1	0	4	0
44	482	7	10000	4	1	0	4	0
44	483	7	10000	4	1	0	4	0
42	484	7	10000	4	1	0	4	0
42	485	7	10000	4	1	0	4	0
42	486	7	10000	4	1	0	4	0
42	487	7	10000	4	1	0	4	0
42	488	7	10000	4	1	0	4	0
43	489	7	10000	4	1	0	4	0
43	490	7	10000	4	1	0	4	0
44	491	7	10000	4	1	0	4	0
44	492	7	10000	4	1	0	4	0
44	493	7	10000	4	1	0	4	0
42	494	7	10000	4	1	0	4	0
39	495	7	10000	4	1	0	4	0
40	496	7	10000	4	1	0	4	0
41	497	7	10000	4	1	0	4	0
41	498	7	10000	4	1	0	4	0
41	499	7	10000	4	1	0	4	0
42	500	7	10000	4	1	0	4	0
41	501	7	10000	4	1	0	4	1
40	502	7	10000	4	1	0	4	1
39	503	7	10000	4	1	0	4	1
39	504	7	10000	4	1	0	4	1
39	505	7	10000	4	1	0	4	1
37	506	7	10000	4	1	0	4	1
36	507	7	10000	4	1	0	4	1
35	508	7	10000	4	1	0	4	1
35	509	7	10000	4	1	0	4	1
37	510	7	10000	4	1	0	4	1
38	511	7	10000	4	1	0	4	1
40	512	7	10000	4	1	0	4	1
41	513	7	10000	4	1	0	4	1
40	514	7	10000	4	1	0	4	1
37	515	7	10000	4	1	0	4	1
38	516	7	10000	4	1	0	4	1
39	517	7	10000	4	1	0	4	1
40	518	7	10000	4	1	0	4	1
39	519	7	10000	4	1	0	4	1
40	520	7	10000	4	1	0	4	1
42	521	7	10000	4	1	0	4	1
44	522	7	10000	4	1	0	4	1
45	523	7	10000	4	1	0	4	1
45	524	7	10000	4	1	0	4	1
44	525	7	10000	4	1	0	4	1
43	526	7	10000	4	1	0	4	1
41	527	7	10000	4	1	0	4	1
39	528	7	10000	4	1	0	4	1
38	529	7	10000	4	1	0	4	1
38	530	7	10000	4	1	0	4	1
39	531	7	10000	4	1	0	4	1
39	532	7	10000	4	1	0	4	1
39	533	7	10000	4	1	0	4	1
39	534	7	10000	4	1	0	4	1
37	535	7	10000	4	1	0	4	1
38	536	7	10000	4	1	0	4	1
38	537	7	10000	4	1	0	4	1
38	538	7	10000	4	1	0	4	1
37	539	7	10000	4	1	0	4	1
37	540	7	10000	4	1	0	4	1
37	541	7	10000	4	1	0	4	1
35	542	7	10000	4	1	0	4	1
33	543	7	10000	4	1	0	4	1
32	544	7	10000	4	1	0	4	1
33	545	7	10000	4	1	0	4	1
32	546	7	10000	4	1	0	4	1
33	547	7	10000	4	1	0	4	1
31	548	7	10000	4	1	0	4	1
31	549	7	10000	4	1	0	4	1
32	550	7	10000	4	1	0	4	1
31	551	7	10000	4	1	0	4	0
32	552	7	10000	4	1	0	4	0
30	553	7	10000	4	1	0	4	0
30	554	7	10000	4	1	0	4	0
29	555	7	10000	4	1	0	4	0
32	556	7	10000	4	1	0	4	0
35	557	7	10000	4	1	0	4	0
37	558	7	10000	4	1	0	4	0
37	559	7	10000	4	1	0	4	0
37	560	7	10000	4	1	0	4	0
36	561	7	10000	4	1	0	4	0
36	562	7	10000	4	1	0	4	0
37	563	7	10000	4	1	0	4	0
36	564	7	10000	4	1	0	4	0
40	565	7	10000	4	1	0	4	0
41	566	7	10000	4	1	0	4	0
40	567	7	10000	4	1	0	4	0
39	568	7	10000	4	1	0	4	0
41	569	7	10000	4	1	0	4	0
41	570	7	10000	4	1	0	4	0
40	571	7	10000	4	1	0	4	0
40	572	7	10000	4	1	0	4	0
39	573	7	10000	4	1	0	4	0
38	574	7	10000	4	1	0	4	0
36	575	7	10000	4	1	0	4	0
37	576	7	10000	4	1	0	4	0
37	577	7	10000	4	1	0	4	0
36	578	7	10000	4	1	0	4	0
35	579	7	10000	4	1	0	4	0
34	580	7	10000	4	1	0	4	0
36	581	7	10000	4	1	0	4	0
39	582	7	10000	4	1	0	4	0
40	583	7	10000	4	1	0	4	0
41	584	7	10000	4	1	0	4	0
45	585	7	10000	4	1	0	4	0
46	586	7	10000	4	1	0	4	0
47	587	7	10000	4	1	0	4	0
47	588	7	10000	4	1	0	4	0
48	589	7	10000	4	1	0	4	0
48	590	7	10000	4	1	0	4	0
55	591	7	10000	4	1	0	4	0
61	592	7	10000	4	1	0	4	0
64	593	7	10000	4	1	0	4	0
62	594	7	10000	4	1	0	4	0
61	595	7	10000	4	1	0	4	0
67	596	7	10000	4	1	0	4	0
70	597	7	10000	4	1	0	4	0
90	598	7	10000	4	1	0	4	0
119	599	7	10000	4	1	0	4	0
124	600	7	10000	4	1	0	4	0
132	601	7	10000	4	1	0	4	0
145	602	7	10000	4	1	0	4	0
153	603	7	10000	4	1	0	4	0
155	604	7	10000	4	1	0	4	0
152	605	7	10000	4	1	0	4	0
146	606	7	10000	4	1	0	4	0
141	607	7	10000	4	1	0	4	0
135	608	7	10000	4	1	0	4	0
130	609	7	10000	4	1	0	4	0
125	610	7	10000	4	1	0	4	0
123	611	7	10000	4	1	0	4	0
121	612	7	10000	4	1	0	4	0
117	613	7	10000	4	1	0	4	0
112	614	7	10000	4	1	0	4	0
110	615	7	10000	4	1	0	4	0
113	616	7	10000	4	1	0	4	0
112	617	7	10000	4	1	0	4	0
113	618	7	10000	4	1	0	4	0
111	619	7	10000	4	1	0	4	0
112	620	7	10000	4	1	0	4	0
113	621	7	10000	4	1	0	4	0
108	622	7	10000	4	1	0	4	0
104	623	7	10000	4	1	0	4	0
100	624	7	10000	4	1	0	4	0
97	625	7	10000	4	1	0	4	0
92	626	7	10000	4	1	0	4	0
90	627	7	10000	4	1	0	4	0
87	628	7	10000	4	1	0	4	0
85	629	7	10000	4	1	0	4	0
83	630	7	10000	4	1	0	4	0
80	631	7	10000	4	1	0	4	0
79	632	7	10000	4	1	0	4	0
76	633	7	10000	4	1	0	4	0
73	634	7	10000	4	1	0	4	0
68	635	7	10000	4	1	0	4	0
70	636	7	10000	4	1	0	4	0
70	637	7	10000	4	1	0	4	0
69	638	7	10000	4	1	0	4	0
68	639	7	10000	4	1	0	4	0
66	640	7	10000	4	1	0	4	0
65	641	7	10000	4	1	0	4	0
64	642	7	10000	4	1	0	4	0
60	643	7	10000	4	1	0	4	0
58	644	7	10000	4	1	0	4	0
58	645	7	10000	4	1	0	4	0
55	646	7	10000	4	1	0	4	0
53	647	7	10000	4	1	0	4	0
51	648	7	10000	4	1	0	4	0
49	649	7	10000	4	1	0	4	0
48	650	7	10000	4	1	0	4	0
50	651	7	10000	4	1	0	4	0
50	652	7	10000	4	1	0	4	0
49	653	7	10000	4	1	0	4	0
48	654	7	10000	4	1	0	4	0
44	655	7	10000	4	1	0	4	0
45	656	7	10000	4	1	0	4	0
46	657	7	10000	4	1	0	4	0
48	658	7	10000	4	1	0	4	0
49	659	7	10000	4	1	0	4	0
48	660	7	10000	4	1	0	4	0
49	661	7	10000	4	1	0	4	0
47	662	7	10000	4	1	0	4	0
47	663	7	10000	4	1	0	4	0
45	664	7	10000	4	1	0	4	0
45	665	7	10000	4	1	0	4	0
44	666	7	10000	4	1	0	4	0
43	667	7	10000	4	1	0	4	0
42	668	7	10000	4	1	0	4	0
41	669	7	10000	4	1	0	4	0
41	670	7	10000	4	1	0	4	0
40	671	7	10000	4	1	0	4	0
39	672	7	10000	4	1	0	4	0
38	673	7	10000	4	1	0	4	0
37	674	7	10000	4	1	0	4	0
34	675	7	10000	4	1	0	4	0
34	676	7	10000	4	1	0	4	0
33	677	7	10000	4	1	0	4	0
34	678	7	10000	4	1	0	4	0
33	679	7	10000	4	1	0	4	0
33	680	7	10000	4	1	0	4	0
34	681	7	10000	4	1	0	4	0
34	682	7	10000	4	1	0	4	0
36	683	7	10000	4	1	0	4	0
38	684	7	10000	4	1	0	4	0
42	685	7	10000	4	1	0	4	0
42	686	7	10000	4	1	0	4	0
41	687	7	10000	4	1	0	4	0
39	688	7	10000	4	1	0	4	0
37	689	7	10000	4	1	0	4	0
36	690	7	10000	4	1	0	4	0
36	691	7	10000	4	1	0	4	0
36	692	7	10000	4	1	0	4	0
37	693	7	10000	4	1	0	4	0
37	694	7	10000	4	1	0	4	0
35	695	7	10000	4	1	0	4	0
36	696	7	10000	4	1	0	4	0
35	697	7	10000	4	1	0	4	0
34	698	7	10000	4	1	0	4	0
33	699	7	10000	4	1	0	4	0
32	700	7	10000	4	1	0	4	0
32	701	7	10000	4	1	0	4	0
30	702	7	10000	4	1	0	4	0
30	703	7	10000	4	1	0	4	0
30	704	7	10000	4	1	0	4	0
32	705	7	10000	4	1	0	4	0
31	706	7	10000	4	1	0	4	0
30	707	7	10000	4	1	0	4	0
31	708	7	10000	4	1	0	4	0
32	709	7	10000	4	1	0	4	0
31	710	7	10000	4	1	0	4	0
30	711	7	10000	4	1	0	4	0
29	712	7	10000	4	1	0	4	0
28	713	7	10000	4	1	0	4	0
27	714	7	10000	4	1	0	4	0
25	715	7	10000	4	1	0	4	0
25	716	7	10000	4	1	0	4	0
26	717	7	10000	4	1	0	4	0
28	718	7	10000	4	1	0	4	0
27	719	7	10000	4	1	0	4	0
26	720	7	10000	4	1	0	4	0
26	721	7	10000	4	1	0	4	0
27	722	7	10000	4	1	0	4	0
28	723	7	10000	4	1	0	4	0
28	724	7	10000	4	1	0	4	0
31	725	7	10000	4	1	0	4	0
31	726	7	10000	4	1	0	4	0
31	727	7	10000	4	1	0	4	0
31	728	7	10000	4	1	0	4	0
34	729	7	10000	4	1	0	4	0
33	730	7	10000	4	1	0	4	0
32	731	7	10000	4	1	0	4	0
33	732	7	10000	4	1	0	4	0
34	733	7	10000	4	1	0	4	0
35	734	7	10000	4	1	0	4	0
31	735	7	10000	4	1	0	4	0
31	736	7	10000	4	1	0	4	0
32	737	7	10000	4	1	0	4	0
32	738	7	10000	4	1	0	4	0
32	739	7	10000	4	1	0	4	0
35	740	7	10000	4	1	0	4	0
37	741	7	10000	4	1	0	4	0
36	742	7	10000	4	1	0	4	0
35	743	7	10000	4	1	0	4	0
34	744	7	10000	4	1	0	4	0
35	745	7	10000	4	1	0	4	0
36	746	7	10000	4	1	0	4	0
35	747	7	10000	4	1	0	4	0
35	748	7	10000	4	1	0	4	0
34	749	7	10000	4	1	0	4	0
33	750	7	10000	4	1	0	4	0
34	751	7	10000	4	1	0	4	0
36	752	7	10000	4	1	0	4	0
36	753	7	10000	4	1	0	4	0
35	754	7	10000	4	1	0	4	0
32	755	7	10000	4	1	0	4	0
32	756	7	10000	4	1	0	4	0
32	757	7	10000	4	1	0	4	0
32	758	7	10000	4	1	0	4	0
31	759	7	10000	4	1	0	4	0
30	760	7	10000	4	1	0	4	0
30	761	7	10000	4	1	0	4	0
29	762	7	10000	4	1	0	4	0
29	763	7	10000	4	1	0	4	0
29	764	7	10000	4	1	0	4	0
31	765	7	10000	4	1	0	4	0
29	766	7	10000	4	1	0	4	0
27	767	7	10000	4	1	0	4	0
27	768	7	10000	4	1	0	4	0
26	769	7	10000	4	1	0	4	0
26	770	7	10000	4	1	0	4	0
28	771	7	10000	4	1	0	4	0
29	772	7	10000	4	1	0	4	0
29	773	7	10000	4	1	0	4	0
31	774	7	10000	4	1	0	4	0
28	775	7	10000	4	1	0	4	0
27	776	7	10000	4	1	0	4	0
28	777	7	10000	4	1	0	4	0
29	778	7	10000	4	1	0	4	0
31	779	7	10000	4	1	0	4	0
35	780	7	10000	4	1	0	4	0
36	781	7	10000	4	1	0	4	0
34	782	7	10000	4	1	0	4	0
33	783	7	10000	4	1	0	4	0
32	784	7	10000	4	1	0	4	0
33	785	7	10000	4	1	0	4	0
35	786	7	10000	4	1	0	4	0
34	787	7	10000	4	1	0	4	0
35	788	7	10000	4	1	0	4	0
33	789	7	10000	4	1	0	4	0
32	790	7	10000	4	1	0	4	0
31	791	7	10000	4	1	0	4	0
30	792	7	10000	4	1	0	4	0
31	793	7	10000	4	1	0	4	0
32	794	7	10000	4	1	0	4	0
31	795	7	10000	4	1	0	4	0
31	796	7	10000	4	1	0	4	0
33	797	7	10000	4	1	0	4	0
35	798	7	10000	4	1	0	4	0
37	799	7	10000	4	1	0	4	0
37	800	7	10000	4	1	0	4	0
37	801	7	10000	4	1	0	4	0
38	802	7	10000	4	1	0	4	0
41	803	7	10000	4	1	0	4	0
43	804	7	10000	4	1	0	4	0
49	805	7	10000	4	1	0	4	0
50	806	7	10000	4	1	0	4	0
50	807	7	10000	4	1	0	4	0
48	808	7	10000	4	1	0	4	0
46	809	7	10000	4	1	0	4	0
44	810	7	10000	4	1	0	4	0
43	811	7	10000	4	1	0	4	0
43	812	7	10000	4	1	0	4	0
44	813	7	10000	4	1	0	4	0
46	814	7	10000	4	1	0	4	0
45	815	7	10000	4	1	0	4	0
46	816	7	10000	4	1	0	4	0
46	817	7	10000	4	1	0	4	0
47	818	7	10000	4	1	0	4	0
47	819	7	10000	4	1	0	4	0
44	820	7	10000	4	1	0	4	0
43	821	7	10000	4	1	0	4	0
42	822	7	10000	4	1	0	4	0
39	823	7	10000	4	1	0	4	0
38	824	7	10000	4	1	0	4	0
41	825	7	10000	4	1	0	4	0
40	826	7	10000	4	1	0	4	0
39	827	7	10000	4	1	0	4	0
39	828	7	10000	4	1	0	4	0
39	829	7	10000	4	1	0	4	0
38	830	7	10000	4	1	0	4	0
40	831	7	10000	4	1	0	4	0
42	832	7	10000	4	1	0	4	0
43	833	7	10000	4	1	0	4	0
42	834	7	10000	4	1	0	4	0
40	835	7	10000	4	1	0	4	0
44	836	7	10000	4	1	0	4	0
47	837	7	10000	4	1	0	4	0
48	838	7	10000	4	1	0	4	0
47	839	7	10000	4	1	0	4	0
44	840	7	10000	4	1	0	4	0
43	841	7	10000	4	1	0	4	0
40	842	7	10000	4	1	0	4	0
38	843	7	10000	4	1	0	4	0
38	844	7	10000	4	1	0	4	0
40	845	7	10000	4	1	0	4	0
39	846	7	10000	4	1	0	4	0
41	847	7	10000	4	1	0	4	0
41	848	7	10000	4	1	0	4	0
43	849	7	10000	4	1	0	4	0
44	850	7	10000	4	1	0	4	0
43	851	7	10000	4	1	0	4	0
43	852	7	10000	4	1	0	4	0
43	853	7	10000	4	1	0	4	0
43	854	7	10000	4	1	0	4	0
42	855	7	10000	4	1	0	4	0
43	856	7	10000	4	1	0	4	0
43	857	7	10000	4	1	0	4	0
44	858	7	10000	4	1	0	4	0
43	859	7	10000	4	1	0	4	0
41	860	7	10000	4	1	0	4	0
41	861	7	10000	4	1	0	4	0
39	862	7	10000	4	1	0	4	0
38	863	7	10000	4	1	0	4	0
39	864	7	10000	4	1	0	4	0
42	865	7	10000	4	1	0	4	0
40	866	7	10000	4	1	0	4	0
40	867	7	10000	4	1	0	4	0
39	868	7	10000	4	1	0	4	0
39	869	7	10000	4	1	0	4	0
37	870	7	10000	4	1	0	4	0
36	871	7	10000	4	1	0	4	0
36	872	7	10000	4	1	0	4	0
36	873	7	10000	4	1	0	4	0
36	874	7	10000	4	1	0	4	0
34	875	7	10000	4	1	0	4	0
37	876	7	10000	4	1	0	4	0
41	877	7	10000	4	1	0	4	0
46	878	7	10000	4	1	0	4	0
47	879	7	10000	4	1	0	4	0
47	880	7	10000	4	1	0	4	0
46	881	7	10000	4	1	0	4	0
45	882	7	10000	4	1	0	4	0
44	883	7	10000	4	1	0	4	0
43	884	7	10000	4	1	0	4	0
43	885	7	10000	4	1	0	4	0
42	886	7	10000	4	1	0	4	0
41	887	7	10000	4	1	0	4	0
41	888	7	10000	4	1	0	4	0
41	889	7	10000	4	1	0	4	0
41	890	7	10000	4	1	0	4	0
41	891	7	10000	4	1	0	4	0
41	892	7	10000	4	1	0	4	0
40	893	7	10000	4	1	0	4	0
41	894	7	10000	4	1	0	4	0
37	895	7	10000	4	1	0	4	0
37	896	7	10000	4	1	0	4	0
39	897	7	10000	4	1	0	4	0
40	898	7	10000	4	1	0	4	0
40	899	7	10000	4	1	0	4	0
39	900	7	10000	4	1	0	4	0
37	901	7	10000	4	1	0	4	0
36	902	7	10000	4	1	0	4	0
38	903	7	10000	4	1	0	4	0
41	904	7	10000	4	1	0	4	0
43	905	7	10000	4	1	0	4	0
42	906	7	10000	4	1	0	4	0
39	907	7	10000	4	1	0	4	0
38	908	7	10000	4	1	0	4	0
38	909	7	10000	4	1	0	4	0
35	910	7	10000	4	1	0	4	0
34	911	7	10000	4	1	0	4	0
33	912	7	10000	4	1	0	4	0
33	913	7	10000	4	1	0	4	0
34	914	7	10000	4	1	0	4	0
33	915	7	10000	4	1	0	4	0
31	916	7	10000	4	1	0	4	0
30	917	7	10000	4	1	0	4	0
29	918	7	10000	4	1	0	4	0
28	919	7	10000	4	1	0	4	0
28	920	7	10000	4	1	0	4	0
29	921	7	10000	4	1	0	4	0
31	922	7	10000	4	1	0	4	0
33	923	7	10000	4	1	0	4	0
32	924	7	10000	4	1	0	4	0
34	925	7	10000	4	1	0	4	0
35	926	7	10000	4	1	0	4	0
35	927	7	10000	4	1	0	4	0
36	928	7	10000	4	1	0	4	0
40	929	7	10000	4	1	0	4	0
40	930	7	10000	4	1	0	4	0
39	931	7	10000	4	1	0	4	0
39	932	7	10000	4	1	0	4	0
38	933	7	10000	4	1	0	4	0
38	934	7	10000	4	1	0	4	0
35	935	7	10000	4	1	0	4	0
37	936	7	10000	4	1	0	4	0
40	937	7	10000	4	1	0	4	0
39	938	7	10000	4	1	0	4	0
41	939	7	10000	4	1	0	4	0
43	940	7	10000	4	1	0	4	0
43	941	7	10000	4	1	0	4	0
40	942	7	10000	4	1	0	4	0
39	943	7	10000	4	1	0	4	0
37	944	7	10000	4	1	0	4	0
39	945	7	10000	4	1	0	4	0
37	946	7	10000	4	1	0	4	0
36	947	7	10000	4	1	0	4	0
35	948	7	10000	4	1	0	4	0
33	949	7	10000	4	1	0	4	0
31	950	7	10000	4	1	0	4	0
31	951	7	10000	4	1	0	4	0
30	952	7	10000	4	1	0	4	0
29	953	7	10000	4	1	0	4	0
28	954	7	10000	4	1	0	4	0
25	955	7	10000	4	1	0	4	0
26	956	7	10000	4	1	0	4	0
27	957	7	10000	4	1	0	4	0
28	958	7	10000	4	1	0	4	0
29	959	7	10000	4	1	0	4	0
29	960	7	10000	4	1	0	4	0
28	961	7	10000	4	1	0	4	0
27	962	7	10000	4	1	0	4	0
27	963	7	10000	4	1	0	4	0
27	964	7	10000	4	1	0	4	0
29	965	7	10000	4	1	0	4	0
26	966	7	10000	4	1	0	4	0
27	967	7	10000	4	1	0	4	0
26	968	7	10000	4	1	0	4	0
25	969	7	10000	4	1	0	4	0
27	970	7	10000	4	1	0	4	0
30	971	7	10000	4	1	0	4	0
34	972	7	10000	4	1	0	4	0
34	973	7	10000	4	1	0	4	0
34	974	7	10000	4	1	0	4	0
33	975	7	10000	4	1	0	4	0
36	976	7	10000	4	1	0	4	0
41	977	7	10000	4	1	0	4	0
43	978	7	10000	4	1	0	4	0
43	979	7	10000	4	1	0	4	0
40	980	7	10000	4	1	0	4	0
39	981	7	10000	4	1	0	4	0
38	982	7	10000	4	1	0	4	0
36	983	7	10000	4	1	0	4	0
36	984	7	10000	4	1	0	4	0
39	985	7	10000	4	1	0	4	0
39	986	7	10000	4	1	0	4	0
38	987	7	10000	4	1	0	4	0
38	988	7	10000	4	1	0	4	0
37	989	7	10000	4	1	0	4	0
36	990	7	10000	4	1	0	4	0
36	991	7	10000	4	1	0	4	0
36	992	7	10000	4	1	0	4	0
37	993	7	10000	4	1	0	4	0
36	994	7	10000	4	1	0	4	0
33	995	7	10000	4	1	0	4	0
33	996	7	10000	4	1	0	4	0
33	997	7	10000	4	1	0	4	0
32	998	7	10000	4	1	0	4	0
34	999	7	10000	4	1	0	4	0
35	1000	7	10000	4	1	0	4	0
54	2	7	10000	5	1	0	5	0
55	3	7	10000	5	1	0	5	0
56	4	7	10000	5	1	0	5	0
58	5	7	10000	5	1	0	5	0
56	6	7	10000	5	1	0	5	0
56	7	7	10000	5	1	0	5	0
57	8	7	10000	5	1	0	5	0
56	9	7	10000	5	1	0	5	0
56	10	7	10000	5	1	0	5	0
55	11	7	10000	5	1	0	5	0
56	12	7	10000	5	1	0	5	0
57	13	7	10000	5	1	0	5	0
57	14	7	10000	5	1	0	5	0
55	15	7	10000	5	1	0	5	0
53	16	7	10000	5	1	0	5	0
51	17	7	10000	5	1	0	5	0
51	18	7	10000	5	1	0	5	0
53	19	7	10000	5	1	0	5	0
51	20	7	10000	5	1	0	5	0
49	21	7	10000	5	1	0	5	0
48	22	7	10000	5	1	0	5	0
49	23	7	10000	5	1	0	5	0
47	24	7	10000	5	1	0	5	0
47	25	7	10000	5	1	0	5	0
48	26	7	10000	5	1	0	5	0
49	27	7	10000	5	1	0	5	0
50	28	7	10000	5	1	0	5	0
51	29	7	10000	5	1	0	5	0
53	30	7	10000	5	1	0	5	0
53	31	7	10000	5	1	0	5	0
53	32	7	10000	5	1	0	5	0
54	33	7	10000	5	1	0	5	0
52	34	7	10000	5	1	0	5	0
51	35	7	10000	5	1	0	5	0
49	36	7	10000	5	1	0	5	0
49	37	7	10000	5	1	0	5	0
49	38	7	10000	5	1	0	5	0
47	39	7	10000	5	1	0	5	0
43	40	7	10000	5	1	0	5	0
42	41	7	10000	5	1	0	5	0
43	42	7	10000	5	1	0	5	0
42	43	7	10000	5	1	0	5	0
41	44	7	10000	5	1	0	5	0
40	45	7	10000	5	1	0	5	0
39	46	7	10000	5	1	0	5	0
38	47	7	10000	5	1	0	5	0
36	48	7	10000	5	1	0	5	0
35	49	7	10000	5	1	0	5	0
36	50	7	10000	5	1	0	5	0
35	51	7	10000	5	1	0	5	0
34	52	7	10000	5	1	0	5	0
33	53	7	10000	5	1	0	5	0
33	54	7	10000	5	1	0	5	0
35	55	7	10000	5	1	0	5	0
37	56	7	10000	5	1	0	5	0
37	57	7	10000	5	1	0	5	0
37	58	7	10000	5	1	0	5	0
38	59	7	10000	5	1	0	5	0
35	60	7	10000	5	1	0	5	0
35	61	7	10000	5	1	0	5	0
34	62	7	10000	5	1	0	5	0
34	63	7	10000	5	1	0	5	0
33	64	7	10000	5	1	0	5	0
32	65	7	10000	5	1	0	5	0
31	66	7	10000	5	1	0	5	0
30	67	7	10000	5	1	0	5	0
30	68	7	10000	5	1	0	5	0
31	69	7	10000	5	1	0	5	0
33	70	7	10000	5	1	0	5	0
33	71	7	10000	5	1	0	5	0
33	72	7	10000	5	1	0	5	0
35	73	7	10000	5	1	0	5	0
36	74	7	10000	5	1	0	5	0
38	75	7	10000	5	1	0	5	0
37	76	7	10000	5	1	0	5	0
38	77	7	10000	5	1	0	5	0
40	78	7	10000	5	1	0	5	0
38	79	7	10000	5	1	0	5	0
36	80	7	10000	5	1	0	5	0
36	81	7	10000	5	1	0	5	0
38	82	7	10000	5	1	0	5	0
38	83	7	10000	5	1	0	5	0
37	84	7	10000	5	1	0	5	0
35	85	7	10000	5	1	0	5	0
34	86	7	10000	5	1	0	5	0
33	87	7	10000	5	1	0	5	0
33	88	7	10000	5	1	0	5	0
33	89	7	10000	5	1	0	5	0
35	90	7	10000	5	1	0	5	0
38	91	7	10000	5	1	0	5	0
38	92	7	10000	5	1	0	5	0
36	93	7	10000	5	1	0	5	0
37	94	7	10000	5	1	0	5	0
38	95	7	10000	5	1	0	5	0
39	96	7	10000	5	1	0	5	0
38	97	7	10000	5	1	0	5	0
37	98	7	10000	5	1	0	5	0
37	99	7	10000	5	1	0	5	0
36	100	7	10000	5	1	0	5	0
35	101	7	10000	5	1	0	5	0
35	102	7	10000	5	1	0	5	0
37	103	7	10000	5	1	0	5	0
38	104	7	10000	5	1	0	5	0
39	105	7	10000	5	1	0	5	0
40	106	7	10000	5	1	0	5	0
37	107	7	10000	5	1	0	5	0
35	108	7	10000	5	1	0	5	0
33	109	7	10000	5	1	0	5	0
33	110	7	10000	5	1	0	5	0
32	111	7	10000	5	1	0	5	0
32	112	7	10000	5	1	0	5	0
29	113	7	10000	5	1	0	5	0
28	114	7	10000	5	1	0	5	0
28	115	7	10000	5	1	0	5	0
29	116	7	10000	5	1	0	5	0
30	117	7	10000	5	1	0	5	0
30	118	7	10000	5	1	0	5	0
30	119	7	10000	5	1	0	5	0
30	120	7	10000	5	1	0	5	0
30	121	7	10000	5	1	0	5	0
30	122	7	10000	5	1	0	5	0
30	123	7	10000	5	1	0	5	0
30	124	7	10000	5	1	0	5	0
33	125	7	10000	5	1	0	5	0
35	126	7	10000	5	1	0	5	0
35	127	7	10000	5	1	0	5	0
36	128	7	10000	5	1	0	5	0
34	129	7	10000	5	1	0	5	0
38	130	7	10000	5	1	0	5	0
41	131	7	10000	5	1	0	5	0
42	132	7	10000	5	1	0	5	0
40	133	7	10000	5	1	0	5	0
39	134	7	10000	5	1	0	5	0
38	135	7	10000	5	1	0	5	0
37	136	7	10000	5	1	0	5	0
36	137	7	10000	5	1	0	5	0
35	138	7	10000	5	1	0	5	0
34	139	7	10000	5	1	0	5	0
33	140	7	10000	5	1	0	5	0
30	141	7	10000	5	1	0	5	0
31	142	7	10000	5	1	0	5	0
32	143	7	10000	5	1	0	5	0
33	144	7	10000	5	1	0	5	0
34	145	7	10000	5	1	0	5	0
35	146	7	10000	5	1	0	5	0
33	147	7	10000	5	1	0	5	0
33	148	7	10000	5	1	0	5	0
34	149	7	10000	5	1	0	5	0
37	150	7	10000	5	1	0	5	0
40	151	7	10000	5	1	0	5	0
40	152	7	10000	5	1	0	5	0
39	153	7	10000	5	1	0	5	0
37	154	7	10000	5	1	0	5	0
35	155	7	10000	5	1	0	5	0
34	156	7	10000	5	1	0	5	0
35	157	7	10000	5	1	0	5	0
34	158	7	10000	5	1	0	5	0
34	159	7	10000	5	1	0	5	0
31	160	7	10000	5	1	0	5	0
30	161	7	10000	5	1	0	5	0
31	162	7	10000	5	1	0	5	0
31	163	7	10000	5	1	0	5	0
32	164	7	10000	5	1	0	5	0
32	165	7	10000	5	1	0	5	0
32	166	7	10000	5	1	0	5	0
34	167	7	10000	5	1	0	5	0
33	168	7	10000	5	1	0	5	0
32	169	7	10000	5	1	0	5	0
33	170	7	10000	5	1	0	5	0
35	171	7	10000	5	1	0	5	0
34	172	7	10000	5	1	0	5	0
32	173	7	10000	5	1	0	5	0
32	174	7	10000	5	1	0	5	0
32	175	7	10000	5	1	0	5	0
33	176	7	10000	5	1	0	5	0
33	177	7	10000	5	1	0	5	0
35	178	7	10000	5	1	0	5	0
36	179	7	10000	5	1	0	5	0
36	180	7	10000	5	1	0	5	0
37	181	7	10000	5	1	0	5	0
39	182	7	10000	5	1	0	5	0
37	183	7	10000	5	1	0	5	0
36	184	7	10000	5	1	0	5	0
35	185	7	10000	5	1	0	5	0
35	186	7	10000	5	1	0	5	0
34	187	7	10000	5	1	0	5	0
35	188	7	10000	5	1	0	5	0
33	189	7	10000	5	1	0	5	0
34	190	7	10000	5	1	0	5	0
34	191	7	10000	5	1	0	5	0
33	192	7	10000	5	1	0	5	0
32	193	7	10000	5	1	0	5	0
32	194	7	10000	5	1	0	5	0
31	195	7	10000	5	1	0	5	0
32	196	7	10000	5	1	0	5	0
31	197	7	10000	5	1	0	5	0
32	198	7	10000	5	1	0	5	0
33	199	7	10000	5	1	0	5	0
32	200	7	10000	5	1	0	5	0
30	201	7	10000	5	1	0	5	0
32	202	7	10000	5	1	0	5	0
31	203	7	10000	5	1	0	5	0
32	204	7	10000	5	1	0	5	0
31	205	7	10000	5	1	0	5	0
32	206	7	10000	5	1	0	5	0
32	207	7	10000	5	1	0	5	0
30	208	7	10000	5	1	0	5	0
29	209	7	10000	5	1	0	5	0
28	210	7	10000	5	1	0	5	0
28	211	7	10000	5	1	0	5	0
27	212	7	10000	5	1	0	5	0
27	213	7	10000	5	1	0	5	0
26	214	7	10000	5	1	0	5	0
26	215	7	10000	5	1	0	5	0
26	216	7	10000	5	1	0	5	0
26	217	7	10000	5	1	0	5	0
27	218	7	10000	5	1	0	5	0
28	219	7	10000	5	1	0	5	0
26	220	7	10000	5	1	0	5	0
27	221	7	10000	5	1	0	5	0
32	222	7	10000	5	1	0	5	0
38	223	7	10000	5	1	0	5	0
39	224	7	10000	5	1	0	5	0
37	225	7	10000	5	1	0	5	0
36	226	7	10000	5	1	0	5	0
38	227	7	10000	5	1	0	5	0
41	228	7	10000	5	1	0	5	0
42	229	7	10000	5	1	0	5	0
44	230	7	10000	5	1	0	5	0
46	231	7	10000	5	1	0	5	0
45	232	7	10000	5	1	0	5	0
43	233	7	10000	5	1	0	5	0
42	234	7	10000	5	1	0	5	0
41	235	7	10000	5	1	0	5	0
39	236	7	10000	5	1	0	5	0
40	237	7	10000	5	1	0	5	0
41	238	7	10000	5	1	0	5	0
40	239	7	10000	5	1	0	5	0
38	240	7	10000	5	1	0	5	0
36	241	7	10000	5	1	0	5	0
37	242	7	10000	5	1	0	5	0
38	243	7	10000	5	1	0	5	0
39	244	7	10000	5	1	0	5	0
38	245	7	10000	5	1	0	5	0
39	246	7	10000	5	1	0	5	0
40	247	7	10000	5	1	0	5	0
41	248	7	10000	5	1	0	5	0
41	249	7	10000	5	1	0	5	0
40	250	7	10000	5	1	0	5	0
39	251	7	10000	5	1	0	5	0
38	252	7	10000	5	1	0	5	0
36	253	7	10000	5	1	0	5	0
34	254	7	10000	5	1	0	5	0
33	255	7	10000	5	1	0	5	0
33	256	7	10000	5	1	0	5	0
36	257	7	10000	5	1	0	5	0
38	258	7	10000	5	1	0	5	0
37	259	7	10000	5	1	0	5	0
35	260	7	10000	5	1	0	5	0
35	261	7	10000	5	1	0	5	0
38	262	7	10000	5	1	0	5	0
43	263	7	10000	5	1	0	5	0
44	264	7	10000	5	1	0	5	0
42	265	7	10000	5	1	0	5	0
40	266	7	10000	5	1	0	5	0
39	267	7	10000	5	1	0	5	0
39	268	7	10000	5	1	0	5	0
38	269	7	10000	5	1	0	5	0
40	270	7	10000	5	1	0	5	0
42	271	7	10000	5	1	0	5	0
43	272	7	10000	5	1	0	5	0
43	273	7	10000	5	1	0	5	0
44	274	7	10000	5	1	0	5	0
46	275	7	10000	5	1	0	5	0
48	276	7	10000	5	1	0	5	0
50	277	7	10000	5	1	0	5	0
49	278	7	10000	5	1	0	5	0
48	279	7	10000	5	1	0	5	0
46	280	7	10000	5	1	0	5	0
44	281	7	10000	5	1	0	5	0
44	282	7	10000	5	1	0	5	0
44	283	7	10000	5	1	0	5	0
43	284	7	10000	5	1	0	5	0
43	285	7	10000	5	1	0	5	0
42	286	7	10000	5	1	0	5	0
41	287	7	10000	5	1	0	5	0
42	288	7	10000	5	1	0	5	0
42	289	7	10000	5	1	0	5	0
42	290	7	10000	5	1	0	5	0
45	291	7	10000	5	1	0	5	0
45	292	7	10000	5	1	0	5	0
44	293	7	10000	5	1	0	5	0
45	294	7	10000	5	1	0	5	0
44	295	7	10000	5	1	0	5	0
43	296	7	10000	5	1	0	5	0
42	297	7	10000	5	1	0	5	0
41	298	7	10000	5	1	0	5	0
40	299	7	10000	5	1	0	5	0
39	300	7	10000	5	1	0	5	0
36	301	7	10000	5	1	0	5	0
36	302	7	10000	5	1	0	5	0
36	303	7	10000	5	1	0	5	0
36	304	7	10000	5	1	0	5	0
38	305	7	10000	5	1	0	5	0
38	306	7	10000	5	1	0	5	0
37	307	7	10000	5	1	0	5	0
40	308	7	10000	5	1	0	5	0
38	309	7	10000	5	1	0	5	0
37	310	7	10000	5	1	0	5	0
38	311	7	10000	5	1	0	5	0
36	312	7	10000	5	1	0	5	0
35	313	7	10000	5	1	0	5	0
34	314	7	10000	5	1	0	5	0
33	315	7	10000	5	1	0	5	0
33	316	7	10000	5	1	0	5	0
33	317	7	10000	5	1	0	5	0
34	318	7	10000	5	1	0	5	0
38	319	7	10000	5	1	0	5	0
39	320	7	10000	5	1	0	5	0
37	321	7	10000	5	1	0	5	0
38	322	7	10000	5	1	0	5	0
37	323	7	10000	5	1	0	5	0
38	324	7	10000	5	1	0	5	0
40	325	7	10000	5	1	0	5	0
42	326	7	10000	5	1	0	5	0
41	327	7	10000	5	1	0	5	0
40	328	7	10000	5	1	0	5	0
41	329	7	10000	5	1	0	5	0
43	330	7	10000	5	1	0	5	0
44	331	7	10000	5	1	0	5	0
42	332	7	10000	5	1	0	5	0
40	333	7	10000	5	1	0	5	0
38	334	7	10000	5	1	0	5	0
36	335	7	10000	5	1	0	5	0
35	336	7	10000	5	1	0	5	0
34	337	7	10000	5	1	0	5	0
34	338	7	10000	5	1	0	5	0
33	339	7	10000	5	1	0	5	0
32	340	7	10000	5	1	0	5	0
29	341	7	10000	5	1	0	5	0
31	342	7	10000	5	1	0	5	0
30	343	7	10000	5	1	0	5	0
29	344	7	10000	5	1	0	5	0
29	345	7	10000	5	1	0	5	0
29	346	7	10000	5	1	0	5	0
28	347	7	10000	5	1	0	5	0
26	348	7	10000	5	1	0	5	0
25	349	7	10000	5	1	0	5	0
26	350	7	10000	5	1	0	5	0
27	351	7	10000	5	1	0	5	0
26	352	7	10000	5	1	0	5	0
26	353	7	10000	5	1	0	5	0
25	354	7	10000	5	1	0	5	0
27	355	7	10000	5	1	0	5	0
28	356	7	10000	5	1	0	5	0
28	357	7	10000	5	1	0	5	0
28	358	7	10000	5	1	0	5	0
31	359	7	10000	5	1	0	5	0
33	360	7	10000	5	1	0	5	0
35	361	7	10000	5	1	0	5	0
37	362	7	10000	5	1	0	5	0
37	363	7	10000	5	1	0	5	0
37	364	7	10000	5	1	0	5	0
36	365	7	10000	5	1	0	5	0
35	366	7	10000	5	1	0	5	0
35	367	7	10000	5	1	0	5	0
33	368	7	10000	5	1	0	5	0
33	369	7	10000	5	1	0	5	0
33	370	7	10000	5	1	0	5	0
35	371	7	10000	5	1	0	5	0
34	372	7	10000	5	1	0	5	0
35	373	7	10000	5	1	0	5	0
34	374	7	10000	5	1	0	5	0
33	375	7	10000	5	1	0	5	0
32	376	7	10000	5	1	0	5	0
33	377	7	10000	5	1	0	5	0
32	378	7	10000	5	1	0	5	0
33	379	7	10000	5	1	0	5	0
33	380	7	10000	5	1	0	5	0
32	381	7	10000	5	1	0	5	0
32	382	7	10000	5	1	0	5	0
31	383	7	10000	5	1	0	5	0
30	384	7	10000	5	1	0	5	0
30	385	7	10000	5	1	0	5	0
32	386	7	10000	5	1	0	5	0
34	387	7	10000	5	1	0	5	0
34	388	7	10000	5	1	0	5	0
32	389	7	10000	5	1	0	5	0
31	390	7	10000	5	1	0	5	0
31	391	7	10000	5	1	0	5	0
31	392	7	10000	5	1	0	5	0
31	393	7	10000	5	1	0	5	0
30	394	7	10000	5	1	0	5	0
31	395	7	10000	5	1	0	5	0
32	396	7	10000	5	1	0	5	0
33	397	7	10000	5	1	0	5	0
33	398	7	10000	5	1	0	5	0
33	399	7	10000	5	1	0	5	0
32	400	7	10000	5	1	0	5	0
31	401	7	10000	5	1	0	5	0
30	402	7	10000	5	1	0	5	0
31	403	7	10000	5	1	0	5	0
31	404	7	10000	5	1	0	5	0
31	405	7	10000	5	1	0	5	0
31	406	7	10000	5	1	0	5	0
29	407	7	10000	5	1	0	5	0
28	408	7	10000	5	1	0	5	0
28	409	7	10000	5	1	0	5	0
29	410	7	10000	5	1	0	5	0
30	411	7	10000	5	1	0	5	0
29	412	7	10000	5	1	0	5	0
30	413	7	10000	5	1	0	5	0
31	414	7	10000	5	1	0	5	0
34	415	7	10000	5	1	0	5	0
35	416	7	10000	5	1	0	5	0
33	417	7	10000	5	1	0	5	0
35	418	7	10000	5	1	0	5	0
35	419	7	10000	5	1	0	5	0
34	420	7	10000	5	1	0	5	0
32	421	7	10000	5	1	0	5	0
33	422	7	10000	5	1	0	5	0
34	423	7	10000	5	1	0	5	0
33	424	7	10000	5	1	0	5	0
33	425	7	10000	5	1	0	5	0
34	426	7	10000	5	1	0	5	0
34	427	7	10000	5	1	0	5	0
33	428	7	10000	5	1	0	5	0
32	429	7	10000	5	1	0	5	0
32	430	7	10000	5	1	0	5	0
33	431	7	10000	5	1	0	5	0
32	432	7	10000	5	1	0	5	0
30	433	7	10000	5	1	0	5	0
29	434	7	10000	5	1	0	5	0
29	435	7	10000	5	1	0	5	0
30	436	7	10000	5	1	0	5	0
30	437	7	10000	5	1	0	5	0
29	438	7	10000	5	1	0	5	0
28	439	7	10000	5	1	0	5	0
27	440	7	10000	5	1	0	5	0
25	441	7	10000	5	1	0	5	0
25	442	7	10000	5	1	0	5	0
25	443	7	10000	5	1	0	5	0
24	444	7	10000	5	1	0	5	0
25	445	7	10000	5	1	0	5	0
27	446	7	10000	5	1	0	5	0
29	447	7	10000	5	1	0	5	0
30	448	7	10000	5	1	0	5	0
31	449	7	10000	5	1	0	5	0
30	450	7	10000	5	1	0	5	0
31	451	7	10000	5	1	0	5	0
31	452	7	10000	5	1	0	5	0
30	453	7	10000	5	1	0	5	0
32	454	7	10000	5	1	0	5	0
38	455	7	10000	5	1	0	5	0
43	456	7	10000	5	1	0	5	0
43	457	7	10000	5	1	0	5	0
44	458	7	10000	5	1	0	5	0
43	459	7	10000	5	1	0	5	0
42	460	7	10000	5	1	0	5	0
40	461	7	10000	5	1	0	5	0
45	462	7	10000	5	1	0	5	0
48	463	7	10000	5	1	0	5	0
49	464	7	10000	5	1	0	5	0
48	465	7	10000	5	1	0	5	0
46	466	7	10000	5	1	0	5	0
44	467	7	10000	5	1	0	5	0
42	468	7	10000	5	1	0	5	0
39	469	7	10000	5	1	0	5	0
38	470	7	10000	5	1	0	5	0
39	471	7	10000	5	1	0	5	0
37	472	7	10000	5	1	0	5	0
37	473	7	10000	5	1	0	5	0
37	474	7	10000	5	1	0	5	0
37	475	7	10000	5	1	0	5	0
38	476	7	10000	5	1	0	5	0
38	477	7	10000	5	1	0	5	0
37	478	7	10000	5	1	0	5	0
38	479	7	10000	5	1	0	5	0
37	480	7	10000	5	1	0	5	0
34	481	7	10000	5	1	0	5	0
34	482	7	10000	5	1	0	5	0
33	483	7	10000	5	1	0	5	0
32	484	7	10000	5	1	0	5	0
31	485	7	10000	5	1	0	5	0
31	486	7	10000	5	1	0	5	0
30	487	7	10000	5	1	0	5	0
30	488	7	10000	5	1	0	5	0
29	489	7	10000	5	1	0	5	0
28	490	7	10000	5	1	0	5	0
30	491	7	10000	5	1	0	5	0
29	492	7	10000	5	1	0	5	0
31	493	7	10000	5	1	0	5	0
30	494	7	10000	5	1	0	5	0
31	495	7	10000	5	1	0	5	0
30	496	7	10000	5	1	0	5	0
30	497	7	10000	5	1	0	5	0
31	498	7	10000	5	1	0	5	0
31	499	7	10000	5	1	0	5	0
30	500	7	10000	5	1	0	5	0
27	501	7	10000	5	1	0	5	0
28	501	7	10000	5	1	0	5	1
31	502	7	10000	5	1	0	5	1
34	504	7	10000	5	1	0	5	1
34	505	7	10000	5	1	0	5	1
35	506	7	10000	5	1	0	5	1
35	507	7	10000	5	1	0	5	1
33	508	7	10000	5	1	0	5	1
36	509	7	10000	5	1	0	5	1
38	510	7	10000	5	1	0	5	1
39	511	7	10000	5	1	0	5	1
38	512	7	10000	5	1	0	5	1
38	513	7	10000	5	1	0	5	1
36	514	7	10000	5	1	0	5	1
38	515	7	10000	5	1	0	5	1
37	516	7	10000	5	1	0	5	1
36	517	7	10000	5	1	0	5	1
36	518	7	10000	5	1	0	5	1
36	519	7	10000	5	1	0	5	1
36	520	7	10000	5	1	0	5	1
33	521	7	10000	5	1	0	5	1
32	522	7	10000	5	1	0	5	1
32	523	7	10000	5	1	0	5	1
32	524	7	10000	5	1	0	5	1
30	525	7	10000	5	1	0	5	1
29	526	7	10000	5	1	0	5	1
28	527	7	10000	5	1	0	5	1
27	528	7	10000	5	1	0	5	1
26	529	7	10000	5	1	0	5	1
26	530	7	10000	5	1	0	5	1
28	531	7	10000	5	1	0	5	1
27	532	7	10000	5	1	0	5	1
26	533	7	10000	5	1	0	5	1
24	534	7	10000	5	1	0	5	1
24	535	7	10000	5	1	0	5	1
24	536	7	10000	5	1	0	5	1
25	537	7	10000	5	1	0	5	1
27	538	7	10000	5	1	0	5	1
26	539	7	10000	5	1	0	5	1
24	540	7	10000	5	1	0	5	1
22	541	7	10000	5	1	0	5	1
23	542	7	10000	5	1	0	5	1
24	543	7	10000	5	1	0	5	1
29	544	7	10000	5	1	0	5	1
31	545	7	10000	5	1	0	5	1
33	546	7	10000	5	1	0	5	1
35	547	7	10000	5	1	0	5	1
36	548	7	10000	5	1	0	5	1
38	549	7	10000	5	1	0	5	1
37	550	7	10000	5	1	0	5	1
38	551	7	10000	5	1	0	5	1
37	552	7	10000	5	1	0	5	0
34	553	7	10000	5	1	0	5	0
33	554	7	10000	5	1	0	5	0
32	555	7	10000	5	1	0	5	0
31	556	7	10000	5	1	0	5	0
30	557	7	10000	5	1	0	5	0
31	558	7	10000	5	1	0	5	0
31	559	7	10000	5	1	0	5	0
32	560	7	10000	5	1	0	5	0
29	561	7	10000	5	1	0	5	0
29	562	7	10000	5	1	0	5	0
30	563	7	10000	5	1	0	5	0
30	564	7	10000	5	1	0	5	0
28	565	7	10000	5	1	0	5	0
28	566	7	10000	5	1	0	5	0
28	567	7	10000	5	1	0	5	0
28	568	7	10000	5	1	0	5	0
27	569	7	10000	5	1	0	5	0
26	570	7	10000	5	1	0	5	0
27	571	7	10000	5	1	0	5	0
28	572	7	10000	5	1	0	5	0
29	573	7	10000	5	1	0	5	0
30	574	7	10000	5	1	0	5	0
32	575	7	10000	5	1	0	5	0
33	576	7	10000	5	1	0	5	0
32	577	7	10000	5	1	0	5	0
35	578	7	10000	5	1	0	5	0
35	579	7	10000	5	1	0	5	0
34	580	7	10000	5	1	0	5	0
32	581	7	10000	5	1	0	5	0
35	582	7	10000	5	1	0	5	0
39	583	7	10000	5	1	0	5	0
41	584	7	10000	5	1	0	5	0
46	585	7	10000	5	1	0	5	0
51	586	7	10000	5	1	0	5	0
50	587	7	10000	5	1	0	5	0
48	588	7	10000	5	1	0	5	0
54	589	7	10000	5	1	0	5	0
66	590	7	10000	5	1	0	5	0
77	591	7	10000	5	1	0	5	0
79	592	7	10000	5	1	0	5	0
87	593	7	10000	5	1	0	5	0
89	594	7	10000	5	1	0	5	0
116	595	7	10000	5	1	0	5	0
143	596	7	10000	5	1	0	5	0
145	597	7	10000	5	1	0	5	0
161	598	7	10000	5	1	0	5	0
174	599	7	10000	5	1	0	5	0
172	600	7	10000	5	1	0	5	0
179	601	7	10000	5	1	0	5	0
183	602	7	10000	5	1	0	5	0
185	603	7	10000	5	1	0	5	0
200	604	7	10000	5	1	0	5	0
213	605	7	10000	5	1	0	5	0
210	606	7	10000	5	1	0	5	0
203	607	7	10000	5	1	0	5	0
198	608	7	10000	5	1	0	5	0
195	609	7	10000	5	1	0	5	0
196	610	7	10000	5	1	0	5	0
201	611	7	10000	5	1	0	5	0
199	612	7	10000	5	1	0	5	0
196	613	7	10000	5	1	0	5	0
189	614	7	10000	5	1	0	5	0
185	615	7	10000	5	1	0	5	0
181	616	7	10000	5	1	0	5	0
176	617	7	10000	5	1	0	5	0
178	618	7	10000	5	1	0	5	0
182	619	7	10000	5	1	0	5	0
186	620	7	10000	5	1	0	5	0
183	621	7	10000	5	1	0	5	0
180	622	7	10000	5	1	0	5	0
175	623	7	10000	5	1	0	5	0
169	624	7	10000	5	1	0	5	0
163	625	7	10000	5	1	0	5	0
155	626	7	10000	5	1	0	5	0
152	627	7	10000	5	1	0	5	0
150	628	7	10000	5	1	0	5	0
149	629	7	10000	5	1	0	5	0
142	630	7	10000	5	1	0	5	0
139	631	7	10000	5	1	0	5	0
136	632	7	10000	5	1	0	5	0
131	633	7	10000	5	1	0	5	0
126	634	7	10000	5	1	0	5	0
123	635	7	10000	5	1	0	5	0
120	636	7	10000	5	1	0	5	0
115	637	7	10000	5	1	0	5	0
110	638	7	10000	5	1	0	5	0
107	639	7	10000	5	1	0	5	0
105	640	7	10000	5	1	0	5	0
104	641	7	10000	5	1	0	5	0
106	642	7	10000	5	1	0	5	0
107	643	7	10000	5	1	0	5	0
108	644	7	10000	5	1	0	5	0
105	645	7	10000	5	1	0	5	0
104	646	7	10000	5	1	0	5	0
102	647	7	10000	5	1	0	5	0
101	648	7	10000	5	1	0	5	0
99	649	7	10000	5	1	0	5	0
97	650	7	10000	5	1	0	5	0
97	651	7	10000	5	1	0	5	0
95	652	7	10000	5	1	0	5	0
93	653	7	10000	5	1	0	5	0
89	654	7	10000	5	1	0	5	0
87	655	7	10000	5	1	0	5	0
84	656	7	10000	5	1	0	5	0
82	657	7	10000	5	1	0	5	0
81	658	7	10000	5	1	0	5	0
80	659	7	10000	5	1	0	5	0
78	660	7	10000	5	1	0	5	0
72	661	7	10000	5	1	0	5	0
69	662	7	10000	5	1	0	5	0
67	663	7	10000	5	1	0	5	0
65	664	7	10000	5	1	0	5	0
64	665	7	10000	5	1	0	5	0
64	666	7	10000	5	1	0	5	0
65	667	7	10000	5	1	0	5	0
64	668	7	10000	5	1	0	5	0
65	669	7	10000	5	1	0	5	0
64	670	7	10000	5	1	0	5	0
64	671	7	10000	5	1	0	5	0
63	672	7	10000	5	1	0	5	0
62	673	7	10000	5	1	0	5	0
61	674	7	10000	5	1	0	5	0
61	675	7	10000	5	1	0	5	0
59	676	7	10000	5	1	0	5	0
56	677	7	10000	5	1	0	5	0
56	678	7	10000	5	1	0	5	0
54	679	7	10000	5	1	0	5	0
53	680	7	10000	5	1	0	5	0
55	681	7	10000	5	1	0	5	0
60	682	7	10000	5	1	0	5	0
62	683	7	10000	5	1	0	5	0
61	684	7	10000	5	1	0	5	0
59	685	7	10000	5	1	0	5	0
59	686	7	10000	5	1	0	5	0
61	687	7	10000	5	1	0	5	0
60	688	7	10000	5	1	0	5	0
58	689	7	10000	5	1	0	5	0
56	690	7	10000	5	1	0	5	0
57	691	7	10000	5	1	0	5	0
56	692	7	10000	5	1	0	5	0
55	693	7	10000	5	1	0	5	0
53	694	7	10000	5	1	0	5	0
52	695	7	10000	5	1	0	5	0
50	696	7	10000	5	1	0	5	0
47	697	7	10000	5	1	0	5	0
47	698	7	10000	5	1	0	5	0
46	699	7	10000	5	1	0	5	0
44	700	7	10000	5	1	0	5	0
43	701	7	10000	5	1	0	5	0
43	702	7	10000	5	1	0	5	0
45	703	7	10000	5	1	0	5	0
46	704	7	10000	5	1	0	5	0
46	705	7	10000	5	1	0	5	0
48	706	7	10000	5	1	0	5	0
49	707	7	10000	5	1	0	5	0
48	708	7	10000	5	1	0	5	0
48	709	7	10000	5	1	0	5	0
45	710	7	10000	5	1	0	5	0
49	711	7	10000	5	1	0	5	0
53	712	7	10000	5	1	0	5	0
56	713	7	10000	5	1	0	5	0
57	714	7	10000	5	1	0	5	0
56	715	7	10000	5	1	0	5	0
58	716	7	10000	5	1	0	5	0
59	717	7	10000	5	1	0	5	0
59	718	7	10000	5	1	0	5	0
57	719	7	10000	5	1	0	5	0
58	720	7	10000	5	1	0	5	0
56	721	7	10000	5	1	0	5	0
56	722	7	10000	5	1	0	5	0
54	723	7	10000	5	1	0	5	0
51	724	7	10000	5	1	0	5	0
49	725	7	10000	5	1	0	5	0
50	726	7	10000	5	1	0	5	0
49	727	7	10000	5	1	0	5	0
50	728	7	10000	5	1	0	5	0
50	729	7	10000	5	1	0	5	0
48	730	7	10000	5	1	0	5	0
50	731	7	10000	5	1	0	5	0
51	732	7	10000	5	1	0	5	0
50	733	7	10000	5	1	0	5	0
47	734	7	10000	5	1	0	5	0
46	735	7	10000	5	1	0	5	0
47	736	7	10000	5	1	0	5	0
47	737	7	10000	5	1	0	5	0
46	738	7	10000	5	1	0	5	0
45	739	7	10000	5	1	0	5	0
47	740	7	10000	5	1	0	5	0
43	741	7	10000	5	1	0	5	0
42	742	7	10000	5	1	0	5	0
44	743	7	10000	5	1	0	5	0
45	744	7	10000	5	1	0	5	0
46	745	7	10000	5	1	0	5	0
50	746	7	10000	5	1	0	5	0
53	747	7	10000	5	1	0	5	0
55	748	7	10000	5	1	0	5	0
54	749	7	10000	5	1	0	5	0
56	750	7	10000	5	1	0	5	0
59	751	7	10000	5	1	0	5	0
59	752	7	10000	5	1	0	5	0
58	753	7	10000	5	1	0	5	0
56	754	7	10000	5	1	0	5	0
55	755	7	10000	5	1	0	5	0
54	756	7	10000	5	1	0	5	0
52	757	7	10000	5	1	0	5	0
51	758	7	10000	5	1	0	5	0
51	759	7	10000	5	1	0	5	0
50	760	7	10000	5	1	0	5	0
45	761	7	10000	5	1	0	5	0
45	762	7	10000	5	1	0	5	0
48	763	7	10000	5	1	0	5	0
56	764	7	10000	5	1	0	5	0
60	765	7	10000	5	1	0	5	0
60	766	7	10000	5	1	0	5	0
58	767	7	10000	5	1	0	5	0
56	768	7	10000	5	1	0	5	0
52	769	7	10000	5	1	0	5	0
51	770	7	10000	5	1	0	5	0
52	771	7	10000	5	1	0	5	0
51	772	7	10000	5	1	0	5	0
49	773	7	10000	5	1	0	5	0
49	774	7	10000	5	1	0	5	0
48	775	7	10000	5	1	0	5	0
48	776	7	10000	5	1	0	5	0
49	777	7	10000	5	1	0	5	0
52	778	7	10000	5	1	0	5	0
52	779	7	10000	5	1	0	5	0
52	780	7	10000	5	1	0	5	0
55	781	7	10000	5	1	0	5	0
63	782	7	10000	5	1	0	5	0
64	783	7	10000	5	1	0	5	0
64	784	7	10000	5	1	0	5	0
67	785	7	10000	5	1	0	5	0
69	786	7	10000	5	1	0	5	0
67	787	7	10000	5	1	0	5	0
65	788	7	10000	5	1	0	5	0
64	789	7	10000	5	1	0	5	0
61	790	7	10000	5	1	0	5	0
64	791	7	10000	5	1	0	5	0
68	792	7	10000	5	1	0	5	0
71	793	7	10000	5	1	0	5	0
69	794	7	10000	5	1	0	5	0
70	795	7	10000	5	1	0	5	0
69	796	7	10000	5	1	0	5	0
68	797	7	10000	5	1	0	5	0
68	798	7	10000	5	1	0	5	0
66	799	7	10000	5	1	0	5	0
65	800	7	10000	5	1	0	5	0
60	801	7	10000	5	1	0	5	0
58	802	7	10000	5	1	0	5	0
65	803	7	10000	5	1	0	5	0
74	804	7	10000	5	1	0	5	0
79	805	7	10000	5	1	0	5	0
77	806	7	10000	5	1	0	5	0
74	807	7	10000	5	1	0	5	0
