value	EMG	Stimulus	EMG_sensitivity	Total_Trial_Nr	practise	acq	probe_nr	Startle_Probe
19	1	0	10000	1	1	0	1	0
20	2	0	10000	1	1	0	1	0
19	3	0	10000	1	1	0	1	0
20	4	0	10000	1	1	0	1	0
20	5	0	10000	1	1	0	1	0
20	6	0	10000	1	1	0	1	0
20	7	0	10000	1	1	0	1	0
20	8	0	10000	1	1	0	1	0
20	9	0	10000	1	1	0	1	0
18	10	0	10000	1	1	0	1	0
18	11	0	10000	1	1	0	1	0
19	12	0	10000	1	1	0	1	0
18	13	0	10000	1	1	0	1	0
17	14	0	10000	1	1	0	1	0
17	15	0	10000	1	1	0	1	0
17	16	0	10000	1	1	0	1	0
16	17	0	10000	1	1	0	1	0
16	18	0	10000	1	1	0	1	0
17	19	0	10000	1	1	0	1	0
18	20	0	10000	1	1	0	1	0
18	21	0	10000	1	1	0	1	0
18	22	0	10000	1	1	0	1	0
20	23	0	10000	1	1	0	1	0
22	24	0	10000	1	1	0	1	0
23	25	0	10000	1	1	0	1	0
23	26	0	10000	1	1	0	1	0
23	27	0	10000	1	1	0	1	0
24	28	0	10000	1	1	0	1	0
26	29	0	10000	1	1	0	1	0
23	30	0	10000	1	1	0	1	0
26	31	0	10000	1	1	0	1	0
27	32	0	10000	1	1	0	1	0
27	33	0	10000	1	1	0	1	0
27	34	0	10000	1	1	0	1	0
27	35	0	10000	1	1	0	1	0
27	36	0	10000	1	1	0	1	0
27	37	0	10000	1	1	0	1	0
27	38	0	10000	1	1	0	1	0
26	39	0	10000	1	1	0	1	0
29	40	0	10000	1	1	0	1	0
28	41	0	10000	1	1	0	1	0
28	42	0	10000	1	1	0	1	0
29	43	0	10000	1	1	0	1	0
30	44	0	10000	1	1	0	1	0
31	45	0	10000	1	1	0	1	0
31	46	0	10000	1	1	0	1	0
30	47	0	10000	1	1	0	1	0
29	48	0	10000	1	1	0	1	0
30	49	0	10000	1	1	0	1	0
30	50	0	10000	1	1	0	1	0
29	51	0	10000	1	1	0	1	0
30	52	0	10000	1	1	0	1	0
30	53	0	10000	1	1	0	1	0
30	54	0	10000	1	1	0	1	0
30	55	0	10000	1	1	0	1	0
30	56	0	10000	1	1	0	1	0
29	57	0	10000	1	1	0	1	0
27	58	0	10000	1	1	0	1	0
28	59	0	10000	1	1	0	1	0
31	60	0	10000	1	1	0	1	0
29	61	0	10000	1	1	0	1	0
28	62	0	10000	1	1	0	1	0
28	63	0	10000	1	1	0	1	0
27	64	0	10000	1	1	0	1	0
28	65	0	10000	1	1	0	1	0
28	66	0	10000	1	1	0	1	0
28	67	0	10000	1	1	0	1	0
30	68	0	10000	1	1	0	1	0
29	69	0	10000	1	1	0	1	0
27	70	0	10000	1	1	0	1	0
27	71	0	10000	1	1	0	1	0
28	72	0	10000	1	1	0	1	0
28	73	0	10000	1	1	0	1	0
28	74	0	10000	1	1	0	1	0
31	75	0	10000	1	1	0	1	0
31	76	0	10000	1	1	0	1	0
32	77	0	10000	1	1	0	1	0
32	78	0	10000	1	1	0	1	0
32	79	0	10000	1	1	0	1	0
34	80	0	10000	1	1	0	1	0
33	81	0	10000	1	1	0	1	0
34	82	0	10000	1	1	0	1	0
35	83	0	10000	1	1	0	1	0
37	84	0	10000	1	1	0	1	0
38	85	0	10000	1	1	0	1	0
36	86	0	10000	1	1	0	1	0
36	87	0	10000	1	1	0	1	0
36	88	0	10000	1	1	0	1	0
36	89	0	10000	1	1	0	1	0
34	90	0	10000	1	1	0	1	0
33	91	0	10000	1	1	0	1	0
34	92	0	10000	1	1	0	1	0
34	93	0	10000	1	1	0	1	0
36	94	0	10000	1	1	0	1	0
37	95	0	10000	1	1	0	1	0
36	96	0	10000	1	1	0	1	0
38	97	0	10000	1	1	0	1	0
36	98	0	10000	1	1	0	1	0
35	99	0	10000	1	1	0	1	0
37	100	0	10000	1	1	0	1	0
36	101	0	10000	1	1	0	1	0
35	102	0	10000	1	1	0	1	0
34	103	0	10000	1	1	0	1	0
34	104	0	10000	1	1	0	1	0
33	105	0	10000	1	1	0	1	0
32	106	0	10000	1	1	0	1	0
32	107	0	10000	1	1	0	1	0
33	108	0	10000	1	1	0	1	0
32	109	0	10000	1	1	0	1	0
29	110	0	10000	1	1	0	1	0
29	111	0	10000	1	1	0	1	0
30	112	0	10000	1	1	0	1	0
30	113	0	10000	1	1	0	1	0
32	114	0	10000	1	1	0	1	0
32	115	0	10000	1	1	0	1	0
31	116	0	10000	1	1	0	1	0
30	117	0	10000	1	1	0	1	0
29	118	0	10000	1	1	0	1	0
28	119	0	10000	1	1	0	1	0
30	120	0	10000	1	1	0	1	0
30	121	0	10000	1	1	0	1	0
29	122	0	10000	1	1	0	1	0
28	123	0	10000	1	1	0	1	0
29	124	0	10000	1	1	0	1	0
32	125	0	10000	1	1	0	1	0
36	126	0	10000	1	1	0	1	0
36	127	0	10000	1	1	0	1	0
36	128	0	10000	1	1	0	1	0
36	129	0	10000	1	1	0	1	0
34	130	0	10000	1	1	0	1	0
36	131	0	10000	1	1	0	1	0
37	132	0	10000	1	1	0	1	0
36	133	0	10000	1	1	0	1	0
36	134	0	10000	1	1	0	1	0
36	135	0	10000	1	1	0	1	0
36	136	0	10000	1	1	0	1	0
35	137	0	10000	1	1	0	1	0
33	138	0	10000	1	1	0	1	0
34	139	0	10000	1	1	0	1	0
35	140	0	10000	1	1	0	1	0
34	141	0	10000	1	1	0	1	0
32	142	0	10000	1	1	0	1	0
31	143	0	10000	1	1	0	1	0
31	144	0	10000	1	1	0	1	0
29	145	0	10000	1	1	0	1	0
29	146	0	10000	1	1	0	1	0
30	147	0	10000	1	1	0	1	0
30	148	0	10000	1	1	0	1	0
28	149	0	10000	1	1	0	1	0
28	150	0	10000	1	1	0	1	0
33	151	0	10000	1	1	0	1	0
36	152	0	10000	1	1	0	1	0
36	153	0	10000	1	1	0	1	0
40	154	0	10000	1	1	0	1	0
44	155	0	10000	1	1	0	1	0
51	156	0	10000	1	1	0	1	0
57	157	0	10000	1	1	0	1	0
61	158	0	10000	1	1	0	1	0
59	159	0	10000	1	1	0	1	0
58	160	0	10000	1	1	0	1	0
58	161	0	10000	1	1	0	1	0
61	162	0	10000	1	1	0	1	0
64	163	0	10000	1	1	0	1	0
68	164	0	10000	1	1	0	1	0
72	165	0	10000	1	1	0	1	0
75	166	0	10000	1	1	0	1	0
77	167	0	10000	1	1	0	1	0
80	168	0	10000	1	1	0	1	0
76	169	0	10000	1	1	0	1	0
72	170	0	10000	1	1	0	1	0
71	171	0	10000	1	1	0	1	0
71	172	0	10000	1	1	0	1	0
76	173	0	10000	1	1	0	1	0
82	174	0	10000	1	1	0	1	0
87	175	0	10000	1	1	0	1	0
86	176	0	10000	1	1	0	1	0
83	177	0	10000	1	1	0	1	0
84	178	0	10000	1	1	0	1	0
85	179	0	10000	1	1	0	1	0
84	180	0	10000	1	1	0	1	0
84	181	0	10000	1	1	0	1	0
86	182	0	10000	1	1	0	1	0
89	183	0	10000	1	1	0	1	0
89	184	0	10000	1	1	0	1	0
86	185	0	10000	1	1	0	1	0
82	186	0	10000	1	1	0	1	0
82	187	0	10000	1	1	0	1	0
81	188	0	10000	1	1	0	1	0
79	189	0	10000	1	1	0	1	0
76	190	0	10000	1	1	0	1	0
76	191	0	10000	1	1	0	1	0
79	192	0	10000	1	1	0	1	0
82	193	0	10000	1	1	0	1	0
86	194	0	10000	1	1	0	1	0
86	195	0	10000	1	1	0	1	0
85	196	0	10000	1	1	0	1	0
84	197	0	10000	1	1	0	1	0
80	198	0	10000	1	1	0	1	0
80	199	0	10000	1	1	0	1	0
81	200	0	10000	1	1	0	1	0
80	201	0	10000	1	1	0	1	0
82	202	0	10000	1	1	0	1	0
82	203	0	10000	1	1	0	1	0
83	204	0	10000	1	1	0	1	0
83	205	0	10000	1	1	0	1	0
85	206	0	10000	1	1	0	1	0
86	207	0	10000	1	1	0	1	0
86	208	0	10000	1	1	0	1	0
87	209	0	10000	1	1	0	1	0
83	210	0	10000	1	1	0	1	0
84	211	0	10000	1	1	0	1	0
83	212	0	10000	1	1	0	1	0
84	213	0	10000	1	1	0	1	0
82	214	0	10000	1	1	0	1	0
81	215	0	10000	1	1	0	1	0
80	216	0	10000	1	1	0	1	0
78	217	0	10000	1	1	0	1	0
76	218	0	10000	1	1	0	1	0
75	219	0	10000	1	1	0	1	0
74	220	0	10000	1	1	0	1	0
72	221	0	10000	1	1	0	1	0
70	222	0	10000	1	1	0	1	0
67	223	0	10000	1	1	0	1	0
65	224	0	10000	1	1	0	1	0
64	225	0	10000	1	1	0	1	0
62	226	0	10000	1	1	0	1	0
61	227	0	10000	1	1	0	1	0
60	228	0	10000	1	1	0	1	0
59	229	0	10000	1	1	0	1	0
57	230	0	10000	1	1	0	1	0
57	231	0	10000	1	1	0	1	0
55	232	0	10000	1	1	0	1	0
55	233	0	10000	1	1	0	1	0
55	234	0	10000	1	1	0	1	0
54	235	0	10000	1	1	0	1	0
53	236	0	10000	1	1	0	1	0
51	237	0	10000	1	1	0	1	0
50	238	0	10000	1	1	0	1	0
50	239	0	10000	1	1	0	1	0
51	240	0	10000	1	1	0	1	0
48	241	0	10000	1	1	0	1	0
48	242	0	10000	1	1	0	1	0
45	243	0	10000	1	1	0	1	0
44	244	0	10000	1	1	0	1	0
42	245	0	10000	1	1	0	1	0
41	246	0	10000	1	1	0	1	0
41	247	0	10000	1	1	0	1	0
41	248	0	10000	1	1	0	1	0
39	249	0	10000	1	1	0	1	0
35	250	0	10000	1	1	0	1	0
35	251	0	10000	1	1	0	1	0
34	252	0	10000	1	1	0	1	0
34	253	0	10000	1	1	0	1	0
33	254	0	10000	1	1	0	1	0
32	255	0	10000	1	1	0	1	0
31	256	0	10000	1	1	0	1	0
30	257	0	10000	1	1	0	1	0
29	258	0	10000	1	1	0	1	0
28	259	0	10000	1	1	0	1	0
30	260	0	10000	1	1	0	1	0
29	261	0	10000	1	1	0	1	0
29	262	0	10000	1	1	0	1	0
29	263	0	10000	1	1	0	1	0
27	264	0	10000	1	1	0	1	0
27	265	0	10000	1	1	0	1	0
26	266	0	10000	1	1	0	1	0
27	267	0	10000	1	1	0	1	0
26	268	0	10000	1	1	0	1	0
25	269	0	10000	1	1	0	1	0
22	270	0	10000	1	1	0	1	0
22	271	0	10000	1	1	0	1	0
21	272	0	10000	1	1	0	1	0
21	273	0	10000	1	1	0	1	0
21	274	0	10000	1	1	0	1	0
21	275	0	10000	1	1	0	1	0
22	276	0	10000	1	1	0	1	0
23	277	0	10000	1	1	0	1	0
23	278	0	10000	1	1	0	1	0
22	279	0	10000	1	1	0	1	0
25	280	0	10000	1	1	0	1	0
23	281	0	10000	1	1	0	1	0
23	282	0	10000	1	1	0	1	0
22	283	0	10000	1	1	0	1	0
24	284	0	10000	1	1	0	1	0
24	285	0	10000	1	1	0	1	0
23	286	0	10000	1	1	0	1	0
24	287	0	10000	1	1	0	1	0
24	288	0	10000	1	1	0	1	0
24	289	0	10000	1	1	0	1	0
21	290	0	10000	1	1	0	1	0
21	291	0	10000	1	1	0	1	0
20	292	0	10000	1	1	0	1	0
20	293	0	10000	1	1	0	1	0
21	294	0	10000	1	1	0	1	0
21	295	0	10000	1	1	0	1	0
21	296	0	10000	1	1	0	1	0
20	297	0	10000	1	1	0	1	0
20	298	0	10000	1	1	0	1	0
21	299	0	10000	1	1	0	1	0
22	300	0	10000	1	1	0	1	0
22	301	0	10000	1	1	0	1	0
21	302	0	10000	1	1	0	1	0
20	303	0	10000	1	1	0	1	0
20	304	0	10000	1	1	0	1	0
20	305	0	10000	1	1	0	1	0
20	306	0	10000	1	1	0	1	0
20	307	0	10000	1	1	0	1	0
21	308	0	10000	1	1	0	1	0
20	309	0	10000	1	1	0	1	0
18	310	0	10000	1	1	0	1	0
18	311	0	10000	1	1	0	1	0
18	312	0	10000	1	1	0	1	0
18	313	0	10000	1	1	0	1	0
19	314	0	10000	1	1	0	1	0
19	315	0	10000	1	1	0	1	0
20	316	0	10000	1	1	0	1	0
18	317	0	10000	1	1	0	1	0
18	318	0	10000	1	1	0	1	0
19	319	0	10000	1	1	0	1	0
21	320	0	10000	1	1	0	1	0
22	321	0	10000	1	1	0	1	0
22	322	0	10000	1	1	0	1	0
23	323	0	10000	1	1	0	1	0
22	324	0	10000	1	1	0	1	0
23	325	0	10000	1	1	0	1	0
22	326	0	10000	1	1	0	1	0
22	327	0	10000	1	1	0	1	0
23	328	0	10000	1	1	0	1	0
22	329	0	10000	1	1	0	1	0
20	330	0	10000	1	1	0	1	0
22	331	0	10000	1	1	0	1	0
23	332	0	10000	1	1	0	1	0
24	333	0	10000	1	1	0	1	0
24	334	0	10000	1	1	0	1	0
25	335	0	10000	1	1	0	1	0
26	336	0	10000	1	1	0	1	0
24	337	0	10000	1	1	0	1	0
24	338	0	10000	1	1	0	1	0
24	339	0	10000	1	1	0	1	0
26	340	0	10000	1	1	0	1	0
25	341	0	10000	1	1	0	1	0
24	342	0	10000	1	1	0	1	0
22	343	0	10000	1	1	0	1	0
24	344	0	10000	1	1	0	1	0
26	345	0	10000	1	1	0	1	0
27	346	0	10000	1	1	0	1	0
31	347	0	10000	1	1	0	1	0
33	348	0	10000	1	1	0	1	0
34	349	0	10000	1	1	0	1	0
35	350	0	10000	1	1	0	1	0
39	351	0	10000	1	1	0	1	0
40	352	0	10000	1	1	0	1	0
38	353	0	10000	1	1	0	1	0
38	354	0	10000	1	1	0	1	0
38	355	0	10000	1	1	0	1	0
37	356	0	10000	1	1	0	1	0
36	357	0	10000	1	1	0	1	0
37	358	0	10000	1	1	0	1	0
40	359	0	10000	1	1	0	1	0
45	360	0	10000	1	1	0	1	0
48	361	0	10000	1	1	0	1	0
51	362	0	10000	1	1	0	1	0
54	363	0	10000	1	1	0	1	0
53	364	0	10000	1	1	0	1	0
52	365	0	10000	1	1	0	1	0
52	366	0	10000	1	1	0	1	0
52	367	0	10000	1	1	0	1	0
53	368	0	10000	1	1	0	1	0
53	369	0	10000	1	1	0	1	0
49	370	0	10000	1	1	0	1	0
49	371	0	10000	1	1	0	1	0
49	372	0	10000	1	1	0	1	0
50	373	0	10000	1	1	0	1	0
50	374	0	10000	1	1	0	1	0
54	375	0	10000	1	1	0	1	0
56	376	0	10000	1	1	0	1	0
56	377	0	10000	1	1	0	1	0
54	378	0	10000	1	1	0	1	0
53	379	0	10000	1	1	0	1	0
54	380	0	10000	1	1	0	1	0
52	381	0	10000	1	1	0	1	0
51	382	0	10000	1	1	0	1	0
50	383	0	10000	1	1	0	1	0
49	384	0	10000	1	1	0	1	0
49	385	0	10000	1	1	0	1	0
50	386	0	10000	1	1	0	1	0
53	387	0	10000	1	1	0	1	0
53	388	0	10000	1	1	0	1	0
52	389	0	10000	1	1	0	1	0
51	390	0	10000	1	1	0	1	0
50	391	0	10000	1	1	0	1	0
50	392	0	10000	1	1	0	1	0
49	393	0	10000	1	1	0	1	0
48	394	0	10000	1	1	0	1	0
47	395	0	10000	1	1	0	1	0
46	396	0	10000	1	1	0	1	0
44	397	0	10000	1	1	0	1	0
44	398	0	10000	1	1	0	1	0
44	399	0	10000	1	1	0	1	0
44	400	0	10000	1	1	0	1	0
42	401	0	10000	1	1	0	1	0
41	402	0	10000	1	1	0	1	0
39	403	0	10000	1	1	0	1	0
40	404	0	10000	1	1	0	1	0
42	405	0	10000	1	1	0	1	0
44	406	0	10000	1	1	0	1	0
46	407	0	10000	1	1	0	1	0
44	408	0	10000	1	1	0	1	0
44	409	0	10000	1	1	0	1	0
41	410	0	10000	1	1	0	1	0
40	411	0	10000	1	1	0	1	0
38	412	0	10000	1	1	0	1	0
37	413	0	10000	1	1	0	1	0
35	414	0	10000	1	1	0	1	0
34	415	0	10000	1	1	0	1	0
37	416	0	10000	1	1	0	1	0
35	417	0	10000	1	1	0	1	0
34	418	0	10000	1	1	0	1	0
33	419	0	10000	1	1	0	1	0
35	420	0	10000	1	1	0	1	0
36	421	0	10000	1	1	0	1	0
37	422	0	10000	1	1	0	1	0
38	423	0	10000	1	1	0	1	0
37	424	0	10000	1	1	0	1	0
36	425	0	10000	1	1	0	1	0
38	426	0	10000	1	1	0	1	0
38	427	0	10000	1	1	0	1	0
38	428	0	10000	1	1	0	1	0
36	429	0	10000	1	1	0	1	0
34	430	0	10000	1	1	0	1	0
32	431	0	10000	1	1	0	1	0
32	432	0	10000	1	1	0	1	0
32	433	0	10000	1	1	0	1	0
31	434	0	10000	1	1	0	1	0
32	435	0	10000	1	1	0	1	0
34	436	0	10000	1	1	0	1	0
33	437	0	10000	1	1	0	1	0
32	438	0	10000	1	1	0	1	0
31	439	0	10000	1	1	0	1	0
34	440	0	10000	1	1	0	1	0
35	441	0	10000	1	1	0	1	0
38	442	0	10000	1	1	0	1	0
39	443	0	10000	1	1	0	1	0
38	444	0	10000	1	1	0	1	0
39	445	0	10000	1	1	0	1	0
37	446	0	10000	1	1	0	1	0
40	447	0	10000	1	1	0	1	0
40	448	0	10000	1	1	0	1	0
40	449	0	10000	1	1	0	1	0
37	450	0	10000	1	1	0	1	0
36	451	0	10000	1	1	0	1	0
37	452	0	10000	1	1	0	1	0
37	453	0	10000	1	1	0	1	0
37	454	0	10000	1	1	0	1	0
35	455	0	10000	1	1	0	1	0
34	456	0	10000	1	1	0	1	0
33	457	0	10000	1	1	0	1	0
33	458	0	10000	1	1	0	1	0
34	459	0	10000	1	1	0	1	0
37	460	0	10000	1	1	0	1	0
34	461	0	10000	1	1	0	1	0
35	462	0	10000	1	1	0	1	0
35	463	0	10000	1	1	0	1	0
35	464	0	10000	1	1	0	1	0
36	465	0	10000	1	1	0	1	0
36	466	0	10000	1	1	0	1	0
37	467	0	10000	1	1	0	1	0
36	468	0	10000	1	1	0	1	0
35	469	0	10000	1	1	0	1	0
32	470	0	10000	1	1	0	1	0
31	471	0	10000	1	1	0	1	0
31	472	0	10000	1	1	0	1	0
30	473	0	10000	1	1	0	1	0
29	474	0	10000	1	1	0	1	0
30	475	0	10000	1	1	0	1	0
31	476	0	10000	1	1	0	1	0
31	477	0	10000	1	1	0	1	0
30	478	0	10000	1	1	0	1	0
29	479	0	10000	1	1	0	1	0
31	480	0	10000	1	1	0	1	0
30	481	0	10000	1	1	0	1	0
29	482	0	10000	1	1	0	1	0
29	483	0	10000	1	1	0	1	0
28	484	0	10000	1	1	0	1	0
27	485	0	10000	1	1	0	1	0
26	486	0	10000	1	1	0	1	0
26	487	0	10000	1	1	0	1	0
27	488	0	10000	1	1	0	1	0
29	489	0	10000	1	1	0	1	0
25	490	0	10000	1	1	0	1	0
26	491	0	10000	1	1	0	1	0
26	492	0	10000	1	1	0	1	0
26	493	0	10000	1	1	0	1	0
26	494	0	10000	1	1	0	1	0
25	495	0	10000	1	1	0	1	0
26	496	0	10000	1	1	0	1	0
25	497	0	10000	1	1	0	1	0
24	498	0	10000	1	1	0	1	0
23	499	0	10000	1	1	0	1	0
26	500	0	10000	1	1	0	1	0
27	544	0	10000	1	1	0	1	1
26	545	0	10000	1	1	0	1	1
26	546	0	10000	1	1	0	1	1
27	547	0	10000	1	1	0	1	1
27	548	0	10000	1	1	0	1	1
27	549	0	10000	1	1	0	1	1
26	550	0	10000	1	1	0	1	1
27	551	0	10000	1	1	0	1	1
26	552	0	10000	1	1	0	1	1
23	553	0	10000	1	1	0	1	1
24	554	0	10000	1	1	0	1	1
23	555	0	10000	1	1	0	1	1
23	556	0	10000	1	1	0	1	1
26	557	0	10000	1	1	0	1	1
27	558	0	10000	1	1	0	1	1
27	559	0	10000	1	1	0	1	1
28	560	0	10000	1	1	0	1	1
27	561	0	10000	1	1	0	1	1
29	562	0	10000	1	1	0	1	1
32	563	0	10000	1	1	0	1	1
32	564	0	10000	1	1	0	1	1
31	565	0	10000	1	1	0	1	1
30	566	0	10000	1	1	0	1	1
29	567	0	10000	1	1	0	1	1
29	568	0	10000	1	1	0	1	1
29	569	0	10000	1	1	0	1	1
32	570	0	10000	1	1	0	1	1
35	571	0	10000	1	1	0	1	1
38	572	0	10000	1	1	0	1	1
42	573	0	10000	1	1	0	1	1
48	574	0	10000	1	1	0	1	1
51	575	0	10000	1	1	0	1	1
53	576	0	10000	1	1	0	1	1
52	577	0	10000	1	1	0	1	1
53	578	0	10000	1	1	0	1	1
52	579	0	10000	1	1	0	1	1
49	580	0	10000	1	1	0	1	1
49	581	0	10000	1	1	0	1	1
47	582	0	10000	1	1	0	1	1
52	583	0	10000	1	1	0	1	1
54	584	0	10000	1	1	0	1	1
56	585	0	10000	1	1	0	1	1
59	586	0	10000	1	1	0	1	1
66	587	0	10000	1	1	0	1	1
72	551	0	10000	1	1	0	1	1
74	552	0	10000	1	1	0	1	1
71	553	0	10000	1	1	0	1	1
70	554	0	10000	1	1	0	1	1
69	555	0	10000	1	1	0	1	1
65	556	0	10000	1	1	0	1	1
67	557	0	10000	1	1	0	1	1
72	558	0	10000	1	1	0	1	1
74	553	0	10000	1	1	0	1	0
74	554	0	10000	1	1	0	1	0
74	555	0	10000	1	1	0	1	0
71	556	0	10000	1	1	0	1	0
68	557	0	10000	1	1	0	1	0
65	558	0	10000	1	1	0	1	0
65	559	0	10000	1	1	0	1	0
67	560	0	10000	1	1	0	1	0
65	561	0	10000	1	1	0	1	0
65	562	0	10000	1	1	0	1	0
62	563	0	10000	1	1	0	1	0
60	564	0	10000	1	1	0	1	0
58	565	0	10000	1	1	0	1	0
56	566	0	10000	1	1	0	1	0
56	567	0	10000	1	1	0	1	0
59	568	0	10000	1	1	0	1	0
58	569	0	10000	1	1	0	1	0
56	570	0	10000	1	1	0	1	0
57	571	0	10000	1	1	0	1	0
56	572	0	10000	1	1	0	1	0
54	573	0	10000	1	1	0	1	0
54	574	0	10000	1	1	0	1	0
55	575	0	10000	1	1	0	1	0
56	576	0	10000	1	1	0	1	0
57	577	0	10000	1	1	0	1	0
59	578	0	10000	1	1	0	1	0
59	579	0	10000	1	1	0	1	0
61	580	0	10000	1	1	0	1	0
60	581	0	10000	1	1	0	1	0
58	582	0	10000	1	1	0	1	0
56	583	0	10000	1	1	0	1	0
56	584	0	10000	1	1	0	1	0
58	585	0	10000	1	1	0	1	0
60	586	0	10000	1	1	0	1	0
62	587	0	10000	1	1	0	1	0
65	588	0	10000	1	1	0	1	0
68	589	0	10000	1	1	0	1	0
67	590	0	10000	1	1	0	1	0
67	591	0	10000	1	1	0	1	0
64	592	0	10000	1	1	0	1	0
62	593	0	10000	1	1	0	1	0
60	594	0	10000	1	1	0	1	0
57	595	0	10000	1	1	0	1	0
57	596	0	10000	1	1	0	1	0
57	597	0	10000	1	1	0	1	0
57	598	0	10000	1	1	0	1	0
60	599	0	10000	1	1	0	1	0
61	600	0	10000	1	1	0	1	0
59	601	0	10000	1	1	0	1	0
58	602	0	10000	1	1	0	1	0
55	603	0	10000	1	1	0	1	0
56	604	0	10000	1	1	0	1	0
54	605	0	10000	1	1	0	1	0
52	606	0	10000	1	1	0	1	0
50	607	0	10000	1	1	0	1	0
50	608	0	10000	1	1	0	1	0
49	609	0	10000	1	1	0	1	0
47	610	0	10000	1	1	0	1	0
46	611	0	10000	1	1	0	1	0
44	612	0	10000	1	1	0	1	0
44	613	0	10000	1	1	0	1	0
42	614	0	10000	1	1	0	1	0
41	615	0	10000	1	1	0	1	0
40	616	0	10000	1	1	0	1	0
39	617	0	10000	1	1	0	1	0
38	618	0	10000	1	1	0	1	0
37	619	0	10000	1	1	0	1	0
40	620	0	10000	1	1	0	1	0
38	621	0	10000	1	1	0	1	0
36	622	0	10000	1	1	0	1	0
35	623	0	10000	1	1	0	1	0
34	624	0	10000	1	1	0	1	0
35	625	0	10000	1	1	0	1	0
33	626	0	10000	1	1	0	1	0
34	627	0	10000	1	1	0	1	0
35	628	0	10000	1	1	0	1	0
37	629	0	10000	1	1	0	1	0
36	630	0	10000	1	1	0	1	0
37	631	0	10000	1	1	0	1	0
39	632	0	10000	1	1	0	1	0
39	633	0	10000	1	1	0	1	0
43	634	0	10000	1	1	0	1	0
52	635	0	10000	1	1	0	1	0
64	636	0	10000	1	1	0	1	0
74	637	0	10000	1	1	0	1	0
81	638	0	10000	1	1	0	1	0
84	639	0	10000	1	1	0	1	0
88	640	0	10000	1	1	0	1	0
91	641	0	10000	1	1	0	1	0
90	642	0	10000	1	1	0	1	0
91	643	0	10000	1	1	0	1	0
108	644	0	10000	1	1	0	1	0
112	645	0	10000	1	1	0	1	0
109	646	0	10000	1	1	0	1	0
111	647	0	10000	1	1	0	1	0
144	648	0	10000	1	1	0	1	0
195	649	0	10000	1	1	0	1	0
202	650	0	10000	1	1	0	1	0
236	651	0	10000	1	1	0	1	0
286	652	0	10000	1	1	0	1	0
323	653	0	10000	1	1	0	1	0
323	654	0	10000	1	1	0	1	0
330	655	0	10000	1	1	0	1	0
347	656	0	10000	1	1	0	1	0
409	657	0	10000	1	1	0	1	0
412	658	0	10000	1	1	0	1	0
449	659	0	10000	1	1	0	1	0
483	660	0	10000	1	1	0	1	0
490	661	0	10000	1	1	0	1	0
484	662	0	10000	1	1	0	1	0
477	663	0	10000	1	1	0	1	0
464	664	0	10000	1	1	0	1	0
444	665	0	10000	1	1	0	1	0
438	666	0	10000	1	1	0	1	0
442	667	0	10000	1	1	0	1	0
438	668	0	10000	1	1	0	1	0
427	669	0	10000	1	1	0	1	0
409	670	0	10000	1	1	0	1	0
396	671	0	10000	1	1	0	1	0
390	672	0	10000	1	1	0	1	0
391	673	0	10000	1	1	0	1	0
392	674	0	10000	1	1	0	1	0
396	675	0	10000	1	1	0	1	0
389	676	0	10000	1	1	0	1	0
373	677	0	10000	1	1	0	1	0
357	678	0	10000	1	1	0	1	0
344	679	0	10000	1	1	0	1	0
332	680	0	10000	1	1	0	1	0
321	681	0	10000	1	1	0	1	0
309	682	0	10000	1	1	0	1	0
295	683	0	10000	1	1	0	1	0
287	684	0	10000	1	1	0	1	0
275	685	0	10000	1	1	0	1	0
264	686	0	10000	1	1	0	1	0
255	687	0	10000	1	1	0	1	0
244	688	0	10000	1	1	0	1	0
233	689	0	10000	1	1	0	1	0
221	690	0	10000	1	1	0	1	0
212	691	0	10000	1	1	0	1	0
204	692	0	10000	1	1	0	1	0
198	693	0	10000	1	1	0	1	0
191	694	0	10000	1	1	0	1	0
184	695	0	10000	1	1	0	1	0
176	696	0	10000	1	1	0	1	0
169	697	0	10000	1	1	0	1	0
163	698	0	10000	1	1	0	1	0
158	699	0	10000	1	1	0	1	0
155	700	0	10000	1	1	0	1	0
153	701	0	10000	1	1	0	1	0
150	702	0	10000	1	1	0	1	0
149	703	0	10000	1	1	0	1	0
146	704	0	10000	1	1	0	1	0
144	705	0	10000	1	1	0	1	0
141	706	0	10000	1	1	0	1	0
140	707	0	10000	1	1	0	1	0
140	708	0	10000	1	1	0	1	0
140	709	0	10000	1	1	0	1	0
136	710	0	10000	1	1	0	1	0
137	711	0	10000	1	1	0	1	0
134	712	0	10000	1	1	0	1	0
129	713	0	10000	1	1	0	1	0
123	714	0	10000	1	1	0	1	0
119	715	0	10000	1	1	0	1	0
116	716	0	10000	1	1	0	1	0
110	717	0	10000	1	1	0	1	0
106	718	0	10000	1	1	0	1	0
101	719	0	10000	1	1	0	1	0
99	720	0	10000	1	1	0	1	0
96	721	0	10000	1	1	0	1	0
94	722	0	10000	1	1	0	1	0
91	723	0	10000	1	1	0	1	0
88	724	0	10000	1	1	0	1	0
84	725	0	10000	1	1	0	1	0
82	726	0	10000	1	1	0	1	0
80	727	0	10000	1	1	0	1	0
78	728	0	10000	1	1	0	1	0
76	729	0	10000	1	1	0	1	0
71	730	0	10000	1	1	0	1	0
70	731	0	10000	1	1	0	1	0
68	732	0	10000	1	1	0	1	0
67	733	0	10000	1	1	0	1	0
65	734	0	10000	1	1	0	1	0
65	735	0	10000	1	1	0	1	0
63	736	0	10000	1	1	0	1	0
60	737	0	10000	1	1	0	1	0
59	738	0	10000	1	1	0	1	0
57	739	0	10000	1	1	0	1	0
58	740	0	10000	1	1	0	1	0
57	741	0	10000	1	1	0	1	0
55	742	0	10000	1	1	0	1	0
54	743	0	10000	1	1	0	1	0
52	744	0	10000	1	1	0	1	0
52	745	0	10000	1	1	0	1	0
54	746	0	10000	1	1	0	1	0
56	747	0	10000	1	1	0	1	0
55	748	0	10000	1	1	0	1	0
54	749	0	10000	1	1	0	1	0
50	750	0	10000	1	1	0	1	0
50	751	0	10000	1	1	0	1	0
51	752	0	10000	1	1	0	1	0
49	753	0	10000	1	1	0	1	0
49	754	0	10000	1	1	0	1	0
49	755	0	10000	1	1	0	1	0
50	756	0	10000	1	1	0	1	0
48	757	0	10000	1	1	0	1	0
46	758	0	10000	1	1	0	1	0
44	759	0	10000	1	1	0	1	0
45	760	0	10000	1	1	0	1	0
44	761	0	10000	1	1	0	1	0
45	762	0	10000	1	1	0	1	0
43	763	0	10000	1	1	0	1	0
43	764	0	10000	1	1	0	1	0
43	765	0	10000	1	1	0	1	0
42	766	0	10000	1	1	0	1	0
42	767	0	10000	1	1	0	1	0
41	768	0	10000	1	1	0	1	0
40	769	0	10000	1	1	0	1	0
36	770	0	10000	1	1	0	1	0
37	771	0	10000	1	1	0	1	0
37	772	0	10000	1	1	0	1	0
38	773	0	10000	1	1	0	1	0
40	774	0	10000	1	1	0	1	0
44	775	0	10000	1	1	0	1	0
48	776	0	10000	1	1	0	1	0
48	777	0	10000	1	1	0	1	0
48	778	0	10000	1	1	0	1	0
47	779	0	10000	1	1	0	1	0
49	780	0	10000	1	1	0	1	0
50	781	0	10000	1	1	0	1	0
52	782	0	10000	1	1	0	1	0
50	783	0	10000	1	1	0	1	0
49	784	0	10000	1	1	0	1	0
47	785	0	10000	1	1	0	1	0
47	786	0	10000	1	1	0	1	0
47	787	0	10000	1	1	0	1	0
47	788	0	10000	1	1	0	1	0
47	789	0	10000	1	1	0	1	0
43	790	0	10000	1	1	0	1	0
42	791	0	10000	1	1	0	1	0
41	792	0	10000	1	1	0	1	0
40	793	0	10000	1	1	0	1	0
39	794	0	10000	1	1	0	1	0
38	795	0	10000	1	1	0	1	0
39	796	0	10000	1	1	0	1	0
37	797	0	10000	1	1	0	1	0
37	798	0	10000	1	1	0	1	0
41	799	0	10000	1	1	0	1	0
43	800	0	10000	1	1	0	1	0
43	801	0	10000	1	1	0	1	0
41	802	0	10000	1	1	0	1	0
42	803	0	10000	1	1	0	1	0
43	804	0	10000	1	1	0	1	0
41	805	0	10000	1	1	0	1	0
42	806	0	10000	1	1	0	1	0
41	807	0	10000	1	1	0	1	0
40	808	0	10000	1	1	0	1	0
40	809	0	10000	1	1	0	1	0
37	810	0	10000	1	1	0	1	0
36	811	0	10000	1	1	0	1	0
35	812	0	10000	1	1	0	1	0
36	813	0	10000	1	1	0	1	0
39	814	0	10000	1	1	0	1	0
44	815	0	10000	1	1	0	1	0
53	816	0	10000	1	1	0	1	0
58	817	0	10000	1	1	0	1	0
63	818	0	10000	1	1	0	1	0
71	819	0	10000	1	1	0	1	0
80	820	0	10000	1	1	0	1	0
83	821	0	10000	1	1	0	1	0
85	822	0	10000	1	1	0	1	0
86	823	0	10000	1	1	0	1	0
87	824	0	10000	1	1	0	1	0
89	825	0	10000	1	1	0	1	0
95	826	0	10000	1	1	0	1	0
101	827	0	10000	1	1	0	1	0
104	828	0	10000	1	1	0	1	0
107	829	0	10000	1	1	0	1	0
108	830	0	10000	1	1	0	1	0
113	831	0	10000	1	1	0	1	0
114	832	0	10000	1	1	0	1	0
110	833	0	10000	1	1	0	1	0
107	834	0	10000	1	1	0	1	0
105	835	0	10000	1	1	0	1	0
103	836	0	10000	1	1	0	1	0
102	837	0	10000	1	1	0	1	0
102	838	0	10000	1	1	0	1	0
103	839	0	10000	1	1	0	1	0
104	840	0	10000	1	1	0	1	0
104	841	0	10000	1	1	0	1	0
104	842	0	10000	1	1	0	1	0
103	843	0	10000	1	1	0	1	0
103	844	0	10000	1	1	0	1	0
106	845	0	10000	1	1	0	1	0
107	846	0	10000	1	1	0	1	0
106	847	0	10000	1	1	0	1	0
104	848	0	10000	1	1	0	1	0
102	849	0	10000	1	1	0	1	0
98	850	0	10000	1	1	0	1	0
98	851	0	10000	1	1	0	1	0
99	852	0	10000	1	1	0	1	0
100	853	0	10000	1	1	0	1	0
100	854	0	10000	1	1	0	1	0
101	855	0	10000	1	1	0	1	0
104	856	0	10000	1	1	0	1	0
104	857	0	10000	1	1	0	1	0
103	858	0	10000	1	1	0	1	0
102	859	0	10000	1	1	0	1	0
105	860	0	10000	1	1	0	1	0
106	861	0	10000	1	1	0	1	0
107	862	0	10000	1	1	0	1	0
107	863	0	10000	1	1	0	1	0
108	864	0	10000	1	1	0	1	0
109	865	0	10000	1	1	0	1	0
109	866	0	10000	1	1	0	1	0
109	867	0	10000	1	1	0	1	0
106	868	0	10000	1	1	0	1	0
103	869	0	10000	1	1	0	1	0
98	870	0	10000	1	1	0	1	0
96	871	0	10000	1	1	0	1	0
94	872	0	10000	1	1	0	1	0
95	873	0	10000	1	1	0	1	0
95	874	0	10000	1	1	0	1	0
94	875	0	10000	1	1	0	1	0
96	876	0	10000	1	1	0	1	0
95	877	0	10000	1	1	0	1	0
94	878	0	10000	1	1	0	1	0
92	879	0	10000	1	1	0	1	0
93	880	0	10000	1	1	0	1	0
90	881	0	10000	1	1	0	1	0
87	882	0	10000	1	1	0	1	0
83	883	0	10000	1	1	0	1	0
82	884	0	10000	1	1	0	1	0
78	885	0	10000	1	1	0	1	0
75	886	0	10000	1	1	0	1	0
75	887	0	10000	1	1	0	1	0
74	888	0	10000	1	1	0	1	0
72	889	0	10000	1	1	0	1	0
69	890	0	10000	1	1	0	1	0
69	891	0	10000	1	1	0	1	0
66	892	0	10000	1	1	0	1	0
64	893	0	10000	1	1	0	1	0
63	894	0	10000	1	1	0	1	0
61	895	0	10000	1	1	0	1	0
61	896	0	10000	1	1	0	1	0
62	897	0	10000	1	1	0	1	0
62	898	0	10000	1	1	0	1	0
61	899	0	10000	1	1	0	1	0
63	900	0	10000	1	1	0	1	0
60	901	0	10000	1	1	0	1	0
59	902	0	10000	1	1	0	1	0
60	903	0	10000	1	1	0	1	0
58	904	0	10000	1	1	0	1	0
58	905	0	10000	1	1	0	1	0
59	906	0	10000	1	1	0	1	0
59	907	0	10000	1	1	0	1	0
58	908	0	10000	1	1	0	1	0
57	909	0	10000	1	1	0	1	0
53	910	0	10000	1	1	0	1	0
52	911	0	10000	1	1	0	1	0
51	912	0	10000	1	1	0	1	0
50	913	0	10000	1	1	0	1	0
49	914	0	10000	1	1	0	1	0
49	915	0	10000	1	1	0	1	0
48	916	0	10000	1	1	0	1	0
46	917	0	10000	1	1	0	1	0
46	918	0	10000	1	1	0	1	0
46	919	0	10000	1	1	0	1	0
47	920	0	10000	1	1	0	1	0
48	921	0	10000	1	1	0	1	0
54	922	0	10000	1	1	0	1	0
58	923	0	10000	1	1	0	1	0
58	924	0	10000	1	1	0	1	0
61	925	0	10000	1	1	0	1	0
66	926	0	10000	1	1	0	1	0
69	927	0	10000	1	1	0	1	0
68	928	0	10000	1	1	0	1	0
68	929	0	10000	1	1	0	1	0
65	930	0	10000	1	1	0	1	0
65	931	0	10000	1	1	0	1	0
63	932	0	10000	1	1	0	1	0
61	933	0	10000	1	1	0	1	0
59	934	0	10000	1	1	0	1	0
58	935	0	10000	1	1	0	1	0
57	936	0	10000	1	1	0	1	0
55	937	0	10000	1	1	0	1	0
53	938	0	10000	1	1	0	1	0
51	939	0	10000	1	1	0	1	0
55	940	0	10000	1	1	0	1	0
54	941	0	10000	1	1	0	1	0
53	942	0	10000	1	1	0	1	0
52	943	0	10000	1	1	0	1	0
52	944	0	10000	1	1	0	1	0
53	945	0	10000	1	1	0	1	0
55	946	0	10000	1	1	0	1	0
55	947	0	10000	1	1	0	1	0
56	948	0	10000	1	1	0	1	0
53	949	0	10000	1	1	0	1	0
50	950	0	10000	1	1	0	1	0
49	951	0	10000	1	1	0	1	0
49	952	0	10000	1	1	0	1	0
48	953	0	10000	1	1	0	1	0
47	954	0	10000	1	1	0	1	0
45	955	0	10000	1	1	0	1	0
44	956	0	10000	1	1	0	1	0
43	957	0	10000	1	1	0	1	0
42	958	0	10000	1	1	0	1	0
41	959	0	10000	1	1	0	1	0
42	960	0	10000	1	1	0	1	0
42	961	0	10000	1	1	0	1	0
42	962	0	10000	1	1	0	1	0
41	963	0	10000	1	1	0	1	0
40	964	0	10000	1	1	0	1	0
38	965	0	10000	1	1	0	1	0
37	966	0	10000	1	1	0	1	0
37	967	0	10000	1	1	0	1	0
37	968	0	10000	1	1	0	1	0
37	969	0	10000	1	1	0	1	0
34	970	0	10000	1	1	0	1	0
36	971	0	10000	1	1	0	1	0
38	972	0	10000	1	1	0	1	0
38	973	0	10000	1	1	0	1	0
37	974	0	10000	1	1	0	1	0
36	975	0	10000	1	1	0	1	0
36	976	0	10000	1	1	0	1	0
35	977	0	10000	1	1	0	1	0
35	978	0	10000	1	1	0	1	0
34	979	0	10000	1	1	0	1	0
36	980	0	10000	1	1	0	1	0
35	981	0	10000	1	1	0	1	0
37	982	0	10000	1	1	0	1	0
41	983	0	10000	1	1	0	1	0
42	984	0	10000	1	1	0	1	0
41	985	0	10000	1	1	0	1	0
43	986	0	10000	1	1	0	1	0
43	987	0	10000	1	1	0	1	0
43	988	0	10000	1	1	0	1	0
41	989	0	10000	1	1	0	1	0
38	990	0	10000	1	1	0	1	0
38	991	0	10000	1	1	0	1	0
39	992	0	10000	1	1	0	1	0
38	993	0	10000	1	1	0	1	0
37	994	0	10000	1	1	0	1	0
37	995	0	10000	1	1	0	1	0
36	996	0	10000	1	1	0	1	0
36	997	0	10000	1	1	0	1	0
35	998	0	10000	1	1	0	1	0
35	999	0	10000	1	1	0	1	0
38	1000	0	10000	1	1	0	1	0
101	1	10	10000	2	1	0	2	0
96	2	10	10000	2	1	0	2	0
92	3	10	10000	2	1	0	2	0
89	4	10	10000	2	1	0	2	0
87	5	10	10000	2	1	0	2	0
85	6	10	10000	2	1	0	2	0
83	7	10	10000	2	1	0	2	0
80	8	10	10000	2	1	0	2	0
77	9	10	10000	2	1	0	2	0
73	10	10	10000	2	1	0	2	0
70	11	10	10000	2	1	0	2	0
70	12	10	10000	2	1	0	2	0
69	13	10	10000	2	1	0	2	0
68	14	10	10000	2	1	0	2	0
69	15	10	10000	2	1	0	2	0
74	16	10	10000	2	1	0	2	0
79	17	10	10000	2	1	0	2	0
82	18	10	10000	2	1	0	2	0
80	19	10	10000	2	1	0	2	0
82	20	10	10000	2	1	0	2	0
81	21	10	10000	2	1	0	2	0
78	22	10	10000	2	1	0	2	0
77	23	10	10000	2	1	0	2	0
78	24	10	10000	2	1	0	2	0
75	25	10	10000	2	1	0	2	0
72	26	10	10000	2	1	0	2	0
70	27	10	10000	2	1	0	2	0
70	28	10	10000	2	1	0	2	0
70	29	10	10000	2	1	0	2	0
65	30	10	10000	2	1	0	2	0
63	31	10	10000	2	1	0	2	0
61	32	10	10000	2	1	0	2	0
59	33	10	10000	2	1	0	2	0
60	34	10	10000	2	1	0	2	0
62	35	10	10000	2	1	0	2	0
65	36	10	10000	2	1	0	2	0
63	37	10	10000	2	1	0	2	0
64	38	10	10000	2	1	0	2	0
67	39	10	10000	2	1	0	2	0
68	40	10	10000	2	1	0	2	0
66	41	10	10000	2	1	0	2	0
63	42	10	10000	2	1	0	2	0
61	43	10	10000	2	1	0	2	0
59	44	10	10000	2	1	0	2	0
57	45	10	10000	2	1	0	2	0
59	46	10	10000	2	1	0	2	0
56	47	10	10000	2	1	0	2	0
55	48	10	10000	2	1	0	2	0
55	49	10	10000	2	1	0	2	0
55	50	10	10000	2	1	0	2	0
70	51	10	10000	2	1	0	2	0
81	52	10	10000	2	1	0	2	0
86	53	10	10000	2	1	0	2	0
97	54	10	10000	2	1	0	2	0
103	55	10	10000	2	1	0	2	0
103	56	10	10000	2	1	0	2	0
100	57	10	10000	2	1	0	2	0
97	58	10	10000	2	1	0	2	0
93	59	10	10000	2	1	0	2	0
93	60	10	10000	2	1	0	2	0
90	61	10	10000	2	1	0	2	0
86	62	10	10000	2	1	0	2	0
83	63	10	10000	2	1	0	2	0
81	64	10	10000	2	1	0	2	0
78	65	10	10000	2	1	0	2	0
76	66	10	10000	2	1	0	2	0
74	67	10	10000	2	1	0	2	0
76	68	10	10000	2	1	0	2	0
82	69	10	10000	2	1	0	2	0
81	70	10	10000	2	1	0	2	0
80	71	10	10000	2	1	0	2	0
80	72	10	10000	2	1	0	2	0
78	73	10	10000	2	1	0	2	0
75	74	10	10000	2	1	0	2	0
74	75	10	10000	2	1	0	2	0
79	76	10	10000	2	1	0	2	0
84	77	10	10000	2	1	0	2	0
87	78	10	10000	2	1	0	2	0
84	79	10	10000	2	1	0	2	0
88	80	10	10000	2	1	0	2	0
89	81	10	10000	2	1	0	2	0
88	82	10	10000	2	1	0	2	0
89	83	10	10000	2	1	0	2	0
93	84	10	10000	2	1	0	2	0
95	85	10	10000	2	1	0	2	0
94	86	10	10000	2	1	0	2	0
93	87	10	10000	2	1	0	2	0
91	88	10	10000	2	1	0	2	0
96	89	10	10000	2	1	0	2	0
96	90	10	10000	2	1	0	2	0
93	91	10	10000	2	1	0	2	0
90	92	10	10000	2	1	0	2	0
87	93	10	10000	2	1	0	2	0
85	94	10	10000	2	1	0	2	0
84	95	10	10000	2	1	0	2	0
81	96	10	10000	2	1	0	2	0
78	97	10	10000	2	1	0	2	0
76	98	10	10000	2	1	0	2	0
74	99	10	10000	2	1	0	2	0
75	100	10	10000	2	1	0	2	0
80	101	10	10000	2	1	0	2	0
91	102	10	10000	2	1	0	2	0
93	103	10	10000	2	1	0	2	0
91	104	10	10000	2	1	0	2	0
88	105	10	10000	2	1	0	2	0
88	106	10	10000	2	1	0	2	0
89	107	10	10000	2	1	0	2	0
91	108	10	10000	2	1	0	2	0
94	109	10	10000	2	1	0	2	0
92	110	10	10000	2	1	0	2	0
91	111	10	10000	2	1	0	2	0
92	112	10	10000	2	1	0	2	0
90	113	10	10000	2	1	0	2	0
88	114	10	10000	2	1	0	2	0
85	115	10	10000	2	1	0	2	0
81	116	10	10000	2	1	0	2	0
79	117	10	10000	2	1	0	2	0
76	118	10	10000	2	1	0	2	0
73	119	10	10000	2	1	0	2	0
78	120	10	10000	2	1	0	2	0
78	121	10	10000	2	1	0	2	0
76	122	10	10000	2	1	0	2	0
76	123	10	10000	2	1	0	2	0
75	124	10	10000	2	1	0	2	0
74	125	10	10000	2	1	0	2	0
74	126	10	10000	2	1	0	2	0
74	127	10	10000	2	1	0	2	0
77	128	10	10000	2	1	0	2	0
74	129	10	10000	2	1	0	2	0
74	130	10	10000	2	1	0	2	0
78	131	10	10000	2	1	0	2	0
79	132	10	10000	2	1	0	2	0
80	133	10	10000	2	1	0	2	0
88	134	10	10000	2	1	0	2	0
89	135	10	10000	2	1	0	2	0
92	136	10	10000	2	1	0	2	0
96	137	10	10000	2	1	0	2	0
95	138	10	10000	2	1	0	2	0
93	139	10	10000	2	1	0	2	0
91	140	10	10000	2	1	0	2	0
89	141	10	10000	2	1	0	2	0
85	142	10	10000	2	1	0	2	0
81	143	10	10000	2	1	0	2	0
79	144	10	10000	2	1	0	2	0
76	145	10	10000	2	1	0	2	0
74	146	10	10000	2	1	0	2	0
72	147	10	10000	2	1	0	2	0
69	148	10	10000	2	1	0	2	0
69	149	10	10000	2	1	0	2	0
66	150	10	10000	2	1	0	2	0
66	151	10	10000	2	1	0	2	0
64	152	10	10000	2	1	0	2	0
63	153	10	10000	2	1	0	2	0
63	154	10	10000	2	1	0	2	0
67	155	10	10000	2	1	0	2	0
67	156	10	10000	2	1	0	2	0
65	157	10	10000	2	1	0	2	0
66	158	10	10000	2	1	0	2	0
63	159	10	10000	2	1	0	2	0
64	160	10	10000	2	1	0	2	0
61	161	10	10000	2	1	0	2	0
58	162	10	10000	2	1	0	2	0
57	163	10	10000	2	1	0	2	0
63	164	10	10000	2	1	0	2	0
79	165	10	10000	2	1	0	2	0
87	166	10	10000	2	1	0	2	0
89	167	10	10000	2	1	0	2	0
102	168	10	10000	2	1	0	2	0
112	169	10	10000	2	1	0	2	0
113	170	10	10000	2	1	0	2	0
116	171	10	10000	2	1	0	2	0
118	172	10	10000	2	1	0	2	0
122	173	10	10000	2	1	0	2	0
120	174	10	10000	2	1	0	2	0
118	175	10	10000	2	1	0	2	0
118	176	10	10000	2	1	0	2	0
121	177	10	10000	2	1	0	2	0
122	178	10	10000	2	1	0	2	0
118	179	10	10000	2	1	0	2	0
117	180	10	10000	2	1	0	2	0
113	181	10	10000	2	1	0	2	0
120	182	10	10000	2	1	0	2	0
128	183	10	10000	2	1	0	2	0
126	184	10	10000	2	1	0	2	0
124	185	10	10000	2	1	0	2	0
125	186	10	10000	2	1	0	2	0
124	187	10	10000	2	1	0	2	0
122	188	10	10000	2	1	0	2	0
128	189	10	10000	2	1	0	2	0
129	190	10	10000	2	1	0	2	0
129	191	10	10000	2	1	0	2	0
127	192	10	10000	2	1	0	2	0
122	193	10	10000	2	1	0	2	0
119	194	10	10000	2	1	0	2	0
116	195	10	10000	2	1	0	2	0
117	196	10	10000	2	1	0	2	0
117	197	10	10000	2	1	0	2	0
115	198	10	10000	2	1	0	2	0
115	199	10	10000	2	1	0	2	0
116	200	10	10000	2	1	0	2	0
116	201	10	10000	2	1	0	2	0
114	202	10	10000	2	1	0	2	0
115	203	10	10000	2	1	0	2	0
116	204	10	10000	2	1	0	2	0
120	205	10	10000	2	1	0	2	0
125	206	10	10000	2	1	0	2	0
133	207	10	10000	2	1	0	2	0
149	208	10	10000	2	1	0	2	0
162	209	10	10000	2	1	0	2	0
164	210	10	10000	2	1	0	2	0
164	211	10	10000	2	1	0	2	0
161	212	10	10000	2	1	0	2	0
156	213	10	10000	2	1	0	2	0
155	214	10	10000	2	1	0	2	0
163	215	10	10000	2	1	0	2	0
165	216	10	10000	2	1	0	2	0
161	217	10	10000	2	1	0	2	0
157	218	10	10000	2	1	0	2	0
151	219	10	10000	2	1	0	2	0
146	220	10	10000	2	1	0	2	0
140	221	10	10000	2	1	0	2	0
135	222	10	10000	2	1	0	2	0
129	223	10	10000	2	1	0	2	0
132	224	10	10000	2	1	0	2	0
128	225	10	10000	2	1	0	2	0
127	226	10	10000	2	1	0	2	0
130	227	10	10000	2	1	0	2	0
131	228	10	10000	2	1	0	2	0
129	229	10	10000	2	1	0	2	0
124	230	10	10000	2	1	0	2	0
121	231	10	10000	2	1	0	2	0
118	232	10	10000	2	1	0	2	0
115	233	10	10000	2	1	0	2	0
113	234	10	10000	2	1	0	2	0
111	235	10	10000	2	1	0	2	0
110	236	10	10000	2	1	0	2	0
105	237	10	10000	2	1	0	2	0
100	238	10	10000	2	1	0	2	0
96	239	10	10000	2	1	0	2	0
97	240	10	10000	2	1	0	2	0
97	241	10	10000	2	1	0	2	0
97	242	10	10000	2	1	0	2	0
95	243	10	10000	2	1	0	2	0
95	244	10	10000	2	1	0	2	0
99	245	10	10000	2	1	0	2	0
103	246	10	10000	2	1	0	2	0
105	247	10	10000	2	1	0	2	0
108	248	10	10000	2	1	0	2	0
111	249	10	10000	2	1	0	2	0
109	250	10	10000	2	1	0	2	0
108	251	10	10000	2	1	0	2	0
106	252	10	10000	2	1	0	2	0
103	253	10	10000	2	1	0	2	0
100	254	10	10000	2	1	0	2	0
101	255	10	10000	2	1	0	2	0
107	256	10	10000	2	1	0	2	0
112	257	10	10000	2	1	0	2	0
111	258	10	10000	2	1	0	2	0
106	259	10	10000	2	1	0	2	0
105	260	10	10000	2	1	0	2	0
105	261	10	10000	2	1	0	2	0
106	262	10	10000	2	1	0	2	0
106	263	10	10000	2	1	0	2	0
103	264	10	10000	2	1	0	2	0
105	265	10	10000	2	1	0	2	0
105	266	10	10000	2	1	0	2	0
105	267	10	10000	2	1	0	2	0
104	268	10	10000	2	1	0	2	0
103	269	10	10000	2	1	0	2	0
101	270	10	10000	2	1	0	2	0
102	271	10	10000	2	1	0	2	0
100	272	10	10000	2	1	0	2	0
98	273	10	10000	2	1	0	2	0
97	274	10	10000	2	1	0	2	0
103	275	10	10000	2	1	0	2	0
105	276	10	10000	2	1	0	2	0
104	277	10	10000	2	1	0	2	0
110	278	10	10000	2	1	0	2	0
115	279	10	10000	2	1	0	2	0
121	280	10	10000	2	1	0	2	0
123	281	10	10000	2	1	0	2	0
124	282	10	10000	2	1	0	2	0
125	283	10	10000	2	1	0	2	0
121	284	10	10000	2	1	0	2	0
116	285	10	10000	2	1	0	2	0
111	286	10	10000	2	1	0	2	0
108	287	10	10000	2	1	0	2	0
106	288	10	10000	2	1	0	2	0
103	289	10	10000	2	1	0	2	0
99	290	10	10000	2	1	0	2	0
98	291	10	10000	2	1	0	2	0
97	292	10	10000	2	1	0	2	0
95	293	10	10000	2	1	0	2	0
96	294	10	10000	2	1	0	2	0
92	295	10	10000	2	1	0	2	0
90	296	10	10000	2	1	0	2	0
85	297	10	10000	2	1	0	2	0
81	298	10	10000	2	1	0	2	0
78	299	10	10000	2	1	0	2	0
78	300	10	10000	2	1	0	2	0
79	301	10	10000	2	1	0	2	0
82	302	10	10000	2	1	0	2	0
84	303	10	10000	2	1	0	2	0
80	304	10	10000	2	1	0	2	0
80	305	10	10000	2	1	0	2	0
83	306	10	10000	2	1	0	2	0
81	307	10	10000	2	1	0	2	0
80	308	10	10000	2	1	0	2	0
78	309	10	10000	2	1	0	2	0
74	310	10	10000	2	1	0	2	0
72	311	10	10000	2	1	0	2	0
70	312	10	10000	2	1	0	2	0
70	313	10	10000	2	1	0	2	0
74	314	10	10000	2	1	0	2	0
76	315	10	10000	2	1	0	2	0
77	316	10	10000	2	1	0	2	0
75	317	10	10000	2	1	0	2	0
71	318	10	10000	2	1	0	2	0
70	319	10	10000	2	1	0	2	0
70	320	10	10000	2	1	0	2	0
68	321	10	10000	2	1	0	2	0
65	322	10	10000	2	1	0	2	0
63	323	10	10000	2	1	0	2	0
62	324	10	10000	2	1	0	2	0
59	325	10	10000	2	1	0	2	0
57	326	10	10000	2	1	0	2	0
58	327	10	10000	2	1	0	2	0
59	328	10	10000	2	1	0	2	0
59	329	10	10000	2	1	0	2	0
56	330	10	10000	2	1	0	2	0
56	331	10	10000	2	1	0	2	0
55	332	10	10000	2	1	0	2	0
55	333	10	10000	2	1	0	2	0
56	334	10	10000	2	1	0	2	0
56	335	10	10000	2	1	0	2	0
54	336	10	10000	2	1	0	2	0
52	337	10	10000	2	1	0	2	0
51	338	10	10000	2	1	0	2	0
52	339	10	10000	2	1	0	2	0
58	340	10	10000	2	1	0	2	0
59	341	10	10000	2	1	0	2	0
57	342	10	10000	2	1	0	2	0
55	343	10	10000	2	1	0	2	0
56	344	10	10000	2	1	0	2	0
57	345	10	10000	2	1	0	2	0
59	346	10	10000	2	1	0	2	0
60	347	10	10000	2	1	0	2	0
59	348	10	10000	2	1	0	2	0
56	349	10	10000	2	1	0	2	0
55	350	10	10000	2	1	0	2	0
54	351	10	10000	2	1	0	2	0
54	352	10	10000	2	1	0	2	0
56	353	10	10000	2	1	0	2	0
59	354	10	10000	2	1	0	2	0
64	355	10	10000	2	1	0	2	0
70	356	10	10000	2	1	0	2	0
75	357	10	10000	2	1	0	2	0
81	358	10	10000	2	1	0	2	0
84	359	10	10000	2	1	0	2	0
90	360	10	10000	2	1	0	2	0
92	361	10	10000	2	1	0	2	0
87	362	10	10000	2	1	0	2	0
83	363	10	10000	2	1	0	2	0
82	364	10	10000	2	1	0	2	0
80	365	10	10000	2	1	0	2	0
81	366	10	10000	2	1	0	2	0
82	367	10	10000	2	1	0	2	0
83	368	10	10000	2	1	0	2	0
87	369	10	10000	2	1	0	2	0
89	370	10	10000	2	1	0	2	0
90	371	10	10000	2	1	0	2	0
88	372	10	10000	2	1	0	2	0
97	373	10	10000	2	1	0	2	0
107	374	10	10000	2	1	0	2	0
111	375	10	10000	2	1	0	2	0
121	376	10	10000	2	1	0	2	0
127	377	10	10000	2	1	0	2	0
126	378	10	10000	2	1	0	2	0
121	379	10	10000	2	1	0	2	0
123	380	10	10000	2	1	0	2	0
125	381	10	10000	2	1	0	2	0
125	382	10	10000	2	1	0	2	0
123	383	10	10000	2	1	0	2	0
121	384	10	10000	2	1	0	2	0
117	385	10	10000	2	1	0	2	0
113	386	10	10000	2	1	0	2	0
109	387	10	10000	2	1	0	2	0
105	388	10	10000	2	1	0	2	0
104	389	10	10000	2	1	0	2	0
103	390	10	10000	2	1	0	2	0
107	391	10	10000	2	1	0	2	0
111	392	10	10000	2	1	0	2	0
110	393	10	10000	2	1	0	2	0
106	394	10	10000	2	1	0	2	0
102	395	10	10000	2	1	0	2	0
101	396	10	10000	2	1	0	2	0
101	397	10	10000	2	1	0	2	0
100	398	10	10000	2	1	0	2	0
104	399	10	10000	2	1	0	2	0
115	400	10	10000	2	1	0	2	0
120	401	10	10000	2	1	0	2	0
122	402	10	10000	2	1	0	2	0
125	403	10	10000	2	1	0	2	0
128	404	10	10000	2	1	0	2	0
128	405	10	10000	2	1	0	2	0
128	406	10	10000	2	1	0	2	0
128	407	10	10000	2	1	0	2	0
126	408	10	10000	2	1	0	2	0
125	409	10	10000	2	1	0	2	0
121	410	10	10000	2	1	0	2	0
121	411	10	10000	2	1	0	2	0
122	412	10	10000	2	1	0	2	0
121	413	10	10000	2	1	0	2	0
122	414	10	10000	2	1	0	2	0
126	415	10	10000	2	1	0	2	0
127	416	10	10000	2	1	0	2	0
127	417	10	10000	2	1	0	2	0
129	418	10	10000	2	1	0	2	0
132	419	10	10000	2	1	0	2	0
139	420	10	10000	2	1	0	2	0
143	421	10	10000	2	1	0	2	0
140	422	10	10000	2	1	0	2	0
134	423	10	10000	2	1	0	2	0
129	424	10	10000	2	1	0	2	0
125	425	10	10000	2	1	0	2	0
120	426	10	10000	2	1	0	2	0
115	427	10	10000	2	1	0	2	0
112	428	10	10000	2	1	0	2	0
110	429	10	10000	2	1	0	2	0
105	430	10	10000	2	1	0	2	0
104	431	10	10000	2	1	0	2	0
113	432	10	10000	2	1	0	2	0
116	433	10	10000	2	1	0	2	0
114	434	10	10000	2	1	0	2	0
117	435	10	10000	2	1	0	2	0
117	436	10	10000	2	1	0	2	0
116	437	10	10000	2	1	0	2	0
112	438	10	10000	2	1	0	2	0
107	439	10	10000	2	1	0	2	0
105	440	10	10000	2	1	0	2	0
104	441	10	10000	2	1	0	2	0
103	442	10	10000	2	1	0	2	0
105	443	10	10000	2	1	0	2	0
105	444	10	10000	2	1	0	2	0
102	445	10	10000	2	1	0	2	0
102	446	10	10000	2	1	0	2	0
102	447	10	10000	2	1	0	2	0
99	448	10	10000	2	1	0	2	0
95	449	10	10000	2	1	0	2	0
89	450	10	10000	2	1	0	2	0
86	451	10	10000	2	1	0	2	0
83	452	10	10000	2	1	0	2	0
80	453	10	10000	2	1	0	2	0
76	454	10	10000	2	1	0	2	0
73	455	10	10000	2	1	0	2	0
71	456	10	10000	2	1	0	2	0
67	457	10	10000	2	1	0	2	0
64	458	10	10000	2	1	0	2	0
60	459	10	10000	2	1	0	2	0
62	460	10	10000	2	1	0	2	0
60	461	10	10000	2	1	0	2	0
57	462	10	10000	2	1	0	2	0
56	463	10	10000	2	1	0	2	0
56	464	10	10000	2	1	0	2	0
56	465	10	10000	2	1	0	2	0
55	466	10	10000	2	1	0	2	0
56	467	10	10000	2	1	0	2	0
55	468	10	10000	2	1	0	2	0
56	469	10	10000	2	1	0	2	0
57	470	10	10000	2	1	0	2	0
58	471	10	10000	2	1	0	2	0
56	472	10	10000	2	1	0	2	0
56	473	10	10000	2	1	0	2	0
56	474	10	10000	2	1	0	2	0
57	475	10	10000	2	1	0	2	0
59	476	10	10000	2	1	0	2	0
63	477	10	10000	2	1	0	2	0
61	478	10	10000	2	1	0	2	0
63	479	10	10000	2	1	0	2	0
69	480	10	10000	2	1	0	2	0
69	481	10	10000	2	1	0	2	0
69	482	10	10000	2	1	0	2	0
74	483	10	10000	2	1	0	2	0
73	484	10	10000	2	1	0	2	0
82	485	10	10000	2	1	0	2	0
89	486	10	10000	2	1	0	2	0
94	487	10	10000	2	1	0	2	0
94	488	10	10000	2	1	0	2	0
95	489	10	10000	2	1	0	2	0
93	490	10	10000	2	1	0	2	0
90	491	10	10000	2	1	0	2	0
87	492	10	10000	2	1	0	2	0
84	493	10	10000	2	1	0	2	0
81	494	10	10000	2	1	0	2	0
79	495	10	10000	2	1	0	2	0
76	496	10	10000	2	1	0	2	0
72	497	10	10000	2	1	0	2	0
70	498	10	10000	2	1	0	2	0
66	499	10	10000	2	1	0	2	0
68	500	10	10000	2	1	0	2	0
69	501	10	10000	2	1	0	2	1
70	502	10	10000	2	1	0	2	1
69	503	10	10000	2	1	0	2	1
68	504	10	10000	2	1	0	2	1
67	505	10	10000	2	1	0	2	1
66	506	10	10000	2	1	0	2	1
67	507	10	10000	2	1	0	2	1
72	508	10	10000	2	1	0	2	1
76	509	10	10000	2	1	0	2	1
72	510	10	10000	2	1	0	2	1
74	511	10	10000	2	1	0	2	1
76	512	10	10000	2	1	0	2	1
78	513	10	10000	2	1	0	2	1
78	514	10	10000	2	1	0	2	1
76	515	10	10000	2	1	0	2	1
73	516	10	10000	2	1	0	2	1
70	517	10	10000	2	1	0	2	1
68	518	10	10000	2	1	0	2	1
72	519	10	10000	2	1	0	2	1
73	520	10	10000	2	1	0	2	1
72	521	10	10000	2	1	0	2	1
69	522	10	10000	2	1	0	2	1
68	523	10	10000	2	1	0	2	1
66	524	10	10000	2	1	0	2	1
65	525	10	10000	2	1	0	2	1
64	526	10	10000	2	1	0	2	1
65	527	10	10000	2	1	0	2	1
69	528	10	10000	2	1	0	2	1
72	529	10	10000	2	1	0	2	1
72	530	10	10000	2	1	0	2	1
72	531	10	10000	2	1	0	2	1
80	532	10	10000	2	1	0	2	1
82	533	10	10000	2	1	0	2	1
89	534	10	10000	2	1	0	2	1
94	535	10	10000	2	1	0	2	1
95	536	10	10000	2	1	0	2	1
92	537	10	10000	2	1	0	2	1
89	538	10	10000	2	1	0	2	1
85	539	10	10000	2	1	0	2	1
84	540	10	10000	2	1	0	2	1
81	541	10	10000	2	1	0	2	1
77	542	10	10000	2	1	0	2	1
74	543	10	10000	2	1	0	2	1
71	544	10	10000	2	1	0	2	1
69	545	10	10000	2	1	0	2	1
66	546	10	10000	2	1	0	2	1
64	547	10	10000	2	1	0	2	1
64	548	10	10000	2	1	0	2	1
65	549	10	10000	2	1	0	2	1
62	550	10	10000	2	1	0	2	1
64	551	10	10000	2	1	0	2	0
69	552	10	10000	2	1	0	2	0
68	553	10	10000	2	1	0	2	0
67	554	10	10000	2	1	0	2	0
68	555	10	10000	2	1	0	2	0
71	556	10	10000	2	1	0	2	0
72	557	10	10000	2	1	0	2	0
73	558	10	10000	2	1	0	2	0
70	559	10	10000	2	1	0	2	0
70	560	10	10000	2	1	0	2	0
70	561	10	10000	2	1	0	2	0
69	562	10	10000	2	1	0	2	0
67	563	10	10000	2	1	0	2	0
66	564	10	10000	2	1	0	2	0
67	565	10	10000	2	1	0	2	0
69	566	10	10000	2	1	0	2	0
74	567	10	10000	2	1	0	2	0
75	568	10	10000	2	1	0	2	0
73	569	10	10000	2	1	0	2	0
69	570	10	10000	2	1	0	2	0
71	571	10	10000	2	1	0	2	0
71	572	10	10000	2	1	0	2	0
70	573	10	10000	2	1	0	2	0
71	574	10	10000	2	1	0	2	0
70	575	10	10000	2	1	0	2	0
73	576	10	10000	2	1	0	2	0
72	577	10	10000	2	1	0	2	0
69	578	10	10000	2	1	0	2	0
66	579	10	10000	2	1	0	2	0
66	580	10	10000	2	1	0	2	0
64	581	10	10000	2	1	0	2	0
62	582	10	10000	2	1	0	2	0
59	583	10	10000	2	1	0	2	0
59	584	10	10000	2	1	0	2	0
60	585	10	10000	2	1	0	2	0
58	586	10	10000	2	1	0	2	0
56	587	10	10000	2	1	0	2	0
57	588	10	10000	2	1	0	2	0
56	589	10	10000	2	1	0	2	0
54	590	10	10000	2	1	0	2	0
55	591	10	10000	2	1	0	2	0
56	592	10	10000	2	1	0	2	0
56	593	10	10000	2	1	0	2	0
61	594	10	10000	2	1	0	2	0
72	595	10	10000	2	1	0	2	0
83	596	10	10000	2	1	0	2	0
85	597	10	10000	2	1	0	2	0
93	598	10	10000	2	1	0	2	0
94	599	10	10000	2	1	0	2	0
100	600	10	10000	2	1	0	2	0
97	601	10	10000	2	1	0	2	0
101	602	10	10000	2	1	0	2	0
108	603	10	10000	2	1	0	2	0
115	604	10	10000	2	1	0	2	0
124	605	10	10000	2	1	0	2	0
147	606	10	10000	2	1	0	2	0
150	607	10	10000	2	1	0	2	0
173	608	10	10000	2	1	0	2	0
173	609	10	10000	2	1	0	2	0
177	610	10	10000	2	1	0	2	0
184	611	10	10000	2	1	0	2	0
188	612	10	10000	2	1	0	2	0
205	613	10	10000	2	1	0	2	0
211	614	10	10000	2	1	0	2	0
231	615	10	10000	2	1	0	2	0
252	616	10	10000	2	1	0	2	0
256	617	10	10000	2	1	0	2	0
291	618	10	10000	2	1	0	2	0
313	619	10	10000	2	1	0	2	0
324	620	10	10000	2	1	0	2	0
319	621	10	10000	2	1	0	2	0
308	622	10	10000	2	1	0	2	0
295	623	10	10000	2	1	0	2	0
283	624	10	10000	2	1	0	2	0
272	625	10	10000	2	1	0	2	0
280	626	10	10000	2	1	0	2	0
305	627	10	10000	2	1	0	2	0
363	628	10	10000	2	1	0	2	0
435	629	10	10000	2	1	0	2	0
471	630	10	10000	2	1	0	2	0
474	631	10	10000	2	1	0	2	0
476	632	10	10000	2	1	0	2	0
473	633	10	10000	2	1	0	2	0
467	634	10	10000	2	1	0	2	0
486	635	10	10000	2	1	0	2	0
531	636	10	10000	2	1	0	2	0
584	637	10	10000	2	1	0	2	0
635	638	10	10000	2	1	0	2	0
678	639	10	10000	2	1	0	2	0
713	640	10	10000	2	1	0	2	0
736	641	10	10000	2	1	0	2	0
748	642	10	10000	2	1	0	2	0
753	643	10	10000	2	1	0	2	0
750	644	10	10000	2	1	0	2	0
743	645	10	10000	2	1	0	2	0
737	646	10	10000	2	1	0	2	0
728	647	10	10000	2	1	0	2	0
714	648	10	10000	2	1	0	2	0
694	649	10	10000	2	1	0	2	0
668	650	10	10000	2	1	0	2	0
643	651	10	10000	2	1	0	2	0
615	652	10	10000	2	1	0	2	0
592	653	10	10000	2	1	0	2	0
572	654	10	10000	2	1	0	2	0
556	655	10	10000	2	1	0	2	0
545	656	10	10000	2	1	0	2	0
532	657	10	10000	2	1	0	2	0
513	658	10	10000	2	1	0	2	0
502	659	10	10000	2	1	0	2	0
500	660	10	10000	2	1	0	2	0
497	661	10	10000	2	1	0	2	0
492	662	10	10000	2	1	0	2	0
487	663	10	10000	2	1	0	2	0
479	664	10	10000	2	1	0	2	0
469	665	10	10000	2	1	0	2	0
455	666	10	10000	2	1	0	2	0
441	667	10	10000	2	1	0	2	0
426	668	10	10000	2	1	0	2	0
412	669	10	10000	2	1	0	2	0
397	670	10	10000	2	1	0	2	0
388	671	10	10000	2	1	0	2	0
387	672	10	10000	2	1	0	2	0
389	673	10	10000	2	1	0	2	0
388	674	10	10000	2	1	0	2	0
386	675	10	10000	2	1	0	2	0
384	676	10	10000	2	1	0	2	0
382	677	10	10000	2	1	0	2	0
380	678	10	10000	2	1	0	2	0
376	679	10	10000	2	1	0	2	0
374	680	10	10000	2	1	0	2	0
367	681	10	10000	2	1	0	2	0
360	682	10	10000	2	1	0	2	0
353	683	10	10000	2	1	0	2	0
347	684	10	10000	2	1	0	2	0
340	685	10	10000	2	1	0	2	0
330	686	10	10000	2	1	0	2	0
321	687	10	10000	2	1	0	2	0
311	688	10	10000	2	1	0	2	0
303	689	10	10000	2	1	0	2	0
294	690	10	10000	2	1	0	2	0
287	691	10	10000	2	1	0	2	0
281	692	10	10000	2	1	0	2	0
276	693	10	10000	2	1	0	2	0
273	694	10	10000	2	1	0	2	0
270	695	10	10000	2	1	0	2	0
267	696	10	10000	2	1	0	2	0
261	697	10	10000	2	1	0	2	0
250	698	10	10000	2	1	0	2	0
240	699	10	10000	2	1	0	2	0
235	700	10	10000	2	1	0	2	0
232	701	10	10000	2	1	0	2	0
234	702	10	10000	2	1	0	2	0
238	703	10	10000	2	1	0	2	0
237	704	10	10000	2	1	0	2	0
231	705	10	10000	2	1	0	2	0
225	706	10	10000	2	1	0	2	0
222	707	10	10000	2	1	0	2	0
216	708	10	10000	2	1	0	2	0
212	709	10	10000	2	1	0	2	0
202	710	10	10000	2	1	0	2	0
194	711	10	10000	2	1	0	2	0
189	712	10	10000	2	1	0	2	0
185	713	10	10000	2	1	0	2	0
180	714	10	10000	2	1	0	2	0
173	715	10	10000	2	1	0	2	0
168	716	10	10000	2	1	0	2	0
163	717	10	10000	2	1	0	2	0
161	718	10	10000	2	1	0	2	0
161	719	10	10000	2	1	0	2	0
163	720	10	10000	2	1	0	2	0
159	721	10	10000	2	1	0	2	0
157	722	10	10000	2	1	0	2	0
157	723	10	10000	2	1	0	2	0
153	724	10	10000	2	1	0	2	0
147	725	10	10000	2	1	0	2	0
144	726	10	10000	2	1	0	2	0
143	727	10	10000	2	1	0	2	0
142	728	10	10000	2	1	0	2	0
140	729	10	10000	2	1	0	2	0
134	730	10	10000	2	1	0	2	0
131	731	10	10000	2	1	0	2	0
130	732	10	10000	2	1	0	2	0
126	733	10	10000	2	1	0	2	0
120	734	10	10000	2	1	0	2	0
119	735	10	10000	2	1	0	2	0
119	736	10	10000	2	1	0	2	0
116	737	10	10000	2	1	0	2	0
113	738	10	10000	2	1	0	2	0
112	739	10	10000	2	1	0	2	0
111	740	10	10000	2	1	0	2	0
108	741	10	10000	2	1	0	2	0
105	742	10	10000	2	1	0	2	0
105	743	10	10000	2	1	0	2	0
106	744	10	10000	2	1	0	2	0
103	745	10	10000	2	1	0	2	0
99	746	10	10000	2	1	0	2	0
106	747	10	10000	2	1	0	2	0
119	748	10	10000	2	1	0	2	0
123	749	10	10000	2	1	0	2	0
118	750	10	10000	2	1	0	2	0
117	751	10	10000	2	1	0	2	0
114	752	10	10000	2	1	0	2	0
109	753	10	10000	2	1	0	2	0
106	754	10	10000	2	1	0	2	0
107	755	10	10000	2	1	0	2	0
107	756	10	10000	2	1	0	2	0
110	757	10	10000	2	1	0	2	0
110	758	10	10000	2	1	0	2	0
108	759	10	10000	2	1	0	2	0
107	760	10	10000	2	1	0	2	0
104	761	10	10000	2	1	0	2	0
100	762	10	10000	2	1	0	2	0
96	763	10	10000	2	1	0	2	0
94	764	10	10000	2	1	0	2	0
96	765	10	10000	2	1	0	2	0
96	766	10	10000	2	1	0	2	0
96	767	10	10000	2	1	0	2	0
98	768	10	10000	2	1	0	2	0
100	769	10	10000	2	1	0	2	0
100	770	10	10000	2	1	0	2	0
104	771	10	10000	2	1	0	2	0
109	772	10	10000	2	1	0	2	0
105	773	10	10000	2	1	0	2	0
106	774	10	10000	2	1	0	2	0
104	775	10	10000	2	1	0	2	0
104	776	10	10000	2	1	0	2	0
103	777	10	10000	2	1	0	2	0
110	778	10	10000	2	1	0	2	0
113	779	10	10000	2	1	0	2	0
113	780	10	10000	2	1	0	2	0
110	781	10	10000	2	1	0	2	0
106	782	10	10000	2	1	0	2	0
102	783	10	10000	2	1	0	2	0
99	784	10	10000	2	1	0	2	0
97	785	10	10000	2	1	0	2	0
97	786	10	10000	2	1	0	2	0
97	787	10	10000	2	1	0	2	0
98	788	10	10000	2	1	0	2	0
101	789	10	10000	2	1	0	2	0
101	790	10	10000	2	1	0	2	0
99	791	10	10000	2	1	0	2	0
97	792	10	10000	2	1	0	2	0
94	793	10	10000	2	1	0	2	0
91	794	10	10000	2	1	0	2	0
89	795	10	10000	2	1	0	2	0
88	796	10	10000	2	1	0	2	0
88	797	10	10000	2	1	0	2	0
98	798	10	10000	2	1	0	2	0
106	799	10	10000	2	1	0	2	0
110	800	10	10000	2	1	0	2	0
107	801	10	10000	2	1	0	2	0
103	802	10	10000	2	1	0	2	0
97	803	10	10000	2	1	0	2	0
94	804	10	10000	2	1	0	2	0
93	805	10	10000	2	1	0	2	0
93	806	10	10000	2	1	0	2	0
91	807	10	10000	2	1	0	2	0
90	808	10	10000	2	1	0	2	0
90	809	10	10000	2	1	0	2	0
86	810	10	10000	2	1	0	2	0
84	811	10	10000	2	1	0	2	0
83	812	10	10000	2	1	0	2	0
79	813	10	10000	2	1	0	2	0
76	814	10	10000	2	1	0	2	0
72	815	10	10000	2	1	0	2	0
70	816	10	10000	2	1	0	2	0
67	817	10	10000	2	1	0	2	0
63	818	10	10000	2	1	0	2	0
61	819	10	10000	2	1	0	2	0
64	820	10	10000	2	1	0	2	0
65	821	10	10000	2	1	0	2	0
63	822	10	10000	2	1	0	2	0
66	823	10	10000	2	1	0	2	0
72	824	10	10000	2	1	0	2	0
80	825	10	10000	2	1	0	2	0
82	826	10	10000	2	1	0	2	0
92	827	10	10000	2	1	0	2	0
98	828	10	10000	2	1	0	2	0
100	829	10	10000	2	1	0	2	0
98	830	10	10000	2	1	0	2	0
96	831	10	10000	2	1	0	2	0
96	832	10	10000	2	1	0	2	0
97	833	10	10000	2	1	0	2	0
95	834	10	10000	2	1	0	2	0
92	835	10	10000	2	1	0	2	0
90	836	10	10000	2	1	0	2	0
86	837	10	10000	2	1	0	2	0
83	838	10	10000	2	1	0	2	0
81	839	10	10000	2	1	0	2	0
84	840	10	10000	2	1	0	2	0
81	841	10	10000	2	1	0	2	0
78	842	10	10000	2	1	0	2	0
77	843	10	10000	2	1	0	2	0
74	844	10	10000	2	1	0	2	0
71	845	10	10000	2	1	0	2	0
70	846	10	10000	2	1	0	2	0
70	847	10	10000	2	1	0	2	0
69	848	10	10000	2	1	0	2	0
68	849	10	10000	2	1	0	2	0
66	850	10	10000	2	1	0	2	0
64	851	10	10000	2	1	0	2	0
63	852	10	10000	2	1	0	2	0
63	853	10	10000	2	1	0	2	0
61	854	10	10000	2	1	0	2	0
59	855	10	10000	2	1	0	2	0
58	856	10	10000	2	1	0	2	0
59	857	10	10000	2	1	0	2	0
61	858	10	10000	2	1	0	2	0
67	859	10	10000	2	1	0	2	0
74	860	10	10000	2	1	0	2	0
74	861	10	10000	2	1	0	2	0
73	862	10	10000	2	1	0	2	0
75	863	10	10000	2	1	0	2	0
72	864	10	10000	2	1	0	2	0
69	865	10	10000	2	1	0	2	0
67	866	10	10000	2	1	0	2	0
68	867	10	10000	2	1	0	2	0
69	868	10	10000	2	1	0	2	0
69	869	10	10000	2	1	0	2	0
66	870	10	10000	2	1	0	2	0
65	871	10	10000	2	1	0	2	0
69	872	10	10000	2	1	0	2	0
77	873	10	10000	2	1	0	2	0
87	874	10	10000	2	1	0	2	0
95	875	10	10000	2	1	0	2	0
102	876	10	10000	2	1	0	2	0
106	877	10	10000	2	1	0	2	0
108	878	10	10000	2	1	0	2	0
110	879	10	10000	2	1	0	2	0
116	880	10	10000	2	1	0	2	0
121	881	10	10000	2	1	0	2	0
123	882	10	10000	2	1	0	2	0
127	883	10	10000	2	1	0	2	0
131	884	10	10000	2	1	0	2	0
135	885	10	10000	2	1	0	2	0
142	886	10	10000	2	1	0	2	0
152	887	10	10000	2	1	0	2	0
149	888	10	10000	2	1	0	2	0
143	889	10	10000	2	1	0	2	0
140	890	10	10000	2	1	0	2	0
140	891	10	10000	2	1	0	2	0
144	892	10	10000	2	1	0	2	0
147	893	10	10000	2	1	0	2	0
151	894	10	10000	2	1	0	2	0
153	895	10	10000	2	1	0	2	0
153	896	10	10000	2	1	0	2	0
151	897	10	10000	2	1	0	2	0
148	898	10	10000	2	1	0	2	0
148	899	10	10000	2	1	0	2	0
147	900	10	10000	2	1	0	2	0
146	901	10	10000	2	1	0	2	0
142	902	10	10000	2	1	0	2	0
137	903	10	10000	2	1	0	2	0
130	904	10	10000	2	1	0	2	0
125	905	10	10000	2	1	0	2	0
119	906	10	10000	2	1	0	2	0
115	907	10	10000	2	1	0	2	0
112	908	10	10000	2	1	0	2	0
110	909	10	10000	2	1	0	2	0
106	910	10	10000	2	1	0	2	0
102	911	10	10000	2	1	0	2	0
98	912	10	10000	2	1	0	2	0
97	913	10	10000	2	1	0	2	0
101	914	10	10000	2	1	0	2	0
103	915	10	10000	2	1	0	2	0
108	916	10	10000	2	1	0	2	0
114	917	10	10000	2	1	0	2	0
120	918	10	10000	2	1	0	2	0
125	919	10	10000	2	1	0	2	0
133	920	10	10000	2	1	0	2	0
140	921	10	10000	2	1	0	2	0
147	922	10	10000	2	1	0	2	0
156	923	10	10000	2	1	0	2	0
164	924	10	10000	2	1	0	2	0
170	925	10	10000	2	1	0	2	0
169	926	10	10000	2	1	0	2	0
168	927	10	10000	2	1	0	2	0
170	928	10	10000	2	1	0	2	0
173	929	10	10000	2	1	0	2	0
175	930	10	10000	2	1	0	2	0
177	931	10	10000	2	1	0	2	0
177	932	10	10000	2	1	0	2	0
178	933	10	10000	2	1	0	2	0
180	934	10	10000	2	1	0	2	0
183	935	10	10000	2	1	0	2	0
184	936	10	10000	2	1	0	2	0
184	937	10	10000	2	1	0	2	0
183	938	10	10000	2	1	0	2	0
183	939	10	10000	2	1	0	2	0
185	940	10	10000	2	1	0	2	0
185	941	10	10000	2	1	0	2	0
182	942	10	10000	2	1	0	2	0
179	943	10	10000	2	1	0	2	0
174	944	10	10000	2	1	0	2	0
169	945	10	10000	2	1	0	2	0
166	946	10	10000	2	1	0	2	0
163	947	10	10000	2	1	0	2	0
157	948	10	10000	2	1	0	2	0
152	949	10	10000	2	1	0	2	0
146	950	10	10000	2	1	0	2	0
141	951	10	10000	2	1	0	2	0
141	952	10	10000	2	1	0	2	0
141	953	10	10000	2	1	0	2	0
140	954	10	10000	2	1	0	2	0
137	955	10	10000	2	1	0	2	0
134	956	10	10000	2	1	0	2	0
131	957	10	10000	2	1	0	2	0
126	958	10	10000	2	1	0	2	0
122	959	10	10000	2	1	0	2	0
120	960	10	10000	2	1	0	2	0
122	961	10	10000	2	1	0	2	0
124	962	10	10000	2	1	0	2	0
124	963	10	10000	2	1	0	2	0
123	964	10	10000	2	1	0	2	0
120	965	10	10000	2	1	0	2	0
115	966	10	10000	2	1	0	2	0
112	967	10	10000	2	1	0	2	0
110	968	10	10000	2	1	0	2	0
109	969	10	10000	2	1	0	2	0
105	970	10	10000	2	1	0	2	0
101	971	10	10000	2	1	0	2	0
97	972	10	10000	2	1	0	2	0
96	973	10	10000	2	1	0	2	0
96	974	10	10000	2	1	0	2	0
96	975	10	10000	2	1	0	2	0
93	976	10	10000	2	1	0	2	0
89	977	10	10000	2	1	0	2	0
84	978	10	10000	2	1	0	2	0
82	979	10	10000	2	1	0	2	0
81	980	10	10000	2	1	0	2	0
79	981	10	10000	2	1	0	2	0
77	982	10	10000	2	1	0	2	0
74	983	10	10000	2	1	0	2	0
72	984	10	10000	2	1	0	2	0
70	985	10	10000	2	1	0	2	0
69	986	10	10000	2	1	0	2	0
69	987	10	10000	2	1	0	2	0
66	988	10	10000	2	1	0	2	0
64	989	10	10000	2	1	0	2	0
62	990	10	10000	2	1	0	2	0
61	991	10	10000	2	1	0	2	0
61	992	10	10000	2	1	0	2	0
59	993	10	10000	2	1	0	2	0
58	994	10	10000	2	1	0	2	0
59	995	10	10000	2	1	0	2	0
59	996	10	10000	2	1	0	2	0
58	997	10	10000	2	1	0	2	0
55	998	10	10000	2	1	0	2	0
53	999	10	10000	2	1	0	2	0
53	1000	10	10000	2	1	0	2	0
52	2	10	10000	3	1	0	3	0
53	3	10	10000	3	1	0	3	0
53	4	10	10000	3	1	0	3	0
51	5	10	10000	3	1	0	3	0
50	6	10	10000	3	1	0	3	0
50	7	10	10000	3	1	0	3	0
52	8	10	10000	3	1	0	3	0
54	9	10	10000	3	1	0	3	0
53	10	10	10000	3	1	0	3	0
51	11	10	10000	3	1	0	3	0
47	12	10	10000	3	1	0	3	0
46	13	10	10000	3	1	0	3	0
46	14	10	10000	3	1	0	3	0
44	15	10	10000	3	1	0	3	0
43	16	10	10000	3	1	0	3	0
41	17	10	10000	3	1	0	3	0
40	18	10	10000	3	1	0	3	0
40	19	10	10000	3	1	0	3	0
42	20	10	10000	3	1	0	3	0
47	21	10	10000	3	1	0	3	0
52	22	10	10000	3	1	0	3	0
50	23	10	10000	3	1	0	3	0
51	24	10	10000	3	1	0	3	0
54	25	10	10000	3	1	0	3	0
56	26	10	10000	3	1	0	3	0
54	27	10	10000	3	1	0	3	0
55	28	10	10000	3	1	0	3	0
54	29	10	10000	3	1	0	3	0
54	30	10	10000	3	1	0	3	0
53	31	10	10000	3	1	0	3	0
50	32	10	10000	3	1	0	3	0
49	33	10	10000	3	1	0	3	0
48	34	10	10000	3	1	0	3	0
48	35	10	10000	3	1	0	3	0
47	36	10	10000	3	1	0	3	0
47	37	10	10000	3	1	0	3	0
45	38	10	10000	3	1	0	3	0
44	39	10	10000	3	1	0	3	0
42	40	10	10000	3	1	0	3	0
40	41	10	10000	3	1	0	3	0
40	42	10	10000	3	1	0	3	0
39	43	10	10000	3	1	0	3	0
37	44	10	10000	3	1	0	3	0
36	45	10	10000	3	1	0	3	0
36	46	10	10000	3	1	0	3	0
34	47	10	10000	3	1	0	3	0
33	48	10	10000	3	1	0	3	0
33	49	10	10000	3	1	0	3	0
38	50	10	10000	3	1	0	3	0
40	51	10	10000	3	1	0	3	0
40	52	10	10000	3	1	0	3	0
43	53	10	10000	3	1	0	3	0
42	54	10	10000	3	1	0	3	0
43	55	10	10000	3	1	0	3	0
44	56	10	10000	3	1	0	3	0
43	57	10	10000	3	1	0	3	0
44	58	10	10000	3	1	0	3	0
42	59	10	10000	3	1	0	3	0
41	60	10	10000	3	1	0	3	0
39	61	10	10000	3	1	0	3	0
41	62	10	10000	3	1	0	3	0
40	63	10	10000	3	1	0	3	0
39	64	10	10000	3	1	0	3	0
38	65	10	10000	3	1	0	3	0
37	66	10	10000	3	1	0	3	0
35	67	10	10000	3	1	0	3	0
34	68	10	10000	3	1	0	3	0
33	69	10	10000	3	1	0	3	0
33	70	10	10000	3	1	0	3	0
32	71	10	10000	3	1	0	3	0
32	72	10	10000	3	1	0	3	0
33	73	10	10000	3	1	0	3	0
34	74	10	10000	3	1	0	3	0
35	75	10	10000	3	1	0	3	0
36	76	10	10000	3	1	0	3	0
41	77	10	10000	3	1	0	3	0
44	78	10	10000	3	1	0	3	0
45	79	10	10000	3	1	0	3	0
44	80	10	10000	3	1	0	3	0
42	81	10	10000	3	1	0	3	0
44	82	10	10000	3	1	0	3	0
43	83	10	10000	3	1	0	3	0
41	84	10	10000	3	1	0	3	0
39	85	10	10000	3	1	0	3	0
38	86	10	10000	3	1	0	3	0
39	87	10	10000	3	1	0	3	0
38	88	10	10000	3	1	0	3	0
38	89	10	10000	3	1	0	3	0
36	90	10	10000	3	1	0	3	0
36	91	10	10000	3	1	0	3	0
33	92	10	10000	3	1	0	3	0
32	93	10	10000	3	1	0	3	0
33	94	10	10000	3	1	0	3	0
32	95	10	10000	3	1	0	3	0
33	96	10	10000	3	1	0	3	0
32	97	10	10000	3	1	0	3	0
32	98	10	10000	3	1	0	3	0
31	99	10	10000	3	1	0	3	0
31	100	10	10000	3	1	0	3	0
31	101	10	10000	3	1	0	3	0
32	102	10	10000	3	1	0	3	0
31	103	10	10000	3	1	0	3	0
32	104	10	10000	3	1	0	3	0
31	105	10	10000	3	1	0	3	0
31	106	10	10000	3	1	0	3	0
30	107	10	10000	3	1	0	3	0
32	108	10	10000	3	1	0	3	0
31	109	10	10000	3	1	0	3	0
31	110	10	10000	3	1	0	3	0
31	111	10	10000	3	1	0	3	0
28	112	10	10000	3	1	0	3	0
28	113	10	10000	3	1	0	3	0
31	114	10	10000	3	1	0	3	0
32	115	10	10000	3	1	0	3	0
33	116	10	10000	3	1	0	3	0
33	117	10	10000	3	1	0	3	0
32	118	10	10000	3	1	0	3	0
31	119	10	10000	3	1	0	3	0
31	120	10	10000	3	1	0	3	0
32	121	10	10000	3	1	0	3	0
33	122	10	10000	3	1	0	3	0
34	123	10	10000	3	1	0	3	0
34	124	10	10000	3	1	0	3	0
33	125	10	10000	3	1	0	3	0
33	126	10	10000	3	1	0	3	0
32	127	10	10000	3	1	0	3	0
32	128	10	10000	3	1	0	3	0
31	129	10	10000	3	1	0	3	0
31	130	10	10000	3	1	0	3	0
31	131	10	10000	3	1	0	3	0
28	132	10	10000	3	1	0	3	0
26	133	10	10000	3	1	0	3	0
26	134	10	10000	3	1	0	3	0
25	135	10	10000	3	1	0	3	0
26	136	10	10000	3	1	0	3	0
25	137	10	10000	3	1	0	3	0
29	138	10	10000	3	1	0	3	0
33	139	10	10000	3	1	0	3	0
35	140	10	10000	3	1	0	3	0
35	141	10	10000	3	1	0	3	0
40	142	10	10000	3	1	0	3	0
45	143	10	10000	3	1	0	3	0
50	144	10	10000	3	1	0	3	0
53	145	10	10000	3	1	0	3	0
53	146	10	10000	3	1	0	3	0
51	147	10	10000	3	1	0	3	0
51	148	10	10000	3	1	0	3	0
52	149	10	10000	3	1	0	3	0
52	150	10	10000	3	1	0	3	0
51	151	10	10000	3	1	0	3	0
51	152	10	10000	3	1	0	3	0
53	153	10	10000	3	1	0	3	0
53	154	10	10000	3	1	0	3	0
53	155	10	10000	3	1	0	3	0
51	156	10	10000	3	1	0	3	0
50	157	10	10000	3	1	0	3	0
48	158	10	10000	3	1	0	3	0
46	159	10	10000	3	1	0	3	0
45	160	10	10000	3	1	0	3	0
46	161	10	10000	3	1	0	3	0
50	162	10	10000	3	1	0	3	0
52	163	10	10000	3	1	0	3	0
56	164	10	10000	3	1	0	3	0
56	165	10	10000	3	1	0	3	0
56	166	10	10000	3	1	0	3	0
55	167	10	10000	3	1	0	3	0
54	168	10	10000	3	1	0	3	0
54	169	10	10000	3	1	0	3	0
52	170	10	10000	3	1	0	3	0
53	171	10	10000	3	1	0	3	0
54	172	10	10000	3	1	0	3	0
52	173	10	10000	3	1	0	3	0
51	174	10	10000	3	1	0	3	0
50	175	10	10000	3	1	0	3	0
49	176	10	10000	3	1	0	3	0
48	177	10	10000	3	1	0	3	0
46	178	10	10000	3	1	0	3	0
45	179	10	10000	3	1	0	3	0
44	180	10	10000	3	1	0	3	0
42	181	10	10000	3	1	0	3	0
45	182	10	10000	3	1	0	3	0
44	183	10	10000	3	1	0	3	0
42	184	10	10000	3	1	0	3	0
40	185	10	10000	3	1	0	3	0
39	186	10	10000	3	1	0	3	0
39	187	10	10000	3	1	0	3	0
39	188	10	10000	3	1	0	3	0
40	189	10	10000	3	1	0	3	0
38	190	10	10000	3	1	0	3	0
38	191	10	10000	3	1	0	3	0
37	192	10	10000	3	1	0	3	0
40	193	10	10000	3	1	0	3	0
40	194	10	10000	3	1	0	3	0
42	195	10	10000	3	1	0	3	0
47	196	10	10000	3	1	0	3	0
50	197	10	10000	3	1	0	3	0
51	198	10	10000	3	1	0	3	0
50	199	10	10000	3	1	0	3	0
48	200	10	10000	3	1	0	3	0
46	201	10	10000	3	1	0	3	0
47	202	10	10000	3	1	0	3	0
46	203	10	10000	3	1	0	3	0
44	204	10	10000	3	1	0	3	0
42	205	10	10000	3	1	0	3	0
41	206	10	10000	3	1	0	3	0
38	207	10	10000	3	1	0	3	0
37	208	10	10000	3	1	0	3	0
36	209	10	10000	3	1	0	3	0
35	210	10	10000	3	1	0	3	0
34	211	10	10000	3	1	0	3	0
32	212	10	10000	3	1	0	3	0
31	213	10	10000	3	1	0	3	0
33	214	10	10000	3	1	0	3	0
39	215	10	10000	3	1	0	3	0
40	216	10	10000	3	1	0	3	0
39	217	10	10000	3	1	0	3	0
41	218	10	10000	3	1	0	3	0
40	219	10	10000	3	1	0	3	0
43	220	10	10000	3	1	0	3	0
41	221	10	10000	3	1	0	3	0
46	222	10	10000	3	1	0	3	0
53	223	10	10000	3	1	0	3	0
56	224	10	10000	3	1	0	3	0
58	225	10	10000	3	1	0	3	0
58	226	10	10000	3	1	0	3	0
55	227	10	10000	3	1	0	3	0
52	228	10	10000	3	1	0	3	0
52	229	10	10000	3	1	0	3	0
51	230	10	10000	3	1	0	3	0
53	231	10	10000	3	1	0	3	0
52	232	10	10000	3	1	0	3	0
51	233	10	10000	3	1	0	3	0
51	234	10	10000	3	1	0	3	0
51	235	10	10000	3	1	0	3	0
51	236	10	10000	3	1	0	3	0
50	237	10	10000	3	1	0	3	0
48	238	10	10000	3	1	0	3	0
46	239	10	10000	3	1	0	3	0
47	240	10	10000	3	1	0	3	0
47	241	10	10000	3	1	0	3	0
49	242	10	10000	3	1	0	3	0
50	243	10	10000	3	1	0	3	0
48	244	10	10000	3	1	0	3	0
46	245	10	10000	3	1	0	3	0
44	246	10	10000	3	1	0	3	0
43	247	10	10000	3	1	0	3	0
42	248	10	10000	3	1	0	3	0
41	249	10	10000	3	1	0	3	0
41	250	10	10000	3	1	0	3	0
41	251	10	10000	3	1	0	3	0
37	252	10	10000	3	1	0	3	0
37	253	10	10000	3	1	0	3	0
38	254	10	10000	3	1	0	3	0
37	255	10	10000	3	1	0	3	0
36	256	10	10000	3	1	0	3	0
36	257	10	10000	3	1	0	3	0
35	258	10	10000	3	1	0	3	0
35	259	10	10000	3	1	0	3	0
34	260	10	10000	3	1	0	3	0
32	261	10	10000	3	1	0	3	0
33	262	10	10000	3	1	0	3	0
33	263	10	10000	3	1	0	3	0
33	264	10	10000	3	1	0	3	0
33	265	10	10000	3	1	0	3	0
34	266	10	10000	3	1	0	3	0
39	267	10	10000	3	1	0	3	0
43	268	10	10000	3	1	0	3	0
47	269	10	10000	3	1	0	3	0
48	270	10	10000	3	1	0	3	0
48	271	10	10000	3	1	0	3	0
46	272	10	10000	3	1	0	3	0
44	273	10	10000	3	1	0	3	0
45	274	10	10000	3	1	0	3	0
46	275	10	10000	3	1	0	3	0
45	276	10	10000	3	1	0	3	0
44	277	10	10000	3	1	0	3	0
44	278	10	10000	3	1	0	3	0
42	279	10	10000	3	1	0	3	0
41	280	10	10000	3	1	0	3	0
42	281	10	10000	3	1	0	3	0
44	282	10	10000	3	1	0	3	0
44	283	10	10000	3	1	0	3	0
45	284	10	10000	3	1	0	3	0
45	285	10	10000	3	1	0	3	0
44	286	10	10000	3	1	0	3	0
45	287	10	10000	3	1	0	3	0
45	288	10	10000	3	1	0	3	0
46	289	10	10000	3	1	0	3	0
47	290	10	10000	3	1	0	3	0
47	291	10	10000	3	1	0	3	0
46	292	10	10000	3	1	0	3	0
45	293	10	10000	3	1	0	3	0
44	294	10	10000	3	1	0	3	0
43	295	10	10000	3	1	0	3	0
42	296	10	10000	3	1	0	3	0
41	297	10	10000	3	1	0	3	0
40	298	10	10000	3	1	0	3	0
38	299	10	10000	3	1	0	3	0
36	300	10	10000	3	1	0	3	0
34	301	10	10000	3	1	0	3	0
35	302	10	10000	3	1	0	3	0
34	303	10	10000	3	1	0	3	0
32	304	10	10000	3	1	0	3	0
32	305	10	10000	3	1	0	3	0
31	306	10	10000	3	1	0	3	0
30	307	10	10000	3	1	0	3	0
30	308	10	10000	3	1	0	3	0
30	309	10	10000	3	1	0	3	0
30	310	10	10000	3	1	0	3	0
30	311	10	10000	3	1	0	3	0
27	312	10	10000	3	1	0	3	0
27	313	10	10000	3	1	0	3	0
28	314	10	10000	3	1	0	3	0
30	315	10	10000	3	1	0	3	0
29	316	10	10000	3	1	0	3	0
29	317	10	10000	3	1	0	3	0
30	318	10	10000	3	1	0	3	0
29	319	10	10000	3	1	0	3	0
29	320	10	10000	3	1	0	3	0
30	321	10	10000	3	1	0	3	0
32	322	10	10000	3	1	0	3	0
33	323	10	10000	3	1	0	3	0
32	324	10	10000	3	1	0	3	0
32	325	10	10000	3	1	0	3	0
31	326	10	10000	3	1	0	3	0
30	327	10	10000	3	1	0	3	0
33	328	10	10000	3	1	0	3	0
34	329	10	10000	3	1	0	3	0
34	330	10	10000	3	1	0	3	0
36	331	10	10000	3	1	0	3	0
39	332	10	10000	3	1	0	3	0
43	333	10	10000	3	1	0	3	0
44	334	10	10000	3	1	0	3	0
43	335	10	10000	3	1	0	3	0
42	336	10	10000	3	1	0	3	0
40	337	10	10000	3	1	0	3	0
39	338	10	10000	3	1	0	3	0
37	339	10	10000	3	1	0	3	0
37	340	10	10000	3	1	0	3	0
37	341	10	10000	3	1	0	3	0
39	342	10	10000	3	1	0	3	0
40	343	10	10000	3	1	0	3	0
41	344	10	10000	3	1	0	3	0
42	345	10	10000	3	1	0	3	0
42	346	10	10000	3	1	0	3	0
45	347	10	10000	3	1	0	3	0
48	348	10	10000	3	1	0	3	0
56	349	10	10000	3	1	0	3	0
60	350	10	10000	3	1	0	3	0
60	351	10	10000	3	1	0	3	0
60	352	10	10000	3	1	0	3	0
61	353	10	10000	3	1	0	3	0
60	354	10	10000	3	1	0	3	0
59	355	10	10000	3	1	0	3	0
57	356	10	10000	3	1	0	3	0
63	357	10	10000	3	1	0	3	0
64	358	10	10000	3	1	0	3	0
61	359	10	10000	3	1	0	3	0
61	360	10	10000	3	1	0	3	0
61	361	10	10000	3	1	0	3	0
65	362	10	10000	3	1	0	3	0
67	363	10	10000	3	1	0	3	0
69	364	10	10000	3	1	0	3	0
73	365	10	10000	3	1	0	3	0
75	366	10	10000	3	1	0	3	0
78	367	10	10000	3	1	0	3	0
80	368	10	10000	3	1	0	3	0
82	369	10	10000	3	1	0	3	0
83	370	10	10000	3	1	0	3	0
82	371	10	10000	3	1	0	3	0
82	372	10	10000	3	1	0	3	0
82	373	10	10000	3	1	0	3	0
80	374	10	10000	3	1	0	3	0
81	375	10	10000	3	1	0	3	0
80	376	10	10000	3	1	0	3	0
79	377	10	10000	3	1	0	3	0
80	378	10	10000	3	1	0	3	0
78	379	10	10000	3	1	0	3	0
76	380	10	10000	3	1	0	3	0
73	381	10	10000	3	1	0	3	0
74	382	10	10000	3	1	0	3	0
78	383	10	10000	3	1	0	3	0
80	384	10	10000	3	1	0	3	0
78	385	10	10000	3	1	0	3	0
78	386	10	10000	3	1	0	3	0
77	387	10	10000	3	1	0	3	0
77	388	10	10000	3	1	0	3	0
77	389	10	10000	3	1	0	3	0
76	390	10	10000	3	1	0	3	0
76	391	10	10000	3	1	0	3	0
74	392	10	10000	3	1	0	3	0
73	393	10	10000	3	1	0	3	0
73	394	10	10000	3	1	0	3	0
74	395	10	10000	3	1	0	3	0
74	396	10	10000	3	1	0	3	0
73	397	10	10000	3	1	0	3	0
76	398	10	10000	3	1	0	3	0
82	399	10	10000	3	1	0	3	0
88	400	10	10000	3	1	0	3	0
89	401	10	10000	3	1	0	3	0
89	402	10	10000	3	1	0	3	0
87	403	10	10000	3	1	0	3	0
86	404	10	10000	3	1	0	3	0
83	405	10	10000	3	1	0	3	0
84	406	10	10000	3	1	0	3	0
83	407	10	10000	3	1	0	3	0
83	408	10	10000	3	1	0	3	0
82	409	10	10000	3	1	0	3	0
83	410	10	10000	3	1	0	3	0
83	411	10	10000	3	1	0	3	0
79	412	10	10000	3	1	0	3	0
79	413	10	10000	3	1	0	3	0
78	414	10	10000	3	1	0	3	0
80	415	10	10000	3	1	0	3	0
81	416	10	10000	3	1	0	3	0
81	417	10	10000	3	1	0	3	0
78	418	10	10000	3	1	0	3	0
74	419	10	10000	3	1	0	3	0
72	420	10	10000	3	1	0	3	0
71	421	10	10000	3	1	0	3	0
74	422	10	10000	3	1	0	3	0
77	423	10	10000	3	1	0	3	0
79	424	10	10000	3	1	0	3	0
82	425	10	10000	3	1	0	3	0
84	426	10	10000	3	1	0	3	0
85	427	10	10000	3	1	0	3	0
82	428	10	10000	3	1	0	3	0
79	429	10	10000	3	1	0	3	0
78	430	10	10000	3	1	0	3	0
75	431	10	10000	3	1	0	3	0
71	432	10	10000	3	1	0	3	0
70	433	10	10000	3	1	0	3	0
72	434	10	10000	3	1	0	3	0
74	435	10	10000	3	1	0	3	0
71	436	10	10000	3	1	0	3	0
69	437	10	10000	3	1	0	3	0
66	438	10	10000	3	1	0	3	0
65	439	10	10000	3	1	0	3	0
63	440	10	10000	3	1	0	3	0
60	441	10	10000	3	1	0	3	0
60	442	10	10000	3	1	0	3	0
57	443	10	10000	3	1	0	3	0
55	444	10	10000	3	1	0	3	0
53	445	10	10000	3	1	0	3	0
51	446	10	10000	3	1	0	3	0
49	447	10	10000	3	1	0	3	0
51	448	10	10000	3	1	0	3	0
50	449	10	10000	3	1	0	3	0
50	450	10	10000	3	1	0	3	0
50	451	10	10000	3	1	0	3	0
47	452	10	10000	3	1	0	3	0
45	453	10	10000	3	1	0	3	0
44	454	10	10000	3	1	0	3	0
43	455	10	10000	3	1	0	3	0
42	456	10	10000	3	1	0	3	0
41	457	10	10000	3	1	0	3	0
40	458	10	10000	3	1	0	3	0
41	459	10	10000	3	1	0	3	0
41	460	10	10000	3	1	0	3	0
39	461	10	10000	3	1	0	3	0
38	462	10	10000	3	1	0	3	0
38	463	10	10000	3	1	0	3	0
36	464	10	10000	3	1	0	3	0
36	465	10	10000	3	1	0	3	0
37	466	10	10000	3	1	0	3	0
37	467	10	10000	3	1	0	3	0
35	468	10	10000	3	1	0	3	0
35	469	10	10000	3	1	0	3	0
34	470	10	10000	3	1	0	3	0
34	471	10	10000	3	1	0	3	0
33	472	10	10000	3	1	0	3	0
34	473	10	10000	3	1	0	3	0
35	474	10	10000	3	1	0	3	0
34	475	10	10000	3	1	0	3	0
33	476	10	10000	3	1	0	3	0
33	477	10	10000	3	1	0	3	0
33	478	10	10000	3	1	0	3	0
35	479	10	10000	3	1	0	3	0
34	480	10	10000	3	1	0	3	0
32	481	10	10000	3	1	0	3	0
33	482	10	10000	3	1	0	3	0
32	483	10	10000	3	1	0	3	0
31	484	10	10000	3	1	0	3	0
30	485	10	10000	3	1	0	3	0
36	486	10	10000	3	1	0	3	0
39	487	10	10000	3	1	0	3	0
38	488	10	10000	3	1	0	3	0
42	489	10	10000	3	1	0	3	0
45	490	10	10000	3	1	0	3	0
48	491	10	10000	3	1	0	3	0
46	492	10	10000	3	1	0	3	0
45	493	10	10000	3	1	0	3	0
48	494	10	10000	3	1	0	3	0
48	495	10	10000	3	1	0	3	0
47	496	10	10000	3	1	0	3	0
49	497	10	10000	3	1	0	3	0
49	498	10	10000	3	1	0	3	0
49	499	10	10000	3	1	0	3	0
47	500	10	10000	3	1	0	3	0
47	501	10	10000	3	1	0	3	0
47	502	10	10000	3	1	0	3	1
46	503	10	10000	3	1	0	3	1
45	504	10	10000	3	1	0	3	1
46	505	10	10000	3	1	0	3	1
47	506	10	10000	3	1	0	3	1
46	507	10	10000	3	1	0	3	1
45	508	10	10000	3	1	0	3	1
44	509	10	10000	3	1	0	3	1
43	510	10	10000	3	1	0	3	1
43	511	10	10000	3	1	0	3	1
40	512	10	10000	3	1	0	3	1
38	513	10	10000	3	1	0	3	1
37	514	10	10000	3	1	0	3	1
36	515	10	10000	3	1	0	3	1
35	516	10	10000	3	1	0	3	1
34	517	10	10000	3	1	0	3	1
35	518	10	10000	3	1	0	3	1
32	519	10	10000	3	1	0	3	1
32	520	10	10000	3	1	0	3	1
32	521	10	10000	3	1	0	3	1
33	522	10	10000	3	1	0	3	1
31	523	10	10000	3	1	0	3	1
31	524	10	10000	3	1	0	3	1
31	525	10	10000	3	1	0	3	1
32	526	10	10000	3	1	0	3	1
32	527	10	10000	3	1	0	3	1
31	528	10	10000	3	1	0	3	1
31	529	10	10000	3	1	0	3	1
30	530	10	10000	3	1	0	3	1
30	531	10	10000	3	1	0	3	1
27	532	10	10000	3	1	0	3	1
25	533	10	10000	3	1	0	3	1
25	534	10	10000	3	1	0	3	1
25	535	10	10000	3	1	0	3	1
24	536	10	10000	3	1	0	3	1
24	537	10	10000	3	1	0	3	1
26	538	10	10000	3	1	0	3	1
27	539	10	10000	3	1	0	3	1
27	540	10	10000	3	1	0	3	1
27	541	10	10000	3	1	0	3	1
31	542	10	10000	3	1	0	3	1
32	543	10	10000	3	1	0	3	1
31	544	10	10000	3	1	0	3	1
31	545	10	10000	3	1	0	3	1
31	546	10	10000	3	1	0	3	1
31	547	10	10000	3	1	0	3	1
30	548	10	10000	3	1	0	3	1
29	549	10	10000	3	1	0	3	1
28	550	10	10000	3	1	0	3	1
27	551	10	10000	3	1	0	3	1
25	552	10	10000	3	1	0	3	0
23	553	10	10000	3	1	0	3	0
23	554	10	10000	3	1	0	3	0
23	555	10	10000	3	1	0	3	0
23	556	10	10000	3	1	0	3	0
22	557	10	10000	3	1	0	3	0
21	558	10	10000	3	1	0	3	0
21	559	10	10000	3	1	0	3	0
20	560	10	10000	3	1	0	3	0
20	561	10	10000	3	1	0	3	0
22	562	10	10000	3	1	0	3	0
21	563	10	10000	3	1	0	3	0
21	564	10	10000	3	1	0	3	0
21	565	10	10000	3	1	0	3	0
20	566	10	10000	3	1	0	3	0
20	567	10	10000	3	1	0	3	0
21	568	10	10000	3	1	0	3	0
22	569	10	10000	3	1	0	3	0
21	570	10	10000	3	1	0	3	0
21	571	10	10000	3	1	0	3	0
19	572	10	10000	3	1	0	3	0
18	573	10	10000	3	1	0	3	0
19	574	10	10000	3	1	0	3	0
20	575	10	10000	3	1	0	3	0
21	576	10	10000	3	1	0	3	0
25	577	10	10000	3	1	0	3	0
25	578	10	10000	3	1	0	3	0
25	579	10	10000	3	1	0	3	0
23	580	10	10000	3	1	0	3	0
24	581	10	10000	3	1	0	3	0
30	582	10	10000	3	1	0	3	0
35	583	10	10000	3	1	0	3	0
48	584	10	10000	3	1	0	3	0
57	585	10	10000	3	1	0	3	0
57	586	10	10000	3	1	0	3	0
60	587	10	10000	3	1	0	3	0
70	588	10	10000	3	1	0	3	0
77	589	10	10000	3	1	0	3	0
77	590	10	10000	3	1	0	3	0
77	591	10	10000	3	1	0	3	0
77	592	10	10000	3	1	0	3	0
91	593	10	10000	3	1	0	3	0
106	594	10	10000	3	1	0	3	0
127	595	10	10000	3	1	0	3	0
147	596	10	10000	3	1	0	3	0
151	597	10	10000	3	1	0	3	0
173	598	10	10000	3	1	0	3	0
184	599	10	10000	3	1	0	3	0
207	600	10	10000	3	1	0	3	0
249	601	10	10000	3	1	0	3	0
259	602	10	10000	3	1	0	3	0
291	603	10	10000	3	1	0	3	0
340	604	10	10000	3	1	0	3	0
348	605	10	10000	3	1	0	3	0
368	606	10	10000	3	1	0	3	0
426	607	10	10000	3	1	0	3	0
516	608	10	10000	3	1	0	3	0
543	609	10	10000	3	1	0	3	0
526	610	10	10000	3	1	0	3	0
515	611	10	10000	3	1	0	3	0
496	612	10	10000	3	1	0	3	0
477	613	10	10000	3	1	0	3	0
455	614	10	10000	3	1	0	3	0
448	615	10	10000	3	1	0	3	0
445	616	10	10000	3	1	0	3	0
454	617	10	10000	3	1	0	3	0
464	618	10	10000	3	1	0	3	0
526	619	10	10000	3	1	0	3	0
539	620	10	10000	3	1	0	3	0
554	621	10	10000	3	1	0	3	0
603	622	10	10000	3	1	0	3	0
615	623	10	10000	3	1	0	3	0
626	624	10	10000	3	1	0	3	0
626	625	10	10000	3	1	0	3	0
607	626	10	10000	3	1	0	3	0
596	627	10	10000	3	1	0	3	0
580	628	10	10000	3	1	0	3	0
595	629	10	10000	3	1	0	3	0
605	630	10	10000	3	1	0	3	0
604	631	10	10000	3	1	0	3	0
599	632	10	10000	3	1	0	3	0
595	633	10	10000	3	1	0	3	0
591	634	10	10000	3	1	0	3	0
587	635	10	10000	3	1	0	3	0
576	636	10	10000	3	1	0	3	0
558	637	10	10000	3	1	0	3	0
538	638	10	10000	3	1	0	3	0
515	639	10	10000	3	1	0	3	0
495	640	10	10000	3	1	0	3	0
478	641	10	10000	3	1	0	3	0
461	642	10	10000	3	1	0	3	0
441	643	10	10000	3	1	0	3	0
421	644	10	10000	3	1	0	3	0
403	645	10	10000	3	1	0	3	0
386	646	10	10000	3	1	0	3	0
369	647	10	10000	3	1	0	3	0
351	648	10	10000	3	1	0	3	0
336	649	10	10000	3	1	0	3	0
327	650	10	10000	3	1	0	3	0
318	651	10	10000	3	1	0	3	0
310	652	10	10000	3	1	0	3	0
304	653	10	10000	3	1	0	3	0
299	654	10	10000	3	1	0	3	0
295	655	10	10000	3	1	0	3	0
296	656	10	10000	3	1	0	3	0
296	657	10	10000	3	1	0	3	0
297	658	10	10000	3	1	0	3	0
300	659	10	10000	3	1	0	3	0
304	660	10	10000	3	1	0	3	0
309	661	10	10000	3	1	0	3	0
316	662	10	10000	3	1	0	3	0
317	663	10	10000	3	1	0	3	0
318	664	10	10000	3	1	0	3	0
318	665	10	10000	3	1	0	3	0
319	666	10	10000	3	1	0	3	0
326	667	10	10000	3	1	0	3	0
332	668	10	10000	3	1	0	3	0
332	669	10	10000	3	1	0	3	0
332	670	10	10000	3	1	0	3	0
332	671	10	10000	3	1	0	3	0
329	672	10	10000	3	1	0	3	0
330	673	10	10000	3	1	0	3	0
333	674	10	10000	3	1	0	3	0
337	675	10	10000	3	1	0	3	0
341	676	10	10000	3	1	0	3	0
345	677	10	10000	3	1	0	3	0
348	678	10	10000	3	1	0	3	0
352	679	10	10000	3	1	0	3	0
356	680	10	10000	3	1	0	3	0
357	681	10	10000	3	1	0	3	0
356	682	10	10000	3	1	0	3	0
352	683	10	10000	3	1	0	3	0
346	684	10	10000	3	1	0	3	0
341	685	10	10000	3	1	0	3	0
334	686	10	10000	3	1	0	3	0
329	687	10	10000	3	1	0	3	0
323	688	10	10000	3	1	0	3	0
318	689	10	10000	3	1	0	3	0
311	690	10	10000	3	1	0	3	0
304	691	10	10000	3	1	0	3	0
291	692	10	10000	3	1	0	3	0
280	693	10	10000	3	1	0	3	0
273	694	10	10000	3	1	0	3	0
267	695	10	10000	3	1	0	3	0
258	696	10	10000	3	1	0	3	0
249	697	10	10000	3	1	0	3	0
241	698	10	10000	3	1	0	3	0
231	699	10	10000	3	1	0	3	0
221	700	10	10000	3	1	0	3	0
214	701	10	10000	3	1	0	3	0
213	702	10	10000	3	1	0	3	0
211	703	10	10000	3	1	0	3	0
202	704	10	10000	3	1	0	3	0
198	705	10	10000	3	1	0	3	0
193	706	10	10000	3	1	0	3	0
188	707	10	10000	3	1	0	3	0
180	708	10	10000	3	1	0	3	0
174	709	10	10000	3	1	0	3	0
169	710	10	10000	3	1	0	3	0
165	711	10	10000	3	1	0	3	0
160	712	10	10000	3	1	0	3	0
157	713	10	10000	3	1	0	3	0
153	714	10	10000	3	1	0	3	0
164	715	10	10000	3	1	0	3	0
169	716	10	10000	3	1	0	3	0
169	717	10	10000	3	1	0	3	0
181	718	10	10000	3	1	0	3	0
190	719	10	10000	3	1	0	3	0
191	720	10	10000	3	1	0	3	0
189	721	10	10000	3	1	0	3	0
188	722	10	10000	3	1	0	3	0
183	723	10	10000	3	1	0	3	0
179	724	10	10000	3	1	0	3	0
175	725	10	10000	3	1	0	3	0
169	726	10	10000	3	1	0	3	0
166	727	10	10000	3	1	0	3	0
159	728	10	10000	3	1	0	3	0
153	729	10	10000	3	1	0	3	0
153	730	10	10000	3	1	0	3	0
157	731	10	10000	3	1	0	3	0
156	732	10	10000	3	1	0	3	0
156	733	10	10000	3	1	0	3	0
161	734	10	10000	3	1	0	3	0
156	735	10	10000	3	1	0	3	0
152	736	10	10000	3	1	0	3	0
154	737	10	10000	3	1	0	3	0
150	738	10	10000	3	1	0	3	0
149	739	10	10000	3	1	0	3	0
146	740	10	10000	3	1	0	3	0
142	741	10	10000	3	1	0	3	0
140	742	10	10000	3	1	0	3	0
136	743	10	10000	3	1	0	3	0
133	744	10	10000	3	1	0	3	0
129	745	10	10000	3	1	0	3	0
123	746	10	10000	3	1	0	3	0
117	747	10	10000	3	1	0	3	0
113	748	10	10000	3	1	0	3	0
110	749	10	10000	3	1	0	3	0
105	750	10	10000	3	1	0	3	0
102	751	10	10000	3	1	0	3	0
96	752	10	10000	3	1	0	3	0
93	753	10	10000	3	1	0	3	0
90	754	10	10000	3	1	0	3	0
87	755	10	10000	3	1	0	3	0
84	756	10	10000	3	1	0	3	0
85	757	10	10000	3	1	0	3	0
84	758	10	10000	3	1	0	3	0
84	759	10	10000	3	1	0	3	0
82	760	10	10000	3	1	0	3	0
81	761	10	10000	3	1	0	3	0
81	762	10	10000	3	1	0	3	0
79	763	10	10000	3	1	0	3	0
76	764	10	10000	3	1	0	3	0
74	765	10	10000	3	1	0	3	0
74	766	10	10000	3	1	0	3	0
72	767	10	10000	3	1	0	3	0
69	768	10	10000	3	1	0	3	0
73	769	10	10000	3	1	0	3	0
74	770	10	10000	3	1	0	3	0
74	771	10	10000	3	1	0	3	0
71	772	10	10000	3	1	0	3	0
69	773	10	10000	3	1	0	3	0
68	774	10	10000	3	1	0	3	0
65	775	10	10000	3	1	0	3	0
69	776	10	10000	3	1	0	3	0
72	777	10	10000	3	1	0	3	0
70	778	10	10000	3	1	0	3	0
68	779	10	10000	3	1	0	3	0
70	780	10	10000	3	1	0	3	0
80	781	10	10000	3	1	0	3	0
80	782	10	10000	3	1	0	3	0
80	783	10	10000	3	1	0	3	0
77	784	10	10000	3	1	0	3	0
76	785	10	10000	3	1	0	3	0
84	786	10	10000	3	1	0	3	0
90	787	10	10000	3	1	0	3	0
92	788	10	10000	3	1	0	3	0
99	789	10	10000	3	1	0	3	0
107	790	10	10000	3	1	0	3	0
115	791	10	10000	3	1	0	3	0
117	792	10	10000	3	1	0	3	0
115	793	10	10000	3	1	0	3	0
110	794	10	10000	3	1	0	3	0
106	795	10	10000	3	1	0	3	0
101	796	10	10000	3	1	0	3	0
99	797	10	10000	3	1	0	3	0
100	798	10	10000	3	1	0	3	0
97	799	10	10000	3	1	0	3	0
95	800	10	10000	3	1	0	3	0
98	801	10	10000	3	1	0	3	0
106	802	10	10000	3	1	0	3	0
113	803	10	10000	3	1	0	3	0
111	804	10	10000	3	1	0	3	0
110	805	10	10000	3	1	0	3	0
111	806	10	10000	3	1	0	3	0
123	807	10	10000	3	1	0	3	0
133	808	10	10000	3	1	0	3	0
131	809	10	10000	3	1	0	3	0
140	810	10	10000	3	1	0	3	0
149	811	10	10000	3	1	0	3	0
154	812	10	10000	3	1	0	3	0
150	813	10	10000	3	1	0	3	0
144	814	10	10000	3	1	0	3	0
141	815	10	10000	3	1	0	3	0
139	816	10	10000	3	1	0	3	0
133	817	10	10000	3	1	0	3	0
128	818	10	10000	3	1	0	3	0
125	819	10	10000	3	1	0	3	0
125	820	10	10000	3	1	0	3	0
120	821	10	10000	3	1	0	3	0
127	822	10	10000	3	1	0	3	0
128	823	10	10000	3	1	0	3	0
127	824	10	10000	3	1	0	3	0
128	825	10	10000	3	1	0	3	0
130	826	10	10000	3	1	0	3	0
125	827	10	10000	3	1	0	3	0
122	828	10	10000	3	1	0	3	0
119	829	10	10000	3	1	0	3	0
123	830	10	10000	3	1	0	3	0
123	831	10	10000	3	1	0	3	0
122	832	10	10000	3	1	0	3	0
125	833	10	10000	3	1	0	3	0
123	834	10	10000	3	1	0	3	0
121	835	10	10000	3	1	0	3	0
119	836	10	10000	3	1	0	3	0
116	837	10	10000	3	1	0	3	0
110	838	10	10000	3	1	0	3	0
106	839	10	10000	3	1	0	3	0
105	840	10	10000	3	1	0	3	0
102	841	10	10000	3	1	0	3	0
102	842	10	10000	3	1	0	3	0
101	843	10	10000	3	1	0	3	0
99	844	10	10000	3	1	0	3	0
99	845	10	10000	3	1	0	3	0
94	846	10	10000	3	1	0	3	0
93	847	10	10000	3	1	0	3	0
88	848	10	10000	3	1	0	3	0
85	849	10	10000	3	1	0	3	0
82	850	10	10000	3	1	0	3	0
81	851	10	10000	3	1	0	3	0
76	852	10	10000	3	1	0	3	0
73	853	10	10000	3	1	0	3	0
73	854	10	10000	3	1	0	3	0
69	855	10	10000	3	1	0	3	0
68	856	10	10000	3	1	0	3	0
70	857	10	10000	3	1	0	3	0
76	858	10	10000	3	1	0	3	0
78	859	10	10000	3	1	0	3	0
80	860	10	10000	3	1	0	3	0
83	861	10	10000	3	1	0	3	0
92	862	10	10000	3	1	0	3	0
96	863	10	10000	3	1	0	3	0
94	864	10	10000	3	1	0	3	0
90	865	10	10000	3	1	0	3	0
92	866	10	10000	3	1	0	3	0
93	867	10	10000	3	1	0	3	0
92	868	10	10000	3	1	0	3	0
91	869	10	10000	3	1	0	3	0
89	870	10	10000	3	1	0	3	0
90	871	10	10000	3	1	0	3	0
86	872	10	10000	3	1	0	3	0
92	873	10	10000	3	1	0	3	0
97	874	10	10000	3	1	0	3	0
99	875	10	10000	3	1	0	3	0
98	876	10	10000	3	1	0	3	0
95	877	10	10000	3	1	0	3	0
92	878	10	10000	3	1	0	3	0
89	879	10	10000	3	1	0	3	0
90	880	10	10000	3	1	0	3	0
88	881	10	10000	3	1	0	3	0
88	882	10	10000	3	1	0	3	0
90	883	10	10000	3	1	0	3	0
91	884	10	10000	3	1	0	3	0
91	885	10	10000	3	1	0	3	0
88	886	10	10000	3	1	0	3	0
85	887	10	10000	3	1	0	3	0
83	888	10	10000	3	1	0	3	0
81	889	10	10000	3	1	0	3	0
79	890	10	10000	3	1	0	3	0
77	891	10	10000	3	1	0	3	0
72	892	10	10000	3	1	0	3	0
72	893	10	10000	3	1	0	3	0
73	894	10	10000	3	1	0	3	0
71	895	10	10000	3	1	0	3	0
70	896	10	10000	3	1	0	3	0
72	897	10	10000	3	1	0	3	0
74	898	10	10000	3	1	0	3	0
76	899	10	10000	3	1	0	3	0
77	900	10	10000	3	1	0	3	0
74	901	10	10000	3	1	0	3	0
76	902	10	10000	3	1	0	3	0
80	903	10	10000	3	1	0	3	0
83	904	10	10000	3	1	0	3	0
85	905	10	10000	3	1	0	3	0
84	906	10	10000	3	1	0	3	0
81	907	10	10000	3	1	0	3	0
80	908	10	10000	3	1	0	3	0
78	909	10	10000	3	1	0	3	0
77	910	10	10000	3	1	0	3	0
75	911	10	10000	3	1	0	3	0
72	912	10	10000	3	1	0	3	0
71	913	10	10000	3	1	0	3	0
72	914	10	10000	3	1	0	3	0
75	915	10	10000	3	1	0	3	0
75	916	10	10000	3	1	0	3	0
74	917	10	10000	3	1	0	3	0
80	918	10	10000	3	1	0	3	0
81	919	10	10000	3	1	0	3	0
86	920	10	10000	3	1	0	3	0
92	921	10	10000	3	1	0	3	0
98	922	10	10000	3	1	0	3	0
96	923	10	10000	3	1	0	3	0
92	924	10	10000	3	1	0	3	0
88	925	10	10000	3	1	0	3	0
87	926	10	10000	3	1	0	3	0
86	927	10	10000	3	1	0	3	0
85	928	10	10000	3	1	0	3	0
83	929	10	10000	3	1	0	3	0
80	930	10	10000	3	1	0	3	0
78	931	10	10000	3	1	0	3	0
75	932	10	10000	3	1	0	3	0
72	933	10	10000	3	1	0	3	0
69	934	10	10000	3	1	0	3	0
66	935	10	10000	3	1	0	3	0
65	936	10	10000	3	1	0	3	0
63	937	10	10000	3	1	0	3	0
61	938	10	10000	3	1	0	3	0
59	939	10	10000	3	1	0	3	0
57	940	10	10000	3	1	0	3	0
55	941	10	10000	3	1	0	3	0
57	942	10	10000	3	1	0	3	0
56	943	10	10000	3	1	0	3	0
53	944	10	10000	3	1	0	3	0
50	945	10	10000	3	1	0	3	0
49	946	10	10000	3	1	0	3	0
47	947	10	10000	3	1	0	3	0
47	948	10	10000	3	1	0	3	0
52	949	10	10000	3	1	0	3	0
53	950	10	10000	3	1	0	3	0
53	951	10	10000	3	1	0	3	0
50	952	10	10000	3	1	0	3	0
50	953	10	10000	3	1	0	3	0
51	954	10	10000	3	1	0	3	0
52	955	10	10000	3	1	0	3	0
52	956	10	10000	3	1	0	3	0
51	957	10	10000	3	1	0	3	0
49	958	10	10000	3	1	0	3	0
53	959	10	10000	3	1	0	3	0
63	960	10	10000	3	1	0	3	0
68	961	10	10000	3	1	0	3	0
73	962	10	10000	3	1	0	3	0
85	963	10	10000	3	1	0	3	0
90	964	10	10000	3	1	0	3	0
88	965	10	10000	3	1	0	3	0
86	966	10	10000	3	1	0	3	0
84	967	10	10000	3	1	0	3	0
85	968	10	10000	3	1	0	3	0
88	969	10	10000	3	1	0	3	0
91	970	10	10000	3	1	0	3	0
90	971	10	10000	3	1	0	3	0
86	972	10	10000	3	1	0	3	0
84	973	10	10000	3	1	0	3	0
84	974	10	10000	3	1	0	3	0
84	975	10	10000	3	1	0	3	0
82	976	10	10000	3	1	0	3	0
80	977	10	10000	3	1	0	3	0
77	978	10	10000	3	1	0	3	0
75	979	10	10000	3	1	0	3	0
72	980	10	10000	3	1	0	3	0
70	981	10	10000	3	1	0	3	0
70	982	10	10000	3	1	0	3	0
68	983	10	10000	3	1	0	3	0
66	984	10	10000	3	1	0	3	0
63	985	10	10000	3	1	0	3	0
60	986	10	10000	3	1	0	3	0
60	987	10	10000	3	1	0	3	0
62	988	10	10000	3	1	0	3	0
63	989	10	10000	3	1	0	3	0
63	990	10	10000	3	1	0	3	0
62	991	10	10000	3	1	0	3	0
62	992	10	10000	3	1	0	3	0
64	993	10	10000	3	1	0	3	0
66	994	10	10000	3	1	0	3	0
69	995	10	10000	3	1	0	3	0
70	996	10	10000	3	1	0	3	0
68	997	10	10000	3	1	0	3	0
68	998	10	10000	3	1	0	3	0
68	999	10	10000	3	1	0	3	0
68	1000	10	10000	3	1	0	3	0
66	1001	10	10000	3	1	0	3	0
15	2	0	10000	4	1	0	4	0
15	3	0	10000	4	1	0	4	0
13	4	0	10000	4	1	0	4	0
14	5	0	10000	4	1	0	4	0
14	6	0	10000	4	1	0	4	0
14	7	0	10000	4	1	0	4	0
14	8	0	10000	4	1	0	4	0
14	9	0	10000	4	1	0	4	0
15	10	0	10000	4	1	0	4	0
15	11	0	10000	4	1	0	4	0
15	12	0	10000	4	1	0	4	0
16	13	0	10000	4	1	0	4	0
18	14	0	10000	4	1	0	4	0
18	15	0	10000	4	1	0	4	0
19	16	0	10000	4	1	0	4	0
18	17	0	10000	4	1	0	4	0
18	18	0	10000	4	1	0	4	0
18	19	0	10000	4	1	0	4	0
17	20	0	10000	4	1	0	4	0
18	21	0	10000	4	1	0	4	0
18	21	0	10000	4	1	0	4	0
18	22	0	10000	4	1	0	4	0
16	24	0	10000	4	1	0	4	0
16	25	0	10000	4	1	0	4	0
17	26	0	10000	4	1	0	4	0
17	27	0	10000	4	1	0	4	0
16	28	0	10000	4	1	0	4	0
17	29	0	10000	4	1	0	4	0
17	30	0	10000	4	1	0	4	0
16	31	0	10000	4	1	0	4	0
15	31	0	10000	4	1	0	4	0
15	32	0	10000	4	1	0	4	0
16	34	0	10000	4	1	0	4	0
17	35	0	10000	4	1	0	4	0
17	36	0	10000	4	1	0	4	0
16	37	0	10000	4	1	0	4	0
18	38	0	10000	4	1	0	4	0
17	39	0	10000	4	1	0	4	0
16	40	0	10000	4	1	0	4	0
16	41	0	10000	4	1	0	4	0
17	41	0	10000	4	1	0	4	0
17	42	0	10000	4	1	0	4	0
15	44	0	10000	4	1	0	4	0
15	45	0	10000	4	1	0	4	0
15	46	0	10000	4	1	0	4	0
16	47	0	10000	4	1	0	4	0
16	48	0	10000	4	1	0	4	0
16	49	0	10000	4	1	0	4	0
16	50	0	10000	4	1	0	4	0
16	51	0	10000	4	1	0	4	0
16	51	0	10000	4	1	0	4	0
16	52	0	10000	4	1	0	4	0
18	54	0	10000	4	1	0	4	0
18	55	0	10000	4	1	0	4	0
19	56	0	10000	4	1	0	4	0
19	57	0	10000	4	1	0	4	0
18	58	0	10000	4	1	0	4	0
17	59	0	10000	4	1	0	4	0
17	60	0	10000	4	1	0	4	0
17	61	0	10000	4	1	0	4	0
17	61	0	10000	4	1	0	4	0
18	62	0	10000	4	1	0	4	0
16	64	0	10000	4	1	0	4	0
16	65	0	10000	4	1	0	4	0
16	66	0	10000	4	1	0	4	0
17	67	0	10000	4	1	0	4	0
16	68	0	10000	4	1	0	4	0
16	69	0	10000	4	1	0	4	0
16	70	0	10000	4	1	0	4	0
16	71	0	10000	4	1	0	4	0
15	71	0	10000	4	1	0	4	0
15	72	0	10000	4	1	0	4	0
17	74	0	10000	4	1	0	4	0
16	75	0	10000	4	1	0	4	0
15	76	0	10000	4	1	0	4	0
16	77	0	10000	4	1	0	4	0
16	78	0	10000	4	1	0	4	0
16	79	0	10000	4	1	0	4	0
16	80	0	10000	4	1	0	4	0
15	81	0	10000	4	1	0	4	0
16	81	0	10000	4	1	0	4	0
17	82	0	10000	4	1	0	4	0
14	84	0	10000	4	1	0	4	0
14	85	0	10000	4	1	0	4	0
14	86	0	10000	4	1	0	4	0
14	87	0	10000	4	1	0	4	0
14	88	0	10000	4	1	0	4	0
14	89	0	10000	4	1	0	4	0
15	90	0	10000	4	1	0	4	0
13	91	0	10000	4	1	0	4	0
13	91	0	10000	4	1	0	4	0
13	92	0	10000	4	1	0	4	0
15	94	0	10000	4	1	0	4	0
16	95	0	10000	4	1	0	4	0
15	96	0	10000	4	1	0	4	0
16	97	0	10000	4	1	0	4	0
15	98	0	10000	4	1	0	4	0
14	99	0	10000	4	1	0	4	0
14	100	0	10000	4	1	0	4	0
15	101	0	10000	4	1	0	4	0
15	101	0	10000	4	1	0	4	0
16	102	0	10000	4	1	0	4	0
13	104	0	10000	4	1	0	4	0
14	105	0	10000	4	1	0	4	0
15	106	0	10000	4	1	0	4	0
16	107	0	10000	4	1	0	4	0
14	108	0	10000	4	1	0	4	0
14	109	0	10000	4	1	0	4	0
14	110	0	10000	4	1	0	4	0
13	111	0	10000	4	1	0	4	0
13	111	0	10000	4	1	0	4	0
12	112	0	10000	4	1	0	4	0
15	114	0	10000	4	1	0	4	0
14	115	0	10000	4	1	0	4	0
14	116	0	10000	4	1	0	4	0
15	117	0	10000	4	1	0	4	0
16	118	0	10000	4	1	0	4	0
15	119	0	10000	4	1	0	4	0
14	120	0	10000	4	1	0	4	0
15	121	0	10000	4	1	0	4	0
14	121	0	10000	4	1	0	4	0
15	122	0	10000	4	1	0	4	0
14	124	0	10000	4	1	0	4	0
13	125	0	10000	4	1	0	4	0
13	126	0	10000	4	1	0	4	0
13	127	0	10000	4	1	0	4	0
14	128	0	10000	4	1	0	4	0
13	129	0	10000	4	1	0	4	0
14	130	0	10000	4	1	0	4	0
14	131	0	10000	4	1	0	4	0
13	131	0	10000	4	1	0	4	0
12	132	0	10000	4	1	0	4	0
14	134	0	10000	4	1	0	4	0
15	135	0	10000	4	1	0	4	0
14	136	0	10000	4	1	0	4	0
15	137	0	10000	4	1	0	4	0
15	138	0	10000	4	1	0	4	0
14	139	0	10000	4	1	0	4	0
14	140	0	10000	4	1	0	4	0
16	141	0	10000	4	1	0	4	0
16	141	0	10000	4	1	0	4	0
17	142	0	10000	4	1	0	4	0
14	144	0	10000	4	1	0	4	0
15	145	0	10000	4	1	0	4	0
16	146	0	10000	4	1	0	4	0
16	147	0	10000	4	1	0	4	0
15	148	0	10000	4	1	0	4	0
15	149	0	10000	4	1	0	4	0
16	150	0	10000	4	1	0	4	0
15	151	0	10000	4	1	0	4	0
15	151	0	10000	4	1	0	4	0
15	152	0	10000	4	1	0	4	0
17	154	0	10000	4	1	0	4	0
17	155	0	10000	4	1	0	4	0
17	156	0	10000	4	1	0	4	0
16	157	0	10000	4	1	0	4	0
17	158	0	10000	4	1	0	4	0
16	159	0	10000	4	1	0	4	0
16	160	0	10000	4	1	0	4	0
17	161	0	10000	4	1	0	4	0
18	161	0	10000	4	1	0	4	0
17	162	0	10000	4	1	0	4	0
14	164	0	10000	4	1	0	4	0
15	165	0	10000	4	1	0	4	0
15	166	0	10000	4	1	0	4	0
15	167	0	10000	4	1	0	4	0
17	168	0	10000	4	1	0	4	0
18	169	0	10000	4	1	0	4	0
19	170	0	10000	4	1	0	4	0
18	171	0	10000	4	1	0	4	0
17	171	0	10000	4	1	0	4	0
16	172	0	10000	4	1	0	4	0
18	174	0	10000	4	1	0	4	0
19	175	0	10000	4	1	0	4	0
18	176	0	10000	4	1	0	4	0
17	177	0	10000	4	1	0	4	0
17	178	0	10000	4	1	0	4	0
16	179	0	10000	4	1	0	4	0
16	180	0	10000	4	1	0	4	0
16	181	0	10000	4	1	0	4	0
17	181	0	10000	4	1	0	4	0
17	182	0	10000	4	1	0	4	0
14	184	0	10000	4	1	0	4	0
15	185	0	10000	4	1	0	4	0
15	186	0	10000	4	1	0	4	0
14	187	0	10000	4	1	0	4	0
14	188	0	10000	4	1	0	4	0
14	189	0	10000	4	1	0	4	0
13	190	0	10000	4	1	0	4	0
13	191	0	10000	4	1	0	4	0
14	191	0	10000	4	1	0	4	0
12	192	0	10000	4	1	0	4	0
14	194	0	10000	4	1	0	4	0
14	195	0	10000	4	1	0	4	0
15	196	0	10000	4	1	0	4	0
15	197	0	10000	4	1	0	4	0
16	198	0	10000	4	1	0	4	0
16	199	0	10000	4	1	0	4	0
16	200	0	10000	4	1	0	4	0
17	201	0	10000	4	1	0	4	0
17	201	0	10000	4	1	0	4	0
17	202	0	10000	4	1	0	4	0
14	204	0	10000	4	1	0	4	0
15	205	0	10000	4	1	0	4	0
15	206	0	10000	4	1	0	4	0
14	207	0	10000	4	1	0	4	0
14	208	0	10000	4	1	0	4	0
14	209	0	10000	4	1	0	4	0
13	210	0	10000	4	1	0	4	0
13	211	0	10000	4	1	0	4	0
12	211	0	10000	4	1	0	4	0
11	212	0	10000	4	1	0	4	0
13	214	0	10000	4	1	0	4	0
14	215	0	10000	4	1	0	4	0
16	216	0	10000	4	1	0	4	0
15	217	0	10000	4	1	0	4	0
15	218	0	10000	4	1	0	4	0
16	219	0	10000	4	1	0	4	0
15	220	0	10000	4	1	0	4	0
15	221	0	10000	4	1	0	4	0
15	221	0	10000	4	1	0	4	0
15	222	0	10000	4	1	0	4	0
13	224	0	10000	4	1	0	4	0
13	225	0	10000	4	1	0	4	0
15	226	0	10000	4	1	0	4	0
14	227	0	10000	4	1	0	4	0
15	228	0	10000	4	1	0	4	0
15	229	0	10000	4	1	0	4	0
16	230	0	10000	4	1	0	4	0
16	231	0	10000	4	1	0	4	0
15	231	0	10000	4	1	0	4	0
16	232	0	10000	4	1	0	4	0
18	234	0	10000	4	1	0	4	0
18	235	0	10000	4	1	0	4	0
18	236	0	10000	4	1	0	4	0
17	237	0	10000	4	1	0	4	0
16	238	0	10000	4	1	0	4	0
16	239	0	10000	4	1	0	4	0
16	240	0	10000	4	1	0	4	0
16	241	0	10000	4	1	0	4	0
16	241	0	10000	4	1	0	4	0
17	242	0	10000	4	1	0	4	0
14	244	0	10000	4	1	0	4	0
14	245	0	10000	4	1	0	4	0
14	246	0	10000	4	1	0	4	0
14	247	0	10000	4	1	0	4	0
14	248	0	10000	4	1	0	4	0
14	249	0	10000	4	1	0	4	0
14	250	0	10000	4	1	0	4	0
13	251	0	10000	4	1	0	4	0
12	251	0	10000	4	1	0	4	0
13	252	0	10000	4	1	0	4	0
14	254	0	10000	4	1	0	4	0
13	255	0	10000	4	1	0	4	0
13	256	0	10000	4	1	0	4	0
14	257	0	10000	4	1	0	4	0
14	258	0	10000	4	1	0	4	0
14	259	0	10000	4	1	0	4	0
14	260	0	10000	4	1	0	4	0
15	261	0	10000	4	1	0	4	0
15	261	0	10000	4	1	0	4	0
15	262	0	10000	4	1	0	4	0
13	264	0	10000	4	1	0	4	0
13	265	0	10000	4	1	0	4	0
13	266	0	10000	4	1	0	4	0
14	267	0	10000	4	1	0	4	0
13	268	0	10000	4	1	0	4	0
12	269	0	10000	4	1	0	4	0
13	270	0	10000	4	1	0	4	0
13	271	0	10000	4	1	0	4	0
13	271	0	10000	4	1	0	4	0
15	272	0	10000	4	1	0	4	0
17	274	0	10000	4	1	0	4	0
17	275	0	10000	4	1	0	4	0
16	276	0	10000	4	1	0	4	0
17	277	0	10000	4	1	0	4	0
16	278	0	10000	4	1	0	4	0
16	279	0	10000	4	1	0	4	0
15	280	0	10000	4	1	0	4	0
16	281	0	10000	4	1	0	4	0
19	281	0	10000	4	1	0	4	0
19	282	0	10000	4	1	0	4	0
16	284	0	10000	4	1	0	4	0
16	285	0	10000	4	1	0	4	0
16	286	0	10000	4	1	0	4	0
17	287	0	10000	4	1	0	4	0
16	288	0	10000	4	1	0	4	0
16	289	0	10000	4	1	0	4	0
16	290	0	10000	4	1	0	4	0
15	291	0	10000	4	1	0	4	0
14	291	0	10000	4	1	0	4	0
13	292	0	10000	4	1	0	4	0
16	294	0	10000	4	1	0	4	0
15	295	0	10000	4	1	0	4	0
14	296	0	10000	4	1	0	4	0
14	297	0	10000	4	1	0	4	0
15	298	0	10000	4	1	0	4	0
15	299	0	10000	4	1	0	4	0
15	300	0	10000	4	1	0	4	0
16	301	0	10000	4	1	0	4	0
16	301	0	10000	4	1	0	4	0
16	302	0	10000	4	1	0	4	0
14	304	0	10000	4	1	0	4	0
14	305	0	10000	4	1	0	4	0
14	306	0	10000	4	1	0	4	0
15	307	0	10000	4	1	0	4	0
16	308	0	10000	4	1	0	4	0
17	309	0	10000	4	1	0	4	0
17	310	0	10000	4	1	0	4	0
16	311	0	10000	4	1	0	4	0
15	311	0	10000	4	1	0	4	0
15	312	0	10000	4	1	0	4	0
17	314	0	10000	4	1	0	4	0
17	315	0	10000	4	1	0	4	0
16	316	0	10000	4	1	0	4	0
15	317	0	10000	4	1	0	4	0
16	318	0	10000	4	1	0	4	0
16	319	0	10000	4	1	0	4	0
15	320	0	10000	4	1	0	4	0
16	321	0	10000	4	1	0	4	0
16	321	0	10000	4	1	0	4	0
17	322	0	10000	4	1	0	4	0
15	324	0	10000	4	1	0	4	0
16	325	0	10000	4	1	0	4	0
16	326	0	10000	4	1	0	4	0
16	327	0	10000	4	1	0	4	0
17	328	0	10000	4	1	0	4	0
16	329	0	10000	4	1	0	4	0
16	330	0	10000	4	1	0	4	0
16	331	0	10000	4	1	0	4	0
14	331	0	10000	4	1	0	4	0
14	332	0	10000	4	1	0	4	0
16	334	0	10000	4	1	0	4	0
16	335	0	10000	4	1	0	4	0
16	336	0	10000	4	1	0	4	0
15	337	0	10000	4	1	0	4	0
16	338	0	10000	4	1	0	4	0
15	339	0	10000	4	1	0	4	0
14	340	0	10000	4	1	0	4	0
14	341	0	10000	4	1	0	4	0
14	341	0	10000	4	1	0	4	0
15	342	0	10000	4	1	0	4	0
12	344	0	10000	4	1	0	4	0
13	345	0	10000	4	1	0	4	0
13	346	0	10000	4	1	0	4	0
14	347	0	10000	4	1	0	4	0
14	348	0	10000	4	1	0	4	0
15	349	0	10000	4	1	0	4	0
17	350	0	10000	4	1	0	4	0
16	351	0	10000	4	1	0	4	0
15	351	0	10000	4	1	0	4	0
15	352	0	10000	4	1	0	4	0
17	354	0	10000	4	1	0	4	0
17	355	0	10000	4	1	0	4	0
16	356	0	10000	4	1	0	4	0
15	357	0	10000	4	1	0	4	0
15	358	0	10000	4	1	0	4	0
15	359	0	10000	4	1	0	4	0
15	360	0	10000	4	1	0	4	0
15	361	0	10000	4	1	0	4	0
16	361	0	10000	4	1	0	4	0
17	362	0	10000	4	1	0	4	0
15	364	0	10000	4	1	0	4	0
15	365	0	10000	4	1	0	4	0
15	366	0	10000	4	1	0	4	0
15	367	0	10000	4	1	0	4	0
15	368	0	10000	4	1	0	4	0
15	369	0	10000	4	1	0	4	0
16	370	0	10000	4	1	0	4	0
16	371	0	10000	4	1	0	4	0
16	371	0	10000	4	1	0	4	0
17	372	0	10000	4	1	0	4	0
18	374	0	10000	4	1	0	4	0
17	375	0	10000	4	1	0	4	0
17	376	0	10000	4	1	0	4	0
16	377	0	10000	4	1	0	4	0
16	378	0	10000	4	1	0	4	0
16	379	0	10000	4	1	0	4	0
15	380	0	10000	4	1	0	4	0
15	381	0	10000	4	1	0	4	0
15	381	0	10000	4	1	0	4	0
15	382	0	10000	4	1	0	4	0
13	384	0	10000	4	1	0	4	0
12	385	0	10000	4	1	0	4	0
13	386	0	10000	4	1	0	4	0
12	387	0	10000	4	1	0	4	0
13	388	0	10000	4	1	0	4	0
14	389	0	10000	4	1	0	4	0
13	390	0	10000	4	1	0	4	0
14	391	0	10000	4	1	0	4	0
14	391	0	10000	4	1	0	4	0
14	392	0	10000	4	1	0	4	0
16	394	0	10000	4	1	0	4	0
16	395	0	10000	4	1	0	4	0
16	396	0	10000	4	1	0	4	0
15	397	0	10000	4	1	0	4	0
15	398	0	10000	4	1	0	4	0
16	399	0	10000	4	1	0	4	0
15	400	0	10000	4	1	0	4	0
16	401	0	10000	4	1	0	4	0
16	401	0	10000	4	1	0	4	0
16	402	0	10000	4	1	0	4	0
14	404	0	10000	4	1	0	4	0
14	405	0	10000	4	1	0	4	0
16	406	0	10000	4	1	0	4	0
16	407	0	10000	4	1	0	4	0
15	408	0	10000	4	1	0	4	0
15	409	0	10000	4	1	0	4	0
17	410	0	10000	4	1	0	4	0
17	411	0	10000	4	1	0	4	0
17	411	0	10000	4	1	0	4	0
19	412	0	10000	4	1	0	4	0
20	414	0	10000	4	1	0	4	0
20	415	0	10000	4	1	0	4	0
20	416	0	10000	4	1	0	4	0
20	417	0	10000	4	1	0	4	0
19	418	0	10000	4	1	0	4	0
19	419	0	10000	4	1	0	4	0
18	420	0	10000	4	1	0	4	0
18	421	0	10000	4	1	0	4	0
18	421	0	10000	4	1	0	4	0
20	422	0	10000	4	1	0	4	0
19	424	0	10000	4	1	0	4	0
19	425	0	10000	4	1	0	4	0
19	426	0	10000	4	1	0	4	0
18	427	0	10000	4	1	0	4	0
18	428	0	10000	4	1	0	4	0
18	429	0	10000	4	1	0	4	0
18	430	0	10000	4	1	0	4	0
17	431	0	10000	4	1	0	4	0
17	431	0	10000	4	1	0	4	0
15	432	0	10000	4	1	0	4	0
17	434	0	10000	4	1	0	4	0
17	435	0	10000	4	1	0	4	0
15	436	0	10000	4	1	0	4	0
15	437	0	10000	4	1	0	4	0
15	438	0	10000	4	1	0	4	0
15	439	0	10000	4	1	0	4	0
14	440	0	10000	4	1	0	4	0
16	441	0	10000	4	1	0	4	0
17	441	0	10000	4	1	0	4	0
17	442	0	10000	4	1	0	4	0
14	444	0	10000	4	1	0	4	0
15	445	0	10000	4	1	0	4	0
15	446	0	10000	4	1	0	4	0
16	447	0	10000	4	1	0	4	0
15	448	0	10000	4	1	0	4	0
15	449	0	10000	4	1	0	4	0
15	450	0	10000	4	1	0	4	0
15	451	0	10000	4	1	0	4	0
16	451	0	10000	4	1	0	4	0
16	452	0	10000	4	1	0	4	0
18	454	0	10000	4	1	0	4	0
17	455	0	10000	4	1	0	4	0
16	456	0	10000	4	1	0	4	0
16	457	0	10000	4	1	0	4	0
16	458	0	10000	4	1	0	4	0
16	459	0	10000	4	1	0	4	0
16	460	0	10000	4	1	0	4	0
17	461	0	10000	4	1	0	4	0
16	461	0	10000	4	1	0	4	0
17	462	0	10000	4	1	0	4	0
16	464	0	10000	4	1	0	4	0
15	465	0	10000	4	1	0	4	0
16	466	0	10000	4	1	0	4	0
16	467	0	10000	4	1	0	4	0
17	468	0	10000	4	1	0	4	0
19	469	0	10000	4	1	0	4	0
20	470	0	10000	4	1	0	4	0
21	471	0	10000	4	1	0	4	0
21	471	0	10000	4	1	0	4	0
20	472	0	10000	4	1	0	4	0
23	474	0	10000	4	1	0	4	0
24	475	0	10000	4	1	0	4	0
24	476	0	10000	4	1	0	4	0
24	477	0	10000	4	1	0	4	0
23	478	0	10000	4	1	0	4	0
22	479	0	10000	4	1	0	4	0
21	480	0	10000	4	1	0	4	0
22	481	0	10000	4	1	0	4	0
21	481	0	10000	4	1	0	4	0
23	482	0	10000	4	1	0	4	0
22	484	0	10000	4	1	0	4	0
23	485	0	10000	4	1	0	4	0
23	486	0	10000	4	1	0	4	0
23	487	0	10000	4	1	0	4	0
23	488	0	10000	4	1	0	4	0
22	489	0	10000	4	1	0	4	0
22	490	0	10000	4	1	0	4	0
22	491	0	10000	4	1	0	4	0
22	491	0	10000	4	1	0	4	0
21	492	0	10000	4	1	0	4	0
23	494	0	10000	4	1	0	4	0
23	495	0	10000	4	1	0	4	0
22	496	0	10000	4	1	0	4	0
21	497	0	10000	4	1	0	4	0
22	498	0	10000	4	1	0	4	0
21	499	0	10000	4	1	0	4	0
21	500	0	10000	4	1	0	4	0
21	501	0	10000	4	1	0	4	0
22	502	0	10000	4	1	0	4	1
22	503	0	10000	4	1	0	4	1
20	504	0	10000	4	1	0	4	1
21	505	0	10000	4	1	0	4	1
21	506	0	10000	4	1	0	4	1
20	507	0	10000	4	1	0	4	1
20	508	0	10000	4	1	0	4	1
20	509	0	10000	4	1	0	4	1
20	510	0	10000	4	1	0	4	1
19	511	0	10000	4	1	0	4	1
18	511	0	10000	4	1	0	4	1
17	512	0	10000	4	1	0	4	1
19	514	0	10000	4	1	0	4	1
19	515	0	10000	4	1	0	4	1
18	516	0	10000	4	1	0	4	1
18	517	0	10000	4	1	0	4	1
17	518	0	10000	4	1	0	4	1
17	519	0	10000	4	1	0	4	1
17	520	0	10000	4	1	0	4	1
17	521	0	10000	4	1	0	4	1
18	521	0	10000	4	1	0	4	1
17	522	0	10000	4	1	0	4	1
15	524	0	10000	4	1	0	4	1
16	525	0	10000	4	1	0	4	1
16	526	0	10000	4	1	0	4	1
16	527	0	10000	4	1	0	4	1
16	528	0	10000	4	1	0	4	1
17	529	0	10000	4	1	0	4	1
17	530	0	10000	4	1	0	4	1
18	531	0	10000	4	1	0	4	1
18	531	0	10000	4	1	0	4	1
16	532	0	10000	4	1	0	4	1
18	534	0	10000	4	1	0	4	1
17	535	0	10000	4	1	0	4	1
16	536	0	10000	4	1	0	4	1
16	537	0	10000	4	1	0	4	1
16	538	0	10000	4	1	0	4	1
16	539	0	10000	4	1	0	4	1
16	540	0	10000	4	1	0	4	1
18	541	0	10000	4	1	0	4	1
18	541	0	10000	4	1	0	4	1
18	542	0	10000	4	1	0	4	1
16	544	0	10000	4	1	0	4	1
16	545	0	10000	4	1	0	4	1
16	546	0	10000	4	1	0	4	1
15	547	0	10000	4	1	0	4	1
17	548	0	10000	4	1	0	4	1
17	549	0	10000	4	1	0	4	1
17	550	0	10000	4	1	0	4	1
16	551	0	10000	4	1	0	4	1
16	551	0	10000	4	1	0	4	0
17	552	0	10000	4	1	0	4	0
18	554	0	10000	4	1	0	4	0
17	555	0	10000	4	1	0	4	0
17	556	0	10000	4	1	0	4	0
17	557	0	10000	4	1	0	4	0
17	558	0	10000	4	1	0	4	0
17	559	0	10000	4	1	0	4	0
16	560	0	10000	4	1	0	4	0
16	561	0	10000	4	1	0	4	0
16	561	0	10000	4	1	0	4	0
16	562	0	10000	4	1	0	4	0
14	564	0	10000	4	1	0	4	0
14	565	0	10000	4	1	0	4	0
17	566	0	10000	4	1	0	4	0
18	567	0	10000	4	1	0	4	0
17	568	0	10000	4	1	0	4	0
16	569	0	10000	4	1	0	4	0
17	570	0	10000	4	1	0	4	0
17	571	0	10000	4	1	0	4	0
17	571	0	10000	4	1	0	4	0
17	572	0	10000	4	1	0	4	0
19	574	0	10000	4	1	0	4	0
19	575	0	10000	4	1	0	4	0
18	576	0	10000	4	1	0	4	0
19	577	0	10000	4	1	0	4	0
18	578	0	10000	4	1	0	4	0
18	579	0	10000	4	1	0	4	0
17	580	0	10000	4	1	0	4	0
17	581	0	10000	4	1	0	4	0
17	581	0	10000	4	1	0	4	0
18	582	0	10000	4	1	0	4	0
15	584	0	10000	4	1	0	4	0
17	585	0	10000	4	1	0	4	0
17	586	0	10000	4	1	0	4	0
18	587	0	10000	4	1	0	4	0
17	588	0	10000	4	1	0	4	0
17	589	0	10000	4	1	0	4	0
18	590	0	10000	4	1	0	4	0
16	591	0	10000	4	1	0	4	0
16	591	0	10000	4	1	0	4	0
16	592	0	10000	4	1	0	4	0
21	594	0	10000	4	1	0	4	0
27	595	0	10000	4	1	0	4	0
33	596	0	10000	4	1	0	4	0
34	597	0	10000	4	1	0	4	0
34	598	0	10000	4	1	0	4	0
35	599	0	10000	4	1	0	4	0
43	600	0	10000	4	1	0	4	0
57	601	0	10000	4	1	0	4	0
69	601	0	10000	4	1	0	4	0
69	602	0	10000	4	1	0	4	0
69	604	0	10000	4	1	0	4	0
74	605	0	10000	4	1	0	4	0
88	606	0	10000	4	1	0	4	0
100	607	0	10000	4	1	0	4	0
119	608	0	10000	4	1	0	4	0
127	609	0	10000	4	1	0	4	0
157	610	0	10000	4	1	0	4	0
162	611	0	10000	4	1	0	4	0
176	611	0	10000	4	1	0	4	0
212	612	0	10000	4	1	0	4	0
245	614	0	10000	4	1	0	4	0
257	615	0	10000	4	1	0	4	0
257	616	0	10000	4	1	0	4	0
251	617	0	10000	4	1	0	4	0
242	618	0	10000	4	1	0	4	0
231	619	0	10000	4	1	0	4	0
222	620	0	10000	4	1	0	4	0
215	621	0	10000	4	1	0	4	0
209	621	0	10000	4	1	0	4	0
204	622	0	10000	4	1	0	4	0
198	624	0	10000	4	1	0	4	0
195	625	0	10000	4	1	0	4	0
194	626	0	10000	4	1	0	4	0
193	627	0	10000	4	1	0	4	0
191	628	0	10000	4	1	0	4	0
190	629	0	10000	4	1	0	4	0
188	630	0	10000	4	1	0	4	0
187	631	0	10000	4	1	0	4	0
185	631	0	10000	4	1	0	4	0
183	632	0	10000	4	1	0	4	0
182	634	0	10000	4	1	0	4	0
176	635	0	10000	4	1	0	4	0
172	636	0	10000	4	1	0	4	0
166	637	0	10000	4	1	0	4	0
161	638	0	10000	4	1	0	4	0
154	639	0	10000	4	1	0	4	0
147	640	0	10000	4	1	0	4	0
141	641	0	10000	4	1	0	4	0
135	641	0	10000	4	1	0	4	0
131	642	0	10000	4	1	0	4	0
128	644	0	10000	4	1	0	4	0
125	645	0	10000	4	1	0	4	0
121	646	0	10000	4	1	0	4	0
117	647	0	10000	4	1	0	4	0
113	648	0	10000	4	1	0	4	0
110	649	0	10000	4	1	0	4	0
106	650	0	10000	4	1	0	4	0
103	651	0	10000	4	1	0	4	0
99	651	0	10000	4	1	0	4	0
95	652	0	10000	4	1	0	4	0
92	654	0	10000	4	1	0	4	0
89	655	0	10000	4	1	0	4	0
86	656	0	10000	4	1	0	4	0
86	657	0	10000	4	1	0	4	0
83	658	0	10000	4	1	0	4	0
80	659	0	10000	4	1	0	4	0
77	660	0	10000	4	1	0	4	0
75	661	0	10000	4	1	0	4	0
74	661	0	10000	4	1	0	4	0
73	662	0	10000	4	1	0	4	0
68	664	0	10000	4	1	0	4	0
69	665	0	10000	4	1	0	4	0
69	666	0	10000	4	1	0	4	0
69	667	0	10000	4	1	0	4	0
68	668	0	10000	4	1	0	4	0
65	669	0	10000	4	1	0	4	0
63	670	0	10000	4	1	0	4	0
59	671	0	10000	4	1	0	4	0
56	671	0	10000	4	1	0	4	0
55	672	0	10000	4	1	0	4	0
55	674	0	10000	4	1	0	4	0
54	675	0	10000	4	1	0	4	0
53	676	0	10000	4	1	0	4	0
53	677	0	10000	4	1	0	4	0
53	678	0	10000	4	1	0	4	0
51	679	0	10000	4	1	0	4	0
49	680	0	10000	4	1	0	4	0
47	681	0	10000	4	1	0	4	0
47	681	0	10000	4	1	0	4	0
47	682	0	10000	4	1	0	4	0
44	684	0	10000	4	1	0	4	0
44	685	0	10000	4	1	0	4	0
44	686	0	10000	4	1	0	4	0
44	687	0	10000	4	1	0	4	0
42	688	0	10000	4	1	0	4	0
41	689	0	10000	4	1	0	4	0
41	690	0	10000	4	1	0	4	0
41	691	0	10000	4	1	0	4	0
39	691	0	10000	4	1	0	4	0
37	692	0	10000	4	1	0	4	0
40	694	0	10000	4	1	0	4	0
41	695	0	10000	4	1	0	4	0
41	696	0	10000	4	1	0	4	0
39	697	0	10000	4	1	0	4	0
38	698	0	10000	4	1	0	4	0
37	699	0	10000	4	1	0	4	0
35	700	0	10000	4	1	0	4	0
34	701	0	10000	4	1	0	4	0
35	701	0	10000	4	1	0	4	0
34	702	0	10000	4	1	0	4	0
32	704	0	10000	4	1	0	4	0
32	705	0	10000	4	1	0	4	0
34	706	0	10000	4	1	0	4	0
36	707	0	10000	4	1	0	4	0
36	708	0	10000	4	1	0	4	0
35	709	0	10000	4	1	0	4	0
34	710	0	10000	4	1	0	4	0
33	711	0	10000	4	1	0	4	0
33	711	0	10000	4	1	0	4	0
33	712	0	10000	4	1	0	4	0
35	714	0	10000	4	1	0	4	0
37	715	0	10000	4	1	0	4	0
39	716	0	10000	4	1	0	4	0
38	717	0	10000	4	1	0	4	0
39	718	0	10000	4	1	0	4	0
38	719	0	10000	4	1	0	4	0
35	720	0	10000	4	1	0	4	0
35	721	0	10000	4	1	0	4	0
35	721	0	10000	4	1	0	4	0
35	722	0	10000	4	1	0	4	0
32	724	0	10000	4	1	0	4	0
31	725	0	10000	4	1	0	4	0
31	726	0	10000	4	1	0	4	0
31	727	0	10000	4	1	0	4	0
31	728	0	10000	4	1	0	4	0
31	729	0	10000	4	1	0	4	0
30	730	0	10000	4	1	0	4	0
28	731	0	10000	4	1	0	4	0
28	731	0	10000	4	1	0	4	0
26	732	0	10000	4	1	0	4	0
28	734	0	10000	4	1	0	4	0
29	735	0	10000	4	1	0	4	0
28	736	0	10000	4	1	0	4	0
27	737	0	10000	4	1	0	4	0
27	738	0	10000	4	1	0	4	0
25	739	0	10000	4	1	0	4	0
25	740	0	10000	4	1	0	4	0
25	741	0	10000	4	1	0	4	0
24	741	0	10000	4	1	0	4	0
24	742	0	10000	4	1	0	4	0
22	744	0	10000	4	1	0	4	0
23	745	0	10000	4	1	0	4	0
24	746	0	10000	4	1	0	4	0
23	747	0	10000	4	1	0	4	0
22	748	0	10000	4	1	0	4	0
22	749	0	10000	4	1	0	4	0
22	750	0	10000	4	1	0	4	0
22	751	0	10000	4	1	0	4	0
24	751	0	10000	4	1	0	4	0
24	752	0	10000	4	1	0	4	0
26	754	0	10000	4	1	0	4	0
27	755	0	10000	4	1	0	4	0
28	756	0	10000	4	1	0	4	0
29	757	0	10000	4	1	0	4	0
28	758	0	10000	4	1	0	4	0
26	759	0	10000	4	1	0	4	0
26	760	0	10000	4	1	0	4	0
28	761	0	10000	4	1	0	4	0
28	761	0	10000	4	1	0	4	0
29	762	0	10000	4	1	0	4	0
25	764	0	10000	4	1	0	4	0
26	765	0	10000	4	1	0	4	0
25	766	0	10000	4	1	0	4	0
25	767	0	10000	4	1	0	4	0
24	768	0	10000	4	1	0	4	0
24	769	0	10000	4	1	0	4	0
27	770	0	10000	4	1	0	4	0
25	771	0	10000	4	1	0	4	0
25	771	0	10000	4	1	0	4	0
23	772	0	10000	4	1	0	4	0
25	774	0	10000	4	1	0	4	0
25	775	0	10000	4	1	0	4	0
25	776	0	10000	4	1	0	4	0
24	777	0	10000	4	1	0	4	0
24	778	0	10000	4	1	0	4	0
23	779	0	10000	4	1	0	4	0
23	780	0	10000	4	1	0	4	0
23	781	0	10000	4	1	0	4	0
24	781	0	10000	4	1	0	4	0
26	782	0	10000	4	1	0	4	0
24	784	0	10000	4	1	0	4	0
24	785	0	10000	4	1	0	4	0
24	786	0	10000	4	1	0	4	0
24	787	0	10000	4	1	0	4	0
23	788	0	10000	4	1	0	4	0
23	789	0	10000	4	1	0	4	0
25	790	0	10000	4	1	0	4	0
25	791	0	10000	4	1	0	4	0
24	791	0	10000	4	1	0	4	0
23	792	0	10000	4	1	0	4	0
25	794	0	10000	4	1	0	4	0
24	795	0	10000	4	1	0	4	0
22	796	0	10000	4	1	0	4	0
23	797	0	10000	4	1	0	4	0
22	798	0	10000	4	1	0	4	0
24	799	0	10000	4	1	0	4	0
24	800	0	10000	4	1	0	4	0
25	801	0	10000	4	1	0	4	0
24	801	0	10000	4	1	0	4	0
24	802	0	10000	4	1	0	4	0
23	804	0	10000	4	1	0	4	0
25	805	0	10000	4	1	0	4	0
27	806	0	10000	4	1	0	4	0
28	807	0	10000	4	1	0	4	0
27	808	0	10000	4	1	0	4	0
27	809	0	10000	4	1	0	4	0
27	810	0	10000	4	1	0	4	0
27	811	0	10000	4	1	0	4	0
25	811	0	10000	4	1	0	4	0
24	812	0	10000	4	1	0	4	0
26	814	0	10000	4	1	0	4	0
25	815	0	10000	4	1	0	4	0
24	816	0	10000	4	1	0	4	0
24	817	0	10000	4	1	0	4	0
24	818	0	10000	4	1	0	4	0
23	819	0	10000	4	1	0	4	0
23	820	0	10000	4	1	0	4	0
24	821	0	10000	4	1	0	4	0
24	821	0	10000	4	1	0	4	0
24	822	0	10000	4	1	0	4	0
20	824	0	10000	4	1	0	4	0
21	825	0	10000	4	1	0	4	0
20	826	0	10000	4	1	0	4	0
20	827	0	10000	4	1	0	4	0
20	828	0	10000	4	1	0	4	0
20	829	0	10000	4	1	0	4	0
20	830	0	10000	4	1	0	4	0
19	831	0	10000	4	1	0	4	0
18	831	0	10000	4	1	0	4	0
17	832	0	10000	4	1	0	4	0
19	834	0	10000	4	1	0	4	0
19	835	0	10000	4	1	0	4	0
18	836	0	10000	4	1	0	4	0
17	837	0	10000	4	1	0	4	0
18	838	0	10000	4	1	0	4	0
17	839	0	10000	4	1	0	4	0
16	840	0	10000	4	1	0	4	0
18	841	0	10000	4	1	0	4	0
19	841	0	10000	4	1	0	4	0
19	842	0	10000	4	1	0	4	0
16	844	0	10000	4	1	0	4	0
17	845	0	10000	4	1	0	4	0
18	846	0	10000	4	1	0	4	0
17	847	0	10000	4	1	0	4	0
17	848	0	10000	4	1	0	4	0
17	849	0	10000	4	1	0	4	0
17	850	0	10000	4	1	0	4	0
17	851	0	10000	4	1	0	4	0
16	851	0	10000	4	1	0	4	0
15	852	0	10000	4	1	0	4	0
17	854	0	10000	4	1	0	4	0
18	855	0	10000	4	1	0	4	0
18	856	0	10000	4	1	0	4	0
16	857	0	10000	4	1	0	4	0
16	858	0	10000	4	1	0	4	0
16	859	0	10000	4	1	0	4	0
16	860	0	10000	4	1	0	4	0
16	861	0	10000	4	1	0	4	0
18	861	0	10000	4	1	0	4	0
20	862	0	10000	4	1	0	4	0
17	864	0	10000	4	1	0	4	0
17	865	0	10000	4	1	0	4	0
17	866	0	10000	4	1	0	4	0
17	867	0	10000	4	1	0	4	0
18	868	0	10000	4	1	0	4	0
20	869	0	10000	4	1	0	4	0
20	870	0	10000	4	1	0	4	0
18	871	0	10000	4	1	0	4	0
18	871	0	10000	4	1	0	4	0
17	872	0	10000	4	1	0	4	0
19	874	0	10000	4	1	0	4	0
20	875	0	10000	4	1	0	4	0
20	876	0	10000	4	1	0	4	0
19	877	0	10000	4	1	0	4	0
19	878	0	10000	4	1	0	4	0
19	879	0	10000	4	1	0	4	0
18	880	0	10000	4	1	0	4	0
19	881	0	10000	4	1	0	4	0
19	881	0	10000	4	1	0	4	0
19	882	0	10000	4	1	0	4	0
17	884	0	10000	4	1	0	4	0
17	885	0	10000	4	1	0	4	0
17	886	0	10000	4	1	0	4	0
17	887	0	10000	4	1	0	4	0
19	888	0	10000	4	1	0	4	0
19	889	0	10000	4	1	0	4	0
19	890	0	10000	4	1	0	4	0
19	891	0	10000	4	1	0	4	0
20	891	0	10000	4	1	0	4	0
20	892	0	10000	4	1	0	4	0
22	894	0	10000	4	1	0	4	0
21	895	0	10000	4	1	0	4	0
22	896	0	10000	4	1	0	4	0
22	897	0	10000	4	1	0	4	0
22	898	0	10000	4	1	0	4	0
22	899	0	10000	4	1	0	4	0
22	900	0	10000	4	1	0	4	0
22	901	0	10000	4	1	0	4	0
23	901	0	10000	4	1	0	4	0
23	902	0	10000	4	1	0	4	0
21	904	0	10000	4	1	0	4	0
22	905	0	10000	4	1	0	4	0
24	906	0	10000	4	1	0	4	0
23	907	0	10000	4	1	0	4	0
23	908	0	10000	4	1	0	4	0
22	909	0	10000	4	1	0	4	0
24	910	0	10000	4	1	0	4	0
24	911	0	10000	4	1	0	4	0
23	911	0	10000	4	1	0	4	0
22	912	0	10000	4	1	0	4	0
26	914	0	10000	4	1	0	4	0
27	915	0	10000	4	1	0	4	0
28	916	0	10000	4	1	0	4	0
26	917	0	10000	4	1	0	4	0
26	918	0	10000	4	1	0	4	0
25	919	0	10000	4	1	0	4	0
25	920	0	10000	4	1	0	4	0
27	921	0	10000	4	1	0	4	0
27	921	0	10000	4	1	0	4	0
28	922	0	10000	4	1	0	4	0
24	924	0	10000	4	1	0	4	0
24	925	0	10000	4	1	0	4	0
24	926	0	10000	4	1	0	4	0
24	927	0	10000	4	1	0	4	0
24	928	0	10000	4	1	0	4	0
23	929	0	10000	4	1	0	4	0
22	930	0	10000	4	1	0	4	0
21	931	0	10000	4	1	0	4	0
20	931	0	10000	4	1	0	4	0
20	932	0	10000	4	1	0	4	0
21	934	0	10000	4	1	0	4	0
21	935	0	10000	4	1	0	4	0
20	936	0	10000	4	1	0	4	0
20	937	0	10000	4	1	0	4	0
20	938	0	10000	4	1	0	4	0
20	939	0	10000	4	1	0	4	0
20	940	0	10000	4	1	0	4	0
19	941	0	10000	4	1	0	4	0
20	941	0	10000	4	1	0	4	0
20	942	0	10000	4	1	0	4	0
19	944	0	10000	4	1	0	4	0
20	945	0	10000	4	1	0	4	0
21	946	0	10000	4	1	0	4	0
20	947	0	10000	4	1	0	4	0
20	948	0	10000	4	1	0	4	0
21	949	0	10000	4	1	0	4	0
22	950	0	10000	4	1	0	4	0
20	951	0	10000	4	1	0	4	0
20	951	0	10000	4	1	0	4	0
19	952	0	10000	4	1	0	4	0
21	954	0	10000	4	1	0	4	0
20	955	0	10000	4	1	0	4	0
19	956	0	10000	4	1	0	4	0
19	957	0	10000	4	1	0	4	0
19	958	0	10000	4	1	0	4	0
19	959	0	10000	4	1	0	4	0
18	960	0	10000	4	1	0	4	0
20	961	0	10000	4	1	0	4	0
20	961	0	10000	4	1	0	4	0
20	962	0	10000	4	1	0	4	0
19	964	0	10000	4	1	0	4	0
18	965	0	10000	4	1	0	4	0
17	966	0	10000	4	1	0	4	0
18	967	0	10000	4	1	0	4	0
17	968	0	10000	4	1	0	4	0
17	969	0	10000	4	1	0	4	0
17	970	0	10000	4	1	0	4	0
17	971	0	10000	4	1	0	4	0
18	971	0	10000	4	1	0	4	0
18	972	0	10000	4	1	0	4	0
21	974	0	10000	4	1	0	4	0
20	975	0	10000	4	1	0	4	0
20	976	0	10000	4	1	0	4	0
21	977	0	10000	4	1	0	4	0
22	978	0	10000	4	1	0	4	0
22	979	0	10000	4	1	0	4	0
22	980	0	10000	4	1	0	4	0
23	981	0	10000	4	1	0	4	0
22	981	0	10000	4	1	0	4	0
22	982	0	10000	4	1	0	4	0
20	984	0	10000	4	1	0	4	0
20	985	0	10000	4	1	0	4	0
20	986	0	10000	4	1	0	4	0
19	987	0	10000	4	1	0	4	0
20	988	0	10000	4	1	0	4	0
19	989	0	10000	4	1	0	4	0
19	990	0	10000	4	1	0	4	0
20	991	0	10000	4	1	0	4	0
18	991	0	10000	4	1	0	4	0
17	992	0	10000	4	1	0	4	0
19	994	0	10000	4	1	0	4	0
18	995	0	10000	4	1	0	4	0
18	996	0	10000	4	1	0	4	0
17	997	0	10000	4	1	0	4	0
17	998	0	10000	4	1	0	4	0
17	999	0	10000	4	1	0	4	0
16	1000	0	10000	4	1	0	4	0
17	1001	0	10000	4	1	0	4	0
20	2	1	10000	5	1	0	5	0
20	3	1	10000	5	1	0	5	0
20	4	1	10000	5	1	0	5	0
19	5	1	10000	5	1	0	5	0
19	6	1	10000	5	1	0	5	0
20	7	1	10000	5	1	0	5	0
19	8	1	10000	5	1	0	5	0
19	9	1	10000	5	1	0	5	0
18	10	1	10000	5	1	0	5	0
18	11	1	10000	5	1	0	5	0
18	12	1	10000	5	1	0	5	0
18	13	1	10000	5	1	0	5	0
20	14	1	10000	5	1	0	5	0
21	15	1	10000	5	1	0	5	0
22	16	1	10000	5	1	0	5	0
21	17	1	10000	5	1	0	5	0
21	18	1	10000	5	1	0	5	0
23	19	1	10000	5	1	0	5	0
23	20	1	10000	5	1	0	5	0
23	21	1	10000	5	1	0	5	0
23	22	1	10000	5	1	0	5	0
22	23	1	10000	5	1	0	5	0
20	24	1	10000	5	1	0	5	0
20	25	1	10000	5	1	0	5	0
21	26	1	10000	5	1	0	5	0
21	27	1	10000	5	1	0	5	0
21	28	1	10000	5	1	0	5	0
20	29	1	10000	5	1	0	5	0
20	30	1	10000	5	1	0	5	0
20	31	1	10000	5	1	0	5	0
22	32	1	10000	5	1	0	5	0
24	33	1	10000	5	1	0	5	0
25	34	1	10000	5	1	0	5	0
24	35	1	10000	5	1	0	5	0
23	36	1	10000	5	1	0	5	0
22	37	1	10000	5	1	0	5	0
22	38	1	10000	5	1	0	5	0
23	39	1	10000	5	1	0	5	0
23	40	1	10000	5	1	0	5	0
24	41	1	10000	5	1	0	5	0
26	42	1	10000	5	1	0	5	0
26	43	1	10000	5	1	0	5	0
24	44	1	10000	5	1	0	5	0
23	45	1	10000	5	1	0	5	0
25	46	1	10000	5	1	0	5	0
28	47	1	10000	5	1	0	5	0
28	48	1	10000	5	1	0	5	0
27	49	1	10000	5	1	0	5	0
26	50	1	10000	5	1	0	5	0
27	51	1	10000	5	1	0	5	0
31	52	1	10000	5	1	0	5	0
33	53	1	10000	5	1	0	5	0
33	54	1	10000	5	1	0	5	0
34	55	1	10000	5	1	0	5	0
33	56	1	10000	5	1	0	5	0
31	57	1	10000	5	1	0	5	0
30	58	1	10000	5	1	0	5	0
29	59	1	10000	5	1	0	5	0
29	60	1	10000	5	1	0	5	0
27	61	1	10000	5	1	0	5	0
27	62	1	10000	5	1	0	5	0
26	63	1	10000	5	1	0	5	0
27	64	1	10000	5	1	0	5	0
26	65	1	10000	5	1	0	5	0
26	66	1	10000	5	1	0	5	0
26	67	1	10000	5	1	0	5	0
26	68	1	10000	5	1	0	5	0
25	69	1	10000	5	1	0	5	0
26	70	1	10000	5	1	0	5	0
24	71	1	10000	5	1	0	5	0
23	72	1	10000	5	1	0	5	0
23	73	1	10000	5	1	0	5	0
24	74	1	10000	5	1	0	5	0
24	75	1	10000	5	1	0	5	0
23	76	1	10000	5	1	0	5	0
21	77	1	10000	5	1	0	5	0
21	78	1	10000	5	1	0	5	0
21	79	1	10000	5	1	0	5	0
21	80	1	10000	5	1	0	5	0
20	81	1	10000	5	1	0	5	0
20	82	1	10000	5	1	0	5	0
20	83	1	10000	5	1	0	5	0
19	84	1	10000	5	1	0	5	0
18	85	1	10000	5	1	0	5	0
18	86	1	10000	5	1	0	5	0
20	87	1	10000	5	1	0	5	0
19	88	1	10000	5	1	0	5	0
19	89	1	10000	5	1	0	5	0
19	90	1	10000	5	1	0	5	0
19	91	1	10000	5	1	0	5	0
19	92	1	10000	5	1	0	5	0
18	93	1	10000	5	1	0	5	0
19	94	1	10000	5	1	0	5	0
19	95	1	10000	5	1	0	5	0
18	96	1	10000	5	1	0	5	0
18	97	1	10000	5	1	0	5	0
19	98	1	10000	5	1	0	5	0
20	99	1	10000	5	1	0	5	0
20	100	1	10000	5	1	0	5	0
21	101	1	10000	5	1	0	5	0
22	102	1	10000	5	1	0	5	0
22	103	1	10000	5	1	0	5	0
22	104	1	10000	5	1	0	5	0
20	105	1	10000	5	1	0	5	0
20	106	1	10000	5	1	0	5	0
21	107	1	10000	5	1	0	5	0
20	108	1	10000	5	1	0	5	0
20	109	1	10000	5	1	0	5	0
19	110	1	10000	5	1	0	5	0
19	111	1	10000	5	1	0	5	0
18	112	1	10000	5	1	0	5	0
17	113	1	10000	5	1	0	5	0
18	114	1	10000	5	1	0	5	0
18	115	1	10000	5	1	0	5	0
17	116	1	10000	5	1	0	5	0
15	117	1	10000	5	1	0	5	0
16	118	1	10000	5	1	0	5	0
16	119	1	10000	5	1	0	5	0
17	120	1	10000	5	1	0	5	0
17	121	1	10000	5	1	0	5	0
17	122	1	10000	5	1	0	5	0
18	123	1	10000	5	1	0	5	0
17	124	1	10000	5	1	0	5	0
17	125	1	10000	5	1	0	5	0
20	126	1	10000	5	1	0	5	0
23	127	1	10000	5	1	0	5	0
24	128	1	10000	5	1	0	5	0
23	129	1	10000	5	1	0	5	0
25	130	1	10000	5	1	0	5	0
24	131	1	10000	5	1	0	5	0
23	132	1	10000	5	1	0	5	0
23	133	1	10000	5	1	0	5	0
24	134	1	10000	5	1	0	5	0
25	135	1	10000	5	1	0	5	0
26	136	1	10000	5	1	0	5	0
26	137	1	10000	5	1	0	5	0
28	138	1	10000	5	1	0	5	0
26	139	1	10000	5	1	0	5	0
25	140	1	10000	5	1	0	5	0
25	141	1	10000	5	1	0	5	0
25	142	1	10000	5	1	0	5	0
24	143	1	10000	5	1	0	5	0
23	144	1	10000	5	1	0	5	0
23	145	1	10000	5	1	0	5	0
22	146	1	10000	5	1	0	5	0
23	147	1	10000	5	1	0	5	0
22	148	1	10000	5	1	0	5	0
21	149	1	10000	5	1	0	5	0
20	150	1	10000	5	1	0	5	0
20	151	1	10000	5	1	0	5	0
19	152	1	10000	5	1	0	5	0
18	153	1	10000	5	1	0	5	0
18	154	1	10000	5	1	0	5	0
19	155	1	10000	5	1	0	5	0
18	156	1	10000	5	1	0	5	0
17	157	1	10000	5	1	0	5	0
18	158	1	10000	5	1	0	5	0
18	159	1	10000	5	1	0	5	0
18	160	1	10000	5	1	0	5	0
17	161	1	10000	5	1	0	5	0
18	162	1	10000	5	1	0	5	0
17	163	1	10000	5	1	0	5	0
17	164	1	10000	5	1	0	5	0
18	165	1	10000	5	1	0	5	0
18	166	1	10000	5	1	0	5	0
18	167	1	10000	5	1	0	5	0
17	168	1	10000	5	1	0	5	0
17	169	1	10000	5	1	0	5	0
17	170	1	10000	5	1	0	5	0
18	171	1	10000	5	1	0	5	0
20	172	1	10000	5	1	0	5	0
21	173	1	10000	5	1	0	5	0
22	174	1	10000	5	1	0	5	0
22	175	1	10000	5	1	0	5	0
21	176	1	10000	5	1	0	5	0
19	177	1	10000	5	1	0	5	0
19	178	1	10000	5	1	0	5	0
19	179	1	10000	5	1	0	5	0
19	180	1	10000	5	1	0	5	0
19	181	1	10000	5	1	0	5	0
19	182	1	10000	5	1	0	5	0
19	183	1	10000	5	1	0	5	0
19	184	1	10000	5	1	0	5	0
18	185	1	10000	5	1	0	5	0
19	186	1	10000	5	1	0	5	0
20	187	1	10000	5	1	0	5	0
20	188	1	10000	5	1	0	5	0
20	189	1	10000	5	1	0	5	0
19	190	1	10000	5	1	0	5	0
19	191	1	10000	5	1	0	5	0
20	192	1	10000	5	1	0	5	0
20	193	1	10000	5	1	0	5	0
20	194	1	10000	5	1	0	5	0
23	195	1	10000	5	1	0	5	0
22	196	1	10000	5	1	0	5	0
21	197	1	10000	5	1	0	5	0
23	198	1	10000	5	1	0	5	0
24	199	1	10000	5	1	0	5	0
25	200	1	10000	5	1	0	5	0
25	201	1	10000	5	1	0	5	0
24	202	1	10000	5	1	0	5	0
23	203	1	10000	5	1	0	5	0
23	204	1	10000	5	1	0	5	0
22	205	1	10000	5	1	0	5	0
22	206	1	10000	5	1	0	5	0
24	207	1	10000	5	1	0	5	0
23	208	1	10000	5	1	0	5	0
22	209	1	10000	5	1	0	5	0
22	210	1	10000	5	1	0	5	0
22	211	1	10000	5	1	0	5	0
23	212	1	10000	5	1	0	5	0
25	213	1	10000	5	1	0	5	0
26	214	1	10000	5	1	0	5	0
27	215	1	10000	5	1	0	5	0
27	216	1	10000	5	1	0	5	0
24	217	1	10000	5	1	0	5	0
25	218	1	10000	5	1	0	5	0
24	219	1	10000	5	1	0	5	0
24	220	1	10000	5	1	0	5	0
24	221	1	10000	5	1	0	5	0
23	222	1	10000	5	1	0	5	0
23	223	1	10000	5	1	0	5	0
24	224	1	10000	5	1	0	5	0
25	225	1	10000	5	1	0	5	0
25	226	1	10000	5	1	0	5	0
26	227	1	10000	5	1	0	5	0
26	228	1	10000	5	1	0	5	0
26	229	1	10000	5	1	0	5	0
25	230	1	10000	5	1	0	5	0
24	231	1	10000	5	1	0	5	0
25	232	1	10000	5	1	0	5	0
25	233	1	10000	5	1	0	5	0
25	234	1	10000	5	1	0	5	0
25	235	1	10000	5	1	0	5	0
26	236	1	10000	5	1	0	5	0
26	237	1	10000	5	1	0	5	0
26	238	1	10000	5	1	0	5	0
26	239	1	10000	5	1	0	5	0
27	240	1	10000	5	1	0	5	0
26	241	1	10000	5	1	0	5	0
25	242	1	10000	5	1	0	5	0
24	243	1	10000	5	1	0	5	0
23	244	1	10000	5	1	0	5	0
22	245	1	10000	5	1	0	5	0
22	246	1	10000	5	1	0	5	0
24	247	1	10000	5	1	0	5	0
24	248	1	10000	5	1	0	5	0
23	249	1	10000	5	1	0	5	0
23	250	1	10000	5	1	0	5	0
22	251	1	10000	5	1	0	5	0
23	252	1	10000	5	1	0	5	0
23	253	1	10000	5	1	0	5	0
24	254	1	10000	5	1	0	5	0
23	255	1	10000	5	1	0	5	0
23	256	1	10000	5	1	0	5	0
22	257	1	10000	5	1	0	5	0
21	258	1	10000	5	1	0	5	0
21	259	1	10000	5	1	0	5	0
22	260	1	10000	5	1	0	5	0
22	261	1	10000	5	1	0	5	0
21	262	1	10000	5	1	0	5	0
21	263	1	10000	5	1	0	5	0
21	264	1	10000	5	1	0	5	0
22	265	1	10000	5	1	0	5	0
25	266	1	10000	5	1	0	5	0
29	267	1	10000	5	1	0	5	0
27	268	1	10000	5	1	0	5	0
28	269	1	10000	5	1	0	5	0
28	270	1	10000	5	1	0	5	0
28	271	1	10000	5	1	0	5	0
27	272	1	10000	5	1	0	5	0
27	273	1	10000	5	1	0	5	0
26	274	1	10000	5	1	0	5	0
25	275	1	10000	5	1	0	5	0
25	276	1	10000	5	1	0	5	0
22	277	1	10000	5	1	0	5	0
23	278	1	10000	5	1	0	5	0
24	279	1	10000	5	1	0	5	0
25	280	1	10000	5	1	0	5	0
25	281	1	10000	5	1	0	5	0
24	282	1	10000	5	1	0	5	0
25	283	1	10000	5	1	0	5	0
26	284	1	10000	5	1	0	5	0
26	285	1	10000	5	1	0	5	0
26	286	1	10000	5	1	0	5	0
26	287	1	10000	5	1	0	5	0
26	288	1	10000	5	1	0	5	0
25	289	1	10000	5	1	0	5	0
24	290	1	10000	5	1	0	5	0
24	291	1	10000	5	1	0	5	0
24	292	1	10000	5	1	0	5	0
25	293	1	10000	5	1	0	5	0
25	294	1	10000	5	1	0	5	0
26	295	1	10000	5	1	0	5	0
26	296	1	10000	5	1	0	5	0
23	297	1	10000	5	1	0	5	0
25	298	1	10000	5	1	0	5	0
26	299	1	10000	5	1	0	5	0
27	300	1	10000	5	1	0	5	0
28	301	1	10000	5	1	0	5	0
28	302	1	10000	5	1	0	5	0
27	303	1	10000	5	1	0	5	0
25	304	1	10000	5	1	0	5	0
24	305	1	10000	5	1	0	5	0
25	306	1	10000	5	1	0	5	0
28	307	1	10000	5	1	0	5	0
27	308	1	10000	5	1	0	5	0
26	309	1	10000	5	1	0	5	0
25	310	1	10000	5	1	0	5	0
26	311	1	10000	5	1	0	5	0
26	312	1	10000	5	1	0	5	0
24	313	1	10000	5	1	0	5	0
25	314	1	10000	5	1	0	5	0
25	315	1	10000	5	1	0	5	0
24	316	1	10000	5	1	0	5	0
23	317	1	10000	5	1	0	5	0
25	318	1	10000	5	1	0	5	0
25	319	1	10000	5	1	0	5	0
27	320	1	10000	5	1	0	5	0
28	321	1	10000	5	1	0	5	0
28	322	1	10000	5	1	0	5	0
27	323	1	10000	5	1	0	5	0
27	324	1	10000	5	1	0	5	0
27	325	1	10000	5	1	0	5	0
30	326	1	10000	5	1	0	5	0
30	327	1	10000	5	1	0	5	0
31	328	1	10000	5	1	0	5	0
29	329	1	10000	5	1	0	5	0
28	330	1	10000	5	1	0	5	0
27	331	1	10000	5	1	0	5	0
27	332	1	10000	5	1	0	5	0
26	333	1	10000	5	1	0	5	0
26	334	1	10000	5	1	0	5	0
28	335	1	10000	5	1	0	5	0
28	336	1	10000	5	1	0	5	0
26	337	1	10000	5	1	0	5	0
25	338	1	10000	5	1	0	5	0
24	339	1	10000	5	1	0	5	0
25	340	1	10000	5	1	0	5	0
26	341	1	10000	5	1	0	5	0
26	342	1	10000	5	1	0	5	0
25	343	1	10000	5	1	0	5	0
25	344	1	10000	5	1	0	5	0
28	345	1	10000	5	1	0	5	0
28	346	1	10000	5	1	0	5	0
29	347	1	10000	5	1	0	5	0
27	348	1	10000	5	1	0	5	0
26	349	1	10000	5	1	0	5	0
26	350	1	10000	5	1	0	5	0
25	351	1	10000	5	1	0	5	0
25	352	1	10000	5	1	0	5	0
25	353	1	10000	5	1	0	5	0
25	354	1	10000	5	1	0	5	0
25	355	1	10000	5	1	0	5	0
25	356	1	10000	5	1	0	5	0
23	357	1	10000	5	1	0	5	0
22	358	1	10000	5	1	0	5	0
23	359	1	10000	5	1	0	5	0
24	360	1	10000	5	1	0	5	0
24	361	1	10000	5	1	0	5	0
24	362	1	10000	5	1	0	5	0
23	363	1	10000	5	1	0	5	0
22	364	1	10000	5	1	0	5	0
22	365	1	10000	5	1	0	5	0
21	366	1	10000	5	1	0	5	0
22	367	1	10000	5	1	0	5	0
21	368	1	10000	5	1	0	5	0
21	369	1	10000	5	1	0	5	0
21	370	1	10000	5	1	0	5	0
24	371	1	10000	5	1	0	5	0
24	372	1	10000	5	1	0	5	0
23	373	1	10000	5	1	0	5	0
24	374	1	10000	5	1	0	5	0
24	375	1	10000	5	1	0	5	0
23	376	1	10000	5	1	0	5	0
21	377	1	10000	5	1	0	5	0
21	378	1	10000	5	1	0	5	0
22	379	1	10000	5	1	0	5	0
21	380	1	10000	5	1	0	5	0
20	381	1	10000	5	1	0	5	0
20	382	1	10000	5	1	0	5	0
20	383	1	10000	5	1	0	5	0
19	384	1	10000	5	1	0	5	0
18	385	1	10000	5	1	0	5	0
20	386	1	10000	5	1	0	5	0
22	387	1	10000	5	1	0	5	0
23	388	1	10000	5	1	0	5	0
25	389	1	10000	5	1	0	5	0
24	390	1	10000	5	1	0	5	0
23	391	1	10000	5	1	0	5	0
24	392	1	10000	5	1	0	5	0
26	393	1	10000	5	1	0	5	0
27	394	1	10000	5	1	0	5	0
29	395	1	10000	5	1	0	5	0
30	396	1	10000	5	1	0	5	0
29	397	1	10000	5	1	0	5	0
28	398	1	10000	5	1	0	5	0
28	399	1	10000	5	1	0	5	0
29	400	1	10000	5	1	0	5	0
28	401	1	10000	5	1	0	5	0
26	402	1	10000	5	1	0	5	0
27	403	1	10000	5	1	0	5	0
26	404	1	10000	5	1	0	5	0
25	405	1	10000	5	1	0	5	0
26	406	1	10000	5	1	0	5	0
28	407	1	10000	5	1	0	5	0
27	408	1	10000	5	1	0	5	0
26	409	1	10000	5	1	0	5	0
25	410	1	10000	5	1	0	5	0
24	411	1	10000	5	1	0	5	0
22	412	1	10000	5	1	0	5	0
22	413	1	10000	5	1	0	5	0
22	414	1	10000	5	1	0	5	0
22	415	1	10000	5	1	0	5	0
22	416	1	10000	5	1	0	5	0
19	417	1	10000	5	1	0	5	0
19	418	1	10000	5	1	0	5	0
19	419	1	10000	5	1	0	5	0
19	420	1	10000	5	1	0	5	0
19	421	1	10000	5	1	0	5	0
20	422	1	10000	5	1	0	5	0
20	423	1	10000	5	1	0	5	0
20	424	1	10000	5	1	0	5	0
19	425	1	10000	5	1	0	5	0
19	426	1	10000	5	1	0	5	0
23	427	1	10000	5	1	0	5	0
28	428	1	10000	5	1	0	5	0
28	429	1	10000	5	1	0	5	0
29	430	1	10000	5	1	0	5	0
32	431	1	10000	5	1	0	5	0
35	432	1	10000	5	1	0	5	0
35	433	1	10000	5	1	0	5	0
38	434	1	10000	5	1	0	5	0
40	435	1	10000	5	1	0	5	0
43	436	1	10000	5	1	0	5	0
42	437	1	10000	5	1	0	5	0
43	438	1	10000	5	1	0	5	0
42	439	1	10000	5	1	0	5	0
44	440	1	10000	5	1	0	5	0
46	441	1	10000	5	1	0	5	0
47	442	1	10000	5	1	0	5	0
46	443	1	10000	5	1	0	5	0
47	444	1	10000	5	1	0	5	0
51	445	1	10000	5	1	0	5	0
55	446	1	10000	5	1	0	5	0
56	447	1	10000	5	1	0	5	0
53	448	1	10000	5	1	0	5	0
50	449	1	10000	5	1	0	5	0
48	450	1	10000	5	1	0	5	0
46	451	1	10000	5	1	0	5	0
46	452	1	10000	5	1	0	5	0
46	453	1	10000	5	1	0	5	0
47	454	1	10000	5	1	0	5	0
47	455	1	10000	5	1	0	5	0
46	456	1	10000	5	1	0	5	0
44	457	1	10000	5	1	0	5	0
44	458	1	10000	5	1	0	5	0
44	459	1	10000	5	1	0	5	0
44	460	1	10000	5	1	0	5	0
43	461	1	10000	5	1	0	5	0
42	462	1	10000	5	1	0	5	0
40	463	1	10000	5	1	0	5	0
41	464	1	10000	5	1	0	5	0
40	465	1	10000	5	1	0	5	0
39	466	1	10000	5	1	0	5	0
42	467	1	10000	5	1	0	5	0
41	468	1	10000	5	1	0	5	0
40	469	1	10000	5	1	0	5	0
40	470	1	10000	5	1	0	5	0
40	471	1	10000	5	1	0	5	0
39	472	1	10000	5	1	0	5	0
38	473	1	10000	5	1	0	5	0
39	474	1	10000	5	1	0	5	0
39	475	1	10000	5	1	0	5	0
37	476	1	10000	5	1	0	5	0
33	477	1	10000	5	1	0	5	0
33	478	1	10000	5	1	0	5	0
32	479	1	10000	5	1	0	5	0
31	480	1	10000	5	1	0	5	0
31	481	1	10000	5	1	0	5	0
30	482	1	10000	5	1	0	5	0
31	483	1	10000	5	1	0	5	0
29	484	1	10000	5	1	0	5	0
28	485	1	10000	5	1	0	5	0
28	486	1	10000	5	1	0	5	0
30	487	1	10000	5	1	0	5	0
29	488	1	10000	5	1	0	5	0
28	489	1	10000	5	1	0	5	0
27	490	1	10000	5	1	0	5	0
28	491	1	10000	5	1	0	5	0
29	492	1	10000	5	1	0	5	0
30	493	1	10000	5	1	0	5	0
34	494	1	10000	5	1	0	5	0
35	495	1	10000	5	1	0	5	0
34	496	1	10000	5	1	0	5	0
31	497	1	10000	5	1	0	5	0
31	498	1	10000	5	1	0	5	0
31	499	1	10000	5	1	0	5	0
32	500	1	10000	5	1	0	5	0
31	501	1	10000	5	1	0	5	0
31	501	1	10000	5	1	0	5	1
31	502	1	10000	5	1	0	5	1
29	504	1	10000	5	1	0	5	1
28	505	1	10000	5	1	0	5	1
28	506	1	10000	5	1	0	5	1
30	507	1	10000	5	1	0	5	1
29	508	1	10000	5	1	0	5	1
27	509	1	10000	5	1	0	5	1
26	510	1	10000	5	1	0	5	1
25	511	1	10000	5	1	0	5	1
24	512	1	10000	5	1	0	5	1
24	513	1	10000	5	1	0	5	1
25	514	1	10000	5	1	0	5	1
26	515	1	10000	5	1	0	5	1
24	516	1	10000	5	1	0	5	1
23	517	1	10000	5	1	0	5	1
23	518	1	10000	5	1	0	5	1
25	519	1	10000	5	1	0	5	1
26	520	1	10000	5	1	0	5	1
25	521	1	10000	5	1	0	5	1
26	522	1	10000	5	1	0	5	1
25	523	1	10000	5	1	0	5	1
26	524	1	10000	5	1	0	5	1
26	525	1	10000	5	1	0	5	1
25	526	1	10000	5	1	0	5	1
28	527	1	10000	5	1	0	5	1
30	528	1	10000	5	1	0	5	1
31	529	1	10000	5	1	0	5	1
29	530	1	10000	5	1	0	5	1
28	531	1	10000	5	1	0	5	1
28	532	1	10000	5	1	0	5	1
26	533	1	10000	5	1	0	5	1
27	534	1	10000	5	1	0	5	1
27	535	1	10000	5	1	0	5	1
25	536	1	10000	5	1	0	5	1
22	537	1	10000	5	1	0	5	1
23	538	1	10000	5	1	0	5	1
22	539	1	10000	5	1	0	5	1
24	540	1	10000	5	1	0	5	1
27	541	1	10000	5	1	0	5	1
29	542	1	10000	5	1	0	5	1
28	543	1	10000	5	1	0	5	1
28	544	1	10000	5	1	0	5	1
27	545	1	10000	5	1	0	5	1
27	546	1	10000	5	1	0	5	1
28	547	1	10000	5	1	0	5	1
27	548	1	10000	5	1	0	5	1
26	549	1	10000	5	1	0	5	1
25	550	1	10000	5	1	0	5	1
24	551	1	10000	5	1	0	5	1
24	552	1	10000	5	1	0	5	0
23	553	1	10000	5	1	0	5	0
23	554	1	10000	5	1	0	5	0
23	555	1	10000	5	1	0	5	0
22	556	1	10000	5	1	0	5	0
20	557	1	10000	5	1	0	5	0
20	558	1	10000	5	1	0	5	0
22	559	1	10000	5	1	0	5	0
23	560	1	10000	5	1	0	5	0
22	561	1	10000	5	1	0	5	0
27	562	1	10000	5	1	0	5	0
30	563	1	10000	5	1	0	5	0
30	564	1	10000	5	1	0	5	0
29	565	1	10000	5	1	0	5	0
30	566	1	10000	5	1	0	5	0
30	567	1	10000	5	1	0	5	0
30	568	1	10000	5	1	0	5	0
32	569	1	10000	5	1	0	5	0
31	570	1	10000	5	1	0	5	0
30	571	1	10000	5	1	0	5	0
29	572	1	10000	5	1	0	5	0
28	573	1	10000	5	1	0	5	0
28	574	1	10000	5	1	0	5	0
27	575	1	10000	5	1	0	5	0
26	576	1	10000	5	1	0	5	0
23	577	1	10000	5	1	0	5	0
23	578	1	10000	5	1	0	5	0
22	579	1	10000	5	1	0	5	0
22	580	1	10000	5	1	0	5	0
23	581	1	10000	5	1	0	5	0
26	582	1	10000	5	1	0	5	0
28	583	1	10000	5	1	0	5	0
29	584	1	10000	5	1	0	5	0
31	585	1	10000	5	1	0	5	0
31	586	1	10000	5	1	0	5	0
33	587	1	10000	5	1	0	5	0
34	588	1	10000	5	1	0	5	0
33	589	1	10000	5	1	0	5	0
33	590	1	10000	5	1	0	5	0
35	591	1	10000	5	1	0	5	0
37	592	1	10000	5	1	0	5	0
36	593	1	10000	5	1	0	5	0
38	594	1	10000	5	1	0	5	0
46	595	1	10000	5	1	0	5	0
69	596	1	10000	5	1	0	5	0
82	597	1	10000	5	1	0	5	0
82	598	1	10000	5	1	0	5	0
86	599	1	10000	5	1	0	5	0
91	600	1	10000	5	1	0	5	0
100	601	1	10000	5	1	0	5	0
116	602	1	10000	5	1	0	5	0
120	603	1	10000	5	1	0	5	0
152	604	1	10000	5	1	0	5	0
209	605	1	10000	5	1	0	5	0
221	606	1	10000	5	1	0	5	0
224	607	1	10000	5	1	0	5	0
238	608	1	10000	5	1	0	5	0
262	609	1	10000	5	1	0	5	0
278	610	1	10000	5	1	0	5	0
299	611	1	10000	5	1	0	5	0
325	612	1	10000	5	1	0	5	0
345	613	1	10000	5	1	0	5	0
349	614	1	10000	5	1	0	5	0
342	615	1	10000	5	1	0	5	0
332	616	1	10000	5	1	0	5	0
317	617	1	10000	5	1	0	5	0
303	618	1	10000	5	1	0	5	0
295	619	1	10000	5	1	0	5	0
291	620	1	10000	5	1	0	5	0
284	621	1	10000	5	1	0	5	0
280	622	1	10000	5	1	0	5	0
277	623	1	10000	5	1	0	5	0
273	624	1	10000	5	1	0	5	0
269	625	1	10000	5	1	0	5	0
266	626	1	10000	5	1	0	5	0
265	627	1	10000	5	1	0	5	0
261	628	1	10000	5	1	0	5	0
259	629	1	10000	5	1	0	5	0
257	630	1	10000	5	1	0	5	0
255	631	1	10000	5	1	0	5	0
252	632	1	10000	5	1	0	5	0
245	633	1	10000	5	1	0	5	0
240	634	1	10000	5	1	0	5	0
233	635	1	10000	5	1	0	5	0
228	636	1	10000	5	1	0	5	0
220	637	1	10000	5	1	0	5	0
210	638	1	10000	5	1	0	5	0
203	639	1	10000	5	1	0	5	0
198	640	1	10000	5	1	0	5	0
194	641	1	10000	5	1	0	5	0
189	642	1	10000	5	1	0	5	0
185	643	1	10000	5	1	0	5	0
181	644	1	10000	5	1	0	5	0
175	645	1	10000	5	1	0	5	0
167	646	1	10000	5	1	0	5	0
163	647	1	10000	5	1	0	5	0
155	648	1	10000	5	1	0	5	0
148	649	1	10000	5	1	0	5	0
143	650	1	10000	5	1	0	5	0
137	651	1	10000	5	1	0	5	0
131	652	1	10000	5	1	0	5	0
127	653	1	10000	5	1	0	5	0
125	654	1	10000	5	1	0	5	0
122	655	1	10000	5	1	0	5	0
118	656	1	10000	5	1	0	5	0
113	657	1	10000	5	1	0	5	0
110	658	1	10000	5	1	0	5	0
106	659	1	10000	5	1	0	5	0
102	660	1	10000	5	1	0	5	0
98	661	1	10000	5	1	0	5	0
95	662	1	10000	5	1	0	5	0
93	663	1	10000	5	1	0	5	0
92	664	1	10000	5	1	0	5	0
92	665	1	10000	5	1	0	5	0
93	666	1	10000	5	1	0	5	0
96	667	1	10000	5	1	0	5	0
94	668	1	10000	5	1	0	5	0
90	669	1	10000	5	1	0	5	0
86	670	1	10000	5	1	0	5	0
86	671	1	10000	5	1	0	5	0
84	672	1	10000	5	1	0	5	0
82	673	1	10000	5	1	0	5	0
80	674	1	10000	5	1	0	5	0
79	675	1	10000	5	1	0	5	0
77	676	1	10000	5	1	0	5	0
73	677	1	10000	5	1	0	5	0
74	678	1	10000	5	1	0	5	0
71	679	1	10000	5	1	0	5	0
71	680	1	10000	5	1	0	5	0
71	681	1	10000	5	1	0	5	0
68	682	1	10000	5	1	0	5	0
66	683	1	10000	5	1	0	5	0
64	684	1	10000	5	1	0	5	0
61	685	1	10000	5	1	0	5	0
59	686	1	10000	5	1	0	5	0
58	687	1	10000	5	1	0	5	0
56	688	1	10000	5	1	0	5	0
54	689	1	10000	5	1	0	5	0
51	690	1	10000	5	1	0	5	0
49	691	1	10000	5	1	0	5	0
48	692	1	10000	5	1	0	5	0
47	693	1	10000	5	1	0	5	0
47	694	1	10000	5	1	0	5	0
48	695	1	10000	5	1	0	5	0
46	696	1	10000	5	1	0	5	0
43	697	1	10000	5	1	0	5	0
42	698	1	10000	5	1	0	5	0
40	699	1	10000	5	1	0	5	0
39	700	1	10000	5	1	0	5	0
37	701	1	10000	5	1	0	5	0
36	702	1	10000	5	1	0	5	0
