value	EMG	Stimulus	EMG_sensitivity	Total_Trial_Nr	practise	acq	probe_nr	Startle_Probe
15	1	7	10000	1	1	0	1	0
16	2	7	10000	1	1	0	1	0
16	3	7	10000	1	1	0	1	0
16	4	7	10000	1	1	0	1	0
15	5	7	10000	1	1	0	1	0
15	6	7	10000	1	1	0	1	0
15	7	7	10000	1	1	0	1	0
15	8	7	10000	1	1	0	1	0
15	9	7	10000	1	1	0	1	0
14	10	7	10000	1	1	0	1	0
14	11	7	10000	1	1	0	1	0
16	12	7	10000	1	1	0	1	0
16	13	7	10000	1	1	0	1	0
17	14	7	10000	1	1	0	1	0
17	15	7	10000	1	1	0	1	0
19	16	7	10000	1	1	0	1	0
21	17	7	10000	1	1	0	1	0
22	18	7	10000	1	1	0	1	0
23	19	7	10000	1	1	0	1	0
22	20	7	10000	1	1	0	1	0
22	21	7	10000	1	1	0	1	0
22	22	7	10000	1	1	0	1	0
21	23	7	10000	1	1	0	1	0
21	24	7	10000	1	1	0	1	0
21	25	7	10000	1	1	0	1	0
20	26	7	10000	1	1	0	1	0
20	27	7	10000	1	1	0	1	0
20	28	7	10000	1	1	0	1	0
18	29	7	10000	1	1	0	1	0
17	30	7	10000	1	1	0	1	0
16	31	7	10000	1	1	0	1	0
16	32	7	10000	1	1	0	1	0
16	33	7	10000	1	1	0	1	0
16	34	7	10000	1	1	0	1	0
16	35	7	10000	1	1	0	1	0
15	36	7	10000	1	1	0	1	0
17	37	7	10000	1	1	0	1	0
19	38	7	10000	1	1	0	1	0
23	39	7	10000	1	1	0	1	0
27	40	7	10000	1	1	0	1	0
27	41	7	10000	1	1	0	1	0
28	42	7	10000	1	1	0	1	0
29	43	7	10000	1	1	0	1	0
28	44	7	10000	1	1	0	1	0
28	45	7	10000	1	1	0	1	0
30	46	7	10000	1	1	0	1	0
31	47	7	10000	1	1	0	1	0
32	48	7	10000	1	1	0	1	0
30	49	7	10000	1	1	0	1	0
29	50	7	10000	1	1	0	1	0
29	51	7	10000	1	1	0	1	0
28	52	7	10000	1	1	0	1	0
27	53	7	10000	1	1	0	1	0
26	54	7	10000	1	1	0	1	0
25	55	7	10000	1	1	0	1	0
25	56	7	10000	1	1	0	1	0
26	57	7	10000	1	1	0	1	0
26	58	7	10000	1	1	0	1	0
28	59	7	10000	1	1	0	1	0
28	60	7	10000	1	1	0	1	0
26	61	7	10000	1	1	0	1	0
27	62	7	10000	1	1	0	1	0
26	63	7	10000	1	1	0	1	0
27	64	7	10000	1	1	0	1	0
27	65	7	10000	1	1	0	1	0
25	66	7	10000	1	1	0	1	0
25	67	7	10000	1	1	0	1	0
24	68	7	10000	1	1	0	1	0
24	69	7	10000	1	1	0	1	0
26	70	7	10000	1	1	0	1	0
28	71	7	10000	1	1	0	1	0
29	72	7	10000	1	1	0	1	0
29	73	7	10000	1	1	0	1	0
28	74	7	10000	1	1	0	1	0
27	75	7	10000	1	1	0	1	0
25	76	7	10000	1	1	0	1	0
25	77	7	10000	1	1	0	1	0
24	78	7	10000	1	1	0	1	0
25	79	7	10000	1	1	0	1	0
27	80	7	10000	1	1	0	1	0
26	81	7	10000	1	1	0	1	0
25	82	7	10000	1	1	0	1	0
24	83	7	10000	1	1	0	1	0
23	84	7	10000	1	1	0	1	0
22	85	7	10000	1	1	0	1	0
22	86	7	10000	1	1	0	1	0
22	87	7	10000	1	1	0	1	0
22	88	7	10000	1	1	0	1	0
20	89	7	10000	1	1	0	1	0
20	90	7	10000	1	1	0	1	0
19	91	7	10000	1	1	0	1	0
18	92	7	10000	1	1	0	1	0
18	93	7	10000	1	1	0	1	0
18	94	7	10000	1	1	0	1	0
18	95	7	10000	1	1	0	1	0
19	96	7	10000	1	1	0	1	0
20	97	7	10000	1	1	0	1	0
19	98	7	10000	1	1	0	1	0
19	99	7	10000	1	1	0	1	0
20	100	7	10000	1	1	0	1	0
19	101	7	10000	1	1	0	1	0
18	102	7	10000	1	1	0	1	0
17	103	7	10000	1	1	0	1	0
16	104	7	10000	1	1	0	1	0
16	105	7	10000	1	1	0	1	0
17	106	7	10000	1	1	0	1	0
17	107	7	10000	1	1	0	1	0
16	108	7	10000	1	1	0	1	0
15	109	7	10000	1	1	0	1	0
14	110	7	10000	1	1	0	1	0
13	111	7	10000	1	1	0	1	0
14	112	7	10000	1	1	0	1	0
16	113	7	10000	1	1	0	1	0
17	114	7	10000	1	1	0	1	0
19	115	7	10000	1	1	0	1	0
18	116	7	10000	1	1	0	1	0
18	117	7	10000	1	1	0	1	0
17	118	7	10000	1	1	0	1	0
18	119	7	10000	1	1	0	1	0
19	120	7	10000	1	1	0	1	0
18	121	7	10000	1	1	0	1	0
17	122	7	10000	1	1	0	1	0
17	123	7	10000	1	1	0	1	0
16	124	7	10000	1	1	0	1	0
15	125	7	10000	1	1	0	1	0
15	126	7	10000	1	1	0	1	0
15	127	7	10000	1	1	0	1	0
16	128	7	10000	1	1	0	1	0
14	129	7	10000	1	1	0	1	0
12	130	7	10000	1	1	0	1	0
13	131	7	10000	1	1	0	1	0
12	132	7	10000	1	1	0	1	0
14	133	7	10000	1	1	0	1	0
15	134	7	10000	1	1	0	1	0
15	135	7	10000	1	1	0	1	0
14	136	7	10000	1	1	0	1	0
14	137	7	10000	1	1	0	1	0
13	138	7	10000	1	1	0	1	0
13	139	7	10000	1	1	0	1	0
14	140	7	10000	1	1	0	1	0
13	141	7	10000	1	1	0	1	0
13	142	7	10000	1	1	0	1	0
14	143	7	10000	1	1	0	1	0
14	144	7	10000	1	1	0	1	0
14	145	7	10000	1	1	0	1	0
14	146	7	10000	1	1	0	1	0
14	147	7	10000	1	1	0	1	0
14	148	7	10000	1	1	0	1	0
13	149	7	10000	1	1	0	1	0
12	150	7	10000	1	1	0	1	0
13	151	7	10000	1	1	0	1	0
13	152	7	10000	1	1	0	1	0
13	153	7	10000	1	1	0	1	0
13	154	7	10000	1	1	0	1	0
12	155	7	10000	1	1	0	1	0
12	156	7	10000	1	1	0	1	0
10	157	7	10000	1	1	0	1	0
10	158	7	10000	1	1	0	1	0
11	159	7	10000	1	1	0	1	0
12	160	7	10000	1	1	0	1	0
11	161	7	10000	1	1	0	1	0
11	162	7	10000	1	1	0	1	0
12	163	7	10000	1	1	0	1	0
11	164	7	10000	1	1	0	1	0
11	165	7	10000	1	1	0	1	0
11	166	7	10000	1	1	0	1	0
11	167	7	10000	1	1	0	1	0
13	168	7	10000	1	1	0	1	0
11	169	7	10000	1	1	0	1	0
10	170	7	10000	1	1	0	1	0
11	171	7	10000	1	1	0	1	0
11	172	7	10000	1	1	0	1	0
11	173	7	10000	1	1	0	1	0
12	174	7	10000	1	1	0	1	0
12	175	7	10000	1	1	0	1	0
13	176	7	10000	1	1	0	1	0
12	177	7	10000	1	1	0	1	0
11	178	7	10000	1	1	0	1	0
12	179	7	10000	1	1	0	1	0
13	180	7	10000	1	1	0	1	0
14	181	7	10000	1	1	0	1	0
13	182	7	10000	1	1	0	1	0
13	183	7	10000	1	1	0	1	0
13	184	7	10000	1	1	0	1	0
14	185	7	10000	1	1	0	1	0
14	186	7	10000	1	1	0	1	0
15	187	7	10000	1	1	0	1	0
15	188	7	10000	1	1	0	1	0
13	189	7	10000	1	1	0	1	0
12	190	7	10000	1	1	0	1	0
12	191	7	10000	1	1	0	1	0
13	192	7	10000	1	1	0	1	0
14	193	7	10000	1	1	0	1	0
15	194	7	10000	1	1	0	1	0
15	195	7	10000	1	1	0	1	0
16	196	7	10000	1	1	0	1	0
14	197	7	10000	1	1	0	1	0
13	198	7	10000	1	1	0	1	0
15	199	7	10000	1	1	0	1	0
14	200	7	10000	1	1	0	1	0
14	201	7	10000	1	1	0	1	0
13	202	7	10000	1	1	0	1	0
13	203	7	10000	1	1	0	1	0
13	204	7	10000	1	1	0	1	0
13	205	7	10000	1	1	0	1	0
13	206	7	10000	1	1	0	1	0
14	207	7	10000	1	1	0	1	0
14	208	7	10000	1	1	0	1	0
13	209	7	10000	1	1	0	1	0
12	210	7	10000	1	1	0	1	0
12	211	7	10000	1	1	0	1	0
12	212	7	10000	1	1	0	1	0
13	213	7	10000	1	1	0	1	0
12	214	7	10000	1	1	0	1	0
12	215	7	10000	1	1	0	1	0
12	216	7	10000	1	1	0	1	0
12	217	7	10000	1	1	0	1	0
11	218	7	10000	1	1	0	1	0
11	219	7	10000	1	1	0	1	0
12	220	7	10000	1	1	0	1	0
13	221	7	10000	1	1	0	1	0
13	222	7	10000	1	1	0	1	0
14	223	7	10000	1	1	0	1	0
15	224	7	10000	1	1	0	1	0
13	225	7	10000	1	1	0	1	0
13	226	7	10000	1	1	0	1	0
14	227	7	10000	1	1	0	1	0
14	228	7	10000	1	1	0	1	0
13	229	7	10000	1	1	0	1	0
12	230	7	10000	1	1	0	1	0
12	231	7	10000	1	1	0	1	0
12	232	7	10000	1	1	0	1	0
12	233	7	10000	1	1	0	1	0
13	234	7	10000	1	1	0	1	0
12	235	7	10000	1	1	0	1	0
13	236	7	10000	1	1	0	1	0
13	237	7	10000	1	1	0	1	0
13	238	7	10000	1	1	0	1	0
15	239	7	10000	1	1	0	1	0
16	240	7	10000	1	1	0	1	0
14	241	7	10000	1	1	0	1	0
15	242	7	10000	1	1	0	1	0
16	243	7	10000	1	1	0	1	0
16	244	7	10000	1	1	0	1	0
17	245	7	10000	1	1	0	1	0
17	246	7	10000	1	1	0	1	0
16	247	7	10000	1	1	0	1	0
18	248	7	10000	1	1	0	1	0
17	249	7	10000	1	1	0	1	0
15	250	7	10000	1	1	0	1	0
15	251	7	10000	1	1	0	1	0
15	252	7	10000	1	1	0	1	0
14	253	7	10000	1	1	0	1	0
14	254	7	10000	1	1	0	1	0
15	255	7	10000	1	1	0	1	0
15	256	7	10000	1	1	0	1	0
15	257	7	10000	1	1	0	1	0
15	258	7	10000	1	1	0	1	0
15	259	7	10000	1	1	0	1	0
15	260	7	10000	1	1	0	1	0
14	261	7	10000	1	1	0	1	0
15	262	7	10000	1	1	0	1	0
13	263	7	10000	1	1	0	1	0
13	264	7	10000	1	1	0	1	0
13	265	7	10000	1	1	0	1	0
13	266	7	10000	1	1	0	1	0
14	267	7	10000	1	1	0	1	0
14	268	7	10000	1	1	0	1	0
14	269	7	10000	1	1	0	1	0
12	270	7	10000	1	1	0	1	0
13	271	7	10000	1	1	0	1	0
13	272	7	10000	1	1	0	1	0
13	273	7	10000	1	1	0	1	0
13	274	7	10000	1	1	0	1	0
15	275	7	10000	1	1	0	1	0
16	276	7	10000	1	1	0	1	0
19	277	7	10000	1	1	0	1	0
18	278	7	10000	1	1	0	1	0
19	279	7	10000	1	1	0	1	0
21	280	7	10000	1	1	0	1	0
20	281	7	10000	1	1	0	1	0
20	282	7	10000	1	1	0	1	0
20	283	7	10000	1	1	0	1	0
20	284	7	10000	1	1	0	1	0
19	285	7	10000	1	1	0	1	0
20	286	7	10000	1	1	0	1	0
22	287	7	10000	1	1	0	1	0
24	288	7	10000	1	1	0	1	0
23	289	7	10000	1	1	0	1	0
23	290	7	10000	1	1	0	1	0
22	291	7	10000	1	1	0	1	0
22	292	7	10000	1	1	0	1	0
24	293	7	10000	1	1	0	1	0
26	294	7	10000	1	1	0	1	0
27	295	7	10000	1	1	0	1	0
27	296	7	10000	1	1	0	1	0
28	297	7	10000	1	1	0	1	0
27	298	7	10000	1	1	0	1	0
28	299	7	10000	1	1	0	1	0
29	300	7	10000	1	1	0	1	0
29	301	7	10000	1	1	0	1	0
29	302	7	10000	1	1	0	1	0
27	303	7	10000	1	1	0	1	0
27	304	7	10000	1	1	0	1	0
28	305	7	10000	1	1	0	1	0
27	306	7	10000	1	1	0	1	0
28	307	7	10000	1	1	0	1	0
29	308	7	10000	1	1	0	1	0
28	309	7	10000	1	1	0	1	0
27	310	7	10000	1	1	0	1	0
26	311	7	10000	1	1	0	1	0
26	312	7	10000	1	1	0	1	0
25	313	7	10000	1	1	0	1	0
25	314	7	10000	1	1	0	1	0
25	315	7	10000	1	1	0	1	0
23	316	7	10000	1	1	0	1	0
22	317	7	10000	1	1	0	1	0
22	318	7	10000	1	1	0	1	0
23	319	7	10000	1	1	0	1	0
24	320	7	10000	1	1	0	1	0
23	321	7	10000	1	1	0	1	0
22	322	7	10000	1	1	0	1	0
22	323	7	10000	1	1	0	1	0
22	324	7	10000	1	1	0	1	0
21	325	7	10000	1	1	0	1	0
21	326	7	10000	1	1	0	1	0
21	327	7	10000	1	1	0	1	0
22	328	7	10000	1	1	0	1	0
20	329	7	10000	1	1	0	1	0
20	330	7	10000	1	1	0	1	0
19	331	7	10000	1	1	0	1	0
19	332	7	10000	1	1	0	1	0
19	333	7	10000	1	1	0	1	0
19	334	7	10000	1	1	0	1	0
19	335	7	10000	1	1	0	1	0
19	336	7	10000	1	1	0	1	0
18	337	7	10000	1	1	0	1	0
17	338	7	10000	1	1	0	1	0
18	339	7	10000	1	1	0	1	0
18	340	7	10000	1	1	0	1	0
19	341	7	10000	1	1	0	1	0
18	342	7	10000	1	1	0	1	0
17	343	7	10000	1	1	0	1	0
17	344	7	10000	1	1	0	1	0
16	345	7	10000	1	1	0	1	0
16	346	7	10000	1	1	0	1	0
16	347	7	10000	1	1	0	1	0
16	348	7	10000	1	1	0	1	0
16	349	7	10000	1	1	0	1	0
15	350	7	10000	1	1	0	1	0
16	351	7	10000	1	1	0	1	0
15	352	7	10000	1	1	0	1	0
17	353	7	10000	1	1	0	1	0
17	354	7	10000	1	1	0	1	0
17	355	7	10000	1	1	0	1	0
17	356	7	10000	1	1	0	1	0
16	357	7	10000	1	1	0	1	0
16	358	7	10000	1	1	0	1	0
16	359	7	10000	1	1	0	1	0
18	360	7	10000	1	1	0	1	0
19	361	7	10000	1	1	0	1	0
17	362	7	10000	1	1	0	1	0
16	363	7	10000	1	1	0	1	0
16	364	7	10000	1	1	0	1	0
15	365	7	10000	1	1	0	1	0
14	366	7	10000	1	1	0	1	0
14	367	7	10000	1	1	0	1	0
14	368	7	10000	1	1	0	1	0
13	369	7	10000	1	1	0	1	0
12	370	7	10000	1	1	0	1	0
12	371	7	10000	1	1	0	1	0
12	372	7	10000	1	1	0	1	0
13	373	7	10000	1	1	0	1	0
14	374	7	10000	1	1	0	1	0
14	375	7	10000	1	1	0	1	0
14	376	7	10000	1	1	0	1	0
14	377	7	10000	1	1	0	1	0
13	378	7	10000	1	1	0	1	0
15	379	7	10000	1	1	0	1	0
18	380	7	10000	1	1	0	1	0
19	381	7	10000	1	1	0	1	0
18	382	7	10000	1	1	0	1	0
18	383	7	10000	1	1	0	1	0
18	384	7	10000	1	1	0	1	0
17	385	7	10000	1	1	0	1	0
18	386	7	10000	1	1	0	1	0
18	387	7	10000	1	1	0	1	0
17	388	7	10000	1	1	0	1	0
16	389	7	10000	1	1	0	1	0
15	390	7	10000	1	1	0	1	0
15	391	7	10000	1	1	0	1	0
15	392	7	10000	1	1	0	1	0
15	393	7	10000	1	1	0	1	0
14	394	7	10000	1	1	0	1	0
14	395	7	10000	1	1	0	1	0
13	396	7	10000	1	1	0	1	0
13	397	7	10000	1	1	0	1	0
13	398	7	10000	1	1	0	1	0
13	399	7	10000	1	1	0	1	0
14	400	7	10000	1	1	0	1	0
13	401	7	10000	1	1	0	1	0
13	402	7	10000	1	1	0	1	0
13	403	7	10000	1	1	0	1	0
14	404	7	10000	1	1	0	1	0
14	405	7	10000	1	1	0	1	0
14	406	7	10000	1	1	0	1	0
13	407	7	10000	1	1	0	1	0
14	408	7	10000	1	1	0	1	0
12	409	7	10000	1	1	0	1	0
11	410	7	10000	1	1	0	1	0
11	411	7	10000	1	1	0	1	0
11	412	7	10000	1	1	0	1	0
11	413	7	10000	1	1	0	1	0
11	414	7	10000	1	1	0	1	0
10	415	7	10000	1	1	0	1	0
11	416	7	10000	1	1	0	1	0
10	417	7	10000	1	1	0	1	0
10	418	7	10000	1	1	0	1	0
11	419	7	10000	1	1	0	1	0
11	420	7	10000	1	1	0	1	0
11	421	7	10000	1	1	0	1	0
11	422	7	10000	1	1	0	1	0
11	423	7	10000	1	1	0	1	0
12	424	7	10000	1	1	0	1	0
12	425	7	10000	1	1	0	1	0
12	426	7	10000	1	1	0	1	0
12	427	7	10000	1	1	0	1	0
13	428	7	10000	1	1	0	1	0
13	429	7	10000	1	1	0	1	0
12	430	7	10000	1	1	0	1	0
13	431	7	10000	1	1	0	1	0
14	432	7	10000	1	1	0	1	0
15	433	7	10000	1	1	0	1	0
15	434	7	10000	1	1	0	1	0
14	435	7	10000	1	1	0	1	0
14	436	7	10000	1	1	0	1	0
13	437	7	10000	1	1	0	1	0
13	438	7	10000	1	1	0	1	0
13	439	7	10000	1	1	0	1	0
14	440	7	10000	1	1	0	1	0
13	441	7	10000	1	1	0	1	0
13	442	7	10000	1	1	0	1	0
13	443	7	10000	1	1	0	1	0
14	444	7	10000	1	1	0	1	0
15	445	7	10000	1	1	0	1	0
15	446	7	10000	1	1	0	1	0
16	447	7	10000	1	1	0	1	0
16	448	7	10000	1	1	0	1	0
18	449	7	10000	1	1	0	1	0
20	450	7	10000	1	1	0	1	0
21	451	7	10000	1	1	0	1	0
23	452	7	10000	1	1	0	1	0
23	453	7	10000	1	1	0	1	0
24	454	7	10000	1	1	0	1	0
24	455	7	10000	1	1	0	1	0
24	456	7	10000	1	1	0	1	0
23	457	7	10000	1	1	0	1	0
24	458	7	10000	1	1	0	1	0
26	459	7	10000	1	1	0	1	0
28	460	7	10000	1	1	0	1	0
28	461	7	10000	1	1	0	1	0
27	462	7	10000	1	1	0	1	0
26	463	7	10000	1	1	0	1	0
25	464	7	10000	1	1	0	1	0
24	465	7	10000	1	1	0	1	0
25	466	7	10000	1	1	0	1	0
25	467	7	10000	1	1	0	1	0
26	468	7	10000	1	1	0	1	0
23	469	7	10000	1	1	0	1	0
23	470	7	10000	1	1	0	1	0
24	480	7	10000	1	1	0	1	0
25	481	7	10000	1	1	0	1	0
25	482	7	10000	1	1	0	1	0
23	483	7	10000	1	1	0	1	0
24	484	7	10000	1	1	0	1	0
24	485	7	10000	1	1	0	1	0
26	486	7	10000	1	1	0	1	0
27	487	7	10000	1	1	0	1	0
29	488	7	10000	1	1	0	1	0
31	489	7	10000	1	1	0	1	0
29	487	7	10000	1	1	0	1	0
28	488	7	10000	1	1	0	1	0
28	489	7	10000	1	1	0	1	0
27	490	7	10000	1	1	0	1	0
26	491	7	10000	1	1	0	1	0
26	492	7	10000	1	1	0	1	0
26	493	7	10000	1	1	0	1	0
25	494	7	10000	1	1	0	1	0
25	493	7	10000	1	1	0	1	0
24	494	7	10000	1	1	0	1	0
23	495	7	10000	1	1	0	1	0
22	496	7	10000	1	1	0	1	0
21	497	7	10000	1	1	0	1	0
21	498	7	10000	1	1	0	1	0
22	503	7	10000	1	1	0	1	0
21	504	7	10000	1	1	0	1	0
21	505	7	10000	1	1	0	1	0
21	506	7	10000	1	1	0	1	0
20	507	7	10000	1	1	0	1	0
21	508	7	10000	1	1	0	1	0
21	509	7	10000	1	1	0	1	0
20	510	7	10000	1	1	0	1	0
19	511	7	10000	1	1	0	1	0
19	512	7	10000	1	1	0	1	0
18	545	7	10000	1	1	0	1	1
18	546	7	10000	1	1	0	1	1
18	547	7	10000	1	1	0	1	1
18	548	7	10000	1	1	0	1	1
18	549	7	10000	1	1	0	1	1
18	550	7	10000	1	1	0	1	1
20	551	7	10000	1	1	0	1	1
20	552	7	10000	1	1	0	1	1
20	553	7	10000	1	1	0	1	1
20	554	7	10000	1	1	0	1	1
20	555	7	10000	1	1	0	1	1
19	556	7	10000	1	1	0	1	1
18	557	7	10000	1	1	0	1	1
17	558	7	10000	1	1	0	1	1
17	559	7	10000	1	1	0	1	1
18	560	7	10000	1	1	0	1	1
17	561	7	10000	1	1	0	1	1
18	562	7	10000	1	1	0	1	1
20	563	7	10000	1	1	0	1	1
19	564	7	10000	1	1	0	1	1
19	565	7	10000	1	1	0	1	1
18	566	7	10000	1	1	0	1	1
19	567	7	10000	1	1	0	1	1
20	568	7	10000	1	1	0	1	1
20	569	7	10000	1	1	0	1	1
18	570	7	10000	1	1	0	1	1
18	571	7	10000	1	1	0	1	1
19	572	7	10000	1	1	0	1	1
19	573	7	10000	1	1	0	1	1
19	574	7	10000	1	1	0	1	1
19	575	7	10000	1	1	0	1	1
18	576	7	10000	1	1	0	1	1
17	577	7	10000	1	1	0	1	1
16	578	7	10000	1	1	0	1	1
17	579	7	10000	1	1	0	1	1
18	580	7	10000	1	1	0	1	1
18	581	7	10000	1	1	0	1	1
18	582	7	10000	1	1	0	1	1
17	583	7	10000	1	1	0	1	1
17	584	7	10000	1	1	0	1	1
18	585	7	10000	1	1	0	1	1
17	586	7	10000	1	1	0	1	1
17	553	7	10000	1	1	0	1	1
18	554	7	10000	1	1	0	1	1
18	555	7	10000	1	1	0	1	1
16	556	7	10000	1	1	0	1	1
17	557	7	10000	1	1	0	1	1
17	558	7	10000	1	1	0	1	1
18	559	7	10000	1	1	0	1	1
18	560	7	10000	1	1	0	1	1
18	558	7	10000	1	1	0	1	0
18	559	7	10000	1	1	0	1	0
17	560	7	10000	1	1	0	1	0
17	561	7	10000	1	1	0	1	0
17	562	7	10000	1	1	0	1	0
18	563	7	10000	1	1	0	1	0
18	563	7	10000	1	1	0	1	0
18	564	7	10000	1	1	0	1	0
19	565	7	10000	1	1	0	1	0
19	566	7	10000	1	1	0	1	0
18	568	7	10000	1	1	0	1	0
18	569	7	10000	1	1	0	1	0
19	570	7	10000	1	1	0	1	0
19	571	7	10000	1	1	0	1	0
20	572	7	10000	1	1	0	1	0
19	573	7	10000	1	1	0	1	0
20	575	7	10000	1	1	0	1	0
21	576	7	10000	1	1	0	1	0
22	577	7	10000	1	1	0	1	0
22	578	7	10000	1	1	0	1	0
23	579	7	10000	1	1	0	1	0
24	580	7	10000	1	1	0	1	0
24	579	7	10000	1	1	0	1	0
23	580	7	10000	1	1	0	1	0
23	581	7	10000	1	1	0	1	0
23	582	7	10000	1	1	0	1	0
22	586	7	10000	1	1	0	1	0
21	587	7	10000	1	1	0	1	0
21	588	7	10000	1	1	0	1	0
21	589	7	10000	1	1	0	1	0
20	590	7	10000	1	1	0	1	0
20	591	7	10000	1	1	0	1	0
19	590	7	10000	1	1	0	1	0
19	591	7	10000	1	1	0	1	0
17	592	7	10000	1	1	0	1	0
16	593	7	10000	1	1	0	1	0
17	594	7	10000	1	1	0	1	0
18	595	7	10000	1	1	0	1	0
18	598	7	10000	1	1	0	1	0
17	599	7	10000	1	1	0	1	0
17	600	7	10000	1	1	0	1	0
18	601	7	10000	1	1	0	1	0
18	602	7	10000	1	1	0	1	0
18	603	7	10000	1	1	0	1	0
18	602	7	10000	1	1	0	1	0
19	603	7	10000	1	1	0	1	0
19	604	7	10000	1	1	0	1	0
18	605	7	10000	1	1	0	1	0
17	609	7	10000	1	1	0	1	0
19	610	7	10000	1	1	0	1	0
21	611	7	10000	1	1	0	1	0
21	612	7	10000	1	1	0	1	0
21	613	7	10000	1	1	0	1	0
22	614	7	10000	1	1	0	1	0
22	615	7	10000	1	1	0	1	0
23	616	7	10000	1	1	0	1	0
25	613	7	10000	1	1	0	1	0
27	614	7	10000	1	1	0	1	0
29	615	7	10000	1	1	0	1	0
28	616	7	10000	1	1	0	1	0
28	618	7	10000	1	1	0	1	0
28	619	7	10000	1	1	0	1	0
29	620	7	10000	1	1	0	1	0
31	621	7	10000	1	1	0	1	0
33	622	7	10000	1	1	0	1	0
35	623	7	10000	1	1	0	1	0
43	625	7	10000	1	1	0	1	0
54	626	7	10000	1	1	0	1	0
57	627	7	10000	1	1	0	1	0
56	628	7	10000	1	1	0	1	0
55	629	7	10000	1	1	0	1	0
55	630	7	10000	1	1	0	1	0
54	629	7	10000	1	1	0	1	0
54	630	7	10000	1	1	0	1	0
54	631	7	10000	1	1	0	1	0
54	632	7	10000	1	1	0	1	0
77	636	7	10000	1	1	0	1	0
115	637	7	10000	1	1	0	1	0
138	638	7	10000	1	1	0	1	0
140	639	7	10000	1	1	0	1	0
161	640	7	10000	1	1	0	1	0
177	641	7	10000	1	1	0	1	0
180	640	7	10000	1	1	0	1	0
190	641	7	10000	1	1	0	1	0
210	642	7	10000	1	1	0	1	0
235	643	7	10000	1	1	0	1	0
238	644	7	10000	1	1	0	1	0
244	645	7	10000	1	1	0	1	0
252	643	7	10000	1	1	0	1	0
268	644	7	10000	1	1	0	1	0
309	645	7	10000	1	1	0	1	0
364	646	7	10000	1	1	0	1	0
369	647	7	10000	1	1	0	1	0
372	648	7	10000	1	1	0	1	0
488	649	7	10000	1	1	0	1	0
604	650	7	10000	1	1	0	1	0
615	651	7	10000	1	1	0	1	0
629	652	7	10000	1	1	0	1	0
691	653	7	10000	1	1	0	1	0
757	654	7	10000	1	1	0	1	0
791	655	7	10000	1	1	0	1	0
814	656	7	10000	1	1	0	1	0
814	657	7	10000	1	1	0	1	0
793	658	7	10000	1	1	0	1	0
761	659	7	10000	1	1	0	1	0
732	660	7	10000	1	1	0	1	0
703	661	7	10000	1	1	0	1	0
670	662	7	10000	1	1	0	1	0
639	663	7	10000	1	1	0	1	0
610	664	7	10000	1	1	0	1	0
588	665	7	10000	1	1	0	1	0
574	666	7	10000	1	1	0	1	0
565	667	7	10000	1	1	0	1	0
556	668	7	10000	1	1	0	1	0
546	669	7	10000	1	1	0	1	0
538	670	7	10000	1	1	0	1	0
529	671	7	10000	1	1	0	1	0
521	672	7	10000	1	1	0	1	0
512	673	7	10000	1	1	0	1	0
501	674	7	10000	1	1	0	1	0
493	675	7	10000	1	1	0	1	0
485	676	7	10000	1	1	0	1	0
476	677	7	10000	1	1	0	1	0
466	678	7	10000	1	1	0	1	0
455	679	7	10000	1	1	0	1	0
443	680	7	10000	1	1	0	1	0
429	681	7	10000	1	1	0	1	0
413	682	7	10000	1	1	0	1	0
395	683	7	10000	1	1	0	1	0
378	684	7	10000	1	1	0	1	0
365	685	7	10000	1	1	0	1	0
352	686	7	10000	1	1	0	1	0
343	687	7	10000	1	1	0	1	0
335	688	7	10000	1	1	0	1	0
326	689	7	10000	1	1	0	1	0
319	690	7	10000	1	1	0	1	0
312	691	7	10000	1	1	0	1	0
307	692	7	10000	1	1	0	1	0
297	693	7	10000	1	1	0	1	0
284	694	7	10000	1	1	0	1	0
273	695	7	10000	1	1	0	1	0
266	696	7	10000	1	1	0	1	0
259	697	7	10000	1	1	0	1	0
256	698	7	10000	1	1	0	1	0
257	699	7	10000	1	1	0	1	0
256	700	7	10000	1	1	0	1	0
254	701	7	10000	1	1	0	1	0
253	702	7	10000	1	1	0	1	0
254	703	7	10000	1	1	0	1	0
256	704	7	10000	1	1	0	1	0
256	705	7	10000	1	1	0	1	0
253	706	7	10000	1	1	0	1	0
249	707	7	10000	1	1	0	1	0
243	708	7	10000	1	1	0	1	0
237	709	7	10000	1	1	0	1	0
231	710	7	10000	1	1	0	1	0
225	711	7	10000	1	1	0	1	0
221	712	7	10000	1	1	0	1	0
214	713	7	10000	1	1	0	1	0
207	714	7	10000	1	1	0	1	0
199	715	7	10000	1	1	0	1	0
190	716	7	10000	1	1	0	1	0
181	717	7	10000	1	1	0	1	0
173	718	7	10000	1	1	0	1	0
166	719	7	10000	1	1	0	1	0
162	720	7	10000	1	1	0	1	0
155	721	7	10000	1	1	0	1	0
148	722	7	10000	1	1	0	1	0
141	723	7	10000	1	1	0	1	0
136	724	7	10000	1	1	0	1	0
129	725	7	10000	1	1	0	1	0
124	726	7	10000	1	1	0	1	0
119	727	7	10000	1	1	0	1	0
114	728	7	10000	1	1	0	1	0
109	729	7	10000	1	1	0	1	0
104	730	7	10000	1	1	0	1	0
101	731	7	10000	1	1	0	1	0
100	732	7	10000	1	1	0	1	0
101	733	7	10000	1	1	0	1	0
102	734	7	10000	1	1	0	1	0
102	735	7	10000	1	1	0	1	0
103	736	7	10000	1	1	0	1	0
103	737	7	10000	1	1	0	1	0
104	738	7	10000	1	1	0	1	0
106	739	7	10000	1	1	0	1	0
109	740	7	10000	1	1	0	1	0
111	741	7	10000	1	1	0	1	0
112	742	7	10000	1	1	0	1	0
112	743	7	10000	1	1	0	1	0
111	744	7	10000	1	1	0	1	0
110	745	7	10000	1	1	0	1	0
109	746	7	10000	1	1	0	1	0
107	747	7	10000	1	1	0	1	0
105	748	7	10000	1	1	0	1	0
102	749	7	10000	1	1	0	1	0
98	750	7	10000	1	1	0	1	0
96	751	7	10000	1	1	0	1	0
94	752	7	10000	1	1	0	1	0
92	753	7	10000	1	1	0	1	0
91	754	7	10000	1	1	0	1	0
89	755	7	10000	1	1	0	1	0
89	756	7	10000	1	1	0	1	0
89	757	7	10000	1	1	0	1	0
89	758	7	10000	1	1	0	1	0
91	759	7	10000	1	1	0	1	0
95	760	7	10000	1	1	0	1	0
97	761	7	10000	1	1	0	1	0
99	762	7	10000	1	1	0	1	0
102	763	7	10000	1	1	0	1	0
101	764	7	10000	1	1	0	1	0
97	765	7	10000	1	1	0	1	0
95	766	7	10000	1	1	0	1	0
92	767	7	10000	1	1	0	1	0
89	768	7	10000	1	1	0	1	0
86	769	7	10000	1	1	0	1	0
83	770	7	10000	1	1	0	1	0
82	771	7	10000	1	1	0	1	0
79	772	7	10000	1	1	0	1	0
76	773	7	10000	1	1	0	1	0
75	774	7	10000	1	1	0	1	0
74	775	7	10000	1	1	0	1	0
74	776	7	10000	1	1	0	1	0
74	777	7	10000	1	1	0	1	0
74	778	7	10000	1	1	0	1	0
75	779	7	10000	1	1	0	1	0
75	780	7	10000	1	1	0	1	0
72	781	7	10000	1	1	0	1	0
70	782	7	10000	1	1	0	1	0
68	783	7	10000	1	1	0	1	0
66	784	7	10000	1	1	0	1	0
63	785	7	10000	1	1	0	1	0
61	786	7	10000	1	1	0	1	0
59	787	7	10000	1	1	0	1	0
57	788	7	10000	1	1	0	1	0
54	789	7	10000	1	1	0	1	0
51	790	7	10000	1	1	0	1	0
51	791	7	10000	1	1	0	1	0
48	792	7	10000	1	1	0	1	0
47	793	7	10000	1	1	0	1	0
46	794	7	10000	1	1	0	1	0
44	795	7	10000	1	1	0	1	0
44	796	7	10000	1	1	0	1	0
42	797	7	10000	1	1	0	1	0
42	798	7	10000	1	1	0	1	0
42	799	7	10000	1	1	0	1	0
42	800	7	10000	1	1	0	1	0
41	801	7	10000	1	1	0	1	0
40	802	7	10000	1	1	0	1	0
39	803	7	10000	1	1	0	1	0
37	804	7	10000	1	1	0	1	0
36	805	7	10000	1	1	0	1	0
36	806	7	10000	1	1	0	1	0
37	807	7	10000	1	1	0	1	0
40	808	7	10000	1	1	0	1	0
42	809	7	10000	1	1	0	1	0
41	810	7	10000	1	1	0	1	0
40	811	7	10000	1	1	0	1	0
39	812	7	10000	1	1	0	1	0
38	813	7	10000	1	1	0	1	0
38	814	7	10000	1	1	0	1	0
38	815	7	10000	1	1	0	1	0
40	816	7	10000	1	1	0	1	0
40	817	7	10000	1	1	0	1	0
37	818	7	10000	1	1	0	1	0
38	819	7	10000	1	1	0	1	0
37	820	7	10000	1	1	0	1	0
35	821	7	10000	1	1	0	1	0
34	822	7	10000	1	1	0	1	0
33	823	7	10000	1	1	0	1	0
32	824	7	10000	1	1	0	1	0
32	825	7	10000	1	1	0	1	0
32	826	7	10000	1	1	0	1	0
31	827	7	10000	1	1	0	1	0
30	828	7	10000	1	1	0	1	0
28	829	7	10000	1	1	0	1	0
27	830	7	10000	1	1	0	1	0
28	831	7	10000	1	1	0	1	0
28	832	7	10000	1	1	0	1	0
27	833	7	10000	1	1	0	1	0
27	834	7	10000	1	1	0	1	0
26	835	7	10000	1	1	0	1	0
25	836	7	10000	1	1	0	1	0
24	837	7	10000	1	1	0	1	0
22	838	7	10000	1	1	0	1	0
22	839	7	10000	1	1	0	1	0
22	840	7	10000	1	1	0	1	0
23	841	7	10000	1	1	0	1	0
22	842	7	10000	1	1	0	1	0
23	843	7	10000	1	1	0	1	0
23	844	7	10000	1	1	0	1	0
21	845	7	10000	1	1	0	1	0
21	846	7	10000	1	1	0	1	0
21	847	7	10000	1	1	0	1	0
22	848	7	10000	1	1	0	1	0
23	849	7	10000	1	1	0	1	0
23	850	7	10000	1	1	0	1	0
24	851	7	10000	1	1	0	1	0
23	852	7	10000	1	1	0	1	0
23	853	7	10000	1	1	0	1	0
22	854	7	10000	1	1	0	1	0
21	855	7	10000	1	1	0	1	0
21	856	7	10000	1	1	0	1	0
20	857	7	10000	1	1	0	1	0
19	858	7	10000	1	1	0	1	0
19	859	7	10000	1	1	0	1	0
19	860	7	10000	1	1	0	1	0
18	861	7	10000	1	1	0	1	0
18	862	7	10000	1	1	0	1	0
17	863	7	10000	1	1	0	1	0
17	864	7	10000	1	1	0	1	0
18	865	7	10000	1	1	0	1	0
18	866	7	10000	1	1	0	1	0
18	867	7	10000	1	1	0	1	0
19	868	7	10000	1	1	0	1	0
19	869	7	10000	1	1	0	1	0
18	870	7	10000	1	1	0	1	0
18	871	7	10000	1	1	0	1	0
18	872	7	10000	1	1	0	1	0
17	873	7	10000	1	1	0	1	0
17	874	7	10000	1	1	0	1	0
17	875	7	10000	1	1	0	1	0
17	876	7	10000	1	1	0	1	0
16	877	7	10000	1	1	0	1	0
16	878	7	10000	1	1	0	1	0
17	879	7	10000	1	1	0	1	0
18	880	7	10000	1	1	0	1	0
17	881	7	10000	1	1	0	1	0
15	882	7	10000	1	1	0	1	0
15	883	7	10000	1	1	0	1	0
15	884	7	10000	1	1	0	1	0
15	885	7	10000	1	1	0	1	0
16	886	7	10000	1	1	0	1	0
18	887	7	10000	1	1	0	1	0
20	888	7	10000	1	1	0	1	0
20	889	7	10000	1	1	0	1	0
21	890	7	10000	1	1	0	1	0
23	891	7	10000	1	1	0	1	0
24	892	7	10000	1	1	0	1	0
23	893	7	10000	1	1	0	1	0
23	894	7	10000	1	1	0	1	0
22	895	7	10000	1	1	0	1	0
21	896	7	10000	1	1	0	1	0
21	897	7	10000	1	1	0	1	0
20	898	7	10000	1	1	0	1	0
22	899	7	10000	1	1	0	1	0
25	900	7	10000	1	1	0	1	0
26	901	7	10000	1	1	0	1	0
25	902	7	10000	1	1	0	1	0
25	903	7	10000	1	1	0	1	0
26	904	7	10000	1	1	0	1	0
27	905	7	10000	1	1	0	1	0
27	906	7	10000	1	1	0	1	0
26	907	7	10000	1	1	0	1	0
26	908	7	10000	1	1	0	1	0
26	909	7	10000	1	1	0	1	0
25	910	7	10000	1	1	0	1	0
25	911	7	10000	1	1	0	1	0
26	912	7	10000	1	1	0	1	0
25	913	7	10000	1	1	0	1	0
24	914	7	10000	1	1	0	1	0
23	915	7	10000	1	1	0	1	0
22	916	7	10000	1	1	0	1	0
21	917	7	10000	1	1	0	1	0
21	918	7	10000	1	1	0	1	0
22	919	7	10000	1	1	0	1	0
23	920	7	10000	1	1	0	1	0
22	921	7	10000	1	1	0	1	0
21	922	7	10000	1	1	0	1	0
22	923	7	10000	1	1	0	1	0
24	924	7	10000	1	1	0	1	0
27	925	7	10000	1	1	0	1	0
27	926	7	10000	1	1	0	1	0
28	927	7	10000	1	1	0	1	0
28	928	7	10000	1	1	0	1	0
26	929	7	10000	1	1	0	1	0
24	930	7	10000	1	1	0	1	0
24	931	7	10000	1	1	0	1	0
24	932	7	10000	1	1	0	1	0
23	933	7	10000	1	1	0	1	0
22	934	7	10000	1	1	0	1	0
21	935	7	10000	1	1	0	1	0
21	936	7	10000	1	1	0	1	0
20	937	7	10000	1	1	0	1	0
20	938	7	10000	1	1	0	1	0
19	939	7	10000	1	1	0	1	0
20	940	7	10000	1	1	0	1	0
21	941	7	10000	1	1	0	1	0
21	942	7	10000	1	1	0	1	0
21	943	7	10000	1	1	0	1	0
21	944	7	10000	1	1	0	1	0
20	945	7	10000	1	1	0	1	0
20	946	7	10000	1	1	0	1	0
20	947	7	10000	1	1	0	1	0
21	948	7	10000	1	1	0	1	0
21	949	7	10000	1	1	0	1	0
21	950	7	10000	1	1	0	1	0
22	951	7	10000	1	1	0	1	0
22	952	7	10000	1	1	0	1	0
23	953	7	10000	1	1	0	1	0
23	954	7	10000	1	1	0	1	0
23	955	7	10000	1	1	0	1	0
23	956	7	10000	1	1	0	1	0
22	957	7	10000	1	1	0	1	0
21	958	7	10000	1	1	0	1	0
22	959	7	10000	1	1	0	1	0
24	960	7	10000	1	1	0	1	0
24	961	7	10000	1	1	0	1	0
24	962	7	10000	1	1	0	1	0
25	963	7	10000	1	1	0	1	0
26	964	7	10000	1	1	0	1	0
24	965	7	10000	1	1	0	1	0
23	966	7	10000	1	1	0	1	0
24	967	7	10000	1	1	0	1	0
25	968	7	10000	1	1	0	1	0
24	969	7	10000	1	1	0	1	0
23	970	7	10000	1	1	0	1	0
24	971	7	10000	1	1	0	1	0
24	972	7	10000	1	1	0	1	0
23	973	7	10000	1	1	0	1	0
22	974	7	10000	1	1	0	1	0
23	975	7	10000	1	1	0	1	0
22	976	7	10000	1	1	0	1	0
23	977	7	10000	1	1	0	1	0
22	978	7	10000	1	1	0	1	0
21	979	7	10000	1	1	0	1	0
22	980	7	10000	1	1	0	1	0
22	981	7	10000	1	1	0	1	0
20	982	7	10000	1	1	0	1	0
20	983	7	10000	1	1	0	1	0
22	984	7	10000	1	1	0	1	0
24	985	7	10000	1	1	0	1	0
26	986	7	10000	1	1	0	1	0
30	987	7	10000	1	1	0	1	0
34	988	7	10000	1	1	0	1	0
35	989	7	10000	1	1	0	1	0
33	990	7	10000	1	1	0	1	0
32	991	7	10000	1	1	0	1	0
32	992	7	10000	1	1	0	1	0
35	993	7	10000	1	1	0	1	0
37	994	7	10000	1	1	0	1	0
39	995	7	10000	1	1	0	1	0
42	996	7	10000	1	1	0	1	0
46	997	7	10000	1	1	0	1	0
48	998	7	10000	1	1	0	1	0
51	999	7	10000	1	1	0	1	0
53	1000	7	10000	1	1	0	1	0
16	1	7	10000	2	1	0	2	0
17	2	7	10000	2	1	0	2	0
16	3	7	10000	2	1	0	2	0
16	4	7	10000	2	1	0	2	0
16	5	7	10000	2	1	0	2	0
15	6	7	10000	2	1	0	2	0
15	7	7	10000	2	1	0	2	0
15	8	7	10000	2	1	0	2	0
12	9	7	10000	2	1	0	2	0
13	10	7	10000	2	1	0	2	0
13	11	7	10000	2	1	0	2	0
13	12	7	10000	2	1	0	2	0
13	13	7	10000	2	1	0	2	0
13	14	7	10000	2	1	0	2	0
14	15	7	10000	2	1	0	2	0
14	16	7	10000	2	1	0	2	0
13	17	7	10000	2	1	0	2	0
13	18	7	10000	2	1	0	2	0
15	19	7	10000	2	1	0	2	0
14	20	7	10000	2	1	0	2	0
14	21	7	10000	2	1	0	2	0
13	22	7	10000	2	1	0	2	0
13	23	7	10000	2	1	0	2	0
12	24	7	10000	2	1	0	2	0
12	25	7	10000	2	1	0	2	0
13	26	7	10000	2	1	0	2	0
13	27	7	10000	2	1	0	2	0
14	28	7	10000	2	1	0	2	0
13	29	7	10000	2	1	0	2	0
13	30	7	10000	2	1	0	2	0
13	31	7	10000	2	1	0	2	0
14	32	7	10000	2	1	0	2	0
14	33	7	10000	2	1	0	2	0
15	34	7	10000	2	1	0	2	0
15	35	7	10000	2	1	0	2	0
14	36	7	10000	2	1	0	2	0
13	37	7	10000	2	1	0	2	0
12	38	7	10000	2	1	0	2	0
14	39	7	10000	2	1	0	2	0
13	40	7	10000	2	1	0	2	0
12	41	7	10000	2	1	0	2	0
12	42	7	10000	2	1	0	2	0
11	43	7	10000	2	1	0	2	0
10	44	7	10000	2	1	0	2	0
10	45	7	10000	2	1	0	2	0
11	46	7	10000	2	1	0	2	0
12	47	7	10000	2	1	0	2	0
11	48	7	10000	2	1	0	2	0
10	49	7	10000	2	1	0	2	0
9	50	7	10000	2	1	0	2	0
10	51	7	10000	2	1	0	2	0
10	52	7	10000	2	1	0	2	0
11	53	7	10000	2	1	0	2	0
12	54	7	10000	2	1	0	2	0
12	55	7	10000	2	1	0	2	0
11	56	7	10000	2	1	0	2	0
12	57	7	10000	2	1	0	2	0
11	58	7	10000	2	1	0	2	0
14	59	7	10000	2	1	0	2	0
15	60	7	10000	2	1	0	2	0
14	61	7	10000	2	1	0	2	0
14	62	7	10000	2	1	0	2	0
13	63	7	10000	2	1	0	2	0
13	64	7	10000	2	1	0	2	0
14	65	7	10000	2	1	0	2	0
14	66	7	10000	2	1	0	2	0
14	67	7	10000	2	1	0	2	0
14	68	7	10000	2	1	0	2	0
14	69	7	10000	2	1	0	2	0
15	70	7	10000	2	1	0	2	0
16	71	7	10000	2	1	0	2	0
18	72	7	10000	2	1	0	2	0
17	73	7	10000	2	1	0	2	0
16	74	7	10000	2	1	0	2	0
16	75	7	10000	2	1	0	2	0
16	76	7	10000	2	1	0	2	0
16	77	7	10000	2	1	0	2	0
18	78	7	10000	2	1	0	2	0
20	79	7	10000	2	1	0	2	0
19	80	7	10000	2	1	0	2	0
19	81	7	10000	2	1	0	2	0
19	82	7	10000	2	1	0	2	0
19	83	7	10000	2	1	0	2	0
20	84	7	10000	2	1	0	2	0
20	85	7	10000	2	1	0	2	0
20	86	7	10000	2	1	0	2	0
21	87	7	10000	2	1	0	2	0
22	88	7	10000	2	1	0	2	0
20	89	7	10000	2	1	0	2	0
19	90	7	10000	2	1	0	2	0
20	91	7	10000	2	1	0	2	0
21	92	7	10000	2	1	0	2	0
23	93	7	10000	2	1	0	2	0
23	94	7	10000	2	1	0	2	0
25	95	7	10000	2	1	0	2	0
25	96	7	10000	2	1	0	2	0
25	97	7	10000	2	1	0	2	0
24	98	7	10000	2	1	0	2	0
25	99	7	10000	2	1	0	2	0
23	100	7	10000	2	1	0	2	0
23	101	7	10000	2	1	0	2	0
21	102	7	10000	2	1	0	2	0
21	103	7	10000	2	1	0	2	0
20	104	7	10000	2	1	0	2	0
20	105	7	10000	2	1	0	2	0
20	106	7	10000	2	1	0	2	0
20	107	7	10000	2	1	0	2	0
19	108	7	10000	2	1	0	2	0
17	109	7	10000	2	1	0	2	0
18	110	7	10000	2	1	0	2	0
18	111	7	10000	2	1	0	2	0
20	112	7	10000	2	1	0	2	0
24	113	7	10000	2	1	0	2	0
25	114	7	10000	2	1	0	2	0
25	115	7	10000	2	1	0	2	0
26	116	7	10000	2	1	0	2	0
25	117	7	10000	2	1	0	2	0
23	118	7	10000	2	1	0	2	0
24	119	7	10000	2	1	0	2	0
24	120	7	10000	2	1	0	2	0
24	121	7	10000	2	1	0	2	0
23	122	7	10000	2	1	0	2	0
22	123	7	10000	2	1	0	2	0
23	124	7	10000	2	1	0	2	0
22	125	7	10000	2	1	0	2	0
22	126	7	10000	2	1	0	2	0
21	127	7	10000	2	1	0	2	0
22	128	7	10000	2	1	0	2	0
20	129	7	10000	2	1	0	2	0
20	130	7	10000	2	1	0	2	0
21	131	7	10000	2	1	0	2	0
21	132	7	10000	2	1	0	2	0
20	133	7	10000	2	1	0	2	0
21	134	7	10000	2	1	0	2	0
21	135	7	10000	2	1	0	2	0
21	136	7	10000	2	1	0	2	0
21	137	7	10000	2	1	0	2	0
22	138	7	10000	2	1	0	2	0
23	139	7	10000	2	1	0	2	0
22	140	7	10000	2	1	0	2	0
21	141	7	10000	2	1	0	2	0
21	142	7	10000	2	1	0	2	0
20	143	7	10000	2	1	0	2	0
20	144	7	10000	2	1	0	2	0
20	145	7	10000	2	1	0	2	0
20	146	7	10000	2	1	0	2	0
21	147	7	10000	2	1	0	2	0
22	148	7	10000	2	1	0	2	0
20	149	7	10000	2	1	0	2	0
20	150	7	10000	2	1	0	2	0
20	151	7	10000	2	1	0	2	0
20	152	7	10000	2	1	0	2	0
20	153	7	10000	2	1	0	2	0
20	154	7	10000	2	1	0	2	0
19	155	7	10000	2	1	0	2	0
18	156	7	10000	2	1	0	2	0
17	157	7	10000	2	1	0	2	0
16	158	7	10000	2	1	0	2	0
18	159	7	10000	2	1	0	2	0
18	160	7	10000	2	1	0	2	0
18	161	7	10000	2	1	0	2	0
18	162	7	10000	2	1	0	2	0
18	163	7	10000	2	1	0	2	0
18	164	7	10000	2	1	0	2	0
18	165	7	10000	2	1	0	2	0
18	166	7	10000	2	1	0	2	0
18	167	7	10000	2	1	0	2	0
17	168	7	10000	2	1	0	2	0
16	169	7	10000	2	1	0	2	0
16	170	7	10000	2	1	0	2	0
16	171	7	10000	2	1	0	2	0
17	172	7	10000	2	1	0	2	0
16	173	7	10000	2	1	0	2	0
15	174	7	10000	2	1	0	2	0
15	175	7	10000	2	1	0	2	0
15	176	7	10000	2	1	0	2	0
14	177	7	10000	2	1	0	2	0
14	178	7	10000	2	1	0	2	0
15	179	7	10000	2	1	0	2	0
15	180	7	10000	2	1	0	2	0
14	181	7	10000	2	1	0	2	0
14	182	7	10000	2	1	0	2	0
14	183	7	10000	2	1	0	2	0
14	184	7	10000	2	1	0	2	0
13	185	7	10000	2	1	0	2	0
13	186	7	10000	2	1	0	2	0
14	187	7	10000	2	1	0	2	0
15	188	7	10000	2	1	0	2	0
13	189	7	10000	2	1	0	2	0
13	190	7	10000	2	1	0	2	0
13	191	7	10000	2	1	0	2	0
13	192	7	10000	2	1	0	2	0
13	193	7	10000	2	1	0	2	0
14	194	7	10000	2	1	0	2	0
14	195	7	10000	2	1	0	2	0
13	196	7	10000	2	1	0	2	0
13	197	7	10000	2	1	0	2	0
12	198	7	10000	2	1	0	2	0
13	199	7	10000	2	1	0	2	0
13	200	7	10000	2	1	0	2	0
13	201	7	10000	2	1	0	2	0
13	202	7	10000	2	1	0	2	0
13	203	7	10000	2	1	0	2	0
14	204	7	10000	2	1	0	2	0
14	205	7	10000	2	1	0	2	0
15	206	7	10000	2	1	0	2	0
15	207	7	10000	2	1	0	2	0
15	208	7	10000	2	1	0	2	0
13	209	7	10000	2	1	0	2	0
12	210	7	10000	2	1	0	2	0
13	211	7	10000	2	1	0	2	0
13	212	7	10000	2	1	0	2	0
14	213	7	10000	2	1	0	2	0
15	214	7	10000	2	1	0	2	0
16	215	7	10000	2	1	0	2	0
15	216	7	10000	2	1	0	2	0
15	217	7	10000	2	1	0	2	0
15	218	7	10000	2	1	0	2	0
17	219	7	10000	2	1	0	2	0
16	220	7	10000	2	1	0	2	0
15	221	7	10000	2	1	0	2	0
16	222	7	10000	2	1	0	2	0
15	223	7	10000	2	1	0	2	0
15	224	7	10000	2	1	0	2	0
15	225	7	10000	2	1	0	2	0
16	226	7	10000	2	1	0	2	0
16	227	7	10000	2	1	0	2	0
17	228	7	10000	2	1	0	2	0
14	229	7	10000	2	1	0	2	0
14	230	7	10000	2	1	0	2	0
14	231	7	10000	2	1	0	2	0
15	232	7	10000	2	1	0	2	0
15	233	7	10000	2	1	0	2	0
15	234	7	10000	2	1	0	2	0
16	235	7	10000	2	1	0	2	0
15	236	7	10000	2	1	0	2	0
14	237	7	10000	2	1	0	2	0
14	238	7	10000	2	1	0	2	0
16	239	7	10000	2	1	0	2	0
16	240	7	10000	2	1	0	2	0
15	241	7	10000	2	1	0	2	0
14	242	7	10000	2	1	0	2	0
14	243	7	10000	2	1	0	2	0
14	244	7	10000	2	1	0	2	0
13	245	7	10000	2	1	0	2	0
13	246	7	10000	2	1	0	2	0
14	247	7	10000	2	1	0	2	0
13	248	7	10000	2	1	0	2	0
12	249	7	10000	2	1	0	2	0
13	250	7	10000	2	1	0	2	0
13	251	7	10000	2	1	0	2	0
14	252	7	10000	2	1	0	2	0
15	253	7	10000	2	1	0	2	0
13	254	7	10000	2	1	0	2	0
14	255	7	10000	2	1	0	2	0
13	256	7	10000	2	1	0	2	0
13	257	7	10000	2	1	0	2	0
13	258	7	10000	2	1	0	2	0
15	259	7	10000	2	1	0	2	0
14	260	7	10000	2	1	0	2	0
13	261	7	10000	2	1	0	2	0
13	262	7	10000	2	1	0	2	0
14	263	7	10000	2	1	0	2	0
14	264	7	10000	2	1	0	2	0
14	265	7	10000	2	1	0	2	0
15	266	7	10000	2	1	0	2	0
15	267	7	10000	2	1	0	2	0
14	268	7	10000	2	1	0	2	0
14	269	7	10000	2	1	0	2	0
14	270	7	10000	2	1	0	2	0
15	271	7	10000	2	1	0	2	0
14	272	7	10000	2	1	0	2	0
14	273	7	10000	2	1	0	2	0
15	274	7	10000	2	1	0	2	0
17	275	7	10000	2	1	0	2	0
18	276	7	10000	2	1	0	2	0
18	277	7	10000	2	1	0	2	0
18	278	7	10000	2	1	0	2	0
18	279	7	10000	2	1	0	2	0
17	280	7	10000	2	1	0	2	0
17	281	7	10000	2	1	0	2	0
16	282	7	10000	2	1	0	2	0
15	283	7	10000	2	1	0	2	0
14	284	7	10000	2	1	0	2	0
14	285	7	10000	2	1	0	2	0
15	286	7	10000	2	1	0	2	0
15	287	7	10000	2	1	0	2	0
15	288	7	10000	2	1	0	2	0
13	289	7	10000	2	1	0	2	0
13	290	7	10000	2	1	0	2	0
14	291	7	10000	2	1	0	2	0
14	292	7	10000	2	1	0	2	0
15	293	7	10000	2	1	0	2	0
15	294	7	10000	2	1	0	2	0
15	295	7	10000	2	1	0	2	0
15	296	7	10000	2	1	0	2	0
14	297	7	10000	2	1	0	2	0
13	298	7	10000	2	1	0	2	0
15	299	7	10000	2	1	0	2	0
15	300	7	10000	2	1	0	2	0
14	301	7	10000	2	1	0	2	0
13	302	7	10000	2	1	0	2	0
14	303	7	10000	2	1	0	2	0
13	304	7	10000	2	1	0	2	0
12	305	7	10000	2	1	0	2	0
13	306	7	10000	2	1	0	2	0
13	307	7	10000	2	1	0	2	0
13	308	7	10000	2	1	0	2	0
11	309	7	10000	2	1	0	2	0
11	310	7	10000	2	1	0	2	0
11	311	7	10000	2	1	0	2	0
11	312	7	10000	2	1	0	2	0
10	313	7	10000	2	1	0	2	0
11	314	7	10000	2	1	0	2	0
11	315	7	10000	2	1	0	2	0
10	316	7	10000	2	1	0	2	0
10	317	7	10000	2	1	0	2	0
10	318	7	10000	2	1	0	2	0
11	319	7	10000	2	1	0	2	0
11	320	7	10000	2	1	0	2	0
10	321	7	10000	2	1	0	2	0
11	322	7	10000	2	1	0	2	0
10	323	7	10000	2	1	0	2	0
9	324	7	10000	2	1	0	2	0
10	325	7	10000	2	1	0	2	0
10	326	7	10000	2	1	0	2	0
10	327	7	10000	2	1	0	2	0
10	328	7	10000	2	1	0	2	0
9	329	7	10000	2	1	0	2	0
10	330	7	10000	2	1	0	2	0
12	331	7	10000	2	1	0	2	0
13	332	7	10000	2	1	0	2	0
13	333	7	10000	2	1	0	2	0
13	334	7	10000	2	1	0	2	0
13	335	7	10000	2	1	0	2	0
13	336	7	10000	2	1	0	2	0
12	337	7	10000	2	1	0	2	0
11	338	7	10000	2	1	0	2	0
14	339	7	10000	2	1	0	2	0
18	340	7	10000	2	1	0	2	0
22	341	7	10000	2	1	0	2	0
28	342	7	10000	2	1	0	2	0
31	343	7	10000	2	1	0	2	0
32	344	7	10000	2	1	0	2	0
33	345	7	10000	2	1	0	2	0
32	346	7	10000	2	1	0	2	0
32	347	7	10000	2	1	0	2	0
30	348	7	10000	2	1	0	2	0
31	349	7	10000	2	1	0	2	0
36	350	7	10000	2	1	0	2	0
44	351	7	10000	2	1	0	2	0
52	352	7	10000	2	1	0	2	0
57	353	7	10000	2	1	0	2	0
59	354	7	10000	2	1	0	2	0
60	355	7	10000	2	1	0	2	0
60	356	7	10000	2	1	0	2	0
60	357	7	10000	2	1	0	2	0
62	358	7	10000	2	1	0	2	0
68	359	7	10000	2	1	0	2	0
74	360	7	10000	2	1	0	2	0
80	361	7	10000	2	1	0	2	0
85	362	7	10000	2	1	0	2	0
86	363	7	10000	2	1	0	2	0
86	364	7	10000	2	1	0	2	0
83	365	7	10000	2	1	0	2	0
79	366	7	10000	2	1	0	2	0
77	367	7	10000	2	1	0	2	0
76	368	7	10000	2	1	0	2	0
76	369	7	10000	2	1	0	2	0
80	370	7	10000	2	1	0	2	0
83	371	7	10000	2	1	0	2	0
84	372	7	10000	2	1	0	2	0
83	373	7	10000	2	1	0	2	0
81	374	7	10000	2	1	0	2	0
79	375	7	10000	2	1	0	2	0
74	376	7	10000	2	1	0	2	0
71	377	7	10000	2	1	0	2	0
69	378	7	10000	2	1	0	2	0
71	379	7	10000	2	1	0	2	0
72	380	7	10000	2	1	0	2	0
72	381	7	10000	2	1	0	2	0
70	382	7	10000	2	1	0	2	0
67	383	7	10000	2	1	0	2	0
65	384	7	10000	2	1	0	2	0
62	385	7	10000	2	1	0	2	0
62	386	7	10000	2	1	0	2	0
61	387	7	10000	2	1	0	2	0
59	388	7	10000	2	1	0	2	0
55	389	7	10000	2	1	0	2	0
53	390	7	10000	2	1	0	2	0
50	391	7	10000	2	1	0	2	0
50	392	7	10000	2	1	0	2	0
50	393	7	10000	2	1	0	2	0
51	394	7	10000	2	1	0	2	0
51	395	7	10000	2	1	0	2	0
50	396	7	10000	2	1	0	2	0
48	397	7	10000	2	1	0	2	0
47	398	7	10000	2	1	0	2	0
47	399	7	10000	2	1	0	2	0
45	400	7	10000	2	1	0	2	0
46	401	7	10000	2	1	0	2	0
47	402	7	10000	2	1	0	2	0
50	403	7	10000	2	1	0	2	0
53	404	7	10000	2	1	0	2	0
56	405	7	10000	2	1	0	2	0
60	406	7	10000	2	1	0	2	0
62	407	7	10000	2	1	0	2	0
65	408	7	10000	2	1	0	2	0
65	409	7	10000	2	1	0	2	0
66	410	7	10000	2	1	0	2	0
67	411	7	10000	2	1	0	2	0
69	412	7	10000	2	1	0	2	0
71	413	7	10000	2	1	0	2	0
73	414	7	10000	2	1	0	2	0
77	415	7	10000	2	1	0	2	0
78	416	7	10000	2	1	0	2	0
79	417	7	10000	2	1	0	2	0
80	418	7	10000	2	1	0	2	0
82	419	7	10000	2	1	0	2	0
84	420	7	10000	2	1	0	2	0
84	421	7	10000	2	1	0	2	0
85	422	7	10000	2	1	0	2	0
88	423	7	10000	2	1	0	2	0
89	424	7	10000	2	1	0	2	0
91	425	7	10000	2	1	0	2	0
94	426	7	10000	2	1	0	2	0
97	427	7	10000	2	1	0	2	0
100	428	7	10000	2	1	0	2	0
100	429	7	10000	2	1	0	2	0
100	430	7	10000	2	1	0	2	0
100	431	7	10000	2	1	0	2	0
100	432	7	10000	2	1	0	2	0
102	433	7	10000	2	1	0	2	0
103	434	7	10000	2	1	0	2	0
104	435	7	10000	2	1	0	2	0
103	436	7	10000	2	1	0	2	0
104	437	7	10000	2	1	0	2	0
104	438	7	10000	2	1	0	2	0
105	439	7	10000	2	1	0	2	0
106	440	7	10000	2	1	0	2	0
103	441	7	10000	2	1	0	2	0
101	442	7	10000	2	1	0	2	0
99	443	7	10000	2	1	0	2	0
96	444	7	10000	2	1	0	2	0
94	445	7	10000	2	1	0	2	0
94	446	7	10000	2	1	0	2	0
92	447	7	10000	2	1	0	2	0
92	448	7	10000	2	1	0	2	0
89	449	7	10000	2	1	0	2	0
88	450	7	10000	2	1	0	2	0
87	451	7	10000	2	1	0	2	0
85	452	7	10000	2	1	0	2	0
84	453	7	10000	2	1	0	2	0
81	454	7	10000	2	1	0	2	0
78	455	7	10000	2	1	0	2	0
75	456	7	10000	2	1	0	2	0
72	457	7	10000	2	1	0	2	0
69	458	7	10000	2	1	0	2	0
68	459	7	10000	2	1	0	2	0
65	460	7	10000	2	1	0	2	0
63	461	7	10000	2	1	0	2	0
59	462	7	10000	2	1	0	2	0
57	463	7	10000	2	1	0	2	0
55	464	7	10000	2	1	0	2	0
53	465	7	10000	2	1	0	2	0
51	466	7	10000	2	1	0	2	0
52	467	7	10000	2	1	0	2	0
53	468	7	10000	2	1	0	2	0
51	469	7	10000	2	1	0	2	0
51	470	7	10000	2	1	0	2	0
50	471	7	10000	2	1	0	2	0
49	472	7	10000	2	1	0	2	0
47	473	7	10000	2	1	0	2	0
46	474	7	10000	2	1	0	2	0
44	475	7	10000	2	1	0	2	0
43	476	7	10000	2	1	0	2	0
42	477	7	10000	2	1	0	2	0
42	478	7	10000	2	1	0	2	0
42	479	7	10000	2	1	0	2	0
40	480	7	10000	2	1	0	2	0
39	481	7	10000	2	1	0	2	0
37	482	7	10000	2	1	0	2	0
36	483	7	10000	2	1	0	2	0
35	484	7	10000	2	1	0	2	0
33	485	7	10000	2	1	0	2	0
33	486	7	10000	2	1	0	2	0
33	487	7	10000	2	1	0	2	0
33	488	7	10000	2	1	0	2	0
31	489	7	10000	2	1	0	2	0
32	490	7	10000	2	1	0	2	0
32	491	7	10000	2	1	0	2	0
32	492	7	10000	2	1	0	2	0
32	493	7	10000	2	1	0	2	0
31	494	7	10000	2	1	0	2	0
30	495	7	10000	2	1	0	2	0
31	496	7	10000	2	1	0	2	0
30	497	7	10000	2	1	0	2	0
30	498	7	10000	2	1	0	2	0
32	499	7	10000	2	1	0	2	0
30	500	7	10000	2	1	0	2	0
28	501	7	10000	2	1	0	2	1
28	502	7	10000	2	1	0	2	1
26	503	7	10000	2	1	0	2	1
25	504	7	10000	2	1	0	2	1
24	505	7	10000	2	1	0	2	1
24	506	7	10000	2	1	0	2	1
23	507	7	10000	2	1	0	2	1
23	508	7	10000	2	1	0	2	1
20	509	7	10000	2	1	0	2	1
19	510	7	10000	2	1	0	2	1
20	511	7	10000	2	1	0	2	1
20	512	7	10000	2	1	0	2	1
21	513	7	10000	2	1	0	2	1
21	514	7	10000	2	1	0	2	1
22	515	7	10000	2	1	0	2	1
21	516	7	10000	2	1	0	2	1
21	517	7	10000	2	1	0	2	1
21	518	7	10000	2	1	0	2	1
23	519	7	10000	2	1	0	2	1
25	520	7	10000	2	1	0	2	1
26	521	7	10000	2	1	0	2	1
25	522	7	10000	2	1	0	2	1
27	523	7	10000	2	1	0	2	1
28	524	7	10000	2	1	0	2	1
26	525	7	10000	2	1	0	2	1
26	526	7	10000	2	1	0	2	1
25	527	7	10000	2	1	0	2	1
24	528	7	10000	2	1	0	2	1
22	529	7	10000	2	1	0	2	1
22	530	7	10000	2	1	0	2	1
21	531	7	10000	2	1	0	2	1
20	532	7	10000	2	1	0	2	1
20	533	7	10000	2	1	0	2	1
19	534	7	10000	2	1	0	2	1
19	535	7	10000	2	1	0	2	1
19	536	7	10000	2	1	0	2	1
20	537	7	10000	2	1	0	2	1
20	538	7	10000	2	1	0	2	1
21	539	7	10000	2	1	0	2	1
21	540	7	10000	2	1	0	2	1
20	541	7	10000	2	1	0	2	1
19	542	7	10000	2	1	0	2	1
18	543	7	10000	2	1	0	2	1
17	544	7	10000	2	1	0	2	1
16	545	7	10000	2	1	0	2	1
17	546	7	10000	2	1	0	2	1
17	547	7	10000	2	1	0	2	1
17	548	7	10000	2	1	0	2	1
16	549	7	10000	2	1	0	2	1
15	550	7	10000	2	1	0	2	1
16	551	7	10000	2	1	0	2	0
17	552	7	10000	2	1	0	2	0
15	553	7	10000	2	1	0	2	0
15	554	7	10000	2	1	0	2	0
15	555	7	10000	2	1	0	2	0
14	556	7	10000	2	1	0	2	0
13	557	7	10000	2	1	0	2	0
13	558	7	10000	2	1	0	2	0
15	559	7	10000	2	1	0	2	0
16	560	7	10000	2	1	0	2	0
17	561	7	10000	2	1	0	2	0
17	562	7	10000	2	1	0	2	0
17	563	7	10000	2	1	0	2	0
17	564	7	10000	2	1	0	2	0
16	565	7	10000	2	1	0	2	0
17	566	7	10000	2	1	0	2	0
17	567	7	10000	2	1	0	2	0
19	568	7	10000	2	1	0	2	0
20	569	7	10000	2	1	0	2	0
22	570	7	10000	2	1	0	2	0
25	571	7	10000	2	1	0	2	0
26	572	7	10000	2	1	0	2	0
28	573	7	10000	2	1	0	2	0
28	574	7	10000	2	1	0	2	0
27	575	7	10000	2	1	0	2	0
26	576	7	10000	2	1	0	2	0
25	577	7	10000	2	1	0	2	0
24	578	7	10000	2	1	0	2	0
24	579	7	10000	2	1	0	2	0
25	580	7	10000	2	1	0	2	0
24	581	7	10000	2	1	0	2	0
23	582	7	10000	2	1	0	2	0
28	583	7	10000	2	1	0	2	0
39	584	7	10000	2	1	0	2	0
44	585	7	10000	2	1	0	2	0
49	586	7	10000	2	1	0	2	0
58	587	7	10000	2	1	0	2	0
59	588	7	10000	2	1	0	2	0
58	589	7	10000	2	1	0	2	0
64	590	7	10000	2	1	0	2	0
82	591	7	10000	2	1	0	2	0
92	592	7	10000	2	1	0	2	0
106	593	7	10000	2	1	0	2	0
104	594	7	10000	2	1	0	2	0
106	595	7	10000	2	1	0	2	0
123	596	7	10000	2	1	0	2	0
149	597	7	10000	2	1	0	2	0
175	598	7	10000	2	1	0	2	0
238	599	7	10000	2	1	0	2	0
245	600	7	10000	2	1	0	2	0
267	601	7	10000	2	1	0	2	0
267	602	7	10000	2	1	0	2	0
286	603	7	10000	2	1	0	2	0
291	604	7	10000	2	1	0	2	0
340	605	7	10000	2	1	0	2	0
375	606	7	10000	2	1	0	2	0
361	607	7	10000	2	1	0	2	0
369	608	7	10000	2	1	0	2	0
365	609	7	10000	2	1	0	2	0
408	610	7	10000	2	1	0	2	0
511	611	7	10000	2	1	0	2	0
533	612	7	10000	2	1	0	2	0
625	613	7	10000	2	1	0	2	0
778	614	7	10000	2	1	0	2	0
864	615	7	10000	2	1	0	2	0
859	616	7	10000	2	1	0	2	0
888	617	7	10000	2	1	0	2	0
870	618	7	10000	2	1	0	2	0
858	619	7	10000	2	1	0	2	0
849	620	7	10000	2	1	0	2	0
836	621	7	10000	2	1	0	2	0
815	622	7	10000	2	1	0	2	0
786	623	7	10000	2	1	0	2	0
750	624	7	10000	2	1	0	2	0
723	625	7	10000	2	1	0	2	0
703	626	7	10000	2	1	0	2	0
688	627	7	10000	2	1	0	2	0
676	628	7	10000	2	1	0	2	0
663	629	7	10000	2	1	0	2	0
652	630	7	10000	2	1	0	2	0
644	631	7	10000	2	1	0	2	0
639	632	7	10000	2	1	0	2	0
634	633	7	10000	2	1	0	2	0
628	634	7	10000	2	1	0	2	0
621	635	7	10000	2	1	0	2	0
612	636	7	10000	2	1	0	2	0
600	637	7	10000	2	1	0	2	0
588	638	7	10000	2	1	0	2	0
579	639	7	10000	2	1	0	2	0
567	640	7	10000	2	1	0	2	0
554	641	7	10000	2	1	0	2	0
541	642	7	10000	2	1	0	2	0
526	643	7	10000	2	1	0	2	0
508	644	7	10000	2	1	0	2	0
488	645	7	10000	2	1	0	2	0
468	646	7	10000	2	1	0	2	0
447	647	7	10000	2	1	0	2	0
428	648	7	10000	2	1	0	2	0
411	649	7	10000	2	1	0	2	0
398	650	7	10000	2	1	0	2	0
388	651	7	10000	2	1	0	2	0
376	652	7	10000	2	1	0	2	0
364	653	7	10000	2	1	0	2	0
353	654	7	10000	2	1	0	2	0
342	655	7	10000	2	1	0	2	0
328	656	7	10000	2	1	0	2	0
314	657	7	10000	2	1	0	2	0
300	658	7	10000	2	1	0	2	0
289	659	7	10000	2	1	0	2	0
276	660	7	10000	2	1	0	2	0
265	661	7	10000	2	1	0	2	0
252	662	7	10000	2	1	0	2	0
241	663	7	10000	2	1	0	2	0
234	664	7	10000	2	1	0	2	0
228	665	7	10000	2	1	0	2	0
225	666	7	10000	2	1	0	2	0
221	667	7	10000	2	1	0	2	0
218	668	7	10000	2	1	0	2	0
213	669	7	10000	2	1	0	2	0
209	670	7	10000	2	1	0	2	0
201	671	7	10000	2	1	0	2	0
192	672	7	10000	2	1	0	2	0
187	673	7	10000	2	1	0	2	0
184	674	7	10000	2	1	0	2	0
184	675	7	10000	2	1	0	2	0
182	676	7	10000	2	1	0	2	0
182	677	7	10000	2	1	0	2	0
182	678	7	10000	2	1	0	2	0
184	679	7	10000	2	1	0	2	0
183	680	7	10000	2	1	0	2	0
181	681	7	10000	2	1	0	2	0
181	682	7	10000	2	1	0	2	0
181	683	7	10000	2	1	0	2	0
180	684	7	10000	2	1	0	2	0
181	685	7	10000	2	1	0	2	0
180	686	7	10000	2	1	0	2	0
180	687	7	10000	2	1	0	2	0
180	688	7	10000	2	1	0	2	0
176	689	7	10000	2	1	0	2	0
174	690	7	10000	2	1	0	2	0
174	691	7	10000	2	1	0	2	0
174	692	7	10000	2	1	0	2	0
172	693	7	10000	2	1	0	2	0
170	694	7	10000	2	1	0	2	0
170	695	7	10000	2	1	0	2	0
167	696	7	10000	2	1	0	2	0
164	697	7	10000	2	1	0	2	0
161	698	7	10000	2	1	0	2	0
159	699	7	10000	2	1	0	2	0
154	700	7	10000	2	1	0	2	0
150	701	7	10000	2	1	0	2	0
145	702	7	10000	2	1	0	2	0
140	703	7	10000	2	1	0	2	0
133	704	7	10000	2	1	0	2	0
128	705	7	10000	2	1	0	2	0
124	706	7	10000	2	1	0	2	0
120	707	7	10000	2	1	0	2	0
118	708	7	10000	2	1	0	2	0
113	709	7	10000	2	1	0	2	0
109	710	7	10000	2	1	0	2	0
109	711	7	10000	2	1	0	2	0
105	712	7	10000	2	1	0	2	0
103	713	7	10000	2	1	0	2	0
101	714	7	10000	2	1	0	2	0
99	715	7	10000	2	1	0	2	0
98	716	7	10000	2	1	0	2	0
98	717	7	10000	2	1	0	2	0
96	718	7	10000	2	1	0	2	0
96	719	7	10000	2	1	0	2	0
96	720	7	10000	2	1	0	2	0
93	721	7	10000	2	1	0	2	0
92	722	7	10000	2	1	0	2	0
91	723	7	10000	2	1	0	2	0
90	724	7	10000	2	1	0	2	0
90	725	7	10000	2	1	0	2	0
91	726	7	10000	2	1	0	2	0
93	727	7	10000	2	1	0	2	0
94	728	7	10000	2	1	0	2	0
92	729	7	10000	2	1	0	2	0
91	730	7	10000	2	1	0	2	0
90	731	7	10000	2	1	0	2	0
88	732	7	10000	2	1	0	2	0
85	733	7	10000	2	1	0	2	0
83	734	7	10000	2	1	0	2	0
80	735	7	10000	2	1	0	2	0
79	736	7	10000	2	1	0	2	0
77	737	7	10000	2	1	0	2	0
75	738	7	10000	2	1	0	2	0
77	739	7	10000	2	1	0	2	0
76	740	7	10000	2	1	0	2	0
75	741	7	10000	2	1	0	2	0
74	742	7	10000	2	1	0	2	0
73	743	7	10000	2	1	0	2	0
73	744	7	10000	2	1	0	2	0
73	745	7	10000	2	1	0	2	0
72	746	7	10000	2	1	0	2	0
70	747	7	10000	2	1	0	2	0
69	748	7	10000	2	1	0	2	0
66	749	7	10000	2	1	0	2	0
65	750	7	10000	2	1	0	2	0
63	751	7	10000	2	1	0	2	0
61	752	7	10000	2	1	0	2	0
59	753	7	10000	2	1	0	2	0
58	754	7	10000	2	1	0	2	0
57	755	7	10000	2	1	0	2	0
56	756	7	10000	2	1	0	2	0
53	757	7	10000	2	1	0	2	0
52	758	7	10000	2	1	0	2	0
52	759	7	10000	2	1	0	2	0
51	760	7	10000	2	1	0	2	0
50	761	7	10000	2	1	0	2	0
49	762	7	10000	2	1	0	2	0
48	763	7	10000	2	1	0	2	0
47	764	7	10000	2	1	0	2	0
46	765	7	10000	2	1	0	2	0
44	766	7	10000	2	1	0	2	0
43	767	7	10000	2	1	0	2	0
42	768	7	10000	2	1	0	2	0
39	769	7	10000	2	1	0	2	0
39	770	7	10000	2	1	0	2	0
38	771	7	10000	2	1	0	2	0
38	772	7	10000	2	1	0	2	0
37	773	7	10000	2	1	0	2	0
35	774	7	10000	2	1	0	2	0
34	775	7	10000	2	1	0	2	0
32	776	7	10000	2	1	0	2	0
31	777	7	10000	2	1	0	2	0
29	778	7	10000	2	1	0	2	0
29	779	7	10000	2	1	0	2	0
29	780	7	10000	2	1	0	2	0
27	781	7	10000	2	1	0	2	0
26	782	7	10000	2	1	0	2	0
26	783	7	10000	2	1	0	2	0
26	784	7	10000	2	1	0	2	0
26	785	7	10000	2	1	0	2	0
26	786	7	10000	2	1	0	2	0
25	787	7	10000	2	1	0	2	0
25	788	7	10000	2	1	0	2	0
23	789	7	10000	2	1	0	2	0
23	790	7	10000	2	1	0	2	0
24	791	7	10000	2	1	0	2	0
25	792	7	10000	2	1	0	2	0
26	793	7	10000	2	1	0	2	0
27	794	7	10000	2	1	0	2	0
27	795	7	10000	2	1	0	2	0
25	796	7	10000	2	1	0	2	0
25	797	7	10000	2	1	0	2	0
24	798	7	10000	2	1	0	2	0
24	799	7	10000	2	1	0	2	0
24	800	7	10000	2	1	0	2	0
23	801	7	10000	2	1	0	2	0
22	802	7	10000	2	1	0	2	0
22	803	7	10000	2	1	0	2	0
22	804	7	10000	2	1	0	2	0
22	805	7	10000	2	1	0	2	0
23	806	7	10000	2	1	0	2	0
24	807	7	10000	2	1	0	2	0
25	808	7	10000	2	1	0	2	0
23	809	7	10000	2	1	0	2	0
22	810	7	10000	2	1	0	2	0
21	811	7	10000	2	1	0	2	0
21	812	7	10000	2	1	0	2	0
20	813	7	10000	2	1	0	2	0
20	814	7	10000	2	1	0	2	0
20	815	7	10000	2	1	0	2	0
19	816	7	10000	2	1	0	2	0
18	817	7	10000	2	1	0	2	0
18	818	7	10000	2	1	0	2	0
20	819	7	10000	2	1	0	2	0
20	820	7	10000	2	1	0	2	0
20	821	7	10000	2	1	0	2	0
20	822	7	10000	2	1	0	2	0
21	823	7	10000	2	1	0	2	0
19	824	7	10000	2	1	0	2	0
18	825	7	10000	2	1	0	2	0
20	826	7	10000	2	1	0	2	0
18	827	7	10000	2	1	0	2	0
18	828	7	10000	2	1	0	2	0
17	829	7	10000	2	1	0	2	0
16	830	7	10000	2	1	0	2	0
17	831	7	10000	2	1	0	2	0
16	832	7	10000	2	1	0	2	0
16	833	7	10000	2	1	0	2	0
15	834	7	10000	2	1	0	2	0
16	835	7	10000	2	1	0	2	0
15	836	7	10000	2	1	0	2	0
15	837	7	10000	2	1	0	2	0
13	838	7	10000	2	1	0	2	0
15	839	7	10000	2	1	0	2	0
15	840	7	10000	2	1	0	2	0
16	841	7	10000	2	1	0	2	0
15	842	7	10000	2	1	0	2	0
15	843	7	10000	2	1	0	2	0
14	844	7	10000	2	1	0	2	0
13	845	7	10000	2	1	0	2	0
14	846	7	10000	2	1	0	2	0
14	847	7	10000	2	1	0	2	0
14	848	7	10000	2	1	0	2	0
12	849	7	10000	2	1	0	2	0
12	850	7	10000	2	1	0	2	0
14	851	7	10000	2	1	0	2	0
15	852	7	10000	2	1	0	2	0
15	853	7	10000	2	1	0	2	0
15	854	7	10000	2	1	0	2	0
14	855	7	10000	2	1	0	2	0
13	856	7	10000	2	1	0	2	0
13	857	7	10000	2	1	0	2	0
13	858	7	10000	2	1	0	2	0
16	859	7	10000	2	1	0	2	0
15	860	7	10000	2	1	0	2	0
15	861	7	10000	2	1	0	2	0
16	862	7	10000	2	1	0	2	0
18	863	7	10000	2	1	0	2	0
18	864	7	10000	2	1	0	2	0
18	865	7	10000	2	1	0	2	0
18	866	7	10000	2	1	0	2	0
18	867	7	10000	2	1	0	2	0
19	868	7	10000	2	1	0	2	0
19	869	7	10000	2	1	0	2	0
20	870	7	10000	2	1	0	2	0
20	871	7	10000	2	1	0	2	0
20	872	7	10000	2	1	0	2	0
20	873	7	10000	2	1	0	2	0
20	874	7	10000	2	1	0	2	0
21	875	7	10000	2	1	0	2	0
20	876	7	10000	2	1	0	2	0
19	877	7	10000	2	1	0	2	0
17	878	7	10000	2	1	0	2	0
20	879	7	10000	2	1	0	2	0
24	880	7	10000	2	1	0	2	0
29	881	7	10000	2	1	0	2	0
30	882	7	10000	2	1	0	2	0
34	883	7	10000	2	1	0	2	0
37	884	7	10000	2	1	0	2	0
42	885	7	10000	2	1	0	2	0
46	886	7	10000	2	1	0	2	0
50	887	7	10000	2	1	0	2	0
54	888	7	10000	2	1	0	2	0
52	889	7	10000	2	1	0	2	0
53	890	7	10000	2	1	0	2	0
56	891	7	10000	2	1	0	2	0
58	892	7	10000	2	1	0	2	0
57	893	7	10000	2	1	0	2	0
56	894	7	10000	2	1	0	2	0
54	895	7	10000	2	1	0	2	0
52	896	7	10000	2	1	0	2	0
50	897	7	10000	2	1	0	2	0
48	898	7	10000	2	1	0	2	0
48	899	7	10000	2	1	0	2	0
47	900	7	10000	2	1	0	2	0
45	901	7	10000	2	1	0	2	0
43	902	7	10000	2	1	0	2	0
42	903	7	10000	2	1	0	2	0
41	904	7	10000	2	1	0	2	0
38	905	7	10000	2	1	0	2	0
38	906	7	10000	2	1	0	2	0
39	907	7	10000	2	1	0	2	0
38	908	7	10000	2	1	0	2	0
36	909	7	10000	2	1	0	2	0
36	910	7	10000	2	1	0	2	0
34	911	7	10000	2	1	0	2	0
33	912	7	10000	2	1	0	2	0
32	913	7	10000	2	1	0	2	0
31	914	7	10000	2	1	0	2	0
32	915	7	10000	2	1	0	2	0
32	916	7	10000	2	1	0	2	0
32	917	7	10000	2	1	0	2	0
32	918	7	10000	2	1	0	2	0
33	919	7	10000	2	1	0	2	0
32	920	7	10000	2	1	0	2	0
30	921	7	10000	2	1	0	2	0
29	922	7	10000	2	1	0	2	0
28	923	7	10000	2	1	0	2	0
28	924	7	10000	2	1	0	2	0
27	925	7	10000	2	1	0	2	0
29	926	7	10000	2	1	0	2	0
29	927	7	10000	2	1	0	2	0
28	928	7	10000	2	1	0	2	0
28	929	7	10000	2	1	0	2	0
27	930	7	10000	2	1	0	2	0
28	931	7	10000	2	1	0	2	0
29	932	7	10000	2	1	0	2	0
27	933	7	10000	2	1	0	2	0
26	934	7	10000	2	1	0	2	0
26	935	7	10000	2	1	0	2	0
25	936	7	10000	2	1	0	2	0
24	937	7	10000	2	1	0	2	0
23	938	7	10000	2	1	0	2	0
24	939	7	10000	2	1	0	2	0
24	940	7	10000	2	1	0	2	0
24	941	7	10000	2	1	0	2	0
23	942	7	10000	2	1	0	2	0
23	943	7	10000	2	1	0	2	0
23	944	7	10000	2	1	0	2	0
23	945	7	10000	2	1	0	2	0
22	946	7	10000	2	1	0	2	0
22	947	7	10000	2	1	0	2	0
21	948	7	10000	2	1	0	2	0
20	949	7	10000	2	1	0	2	0
20	950	7	10000	2	1	0	2	0
20	951	7	10000	2	1	0	2	0
20	952	7	10000	2	1	0	2	0
19	953	7	10000	2	1	0	2	0
19	954	7	10000	2	1	0	2	0
18	955	7	10000	2	1	0	2	0
17	956	7	10000	2	1	0	2	0
17	957	7	10000	2	1	0	2	0
18	958	7	10000	2	1	0	2	0
20	959	7	10000	2	1	0	2	0
21	960	7	10000	2	1	0	2	0
20	961	7	10000	2	1	0	2	0
20	962	7	10000	2	1	0	2	0
20	963	7	10000	2	1	0	2	0
20	964	7	10000	2	1	0	2	0
20	965	7	10000	2	1	0	2	0
20	966	7	10000	2	1	0	2	0
20	967	7	10000	2	1	0	2	0
21	968	7	10000	2	1	0	2	0
21	969	7	10000	2	1	0	2	0
23	970	7	10000	2	1	0	2	0
24	971	7	10000	2	1	0	2	0
25	972	7	10000	2	1	0	2	0
25	973	7	10000	2	1	0	2	0
25	974	7	10000	2	1	0	2	0
24	975	7	10000	2	1	0	2	0
27	976	7	10000	2	1	0	2	0
32	977	7	10000	2	1	0	2	0
37	978	7	10000	2	1	0	2	0
41	979	7	10000	2	1	0	2	0
42	980	7	10000	2	1	0	2	0
42	981	7	10000	2	1	0	2	0
43	982	7	10000	2	1	0	2	0
44	983	7	10000	2	1	0	2	0
45	984	7	10000	2	1	0	2	0
49	985	7	10000	2	1	0	2	0
50	986	7	10000	2	1	0	2	0
51	987	7	10000	2	1	0	2	0
54	988	7	10000	2	1	0	2	0
56	989	7	10000	2	1	0	2	0
60	990	7	10000	2	1	0	2	0
63	991	7	10000	2	1	0	2	0
67	992	7	10000	2	1	0	2	0
71	993	7	10000	2	1	0	2	0
74	994	7	10000	2	1	0	2	0
75	995	7	10000	2	1	0	2	0
76	996	7	10000	2	1	0	2	0
76	997	7	10000	2	1	0	2	0
74	998	7	10000	2	1	0	2	0
72	999	7	10000	2	1	0	2	0
73	1000	7	10000	2	1	0	2	0
22	1	0	10000	3	1	0	3	0
24	2	0	10000	3	1	0	3	0
24	3	0	10000	3	1	0	3	0
25	4	0	10000	3	1	0	3	0
24	5	0	10000	3	1	0	3	0
23	6	0	10000	3	1	0	3	0
24	7	0	10000	3	1	0	3	0
24	8	0	10000	3	1	0	3	0
24	9	0	10000	3	1	0	3	0
23	10	0	10000	3	1	0	3	0
23	11	0	10000	3	1	0	3	0
24	12	0	10000	3	1	0	3	0
23	13	0	10000	3	1	0	3	0
22	14	0	10000	3	1	0	3	0
21	15	0	10000	3	1	0	3	0
20	16	0	10000	3	1	0	3	0
19	17	0	10000	3	1	0	3	0
18	18	0	10000	3	1	0	3	0
19	19	0	10000	3	1	0	3	0
20	20	0	10000	3	1	0	3	0
20	21	0	10000	3	1	0	3	0
20	22	0	10000	3	1	0	3	0
20	23	0	10000	3	1	0	3	0
21	24	0	10000	3	1	0	3	0
21	25	0	10000	3	1	0	3	0
20	26	0	10000	3	1	0	3	0
20	27	0	10000	3	1	0	3	0
20	28	0	10000	3	1	0	3	0
19	29	0	10000	3	1	0	3	0
18	30	0	10000	3	1	0	3	0
18	31	0	10000	3	1	0	3	0
18	32	0	10000	3	1	0	3	0
20	33	0	10000	3	1	0	3	0
20	34	0	10000	3	1	0	3	0
22	35	0	10000	3	1	0	3	0
24	36	0	10000	3	1	0	3	0
24	37	0	10000	3	1	0	3	0
24	38	0	10000	3	1	0	3	0
24	39	0	10000	3	1	0	3	0
25	40	0	10000	3	1	0	3	0
24	41	0	10000	3	1	0	3	0
23	42	0	10000	3	1	0	3	0
22	43	0	10000	3	1	0	3	0
21	44	0	10000	3	1	0	3	0
22	45	0	10000	3	1	0	3	0
21	46	0	10000	3	1	0	3	0
21	47	0	10000	3	1	0	3	0
21	48	0	10000	3	1	0	3	0
21	49	0	10000	3	1	0	3	0
19	50	0	10000	3	1	0	3	0
19	51	0	10000	3	1	0	3	0
19	52	0	10000	3	1	0	3	0
20	53	0	10000	3	1	0	3	0
19	54	0	10000	3	1	0	3	0
20	55	0	10000	3	1	0	3	0
20	56	0	10000	3	1	0	3	0
20	57	0	10000	3	1	0	3	0
20	58	0	10000	3	1	0	3	0
18	59	0	10000	3	1	0	3	0
20	60	0	10000	3	1	0	3	0
19	61	0	10000	3	1	0	3	0
19	62	0	10000	3	1	0	3	0
19	63	0	10000	3	1	0	3	0
18	64	0	10000	3	1	0	3	0
17	65	0	10000	3	1	0	3	0
17	66	0	10000	3	1	0	3	0
18	67	0	10000	3	1	0	3	0
19	68	0	10000	3	1	0	3	0
18	69	0	10000	3	1	0	3	0
17	70	0	10000	3	1	0	3	0
17	71	0	10000	3	1	0	3	0
17	72	0	10000	3	1	0	3	0
17	73	0	10000	3	1	0	3	0
17	74	0	10000	3	1	0	3	0
17	75	0	10000	3	1	0	3	0
17	76	0	10000	3	1	0	3	0
16	77	0	10000	3	1	0	3	0
15	78	0	10000	3	1	0	3	0
16	79	0	10000	3	1	0	3	0
17	80	0	10000	3	1	0	3	0
16	81	0	10000	3	1	0	3	0
16	82	0	10000	3	1	0	3	0
17	83	0	10000	3	1	0	3	0
18	84	0	10000	3	1	0	3	0
18	85	0	10000	3	1	0	3	0
18	86	0	10000	3	1	0	3	0
19	87	0	10000	3	1	0	3	0
19	88	0	10000	3	1	0	3	0
19	89	0	10000	3	1	0	3	0
17	90	0	10000	3	1	0	3	0
18	91	0	10000	3	1	0	3	0
20	92	0	10000	3	1	0	3	0
21	93	0	10000	3	1	0	3	0
22	94	0	10000	3	1	0	3	0
22	95	0	10000	3	1	0	3	0
22	96	0	10000	3	1	0	3	0
21	97	0	10000	3	1	0	3	0
22	98	0	10000	3	1	0	3	0
22	99	0	10000	3	1	0	3	0
23	100	0	10000	3	1	0	3	0
23	101	0	10000	3	1	0	3	0
23	102	0	10000	3	1	0	3	0
23	103	0	10000	3	1	0	3	0
23	104	0	10000	3	1	0	3	0
22	105	0	10000	3	1	0	3	0
21	106	0	10000	3	1	0	3	0
21	107	0	10000	3	1	0	3	0
22	108	0	10000	3	1	0	3	0
21	109	0	10000	3	1	0	3	0
20	110	0	10000	3	1	0	3	0
20	111	0	10000	3	1	0	3	0
20	112	0	10000	3	1	0	3	0
21	113	0	10000	3	1	0	3	0
20	114	0	10000	3	1	0	3	0
20	115	0	10000	3	1	0	3	0
19	116	0	10000	3	1	0	3	0
18	117	0	10000	3	1	0	3	0
17	118	0	10000	3	1	0	3	0
16	119	0	10000	3	1	0	3	0
18	120	0	10000	3	1	0	3	0
18	121	0	10000	3	1	0	3	0
18	122	0	10000	3	1	0	3	0
17	123	0	10000	3	1	0	3	0
19	124	0	10000	3	1	0	3	0
20	125	0	10000	3	1	0	3	0
19	126	0	10000	3	1	0	3	0
20	127	0	10000	3	1	0	3	0
19	128	0	10000	3	1	0	3	0
19	129	0	10000	3	1	0	3	0
18	130	0	10000	3	1	0	3	0
18	131	0	10000	3	1	0	3	0
17	132	0	10000	3	1	0	3	0
17	133	0	10000	3	1	0	3	0
17	134	0	10000	3	1	0	3	0
18	135	0	10000	3	1	0	3	0
18	136	0	10000	3	1	0	3	0
17	137	0	10000	3	1	0	3	0
17	138	0	10000	3	1	0	3	0
17	139	0	10000	3	1	0	3	0
18	140	0	10000	3	1	0	3	0
17	141	0	10000	3	1	0	3	0
17	142	0	10000	3	1	0	3	0
16	143	0	10000	3	1	0	3	0
16	144	0	10000	3	1	0	3	0
17	145	0	10000	3	1	0	3	0
16	146	0	10000	3	1	0	3	0
16	147	0	10000	3	1	0	3	0
16	148	0	10000	3	1	0	3	0
15	149	0	10000	3	1	0	3	0
14	150	0	10000	3	1	0	3	0
15	151	0	10000	3	1	0	3	0
15	152	0	10000	3	1	0	3	0
15	153	0	10000	3	1	0	3	0
15	154	0	10000	3	1	0	3	0
16	155	0	10000	3	1	0	3	0
16	156	0	10000	3	1	0	3	0
16	157	0	10000	3	1	0	3	0
16	158	0	10000	3	1	0	3	0
15	159	0	10000	3	1	0	3	0
17	160	0	10000	3	1	0	3	0
16	161	0	10000	3	1	0	3	0
15	162	0	10000	3	1	0	3	0
15	163	0	10000	3	1	0	3	0
15	164	0	10000	3	1	0	3	0
15	165	0	10000	3	1	0	3	0
14	166	0	10000	3	1	0	3	0
16	167	0	10000	3	1	0	3	0
16	168	0	10000	3	1	0	3	0
17	169	0	10000	3	1	0	3	0
14	170	0	10000	3	1	0	3	0
14	171	0	10000	3	1	0	3	0
14	172	0	10000	3	1	0	3	0
15	173	0	10000	3	1	0	3	0
16	174	0	10000	3	1	0	3	0
16	175	0	10000	3	1	0	3	0
16	176	0	10000	3	1	0	3	0
15	177	0	10000	3	1	0	3	0
14	178	0	10000	3	1	0	3	0
13	179	0	10000	3	1	0	3	0
15	180	0	10000	3	1	0	3	0
14	181	0	10000	3	1	0	3	0
15	182	0	10000	3	1	0	3	0
15	183	0	10000	3	1	0	3	0
15	184	0	10000	3	1	0	3	0
15	185	0	10000	3	1	0	3	0
15	186	0	10000	3	1	0	3	0
15	187	0	10000	3	1	0	3	0
15	188	0	10000	3	1	0	3	0
15	189	0	10000	3	1	0	3	0
13	190	0	10000	3	1	0	3	0
13	191	0	10000	3	1	0	3	0
13	192	0	10000	3	1	0	3	0
13	193	0	10000	3	1	0	3	0
13	194	0	10000	3	1	0	3	0
14	195	0	10000	3	1	0	3	0
13	196	0	10000	3	1	0	3	0
12	197	0	10000	3	1	0	3	0
12	198	0	10000	3	1	0	3	0
11	199	0	10000	3	1	0	3	0
13	200	0	10000	3	1	0	3	0
13	201	0	10000	3	1	0	3	0
13	202	0	10000	3	1	0	3	0
12	203	0	10000	3	1	0	3	0
12	204	0	10000	3	1	0	3	0
11	205	0	10000	3	1	0	3	0
11	206	0	10000	3	1	0	3	0
12	207	0	10000	3	1	0	3	0
13	208	0	10000	3	1	0	3	0
13	209	0	10000	3	1	0	3	0
11	210	0	10000	3	1	0	3	0
11	211	0	10000	3	1	0	3	0
11	212	0	10000	3	1	0	3	0
11	213	0	10000	3	1	0	3	0
13	214	0	10000	3	1	0	3	0
15	215	0	10000	3	1	0	3	0
15	216	0	10000	3	1	0	3	0
14	217	0	10000	3	1	0	3	0
13	218	0	10000	3	1	0	3	0
13	219	0	10000	3	1	0	3	0
15	220	0	10000	3	1	0	3	0
14	221	0	10000	3	1	0	3	0
14	222	0	10000	3	1	0	3	0
13	223	0	10000	3	1	0	3	0
13	224	0	10000	3	1	0	3	0
13	225	0	10000	3	1	0	3	0
13	226	0	10000	3	1	0	3	0
13	227	0	10000	3	1	0	3	0
13	228	0	10000	3	1	0	3	0
14	229	0	10000	3	1	0	3	0
13	230	0	10000	3	1	0	3	0
13	231	0	10000	3	1	0	3	0
13	232	0	10000	3	1	0	3	0
15	233	0	10000	3	1	0	3	0
16	234	0	10000	3	1	0	3	0
16	235	0	10000	3	1	0	3	0
18	236	0	10000	3	1	0	3	0
18	237	0	10000	3	1	0	3	0
18	238	0	10000	3	1	0	3	0
17	239	0	10000	3	1	0	3	0
18	240	0	10000	3	1	0	3	0
18	241	0	10000	3	1	0	3	0
17	242	0	10000	3	1	0	3	0
16	243	0	10000	3	1	0	3	0
15	244	0	10000	3	1	0	3	0
15	245	0	10000	3	1	0	3	0
14	246	0	10000	3	1	0	3	0
15	247	0	10000	3	1	0	3	0
16	248	0	10000	3	1	0	3	0
17	249	0	10000	3	1	0	3	0
15	250	0	10000	3	1	0	3	0
16	251	0	10000	3	1	0	3	0
15	252	0	10000	3	1	0	3	0
16	253	0	10000	3	1	0	3	0
17	254	0	10000	3	1	0	3	0
15	255	0	10000	3	1	0	3	0
15	256	0	10000	3	1	0	3	0
15	257	0	10000	3	1	0	3	0
14	258	0	10000	3	1	0	3	0
14	259	0	10000	3	1	0	3	0
16	260	0	10000	3	1	0	3	0
17	261	0	10000	3	1	0	3	0
18	262	0	10000	3	1	0	3	0
18	263	0	10000	3	1	0	3	0
18	264	0	10000	3	1	0	3	0
18	265	0	10000	3	1	0	3	0
16	266	0	10000	3	1	0	3	0
16	267	0	10000	3	1	0	3	0
16	268	0	10000	3	1	0	3	0
16	269	0	10000	3	1	0	3	0
15	270	0	10000	3	1	0	3	0
17	271	0	10000	3	1	0	3	0
20	272	0	10000	3	1	0	3	0
21	273	0	10000	3	1	0	3	0
20	274	0	10000	3	1	0	3	0
20	275	0	10000	3	1	0	3	0
20	276	0	10000	3	1	0	3	0
19	277	0	10000	3	1	0	3	0
18	278	0	10000	3	1	0	3	0
18	279	0	10000	3	1	0	3	0
18	280	0	10000	3	1	0	3	0
18	281	0	10000	3	1	0	3	0
19	282	0	10000	3	1	0	3	0
17	283	0	10000	3	1	0	3	0
17	284	0	10000	3	1	0	3	0
18	285	0	10000	3	1	0	3	0
18	286	0	10000	3	1	0	3	0
19	287	0	10000	3	1	0	3	0
19	288	0	10000	3	1	0	3	0
19	289	0	10000	3	1	0	3	0
17	290	0	10000	3	1	0	3	0
16	291	0	10000	3	1	0	3	0
17	292	0	10000	3	1	0	3	0
17	293	0	10000	3	1	0	3	0
18	294	0	10000	3	1	0	3	0
20	295	0	10000	3	1	0	3	0
21	296	0	10000	3	1	0	3	0
20	297	0	10000	3	1	0	3	0
20	298	0	10000	3	1	0	3	0
19	299	0	10000	3	1	0	3	0
22	300	0	10000	3	1	0	3	0
22	301	0	10000	3	1	0	3	0
21	302	0	10000	3	1	0	3	0
20	303	0	10000	3	1	0	3	0
20	304	0	10000	3	1	0	3	0
19	305	0	10000	3	1	0	3	0
18	306	0	10000	3	1	0	3	0
20	307	0	10000	3	1	0	3	0
19	308	0	10000	3	1	0	3	0
19	309	0	10000	3	1	0	3	0
18	310	0	10000	3	1	0	3	0
18	311	0	10000	3	1	0	3	0
18	312	0	10000	3	1	0	3	0
18	313	0	10000	3	1	0	3	0
17	314	0	10000	3	1	0	3	0
16	315	0	10000	3	1	0	3	0
16	316	0	10000	3	1	0	3	0
16	317	0	10000	3	1	0	3	0
16	318	0	10000	3	1	0	3	0
16	319	0	10000	3	1	0	3	0
18	320	0	10000	3	1	0	3	0
18	321	0	10000	3	1	0	3	0
18	322	0	10000	3	1	0	3	0
19	323	0	10000	3	1	0	3	0
19	324	0	10000	3	1	0	3	0
20	325	0	10000	3	1	0	3	0
19	326	0	10000	3	1	0	3	0
21	327	0	10000	3	1	0	3	0
23	328	0	10000	3	1	0	3	0
25	329	0	10000	3	1	0	3	0
24	330	0	10000	3	1	0	3	0
23	331	0	10000	3	1	0	3	0
23	332	0	10000	3	1	0	3	0
23	333	0	10000	3	1	0	3	0
23	334	0	10000	3	1	0	3	0
22	335	0	10000	3	1	0	3	0
21	336	0	10000	3	1	0	3	0
20	337	0	10000	3	1	0	3	0
20	338	0	10000	3	1	0	3	0
19	339	0	10000	3	1	0	3	0
20	340	0	10000	3	1	0	3	0
19	341	0	10000	3	1	0	3	0
18	342	0	10000	3	1	0	3	0
18	343	0	10000	3	1	0	3	0
18	344	0	10000	3	1	0	3	0
17	345	0	10000	3	1	0	3	0
19	346	0	10000	3	1	0	3	0
20	347	0	10000	3	1	0	3	0
21	348	0	10000	3	1	0	3	0
20	349	0	10000	3	1	0	3	0
19	350	0	10000	3	1	0	3	0
19	351	0	10000	3	1	0	3	0
18	352	0	10000	3	1	0	3	0
18	353	0	10000	3	1	0	3	0
19	354	0	10000	3	1	0	3	0
19	355	0	10000	3	1	0	3	0
19	356	0	10000	3	1	0	3	0
17	357	0	10000	3	1	0	3	0
17	358	0	10000	3	1	0	3	0
17	359	0	10000	3	1	0	3	0
22	360	0	10000	3	1	0	3	0
22	361	0	10000	3	1	0	3	0
20	362	0	10000	3	1	0	3	0
21	363	0	10000	3	1	0	3	0
19	364	0	10000	3	1	0	3	0
18	365	0	10000	3	1	0	3	0
18	366	0	10000	3	1	0	3	0
18	367	0	10000	3	1	0	3	0
18	368	0	10000	3	1	0	3	0
18	369	0	10000	3	1	0	3	0
14	370	0	10000	3	1	0	3	0
15	371	0	10000	3	1	0	3	0
16	372	0	10000	3	1	0	3	0
16	373	0	10000	3	1	0	3	0
16	374	0	10000	3	1	0	3	0
17	375	0	10000	3	1	0	3	0
18	376	0	10000	3	1	0	3	0
17	377	0	10000	3	1	0	3	0
17	378	0	10000	3	1	0	3	0
17	379	0	10000	3	1	0	3	0
20	380	0	10000	3	1	0	3	0
20	381	0	10000	3	1	0	3	0
20	382	0	10000	3	1	0	3	0
19	383	0	10000	3	1	0	3	0
19	384	0	10000	3	1	0	3	0
19	385	0	10000	3	1	0	3	0
19	386	0	10000	3	1	0	3	0
19	387	0	10000	3	1	0	3	0
19	388	0	10000	3	1	0	3	0
18	389	0	10000	3	1	0	3	0
16	390	0	10000	3	1	0	3	0
16	391	0	10000	3	1	0	3	0
16	392	0	10000	3	1	0	3	0
18	393	0	10000	3	1	0	3	0
19	394	0	10000	3	1	0	3	0
19	395	0	10000	3	1	0	3	0
18	396	0	10000	3	1	0	3	0
17	397	0	10000	3	1	0	3	0
17	398	0	10000	3	1	0	3	0
17	399	0	10000	3	1	0	3	0
18	400	0	10000	3	1	0	3	0
18	401	0	10000	3	1	0	3	0
17	402	0	10000	3	1	0	3	0
16	403	0	10000	3	1	0	3	0
17	404	0	10000	3	1	0	3	0
16	405	0	10000	3	1	0	3	0
16	406	0	10000	3	1	0	3	0
17	407	0	10000	3	1	0	3	0
18	408	0	10000	3	1	0	3	0
18	409	0	10000	3	1	0	3	0
15	410	0	10000	3	1	0	3	0
15	411	0	10000	3	1	0	3	0
16	412	0	10000	3	1	0	3	0
17	413	0	10000	3	1	0	3	0
17	414	0	10000	3	1	0	3	0
17	415	0	10000	3	1	0	3	0
19	416	0	10000	3	1	0	3	0
18	417	0	10000	3	1	0	3	0
16	418	0	10000	3	1	0	3	0
17	419	0	10000	3	1	0	3	0
17	420	0	10000	3	1	0	3	0
16	421	0	10000	3	1	0	3	0
17	422	0	10000	3	1	0	3	0
15	423	0	10000	3	1	0	3	0
15	424	0	10000	3	1	0	3	0
14	425	0	10000	3	1	0	3	0
14	426	0	10000	3	1	0	3	0
16	427	0	10000	3	1	0	3	0
16	428	0	10000	3	1	0	3	0
17	429	0	10000	3	1	0	3	0
15	430	0	10000	3	1	0	3	0
16	431	0	10000	3	1	0	3	0
16	432	0	10000	3	1	0	3	0
16	433	0	10000	3	1	0	3	0
15	434	0	10000	3	1	0	3	0
15	435	0	10000	3	1	0	3	0
15	436	0	10000	3	1	0	3	0
15	437	0	10000	3	1	0	3	0
14	438	0	10000	3	1	0	3	0
14	439	0	10000	3	1	0	3	0
17	440	0	10000	3	1	0	3	0
16	441	0	10000	3	1	0	3	0
16	442	0	10000	3	1	0	3	0
17	443	0	10000	3	1	0	3	0
16	444	0	10000	3	1	0	3	0
16	445	0	10000	3	1	0	3	0
19	446	0	10000	3	1	0	3	0
21	447	0	10000	3	1	0	3	0
20	448	0	10000	3	1	0	3	0
19	449	0	10000	3	1	0	3	0
19	450	0	10000	3	1	0	3	0
21	451	0	10000	3	1	0	3	0
24	452	0	10000	3	1	0	3	0
26	453	0	10000	3	1	0	3	0
25	454	0	10000	3	1	0	3	0
24	455	0	10000	3	1	0	3	0
24	456	0	10000	3	1	0	3	0
23	457	0	10000	3	1	0	3	0
24	458	0	10000	3	1	0	3	0
25	459	0	10000	3	1	0	3	0
28	460	0	10000	3	1	0	3	0
26	461	0	10000	3	1	0	3	0
26	462	0	10000	3	1	0	3	0
27	463	0	10000	3	1	0	3	0
27	464	0	10000	3	1	0	3	0
27	465	0	10000	3	1	0	3	0
30	466	0	10000	3	1	0	3	0
31	467	0	10000	3	1	0	3	0
30	468	0	10000	3	1	0	3	0
30	469	0	10000	3	1	0	3	0
34	470	0	10000	3	1	0	3	0
38	471	0	10000	3	1	0	3	0
39	472	0	10000	3	1	0	3	0
42	473	0	10000	3	1	0	3	0
45	474	0	10000	3	1	0	3	0
46	475	0	10000	3	1	0	3	0
45	476	0	10000	3	1	0	3	0
48	477	0	10000	3	1	0	3	0
51	478	0	10000	3	1	0	3	0
48	479	0	10000	3	1	0	3	0
51	480	0	10000	3	1	0	3	0
53	481	0	10000	3	1	0	3	0
54	482	0	10000	3	1	0	3	0
54	483	0	10000	3	1	0	3	0
57	484	0	10000	3	1	0	3	0
56	485	0	10000	3	1	0	3	0
56	486	0	10000	3	1	0	3	0
56	487	0	10000	3	1	0	3	0
57	488	0	10000	3	1	0	3	0
56	489	0	10000	3	1	0	3	0
66	490	0	10000	3	1	0	3	0
70	491	0	10000	3	1	0	3	0
74	492	0	10000	3	1	0	3	0
80	493	0	10000	3	1	0	3	0
83	494	0	10000	3	1	0	3	0
84	495	0	10000	3	1	0	3	0
82	496	0	10000	3	1	0	3	0
81	497	0	10000	3	1	0	3	0
80	498	0	10000	3	1	0	3	0
84	499	0	10000	3	1	0	3	0
87	500	0	10000	3	1	0	3	0
89	501	0	10000	3	1	0	3	1
89	502	0	10000	3	1	0	3	1
95	503	0	10000	3	1	0	3	1
93	504	0	10000	3	1	0	3	1
93	505	0	10000	3	1	0	3	1
92	506	0	10000	3	1	0	3	1
90	507	0	10000	3	1	0	3	1
86	508	0	10000	3	1	0	3	1
83	509	0	10000	3	1	0	3	1
81	510	0	10000	3	1	0	3	1
82	511	0	10000	3	1	0	3	1
82	512	0	10000	3	1	0	3	1
78	513	0	10000	3	1	0	3	1
75	514	0	10000	3	1	0	3	1
72	515	0	10000	3	1	0	3	1
70	516	0	10000	3	1	0	3	1
66	517	0	10000	3	1	0	3	1
63	518	0	10000	3	1	0	3	1
61	519	0	10000	3	1	0	3	1
61	520	0	10000	3	1	0	3	1
58	521	0	10000	3	1	0	3	1
57	522	0	10000	3	1	0	3	1
55	523	0	10000	3	1	0	3	1
53	524	0	10000	3	1	0	3	1
54	525	0	10000	3	1	0	3	1
53	526	0	10000	3	1	0	3	1
54	527	0	10000	3	1	0	3	1
56	528	0	10000	3	1	0	3	1
55	529	0	10000	3	1	0	3	1
51	530	0	10000	3	1	0	3	1
55	531	0	10000	3	1	0	3	1
58	532	0	10000	3	1	0	3	1
60	533	0	10000	3	1	0	3	1
66	534	0	10000	3	1	0	3	1
68	535	0	10000	3	1	0	3	1
67	536	0	10000	3	1	0	3	1
65	537	0	10000	3	1	0	3	1
64	538	0	10000	3	1	0	3	1
63	539	0	10000	3	1	0	3	1
65	540	0	10000	3	1	0	3	1
65	541	0	10000	3	1	0	3	1
65	542	0	10000	3	1	0	3	1
65	543	0	10000	3	1	0	3	1
65	544	0	10000	3	1	0	3	1
63	545	0	10000	3	1	0	3	1
62	546	0	10000	3	1	0	3	1
60	547	0	10000	3	1	0	3	1
59	548	0	10000	3	1	0	3	1
57	549	0	10000	3	1	0	3	1
54	550	0	10000	3	1	0	3	1
52	551	0	10000	3	1	0	3	0
51	552	0	10000	3	1	0	3	0
49	553	0	10000	3	1	0	3	0
48	554	0	10000	3	1	0	3	0
47	555	0	10000	3	1	0	3	0
47	556	0	10000	3	1	0	3	0
44	557	0	10000	3	1	0	3	0
42	558	0	10000	3	1	0	3	0
42	559	0	10000	3	1	0	3	0
44	560	0	10000	3	1	0	3	0
44	561	0	10000	3	1	0	3	0
42	562	0	10000	3	1	0	3	0
40	563	0	10000	3	1	0	3	0
39	564	0	10000	3	1	0	3	0
37	565	0	10000	3	1	0	3	0
36	566	0	10000	3	1	0	3	0
35	567	0	10000	3	1	0	3	0
35	568	0	10000	3	1	0	3	0
34	569	0	10000	3	1	0	3	0
32	570	0	10000	3	1	0	3	0
33	571	0	10000	3	1	0	3	0
33	572	0	10000	3	1	0	3	0
32	573	0	10000	3	1	0	3	0
31	574	0	10000	3	1	0	3	0
31	575	0	10000	3	1	0	3	0
32	576	0	10000	3	1	0	3	0
32	577	0	10000	3	1	0	3	0
33	578	0	10000	3	1	0	3	0
35	579	0	10000	3	1	0	3	0
39	580	0	10000	3	1	0	3	0
40	581	0	10000	3	1	0	3	0
40	582	0	10000	3	1	0	3	0
40	583	0	10000	3	1	0	3	0
41	584	0	10000	3	1	0	3	0
41	585	0	10000	3	1	0	3	0
42	586	0	10000	3	1	0	3	0
43	587	0	10000	3	1	0	3	0
41	588	0	10000	3	1	0	3	0
45	589	0	10000	3	1	0	3	0
52	590	0	10000	3	1	0	3	0
57	591	0	10000	3	1	0	3	0
56	592	0	10000	3	1	0	3	0
57	593	0	10000	3	1	0	3	0
57	594	0	10000	3	1	0	3	0
59	595	0	10000	3	1	0	3	0
67	596	0	10000	3	1	0	3	0
85	597	0	10000	3	1	0	3	0
98	598	0	10000	3	1	0	3	0
169	599	0	10000	3	1	0	3	0
199	600	0	10000	3	1	0	3	0
205	601	0	10000	3	1	0	3	0
221	602	0	10000	3	1	0	3	0
233	603	0	10000	3	1	0	3	0
232	604	0	10000	3	1	0	3	0
253	605	0	10000	3	1	0	3	0
259	606	0	10000	3	1	0	3	0
288	607	0	10000	3	1	0	3	0
287	608	0	10000	3	1	0	3	0
288	609	0	10000	3	1	0	3	0
281	610	0	10000	3	1	0	3	0
272	611	0	10000	3	1	0	3	0
274	612	0	10000	3	1	0	3	0
284	613	0	10000	3	1	0	3	0
275	614	0	10000	3	1	0	3	0
267	615	0	10000	3	1	0	3	0
258	616	0	10000	3	1	0	3	0
255	617	0	10000	3	1	0	3	0
252	618	0	10000	3	1	0	3	0
260	619	0	10000	3	1	0	3	0
273	620	0	10000	3	1	0	3	0
264	621	0	10000	3	1	0	3	0
276	622	0	10000	3	1	0	3	0
296	623	0	10000	3	1	0	3	0
291	624	0	10000	3	1	0	3	0
295	625	0	10000	3	1	0	3	0
297	626	0	10000	3	1	0	3	0
288	627	0	10000	3	1	0	3	0
275	628	0	10000	3	1	0	3	0
265	629	0	10000	3	1	0	3	0
254	630	0	10000	3	1	0	3	0
247	631	0	10000	3	1	0	3	0
240	632	0	10000	3	1	0	3	0
234	633	0	10000	3	1	0	3	0
230	634	0	10000	3	1	0	3	0
227	635	0	10000	3	1	0	3	0
224	636	0	10000	3	1	0	3	0
219	637	0	10000	3	1	0	3	0
216	638	0	10000	3	1	0	3	0
214	639	0	10000	3	1	0	3	0
214	640	0	10000	3	1	0	3	0
212	641	0	10000	3	1	0	3	0
209	642	0	10000	3	1	0	3	0
204	643	0	10000	3	1	0	3	0
196	644	0	10000	3	1	0	3	0
187	645	0	10000	3	1	0	3	0
178	646	0	10000	3	1	0	3	0
171	647	0	10000	3	1	0	3	0
166	648	0	10000	3	1	0	3	0
164	649	0	10000	3	1	0	3	0
162	650	0	10000	3	1	0	3	0
162	651	0	10000	3	1	0	3	0
161	652	0	10000	3	1	0	3	0
158	653	0	10000	3	1	0	3	0
152	654	0	10000	3	1	0	3	0
147	655	0	10000	3	1	0	3	0
146	656	0	10000	3	1	0	3	0
145	657	0	10000	3	1	0	3	0
144	658	0	10000	3	1	0	3	0
145	659	0	10000	3	1	0	3	0
146	660	0	10000	3	1	0	3	0
147	661	0	10000	3	1	0	3	0
147	662	0	10000	3	1	0	3	0
147	663	0	10000	3	1	0	3	0
146	664	0	10000	3	1	0	3	0
144	665	0	10000	3	1	0	3	0
141	666	0	10000	3	1	0	3	0
140	667	0	10000	3	1	0	3	0
139	668	0	10000	3	1	0	3	0
134	669	0	10000	3	1	0	3	0
128	670	0	10000	3	1	0	3	0
123	671	0	10000	3	1	0	3	0
117	672	0	10000	3	1	0	3	0
112	673	0	10000	3	1	0	3	0
107	674	0	10000	3	1	0	3	0
103	675	0	10000	3	1	0	3	0
99	676	0	10000	3	1	0	3	0
94	677	0	10000	3	1	0	3	0
90	678	0	10000	3	1	0	3	0
86	679	0	10000	3	1	0	3	0
85	680	0	10000	3	1	0	3	0
83	681	0	10000	3	1	0	3	0
80	682	0	10000	3	1	0	3	0
77	683	0	10000	3	1	0	3	0
74	684	0	10000	3	1	0	3	0
71	685	0	10000	3	1	0	3	0
68	686	0	10000	3	1	0	3	0
65	687	0	10000	3	1	0	3	0
63	688	0	10000	3	1	0	3	0
61	689	0	10000	3	1	0	3	0
57	690	0	10000	3	1	0	3	0
55	691	0	10000	3	1	0	3	0
53	692	0	10000	3	1	0	3	0
53	693	0	10000	3	1	0	3	0
52	694	0	10000	3	1	0	3	0
52	695	0	10000	3	1	0	3	0
54	696	0	10000	3	1	0	3	0
52	697	0	10000	3	1	0	3	0
50	698	0	10000	3	1	0	3	0
51	699	0	10000	3	1	0	3	0
53	700	0	10000	3	1	0	3	0
54	701	0	10000	3	1	0	3	0
55	702	0	10000	3	1	0	3	0
53	703	0	10000	3	1	0	3	0
51	704	0	10000	3	1	0	3	0
50	705	0	10000	3	1	0	3	0
48	706	0	10000	3	1	0	3	0
48	707	0	10000	3	1	0	3	0
47	708	0	10000	3	1	0	3	0
47	709	0	10000	3	1	0	3	0
43	710	0	10000	3	1	0	3	0
41	711	0	10000	3	1	0	3	0
40	712	0	10000	3	1	0	3	0
39	713	0	10000	3	1	0	3	0
39	714	0	10000	3	1	0	3	0
38	715	0	10000	3	1	0	3	0
38	716	0	10000	3	1	0	3	0
37	717	0	10000	3	1	0	3	0
36	718	0	10000	3	1	0	3	0
35	719	0	10000	3	1	0	3	0
37	720	0	10000	3	1	0	3	0
38	721	0	10000	3	1	0	3	0
38	722	0	10000	3	1	0	3	0
37	723	0	10000	3	1	0	3	0
36	724	0	10000	3	1	0	3	0
35	725	0	10000	3	1	0	3	0
33	726	0	10000	3	1	0	3	0
33	727	0	10000	3	1	0	3	0
32	728	0	10000	3	1	0	3	0
31	729	0	10000	3	1	0	3	0
28	730	0	10000	3	1	0	3	0
27	731	0	10000	3	1	0	3	0
26	732	0	10000	3	1	0	3	0
25	733	0	10000	3	1	0	3	0
25	734	0	10000	3	1	0	3	0
25	735	0	10000	3	1	0	3	0
26	736	0	10000	3	1	0	3	0
27	737	0	10000	3	1	0	3	0
27	738	0	10000	3	1	0	3	0
26	739	0	10000	3	1	0	3	0
28	740	0	10000	3	1	0	3	0
29	741	0	10000	3	1	0	3	0
29	742	0	10000	3	1	0	3	0
28	743	0	10000	3	1	0	3	0
26	744	0	10000	3	1	0	3	0
25	745	0	10000	3	1	0	3	0
24	746	0	10000	3	1	0	3	0
24	747	0	10000	3	1	0	3	0
24	748	0	10000	3	1	0	3	0
24	749	0	10000	3	1	0	3	0
21	750	0	10000	3	1	0	3	0
21	751	0	10000	3	1	0	3	0
22	752	0	10000	3	1	0	3	0
20	753	0	10000	3	1	0	3	0
20	754	0	10000	3	1	0	3	0
20	755	0	10000	3	1	0	3	0
20	756	0	10000	3	1	0	3	0
19	757	0	10000	3	1	0	3	0
19	758	0	10000	3	1	0	3	0
19	759	0	10000	3	1	0	3	0
20	760	0	10000	3	1	0	3	0
22	761	0	10000	3	1	0	3	0
22	762	0	10000	3	1	0	3	0
21	763	0	10000	3	1	0	3	0
22	764	0	10000	3	1	0	3	0
21	765	0	10000	3	1	0	3	0
20	766	0	10000	3	1	0	3	0
20	767	0	10000	3	1	0	3	0
20	768	0	10000	3	1	0	3	0
21	769	0	10000	3	1	0	3	0
20	770	0	10000	3	1	0	3	0
19	771	0	10000	3	1	0	3	0
19	772	0	10000	3	1	0	3	0
20	773	0	10000	3	1	0	3	0
21	774	0	10000	3	1	0	3	0
23	775	0	10000	3	1	0	3	0
24	776	0	10000	3	1	0	3	0
25	777	0	10000	3	1	0	3	0
23	778	0	10000	3	1	0	3	0
22	779	0	10000	3	1	0	3	0
24	780	0	10000	3	1	0	3	0
22	781	0	10000	3	1	0	3	0
22	782	0	10000	3	1	0	3	0
20	783	0	10000	3	1	0	3	0
20	784	0	10000	3	1	0	3	0
19	785	0	10000	3	1	0	3	0
18	786	0	10000	3	1	0	3	0
19	787	0	10000	3	1	0	3	0
18	788	0	10000	3	1	0	3	0
18	789	0	10000	3	1	0	3	0
16	790	0	10000	3	1	0	3	0
17	791	0	10000	3	1	0	3	0
18	792	0	10000	3	1	0	3	0
18	793	0	10000	3	1	0	3	0
17	794	0	10000	3	1	0	3	0
17	795	0	10000	3	1	0	3	0
17	796	0	10000	3	1	0	3	0
16	797	0	10000	3	1	0	3	0
15	798	0	10000	3	1	0	3	0
15	799	0	10000	3	1	0	3	0
17	800	0	10000	3	1	0	3	0
17	801	0	10000	3	1	0	3	0
18	802	0	10000	3	1	0	3	0
19	803	0	10000	3	1	0	3	0
18	804	0	10000	3	1	0	3	0
18	805	0	10000	3	1	0	3	0
17	806	0	10000	3	1	0	3	0
17	807	0	10000	3	1	0	3	0
17	808	0	10000	3	1	0	3	0
17	809	0	10000	3	1	0	3	0
14	810	0	10000	3	1	0	3	0
15	811	0	10000	3	1	0	3	0
15	812	0	10000	3	1	0	3	0
16	813	0	10000	3	1	0	3	0
17	814	0	10000	3	1	0	3	0
18	815	0	10000	3	1	0	3	0
18	816	0	10000	3	1	0	3	0
19	817	0	10000	3	1	0	3	0
19	818	0	10000	3	1	0	3	0
19	819	0	10000	3	1	0	3	0
21	820	0	10000	3	1	0	3	0
20	821	0	10000	3	1	0	3	0
19	822	0	10000	3	1	0	3	0
18	823	0	10000	3	1	0	3	0
18	824	0	10000	3	1	0	3	0
17	825	0	10000	3	1	0	3	0
16	826	0	10000	3	1	0	3	0
17	827	0	10000	3	1	0	3	0
17	828	0	10000	3	1	0	3	0
17	829	0	10000	3	1	0	3	0
15	830	0	10000	3	1	0	3	0
15	831	0	10000	3	1	0	3	0
15	832	0	10000	3	1	0	3	0
16	833	0	10000	3	1	0	3	0
16	834	0	10000	3	1	0	3	0
16	835	0	10000	3	1	0	3	0
17	836	0	10000	3	1	0	3	0
14	837	0	10000	3	1	0	3	0
14	838	0	10000	3	1	0	3	0
13	839	0	10000	3	1	0	3	0
15	840	0	10000	3	1	0	3	0
14	841	0	10000	3	1	0	3	0
13	842	0	10000	3	1	0	3	0
13	843	0	10000	3	1	0	3	0
12	844	0	10000	3	1	0	3	0
11	845	0	10000	3	1	0	3	0
11	846	0	10000	3	1	0	3	0
11	847	0	10000	3	1	0	3	0
12	848	0	10000	3	1	0	3	0
12	849	0	10000	3	1	0	3	0
10	850	0	10000	3	1	0	3	0
10	851	0	10000	3	1	0	3	0
11	852	0	10000	3	1	0	3	0
10	853	0	10000	3	1	0	3	0
11	854	0	10000	3	1	0	3	0
12	855	0	10000	3	1	0	3	0
12	856	0	10000	3	1	0	3	0
11	857	0	10000	3	1	0	3	0
12	858	0	10000	3	1	0	3	0
11	859	0	10000	3	1	0	3	0
12	860	0	10000	3	1	0	3	0
13	861	0	10000	3	1	0	3	0
12	862	0	10000	3	1	0	3	0
11	863	0	10000	3	1	0	3	0
12	864	0	10000	3	1	0	3	0
11	865	0	10000	3	1	0	3	0
11	866	0	10000	3	1	0	3	0
12	867	0	10000	3	1	0	3	0
12	868	0	10000	3	1	0	3	0
14	869	0	10000	3	1	0	3	0
13	870	0	10000	3	1	0	3	0
14	871	0	10000	3	1	0	3	0
15	872	0	10000	3	1	0	3	0
15	873	0	10000	3	1	0	3	0
15	874	0	10000	3	1	0	3	0
15	875	0	10000	3	1	0	3	0
15	876	0	10000	3	1	0	3	0
15	877	0	10000	3	1	0	3	0
14	878	0	10000	3	1	0	3	0
13	879	0	10000	3	1	0	3	0
14	880	0	10000	3	1	0	3	0
14	881	0	10000	3	1	0	3	0
14	882	0	10000	3	1	0	3	0
13	883	0	10000	3	1	0	3	0
14	884	0	10000	3	1	0	3	0
13	885	0	10000	3	1	0	3	0
13	886	0	10000	3	1	0	3	0
13	887	0	10000	3	1	0	3	0
13	888	0	10000	3	1	0	3	0
15	889	0	10000	3	1	0	3	0
14	890	0	10000	3	1	0	3	0
16	891	0	10000	3	1	0	3	0
18	892	0	10000	3	1	0	3	0
17	893	0	10000	3	1	0	3	0
16	894	0	10000	3	1	0	3	0
17	895	0	10000	3	1	0	3	0
16	896	0	10000	3	1	0	3	0
16	897	0	10000	3	1	0	3	0
15	898	0	10000	3	1	0	3	0
15	899	0	10000	3	1	0	3	0
17	900	0	10000	3	1	0	3	0
16	901	0	10000	3	1	0	3	0
15	902	0	10000	3	1	0	3	0
15	903	0	10000	3	1	0	3	0
14	904	0	10000	3	1	0	3	0
14	905	0	10000	3	1	0	3	0
14	906	0	10000	3	1	0	3	0
14	907	0	10000	3	1	0	3	0
15	908	0	10000	3	1	0	3	0
15	909	0	10000	3	1	0	3	0
13	910	0	10000	3	1	0	3	0
13	911	0	10000	3	1	0	3	0
13	912	0	10000	3	1	0	3	0
13	913	0	10000	3	1	0	3	0
15	914	0	10000	3	1	0	3	0
16	915	0	10000	3	1	0	3	0
17	916	0	10000	3	1	0	3	0
17	917	0	10000	3	1	0	3	0
16	918	0	10000	3	1	0	3	0
15	919	0	10000	3	1	0	3	0
17	920	0	10000	3	1	0	3	0
16	921	0	10000	3	1	0	3	0
16	922	0	10000	3	1	0	3	0
15	923	0	10000	3	1	0	3	0
14	924	0	10000	3	1	0	3	0
14	925	0	10000	3	1	0	3	0
13	926	0	10000	3	1	0	3	0
14	927	0	10000	3	1	0	3	0
14	928	0	10000	3	1	0	3	0
15	929	0	10000	3	1	0	3	0
12	930	0	10000	3	1	0	3	0
13	931	0	10000	3	1	0	3	0
13	932	0	10000	3	1	0	3	0
12	933	0	10000	3	1	0	3	0
12	934	0	10000	3	1	0	3	0
13	935	0	10000	3	1	0	3	0
13	936	0	10000	3	1	0	3	0
13	937	0	10000	3	1	0	3	0
12	938	0	10000	3	1	0	3	0
12	939	0	10000	3	1	0	3	0
13	940	0	10000	3	1	0	3	0
13	941	0	10000	3	1	0	3	0
13	942	0	10000	3	1	0	3	0
12	943	0	10000	3	1	0	3	0
13	944	0	10000	3	1	0	3	0
14	945	0	10000	3	1	0	3	0
13	946	0	10000	3	1	0	3	0
14	947	0	10000	3	1	0	3	0
15	948	0	10000	3	1	0	3	0
15	949	0	10000	3	1	0	3	0
13	950	0	10000	3	1	0	3	0
14	951	0	10000	3	1	0	3	0
16	952	0	10000	3	1	0	3	0
17	953	0	10000	3	1	0	3	0
17	954	0	10000	3	1	0	3	0
17	955	0	10000	3	1	0	3	0
16	956	0	10000	3	1	0	3	0
15	957	0	10000	3	1	0	3	0
15	958	0	10000	3	1	0	3	0
16	959	0	10000	3	1	0	3	0
18	960	0	10000	3	1	0	3	0
18	961	0	10000	3	1	0	3	0
18	962	0	10000	3	1	0	3	0
17	963	0	10000	3	1	0	3	0
18	964	0	10000	3	1	0	3	0
17	965	0	10000	3	1	0	3	0
17	966	0	10000	3	1	0	3	0
18	967	0	10000	3	1	0	3	0
18	968	0	10000	3	1	0	3	0
17	969	0	10000	3	1	0	3	0
15	970	0	10000	3	1	0	3	0
14	971	0	10000	3	1	0	3	0
14	972	0	10000	3	1	0	3	0
15	973	0	10000	3	1	0	3	0
15	974	0	10000	3	1	0	3	0
15	975	0	10000	3	1	0	3	0
16	976	0	10000	3	1	0	3	0
16	977	0	10000	3	1	0	3	0
15	978	0	10000	3	1	0	3	0
15	979	0	10000	3	1	0	3	0
17	980	0	10000	3	1	0	3	0
16	981	0	10000	3	1	0	3	0
16	982	0	10000	3	1	0	3	0
17	983	0	10000	3	1	0	3	0
17	984	0	10000	3	1	0	3	0
16	985	0	10000	3	1	0	3	0
16	986	0	10000	3	1	0	3	0
17	987	0	10000	3	1	0	3	0
18	988	0	10000	3	1	0	3	0
20	989	0	10000	3	1	0	3	0
20	990	0	10000	3	1	0	3	0
21	991	0	10000	3	1	0	3	0
21	992	0	10000	3	1	0	3	0
21	993	0	10000	3	1	0	3	0
20	994	0	10000	3	1	0	3	0
21	995	0	10000	3	1	0	3	0
23	996	0	10000	3	1	0	3	0
24	997	0	10000	3	1	0	3	0
24	998	0	10000	3	1	0	3	0
25	999	0	10000	3	1	0	3	0
27	1000	0	10000	3	1	0	3	0
23	1	7	10000	4	1	0	4	0
23	2	7	10000	4	1	0	4	0
23	3	7	10000	4	1	0	4	0
22	4	7	10000	4	1	0	4	0
21	5	7	10000	4	1	0	4	0
20	6	7	10000	4	1	0	4	0
19	7	7	10000	4	1	0	4	0
19	8	7	10000	4	1	0	4	0
20	9	7	10000	4	1	0	4	0
19	10	7	10000	4	1	0	4	0
19	11	7	10000	4	1	0	4	0
19	12	7	10000	4	1	0	4	0
19	13	7	10000	4	1	0	4	0
19	14	7	10000	4	1	0	4	0
19	15	7	10000	4	1	0	4	0
19	16	7	10000	4	1	0	4	0
20	17	7	10000	4	1	0	4	0
19	18	7	10000	4	1	0	4	0
17	19	7	10000	4	1	0	4	0
17	20	7	10000	4	1	0	4	0
16	21	7	10000	4	1	0	4	0
16	22	7	10000	4	1	0	4	0
15	23	7	10000	4	1	0	4	0
14	24	7	10000	4	1	0	4	0
14	25	7	10000	4	1	0	4	0
14	26	7	10000	4	1	0	4	0
13	27	7	10000	4	1	0	4	0
13	28	7	10000	4	1	0	4	0
14	29	7	10000	4	1	0	4	0
13	30	7	10000	4	1	0	4	0
14	31	7	10000	4	1	0	4	0
13	32	7	10000	4	1	0	4	0
12	33	7	10000	4	1	0	4	0
13	34	7	10000	4	1	0	4	0
12	35	7	10000	4	1	0	4	0
12	36	7	10000	4	1	0	4	0
13	37	7	10000	4	1	0	4	0
11	38	7	10000	4	1	0	4	0
10	39	7	10000	4	1	0	4	0
11	40	7	10000	4	1	0	4	0
10	41	7	10000	4	1	0	4	0
10	42	7	10000	4	1	0	4	0
10	43	7	10000	4	1	0	4	0
10	44	7	10000	4	1	0	4	0
10	45	7	10000	4	1	0	4	0
9	46	7	10000	4	1	0	4	0
9	47	7	10000	4	1	0	4	0
9	48	7	10000	4	1	0	4	0
11	49	7	10000	4	1	0	4	0
10	50	7	10000	4	1	0	4	0
9	51	7	10000	4	1	0	4	0
9	52	7	10000	4	1	0	4	0
10	53	7	10000	4	1	0	4	0
9	54	7	10000	4	1	0	4	0
9	55	7	10000	4	1	0	4	0
10	56	7	10000	4	1	0	4	0
10	57	7	10000	4	1	0	4	0
10	58	7	10000	4	1	0	4	0
8	59	7	10000	4	1	0	4	0
9	60	7	10000	4	1	0	4	0
10	61	7	10000	4	1	0	4	0
10	62	7	10000	4	1	0	4	0
10	63	7	10000	4	1	0	4	0
11	64	7	10000	4	1	0	4	0
11	65	7	10000	4	1	0	4	0
10	66	7	10000	4	1	0	4	0
10	67	7	10000	4	1	0	4	0
11	68	7	10000	4	1	0	4	0
12	69	7	10000	4	1	0	4	0
12	70	7	10000	4	1	0	4	0
13	71	7	10000	4	1	0	4	0
13	72	7	10000	4	1	0	4	0
13	73	7	10000	4	1	0	4	0
13	74	7	10000	4	1	0	4	0
13	75	7	10000	4	1	0	4	0
13	76	7	10000	4	1	0	4	0
13	77	7	10000	4	1	0	4	0
13	78	7	10000	4	1	0	4	0
12	79	7	10000	4	1	0	4	0
12	80	7	10000	4	1	0	4	0
13	81	7	10000	4	1	0	4	0
12	82	7	10000	4	1	0	4	0
12	83	7	10000	4	1	0	4	0
11	84	7	10000	4	1	0	4	0
11	85	7	10000	4	1	0	4	0
11	86	7	10000	4	1	0	4	0
11	87	7	10000	4	1	0	4	0
11	88	7	10000	4	1	0	4	0
12	89	7	10000	4	1	0	4	0
13	90	7	10000	4	1	0	4	0
13	91	7	10000	4	1	0	4	0
13	92	7	10000	4	1	0	4	0
13	93	7	10000	4	1	0	4	0
13	94	7	10000	4	1	0	4	0
13	95	7	10000	4	1	0	4	0
14	96	7	10000	4	1	0	4	0
14	97	7	10000	4	1	0	4	0
13	98	7	10000	4	1	0	4	0
12	99	7	10000	4	1	0	4	0
13	100	7	10000	4	1	0	4	0
12	101	7	10000	4	1	0	4	0
12	102	7	10000	4	1	0	4	0
12	103	7	10000	4	1	0	4	0
12	104	7	10000	4	1	0	4	0
12	105	7	10000	4	1	0	4	0
11	106	7	10000	4	1	0	4	0
10	107	7	10000	4	1	0	4	0
11	108	7	10000	4	1	0	4	0
12	109	7	10000	4	1	0	4	0
11	110	7	10000	4	1	0	4	0
11	111	7	10000	4	1	0	4	0
11	112	7	10000	4	1	0	4	0
10	113	7	10000	4	1	0	4	0
10	114	7	10000	4	1	0	4	0
10	115	7	10000	4	1	0	4	0
11	116	7	10000	4	1	0	4	0
11	117	7	10000	4	1	0	4	0
11	118	7	10000	4	1	0	4	0
10	119	7	10000	4	1	0	4	0
11	120	7	10000	4	1	0	4	0
12	121	7	10000	4	1	0	4	0
13	122	7	10000	4	1	0	4	0
14	123	7	10000	4	1	0	4	0
16	124	7	10000	4	1	0	4	0
17	125	7	10000	4	1	0	4	0
17	126	7	10000	4	1	0	4	0
16	127	7	10000	4	1	0	4	0
17	128	7	10000	4	1	0	4	0
19	129	7	10000	4	1	0	4	0
19	130	7	10000	4	1	0	4	0
19	131	7	10000	4	1	0	4	0
19	132	7	10000	4	1	0	4	0
18	133	7	10000	4	1	0	4	0
18	134	7	10000	4	1	0	4	0
17	135	7	10000	4	1	0	4	0
18	136	7	10000	4	1	0	4	0
19	137	7	10000	4	1	0	4	0
18	138	7	10000	4	1	0	4	0
16	139	7	10000	4	1	0	4	0
16	140	7	10000	4	1	0	4	0
16	141	7	10000	4	1	0	4	0
16	142	7	10000	4	1	0	4	0
16	143	7	10000	4	1	0	4	0
16	144	7	10000	4	1	0	4	0
17	145	7	10000	4	1	0	4	0
17	146	7	10000	4	1	0	4	0
15	147	7	10000	4	1	0	4	0
16	148	7	10000	4	1	0	4	0
17	149	7	10000	4	1	0	4	0
15	150	7	10000	4	1	0	4	0
14	151	7	10000	4	1	0	4	0
14	152	7	10000	4	1	0	4	0
13	153	7	10000	4	1	0	4	0
13	154	7	10000	4	1	0	4	0
12	155	7	10000	4	1	0	4	0
12	156	7	10000	4	1	0	4	0
13	157	7	10000	4	1	0	4	0
12	158	7	10000	4	1	0	4	0
11	159	7	10000	4	1	0	4	0
12	160	7	10000	4	1	0	4	0
12	161	7	10000	4	1	0	4	0
11	162	7	10000	4	1	0	4	0
11	163	7	10000	4	1	0	4	0
11	164	7	10000	4	1	0	4	0
11	165	7	10000	4	1	0	4	0
10	166	7	10000	4	1	0	4	0
9	167	7	10000	4	1	0	4	0
10	168	7	10000	4	1	0	4	0
11	169	7	10000	4	1	0	4	0
12	170	7	10000	4	1	0	4	0
12	171	7	10000	4	1	0	4	0
10	172	7	10000	4	1	0	4	0
10	173	7	10000	4	1	0	4	0
11	174	7	10000	4	1	0	4	0
11	175	7	10000	4	1	0	4	0
11	176	7	10000	4	1	0	4	0
13	177	7	10000	4	1	0	4	0
11	178	7	10000	4	1	0	4	0
10	179	7	10000	4	1	0	4	0
11	180	7	10000	4	1	0	4	0
11	181	7	10000	4	1	0	4	0
10	182	7	10000	4	1	0	4	0
10	183	7	10000	4	1	0	4	0
12	184	7	10000	4	1	0	4	0
11	185	7	10000	4	1	0	4	0
11	186	7	10000	4	1	0	4	0
10	187	7	10000	4	1	0	4	0
10	188	7	10000	4	1	0	4	0
11	189	7	10000	4	1	0	4	0
11	190	7	10000	4	1	0	4	0
11	191	7	10000	4	1	0	4	0
10	192	7	10000	4	1	0	4	0
10	193	7	10000	4	1	0	4	0
10	194	7	10000	4	1	0	4	0
10	195	7	10000	4	1	0	4	0
12	196	7	10000	4	1	0	4	0
13	197	7	10000	4	1	0	4	0
12	198	7	10000	4	1	0	4	0
11	199	7	10000	4	1	0	4	0
11	200	7	10000	4	1	0	4	0
11	201	7	10000	4	1	0	4	0
12	202	7	10000	4	1	0	4	0
10	203	7	10000	4	1	0	4	0
10	204	7	10000	4	1	0	4	0
10	205	7	10000	4	1	0	4	0
9	206	7	10000	4	1	0	4	0
8	207	7	10000	4	1	0	4	0
10	208	7	10000	4	1	0	4	0
12	209	7	10000	4	1	0	4	0
12	210	7	10000	4	1	0	4	0
12	211	7	10000	4	1	0	4	0
11	212	7	10000	4	1	0	4	0
11	213	7	10000	4	1	0	4	0
11	214	7	10000	4	1	0	4	0
12	215	7	10000	4	1	0	4	0
12	216	7	10000	4	1	0	4	0
13	217	7	10000	4	1	0	4	0
12	218	7	10000	4	1	0	4	0
10	219	7	10000	4	1	0	4	0
11	220	7	10000	4	1	0	4	0
11	221	7	10000	4	1	0	4	0
12	222	7	10000	4	1	0	4	0
14	223	7	10000	4	1	0	4	0
14	224	7	10000	4	1	0	4	0
14	225	7	10000	4	1	0	4	0
14	226	7	10000	4	1	0	4	0
13	227	7	10000	4	1	0	4	0
13	228	7	10000	4	1	0	4	0
13	229	7	10000	4	1	0	4	0
14	230	7	10000	4	1	0	4	0
13	231	7	10000	4	1	0	4	0
13	232	7	10000	4	1	0	4	0
13	233	7	10000	4	1	0	4	0
12	234	7	10000	4	1	0	4	0
12	235	7	10000	4	1	0	4	0
13	236	7	10000	4	1	0	4	0
14	237	7	10000	4	1	0	4	0
15	238	7	10000	4	1	0	4	0
13	239	7	10000	4	1	0	4	0
15	240	7	10000	4	1	0	4	0
15	241	7	10000	4	1	0	4	0
15	242	7	10000	4	1	0	4	0
15	243	7	10000	4	1	0	4	0
15	244	7	10000	4	1	0	4	0
14	245	7	10000	4	1	0	4	0
14	246	7	10000	4	1	0	4	0
14	247	7	10000	4	1	0	4	0
14	248	7	10000	4	1	0	4	0
15	249	7	10000	4	1	0	4	0
14	250	7	10000	4	1	0	4	0
14	251	7	10000	4	1	0	4	0
14	252	7	10000	4	1	0	4	0
14	253	7	10000	4	1	0	4	0
13	254	7	10000	4	1	0	4	0
14	255	7	10000	4	1	0	4	0
14	256	7	10000	4	1	0	4	0
14	257	7	10000	4	1	0	4	0
14	258	7	10000	4	1	0	4	0
13	259	7	10000	4	1	0	4	0
15	260	7	10000	4	1	0	4	0
17	261	7	10000	4	1	0	4	0
18	262	7	10000	4	1	0	4	0
17	263	7	10000	4	1	0	4	0
17	264	7	10000	4	1	0	4	0
18	265	7	10000	4	1	0	4	0
18	266	7	10000	4	1	0	4	0
18	267	7	10000	4	1	0	4	0
18	268	7	10000	4	1	0	4	0
20	269	7	10000	4	1	0	4	0
20	270	7	10000	4	1	0	4	0
20	271	7	10000	4	1	0	4	0
18	272	7	10000	4	1	0	4	0
18	273	7	10000	4	1	0	4	0
18	274	7	10000	4	1	0	4	0
17	275	7	10000	4	1	0	4	0
18	276	7	10000	4	1	0	4	0
19	277	7	10000	4	1	0	4	0
18	278	7	10000	4	1	0	4	0
16	279	7	10000	4	1	0	4	0
16	280	7	10000	4	1	0	4	0
15	281	7	10000	4	1	0	4	0
15	282	7	10000	4	1	0	4	0
15	283	7	10000	4	1	0	4	0
15	284	7	10000	4	1	0	4	0
13	285	7	10000	4	1	0	4	0
14	286	7	10000	4	1	0	4	0
13	287	7	10000	4	1	0	4	0
14	288	7	10000	4	1	0	4	0
15	289	7	10000	4	1	0	4	0
14	290	7	10000	4	1	0	4	0
14	291	7	10000	4	1	0	4	0
13	292	7	10000	4	1	0	4	0
14	293	7	10000	4	1	0	4	0
14	294	7	10000	4	1	0	4	0
14	295	7	10000	4	1	0	4	0
16	296	7	10000	4	1	0	4	0
17	297	7	10000	4	1	0	4	0
17	298	7	10000	4	1	0	4	0
16	299	7	10000	4	1	0	4	0
15	300	7	10000	4	1	0	4	0
15	301	7	10000	4	1	0	4	0
15	302	7	10000	4	1	0	4	0
14	303	7	10000	4	1	0	4	0
14	304	7	10000	4	1	0	4	0
13	305	7	10000	4	1	0	4	0
13	306	7	10000	4	1	0	4	0
11	307	7	10000	4	1	0	4	0
13	308	7	10000	4	1	0	4	0
15	309	7	10000	4	1	0	4	0
15	310	7	10000	4	1	0	4	0
15	311	7	10000	4	1	0	4	0
14	312	7	10000	4	1	0	4	0
13	313	7	10000	4	1	0	4	0
13	314	7	10000	4	1	0	4	0
12	315	7	10000	4	1	0	4	0
13	316	7	10000	4	1	0	4	0
14	317	7	10000	4	1	0	4	0
14	318	7	10000	4	1	0	4	0
13	319	7	10000	4	1	0	4	0
13	320	7	10000	4	1	0	4	0
13	321	7	10000	4	1	0	4	0
13	322	7	10000	4	1	0	4	0
13	323	7	10000	4	1	0	4	0
12	324	7	10000	4	1	0	4	0
12	325	7	10000	4	1	0	4	0
12	326	7	10000	4	1	0	4	0
12	327	7	10000	4	1	0	4	0
15	328	7	10000	4	1	0	4	0
16	329	7	10000	4	1	0	4	0
16	330	7	10000	4	1	0	4	0
16	331	7	10000	4	1	0	4	0
15	332	7	10000	4	1	0	4	0
15	333	7	10000	4	1	0	4	0
15	334	7	10000	4	1	0	4	0
14	335	7	10000	4	1	0	4	0
15	336	7	10000	4	1	0	4	0
15	337	7	10000	4	1	0	4	0
14	338	7	10000	4	1	0	4	0
14	339	7	10000	4	1	0	4	0
13	340	7	10000	4	1	0	4	0
13	341	7	10000	4	1	0	4	0
13	342	7	10000	4	1	0	4	0
13	343	7	10000	4	1	0	4	0
14	344	7	10000	4	1	0	4	0
13	345	7	10000	4	1	0	4	0
13	346	7	10000	4	1	0	4	0
12	347	7	10000	4	1	0	4	0
13	348	7	10000	4	1	0	4	0
14	349	7	10000	4	1	0	4	0
14	350	7	10000	4	1	0	4	0
13	351	7	10000	4	1	0	4	0
13	352	7	10000	4	1	0	4	0
13	353	7	10000	4	1	0	4	0
13	354	7	10000	4	1	0	4	0
15	355	7	10000	4	1	0	4	0
16	356	7	10000	4	1	0	4	0
15	357	7	10000	4	1	0	4	0
15	358	7	10000	4	1	0	4	0
14	359	7	10000	4	1	0	4	0
15	360	7	10000	4	1	0	4	0
16	361	7	10000	4	1	0	4	0
14	362	7	10000	4	1	0	4	0
14	363	7	10000	4	1	0	4	0
15	364	7	10000	4	1	0	4	0
14	365	7	10000	4	1	0	4	0
14	366	7	10000	4	1	0	4	0
14	367	7	10000	4	1	0	4	0
14	368	7	10000	4	1	0	4	0
14	369	7	10000	4	1	0	4	0
14	370	7	10000	4	1	0	4	0
13	371	7	10000	4	1	0	4	0
12	372	7	10000	4	1	0	4	0
12	373	7	10000	4	1	0	4	0
11	374	7	10000	4	1	0	4	0
12	375	7	10000	4	1	0	4	0
12	376	7	10000	4	1	0	4	0
14	377	7	10000	4	1	0	4	0
13	378	7	10000	4	1	0	4	0
12	379	7	10000	4	1	0	4	0
13	380	7	10000	4	1	0	4	0
12	381	7	10000	4	1	0	4	0
13	382	7	10000	4	1	0	4	0
13	383	7	10000	4	1	0	4	0
12	384	7	10000	4	1	0	4	0
12	385	7	10000	4	1	0	4	0
12	386	7	10000	4	1	0	4	0
11	387	7	10000	4	1	0	4	0
12	388	7	10000	4	1	0	4	0
13	389	7	10000	4	1	0	4	0
11	390	7	10000	4	1	0	4	0
10	391	7	10000	4	1	0	4	0
11	392	7	10000	4	1	0	4	0
10	393	7	10000	4	1	0	4	0
10	394	7	10000	4	1	0	4	0
12	395	7	10000	4	1	0	4	0
12	396	7	10000	4	1	0	4	0
12	397	7	10000	4	1	0	4	0
11	398	7	10000	4	1	0	4	0
9	399	7	10000	4	1	0	4	0
10	400	7	10000	4	1	0	4	0
10	401	7	10000	4	1	0	4	0
11	402	7	10000	4	1	0	4	0
11	403	7	10000	4	1	0	4	0
11	404	7	10000	4	1	0	4	0
11	405	7	10000	4	1	0	4	0
11	406	7	10000	4	1	0	4	0
10	407	7	10000	4	1	0	4	0
10	408	7	10000	4	1	0	4	0
11	409	7	10000	4	1	0	4	0
10	410	7	10000	4	1	0	4	0
10	411	7	10000	4	1	0	4	0
11	412	7	10000	4	1	0	4	0
12	413	7	10000	4	1	0	4	0
13	414	7	10000	4	1	0	4	0
13	415	7	10000	4	1	0	4	0
14	416	7	10000	4	1	0	4	0
15	417	7	10000	4	1	0	4	0
14	418	7	10000	4	1	0	4	0
12	419	7	10000	4	1	0	4	0
14	420	7	10000	4	1	0	4	0
13	421	7	10000	4	1	0	4	0
13	422	7	10000	4	1	0	4	0
13	423	7	10000	4	1	0	4	0
12	424	7	10000	4	1	0	4	0
12	425	7	10000	4	1	0	4	0
13	426	7	10000	4	1	0	4	0
13	427	7	10000	4	1	0	4	0
13	428	7	10000	4	1	0	4	0
14	429	7	10000	4	1	0	4	0
14	430	7	10000	4	1	0	4	0
13	431	7	10000	4	1	0	4	0
13	432	7	10000	4	1	0	4	0
13	433	7	10000	4	1	0	4	0
12	434	7	10000	4	1	0	4	0
12	435	7	10000	4	1	0	4	0
13	436	7	10000	4	1	0	4	0
13	437	7	10000	4	1	0	4	0
13	438	7	10000	4	1	0	4	0
12	449	7	10000	4	1	0	4	0
13	450	7	10000	4	1	0	4	0
13	451	7	10000	4	1	0	4	0
13	452	7	10000	4	1	0	4	0
12	453	7	10000	4	1	0	4	0
13	454	7	10000	4	1	0	4	0
13	455	7	10000	4	1	0	4	0
12	456	7	10000	4	1	0	4	0
11	457	7	10000	4	1	0	4	0
13	458	7	10000	4	1	0	4	0
13	459	7	10000	4	1	0	4	0
13	460	7	10000	4	1	0	4	0
12	458	7	10000	4	1	0	4	0
11	459	7	10000	4	1	0	4	0
11	460	7	10000	4	1	0	4	0
11	461	7	10000	4	1	0	4	0
12	462	7	10000	4	1	0	4	0
13	463	7	10000	4	1	0	4	0
12	464	7	10000	4	1	0	4	0
11	465	7	10000	4	1	0	4	0
10	467	7	10000	4	1	0	4	0
11	468	7	10000	4	1	0	4	0
12	469	7	10000	4	1	0	4	0
13	470	7	10000	4	1	0	4	0
13	471	7	10000	4	1	0	4	0
13	472	7	10000	4	1	0	4	0
12	473	7	10000	4	1	0	4	0
12	474	7	10000	4	1	0	4	0
12	475	7	10000	4	1	0	4	0
12	476	7	10000	4	1	0	4	0
14	474	7	10000	4	1	0	4	0
14	475	7	10000	4	1	0	4	0
14	476	7	10000	4	1	0	4	0
14	477	7	10000	4	1	0	4	0
15	478	7	10000	4	1	0	4	0
14	479	7	10000	4	1	0	4	0
14	480	7	10000	4	1	0	4	0
14	481	7	10000	4	1	0	4	0
14	480	7	10000	4	1	0	4	0
14	481	7	10000	4	1	0	4	0
13	482	7	10000	4	1	0	4	0
13	483	7	10000	4	1	0	4	0
13	485	7	10000	4	1	0	4	0
14	486	7	10000	4	1	0	4	0
15	487	7	10000	4	1	0	4	0
14	488	7	10000	4	1	0	4	0
13	489	7	10000	4	1	0	4	0
13	490	7	10000	4	1	0	4	0
12	490	7	10000	4	1	0	4	0
12	491	7	10000	4	1	0	4	0
14	492	7	10000	4	1	0	4	0
12	493	7	10000	4	1	0	4	0
12	496	7	10000	4	1	0	4	0
13	497	7	10000	4	1	0	4	0
14	498	7	10000	4	1	0	4	0
14	499	7	10000	4	1	0	4	0
15	500	7	10000	4	1	0	4	0
15	501	7	10000	4	1	0	4	0
15	501	7	10000	4	1	0	4	0
15	502	7	10000	4	1	0	4	0
13	503	7	10000	4	1	0	4	0
15	504	7	10000	4	1	0	4	0
17	505	7	10000	4	1	0	4	0
15	506	7	10000	4	1	0	4	0
14	508	7	10000	4	1	0	4	1
15	509	7	10000	4	1	0	4	1
14	510	7	10000	4	1	0	4	1
14	511	7	10000	4	1	0	4	1
13	512	7	10000	4	1	0	4	1
13	513	7	10000	4	1	0	4	1
15	513	7	10000	4	1	0	4	1
14	514	7	10000	4	1	0	4	1
14	515	7	10000	4	1	0	4	1
14	516	7	10000	4	1	0	4	1
14	517	7	10000	4	1	0	4	1
14	518	7	10000	4	1	0	4	1
14	519	7	10000	4	1	0	4	1
14	520	7	10000	4	1	0	4	1
15	521	7	10000	4	1	0	4	1
14	522	7	10000	4	1	0	4	1
12	523	7	10000	4	1	0	4	1
12	524	7	10000	4	1	0	4	1
12	524	7	10000	4	1	0	4	1
12	525	7	10000	4	1	0	4	1
13	526	7	10000	4	1	0	4	1
12	527	7	10000	4	1	0	4	1
11	529	7	10000	4	1	0	4	1
12	530	7	10000	4	1	0	4	1
10	531	7	10000	4	1	0	4	1
11	532	7	10000	4	1	0	4	1
12	533	7	10000	4	1	0	4	1
12	534	7	10000	4	1	0	4	1
12	535	7	10000	4	1	0	4	1
13	536	7	10000	4	1	0	4	1
13	537	7	10000	4	1	0	4	1
13	538	7	10000	4	1	0	4	1
13	539	7	10000	4	1	0	4	1
14	540	7	10000	4	1	0	4	1
15	540	7	10000	4	1	0	4	1
15	541	7	10000	4	1	0	4	1
15	542	7	10000	4	1	0	4	1
15	543	7	10000	4	1	0	4	1
16	546	7	10000	4	1	0	4	1
16	547	7	10000	4	1	0	4	1
16	548	7	10000	4	1	0	4	1
17	549	7	10000	4	1	0	4	1
18	550	7	10000	4	1	0	4	1
18	551	7	10000	4	1	0	4	1
18	551	7	10000	4	1	0	4	1
19	552	7	10000	4	1	0	4	1
20	553	7	10000	4	1	0	4	1
20	554	7	10000	4	1	0	4	1
20	555	7	10000	4	1	0	4	1
20	556	7	10000	4	1	0	4	1
20	558	7	10000	4	1	0	4	0
20	559	7	10000	4	1	0	4	0
20	560	7	10000	4	1	0	4	0
20	561	7	10000	4	1	0	4	0
22	562	7	10000	4	1	0	4	0
21	563	7	10000	4	1	0	4	0
19	562	7	10000	4	1	0	4	0
20	563	7	10000	4	1	0	4	0
19	564	7	10000	4	1	0	4	0
18	565	7	10000	4	1	0	4	0
17	569	7	10000	4	1	0	4	0
17	570	7	10000	4	1	0	4	0
16	571	7	10000	4	1	0	4	0
17	572	7	10000	4	1	0	4	0
18	573	7	10000	4	1	0	4	0
19	574	7	10000	4	1	0	4	0
19	575	7	10000	4	1	0	4	0
18	576	7	10000	4	1	0	4	0
19	573	7	10000	4	1	0	4	0
18	574	7	10000	4	1	0	4	0
19	575	7	10000	4	1	0	4	0
19	576	7	10000	4	1	0	4	0
20	579	7	10000	4	1	0	4	0
20	580	7	10000	4	1	0	4	0
20	581	7	10000	4	1	0	4	0
19	582	7	10000	4	1	0	4	0
19	583	7	10000	4	1	0	4	0
18	584	7	10000	4	1	0	4	0
17	585	7	10000	4	1	0	4	0
18	586	7	10000	4	1	0	4	0
19	587	7	10000	4	1	0	4	0
20	588	7	10000	4	1	0	4	0
19	589	7	10000	4	1	0	4	0
18	590	7	10000	4	1	0	4	0
17	589	7	10000	4	1	0	4	0
18	590	7	10000	4	1	0	4	0
19	591	7	10000	4	1	0	4	0
18	592	7	10000	4	1	0	4	0
18	596	7	10000	4	1	0	4	0
18	597	7	10000	4	1	0	4	0
23	598	7	10000	4	1	0	4	0
33	599	7	10000	4	1	0	4	0
40	600	7	10000	4	1	0	4	0
41	601	7	10000	4	1	0	4	0
44	600	7	10000	4	1	0	4	0
47	601	7	10000	4	1	0	4	0
54	602	7	10000	4	1	0	4	0
54	603	7	10000	4	1	0	4	0
57	601	7	10000	4	1	0	4	0
68	602	7	10000	4	1	0	4	0
68	603	7	10000	4	1	0	4	0
69	604	7	10000	4	1	0	4	0
73	605	7	10000	4	1	0	4	0
70	606	7	10000	4	1	0	4	0
73	607	7	10000	4	1	0	4	0
86	608	7	10000	4	1	0	4	0
92	609	7	10000	4	1	0	4	0
98	610	7	10000	4	1	0	4	0
112	611	7	10000	4	1	0	4	0
122	612	7	10000	4	1	0	4	0
159	613	7	10000	4	1	0	4	0
197	614	7	10000	4	1	0	4	0
223	615	7	10000	4	1	0	4	0
221	616	7	10000	4	1	0	4	0
224	617	7	10000	4	1	0	4	0
218	618	7	10000	4	1	0	4	0
214	619	7	10000	4	1	0	4	0
219	620	7	10000	4	1	0	4	0
220	621	7	10000	4	1	0	4	0
213	622	7	10000	4	1	0	4	0
207	623	7	10000	4	1	0	4	0
205	624	7	10000	4	1	0	4	0
211	625	7	10000	4	1	0	4	0
249	626	7	10000	4	1	0	4	0
282	627	7	10000	4	1	0	4	0
280	628	7	10000	4	1	0	4	0
282	629	7	10000	4	1	0	4	0
290	630	7	10000	4	1	0	4	0
293	631	7	10000	4	1	0	4	0
292	632	7	10000	4	1	0	4	0
287	633	7	10000	4	1	0	4	0
277	634	7	10000	4	1	0	4	0
267	635	7	10000	4	1	0	4	0
255	636	7	10000	4	1	0	4	0
247	637	7	10000	4	1	0	4	0
238	638	7	10000	4	1	0	4	0
227	639	7	10000	4	1	0	4	0
217	640	7	10000	4	1	0	4	0
207	641	7	10000	4	1	0	4	0
199	642	7	10000	4	1	0	4	0
191	643	7	10000	4	1	0	4	0
185	644	7	10000	4	1	0	4	0
179	645	7	10000	4	1	0	4	0
172	646	7	10000	4	1	0	4	0
166	647	7	10000	4	1	0	4	0
161	648	7	10000	4	1	0	4	0
156	649	7	10000	4	1	0	4	0
151	650	7	10000	4	1	0	4	0
144	651	7	10000	4	1	0	4	0
137	652	7	10000	4	1	0	4	0
131	653	7	10000	4	1	0	4	0
125	654	7	10000	4	1	0	4	0
119	655	7	10000	4	1	0	4	0
115	656	7	10000	4	1	0	4	0
113	657	7	10000	4	1	0	4	0
109	658	7	10000	4	1	0	4	0
105	659	7	10000	4	1	0	4	0
104	660	7	10000	4	1	0	4	0
102	661	7	10000	4	1	0	4	0
103	662	7	10000	4	1	0	4	0
103	663	7	10000	4	1	0	4	0
103	664	7	10000	4	1	0	4	0
104	665	7	10000	4	1	0	4	0
104	666	7	10000	4	1	0	4	0
103	667	7	10000	4	1	0	4	0
103	668	7	10000	4	1	0	4	0
103	669	7	10000	4	1	0	4	0
102	670	7	10000	4	1	0	4	0
99	671	7	10000	4	1	0	4	0
96	672	7	10000	4	1	0	4	0
94	673	7	10000	4	1	0	4	0
92	674	7	10000	4	1	0	4	0
88	675	7	10000	4	1	0	4	0
84	676	7	10000	4	1	0	4	0
81	677	7	10000	4	1	0	4	0
78	678	7	10000	4	1	0	4	0
76	679	7	10000	4	1	0	4	0
76	680	7	10000	4	1	0	4	0
75	681	7	10000	4	1	0	4	0
75	682	7	10000	4	1	0	4	0
75	683	7	10000	4	1	0	4	0
75	684	7	10000	4	1	0	4	0
75	685	7	10000	4	1	0	4	0
73	686	7	10000	4	1	0	4	0
72	687	7	10000	4	1	0	4	0
71	688	7	10000	4	1	0	4	0
68	689	7	10000	4	1	0	4	0
65	690	7	10000	4	1	0	4	0
63	691	7	10000	4	1	0	4	0
59	692	7	10000	4	1	0	4	0
57	693	7	10000	4	1	0	4	0
56	694	7	10000	4	1	0	4	0
53	695	7	10000	4	1	0	4	0
51	696	7	10000	4	1	0	4	0
49	697	7	10000	4	1	0	4	0
47	698	7	10000	4	1	0	4	0
44	699	7	10000	4	1	0	4	0
44	700	7	10000	4	1	0	4	0
43	701	7	10000	4	1	0	4	0
41	702	7	10000	4	1	0	4	0
39	703	7	10000	4	1	0	4	0
39	704	7	10000	4	1	0	4	0
37	705	7	10000	4	1	0	4	0
35	706	7	10000	4	1	0	4	0
33	707	7	10000	4	1	0	4	0
32	708	7	10000	4	1	0	4	0
32	709	7	10000	4	1	0	4	0
32	710	7	10000	4	1	0	4	0
33	711	7	10000	4	1	0	4	0
33	712	7	10000	4	1	0	4	0
33	713	7	10000	4	1	0	4	0
32	714	7	10000	4	1	0	4	0
34	715	7	10000	4	1	0	4	0
35	716	7	10000	4	1	0	4	0
35	717	7	10000	4	1	0	4	0
37	718	7	10000	4	1	0	4	0
36	719	7	10000	4	1	0	4	0
34	720	7	10000	4	1	0	4	0
33	721	7	10000	4	1	0	4	0
32	722	7	10000	4	1	0	4	0
31	723	7	10000	4	1	0	4	0
30	724	7	10000	4	1	0	4	0
28	725	7	10000	4	1	0	4	0
28	726	7	10000	4	1	0	4	0
27	727	7	10000	4	1	0	4	0
27	728	7	10000	4	1	0	4	0
27	729	7	10000	4	1	0	4	0
28	730	7	10000	4	1	0	4	0
29	731	7	10000	4	1	0	4	0
30	732	7	10000	4	1	0	4	0
32	733	7	10000	4	1	0	4	0
34	734	7	10000	4	1	0	4	0
36	735	7	10000	4	1	0	4	0
37	736	7	10000	4	1	0	4	0
38	737	7	10000	4	1	0	4	0
38	738	7	10000	4	1	0	4	0
35	739	7	10000	4	1	0	4	0
34	740	7	10000	4	1	0	4	0
35	741	7	10000	4	1	0	4	0
34	742	7	10000	4	1	0	4	0
32	743	7	10000	4	1	0	4	0
32	744	7	10000	4	1	0	4	0
31	745	7	10000	4	1	0	4	0
29	746	7	10000	4	1	0	4	0
28	747	7	10000	4	1	0	4	0
28	748	7	10000	4	1	0	4	0
28	749	7	10000	4	1	0	4	0
27	750	7	10000	4	1	0	4	0
27	751	7	10000	4	1	0	4	0
27	752	7	10000	4	1	0	4	0
29	753	7	10000	4	1	0	4	0
31	754	7	10000	4	1	0	4	0
33	755	7	10000	4	1	0	4	0
34	756	7	10000	4	1	0	4	0
35	757	7	10000	4	1	0	4	0
33	758	7	10000	4	1	0	4	0
31	759	7	10000	4	1	0	4	0
31	760	7	10000	4	1	0	4	0
30	761	7	10000	4	1	0	4	0
30	762	7	10000	4	1	0	4	0
28	763	7	10000	4	1	0	4	0
28	764	7	10000	4	1	0	4	0
28	765	7	10000	4	1	0	4	0
27	766	7	10000	4	1	0	4	0
25	767	7	10000	4	1	0	4	0
25	768	7	10000	4	1	0	4	0
26	769	7	10000	4	1	0	4	0
25	770	7	10000	4	1	0	4	0
26	771	7	10000	4	1	0	4	0
27	772	7	10000	4	1	0	4	0
25	773	7	10000	4	1	0	4	0
25	774	7	10000	4	1	0	4	0
25	775	7	10000	4	1	0	4	0
24	776	7	10000	4	1	0	4	0
24	777	7	10000	4	1	0	4	0
22	778	7	10000	4	1	0	4	0
20	779	7	10000	4	1	0	4	0
21	780	7	10000	4	1	0	4	0
20	781	7	10000	4	1	0	4	0
20	782	7	10000	4	1	0	4	0
19	783	7	10000	4	1	0	4	0
18	784	7	10000	4	1	0	4	0
18	785	7	10000	4	1	0	4	0
18	786	7	10000	4	1	0	4	0
18	787	7	10000	4	1	0	4	0
19	788	7	10000	4	1	0	4	0
20	789	7	10000	4	1	0	4	0
19	790	7	10000	4	1	0	4	0
19	791	7	10000	4	1	0	4	0
19	792	7	10000	4	1	0	4	0
20	793	7	10000	4	1	0	4	0
22	794	7	10000	4	1	0	4	0
24	795	7	10000	4	1	0	4	0
24	796	7	10000	4	1	0	4	0
26	797	7	10000	4	1	0	4	0
24	798	7	10000	4	1	0	4	0
22	799	7	10000	4	1	0	4	0
23	800	7	10000	4	1	0	4	0
24	801	7	10000	4	1	0	4	0
24	802	7	10000	4	1	0	4	0
24	803	7	10000	4	1	0	4	0
24	804	7	10000	4	1	0	4	0
23	805	7	10000	4	1	0	4	0
23	806	7	10000	4	1	0	4	0
23	807	7	10000	4	1	0	4	0
23	808	7	10000	4	1	0	4	0
24	809	7	10000	4	1	0	4	0
23	810	7	10000	4	1	0	4	0
21	811	7	10000	4	1	0	4	0
21	812	7	10000	4	1	0	4	0
21	813	7	10000	4	1	0	4	0
21	814	7	10000	4	1	0	4	0
21	815	7	10000	4	1	0	4	0
22	816	7	10000	4	1	0	4	0
23	817	7	10000	4	1	0	4	0
22	818	7	10000	4	1	0	4	0
21	819	7	10000	4	1	0	4	0
20	820	7	10000	4	1	0	4	0
20	821	7	10000	4	1	0	4	0
20	822	7	10000	4	1	0	4	0
20	823	7	10000	4	1	0	4	0
20	824	7	10000	4	1	0	4	0
20	825	7	10000	4	1	0	4	0
20	826	7	10000	4	1	0	4	0
21	827	7	10000	4	1	0	4	0
22	828	7	10000	4	1	0	4	0
23	829	7	10000	4	1	0	4	0
23	830	7	10000	4	1	0	4	0
22	831	7	10000	4	1	0	4	0
21	832	7	10000	4	1	0	4	0
21	833	7	10000	4	1	0	4	0
20	834	7	10000	4	1	0	4	0
21	835	7	10000	4	1	0	4	0
22	836	7	10000	4	1	0	4	0
24	837	7	10000	4	1	0	4	0
25	838	7	10000	4	1	0	4	0
23	839	7	10000	4	1	0	4	0
23	840	7	10000	4	1	0	4	0
22	841	7	10000	4	1	0	4	0
21	842	7	10000	4	1	0	4	0
20	843	7	10000	4	1	0	4	0
20	844	7	10000	4	1	0	4	0
20	845	7	10000	4	1	0	4	0
19	846	7	10000	4	1	0	4	0
18	847	7	10000	4	1	0	4	0
18	848	7	10000	4	1	0	4	0
19	849	7	10000	4	1	0	4	0
18	850	7	10000	4	1	0	4	0
18	851	7	10000	4	1	0	4	0
17	852	7	10000	4	1	0	4	0
17	853	7	10000	4	1	0	4	0
16	854	7	10000	4	1	0	4	0
15	855	7	10000	4	1	0	4	0
16	856	7	10000	4	1	0	4	0
15	857	7	10000	4	1	0	4	0
14	858	7	10000	4	1	0	4	0
13	859	7	10000	4	1	0	4	0
12	860	7	10000	4	1	0	4	0
12	861	7	10000	4	1	0	4	0
12	862	7	10000	4	1	0	4	0
12	863	7	10000	4	1	0	4	0
12	864	7	10000	4	1	0	4	0
12	865	7	10000	4	1	0	4	0
12	866	7	10000	4	1	0	4	0
13	867	7	10000	4	1	0	4	0
15	868	7	10000	4	1	0	4	0
16	869	7	10000	4	1	0	4	0
16	870	7	10000	4	1	0	4	0
15	871	7	10000	4	1	0	4	0
14	872	7	10000	4	1	0	4	0
14	873	7	10000	4	1	0	4	0
14	874	7	10000	4	1	0	4	0
15	875	7	10000	4	1	0	4	0
15	876	7	10000	4	1	0	4	0
16	877	7	10000	4	1	0	4	0
15	878	7	10000	4	1	0	4	0
13	879	7	10000	4	1	0	4	0
14	880	7	10000	4	1	0	4	0
15	881	7	10000	4	1	0	4	0
15	882	7	10000	4	1	0	4	0
16	883	7	10000	4	1	0	4	0
16	884	7	10000	4	1	0	4	0
15	885	7	10000	4	1	0	4	0
15	886	7	10000	4	1	0	4	0
14	887	7	10000	4	1	0	4	0
15	888	7	10000	4	1	0	4	0
15	889	7	10000	4	1	0	4	0
14	890	7	10000	4	1	0	4	0
14	891	7	10000	4	1	0	4	0
13	892	7	10000	4	1	0	4	0
12	893	7	10000	4	1	0	4	0
13	894	7	10000	4	1	0	4	0
13	895	7	10000	4	1	0	4	0
14	896	7	10000	4	1	0	4	0
15	897	7	10000	4	1	0	4	0
14	898	7	10000	4	1	0	4	0
11	899	7	10000	4	1	0	4	0
13	900	7	10000	4	1	0	4	0
13	901	7	10000	4	1	0	4	0
12	902	7	10000	4	1	0	4	0
12	903	7	10000	4	1	0	4	0
12	904	7	10000	4	1	0	4	0
13	905	7	10000	4	1	0	4	0
14	906	7	10000	4	1	0	4	0
14	907	7	10000	4	1	0	4	0
15	908	7	10000	4	1	0	4	0
17	909	7	10000	4	1	0	4	0
17	910	7	10000	4	1	0	4	0
17	911	7	10000	4	1	0	4	0
17	912	7	10000	4	1	0	4	0
18	913	7	10000	4	1	0	4	0
16	914	7	10000	4	1	0	4	0
17	915	7	10000	4	1	0	4	0
19	916	7	10000	4	1	0	4	0
20	917	7	10000	4	1	0	4	0
19	918	7	10000	4	1	0	4	0
17	919	7	10000	4	1	0	4	0
17	920	7	10000	4	1	0	4	0
17	921	7	10000	4	1	0	4	0
17	922	7	10000	4	1	0	4	0
17	923	7	10000	4	1	0	4	0
18	924	7	10000	4	1	0	4	0
18	925	7	10000	4	1	0	4	0
17	926	7	10000	4	1	0	4	0
17	927	7	10000	4	1	0	4	0
17	928	7	10000	4	1	0	4	0
18	929	7	10000	4	1	0	4	0
17	930	7	10000	4	1	0	4	0
17	931	7	10000	4	1	0	4	0
16	932	7	10000	4	1	0	4	0
15	933	7	10000	4	1	0	4	0
16	934	7	10000	4	1	0	4	0
14	935	7	10000	4	1	0	4	0
14	936	7	10000	4	1	0	4	0
15	937	7	10000	4	1	0	4	0
15	938	7	10000	4	1	0	4	0
13	939	7	10000	4	1	0	4	0
15	940	7	10000	4	1	0	4	0
16	941	7	10000	4	1	0	4	0
17	942	7	10000	4	1	0	4	0
17	943	7	10000	4	1	0	4	0
18	944	7	10000	4	1	0	4	0
17	945	7	10000	4	1	0	4	0
16	946	7	10000	4	1	0	4	0
15	947	7	10000	4	1	0	4	0
16	948	7	10000	4	1	0	4	0
16	949	7	10000	4	1	0	4	0
16	950	7	10000	4	1	0	4	0
16	951	7	10000	4	1	0	4	0
16	952	7	10000	4	1	0	4	0
16	953	7	10000	4	1	0	4	0
16	954	7	10000	4	1	0	4	0
16	955	7	10000	4	1	0	4	0
16	956	7	10000	4	1	0	4	0
16	957	7	10000	4	1	0	4	0
16	958	7	10000	4	1	0	4	0
14	959	7	10000	4	1	0	4	0
14	960	7	10000	4	1	0	4	0
13	961	7	10000	4	1	0	4	0
14	962	7	10000	4	1	0	4	0
14	963	7	10000	4	1	0	4	0
13	964	7	10000	4	1	0	4	0
14	965	7	10000	4	1	0	4	0
13	966	7	10000	4	1	0	4	0
12	967	7	10000	4	1	0	4	0
14	968	7	10000	4	1	0	4	0
15	969	7	10000	4	1	0	4	0
14	970	7	10000	4	1	0	4	0
14	971	7	10000	4	1	0	4	0
14	972	7	10000	4	1	0	4	0
14	973	7	10000	4	1	0	4	0
14	974	7	10000	4	1	0	4	0
15	975	7	10000	4	1	0	4	0
15	976	7	10000	4	1	0	4	0
16	977	7	10000	4	1	0	4	0
15	978	7	10000	4	1	0	4	0
14	979	7	10000	4	1	0	4	0
14	980	7	10000	4	1	0	4	0
14	981	7	10000	4	1	0	4	0
14	982	7	10000	4	1	0	4	0
15	983	7	10000	4	1	0	4	0
15	984	7	10000	4	1	0	4	0
16	985	7	10000	4	1	0	4	0
15	986	7	10000	4	1	0	4	0
15	987	7	10000	4	1	0	4	0
14	988	7	10000	4	1	0	4	0
15	989	7	10000	4	1	0	4	0
15	990	7	10000	4	1	0	4	0
15	991	7	10000	4	1	0	4	0
16	992	7	10000	4	1	0	4	0
18	993	7	10000	4	1	0	4	0
19	994	7	10000	4	1	0	4	0
21	995	7	10000	4	1	0	4	0
24	996	7	10000	4	1	0	4	0
24	997	7	10000	4	1	0	4	0
23	998	7	10000	4	1	0	4	0
22	999	7	10000	4	1	0	4	0
22	1000	7	10000	4	1	0	4	0
14	2	0	10000	5	1	0	5	0
14	3	0	10000	5	1	0	5	0
14	4	0	10000	5	1	0	5	0
16	5	0	10000	5	1	0	5	0
16	6	0	10000	5	1	0	5	0
14	7	0	10000	5	1	0	5	0
14	8	0	10000	5	1	0	5	0
14	9	0	10000	5	1	0	5	0
14	10	0	10000	5	1	0	5	0
15	11	0	10000	5	1	0	5	0
16	12	0	10000	5	1	0	5	0
17	13	0	10000	5	1	0	5	0
20	14	0	10000	5	1	0	5	0
22	15	0	10000	5	1	0	5	0
25	16	0	10000	5	1	0	5	0
29	17	0	10000	5	1	0	5	0
29	18	0	10000	5	1	0	5	0
28	19	0	10000	5	1	0	5	0
27	20	0	10000	5	1	0	5	0
27	21	0	10000	5	1	0	5	0
28	22	0	10000	5	1	0	5	0
30	23	0	10000	5	1	0	5	0
32	24	0	10000	5	1	0	5	0
32	25	0	10000	5	1	0	5	0
32	26	0	10000	5	1	0	5	0
33	27	0	10000	5	1	0	5	0
37	28	0	10000	5	1	0	5	0
40	29	0	10000	5	1	0	5	0
41	30	0	10000	5	1	0	5	0
40	31	0	10000	5	1	0	5	0
41	32	0	10000	5	1	0	5	0
44	33	0	10000	5	1	0	5	0
45	34	0	10000	5	1	0	5	0
48	35	0	10000	5	1	0	5	0
49	36	0	10000	5	1	0	5	0
49	37	0	10000	5	1	0	5	0
47	38	0	10000	5	1	0	5	0
47	39	0	10000	5	1	0	5	0
46	40	0	10000	5	1	0	5	0
46	41	0	10000	5	1	0	5	0
45	42	0	10000	5	1	0	5	0
43	43	0	10000	5	1	0	5	0
42	44	0	10000	5	1	0	5	0
42	45	0	10000	5	1	0	5	0
40	46	0	10000	5	1	0	5	0
37	47	0	10000	5	1	0	5	0
36	48	0	10000	5	1	0	5	0
36	49	0	10000	5	1	0	5	0
36	50	0	10000	5	1	0	5	0
35	51	0	10000	5	1	0	5	0
35	52	0	10000	5	1	0	5	0
34	53	0	10000	5	1	0	5	0
32	54	0	10000	5	1	0	5	0
32	55	0	10000	5	1	0	5	0
32	56	0	10000	5	1	0	5	0
34	57	0	10000	5	1	0	5	0
32	58	0	10000	5	1	0	5	0
31	59	0	10000	5	1	0	5	0
29	60	0	10000	5	1	0	5	0
29	61	0	10000	5	1	0	5	0
28	62	0	10000	5	1	0	5	0
27	63	0	10000	5	1	0	5	0
27	64	0	10000	5	1	0	5	0
26	65	0	10000	5	1	0	5	0
25	66	0	10000	5	1	0	5	0
24	67	0	10000	5	1	0	5	0
23	68	0	10000	5	1	0	5	0
22	69	0	10000	5	1	0	5	0
23	70	0	10000	5	1	0	5	0
24	71	0	10000	5	1	0	5	0
23	72	0	10000	5	1	0	5	0
23	73	0	10000	5	1	0	5	0
23	74	0	10000	5	1	0	5	0
22	75	0	10000	5	1	0	5	0
24	76	0	10000	5	1	0	5	0
25	77	0	10000	5	1	0	5	0
26	78	0	10000	5	1	0	5	0
27	79	0	10000	5	1	0	5	0
29	80	0	10000	5	1	0	5	0
29	81	0	10000	5	1	0	5	0
29	82	0	10000	5	1	0	5	0
28	83	0	10000	5	1	0	5	0
27	84	0	10000	5	1	0	5	0
27	85	0	10000	5	1	0	5	0
26	86	0	10000	5	1	0	5	0
24	87	0	10000	5	1	0	5	0
23	88	0	10000	5	1	0	5	0
22	89	0	10000	5	1	0	5	0
22	90	0	10000	5	1	0	5	0
21	91	0	10000	5	1	0	5	0
21	92	0	10000	5	1	0	5	0
20	93	0	10000	5	1	0	5	0
19	94	0	10000	5	1	0	5	0
19	95	0	10000	5	1	0	5	0
17	96	0	10000	5	1	0	5	0
19	97	0	10000	5	1	0	5	0
19	98	0	10000	5	1	0	5	0
18	99	0	10000	5	1	0	5	0
17	100	0	10000	5	1	0	5	0
16	101	0	10000	5	1	0	5	0
16	102	0	10000	5	1	0	5	0
16	103	0	10000	5	1	0	5	0
16	104	0	10000	5	1	0	5	0
16	105	0	10000	5	1	0	5	0
16	106	0	10000	5	1	0	5	0
14	107	0	10000	5	1	0	5	0
15	108	0	10000	5	1	0	5	0
14	109	0	10000	5	1	0	5	0
14	110	0	10000	5	1	0	5	0
14	111	0	10000	5	1	0	5	0
15	112	0	10000	5	1	0	5	0
15	113	0	10000	5	1	0	5	0
14	114	0	10000	5	1	0	5	0
13	115	0	10000	5	1	0	5	0
13	116	0	10000	5	1	0	5	0
15	117	0	10000	5	1	0	5	0
13	118	0	10000	5	1	0	5	0
13	119	0	10000	5	1	0	5	0
13	120	0	10000	5	1	0	5	0
12	121	0	10000	5	1	0	5	0
12	122	0	10000	5	1	0	5	0
14	123	0	10000	5	1	0	5	0
14	124	0	10000	5	1	0	5	0
15	125	0	10000	5	1	0	5	0
15	126	0	10000	5	1	0	5	0
12	127	0	10000	5	1	0	5	0
12	128	0	10000	5	1	0	5	0
12	129	0	10000	5	1	0	5	0
13	130	0	10000	5	1	0	5	0
12	131	0	10000	5	1	0	5	0
12	132	0	10000	5	1	0	5	0
11	133	0	10000	5	1	0	5	0
10	134	0	10000	5	1	0	5	0
10	135	0	10000	5	1	0	5	0
11	136	0	10000	5	1	0	5	0
12	137	0	10000	5	1	0	5	0
12	138	0	10000	5	1	0	5	0
12	139	0	10000	5	1	0	5	0
11	140	0	10000	5	1	0	5	0
11	141	0	10000	5	1	0	5	0
11	142	0	10000	5	1	0	5	0
11	143	0	10000	5	1	0	5	0
10	144	0	10000	5	1	0	5	0
11	145	0	10000	5	1	0	5	0
11	146	0	10000	5	1	0	5	0
10	147	0	10000	5	1	0	5	0
11	148	0	10000	5	1	0	5	0
10	149	0	10000	5	1	0	5	0
10	150	0	10000	5	1	0	5	0
11	151	0	10000	5	1	0	5	0
10	152	0	10000	5	1	0	5	0
9	153	0	10000	5	1	0	5	0
9	154	0	10000	5	1	0	5	0
8	155	0	10000	5	1	0	5	0
8	156	0	10000	5	1	0	5	0
10	157	0	10000	5	1	0	5	0
9	158	0	10000	5	1	0	5	0
9	159	0	10000	5	1	0	5	0
9	160	0	10000	5	1	0	5	0
10	161	0	10000	5	1	0	5	0
11	162	0	10000	5	1	0	5	0
12	163	0	10000	5	1	0	5	0
14	164	0	10000	5	1	0	5	0
15	165	0	10000	5	1	0	5	0
14	166	0	10000	5	1	0	5	0
13	167	0	10000	5	1	0	5	0
14	168	0	10000	5	1	0	5	0
13	169	0	10000	5	1	0	5	0
13	170	0	10000	5	1	0	5	0
13	171	0	10000	5	1	0	5	0
13	172	0	10000	5	1	0	5	0
12	173	0	10000	5	1	0	5	0
12	174	0	10000	5	1	0	5	0
11	175	0	10000	5	1	0	5	0
12	176	0	10000	5	1	0	5	0
13	177	0	10000	5	1	0	5	0
13	178	0	10000	5	1	0	5	0
14	179	0	10000	5	1	0	5	0
13	180	0	10000	5	1	0	5	0
12	181	0	10000	5	1	0	5	0
14	182	0	10000	5	1	0	5	0
13	183	0	10000	5	1	0	5	0
12	184	0	10000	5	1	0	5	0
14	185	0	10000	5	1	0	5	0
14	186	0	10000	5	1	0	5	0
13	187	0	10000	5	1	0	5	0
15	188	0	10000	5	1	0	5	0
15	189	0	10000	5	1	0	5	0
16	190	0	10000	5	1	0	5	0
16	191	0	10000	5	1	0	5	0
15	192	0	10000	5	1	0	5	0
14	193	0	10000	5	1	0	5	0
14	194	0	10000	5	1	0	5	0
14	195	0	10000	5	1	0	5	0
14	196	0	10000	5	1	0	5	0
16	197	0	10000	5	1	0	5	0
15	198	0	10000	5	1	0	5	0
14	199	0	10000	5	1	0	5	0
14	200	0	10000	5	1	0	5	0
14	201	0	10000	5	1	0	5	0
14	202	0	10000	5	1	0	5	0
16	203	0	10000	5	1	0	5	0
17	204	0	10000	5	1	0	5	0
17	205	0	10000	5	1	0	5	0
16	206	0	10000	5	1	0	5	0
15	207	0	10000	5	1	0	5	0
15	208	0	10000	5	1	0	5	0
17	209	0	10000	5	1	0	5	0
18	210	0	10000	5	1	0	5	0
16	211	0	10000	5	1	0	5	0
16	212	0	10000	5	1	0	5	0
16	213	0	10000	5	1	0	5	0
15	214	0	10000	5	1	0	5	0
14	215	0	10000	5	1	0	5	0
14	216	0	10000	5	1	0	5	0
15	217	0	10000	5	1	0	5	0
14	218	0	10000	5	1	0	5	0
14	219	0	10000	5	1	0	5	0
14	220	0	10000	5	1	0	5	0
15	221	0	10000	5	1	0	5	0
17	222	0	10000	5	1	0	5	0
18	223	0	10000	5	1	0	5	0
17	224	0	10000	5	1	0	5	0
17	225	0	10000	5	1	0	5	0
17	226	0	10000	5	1	0	5	0
15	227	0	10000	5	1	0	5	0
15	228	0	10000	5	1	0	5	0
16	229	0	10000	5	1	0	5	0
16	230	0	10000	5	1	0	5	0
16	231	0	10000	5	1	0	5	0
16	232	0	10000	5	1	0	5	0
15	233	0	10000	5	1	0	5	0
15	234	0	10000	5	1	0	5	0
14	235	0	10000	5	1	0	5	0
14	236	0	10000	5	1	0	5	0
15	237	0	10000	5	1	0	5	0
15	238	0	10000	5	1	0	5	0
15	239	0	10000	5	1	0	5	0
14	240	0	10000	5	1	0	5	0
14	241	0	10000	5	1	0	5	0
14	242	0	10000	5	1	0	5	0
13	243	0	10000	5	1	0	5	0
14	244	0	10000	5	1	0	5	0
14	245	0	10000	5	1	0	5	0
13	246	0	10000	5	1	0	5	0
11	247	0	10000	5	1	0	5	0
12	248	0	10000	5	1	0	5	0
12	249	0	10000	5	1	0	5	0
12	250	0	10000	5	1	0	5	0
12	251	0	10000	5	1	0	5	0
13	252	0	10000	5	1	0	5	0
13	253	0	10000	5	1	0	5	0
14	254	0	10000	5	1	0	5	0
13	255	0	10000	5	1	0	5	0
14	256	0	10000	5	1	0	5	0
15	257	0	10000	5	1	0	5	0
15	258	0	10000	5	1	0	5	0
16	259	0	10000	5	1	0	5	0
18	260	0	10000	5	1	0	5	0
19	261	0	10000	5	1	0	5	0
19	262	0	10000	5	1	0	5	0
18	263	0	10000	5	1	0	5	0
18	264	0	10000	5	1	0	5	0
20	265	0	10000	5	1	0	5	0
20	266	0	10000	5	1	0	5	0
18	267	0	10000	5	1	0	5	0
19	268	0	10000	5	1	0	5	0
20	269	0	10000	5	1	0	5	0
19	270	0	10000	5	1	0	5	0
19	271	0	10000	5	1	0	5	0
20	272	0	10000	5	1	0	5	0
21	273	0	10000	5	1	0	5	0
21	274	0	10000	5	1	0	5	0
20	275	0	10000	5	1	0	5	0
20	276	0	10000	5	1	0	5	0
21	277	0	10000	5	1	0	5	0
22	278	0	10000	5	1	0	5	0
22	279	0	10000	5	1	0	5	0
22	280	0	10000	5	1	0	5	0
22	281	0	10000	5	1	0	5	0
21	282	0	10000	5	1	0	5	0
21	283	0	10000	5	1	0	5	0
20	284	0	10000	5	1	0	5	0
21	285	0	10000	5	1	0	5	0
20	286	0	10000	5	1	0	5	0
18	287	0	10000	5	1	0	5	0
18	288	0	10000	5	1	0	5	0
17	289	0	10000	5	1	0	5	0
18	290	0	10000	5	1	0	5	0
17	291	0	10000	5	1	0	5	0
16	292	0	10000	5	1	0	5	0
16	293	0	10000	5	1	0	5	0
17	294	0	10000	5	1	0	5	0
16	295	0	10000	5	1	0	5	0
17	296	0	10000	5	1	0	5	0
18	297	0	10000	5	1	0	5	0
18	298	0	10000	5	1	0	5	0
17	299	0	10000	5	1	0	5	0
17	300	0	10000	5	1	0	5	0
16	301	0	10000	5	1	0	5	0
16	302	0	10000	5	1	0	5	0
17	303	0	10000	5	1	0	5	0
17	304	0	10000	5	1	0	5	0
16	305	0	10000	5	1	0	5	0
16	306	0	10000	5	1	0	5	0
15	307	0	10000	5	1	0	5	0
16	308	0	10000	5	1	0	5	0
16	309	0	10000	5	1	0	5	0
16	310	0	10000	5	1	0	5	0
15	311	0	10000	5	1	0	5	0
15	312	0	10000	5	1	0	5	0
15	313	0	10000	5	1	0	5	0
13	314	0	10000	5	1	0	5	0
12	315	0	10000	5	1	0	5	0
13	316	0	10000	5	1	0	5	0
14	317	0	10000	5	1	0	5	0
14	318	0	10000	5	1	0	5	0
13	319	0	10000	5	1	0	5	0
13	320	0	10000	5	1	0	5	0
13	321	0	10000	5	1	0	5	0
12	322	0	10000	5	1	0	5	0
12	323	0	10000	5	1	0	5	0
12	324	0	10000	5	1	0	5	0
13	325	0	10000	5	1	0	5	0
11	326	0	10000	5	1	0	5	0
10	327	0	10000	5	1	0	5	0
11	328	0	10000	5	1	0	5	0
10	329	0	10000	5	1	0	5	0
11	330	0	10000	5	1	0	5	0
11	331	0	10000	5	1	0	5	0
10	332	0	10000	5	1	0	5	0
10	333	0	10000	5	1	0	5	0
9	334	0	10000	5	1	0	5	0
10	335	0	10000	5	1	0	5	0
11	336	0	10000	5	1	0	5	0
12	337	0	10000	5	1	0	5	0
13	338	0	10000	5	1	0	5	0
12	339	0	10000	5	1	0	5	0
12	340	0	10000	5	1	0	5	0
11	341	0	10000	5	1	0	5	0
11	342	0	10000	5	1	0	5	0
10	343	0	10000	5	1	0	5	0
11	344	0	10000	5	1	0	5	0
11	345	0	10000	5	1	0	5	0
11	346	0	10000	5	1	0	5	0
10	347	0	10000	5	1	0	5	0
11	348	0	10000	5	1	0	5	0
12	349	0	10000	5	1	0	5	0
12	350	0	10000	5	1	0	5	0
11	351	0	10000	5	1	0	5	0
11	352	0	10000	5	1	0	5	0
12	353	0	10000	5	1	0	5	0
11	354	0	10000	5	1	0	5	0
11	355	0	10000	5	1	0	5	0
12	356	0	10000	5	1	0	5	0
12	357	0	10000	5	1	0	5	0
12	358	0	10000	5	1	0	5	0
12	359	0	10000	5	1	0	5	0
10	360	0	10000	5	1	0	5	0
10	361	0	10000	5	1	0	5	0
11	362	0	10000	5	1	0	5	0
11	363	0	10000	5	1	0	5	0
12	364	0	10000	5	1	0	5	0
13	365	0	10000	5	1	0	5	0
12	366	0	10000	5	1	0	5	0
11	367	0	10000	5	1	0	5	0
11	368	0	10000	5	1	0	5	0
11	369	0	10000	5	1	0	5	0
12	370	0	10000	5	1	0	5	0
12	371	0	10000	5	1	0	5	0
12	372	0	10000	5	1	0	5	0
11	373	0	10000	5	1	0	5	0
10	374	0	10000	5	1	0	5	0
10	375	0	10000	5	1	0	5	0
10	376	0	10000	5	1	0	5	0
12	377	0	10000	5	1	0	5	0
11	378	0	10000	5	1	0	5	0
11	379	0	10000	5	1	0	5	0
10	380	0	10000	5	1	0	5	0
10	381	0	10000	5	1	0	5	0
9	382	0	10000	5	1	0	5	0
9	383	0	10000	5	1	0	5	0
9	384	0	10000	5	1	0	5	0
9	385	0	10000	5	1	0	5	0
9	386	0	10000	5	1	0	5	0
9	387	0	10000	5	1	0	5	0
8	388	0	10000	5	1	0	5	0
9	389	0	10000	5	1	0	5	0
9	390	0	10000	5	1	0	5	0
9	391	0	10000	5	1	0	5	0
10	392	0	10000	5	1	0	5	0
10	393	0	10000	5	1	0	5	0
10	394	0	10000	5	1	0	5	0
9	395	0	10000	5	1	0	5	0
9	396	0	10000	5	1	0	5	0
11	397	0	10000	5	1	0	5	0
11	398	0	10000	5	1	0	5	0
11	399	0	10000	5	1	0	5	0
11	400	0	10000	5	1	0	5	0
11	401	0	10000	5	1	0	5	0
10	402	0	10000	5	1	0	5	0
10	403	0	10000	5	1	0	5	0
10	404	0	10000	5	1	0	5	0
10	405	0	10000	5	1	0	5	0
10	406	0	10000	5	1	0	5	0
9	407	0	10000	5	1	0	5	0
9	408	0	10000	5	1	0	5	0
10	409	0	10000	5	1	0	5	0
11	410	0	10000	5	1	0	5	0
11	411	0	10000	5	1	0	5	0
11	412	0	10000	5	1	0	5	0
11	413	0	10000	5	1	0	5	0
10	414	0	10000	5	1	0	5	0
11	415	0	10000	5	1	0	5	0
10	416	0	10000	5	1	0	5	0
11	417	0	10000	5	1	0	5	0
11	418	0	10000	5	1	0	5	0
11	419	0	10000	5	1	0	5	0
10	420	0	10000	5	1	0	5	0
10	421	0	10000	5	1	0	5	0
10	422	0	10000	5	1	0	5	0
9	423	0	10000	5	1	0	5	0
10	424	0	10000	5	1	0	5	0
11	425	0	10000	5	1	0	5	0
10	426	0	10000	5	1	0	5	0
8	427	0	10000	5	1	0	5	0
8	428	0	10000	5	1	0	5	0
9	429	0	10000	5	1	0	5	0
9	430	0	10000	5	1	0	5	0
10	431	0	10000	5	1	0	5	0
12	432	0	10000	5	1	0	5	0
13	433	0	10000	5	1	0	5	0
13	434	0	10000	5	1	0	5	0
12	435	0	10000	5	1	0	5	0
12	436	0	10000	5	1	0	5	0
14	437	0	10000	5	1	0	5	0
14	438	0	10000	5	1	0	5	0
14	439	0	10000	5	1	0	5	0
14	440	0	10000	5	1	0	5	0
13	441	0	10000	5	1	0	5	0
13	442	0	10000	5	1	0	5	0
14	443	0	10000	5	1	0	5	0
14	444	0	10000	5	1	0	5	0
15	445	0	10000	5	1	0	5	0
16	446	0	10000	5	1	0	5	0
14	447	0	10000	5	1	0	5	0
15	448	0	10000	5	1	0	5	0
14	449	0	10000	5	1	0	5	0
14	450	0	10000	5	1	0	5	0
13	451	0	10000	5	1	0	5	0
13	452	0	10000	5	1	0	5	0
13	453	0	10000	5	1	0	5	0
12	454	0	10000	5	1	0	5	0
12	455	0	10000	5	1	0	5	0
11	456	0	10000	5	1	0	5	0
13	457	0	10000	5	1	0	5	0
12	458	0	10000	5	1	0	5	0
12	459	0	10000	5	1	0	5	0
12	460	0	10000	5	1	0	5	0
14	461	0	10000	5	1	0	5	0
13	462	0	10000	5	1	0	5	0
13	463	0	10000	5	1	0	5	0
14	464	0	10000	5	1	0	5	0
15	465	0	10000	5	1	0	5	0
15	466	0	10000	5	1	0	5	0
14	467	0	10000	5	1	0	5	0
16	468	0	10000	5	1	0	5	0
15	469	0	10000	5	1	0	5	0
15	470	0	10000	5	1	0	5	0
16	471	0	10000	5	1	0	5	0
15	472	0	10000	5	1	0	5	0
15	473	0	10000	5	1	0	5	0
17	474	0	10000	5	1	0	5	0
16	475	0	10000	5	1	0	5	0
16	476	0	10000	5	1	0	5	0
18	477	0	10000	5	1	0	5	0
17	478	0	10000	5	1	0	5	0
16	479	0	10000	5	1	0	5	0
16	480	0	10000	5	1	0	5	0
15	481	0	10000	5	1	0	5	0
15	482	0	10000	5	1	0	5	0
16	483	0	10000	5	1	0	5	0
16	484	0	10000	5	1	0	5	0
16	485	0	10000	5	1	0	5	0
16	486	0	10000	5	1	0	5	0
16	487	0	10000	5	1	0	5	0
16	488	0	10000	5	1	0	5	0
16	489	0	10000	5	1	0	5	0
16	490	0	10000	5	1	0	5	0
16	491	0	10000	5	1	0	5	0
15	492	0	10000	5	1	0	5	0
15	493	0	10000	5	1	0	5	0
14	494	0	10000	5	1	0	5	0
13	495	0	10000	5	1	0	5	0
13	496	0	10000	5	1	0	5	0
15	497	0	10000	5	1	0	5	0
14	498	0	10000	5	1	0	5	0
14	499	0	10000	5	1	0	5	0
13	500	0	10000	5	1	0	5	0
13	501	0	10000	5	1	0	5	0
13	501	0	10000	5	1	0	5	1
12	502	0	10000	5	1	0	5	1
13	504	0	10000	5	1	0	5	1
13	505	0	10000	5	1	0	5	1
13	506	0	10000	5	1	0	5	1
12	507	0	10000	5	1	0	5	1
12	508	0	10000	5	1	0	5	1
12	509	0	10000	5	1	0	5	1
13	510	0	10000	5	1	0	5	1
12	511	0	10000	5	1	0	5	1
12	512	0	10000	5	1	0	5	1
13	513	0	10000	5	1	0	5	1
13	514	0	10000	5	1	0	5	1
15	515	0	10000	5	1	0	5	1
17	516	0	10000	5	1	0	5	1
19	517	0	10000	5	1	0	5	1
18	518	0	10000	5	1	0	5	1
18	519	0	10000	5	1	0	5	1
18	520	0	10000	5	1	0	5	1
18	521	0	10000	5	1	0	5	1
18	522	0	10000	5	1	0	5	1
18	523	0	10000	5	1	0	5	1
18	524	0	10000	5	1	0	5	1
19	525	0	10000	5	1	0	5	1
18	526	0	10000	5	1	0	5	1
16	527	0	10000	5	1	0	5	1
16	528	0	10000	5	1	0	5	1
17	529	0	10000	5	1	0	5	1
18	530	0	10000	5	1	0	5	1
17	531	0	10000	5	1	0	5	1
17	532	0	10000	5	1	0	5	1
20	533	0	10000	5	1	0	5	1
20	534	0	10000	5	1	0	5	1
20	535	0	10000	5	1	0	5	1
23	536	0	10000	5	1	0	5	1
24	537	0	10000	5	1	0	5	1
23	538	0	10000	5	1	0	5	1
24	539	0	10000	5	1	0	5	1
23	540	0	10000	5	1	0	5	1
22	541	0	10000	5	1	0	5	1
21	542	0	10000	5	1	0	5	1
21	543	0	10000	5	1	0	5	1
21	544	0	10000	5	1	0	5	1
22	545	0	10000	5	1	0	5	1
22	546	0	10000	5	1	0	5	1
20	547	0	10000	5	1	0	5	1
21	548	0	10000	5	1	0	5	1
22	549	0	10000	5	1	0	5	1
22	550	0	10000	5	1	0	5	1
23	551	0	10000	5	1	0	5	1
23	552	0	10000	5	1	0	5	0
22	553	0	10000	5	1	0	5	0
21	554	0	10000	5	1	0	5	0
20	555	0	10000	5	1	0	5	0
20	556	0	10000	5	1	0	5	0
22	557	0	10000	5	1	0	5	0
21	558	0	10000	5	1	0	5	0
21	559	0	10000	5	1	0	5	0
21	560	0	10000	5	1	0	5	0
22	561	0	10000	5	1	0	5	0
21	562	0	10000	5	1	0	5	0
21	563	0	10000	5	1	0	5	0
24	564	0	10000	5	1	0	5	0
26	565	0	10000	5	1	0	5	0
25	566	0	10000	5	1	0	5	0
23	567	0	10000	5	1	0	5	0
22	568	0	10000	5	1	0	5	0
22	569	0	10000	5	1	0	5	0
22	570	0	10000	5	1	0	5	0
22	571	0	10000	5	1	0	5	0
21	572	0	10000	5	1	0	5	0
21	573	0	10000	5	1	0	5	0
20	574	0	10000	5	1	0	5	0
19	575	0	10000	5	1	0	5	0
19	576	0	10000	5	1	0	5	0
21	577	0	10000	5	1	0	5	0
21	578	0	10000	5	1	0	5	0
21	579	0	10000	5	1	0	5	0
21	580	0	10000	5	1	0	5	0
20	581	0	10000	5	1	0	5	0
20	582	0	10000	5	1	0	5	0
19	583	0	10000	5	1	0	5	0
20	584	0	10000	5	1	0	5	0
20	585	0	10000	5	1	0	5	0
20	586	0	10000	5	1	0	5	0
20	587	0	10000	5	1	0	5	0
27	588	0	10000	5	1	0	5	0
39	589	0	10000	5	1	0	5	0
50	590	0	10000	5	1	0	5	0
53	591	0	10000	5	1	0	5	0
62	592	0	10000	5	1	0	5	0
87	593	0	10000	5	1	0	5	0
104	594	0	10000	5	1	0	5	0
110	595	0	10000	5	1	0	5	0
134	596	0	10000	5	1	0	5	0
197	597	0	10000	5	1	0	5	0
208	598	0	10000	5	1	0	5	0
246	599	0	10000	5	1	0	5	0
278	600	0	10000	5	1	0	5	0
278	601	0	10000	5	1	0	5	0
302	602	0	10000	5	1	0	5	0
305	603	0	10000	5	1	0	5	0
308	604	0	10000	5	1	0	5	0
319	605	0	10000	5	1	0	5	0
331	606	0	10000	5	1	0	5	0
320	607	0	10000	5	1	0	5	0
331	608	0	10000	5	1	0	5	0
369	609	0	10000	5	1	0	5	0
395	610	0	10000	5	1	0	5	0
391	611	0	10000	5	1	0	5	0
378	612	0	10000	5	1	0	5	0
376	613	0	10000	5	1	0	5	0
370	614	0	10000	5	1	0	5	0
361	615	0	10000	5	1	0	5	0
357	616	0	10000	5	1	0	5	0
351	617	0	10000	5	1	0	5	0
337	618	0	10000	5	1	0	5	0
322	619	0	10000	5	1	0	5	0
309	620	0	10000	5	1	0	5	0
298	621	0	10000	5	1	0	5	0
288	622	0	10000	5	1	0	5	0
283	623	0	10000	5	1	0	5	0
282	624	0	10000	5	1	0	5	0
282	625	0	10000	5	1	0	5	0
281	626	0	10000	5	1	0	5	0
276	627	0	10000	5	1	0	5	0
272	628	0	10000	5	1	0	5	0
267	629	0	10000	5	1	0	5	0
264	630	0	10000	5	1	0	5	0
261	631	0	10000	5	1	0	5	0
259	632	0	10000	5	1	0	5	0
257	633	0	10000	5	1	0	5	0
254	634	0	10000	5	1	0	5	0
250	635	0	10000	5	1	0	5	0
247	636	0	10000	5	1	0	5	0
241	637	0	10000	5	1	0	5	0
235	638	0	10000	5	1	0	5	0
228	639	0	10000	5	1	0	5	0
219	640	0	10000	5	1	0	5	0
210	641	0	10000	5	1	0	5	0
202	642	0	10000	5	1	0	5	0
194	643	0	10000	5	1	0	5	0
188	644	0	10000	5	1	0	5	0
182	645	0	10000	5	1	0	5	0
174	646	0	10000	5	1	0	5	0
167	647	0	10000	5	1	0	5	0
163	648	0	10000	5	1	0	5	0
157	649	0	10000	5	1	0	5	0
152	650	0	10000	5	1	0	5	0
149	651	0	10000	5	1	0	5	0
144	652	0	10000	5	1	0	5	0
141	653	0	10000	5	1	0	5	0
138	654	0	10000	5	1	0	5	0
134	655	0	10000	5	1	0	5	0
131	656	0	10000	5	1	0	5	0
132	657	0	10000	5	1	0	5	0
130	658	0	10000	5	1	0	5	0
129	659	0	10000	5	1	0	5	0
126	660	0	10000	5	1	0	5	0
126	661	0	10000	5	1	0	5	0
125	662	0	10000	5	1	0	5	0
123	663	0	10000	5	1	0	5	0
123	664	0	10000	5	1	0	5	0
123	665	0	10000	5	1	0	5	0
120	666	0	10000	5	1	0	5	0
116	667	0	10000	5	1	0	5	0
114	668	0	10000	5	1	0	5	0
113	669	0	10000	5	1	0	5	0
110	670	0	10000	5	1	0	5	0
108	671	0	10000	5	1	0	5	0
105	672	0	10000	5	1	0	5	0
103	673	0	10000	5	1	0	5	0
98	674	0	10000	5	1	0	5	0
94	675	0	10000	5	1	0	5	0
91	676	0	10000	5	1	0	5	0
89	677	0	10000	5	1	0	5	0
84	678	0	10000	5	1	0	5	0
81	679	0	10000	5	1	0	5	0
77	680	0	10000	5	1	0	5	0
76	681	0	10000	5	1	0	5	0
74	682	0	10000	5	1	0	5	0
73	683	0	10000	5	1	0	5	0
71	684	0	10000	5	1	0	5	0
68	685	0	10000	5	1	0	5	0
66	686	0	10000	5	1	0	5	0
61	687	0	10000	5	1	0	5	0
59	688	0	10000	5	1	0	5	0
57	689	0	10000	5	1	0	5	0
55	690	0	10000	5	1	0	5	0
53	691	0	10000	5	1	0	5	0
53	692	0	10000	5	1	0	5	0
52	693	0	10000	5	1	0	5	0
49	694	0	10000	5	1	0	5	0
47	695	0	10000	5	1	0	5	0
46	696	0	10000	5	1	0	5	0
47	697	0	10000	5	1	0	5	0
46	698	0	10000	5	1	0	5	0
44	699	0	10000	5	1	0	5	0
43	700	0	10000	5	1	0	5	0
41	701	0	10000	5	1	0	5	0
40	702	0	10000	5	1	0	5	0
38	703	0	10000	5	1	0	5	0
38	704	0	10000	5	1	0	5	0
37	705	0	10000	5	1	0	5	0
36	706	0	10000	5	1	0	5	0
35	707	0	10000	5	1	0	5	0
35	708	0	10000	5	1	0	5	0
36	709	0	10000	5	1	0	5	0
38	710	0	10000	5	1	0	5	0
39	711	0	10000	5	1	0	5	0
40	712	0	10000	5	1	0	5	0
39	713	0	10000	5	1	0	5	0
37	714	0	10000	5	1	0	5	0
34	715	0	10000	5	1	0	5	0
33	716	0	10000	5	1	0	5	0
35	717	0	10000	5	1	0	5	0
34	718	0	10000	5	1	0	5	0
32	719	0	10000	5	1	0	5	0
31	720	0	10000	5	1	0	5	0
29	721	0	10000	5	1	0	5	0
28	722	0	10000	5	1	0	5	0
27	723	0	10000	5	1	0	5	0
28	724	0	10000	5	1	0	5	0
27	725	0	10000	5	1	0	5	0
26	726	0	10000	5	1	0	5	0
24	727	0	10000	5	1	0	5	0
24	728	0	10000	5	1	0	5	0
24	729	0	10000	5	1	0	5	0
26	730	0	10000	5	1	0	5	0
26	731	0	10000	5	1	0	5	0
26	732	0	10000	5	1	0	5	0
26	733	0	10000	5	1	0	5	0
26	734	0	10000	5	1	0	5	0
27	735	0	10000	5	1	0	5	0
26	736	0	10000	5	1	0	5	0
28	737	0	10000	5	1	0	5	0
27	738	0	10000	5	1	0	5	0
26	739	0	10000	5	1	0	5	0
24	740	0	10000	5	1	0	5	0
24	741	0	10000	5	1	0	5	0
23	742	0	10000	5	1	0	5	0
23	743	0	10000	5	1	0	5	0
23	744	0	10000	5	1	0	5	0
22	745	0	10000	5	1	0	5	0
21	746	0	10000	5	1	0	5	0
19	747	0	10000	5	1	0	5	0
20	748	0	10000	5	1	0	5	0
20	749	0	10000	5	1	0	5	0
20	750	0	10000	5	1	0	5	0
20	751	0	10000	5	1	0	5	0
20	752	0	10000	5	1	0	5	0
20	753	0	10000	5	1	0	5	0
21	754	0	10000	5	1	0	5	0
22	755	0	10000	5	1	0	5	0
23	756	0	10000	5	1	0	5	0
26	757	0	10000	5	1	0	5	0
24	758	0	10000	5	1	0	5	0
24	759	0	10000	5	1	0	5	0
23	760	0	10000	5	1	0	5	0
22	761	0	10000	5	1	0	5	0
22	762	0	10000	5	1	0	5	0
22	763	0	10000	5	1	0	5	0
21	764	0	10000	5	1	0	5	0
21	765	0	10000	5	1	0	5	0
21	766	0	10000	5	1	0	5	0
18	767	0	10000	5	1	0	5	0
18	768	0	10000	5	1	0	5	0
19	769	0	10000	5	1	0	5	0
19	770	0	10000	5	1	0	5	0
18	771	0	10000	5	1	0	5	0
18	772	0	10000	5	1	0	5	0
18	773	0	10000	5	1	0	5	0
18	774	0	10000	5	1	0	5	0
19	775	0	10000	5	1	0	5	0
19	776	0	10000	5	1	0	5	0
20	777	0	10000	5	1	0	5	0
20	778	0	10000	5	1	0	5	0
19	779	0	10000	5	1	0	5	0
18	780	0	10000	5	1	0	5	0
18	781	0	10000	5	1	0	5	0
18	782	0	10000	5	1	0	5	0
19	783	0	10000	5	1	0	5	0
19	784	0	10000	5	1	0	5	0
19	785	0	10000	5	1	0	5	0
18	786	0	10000	5	1	0	5	0
17	787	0	10000	5	1	0	5	0
18	788	0	10000	5	1	0	5	0
18	789	0	10000	5	1	0	5	0
18	790	0	10000	5	1	0	5	0
19	791	0	10000	5	1	0	5	0
18	792	0	10000	5	1	0	5	0
18	793	0	10000	5	1	0	5	0
18	794	0	10000	5	1	0	5	0
17	795	0	10000	5	1	0	5	0
17	796	0	10000	5	1	0	5	0
20	797	0	10000	5	1	0	5	0
18	798	0	10000	5	1	0	5	0
18	799	0	10000	5	1	0	5	0
17	800	0	10000	5	1	0	5	0
16	801	0	10000	5	1	0	5	0
