value	EMG	Stimulus	EMG_sensitivity	Total_Trial_Nr	practise	acq	probe_nr	Startle_Probe
31	1	1	10000	1	1	0	1	0
33	2	1	10000	1	1	0	1	0
31	3	1	10000	1	1	0	1	0
32	4	1	10000	1	1	0	1	0
32	5	1	10000	1	1	0	1	0
31	6	1	10000	1	1	0	1	0
33	7	1	10000	1	1	0	1	0
34	8	1	10000	1	1	0	1	0
34	9	1	10000	1	1	0	1	0
36	10	1	10000	1	1	0	1	0
34	11	1	10000	1	1	0	1	0
34	12	1	10000	1	1	0	1	0
35	13	1	10000	1	1	0	1	0
35	14	1	10000	1	1	0	1	0
35	15	1	10000	1	1	0	1	0
35	16	1	10000	1	1	0	1	0
37	17	1	10000	1	1	0	1	0
35	18	1	10000	1	1	0	1	0
35	19	1	10000	1	1	0	1	0
34	20	1	10000	1	1	0	1	0
40	21	1	10000	1	1	0	1	0
42	22	1	10000	1	1	0	1	0
40	23	1	10000	1	1	0	1	0
39	24	1	10000	1	1	0	1	0
38	25	1	10000	1	1	0	1	0
41	26	1	10000	1	1	0	1	0
43	27	1	10000	1	1	0	1	0
44	28	1	10000	1	1	0	1	0
45	29	1	10000	1	1	0	1	0
44	30	1	10000	1	1	0	1	0
42	31	1	10000	1	1	0	1	0
41	32	1	10000	1	1	0	1	0
44	33	1	10000	1	1	0	1	0
43	34	1	10000	1	1	0	1	0
43	35	1	10000	1	1	0	1	0
44	36	1	10000	1	1	0	1	0
43	37	1	10000	1	1	0	1	0
41	38	1	10000	1	1	0	1	0
39	39	1	10000	1	1	0	1	0
39	40	1	10000	1	1	0	1	0
42	41	1	10000	1	1	0	1	0
41	42	1	10000	1	1	0	1	0
41	43	1	10000	1	1	0	1	0
38	44	1	10000	1	1	0	1	0
36	45	1	10000	1	1	0	1	0
41	46	1	10000	1	1	0	1	0
43	47	1	10000	1	1	0	1	0
43	48	1	10000	1	1	0	1	0
44	49	1	10000	1	1	0	1	0
44	50	1	10000	1	1	0	1	0
42	51	1	10000	1	1	0	1	0
42	52	1	10000	1	1	0	1	0
42	53	1	10000	1	1	0	1	0
44	54	1	10000	1	1	0	1	0
45	55	1	10000	1	1	0	1	0
44	56	1	10000	1	1	0	1	0
45	57	1	10000	1	1	0	1	0
46	58	1	10000	1	1	0	1	0
44	59	1	10000	1	1	0	1	0
49	60	1	10000	1	1	0	1	0
56	61	1	10000	1	1	0	1	0
58	62	1	10000	1	1	0	1	0
60	63	1	10000	1	1	0	1	0
62	64	1	10000	1	1	0	1	0
62	65	1	10000	1	1	0	1	0
59	66	1	10000	1	1	0	1	0
57	67	1	10000	1	1	0	1	0
60	68	1	10000	1	1	0	1	0
65	69	1	10000	1	1	0	1	0
68	70	1	10000	1	1	0	1	0
71	71	1	10000	1	1	0	1	0
76	72	1	10000	1	1	0	1	0
75	73	1	10000	1	1	0	1	0
72	74	1	10000	1	1	0	1	0
69	75	1	10000	1	1	0	1	0
69	76	1	10000	1	1	0	1	0
66	77	1	10000	1	1	0	1	0
63	78	1	10000	1	1	0	1	0
61	79	1	10000	1	1	0	1	0
61	80	1	10000	1	1	0	1	0
62	81	1	10000	1	1	0	1	0
62	82	1	10000	1	1	0	1	0
62	83	1	10000	1	1	0	1	0
60	84	1	10000	1	1	0	1	0
59	85	1	10000	1	1	0	1	0
60	86	1	10000	1	1	0	1	0
59	87	1	10000	1	1	0	1	0
58	88	1	10000	1	1	0	1	0
58	89	1	10000	1	1	0	1	0
57	90	1	10000	1	1	0	1	0
54	91	1	10000	1	1	0	1	0
53	92	1	10000	1	1	0	1	0
53	93	1	10000	1	1	0	1	0
55	94	1	10000	1	1	0	1	0
56	95	1	10000	1	1	0	1	0
55	96	1	10000	1	1	0	1	0
57	97	1	10000	1	1	0	1	0
58	98	1	10000	1	1	0	1	0
57	99	1	10000	1	1	0	1	0
56	100	1	10000	1	1	0	1	0
56	101	1	10000	1	1	0	1	0
56	102	1	10000	1	1	0	1	0
54	103	1	10000	1	1	0	1	0
53	104	1	10000	1	1	0	1	0
54	105	1	10000	1	1	0	1	0
59	106	1	10000	1	1	0	1	0
62	107	1	10000	1	1	0	1	0
63	108	1	10000	1	1	0	1	0
62	109	1	10000	1	1	0	1	0
61	110	1	10000	1	1	0	1	0
57	111	1	10000	1	1	0	1	0
55	112	1	10000	1	1	0	1	0
55	113	1	10000	1	1	0	1	0
55	114	1	10000	1	1	0	1	0
53	115	1	10000	1	1	0	1	0
53	116	1	10000	1	1	0	1	0
53	117	1	10000	1	1	0	1	0
52	118	1	10000	1	1	0	1	0
51	119	1	10000	1	1	0	1	0
49	120	1	10000	1	1	0	1	0
49	121	1	10000	1	1	0	1	0
48	122	1	10000	1	1	0	1	0
47	123	1	10000	1	1	0	1	0
45	124	1	10000	1	1	0	1	0
45	125	1	10000	1	1	0	1	0
45	126	1	10000	1	1	0	1	0
46	127	1	10000	1	1	0	1	0
49	128	1	10000	1	1	0	1	0
48	129	1	10000	1	1	0	1	0
47	130	1	10000	1	1	0	1	0
45	131	1	10000	1	1	0	1	0
44	132	1	10000	1	1	0	1	0
43	133	1	10000	1	1	0	1	0
42	134	1	10000	1	1	0	1	0
42	135	1	10000	1	1	0	1	0
43	136	1	10000	1	1	0	1	0
44	137	1	10000	1	1	0	1	0
41	138	1	10000	1	1	0	1	0
42	139	1	10000	1	1	0	1	0
41	140	1	10000	1	1	0	1	0
40	141	1	10000	1	1	0	1	0
39	142	1	10000	1	1	0	1	0
39	143	1	10000	1	1	0	1	0
37	144	1	10000	1	1	0	1	0
37	145	1	10000	1	1	0	1	0
35	146	1	10000	1	1	0	1	0
37	147	1	10000	1	1	0	1	0
38	148	1	10000	1	1	0	1	0
38	149	1	10000	1	1	0	1	0
42	150	1	10000	1	1	0	1	0
39	151	1	10000	1	1	0	1	0
37	152	1	10000	1	1	0	1	0
36	153	1	10000	1	1	0	1	0
36	154	1	10000	1	1	0	1	0
39	155	1	10000	1	1	0	1	0
41	156	1	10000	1	1	0	1	0
41	157	1	10000	1	1	0	1	0
40	158	1	10000	1	1	0	1	0
38	159	1	10000	1	1	0	1	0
37	160	1	10000	1	1	0	1	0
39	161	1	10000	1	1	0	1	0
39	162	1	10000	1	1	0	1	0
39	163	1	10000	1	1	0	1	0
37	164	1	10000	1	1	0	1	0
36	165	1	10000	1	1	0	1	0
36	166	1	10000	1	1	0	1	0
38	167	1	10000	1	1	0	1	0
39	168	1	10000	1	1	0	1	0
40	169	1	10000	1	1	0	1	0
38	170	1	10000	1	1	0	1	0
36	171	1	10000	1	1	0	1	0
36	172	1	10000	1	1	0	1	0
37	173	1	10000	1	1	0	1	0
35	174	1	10000	1	1	0	1	0
34	175	1	10000	1	1	0	1	0
34	176	1	10000	1	1	0	1	0
34	177	1	10000	1	1	0	1	0
33	178	1	10000	1	1	0	1	0
32	179	1	10000	1	1	0	1	0
31	180	1	10000	1	1	0	1	0
34	181	1	10000	1	1	0	1	0
33	182	1	10000	1	1	0	1	0
32	183	1	10000	1	1	0	1	0
31	184	1	10000	1	1	0	1	0
31	185	1	10000	1	1	0	1	0
32	186	1	10000	1	1	0	1	0
32	187	1	10000	1	1	0	1	0
32	188	1	10000	1	1	0	1	0
33	189	1	10000	1	1	0	1	0
33	190	1	10000	1	1	0	1	0
31	191	1	10000	1	1	0	1	0
32	192	1	10000	1	1	0	1	0
31	193	1	10000	1	1	0	1	0
31	194	1	10000	1	1	0	1	0
32	195	1	10000	1	1	0	1	0
32	196	1	10000	1	1	0	1	0
31	197	1	10000	1	1	0	1	0
30	198	1	10000	1	1	0	1	0
28	199	1	10000	1	1	0	1	0
30	200	1	10000	1	1	0	1	0
32	201	1	10000	1	1	0	1	0
31	202	1	10000	1	1	0	1	0
29	203	1	10000	1	1	0	1	0
32	204	1	10000	1	1	0	1	0
31	205	1	10000	1	1	0	1	0
31	206	1	10000	1	1	0	1	0
33	207	1	10000	1	1	0	1	0
31	208	1	10000	1	1	0	1	0
31	209	1	10000	1	1	0	1	0
31	210	1	10000	1	1	0	1	0
29	211	1	10000	1	1	0	1	0
31	212	1	10000	1	1	0	1	0
31	213	1	10000	1	1	0	1	0
32	214	1	10000	1	1	0	1	0
32	215	1	10000	1	1	0	1	0
32	216	1	10000	1	1	0	1	0
31	217	1	10000	1	1	0	1	0
31	218	1	10000	1	1	0	1	0
31	219	1	10000	1	1	0	1	0
29	220	1	10000	1	1	0	1	0
31	221	1	10000	1	1	0	1	0
34	222	1	10000	1	1	0	1	0
35	223	1	10000	1	1	0	1	0
35	224	1	10000	1	1	0	1	0
34	225	1	10000	1	1	0	1	0
35	226	1	10000	1	1	0	1	0
34	227	1	10000	1	1	0	1	0
34	228	1	10000	1	1	0	1	0
34	229	1	10000	1	1	0	1	0
33	230	1	10000	1	1	0	1	0
32	231	1	10000	1	1	0	1	0
33	232	1	10000	1	1	0	1	0
35	233	1	10000	1	1	0	1	0
34	234	1	10000	1	1	0	1	0
34	235	1	10000	1	1	0	1	0
32	236	1	10000	1	1	0	1	0
32	237	1	10000	1	1	0	1	0
31	238	1	10000	1	1	0	1	0
33	239	1	10000	1	1	0	1	0
37	240	1	10000	1	1	0	1	0
53	241	1	10000	1	1	0	1	0
62	242	1	10000	1	1	0	1	0
62	243	1	10000	1	1	0	1	0
69	244	1	10000	1	1	0	1	0
71	245	1	10000	1	1	0	1	0
74	246	1	10000	1	1	0	1	0
75	247	1	10000	1	1	0	1	0
86	248	1	10000	1	1	0	1	0
99	249	1	10000	1	1	0	1	0
107	250	1	10000	1	1	0	1	0
106	251	1	10000	1	1	0	1	0
108	252	1	10000	1	1	0	1	0
114	253	1	10000	1	1	0	1	0
114	254	1	10000	1	1	0	1	0
112	255	1	10000	1	1	0	1	0
116	256	1	10000	1	1	0	1	0
118	257	1	10000	1	1	0	1	0
113	258	1	10000	1	1	0	1	0
109	259	1	10000	1	1	0	1	0
107	260	1	10000	1	1	0	1	0
105	261	1	10000	1	1	0	1	0
104	262	1	10000	1	1	0	1	0
104	263	1	10000	1	1	0	1	0
109	264	1	10000	1	1	0	1	0
112	265	1	10000	1	1	0	1	0
129	266	1	10000	1	1	0	1	0
137	267	1	10000	1	1	0	1	0
134	268	1	10000	1	1	0	1	0
130	269	1	10000	1	1	0	1	0
130	270	1	10000	1	1	0	1	0
136	271	1	10000	1	1	0	1	0
159	272	1	10000	1	1	0	1	0
177	273	1	10000	1	1	0	1	0
187	274	1	10000	1	1	0	1	0
195	275	1	10000	1	1	0	1	0
205	276	1	10000	1	1	0	1	0
209	277	1	10000	1	1	0	1	0
206	278	1	10000	1	1	0	1	0
203	279	1	10000	1	1	0	1	0
196	280	1	10000	1	1	0	1	0
190	281	1	10000	1	1	0	1	0
188	282	1	10000	1	1	0	1	0
181	283	1	10000	1	1	0	1	0
173	284	1	10000	1	1	0	1	0
165	285	1	10000	1	1	0	1	0
163	286	1	10000	1	1	0	1	0
157	287	1	10000	1	1	0	1	0
151	288	1	10000	1	1	0	1	0
147	289	1	10000	1	1	0	1	0
142	290	1	10000	1	1	0	1	0
136	291	1	10000	1	1	0	1	0
132	292	1	10000	1	1	0	1	0
127	293	1	10000	1	1	0	1	0
131	294	1	10000	1	1	0	1	0
133	295	1	10000	1	1	0	1	0
134	296	1	10000	1	1	0	1	0
133	297	1	10000	1	1	0	1	0
134	298	1	10000	1	1	0	1	0
136	299	1	10000	1	1	0	1	0
133	300	1	10000	1	1	0	1	0
130	301	1	10000	1	1	0	1	0
125	302	1	10000	1	1	0	1	0
122	303	1	10000	1	1	0	1	0
121	304	1	10000	1	1	0	1	0
121	305	1	10000	1	1	0	1	0
117	306	1	10000	1	1	0	1	0
115	307	1	10000	1	1	0	1	0
112	308	1	10000	1	1	0	1	0
110	309	1	10000	1	1	0	1	0
113	310	1	10000	1	1	0	1	0
116	311	1	10000	1	1	0	1	0
122	312	1	10000	1	1	0	1	0
127	313	1	10000	1	1	0	1	0
130	314	1	10000	1	1	0	1	0
130	315	1	10000	1	1	0	1	0
128	316	1	10000	1	1	0	1	0
127	317	1	10000	1	1	0	1	0
126	318	1	10000	1	1	0	1	0
124	319	1	10000	1	1	0	1	0
125	320	1	10000	1	1	0	1	0
130	321	1	10000	1	1	0	1	0
130	322	1	10000	1	1	0	1	0
127	323	1	10000	1	1	0	1	0
123	324	1	10000	1	1	0	1	0
123	325	1	10000	1	1	0	1	0
120	326	1	10000	1	1	0	1	0
115	327	1	10000	1	1	0	1	0
110	328	1	10000	1	1	0	1	0
109	329	1	10000	1	1	0	1	0
106	330	1	10000	1	1	0	1	0
103	331	1	10000	1	1	0	1	0
103	332	1	10000	1	1	0	1	0
106	333	1	10000	1	1	0	1	0
105	334	1	10000	1	1	0	1	0
100	335	1	10000	1	1	0	1	0
98	336	1	10000	1	1	0	1	0
95	337	1	10000	1	1	0	1	0
91	338	1	10000	1	1	0	1	0
88	339	1	10000	1	1	0	1	0
85	340	1	10000	1	1	0	1	0
86	341	1	10000	1	1	0	1	0
84	342	1	10000	1	1	0	1	0
80	343	1	10000	1	1	0	1	0
79	344	1	10000	1	1	0	1	0
76	345	1	10000	1	1	0	1	0
76	346	1	10000	1	1	0	1	0
78	347	1	10000	1	1	0	1	0
77	348	1	10000	1	1	0	1	0
76	349	1	10000	1	1	0	1	0
73	350	1	10000	1	1	0	1	0
69	351	1	10000	1	1	0	1	0
67	352	1	10000	1	1	0	1	0
68	353	1	10000	1	1	0	1	0
66	354	1	10000	1	1	0	1	0
64	355	1	10000	1	1	0	1	0
63	356	1	10000	1	1	0	1	0
61	357	1	10000	1	1	0	1	0
59	358	1	10000	1	1	0	1	0
57	359	1	10000	1	1	0	1	0
58	360	1	10000	1	1	0	1	0
60	361	1	10000	1	1	0	1	0
59	362	1	10000	1	1	0	1	0
56	363	1	10000	1	1	0	1	0
55	364	1	10000	1	1	0	1	0
54	365	1	10000	1	1	0	1	0
54	366	1	10000	1	1	0	1	0
53	367	1	10000	1	1	0	1	0
53	368	1	10000	1	1	0	1	0
51	369	1	10000	1	1	0	1	0
49	370	1	10000	1	1	0	1	0
48	371	1	10000	1	1	0	1	0
51	372	1	10000	1	1	0	1	0
53	373	1	10000	1	1	0	1	0
52	374	1	10000	1	1	0	1	0
51	375	1	10000	1	1	0	1	0
51	376	1	10000	1	1	0	1	0
50	377	1	10000	1	1	0	1	0
48	378	1	10000	1	1	0	1	0
46	379	1	10000	1	1	0	1	0
46	380	1	10000	1	1	0	1	0
46	381	1	10000	1	1	0	1	0
46	382	1	10000	1	1	0	1	0
44	383	1	10000	1	1	0	1	0
43	384	1	10000	1	1	0	1	0
43	385	1	10000	1	1	0	1	0
44	386	1	10000	1	1	0	1	0
45	387	1	10000	1	1	0	1	0
44	388	1	10000	1	1	0	1	0
43	389	1	10000	1	1	0	1	0
44	390	1	10000	1	1	0	1	0
44	391	1	10000	1	1	0	1	0
47	392	1	10000	1	1	0	1	0
47	393	1	10000	1	1	0	1	0
44	394	1	10000	1	1	0	1	0
45	395	1	10000	1	1	0	1	0
45	396	1	10000	1	1	0	1	0
43	397	1	10000	1	1	0	1	0
41	398	1	10000	1	1	0	1	0
41	399	1	10000	1	1	0	1	0
40	400	1	10000	1	1	0	1	0
41	401	1	10000	1	1	0	1	0
41	402	1	10000	1	1	0	1	0
42	403	1	10000	1	1	0	1	0
42	404	1	10000	1	1	0	1	0
41	405	1	10000	1	1	0	1	0
40	406	1	10000	1	1	0	1	0
40	407	1	10000	1	1	0	1	0
39	408	1	10000	1	1	0	1	0
38	409	1	10000	1	1	0	1	0
37	410	1	10000	1	1	0	1	0
38	411	1	10000	1	1	0	1	0
40	412	1	10000	1	1	0	1	0
40	413	1	10000	1	1	0	1	0
38	414	1	10000	1	1	0	1	0
39	415	1	10000	1	1	0	1	0
39	416	1	10000	1	1	0	1	0
38	417	1	10000	1	1	0	1	0
36	418	1	10000	1	1	0	1	0
36	419	1	10000	1	1	0	1	0
34	420	1	10000	1	1	0	1	0
37	421	1	10000	1	1	0	1	0
39	422	1	10000	1	1	0	1	0
41	423	1	10000	1	1	0	1	0
40	424	1	10000	1	1	0	1	0
40	425	1	10000	1	1	0	1	0
43	426	1	10000	1	1	0	1	0
44	427	1	10000	1	1	0	1	0
46	428	1	10000	1	1	0	1	0
46	429	1	10000	1	1	0	1	0
45	430	1	10000	1	1	0	1	0
44	431	1	10000	1	1	0	1	0
42	432	1	10000	1	1	0	1	0
43	433	1	10000	1	1	0	1	0
43	434	1	10000	1	1	0	1	0
42	435	1	10000	1	1	0	1	0
42	436	1	10000	1	1	0	1	0
43	437	1	10000	1	1	0	1	0
42	438	1	10000	1	1	0	1	0
41	439	1	10000	1	1	0	1	0
39	440	1	10000	1	1	0	1	0
39	441	1	10000	1	1	0	1	0
40	442	1	10000	1	1	0	1	0
40	443	1	10000	1	1	0	1	0
40	444	1	10000	1	1	0	1	0
41	445	1	10000	1	1	0	1	0
41	446	1	10000	1	1	0	1	0
43	447	1	10000	1	1	0	1	0
44	448	1	10000	1	1	0	1	0
44	449	1	10000	1	1	0	1	0
45	450	1	10000	1	1	0	1	0
44	451	1	10000	1	1	0	1	0
42	452	1	10000	1	1	0	1	0
42	453	1	10000	1	1	0	1	0
40	454	1	10000	1	1	0	1	0
39	455	1	10000	1	1	0	1	0
37	456	1	10000	1	1	0	1	0
36	457	1	10000	1	1	0	1	0
35	458	1	10000	1	1	0	1	0
35	459	1	10000	1	1	0	1	0
34	460	1	10000	1	1	0	1	0
35	461	1	10000	1	1	0	1	0
37	462	1	10000	1	1	0	1	0
36	463	1	10000	1	1	0	1	0
35	464	1	10000	1	1	0	1	0
34	465	1	10000	1	1	0	1	0
33	466	1	10000	1	1	0	1	0
35	467	1	10000	1	1	0	1	0
39	468	1	10000	1	1	0	1	0
41	469	1	10000	1	1	0	1	0
40	470	1	10000	1	1	0	1	0
37	471	1	10000	1	1	0	1	0
39	472	1	10000	1	1	0	1	0
42	473	1	10000	1	1	0	1	0
45	474	1	10000	1	1	0	1	0
43	475	1	10000	1	1	0	1	0
43	476	1	10000	1	1	0	1	0
41	477	1	10000	1	1	0	1	0
40	478	1	10000	1	1	0	1	0
40	479	1	10000	1	1	0	1	0
40	480	1	10000	1	1	0	1	0
40	481	1	10000	1	1	0	1	0
40	482	1	10000	1	1	0	1	0
40	483	1	10000	1	1	0	1	0
38	484	1	10000	1	1	0	1	0
37	485	1	10000	1	1	0	1	0
37	486	1	10000	1	1	0	1	0
40	487	1	10000	1	1	0	1	0
42	488	1	10000	1	1	0	1	0
42	489	1	10000	1	1	0	1	0
43	490	1	10000	1	1	0	1	0
40	491	1	10000	1	1	0	1	0
40	492	1	10000	1	1	0	1	0
42	493	1	10000	1	1	0	1	0
43	494	1	10000	1	1	0	1	0
43	495	1	10000	1	1	0	1	0
43	496	1	10000	1	1	0	1	0
42	497	1	10000	1	1	0	1	0
41	498	1	10000	1	1	0	1	0
41	499	1	10000	1	1	0	1	0
38	500	1	10000	1	1	0	1	0
42	545	1	10000	1	1	0	1	1
45	546	1	10000	1	1	0	1	1
44	547	1	10000	1	1	0	1	1
42	548	1	10000	1	1	0	1	1
41	549	1	10000	1	1	0	1	1
42	550	1	10000	1	1	0	1	1
44	551	1	10000	1	1	0	1	1
46	552	1	10000	1	1	0	1	1
45	553	1	10000	1	1	0	1	1
44	554	1	10000	1	1	0	1	1
43	555	1	10000	1	1	0	1	1
41	556	1	10000	1	1	0	1	1
41	557	1	10000	1	1	0	1	1
42	558	1	10000	1	1	0	1	1
43	559	1	10000	1	1	0	1	1
44	560	1	10000	1	1	0	1	1
43	561	1	10000	1	1	0	1	1
42	562	1	10000	1	1	0	1	1
43	563	1	10000	1	1	0	1	1
44	564	1	10000	1	1	0	1	1
45	565	1	10000	1	1	0	1	1
46	566	1	10000	1	1	0	1	1
44	567	1	10000	1	1	0	1	1
42	568	1	10000	1	1	0	1	1
41	569	1	10000	1	1	0	1	1
43	570	1	10000	1	1	0	1	1
42	571	1	10000	1	1	0	1	1
42	572	1	10000	1	1	0	1	1
42	573	1	10000	1	1	0	1	1
42	574	1	10000	1	1	0	1	1
40	575	1	10000	1	1	0	1	1
43	576	1	10000	1	1	0	1	1
46	577	1	10000	1	1	0	1	1
44	578	1	10000	1	1	0	1	1
45	579	1	10000	1	1	0	1	1
44	580	1	10000	1	1	0	1	1
42	581	1	10000	1	1	0	1	1
42	582	1	10000	1	1	0	1	1
40	583	1	10000	1	1	0	1	1
40	584	1	10000	1	1	0	1	1
41	585	1	10000	1	1	0	1	1
40	586	1	10000	1	1	0	1	1
38	587	1	10000	1	1	0	1	1
40	588	1	10000	1	1	0	1	1
39	589	1	10000	1	1	0	1	1
40	590	1	10000	1	1	0	1	1
44	552	1	10000	1	1	0	1	1
43	553	1	10000	1	1	0	1	1
42	554	1	10000	1	1	0	1	1
40	555	1	10000	1	1	0	1	1
38	556	1	10000	1	1	0	1	1
38	557	1	10000	1	1	0	1	1
38	553	1	10000	1	1	0	1	0
40	554	1	10000	1	1	0	1	0
42	555	1	10000	1	1	0	1	0
42	556	1	10000	1	1	0	1	0
40	557	1	10000	1	1	0	1	0
39	558	1	10000	1	1	0	1	0
37	559	1	10000	1	1	0	1	0
39	560	1	10000	1	1	0	1	0
40	561	1	10000	1	1	0	1	0
40	562	1	10000	1	1	0	1	0
38	563	1	10000	1	1	0	1	0
38	564	1	10000	1	1	0	1	0
37	565	1	10000	1	1	0	1	0
37	566	1	10000	1	1	0	1	0
39	567	1	10000	1	1	0	1	0
38	568	1	10000	1	1	0	1	0
39	569	1	10000	1	1	0	1	0
37	570	1	10000	1	1	0	1	0
36	571	1	10000	1	1	0	1	0
38	572	1	10000	1	1	0	1	0
38	573	1	10000	1	1	0	1	0
36	574	1	10000	1	1	0	1	0
37	575	1	10000	1	1	0	1	0
37	576	1	10000	1	1	0	1	0
37	577	1	10000	1	1	0	1	0
36	578	1	10000	1	1	0	1	0
35	579	1	10000	1	1	0	1	0
35	580	1	10000	1	1	0	1	0
34	581	1	10000	1	1	0	1	0
34	582	1	10000	1	1	0	1	0
33	583	1	10000	1	1	0	1	0
33	584	1	10000	1	1	0	1	0
33	585	1	10000	1	1	0	1	0
35	586	1	10000	1	1	0	1	0
34	587	1	10000	1	1	0	1	0
35	588	1	10000	1	1	0	1	0
35	589	1	10000	1	1	0	1	0
34	590	1	10000	1	1	0	1	0
35	591	1	10000	1	1	0	1	0
34	592	1	10000	1	1	0	1	0
34	593	1	10000	1	1	0	1	0
32	594	1	10000	1	1	0	1	0
32	595	1	10000	1	1	0	1	0
32	596	1	10000	1	1	0	1	0
30	597	1	10000	1	1	0	1	0
30	598	1	10000	1	1	0	1	0
31	599	1	10000	1	1	0	1	0
30	600	1	10000	1	1	0	1	0
33	601	1	10000	1	1	0	1	0
33	602	1	10000	1	1	0	1	0
32	603	1	10000	1	1	0	1	0
33	604	1	10000	1	1	0	1	0
34	605	1	10000	1	1	0	1	0
33	606	1	10000	1	1	0	1	0
32	607	1	10000	1	1	0	1	0
33	608	1	10000	1	1	0	1	0
32	609	1	10000	1	1	0	1	0
33	610	1	10000	1	1	0	1	0
34	611	1	10000	1	1	0	1	0
32	612	1	10000	1	1	0	1	0
34	613	1	10000	1	1	0	1	0
33	614	1	10000	1	1	0	1	0
32	615	1	10000	1	1	0	1	0
33	616	1	10000	1	1	0	1	0
32	617	1	10000	1	1	0	1	0
32	618	1	10000	1	1	0	1	0
32	619	1	10000	1	1	0	1	0
31	620	1	10000	1	1	0	1	0
31	621	1	10000	1	1	0	1	0
33	622	1	10000	1	1	0	1	0
32	623	1	10000	1	1	0	1	0
33	624	1	10000	1	1	0	1	0
34	625	1	10000	1	1	0	1	0
35	626	1	10000	1	1	0	1	0
37	627	1	10000	1	1	0	1	0
40	628	1	10000	1	1	0	1	0
40	629	1	10000	1	1	0	1	0
40	630	1	10000	1	1	0	1	0
39	631	1	10000	1	1	0	1	0
37	632	1	10000	1	1	0	1	0
36	633	1	10000	1	1	0	1	0
36	634	1	10000	1	1	0	1	0
35	635	1	10000	1	1	0	1	0
35	636	1	10000	1	1	0	1	0
35	637	1	10000	1	1	0	1	0
38	638	1	10000	1	1	0	1	0
41	639	1	10000	1	1	0	1	0
51	640	1	10000	1	1	0	1	0
61	641	1	10000	1	1	0	1	0
67	642	1	10000	1	1	0	1	0
69	643	1	10000	1	1	0	1	0
75	644	1	10000	1	1	0	1	0
84	645	1	10000	1	1	0	1	0
117	646	1	10000	1	1	0	1	0
133	647	1	10000	1	1	0	1	0
130	648	1	10000	1	1	0	1	0
128	649	1	10000	1	1	0	1	0
137	650	1	10000	1	1	0	1	0
145	651	1	10000	1	1	0	1	0
153	652	1	10000	1	1	0	1	0
154	653	1	10000	1	1	0	1	0
164	654	1	10000	1	1	0	1	0
169	655	1	10000	1	1	0	1	0
171	656	1	10000	1	1	0	1	0
187	657	1	10000	1	1	0	1	0
191	658	1	10000	1	1	0	1	0
212	659	1	10000	1	1	0	1	0
214	660	1	10000	1	1	0	1	0
252	661	1	10000	1	1	0	1	0
302	662	1	10000	1	1	0	1	0
335	663	1	10000	1	1	0	1	0
331	664	1	10000	1	1	0	1	0
320	665	1	10000	1	1	0	1	0
312	666	1	10000	1	1	0	1	0
313	667	1	10000	1	1	0	1	0
317	668	1	10000	1	1	0	1	0
315	669	1	10000	1	1	0	1	0
307	670	1	10000	1	1	0	1	0
298	671	1	10000	1	1	0	1	0
305	672	1	10000	1	1	0	1	0
331	673	1	10000	1	1	0	1	0
357	674	1	10000	1	1	0	1	0
353	675	1	10000	1	1	0	1	0
364	676	1	10000	1	1	0	1	0
357	677	1	10000	1	1	0	1	0
353	678	1	10000	1	1	0	1	0
353	679	1	10000	1	1	0	1	0
365	680	1	10000	1	1	0	1	0
357	681	1	10000	1	1	0	1	0
362	682	1	10000	1	1	0	1	0
371	683	1	10000	1	1	0	1	0
381	684	1	10000	1	1	0	1	0
379	685	1	10000	1	1	0	1	0
372	686	1	10000	1	1	0	1	0
360	687	1	10000	1	1	0	1	0
345	688	1	10000	1	1	0	1	0
335	689	1	10000	1	1	0	1	0
328	690	1	10000	1	1	0	1	0
320	691	1	10000	1	1	0	1	0
314	692	1	10000	1	1	0	1	0
310	693	1	10000	1	1	0	1	0
301	694	1	10000	1	1	0	1	0
300	695	1	10000	1	1	0	1	0
306	696	1	10000	1	1	0	1	0
311	697	1	10000	1	1	0	1	0
302	698	1	10000	1	1	0	1	0
301	699	1	10000	1	1	0	1	0
298	700	1	10000	1	1	0	1	0
291	701	1	10000	1	1	0	1	0
284	702	1	10000	1	1	0	1	0
272	703	1	10000	1	1	0	1	0
261	704	1	10000	1	1	0	1	0
251	705	1	10000	1	1	0	1	0
240	706	1	10000	1	1	0	1	0
233	707	1	10000	1	1	0	1	0
223	708	1	10000	1	1	0	1	0
217	709	1	10000	1	1	0	1	0
213	710	1	10000	1	1	0	1	0
208	711	1	10000	1	1	0	1	0
198	712	1	10000	1	1	0	1	0
191	713	1	10000	1	1	0	1	0
187	714	1	10000	1	1	0	1	0
183	715	1	10000	1	1	0	1	0
177	716	1	10000	1	1	0	1	0
174	717	1	10000	1	1	0	1	0
170	718	1	10000	1	1	0	1	0
165	719	1	10000	1	1	0	1	0
158	720	1	10000	1	1	0	1	0
152	721	1	10000	1	1	0	1	0
149	722	1	10000	1	1	0	1	0
144	723	1	10000	1	1	0	1	0
140	724	1	10000	1	1	0	1	0
134	725	1	10000	1	1	0	1	0
131	726	1	10000	1	1	0	1	0
129	727	1	10000	1	1	0	1	0
128	728	1	10000	1	1	0	1	0
126	729	1	10000	1	1	0	1	0
123	730	1	10000	1	1	0	1	0
117	731	1	10000	1	1	0	1	0
114	732	1	10000	1	1	0	1	0
112	733	1	10000	1	1	0	1	0
107	734	1	10000	1	1	0	1	0
105	735	1	10000	1	1	0	1	0
102	736	1	10000	1	1	0	1	0
99	737	1	10000	1	1	0	1	0
99	738	1	10000	1	1	0	1	0
100	739	1	10000	1	1	0	1	0
101	740	1	10000	1	1	0	1	0
104	741	1	10000	1	1	0	1	0
109	742	1	10000	1	1	0	1	0
113	743	1	10000	1	1	0	1	0
112	744	1	10000	1	1	0	1	0
108	745	1	10000	1	1	0	1	0
103	746	1	10000	1	1	0	1	0
99	747	1	10000	1	1	0	1	0
97	748	1	10000	1	1	0	1	0
93	749	1	10000	1	1	0	1	0
90	750	1	10000	1	1	0	1	0
88	751	1	10000	1	1	0	1	0
85	752	1	10000	1	1	0	1	0
83	753	1	10000	1	1	0	1	0
79	754	1	10000	1	1	0	1	0
77	755	1	10000	1	1	0	1	0
75	756	1	10000	1	1	0	1	0
73	757	1	10000	1	1	0	1	0
70	758	1	10000	1	1	0	1	0
68	759	1	10000	1	1	0	1	0
66	760	1	10000	1	1	0	1	0
63	760	1	10000	1	1	0	1	0
63	761	1	10000	1	1	0	1	0
63	763	1	10000	1	1	0	1	0
60	764	1	10000	1	1	0	1	0
57	765	1	10000	1	1	0	1	0
57	766	1	10000	1	1	0	1	0
57	767	1	10000	1	1	0	1	0
59	768	1	10000	1	1	0	1	0
60	769	1	10000	1	1	0	1	0
58	770	1	10000	1	1	0	1	0
56	771	1	10000	1	1	0	1	0
54	772	1	10000	1	1	0	1	0
53	773	1	10000	1	1	0	1	0
52	774	1	10000	1	1	0	1	0
53	775	1	10000	1	1	0	1	0
51	776	1	10000	1	1	0	1	0
49	777	1	10000	1	1	0	1	0
49	778	1	10000	1	1	0	1	0
48	779	1	10000	1	1	0	1	0
47	780	1	10000	1	1	0	1	0
48	781	1	10000	1	1	0	1	0
53	782	1	10000	1	1	0	1	0
55	783	1	10000	1	1	0	1	0
56	784	1	10000	1	1	0	1	0
55	785	1	10000	1	1	0	1	0
54	786	1	10000	1	1	0	1	0
54	787	1	10000	1	1	0	1	0
56	788	1	10000	1	1	0	1	0
56	789	1	10000	1	1	0	1	0
54	790	1	10000	1	1	0	1	0
53	791	1	10000	1	1	0	1	0
50	792	1	10000	1	1	0	1	0
49	793	1	10000	1	1	0	1	0
49	794	1	10000	1	1	0	1	0
50	795	1	10000	1	1	0	1	0
50	796	1	10000	1	1	0	1	0
49	797	1	10000	1	1	0	1	0
50	798	1	10000	1	1	0	1	0
48	799	1	10000	1	1	0	1	0
47	800	1	10000	1	1	0	1	0
51	801	1	10000	1	1	0	1	0
54	802	1	10000	1	1	0	1	0
53	803	1	10000	1	1	0	1	0
51	804	1	10000	1	1	0	1	0
52	805	1	10000	1	1	0	1	0
51	806	1	10000	1	1	0	1	0
50	807	1	10000	1	1	0	1	0
49	808	1	10000	1	1	0	1	0
49	809	1	10000	1	1	0	1	0
47	810	1	10000	1	1	0	1	0
45	811	1	10000	1	1	0	1	0
43	812	1	10000	1	1	0	1	0
44	813	1	10000	1	1	0	1	0
43	814	1	10000	1	1	0	1	0
44	815	1	10000	1	1	0	1	0
43	816	1	10000	1	1	0	1	0
43	817	1	10000	1	1	0	1	0
44	818	1	10000	1	1	0	1	0
44	819	1	10000	1	1	0	1	0
49	820	1	10000	1	1	0	1	0
56	821	1	10000	1	1	0	1	0
62	822	1	10000	1	1	0	1	0
65	823	1	10000	1	1	0	1	0
69	824	1	10000	1	1	0	1	0
71	825	1	10000	1	1	0	1	0
69	826	1	10000	1	1	0	1	0
67	827	1	10000	1	1	0	1	0
66	828	1	10000	1	1	0	1	0
65	829	1	10000	1	1	0	1	0
63	830	1	10000	1	1	0	1	0
62	831	1	10000	1	1	0	1	0
65	832	1	10000	1	1	0	1	0
67	833	1	10000	1	1	0	1	0
64	834	1	10000	1	1	0	1	0
62	835	1	10000	1	1	0	1	0
60	836	1	10000	1	1	0	1	0
58	837	1	10000	1	1	0	1	0
56	838	1	10000	1	1	0	1	0
56	839	1	10000	1	1	0	1	0
54	840	1	10000	1	1	0	1	0
54	841	1	10000	1	1	0	1	0
56	842	1	10000	1	1	0	1	0
56	843	1	10000	1	1	0	1	0
55	844	1	10000	1	1	0	1	0
56	845	1	10000	1	1	0	1	0
58	846	1	10000	1	1	0	1	0
60	847	1	10000	1	1	0	1	0
61	848	1	10000	1	1	0	1	0
62	849	1	10000	1	1	0	1	0
63	850	1	10000	1	1	0	1	0
61	851	1	10000	1	1	0	1	0
58	852	1	10000	1	1	0	1	0
59	853	1	10000	1	1	0	1	0
63	854	1	10000	1	1	0	1	0
66	855	1	10000	1	1	0	1	0
66	856	1	10000	1	1	0	1	0
68	857	1	10000	1	1	0	1	0
70	858	1	10000	1	1	0	1	0
67	859	1	10000	1	1	0	1	0
66	860	1	10000	1	1	0	1	0
66	861	1	10000	1	1	0	1	0
65	862	1	10000	1	1	0	1	0
63	863	1	10000	1	1	0	1	0
63	864	1	10000	1	1	0	1	0
66	865	1	10000	1	1	0	1	0
71	866	1	10000	1	1	0	1	0
72	867	1	10000	1	1	0	1	0
75	868	1	10000	1	1	0	1	0
75	869	1	10000	1	1	0	1	0
72	870	1	10000	1	1	0	1	0
69	871	1	10000	1	1	0	1	0
66	872	1	10000	1	1	0	1	0
65	873	1	10000	1	1	0	1	0
67	874	1	10000	1	1	0	1	0
68	875	1	10000	1	1	0	1	0
71	876	1	10000	1	1	0	1	0
73	877	1	10000	1	1	0	1	0
71	878	1	10000	1	1	0	1	0
68	879	1	10000	1	1	0	1	0
65	880	1	10000	1	1	0	1	0
64	881	1	10000	1	1	0	1	0
64	882	1	10000	1	1	0	1	0
64	883	1	10000	1	1	0	1	0
61	884	1	10000	1	1	0	1	0
61	885	1	10000	1	1	0	1	0
61	886	1	10000	1	1	0	1	0
63	887	1	10000	1	1	0	1	0
67	888	1	10000	1	1	0	1	0
69	889	1	10000	1	1	0	1	0
68	890	1	10000	1	1	0	1	0
66	891	1	10000	1	1	0	1	0
63	892	1	10000	1	1	0	1	0
61	893	1	10000	1	1	0	1	0
59	894	1	10000	1	1	0	1	0
59	895	1	10000	1	1	0	1	0
61	896	1	10000	1	1	0	1	0
60	897	1	10000	1	1	0	1	0
59	898	1	10000	1	1	0	1	0
57	899	1	10000	1	1	0	1	0
55	900	1	10000	1	1	0	1	0
55	901	1	10000	1	1	0	1	0
59	902	1	10000	1	1	0	1	0
57	903	1	10000	1	1	0	1	0
55	904	1	10000	1	1	0	1	0
53	905	1	10000	1	1	0	1	0
52	906	1	10000	1	1	0	1	0
51	907	1	10000	1	1	0	1	0
51	908	1	10000	1	1	0	1	0
50	909	1	10000	1	1	0	1	0
49	910	1	10000	1	1	0	1	0
49	911	1	10000	1	1	0	1	0
47	912	1	10000	1	1	0	1	0
45	913	1	10000	1	1	0	1	0
44	914	1	10000	1	1	0	1	0
46	915	1	10000	1	1	0	1	0
46	916	1	10000	1	1	0	1	0
46	917	1	10000	1	1	0	1	0
45	918	1	10000	1	1	0	1	0
44	919	1	10000	1	1	0	1	0
42	920	1	10000	1	1	0	1	0
48	921	1	10000	1	1	0	1	0
52	922	1	10000	1	1	0	1	0
53	923	1	10000	1	1	0	1	0
51	924	1	10000	1	1	0	1	0
49	925	1	10000	1	1	0	1	0
49	926	1	10000	1	1	0	1	0
52	927	1	10000	1	1	0	1	0
54	928	1	10000	1	1	0	1	0
53	929	1	10000	1	1	0	1	0
53	930	1	10000	1	1	0	1	0
50	931	1	10000	1	1	0	1	0
47	932	1	10000	1	1	0	1	0
47	933	1	10000	1	1	0	1	0
46	934	1	10000	1	1	0	1	0
46	935	1	10000	1	1	0	1	0
45	936	1	10000	1	1	0	1	0
44	937	1	10000	1	1	0	1	0
43	938	1	10000	1	1	0	1	0
41	939	1	10000	1	1	0	1	0
42	940	1	10000	1	1	0	1	0
45	941	1	10000	1	1	0	1	0
44	942	1	10000	1	1	0	1	0
43	943	1	10000	1	1	0	1	0
42	944	1	10000	1	1	0	1	0
42	945	1	10000	1	1	0	1	0
42	946	1	10000	1	1	0	1	0
41	947	1	10000	1	1	0	1	0
40	948	1	10000	1	1	0	1	0
39	949	1	10000	1	1	0	1	0
39	950	1	10000	1	1	0	1	0
38	951	1	10000	1	1	0	1	0
39	952	1	10000	1	1	0	1	0
41	953	1	10000	1	1	0	1	0
40	954	1	10000	1	1	0	1	0
39	955	1	10000	1	1	0	1	0
41	956	1	10000	1	1	0	1	0
40	957	1	10000	1	1	0	1	0
39	958	1	10000	1	1	0	1	0
39	959	1	10000	1	1	0	1	0
41	960	1	10000	1	1	0	1	0
43	961	1	10000	1	1	0	1	0
44	962	1	10000	1	1	0	1	0
43	963	1	10000	1	1	0	1	0
43	964	1	10000	1	1	0	1	0
41	965	1	10000	1	1	0	1	0
40	966	1	10000	1	1	0	1	0
40	967	1	10000	1	1	0	1	0
39	968	1	10000	1	1	0	1	0
38	969	1	10000	1	1	0	1	0
37	970	1	10000	1	1	0	1	0
36	971	1	10000	1	1	0	1	0
33	972	1	10000	1	1	0	1	0
36	973	1	10000	1	1	0	1	0
40	974	1	10000	1	1	0	1	0
44	975	1	10000	1	1	0	1	0
46	976	1	10000	1	1	0	1	0
50	977	1	10000	1	1	0	1	0
50	978	1	10000	1	1	0	1	0
53	979	1	10000	1	1	0	1	0
56	980	1	10000	1	1	0	1	0
60	981	1	10000	1	1	0	1	0
66	982	1	10000	1	1	0	1	0
72	983	1	10000	1	1	0	1	0
76	984	1	10000	1	1	0	1	0
77	985	1	10000	1	1	0	1	0
76	986	1	10000	1	1	0	1	0
77	987	1	10000	1	1	0	1	0
75	988	1	10000	1	1	0	1	0
73	989	1	10000	1	1	0	1	0
69	990	1	10000	1	1	0	1	0
69	991	1	10000	1	1	0	1	0
64	992	1	10000	1	1	0	1	0
62	993	1	10000	1	1	0	1	0
62	994	1	10000	1	1	0	1	0
61	995	1	10000	1	1	0	1	0
62	996	1	10000	1	1	0	1	0
60	997	1	10000	1	1	0	1	0
59	998	1	10000	1	1	0	1	0
60	999	1	10000	1	1	0	1	0
59	1000	1	10000	1	1	0	1	0
47	1	0	10000	2	1	0	2	0
49	2	0	10000	2	1	0	2	0
47	3	0	10000	2	1	0	2	0
46	4	0	10000	2	1	0	2	0
46	5	0	10000	2	1	0	2	0
49	6	0	10000	2	1	0	2	0
54	7	0	10000	2	1	0	2	0
57	8	0	10000	2	1	0	2	0
56	9	0	10000	2	1	0	2	0
56	10	0	10000	2	1	0	2	0
55	11	0	10000	2	1	0	2	0
54	12	0	10000	2	1	0	2	0
57	13	0	10000	2	1	0	2	0
55	14	0	10000	2	1	0	2	0
54	15	0	10000	2	1	0	2	0
53	16	0	10000	2	1	0	2	0
51	17	0	10000	2	1	0	2	0
51	18	0	10000	2	1	0	2	0
50	19	0	10000	2	1	0	2	0
49	20	0	10000	2	1	0	2	0
50	21	0	10000	2	1	0	2	0
48	22	0	10000	2	1	0	2	0
46	23	0	10000	2	1	0	2	0
50	24	0	10000	2	1	0	2	0
49	25	0	10000	2	1	0	2	0
48	26	0	10000	2	1	0	2	0
47	27	0	10000	2	1	0	2	0
45	28	0	10000	2	1	0	2	0
44	29	0	10000	2	1	0	2	0
45	30	0	10000	2	1	0	2	0
44	31	0	10000	2	1	0	2	0
43	32	0	10000	2	1	0	2	0
46	33	0	10000	2	1	0	2	0
44	34	0	10000	2	1	0	2	0
45	35	0	10000	2	1	0	2	0
44	36	0	10000	2	1	0	2	0
42	37	0	10000	2	1	0	2	0
41	38	0	10000	2	1	0	2	0
40	39	0	10000	2	1	0	2	0
39	40	0	10000	2	1	0	2	0
38	41	0	10000	2	1	0	2	0
37	42	0	10000	2	1	0	2	0
35	43	0	10000	2	1	0	2	0
36	44	0	10000	2	1	0	2	0
37	45	0	10000	2	1	0	2	0
36	46	0	10000	2	1	0	2	0
37	47	0	10000	2	1	0	2	0
37	48	0	10000	2	1	0	2	0
37	49	0	10000	2	1	0	2	0
37	50	0	10000	2	1	0	2	0
36	51	0	10000	2	1	0	2	0
36	52	0	10000	2	1	0	2	0
39	53	0	10000	2	1	0	2	0
37	54	0	10000	2	1	0	2	0
37	55	0	10000	2	1	0	2	0
38	56	0	10000	2	1	0	2	0
38	57	0	10000	2	1	0	2	0
39	58	0	10000	2	1	0	2	0
39	59	0	10000	2	1	0	2	0
39	60	0	10000	2	1	0	2	0
40	61	0	10000	2	1	0	2	0
38	62	0	10000	2	1	0	2	0
37	63	0	10000	2	1	0	2	0
37	64	0	10000	2	1	0	2	0
37	65	0	10000	2	1	0	2	0
37	66	0	10000	2	1	0	2	0
37	67	0	10000	2	1	0	2	0
36	68	0	10000	2	1	0	2	0
36	69	0	10000	2	1	0	2	0
34	70	0	10000	2	1	0	2	0
37	71	0	10000	2	1	0	2	0
37	72	0	10000	2	1	0	2	0
37	73	0	10000	2	1	0	2	0
36	74	0	10000	2	1	0	2	0
37	75	0	10000	2	1	0	2	0
37	76	0	10000	2	1	0	2	0
38	77	0	10000	2	1	0	2	0
38	78	0	10000	2	1	0	2	0
37	79	0	10000	2	1	0	2	0
36	80	0	10000	2	1	0	2	0
36	81	0	10000	2	1	0	2	0
35	82	0	10000	2	1	0	2	0
32	83	0	10000	2	1	0	2	0
32	84	0	10000	2	1	0	2	0
31	85	0	10000	2	1	0	2	0
30	86	0	10000	2	1	0	2	0
32	87	0	10000	2	1	0	2	0
33	88	0	10000	2	1	0	2	0
33	89	0	10000	2	1	0	2	0
32	90	0	10000	2	1	0	2	0
32	91	0	10000	2	1	0	2	0
33	92	0	10000	2	1	0	2	0
39	93	0	10000	2	1	0	2	0
40	94	0	10000	2	1	0	2	0
38	95	0	10000	2	1	0	2	0
36	96	0	10000	2	1	0	2	0
36	97	0	10000	2	1	0	2	0
37	98	0	10000	2	1	0	2	0
40	99	0	10000	2	1	0	2	0
42	100	0	10000	2	1	0	2	0
41	101	0	10000	2	1	0	2	0
39	102	0	10000	2	1	0	2	0
40	103	0	10000	2	1	0	2	0
44	104	0	10000	2	1	0	2	0
44	105	0	10000	2	1	0	2	0
43	106	0	10000	2	1	0	2	0
42	107	0	10000	2	1	0	2	0
41	108	0	10000	2	1	0	2	0
40	109	0	10000	2	1	0	2	0
38	110	0	10000	2	1	0	2	0
38	111	0	10000	2	1	0	2	0
38	112	0	10000	2	1	0	2	0
39	113	0	10000	2	1	0	2	0
38	114	0	10000	2	1	0	2	0
39	115	0	10000	2	1	0	2	0
39	116	0	10000	2	1	0	2	0
41	117	0	10000	2	1	0	2	0
43	118	0	10000	2	1	0	2	0
41	119	0	10000	2	1	0	2	0
41	120	0	10000	2	1	0	2	0
40	121	0	10000	2	1	0	2	0
39	122	0	10000	2	1	0	2	0
39	123	0	10000	2	1	0	2	0
43	124	0	10000	2	1	0	2	0
42	125	0	10000	2	1	0	2	0
41	126	0	10000	2	1	0	2	0
44	127	0	10000	2	1	0	2	0
47	128	0	10000	2	1	0	2	0
48	129	0	10000	2	1	0	2	0
47	130	0	10000	2	1	0	2	0
46	131	0	10000	2	1	0	2	0
44	132	0	10000	2	1	0	2	0
46	133	0	10000	2	1	0	2	0
44	134	0	10000	2	1	0	2	0
42	135	0	10000	2	1	0	2	0
41	136	0	10000	2	1	0	2	0
39	137	0	10000	2	1	0	2	0
39	138	0	10000	2	1	0	2	0
40	139	0	10000	2	1	0	2	0
41	140	0	10000	2	1	0	2	0
41	141	0	10000	2	1	0	2	0
42	142	0	10000	2	1	0	2	0
41	143	0	10000	2	1	0	2	0
41	144	0	10000	2	1	0	2	0
40	145	0	10000	2	1	0	2	0
40	146	0	10000	2	1	0	2	0
39	147	0	10000	2	1	0	2	0
38	148	0	10000	2	1	0	2	0
38	149	0	10000	2	1	0	2	0
35	150	0	10000	2	1	0	2	0
36	151	0	10000	2	1	0	2	0
39	152	0	10000	2	1	0	2	0
42	153	0	10000	2	1	0	2	0
41	154	0	10000	2	1	0	2	0
42	155	0	10000	2	1	0	2	0
41	156	0	10000	2	1	0	2	0
39	157	0	10000	2	1	0	2	0
41	158	0	10000	2	1	0	2	0
40	159	0	10000	2	1	0	2	0
42	160	0	10000	2	1	0	2	0
42	161	0	10000	2	1	0	2	0
40	162	0	10000	2	1	0	2	0
39	163	0	10000	2	1	0	2	0
39	164	0	10000	2	1	0	2	0
39	165	0	10000	2	1	0	2	0
39	166	0	10000	2	1	0	2	0
41	167	0	10000	2	1	0	2	0
41	168	0	10000	2	1	0	2	0
40	169	0	10000	2	1	0	2	0
42	170	0	10000	2	1	0	2	0
39	171	0	10000	2	1	0	2	0
37	172	0	10000	2	1	0	2	0
39	173	0	10000	2	1	0	2	0
37	174	0	10000	2	1	0	2	0
37	175	0	10000	2	1	0	2	0
38	176	0	10000	2	1	0	2	0
38	177	0	10000	2	1	0	2	0
38	178	0	10000	2	1	0	2	0
42	179	0	10000	2	1	0	2	0
44	180	0	10000	2	1	0	2	0
44	181	0	10000	2	1	0	2	0
42	182	0	10000	2	1	0	2	0
40	183	0	10000	2	1	0	2	0
42	184	0	10000	2	1	0	2	0
42	185	0	10000	2	1	0	2	0
41	186	0	10000	2	1	0	2	0
42	187	0	10000	2	1	0	2	0
40	188	0	10000	2	1	0	2	0
40	189	0	10000	2	1	0	2	0
40	190	0	10000	2	1	0	2	0
39	191	0	10000	2	1	0	2	0
43	192	0	10000	2	1	0	2	0
45	193	0	10000	2	1	0	2	0
44	194	0	10000	2	1	0	2	0
45	195	0	10000	2	1	0	2	0
44	196	0	10000	2	1	0	2	0
43	197	0	10000	2	1	0	2	0
43	198	0	10000	2	1	0	2	0
41	199	0	10000	2	1	0	2	0
41	200	0	10000	2	1	0	2	0
39	201	0	10000	2	1	0	2	0
38	202	0	10000	2	1	0	2	0
36	203	0	10000	2	1	0	2	0
36	204	0	10000	2	1	0	2	0
36	205	0	10000	2	1	0	2	0
36	206	0	10000	2	1	0	2	0
35	207	0	10000	2	1	0	2	0
35	208	0	10000	2	1	0	2	0
35	209	0	10000	2	1	0	2	0
33	210	0	10000	2	1	0	2	0
35	211	0	10000	2	1	0	2	0
34	212	0	10000	2	1	0	2	0
39	213	0	10000	2	1	0	2	0
41	214	0	10000	2	1	0	2	0
40	215	0	10000	2	1	0	2	0
40	216	0	10000	2	1	0	2	0
40	217	0	10000	2	1	0	2	0
41	218	0	10000	2	1	0	2	0
41	219	0	10000	2	1	0	2	0
41	220	0	10000	2	1	0	2	0
42	221	0	10000	2	1	0	2	0
42	222	0	10000	2	1	0	2	0
39	223	0	10000	2	1	0	2	0
40	224	0	10000	2	1	0	2	0
40	225	0	10000	2	1	0	2	0
40	226	0	10000	2	1	0	2	0
39	227	0	10000	2	1	0	2	0
39	228	0	10000	2	1	0	2	0
38	229	0	10000	2	1	0	2	0
35	230	0	10000	2	1	0	2	0
37	231	0	10000	2	1	0	2	0
39	232	0	10000	2	1	0	2	0
40	233	0	10000	2	1	0	2	0
39	234	0	10000	2	1	0	2	0
38	235	0	10000	2	1	0	2	0
37	236	0	10000	2	1	0	2	0
39	237	0	10000	2	1	0	2	0
40	238	0	10000	2	1	0	2	0
40	239	0	10000	2	1	0	2	0
41	240	0	10000	2	1	0	2	0
41	241	0	10000	2	1	0	2	0
39	242	0	10000	2	1	0	2	0
40	243	0	10000	2	1	0	2	0
38	244	0	10000	2	1	0	2	0
37	245	0	10000	2	1	0	2	0
38	246	0	10000	2	1	0	2	0
37	247	0	10000	2	1	0	2	0
37	248	0	10000	2	1	0	2	0
38	249	0	10000	2	1	0	2	0
36	250	0	10000	2	1	0	2	0
35	251	0	10000	2	1	0	2	0
36	252	0	10000	2	1	0	2	0
40	253	0	10000	2	1	0	2	0
39	254	0	10000	2	1	0	2	0
40	255	0	10000	2	1	0	2	0
41	256	0	10000	2	1	0	2	0
40	257	0	10000	2	1	0	2	0
40	258	0	10000	2	1	0	2	0
40	259	0	10000	2	1	0	2	0
40	260	0	10000	2	1	0	2	0
40	261	0	10000	2	1	0	2	0
39	262	0	10000	2	1	0	2	0
36	263	0	10000	2	1	0	2	0
37	264	0	10000	2	1	0	2	0
37	265	0	10000	2	1	0	2	0
37	266	0	10000	2	1	0	2	0
36	267	0	10000	2	1	0	2	0
38	268	0	10000	2	1	0	2	0
39	269	0	10000	2	1	0	2	0
38	270	0	10000	2	1	0	2	0
37	271	0	10000	2	1	0	2	0
40	272	0	10000	2	1	0	2	0
43	273	0	10000	2	1	0	2	0
42	274	0	10000	2	1	0	2	0
39	275	0	10000	2	1	0	2	0
39	276	0	10000	2	1	0	2	0
43	277	0	10000	2	1	0	2	0
44	278	0	10000	2	1	0	2	0
43	279	0	10000	2	1	0	2	0
43	280	0	10000	2	1	0	2	0
42	281	0	10000	2	1	0	2	0
41	282	0	10000	2	1	0	2	0
42	283	0	10000	2	1	0	2	0
41	284	0	10000	2	1	0	2	0
41	285	0	10000	2	1	0	2	0
43	286	0	10000	2	1	0	2	0
44	287	0	10000	2	1	0	2	0
46	288	0	10000	2	1	0	2	0
46	289	0	10000	2	1	0	2	0
44	290	0	10000	2	1	0	2	0
42	291	0	10000	2	1	0	2	0
42	292	0	10000	2	1	0	2	0
44	293	0	10000	2	1	0	2	0
45	294	0	10000	2	1	0	2	0
44	295	0	10000	2	1	0	2	0
42	296	0	10000	2	1	0	2	0
41	297	0	10000	2	1	0	2	0
43	298	0	10000	2	1	0	2	0
45	299	0	10000	2	1	0	2	0
46	300	0	10000	2	1	0	2	0
47	301	0	10000	2	1	0	2	0
47	302	0	10000	2	1	0	2	0
44	303	0	10000	2	1	0	2	0
47	304	0	10000	2	1	0	2	0
45	305	0	10000	2	1	0	2	0
45	306	0	10000	2	1	0	2	0
45	307	0	10000	2	1	0	2	0
43	308	0	10000	2	1	0	2	0
43	309	0	10000	2	1	0	2	0
44	310	0	10000	2	1	0	2	0
43	311	0	10000	2	1	0	2	0
44	312	0	10000	2	1	0	2	0
45	313	0	10000	2	1	0	2	0
44	314	0	10000	2	1	0	2	0
44	315	0	10000	2	1	0	2	0
44	316	0	10000	2	1	0	2	0
46	317	0	10000	2	1	0	2	0
48	318	0	10000	2	1	0	2	0
48	319	0	10000	2	1	0	2	0
49	320	0	10000	2	1	0	2	0
48	321	0	10000	2	1	0	2	0
47	322	0	10000	2	1	0	2	0
45	323	0	10000	2	1	0	2	0
45	324	0	10000	2	1	0	2	0
43	325	0	10000	2	1	0	2	0
42	326	0	10000	2	1	0	2	0
42	327	0	10000	2	1	0	2	0
41	328	0	10000	2	1	0	2	0
40	329	0	10000	2	1	0	2	0
39	330	0	10000	2	1	0	2	0
38	331	0	10000	2	1	0	2	0
39	332	0	10000	2	1	0	2	0
44	333	0	10000	2	1	0	2	0
43	334	0	10000	2	1	0	2	0
41	335	0	10000	2	1	0	2	0
40	336	0	10000	2	1	0	2	0
39	337	0	10000	2	1	0	2	0
41	338	0	10000	2	1	0	2	0
42	339	0	10000	2	1	0	2	0
42	340	0	10000	2	1	0	2	0
42	341	0	10000	2	1	0	2	0
42	342	0	10000	2	1	0	2	0
42	343	0	10000	2	1	0	2	0
46	344	0	10000	2	1	0	2	0
46	345	0	10000	2	1	0	2	0
48	346	0	10000	2	1	0	2	0
48	347	0	10000	2	1	0	2	0
47	348	0	10000	2	1	0	2	0
46	349	0	10000	2	1	0	2	0
44	350	0	10000	2	1	0	2	0
44	351	0	10000	2	1	0	2	0
43	352	0	10000	2	1	0	2	0
45	353	0	10000	2	1	0	2	0
43	354	0	10000	2	1	0	2	0
42	355	0	10000	2	1	0	2	0
41	356	0	10000	2	1	0	2	0
41	357	0	10000	2	1	0	2	0
41	358	0	10000	2	1	0	2	0
40	359	0	10000	2	1	0	2	0
40	360	0	10000	2	1	0	2	0
39	361	0	10000	2	1	0	2	0
38	362	0	10000	2	1	0	2	0
36	363	0	10000	2	1	0	2	0
36	364	0	10000	2	1	0	2	0
36	365	0	10000	2	1	0	2	0
35	366	0	10000	2	1	0	2	0
35	367	0	10000	2	1	0	2	0
36	368	0	10000	2	1	0	2	0
35	369	0	10000	2	1	0	2	0
34	370	0	10000	2	1	0	2	0
34	371	0	10000	2	1	0	2	0
33	372	0	10000	2	1	0	2	0
35	373	0	10000	2	1	0	2	0
34	374	0	10000	2	1	0	2	0
32	375	0	10000	2	1	0	2	0
32	376	0	10000	2	1	0	2	0
32	377	0	10000	2	1	0	2	0
34	378	0	10000	2	1	0	2	0
36	379	0	10000	2	1	0	2	0
37	380	0	10000	2	1	0	2	0
36	381	0	10000	2	1	0	2	0
36	382	0	10000	2	1	0	2	0
36	383	0	10000	2	1	0	2	0
41	384	0	10000	2	1	0	2	0
41	385	0	10000	2	1	0	2	0
40	386	0	10000	2	1	0	2	0
39	387	0	10000	2	1	0	2	0
39	388	0	10000	2	1	0	2	0
42	389	0	10000	2	1	0	2	0
44	390	0	10000	2	1	0	2	0
43	391	0	10000	2	1	0	2	0
41	392	0	10000	2	1	0	2	0
43	393	0	10000	2	1	0	2	0
42	394	0	10000	2	1	0	2	0
43	395	0	10000	2	1	0	2	0
42	396	0	10000	2	1	0	2	0
40	397	0	10000	2	1	0	2	0
39	398	0	10000	2	1	0	2	0
40	399	0	10000	2	1	0	2	0
41	400	0	10000	2	1	0	2	0
40	401	0	10000	2	1	0	2	0
39	402	0	10000	2	1	0	2	0
36	403	0	10000	2	1	0	2	0
35	404	0	10000	2	1	0	2	0
34	405	0	10000	2	1	0	2	0
33	406	0	10000	2	1	0	2	0
33	407	0	10000	2	1	0	2	0
33	408	0	10000	2	1	0	2	0
34	409	0	10000	2	1	0	2	0
33	410	0	10000	2	1	0	2	0
33	411	0	10000	2	1	0	2	0
32	412	0	10000	2	1	0	2	0
33	413	0	10000	2	1	0	2	0
33	414	0	10000	2	1	0	2	0
31	415	0	10000	2	1	0	2	0
31	416	0	10000	2	1	0	2	0
32	417	0	10000	2	1	0	2	0
33	418	0	10000	2	1	0	2	0
37	419	0	10000	2	1	0	2	0
38	420	0	10000	2	1	0	2	0
39	421	0	10000	2	1	0	2	0
38	422	0	10000	2	1	0	2	0
38	423	0	10000	2	1	0	2	0
43	424	0	10000	2	1	0	2	0
42	425	0	10000	2	1	0	2	0
42	426	0	10000	2	1	0	2	0
43	427	0	10000	2	1	0	2	0
42	428	0	10000	2	1	0	2	0
43	429	0	10000	2	1	0	2	0
42	430	0	10000	2	1	0	2	0
43	431	0	10000	2	1	0	2	0
43	432	0	10000	2	1	0	2	0
44	433	0	10000	2	1	0	2	0
42	434	0	10000	2	1	0	2	0
42	435	0	10000	2	1	0	2	0
42	436	0	10000	2	1	0	2	0
44	437	0	10000	2	1	0	2	0
44	438	0	10000	2	1	0	2	0
43	439	0	10000	2	1	0	2	0
44	440	0	10000	2	1	0	2	0
44	441	0	10000	2	1	0	2	0
43	442	0	10000	2	1	0	2	0
40	443	0	10000	2	1	0	2	0
42	444	0	10000	2	1	0	2	0
40	445	0	10000	2	1	0	2	0
39	446	0	10000	2	1	0	2	0
40	447	0	10000	2	1	0	2	0
39	448	0	10000	2	1	0	2	0
38	449	0	10000	2	1	0	2	0
38	450	0	10000	2	1	0	2	0
36	451	0	10000	2	1	0	2	0
36	452	0	10000	2	1	0	2	0
40	453	0	10000	2	1	0	2	0
39	454	0	10000	2	1	0	2	0
40	455	0	10000	2	1	0	2	0
41	456	0	10000	2	1	0	2	0
40	457	0	10000	2	1	0	2	0
42	458	0	10000	2	1	0	2	0
44	459	0	10000	2	1	0	2	0
45	460	0	10000	2	1	0	2	0
45	461	0	10000	2	1	0	2	0
44	462	0	10000	2	1	0	2	0
42	463	0	10000	2	1	0	2	0
45	464	0	10000	2	1	0	2	0
43	465	0	10000	2	1	0	2	0
42	466	0	10000	2	1	0	2	0
42	467	0	10000	2	1	0	2	0
41	468	0	10000	2	1	0	2	0
41	469	0	10000	2	1	0	2	0
39	470	0	10000	2	1	0	2	0
40	471	0	10000	2	1	0	2	0
42	472	0	10000	2	1	0	2	0
43	473	0	10000	2	1	0	2	0
42	474	0	10000	2	1	0	2	0
43	475	0	10000	2	1	0	2	0
41	476	0	10000	2	1	0	2	0
41	477	0	10000	2	1	0	2	0
41	478	0	10000	2	1	0	2	0
41	479	0	10000	2	1	0	2	0
43	480	0	10000	2	1	0	2	0
43	481	0	10000	2	1	0	2	0
41	482	0	10000	2	1	0	2	0
39	483	0	10000	2	1	0	2	0
39	484	0	10000	2	1	0	2	0
38	485	0	10000	2	1	0	2	0
38	486	0	10000	2	1	0	2	0
38	487	0	10000	2	1	0	2	0
38	488	0	10000	2	1	0	2	0
38	489	0	10000	2	1	0	2	0
37	490	0	10000	2	1	0	2	0
35	491	0	10000	2	1	0	2	0
37	492	0	10000	2	1	0	2	0
45	493	0	10000	2	1	0	2	0
46	494	0	10000	2	1	0	2	0
46	495	0	10000	2	1	0	2	0
44	496	0	10000	2	1	0	2	0
44	497	0	10000	2	1	0	2	0
46	498	0	10000	2	1	0	2	0
50	499	0	10000	2	1	0	2	0
50	500	0	10000	2	1	0	2	0
50	501	0	10000	2	1	0	2	1
52	502	0	10000	2	1	0	2	1
49	503	0	10000	2	1	0	2	1
49	504	0	10000	2	1	0	2	1
48	505	0	10000	2	1	0	2	1
45	506	0	10000	2	1	0	2	1
46	507	0	10000	2	1	0	2	1
45	508	0	10000	2	1	0	2	1
44	509	0	10000	2	1	0	2	1
42	510	0	10000	2	1	0	2	1
42	511	0	10000	2	1	0	2	1
41	512	0	10000	2	1	0	2	1
42	513	0	10000	2	1	0	2	1
43	514	0	10000	2	1	0	2	1
42	515	0	10000	2	1	0	2	1
42	516	0	10000	2	1	0	2	1
43	517	0	10000	2	1	0	2	1
42	518	0	10000	2	1	0	2	1
41	519	0	10000	2	1	0	2	1
40	520	0	10000	2	1	0	2	1
39	521	0	10000	2	1	0	2	1
38	522	0	10000	2	1	0	2	1
36	523	0	10000	2	1	0	2	1
34	524	0	10000	2	1	0	2	1
34	525	0	10000	2	1	0	2	1
34	526	0	10000	2	1	0	2	1
34	527	0	10000	2	1	0	2	1
34	528	0	10000	2	1	0	2	1
34	529	0	10000	2	1	0	2	1
33	530	0	10000	2	1	0	2	1
33	531	0	10000	2	1	0	2	1
35	532	0	10000	2	1	0	2	1
43	533	0	10000	2	1	0	2	1
42	534	0	10000	2	1	0	2	1
40	535	0	10000	2	1	0	2	1
39	536	0	10000	2	1	0	2	1
38	537	0	10000	2	1	0	2	1
42	538	0	10000	2	1	0	2	1
45	539	0	10000	2	1	0	2	1
45	540	0	10000	2	1	0	2	1
43	541	0	10000	2	1	0	2	1
43	542	0	10000	2	1	0	2	1
41	543	0	10000	2	1	0	2	1
44	544	0	10000	2	1	0	2	1
44	545	0	10000	2	1	0	2	1
44	546	0	10000	2	1	0	2	1
42	547	0	10000	2	1	0	2	1
43	548	0	10000	2	1	0	2	1
41	549	0	10000	2	1	0	2	1
42	550	0	10000	2	1	0	2	1
41	551	0	10000	2	1	0	2	0
39	552	0	10000	2	1	0	2	0
39	553	0	10000	2	1	0	2	0
38	554	0	10000	2	1	0	2	0
38	555	0	10000	2	1	0	2	0
37	556	0	10000	2	1	0	2	0
36	557	0	10000	2	1	0	2	0
36	558	0	10000	2	1	0	2	0
36	559	0	10000	2	1	0	2	0
36	560	0	10000	2	1	0	2	0
35	561	0	10000	2	1	0	2	0
37	562	0	10000	2	1	0	2	0
36	563	0	10000	2	1	0	2	0
36	564	0	10000	2	1	0	2	0
35	565	0	10000	2	1	0	2	0
35	566	0	10000	2	1	0	2	0
35	567	0	10000	2	1	0	2	0
35	568	0	10000	2	1	0	2	0
37	569	0	10000	2	1	0	2	0
37	570	0	10000	2	1	0	2	0
35	571	0	10000	2	1	0	2	0
35	572	0	10000	2	1	0	2	0
37	573	0	10000	2	1	0	2	0
36	574	0	10000	2	1	0	2	0
37	575	0	10000	2	1	0	2	0
37	576	0	10000	2	1	0	2	0
38	577	0	10000	2	1	0	2	0
41	578	0	10000	2	1	0	2	0
43	579	0	10000	2	1	0	2	0
42	580	0	10000	2	1	0	2	0
42	581	0	10000	2	1	0	2	0
42	582	0	10000	2	1	0	2	0
40	583	0	10000	2	1	0	2	0
43	584	0	10000	2	1	0	2	0
43	585	0	10000	2	1	0	2	0
41	586	0	10000	2	1	0	2	0
40	587	0	10000	2	1	0	2	0
39	588	0	10000	2	1	0	2	0
38	589	0	10000	2	1	0	2	0
38	590	0	10000	2	1	0	2	0
42	591	0	10000	2	1	0	2	0
45	592	0	10000	2	1	0	2	0
47	593	0	10000	2	1	0	2	0
53	594	0	10000	2	1	0	2	0
65	595	0	10000	2	1	0	2	0
74	596	0	10000	2	1	0	2	0
84	597	0	10000	2	1	0	2	0
88	598	0	10000	2	1	0	2	0
86	599	0	10000	2	1	0	2	0
87	600	0	10000	2	1	0	2	0
98	601	0	10000	2	1	0	2	0
117	602	0	10000	2	1	0	2	0
116	603	0	10000	2	1	0	2	0
121	604	0	10000	2	1	0	2	0
123	605	0	10000	2	1	0	2	0
132	606	0	10000	2	1	0	2	0
149	607	0	10000	2	1	0	2	0
150	608	0	10000	2	1	0	2	0
156	609	0	10000	2	1	0	2	0
195	610	0	10000	2	1	0	2	0
251	611	0	10000	2	1	0	2	0
275	612	0	10000	2	1	0	2	0
280	613	0	10000	2	1	0	2	0
298	614	0	10000	2	1	0	2	0
295	615	0	10000	2	1	0	2	0
319	616	0	10000	2	1	0	2	0
344	617	0	10000	2	1	0	2	0
358	618	0	10000	2	1	0	2	0
381	619	0	10000	2	1	0	2	0
378	620	0	10000	2	1	0	2	0
381	621	0	10000	2	1	0	2	0
394	622	0	10000	2	1	0	2	0
389	623	0	10000	2	1	0	2	0
382	624	0	10000	2	1	0	2	0
378	625	0	10000	2	1	0	2	0
369	626	0	10000	2	1	0	2	0
357	627	0	10000	2	1	0	2	0
360	628	0	10000	2	1	0	2	0
379	629	0	10000	2	1	0	2	0
393	630	0	10000	2	1	0	2	0
397	631	0	10000	2	1	0	2	0
385	632	0	10000	2	1	0	2	0
371	633	0	10000	2	1	0	2	0
359	634	0	10000	2	1	0	2	0
350	635	0	10000	2	1	0	2	0
338	636	0	10000	2	1	0	2	0
324	637	0	10000	2	1	0	2	0
310	638	0	10000	2	1	0	2	0
299	639	0	10000	2	1	0	2	0
287	640	0	10000	2	1	0	2	0
280	641	0	10000	2	1	0	2	0
278	642	0	10000	2	1	0	2	0
269	643	0	10000	2	1	0	2	0
263	644	0	10000	2	1	0	2	0
256	645	0	10000	2	1	0	2	0
250	646	0	10000	2	1	0	2	0
250	647	0	10000	2	1	0	2	0
260	648	0	10000	2	1	0	2	0
266	649	0	10000	2	1	0	2	0
267	650	0	10000	2	1	0	2	0
260	651	0	10000	2	1	0	2	0
247	652	0	10000	2	1	0	2	0
237	653	0	10000	2	1	0	2	0
230	654	0	10000	2	1	0	2	0
222	655	0	10000	2	1	0	2	0
212	656	0	10000	2	1	0	2	0
207	657	0	10000	2	1	0	2	0
200	658	0	10000	2	1	0	2	0
191	659	0	10000	2	1	0	2	0
185	660	0	10000	2	1	0	2	0
178	661	0	10000	2	1	0	2	0
173	662	0	10000	2	1	0	2	0
165	663	0	10000	2	1	0	2	0
161	664	0	10000	2	1	0	2	0
155	665	0	10000	2	1	0	2	0
151	666	0	10000	2	1	0	2	0
147	667	0	10000	2	1	0	2	0
140	668	0	10000	2	1	0	2	0
135	669	0	10000	2	1	0	2	0
129	670	0	10000	2	1	0	2	0
124	671	0	10000	2	1	0	2	0
120	672	0	10000	2	1	0	2	0
120	673	0	10000	2	1	0	2	0
120	674	0	10000	2	1	0	2	0
116	675	0	10000	2	1	0	2	0
112	676	0	10000	2	1	0	2	0
110	677	0	10000	2	1	0	2	0
106	678	0	10000	2	1	0	2	0
103	679	0	10000	2	1	0	2	0
103	680	0	10000	2	1	0	2	0
105	681	0	10000	2	1	0	2	0
105	682	0	10000	2	1	0	2	0
103	683	0	10000	2	1	0	2	0
103	684	0	10000	2	1	0	2	0
104	685	0	10000	2	1	0	2	0
103	686	0	10000	2	1	0	2	0
103	687	0	10000	2	1	0	2	0
101	688	0	10000	2	1	0	2	0
97	689	0	10000	2	1	0	2	0
93	690	0	10000	2	1	0	2	0
91	691	0	10000	2	1	0	2	0
88	692	0	10000	2	1	0	2	0
91	693	0	10000	2	1	0	2	0
89	694	0	10000	2	1	0	2	0
85	695	0	10000	2	1	0	2	0
83	696	0	10000	2	1	0	2	0
81	697	0	10000	2	1	0	2	0
84	698	0	10000	2	1	0	2	0
87	699	0	10000	2	1	0	2	0
87	700	0	10000	2	1	0	2	0
84	701	0	10000	2	1	0	2	0
82	702	0	10000	2	1	0	2	0
77	703	0	10000	2	1	0	2	0
75	704	0	10000	2	1	0	2	0
73	705	0	10000	2	1	0	2	0
73	706	0	10000	2	1	0	2	0
70	707	0	10000	2	1	0	2	0
70	708	0	10000	2	1	0	2	0
68	709	0	10000	2	1	0	2	0
64	710	0	10000	2	1	0	2	0
63	711	0	10000	2	1	0	2	0
64	712	0	10000	2	1	0	2	0
66	713	0	10000	2	1	0	2	0
65	714	0	10000	2	1	0	2	0
67	715	0	10000	2	1	0	2	0
66	716	0	10000	2	1	0	2	0
64	717	0	10000	2	1	0	2	0
64	718	0	10000	2	1	0	2	0
62	719	0	10000	2	1	0	2	0
64	720	0	10000	2	1	0	2	0
65	721	0	10000	2	1	0	2	0
63	722	0	10000	2	1	0	2	0
62	723	0	10000	2	1	0	2	0
66	724	0	10000	2	1	0	2	0
66	725	0	10000	2	1	0	2	0
65	726	0	10000	2	1	0	2	0
62	727	0	10000	2	1	0	2	0
61	728	0	10000	2	1	0	2	0
62	729	0	10000	2	1	0	2	0
65	730	0	10000	2	1	0	2	0
66	731	0	10000	2	1	0	2	0
68	732	0	10000	2	1	0	2	0
73	733	0	10000	2	1	0	2	0
73	734	0	10000	2	1	0	2	0
71	735	0	10000	2	1	0	2	0
69	736	0	10000	2	1	0	2	0
69	737	0	10000	2	1	0	2	0
68	738	0	10000	2	1	0	2	0
68	739	0	10000	2	1	0	2	0
67	740	0	10000	2	1	0	2	0
65	741	0	10000	2	1	0	2	0
63	742	0	10000	2	1	0	2	0
61	743	0	10000	2	1	0	2	0
62	744	0	10000	2	1	0	2	0
62	745	0	10000	2	1	0	2	0
60	746	0	10000	2	1	0	2	0
58	747	0	10000	2	1	0	2	0
57	748	0	10000	2	1	0	2	0
57	749	0	10000	2	1	0	2	0
57	750	0	10000	2	1	0	2	0
59	751	0	10000	2	1	0	2	0
63	752	0	10000	2	1	0	2	0
66	753	0	10000	2	1	0	2	0
67	754	0	10000	2	1	0	2	0
68	755	0	10000	2	1	0	2	0
68	756	0	10000	2	1	0	2	0
66	757	0	10000	2	1	0	2	0
66	758	0	10000	2	1	0	2	0
64	759	0	10000	2	1	0	2	0
65	760	0	10000	2	1	0	2	0
67	761	0	10000	2	1	0	2	0
67	762	0	10000	2	1	0	2	0
63	763	0	10000	2	1	0	2	0
61	764	0	10000	2	1	0	2	0
60	765	0	10000	2	1	0	2	0
58	766	0	10000	2	1	0	2	0
56	767	0	10000	2	1	0	2	0
55	768	0	10000	2	1	0	2	0
54	769	0	10000	2	1	0	2	0
53	770	0	10000	2	1	0	2	0
51	771	0	10000	2	1	0	2	0
48	772	0	10000	2	1	0	2	0
51	773	0	10000	2	1	0	2	0
51	774	0	10000	2	1	0	2	0
49	775	0	10000	2	1	0	2	0
47	776	0	10000	2	1	0	2	0
44	777	0	10000	2	1	0	2	0
44	778	0	10000	2	1	0	2	0
46	779	0	10000	2	1	0	2	0
48	780	0	10000	2	1	0	2	0
46	781	0	10000	2	1	0	2	0
47	782	0	10000	2	1	0	2	0
43	783	0	10000	2	1	0	2	0
45	784	0	10000	2	1	0	2	0
46	785	0	10000	2	1	0	2	0
45	786	0	10000	2	1	0	2	0
44	787	0	10000	2	1	0	2	0
43	788	0	10000	2	1	0	2	0
43	789	0	10000	2	1	0	2	0
42	790	0	10000	2	1	0	2	0
43	791	0	10000	2	1	0	2	0
41	792	0	10000	2	1	0	2	0
41	793	0	10000	2	1	0	2	0
41	794	0	10000	2	1	0	2	0
43	795	0	10000	2	1	0	2	0
44	796	0	10000	2	1	0	2	0
43	797	0	10000	2	1	0	2	0
43	798	0	10000	2	1	0	2	0
42	799	0	10000	2	1	0	2	0
42	800	0	10000	2	1	0	2	0
41	801	0	10000	2	1	0	2	0
40	802	0	10000	2	1	0	2	0
38	803	0	10000	2	1	0	2	0
37	804	0	10000	2	1	0	2	0
37	805	0	10000	2	1	0	2	0
36	806	0	10000	2	1	0	2	0
35	807	0	10000	2	1	0	2	0
34	808	0	10000	2	1	0	2	0
33	809	0	10000	2	1	0	2	0
32	810	0	10000	2	1	0	2	0
34	811	0	10000	2	1	0	2	0
33	812	0	10000	2	1	0	2	0
36	813	0	10000	2	1	0	2	0
39	814	0	10000	2	1	0	2	0
39	815	0	10000	2	1	0	2	0
40	816	0	10000	2	1	0	2	0
39	817	0	10000	2	1	0	2	0
41	818	0	10000	2	1	0	2	0
44	819	0	10000	2	1	0	2	0
45	820	0	10000	2	1	0	2	0
44	821	0	10000	2	1	0	2	0
46	822	0	10000	2	1	0	2	0
44	823	0	10000	2	1	0	2	0
44	824	0	10000	2	1	0	2	0
44	825	0	10000	2	1	0	2	0
43	826	0	10000	2	1	0	2	0
43	827	0	10000	2	1	0	2	0
43	828	0	10000	2	1	0	2	0
42	829	0	10000	2	1	0	2	0
40	830	0	10000	2	1	0	2	0
39	831	0	10000	2	1	0	2	0
40	832	0	10000	2	1	0	2	0
41	833	0	10000	2	1	0	2	0
39	834	0	10000	2	1	0	2	0
39	835	0	10000	2	1	0	2	0
39	836	0	10000	2	1	0	2	0
37	837	0	10000	2	1	0	2	0
36	838	0	10000	2	1	0	2	0
36	839	0	10000	2	1	0	2	0
36	840	0	10000	2	1	0	2	0
36	841	0	10000	2	1	0	2	0
36	842	0	10000	2	1	0	2	0
33	843	0	10000	2	1	0	2	0
33	844	0	10000	2	1	0	2	0
32	845	0	10000	2	1	0	2	0
32	846	0	10000	2	1	0	2	0
35	847	0	10000	2	1	0	2	0
37	848	0	10000	2	1	0	2	0
37	849	0	10000	2	1	0	2	0
35	850	0	10000	2	1	0	2	0
34	851	0	10000	2	1	0	2	0
35	852	0	10000	2	1	0	2	0
39	853	0	10000	2	1	0	2	0
38	854	0	10000	2	1	0	2	0
38	855	0	10000	2	1	0	2	0
37	856	0	10000	2	1	0	2	0
36	857	0	10000	2	1	0	2	0
39	858	0	10000	2	1	0	2	0
40	859	0	10000	2	1	0	2	0
41	860	0	10000	2	1	0	2	0
44	861	0	10000	2	1	0	2	0
43	862	0	10000	2	1	0	2	0
40	863	0	10000	2	1	0	2	0
42	864	0	10000	2	1	0	2	0
42	865	0	10000	2	1	0	2	0
44	866	0	10000	2	1	0	2	0
45	867	0	10000	2	1	0	2	0
43	868	0	10000	2	1	0	2	0
42	869	0	10000	2	1	0	2	0
40	870	0	10000	2	1	0	2	0
39	871	0	10000	2	1	0	2	0
37	872	0	10000	2	1	0	2	0
39	873	0	10000	2	1	0	2	0
39	874	0	10000	2	1	0	2	0
39	875	0	10000	2	1	0	2	0
38	876	0	10000	2	1	0	2	0
36	877	0	10000	2	1	0	2	0
35	878	0	10000	2	1	0	2	0
34	879	0	10000	2	1	0	2	0
34	880	0	10000	2	1	0	2	0
33	881	0	10000	2	1	0	2	0
35	882	0	10000	2	1	0	2	0
36	883	0	10000	2	1	0	2	0
36	884	0	10000	2	1	0	2	0
35	885	0	10000	2	1	0	2	0
36	886	0	10000	2	1	0	2	0
39	887	0	10000	2	1	0	2	0
40	888	0	10000	2	1	0	2	0
41	889	0	10000	2	1	0	2	0
40	890	0	10000	2	1	0	2	0
38	891	0	10000	2	1	0	2	0
38	892	0	10000	2	1	0	2	0
42	893	0	10000	2	1	0	2	0
42	894	0	10000	2	1	0	2	0
43	895	0	10000	2	1	0	2	0
42	896	0	10000	2	1	0	2	0
41	897	0	10000	2	1	0	2	0
44	898	0	10000	2	1	0	2	0
50	899	0	10000	2	1	0	2	0
55	900	0	10000	2	1	0	2	0
57	901	0	10000	2	1	0	2	0
59	902	0	10000	2	1	0	2	0
58	903	0	10000	2	1	0	2	0
56	904	0	10000	2	1	0	2	0
57	905	0	10000	2	1	0	2	0
57	906	0	10000	2	1	0	2	0
57	907	0	10000	2	1	0	2	0
56	908	0	10000	2	1	0	2	0
56	909	0	10000	2	1	0	2	0
56	910	0	10000	2	1	0	2	0
58	911	0	10000	2	1	0	2	0
60	912	0	10000	2	1	0	2	0
62	913	0	10000	2	1	0	2	0
62	914	0	10000	2	1	0	2	0
61	915	0	10000	2	1	0	2	0
60	916	0	10000	2	1	0	2	0
63	917	0	10000	2	1	0	2	0
67	918	0	10000	2	1	0	2	0
75	919	0	10000	2	1	0	2	0
79	920	0	10000	2	1	0	2	0
78	921	0	10000	2	1	0	2	0
78	922	0	10000	2	1	0	2	0
77	923	0	10000	2	1	0	2	0
80	924	0	10000	2	1	0	2	0
83	925	0	10000	2	1	0	2	0
82	926	0	10000	2	1	0	2	0
83	927	0	10000	2	1	0	2	0
83	928	0	10000	2	1	0	2	0
79	929	0	10000	2	1	0	2	0
77	930	0	10000	2	1	0	2	0
75	931	0	10000	2	1	0	2	0
74	932	0	10000	2	1	0	2	0
75	933	0	10000	2	1	0	2	0
73	934	0	10000	2	1	0	2	0
70	935	0	10000	2	1	0	2	0
67	936	0	10000	2	1	0	2	0
66	937	0	10000	2	1	0	2	0
67	938	0	10000	2	1	0	2	0
69	939	0	10000	2	1	0	2	0
69	940	0	10000	2	1	0	2	0
69	941	0	10000	2	1	0	2	0
66	942	0	10000	2	1	0	2	0
64	943	0	10000	2	1	0	2	0
62	944	0	10000	2	1	0	2	0
61	945	0	10000	2	1	0	2	0
60	946	0	10000	2	1	0	2	0
60	947	0	10000	2	1	0	2	0
59	948	0	10000	2	1	0	2	0
64	949	0	10000	2	1	0	2	0
68	950	0	10000	2	1	0	2	0
69	951	0	10000	2	1	0	2	0
68	952	0	10000	2	1	0	2	0
69	953	0	10000	2	1	0	2	0
68	954	0	10000	2	1	0	2	0
66	955	0	10000	2	1	0	2	0
65	956	0	10000	2	1	0	2	0
64	957	0	10000	2	1	0	2	0
65	958	0	10000	2	1	0	2	0
67	959	0	10000	2	1	0	2	0
66	960	0	10000	2	1	0	2	0
66	961	0	10000	2	1	0	2	0
64	962	0	10000	2	1	0	2	0
62	963	0	10000	2	1	0	2	0
60	964	0	10000	2	1	0	2	0
58	965	0	10000	2	1	0	2	0
60	966	0	10000	2	1	0	2	0
60	967	0	10000	2	1	0	2	0
61	968	0	10000	2	1	0	2	0
66	969	0	10000	2	1	0	2	0
70	970	0	10000	2	1	0	2	0
68	971	0	10000	2	1	0	2	0
66	972	0	10000	2	1	0	2	0
65	973	0	10000	2	1	0	2	0
63	974	0	10000	2	1	0	2	0
60	975	0	10000	2	1	0	2	0
59	976	0	10000	2	1	0	2	0
57	977	0	10000	2	1	0	2	0
55	978	0	10000	2	1	0	2	0
54	979	0	10000	2	1	0	2	0
57	980	0	10000	2	1	0	2	0
57	981	0	10000	2	1	0	2	0
59	982	0	10000	2	1	0	2	0
57	983	0	10000	2	1	0	2	0
55	984	0	10000	2	1	0	2	0
54	985	0	10000	2	1	0	2	0
55	986	0	10000	2	1	0	2	0
56	987	0	10000	2	1	0	2	0
56	988	0	10000	2	1	0	2	0
58	989	0	10000	2	1	0	2	0
58	990	0	10000	2	1	0	2	0
56	991	0	10000	2	1	0	2	0
56	992	0	10000	2	1	0	2	0
56	993	0	10000	2	1	0	2	0
58	994	0	10000	2	1	0	2	0
58	995	0	10000	2	1	0	2	0
57	996	0	10000	2	1	0	2	0
57	997	0	10000	2	1	0	2	0
55	998	0	10000	2	1	0	2	0
55	999	0	10000	2	1	0	2	0
55	1000	0	10000	2	1	0	2	0
55	2	0	10000	3	1	0	3	0
54	3	0	10000	3	1	0	3	0
51	4	0	10000	3	1	0	3	0
52	5	0	10000	3	1	0	3	0
55	6	0	10000	3	1	0	3	0
56	7	0	10000	3	1	0	3	0
57	8	0	10000	3	1	0	3	0
61	9	0	10000	3	1	0	3	0
59	10	0	10000	3	1	0	3	0
58	11	0	10000	3	1	0	3	0
59	12	0	10000	3	1	0	3	0
57	13	0	10000	3	1	0	3	0
57	14	0	10000	3	1	0	3	0
60	15	0	10000	3	1	0	3	0
68	16	0	10000	3	1	0	3	0
74	17	0	10000	3	1	0	3	0
73	18	0	10000	3	1	0	3	0
72	19	0	10000	3	1	0	3	0
75	20	0	10000	3	1	0	3	0
80	21	0	10000	3	1	0	3	0
81	21	0	10000	3	1	0	3	0
80	22	0	10000	3	1	0	3	0
79	24	0	10000	3	1	0	3	0
80	25	0	10000	3	1	0	3	0
79	26	0	10000	3	1	0	3	0
77	27	0	10000	3	1	0	3	0
76	28	0	10000	3	1	0	3	0
74	29	0	10000	3	1	0	3	0
73	30	0	10000	3	1	0	3	0
70	31	0	10000	3	1	0	3	0
71	31	0	10000	3	1	0	3	0
71	32	0	10000	3	1	0	3	0
68	34	0	10000	3	1	0	3	0
68	35	0	10000	3	1	0	3	0
68	36	0	10000	3	1	0	3	0
68	37	0	10000	3	1	0	3	0
67	38	0	10000	3	1	0	3	0
67	39	0	10000	3	1	0	3	0
68	40	0	10000	3	1	0	3	0
67	41	0	10000	3	1	0	3	0
66	41	0	10000	3	1	0	3	0
64	42	0	10000	3	1	0	3	0
66	44	0	10000	3	1	0	3	0
71	45	0	10000	3	1	0	3	0
76	46	0	10000	3	1	0	3	0
78	47	0	10000	3	1	0	3	0
76	48	0	10000	3	1	0	3	0
78	49	0	10000	3	1	0	3	0
82	50	0	10000	3	1	0	3	0
79	51	0	10000	3	1	0	3	0
78	51	0	10000	3	1	0	3	0
78	52	0	10000	3	1	0	3	0
77	54	0	10000	3	1	0	3	0
75	55	0	10000	3	1	0	3	0
76	56	0	10000	3	1	0	3	0
81	57	0	10000	3	1	0	3	0
81	58	0	10000	3	1	0	3	0
78	59	0	10000	3	1	0	3	0
78	60	0	10000	3	1	0	3	0
78	61	0	10000	3	1	0	3	0
75	61	0	10000	3	1	0	3	0
73	62	0	10000	3	1	0	3	0
73	64	0	10000	3	1	0	3	0
70	65	0	10000	3	1	0	3	0
71	66	0	10000	3	1	0	3	0
72	67	0	10000	3	1	0	3	0
70	68	0	10000	3	1	0	3	0
67	69	0	10000	3	1	0	3	0
66	70	0	10000	3	1	0	3	0
62	71	0	10000	3	1	0	3	0
61	71	0	10000	3	1	0	3	0
59	72	0	10000	3	1	0	3	0
57	74	0	10000	3	1	0	3	0
56	75	0	10000	3	1	0	3	0
58	76	0	10000	3	1	0	3	0
58	77	0	10000	3	1	0	3	0
56	78	0	10000	3	1	0	3	0
54	79	0	10000	3	1	0	3	0
52	80	0	10000	3	1	0	3	0
57	81	0	10000	3	1	0	3	0
57	81	0	10000	3	1	0	3	0
55	82	0	10000	3	1	0	3	0
54	84	0	10000	3	1	0	3	0
53	85	0	10000	3	1	0	3	0
56	86	0	10000	3	1	0	3	0
58	87	0	10000	3	1	0	3	0
57	88	0	10000	3	1	0	3	0
56	89	0	10000	3	1	0	3	0
55	90	0	10000	3	1	0	3	0
52	91	0	10000	3	1	0	3	0
56	91	0	10000	3	1	0	3	0
56	92	0	10000	3	1	0	3	0
56	94	0	10000	3	1	0	3	0
57	95	0	10000	3	1	0	3	0
59	96	0	10000	3	1	0	3	0
58	97	0	10000	3	1	0	3	0
59	98	0	10000	3	1	0	3	0
59	99	0	10000	3	1	0	3	0
59	100	0	10000	3	1	0	3	0
59	101	0	10000	3	1	0	3	0
57	101	0	10000	3	1	0	3	0
58	102	0	10000	3	1	0	3	0
62	104	0	10000	3	1	0	3	0
64	105	0	10000	3	1	0	3	0
63	106	0	10000	3	1	0	3	0
62	107	0	10000	3	1	0	3	0
63	108	0	10000	3	1	0	3	0
64	109	0	10000	3	1	0	3	0
64	110	0	10000	3	1	0	3	0
65	111	0	10000	3	1	0	3	0
74	111	0	10000	3	1	0	3	0
76	112	0	10000	3	1	0	3	0
77	114	0	10000	3	1	0	3	0
80	115	0	10000	3	1	0	3	0
82	116	0	10000	3	1	0	3	0
83	117	0	10000	3	1	0	3	0
79	118	0	10000	3	1	0	3	0
77	119	0	10000	3	1	0	3	0
75	120	0	10000	3	1	0	3	0
74	121	0	10000	3	1	0	3	0
72	121	0	10000	3	1	0	3	0
69	122	0	10000	3	1	0	3	0
66	124	0	10000	3	1	0	3	0
65	125	0	10000	3	1	0	3	0
62	126	0	10000	3	1	0	3	0
60	127	0	10000	3	1	0	3	0
60	128	0	10000	3	1	0	3	0
58	129	0	10000	3	1	0	3	0
60	130	0	10000	3	1	0	3	0
58	131	0	10000	3	1	0	3	0
56	131	0	10000	3	1	0	3	0
54	132	0	10000	3	1	0	3	0
55	134	0	10000	3	1	0	3	0
56	135	0	10000	3	1	0	3	0
58	136	0	10000	3	1	0	3	0
59	137	0	10000	3	1	0	3	0
62	138	0	10000	3	1	0	3	0
69	139	0	10000	3	1	0	3	0
71	140	0	10000	3	1	0	3	0
71	141	0	10000	3	1	0	3	0
73	141	0	10000	3	1	0	3	0
77	142	0	10000	3	1	0	3	0
81	144	0	10000	3	1	0	3	0
82	145	0	10000	3	1	0	3	0
79	146	0	10000	3	1	0	3	0
75	147	0	10000	3	1	0	3	0
75	148	0	10000	3	1	0	3	0
76	149	0	10000	3	1	0	3	0
77	150	0	10000	3	1	0	3	0
72	151	0	10000	3	1	0	3	0
69	151	0	10000	3	1	0	3	0
68	152	0	10000	3	1	0	3	0
68	154	0	10000	3	1	0	3	0
72	155	0	10000	3	1	0	3	0
74	156	0	10000	3	1	0	3	0
73	157	0	10000	3	1	0	3	0
71	158	0	10000	3	1	0	3	0
69	159	0	10000	3	1	0	3	0
67	160	0	10000	3	1	0	3	0
68	161	0	10000	3	1	0	3	0
67	161	0	10000	3	1	0	3	0
66	162	0	10000	3	1	0	3	0
68	164	0	10000	3	1	0	3	0
71	165	0	10000	3	1	0	3	0
78	166	0	10000	3	1	0	3	0
82	167	0	10000	3	1	0	3	0
80	168	0	10000	3	1	0	3	0
80	169	0	10000	3	1	0	3	0
80	170	0	10000	3	1	0	3	0
78	171	0	10000	3	1	0	3	0
83	171	0	10000	3	1	0	3	0
85	172	0	10000	3	1	0	3	0
85	174	0	10000	3	1	0	3	0
85	175	0	10000	3	1	0	3	0
82	176	0	10000	3	1	0	3	0
81	177	0	10000	3	1	0	3	0
78	178	0	10000	3	1	0	3	0
77	179	0	10000	3	1	0	3	0
76	180	0	10000	3	1	0	3	0
76	181	0	10000	3	1	0	3	0
74	181	0	10000	3	1	0	3	0
71	182	0	10000	3	1	0	3	0
68	184	0	10000	3	1	0	3	0
70	185	0	10000	3	1	0	3	0
72	186	0	10000	3	1	0	3	0
70	187	0	10000	3	1	0	3	0
71	188	0	10000	3	1	0	3	0
74	189	0	10000	3	1	0	3	0
72	190	0	10000	3	1	0	3	0
68	191	0	10000	3	1	0	3	0
72	191	0	10000	3	1	0	3	0
76	192	0	10000	3	1	0	3	0
76	194	0	10000	3	1	0	3	0
75	195	0	10000	3	1	0	3	0
74	196	0	10000	3	1	0	3	0
76	197	0	10000	3	1	0	3	0
77	198	0	10000	3	1	0	3	0
77	199	0	10000	3	1	0	3	0
76	200	0	10000	3	1	0	3	0
76	201	0	10000	3	1	0	3	0
74	201	0	10000	3	1	0	3	0
74	202	0	10000	3	1	0	3	0
71	204	0	10000	3	1	0	3	0
68	205	0	10000	3	1	0	3	0
67	206	0	10000	3	1	0	3	0
64	207	0	10000	3	1	0	3	0
63	208	0	10000	3	1	0	3	0
62	209	0	10000	3	1	0	3	0
61	210	0	10000	3	1	0	3	0
57	211	0	10000	3	1	0	3	0
56	211	0	10000	3	1	0	3	0
53	212	0	10000	3	1	0	3	0
53	214	0	10000	3	1	0	3	0
52	215	0	10000	3	1	0	3	0
50	216	0	10000	3	1	0	3	0
52	217	0	10000	3	1	0	3	0
51	218	0	10000	3	1	0	3	0
49	219	0	10000	3	1	0	3	0
50	220	0	10000	3	1	0	3	0
54	221	0	10000	3	1	0	3	0
54	221	0	10000	3	1	0	3	0
53	222	0	10000	3	1	0	3	0
51	224	0	10000	3	1	0	3	0
53	225	0	10000	3	1	0	3	0
59	226	0	10000	3	1	0	3	0
60	227	0	10000	3	1	0	3	0
58	228	0	10000	3	1	0	3	0
56	229	0	10000	3	1	0	3	0
56	230	0	10000	3	1	0	3	0
55	231	0	10000	3	1	0	3	0
56	231	0	10000	3	1	0	3	0
55	232	0	10000	3	1	0	3	0
56	234	0	10000	3	1	0	3	0
56	235	0	10000	3	1	0	3	0
56	236	0	10000	3	1	0	3	0
56	237	0	10000	3	1	0	3	0
53	238	0	10000	3	1	0	3	0
52	239	0	10000	3	1	0	3	0
55	240	0	10000	3	1	0	3	0
61	241	0	10000	3	1	0	3	0
64	241	0	10000	3	1	0	3	0
67	242	0	10000	3	1	0	3	0
69	244	0	10000	3	1	0	3	0
69	245	0	10000	3	1	0	3	0
68	246	0	10000	3	1	0	3	0
70	247	0	10000	3	1	0	3	0
72	248	0	10000	3	1	0	3	0
71	249	0	10000	3	1	0	3	0
70	250	0	10000	3	1	0	3	0
67	251	0	10000	3	1	0	3	0
68	251	0	10000	3	1	0	3	0
68	252	0	10000	3	1	0	3	0
69	254	0	10000	3	1	0	3	0
72	255	0	10000	3	1	0	3	0
70	256	0	10000	3	1	0	3	0
68	257	0	10000	3	1	0	3	0
66	258	0	10000	3	1	0	3	0
67	259	0	10000	3	1	0	3	0
66	260	0	10000	3	1	0	3	0
65	261	0	10000	3	1	0	3	0
65	261	0	10000	3	1	0	3	0
63	262	0	10000	3	1	0	3	0
61	264	0	10000	3	1	0	3	0
59	265	0	10000	3	1	0	3	0
58	266	0	10000	3	1	0	3	0
57	267	0	10000	3	1	0	3	0
57	268	0	10000	3	1	0	3	0
58	269	0	10000	3	1	0	3	0
58	270	0	10000	3	1	0	3	0
56	271	0	10000	3	1	0	3	0
55	271	0	10000	3	1	0	3	0
56	272	0	10000	3	1	0	3	0
57	274	0	10000	3	1	0	3	0
58	275	0	10000	3	1	0	3	0
60	276	0	10000	3	1	0	3	0
61	277	0	10000	3	1	0	3	0
59	278	0	10000	3	1	0	3	0
58	279	0	10000	3	1	0	3	0
56	280	0	10000	3	1	0	3	0
57	281	0	10000	3	1	0	3	0
58	281	0	10000	3	1	0	3	0
59	282	0	10000	3	1	0	3	0
57	284	0	10000	3	1	0	3	0
56	285	0	10000	3	1	0	3	0
55	286	0	10000	3	1	0	3	0
52	287	0	10000	3	1	0	3	0
52	288	0	10000	3	1	0	3	0
52	289	0	10000	3	1	0	3	0
51	290	0	10000	3	1	0	3	0
48	291	0	10000	3	1	0	3	0
46	291	0	10000	3	1	0	3	0
45	292	0	10000	3	1	0	3	0
44	294	0	10000	3	1	0	3	0
43	295	0	10000	3	1	0	3	0
44	296	0	10000	3	1	0	3	0
46	297	0	10000	3	1	0	3	0
45	298	0	10000	3	1	0	3	0
46	299	0	10000	3	1	0	3	0
44	300	0	10000	3	1	0	3	0
47	301	0	10000	3	1	0	3	0
46	301	0	10000	3	1	0	3	0
47	302	0	10000	3	1	0	3	0
48	304	0	10000	3	1	0	3	0
48	305	0	10000	3	1	0	3	0
50	306	0	10000	3	1	0	3	0
53	307	0	10000	3	1	0	3	0
54	308	0	10000	3	1	0	3	0
55	309	0	10000	3	1	0	3	0
53	310	0	10000	3	1	0	3	0
51	311	0	10000	3	1	0	3	0
51	311	0	10000	3	1	0	3	0
51	312	0	10000	3	1	0	3	0
50	314	0	10000	3	1	0	3	0
50	315	0	10000	3	1	0	3	0
52	316	0	10000	3	1	0	3	0
52	317	0	10000	3	1	0	3	0
52	318	0	10000	3	1	0	3	0
57	319	0	10000	3	1	0	3	0
58	320	0	10000	3	1	0	3	0
57	321	0	10000	3	1	0	3	0
55	321	0	10000	3	1	0	3	0
54	322	0	10000	3	1	0	3	0
55	324	0	10000	3	1	0	3	0
55	325	0	10000	3	1	0	3	0
54	326	0	10000	3	1	0	3	0
52	327	0	10000	3	1	0	3	0
50	328	0	10000	3	1	0	3	0
50	329	0	10000	3	1	0	3	0
49	330	0	10000	3	1	0	3	0
45	331	0	10000	3	1	0	3	0
46	331	0	10000	3	1	0	3	0
46	332	0	10000	3	1	0	3	0
45	334	0	10000	3	1	0	3	0
43	335	0	10000	3	1	0	3	0
42	336	0	10000	3	1	0	3	0
41	337	0	10000	3	1	0	3	0
41	338	0	10000	3	1	0	3	0
41	339	0	10000	3	1	0	3	0
41	340	0	10000	3	1	0	3	0
44	341	0	10000	3	1	0	3	0
46	341	0	10000	3	1	0	3	0
48	342	0	10000	3	1	0	3	0
48	344	0	10000	3	1	0	3	0
53	345	0	10000	3	1	0	3	0
63	346	0	10000	3	1	0	3	0
72	347	0	10000	3	1	0	3	0
78	348	0	10000	3	1	0	3	0
77	349	0	10000	3	1	0	3	0
80	350	0	10000	3	1	0	3	0
82	351	0	10000	3	1	0	3	0
85	351	0	10000	3	1	0	3	0
83	352	0	10000	3	1	0	3	0
81	354	0	10000	3	1	0	3	0
79	355	0	10000	3	1	0	3	0
77	356	0	10000	3	1	0	3	0
76	357	0	10000	3	1	0	3	0
74	358	0	10000	3	1	0	3	0
70	359	0	10000	3	1	0	3	0
71	360	0	10000	3	1	0	3	0
76	361	0	10000	3	1	0	3	0
73	361	0	10000	3	1	0	3	0
72	362	0	10000	3	1	0	3	0
72	364	0	10000	3	1	0	3	0
71	365	0	10000	3	1	0	3	0
73	366	0	10000	3	1	0	3	0
76	367	0	10000	3	1	0	3	0
74	368	0	10000	3	1	0	3	0
72	369	0	10000	3	1	0	3	0
69	370	0	10000	3	1	0	3	0
68	371	0	10000	3	1	0	3	0
69	371	0	10000	3	1	0	3	0
68	372	0	10000	3	1	0	3	0
70	374	0	10000	3	1	0	3	0
73	375	0	10000	3	1	0	3	0
77	376	0	10000	3	1	0	3	0
80	377	0	10000	3	1	0	3	0
79	378	0	10000	3	1	0	3	0
75	379	0	10000	3	1	0	3	0
75	380	0	10000	3	1	0	3	0
79	381	0	10000	3	1	0	3	0
81	381	0	10000	3	1	0	3	0
80	382	0	10000	3	1	0	3	0
77	384	0	10000	3	1	0	3	0
75	385	0	10000	3	1	0	3	0
73	386	0	10000	3	1	0	3	0
70	387	0	10000	3	1	0	3	0
69	388	0	10000	3	1	0	3	0
70	389	0	10000	3	1	0	3	0
68	390	0	10000	3	1	0	3	0
64	391	0	10000	3	1	0	3	0
63	391	0	10000	3	1	0	3	0
62	392	0	10000	3	1	0	3	0
61	394	0	10000	3	1	0	3	0
63	395	0	10000	3	1	0	3	0
67	396	0	10000	3	1	0	3	0
65	397	0	10000	3	1	0	3	0
64	398	0	10000	3	1	0	3	0
65	399	0	10000	3	1	0	3	0
69	400	0	10000	3	1	0	3	0
77	401	0	10000	3	1	0	3	0
80	401	0	10000	3	1	0	3	0
80	402	0	10000	3	1	0	3	0
80	404	0	10000	3	1	0	3	0
78	405	0	10000	3	1	0	3	0
76	406	0	10000	3	1	0	3	0
73	407	0	10000	3	1	0	3	0
71	408	0	10000	3	1	0	3	0
72	409	0	10000	3	1	0	3	0
77	410	0	10000	3	1	0	3	0
79	411	0	10000	3	1	0	3	0
81	411	0	10000	3	1	0	3	0
85	412	0	10000	3	1	0	3	0
88	414	0	10000	3	1	0	3	0
86	415	0	10000	3	1	0	3	0
83	416	0	10000	3	1	0	3	0
81	417	0	10000	3	1	0	3	0
81	418	0	10000	3	1	0	3	0
78	419	0	10000	3	1	0	3	0
78	420	0	10000	3	1	0	3	0
78	421	0	10000	3	1	0	3	0
76	421	0	10000	3	1	0	3	0
74	422	0	10000	3	1	0	3	0
76	424	0	10000	3	1	0	3	0
73	425	0	10000	3	1	0	3	0
75	426	0	10000	3	1	0	3	0
79	427	0	10000	3	1	0	3	0
80	428	0	10000	3	1	0	3	0
78	429	0	10000	3	1	0	3	0
75	430	0	10000	3	1	0	3	0
72	431	0	10000	3	1	0	3	0
74	431	0	10000	3	1	0	3	0
74	432	0	10000	3	1	0	3	0
70	434	0	10000	3	1	0	3	0
72	435	0	10000	3	1	0	3	0
79	436	0	10000	3	1	0	3	0
77	437	0	10000	3	1	0	3	0
77	438	0	10000	3	1	0	3	0
80	439	0	10000	3	1	0	3	0
83	440	0	10000	3	1	0	3	0
92	441	0	10000	3	1	0	3	0
97	441	0	10000	3	1	0	3	0
99	442	0	10000	3	1	0	3	0
98	444	0	10000	3	1	0	3	0
95	445	0	10000	3	1	0	3	0
93	446	0	10000	3	1	0	3	0
93	447	0	10000	3	1	0	3	0
92	448	0	10000	3	1	0	3	0
87	449	0	10000	3	1	0	3	0
85	450	0	10000	3	1	0	3	0
85	451	0	10000	3	1	0	3	0
92	451	0	10000	3	1	0	3	0
98	452	0	10000	3	1	0	3	0
96	454	0	10000	3	1	0	3	0
101	455	0	10000	3	1	0	3	0
111	456	0	10000	3	1	0	3	0
117	457	0	10000	3	1	0	3	0
117	458	0	10000	3	1	0	3	0
114	459	0	10000	3	1	0	3	0
116	460	0	10000	3	1	0	3	0
119	461	0	10000	3	1	0	3	0
120	461	0	10000	3	1	0	3	0
121	462	0	10000	3	1	0	3	0
121	464	0	10000	3	1	0	3	0
118	465	0	10000	3	1	0	3	0
123	466	0	10000	3	1	0	3	0
133	467	0	10000	3	1	0	3	0
140	468	0	10000	3	1	0	3	0
139	469	0	10000	3	1	0	3	0
135	470	0	10000	3	1	0	3	0
131	471	0	10000	3	1	0	3	0
127	471	0	10000	3	1	0	3	0
124	472	0	10000	3	1	0	3	0
120	474	0	10000	3	1	0	3	0
118	475	0	10000	3	1	0	3	0
118	476	0	10000	3	1	0	3	0
113	477	0	10000	3	1	0	3	0
113	478	0	10000	3	1	0	3	0
122	479	0	10000	3	1	0	3	0
130	480	0	10000	3	1	0	3	0
130	481	0	10000	3	1	0	3	0
130	481	0	10000	3	1	0	3	0
128	482	0	10000	3	1	0	3	0
124	484	0	10000	3	1	0	3	0
125	485	0	10000	3	1	0	3	0
120	486	0	10000	3	1	0	3	0
120	487	0	10000	3	1	0	3	0
117	488	0	10000	3	1	0	3	0
119	489	0	10000	3	1	0	3	0
120	490	0	10000	3	1	0	3	0
113	491	0	10000	3	1	0	3	0
108	491	0	10000	3	1	0	3	0
104	492	0	10000	3	1	0	3	0
102	494	0	10000	3	1	0	3	0
104	495	0	10000	3	1	0	3	0
108	496	0	10000	3	1	0	3	0
107	497	0	10000	3	1	0	3	0
104	498	0	10000	3	1	0	3	0
103	499	0	10000	3	1	0	3	0
104	500	0	10000	3	1	0	3	0
109	501	0	10000	3	1	0	3	0
107	502	0	10000	3	1	0	3	1
107	503	0	10000	3	1	0	3	1
103	504	0	10000	3	1	0	3	1
99	505	0	10000	3	1	0	3	1
98	506	0	10000	3	1	0	3	1
93	507	0	10000	3	1	0	3	1
94	508	0	10000	3	1	0	3	1
101	509	0	10000	3	1	0	3	1
105	510	0	10000	3	1	0	3	1
102	511	0	10000	3	1	0	3	1
102	511	0	10000	3	1	0	3	1
101	512	0	10000	3	1	0	3	1
105	514	0	10000	3	1	0	3	1
102	515	0	10000	3	1	0	3	1
102	516	0	10000	3	1	0	3	1
99	517	0	10000	3	1	0	3	1
96	518	0	10000	3	1	0	3	1
98	519	0	10000	3	1	0	3	1
102	520	0	10000	3	1	0	3	1
106	521	0	10000	3	1	0	3	1
104	521	0	10000	3	1	0	3	1
102	522	0	10000	3	1	0	3	1
104	524	0	10000	3	1	0	3	1
104	525	0	10000	3	1	0	3	1
103	526	0	10000	3	1	0	3	1
100	527	0	10000	3	1	0	3	1
97	528	0	10000	3	1	0	3	1
96	529	0	10000	3	1	0	3	1
96	530	0	10000	3	1	0	3	1
90	531	0	10000	3	1	0	3	1
89	531	0	10000	3	1	0	3	1
88	532	0	10000	3	1	0	3	1
91	534	0	10000	3	1	0	3	1
93	535	0	10000	3	1	0	3	1
93	536	0	10000	3	1	0	3	1
90	537	0	10000	3	1	0	3	1
87	538	0	10000	3	1	0	3	1
86	539	0	10000	3	1	0	3	1
86	540	0	10000	3	1	0	3	1
89	541	0	10000	3	1	0	3	1
88	541	0	10000	3	1	0	3	1
85	542	0	10000	3	1	0	3	1
82	544	0	10000	3	1	0	3	1
80	545	0	10000	3	1	0	3	1
78	546	0	10000	3	1	0	3	1
76	547	0	10000	3	1	0	3	1
74	548	0	10000	3	1	0	3	1
77	549	0	10000	3	1	0	3	1
83	550	0	10000	3	1	0	3	1
85	551	0	10000	3	1	0	3	1
83	551	0	10000	3	1	0	3	0
84	552	0	10000	3	1	0	3	0
83	554	0	10000	3	1	0	3	0
82	555	0	10000	3	1	0	3	0
80	556	0	10000	3	1	0	3	0
80	557	0	10000	3	1	0	3	0
83	558	0	10000	3	1	0	3	0
87	559	0	10000	3	1	0	3	0
87	560	0	10000	3	1	0	3	0
86	561	0	10000	3	1	0	3	0
83	561	0	10000	3	1	0	3	0
80	562	0	10000	3	1	0	3	0
79	564	0	10000	3	1	0	3	0
76	565	0	10000	3	1	0	3	0
78	566	0	10000	3	1	0	3	0
80	567	0	10000	3	1	0	3	0
80	568	0	10000	3	1	0	3	0
81	569	0	10000	3	1	0	3	0
84	570	0	10000	3	1	0	3	0
81	571	0	10000	3	1	0	3	0
79	571	0	10000	3	1	0	3	0
78	572	0	10000	3	1	0	3	0
76	574	0	10000	3	1	0	3	0
82	575	0	10000	3	1	0	3	0
93	576	0	10000	3	1	0	3	0
98	577	0	10000	3	1	0	3	0
98	578	0	10000	3	1	0	3	0
97	579	0	10000	3	1	0	3	0
104	580	0	10000	3	1	0	3	0
109	581	0	10000	3	1	0	3	0
111	581	0	10000	3	1	0	3	0
127	582	0	10000	3	1	0	3	0
164	584	0	10000	3	1	0	3	0
193	585	0	10000	3	1	0	3	0
193	586	0	10000	3	1	0	3	0
197	587	0	10000	3	1	0	3	0
214	588	0	10000	3	1	0	3	0
229	589	0	10000	3	1	0	3	0
229	590	0	10000	3	1	0	3	0
245	591	0	10000	3	1	0	3	0
276	591	0	10000	3	1	0	3	0
280	592	0	10000	3	1	0	3	0
294	594	0	10000	3	1	0	3	0
310	595	0	10000	3	1	0	3	0
348	596	0	10000	3	1	0	3	0
380	597	0	10000	3	1	0	3	0
371	598	0	10000	3	1	0	3	0
367	599	0	10000	3	1	0	3	0
381	600	0	10000	3	1	0	3	0
396	601	0	10000	3	1	0	3	0
383	601	0	10000	3	1	0	3	0
397	602	0	10000	3	1	0	3	0
408	604	0	10000	3	1	0	3	0
393	605	0	10000	3	1	0	3	0
382	606	0	10000	3	1	0	3	0
382	607	0	10000	3	1	0	3	0
371	608	0	10000	3	1	0	3	0
380	609	0	10000	3	1	0	3	0
378	610	0	10000	3	1	0	3	0
363	611	0	10000	3	1	0	3	0
368	611	0	10000	3	1	0	3	0
386	612	0	10000	3	1	0	3	0
404	614	0	10000	3	1	0	3	0
404	615	0	10000	3	1	0	3	0
444	616	0	10000	3	1	0	3	0
497	617	0	10000	3	1	0	3	0
494	618	0	10000	3	1	0	3	0
515	619	0	10000	3	1	0	3	0
540	620	0	10000	3	1	0	3	0
560	621	0	10000	3	1	0	3	0
563	621	0	10000	3	1	0	3	0
544	622	0	10000	3	1	0	3	0
520	624	0	10000	3	1	0	3	0
497	625	0	10000	3	1	0	3	0
473	626	0	10000	3	1	0	3	0
454	627	0	10000	3	1	0	3	0
440	628	0	10000	3	1	0	3	0
427	629	0	10000	3	1	0	3	0
418	630	0	10000	3	1	0	3	0
411	631	0	10000	3	1	0	3	0
403	631	0	10000	3	1	0	3	0
395	632	0	10000	3	1	0	3	0
387	634	0	10000	3	1	0	3	0
378	635	0	10000	3	1	0	3	0
367	636	0	10000	3	1	0	3	0
358	637	0	10000	3	1	0	3	0
348	638	0	10000	3	1	0	3	0
333	639	0	10000	3	1	0	3	0
320	640	0	10000	3	1	0	3	0
310	641	0	10000	3	1	0	3	0
302	641	0	10000	3	1	0	3	0
296	642	0	10000	3	1	0	3	0
287	644	0	10000	3	1	0	3	0
280	645	0	10000	3	1	0	3	0
269	646	0	10000	3	1	0	3	0
259	647	0	10000	3	1	0	3	0
249	648	0	10000	3	1	0	3	0
238	649	0	10000	3	1	0	3	0
230	650	0	10000	3	1	0	3	0
222	651	0	10000	3	1	0	3	0
214	651	0	10000	3	1	0	3	0
210	652	0	10000	3	1	0	3	0
202	654	0	10000	3	1	0	3	0
195	655	0	10000	3	1	0	3	0
191	656	0	10000	3	1	0	3	0
183	657	0	10000	3	1	0	3	0
175	658	0	10000	3	1	0	3	0
167	659	0	10000	3	1	0	3	0
159	660	0	10000	3	1	0	3	0
153	661	0	10000	3	1	0	3	0
147	661	0	10000	3	1	0	3	0
141	662	0	10000	3	1	0	3	0
139	664	0	10000	3	1	0	3	0
138	665	0	10000	3	1	0	3	0
137	666	0	10000	3	1	0	3	0
137	667	0	10000	3	1	0	3	0
135	668	0	10000	3	1	0	3	0
130	669	0	10000	3	1	0	3	0
125	670	0	10000	3	1	0	3	0
121	671	0	10000	3	1	0	3	0
118	671	0	10000	3	1	0	3	0
114	672	0	10000	3	1	0	3	0
115	674	0	10000	3	1	0	3	0
116	675	0	10000	3	1	0	3	0
115	676	0	10000	3	1	0	3	0
113	677	0	10000	3	1	0	3	0
110	678	0	10000	3	1	0	3	0
107	679	0	10000	3	1	0	3	0
106	680	0	10000	3	1	0	3	0
106	681	0	10000	3	1	0	3	0
104	681	0	10000	3	1	0	3	0
105	682	0	10000	3	1	0	3	0
106	684	0	10000	3	1	0	3	0
105	685	0	10000	3	1	0	3	0
104	686	0	10000	3	1	0	3	0
102	687	0	10000	3	1	0	3	0
101	688	0	10000	3	1	0	3	0
101	689	0	10000	3	1	0	3	0
99	690	0	10000	3	1	0	3	0
95	691	0	10000	3	1	0	3	0
92	691	0	10000	3	1	0	3	0
89	692	0	10000	3	1	0	3	0
87	694	0	10000	3	1	0	3	0
85	695	0	10000	3	1	0	3	0
84	696	0	10000	3	1	0	3	0
85	697	0	10000	3	1	0	3	0
82	698	0	10000	3	1	0	3	0
79	699	0	10000	3	1	0	3	0
79	700	0	10000	3	1	0	3	0
90	701	0	10000	3	1	0	3	0
100	701	0	10000	3	1	0	3	0
106	702	0	10000	3	1	0	3	0
105	704	0	10000	3	1	0	3	0
103	705	0	10000	3	1	0	3	0
102	706	0	10000	3	1	0	3	0
99	707	0	10000	3	1	0	3	0
96	708	0	10000	3	1	0	3	0
93	709	0	10000	3	1	0	3	0
89	710	0	10000	3	1	0	3	0
85	711	0	10000	3	1	0	3	0
85	711	0	10000	3	1	0	3	0
81	712	0	10000	3	1	0	3	0
79	714	0	10000	3	1	0	3	0
79	715	0	10000	3	1	0	3	0
81	716	0	10000	3	1	0	3	0
84	717	0	10000	3	1	0	3	0
81	718	0	10000	3	1	0	3	0
78	719	0	10000	3	1	0	3	0
77	720	0	10000	3	1	0	3	0
75	721	0	10000	3	1	0	3	0
77	721	0	10000	3	1	0	3	0
79	722	0	10000	3	1	0	3	0
80	724	0	10000	3	1	0	3	0
80	725	0	10000	3	1	0	3	0
82	726	0	10000	3	1	0	3	0
79	727	0	10000	3	1	0	3	0
78	728	0	10000	3	1	0	3	0
75	729	0	10000	3	1	0	3	0
73	730	0	10000	3	1	0	3	0
74	731	0	10000	3	1	0	3	0
77	731	0	10000	3	1	0	3	0
77	732	0	10000	3	1	0	3	0
74	734	0	10000	3	1	0	3	0
71	735	0	10000	3	1	0	3	0
69	736	0	10000	3	1	0	3	0
68	737	0	10000	3	1	0	3	0
66	738	0	10000	3	1	0	3	0
65	739	0	10000	3	1	0	3	0
63	740	0	10000	3	1	0	3	0
67	741	0	10000	3	1	0	3	0
68	741	0	10000	3	1	0	3	0
67	742	0	10000	3	1	0	3	0
65	744	0	10000	3	1	0	3	0
65	745	0	10000	3	1	0	3	0
67	746	0	10000	3	1	0	3	0
67	747	0	10000	3	1	0	3	0
69	748	0	10000	3	1	0	3	0
71	749	0	10000	3	1	0	3	0
72	750	0	10000	3	1	0	3	0
71	751	0	10000	3	1	0	3	0
76	751	0	10000	3	1	0	3	0
79	752	0	10000	3	1	0	3	0
76	754	0	10000	3	1	0	3	0
75	755	0	10000	3	1	0	3	0
77	756	0	10000	3	1	0	3	0
75	757	0	10000	3	1	0	3	0
74	758	0	10000	3	1	0	3	0
72	759	0	10000	3	1	0	3	0
72	760	0	10000	3	1	0	3	0
78	761	0	10000	3	1	0	3	0
77	761	0	10000	3	1	0	3	0
78	762	0	10000	3	1	0	3	0
83	764	0	10000	3	1	0	3	0
85	765	0	10000	3	1	0	3	0
83	766	0	10000	3	1	0	3	0
81	767	0	10000	3	1	0	3	0
84	768	0	10000	3	1	0	3	0
85	769	0	10000	3	1	0	3	0
82	770	0	10000	3	1	0	3	0
78	771	0	10000	3	1	0	3	0
78	771	0	10000	3	1	0	3	0
79	772	0	10000	3	1	0	3	0
77	774	0	10000	3	1	0	3	0
75	775	0	10000	3	1	0	3	0
72	776	0	10000	3	1	0	3	0
71	777	0	10000	3	1	0	3	0
68	778	0	10000	3	1	0	3	0
66	779	0	10000	3	1	0	3	0
63	780	0	10000	3	1	0	3	0
62	781	0	10000	3	1	0	3	0
60	781	0	10000	3	1	0	3	0
59	782	0	10000	3	1	0	3	0
57	784	0	10000	3	1	0	3	0
56	785	0	10000	3	1	0	3	0
55	786	0	10000	3	1	0	3	0
56	787	0	10000	3	1	0	3	0
57	788	0	10000	3	1	0	3	0
55	789	0	10000	3	1	0	3	0
55	790	0	10000	3	1	0	3	0
51	791	0	10000	3	1	0	3	0
51	791	0	10000	3	1	0	3	0
52	792	0	10000	3	1	0	3	0
56	794	0	10000	3	1	0	3	0
66	795	0	10000	3	1	0	3	0
78	796	0	10000	3	1	0	3	0
86	797	0	10000	3	1	0	3	0
85	798	0	10000	3	1	0	3	0
89	799	0	10000	3	1	0	3	0
92	800	0	10000	3	1	0	3	0
97	801	0	10000	3	1	0	3	0
100	801	0	10000	3	1	0	3	0
104	802	0	10000	3	1	0	3	0
104	804	0	10000	3	1	0	3	0
100	805	0	10000	3	1	0	3	0
98	806	0	10000	3	1	0	3	0
98	807	0	10000	3	1	0	3	0
98	808	0	10000	3	1	0	3	0
96	809	0	10000	3	1	0	3	0
96	810	0	10000	3	1	0	3	0
91	811	0	10000	3	1	0	3	0
88	811	0	10000	3	1	0	3	0
85	812	0	10000	3	1	0	3	0
82	814	0	10000	3	1	0	3	0
79	815	0	10000	3	1	0	3	0
76	816	0	10000	3	1	0	3	0
76	817	0	10000	3	1	0	3	0
72	818	0	10000	3	1	0	3	0
71	819	0	10000	3	1	0	3	0
80	820	0	10000	3	1	0	3	0
87	821	0	10000	3	1	0	3	0
86	821	0	10000	3	1	0	3	0
91	822	0	10000	3	1	0	3	0
96	824	0	10000	3	1	0	3	0
102	825	0	10000	3	1	0	3	0
104	826	0	10000	3	1	0	3	0
102	827	0	10000	3	1	0	3	0
98	828	0	10000	3	1	0	3	0
99	829	0	10000	3	1	0	3	0
97	830	0	10000	3	1	0	3	0
91	831	0	10000	3	1	0	3	0
87	831	0	10000	3	1	0	3	0
86	832	0	10000	3	1	0	3	0
85	834	0	10000	3	1	0	3	0
82	835	0	10000	3	1	0	3	0
84	836	0	10000	3	1	0	3	0
85	837	0	10000	3	1	0	3	0
83	838	0	10000	3	1	0	3	0
80	839	0	10000	3	1	0	3	0
78	840	0	10000	3	1	0	3	0
78	841	0	10000	3	1	0	3	0
77	841	0	10000	3	1	0	3	0
76	842	0	10000	3	1	0	3	0
76	844	0	10000	3	1	0	3	0
76	845	0	10000	3	1	0	3	0
78	846	0	10000	3	1	0	3	0
80	847	0	10000	3	1	0	3	0
79	848	0	10000	3	1	0	3	0
78	849	0	10000	3	1	0	3	0
76	850	0	10000	3	1	0	3	0
71	851	0	10000	3	1	0	3	0
70	851	0	10000	3	1	0	3	0
73	852	0	10000	3	1	0	3	0
75	854	0	10000	3	1	0	3	0
73	855	0	10000	3	1	0	3	0
73	856	0	10000	3	1	0	3	0
76	857	0	10000	3	1	0	3	0
79	858	0	10000	3	1	0	3	0
81	859	0	10000	3	1	0	3	0
78	860	0	10000	3	1	0	3	0
82	861	0	10000	3	1	0	3	0
83	861	0	10000	3	1	0	3	0
80	862	0	10000	3	1	0	3	0
77	864	0	10000	3	1	0	3	0
74	865	0	10000	3	1	0	3	0
72	866	0	10000	3	1	0	3	0
69	867	0	10000	3	1	0	3	0
71	868	0	10000	3	1	0	3	0
75	869	0	10000	3	1	0	3	0
73	870	0	10000	3	1	0	3	0
74	871	0	10000	3	1	0	3	0
75	871	0	10000	3	1	0	3	0
76	872	0	10000	3	1	0	3	0
80	874	0	10000	3	1	0	3	0
84	875	0	10000	3	1	0	3	0
81	876	0	10000	3	1	0	3	0
79	877	0	10000	3	1	0	3	0
82	878	0	10000	3	1	0	3	0
83	879	0	10000	3	1	0	3	0
82	880	0	10000	3	1	0	3	0
82	881	0	10000	3	1	0	3	0
79	881	0	10000	3	1	0	3	0
80	882	0	10000	3	1	0	3	0
80	884	0	10000	3	1	0	3	0
79	885	0	10000	3	1	0	3	0
79	886	0	10000	3	1	0	3	0
80	887	0	10000	3	1	0	3	0
80	888	0	10000	3	1	0	3	0
78	889	0	10000	3	1	0	3	0
78	890	0	10000	3	1	0	3	0
76	891	0	10000	3	1	0	3	0
73	891	0	10000	3	1	0	3	0
71	892	0	10000	3	1	0	3	0
74	894	0	10000	3	1	0	3	0
77	895	0	10000	3	1	0	3	0
75	896	0	10000	3	1	0	3	0
77	897	0	10000	3	1	0	3	0
75	898	0	10000	3	1	0	3	0
72	899	0	10000	3	1	0	3	0
69	900	0	10000	3	1	0	3	0
69	901	0	10000	3	1	0	3	0
70	901	0	10000	3	1	0	3	0
68	902	0	10000	3	1	0	3	0
73	904	0	10000	3	1	0	3	0
76	905	0	10000	3	1	0	3	0
75	906	0	10000	3	1	0	3	0
73	907	0	10000	3	1	0	3	0
71	908	0	10000	3	1	0	3	0
75	909	0	10000	3	1	0	3	0
83	910	0	10000	3	1	0	3	0
83	911	0	10000	3	1	0	3	0
80	911	0	10000	3	1	0	3	0
78	912	0	10000	3	1	0	3	0
78	914	0	10000	3	1	0	3	0
76	915	0	10000	3	1	0	3	0
75	916	0	10000	3	1	0	3	0
74	917	0	10000	3	1	0	3	0
70	918	0	10000	3	1	0	3	0
68	919	0	10000	3	1	0	3	0
65	920	0	10000	3	1	0	3	0
65	921	0	10000	3	1	0	3	0
64	921	0	10000	3	1	0	3	0
64	922	0	10000	3	1	0	3	0
69	924	0	10000	3	1	0	3	0
68	925	0	10000	3	1	0	3	0
67	926	0	10000	3	1	0	3	0
67	927	0	10000	3	1	0	3	0
65	928	0	10000	3	1	0	3	0
63	929	0	10000	3	1	0	3	0
62	930	0	10000	3	1	0	3	0
59	931	0	10000	3	1	0	3	0
62	931	0	10000	3	1	0	3	0
64	932	0	10000	3	1	0	3	0
62	934	0	10000	3	1	0	3	0
64	935	0	10000	3	1	0	3	0
68	936	0	10000	3	1	0	3	0
73	937	0	10000	3	1	0	3	0
74	938	0	10000	3	1	0	3	0
72	939	0	10000	3	1	0	3	0
72	940	0	10000	3	1	0	3	0
74	941	0	10000	3	1	0	3	0
75	941	0	10000	3	1	0	3	0
75	942	0	10000	3	1	0	3	0
72	944	0	10000	3	1	0	3	0
69	945	0	10000	3	1	0	3	0
68	946	0	10000	3	1	0	3	0
66	947	0	10000	3	1	0	3	0
65	948	0	10000	3	1	0	3	0
68	949	0	10000	3	1	0	3	0
71	950	0	10000	3	1	0	3	0
68	951	0	10000	3	1	0	3	0
73	951	0	10000	3	1	0	3	0
81	952	0	10000	3	1	0	3	0
85	954	0	10000	3	1	0	3	0
84	955	0	10000	3	1	0	3	0
83	956	0	10000	3	1	0	3	0
86	957	0	10000	3	1	0	3	0
84	958	0	10000	3	1	0	3	0
80	959	0	10000	3	1	0	3	0
79	960	0	10000	3	1	0	3	0
80	961	0	10000	3	1	0	3	0
80	961	0	10000	3	1	0	3	0
82	962	0	10000	3	1	0	3	0
80	964	0	10000	3	1	0	3	0
78	965	0	10000	3	1	0	3	0
78	966	0	10000	3	1	0	3	0
80	967	0	10000	3	1	0	3	0
83	968	0	10000	3	1	0	3	0
87	969	0	10000	3	1	0	3	0
85	970	0	10000	3	1	0	3	0
87	971	0	10000	3	1	0	3	0
93	971	0	10000	3	1	0	3	0
98	972	0	10000	3	1	0	3	0
95	974	0	10000	3	1	0	3	0
95	975	0	10000	3	1	0	3	0
94	976	0	10000	3	1	0	3	0
91	977	0	10000	3	1	0	3	0
88	978	0	10000	3	1	0	3	0
85	979	0	10000	3	1	0	3	0
81	980	0	10000	3	1	0	3	0
81	981	0	10000	3	1	0	3	0
81	981	0	10000	3	1	0	3	0
81	982	0	10000	3	1	0	3	0
79	984	0	10000	3	1	0	3	0
80	985	0	10000	3	1	0	3	0
78	986	0	10000	3	1	0	3	0
77	987	0	10000	3	1	0	3	0
75	988	0	10000	3	1	0	3	0
72	989	0	10000	3	1	0	3	0
72	990	0	10000	3	1	0	3	0
70	991	0	10000	3	1	0	3	0
70	991	0	10000	3	1	0	3	0
70	992	0	10000	3	1	0	3	0
70	994	0	10000	3	1	0	3	0
72	995	0	10000	3	1	0	3	0
71	996	0	10000	3	1	0	3	0
72	997	0	10000	3	1	0	3	0
70	998	0	10000	3	1	0	3	0
67	999	0	10000	3	1	0	3	0
66	1000	0	10000	3	1	0	3	0
66	1001	0	10000	3	1	0	3	0
114	2	10	10000	4	1	0	4	0
112	3	10	10000	4	1	0	4	0
107	4	10	10000	4	1	0	4	0
105	5	10	10000	4	1	0	4	0
101	6	10	10000	4	1	0	4	0
101	7	10	10000	4	1	0	4	0
102	8	10	10000	4	1	0	4	0
103	9	10	10000	4	1	0	4	0
101	10	10	10000	4	1	0	4	0
100	11	10	10000	4	1	0	4	0
96	12	10	10000	4	1	0	4	0
92	13	10	10000	4	1	0	4	0
88	14	10	10000	4	1	0	4	0
86	15	10	10000	4	1	0	4	0
82	16	10	10000	4	1	0	4	0
78	17	10	10000	4	1	0	4	0
77	18	10	10000	4	1	0	4	0
74	19	10	10000	4	1	0	4	0
71	20	10	10000	4	1	0	4	0
68	21	10	10000	4	1	0	4	0
68	22	10	10000	4	1	0	4	0
68	23	10	10000	4	1	0	4	0
69	24	10	10000	4	1	0	4	0
69	25	10	10000	4	1	0	4	0
69	26	10	10000	4	1	0	4	0
70	27	10	10000	4	1	0	4	0
70	28	10	10000	4	1	0	4	0
69	29	10	10000	4	1	0	4	0
68	30	10	10000	4	1	0	4	0
66	31	10	10000	4	1	0	4	0
65	32	10	10000	4	1	0	4	0
66	33	10	10000	4	1	0	4	0
65	34	10	10000	4	1	0	4	0
63	35	10	10000	4	1	0	4	0
63	36	10	10000	4	1	0	4	0
60	37	10	10000	4	1	0	4	0
59	38	10	10000	4	1	0	4	0
58	39	10	10000	4	1	0	4	0
58	40	10	10000	4	1	0	4	0
61	41	10	10000	4	1	0	4	0
61	42	10	10000	4	1	0	4	0
60	43	10	10000	4	1	0	4	0
59	44	10	10000	4	1	0	4	0
60	45	10	10000	4	1	0	4	0
58	46	10	10000	4	1	0	4	0
60	47	10	10000	4	1	0	4	0
64	48	10	10000	4	1	0	4	0
64	49	10	10000	4	1	0	4	0
64	50	10	10000	4	1	0	4	0
65	51	10	10000	4	1	0	4	0
63	52	10	10000	4	1	0	4	0
62	53	10	10000	4	1	0	4	0
61	54	10	10000	4	1	0	4	0
62	55	10	10000	4	1	0	4	0
61	56	10	10000	4	1	0	4	0
60	57	10	10000	4	1	0	4	0
58	58	10	10000	4	1	0	4	0
56	59	10	10000	4	1	0	4	0
55	60	10	10000	4	1	0	4	0
53	61	10	10000	4	1	0	4	0
52	62	10	10000	4	1	0	4	0
53	63	10	10000	4	1	0	4	0
51	64	10	10000	4	1	0	4	0
51	65	10	10000	4	1	0	4	0
54	66	10	10000	4	1	0	4	0
56	67	10	10000	4	1	0	4	0
59	68	10	10000	4	1	0	4	0
61	69	10	10000	4	1	0	4	0
60	70	10	10000	4	1	0	4	0
58	71	10	10000	4	1	0	4	0
55	72	10	10000	4	1	0	4	0
57	73	10	10000	4	1	0	4	0
59	74	10	10000	4	1	0	4	0
58	75	10	10000	4	1	0	4	0
57	76	10	10000	4	1	0	4	0
56	77	10	10000	4	1	0	4	0
55	78	10	10000	4	1	0	4	0
53	79	10	10000	4	1	0	4	0
51	80	10	10000	4	1	0	4	0
49	81	10	10000	4	1	0	4	0
49	82	10	10000	4	1	0	4	0
50	83	10	10000	4	1	0	4	0
48	84	10	10000	4	1	0	4	0
48	85	10	10000	4	1	0	4	0
47	86	10	10000	4	1	0	4	0
47	87	10	10000	4	1	0	4	0
46	88	10	10000	4	1	0	4	0
49	89	10	10000	4	1	0	4	0
51	90	10	10000	4	1	0	4	0
50	91	10	10000	4	1	0	4	0
47	92	10	10000	4	1	0	4	0
46	93	10	10000	4	1	0	4	0
46	94	10	10000	4	1	0	4	0
47	95	10	10000	4	1	0	4	0
45	96	10	10000	4	1	0	4	0
44	97	10	10000	4	1	0	4	0
45	98	10	10000	4	1	0	4	0
43	99	10	10000	4	1	0	4	0
42	100	10	10000	4	1	0	4	0
45	101	10	10000	4	1	0	4	0
50	102	10	10000	4	1	0	4	0
53	103	10	10000	4	1	0	4	0
53	104	10	10000	4	1	0	4	0
52	105	10	10000	4	1	0	4	0
51	106	10	10000	4	1	0	4	0
49	107	10	10000	4	1	0	4	0
48	108	10	10000	4	1	0	4	0
47	109	10	10000	4	1	0	4	0
47	110	10	10000	4	1	0	4	0
51	111	10	10000	4	1	0	4	0
53	112	10	10000	4	1	0	4	0
54	113	10	10000	4	1	0	4	0
55	114	10	10000	4	1	0	4	0
55	115	10	10000	4	1	0	4	0
54	116	10	10000	4	1	0	4	0
53	117	10	10000	4	1	0	4	0
53	118	10	10000	4	1	0	4	0
51	119	10	10000	4	1	0	4	0
49	120	10	10000	4	1	0	4	0
48	121	10	10000	4	1	0	4	0
51	122	10	10000	4	1	0	4	0
49	123	10	10000	4	1	0	4	0
48	124	10	10000	4	1	0	4	0
46	125	10	10000	4	1	0	4	0
46	126	10	10000	4	1	0	4	0
48	127	10	10000	4	1	0	4	0
49	128	10	10000	4	1	0	4	0
47	129	10	10000	4	1	0	4	0
46	130	10	10000	4	1	0	4	0
45	131	10	10000	4	1	0	4	0
43	132	10	10000	4	1	0	4	0
45	133	10	10000	4	1	0	4	0
47	134	10	10000	4	1	0	4	0
45	135	10	10000	4	1	0	4	0
44	136	10	10000	4	1	0	4	0
42	137	10	10000	4	1	0	4	0
40	138	10	10000	4	1	0	4	0
41	139	10	10000	4	1	0	4	0
39	140	10	10000	4	1	0	4	0
37	141	10	10000	4	1	0	4	0
39	142	10	10000	4	1	0	4	0
40	143	10	10000	4	1	0	4	0
38	144	10	10000	4	1	0	4	0
37	145	10	10000	4	1	0	4	0
36	146	10	10000	4	1	0	4	0
40	147	10	10000	4	1	0	4	0
43	148	10	10000	4	1	0	4	0
43	149	10	10000	4	1	0	4	0
44	150	10	10000	4	1	0	4	0
44	151	10	10000	4	1	0	4	0
45	152	10	10000	4	1	0	4	0
49	153	10	10000	4	1	0	4	0
51	154	10	10000	4	1	0	4	0
50	155	10	10000	4	1	0	4	0
51	156	10	10000	4	1	0	4	0
51	157	10	10000	4	1	0	4	0
51	158	10	10000	4	1	0	4	0
49	159	10	10000	4	1	0	4	0
51	160	10	10000	4	1	0	4	0
49	161	10	10000	4	1	0	4	0
50	162	10	10000	4	1	0	4	0
50	163	10	10000	4	1	0	4	0
48	164	10	10000	4	1	0	4	0
49	165	10	10000	4	1	0	4	0
51	166	10	10000	4	1	0	4	0
50	167	10	10000	4	1	0	4	0
52	168	10	10000	4	1	0	4	0
52	169	10	10000	4	1	0	4	0
51	170	10	10000	4	1	0	4	0
49	171	10	10000	4	1	0	4	0
46	172	10	10000	4	1	0	4	0
46	173	10	10000	4	1	0	4	0
46	174	10	10000	4	1	0	4	0
47	175	10	10000	4	1	0	4	0
48	176	10	10000	4	1	0	4	0
46	177	10	10000	4	1	0	4	0
44	178	10	10000	4	1	0	4	0
43	179	10	10000	4	1	0	4	0
42	180	10	10000	4	1	0	4	0
43	181	10	10000	4	1	0	4	0
44	182	10	10000	4	1	0	4	0
43	183	10	10000	4	1	0	4	0
45	184	10	10000	4	1	0	4	0
44	185	10	10000	4	1	0	4	0
43	186	10	10000	4	1	0	4	0
42	187	10	10000	4	1	0	4	0
42	188	10	10000	4	1	0	4	0
42	189	10	10000	4	1	0	4	0
41	190	10	10000	4	1	0	4	0
44	191	10	10000	4	1	0	4	0
41	192	10	10000	4	1	0	4	0
42	193	10	10000	4	1	0	4	0
42	194	10	10000	4	1	0	4	0
42	195	10	10000	4	1	0	4	0
42	196	10	10000	4	1	0	4	0
41	197	10	10000	4	1	0	4	0
40	198	10	10000	4	1	0	4	0
39	199	10	10000	4	1	0	4	0
38	200	10	10000	4	1	0	4	0
39	201	10	10000	4	1	0	4	0
40	202	10	10000	4	1	0	4	0
39	203	10	10000	4	1	0	4	0
39	204	10	10000	4	1	0	4	0
38	205	10	10000	4	1	0	4	0
40	206	10	10000	4	1	0	4	0
41	207	10	10000	4	1	0	4	0
39	208	10	10000	4	1	0	4	0
38	209	10	10000	4	1	0	4	0
38	210	10	10000	4	1	0	4	0
37	211	10	10000	4	1	0	4	0
35	212	10	10000	4	1	0	4	0
34	213	10	10000	4	1	0	4	0
33	214	10	10000	4	1	0	4	0
33	215	10	10000	4	1	0	4	0
32	216	10	10000	4	1	0	4	0
31	217	10	10000	4	1	0	4	0
32	218	10	10000	4	1	0	4	0
32	219	10	10000	4	1	0	4	0
31	220	10	10000	4	1	0	4	0
30	221	10	10000	4	1	0	4	0
34	222	10	10000	4	1	0	4	0
33	223	10	10000	4	1	0	4	0
32	224	10	10000	4	1	0	4	0
31	225	10	10000	4	1	0	4	0
32	226	10	10000	4	1	0	4	0
34	227	10	10000	4	1	0	4	0
35	228	10	10000	4	1	0	4	0
35	229	10	10000	4	1	0	4	0
35	230	10	10000	4	1	0	4	0
35	231	10	10000	4	1	0	4	0
34	232	10	10000	4	1	0	4	0
33	233	10	10000	4	1	0	4	0
32	234	10	10000	4	1	0	4	0
32	235	10	10000	4	1	0	4	0
32	236	10	10000	4	1	0	4	0
30	237	10	10000	4	1	0	4	0
30	238	10	10000	4	1	0	4	0
31	239	10	10000	4	1	0	4	0
31	240	10	10000	4	1	0	4	0
30	241	10	10000	4	1	0	4	0
32	242	10	10000	4	1	0	4	0
33	243	10	10000	4	1	0	4	0
32	244	10	10000	4	1	0	4	0
32	245	10	10000	4	1	0	4	0
31	246	10	10000	4	1	0	4	0
32	247	10	10000	4	1	0	4	0
33	248	10	10000	4	1	0	4	0
34	249	10	10000	4	1	0	4	0
34	250	10	10000	4	1	0	4	0
33	251	10	10000	4	1	0	4	0
31	252	10	10000	4	1	0	4	0
33	253	10	10000	4	1	0	4	0
34	254	10	10000	4	1	0	4	0
34	255	10	10000	4	1	0	4	0
35	256	10	10000	4	1	0	4	0
35	257	10	10000	4	1	0	4	0
36	258	10	10000	4	1	0	4	0
37	259	10	10000	4	1	0	4	0
36	260	10	10000	4	1	0	4	0
36	261	10	10000	4	1	0	4	0
36	262	10	10000	4	1	0	4	0
37	263	10	10000	4	1	0	4	0
38	264	10	10000	4	1	0	4	0
36	265	10	10000	4	1	0	4	0
36	266	10	10000	4	1	0	4	0
34	267	10	10000	4	1	0	4	0
36	268	10	10000	4	1	0	4	0
39	269	10	10000	4	1	0	4	0
39	270	10	10000	4	1	0	4	0
39	271	10	10000	4	1	0	4	0
35	272	10	10000	4	1	0	4	0
35	273	10	10000	4	1	0	4	0
38	274	10	10000	4	1	0	4	0
37	275	10	10000	4	1	0	4	0
36	276	10	10000	4	1	0	4	0
36	277	10	10000	4	1	0	4	0
35	278	10	10000	4	1	0	4	0
35	279	10	10000	4	1	0	4	0
36	280	10	10000	4	1	0	4	0
34	281	10	10000	4	1	0	4	0
35	282	10	10000	4	1	0	4	0
36	283	10	10000	4	1	0	4	0
37	284	10	10000	4	1	0	4	0
36	285	10	10000	4	1	0	4	0
35	286	10	10000	4	1	0	4	0
36	287	10	10000	4	1	0	4	0
35	288	10	10000	4	1	0	4	0
35	289	10	10000	4	1	0	4	0
34	290	10	10000	4	1	0	4	0
35	291	10	10000	4	1	0	4	0
33	292	10	10000	4	1	0	4	0
32	293	10	10000	4	1	0	4	0
32	294	10	10000	4	1	0	4	0
32	295	10	10000	4	1	0	4	0
32	296	10	10000	4	1	0	4	0
32	297	10	10000	4	1	0	4	0
34	298	10	10000	4	1	0	4	0
33	299	10	10000	4	1	0	4	0
31	300	10	10000	4	1	0	4	0
32	301	10	10000	4	1	0	4	0
35	302	10	10000	4	1	0	4	0
35	303	10	10000	4	1	0	4	0
34	304	10	10000	4	1	0	4	0
33	305	10	10000	4	1	0	4	0
35	306	10	10000	4	1	0	4	0
38	307	10	10000	4	1	0	4	0
37	308	10	10000	4	1	0	4	0
36	309	10	10000	4	1	0	4	0
36	310	10	10000	4	1	0	4	0
35	311	10	10000	4	1	0	4	0
35	312	10	10000	4	1	0	4	0
35	313	10	10000	4	1	0	4	0
34	314	10	10000	4	1	0	4	0
33	315	10	10000	4	1	0	4	0
34	316	10	10000	4	1	0	4	0
34	317	10	10000	4	1	0	4	0
34	318	10	10000	4	1	0	4	0
34	319	10	10000	4	1	0	4	0
33	320	10	10000	4	1	0	4	0
31	321	10	10000	4	1	0	4	0
34	322	10	10000	4	1	0	4	0
33	323	10	10000	4	1	0	4	0
33	324	10	10000	4	1	0	4	0
33	325	10	10000	4	1	0	4	0
33	326	10	10000	4	1	0	4	0
36	327	10	10000	4	1	0	4	0
38	328	10	10000	4	1	0	4	0
40	329	10	10000	4	1	0	4	0
44	330	10	10000	4	1	0	4	0
46	331	10	10000	4	1	0	4	0
45	332	10	10000	4	1	0	4	0
48	333	10	10000	4	1	0	4	0
49	334	10	10000	4	1	0	4	0
50	335	10	10000	4	1	0	4	0
52	336	10	10000	4	1	0	4	0
51	337	10	10000	4	1	0	4	0
51	338	10	10000	4	1	0	4	0
52	339	10	10000	4	1	0	4	0
51	340	10	10000	4	1	0	4	0
51	341	10	10000	4	1	0	4	0
51	342	10	10000	4	1	0	4	0
50	343	10	10000	4	1	0	4	0
48	344	10	10000	4	1	0	4	0
46	345	10	10000	4	1	0	4	0
44	346	10	10000	4	1	0	4	0
44	347	10	10000	4	1	0	4	0
46	348	10	10000	4	1	0	4	0
48	349	10	10000	4	1	0	4	0
47	350	10	10000	4	1	0	4	0
45	351	10	10000	4	1	0	4	0
42	352	10	10000	4	1	0	4	0
41	353	10	10000	4	1	0	4	0
41	354	10	10000	4	1	0	4	0
44	355	10	10000	4	1	0	4	0
46	356	10	10000	4	1	0	4	0
44	357	10	10000	4	1	0	4	0
44	358	10	10000	4	1	0	4	0
44	359	10	10000	4	1	0	4	0
43	360	10	10000	4	1	0	4	0
42	361	10	10000	4	1	0	4	0
44	362	10	10000	4	1	0	4	0
44	363	10	10000	4	1	0	4	0
45	364	10	10000	4	1	0	4	0
44	365	10	10000	4	1	0	4	0
46	366	10	10000	4	1	0	4	0
46	367	10	10000	4	1	0	4	0
47	368	10	10000	4	1	0	4	0
46	369	10	10000	4	1	0	4	0
45	370	10	10000	4	1	0	4	0
47	371	10	10000	4	1	0	4	0
43	372	10	10000	4	1	0	4	0
41	373	10	10000	4	1	0	4	0
41	374	10	10000	4	1	0	4	0
41	375	10	10000	4	1	0	4	0
43	376	10	10000	4	1	0	4	0
44	377	10	10000	4	1	0	4	0
43	378	10	10000	4	1	0	4	0
42	379	10	10000	4	1	0	4	0
41	380	10	10000	4	1	0	4	0
43	381	10	10000	4	1	0	4	0
45	382	10	10000	4	1	0	4	0
47	383	10	10000	4	1	0	4	0
46	384	10	10000	4	1	0	4	0
47	385	10	10000	4	1	0	4	0
46	386	10	10000	4	1	0	4	0
46	387	10	10000	4	1	0	4	0
45	388	10	10000	4	1	0	4	0
44	389	10	10000	4	1	0	4	0
43	390	10	10000	4	1	0	4	0
46	391	10	10000	4	1	0	4	0
47	392	10	10000	4	1	0	4	0
48	393	10	10000	4	1	0	4	0
48	394	10	10000	4	1	0	4	0
48	395	10	10000	4	1	0	4	0
51	396	10	10000	4	1	0	4	0
55	397	10	10000	4	1	0	4	0
57	398	10	10000	4	1	0	4	0
56	399	10	10000	4	1	0	4	0
56	400	10	10000	4	1	0	4	0
55	401	10	10000	4	1	0	4	0
59	402	10	10000	4	1	0	4	0
59	403	10	10000	4	1	0	4	0
58	404	10	10000	4	1	0	4	0
59	405	10	10000	4	1	0	4	0
58	406	10	10000	4	1	0	4	0
57	407	10	10000	4	1	0	4	0
55	408	10	10000	4	1	0	4	0
54	409	10	10000	4	1	0	4	0
53	410	10	10000	4	1	0	4	0
52	411	10	10000	4	1	0	4	0
53	412	10	10000	4	1	0	4	0
55	413	10	10000	4	1	0	4	0
55	414	10	10000	4	1	0	4	0
53	415	10	10000	4	1	0	4	0
52	416	10	10000	4	1	0	4	0
52	417	10	10000	4	1	0	4	0
50	418	10	10000	4	1	0	4	0
48	419	10	10000	4	1	0	4	0
48	420	10	10000	4	1	0	4	0
48	421	10	10000	4	1	0	4	0
48	422	10	10000	4	1	0	4	0
49	423	10	10000	4	1	0	4	0
47	424	10	10000	4	1	0	4	0
44	425	10	10000	4	1	0	4	0
43	426	10	10000	4	1	0	4	0
45	427	10	10000	4	1	0	4	0
46	428	10	10000	4	1	0	4	0
46	429	10	10000	4	1	0	4	0
45	430	10	10000	4	1	0	4	0
44	431	10	10000	4	1	0	4	0
42	432	10	10000	4	1	0	4	0
44	433	10	10000	4	1	0	4	0
43	434	10	10000	4	1	0	4	0
43	435	10	10000	4	1	0	4	0
42	436	10	10000	4	1	0	4	0
42	437	10	10000	4	1	0	4	0
41	438	10	10000	4	1	0	4	0
40	439	10	10000	4	1	0	4	0
38	440	10	10000	4	1	0	4	0
37	441	10	10000	4	1	0	4	0
37	442	10	10000	4	1	0	4	0
37	443	10	10000	4	1	0	4	0
37	444	10	10000	4	1	0	4	0
36	445	10	10000	4	1	0	4	0
37	446	10	10000	4	1	0	4	0
37	447	10	10000	4	1	0	4	0
40	448	10	10000	4	1	0	4	0
41	449	10	10000	4	1	0	4	0
43	450	10	10000	4	1	0	4	0
41	451	10	10000	4	1	0	4	0
39	452	10	10000	4	1	0	4	0
39	453	10	10000	4	1	0	4	0
42	454	10	10000	4	1	0	4	0
41	455	10	10000	4	1	0	4	0
39	456	10	10000	4	1	0	4	0
39	457	10	10000	4	1	0	4	0
38	458	10	10000	4	1	0	4	0
38	459	10	10000	4	1	0	4	0
38	460	10	10000	4	1	0	4	0
37	461	10	10000	4	1	0	4	0
38	462	10	10000	4	1	0	4	0
39	463	10	10000	4	1	0	4	0
38	464	10	10000	4	1	0	4	0
36	465	10	10000	4	1	0	4	0
35	466	10	10000	4	1	0	4	0
33	467	10	10000	4	1	0	4	0
32	468	10	10000	4	1	0	4	0
32	469	10	10000	4	1	0	4	0
34	470	10	10000	4	1	0	4	0
37	471	10	10000	4	1	0	4	0
35	472	10	10000	4	1	0	4	0
34	473	10	10000	4	1	0	4	0
33	474	10	10000	4	1	0	4	0
32	475	10	10000	4	1	0	4	0
31	476	10	10000	4	1	0	4	0
31	477	10	10000	4	1	0	4	0
32	478	10	10000	4	1	0	4	0
32	479	10	10000	4	1	0	4	0
31	480	10	10000	4	1	0	4	0
31	481	10	10000	4	1	0	4	0
33	482	10	10000	4	1	0	4	0
33	483	10	10000	4	1	0	4	0
32	484	10	10000	4	1	0	4	0
32	485	10	10000	4	1	0	4	0
32	486	10	10000	4	1	0	4	0
33	487	10	10000	4	1	0	4	0
34	488	10	10000	4	1	0	4	0
35	489	10	10000	4	1	0	4	0
34	490	10	10000	4	1	0	4	0
33	491	10	10000	4	1	0	4	0
31	492	10	10000	4	1	0	4	0
30	493	10	10000	4	1	0	4	0
29	494	10	10000	4	1	0	4	0
29	495	10	10000	4	1	0	4	0
32	496	10	10000	4	1	0	4	0
32	497	10	10000	4	1	0	4	0
31	498	10	10000	4	1	0	4	0
31	499	10	10000	4	1	0	4	0
30	500	10	10000	4	1	0	4	0
30	501	10	10000	4	1	0	4	0
34	501	10	10000	4	1	0	4	1
33	502	10	10000	4	1	0	4	1
31	504	10	10000	4	1	0	4	1
33	505	10	10000	4	1	0	4	1
32	506	10	10000	4	1	0	4	1
34	507	10	10000	4	1	0	4	1
36	508	10	10000	4	1	0	4	1
34	509	10	10000	4	1	0	4	1
35	510	10	10000	4	1	0	4	1
36	511	10	10000	4	1	0	4	1
34	512	10	10000	4	1	0	4	1
34	513	10	10000	4	1	0	4	1
35	514	10	10000	4	1	0	4	1
34	515	10	10000	4	1	0	4	1
34	516	10	10000	4	1	0	4	1
34	517	10	10000	4	1	0	4	1
35	518	10	10000	4	1	0	4	1
34	519	10	10000	4	1	0	4	1
34	520	10	10000	4	1	0	4	1
32	521	10	10000	4	1	0	4	1
35	522	10	10000	4	1	0	4	1
36	523	10	10000	4	1	0	4	1
34	524	10	10000	4	1	0	4	1
32	525	10	10000	4	1	0	4	1
32	526	10	10000	4	1	0	4	1
33	527	10	10000	4	1	0	4	1
34	528	10	10000	4	1	0	4	1
34	529	10	10000	4	1	0	4	1
34	530	10	10000	4	1	0	4	1
34	531	10	10000	4	1	0	4	1
34	532	10	10000	4	1	0	4	1
34	533	10	10000	4	1	0	4	1
34	534	10	10000	4	1	0	4	1
33	535	10	10000	4	1	0	4	1
35	536	10	10000	4	1	0	4	1
35	537	10	10000	4	1	0	4	1
34	538	10	10000	4	1	0	4	1
34	539	10	10000	4	1	0	4	1
35	540	10	10000	4	1	0	4	1
36	541	10	10000	4	1	0	4	1
38	542	10	10000	4	1	0	4	1
39	543	10	10000	4	1	0	4	1
37	544	10	10000	4	1	0	4	1
36	545	10	10000	4	1	0	4	1
36	546	10	10000	4	1	0	4	1
35	547	10	10000	4	1	0	4	1
34	548	10	10000	4	1	0	4	1
33	549	10	10000	4	1	0	4	1
34	550	10	10000	4	1	0	4	1
34	551	10	10000	4	1	0	4	1
32	552	10	10000	4	1	0	4	0
31	553	10	10000	4	1	0	4	0
32	554	10	10000	4	1	0	4	0
34	555	10	10000	4	1	0	4	0
37	556	10	10000	4	1	0	4	0
36	557	10	10000	4	1	0	4	0
38	558	10	10000	4	1	0	4	0
42	559	10	10000	4	1	0	4	0
42	560	10	10000	4	1	0	4	0
40	561	10	10000	4	1	0	4	0
40	562	10	10000	4	1	0	4	0
40	563	10	10000	4	1	0	4	0
39	564	10	10000	4	1	0	4	0
38	565	10	10000	4	1	0	4	0
38	566	10	10000	4	1	0	4	0
37	567	10	10000	4	1	0	4	0
36	568	10	10000	4	1	0	4	0
38	569	10	10000	4	1	0	4	0
38	570	10	10000	4	1	0	4	0
38	571	10	10000	4	1	0	4	0
36	572	10	10000	4	1	0	4	0
36	573	10	10000	4	1	0	4	0
43	574	10	10000	4	1	0	4	0
52	575	10	10000	4	1	0	4	0
61	576	10	10000	4	1	0	4	0
70	577	10	10000	4	1	0	4	0
73	578	10	10000	4	1	0	4	0
71	579	10	10000	4	1	0	4	0
70	580	10	10000	4	1	0	4	0
88	581	10	10000	4	1	0	4	0
124	582	10	10000	4	1	0	4	0
141	583	10	10000	4	1	0	4	0
146	584	10	10000	4	1	0	4	0
165	585	10	10000	4	1	0	4	0
165	586	10	10000	4	1	0	4	0
163	587	10	10000	4	1	0	4	0
161	588	10	10000	4	1	0	4	0
161	589	10	10000	4	1	0	4	0
167	590	10	10000	4	1	0	4	0
184	591	10	10000	4	1	0	4	0
180	592	10	10000	4	1	0	4	0
199	593	10	10000	4	1	0	4	0
228	594	10	10000	4	1	0	4	0
238	595	10	10000	4	1	0	4	0
232	596	10	10000	4	1	0	4	0
225	597	10	10000	4	1	0	4	0
224	598	10	10000	4	1	0	4	0
225	599	10	10000	4	1	0	4	0
222	600	10	10000	4	1	0	4	0
218	601	10	10000	4	1	0	4	0
213	602	10	10000	4	1	0	4	0
209	603	10	10000	4	1	0	4	0
200	604	10	10000	4	1	0	4	0
195	605	10	10000	4	1	0	4	0
201	606	10	10000	4	1	0	4	0
209	607	10	10000	4	1	0	4	0
211	608	10	10000	4	1	0	4	0
231	609	10	10000	4	1	0	4	0
300	610	10	10000	4	1	0	4	0
356	611	10	10000	4	1	0	4	0
360	612	10	10000	4	1	0	4	0
411	613	10	10000	4	1	0	4	0
460	614	10	10000	4	1	0	4	0
494	615	10	10000	4	1	0	4	0
517	616	10	10000	4	1	0	4	0
530	617	10	10000	4	1	0	4	0
530	618	10	10000	4	1	0	4	0
519	619	10	10000	4	1	0	4	0
500	620	10	10000	4	1	0	4	0
484	621	10	10000	4	1	0	4	0
481	622	10	10000	4	1	0	4	0
481	623	10	10000	4	1	0	4	0
479	624	10	10000	4	1	0	4	0
471	625	10	10000	4	1	0	4	0
459	626	10	10000	4	1	0	4	0
444	627	10	10000	4	1	0	4	0
428	628	10	10000	4	1	0	4	0
416	629	10	10000	4	1	0	4	0
410	630	10	10000	4	1	0	4	0
408	631	10	10000	4	1	0	4	0
407	632	10	10000	4	1	0	4	0
406	633	10	10000	4	1	0	4	0
399	634	10	10000	4	1	0	4	0
390	635	10	10000	4	1	0	4	0
382	636	10	10000	4	1	0	4	0
368	637	10	10000	4	1	0	4	0
352	638	10	10000	4	1	0	4	0
337	639	10	10000	4	1	0	4	0
322	640	10	10000	4	1	0	4	0
310	641	10	10000	4	1	0	4	0
300	642	10	10000	4	1	0	4	0
286	643	10	10000	4	1	0	4	0
274	644	10	10000	4	1	0	4	0
264	645	10	10000	4	1	0	4	0
253	646	10	10000	4	1	0	4	0
245	647	10	10000	4	1	0	4	0
240	648	10	10000	4	1	0	4	0
234	649	10	10000	4	1	0	4	0
224	650	10	10000	4	1	0	4	0
216	651	10	10000	4	1	0	4	0
209	652	10	10000	4	1	0	4	0
200	653	10	10000	4	1	0	4	0
192	654	10	10000	4	1	0	4	0
186	655	10	10000	4	1	0	4	0
179	656	10	10000	4	1	0	4	0
172	657	10	10000	4	1	0	4	0
165	658	10	10000	4	1	0	4	0
159	659	10	10000	4	1	0	4	0
152	660	10	10000	4	1	0	4	0
146	661	10	10000	4	1	0	4	0
143	662	10	10000	4	1	0	4	0
140	663	10	10000	4	1	0	4	0
138	664	10	10000	4	1	0	4	0
139	665	10	10000	4	1	0	4	0
141	666	10	10000	4	1	0	4	0
141	667	10	10000	4	1	0	4	0
143	668	10	10000	4	1	0	4	0
144	669	10	10000	4	1	0	4	0
140	670	10	10000	4	1	0	4	0
137	671	10	10000	4	1	0	4	0
132	672	10	10000	4	1	0	4	0
127	673	10	10000	4	1	0	4	0
122	674	10	10000	4	1	0	4	0
118	675	10	10000	4	1	0	4	0
116	676	10	10000	4	1	0	4	0
112	677	10	10000	4	1	0	4	0
107	678	10	10000	4	1	0	4	0
102	679	10	10000	4	1	0	4	0
98	680	10	10000	4	1	0	4	0
94	681	10	10000	4	1	0	4	0
91	682	10	10000	4	1	0	4	0
88	683	10	10000	4	1	0	4	0
85	684	10	10000	4	1	0	4	0
81	685	10	10000	4	1	0	4	0
80	686	10	10000	4	1	0	4	0
78	687	10	10000	4	1	0	4	0
75	688	10	10000	4	1	0	4	0
73	689	10	10000	4	1	0	4	0
71	690	10	10000	4	1	0	4	0
74	691	10	10000	4	1	0	4	0
74	692	10	10000	4	1	0	4	0
76	693	10	10000	4	1	0	4	0
79	694	10	10000	4	1	0	4	0
80	695	10	10000	4	1	0	4	0
79	696	10	10000	4	1	0	4	0
77	697	10	10000	4	1	0	4	0
78	698	10	10000	4	1	0	4	0
77	699	10	10000	4	1	0	4	0
74	700	10	10000	4	1	0	4	0
74	701	10	10000	4	1	0	4	0
79	702	10	10000	4	1	0	4	0
81	703	10	10000	4	1	0	4	0
80	704	10	10000	4	1	0	4	0
79	705	10	10000	4	1	0	4	0
77	706	10	10000	4	1	0	4	0
76	707	10	10000	4	1	0	4	0
73	708	10	10000	4	1	0	4	0
72	709	10	10000	4	1	0	4	0
69	710	10	10000	4	1	0	4	0
69	711	10	10000	4	1	0	4	0
70	712	10	10000	4	1	0	4	0
70	713	10	10000	4	1	0	4	0
71	714	10	10000	4	1	0	4	0
73	715	10	10000	4	1	0	4	0
73	716	10	10000	4	1	0	4	0
72	717	10	10000	4	1	0	4	0
73	718	10	10000	4	1	0	4	0
73	719	10	10000	4	1	0	4	0
71	720	10	10000	4	1	0	4	0
69	721	10	10000	4	1	0	4	0
74	722	10	10000	4	1	0	4	0
72	723	10	10000	4	1	0	4	0
69	724	10	10000	4	1	0	4	0
67	725	10	10000	4	1	0	4	0
64	726	10	10000	4	1	0	4	0
65	727	10	10000	4	1	0	4	0
64	728	10	10000	4	1	0	4	0
61	729	10	10000	4	1	0	4	0
59	730	10	10000	4	1	0	4	0
57	731	10	10000	4	1	0	4	0
56	732	10	10000	4	1	0	4	0
56	733	10	10000	4	1	0	4	0
55	734	10	10000	4	1	0	4	0
54	735	10	10000	4	1	0	4	0
52	736	10	10000	4	1	0	4	0
53	737	10	10000	4	1	0	4	0
53	738	10	10000	4	1	0	4	0
52	739	10	10000	4	1	0	4	0
51	740	10	10000	4	1	0	4	0
53	741	10	10000	4	1	0	4	0
57	742	10	10000	4	1	0	4	0
58	743	10	10000	4	1	0	4	0
57	744	10	10000	4	1	0	4	0
57	745	10	10000	4	1	0	4	0
55	746	10	10000	4	1	0	4	0
54	747	10	10000	4	1	0	4	0
54	748	10	10000	4	1	0	4	0
54	749	10	10000	4	1	0	4	0
53	750	10	10000	4	1	0	4	0
54	751	10	10000	4	1	0	4	0
53	752	10	10000	4	1	0	4	0
56	753	10	10000	4	1	0	4	0
55	754	10	10000	4	1	0	4	0
54	755	10	10000	4	1	0	4	0
55	756	10	10000	4	1	0	4	0
55	757	10	10000	4	1	0	4	0
55	758	10	10000	4	1	0	4	0
56	759	10	10000	4	1	0	4	0
56	760	10	10000	4	1	0	4	0
57	761	10	10000	4	1	0	4	0
56	762	10	10000	4	1	0	4	0
58	763	10	10000	4	1	0	4	0
56	764	10	10000	4	1	0	4	0
55	765	10	10000	4	1	0	4	0
54	766	10	10000	4	1	0	4	0
56	767	10	10000	4	1	0	4	0
59	768	10	10000	4	1	0	4	0
60	769	10	10000	4	1	0	4	0
58	770	10	10000	4	1	0	4	0
61	771	10	10000	4	1	0	4	0
62	772	10	10000	4	1	0	4	0
60	773	10	10000	4	1	0	4	0
59	774	10	10000	4	1	0	4	0
58	775	10	10000	4	1	0	4	0
57	776	10	10000	4	1	0	4	0
56	777	10	10000	4	1	0	4	0
54	778	10	10000	4	1	0	4	0
52	779	10	10000	4	1	0	4	0
53	780	10	10000	4	1	0	4	0
54	781	10	10000	4	1	0	4	0
55	782	10	10000	4	1	0	4	0
54	783	10	10000	4	1	0	4	0
53	784	10	10000	4	1	0	4	0
53	785	10	10000	4	1	0	4	0
55	786	10	10000	4	1	0	4	0
53	787	10	10000	4	1	0	4	0
54	788	10	10000	4	1	0	4	0
56	789	10	10000	4	1	0	4	0
55	790	10	10000	4	1	0	4	0
54	791	10	10000	4	1	0	4	0
51	792	10	10000	4	1	0	4	0
48	793	10	10000	4	1	0	4	0
47	794	10	10000	4	1	0	4	0
46	795	10	10000	4	1	0	4	0
44	796	10	10000	4	1	0	4	0
44	797	10	10000	4	1	0	4	0
44	798	10	10000	4	1	0	4	0
43	799	10	10000	4	1	0	4	0
41	800	10	10000	4	1	0	4	0
39	801	10	10000	4	1	0	4	0
41	802	10	10000	4	1	0	4	0
40	803	10	10000	4	1	0	4	0
40	804	10	10000	4	1	0	4	0
42	805	10	10000	4	1	0	4	0
47	806	10	10000	4	1	0	4	0
53	807	10	10000	4	1	0	4	0
56	808	10	10000	4	1	0	4	0
56	809	10	10000	4	1	0	4	0
56	810	10	10000	4	1	0	4	0
55	811	10	10000	4	1	0	4	0
52	812	10	10000	4	1	0	4	0
51	813	10	10000	4	1	0	4	0
49	814	10	10000	4	1	0	4	0
54	815	10	10000	4	1	0	4	0
58	816	10	10000	4	1	0	4	0
58	817	10	10000	4	1	0	4	0
64	818	10	10000	4	1	0	4	0
64	819	10	10000	4	1	0	4	0
61	820	10	10000	4	1	0	4	0
61	821	10	10000	4	1	0	4	0
65	822	10	10000	4	1	0	4	0
69	823	10	10000	4	1	0	4	0
73	824	10	10000	4	1	0	4	0
75	825	10	10000	4	1	0	4	0
72	826	10	10000	4	1	0	4	0
74	827	10	10000	4	1	0	4	0
74	828	10	10000	4	1	0	4	0
73	829	10	10000	4	1	0	4	0
70	830	10	10000	4	1	0	4	0
68	831	10	10000	4	1	0	4	0
65	832	10	10000	4	1	0	4	0
62	833	10	10000	4	1	0	4	0
60	834	10	10000	4	1	0	4	0
59	835	10	10000	4	1	0	4	0
59	836	10	10000	4	1	0	4	0
58	837	10	10000	4	1	0	4	0
58	838	10	10000	4	1	0	4	0
56	839	10	10000	4	1	0	4	0
53	840	10	10000	4	1	0	4	0
54	841	10	10000	4	1	0	4	0
55	842	10	10000	4	1	0	4	0
55	843	10	10000	4	1	0	4	0
55	844	10	10000	4	1	0	4	0
53	845	10	10000	4	1	0	4	0
55	846	10	10000	4	1	0	4	0
57	847	10	10000	4	1	0	4	0
59	848	10	10000	4	1	0	4	0
62	849	10	10000	4	1	0	4	0
61	850	10	10000	4	1	0	4	0
60	851	10	10000	4	1	0	4	0
61	852	10	10000	4	1	0	4	0
63	853	10	10000	4	1	0	4	0
64	854	10	10000	4	1	0	4	0
64	855	10	10000	4	1	0	4	0
62	856	10	10000	4	1	0	4	0
59	857	10	10000	4	1	0	4	0
61	858	10	10000	4	1	0	4	0
62	859	10	10000	4	1	0	4	0
59	860	10	10000	4	1	0	4	0
58	861	10	10000	4	1	0	4	0
57	862	10	10000	4	1	0	4	0
56	863	10	10000	4	1	0	4	0
55	864	10	10000	4	1	0	4	0
55	865	10	10000	4	1	0	4	0
56	866	10	10000	4	1	0	4	0
60	867	10	10000	4	1	0	4	0
62	868	10	10000	4	1	0	4	0
59	869	10	10000	4	1	0	4	0
59	870	10	10000	4	1	0	4	0
58	871	10	10000	4	1	0	4	0
54	872	10	10000	4	1	0	4	0
52	873	10	10000	4	1	0	4	0
52	874	10	10000	4	1	0	4	0
51	875	10	10000	4	1	0	4	0
52	876	10	10000	4	1	0	4	0
53	877	10	10000	4	1	0	4	0
55	878	10	10000	4	1	0	4	0
59	879	10	10000	4	1	0	4	0
58	880	10	10000	4	1	0	4	0
55	881	10	10000	4	1	0	4	0
54	882	10	10000	4	1	0	4	0
55	883	10	10000	4	1	0	4	0
56	884	10	10000	4	1	0	4	0
59	885	10	10000	4	1	0	4	0
60	886	10	10000	4	1	0	4	0
61	887	10	10000	4	1	0	4	0
60	888	10	10000	4	1	0	4	0
59	889	10	10000	4	1	0	4	0
59	890	10	10000	4	1	0	4	0
58	891	10	10000	4	1	0	4	0
55	892	10	10000	4	1	0	4	0
53	893	10	10000	4	1	0	4	0
52	894	10	10000	4	1	0	4	0
49	895	10	10000	4	1	0	4	0
50	896	10	10000	4	1	0	4	0
49	897	10	10000	4	1	0	4	0
48	898	10	10000	4	1	0	4	0
47	899	10	10000	4	1	0	4	0
46	900	10	10000	4	1	0	4	0
46	901	10	10000	4	1	0	4	0
47	902	10	10000	4	1	0	4	0
47	903	10	10000	4	1	0	4	0
47	904	10	10000	4	1	0	4	0
48	905	10	10000	4	1	0	4	0
47	906	10	10000	4	1	0	4	0
47	907	10	10000	4	1	0	4	0
50	908	10	10000	4	1	0	4	0
53	909	10	10000	4	1	0	4	0
54	910	10	10000	4	1	0	4	0
58	911	10	10000	4	1	0	4	0
58	912	10	10000	4	1	0	4	0
57	913	10	10000	4	1	0	4	0
59	914	10	10000	4	1	0	4	0
57	915	10	10000	4	1	0	4	0
55	916	10	10000	4	1	0	4	0
53	917	10	10000	4	1	0	4	0
51	918	10	10000	4	1	0	4	0
49	919	10	10000	4	1	0	4	0
47	920	10	10000	4	1	0	4	0
47	921	10	10000	4	1	0	4	0
50	922	10	10000	4	1	0	4	0
55	923	10	10000	4	1	0	4	0
58	924	10	10000	4	1	0	4	0
56	925	10	10000	4	1	0	4	0
54	926	10	10000	4	1	0	4	0
52	927	10	10000	4	1	0	4	0
52	928	10	10000	4	1	0	4	0
51	929	10	10000	4	1	0	4	0
50	930	10	10000	4	1	0	4	0
51	931	10	10000	4	1	0	4	0
52	932	10	10000	4	1	0	4	0
52	933	10	10000	4	1	0	4	0
50	934	10	10000	4	1	0	4	0
49	935	10	10000	4	1	0	4	0
47	936	10	10000	4	1	0	4	0
47	937	10	10000	4	1	0	4	0
48	938	10	10000	4	1	0	4	0
45	939	10	10000	4	1	0	4	0
44	940	10	10000	4	1	0	4	0
46	941	10	10000	4	1	0	4	0
48	942	10	10000	4	1	0	4	0
50	943	10	10000	4	1	0	4	0
52	944	10	10000	4	1	0	4	0
50	945	10	10000	4	1	0	4	0
49	946	10	10000	4	1	0	4	0
50	947	10	10000	4	1	0	4	0
49	948	10	10000	4	1	0	4	0
50	949	10	10000	4	1	0	4	0
49	950	10	10000	4	1	0	4	0
49	951	10	10000	4	1	0	4	0
46	952	10	10000	4	1	0	4	0
47	953	10	10000	4	1	0	4	0
45	954	10	10000	4	1	0	4	0
47	955	10	10000	4	1	0	4	0
49	956	10	10000	4	1	0	4	0
48	957	10	10000	4	1	0	4	0
48	958	10	10000	4	1	0	4	0
48	959	10	10000	4	1	0	4	0
48	960	10	10000	4	1	0	4	0
51	961	10	10000	4	1	0	4	0
51	962	10	10000	4	1	0	4	0
55	963	10	10000	4	1	0	4	0
59	964	10	10000	4	1	0	4	0
62	965	10	10000	4	1	0	4	0
63	966	10	10000	4	1	0	4	0
61	967	10	10000	4	1	0	4	0
66	968	10	10000	4	1	0	4	0
68	969	10	10000	4	1	0	4	0
69	970	10	10000	4	1	0	4	0
70	971	10	10000	4	1	0	4	0
69	972	10	10000	4	1	0	4	0
66	973	10	10000	4	1	0	4	0
63	974	10	10000	4	1	0	4	0
64	975	10	10000	4	1	0	4	0
62	976	10	10000	4	1	0	4	0
60	977	10	10000	4	1	0	4	0
62	978	10	10000	4	1	0	4	0
63	979	10	10000	4	1	0	4	0
64	980	10	10000	4	1	0	4	0
64	981	10	10000	4	1	0	4	0
65	982	10	10000	4	1	0	4	0
64	983	10	10000	4	1	0	4	0
65	984	10	10000	4	1	0	4	0
62	985	10	10000	4	1	0	4	0
63	986	10	10000	4	1	0	4	0
67	987	10	10000	4	1	0	4	0
69	988	10	10000	4	1	0	4	0
70	989	10	10000	4	1	0	4	0
70	990	10	10000	4	1	0	4	0
70	991	10	10000	4	1	0	4	0
68	992	10	10000	4	1	0	4	0
66	993	10	10000	4	1	0	4	0
67	994	10	10000	4	1	0	4	0
66	995	10	10000	4	1	0	4	0
65	996	10	10000	4	1	0	4	0
62	997	10	10000	4	1	0	4	0
60	998	10	10000	4	1	0	4	0
60	999	10	10000	4	1	0	4	0
59	1000	10	10000	4	1	0	4	0
57	1001	10	10000	4	1	0	4	0
59	1	10	10000	5	1	0	5	0
58	2	10	10000	5	1	0	5	0
59	3	10	10000	5	1	0	5	0
57	4	10	10000	5	1	0	5	0
57	5	10	10000	5	1	0	5	0
55	6	10	10000	5	1	0	5	0
57	7	10	10000	5	1	0	5	0
56	8	10	10000	5	1	0	5	0
53	9	10	10000	5	1	0	5	0
51	10	10	10000	5	1	0	5	0
50	11	10	10000	5	1	0	5	0
50	12	10	10000	5	1	0	5	0
49	13	10	10000	5	1	0	5	0
49	14	10	10000	5	1	0	5	0
48	15	10	10000	5	1	0	5	0
48	16	10	10000	5	1	0	5	0
49	17	10	10000	5	1	0	5	0
49	18	10	10000	5	1	0	5	0
48	19	10	10000	5	1	0	5	0
47	20	10	10000	5	1	0	5	0
45	21	10	10000	5	1	0	5	0
44	22	10	10000	5	1	0	5	0
45	23	10	10000	5	1	0	5	0
46	24	10	10000	5	1	0	5	0
45	25	10	10000	5	1	0	5	0
46	26	10	10000	5	1	0	5	0
51	27	10	10000	5	1	0	5	0
53	28	10	10000	5	1	0	5	0
53	29	10	10000	5	1	0	5	0
54	30	10	10000	5	1	0	5	0
54	31	10	10000	5	1	0	5	0
56	32	10	10000	5	1	0	5	0
56	33	10	10000	5	1	0	5	0
55	34	10	10000	5	1	0	5	0
53	35	10	10000	5	1	0	5	0
55	36	10	10000	5	1	0	5	0
57	37	10	10000	5	1	0	5	0
61	38	10	10000	5	1	0	5	0
65	39	10	10000	5	1	0	5	0
67	40	10	10000	5	1	0	5	0
63	41	10	10000	5	1	0	5	0
61	42	10	10000	5	1	0	5	0
62	43	10	10000	5	1	0	5	0
58	44	10	10000	5	1	0	5	0
56	45	10	10000	5	1	0	5	0
59	46	10	10000	5	1	0	5	0
61	47	10	10000	5	1	0	5	0
62	48	10	10000	5	1	0	5	0
64	49	10	10000	5	1	0	5	0
62	50	10	10000	5	1	0	5	0
60	51	10	10000	5	1	0	5	0
58	52	10	10000	5	1	0	5	0
56	53	10	10000	5	1	0	5	0
55	54	10	10000	5	1	0	5	0
54	55	10	10000	5	1	0	5	0
54	56	10	10000	5	1	0	5	0
50	57	10	10000	5	1	0	5	0
51	58	10	10000	5	1	0	5	0
52	59	10	10000	5	1	0	5	0
51	60	10	10000	5	1	0	5	0
51	60	10	10000	5	1	0	5	0
50	61	10	10000	5	1	0	5	0
49	63	10	10000	5	1	0	5	0
48	64	10	10000	5	1	0	5	0
51	65	10	10000	5	1	0	5	0
53	66	10	10000	5	1	0	5	0
56	67	10	10000	5	1	0	5	0
54	68	10	10000	5	1	0	5	0
53	69	10	10000	5	1	0	5	0
53	70	10	10000	5	1	0	5	0
53	70	10	10000	5	1	0	5	0
52	71	10	10000	5	1	0	5	0
52	73	10	10000	5	1	0	5	0
52	74	10	10000	5	1	0	5	0
51	75	10	10000	5	1	0	5	0
50	76	10	10000	5	1	0	5	0
47	77	10	10000	5	1	0	5	0
47	78	10	10000	5	1	0	5	0
48	79	10	10000	5	1	0	5	0
46	80	10	10000	5	1	0	5	0
44	80	10	10000	5	1	0	5	0
43	81	10	10000	5	1	0	5	0
45	83	10	10000	5	1	0	5	0
44	84	10	10000	5	1	0	5	0
42	85	10	10000	5	1	0	5	0
40	86	10	10000	5	1	0	5	0
41	87	10	10000	5	1	0	5	0
42	88	10	10000	5	1	0	5	0
41	89	10	10000	5	1	0	5	0
41	90	10	10000	5	1	0	5	0
40	90	10	10000	5	1	0	5	0
40	91	10	10000	5	1	0	5	0
40	93	10	10000	5	1	0	5	0
40	94	10	10000	5	1	0	5	0
40	95	10	10000	5	1	0	5	0
40	96	10	10000	5	1	0	5	0
39	97	10	10000	5	1	0	5	0
44	98	10	10000	5	1	0	5	0
43	99	10	10000	5	1	0	5	0
46	100	10	10000	5	1	0	5	0
52	100	10	10000	5	1	0	5	0
58	101	10	10000	5	1	0	5	0
64	103	10	10000	5	1	0	5	0
67	104	10	10000	5	1	0	5	0
65	105	10	10000	5	1	0	5	0
62	106	10	10000	5	1	0	5	0
64	107	10	10000	5	1	0	5	0
63	108	10	10000	5	1	0	5	0
61	109	10	10000	5	1	0	5	0
58	110	10	10000	5	1	0	5	0
56	110	10	10000	5	1	0	5	0
57	111	10	10000	5	1	0	5	0
61	113	10	10000	5	1	0	5	0
65	114	10	10000	5	1	0	5	0
70	115	10	10000	5	1	0	5	0
77	116	10	10000	5	1	0	5	0
80	117	10	10000	5	1	0	5	0
83	118	10	10000	5	1	0	5	0
86	119	10	10000	5	1	0	5	0
87	120	10	10000	5	1	0	5	0
87	120	10	10000	5	1	0	5	0
88	121	10	10000	5	1	0	5	0
91	123	10	10000	5	1	0	5	0
93	124	10	10000	5	1	0	5	0
97	125	10	10000	5	1	0	5	0
98	126	10	10000	5	1	0	5	0
97	127	10	10000	5	1	0	5	0
93	128	10	10000	5	1	0	5	0
91	129	10	10000	5	1	0	5	0
88	130	10	10000	5	1	0	5	0
86	130	10	10000	5	1	0	5	0
87	131	10	10000	5	1	0	5	0
87	133	10	10000	5	1	0	5	0
85	134	10	10000	5	1	0	5	0
83	135	10	10000	5	1	0	5	0
80	136	10	10000	5	1	0	5	0
79	137	10	10000	5	1	0	5	0
79	138	10	10000	5	1	0	5	0
78	139	10	10000	5	1	0	5	0
79	140	10	10000	5	1	0	5	0
77	140	10	10000	5	1	0	5	0
73	141	10	10000	5	1	0	5	0
71	143	10	10000	5	1	0	5	0
70	144	10	10000	5	1	0	5	0
69	145	10	10000	5	1	0	5	0
71	146	10	10000	5	1	0	5	0
78	147	10	10000	5	1	0	5	0
79	148	10	10000	5	1	0	5	0
80	149	10	10000	5	1	0	5	0
83	150	10	10000	5	1	0	5	0
82	150	10	10000	5	1	0	5	0
81	151	10	10000	5	1	0	5	0
81	153	10	10000	5	1	0	5	0
83	154	10	10000	5	1	0	5	0
84	155	10	10000	5	1	0	5	0
88	156	10	10000	5	1	0	5	0
89	157	10	10000	5	1	0	5	0
91	158	10	10000	5	1	0	5	0
94	159	10	10000	5	1	0	5	0
95	160	10	10000	5	1	0	5	0
94	160	10	10000	5	1	0	5	0
94	161	10	10000	5	1	0	5	0
96	163	10	10000	5	1	0	5	0
93	164	10	10000	5	1	0	5	0
93	165	10	10000	5	1	0	5	0
95	166	10	10000	5	1	0	5	0
96	167	10	10000	5	1	0	5	0
96	168	10	10000	5	1	0	5	0
96	169	10	10000	5	1	0	5	0
96	170	10	10000	5	1	0	5	0
94	170	10	10000	5	1	0	5	0
90	171	10	10000	5	1	0	5	0
87	173	10	10000	5	1	0	5	0
85	174	10	10000	5	1	0	5	0
83	175	10	10000	5	1	0	5	0
83	176	10	10000	5	1	0	5	0
80	177	10	10000	5	1	0	5	0
80	178	10	10000	5	1	0	5	0
82	179	10	10000	5	1	0	5	0
81	180	10	10000	5	1	0	5	0
77	180	10	10000	5	1	0	5	0
76	181	10	10000	5	1	0	5	0
73	183	10	10000	5	1	0	5	0
72	184	10	10000	5	1	0	5	0
69	185	10	10000	5	1	0	5	0
68	186	10	10000	5	1	0	5	0
71	187	10	10000	5	1	0	5	0
71	188	10	10000	5	1	0	5	0
74	189	10	10000	5	1	0	5	0
73	190	10	10000	5	1	0	5	0
70	190	10	10000	5	1	0	5	0
68	191	10	10000	5	1	0	5	0
67	193	10	10000	5	1	0	5	0
65	194	10	10000	5	1	0	5	0
65	195	10	10000	5	1	0	5	0
64	196	10	10000	5	1	0	5	0
62	197	10	10000	5	1	0	5	0
63	198	10	10000	5	1	0	5	0
63	199	10	10000	5	1	0	5	0
62	200	10	10000	5	1	0	5	0
62	200	10	10000	5	1	0	5	0
60	201	10	10000	5	1	0	5	0
60	203	10	10000	5	1	0	5	0
58	204	10	10000	5	1	0	5	0
56	205	10	10000	5	1	0	5	0
53	206	10	10000	5	1	0	5	0
53	207	10	10000	5	1	0	5	0
51	208	10	10000	5	1	0	5	0
49	209	10	10000	5	1	0	5	0
47	210	10	10000	5	1	0	5	0
45	210	10	10000	5	1	0	5	0
44	211	10	10000	5	1	0	5	0
44	213	10	10000	5	1	0	5	0
45	214	10	10000	5	1	0	5	0
44	215	10	10000	5	1	0	5	0
43	216	10	10000	5	1	0	5	0
42	217	10	10000	5	1	0	5	0
44	218	10	10000	5	1	0	5	0
44	219	10	10000	5	1	0	5	0
44	220	10	10000	5	1	0	5	0
42	220	10	10000	5	1	0	5	0
41	221	10	10000	5	1	0	5	0
41	223	10	10000	5	1	0	5	0
39	224	10	10000	5	1	0	5	0
38	225	10	10000	5	1	0	5	0
37	226	10	10000	5	1	0	5	0
40	227	10	10000	5	1	0	5	0
40	228	10	10000	5	1	0	5	0
38	229	10	10000	5	1	0	5	0
38	230	10	10000	5	1	0	5	0
37	230	10	10000	5	1	0	5	0
38	231	10	10000	5	1	0	5	0
40	233	10	10000	5	1	0	5	0
39	234	10	10000	5	1	0	5	0
39	235	10	10000	5	1	0	5	0
38	236	10	10000	5	1	0	5	0
37	237	10	10000	5	1	0	5	0
39	238	10	10000	5	1	0	5	0
38	239	10	10000	5	1	0	5	0
39	240	10	10000	5	1	0	5	0
38	240	10	10000	5	1	0	5	0
39	241	10	10000	5	1	0	5	0
39	243	10	10000	5	1	0	5	0
38	244	10	10000	5	1	0	5	0
38	245	10	10000	5	1	0	5	0
36	246	10	10000	5	1	0	5	0
38	247	10	10000	5	1	0	5	0
38	248	10	10000	5	1	0	5	0
38	249	10	10000	5	1	0	5	0
36	250	10	10000	5	1	0	5	0
37	250	10	10000	5	1	0	5	0
39	251	10	10000	5	1	0	5	0
40	253	10	10000	5	1	0	5	0
40	254	10	10000	5	1	0	5	0
39	255	10	10000	5	1	0	5	0
38	256	10	10000	5	1	0	5	0
37	257	10	10000	5	1	0	5	0
37	258	10	10000	5	1	0	5	0
36	259	10	10000	5	1	0	5	0
35	260	10	10000	5	1	0	5	0
34	260	10	10000	5	1	0	5	0
32	261	10	10000	5	1	0	5	0
32	263	10	10000	5	1	0	5	0
32	264	10	10000	5	1	0	5	0
32	265	10	10000	5	1	0	5	0
32	266	10	10000	5	1	0	5	0
34	267	10	10000	5	1	0	5	0
33	268	10	10000	5	1	0	5	0
32	269	10	10000	5	1	0	5	0
31	270	10	10000	5	1	0	5	0
32	270	10	10000	5	1	0	5	0
33	271	10	10000	5	1	0	5	0
32	273	10	10000	5	1	0	5	0
32	274	10	10000	5	1	0	5	0
33	275	10	10000	5	1	0	5	0
33	276	10	10000	5	1	0	5	0
30	277	10	10000	5	1	0	5	0
30	278	10	10000	5	1	0	5	0
30	279	10	10000	5	1	0	5	0
29	280	10	10000	5	1	0	5	0
29	280	10	10000	5	1	0	5	0
28	281	10	10000	5	1	0	5	0
28	283	10	10000	5	1	0	5	0
29	284	10	10000	5	1	0	5	0
29	285	10	10000	5	1	0	5	0
31	286	10	10000	5	1	0	5	0
34	287	10	10000	5	1	0	5	0
32	288	10	10000	5	1	0	5	0
33	289	10	10000	5	1	0	5	0
33	290	10	10000	5	1	0	5	0
32	290	10	10000	5	1	0	5	0
31	291	10	10000	5	1	0	5	0
31	293	10	10000	5	1	0	5	0
31	294	10	10000	5	1	0	5	0
33	295	10	10000	5	1	0	5	0
35	296	10	10000	5	1	0	5	0
32	297	10	10000	5	1	0	5	0
33	298	10	10000	5	1	0	5	0
34	299	10	10000	5	1	0	5	0
35	300	10	10000	5	1	0	5	0
36	300	10	10000	5	1	0	5	0
40	301	10	10000	5	1	0	5	0
43	303	10	10000	5	1	0	5	0
44	304	10	10000	5	1	0	5	0
46	305	10	10000	5	1	0	5	0
45	306	10	10000	5	1	0	5	0
48	307	10	10000	5	1	0	5	0
51	308	10	10000	5	1	0	5	0
51	309	10	10000	5	1	0	5	0
49	310	10	10000	5	1	0	5	0
47	310	10	10000	5	1	0	5	0
46	311	10	10000	5	1	0	5	0
45	313	10	10000	5	1	0	5	0
45	314	10	10000	5	1	0	5	0
45	315	10	10000	5	1	0	5	0
44	316	10	10000	5	1	0	5	0
42	317	10	10000	5	1	0	5	0
42	318	10	10000	5	1	0	5	0
42	319	10	10000	5	1	0	5	0
43	320	10	10000	5	1	0	5	0
42	320	10	10000	5	1	0	5	0
43	321	10	10000	5	1	0	5	0
46	323	10	10000	5	1	0	5	0
46	324	10	10000	5	1	0	5	0
45	325	10	10000	5	1	0	5	0
44	326	10	10000	5	1	0	5	0
45	327	10	10000	5	1	0	5	0
43	328	10	10000	5	1	0	5	0
43	329	10	10000	5	1	0	5	0
45	330	10	10000	5	1	0	5	0
45	330	10	10000	5	1	0	5	0
49	331	10	10000	5	1	0	5	0
54	333	10	10000	5	1	0	5	0
55	334	10	10000	5	1	0	5	0
57	335	10	10000	5	1	0	5	0
60	336	10	10000	5	1	0	5	0
56	337	10	10000	5	1	0	5	0
56	338	10	10000	5	1	0	5	0
56	339	10	10000	5	1	0	5	0
54	340	10	10000	5	1	0	5	0
53	340	10	10000	5	1	0	5	0
54	341	10	10000	5	1	0	5	0
53	343	10	10000	5	1	0	5	0
51	344	10	10000	5	1	0	5	0
52	345	10	10000	5	1	0	5	0
51	346	10	10000	5	1	0	5	0
53	347	10	10000	5	1	0	5	0
51	348	10	10000	5	1	0	5	0
49	349	10	10000	5	1	0	5	0
47	350	10	10000	5	1	0	5	0
47	350	10	10000	5	1	0	5	0
50	351	10	10000	5	1	0	5	0
50	353	10	10000	5	1	0	5	0
48	354	10	10000	5	1	0	5	0
48	355	10	10000	5	1	0	5	0
49	356	10	10000	5	1	0	5	0
46	357	10	10000	5	1	0	5	0
46	358	10	10000	5	1	0	5	0
46	359	10	10000	5	1	0	5	0
48	360	10	10000	5	1	0	5	0
50	360	10	10000	5	1	0	5	0
52	361	10	10000	5	1	0	5	0
52	363	10	10000	5	1	0	5	0
50	364	10	10000	5	1	0	5	0
49	365	10	10000	5	1	0	5	0
52	366	10	10000	5	1	0	5	0
56	367	10	10000	5	1	0	5	0
55	368	10	10000	5	1	0	5	0
52	369	10	10000	5	1	0	5	0
51	370	10	10000	5	1	0	5	0
53	370	10	10000	5	1	0	5	0
56	371	10	10000	5	1	0	5	0
56	373	10	10000	5	1	0	5	0
56	374	10	10000	5	1	0	5	0
53	375	10	10000	5	1	0	5	0
53	376	10	10000	5	1	0	5	0
49	377	10	10000	5	1	0	5	0
47	378	10	10000	5	1	0	5	0
45	379	10	10000	5	1	0	5	0
45	380	10	10000	5	1	0	5	0
46	380	10	10000	5	1	0	5	0
46	381	10	10000	5	1	0	5	0
44	383	10	10000	5	1	0	5	0
43	384	10	10000	5	1	0	5	0
42	385	10	10000	5	1	0	5	0
44	386	10	10000	5	1	0	5	0
48	387	10	10000	5	1	0	5	0
50	388	10	10000	5	1	0	5	0
51	389	10	10000	5	1	0	5	0
48	390	10	10000	5	1	0	5	0
49	390	10	10000	5	1	0	5	0
49	391	10	10000	5	1	0	5	0
50	393	10	10000	5	1	0	5	0
52	394	10	10000	5	1	0	5	0
50	395	10	10000	5	1	0	5	0
50	396	10	10000	5	1	0	5	0
47	397	10	10000	5	1	0	5	0
46	398	10	10000	5	1	0	5	0
44	399	10	10000	5	1	0	5	0
46	400	10	10000	5	1	0	5	0
47	400	10	10000	5	1	0	5	0
46	401	10	10000	5	1	0	5	0
49	403	10	10000	5	1	0	5	0
52	404	10	10000	5	1	0	5	0
51	405	10	10000	5	1	0	5	0
50	406	10	10000	5	1	0	5	0
56	407	10	10000	5	1	0	5	0
59	408	10	10000	5	1	0	5	0
59	409	10	10000	5	1	0	5	0
57	410	10	10000	5	1	0	5	0
55	410	10	10000	5	1	0	5	0
57	411	10	10000	5	1	0	5	0
60	413	10	10000	5	1	0	5	0
60	414	10	10000	5	1	0	5	0
58	415	10	10000	5	1	0	5	0
58	416	10	10000	5	1	0	5	0
54	417	10	10000	5	1	0	5	0
55	418	10	10000	5	1	0	5	0
54	419	10	10000	5	1	0	5	0
56	420	10	10000	5	1	0	5	0
55	420	10	10000	5	1	0	5	0
54	421	10	10000	5	1	0	5	0
55	423	10	10000	5	1	0	5	0
52	424	10	10000	5	1	0	5	0
51	425	10	10000	5	1	0	5	0
48	426	10	10000	5	1	0	5	0
52	427	10	10000	5	1	0	5	0
53	428	10	10000	5	1	0	5	0
50	429	10	10000	5	1	0	5	0
49	430	10	10000	5	1	0	5	0
48	430	10	10000	5	1	0	5	0
49	431	10	10000	5	1	0	5	0
50	433	10	10000	5	1	0	5	0
48	434	10	10000	5	1	0	5	0
47	435	10	10000	5	1	0	5	0
48	436	10	10000	5	1	0	5	0
49	437	10	10000	5	1	0	5	0
49	438	10	10000	5	1	0	5	0
50	439	10	10000	5	1	0	5	0
49	440	10	10000	5	1	0	5	0
47	440	10	10000	5	1	0	5	0
46	441	10	10000	5	1	0	5	0
48	443	10	10000	5	1	0	5	0
48	444	10	10000	5	1	0	5	0
47	445	10	10000	5	1	0	5	0
46	446	10	10000	5	1	0	5	0
46	447	10	10000	5	1	0	5	0
44	448	10	10000	5	1	0	5	0
43	449	10	10000	5	1	0	5	0
42	450	10	10000	5	1	0	5	0
41	450	10	10000	5	1	0	5	0
43	451	10	10000	5	1	0	5	0
43	453	10	10000	5	1	0	5	0
44	454	10	10000	5	1	0	5	0
43	455	10	10000	5	1	0	5	0
42	456	10	10000	5	1	0	5	0
39	457	10	10000	5	1	0	5	0
39	458	10	10000	5	1	0	5	0
38	459	10	10000	5	1	0	5	0
38	460	10	10000	5	1	0	5	0
38	460	10	10000	5	1	0	5	0
38	461	10	10000	5	1	0	5	0
36	463	10	10000	5	1	0	5	0
36	464	10	10000	5	1	0	5	0
36	465	10	10000	5	1	0	5	0
38	466	10	10000	5	1	0	5	0
42	467	10	10000	5	1	0	5	0
42	468	10	10000	5	1	0	5	0
40	469	10	10000	5	1	0	5	0
42	470	10	10000	5	1	0	5	0
45	470	10	10000	5	1	0	5	0
46	471	10	10000	5	1	0	5	0
46	473	10	10000	5	1	0	5	0
45	474	10	10000	5	1	0	5	0
47	475	10	10000	5	1	0	5	0
48	476	10	10000	5	1	0	5	0
45	477	10	10000	5	1	0	5	0
45	478	10	10000	5	1	0	5	0
47	479	10	10000	5	1	0	5	0
45	480	10	10000	5	1	0	5	0
44	480	10	10000	5	1	0	5	0
43	481	10	10000	5	1	0	5	0
43	483	10	10000	5	1	0	5	0
45	484	10	10000	5	1	0	5	0
44	485	10	10000	5	1	0	5	0
43	486	10	10000	5	1	0	5	0
45	487	10	10000	5	1	0	5	0
48	488	10	10000	5	1	0	5	0
49	488	10	10000	5	1	0	5	0
47	489	10	10000	5	1	0	5	0
45	490	10	10000	5	1	0	5	0
45	491	10	10000	5	1	0	5	0
45	492	10	10000	5	1	0	5	0
46	493	10	10000	5	1	0	5	0
46	494	10	10000	5	1	0	5	0
44	495	10	10000	5	1	0	5	0
41	496	10	10000	5	1	0	5	0
44	497	10	10000	5	1	0	5	0
43	498	10	10000	5	1	0	5	0
44	499	10	10000	5	1	0	5	0
45	500	10	10000	5	1	0	5	0
45	501	10	10000	5	1	0	5	0
45	502	10	10000	5	1	0	5	1
44	503	10	10000	5	1	0	5	1
42	504	10	10000	5	1	0	5	1
42	505	10	10000	5	1	0	5	1
45	506	10	10000	5	1	0	5	1
47	507	10	10000	5	1	0	5	1
45	508	10	10000	5	1	0	5	1
43	509	10	10000	5	1	0	5	1
44	510	10	10000	5	1	0	5	1
48	511	10	10000	5	1	0	5	1
50	512	10	10000	5	1	0	5	1
50	513	10	10000	5	1	0	5	1
51	514	10	10000	5	1	0	5	1
50	515	10	10000	5	1	0	5	1
47	516	10	10000	5	1	0	5	1
49	517	10	10000	5	1	0	5	1
50	518	10	10000	5	1	0	5	1
49	519	10	10000	5	1	0	5	1
50	520	10	10000	5	1	0	5	1
49	521	10	10000	5	1	0	5	1
49	522	10	10000	5	1	0	5	1
50	523	10	10000	5	1	0	5	1
51	524	10	10000	5	1	0	5	1
52	525	10	10000	5	1	0	5	1
54	526	10	10000	5	1	0	5	1
54	527	10	10000	5	1	0	5	1
57	528	10	10000	5	1	0	5	1
58	529	10	10000	5	1	0	5	1
59	530	10	10000	5	1	0	5	1
59	531	10	10000	5	1	0	5	1
57	532	10	10000	5	1	0	5	1
55	533	10	10000	5	1	0	5	1
53	534	10	10000	5	1	0	5	1
52	535	10	10000	5	1	0	5	1
54	536	10	10000	5	1	0	5	1
57	537	10	10000	5	1	0	5	1
65	538	10	10000	5	1	0	5	1
71	539	10	10000	5	1	0	5	1
74	540	10	10000	5	1	0	5	1
74	541	10	10000	5	1	0	5	1
81	542	10	10000	5	1	0	5	1
85	543	10	10000	5	1	0	5	1
90	544	10	10000	5	1	0	5	1
103	545	10	10000	5	1	0	5	1
104	546	10	10000	5	1	0	5	1
107	547	10	10000	5	1	0	5	1
116	548	10	10000	5	1	0	5	1
124	549	10	10000	5	1	0	5	1
129	550	10	10000	5	1	0	5	1
133	551	10	10000	5	1	0	5	1
135	552	10	10000	5	1	0	5	0
133	553	10	10000	5	1	0	5	0
127	554	10	10000	5	1	0	5	0
124	555	10	10000	5	1	0	5	0
116	556	10	10000	5	1	0	5	0
112	557	10	10000	5	1	0	5	0
109	558	10	10000	5	1	0	5	0
107	559	10	10000	5	1	0	5	0
106	560	10	10000	5	1	0	5	0
110	561	10	10000	5	1	0	5	0
116	562	10	10000	5	1	0	5	0
121	563	10	10000	5	1	0	5	0
130	564	10	10000	5	1	0	5	0
131	565	10	10000	5	1	0	5	0
129	566	10	10000	5	1	0	5	0
128	567	10	10000	5	1	0	5	0
127	568	10	10000	5	1	0	5	0
130	569	10	10000	5	1	0	5	0
128	570	10	10000	5	1	0	5	0
132	571	10	10000	5	1	0	5	0
132	572	10	10000	5	1	0	5	0
132	573	10	10000	5	1	0	5	0
145	574	10	10000	5	1	0	5	0
163	575	10	10000	5	1	0	5	0
166	576	10	10000	5	1	0	5	0
163	577	10	10000	5	1	0	5	0
157	578	10	10000	5	1	0	5	0
172	579	10	10000	5	1	0	5	0
200	580	10	10000	5	1	0	5	0
200	581	10	10000	5	1	0	5	0
204	582	10	10000	5	1	0	5	0
219	583	10	10000	5	1	0	5	0
226	584	10	10000	5	1	0	5	0
218	585	10	10000	5	1	0	5	0
225	586	10	10000	5	1	0	5	0
262	587	10	10000	5	1	0	5	0
278	588	10	10000	5	1	0	5	0
271	589	10	10000	5	1	0	5	0
277	590	10	10000	5	1	0	5	0
284	591	10	10000	5	1	0	5	0
293	592	10	10000	5	1	0	5	0
284	593	10	10000	5	1	0	5	0
287	594	10	10000	5	1	0	5	0
280	595	10	10000	5	1	0	5	0
277	596	10	10000	5	1	0	5	0
270	597	10	10000	5	1	0	5	0
262	598	10	10000	5	1	0	5	0
268	599	10	10000	5	1	0	5	0
266	600	10	10000	5	1	0	5	0
268	601	10	10000	5	1	0	5	0
257	602	10	10000	5	1	0	5	0
249	603	10	10000	5	1	0	5	0
249	604	10	10000	5	1	0	5	0
257	605	10	10000	5	1	0	5	0
279	606	10	10000	5	1	0	5	0
273	607	10	10000	5	1	0	5	0
263	608	10	10000	5	1	0	5	0
258	609	10	10000	5	1	0	5	0
249	610	10	10000	5	1	0	5	0
266	611	10	10000	5	1	0	5	0
289	612	10	10000	5	1	0	5	0
287	613	10	10000	5	1	0	5	0
278	614	10	10000	5	1	0	5	0
274	615	10	10000	5	1	0	5	0
285	616	10	10000	5	1	0	5	0
308	617	10	10000	5	1	0	5	0
325	618	10	10000	5	1	0	5	0
329	619	10	10000	5	1	0	5	0
321	620	10	10000	5	1	0	5	0
311	621	10	10000	5	1	0	5	0
299	622	10	10000	5	1	0	5	0
285	623	10	10000	5	1	0	5	0
272	624	10	10000	5	1	0	5	0
260	625	10	10000	5	1	0	5	0
255	626	10	10000	5	1	0	5	0
245	627	10	10000	5	1	0	5	0
234	628	10	10000	5	1	0	5	0
224	629	10	10000	5	1	0	5	0
218	630	10	10000	5	1	0	5	0
217	631	10	10000	5	1	0	5	0
215	632	10	10000	5	1	0	5	0
213	633	10	10000	5	1	0	5	0
209	634	10	10000	5	1	0	5	0
203	635	10	10000	5	1	0	5	0
195	636	10	10000	5	1	0	5	0
190	637	10	10000	5	1	0	5	0
188	638	10	10000	5	1	0	5	0
186	639	10	10000	5	1	0	5	0
188	640	10	10000	5	1	0	5	0
190	641	10	10000	5	1	0	5	0
191	642	10	10000	5	1	0	5	0
196	643	10	10000	5	1	0	5	0
200	644	10	10000	5	1	0	5	0
197	645	10	10000	5	1	0	5	0
191	646	10	10000	5	1	0	5	0
184	647	10	10000	5	1	0	5	0
179	648	10	10000	5	1	0	5	0
174	649	10	10000	5	1	0	5	0
167	650	10	10000	5	1	0	5	0
164	651	10	10000	5	1	0	5	0
159	652	10	10000	5	1	0	5	0
154	653	10	10000	5	1	0	5	0
148	654	10	10000	5	1	0	5	0
146	655	10	10000	5	1	0	5	0
140	656	10	10000	5	1	0	5	0
137	657	10	10000	5	1	0	5	0
135	658	10	10000	5	1	0	5	0
129	659	10	10000	5	1	0	5	0
124	660	10	10000	5	1	0	5	0
119	661	10	10000	5	1	0	5	0
115	662	10	10000	5	1	0	5	0
109	663	10	10000	5	1	0	5	0
106	664	10	10000	5	1	0	5	0
105	665	10	10000	5	1	0	5	0
105	666	10	10000	5	1	0	5	0
106	667	10	10000	5	1	0	5	0
109	668	10	10000	5	1	0	5	0
108	669	10	10000	5	1	0	5	0
107	670	10	10000	5	1	0	5	0
109	671	10	10000	5	1	0	5	0
107	672	10	10000	5	1	0	5	0
108	673	10	10000	5	1	0	5	0
113	674	10	10000	5	1	0	5	0
115	675	10	10000	5	1	0	5	0
116	676	10	10000	5	1	0	5	0
119	677	10	10000	5	1	0	5	0
121	678	10	10000	5	1	0	5	0
119	679	10	10000	5	1	0	5	0
116	680	10	10000	5	1	0	5	0
116	681	10	10000	5	1	0	5	0
114	682	10	10000	5	1	0	5	0
113	683	10	10000	5	1	0	5	0
113	684	10	10000	5	1	0	5	0
114	685	10	10000	5	1	0	5	0
117	686	10	10000	5	1	0	5	0
121	687	10	10000	5	1	0	5	0
121	688	10	10000	5	1	0	5	0
121	689	10	10000	5	1	0	5	0
122	690	10	10000	5	1	0	5	0
120	691	10	10000	5	1	0	5	0
117	692	10	10000	5	1	0	5	0
119	693	10	10000	5	1	0	5	0
120	694	10	10000	5	1	0	5	0
120	695	10	10000	5	1	0	5	0
119	696	10	10000	5	1	0	5	0
118	697	10	10000	5	1	0	5	0
116	698	10	10000	5	1	0	5	0
112	699	10	10000	5	1	0	5	0
108	700	10	10000	5	1	0	5	0
103	701	10	10000	5	1	0	5	0
100	702	10	10000	5	1	0	5	0
98	703	10	10000	5	1	0	5	0
95	704	10	10000	5	1	0	5	0
95	705	10	10000	5	1	0	5	0
101	706	10	10000	5	1	0	5	0
103	707	10	10000	5	1	0	5	0
106	708	10	10000	5	1	0	5	0
110	709	10	10000	5	1	0	5	0
112	710	10	10000	5	1	0	5	0
111	711	10	10000	5	1	0	5	0
110	712	10	10000	5	1	0	5	0
110	713	10	10000	5	1	0	5	0
110	714	10	10000	5	1	0	5	0
108	715	10	10000	5	1	0	5	0
104	716	10	10000	5	1	0	5	0
103	717	10	10000	5	1	0	5	0
100	718	10	10000	5	1	0	5	0
