value	EMG	Stimulus	EMG_sensitivity	Total_Trial_Nr	practise	acq	probe_nr	Startle_Probe
180	1	7	10000	1	1	0	1	0
173	2	7	10000	1	1	0	1	0
172	3	7	10000	1	1	0	1	0
167	4	7	10000	1	1	0	1	0
169	5	7	10000	1	1	0	1	0
175	6	7	10000	1	1	0	1	0
178	7	7	10000	1	1	0	1	0
173	8	7	10000	1	1	0	1	0
166	9	7	10000	1	1	0	1	0
170	10	7	10000	1	1	0	1	0
167	11	7	10000	1	1	0	1	0
166	12	7	10000	1	1	0	1	0
171	13	7	10000	1	1	0	1	0
186	14	7	10000	1	1	0	1	0
188	15	7	10000	1	1	0	1	0
185	16	7	10000	1	1	0	1	0
179	17	7	10000	1	1	0	1	0
176	18	7	10000	1	1	0	1	0
171	19	7	10000	1	1	0	1	0
171	20	7	10000	1	1	0	1	0
178	20	7	10000	1	1	0	1	0
184	21	7	10000	1	1	0	1	0
179	23	7	10000	1	1	0	1	0
170	24	7	10000	1	1	0	1	0
166	25	7	10000	1	1	0	1	0
169	26	7	10000	1	1	0	1	0
165	27	7	10000	1	1	0	1	0
166	28	7	10000	1	1	0	1	0
175	29	7	10000	1	1	0	1	0
172	30	7	10000	1	1	0	1	0
164	31	7	10000	1	1	0	1	0
158	32	7	10000	1	1	0	1	0
157	33	7	10000	1	1	0	1	0
156	34	7	10000	1	1	0	1	0
155	35	7	10000	1	1	0	1	0
153	36	7	10000	1	1	0	1	0
152	37	7	10000	1	1	0	1	0
167	38	7	10000	1	1	0	1	0
171	39	7	10000	1	1	0	1	0
167	40	7	10000	1	1	0	1	0
167	40	7	10000	1	1	0	1	0
169	41	7	10000	1	1	0	1	0
175	43	7	10000	1	1	0	1	0
172	44	7	10000	1	1	0	1	0
183	45	7	10000	1	1	0	1	0
191	46	7	10000	1	1	0	1	0
187	47	7	10000	1	1	0	1	0
192	48	7	10000	1	1	0	1	0
199	49	7	10000	1	1	0	1	0
194	50	7	10000	1	1	0	1	0
186	51	7	10000	1	1	0	1	0
182	52	7	10000	1	1	0	1	0
189	53	7	10000	1	1	0	1	0
201	54	7	10000	1	1	0	1	0
200	55	7	10000	1	1	0	1	0
200	56	7	10000	1	1	0	1	0
205	57	7	10000	1	1	0	1	0
211	58	7	10000	1	1	0	1	0
205	59	7	10000	1	1	0	1	0
205	60	7	10000	1	1	0	1	0
216	60	7	10000	1	1	0	1	0
220	61	7	10000	1	1	0	1	0
217	63	7	10000	1	1	0	1	0
213	64	7	10000	1	1	0	1	0
234	65	7	10000	1	1	0	1	0
248	66	7	10000	1	1	0	1	0
242	67	7	10000	1	1	0	1	0
249	68	7	10000	1	1	0	1	0
257	69	7	10000	1	1	0	1	0
261	70	7	10000	1	1	0	1	0
268	71	7	10000	1	1	0	1	0
271	72	7	10000	1	1	0	1	0
261	73	7	10000	1	1	0	1	0
259	74	7	10000	1	1	0	1	0
252	75	7	10000	1	1	0	1	0
250	76	7	10000	1	1	0	1	0
244	77	7	10000	1	1	0	1	0
251	78	7	10000	1	1	0	1	0
253	79	7	10000	1	1	0	1	0
249	80	7	10000	1	1	0	1	0
242	81	7	10000	1	1	0	1	0
241	82	7	10000	1	1	0	1	0
240	83	7	10000	1	1	0	1	0
235	84	7	10000	1	1	0	1	0
240	85	7	10000	1	1	0	1	0
236	86	7	10000	1	1	0	1	0
227	87	7	10000	1	1	0	1	0
220	88	7	10000	1	1	0	1	0
213	89	7	10000	1	1	0	1	0
211	90	7	10000	1	1	0	1	0
208	91	7	10000	1	1	0	1	0
202	92	7	10000	1	1	0	1	0
196	93	7	10000	1	1	0	1	0
193	94	7	10000	1	1	0	1	0
192	95	7	10000	1	1	0	1	0
196	96	7	10000	1	1	0	1	0
189	97	7	10000	1	1	0	1	0
188	98	7	10000	1	1	0	1	0
184	99	7	10000	1	1	0	1	0
182	100	7	10000	1	1	0	1	0
181	100	7	10000	1	1	0	1	0
176	101	7	10000	1	1	0	1	0
176	103	7	10000	1	1	0	1	0
168	104	7	10000	1	1	0	1	0
168	105	7	10000	1	1	0	1	0
176	106	7	10000	1	1	0	1	0
171	107	7	10000	1	1	0	1	0
173	108	7	10000	1	1	0	1	0
184	109	7	10000	1	1	0	1	0
185	110	7	10000	1	1	0	1	0
188	111	7	10000	1	1	0	1	0
192	112	7	10000	1	1	0	1	0
190	113	7	10000	1	1	0	1	0
189	114	7	10000	1	1	0	1	0
186	115	7	10000	1	1	0	1	0
189	116	7	10000	1	1	0	1	0
190	117	7	10000	1	1	0	1	0
203	118	7	10000	1	1	0	1	0
201	119	7	10000	1	1	0	1	0
198	120	7	10000	1	1	0	1	0
202	121	7	10000	1	1	0	1	0
202	122	7	10000	1	1	0	1	0
202	123	7	10000	1	1	0	1	0
197	124	7	10000	1	1	0	1	0
216	125	7	10000	1	1	0	1	0
230	126	7	10000	1	1	0	1	0
224	127	7	10000	1	1	0	1	0
229	128	7	10000	1	1	0	1	0
225	129	7	10000	1	1	0	1	0
223	130	7	10000	1	1	0	1	0
216	131	7	10000	1	1	0	1	0
208	132	7	10000	1	1	0	1	0
201	133	7	10000	1	1	0	1	0
203	134	7	10000	1	1	0	1	0
201	135	7	10000	1	1	0	1	0
202	136	7	10000	1	1	0	1	0
196	137	7	10000	1	1	0	1	0
189	138	7	10000	1	1	0	1	0
188	139	7	10000	1	1	0	1	0
192	140	7	10000	1	1	0	1	0
202	140	7	10000	1	1	0	1	0
203	141	7	10000	1	1	0	1	0
200	143	7	10000	1	1	0	1	0
198	144	7	10000	1	1	0	1	0
196	145	7	10000	1	1	0	1	0
195	146	7	10000	1	1	0	1	0
191	147	7	10000	1	1	0	1	0
185	148	7	10000	1	1	0	1	0
180	149	7	10000	1	1	0	1	0
174	150	7	10000	1	1	0	1	0
180	151	7	10000	1	1	0	1	0
191	152	7	10000	1	1	0	1	0
208	153	7	10000	1	1	0	1	0
228	154	7	10000	1	1	0	1	0
229	155	7	10000	1	1	0	1	0
220	156	7	10000	1	1	0	1	0
212	157	7	10000	1	1	0	1	0
215	158	7	10000	1	1	0	1	0
212	159	7	10000	1	1	0	1	0
207	160	7	10000	1	1	0	1	0
200	161	7	10000	1	1	0	1	0
194	162	7	10000	1	1	0	1	0
190	163	7	10000	1	1	0	1	0
182	164	7	10000	1	1	0	1	0
178	165	7	10000	1	1	0	1	0
176	166	7	10000	1	1	0	1	0
175	167	7	10000	1	1	0	1	0
171	168	7	10000	1	1	0	1	0
168	169	7	10000	1	1	0	1	0
167	170	7	10000	1	1	0	1	0
166	171	7	10000	1	1	0	1	0
171	172	7	10000	1	1	0	1	0
176	173	7	10000	1	1	0	1	0
171	174	7	10000	1	1	0	1	0
173	175	7	10000	1	1	0	1	0
185	176	7	10000	1	1	0	1	0
185	177	7	10000	1	1	0	1	0
191	178	7	10000	1	1	0	1	0
193	179	7	10000	1	1	0	1	0
190	180	7	10000	1	1	0	1	0
190	180	7	10000	1	1	0	1	0
196	181	7	10000	1	1	0	1	0
205	183	7	10000	1	1	0	1	0
200	184	7	10000	1	1	0	1	0
203	185	7	10000	1	1	0	1	0
211	186	7	10000	1	1	0	1	0
225	187	7	10000	1	1	0	1	0
227	188	7	10000	1	1	0	1	0
219	189	7	10000	1	1	0	1	0
210	190	7	10000	1	1	0	1	0
205	191	7	10000	1	1	0	1	0
211	192	7	10000	1	1	0	1	0
211	193	7	10000	1	1	0	1	0
206	194	7	10000	1	1	0	1	0
202	195	7	10000	1	1	0	1	0
211	196	7	10000	1	1	0	1	0
216	197	7	10000	1	1	0	1	0
225	198	7	10000	1	1	0	1	0
225	199	7	10000	1	1	0	1	0
219	200	7	10000	1	1	0	1	0
222	201	7	10000	1	1	0	1	0
223	202	7	10000	1	1	0	1	0
229	203	7	10000	1	1	0	1	0
227	204	7	10000	1	1	0	1	0
226	205	7	10000	1	1	0	1	0
229	206	7	10000	1	1	0	1	0
229	207	7	10000	1	1	0	1	0
222	208	7	10000	1	1	0	1	0
216	209	7	10000	1	1	0	1	0
210	210	7	10000	1	1	0	1	0
204	211	7	10000	1	1	0	1	0
197	212	7	10000	1	1	0	1	0
194	213	7	10000	1	1	0	1	0
197	214	7	10000	1	1	0	1	0
197	215	7	10000	1	1	0	1	0
196	216	7	10000	1	1	0	1	0
192	217	7	10000	1	1	0	1	0
191	218	7	10000	1	1	0	1	0
187	219	7	10000	1	1	0	1	0
187	220	7	10000	1	1	0	1	0
193	221	7	10000	1	1	0	1	0
201	222	7	10000	1	1	0	1	0
206	223	7	10000	1	1	0	1	0
201	224	7	10000	1	1	0	1	0
205	225	7	10000	1	1	0	1	0
216	226	7	10000	1	1	0	1	0
219	227	7	10000	1	1	0	1	0
215	228	7	10000	1	1	0	1	0
207	229	7	10000	1	1	0	1	0
200	230	7	10000	1	1	0	1	0
192	231	7	10000	1	1	0	1	0
186	232	7	10000	1	1	0	1	0
180	233	7	10000	1	1	0	1	0
177	234	7	10000	1	1	0	1	0
174	235	7	10000	1	1	0	1	0
172	236	7	10000	1	1	0	1	0
169	237	7	10000	1	1	0	1	0
175	238	7	10000	1	1	0	1	0
170	239	7	10000	1	1	0	1	0
173	240	7	10000	1	1	0	1	0
177	241	7	10000	1	1	0	1	0
174	242	7	10000	1	1	0	1	0
173	243	7	10000	1	1	0	1	0
166	244	7	10000	1	1	0	1	0
176	245	7	10000	1	1	0	1	0
189	246	7	10000	1	1	0	1	0
194	247	7	10000	1	1	0	1	0
193	248	7	10000	1	1	0	1	0
197	249	7	10000	1	1	0	1	0
192	250	7	10000	1	1	0	1	0
188	251	7	10000	1	1	0	1	0
186	252	7	10000	1	1	0	1	0
182	253	7	10000	1	1	0	1	0
184	254	7	10000	1	1	0	1	0
185	255	7	10000	1	1	0	1	0
180	256	7	10000	1	1	0	1	0
176	257	7	10000	1	1	0	1	0
175	258	7	10000	1	1	0	1	0
174	259	7	10000	1	1	0	1	0
179	260	7	10000	1	1	0	1	0
191	261	7	10000	1	1	0	1	0
197	262	7	10000	1	1	0	1	0
202	263	7	10000	1	1	0	1	0
196	264	7	10000	1	1	0	1	0
202	265	7	10000	1	1	0	1	0
209	266	7	10000	1	1	0	1	0
209	267	7	10000	1	1	0	1	0
205	268	7	10000	1	1	0	1	0
196	269	7	10000	1	1	0	1	0
192	270	7	10000	1	1	0	1	0
189	271	7	10000	1	1	0	1	0
185	272	7	10000	1	1	0	1	0
182	273	7	10000	1	1	0	1	0
184	274	7	10000	1	1	0	1	0
183	275	7	10000	1	1	0	1	0
181	276	7	10000	1	1	0	1	0
176	277	7	10000	1	1	0	1	0
179	278	7	10000	1	1	0	1	0
179	279	7	10000	1	1	0	1	0
176	280	7	10000	1	1	0	1	0
176	281	7	10000	1	1	0	1	0
176	282	7	10000	1	1	0	1	0
169	283	7	10000	1	1	0	1	0
165	284	7	10000	1	1	0	1	0
177	285	7	10000	1	1	0	1	0
189	286	7	10000	1	1	0	1	0
190	287	7	10000	1	1	0	1	0
188	288	7	10000	1	1	0	1	0
186	289	7	10000	1	1	0	1	0
183	290	7	10000	1	1	0	1	0
177	291	7	10000	1	1	0	1	0
169	292	7	10000	1	1	0	1	0
164	293	7	10000	1	1	0	1	0
161	294	7	10000	1	1	0	1	0
159	295	7	10000	1	1	0	1	0
164	296	7	10000	1	1	0	1	0
159	297	7	10000	1	1	0	1	0
160	298	7	10000	1	1	0	1	0
154	299	7	10000	1	1	0	1	0
158	300	7	10000	1	1	0	1	0
163	301	7	10000	1	1	0	1	0
160	302	7	10000	1	1	0	1	0
162	303	7	10000	1	1	0	1	0
156	304	7	10000	1	1	0	1	0
167	305	7	10000	1	1	0	1	0
169	306	7	10000	1	1	0	1	0
165	307	7	10000	1	1	0	1	0
171	308	7	10000	1	1	0	1	0
176	309	7	10000	1	1	0	1	0
180	310	7	10000	1	1	0	1	0
180	311	7	10000	1	1	0	1	0
173	312	7	10000	1	1	0	1	0
169	313	7	10000	1	1	0	1	0
175	314	7	10000	1	1	0	1	0
170	315	7	10000	1	1	0	1	0
173	316	7	10000	1	1	0	1	0
169	317	7	10000	1	1	0	1	0
172	318	7	10000	1	1	0	1	0
167	319	7	10000	1	1	0	1	0
163	320	7	10000	1	1	0	1	0
159	321	7	10000	1	1	0	1	0
159	322	7	10000	1	1	0	1	0
155	323	7	10000	1	1	0	1	0
154	324	7	10000	1	1	0	1	0
166	325	7	10000	1	1	0	1	0
176	326	7	10000	1	1	0	1	0
172	327	7	10000	1	1	0	1	0
176	328	7	10000	1	1	0	1	0
177	329	7	10000	1	1	0	1	0
175	330	7	10000	1	1	0	1	0
174	331	7	10000	1	1	0	1	0
175	332	7	10000	1	1	0	1	0
172	333	7	10000	1	1	0	1	0
172	334	7	10000	1	1	0	1	0
171	335	7	10000	1	1	0	1	0
177	336	7	10000	1	1	0	1	0
182	337	7	10000	1	1	0	1	0
191	338	7	10000	1	1	0	1	0
190	339	7	10000	1	1	0	1	0
190	340	7	10000	1	1	0	1	0
203	341	7	10000	1	1	0	1	0
201	342	7	10000	1	1	0	1	0
193	343	7	10000	1	1	0	1	0
188	344	7	10000	1	1	0	1	0
197	345	7	10000	1	1	0	1	0
194	346	7	10000	1	1	0	1	0
195	347	7	10000	1	1	0	1	0
191	348	7	10000	1	1	0	1	0
189	349	7	10000	1	1	0	1	0
191	350	7	10000	1	1	0	1	0
193	351	7	10000	1	1	0	1	0
196	352	7	10000	1	1	0	1	0
204	353	7	10000	1	1	0	1	0
213	354	7	10000	1	1	0	1	0
209	355	7	10000	1	1	0	1	0
203	356	7	10000	1	1	0	1	0
204	357	7	10000	1	1	0	1	0
217	358	7	10000	1	1	0	1	0
212	359	7	10000	1	1	0	1	0
211	360	7	10000	1	1	0	1	0
210	361	7	10000	1	1	0	1	0
202	362	7	10000	1	1	0	1	0
203	363	7	10000	1	1	0	1	0
198	364	7	10000	1	1	0	1	0
205	365	7	10000	1	1	0	1	0
215	366	7	10000	1	1	0	1	0
218	367	7	10000	1	1	0	1	0
211	368	7	10000	1	1	0	1	0
202	369	7	10000	1	1	0	1	0
194	370	7	10000	1	1	0	1	0
187	371	7	10000	1	1	0	1	0
186	372	7	10000	1	1	0	1	0
180	373	7	10000	1	1	0	1	0
181	374	7	10000	1	1	0	1	0
179	375	7	10000	1	1	0	1	0
183	376	7	10000	1	1	0	1	0
180	377	7	10000	1	1	0	1	0
181	378	7	10000	1	1	0	1	0
176	379	7	10000	1	1	0	1	0
173	380	7	10000	1	1	0	1	0
180	380	7	10000	1	1	0	1	0
181	381	7	10000	1	1	0	1	0
183	383	7	10000	1	1	0	1	0
178	384	7	10000	1	1	0	1	0
188	385	7	10000	1	1	0	1	0
197	386	7	10000	1	1	0	1	0
198	387	7	10000	1	1	0	1	0
196	388	7	10000	1	1	0	1	0
197	389	7	10000	1	1	0	1	0
189	390	7	10000	1	1	0	1	0
182	391	7	10000	1	1	0	1	0
175	392	7	10000	1	1	0	1	0
180	393	7	10000	1	1	0	1	0
196	394	7	10000	1	1	0	1	0
196	395	7	10000	1	1	0	1	0
193	396	7	10000	1	1	0	1	0
188	397	7	10000	1	1	0	1	0
184	398	7	10000	1	1	0	1	0
178	399	7	10000	1	1	0	1	0
171	400	7	10000	1	1	0	1	0
172	401	7	10000	1	1	0	1	0
173	402	7	10000	1	1	0	1	0
173	403	7	10000	1	1	0	1	0
168	404	7	10000	1	1	0	1	0
171	405	7	10000	1	1	0	1	0
170	406	7	10000	1	1	0	1	0
175	407	7	10000	1	1	0	1	0
172	408	7	10000	1	1	0	1	0
165	409	7	10000	1	1	0	1	0
163	410	7	10000	1	1	0	1	0
165	411	7	10000	1	1	0	1	0
164	412	7	10000	1	1	0	1	0
174	413	7	10000	1	1	0	1	0
186	414	7	10000	1	1	0	1	0
184	415	7	10000	1	1	0	1	0
195	416	7	10000	1	1	0	1	0
212	417	7	10000	1	1	0	1	0
230	418	7	10000	1	1	0	1	0
223	419	7	10000	1	1	0	1	0
225	420	7	10000	1	1	0	1	0
226	420	7	10000	1	1	0	1	0
225	421	7	10000	1	1	0	1	0
223	423	7	10000	1	1	0	1	0
230	424	7	10000	1	1	0	1	0
242	425	7	10000	1	1	0	1	0
241	426	7	10000	1	1	0	1	0
234	427	7	10000	1	1	0	1	0
232	428	7	10000	1	1	0	1	0
230	429	7	10000	1	1	0	1	0
231	430	7	10000	1	1	0	1	0
225	430	7	10000	1	1	0	1	0
217	431	7	10000	1	1	0	1	0
221	433	7	10000	1	1	0	1	0
237	434	7	10000	1	1	0	1	0
241	435	7	10000	1	1	0	1	0
234	436	7	10000	1	1	0	1	0
229	437	7	10000	1	1	0	1	0
237	438	7	10000	1	1	0	1	0
233	439	7	10000	1	1	0	1	0
226	440	7	10000	1	1	0	1	0
221	440	7	10000	1	1	0	1	0
220	441	7	10000	1	1	0	1	0
221	443	7	10000	1	1	0	1	0
214	444	7	10000	1	1	0	1	0
224	445	7	10000	1	1	0	1	0
234	446	7	10000	1	1	0	1	0
243	447	7	10000	1	1	0	1	0
236	448	7	10000	1	1	0	1	0
225	449	7	10000	1	1	0	1	0
216	450	7	10000	1	1	0	1	0
208	450	7	10000	1	1	0	1	0
199	451	7	10000	1	1	0	1	0
201	453	7	10000	1	1	0	1	0
210	454	7	10000	1	1	0	1	0
209	455	7	10000	1	1	0	1	0
214	456	7	10000	1	1	0	1	0
211	457	7	10000	1	1	0	1	0
212	458	7	10000	1	1	0	1	0
213	459	7	10000	1	1	0	1	0
213	460	7	10000	1	1	0	1	0
218	460	7	10000	1	1	0	1	0
223	461	7	10000	1	1	0	1	0
221	463	7	10000	1	1	0	1	0
212	464	7	10000	1	1	0	1	0
217	465	7	10000	1	1	0	1	0
225	466	7	10000	1	1	0	1	0
220	467	7	10000	1	1	0	1	0
213	468	7	10000	1	1	0	1	0
212	469	7	10000	1	1	0	1	0
216	470	7	10000	1	1	0	1	0
215	470	7	10000	1	1	0	1	0
210	471	7	10000	1	1	0	1	0
210	473	7	10000	1	1	0	1	0
216	474	7	10000	1	1	0	1	0
211	475	7	10000	1	1	0	1	0
203	476	7	10000	1	1	0	1	0
198	477	7	10000	1	1	0	1	0
197	478	7	10000	1	1	0	1	0
191	479	7	10000	1	1	0	1	0
189	480	7	10000	1	1	0	1	0
190	480	7	10000	1	1	0	1	0
188	481	7	10000	1	1	0	1	0
182	483	7	10000	1	1	0	1	0
176	484	7	10000	1	1	0	1	0
172	485	7	10000	1	1	0	1	0
165	486	7	10000	1	1	0	1	0
160	487	7	10000	1	1	0	1	0
155	488	7	10000	1	1	0	1	0
159	489	7	10000	1	1	0	1	0
167	490	7	10000	1	1	0	1	0
172	491	7	10000	1	1	0	1	0
167	492	7	10000	1	1	0	1	0
165	493	7	10000	1	1	0	1	0
166	494	7	10000	1	1	0	1	0
164	495	7	10000	1	1	0	1	0
163	496	7	10000	1	1	0	1	0
160	497	7	10000	1	1	0	1	0
156	498	7	10000	1	1	0	1	0
149	499	7	10000	1	1	0	1	0
153	500	7	10000	1	1	0	1	0
148	500	7	10000	1	1	0	1	0
144	501	7	10000	1	1	0	1	0
140	558	7	10000	1	1	0	1	1
133	559	7	10000	1	1	0	1	1
138	560	7	10000	1	1	0	1	1
140	561	7	10000	1	1	0	1	1
138	562	7	10000	1	1	0	1	1
139	563	7	10000	1	1	0	1	1
140	564	7	10000	1	1	0	1	1
141	565	7	10000	1	1	0	1	1
137	566	7	10000	1	1	0	1	1
135	567	7	10000	1	1	0	1	1
137	568	7	10000	1	1	0	1	1
134	569	7	10000	1	1	0	1	1
136	570	7	10000	1	1	0	1	1
154	571	7	10000	1	1	0	1	1
166	572	7	10000	1	1	0	1	1
166	573	7	10000	1	1	0	1	1
164	574	7	10000	1	1	0	1	1
165	575	7	10000	1	1	0	1	1
175	576	7	10000	1	1	0	1	1
179	577	7	10000	1	1	0	1	1
177	578	7	10000	1	1	0	1	1
176	579	7	10000	1	1	0	1	1
183	580	7	10000	1	1	0	1	1
189	581	7	10000	1	1	0	1	1
187	582	7	10000	1	1	0	1	1
188	583	7	10000	1	1	0	1	1
192	584	7	10000	1	1	0	1	1
188	585	7	10000	1	1	0	1	1
182	586	7	10000	1	1	0	1	1
174	587	7	10000	1	1	0	1	1
168	588	7	10000	1	1	0	1	1
169	589	7	10000	1	1	0	1	1
167	590	7	10000	1	1	0	1	1
173	591	7	10000	1	1	0	1	1
167	592	7	10000	1	1	0	1	1
165	593	7	10000	1	1	0	1	1
160	594	7	10000	1	1	0	1	1
159	595	7	10000	1	1	0	1	1
159	596	7	10000	1	1	0	1	1
166	597	7	10000	1	1	0	1	1
166	598	7	10000	1	1	0	1	1
159	599	7	10000	1	1	0	1	1
156	600	7	10000	1	1	0	1	1
159	601	7	10000	1	1	0	1	1
156	602	7	10000	1	1	0	1	1
157	603	7	10000	1	1	0	1	1
152	604	7	10000	1	1	0	1	1
152	605	7	10000	1	1	0	1	1
151	606	7	10000	1	1	0	1	1
149	607	7	10000	1	1	0	1	1
146	608	7	10000	1	1	0	1	1
154	609	7	10000	1	1	0	1	1
154	610	7	10000	1	1	0	1	1
159	611	7	10000	1	1	0	1	1
163	612	7	10000	1	1	0	1	1
179	613	7	10000	1	1	0	1	1
183	566	7	10000	1	1	0	1	0
182	567	7	10000	1	1	0	1	0
176	568	7	10000	1	1	0	1	0
176	569	7	10000	1	1	0	1	0
180	570	7	10000	1	1	0	1	0
177	571	7	10000	1	1	0	1	0
178	572	7	10000	1	1	0	1	0
178	573	7	10000	1	1	0	1	0
172	567	7	10000	1	1	0	1	0
168	568	7	10000	1	1	0	1	0
166	569	7	10000	1	1	0	1	0
167	570	7	10000	1	1	0	1	0
172	571	7	10000	1	1	0	1	0
172	572	7	10000	1	1	0	1	0
167	573	7	10000	1	1	0	1	0
165	574	7	10000	1	1	0	1	0
169	575	7	10000	1	1	0	1	0
168	576	7	10000	1	1	0	1	0
163	577	7	10000	1	1	0	1	0
163	578	7	10000	1	1	0	1	0
157	579	7	10000	1	1	0	1	0
166	580	7	10000	1	1	0	1	0
170	581	7	10000	1	1	0	1	0
165	582	7	10000	1	1	0	1	0
161	583	7	10000	1	1	0	1	0
156	584	7	10000	1	1	0	1	0
160	585	7	10000	1	1	0	1	0
163	586	7	10000	1	1	0	1	0
172	587	7	10000	1	1	0	1	0
171	588	7	10000	1	1	0	1	0
170	589	7	10000	1	1	0	1	0
163	590	7	10000	1	1	0	1	0
164	591	7	10000	1	1	0	1	0
170	592	7	10000	1	1	0	1	0
178	593	7	10000	1	1	0	1	0
191	594	7	10000	1	1	0	1	0
193	595	7	10000	1	1	0	1	0
197	596	7	10000	1	1	0	1	0
194	597	7	10000	1	1	0	1	0
195	598	7	10000	1	1	0	1	0
187	599	7	10000	1	1	0	1	0
184	600	7	10000	1	1	0	1	0
184	601	7	10000	1	1	0	1	0
183	602	7	10000	1	1	0	1	0
179	603	7	10000	1	1	0	1	0
182	604	7	10000	1	1	0	1	0
199	605	7	10000	1	1	0	1	0
211	606	7	10000	1	1	0	1	0
206	607	7	10000	1	1	0	1	0
200	608	7	10000	1	1	0	1	0
194	609	7	10000	1	1	0	1	0
193	610	7	10000	1	1	0	1	0
190	611	7	10000	1	1	0	1	0
187	612	7	10000	1	1	0	1	0
192	613	7	10000	1	1	0	1	0
200	614	7	10000	1	1	0	1	0
194	615	7	10000	1	1	0	1	0
194	616	7	10000	1	1	0	1	0
195	617	7	10000	1	1	0	1	0
204	618	7	10000	1	1	0	1	0
201	619	7	10000	1	1	0	1	0
207	620	7	10000	1	1	0	1	0
209	620	7	10000	1	1	0	1	0
205	621	7	10000	1	1	0	1	0
202	623	7	10000	1	1	0	1	0
196	624	7	10000	1	1	0	1	0
193	625	7	10000	1	1	0	1	0
203	626	7	10000	1	1	0	1	0
201	627	7	10000	1	1	0	1	0
208	628	7	10000	1	1	0	1	0
208	629	7	10000	1	1	0	1	0
205	630	7	10000	1	1	0	1	0
200	631	7	10000	1	1	0	1	0
196	632	7	10000	1	1	0	1	0
202	633	7	10000	1	1	0	1	0
212	634	7	10000	1	1	0	1	0
214	635	7	10000	1	1	0	1	0
213	636	7	10000	1	1	0	1	0
212	637	7	10000	1	1	0	1	0
215	638	7	10000	1	1	0	1	0
210	639	7	10000	1	1	0	1	0
212	640	7	10000	1	1	0	1	0
216	640	7	10000	1	1	0	1	0
220	641	7	10000	1	1	0	1	0
211	643	7	10000	1	1	0	1	0
208	644	7	10000	1	1	0	1	0
212	645	7	10000	1	1	0	1	0
211	646	7	10000	1	1	0	1	0
215	647	7	10000	1	1	0	1	0
213	648	7	10000	1	1	0	1	0
215	649	7	10000	1	1	0	1	0
207	650	7	10000	1	1	0	1	0
200	651	7	10000	1	1	0	1	0
194	652	7	10000	1	1	0	1	0
196	653	7	10000	1	1	0	1	0
190	654	7	10000	1	1	0	1	0
196	655	7	10000	1	1	0	1	0
201	656	7	10000	1	1	0	1	0
205	657	7	10000	1	1	0	1	0
201	658	7	10000	1	1	0	1	0
197	659	7	10000	1	1	0	1	0
198	660	7	10000	1	1	0	1	0
212	660	7	10000	1	1	0	1	0
253	661	7	10000	1	1	0	1	0
273	663	7	10000	1	1	0	1	0
280	664	7	10000	1	1	0	1	0
313	665	7	10000	1	1	0	1	0
329	666	7	10000	1	1	0	1	0
318	667	7	10000	1	1	0	1	0
318	668	7	10000	1	1	0	1	0
332	669	7	10000	1	1	0	1	0
329	670	7	10000	1	1	0	1	0
346	671	7	10000	1	1	0	1	0
362	672	7	10000	1	1	0	1	0
444	673	7	10000	1	1	0	1	0
492	674	7	10000	1	1	0	1	0
477	675	7	10000	1	1	0	1	0
464	676	7	10000	1	1	0	1	0
477	677	7	10000	1	1	0	1	0
513	678	7	10000	1	1	0	1	0
638	679	7	10000	1	1	0	1	0
667	680	7	10000	1	1	0	1	0
730	681	7	10000	1	1	0	1	0
722	682	7	10000	1	1	0	1	0
810	683	7	10000	1	1	0	1	0
835	684	7	10000	1	1	0	1	0
825	685	7	10000	1	1	0	1	0
797	686	7	10000	1	1	0	1	0
775	687	7	10000	1	1	0	1	0
769	688	7	10000	1	1	0	1	0
757	689	7	10000	1	1	0	1	0
771	690	7	10000	1	1	0	1	0
756	691	7	10000	1	1	0	1	0
734	692	7	10000	1	1	0	1	0
712	693	7	10000	1	1	0	1	0
701	694	7	10000	1	1	0	1	0
675	695	7	10000	1	1	0	1	0
655	696	7	10000	1	1	0	1	0
627	697	7	10000	1	1	0	1	0
610	698	7	10000	1	1	0	1	0
612	699	7	10000	1	1	0	1	0
627	700	7	10000	1	1	0	1	0
627	701	7	10000	1	1	0	1	0
615	702	7	10000	1	1	0	1	0
606	703	7	10000	1	1	0	1	0
583	704	7	10000	1	1	0	1	0
564	705	7	10000	1	1	0	1	0
543	706	7	10000	1	1	0	1	0
538	707	7	10000	1	1	0	1	0
541	708	7	10000	1	1	0	1	0
535	709	7	10000	1	1	0	1	0
524	710	7	10000	1	1	0	1	0
504	711	7	10000	1	1	0	1	0
481	712	7	10000	1	1	0	1	0
462	713	7	10000	1	1	0	1	0
443	714	7	10000	1	1	0	1	0
440	715	7	10000	1	1	0	1	0
442	716	7	10000	1	1	0	1	0
443	717	7	10000	1	1	0	1	0
445	718	7	10000	1	1	0	1	0
436	719	7	10000	1	1	0	1	0
418	720	7	10000	1	1	0	1	0
409	721	7	10000	1	1	0	1	0
401	722	7	10000	1	1	0	1	0
393	723	7	10000	1	1	0	1	0
403	724	7	10000	1	1	0	1	0
428	725	7	10000	1	1	0	1	0
445	726	7	10000	1	1	0	1	0
454	727	7	10000	1	1	0	1	0
452	728	7	10000	1	1	0	1	0
455	729	7	10000	1	1	0	1	0
453	730	7	10000	1	1	0	1	0
442	731	7	10000	1	1	0	1	0
432	732	7	10000	1	1	0	1	0
422	733	7	10000	1	1	0	1	0
404	734	7	10000	1	1	0	1	0
407	735	7	10000	1	1	0	1	0
421	736	7	10000	1	1	0	1	0
434	737	7	10000	1	1	0	1	0
455	738	7	10000	1	1	0	1	0
456	739	7	10000	1	1	0	1	0
451	740	7	10000	1	1	0	1	0
448	740	7	10000	1	1	0	1	0
442	741	7	10000	1	1	0	1	0
436	743	7	10000	1	1	0	1	0
446	744	7	10000	1	1	0	1	0
464	745	7	10000	1	1	0	1	0
473	746	7	10000	1	1	0	1	0
478	747	7	10000	1	1	0	1	0
470	748	7	10000	1	1	0	1	0
452	749	7	10000	1	1	0	1	0
432	750	7	10000	1	1	0	1	0
418	751	7	10000	1	1	0	1	0
405	752	7	10000	1	1	0	1	0
393	753	7	10000	1	1	0	1	0
389	754	7	10000	1	1	0	1	0
378	755	7	10000	1	1	0	1	0
367	756	7	10000	1	1	0	1	0
353	757	7	10000	1	1	0	1	0
345	758	7	10000	1	1	0	1	0
332	759	7	10000	1	1	0	1	0
320	760	7	10000	1	1	0	1	0
309	761	7	10000	1	1	0	1	0
305	762	7	10000	1	1	0	1	0
302	763	7	10000	1	1	0	1	0
289	764	7	10000	1	1	0	1	0
287	765	7	10000	1	1	0	1	0
281	766	7	10000	1	1	0	1	0
270	767	7	10000	1	1	0	1	0
271	768	7	10000	1	1	0	1	0
274	769	7	10000	1	1	0	1	0
269	770	7	10000	1	1	0	1	0
269	771	7	10000	1	1	0	1	0
273	772	7	10000	1	1	0	1	0
278	773	7	10000	1	1	0	1	0
281	774	7	10000	1	1	0	1	0
273	775	7	10000	1	1	0	1	0
266	776	7	10000	1	1	0	1	0
259	777	7	10000	1	1	0	1	0
253	778	7	10000	1	1	0	1	0
242	779	7	10000	1	1	0	1	0
237	780	7	10000	1	1	0	1	0
233	781	7	10000	1	1	0	1	0
233	782	7	10000	1	1	0	1	0
223	783	7	10000	1	1	0	1	0
218	784	7	10000	1	1	0	1	0
224	785	7	10000	1	1	0	1	0
225	786	7	10000	1	1	0	1	0
221	787	7	10000	1	1	0	1	0
222	788	7	10000	1	1	0	1	0
216	789	7	10000	1	1	0	1	0
209	790	7	10000	1	1	0	1	0
202	791	7	10000	1	1	0	1	0
198	792	7	10000	1	1	0	1	0
191	793	7	10000	1	1	0	1	0
195	794	7	10000	1	1	0	1	0
193	795	7	10000	1	1	0	1	0
195	796	7	10000	1	1	0	1	0
189	797	7	10000	1	1	0	1	0
189	798	7	10000	1	1	0	1	0
183	799	7	10000	1	1	0	1	0
178	800	7	10000	1	1	0	1	0
175	801	7	10000	1	1	0	1	0
174	802	7	10000	1	1	0	1	0
175	803	7	10000	1	1	0	1	0
172	804	7	10000	1	1	0	1	0
178	805	7	10000	1	1	0	1	0
186	806	7	10000	1	1	0	1	0
186	807	7	10000	1	1	0	1	0
185	808	7	10000	1	1	0	1	0
178	809	7	10000	1	1	0	1	0
171	810	7	10000	1	1	0	1	0
171	811	7	10000	1	1	0	1	0
177	812	7	10000	1	1	0	1	0
189	813	7	10000	1	1	0	1	0
212	814	7	10000	1	1	0	1	0
212	815	7	10000	1	1	0	1	0
205	816	7	10000	1	1	0	1	0
199	817	7	10000	1	1	0	1	0
196	818	7	10000	1	1	0	1	0
193	819	7	10000	1	1	0	1	0
205	820	7	10000	1	1	0	1	0
205	821	7	10000	1	1	0	1	0
206	822	7	10000	1	1	0	1	0
209	823	7	10000	1	1	0	1	0
206	824	7	10000	1	1	0	1	0
210	825	7	10000	1	1	0	1	0
216	826	7	10000	1	1	0	1	0
214	827	7	10000	1	1	0	1	0
212	828	7	10000	1	1	0	1	0
206	829	7	10000	1	1	0	1	0
199	830	7	10000	1	1	0	1	0
198	831	7	10000	1	1	0	1	0
199	832	7	10000	1	1	0	1	0
201	833	7	10000	1	1	0	1	0
202	834	7	10000	1	1	0	1	0
204	835	7	10000	1	1	0	1	0
205	836	7	10000	1	1	0	1	0
208	837	7	10000	1	1	0	1	0
213	838	7	10000	1	1	0	1	0
208	839	7	10000	1	1	0	1	0
204	840	7	10000	1	1	0	1	0
198	840	7	10000	1	1	0	1	0
195	841	7	10000	1	1	0	1	0
195	843	7	10000	1	1	0	1	0
189	844	7	10000	1	1	0	1	0
190	845	7	10000	1	1	0	1	0
190	846	7	10000	1	1	0	1	0
186	847	7	10000	1	1	0	1	0
189	848	7	10000	1	1	0	1	0
192	849	7	10000	1	1	0	1	0
193	850	7	10000	1	1	0	1	0
198	851	7	10000	1	1	0	1	0
200	852	7	10000	1	1	0	1	0
198	853	7	10000	1	1	0	1	0
197	854	7	10000	1	1	0	1	0
199	855	7	10000	1	1	0	1	0
210	856	7	10000	1	1	0	1	0
221	857	7	10000	1	1	0	1	0
235	858	7	10000	1	1	0	1	0
239	859	7	10000	1	1	0	1	0
235	860	7	10000	1	1	0	1	0
236	861	7	10000	1	1	0	1	0
228	862	7	10000	1	1	0	1	0
224	863	7	10000	1	1	0	1	0
216	864	7	10000	1	1	0	1	0
213	865	7	10000	1	1	0	1	0
206	866	7	10000	1	1	0	1	0
202	867	7	10000	1	1	0	1	0
205	868	7	10000	1	1	0	1	0
200	869	7	10000	1	1	0	1	0
191	870	7	10000	1	1	0	1	0
186	871	7	10000	1	1	0	1	0
178	872	7	10000	1	1	0	1	0
173	873	7	10000	1	1	0	1	0
179	874	7	10000	1	1	0	1	0
177	875	7	10000	1	1	0	1	0
175	876	7	10000	1	1	0	1	0
171	877	7	10000	1	1	0	1	0
171	878	7	10000	1	1	0	1	0
166	879	7	10000	1	1	0	1	0
175	880	7	10000	1	1	0	1	0
185	881	7	10000	1	1	0	1	0
193	882	7	10000	1	1	0	1	0
191	883	7	10000	1	1	0	1	0
195	884	7	10000	1	1	0	1	0
195	885	7	10000	1	1	0	1	0
190	886	7	10000	1	1	0	1	0
188	887	7	10000	1	1	0	1	0
189	888	7	10000	1	1	0	1	0
182	889	7	10000	1	1	0	1	0
178	890	7	10000	1	1	0	1	0
174	891	7	10000	1	1	0	1	0
170	892	7	10000	1	1	0	1	0
169	893	7	10000	1	1	0	1	0
182	894	7	10000	1	1	0	1	0
202	895	7	10000	1	1	0	1	0
204	896	7	10000	1	1	0	1	0
199	897	7	10000	1	1	0	1	0
198	898	7	10000	1	1	0	1	0
222	899	7	10000	1	1	0	1	0
231	900	7	10000	1	1	0	1	0
223	900	7	10000	1	1	0	1	0
232	901	7	10000	1	1	0	1	0
240	903	7	10000	1	1	0	1	0
240	904	7	10000	1	1	0	1	0
281	905	7	10000	1	1	0	1	0
333	906	7	10000	1	1	0	1	0
370	907	7	10000	1	1	0	1	0
360	908	7	10000	1	1	0	1	0
363	909	7	10000	1	1	0	1	0
398	910	7	10000	1	1	0	1	0
401	911	7	10000	1	1	0	1	0
407	912	7	10000	1	1	0	1	0
399	913	7	10000	1	1	0	1	0
397	914	7	10000	1	1	0	1	0
395	915	7	10000	1	1	0	1	0
382	916	7	10000	1	1	0	1	0
410	917	7	10000	1	1	0	1	0
433	918	7	10000	1	1	0	1	0
424	919	7	10000	1	1	0	1	0
475	920	7	10000	1	1	0	1	0
505	921	7	10000	1	1	0	1	0
526	922	7	10000	1	1	0	1	0
507	923	7	10000	1	1	0	1	0
505	924	7	10000	1	1	0	1	0
501	925	7	10000	1	1	0	1	0
488	926	7	10000	1	1	0	1	0
476	927	7	10000	1	1	0	1	0
481	928	7	10000	1	1	0	1	0
477	929	7	10000	1	1	0	1	0
497	930	7	10000	1	1	0	1	0
514	930	7	10000	1	1	0	1	0
516	931	7	10000	1	1	0	1	0
528	933	7	10000	1	1	0	1	0
546	934	7	10000	1	1	0	1	0
538	935	7	10000	1	1	0	1	0
517	936	7	10000	1	1	0	1	0
519	937	7	10000	1	1	0	1	0
532	938	7	10000	1	1	0	1	0
532	939	7	10000	1	1	0	1	0
533	940	7	10000	1	1	0	1	0
588	941	7	10000	1	1	0	1	0
586	942	7	10000	1	1	0	1	0
571	943	7	10000	1	1	0	1	0
567	944	7	10000	1	1	0	1	0
635	945	7	10000	1	1	0	1	0
690	946	7	10000	1	1	0	1	0
701	947	7	10000	1	1	0	1	0
808	948	7	10000	1	1	0	1	0
820	949	7	10000	1	1	0	1	0
805	950	7	10000	1	1	0	1	0
780	951	7	10000	1	1	0	1	0
774	952	7	10000	1	1	0	1	0
780	953	7	10000	1	1	0	1	0
795	954	7	10000	1	1	0	1	0
770	955	7	10000	1	1	0	1	0
758	956	7	10000	1	1	0	1	0
741	957	7	10000	1	1	0	1	0
729	958	7	10000	1	1	0	1	0
699	959	7	10000	1	1	0	1	0
678	960	7	10000	1	1	0	1	0
656	960	7	10000	1	1	0	1	0
641	961	7	10000	1	1	0	1	0
620	963	7	10000	1	1	0	1	0
610	964	7	10000	1	1	0	1	0
600	965	7	10000	1	1	0	1	0
599	966	7	10000	1	1	0	1	0
634	967	7	10000	1	1	0	1	0
664	968	7	10000	1	1	0	1	0
656	969	7	10000	1	1	0	1	0
695	970	7	10000	1	1	0	1	0
713	971	7	10000	1	1	0	1	0
729	972	7	10000	1	1	0	1	0
726	973	7	10000	1	1	0	1	0
713	974	7	10000	1	1	0	1	0
776	975	7	10000	1	1	0	1	0
803	976	7	10000	1	1	0	1	0
781	977	7	10000	1	1	0	1	0
766	978	7	10000	1	1	0	1	0
763	979	7	10000	1	1	0	1	0
744	980	7	10000	1	1	0	1	0
716	981	7	10000	1	1	0	1	0
684	982	7	10000	1	1	0	1	0
657	983	7	10000	1	1	0	1	0
643	984	7	10000	1	1	0	1	0
635	985	7	10000	1	1	0	1	0
631	986	7	10000	1	1	0	1	0
625	987	7	10000	1	1	0	1	0
607	988	7	10000	1	1	0	1	0
599	989	7	10000	1	1	0	1	0
601	990	7	10000	1	1	0	1	0
577	991	7	10000	1	1	0	1	0
568	992	7	10000	1	1	0	1	0
570	993	7	10000	1	1	0	1	0
605	994	7	10000	1	1	0	1	0
613	995	7	10000	1	1	0	1	0
640	996	7	10000	1	1	0	1	0
648	997	7	10000	1	1	0	1	0
673	998	7	10000	1	1	0	1	0
665	999	7	10000	1	1	0	1	0
673	1000	7	10000	1	1	0	1	0
176	2	7	10000	2	1	0	2	0
169	3	7	10000	2	1	0	2	0
167	4	7	10000	2	1	0	2	0
169	5	7	10000	2	1	0	2	0
165	6	7	10000	2	1	0	2	0
165	7	7	10000	2	1	0	2	0
165	8	7	10000	2	1	0	2	0
170	9	7	10000	2	1	0	2	0
170	10	7	10000	2	1	0	2	0
164	11	7	10000	2	1	0	2	0
156	12	7	10000	2	1	0	2	0
156	13	7	10000	2	1	0	2	0
164	14	7	10000	2	1	0	2	0
162	15	7	10000	2	1	0	2	0
169	16	7	10000	2	1	0	2	0
178	17	7	10000	2	1	0	2	0
182	18	7	10000	2	1	0	2	0
180	19	7	10000	2	1	0	2	0
181	20	7	10000	2	1	0	2	0
176	21	7	10000	2	1	0	2	0
168	22	7	10000	2	1	0	2	0
169	23	7	10000	2	1	0	2	0
183	24	7	10000	2	1	0	2	0
201	25	7	10000	2	1	0	2	0
202	26	7	10000	2	1	0	2	0
208	27	7	10000	2	1	0	2	0
213	28	7	10000	2	1	0	2	0
222	29	7	10000	2	1	0	2	0
216	30	7	10000	2	1	0	2	0
212	31	7	10000	2	1	0	2	0
211	32	7	10000	2	1	0	2	0
209	33	7	10000	2	1	0	2	0
219	34	7	10000	2	1	0	2	0
216	35	7	10000	2	1	0	2	0
214	36	7	10000	2	1	0	2	0
215	37	7	10000	2	1	0	2	0
211	38	7	10000	2	1	0	2	0
207	39	7	10000	2	1	0	2	0
204	40	7	10000	2	1	0	2	0
203	41	7	10000	2	1	0	2	0
204	42	7	10000	2	1	0	2	0
202	43	7	10000	2	1	0	2	0
197	44	7	10000	2	1	0	2	0
202	45	7	10000	2	1	0	2	0
198	46	7	10000	2	1	0	2	0
197	47	7	10000	2	1	0	2	0
190	48	7	10000	2	1	0	2	0
197	49	7	10000	2	1	0	2	0
192	50	7	10000	2	1	0	2	0
189	51	7	10000	2	1	0	2	0
190	52	7	10000	2	1	0	2	0
189	53	7	10000	2	1	0	2	0
185	54	7	10000	2	1	0	2	0
182	55	7	10000	2	1	0	2	0
193	56	7	10000	2	1	0	2	0
200	57	7	10000	2	1	0	2	0
206	58	7	10000	2	1	0	2	0
201	59	7	10000	2	1	0	2	0
192	60	7	10000	2	1	0	2	0
184	61	7	10000	2	1	0	2	0
181	62	7	10000	2	1	0	2	0
183	63	7	10000	2	1	0	2	0
189	64	7	10000	2	1	0	2	0
198	65	7	10000	2	1	0	2	0
195	66	7	10000	2	1	0	2	0
191	67	7	10000	2	1	0	2	0
199	68	7	10000	2	1	0	2	0
206	69	7	10000	2	1	0	2	0
200	70	7	10000	2	1	0	2	0
198	71	7	10000	2	1	0	2	0
201	72	7	10000	2	1	0	2	0
196	73	7	10000	2	1	0	2	0
189	74	7	10000	2	1	0	2	0
192	75	7	10000	2	1	0	2	0
197	76	7	10000	2	1	0	2	0
193	77	7	10000	2	1	0	2	0
187	78	7	10000	2	1	0	2	0
185	79	7	10000	2	1	0	2	0
180	80	7	10000	2	1	0	2	0
175	81	7	10000	2	1	0	2	0
169	82	7	10000	2	1	0	2	0
162	83	7	10000	2	1	0	2	0
156	84	7	10000	2	1	0	2	0
158	85	7	10000	2	1	0	2	0
155	86	7	10000	2	1	0	2	0
156	87	7	10000	2	1	0	2	0
153	88	7	10000	2	1	0	2	0
154	89	7	10000	2	1	0	2	0
149	90	7	10000	2	1	0	2	0
145	91	7	10000	2	1	0	2	0
142	92	7	10000	2	1	0	2	0
139	93	7	10000	2	1	0	2	0
140	94	7	10000	2	1	0	2	0
139	95	7	10000	2	1	0	2	0
147	96	7	10000	2	1	0	2	0
149	97	7	10000	2	1	0	2	0
147	98	7	10000	2	1	0	2	0
146	99	7	10000	2	1	0	2	0
149	100	7	10000	2	1	0	2	0
145	101	7	10000	2	1	0	2	0
142	102	7	10000	2	1	0	2	0
136	103	7	10000	2	1	0	2	0
136	104	7	10000	2	1	0	2	0
143	105	7	10000	2	1	0	2	0
141	106	7	10000	2	1	0	2	0
144	107	7	10000	2	1	0	2	0
141	108	7	10000	2	1	0	2	0
146	109	7	10000	2	1	0	2	0
145	110	7	10000	2	1	0	2	0
145	111	7	10000	2	1	0	2	0
141	112	7	10000	2	1	0	2	0
144	113	7	10000	2	1	0	2	0
150	114	7	10000	2	1	0	2	0
145	115	7	10000	2	1	0	2	0
152	116	7	10000	2	1	0	2	0
161	117	7	10000	2	1	0	2	0
165	118	7	10000	2	1	0	2	0
163	119	7	10000	2	1	0	2	0
164	120	7	10000	2	1	0	2	0
161	121	7	10000	2	1	0	2	0
160	122	7	10000	2	1	0	2	0
161	123	7	10000	2	1	0	2	0
166	124	7	10000	2	1	0	2	0
173	125	7	10000	2	1	0	2	0
171	126	7	10000	2	1	0	2	0
170	127	7	10000	2	1	0	2	0
165	128	7	10000	2	1	0	2	0
168	129	7	10000	2	1	0	2	0
161	130	7	10000	2	1	0	2	0
156	131	7	10000	2	1	0	2	0
157	132	7	10000	2	1	0	2	0
162	133	7	10000	2	1	0	2	0
168	134	7	10000	2	1	0	2	0
168	135	7	10000	2	1	0	2	0
179	136	7	10000	2	1	0	2	0
182	137	7	10000	2	1	0	2	0
179	138	7	10000	2	1	0	2	0
180	139	7	10000	2	1	0	2	0
180	140	7	10000	2	1	0	2	0
179	141	7	10000	2	1	0	2	0
186	142	7	10000	2	1	0	2	0
188	143	7	10000	2	1	0	2	0
191	144	7	10000	2	1	0	2	0
197	145	7	10000	2	1	0	2	0
193	146	7	10000	2	1	0	2	0
186	147	7	10000	2	1	0	2	0
181	148	7	10000	2	1	0	2	0
180	149	7	10000	2	1	0	2	0
173	150	7	10000	2	1	0	2	0
171	151	7	10000	2	1	0	2	0
176	152	7	10000	2	1	0	2	0
182	153	7	10000	2	1	0	2	0
185	154	7	10000	2	1	0	2	0
179	155	7	10000	2	1	0	2	0
182	156	7	10000	2	1	0	2	0
186	157	7	10000	2	1	0	2	0
182	158	7	10000	2	1	0	2	0
186	159	7	10000	2	1	0	2	0
189	160	7	10000	2	1	0	2	0
186	161	7	10000	2	1	0	2	0
186	162	7	10000	2	1	0	2	0
182	163	7	10000	2	1	0	2	0
180	164	7	10000	2	1	0	2	0
193	165	7	10000	2	1	0	2	0
191	166	7	10000	2	1	0	2	0
190	167	7	10000	2	1	0	2	0
194	168	7	10000	2	1	0	2	0
203	169	7	10000	2	1	0	2	0
200	170	7	10000	2	1	0	2	0
194	171	7	10000	2	1	0	2	0
192	172	7	10000	2	1	0	2	0
186	173	7	10000	2	1	0	2	0
178	174	7	10000	2	1	0	2	0
181	175	7	10000	2	1	0	2	0
198	176	7	10000	2	1	0	2	0
209	177	7	10000	2	1	0	2	0
213	178	7	10000	2	1	0	2	0
208	179	7	10000	2	1	0	2	0
202	180	7	10000	2	1	0	2	0
199	181	7	10000	2	1	0	2	0
198	182	7	10000	2	1	0	2	0
192	183	7	10000	2	1	0	2	0
187	184	7	10000	2	1	0	2	0
182	185	7	10000	2	1	0	2	0
177	186	7	10000	2	1	0	2	0
175	187	7	10000	2	1	0	2	0
177	188	7	10000	2	1	0	2	0
180	189	7	10000	2	1	0	2	0
177	190	7	10000	2	1	0	2	0
173	191	7	10000	2	1	0	2	0
171	192	7	10000	2	1	0	2	0
172	193	7	10000	2	1	0	2	0
169	194	7	10000	2	1	0	2	0
169	195	7	10000	2	1	0	2	0
170	196	7	10000	2	1	0	2	0
171	197	7	10000	2	1	0	2	0
166	198	7	10000	2	1	0	2	0
169	199	7	10000	2	1	0	2	0
171	200	7	10000	2	1	0	2	0
169	201	7	10000	2	1	0	2	0
166	202	7	10000	2	1	0	2	0
160	203	7	10000	2	1	0	2	0
158	204	7	10000	2	1	0	2	0
156	205	7	10000	2	1	0	2	0
153	206	7	10000	2	1	0	2	0
159	207	7	10000	2	1	0	2	0
163	208	7	10000	2	1	0	2	0
172	209	7	10000	2	1	0	2	0
171	210	7	10000	2	1	0	2	0
168	211	7	10000	2	1	0	2	0
174	212	7	10000	2	1	0	2	0
182	213	7	10000	2	1	0	2	0
181	214	7	10000	2	1	0	2	0
176	215	7	10000	2	1	0	2	0
179	216	7	10000	2	1	0	2	0
187	217	7	10000	2	1	0	2	0
189	218	7	10000	2	1	0	2	0
183	219	7	10000	2	1	0	2	0
179	220	7	10000	2	1	0	2	0
177	221	7	10000	2	1	0	2	0
171	222	7	10000	2	1	0	2	0
166	223	7	10000	2	1	0	2	0
163	224	7	10000	2	1	0	2	0
165	225	7	10000	2	1	0	2	0
166	226	7	10000	2	1	0	2	0
171	227	7	10000	2	1	0	2	0
174	228	7	10000	2	1	0	2	0
183	229	7	10000	2	1	0	2	0
178	230	7	10000	2	1	0	2	0
174	231	7	10000	2	1	0	2	0
167	232	7	10000	2	1	0	2	0
161	233	7	10000	2	1	0	2	0
159	234	7	10000	2	1	0	2	0
158	235	7	10000	2	1	0	2	0
165	236	7	10000	2	1	0	2	0
165	237	7	10000	2	1	0	2	0
161	238	7	10000	2	1	0	2	0
157	239	7	10000	2	1	0	2	0
154	240	7	10000	2	1	0	2	0
149	241	7	10000	2	1	0	2	0
151	242	7	10000	2	1	0	2	0
154	243	7	10000	2	1	0	2	0
163	244	7	10000	2	1	0	2	0
173	245	7	10000	2	1	0	2	0
171	246	7	10000	2	1	0	2	0
167	247	7	10000	2	1	0	2	0
161	248	7	10000	2	1	0	2	0
159	249	7	10000	2	1	0	2	0
153	250	7	10000	2	1	0	2	0
154	251	7	10000	2	1	0	2	0
153	252	7	10000	2	1	0	2	0
152	253	7	10000	2	1	0	2	0
153	254	7	10000	2	1	0	2	0
154	255	7	10000	2	1	0	2	0
159	256	7	10000	2	1	0	2	0
167	257	7	10000	2	1	0	2	0
168	258	7	10000	2	1	0	2	0
168	259	7	10000	2	1	0	2	0
171	260	7	10000	2	1	0	2	0
167	261	7	10000	2	1	0	2	0
166	262	7	10000	2	1	0	2	0
167	263	7	10000	2	1	0	2	0
164	264	7	10000	2	1	0	2	0
162	265	7	10000	2	1	0	2	0
163	266	7	10000	2	1	0	2	0
165	267	7	10000	2	1	0	2	0
160	268	7	10000	2	1	0	2	0
167	269	7	10000	2	1	0	2	0
164	270	7	10000	2	1	0	2	0
169	271	7	10000	2	1	0	2	0
167	272	7	10000	2	1	0	2	0
167	273	7	10000	2	1	0	2	0
164	274	7	10000	2	1	0	2	0
165	275	7	10000	2	1	0	2	0
179	276	7	10000	2	1	0	2	0
184	277	7	10000	2	1	0	2	0
191	278	7	10000	2	1	0	2	0
187	279	7	10000	2	1	0	2	0
189	280	7	10000	2	1	0	2	0
185	281	7	10000	2	1	0	2	0
191	282	7	10000	2	1	0	2	0
198	283	7	10000	2	1	0	2	0
204	284	7	10000	2	1	0	2	0
209	285	7	10000	2	1	0	2	0
205	286	7	10000	2	1	0	2	0
200	287	7	10000	2	1	0	2	0
193	288	7	10000	2	1	0	2	0
195	289	7	10000	2	1	0	2	0
189	290	7	10000	2	1	0	2	0
181	291	7	10000	2	1	0	2	0
177	292	7	10000	2	1	0	2	0
175	293	7	10000	2	1	0	2	0
175	294	7	10000	2	1	0	2	0
172	295	7	10000	2	1	0	2	0
177	296	7	10000	2	1	0	2	0
179	297	7	10000	2	1	0	2	0
180	298	7	10000	2	1	0	2	0
178	299	7	10000	2	1	0	2	0
178	300	7	10000	2	1	0	2	0
177	301	7	10000	2	1	0	2	0
173	302	7	10000	2	1	0	2	0
170	303	7	10000	2	1	0	2	0
166	304	7	10000	2	1	0	2	0
173	305	7	10000	2	1	0	2	0
170	306	7	10000	2	1	0	2	0
170	307	7	10000	2	1	0	2	0
170	308	7	10000	2	1	0	2	0
173	309	7	10000	2	1	0	2	0
168	310	7	10000	2	1	0	2	0
168	311	7	10000	2	1	0	2	0
168	312	7	10000	2	1	0	2	0
169	313	7	10000	2	1	0	2	0
171	314	7	10000	2	1	0	2	0
172	315	7	10000	2	1	0	2	0
184	316	7	10000	2	1	0	2	0
193	317	7	10000	2	1	0	2	0
199	318	7	10000	2	1	0	2	0
197	319	7	10000	2	1	0	2	0
192	320	7	10000	2	1	0	2	0
183	321	7	10000	2	1	0	2	0
181	322	7	10000	2	1	0	2	0
180	323	7	10000	2	1	0	2	0
182	324	7	10000	2	1	0	2	0
187	325	7	10000	2	1	0	2	0
183	326	7	10000	2	1	0	2	0
180	327	7	10000	2	1	0	2	0
174	328	7	10000	2	1	0	2	0
176	329	7	10000	2	1	0	2	0
170	330	7	10000	2	1	0	2	0
166	331	7	10000	2	1	0	2	0
167	332	7	10000	2	1	0	2	0
165	333	7	10000	2	1	0	2	0
163	334	7	10000	2	1	0	2	0
164	335	7	10000	2	1	0	2	0
171	336	7	10000	2	1	0	2	0
177	337	7	10000	2	1	0	2	0
174	338	7	10000	2	1	0	2	0
170	339	7	10000	2	1	0	2	0
164	340	7	10000	2	1	0	2	0
158	341	7	10000	2	1	0	2	0
155	342	7	10000	2	1	0	2	0
154	343	7	10000	2	1	0	2	0
158	344	7	10000	2	1	0	2	0
160	345	7	10000	2	1	0	2	0
161	346	7	10000	2	1	0	2	0
164	347	7	10000	2	1	0	2	0
167	348	7	10000	2	1	0	2	0
174	349	7	10000	2	1	0	2	0
173	350	7	10000	2	1	0	2	0
172	351	7	10000	2	1	0	2	0
175	352	7	10000	2	1	0	2	0
176	353	7	10000	2	1	0	2	0
175	354	7	10000	2	1	0	2	0
171	355	7	10000	2	1	0	2	0
177	356	7	10000	2	1	0	2	0
179	357	7	10000	2	1	0	2	0
179	358	7	10000	2	1	0	2	0
176	359	7	10000	2	1	0	2	0
173	360	7	10000	2	1	0	2	0
170	361	7	10000	2	1	0	2	0
172	362	7	10000	2	1	0	2	0
171	363	7	10000	2	1	0	2	0
170	364	7	10000	2	1	0	2	0
171	365	7	10000	2	1	0	2	0
169	366	7	10000	2	1	0	2	0
169	367	7	10000	2	1	0	2	0
166	368	7	10000	2	1	0	2	0
175	369	7	10000	2	1	0	2	0
172	370	7	10000	2	1	0	2	0
172	371	7	10000	2	1	0	2	0
171	372	7	10000	2	1	0	2	0
171	373	7	10000	2	1	0	2	0
168	374	7	10000	2	1	0	2	0
165	375	7	10000	2	1	0	2	0
166	376	7	10000	2	1	0	2	0
169	377	7	10000	2	1	0	2	0
168	378	7	10000	2	1	0	2	0
164	379	7	10000	2	1	0	2	0
158	380	7	10000	2	1	0	2	0
152	381	7	10000	2	1	0	2	0
152	382	7	10000	2	1	0	2	0
153	383	7	10000	2	1	0	2	0
155	384	7	10000	2	1	0	2	0
162	385	7	10000	2	1	0	2	0
160	386	7	10000	2	1	0	2	0
157	387	7	10000	2	1	0	2	0
152	388	7	10000	2	1	0	2	0
154	389	7	10000	2	1	0	2	0
149	390	7	10000	2	1	0	2	0
154	391	7	10000	2	1	0	2	0
157	392	7	10000	2	1	0	2	0
162	393	7	10000	2	1	0	2	0
162	394	7	10000	2	1	0	2	0
156	395	7	10000	2	1	0	2	0
151	396	7	10000	2	1	0	2	0
152	397	7	10000	2	1	0	2	0
162	398	7	10000	2	1	0	2	0
158	399	7	10000	2	1	0	2	0
153	400	7	10000	2	1	0	2	0
147	401	7	10000	2	1	0	2	0
145	402	7	10000	2	1	0	2	0
142	403	7	10000	2	1	0	2	0
140	404	7	10000	2	1	0	2	0
148	405	7	10000	2	1	0	2	0
146	406	7	10000	2	1	0	2	0
141	407	7	10000	2	1	0	2	0
144	408	7	10000	2	1	0	2	0
153	409	7	10000	2	1	0	2	0
151	410	7	10000	2	1	0	2	0
153	411	7	10000	2	1	0	2	0
154	412	7	10000	2	1	0	2	0
147	413	7	10000	2	1	0	2	0
142	414	7	10000	2	1	0	2	0
149	415	7	10000	2	1	0	2	0
157	416	7	10000	2	1	0	2	0
161	417	7	10000	2	1	0	2	0
157	418	7	10000	2	1	0	2	0
152	419	7	10000	2	1	0	2	0
146	420	7	10000	2	1	0	2	0
141	421	7	10000	2	1	0	2	0
142	422	7	10000	2	1	0	2	0
143	423	7	10000	2	1	0	2	0
143	424	7	10000	2	1	0	2	0
145	425	7	10000	2	1	0	2	0
142	426	7	10000	2	1	0	2	0
138	427	7	10000	2	1	0	2	0
136	428	7	10000	2	1	0	2	0
146	429	7	10000	2	1	0	2	0
149	430	7	10000	2	1	0	2	0
158	431	7	10000	2	1	0	2	0
157	432	7	10000	2	1	0	2	0
153	433	7	10000	2	1	0	2	0
153	434	7	10000	2	1	0	2	0
156	435	7	10000	2	1	0	2	0
173	436	7	10000	2	1	0	2	0
179	437	7	10000	2	1	0	2	0
173	438	7	10000	2	1	0	2	0
176	439	7	10000	2	1	0	2	0
187	440	7	10000	2	1	0	2	0
196	441	7	10000	2	1	0	2	0
193	442	7	10000	2	1	0	2	0
191	443	7	10000	2	1	0	2	0
195	444	7	10000	2	1	0	2	0
194	445	7	10000	2	1	0	2	0
191	446	7	10000	2	1	0	2	0
190	447	7	10000	2	1	0	2	0
189	448	7	10000	2	1	0	2	0
190	449	7	10000	2	1	0	2	0
190	450	7	10000	2	1	0	2	0
203	451	7	10000	2	1	0	2	0
211	452	7	10000	2	1	0	2	0
210	453	7	10000	2	1	0	2	0
210	454	7	10000	2	1	0	2	0
220	455	7	10000	2	1	0	2	0
272	456	7	10000	2	1	0	2	0
283	457	7	10000	2	1	0	2	0
289	458	7	10000	2	1	0	2	0
285	459	7	10000	2	1	0	2	0
280	460	7	10000	2	1	0	2	0
281	461	7	10000	2	1	0	2	0
271	462	7	10000	2	1	0	2	0
276	463	7	10000	2	1	0	2	0
278	464	7	10000	2	1	0	2	0
276	465	7	10000	2	1	0	2	0
270	466	7	10000	2	1	0	2	0
264	467	7	10000	2	1	0	2	0
256	468	7	10000	2	1	0	2	0
271	469	7	10000	2	1	0	2	0
284	470	7	10000	2	1	0	2	0
278	471	7	10000	2	1	0	2	0
270	472	7	10000	2	1	0	2	0
259	473	7	10000	2	1	0	2	0
251	474	7	10000	2	1	0	2	0
242	475	7	10000	2	1	0	2	0
238	476	7	10000	2	1	0	2	0
281	477	7	10000	2	1	0	2	0
318	478	7	10000	2	1	0	2	0
314	479	7	10000	2	1	0	2	0
323	480	7	10000	2	1	0	2	0
318	481	7	10000	2	1	0	2	0
310	482	7	10000	2	1	0	2	0
304	483	7	10000	2	1	0	2	0
298	484	7	10000	2	1	0	2	0
286	485	7	10000	2	1	0	2	0
282	486	7	10000	2	1	0	2	0
285	487	7	10000	2	1	0	2	0
275	488	7	10000	2	1	0	2	0
277	489	7	10000	2	1	0	2	0
270	490	7	10000	2	1	0	2	0
272	491	7	10000	2	1	0	2	0
277	492	7	10000	2	1	0	2	0
277	493	7	10000	2	1	0	2	0
270	494	7	10000	2	1	0	2	0
263	495	7	10000	2	1	0	2	0
272	496	7	10000	2	1	0	2	0
271	497	7	10000	2	1	0	2	0
268	498	7	10000	2	1	0	2	0
264	499	7	10000	2	1	0	2	0
257	500	7	10000	2	1	0	2	0
256	501	7	10000	2	1	0	2	0
256	502	7	10000	2	1	0	2	1
254	503	7	10000	2	1	0	2	1
260	504	7	10000	2	1	0	2	1
262	505	7	10000	2	1	0	2	1
256	506	7	10000	2	1	0	2	1
256	507	7	10000	2	1	0	2	1
253	508	7	10000	2	1	0	2	1
254	509	7	10000	2	1	0	2	1
246	510	7	10000	2	1	0	2	1
238	511	7	10000	2	1	0	2	1
230	512	7	10000	2	1	0	2	1
223	513	7	10000	2	1	0	2	1
219	514	7	10000	2	1	0	2	1
228	515	7	10000	2	1	0	2	1
248	516	7	10000	2	1	0	2	1
271	517	7	10000	2	1	0	2	1
285	518	7	10000	2	1	0	2	1
278	519	7	10000	2	1	0	2	1
273	520	7	10000	2	1	0	2	1
260	521	7	10000	2	1	0	2	1
250	522	7	10000	2	1	0	2	1
239	523	7	10000	2	1	0	2	1
237	524	7	10000	2	1	0	2	1
231	525	7	10000	2	1	0	2	1
231	526	7	10000	2	1	0	2	1
230	527	7	10000	2	1	0	2	1
227	528	7	10000	2	1	0	2	1
228	529	7	10000	2	1	0	2	1
219	530	7	10000	2	1	0	2	1
212	531	7	10000	2	1	0	2	1
202	532	7	10000	2	1	0	2	1
196	533	7	10000	2	1	0	2	1
188	534	7	10000	2	1	0	2	1
192	535	7	10000	2	1	0	2	1
204	536	7	10000	2	1	0	2	1
210	537	7	10000	2	1	0	2	1
215	538	7	10000	2	1	0	2	1
209	539	7	10000	2	1	0	2	1
205	540	7	10000	2	1	0	2	1
200	541	7	10000	2	1	0	2	1
201	542	7	10000	2	1	0	2	1
204	543	7	10000	2	1	0	2	1
201	544	7	10000	2	1	0	2	1
200	545	7	10000	2	1	0	2	1
197	546	7	10000	2	1	0	2	1
198	547	7	10000	2	1	0	2	1
196	548	7	10000	2	1	0	2	1
196	549	7	10000	2	1	0	2	1
193	550	7	10000	2	1	0	2	1
191	551	7	10000	2	1	0	2	1
191	552	7	10000	2	1	0	2	0
189	553	7	10000	2	1	0	2	0
192	554	7	10000	2	1	0	2	0
193	555	7	10000	2	1	0	2	0
201	556	7	10000	2	1	0	2	0
209	557	7	10000	2	1	0	2	0
209	558	7	10000	2	1	0	2	0
211	559	7	10000	2	1	0	2	0
209	560	7	10000	2	1	0	2	0
208	561	7	10000	2	1	0	2	0
205	562	7	10000	2	1	0	2	0
204	563	7	10000	2	1	0	2	0
213	564	7	10000	2	1	0	2	0
216	565	7	10000	2	1	0	2	0
219	566	7	10000	2	1	0	2	0
215	567	7	10000	2	1	0	2	0
216	568	7	10000	2	1	0	2	0
218	569	7	10000	2	1	0	2	0
213	570	7	10000	2	1	0	2	0
211	571	7	10000	2	1	0	2	0
213	572	7	10000	2	1	0	2	0
207	573	7	10000	2	1	0	2	0
200	574	7	10000	2	1	0	2	0
201	575	7	10000	2	1	0	2	0
203	576	7	10000	2	1	0	2	0
201	577	7	10000	2	1	0	2	0
198	578	7	10000	2	1	0	2	0
199	579	7	10000	2	1	0	2	0
197	580	7	10000	2	1	0	2	0
192	581	7	10000	2	1	0	2	0
187	582	7	10000	2	1	0	2	0
190	583	7	10000	2	1	0	2	0
203	584	7	10000	2	1	0	2	0
232	585	7	10000	2	1	0	2	0
234	586	7	10000	2	1	0	2	0
230	587	7	10000	2	1	0	2	0
227	588	7	10000	2	1	0	2	0
248	589	7	10000	2	1	0	2	0
273	590	7	10000	2	1	0	2	0
275	591	7	10000	2	1	0	2	0
288	592	7	10000	2	1	0	2	0
288	593	7	10000	2	1	0	2	0
298	594	7	10000	2	1	0	2	0
297	595	7	10000	2	1	0	2	0
291	596	7	10000	2	1	0	2	0
299	597	7	10000	2	1	0	2	0
310	598	7	10000	2	1	0	2	0
344	599	7	10000	2	1	0	2	0
385	600	7	10000	2	1	0	2	0
467	601	7	10000	2	1	0	2	0
466	602	7	10000	2	1	0	2	0
455	603	7	10000	2	1	0	2	0
482	604	7	10000	2	1	0	2	0
512	605	7	10000	2	1	0	2	0
572	606	7	10000	2	1	0	2	0
578	607	7	10000	2	1	0	2	0
628	608	7	10000	2	1	0	2	0
742	609	7	10000	2	1	0	2	0
771	610	7	10000	2	1	0	2	0
750	611	7	10000	2	1	0	2	0
735	612	7	10000	2	1	0	2	0
816	613	7	10000	2	1	0	2	0
874	614	7	10000	2	1	0	2	0
848	615	7	10000	2	1	0	2	0
861	616	7	10000	2	1	0	2	0
887	617	7	10000	2	1	0	2	0
985	618	7	10000	2	1	0	2	0
1054	619	7	10000	2	1	0	2	0
1037	620	7	10000	2	1	0	2	0
1079	621	7	10000	2	1	0	2	0
1065	622	7	10000	2	1	0	2	0
1064	623	7	10000	2	1	0	2	0
1051	624	7	10000	2	1	0	2	0
1022	625	7	10000	2	1	0	2	0
1000	626	7	10000	2	1	0	2	0
964	627	7	10000	2	1	0	2	0
930	628	7	10000	2	1	0	2	0
894	629	7	10000	2	1	0	2	0
873	630	7	10000	2	1	0	2	0
856	631	7	10000	2	1	0	2	0
836	632	7	10000	2	1	0	2	0
815	633	7	10000	2	1	0	2	0
793	634	7	10000	2	1	0	2	0
762	635	7	10000	2	1	0	2	0
737	636	7	10000	2	1	0	2	0
721	637	7	10000	2	1	0	2	0
698	638	7	10000	2	1	0	2	0
666	639	7	10000	2	1	0	2	0
639	640	7	10000	2	1	0	2	0
614	641	7	10000	2	1	0	2	0
591	642	7	10000	2	1	0	2	0
578	643	7	10000	2	1	0	2	0
566	644	7	10000	2	1	0	2	0
548	645	7	10000	2	1	0	2	0
538	646	7	10000	2	1	0	2	0
534	647	7	10000	2	1	0	2	0
541	648	7	10000	2	1	0	2	0
550	649	7	10000	2	1	0	2	0
551	650	7	10000	2	1	0	2	0
548	651	7	10000	2	1	0	2	0
546	652	7	10000	2	1	0	2	0
553	653	7	10000	2	1	0	2	0
561	654	7	10000	2	1	0	2	0
586	655	7	10000	2	1	0	2	0
613	656	7	10000	2	1	0	2	0
652	657	7	10000	2	1	0	2	0
693	658	7	10000	2	1	0	2	0
698	659	7	10000	2	1	0	2	0
699	660	7	10000	2	1	0	2	0
705	661	7	10000	2	1	0	2	0
708	662	7	10000	2	1	0	2	0
718	663	7	10000	2	1	0	2	0
730	664	7	10000	2	1	0	2	0
727	665	7	10000	2	1	0	2	0
730	666	7	10000	2	1	0	2	0
739	667	7	10000	2	1	0	2	0
748	668	7	10000	2	1	0	2	0
755	669	7	10000	2	1	0	2	0
750	670	7	10000	2	1	0	2	0
741	671	7	10000	2	1	0	2	0
732	672	7	10000	2	1	0	2	0
718	673	7	10000	2	1	0	2	0
709	674	7	10000	2	1	0	2	0
715	675	7	10000	2	1	0	2	0
722	676	7	10000	2	1	0	2	0
719	677	7	10000	2	1	0	2	0
712	678	7	10000	2	1	0	2	0
691	679	7	10000	2	1	0	2	0
667	680	7	10000	2	1	0	2	0
644	681	7	10000	2	1	0	2	0
617	682	7	10000	2	1	0	2	0
591	683	7	10000	2	1	0	2	0
577	684	7	10000	2	1	0	2	0
577	685	7	10000	2	1	0	2	0
560	686	7	10000	2	1	0	2	0
536	687	7	10000	2	1	0	2	0
517	688	7	10000	2	1	0	2	0
496	689	7	10000	2	1	0	2	0
481	690	7	10000	2	1	0	2	0
473	691	7	10000	2	1	0	2	0
461	692	7	10000	2	1	0	2	0
455	693	7	10000	2	1	0	2	0
451	694	7	10000	2	1	0	2	0
437	695	7	10000	2	1	0	2	0
417	696	7	10000	2	1	0	2	0
400	697	7	10000	2	1	0	2	0
388	698	7	10000	2	1	0	2	0
386	699	7	10000	2	1	0	2	0
384	700	7	10000	2	1	0	2	0
381	701	7	10000	2	1	0	2	0
379	702	7	10000	2	1	0	2	0
381	703	7	10000	2	1	0	2	0
388	704	7	10000	2	1	0	2	0
398	705	7	10000	2	1	0	2	0
399	706	7	10000	2	1	0	2	0
391	707	7	10000	2	1	0	2	0
376	708	7	10000	2	1	0	2	0
362	709	7	10000	2	1	0	2	0
352	710	7	10000	2	1	0	2	0
355	711	7	10000	2	1	0	2	0
357	712	7	10000	2	1	0	2	0
360	713	7	10000	2	1	0	2	0
354	714	7	10000	2	1	0	2	0
345	715	7	10000	2	1	0	2	0
357	716	7	10000	2	1	0	2	0
352	717	7	10000	2	1	0	2	0
356	718	7	10000	2	1	0	2	0
370	719	7	10000	2	1	0	2	0
377	720	7	10000	2	1	0	2	0
372	721	7	10000	2	1	0	2	0
367	722	7	10000	2	1	0	2	0
373	723	7	10000	2	1	0	2	0
379	724	7	10000	2	1	0	2	0
387	725	7	10000	2	1	0	2	0
377	726	7	10000	2	1	0	2	0
365	727	7	10000	2	1	0	2	0
351	728	7	10000	2	1	0	2	0
342	729	7	10000	2	1	0	2	0
339	730	7	10000	2	1	0	2	0
337	731	7	10000	2	1	0	2	0
333	732	7	10000	2	1	0	2	0
334	733	7	10000	2	1	0	2	0
331	734	7	10000	2	1	0	2	0
320	735	7	10000	2	1	0	2	0
319	736	7	10000	2	1	0	2	0
316	737	7	10000	2	1	0	2	0
309	738	7	10000	2	1	0	2	0
312	739	7	10000	2	1	0	2	0
317	740	7	10000	2	1	0	2	0
323	741	7	10000	2	1	0	2	0
330	742	7	10000	2	1	0	2	0
328	743	7	10000	2	1	0	2	0
324	744	7	10000	2	1	0	2	0
324	745	7	10000	2	1	0	2	0
314	746	7	10000	2	1	0	2	0
302	747	7	10000	2	1	0	2	0
290	748	7	10000	2	1	0	2	0
280	749	7	10000	2	1	0	2	0
276	750	7	10000	2	1	0	2	0
273	751	7	10000	2	1	0	2	0
272	752	7	10000	2	1	0	2	0
279	753	7	10000	2	1	0	2	0
275	754	7	10000	2	1	0	2	0
276	755	7	10000	2	1	0	2	0
290	756	7	10000	2	1	0	2	0
307	757	7	10000	2	1	0	2	0
316	758	7	10000	2	1	0	2	0
306	759	7	10000	2	1	0	2	0
298	760	7	10000	2	1	0	2	0
294	761	7	10000	2	1	0	2	0
294	762	7	10000	2	1	0	2	0
298	763	7	10000	2	1	0	2	0
314	764	7	10000	2	1	0	2	0
327	765	7	10000	2	1	0	2	0
324	766	7	10000	2	1	0	2	0
309	767	7	10000	2	1	0	2	0
301	768	7	10000	2	1	0	2	0
293	769	7	10000	2	1	0	2	0
283	770	7	10000	2	1	0	2	0
274	771	7	10000	2	1	0	2	0
274	772	7	10000	2	1	0	2	0
277	773	7	10000	2	1	0	2	0
273	774	7	10000	2	1	0	2	0
273	775	7	10000	2	1	0	2	0
285	776	7	10000	2	1	0	2	0
301	777	7	10000	2	1	0	2	0
311	778	7	10000	2	1	0	2	0
308	779	7	10000	2	1	0	2	0
304	780	7	10000	2	1	0	2	0
297	781	7	10000	2	1	0	2	0
287	782	7	10000	2	1	0	2	0
277	783	7	10000	2	1	0	2	0
270	784	7	10000	2	1	0	2	0
259	785	7	10000	2	1	0	2	0
248	786	7	10000	2	1	0	2	0
240	787	7	10000	2	1	0	2	0
236	788	7	10000	2	1	0	2	0
231	789	7	10000	2	1	0	2	0
224	790	7	10000	2	1	0	2	0
232	791	7	10000	2	1	0	2	0
237	792	7	10000	2	1	0	2	0
236	793	7	10000	2	1	0	2	0
228	794	7	10000	2	1	0	2	0
222	795	7	10000	2	1	0	2	0
232	796	7	10000	2	1	0	2	0
252	797	7	10000	2	1	0	2	0
276	798	7	10000	2	1	0	2	0
276	799	7	10000	2	1	0	2	0
268	800	7	10000	2	1	0	2	0
264	801	7	10000	2	1	0	2	0
260	802	7	10000	2	1	0	2	0
260	803	7	10000	2	1	0	2	0
261	804	7	10000	2	1	0	2	0
261	805	7	10000	2	1	0	2	0
258	806	7	10000	2	1	0	2	0
256	807	7	10000	2	1	0	2	0
250	808	7	10000	2	1	0	2	0
243	809	7	10000	2	1	0	2	0
241	810	7	10000	2	1	0	2	0
247	811	7	10000	2	1	0	2	0
246	812	7	10000	2	1	0	2	0
238	813	7	10000	2	1	0	2	0
226	814	7	10000	2	1	0	2	0
218	815	7	10000	2	1	0	2	0
228	816	7	10000	2	1	0	2	0
245	817	7	10000	2	1	0	2	0
249	818	7	10000	2	1	0	2	0
238	819	7	10000	2	1	0	2	0
232	820	7	10000	2	1	0	2	0
223	821	7	10000	2	1	0	2	0
223	822	7	10000	2	1	0	2	0
220	823	7	10000	2	1	0	2	0
215	824	7	10000	2	1	0	2	0
213	825	7	10000	2	1	0	2	0
208	826	7	10000	2	1	0	2	0
200	827	7	10000	2	1	0	2	0
191	828	7	10000	2	1	0	2	0
183	829	7	10000	2	1	0	2	0
177	830	7	10000	2	1	0	2	0
176	831	7	10000	2	1	0	2	0
185	832	7	10000	2	1	0	2	0
193	833	7	10000	2	1	0	2	0
187	834	7	10000	2	1	0	2	0
189	835	7	10000	2	1	0	2	0
199	836	7	10000	2	1	0	2	0
194	837	7	10000	2	1	0	2	0
191	838	7	10000	2	1	0	2	0
194	839	7	10000	2	1	0	2	0
187	840	7	10000	2	1	0	2	0
182	841	7	10000	2	1	0	2	0
185	842	7	10000	2	1	0	2	0
183	843	7	10000	2	1	0	2	0
181	844	7	10000	2	1	0	2	0
187	845	7	10000	2	1	0	2	0
183	846	7	10000	2	1	0	2	0
181	847	7	10000	2	1	0	2	0
175	848	7	10000	2	1	0	2	0
169	849	7	10000	2	1	0	2	0
169	850	7	10000	2	1	0	2	0
168	851	7	10000	2	1	0	2	0
169	852	7	10000	2	1	0	2	0
168	853	7	10000	2	1	0	2	0
167	854	7	10000	2	1	0	2	0
164	855	7	10000	2	1	0	2	0
165	856	7	10000	2	1	0	2	0
162	857	7	10000	2	1	0	2	0
167	858	7	10000	2	1	0	2	0
163	859	7	10000	2	1	0	2	0
157	860	7	10000	2	1	0	2	0
151	861	7	10000	2	1	0	2	0
155	862	7	10000	2	1	0	2	0
166	863	7	10000	2	1	0	2	0
164	864	7	10000	2	1	0	2	0
160	865	7	10000	2	1	0	2	0
155	866	7	10000	2	1	0	2	0
149	867	7	10000	2	1	0	2	0
148	868	7	10000	2	1	0	2	0
147	869	7	10000	2	1	0	2	0
156	870	7	10000	2	1	0	2	0
170	871	7	10000	2	1	0	2	0
168	872	7	10000	2	1	0	2	0
166	873	7	10000	2	1	0	2	0
164	874	7	10000	2	1	0	2	0
180	875	7	10000	2	1	0	2	0
208	876	7	10000	2	1	0	2	0
213	877	7	10000	2	1	0	2	0
211	878	7	10000	2	1	0	2	0
222	879	7	10000	2	1	0	2	0
225	880	7	10000	2	1	0	2	0
222	881	7	10000	2	1	0	2	0
224	882	7	10000	2	1	0	2	0
223	883	7	10000	2	1	0	2	0
217	884	7	10000	2	1	0	2	0
210	885	7	10000	2	1	0	2	0
214	886	7	10000	2	1	0	2	0
208	887	7	10000	2	1	0	2	0
212	888	7	10000	2	1	0	2	0
224	889	7	10000	2	1	0	2	0
215	890	7	10000	2	1	0	2	0
209	891	7	10000	2	1	0	2	0
204	892	7	10000	2	1	0	2	0
198	893	7	10000	2	1	0	2	0
198	894	7	10000	2	1	0	2	0
194	895	7	10000	2	1	0	2	0
191	896	7	10000	2	1	0	2	0
191	897	7	10000	2	1	0	2	0
193	898	7	10000	2	1	0	2	0
195	899	7	10000	2	1	0	2	0
192	900	7	10000	2	1	0	2	0
187	901	7	10000	2	1	0	2	0
183	902	7	10000	2	1	0	2	0
179	903	7	10000	2	1	0	2	0
178	904	7	10000	2	1	0	2	0
179	905	7	10000	2	1	0	2	0
173	906	7	10000	2	1	0	2	0
166	907	7	10000	2	1	0	2	0
172	908	7	10000	2	1	0	2	0
182	909	7	10000	2	1	0	2	0
188	910	7	10000	2	1	0	2	0
183	911	7	10000	2	1	0	2	0
180	912	7	10000	2	1	0	2	0
187	913	7	10000	2	1	0	2	0
185	914	7	10000	2	1	0	2	0
186	915	7	10000	2	1	0	2	0
203	916	7	10000	2	1	0	2	0
217	917	7	10000	2	1	0	2	0
217	918	7	10000	2	1	0	2	0
212	919	7	10000	2	1	0	2	0
213	920	7	10000	2	1	0	2	0
212	921	7	10000	2	1	0	2	0
208	922	7	10000	2	1	0	2	0
211	923	7	10000	2	1	0	2	0
208	924	7	10000	2	1	0	2	0
215	925	7	10000	2	1	0	2	0
212	926	7	10000	2	1	0	2	0
206	927	7	10000	2	1	0	2	0
199	928	7	10000	2	1	0	2	0
197	929	7	10000	2	1	0	2	0
192	930	7	10000	2	1	0	2	0
192	931	7	10000	2	1	0	2	0
197	932	7	10000	2	1	0	2	0
214	933	7	10000	2	1	0	2	0
224	934	7	10000	2	1	0	2	0
216	935	7	10000	2	1	0	2	0
213	936	7	10000	2	1	0	2	0
207	937	7	10000	2	1	0	2	0
204	938	7	10000	2	1	0	2	0
213	939	7	10000	2	1	0	2	0
212	940	7	10000	2	1	0	2	0
203	941	7	10000	2	1	0	2	0
201	942	7	10000	2	1	0	2	0
201	943	7	10000	2	1	0	2	0
203	944	7	10000	2	1	0	2	0
203	945	7	10000	2	1	0	2	0
199	946	7	10000	2	1	0	2	0
195	947	7	10000	2	1	0	2	0
195	948	7	10000	2	1	0	2	0
196	949	7	10000	2	1	0	2	0
193	950	7	10000	2	1	0	2	0
195	951	7	10000	2	1	0	2	0
198	952	7	10000	2	1	0	2	0
193	953	7	10000	2	1	0	2	0
186	954	7	10000	2	1	0	2	0
189	955	7	10000	2	1	0	2	0
196	956	7	10000	2	1	0	2	0
201	957	7	10000	2	1	0	2	0
204	958	7	10000	2	1	0	2	0
196	959	7	10000	2	1	0	2	0
194	960	7	10000	2	1	0	2	0
186	961	7	10000	2	1	0	2	0
178	962	7	10000	2	1	0	2	0
171	963	7	10000	2	1	0	2	0
170	964	7	10000	2	1	0	2	0
168	965	7	10000	2	1	0	2	0
173	966	7	10000	2	1	0	2	0
176	967	7	10000	2	1	0	2	0
178	968	7	10000	2	1	0	2	0
180	969	7	10000	2	1	0	2	0
183	970	7	10000	2	1	0	2	0
197	971	7	10000	2	1	0	2	0
198	972	7	10000	2	1	0	2	0
192	973	7	10000	2	1	0	2	0
187	974	7	10000	2	1	0	2	0
185	975	7	10000	2	1	0	2	0
198	976	7	10000	2	1	0	2	0
202	977	7	10000	2	1	0	2	0
199	978	7	10000	2	1	0	2	0
194	979	7	10000	2	1	0	2	0
201	980	7	10000	2	1	0	2	0
206	981	7	10000	2	1	0	2	0
206	982	7	10000	2	1	0	2	0
201	983	7	10000	2	1	0	2	0
206	984	7	10000	2	1	0	2	0
202	985	7	10000	2	1	0	2	0
199	986	7	10000	2	1	0	2	0
204	987	7	10000	2	1	0	2	0
208	988	7	10000	2	1	0	2	0
215	989	7	10000	2	1	0	2	0
213	990	7	10000	2	1	0	2	0
214	991	7	10000	2	1	0	2	0
210	992	7	10000	2	1	0	2	0
212	993	7	10000	2	1	0	2	0
215	994	7	10000	2	1	0	2	0
219	995	7	10000	2	1	0	2	0
222	996	7	10000	2	1	0	2	0
217	997	7	10000	2	1	0	2	0
211	998	7	10000	2	1	0	2	0
211	999	7	10000	2	1	0	2	0
206	1000	7	10000	2	1	0	2	0
200	1001	7	10000	2	1	0	2	0
176	2	0	10000	3	1	0	3	0
182	3	0	10000	3	1	0	3	0
187	4	0	10000	3	1	0	3	0
182	5	0	10000	3	1	0	3	0
185	6	0	10000	3	1	0	3	0
187	7	0	10000	3	1	0	3	0
189	8	0	10000	3	1	0	3	0
186	9	0	10000	3	1	0	3	0
184	10	0	10000	3	1	0	3	0
178	11	0	10000	3	1	0	3	0
174	12	0	10000	3	1	0	3	0
175	13	0	10000	3	1	0	3	0
177	14	0	10000	3	1	0	3	0
182	15	0	10000	3	1	0	3	0
186	16	0	10000	3	1	0	3	0
185	17	0	10000	3	1	0	3	0
184	18	0	10000	3	1	0	3	0
186	19	0	10000	3	1	0	3	0
186	20	0	10000	3	1	0	3	0
182	21	0	10000	3	1	0	3	0
184	22	0	10000	3	1	0	3	0
182	23	0	10000	3	1	0	3	0
181	24	0	10000	3	1	0	3	0
175	25	0	10000	3	1	0	3	0
178	26	0	10000	3	1	0	3	0
191	27	0	10000	3	1	0	3	0
195	28	0	10000	3	1	0	3	0
191	29	0	10000	3	1	0	3	0
187	30	0	10000	3	1	0	3	0
178	31	0	10000	3	1	0	3	0
173	32	0	10000	3	1	0	3	0
172	33	0	10000	3	1	0	3	0
172	34	0	10000	3	1	0	3	0
176	35	0	10000	3	1	0	3	0
176	36	0	10000	3	1	0	3	0
171	37	0	10000	3	1	0	3	0
165	38	0	10000	3	1	0	3	0
167	39	0	10000	3	1	0	3	0
170	40	0	10000	3	1	0	3	0
164	41	0	10000	3	1	0	3	0
160	42	0	10000	3	1	0	3	0
154	43	0	10000	3	1	0	3	0
153	44	0	10000	3	1	0	3	0
149	45	0	10000	3	1	0	3	0
152	46	0	10000	3	1	0	3	0
158	47	0	10000	3	1	0	3	0
159	48	0	10000	3	1	0	3	0
159	49	0	10000	3	1	0	3	0
152	50	0	10000	3	1	0	3	0
147	51	0	10000	3	1	0	3	0
146	52	0	10000	3	1	0	3	0
141	53	0	10000	3	1	0	3	0
136	54	0	10000	3	1	0	3	0
138	55	0	10000	3	1	0	3	0
141	56	0	10000	3	1	0	3	0
142	57	0	10000	3	1	0	3	0
142	58	0	10000	3	1	0	3	0
149	59	0	10000	3	1	0	3	0
154	60	0	10000	3	1	0	3	0
150	61	0	10000	3	1	0	3	0
155	62	0	10000	3	1	0	3	0
155	63	0	10000	3	1	0	3	0
153	64	0	10000	3	1	0	3	0
147	65	0	10000	3	1	0	3	0
158	66	0	10000	3	1	0	3	0
175	67	0	10000	3	1	0	3	0
183	68	0	10000	3	1	0	3	0
179	69	0	10000	3	1	0	3	0
177	70	0	10000	3	1	0	3	0
173	71	0	10000	3	1	0	3	0
170	72	0	10000	3	1	0	3	0
174	73	0	10000	3	1	0	3	0
175	74	0	10000	3	1	0	3	0
186	75	0	10000	3	1	0	3	0
188	76	0	10000	3	1	0	3	0
184	77	0	10000	3	1	0	3	0
179	78	0	10000	3	1	0	3	0
182	79	0	10000	3	1	0	3	0
184	80	0	10000	3	1	0	3	0
178	81	0	10000	3	1	0	3	0
182	82	0	10000	3	1	0	3	0
183	83	0	10000	3	1	0	3	0
186	84	0	10000	3	1	0	3	0
184	85	0	10000	3	1	0	3	0
184	86	0	10000	3	1	0	3	0
186	87	0	10000	3	1	0	3	0
188	88	0	10000	3	1	0	3	0
184	89	0	10000	3	1	0	3	0
185	90	0	10000	3	1	0	3	0
189	91	0	10000	3	1	0	3	0
184	92	0	10000	3	1	0	3	0
188	93	0	10000	3	1	0	3	0
191	94	0	10000	3	1	0	3	0
198	95	0	10000	3	1	0	3	0
201	96	0	10000	3	1	0	3	0
195	97	0	10000	3	1	0	3	0
193	98	0	10000	3	1	0	3	0
201	99	0	10000	3	1	0	3	0
208	100	0	10000	3	1	0	3	0
201	101	0	10000	3	1	0	3	0
202	102	0	10000	3	1	0	3	0
198	103	0	10000	3	1	0	3	0
197	104	0	10000	3	1	0	3	0
197	105	0	10000	3	1	0	3	0
196	106	0	10000	3	1	0	3	0
199	107	0	10000	3	1	0	3	0
201	108	0	10000	3	1	0	3	0
196	109	0	10000	3	1	0	3	0
196	110	0	10000	3	1	0	3	0
189	111	0	10000	3	1	0	3	0
181	112	0	10000	3	1	0	3	0
176	113	0	10000	3	1	0	3	0
173	114	0	10000	3	1	0	3	0
170	115	0	10000	3	1	0	3	0
170	116	0	10000	3	1	0	3	0
166	117	0	10000	3	1	0	3	0
165	118	0	10000	3	1	0	3	0
172	119	0	10000	3	1	0	3	0
172	120	0	10000	3	1	0	3	0
170	121	0	10000	3	1	0	3	0
173	122	0	10000	3	1	0	3	0
172	123	0	10000	3	1	0	3	0
174	124	0	10000	3	1	0	3	0
167	125	0	10000	3	1	0	3	0
172	126	0	10000	3	1	0	3	0
178	127	0	10000	3	1	0	3	0
189	128	0	10000	3	1	0	3	0
189	129	0	10000	3	1	0	3	0
184	130	0	10000	3	1	0	3	0
180	131	0	10000	3	1	0	3	0
170	132	0	10000	3	1	0	3	0
171	133	0	10000	3	1	0	3	0
166	134	0	10000	3	1	0	3	0
166	135	0	10000	3	1	0	3	0
167	136	0	10000	3	1	0	3	0
167	137	0	10000	3	1	0	3	0
168	138	0	10000	3	1	0	3	0
166	139	0	10000	3	1	0	3	0
161	140	0	10000	3	1	0	3	0
162	141	0	10000	3	1	0	3	0
169	142	0	10000	3	1	0	3	0
175	143	0	10000	3	1	0	3	0
179	144	0	10000	3	1	0	3	0
174	145	0	10000	3	1	0	3	0
186	146	0	10000	3	1	0	3	0
201	147	0	10000	3	1	0	3	0
210	148	0	10000	3	1	0	3	0
207	149	0	10000	3	1	0	3	0
199	150	0	10000	3	1	0	3	0
193	151	0	10000	3	1	0	3	0
189	152	0	10000	3	1	0	3	0
188	153	0	10000	3	1	0	3	0
181	154	0	10000	3	1	0	3	0
186	155	0	10000	3	1	0	3	0
185	156	0	10000	3	1	0	3	0
190	157	0	10000	3	1	0	3	0
197	158	0	10000	3	1	0	3	0
206	159	0	10000	3	1	0	3	0
207	160	0	10000	3	1	0	3	0
198	161	0	10000	3	1	0	3	0
199	162	0	10000	3	1	0	3	0
199	163	0	10000	3	1	0	3	0
200	164	0	10000	3	1	0	3	0
195	165	0	10000	3	1	0	3	0
194	166	0	10000	3	1	0	3	0
204	167	0	10000	3	1	0	3	0
200	168	0	10000	3	1	0	3	0
195	169	0	10000	3	1	0	3	0
196	170	0	10000	3	1	0	3	0
190	171	0	10000	3	1	0	3	0
185	172	0	10000	3	1	0	3	0
187	173	0	10000	3	1	0	3	0
189	174	0	10000	3	1	0	3	0
194	175	0	10000	3	1	0	3	0
197	176	0	10000	3	1	0	3	0
193	177	0	10000	3	1	0	3	0
193	178	0	10000	3	1	0	3	0
196	179	0	10000	3	1	0	3	0
195	180	0	10000	3	1	0	3	0
188	181	0	10000	3	1	0	3	0
191	182	0	10000	3	1	0	3	0
192	183	0	10000	3	1	0	3	0
195	184	0	10000	3	1	0	3	0
187	185	0	10000	3	1	0	3	0
187	186	0	10000	3	1	0	3	0
194	187	0	10000	3	1	0	3	0
195	188	0	10000	3	1	0	3	0
194	189	0	10000	3	1	0	3	0
189	190	0	10000	3	1	0	3	0
185	191	0	10000	3	1	0	3	0
181	192	0	10000	3	1	0	3	0
187	193	0	10000	3	1	0	3	0
193	194	0	10000	3	1	0	3	0
200	195	0	10000	3	1	0	3	0
199	196	0	10000	3	1	0	3	0
198	197	0	10000	3	1	0	3	0
191	198	0	10000	3	1	0	3	0
196	199	0	10000	3	1	0	3	0
199	200	0	10000	3	1	0	3	0
194	201	0	10000	3	1	0	3	0
189	202	0	10000	3	1	0	3	0
182	203	0	10000	3	1	0	3	0
183	204	0	10000	3	1	0	3	0
175	205	0	10000	3	1	0	3	0
175	206	0	10000	3	1	0	3	0
179	207	0	10000	3	1	0	3	0
182	208	0	10000	3	1	0	3	0
177	209	0	10000	3	1	0	3	0
180	210	0	10000	3	1	0	3	0
176	211	0	10000	3	1	0	3	0
171	212	0	10000	3	1	0	3	0
170	213	0	10000	3	1	0	3	0
168	214	0	10000	3	1	0	3	0
174	215	0	10000	3	1	0	3	0
179	216	0	10000	3	1	0	3	0
178	217	0	10000	3	1	0	3	0
185	218	0	10000	3	1	0	3	0
193	219	0	10000	3	1	0	3	0
188	220	0	10000	3	1	0	3	0
184	221	0	10000	3	1	0	3	0
187	222	0	10000	3	1	0	3	0
188	223	0	10000	3	1	0	3	0
193	224	0	10000	3	1	0	3	0
190	225	0	10000	3	1	0	3	0
192	226	0	10000	3	1	0	3	0
198	227	0	10000	3	1	0	3	0
201	228	0	10000	3	1	0	3	0
197	229	0	10000	3	1	0	3	0
198	230	0	10000	3	1	0	3	0
193	231	0	10000	3	1	0	3	0
185	232	0	10000	3	1	0	3	0
185	233	0	10000	3	1	0	3	0
186	234	0	10000	3	1	0	3	0
190	235	0	10000	3	1	0	3	0
199	236	0	10000	3	1	0	3	0
198	237	0	10000	3	1	0	3	0
201	238	0	10000	3	1	0	3	0
197	239	0	10000	3	1	0	3	0
191	240	0	10000	3	1	0	3	0
183	241	0	10000	3	1	0	3	0
177	242	0	10000	3	1	0	3	0
172	243	0	10000	3	1	0	3	0
167	244	0	10000	3	1	0	3	0
165	245	0	10000	3	1	0	3	0
182	246	0	10000	3	1	0	3	0
203	247	0	10000	3	1	0	3	0
215	248	0	10000	3	1	0	3	0
213	249	0	10000	3	1	0	3	0
213	250	0	10000	3	1	0	3	0
215	251	0	10000	3	1	0	3	0
216	252	0	10000	3	1	0	3	0
216	253	0	10000	3	1	0	3	0
217	254	0	10000	3	1	0	3	0
225	255	0	10000	3	1	0	3	0
224	256	0	10000	3	1	0	3	0
220	257	0	10000	3	1	0	3	0
217	258	0	10000	3	1	0	3	0
213	259	0	10000	3	1	0	3	0
207	260	0	10000	3	1	0	3	0
198	261	0	10000	3	1	0	3	0
196	262	0	10000	3	1	0	3	0
197	263	0	10000	3	1	0	3	0
199	264	0	10000	3	1	0	3	0
192	265	0	10000	3	1	0	3	0
194	266	0	10000	3	1	0	3	0
196	267	0	10000	3	1	0	3	0
194	268	0	10000	3	1	0	3	0
190	269	0	10000	3	1	0	3	0
184	270	0	10000	3	1	0	3	0
177	271	0	10000	3	1	0	3	0
171	272	0	10000	3	1	0	3	0
170	273	0	10000	3	1	0	3	0
169	274	0	10000	3	1	0	3	0
173	275	0	10000	3	1	0	3	0
171	276	0	10000	3	1	0	3	0
165	277	0	10000	3	1	0	3	0
158	278	0	10000	3	1	0	3	0
159	279	0	10000	3	1	0	3	0
155	280	0	10000	3	1	0	3	0
148	281	0	10000	3	1	0	3	0
146	282	0	10000	3	1	0	3	0
141	283	0	10000	3	1	0	3	0
138	284	0	10000	3	1	0	3	0
135	285	0	10000	3	1	0	3	0
148	286	0	10000	3	1	0	3	0
166	287	0	10000	3	1	0	3	0
169	288	0	10000	3	1	0	3	0
166	289	0	10000	3	1	0	3	0
171	290	0	10000	3	1	0	3	0
166	291	0	10000	3	1	0	3	0
159	292	0	10000	3	1	0	3	0
151	293	0	10000	3	1	0	3	0
152	294	0	10000	3	1	0	3	0
161	295	0	10000	3	1	0	3	0
164	296	0	10000	3	1	0	3	0
165	297	0	10000	3	1	0	3	0
166	298	0	10000	3	1	0	3	0
167	299	0	10000	3	1	0	3	0
164	300	0	10000	3	1	0	3	0
163	301	0	10000	3	1	0	3	0
169	302	0	10000	3	1	0	3	0
165	303	0	10000	3	1	0	3	0
166	304	0	10000	3	1	0	3	0
161	305	0	10000	3	1	0	3	0
169	306	0	10000	3	1	0	3	0
182	307	0	10000	3	1	0	3	0
187	308	0	10000	3	1	0	3	0
184	309	0	10000	3	1	0	3	0
179	310	0	10000	3	1	0	3	0
172	311	0	10000	3	1	0	3	0
165	312	0	10000	3	1	0	3	0
162	313	0	10000	3	1	0	3	0
159	314	0	10000	3	1	0	3	0
164	315	0	10000	3	1	0	3	0
166	316	0	10000	3	1	0	3	0
168	317	0	10000	3	1	0	3	0
165	318	0	10000	3	1	0	3	0
169	319	0	10000	3	1	0	3	0
172	320	0	10000	3	1	0	3	0
172	321	0	10000	3	1	0	3	0
174	322	0	10000	3	1	0	3	0
175	323	0	10000	3	1	0	3	0
171	324	0	10000	3	1	0	3	0
165	325	0	10000	3	1	0	3	0
174	326	0	10000	3	1	0	3	0
178	327	0	10000	3	1	0	3	0
184	328	0	10000	3	1	0	3	0
183	329	0	10000	3	1	0	3	0
181	330	0	10000	3	1	0	3	0
176	331	0	10000	3	1	0	3	0
170	332	0	10000	3	1	0	3	0
166	333	0	10000	3	1	0	3	0
162	334	0	10000	3	1	0	3	0
167	335	0	10000	3	1	0	3	0
169	336	0	10000	3	1	0	3	0
175	337	0	10000	3	1	0	3	0
184	338	0	10000	3	1	0	3	0
196	339	0	10000	3	1	0	3	0
199	340	0	10000	3	1	0	3	0
192	341	0	10000	3	1	0	3	0
190	342	0	10000	3	1	0	3	0
187	343	0	10000	3	1	0	3	0
187	344	0	10000	3	1	0	3	0
182	345	0	10000	3	1	0	3	0
189	346	0	10000	3	1	0	3	0
194	347	0	10000	3	1	0	3	0
194	348	0	10000	3	1	0	3	0
191	349	0	10000	3	1	0	3	0
192	350	0	10000	3	1	0	3	0
194	351	0	10000	3	1	0	3	0
194	352	0	10000	3	1	0	3	0
190	353	0	10000	3	1	0	3	0
192	354	0	10000	3	1	0	3	0
199	355	0	10000	3	1	0	3	0
201	356	0	10000	3	1	0	3	0
197	357	0	10000	3	1	0	3	0
192	358	0	10000	3	1	0	3	0
195	359	0	10000	3	1	0	3	0
196	360	0	10000	3	1	0	3	0
190	361	0	10000	3	1	0	3	0
197	362	0	10000	3	1	0	3	0
194	363	0	10000	3	1	0	3	0
190	364	0	10000	3	1	0	3	0
182	365	0	10000	3	1	0	3	0
181	366	0	10000	3	1	0	3	0
182	367	0	10000	3	1	0	3	0
182	368	0	10000	3	1	0	3	0
177	369	0	10000	3	1	0	3	0
171	370	0	10000	3	1	0	3	0
170	371	0	10000	3	1	0	3	0
168	372	0	10000	3	1	0	3	0
169	373	0	10000	3	1	0	3	0
165	374	0	10000	3	1	0	3	0
185	375	0	10000	3	1	0	3	0
200	376	0	10000	3	1	0	3	0
196	377	0	10000	3	1	0	3	0
200	378	0	10000	3	1	0	3	0
196	379	0	10000	3	1	0	3	0
191	380	0	10000	3	1	0	3	0
191	381	0	10000	3	1	0	3	0
198	382	0	10000	3	1	0	3	0
202	383	0	10000	3	1	0	3	0
203	384	0	10000	3	1	0	3	0
197	385	0	10000	3	1	0	3	0
201	386	0	10000	3	1	0	3	0
208	387	0	10000	3	1	0	3	0
206	388	0	10000	3	1	0	3	0
208	389	0	10000	3	1	0	3	0
201	390	0	10000	3	1	0	3	0
195	391	0	10000	3	1	0	3	0
188	392	0	10000	3	1	0	3	0
180	393	0	10000	3	1	0	3	0
173	394	0	10000	3	1	0	3	0
173	395	0	10000	3	1	0	3	0
171	396	0	10000	3	1	0	3	0
173	397	0	10000	3	1	0	3	0
182	398	0	10000	3	1	0	3	0
195	399	0	10000	3	1	0	3	0
198	400	0	10000	3	1	0	3	0
192	401	0	10000	3	1	0	3	0
193	402	0	10000	3	1	0	3	0
187	403	0	10000	3	1	0	3	0
180	404	0	10000	3	1	0	3	0
176	405	0	10000	3	1	0	3	0
189	406	0	10000	3	1	0	3	0
204	407	0	10000	3	1	0	3	0
209	408	0	10000	3	1	0	3	0
207	409	0	10000	3	1	0	3	0
200	410	0	10000	3	1	0	3	0
193	411	0	10000	3	1	0	3	0
189	412	0	10000	3	1	0	3	0
189	413	0	10000	3	1	0	3	0
183	414	0	10000	3	1	0	3	0
182	415	0	10000	3	1	0	3	0
178	416	0	10000	3	1	0	3	0
178	417	0	10000	3	1	0	3	0
174	418	0	10000	3	1	0	3	0
181	419	0	10000	3	1	0	3	0
181	420	0	10000	3	1	0	3	0
174	421	0	10000	3	1	0	3	0
170	422	0	10000	3	1	0	3	0
175	423	0	10000	3	1	0	3	0
182	424	0	10000	3	1	0	3	0
178	425	0	10000	3	1	0	3	0
183	426	0	10000	3	1	0	3	0
191	427	0	10000	3	1	0	3	0
198	428	0	10000	3	1	0	3	0
196	429	0	10000	3	1	0	3	0
195	430	0	10000	3	1	0	3	0
195	431	0	10000	3	1	0	3	0
189	432	0	10000	3	1	0	3	0
181	433	0	10000	3	1	0	3	0
179	434	0	10000	3	1	0	3	0
185	435	0	10000	3	1	0	3	0
186	436	0	10000	3	1	0	3	0
187	437	0	10000	3	1	0	3	0
181	438	0	10000	3	1	0	3	0
180	439	0	10000	3	1	0	3	0
180	440	0	10000	3	1	0	3	0
176	441	0	10000	3	1	0	3	0
181	442	0	10000	3	1	0	3	0
184	443	0	10000	3	1	0	3	0
191	444	0	10000	3	1	0	3	0
191	445	0	10000	3	1	0	3	0
187	446	0	10000	3	1	0	3	0
187	447	0	10000	3	1	0	3	0
183	448	0	10000	3	1	0	3	0
184	449	0	10000	3	1	0	3	0
192	450	0	10000	3	1	0	3	0
188	451	0	10000	3	1	0	3	0
187	452	0	10000	3	1	0	3	0
190	453	0	10000	3	1	0	3	0
197	454	0	10000	3	1	0	3	0
209	455	0	10000	3	1	0	3	0
216	456	0	10000	3	1	0	3	0
213	457	0	10000	3	1	0	3	0
214	458	0	10000	3	1	0	3	0
219	459	0	10000	3	1	0	3	0
220	460	0	10000	3	1	0	3	0
214	461	0	10000	3	1	0	3	0
218	462	0	10000	3	1	0	3	0
218	463	0	10000	3	1	0	3	0
220	464	0	10000	3	1	0	3	0
214	465	0	10000	3	1	0	3	0
225	466	0	10000	3	1	0	3	0
239	467	0	10000	3	1	0	3	0
248	468	0	10000	3	1	0	3	0
244	469	0	10000	3	1	0	3	0
238	470	0	10000	3	1	0	3	0
229	471	0	10000	3	1	0	3	0
221	472	0	10000	3	1	0	3	0
216	473	0	10000	3	1	0	3	0
209	474	0	10000	3	1	0	3	0
208	475	0	10000	3	1	0	3	0
203	476	0	10000	3	1	0	3	0
205	477	0	10000	3	1	0	3	0
205	478	0	10000	3	1	0	3	0
213	479	0	10000	3	1	0	3	0
212	480	0	10000	3	1	0	3	0
204	481	0	10000	3	1	0	3	0
201	482	0	10000	3	1	0	3	0
196	483	0	10000	3	1	0	3	0
198	484	0	10000	3	1	0	3	0
191	485	0	10000	3	1	0	3	0
192	486	0	10000	3	1	0	3	0
193	487	0	10000	3	1	0	3	0
196	488	0	10000	3	1	0	3	0
193	489	0	10000	3	1	0	3	0
198	490	0	10000	3	1	0	3	0
195	491	0	10000	3	1	0	3	0
189	492	0	10000	3	1	0	3	0
185	493	0	10000	3	1	0	3	0
181	494	0	10000	3	1	0	3	0
176	495	0	10000	3	1	0	3	0
171	496	0	10000	3	1	0	3	0
179	497	0	10000	3	1	0	3	0
179	498	0	10000	3	1	0	3	0
188	499	0	10000	3	1	0	3	0
191	500	0	10000	3	1	0	3	0
188	501	0	10000	3	1	0	3	0
197	502	0	10000	3	1	0	3	1
198	503	0	10000	3	1	0	3	1
199	504	0	10000	3	1	0	3	1
193	505	0	10000	3	1	0	3	1
193	506	0	10000	3	1	0	3	1
200	507	0	10000	3	1	0	3	1
203	508	0	10000	3	1	0	3	1
200	509	0	10000	3	1	0	3	1
195	510	0	10000	3	1	0	3	1
188	511	0	10000	3	1	0	3	1
183	512	0	10000	3	1	0	3	1
183	513	0	10000	3	1	0	3	1
180	514	0	10000	3	1	0	3	1
180	515	0	10000	3	1	0	3	1
178	516	0	10000	3	1	0	3	1
173	517	0	10000	3	1	0	3	1
172	518	0	10000	3	1	0	3	1
179	519	0	10000	3	1	0	3	1
177	520	0	10000	3	1	0	3	1
169	521	0	10000	3	1	0	3	1
175	522	0	10000	3	1	0	3	1
176	523	0	10000	3	1	0	3	1
180	524	0	10000	3	1	0	3	1
176	525	0	10000	3	1	0	3	1
182	526	0	10000	3	1	0	3	1
186	527	0	10000	3	1	0	3	1
185	528	0	10000	3	1	0	3	1
183	529	0	10000	3	1	0	3	1
190	530	0	10000	3	1	0	3	1
194	531	0	10000	3	1	0	3	1
193	532	0	10000	3	1	0	3	1
193	533	0	10000	3	1	0	3	1
202	534	0	10000	3	1	0	3	1
210	535	0	10000	3	1	0	3	1
213	536	0	10000	3	1	0	3	1
204	537	0	10000	3	1	0	3	1
202	538	0	10000	3	1	0	3	1
199	539	0	10000	3	1	0	3	1
193	540	0	10000	3	1	0	3	1
190	541	0	10000	3	1	0	3	1
199	542	0	10000	3	1	0	3	1
197	543	0	10000	3	1	0	3	1
197	544	0	10000	3	1	0	3	1
190	545	0	10000	3	1	0	3	1
202	546	0	10000	3	1	0	3	1
217	547	0	10000	3	1	0	3	1
225	548	0	10000	3	1	0	3	1
219	549	0	10000	3	1	0	3	1
212	550	0	10000	3	1	0	3	1
206	551	0	10000	3	1	0	3	1
203	552	0	10000	3	1	0	3	0
201	553	0	10000	3	1	0	3	0
204	554	0	10000	3	1	0	3	0
202	555	0	10000	3	1	0	3	0
205	556	0	10000	3	1	0	3	0
209	557	0	10000	3	1	0	3	0
205	558	0	10000	3	1	0	3	0
214	559	0	10000	3	1	0	3	0
211	560	0	10000	3	1	0	3	0
209	561	0	10000	3	1	0	3	0
206	562	0	10000	3	1	0	3	0
208	563	0	10000	3	1	0	3	0
204	564	0	10000	3	1	0	3	0
202	565	0	10000	3	1	0	3	0
209	566	0	10000	3	1	0	3	0
226	567	0	10000	3	1	0	3	0
232	568	0	10000	3	1	0	3	0
234	569	0	10000	3	1	0	3	0
231	570	0	10000	3	1	0	3	0
225	571	0	10000	3	1	0	3	0
216	572	0	10000	3	1	0	3	0
213	573	0	10000	3	1	0	3	0
218	574	0	10000	3	1	0	3	0
230	575	0	10000	3	1	0	3	0
234	576	0	10000	3	1	0	3	0
234	577	0	10000	3	1	0	3	0
224	578	0	10000	3	1	0	3	0
233	579	0	10000	3	1	0	3	0
234	580	0	10000	3	1	0	3	0
228	581	0	10000	3	1	0	3	0
239	582	0	10000	3	1	0	3	0
235	583	0	10000	3	1	0	3	0
227	584	0	10000	3	1	0	3	0
218	585	0	10000	3	1	0	3	0
226	586	0	10000	3	1	0	3	0
233	587	0	10000	3	1	0	3	0
236	588	0	10000	3	1	0	3	0
228	589	0	10000	3	1	0	3	0
229	590	0	10000	3	1	0	3	0
227	591	0	10000	3	1	0	3	0
219	592	0	10000	3	1	0	3	0
216	593	0	10000	3	1	0	3	0
213	594	0	10000	3	1	0	3	0
208	595	0	10000	3	1	0	3	0
206	596	0	10000	3	1	0	3	0
202	597	0	10000	3	1	0	3	0
195	598	0	10000	3	1	0	3	0
201	599	0	10000	3	1	0	3	0
224	600	0	10000	3	1	0	3	0
256	601	0	10000	3	1	0	3	0
264	602	0	10000	3	1	0	3	0
291	603	0	10000	3	1	0	3	0
285	604	0	10000	3	1	0	3	0
326	605	0	10000	3	1	0	3	0
344	606	0	10000	3	1	0	3	0
338	607	0	10000	3	1	0	3	0
350	608	0	10000	3	1	0	3	0
370	609	0	10000	3	1	0	3	0
452	610	0	10000	3	1	0	3	0
548	611	0	10000	3	1	0	3	0
581	612	0	10000	3	1	0	3	0
608	613	0	10000	3	1	0	3	0
607	614	0	10000	3	1	0	3	0
624	615	0	10000	3	1	0	3	0
611	616	0	10000	3	1	0	3	0
606	617	0	10000	3	1	0	3	0
632	618	0	10000	3	1	0	3	0
658	619	0	10000	3	1	0	3	0
638	620	0	10000	3	1	0	3	0
622	621	0	10000	3	1	0	3	0
639	622	0	10000	3	1	0	3	0
652	623	0	10000	3	1	0	3	0
639	624	0	10000	3	1	0	3	0
622	625	0	10000	3	1	0	3	0
598	626	0	10000	3	1	0	3	0
583	627	0	10000	3	1	0	3	0
560	628	0	10000	3	1	0	3	0
545	629	0	10000	3	1	0	3	0
535	630	0	10000	3	1	0	3	0
517	631	0	10000	3	1	0	3	0
504	632	0	10000	3	1	0	3	0
498	633	0	10000	3	1	0	3	0
487	634	0	10000	3	1	0	3	0
478	635	0	10000	3	1	0	3	0
464	636	0	10000	3	1	0	3	0
443	637	0	10000	3	1	0	3	0
425	638	0	10000	3	1	0	3	0
407	639	0	10000	3	1	0	3	0
390	640	0	10000	3	1	0	3	0
381	641	0	10000	3	1	0	3	0
379	642	0	10000	3	1	0	3	0
366	643	0	10000	3	1	0	3	0
357	644	0	10000	3	1	0	3	0
346	645	0	10000	3	1	0	3	0
356	646	0	10000	3	1	0	3	0
365	647	0	10000	3	1	0	3	0
368	648	0	10000	3	1	0	3	0
365	649	0	10000	3	1	0	3	0
350	650	0	10000	3	1	0	3	0
340	651	0	10000	3	1	0	3	0
335	652	0	10000	3	1	0	3	0
331	653	0	10000	3	1	0	3	0
322	654	0	10000	3	1	0	3	0
312	655	0	10000	3	1	0	3	0
304	656	0	10000	3	1	0	3	0
315	657	0	10000	3	1	0	3	0
317	658	0	10000	3	1	0	3	0
333	659	0	10000	3	1	0	3	0
338	660	0	10000	3	1	0	3	0
329	661	0	10000	3	1	0	3	0
316	662	0	10000	3	1	0	3	0
305	663	0	10000	3	1	0	3	0
293	664	0	10000	3	1	0	3	0
294	665	0	10000	3	1	0	3	0
302	666	0	10000	3	1	0	3	0
311	667	0	10000	3	1	0	3	0
310	668	0	10000	3	1	0	3	0
301	669	0	10000	3	1	0	3	0
293	670	0	10000	3	1	0	3	0
285	671	0	10000	3	1	0	3	0
280	672	0	10000	3	1	0	3	0
269	673	0	10000	3	1	0	3	0
258	674	0	10000	3	1	0	3	0
249	675	0	10000	3	1	0	3	0
240	676	0	10000	3	1	0	3	0
239	677	0	10000	3	1	0	3	0
242	678	0	10000	3	1	0	3	0
250	679	0	10000	3	1	0	3	0
242	680	0	10000	3	1	0	3	0
235	681	0	10000	3	1	0	3	0
232	682	0	10000	3	1	0	3	0
229	683	0	10000	3	1	0	3	0
225	684	0	10000	3	1	0	3	0
220	685	0	10000	3	1	0	3	0
221	686	0	10000	3	1	0	3	0
225	687	0	10000	3	1	0	3	0
225	688	0	10000	3	1	0	3	0
217	689	0	10000	3	1	0	3	0
212	690	0	10000	3	1	0	3	0
205	691	0	10000	3	1	0	3	0
199	692	0	10000	3	1	0	3	0
193	693	0	10000	3	1	0	3	0
188	694	0	10000	3	1	0	3	0
195	695	0	10000	3	1	0	3	0
191	696	0	10000	3	1	0	3	0
192	697	0	10000	3	1	0	3	0
193	698	0	10000	3	1	0	3	0
197	699	0	10000	3	1	0	3	0
194	700	0	10000	3	1	0	3	0
189	701	0	10000	3	1	0	3	0
188	702	0	10000	3	1	0	3	0
189	703	0	10000	3	1	0	3	0
192	704	0	10000	3	1	0	3	0
185	705	0	10000	3	1	0	3	0
189	706	0	10000	3	1	0	3	0
196	707	0	10000	3	1	0	3	0
193	708	0	10000	3	1	0	3	0
188	709	0	10000	3	1	0	3	0
190	710	0	10000	3	1	0	3	0
190	711	0	10000	3	1	0	3	0
192	712	0	10000	3	1	0	3	0
193	713	0	10000	3	1	0	3	0
194	714	0	10000	3	1	0	3	0
206	715	0	10000	3	1	0	3	0
211	716	0	10000	3	1	0	3	0
205	717	0	10000	3	1	0	3	0
198	718	0	10000	3	1	0	3	0
196	719	0	10000	3	1	0	3	0
191	720	0	10000	3	1	0	3	0
193	721	0	10000	3	1	0	3	0
199	722	0	10000	3	1	0	3	0
200	723	0	10000	3	1	0	3	0
199	724	0	10000	3	1	0	3	0
191	725	0	10000	3	1	0	3	0
198	726	0	10000	3	1	0	3	0
200	727	0	10000	3	1	0	3	0
198	728	0	10000	3	1	0	3	0
192	729	0	10000	3	1	0	3	0
191	730	0	10000	3	1	0	3	0
187	731	0	10000	3	1	0	3	0
177	732	0	10000	3	1	0	3	0
171	733	0	10000	3	1	0	3	0
167	734	0	10000	3	1	0	3	0
173	735	0	10000	3	1	0	3	0
174	736	0	10000	3	1	0	3	0
176	737	0	10000	3	1	0	3	0
177	738	0	10000	3	1	0	3	0
180	739	0	10000	3	1	0	3	0
176	740	0	10000	3	1	0	3	0
171	741	0	10000	3	1	0	3	0
178	742	0	10000	3	1	0	3	0
181	743	0	10000	3	1	0	3	0
188	744	0	10000	3	1	0	3	0
183	745	0	10000	3	1	0	3	0
186	746	0	10000	3	1	0	3	0
186	747	0	10000	3	1	0	3	0
179	748	0	10000	3	1	0	3	0
176	749	0	10000	3	1	0	3	0
174	750	0	10000	3	1	0	3	0
173	751	0	10000	3	1	0	3	0
176	752	0	10000	3	1	0	3	0
180	753	0	10000	3	1	0	3	0
186	754	0	10000	3	1	0	3	0
195	755	0	10000	3	1	0	3	0
195	756	0	10000	3	1	0	3	0
192	757	0	10000	3	1	0	3	0
185	758	0	10000	3	1	0	3	0
188	759	0	10000	3	1	0	3	0
187	760	0	10000	3	1	0	3	0
179	761	0	10000	3	1	0	3	0
179	762	0	10000	3	1	0	3	0
176	763	0	10000	3	1	0	3	0
179	764	0	10000	3	1	0	3	0
174	765	0	10000	3	1	0	3	0
175	766	0	10000	3	1	0	3	0
178	767	0	10000	3	1	0	3	0
178	768	0	10000	3	1	0	3	0
176	769	0	10000	3	1	0	3	0
174	770	0	10000	3	1	0	3	0
168	771	0	10000	3	1	0	3	0
165	772	0	10000	3	1	0	3	0
162	773	0	10000	3	1	0	3	0
160	774	0	10000	3	1	0	3	0
160	775	0	10000	3	1	0	3	0
162	776	0	10000	3	1	0	3	0
164	777	0	10000	3	1	0	3	0
160	778	0	10000	3	1	0	3	0
163	779	0	10000	3	1	0	3	0
161	780	0	10000	3	1	0	3	0
160	781	0	10000	3	1	0	3	0
162	782	0	10000	3	1	0	3	0
159	783	0	10000	3	1	0	3	0
165	784	0	10000	3	1	0	3	0
175	785	0	10000	3	1	0	3	0
174	786	0	10000	3	1	0	3	0
182	787	0	10000	3	1	0	3	0
188	788	0	10000	3	1	0	3	0
183	789	0	10000	3	1	0	3	0
176	790	0	10000	3	1	0	3	0
175	791	0	10000	3	1	0	3	0
171	792	0	10000	3	1	0	3	0
167	793	0	10000	3	1	0	3	0
167	794	0	10000	3	1	0	3	0
171	795	0	10000	3	1	0	3	0
168	796	0	10000	3	1	0	3	0
174	797	0	10000	3	1	0	3	0
174	798	0	10000	3	1	0	3	0
180	799	0	10000	3	1	0	3	0
175	800	0	10000	3	1	0	3	0
176	801	0	10000	3	1	0	3	0
182	802	0	10000	3	1	0	3	0
176	803	0	10000	3	1	0	3	0
176	804	0	10000	3	1	0	3	0
184	805	0	10000	3	1	0	3	0
182	806	0	10000	3	1	0	3	0
176	807	0	10000	3	1	0	3	0
188	808	0	10000	3	1	0	3	0
190	809	0	10000	3	1	0	3	0
183	810	0	10000	3	1	0	3	0
196	811	0	10000	3	1	0	3	0
219	812	0	10000	3	1	0	3	0
231	813	0	10000	3	1	0	3	0
229	814	0	10000	3	1	0	3	0
247	815	0	10000	3	1	0	3	0
246	816	0	10000	3	1	0	3	0
250	817	0	10000	3	1	0	3	0
257	818	0	10000	3	1	0	3	0
270	819	0	10000	3	1	0	3	0
271	820	0	10000	3	1	0	3	0
273	821	0	10000	3	1	0	3	0
266	822	0	10000	3	1	0	3	0
259	823	0	10000	3	1	0	3	0
258	824	0	10000	3	1	0	3	0
259	825	0	10000	3	1	0	3	0
259	826	0	10000	3	1	0	3	0
256	827	0	10000	3	1	0	3	0
284	828	0	10000	3	1	0	3	0
313	829	0	10000	3	1	0	3	0
330	830	0	10000	3	1	0	3	0
333	831	0	10000	3	1	0	3	0
333	832	0	10000	3	1	0	3	0
373	833	0	10000	3	1	0	3	0
499	834	0	10000	3	1	0	3	0
519	835	0	10000	3	1	0	3	0
513	836	0	10000	3	1	0	3	0
523	837	0	10000	3	1	0	3	0
519	838	0	10000	3	1	0	3	0
504	839	0	10000	3	1	0	3	0
486	840	0	10000	3	1	0	3	0
471	841	0	10000	3	1	0	3	0
465	842	0	10000	3	1	0	3	0
457	843	0	10000	3	1	0	3	0
445	844	0	10000	3	1	0	3	0
430	845	0	10000	3	1	0	3	0
416	846	0	10000	3	1	0	3	0
407	847	0	10000	3	1	0	3	0
429	848	0	10000	3	1	0	3	0
435	849	0	10000	3	1	0	3	0
510	850	0	10000	3	1	0	3	0
520	851	0	10000	3	1	0	3	0
514	852	0	10000	3	1	0	3	0
495	853	0	10000	3	1	0	3	0
479	854	0	10000	3	1	0	3	0
489	855	0	10000	3	1	0	3	0
527	856	0	10000	3	1	0	3	0
527	857	0	10000	3	1	0	3	0
531	858	0	10000	3	1	0	3	0
509	859	0	10000	3	1	0	3	0
504	860	0	10000	3	1	0	3	0
543	861	0	10000	3	1	0	3	0
551	862	0	10000	3	1	0	3	0
558	863	0	10000	3	1	0	3	0
600	864	0	10000	3	1	0	3	0
610	865	0	10000	3	1	0	3	0
590	866	0	10000	3	1	0	3	0
570	867	0	10000	3	1	0	3	0
546	868	0	10000	3	1	0	3	0
527	869	0	10000	3	1	0	3	0
504	870	0	10000	3	1	0	3	0
482	871	0	10000	3	1	0	3	0
468	872	0	10000	3	1	0	3	0
450	873	0	10000	3	1	0	3	0
431	874	0	10000	3	1	0	3	0
415	875	0	10000	3	1	0	3	0
398	876	0	10000	3	1	0	3	0
380	877	0	10000	3	1	0	3	0
377	878	0	10000	3	1	0	3	0
382	879	0	10000	3	1	0	3	0
381	880	0	10000	3	1	0	3	0
372	881	0	10000	3	1	0	3	0
357	882	0	10000	3	1	0	3	0
341	883	0	10000	3	1	0	3	0
328	884	0	10000	3	1	0	3	0
321	885	0	10000	3	1	0	3	0
326	886	0	10000	3	1	0	3	0
333	887	0	10000	3	1	0	3	0
340	888	0	10000	3	1	0	3	0
330	889	0	10000	3	1	0	3	0
318	890	0	10000	3	1	0	3	0
310	891	0	10000	3	1	0	3	0
307	892	0	10000	3	1	0	3	0
304	893	0	10000	3	1	0	3	0
299	894	0	10000	3	1	0	3	0
288	895	0	10000	3	1	0	3	0
281	896	0	10000	3	1	0	3	0
286	897	0	10000	3	1	0	3	0
295	898	0	10000	3	1	0	3	0
308	899	0	10000	3	1	0	3	0
305	900	0	10000	3	1	0	3	0
296	901	0	10000	3	1	0	3	0
285	902	0	10000	3	1	0	3	0
275	903	0	10000	3	1	0	3	0
263	904	0	10000	3	1	0	3	0
255	905	0	10000	3	1	0	3	0
263	906	0	10000	3	1	0	3	0
271	907	0	10000	3	1	0	3	0
277	908	0	10000	3	1	0	3	0
272	909	0	10000	3	1	0	3	0
269	910	0	10000	3	1	0	3	0
272	911	0	10000	3	1	0	3	0
267	912	0	10000	3	1	0	3	0
262	913	0	10000	3	1	0	3	0
255	914	0	10000	3	1	0	3	0
248	915	0	10000	3	1	0	3	0
241	916	0	10000	3	1	0	3	0
238	917	0	10000	3	1	0	3	0
234	918	0	10000	3	1	0	3	0
232	919	0	10000	3	1	0	3	0
226	920	0	10000	3	1	0	3	0
219	921	0	10000	3	1	0	3	0
212	922	0	10000	3	1	0	3	0
203	923	0	10000	3	1	0	3	0
195	924	0	10000	3	1	0	3	0
192	925	0	10000	3	1	0	3	0
200	926	0	10000	3	1	0	3	0
201	927	0	10000	3	1	0	3	0
206	928	0	10000	3	1	0	3	0
201	929	0	10000	3	1	0	3	0
193	930	0	10000	3	1	0	3	0
186	931	0	10000	3	1	0	3	0
180	932	0	10000	3	1	0	3	0
179	933	0	10000	3	1	0	3	0
174	934	0	10000	3	1	0	3	0
175	935	0	10000	3	1	0	3	0
172	936	0	10000	3	1	0	3	0
170	937	0	10000	3	1	0	3	0
166	938	0	10000	3	1	0	3	0
170	939	0	10000	3	1	0	3	0
167	940	0	10000	3	1	0	3	0
162	941	0	10000	3	1	0	3	0
169	942	0	10000	3	1	0	3	0
171	943	0	10000	3	1	0	3	0
178	944	0	10000	3	1	0	3	0
177	945	0	10000	3	1	0	3	0
176	946	0	10000	3	1	0	3	0
178	947	0	10000	3	1	0	3	0
181	948	0	10000	3	1	0	3	0
178	949	0	10000	3	1	0	3	0
177	950	0	10000	3	1	0	3	0
171	951	0	10000	3	1	0	3	0
170	952	0	10000	3	1	0	3	0
176	953	0	10000	3	1	0	3	0
177	954	0	10000	3	1	0	3	0
177	955	0	10000	3	1	0	3	0
174	956	0	10000	3	1	0	3	0
174	957	0	10000	3	1	0	3	0
173	958	0	10000	3	1	0	3	0
176	959	0	10000	3	1	0	3	0
171	960	0	10000	3	1	0	3	0
171	961	0	10000	3	1	0	3	0
176	962	0	10000	3	1	0	3	0
181	963	0	10000	3	1	0	3	0
191	964	0	10000	3	1	0	3	0
189	965	0	10000	3	1	0	3	0
189	966	0	10000	3	1	0	3	0
192	967	0	10000	3	1	0	3	0
192	968	0	10000	3	1	0	3	0
187	969	0	10000	3	1	0	3	0
186	970	0	10000	3	1	0	3	0
178	971	0	10000	3	1	0	3	0
180	972	0	10000	3	1	0	3	0
183	973	0	10000	3	1	0	3	0
191	974	0	10000	3	1	0	3	0
208	975	0	10000	3	1	0	3	0
211	976	0	10000	3	1	0	3	0
203	977	0	10000	3	1	0	3	0
198	978	0	10000	3	1	0	3	0
199	979	0	10000	3	1	0	3	0
192	980	0	10000	3	1	0	3	0
191	981	0	10000	3	1	0	3	0
192	982	0	10000	3	1	0	3	0
193	983	0	10000	3	1	0	3	0
192	984	0	10000	3	1	0	3	0
187	985	0	10000	3	1	0	3	0
197	986	0	10000	3	1	0	3	0
201	987	0	10000	3	1	0	3	0
201	988	0	10000	3	1	0	3	0
194	989	0	10000	3	1	0	3	0
187	990	0	10000	3	1	0	3	0
181	991	0	10000	3	1	0	3	0
177	992	0	10000	3	1	0	3	0
179	993	0	10000	3	1	0	3	0
180	994	0	10000	3	1	0	3	0
185	995	0	10000	3	1	0	3	0
185	996	0	10000	3	1	0	3	0
185	997	0	10000	3	1	0	3	0
181	998	0	10000	3	1	0	3	0
187	999	0	10000	3	1	0	3	0
180	1000	0	10000	3	1	0	3	0
177	1001	0	10000	3	1	0	3	0
153	1	7	10000	4	1	0	4	0
166	2	7	10000	4	1	0	4	0
174	3	7	10000	4	1	0	4	0
173	4	7	10000	4	1	0	4	0
168	5	7	10000	4	1	0	4	0
165	6	7	10000	4	1	0	4	0
163	7	7	10000	4	1	0	4	0
159	8	7	10000	4	1	0	4	0
154	9	7	10000	4	1	0	4	0
158	10	7	10000	4	1	0	4	0
157	11	7	10000	4	1	0	4	0
163	12	7	10000	4	1	0	4	0
168	13	7	10000	4	1	0	4	0
172	14	7	10000	4	1	0	4	0
168	15	7	10000	4	1	0	4	0
164	16	7	10000	4	1	0	4	0
169	17	7	10000	4	1	0	4	0
167	18	7	10000	4	1	0	4	0
173	19	7	10000	4	1	0	4	0
170	20	7	10000	4	1	0	4	0
168	21	7	10000	4	1	0	4	0
177	22	7	10000	4	1	0	4	0
181	23	7	10000	4	1	0	4	0
177	24	7	10000	4	1	0	4	0
172	25	7	10000	4	1	0	4	0
168	26	7	10000	4	1	0	4	0
166	27	7	10000	4	1	0	4	0
167	28	7	10000	4	1	0	4	0
166	29	7	10000	4	1	0	4	0
171	30	7	10000	4	1	0	4	0
181	31	7	10000	4	1	0	4	0
174	32	7	10000	4	1	0	4	0
168	33	7	10000	4	1	0	4	0
175	34	7	10000	4	1	0	4	0
176	35	7	10000	4	1	0	4	0
170	36	7	10000	4	1	0	4	0
175	37	7	10000	4	1	0	4	0
180	38	7	10000	4	1	0	4	0
183	39	7	10000	4	1	0	4	0
178	40	7	10000	4	1	0	4	0
184	41	7	10000	4	1	0	4	0
198	42	7	10000	4	1	0	4	0
201	43	7	10000	4	1	0	4	0
197	44	7	10000	4	1	0	4	0
194	45	7	10000	4	1	0	4	0
189	46	7	10000	4	1	0	4	0
183	47	7	10000	4	1	0	4	0
182	48	7	10000	4	1	0	4	0
180	49	7	10000	4	1	0	4	0
186	50	7	10000	4	1	0	4	0
186	51	7	10000	4	1	0	4	0
187	52	7	10000	4	1	0	4	0
185	53	7	10000	4	1	0	4	0
184	54	7	10000	4	1	0	4	0
180	55	7	10000	4	1	0	4	0
174	56	7	10000	4	1	0	4	0
173	57	7	10000	4	1	0	4	0
171	58	7	10000	4	1	0	4	0
175	59	7	10000	4	1	0	4	0
172	60	7	10000	4	1	0	4	0
183	61	7	10000	4	1	0	4	0
199	62	7	10000	4	1	0	4	0
207	63	7	10000	4	1	0	4	0
203	64	7	10000	4	1	0	4	0
195	65	7	10000	4	1	0	4	0
187	66	7	10000	4	1	0	4	0
180	67	7	10000	4	1	0	4	0
175	68	7	10000	4	1	0	4	0
169	69	7	10000	4	1	0	4	0
179	70	7	10000	4	1	0	4	0
185	71	7	10000	4	1	0	4	0
187	72	7	10000	4	1	0	4	0
184	73	7	10000	4	1	0	4	0
190	74	7	10000	4	1	0	4	0
189	75	7	10000	4	1	0	4	0
183	76	7	10000	4	1	0	4	0
187	77	7	10000	4	1	0	4	0
190	78	7	10000	4	1	0	4	0
196	79	7	10000	4	1	0	4	0
201	80	7	10000	4	1	0	4	0
198	81	7	10000	4	1	0	4	0
201	82	7	10000	4	1	0	4	0
198	83	7	10000	4	1	0	4	0
198	84	7	10000	4	1	0	4	0
203	85	7	10000	4	1	0	4	0
201	86	7	10000	4	1	0	4	0
197	87	7	10000	4	1	0	4	0
195	88	7	10000	4	1	0	4	0
191	89	7	10000	4	1	0	4	0
193	90	7	10000	4	1	0	4	0
191	91	7	10000	4	1	0	4	0
193	92	7	10000	4	1	0	4	0
192	93	7	10000	4	1	0	4	0
191	94	7	10000	4	1	0	4	0
186	95	7	10000	4	1	0	4	0
179	96	7	10000	4	1	0	4	0
182	97	7	10000	4	1	0	4	0
177	98	7	10000	4	1	0	4	0
177	99	7	10000	4	1	0	4	0
170	100	7	10000	4	1	0	4	0
177	101	7	10000	4	1	0	4	0
185	102	7	10000	4	1	0	4	0
186	103	7	10000	4	1	0	4	0
185	104	7	10000	4	1	0	4	0
186	105	7	10000	4	1	0	4	0
181	106	7	10000	4	1	0	4	0
175	107	7	10000	4	1	0	4	0
171	108	7	10000	4	1	0	4	0
166	109	7	10000	4	1	0	4	0
167	110	7	10000	4	1	0	4	0
167	111	7	10000	4	1	0	4	0
168	112	7	10000	4	1	0	4	0
165	113	7	10000	4	1	0	4	0
167	114	7	10000	4	1	0	4	0
171	115	7	10000	4	1	0	4	0
170	116	7	10000	4	1	0	4	0
172	117	7	10000	4	1	0	4	0
171	118	7	10000	4	1	0	4	0
172	119	7	10000	4	1	0	4	0
167	120	7	10000	4	1	0	4	0
175	121	7	10000	4	1	0	4	0
186	122	7	10000	4	1	0	4	0
190	123	7	10000	4	1	0	4	0
187	124	7	10000	4	1	0	4	0
185	125	7	10000	4	1	0	4	0
178	126	7	10000	4	1	0	4	0
172	127	7	10000	4	1	0	4	0
168	128	7	10000	4	1	0	4	0
165	129	7	10000	4	1	0	4	0
174	130	7	10000	4	1	0	4	0
178	131	7	10000	4	1	0	4	0
176	132	7	10000	4	1	0	4	0
178	133	7	10000	4	1	0	4	0
187	134	7	10000	4	1	0	4	0
186	135	7	10000	4	1	0	4	0
179	136	7	10000	4	1	0	4	0
183	137	7	10000	4	1	0	4	0
179	138	7	10000	4	1	0	4	0
173	139	7	10000	4	1	0	4	0
167	140	7	10000	4	1	0	4	0
181	141	7	10000	4	1	0	4	0
197	142	7	10000	4	1	0	4	0
205	143	7	10000	4	1	0	4	0
201	144	7	10000	4	1	0	4	0
194	145	7	10000	4	1	0	4	0
192	146	7	10000	4	1	0	4	0
189	147	7	10000	4	1	0	4	0
184	148	7	10000	4	1	0	4	0
183	149	7	10000	4	1	0	4	0
192	150	7	10000	4	1	0	4	0
193	151	7	10000	4	1	0	4	0
195	152	7	10000	4	1	0	4	0
195	153	7	10000	4	1	0	4	0
201	154	7	10000	4	1	0	4	0
202	155	7	10000	4	1	0	4	0
195	156	7	10000	4	1	0	4	0
200	157	7	10000	4	1	0	4	0
198	158	7	10000	4	1	0	4	0
198	159	7	10000	4	1	0	4	0
191	160	7	10000	4	1	0	4	0
201	161	7	10000	4	1	0	4	0
210	162	7	10000	4	1	0	4	0
214	163	7	10000	4	1	0	4	0
213	164	7	10000	4	1	0	4	0
216	165	7	10000	4	1	0	4	0
210	166	7	10000	4	1	0	4	0
202	167	7	10000	4	1	0	4	0
201	168	7	10000	4	1	0	4	0
201	169	7	10000	4	1	0	4	0
209	170	7	10000	4	1	0	4	0
218	171	7	10000	4	1	0	4	0
212	172	7	10000	4	1	0	4	0
207	173	7	10000	4	1	0	4	0
206	174	7	10000	4	1	0	4	0
202	175	7	10000	4	1	0	4	0
197	176	7	10000	4	1	0	4	0
201	177	7	10000	4	1	0	4	0
209	178	7	10000	4	1	0	4	0
219	179	7	10000	4	1	0	4	0
216	180	7	10000	4	1	0	4	0
208	181	7	10000	4	1	0	4	0
201	182	7	10000	4	1	0	4	0
195	183	7	10000	4	1	0	4	0
195	184	7	10000	4	1	0	4	0
197	185	7	10000	4	1	0	4	0
191	186	7	10000	4	1	0	4	0
188	187	7	10000	4	1	0	4	0
186	188	7	10000	4	1	0	4	0
186	189	7	10000	4	1	0	4	0
191	190	7	10000	4	1	0	4	0
190	191	7	10000	4	1	0	4	0
191	192	7	10000	4	1	0	4	0
198	193	7	10000	4	1	0	4	0
210	194	7	10000	4	1	0	4	0
211	195	7	10000	4	1	0	4	0
202	196	7	10000	4	1	0	4	0
197	197	7	10000	4	1	0	4	0
190	198	7	10000	4	1	0	4	0
188	199	7	10000	4	1	0	4	0
181	200	7	10000	4	1	0	4	0
184	201	7	10000	4	1	0	4	0
191	202	7	10000	4	1	0	4	0
194	203	7	10000	4	1	0	4	0
191	204	7	10000	4	1	0	4	0
190	205	7	10000	4	1	0	4	0
184	206	7	10000	4	1	0	4	0
178	207	7	10000	4	1	0	4	0
173	208	7	10000	4	1	0	4	0
170	209	7	10000	4	1	0	4	0
173	210	7	10000	4	1	0	4	0
175	211	7	10000	4	1	0	4	0
177	212	7	10000	4	1	0	4	0
179	213	7	10000	4	1	0	4	0
186	214	7	10000	4	1	0	4	0
185	215	7	10000	4	1	0	4	0
179	216	7	10000	4	1	0	4	0
182	217	7	10000	4	1	0	4	0
178	218	7	10000	4	1	0	4	0
181	219	7	10000	4	1	0	4	0
175	220	7	10000	4	1	0	4	0
180	221	7	10000	4	1	0	4	0
187	222	7	10000	4	1	0	4	0
187	223	7	10000	4	1	0	4	0
187	224	7	10000	4	1	0	4	0
192	225	7	10000	4	1	0	4	0
185	226	7	10000	4	1	0	4	0
180	227	7	10000	4	1	0	4	0
177	228	7	10000	4	1	0	4	0
176	229	7	10000	4	1	0	4	0
189	230	7	10000	4	1	0	4	0
190	231	7	10000	4	1	0	4	0
188	232	7	10000	4	1	0	4	0
184	233	7	10000	4	1	0	4	0
184	234	7	10000	4	1	0	4	0
180	235	7	10000	4	1	0	4	0
176	236	7	10000	4	1	0	4	0
176	237	7	10000	4	1	0	4	0
180	238	7	10000	4	1	0	4	0
188	239	7	10000	4	1	0	4	0
190	240	7	10000	4	1	0	4	0
187	241	7	10000	4	1	0	4	0
188	242	7	10000	4	1	0	4	0
192	243	7	10000	4	1	0	4	0
188	244	7	10000	4	1	0	4	0
183	245	7	10000	4	1	0	4	0
177	246	7	10000	4	1	0	4	0
175	247	7	10000	4	1	0	4	0
179	248	7	10000	4	1	0	4	0
180	249	7	10000	4	1	0	4	0
187	250	7	10000	4	1	0	4	0
189	251	7	10000	4	1	0	4	0
190	252	7	10000	4	1	0	4	0
190	253	7	10000	4	1	0	4	0
200	254	7	10000	4	1	0	4	0
197	255	7	10000	4	1	0	4	0
190	256	7	10000	4	1	0	4	0
190	257	7	10000	4	1	0	4	0
193	258	7	10000	4	1	0	4	0
197	259	7	10000	4	1	0	4	0
189	260	7	10000	4	1	0	4	0
200	261	7	10000	4	1	0	4	0
208	262	7	10000	4	1	0	4	0
210	263	7	10000	4	1	0	4	0
207	264	7	10000	4	1	0	4	0
203	265	7	10000	4	1	0	4	0
197	266	7	10000	4	1	0	4	0
188	267	7	10000	4	1	0	4	0
187	268	7	10000	4	1	0	4	0
181	269	7	10000	4	1	0	4	0
180	270	7	10000	4	1	0	4	0
176	271	7	10000	4	1	0	4	0
181	272	7	10000	4	1	0	4	0
185	273	7	10000	4	1	0	4	0
197	274	7	10000	4	1	0	4	0
202	275	7	10000	4	1	0	4	0
197	276	7	10000	4	1	0	4	0
198	277	7	10000	4	1	0	4	0
197	278	7	10000	4	1	0	4	0
195	279	7	10000	4	1	0	4	0
188	280	7	10000	4	1	0	4	0
192	281	7	10000	4	1	0	4	0
194	282	7	10000	4	1	0	4	0
197	283	7	10000	4	1	0	4	0
195	284	7	10000	4	1	0	4	0
197	285	7	10000	4	1	0	4	0
191	286	7	10000	4	1	0	4	0
187	287	7	10000	4	1	0	4	0
188	288	7	10000	4	1	0	4	0
189	289	7	10000	4	1	0	4	0
195	290	7	10000	4	1	0	4	0
196	291	7	10000	4	1	0	4	0
198	292	7	10000	4	1	0	4	0
192	293	7	10000	4	1	0	4	0
199	294	7	10000	4	1	0	4	0
195	295	7	10000	4	1	0	4	0
193	296	7	10000	4	1	0	4	0
199	297	7	10000	4	1	0	4	0
198	298	7	10000	4	1	0	4	0
199	299	7	10000	4	1	0	4	0
192	300	7	10000	4	1	0	4	0
199	301	7	10000	4	1	0	4	0
208	302	7	10000	4	1	0	4	0
214	303	7	10000	4	1	0	4	0
209	304	7	10000	4	1	0	4	0
202	305	7	10000	4	1	0	4	0
196	306	7	10000	4	1	0	4	0
189	307	7	10000	4	1	0	4	0
185	308	7	10000	4	1	0	4	0
182	309	7	10000	4	1	0	4	0
183	310	7	10000	4	1	0	4	0
189	311	7	10000	4	1	0	4	0
189	312	7	10000	4	1	0	4	0
198	313	7	10000	4	1	0	4	0
211	314	7	10000	4	1	0	4	0
211	315	7	10000	4	1	0	4	0
203	316	7	10000	4	1	0	4	0
205	317	7	10000	4	1	0	4	0
206	318	7	10000	4	1	0	4	0
215	319	7	10000	4	1	0	4	0
208	320	7	10000	4	1	0	4	0
213	321	7	10000	4	1	0	4	0
221	322	7	10000	4	1	0	4	0
225	323	7	10000	4	1	0	4	0
222	324	7	10000	4	1	0	4	0
219	325	7	10000	4	1	0	4	0
210	326	7	10000	4	1	0	4	0
204	327	7	10000	4	1	0	4	0
200	328	7	10000	4	1	0	4	0
194	329	7	10000	4	1	0	4	0
195	330	7	10000	4	1	0	4	0
197	331	7	10000	4	1	0	4	0
193	332	7	10000	4	1	0	4	0
191	333	7	10000	4	1	0	4	0
193	334	7	10000	4	1	0	4	0
189	335	7	10000	4	1	0	4	0
188	336	7	10000	4	1	0	4	0
191	337	7	10000	4	1	0	4	0
190	338	7	10000	4	1	0	4	0
188	339	7	10000	4	1	0	4	0
185	340	7	10000	4	1	0	4	0
188	341	7	10000	4	1	0	4	0
194	342	7	10000	4	1	0	4	0
195	343	7	10000	4	1	0	4	0
192	344	7	10000	4	1	0	4	0
192	345	7	10000	4	1	0	4	0
189	346	7	10000	4	1	0	4	0
181	347	7	10000	4	1	0	4	0
173	348	7	10000	4	1	0	4	0
171	349	7	10000	4	1	0	4	0
175	350	7	10000	4	1	0	4	0
175	351	7	10000	4	1	0	4	0
174	352	7	10000	4	1	0	4	0
171	353	7	10000	4	1	0	4	0
173	354	7	10000	4	1	0	4	0
169	355	7	10000	4	1	0	4	0
169	356	7	10000	4	1	0	4	0
176	357	7	10000	4	1	0	4	0
191	358	7	10000	4	1	0	4	0
211	359	7	10000	4	1	0	4	0
218	360	7	10000	4	1	0	4	0
212	361	7	10000	4	1	0	4	0
211	362	7	10000	4	1	0	4	0
205	363	7	10000	4	1	0	4	0
201	364	7	10000	4	1	0	4	0
199	365	7	10000	4	1	0	4	0
196	366	7	10000	4	1	0	4	0
197	367	7	10000	4	1	0	4	0
189	368	7	10000	4	1	0	4	0
183	369	7	10000	4	1	0	4	0
181	370	7	10000	4	1	0	4	0
177	371	7	10000	4	1	0	4	0
184	372	7	10000	4	1	0	4	0
186	373	7	10000	4	1	0	4	0
195	374	7	10000	4	1	0	4	0
193	375	7	10000	4	1	0	4	0
190	376	7	10000	4	1	0	4	0
190	377	7	10000	4	1	0	4	0
184	378	7	10000	4	1	0	4	0
179	379	7	10000	4	1	0	4	0
173	380	7	10000	4	1	0	4	0
183	381	7	10000	4	1	0	4	0
191	382	7	10000	4	1	0	4	0
193	383	7	10000	4	1	0	4	0
187	384	7	10000	4	1	0	4	0
181	385	7	10000	4	1	0	4	0
180	386	7	10000	4	1	0	4	0
178	387	7	10000	4	1	0	4	0
171	388	7	10000	4	1	0	4	0
165	389	7	10000	4	1	0	4	0
163	390	7	10000	4	1	0	4	0
162	391	7	10000	4	1	0	4	0
162	392	7	10000	4	1	0	4	0
163	393	7	10000	4	1	0	4	0
176	394	7	10000	4	1	0	4	0
176	395	7	10000	4	1	0	4	0
172	396	7	10000	4	1	0	4	0
180	397	7	10000	4	1	0	4	0
184	398	7	10000	4	1	0	4	0
183	399	7	10000	4	1	0	4	0
176	400	7	10000	4	1	0	4	0
180	401	7	10000	4	1	0	4	0
189	402	7	10000	4	1	0	4	0
192	403	7	10000	4	1	0	4	0
189	404	7	10000	4	1	0	4	0
189	405	7	10000	4	1	0	4	0
189	406	7	10000	4	1	0	4	0
186	407	7	10000	4	1	0	4	0
186	408	7	10000	4	1	0	4	0
191	409	7	10000	4	1	0	4	0
199	410	7	10000	4	1	0	4	0
194	411	7	10000	4	1	0	4	0
197	412	7	10000	4	1	0	4	0
193	413	7	10000	4	1	0	4	0
194	414	7	10000	4	1	0	4	0
189	415	7	10000	4	1	0	4	0
187	416	7	10000	4	1	0	4	0
196	417	7	10000	4	1	0	4	0
202	418	7	10000	4	1	0	4	0
206	419	7	10000	4	1	0	4	0
199	420	7	10000	4	1	0	4	0
202	421	7	10000	4	1	0	4	0
209	422	7	10000	4	1	0	4	0
213	423	7	10000	4	1	0	4	0
207	424	7	10000	4	1	0	4	0
200	425	7	10000	4	1	0	4	0
193	426	7	10000	4	1	0	4	0
184	427	7	10000	4	1	0	4	0
182	428	7	10000	4	1	0	4	0
176	429	7	10000	4	1	0	4	0
174	430	7	10000	4	1	0	4	0
174	431	7	10000	4	1	0	4	0
175	432	7	10000	4	1	0	4	0
174	433	7	10000	4	1	0	4	0
185	434	7	10000	4	1	0	4	0
183	435	7	10000	4	1	0	4	0
179	436	7	10000	4	1	0	4	0
179	437	7	10000	4	1	0	4	0
181	438	7	10000	4	1	0	4	0
189	439	7	10000	4	1	0	4	0
183	440	7	10000	4	1	0	4	0
192	441	7	10000	4	1	0	4	0
201	442	7	10000	4	1	0	4	0
204	443	7	10000	4	1	0	4	0
199	444	7	10000	4	1	0	4	0
193	445	7	10000	4	1	0	4	0
185	446	7	10000	4	1	0	4	0
179	447	7	10000	4	1	0	4	0
171	448	7	10000	4	1	0	4	0
165	449	7	10000	4	1	0	4	0
165	450	7	10000	4	1	0	4	0
166	451	7	10000	4	1	0	4	0
167	452	7	10000	4	1	0	4	0
169	453	7	10000	4	1	0	4	0
177	454	7	10000	4	1	0	4	0
176	455	7	10000	4	1	0	4	0
178	456	7	10000	4	1	0	4	0
189	457	7	10000	4	1	0	4	0
192	458	7	10000	4	1	0	4	0
200	459	7	10000	4	1	0	4	0
196	460	7	10000	4	1	0	4	0
203	461	7	10000	4	1	0	4	0
205	462	7	10000	4	1	0	4	0
202	463	7	10000	4	1	0	4	0
200	464	7	10000	4	1	0	4	0
200	465	7	10000	4	1	0	4	0
193	466	7	10000	4	1	0	4	0
189	467	7	10000	4	1	0	4	0
184	468	7	10000	4	1	0	4	0
192	469	7	10000	4	1	0	4	0
204	470	7	10000	4	1	0	4	0
207	471	7	10000	4	1	0	4	0
204	472	7	10000	4	1	0	4	0
200	473	7	10000	4	1	0	4	0
202	474	7	10000	4	1	0	4	0
195	475	7	10000	4	1	0	4	0
188	476	7	10000	4	1	0	4	0
185	477	7	10000	4	1	0	4	0
186	478	7	10000	4	1	0	4	0
190	479	7	10000	4	1	0	4	0
187	480	7	10000	4	1	0	4	0
193	481	7	10000	4	1	0	4	0
201	482	7	10000	4	1	0	4	0
206	483	7	10000	4	1	0	4	0
201	484	7	10000	4	1	0	4	0
197	485	7	10000	4	1	0	4	0
189	486	7	10000	4	1	0	4	0
185	487	7	10000	4	1	0	4	0
183	488	7	10000	4	1	0	4	0
186	489	7	10000	4	1	0	4	0
195	490	7	10000	4	1	0	4	0
194	491	7	10000	4	1	0	4	0
195	492	7	10000	4	1	0	4	0
189	493	7	10000	4	1	0	4	0
191	494	7	10000	4	1	0	4	0
191	495	7	10000	4	1	0	4	0
185	496	7	10000	4	1	0	4	0
186	497	7	10000	4	1	0	4	0
186	498	7	10000	4	1	0	4	0
187	499	7	10000	4	1	0	4	0
184	500	7	10000	4	1	0	4	0
186	501	7	10000	4	1	0	4	1
191	502	7	10000	4	1	0	4	1
193	503	7	10000	4	1	0	4	1
188	504	7	10000	4	1	0	4	1
186	505	7	10000	4	1	0	4	1
180	506	7	10000	4	1	0	4	1
172	507	7	10000	4	1	0	4	1
165	508	7	10000	4	1	0	4	1
158	509	7	10000	4	1	0	4	1
158	510	7	10000	4	1	0	4	1
155	511	7	10000	4	1	0	4	1
158	512	7	10000	4	1	0	4	1
157	513	7	10000	4	1	0	4	1
165	514	7	10000	4	1	0	4	1
166	515	7	10000	4	1	0	4	1
164	516	7	10000	4	1	0	4	1
170	517	7	10000	4	1	0	4	1
173	518	7	10000	4	1	0	4	1
180	519	7	10000	4	1	0	4	1
176	520	7	10000	4	1	0	4	1
177	521	7	10000	4	1	0	4	1
182	522	7	10000	4	1	0	4	1
180	523	7	10000	4	1	0	4	1
177	524	7	10000	4	1	0	4	1
184	525	7	10000	4	1	0	4	1
180	526	7	10000	4	1	0	4	1
174	527	7	10000	4	1	0	4	1
171	528	7	10000	4	1	0	4	1
170	529	7	10000	4	1	0	4	1
173	530	7	10000	4	1	0	4	1
170	531	7	10000	4	1	0	4	1
167	532	7	10000	4	1	0	4	1
161	533	7	10000	4	1	0	4	1
167	534	7	10000	4	1	0	4	1
167	535	7	10000	4	1	0	4	1
167	536	7	10000	4	1	0	4	1
179	537	7	10000	4	1	0	4	1
179	538	7	10000	4	1	0	4	1
178	539	7	10000	4	1	0	4	1
169	540	7	10000	4	1	0	4	1
178	541	7	10000	4	1	0	4	1
184	542	7	10000	4	1	0	4	1
185	543	7	10000	4	1	0	4	1
185	544	7	10000	4	1	0	4	1
197	545	7	10000	4	1	0	4	1
202	546	7	10000	4	1	0	4	1
193	547	7	10000	4	1	0	4	1
190	548	7	10000	4	1	0	4	1
186	549	7	10000	4	1	0	4	1
192	550	7	10000	4	1	0	4	1
193	551	7	10000	4	1	0	4	0
193	552	7	10000	4	1	0	4	0
195	553	7	10000	4	1	0	4	0
203	554	7	10000	4	1	0	4	0
199	555	7	10000	4	1	0	4	0
196	556	7	10000	4	1	0	4	0
193	557	7	10000	4	1	0	4	0
189	558	7	10000	4	1	0	4	0
185	559	7	10000	4	1	0	4	0
180	560	7	10000	4	1	0	4	0
191	561	7	10000	4	1	0	4	0
193	562	7	10000	4	1	0	4	0
194	563	7	10000	4	1	0	4	0
192	564	7	10000	4	1	0	4	0
190	565	7	10000	4	1	0	4	0
187	566	7	10000	4	1	0	4	0
185	567	7	10000	4	1	0	4	0
193	568	7	10000	4	1	0	4	0
190	569	7	10000	4	1	0	4	0
193	570	7	10000	4	1	0	4	0
190	571	7	10000	4	1	0	4	0
199	572	7	10000	4	1	0	4	0
205	573	7	10000	4	1	0	4	0
209	574	7	10000	4	1	0	4	0
208	575	7	10000	4	1	0	4	0
207	576	7	10000	4	1	0	4	0
206	577	7	10000	4	1	0	4	0
201	578	7	10000	4	1	0	4	0
200	579	7	10000	4	1	0	4	0
195	580	7	10000	4	1	0	4	0
193	581	7	10000	4	1	0	4	0
200	582	7	10000	4	1	0	4	0
202	583	7	10000	4	1	0	4	0
203	584	7	10000	4	1	0	4	0
227	585	7	10000	4	1	0	4	0
271	586	7	10000	4	1	0	4	0
309	587	7	10000	4	1	0	4	0
308	588	7	10000	4	1	0	4	0
321	589	7	10000	4	1	0	4	0
419	590	7	10000	4	1	0	4	0
456	591	7	10000	4	1	0	4	0
481	592	7	10000	4	1	0	4	0
531	593	7	10000	4	1	0	4	0
536	594	7	10000	4	1	0	4	0
596	595	7	10000	4	1	0	4	0
674	596	7	10000	4	1	0	4	0
686	597	7	10000	4	1	0	4	0
675	598	7	10000	4	1	0	4	0
691	599	7	10000	4	1	0	4	0
676	600	7	10000	4	1	0	4	0
665	601	7	10000	4	1	0	4	0
676	602	7	10000	4	1	0	4	0
666	603	7	10000	4	1	0	4	0
670	604	7	10000	4	1	0	4	0
681	605	7	10000	4	1	0	4	0
660	606	7	10000	4	1	0	4	0
646	607	7	10000	4	1	0	4	0
637	608	7	10000	4	1	0	4	0
685	609	7	10000	4	1	0	4	0
733	610	7	10000	4	1	0	4	0
724	611	7	10000	4	1	0	4	0
712	612	7	10000	4	1	0	4	0
718	613	7	10000	4	1	0	4	0
692	614	7	10000	4	1	0	4	0
669	615	7	10000	4	1	0	4	0
667	616	7	10000	4	1	0	4	0
653	617	7	10000	4	1	0	4	0
644	618	7	10000	4	1	0	4	0
654	619	7	10000	4	1	0	4	0
672	620	7	10000	4	1	0	4	0
674	621	7	10000	4	1	0	4	0
660	622	7	10000	4	1	0	4	0
636	623	7	10000	4	1	0	4	0
625	624	7	10000	4	1	0	4	0
627	625	7	10000	4	1	0	4	0
620	626	7	10000	4	1	0	4	0
609	627	7	10000	4	1	0	4	0
596	628	7	10000	4	1	0	4	0
583	629	7	10000	4	1	0	4	0
568	630	7	10000	4	1	0	4	0
549	631	7	10000	4	1	0	4	0
531	632	7	10000	4	1	0	4	0
513	633	7	10000	4	1	0	4	0
508	634	7	10000	4	1	0	4	0
505	635	7	10000	4	1	0	4	0
496	636	7	10000	4	1	0	4	0
478	637	7	10000	4	1	0	4	0
460	638	7	10000	4	1	0	4	0
447	639	7	10000	4	1	0	4	0
438	640	7	10000	4	1	0	4	0
448	641	7	10000	4	1	0	4	0
464	642	7	10000	4	1	0	4	0
477	643	7	10000	4	1	0	4	0
477	644	7	10000	4	1	0	4	0
470	645	7	10000	4	1	0	4	0
474	646	7	10000	4	1	0	4	0
476	647	7	10000	4	1	0	4	0
471	648	7	10000	4	1	0	4	0
466	649	7	10000	4	1	0	4	0
471	650	7	10000	4	1	0	4	0
482	651	7	10000	4	1	0	4	0
514	652	7	10000	4	1	0	4	0
531	653	7	10000	4	1	0	4	0
556	654	7	10000	4	1	0	4	0
570	655	7	10000	4	1	0	4	0
574	656	7	10000	4	1	0	4	0
574	657	7	10000	4	1	0	4	0
574	658	7	10000	4	1	0	4	0
569	659	7	10000	4	1	0	4	0
573	660	7	10000	4	1	0	4	0
589	661	7	10000	4	1	0	4	0
609	662	7	10000	4	1	0	4	0
623	663	7	10000	4	1	0	4	0
619	664	7	10000	4	1	0	4	0
606	665	7	10000	4	1	0	4	0
601	666	7	10000	4	1	0	4	0
596	667	7	10000	4	1	0	4	0
584	668	7	10000	4	1	0	4	0
562	669	7	10000	4	1	0	4	0
539	670	7	10000	4	1	0	4	0
517	671	7	10000	4	1	0	4	0
513	672	7	10000	4	1	0	4	0
505	673	7	10000	4	1	0	4	0
500	674	7	10000	4	1	0	4	0
488	675	7	10000	4	1	0	4	0
467	676	7	10000	4	1	0	4	0
447	677	7	10000	4	1	0	4	0
431	678	7	10000	4	1	0	4	0
426	679	7	10000	4	1	0	4	0
412	680	7	10000	4	1	0	4	0
404	681	7	10000	4	1	0	4	0
398	682	7	10000	4	1	0	4	0
389	683	7	10000	4	1	0	4	0
377	684	7	10000	4	1	0	4	0
367	685	7	10000	4	1	0	4	0
355	686	7	10000	4	1	0	4	0
344	687	7	10000	4	1	0	4	0
341	688	7	10000	4	1	0	4	0
345	689	7	10000	4	1	0	4	0
352	690	7	10000	4	1	0	4	0
348	691	7	10000	4	1	0	4	0
343	692	7	10000	4	1	0	4	0
339	693	7	10000	4	1	0	4	0
338	694	7	10000	4	1	0	4	0
328	695	7	10000	4	1	0	4	0
315	696	7	10000	4	1	0	4	0
312	697	7	10000	4	1	0	4	0
319	698	7	10000	4	1	0	4	0
330	699	7	10000	4	1	0	4	0
330	700	7	10000	4	1	0	4	0
320	701	7	10000	4	1	0	4	0
307	702	7	10000	4	1	0	4	0
300	703	7	10000	4	1	0	4	0
301	704	7	10000	4	1	0	4	0
308	705	7	10000	4	1	0	4	0
306	706	7	10000	4	1	0	4	0
310	707	7	10000	4	1	0	4	0
316	708	7	10000	4	1	0	4	0
318	709	7	10000	4	1	0	4	0
322	710	7	10000	4	1	0	4	0
323	711	7	10000	4	1	0	4	0
311	712	7	10000	4	1	0	4	0
300	713	7	10000	4	1	0	4	0
290	714	7	10000	4	1	0	4	0
279	715	7	10000	4	1	0	4	0
273	716	7	10000	4	1	0	4	0
280	717	7	10000	4	1	0	4	0
285	718	7	10000	4	1	0	4	0
293	719	7	10000	4	1	0	4	0
289	720	7	10000	4	1	0	4	0
282	721	7	10000	4	1	0	4	0
276	722	7	10000	4	1	0	4	0
267	723	7	10000	4	1	0	4	0
260	724	7	10000	4	1	0	4	0
264	725	7	10000	4	1	0	4	0
264	726	7	10000	4	1	0	4	0
266	727	7	10000	4	1	0	4	0
274	728	7	10000	4	1	0	4	0
275	729	7	10000	4	1	0	4	0
282	730	7	10000	4	1	0	4	0
284	731	7	10000	4	1	0	4	0
281	732	7	10000	4	1	0	4	0
276	733	7	10000	4	1	0	4	0
275	734	7	10000	4	1	0	4	0
266	735	7	10000	4	1	0	4	0
256	736	7	10000	4	1	0	4	0
258	737	7	10000	4	1	0	4	0
258	738	7	10000	4	1	0	4	0
260	739	7	10000	4	1	0	4	0
253	740	7	10000	4	1	0	4	0
249	741	7	10000	4	1	0	4	0
248	742	7	10000	4	1	0	4	0
245	743	7	10000	4	1	0	4	0
240	744	7	10000	4	1	0	4	0
239	745	7	10000	4	1	0	4	0
236	746	7	10000	4	1	0	4	0
231	747	7	10000	4	1	0	4	0
230	748	7	10000	4	1	0	4	0
225	749	7	10000	4	1	0	4	0
227	750	7	10000	4	1	0	4	0
225	751	7	10000	4	1	0	4	0
220	752	7	10000	4	1	0	4	0
219	753	7	10000	4	1	0	4	0
230	754	7	10000	4	1	0	4	0
236	755	7	10000	4	1	0	4	0
230	756	7	10000	4	1	0	4	0
228	757	7	10000	4	1	0	4	0
224	758	7	10000	4	1	0	4	0
219	759	7	10000	4	1	0	4	0
214	760	7	10000	4	1	0	4	0
218	761	7	10000	4	1	0	4	0
221	762	7	10000	4	1	0	4	0
216	763	7	10000	4	1	0	4	0
215	764	7	10000	4	1	0	4	0
214	765	7	10000	4	1	0	4	0
211	766	7	10000	4	1	0	4	0
206	767	7	10000	4	1	0	4	0
204	768	7	10000	4	1	0	4	0
211	769	7	10000	4	1	0	4	0
214	770	7	10000	4	1	0	4	0
211	771	7	10000	4	1	0	4	0
214	772	7	10000	4	1	0	4	0
214	773	7	10000	4	1	0	4	0
218	774	7	10000	4	1	0	4	0
218	775	7	10000	4	1	0	4	0
213	776	7	10000	4	1	0	4	0
210	777	7	10000	4	1	0	4	0
209	778	7	10000	4	1	0	4	0
209	779	7	10000	4	1	0	4	0
201	780	7	10000	4	1	0	4	0
206	781	7	10000	4	1	0	4	0
209	782	7	10000	4	1	0	4	0
214	783	7	10000	4	1	0	4	0
208	784	7	10000	4	1	0	4	0
198	785	7	10000	4	1	0	4	0
191	786	7	10000	4	1	0	4	0
183	787	7	10000	4	1	0	4	0
176	788	7	10000	4	1	0	4	0
169	789	7	10000	4	1	0	4	0
167	790	7	10000	4	1	0	4	0
162	791	7	10000	4	1	0	4	0
160	792	7	10000	4	1	0	4	0
161	793	7	10000	4	1	0	4	0
172	794	7	10000	4	1	0	4	0
169	795	7	10000	4	1	0	4	0
163	796	7	10000	4	1	0	4	0
160	797	7	10000	4	1	0	4	0
159	798	7	10000	4	1	0	4	0
163	799	7	10000	4	1	0	4	0
157	800	7	10000	4	1	0	4	0
156	801	7	10000	4	1	0	4	0
157	802	7	10000	4	1	0	4	0
154	803	7	10000	4	1	0	4	0
158	804	7	10000	4	1	0	4	0
164	805	7	10000	4	1	0	4	0
162	806	7	10000	4	1	0	4	0
156	807	7	10000	4	1	0	4	0
153	808	7	10000	4	1	0	4	0
149	809	7	10000	4	1	0	4	0
151	810	7	10000	4	1	0	4	0
149	811	7	10000	4	1	0	4	0
154	812	7	10000	4	1	0	4	0
152	813	7	10000	4	1	0	4	0
157	814	7	10000	4	1	0	4	0
159	815	7	10000	4	1	0	4	0
158	816	7	10000	4	1	0	4	0
165	817	7	10000	4	1	0	4	0
171	818	7	10000	4	1	0	4	0
181	819	7	10000	4	1	0	4	0
176	820	7	10000	4	1	0	4	0
180	821	7	10000	4	1	0	4	0
180	822	7	10000	4	1	0	4	0
177	823	7	10000	4	1	0	4	0
174	824	7	10000	4	1	0	4	0
174	825	7	10000	4	1	0	4	0
171	826	7	10000	4	1	0	4	0
165	827	7	10000	4	1	0	4	0
160	828	7	10000	4	1	0	4	0
156	829	7	10000	4	1	0	4	0
158	830	7	10000	4	1	0	4	0
164	831	7	10000	4	1	0	4	0
161	832	7	10000	4	1	0	4	0
160	833	7	10000	4	1	0	4	0
169	834	7	10000	4	1	0	4	0
165	835	7	10000	4	1	0	4	0
159	836	7	10000	4	1	0	4	0
159	837	7	10000	4	1	0	4	0
160	838	7	10000	4	1	0	4	0
167	839	7	10000	4	1	0	4	0
163	840	7	10000	4	1	0	4	0
168	841	7	10000	4	1	0	4	0
169	842	7	10000	4	1	0	4	0
169	843	7	10000	4	1	0	4	0
166	844	7	10000	4	1	0	4	0
165	845	7	10000	4	1	0	4	0
163	846	7	10000	4	1	0	4	0
160	847	7	10000	4	1	0	4	0
153	848	7	10000	4	1	0	4	0
150	849	7	10000	4	1	0	4	0
155	850	7	10000	4	1	0	4	0
152	851	7	10000	4	1	0	4	0
155	852	7	10000	4	1	0	4	0
159	853	7	10000	4	1	0	4	0
164	854	7	10000	4	1	0	4	0
162	855	7	10000	4	1	0	4	0
158	856	7	10000	4	1	0	4	0
163	857	7	10000	4	1	0	4	0
162	858	7	10000	4	1	0	4	0
164	859	7	10000	4	1	0	4	0
157	860	7	10000	4	1	0	4	0
162	861	7	10000	4	1	0	4	0
167	862	7	10000	4	1	0	4	0
167	863	7	10000	4	1	0	4	0
164	864	7	10000	4	1	0	4	0
169	865	7	10000	4	1	0	4	0
163	866	7	10000	4	1	0	4	0
157	867	7	10000	4	1	0	4	0
156	868	7	10000	4	1	0	4	0
154	869	7	10000	4	1	0	4	0
158	870	7	10000	4	1	0	4	0
158	871	7	10000	4	1	0	4	0
164	872	7	10000	4	1	0	4	0
164	873	7	10000	4	1	0	4	0
175	874	7	10000	4	1	0	4	0
173	875	7	10000	4	1	0	4	0
168	876	7	10000	4	1	0	4	0
165	877	7	10000	4	1	0	4	0
161	878	7	10000	4	1	0	4	0
162	879	7	10000	4	1	0	4	0
156	880	7	10000	4	1	0	4	0
160	881	7	10000	4	1	0	4	0
178	882	7	10000	4	1	0	4	0
189	883	7	10000	4	1	0	4	0
186	884	7	10000	4	1	0	4	0
183	885	7	10000	4	1	0	4	0
178	886	7	10000	4	1	0	4	0
172	887	7	10000	4	1	0	4	0
169	888	7	10000	4	1	0	4	0
164	889	7	10000	4	1	0	4	0
166	890	7	10000	4	1	0	4	0
165	891	7	10000	4	1	0	4	0
167	892	7	10000	4	1	0	4	0
164	893	7	10000	4	1	0	4	0
168	894	7	10000	4	1	0	4	0
165	895	7	10000	4	1	0	4	0
163	896	7	10000	4	1	0	4	0
166	897	7	10000	4	1	0	4	0
166	898	7	10000	4	1	0	4	0
165	899	7	10000	4	1	0	4	0
160	900	7	10000	4	1	0	4	0
164	901	7	10000	4	1	0	4	0
169	902	7	10000	4	1	0	4	0
167	903	7	10000	4	1	0	4	0
165	904	7	10000	4	1	0	4	0
167	905	7	10000	4	1	0	4	0
166	906	7	10000	4	1	0	4	0
172	907	7	10000	4	1	0	4	0
175	908	7	10000	4	1	0	4	0
173	909	7	10000	4	1	0	4	0
176	910	7	10000	4	1	0	4	0
176	911	7	10000	4	1	0	4	0
176	912	7	10000	4	1	0	4	0
176	913	7	10000	4	1	0	4	0
188	914	7	10000	4	1	0	4	0
189	915	7	10000	4	1	0	4	0
186	916	7	10000	4	1	0	4	0
186	917	7	10000	4	1	0	4	0
180	918	7	10000	4	1	0	4	0
181	919	7	10000	4	1	0	4	0
176	920	7	10000	4	1	0	4	0
179	921	7	10000	4	1	0	4	0
184	922	7	10000	4	1	0	4	0
184	923	7	10000	4	1	0	4	0
182	924	7	10000	4	1	0	4	0
178	925	7	10000	4	1	0	4	0
171	926	7	10000	4	1	0	4	0
165	927	7	10000	4	1	0	4	0
168	928	7	10000	4	1	0	4	0
172	929	7	10000	4	1	0	4	0
179	930	7	10000	4	1	0	4	0
183	931	7	10000	4	1	0	4	0
176	932	7	10000	4	1	0	4	0
171	933	7	10000	4	1	0	4	0
179	934	7	10000	4	1	0	4	0
176	935	7	10000	4	1	0	4	0
178	936	7	10000	4	1	0	4	0
190	937	7	10000	4	1	0	4	0
199	938	7	10000	4	1	0	4	0
204	939	7	10000	4	1	0	4	0
198	940	7	10000	4	1	0	4	0
204	941	7	10000	4	1	0	4	0
214	942	7	10000	4	1	0	4	0
214	943	7	10000	4	1	0	4	0
210	944	7	10000	4	1	0	4	0
209	945	7	10000	4	1	0	4	0
201	946	7	10000	4	1	0	4	0
195	947	7	10000	4	1	0	4	0
188	948	7	10000	4	1	0	4	0
182	949	7	10000	4	1	0	4	0
183	950	7	10000	4	1	0	4	0
180	951	7	10000	4	1	0	4	0
183	952	7	10000	4	1	0	4	0
185	953	7	10000	4	1	0	4	0
190	954	7	10000	4	1	0	4	0
187	955	7	10000	4	1	0	4	0
183	956	7	10000	4	1	0	4	0
180	957	7	10000	4	1	0	4	0
176	958	7	10000	4	1	0	4	0
173	959	7	10000	4	1	0	4	0
169	960	7	10000	4	1	0	4	0
182	961	7	10000	4	1	0	4	0
193	962	7	10000	4	1	0	4	0
197	963	7	10000	4	1	0	4	0
192	964	7	10000	4	1	0	4	0
190	965	7	10000	4	1	0	4	0
187	966	7	10000	4	1	0	4	0
186	967	7	10000	4	1	0	4	0
188	968	7	10000	4	1	0	4	0
190	969	7	10000	4	1	0	4	0
196	970	7	10000	4	1	0	4	0
195	971	7	10000	4	1	0	4	0
199	972	7	10000	4	1	0	4	0
198	973	7	10000	4	1	0	4	0
210	974	7	10000	4	1	0	4	0
209	975	7	10000	4	1	0	4	0
204	976	7	10000	4	1	0	4	0
205	977	7	10000	4	1	0	4	0
203	978	7	10000	4	1	0	4	0
205	979	7	10000	4	1	0	4	0
200	980	7	10000	4	1	0	4	0
201	981	7	10000	4	1	0	4	0
204	982	7	10000	4	1	0	4	0
202	983	7	10000	4	1	0	4	0
200	984	7	10000	4	1	0	4	0
197	985	7	10000	4	1	0	4	0
193	986	7	10000	4	1	0	4	0
194	987	7	10000	4	1	0	4	0
196	988	7	10000	4	1	0	4	0
197	989	7	10000	4	1	0	4	0
199	990	7	10000	4	1	0	4	0
195	991	7	10000	4	1	0	4	0
201	992	7	10000	4	1	0	4	0
199	993	7	10000	4	1	0	4	0
209	994	7	10000	4	1	0	4	0
215	995	7	10000	4	1	0	4	0
210	996	7	10000	4	1	0	4	0
202	997	7	10000	4	1	0	4	0
198	998	7	10000	4	1	0	4	0
200	999	7	10000	4	1	0	4	0
194	1000	7	10000	4	1	0	4	0
193	1	0	10000	5	1	0	5	0
185	2	0	10000	5	1	0	5	0
179	3	0	10000	5	1	0	5	0
170	4	0	10000	5	1	0	5	0
166	5	0	10000	5	1	0	5	0
166	6	0	10000	5	1	0	5	0
163	7	0	10000	5	1	0	5	0
168	8	0	10000	5	1	0	5	0
167	9	0	10000	5	1	0	5	0
168	10	0	10000	5	1	0	5	0
163	11	0	10000	5	1	0	5	0
166	12	0	10000	5	1	0	5	0
170	13	0	10000	5	1	0	5	0
167	14	0	10000	5	1	0	5	0
165	15	0	10000	5	1	0	5	0
160	16	0	10000	5	1	0	5	0
164	17	0	10000	5	1	0	5	0
168	18	0	10000	5	1	0	5	0
165	19	0	10000	5	1	0	5	0
163	20	0	10000	5	1	0	5	0
161	21	0	10000	5	1	0	5	0
158	22	0	10000	5	1	0	5	0
158	23	0	10000	5	1	0	5	0
157	24	0	10000	5	1	0	5	0
156	25	0	10000	5	1	0	5	0
161	26	0	10000	5	1	0	5	0
161	27	0	10000	5	1	0	5	0
167	28	0	10000	5	1	0	5	0
164	29	0	10000	5	1	0	5	0
169	30	0	10000	5	1	0	5	0
167	31	0	10000	5	1	0	5	0
168	32	0	10000	5	1	0	5	0
173	33	0	10000	5	1	0	5	0
174	34	0	10000	5	1	0	5	0
180	35	0	10000	5	1	0	5	0
174	36	0	10000	5	1	0	5	0
173	37	0	10000	5	1	0	5	0
176	38	0	10000	5	1	0	5	0
176	39	0	10000	5	1	0	5	0
175	40	0	10000	5	1	0	5	0
170	41	0	10000	5	1	0	5	0
163	42	0	10000	5	1	0	5	0
164	43	0	10000	5	1	0	5	0
164	44	0	10000	5	1	0	5	0
162	45	0	10000	5	1	0	5	0
162	46	0	10000	5	1	0	5	0
158	47	0	10000	5	1	0	5	0
164	48	0	10000	5	1	0	5	0
164	49	0	10000	5	1	0	5	0
171	50	0	10000	5	1	0	5	0
169	51	0	10000	5	1	0	5	0
168	52	0	10000	5	1	0	5	0
169	53	0	10000	5	1	0	5	0
171	54	0	10000	5	1	0	5	0
176	55	0	10000	5	1	0	5	0
173	56	0	10000	5	1	0	5	0
181	57	0	10000	5	1	0	5	0
186	58	0	10000	5	1	0	5	0
179	59	0	10000	5	1	0	5	0
182	60	0	10000	5	1	0	5	0
185	61	0	10000	5	1	0	5	0
177	62	0	10000	5	1	0	5	0
173	63	0	10000	5	1	0	5	0
172	64	0	10000	5	1	0	5	0
175	65	0	10000	5	1	0	5	0
177	66	0	10000	5	1	0	5	0
175	67	0	10000	5	1	0	5	0
181	68	0	10000	5	1	0	5	0
189	69	0	10000	5	1	0	5	0
199	70	0	10000	5	1	0	5	0
194	71	0	10000	5	1	0	5	0
191	72	0	10000	5	1	0	5	0
189	73	0	10000	5	1	0	5	0
188	74	0	10000	5	1	0	5	0
181	75	0	10000	5	1	0	5	0
176	76	0	10000	5	1	0	5	0
182	77	0	10000	5	1	0	5	0
189	78	0	10000	5	1	0	5	0
188	79	0	10000	5	1	0	5	0
186	80	0	10000	5	1	0	5	0
186	81	0	10000	5	1	0	5	0
182	82	0	10000	5	1	0	5	0
180	83	0	10000	5	1	0	5	0
179	84	0	10000	5	1	0	5	0
178	85	0	10000	5	1	0	5	0
182	86	0	10000	5	1	0	5	0
178	87	0	10000	5	1	0	5	0
174	88	0	10000	5	1	0	5	0
171	89	0	10000	5	1	0	5	0
177	90	0	10000	5	1	0	5	0
171	91	0	10000	5	1	0	5	0
175	92	0	10000	5	1	0	5	0
176	93	0	10000	5	1	0	5	0
176	94	0	10000	5	1	0	5	0
172	95	0	10000	5	1	0	5	0
172	96	0	10000	5	1	0	5	0
182	97	0	10000	5	1	0	5	0
192	98	0	10000	5	1	0	5	0
198	99	0	10000	5	1	0	5	0
194	100	0	10000	5	1	0	5	0
189	101	0	10000	5	1	0	5	0
181	102	0	10000	5	1	0	5	0
177	103	0	10000	5	1	0	5	0
174	104	0	10000	5	1	0	5	0
170	105	0	10000	5	1	0	5	0
171	106	0	10000	5	1	0	5	0
167	107	0	10000	5	1	0	5	0
168	108	0	10000	5	1	0	5	0
164	109	0	10000	5	1	0	5	0
167	110	0	10000	5	1	0	5	0
162	111	0	10000	5	1	0	5	0
162	112	0	10000	5	1	0	5	0
165	113	0	10000	5	1	0	5	0
166	114	0	10000	5	1	0	5	0
170	115	0	10000	5	1	0	5	0
165	116	0	10000	5	1	0	5	0
165	117	0	10000	5	1	0	5	0
164	118	0	10000	5	1	0	5	0
159	119	0	10000	5	1	0	5	0
158	120	0	10000	5	1	0	5	0
152	121	0	10000	5	1	0	5	0
147	122	0	10000	5	1	0	5	0
152	123	0	10000	5	1	0	5	0
152	124	0	10000	5	1	0	5	0
151	125	0	10000	5	1	0	5	0
150	126	0	10000	5	1	0	5	0
152	127	0	10000	5	1	0	5	0
162	128	0	10000	5	1	0	5	0
164	129	0	10000	5	1	0	5	0
172	130	0	10000	5	1	0	5	0
167	131	0	10000	5	1	0	5	0
165	132	0	10000	5	1	0	5	0
172	133	0	10000	5	1	0	5	0
176	134	0	10000	5	1	0	5	0
177	135	0	10000	5	1	0	5	0
172	136	0	10000	5	1	0	5	0
173	137	0	10000	5	1	0	5	0
178	138	0	10000	5	1	0	5	0
178	139	0	10000	5	1	0	5	0
175	140	0	10000	5	1	0	5	0
171	141	0	10000	5	1	0	5	0
163	142	0	10000	5	1	0	5	0
156	143	0	10000	5	1	0	5	0
151	144	0	10000	5	1	0	5	0
150	145	0	10000	5	1	0	5	0
146	146	0	10000	5	1	0	5	0
148	147	0	10000	5	1	0	5	0
157	148	0	10000	5	1	0	5	0
161	149	0	10000	5	1	0	5	0
175	150	0	10000	5	1	0	5	0
171	151	0	10000	5	1	0	5	0
167	152	0	10000	5	1	0	5	0
170	153	0	10000	5	1	0	5	0
169	154	0	10000	5	1	0	5	0
167	155	0	10000	5	1	0	5	0
165	156	0	10000	5	1	0	5	0
176	157	0	10000	5	1	0	5	0
181	158	0	10000	5	1	0	5	0
184	159	0	10000	5	1	0	5	0
177	160	0	10000	5	1	0	5	0
171	161	0	10000	5	1	0	5	0
164	162	0	10000	5	1	0	5	0
160	163	0	10000	5	1	0	5	0
158	164	0	10000	5	1	0	5	0
158	165	0	10000	5	1	0	5	0
163	166	0	10000	5	1	0	5	0
164	167	0	10000	5	1	0	5	0
165	168	0	10000	5	1	0	5	0
164	169	0	10000	5	1	0	5	0
167	170	0	10000	5	1	0	5	0
160	171	0	10000	5	1	0	5	0
162	172	0	10000	5	1	0	5	0
170	173	0	10000	5	1	0	5	0
178	174	0	10000	5	1	0	5	0
180	175	0	10000	5	1	0	5	0
179	176	0	10000	5	1	0	5	0
186	177	0	10000	5	1	0	5	0
196	178	0	10000	5	1	0	5	0
199	179	0	10000	5	1	0	5	0
196	180	0	10000	5	1	0	5	0
195	181	0	10000	5	1	0	5	0
189	182	0	10000	5	1	0	5	0
185	183	0	10000	5	1	0	5	0
184	184	0	10000	5	1	0	5	0
183	185	0	10000	5	1	0	5	0
188	186	0	10000	5	1	0	5	0
184	187	0	10000	5	1	0	5	0
180	188	0	10000	5	1	0	5	0
173	189	0	10000	5	1	0	5	0
177	190	0	10000	5	1	0	5	0
170	191	0	10000	5	1	0	5	0
170	192	0	10000	5	1	0	5	0
171	193	0	10000	5	1	0	5	0
174	194	0	10000	5	1	0	5	0
177	195	0	10000	5	1	0	5	0
173	196	0	10000	5	1	0	5	0
180	197	0	10000	5	1	0	5	0
182	198	0	10000	5	1	0	5	0
176	199	0	10000	5	1	0	5	0
179	200	0	10000	5	1	0	5	0
185	201	0	10000	5	1	0	5	0
184	202	0	10000	5	1	0	5	0
182	203	0	10000	5	1	0	5	0
185	204	0	10000	5	1	0	5	0
185	205	0	10000	5	1	0	5	0
184	206	0	10000	5	1	0	5	0
180	207	0	10000	5	1	0	5	0
183	208	0	10000	5	1	0	5	0
184	209	0	10000	5	1	0	5	0
196	210	0	10000	5	1	0	5	0
199	211	0	10000	5	1	0	5	0
197	212	0	10000	5	1	0	5	0
203	213	0	10000	5	1	0	5	0
209	214	0	10000	5	1	0	5	0
208	215	0	10000	5	1	0	5	0
201	216	0	10000	5	1	0	5	0
207	217	0	10000	5	1	0	5	0
205	218	0	10000	5	1	0	5	0
205	219	0	10000	5	1	0	5	0
199	220	0	10000	5	1	0	5	0
193	221	0	10000	5	1	0	5	0
187	222	0	10000	5	1	0	5	0
191	223	0	10000	5	1	0	5	0
193	224	0	10000	5	1	0	5	0
197	225	0	10000	5	1	0	5	0
203	226	0	10000	5	1	0	5	0
199	227	0	10000	5	1	0	5	0
195	228	0	10000	5	1	0	5	0
191	229	0	10000	5	1	0	5	0
190	230	0	10000	5	1	0	5	0
186	231	0	10000	5	1	0	5	0
184	232	0	10000	5	1	0	5	0
183	233	0	10000	5	1	0	5	0
179	234	0	10000	5	1	0	5	0
172	235	0	10000	5	1	0	5	0
171	236	0	10000	5	1	0	5	0
180	237	0	10000	5	1	0	5	0
191	238	0	10000	5	1	0	5	0
191	239	0	10000	5	1	0	5	0
190	240	0	10000	5	1	0	5	0
192	241	0	10000	5	1	0	5	0
184	242	0	10000	5	1	0	5	0
179	243	0	10000	5	1	0	5	0
177	244	0	10000	5	1	0	5	0
180	245	0	10000	5	1	0	5	0
184	246	0	10000	5	1	0	5	0
182	247	0	10000	5	1	0	5	0
181	248	0	10000	5	1	0	5	0
178	249	0	10000	5	1	0	5	0
184	250	0	10000	5	1	0	5	0
180	251	0	10000	5	1	0	5	0
179	252	0	10000	5	1	0	5	0
179	253	0	10000	5	1	0	5	0
173	254	0	10000	5	1	0	5	0
165	255	0	10000	5	1	0	5	0
165	256	0	10000	5	1	0	5	0
177	257	0	10000	5	1	0	5	0
189	258	0	10000	5	1	0	5	0
193	259	0	10000	5	1	0	5	0
189	260	0	10000	5	1	0	5	0
182	261	0	10000	5	1	0	5	0
178	262	0	10000	5	1	0	5	0
173	263	0	10000	5	1	0	5	0
171	264	0	10000	5	1	0	5	0
172	265	0	10000	5	1	0	5	0
172	266	0	10000	5	1	0	5	0
170	267	0	10000	5	1	0	5	0
163	268	0	10000	5	1	0	5	0
162	269	0	10000	5	1	0	5	0
164	270	0	10000	5	1	0	5	0
162	271	0	10000	5	1	0	5	0
164	272	0	10000	5	1	0	5	0
171	273	0	10000	5	1	0	5	0
179	274	0	10000	5	1	0	5	0
189	275	0	10000	5	1	0	5	0
187	276	0	10000	5	1	0	5	0
193	277	0	10000	5	1	0	5	0
198	278	0	10000	5	1	0	5	0
202	279	0	10000	5	1	0	5	0
198	280	0	10000	5	1	0	5	0
192	281	0	10000	5	1	0	5	0
188	282	0	10000	5	1	0	5	0
192	283	0	10000	5	1	0	5	0
190	284	0	10000	5	1	0	5	0
188	285	0	10000	5	1	0	5	0
189	286	0	10000	5	1	0	5	0
185	287	0	10000	5	1	0	5	0
183	288	0	10000	5	1	0	5	0
178	289	0	10000	5	1	0	5	0
176	290	0	10000	5	1	0	5	0
169	291	0	10000	5	1	0	5	0
168	292	0	10000	5	1	0	5	0
169	293	0	10000	5	1	0	5	0
176	294	0	10000	5	1	0	5	0
178	295	0	10000	5	1	0	5	0
173	296	0	10000	5	1	0	5	0
179	297	0	10000	5	1	0	5	0
185	298	0	10000	5	1	0	5	0
194	299	0	10000	5	1	0	5	0
192	300	0	10000	5	1	0	5	0
187	301	0	10000	5	1	0	5	0
179	302	0	10000	5	1	0	5	0
175	303	0	10000	5	1	0	5	0
168	304	0	10000	5	1	0	5	0
164	305	0	10000	5	1	0	5	0
164	306	0	10000	5	1	0	5	0
162	307	0	10000	5	1	0	5	0
168	308	0	10000	5	1	0	5	0
176	309	0	10000	5	1	0	5	0
177	310	0	10000	5	1	0	5	0
171	311	0	10000	5	1	0	5	0
175	312	0	10000	5	1	0	5	0
178	313	0	10000	5	1	0	5	0
182	314	0	10000	5	1	0	5	0
184	315	0	10000	5	1	0	5	0
182	316	0	10000	5	1	0	5	0
192	317	0	10000	5	1	0	5	0
196	318	0	10000	5	1	0	5	0
193	319	0	10000	5	1	0	5	0
193	320	0	10000	5	1	0	5	0
193	321	0	10000	5	1	0	5	0
192	322	0	10000	5	1	0	5	0
194	323	0	10000	5	1	0	5	0
195	324	0	10000	5	1	0	5	0
193	325	0	10000	5	1	0	5	0
189	326	0	10000	5	1	0	5	0
184	327	0	10000	5	1	0	5	0
187	328	0	10000	5	1	0	5	0
184	329	0	10000	5	1	0	5	0
192	330	0	10000	5	1	0	5	0
194	331	0	10000	5	1	0	5	0
192	332	0	10000	5	1	0	5	0
194	333	0	10000	5	1	0	5	0
195	334	0	10000	5	1	0	5	0
189	335	0	10000	5	1	0	5	0
185	336	0	10000	5	1	0	5	0
191	337	0	10000	5	1	0	5	0
190	338	0	10000	5	1	0	5	0
189	339	0	10000	5	1	0	5	0
186	340	0	10000	5	1	0	5	0
182	341	0	10000	5	1	0	5	0
180	342	0	10000	5	1	0	5	0
179	343	0	10000	5	1	0	5	0
176	344	0	10000	5	1	0	5	0
171	345	0	10000	5	1	0	5	0
176	346	0	10000	5	1	0	5	0
178	347	0	10000	5	1	0	5	0
184	348	0	10000	5	1	0	5	0
190	349	0	10000	5	1	0	5	0
199	350	0	10000	5	1	0	5	0
195	351	0	10000	5	1	0	5	0
197	352	0	10000	5	1	0	5	0
196	353	0	10000	5	1	0	5	0
193	354	0	10000	5	1	0	5	0
192	355	0	10000	5	1	0	5	0
187	356	0	10000	5	1	0	5	0
188	357	0	10000	5	1	0	5	0
187	358	0	10000	5	1	0	5	0
183	359	0	10000	5	1	0	5	0
186	360	0	10000	5	1	0	5	0
190	361	0	10000	5	1	0	5	0
194	362	0	10000	5	1	0	5	0
200	363	0	10000	5	1	0	5	0
199	364	0	10000	5	1	0	5	0
199	365	0	10000	5	1	0	5	0
204	366	0	10000	5	1	0	5	0
201	367	0	10000	5	1	0	5	0
205	368	0	10000	5	1	0	5	0
210	369	0	10000	5	1	0	5	0
221	370	0	10000	5	1	0	5	0
223	371	0	10000	5	1	0	5	0
216	372	0	10000	5	1	0	5	0
210	373	0	10000	5	1	0	5	0
203	374	0	10000	5	1	0	5	0
194	375	0	10000	5	1	0	5	0
194	376	0	10000	5	1	0	5	0
201	377	0	10000	5	1	0	5	0
207	378	0	10000	5	1	0	5	0
202	379	0	10000	5	1	0	5	0
201	380	0	10000	5	1	0	5	0
195	381	0	10000	5	1	0	5	0
188	382	0	10000	5	1	0	5	0
180	383	0	10000	5	1	0	5	0
176	384	0	10000	5	1	0	5	0
176	385	0	10000	5	1	0	5	0
187	386	0	10000	5	1	0	5	0
184	387	0	10000	5	1	0	5	0
178	388	0	10000	5	1	0	5	0
176	389	0	10000	5	1	0	5	0
182	390	0	10000	5	1	0	5	0
181	391	0	10000	5	1	0	5	0
185	392	0	10000	5	1	0	5	0
191	393	0	10000	5	1	0	5	0
193	394	0	10000	5	1	0	5	0
191	395	0	10000	5	1	0	5	0
187	396	0	10000	5	1	0	5	0
197	397	0	10000	5	1	0	5	0
212	398	0	10000	5	1	0	5	0
218	399	0	10000	5	1	0	5	0
210	400	0	10000	5	1	0	5	0
202	401	0	10000	5	1	0	5	0
196	402	0	10000	5	1	0	5	0
188	403	0	10000	5	1	0	5	0
180	404	0	10000	5	1	0	5	0
175	405	0	10000	5	1	0	5	0
169	406	0	10000	5	1	0	5	0
172	407	0	10000	5	1	0	5	0
177	408	0	10000	5	1	0	5	0
172	409	0	10000	5	1	0	5	0
173	410	0	10000	5	1	0	5	0
173	411	0	10000	5	1	0	5	0
189	412	0	10000	5	1	0	5	0
201	413	0	10000	5	1	0	5	0
210	414	0	10000	5	1	0	5	0
211	415	0	10000	5	1	0	5	0
203	416	0	10000	5	1	0	5	0
207	417	0	10000	5	1	0	5	0
214	418	0	10000	5	1	0	5	0
210	419	0	10000	5	1	0	5	0
210	420	0	10000	5	1	0	5	0
205	421	0	10000	5	1	0	5	0
197	422	0	10000	5	1	0	5	0
195	423	0	10000	5	1	0	5	0
193	424	0	10000	5	1	0	5	0
196	425	0	10000	5	1	0	5	0
198	426	0	10000	5	1	0	5	0
195	427	0	10000	5	1	0	5	0
195	428	0	10000	5	1	0	5	0
196	429	0	10000	5	1	0	5	0
202	430	0	10000	5	1	0	5	0
196	431	0	10000	5	1	0	5	0
191	432	0	10000	5	1	0	5	0
190	433	0	10000	5	1	0	5	0
191	434	0	10000	5	1	0	5	0
192	435	0	10000	5	1	0	5	0
187	436	0	10000	5	1	0	5	0
189	437	0	10000	5	1	0	5	0
194	438	0	10000	5	1	0	5	0
193	439	0	10000	5	1	0	5	0
190	440	0	10000	5	1	0	5	0
185	441	0	10000	5	1	0	5	0
180	442	0	10000	5	1	0	5	0
181	443	0	10000	5	1	0	5	0
181	444	0	10000	5	1	0	5	0
182	445	0	10000	5	1	0	5	0
180	446	0	10000	5	1	0	5	0
177	447	0	10000	5	1	0	5	0
172	448	0	10000	5	1	0	5	0
166	449	0	10000	5	1	0	5	0
169	450	0	10000	5	1	0	5	0
165	451	0	10000	5	1	0	5	0
170	452	0	10000	5	1	0	5	0
173	453	0	10000	5	1	0	5	0
180	454	0	10000	5	1	0	5	0
182	455	0	10000	5	1	0	5	0
178	456	0	10000	5	1	0	5	0
183	457	0	10000	5	1	0	5	0
182	458	0	10000	5	1	0	5	0
181	459	0	10000	5	1	0	5	0
178	460	0	10000	5	1	0	5	0
175	461	0	10000	5	1	0	5	0
167	462	0	10000	5	1	0	5	0
162	463	0	10000	5	1	0	5	0
160	464	0	10000	5	1	0	5	0
157	465	0	10000	5	1	0	5	0
156	466	0	10000	5	1	0	5	0
157	467	0	10000	5	1	0	5	0
166	468	0	10000	5	1	0	5	0
175	469	0	10000	5	1	0	5	0
188	470	0	10000	5	1	0	5	0
185	471	0	10000	5	1	0	5	0
185	472	0	10000	5	1	0	5	0
180	473	0	10000	5	1	0	5	0
176	474	0	10000	5	1	0	5	0
169	475	0	10000	5	1	0	5	0
164	476	0	10000	5	1	0	5	0
164	477	0	10000	5	1	0	5	0
162	478	0	10000	5	1	0	5	0
160	479	0	10000	5	1	0	5	0
160	480	0	10000	5	1	0	5	0
156	481	0	10000	5	1	0	5	0
150	482	0	10000	5	1	0	5	0
147	483	0	10000	5	1	0	5	0
152	484	0	10000	5	1	0	5	0
158	485	0	10000	5	1	0	5	0
170	486	0	10000	5	1	0	5	0
170	487	0	10000	5	1	0	5	0
169	488	0	10000	5	1	0	5	0
165	489	0	10000	5	1	0	5	0
169	490	0	10000	5	1	0	5	0
162	491	0	10000	5	1	0	5	0
161	492	0	10000	5	1	0	5	0
165	493	0	10000	5	1	0	5	0
174	494	0	10000	5	1	0	5	0
176	495	0	10000	5	1	0	5	0
173	496	0	10000	5	1	0	5	0
178	497	0	10000	5	1	0	5	0
180	498	0	10000	5	1	0	5	0
179	499	0	10000	5	1	0	5	0
177	500	0	10000	5	1	0	5	0
173	501	0	10000	5	1	0	5	1
166	502	0	10000	5	1	0	5	1
164	503	0	10000	5	1	0	5	1
162	504	0	10000	5	1	0	5	1
164	505	0	10000	5	1	0	5	1
170	506	0	10000	5	1	0	5	1
169	507	0	10000	5	1	0	5	1
173	508	0	10000	5	1	0	5	1
171	509	0	10000	5	1	0	5	1
181	510	0	10000	5	1	0	5	1
184	511	0	10000	5	1	0	5	1
180	512	0	10000	5	1	0	5	1
176	513	0	10000	5	1	0	5	1
175	514	0	10000	5	1	0	5	1
169	515	0	10000	5	1	0	5	1
171	516	0	10000	5	1	0	5	1
185	517	0	10000	5	1	0	5	1
196	518	0	10000	5	1	0	5	1
203	519	0	10000	5	1	0	5	1
196	520	0	10000	5	1	0	5	1
192	521	0	10000	5	1	0	5	1
189	522	0	10000	5	1	0	5	1
183	523	0	10000	5	1	0	5	1
176	524	0	10000	5	1	0	5	1
172	525	0	10000	5	1	0	5	1
168	526	0	10000	5	1	0	5	1
164	527	0	10000	5	1	0	5	1
162	528	0	10000	5	1	0	5	1
163	529	0	10000	5	1	0	5	1
171	530	0	10000	5	1	0	5	1
166	531	0	10000	5	1	0	5	1
170	532	0	10000	5	1	0	5	1
182	533	0	10000	5	1	0	5	1
194	534	0	10000	5	1	0	5	1
202	535	0	10000	5	1	0	5	1
196	536	0	10000	5	1	0	5	1
204	537	0	10000	5	1	0	5	1
204	538	0	10000	5	1	0	5	1
199	539	0	10000	5	1	0	5	1
193	540	0	10000	5	1	0	5	1
187	541	0	10000	5	1	0	5	1
178	542	0	10000	5	1	0	5	1
173	543	0	10000	5	1	0	5	1
165	544	0	10000	5	1	0	5	1
161	545	0	10000	5	1	0	5	1
162	546	0	10000	5	1	0	5	1
163	547	0	10000	5	1	0	5	1
166	548	0	10000	5	1	0	5	1
168	549	0	10000	5	1	0	5	1
176	550	0	10000	5	1	0	5	1
171	551	0	10000	5	1	0	5	0
166	552	0	10000	5	1	0	5	0
167	553	0	10000	5	1	0	5	0
166	554	0	10000	5	1	0	5	0
162	555	0	10000	5	1	0	5	0
164	556	0	10000	5	1	0	5	0
174	557	0	10000	5	1	0	5	0
176	558	0	10000	5	1	0	5	0
176	559	0	10000	5	1	0	5	0
175	560	0	10000	5	1	0	5	0
171	561	0	10000	5	1	0	5	0
166	562	0	10000	5	1	0	5	0
164	563	0	10000	5	1	0	5	0
159	564	0	10000	5	1	0	5	0
159	565	0	10000	5	1	0	5	0
158	566	0	10000	5	1	0	5	0
158	567	0	10000	5	1	0	5	0
169	568	0	10000	5	1	0	5	0
172	569	0	10000	5	1	0	5	0
180	570	0	10000	5	1	0	5	0
180	571	0	10000	5	1	0	5	0
180	572	0	10000	5	1	0	5	0
183	573	0	10000	5	1	0	5	0
196	574	0	10000	5	1	0	5	0
200	575	0	10000	5	1	0	5	0
198	576	0	10000	5	1	0	5	0
201	577	0	10000	5	1	0	5	0
200	578	0	10000	5	1	0	5	0
198	579	0	10000	5	1	0	5	0
198	580	0	10000	5	1	0	5	0
201	581	0	10000	5	1	0	5	0
202	582	0	10000	5	1	0	5	0
198	583	0	10000	5	1	0	5	0
197	584	0	10000	5	1	0	5	0
195	585	0	10000	5	1	0	5	0
195	586	0	10000	5	1	0	5	0
194	587	0	10000	5	1	0	5	0
189	588	0	10000	5	1	0	5	0
185	589	0	10000	5	1	0	5	0
188	590	0	10000	5	1	0	5	0
185	591	0	10000	5	1	0	5	0
186	592	0	10000	5	1	0	5	0
189	593	0	10000	5	1	0	5	0
189	594	0	10000	5	1	0	5	0
189	595	0	10000	5	1	0	5	0
188	596	0	10000	5	1	0	5	0
207	597	0	10000	5	1	0	5	0
211	598	0	10000	5	1	0	5	0
216	599	0	10000	5	1	0	5	0
210	600	0	10000	5	1	0	5	0
209	601	0	10000	5	1	0	5	0
217	602	0	10000	5	1	0	5	0
227	603	0	10000	5	1	0	5	0
223	604	0	10000	5	1	0	5	0
227	605	0	10000	5	1	0	5	0
237	606	0	10000	5	1	0	5	0
234	607	0	10000	5	1	0	5	0
229	608	0	10000	5	1	0	5	0
225	609	0	10000	5	1	0	5	0
241	610	0	10000	5	1	0	5	0
257	611	0	10000	5	1	0	5	0
281	612	0	10000	5	1	0	5	0
301	613	0	10000	5	1	0	5	0
320	614	0	10000	5	1	0	5	0
384	615	0	10000	5	1	0	5	0
412	616	0	10000	5	1	0	5	0
409	617	0	10000	5	1	0	5	0
449	618	0	10000	5	1	0	5	0
470	619	0	10000	5	1	0	5	0
526	620	0	10000	5	1	0	5	0
550	621	0	10000	5	1	0	5	0
538	622	0	10000	5	1	0	5	0
537	623	0	10000	5	1	0	5	0
516	624	0	10000	5	1	0	5	0
511	625	0	10000	5	1	0	5	0
498	626	0	10000	5	1	0	5	0
490	627	0	10000	5	1	0	5	0
473	628	0	10000	5	1	0	5	0
458	629	0	10000	5	1	0	5	0
457	630	0	10000	5	1	0	5	0
444	631	0	10000	5	1	0	5	0
431	632	0	10000	5	1	0	5	0
