value	EMG	Stimulus	EMG_sensitivity	Total_Trial_Nr	practise	acq	probe_nr	Startle_Probe
19	2	10	10000	1	1	0	1	0
19	3	10	10000	1	1	0	1	0
17	4	10	10000	1	1	0	1	0
17	5	10	10000	1	1	0	1	0
18	6	10	10000	1	1	0	1	0
17	7	10	10000	1	1	0	1	0
17	8	10	10000	1	1	0	1	0
17	9	10	10000	1	1	0	1	0
16	10	10	10000	1	1	0	1	0
17	11	10	10000	1	1	0	1	0
17	12	10	10000	1	1	0	1	0
18	13	10	10000	1	1	0	1	0
20	14	10	10000	1	1	0	1	0
20	15	10	10000	1	1	0	1	0
20	16	10	10000	1	1	0	1	0
19	17	10	10000	1	1	0	1	0
19	18	10	10000	1	1	0	1	0
19	19	10	10000	1	1	0	1	0
18	20	10	10000	1	1	0	1	0
18	21	10	10000	1	1	0	1	0
17	21	10	10000	1	1	0	1	0
18	22	10	10000	1	1	0	1	0
15	24	10	10000	1	1	0	1	0
15	25	10	10000	1	1	0	1	0
16	26	10	10000	1	1	0	1	0
16	27	10	10000	1	1	0	1	0
15	28	10	10000	1	1	0	1	0
16	29	10	10000	1	1	0	1	0
15	30	10	10000	1	1	0	1	0
15	31	10	10000	1	1	0	1	0
15	31	10	10000	1	1	0	1	0
15	32	10	10000	1	1	0	1	0
17	34	10	10000	1	1	0	1	0
18	35	10	10000	1	1	0	1	0
17	36	10	10000	1	1	0	1	0
18	37	10	10000	1	1	0	1	0
18	38	10	10000	1	1	0	1	0
19	39	10	10000	1	1	0	1	0
20	40	10	10000	1	1	0	1	0
19	41	10	10000	1	1	0	1	0
19	41	10	10000	1	1	0	1	0
20	42	10	10000	1	1	0	1	0
17	44	10	10000	1	1	0	1	0
16	45	10	10000	1	1	0	1	0
17	46	10	10000	1	1	0	1	0
16	47	10	10000	1	1	0	1	0
16	48	10	10000	1	1	0	1	0
15	49	10	10000	1	1	0	1	0
15	50	10	10000	1	1	0	1	0
15	51	10	10000	1	1	0	1	0
17	51	10	10000	1	1	0	1	0
16	52	10	10000	1	1	0	1	0
19	54	10	10000	1	1	0	1	0
18	55	10	10000	1	1	0	1	0
17	56	10	10000	1	1	0	1	0
16	57	10	10000	1	1	0	1	0
16	58	10	10000	1	1	0	1	0
16	59	10	10000	1	1	0	1	0
19	60	10	10000	1	1	0	1	0
20	61	10	10000	1	1	0	1	0
21	61	10	10000	1	1	0	1	0
21	62	10	10000	1	1	0	1	0
20	64	10	10000	1	1	0	1	0
20	65	10	10000	1	1	0	1	0
20	66	10	10000	1	1	0	1	0
20	67	10	10000	1	1	0	1	0
20	68	10	10000	1	1	0	1	0
20	69	10	10000	1	1	0	1	0
20	70	10	10000	1	1	0	1	0
20	71	10	10000	1	1	0	1	0
20	71	10	10000	1	1	0	1	0
20	72	10	10000	1	1	0	1	0
22	74	10	10000	1	1	0	1	0
22	75	10	10000	1	1	0	1	0
22	76	10	10000	1	1	0	1	0
21	77	10	10000	1	1	0	1	0
20	78	10	10000	1	1	0	1	0
20	79	10	10000	1	1	0	1	0
20	80	10	10000	1	1	0	1	0
19	81	10	10000	1	1	0	1	0
20	81	10	10000	1	1	0	1	0
22	82	10	10000	1	1	0	1	0
20	84	10	10000	1	1	0	1	0
20	85	10	10000	1	1	0	1	0
19	86	10	10000	1	1	0	1	0
19	87	10	10000	1	1	0	1	0
19	88	10	10000	1	1	0	1	0
19	89	10	10000	1	1	0	1	0
18	90	10	10000	1	1	0	1	0
18	91	10	10000	1	1	0	1	0
18	91	10	10000	1	1	0	1	0
18	92	10	10000	1	1	0	1	0
20	94	10	10000	1	1	0	1	0
20	95	10	10000	1	1	0	1	0
20	96	10	10000	1	1	0	1	0
19	97	10	10000	1	1	0	1	0
18	98	10	10000	1	1	0	1	0
19	99	10	10000	1	1	0	1	0
18	100	10	10000	1	1	0	1	0
18	101	10	10000	1	1	0	1	0
17	101	10	10000	1	1	0	1	0
17	102	10	10000	1	1	0	1	0
16	104	10	10000	1	1	0	1	0
16	105	10	10000	1	1	0	1	0
16	106	10	10000	1	1	0	1	0
16	107	10	10000	1	1	0	1	0
16	108	10	10000	1	1	0	1	0
17	109	10	10000	1	1	0	1	0
16	110	10	10000	1	1	0	1	0
15	111	10	10000	1	1	0	1	0
15	111	10	10000	1	1	0	1	0
17	112	10	10000	1	1	0	1	0
19	114	10	10000	1	1	0	1	0
19	115	10	10000	1	1	0	1	0
19	116	10	10000	1	1	0	1	0
18	117	10	10000	1	1	0	1	0
17	118	10	10000	1	1	0	1	0
17	119	10	10000	1	1	0	1	0
17	120	10	10000	1	1	0	1	0
16	121	10	10000	1	1	0	1	0
17	121	10	10000	1	1	0	1	0
17	122	10	10000	1	1	0	1	0
15	124	10	10000	1	1	0	1	0
14	125	10	10000	1	1	0	1	0
15	126	10	10000	1	1	0	1	0
15	127	10	10000	1	1	0	1	0
14	128	10	10000	1	1	0	1	0
14	129	10	10000	1	1	0	1	0
15	130	10	10000	1	1	0	1	0
13	131	10	10000	1	1	0	1	0
13	131	10	10000	1	1	0	1	0
12	132	10	10000	1	1	0	1	0
14	134	10	10000	1	1	0	1	0
14	135	10	10000	1	1	0	1	0
13	136	10	10000	1	1	0	1	0
12	137	10	10000	1	1	0	1	0
12	138	10	10000	1	1	0	1	0
13	139	10	10000	1	1	0	1	0
12	140	10	10000	1	1	0	1	0
13	141	10	10000	1	1	0	1	0
13	141	10	10000	1	1	0	1	0
15	142	10	10000	1	1	0	1	0
15	144	10	10000	1	1	0	1	0
14	145	10	10000	1	1	0	1	0
14	146	10	10000	1	1	0	1	0
14	147	10	10000	1	1	0	1	0
14	148	10	10000	1	1	0	1	0
15	149	10	10000	1	1	0	1	0
15	150	10	10000	1	1	0	1	0
14	151	10	10000	1	1	0	1	0
13	151	10	10000	1	1	0	1	0
13	152	10	10000	1	1	0	1	0
14	154	10	10000	1	1	0	1	0
13	155	10	10000	1	1	0	1	0
13	156	10	10000	1	1	0	1	0
12	157	10	10000	1	1	0	1	0
12	158	10	10000	1	1	0	1	0
11	159	10	10000	1	1	0	1	0
11	160	10	10000	1	1	0	1	0
12	161	10	10000	1	1	0	1	0
12	161	10	10000	1	1	0	1	0
13	162	10	10000	1	1	0	1	0
10	164	10	10000	1	1	0	1	0
11	165	10	10000	1	1	0	1	0
11	166	10	10000	1	1	0	1	0
11	167	10	10000	1	1	0	1	0
12	168	10	10000	1	1	0	1	0
13	169	10	10000	1	1	0	1	0
13	170	10	10000	1	1	0	1	0
13	171	10	10000	1	1	0	1	0
13	171	10	10000	1	1	0	1	0
15	172	10	10000	1	1	0	1	0
17	174	10	10000	1	1	0	1	0
18	175	10	10000	1	1	0	1	0
17	176	10	10000	1	1	0	1	0
16	177	10	10000	1	1	0	1	0
15	178	10	10000	1	1	0	1	0
14	179	10	10000	1	1	0	1	0
15	180	10	10000	1	1	0	1	0
16	181	10	10000	1	1	0	1	0
16	181	10	10000	1	1	0	1	0
16	182	10	10000	1	1	0	1	0
14	184	10	10000	1	1	0	1	0
15	185	10	10000	1	1	0	1	0
16	186	10	10000	1	1	0	1	0
18	187	10	10000	1	1	0	1	0
18	188	10	10000	1	1	0	1	0
19	189	10	10000	1	1	0	1	0
18	190	10	10000	1	1	0	1	0
17	191	10	10000	1	1	0	1	0
18	191	10	10000	1	1	0	1	0
16	192	10	10000	1	1	0	1	0
18	194	10	10000	1	1	0	1	0
19	195	10	10000	1	1	0	1	0
19	196	10	10000	1	1	0	1	0
18	197	10	10000	1	1	0	1	0
18	198	10	10000	1	1	0	1	0
18	199	10	10000	1	1	0	1	0
18	200	10	10000	1	1	0	1	0
18	201	10	10000	1	1	0	1	0
18	201	10	10000	1	1	0	1	0
19	202	10	10000	1	1	0	1	0
16	204	10	10000	1	1	0	1	0
16	205	10	10000	1	1	0	1	0
16	206	10	10000	1	1	0	1	0
15	207	10	10000	1	1	0	1	0
15	208	10	10000	1	1	0	1	0
15	209	10	10000	1	1	0	1	0
15	210	10	10000	1	1	0	1	0
13	211	10	10000	1	1	0	1	0
13	211	10	10000	1	1	0	1	0
12	212	10	10000	1	1	0	1	0
13	214	10	10000	1	1	0	1	0
15	215	10	10000	1	1	0	1	0
15	216	10	10000	1	1	0	1	0
15	217	10	10000	1	1	0	1	0
15	218	10	10000	1	1	0	1	0
15	219	10	10000	1	1	0	1	0
15	220	10	10000	1	1	0	1	0
16	221	10	10000	1	1	0	1	0
16	221	10	10000	1	1	0	1	0
17	222	10	10000	1	1	0	1	0
15	224	10	10000	1	1	0	1	0
15	225	10	10000	1	1	0	1	0
16	226	10	10000	1	1	0	1	0
16	227	10	10000	1	1	0	1	0
15	228	10	10000	1	1	0	1	0
15	229	10	10000	1	1	0	1	0
15	230	10	10000	1	1	0	1	0
14	231	10	10000	1	1	0	1	0
13	231	10	10000	1	1	0	1	0
12	232	10	10000	1	1	0	1	0
14	234	10	10000	1	1	0	1	0
14	235	10	10000	1	1	0	1	0
14	236	10	10000	1	1	0	1	0
16	237	10	10000	1	1	0	1	0
15	238	10	10000	1	1	0	1	0
15	239	10	10000	1	1	0	1	0
15	240	10	10000	1	1	0	1	0
16	241	10	10000	1	1	0	1	0
16	241	10	10000	1	1	0	1	0
16	242	10	10000	1	1	0	1	0
16	244	10	10000	1	1	0	1	0
16	245	10	10000	1	1	0	1	0
17	246	10	10000	1	1	0	1	0
17	247	10	10000	1	1	0	1	0
17	248	10	10000	1	1	0	1	0
17	249	10	10000	1	1	0	1	0
17	250	10	10000	1	1	0	1	0
18	251	10	10000	1	1	0	1	0
19	251	10	10000	1	1	0	1	0
19	252	10	10000	1	1	0	1	0
20	254	10	10000	1	1	0	1	0
20	255	10	10000	1	1	0	1	0
19	256	10	10000	1	1	0	1	0
20	257	10	10000	1	1	0	1	0
20	258	10	10000	1	1	0	1	0
20	259	10	10000	1	1	0	1	0
19	260	10	10000	1	1	0	1	0
19	261	10	10000	1	1	0	1	0
19	261	10	10000	1	1	0	1	0
19	262	10	10000	1	1	0	1	0
16	264	10	10000	1	1	0	1	0
17	265	10	10000	1	1	0	1	0
18	266	10	10000	1	1	0	1	0
18	267	10	10000	1	1	0	1	0
19	268	10	10000	1	1	0	1	0
19	269	10	10000	1	1	0	1	0
18	270	10	10000	1	1	0	1	0
18	271	10	10000	1	1	0	1	0
17	271	10	10000	1	1	0	1	0
17	272	10	10000	1	1	0	1	0
18	274	10	10000	1	1	0	1	0
18	275	10	10000	1	1	0	1	0
18	276	10	10000	1	1	0	1	0
19	277	10	10000	1	1	0	1	0
18	278	10	10000	1	1	0	1	0
18	279	10	10000	1	1	0	1	0
17	280	10	10000	1	1	0	1	0
17	281	10	10000	1	1	0	1	0
19	281	10	10000	1	1	0	1	0
20	282	10	10000	1	1	0	1	0
19	284	10	10000	1	1	0	1	0
18	285	10	10000	1	1	0	1	0
19	286	10	10000	1	1	0	1	0
19	287	10	10000	1	1	0	1	0
19	288	10	10000	1	1	0	1	0
20	289	10	10000	1	1	0	1	0
20	290	10	10000	1	1	0	1	0
18	291	10	10000	1	1	0	1	0
18	291	10	10000	1	1	0	1	0
18	292	10	10000	1	1	0	1	0
20	294	10	10000	1	1	0	1	0
20	295	10	10000	1	1	0	1	0
20	296	10	10000	1	1	0	1	0
19	297	10	10000	1	1	0	1	0
19	298	10	10000	1	1	0	1	0
19	299	10	10000	1	1	0	1	0
19	300	10	10000	1	1	0	1	0
20	301	10	10000	1	1	0	1	0
20	301	10	10000	1	1	0	1	0
20	302	10	10000	1	1	0	1	0
19	304	10	10000	1	1	0	1	0
19	305	10	10000	1	1	0	1	0
18	306	10	10000	1	1	0	1	0
18	307	10	10000	1	1	0	1	0
19	308	10	10000	1	1	0	1	0
20	309	10	10000	1	1	0	1	0
20	310	10	10000	1	1	0	1	0
18	311	10	10000	1	1	0	1	0
18	311	10	10000	1	1	0	1	0
18	312	10	10000	1	1	0	1	0
19	314	10	10000	1	1	0	1	0
19	315	10	10000	1	1	0	1	0
19	316	10	10000	1	1	0	1	0
18	317	10	10000	1	1	0	1	0
18	318	10	10000	1	1	0	1	0
18	319	10	10000	1	1	0	1	0
17	320	10	10000	1	1	0	1	0
17	321	10	10000	1	1	0	1	0
17	321	10	10000	1	1	0	1	0
18	322	10	10000	1	1	0	1	0
15	324	10	10000	1	1	0	1	0
15	325	10	10000	1	1	0	1	0
14	326	10	10000	1	1	0	1	0
15	327	10	10000	1	1	0	1	0
14	328	10	10000	1	1	0	1	0
14	329	10	10000	1	1	0	1	0
14	330	10	10000	1	1	0	1	0
12	331	10	10000	1	1	0	1	0
12	331	10	10000	1	1	0	1	0
11	332	10	10000	1	1	0	1	0
13	334	10	10000	1	1	0	1	0
14	335	10	10000	1	1	0	1	0
14	336	10	10000	1	1	0	1	0
13	337	10	10000	1	1	0	1	0
13	338	10	10000	1	1	0	1	0
14	339	10	10000	1	1	0	1	0
14	340	10	10000	1	1	0	1	0
15	341	10	10000	1	1	0	1	0
16	341	10	10000	1	1	0	1	0
16	342	10	10000	1	1	0	1	0
15	344	10	10000	1	1	0	1	0
14	345	10	10000	1	1	0	1	0
15	346	10	10000	1	1	0	1	0
16	347	10	10000	1	1	0	1	0
17	348	10	10000	1	1	0	1	0
19	349	10	10000	1	1	0	1	0
20	350	10	10000	1	1	0	1	0
19	351	10	10000	1	1	0	1	0
18	351	10	10000	1	1	0	1	0
18	352	10	10000	1	1	0	1	0
20	354	10	10000	1	1	0	1	0
20	355	10	10000	1	1	0	1	0
20	356	10	10000	1	1	0	1	0
20	357	10	10000	1	1	0	1	0
22	358	10	10000	1	1	0	1	0
22	359	10	10000	1	1	0	1	0
22	360	10	10000	1	1	0	1	0
22	361	10	10000	1	1	0	1	0
22	361	10	10000	1	1	0	1	0
22	362	10	10000	1	1	0	1	0
20	364	10	10000	1	1	0	1	0
19	365	10	10000	1	1	0	1	0
19	366	10	10000	1	1	0	1	0
19	367	10	10000	1	1	0	1	0
18	368	10	10000	1	1	0	1	0
19	369	10	10000	1	1	0	1	0
20	370	10	10000	1	1	0	1	0
20	371	10	10000	1	1	0	1	0
21	371	10	10000	1	1	0	1	0
20	372	10	10000	1	1	0	1	0
22	374	10	10000	1	1	0	1	0
21	375	10	10000	1	1	0	1	0
21	376	10	10000	1	1	0	1	0
21	377	10	10000	1	1	0	1	0
22	378	10	10000	1	1	0	1	0
21	379	10	10000	1	1	0	1	0
21	380	10	10000	1	1	0	1	0
22	381	10	10000	1	1	0	1	0
21	381	10	10000	1	1	0	1	0
21	382	10	10000	1	1	0	1	0
19	384	10	10000	1	1	0	1	0
18	385	10	10000	1	1	0	1	0
19	386	10	10000	1	1	0	1	0
19	387	10	10000	1	1	0	1	0
19	388	10	10000	1	1	0	1	0
19	389	10	10000	1	1	0	1	0
18	390	10	10000	1	1	0	1	0
17	391	10	10000	1	1	0	1	0
16	391	10	10000	1	1	0	1	0
15	392	10	10000	1	1	0	1	0
17	394	10	10000	1	1	0	1	0
17	395	10	10000	1	1	0	1	0
16	396	10	10000	1	1	0	1	0
16	397	10	10000	1	1	0	1	0
16	398	10	10000	1	1	0	1	0
17	399	10	10000	1	1	0	1	0
15	400	10	10000	1	1	0	1	0
15	401	10	10000	1	1	0	1	0
16	401	10	10000	1	1	0	1	0
17	402	10	10000	1	1	0	1	0
13	404	10	10000	1	1	0	1	0
13	405	10	10000	1	1	0	1	0
14	406	10	10000	1	1	0	1	0
14	407	10	10000	1	1	0	1	0
15	408	10	10000	1	1	0	1	0
15	409	10	10000	1	1	0	1	0
14	410	10	10000	1	1	0	1	0
14	411	10	10000	1	1	0	1	0
16	411	10	10000	1	1	0	1	0
15	412	10	10000	1	1	0	1	0
17	414	10	10000	1	1	0	1	0
17	415	10	10000	1	1	0	1	0
16	416	10	10000	1	1	0	1	0
16	417	10	10000	1	1	0	1	0
16	418	10	10000	1	1	0	1	0
15	419	10	10000	1	1	0	1	0
16	420	10	10000	1	1	0	1	0
15	421	10	10000	1	1	0	1	0
15	421	10	10000	1	1	0	1	0
15	422	10	10000	1	1	0	1	0
12	424	10	10000	1	1	0	1	0
13	425	10	10000	1	1	0	1	0
13	426	10	10000	1	1	0	1	0
14	427	10	10000	1	1	0	1	0
13	428	10	10000	1	1	0	1	0
13	429	10	10000	1	1	0	1	0
13	430	10	10000	1	1	0	1	0
13	431	10	10000	1	1	0	1	0
13	431	10	10000	1	1	0	1	0
13	432	10	10000	1	1	0	1	0
15	434	10	10000	1	1	0	1	0
14	435	10	10000	1	1	0	1	0
13	436	10	10000	1	1	0	1	0
14	437	10	10000	1	1	0	1	0
13	438	10	10000	1	1	0	1	0
13	439	10	10000	1	1	0	1	0
13	440	10	10000	1	1	0	1	0
13	441	10	10000	1	1	0	1	0
13	441	10	10000	1	1	0	1	0
14	442	10	10000	1	1	0	1	0
11	444	10	10000	1	1	0	1	0
12	445	10	10000	1	1	0	1	0
12	446	10	10000	1	1	0	1	0
11	447	10	10000	1	1	0	1	0
11	448	10	10000	1	1	0	1	0
11	449	10	10000	1	1	0	1	0
10	450	10	10000	1	1	0	1	0
11	451	10	10000	1	1	0	1	0
10	451	10	10000	1	1	0	1	0
11	452	10	10000	1	1	0	1	0
13	454	10	10000	1	1	0	1	0
13	455	10	10000	1	1	0	1	0
13	456	10	10000	1	1	0	1	0
14	457	10	10000	1	1	0	1	0
15	458	10	10000	1	1	0	1	0
16	459	10	10000	1	1	0	1	0
16	460	10	10000	1	1	0	1	0
16	461	10	10000	1	1	0	1	0
16	461	10	10000	1	1	0	1	0
17	462	10	10000	1	1	0	1	0
16	464	10	10000	1	1	0	1	0
17	465	10	10000	1	1	0	1	0
16	466	10	10000	1	1	0	1	0
16	467	10	10000	1	1	0	1	0
17	468	10	10000	1	1	0	1	0
17	469	10	10000	1	1	0	1	0
17	470	10	10000	1	1	0	1	0
16	471	10	10000	1	1	0	1	0
15	471	10	10000	1	1	0	1	0
17	472	10	10000	1	1	0	1	0
21	474	10	10000	1	1	0	1	0
21	475	10	10000	1	1	0	1	0
21	476	10	10000	1	1	0	1	0
21	477	10	10000	1	1	0	1	0
22	478	10	10000	1	1	0	1	0
22	479	10	10000	1	1	0	1	0
21	480	10	10000	1	1	0	1	0
22	481	10	10000	1	1	0	1	0
24	481	10	10000	1	1	0	1	0
24	482	10	10000	1	1	0	1	0
22	484	10	10000	1	1	0	1	0
21	485	10	10000	1	1	0	1	0
21	486	10	10000	1	1	0	1	0
21	487	10	10000	1	1	0	1	0
20	488	10	10000	1	1	0	1	0
20	489	10	10000	1	1	0	1	0
19	490	10	10000	1	1	0	1	0
18	491	10	10000	1	1	0	1	0
17	491	10	10000	1	1	0	1	0
16	492	10	10000	1	1	0	1	0
18	494	10	10000	1	1	0	1	0
17	495	10	10000	1	1	0	1	0
17	496	10	10000	1	1	0	1	0
16	497	10	10000	1	1	0	1	0
16	498	10	10000	1	1	0	1	0
16	499	10	10000	1	1	0	1	0
14	500	10	10000	1	1	0	1	0
15	501	10	10000	1	1	0	1	0
15	521	10	10000	1	1	0	1	1
14	522	10	10000	1	1	0	1	1
13	523	10	10000	1	1	0	1	1
14	524	10	10000	1	1	0	1	1
14	525	10	10000	1	1	0	1	1
15	526	10	10000	1	1	0	1	1
16	527	10	10000	1	1	0	1	1
16	528	10	10000	1	1	0	1	1
16	529	10	10000	1	1	0	1	1
15	530	10	10000	1	1	0	1	1
15	531	10	10000	1	1	0	1	1
15	532	10	10000	1	1	0	1	1
16	533	10	10000	1	1	0	1	1
16	534	10	10000	1	1	0	1	1
16	535	10	10000	1	1	0	1	1
15	536	10	10000	1	1	0	1	1
14	537	10	10000	1	1	0	1	1
14	538	10	10000	1	1	0	1	1
13	539	10	10000	1	1	0	1	1
13	540	10	10000	1	1	0	1	1
13	541	10	10000	1	1	0	1	1
14	542	10	10000	1	1	0	1	1
11	525	10	10000	1	1	0	1	1
11	526	10	10000	1	1	0	1	1
11	527	10	10000	1	1	0	1	1
12	528	10	10000	1	1	0	1	1
11	528	10	10000	1	1	0	1	1
10	529	10	10000	1	1	0	1	1
12	530	10	10000	1	1	0	1	1
11	531	10	10000	1	1	0	1	1
10	532	10	10000	1	1	0	1	1
10	533	10	10000	1	1	0	1	1
11	534	10	10000	1	1	0	1	1
12	535	10	10000	1	1	0	1	1
14	536	10	10000	1	1	0	1	1
12	537	10	10000	1	1	0	1	1
13	538	10	10000	1	1	0	1	1
14	539	10	10000	1	1	0	1	1
13	540	10	10000	1	1	0	1	1
15	541	10	10000	1	1	0	1	1
17	542	10	10000	1	1	0	1	1
20	543	10	10000	1	1	0	1	1
20	544	10	10000	1	1	0	1	1
20	545	10	10000	1	1	0	1	1
20	546	10	10000	1	1	0	1	1
20	547	10	10000	1	1	0	1	1
19	548	10	10000	1	1	0	1	1
19	549	10	10000	1	1	0	1	1
20	550	10	10000	1	1	0	1	1
20	551	10	10000	1	1	0	1	1
20	551	10	10000	1	1	0	1	0
20	552	10	10000	1	1	0	1	0
24	554	10	10000	1	1	0	1	0
23	555	10	10000	1	1	0	1	0
23	556	10	10000	1	1	0	1	0
22	557	10	10000	1	1	0	1	0
23	558	10	10000	1	1	0	1	0
21	559	10	10000	1	1	0	1	0
20	560	10	10000	1	1	0	1	0
21	561	10	10000	1	1	0	1	0
20	561	10	10000	1	1	0	1	0
21	562	10	10000	1	1	0	1	0
19	564	10	10000	1	1	0	1	0
18	565	10	10000	1	1	0	1	0
20	566	10	10000	1	1	0	1	0
20	567	10	10000	1	1	0	1	0
20	568	10	10000	1	1	0	1	0
21	569	10	10000	1	1	0	1	0
21	570	10	10000	1	1	0	1	0
21	571	10	10000	1	1	0	1	0
20	571	10	10000	1	1	0	1	0
19	572	10	10000	1	1	0	1	0
21	574	10	10000	1	1	0	1	0
21	575	10	10000	1	1	0	1	0
20	576	10	10000	1	1	0	1	0
19	577	10	10000	1	1	0	1	0
19	578	10	10000	1	1	0	1	0
18	579	10	10000	1	1	0	1	0
19	580	10	10000	1	1	0	1	0
20	581	10	10000	1	1	0	1	0
20	581	10	10000	1	1	0	1	0
20	582	10	10000	1	1	0	1	0
18	584	10	10000	1	1	0	1	0
19	585	10	10000	1	1	0	1	0
20	586	10	10000	1	1	0	1	0
20	587	10	10000	1	1	0	1	0
20	588	10	10000	1	1	0	1	0
20	589	10	10000	1	1	0	1	0
19	590	10	10000	1	1	0	1	0
18	591	10	10000	1	1	0	1	0
18	591	10	10000	1	1	0	1	0
17	592	10	10000	1	1	0	1	0
19	594	10	10000	1	1	0	1	0
18	595	10	10000	1	1	0	1	0
17	596	10	10000	1	1	0	1	0
17	597	10	10000	1	1	0	1	0
16	598	10	10000	1	1	0	1	0
16	599	10	10000	1	1	0	1	0
15	600	10	10000	1	1	0	1	0
17	601	10	10000	1	1	0	1	0
16	601	10	10000	1	1	0	1	0
16	602	10	10000	1	1	0	1	0
13	604	10	10000	1	1	0	1	0
13	605	10	10000	1	1	0	1	0
14	606	10	10000	1	1	0	1	0
13	607	10	10000	1	1	0	1	0
13	608	10	10000	1	1	0	1	0
14	609	10	10000	1	1	0	1	0
13	610	10	10000	1	1	0	1	0
13	611	10	10000	1	1	0	1	0
13	611	10	10000	1	1	0	1	0
13	612	10	10000	1	1	0	1	0
17	614	10	10000	1	1	0	1	0
25	615	10	10000	1	1	0	1	0
34	616	10	10000	1	1	0	1	0
43	617	10	10000	1	1	0	1	0
55	618	10	10000	1	1	0	1	0
55	619	10	10000	1	1	0	1	0
57	620	10	10000	1	1	0	1	0
57	621	10	10000	1	1	0	1	0
63	621	10	10000	1	1	0	1	0
68	622	10	10000	1	1	0	1	0
96	624	10	10000	1	1	0	1	0
120	625	10	10000	1	1	0	1	0
122	626	10	10000	1	1	0	1	0
128	627	10	10000	1	1	0	1	0
141	628	10	10000	1	1	0	1	0
148	629	10	10000	1	1	0	1	0
164	630	10	10000	1	1	0	1	0
198	631	10	10000	1	1	0	1	0
215	631	10	10000	1	1	0	1	0
212	632	10	10000	1	1	0	1	0
232	634	10	10000	1	1	0	1	0
253	635	10	10000	1	1	0	1	0
269	636	10	10000	1	1	0	1	0
288	637	10	10000	1	1	0	1	0
305	638	10	10000	1	1	0	1	0
308	639	10	10000	1	1	0	1	0
301	640	10	10000	1	1	0	1	0
323	641	10	10000	1	1	0	1	0
329	641	10	10000	1	1	0	1	0
325	642	10	10000	1	1	0	1	0
316	644	10	10000	1	1	0	1	0
304	645	10	10000	1	1	0	1	0
294	646	10	10000	1	1	0	1	0
301	647	10	10000	1	1	0	1	0
316	648	10	10000	1	1	0	1	0
311	649	10	10000	1	1	0	1	0
310	650	10	10000	1	1	0	1	0
324	651	10	10000	1	1	0	1	0
332	651	10	10000	1	1	0	1	0
333	652	10	10000	1	1	0	1	0
328	654	10	10000	1	1	0	1	0
313	655	10	10000	1	1	0	1	0
300	656	10	10000	1	1	0	1	0
293	657	10	10000	1	1	0	1	0
290	658	10	10000	1	1	0	1	0
289	659	10	10000	1	1	0	1	0
287	660	10	10000	1	1	0	1	0
283	661	10	10000	1	1	0	1	0
278	661	10	10000	1	1	0	1	0
274	662	10	10000	1	1	0	1	0
264	664	10	10000	1	1	0	1	0
254	665	10	10000	1	1	0	1	0
242	666	10	10000	1	1	0	1	0
232	667	10	10000	1	1	0	1	0
222	668	10	10000	1	1	0	1	0
212	669	10	10000	1	1	0	1	0
204	670	10	10000	1	1	0	1	0
196	671	10	10000	1	1	0	1	0
189	671	10	10000	1	1	0	1	0
180	672	10	10000	1	1	0	1	0
175	674	10	10000	1	1	0	1	0
168	675	10	10000	1	1	0	1	0
165	676	10	10000	1	1	0	1	0
163	677	10	10000	1	1	0	1	0
160	678	10	10000	1	1	0	1	0
158	679	10	10000	1	1	0	1	0
158	680	10	10000	1	1	0	1	0
159	681	10	10000	1	1	0	1	0
160	681	10	10000	1	1	0	1	0
163	682	10	10000	1	1	0	1	0
162	684	10	10000	1	1	0	1	0
164	685	10	10000	1	1	0	1	0
166	686	10	10000	1	1	0	1	0
170	687	10	10000	1	1	0	1	0
173	688	10	10000	1	1	0	1	0
175	689	10	10000	1	1	0	1	0
173	690	10	10000	1	1	0	1	0
169	691	10	10000	1	1	0	1	0
166	691	10	10000	1	1	0	1	0
165	692	10	10000	1	1	0	1	0
169	694	10	10000	1	1	0	1	0
166	695	10	10000	1	1	0	1	0
162	696	10	10000	1	1	0	1	0
159	697	10	10000	1	1	0	1	0
156	698	10	10000	1	1	0	1	0
152	699	10	10000	1	1	0	1	0
148	700	10	10000	1	1	0	1	0
144	701	10	10000	1	1	0	1	0
141	701	10	10000	1	1	0	1	0
137	702	10	10000	1	1	0	1	0
132	704	10	10000	1	1	0	1	0
129	705	10	10000	1	1	0	1	0
127	706	10	10000	1	1	0	1	0
124	707	10	10000	1	1	0	1	0
118	708	10	10000	1	1	0	1	0
115	709	10	10000	1	1	0	1	0
112	710	10	10000	1	1	0	1	0
107	711	10	10000	1	1	0	1	0
103	711	10	10000	1	1	0	1	0
99	712	10	10000	1	1	0	1	0
97	714	10	10000	1	1	0	1	0
95	715	10	10000	1	1	0	1	0
92	716	10	10000	1	1	0	1	0
87	717	10	10000	1	1	0	1	0
84	718	10	10000	1	1	0	1	0
80	719	10	10000	1	1	0	1	0
76	720	10	10000	1	1	0	1	0
74	721	10	10000	1	1	0	1	0
71	721	10	10000	1	1	0	1	0
68	722	10	10000	1	1	0	1	0
63	733	10	10000	1	1	0	1	0
64	734	10	10000	1	1	0	1	0
63	735	10	10000	1	1	0	1	0
60	736	10	10000	1	1	0	1	0
58	737	10	10000	1	1	0	1	0
58	738	10	10000	1	1	0	1	0
57	739	10	10000	1	1	0	1	0
55	740	10	10000	1	1	0	1	0
53	741	10	10000	1	1	0	1	0
54	742	10	10000	1	1	0	1	0
55	743	10	10000	1	1	0	1	0
54	744	10	10000	1	1	0	1	0
55	742	10	10000	1	1	0	1	0
55	743	10	10000	1	1	0	1	0
56	744	10	10000	1	1	0	1	0
57	745	10	10000	1	1	0	1	0
56	746	10	10000	1	1	0	1	0
55	747	10	10000	1	1	0	1	0
53	748	10	10000	1	1	0	1	0
51	749	10	10000	1	1	0	1	0
47	752	10	10000	1	1	0	1	0
47	753	10	10000	1	1	0	1	0
45	754	10	10000	1	1	0	1	0
46	755	10	10000	1	1	0	1	0
44	756	10	10000	1	1	0	1	0
45	757	10	10000	1	1	0	1	0
47	758	10	10000	1	1	0	1	0
48	759	10	10000	1	1	0	1	0
49	760	10	10000	1	1	0	1	0
49	761	10	10000	1	1	0	1	0
50	758	10	10000	1	1	0	1	0
50	759	10	10000	1	1	0	1	0
51	760	10	10000	1	1	0	1	0
51	761	10	10000	1	1	0	1	0
49	762	10	10000	1	1	0	1	0
47	763	10	10000	1	1	0	1	0
46	762	10	10000	1	1	0	1	0
46	763	10	10000	1	1	0	1	0
45	764	10	10000	1	1	0	1	0
44	765	10	10000	1	1	0	1	0
42	769	10	10000	1	1	0	1	0
41	770	10	10000	1	1	0	1	0
41	771	10	10000	1	1	0	1	0
40	772	10	10000	1	1	0	1	0
40	773	10	10000	1	1	0	1	0
38	774	10	10000	1	1	0	1	0
37	775	10	10000	1	1	0	1	0
36	776	10	10000	1	1	0	1	0
36	774	10	10000	1	1	0	1	0
38	775	10	10000	1	1	0	1	0
42	776	10	10000	1	1	0	1	0
42	777	10	10000	1	1	0	1	0
41	779	10	10000	1	1	0	1	0
42	780	10	10000	1	1	0	1	0
43	781	10	10000	1	1	0	1	0
40	782	10	10000	1	1	0	1	0
39	783	10	10000	1	1	0	1	0
38	784	10	10000	1	1	0	1	0
36	785	10	10000	1	1	0	1	0
35	786	10	10000	1	1	0	1	0
32	787	10	10000	1	1	0	1	0
32	788	10	10000	1	1	0	1	0
32	789	10	10000	1	1	0	1	0
31	790	10	10000	1	1	0	1	0
30	790	10	10000	1	1	0	1	0
30	791	10	10000	1	1	0	1	0
29	792	10	10000	1	1	0	1	0
27	793	10	10000	1	1	0	1	0
26	797	10	10000	1	1	0	1	0
24	798	10	10000	1	1	0	1	0
25	799	10	10000	1	1	0	1	0
26	800	10	10000	1	1	0	1	0
26	801	10	10000	1	1	0	1	0
26	802	10	10000	1	1	0	1	0
25	801	10	10000	1	1	0	1	0
25	802	10	10000	1	1	0	1	0
23	803	10	10000	1	1	0	1	0
23	804	10	10000	1	1	0	1	0
22	805	10	10000	1	1	0	1	0
21	806	10	10000	1	1	0	1	0
19	808	10	10000	1	1	0	1	0
22	809	10	10000	1	1	0	1	0
25	810	10	10000	1	1	0	1	0
28	811	10	10000	1	1	0	1	0
29	812	10	10000	1	1	0	1	0
29	813	10	10000	1	1	0	1	0
30	813	10	10000	1	1	0	1	0
33	814	10	10000	1	1	0	1	0
36	815	10	10000	1	1	0	1	0
38	816	10	10000	1	1	0	1	0
41	817	10	10000	1	1	0	1	0
40	818	10	10000	1	1	0	1	0
38	819	10	10000	1	1	0	1	0
38	820	10	10000	1	1	0	1	0
36	821	10	10000	1	1	0	1	0
35	822	10	10000	1	1	0	1	0
35	823	10	10000	1	1	0	1	0
35	824	10	10000	1	1	0	1	0
34	824	10	10000	1	1	0	1	0
33	825	10	10000	1	1	0	1	0
31	826	10	10000	1	1	0	1	0
30	827	10	10000	1	1	0	1	0
31	829	10	10000	1	1	0	1	0
31	830	10	10000	1	1	0	1	0
31	831	10	10000	1	1	0	1	0
30	832	10	10000	1	1	0	1	0
30	833	10	10000	1	1	0	1	0
29	834	10	10000	1	1	0	1	0
28	836	10	10000	1	1	0	1	0
29	837	10	10000	1	1	0	1	0
31	838	10	10000	1	1	0	1	0
29	839	10	10000	1	1	0	1	0
28	840	10	10000	1	1	0	1	0
27	841	10	10000	1	1	0	1	0
26	840	10	10000	1	1	0	1	0
26	841	10	10000	1	1	0	1	0
26	842	10	10000	1	1	0	1	0
25	843	10	10000	1	1	0	1	0
25	847	10	10000	1	1	0	1	0
25	848	10	10000	1	1	0	1	0
23	849	10	10000	1	1	0	1	0
24	850	10	10000	1	1	0	1	0
26	851	10	10000	1	1	0	1	0
26	852	10	10000	1	1	0	1	0
25	853	10	10000	1	1	0	1	0
26	851	10	10000	1	1	0	1	0
25	852	10	10000	1	1	0	1	0
25	853	10	10000	1	1	0	1	0
24	854	10	10000	1	1	0	1	0
23	855	10	10000	1	1	0	1	0
26	858	10	10000	1	1	0	1	0
24	859	10	10000	1	1	0	1	0
23	860	10	10000	1	1	0	1	0
24	861	10	10000	1	1	0	1	0
23	862	10	10000	1	1	0	1	0
22	863	10	10000	1	1	0	1	0
23	863	10	10000	1	1	0	1	0
25	864	10	10000	1	1	0	1	0
26	865	10	10000	1	1	0	1	0
26	866	10	10000	1	1	0	1	0
24	867	10	10000	1	1	0	1	0
23	868	10	10000	1	1	0	1	0
23	866	10	10000	1	1	0	1	0
23	867	10	10000	1	1	0	1	0
22	868	10	10000	1	1	0	1	0
22	869	10	10000	1	1	0	1	0
23	870	10	10000	1	1	0	1	0
22	871	10	10000	1	1	0	1	0
22	872	10	10000	1	1	0	1	0
24	873	10	10000	1	1	0	1	0
27	874	10	10000	1	1	0	1	0
26	875	10	10000	1	1	0	1	0
26	876	10	10000	1	1	0	1	0
26	877	10	10000	1	1	0	1	0
25	878	10	10000	1	1	0	1	0
24	879	10	10000	1	1	0	1	0
23	880	10	10000	1	1	0	1	0
23	881	10	10000	1	1	0	1	0
22	882	10	10000	1	1	0	1	0
22	883	10	10000	1	1	0	1	0
19	884	10	10000	1	1	0	1	0
20	885	10	10000	1	1	0	1	0
19	886	10	10000	1	1	0	1	0
19	887	10	10000	1	1	0	1	0
20	888	10	10000	1	1	0	1	0
20	889	10	10000	1	1	0	1	0
21	890	10	10000	1	1	0	1	0
21	891	10	10000	1	1	0	1	0
20	892	10	10000	1	1	0	1	0
20	893	10	10000	1	1	0	1	0
21	894	10	10000	1	1	0	1	0
20	895	10	10000	1	1	0	1	0
20	896	10	10000	1	1	0	1	0
21	897	10	10000	1	1	0	1	0
20	898	10	10000	1	1	0	1	0
19	899	10	10000	1	1	0	1	0
19	900	10	10000	1	1	0	1	0
20	901	10	10000	1	1	0	1	0
20	902	10	10000	1	1	0	1	0
20	903	10	10000	1	1	0	1	0
18	904	10	10000	1	1	0	1	0
19	905	10	10000	1	1	0	1	0
17	906	10	10000	1	1	0	1	0
18	907	10	10000	1	1	0	1	0
17	908	10	10000	1	1	0	1	0
17	909	10	10000	1	1	0	1	0
17	910	10	10000	1	1	0	1	0
17	911	10	10000	1	1	0	1	0
17	912	10	10000	1	1	0	1	0
17	913	10	10000	1	1	0	1	0
19	914	10	10000	1	1	0	1	0
17	915	10	10000	1	1	0	1	0
17	916	10	10000	1	1	0	1	0
17	917	10	10000	1	1	0	1	0
16	918	10	10000	1	1	0	1	0
16	919	10	10000	1	1	0	1	0
15	920	10	10000	1	1	0	1	0
16	921	10	10000	1	1	0	1	0
17	922	10	10000	1	1	0	1	0
18	923	10	10000	1	1	0	1	0
15	924	10	10000	1	1	0	1	0
15	925	10	10000	1	1	0	1	0
16	926	10	10000	1	1	0	1	0
18	927	10	10000	1	1	0	1	0
19	928	10	10000	1	1	0	1	0
21	929	10	10000	1	1	0	1	0
22	930	10	10000	1	1	0	1	0
21	931	10	10000	1	1	0	1	0
21	932	10	10000	1	1	0	1	0
23	933	10	10000	1	1	0	1	0
27	934	10	10000	1	1	0	1	0
28	935	10	10000	1	1	0	1	0
28	936	10	10000	1	1	0	1	0
27	937	10	10000	1	1	0	1	0
26	938	10	10000	1	1	0	1	0
26	939	10	10000	1	1	0	1	0
25	940	10	10000	1	1	0	1	0
26	941	10	10000	1	1	0	1	0
27	942	10	10000	1	1	0	1	0
28	943	10	10000	1	1	0	1	0
26	944	10	10000	1	1	0	1	0
25	945	10	10000	1	1	0	1	0
24	946	10	10000	1	1	0	1	0
24	947	10	10000	1	1	0	1	0
23	948	10	10000	1	1	0	1	0
21	949	10	10000	1	1	0	1	0
23	950	10	10000	1	1	0	1	0
21	951	10	10000	1	1	0	1	0
20	952	10	10000	1	1	0	1	0
20	953	10	10000	1	1	0	1	0
22	954	10	10000	1	1	0	1	0
20	955	10	10000	1	1	0	1	0
20	956	10	10000	1	1	0	1	0
20	957	10	10000	1	1	0	1	0
21	958	10	10000	1	1	0	1	0
21	959	10	10000	1	1	0	1	0
20	960	10	10000	1	1	0	1	0
21	961	10	10000	1	1	0	1	0
20	962	10	10000	1	1	0	1	0
22	963	10	10000	1	1	0	1	0
22	964	10	10000	1	1	0	1	0
21	965	10	10000	1	1	0	1	0
21	966	10	10000	1	1	0	1	0
21	967	10	10000	1	1	0	1	0
20	968	10	10000	1	1	0	1	0
20	969	10	10000	1	1	0	1	0
20	970	10	10000	1	1	0	1	0
20	971	10	10000	1	1	0	1	0
20	972	10	10000	1	1	0	1	0
19	973	10	10000	1	1	0	1	0
19	974	10	10000	1	1	0	1	0
19	975	10	10000	1	1	0	1	0
19	976	10	10000	1	1	0	1	0
19	977	10	10000	1	1	0	1	0
19	978	10	10000	1	1	0	1	0
19	979	10	10000	1	1	0	1	0
19	980	10	10000	1	1	0	1	0
21	981	10	10000	1	1	0	1	0
22	982	10	10000	1	1	0	1	0
24	983	10	10000	1	1	0	1	0
23	984	10	10000	1	1	0	1	0
22	985	10	10000	1	1	0	1	0
22	986	10	10000	1	1	0	1	0
21	987	10	10000	1	1	0	1	0
21	988	10	10000	1	1	0	1	0
21	989	10	10000	1	1	0	1	0
20	990	10	10000	1	1	0	1	0
19	991	10	10000	1	1	0	1	0
18	992	10	10000	1	1	0	1	0
19	993	10	10000	1	1	0	1	0
20	994	10	10000	1	1	0	1	0
20	995	10	10000	1	1	0	1	0
19	996	10	10000	1	1	0	1	0
18	997	10	10000	1	1	0	1	0
18	998	10	10000	1	1	0	1	0
16	999	10	10000	1	1	0	1	0
16	1000	10	10000	1	1	0	1	0
17	1001	10	10000	1	1	0	1	0
27	2	0	10000	2	1	0	2	0
25	3	0	10000	2	1	0	2	0
25	4	0	10000	2	1	0	2	0
25	5	0	10000	2	1	0	2	0
26	6	0	10000	2	1	0	2	0
25	7	0	10000	2	1	0	2	0
26	8	0	10000	2	1	0	2	0
28	9	0	10000	2	1	0	2	0
28	10	0	10000	2	1	0	2	0
28	11	0	10000	2	1	0	2	0
30	12	0	10000	2	1	0	2	0
33	13	0	10000	2	1	0	2	0
32	14	0	10000	2	1	0	2	0
32	15	0	10000	2	1	0	2	0
32	16	0	10000	2	1	0	2	0
33	17	0	10000	2	1	0	2	0
36	18	0	10000	2	1	0	2	0
35	19	0	10000	2	1	0	2	0
38	20	0	10000	2	1	0	2	0
38	21	0	10000	2	1	0	2	0
39	22	0	10000	2	1	0	2	0
35	23	0	10000	2	1	0	2	0
36	24	0	10000	2	1	0	2	0
36	25	0	10000	2	1	0	2	0
37	26	0	10000	2	1	0	2	0
37	27	0	10000	2	1	0	2	0
36	28	0	10000	2	1	0	2	0
38	29	0	10000	2	1	0	2	0
35	30	0	10000	2	1	0	2	0
34	31	0	10000	2	1	0	2	0
33	32	0	10000	2	1	0	2	0
36	33	0	10000	2	1	0	2	0
48	34	0	10000	2	1	0	2	0
61	35	0	10000	2	1	0	2	0
62	36	0	10000	2	1	0	2	0
69	37	0	10000	2	1	0	2	0
72	38	0	10000	2	1	0	2	0
71	39	0	10000	2	1	0	2	0
80	40	0	10000	2	1	0	2	0
86	41	0	10000	2	1	0	2	0
84	42	0	10000	2	1	0	2	0
87	43	0	10000	2	1	0	2	0
91	44	0	10000	2	1	0	2	0
88	45	0	10000	2	1	0	2	0
87	46	0	10000	2	1	0	2	0
85	47	0	10000	2	1	0	2	0
82	48	0	10000	2	1	0	2	0
80	49	0	10000	2	1	0	2	0
76	50	0	10000	2	1	0	2	0
77	51	0	10000	2	1	0	2	0
77	52	0	10000	2	1	0	2	0
81	53	0	10000	2	1	0	2	0
79	54	0	10000	2	1	0	2	0
79	55	0	10000	2	1	0	2	0
91	56	0	10000	2	1	0	2	0
104	57	0	10000	2	1	0	2	0
104	58	0	10000	2	1	0	2	0
112	59	0	10000	2	1	0	2	0
120	60	0	10000	2	1	0	2	0
124	61	0	10000	2	1	0	2	0
126	62	0	10000	2	1	0	2	0
123	63	0	10000	2	1	0	2	0
125	64	0	10000	2	1	0	2	0
130	65	0	10000	2	1	0	2	0
132	66	0	10000	2	1	0	2	0
135	67	0	10000	2	1	0	2	0
132	68	0	10000	2	1	0	2	0
130	69	0	10000	2	1	0	2	0
129	70	0	10000	2	1	0	2	0
133	71	0	10000	2	1	0	2	0
137	72	0	10000	2	1	0	2	0
136	73	0	10000	2	1	0	2	0
132	74	0	10000	2	1	0	2	0
133	75	0	10000	2	1	0	2	0
135	76	0	10000	2	1	0	2	0
139	77	0	10000	2	1	0	2	0
142	78	0	10000	2	1	0	2	0
142	79	0	10000	2	1	0	2	0
141	80	0	10000	2	1	0	2	0
141	81	0	10000	2	1	0	2	0
147	82	0	10000	2	1	0	2	0
147	83	0	10000	2	1	0	2	0
142	84	0	10000	2	1	0	2	0
143	85	0	10000	2	1	0	2	0
145	86	0	10000	2	1	0	2	0
143	87	0	10000	2	1	0	2	0
139	88	0	10000	2	1	0	2	0
135	89	0	10000	2	1	0	2	0
133	90	0	10000	2	1	0	2	0
134	91	0	10000	2	1	0	2	0
130	92	0	10000	2	1	0	2	0
127	93	0	10000	2	1	0	2	0
123	94	0	10000	2	1	0	2	0
119	95	0	10000	2	1	0	2	0
114	96	0	10000	2	1	0	2	0
111	97	0	10000	2	1	0	2	0
112	98	0	10000	2	1	0	2	0
110	99	0	10000	2	1	0	2	0
116	100	0	10000	2	1	0	2	0
121	101	0	10000	2	1	0	2	0
121	102	0	10000	2	1	0	2	0
116	103	0	10000	2	1	0	2	0
111	104	0	10000	2	1	0	2	0
108	105	0	10000	2	1	0	2	0
107	106	0	10000	2	1	0	2	0
106	107	0	10000	2	1	0	2	0
105	108	0	10000	2	1	0	2	0
106	109	0	10000	2	1	0	2	0
104	110	0	10000	2	1	0	2	0
102	111	0	10000	2	1	0	2	0
100	112	0	10000	2	1	0	2	0
102	113	0	10000	2	1	0	2	0
102	114	0	10000	2	1	0	2	0
104	115	0	10000	2	1	0	2	0
101	116	0	10000	2	1	0	2	0
97	117	0	10000	2	1	0	2	0
97	118	0	10000	2	1	0	2	0
94	119	0	10000	2	1	0	2	0
92	120	0	10000	2	1	0	2	0
96	121	0	10000	2	1	0	2	0
106	122	0	10000	2	1	0	2	0
104	123	0	10000	2	1	0	2	0
101	124	0	10000	2	1	0	2	0
98	125	0	10000	2	1	0	2	0
94	126	0	10000	2	1	0	2	0
96	127	0	10000	2	1	0	2	0
98	128	0	10000	2	1	0	2	0
95	129	0	10000	2	1	0	2	0
98	130	0	10000	2	1	0	2	0
103	131	0	10000	2	1	0	2	0
103	132	0	10000	2	1	0	2	0
103	133	0	10000	2	1	0	2	0
100	134	0	10000	2	1	0	2	0
98	135	0	10000	2	1	0	2	0
93	136	0	10000	2	1	0	2	0
89	137	0	10000	2	1	0	2	0
85	138	0	10000	2	1	0	2	0
82	139	0	10000	2	1	0	2	0
78	140	0	10000	2	1	0	2	0
76	141	0	10000	2	1	0	2	0
74	142	0	10000	2	1	0	2	0
71	143	0	10000	2	1	0	2	0
71	144	0	10000	2	1	0	2	0
69	145	0	10000	2	1	0	2	0
68	146	0	10000	2	1	0	2	0
68	147	0	10000	2	1	0	2	0
68	148	0	10000	2	1	0	2	0
66	149	0	10000	2	1	0	2	0
64	150	0	10000	2	1	0	2	0
63	151	0	10000	2	1	0	2	0
62	152	0	10000	2	1	0	2	0
67	153	0	10000	2	1	0	2	0
72	154	0	10000	2	1	0	2	0
74	155	0	10000	2	1	0	2	0
76	156	0	10000	2	1	0	2	0
75	157	0	10000	2	1	0	2	0
72	158	0	10000	2	1	0	2	0
69	159	0	10000	2	1	0	2	0
67	160	0	10000	2	1	0	2	0
65	161	0	10000	2	1	0	2	0
66	162	0	10000	2	1	0	2	0
66	163	0	10000	2	1	0	2	0
68	164	0	10000	2	1	0	2	0
70	165	0	10000	2	1	0	2	0
71	166	0	10000	2	1	0	2	0
69	167	0	10000	2	1	0	2	0
68	168	0	10000	2	1	0	2	0
67	169	0	10000	2	1	0	2	0
65	170	0	10000	2	1	0	2	0
63	171	0	10000	2	1	0	2	0
65	172	0	10000	2	1	0	2	0
70	173	0	10000	2	1	0	2	0
74	174	0	10000	2	1	0	2	0
77	175	0	10000	2	1	0	2	0
79	176	0	10000	2	1	0	2	0
79	177	0	10000	2	1	0	2	0
79	178	0	10000	2	1	0	2	0
77	179	0	10000	2	1	0	2	0
75	180	0	10000	2	1	0	2	0
74	181	0	10000	2	1	0	2	0
74	182	0	10000	2	1	0	2	0
69	183	0	10000	2	1	0	2	0
69	184	0	10000	2	1	0	2	0
71	185	0	10000	2	1	0	2	0
74	186	0	10000	2	1	0	2	0
77	187	0	10000	2	1	0	2	0
76	188	0	10000	2	1	0	2	0
74	189	0	10000	2	1	0	2	0
71	190	0	10000	2	1	0	2	0
69	191	0	10000	2	1	0	2	0
68	192	0	10000	2	1	0	2	0
70	193	0	10000	2	1	0	2	0
70	194	0	10000	2	1	0	2	0
69	195	0	10000	2	1	0	2	0
69	196	0	10000	2	1	0	2	0
70	197	0	10000	2	1	0	2	0
69	198	0	10000	2	1	0	2	0
68	199	0	10000	2	1	0	2	0
67	200	0	10000	2	1	0	2	0
66	201	0	10000	2	1	0	2	0
64	202	0	10000	2	1	0	2	0
61	203	0	10000	2	1	0	2	0
59	204	0	10000	2	1	0	2	0
58	205	0	10000	2	1	0	2	0
58	206	0	10000	2	1	0	2	0
57	207	0	10000	2	1	0	2	0
57	208	0	10000	2	1	0	2	0
57	209	0	10000	2	1	0	2	0
54	210	0	10000	2	1	0	2	0
53	211	0	10000	2	1	0	2	0
55	212	0	10000	2	1	0	2	0
58	213	0	10000	2	1	0	2	0
59	214	0	10000	2	1	0	2	0
58	215	0	10000	2	1	0	2	0
55	216	0	10000	2	1	0	2	0
53	217	0	10000	2	1	0	2	0
52	218	0	10000	2	1	0	2	0
50	219	0	10000	2	1	0	2	0
49	220	0	10000	2	1	0	2	0
48	221	0	10000	2	1	0	2	0
46	222	0	10000	2	1	0	2	0
44	223	0	10000	2	1	0	2	0
44	224	0	10000	2	1	0	2	0
44	225	0	10000	2	1	0	2	0
44	226	0	10000	2	1	0	2	0
45	227	0	10000	2	1	0	2	0
48	228	0	10000	2	1	0	2	0
50	229	0	10000	2	1	0	2	0
48	230	0	10000	2	1	0	2	0
48	231	0	10000	2	1	0	2	0
48	232	0	10000	2	1	0	2	0
50	233	0	10000	2	1	0	2	0
49	234	0	10000	2	1	0	2	0
48	235	0	10000	2	1	0	2	0
46	236	0	10000	2	1	0	2	0
44	237	0	10000	2	1	0	2	0
44	238	0	10000	2	1	0	2	0
42	239	0	10000	2	1	0	2	0
41	240	0	10000	2	1	0	2	0
40	241	0	10000	2	1	0	2	0
39	242	0	10000	2	1	0	2	0
36	243	0	10000	2	1	0	2	0
36	244	0	10000	2	1	0	2	0
36	245	0	10000	2	1	0	2	0
36	246	0	10000	2	1	0	2	0
37	247	0	10000	2	1	0	2	0
36	248	0	10000	2	1	0	2	0
35	249	0	10000	2	1	0	2	0
34	250	0	10000	2	1	0	2	0
35	251	0	10000	2	1	0	2	0
36	252	0	10000	2	1	0	2	0
37	253	0	10000	2	1	0	2	0
36	254	0	10000	2	1	0	2	0
35	255	0	10000	2	1	0	2	0
36	256	0	10000	2	1	0	2	0
39	257	0	10000	2	1	0	2	0
40	258	0	10000	2	1	0	2	0
41	259	0	10000	2	1	0	2	0
44	260	0	10000	2	1	0	2	0
44	261	0	10000	2	1	0	2	0
44	262	0	10000	2	1	0	2	0
40	263	0	10000	2	1	0	2	0
41	264	0	10000	2	1	0	2	0
42	265	0	10000	2	1	0	2	0
44	266	0	10000	2	1	0	2	0
44	267	0	10000	2	1	0	2	0
45	268	0	10000	2	1	0	2	0
48	269	0	10000	2	1	0	2	0
48	270	0	10000	2	1	0	2	0
48	271	0	10000	2	1	0	2	0
46	272	0	10000	2	1	0	2	0
47	273	0	10000	2	1	0	2	0
46	274	0	10000	2	1	0	2	0
44	275	0	10000	2	1	0	2	0
44	276	0	10000	2	1	0	2	0
43	277	0	10000	2	1	0	2	0
43	278	0	10000	2	1	0	2	0
42	279	0	10000	2	1	0	2	0
42	280	0	10000	2	1	0	2	0
41	281	0	10000	2	1	0	2	0
40	282	0	10000	2	1	0	2	0
38	283	0	10000	2	1	0	2	0
36	284	0	10000	2	1	0	2	0
35	285	0	10000	2	1	0	2	0
35	286	0	10000	2	1	0	2	0
34	287	0	10000	2	1	0	2	0
35	288	0	10000	2	1	0	2	0
36	289	0	10000	2	1	0	2	0
34	290	0	10000	2	1	0	2	0
33	291	0	10000	2	1	0	2	0
33	292	0	10000	2	1	0	2	0
35	293	0	10000	2	1	0	2	0
34	294	0	10000	2	1	0	2	0
32	295	0	10000	2	1	0	2	0
31	296	0	10000	2	1	0	2	0
30	297	0	10000	2	1	0	2	0
29	298	0	10000	2	1	0	2	0
27	299	0	10000	2	1	0	2	0
28	300	0	10000	2	1	0	2	0
27	301	0	10000	2	1	0	2	0
26	302	0	10000	2	1	0	2	0
23	303	0	10000	2	1	0	2	0
23	304	0	10000	2	1	0	2	0
23	305	0	10000	2	1	0	2	0
24	306	0	10000	2	1	0	2	0
24	307	0	10000	2	1	0	2	0
26	308	0	10000	2	1	0	2	0
28	309	0	10000	2	1	0	2	0
27	310	0	10000	2	1	0	2	0
27	311	0	10000	2	1	0	2	0
27	312	0	10000	2	1	0	2	0
27	313	0	10000	2	1	0	2	0
27	314	0	10000	2	1	0	2	0
25	315	0	10000	2	1	0	2	0
24	316	0	10000	2	1	0	2	0
26	317	0	10000	2	1	0	2	0
27	318	0	10000	2	1	0	2	0
28	319	0	10000	2	1	0	2	0
29	320	0	10000	2	1	0	2	0
28	321	0	10000	2	1	0	2	0
28	322	0	10000	2	1	0	2	0
25	323	0	10000	2	1	0	2	0
24	324	0	10000	2	1	0	2	0
27	325	0	10000	2	1	0	2	0
30	326	0	10000	2	1	0	2	0
31	327	0	10000	2	1	0	2	0
31	328	0	10000	2	1	0	2	0
33	329	0	10000	2	1	0	2	0
35	330	0	10000	2	1	0	2	0
36	331	0	10000	2	1	0	2	0
36	332	0	10000	2	1	0	2	0
37	333	0	10000	2	1	0	2	0
36	334	0	10000	2	1	0	2	0
36	335	0	10000	2	1	0	2	0
35	336	0	10000	2	1	0	2	0
35	337	0	10000	2	1	0	2	0
36	338	0	10000	2	1	0	2	0
38	339	0	10000	2	1	0	2	0
40	340	0	10000	2	1	0	2	0
40	341	0	10000	2	1	0	2	0
38	342	0	10000	2	1	0	2	0
35	343	0	10000	2	1	0	2	0
34	344	0	10000	2	1	0	2	0
33	345	0	10000	2	1	0	2	0
33	346	0	10000	2	1	0	2	0
32	347	0	10000	2	1	0	2	0
33	348	0	10000	2	1	0	2	0
31	349	0	10000	2	1	0	2	0
31	350	0	10000	2	1	0	2	0
30	351	0	10000	2	1	0	2	0
29	352	0	10000	2	1	0	2	0
30	353	0	10000	2	1	0	2	0
29	354	0	10000	2	1	0	2	0
28	355	0	10000	2	1	0	2	0
27	356	0	10000	2	1	0	2	0
26	357	0	10000	2	1	0	2	0
25	358	0	10000	2	1	0	2	0
25	359	0	10000	2	1	0	2	0
25	360	0	10000	2	1	0	2	0
26	361	0	10000	2	1	0	2	0
26	362	0	10000	2	1	0	2	0
23	363	0	10000	2	1	0	2	0
22	364	0	10000	2	1	0	2	0
23	365	0	10000	2	1	0	2	0
22	366	0	10000	2	1	0	2	0
21	367	0	10000	2	1	0	2	0
21	368	0	10000	2	1	0	2	0
22	369	0	10000	2	1	0	2	0
20	370	0	10000	2	1	0	2	0
20	371	0	10000	2	1	0	2	0
20	372	0	10000	2	1	0	2	0
20	373	0	10000	2	1	0	2	0
20	374	0	10000	2	1	0	2	0
19	375	0	10000	2	1	0	2	0
18	376	0	10000	2	1	0	2	0
18	377	0	10000	2	1	0	2	0
17	378	0	10000	2	1	0	2	0
17	379	0	10000	2	1	0	2	0
18	380	0	10000	2	1	0	2	0
17	381	0	10000	2	1	0	2	0
18	382	0	10000	2	1	0	2	0
17	383	0	10000	2	1	0	2	0
18	384	0	10000	2	1	0	2	0
18	385	0	10000	2	1	0	2	0
18	386	0	10000	2	1	0	2	0
18	387	0	10000	2	1	0	2	0
19	388	0	10000	2	1	0	2	0
20	389	0	10000	2	1	0	2	0
19	390	0	10000	2	1	0	2	0
19	391	0	10000	2	1	0	2	0
18	392	0	10000	2	1	0	2	0
20	393	0	10000	2	1	0	2	0
19	394	0	10000	2	1	0	2	0
18	395	0	10000	2	1	0	2	0
19	396	0	10000	2	1	0	2	0
20	397	0	10000	2	1	0	2	0
20	398	0	10000	2	1	0	2	0
19	399	0	10000	2	1	0	2	0
19	400	0	10000	2	1	0	2	0
18	401	0	10000	2	1	0	2	0
17	402	0	10000	2	1	0	2	0
15	403	0	10000	2	1	0	2	0
15	404	0	10000	2	1	0	2	0
15	405	0	10000	2	1	0	2	0
15	406	0	10000	2	1	0	2	0
14	407	0	10000	2	1	0	2	0
14	408	0	10000	2	1	0	2	0
14	409	0	10000	2	1	0	2	0
14	410	0	10000	2	1	0	2	0
14	411	0	10000	2	1	0	2	0
15	412	0	10000	2	1	0	2	0
20	413	0	10000	2	1	0	2	0
19	414	0	10000	2	1	0	2	0
19	415	0	10000	2	1	0	2	0
18	416	0	10000	2	1	0	2	0
18	417	0	10000	2	1	0	2	0
19	418	0	10000	2	1	0	2	0
19	419	0	10000	2	1	0	2	0
20	420	0	10000	2	1	0	2	0
20	421	0	10000	2	1	0	2	0
20	422	0	10000	2	1	0	2	0
20	423	0	10000	2	1	0	2	0
21	424	0	10000	2	1	0	2	0
23	425	0	10000	2	1	0	2	0
22	426	0	10000	2	1	0	2	0
22	427	0	10000	2	1	0	2	0
21	428	0	10000	2	1	0	2	0
22	429	0	10000	2	1	0	2	0
21	430	0	10000	2	1	0	2	0
20	431	0	10000	2	1	0	2	0
19	432	0	10000	2	1	0	2	0
20	433	0	10000	2	1	0	2	0
19	434	0	10000	2	1	0	2	0
18	435	0	10000	2	1	0	2	0
18	436	0	10000	2	1	0	2	0
17	437	0	10000	2	1	0	2	0
17	438	0	10000	2	1	0	2	0
17	439	0	10000	2	1	0	2	0
19	440	0	10000	2	1	0	2	0
19	441	0	10000	2	1	0	2	0
19	442	0	10000	2	1	0	2	0
17	443	0	10000	2	1	0	2	0
17	444	0	10000	2	1	0	2	0
17	445	0	10000	2	1	0	2	0
18	446	0	10000	2	1	0	2	0
20	447	0	10000	2	1	0	2	0
22	448	0	10000	2	1	0	2	0
22	449	0	10000	2	1	0	2	0
22	450	0	10000	2	1	0	2	0
22	451	0	10000	2	1	0	2	0
25	452	0	10000	2	1	0	2	0
29	453	0	10000	2	1	0	2	0
28	454	0	10000	2	1	0	2	0
26	455	0	10000	2	1	0	2	0
26	456	0	10000	2	1	0	2	0
26	457	0	10000	2	1	0	2	0
26	458	0	10000	2	1	0	2	0
26	459	0	10000	2	1	0	2	0
25	460	0	10000	2	1	0	2	0
26	461	0	10000	2	1	0	2	0
25	462	0	10000	2	1	0	2	0
23	463	0	10000	2	1	0	2	0
22	464	0	10000	2	1	0	2	0
21	465	0	10000	2	1	0	2	0
21	466	0	10000	2	1	0	2	0
20	467	0	10000	2	1	0	2	0
20	468	0	10000	2	1	0	2	0
21	469	0	10000	2	1	0	2	0
21	470	0	10000	2	1	0	2	0
21	471	0	10000	2	1	0	2	0
21	472	0	10000	2	1	0	2	0
24	473	0	10000	2	1	0	2	0
24	474	0	10000	2	1	0	2	0
24	475	0	10000	2	1	0	2	0
23	476	0	10000	2	1	0	2	0
22	477	0	10000	2	1	0	2	0
23	478	0	10000	2	1	0	2	0
22	479	0	10000	2	1	0	2	0
23	480	0	10000	2	1	0	2	0
23	481	0	10000	2	1	0	2	0
22	482	0	10000	2	1	0	2	0
20	483	0	10000	2	1	0	2	0
20	484	0	10000	2	1	0	2	0
20	485	0	10000	2	1	0	2	0
20	486	0	10000	2	1	0	2	0
20	487	0	10000	2	1	0	2	0
22	488	0	10000	2	1	0	2	0
24	489	0	10000	2	1	0	2	0
23	490	0	10000	2	1	0	2	0
22	491	0	10000	2	1	0	2	0
22	492	0	10000	2	1	0	2	0
23	493	0	10000	2	1	0	2	0
23	494	0	10000	2	1	0	2	0
24	495	0	10000	2	1	0	2	0
24	496	0	10000	2	1	0	2	0
24	497	0	10000	2	1	0	2	0
25	498	0	10000	2	1	0	2	0
24	499	0	10000	2	1	0	2	0
24	500	0	10000	2	1	0	2	0
26	501	0	10000	2	1	0	2	0
26	501	0	10000	2	1	0	2	1
24	502	0	10000	2	1	0	2	1
24	504	0	10000	2	1	0	2	1
24	505	0	10000	2	1	0	2	1
25	506	0	10000	2	1	0	2	1
24	507	0	10000	2	1	0	2	1
24	508	0	10000	2	1	0	2	1
27	509	0	10000	2	1	0	2	1
28	510	0	10000	2	1	0	2	1
26	511	0	10000	2	1	0	2	1
26	512	0	10000	2	1	0	2	1
27	513	0	10000	2	1	0	2	1
26	514	0	10000	2	1	0	2	1
25	515	0	10000	2	1	0	2	1
24	516	0	10000	2	1	0	2	1
23	517	0	10000	2	1	0	2	1
22	518	0	10000	2	1	0	2	1
21	519	0	10000	2	1	0	2	1
22	520	0	10000	2	1	0	2	1
24	521	0	10000	2	1	0	2	1
24	522	0	10000	2	1	0	2	1
23	523	0	10000	2	1	0	2	1
24	524	0	10000	2	1	0	2	1
24	525	0	10000	2	1	0	2	1
24	526	0	10000	2	1	0	2	1
23	527	0	10000	2	1	0	2	1
24	528	0	10000	2	1	0	2	1
23	529	0	10000	2	1	0	2	1
22	530	0	10000	2	1	0	2	1
21	531	0	10000	2	1	0	2	1
21	532	0	10000	2	1	0	2	1
22	533	0	10000	2	1	0	2	1
21	534	0	10000	2	1	0	2	1
20	535	0	10000	2	1	0	2	1
20	536	0	10000	2	1	0	2	1
19	537	0	10000	2	1	0	2	1
19	538	0	10000	2	1	0	2	1
18	539	0	10000	2	1	0	2	1
19	540	0	10000	2	1	0	2	1
18	541	0	10000	2	1	0	2	1
17	542	0	10000	2	1	0	2	1
16	543	0	10000	2	1	0	2	1
15	544	0	10000	2	1	0	2	1
16	545	0	10000	2	1	0	2	1
17	546	0	10000	2	1	0	2	1
16	547	0	10000	2	1	0	2	1
16	548	0	10000	2	1	0	2	1
16	549	0	10000	2	1	0	2	1
15	550	0	10000	2	1	0	2	1
14	551	0	10000	2	1	0	2	1
14	552	0	10000	2	1	0	2	0
17	553	0	10000	2	1	0	2	0
19	554	0	10000	2	1	0	2	0
19	555	0	10000	2	1	0	2	0
18	556	0	10000	2	1	0	2	0
20	557	0	10000	2	1	0	2	0
20	558	0	10000	2	1	0	2	0
21	559	0	10000	2	1	0	2	0
21	560	0	10000	2	1	0	2	0
20	561	0	10000	2	1	0	2	0
20	562	0	10000	2	1	0	2	0
17	563	0	10000	2	1	0	2	0
17	564	0	10000	2	1	0	2	0
17	565	0	10000	2	1	0	2	0
17	566	0	10000	2	1	0	2	0
17	567	0	10000	2	1	0	2	0
17	568	0	10000	2	1	0	2	0
19	569	0	10000	2	1	0	2	0
17	570	0	10000	2	1	0	2	0
17	571	0	10000	2	1	0	2	0
17	572	0	10000	2	1	0	2	0
19	573	0	10000	2	1	0	2	0
20	574	0	10000	2	1	0	2	0
20	575	0	10000	2	1	0	2	0
20	576	0	10000	2	1	0	2	0
20	577	0	10000	2	1	0	2	0
19	578	0	10000	2	1	0	2	0
18	579	0	10000	2	1	0	2	0
20	580	0	10000	2	1	0	2	0
20	581	0	10000	2	1	0	2	0
19	582	0	10000	2	1	0	2	0
22	583	0	10000	2	1	0	2	0
33	584	0	10000	2	1	0	2	0
44	585	0	10000	2	1	0	2	0
50	586	0	10000	2	1	0	2	0
55	587	0	10000	2	1	0	2	0
56	588	0	10000	2	1	0	2	0
58	589	0	10000	2	1	0	2	0
63	590	0	10000	2	1	0	2	0
68	591	0	10000	2	1	0	2	0
76	592	0	10000	2	1	0	2	0
79	593	0	10000	2	1	0	2	0
79	594	0	10000	2	1	0	2	0
84	595	0	10000	2	1	0	2	0
98	596	0	10000	2	1	0	2	0
117	597	0	10000	2	1	0	2	0
121	598	0	10000	2	1	0	2	0
135	599	0	10000	2	1	0	2	0
138	600	0	10000	2	1	0	2	0
151	601	0	10000	2	1	0	2	0
164	602	0	10000	2	1	0	2	0
157	603	0	10000	2	1	0	2	0
155	604	0	10000	2	1	0	2	0
172	605	0	10000	2	1	0	2	0
193	606	0	10000	2	1	0	2	0
197	607	0	10000	2	1	0	2	0
203	608	0	10000	2	1	0	2	0
212	609	0	10000	2	1	0	2	0
218	610	0	10000	2	1	0	2	0
236	611	0	10000	2	1	0	2	0
242	612	0	10000	2	1	0	2	0
236	613	0	10000	2	1	0	2	0
226	614	0	10000	2	1	0	2	0
220	615	0	10000	2	1	0	2	0
211	616	0	10000	2	1	0	2	0
211	617	0	10000	2	1	0	2	0
229	618	0	10000	2	1	0	2	0
250	619	0	10000	2	1	0	2	0
267	620	0	10000	2	1	0	2	0
277	621	0	10000	2	1	0	2	0
278	622	0	10000	2	1	0	2	0
269	623	0	10000	2	1	0	2	0
258	624	0	10000	2	1	0	2	0
252	625	0	10000	2	1	0	2	0
247	626	0	10000	2	1	0	2	0
242	627	0	10000	2	1	0	2	0
240	628	0	10000	2	1	0	2	0
237	629	0	10000	2	1	0	2	0
234	630	0	10000	2	1	0	2	0
232	631	0	10000	2	1	0	2	0
228	632	0	10000	2	1	0	2	0
226	633	0	10000	2	1	0	2	0
221	634	0	10000	2	1	0	2	0
215	635	0	10000	2	1	0	2	0
209	636	0	10000	2	1	0	2	0
202	637	0	10000	2	1	0	2	0
196	638	0	10000	2	1	0	2	0
190	639	0	10000	2	1	0	2	0
185	640	0	10000	2	1	0	2	0
178	641	0	10000	2	1	0	2	0
170	642	0	10000	2	1	0	2	0
161	643	0	10000	2	1	0	2	0
153	644	0	10000	2	1	0	2	0
148	645	0	10000	2	1	0	2	0
144	646	0	10000	2	1	0	2	0
140	647	0	10000	2	1	0	2	0
138	648	0	10000	2	1	0	2	0
137	649	0	10000	2	1	0	2	0
138	650	0	10000	2	1	0	2	0
140	651	0	10000	2	1	0	2	0
143	652	0	10000	2	1	0	2	0
149	653	0	10000	2	1	0	2	0
151	654	0	10000	2	1	0	2	0
153	655	0	10000	2	1	0	2	0
152	656	0	10000	2	1	0	2	0
152	657	0	10000	2	1	0	2	0
153	658	0	10000	2	1	0	2	0
155	659	0	10000	2	1	0	2	0
159	660	0	10000	2	1	0	2	0
163	661	0	10000	2	1	0	2	0
166	662	0	10000	2	1	0	2	0
166	663	0	10000	2	1	0	2	0
167	664	0	10000	2	1	0	2	0
170	665	0	10000	2	1	0	2	0
172	666	0	10000	2	1	0	2	0
177	667	0	10000	2	1	0	2	0
178	668	0	10000	2	1	0	2	0
177	669	0	10000	2	1	0	2	0
174	670	0	10000	2	1	0	2	0
169	671	0	10000	2	1	0	2	0
164	672	0	10000	2	1	0	2	0
164	673	0	10000	2	1	0	2	0
162	674	0	10000	2	1	0	2	0
157	675	0	10000	2	1	0	2	0
154	676	0	10000	2	1	0	2	0
151	677	0	10000	2	1	0	2	0
150	678	0	10000	2	1	0	2	0
146	679	0	10000	2	1	0	2	0
143	680	0	10000	2	1	0	2	0
139	681	0	10000	2	1	0	2	0
133	682	0	10000	2	1	0	2	0
126	683	0	10000	2	1	0	2	0
124	684	0	10000	2	1	0	2	0
122	685	0	10000	2	1	0	2	0
122	686	0	10000	2	1	0	2	0
121	687	0	10000	2	1	0	2	0
120	688	0	10000	2	1	0	2	0
118	689	0	10000	2	1	0	2	0
113	690	0	10000	2	1	0	2	0
109	691	0	10000	2	1	0	2	0
104	692	0	10000	2	1	0	2	0
101	693	0	10000	2	1	0	2	0
96	694	0	10000	2	1	0	2	0
92	695	0	10000	2	1	0	2	0
90	696	0	10000	2	1	0	2	0
92	697	0	10000	2	1	0	2	0
95	698	0	10000	2	1	0	2	0
98	699	0	10000	2	1	0	2	0
100	700	0	10000	2	1	0	2	0
102	701	0	10000	2	1	0	2	0
101	702	0	10000	2	1	0	2	0
97	703	0	10000	2	1	0	2	0
96	704	0	10000	2	1	0	2	0
94	705	0	10000	2	1	0	2	0
92	706	0	10000	2	1	0	2	0
89	707	0	10000	2	1	0	2	0
85	708	0	10000	2	1	0	2	0
84	709	0	10000	2	1	0	2	0
82	710	0	10000	2	1	0	2	0
80	711	0	10000	2	1	0	2	0
79	712	0	10000	2	1	0	2	0
78	713	0	10000	2	1	0	2	0
74	714	0	10000	2	1	0	2	0
72	715	0	10000	2	1	0	2	0
69	716	0	10000	2	1	0	2	0
68	717	0	10000	2	1	0	2	0
68	718	0	10000	2	1	0	2	0
66	719	0	10000	2	1	0	2	0
67	720	0	10000	2	1	0	2	0
69	721	0	10000	2	1	0	2	0
68	722	0	10000	2	1	0	2	0
64	723	0	10000	2	1	0	2	0
62	724	0	10000	2	1	0	2	0
61	725	0	10000	2	1	0	2	0
61	726	0	10000	2	1	0	2	0
60	727	0	10000	2	1	0	2	0
59	728	0	10000	2	1	0	2	0
57	729	0	10000	2	1	0	2	0
53	730	0	10000	2	1	0	2	0
50	731	0	10000	2	1	0	2	0
50	732	0	10000	2	1	0	2	0
49	733	0	10000	2	1	0	2	0
47	734	0	10000	2	1	0	2	0
45	735	0	10000	2	1	0	2	0
44	736	0	10000	2	1	0	2	0
44	737	0	10000	2	1	0	2	0
49	738	0	10000	2	1	0	2	0
54	739	0	10000	2	1	0	2	0
58	740	0	10000	2	1	0	2	0
61	741	0	10000	2	1	0	2	0
62	742	0	10000	2	1	0	2	0
61	743	0	10000	2	1	0	2	0
60	744	0	10000	2	1	0	2	0
59	745	0	10000	2	1	0	2	0
58	746	0	10000	2	1	0	2	0
56	747	0	10000	2	1	0	2	0
53	748	0	10000	2	1	0	2	0
54	749	0	10000	2	1	0	2	0
52	750	0	10000	2	1	0	2	0
49	751	0	10000	2	1	0	2	0
49	752	0	10000	2	1	0	2	0
49	753	0	10000	2	1	0	2	0
49	754	0	10000	2	1	0	2	0
47	755	0	10000	2	1	0	2	0
46	756	0	10000	2	1	0	2	0
45	757	0	10000	2	1	0	2	0
43	758	0	10000	2	1	0	2	0
41	759	0	10000	2	1	0	2	0
41	760	0	10000	2	1	0	2	0
41	761	0	10000	2	1	0	2	0
42	762	0	10000	2	1	0	2	0
41	763	0	10000	2	1	0	2	0
39	764	0	10000	2	1	0	2	0
39	765	0	10000	2	1	0	2	0
37	766	0	10000	2	1	0	2	0
37	767	0	10000	2	1	0	2	0
39	768	0	10000	2	1	0	2	0
40	769	0	10000	2	1	0	2	0
40	770	0	10000	2	1	0	2	0
39	771	0	10000	2	1	0	2	0
37	772	0	10000	2	1	0	2	0
39	773	0	10000	2	1	0	2	0
37	774	0	10000	2	1	0	2	0
38	775	0	10000	2	1	0	2	0
36	776	0	10000	2	1	0	2	0
37	777	0	10000	2	1	0	2	0
39	778	0	10000	2	1	0	2	0
41	779	0	10000	2	1	0	2	0
42	780	0	10000	2	1	0	2	0
42	781	0	10000	2	1	0	2	0
42	782	0	10000	2	1	0	2	0
40	783	0	10000	2	1	0	2	0
41	784	0	10000	2	1	0	2	0
41	785	0	10000	2	1	0	2	0
42	786	0	10000	2	1	0	2	0
40	787	0	10000	2	1	0	2	0
40	788	0	10000	2	1	0	2	0
39	789	0	10000	2	1	0	2	0
39	790	0	10000	2	1	0	2	0
40	791	0	10000	2	1	0	2	0
39	792	0	10000	2	1	0	2	0
41	793	0	10000	2	1	0	2	0
41	794	0	10000	2	1	0	2	0
41	795	0	10000	2	1	0	2	0
40	796	0	10000	2	1	0	2	0
40	797	0	10000	2	1	0	2	0
40	798	0	10000	2	1	0	2	0
39	799	0	10000	2	1	0	2	0
39	800	0	10000	2	1	0	2	0
39	801	0	10000	2	1	0	2	0
38	802	0	10000	2	1	0	2	0
35	803	0	10000	2	1	0	2	0
35	804	0	10000	2	1	0	2	0
35	805	0	10000	2	1	0	2	0
36	806	0	10000	2	1	0	2	0
38	807	0	10000	2	1	0	2	0
42	808	0	10000	2	1	0	2	0
41	809	0	10000	2	1	0	2	0
40	810	0	10000	2	1	0	2	0
40	811	0	10000	2	1	0	2	0
40	812	0	10000	2	1	0	2	0
42	813	0	10000	2	1	0	2	0
45	814	0	10000	2	1	0	2	0
50	815	0	10000	2	1	0	2	0
55	816	0	10000	2	1	0	2	0
59	817	0	10000	2	1	0	2	0
58	818	0	10000	2	1	0	2	0
55	819	0	10000	2	1	0	2	0
56	820	0	10000	2	1	0	2	0
59	821	0	10000	2	1	0	2	0
62	822	0	10000	2	1	0	2	0
64	823	0	10000	2	1	0	2	0
71	824	0	10000	2	1	0	2	0
76	825	0	10000	2	1	0	2	0
75	826	0	10000	2	1	0	2	0
80	827	0	10000	2	1	0	2	0
87	828	0	10000	2	1	0	2	0
93	829	0	10000	2	1	0	2	0
95	830	0	10000	2	1	0	2	0
93	831	0	10000	2	1	0	2	0
98	832	0	10000	2	1	0	2	0
98	833	0	10000	2	1	0	2	0
97	834	0	10000	2	1	0	2	0
101	835	0	10000	2	1	0	2	0
101	836	0	10000	2	1	0	2	0
107	837	0	10000	2	1	0	2	0
115	838	0	10000	2	1	0	2	0
115	839	0	10000	2	1	0	2	0
110	840	0	10000	2	1	0	2	0
110	841	0	10000	2	1	0	2	0
113	842	0	10000	2	1	0	2	0
109	843	0	10000	2	1	0	2	0
111	844	0	10000	2	1	0	2	0
121	845	0	10000	2	1	0	2	0
126	846	0	10000	2	1	0	2	0
124	847	0	10000	2	1	0	2	0
135	848	0	10000	2	1	0	2	0
150	849	0	10000	2	1	0	2	0
149	850	0	10000	2	1	0	2	0
151	851	0	10000	2	1	0	2	0
150	852	0	10000	2	1	0	2	0
147	853	0	10000	2	1	0	2	0
146	854	0	10000	2	1	0	2	0
147	855	0	10000	2	1	0	2	0
145	856	0	10000	2	1	0	2	0
148	857	0	10000	2	1	0	2	0
153	858	0	10000	2	1	0	2	0
150	859	0	10000	2	1	0	2	0
145	860	0	10000	2	1	0	2	0
140	861	0	10000	2	1	0	2	0
137	862	0	10000	2	1	0	2	0
130	863	0	10000	2	1	0	2	0
127	864	0	10000	2	1	0	2	0
123	865	0	10000	2	1	0	2	0
118	866	0	10000	2	1	0	2	0
115	867	0	10000	2	1	0	2	0
111	868	0	10000	2	1	0	2	0
107	869	0	10000	2	1	0	2	0
103	870	0	10000	2	1	0	2	0
105	871	0	10000	2	1	0	2	0
110	872	0	10000	2	1	0	2	0
112	873	0	10000	2	1	0	2	0
108	874	0	10000	2	1	0	2	0
104	875	0	10000	2	1	0	2	0
103	876	0	10000	2	1	0	2	0
102	877	0	10000	2	1	0	2	0
101	878	0	10000	2	1	0	2	0
97	879	0	10000	2	1	0	2	0
94	880	0	10000	2	1	0	2	0
93	881	0	10000	2	1	0	2	0
92	882	0	10000	2	1	0	2	0
86	883	0	10000	2	1	0	2	0
84	884	0	10000	2	1	0	2	0
83	885	0	10000	2	1	0	2	0
81	886	0	10000	2	1	0	2	0
81	887	0	10000	2	1	0	2	0
88	888	0	10000	2	1	0	2	0
94	889	0	10000	2	1	0	2	0
101	890	0	10000	2	1	0	2	0
107	891	0	10000	2	1	0	2	0
117	892	0	10000	2	1	0	2	0
126	893	0	10000	2	1	0	2	0
125	894	0	10000	2	1	0	2	0
121	895	0	10000	2	1	0	2	0
124	896	0	10000	2	1	0	2	0
129	897	0	10000	2	1	0	2	0
130	898	0	10000	2	1	0	2	0
129	899	0	10000	2	1	0	2	0
131	900	0	10000	2	1	0	2	0
131	901	0	10000	2	1	0	2	0
132	902	0	10000	2	1	0	2	0
132	903	0	10000	2	1	0	2	0
132	904	0	10000	2	1	0	2	0
128	905	0	10000	2	1	0	2	0
125	906	0	10000	2	1	0	2	0
122	907	0	10000	2	1	0	2	0
117	908	0	10000	2	1	0	2	0
114	909	0	10000	2	1	0	2	0
111	910	0	10000	2	1	0	2	0
109	911	0	10000	2	1	0	2	0
107	912	0	10000	2	1	0	2	0
105	913	0	10000	2	1	0	2	0
101	914	0	10000	2	1	0	2	0
99	915	0	10000	2	1	0	2	0
98	916	0	10000	2	1	0	2	0
98	917	0	10000	2	1	0	2	0
96	918	0	10000	2	1	0	2	0
92	919	0	10000	2	1	0	2	0
89	920	0	10000	2	1	0	2	0
86	921	0	10000	2	1	0	2	0
80	922	0	10000	2	1	0	2	0
76	923	0	10000	2	1	0	2	0
74	924	0	10000	2	1	0	2	0
72	925	0	10000	2	1	0	2	0
70	926	0	10000	2	1	0	2	0
68	927	0	10000	2	1	0	2	0
66	928	0	10000	2	1	0	2	0
65	929	0	10000	2	1	0	2	0
66	930	0	10000	2	1	0	2	0
66	931	0	10000	2	1	0	2	0
68	932	0	10000	2	1	0	2	0
70	933	0	10000	2	1	0	2	0
70	934	0	10000	2	1	0	2	0
70	935	0	10000	2	1	0	2	0
67	936	0	10000	2	1	0	2	0
64	937	0	10000	2	1	0	2	0
65	938	0	10000	2	1	0	2	0
66	939	0	10000	2	1	0	2	0
69	940	0	10000	2	1	0	2	0
70	941	0	10000	2	1	0	2	0
67	942	0	10000	2	1	0	2	0
63	943	0	10000	2	1	0	2	0
61	944	0	10000	2	1	0	2	0
59	945	0	10000	2	1	0	2	0
58	946	0	10000	2	1	0	2	0
56	947	0	10000	2	1	0	2	0
54	948	0	10000	2	1	0	2	0
52	949	0	10000	2	1	0	2	0
49	950	0	10000	2	1	0	2	0
49	951	0	10000	2	1	0	2	0
49	952	0	10000	2	1	0	2	0
49	953	0	10000	2	1	0	2	0
48	954	0	10000	2	1	0	2	0
47	955	0	10000	2	1	0	2	0
45	956	0	10000	2	1	0	2	0
43	957	0	10000	2	1	0	2	0
41	958	0	10000	2	1	0	2	0
41	959	0	10000	2	1	0	2	0
40	960	0	10000	2	1	0	2	0
39	961	0	10000	2	1	0	2	0
37	962	0	10000	2	1	0	2	0
33	963	0	10000	2	1	0	2	0
34	964	0	10000	2	1	0	2	0
34	965	0	10000	2	1	0	2	0
33	966	0	10000	2	1	0	2	0
32	967	0	10000	2	1	0	2	0
32	968	0	10000	2	1	0	2	0
32	969	0	10000	2	1	0	2	0
32	970	0	10000	2	1	0	2	0
31	971	0	10000	2	1	0	2	0
31	972	0	10000	2	1	0	2	0
32	973	0	10000	2	1	0	2	0
32	974	0	10000	2	1	0	2	0
33	975	0	10000	2	1	0	2	0
34	976	0	10000	2	1	0	2	0
36	977	0	10000	2	1	0	2	0
39	978	0	10000	2	1	0	2	0
41	979	0	10000	2	1	0	2	0
43	980	0	10000	2	1	0	2	0
45	981	0	10000	2	1	0	2	0
44	982	0	10000	2	1	0	2	0
42	983	0	10000	2	1	0	2	0
41	984	0	10000	2	1	0	2	0
41	985	0	10000	2	1	0	2	0
42	986	0	10000	2	1	0	2	0
43	987	0	10000	2	1	0	2	0
41	988	0	10000	2	1	0	2	0
42	989	0	10000	2	1	0	2	0
42	990	0	10000	2	1	0	2	0
43	991	0	10000	2	1	0	2	0
45	992	0	10000	2	1	0	2	0
46	993	0	10000	2	1	0	2	0
44	994	0	10000	2	1	0	2	0
43	995	0	10000	2	1	0	2	0
42	996	0	10000	2	1	0	2	0
43	997	0	10000	2	1	0	2	0
44	998	0	10000	2	1	0	2	0
44	999	0	10000	2	1	0	2	0
45	1000	0	10000	2	1	0	2	0
47	1001	0	10000	2	1	0	2	0
113	1	0	10000	3	1	0	3	0
108	2	0	10000	3	1	0	3	0
108	3	0	10000	3	1	0	3	0
110	4	0	10000	3	1	0	3	0
112	5	0	10000	3	1	0	3	0
108	6	0	10000	3	1	0	3	0
104	7	0	10000	3	1	0	3	0
103	8	0	10000	3	1	0	3	0
103	9	0	10000	3	1	0	3	0
103	10	0	10000	3	1	0	3	0
104	11	0	10000	3	1	0	3	0
108	12	0	10000	3	1	0	3	0
111	13	0	10000	3	1	0	3	0
107	14	0	10000	3	1	0	3	0
107	15	0	10000	3	1	0	3	0
109	16	0	10000	3	1	0	3	0
109	17	0	10000	3	1	0	3	0
105	18	0	10000	3	1	0	3	0
106	19	0	10000	3	1	0	3	0
107	20	0	10000	3	1	0	3	0
110	20	0	10000	3	1	0	3	0
113	21	0	10000	3	1	0	3	0
114	23	0	10000	3	1	0	3	0
114	24	0	10000	3	1	0	3	0
111	25	0	10000	3	1	0	3	0
107	26	0	10000	3	1	0	3	0
105	27	0	10000	3	1	0	3	0
104	28	0	10000	3	1	0	3	0
101	29	0	10000	3	1	0	3	0
96	30	0	10000	3	1	0	3	0
91	30	0	10000	3	1	0	3	0
88	31	0	10000	3	1	0	3	0
85	33	0	10000	3	1	0	3	0
82	34	0	10000	3	1	0	3	0
79	35	0	10000	3	1	0	3	0
76	36	0	10000	3	1	0	3	0
74	37	0	10000	3	1	0	3	0
73	38	0	10000	3	1	0	3	0
74	39	0	10000	3	1	0	3	0
75	40	0	10000	3	1	0	3	0
75	40	0	10000	3	1	0	3	0
73	41	0	10000	3	1	0	3	0
70	43	0	10000	3	1	0	3	0
68	44	0	10000	3	1	0	3	0
66	45	0	10000	3	1	0	3	0
64	46	0	10000	3	1	0	3	0
63	47	0	10000	3	1	0	3	0
62	48	0	10000	3	1	0	3	0
61	49	0	10000	3	1	0	3	0
58	50	0	10000	3	1	0	3	0
58	50	0	10000	3	1	0	3	0
60	51	0	10000	3	1	0	3	0
64	53	0	10000	3	1	0	3	0
63	54	0	10000	3	1	0	3	0
63	55	0	10000	3	1	0	3	0
62	56	0	10000	3	1	0	3	0
59	57	0	10000	3	1	0	3	0
56	58	0	10000	3	1	0	3	0
54	59	0	10000	3	1	0	3	0
56	60	0	10000	3	1	0	3	0
57	60	0	10000	3	1	0	3	0
56	61	0	10000	3	1	0	3	0
56	63	0	10000	3	1	0	3	0
54	64	0	10000	3	1	0	3	0
52	65	0	10000	3	1	0	3	0
52	66	0	10000	3	1	0	3	0
53	67	0	10000	3	1	0	3	0
54	68	0	10000	3	1	0	3	0
55	69	0	10000	3	1	0	3	0
56	70	0	10000	3	1	0	3	0
56	70	0	10000	3	1	0	3	0
55	71	0	10000	3	1	0	3	0
55	73	0	10000	3	1	0	3	0
51	74	0	10000	3	1	0	3	0
51	75	0	10000	3	1	0	3	0
49	76	0	10000	3	1	0	3	0
50	77	0	10000	3	1	0	3	0
51	78	0	10000	3	1	0	3	0
51	79	0	10000	3	1	0	3	0
51	80	0	10000	3	1	0	3	0
52	80	0	10000	3	1	0	3	0
51	81	0	10000	3	1	0	3	0
51	83	0	10000	3	1	0	3	0
50	84	0	10000	3	1	0	3	0
49	85	0	10000	3	1	0	3	0
47	86	0	10000	3	1	0	3	0
46	87	0	10000	3	1	0	3	0
46	88	0	10000	3	1	0	3	0
48	89	0	10000	3	1	0	3	0
49	90	0	10000	3	1	0	3	0
50	90	0	10000	3	1	0	3	0
53	91	0	10000	3	1	0	3	0
54	93	0	10000	3	1	0	3	0
52	94	0	10000	3	1	0	3	0
50	95	0	10000	3	1	0	3	0
48	96	0	10000	3	1	0	3	0
47	97	0	10000	3	1	0	3	0
45	98	0	10000	3	1	0	3	0
43	99	0	10000	3	1	0	3	0
42	100	0	10000	3	1	0	3	0
41	100	0	10000	3	1	0	3	0
40	101	0	10000	3	1	0	3	0
41	103	0	10000	3	1	0	3	0
45	104	0	10000	3	1	0	3	0
47	105	0	10000	3	1	0	3	0
48	106	0	10000	3	1	0	3	0
49	107	0	10000	3	1	0	3	0
48	108	0	10000	3	1	0	3	0
46	109	0	10000	3	1	0	3	0
44	110	0	10000	3	1	0	3	0
42	110	0	10000	3	1	0	3	0
42	111	0	10000	3	1	0	3	0
43	113	0	10000	3	1	0	3	0
43	114	0	10000	3	1	0	3	0
43	115	0	10000	3	1	0	3	0
41	116	0	10000	3	1	0	3	0
40	117	0	10000	3	1	0	3	0
40	118	0	10000	3	1	0	3	0
40	119	0	10000	3	1	0	3	0
40	120	0	10000	3	1	0	3	0
41	120	0	10000	3	1	0	3	0
37	121	0	10000	3	1	0	3	0
35	123	0	10000	3	1	0	3	0
34	124	0	10000	3	1	0	3	0
33	125	0	10000	3	1	0	3	0
32	126	0	10000	3	1	0	3	0
34	127	0	10000	3	1	0	3	0
35	128	0	10000	3	1	0	3	0
33	129	0	10000	3	1	0	3	0
32	130	0	10000	3	1	0	3	0
31	130	0	10000	3	1	0	3	0
32	131	0	10000	3	1	0	3	0
33	133	0	10000	3	1	0	3	0
33	134	0	10000	3	1	0	3	0
31	135	0	10000	3	1	0	3	0
29	136	0	10000	3	1	0	3	0
30	137	0	10000	3	1	0	3	0
30	138	0	10000	3	1	0	3	0
29	139	0	10000	3	1	0	3	0
31	140	0	10000	3	1	0	3	0
32	140	0	10000	3	1	0	3	0
30	141	0	10000	3	1	0	3	0
28	143	0	10000	3	1	0	3	0
28	144	0	10000	3	1	0	3	0
28	145	0	10000	3	1	0	3	0
28	146	0	10000	3	1	0	3	0
29	147	0	10000	3	1	0	3	0
30	148	0	10000	3	1	0	3	0
29	149	0	10000	3	1	0	3	0
28	150	0	10000	3	1	0	3	0
28	150	0	10000	3	1	0	3	0
29	151	0	10000	3	1	0	3	0
29	153	0	10000	3	1	0	3	0
28	154	0	10000	3	1	0	3	0
27	155	0	10000	3	1	0	3	0
27	156	0	10000	3	1	0	3	0
26	157	0	10000	3	1	0	3	0
26	158	0	10000	3	1	0	3	0
27	159	0	10000	3	1	0	3	0
26	160	0	10000	3	1	0	3	0
26	160	0	10000	3	1	0	3	0
24	161	0	10000	3	1	0	3	0
24	163	0	10000	3	1	0	3	0
26	164	0	10000	3	1	0	3	0
27	165	0	10000	3	1	0	3	0
27	166	0	10000	3	1	0	3	0
28	167	0	10000	3	1	0	3	0
27	168	0	10000	3	1	0	3	0
27	169	0	10000	3	1	0	3	0
28	170	0	10000	3	1	0	3	0
28	170	0	10000	3	1	0	3	0
29	171	0	10000	3	1	0	3	0
29	173	0	10000	3	1	0	3	0
27	174	0	10000	3	1	0	3	0
25	175	0	10000	3	1	0	3	0
24	176	0	10000	3	1	0	3	0
24	177	0	10000	3	1	0	3	0
25	178	0	10000	3	1	0	3	0
26	179	0	10000	3	1	0	3	0
25	180	0	10000	3	1	0	3	0
26	180	0	10000	3	1	0	3	0
25	181	0	10000	3	1	0	3	0
25	183	0	10000	3	1	0	3	0
25	184	0	10000	3	1	0	3	0
24	185	0	10000	3	1	0	3	0
24	186	0	10000	3	1	0	3	0
23	187	0	10000	3	1	0	3	0
22	188	0	10000	3	1	0	3	0
22	189	0	10000	3	1	0	3	0
21	190	0	10000	3	1	0	3	0
20	190	0	10000	3	1	0	3	0
22	191	0	10000	3	1	0	3	0
23	193	0	10000	3	1	0	3	0
21	194	0	10000	3	1	0	3	0
21	195	0	10000	3	1	0	3	0
21	196	0	10000	3	1	0	3	0
21	197	0	10000	3	1	0	3	0
21	198	0	10000	3	1	0	3	0
21	199	0	10000	3	1	0	3	0
21	200	0	10000	3	1	0	3	0
23	200	0	10000	3	1	0	3	0
23	201	0	10000	3	1	0	3	0
21	203	0	10000	3	1	0	3	0
21	204	0	10000	3	1	0	3	0
21	205	0	10000	3	1	0	3	0
23	206	0	10000	3	1	0	3	0
22	207	0	10000	3	1	0	3	0
23	208	0	10000	3	1	0	3	0
24	209	0	10000	3	1	0	3	0
24	210	0	10000	3	1	0	3	0
24	210	0	10000	3	1	0	3	0
26	211	0	10000	3	1	0	3	0
27	213	0	10000	3	1	0	3	0
27	214	0	10000	3	1	0	3	0
27	215	0	10000	3	1	0	3	0
25	216	0	10000	3	1	0	3	0
24	217	0	10000	3	1	0	3	0
24	218	0	10000	3	1	0	3	0
23	219	0	10000	3	1	0	3	0
23	220	0	10000	3	1	0	3	0
23	220	0	10000	3	1	0	3	0
20	221	0	10000	3	1	0	3	0
20	223	0	10000	3	1	0	3	0
19	224	0	10000	3	1	0	3	0
18	225	0	10000	3	1	0	3	0
18	226	0	10000	3	1	0	3	0
17	227	0	10000	3	1	0	3	0
16	228	0	10000	3	1	0	3	0
16	229	0	10000	3	1	0	3	0
15	230	0	10000	3	1	0	3	0
14	230	0	10000	3	1	0	3	0
15	231	0	10000	3	1	0	3	0
15	233	0	10000	3	1	0	3	0
15	234	0	10000	3	1	0	3	0
14	235	0	10000	3	1	0	3	0
14	236	0	10000	3	1	0	3	0
14	237	0	10000	3	1	0	3	0
13	238	0	10000	3	1	0	3	0
14	239	0	10000	3	1	0	3	0
15	240	0	10000	3	1	0	3	0
14	240	0	10000	3	1	0	3	0
14	241	0	10000	3	1	0	3	0
15	243	0	10000	3	1	0	3	0
16	244	0	10000	3	1	0	3	0
17	245	0	10000	3	1	0	3	0
18	246	0	10000	3	1	0	3	0
18	247	0	10000	3	1	0	3	0
18	248	0	10000	3	1	0	3	0
20	249	0	10000	3	1	0	3	0
21	250	0	10000	3	1	0	3	0
23	250	0	10000	3	1	0	3	0
25	251	0	10000	3	1	0	3	0
26	253	0	10000	3	1	0	3	0
27	254	0	10000	3	1	0	3	0
28	255	0	10000	3	1	0	3	0
32	256	0	10000	3	1	0	3	0
35	257	0	10000	3	1	0	3	0
34	258	0	10000	3	1	0	3	0
32	259	0	10000	3	1	0	3	0
32	260	0	10000	3	1	0	3	0
33	260	0	10000	3	1	0	3	0
31	261	0	10000	3	1	0	3	0
29	263	0	10000	3	1	0	3	0
28	264	0	10000	3	1	0	3	0
28	265	0	10000	3	1	0	3	0
28	266	0	10000	3	1	0	3	0
30	267	0	10000	3	1	0	3	0
32	268	0	10000	3	1	0	3	0
32	269	0	10000	3	1	0	3	0
31	270	0	10000	3	1	0	3	0
29	270	0	10000	3	1	0	3	0
28	271	0	10000	3	1	0	3	0
30	273	0	10000	3	1	0	3	0
29	274	0	10000	3	1	0	3	0
27	275	0	10000	3	1	0	3	0
27	276	0	10000	3	1	0	3	0
28	277	0	10000	3	1	0	3	0
30	278	0	10000	3	1	0	3	0
35	279	0	10000	3	1	0	3	0
39	280	0	10000	3	1	0	3	0
44	280	0	10000	3	1	0	3	0
46	281	0	10000	3	1	0	3	0
48	283	0	10000	3	1	0	3	0
48	284	0	10000	3	1	0	3	0
49	285	0	10000	3	1	0	3	0
54	286	0	10000	3	1	0	3	0
59	287	0	10000	3	1	0	3	0
65	288	0	10000	3	1	0	3	0
68	289	0	10000	3	1	0	3	0
66	290	0	10000	3	1	0	3	0
64	290	0	10000	3	1	0	3	0
66	291	0	10000	3	1	0	3	0
69	293	0	10000	3	1	0	3	0
73	294	0	10000	3	1	0	3	0
74	295	0	10000	3	1	0	3	0
71	296	0	10000	3	1	0	3	0
69	297	0	10000	3	1	0	3	0
68	298	0	10000	3	1	0	3	0
66	299	0	10000	3	1	0	3	0
67	300	0	10000	3	1	0	3	0
72	300	0	10000	3	1	0	3	0
77	301	0	10000	3	1	0	3	0
80	303	0	10000	3	1	0	3	0
79	304	0	10000	3	1	0	3	0
76	305	0	10000	3	1	0	3	0
74	306	0	10000	3	1	0	3	0
71	307	0	10000	3	1	0	3	0
69	308	0	10000	3	1	0	3	0
68	309	0	10000	3	1	0	3	0
69	310	0	10000	3	1	0	3	0
69	310	0	10000	3	1	0	3	0
69	311	0	10000	3	1	0	3	0
67	313	0	10000	3	1	0	3	0
66	314	0	10000	3	1	0	3	0
64	315	0	10000	3	1	0	3	0
62	316	0	10000	3	1	0	3	0
62	317	0	10000	3	1	0	3	0
59	318	0	10000	3	1	0	3	0
58	319	0	10000	3	1	0	3	0
59	320	0	10000	3	1	0	3	0
59	320	0	10000	3	1	0	3	0
57	321	0	10000	3	1	0	3	0
56	323	0	10000	3	1	0	3	0
54	324	0	10000	3	1	0	3	0
54	325	0	10000	3	1	0	3	0
53	326	0	10000	3	1	0	3	0
52	327	0	10000	3	1	0	3	0
52	328	0	10000	3	1	0	3	0
50	329	0	10000	3	1	0	3	0
49	330	0	10000	3	1	0	3	0
49	330	0	10000	3	1	0	3	0
51	331	0	10000	3	1	0	3	0
52	333	0	10000	3	1	0	3	0
52	334	0	10000	3	1	0	3	0
49	335	0	10000	3	1	0	3	0
48	336	0	10000	3	1	0	3	0
47	337	0	10000	3	1	0	3	0
47	338	0	10000	3	1	0	3	0
47	339	0	10000	3	1	0	3	0
47	340	0	10000	3	1	0	3	0
48	340	0	10000	3	1	0	3	0
48	341	0	10000	3	1	0	3	0
46	343	0	10000	3	1	0	3	0
47	344	0	10000	3	1	0	3	0
45	345	0	10000	3	1	0	3	0
48	346	0	10000	3	1	0	3	0
49	347	0	10000	3	1	0	3	0
49	348	0	10000	3	1	0	3	0
47	349	0	10000	3	1	0	3	0
48	350	0	10000	3	1	0	3	0
50	350	0	10000	3	1	0	3	0
53	351	0	10000	3	1	0	3	0
54	353	0	10000	3	1	0	3	0
53	354	0	10000	3	1	0	3	0
51	355	0	10000	3	1	0	3	0
50	356	0	10000	3	1	0	3	0
51	357	0	10000	3	1	0	3	0
53	358	0	10000	3	1	0	3	0
56	359	0	10000	3	1	0	3	0
56	360	0	10000	3	1	0	3	0
54	360	0	10000	3	1	0	3	0
51	361	0	10000	3	1	0	3	0
49	363	0	10000	3	1	0	3	0
48	364	0	10000	3	1	0	3	0
46	365	0	10000	3	1	0	3	0
44	366	0	10000	3	1	0	3	0
43	367	0	10000	3	1	0	3	0
42	368	0	10000	3	1	0	3	0
40	369	0	10000	3	1	0	3	0
39	370	0	10000	3	1	0	3	0
39	370	0	10000	3	1	0	3	0
40	371	0	10000	3	1	0	3	0
42	373	0	10000	3	1	0	3	0
41	374	0	10000	3	1	0	3	0
41	375	0	10000	3	1	0	3	0
39	376	0	10000	3	1	0	3	0
38	377	0	10000	3	1	0	3	0
37	378	0	10000	3	1	0	3	0
39	379	0	10000	3	1	0	3	0
40	380	0	10000	3	1	0	3	0
40	380	0	10000	3	1	0	3	0
37	381	0	10000	3	1	0	3	0
35	383	0	10000	3	1	0	3	0
34	384	0	10000	3	1	0	3	0
34	385	0	10000	3	1	0	3	0
33	386	0	10000	3	1	0	3	0
34	387	0	10000	3	1	0	3	0
34	388	0	10000	3	1	0	3	0
32	389	0	10000	3	1	0	3	0
32	390	0	10000	3	1	0	3	0
32	390	0	10000	3	1	0	3	0
32	391	0	10000	3	1	0	3	0
35	393	0	10000	3	1	0	3	0
34	394	0	10000	3	1	0	3	0
34	395	0	10000	3	1	0	3	0
34	396	0	10000	3	1	0	3	0
34	397	0	10000	3	1	0	3	0
33	398	0	10000	3	1	0	3	0
32	399	0	10000	3	1	0	3	0
33	400	0	10000	3	1	0	3	0
34	400	0	10000	3	1	0	3	0
32	401	0	10000	3	1	0	3	0
31	403	0	10000	3	1	0	3	0
30	404	0	10000	3	1	0	3	0
31	405	0	10000	3	1	0	3	0
30	406	0	10000	3	1	0	3	0
29	407	0	10000	3	1	0	3	0
28	408	0	10000	3	1	0	3	0
28	409	0	10000	3	1	0	3	0
28	410	0	10000	3	1	0	3	0
25	410	0	10000	3	1	0	3	0
26	411	0	10000	3	1	0	3	0
27	413	0	10000	3	1	0	3	0
28	414	0	10000	3	1	0	3	0
29	415	0	10000	3	1	0	3	0
28	416	0	10000	3	1	0	3	0
27	417	0	10000	3	1	0	3	0
26	418	0	10000	3	1	0	3	0
27	419	0	10000	3	1	0	3	0
26	420	0	10000	3	1	0	3	0
27	420	0	10000	3	1	0	3	0
25	421	0	10000	3	1	0	3	0
24	423	0	10000	3	1	0	3	0
24	424	0	10000	3	1	0	3	0
25	425	0	10000	3	1	0	3	0
24	426	0	10000	3	1	0	3	0
25	427	0	10000	3	1	0	3	0
26	428	0	10000	3	1	0	3	0
26	429	0	10000	3	1	0	3	0
25	430	0	10000	3	1	0	3	0
24	430	0	10000	3	1	0	3	0
27	431	0	10000	3	1	0	3	0
27	433	0	10000	3	1	0	3	0
26	434	0	10000	3	1	0	3	0
26	435	0	10000	3	1	0	3	0
26	436	0	10000	3	1	0	3	0
25	437	0	10000	3	1	0	3	0
24	438	0	10000	3	1	0	3	0
23	439	0	10000	3	1	0	3	0
24	440	0	10000	3	1	0	3	0
26	440	0	10000	3	1	0	3	0
27	441	0	10000	3	1	0	3	0
30	443	0	10000	3	1	0	3	0
31	444	0	10000	3	1	0	3	0
32	445	0	10000	3	1	0	3	0
36	446	0	10000	3	1	0	3	0
36	447	0	10000	3	1	0	3	0
35	448	0	10000	3	1	0	3	0
35	449	0	10000	3	1	0	3	0
34	450	0	10000	3	1	0	3	0
34	450	0	10000	3	1	0	3	0
34	451	0	10000	3	1	0	3	0
34	453	0	10000	3	1	0	3	0
33	454	0	10000	3	1	0	3	0
32	455	0	10000	3	1	0	3	0
30	456	0	10000	3	1	0	3	0
30	457	0	10000	3	1	0	3	0
30	458	0	10000	3	1	0	3	0
30	459	0	10000	3	1	0	3	0
29	460	0	10000	3	1	0	3	0
31	460	0	10000	3	1	0	3	0
28	461	0	10000	3	1	0	3	0
29	463	0	10000	3	1	0	3	0
32	464	0	10000	3	1	0	3	0
32	465	0	10000	3	1	0	3	0
33	466	0	10000	3	1	0	3	0
32	467	0	10000	3	1	0	3	0
32	468	0	10000	3	1	0	3	0
32	469	0	10000	3	1	0	3	0
32	470	0	10000	3	1	0	3	0
31	470	0	10000	3	1	0	3	0
33	471	0	10000	3	1	0	3	0
34	473	0	10000	3	1	0	3	0
33	474	0	10000	3	1	0	3	0
32	475	0	10000	3	1	0	3	0
33	476	0	10000	3	1	0	3	0
34	477	0	10000	3	1	0	3	0
34	478	0	10000	3	1	0	3	0
33	479	0	10000	3	1	0	3	0
32	480	0	10000	3	1	0	3	0
32	480	0	10000	3	1	0	3	0
30	481	0	10000	3	1	0	3	0
30	483	0	10000	3	1	0	3	0
30	484	0	10000	3	1	0	3	0
30	485	0	10000	3	1	0	3	0
32	486	0	10000	3	1	0	3	0
32	487	0	10000	3	1	0	3	0
32	488	0	10000	3	1	0	3	0
32	489	0	10000	3	1	0	3	0
30	490	0	10000	3	1	0	3	0
30	490	0	10000	3	1	0	3	0
32	491	0	10000	3	1	0	3	0
32	493	0	10000	3	1	0	3	0
32	494	0	10000	3	1	0	3	0
33	495	0	10000	3	1	0	3	0
32	496	0	10000	3	1	0	3	0
31	497	0	10000	3	1	0	3	0
30	498	0	10000	3	1	0	3	0
31	499	0	10000	3	1	0	3	0
32	500	0	10000	3	1	0	3	0
32	500	0	10000	3	1	0	3	0
30	501	0	10000	3	1	0	3	0
29	503	0	10000	3	1	0	3	1
29	504	0	10000	3	1	0	3	1
29	505	0	10000	3	1	0	3	1
28	506	0	10000	3	1	0	3	1
27	507	0	10000	3	1	0	3	1
29	508	0	10000	3	1	0	3	1
29	509	0	10000	3	1	0	3	1
28	510	0	10000	3	1	0	3	1
27	510	0	10000	3	1	0	3	1
29	511	0	10000	3	1	0	3	1
27	513	0	10000	3	1	0	3	1
27	514	0	10000	3	1	0	3	1
27	515	0	10000	3	1	0	3	1
26	516	0	10000	3	1	0	3	1
25	517	0	10000	3	1	0	3	1
25	518	0	10000	3	1	0	3	1
26	519	0	10000	3	1	0	3	1
26	520	0	10000	3	1	0	3	1
26	520	0	10000	3	1	0	3	1
23	521	0	10000	3	1	0	3	1
22	523	0	10000	3	1	0	3	1
23	524	0	10000	3	1	0	3	1
24	525	0	10000	3	1	0	3	1
25	526	0	10000	3	1	0	3	1
24	527	0	10000	3	1	0	3	1
25	528	0	10000	3	1	0	3	1
28	529	0	10000	3	1	0	3	1
27	530	0	10000	3	1	0	3	1
27	530	0	10000	3	1	0	3	1
31	531	0	10000	3	1	0	3	1
32	533	0	10000	3	1	0	3	1
31	534	0	10000	3	1	0	3	1
31	535	0	10000	3	1	0	3	1
30	536	0	10000	3	1	0	3	1
30	537	0	10000	3	1	0	3	1
29	538	0	10000	3	1	0	3	1
30	539	0	10000	3	1	0	3	1
30	540	0	10000	3	1	0	3	1
32	540	0	10000	3	1	0	3	1
31	541	0	10000	3	1	0	3	1
30	543	0	10000	3	1	0	3	1
29	544	0	10000	3	1	0	3	1
29	545	0	10000	3	1	0	3	1
29	546	0	10000	3	1	0	3	1
27	547	0	10000	3	1	0	3	1
26	548	0	10000	3	1	0	3	1
26	549	0	10000	3	1	0	3	1
24	550	0	10000	3	1	0	3	1
23	550	0	10000	3	1	0	3	1
23	551	0	10000	3	1	0	3	1
24	553	0	10000	3	1	0	3	0
25	554	0	10000	3	1	0	3	0
28	555	0	10000	3	1	0	3	0
31	556	0	10000	3	1	0	3	0
32	557	0	10000	3	1	0	3	0
31	558	0	10000	3	1	0	3	0
31	559	0	10000	3	1	0	3	0
32	560	0	10000	3	1	0	3	0
32	560	0	10000	3	1	0	3	0
30	561	0	10000	3	1	0	3	0
30	563	0	10000	3	1	0	3	0
28	564	0	10000	3	1	0	3	0
27	565	0	10000	3	1	0	3	0
27	566	0	10000	3	1	0	3	0
26	567	0	10000	3	1	0	3	0
28	568	0	10000	3	1	0	3	0
27	569	0	10000	3	1	0	3	0
25	570	0	10000	3	1	0	3	0
25	570	0	10000	3	1	0	3	0
26	571	0	10000	3	1	0	3	0
25	573	0	10000	3	1	0	3	0
26	574	0	10000	3	1	0	3	0
28	575	0	10000	3	1	0	3	0
28	576	0	10000	3	1	0	3	0
28	577	0	10000	3	1	0	3	0
26	578	0	10000	3	1	0	3	0
25	579	0	10000	3	1	0	3	0
27	580	0	10000	3	1	0	3	0
28	580	0	10000	3	1	0	3	0
28	581	0	10000	3	1	0	3	0
27	583	0	10000	3	1	0	3	0
26	584	0	10000	3	1	0	3	0
28	585	0	10000	3	1	0	3	0
32	586	0	10000	3	1	0	3	0
34	587	0	10000	3	1	0	3	0
37	588	0	10000	3	1	0	3	0
42	589	0	10000	3	1	0	3	0
49	590	0	10000	3	1	0	3	0
59	590	0	10000	3	1	0	3	0
62	591	0	10000	3	1	0	3	0
61	593	0	10000	3	1	0	3	0
64	594	0	10000	3	1	0	3	0
80	595	0	10000	3	1	0	3	0
89	596	0	10000	3	1	0	3	0
91	597	0	10000	3	1	0	3	0
94	598	0	10000	3	1	0	3	0
115	599	0	10000	3	1	0	3	0
123	600	0	10000	3	1	0	3	0
133	600	0	10000	3	1	0	3	0
164	601	0	10000	3	1	0	3	0
181	603	0	10000	3	1	0	3	0
197	604	0	10000	3	1	0	3	0
201	605	0	10000	3	1	0	3	0
204	606	0	10000	3	1	0	3	0
209	607	0	10000	3	1	0	3	0
208	608	0	10000	3	1	0	3	0
235	609	0	10000	3	1	0	3	0
289	610	0	10000	3	1	0	3	0
330	610	0	10000	3	1	0	3	0
331	611	0	10000	3	1	0	3	0
360	613	0	10000	3	1	0	3	0
368	614	0	10000	3	1	0	3	0
361	615	0	10000	3	1	0	3	0
369	616	0	10000	3	1	0	3	0
365	617	0	10000	3	1	0	3	0
386	618	0	10000	3	1	0	3	0
401	619	0	10000	3	1	0	3	0
392	620	0	10000	3	1	0	3	0
409	620	0	10000	3	1	0	3	0
439	621	0	10000	3	1	0	3	0
462	623	0	10000	3	1	0	3	0
458	624	0	10000	3	1	0	3	0
439	625	0	10000	3	1	0	3	0
428	626	0	10000	3	1	0	3	0
419	627	0	10000	3	1	0	3	0
411	628	0	10000	3	1	0	3	0
402	629	0	10000	3	1	0	3	0
394	630	0	10000	3	1	0	3	0
388	630	0	10000	3	1	0	3	0
384	631	0	10000	3	1	0	3	0
379	633	0	10000	3	1	0	3	0
371	634	0	10000	3	1	0	3	0
364	635	0	10000	3	1	0	3	0
355	636	0	10000	3	1	0	3	0
344	637	0	10000	3	1	0	3	0
333	638	0	10000	3	1	0	3	0
321	639	0	10000	3	1	0	3	0
310	640	0	10000	3	1	0	3	0
298	640	0	10000	3	1	0	3	0
283	641	0	10000	3	1	0	3	0
271	643	0	10000	3	1	0	3	0
263	644	0	10000	3	1	0	3	0
256	645	0	10000	3	1	0	3	0
245	646	0	10000	3	1	0	3	0
235	647	0	10000	3	1	0	3	0
227	648	0	10000	3	1	0	3	0
224	649	0	10000	3	1	0	3	0
226	650	0	10000	3	1	0	3	0
226	650	0	10000	3	1	0	3	0
223	651	0	10000	3	1	0	3	0
213	653	0	10000	3	1	0	3	0
205	654	0	10000	3	1	0	3	0
201	655	0	10000	3	1	0	3	0
197	656	0	10000	3	1	0	3	0
192	657	0	10000	3	1	0	3	0
186	658	0	10000	3	1	0	3	0
183	659	0	10000	3	1	0	3	0
184	660	0	10000	3	1	0	3	0
187	660	0	10000	3	1	0	3	0
186	661	0	10000	3	1	0	3	0
184	663	0	10000	3	1	0	3	0
181	664	0	10000	3	1	0	3	0
179	665	0	10000	3	1	0	3	0
178	666	0	10000	3	1	0	3	0
176	667	0	10000	3	1	0	3	0
177	668	0	10000	3	1	0	3	0
176	669	0	10000	3	1	0	3	0
175	670	0	10000	3	1	0	3	0
172	670	0	10000	3	1	0	3	0
171	671	0	10000	3	1	0	3	0
169	673	0	10000	3	1	0	3	0
168	674	0	10000	3	1	0	3	0
167	675	0	10000	3	1	0	3	0
164	676	0	10000	3	1	0	3	0
162	677	0	10000	3	1	0	3	0
159	678	0	10000	3	1	0	3	0
157	679	0	10000	3	1	0	3	0
155	680	0	10000	3	1	0	3	0
153	680	0	10000	3	1	0	3	0
150	681	0	10000	3	1	0	3	0
145	683	0	10000	3	1	0	3	0
139	684	0	10000	3	1	0	3	0
132	685	0	10000	3	1	0	3	0
127	686	0	10000	3	1	0	3	0
122	687	0	10000	3	1	0	3	0
118	688	0	10000	3	1	0	3	0
113	689	0	10000	3	1	0	3	0
108	690	0	10000	3	1	0	3	0
103	690	0	10000	3	1	0	3	0
100	691	0	10000	3	1	0	3	0
96	693	0	10000	3	1	0	3	0
92	694	0	10000	3	1	0	3	0
89	695	0	10000	3	1	0	3	0
87	696	0	10000	3	1	0	3	0
85	697	0	10000	3	1	0	3	0
82	698	0	10000	3	1	0	3	0
81	699	0	10000	3	1	0	3	0
78	700	0	10000	3	1	0	3	0
75	700	0	10000	3	1	0	3	0
71	701	0	10000	3	1	0	3	0
69	703	0	10000	3	1	0	3	0
68	704	0	10000	3	1	0	3	0
68	705	0	10000	3	1	0	3	0
67	706	0	10000	3	1	0	3	0
66	707	0	10000	3	1	0	3	0
66	708	0	10000	3	1	0	3	0
66	709	0	10000	3	1	0	3	0
66	710	0	10000	3	1	0	3	0
65	710	0	10000	3	1	0	3	0
67	711	0	10000	3	1	0	3	0
66	713	0	10000	3	1	0	3	0
63	714	0	10000	3	1	0	3	0
62	715	0	10000	3	1	0	3	0
61	716	0	10000	3	1	0	3	0
59	717	0	10000	3	1	0	3	0
56	718	0	10000	3	1	0	3	0
56	719	0	10000	3	1	0	3	0
56	720	0	10000	3	1	0	3	0
57	720	0	10000	3	1	0	3	0
56	721	0	10000	3	1	0	3	0
55	723	0	10000	3	1	0	3	0
55	724	0	10000	3	1	0	3	0
56	725	0	10000	3	1	0	3	0
56	726	0	10000	3	1	0	3	0
57	727	0	10000	3	1	0	3	0
58	728	0	10000	3	1	0	3	0
57	729	0	10000	3	1	0	3	0
58	730	0	10000	3	1	0	3	0
57	730	0	10000	3	1	0	3	0
58	731	0	10000	3	1	0	3	0
56	733	0	10000	3	1	0	3	0
53	734	0	10000	3	1	0	3	0
50	735	0	10000	3	1	0	3	0
50	736	0	10000	3	1	0	3	0
49	737	0	10000	3	1	0	3	0
49	738	0	10000	3	1	0	3	0
50	739	0	10000	3	1	0	3	0
52	740	0	10000	3	1	0	3	0
52	740	0	10000	3	1	0	3	0
50	741	0	10000	3	1	0	3	0
50	743	0	10000	3	1	0	3	0
49	744	0	10000	3	1	0	3	0
47	745	0	10000	3	1	0	3	0
46	746	0	10000	3	1	0	3	0
46	747	0	10000	3	1	0	3	0
44	748	0	10000	3	1	0	3	0
43	749	0	10000	3	1	0	3	0
42	750	0	10000	3	1	0	3	0
41	750	0	10000	3	1	0	3	0
43	751	0	10000	3	1	0	3	0
41	753	0	10000	3	1	0	3	0
39	754	0	10000	3	1	0	3	0
37	755	0	10000	3	1	0	3	0
37	756	0	10000	3	1	0	3	0
36	757	0	10000	3	1	0	3	0
36	758	0	10000	3	1	0	3	0
38	759	0	10000	3	1	0	3	0
39	760	0	10000	3	1	0	3	0
39	760	0	10000	3	1	0	3	0
35	761	0	10000	3	1	0	3	0
33	763	0	10000	3	1	0	3	0
35	764	0	10000	3	1	0	3	0
35	765	0	10000	3	1	0	3	0
37	766	0	10000	3	1	0	3	0
37	767	0	10000	3	1	0	3	0
37	768	0	10000	3	1	0	3	0
36	769	0	10000	3	1	0	3	0
34	770	0	10000	3	1	0	3	0
33	770	0	10000	3	1	0	3	0
34	771	0	10000	3	1	0	3	0
35	773	0	10000	3	1	0	3	0
33	774	0	10000	3	1	0	3	0
32	775	0	10000	3	1	0	3	0
31	776	0	10000	3	1	0	3	0
31	777	0	10000	3	1	0	3	0
30	778	0	10000	3	1	0	3	0
29	779	0	10000	3	1	0	3	0
29	780	0	10000	3	1	0	3	0
29	780	0	10000	3	1	0	3	0
27	781	0	10000	3	1	0	3	0
28	783	0	10000	3	1	0	3	0
27	784	0	10000	3	1	0	3	0
27	785	0	10000	3	1	0	3	0
27	786	0	10000	3	1	0	3	0
28	787	0	10000	3	1	0	3	0
30	788	0	10000	3	1	0	3	0
30	789	0	10000	3	1	0	3	0
29	790	0	10000	3	1	0	3	0
27	790	0	10000	3	1	0	3	0
28	791	0	10000	3	1	0	3	0
28	793	0	10000	3	1	0	3	0
27	794	0	10000	3	1	0	3	0
27	795	0	10000	3	1	0	3	0
26	796	0	10000	3	1	0	3	0
26	797	0	10000	3	1	0	3	0
26	798	0	10000	3	1	0	3	0
25	799	0	10000	3	1	0	3	0
26	800	0	10000	3	1	0	3	0
27	800	0	10000	3	1	0	3	0
26	801	0	10000	3	1	0	3	0
25	803	0	10000	3	1	0	3	0
25	804	0	10000	3	1	0	3	0
25	805	0	10000	3	1	0	3	0
25	806	0	10000	3	1	0	3	0
28	807	0	10000	3	1	0	3	0
30	808	0	10000	3	1	0	3	0
29	809	0	10000	3	1	0	3	0
30	810	0	10000	3	1	0	3	0
32	810	0	10000	3	1	0	3	0
37	811	0	10000	3	1	0	3	0
43	813	0	10000	3	1	0	3	0
49	814	0	10000	3	1	0	3	0
51	815	0	10000	3	1	0	3	0
49	816	0	10000	3	1	0	3	0
48	817	0	10000	3	1	0	3	0
50	818	0	10000	3	1	0	3	0
53	819	0	10000	3	1	0	3	0
57	820	0	10000	3	1	0	3	0
59	820	0	10000	3	1	0	3	0
56	821	0	10000	3	1	0	3	0
55	823	0	10000	3	1	0	3	0
54	824	0	10000	3	1	0	3	0
52	825	0	10000	3	1	0	3	0
50	826	0	10000	3	1	0	3	0
48	827	0	10000	3	1	0	3	0
47	828	0	10000	3	1	0	3	0
47	829	0	10000	3	1	0	3	0
47	830	0	10000	3	1	0	3	0
48	830	0	10000	3	1	0	3	0
51	831	0	10000	3	1	0	3	0
49	833	0	10000	3	1	0	3	0
47	834	0	10000	3	1	0	3	0
46	835	0	10000	3	1	0	3	0
45	836	0	10000	3	1	0	3	0
45	837	0	10000	3	1	0	3	0
44	838	0	10000	3	1	0	3	0
43	839	0	10000	3	1	0	3	0
42	840	0	10000	3	1	0	3	0
43	840	0	10000	3	1	0	3	0
43	841	0	10000	3	1	0	3	0
42	843	0	10000	3	1	0	3	0
43	844	0	10000	3	1	0	3	0
44	845	0	10000	3	1	0	3	0
44	846	0	10000	3	1	0	3	0
45	847	0	10000	3	1	0	3	0
46	848	0	10000	3	1	0	3	0
45	849	0	10000	3	1	0	3	0
43	850	0	10000	3	1	0	3	0
42	850	0	10000	3	1	0	3	0
44	851	0	10000	3	1	0	3	0
42	853	0	10000	3	1	0	3	0
42	854	0	10000	3	1	0	3	0
44	855	0	10000	3	1	0	3	0
44	856	0	10000	3	1	0	3	0
46	857	0	10000	3	1	0	3	0
46	858	0	10000	3	1	0	3	0
46	859	0	10000	3	1	0	3	0
45	860	0	10000	3	1	0	3	0
47	860	0	10000	3	1	0	3	0
46	861	0	10000	3	1	0	3	0
49	863	0	10000	3	1	0	3	0
49	864	0	10000	3	1	0	3	0
50	865	0	10000	3	1	0	3	0
51	866	0	10000	3	1	0	3	0
50	867	0	10000	3	1	0	3	0
48	868	0	10000	3	1	0	3	0
48	869	0	10000	3	1	0	3	0
47	870	0	10000	3	1	0	3	0
45	870	0	10000	3	1	0	3	0
46	871	0	10000	3	1	0	3	0
47	873	0	10000	3	1	0	3	0
46	874	0	10000	3	1	0	3	0
44	875	0	10000	3	1	0	3	0
44	876	0	10000	3	1	0	3	0
42	877	0	10000	3	1	0	3	0
40	878	0	10000	3	1	0	3	0
40	879	0	10000	3	1	0	3	0
40	880	0	10000	3	1	0	3	0
38	880	0	10000	3	1	0	3	0
36	881	0	10000	3	1	0	3	0
36	883	0	10000	3	1	0	3	0
39	884	0	10000	3	1	0	3	0
39	885	0	10000	3	1	0	3	0
39	886	0	10000	3	1	0	3	0
38	887	0	10000	3	1	0	3	0
40	888	0	10000	3	1	0	3	0
43	889	0	10000	3	1	0	3	0
43	890	0	10000	3	1	0	3	0
43	890	0	10000	3	1	0	3	0
45	891	0	10000	3	1	0	3	0
44	893	0	10000	3	1	0	3	0
43	894	0	10000	3	1	0	3	0
41	895	0	10000	3	1	0	3	0
40	896	0	10000	3	1	0	3	0
39	897	0	10000	3	1	0	3	0
36	898	0	10000	3	1	0	3	0
37	899	0	10000	3	1	0	3	0
38	900	0	10000	3	1	0	3	0
38	900	0	10000	3	1	0	3	0
36	901	0	10000	3	1	0	3	0
38	903	0	10000	3	1	0	3	0
39	904	0	10000	3	1	0	3	0
41	905	0	10000	3	1	0	3	0
42	906	0	10000	3	1	0	3	0
41	907	0	10000	3	1	0	3	0
40	908	0	10000	3	1	0	3	0
38	909	0	10000	3	1	0	3	0
36	910	0	10000	3	1	0	3	0
34	910	0	10000	3	1	0	3	0
35	911	0	10000	3	1	0	3	0
34	913	0	10000	3	1	0	3	0
34	914	0	10000	3	1	0	3	0
33	915	0	10000	3	1	0	3	0
35	916	0	10000	3	1	0	3	0
37	917	0	10000	3	1	0	3	0
37	918	0	10000	3	1	0	3	0
37	919	0	10000	3	1	0	3	0
36	920	0	10000	3	1	0	3	0
36	920	0	10000	3	1	0	3	0
35	921	0	10000	3	1	0	3	0
36	923	0	10000	3	1	0	3	0
35	924	0	10000	3	1	0	3	0
36	925	0	10000	3	1	0	3	0
37	926	0	10000	3	1	0	3	0
40	927	0	10000	3	1	0	3	0
42	928	0	10000	3	1	0	3	0
43	929	0	10000	3	1	0	3	0
42	930	0	10000	3	1	0	3	0
41	930	0	10000	3	1	0	3	0
41	931	0	10000	3	1	0	3	0
41	933	0	10000	3	1	0	3	0
40	934	0	10000	3	1	0	3	0
40	935	0	10000	3	1	0	3	0
40	936	0	10000	3	1	0	3	0
40	937	0	10000	3	1	0	3	0
39	938	0	10000	3	1	0	3	0
40	939	0	10000	3	1	0	3	0
38	940	0	10000	3	1	0	3	0
37	940	0	10000	3	1	0	3	0
34	941	0	10000	3	1	0	3	0
34	943	0	10000	3	1	0	3	0
35	944	0	10000	3	1	0	3	0
38	945	0	10000	3	1	0	3	0
36	946	0	10000	3	1	0	3	0
35	947	0	10000	3	1	0	3	0
36	948	0	10000	3	1	0	3	0
33	949	0	10000	3	1	0	3	0
32	950	0	10000	3	1	0	3	0
33	950	0	10000	3	1	0	3	0
38	951	0	10000	3	1	0	3	0
37	953	0	10000	3	1	0	3	0
38	954	0	10000	3	1	0	3	0
40	955	0	10000	3	1	0	3	0
44	956	0	10000	3	1	0	3	0
46	957	0	10000	3	1	0	3	0
44	958	0	10000	3	1	0	3	0
43	959	0	10000	3	1	0	3	0
41	960	0	10000	3	1	0	3	0
41	960	0	10000	3	1	0	3	0
38	961	0	10000	3	1	0	3	0
37	963	0	10000	3	1	0	3	0
36	964	0	10000	3	1	0	3	0
36	965	0	10000	3	1	0	3	0
34	966	0	10000	3	1	0	3	0
33	967	0	10000	3	1	0	3	0
32	968	0	10000	3	1	0	3	0
31	969	0	10000	3	1	0	3	0
29	970	0	10000	3	1	0	3	0
28	970	0	10000	3	1	0	3	0
30	971	0	10000	3	1	0	3	0
31	973	0	10000	3	1	0	3	0
31	974	0	10000	3	1	0	3	0
31	975	0	10000	3	1	0	3	0
30	976	0	10000	3	1	0	3	0
31	977	0	10000	3	1	0	3	0
33	978	0	10000	3	1	0	3	0
39	979	0	10000	3	1	0	3	0
40	980	0	10000	3	1	0	3	0
40	980	0	10000	3	1	0	3	0
38	981	0	10000	3	1	0	3	0
36	983	0	10000	3	1	0	3	0
35	984	0	10000	3	1	0	3	0
34	985	0	10000	3	1	0	3	0
33	986	0	10000	3	1	0	3	0
32	987	0	10000	3	1	0	3	0
32	988	0	10000	3	1	0	3	0
31	989	0	10000	3	1	0	3	0
30	990	0	10000	3	1	0	3	0
31	990	0	10000	3	1	0	3	0
33	991	0	10000	3	1	0	3	0
33	993	0	10000	3	1	0	3	0
32	994	0	10000	3	1	0	3	0
33	995	0	10000	3	1	0	3	0
33	996	0	10000	3	1	0	3	0
31	997	0	10000	3	1	0	3	0
29	998	0	10000	3	1	0	3	0
29	999	0	10000	3	1	0	3	0
28	1000	0	10000	3	1	0	3	0
28	1000	0	10000	3	1	0	3	0
25	1001	0	10000	3	1	0	3	0
22	2	1	10000	4	1	0	4	0
21	3	1	10000	4	1	0	4	0
21	4	1	10000	4	1	0	4	0
22	5	1	10000	4	1	0	4	0
23	6	1	10000	4	1	0	4	0
23	7	1	10000	4	1	0	4	0
23	8	1	10000	4	1	0	4	0
22	9	1	10000	4	1	0	4	0
21	10	1	10000	4	1	0	4	0
21	11	1	10000	4	1	0	4	0
22	12	1	10000	4	1	0	4	0
22	13	1	10000	4	1	0	4	0
21	14	1	10000	4	1	0	4	0
21	15	1	10000	4	1	0	4	0
21	16	1	10000	4	1	0	4	0
22	17	1	10000	4	1	0	4	0
23	18	1	10000	4	1	0	4	0
21	19	1	10000	4	1	0	4	0
23	20	1	10000	4	1	0	4	0
22	21	1	10000	4	1	0	4	0
22	22	1	10000	4	1	0	4	0
22	23	1	10000	4	1	0	4	0
23	24	1	10000	4	1	0	4	0
23	25	1	10000	4	1	0	4	0
22	26	1	10000	4	1	0	4	0
23	27	1	10000	4	1	0	4	0
24	28	1	10000	4	1	0	4	0
24	29	1	10000	4	1	0	4	0
21	30	1	10000	4	1	0	4	0
22	31	1	10000	4	1	0	4	0
23	32	1	10000	4	1	0	4	0
24	33	1	10000	4	1	0	4	0
23	34	1	10000	4	1	0	4	0
24	35	1	10000	4	1	0	4	0
24	36	1	10000	4	1	0	4	0
24	37	1	10000	4	1	0	4	0
23	38	1	10000	4	1	0	4	0
22	39	1	10000	4	1	0	4	0
23	40	1	10000	4	1	0	4	0
23	41	1	10000	4	1	0	4	0
22	42	1	10000	4	1	0	4	0
23	43	1	10000	4	1	0	4	0
26	44	1	10000	4	1	0	4	0
26	45	1	10000	4	1	0	4	0
25	46	1	10000	4	1	0	4	0
26	47	1	10000	4	1	0	4	0
26	48	1	10000	4	1	0	4	0
25	49	1	10000	4	1	0	4	0
23	50	1	10000	4	1	0	4	0
22	51	1	10000	4	1	0	4	0
23	52	1	10000	4	1	0	4	0
23	53	1	10000	4	1	0	4	0
23	54	1	10000	4	1	0	4	0
24	55	1	10000	4	1	0	4	0
23	56	1	10000	4	1	0	4	0
24	57	1	10000	4	1	0	4	0
24	58	1	10000	4	1	0	4	0
23	59	1	10000	4	1	0	4	0
24	60	1	10000	4	1	0	4	0
23	61	1	10000	4	1	0	4	0
23	62	1	10000	4	1	0	4	0
22	63	1	10000	4	1	0	4	0
22	64	1	10000	4	1	0	4	0
22	65	1	10000	4	1	0	4	0
23	66	1	10000	4	1	0	4	0
24	67	1	10000	4	1	0	4	0
23	68	1	10000	4	1	0	4	0
24	69	1	10000	4	1	0	4	0
22	70	1	10000	4	1	0	4	0
22	71	1	10000	4	1	0	4	0
22	72	1	10000	4	1	0	4	0
22	73	1	10000	4	1	0	4	0
21	74	1	10000	4	1	0	4	0
21	75	1	10000	4	1	0	4	0
21	76	1	10000	4	1	0	4	0
20	77	1	10000	4	1	0	4	0
20	78	1	10000	4	1	0	4	0
20	79	1	10000	4	1	0	4	0
21	80	1	10000	4	1	0	4	0
21	81	1	10000	4	1	0	4	0
21	82	1	10000	4	1	0	4	0
21	83	1	10000	4	1	0	4	0
21	84	1	10000	4	1	0	4	0
20	85	1	10000	4	1	0	4	0
20	86	1	10000	4	1	0	4	0
22	87	1	10000	4	1	0	4	0
23	88	1	10000	4	1	0	4	0
24	89	1	10000	4	1	0	4	0
22	90	1	10000	4	1	0	4	0
23	91	1	10000	4	1	0	4	0
23	92	1	10000	4	1	0	4	0
23	93	1	10000	4	1	0	4	0
24	94	1	10000	4	1	0	4	0
25	95	1	10000	4	1	0	4	0
23	96	1	10000	4	1	0	4	0
22	97	1	10000	4	1	0	4	0
21	98	1	10000	4	1	0	4	0
20	99	1	10000	4	1	0	4	0
22	100	1	10000	4	1	0	4	0
21	101	1	10000	4	1	0	4	0
20	102	1	10000	4	1	0	4	0
20	103	1	10000	4	1	0	4	0
19	104	1	10000	4	1	0	4	0
19	105	1	10000	4	1	0	4	0
19	106	1	10000	4	1	0	4	0
18	107	1	10000	4	1	0	4	0
19	108	1	10000	4	1	0	4	0
20	109	1	10000	4	1	0	4	0
18	110	1	10000	4	1	0	4	0
18	111	1	10000	4	1	0	4	0
18	112	1	10000	4	1	0	4	0
18	113	1	10000	4	1	0	4	0
19	114	1	10000	4	1	0	4	0
19	115	1	10000	4	1	0	4	0
19	116	1	10000	4	1	0	4	0
19	117	1	10000	4	1	0	4	0
18	118	1	10000	4	1	0	4	0
17	119	1	10000	4	1	0	4	0
18	120	1	10000	4	1	0	4	0
18	121	1	10000	4	1	0	4	0
18	122	1	10000	4	1	0	4	0
17	123	1	10000	4	1	0	4	0
17	124	1	10000	4	1	0	4	0
16	125	1	10000	4	1	0	4	0
17	126	1	10000	4	1	0	4	0
18	127	1	10000	4	1	0	4	0
18	128	1	10000	4	1	0	4	0
19	129	1	10000	4	1	0	4	0
16	130	1	10000	4	1	0	4	0
16	131	1	10000	4	1	0	4	0
17	132	1	10000	4	1	0	4	0
16	133	1	10000	4	1	0	4	0
18	134	1	10000	4	1	0	4	0
18	135	1	10000	4	1	0	4	0
18	136	1	10000	4	1	0	4	0
17	137	1	10000	4	1	0	4	0
16	138	1	10000	4	1	0	4	0
15	139	1	10000	4	1	0	4	0
18	140	1	10000	4	1	0	4	0
16	141	1	10000	4	1	0	4	0
16	142	1	10000	4	1	0	4	0
16	143	1	10000	4	1	0	4	0
16	144	1	10000	4	1	0	4	0
16	145	1	10000	4	1	0	4	0
16	146	1	10000	4	1	0	4	0
17	147	1	10000	4	1	0	4	0
17	148	1	10000	4	1	0	4	0
17	149	1	10000	4	1	0	4	0
14	150	1	10000	4	1	0	4	0
14	151	1	10000	4	1	0	4	0
14	152	1	10000	4	1	0	4	0
14	153	1	10000	4	1	0	4	0
16	154	1	10000	4	1	0	4	0
20	155	1	10000	4	1	0	4	0
23	156	1	10000	4	1	0	4	0
27	157	1	10000	4	1	0	4	0
30	158	1	10000	4	1	0	4	0
32	159	1	10000	4	1	0	4	0
37	160	1	10000	4	1	0	4	0
39	161	1	10000	4	1	0	4	0
41	162	1	10000	4	1	0	4	0
39	163	1	10000	4	1	0	4	0
38	164	1	10000	4	1	0	4	0
38	165	1	10000	4	1	0	4	0
38	166	1	10000	4	1	0	4	0
36	167	1	10000	4	1	0	4	0
38	168	1	10000	4	1	0	4	0
44	169	1	10000	4	1	0	4	0
50	170	1	10000	4	1	0	4	0
57	171	1	10000	4	1	0	4	0
62	172	1	10000	4	1	0	4	0
63	173	1	10000	4	1	0	4	0
66	174	1	10000	4	1	0	4	0
65	175	1	10000	4	1	0	4	0
66	176	1	10000	4	1	0	4	0
68	177	1	10000	4	1	0	4	0
69	178	1	10000	4	1	0	4	0
70	179	1	10000	4	1	0	4	0
74	180	1	10000	4	1	0	4	0
77	181	1	10000	4	1	0	4	0
80	182	1	10000	4	1	0	4	0
80	183	1	10000	4	1	0	4	0
80	184	1	10000	4	1	0	4	0
80	185	1	10000	4	1	0	4	0
79	186	1	10000	4	1	0	4	0
79	187	1	10000	4	1	0	4	0
77	188	1	10000	4	1	0	4	0
76	189	1	10000	4	1	0	4	0
71	190	1	10000	4	1	0	4	0
69	191	1	10000	4	1	0	4	0
66	192	1	10000	4	1	0	4	0
64	193	1	10000	4	1	0	4	0
62	194	1	10000	4	1	0	4	0
59	195	1	10000	4	1	0	4	0
57	196	1	10000	4	1	0	4	0
55	197	1	10000	4	1	0	4	0
53	198	1	10000	4	1	0	4	0
52	199	1	10000	4	1	0	4	0
52	200	1	10000	4	1	0	4	0
49	201	1	10000	4	1	0	4	0
49	202	1	10000	4	1	0	4	0
49	203	1	10000	4	1	0	4	0
51	204	1	10000	4	1	0	4	0
54	205	1	10000	4	1	0	4	0
57	206	1	10000	4	1	0	4	0
59	207	1	10000	4	1	0	4	0
60	208	1	10000	4	1	0	4	0
60	209	1	10000	4	1	0	4	0
61	210	1	10000	4	1	0	4	0
65	211	1	10000	4	1	0	4	0
66	212	1	10000	4	1	0	4	0
69	213	1	10000	4	1	0	4	0
70	214	1	10000	4	1	0	4	0
71	215	1	10000	4	1	0	4	0
72	216	1	10000	4	1	0	4	0
72	217	1	10000	4	1	0	4	0
74	218	1	10000	4	1	0	4	0
76	219	1	10000	4	1	0	4	0
80	220	1	10000	4	1	0	4	0
81	221	1	10000	4	1	0	4	0
80	222	1	10000	4	1	0	4	0
77	223	1	10000	4	1	0	4	0
74	224	1	10000	4	1	0	4	0
73	225	1	10000	4	1	0	4	0
74	226	1	10000	4	1	0	4	0
77	227	1	10000	4	1	0	4	0
81	228	1	10000	4	1	0	4	0
82	229	1	10000	4	1	0	4	0
81	230	1	10000	4	1	0	4	0
82	231	1	10000	4	1	0	4	0
80	232	1	10000	4	1	0	4	0
77	233	1	10000	4	1	0	4	0
75	234	1	10000	4	1	0	4	0
73	235	1	10000	4	1	0	4	0
72	236	1	10000	4	1	0	4	0
70	237	1	10000	4	1	0	4	0
67	238	1	10000	4	1	0	4	0
65	239	1	10000	4	1	0	4	0
66	240	1	10000	4	1	0	4	0
65	241	1	10000	4	1	0	4	0
64	242	1	10000	4	1	0	4	0
62	243	1	10000	4	1	0	4	0
61	244	1	10000	4	1	0	4	0
61	245	1	10000	4	1	0	4	0
60	246	1	10000	4	1	0	4	0
60	247	1	10000	4	1	0	4	0
61	248	1	10000	4	1	0	4	0
61	249	1	10000	4	1	0	4	0
58	250	1	10000	4	1	0	4	0
58	251	1	10000	4	1	0	4	0
56	252	1	10000	4	1	0	4	0
56	253	1	10000	4	1	0	4	0
55	254	1	10000	4	1	0	4	0
54	255	1	10000	4	1	0	4	0
53	256	1	10000	4	1	0	4	0
52	257	1	10000	4	1	0	4	0
50	258	1	10000	4	1	0	4	0
49	259	1	10000	4	1	0	4	0
49	260	1	10000	4	1	0	4	0
49	261	1	10000	4	1	0	4	0
47	262	1	10000	4	1	0	4	0
44	263	1	10000	4	1	0	4	0
43	264	1	10000	4	1	0	4	0
42	265	1	10000	4	1	0	4	0
40	266	1	10000	4	1	0	4	0
40	267	1	10000	4	1	0	4	0
41	268	1	10000	4	1	0	4	0
41	269	1	10000	4	1	0	4	0
38	270	1	10000	4	1	0	4	0
38	271	1	10000	4	1	0	4	0
38	272	1	10000	4	1	0	4	0
38	273	1	10000	4	1	0	4	0
37	274	1	10000	4	1	0	4	0
36	275	1	10000	4	1	0	4	0
34	276	1	10000	4	1	0	4	0
32	277	1	10000	4	1	0	4	0
31	278	1	10000	4	1	0	4	0
30	279	1	10000	4	1	0	4	0
31	280	1	10000	4	1	0	4	0
31	281	1	10000	4	1	0	4	0
31	282	1	10000	4	1	0	4	0
30	283	1	10000	4	1	0	4	0
29	284	1	10000	4	1	0	4	0
28	285	1	10000	4	1	0	4	0
27	286	1	10000	4	1	0	4	0
28	287	1	10000	4	1	0	4	0
28	288	1	10000	4	1	0	4	0
27	289	1	10000	4	1	0	4	0
24	290	1	10000	4	1	0	4	0
25	291	1	10000	4	1	0	4	0
25	292	1	10000	4	1	0	4	0
26	293	1	10000	4	1	0	4	0
28	294	1	10000	4	1	0	4	0
29	295	1	10000	4	1	0	4	0
29	296	1	10000	4	1	0	4	0
26	297	1	10000	4	1	0	4	0
25	298	1	10000	4	1	0	4	0
24	299	1	10000	4	1	0	4	0
25	300	1	10000	4	1	0	4	0
25	301	1	10000	4	1	0	4	0
23	302	1	10000	4	1	0	4	0
22	303	1	10000	4	1	0	4	0
24	304	1	10000	4	1	0	4	0
25	305	1	10000	4	1	0	4	0
24	306	1	10000	4	1	0	4	0
25	307	1	10000	4	1	0	4	0
25	308	1	10000	4	1	0	4	0
24	309	1	10000	4	1	0	4	0
21	310	1	10000	4	1	0	4	0
21	311	1	10000	4	1	0	4	0
21	312	1	10000	4	1	0	4	0
22	313	1	10000	4	1	0	4	0
22	314	1	10000	4	1	0	4	0
22	315	1	10000	4	1	0	4	0
23	316	1	10000	4	1	0	4	0
22	317	1	10000	4	1	0	4	0
23	318	1	10000	4	1	0	4	0
23	319	1	10000	4	1	0	4	0
24	320	1	10000	4	1	0	4	0
23	321	1	10000	4	1	0	4	0
22	322	1	10000	4	1	0	4	0
22	323	1	10000	4	1	0	4	0
21	324	1	10000	4	1	0	4	0
23	325	1	10000	4	1	0	4	0
23	326	1	10000	4	1	0	4	0
23	327	1	10000	4	1	0	4	0
23	328	1	10000	4	1	0	4	0
25	329	1	10000	4	1	0	4	0
26	330	1	10000	4	1	0	4	0
27	331	1	10000	4	1	0	4	0
27	332	1	10000	4	1	0	4	0
27	333	1	10000	4	1	0	4	0
25	334	1	10000	4	1	0	4	0
25	335	1	10000	4	1	0	4	0
24	336	1	10000	4	1	0	4	0
24	337	1	10000	4	1	0	4	0
24	338	1	10000	4	1	0	4	0
24	339	1	10000	4	1	0	4	0
24	340	1	10000	4	1	0	4	0
23	341	1	10000	4	1	0	4	0
24	342	1	10000	4	1	0	4	0
23	343	1	10000	4	1	0	4	0
22	344	1	10000	4	1	0	4	0
21	345	1	10000	4	1	0	4	0
21	346	1	10000	4	1	0	4	0
21	347	1	10000	4	1	0	4	0
21	348	1	10000	4	1	0	4	0
20	349	1	10000	4	1	0	4	0
18	350	1	10000	4	1	0	4	0
18	351	1	10000	4	1	0	4	0
19	352	1	10000	4	1	0	4	0
20	353	1	10000	4	1	0	4	0
19	354	1	10000	4	1	0	4	0
19	355	1	10000	4	1	0	4	0
20	356	1	10000	4	1	0	4	0
20	357	1	10000	4	1	0	4	0
20	358	1	10000	4	1	0	4	0
20	359	1	10000	4	1	0	4	0
21	360	1	10000	4	1	0	4	0
20	361	1	10000	4	1	0	4	0
20	362	1	10000	4	1	0	4	0
20	363	1	10000	4	1	0	4	0
19	364	1	10000	4	1	0	4	0
19	365	1	10000	4	1	0	4	0
19	366	1	10000	4	1	0	4	0
19	367	1	10000	4	1	0	4	0
18	368	1	10000	4	1	0	4	0
20	369	1	10000	4	1	0	4	0
18	370	1	10000	4	1	0	4	0
17	371	1	10000	4	1	0	4	0
17	372	1	10000	4	1	0	4	0
18	373	1	10000	4	1	0	4	0
18	374	1	10000	4	1	0	4	0
18	375	1	10000	4	1	0	4	0
18	376	1	10000	4	1	0	4	0
16	377	1	10000	4	1	0	4	0
15	378	1	10000	4	1	0	4	0
15	379	1	10000	4	1	0	4	0
18	380	1	10000	4	1	0	4	0
19	381	1	10000	4	1	0	4	0
20	382	1	10000	4	1	0	4	0
20	383	1	10000	4	1	0	4	0
20	384	1	10000	4	1	0	4	0
19	385	1	10000	4	1	0	4	0
20	386	1	10000	4	1	0	4	0
21	387	1	10000	4	1	0	4	0
20	388	1	10000	4	1	0	4	0
20	389	1	10000	4	1	0	4	0
19	390	1	10000	4	1	0	4	0
20	391	1	10000	4	1	0	4	0
21	392	1	10000	4	1	0	4	0
21	393	1	10000	4	1	0	4	0
23	394	1	10000	4	1	0	4	0
26	395	1	10000	4	1	0	4	0
29	396	1	10000	4	1	0	4	0
29	397	1	10000	4	1	0	4	0
28	398	1	10000	4	1	0	4	0
26	399	1	10000	4	1	0	4	0
28	400	1	10000	4	1	0	4	0
27	401	1	10000	4	1	0	4	0
25	402	1	10000	4	1	0	4	0
24	403	1	10000	4	1	0	4	0
24	404	1	10000	4	1	0	4	0
23	405	1	10000	4	1	0	4	0
23	406	1	10000	4	1	0	4	0
25	407	1	10000	4	1	0	4	0
27	408	1	10000	4	1	0	4	0
27	409	1	10000	4	1	0	4	0
24	410	1	10000	4	1	0	4	0
24	411	1	10000	4	1	0	4	0
24	412	1	10000	4	1	0	4	0
23	413	1	10000	4	1	0	4	0
22	414	1	10000	4	1	0	4	0
21	415	1	10000	4	1	0	4	0
22	416	1	10000	4	1	0	4	0
21	417	1	10000	4	1	0	4	0
21	418	1	10000	4	1	0	4	0
21	419	1	10000	4	1	0	4	0
25	420	1	10000	4	1	0	4	0
26	421	1	10000	4	1	0	4	0
25	422	1	10000	4	1	0	4	0
27	423	1	10000	4	1	0	4	0
26	424	1	10000	4	1	0	4	0
26	425	1	10000	4	1	0	4	0
28	426	1	10000	4	1	0	4	0
30	427	1	10000	4	1	0	4	0
30	428	1	10000	4	1	0	4	0
30	429	1	10000	4	1	0	4	0
29	430	1	10000	4	1	0	4	0
29	431	1	10000	4	1	0	4	0
29	432	1	10000	4	1	0	4	0
30	433	1	10000	4	1	0	4	0
33	434	1	10000	4	1	0	4	0
37	435	1	10000	4	1	0	4	0
37	436	1	10000	4	1	0	4	0
41	437	1	10000	4	1	0	4	0
42	438	1	10000	4	1	0	4	0
45	439	1	10000	4	1	0	4	0
52	440	1	10000	4	1	0	4	0
50	441	1	10000	4	1	0	4	0
47	442	1	10000	4	1	0	4	0
45	443	1	10000	4	1	0	4	0
43	444	1	10000	4	1	0	4	0
42	445	1	10000	4	1	0	4	0
43	446	1	10000	4	1	0	4	0
44	447	1	10000	4	1	0	4	0
45	448	1	10000	4	1	0	4	0
53	449	1	10000	4	1	0	4	0
58	450	1	10000	4	1	0	4	0
61	451	1	10000	4	1	0	4	0
65	452	1	10000	4	1	0	4	0
66	453	1	10000	4	1	0	4	0
69	454	1	10000	4	1	0	4	0
78	455	1	10000	4	1	0	4	0
78	456	1	10000	4	1	0	4	0
78	457	1	10000	4	1	0	4	0
77	458	1	10000	4	1	0	4	0
76	459	1	10000	4	1	0	4	0
83	460	1	10000	4	1	0	4	0
96	461	1	10000	4	1	0	4	0
97	462	1	10000	4	1	0	4	0
104	463	1	10000	4	1	0	4	0
105	464	1	10000	4	1	0	4	0
104	465	1	10000	4	1	0	4	0
106	466	1	10000	4	1	0	4	0
109	467	1	10000	4	1	0	4	0
107	468	1	10000	4	1	0	4	0
106	469	1	10000	4	1	0	4	0
105	470	1	10000	4	1	0	4	0
104	471	1	10000	4	1	0	4	0
109	472	1	10000	4	1	0	4	0
107	473	1	10000	4	1	0	4	0
111	474	1	10000	4	1	0	4	0
119	475	1	10000	4	1	0	4	0
128	476	1	10000	4	1	0	4	0
129	477	1	10000	4	1	0	4	0
125	478	1	10000	4	1	0	4	0
121	479	1	10000	4	1	0	4	0
124	480	1	10000	4	1	0	4	0
125	481	1	10000	4	1	0	4	0
122	482	1	10000	4	1	0	4	0
123	483	1	10000	4	1	0	4	0
130	484	1	10000	4	1	0	4	0
130	485	1	10000	4	1	0	4	0
127	486	1	10000	4	1	0	4	0
124	487	1	10000	4	1	0	4	0
124	488	1	10000	4	1	0	4	0
120	489	1	10000	4	1	0	4	0
116	490	1	10000	4	1	0	4	0
117	491	1	10000	4	1	0	4	0
116	492	1	10000	4	1	0	4	0
112	493	1	10000	4	1	0	4	0
109	494	1	10000	4	1	0	4	0
111	495	1	10000	4	1	0	4	0
121	496	1	10000	4	1	0	4	0
123	497	1	10000	4	1	0	4	0
119	498	1	10000	4	1	0	4	0
116	499	1	10000	4	1	0	4	0
112	500	1	10000	4	1	0	4	0
110	501	1	10000	4	1	0	4	0
109	501	1	10000	4	1	0	4	1
109	502	1	10000	4	1	0	4	1
109	504	1	10000	4	1	0	4	1
109	505	1	10000	4	1	0	4	1
109	506	1	10000	4	1	0	4	1
105	507	1	10000	4	1	0	4	1
101	508	1	10000	4	1	0	4	1
99	509	1	10000	4	1	0	4	1
98	510	1	10000	4	1	0	4	1
103	511	1	10000	4	1	0	4	1
104	512	1	10000	4	1	0	4	1
101	513	1	10000	4	1	0	4	1
103	514	1	10000	4	1	0	4	1
107	515	1	10000	4	1	0	4	1
104	516	1	10000	4	1	0	4	1
101	517	1	10000	4	1	0	4	1
100	518	1	10000	4	1	0	4	1
97	519	1	10000	4	1	0	4	1
97	520	1	10000	4	1	0	4	1
97	521	1	10000	4	1	0	4	1
96	522	1	10000	4	1	0	4	1
101	523	1	10000	4	1	0	4	1
100	524	1	10000	4	1	0	4	1
101	525	1	10000	4	1	0	4	1
100	526	1	10000	4	1	0	4	1
104	527	1	10000	4	1	0	4	1
109	528	1	10000	4	1	0	4	1
111	529	1	10000	4	1	0	4	1
110	530	1	10000	4	1	0	4	1
111	531	1	10000	4	1	0	4	1
110	532	1	10000	4	1	0	4	1
105	533	1	10000	4	1	0	4	1
100	534	1	10000	4	1	0	4	1
98	535	1	10000	4	1	0	4	1
101	536	1	10000	4	1	0	4	1
104	537	1	10000	4	1	0	4	1
103	538	1	10000	4	1	0	4	1
100	539	1	10000	4	1	0	4	1
99	540	1	10000	4	1	0	4	1
99	541	1	10000	4	1	0	4	1
100	542	1	10000	4	1	0	4	1
99	543	1	10000	4	1	0	4	1
96	544	1	10000	4	1	0	4	1
93	545	1	10000	4	1	0	4	1
91	546	1	10000	4	1	0	4	1
90	547	1	10000	4	1	0	4	1
92	548	1	10000	4	1	0	4	1
98	549	1	10000	4	1	0	4	1
97	550	1	10000	4	1	0	4	1
93	551	1	10000	4	1	0	4	1
91	552	1	10000	4	1	0	4	0
89	553	1	10000	4	1	0	4	0
85	554	1	10000	4	1	0	4	0
82	555	1	10000	4	1	0	4	0
82	556	1	10000	4	1	0	4	0
84	557	1	10000	4	1	0	4	0
87	558	1	10000	4	1	0	4	0
92	559	1	10000	4	1	0	4	0
99	560	1	10000	4	1	0	4	0
103	561	1	10000	4	1	0	4	0
102	562	1	10000	4	1	0	4	0
101	563	1	10000	4	1	0	4	0
99	564	1	10000	4	1	0	4	0
97	565	1	10000	4	1	0	4	0
95	566	1	10000	4	1	0	4	0
95	567	1	10000	4	1	0	4	0
95	568	1	10000	4	1	0	4	0
95	569	1	10000	4	1	0	4	0
96	570	1	10000	4	1	0	4	0
100	571	1	10000	4	1	0	4	0
101	572	1	10000	4	1	0	4	0
99	573	1	10000	4	1	0	4	0
97	574	1	10000	4	1	0	4	0
93	575	1	10000	4	1	0	4	0
91	576	1	10000	4	1	0	4	0
88	577	1	10000	4	1	0	4	0
83	578	1	10000	4	1	0	4	0
80	579	1	10000	4	1	0	4	0
82	580	1	10000	4	1	0	4	0
85	581	1	10000	4	1	0	4	0
87	582	1	10000	4	1	0	4	0
88	583	1	10000	4	1	0	4	0
88	584	1	10000	4	1	0	4	0
86	585	1	10000	4	1	0	4	0
84	586	1	10000	4	1	0	4	0
84	587	1	10000	4	1	0	4	0
82	588	1	10000	4	1	0	4	0
81	589	1	10000	4	1	0	4	0
76	590	1	10000	4	1	0	4	0
74	591	1	10000	4	1	0	4	0
76	592	1	10000	4	1	0	4	0
85	593	1	10000	4	1	0	4	0
92	594	1	10000	4	1	0	4	0
96	595	1	10000	4	1	0	4	0
102	596	1	10000	4	1	0	4	0
104	597	1	10000	4	1	0	4	0
113	598	1	10000	4	1	0	4	0
118	599	1	10000	4	1	0	4	0
143	600	1	10000	4	1	0	4	0
166	601	1	10000	4	1	0	4	0
168	602	1	10000	4	1	0	4	0
178	603	1	10000	4	1	0	4	0
227	604	1	10000	4	1	0	4	0
262	605	1	10000	4	1	0	4	0
263	606	1	10000	4	1	0	4	0
298	607	1	10000	4	1	0	4	0
337	608	1	10000	4	1	0	4	0
355	609	1	10000	4	1	0	4	0
352	610	1	10000	4	1	0	4	0
348	611	1	10000	4	1	0	4	0
344	612	1	10000	4	1	0	4	0
389	613	1	10000	4	1	0	4	0
464	614	1	10000	4	1	0	4	0
478	615	1	10000	4	1	0	4	0
496	616	1	10000	4	1	0	4	0
549	617	1	10000	4	1	0	4	0
594	618	1	10000	4	1	0	4	0
603	619	1	10000	4	1	0	4	0
586	620	1	10000	4	1	0	4	0
560	621	1	10000	4	1	0	4	0
545	622	1	10000	4	1	0	4	0
537	623	1	10000	4	1	0	4	0
525	624	1	10000	4	1	0	4	0
540	625	1	10000	4	1	0	4	0
585	626	1	10000	4	1	0	4	0
618	627	1	10000	4	1	0	4	0
605	628	1	10000	4	1	0	4	0
615	629	1	10000	4	1	0	4	0
621	630	1	10000	4	1	0	4	0
624	631	1	10000	4	1	0	4	0
620	632	1	10000	4	1	0	4	0
600	633	1	10000	4	1	0	4	0
576	634	1	10000	4	1	0	4	0
558	635	1	10000	4	1	0	4	0
543	636	1	10000	4	1	0	4	0
532	637	1	10000	4	1	0	4	0
523	638	1	10000	4	1	0	4	0
511	639	1	10000	4	1	0	4	0
498	640	1	10000	4	1	0	4	0
485	641	1	10000	4	1	0	4	0
473	642	1	10000	4	1	0	4	0
459	643	1	10000	4	1	0	4	0
446	644	1	10000	4	1	0	4	0
434	645	1	10000	4	1	0	4	0
421	646	1	10000	4	1	0	4	0
407	647	1	10000	4	1	0	4	0
389	648	1	10000	4	1	0	4	0
372	649	1	10000	4	1	0	4	0
353	650	1	10000	4	1	0	4	0
337	651	1	10000	4	1	0	4	0
322	652	1	10000	4	1	0	4	0
308	653	1	10000	4	1	0	4	0
295	654	1	10000	4	1	0	4	0
282	655	1	10000	4	1	0	4	0
271	656	1	10000	4	1	0	4	0
261	657	1	10000	4	1	0	4	0
252	658	1	10000	4	1	0	4	0
246	659	1	10000	4	1	0	4	0
242	660	1	10000	4	1	0	4	0
237	661	1	10000	4	1	0	4	0
232	662	1	10000	4	1	0	4	0
225	663	1	10000	4	1	0	4	0
219	664	1	10000	4	1	0	4	0
213	665	1	10000	4	1	0	4	0
209	666	1	10000	4	1	0	4	0
206	667	1	10000	4	1	0	4	0
203	668	1	10000	4	1	0	4	0
199	669	1	10000	4	1	0	4	0
193	670	1	10000	4	1	0	4	0
189	671	1	10000	4	1	0	4	0
185	672	1	10000	4	1	0	4	0
180	673	1	10000	4	1	0	4	0
176	674	1	10000	4	1	0	4	0
172	675	1	10000	4	1	0	4	0
170	676	1	10000	4	1	0	4	0
169	677	1	10000	4	1	0	4	0
169	678	1	10000	4	1	0	4	0
165	679	1	10000	4	1	0	4	0
160	680	1	10000	4	1	0	4	0
153	681	1	10000	4	1	0	4	0
149	682	1	10000	4	1	0	4	0
146	683	1	10000	4	1	0	4	0
145	684	1	10000	4	1	0	4	0
143	685	1	10000	4	1	0	4	0
139	686	1	10000	4	1	0	4	0
137	687	1	10000	4	1	0	4	0
133	688	1	10000	4	1	0	4	0
129	689	1	10000	4	1	0	4	0
124	690	1	10000	4	1	0	4	0
120	691	1	10000	4	1	0	4	0
115	692	1	10000	4	1	0	4	0
112	693	1	10000	4	1	0	4	0
107	694	1	10000	4	1	0	4	0
104	695	1	10000	4	1	0	4	0
103	696	1	10000	4	1	0	4	0
99	697	1	10000	4	1	0	4	0
94	698	1	10000	4	1	0	4	0
92	699	1	10000	4	1	0	4	0
90	700	1	10000	4	1	0	4	0
87	701	1	10000	4	1	0	4	0
84	702	1	10000	4	1	0	4	0
82	703	1	10000	4	1	0	4	0
82	704	1	10000	4	1	0	4	0
81	705	1	10000	4	1	0	4	0
80	706	1	10000	4	1	0	4	0
80	707	1	10000	4	1	0	4	0
80	708	1	10000	4	1	0	4	0
80	709	1	10000	4	1	0	4	0
78	710	1	10000	4	1	0	4	0
78	711	1	10000	4	1	0	4	0
78	712	1	10000	4	1	0	4	0
79	713	1	10000	4	1	0	4	0
77	714	1	10000	4	1	0	4	0
78	715	1	10000	4	1	0	4	0
80	716	1	10000	4	1	0	4	0
78	717	1	10000	4	1	0	4	0
78	718	1	10000	4	1	0	4	0
79	719	1	10000	4	1	0	4	0
81	720	1	10000	4	1	0	4	0
80	721	1	10000	4	1	0	4	0
79	722	1	10000	4	1	0	4	0
77	723	1	10000	4	1	0	4	0
75	724	1	10000	4	1	0	4	0
74	725	1	10000	4	1	0	4	0
71	726	1	10000	4	1	0	4	0
70	727	1	10000	4	1	0	4	0
72	728	1	10000	4	1	0	4	0
74	729	1	10000	4	1	0	4	0
72	730	1	10000	4	1	0	4	0
72	731	1	10000	4	1	0	4	0
71	732	1	10000	4	1	0	4	0
71	733	1	10000	4	1	0	4	0
69	734	1	10000	4	1	0	4	0
68	735	1	10000	4	1	0	4	0
69	736	1	10000	4	1	0	4	0
68	737	1	10000	4	1	0	4	0
68	738	1	10000	4	1	0	4	0
68	739	1	10000	4	1	0	4	0
70	740	1	10000	4	1	0	4	0
68	741	1	10000	4	1	0	4	0
66	742	1	10000	4	1	0	4	0
63	743	1	10000	4	1	0	4	0
61	744	1	10000	4	1	0	4	0
60	745	1	10000	4	1	0	4	0
59	746	1	10000	4	1	0	4	0
59	747	1	10000	4	1	0	4	0
57	748	1	10000	4	1	0	4	0
56	749	1	10000	4	1	0	4	0
56	750	1	10000	4	1	0	4	0
56	751	1	10000	4	1	0	4	0
54	752	1	10000	4	1	0	4	0
54	753	1	10000	4	1	0	4	0
51	754	1	10000	4	1	0	4	0
50	755	1	10000	4	1	0	4	0
51	756	1	10000	4	1	0	4	0
50	757	1	10000	4	1	0	4	0
48	758	1	10000	4	1	0	4	0
49	759	1	10000	4	1	0	4	0
50	760	1	10000	4	1	0	4	0
49	761	1	10000	4	1	0	4	0
49	762	1	10000	4	1	0	4	0
48	763	1	10000	4	1	0	4	0
49	764	1	10000	4	1	0	4	0
50	765	1	10000	4	1	0	4	0
51	766	1	10000	4	1	0	4	0
52	767	1	10000	4	1	0	4	0
51	768	1	10000	4	1	0	4	0
50	769	1	10000	4	1	0	4	0
47	770	1	10000	4	1	0	4	0
47	771	1	10000	4	1	0	4	0
50	772	1	10000	4	1	0	4	0
52	773	1	10000	4	1	0	4	0
50	774	1	10000	4	1	0	4	0
48	775	1	10000	4	1	0	4	0
48	776	1	10000	4	1	0	4	0
45	777	1	10000	4	1	0	4	0
43	778	1	10000	4	1	0	4	0
41	779	1	10000	4	1	0	4	0
42	780	1	10000	4	1	0	4	0
42	781	1	10000	4	1	0	4	0
40	782	1	10000	4	1	0	4	0
40	783	1	10000	4	1	0	4	0
40	784	1	10000	4	1	0	4	0
38	785	1	10000	4	1	0	4	0
37	786	1	10000	4	1	0	4	0
37	787	1	10000	4	1	0	4	0
38	788	1	10000	4	1	0	4	0
37	789	1	10000	4	1	0	4	0
35	790	1	10000	4	1	0	4	0
35	791	1	10000	4	1	0	4	0
35	792	1	10000	4	1	0	4	0
35	793	1	10000	4	1	0	4	0
34	794	1	10000	4	1	0	4	0
33	795	1	10000	4	1	0	4	0
34	796	1	10000	4	1	0	4	0
34	797	1	10000	4	1	0	4	0
34	798	1	10000	4	1	0	4	0
32	799	1	10000	4	1	0	4	0
32	800	1	10000	4	1	0	4	0
34	801	1	10000	4	1	0	4	0
33	802	1	10000	4	1	0	4	0
33	803	1	10000	4	1	0	4	0
32	804	1	10000	4	1	0	4	0
30	805	1	10000	4	1	0	4	0
30	806	1	10000	4	1	0	4	0
30	807	1	10000	4	1	0	4	0
31	808	1	10000	4	1	0	4	0
33	809	1	10000	4	1	0	4	0
34	810	1	10000	4	1	0	4	0
35	811	1	10000	4	1	0	4	0
35	812	1	10000	4	1	0	4	0
36	813	1	10000	4	1	0	4	0
36	814	1	10000	4	1	0	4	0
36	815	1	10000	4	1	0	4	0
39	816	1	10000	4	1	0	4	0
39	817	1	10000	4	1	0	4	0
38	818	1	10000	4	1	0	4	0
37	819	1	10000	4	1	0	4	0
39	820	1	10000	4	1	0	4	0
37	821	1	10000	4	1	0	4	0
36	822	1	10000	4	1	0	4	0
35	823	1	10000	4	1	0	4	0
36	824	1	10000	4	1	0	4	0
35	825	1	10000	4	1	0	4	0
33	826	1	10000	4	1	0	4	0
33	827	1	10000	4	1	0	4	0
31	828	1	10000	4	1	0	4	0
31	829	1	10000	4	1	0	4	0
28	830	1	10000	4	1	0	4	0
28	831	1	10000	4	1	0	4	0
27	832	1	10000	4	1	0	4	0
27	833	1	10000	4	1	0	4	0
25	834	1	10000	4	1	0	4	0
26	835	1	10000	4	1	0	4	0
27	836	1	10000	4	1	0	4	0
27	837	1	10000	4	1	0	4	0
28	838	1	10000	4	1	0	4	0
27	839	1	10000	4	1	0	4	0
28	840	1	10000	4	1	0	4	0
30	841	1	10000	4	1	0	4	0
31	842	1	10000	4	1	0	4	0
31	843	1	10000	4	1	0	4	0
32	844	1	10000	4	1	0	4	0
32	845	1	10000	4	1	0	4	0
31	846	1	10000	4	1	0	4	0
33	847	1	10000	4	1	0	4	0
34	848	1	10000	4	1	0	4	0
34	849	1	10000	4	1	0	4	0
31	850	1	10000	4	1	0	4	0
30	851	1	10000	4	1	0	4	0
30	852	1	10000	4	1	0	4	0
29	853	1	10000	4	1	0	4	0
30	854	1	10000	4	1	0	4	0
32	855	1	10000	4	1	0	4	0
33	856	1	10000	4	1	0	4	0
31	857	1	10000	4	1	0	4	0
32	858	1	10000	4	1	0	4	0
32	859	1	10000	4	1	0	4	0
33	860	1	10000	4	1	0	4	0
32	861	1	10000	4	1	0	4	0
31	862	1	10000	4	1	0	4	0
30	863	1	10000	4	1	0	4	0
30	864	1	10000	4	1	0	4	0
28	865	1	10000	4	1	0	4	0
27	866	1	10000	4	1	0	4	0
29	867	1	10000	4	1	0	4	0
31	868	1	10000	4	1	0	4	0
33	869	1	10000	4	1	0	4	0
31	870	1	10000	4	1	0	4	0
32	871	1	10000	4	1	0	4	0
35	872	1	10000	4	1	0	4	0
34	873	1	10000	4	1	0	4	0
33	874	1	10000	4	1	0	4	0
32	875	1	10000	4	1	0	4	0
32	876	1	10000	4	1	0	4	0
30	877	1	10000	4	1	0	4	0
30	878	1	10000	4	1	0	4	0
31	879	1	10000	4	1	0	4	0
32	880	1	10000	4	1	0	4	0
32	881	1	10000	4	1	0	4	0
32	882	1	10000	4	1	0	4	0
32	883	1	10000	4	1	0	4	0
32	884	1	10000	4	1	0	4	0
30	885	1	10000	4	1	0	4	0
30	886	1	10000	4	1	0	4	0
29	887	1	10000	4	1	0	4	0
30	888	1	10000	4	1	0	4	0
29	889	1	10000	4	1	0	4	0
26	890	1	10000	4	1	0	4	0
25	891	1	10000	4	1	0	4	0
26	892	1	10000	4	1	0	4	0
27	893	1	10000	4	1	0	4	0
27	894	1	10000	4	1	0	4	0
28	895	1	10000	4	1	0	4	0
30	896	1	10000	4	1	0	4	0
32	897	1	10000	4	1	0	4	0
31	898	1	10000	4	1	0	4	0
32	899	1	10000	4	1	0	4	0
35	900	1	10000	4	1	0	4	0
35	901	1	10000	4	1	0	4	0
35	902	1	10000	4	1	0	4	0
34	903	1	10000	4	1	0	4	0
36	904	1	10000	4	1	0	4	0
37	905	1	10000	4	1	0	4	0
40	906	1	10000	4	1	0	4	0
44	907	1	10000	4	1	0	4	0
48	908	1	10000	4	1	0	4	0
52	909	1	10000	4	1	0	4	0
53	910	1	10000	4	1	0	4	0
59	911	1	10000	4	1	0	4	0
67	912	1	10000	4	1	0	4	0
69	913	1	10000	4	1	0	4	0
68	914	1	10000	4	1	0	4	0
70	915	1	10000	4	1	0	4	0
69	916	1	10000	4	1	0	4	0
76	917	1	10000	4	1	0	4	0
83	918	1	10000	4	1	0	4	0
81	919	1	10000	4	1	0	4	0
83	920	1	10000	4	1	0	4	0
82	921	1	10000	4	1	0	4	0
84	922	1	10000	4	1	0	4	0
85	923	1	10000	4	1	0	4	0
82	924	1	10000	4	1	0	4	0
82	925	1	10000	4	1	0	4	0
90	926	1	10000	4	1	0	4	0
97	927	1	10000	4	1	0	4	0
96	928	1	10000	4	1	0	4	0
104	929	1	10000	4	1	0	4	0
102	930	1	10000	4	1	0	4	0
104	931	1	10000	4	1	0	4	0
103	932	1	10000	4	1	0	4	0
101	933	1	10000	4	1	0	4	0
100	934	1	10000	4	1	0	4	0
108	935	1	10000	4	1	0	4	0
113	936	1	10000	4	1	0	4	0
115	937	1	10000	4	1	0	4	0
115	938	1	10000	4	1	0	4	0
112	939	1	10000	4	1	0	4	0
113	940	1	10000	4	1	0	4	0
108	941	1	10000	4	1	0	4	0
106	942	1	10000	4	1	0	4	0
106	943	1	10000	4	1	0	4	0
104	944	1	10000	4	1	0	4	0
103	945	1	10000	4	1	0	4	0
101	946	1	10000	4	1	0	4	0
99	947	1	10000	4	1	0	4	0
96	948	1	10000	4	1	0	4	0
96	949	1	10000	4	1	0	4	0
91	950	1	10000	4	1	0	4	0
88	951	1	10000	4	1	0	4	0
86	952	1	10000	4	1	0	4	0
85	953	1	10000	4	1	0	4	0
84	954	1	10000	4	1	0	4	0
82	955	1	10000	4	1	0	4	0
84	956	1	10000	4	1	0	4	0
83	957	1	10000	4	1	0	4	0
81	958	1	10000	4	1	0	4	0
80	959	1	10000	4	1	0	4	0
79	960	1	10000	4	1	0	4	0
76	961	1	10000	4	1	0	4	0
75	962	1	10000	4	1	0	4	0
75	963	1	10000	4	1	0	4	0
77	964	1	10000	4	1	0	4	0
76	965	1	10000	4	1	0	4	0
76	966	1	10000	4	1	0	4	0
83	967	1	10000	4	1	0	4	0
95	968	1	10000	4	1	0	4	0
94	969	1	10000	4	1	0	4	0
100	970	1	10000	4	1	0	4	0
109	971	1	10000	4	1	0	4	0
112	972	1	10000	4	1	0	4	0
108	973	1	10000	4	1	0	4	0
105	974	1	10000	4	1	0	4	0
107	975	1	10000	4	1	0	4	0
113	976	1	10000	4	1	0	4	0
116	977	1	10000	4	1	0	4	0
119	978	1	10000	4	1	0	4	0
116	979	1	10000	4	1	0	4	0
121	980	1	10000	4	1	0	4	0
123	981	1	10000	4	1	0	4	0
119	982	1	10000	4	1	0	4	0
114	983	1	10000	4	1	0	4	0
109	984	1	10000	4	1	0	4	0
108	985	1	10000	4	1	0	4	0
106	986	1	10000	4	1	0	4	0
103	987	1	10000	4	1	0	4	0
104	988	1	10000	4	1	0	4	0
108	989	1	10000	4	1	0	4	0
113	990	1	10000	4	1	0	4	0
115	991	1	10000	4	1	0	4	0
115	992	1	10000	4	1	0	4	0
116	993	1	10000	4	1	0	4	0
119	994	1	10000	4	1	0	4	0
117	995	1	10000	4	1	0	4	0
113	996	1	10000	4	1	0	4	0
107	997	1	10000	4	1	0	4	0
104	998	1	10000	4	1	0	4	0
102	999	1	10000	4	1	0	4	0
101	1000	1	10000	4	1	0	4	0
101	1001	1	10000	4	1	0	4	0
18	1	10	10000	5	1	0	5	0
18	2	10	10000	5	1	0	5	0
18	3	10	10000	5	1	0	5	0
17	4	10	10000	5	1	0	5	0
17	5	10	10000	5	1	0	5	0
18	6	10	10000	5	1	0	5	0
18	7	10	10000	5	1	0	5	0
20	8	10	10000	5	1	0	5	0
19	9	10	10000	5	1	0	5	0
20	10	10	10000	5	1	0	5	0
21	11	10	10000	5	1	0	5	0
20	12	10	10000	5	1	0	5	0
20	13	10	10000	5	1	0	5	0
19	14	10	10000	5	1	0	5	0
18	15	10	10000	5	1	0	5	0
18	16	10	10000	5	1	0	5	0
20	17	10	10000	5	1	0	5	0
21	18	10	10000	5	1	0	5	0
21	19	10	10000	5	1	0	5	0
21	20	10	10000	5	1	0	5	0
22	21	10	10000	5	1	0	5	0
23	22	10	10000	5	1	0	5	0
24	23	10	10000	5	1	0	5	0
23	24	10	10000	5	1	0	5	0
22	25	10	10000	5	1	0	5	0
22	26	10	10000	5	1	0	5	0
21	27	10	10000	5	1	0	5	0
22	28	10	10000	5	1	0	5	0
23	29	10	10000	5	1	0	5	0
25	30	10	10000	5	1	0	5	0
24	31	10	10000	5	1	0	5	0
23	32	10	10000	5	1	0	5	0
24	33	10	10000	5	1	0	5	0
24	34	10	10000	5	1	0	5	0
25	35	10	10000	5	1	0	5	0
27	36	10	10000	5	1	0	5	0
30	37	10	10000	5	1	0	5	0
30	38	10	10000	5	1	0	5	0
30	39	10	10000	5	1	0	5	0
30	40	10	10000	5	1	0	5	0
30	41	10	10000	5	1	0	5	0
30	42	10	10000	5	1	0	5	0
32	43	10	10000	5	1	0	5	0
36	44	10	10000	5	1	0	5	0
40	45	10	10000	5	1	0	5	0
41	46	10	10000	5	1	0	5	0
39	47	10	10000	5	1	0	5	0
37	48	10	10000	5	1	0	5	0
35	49	10	10000	5	1	0	5	0
36	50	10	10000	5	1	0	5	0
35	51	10	10000	5	1	0	5	0
34	52	10	10000	5	1	0	5	0
33	53	10	10000	5	1	0	5	0
33	54	10	10000	5	1	0	5	0
32	55	10	10000	5	1	0	5	0
31	56	10	10000	5	1	0	5	0
33	57	10	10000	5	1	0	5	0
31	58	10	10000	5	1	0	5	0
31	59	10	10000	5	1	0	5	0
28	60	10	10000	5	1	0	5	0
29	61	10	10000	5	1	0	5	0
33	62	10	10000	5	1	0	5	0
36	63	10	10000	5	1	0	5	0
39	64	10	10000	5	1	0	5	0
44	65	10	10000	5	1	0	5	0
46	66	10	10000	5	1	0	5	0
48	67	10	10000	5	1	0	5	0
47	68	10	10000	5	1	0	5	0
50	69	10	10000	5	1	0	5	0
56	70	10	10000	5	1	0	5	0
57	71	10	10000	5	1	0	5	0
56	72	10	10000	5	1	0	5	0
58	73	10	10000	5	1	0	5	0
57	74	10	10000	5	1	0	5	0
58	75	10	10000	5	1	0	5	0
62	76	10	10000	5	1	0	5	0
69	77	10	10000	5	1	0	5	0
76	78	10	10000	5	1	0	5	0
81	79	10	10000	5	1	0	5	0
85	80	10	10000	5	1	0	5	0
84	81	10	10000	5	1	0	5	0
85	82	10	10000	5	1	0	5	0
92	83	10	10000	5	1	0	5	0
94	84	10	10000	5	1	0	5	0
92	85	10	10000	5	1	0	5	0
88	86	10	10000	5	1	0	5	0
86	87	10	10000	5	1	0	5	0
86	88	10	10000	5	1	0	5	0
82	89	10	10000	5	1	0	5	0
84	90	10	10000	5	1	0	5	0
88	91	10	10000	5	1	0	5	0
87	92	10	10000	5	1	0	5	0
93	93	10	10000	5	1	0	5	0
97	94	10	10000	5	1	0	5	0
95	95	10	10000	5	1	0	5	0
96	96	10	10000	5	1	0	5	0
95	97	10	10000	5	1	0	5	0
94	98	10	10000	5	1	0	5	0
94	99	10	10000	5	1	0	5	0
92	100	10	10000	5	1	0	5	0
101	101	10	10000	5	1	0	5	0
110	102	10	10000	5	1	0	5	0
115	103	10	10000	5	1	0	5	0
115	104	10	10000	5	1	0	5	0
115	105	10	10000	5	1	0	5	0
128	106	10	10000	5	1	0	5	0
129	107	10	10000	5	1	0	5	0
128	108	10	10000	5	1	0	5	0
128	109	10	10000	5	1	0	5	0
140	110	10	10000	5	1	0	5	0
156	111	10	10000	5	1	0	5	0
167	112	10	10000	5	1	0	5	0
176	113	10	10000	5	1	0	5	0
181	114	10	10000	5	1	0	5	0
183	115	10	10000	5	1	0	5	0
182	116	10	10000	5	1	0	5	0
178	117	10	10000	5	1	0	5	0
170	118	10	10000	5	1	0	5	0
164	119	10	10000	5	1	0	5	0
157	120	10	10000	5	1	0	5	0
156	121	10	10000	5	1	0	5	0
153	122	10	10000	5	1	0	5	0
153	123	10	10000	5	1	0	5	0
159	124	10	10000	5	1	0	5	0
160	125	10	10000	5	1	0	5	0
156	126	10	10000	5	1	0	5	0
153	127	10	10000	5	1	0	5	0
155	128	10	10000	5	1	0	5	0
156	129	10	10000	5	1	0	5	0
155	130	10	10000	5	1	0	5	0
153	131	10	10000	5	1	0	5	0
153	132	10	10000	5	1	0	5	0
152	133	10	10000	5	1	0	5	0
148	134	10	10000	5	1	0	5	0
147	135	10	10000	5	1	0	5	0
145	136	10	10000	5	1	0	5	0
143	137	10	10000	5	1	0	5	0
138	138	10	10000	5	1	0	5	0
139	139	10	10000	5	1	0	5	0
138	140	10	10000	5	1	0	5	0
134	141	10	10000	5	1	0	5	0
135	142	10	10000	5	1	0	5	0
136	143	10	10000	5	1	0	5	0
134	144	10	10000	5	1	0	5	0
129	145	10	10000	5	1	0	5	0
125	146	10	10000	5	1	0	5	0
120	147	10	10000	5	1	0	5	0
117	148	10	10000	5	1	0	5	0
114	149	10	10000	5	1	0	5	0
112	150	10	10000	5	1	0	5	0
109	151	10	10000	5	1	0	5	0
104	152	10	10000	5	1	0	5	0
100	153	10	10000	5	1	0	5	0
96	154	10	10000	5	1	0	5	0
94	155	10	10000	5	1	0	5	0
91	156	10	10000	5	1	0	5	0
91	157	10	10000	5	1	0	5	0
88	158	10	10000	5	1	0	5	0
86	159	10	10000	5	1	0	5	0
83	160	10	10000	5	1	0	5	0
81	161	10	10000	5	1	0	5	0
80	162	10	10000	5	1	0	5	0
76	163	10	10000	5	1	0	5	0
75	164	10	10000	5	1	0	5	0
75	165	10	10000	5	1	0	5	0
71	166	10	10000	5	1	0	5	0
69	167	10	10000	5	1	0	5	0
69	168	10	10000	5	1	0	5	0
70	169	10	10000	5	1	0	5	0
73	170	10	10000	5	1	0	5	0
72	171	10	10000	5	1	0	5	0
71	172	10	10000	5	1	0	5	0
68	173	10	10000	5	1	0	5	0
66	174	10	10000	5	1	0	5	0
64	175	10	10000	5	1	0	5	0
62	176	10	10000	5	1	0	5	0
60	177	10	10000	5	1	0	5	0
59	178	10	10000	5	1	0	5	0
59	179	10	10000	5	1	0	5	0
56	180	10	10000	5	1	0	5	0
58	181	10	10000	5	1	0	5	0
61	182	10	10000	5	1	0	5	0
63	183	10	10000	5	1	0	5	0
65	184	10	10000	5	1	0	5	0
66	185	10	10000	5	1	0	5	0
69	186	10	10000	5	1	0	5	0
70	187	10	10000	5	1	0	5	0
70	188	10	10000	5	1	0	5	0
68	189	10	10000	5	1	0	5	0
69	190	10	10000	5	1	0	5	0
72	191	10	10000	5	1	0	5	0
74	192	10	10000	5	1	0	5	0
74	193	10	10000	5	1	0	5	0
75	194	10	10000	5	1	0	5	0
75	195	10	10000	5	1	0	5	0
76	196	10	10000	5	1	0	5	0
76	197	10	10000	5	1	0	5	0
78	198	10	10000	5	1	0	5	0
81	199	10	10000	5	1	0	5	0
80	200	10	10000	5	1	0	5	0
78	201	10	10000	5	1	0	5	0
78	202	10	10000	5	1	0	5	0
78	203	10	10000	5	1	0	5	0
79	204	10	10000	5	1	0	5	0
79	205	10	10000	5	1	0	5	0
80	206	10	10000	5	1	0	5	0
80	207	10	10000	5	1	0	5	0
80	208	10	10000	5	1	0	5	0
79	209	10	10000	5	1	0	5	0
79	210	10	10000	5	1	0	5	0
76	211	10	10000	5	1	0	5	0
76	212	10	10000	5	1	0	5	0
77	213	10	10000	5	1	0	5	0
76	214	10	10000	5	1	0	5	0
77	215	10	10000	5	1	0	5	0
77	216	10	10000	5	1	0	5	0
75	217	10	10000	5	1	0	5	0
74	218	10	10000	5	1	0	5	0
72	219	10	10000	5	1	0	5	0
68	220	10	10000	5	1	0	5	0
66	221	10	10000	5	1	0	5	0
66	222	10	10000	5	1	0	5	0
68	223	10	10000	5	1	0	5	0
70	224	10	10000	5	1	0	5	0
73	225	10	10000	5	1	0	5	0
75	226	10	10000	5	1	0	5	0
77	227	10	10000	5	1	0	5	0
78	228	10	10000	5	1	0	5	0
77	229	10	10000	5	1	0	5	0
78	230	10	10000	5	1	0	5	0
78	231	10	10000	5	1	0	5	0
78	232	10	10000	5	1	0	5	0
77	233	10	10000	5	1	0	5	0
75	234	10	10000	5	1	0	5	0
74	235	10	10000	5	1	0	5	0
71	236	10	10000	5	1	0	5	0
69	237	10	10000	5	1	0	5	0
67	238	10	10000	5	1	0	5	0
66	239	10	10000	5	1	0	5	0
65	240	10	10000	5	1	0	5	0
62	241	10	10000	5	1	0	5	0
60	242	10	10000	5	1	0	5	0
58	243	10	10000	5	1	0	5	0
55	244	10	10000	5	1	0	5	0
54	245	10	10000	5	1	0	5	0
54	246	10	10000	5	1	0	5	0
51	247	10	10000	5	1	0	5	0
49	248	10	10000	5	1	0	5	0
48	249	10	10000	5	1	0	5	0
48	250	10	10000	5	1	0	5	0
47	251	10	10000	5	1	0	5	0
45	252	10	10000	5	1	0	5	0
44	253	10	10000	5	1	0	5	0
41	254	10	10000	5	1	0	5	0
40	255	10	10000	5	1	0	5	0
39	256	10	10000	5	1	0	5	0
37	257	10	10000	5	1	0	5	0
36	258	10	10000	5	1	0	5	0
36	259	10	10000	5	1	0	5	0
32	260	10	10000	5	1	0	5	0
32	261	10	10000	5	1	0	5	0
33	262	10	10000	5	1	0	5	0
33	263	10	10000	5	1	0	5	0
33	264	10	10000	5	1	0	5	0
35	265	10	10000	5	1	0	5	0
36	266	10	10000	5	1	0	5	0
36	267	10	10000	5	1	0	5	0
34	268	10	10000	5	1	0	5	0
33	269	10	10000	5	1	0	5	0
34	270	10	10000	5	1	0	5	0
33	271	10	10000	5	1	0	5	0
31	272	10	10000	5	1	0	5	0
32	273	10	10000	5	1	0	5	0
30	274	10	10000	5	1	0	5	0
29	275	10	10000	5	1	0	5	0
28	276	10	10000	5	1	0	5	0
29	277	10	10000	5	1	0	5	0
30	278	10	10000	5	1	0	5	0
31	279	10	10000	5	1	0	5	0
31	280	10	10000	5	1	0	5	0
30	281	10	10000	5	1	0	5	0
30	282	10	10000	5	1	0	5	0
30	283	10	10000	5	1	0	5	0
31	284	10	10000	5	1	0	5	0
31	285	10	10000	5	1	0	5	0
30	286	10	10000	5	1	0	5	0
29	287	10	10000	5	1	0	5	0
30	288	10	10000	5	1	0	5	0
30	289	10	10000	5	1	0	5	0
34	290	10	10000	5	1	0	5	0
35	291	10	10000	5	1	0	5	0
35	292	10	10000	5	1	0	5	0
34	293	10	10000	5	1	0	5	0
34	294	10	10000	5	1	0	5	0
32	295	10	10000	5	1	0	5	0
31	296	10	10000	5	1	0	5	0
30	297	10	10000	5	1	0	5	0
30	298	10	10000	5	1	0	5	0
29	299	10	10000	5	1	0	5	0
26	300	10	10000	5	1	0	5	0
26	301	10	10000	5	1	0	5	0
26	302	10	10000	5	1	0	5	0
26	303	10	10000	5	1	0	5	0
27	304	10	10000	5	1	0	5	0
26	305	10	10000	5	1	0	5	0
25	306	10	10000	5	1	0	5	0
25	307	10	10000	5	1	0	5	0
23	308	10	10000	5	1	0	5	0
23	309	10	10000	5	1	0	5	0
24	310	10	10000	5	1	0	5	0
24	311	10	10000	5	1	0	5	0
23	312	10	10000	5	1	0	5	0
23	313	10	10000	5	1	0	5	0
24	314	10	10000	5	1	0	5	0
27	315	10	10000	5	1	0	5	0
27	316	10	10000	5	1	0	5	0
28	317	10	10000	5	1	0	5	0
28	318	10	10000	5	1	0	5	0
28	319	10	10000	5	1	0	5	0
26	320	10	10000	5	1	0	5	0
25	321	10	10000	5	1	0	5	0
25	322	10	10000	5	1	0	5	0
26	323	10	10000	5	1	0	5	0
26	324	10	10000	5	1	0	5	0
25	325	10	10000	5	1	0	5	0
26	326	10	10000	5	1	0	5	0
27	327	10	10000	5	1	0	5	0
28	328	10	10000	5	1	0	5	0
26	329	10	10000	5	1	0	5	0
27	330	10	10000	5	1	0	5	0
27	331	10	10000	5	1	0	5	0
26	332	10	10000	5	1	0	5	0
26	333	10	10000	5	1	0	5	0
26	334	10	10000	5	1	0	5	0
26	335	10	10000	5	1	0	5	0
27	336	10	10000	5	1	0	5	0
27	337	10	10000	5	1	0	5	0
28	338	10	10000	5	1	0	5	0
26	339	10	10000	5	1	0	5	0
24	340	10	10000	5	1	0	5	0
24	341	10	10000	5	1	0	5	0
23	342	10	10000	5	1	0	5	0
23	343	10	10000	5	1	0	5	0
24	344	10	10000	5	1	0	5	0
24	345	10	10000	5	1	0	5	0
24	346	10	10000	5	1	0	5	0
25	347	10	10000	5	1	0	5	0
24	348	10	10000	5	1	0	5	0
23	349	10	10000	5	1	0	5	0
24	350	10	10000	5	1	0	5	0
25	351	10	10000	5	1	0	5	0
26	352	10	10000	5	1	0	5	0
27	353	10	10000	5	1	0	5	0
27	354	10	10000	5	1	0	5	0
26	355	10	10000	5	1	0	5	0
26	356	10	10000	5	1	0	5	0
28	357	10	10000	5	1	0	5	0
30	358	10	10000	5	1	0	5	0
28	359	10	10000	5	1	0	5	0
26	360	10	10000	5	1	0	5	0
25	361	10	10000	5	1	0	5	0
25	362	10	10000	5	1	0	5	0
26	363	10	10000	5	1	0	5	0
27	364	10	10000	5	1	0	5	0
26	365	10	10000	5	1	0	5	0
26	366	10	10000	5	1	0	5	0
28	367	10	10000	5	1	0	5	0
26	368	10	10000	5	1	0	5	0
27	369	10	10000	5	1	0	5	0
32	370	10	10000	5	1	0	5	0
36	371	10	10000	5	1	0	5	0
36	372	10	10000	5	1	0	5	0
36	373	10	10000	5	1	0	5	0
35	374	10	10000	5	1	0	5	0
35	375	10	10000	5	1	0	5	0
33	376	10	10000	5	1	0	5	0
32	377	10	10000	5	1	0	5	0
33	378	10	10000	5	1	0	5	0
33	379	10	10000	5	1	0	5	0
31	380	10	10000	5	1	0	5	0
32	381	10	10000	5	1	0	5	0
32	382	10	10000	5	1	0	5	0
32	383	10	10000	5	1	0	5	0
32	384	10	10000	5	1	0	5	0
31	385	10	10000	5	1	0	5	0
30	386	10	10000	5	1	0	5	0
29	387	10	10000	5	1	0	5	0
28	388	10	10000	5	1	0	5	0
26	389	10	10000	5	1	0	5	0
28	390	10	10000	5	1	0	5	0
27	391	10	10000	5	1	0	5	0
27	392	10	10000	5	1	0	5	0
26	393	10	10000	5	1	0	5	0
27	394	10	10000	5	1	0	5	0
27	395	10	10000	5	1	0	5	0
25	396	10	10000	5	1	0	5	0
25	397	10	10000	5	1	0	5	0
25	398	10	10000	5	1	0	5	0
25	399	10	10000	5	1	0	5	0
23	400	10	10000	5	1	0	5	0
23	401	10	10000	5	1	0	5	0
24	402	10	10000	5	1	0	5	0
24	403	10	10000	5	1	0	5	0
24	404	10	10000	5	1	0	5	0
25	405	10	10000	5	1	0	5	0
29	406	10	10000	5	1	0	5	0
30	407	10	10000	5	1	0	5	0
30	408	10	10000	5	1	0	5	0
29	409	10	10000	5	1	0	5	0
31	410	10	10000	5	1	0	5	0
31	411	10	10000	5	1	0	5	0
30	412	10	10000	5	1	0	5	0
29	413	10	10000	5	1	0	5	0
29	414	10	10000	5	1	0	5	0
29	415	10	10000	5	1	0	5	0
28	416	10	10000	5	1	0	5	0
27	417	10	10000	5	1	0	5	0
28	418	10	10000	5	1	0	5	0
30	419	10	10000	5	1	0	5	0
29	420	10	10000	5	1	0	5	0
31	421	10	10000	5	1	0	5	0
32	422	10	10000	5	1	0	5	0
31	423	10	10000	5	1	0	5	0
30	424	10	10000	5	1	0	5	0
30	425	10	10000	5	1	0	5	0
29	426	10	10000	5	1	0	5	0
28	427	10	10000	5	1	0	5	0
27	428	10	10000	5	1	0	5	0
29	429	10	10000	5	1	0	5	0
30	430	10	10000	5	1	0	5	0
32	431	10	10000	5	1	0	5	0
32	432	10	10000	5	1	0	5	0
31	433	10	10000	5	1	0	5	0
30	434	10	10000	5	1	0	5	0
30	435	10	10000	5	1	0	5	0
28	436	10	10000	5	1	0	5	0
27	437	10	10000	5	1	0	5	0
27	438	10	10000	5	1	0	5	0
27	439	10	10000	5	1	0	5	0
24	440	10	10000	5	1	0	5	0
24	441	10	10000	5	1	0	5	0
25	442	10	10000	5	1	0	5	0
27	443	10	10000	5	1	0	5	0
27	444	10	10000	5	1	0	5	0
27	445	10	10000	5	1	0	5	0
28	446	10	10000	5	1	0	5	0
26	447	10	10000	5	1	0	5	0
27	448	10	10000	5	1	0	5	0
28	449	10	10000	5	1	0	5	0
30	450	10	10000	5	1	0	5	0
29	451	10	10000	5	1	0	5	0
28	452	10	10000	5	1	0	5	0
27	453	10	10000	5	1	0	5	0
28	454	10	10000	5	1	0	5	0
27	455	10	10000	5	1	0	5	0
26	456	10	10000	5	1	0	5	0
26	457	10	10000	5	1	0	5	0
28	458	10	10000	5	1	0	5	0
30	459	10	10000	5	1	0	5	0
28	460	10	10000	5	1	0	5	0
27	461	10	10000	5	1	0	5	0
27	462	10	10000	5	1	0	5	0
27	463	10	10000	5	1	0	5	0
26	464	10	10000	5	1	0	5	0
25	465	10	10000	5	1	0	5	0
25	466	10	10000	5	1	0	5	0
24	467	10	10000	5	1	0	5	0
24	468	10	10000	5	1	0	5	0
24	469	10	10000	5	1	0	5	0
25	470	10	10000	5	1	0	5	0
24	471	10	10000	5	1	0	5	0
24	472	10	10000	5	1	0	5	0
25	473	10	10000	5	1	0	5	0
26	474	10	10000	5	1	0	5	0
25	475	10	10000	5	1	0	5	0
25	476	10	10000	5	1	0	5	0
25	477	10	10000	5	1	0	5	0
25	478	10	10000	5	1	0	5	0
24	479	10	10000	5	1	0	5	0
22	480	10	10000	5	1	0	5	0
22	481	10	10000	5	1	0	5	0
24	482	10	10000	5	1	0	5	0
25	483	10	10000	5	1	0	5	0
24	484	10	10000	5	1	0	5	0
25	485	10	10000	5	1	0	5	0
24	486	10	10000	5	1	0	5	0
23	487	10	10000	5	1	0	5	0
22	488	10	10000	5	1	0	5	0
21	489	10	10000	5	1	0	5	0
23	490	10	10000	5	1	0	5	0
21	491	10	10000	5	1	0	5	0
21	492	10	10000	5	1	0	5	0
20	493	10	10000	5	1	0	5	0
19	494	10	10000	5	1	0	5	0
20	495	10	10000	5	1	0	5	0
19	496	10	10000	5	1	0	5	0
20	497	10	10000	5	1	0	5	0
20	498	10	10000	5	1	0	5	0
20	499	10	10000	5	1	0	5	0
19	500	10	10000	5	1	0	5	0
17	501	10	10000	5	1	0	5	1
18	502	10	10000	5	1	0	5	1
18	503	10	10000	5	1	0	5	1
20	504	10	10000	5	1	0	5	1
22	505	10	10000	5	1	0	5	1
22	506	10	10000	5	1	0	5	1
21	507	10	10000	5	1	0	5	1
21	508	10	10000	5	1	0	5	1
20	509	10	10000	5	1	0	5	1
21	510	10	10000	5	1	0	5	1
22	511	10	10000	5	1	0	5	1
24	512	10	10000	5	1	0	5	1
23	513	10	10000	5	1	0	5	1
23	514	10	10000	5	1	0	5	1
22	515	10	10000	5	1	0	5	1
23	516	10	10000	5	1	0	5	1
25	517	10	10000	5	1	0	5	1
24	518	10	10000	5	1	0	5	1
24	519	10	10000	5	1	0	5	1
25	520	10	10000	5	1	0	5	1
26	521	10	10000	5	1	0	5	1
30	522	10	10000	5	1	0	5	1
32	523	10	10000	5	1	0	5	1
35	524	10	10000	5	1	0	5	1
36	525	10	10000	5	1	0	5	1
35	526	10	10000	5	1	0	5	1
34	527	10	10000	5	1	0	5	1
34	528	10	10000	5	1	0	5	1
33	529	10	10000	5	1	0	5	1
34	530	10	10000	5	1	0	5	1
33	531	10	10000	5	1	0	5	1
32	532	10	10000	5	1	0	5	1
32	533	10	10000	5	1	0	5	1
31	534	10	10000	5	1	0	5	1
29	535	10	10000	5	1	0	5	1
29	536	10	10000	5	1	0	5	1
30	537	10	10000	5	1	0	5	1
28	538	10	10000	5	1	0	5	1
28	539	10	10000	5	1	0	5	1
25	540	10	10000	5	1	0	5	1
25	541	10	10000	5	1	0	5	1
25	542	10	10000	5	1	0	5	1
25	543	10	10000	5	1	0	5	1
26	544	10	10000	5	1	0	5	1
25	545	10	10000	5	1	0	5	1
24	546	10	10000	5	1	0	5	1
23	547	10	10000	5	1	0	5	1
22	548	10	10000	5	1	0	5	1
22	549	10	10000	5	1	0	5	1
25	550	10	10000	5	1	0	5	1
28	551	10	10000	5	1	0	5	0
28	552	10	10000	5	1	0	5	0
27	553	10	10000	5	1	0	5	0
29	554	10	10000	5	1	0	5	0
28	555	10	10000	5	1	0	5	0
27	556	10	10000	5	1	0	5	0
28	557	10	10000	5	1	0	5	0
30	558	10	10000	5	1	0	5	0
33	559	10	10000	5	1	0	5	0
32	560	10	10000	5	1	0	5	0
33	561	10	10000	5	1	0	5	0
33	562	10	10000	5	1	0	5	0
33	563	10	10000	5	1	0	5	0
33	564	10	10000	5	1	0	5	0
32	565	10	10000	5	1	0	5	0
31	566	10	10000	5	1	0	5	0
30	567	10	10000	5	1	0	5	0
30	568	10	10000	5	1	0	5	0
30	569	10	10000	5	1	0	5	0
33	570	10	10000	5	1	0	5	0
33	571	10	10000	5	1	0	5	0
31	572	10	10000	5	1	0	5	0
31	573	10	10000	5	1	0	5	0
30	574	10	10000	5	1	0	5	0
29	575	10	10000	5	1	0	5	0
28	576	10	10000	5	1	0	5	0
27	577	10	10000	5	1	0	5	0
26	578	10	10000	5	1	0	5	0
25	579	10	10000	5	1	0	5	0
24	580	10	10000	5	1	0	5	0
24	581	10	10000	5	1	0	5	0
24	582	10	10000	5	1	0	5	0
24	583	10	10000	5	1	0	5	0
25	584	10	10000	5	1	0	5	0
26	585	10	10000	5	1	0	5	0
26	586	10	10000	5	1	0	5	0
25	587	10	10000	5	1	0	5	0
26	588	10	10000	5	1	0	5	0
24	589	10	10000	5	1	0	5	0
29	590	10	10000	5	1	0	5	0
33	591	10	10000	5	1	0	5	0
35	592	10	10000	5	1	0	5	0
56	593	10	10000	5	1	0	5	0
85	594	10	10000	5	1	0	5	0
91	595	10	10000	5	1	0	5	0
94	596	10	10000	5	1	0	5	0
107	597	10	10000	5	1	0	5	0
124	598	10	10000	5	1	0	5	0
131	599	10	10000	5	1	0	5	0
127	600	10	10000	5	1	0	5	0
122	601	10	10000	5	1	0	5	0
125	602	10	10000	5	1	0	5	0
123	603	10	10000	5	1	0	5	0
118	604	10	10000	5	1	0	5	0
128	605	10	10000	5	1	0	5	0
151	606	10	10000	5	1	0	5	0
165	607	10	10000	5	1	0	5	0
176	608	10	10000	5	1	0	5	0
176	609	10	10000	5	1	0	5	0
207	610	10	10000	5	1	0	5	0
242	611	10	10000	5	1	0	5	0
248	612	10	10000	5	1	0	5	0
241	613	10	10000	5	1	0	5	0
239	614	10	10000	5	1	0	5	0
265	615	10	10000	5	1	0	5	0
315	616	10	10000	5	1	0	5	0
329	617	10	10000	5	1	0	5	0
337	618	10	10000	5	1	0	5	0
375	619	10	10000	5	1	0	5	0
406	620	10	10000	5	1	0	5	0
423	621	10	10000	5	1	0	5	0
426	622	10	10000	5	1	0	5	0
412	623	10	10000	5	1	0	5	0
403	624	10	10000	5	1	0	5	0
419	625	10	10000	5	1	0	5	0
469	626	10	10000	5	1	0	5	0
495	627	10	10000	5	1	0	5	0
480	628	10	10000	5	1	0	5	0
480	629	10	10000	5	1	0	5	0
489	630	10	10000	5	1	0	5	0
502	631	10	10000	5	1	0	5	0
516	632	10	10000	5	1	0	5	0
513	633	10	10000	5	1	0	5	0
492	634	10	10000	5	1	0	5	0
472	635	10	10000	5	1	0	5	0
456	636	10	10000	5	1	0	5	0
447	637	10	10000	5	1	0	5	0
440	638	10	10000	5	1	0	5	0
431	639	10	10000	5	1	0	5	0
422	640	10	10000	5	1	0	5	0
415	641	10	10000	5	1	0	5	0
405	642	10	10000	5	1	0	5	0
395	643	10	10000	5	1	0	5	0
384	644	10	10000	5	1	0	5	0
373	645	10	10000	5	1	0	5	0
361	646	10	10000	5	1	0	5	0
348	647	10	10000	5	1	0	5	0
334	648	10	10000	5	1	0	5	0
320	649	10	10000	5	1	0	5	0
309	650	10	10000	5	1	0	5	0
297	651	10	10000	5	1	0	5	0
283	652	10	10000	5	1	0	5	0
271	653	10	10000	5	1	0	5	0
259	654	10	10000	5	1	0	5	0
249	655	10	10000	5	1	0	5	0
239	656	10	10000	5	1	0	5	0
233	657	10	10000	5	1	0	5	0
225	658	10	10000	5	1	0	5	0
221	659	10	10000	5	1	0	5	0
216	660	10	10000	5	1	0	5	0
213	661	10	10000	5	1	0	5	0
213	662	10	10000	5	1	0	5	0
210	663	10	10000	5	1	0	5	0
208	664	10	10000	5	1	0	5	0
208	665	10	10000	5	1	0	5	0
206	666	10	10000	5	1	0	5	0
203	667	10	10000	5	1	0	5	0
201	668	10	10000	5	1	0	5	0
199	669	10	10000	5	1	0	5	0
199	670	10	10000	5	1	0	5	0
199	671	10	10000	5	1	0	5	0
197	672	10	10000	5	1	0	5	0
195	673	10	10000	5	1	0	5	0
192	674	10	10000	5	1	0	5	0
189	675	10	10000	5	1	0	5	0
184	676	10	10000	5	1	0	5	0
180	677	10	10000	5	1	0	5	0
177	678	10	10000	5	1	0	5	0
175	679	10	10000	5	1	0	5	0
169	680	10	10000	5	1	0	5	0
166	681	10	10000	5	1	0	5	0
164	682	10	10000	5	1	0	5	0
160	683	10	10000	5	1	0	5	0
156	684	10	10000	5	1	0	5	0
153	685	10	10000	5	1	0	5	0
148	686	10	10000	5	1	0	5	0
142	687	10	10000	5	1	0	5	0
137	688	10	10000	5	1	0	5	0
131	689	10	10000	5	1	0	5	0
128	690	10	10000	5	1	0	5	0
122	691	10	10000	5	1	0	5	0
116	692	10	10000	5	1	0	5	0
113	693	10	10000	5	1	0	5	0
109	694	10	10000	5	1	0	5	0
105	695	10	10000	5	1	0	5	0
103	696	10	10000	5	1	0	5	0
101	697	10	10000	5	1	0	5	0
97	698	10	10000	5	1	0	5	0
94	699	10	10000	5	1	0	5	0
89	700	10	10000	5	1	0	5	0
86	701	10	10000	5	1	0	5	0
83	702	10	10000	5	1	0	5	0
80	703	10	10000	5	1	0	5	0
78	704	10	10000	5	1	0	5	0
75	705	10	10000	5	1	0	5	0
75	706	10	10000	5	1	0	5	0
73	707	10	10000	5	1	0	5	0
70	708	10	10000	5	1	0	5	0
68	709	10	10000	5	1	0	5	0
67	710	10	10000	5	1	0	5	0
64	711	10	10000	5	1	0	5	0
64	712	10	10000	5	1	0	5	0
65	713	10	10000	5	1	0	5	0
