value	EMG	Stimulus	EMG_sensitivity	Total_Trial_Nr	practise	acq	probe_nr	Startle_Probe
79	1	7	10000	1	1	0	1	0
77	2	7	10000	1	1	0	1	0
74	3	7	10000	1	1	0	1	0
72	4	7	10000	1	1	0	1	0
69	5	7	10000	1	1	0	1	0
67	6	7	10000	1	1	0	1	0
64	7	7	10000	1	1	0	1	0
62	8	7	10000	1	1	0	1	0
60	9	7	10000	1	1	0	1	0
58	10	7	10000	1	1	0	1	0
56	11	7	10000	1	1	0	1	0
55	12	7	10000	1	1	0	1	0
53	13	7	10000	1	1	0	1	0
50	14	7	10000	1	1	0	1	0
49	15	7	10000	1	1	0	1	0
48	16	7	10000	1	1	0	1	0
48	17	7	10000	1	1	0	1	0
49	18	7	10000	1	1	0	1	0
51	19	7	10000	1	1	0	1	0
50	20	7	10000	1	1	0	1	0
49	21	7	10000	1	1	0	1	0
49	22	7	10000	1	1	0	1	0
48	23	7	10000	1	1	0	1	0
50	24	7	10000	1	1	0	1	0
48	25	7	10000	1	1	0	1	0
46	26	7	10000	1	1	0	1	0
44	27	7	10000	1	1	0	1	0
44	28	7	10000	1	1	0	1	0
42	29	7	10000	1	1	0	1	0
42	30	7	10000	1	1	0	1	0
41	31	7	10000	1	1	0	1	0
40	32	7	10000	1	1	0	1	0
39	33	7	10000	1	1	0	1	0
36	34	7	10000	1	1	0	1	0
35	35	7	10000	1	1	0	1	0
33	36	7	10000	1	1	0	1	0
34	37	7	10000	1	1	0	1	0
33	38	7	10000	1	1	0	1	0
32	39	7	10000	1	1	0	1	0
33	40	7	10000	1	1	0	1	0
33	41	7	10000	1	1	0	1	0
32	42	7	10000	1	1	0	1	0
31	43	7	10000	1	1	0	1	0
33	44	7	10000	1	1	0	1	0
32	45	7	10000	1	1	0	1	0
30	46	7	10000	1	1	0	1	0
29	47	7	10000	1	1	0	1	0
30	48	7	10000	1	1	0	1	0
28	49	7	10000	1	1	0	1	0
28	50	7	10000	1	1	0	1	0
30	51	7	10000	1	1	0	1	0
30	52	7	10000	1	1	0	1	0
31	53	7	10000	1	1	0	1	0
28	54	7	10000	1	1	0	1	0
27	55	7	10000	1	1	0	1	0
28	56	7	10000	1	1	0	1	0
27	57	7	10000	1	1	0	1	0
27	58	7	10000	1	1	0	1	0
27	59	7	10000	1	1	0	1	0
26	60	7	10000	1	1	0	1	0
25	61	7	10000	1	1	0	1	0
25	62	7	10000	1	1	0	1	0
24	63	7	10000	1	1	0	1	0
26	64	7	10000	1	1	0	1	0
25	65	7	10000	1	1	0	1	0
24	66	7	10000	1	1	0	1	0
24	67	7	10000	1	1	0	1	0
24	68	7	10000	1	1	0	1	0
23	69	7	10000	1	1	0	1	0
22	70	7	10000	1	1	0	1	0
24	71	7	10000	1	1	0	1	0
23	72	7	10000	1	1	0	1	0
23	73	7	10000	1	1	0	1	0
23	74	7	10000	1	1	0	1	0
23	75	7	10000	1	1	0	1	0
24	76	7	10000	1	1	0	1	0
25	77	7	10000	1	1	0	1	0
23	78	7	10000	1	1	0	1	0
23	79	7	10000	1	1	0	1	0
24	80	7	10000	1	1	0	1	0
23	81	7	10000	1	1	0	1	0
22	82	7	10000	1	1	0	1	0
23	83	7	10000	1	1	0	1	0
26	84	7	10000	1	1	0	1	0
25	85	7	10000	1	1	0	1	0
26	86	7	10000	1	1	0	1	0
25	87	7	10000	1	1	0	1	0
25	88	7	10000	1	1	0	1	0
24	89	7	10000	1	1	0	1	0
24	90	7	10000	1	1	0	1	0
24	91	7	10000	1	1	0	1	0
24	92	7	10000	1	1	0	1	0
25	93	7	10000	1	1	0	1	0
22	94	7	10000	1	1	0	1	0
22	95	7	10000	1	1	0	1	0
22	96	7	10000	1	1	0	1	0
21	97	7	10000	1	1	0	1	0
21	98	7	10000	1	1	0	1	0
21	99	7	10000	1	1	0	1	0
20	100	7	10000	1	1	0	1	0
20	101	7	10000	1	1	0	1	0
20	102	7	10000	1	1	0	1	0
19	103	7	10000	1	1	0	1	0
20	104	7	10000	1	1	0	1	0
20	105	7	10000	1	1	0	1	0
19	106	7	10000	1	1	0	1	0
20	107	7	10000	1	1	0	1	0
20	108	7	10000	1	1	0	1	0
22	109	7	10000	1	1	0	1	0
24	110	7	10000	1	1	0	1	0
24	111	7	10000	1	1	0	1	0
25	112	7	10000	1	1	0	1	0
25	113	7	10000	1	1	0	1	0
24	114	7	10000	1	1	0	1	0
25	115	7	10000	1	1	0	1	0
25	116	7	10000	1	1	0	1	0
27	117	7	10000	1	1	0	1	0
28	118	7	10000	1	1	0	1	0
28	119	7	10000	1	1	0	1	0
29	120	7	10000	1	1	0	1	0
28	121	7	10000	1	1	0	1	0
30	122	7	10000	1	1	0	1	0
30	123	7	10000	1	1	0	1	0
30	124	7	10000	1	1	0	1	0
29	125	7	10000	1	1	0	1	0
30	126	7	10000	1	1	0	1	0
28	127	7	10000	1	1	0	1	0
29	128	7	10000	1	1	0	1	0
28	129	7	10000	1	1	0	1	0
27	130	7	10000	1	1	0	1	0
29	131	7	10000	1	1	0	1	0
29	132	7	10000	1	1	0	1	0
28	133	7	10000	1	1	0	1	0
25	134	7	10000	1	1	0	1	0
25	135	7	10000	1	1	0	1	0
25	136	7	10000	1	1	0	1	0
26	137	7	10000	1	1	0	1	0
26	138	7	10000	1	1	0	1	0
27	139	7	10000	1	1	0	1	0
27	140	7	10000	1	1	0	1	0
27	141	7	10000	1	1	0	1	0
27	142	7	10000	1	1	0	1	0
28	143	7	10000	1	1	0	1	0
30	144	7	10000	1	1	0	1	0
29	145	7	10000	1	1	0	1	0
28	146	7	10000	1	1	0	1	0
27	147	7	10000	1	1	0	1	0
26	148	7	10000	1	1	0	1	0
25	149	7	10000	1	1	0	1	0
25	150	7	10000	1	1	0	1	0
25	151	7	10000	1	1	0	1	0
24	152	7	10000	1	1	0	1	0
23	153	7	10000	1	1	0	1	0
21	154	7	10000	1	1	0	1	0
20	155	7	10000	1	1	0	1	0
21	156	7	10000	1	1	0	1	0
22	157	7	10000	1	1	0	1	0
21	158	7	10000	1	1	0	1	0
21	159	7	10000	1	1	0	1	0
22	160	7	10000	1	1	0	1	0
20	161	7	10000	1	1	0	1	0
20	162	7	10000	1	1	0	1	0
20	163	7	10000	1	1	0	1	0
22	164	7	10000	1	1	0	1	0
20	165	7	10000	1	1	0	1	0
21	166	7	10000	1	1	0	1	0
20	167	7	10000	1	1	0	1	0
20	168	7	10000	1	1	0	1	0
20	169	7	10000	1	1	0	1	0
19	170	7	10000	1	1	0	1	0
20	171	7	10000	1	1	0	1	0
20	172	7	10000	1	1	0	1	0
21	173	7	10000	1	1	0	1	0
18	174	7	10000	1	1	0	1	0
18	175	7	10000	1	1	0	1	0
19	176	7	10000	1	1	0	1	0
18	177	7	10000	1	1	0	1	0
19	178	7	10000	1	1	0	1	0
18	179	7	10000	1	1	0	1	0
20	180	7	10000	1	1	0	1	0
18	181	7	10000	1	1	0	1	0
18	182	7	10000	1	1	0	1	0
18	183	7	10000	1	1	0	1	0
21	184	7	10000	1	1	0	1	0
24	185	7	10000	1	1	0	1	0
26	186	7	10000	1	1	0	1	0
27	187	7	10000	1	1	0	1	0
27	188	7	10000	1	1	0	1	0
26	189	7	10000	1	1	0	1	0
25	190	7	10000	1	1	0	1	0
25	191	7	10000	1	1	0	1	0
25	192	7	10000	1	1	0	1	0
25	193	7	10000	1	1	0	1	0
23	194	7	10000	1	1	0	1	0
22	195	7	10000	1	1	0	1	0
22	196	7	10000	1	1	0	1	0
22	197	7	10000	1	1	0	1	0
21	198	7	10000	1	1	0	1	0
21	199	7	10000	1	1	0	1	0
22	200	7	10000	1	1	0	1	0
21	201	7	10000	1	1	0	1	0
20	202	7	10000	1	1	0	1	0
20	203	7	10000	1	1	0	1	0
20	204	7	10000	1	1	0	1	0
20	205	7	10000	1	1	0	1	0
20	206	7	10000	1	1	0	1	0
20	207	7	10000	1	1	0	1	0
20	208	7	10000	1	1	0	1	0
20	209	7	10000	1	1	0	1	0
19	210	7	10000	1	1	0	1	0
19	211	7	10000	1	1	0	1	0
20	212	7	10000	1	1	0	1	0
21	213	7	10000	1	1	0	1	0
21	214	7	10000	1	1	0	1	0
21	215	7	10000	1	1	0	1	0
24	216	7	10000	1	1	0	1	0
24	217	7	10000	1	1	0	1	0
23	218	7	10000	1	1	0	1	0
25	219	7	10000	1	1	0	1	0
26	220	7	10000	1	1	0	1	0
27	221	7	10000	1	1	0	1	0
27	222	7	10000	1	1	0	1	0
26	223	7	10000	1	1	0	1	0
27	224	7	10000	1	1	0	1	0
27	225	7	10000	1	1	0	1	0
25	226	7	10000	1	1	0	1	0
24	227	7	10000	1	1	0	1	0
24	228	7	10000	1	1	0	1	0
25	229	7	10000	1	1	0	1	0
23	230	7	10000	1	1	0	1	0
23	231	7	10000	1	1	0	1	0
24	232	7	10000	1	1	0	1	0
24	233	7	10000	1	1	0	1	0
23	234	7	10000	1	1	0	1	0
24	235	7	10000	1	1	0	1	0
23	236	7	10000	1	1	0	1	0
25	237	7	10000	1	1	0	1	0
23	238	7	10000	1	1	0	1	0
23	239	7	10000	1	1	0	1	0
24	240	7	10000	1	1	0	1	0
22	241	7	10000	1	1	0	1	0
22	242	7	10000	1	1	0	1	0
22	243	7	10000	1	1	0	1	0
23	244	7	10000	1	1	0	1	0
22	245	7	10000	1	1	0	1	0
22	246	7	10000	1	1	0	1	0
21	247	7	10000	1	1	0	1	0
20	248	7	10000	1	1	0	1	0
21	249	7	10000	1	1	0	1	0
20	250	7	10000	1	1	0	1	0
20	251	7	10000	1	1	0	1	0
21	252	7	10000	1	1	0	1	0
20	253	7	10000	1	1	0	1	0
18	254	7	10000	1	1	0	1	0
19	255	7	10000	1	1	0	1	0
18	256	7	10000	1	1	0	1	0
20	257	7	10000	1	1	0	1	0
21	258	7	10000	1	1	0	1	0
22	259	7	10000	1	1	0	1	0
22	260	7	10000	1	1	0	1	0
22	261	7	10000	1	1	0	1	0
22	262	7	10000	1	1	0	1	0
22	263	7	10000	1	1	0	1	0
25	264	7	10000	1	1	0	1	0
25	265	7	10000	1	1	0	1	0
24	266	7	10000	1	1	0	1	0
23	267	7	10000	1	1	0	1	0
22	268	7	10000	1	1	0	1	0
21	269	7	10000	1	1	0	1	0
21	270	7	10000	1	1	0	1	0
21	271	7	10000	1	1	0	1	0
22	272	7	10000	1	1	0	1	0
21	273	7	10000	1	1	0	1	0
20	274	7	10000	1	1	0	1	0
19	275	7	10000	1	1	0	1	0
19	276	7	10000	1	1	0	1	0
20	277	7	10000	1	1	0	1	0
20	278	7	10000	1	1	0	1	0
19	279	7	10000	1	1	0	1	0
20	280	7	10000	1	1	0	1	0
19	281	7	10000	1	1	0	1	0
18	282	7	10000	1	1	0	1	0
20	283	7	10000	1	1	0	1	0
20	284	7	10000	1	1	0	1	0
19	285	7	10000	1	1	0	1	0
19	286	7	10000	1	1	0	1	0
19	287	7	10000	1	1	0	1	0
19	288	7	10000	1	1	0	1	0
18	289	7	10000	1	1	0	1	0
17	290	7	10000	1	1	0	1	0
18	291	7	10000	1	1	0	1	0
19	292	7	10000	1	1	0	1	0
20	293	7	10000	1	1	0	1	0
18	294	7	10000	1	1	0	1	0
18	295	7	10000	1	1	0	1	0
18	296	7	10000	1	1	0	1	0
19	297	7	10000	1	1	0	1	0
19	298	7	10000	1	1	0	1	0
20	299	7	10000	1	1	0	1	0
21	300	7	10000	1	1	0	1	0
23	301	7	10000	1	1	0	1	0
23	302	7	10000	1	1	0	1	0
22	303	7	10000	1	1	0	1	0
23	304	7	10000	1	1	0	1	0
23	305	7	10000	1	1	0	1	0
22	306	7	10000	1	1	0	1	0
21	307	7	10000	1	1	0	1	0
21	308	7	10000	1	1	0	1	0
21	309	7	10000	1	1	0	1	0
20	310	7	10000	1	1	0	1	0
20	311	7	10000	1	1	0	1	0
21	312	7	10000	1	1	0	1	0
21	313	7	10000	1	1	0	1	0
20	314	7	10000	1	1	0	1	0
20	315	7	10000	1	1	0	1	0
21	316	7	10000	1	1	0	1	0
22	317	7	10000	1	1	0	1	0
22	318	7	10000	1	1	0	1	0
21	319	7	10000	1	1	0	1	0
22	320	7	10000	1	1	0	1	0
21	321	7	10000	1	1	0	1	0
21	322	7	10000	1	1	0	1	0
21	323	7	10000	1	1	0	1	0
22	324	7	10000	1	1	0	1	0
21	325	7	10000	1	1	0	1	0
22	326	7	10000	1	1	0	1	0
20	327	7	10000	1	1	0	1	0
20	328	7	10000	1	1	0	1	0
20	329	7	10000	1	1	0	1	0
21	330	7	10000	1	1	0	1	0
21	331	7	10000	1	1	0	1	0
22	332	7	10000	1	1	0	1	0
23	333	7	10000	1	1	0	1	0
24	334	7	10000	1	1	0	1	0
25	335	7	10000	1	1	0	1	0
25	336	7	10000	1	1	0	1	0
26	337	7	10000	1	1	0	1	0
27	338	7	10000	1	1	0	1	0
27	339	7	10000	1	1	0	1	0
27	340	7	10000	1	1	0	1	0
26	341	7	10000	1	1	0	1	0
25	342	7	10000	1	1	0	1	0
25	343	7	10000	1	1	0	1	0
26	344	7	10000	1	1	0	1	0
26	345	7	10000	1	1	0	1	0
25	346	7	10000	1	1	0	1	0
25	347	7	10000	1	1	0	1	0
24	348	7	10000	1	1	0	1	0
23	349	7	10000	1	1	0	1	0
24	350	7	10000	1	1	0	1	0
23	351	7	10000	1	1	0	1	0
24	352	7	10000	1	1	0	1	0
23	353	7	10000	1	1	0	1	0
23	354	7	10000	1	1	0	1	0
22	355	7	10000	1	1	0	1	0
22	356	7	10000	1	1	0	1	0
23	357	7	10000	1	1	0	1	0
22	358	7	10000	1	1	0	1	0
22	359	7	10000	1	1	0	1	0
22	360	7	10000	1	1	0	1	0
20	361	7	10000	1	1	0	1	0
20	362	7	10000	1	1	0	1	0
20	363	7	10000	1	1	0	1	0
22	364	7	10000	1	1	0	1	0
21	365	7	10000	1	1	0	1	0
22	366	7	10000	1	1	0	1	0
21	367	7	10000	1	1	0	1	0
22	368	7	10000	1	1	0	1	0
22	369	7	10000	1	1	0	1	0
21	370	7	10000	1	1	0	1	0
24	371	7	10000	1	1	0	1	0
24	372	7	10000	1	1	0	1	0
24	373	7	10000	1	1	0	1	0
21	374	7	10000	1	1	0	1	0
21	375	7	10000	1	1	0	1	0
21	376	7	10000	1	1	0	1	0
21	377	7	10000	1	1	0	1	0
21	378	7	10000	1	1	0	1	0
22	379	7	10000	1	1	0	1	0
22	380	7	10000	1	1	0	1	0
23	381	7	10000	1	1	0	1	0
23	382	7	10000	1	1	0	1	0
23	383	7	10000	1	1	0	1	0
25	384	7	10000	1	1	0	1	0
24	385	7	10000	1	1	0	1	0
23	386	7	10000	1	1	0	1	0
22	387	7	10000	1	1	0	1	0
21	388	7	10000	1	1	0	1	0
22	389	7	10000	1	1	0	1	0
21	390	7	10000	1	1	0	1	0
22	391	7	10000	1	1	0	1	0
22	392	7	10000	1	1	0	1	0
23	393	7	10000	1	1	0	1	0
21	394	7	10000	1	1	0	1	0
21	395	7	10000	1	1	0	1	0
21	396	7	10000	1	1	0	1	0
22	397	7	10000	1	1	0	1	0
21	398	7	10000	1	1	0	1	0
20	399	7	10000	1	1	0	1	0
21	400	7	10000	1	1	0	1	0
20	401	7	10000	1	1	0	1	0
19	402	7	10000	1	1	0	1	0
19	403	7	10000	1	1	0	1	0
20	404	7	10000	1	1	0	1	0
20	405	7	10000	1	1	0	1	0
21	406	7	10000	1	1	0	1	0
20	407	7	10000	1	1	0	1	0
19	408	7	10000	1	1	0	1	0
20	409	7	10000	1	1	0	1	0
20	410	7	10000	1	1	0	1	0
21	411	7	10000	1	1	0	1	0
22	412	7	10000	1	1	0	1	0
22	413	7	10000	1	1	0	1	0
20	414	7	10000	1	1	0	1	0
19	415	7	10000	1	1	0	1	0
19	416	7	10000	1	1	0	1	0
19	417	7	10000	1	1	0	1	0
19	418	7	10000	1	1	0	1	0
20	419	7	10000	1	1	0	1	0
21	420	7	10000	1	1	0	1	0
22	421	7	10000	1	1	0	1	0
21	422	7	10000	1	1	0	1	0
22	423	7	10000	1	1	0	1	0
23	424	7	10000	1	1	0	1	0
22	425	7	10000	1	1	0	1	0
22	426	7	10000	1	1	0	1	0
21	427	7	10000	1	1	0	1	0
22	428	7	10000	1	1	0	1	0
21	429	7	10000	1	1	0	1	0
20	430	7	10000	1	1	0	1	0
21	431	7	10000	1	1	0	1	0
21	432	7	10000	1	1	0	1	0
20	433	7	10000	1	1	0	1	0
19	434	7	10000	1	1	0	1	0
19	435	7	10000	1	1	0	1	0
19	436	7	10000	1	1	0	1	0
19	437	7	10000	1	1	0	1	0
18	438	7	10000	1	1	0	1	0
18	439	7	10000	1	1	0	1	0
19	440	7	10000	1	1	0	1	0
18	441	7	10000	1	1	0	1	0
18	442	7	10000	1	1	0	1	0
19	443	7	10000	1	1	0	1	0
20	444	7	10000	1	1	0	1	0
20	445	7	10000	1	1	0	1	0
20	446	7	10000	1	1	0	1	0
21	447	7	10000	1	1	0	1	0
20	448	7	10000	1	1	0	1	0
20	449	7	10000	1	1	0	1	0
19	450	7	10000	1	1	0	1	0
20	451	7	10000	1	1	0	1	0
21	452	7	10000	1	1	0	1	0
23	453	7	10000	1	1	0	1	0
22	454	7	10000	1	1	0	1	0
22	455	7	10000	1	1	0	1	0
23	456	7	10000	1	1	0	1	0
23	457	7	10000	1	1	0	1	0
22	458	7	10000	1	1	0	1	0
23	459	7	10000	1	1	0	1	0
22	460	7	10000	1	1	0	1	0
21	461	7	10000	1	1	0	1	0
20	462	7	10000	1	1	0	1	0
20	463	7	10000	1	1	0	1	0
21	464	7	10000	1	1	0	1	0
21	465	7	10000	1	1	0	1	0
22	466	7	10000	1	1	0	1	0
21	467	7	10000	1	1	0	1	0
21	468	7	10000	1	1	0	1	0
20	469	7	10000	1	1	0	1	0
20	470	7	10000	1	1	0	1	0
22	471	7	10000	1	1	0	1	0
24	472	7	10000	1	1	0	1	0
23	473	7	10000	1	1	0	1	0
22	474	7	10000	1	1	0	1	0
22	475	7	10000	1	1	0	1	0
22	476	7	10000	1	1	0	1	0
22	477	7	10000	1	1	0	1	0
22	478	7	10000	1	1	0	1	0
23	479	7	10000	1	1	0	1	0
24	480	7	10000	1	1	0	1	0
22	481	7	10000	1	1	0	1	0
22	482	7	10000	1	1	0	1	0
22	483	7	10000	1	1	0	1	0
23	484	7	10000	1	1	0	1	0
22	485	7	10000	1	1	0	1	0
22	486	7	10000	1	1	0	1	0
21	487	7	10000	1	1	0	1	0
22	488	7	10000	1	1	0	1	0
23	489	7	10000	1	1	0	1	0
23	490	7	10000	1	1	0	1	0
23	491	7	10000	1	1	0	1	0
24	492	7	10000	1	1	0	1	0
24	493	7	10000	1	1	0	1	0
22	494	7	10000	1	1	0	1	0
21	495	7	10000	1	1	0	1	0
21	496	7	10000	1	1	0	1	0
22	497	7	10000	1	1	0	1	0
24	498	7	10000	1	1	0	1	0
24	499	7	10000	1	1	0	1	0
24	500	7	10000	1	1	0	1	0
23	546	7	10000	1	1	0	1	1
23	547	7	10000	1	1	0	1	1
23	548	7	10000	1	1	0	1	1
24	549	7	10000	1	1	0	1	1
24	550	7	10000	1	1	0	1	1
25	551	7	10000	1	1	0	1	1
24	552	7	10000	1	1	0	1	1
25	553	7	10000	1	1	0	1	1
24	554	7	10000	1	1	0	1	1
24	555	7	10000	1	1	0	1	1
24	556	7	10000	1	1	0	1	1
24	557	7	10000	1	1	0	1	1
24	558	7	10000	1	1	0	1	1
22	559	7	10000	1	1	0	1	1
21	560	7	10000	1	1	0	1	1
21	561	7	10000	1	1	0	1	1
21	562	7	10000	1	1	0	1	1
21	563	7	10000	1	1	0	1	1
21	564	7	10000	1	1	0	1	1
21	565	7	10000	1	1	0	1	1
19	566	7	10000	1	1	0	1	1
18	567	7	10000	1	1	0	1	1
19	568	7	10000	1	1	0	1	1
19	569	7	10000	1	1	0	1	1
20	570	7	10000	1	1	0	1	1
21	571	7	10000	1	1	0	1	1
20	572	7	10000	1	1	0	1	1
20	573	7	10000	1	1	0	1	1
20	574	7	10000	1	1	0	1	1
19	575	7	10000	1	1	0	1	1
20	576	7	10000	1	1	0	1	1
20	577	7	10000	1	1	0	1	1
19	578	7	10000	1	1	0	1	1
17	579	7	10000	1	1	0	1	1
17	580	7	10000	1	1	0	1	1
18	581	7	10000	1	1	0	1	1
19	582	7	10000	1	1	0	1	1
19	583	7	10000	1	1	0	1	1
20	584	7	10000	1	1	0	1	1
20	585	7	10000	1	1	0	1	1
19	586	7	10000	1	1	0	1	1
18	587	7	10000	1	1	0	1	1
19	588	7	10000	1	1	0	1	1
21	589	7	10000	1	1	0	1	1
21	590	7	10000	1	1	0	1	1
20	591	7	10000	1	1	0	1	1
19	553	7	10000	1	1	0	1	1
19	554	7	10000	1	1	0	1	1
19	555	7	10000	1	1	0	1	1
19	556	7	10000	1	1	0	1	1
20	557	7	10000	1	1	0	1	1
20	558	7	10000	1	1	0	1	1
20	559	7	10000	1	1	0	1	1
18	560	7	10000	1	1	0	1	1
18	554	7	10000	1	1	0	1	0
19	555	7	10000	1	1	0	1	0
20	557	7	10000	1	1	0	1	0
19	558	7	10000	1	1	0	1	0
20	559	7	10000	1	1	0	1	0
20	560	7	10000	1	1	0	1	0
19	561	7	10000	1	1	0	1	0
18	562	7	10000	1	1	0	1	0
20	563	7	10000	1	1	0	1	0
22	564	7	10000	1	1	0	1	0
22	565	7	10000	1	1	0	1	0
23	566	7	10000	1	1	0	1	0
22	567	7	10000	1	1	0	1	0
23	568	7	10000	1	1	0	1	0
23	569	7	10000	1	1	0	1	0
22	570	7	10000	1	1	0	1	0
22	571	7	10000	1	1	0	1	0
22	572	7	10000	1	1	0	1	0
22	573	7	10000	1	1	0	1	0
20	574	7	10000	1	1	0	1	0
20	575	7	10000	1	1	0	1	0
20	576	7	10000	1	1	0	1	0
20	577	7	10000	1	1	0	1	0
20	578	7	10000	1	1	0	1	0
20	579	7	10000	1	1	0	1	0
20	580	7	10000	1	1	0	1	0
20	581	7	10000	1	1	0	1	0
19	582	7	10000	1	1	0	1	0
19	583	7	10000	1	1	0	1	0
20	584	7	10000	1	1	0	1	0
20	585	7	10000	1	1	0	1	0
20	586	7	10000	1	1	0	1	0
21	587	7	10000	1	1	0	1	0
23	588	7	10000	1	1	0	1	0
24	589	7	10000	1	1	0	1	0
23	590	7	10000	1	1	0	1	0
24	591	7	10000	1	1	0	1	0
24	592	7	10000	1	1	0	1	0
23	593	7	10000	1	1	0	1	0
23	594	7	10000	1	1	0	1	0
24	595	7	10000	1	1	0	1	0
25	596	7	10000	1	1	0	1	0
26	597	7	10000	1	1	0	1	0
25	598	7	10000	1	1	0	1	0
25	599	7	10000	1	1	0	1	0
25	600	7	10000	1	1	0	1	0
23	601	7	10000	1	1	0	1	0
22	602	7	10000	1	1	0	1	0
22	603	7	10000	1	1	0	1	0
23	604	7	10000	1	1	0	1	0
22	605	7	10000	1	1	0	1	0
22	606	7	10000	1	1	0	1	0
21	607	7	10000	1	1	0	1	0
20	608	7	10000	1	1	0	1	0
22	609	7	10000	1	1	0	1	0
21	610	7	10000	1	1	0	1	0
22	611	7	10000	1	1	0	1	0
22	612	7	10000	1	1	0	1	0
21	613	7	10000	1	1	0	1	0
20	614	7	10000	1	1	0	1	0
20	615	7	10000	1	1	0	1	0
20	616	7	10000	1	1	0	1	0
20	617	7	10000	1	1	0	1	0
20	618	7	10000	1	1	0	1	0
20	619	7	10000	1	1	0	1	0
20	620	7	10000	1	1	0	1	0
20	621	7	10000	1	1	0	1	0
21	622	7	10000	1	1	0	1	0
22	623	7	10000	1	1	0	1	0
25	624	7	10000	1	1	0	1	0
27	625	7	10000	1	1	0	1	0
26	626	7	10000	1	1	0	1	0
25	627	7	10000	1	1	0	1	0
25	628	7	10000	1	1	0	1	0
25	629	7	10000	1	1	0	1	0
26	630	7	10000	1	1	0	1	0
28	631	7	10000	1	1	0	1	0
28	632	7	10000	1	1	0	1	0
29	633	7	10000	1	1	0	1	0
27	634	7	10000	1	1	0	1	0
28	635	7	10000	1	1	0	1	0
28	636	7	10000	1	1	0	1	0
29	637	7	10000	1	1	0	1	0
30	638	7	10000	1	1	0	1	0
43	639	7	10000	1	1	0	1	0
66	640	7	10000	1	1	0	1	0
89	641	7	10000	1	1	0	1	0
97	642	7	10000	1	1	0	1	0
104	643	7	10000	1	1	0	1	0
123	644	7	10000	1	1	0	1	0
125	645	7	10000	1	1	0	1	0
150	646	7	10000	1	1	0	1	0
192	647	7	10000	1	1	0	1	0
227	648	7	10000	1	1	0	1	0
228	649	7	10000	1	1	0	1	0
235	650	7	10000	1	1	0	1	0
245	651	7	10000	1	1	0	1	0
245	652	7	10000	1	1	0	1	0
260	653	7	10000	1	1	0	1	0
257	654	7	10000	1	1	0	1	0
254	655	7	10000	1	1	0	1	0
272	656	7	10000	1	1	0	1	0
308	657	7	10000	1	1	0	1	0
342	658	7	10000	1	1	0	1	0
356	659	7	10000	1	1	0	1	0
356	660	7	10000	1	1	0	1	0
369	661	7	10000	1	1	0	1	0
360	662	7	10000	1	1	0	1	0
355	663	7	10000	1	1	0	1	0
370	664	7	10000	1	1	0	1	0
414	665	7	10000	1	1	0	1	0
483	666	7	10000	1	1	0	1	0
508	667	7	10000	1	1	0	1	0
503	668	7	10000	1	1	0	1	0
522	669	7	10000	1	1	0	1	0
516	670	7	10000	1	1	0	1	0
519	671	7	10000	1	1	0	1	0
557	672	7	10000	1	1	0	1	0
583	673	7	10000	1	1	0	1	0
570	674	7	10000	1	1	0	1	0
563	675	7	10000	1	1	0	1	0
574	676	7	10000	1	1	0	1	0
573	677	7	10000	1	1	0	1	0
554	678	7	10000	1	1	0	1	0
533	679	7	10000	1	1	0	1	0
526	680	7	10000	1	1	0	1	0
523	681	7	10000	1	1	0	1	0
523	682	7	10000	1	1	0	1	0
526	683	7	10000	1	1	0	1	0
528	684	7	10000	1	1	0	1	0
530	685	7	10000	1	1	0	1	0
530	686	7	10000	1	1	0	1	0
530	687	7	10000	1	1	0	1	0
529	688	7	10000	1	1	0	1	0
524	689	7	10000	1	1	0	1	0
514	690	7	10000	1	1	0	1	0
505	691	7	10000	1	1	0	1	0
496	692	7	10000	1	1	0	1	0
483	693	7	10000	1	1	0	1	0
468	694	7	10000	1	1	0	1	0
454	695	7	10000	1	1	0	1	0
440	696	7	10000	1	1	0	1	0
422	697	7	10000	1	1	0	1	0
404	698	7	10000	1	1	0	1	0
391	699	7	10000	1	1	0	1	0
386	700	7	10000	1	1	0	1	0
380	701	7	10000	1	1	0	1	0
378	702	7	10000	1	1	0	1	0
379	703	7	10000	1	1	0	1	0
384	704	7	10000	1	1	0	1	0
389	705	7	10000	1	1	0	1	0
398	706	7	10000	1	1	0	1	0
410	707	7	10000	1	1	0	1	0
424	708	7	10000	1	1	0	1	0
439	709	7	10000	1	1	0	1	0
449	710	7	10000	1	1	0	1	0
461	711	7	10000	1	1	0	1	0
473	712	7	10000	1	1	0	1	0
485	713	7	10000	1	1	0	1	0
493	714	7	10000	1	1	0	1	0
501	715	7	10000	1	1	0	1	0
507	716	7	10000	1	1	0	1	0
513	717	7	10000	1	1	0	1	0
517	718	7	10000	1	1	0	1	0
521	719	7	10000	1	1	0	1	0
527	720	7	10000	1	1	0	1	0
531	721	7	10000	1	1	0	1	0
535	722	7	10000	1	1	0	1	0
542	723	7	10000	1	1	0	1	0
547	724	7	10000	1	1	0	1	0
551	725	7	10000	1	1	0	1	0
554	726	7	10000	1	1	0	1	0
556	727	7	10000	1	1	0	1	0
556	728	7	10000	1	1	0	1	0
556	729	7	10000	1	1	0	1	0
553	730	7	10000	1	1	0	1	0
550	731	7	10000	1	1	0	1	0
545	732	7	10000	1	1	0	1	0
534	733	7	10000	1	1	0	1	0
521	734	7	10000	1	1	0	1	0
507	735	7	10000	1	1	0	1	0
493	736	7	10000	1	1	0	1	0
476	737	7	10000	1	1	0	1	0
460	738	7	10000	1	1	0	1	0
444	739	7	10000	1	1	0	1	0
429	740	7	10000	1	1	0	1	0
414	741	7	10000	1	1	0	1	0
399	742	7	10000	1	1	0	1	0
386	743	7	10000	1	1	0	1	0
373	744	7	10000	1	1	0	1	0
358	745	7	10000	1	1	0	1	0
342	746	7	10000	1	1	0	1	0
326	747	7	10000	1	1	0	1	0
311	748	7	10000	1	1	0	1	0
298	749	7	10000	1	1	0	1	0
285	750	7	10000	1	1	0	1	0
276	751	7	10000	1	1	0	1	0
267	752	7	10000	1	1	0	1	0
260	753	7	10000	1	1	0	1	0
255	754	7	10000	1	1	0	1	0
254	755	7	10000	1	1	0	1	0
253	756	7	10000	1	1	0	1	0
251	757	7	10000	1	1	0	1	0
251	758	7	10000	1	1	0	1	0
251	759	7	10000	1	1	0	1	0
251	760	7	10000	1	1	0	1	0
247	761	7	10000	1	1	0	1	0
244	762	7	10000	1	1	0	1	0
240	763	7	10000	1	1	0	1	0
236	764	7	10000	1	1	0	1	0
233	765	7	10000	1	1	0	1	0
230	766	7	10000	1	1	0	1	0
226	767	7	10000	1	1	0	1	0
222	768	7	10000	1	1	0	1	0
219	769	7	10000	1	1	0	1	0
213	770	7	10000	1	1	0	1	0
211	771	7	10000	1	1	0	1	0
211	772	7	10000	1	1	0	1	0
211	773	7	10000	1	1	0	1	0
213	774	7	10000	1	1	0	1	0
219	775	7	10000	1	1	0	1	0
224	776	7	10000	1	1	0	1	0
227	777	7	10000	1	1	0	1	0
232	778	7	10000	1	1	0	1	0
234	779	7	10000	1	1	0	1	0
234	780	7	10000	1	1	0	1	0
233	781	7	10000	1	1	0	1	0
230	782	7	10000	1	1	0	1	0
229	783	7	10000	1	1	0	1	0
227	784	7	10000	1	1	0	1	0
224	785	7	10000	1	1	0	1	0
220	786	7	10000	1	1	0	1	0
217	787	7	10000	1	1	0	1	0
215	788	7	10000	1	1	0	1	0
215	789	7	10000	1	1	0	1	0
214	790	7	10000	1	1	0	1	0
213	791	7	10000	1	1	0	1	0
214	792	7	10000	1	1	0	1	0
213	793	7	10000	1	1	0	1	0
212	794	7	10000	1	1	0	1	0
212	795	7	10000	1	1	0	1	0
213	796	7	10000	1	1	0	1	0
215	797	7	10000	1	1	0	1	0
214	798	7	10000	1	1	0	1	0
213	799	7	10000	1	1	0	1	0
210	800	7	10000	1	1	0	1	0
207	801	7	10000	1	1	0	1	0
202	802	7	10000	1	1	0	1	0
200	803	7	10000	1	1	0	1	0
197	804	7	10000	1	1	0	1	0
192	805	7	10000	1	1	0	1	0
189	806	7	10000	1	1	0	1	0
182	807	7	10000	1	1	0	1	0
177	808	7	10000	1	1	0	1	0
173	809	7	10000	1	1	0	1	0
170	810	7	10000	1	1	0	1	0
166	811	7	10000	1	1	0	1	0
165	812	7	10000	1	1	0	1	0
162	813	7	10000	1	1	0	1	0
159	814	7	10000	1	1	0	1	0
159	815	7	10000	1	1	0	1	0
156	816	7	10000	1	1	0	1	0
154	817	7	10000	1	1	0	1	0
151	818	7	10000	1	1	0	1	0
149	819	7	10000	1	1	0	1	0
144	820	7	10000	1	1	0	1	0
141	821	7	10000	1	1	0	1	0
137	822	7	10000	1	1	0	1	0
130	823	7	10000	1	1	0	1	0
127	824	7	10000	1	1	0	1	0
122	825	7	10000	1	1	0	1	0
116	826	7	10000	1	1	0	1	0
112	827	7	10000	1	1	0	1	0
107	828	7	10000	1	1	0	1	0
102	829	7	10000	1	1	0	1	0
99	830	7	10000	1	1	0	1	0
97	831	7	10000	1	1	0	1	0
93	832	7	10000	1	1	0	1	0
91	833	7	10000	1	1	0	1	0
87	834	7	10000	1	1	0	1	0
87	835	7	10000	1	1	0	1	0
85	836	7	10000	1	1	0	1	0
83	837	7	10000	1	1	0	1	0
79	838	7	10000	1	1	0	1	0
77	839	7	10000	1	1	0	1	0
75	840	7	10000	1	1	0	1	0
71	841	7	10000	1	1	0	1	0
68	842	7	10000	1	1	0	1	0
67	843	7	10000	1	1	0	1	0
65	844	7	10000	1	1	0	1	0
63	845	7	10000	1	1	0	1	0
60	846	7	10000	1	1	0	1	0
58	847	7	10000	1	1	0	1	0
56	848	7	10000	1	1	0	1	0
55	849	7	10000	1	1	0	1	0
53	850	7	10000	1	1	0	1	0
51	851	7	10000	1	1	0	1	0
52	852	7	10000	1	1	0	1	0
49	853	7	10000	1	1	0	1	0
46	854	7	10000	1	1	0	1	0
46	855	7	10000	1	1	0	1	0
44	856	7	10000	1	1	0	1	0
44	857	7	10000	1	1	0	1	0
44	858	7	10000	1	1	0	1	0
42	859	7	10000	1	1	0	1	0
41	860	7	10000	1	1	0	1	0
39	861	7	10000	1	1	0	1	0
39	862	7	10000	1	1	0	1	0
40	863	7	10000	1	1	0	1	0
43	864	7	10000	1	1	0	1	0
44	865	7	10000	1	1	0	1	0
47	866	7	10000	1	1	0	1	0
48	867	7	10000	1	1	0	1	0
53	868	7	10000	1	1	0	1	0
54	869	7	10000	1	1	0	1	0
54	870	7	10000	1	1	0	1	0
53	871	7	10000	1	1	0	1	0
52	872	7	10000	1	1	0	1	0
51	873	7	10000	1	1	0	1	0
47	874	7	10000	1	1	0	1	0
46	875	7	10000	1	1	0	1	0
45	876	7	10000	1	1	0	1	0
44	877	7	10000	1	1	0	1	0
43	878	7	10000	1	1	0	1	0
41	879	7	10000	1	1	0	1	0
41	880	7	10000	1	1	0	1	0
40	881	7	10000	1	1	0	1	0
38	882	7	10000	1	1	0	1	0
37	883	7	10000	1	1	0	1	0
38	884	7	10000	1	1	0	1	0
37	885	7	10000	1	1	0	1	0
38	886	7	10000	1	1	0	1	0
36	887	7	10000	1	1	0	1	0
35	888	7	10000	1	1	0	1	0
35	889	7	10000	1	1	0	1	0
34	890	7	10000	1	1	0	1	0
34	891	7	10000	1	1	0	1	0
36	892	7	10000	1	1	0	1	0
34	893	7	10000	1	1	0	1	0
35	894	7	10000	1	1	0	1	0
39	895	7	10000	1	1	0	1	0
43	896	7	10000	1	1	0	1	0
47	897	7	10000	1	1	0	1	0
52	898	7	10000	1	1	0	1	0
57	899	7	10000	1	1	0	1	0
60	900	7	10000	1	1	0	1	0
64	901	7	10000	1	1	0	1	0
64	902	7	10000	1	1	0	1	0
66	903	7	10000	1	1	0	1	0
67	904	7	10000	1	1	0	1	0
66	905	7	10000	1	1	0	1	0
68	906	7	10000	1	1	0	1	0
68	907	7	10000	1	1	0	1	0
69	908	7	10000	1	1	0	1	0
68	909	7	10000	1	1	0	1	0
68	910	7	10000	1	1	0	1	0
67	911	7	10000	1	1	0	1	0
66	912	7	10000	1	1	0	1	0
63	913	7	10000	1	1	0	1	0
60	914	7	10000	1	1	0	1	0
57	915	7	10000	1	1	0	1	0
57	916	7	10000	1	1	0	1	0
57	917	7	10000	1	1	0	1	0
56	918	7	10000	1	1	0	1	0
56	919	7	10000	1	1	0	1	0
58	920	7	10000	1	1	0	1	0
57	921	7	10000	1	1	0	1	0
59	922	7	10000	1	1	0	1	0
63	923	7	10000	1	1	0	1	0
67	924	7	10000	1	1	0	1	0
71	925	7	10000	1	1	0	1	0
74	926	7	10000	1	1	0	1	0
77	927	7	10000	1	1	0	1	0
80	928	7	10000	1	1	0	1	0
85	929	7	10000	1	1	0	1	0
87	930	7	10000	1	1	0	1	0
91	931	7	10000	1	1	0	1	0
93	932	7	10000	1	1	0	1	0
92	933	7	10000	1	1	0	1	0
90	934	7	10000	1	1	0	1	0
88	935	7	10000	1	1	0	1	0
86	936	7	10000	1	1	0	1	0
84	937	7	10000	1	1	0	1	0
84	938	7	10000	1	1	0	1	0
83	939	7	10000	1	1	0	1	0
83	940	7	10000	1	1	0	1	0
82	941	7	10000	1	1	0	1	0
81	942	7	10000	1	1	0	1	0
84	943	7	10000	1	1	0	1	0
86	944	7	10000	1	1	0	1	0
88	945	7	10000	1	1	0	1	0
88	946	7	10000	1	1	0	1	0
87	947	7	10000	1	1	0	1	0
86	948	7	10000	1	1	0	1	0
84	949	7	10000	1	1	0	1	0
83	950	7	10000	1	1	0	1	0
80	951	7	10000	1	1	0	1	0
77	952	7	10000	1	1	0	1	0
74	953	7	10000	1	1	0	1	0
70	954	7	10000	1	1	0	1	0
68	955	7	10000	1	1	0	1	0
66	956	7	10000	1	1	0	1	0
64	957	7	10000	1	1	0	1	0
61	958	7	10000	1	1	0	1	0
59	959	7	10000	1	1	0	1	0
57	960	7	10000	1	1	0	1	0
55	961	7	10000	1	1	0	1	0
53	962	7	10000	1	1	0	1	0
54	963	7	10000	1	1	0	1	0
54	964	7	10000	1	1	0	1	0
54	965	7	10000	1	1	0	1	0
54	966	7	10000	1	1	0	1	0
54	967	7	10000	1	1	0	1	0
54	968	7	10000	1	1	0	1	0
53	969	7	10000	1	1	0	1	0
52	970	7	10000	1	1	0	1	0
51	971	7	10000	1	1	0	1	0
52	972	7	10000	1	1	0	1	0
49	973	7	10000	1	1	0	1	0
46	974	7	10000	1	1	0	1	0
45	975	7	10000	1	1	0	1	0
45	976	7	10000	1	1	0	1	0
44	977	7	10000	1	1	0	1	0
45	978	7	10000	1	1	0	1	0
43	979	7	10000	1	1	0	1	0
44	980	7	10000	1	1	0	1	0
43	981	7	10000	1	1	0	1	0
41	982	7	10000	1	1	0	1	0
39	983	7	10000	1	1	0	1	0
40	984	7	10000	1	1	0	1	0
38	985	7	10000	1	1	0	1	0
37	986	7	10000	1	1	0	1	0
35	987	7	10000	1	1	0	1	0
35	988	7	10000	1	1	0	1	0
33	989	7	10000	1	1	0	1	0
34	990	7	10000	1	1	0	1	0
34	991	7	10000	1	1	0	1	0
33	992	7	10000	1	1	0	1	0
32	993	7	10000	1	1	0	1	0
32	994	7	10000	1	1	0	1	0
32	995	7	10000	1	1	0	1	0
33	996	7	10000	1	1	0	1	0
34	997	7	10000	1	1	0	1	0
34	998	7	10000	1	1	0	1	0
33	999	7	10000	1	1	0	1	0
32	1000	7	10000	1	1	0	1	0
31	2	7	10000	2	1	0	2	0
35	3	7	10000	2	1	0	2	0
39	4	7	10000	2	1	0	2	0
43	5	7	10000	2	1	0	2	0
44	6	7	10000	2	1	0	2	0
44	7	7	10000	2	1	0	2	0
43	8	7	10000	2	1	0	2	0
42	9	7	10000	2	1	0	2	0
40	10	7	10000	2	1	0	2	0
40	11	7	10000	2	1	0	2	0
40	12	7	10000	2	1	0	2	0
39	13	7	10000	2	1	0	2	0
37	14	7	10000	2	1	0	2	0
36	15	7	10000	2	1	0	2	0
36	16	7	10000	2	1	0	2	0
35	17	7	10000	2	1	0	2	0
35	18	7	10000	2	1	0	2	0
34	19	7	10000	2	1	0	2	0
34	20	7	10000	2	1	0	2	0
33	21	7	10000	2	1	0	2	0
32	22	7	10000	2	1	0	2	0
32	23	7	10000	2	1	0	2	0
31	24	7	10000	2	1	0	2	0
31	25	7	10000	2	1	0	2	0
29	26	7	10000	2	1	0	2	0
27	27	7	10000	2	1	0	2	0
27	28	7	10000	2	1	0	2	0
27	29	7	10000	2	1	0	2	0
27	30	7	10000	2	1	0	2	0
28	31	7	10000	2	1	0	2	0
30	32	7	10000	2	1	0	2	0
30	33	7	10000	2	1	0	2	0
30	34	7	10000	2	1	0	2	0
29	35	7	10000	2	1	0	2	0
29	36	7	10000	2	1	0	2	0
30	37	7	10000	2	1	0	2	0
29	38	7	10000	2	1	0	2	0
28	39	7	10000	2	1	0	2	0
30	40	7	10000	2	1	0	2	0
32	41	7	10000	2	1	0	2	0
35	42	7	10000	2	1	0	2	0
36	43	7	10000	2	1	0	2	0
38	44	7	10000	2	1	0	2	0
38	45	7	10000	2	1	0	2	0
36	46	7	10000	2	1	0	2	0
34	47	7	10000	2	1	0	2	0
34	48	7	10000	2	1	0	2	0
35	49	7	10000	2	1	0	2	0
36	50	7	10000	2	1	0	2	0
36	51	7	10000	2	1	0	2	0
35	52	7	10000	2	1	0	2	0
35	53	7	10000	2	1	0	2	0
35	54	7	10000	2	1	0	2	0
34	55	7	10000	2	1	0	2	0
36	56	7	10000	2	1	0	2	0
36	57	7	10000	2	1	0	2	0
36	58	7	10000	2	1	0	2	0
37	59	7	10000	2	1	0	2	0
37	60	7	10000	2	1	0	2	0
38	61	7	10000	2	1	0	2	0
39	62	7	10000	2	1	0	2	0
39	63	7	10000	2	1	0	2	0
39	64	7	10000	2	1	0	2	0
37	65	7	10000	2	1	0	2	0
35	66	7	10000	2	1	0	2	0
33	67	7	10000	2	1	0	2	0
33	68	7	10000	2	1	0	2	0
34	69	7	10000	2	1	0	2	0
36	70	7	10000	2	1	0	2	0
37	71	7	10000	2	1	0	2	0
37	72	7	10000	2	1	0	2	0
40	73	7	10000	2	1	0	2	0
38	74	7	10000	2	1	0	2	0
37	75	7	10000	2	1	0	2	0
36	76	7	10000	2	1	0	2	0
36	77	7	10000	2	1	0	2	0
37	78	7	10000	2	1	0	2	0
36	79	7	10000	2	1	0	2	0
36	80	7	10000	2	1	0	2	0
36	81	7	10000	2	1	0	2	0
37	82	7	10000	2	1	0	2	0
40	83	7	10000	2	1	0	2	0
42	84	7	10000	2	1	0	2	0
44	85	7	10000	2	1	0	2	0
43	86	7	10000	2	1	0	2	0
41	87	7	10000	2	1	0	2	0
40	88	7	10000	2	1	0	2	0
40	89	7	10000	2	1	0	2	0
39	90	7	10000	2	1	0	2	0
38	91	7	10000	2	1	0	2	0
36	92	7	10000	2	1	0	2	0
37	93	7	10000	2	1	0	2	0
35	94	7	10000	2	1	0	2	0
34	95	7	10000	2	1	0	2	0
34	96	7	10000	2	1	0	2	0
34	97	7	10000	2	1	0	2	0
32	98	7	10000	2	1	0	2	0
32	99	7	10000	2	1	0	2	0
30	100	7	10000	2	1	0	2	0
30	101	7	10000	2	1	0	2	0
30	102	7	10000	2	1	0	2	0
29	103	7	10000	2	1	0	2	0
29	104	7	10000	2	1	0	2	0
29	105	7	10000	2	1	0	2	0
29	106	7	10000	2	1	0	2	0
29	107	7	10000	2	1	0	2	0
31	108	7	10000	2	1	0	2	0
31	109	7	10000	2	1	0	2	0
31	110	7	10000	2	1	0	2	0
30	111	7	10000	2	1	0	2	0
30	112	7	10000	2	1	0	2	0
28	113	7	10000	2	1	0	2	0
27	114	7	10000	2	1	0	2	0
27	115	7	10000	2	1	0	2	0
27	116	7	10000	2	1	0	2	0
28	117	7	10000	2	1	0	2	0
27	118	7	10000	2	1	0	2	0
26	119	7	10000	2	1	0	2	0
26	120	7	10000	2	1	0	2	0
26	121	7	10000	2	1	0	2	0
28	122	7	10000	2	1	0	2	0
29	123	7	10000	2	1	0	2	0
31	124	7	10000	2	1	0	2	0
32	125	7	10000	2	1	0	2	0
31	126	7	10000	2	1	0	2	0
29	127	7	10000	2	1	0	2	0
29	128	7	10000	2	1	0	2	0
29	129	7	10000	2	1	0	2	0
29	130	7	10000	2	1	0	2	0
29	131	7	10000	2	1	0	2	0
28	132	7	10000	2	1	0	2	0
29	133	7	10000	2	1	0	2	0
29	134	7	10000	2	1	0	2	0
29	135	7	10000	2	1	0	2	0
30	136	7	10000	2	1	0	2	0
31	137	7	10000	2	1	0	2	0
31	138	7	10000	2	1	0	2	0
30	139	7	10000	2	1	0	2	0
29	140	7	10000	2	1	0	2	0
29	141	7	10000	2	1	0	2	0
28	142	7	10000	2	1	0	2	0
29	143	7	10000	2	1	0	2	0
27	144	7	10000	2	1	0	2	0
27	145	7	10000	2	1	0	2	0
28	146	7	10000	2	1	0	2	0
27	147	7	10000	2	1	0	2	0
27	148	7	10000	2	1	0	2	0
27	149	7	10000	2	1	0	2	0
27	150	7	10000	2	1	0	2	0
26	151	7	10000	2	1	0	2	0
27	152	7	10000	2	1	0	2	0
27	153	7	10000	2	1	0	2	0
27	154	7	10000	2	1	0	2	0
25	155	7	10000	2	1	0	2	0
27	156	7	10000	2	1	0	2	0
26	157	7	10000	2	1	0	2	0
26	158	7	10000	2	1	0	2	0
26	159	7	10000	2	1	0	2	0
25	160	7	10000	2	1	0	2	0
25	161	7	10000	2	1	0	2	0
24	162	7	10000	2	1	0	2	0
23	163	7	10000	2	1	0	2	0
23	164	7	10000	2	1	0	2	0
23	165	7	10000	2	1	0	2	0
22	166	7	10000	2	1	0	2	0
23	167	7	10000	2	1	0	2	0
24	168	7	10000	2	1	0	2	0
26	169	7	10000	2	1	0	2	0
28	170	7	10000	2	1	0	2	0
29	171	7	10000	2	1	0	2	0
29	172	7	10000	2	1	0	2	0
32	173	7	10000	2	1	0	2	0
32	174	7	10000	2	1	0	2	0
33	175	7	10000	2	1	0	2	0
35	176	7	10000	2	1	0	2	0
35	177	7	10000	2	1	0	2	0
33	178	7	10000	2	1	0	2	0
35	179	7	10000	2	1	0	2	0
34	180	7	10000	2	1	0	2	0
36	181	7	10000	2	1	0	2	0
36	182	7	10000	2	1	0	2	0
38	183	7	10000	2	1	0	2	0
37	184	7	10000	2	1	0	2	0
37	185	7	10000	2	1	0	2	0
35	186	7	10000	2	1	0	2	0
33	187	7	10000	2	1	0	2	0
33	188	7	10000	2	1	0	2	0
33	189	7	10000	2	1	0	2	0
32	190	7	10000	2	1	0	2	0
32	191	7	10000	2	1	0	2	0
32	192	7	10000	2	1	0	2	0
30	193	7	10000	2	1	0	2	0
29	194	7	10000	2	1	0	2	0
29	195	7	10000	2	1	0	2	0
28	196	7	10000	2	1	0	2	0
29	197	7	10000	2	1	0	2	0
28	198	7	10000	2	1	0	2	0
27	199	7	10000	2	1	0	2	0
26	200	7	10000	2	1	0	2	0
25	201	7	10000	2	1	0	2	0
24	202	7	10000	2	1	0	2	0
24	203	7	10000	2	1	0	2	0
26	204	7	10000	2	1	0	2	0
27	205	7	10000	2	1	0	2	0
29	206	7	10000	2	1	0	2	0
29	207	7	10000	2	1	0	2	0
31	208	7	10000	2	1	0	2	0
30	209	7	10000	2	1	0	2	0
30	210	7	10000	2	1	0	2	0
29	211	7	10000	2	1	0	2	0
28	212	7	10000	2	1	0	2	0
28	213	7	10000	2	1	0	2	0
26	214	7	10000	2	1	0	2	0
26	215	7	10000	2	1	0	2	0
26	216	7	10000	2	1	0	2	0
25	217	7	10000	2	1	0	2	0
25	218	7	10000	2	1	0	2	0
24	219	7	10000	2	1	0	2	0
24	220	7	10000	2	1	0	2	0
24	221	7	10000	2	1	0	2	0
25	222	7	10000	2	1	0	2	0
24	223	7	10000	2	1	0	2	0
26	224	7	10000	2	1	0	2	0
27	225	7	10000	2	1	0	2	0
26	226	7	10000	2	1	0	2	0
25	227	7	10000	2	1	0	2	0
24	228	7	10000	2	1	0	2	0
25	229	7	10000	2	1	0	2	0
25	230	7	10000	2	1	0	2	0
26	231	7	10000	2	1	0	2	0
27	232	7	10000	2	1	0	2	0
27	233	7	10000	2	1	0	2	0
26	234	7	10000	2	1	0	2	0
25	235	7	10000	2	1	0	2	0
26	236	7	10000	2	1	0	2	0
26	237	7	10000	2	1	0	2	0
25	238	7	10000	2	1	0	2	0
25	239	7	10000	2	1	0	2	0
24	240	7	10000	2	1	0	2	0
24	241	7	10000	2	1	0	2	0
23	242	7	10000	2	1	0	2	0
22	243	7	10000	2	1	0	2	0
23	244	7	10000	2	1	0	2	0
23	245	7	10000	2	1	0	2	0
21	246	7	10000	2	1	0	2	0
24	247	7	10000	2	1	0	2	0
24	248	7	10000	2	1	0	2	0
25	249	7	10000	2	1	0	2	0
25	250	7	10000	2	1	0	2	0
24	251	7	10000	2	1	0	2	0
23	252	7	10000	2	1	0	2	0
23	253	7	10000	2	1	0	2	0
22	254	7	10000	2	1	0	2	0
21	255	7	10000	2	1	0	2	0
22	256	7	10000	2	1	0	2	0
25	257	7	10000	2	1	0	2	0
24	258	7	10000	2	1	0	2	0
26	259	7	10000	2	1	0	2	0
26	260	7	10000	2	1	0	2	0
28	261	7	10000	2	1	0	2	0
29	262	7	10000	2	1	0	2	0
29	263	7	10000	2	1	0	2	0
29	264	7	10000	2	1	0	2	0
28	265	7	10000	2	1	0	2	0
26	266	7	10000	2	1	0	2	0
25	267	7	10000	2	1	0	2	0
25	268	7	10000	2	1	0	2	0
26	269	7	10000	2	1	0	2	0
25	270	7	10000	2	1	0	2	0
25	271	7	10000	2	1	0	2	0
25	272	7	10000	2	1	0	2	0
26	273	7	10000	2	1	0	2	0
25	274	7	10000	2	1	0	2	0
25	275	7	10000	2	1	0	2	0
26	276	7	10000	2	1	0	2	0
26	277	7	10000	2	1	0	2	0
26	278	7	10000	2	1	0	2	0
25	279	7	10000	2	1	0	2	0
25	280	7	10000	2	1	0	2	0
25	281	7	10000	2	1	0	2	0
24	282	7	10000	2	1	0	2	0
25	283	7	10000	2	1	0	2	0
26	284	7	10000	2	1	0	2	0
27	285	7	10000	2	1	0	2	0
27	286	7	10000	2	1	0	2	0
29	287	7	10000	2	1	0	2	0
29	288	7	10000	2	1	0	2	0
29	289	7	10000	2	1	0	2	0
30	290	7	10000	2	1	0	2	0
28	291	7	10000	2	1	0	2	0
28	292	7	10000	2	1	0	2	0
27	293	7	10000	2	1	0	2	0
26	294	7	10000	2	1	0	2	0
27	295	7	10000	2	1	0	2	0
27	296	7	10000	2	1	0	2	0
27	297	7	10000	2	1	0	2	0
26	298	7	10000	2	1	0	2	0
25	299	7	10000	2	1	0	2	0
26	300	7	10000	2	1	0	2	0
25	301	7	10000	2	1	0	2	0
25	302	7	10000	2	1	0	2	0
25	303	7	10000	2	1	0	2	0
25	304	7	10000	2	1	0	2	0
25	305	7	10000	2	1	0	2	0
23	306	7	10000	2	1	0	2	0
22	307	7	10000	2	1	0	2	0
23	308	7	10000	2	1	0	2	0
22	309	7	10000	2	1	0	2	0
22	310	7	10000	2	1	0	2	0
22	311	7	10000	2	1	0	2	0
23	312	7	10000	2	1	0	2	0
22	313	7	10000	2	1	0	2	0
22	314	7	10000	2	1	0	2	0
21	315	7	10000	2	1	0	2	0
21	316	7	10000	2	1	0	2	0
22	317	7	10000	2	1	0	2	0
21	318	7	10000	2	1	0	2	0
21	319	7	10000	2	1	0	2	0
20	320	7	10000	2	1	0	2	0
23	321	7	10000	2	1	0	2	0
22	322	7	10000	2	1	0	2	0
23	323	7	10000	2	1	0	2	0
24	324	7	10000	2	1	0	2	0
22	325	7	10000	2	1	0	2	0
23	326	7	10000	2	1	0	2	0
24	327	7	10000	2	1	0	2	0
25	328	7	10000	2	1	0	2	0
28	329	7	10000	2	1	0	2	0
37	330	7	10000	2	1	0	2	0
48	331	7	10000	2	1	0	2	0
54	332	7	10000	2	1	0	2	0
60	333	7	10000	2	1	0	2	0
63	334	7	10000	2	1	0	2	0
63	335	7	10000	2	1	0	2	0
67	336	7	10000	2	1	0	2	0
77	337	7	10000	2	1	0	2	0
84	338	7	10000	2	1	0	2	0
83	339	7	10000	2	1	0	2	0
92	340	7	10000	2	1	0	2	0
112	341	7	10000	2	1	0	2	0
118	342	7	10000	2	1	0	2	0
119	343	7	10000	2	1	0	2	0
119	344	7	10000	2	1	0	2	0
130	345	7	10000	2	1	0	2	0
131	346	7	10000	2	1	0	2	0
147	347	7	10000	2	1	0	2	0
153	348	7	10000	2	1	0	2	0
154	349	7	10000	2	1	0	2	0
150	350	7	10000	2	1	0	2	0
147	351	7	10000	2	1	0	2	0
149	352	7	10000	2	1	0	2	0
159	353	7	10000	2	1	0	2	0
156	354	7	10000	2	1	0	2	0
159	355	7	10000	2	1	0	2	0
166	356	7	10000	2	1	0	2	0
165	357	7	10000	2	1	0	2	0
165	358	7	10000	2	1	0	2	0
168	359	7	10000	2	1	0	2	0
172	360	7	10000	2	1	0	2	0
176	361	7	10000	2	1	0	2	0
175	362	7	10000	2	1	0	2	0
177	363	7	10000	2	1	0	2	0
189	364	7	10000	2	1	0	2	0
202	365	7	10000	2	1	0	2	0
220	366	7	10000	2	1	0	2	0
256	367	7	10000	2	1	0	2	0
262	368	7	10000	2	1	0	2	0
260	369	7	10000	2	1	0	2	0
270	370	7	10000	2	1	0	2	0
283	371	7	10000	2	1	0	2	0
293	372	7	10000	2	1	0	2	0
303	373	7	10000	2	1	0	2	0
310	374	7	10000	2	1	0	2	0
312	375	7	10000	2	1	0	2	0
307	376	7	10000	2	1	0	2	0
294	377	7	10000	2	1	0	2	0
283	378	7	10000	2	1	0	2	0
276	379	7	10000	2	1	0	2	0
272	380	7	10000	2	1	0	2	0
267	381	7	10000	2	1	0	2	0
261	382	7	10000	2	1	0	2	0
260	383	7	10000	2	1	0	2	0
259	384	7	10000	2	1	0	2	0
261	385	7	10000	2	1	0	2	0
251	386	7	10000	2	1	0	2	0
246	387	7	10000	2	1	0	2	0
242	388	7	10000	2	1	0	2	0
236	389	7	10000	2	1	0	2	0
236	390	7	10000	2	1	0	2	0
234	391	7	10000	2	1	0	2	0
245	392	7	10000	2	1	0	2	0
253	393	7	10000	2	1	0	2	0
250	394	7	10000	2	1	0	2	0
243	395	7	10000	2	1	0	2	0
239	396	7	10000	2	1	0	2	0
238	397	7	10000	2	1	0	2	0
229	398	7	10000	2	1	0	2	0
219	399	7	10000	2	1	0	2	0
213	400	7	10000	2	1	0	2	0
207	401	7	10000	2	1	0	2	0
198	402	7	10000	2	1	0	2	0
191	403	7	10000	2	1	0	2	0
189	404	7	10000	2	1	0	2	0
181	405	7	10000	2	1	0	2	0
176	406	7	10000	2	1	0	2	0
169	407	7	10000	2	1	0	2	0
162	408	7	10000	2	1	0	2	0
155	409	7	10000	2	1	0	2	0
149	410	7	10000	2	1	0	2	0
144	411	7	10000	2	1	0	2	0
138	412	7	10000	2	1	0	2	0
133	413	7	10000	2	1	0	2	0
128	414	7	10000	2	1	0	2	0
122	415	7	10000	2	1	0	2	0
118	416	7	10000	2	1	0	2	0
114	417	7	10000	2	1	0	2	0
109	418	7	10000	2	1	0	2	0
107	419	7	10000	2	1	0	2	0
106	420	7	10000	2	1	0	2	0
107	421	7	10000	2	1	0	2	0
107	422	7	10000	2	1	0	2	0
109	423	7	10000	2	1	0	2	0
107	424	7	10000	2	1	0	2	0
110	425	7	10000	2	1	0	2	0
111	426	7	10000	2	1	0	2	0
111	427	7	10000	2	1	0	2	0
109	428	7	10000	2	1	0	2	0
105	429	7	10000	2	1	0	2	0
101	430	7	10000	2	1	0	2	0
98	431	7	10000	2	1	0	2	0
95	432	7	10000	2	1	0	2	0
92	433	7	10000	2	1	0	2	0
92	434	7	10000	2	1	0	2	0
90	435	7	10000	2	1	0	2	0
92	436	7	10000	2	1	0	2	0
91	437	7	10000	2	1	0	2	0
92	438	7	10000	2	1	0	2	0
92	439	7	10000	2	1	0	2	0
93	440	7	10000	2	1	0	2	0
95	441	7	10000	2	1	0	2	0
97	442	7	10000	2	1	0	2	0
100	443	7	10000	2	1	0	2	0
104	444	7	10000	2	1	0	2	0
107	445	7	10000	2	1	0	2	0
108	446	7	10000	2	1	0	2	0
111	447	7	10000	2	1	0	2	0
113	448	7	10000	2	1	0	2	0
116	449	7	10000	2	1	0	2	0
118	450	7	10000	2	1	0	2	0
122	451	7	10000	2	1	0	2	0
121	452	7	10000	2	1	0	2	0
119	453	7	10000	2	1	0	2	0
114	454	7	10000	2	1	0	2	0
109	455	7	10000	2	1	0	2	0
106	456	7	10000	2	1	0	2	0
103	457	7	10000	2	1	0	2	0
99	458	7	10000	2	1	0	2	0
95	459	7	10000	2	1	0	2	0
92	460	7	10000	2	1	0	2	0
91	461	7	10000	2	1	0	2	0
90	462	7	10000	2	1	0	2	0
88	463	7	10000	2	1	0	2	0
85	464	7	10000	2	1	0	2	0
84	465	7	10000	2	1	0	2	0
82	466	7	10000	2	1	0	2	0
82	467	7	10000	2	1	0	2	0
82	468	7	10000	2	1	0	2	0
83	469	7	10000	2	1	0	2	0
85	470	7	10000	2	1	0	2	0
86	471	7	10000	2	1	0	2	0
88	472	7	10000	2	1	0	2	0
88	473	7	10000	2	1	0	2	0
88	474	7	10000	2	1	0	2	0
90	475	7	10000	2	1	0	2	0
94	476	7	10000	2	1	0	2	0
97	477	7	10000	2	1	0	2	0
99	478	7	10000	2	1	0	2	0
99	479	7	10000	2	1	0	2	0
101	480	7	10000	2	1	0	2	0
102	481	7	10000	2	1	0	2	0
100	482	7	10000	2	1	0	2	0
99	483	7	10000	2	1	0	2	0
96	484	7	10000	2	1	0	2	0
93	485	7	10000	2	1	0	2	0
88	486	7	10000	2	1	0	2	0
87	487	7	10000	2	1	0	2	0
86	488	7	10000	2	1	0	2	0
86	489	7	10000	2	1	0	2	0
85	490	7	10000	2	1	0	2	0
87	491	7	10000	2	1	0	2	0
87	492	7	10000	2	1	0	2	0
89	493	7	10000	2	1	0	2	0
90	494	7	10000	2	1	0	2	0
90	495	7	10000	2	1	0	2	0
91	496	7	10000	2	1	0	2	0
91	497	7	10000	2	1	0	2	0
90	498	7	10000	2	1	0	2	0
87	499	7	10000	2	1	0	2	0
86	500	7	10000	2	1	0	2	0
83	501	7	10000	2	1	0	2	0
83	502	7	10000	2	1	0	2	1
84	503	7	10000	2	1	0	2	1
85	504	7	10000	2	1	0	2	1
85	505	7	10000	2	1	0	2	1
83	506	7	10000	2	1	0	2	1
81	507	7	10000	2	1	0	2	1
80	508	7	10000	2	1	0	2	1
79	509	7	10000	2	1	0	2	1
79	510	7	10000	2	1	0	2	1
79	511	7	10000	2	1	0	2	1
79	512	7	10000	2	1	0	2	1
78	513	7	10000	2	1	0	2	1
79	514	7	10000	2	1	0	2	1
81	515	7	10000	2	1	0	2	1
81	516	7	10000	2	1	0	2	1
83	517	7	10000	2	1	0	2	1
84	518	7	10000	2	1	0	2	1
84	519	7	10000	2	1	0	2	1
83	520	7	10000	2	1	0	2	1
80	521	7	10000	2	1	0	2	1
76	522	7	10000	2	1	0	2	1
74	523	7	10000	2	1	0	2	1
72	524	7	10000	2	1	0	2	1
71	525	7	10000	2	1	0	2	1
68	526	7	10000	2	1	0	2	1
67	527	7	10000	2	1	0	2	1
67	528	7	10000	2	1	0	2	1
66	529	7	10000	2	1	0	2	1
67	530	7	10000	2	1	0	2	1
66	531	7	10000	2	1	0	2	1
67	532	7	10000	2	1	0	2	1
66	533	7	10000	2	1	0	2	1
68	534	7	10000	2	1	0	2	1
69	535	7	10000	2	1	0	2	1
71	536	7	10000	2	1	0	2	1
73	537	7	10000	2	1	0	2	1
73	538	7	10000	2	1	0	2	1
72	539	7	10000	2	1	0	2	1
71	540	7	10000	2	1	0	2	1
71	541	7	10000	2	1	0	2	1
68	542	7	10000	2	1	0	2	1
68	543	7	10000	2	1	0	2	1
65	544	7	10000	2	1	0	2	1
63	545	7	10000	2	1	0	2	1
59	546	7	10000	2	1	0	2	1
57	547	7	10000	2	1	0	2	1
56	548	7	10000	2	1	0	2	1
55	549	7	10000	2	1	0	2	1
52	550	7	10000	2	1	0	2	1
52	551	7	10000	2	1	0	2	1
53	552	7	10000	2	1	0	2	0
53	553	7	10000	2	1	0	2	0
56	554	7	10000	2	1	0	2	0
58	555	7	10000	2	1	0	2	0
60	556	7	10000	2	1	0	2	0
61	557	7	10000	2	1	0	2	0
63	558	7	10000	2	1	0	2	0
62	559	7	10000	2	1	0	2	0
62	560	7	10000	2	1	0	2	0
61	561	7	10000	2	1	0	2	0
58	562	7	10000	2	1	0	2	0
56	563	7	10000	2	1	0	2	0
55	564	7	10000	2	1	0	2	0
52	565	7	10000	2	1	0	2	0
49	566	7	10000	2	1	0	2	0
47	567	7	10000	2	1	0	2	0
47	568	7	10000	2	1	0	2	0
45	569	7	10000	2	1	0	2	0
45	570	7	10000	2	1	0	2	0
43	571	7	10000	2	1	0	2	0
43	572	7	10000	2	1	0	2	0
41	573	7	10000	2	1	0	2	0
40	574	7	10000	2	1	0	2	0
38	575	7	10000	2	1	0	2	0
38	576	7	10000	2	1	0	2	0
38	577	7	10000	2	1	0	2	0
36	578	7	10000	2	1	0	2	0
36	579	7	10000	2	1	0	2	0
43	580	7	10000	2	1	0	2	0
67	581	7	10000	2	1	0	2	0
94	582	7	10000	2	1	0	2	0
108	583	7	10000	2	1	0	2	0
115	584	7	10000	2	1	0	2	0
115	585	7	10000	2	1	0	2	0
122	586	7	10000	2	1	0	2	0
148	587	7	10000	2	1	0	2	0
149	588	7	10000	2	1	0	2	0
158	589	7	10000	2	1	0	2	0
168	590	7	10000	2	1	0	2	0
185	591	7	10000	2	1	0	2	0
199	592	7	10000	2	1	0	2	0
227	593	7	10000	2	1	0	2	0
272	594	7	10000	2	1	0	2	0
300	595	7	10000	2	1	0	2	0
313	596	7	10000	2	1	0	2	0
316	597	7	10000	2	1	0	2	0
317	598	7	10000	2	1	0	2	0
357	599	7	10000	2	1	0	2	0
425	600	7	10000	2	1	0	2	0
469	601	7	10000	2	1	0	2	0
463	602	7	10000	2	1	0	2	0
454	603	7	10000	2	1	0	2	0
466	604	7	10000	2	1	0	2	0
465	605	7	10000	2	1	0	2	0
447	606	7	10000	2	1	0	2	0
456	607	7	10000	2	1	0	2	0
486	608	7	10000	2	1	0	2	0
478	609	7	10000	2	1	0	2	0
482	610	7	10000	2	1	0	2	0
474	611	7	10000	2	1	0	2	0
475	612	7	10000	2	1	0	2	0
462	613	7	10000	2	1	0	2	0
454	614	7	10000	2	1	0	2	0
446	615	7	10000	2	1	0	2	0
453	616	7	10000	2	1	0	2	0
445	617	7	10000	2	1	0	2	0
438	618	7	10000	2	1	0	2	0
428	619	7	10000	2	1	0	2	0
415	620	7	10000	2	1	0	2	0
423	621	7	10000	2	1	0	2	0
440	622	7	10000	2	1	0	2	0
461	623	7	10000	2	1	0	2	0
481	624	7	10000	2	1	0	2	0
502	625	7	10000	2	1	0	2	0
518	626	7	10000	2	1	0	2	0
530	627	7	10000	2	1	0	2	0
539	628	7	10000	2	1	0	2	0
547	629	7	10000	2	1	0	2	0
550	630	7	10000	2	1	0	2	0
554	631	7	10000	2	1	0	2	0
554	632	7	10000	2	1	0	2	0
548	633	7	10000	2	1	0	2	0
541	634	7	10000	2	1	0	2	0
531	635	7	10000	2	1	0	2	0
522	636	7	10000	2	1	0	2	0
508	637	7	10000	2	1	0	2	0
492	638	7	10000	2	1	0	2	0
472	639	7	10000	2	1	0	2	0
454	640	7	10000	2	1	0	2	0
438	641	7	10000	2	1	0	2	0
420	642	7	10000	2	1	0	2	0
401	643	7	10000	2	1	0	2	0
385	644	7	10000	2	1	0	2	0
375	645	7	10000	2	1	0	2	0
368	646	7	10000	2	1	0	2	0
369	647	7	10000	2	1	0	2	0
376	648	7	10000	2	1	0	2	0
384	649	7	10000	2	1	0	2	0
395	650	7	10000	2	1	0	2	0
406	651	7	10000	2	1	0	2	0
420	652	7	10000	2	1	0	2	0
434	653	7	10000	2	1	0	2	0
451	654	7	10000	2	1	0	2	0
469	655	7	10000	2	1	0	2	0
489	656	7	10000	2	1	0	2	0
506	657	7	10000	2	1	0	2	0
523	658	7	10000	2	1	0	2	0
542	659	7	10000	2	1	0	2	0
562	660	7	10000	2	1	0	2	0
583	661	7	10000	2	1	0	2	0
602	662	7	10000	2	1	0	2	0
623	663	7	10000	2	1	0	2	0
641	664	7	10000	2	1	0	2	0
661	665	7	10000	2	1	0	2	0
677	666	7	10000	2	1	0	2	0
692	667	7	10000	2	1	0	2	0
706	668	7	10000	2	1	0	2	0
717	669	7	10000	2	1	0	2	0
724	670	7	10000	2	1	0	2	0
727	671	7	10000	2	1	0	2	0
729	672	7	10000	2	1	0	2	0
725	673	7	10000	2	1	0	2	0
723	674	7	10000	2	1	0	2	0
720	675	7	10000	2	1	0	2	0
717	676	7	10000	2	1	0	2	0
709	677	7	10000	2	1	0	2	0
699	678	7	10000	2	1	0	2	0
685	679	7	10000	2	1	0	2	0
670	680	7	10000	2	1	0	2	0
654	681	7	10000	2	1	0	2	0
639	682	7	10000	2	1	0	2	0
623	683	7	10000	2	1	0	2	0
608	684	7	10000	2	1	0	2	0
596	685	7	10000	2	1	0	2	0
579	686	7	10000	2	1	0	2	0
567	687	7	10000	2	1	0	2	0
553	688	7	10000	2	1	0	2	0
539	689	7	10000	2	1	0	2	0
523	690	7	10000	2	1	0	2	0
506	691	7	10000	2	1	0	2	0
488	692	7	10000	2	1	0	2	0
469	693	7	10000	2	1	0	2	0
448	694	7	10000	2	1	0	2	0
427	695	7	10000	2	1	0	2	0
409	696	7	10000	2	1	0	2	0
391	697	7	10000	2	1	0	2	0
377	698	7	10000	2	1	0	2	0
366	699	7	10000	2	1	0	2	0
357	700	7	10000	2	1	0	2	0
350	701	7	10000	2	1	0	2	0
343	702	7	10000	2	1	0	2	0
338	703	7	10000	2	1	0	2	0
333	704	7	10000	2	1	0	2	0
329	705	7	10000	2	1	0	2	0
323	706	7	10000	2	1	0	2	0
317	707	7	10000	2	1	0	2	0
310	708	7	10000	2	1	0	2	0
305	709	7	10000	2	1	0	2	0
300	710	7	10000	2	1	0	2	0
294	711	7	10000	2	1	0	2	0
294	712	7	10000	2	1	0	2	0
290	713	7	10000	2	1	0	2	0
290	714	7	10000	2	1	0	2	0
289	715	7	10000	2	1	0	2	0
291	716	7	10000	2	1	0	2	0
292	717	7	10000	2	1	0	2	0
294	718	7	10000	2	1	0	2	0
297	719	7	10000	2	1	0	2	0
297	720	7	10000	2	1	0	2	0
299	721	7	10000	2	1	0	2	0
299	722	7	10000	2	1	0	2	0
301	723	7	10000	2	1	0	2	0
300	724	7	10000	2	1	0	2	0
299	725	7	10000	2	1	0	2	0
294	726	7	10000	2	1	0	2	0
292	727	7	10000	2	1	0	2	0
288	728	7	10000	2	1	0	2	0
285	729	7	10000	2	1	0	2	0
281	730	7	10000	2	1	0	2	0
278	731	7	10000	2	1	0	2	0
275	732	7	10000	2	1	0	2	0
272	733	7	10000	2	1	0	2	0
269	734	7	10000	2	1	0	2	0
267	735	7	10000	2	1	0	2	0
267	736	7	10000	2	1	0	2	0
267	737	7	10000	2	1	0	2	0
269	738	7	10000	2	1	0	2	0
267	739	7	10000	2	1	0	2	0
267	740	7	10000	2	1	0	2	0
265	741	7	10000	2	1	0	2	0
264	742	7	10000	2	1	0	2	0
261	743	7	10000	2	1	0	2	0
259	744	7	10000	2	1	0	2	0
255	745	7	10000	2	1	0	2	0
250	746	7	10000	2	1	0	2	0
243	747	7	10000	2	1	0	2	0
237	748	7	10000	2	1	0	2	0
232	749	7	10000	2	1	0	2	0
225	750	7	10000	2	1	0	2	0
221	751	7	10000	2	1	0	2	0
218	752	7	10000	2	1	0	2	0
216	753	7	10000	2	1	0	2	0
213	754	7	10000	2	1	0	2	0
211	755	7	10000	2	1	0	2	0
209	756	7	10000	2	1	0	2	0
207	757	7	10000	2	1	0	2	0
204	758	7	10000	2	1	0	2	0
201	759	7	10000	2	1	0	2	0
199	760	7	10000	2	1	0	2	0
195	761	7	10000	2	1	0	2	0
191	762	7	10000	2	1	0	2	0
187	763	7	10000	2	1	0	2	0
182	764	7	10000	2	1	0	2	0
176	765	7	10000	2	1	0	2	0
167	766	7	10000	2	1	0	2	0
161	767	7	10000	2	1	0	2	0
154	768	7	10000	2	1	0	2	0
148	769	7	10000	2	1	0	2	0
143	770	7	10000	2	1	0	2	0
139	771	7	10000	2	1	0	2	0
134	772	7	10000	2	1	0	2	0
130	773	7	10000	2	1	0	2	0
128	774	7	10000	2	1	0	2	0
126	775	7	10000	2	1	0	2	0
125	776	7	10000	2	1	0	2	0
125	777	7	10000	2	1	0	2	0
123	778	7	10000	2	1	0	2	0
123	779	7	10000	2	1	0	2	0
122	780	7	10000	2	1	0	2	0
121	781	7	10000	2	1	0	2	0
119	782	7	10000	2	1	0	2	0
117	783	7	10000	2	1	0	2	0
113	784	7	10000	2	1	0	2	0
108	785	7	10000	2	1	0	2	0
104	786	7	10000	2	1	0	2	0
100	787	7	10000	2	1	0	2	0
96	788	7	10000	2	1	0	2	0
94	789	7	10000	2	1	0	2	0
90	790	7	10000	2	1	0	2	0
88	791	7	10000	2	1	0	2	0
86	792	7	10000	2	1	0	2	0
83	793	7	10000	2	1	0	2	0
80	794	7	10000	2	1	0	2	0
77	795	7	10000	2	1	0	2	0
78	796	7	10000	2	1	0	2	0
77	797	7	10000	2	1	0	2	0
76	798	7	10000	2	1	0	2	0
76	799	7	10000	2	1	0	2	0
77	800	7	10000	2	1	0	2	0
77	801	7	10000	2	1	0	2	0
77	802	7	10000	2	1	0	2	0
77	803	7	10000	2	1	0	2	0
75	804	7	10000	2	1	0	2	0
74	805	7	10000	2	1	0	2	0
69	806	7	10000	2	1	0	2	0
67	807	7	10000	2	1	0	2	0
66	808	7	10000	2	1	0	2	0
63	809	7	10000	2	1	0	2	0
61	810	7	10000	2	1	0	2	0
59	811	7	10000	2	1	0	2	0
57	812	7	10000	2	1	0	2	0
55	813	7	10000	2	1	0	2	0
52	814	7	10000	2	1	0	2	0
50	815	7	10000	2	1	0	2	0
50	816	7	10000	2	1	0	2	0
48	817	7	10000	2	1	0	2	0
46	818	7	10000	2	1	0	2	0
44	819	7	10000	2	1	0	2	0
45	820	7	10000	2	1	0	2	0
46	821	7	10000	2	1	0	2	0
47	822	7	10000	2	1	0	2	0
48	823	7	10000	2	1	0	2	0
48	824	7	10000	2	1	0	2	0
48	825	7	10000	2	1	0	2	0
46	826	7	10000	2	1	0	2	0
44	827	7	10000	2	1	0	2	0
44	828	7	10000	2	1	0	2	0
45	829	7	10000	2	1	0	2	0
46	830	7	10000	2	1	0	2	0
45	831	7	10000	2	1	0	2	0
46	832	7	10000	2	1	0	2	0
44	833	7	10000	2	1	0	2	0
45	834	7	10000	2	1	0	2	0
43	835	7	10000	2	1	0	2	0
43	836	7	10000	2	1	0	2	0
42	837	7	10000	2	1	0	2	0
41	838	7	10000	2	1	0	2	0
40	839	7	10000	2	1	0	2	0
39	840	7	10000	2	1	0	2	0
37	841	7	10000	2	1	0	2	0
37	842	7	10000	2	1	0	2	0
37	843	7	10000	2	1	0	2	0
37	844	7	10000	2	1	0	2	0
38	845	7	10000	2	1	0	2	0
37	846	7	10000	2	1	0	2	0
37	847	7	10000	2	1	0	2	0
37	848	7	10000	2	1	0	2	0
35	849	7	10000	2	1	0	2	0
35	850	7	10000	2	1	0	2	0
35	851	7	10000	2	1	0	2	0
37	852	7	10000	2	1	0	2	0
37	853	7	10000	2	1	0	2	0
39	854	7	10000	2	1	0	2	0
37	855	7	10000	2	1	0	2	0
37	856	7	10000	2	1	0	2	0
39	857	7	10000	2	1	0	2	0
40	858	7	10000	2	1	0	2	0
43	859	7	10000	2	1	0	2	0
44	860	7	10000	2	1	0	2	0
45	861	7	10000	2	1	0	2	0
44	862	7	10000	2	1	0	2	0
44	863	7	10000	2	1	0	2	0
43	864	7	10000	2	1	0	2	0
42	865	7	10000	2	1	0	2	0
39	866	7	10000	2	1	0	2	0
39	867	7	10000	2	1	0	2	0
38	868	7	10000	2	1	0	2	0
38	869	7	10000	2	1	0	2	0
36	870	7	10000	2	1	0	2	0
35	871	7	10000	2	1	0	2	0
35	872	7	10000	2	1	0	2	0
33	873	7	10000	2	1	0	2	0
32	874	7	10000	2	1	0	2	0
31	875	7	10000	2	1	0	2	0
32	876	7	10000	2	1	0	2	0
31	877	7	10000	2	1	0	2	0
30	878	7	10000	2	1	0	2	0
29	879	7	10000	2	1	0	2	0
30	880	7	10000	2	1	0	2	0
31	881	7	10000	2	1	0	2	0
34	882	7	10000	2	1	0	2	0
37	883	7	10000	2	1	0	2	0
41	884	7	10000	2	1	0	2	0
42	885	7	10000	2	1	0	2	0
39	886	7	10000	2	1	0	2	0
38	887	7	10000	2	1	0	2	0
37	888	7	10000	2	1	0	2	0
37	889	7	10000	2	1	0	2	0
36	890	7	10000	2	1	0	2	0
36	891	7	10000	2	1	0	2	0
34	892	7	10000	2	1	0	2	0
33	893	7	10000	2	1	0	2	0
34	894	7	10000	2	1	0	2	0
33	895	7	10000	2	1	0	2	0
35	896	7	10000	2	1	0	2	0
34	897	7	10000	2	1	0	2	0
32	898	7	10000	2	1	0	2	0
32	899	7	10000	2	1	0	2	0
31	900	7	10000	2	1	0	2	0
30	901	7	10000	2	1	0	2	0
29	902	7	10000	2	1	0	2	0
30	903	7	10000	2	1	0	2	0
29	904	7	10000	2	1	0	2	0
29	905	7	10000	2	1	0	2	0
28	906	7	10000	2	1	0	2	0
27	907	7	10000	2	1	0	2	0
28	908	7	10000	2	1	0	2	0
28	909	7	10000	2	1	0	2	0
27	910	7	10000	2	1	0	2	0
26	911	7	10000	2	1	0	2	0
26	912	7	10000	2	1	0	2	0
25	913	7	10000	2	1	0	2	0
25	914	7	10000	2	1	0	2	0
24	915	7	10000	2	1	0	2	0
26	916	7	10000	2	1	0	2	0
26	917	7	10000	2	1	0	2	0
26	918	7	10000	2	1	0	2	0
26	919	7	10000	2	1	0	2	0
26	920	7	10000	2	1	0	2	0
25	921	7	10000	2	1	0	2	0
25	922	7	10000	2	1	0	2	0
25	923	7	10000	2	1	0	2	0
25	924	7	10000	2	1	0	2	0
25	925	7	10000	2	1	0	2	0
22	926	7	10000	2	1	0	2	0
21	927	7	10000	2	1	0	2	0
22	928	7	10000	2	1	0	2	0
22	929	7	10000	2	1	0	2	0
22	930	7	10000	2	1	0	2	0
23	931	7	10000	2	1	0	2	0
23	932	7	10000	2	1	0	2	0
23	933	7	10000	2	1	0	2	0
22	934	7	10000	2	1	0	2	0
21	935	7	10000	2	1	0	2	0
22	936	7	10000	2	1	0	2	0
24	937	7	10000	2	1	0	2	0
23	938	7	10000	2	1	0	2	0
22	939	7	10000	2	1	0	2	0
23	940	7	10000	2	1	0	2	0
22	941	7	10000	2	1	0	2	0
21	942	7	10000	2	1	0	2	0
23	943	7	10000	2	1	0	2	0
21	944	7	10000	2	1	0	2	0
23	945	7	10000	2	1	0	2	0
21	946	7	10000	2	1	0	2	0
23	947	7	10000	2	1	0	2	0
24	948	7	10000	2	1	0	2	0
26	949	7	10000	2	1	0	2	0
26	950	7	10000	2	1	0	2	0
26	951	7	10000	2	1	0	2	0
27	952	7	10000	2	1	0	2	0
27	953	7	10000	2	1	0	2	0
27	954	7	10000	2	1	0	2	0
27	955	7	10000	2	1	0	2	0
29	956	7	10000	2	1	0	2	0
29	957	7	10000	2	1	0	2	0
29	958	7	10000	2	1	0	2	0
30	959	7	10000	2	1	0	2	0
32	960	7	10000	2	1	0	2	0
33	961	7	10000	2	1	0	2	0
33	962	7	10000	2	1	0	2	0
33	963	7	10000	2	1	0	2	0
32	964	7	10000	2	1	0	2	0
33	965	7	10000	2	1	0	2	0
32	966	7	10000	2	1	0	2	0
32	967	7	10000	2	1	0	2	0
31	968	7	10000	2	1	0	2	0
31	969	7	10000	2	1	0	2	0
30	970	7	10000	2	1	0	2	0
30	971	7	10000	2	1	0	2	0
30	972	7	10000	2	1	0	2	0
30	973	7	10000	2	1	0	2	0
29	974	7	10000	2	1	0	2	0
27	975	7	10000	2	1	0	2	0
29	976	7	10000	2	1	0	2	0
29	977	7	10000	2	1	0	2	0
28	978	7	10000	2	1	0	2	0
29	979	7	10000	2	1	0	2	0
28	980	7	10000	2	1	0	2	0
27	981	7	10000	2	1	0	2	0
26	982	7	10000	2	1	0	2	0
27	983	7	10000	2	1	0	2	0
25	984	7	10000	2	1	0	2	0
25	985	7	10000	2	1	0	2	0
24	986	7	10000	2	1	0	2	0
24	987	7	10000	2	1	0	2	0
24	988	7	10000	2	1	0	2	0
23	989	7	10000	2	1	0	2	0
23	990	7	10000	2	1	0	2	0
24	991	7	10000	2	1	0	2	0
25	992	7	10000	2	1	0	2	0
26	993	7	10000	2	1	0	2	0
25	994	7	10000	2	1	0	2	0
26	995	7	10000	2	1	0	2	0
28	996	7	10000	2	1	0	2	0
27	997	7	10000	2	1	0	2	0
28	998	7	10000	2	1	0	2	0
27	999	7	10000	2	1	0	2	0
26	1000	7	10000	2	1	0	2	0
26	1001	7	10000	2	1	0	2	0
19	1	7	10000	3	1	0	3	0
19	2	7	10000	3	1	0	3	0
19	3	7	10000	3	1	0	3	0
19	4	7	10000	3	1	0	3	0
18	5	7	10000	3	1	0	3	0
18	6	7	10000	3	1	0	3	0
18	7	7	10000	3	1	0	3	0
18	8	7	10000	3	1	0	3	0
19	9	7	10000	3	1	0	3	0
20	10	7	10000	3	1	0	3	0
23	11	7	10000	3	1	0	3	0
24	12	7	10000	3	1	0	3	0
24	13	7	10000	3	1	0	3	0
23	14	7	10000	3	1	0	3	0
23	15	7	10000	3	1	0	3	0
22	16	7	10000	3	1	0	3	0
21	17	7	10000	3	1	0	3	0
21	18	7	10000	3	1	0	3	0
22	19	7	10000	3	1	0	3	0
22	20	7	10000	3	1	0	3	0
24	20	7	10000	3	1	0	3	0
26	21	7	10000	3	1	0	3	0
26	23	7	10000	3	1	0	3	0
27	24	7	10000	3	1	0	3	0
26	25	7	10000	3	1	0	3	0
25	26	7	10000	3	1	0	3	0
25	27	7	10000	3	1	0	3	0
25	28	7	10000	3	1	0	3	0
24	29	7	10000	3	1	0	3	0
26	30	7	10000	3	1	0	3	0
26	31	7	10000	3	1	0	3	0
26	32	7	10000	3	1	0	3	0
26	33	7	10000	3	1	0	3	0
24	34	7	10000	3	1	0	3	0
24	35	7	10000	3	1	0	3	0
24	36	7	10000	3	1	0	3	0
24	37	7	10000	3	1	0	3	0
23	38	7	10000	3	1	0	3	0
23	39	7	10000	3	1	0	3	0
23	40	7	10000	3	1	0	3	0
21	40	7	10000	3	1	0	3	0
22	41	7	10000	3	1	0	3	0
22	43	7	10000	3	1	0	3	0
24	44	7	10000	3	1	0	3	0
22	45	7	10000	3	1	0	3	0
23	46	7	10000	3	1	0	3	0
21	47	7	10000	3	1	0	3	0
22	48	7	10000	3	1	0	3	0
22	49	7	10000	3	1	0	3	0
23	50	7	10000	3	1	0	3	0
25	50	7	10000	3	1	0	3	0
25	51	7	10000	3	1	0	3	0
26	53	7	10000	3	1	0	3	0
28	54	7	10000	3	1	0	3	0
29	55	7	10000	3	1	0	3	0
29	56	7	10000	3	1	0	3	0
29	57	7	10000	3	1	0	3	0
29	58	7	10000	3	1	0	3	0
28	59	7	10000	3	1	0	3	0
27	60	7	10000	3	1	0	3	0
26	61	7	10000	3	1	0	3	0
25	62	7	10000	3	1	0	3	0
27	63	7	10000	3	1	0	3	0
27	64	7	10000	3	1	0	3	0
28	65	7	10000	3	1	0	3	0
27	66	7	10000	3	1	0	3	0
28	67	7	10000	3	1	0	3	0
27	68	7	10000	3	1	0	3	0
26	69	7	10000	3	1	0	3	0
26	70	7	10000	3	1	0	3	0
27	71	7	10000	3	1	0	3	0
28	72	7	10000	3	1	0	3	0
28	73	7	10000	3	1	0	3	0
26	74	7	10000	3	1	0	3	0
26	75	7	10000	3	1	0	3	0
25	76	7	10000	3	1	0	3	0
25	77	7	10000	3	1	0	3	0
25	78	7	10000	3	1	0	3	0
26	79	7	10000	3	1	0	3	0
24	80	7	10000	3	1	0	3	0
23	81	7	10000	3	1	0	3	0
23	82	7	10000	3	1	0	3	0
22	83	7	10000	3	1	0	3	0
22	84	7	10000	3	1	0	3	0
22	85	7	10000	3	1	0	3	0
22	86	7	10000	3	1	0	3	0
21	87	7	10000	3	1	0	3	0
21	88	7	10000	3	1	0	3	0
20	89	7	10000	3	1	0	3	0
20	90	7	10000	3	1	0	3	0
22	90	7	10000	3	1	0	3	0
20	91	7	10000	3	1	0	3	0
21	93	7	10000	3	1	0	3	0
20	94	7	10000	3	1	0	3	0
20	95	7	10000	3	1	0	3	0
20	96	7	10000	3	1	0	3	0
20	97	7	10000	3	1	0	3	0
20	98	7	10000	3	1	0	3	0
22	99	7	10000	3	1	0	3	0
21	100	7	10000	3	1	0	3	0
22	101	7	10000	3	1	0	3	0
22	102	7	10000	3	1	0	3	0
23	103	7	10000	3	1	0	3	0
23	104	7	10000	3	1	0	3	0
22	105	7	10000	3	1	0	3	0
23	106	7	10000	3	1	0	3	0
25	107	7	10000	3	1	0	3	0
25	108	7	10000	3	1	0	3	0
23	109	7	10000	3	1	0	3	0
24	110	7	10000	3	1	0	3	0
26	111	7	10000	3	1	0	3	0
26	112	7	10000	3	1	0	3	0
27	113	7	10000	3	1	0	3	0
25	114	7	10000	3	1	0	3	0
26	115	7	10000	3	1	0	3	0
25	116	7	10000	3	1	0	3	0
25	117	7	10000	3	1	0	3	0
25	118	7	10000	3	1	0	3	0
24	119	7	10000	3	1	0	3	0
23	120	7	10000	3	1	0	3	0
21	121	7	10000	3	1	0	3	0
21	122	7	10000	3	1	0	3	0
21	123	7	10000	3	1	0	3	0
21	124	7	10000	3	1	0	3	0
20	125	7	10000	3	1	0	3	0
21	126	7	10000	3	1	0	3	0
20	127	7	10000	3	1	0	3	0
20	128	7	10000	3	1	0	3	0
21	129	7	10000	3	1	0	3	0
22	130	7	10000	3	1	0	3	0
23	130	7	10000	3	1	0	3	0
22	131	7	10000	3	1	0	3	0
21	133	7	10000	3	1	0	3	0
21	134	7	10000	3	1	0	3	0
20	135	7	10000	3	1	0	3	0
20	136	7	10000	3	1	0	3	0
20	137	7	10000	3	1	0	3	0
21	138	7	10000	3	1	0	3	0
20	139	7	10000	3	1	0	3	0
20	140	7	10000	3	1	0	3	0
19	141	7	10000	3	1	0	3	0
19	142	7	10000	3	1	0	3	0
19	143	7	10000	3	1	0	3	0
20	144	7	10000	3	1	0	3	0
21	145	7	10000	3	1	0	3	0
21	146	7	10000	3	1	0	3	0
21	147	7	10000	3	1	0	3	0
19	148	7	10000	3	1	0	3	0
19	149	7	10000	3	1	0	3	0
20	150	7	10000	3	1	0	3	0
20	151	7	10000	3	1	0	3	0
22	152	7	10000	3	1	0	3	0
23	153	7	10000	3	1	0	3	0
22	154	7	10000	3	1	0	3	0
22	155	7	10000	3	1	0	3	0
22	156	7	10000	3	1	0	3	0
22	157	7	10000	3	1	0	3	0
23	158	7	10000	3	1	0	3	0
24	159	7	10000	3	1	0	3	0
26	160	7	10000	3	1	0	3	0
25	161	7	10000	3	1	0	3	0
27	162	7	10000	3	1	0	3	0
26	163	7	10000	3	1	0	3	0
26	164	7	10000	3	1	0	3	0
25	165	7	10000	3	1	0	3	0
24	166	7	10000	3	1	0	3	0
24	167	7	10000	3	1	0	3	0
23	168	7	10000	3	1	0	3	0
22	169	7	10000	3	1	0	3	0
22	170	7	10000	3	1	0	3	0
22	170	7	10000	3	1	0	3	0
23	171	7	10000	3	1	0	3	0
23	173	7	10000	3	1	0	3	0
24	174	7	10000	3	1	0	3	0
23	175	7	10000	3	1	0	3	0
23	176	7	10000	3	1	0	3	0
22	177	7	10000	3	1	0	3	0
23	178	7	10000	3	1	0	3	0
23	179	7	10000	3	1	0	3	0
22	180	7	10000	3	1	0	3	0
21	180	7	10000	3	1	0	3	0
20	181	7	10000	3	1	0	3	0
20	183	7	10000	3	1	0	3	0
21	184	7	10000	3	1	0	3	0
20	185	7	10000	3	1	0	3	0
20	186	7	10000	3	1	0	3	0
21	187	7	10000	3	1	0	3	0
20	188	7	10000	3	1	0	3	0
20	189	7	10000	3	1	0	3	0
21	190	7	10000	3	1	0	3	0
22	191	7	10000	3	1	0	3	0
23	192	7	10000	3	1	0	3	0
23	193	7	10000	3	1	0	3	0
24	194	7	10000	3	1	0	3	0
24	195	7	10000	3	1	0	3	0
25	196	7	10000	3	1	0	3	0
24	197	7	10000	3	1	0	3	0
25	198	7	10000	3	1	0	3	0
24	199	7	10000	3	1	0	3	0
25	200	7	10000	3	1	0	3	0
25	201	7	10000	3	1	0	3	0
25	202	7	10000	3	1	0	3	0
25	203	7	10000	3	1	0	3	0
26	204	7	10000	3	1	0	3	0
25	205	7	10000	3	1	0	3	0
25	206	7	10000	3	1	0	3	0
26	207	7	10000	3	1	0	3	0
27	208	7	10000	3	1	0	3	0
27	209	7	10000	3	1	0	3	0
28	210	7	10000	3	1	0	3	0
29	211	7	10000	3	1	0	3	0
27	212	7	10000	3	1	0	3	0
27	213	7	10000	3	1	0	3	0
26	214	7	10000	3	1	0	3	0
26	215	7	10000	3	1	0	3	0
25	216	7	10000	3	1	0	3	0
24	217	7	10000	3	1	0	3	0
24	218	7	10000	3	1	0	3	0
24	219	7	10000	3	1	0	3	0
23	220	7	10000	3	1	0	3	0
23	221	7	10000	3	1	0	3	0
22	222	7	10000	3	1	0	3	0
21	223	7	10000	3	1	0	3	0
22	224	7	10000	3	1	0	3	0
21	225	7	10000	3	1	0	3	0
21	226	7	10000	3	1	0	3	0
21	227	7	10000	3	1	0	3	0
20	228	7	10000	3	1	0	3	0
20	229	7	10000	3	1	0	3	0
21	230	7	10000	3	1	0	3	0
22	231	7	10000	3	1	0	3	0
21	232	7	10000	3	1	0	3	0
21	233	7	10000	3	1	0	3	0
20	234	7	10000	3	1	0	3	0
21	235	7	10000	3	1	0	3	0
23	236	7	10000	3	1	0	3	0
25	237	7	10000	3	1	0	3	0
26	238	7	10000	3	1	0	3	0
25	239	7	10000	3	1	0	3	0
24	240	7	10000	3	1	0	3	0
25	241	7	10000	3	1	0	3	0
25	242	7	10000	3	1	0	3	0
27	243	7	10000	3	1	0	3	0
27	244	7	10000	3	1	0	3	0
27	245	7	10000	3	1	0	3	0
27	246	7	10000	3	1	0	3	0
27	247	7	10000	3	1	0	3	0
27	248	7	10000	3	1	0	3	0
26	249	7	10000	3	1	0	3	0
26	250	7	10000	3	1	0	3	0
27	251	7	10000	3	1	0	3	0
26	252	7	10000	3	1	0	3	0
25	253	7	10000	3	1	0	3	0
25	254	7	10000	3	1	0	3	0
25	255	7	10000	3	1	0	3	0
24	256	7	10000	3	1	0	3	0
23	257	7	10000	3	1	0	3	0
24	258	7	10000	3	1	0	3	0
23	259	7	10000	3	1	0	3	0
22	260	7	10000	3	1	0	3	0
21	261	7	10000	3	1	0	3	0
22	262	7	10000	3	1	0	3	0
21	263	7	10000	3	1	0	3	0
22	264	7	10000	3	1	0	3	0
21	265	7	10000	3	1	0	3	0
22	266	7	10000	3	1	0	3	0
22	267	7	10000	3	1	0	3	0
21	268	7	10000	3	1	0	3	0
20	269	7	10000	3	1	0	3	0
22	270	7	10000	3	1	0	3	0
22	271	7	10000	3	1	0	3	0
22	272	7	10000	3	1	0	3	0
23	273	7	10000	3	1	0	3	0
25	274	7	10000	3	1	0	3	0
24	275	7	10000	3	1	0	3	0
24	276	7	10000	3	1	0	3	0
25	277	7	10000	3	1	0	3	0
24	278	7	10000	3	1	0	3	0
24	279	7	10000	3	1	0	3	0
24	280	7	10000	3	1	0	3	0
22	281	7	10000	3	1	0	3	0
22	282	7	10000	3	1	0	3	0
21	283	7	10000	3	1	0	3	0
21	284	7	10000	3	1	0	3	0
21	285	7	10000	3	1	0	3	0
21	286	7	10000	3	1	0	3	0
21	287	7	10000	3	1	0	3	0
21	288	7	10000	3	1	0	3	0
21	289	7	10000	3	1	0	3	0
22	290	7	10000	3	1	0	3	0
22	291	7	10000	3	1	0	3	0
22	292	7	10000	3	1	0	3	0
22	293	7	10000	3	1	0	3	0
21	294	7	10000	3	1	0	3	0
20	295	7	10000	3	1	0	3	0
20	296	7	10000	3	1	0	3	0
20	297	7	10000	3	1	0	3	0
20	298	7	10000	3	1	0	3	0
20	299	7	10000	3	1	0	3	0
18	300	7	10000	3	1	0	3	0
18	301	7	10000	3	1	0	3	0
18	302	7	10000	3	1	0	3	0
18	303	7	10000	3	1	0	3	0
18	304	7	10000	3	1	0	3	0
18	305	7	10000	3	1	0	3	0
17	306	7	10000	3	1	0	3	0
18	307	7	10000	3	1	0	3	0
17	308	7	10000	3	1	0	3	0
16	309	7	10000	3	1	0	3	0
16	310	7	10000	3	1	0	3	0
18	311	7	10000	3	1	0	3	0
17	312	7	10000	3	1	0	3	0
17	313	7	10000	3	1	0	3	0
17	314	7	10000	3	1	0	3	0
17	315	7	10000	3	1	0	3	0
17	316	7	10000	3	1	0	3	0
20	317	7	10000	3	1	0	3	0
23	318	7	10000	3	1	0	3	0
24	319	7	10000	3	1	0	3	0
23	320	7	10000	3	1	0	3	0
21	321	7	10000	3	1	0	3	0
21	322	7	10000	3	1	0	3	0
21	323	7	10000	3	1	0	3	0
21	324	7	10000	3	1	0	3	0
20	325	7	10000	3	1	0	3	0
22	326	7	10000	3	1	0	3	0
24	327	7	10000	3	1	0	3	0
24	328	7	10000	3	1	0	3	0
25	329	7	10000	3	1	0	3	0
25	330	7	10000	3	1	0	3	0
25	330	7	10000	3	1	0	3	0
25	331	7	10000	3	1	0	3	0
25	333	7	10000	3	1	0	3	0
25	334	7	10000	3	1	0	3	0
28	335	7	10000	3	1	0	3	0
28	336	7	10000	3	1	0	3	0
30	337	7	10000	3	1	0	3	0
34	338	7	10000	3	1	0	3	0
37	339	7	10000	3	1	0	3	0
40	340	7	10000	3	1	0	3	0
43	341	7	10000	3	1	0	3	0
45	342	7	10000	3	1	0	3	0
47	343	7	10000	3	1	0	3	0
51	344	7	10000	3	1	0	3	0
52	345	7	10000	3	1	0	3	0
55	346	7	10000	3	1	0	3	0
56	347	7	10000	3	1	0	3	0
59	348	7	10000	3	1	0	3	0
60	349	7	10000	3	1	0	3	0
62	350	7	10000	3	1	0	3	0
62	351	7	10000	3	1	0	3	0
61	352	7	10000	3	1	0	3	0
59	353	7	10000	3	1	0	3	0
58	354	7	10000	3	1	0	3	0
56	355	7	10000	3	1	0	3	0
55	356	7	10000	3	1	0	3	0
53	357	7	10000	3	1	0	3	0
52	358	7	10000	3	1	0	3	0
51	359	7	10000	3	1	0	3	0
51	360	7	10000	3	1	0	3	0
49	360	7	10000	3	1	0	3	0
49	361	7	10000	3	1	0	3	0
47	363	7	10000	3	1	0	3	0
46	364	7	10000	3	1	0	3	0
45	365	7	10000	3	1	0	3	0
46	366	7	10000	3	1	0	3	0
48	367	7	10000	3	1	0	3	0
52	368	7	10000	3	1	0	3	0
56	369	7	10000	3	1	0	3	0
60	370	7	10000	3	1	0	3	0
64	370	7	10000	3	1	0	3	0
65	371	7	10000	3	1	0	3	0
66	373	7	10000	3	1	0	3	0
66	374	7	10000	3	1	0	3	0
67	375	7	10000	3	1	0	3	0
67	376	7	10000	3	1	0	3	0
66	377	7	10000	3	1	0	3	0
67	378	7	10000	3	1	0	3	0
67	379	7	10000	3	1	0	3	0
66	380	7	10000	3	1	0	3	0
67	381	7	10000	3	1	0	3	0
65	382	7	10000	3	1	0	3	0
66	383	7	10000	3	1	0	3	0
65	384	7	10000	3	1	0	3	0
66	385	7	10000	3	1	0	3	0
66	386	7	10000	3	1	0	3	0
67	387	7	10000	3	1	0	3	0
67	388	7	10000	3	1	0	3	0
66	389	7	10000	3	1	0	3	0
65	390	7	10000	3	1	0	3	0
64	390	7	10000	3	1	0	3	0
62	391	7	10000	3	1	0	3	0
59	393	7	10000	3	1	0	3	0
57	394	7	10000	3	1	0	3	0
56	395	7	10000	3	1	0	3	0
54	396	7	10000	3	1	0	3	0
52	397	7	10000	3	1	0	3	0
51	398	7	10000	3	1	0	3	0
50	399	7	10000	3	1	0	3	0
50	400	7	10000	3	1	0	3	0
47	400	7	10000	3	1	0	3	0
47	401	7	10000	3	1	0	3	0
47	403	7	10000	3	1	0	3	0
46	404	7	10000	3	1	0	3	0
44	405	7	10000	3	1	0	3	0
44	406	7	10000	3	1	0	3	0
42	407	7	10000	3	1	0	3	0
40	408	7	10000	3	1	0	3	0
39	409	7	10000	3	1	0	3	0
38	410	7	10000	3	1	0	3	0
39	410	7	10000	3	1	0	3	0
38	411	7	10000	3	1	0	3	0
37	413	7	10000	3	1	0	3	0
35	414	7	10000	3	1	0	3	0
35	415	7	10000	3	1	0	3	0
33	416	7	10000	3	1	0	3	0
32	417	7	10000	3	1	0	3	0
33	418	7	10000	3	1	0	3	0
32	419	7	10000	3	1	0	3	0
30	420	7	10000	3	1	0	3	0
29	420	7	10000	3	1	0	3	0
28	421	7	10000	3	1	0	3	0
27	423	7	10000	3	1	0	3	0
28	424	7	10000	3	1	0	3	0
27	425	7	10000	3	1	0	3	0
25	426	7	10000	3	1	0	3	0
25	427	7	10000	3	1	0	3	0
25	428	7	10000	3	1	0	3	0
25	429	7	10000	3	1	0	3	0
26	430	7	10000	3	1	0	3	0
26	430	7	10000	3	1	0	3	0
26	431	7	10000	3	1	0	3	0
25	433	7	10000	3	1	0	3	0
25	434	7	10000	3	1	0	3	0
24	435	7	10000	3	1	0	3	0
23	436	7	10000	3	1	0	3	0
23	437	7	10000	3	1	0	3	0
23	438	7	10000	3	1	0	3	0
22	439	7	10000	3	1	0	3	0
22	440	7	10000	3	1	0	3	0
20	441	7	10000	3	1	0	3	0
21	442	7	10000	3	1	0	3	0
23	443	7	10000	3	1	0	3	0
24	444	7	10000	3	1	0	3	0
24	445	7	10000	3	1	0	3	0
24	446	7	10000	3	1	0	3	0
23	447	7	10000	3	1	0	3	0
23	448	7	10000	3	1	0	3	0
23	449	7	10000	3	1	0	3	0
24	450	7	10000	3	1	0	3	0
25	450	7	10000	3	1	0	3	0
26	451	7	10000	3	1	0	3	0
24	453	7	10000	3	1	0	3	0
24	454	7	10000	3	1	0	3	0
24	455	7	10000	3	1	0	3	0
22	456	7	10000	3	1	0	3	0
23	457	7	10000	3	1	0	3	0
23	458	7	10000	3	1	0	3	0
23	459	7	10000	3	1	0	3	0
21	460	7	10000	3	1	0	3	0
20	460	7	10000	3	1	0	3	0
20	461	7	10000	3	1	0	3	0
20	463	7	10000	3	1	0	3	0
22	464	7	10000	3	1	0	3	0
21	465	7	10000	3	1	0	3	0
21	466	7	10000	3	1	0	3	0
20	467	7	10000	3	1	0	3	0
20	468	7	10000	3	1	0	3	0
20	469	7	10000	3	1	0	3	0
21	470	7	10000	3	1	0	3	0
21	471	7	10000	3	1	0	3	0
22	472	7	10000	3	1	0	3	0
21	473	7	10000	3	1	0	3	0
20	474	7	10000	3	1	0	3	0
21	475	7	10000	3	1	0	3	0
20	476	7	10000	3	1	0	3	0
22	477	7	10000	3	1	0	3	0
21	478	7	10000	3	1	0	3	0
21	479	7	10000	3	1	0	3	0
20	480	7	10000	3	1	0	3	0
19	481	7	10000	3	1	0	3	0
19	482	7	10000	3	1	0	3	0
20	483	7	10000	3	1	0	3	0
20	484	7	10000	3	1	0	3	0
20	485	7	10000	3	1	0	3	0
22	486	7	10000	3	1	0	3	0
22	487	7	10000	3	1	0	3	0
21	488	7	10000	3	1	0	3	0
21	489	7	10000	3	1	0	3	0
21	490	7	10000	3	1	0	3	0
23	491	7	10000	3	1	0	3	0
24	492	7	10000	3	1	0	3	0
24	493	7	10000	3	1	0	3	0
23	494	7	10000	3	1	0	3	0
24	495	7	10000	3	1	0	3	0
24	496	7	10000	3	1	0	3	0
22	497	7	10000	3	1	0	3	0
23	498	7	10000	3	1	0	3	0
22	499	7	10000	3	1	0	3	0
21	500	7	10000	3	1	0	3	0
20	500	7	10000	3	1	0	3	0
20	501	7	10000	3	1	0	3	0
20	503	7	10000	3	1	0	3	1
20	504	7	10000	3	1	0	3	1
21	505	7	10000	3	1	0	3	1
21	506	7	10000	3	1	0	3	1
22	507	7	10000	3	1	0	3	1
22	508	7	10000	3	1	0	3	1
22	509	7	10000	3	1	0	3	1
22	510	7	10000	3	1	0	3	1
24	510	7	10000	3	1	0	3	1
23	511	7	10000	3	1	0	3	1
23	513	7	10000	3	1	0	3	1
22	514	7	10000	3	1	0	3	1
23	515	7	10000	3	1	0	3	1
23	516	7	10000	3	1	0	3	1
23	517	7	10000	3	1	0	3	1
22	518	7	10000	3	1	0	3	1
23	519	7	10000	3	1	0	3	1
21	520	7	10000	3	1	0	3	1
20	521	7	10000	3	1	0	3	1
20	522	7	10000	3	1	0	3	1
21	523	7	10000	3	1	0	3	1
21	524	7	10000	3	1	0	3	1
21	525	7	10000	3	1	0	3	1
23	526	7	10000	3	1	0	3	1
22	527	7	10000	3	1	0	3	1
21	528	7	10000	3	1	0	3	1
22	529	7	10000	3	1	0	3	1
22	530	7	10000	3	1	0	3	1
23	530	7	10000	3	1	0	3	1
23	531	7	10000	3	1	0	3	1
23	533	7	10000	3	1	0	3	1
22	534	7	10000	3	1	0	3	1
22	535	7	10000	3	1	0	3	1
21	536	7	10000	3	1	0	3	1
21	537	7	10000	3	1	0	3	1
22	538	7	10000	3	1	0	3	1
21	539	7	10000	3	1	0	3	1
20	540	7	10000	3	1	0	3	1
18	540	7	10000	3	1	0	3	1
19	541	7	10000	3	1	0	3	1
18	543	7	10000	3	1	0	3	1
18	544	7	10000	3	1	0	3	1
18	545	7	10000	3	1	0	3	1
18	546	7	10000	3	1	0	3	1
18	547	7	10000	3	1	0	3	1
17	548	7	10000	3	1	0	3	1
18	549	7	10000	3	1	0	3	1
19	550	7	10000	3	1	0	3	1
20	550	7	10000	3	1	0	3	1
20	551	7	10000	3	1	0	3	1
19	553	7	10000	3	1	0	3	0
19	554	7	10000	3	1	0	3	0
19	555	7	10000	3	1	0	3	0
19	556	7	10000	3	1	0	3	0
20	557	7	10000	3	1	0	3	0
19	558	7	10000	3	1	0	3	0
20	559	7	10000	3	1	0	3	0
19	560	7	10000	3	1	0	3	0
18	560	7	10000	3	1	0	3	0
18	561	7	10000	3	1	0	3	0
18	563	7	10000	3	1	0	3	0
18	564	7	10000	3	1	0	3	0
18	565	7	10000	3	1	0	3	0
20	566	7	10000	3	1	0	3	0
21	567	7	10000	3	1	0	3	0
22	568	7	10000	3	1	0	3	0
21	569	7	10000	3	1	0	3	0
21	570	7	10000	3	1	0	3	0
22	570	7	10000	3	1	0	3	0
23	571	7	10000	3	1	0	3	0
24	573	7	10000	3	1	0	3	0
24	574	7	10000	3	1	0	3	0
26	575	7	10000	3	1	0	3	0
26	576	7	10000	3	1	0	3	0
26	577	7	10000	3	1	0	3	0
27	578	7	10000	3	1	0	3	0
27	579	7	10000	3	1	0	3	0
26	580	7	10000	3	1	0	3	0
25	580	7	10000	3	1	0	3	0
24	581	7	10000	3	1	0	3	0
24	583	7	10000	3	1	0	3	0
24	584	7	10000	3	1	0	3	0
26	585	7	10000	3	1	0	3	0
27	586	7	10000	3	1	0	3	0
28	587	7	10000	3	1	0	3	0
37	588	7	10000	3	1	0	3	0
52	589	7	10000	3	1	0	3	0
67	590	7	10000	3	1	0	3	0
73	590	7	10000	3	1	0	3	0
76	591	7	10000	3	1	0	3	0
77	593	7	10000	3	1	0	3	0
95	594	7	10000	3	1	0	3	0
109	595	7	10000	3	1	0	3	0
109	596	7	10000	3	1	0	3	0
108	597	7	10000	3	1	0	3	0
117	598	7	10000	3	1	0	3	0
149	599	7	10000	3	1	0	3	0
177	600	7	10000	3	1	0	3	0
223	601	7	10000	3	1	0	3	0
230	602	7	10000	3	1	0	3	0
252	603	7	10000	3	1	0	3	0
295	604	7	10000	3	1	0	3	0
346	605	7	10000	3	1	0	3	0
388	606	7	10000	3	1	0	3	0
405	607	7	10000	3	1	0	3	0
401	608	7	10000	3	1	0	3	0
419	609	7	10000	3	1	0	3	0
433	610	7	10000	3	1	0	3	0
417	610	7	10000	3	1	0	3	0
399	611	7	10000	3	1	0	3	0
392	613	7	10000	3	1	0	3	0
388	614	7	10000	3	1	0	3	0
376	615	7	10000	3	1	0	3	0
386	616	7	10000	3	1	0	3	0
503	617	7	10000	3	1	0	3	0
634	618	7	10000	3	1	0	3	0
715	619	7	10000	3	1	0	3	0
774	620	7	10000	3	1	0	3	0
767	621	7	10000	3	1	0	3	0
813	622	7	10000	3	1	0	3	0
921	623	7	10000	3	1	0	3	0
1016	624	7	10000	3	1	0	3	0
1053	625	7	10000	3	1	0	3	0
1041	626	7	10000	3	1	0	3	0
1002	627	7	10000	3	1	0	3	0
963	628	7	10000	3	1	0	3	0
937	629	7	10000	3	1	0	3	0
922	630	7	10000	3	1	0	3	0
912	630	7	10000	3	1	0	3	0
902	631	7	10000	3	1	0	3	0
895	633	7	10000	3	1	0	3	0
887	634	7	10000	3	1	0	3	0
879	635	7	10000	3	1	0	3	0
870	636	7	10000	3	1	0	3	0
861	637	7	10000	3	1	0	3	0
848	638	7	10000	3	1	0	3	0
836	639	7	10000	3	1	0	3	0
820	640	7	10000	3	1	0	3	0
806	640	7	10000	3	1	0	3	0
794	641	7	10000	3	1	0	3	0
782	643	7	10000	3	1	0	3	0
767	644	7	10000	3	1	0	3	0
749	645	7	10000	3	1	0	3	0
730	646	7	10000	3	1	0	3	0
705	647	7	10000	3	1	0	3	0
677	648	7	10000	3	1	0	3	0
646	649	7	10000	3	1	0	3	0
622	650	7	10000	3	1	0	3	0
605	650	7	10000	3	1	0	3	0
592	651	7	10000	3	1	0	3	0
586	653	7	10000	3	1	0	3	0
580	654	7	10000	3	1	0	3	0
577	655	7	10000	3	1	0	3	0
575	656	7	10000	3	1	0	3	0
578	657	7	10000	3	1	0	3	0
580	658	7	10000	3	1	0	3	0
585	659	7	10000	3	1	0	3	0
587	660	7	10000	3	1	0	3	0
593	660	7	10000	3	1	0	3	0
598	661	7	10000	3	1	0	3	0
602	663	7	10000	3	1	0	3	0
604	664	7	10000	3	1	0	3	0
605	665	7	10000	3	1	0	3	0
606	666	7	10000	3	1	0	3	0
609	667	7	10000	3	1	0	3	0
613	668	7	10000	3	1	0	3	0
620	669	7	10000	3	1	0	3	0
631	670	7	10000	3	1	0	3	0
644	671	7	10000	3	1	0	3	0
659	672	7	10000	3	1	0	3	0
674	673	7	10000	3	1	0	3	0
690	674	7	10000	3	1	0	3	0
704	675	7	10000	3	1	0	3	0
717	676	7	10000	3	1	0	3	0
728	677	7	10000	3	1	0	3	0
735	678	7	10000	3	1	0	3	0
738	679	7	10000	3	1	0	3	0
738	680	7	10000	3	1	0	3	0
733	680	7	10000	3	1	0	3	0
727	681	7	10000	3	1	0	3	0
718	683	7	10000	3	1	0	3	0
704	684	7	10000	3	1	0	3	0
689	685	7	10000	3	1	0	3	0
672	686	7	10000	3	1	0	3	0
654	687	7	10000	3	1	0	3	0
636	688	7	10000	3	1	0	3	0
620	689	7	10000	3	1	0	3	0
606	690	7	10000	3	1	0	3	0
594	690	7	10000	3	1	0	3	0
580	691	7	10000	3	1	0	3	0
568	693	7	10000	3	1	0	3	0
555	694	7	10000	3	1	0	3	0
541	695	7	10000	3	1	0	3	0
527	696	7	10000	3	1	0	3	0
514	697	7	10000	3	1	0	3	0
498	698	7	10000	3	1	0	3	0
478	699	7	10000	3	1	0	3	0
456	700	7	10000	3	1	0	3	0
440	701	7	10000	3	1	0	3	0
428	702	7	10000	3	1	0	3	0
420	703	7	10000	3	1	0	3	0
415	704	7	10000	3	1	0	3	0
412	705	7	10000	3	1	0	3	0
409	706	7	10000	3	1	0	3	0
407	707	7	10000	3	1	0	3	0
404	708	7	10000	3	1	0	3	0
401	709	7	10000	3	1	0	3	0
396	710	7	10000	3	1	0	3	0
391	711	7	10000	3	1	0	3	0
385	712	7	10000	3	1	0	3	0
377	713	7	10000	3	1	0	3	0
368	714	7	10000	3	1	0	3	0
359	715	7	10000	3	1	0	3	0
351	716	7	10000	3	1	0	3	0
345	717	7	10000	3	1	0	3	0
338	718	7	10000	3	1	0	3	0
335	719	7	10000	3	1	0	3	0
333	720	7	10000	3	1	0	3	0
333	721	7	10000	3	1	0	3	0
336	722	7	10000	3	1	0	3	0
341	723	7	10000	3	1	0	3	0
346	724	7	10000	3	1	0	3	0
350	725	7	10000	3	1	0	3	0
355	726	7	10000	3	1	0	3	0
356	727	7	10000	3	1	0	3	0
356	728	7	10000	3	1	0	3	0
353	729	7	10000	3	1	0	3	0
352	730	7	10000	3	1	0	3	0
349	730	7	10000	3	1	0	3	0
345	731	7	10000	3	1	0	3	0
341	733	7	10000	3	1	0	3	0
335	734	7	10000	3	1	0	3	0
329	735	7	10000	3	1	0	3	0
322	736	7	10000	3	1	0	3	0
316	737	7	10000	3	1	0	3	0
310	738	7	10000	3	1	0	3	0
306	739	7	10000	3	1	0	3	0
300	740	7	10000	3	1	0	3	0
297	740	7	10000	3	1	0	3	0
296	741	7	10000	3	1	0	3	0
296	743	7	10000	3	1	0	3	0
296	744	7	10000	3	1	0	3	0
298	745	7	10000	3	1	0	3	0
298	746	7	10000	3	1	0	3	0
297	747	7	10000	3	1	0	3	0
295	748	7	10000	3	1	0	3	0
292	749	7	10000	3	1	0	3	0
287	750	7	10000	3	1	0	3	0
282	750	7	10000	3	1	0	3	0
273	751	7	10000	3	1	0	3	0
263	753	7	10000	3	1	0	3	0
253	754	7	10000	3	1	0	3	0
241	755	7	10000	3	1	0	3	0
230	756	7	10000	3	1	0	3	0
221	757	7	10000	3	1	0	3	0
211	758	7	10000	3	1	0	3	0
204	759	7	10000	3	1	0	3	0
198	760	7	10000	3	1	0	3	0
192	760	7	10000	3	1	0	3	0
190	761	7	10000	3	1	0	3	0
187	763	7	10000	3	1	0	3	0
187	764	7	10000	3	1	0	3	0
186	765	7	10000	3	1	0	3	0
186	766	7	10000	3	1	0	3	0
185	767	7	10000	3	1	0	3	0
183	768	7	10000	3	1	0	3	0
180	769	7	10000	3	1	0	3	0
177	770	7	10000	3	1	0	3	0
170	770	7	10000	3	1	0	3	0
163	771	7	10000	3	1	0	3	0
156	773	7	10000	3	1	0	3	0
150	774	7	10000	3	1	0	3	0
144	775	7	10000	3	1	0	3	0
141	776	7	10000	3	1	0	3	0
138	777	7	10000	3	1	0	3	0
135	778	7	10000	3	1	0	3	0
129	779	7	10000	3	1	0	3	0
123	780	7	10000	3	1	0	3	0
121	780	7	10000	3	1	0	3	0
118	781	7	10000	3	1	0	3	0
117	783	7	10000	3	1	0	3	0
116	784	7	10000	3	1	0	3	0
119	785	7	10000	3	1	0	3	0
121	786	7	10000	3	1	0	3	0
122	787	7	10000	3	1	0	3	0
123	788	7	10000	3	1	0	3	0
122	789	7	10000	3	1	0	3	0
120	790	7	10000	3	1	0	3	0
118	790	7	10000	3	1	0	3	0
112	791	7	10000	3	1	0	3	0
109	793	7	10000	3	1	0	3	0
107	794	7	10000	3	1	0	3	0
106	795	7	10000	3	1	0	3	0
105	796	7	10000	3	1	0	3	0
106	797	7	10000	3	1	0	3	0
105	798	7	10000	3	1	0	3	0
104	799	7	10000	3	1	0	3	0
100	800	7	10000	3	1	0	3	0
94	800	7	10000	3	1	0	3	0
91	801	7	10000	3	1	0	3	0
89	803	7	10000	3	1	0	3	0
88	804	7	10000	3	1	0	3	0
86	805	7	10000	3	1	0	3	0
84	806	7	10000	3	1	0	3	0
83	807	7	10000	3	1	0	3	0
82	808	7	10000	3	1	0	3	0
80	809	7	10000	3	1	0	3	0
79	810	7	10000	3	1	0	3	0
77	810	7	10000	3	1	0	3	0
74	811	7	10000	3	1	0	3	0
73	813	7	10000	3	1	0	3	0
74	814	7	10000	3	1	0	3	0
76	815	7	10000	3	1	0	3	0
78	816	7	10000	3	1	0	3	0
81	817	7	10000	3	1	0	3	0
84	818	7	10000	3	1	0	3	0
85	819	7	10000	3	1	0	3	0
80	820	7	10000	3	1	0	3	0
78	820	7	10000	3	1	0	3	0
77	821	7	10000	3	1	0	3	0
78	823	7	10000	3	1	0	3	0
78	824	7	10000	3	1	0	3	0
80	825	7	10000	3	1	0	3	0
80	826	7	10000	3	1	0	3	0
81	827	7	10000	3	1	0	3	0
82	828	7	10000	3	1	0	3	0
80	829	7	10000	3	1	0	3	0
79	830	7	10000	3	1	0	3	0
77	830	7	10000	3	1	0	3	0
75	831	7	10000	3	1	0	3	0
75	833	7	10000	3	1	0	3	0
76	834	7	10000	3	1	0	3	0
77	835	7	10000	3	1	0	3	0
76	836	7	10000	3	1	0	3	0
77	837	7	10000	3	1	0	3	0
76	838	7	10000	3	1	0	3	0
76	839	7	10000	3	1	0	3	0
73	840	7	10000	3	1	0	3	0
70	840	7	10000	3	1	0	3	0
67	841	7	10000	3	1	0	3	0
65	843	7	10000	3	1	0	3	0
65	844	7	10000	3	1	0	3	0
65	845	7	10000	3	1	0	3	0
63	846	7	10000	3	1	0	3	0
61	847	7	10000	3	1	0	3	0
60	848	7	10000	3	1	0	3	0
57	849	7	10000	3	1	0	3	0
57	850	7	10000	3	1	0	3	0
54	850	7	10000	3	1	0	3	0
53	851	7	10000	3	1	0	3	0
53	853	7	10000	3	1	0	3	0
55	854	7	10000	3	1	0	3	0
56	855	7	10000	3	1	0	3	0
59	856	7	10000	3	1	0	3	0
59	857	7	10000	3	1	0	3	0
61	858	7	10000	3	1	0	3	0
61	859	7	10000	3	1	0	3	0
58	860	7	10000	3	1	0	3	0
55	860	7	10000	3	1	0	3	0
54	861	7	10000	3	1	0	3	0
52	863	7	10000	3	1	0	3	0
51	864	7	10000	3	1	0	3	0
51	865	7	10000	3	1	0	3	0
51	866	7	10000	3	1	0	3	0
50	867	7	10000	3	1	0	3	0
52	868	7	10000	3	1	0	3	0
51	869	7	10000	3	1	0	3	0
53	870	7	10000	3	1	0	3	0
52	870	7	10000	3	1	0	3	0
50	871	7	10000	3	1	0	3	0
49	873	7	10000	3	1	0	3	0
49	874	7	10000	3	1	0	3	0
51	875	7	10000	3	1	0	3	0
52	876	7	10000	3	1	0	3	0
56	877	7	10000	3	1	0	3	0
56	878	7	10000	3	1	0	3	0
56	879	7	10000	3	1	0	3	0
53	880	7	10000	3	1	0	3	0
51	880	7	10000	3	1	0	3	0
49	881	7	10000	3	1	0	3	0
47	883	7	10000	3	1	0	3	0
47	884	7	10000	3	1	0	3	0
48	885	7	10000	3	1	0	3	0
50	886	7	10000	3	1	0	3	0
53	887	7	10000	3	1	0	3	0
55	888	7	10000	3	1	0	3	0
57	889	7	10000	3	1	0	3	0
59	890	7	10000	3	1	0	3	0
60	890	7	10000	3	1	0	3	0
57	891	7	10000	3	1	0	3	0
55	893	7	10000	3	1	0	3	0
54	894	7	10000	3	1	0	3	0
53	895	7	10000	3	1	0	3	0
54	896	7	10000	3	1	0	3	0
54	897	7	10000	3	1	0	3	0
55	898	7	10000	3	1	0	3	0
55	899	7	10000	3	1	0	3	0
51	900	7	10000	3	1	0	3	0
49	900	7	10000	3	1	0	3	0
48	901	7	10000	3	1	0	3	0
47	903	7	10000	3	1	0	3	0
47	904	7	10000	3	1	0	3	0
46	905	7	10000	3	1	0	3	0
45	906	7	10000	3	1	0	3	0
44	907	7	10000	3	1	0	3	0
45	908	7	10000	3	1	0	3	0
42	909	7	10000	3	1	0	3	0
42	910	7	10000	3	1	0	3	0
42	910	7	10000	3	1	0	3	0
40	911	7	10000	3	1	0	3	0
40	913	7	10000	3	1	0	3	0
41	914	7	10000	3	1	0	3	0
44	915	7	10000	3	1	0	3	0
48	916	7	10000	3	1	0	3	0
51	917	7	10000	3	1	0	3	0
54	918	7	10000	3	1	0	3	0
53	919	7	10000	3	1	0	3	0
49	920	7	10000	3	1	0	3	0
49	920	7	10000	3	1	0	3	0
49	921	7	10000	3	1	0	3	0
49	923	7	10000	3	1	0	3	0
50	924	7	10000	3	1	0	3	0
51	925	7	10000	3	1	0	3	0
51	926	7	10000	3	1	0	3	0
52	927	7	10000	3	1	0	3	0
49	928	7	10000	3	1	0	3	0
48	929	7	10000	3	1	0	3	0
48	930	7	10000	3	1	0	3	0
47	930	7	10000	3	1	0	3	0
46	931	7	10000	3	1	0	3	0
45	933	7	10000	3	1	0	3	0
44	934	7	10000	3	1	0	3	0
44	935	7	10000	3	1	0	3	0
44	936	7	10000	3	1	0	3	0
46	937	7	10000	3	1	0	3	0
48	938	7	10000	3	1	0	3	0
53	939	7	10000	3	1	0	3	0
51	940	7	10000	3	1	0	3	0
49	940	7	10000	3	1	0	3	0
48	941	7	10000	3	1	0	3	0
46	943	7	10000	3	1	0	3	0
46	944	7	10000	3	1	0	3	0
47	945	7	10000	3	1	0	3	0
48	946	7	10000	3	1	0	3	0
47	947	7	10000	3	1	0	3	0
45	948	7	10000	3	1	0	3	0
44	949	7	10000	3	1	0	3	0
44	950	7	10000	3	1	0	3	0
43	950	7	10000	3	1	0	3	0
41	951	7	10000	3	1	0	3	0
39	953	7	10000	3	1	0	3	0
39	954	7	10000	3	1	0	3	0
38	955	7	10000	3	1	0	3	0
38	956	7	10000	3	1	0	3	0
38	957	7	10000	3	1	0	3	0
38	958	7	10000	3	1	0	3	0
37	959	7	10000	3	1	0	3	0
37	960	7	10000	3	1	0	3	0
37	960	7	10000	3	1	0	3	0
36	961	7	10000	3	1	0	3	0
36	963	7	10000	3	1	0	3	0
38	964	7	10000	3	1	0	3	0
40	965	7	10000	3	1	0	3	0
43	966	7	10000	3	1	0	3	0
44	967	7	10000	3	1	0	3	0
45	968	7	10000	3	1	0	3	0
44	969	7	10000	3	1	0	3	0
44	970	7	10000	3	1	0	3	0
44	970	7	10000	3	1	0	3	0
44	971	7	10000	3	1	0	3	0
45	973	7	10000	3	1	0	3	0
45	974	7	10000	3	1	0	3	0
45	975	7	10000	3	1	0	3	0
45	976	7	10000	3	1	0	3	0
45	977	7	10000	3	1	0	3	0
44	978	7	10000	3	1	0	3	0
44	979	7	10000	3	1	0	3	0
41	980	7	10000	3	1	0	3	0
40	980	7	10000	3	1	0	3	0
39	981	7	10000	3	1	0	3	0
37	983	7	10000	3	1	0	3	0
37	984	7	10000	3	1	0	3	0
37	985	7	10000	3	1	0	3	0
36	986	7	10000	3	1	0	3	0
36	987	7	10000	3	1	0	3	0
35	988	7	10000	3	1	0	3	0
33	989	7	10000	3	1	0	3	0
34	990	7	10000	3	1	0	3	0
34	990	7	10000	3	1	0	3	0
36	991	7	10000	3	1	0	3	0
37	993	7	10000	3	1	0	3	0
38	994	7	10000	3	1	0	3	0
39	995	7	10000	3	1	0	3	0
41	996	7	10000	3	1	0	3	0
41	997	7	10000	3	1	0	3	0
43	998	7	10000	3	1	0	3	0
43	999	7	10000	3	1	0	3	0
41	1000	7	10000	3	1	0	3	0
41	1000	7	10000	3	1	0	3	0
40	1001	7	10000	3	1	0	3	0
29	2	0	10000	4	1	0	4	0
30	3	0	10000	4	1	0	4	0
30	4	0	10000	4	1	0	4	0
28	5	0	10000	4	1	0	4	0
27	6	0	10000	4	1	0	4	0
28	7	0	10000	4	1	0	4	0
28	8	0	10000	4	1	0	4	0
27	9	0	10000	4	1	0	4	0
28	10	0	10000	4	1	0	4	0
27	11	0	10000	4	1	0	4	0
26	12	0	10000	4	1	0	4	0
26	13	0	10000	4	1	0	4	0
24	14	0	10000	4	1	0	4	0
26	15	0	10000	4	1	0	4	0
26	16	0	10000	4	1	0	4	0
24	17	0	10000	4	1	0	4	0
25	18	0	10000	4	1	0	4	0
24	19	0	10000	4	1	0	4	0
23	20	0	10000	4	1	0	4	0
22	21	0	10000	4	1	0	4	0
22	21	0	10000	4	1	0	4	0
22	22	0	10000	4	1	0	4	0
22	24	0	10000	4	1	0	4	0
21	25	0	10000	4	1	0	4	0
20	26	0	10000	4	1	0	4	0
21	27	0	10000	4	1	0	4	0
22	28	0	10000	4	1	0	4	0
22	29	0	10000	4	1	0	4	0
21	30	0	10000	4	1	0	4	0
21	31	0	10000	4	1	0	4	0
20	31	0	10000	4	1	0	4	0
20	32	0	10000	4	1	0	4	0
19	34	0	10000	4	1	0	4	0
21	35	0	10000	4	1	0	4	0
23	36	0	10000	4	1	0	4	0
26	37	0	10000	4	1	0	4	0
26	38	0	10000	4	1	0	4	0
24	39	0	10000	4	1	0	4	0
25	40	0	10000	4	1	0	4	0
27	41	0	10000	4	1	0	4	0
29	41	0	10000	4	1	0	4	0
29	42	0	10000	4	1	0	4	0
30	44	0	10000	4	1	0	4	0
28	45	0	10000	4	1	0	4	0
27	46	0	10000	4	1	0	4	0
27	47	0	10000	4	1	0	4	0
26	48	0	10000	4	1	0	4	0
26	49	0	10000	4	1	0	4	0
25	50	0	10000	4	1	0	4	0
25	51	0	10000	4	1	0	4	0
24	51	0	10000	4	1	0	4	0
23	52	0	10000	4	1	0	4	0
23	54	0	10000	4	1	0	4	0
23	55	0	10000	4	1	0	4	0
23	56	0	10000	4	1	0	4	0
23	57	0	10000	4	1	0	4	0
21	58	0	10000	4	1	0	4	0
21	59	0	10000	4	1	0	4	0
22	60	0	10000	4	1	0	4	0
20	61	0	10000	4	1	0	4	0
21	61	0	10000	4	1	0	4	0
20	62	0	10000	4	1	0	4	0
22	64	0	10000	4	1	0	4	0
21	65	0	10000	4	1	0	4	0
20	66	0	10000	4	1	0	4	0
20	67	0	10000	4	1	0	4	0
21	68	0	10000	4	1	0	4	0
21	69	0	10000	4	1	0	4	0
23	70	0	10000	4	1	0	4	0
24	71	0	10000	4	1	0	4	0
22	71	0	10000	4	1	0	4	0
24	72	0	10000	4	1	0	4	0
25	74	0	10000	4	1	0	4	0
27	75	0	10000	4	1	0	4	0
28	76	0	10000	4	1	0	4	0
26	77	0	10000	4	1	0	4	0
25	78	0	10000	4	1	0	4	0
25	79	0	10000	4	1	0	4	0
25	80	0	10000	4	1	0	4	0
25	81	0	10000	4	1	0	4	0
24	81	0	10000	4	1	0	4	0
25	82	0	10000	4	1	0	4	0
26	84	0	10000	4	1	0	4	0
24	85	0	10000	4	1	0	4	0
22	86	0	10000	4	1	0	4	0
23	87	0	10000	4	1	0	4	0
22	88	0	10000	4	1	0	4	0
22	89	0	10000	4	1	0	4	0
21	90	0	10000	4	1	0	4	0
21	91	0	10000	4	1	0	4	0
20	91	0	10000	4	1	0	4	0
20	92	0	10000	4	1	0	4	0
20	94	0	10000	4	1	0	4	0
20	95	0	10000	4	1	0	4	0
21	96	0	10000	4	1	0	4	0
22	97	0	10000	4	1	0	4	0
21	98	0	10000	4	1	0	4	0
20	99	0	10000	4	1	0	4	0
19	100	0	10000	4	1	0	4	0
20	101	0	10000	4	1	0	4	0
20	101	0	10000	4	1	0	4	0
20	102	0	10000	4	1	0	4	0
19	104	0	10000	4	1	0	4	0
20	105	0	10000	4	1	0	4	0
18	106	0	10000	4	1	0	4	0
19	107	0	10000	4	1	0	4	0
19	108	0	10000	4	1	0	4	0
19	109	0	10000	4	1	0	4	0
20	110	0	10000	4	1	0	4	0
21	111	0	10000	4	1	0	4	0
21	111	0	10000	4	1	0	4	0
20	112	0	10000	4	1	0	4	0
20	114	0	10000	4	1	0	4	0
21	115	0	10000	4	1	0	4	0
24	116	0	10000	4	1	0	4	0
24	117	0	10000	4	1	0	4	0
26	118	0	10000	4	1	0	4	0
26	119	0	10000	4	1	0	4	0
25	120	0	10000	4	1	0	4	0
25	121	0	10000	4	1	0	4	0
25	121	0	10000	4	1	0	4	0
25	122	0	10000	4	1	0	4	0
25	124	0	10000	4	1	0	4	0
24	125	0	10000	4	1	0	4	0
23	126	0	10000	4	1	0	4	0
24	127	0	10000	4	1	0	4	0
25	128	0	10000	4	1	0	4	0
25	129	0	10000	4	1	0	4	0
25	130	0	10000	4	1	0	4	0
25	131	0	10000	4	1	0	4	0
23	131	0	10000	4	1	0	4	0
23	132	0	10000	4	1	0	4	0
22	134	0	10000	4	1	0	4	0
23	135	0	10000	4	1	0	4	0
23	136	0	10000	4	1	0	4	0
22	137	0	10000	4	1	0	4	0
21	138	0	10000	4	1	0	4	0
22	139	0	10000	4	1	0	4	0
21	140	0	10000	4	1	0	4	0
20	141	0	10000	4	1	0	4	0
21	141	0	10000	4	1	0	4	0
20	142	0	10000	4	1	0	4	0
20	144	0	10000	4	1	0	4	0
19	145	0	10000	4	1	0	4	0
19	146	0	10000	4	1	0	4	0
20	147	0	10000	4	1	0	4	0
21	148	0	10000	4	1	0	4	0
21	149	0	10000	4	1	0	4	0
20	150	0	10000	4	1	0	4	0
22	151	0	10000	4	1	0	4	0
22	151	0	10000	4	1	0	4	0
23	152	0	10000	4	1	0	4	0
23	154	0	10000	4	1	0	4	0
24	155	0	10000	4	1	0	4	0
23	156	0	10000	4	1	0	4	0
22	157	0	10000	4	1	0	4	0
22	158	0	10000	4	1	0	4	0
22	159	0	10000	4	1	0	4	0
21	160	0	10000	4	1	0	4	0
20	161	0	10000	4	1	0	4	0
20	161	0	10000	4	1	0	4	0
20	162	0	10000	4	1	0	4	0
21	164	0	10000	4	1	0	4	0
20	165	0	10000	4	1	0	4	0
20	166	0	10000	4	1	0	4	0
20	167	0	10000	4	1	0	4	0
20	168	0	10000	4	1	0	4	0
20	169	0	10000	4	1	0	4	0
20	170	0	10000	4	1	0	4	0
19	171	0	10000	4	1	0	4	0
19	171	0	10000	4	1	0	4	0
19	172	0	10000	4	1	0	4	0
18	174	0	10000	4	1	0	4	0
20	175	0	10000	4	1	0	4	0
23	176	0	10000	4	1	0	4	0
23	177	0	10000	4	1	0	4	0
22	178	0	10000	4	1	0	4	0
23	179	0	10000	4	1	0	4	0
24	180	0	10000	4	1	0	4	0
24	181	0	10000	4	1	0	4	0
25	181	0	10000	4	1	0	4	0
24	182	0	10000	4	1	0	4	0
25	184	0	10000	4	1	0	4	0
23	185	0	10000	4	1	0	4	0
23	186	0	10000	4	1	0	4	0
22	187	0	10000	4	1	0	4	0
22	188	0	10000	4	1	0	4	0
22	189	0	10000	4	1	0	4	0
22	190	0	10000	4	1	0	4	0
22	191	0	10000	4	1	0	4	0
21	191	0	10000	4	1	0	4	0
21	192	0	10000	4	1	0	4	0
20	194	0	10000	4	1	0	4	0
22	195	0	10000	4	1	0	4	0
22	196	0	10000	4	1	0	4	0
22	197	0	10000	4	1	0	4	0
21	198	0	10000	4	1	0	4	0
22	199	0	10000	4	1	0	4	0
21	200	0	10000	4	1	0	4	0
22	201	0	10000	4	1	0	4	0
22	201	0	10000	4	1	0	4	0
22	202	0	10000	4	1	0	4	0
22	204	0	10000	4	1	0	4	0
20	205	0	10000	4	1	0	4	0
19	206	0	10000	4	1	0	4	0
20	207	0	10000	4	1	0	4	0
19	208	0	10000	4	1	0	4	0
19	209	0	10000	4	1	0	4	0
19	210	0	10000	4	1	0	4	0
18	211	0	10000	4	1	0	4	0
18	211	0	10000	4	1	0	4	0
18	212	0	10000	4	1	0	4	0
17	214	0	10000	4	1	0	4	0
17	215	0	10000	4	1	0	4	0
18	216	0	10000	4	1	0	4	0
18	217	0	10000	4	1	0	4	0
18	218	0	10000	4	1	0	4	0
19	219	0	10000	4	1	0	4	0
20	220	0	10000	4	1	0	4	0
19	221	0	10000	4	1	0	4	0
19	221	0	10000	4	1	0	4	0
20	222	0	10000	4	1	0	4	0
21	224	0	10000	4	1	0	4	0
21	225	0	10000	4	1	0	4	0
21	226	0	10000	4	1	0	4	0
22	227	0	10000	4	1	0	4	0
22	228	0	10000	4	1	0	4	0
24	229	0	10000	4	1	0	4	0
23	230	0	10000	4	1	0	4	0
24	231	0	10000	4	1	0	4	0
23	231	0	10000	4	1	0	4	0
22	232	0	10000	4	1	0	4	0
21	234	0	10000	4	1	0	4	0
22	235	0	10000	4	1	0	4	0
22	236	0	10000	4	1	0	4	0
21	237	0	10000	4	1	0	4	0
21	238	0	10000	4	1	0	4	0
20	239	0	10000	4	1	0	4	0
20	240	0	10000	4	1	0	4	0
19	241	0	10000	4	1	0	4	0
19	241	0	10000	4	1	0	4	0
19	242	0	10000	4	1	0	4	0
20	244	0	10000	4	1	0	4	0
18	245	0	10000	4	1	0	4	0
17	246	0	10000	4	1	0	4	0
18	247	0	10000	4	1	0	4	0
18	248	0	10000	4	1	0	4	0
18	249	0	10000	4	1	0	4	0
19	250	0	10000	4	1	0	4	0
20	251	0	10000	4	1	0	4	0
22	251	0	10000	4	1	0	4	0
22	252	0	10000	4	1	0	4	0
20	254	0	10000	4	1	0	4	0
22	255	0	10000	4	1	0	4	0
25	256	0	10000	4	1	0	4	0
25	257	0	10000	4	1	0	4	0
25	258	0	10000	4	1	0	4	0
25	259	0	10000	4	1	0	4	0
25	260	0	10000	4	1	0	4	0
23	261	0	10000	4	1	0	4	0
23	261	0	10000	4	1	0	4	0
23	262	0	10000	4	1	0	4	0
22	264	0	10000	4	1	0	4	0
20	265	0	10000	4	1	0	4	0
21	266	0	10000	4	1	0	4	0
20	267	0	10000	4	1	0	4	0
21	268	0	10000	4	1	0	4	0
21	269	0	10000	4	1	0	4	0
20	270	0	10000	4	1	0	4	0
20	271	0	10000	4	1	0	4	0
20	271	0	10000	4	1	0	4	0
20	272	0	10000	4	1	0	4	0
19	274	0	10000	4	1	0	4	0
19	275	0	10000	4	1	0	4	0
20	276	0	10000	4	1	0	4	0
19	277	0	10000	4	1	0	4	0
19	278	0	10000	4	1	0	4	0
18	279	0	10000	4	1	0	4	0
18	280	0	10000	4	1	0	4	0
18	281	0	10000	4	1	0	4	0
18	281	0	10000	4	1	0	4	0
17	282	0	10000	4	1	0	4	0
19	284	0	10000	4	1	0	4	0
17	285	0	10000	4	1	0	4	0
16	286	0	10000	4	1	0	4	0
17	287	0	10000	4	1	0	4	0
18	288	0	10000	4	1	0	4	0
20	289	0	10000	4	1	0	4	0
20	290	0	10000	4	1	0	4	0
20	291	0	10000	4	1	0	4	0
20	291	0	10000	4	1	0	4	0
20	292	0	10000	4	1	0	4	0
20	294	0	10000	4	1	0	4	0
21	295	0	10000	4	1	0	4	0
23	296	0	10000	4	1	0	4	0
23	297	0	10000	4	1	0	4	0
24	298	0	10000	4	1	0	4	0
23	299	0	10000	4	1	0	4	0
23	300	0	10000	4	1	0	4	0
22	301	0	10000	4	1	0	4	0
22	301	0	10000	4	1	0	4	0
22	302	0	10000	4	1	0	4	0
22	304	0	10000	4	1	0	4	0
20	305	0	10000	4	1	0	4	0
19	306	0	10000	4	1	0	4	0
19	307	0	10000	4	1	0	4	0
19	308	0	10000	4	1	0	4	0
19	309	0	10000	4	1	0	4	0
18	310	0	10000	4	1	0	4	0
18	311	0	10000	4	1	0	4	0
18	311	0	10000	4	1	0	4	0
19	312	0	10000	4	1	0	4	0
17	314	0	10000	4	1	0	4	0
18	315	0	10000	4	1	0	4	0
19	316	0	10000	4	1	0	4	0
18	317	0	10000	4	1	0	4	0
18	318	0	10000	4	1	0	4	0
18	319	0	10000	4	1	0	4	0
20	320	0	10000	4	1	0	4	0
22	321	0	10000	4	1	0	4	0
24	321	0	10000	4	1	0	4	0
24	322	0	10000	4	1	0	4	0
25	324	0	10000	4	1	0	4	0
24	325	0	10000	4	1	0	4	0
23	326	0	10000	4	1	0	4	0
25	327	0	10000	4	1	0	4	0
26	328	0	10000	4	1	0	4	0
28	329	0	10000	4	1	0	4	0
27	330	0	10000	4	1	0	4	0
28	331	0	10000	4	1	0	4	0
27	331	0	10000	4	1	0	4	0
27	332	0	10000	4	1	0	4	0
26	334	0	10000	4	1	0	4	0
27	335	0	10000	4	1	0	4	0
26	336	0	10000	4	1	0	4	0
26	337	0	10000	4	1	0	4	0
25	338	0	10000	4	1	0	4	0
23	339	0	10000	4	1	0	4	0
23	340	0	10000	4	1	0	4	0
22	341	0	10000	4	1	0	4	0
22	341	0	10000	4	1	0	4	0
21	342	0	10000	4	1	0	4	0
22	344	0	10000	4	1	0	4	0
20	345	0	10000	4	1	0	4	0
19	346	0	10000	4	1	0	4	0
20	347	0	10000	4	1	0	4	0
19	348	0	10000	4	1	0	4	0
20	349	0	10000	4	1	0	4	0
20	350	0	10000	4	1	0	4	0
19	351	0	10000	4	1	0	4	0
19	351	0	10000	4	1	0	4	0
18	352	0	10000	4	1	0	4	0
18	354	0	10000	4	1	0	4	0
22	355	0	10000	4	1	0	4	0
24	356	0	10000	4	1	0	4	0
25	357	0	10000	4	1	0	4	0
25	358	0	10000	4	1	0	4	0
23	359	0	10000	4	1	0	4	0
23	360	0	10000	4	1	0	4	0
25	361	0	10000	4	1	0	4	0
24	361	0	10000	4	1	0	4	0
24	362	0	10000	4	1	0	4	0
25	364	0	10000	4	1	0	4	0
23	365	0	10000	4	1	0	4	0
23	366	0	10000	4	1	0	4	0
23	367	0	10000	4	1	0	4	0
23	368	0	10000	4	1	0	4	0
22	369	0	10000	4	1	0	4	0
23	370	0	10000	4	1	0	4	0
22	371	0	10000	4	1	0	4	0
21	371	0	10000	4	1	0	4	0
21	372	0	10000	4	1	0	4	0
20	374	0	10000	4	1	0	4	0
21	375	0	10000	4	1	0	4	0
22	376	0	10000	4	1	0	4	0
21	377	0	10000	4	1	0	4	0
21	378	0	10000	4	1	0	4	0
22	379	0	10000	4	1	0	4	0
21	380	0	10000	4	1	0	4	0
23	381	0	10000	4	1	0	4	0
25	381	0	10000	4	1	0	4	0
28	382	0	10000	4	1	0	4	0
28	384	0	10000	4	1	0	4	0
25	385	0	10000	4	1	0	4	0
26	386	0	10000	4	1	0	4	0
25	387	0	10000	4	1	0	4	0
26	388	0	10000	4	1	0	4	0
25	389	0	10000	4	1	0	4	0
24	390	0	10000	4	1	0	4	0
25	391	0	10000	4	1	0	4	0
24	391	0	10000	4	1	0	4	0
22	392	0	10000	4	1	0	4	0
22	394	0	10000	4	1	0	4	0
24	395	0	10000	4	1	0	4	0
23	396	0	10000	4	1	0	4	0
22	397	0	10000	4	1	0	4	0
22	398	0	10000	4	1	0	4	0
21	399	0	10000	4	1	0	4	0
22	400	0	10000	4	1	0	4	0
22	401	0	10000	4	1	0	4	0
21	401	0	10000	4	1	0	4	0
21	402	0	10000	4	1	0	4	0
22	404	0	10000	4	1	0	4	0
20	405	0	10000	4	1	0	4	0
20	406	0	10000	4	1	0	4	0
19	407	0	10000	4	1	0	4	0
19	408	0	10000	4	1	0	4	0
19	409	0	10000	4	1	0	4	0
19	410	0	10000	4	1	0	4	0
20	411	0	10000	4	1	0	4	0
21	411	0	10000	4	1	0	4	0
21	412	0	10000	4	1	0	4	0
21	414	0	10000	4	1	0	4	0
23	415	0	10000	4	1	0	4	0
23	416	0	10000	4	1	0	4	0
23	417	0	10000	4	1	0	4	0
22	418	0	10000	4	1	0	4	0
22	419	0	10000	4	1	0	4	0
22	420	0	10000	4	1	0	4	0
22	421	0	10000	4	1	0	4	0
21	421	0	10000	4	1	0	4	0
22	422	0	10000	4	1	0	4	0
22	424	0	10000	4	1	0	4	0
22	425	0	10000	4	1	0	4	0
21	426	0	10000	4	1	0	4	0
21	427	0	10000	4	1	0	4	0
21	428	0	10000	4	1	0	4	0
22	429	0	10000	4	1	0	4	0
21	430	0	10000	4	1	0	4	0
20	431	0	10000	4	1	0	4	0
21	431	0	10000	4	1	0	4	0
20	432	0	10000	4	1	0	4	0
19	434	0	10000	4	1	0	4	0
20	435	0	10000	4	1	0	4	0
20	436	0	10000	4	1	0	4	0
20	437	0	10000	4	1	0	4	0
21	438	0	10000	4	1	0	4	0
20	439	0	10000	4	1	0	4	0
20	440	0	10000	4	1	0	4	0
20	441	0	10000	4	1	0	4	0
20	441	0	10000	4	1	0	4	0
19	442	0	10000	4	1	0	4	0
19	444	0	10000	4	1	0	4	0
18	445	0	10000	4	1	0	4	0
17	446	0	10000	4	1	0	4	0
20	447	0	10000	4	1	0	4	0
20	448	0	10000	4	1	0	4	0
21	449	0	10000	4	1	0	4	0
21	450	0	10000	4	1	0	4	0
21	451	0	10000	4	1	0	4	0
23	451	0	10000	4	1	0	4	0
24	452	0	10000	4	1	0	4	0
25	454	0	10000	4	1	0	4	0
26	455	0	10000	4	1	0	4	0
28	456	0	10000	4	1	0	4	0
27	457	0	10000	4	1	0	4	0
26	458	0	10000	4	1	0	4	0
25	459	0	10000	4	1	0	4	0
25	460	0	10000	4	1	0	4	0
24	461	0	10000	4	1	0	4	0
24	461	0	10000	4	1	0	4	0
24	462	0	10000	4	1	0	4	0
23	464	0	10000	4	1	0	4	0
22	465	0	10000	4	1	0	4	0
21	466	0	10000	4	1	0	4	0
21	467	0	10000	4	1	0	4	0
21	468	0	10000	4	1	0	4	0
22	469	0	10000	4	1	0	4	0
21	470	0	10000	4	1	0	4	0
21	471	0	10000	4	1	0	4	0
21	471	0	10000	4	1	0	4	0
20	472	0	10000	4	1	0	4	0
19	474	0	10000	4	1	0	4	0
21	475	0	10000	4	1	0	4	0
20	476	0	10000	4	1	0	4	0
20	477	0	10000	4	1	0	4	0
20	478	0	10000	4	1	0	4	0
20	479	0	10000	4	1	0	4	0
20	480	0	10000	4	1	0	4	0
19	481	0	10000	4	1	0	4	0
19	481	0	10000	4	1	0	4	0
20	482	0	10000	4	1	0	4	0
20	484	0	10000	4	1	0	4	0
19	485	0	10000	4	1	0	4	0
21	486	0	10000	4	1	0	4	0
22	487	0	10000	4	1	0	4	0
23	488	0	10000	4	1	0	4	0
23	489	0	10000	4	1	0	4	0
23	490	0	10000	4	1	0	4	0
25	491	0	10000	4	1	0	4	0
25	491	0	10000	4	1	0	4	0
26	492	0	10000	4	1	0	4	0
25	494	0	10000	4	1	0	4	0
27	495	0	10000	4	1	0	4	0
26	496	0	10000	4	1	0	4	0
26	497	0	10000	4	1	0	4	0
25	498	0	10000	4	1	0	4	0
24	499	0	10000	4	1	0	4	0
23	500	0	10000	4	1	0	4	0
24	501	0	10000	4	1	0	4	0
24	502	0	10000	4	1	0	4	1
24	503	0	10000	4	1	0	4	1
24	504	0	10000	4	1	0	4	1
21	505	0	10000	4	1	0	4	1
21	506	0	10000	4	1	0	4	1
20	507	0	10000	4	1	0	4	1
20	508	0	10000	4	1	0	4	1
21	509	0	10000	4	1	0	4	1
20	510	0	10000	4	1	0	4	1
20	511	0	10000	4	1	0	4	1
20	511	0	10000	4	1	0	4	1
18	512	0	10000	4	1	0	4	1
18	514	0	10000	4	1	0	4	1
20	515	0	10000	4	1	0	4	1
20	516	0	10000	4	1	0	4	1
18	517	0	10000	4	1	0	4	1
19	518	0	10000	4	1	0	4	1
18	519	0	10000	4	1	0	4	1
18	520	0	10000	4	1	0	4	1
17	521	0	10000	4	1	0	4	1
18	521	0	10000	4	1	0	4	1
17	522	0	10000	4	1	0	4	1
18	524	0	10000	4	1	0	4	1
17	525	0	10000	4	1	0	4	1
16	526	0	10000	4	1	0	4	1
15	527	0	10000	4	1	0	4	1
16	528	0	10000	4	1	0	4	1
16	529	0	10000	4	1	0	4	1
17	530	0	10000	4	1	0	4	1
19	531	0	10000	4	1	0	4	1
18	531	0	10000	4	1	0	4	1
18	532	0	10000	4	1	0	4	1
17	534	0	10000	4	1	0	4	1
19	535	0	10000	4	1	0	4	1
19	536	0	10000	4	1	0	4	1
18	537	0	10000	4	1	0	4	1
18	538	0	10000	4	1	0	4	1
18	539	0	10000	4	1	0	4	1
18	540	0	10000	4	1	0	4	1
17	541	0	10000	4	1	0	4	1
19	541	0	10000	4	1	0	4	1
19	542	0	10000	4	1	0	4	1
19	544	0	10000	4	1	0	4	1
17	545	0	10000	4	1	0	4	1
17	546	0	10000	4	1	0	4	1
16	547	0	10000	4	1	0	4	1
16	548	0	10000	4	1	0	4	1
17	549	0	10000	4	1	0	4	1
16	550	0	10000	4	1	0	4	1
16	551	0	10000	4	1	0	4	1
16	551	0	10000	4	1	0	4	0
16	552	0	10000	4	1	0	4	0
14	554	0	10000	4	1	0	4	0
17	555	0	10000	4	1	0	4	0
17	556	0	10000	4	1	0	4	0
16	557	0	10000	4	1	0	4	0
16	558	0	10000	4	1	0	4	0
16	559	0	10000	4	1	0	4	0
16	560	0	10000	4	1	0	4	0
15	561	0	10000	4	1	0	4	0
16	561	0	10000	4	1	0	4	0
15	562	0	10000	4	1	0	4	0
15	564	0	10000	4	1	0	4	0
14	565	0	10000	4	1	0	4	0
14	566	0	10000	4	1	0	4	0
14	567	0	10000	4	1	0	4	0
15	568	0	10000	4	1	0	4	0
16	569	0	10000	4	1	0	4	0
15	570	0	10000	4	1	0	4	0
16	571	0	10000	4	1	0	4	0
16	571	0	10000	4	1	0	4	0
17	572	0	10000	4	1	0	4	0
18	574	0	10000	4	1	0	4	0
20	575	0	10000	4	1	0	4	0
20	576	0	10000	4	1	0	4	0
20	577	0	10000	4	1	0	4	0
20	578	0	10000	4	1	0	4	0
21	579	0	10000	4	1	0	4	0
20	580	0	10000	4	1	0	4	0
20	581	0	10000	4	1	0	4	0
20	581	0	10000	4	1	0	4	0
23	582	0	10000	4	1	0	4	0
25	584	0	10000	4	1	0	4	0
28	585	0	10000	4	1	0	4	0
32	586	0	10000	4	1	0	4	0
39	587	0	10000	4	1	0	4	0
51	588	0	10000	4	1	0	4	0
63	589	0	10000	4	1	0	4	0
80	590	0	10000	4	1	0	4	0
113	591	0	10000	4	1	0	4	0
123	591	0	10000	4	1	0	4	0
126	592	0	10000	4	1	0	4	0
137	594	0	10000	4	1	0	4	0
168	595	0	10000	4	1	0	4	0
173	596	0	10000	4	1	0	4	0
195	597	0	10000	4	1	0	4	0
211	598	0	10000	4	1	0	4	0
229	599	0	10000	4	1	0	4	0
235	600	0	10000	4	1	0	4	0
267	601	0	10000	4	1	0	4	0
293	601	0	10000	4	1	0	4	0
290	602	0	10000	4	1	0	4	0
315	604	0	10000	4	1	0	4	0
327	605	0	10000	4	1	0	4	0
327	606	0	10000	4	1	0	4	0
315	607	0	10000	4	1	0	4	0
309	608	0	10000	4	1	0	4	0
330	609	0	10000	4	1	0	4	0
379	610	0	10000	4	1	0	4	0
389	611	0	10000	4	1	0	4	0
405	611	0	10000	4	1	0	4	0
460	612	0	10000	4	1	0	4	0
521	614	0	10000	4	1	0	4	0
522	615	0	10000	4	1	0	4	0
510	616	0	10000	4	1	0	4	0
540	617	0	10000	4	1	0	4	0
554	618	0	10000	4	1	0	4	0
599	619	0	10000	4	1	0	4	0
730	620	0	10000	4	1	0	4	0
799	621	0	10000	4	1	0	4	0
804	621	0	10000	4	1	0	4	0
877	622	0	10000	4	1	0	4	0
944	624	0	10000	4	1	0	4	0
993	625	0	10000	4	1	0	4	0
1015	626	0	10000	4	1	0	4	0
995	627	0	10000	4	1	0	4	0
954	628	0	10000	4	1	0	4	0
929	629	0	10000	4	1	0	4	0
916	630	0	10000	4	1	0	4	0
907	631	0	10000	4	1	0	4	0
902	631	0	10000	4	1	0	4	0
899	632	0	10000	4	1	0	4	0
896	634	0	10000	4	1	0	4	0
891	635	0	10000	4	1	0	4	0
885	636	0	10000	4	1	0	4	0
877	637	0	10000	4	1	0	4	0
869	638	0	10000	4	1	0	4	0
859	639	0	10000	4	1	0	4	0
848	640	0	10000	4	1	0	4	0
837	641	0	10000	4	1	0	4	0
828	641	0	10000	4	1	0	4	0
817	642	0	10000	4	1	0	4	0
806	644	0	10000	4	1	0	4	0
793	645	0	10000	4	1	0	4	0
780	646	0	10000	4	1	0	4	0
763	647	0	10000	4	1	0	4	0
744	648	0	10000	4	1	0	4	0
718	649	0	10000	4	1	0	4	0
688	650	0	10000	4	1	0	4	0
659	651	0	10000	4	1	0	4	0
634	651	0	10000	4	1	0	4	0
617	652	0	10000	4	1	0	4	0
606	654	0	10000	4	1	0	4	0
600	655	0	10000	4	1	0	4	0
594	656	0	10000	4	1	0	4	0
590	657	0	10000	4	1	0	4	0
586	658	0	10000	4	1	0	4	0
586	659	0	10000	4	1	0	4	0
588	660	0	10000	4	1	0	4	0
595	661	0	10000	4	1	0	4	0
604	661	0	10000	4	1	0	4	0
616	662	0	10000	4	1	0	4	0
627	664	0	10000	4	1	0	4	0
639	665	0	10000	4	1	0	4	0
652	666	0	10000	4	1	0	4	0
670	667	0	10000	4	1	0	4	0
686	668	0	10000	4	1	0	4	0
703	669	0	10000	4	1	0	4	0
717	670	0	10000	4	1	0	4	0
731	671	0	10000	4	1	0	4	0
743	671	0	10000	4	1	0	4	0
754	672	0	10000	4	1	0	4	0
764	674	0	10000	4	1	0	4	0
776	675	0	10000	4	1	0	4	0
784	676	0	10000	4	1	0	4	0
791	677	0	10000	4	1	0	4	0
795	678	0	10000	4	1	0	4	0
798	679	0	10000	4	1	0	4	0
799	680	0	10000	4	1	0	4	0
797	681	0	10000	4	1	0	4	0
792	681	0	10000	4	1	0	4	0
784	682	0	10000	4	1	0	4	0
773	684	0	10000	4	1	0	4	0
758	685	0	10000	4	1	0	4	0
743	686	0	10000	4	1	0	4	0
728	687	0	10000	4	1	0	4	0
711	688	0	10000	4	1	0	4	0
694	689	0	10000	4	1	0	4	0
677	690	0	10000	4	1	0	4	0
662	691	0	10000	4	1	0	4	0
646	691	0	10000	4	1	0	4	0
631	692	0	10000	4	1	0	4	0
616	694	0	10000	4	1	0	4	0
603	695	0	10000	4	1	0	4	0
587	696	0	10000	4	1	0	4	0
570	697	0	10000	4	1	0	4	0
552	698	0	10000	4	1	0	4	0
533	699	0	10000	4	1	0	4	0
511	700	0	10000	4	1	0	4	0
487	701	0	10000	4	1	0	4	0
466	701	0	10000	4	1	0	4	0
448	702	0	10000	4	1	0	4	0
433	704	0	10000	4	1	0	4	0
419	705	0	10000	4	1	0	4	0
408	706	0	10000	4	1	0	4	0
399	707	0	10000	4	1	0	4	0
390	708	0	10000	4	1	0	4	0
381	709	0	10000	4	1	0	4	0
371	710	0	10000	4	1	0	4	0
361	711	0	10000	4	1	0	4	0
349	711	0	10000	4	1	0	4	0
338	712	0	10000	4	1	0	4	0
325	714	0	10000	4	1	0	4	0
317	715	0	10000	4	1	0	4	0
309	716	0	10000	4	1	0	4	0
302	717	0	10000	4	1	0	4	0
297	718	0	10000	4	1	0	4	0
295	719	0	10000	4	1	0	4	0
294	720	0	10000	4	1	0	4	0
295	721	0	10000	4	1	0	4	0
297	721	0	10000	4	1	0	4	0
301	722	0	10000	4	1	0	4	0
304	724	0	10000	4	1	0	4	0
307	725	0	10000	4	1	0	4	0
309	726	0	10000	4	1	0	4	0
313	727	0	10000	4	1	0	4	0
317	728	0	10000	4	1	0	4	0
318	729	0	10000	4	1	0	4	0
318	730	0	10000	4	1	0	4	0
317	731	0	10000	4	1	0	4	0
312	731	0	10000	4	1	0	4	0
306	732	0	10000	4	1	0	4	0
297	734	0	10000	4	1	0	4	0
290	735	0	10000	4	1	0	4	0
281	736	0	10000	4	1	0	4	0
273	737	0	10000	4	1	0	4	0
266	738	0	10000	4	1	0	4	0
261	739	0	10000	4	1	0	4	0
256	740	0	10000	4	1	0	4	0
253	741	0	10000	4	1	0	4	0
252	741	0	10000	4	1	0	4	0
253	742	0	10000	4	1	0	4	0
253	744	0	10000	4	1	0	4	0
252	745	0	10000	4	1	0	4	0
253	746	0	10000	4	1	0	4	0
254	747	0	10000	4	1	0	4	0
253	748	0	10000	4	1	0	4	0
252	749	0	10000	4	1	0	4	0
250	750	0	10000	4	1	0	4	0
248	751	0	10000	4	1	0	4	0
244	751	0	10000	4	1	0	4	0
239	752	0	10000	4	1	0	4	0
231	754	0	10000	4	1	0	4	0
225	755	0	10000	4	1	0	4	0
215	756	0	10000	4	1	0	4	0
207	757	0	10000	4	1	0	4	0
201	758	0	10000	4	1	0	4	0
196	759	0	10000	4	1	0	4	0
192	760	0	10000	4	1	0	4	0
191	761	0	10000	4	1	0	4	0
192	761	0	10000	4	1	0	4	0
193	762	0	10000	4	1	0	4	0
196	764	0	10000	4	1	0	4	0
197	765	0	10000	4	1	0	4	0
197	766	0	10000	4	1	0	4	0
199	767	0	10000	4	1	0	4	0
201	768	0	10000	4	1	0	4	0
200	769	0	10000	4	1	0	4	0
198	770	0	10000	4	1	0	4	0
194	771	0	10000	4	1	0	4	0
190	771	0	10000	4	1	0	4	0
184	772	0	10000	4	1	0	4	0
176	774	0	10000	4	1	0	4	0
170	775	0	10000	4	1	0	4	0
163	776	0	10000	4	1	0	4	0
156	777	0	10000	4	1	0	4	0
149	778	0	10000	4	1	0	4	0
142	779	0	10000	4	1	0	4	0
137	780	0	10000	4	1	0	4	0
134	781	0	10000	4	1	0	4	0
133	781	0	10000	4	1	0	4	0
132	782	0	10000	4	1	0	4	0
135	784	0	10000	4	1	0	4	0
134	785	0	10000	4	1	0	4	0
135	786	0	10000	4	1	0	4	0
135	787	0	10000	4	1	0	4	0
134	788	0	10000	4	1	0	4	0
128	789	0	10000	4	1	0	4	0
124	790	0	10000	4	1	0	4	0
119	791	0	10000	4	1	0	4	0
114	791	0	10000	4	1	0	4	0
109	792	0	10000	4	1	0	4	0
103	794	0	10000	4	1	0	4	0
101	795	0	10000	4	1	0	4	0
98	796	0	10000	4	1	0	4	0
93	797	0	10000	4	1	0	4	0
88	798	0	10000	4	1	0	4	0
85	799	0	10000	4	1	0	4	0
82	800	0	10000	4	1	0	4	0
79	801	0	10000	4	1	0	4	0
79	801	0	10000	4	1	0	4	0
78	802	0	10000	4	1	0	4	0
80	804	0	10000	4	1	0	4	0
80	805	0	10000	4	1	0	4	0
82	806	0	10000	4	1	0	4	0
82	807	0	10000	4	1	0	4	0
83	808	0	10000	4	1	0	4	0
80	809	0	10000	4	1	0	4	0
77	810	0	10000	4	1	0	4	0
76	811	0	10000	4	1	0	4	0
74	811	0	10000	4	1	0	4	0
75	812	0	10000	4	1	0	4	0
75	814	0	10000	4	1	0	4	0
78	815	0	10000	4	1	0	4	0
78	816	0	10000	4	1	0	4	0
78	817	0	10000	4	1	0	4	0
76	818	0	10000	4	1	0	4	0
73	819	0	10000	4	1	0	4	0
70	820	0	10000	4	1	0	4	0
68	821	0	10000	4	1	0	4	0
66	821	0	10000	4	1	0	4	0
64	822	0	10000	4	1	0	4	0
62	824	0	10000	4	1	0	4	0
58	825	0	10000	4	1	0	4	0
58	826	0	10000	4	1	0	4	0
58	827	0	10000	4	1	0	4	0
59	828	0	10000	4	1	0	4	0
59	829	0	10000	4	1	0	4	0
58	830	0	10000	4	1	0	4	0
56	831	0	10000	4	1	0	4	0
54	831	0	10000	4	1	0	4	0
53	832	0	10000	4	1	0	4	0
52	834	0	10000	4	1	0	4	0
54	835	0	10000	4	1	0	4	0
55	836	0	10000	4	1	0	4	0
54	837	0	10000	4	1	0	4	0
54	838	0	10000	4	1	0	4	0
52	839	0	10000	4	1	0	4	0
50	840	0	10000	4	1	0	4	0
48	841	0	10000	4	1	0	4	0
47	841	0	10000	4	1	0	4	0
47	842	0	10000	4	1	0	4	0
46	844	0	10000	4	1	0	4	0
44	845	0	10000	4	1	0	4	0
44	846	0	10000	4	1	0	4	0
44	847	0	10000	4	1	0	4	0
43	848	0	10000	4	1	0	4	0
42	849	0	10000	4	1	0	4	0
41	850	0	10000	4	1	0	4	0
40	851	0	10000	4	1	0	4	0
39	851	0	10000	4	1	0	4	0
39	852	0	10000	4	1	0	4	0
40	854	0	10000	4	1	0	4	0
44	855	0	10000	4	1	0	4	0
44	856	0	10000	4	1	0	4	0
44	857	0	10000	4	1	0	4	0
45	858	0	10000	4	1	0	4	0
44	859	0	10000	4	1	0	4	0
45	860	0	10000	4	1	0	4	0
45	861	0	10000	4	1	0	4	0
46	861	0	10000	4	1	0	4	0
44	862	0	10000	4	1	0	4	0
43	864	0	10000	4	1	0	4	0
43	865	0	10000	4	1	0	4	0
44	866	0	10000	4	1	0	4	0
47	867	0	10000	4	1	0	4	0
47	868	0	10000	4	1	0	4	0
47	869	0	10000	4	1	0	4	0
46	870	0	10000	4	1	0	4	0
44	871	0	10000	4	1	0	4	0
43	871	0	10000	4	1	0	4	0
43	872	0	10000	4	1	0	4	0
44	874	0	10000	4	1	0	4	0
46	875	0	10000	4	1	0	4	0
47	876	0	10000	4	1	0	4	0
46	877	0	10000	4	1	0	4	0
46	878	0	10000	4	1	0	4	0
45	879	0	10000	4	1	0	4	0
44	880	0	10000	4	1	0	4	0
44	881	0	10000	4	1	0	4	0
44	881	0	10000	4	1	0	4	0
43	882	0	10000	4	1	0	4	0
42	884	0	10000	4	1	0	4	0
39	885	0	10000	4	1	0	4	0
39	886	0	10000	4	1	0	4	0
38	887	0	10000	4	1	0	4	0
39	888	0	10000	4	1	0	4	0
38	889	0	10000	4	1	0	4	0
37	890	0	10000	4	1	0	4	0
37	891	0	10000	4	1	0	4	0
40	891	0	10000	4	1	0	4	0
43	892	0	10000	4	1	0	4	0
46	894	0	10000	4	1	0	4	0
50	895	0	10000	4	1	0	4	0
48	896	0	10000	4	1	0	4	0
48	897	0	10000	4	1	0	4	0
45	898	0	10000	4	1	0	4	0
44	899	0	10000	4	1	0	4	0
44	900	0	10000	4	1	0	4	0
44	901	0	10000	4	1	0	4	0
44	901	0	10000	4	1	0	4	0
44	902	0	10000	4	1	0	4	0
45	904	0	10000	4	1	0	4	0
44	905	0	10000	4	1	0	4	0
46	906	0	10000	4	1	0	4	0
46	907	0	10000	4	1	0	4	0
46	908	0	10000	4	1	0	4	0
45	909	0	10000	4	1	0	4	0
44	910	0	10000	4	1	0	4	0
43	911	0	10000	4	1	0	4	0
41	911	0	10000	4	1	0	4	0
40	912	0	10000	4	1	0	4	0
38	914	0	10000	4	1	0	4	0
42	915	0	10000	4	1	0	4	0
42	916	0	10000	4	1	0	4	0
43	917	0	10000	4	1	0	4	0
44	918	0	10000	4	1	0	4	0
44	919	0	10000	4	1	0	4	0
43	920	0	10000	4	1	0	4	0
41	921	0	10000	4	1	0	4	0
41	921	0	10000	4	1	0	4	0
41	922	0	10000	4	1	0	4	0
42	924	0	10000	4	1	0	4	0
41	925	0	10000	4	1	0	4	0
43	926	0	10000	4	1	0	4	0
45	927	0	10000	4	1	0	4	0
47	928	0	10000	4	1	0	4	0
47	929	0	10000	4	1	0	4	0
46	930	0	10000	4	1	0	4	0
45	931	0	10000	4	1	0	4	0
43	931	0	10000	4	1	0	4	0
42	932	0	10000	4	1	0	4	0
43	934	0	10000	4	1	0	4	0
47	935	0	10000	4	1	0	4	0
49	936	0	10000	4	1	0	4	0
50	937	0	10000	4	1	0	4	0
48	938	0	10000	4	1	0	4	0
46	939	0	10000	4	1	0	4	0
45	940	0	10000	4	1	0	4	0
46	941	0	10000	4	1	0	4	0
46	941	0	10000	4	1	0	4	0
47	942	0	10000	4	1	0	4	0
47	944	0	10000	4	1	0	4	0
46	945	0	10000	4	1	0	4	0
45	946	0	10000	4	1	0	4	0
45	947	0	10000	4	1	0	4	0
43	948	0	10000	4	1	0	4	0
42	949	0	10000	4	1	0	4	0
41	950	0	10000	4	1	0	4	0
40	951	0	10000	4	1	0	4	0
38	951	0	10000	4	1	0	4	0
37	952	0	10000	4	1	0	4	0
36	954	0	10000	4	1	0	4	0
38	955	0	10000	4	1	0	4	0
40	956	0	10000	4	1	0	4	0
41	957	0	10000	4	1	0	4	0
41	958	0	10000	4	1	0	4	0
41	959	0	10000	4	1	0	4	0
41	960	0	10000	4	1	0	4	0
40	961	0	10000	4	1	0	4	0
40	961	0	10000	4	1	0	4	0
39	962	0	10000	4	1	0	4	0
38	964	0	10000	4	1	0	4	0
37	965	0	10000	4	1	0	4	0
37	966	0	10000	4	1	0	4	0
37	967	0	10000	4	1	0	4	0
36	968	0	10000	4	1	0	4	0
36	969	0	10000	4	1	0	4	0
35	970	0	10000	4	1	0	4	0
34	971	0	10000	4	1	0	4	0
33	971	0	10000	4	1	0	4	0
33	972	0	10000	4	1	0	4	0
36	974	0	10000	4	1	0	4	0
39	975	0	10000	4	1	0	4	0
39	976	0	10000	4	1	0	4	0
37	977	0	10000	4	1	0	4	0
36	978	0	10000	4	1	0	4	0
36	979	0	10000	4	1	0	4	0
36	980	0	10000	4	1	0	4	0
38	981	0	10000	4	1	0	4	0
37	981	0	10000	4	1	0	4	0
38	982	0	10000	4	1	0	4	0
38	984	0	10000	4	1	0	4	0
36	985	0	10000	4	1	0	4	0
36	986	0	10000	4	1	0	4	0
37	987	0	10000	4	1	0	4	0
37	988	0	10000	4	1	0	4	0
37	989	0	10000	4	1	0	4	0
37	990	0	10000	4	1	0	4	0
36	991	0	10000	4	1	0	4	0
35	991	0	10000	4	1	0	4	0
34	992	0	10000	4	1	0	4	0
35	994	0	10000	4	1	0	4	0
37	995	0	10000	4	1	0	4	0
37	996	0	10000	4	1	0	4	0
37	997	0	10000	4	1	0	4	0
36	998	0	10000	4	1	0	4	0
35	999	0	10000	4	1	0	4	0
34	1000	0	10000	4	1	0	4	0
32	1001	0	10000	4	1	0	4	0
22	2	0	10000	5	1	0	5	0
21	3	0	10000	5	1	0	5	0
20	4	0	10000	5	1	0	5	0
20	5	0	10000	5	1	0	5	0
20	6	0	10000	5	1	0	5	0
21	7	0	10000	5	1	0	5	0
21	8	0	10000	5	1	0	5	0
21	9	0	10000	5	1	0	5	0
20	10	0	10000	5	1	0	5	0
21	11	0	10000	5	1	0	5	0
22	12	0	10000	5	1	0	5	0
23	13	0	10000	5	1	0	5	0
22	14	0	10000	5	1	0	5	0
22	15	0	10000	5	1	0	5	0
22	16	0	10000	5	1	0	5	0
21	17	0	10000	5	1	0	5	0
20	18	0	10000	5	1	0	5	0
21	19	0	10000	5	1	0	5	0
23	20	0	10000	5	1	0	5	0
24	21	0	10000	5	1	0	5	0
25	21	0	10000	5	1	0	5	0
25	22	0	10000	5	1	0	5	0
25	24	0	10000	5	1	0	5	0
24	25	0	10000	5	1	0	5	0
25	26	0	10000	5	1	0	5	0
27	27	0	10000	5	1	0	5	0
28	28	0	10000	5	1	0	5	0
29	29	0	10000	5	1	0	5	0
28	30	0	10000	5	1	0	5	0
28	31	0	10000	5	1	0	5	0
28	31	0	10000	5	1	0	5	0
27	32	0	10000	5	1	0	5	0
27	34	0	10000	5	1	0	5	0
26	35	0	10000	5	1	0	5	0
26	36	0	10000	5	1	0	5	0
24	37	0	10000	5	1	0	5	0
24	38	0	10000	5	1	0	5	0
24	39	0	10000	5	1	0	5	0
25	40	0	10000	5	1	0	5	0
24	41	0	10000	5	1	0	5	0
23	41	0	10000	5	1	0	5	0
22	42	0	10000	5	1	0	5	0
22	44	0	10000	5	1	0	5	0
21	45	0	10000	5	1	0	5	0
21	46	0	10000	5	1	0	5	0
21	47	0	10000	5	1	0	5	0
22	48	0	10000	5	1	0	5	0
23	49	0	10000	5	1	0	5	0
23	50	0	10000	5	1	0	5	0
24	51	0	10000	5	1	0	5	0
24	51	0	10000	5	1	0	5	0
24	52	0	10000	5	1	0	5	0
26	54	0	10000	5	1	0	5	0
26	55	0	10000	5	1	0	5	0
28	56	0	10000	5	1	0	5	0
28	57	0	10000	5	1	0	5	0
29	58	0	10000	5	1	0	5	0
28	59	0	10000	5	1	0	5	0
29	60	0	10000	5	1	0	5	0
27	61	0	10000	5	1	0	5	0
27	61	0	10000	5	1	0	5	0
27	62	0	10000	5	1	0	5	0
25	64	0	10000	5	1	0	5	0
24	65	0	10000	5	1	0	5	0
24	66	0	10000	5	1	0	5	0
24	67	0	10000	5	1	0	5	0
23	68	0	10000	5	1	0	5	0
24	69	0	10000	5	1	0	5	0
21	70	0	10000	5	1	0	5	0
21	71	0	10000	5	1	0	5	0
21	71	0	10000	5	1	0	5	0
21	72	0	10000	5	1	0	5	0
20	74	0	10000	5	1	0	5	0
21	75	0	10000	5	1	0	5	0
20	76	0	10000	5	1	0	5	0
19	77	0	10000	5	1	0	5	0
18	78	0	10000	5	1	0	5	0
19	79	0	10000	5	1	0	5	0
20	80	0	10000	5	1	0	5	0
19	81	0	10000	5	1	0	5	0
18	81	0	10000	5	1	0	5	0
18	82	0	10000	5	1	0	5	0
18	84	0	10000	5	1	0	5	0
19	85	0	10000	5	1	0	5	0
20	86	0	10000	5	1	0	5	0
19	87	0	10000	5	1	0	5	0
20	88	0	10000	5	1	0	5	0
20	89	0	10000	5	1	0	5	0
20	90	0	10000	5	1	0	5	0
20	91	0	10000	5	1	0	5	0
20	91	0	10000	5	1	0	5	0
22	92	0	10000	5	1	0	5	0
23	94	0	10000	5	1	0	5	0
23	95	0	10000	5	1	0	5	0
23	96	0	10000	5	1	0	5	0
22	97	0	10000	5	1	0	5	0
21	98	0	10000	5	1	0	5	0
21	99	0	10000	5	1	0	5	0
22	100	0	10000	5	1	0	5	0
21	101	0	10000	5	1	0	5	0
20	101	0	10000	5	1	0	5	0
20	102	0	10000	5	1	0	5	0
21	104	0	10000	5	1	0	5	0
20	105	0	10000	5	1	0	5	0
19	106	0	10000	5	1	0	5	0
20	107	0	10000	5	1	0	5	0
20	108	0	10000	5	1	0	5	0
19	109	0	10000	5	1	0	5	0
17	110	0	10000	5	1	0	5	0
17	111	0	10000	5	1	0	5	0
17	111	0	10000	5	1	0	5	0
18	112	0	10000	5	1	0	5	0
18	114	0	10000	5	1	0	5	0
18	115	0	10000	5	1	0	5	0
18	116	0	10000	5	1	0	5	0
18	117	0	10000	5	1	0	5	0
17	118	0	10000	5	1	0	5	0
19	119	0	10000	5	1	0	5	0
20	120	0	10000	5	1	0	5	0
20	121	0	10000	5	1	0	5	0
21	121	0	10000	5	1	0	5	0
20	122	0	10000	5	1	0	5	0
20	124	0	10000	5	1	0	5	0
20	125	0	10000	5	1	0	5	0
20	126	0	10000	5	1	0	5	0
21	127	0	10000	5	1	0	5	0
21	128	0	10000	5	1	0	5	0
21	129	0	10000	5	1	0	5	0
20	130	0	10000	5	1	0	5	0
21	131	0	10000	5	1	0	5	0
21	131	0	10000	5	1	0	5	0
20	132	0	10000	5	1	0	5	0
21	134	0	10000	5	1	0	5	0
20	135	0	10000	5	1	0	5	0
20	136	0	10000	5	1	0	5	0
20	137	0	10000	5	1	0	5	0
20	138	0	10000	5	1	0	5	0
19	139	0	10000	5	1	0	5	0
21	140	0	10000	5	1	0	5	0
20	141	0	10000	5	1	0	5	0
19	141	0	10000	5	1	0	5	0
19	142	0	10000	5	1	0	5	0
19	144	0	10000	5	1	0	5	0
18	145	0	10000	5	1	0	5	0
18	146	0	10000	5	1	0	5	0
18	147	0	10000	5	1	0	5	0
18	148	0	10000	5	1	0	5	0
17	149	0	10000	5	1	0	5	0
16	150	0	10000	5	1	0	5	0
16	151	0	10000	5	1	0	5	0
16	151	0	10000	5	1	0	5	0
16	152	0	10000	5	1	0	5	0
17	154	0	10000	5	1	0	5	0
17	155	0	10000	5	1	0	5	0
18	156	0	10000	5	1	0	5	0
18	157	0	10000	5	1	0	5	0
17	158	0	10000	5	1	0	5	0
18	159	0	10000	5	1	0	5	0
19	160	0	10000	5	1	0	5	0
20	161	0	10000	5	1	0	5	0
21	161	0	10000	5	1	0	5	0
23	162	0	10000	5	1	0	5	0
23	164	0	10000	5	1	0	5	0
24	165	0	10000	5	1	0	5	0
23	166	0	10000	5	1	0	5	0
23	167	0	10000	5	1	0	5	0
23	168	0	10000	5	1	0	5	0
22	169	0	10000	5	1	0	5	0
20	170	0	10000	5	1	0	5	0
20	171	0	10000	5	1	0	5	0
21	171	0	10000	5	1	0	5	0
20	172	0	10000	5	1	0	5	0
20	174	0	10000	5	1	0	5	0
20	175	0	10000	5	1	0	5	0
20	176	0	10000	5	1	0	5	0
19	177	0	10000	5	1	0	5	0
18	178	0	10000	5	1	0	5	0
19	179	0	10000	5	1	0	5	0
19	180	0	10000	5	1	0	5	0
18	181	0	10000	5	1	0	5	0
18	181	0	10000	5	1	0	5	0
17	182	0	10000	5	1	0	5	0
20	184	0	10000	5	1	0	5	0
21	185	0	10000	5	1	0	5	0
23	186	0	10000	5	1	0	5	0
23	187	0	10000	5	1	0	5	0
23	188	0	10000	5	1	0	5	0
23	189	0	10000	5	1	0	5	0
22	190	0	10000	5	1	0	5	0
23	191	0	10000	5	1	0	5	0
23	191	0	10000	5	1	0	5	0
24	192	0	10000	5	1	0	5	0
24	194	0	10000	5	1	0	5	0
23	195	0	10000	5	1	0	5	0
22	196	0	10000	5	1	0	5	0
22	197	0	10000	5	1	0	5	0
21	198	0	10000	5	1	0	5	0
22	199	0	10000	5	1	0	5	0
23	200	0	10000	5	1	0	5	0
22	201	0	10000	5	1	0	5	0
23	201	0	10000	5	1	0	5	0
21	202	0	10000	5	1	0	5	0
21	204	0	10000	5	1	0	5	0
21	205	0	10000	5	1	0	5	0
20	206	0	10000	5	1	0	5	0
20	207	0	10000	5	1	0	5	0
20	208	0	10000	5	1	0	5	0
19	209	0	10000	5	1	0	5	0
17	210	0	10000	5	1	0	5	0
18	211	0	10000	5	1	0	5	0
18	211	0	10000	5	1	0	5	0
17	212	0	10000	5	1	0	5	0
18	214	0	10000	5	1	0	5	0
18	215	0	10000	5	1	0	5	0
17	216	0	10000	5	1	0	5	0
16	217	0	10000	5	1	0	5	0
16	218	0	10000	5	1	0	5	0
16	219	0	10000	5	1	0	5	0
17	220	0	10000	5	1	0	5	0
17	221	0	10000	5	1	0	5	0
17	221	0	10000	5	1	0	5	0
17	222	0	10000	5	1	0	5	0
17	224	0	10000	5	1	0	5	0
17	225	0	10000	5	1	0	5	0
17	226	0	10000	5	1	0	5	0
18	227	0	10000	5	1	0	5	0
18	228	0	10000	5	1	0	5	0
18	229	0	10000	5	1	0	5	0
17	230	0	10000	5	1	0	5	0
19	231	0	10000	5	1	0	5	0
20	231	0	10000	5	1	0	5	0
21	232	0	10000	5	1	0	5	0
20	234	0	10000	5	1	0	5	0
21	235	0	10000	5	1	0	5	0
21	236	0	10000	5	1	0	5	0
20	237	0	10000	5	1	0	5	0
20	238	0	10000	5	1	0	5	0
22	239	0	10000	5	1	0	5	0
23	240	0	10000	5	1	0	5	0
23	241	0	10000	5	1	0	5	0
23	241	0	10000	5	1	0	5	0
22	242	0	10000	5	1	0	5	0
21	244	0	10000	5	1	0	5	0
21	245	0	10000	5	1	0	5	0
21	246	0	10000	5	1	0	5	0
21	247	0	10000	5	1	0	5	0
21	248	0	10000	5	1	0	5	0
21	249	0	10000	5	1	0	5	0
20	250	0	10000	5	1	0	5	0
20	251	0	10000	5	1	0	5	0
21	251	0	10000	5	1	0	5	0
21	252	0	10000	5	1	0	5	0
20	254	0	10000	5	1	0	5	0
20	255	0	10000	5	1	0	5	0
20	256	0	10000	5	1	0	5	0
19	257	0	10000	5	1	0	5	0
19	258	0	10000	5	1	0	5	0
20	259	0	10000	5	1	0	5	0
21	260	0	10000	5	1	0	5	0
23	261	0	10000	5	1	0	5	0
23	261	0	10000	5	1	0	5	0
22	262	0	10000	5	1	0	5	0
23	264	0	10000	5	1	0	5	0
23	265	0	10000	5	1	0	5	0
23	266	0	10000	5	1	0	5	0
24	267	0	10000	5	1	0	5	0
26	268	0	10000	5	1	0	5	0
25	269	0	10000	5	1	0	5	0
25	270	0	10000	5	1	0	5	0
24	271	0	10000	5	1	0	5	0
23	271	0	10000	5	1	0	5	0
24	272	0	10000	5	1	0	5	0
23	274	0	10000	5	1	0	5	0
23	275	0	10000	5	1	0	5	0
23	276	0	10000	5	1	0	5	0
22	277	0	10000	5	1	0	5	0
20	278	0	10000	5	1	0	5	0
21	279	0	10000	5	1	0	5	0
21	280	0	10000	5	1	0	5	0
21	281	0	10000	5	1	0	5	0
21	281	0	10000	5	1	0	5	0
20	282	0	10000	5	1	0	5	0
20	284	0	10000	5	1	0	5	0
20	285	0	10000	5	1	0	5	0
19	286	0	10000	5	1	0	5	0
20	287	0	10000	5	1	0	5	0
20	288	0	10000	5	1	0	5	0
20	289	0	10000	5	1	0	5	0
18	290	0	10000	5	1	0	5	0
20	291	0	10000	5	1	0	5	0
19	291	0	10000	5	1	0	5	0
19	292	0	10000	5	1	0	5	0
20	294	0	10000	5	1	0	5	0
20	295	0	10000	5	1	0	5	0
20	296	0	10000	5	1	0	5	0
19	297	0	10000	5	1	0	5	0
18	298	0	10000	5	1	0	5	0
18	299	0	10000	5	1	0	5	0
20	300	0	10000	5	1	0	5	0
20	301	0	10000	5	1	0	5	0
20	301	0	10000	5	1	0	5	0
20	302	0	10000	5	1	0	5	0
21	304	0	10000	5	1	0	5	0
20	305	0	10000	5	1	0	5	0
20	306	0	10000	5	1	0	5	0
20	307	0	10000	5	1	0	5	0
19	308	0	10000	5	1	0	5	0
19	309	0	10000	5	1	0	5	0
19	310	0	10000	5	1	0	5	0
18	311	0	10000	5	1	0	5	0
18	311	0	10000	5	1	0	5	0
18	312	0	10000	5	1	0	5	0
18	314	0	10000	5	1	0	5	0
18	315	0	10000	5	1	0	5	0
18	316	0	10000	5	1	0	5	0
17	317	0	10000	5	1	0	5	0
17	318	0	10000	5	1	0	5	0
16	319	0	10000	5	1	0	5	0
18	320	0	10000	5	1	0	5	0
17	321	0	10000	5	1	0	5	0
17	321	0	10000	5	1	0	5	0
17	322	0	10000	5	1	0	5	0
16	324	0	10000	5	1	0	5	0
17	325	0	10000	5	1	0	5	0
18	326	0	10000	5	1	0	5	0
20	327	0	10000	5	1	0	5	0
20	328	0	10000	5	1	0	5	0
20	329	0	10000	5	1	0	5	0
20	330	0	10000	5	1	0	5	0
21	331	0	10000	5	1	0	5	0
22	331	0	10000	5	1	0	5	0
23	332	0	10000	5	1	0	5	0
24	334	0	10000	5	1	0	5	0
24	335	0	10000	5	1	0	5	0
24	336	0	10000	5	1	0	5	0
23	337	0	10000	5	1	0	5	0
24	338	0	10000	5	1	0	5	0
23	339	0	10000	5	1	0	5	0
24	340	0	10000	5	1	0	5	0
24	341	0	10000	5	1	0	5	0
24	341	0	10000	5	1	0	5	0
22	342	0	10000	5	1	0	5	0
23	344	0	10000	5	1	0	5	0
22	345	0	10000	5	1	0	5	0
21	346	0	10000	5	1	0	5	0
22	347	0	10000	5	1	0	5	0
21	348	0	10000	5	1	0	5	0
20	349	0	10000	5	1	0	5	0
19	350	0	10000	5	1	0	5	0
19	351	0	10000	5	1	0	5	0
18	351	0	10000	5	1	0	5	0
19	352	0	10000	5	1	0	5	0
19	354	0	10000	5	1	0	5	0
19	355	0	10000	5	1	0	5	0
19	356	0	10000	5	1	0	5	0
19	357	0	10000	5	1	0	5	0
19	358	0	10000	5	1	0	5	0
22	359	0	10000	5	1	0	5	0
24	360	0	10000	5	1	0	5	0
24	361	0	10000	5	1	0	5	0
23	361	0	10000	5	1	0	5	0
23	362	0	10000	5	1	0	5	0
23	364	0	10000	5	1	0	5	0
23	365	0	10000	5	1	0	5	0
22	366	0	10000	5	1	0	5	0
22	367	0	10000	5	1	0	5	0
22	368	0	10000	5	1	0	5	0
21	369	0	10000	5	1	0	5	0
19	370	0	10000	5	1	0	5	0
20	371	0	10000	5	1	0	5	0
20	371	0	10000	5	1	0	5	0
20	372	0	10000	5	1	0	5	0
20	374	0	10000	5	1	0	5	0
20	375	0	10000	5	1	0	5	0
19	376	0	10000	5	1	0	5	0
19	377	0	10000	5	1	0	5	0
19	378	0	10000	5	1	0	5	0
19	379	0	10000	5	1	0	5	0
20	380	0	10000	5	1	0	5	0
19	381	0	10000	5	1	0	5	0
19	381	0	10000	5	1	0	5	0
19	382	0	10000	5	1	0	5	0
18	384	0	10000	5	1	0	5	0
18	385	0	10000	5	1	0	5	0
18	386	0	10000	5	1	0	5	0
18	387	0	10000	5	1	0	5	0
18	388	0	10000	5	1	0	5	0
19	389	0	10000	5	1	0	5	0
20	390	0	10000	5	1	0	5	0
19	391	0	10000	5	1	0	5	0
20	391	0	10000	5	1	0	5	0
21	392	0	10000	5	1	0	5	0
22	394	0	10000	5	1	0	5	0
23	395	0	10000	5	1	0	5	0
23	396	0	10000	5	1	0	5	0
23	397	0	10000	5	1	0	5	0
22	398	0	10000	5	1	0	5	0
21	399	0	10000	5	1	0	5	0
23	400	0	10000	5	1	0	5	0
21	401	0	10000	5	1	0	5	0
21	401	0	10000	5	1	0	5	0
20	402	0	10000	5	1	0	5	0
20	404	0	10000	5	1	0	5	0
20	405	0	10000	5	1	0	5	0
20	406	0	10000	5	1	0	5	0
20	407	0	10000	5	1	0	5	0
19	408	0	10000	5	1	0	5	0
20	409	0	10000	5	1	0	5	0
18	410	0	10000	5	1	0	5	0
17	411	0	10000	5	1	0	5	0
19	411	0	10000	5	1	0	5	0
18	412	0	10000	5	1	0	5	0
18	414	0	10000	5	1	0	5	0
18	415	0	10000	5	1	0	5	0
18	416	0	10000	5	1	0	5	0
17	417	0	10000	5	1	0	5	0
16	418	0	10000	5	1	0	5	0
17	419	0	10000	5	1	0	5	0
18	420	0	10000	5	1	0	5	0
19	421	0	10000	5	1	0	5	0
20	421	0	10000	5	1	0	5	0
20	422	0	10000	5	1	0	5	0
19	424	0	10000	5	1	0	5	0
21	425	0	10000	5	1	0	5	0
22	426	0	10000	5	1	0	5	0
23	427	0	10000	5	1	0	5	0
23	428	0	10000	5	1	0	5	0
23	429	0	10000	5	1	0	5	0
21	430	0	10000	5	1	0	5	0
22	431	0	10000	5	1	0	5	0
22	431	0	10000	5	1	0	5	0
21	432	0	10000	5	1	0	5	0
22	434	0	10000	5	1	0	5	0
22	435	0	10000	5	1	0	5	0
22	436	0	10000	5	1	0	5	0
21	437	0	10000	5	1	0	5	0
21	438	0	10000	5	1	0	5	0
21	439	0	10000	5	1	0	5	0
23	440	0	10000	5	1	0	5	0
22	441	0	10000	5	1	0	5	0
22	441	0	10000	5	1	0	5	0
22	442	0	10000	5	1	0	5	0
21	444	0	10000	5	1	0	5	0
20	445	0	10000	5	1	0	5	0
21	446	0	10000	5	1	0	5	0
20	447	0	10000	5	1	0	5	0
20	448	0	10000	5	1	0	5	0
20	449	0	10000	5	1	0	5	0
18	450	0	10000	5	1	0	5	0
17	451	0	10000	5	1	0	5	0
18	451	0	10000	5	1	0	5	0
17	452	0	10000	5	1	0	5	0
18	454	0	10000	5	1	0	5	0
20	455	0	10000	5	1	0	5	0
22	456	0	10000	5	1	0	5	0
22	457	0	10000	5	1	0	5	0
22	458	0	10000	5	1	0	5	0
22	459	0	10000	5	1	0	5	0
24	460	0	10000	5	1	0	5	0
23	461	0	10000	5	1	0	5	0
23	461	0	10000	5	1	0	5	0
22	462	0	10000	5	1	0	5	0
22	464	0	10000	5	1	0	5	0
21	465	0	10000	5	1	0	5	0
21	466	0	10000	5	1	0	5	0
20	467	0	10000	5	1	0	5	0
21	468	0	10000	5	1	0	5	0
20	469	0	10000	5	1	0	5	0
19	470	0	10000	5	1	0	5	0
18	471	0	10000	5	1	0	5	0
19	471	0	10000	5	1	0	5	0
19	472	0	10000	5	1	0	5	0
19	474	0	10000	5	1	0	5	0
19	475	0	10000	5	1	0	5	0
20	476	0	10000	5	1	0	5	0
20	477	0	10000	5	1	0	5	0
18	478	0	10000	5	1	0	5	0
20	479	0	10000	5	1	0	5	0
21	480	0	10000	5	1	0	5	0
20	481	0	10000	5	1	0	5	0
20	481	0	10000	5	1	0	5	0
20	482	0	10000	5	1	0	5	0
19	484	0	10000	5	1	0	5	0
18	485	0	10000	5	1	0	5	0
19	486	0	10000	5	1	0	5	0
18	487	0	10000	5	1	0	5	0
18	488	0	10000	5	1	0	5	0
17	489	0	10000	5	1	0	5	0
16	490	0	10000	5	1	0	5	0
17	491	0	10000	5	1	0	5	0
16	491	0	10000	5	1	0	5	0
17	492	0	10000	5	1	0	5	0
16	494	0	10000	5	1	0	5	0
18	495	0	10000	5	1	0	5	0
18	496	0	10000	5	1	0	5	0
19	497	0	10000	5	1	0	5	0
17	498	0	10000	5	1	0	5	0
18	499	0	10000	5	1	0	5	0
19	500	0	10000	5	1	0	5	0
18	501	0	10000	5	1	0	5	0
19	502	0	10000	5	1	0	5	1
18	503	0	10000	5	1	0	5	1
17	504	0	10000	5	1	0	5	1
17	505	0	10000	5	1	0	5	1
17	506	0	10000	5	1	0	5	1
17	507	0	10000	5	1	0	5	1
20	508	0	10000	5	1	0	5	1
19	509	0	10000	5	1	0	5	1
19	510	0	10000	5	1	0	5	1
19	511	0	10000	5	1	0	5	1
18	511	0	10000	5	1	0	5	1
19	512	0	10000	5	1	0	5	1
19	514	0	10000	5	1	0	5	1
19	515	0	10000	5	1	0	5	1
19	516	0	10000	5	1	0	5	1
19	517	0	10000	5	1	0	5	1
17	518	0	10000	5	1	0	5	1
18	519	0	10000	5	1	0	5	1
19	520	0	10000	5	1	0	5	1
18	521	0	10000	5	1	0	5	1
17	521	0	10000	5	1	0	5	1
19	522	0	10000	5	1	0	5	1
19	524	0	10000	5	1	0	5	1
20	525	0	10000	5	1	0	5	1
20	526	0	10000	5	1	0	5	1
20	527	0	10000	5	1	0	5	1
21	528	0	10000	5	1	0	5	1
20	529	0	10000	5	1	0	5	1
20	530	0	10000	5	1	0	5	1
20	531	0	10000	5	1	0	5	1
20	531	0	10000	5	1	0	5	1
20	532	0	10000	5	1	0	5	1
20	534	0	10000	5	1	0	5	1
21	535	0	10000	5	1	0	5	1
21	536	0	10000	5	1	0	5	1
21	537	0	10000	5	1	0	5	1
20	538	0	10000	5	1	0	5	1
21	539	0	10000	5	1	0	5	1
21	540	0	10000	5	1	0	5	1
20	541	0	10000	5	1	0	5	1
20	541	0	10000	5	1	0	5	1
19	542	0	10000	5	1	0	5	1
19	544	0	10000	5	1	0	5	1
19	545	0	10000	5	1	0	5	1
18	546	0	10000	5	1	0	5	1
18	547	0	10000	5	1	0	5	1
20	548	0	10000	5	1	0	5	1
19	549	0	10000	5	1	0	5	1
17	550	0	10000	5	1	0	5	1
18	551	0	10000	5	1	0	5	1
17	551	0	10000	5	1	0	5	0
17	552	0	10000	5	1	0	5	0
18	554	0	10000	5	1	0	5	0
16	555	0	10000	5	1	0	5	0
16	556	0	10000	5	1	0	5	0
16	557	0	10000	5	1	0	5	0
15	558	0	10000	5	1	0	5	0
16	559	0	10000	5	1	0	5	0
17	560	0	10000	5	1	0	5	0
18	561	0	10000	5	1	0	5	0
19	561	0	10000	5	1	0	5	0
18	562	0	10000	5	1	0	5	0
19	564	0	10000	5	1	0	5	0
19	565	0	10000	5	1	0	5	0
19	566	0	10000	5	1	0	5	0
19	567	0	10000	5	1	0	5	0
19	568	0	10000	5	1	0	5	0
18	569	0	10000	5	1	0	5	0
17	570	0	10000	5	1	0	5	0
17	571	0	10000	5	1	0	5	0
16	571	0	10000	5	1	0	5	0
17	572	0	10000	5	1	0	5	0
17	574	0	10000	5	1	0	5	0
17	575	0	10000	5	1	0	5	0
17	576	0	10000	5	1	0	5	0
16	577	0	10000	5	1	0	5	0
16	578	0	10000	5	1	0	5	0
18	579	0	10000	5	1	0	5	0
19	580	0	10000	5	1	0	5	0
20	581	0	10000	5	1	0	5	0
20	581	0	10000	5	1	0	5	0
20	582	0	10000	5	1	0	5	0
22	584	0	10000	5	1	0	5	0
36	585	0	10000	5	1	0	5	0
58	586	0	10000	5	1	0	5	0
67	587	0	10000	5	1	0	5	0
70	588	0	10000	5	1	0	5	0
80	589	0	10000	5	1	0	5	0
98	590	0	10000	5	1	0	5	0
119	591	0	10000	5	1	0	5	0
126	591	0	10000	5	1	0	5	0
128	592	0	10000	5	1	0	5	0
125	594	0	10000	5	1	0	5	0
127	595	0	10000	5	1	0	5	0
129	596	0	10000	5	1	0	5	0
131	597	0	10000	5	1	0	5	0
140	598	0	10000	5	1	0	5	0
159	599	0	10000	5	1	0	5	0
158	600	0	10000	5	1	0	5	0
173	601	0	10000	5	1	0	5	0
180	601	0	10000	5	1	0	5	0
187	602	0	10000	5	1	0	5	0
183	604	0	10000	5	1	0	5	0
180	605	0	10000	5	1	0	5	0
177	606	0	10000	5	1	0	5	0
196	607	0	10000	5	1	0	5	0
235	608	0	10000	5	1	0	5	0
268	609	0	10000	5	1	0	5	0
280	610	0	10000	5	1	0	5	0
286	611	0	10000	5	1	0	5	0
341	611	0	10000	5	1	0	5	0
357	612	0	10000	5	1	0	5	0
376	614	0	10000	5	1	0	5	0
391	615	0	10000	5	1	0	5	0
532	616	0	10000	5	1	0	5	0
706	617	0	10000	5	1	0	5	0
776	618	0	10000	5	1	0	5	0
768	619	0	10000	5	1	0	5	0
839	620	0	10000	5	1	0	5	0
929	621	0	10000	5	1	0	5	0
988	621	0	10000	5	1	0	5	0
997	622	0	10000	5	1	0	5	0
967	624	0	10000	5	1	0	5	0
928	625	0	10000	5	1	0	5	0
902	626	0	10000	5	1	0	5	0
892	627	0	10000	5	1	0	5	0
888	628	0	10000	5	1	0	5	0
886	629	0	10000	5	1	0	5	0
883	630	0	10000	5	1	0	5	0
879	631	0	10000	5	1	0	5	0
872	631	0	10000	5	1	0	5	0
864	632	0	10000	5	1	0	5	0
855	634	0	10000	5	1	0	5	0
847	635	0	10000	5	1	0	5	0
836	636	0	10000	5	1	0	5	0
826	637	0	10000	5	1	0	5	0
815	638	0	10000	5	1	0	5	0
805	639	0	10000	5	1	0	5	0
796	640	0	10000	5	1	0	5	0
789	641	0	10000	5	1	0	5	0
779	641	0	10000	5	1	0	5	0
769	642	0	10000	5	1	0	5	0
755	644	0	10000	5	1	0	5	0
736	645	0	10000	5	1	0	5	0
713	646	0	10000	5	1	0	5	0
686	647	0	10000	5	1	0	5	0
655	648	0	10000	5	1	0	5	0
627	649	0	10000	5	1	0	5	0
605	650	0	10000	5	1	0	5	0
591	651	0	10000	5	1	0	5	0
581	651	0	10000	5	1	0	5	0
574	652	0	10000	5	1	0	5	0
573	654	0	10000	5	1	0	5	0
576	655	0	10000	5	1	0	5	0
584	656	0	10000	5	1	0	5	0
593	657	0	10000	5	1	0	5	0
605	658	0	10000	5	1	0	5	0
618	659	0	10000	5	1	0	5	0
630	660	0	10000	5	1	0	5	0
641	661	0	10000	5	1	0	5	0
655	661	0	10000	5	1	0	5	0
669	662	0	10000	5	1	0	5	0
683	664	0	10000	5	1	0	5	0
698	665	0	10000	5	1	0	5	0
713	666	0	10000	5	1	0	5	0
729	667	0	10000	5	1	0	5	0
744	668	0	10000	5	1	0	5	0
758	669	0	10000	5	1	0	5	0
771	670	0	10000	5	1	0	5	0
787	671	0	10000	5	1	0	5	0
802	671	0	10000	5	1	0	5	0
815	672	0	10000	5	1	0	5	0
826	674	0	10000	5	1	0	5	0
836	675	0	10000	5	1	0	5	0
842	676	0	10000	5	1	0	5	0
845	677	0	10000	5	1	0	5	0
845	678	0	10000	5	1	0	5	0
842	679	0	10000	5	1	0	5	0
835	680	0	10000	5	1	0	5	0
824	681	0	10000	5	1	0	5	0
809	681	0	10000	5	1	0	5	0
792	682	0	10000	5	1	0	5	0
774	684	0	10000	5	1	0	5	0
754	685	0	10000	5	1	0	5	0
734	686	0	10000	5	1	0	5	0
714	687	0	10000	5	1	0	5	0
693	688	0	10000	5	1	0	5	0
671	689	0	10000	5	1	0	5	0
651	690	0	10000	5	1	0	5	0
631	691	0	10000	5	1	0	5	0
611	691	0	10000	5	1	0	5	0
595	692	0	10000	5	1	0	5	0
574	694	0	10000	5	1	0	5	0
555	695	0	10000	5	1	0	5	0
535	696	0	10000	5	1	0	5	0
511	697	0	10000	5	1	0	5	0
488	698	0	10000	5	1	0	5	0
469	699	0	10000	5	1	0	5	0
455	700	0	10000	5	1	0	5	0
441	701	0	10000	5	1	0	5	0
431	701	0	10000	5	1	0	5	0
421	702	0	10000	5	1	0	5	0
414	704	0	10000	5	1	0	5	0
408	705	0	10000	5	1	0	5	0
403	706	0	10000	5	1	0	5	0
397	707	0	10000	5	1	0	5	0
393	708	0	10000	5	1	0	5	0
384	709	0	10000	5	1	0	5	0
375	710	0	10000	5	1	0	5	0
365	711	0	10000	5	1	0	5	0
357	711	0	10000	5	1	0	5	0
349	712	0	10000	5	1	0	5	0
342	714	0	10000	5	1	0	5	0
335	715	0	10000	5	1	0	5	0
332	716	0	10000	5	1	0	5	0
328	717	0	10000	5	1	0	5	0
325	718	0	10000	5	1	0	5	0
323	719	0	10000	5	1	0	5	0
324	720	0	10000	5	1	0	5	0
325	721	0	10000	5	1	0	5	0
329	721	0	10000	5	1	0	5	0
334	722	0	10000	5	1	0	5	0
340	724	0	10000	5	1	0	5	0
344	725	0	10000	5	1	0	5	0
349	726	0	10000	5	1	0	5	0
351	727	0	10000	5	1	0	5	0
351	728	0	10000	5	1	0	5	0
347	729	0	10000	5	1	0	5	0
345	730	0	10000	5	1	0	5	0
339	731	0	10000	5	1	0	5	0
335	731	0	10000	5	1	0	5	0
330	732	0	10000	5	1	0	5	0
325	734	0	10000	5	1	0	5	0
319	735	0	10000	5	1	0	5	0
313	736	0	10000	5	1	0	5	0
307	737	0	10000	5	1	0	5	0
304	738	0	10000	5	1	0	5	0
302	739	0	10000	5	1	0	5	0
301	740	0	10000	5	1	0	5	0
298	741	0	10000	5	1	0	5	0
298	741	0	10000	5	1	0	5	0
297	742	0	10000	5	1	0	5	0
299	744	0	10000	5	1	0	5	0
297	745	0	10000	5	1	0	5	0
297	746	0	10000	5	1	0	5	0
292	747	0	10000	5	1	0	5	0
290	748	0	10000	5	1	0	5	0
283	749	0	10000	5	1	0	5	0
278	750	0	10000	5	1	0	5	0
269	751	0	10000	5	1	0	5	0
263	751	0	10000	5	1	0	5	0
254	752	0	10000	5	1	0	5	0
243	754	0	10000	5	1	0	5	0
234	755	0	10000	5	1	0	5	0
226	756	0	10000	5	1	0	5	0
219	757	0	10000	5	1	0	5	0
215	758	0	10000	5	1	0	5	0
212	759	0	10000	5	1	0	5	0
212	760	0	10000	5	1	0	5	0
212	761	0	10000	5	1	0	5	0
211	761	0	10000	5	1	0	5	0
210	762	0	10000	5	1	0	5	0
210	764	0	10000	5	1	0	5	0
207	765	0	10000	5	1	0	5	0
203	766	0	10000	5	1	0	5	0
199	767	0	10000	5	1	0	5	0
195	768	0	10000	5	1	0	5	0
187	769	0	10000	5	1	0	5	0
180	770	0	10000	5	1	0	5	0
173	771	0	10000	5	1	0	5	0
166	771	0	10000	5	1	0	5	0
