value	EMG	Stimulus	EMG_sensitivity	Total_Trial_Nr	practise	acq	probe_nr	Startle_Probe
12	2	0	10000	1	1	0	1	0
13	3	0	10000	1	1	0	1	0
13	4	0	10000	1	1	0	1	0
14	5	0	10000	1	1	0	1	0
15	6	0	10000	1	1	0	1	0
13	7	0	10000	1	1	0	1	0
13	8	0	10000	1	1	0	1	0
14	9	0	10000	1	1	0	1	0
15	10	0	10000	1	1	0	1	0
16	11	0	10000	1	1	0	1	0
16	12	0	10000	1	1	0	1	0
15	13	0	10000	1	1	0	1	0
15	14	0	10000	1	1	0	1	0
15	15	0	10000	1	1	0	1	0
14	16	0	10000	1	1	0	1	0
16	17	0	10000	1	1	0	1	0
16	18	0	10000	1	1	0	1	0
15	19	0	10000	1	1	0	1	0
15	20	0	10000	1	1	0	1	0
15	21	0	10000	1	1	0	1	0
15	22	0	10000	1	1	0	1	0
14	23	0	10000	1	1	0	1	0
14	24	0	10000	1	1	0	1	0
14	25	0	10000	1	1	0	1	0
14	26	0	10000	1	1	0	1	0
12	27	0	10000	1	1	0	1	0
11	28	0	10000	1	1	0	1	0
11	29	0	10000	1	1	0	1	0
10	30	0	10000	1	1	0	1	0
11	31	0	10000	1	1	0	1	0
11	32	0	10000	1	1	0	1	0
11	33	0	10000	1	1	0	1	0
11	34	0	10000	1	1	0	1	0
10	35	0	10000	1	1	0	1	0
9	36	0	10000	1	1	0	1	0
11	37	0	10000	1	1	0	1	0
12	38	0	10000	1	1	0	1	0
12	39	0	10000	1	1	0	1	0
12	40	0	10000	1	1	0	1	0
12	41	0	10000	1	1	0	1	0
12	42	0	10000	1	1	0	1	0
11	43	0	10000	1	1	0	1	0
11	44	0	10000	1	1	0	1	0
11	45	0	10000	1	1	0	1	0
13	46	0	10000	1	1	0	1	0
12	47	0	10000	1	1	0	1	0
12	48	0	10000	1	1	0	1	0
13	49	0	10000	1	1	0	1	0
13	50	0	10000	1	1	0	1	0
14	51	0	10000	1	1	0	1	0
17	52	0	10000	1	1	0	1	0
18	53	0	10000	1	1	0	1	0
18	54	0	10000	1	1	0	1	0
19	55	0	10000	1	1	0	1	0
17	56	0	10000	1	1	0	1	0
19	57	0	10000	1	1	0	1	0
19	58	0	10000	1	1	0	1	0
17	59	0	10000	1	1	0	1	0
16	60	0	10000	1	1	0	1	0
15	61	0	10000	1	1	0	1	0
15	62	0	10000	1	1	0	1	0
14	63	0	10000	1	1	0	1	0
15	64	0	10000	1	1	0	1	0
15	65	0	10000	1	1	0	1	0
15	66	0	10000	1	1	0	1	0
14	67	0	10000	1	1	0	1	0
13	68	0	10000	1	1	0	1	0
13	69	0	10000	1	1	0	1	0
13	70	0	10000	1	1	0	1	0
12	71	0	10000	1	1	0	1	0
12	72	0	10000	1	1	0	1	0
12	73	0	10000	1	1	0	1	0
11	74	0	10000	1	1	0	1	0
10	75	0	10000	1	1	0	1	0
10	76	0	10000	1	1	0	1	0
12	77	0	10000	1	1	0	1	0
13	78	0	10000	1	1	0	1	0
12	79	0	10000	1	1	0	1	0
12	80	0	10000	1	1	0	1	0
12	81	0	10000	1	1	0	1	0
11	82	0	10000	1	1	0	1	0
10	83	0	10000	1	1	0	1	0
10	84	0	10000	1	1	0	1	0
10	85	0	10000	1	1	0	1	0
11	86	0	10000	1	1	0	1	0
9	87	0	10000	1	1	0	1	0
9	88	0	10000	1	1	0	1	0
9	89	0	10000	1	1	0	1	0
10	90	0	10000	1	1	0	1	0
10	91	0	10000	1	1	0	1	0
10	92	0	10000	1	1	0	1	0
11	93	0	10000	1	1	0	1	0
11	94	0	10000	1	1	0	1	0
10	95	0	10000	1	1	0	1	0
10	96	0	10000	1	1	0	1	0
12	97	0	10000	1	1	0	1	0
12	98	0	10000	1	1	0	1	0
12	99	0	10000	1	1	0	1	0
12	100	0	10000	1	1	0	1	0
12	101	0	10000	1	1	0	1	0
11	102	0	10000	1	1	0	1	0
11	103	0	10000	1	1	0	1	0
11	104	0	10000	1	1	0	1	0
11	105	0	10000	1	1	0	1	0
14	106	0	10000	1	1	0	1	0
14	107	0	10000	1	1	0	1	0
12	108	0	10000	1	1	0	1	0
12	109	0	10000	1	1	0	1	0
12	110	0	10000	1	1	0	1	0
11	111	0	10000	1	1	0	1	0
11	112	0	10000	1	1	0	1	0
11	113	0	10000	1	1	0	1	0
11	114	0	10000	1	1	0	1	0
10	115	0	10000	1	1	0	1	0
9	116	0	10000	1	1	0	1	0
11	117	0	10000	1	1	0	1	0
11	118	0	10000	1	1	0	1	0
11	119	0	10000	1	1	0	1	0
11	120	0	10000	1	1	0	1	0
11	121	0	10000	1	1	0	1	0
11	122	0	10000	1	1	0	1	0
11	123	0	10000	1	1	0	1	0
11	124	0	10000	1	1	0	1	0
12	125	0	10000	1	1	0	1	0
12	126	0	10000	1	1	0	1	0
12	127	0	10000	1	1	0	1	0
12	128	0	10000	1	1	0	1	0
12	129	0	10000	1	1	0	1	0
14	130	0	10000	1	1	0	1	0
13	131	0	10000	1	1	0	1	0
13	132	0	10000	1	1	0	1	0
14	133	0	10000	1	1	0	1	0
13	134	0	10000	1	1	0	1	0
14	135	0	10000	1	1	0	1	0
13	136	0	10000	1	1	0	1	0
15	137	0	10000	1	1	0	1	0
15	138	0	10000	1	1	0	1	0
14	139	0	10000	1	1	0	1	0
14	140	0	10000	1	1	0	1	0
14	141	0	10000	1	1	0	1	0
15	142	0	10000	1	1	0	1	0
15	143	0	10000	1	1	0	1	0
16	144	0	10000	1	1	0	1	0
16	145	0	10000	1	1	0	1	0
16	146	0	10000	1	1	0	1	0
14	147	0	10000	1	1	0	1	0
12	148	0	10000	1	1	0	1	0
12	149	0	10000	1	1	0	1	0
12	150	0	10000	1	1	0	1	0
12	151	0	10000	1	1	0	1	0
12	152	0	10000	1	1	0	1	0
12	153	0	10000	1	1	0	1	0
11	154	0	10000	1	1	0	1	0
11	155	0	10000	1	1	0	1	0
11	156	0	10000	1	1	0	1	0
12	157	0	10000	1	1	0	1	0
13	158	0	10000	1	1	0	1	0
13	159	0	10000	1	1	0	1	0
12	160	0	10000	1	1	0	1	0
11	161	0	10000	1	1	0	1	0
11	162	0	10000	1	1	0	1	0
11	163	0	10000	1	1	0	1	0
11	164	0	10000	1	1	0	1	0
11	165	0	10000	1	1	0	1	0
11	166	0	10000	1	1	0	1	0
10	167	0	10000	1	1	0	1	0
10	168	0	10000	1	1	0	1	0
10	169	0	10000	1	1	0	1	0
11	170	0	10000	1	1	0	1	0
13	171	0	10000	1	1	0	1	0
13	172	0	10000	1	1	0	1	0
15	173	0	10000	1	1	0	1	0
14	174	0	10000	1	1	0	1	0
14	175	0	10000	1	1	0	1	0
16	176	0	10000	1	1	0	1	0
21	177	0	10000	1	1	0	1	0
27	178	0	10000	1	1	0	1	0
31	179	0	10000	1	1	0	1	0
36	180	0	10000	1	1	0	1	0
40	181	0	10000	1	1	0	1	0
42	182	0	10000	1	1	0	1	0
40	183	0	10000	1	1	0	1	0
42	184	0	10000	1	1	0	1	0
48	185	0	10000	1	1	0	1	0
53	186	0	10000	1	1	0	1	0
56	187	0	10000	1	1	0	1	0
58	188	0	10000	1	1	0	1	0
59	189	0	10000	1	1	0	1	0
57	190	0	10000	1	1	0	1	0
55	191	0	10000	1	1	0	1	0
55	192	0	10000	1	1	0	1	0
53	193	0	10000	1	1	0	1	0
52	194	0	10000	1	1	0	1	0
51	195	0	10000	1	1	0	1	0
48	196	0	10000	1	1	0	1	0
48	197	0	10000	1	1	0	1	0
47	198	0	10000	1	1	0	1	0
44	199	0	10000	1	1	0	1	0
42	200	0	10000	1	1	0	1	0
41	201	0	10000	1	1	0	1	0
41	202	0	10000	1	1	0	1	0
39	203	0	10000	1	1	0	1	0
38	204	0	10000	1	1	0	1	0
38	205	0	10000	1	1	0	1	0
38	206	0	10000	1	1	0	1	0
36	207	0	10000	1	1	0	1	0
35	208	0	10000	1	1	0	1	0
33	209	0	10000	1	1	0	1	0
33	210	0	10000	1	1	0	1	0
34	211	0	10000	1	1	0	1	0
33	212	0	10000	1	1	0	1	0
33	213	0	10000	1	1	0	1	0
32	214	0	10000	1	1	0	1	0
31	215	0	10000	1	1	0	1	0
30	216	0	10000	1	1	0	1	0
31	217	0	10000	1	1	0	1	0
32	218	0	10000	1	1	0	1	0
31	219	0	10000	1	1	0	1	0
32	220	0	10000	1	1	0	1	0
30	221	0	10000	1	1	0	1	0
29	222	0	10000	1	1	0	1	0
28	223	0	10000	1	1	0	1	0
27	224	0	10000	1	1	0	1	0
26	225	0	10000	1	1	0	1	0
27	226	0	10000	1	1	0	1	0
24	227	0	10000	1	1	0	1	0
23	228	0	10000	1	1	0	1	0
24	229	0	10000	1	1	0	1	0
25	230	0	10000	1	1	0	1	0
26	231	0	10000	1	1	0	1	0
26	232	0	10000	1	1	0	1	0
25	233	0	10000	1	1	0	1	0
25	234	0	10000	1	1	0	1	0
23	235	0	10000	1	1	0	1	0
21	236	0	10000	1	1	0	1	0
23	237	0	10000	1	1	0	1	0
23	238	0	10000	1	1	0	1	0
24	239	0	10000	1	1	0	1	0
25	240	0	10000	1	1	0	1	0
24	241	0	10000	1	1	0	1	0
23	242	0	10000	1	1	0	1	0
22	243	0	10000	1	1	0	1	0
21	244	0	10000	1	1	0	1	0
21	245	0	10000	1	1	0	1	0
21	246	0	10000	1	1	0	1	0
19	247	0	10000	1	1	0	1	0
19	248	0	10000	1	1	0	1	0
20	249	0	10000	1	1	0	1	0
20	250	0	10000	1	1	0	1	0
20	251	0	10000	1	1	0	1	0
20	252	0	10000	1	1	0	1	0
20	253	0	10000	1	1	0	1	0
19	254	0	10000	1	1	0	1	0
18	255	0	10000	1	1	0	1	0
16	256	0	10000	1	1	0	1	0
18	257	0	10000	1	1	0	1	0
18	258	0	10000	1	1	0	1	0
17	259	0	10000	1	1	0	1	0
17	260	0	10000	1	1	0	1	0
17	261	0	10000	1	1	0	1	0
16	262	0	10000	1	1	0	1	0
17	263	0	10000	1	1	0	1	0
16	264	0	10000	1	1	0	1	0
16	265	0	10000	1	1	0	1	0
16	266	0	10000	1	1	0	1	0
15	267	0	10000	1	1	0	1	0
15	268	0	10000	1	1	0	1	0
15	269	0	10000	1	1	0	1	0
14	270	0	10000	1	1	0	1	0
14	271	0	10000	1	1	0	1	0
14	272	0	10000	1	1	0	1	0
13	273	0	10000	1	1	0	1	0
13	274	0	10000	1	1	0	1	0
12	275	0	10000	1	1	0	1	0
11	276	0	10000	1	1	0	1	0
12	277	0	10000	1	1	0	1	0
13	278	0	10000	1	1	0	1	0
11	279	0	10000	1	1	0	1	0
12	280	0	10000	1	1	0	1	0
12	281	0	10000	1	1	0	1	0
11	282	0	10000	1	1	0	1	0
11	283	0	10000	1	1	0	1	0
10	284	0	10000	1	1	0	1	0
10	285	0	10000	1	1	0	1	0
12	286	0	10000	1	1	0	1	0
10	287	0	10000	1	1	0	1	0
9	288	0	10000	1	1	0	1	0
10	289	0	10000	1	1	0	1	0
10	290	0	10000	1	1	0	1	0
11	291	0	10000	1	1	0	1	0
11	292	0	10000	1	1	0	1	0
11	293	0	10000	1	1	0	1	0
11	294	0	10000	1	1	0	1	0
11	295	0	10000	1	1	0	1	0
12	296	0	10000	1	1	0	1	0
13	297	0	10000	1	1	0	1	0
14	298	0	10000	1	1	0	1	0
13	299	0	10000	1	1	0	1	0
13	300	0	10000	1	1	0	1	0
12	301	0	10000	1	1	0	1	0
13	302	0	10000	1	1	0	1	0
14	303	0	10000	1	1	0	1	0
16	304	0	10000	1	1	0	1	0
16	305	0	10000	1	1	0	1	0
16	306	0	10000	1	1	0	1	0
14	307	0	10000	1	1	0	1	0
13	308	0	10000	1	1	0	1	0
14	309	0	10000	1	1	0	1	0
13	310	0	10000	1	1	0	1	0
13	311	0	10000	1	1	0	1	0
13	312	0	10000	1	1	0	1	0
12	313	0	10000	1	1	0	1	0
12	314	0	10000	1	1	0	1	0
11	315	0	10000	1	1	0	1	0
11	316	0	10000	1	1	0	1	0
15	317	0	10000	1	1	0	1	0
17	318	0	10000	1	1	0	1	0
20	319	0	10000	1	1	0	1	0
25	320	0	10000	1	1	0	1	0
29	321	0	10000	1	1	0	1	0
30	322	0	10000	1	1	0	1	0
29	323	0	10000	1	1	0	1	0
32	324	0	10000	1	1	0	1	0
37	325	0	10000	1	1	0	1	0
40	326	0	10000	1	1	0	1	0
39	327	0	10000	1	1	0	1	0
37	328	0	10000	1	1	0	1	0
38	329	0	10000	1	1	0	1	0
40	330	0	10000	1	1	0	1	0
43	331	0	10000	1	1	0	1	0
47	332	0	10000	1	1	0	1	0
46	333	0	10000	1	1	0	1	0
46	334	0	10000	1	1	0	1	0
46	335	0	10000	1	1	0	1	0
47	336	0	10000	1	1	0	1	0
48	337	0	10000	1	1	0	1	0
51	338	0	10000	1	1	0	1	0
51	339	0	10000	1	1	0	1	0
49	340	0	10000	1	1	0	1	0
48	341	0	10000	1	1	0	1	0
47	342	0	10000	1	1	0	1	0
50	343	0	10000	1	1	0	1	0
51	344	0	10000	1	1	0	1	0
53	345	0	10000	1	1	0	1	0
58	346	0	10000	1	1	0	1	0
56	347	0	10000	1	1	0	1	0
54	348	0	10000	1	1	0	1	0
58	349	0	10000	1	1	0	1	0
70	350	0	10000	1	1	0	1	0
83	351	0	10000	1	1	0	1	0
88	352	0	10000	1	1	0	1	0
87	353	0	10000	1	1	0	1	0
92	354	0	10000	1	1	0	1	0
105	355	0	10000	1	1	0	1	0
129	356	0	10000	1	1	0	1	0
138	357	0	10000	1	1	0	1	0
135	358	0	10000	1	1	0	1	0
131	359	0	10000	1	1	0	1	0
128	360	0	10000	1	1	0	1	0
130	361	0	10000	1	1	0	1	0
134	362	0	10000	1	1	0	1	0
139	363	0	10000	1	1	0	1	0
144	364	0	10000	1	1	0	1	0
141	365	0	10000	1	1	0	1	0
136	366	0	10000	1	1	0	1	0
131	367	0	10000	1	1	0	1	0
129	368	0	10000	1	1	0	1	0
132	369	0	10000	1	1	0	1	0
136	370	0	10000	1	1	0	1	0
143	371	0	10000	1	1	0	1	0
146	372	0	10000	1	1	0	1	0
141	373	0	10000	1	1	0	1	0
137	374	0	10000	1	1	0	1	0
131	375	0	10000	1	1	0	1	0
126	376	0	10000	1	1	0	1	0
127	377	0	10000	1	1	0	1	0
124	378	0	10000	1	1	0	1	0
119	379	0	10000	1	1	0	1	0
115	380	0	10000	1	1	0	1	0
114	381	0	10000	1	1	0	1	0
116	382	0	10000	1	1	0	1	0
116	383	0	10000	1	1	0	1	0
116	384	0	10000	1	1	0	1	0
114	385	0	10000	1	1	0	1	0
113	386	0	10000	1	1	0	1	0
108	387	0	10000	1	1	0	1	0
103	388	0	10000	1	1	0	1	0
100	389	0	10000	1	1	0	1	0
102	390	0	10000	1	1	0	1	0
107	391	0	10000	1	1	0	1	0
110	392	0	10000	1	1	0	1	0
107	393	0	10000	1	1	0	1	0
102	394	0	10000	1	1	0	1	0
102	395	0	10000	1	1	0	1	0
108	396	0	10000	1	1	0	1	0
113	397	0	10000	1	1	0	1	0
114	398	0	10000	1	1	0	1	0
111	399	0	10000	1	1	0	1	0
108	400	0	10000	1	1	0	1	0
103	401	0	10000	1	1	0	1	0
104	402	0	10000	1	1	0	1	0
105	403	0	10000	1	1	0	1	0
103	404	0	10000	1	1	0	1	0
100	405	0	10000	1	1	0	1	0
97	406	0	10000	1	1	0	1	0
91	407	0	10000	1	1	0	1	0
86	408	0	10000	1	1	0	1	0
84	409	0	10000	1	1	0	1	0
82	410	0	10000	1	1	0	1	0
85	411	0	10000	1	1	0	1	0
92	412	0	10000	1	1	0	1	0
96	413	0	10000	1	1	0	1	0
95	414	0	10000	1	1	0	1	0
91	415	0	10000	1	1	0	1	0
88	416	0	10000	1	1	0	1	0
86	417	0	10000	1	1	0	1	0
86	418	0	10000	1	1	0	1	0
83	419	0	10000	1	1	0	1	0
79	420	0	10000	1	1	0	1	0
77	421	0	10000	1	1	0	1	0
75	422	0	10000	1	1	0	1	0
75	423	0	10000	1	1	0	1	0
76	424	0	10000	1	1	0	1	0
77	425	0	10000	1	1	0	1	0
76	426	0	10000	1	1	0	1	0
71	427	0	10000	1	1	0	1	0
68	428	0	10000	1	1	0	1	0
66	429	0	10000	1	1	0	1	0
65	430	0	10000	1	1	0	1	0
65	431	0	10000	1	1	0	1	0
65	432	0	10000	1	1	0	1	0
67	433	0	10000	1	1	0	1	0
67	434	0	10000	1	1	0	1	0
65	435	0	10000	1	1	0	1	0
62	436	0	10000	1	1	0	1	0
61	437	0	10000	1	1	0	1	0
59	438	0	10000	1	1	0	1	0
56	439	0	10000	1	1	0	1	0
54	440	0	10000	1	1	0	1	0
53	441	0	10000	1	1	0	1	0
52	442	0	10000	1	1	0	1	0
51	443	0	10000	1	1	0	1	0
51	444	0	10000	1	1	0	1	0
53	445	0	10000	1	1	0	1	0
50	446	0	10000	1	1	0	1	0
48	447	0	10000	1	1	0	1	0
48	448	0	10000	1	1	0	1	0
49	449	0	10000	1	1	0	1	0
50	450	0	10000	1	1	0	1	0
52	451	0	10000	1	1	0	1	0
54	452	0	10000	1	1	0	1	0
57	453	0	10000	1	1	0	1	0
58	454	0	10000	1	1	0	1	0
59	455	0	10000	1	1	0	1	0
58	456	0	10000	1	1	0	1	0
59	457	0	10000	1	1	0	1	0
59	458	0	10000	1	1	0	1	0
59	459	0	10000	1	1	0	1	0
58	460	0	10000	1	1	0	1	0
57	461	0	10000	1	1	0	1	0
58	462	0	10000	1	1	0	1	0
60	463	0	10000	1	1	0	1	0
62	464	0	10000	1	1	0	1	0
63	465	0	10000	1	1	0	1	0
63	466	0	10000	1	1	0	1	0
60	467	0	10000	1	1	0	1	0
59	468	0	10000	1	1	0	1	0
58	469	0	10000	1	1	0	1	0
58	470	0	10000	1	1	0	1	0
59	471	0	10000	1	1	0	1	0
58	472	0	10000	1	1	0	1	0
58	473	0	10000	1	1	0	1	0
57	474	0	10000	1	1	0	1	0
56	475	0	10000	1	1	0	1	0
55	476	0	10000	1	1	0	1	0
56	477	0	10000	1	1	0	1	0
56	478	0	10000	1	1	0	1	0
54	479	0	10000	1	1	0	1	0
51	480	0	10000	1	1	0	1	0
49	481	0	10000	1	1	0	1	0
47	482	0	10000	1	1	0	1	0
45	483	0	10000	1	1	0	1	0
43	484	0	10000	1	1	0	1	0
42	485	0	10000	1	1	0	1	0
41	486	0	10000	1	1	0	1	0
38	487	0	10000	1	1	0	1	0
36	488	0	10000	1	1	0	1	0
35	489	0	10000	1	1	0	1	0
34	490	0	10000	1	1	0	1	0
34	491	0	10000	1	1	0	1	0
34	492	0	10000	1	1	0	1	0
33	493	0	10000	1	1	0	1	0
33	494	0	10000	1	1	0	1	0
31	495	0	10000	1	1	0	1	0
30	496	0	10000	1	1	0	1	0
31	497	0	10000	1	1	0	1	0
30	498	0	10000	1	1	0	1	0
28	499	0	10000	1	1	0	1	0
29	500	0	10000	1	1	0	1	0
28	501	0	10000	1	1	0	1	0
28	537	0	10000	1	1	0	1	1
28	538	0	10000	1	1	0	1	1
28	539	0	10000	1	1	0	1	1
28	540	0	10000	1	1	0	1	1
30	541	0	10000	1	1	0	1	1
30	542	0	10000	1	1	0	1	1
31	543	0	10000	1	1	0	1	1
32	544	0	10000	1	1	0	1	1
32	545	0	10000	1	1	0	1	1
32	546	0	10000	1	1	0	1	1
32	547	0	10000	1	1	0	1	1
32	548	0	10000	1	1	0	1	1
31	549	0	10000	1	1	0	1	1
30	550	0	10000	1	1	0	1	1
29	551	0	10000	1	1	0	1	1
31	552	0	10000	1	1	0	1	1
32	553	0	10000	1	1	0	1	1
31	554	0	10000	1	1	0	1	1
30	555	0	10000	1	1	0	1	1
29	556	0	10000	1	1	0	1	1
29	557	0	10000	1	1	0	1	1
30	558	0	10000	1	1	0	1	1
29	559	0	10000	1	1	0	1	1
30	560	0	10000	1	1	0	1	1
32	561	0	10000	1	1	0	1	1
30	562	0	10000	1	1	0	1	1
31	563	0	10000	1	1	0	1	1
32	564	0	10000	1	1	0	1	1
34	565	0	10000	1	1	0	1	1
34	566	0	10000	1	1	0	1	1
34	567	0	10000	1	1	0	1	1
34	568	0	10000	1	1	0	1	1
34	569	0	10000	1	1	0	1	1
33	570	0	10000	1	1	0	1	1
31	571	0	10000	1	1	0	1	1
32	572	0	10000	1	1	0	1	1
34	540	0	10000	1	1	0	1	1
35	541	0	10000	1	1	0	1	1
36	542	0	10000	1	1	0	1	1
36	543	0	10000	1	1	0	1	1
36	542	0	10000	1	1	0	1	1
34	543	0	10000	1	1	0	1	1
34	544	0	10000	1	1	0	1	1
33	545	0	10000	1	1	0	1	1
33	546	0	10000	1	1	0	1	1
31	547	0	10000	1	1	0	1	1
29	548	0	10000	1	1	0	1	1
31	549	0	10000	1	1	0	1	1
31	550	0	10000	1	1	0	1	1
31	551	0	10000	1	1	0	1	1
32	552	0	10000	1	1	0	1	0
30	553	0	10000	1	1	0	1	0
29	554	0	10000	1	1	0	1	0
27	555	0	10000	1	1	0	1	0
26	556	0	10000	1	1	0	1	0
26	557	0	10000	1	1	0	1	0
27	558	0	10000	1	1	0	1	0
26	559	0	10000	1	1	0	1	0
24	560	0	10000	1	1	0	1	0
24	561	0	10000	1	1	0	1	0
24	562	0	10000	1	1	0	1	0
23	563	0	10000	1	1	0	1	0
24	564	0	10000	1	1	0	1	0
23	565	0	10000	1	1	0	1	0
23	566	0	10000	1	1	0	1	0
20	567	0	10000	1	1	0	1	0
20	568	0	10000	1	1	0	1	0
20	569	0	10000	1	1	0	1	0
20	570	0	10000	1	1	0	1	0
20	571	0	10000	1	1	0	1	0
20	572	0	10000	1	1	0	1	0
20	573	0	10000	1	1	0	1	0
19	574	0	10000	1	1	0	1	0
19	575	0	10000	1	1	0	1	0
17	576	0	10000	1	1	0	1	0
19	577	0	10000	1	1	0	1	0
20	578	0	10000	1	1	0	1	0
18	579	0	10000	1	1	0	1	0
17	580	0	10000	1	1	0	1	0
16	581	0	10000	1	1	0	1	0
16	582	0	10000	1	1	0	1	0
17	583	0	10000	1	1	0	1	0
16	584	0	10000	1	1	0	1	0
17	585	0	10000	1	1	0	1	0
19	586	0	10000	1	1	0	1	0
18	587	0	10000	1	1	0	1	0
17	588	0	10000	1	1	0	1	0
17	589	0	10000	1	1	0	1	0
17	590	0	10000	1	1	0	1	0
17	591	0	10000	1	1	0	1	0
16	592	0	10000	1	1	0	1	0
16	593	0	10000	1	1	0	1	0
15	594	0	10000	1	1	0	1	0
15	595	0	10000	1	1	0	1	0
14	596	0	10000	1	1	0	1	0
16	597	0	10000	1	1	0	1	0
17	598	0	10000	1	1	0	1	0
16	599	0	10000	1	1	0	1	0
17	600	0	10000	1	1	0	1	0
19	601	0	10000	1	1	0	1	0
20	602	0	10000	1	1	0	1	0
21	603	0	10000	1	1	0	1	0
22	604	0	10000	1	1	0	1	0
21	605	0	10000	1	1	0	1	0
22	606	0	10000	1	1	0	1	0
22	607	0	10000	1	1	0	1	0
22	608	0	10000	1	1	0	1	0
21	609	0	10000	1	1	0	1	0
21	610	0	10000	1	1	0	1	0
21	611	0	10000	1	1	0	1	0
22	612	0	10000	1	1	0	1	0
22	613	0	10000	1	1	0	1	0
21	614	0	10000	1	1	0	1	0
20	615	0	10000	1	1	0	1	0
22	616	0	10000	1	1	0	1	0
29	617	0	10000	1	1	0	1	0
32	618	0	10000	1	1	0	1	0
31	619	0	10000	1	1	0	1	0
35	620	0	10000	1	1	0	1	0
41	621	0	10000	1	1	0	1	0
45	622	0	10000	1	1	0	1	0
65	623	0	10000	1	1	0	1	0
72	624	0	10000	1	1	0	1	0
114	625	0	10000	1	1	0	1	0
169	626	0	10000	1	1	0	1	0
196	627	0	10000	1	1	0	1	0
213	628	0	10000	1	1	0	1	0
245	629	0	10000	1	1	0	1	0
254	630	0	10000	1	1	0	1	0
256	631	0	10000	1	1	0	1	0
256	632	0	10000	1	1	0	1	0
258	633	0	10000	1	1	0	1	0
259	634	0	10000	1	1	0	1	0
282	635	0	10000	1	1	0	1	0
333	636	0	10000	1	1	0	1	0
366	637	0	10000	1	1	0	1	0
375	638	0	10000	1	1	0	1	0
418	639	0	10000	1	1	0	1	0
461	640	0	10000	1	1	0	1	0
478	641	0	10000	1	1	0	1	0
469	642	0	10000	1	1	0	1	0
469	643	0	10000	1	1	0	1	0
455	644	0	10000	1	1	0	1	0
502	645	0	10000	1	1	0	1	0
606	646	0	10000	1	1	0	1	0
630	647	0	10000	1	1	0	1	0
625	648	0	10000	1	1	0	1	0
684	649	0	10000	1	1	0	1	0
707	650	0	10000	1	1	0	1	0
694	651	0	10000	1	1	0	1	0
677	652	0	10000	1	1	0	1	0
666	653	0	10000	1	1	0	1	0
690	654	0	10000	1	1	0	1	0
676	655	0	10000	1	1	0	1	0
678	656	0	10000	1	1	0	1	0
682	657	0	10000	1	1	0	1	0
683	658	0	10000	1	1	0	1	0
707	659	0	10000	1	1	0	1	0
731	660	0	10000	1	1	0	1	0
735	661	0	10000	1	1	0	1	0
707	662	0	10000	1	1	0	1	0
676	663	0	10000	1	1	0	1	0
647	664	0	10000	1	1	0	1	0
617	665	0	10000	1	1	0	1	0
590	666	0	10000	1	1	0	1	0
570	667	0	10000	1	1	0	1	0
553	668	0	10000	1	1	0	1	0
544	669	0	10000	1	1	0	1	0
536	670	0	10000	1	1	0	1	0
529	671	0	10000	1	1	0	1	0
522	672	0	10000	1	1	0	1	0
515	673	0	10000	1	1	0	1	0
509	674	0	10000	1	1	0	1	0
502	675	0	10000	1	1	0	1	0
495	676	0	10000	1	1	0	1	0
489	677	0	10000	1	1	0	1	0
485	678	0	10000	1	1	0	1	0
487	679	0	10000	1	1	0	1	0
485	680	0	10000	1	1	0	1	0
478	681	0	10000	1	1	0	1	0
460	682	0	10000	1	1	0	1	0
441	683	0	10000	1	1	0	1	0
421	684	0	10000	1	1	0	1	0
403	685	0	10000	1	1	0	1	0
387	686	0	10000	1	1	0	1	0
370	687	0	10000	1	1	0	1	0
352	688	0	10000	1	1	0	1	0
337	689	0	10000	1	1	0	1	0
323	690	0	10000	1	1	0	1	0
313	691	0	10000	1	1	0	1	0
304	692	0	10000	1	1	0	1	0
297	693	0	10000	1	1	0	1	0
291	694	0	10000	1	1	0	1	0
284	695	0	10000	1	1	0	1	0
276	696	0	10000	1	1	0	1	0
269	697	0	10000	1	1	0	1	0
265	698	0	10000	1	1	0	1	0
262	699	0	10000	1	1	0	1	0
259	700	0	10000	1	1	0	1	0
255	701	0	10000	1	1	0	1	0
252	702	0	10000	1	1	0	1	0
249	703	0	10000	1	1	0	1	0
249	704	0	10000	1	1	0	1	0
250	705	0	10000	1	1	0	1	0
251	706	0	10000	1	1	0	1	0
248	707	0	10000	1	1	0	1	0
249	708	0	10000	1	1	0	1	0
249	709	0	10000	1	1	0	1	0
248	710	0	10000	1	1	0	1	0
248	711	0	10000	1	1	0	1	0
243	712	0	10000	1	1	0	1	0
241	713	0	10000	1	1	0	1	0
240	714	0	10000	1	1	0	1	0
238	715	0	10000	1	1	0	1	0
235	716	0	10000	1	1	0	1	0
233	717	0	10000	1	1	0	1	0
226	718	0	10000	1	1	0	1	0
215	719	0	10000	1	1	0	1	0
206	720	0	10000	1	1	0	1	0
197	721	0	10000	1	1	0	1	0
192	722	0	10000	1	1	0	1	0
190	723	0	10000	1	1	0	1	0
187	724	0	10000	1	1	0	1	0
182	725	0	10000	1	1	0	1	0
176	726	0	10000	1	1	0	1	0
166	727	0	10000	1	1	0	1	0
160	728	0	10000	1	1	0	1	0
162	729	0	10000	1	1	0	1	0
164	730	0	10000	1	1	0	1	0
163	731	0	10000	1	1	0	1	0
161	732	0	10000	1	1	0	1	0
157	733	0	10000	1	1	0	1	0
151	734	0	10000	1	1	0	1	0
145	735	0	10000	1	1	0	1	0
141	736	0	10000	1	1	0	1	0
139	737	0	10000	1	1	0	1	0
137	738	0	10000	1	1	0	1	0
135	739	0	10000	1	1	0	1	0
134	740	0	10000	1	1	0	1	0
132	741	0	10000	1	1	0	1	0
130	742	0	10000	1	1	0	1	0
128	743	0	10000	1	1	0	1	0
126	744	0	10000	1	1	0	1	0
123	745	0	10000	1	1	0	1	0
120	746	0	10000	1	1	0	1	0
115	747	0	10000	1	1	0	1	0
112	748	0	10000	1	1	0	1	0
111	749	0	10000	1	1	0	1	0
108	750	0	10000	1	1	0	1	0
107	751	0	10000	1	1	0	1	0
104	752	0	10000	1	1	0	1	0
101	753	0	10000	1	1	0	1	0
98	754	0	10000	1	1	0	1	0
95	755	0	10000	1	1	0	1	0
94	756	0	10000	1	1	0	1	0
96	757	0	10000	1	1	0	1	0
98	758	0	10000	1	1	0	1	0
97	759	0	10000	1	1	0	1	0
97	760	0	10000	1	1	0	1	0
95	761	0	10000	1	1	0	1	0
94	762	0	10000	1	1	0	1	0
93	763	0	10000	1	1	0	1	0
91	764	0	10000	1	1	0	1	0
89	765	0	10000	1	1	0	1	0
89	766	0	10000	1	1	0	1	0
86	767	0	10000	1	1	0	1	0
85	768	0	10000	1	1	0	1	0
84	769	0	10000	1	1	0	1	0
82	770	0	10000	1	1	0	1	0
79	771	0	10000	1	1	0	1	0
75	772	0	10000	1	1	0	1	0
72	773	0	10000	1	1	0	1	0
70	774	0	10000	1	1	0	1	0
69	775	0	10000	1	1	0	1	0
66	776	0	10000	1	1	0	1	0
67	777	0	10000	1	1	0	1	0
69	778	0	10000	1	1	0	1	0
70	779	0	10000	1	1	0	1	0
72	780	0	10000	1	1	0	1	0
74	781	0	10000	1	1	0	1	0
76	782	0	10000	1	1	0	1	0
75	783	0	10000	1	1	0	1	0
73	784	0	10000	1	1	0	1	0
70	785	0	10000	1	1	0	1	0
68	786	0	10000	1	1	0	1	0
64	787	0	10000	1	1	0	1	0
60	788	0	10000	1	1	0	1	0
60	789	0	10000	1	1	0	1	0
60	790	0	10000	1	1	0	1	0
61	791	0	10000	1	1	0	1	0
60	792	0	10000	1	1	0	1	0
58	793	0	10000	1	1	0	1	0
57	794	0	10000	1	1	0	1	0
56	795	0	10000	1	1	0	1	0
57	796	0	10000	1	1	0	1	0
57	797	0	10000	1	1	0	1	0
56	798	0	10000	1	1	0	1	0
53	799	0	10000	1	1	0	1	0
52	800	0	10000	1	1	0	1	0
51	801	0	10000	1	1	0	1	0
51	802	0	10000	1	1	0	1	0
51	803	0	10000	1	1	0	1	0
51	804	0	10000	1	1	0	1	0
50	805	0	10000	1	1	0	1	0
49	806	0	10000	1	1	0	1	0
46	807	0	10000	1	1	0	1	0
44	808	0	10000	1	1	0	1	0
43	809	0	10000	1	1	0	1	0
41	810	0	10000	1	1	0	1	0
41	811	0	10000	1	1	0	1	0
41	812	0	10000	1	1	0	1	0
41	813	0	10000	1	1	0	1	0
39	814	0	10000	1	1	0	1	0
38	815	0	10000	1	1	0	1	0
37	816	0	10000	1	1	0	1	0
40	817	0	10000	1	1	0	1	0
43	818	0	10000	1	1	0	1	0
41	819	0	10000	1	1	0	1	0
39	820	0	10000	1	1	0	1	0
37	821	0	10000	1	1	0	1	0
35	822	0	10000	1	1	0	1	0
35	823	0	10000	1	1	0	1	0
34	824	0	10000	1	1	0	1	0
34	825	0	10000	1	1	0	1	0
33	826	0	10000	1	1	0	1	0
31	827	0	10000	1	1	0	1	0
30	828	0	10000	1	1	0	1	0
30	829	0	10000	1	1	0	1	0
29	830	0	10000	1	1	0	1	0
28	831	0	10000	1	1	0	1	0
27	832	0	10000	1	1	0	1	0
27	833	0	10000	1	1	0	1	0
27	834	0	10000	1	1	0	1	0
25	835	0	10000	1	1	0	1	0
25	836	0	10000	1	1	0	1	0
25	837	0	10000	1	1	0	1	0
25	838	0	10000	1	1	0	1	0
25	839	0	10000	1	1	0	1	0
26	840	0	10000	1	1	0	1	0
27	841	0	10000	1	1	0	1	0
26	842	0	10000	1	1	0	1	0
25	843	0	10000	1	1	0	1	0
26	844	0	10000	1	1	0	1	0
26	845	0	10000	1	1	0	1	0
27	846	0	10000	1	1	0	1	0
26	847	0	10000	1	1	0	1	0
26	848	0	10000	1	1	0	1	0
26	849	0	10000	1	1	0	1	0
25	850	0	10000	1	1	0	1	0
25	851	0	10000	1	1	0	1	0
26	852	0	10000	1	1	0	1	0
27	853	0	10000	1	1	0	1	0
27	854	0	10000	1	1	0	1	0
27	855	0	10000	1	1	0	1	0
26	856	0	10000	1	1	0	1	0
27	857	0	10000	1	1	0	1	0
26	858	0	10000	1	1	0	1	0
26	859	0	10000	1	1	0	1	0
25	860	0	10000	1	1	0	1	0
24	861	0	10000	1	1	0	1	0
27	862	0	10000	1	1	0	1	0
31	863	0	10000	1	1	0	1	0
34	864	0	10000	1	1	0	1	0
35	865	0	10000	1	1	0	1	0
34	866	0	10000	1	1	0	1	0
32	867	0	10000	1	1	0	1	0
30	868	0	10000	1	1	0	1	0
31	869	0	10000	1	1	0	1	0
32	870	0	10000	1	1	0	1	0
31	871	0	10000	1	1	0	1	0
31	872	0	10000	1	1	0	1	0
30	873	0	10000	1	1	0	1	0
29	874	0	10000	1	1	0	1	0
28	875	0	10000	1	1	0	1	0
27	876	0	10000	1	1	0	1	0
27	877	0	10000	1	1	0	1	0
27	878	0	10000	1	1	0	1	0
28	879	0	10000	1	1	0	1	0
30	880	0	10000	1	1	0	1	0
32	881	0	10000	1	1	0	1	0
33	882	0	10000	1	1	0	1	0
34	883	0	10000	1	1	0	1	0
35	884	0	10000	1	1	0	1	0
34	885	0	10000	1	1	0	1	0
34	886	0	10000	1	1	0	1	0
30	887	0	10000	1	1	0	1	0
29	888	0	10000	1	1	0	1	0
28	889	0	10000	1	1	0	1	0
28	890	0	10000	1	1	0	1	0
30	891	0	10000	1	1	0	1	0
31	892	0	10000	1	1	0	1	0
32	893	0	10000	1	1	0	1	0
32	894	0	10000	1	1	0	1	0
32	895	0	10000	1	1	0	1	0
31	896	0	10000	1	1	0	1	0
30	897	0	10000	1	1	0	1	0
30	898	0	10000	1	1	0	1	0
29	899	0	10000	1	1	0	1	0
28	900	0	10000	1	1	0	1	0
27	901	0	10000	1	1	0	1	0
26	902	0	10000	1	1	0	1	0
26	903	0	10000	1	1	0	1	0
26	904	0	10000	1	1	0	1	0
25	905	0	10000	1	1	0	1	0
26	906	0	10000	1	1	0	1	0
24	907	0	10000	1	1	0	1	0
24	908	0	10000	1	1	0	1	0
24	909	0	10000	1	1	0	1	0
24	910	0	10000	1	1	0	1	0
28	911	0	10000	1	1	0	1	0
33	912	0	10000	1	1	0	1	0
35	913	0	10000	1	1	0	1	0
36	914	0	10000	1	1	0	1	0
35	915	0	10000	1	1	0	1	0
36	916	0	10000	1	1	0	1	0
43	917	0	10000	1	1	0	1	0
48	918	0	10000	1	1	0	1	0
52	919	0	10000	1	1	0	1	0
50	920	0	10000	1	1	0	1	0
49	921	0	10000	1	1	0	1	0
48	922	0	10000	1	1	0	1	0
45	923	0	10000	1	1	0	1	0
46	924	0	10000	1	1	0	1	0
48	925	0	10000	1	1	0	1	0
48	926	0	10000	1	1	0	1	0
45	927	0	10000	1	1	0	1	0
43	928	0	10000	1	1	0	1	0
41	929	0	10000	1	1	0	1	0
40	930	0	10000	1	1	0	1	0
41	931	0	10000	1	1	0	1	0
43	932	0	10000	1	1	0	1	0
44	933	0	10000	1	1	0	1	0
43	934	0	10000	1	1	0	1	0
43	935	0	10000	1	1	0	1	0
44	936	0	10000	1	1	0	1	0
48	937	0	10000	1	1	0	1	0
48	938	0	10000	1	1	0	1	0
45	939	0	10000	1	1	0	1	0
44	940	0	10000	1	1	0	1	0
44	941	0	10000	1	1	0	1	0
47	942	0	10000	1	1	0	1	0
51	943	0	10000	1	1	0	1	0
51	944	0	10000	1	1	0	1	0
52	945	0	10000	1	1	0	1	0
57	946	0	10000	1	1	0	1	0
61	947	0	10000	1	1	0	1	0
64	948	0	10000	1	1	0	1	0
65	949	0	10000	1	1	0	1	0
64	950	0	10000	1	1	0	1	0
62	951	0	10000	1	1	0	1	0
59	952	0	10000	1	1	0	1	0
56	953	0	10000	1	1	0	1	0
56	954	0	10000	1	1	0	1	0
54	955	0	10000	1	1	0	1	0
54	956	0	10000	1	1	0	1	0
54	957	0	10000	1	1	0	1	0
53	958	0	10000	1	1	0	1	0
50	959	0	10000	1	1	0	1	0
49	960	0	10000	1	1	0	1	0
46	961	0	10000	1	1	0	1	0
44	962	0	10000	1	1	0	1	0
45	963	0	10000	1	1	0	1	0
45	964	0	10000	1	1	0	1	0
46	965	0	10000	1	1	0	1	0
51	966	0	10000	1	1	0	1	0
52	967	0	10000	1	1	0	1	0
53	968	0	10000	1	1	0	1	0
52	969	0	10000	1	1	0	1	0
52	970	0	10000	1	1	0	1	0
51	971	0	10000	1	1	0	1	0
49	972	0	10000	1	1	0	1	0
50	973	0	10000	1	1	0	1	0
52	974	0	10000	1	1	0	1	0
53	975	0	10000	1	1	0	1	0
51	976	0	10000	1	1	0	1	0
51	977	0	10000	1	1	0	1	0
51	978	0	10000	1	1	0	1	0
49	979	0	10000	1	1	0	1	0
48	980	0	10000	1	1	0	1	0
45	981	0	10000	1	1	0	1	0
46	982	0	10000	1	1	0	1	0
48	983	0	10000	1	1	0	1	0
51	984	0	10000	1	1	0	1	0
50	985	0	10000	1	1	0	1	0
50	986	0	10000	1	1	0	1	0
48	987	0	10000	1	1	0	1	0
47	988	0	10000	1	1	0	1	0
46	989	0	10000	1	1	0	1	0
45	990	0	10000	1	1	0	1	0
43	991	0	10000	1	1	0	1	0
42	992	0	10000	1	1	0	1	0
41	993	0	10000	1	1	0	1	0
40	994	0	10000	1	1	0	1	0
38	995	0	10000	1	1	0	1	0
37	996	0	10000	1	1	0	1	0
37	997	0	10000	1	1	0	1	0
37	998	0	10000	1	1	0	1	0
36	999	0	10000	1	1	0	1	0
36	1000	0	10000	1	1	0	1	0
36	1001	0	10000	1	1	0	1	0
126	2	7	10000	2	1	0	2	0
120	3	7	10000	2	1	0	2	0
114	4	7	10000	2	1	0	2	0
109	5	7	10000	2	1	0	2	0
105	6	7	10000	2	1	0	2	0
102	7	7	10000	2	1	0	2	0
99	8	7	10000	2	1	0	2	0
97	9	7	10000	2	1	0	2	0
95	10	7	10000	2	1	0	2	0
96	11	7	10000	2	1	0	2	0
104	12	7	10000	2	1	0	2	0
128	13	7	10000	2	1	0	2	0
143	14	7	10000	2	1	0	2	0
142	15	7	10000	2	1	0	2	0
143	16	7	10000	2	1	0	2	0
149	17	7	10000	2	1	0	2	0
158	18	7	10000	2	1	0	2	0
171	19	7	10000	2	1	0	2	0
186	20	7	10000	2	1	0	2	0
196	21	7	10000	2	1	0	2	0
196	21	7	10000	2	1	0	2	0
186	22	7	10000	2	1	0	2	0
180	24	7	10000	2	1	0	2	0
176	25	7	10000	2	1	0	2	0
172	26	7	10000	2	1	0	2	0
169	27	7	10000	2	1	0	2	0
168	28	7	10000	2	1	0	2	0
165	29	7	10000	2	1	0	2	0
163	30	7	10000	2	1	0	2	0
164	31	7	10000	2	1	0	2	0
162	31	7	10000	2	1	0	2	0
159	32	7	10000	2	1	0	2	0
155	34	7	10000	2	1	0	2	0
149	35	7	10000	2	1	0	2	0
144	36	7	10000	2	1	0	2	0
140	37	7	10000	2	1	0	2	0
134	38	7	10000	2	1	0	2	0
128	39	7	10000	2	1	0	2	0
126	40	7	10000	2	1	0	2	0
126	41	7	10000	2	1	0	2	0
123	41	7	10000	2	1	0	2	0
116	42	7	10000	2	1	0	2	0
119	44	7	10000	2	1	0	2	0
126	45	7	10000	2	1	0	2	0
130	46	7	10000	2	1	0	2	0
129	47	7	10000	2	1	0	2	0
130	48	7	10000	2	1	0	2	0
127	49	7	10000	2	1	0	2	0
126	50	7	10000	2	1	0	2	0
127	51	7	10000	2	1	0	2	0
125	51	7	10000	2	1	0	2	0
122	52	7	10000	2	1	0	2	0
118	54	7	10000	2	1	0	2	0
115	55	7	10000	2	1	0	2	0
111	56	7	10000	2	1	0	2	0
111	57	7	10000	2	1	0	2	0
117	58	7	10000	2	1	0	2	0
124	59	7	10000	2	1	0	2	0
127	60	7	10000	2	1	0	2	0
127	61	7	10000	2	1	0	2	0
124	61	7	10000	2	1	0	2	0
125	62	7	10000	2	1	0	2	0
125	64	7	10000	2	1	0	2	0
126	65	7	10000	2	1	0	2	0
125	66	7	10000	2	1	0	2	0
121	67	7	10000	2	1	0	2	0
116	68	7	10000	2	1	0	2	0
111	69	7	10000	2	1	0	2	0
108	70	7	10000	2	1	0	2	0
102	71	7	10000	2	1	0	2	0
98	71	7	10000	2	1	0	2	0
97	72	7	10000	2	1	0	2	0
95	74	7	10000	2	1	0	2	0
95	75	7	10000	2	1	0	2	0
95	76	7	10000	2	1	0	2	0
92	77	7	10000	2	1	0	2	0
89	78	7	10000	2	1	0	2	0
91	79	7	10000	2	1	0	2	0
100	80	7	10000	2	1	0	2	0
105	81	7	10000	2	1	0	2	0
104	81	7	10000	2	1	0	2	0
101	82	7	10000	2	1	0	2	0
101	84	7	10000	2	1	0	2	0
101	85	7	10000	2	1	0	2	0
98	86	7	10000	2	1	0	2	0
96	87	7	10000	2	1	0	2	0
95	88	7	10000	2	1	0	2	0
96	89	7	10000	2	1	0	2	0
101	90	7	10000	2	1	0	2	0
107	91	7	10000	2	1	0	2	0
104	91	7	10000	2	1	0	2	0
108	92	7	10000	2	1	0	2	0
111	94	7	10000	2	1	0	2	0
114	95	7	10000	2	1	0	2	0
113	96	7	10000	2	1	0	2	0
110	97	7	10000	2	1	0	2	0
109	98	7	10000	2	1	0	2	0
107	99	7	10000	2	1	0	2	0
102	100	7	10000	2	1	0	2	0
100	101	7	10000	2	1	0	2	0
96	101	7	10000	2	1	0	2	0
91	102	7	10000	2	1	0	2	0
92	104	7	10000	2	1	0	2	0
92	105	7	10000	2	1	0	2	0
90	106	7	10000	2	1	0	2	0
89	107	7	10000	2	1	0	2	0
88	108	7	10000	2	1	0	2	0
90	109	7	10000	2	1	0	2	0
87	110	7	10000	2	1	0	2	0
91	111	7	10000	2	1	0	2	0
97	111	7	10000	2	1	0	2	0
99	112	7	10000	2	1	0	2	0
109	114	7	10000	2	1	0	2	0
122	115	7	10000	2	1	0	2	0
121	116	7	10000	2	1	0	2	0
125	117	7	10000	2	1	0	2	0
135	118	7	10000	2	1	0	2	0
144	119	7	10000	2	1	0	2	0
150	120	7	10000	2	1	0	2	0
149	121	7	10000	2	1	0	2	0
144	121	7	10000	2	1	0	2	0
135	122	7	10000	2	1	0	2	0
128	124	7	10000	2	1	0	2	0
125	125	7	10000	2	1	0	2	0
125	126	7	10000	2	1	0	2	0
123	127	7	10000	2	1	0	2	0
119	128	7	10000	2	1	0	2	0
116	129	7	10000	2	1	0	2	0
118	130	7	10000	2	1	0	2	0
119	131	7	10000	2	1	0	2	0
118	131	7	10000	2	1	0	2	0
120	132	7	10000	2	1	0	2	0
123	134	7	10000	2	1	0	2	0
118	135	7	10000	2	1	0	2	0
114	136	7	10000	2	1	0	2	0
116	137	7	10000	2	1	0	2	0
121	138	7	10000	2	1	0	2	0
127	139	7	10000	2	1	0	2	0
125	140	7	10000	2	1	0	2	0
123	141	7	10000	2	1	0	2	0
123	141	7	10000	2	1	0	2	0
120	142	7	10000	2	1	0	2	0
117	144	7	10000	2	1	0	2	0
112	145	7	10000	2	1	0	2	0
110	146	7	10000	2	1	0	2	0
108	147	7	10000	2	1	0	2	0
105	148	7	10000	2	1	0	2	0
104	149	7	10000	2	1	0	2	0
100	150	7	10000	2	1	0	2	0
97	151	7	10000	2	1	0	2	0
93	151	7	10000	2	1	0	2	0
94	152	7	10000	2	1	0	2	0
94	154	7	10000	2	1	0	2	0
89	155	7	10000	2	1	0	2	0
87	156	7	10000	2	1	0	2	0
86	157	7	10000	2	1	0	2	0
89	158	7	10000	2	1	0	2	0
90	159	7	10000	2	1	0	2	0
87	160	7	10000	2	1	0	2	0
84	161	7	10000	2	1	0	2	0
80	161	7	10000	2	1	0	2	0
80	162	7	10000	2	1	0	2	0
84	164	7	10000	2	1	0	2	0
91	165	7	10000	2	1	0	2	0
92	166	7	10000	2	1	0	2	0
90	167	7	10000	2	1	0	2	0
93	168	7	10000	2	1	0	2	0
91	169	7	10000	2	1	0	2	0
92	170	7	10000	2	1	0	2	0
92	171	7	10000	2	1	0	2	0
89	171	7	10000	2	1	0	2	0
90	172	7	10000	2	1	0	2	0
87	174	7	10000	2	1	0	2	0
85	175	7	10000	2	1	0	2	0
82	176	7	10000	2	1	0	2	0
83	177	7	10000	2	1	0	2	0
81	178	7	10000	2	1	0	2	0
82	179	7	10000	2	1	0	2	0
91	180	7	10000	2	1	0	2	0
94	181	7	10000	2	1	0	2	0
93	181	7	10000	2	1	0	2	0
93	182	7	10000	2	1	0	2	0
91	184	7	10000	2	1	0	2	0
93	185	7	10000	2	1	0	2	0
96	186	7	10000	2	1	0	2	0
96	187	7	10000	2	1	0	2	0
92	188	7	10000	2	1	0	2	0
91	189	7	10000	2	1	0	2	0
88	190	7	10000	2	1	0	2	0
85	191	7	10000	2	1	0	2	0
87	191	7	10000	2	1	0	2	0
87	192	7	10000	2	1	0	2	0
84	194	7	10000	2	1	0	2	0
83	195	7	10000	2	1	0	2	0
84	196	7	10000	2	1	0	2	0
84	197	7	10000	2	1	0	2	0
83	198	7	10000	2	1	0	2	0
80	199	7	10000	2	1	0	2	0
78	200	7	10000	2	1	0	2	0
80	201	7	10000	2	1	0	2	0
86	201	7	10000	2	1	0	2	0
100	202	7	10000	2	1	0	2	0
120	204	7	10000	2	1	0	2	0
133	205	7	10000	2	1	0	2	0
136	206	7	10000	2	1	0	2	0
136	207	7	10000	2	1	0	2	0
145	208	7	10000	2	1	0	2	0
162	209	7	10000	2	1	0	2	0
176	210	7	10000	2	1	0	2	0
184	211	7	10000	2	1	0	2	0
187	211	7	10000	2	1	0	2	0
187	212	7	10000	2	1	0	2	0
181	214	7	10000	2	1	0	2	0
176	215	7	10000	2	1	0	2	0
171	216	7	10000	2	1	0	2	0
165	217	7	10000	2	1	0	2	0
160	218	7	10000	2	1	0	2	0
157	219	7	10000	2	1	0	2	0
157	220	7	10000	2	1	0	2	0
152	221	7	10000	2	1	0	2	0
146	221	7	10000	2	1	0	2	0
140	222	7	10000	2	1	0	2	0
136	224	7	10000	2	1	0	2	0
130	225	7	10000	2	1	0	2	0
127	226	7	10000	2	1	0	2	0
122	227	7	10000	2	1	0	2	0
117	228	7	10000	2	1	0	2	0
112	229	7	10000	2	1	0	2	0
107	230	7	10000	2	1	0	2	0
107	231	7	10000	2	1	0	2	0
112	231	7	10000	2	1	0	2	0
116	232	7	10000	2	1	0	2	0
114	234	7	10000	2	1	0	2	0
109	235	7	10000	2	1	0	2	0
107	236	7	10000	2	1	0	2	0
104	237	7	10000	2	1	0	2	0
101	238	7	10000	2	1	0	2	0
99	239	7	10000	2	1	0	2	0
101	240	7	10000	2	1	0	2	0
102	241	7	10000	2	1	0	2	0
99	241	7	10000	2	1	0	2	0
99	242	7	10000	2	1	0	2	0
102	244	7	10000	2	1	0	2	0
104	245	7	10000	2	1	0	2	0
102	246	7	10000	2	1	0	2	0
105	247	7	10000	2	1	0	2	0
111	248	7	10000	2	1	0	2	0
116	249	7	10000	2	1	0	2	0
114	250	7	10000	2	1	0	2	0
114	251	7	10000	2	1	0	2	0
110	251	7	10000	2	1	0	2	0
114	252	7	10000	2	1	0	2	0
125	254	7	10000	2	1	0	2	0
137	255	7	10000	2	1	0	2	0
142	256	7	10000	2	1	0	2	0
143	257	7	10000	2	1	0	2	0
141	258	7	10000	2	1	0	2	0
135	259	7	10000	2	1	0	2	0
134	260	7	10000	2	1	0	2	0
137	261	7	10000	2	1	0	2	0
136	261	7	10000	2	1	0	2	0
130	262	7	10000	2	1	0	2	0
125	264	7	10000	2	1	0	2	0
123	265	7	10000	2	1	0	2	0
121	266	7	10000	2	1	0	2	0
116	267	7	10000	2	1	0	2	0
111	268	7	10000	2	1	0	2	0
107	269	7	10000	2	1	0	2	0
105	270	7	10000	2	1	0	2	0
103	271	7	10000	2	1	0	2	0
99	271	7	10000	2	1	0	2	0
98	272	7	10000	2	1	0	2	0
95	274	7	10000	2	1	0	2	0
92	275	7	10000	2	1	0	2	0
91	276	7	10000	2	1	0	2	0
88	277	7	10000	2	1	0	2	0
86	278	7	10000	2	1	0	2	0
89	279	7	10000	2	1	0	2	0
97	280	7	10000	2	1	0	2	0
107	281	7	10000	2	1	0	2	0
111	281	7	10000	2	1	0	2	0
109	282	7	10000	2	1	0	2	0
118	284	7	10000	2	1	0	2	0
123	285	7	10000	2	1	0	2	0
127	286	7	10000	2	1	0	2	0
127	287	7	10000	2	1	0	2	0
120	288	7	10000	2	1	0	2	0
116	289	7	10000	2	1	0	2	0
114	290	7	10000	2	1	0	2	0
110	291	7	10000	2	1	0	2	0
106	291	7	10000	2	1	0	2	0
108	292	7	10000	2	1	0	2	0
106	294	7	10000	2	1	0	2	0
104	295	7	10000	2	1	0	2	0
102	296	7	10000	2	1	0	2	0
98	297	7	10000	2	1	0	2	0
96	298	7	10000	2	1	0	2	0
94	299	7	10000	2	1	0	2	0
99	300	7	10000	2	1	0	2	0
98	301	7	10000	2	1	0	2	0
98	301	7	10000	2	1	0	2	0
96	302	7	10000	2	1	0	2	0
97	304	7	10000	2	1	0	2	0
101	305	7	10000	2	1	0	2	0
104	306	7	10000	2	1	0	2	0
104	307	7	10000	2	1	0	2	0
101	308	7	10000	2	1	0	2	0
100	309	7	10000	2	1	0	2	0
100	310	7	10000	2	1	0	2	0
102	311	7	10000	2	1	0	2	0
108	311	7	10000	2	1	0	2	0
112	312	7	10000	2	1	0	2	0
108	314	7	10000	2	1	0	2	0
109	315	7	10000	2	1	0	2	0
111	316	7	10000	2	1	0	2	0
107	317	7	10000	2	1	0	2	0
104	318	7	10000	2	1	0	2	0
103	319	7	10000	2	1	0	2	0
104	320	7	10000	2	1	0	2	0
107	321	7	10000	2	1	0	2	0
107	321	7	10000	2	1	0	2	0
105	322	7	10000	2	1	0	2	0
102	324	7	10000	2	1	0	2	0
99	325	7	10000	2	1	0	2	0
98	326	7	10000	2	1	0	2	0
97	327	7	10000	2	1	0	2	0
93	328	7	10000	2	1	0	2	0
90	329	7	10000	2	1	0	2	0
89	330	7	10000	2	1	0	2	0
93	331	7	10000	2	1	0	2	0
95	331	7	10000	2	1	0	2	0
100	332	7	10000	2	1	0	2	0
104	334	7	10000	2	1	0	2	0
106	335	7	10000	2	1	0	2	0
107	336	7	10000	2	1	0	2	0
103	337	7	10000	2	1	0	2	0
99	338	7	10000	2	1	0	2	0
95	339	7	10000	2	1	0	2	0
91	340	7	10000	2	1	0	2	0
91	341	7	10000	2	1	0	2	0
98	341	7	10000	2	1	0	2	0
110	342	7	10000	2	1	0	2	0
118	344	7	10000	2	1	0	2	0
117	345	7	10000	2	1	0	2	0
120	346	7	10000	2	1	0	2	0
125	347	7	10000	2	1	0	2	0
127	348	7	10000	2	1	0	2	0
128	349	7	10000	2	1	0	2	0
126	350	7	10000	2	1	0	2	0
123	351	7	10000	2	1	0	2	0
122	351	7	10000	2	1	0	2	0
120	352	7	10000	2	1	0	2	0
117	354	7	10000	2	1	0	2	0
126	355	7	10000	2	1	0	2	0
134	356	7	10000	2	1	0	2	0
134	357	7	10000	2	1	0	2	0
133	358	7	10000	2	1	0	2	0
139	359	7	10000	2	1	0	2	0
144	360	7	10000	2	1	0	2	0
143	361	7	10000	2	1	0	2	0
140	361	7	10000	2	1	0	2	0
136	362	7	10000	2	1	0	2	0
132	364	7	10000	2	1	0	2	0
128	365	7	10000	2	1	0	2	0
122	366	7	10000	2	1	0	2	0
121	367	7	10000	2	1	0	2	0
126	368	7	10000	2	1	0	2	0
130	369	7	10000	2	1	0	2	0
128	370	7	10000	2	1	0	2	0
126	371	7	10000	2	1	0	2	0
128	371	7	10000	2	1	0	2	0
133	372	7	10000	2	1	0	2	0
130	374	7	10000	2	1	0	2	0
124	375	7	10000	2	1	0	2	0
120	376	7	10000	2	1	0	2	0
119	377	7	10000	2	1	0	2	0
115	378	7	10000	2	1	0	2	0
117	379	7	10000	2	1	0	2	0
119	380	7	10000	2	1	0	2	0
115	381	7	10000	2	1	0	2	0
115	381	7	10000	2	1	0	2	0
113	382	7	10000	2	1	0	2	0
110	384	7	10000	2	1	0	2	0
107	385	7	10000	2	1	0	2	0
108	386	7	10000	2	1	0	2	0
109	387	7	10000	2	1	0	2	0
111	388	7	10000	2	1	0	2	0
109	389	7	10000	2	1	0	2	0
104	390	7	10000	2	1	0	2	0
103	391	7	10000	2	1	0	2	0
108	391	7	10000	2	1	0	2	0
112	392	7	10000	2	1	0	2	0
112	394	7	10000	2	1	0	2	0
111	395	7	10000	2	1	0	2	0
109	396	7	10000	2	1	0	2	0
106	397	7	10000	2	1	0	2	0
102	398	7	10000	2	1	0	2	0
98	399	7	10000	2	1	0	2	0
95	400	7	10000	2	1	0	2	0
92	401	7	10000	2	1	0	2	0
95	401	7	10000	2	1	0	2	0
99	402	7	10000	2	1	0	2	0
105	404	7	10000	2	1	0	2	0
108	405	7	10000	2	1	0	2	0
106	406	7	10000	2	1	0	2	0
101	407	7	10000	2	1	0	2	0
96	408	7	10000	2	1	0	2	0
94	409	7	10000	2	1	0	2	0
92	410	7	10000	2	1	0	2	0
94	411	7	10000	2	1	0	2	0
106	411	7	10000	2	1	0	2	0
116	412	7	10000	2	1	0	2	0
114	414	7	10000	2	1	0	2	0
114	415	7	10000	2	1	0	2	0
116	416	7	10000	2	1	0	2	0
116	417	7	10000	2	1	0	2	0
114	418	7	10000	2	1	0	2	0
112	419	7	10000	2	1	0	2	0
119	420	7	10000	2	1	0	2	0
124	421	7	10000	2	1	0	2	0
122	421	7	10000	2	1	0	2	0
123	422	7	10000	2	1	0	2	0
128	424	7	10000	2	1	0	2	0
129	425	7	10000	2	1	0	2	0
128	426	7	10000	2	1	0	2	0
125	427	7	10000	2	1	0	2	0
120	428	7	10000	2	1	0	2	0
116	429	7	10000	2	1	0	2	0
112	430	7	10000	2	1	0	2	0
110	431	7	10000	2	1	0	2	0
119	431	7	10000	2	1	0	2	0
128	432	7	10000	2	1	0	2	0
129	434	7	10000	2	1	0	2	0
127	435	7	10000	2	1	0	2	0
130	445	7	10000	2	1	0	2	0
127	446	7	10000	2	1	0	2	0
123	447	7	10000	2	1	0	2	0
119	448	7	10000	2	1	0	2	0
117	449	7	10000	2	1	0	2	0
112	450	7	10000	2	1	0	2	0
112	451	7	10000	2	1	0	2	0
113	452	7	10000	2	1	0	2	0
115	453	7	10000	2	1	0	2	0
117	454	7	10000	2	1	0	2	0
121	455	7	10000	2	1	0	2	0
132	456	7	10000	2	1	0	2	0
147	453	7	10000	2	1	0	2	0
158	454	7	10000	2	1	0	2	0
159	455	7	10000	2	1	0	2	0
154	456	7	10000	2	1	0	2	0
148	457	7	10000	2	1	0	2	0
147	458	7	10000	2	1	0	2	0
145	459	7	10000	2	1	0	2	0
142	460	7	10000	2	1	0	2	0
140	460	7	10000	2	1	0	2	0
135	461	7	10000	2	1	0	2	0
132	462	7	10000	2	1	0	2	0
131	463	7	10000	2	1	0	2	0
126	464	7	10000	2	1	0	2	0
122	465	7	10000	2	1	0	2	0
121	467	7	10000	2	1	0	2	0
116	468	7	10000	2	1	0	2	0
115	469	7	10000	2	1	0	2	0
113	470	7	10000	2	1	0	2	0
109	471	7	10000	2	1	0	2	0
113	472	7	10000	2	1	0	2	0
117	473	7	10000	2	1	0	2	0
115	474	7	10000	2	1	0	2	0
117	472	7	10000	2	1	0	2	0
117	473	7	10000	2	1	0	2	0
115	474	7	10000	2	1	0	2	0
113	475	7	10000	2	1	0	2	0
109	479	7	10000	2	1	0	2	0
105	480	7	10000	2	1	0	2	0
104	481	7	10000	2	1	0	2	0
102	482	7	10000	2	1	0	2	0
98	483	7	10000	2	1	0	2	0
93	484	7	10000	2	1	0	2	0
91	485	7	10000	2	1	0	2	0
88	486	7	10000	2	1	0	2	0
85	484	7	10000	2	1	0	2	0
80	485	7	10000	2	1	0	2	0
76	486	7	10000	2	1	0	2	0
73	487	7	10000	2	1	0	2	0
71	489	7	10000	2	1	0	2	0
77	490	7	10000	2	1	0	2	0
83	491	7	10000	2	1	0	2	0
84	492	7	10000	2	1	0	2	0
85	493	7	10000	2	1	0	2	0
88	494	7	10000	2	1	0	2	0
90	496	7	10000	2	1	0	2	0
93	497	7	10000	2	1	0	2	0
95	498	7	10000	2	1	0	2	0
99	499	7	10000	2	1	0	2	0
96	500	7	10000	2	1	0	2	0
95	501	7	10000	2	1	0	2	0
93	500	7	10000	2	1	0	2	0
91	501	7	10000	2	1	0	2	0
89	502	7	10000	2	1	0	2	0
87	503	7	10000	2	1	0	2	0
90	507	7	10000	2	1	0	2	1
90	508	7	10000	2	1	0	2	1
88	509	7	10000	2	1	0	2	1
86	510	7	10000	2	1	0	2	1
83	511	7	10000	2	1	0	2	1
83	512	7	10000	2	1	0	2	1
85	513	7	10000	2	1	0	2	1
83	514	7	10000	2	1	0	2	1
80	511	7	10000	2	1	0	2	1
78	512	7	10000	2	1	0	2	1
74	513	7	10000	2	1	0	2	1
76	514	7	10000	2	1	0	2	1
75	519	7	10000	2	1	0	2	1
73	520	7	10000	2	1	0	2	1
75	521	7	10000	2	1	0	2	1
76	522	7	10000	2	1	0	2	1
76	523	7	10000	2	1	0	2	1
74	524	7	10000	2	1	0	2	1
77	525	7	10000	2	1	0	2	1
75	526	7	10000	2	1	0	2	1
73	523	7	10000	2	1	0	2	1
68	524	7	10000	2	1	0	2	1
67	525	7	10000	2	1	0	2	1
79	526	7	10000	2	1	0	2	1
97	529	7	10000	2	1	0	2	1
107	530	7	10000	2	1	0	2	1
106	531	7	10000	2	1	0	2	1
114	532	7	10000	2	1	0	2	1
123	533	7	10000	2	1	0	2	1
123	534	7	10000	2	1	0	2	1
121	535	7	10000	2	1	0	2	1
127	536	7	10000	2	1	0	2	1
127	537	7	10000	2	1	0	2	1
121	538	7	10000	2	1	0	2	1
118	539	7	10000	2	1	0	2	1
113	540	7	10000	2	1	0	2	1
112	540	7	10000	2	1	0	2	1
111	541	7	10000	2	1	0	2	1
111	542	7	10000	2	1	0	2	1
110	543	7	10000	2	1	0	2	1
106	541	7	10000	2	1	0	2	1
99	542	7	10000	2	1	0	2	1
95	544	7	10000	2	1	0	2	1
95	545	7	10000	2	1	0	2	1
103	546	7	10000	2	1	0	2	1
109	547	7	10000	2	1	0	2	1
110	548	7	10000	2	1	0	2	1
107	549	7	10000	2	1	0	2	1
106	550	7	10000	2	1	0	2	1
104	551	7	10000	2	1	0	2	1
101	552	7	10000	2	1	0	2	0
100	553	7	10000	2	1	0	2	0
96	554	7	10000	2	1	0	2	0
96	555	7	10000	2	1	0	2	0
94	556	7	10000	2	1	0	2	0
93	557	7	10000	2	1	0	2	0
98	558	7	10000	2	1	0	2	0
107	559	7	10000	2	1	0	2	0
108	560	7	10000	2	1	0	2	0
105	561	7	10000	2	1	0	2	0
109	562	7	10000	2	1	0	2	0
107	563	7	10000	2	1	0	2	0
104	564	7	10000	2	1	0	2	0
106	565	7	10000	2	1	0	2	0
110	566	7	10000	2	1	0	2	0
110	567	7	10000	2	1	0	2	0
107	568	7	10000	2	1	0	2	0
103	569	7	10000	2	1	0	2	0
104	570	7	10000	2	1	0	2	0
107	571	7	10000	2	1	0	2	0
113	572	7	10000	2	1	0	2	0
120	573	7	10000	2	1	0	2	0
118	574	7	10000	2	1	0	2	0
113	575	7	10000	2	1	0	2	0
112	576	7	10000	2	1	0	2	0
117	577	7	10000	2	1	0	2	0
114	578	7	10000	2	1	0	2	0
115	579	7	10000	2	1	0	2	0
145	580	7	10000	2	1	0	2	0
199	581	7	10000	2	1	0	2	0
237	582	7	10000	2	1	0	2	0
239	583	7	10000	2	1	0	2	0
280	584	7	10000	2	1	0	2	0
334	585	7	10000	2	1	0	2	0
342	586	7	10000	2	1	0	2	0
396	587	7	10000	2	1	0	2	0
441	588	7	10000	2	1	0	2	0
429	589	7	10000	2	1	0	2	0
440	590	7	10000	2	1	0	2	0
437	591	7	10000	2	1	0	2	0
427	592	7	10000	2	1	0	2	0
449	593	7	10000	2	1	0	2	0
455	594	7	10000	2	1	0	2	0
443	595	7	10000	2	1	0	2	0
488	596	7	10000	2	1	0	2	0
526	597	7	10000	2	1	0	2	0
522	598	7	10000	2	1	0	2	0
504	599	7	10000	2	1	0	2	0
494	600	7	10000	2	1	0	2	0
494	601	7	10000	2	1	0	2	0
484	602	7	10000	2	1	0	2	0
474	603	7	10000	2	1	0	2	0
485	604	7	10000	2	1	0	2	0
478	605	7	10000	2	1	0	2	0
471	606	7	10000	2	1	0	2	0
452	607	7	10000	2	1	0	2	0
444	608	7	10000	2	1	0	2	0
441	609	7	10000	2	1	0	2	0
431	610	7	10000	2	1	0	2	0
442	611	7	10000	2	1	0	2	0
456	612	7	10000	2	1	0	2	0
481	613	7	10000	2	1	0	2	0
483	614	7	10000	2	1	0	2	0
496	615	7	10000	2	1	0	2	0
504	616	7	10000	2	1	0	2	0
502	617	7	10000	2	1	0	2	0
513	618	7	10000	2	1	0	2	0
501	619	7	10000	2	1	0	2	0
492	620	7	10000	2	1	0	2	0
488	621	7	10000	2	1	0	2	0
476	622	7	10000	2	1	0	2	0
474	623	7	10000	2	1	0	2	0
478	624	7	10000	2	1	0	2	0
489	625	7	10000	2	1	0	2	0
496	626	7	10000	2	1	0	2	0
498	627	7	10000	2	1	0	2	0
487	628	7	10000	2	1	0	2	0
468	629	7	10000	2	1	0	2	0
461	630	7	10000	2	1	0	2	0
474	631	7	10000	2	1	0	2	0
492	632	7	10000	2	1	0	2	0
512	633	7	10000	2	1	0	2	0
525	634	7	10000	2	1	0	2	0
525	635	7	10000	2	1	0	2	0
520	636	7	10000	2	1	0	2	0
513	637	7	10000	2	1	0	2	0
496	638	7	10000	2	1	0	2	0
489	639	7	10000	2	1	0	2	0
474	640	7	10000	2	1	0	2	0
462	641	7	10000	2	1	0	2	0
444	642	7	10000	2	1	0	2	0
427	643	7	10000	2	1	0	2	0
411	644	7	10000	2	1	0	2	0
402	645	7	10000	2	1	0	2	0
392	646	7	10000	2	1	0	2	0
380	647	7	10000	2	1	0	2	0
368	648	7	10000	2	1	0	2	0
363	649	7	10000	2	1	0	2	0
356	650	7	10000	2	1	0	2	0
347	651	7	10000	2	1	0	2	0
340	652	7	10000	2	1	0	2	0
342	653	7	10000	2	1	0	2	0
348	654	7	10000	2	1	0	2	0
356	655	7	10000	2	1	0	2	0
357	656	7	10000	2	1	0	2	0
347	657	7	10000	2	1	0	2	0
335	658	7	10000	2	1	0	2	0
328	659	7	10000	2	1	0	2	0
327	660	7	10000	2	1	0	2	0
329	661	7	10000	2	1	0	2	0
335	662	7	10000	2	1	0	2	0
337	663	7	10000	2	1	0	2	0
334	664	7	10000	2	1	0	2	0
331	665	7	10000	2	1	0	2	0
338	666	7	10000	2	1	0	2	0
345	667	7	10000	2	1	0	2	0
356	668	7	10000	2	1	0	2	0
370	669	7	10000	2	1	0	2	0
373	670	7	10000	2	1	0	2	0
376	671	7	10000	2	1	0	2	0
391	672	7	10000	2	1	0	2	0
398	673	7	10000	2	1	0	2	0
381	674	7	10000	2	1	0	2	0
369	675	7	10000	2	1	0	2	0
363	676	7	10000	2	1	0	2	0
351	677	7	10000	2	1	0	2	0
345	678	7	10000	2	1	0	2	0
346	679	7	10000	2	1	0	2	0
345	680	7	10000	2	1	0	2	0
341	681	7	10000	2	1	0	2	0
333	682	7	10000	2	1	0	2	0
322	683	7	10000	2	1	0	2	0
311	684	7	10000	2	1	0	2	0
298	685	7	10000	2	1	0	2	0
287	686	7	10000	2	1	0	2	0
283	687	7	10000	2	1	0	2	0
277	688	7	10000	2	1	0	2	0
270	689	7	10000	2	1	0	2	0
265	690	7	10000	2	1	0	2	0
256	691	7	10000	2	1	0	2	0
254	692	7	10000	2	1	0	2	0
257	693	7	10000	2	1	0	2	0
261	694	7	10000	2	1	0	2	0
262	695	7	10000	2	1	0	2	0
256	696	7	10000	2	1	0	2	0
250	697	7	10000	2	1	0	2	0
240	698	7	10000	2	1	0	2	0
229	699	7	10000	2	1	0	2	0
220	700	7	10000	2	1	0	2	0
212	701	7	10000	2	1	0	2	0
208	702	7	10000	2	1	0	2	0
200	703	7	10000	2	1	0	2	0
193	704	7	10000	2	1	0	2	0
186	705	7	10000	2	1	0	2	0
181	706	7	10000	2	1	0	2	0
177	707	7	10000	2	1	0	2	0
176	708	7	10000	2	1	0	2	0
176	709	7	10000	2	1	0	2	0
174	710	7	10000	2	1	0	2	0
171	711	7	10000	2	1	0	2	0
166	712	7	10000	2	1	0	2	0
163	713	7	10000	2	1	0	2	0
159	714	7	10000	2	1	0	2	0
156	715	7	10000	2	1	0	2	0
152	716	7	10000	2	1	0	2	0
146	717	7	10000	2	1	0	2	0
143	718	7	10000	2	1	0	2	0
140	719	7	10000	2	1	0	2	0
135	720	7	10000	2	1	0	2	0
137	721	7	10000	2	1	0	2	0
141	722	7	10000	2	1	0	2	0
137	723	7	10000	2	1	0	2	0
134	724	7	10000	2	1	0	2	0
136	725	7	10000	2	1	0	2	0
141	726	7	10000	2	1	0	2	0
146	727	7	10000	2	1	0	2	0
147	728	7	10000	2	1	0	2	0
146	729	7	10000	2	1	0	2	0
145	730	7	10000	2	1	0	2	0
142	731	7	10000	2	1	0	2	0
141	732	7	10000	2	1	0	2	0
140	733	7	10000	2	1	0	2	0
136	734	7	10000	2	1	0	2	0
131	735	7	10000	2	1	0	2	0
125	736	7	10000	2	1	0	2	0
121	737	7	10000	2	1	0	2	0
116	738	7	10000	2	1	0	2	0
114	739	7	10000	2	1	0	2	0
110	740	7	10000	2	1	0	2	0
107	741	7	10000	2	1	0	2	0
107	742	7	10000	2	1	0	2	0
108	743	7	10000	2	1	0	2	0
110	744	7	10000	2	1	0	2	0
109	745	7	10000	2	1	0	2	0
107	746	7	10000	2	1	0	2	0
105	747	7	10000	2	1	0	2	0
101	748	7	10000	2	1	0	2	0
99	749	7	10000	2	1	0	2	0
94	750	7	10000	2	1	0	2	0
92	751	7	10000	2	1	0	2	0
88	752	7	10000	2	1	0	2	0
87	753	7	10000	2	1	0	2	0
83	754	7	10000	2	1	0	2	0
81	755	7	10000	2	1	0	2	0
78	756	7	10000	2	1	0	2	0
75	757	7	10000	2	1	0	2	0
73	758	7	10000	2	1	0	2	0
71	759	7	10000	2	1	0	2	0
70	760	7	10000	2	1	0	2	0
71	761	7	10000	2	1	0	2	0
70	762	7	10000	2	1	0	2	0
70	763	7	10000	2	1	0	2	0
76	764	7	10000	2	1	0	2	0
83	765	7	10000	2	1	0	2	0
88	766	7	10000	2	1	0	2	0
89	767	7	10000	2	1	0	2	0
87	768	7	10000	2	1	0	2	0
91	769	7	10000	2	1	0	2	0
97	770	7	10000	2	1	0	2	0
98	771	7	10000	2	1	0	2	0
95	772	7	10000	2	1	0	2	0
99	773	7	10000	2	1	0	2	0
111	774	7	10000	2	1	0	2	0
120	775	7	10000	2	1	0	2	0
125	776	7	10000	2	1	0	2	0
127	777	7	10000	2	1	0	2	0
123	778	7	10000	2	1	0	2	0
118	779	7	10000	2	1	0	2	0
115	780	7	10000	2	1	0	2	0
113	781	7	10000	2	1	0	2	0
112	782	7	10000	2	1	0	2	0
109	783	7	10000	2	1	0	2	0
110	784	7	10000	2	1	0	2	0
117	785	7	10000	2	1	0	2	0
133	786	7	10000	2	1	0	2	0
152	787	7	10000	2	1	0	2	0
182	788	7	10000	2	1	0	2	0
207	789	7	10000	2	1	0	2	0
204	790	7	10000	2	1	0	2	0
210	791	7	10000	2	1	0	2	0
232	792	7	10000	2	1	0	2	0
263	793	7	10000	2	1	0	2	0
292	794	7	10000	2	1	0	2	0
308	795	7	10000	2	1	0	2	0
311	796	7	10000	2	1	0	2	0
305	797	7	10000	2	1	0	2	0
293	798	7	10000	2	1	0	2	0
280	799	7	10000	2	1	0	2	0
268	800	7	10000	2	1	0	2	0
260	801	7	10000	2	1	0	2	0
253	802	7	10000	2	1	0	2	0
245	803	7	10000	2	1	0	2	0
241	804	7	10000	2	1	0	2	0
233	805	7	10000	2	1	0	2	0
224	806	7	10000	2	1	0	2	0
215	807	7	10000	2	1	0	2	0
206	808	7	10000	2	1	0	2	0
199	809	7	10000	2	1	0	2	0
195	810	7	10000	2	1	0	2	0
194	811	7	10000	2	1	0	2	0
188	812	7	10000	2	1	0	2	0
183	813	7	10000	2	1	0	2	0
177	814	7	10000	2	1	0	2	0
175	815	7	10000	2	1	0	2	0
166	816	7	10000	2	1	0	2	0
161	817	7	10000	2	1	0	2	0
159	818	7	10000	2	1	0	2	0
156	819	7	10000	2	1	0	2	0
153	820	7	10000	2	1	0	2	0
148	821	7	10000	2	1	0	2	0
146	822	7	10000	2	1	0	2	0
140	823	7	10000	2	1	0	2	0
138	824	7	10000	2	1	0	2	0
136	825	7	10000	2	1	0	2	0
134	826	7	10000	2	1	0	2	0
133	827	7	10000	2	1	0	2	0
133	828	7	10000	2	1	0	2	0
134	829	7	10000	2	1	0	2	0
135	830	7	10000	2	1	0	2	0
132	831	7	10000	2	1	0	2	0
126	832	7	10000	2	1	0	2	0
126	833	7	10000	2	1	0	2	0
121	834	7	10000	2	1	0	2	0
116	835	7	10000	2	1	0	2	0
115	836	7	10000	2	1	0	2	0
116	837	7	10000	2	1	0	2	0
113	838	7	10000	2	1	0	2	0
118	839	7	10000	2	1	0	2	0
130	840	7	10000	2	1	0	2	0
140	841	7	10000	2	1	0	2	0
142	842	7	10000	2	1	0	2	0
136	843	7	10000	2	1	0	2	0
130	844	7	10000	2	1	0	2	0
126	845	7	10000	2	1	0	2	0
122	846	7	10000	2	1	0	2	0
118	847	7	10000	2	1	0	2	0
114	848	7	10000	2	1	0	2	0
110	849	7	10000	2	1	0	2	0
109	850	7	10000	2	1	0	2	0
109	851	7	10000	2	1	0	2	0
106	852	7	10000	2	1	0	2	0
108	853	7	10000	2	1	0	2	0
109	854	7	10000	2	1	0	2	0
111	855	7	10000	2	1	0	2	0
110	856	7	10000	2	1	0	2	0
105	857	7	10000	2	1	0	2	0
100	858	7	10000	2	1	0	2	0
96	859	7	10000	2	1	0	2	0
94	860	7	10000	2	1	0	2	0
96	861	7	10000	2	1	0	2	0
95	862	7	10000	2	1	0	2	0
92	863	7	10000	2	1	0	2	0
92	864	7	10000	2	1	0	2	0
95	865	7	10000	2	1	0	2	0
95	866	7	10000	2	1	0	2	0
94	867	7	10000	2	1	0	2	0
94	868	7	10000	2	1	0	2	0
118	869	7	10000	2	1	0	2	0
147	870	7	10000	2	1	0	2	0
155	871	7	10000	2	1	0	2	0
157	872	7	10000	2	1	0	2	0
177	873	7	10000	2	1	0	2	0
193	874	7	10000	2	1	0	2	0
191	875	7	10000	2	1	0	2	0
193	876	7	10000	2	1	0	2	0
198	877	7	10000	2	1	0	2	0
193	878	7	10000	2	1	0	2	0
186	879	7	10000	2	1	0	2	0
184	880	7	10000	2	1	0	2	0
192	881	7	10000	2	1	0	2	0
203	882	7	10000	2	1	0	2	0
210	883	7	10000	2	1	0	2	0
212	884	7	10000	2	1	0	2	0
209	885	7	10000	2	1	0	2	0
201	886	7	10000	2	1	0	2	0
195	887	7	10000	2	1	0	2	0
187	888	7	10000	2	1	0	2	0
179	889	7	10000	2	1	0	2	0
170	890	7	10000	2	1	0	2	0
164	891	7	10000	2	1	0	2	0
158	892	7	10000	2	1	0	2	0
156	893	7	10000	2	1	0	2	0
152	894	7	10000	2	1	0	2	0
148	895	7	10000	2	1	0	2	0
144	896	7	10000	2	1	0	2	0
142	897	7	10000	2	1	0	2	0
141	898	7	10000	2	1	0	2	0
141	899	7	10000	2	1	0	2	0
142	900	7	10000	2	1	0	2	0
139	901	7	10000	2	1	0	2	0
138	902	7	10000	2	1	0	2	0
140	903	7	10000	2	1	0	2	0
143	904	7	10000	2	1	0	2	0
147	905	7	10000	2	1	0	2	0
144	906	7	10000	2	1	0	2	0
147	907	7	10000	2	1	0	2	0
151	908	7	10000	2	1	0	2	0
150	909	7	10000	2	1	0	2	0
149	910	7	10000	2	1	0	2	0
151	911	7	10000	2	1	0	2	0
150	912	7	10000	2	1	0	2	0
146	913	7	10000	2	1	0	2	0
141	914	7	10000	2	1	0	2	0
135	915	7	10000	2	1	0	2	0
131	916	7	10000	2	1	0	2	0
130	917	7	10000	2	1	0	2	0
135	918	7	10000	2	1	0	2	0
139	919	7	10000	2	1	0	2	0
137	920	7	10000	2	1	0	2	0
133	921	7	10000	2	1	0	2	0
132	922	7	10000	2	1	0	2	0
130	923	7	10000	2	1	0	2	0
127	924	7	10000	2	1	0	2	0
126	925	7	10000	2	1	0	2	0
128	926	7	10000	2	1	0	2	0
128	927	7	10000	2	1	0	2	0
124	928	7	10000	2	1	0	2	0
123	929	7	10000	2	1	0	2	0
120	930	7	10000	2	1	0	2	0
116	931	7	10000	2	1	0	2	0
112	932	7	10000	2	1	0	2	0
109	933	7	10000	2	1	0	2	0
106	934	7	10000	2	1	0	2	0
104	935	7	10000	2	1	0	2	0
104	936	7	10000	2	1	0	2	0
106	937	7	10000	2	1	0	2	0
110	938	7	10000	2	1	0	2	0
108	939	7	10000	2	1	0	2	0
107	940	7	10000	2	1	0	2	0
108	941	7	10000	2	1	0	2	0
105	942	7	10000	2	1	0	2	0
102	943	7	10000	2	1	0	2	0
101	944	7	10000	2	1	0	2	0
98	945	7	10000	2	1	0	2	0
95	946	7	10000	2	1	0	2	0
99	947	7	10000	2	1	0	2	0
104	948	7	10000	2	1	0	2	0
106	949	7	10000	2	1	0	2	0
104	950	7	10000	2	1	0	2	0
100	951	7	10000	2	1	0	2	0
97	952	7	10000	2	1	0	2	0
97	953	7	10000	2	1	0	2	0
97	954	7	10000	2	1	0	2	0
100	955	7	10000	2	1	0	2	0
100	956	7	10000	2	1	0	2	0
97	957	7	10000	2	1	0	2	0
98	958	7	10000	2	1	0	2	0
94	959	7	10000	2	1	0	2	0
93	960	7	10000	2	1	0	2	0
93	961	7	10000	2	1	0	2	0
101	962	7	10000	2	1	0	2	0
100	963	7	10000	2	1	0	2	0
101	964	7	10000	2	1	0	2	0
109	965	7	10000	2	1	0	2	0
118	966	7	10000	2	1	0	2	0
123	967	7	10000	2	1	0	2	0
124	968	7	10000	2	1	0	2	0
122	969	7	10000	2	1	0	2	0
118	970	7	10000	2	1	0	2	0
113	971	7	10000	2	1	0	2	0
109	972	7	10000	2	1	0	2	0
110	973	7	10000	2	1	0	2	0
111	974	7	10000	2	1	0	2	0
110	975	7	10000	2	1	0	2	0
109	976	7	10000	2	1	0	2	0
106	977	7	10000	2	1	0	2	0
103	978	7	10000	2	1	0	2	0
104	979	7	10000	2	1	0	2	0
111	980	7	10000	2	1	0	2	0
114	981	7	10000	2	1	0	2	0
112	982	7	10000	2	1	0	2	0
109	983	7	10000	2	1	0	2	0
112	984	7	10000	2	1	0	2	0
116	985	7	10000	2	1	0	2	0
118	986	7	10000	2	1	0	2	0
116	987	7	10000	2	1	0	2	0
124	988	7	10000	2	1	0	2	0
137	989	7	10000	2	1	0	2	0
139	990	7	10000	2	1	0	2	0
137	991	7	10000	2	1	0	2	0
143	992	7	10000	2	1	0	2	0
154	993	7	10000	2	1	0	2	0
163	994	7	10000	2	1	0	2	0
162	995	7	10000	2	1	0	2	0
157	996	7	10000	2	1	0	2	0
152	997	7	10000	2	1	0	2	0
146	998	7	10000	2	1	0	2	0
144	999	7	10000	2	1	0	2	0
141	1000	7	10000	2	1	0	2	0
136	1001	7	10000	2	1	0	2	0
17	1	7	10000	3	1	0	3	0
16	2	7	10000	3	1	0	3	0
15	3	7	10000	3	1	0	3	0
15	4	7	10000	3	1	0	3	0
16	5	7	10000	3	1	0	3	0
16	6	7	10000	3	1	0	3	0
18	7	7	10000	3	1	0	3	0
20	8	7	10000	3	1	0	3	0
21	9	7	10000	3	1	0	3	0
21	10	7	10000	3	1	0	3	0
20	11	7	10000	3	1	0	3	0
20	12	7	10000	3	1	0	3	0
20	13	7	10000	3	1	0	3	0
20	14	7	10000	3	1	0	3	0
19	15	7	10000	3	1	0	3	0
19	16	7	10000	3	1	0	3	0
20	17	7	10000	3	1	0	3	0
20	18	7	10000	3	1	0	3	0
20	19	7	10000	3	1	0	3	0
19	20	7	10000	3	1	0	3	0
20	21	7	10000	3	1	0	3	0
20	22	7	10000	3	1	0	3	0
20	23	7	10000	3	1	0	3	0
21	24	7	10000	3	1	0	3	0
20	25	7	10000	3	1	0	3	0
20	26	7	10000	3	1	0	3	0
20	27	7	10000	3	1	0	3	0
19	28	7	10000	3	1	0	3	0
20	29	7	10000	3	1	0	3	0
20	30	7	10000	3	1	0	3	0
19	31	7	10000	3	1	0	3	0
19	32	7	10000	3	1	0	3	0
19	33	7	10000	3	1	0	3	0
18	34	7	10000	3	1	0	3	0
18	35	7	10000	3	1	0	3	0
21	36	7	10000	3	1	0	3	0
23	37	7	10000	3	1	0	3	0
23	38	7	10000	3	1	0	3	0
22	39	7	10000	3	1	0	3	0
22	40	7	10000	3	1	0	3	0
21	41	7	10000	3	1	0	3	0
20	42	7	10000	3	1	0	3	0
19	43	7	10000	3	1	0	3	0
20	44	7	10000	3	1	0	3	0
20	45	7	10000	3	1	0	3	0
19	46	7	10000	3	1	0	3	0
18	47	7	10000	3	1	0	3	0
18	48	7	10000	3	1	0	3	0
18	49	7	10000	3	1	0	3	0
20	50	7	10000	3	1	0	3	0
20	51	7	10000	3	1	0	3	0
20	52	7	10000	3	1	0	3	0
20	53	7	10000	3	1	0	3	0
18	54	7	10000	3	1	0	3	0
17	55	7	10000	3	1	0	3	0
17	56	7	10000	3	1	0	3	0
18	57	7	10000	3	1	0	3	0
19	58	7	10000	3	1	0	3	0
19	59	7	10000	3	1	0	3	0
19	60	7	10000	3	1	0	3	0
19	61	7	10000	3	1	0	3	0
18	62	7	10000	3	1	0	3	0
17	63	7	10000	3	1	0	3	0
18	64	7	10000	3	1	0	3	0
19	65	7	10000	3	1	0	3	0
18	66	7	10000	3	1	0	3	0
18	67	7	10000	3	1	0	3	0
19	68	7	10000	3	1	0	3	0
21	69	7	10000	3	1	0	3	0
22	70	7	10000	3	1	0	3	0
22	71	7	10000	3	1	0	3	0
22	72	7	10000	3	1	0	3	0
22	73	7	10000	3	1	0	3	0
23	74	7	10000	3	1	0	3	0
22	75	7	10000	3	1	0	3	0
23	76	7	10000	3	1	0	3	0
22	77	7	10000	3	1	0	3	0
21	78	7	10000	3	1	0	3	0
22	79	7	10000	3	1	0	3	0
20	80	7	10000	3	1	0	3	0
20	81	7	10000	3	1	0	3	0
21	82	7	10000	3	1	0	3	0
21	83	7	10000	3	1	0	3	0
22	84	7	10000	3	1	0	3	0
23	85	7	10000	3	1	0	3	0
24	86	7	10000	3	1	0	3	0
25	87	7	10000	3	1	0	3	0
24	88	7	10000	3	1	0	3	0
23	89	7	10000	3	1	0	3	0
23	90	7	10000	3	1	0	3	0
24	91	7	10000	3	1	0	3	0
24	92	7	10000	3	1	0	3	0
24	93	7	10000	3	1	0	3	0
22	94	7	10000	3	1	0	3	0
20	95	7	10000	3	1	0	3	0
20	96	7	10000	3	1	0	3	0
21	97	7	10000	3	1	0	3	0
20	98	7	10000	3	1	0	3	0
19	99	7	10000	3	1	0	3	0
19	100	7	10000	3	1	0	3	0
18	101	7	10000	3	1	0	3	0
17	102	7	10000	3	1	0	3	0
16	103	7	10000	3	1	0	3	0
16	104	7	10000	3	1	0	3	0
17	105	7	10000	3	1	0	3	0
16	106	7	10000	3	1	0	3	0
16	107	7	10000	3	1	0	3	0
16	108	7	10000	3	1	0	3	0
15	109	7	10000	3	1	0	3	0
14	110	7	10000	3	1	0	3	0
15	111	7	10000	3	1	0	3	0
16	112	7	10000	3	1	0	3	0
16	113	7	10000	3	1	0	3	0
16	114	7	10000	3	1	0	3	0
17	115	7	10000	3	1	0	3	0
18	116	7	10000	3	1	0	3	0
19	117	7	10000	3	1	0	3	0
19	118	7	10000	3	1	0	3	0
20	119	7	10000	3	1	0	3	0
21	120	7	10000	3	1	0	3	0
20	121	7	10000	3	1	0	3	0
19	122	7	10000	3	1	0	3	0
19	123	7	10000	3	1	0	3	0
20	124	7	10000	3	1	0	3	0
20	125	7	10000	3	1	0	3	0
20	126	7	10000	3	1	0	3	0
20	127	7	10000	3	1	0	3	0
19	128	7	10000	3	1	0	3	0
19	129	7	10000	3	1	0	3	0
18	130	7	10000	3	1	0	3	0
18	131	7	10000	3	1	0	3	0
18	132	7	10000	3	1	0	3	0
20	133	7	10000	3	1	0	3	0
19	134	7	10000	3	1	0	3	0
18	135	7	10000	3	1	0	3	0
17	136	7	10000	3	1	0	3	0
18	137	7	10000	3	1	0	3	0
19	138	7	10000	3	1	0	3	0
20	139	7	10000	3	1	0	3	0
20	140	7	10000	3	1	0	3	0
19	141	7	10000	3	1	0	3	0
20	142	7	10000	3	1	0	3	0
20	143	7	10000	3	1	0	3	0
21	144	7	10000	3	1	0	3	0
24	145	7	10000	3	1	0	3	0
24	146	7	10000	3	1	0	3	0
23	147	7	10000	3	1	0	3	0
22	148	7	10000	3	1	0	3	0
21	149	7	10000	3	1	0	3	0
21	150	7	10000	3	1	0	3	0
21	151	7	10000	3	1	0	3	0
21	152	7	10000	3	1	0	3	0
21	153	7	10000	3	1	0	3	0
20	154	7	10000	3	1	0	3	0
19	155	7	10000	3	1	0	3	0
19	156	7	10000	3	1	0	3	0
19	157	7	10000	3	1	0	3	0
19	158	7	10000	3	1	0	3	0
19	159	7	10000	3	1	0	3	0
19	160	7	10000	3	1	0	3	0
19	161	7	10000	3	1	0	3	0
18	162	7	10000	3	1	0	3	0
18	163	7	10000	3	1	0	3	0
18	164	7	10000	3	1	0	3	0
20	165	7	10000	3	1	0	3	0
21	166	7	10000	3	1	0	3	0
21	167	7	10000	3	1	0	3	0
21	168	7	10000	3	1	0	3	0
22	169	7	10000	3	1	0	3	0
21	170	7	10000	3	1	0	3	0
21	171	7	10000	3	1	0	3	0
21	172	7	10000	3	1	0	3	0
21	173	7	10000	3	1	0	3	0
19	174	7	10000	3	1	0	3	0
18	175	7	10000	3	1	0	3	0
18	176	7	10000	3	1	0	3	0
18	177	7	10000	3	1	0	3	0
19	178	7	10000	3	1	0	3	0
19	179	7	10000	3	1	0	3	0
20	180	7	10000	3	1	0	3	0
20	181	7	10000	3	1	0	3	0
20	182	7	10000	3	1	0	3	0
20	183	7	10000	3	1	0	3	0
20	184	7	10000	3	1	0	3	0
21	185	7	10000	3	1	0	3	0
20	186	7	10000	3	1	0	3	0
19	187	7	10000	3	1	0	3	0
18	188	7	10000	3	1	0	3	0
18	189	7	10000	3	1	0	3	0
17	190	7	10000	3	1	0	3	0
17	191	7	10000	3	1	0	3	0
18	192	7	10000	3	1	0	3	0
17	193	7	10000	3	1	0	3	0
16	194	7	10000	3	1	0	3	0
14	195	7	10000	3	1	0	3	0
15	196	7	10000	3	1	0	3	0
16	197	7	10000	3	1	0	3	0
17	198	7	10000	3	1	0	3	0
17	199	7	10000	3	1	0	3	0
18	200	7	10000	3	1	0	3	0
19	201	7	10000	3	1	0	3	0
18	202	7	10000	3	1	0	3	0
17	203	7	10000	3	1	0	3	0
18	204	7	10000	3	1	0	3	0
18	205	7	10000	3	1	0	3	0
18	206	7	10000	3	1	0	3	0
19	207	7	10000	3	1	0	3	0
20	208	7	10000	3	1	0	3	0
22	209	7	10000	3	1	0	3	0
21	210	7	10000	3	1	0	3	0
21	211	7	10000	3	1	0	3	0
20	212	7	10000	3	1	0	3	0
21	213	7	10000	3	1	0	3	0
20	214	7	10000	3	1	0	3	0
22	215	7	10000	3	1	0	3	0
22	216	7	10000	3	1	0	3	0
25	217	7	10000	3	1	0	3	0
27	218	7	10000	3	1	0	3	0
30	219	7	10000	3	1	0	3	0
30	220	7	10000	3	1	0	3	0
39	221	7	10000	3	1	0	3	0
66	222	7	10000	3	1	0	3	0
88	223	7	10000	3	1	0	3	0
95	224	7	10000	3	1	0	3	0
96	225	7	10000	3	1	0	3	0
105	226	7	10000	3	1	0	3	0
122	227	7	10000	3	1	0	3	0
132	228	7	10000	3	1	0	3	0
130	229	7	10000	3	1	0	3	0
128	230	7	10000	3	1	0	3	0
144	231	7	10000	3	1	0	3	0
155	232	7	10000	3	1	0	3	0
154	233	7	10000	3	1	0	3	0
154	234	7	10000	3	1	0	3	0
149	235	7	10000	3	1	0	3	0
146	236	7	10000	3	1	0	3	0
159	237	7	10000	3	1	0	3	0
179	238	7	10000	3	1	0	3	0
179	239	7	10000	3	1	0	3	0
174	240	7	10000	3	1	0	3	0
168	241	7	10000	3	1	0	3	0
165	242	7	10000	3	1	0	3	0
162	243	7	10000	3	1	0	3	0
164	244	7	10000	3	1	0	3	0
161	245	7	10000	3	1	0	3	0
154	246	7	10000	3	1	0	3	0
149	247	7	10000	3	1	0	3	0
144	248	7	10000	3	1	0	3	0
143	249	7	10000	3	1	0	3	0
143	250	7	10000	3	1	0	3	0
141	251	7	10000	3	1	0	3	0
138	252	7	10000	3	1	0	3	0
141	253	7	10000	3	1	0	3	0
143	254	7	10000	3	1	0	3	0
144	255	7	10000	3	1	0	3	0
155	256	7	10000	3	1	0	3	0
169	257	7	10000	3	1	0	3	0
167	258	7	10000	3	1	0	3	0
164	259	7	10000	3	1	0	3	0
159	260	7	10000	3	1	0	3	0
163	261	7	10000	3	1	0	3	0
164	262	7	10000	3	1	0	3	0
159	263	7	10000	3	1	0	3	0
177	264	7	10000	3	1	0	3	0
188	265	7	10000	3	1	0	3	0
209	266	7	10000	3	1	0	3	0
223	267	7	10000	3	1	0	3	0
221	268	7	10000	3	1	0	3	0
234	269	7	10000	3	1	0	3	0
239	270	7	10000	3	1	0	3	0
230	271	7	10000	3	1	0	3	0
223	272	7	10000	3	1	0	3	0
229	273	7	10000	3	1	0	3	0
225	274	7	10000	3	1	0	3	0
218	275	7	10000	3	1	0	3	0
219	276	7	10000	3	1	0	3	0
218	277	7	10000	3	1	0	3	0
212	278	7	10000	3	1	0	3	0
208	279	7	10000	3	1	0	3	0
210	280	7	10000	3	1	0	3	0
208	281	7	10000	3	1	0	3	0
202	282	7	10000	3	1	0	3	0
197	283	7	10000	3	1	0	3	0
192	284	7	10000	3	1	0	3	0
189	285	7	10000	3	1	0	3	0
182	286	7	10000	3	1	0	3	0
180	287	7	10000	3	1	0	3	0
173	288	7	10000	3	1	0	3	0
171	289	7	10000	3	1	0	3	0
174	290	7	10000	3	1	0	3	0
173	291	7	10000	3	1	0	3	0
170	292	7	10000	3	1	0	3	0
175	293	7	10000	3	1	0	3	0
170	294	7	10000	3	1	0	3	0
175	295	7	10000	3	1	0	3	0
179	296	7	10000	3	1	0	3	0
176	297	7	10000	3	1	0	3	0
171	298	7	10000	3	1	0	3	0
166	299	7	10000	3	1	0	3	0
158	300	7	10000	3	1	0	3	0
153	301	7	10000	3	1	0	3	0
152	302	7	10000	3	1	0	3	0
150	303	7	10000	3	1	0	3	0
146	304	7	10000	3	1	0	3	0
148	305	7	10000	3	1	0	3	0
151	306	7	10000	3	1	0	3	0
153	307	7	10000	3	1	0	3	0
151	308	7	10000	3	1	0	3	0
147	309	7	10000	3	1	0	3	0
142	310	7	10000	3	1	0	3	0
138	311	7	10000	3	1	0	3	0
138	312	7	10000	3	1	0	3	0
135	313	7	10000	3	1	0	3	0
130	314	7	10000	3	1	0	3	0
124	315	7	10000	3	1	0	3	0
119	316	7	10000	3	1	0	3	0
116	317	7	10000	3	1	0	3	0
112	318	7	10000	3	1	0	3	0
109	319	7	10000	3	1	0	3	0
107	320	7	10000	3	1	0	3	0
104	321	7	10000	3	1	0	3	0
104	322	7	10000	3	1	0	3	0
102	323	7	10000	3	1	0	3	0
102	324	7	10000	3	1	0	3	0
98	325	7	10000	3	1	0	3	0
94	326	7	10000	3	1	0	3	0
90	327	7	10000	3	1	0	3	0
88	328	7	10000	3	1	0	3	0
84	329	7	10000	3	1	0	3	0
81	330	7	10000	3	1	0	3	0
78	331	7	10000	3	1	0	3	0
74	332	7	10000	3	1	0	3	0
71	333	7	10000	3	1	0	3	0
69	334	7	10000	3	1	0	3	0
67	335	7	10000	3	1	0	3	0
68	336	7	10000	3	1	0	3	0
69	337	7	10000	3	1	0	3	0
68	338	7	10000	3	1	0	3	0
68	339	7	10000	3	1	0	3	0
68	340	7	10000	3	1	0	3	0
69	341	7	10000	3	1	0	3	0
69	342	7	10000	3	1	0	3	0
69	343	7	10000	3	1	0	3	0
70	344	7	10000	3	1	0	3	0
69	345	7	10000	3	1	0	3	0
67	346	7	10000	3	1	0	3	0
63	347	7	10000	3	1	0	3	0
60	348	7	10000	3	1	0	3	0
58	349	7	10000	3	1	0	3	0
56	350	7	10000	3	1	0	3	0
54	351	7	10000	3	1	0	3	0
54	352	7	10000	3	1	0	3	0
55	353	7	10000	3	1	0	3	0
55	354	7	10000	3	1	0	3	0
54	355	7	10000	3	1	0	3	0
55	356	7	10000	3	1	0	3	0
57	357	7	10000	3	1	0	3	0
57	358	7	10000	3	1	0	3	0
57	359	7	10000	3	1	0	3	0
57	360	7	10000	3	1	0	3	0
54	361	7	10000	3	1	0	3	0
51	362	7	10000	3	1	0	3	0
50	363	7	10000	3	1	0	3	0
49	364	7	10000	3	1	0	3	0
50	365	7	10000	3	1	0	3	0
48	366	7	10000	3	1	0	3	0
46	367	7	10000	3	1	0	3	0
45	368	7	10000	3	1	0	3	0
46	369	7	10000	3	1	0	3	0
46	370	7	10000	3	1	0	3	0
46	371	7	10000	3	1	0	3	0
47	372	7	10000	3	1	0	3	0
47	373	7	10000	3	1	0	3	0
45	374	7	10000	3	1	0	3	0
43	375	7	10000	3	1	0	3	0
41	376	7	10000	3	1	0	3	0
40	377	7	10000	3	1	0	3	0
39	378	7	10000	3	1	0	3	0
37	379	7	10000	3	1	0	3	0
37	380	7	10000	3	1	0	3	0
36	381	7	10000	3	1	0	3	0
35	382	7	10000	3	1	0	3	0
34	383	7	10000	3	1	0	3	0
33	384	7	10000	3	1	0	3	0
33	385	7	10000	3	1	0	3	0
33	386	7	10000	3	1	0	3	0
32	387	7	10000	3	1	0	3	0
32	388	7	10000	3	1	0	3	0
33	389	7	10000	3	1	0	3	0
31	390	7	10000	3	1	0	3	0
31	391	7	10000	3	1	0	3	0
32	392	7	10000	3	1	0	3	0
34	393	7	10000	3	1	0	3	0
35	394	7	10000	3	1	0	3	0
35	395	7	10000	3	1	0	3	0
36	396	7	10000	3	1	0	3	0
35	397	7	10000	3	1	0	3	0
35	398	7	10000	3	1	0	3	0
33	399	7	10000	3	1	0	3	0
32	400	7	10000	3	1	0	3	0
32	401	7	10000	3	1	0	3	0
31	402	7	10000	3	1	0	3	0
31	403	7	10000	3	1	0	3	0
32	404	7	10000	3	1	0	3	0
33	405	7	10000	3	1	0	3	0
34	406	7	10000	3	1	0	3	0
34	407	7	10000	3	1	0	3	0
34	408	7	10000	3	1	0	3	0
33	409	7	10000	3	1	0	3	0
33	410	7	10000	3	1	0	3	0
34	411	7	10000	3	1	0	3	0
34	412	7	10000	3	1	0	3	0
35	413	7	10000	3	1	0	3	0
34	414	7	10000	3	1	0	3	0
34	415	7	10000	3	1	0	3	0
33	416	7	10000	3	1	0	3	0
32	417	7	10000	3	1	0	3	0
32	418	7	10000	3	1	0	3	0
31	419	7	10000	3	1	0	3	0
29	420	7	10000	3	1	0	3	0
28	421	7	10000	3	1	0	3	0
27	422	7	10000	3	1	0	3	0
25	423	7	10000	3	1	0	3	0
25	424	7	10000	3	1	0	3	0
26	425	7	10000	3	1	0	3	0
25	426	7	10000	3	1	0	3	0
24	427	7	10000	3	1	0	3	0
24	428	7	10000	3	1	0	3	0
24	429	7	10000	3	1	0	3	0
24	430	7	10000	3	1	0	3	0
23	431	7	10000	3	1	0	3	0
23	432	7	10000	3	1	0	3	0
26	433	7	10000	3	1	0	3	0
27	434	7	10000	3	1	0	3	0
27	435	7	10000	3	1	0	3	0
27	436	7	10000	3	1	0	3	0
25	437	7	10000	3	1	0	3	0
25	438	7	10000	3	1	0	3	0
25	439	7	10000	3	1	0	3	0
27	440	7	10000	3	1	0	3	0
28	441	7	10000	3	1	0	3	0
28	442	7	10000	3	1	0	3	0
28	443	7	10000	3	1	0	3	0
31	444	7	10000	3	1	0	3	0
31	445	7	10000	3	1	0	3	0
30	446	7	10000	3	1	0	3	0
30	447	7	10000	3	1	0	3	0
28	448	7	10000	3	1	0	3	0
27	449	7	10000	3	1	0	3	0
27	450	7	10000	3	1	0	3	0
26	451	7	10000	3	1	0	3	0
25	452	7	10000	3	1	0	3	0
26	453	7	10000	3	1	0	3	0
25	454	7	10000	3	1	0	3	0
23	455	7	10000	3	1	0	3	0
24	456	7	10000	3	1	0	3	0
24	457	7	10000	3	1	0	3	0
23	458	7	10000	3	1	0	3	0
22	459	7	10000	3	1	0	3	0
21	460	7	10000	3	1	0	3	0
20	461	7	10000	3	1	0	3	0
20	462	7	10000	3	1	0	3	0
19	463	7	10000	3	1	0	3	0
20	464	7	10000	3	1	0	3	0
20	465	7	10000	3	1	0	3	0
19	466	7	10000	3	1	0	3	0
18	467	7	10000	3	1	0	3	0
18	468	7	10000	3	1	0	3	0
18	469	7	10000	3	1	0	3	0
18	470	7	10000	3	1	0	3	0
17	471	7	10000	3	1	0	3	0
18	472	7	10000	3	1	0	3	0
19	473	7	10000	3	1	0	3	0
16	474	7	10000	3	1	0	3	0
15	475	7	10000	3	1	0	3	0
16	476	7	10000	3	1	0	3	0
15	477	7	10000	3	1	0	3	0
15	478	7	10000	3	1	0	3	0
15	479	7	10000	3	1	0	3	0
15	480	7	10000	3	1	0	3	0
17	481	7	10000	3	1	0	3	0
17	482	7	10000	3	1	0	3	0
16	483	7	10000	3	1	0	3	0
17	484	7	10000	3	1	0	3	0
19	485	7	10000	3	1	0	3	0
19	486	7	10000	3	1	0	3	0
19	487	7	10000	3	1	0	3	0
19	488	7	10000	3	1	0	3	0
19	489	7	10000	3	1	0	3	0
18	490	7	10000	3	1	0	3	0
18	491	7	10000	3	1	0	3	0
18	492	7	10000	3	1	0	3	0
18	493	7	10000	3	1	0	3	0
16	494	7	10000	3	1	0	3	0
16	495	7	10000	3	1	0	3	0
17	496	7	10000	3	1	0	3	0
17	497	7	10000	3	1	0	3	0
16	498	7	10000	3	1	0	3	0
16	499	7	10000	3	1	0	3	0
16	500	7	10000	3	1	0	3	0
15	501	7	10000	3	1	0	3	1
15	502	7	10000	3	1	0	3	1
13	503	7	10000	3	1	0	3	1
14	504	7	10000	3	1	0	3	1
16	505	7	10000	3	1	0	3	1
17	506	7	10000	3	1	0	3	1
18	507	7	10000	3	1	0	3	1
17	508	7	10000	3	1	0	3	1
17	509	7	10000	3	1	0	3	1
16	510	7	10000	3	1	0	3	1
17	511	7	10000	3	1	0	3	1
19	512	7	10000	3	1	0	3	1
20	513	7	10000	3	1	0	3	1
20	514	7	10000	3	1	0	3	1
19	515	7	10000	3	1	0	3	1
20	516	7	10000	3	1	0	3	1
22	517	7	10000	3	1	0	3	1
23	518	7	10000	3	1	0	3	1
23	519	7	10000	3	1	0	3	1
23	520	7	10000	3	1	0	3	1
21	521	7	10000	3	1	0	3	1
21	522	7	10000	3	1	0	3	1
20	523	7	10000	3	1	0	3	1
20	524	7	10000	3	1	0	3	1
22	525	7	10000	3	1	0	3	1
20	526	7	10000	3	1	0	3	1
20	527	7	10000	3	1	0	3	1
20	528	7	10000	3	1	0	3	1
19	529	7	10000	3	1	0	3	1
19	530	7	10000	3	1	0	3	1
22	531	7	10000	3	1	0	3	1
22	532	7	10000	3	1	0	3	1
23	533	7	10000	3	1	0	3	1
22	534	7	10000	3	1	0	3	1
20	535	7	10000	3	1	0	3	1
22	536	7	10000	3	1	0	3	1
24	537	7	10000	3	1	0	3	1
23	538	7	10000	3	1	0	3	1
23	539	7	10000	3	1	0	3	1
23	540	7	10000	3	1	0	3	1
23	541	7	10000	3	1	0	3	1
23	542	7	10000	3	1	0	3	1
22	543	7	10000	3	1	0	3	1
23	544	7	10000	3	1	0	3	1
23	545	7	10000	3	1	0	3	1
23	546	7	10000	3	1	0	3	1
23	547	7	10000	3	1	0	3	1
24	548	7	10000	3	1	0	3	1
26	549	7	10000	3	1	0	3	1
28	550	7	10000	3	1	0	3	1
29	551	7	10000	3	1	0	3	0
29	552	7	10000	3	1	0	3	0
30	553	7	10000	3	1	0	3	0
30	554	7	10000	3	1	0	3	0
29	555	7	10000	3	1	0	3	0
29	556	7	10000	3	1	0	3	0
29	557	7	10000	3	1	0	3	0
28	558	7	10000	3	1	0	3	0
26	559	7	10000	3	1	0	3	0
26	560	7	10000	3	1	0	3	0
25	561	7	10000	3	1	0	3	0
25	562	7	10000	3	1	0	3	0
25	563	7	10000	3	1	0	3	0
27	564	7	10000	3	1	0	3	0
27	565	7	10000	3	1	0	3	0
26	566	7	10000	3	1	0	3	0
25	567	7	10000	3	1	0	3	0
24	568	7	10000	3	1	0	3	0
23	569	7	10000	3	1	0	3	0
22	570	7	10000	3	1	0	3	0
22	571	7	10000	3	1	0	3	0
21	572	7	10000	3	1	0	3	0
21	573	7	10000	3	1	0	3	0
20	574	7	10000	3	1	0	3	0
19	575	7	10000	3	1	0	3	0
25	576	7	10000	3	1	0	3	0
33	577	7	10000	3	1	0	3	0
34	578	7	10000	3	1	0	3	0
34	579	7	10000	3	1	0	3	0
35	580	7	10000	3	1	0	3	0
40	581	7	10000	3	1	0	3	0
45	582	7	10000	3	1	0	3	0
69	583	7	10000	3	1	0	3	0
164	584	7	10000	3	1	0	3	0
242	585	7	10000	3	1	0	3	0
282	586	7	10000	3	1	0	3	0
287	587	7	10000	3	1	0	3	0
311	588	7	10000	3	1	0	3	0
375	589	7	10000	3	1	0	3	0
431	590	7	10000	3	1	0	3	0
443	591	7	10000	3	1	0	3	0
430	592	7	10000	3	1	0	3	0
452	593	7	10000	3	1	0	3	0
451	594	7	10000	3	1	0	3	0
470	595	7	10000	3	1	0	3	0
467	596	7	10000	3	1	0	3	0
450	597	7	10000	3	1	0	3	0
448	598	7	10000	3	1	0	3	0
497	599	7	10000	3	1	0	3	0
537	600	7	10000	3	1	0	3	0
569	601	7	10000	3	1	0	3	0
585	602	7	10000	3	1	0	3	0
580	603	7	10000	3	1	0	3	0
595	604	7	10000	3	1	0	3	0
621	605	7	10000	3	1	0	3	0
638	606	7	10000	3	1	0	3	0
675	607	7	10000	3	1	0	3	0
686	608	7	10000	3	1	0	3	0
722	609	7	10000	3	1	0	3	0
742	610	7	10000	3	1	0	3	0
739	611	7	10000	3	1	0	3	0
770	612	7	10000	3	1	0	3	0
809	613	7	10000	3	1	0	3	0
836	614	7	10000	3	1	0	3	0
827	615	7	10000	3	1	0	3	0
800	616	7	10000	3	1	0	3	0
775	617	7	10000	3	1	0	3	0
745	618	7	10000	3	1	0	3	0
728	619	7	10000	3	1	0	3	0
730	620	7	10000	3	1	0	3	0
737	621	7	10000	3	1	0	3	0
736	622	7	10000	3	1	0	3	0
736	623	7	10000	3	1	0	3	0
734	624	7	10000	3	1	0	3	0
731	625	7	10000	3	1	0	3	0
725	626	7	10000	3	1	0	3	0
716	627	7	10000	3	1	0	3	0
706	628	7	10000	3	1	0	3	0
695	629	7	10000	3	1	0	3	0
681	630	7	10000	3	1	0	3	0
669	631	7	10000	3	1	0	3	0
661	632	7	10000	3	1	0	3	0
651	633	7	10000	3	1	0	3	0
631	634	7	10000	3	1	0	3	0
612	635	7	10000	3	1	0	3	0
594	636	7	10000	3	1	0	3	0
573	637	7	10000	3	1	0	3	0
549	638	7	10000	3	1	0	3	0
522	639	7	10000	3	1	0	3	0
500	640	7	10000	3	1	0	3	0
482	641	7	10000	3	1	0	3	0
468	642	7	10000	3	1	0	3	0
457	643	7	10000	3	1	0	3	0
449	644	7	10000	3	1	0	3	0
438	645	7	10000	3	1	0	3	0
429	646	7	10000	3	1	0	3	0
422	647	7	10000	3	1	0	3	0
419	648	7	10000	3	1	0	3	0
418	649	7	10000	3	1	0	3	0
413	650	7	10000	3	1	0	3	0
406	651	7	10000	3	1	0	3	0
396	652	7	10000	3	1	0	3	0
387	653	7	10000	3	1	0	3	0
378	654	7	10000	3	1	0	3	0
371	655	7	10000	3	1	0	3	0
368	656	7	10000	3	1	0	3	0
366	657	7	10000	3	1	0	3	0
363	658	7	10000	3	1	0	3	0
361	659	7	10000	3	1	0	3	0
360	660	7	10000	3	1	0	3	0
363	661	7	10000	3	1	0	3	0
366	662	7	10000	3	1	0	3	0
366	663	7	10000	3	1	0	3	0
367	664	7	10000	3	1	0	3	0
366	665	7	10000	3	1	0	3	0
359	666	7	10000	3	1	0	3	0
352	667	7	10000	3	1	0	3	0
345	668	7	10000	3	1	0	3	0
340	669	7	10000	3	1	0	3	0
333	670	7	10000	3	1	0	3	0
325	671	7	10000	3	1	0	3	0
315	672	7	10000	3	1	0	3	0
305	673	7	10000	3	1	0	3	0
292	674	7	10000	3	1	0	3	0
280	675	7	10000	3	1	0	3	0
271	676	7	10000	3	1	0	3	0
260	677	7	10000	3	1	0	3	0
251	678	7	10000	3	1	0	3	0
244	679	7	10000	3	1	0	3	0
236	680	7	10000	3	1	0	3	0
229	681	7	10000	3	1	0	3	0
224	682	7	10000	3	1	0	3	0
217	683	7	10000	3	1	0	3	0
211	684	7	10000	3	1	0	3	0
202	685	7	10000	3	1	0	3	0
193	686	7	10000	3	1	0	3	0
187	687	7	10000	3	1	0	3	0
180	688	7	10000	3	1	0	3	0
177	689	7	10000	3	1	0	3	0
174	690	7	10000	3	1	0	3	0
171	691	7	10000	3	1	0	3	0
170	692	7	10000	3	1	0	3	0
170	693	7	10000	3	1	0	3	0
168	694	7	10000	3	1	0	3	0
169	695	7	10000	3	1	0	3	0
171	696	7	10000	3	1	0	3	0
170	697	7	10000	3	1	0	3	0
168	698	7	10000	3	1	0	3	0
165	699	7	10000	3	1	0	3	0
161	700	7	10000	3	1	0	3	0
157	701	7	10000	3	1	0	3	0
151	702	7	10000	3	1	0	3	0
143	703	7	10000	3	1	0	3	0
138	704	7	10000	3	1	0	3	0
133	705	7	10000	3	1	0	3	0
129	706	7	10000	3	1	0	3	0
129	707	7	10000	3	1	0	3	0
128	708	7	10000	3	1	0	3	0
129	709	7	10000	3	1	0	3	0
129	710	7	10000	3	1	0	3	0
130	711	7	10000	3	1	0	3	0
131	712	7	10000	3	1	0	3	0
135	713	7	10000	3	1	0	3	0
135	714	7	10000	3	1	0	3	0
136	715	7	10000	3	1	0	3	0
138	716	7	10000	3	1	0	3	0
140	717	7	10000	3	1	0	3	0
140	718	7	10000	3	1	0	3	0
138	719	7	10000	3	1	0	3	0
134	720	7	10000	3	1	0	3	0
129	721	7	10000	3	1	0	3	0
126	722	7	10000	3	1	0	3	0
122	723	7	10000	3	1	0	3	0
123	724	7	10000	3	1	0	3	0
124	725	7	10000	3	1	0	3	0
119	726	7	10000	3	1	0	3	0
115	727	7	10000	3	1	0	3	0
114	728	7	10000	3	1	0	3	0
113	729	7	10000	3	1	0	3	0
113	730	7	10000	3	1	0	3	0
114	731	7	10000	3	1	0	3	0
114	732	7	10000	3	1	0	3	0
114	733	7	10000	3	1	0	3	0
113	734	7	10000	3	1	0	3	0
111	735	7	10000	3	1	0	3	0
108	736	7	10000	3	1	0	3	0
106	737	7	10000	3	1	0	3	0
104	738	7	10000	3	1	0	3	0
101	739	7	10000	3	1	0	3	0
97	740	7	10000	3	1	0	3	0
92	741	7	10000	3	1	0	3	0
89	742	7	10000	3	1	0	3	0
85	743	7	10000	3	1	0	3	0
85	744	7	10000	3	1	0	3	0
83	745	7	10000	3	1	0	3	0
80	746	7	10000	3	1	0	3	0
77	747	7	10000	3	1	0	3	0
73	748	7	10000	3	1	0	3	0
70	749	7	10000	3	1	0	3	0
68	750	7	10000	3	1	0	3	0
66	751	7	10000	3	1	0	3	0
65	752	7	10000	3	1	0	3	0
66	753	7	10000	3	1	0	3	0
65	754	7	10000	3	1	0	3	0
61	755	7	10000	3	1	0	3	0
59	756	7	10000	3	1	0	3	0
58	757	7	10000	3	1	0	3	0
56	758	7	10000	3	1	0	3	0
55	759	7	10000	3	1	0	3	0
56	760	7	10000	3	1	0	3	0
56	761	7	10000	3	1	0	3	0
54	762	7	10000	3	1	0	3	0
52	763	7	10000	3	1	0	3	0
53	764	7	10000	3	1	0	3	0
55	765	7	10000	3	1	0	3	0
55	766	7	10000	3	1	0	3	0
54	767	7	10000	3	1	0	3	0
52	768	7	10000	3	1	0	3	0
49	769	7	10000	3	1	0	3	0
47	770	7	10000	3	1	0	3	0
47	771	7	10000	3	1	0	3	0
48	772	7	10000	3	1	0	3	0
51	773	7	10000	3	1	0	3	0
51	774	7	10000	3	1	0	3	0
52	775	7	10000	3	1	0	3	0
52	776	7	10000	3	1	0	3	0
51	777	7	10000	3	1	0	3	0
49	778	7	10000	3	1	0	3	0
47	779	7	10000	3	1	0	3	0
46	780	7	10000	3	1	0	3	0
45	781	7	10000	3	1	0	3	0
47	782	7	10000	3	1	0	3	0
49	783	7	10000	3	1	0	3	0
52	784	7	10000	3	1	0	3	0
55	785	7	10000	3	1	0	3	0
56	786	7	10000	3	1	0	3	0
56	787	7	10000	3	1	0	3	0
56	788	7	10000	3	1	0	3	0
57	789	7	10000	3	1	0	3	0
55	790	7	10000	3	1	0	3	0
55	791	7	10000	3	1	0	3	0
56	792	7	10000	3	1	0	3	0
60	793	7	10000	3	1	0	3	0
60	794	7	10000	3	1	0	3	0
59	795	7	10000	3	1	0	3	0
58	796	7	10000	3	1	0	3	0
57	797	7	10000	3	1	0	3	0
56	798	7	10000	3	1	0	3	0
55	799	7	10000	3	1	0	3	0
54	800	7	10000	3	1	0	3	0
54	801	7	10000	3	1	0	3	0
53	802	7	10000	3	1	0	3	0
51	803	7	10000	3	1	0	3	0
53	804	7	10000	3	1	0	3	0
54	805	7	10000	3	1	0	3	0
53	806	7	10000	3	1	0	3	0
52	807	7	10000	3	1	0	3	0
51	808	7	10000	3	1	0	3	0
50	809	7	10000	3	1	0	3	0
49	810	7	10000	3	1	0	3	0
49	811	7	10000	3	1	0	3	0
49	812	7	10000	3	1	0	3	0
50	813	7	10000	3	1	0	3	0
51	814	7	10000	3	1	0	3	0
50	815	7	10000	3	1	0	3	0
49	816	7	10000	3	1	0	3	0
51	817	7	10000	3	1	0	3	0
56	818	7	10000	3	1	0	3	0
56	819	7	10000	3	1	0	3	0
56	820	7	10000	3	1	0	3	0
60	821	7	10000	3	1	0	3	0
65	822	7	10000	3	1	0	3	0
69	823	7	10000	3	1	0	3	0
69	824	7	10000	3	1	0	3	0
68	825	7	10000	3	1	0	3	0
65	826	7	10000	3	1	0	3	0
62	827	7	10000	3	1	0	3	0
59	828	7	10000	3	1	0	3	0
61	829	7	10000	3	1	0	3	0
70	830	7	10000	3	1	0	3	0
81	831	7	10000	3	1	0	3	0
85	832	7	10000	3	1	0	3	0
84	833	7	10000	3	1	0	3	0
80	834	7	10000	3	1	0	3	0
80	835	7	10000	3	1	0	3	0
85	836	7	10000	3	1	0	3	0
88	837	7	10000	3	1	0	3	0
92	838	7	10000	3	1	0	3	0
92	839	7	10000	3	1	0	3	0
92	840	7	10000	3	1	0	3	0
92	841	7	10000	3	1	0	3	0
87	842	7	10000	3	1	0	3	0
83	843	7	10000	3	1	0	3	0
81	844	7	10000	3	1	0	3	0
79	845	7	10000	3	1	0	3	0
78	846	7	10000	3	1	0	3	0
77	847	7	10000	3	1	0	3	0
75	848	7	10000	3	1	0	3	0
72	849	7	10000	3	1	0	3	0
70	850	7	10000	3	1	0	3	0
67	851	7	10000	3	1	0	3	0
65	852	7	10000	3	1	0	3	0
63	853	7	10000	3	1	0	3	0
59	854	7	10000	3	1	0	3	0
60	855	7	10000	3	1	0	3	0
64	856	7	10000	3	1	0	3	0
66	857	7	10000	3	1	0	3	0
68	858	7	10000	3	1	0	3	0
66	859	7	10000	3	1	0	3	0
63	860	7	10000	3	1	0	3	0
60	861	7	10000	3	1	0	3	0
58	862	7	10000	3	1	0	3	0
58	863	7	10000	3	1	0	3	0
60	864	7	10000	3	1	0	3	0
60	865	7	10000	3	1	0	3	0
59	866	7	10000	3	1	0	3	0
58	867	7	10000	3	1	0	3	0
57	868	7	10000	3	1	0	3	0
56	869	7	10000	3	1	0	3	0
57	870	7	10000	3	1	0	3	0
56	871	7	10000	3	1	0	3	0
55	872	7	10000	3	1	0	3	0
54	873	7	10000	3	1	0	3	0
51	874	7	10000	3	1	0	3	0
53	875	7	10000	3	1	0	3	0
57	876	7	10000	3	1	0	3	0
62	877	7	10000	3	1	0	3	0
66	878	7	10000	3	1	0	3	0
67	879	7	10000	3	1	0	3	0
65	880	7	10000	3	1	0	3	0
64	881	7	10000	3	1	0	3	0
65	882	7	10000	3	1	0	3	0
67	883	7	10000	3	1	0	3	0
68	884	7	10000	3	1	0	3	0
68	885	7	10000	3	1	0	3	0
64	886	7	10000	3	1	0	3	0
63	887	7	10000	3	1	0	3	0
62	888	7	10000	3	1	0	3	0
62	889	7	10000	3	1	0	3	0
62	890	7	10000	3	1	0	3	0
61	891	7	10000	3	1	0	3	0
61	892	7	10000	3	1	0	3	0
61	893	7	10000	3	1	0	3	0
57	894	7	10000	3	1	0	3	0
55	895	7	10000	3	1	0	3	0
54	896	7	10000	3	1	0	3	0
53	897	7	10000	3	1	0	3	0
56	898	7	10000	3	1	0	3	0
61	899	7	10000	3	1	0	3	0
62	900	7	10000	3	1	0	3	0
62	901	7	10000	3	1	0	3	0
61	902	7	10000	3	1	0	3	0
58	903	7	10000	3	1	0	3	0
61	904	7	10000	3	1	0	3	0
65	905	7	10000	3	1	0	3	0
66	906	7	10000	3	1	0	3	0
64	907	7	10000	3	1	0	3	0
63	908	7	10000	3	1	0	3	0
65	909	7	10000	3	1	0	3	0
67	910	7	10000	3	1	0	3	0
69	911	7	10000	3	1	0	3	0
70	912	7	10000	3	1	0	3	0
70	913	7	10000	3	1	0	3	0
69	914	7	10000	3	1	0	3	0
69	915	7	10000	3	1	0	3	0
70	916	7	10000	3	1	0	3	0
70	917	7	10000	3	1	0	3	0
68	918	7	10000	3	1	0	3	0
69	919	7	10000	3	1	0	3	0
72	920	7	10000	3	1	0	3	0
71	921	7	10000	3	1	0	3	0
74	922	7	10000	3	1	0	3	0
87	923	7	10000	3	1	0	3	0
103	924	7	10000	3	1	0	3	0
108	925	7	10000	3	1	0	3	0
104	926	7	10000	3	1	0	3	0
108	927	7	10000	3	1	0	3	0
116	928	7	10000	3	1	0	3	0
121	929	7	10000	3	1	0	3	0
122	930	7	10000	3	1	0	3	0
121	931	7	10000	3	1	0	3	0
117	932	7	10000	3	1	0	3	0
116	933	7	10000	3	1	0	3	0
112	934	7	10000	3	1	0	3	0
110	935	7	10000	3	1	0	3	0
111	936	7	10000	3	1	0	3	0
111	937	7	10000	3	1	0	3	0
109	938	7	10000	3	1	0	3	0
107	939	7	10000	3	1	0	3	0
103	940	7	10000	3	1	0	3	0
100	941	7	10000	3	1	0	3	0
98	942	7	10000	3	1	0	3	0
96	943	7	10000	3	1	0	3	0
99	944	7	10000	3	1	0	3	0
103	945	7	10000	3	1	0	3	0
106	946	7	10000	3	1	0	3	0
110	947	7	10000	3	1	0	3	0
114	948	7	10000	3	1	0	3	0
114	949	7	10000	3	1	0	3	0
111	950	7	10000	3	1	0	3	0
116	951	7	10000	3	1	0	3	0
123	952	7	10000	3	1	0	3	0
128	953	7	10000	3	1	0	3	0
128	954	7	10000	3	1	0	3	0
128	955	7	10000	3	1	0	3	0
124	956	7	10000	3	1	0	3	0
120	957	7	10000	3	1	0	3	0
115	958	7	10000	3	1	0	3	0
110	959	7	10000	3	1	0	3	0
107	960	7	10000	3	1	0	3	0
103	961	7	10000	3	1	0	3	0
98	962	7	10000	3	1	0	3	0
94	963	7	10000	3	1	0	3	0
92	964	7	10000	3	1	0	3	0
93	965	7	10000	3	1	0	3	0
95	966	7	10000	3	1	0	3	0
99	967	7	10000	3	1	0	3	0
104	968	7	10000	3	1	0	3	0
107	969	7	10000	3	1	0	3	0
104	970	7	10000	3	1	0	3	0
103	971	7	10000	3	1	0	3	0
100	972	7	10000	3	1	0	3	0
97	973	7	10000	3	1	0	3	0
95	974	7	10000	3	1	0	3	0
94	975	7	10000	3	1	0	3	0
92	976	7	10000	3	1	0	3	0
90	977	7	10000	3	1	0	3	0
88	978	7	10000	3	1	0	3	0
85	979	7	10000	3	1	0	3	0
84	980	7	10000	3	1	0	3	0
80	981	7	10000	3	1	0	3	0
78	982	7	10000	3	1	0	3	0
76	983	7	10000	3	1	0	3	0
76	984	7	10000	3	1	0	3	0
75	985	7	10000	3	1	0	3	0
73	986	7	10000	3	1	0	3	0
75	987	7	10000	3	1	0	3	0
77	988	7	10000	3	1	0	3	0
78	989	7	10000	3	1	0	3	0
78	990	7	10000	3	1	0	3	0
78	991	7	10000	3	1	0	3	0
77	992	7	10000	3	1	0	3	0
80	993	7	10000	3	1	0	3	0
81	994	7	10000	3	1	0	3	0
84	995	7	10000	3	1	0	3	0
84	996	7	10000	3	1	0	3	0
82	997	7	10000	3	1	0	3	0
83	998	7	10000	3	1	0	3	0
80	999	7	10000	3	1	0	3	0
79	1000	7	10000	3	1	0	3	0
21	2	0	10000	4	1	0	4	0
20	3	0	10000	4	1	0	4	0
20	4	0	10000	4	1	0	4	0
20	5	0	10000	4	1	0	4	0
18	6	0	10000	4	1	0	4	0
16	7	0	10000	4	1	0	4	0
17	8	0	10000	4	1	0	4	0
18	9	0	10000	4	1	0	4	0
18	10	0	10000	4	1	0	4	0
18	11	0	10000	4	1	0	4	0
17	12	0	10000	4	1	0	4	0
17	13	0	10000	4	1	0	4	0
16	14	0	10000	4	1	0	4	0
15	15	0	10000	4	1	0	4	0
16	16	0	10000	4	1	0	4	0
17	17	0	10000	4	1	0	4	0
17	18	0	10000	4	1	0	4	0
16	19	0	10000	4	1	0	4	0
17	20	0	10000	4	1	0	4	0
17	21	0	10000	4	1	0	4	0
17	22	0	10000	4	1	0	4	0
17	23	0	10000	4	1	0	4	0
17	24	0	10000	4	1	0	4	0
17	25	0	10000	4	1	0	4	0
16	26	0	10000	4	1	0	4	0
15	27	0	10000	4	1	0	4	0
17	28	0	10000	4	1	0	4	0
17	29	0	10000	4	1	0	4	0
17	30	0	10000	4	1	0	4	0
17	31	0	10000	4	1	0	4	0
16	32	0	10000	4	1	0	4	0
16	33	0	10000	4	1	0	4	0
15	34	0	10000	4	1	0	4	0
15	35	0	10000	4	1	0	4	0
15	36	0	10000	4	1	0	4	0
16	37	0	10000	4	1	0	4	0
16	38	0	10000	4	1	0	4	0
15	39	0	10000	4	1	0	4	0
15	40	0	10000	4	1	0	4	0
14	41	0	10000	4	1	0	4	0
14	42	0	10000	4	1	0	4	0
14	43	0	10000	4	1	0	4	0
14	44	0	10000	4	1	0	4	0
14	45	0	10000	4	1	0	4	0
13	46	0	10000	4	1	0	4	0
12	47	0	10000	4	1	0	4	0
13	48	0	10000	4	1	0	4	0
15	49	0	10000	4	1	0	4	0
14	50	0	10000	4	1	0	4	0
13	51	0	10000	4	1	0	4	0
13	52	0	10000	4	1	0	4	0
12	53	0	10000	4	1	0	4	0
13	54	0	10000	4	1	0	4	0
12	55	0	10000	4	1	0	4	0
13	56	0	10000	4	1	0	4	0
14	57	0	10000	4	1	0	4	0
12	58	0	10000	4	1	0	4	0
11	59	0	10000	4	1	0	4	0
12	60	0	10000	4	1	0	4	0
11	61	0	10000	4	1	0	4	0
11	62	0	10000	4	1	0	4	0
11	63	0	10000	4	1	0	4	0
11	64	0	10000	4	1	0	4	0
11	65	0	10000	4	1	0	4	0
12	66	0	10000	4	1	0	4	0
11	67	0	10000	4	1	0	4	0
11	68	0	10000	4	1	0	4	0
13	69	0	10000	4	1	0	4	0
13	70	0	10000	4	1	0	4	0
12	71	0	10000	4	1	0	4	0
15	72	0	10000	4	1	0	4	0
18	73	0	10000	4	1	0	4	0
20	74	0	10000	4	1	0	4	0
20	75	0	10000	4	1	0	4	0
21	76	0	10000	4	1	0	4	0
23	77	0	10000	4	1	0	4	0
24	78	0	10000	4	1	0	4	0
22	79	0	10000	4	1	0	4	0
24	80	0	10000	4	1	0	4	0
25	81	0	10000	4	1	0	4	0
26	82	0	10000	4	1	0	4	0
24	83	0	10000	4	1	0	4	0
25	84	0	10000	4	1	0	4	0
27	85	0	10000	4	1	0	4	0
27	86	0	10000	4	1	0	4	0
26	87	0	10000	4	1	0	4	0
27	88	0	10000	4	1	0	4	0
28	89	0	10000	4	1	0	4	0
25	90	0	10000	4	1	0	4	0
24	91	0	10000	4	1	0	4	0
24	92	0	10000	4	1	0	4	0
23	93	0	10000	4	1	0	4	0
21	94	0	10000	4	1	0	4	0
22	95	0	10000	4	1	0	4	0
22	96	0	10000	4	1	0	4	0
23	97	0	10000	4	1	0	4	0
22	98	0	10000	4	1	0	4	0
21	99	0	10000	4	1	0	4	0
22	100	0	10000	4	1	0	4	0
23	101	0	10000	4	1	0	4	0
24	102	0	10000	4	1	0	4	0
24	103	0	10000	4	1	0	4	0
24	104	0	10000	4	1	0	4	0
22	105	0	10000	4	1	0	4	0
22	106	0	10000	4	1	0	4	0
22	107	0	10000	4	1	0	4	0
21	108	0	10000	4	1	0	4	0
22	109	0	10000	4	1	0	4	0
22	110	0	10000	4	1	0	4	0
22	111	0	10000	4	1	0	4	0
24	112	0	10000	4	1	0	4	0
25	113	0	10000	4	1	0	4	0
25	114	0	10000	4	1	0	4	0
24	115	0	10000	4	1	0	4	0
23	116	0	10000	4	1	0	4	0
23	117	0	10000	4	1	0	4	0
24	118	0	10000	4	1	0	4	0
22	119	0	10000	4	1	0	4	0
23	120	0	10000	4	1	0	4	0
25	121	0	10000	4	1	0	4	0
23	122	0	10000	4	1	0	4	0
22	123	0	10000	4	1	0	4	0
22	124	0	10000	4	1	0	4	0
20	125	0	10000	4	1	0	4	0
19	126	0	10000	4	1	0	4	0
19	127	0	10000	4	1	0	4	0
20	128	0	10000	4	1	0	4	0
23	129	0	10000	4	1	0	4	0
23	130	0	10000	4	1	0	4	0
23	131	0	10000	4	1	0	4	0
22	132	0	10000	4	1	0	4	0
24	133	0	10000	4	1	0	4	0
25	134	0	10000	4	1	0	4	0
25	135	0	10000	4	1	0	4	0
24	136	0	10000	4	1	0	4	0
24	137	0	10000	4	1	0	4	0
21	138	0	10000	4	1	0	4	0
19	139	0	10000	4	1	0	4	0
20	140	0	10000	4	1	0	4	0
20	141	0	10000	4	1	0	4	0
20	142	0	10000	4	1	0	4	0
19	143	0	10000	4	1	0	4	0
20	144	0	10000	4	1	0	4	0
18	145	0	10000	4	1	0	4	0
18	146	0	10000	4	1	0	4	0
18	147	0	10000	4	1	0	4	0
18	148	0	10000	4	1	0	4	0
19	149	0	10000	4	1	0	4	0
18	150	0	10000	4	1	0	4	0
17	151	0	10000	4	1	0	4	0
17	152	0	10000	4	1	0	4	0
19	153	0	10000	4	1	0	4	0
19	154	0	10000	4	1	0	4	0
19	155	0	10000	4	1	0	4	0
19	156	0	10000	4	1	0	4	0
20	157	0	10000	4	1	0	4	0
21	158	0	10000	4	1	0	4	0
20	159	0	10000	4	1	0	4	0
21	160	0	10000	4	1	0	4	0
21	161	0	10000	4	1	0	4	0
21	162	0	10000	4	1	0	4	0
20	163	0	10000	4	1	0	4	0
19	164	0	10000	4	1	0	4	0
19	165	0	10000	4	1	0	4	0
18	166	0	10000	4	1	0	4	0
17	167	0	10000	4	1	0	4	0
17	168	0	10000	4	1	0	4	0
18	169	0	10000	4	1	0	4	0
18	170	0	10000	4	1	0	4	0
18	171	0	10000	4	1	0	4	0
17	172	0	10000	4	1	0	4	0
17	173	0	10000	4	1	0	4	0
16	174	0	10000	4	1	0	4	0
16	175	0	10000	4	1	0	4	0
17	176	0	10000	4	1	0	4	0
17	177	0	10000	4	1	0	4	0
16	178	0	10000	4	1	0	4	0
15	179	0	10000	4	1	0	4	0
16	180	0	10000	4	1	0	4	0
15	181	0	10000	4	1	0	4	0
16	182	0	10000	4	1	0	4	0
17	183	0	10000	4	1	0	4	0
17	184	0	10000	4	1	0	4	0
17	185	0	10000	4	1	0	4	0
16	186	0	10000	4	1	0	4	0
15	187	0	10000	4	1	0	4	0
15	188	0	10000	4	1	0	4	0
17	189	0	10000	4	1	0	4	0
16	190	0	10000	4	1	0	4	0
17	191	0	10000	4	1	0	4	0
17	192	0	10000	4	1	0	4	0
17	193	0	10000	4	1	0	4	0
16	194	0	10000	4	1	0	4	0
17	195	0	10000	4	1	0	4	0
18	196	0	10000	4	1	0	4	0
20	197	0	10000	4	1	0	4	0
23	198	0	10000	4	1	0	4	0
23	199	0	10000	4	1	0	4	0
24	200	0	10000	4	1	0	4	0
25	201	0	10000	4	1	0	4	0
26	202	0	10000	4	1	0	4	0
26	203	0	10000	4	1	0	4	0
26	204	0	10000	4	1	0	4	0
26	205	0	10000	4	1	0	4	0
24	206	0	10000	4	1	0	4	0
24	207	0	10000	4	1	0	4	0
25	208	0	10000	4	1	0	4	0
26	209	0	10000	4	1	0	4	0
26	210	0	10000	4	1	0	4	0
27	211	0	10000	4	1	0	4	0
27	212	0	10000	4	1	0	4	0
28	213	0	10000	4	1	0	4	0
27	214	0	10000	4	1	0	4	0
26	215	0	10000	4	1	0	4	0
25	216	0	10000	4	1	0	4	0
25	217	0	10000	4	1	0	4	0
25	218	0	10000	4	1	0	4	0
23	219	0	10000	4	1	0	4	0
24	220	0	10000	4	1	0	4	0
23	221	0	10000	4	1	0	4	0
23	222	0	10000	4	1	0	4	0
22	223	0	10000	4	1	0	4	0
21	224	0	10000	4	1	0	4	0
22	225	0	10000	4	1	0	4	0
22	226	0	10000	4	1	0	4	0
22	227	0	10000	4	1	0	4	0
22	228	0	10000	4	1	0	4	0
23	229	0	10000	4	1	0	4	0
22	230	0	10000	4	1	0	4	0
21	231	0	10000	4	1	0	4	0
20	232	0	10000	4	1	0	4	0
19	233	0	10000	4	1	0	4	0
20	234	0	10000	4	1	0	4	0
18	235	0	10000	4	1	0	4	0
18	236	0	10000	4	1	0	4	0
19	237	0	10000	4	1	0	4	0
17	238	0	10000	4	1	0	4	0
15	239	0	10000	4	1	0	4	0
16	240	0	10000	4	1	0	4	0
16	241	0	10000	4	1	0	4	0
17	242	0	10000	4	1	0	4	0
18	243	0	10000	4	1	0	4	0
18	244	0	10000	4	1	0	4	0
18	245	0	10000	4	1	0	4	0
18	246	0	10000	4	1	0	4	0
17	247	0	10000	4	1	0	4	0
17	248	0	10000	4	1	0	4	0
18	249	0	10000	4	1	0	4	0
17	250	0	10000	4	1	0	4	0
18	251	0	10000	4	1	0	4	0
18	252	0	10000	4	1	0	4	0
18	253	0	10000	4	1	0	4	0
17	254	0	10000	4	1	0	4	0
17	255	0	10000	4	1	0	4	0
18	256	0	10000	4	1	0	4	0
19	257	0	10000	4	1	0	4	0
19	258	0	10000	4	1	0	4	0
17	259	0	10000	4	1	0	4	0
18	260	0	10000	4	1	0	4	0
17	261	0	10000	4	1	0	4	0
17	262	0	10000	4	1	0	4	0
17	263	0	10000	4	1	0	4	0
16	264	0	10000	4	1	0	4	0
15	265	0	10000	4	1	0	4	0
15	266	0	10000	4	1	0	4	0
14	267	0	10000	4	1	0	4	0
16	268	0	10000	4	1	0	4	0
18	269	0	10000	4	1	0	4	0
17	270	0	10000	4	1	0	4	0
16	271	0	10000	4	1	0	4	0
16	272	0	10000	4	1	0	4	0
16	273	0	10000	4	1	0	4	0
16	274	0	10000	4	1	0	4	0
15	275	0	10000	4	1	0	4	0
15	276	0	10000	4	1	0	4	0
16	277	0	10000	4	1	0	4	0
15	278	0	10000	4	1	0	4	0
14	279	0	10000	4	1	0	4	0
14	280	0	10000	4	1	0	4	0
14	281	0	10000	4	1	0	4	0
14	282	0	10000	4	1	0	4	0
14	283	0	10000	4	1	0	4	0
14	284	0	10000	4	1	0	4	0
14	285	0	10000	4	1	0	4	0
13	286	0	10000	4	1	0	4	0
13	287	0	10000	4	1	0	4	0
12	288	0	10000	4	1	0	4	0
14	289	0	10000	4	1	0	4	0
13	290	0	10000	4	1	0	4	0
13	291	0	10000	4	1	0	4	0
13	292	0	10000	4	1	0	4	0
13	293	0	10000	4	1	0	4	0
13	294	0	10000	4	1	0	4	0
14	295	0	10000	4	1	0	4	0
14	296	0	10000	4	1	0	4	0
15	297	0	10000	4	1	0	4	0
15	298	0	10000	4	1	0	4	0
13	299	0	10000	4	1	0	4	0
14	300	0	10000	4	1	0	4	0
14	301	0	10000	4	1	0	4	0
14	302	0	10000	4	1	0	4	0
13	303	0	10000	4	1	0	4	0
15	304	0	10000	4	1	0	4	0
16	305	0	10000	4	1	0	4	0
16	306	0	10000	4	1	0	4	0
15	307	0	10000	4	1	0	4	0
16	308	0	10000	4	1	0	4	0
18	309	0	10000	4	1	0	4	0
18	310	0	10000	4	1	0	4	0
19	311	0	10000	4	1	0	4	0
18	312	0	10000	4	1	0	4	0
17	313	0	10000	4	1	0	4	0
17	314	0	10000	4	1	0	4	0
16	315	0	10000	4	1	0	4	0
17	316	0	10000	4	1	0	4	0
19	317	0	10000	4	1	0	4	0
18	318	0	10000	4	1	0	4	0
16	319	0	10000	4	1	0	4	0
16	320	0	10000	4	1	0	4	0
17	321	0	10000	4	1	0	4	0
17	322	0	10000	4	1	0	4	0
17	323	0	10000	4	1	0	4	0
17	324	0	10000	4	1	0	4	0
17	325	0	10000	4	1	0	4	0
16	326	0	10000	4	1	0	4	0
16	327	0	10000	4	1	0	4	0
16	328	0	10000	4	1	0	4	0
18	329	0	10000	4	1	0	4	0
17	330	0	10000	4	1	0	4	0
17	331	0	10000	4	1	0	4	0
16	332	0	10000	4	1	0	4	0
15	333	0	10000	4	1	0	4	0
15	334	0	10000	4	1	0	4	0
15	335	0	10000	4	1	0	4	0
16	336	0	10000	4	1	0	4	0
16	337	0	10000	4	1	0	4	0
15	338	0	10000	4	1	0	4	0
13	339	0	10000	4	1	0	4	0
13	340	0	10000	4	1	0	4	0
15	341	0	10000	4	1	0	4	0
17	342	0	10000	4	1	0	4	0
19	343	0	10000	4	1	0	4	0
22	344	0	10000	4	1	0	4	0
23	345	0	10000	4	1	0	4	0
23	346	0	10000	4	1	0	4	0
23	347	0	10000	4	1	0	4	0
23	348	0	10000	4	1	0	4	0
25	349	0	10000	4	1	0	4	0
24	350	0	10000	4	1	0	4	0
24	351	0	10000	4	1	0	4	0
24	352	0	10000	4	1	0	4	0
25	353	0	10000	4	1	0	4	0
26	354	0	10000	4	1	0	4	0
25	355	0	10000	4	1	0	4	0
27	356	0	10000	4	1	0	4	0
32	357	0	10000	4	1	0	4	0
37	358	0	10000	4	1	0	4	0
37	359	0	10000	4	1	0	4	0
39	360	0	10000	4	1	0	4	0
41	361	0	10000	4	1	0	4	0
44	362	0	10000	4	1	0	4	0
45	363	0	10000	4	1	0	4	0
44	364	0	10000	4	1	0	4	0
45	365	0	10000	4	1	0	4	0
48	366	0	10000	4	1	0	4	0
46	367	0	10000	4	1	0	4	0
51	368	0	10000	4	1	0	4	0
64	369	0	10000	4	1	0	4	0
90	370	0	10000	4	1	0	4	0
111	371	0	10000	4	1	0	4	0
115	372	0	10000	4	1	0	4	0
117	373	0	10000	4	1	0	4	0
134	374	0	10000	4	1	0	4	0
153	375	0	10000	4	1	0	4	0
157	376	0	10000	4	1	0	4	0
160	377	0	10000	4	1	0	4	0
179	378	0	10000	4	1	0	4	0
190	379	0	10000	4	1	0	4	0
195	380	0	10000	4	1	0	4	0
216	381	0	10000	4	1	0	4	0
234	382	0	10000	4	1	0	4	0
246	383	0	10000	4	1	0	4	0
252	384	0	10000	4	1	0	4	0
250	385	0	10000	4	1	0	4	0
243	386	0	10000	4	1	0	4	0
231	387	0	10000	4	1	0	4	0
225	388	0	10000	4	1	0	4	0
223	389	0	10000	4	1	0	4	0
234	390	0	10000	4	1	0	4	0
266	391	0	10000	4	1	0	4	0
274	392	0	10000	4	1	0	4	0
270	393	0	10000	4	1	0	4	0
265	394	0	10000	4	1	0	4	0
254	395	0	10000	4	1	0	4	0
245	396	0	10000	4	1	0	4	0
240	397	0	10000	4	1	0	4	0
236	398	0	10000	4	1	0	4	0
234	399	0	10000	4	1	0	4	0
232	400	0	10000	4	1	0	4	0
225	401	0	10000	4	1	0	4	0
215	402	0	10000	4	1	0	4	0
208	403	0	10000	4	1	0	4	0
204	404	0	10000	4	1	0	4	0
204	405	0	10000	4	1	0	4	0
208	406	0	10000	4	1	0	4	0
212	407	0	10000	4	1	0	4	0
226	408	0	10000	4	1	0	4	0
237	409	0	10000	4	1	0	4	0
234	410	0	10000	4	1	0	4	0
229	411	0	10000	4	1	0	4	0
229	412	0	10000	4	1	0	4	0
221	413	0	10000	4	1	0	4	0
213	414	0	10000	4	1	0	4	0
211	415	0	10000	4	1	0	4	0
210	416	0	10000	4	1	0	4	0
208	417	0	10000	4	1	0	4	0
200	418	0	10000	4	1	0	4	0
198	419	0	10000	4	1	0	4	0
196	420	0	10000	4	1	0	4	0
189	421	0	10000	4	1	0	4	0
180	422	0	10000	4	1	0	4	0
173	423	0	10000	4	1	0	4	0
169	424	0	10000	4	1	0	4	0
165	425	0	10000	4	1	0	4	0
160	426	0	10000	4	1	0	4	0
152	427	0	10000	4	1	0	4	0
149	428	0	10000	4	1	0	4	0
150	429	0	10000	4	1	0	4	0
144	430	0	10000	4	1	0	4	0
143	431	0	10000	4	1	0	4	0
144	432	0	10000	4	1	0	4	0
146	433	0	10000	4	1	0	4	0
145	434	0	10000	4	1	0	4	0
141	435	0	10000	4	1	0	4	0
137	436	0	10000	4	1	0	4	0
132	437	0	10000	4	1	0	4	0
127	438	0	10000	4	1	0	4	0
122	439	0	10000	4	1	0	4	0
118	440	0	10000	4	1	0	4	0
113	441	0	10000	4	1	0	4	0
108	442	0	10000	4	1	0	4	0
104	443	0	10000	4	1	0	4	0
101	444	0	10000	4	1	0	4	0
96	445	0	10000	4	1	0	4	0
94	446	0	10000	4	1	0	4	0
93	447	0	10000	4	1	0	4	0
95	448	0	10000	4	1	0	4	0
97	449	0	10000	4	1	0	4	0
97	450	0	10000	4	1	0	4	0
97	451	0	10000	4	1	0	4	0
96	452	0	10000	4	1	0	4	0
92	453	0	10000	4	1	0	4	0
88	454	0	10000	4	1	0	4	0
86	455	0	10000	4	1	0	4	0
84	456	0	10000	4	1	0	4	0
82	457	0	10000	4	1	0	4	0
79	458	0	10000	4	1	0	4	0
74	459	0	10000	4	1	0	4	0
72	460	0	10000	4	1	0	4	0
71	461	0	10000	4	1	0	4	0
69	462	0	10000	4	1	0	4	0
67	463	0	10000	4	1	0	4	0
64	464	0	10000	4	1	0	4	0
62	465	0	10000	4	1	0	4	0
61	466	0	10000	4	1	0	4	0
60	467	0	10000	4	1	0	4	0
61	468	0	10000	4	1	0	4	0
65	469	0	10000	4	1	0	4	0
65	470	0	10000	4	1	0	4	0
66	471	0	10000	4	1	0	4	0
68	472	0	10000	4	1	0	4	0
68	473	0	10000	4	1	0	4	0
70	474	0	10000	4	1	0	4	0
71	475	0	10000	4	1	0	4	0
69	476	0	10000	4	1	0	4	0
68	477	0	10000	4	1	0	4	0
65	478	0	10000	4	1	0	4	0
62	479	0	10000	4	1	0	4	0
61	480	0	10000	4	1	0	4	0
61	481	0	10000	4	1	0	4	0
62	482	0	10000	4	1	0	4	0
63	483	0	10000	4	1	0	4	0
65	484	0	10000	4	1	0	4	0
67	485	0	10000	4	1	0	4	0
69	486	0	10000	4	1	0	4	0
70	487	0	10000	4	1	0	4	0
72	488	0	10000	4	1	0	4	0
74	489	0	10000	4	1	0	4	0
74	490	0	10000	4	1	0	4	0
73	491	0	10000	4	1	0	4	0
69	492	0	10000	4	1	0	4	0
66	493	0	10000	4	1	0	4	0
64	494	0	10000	4	1	0	4	0
62	495	0	10000	4	1	0	4	0
61	496	0	10000	4	1	0	4	0
60	497	0	10000	4	1	0	4	0
58	498	0	10000	4	1	0	4	0
54	499	0	10000	4	1	0	4	0
53	500	0	10000	4	1	0	4	0
54	501	0	10000	4	1	0	4	0
52	502	0	10000	4	1	0	4	1
51	503	0	10000	4	1	0	4	1
49	504	0	10000	4	1	0	4	1
46	505	0	10000	4	1	0	4	1
46	506	0	10000	4	1	0	4	1
45	507	0	10000	4	1	0	4	1
45	508	0	10000	4	1	0	4	1
47	509	0	10000	4	1	0	4	1
48	510	0	10000	4	1	0	4	1
46	511	0	10000	4	1	0	4	1
44	512	0	10000	4	1	0	4	1
42	513	0	10000	4	1	0	4	1
40	514	0	10000	4	1	0	4	1
40	515	0	10000	4	1	0	4	1
40	516	0	10000	4	1	0	4	1
40	517	0	10000	4	1	0	4	1
39	518	0	10000	4	1	0	4	1
37	519	0	10000	4	1	0	4	1
37	520	0	10000	4	1	0	4	1
38	521	0	10000	4	1	0	4	1
40	522	0	10000	4	1	0	4	1
42	523	0	10000	4	1	0	4	1
43	524	0	10000	4	1	0	4	1
42	525	0	10000	4	1	0	4	1
40	526	0	10000	4	1	0	4	1
39	527	0	10000	4	1	0	4	1
38	528	0	10000	4	1	0	4	1
37	529	0	10000	4	1	0	4	1
36	530	0	10000	4	1	0	4	1
34	531	0	10000	4	1	0	4	1
34	532	0	10000	4	1	0	4	1
36	533	0	10000	4	1	0	4	1
37	534	0	10000	4	1	0	4	1
37	535	0	10000	4	1	0	4	1
39	536	0	10000	4	1	0	4	1
40	537	0	10000	4	1	0	4	1
40	538	0	10000	4	1	0	4	1
41	539	0	10000	4	1	0	4	1
44	540	0	10000	4	1	0	4	1
44	541	0	10000	4	1	0	4	1
45	542	0	10000	4	1	0	4	1
45	543	0	10000	4	1	0	4	1
44	544	0	10000	4	1	0	4	1
43	545	0	10000	4	1	0	4	1
43	546	0	10000	4	1	0	4	1
44	547	0	10000	4	1	0	4	1
43	548	0	10000	4	1	0	4	1
43	549	0	10000	4	1	0	4	1
41	550	0	10000	4	1	0	4	1
40	551	0	10000	4	1	0	4	1
40	552	0	10000	4	1	0	4	0
39	553	0	10000	4	1	0	4	0
39	554	0	10000	4	1	0	4	0
39	555	0	10000	4	1	0	4	0
40	556	0	10000	4	1	0	4	0
40	557	0	10000	4	1	0	4	0
40	558	0	10000	4	1	0	4	0
38	559	0	10000	4	1	0	4	0
37	560	0	10000	4	1	0	4	0
36	561	0	10000	4	1	0	4	0
36	562	0	10000	4	1	0	4	0
35	563	0	10000	4	1	0	4	0
34	564	0	10000	4	1	0	4	0
34	565	0	10000	4	1	0	4	0
32	566	0	10000	4	1	0	4	0
31	567	0	10000	4	1	0	4	0
30	568	0	10000	4	1	0	4	0
31	569	0	10000	4	1	0	4	0
29	570	0	10000	4	1	0	4	0
28	571	0	10000	4	1	0	4	0
26	572	0	10000	4	1	0	4	0
26	573	0	10000	4	1	0	4	0
24	574	0	10000	4	1	0	4	0
25	575	0	10000	4	1	0	4	0
25	576	0	10000	4	1	0	4	0
26	577	0	10000	4	1	0	4	0
26	578	0	10000	4	1	0	4	0
24	579	0	10000	4	1	0	4	0
25	580	0	10000	4	1	0	4	0
26	581	0	10000	4	1	0	4	0
27	582	0	10000	4	1	0	4	0
27	583	0	10000	4	1	0	4	0
31	584	0	10000	4	1	0	4	0
44	585	0	10000	4	1	0	4	0
56	586	0	10000	4	1	0	4	0
58	587	0	10000	4	1	0	4	0
75	588	0	10000	4	1	0	4	0
86	589	0	10000	4	1	0	4	0
88	590	0	10000	4	1	0	4	0
114	591	0	10000	4	1	0	4	0
141	592	0	10000	4	1	0	4	0
153	593	0	10000	4	1	0	4	0
167	594	0	10000	4	1	0	4	0
192	595	0	10000	4	1	0	4	0
220	596	0	10000	4	1	0	4	0
223	597	0	10000	4	1	0	4	0
226	598	0	10000	4	1	0	4	0
250	599	0	10000	4	1	0	4	0
304	600	0	10000	4	1	0	4	0
346	601	0	10000	4	1	0	4	0
344	602	0	10000	4	1	0	4	0
360	603	0	10000	4	1	0	4	0
391	604	0	10000	4	1	0	4	0
425	605	0	10000	4	1	0	4	0
421	606	0	10000	4	1	0	4	0
406	607	0	10000	4	1	0	4	0
395	608	0	10000	4	1	0	4	0
389	609	0	10000	4	1	0	4	0
389	610	0	10000	4	1	0	4	0
396	611	0	10000	4	1	0	4	0
392	612	0	10000	4	1	0	4	0
405	613	0	10000	4	1	0	4	0
433	614	0	10000	4	1	0	4	0
467	615	0	10000	4	1	0	4	0
462	616	0	10000	4	1	0	4	0
481	617	0	10000	4	1	0	4	0
508	618	0	10000	4	1	0	4	0
564	619	0	10000	4	1	0	4	0
597	620	0	10000	4	1	0	4	0
592	621	0	10000	4	1	0	4	0
610	622	0	10000	4	1	0	4	0
599	623	0	10000	4	1	0	4	0
574	624	0	10000	4	1	0	4	0
561	625	0	10000	4	1	0	4	0
547	626	0	10000	4	1	0	4	0
523	627	0	10000	4	1	0	4	0
503	628	0	10000	4	1	0	4	0
491	629	0	10000	4	1	0	4	0
474	630	0	10000	4	1	0	4	0
454	631	0	10000	4	1	0	4	0
441	632	0	10000	4	1	0	4	0
430	633	0	10000	4	1	0	4	0
421	634	0	10000	4	1	0	4	0
415	635	0	10000	4	1	0	4	0
408	636	0	10000	4	1	0	4	0
401	637	0	10000	4	1	0	4	0
393	638	0	10000	4	1	0	4	0
386	639	0	10000	4	1	0	4	0
380	640	0	10000	4	1	0	4	0
374	641	0	10000	4	1	0	4	0
367	642	0	10000	4	1	0	4	0
358	643	0	10000	4	1	0	4	0
349	644	0	10000	4	1	0	4	0
337	645	0	10000	4	1	0	4	0
326	646	0	10000	4	1	0	4	0
314	647	0	10000	4	1	0	4	0
303	648	0	10000	4	1	0	4	0
292	649	0	10000	4	1	0	4	0
279	650	0	10000	4	1	0	4	0
268	651	0	10000	4	1	0	4	0
261	652	0	10000	4	1	0	4	0
253	653	0	10000	4	1	0	4	0
247	654	0	10000	4	1	0	4	0
241	655	0	10000	4	1	0	4	0
236	656	0	10000	4	1	0	4	0
232	657	0	10000	4	1	0	4	0
229	658	0	10000	4	1	0	4	0
223	659	0	10000	4	1	0	4	0
219	660	0	10000	4	1	0	4	0
216	661	0	10000	4	1	0	4	0
212	662	0	10000	4	1	0	4	0
209	663	0	10000	4	1	0	4	0
207	664	0	10000	4	1	0	4	0
204	665	0	10000	4	1	0	4	0
201	666	0	10000	4	1	0	4	0
197	667	0	10000	4	1	0	4	0
195	668	0	10000	4	1	0	4	0
194	669	0	10000	4	1	0	4	0
192	670	0	10000	4	1	0	4	0
190	671	0	10000	4	1	0	4	0
187	672	0	10000	4	1	0	4	0
183	673	0	10000	4	1	0	4	0
179	674	0	10000	4	1	0	4	0
177	675	0	10000	4	1	0	4	0
173	676	0	10000	4	1	0	4	0
168	677	0	10000	4	1	0	4	0
163	678	0	10000	4	1	0	4	0
154	679	0	10000	4	1	0	4	0
149	680	0	10000	4	1	0	4	0
144	681	0	10000	4	1	0	4	0
139	682	0	10000	4	1	0	4	0
135	683	0	10000	4	1	0	4	0
130	684	0	10000	4	1	0	4	0
126	685	0	10000	4	1	0	4	0
123	686	0	10000	4	1	0	4	0
118	687	0	10000	4	1	0	4	0
113	688	0	10000	4	1	0	4	0
110	689	0	10000	4	1	0	4	0
104	690	0	10000	4	1	0	4	0
100	691	0	10000	4	1	0	4	0
96	692	0	10000	4	1	0	4	0
95	693	0	10000	4	1	0	4	0
95	694	0	10000	4	1	0	4	0
95	695	0	10000	4	1	0	4	0
96	696	0	10000	4	1	0	4	0
96	697	0	10000	4	1	0	4	0
92	698	0	10000	4	1	0	4	0
87	699	0	10000	4	1	0	4	0
86	700	0	10000	4	1	0	4	0
86	701	0	10000	4	1	0	4	0
86	702	0	10000	4	1	0	4	0
86	703	0	10000	4	1	0	4	0
86	704	0	10000	4	1	0	4	0
86	705	0	10000	4	1	0	4	0
85	706	0	10000	4	1	0	4	0
83	707	0	10000	4	1	0	4	0
80	708	0	10000	4	1	0	4	0
78	709	0	10000	4	1	0	4	0
76	710	0	10000	4	1	0	4	0
72	711	0	10000	4	1	0	4	0
69	712	0	10000	4	1	0	4	0
68	713	0	10000	4	1	0	4	0
66	714	0	10000	4	1	0	4	0
66	715	0	10000	4	1	0	4	0
64	716	0	10000	4	1	0	4	0
64	717	0	10000	4	1	0	4	0
63	718	0	10000	4	1	0	4	0
62	719	0	10000	4	1	0	4	0
61	720	0	10000	4	1	0	4	0
62	721	0	10000	4	1	0	4	0
62	722	0	10000	4	1	0	4	0
60	723	0	10000	4	1	0	4	0
59	724	0	10000	4	1	0	4	0
58	725	0	10000	4	1	0	4	0
56	726	0	10000	4	1	0	4	0
55	727	0	10000	4	1	0	4	0
55	728	0	10000	4	1	0	4	0
53	729	0	10000	4	1	0	4	0
51	730	0	10000	4	1	0	4	0
49	731	0	10000	4	1	0	4	0
48	732	0	10000	4	1	0	4	0
46	733	0	10000	4	1	0	4	0
44	734	0	10000	4	1	0	4	0
44	735	0	10000	4	1	0	4	0
43	736	0	10000	4	1	0	4	0
43	737	0	10000	4	1	0	4	0
42	738	0	10000	4	1	0	4	0
42	739	0	10000	4	1	0	4	0
43	740	0	10000	4	1	0	4	0
44	741	0	10000	4	1	0	4	0
45	742	0	10000	4	1	0	4	0
44	743	0	10000	4	1	0	4	0
43	744	0	10000	4	1	0	4	0
42	745	0	10000	4	1	0	4	0
40	746	0	10000	4	1	0	4	0
38	747	0	10000	4	1	0	4	0
37	748	0	10000	4	1	0	4	0
37	749	0	10000	4	1	0	4	0
36	750	0	10000	4	1	0	4	0
35	751	0	10000	4	1	0	4	0
34	752	0	10000	4	1	0	4	0
32	753	0	10000	4	1	0	4	0
32	754	0	10000	4	1	0	4	0
31	755	0	10000	4	1	0	4	0
31	756	0	10000	4	1	0	4	0
30	757	0	10000	4	1	0	4	0
28	758	0	10000	4	1	0	4	0
27	759	0	10000	4	1	0	4	0
29	760	0	10000	4	1	0	4	0
29	761	0	10000	4	1	0	4	0
29	762	0	10000	4	1	0	4	0
28	763	0	10000	4	1	0	4	0
28	764	0	10000	4	1	0	4	0
30	765	0	10000	4	1	0	4	0
30	766	0	10000	4	1	0	4	0
29	767	0	10000	4	1	0	4	0
30	768	0	10000	4	1	0	4	0
30	769	0	10000	4	1	0	4	0
29	770	0	10000	4	1	0	4	0
28	771	0	10000	4	1	0	4	0
28	772	0	10000	4	1	0	4	0
28	773	0	10000	4	1	0	4	0
28	774	0	10000	4	1	0	4	0
29	775	0	10000	4	1	0	4	0
29	776	0	10000	4	1	0	4	0
30	777	0	10000	4	1	0	4	0
29	778	0	10000	4	1	0	4	0
27	779	0	10000	4	1	0	4	0
27	780	0	10000	4	1	0	4	0
26	781	0	10000	4	1	0	4	0
26	782	0	10000	4	1	0	4	0
25	783	0	10000	4	1	0	4	0
25	784	0	10000	4	1	0	4	0
24	785	0	10000	4	1	0	4	0
26	786	0	10000	4	1	0	4	0
28	787	0	10000	4	1	0	4	0
31	788	0	10000	4	1	0	4	0
33	789	0	10000	4	1	0	4	0
32	790	0	10000	4	1	0	4	0
33	791	0	10000	4	1	0	4	0
32	792	0	10000	4	1	0	4	0
32	793	0	10000	4	1	0	4	0
32	794	0	10000	4	1	0	4	0
30	795	0	10000	4	1	0	4	0
29	796	0	10000	4	1	0	4	0
28	797	0	10000	4	1	0	4	0
26	798	0	10000	4	1	0	4	0
24	799	0	10000	4	1	0	4	0
25	800	0	10000	4	1	0	4	0
26	801	0	10000	4	1	0	4	0
26	802	0	10000	4	1	0	4	0
27	803	0	10000	4	1	0	4	0
27	804	0	10000	4	1	0	4	0
27	805	0	10000	4	1	0	4	0
25	806	0	10000	4	1	0	4	0
24	807	0	10000	4	1	0	4	0
25	808	0	10000	4	1	0	4	0
26	809	0	10000	4	1	0	4	0
28	810	0	10000	4	1	0	4	0
30	811	0	10000	4	1	0	4	0
30	812	0	10000	4	1	0	4	0
30	813	0	10000	4	1	0	4	0
30	814	0	10000	4	1	0	4	0
31	815	0	10000	4	1	0	4	0
31	816	0	10000	4	1	0	4	0
31	817	0	10000	4	1	0	4	0
30	818	0	10000	4	1	0	4	0
27	819	0	10000	4	1	0	4	0
27	820	0	10000	4	1	0	4	0
27	821	0	10000	4	1	0	4	0
27	822	0	10000	4	1	0	4	0
26	823	0	10000	4	1	0	4	0
25	824	0	10000	4	1	0	4	0
24	825	0	10000	4	1	0	4	0
24	826	0	10000	4	1	0	4	0
22	827	0	10000	4	1	0	4	0
22	828	0	10000	4	1	0	4	0
24	829	0	10000	4	1	0	4	0
22	830	0	10000	4	1	0	4	0
22	831	0	10000	4	1	0	4	0
22	832	0	10000	4	1	0	4	0
21	833	0	10000	4	1	0	4	0
21	834	0	10000	4	1	0	4	0
21	835	0	10000	4	1	0	4	0
22	836	0	10000	4	1	0	4	0
22	837	0	10000	4	1	0	4	0
21	838	0	10000	4	1	0	4	0
19	839	0	10000	4	1	0	4	0
20	840	0	10000	4	1	0	4	0
21	841	0	10000	4	1	0	4	0
22	842	0	10000	4	1	0	4	0
22	843	0	10000	4	1	0	4	0
22	844	0	10000	4	1	0	4	0
22	845	0	10000	4	1	0	4	0
21	846	0	10000	4	1	0	4	0
20	847	0	10000	4	1	0	4	0
21	848	0	10000	4	1	0	4	0
24	849	0	10000	4	1	0	4	0
25	850	0	10000	4	1	0	4	0
26	851	0	10000	4	1	0	4	0
25	852	0	10000	4	1	0	4	0
24	853	0	10000	4	1	0	4	0
23	854	0	10000	4	1	0	4	0
23	855	0	10000	4	1	0	4	0
22	856	0	10000	4	1	0	4	0
22	857	0	10000	4	1	0	4	0
22	858	0	10000	4	1	0	4	0
21	859	0	10000	4	1	0	4	0
22	860	0	10000	4	1	0	4	0
23	861	0	10000	4	1	0	4	0
22	862	0	10000	4	1	0	4	0
22	863	0	10000	4	1	0	4	0
22	864	0	10000	4	1	0	4	0
21	865	0	10000	4	1	0	4	0
20	866	0	10000	4	1	0	4	0
19	867	0	10000	4	1	0	4	0
19	868	0	10000	4	1	0	4	0
20	869	0	10000	4	1	0	4	0
19	870	0	10000	4	1	0	4	0
18	871	0	10000	4	1	0	4	0
19	872	0	10000	4	1	0	4	0
21	873	0	10000	4	1	0	4	0
23	874	0	10000	4	1	0	4	0
24	875	0	10000	4	1	0	4	0
24	876	0	10000	4	1	0	4	0
24	877	0	10000	4	1	0	4	0
23	878	0	10000	4	1	0	4	0
21	879	0	10000	4	1	0	4	0
22	880	0	10000	4	1	0	4	0
22	881	0	10000	4	1	0	4	0
21	882	0	10000	4	1	0	4	0
21	883	0	10000	4	1	0	4	0
21	884	0	10000	4	1	0	4	0
21	885	0	10000	4	1	0	4	0
20	886	0	10000	4	1	0	4	0
21	887	0	10000	4	1	0	4	0
20	888	0	10000	4	1	0	4	0
22	889	0	10000	4	1	0	4	0
22	890	0	10000	4	1	0	4	0
21	891	0	10000	4	1	0	4	0
21	892	0	10000	4	1	0	4	0
20	893	0	10000	4	1	0	4	0
19	894	0	10000	4	1	0	4	0
19	895	0	10000	4	1	0	4	0
20	896	0	10000	4	1	0	4	0
21	897	0	10000	4	1	0	4	0
20	898	0	10000	4	1	0	4	0
17	899	0	10000	4	1	0	4	0
17	900	0	10000	4	1	0	4	0
17	901	0	10000	4	1	0	4	0
18	902	0	10000	4	1	0	4	0
18	903	0	10000	4	1	0	4	0
18	904	0	10000	4	1	0	4	0
19	905	0	10000	4	1	0	4	0
18	906	0	10000	4	1	0	4	0
18	907	0	10000	4	1	0	4	0
20	908	0	10000	4	1	0	4	0
23	909	0	10000	4	1	0	4	0
22	910	0	10000	4	1	0	4	0
21	911	0	10000	4	1	0	4	0
21	912	0	10000	4	1	0	4	0
20	913	0	10000	4	1	0	4	0
20	914	0	10000	4	1	0	4	0
19	915	0	10000	4	1	0	4	0
20	916	0	10000	4	1	0	4	0
19	917	0	10000	4	1	0	4	0
18	918	0	10000	4	1	0	4	0
18	919	0	10000	4	1	0	4	0
17	920	0	10000	4	1	0	4	0
17	921	0	10000	4	1	0	4	0
17	922	0	10000	4	1	0	4	0
17	923	0	10000	4	1	0	4	0
17	924	0	10000	4	1	0	4	0
17	925	0	10000	4	1	0	4	0
16	926	0	10000	4	1	0	4	0
15	927	0	10000	4	1	0	4	0
16	928	0	10000	4	1	0	4	0
19	929	0	10000	4	1	0	4	0
20	930	0	10000	4	1	0	4	0
21	931	0	10000	4	1	0	4	0
22	932	0	10000	4	1	0	4	0
22	933	0	10000	4	1	0	4	0
22	934	0	10000	4	1	0	4	0
23	935	0	10000	4	1	0	4	0
23	936	0	10000	4	1	0	4	0
23	937	0	10000	4	1	0	4	0
22	938	0	10000	4	1	0	4	0
20	939	0	10000	4	1	0	4	0
21	940	0	10000	4	1	0	4	0
22	941	0	10000	4	1	0	4	0
24	942	0	10000	4	1	0	4	0
25	943	0	10000	4	1	0	4	0
26	944	0	10000	4	1	0	4	0
25	945	0	10000	4	1	0	4	0
24	946	0	10000	4	1	0	4	0
22	947	0	10000	4	1	0	4	0
24	948	0	10000	4	1	0	4	0
24	949	0	10000	4	1	0	4	0
23	950	0	10000	4	1	0	4	0
24	951	0	10000	4	1	0	4	0
22	952	0	10000	4	1	0	4	0
22	953	0	10000	4	1	0	4	0
22	954	0	10000	4	1	0	4	0
21	955	0	10000	4	1	0	4	0
21	956	0	10000	4	1	0	4	0
22	957	0	10000	4	1	0	4	0
22	958	0	10000	4	1	0	4	0
22	959	0	10000	4	1	0	4	0
24	960	0	10000	4	1	0	4	0
24	961	0	10000	4	1	0	4	0
24	962	0	10000	4	1	0	4	0
25	963	0	10000	4	1	0	4	0
24	964	0	10000	4	1	0	4	0
24	965	0	10000	4	1	0	4	0
24	966	0	10000	4	1	0	4	0
23	967	0	10000	4	1	0	4	0
22	968	0	10000	4	1	0	4	0
24	969	0	10000	4	1	0	4	0
23	970	0	10000	4	1	0	4	0
23	971	0	10000	4	1	0	4	0
23	972	0	10000	4	1	0	4	0
24	973	0	10000	4	1	0	4	0
23	974	0	10000	4	1	0	4	0
21	975	0	10000	4	1	0	4	0
21	976	0	10000	4	1	0	4	0
24	977	0	10000	4	1	0	4	0
22	978	0	10000	4	1	0	4	0
20	979	0	10000	4	1	0	4	0
22	980	0	10000	4	1	0	4	0
21	981	0	10000	4	1	0	4	0
22	982	0	10000	4	1	0	4	0
21	983	0	10000	4	1	0	4	0
22	984	0	10000	4	1	0	4	0
22	985	0	10000	4	1	0	4	0
23	986	0	10000	4	1	0	4	0
24	987	0	10000	4	1	0	4	0
27	988	0	10000	4	1	0	4	0
29	989	0	10000	4	1	0	4	0
27	990	0	10000	4	1	0	4	0
27	991	0	10000	4	1	0	4	0
26	992	0	10000	4	1	0	4	0
25	993	0	10000	4	1	0	4	0
24	994	0	10000	4	1	0	4	0
24	995	0	10000	4	1	0	4	0
24	996	0	10000	4	1	0	4	0
24	997	0	10000	4	1	0	4	0
23	998	0	10000	4	1	0	4	0
20	999	0	10000	4	1	0	4	0
20	1000	0	10000	4	1	0	4	0
20	1001	0	10000	4	1	0	4	0
18	6	7	10000	5	1	0	5	0
17	7	7	10000	5	1	0	5	0
17	8	7	10000	5	1	0	5	0
18	9	7	10000	5	1	0	5	0
16	10	7	10000	5	1	0	5	0
18	11	7	10000	5	1	0	5	0
18	11	7	10000	5	1	0	5	0
16	12	7	10000	5	1	0	5	0
16	13	7	10000	5	1	0	5	0
17	14	7	10000	5	1	0	5	0
16	16	7	10000	5	1	0	5	0
16	17	7	10000	5	1	0	5	0
17	18	7	10000	5	1	0	5	0
17	19	7	10000	5	1	0	5	0
18	20	7	10000	5	1	0	5	0
15	21	7	10000	5	1	0	5	0
14	22	7	10000	5	1	0	5	0
14	23	7	10000	5	1	0	5	0
15	24	7	10000	5	1	0	5	0
14	25	7	10000	5	1	0	5	0
14	26	7	10000	5	1	0	5	0
15	27	7	10000	5	1	0	5	0
14	29	7	10000	5	1	0	5	0
15	30	7	10000	5	1	0	5	0
14	31	7	10000	5	1	0	5	0
16	32	7	10000	5	1	0	5	0
15	33	7	10000	5	1	0	5	0
15	34	7	10000	5	1	0	5	0
16	34	7	10000	5	1	0	5	0
17	35	7	10000	5	1	0	5	0
18	36	7	10000	5	1	0	5	0
17	37	7	10000	5	1	0	5	0
17	38	7	10000	5	1	0	5	0
17	39	7	10000	5	1	0	5	0
17	40	7	10000	5	1	0	5	0
16	41	7	10000	5	1	0	5	0
15	42	7	10000	5	1	0	5	0
15	43	7	10000	5	1	0	5	0
16	44	7	10000	5	1	0	5	0
15	45	7	10000	5	1	0	5	0
14	45	7	10000	5	1	0	5	0
14	46	7	10000	5	1	0	5	0
14	47	7	10000	5	1	0	5	0
14	48	7	10000	5	1	0	5	0
14	46	7	10000	5	1	0	5	0
16	47	7	10000	5	1	0	5	0
15	48	7	10000	5	1	0	5	0
15	49	7	10000	5	1	0	5	0
15	50	7	10000	5	1	0	5	0
15	51	7	10000	5	1	0	5	0
17	52	7	10000	5	1	0	5	0
17	53	7	10000	5	1	0	5	0
18	54	7	10000	5	1	0	5	0
18	55	7	10000	5	1	0	5	0
18	56	7	10000	5	1	0	5	0
16	57	7	10000	5	1	0	5	0
17	58	7	10000	5	1	0	5	0
17	59	7	10000	5	1	0	5	0
18	60	7	10000	5	1	0	5	0
19	61	7	10000	5	1	0	5	0
20	62	7	10000	5	1	0	5	0
21	63	7	10000	5	1	0	5	0
20	64	7	10000	5	1	0	5	0
20	65	7	10000	5	1	0	5	0
20	66	7	10000	5	1	0	5	0
22	67	7	10000	5	1	0	5	0
24	68	7	10000	5	1	0	5	0
26	69	7	10000	5	1	0	5	0
25	70	7	10000	5	1	0	5	0
26	71	7	10000	5	1	0	5	0
26	72	7	10000	5	1	0	5	0
24	73	7	10000	5	1	0	5	0
24	74	7	10000	5	1	0	5	0
24	75	7	10000	5	1	0	5	0
24	76	7	10000	5	1	0	5	0
22	77	7	10000	5	1	0	5	0
22	78	7	10000	5	1	0	5	0
22	79	7	10000	5	1	0	5	0
21	80	7	10000	5	1	0	5	0
22	81	7	10000	5	1	0	5	0
23	82	7	10000	5	1	0	5	0
24	83	7	10000	5	1	0	5	0
24	84	7	10000	5	1	0	5	0
23	85	7	10000	5	1	0	5	0
22	86	7	10000	5	1	0	5	0
23	87	7	10000	5	1	0	5	0
23	88	7	10000	5	1	0	5	0
22	89	7	10000	5	1	0	5	0
23	90	7	10000	5	1	0	5	0
23	91	7	10000	5	1	0	5	0
23	92	7	10000	5	1	0	5	0
21	93	7	10000	5	1	0	5	0
21	94	7	10000	5	1	0	5	0
21	95	7	10000	5	1	0	5	0
21	96	7	10000	5	1	0	5	0
18	97	7	10000	5	1	0	5	0
18	98	7	10000	5	1	0	5	0
17	99	7	10000	5	1	0	5	0
18	100	7	10000	5	1	0	5	0
19	101	7	10000	5	1	0	5	0
17	102	7	10000	5	1	0	5	0
17	103	7	10000	5	1	0	5	0
18	104	7	10000	5	1	0	5	0
17	105	7	10000	5	1	0	5	0
16	106	7	10000	5	1	0	5	0
19	107	7	10000	5	1	0	5	0
20	108	7	10000	5	1	0	5	0
20	109	7	10000	5	1	0	5	0
20	110	7	10000	5	1	0	5	0
20	111	7	10000	5	1	0	5	0
21	112	7	10000	5	1	0	5	0
21	113	7	10000	5	1	0	5	0
22	114	7	10000	5	1	0	5	0
22	115	7	10000	5	1	0	5	0
22	116	7	10000	5	1	0	5	0
20	117	7	10000	5	1	0	5	0
19	118	7	10000	5	1	0	5	0
19	119	7	10000	5	1	0	5	0
19	120	7	10000	5	1	0	5	0
19	121	7	10000	5	1	0	5	0
18	122	7	10000	5	1	0	5	0
18	123	7	10000	5	1	0	5	0
18	124	7	10000	5	1	0	5	0
16	125	7	10000	5	1	0	5	0
16	126	7	10000	5	1	0	5	0
19	127	7	10000	5	1	0	5	0
20	128	7	10000	5	1	0	5	0
19	129	7	10000	5	1	0	5	0
19	130	7	10000	5	1	0	5	0
18	131	7	10000	5	1	0	5	0
18	132	7	10000	5	1	0	5	0
17	133	7	10000	5	1	0	5	0
18	134	7	10000	5	1	0	5	0
18	135	7	10000	5	1	0	5	0
19	136	7	10000	5	1	0	5	0
17	137	7	10000	5	1	0	5	0
16	138	7	10000	5	1	0	5	0
16	139	7	10000	5	1	0	5	0
17	140	7	10000	5	1	0	5	0
18	141	7	10000	5	1	0	5	0
18	142	7	10000	5	1	0	5	0
17	143	7	10000	5	1	0	5	0
16	144	7	10000	5	1	0	5	0
15	145	7	10000	5	1	0	5	0
14	146	7	10000	5	1	0	5	0
17	147	7	10000	5	1	0	5	0
18	148	7	10000	5	1	0	5	0
17	149	7	10000	5	1	0	5	0
18	150	7	10000	5	1	0	5	0
19	151	7	10000	5	1	0	5	0
20	152	7	10000	5	1	0	5	0
20	153	7	10000	5	1	0	5	0
20	154	7	10000	5	1	0	5	0
19	155	7	10000	5	1	0	5	0
19	156	7	10000	5	1	0	5	0
17	157	7	10000	5	1	0	5	0
17	158	7	10000	5	1	0	5	0
18	159	7	10000	5	1	0	5	0
17	160	7	10000	5	1	0	5	0
17	161	7	10000	5	1	0	5	0
18	162	7	10000	5	1	0	5	0
17	163	7	10000	5	1	0	5	0
16	164	7	10000	5	1	0	5	0
16	165	7	10000	5	1	0	5	0
15	166	7	10000	5	1	0	5	0
16	167	7	10000	5	1	0	5	0
17	168	7	10000	5	1	0	5	0
17	169	7	10000	5	1	0	5	0
18	170	7	10000	5	1	0	5	0
18	171	7	10000	5	1	0	5	0
17	172	7	10000	5	1	0	5	0
17	173	7	10000	5	1	0	5	0
17	174	7	10000	5	1	0	5	0
17	175	7	10000	5	1	0	5	0
17	176	7	10000	5	1	0	5	0
15	177	7	10000	5	1	0	5	0
14	178	7	10000	5	1	0	5	0
14	179	7	10000	5	1	0	5	0
14	180	7	10000	5	1	0	5	0
15	181	7	10000	5	1	0	5	0
15	182	7	10000	5	1	0	5	0
14	183	7	10000	5	1	0	5	0
14	184	7	10000	5	1	0	5	0
13	185	7	10000	5	1	0	5	0
12	186	7	10000	5	1	0	5	0
14	187	7	10000	5	1	0	5	0
14	188	7	10000	5	1	0	5	0
14	189	7	10000	5	1	0	5	0
13	190	7	10000	5	1	0	5	0
14	191	7	10000	5	1	0	5	0
13	192	7	10000	5	1	0	5	0
14	193	7	10000	5	1	0	5	0
15	194	7	10000	5	1	0	5	0
15	195	7	10000	5	1	0	5	0
15	196	7	10000	5	1	0	5	0
14	197	7	10000	5	1	0	5	0
13	198	7	10000	5	1	0	5	0
14	199	7	10000	5	1	0	5	0
15	200	7	10000	5	1	0	5	0
15	201	7	10000	5	1	0	5	0
15	202	7	10000	5	1	0	5	0
15	203	7	10000	5	1	0	5	0
15	204	7	10000	5	1	0	5	0
14	205	7	10000	5	1	0	5	0
13	206	7	10000	5	1	0	5	0
16	207	7	10000	5	1	0	5	0
16	208	7	10000	5	1	0	5	0
17	209	7	10000	5	1	0	5	0
16	210	7	10000	5	1	0	5	0
16	211	7	10000	5	1	0	5	0
16	212	7	10000	5	1	0	5	0
17	213	7	10000	5	1	0	5	0
18	214	7	10000	5	1	0	5	0
18	215	7	10000	5	1	0	5	0
19	216	7	10000	5	1	0	5	0
18	217	7	10000	5	1	0	5	0
18	218	7	10000	5	1	0	5	0
18	219	7	10000	5	1	0	5	0
18	220	7	10000	5	1	0	5	0
17	221	7	10000	5	1	0	5	0
17	222	7	10000	5	1	0	5	0
18	223	7	10000	5	1	0	5	0
18	224	7	10000	5	1	0	5	0
19	225	7	10000	5	1	0	5	0
20	226	7	10000	5	1	0	5	0
20	227	7	10000	5	1	0	5	0
21	228	7	10000	5	1	0	5	0
21	229	7	10000	5	1	0	5	0
21	230	7	10000	5	1	0	5	0
21	231	7	10000	5	1	0	5	0
21	232	7	10000	5	1	0	5	0
20	233	7	10000	5	1	0	5	0
20	234	7	10000	5	1	0	5	0
19	235	7	10000	5	1	0	5	0
19	236	7	10000	5	1	0	5	0
17	237	7	10000	5	1	0	5	0
17	238	7	10000	5	1	0	5	0
18	239	7	10000	5	1	0	5	0
18	240	7	10000	5	1	0	5	0
18	241	7	10000	5	1	0	5	0
19	242	7	10000	5	1	0	5	0
20	243	7	10000	5	1	0	5	0
20	244	7	10000	5	1	0	5	0
20	245	7	10000	5	1	0	5	0
20	246	7	10000	5	1	0	5	0
20	247	7	10000	5	1	0	5	0
22	248	7	10000	5	1	0	5	0
24	249	7	10000	5	1	0	5	0
24	250	7	10000	5	1	0	5	0
23	251	7	10000	5	1	0	5	0
23	252	7	10000	5	1	0	5	0
22	253	7	10000	5	1	0	5	0
22	254	7	10000	5	1	0	5	0
22	255	7	10000	5	1	0	5	0
22	256	7	10000	5	1	0	5	0
20	257	7	10000	5	1	0	5	0
21	258	7	10000	5	1	0	5	0
22	259	7	10000	5	1	0	5	0
22	260	7	10000	5	1	0	5	0
23	261	7	10000	5	1	0	5	0
22	262	7	10000	5	1	0	5	0
22	263	7	10000	5	1	0	5	0
21	264	7	10000	5	1	0	5	0
21	265	7	10000	5	1	0	5	0
22	266	7	10000	5	1	0	5	0
23	267	7	10000	5	1	0	5	0
22	268	7	10000	5	1	0	5	0
22	269	7	10000	5	1	0	5	0
22	270	7	10000	5	1	0	5	0
20	271	7	10000	5	1	0	5	0
20	272	7	10000	5	1	0	5	0
20	273	7	10000	5	1	0	5	0
20	274	7	10000	5	1	0	5	0
20	275	7	10000	5	1	0	5	0
20	276	7	10000	5	1	0	5	0
18	277	7	10000	5	1	0	5	0
18	278	7	10000	5	1	0	5	0
19	279	7	10000	5	1	0	5	0
18	280	7	10000	5	1	0	5	0
18	281	7	10000	5	1	0	5	0
17	282	7	10000	5	1	0	5	0
17	283	7	10000	5	1	0	5	0
17	284	7	10000	5	1	0	5	0
16	285	7	10000	5	1	0	5	0
16	286	7	10000	5	1	0	5	0
20	287	7	10000	5	1	0	5	0
19	288	7	10000	5	1	0	5	0
19	289	7	10000	5	1	0	5	0
20	290	7	10000	5	1	0	5	0
19	291	7	10000	5	1	0	5	0
19	292	7	10000	5	1	0	5	0
20	293	7	10000	5	1	0	5	0
19	294	7	10000	5	1	0	5	0
19	295	7	10000	5	1	0	5	0
20	296	7	10000	5	1	0	5	0
16	297	7	10000	5	1	0	5	0
16	298	7	10000	5	1	0	5	0
16	299	7	10000	5	1	0	5	0
17	300	7	10000	5	1	0	5	0
17	301	7	10000	5	1	0	5	0
17	302	7	10000	5	1	0	5	0
16	303	7	10000	5	1	0	5	0
16	304	7	10000	5	1	0	5	0
15	305	7	10000	5	1	0	5	0
14	306	7	10000	5	1	0	5	0
16	307	7	10000	5	1	0	5	0
16	308	7	10000	5	1	0	5	0
15	309	7	10000	5	1	0	5	0
15	310	7	10000	5	1	0	5	0
15	311	7	10000	5	1	0	5	0
14	312	7	10000	5	1	0	5	0
15	313	7	10000	5	1	0	5	0
17	314	7	10000	5	1	0	5	0
19	315	7	10000	5	1	0	5	0
22	316	7	10000	5	1	0	5	0
22	317	7	10000	5	1	0	5	0
25	318	7	10000	5	1	0	5	0
28	319	7	10000	5	1	0	5	0
28	320	7	10000	5	1	0	5	0
28	321	7	10000	5	1	0	5	0
29	322	7	10000	5	1	0	5	0
29	323	7	10000	5	1	0	5	0
28	324	7	10000	5	1	0	5	0
29	325	7	10000	5	1	0	5	0
30	326	7	10000	5	1	0	5	0
32	327	7	10000	5	1	0	5	0
35	328	7	10000	5	1	0	5	0
39	329	7	10000	5	1	0	5	0
42	330	7	10000	5	1	0	5	0
44	331	7	10000	5	1	0	5	0
47	332	7	10000	5	1	0	5	0
48	333	7	10000	5	1	0	5	0
49	334	7	10000	5	1	0	5	0
52	335	7	10000	5	1	0	5	0
55	336	7	10000	5	1	0	5	0
58	337	7	10000	5	1	0	5	0
64	338	7	10000	5	1	0	5	0
70	339	7	10000	5	1	0	5	0
74	340	7	10000	5	1	0	5	0
77	341	7	10000	5	1	0	5	0
80	342	7	10000	5	1	0	5	0
83	343	7	10000	5	1	0	5	0
84	344	7	10000	5	1	0	5	0
85	345	7	10000	5	1	0	5	0
86	346	7	10000	5	1	0	5	0
88	347	7	10000	5	1	0	5	0
90	348	7	10000	5	1	0	5	0
91	349	7	10000	5	1	0	5	0
91	350	7	10000	5	1	0	5	0
92	351	7	10000	5	1	0	5	0
91	352	7	10000	5	1	0	5	0
91	353	7	10000	5	1	0	5	0
92	354	7	10000	5	1	0	5	0
93	355	7	10000	5	1	0	5	0
92	356	7	10000	5	1	0	5	0
88	357	7	10000	5	1	0	5	0
87	358	7	10000	5	1	0	5	0
87	359	7	10000	5	1	0	5	0
85	360	7	10000	5	1	0	5	0
83	361	7	10000	5	1	0	5	0
80	362	7	10000	5	1	0	5	0
78	363	7	10000	5	1	0	5	0
75	364	7	10000	5	1	0	5	0
71	365	7	10000	5	1	0	5	0
68	366	7	10000	5	1	0	5	0
66	367	7	10000	5	1	0	5	0
64	368	7	10000	5	1	0	5	0
63	369	7	10000	5	1	0	5	0
62	370	7	10000	5	1	0	5	0
61	371	7	10000	5	1	0	5	0
62	372	7	10000	5	1	0	5	0
65	373	7	10000	5	1	0	5	0
68	374	7	10000	5	1	0	5	0
72	375	7	10000	5	1	0	5	0
77	376	7	10000	5	1	0	5	0
80	377	7	10000	5	1	0	5	0
83	378	7	10000	5	1	0	5	0
88	379	7	10000	5	1	0	5	0
93	380	7	10000	5	1	0	5	0
96	381	7	10000	5	1	0	5	0
98	382	7	10000	5	1	0	5	0
102	383	7	10000	5	1	0	5	0
104	384	7	10000	5	1	0	5	0
108	385	7	10000	5	1	0	5	0
112	386	7	10000	5	1	0	5	0
115	387	7	10000	5	1	0	5	0
116	388	7	10000	5	1	0	5	0
116	389	7	10000	5	1	0	5	0
115	390	7	10000	5	1	0	5	0
115	391	7	10000	5	1	0	5	0
116	392	7	10000	5	1	0	5	0
115	393	7	10000	5	1	0	5	0
117	394	7	10000	5	1	0	5	0
120	395	7	10000	5	1	0	5	0
121	396	7	10000	5	1	0	5	0
119	397	7	10000	5	1	0	5	0
118	398	7	10000	5	1	0	5	0
118	399	7	10000	5	1	0	5	0
118	400	7	10000	5	1	0	5	0
118	401	7	10000	5	1	0	5	0
117	402	7	10000	5	1	0	5	0
115	403	7	10000	5	1	0	5	0
114	404	7	10000	5	1	0	5	0
113	405	7	10000	5	1	0	5	0
112	406	7	10000	5	1	0	5	0
113	407	7	10000	5	1	0	5	0
110	408	7	10000	5	1	0	5	0
108	409	7	10000	5	1	0	5	0
104	410	7	10000	5	1	0	5	0
100	411	7	10000	5	1	0	5	0
97	412	7	10000	5	1	0	5	0
92	413	7	10000	5	1	0	5	0
90	414	7	10000	5	1	0	5	0
88	415	7	10000	5	1	0	5	0
87	416	7	10000	5	1	0	5	0
85	417	7	10000	5	1	0	5	0
84	418	7	10000	5	1	0	5	0
83	419	7	10000	5	1	0	5	0
81	420	7	10000	5	1	0	5	0
80	421	7	10000	5	1	0	5	0
78	422	7	10000	5	1	0	5	0
76	423	7	10000	5	1	0	5	0
74	424	7	10000	5	1	0	5	0
72	425	7	10000	5	1	0	5	0
70	426	7	10000	5	1	0	5	0
70	427	7	10000	5	1	0	5	0
68	428	7	10000	5	1	0	5	0
65	429	7	10000	5	1	0	5	0
63	430	7	10000	5	1	0	5	0
61	431	7	10000	5	1	0	5	0
60	432	7	10000	5	1	0	5	0
57	433	7	10000	5	1	0	5	0
56	434	7	10000	5	1	0	5	0
54	435	7	10000	5	1	0	5	0
53	436	7	10000	5	1	0	5	0
49	437	7	10000	5	1	0	5	0
46	438	7	10000	5	1	0	5	0
44	439	7	10000	5	1	0	5	0
43	440	7	10000	5	1	0	5	0
42	441	7	10000	5	1	0	5	0
39	442	7	10000	5	1	0	5	0
39	443	7	10000	5	1	0	5	0
37	444	7	10000	5	1	0	5	0
34	445	7	10000	5	1	0	5	0
33	446	7	10000	5	1	0	5	0
33	447	7	10000	5	1	0	5	0
33	448	7	10000	5	1	0	5	0
32	449	7	10000	5	1	0	5	0
31	450	7	10000	5	1	0	5	0
30	451	7	10000	5	1	0	5	0
28	452	7	10000	5	1	0	5	0
27	453	7	10000	5	1	0	5	0
26	454	7	10000	5	1	0	5	0
26	455	7	10000	5	1	0	5	0
26	456	7	10000	5	1	0	5	0
23	457	7	10000	5	1	0	5	0
23	458	7	10000	5	1	0	5	0
22	459	7	10000	5	1	0	5	0
22	460	7	10000	5	1	0	5	0
21	461	7	10000	5	1	0	5	0
21	462	7	10000	5	1	0	5	0
22	463	7	10000	5	1	0	5	0
22	464	7	10000	5	1	0	5	0
22	465	7	10000	5	1	0	5	0
21	466	7	10000	5	1	0	5	0
23	467	7	10000	5	1	0	5	0
23	468	7	10000	5	1	0	5	0
23	469	7	10000	5	1	0	5	0
24	470	7	10000	5	1	0	5	0
23	471	7	10000	5	1	0	5	0
24	472	7	10000	5	1	0	5	0
25	473	7	10000	5	1	0	5	0
26	474	7	10000	5	1	0	5	0
26	475	7	10000	5	1	0	5	0
28	476	7	10000	5	1	0	5	0
25	477	7	10000	5	1	0	5	0
24	478	7	10000	5	1	0	5	0
24	479	7	10000	5	1	0	5	0
23	480	7	10000	5	1	0	5	0
23	481	7	10000	5	1	0	5	0
22	482	7	10000	5	1	0	5	0
22	483	7	10000	5	1	0	5	0
21	484	7	10000	5	1	0	5	0
20	485	7	10000	5	1	0	5	0
19	486	7	10000	5	1	0	5	0
20	487	7	10000	5	1	0	5	0
21	488	7	10000	5	1	0	5	0
21	489	7	10000	5	1	0	5	0
23	490	7	10000	5	1	0	5	0
24	491	7	10000	5	1	0	5	0
23	492	7	10000	5	1	0	5	0
22	493	7	10000	5	1	0	5	0
23	494	7	10000	5	1	0	5	0
22	495	7	10000	5	1	0	5	0
22	496	7	10000	5	1	0	5	0
19	497	7	10000	5	1	0	5	0
19	498	7	10000	5	1	0	5	0
19	499	7	10000	5	1	0	5	0
18	500	7	10000	5	1	0	5	0
18	501	7	10000	5	1	0	5	0
18	502	7	10000	5	1	0	5	1
18	503	7	10000	5	1	0	5	1
17	504	7	10000	5	1	0	5	1
17	505	7	10000	5	1	0	5	1
15	506	7	10000	5	1	0	5	1
16	507	7	10000	5	1	0	5	1
17	508	7	10000	5	1	0	5	1
16	509	7	10000	5	1	0	5	1
16	510	7	10000	5	1	0	5	1
17	511	7	10000	5	1	0	5	1
16	512	7	10000	5	1	0	5	1
15	513	7	10000	5	1	0	5	1
15	514	7	10000	5	1	0	5	1
15	515	7	10000	5	1	0	5	1
16	516	7	10000	5	1	0	5	1
15	517	7	10000	5	1	0	5	1
16	518	7	10000	5	1	0	5	1
19	519	7	10000	5	1	0	5	1
20	520	7	10000	5	1	0	5	1
19	521	7	10000	5	1	0	5	1
20	522	7	10000	5	1	0	5	1
22	523	7	10000	5	1	0	5	1
24	524	7	10000	5	1	0	5	1
24	525	7	10000	5	1	0	5	1
22	526	7	10000	5	1	0	5	1
26	527	7	10000	5	1	0	5	1
25	528	7	10000	5	1	0	5	1
24	529	7	10000	5	1	0	5	1
24	530	7	10000	5	1	0	5	1
24	531	7	10000	5	1	0	5	1
24	532	7	10000	5	1	0	5	1
25	533	7	10000	5	1	0	5	1
26	534	7	10000	5	1	0	5	1
26	535	7	10000	5	1	0	5	1
27	536	7	10000	5	1	0	5	1
25	537	7	10000	5	1	0	5	1
24	538	7	10000	5	1	0	5	1
25	539	7	10000	5	1	0	5	1
26	540	7	10000	5	1	0	5	1
25	541	7	10000	5	1	0	5	1
25	542	7	10000	5	1	0	5	1
25	543	7	10000	5	1	0	5	1
24	544	7	10000	5	1	0	5	1
24	545	7	10000	5	1	0	5	1
23	546	7	10000	5	1	0	5	1
25	547	7	10000	5	1	0	5	1
24	548	7	10000	5	1	0	5	1
23	549	7	10000	5	1	0	5	1
22	550	7	10000	5	1	0	5	1
21	551	7	10000	5	1	0	5	1
21	552	7	10000	5	1	0	5	0
21	553	7	10000	5	1	0	5	0
21	554	7	10000	5	1	0	5	0
20	555	7	10000	5	1	0	5	0
21	556	7	10000	5	1	0	5	0
20	557	7	10000	5	1	0	5	0
21	558	7	10000	5	1	0	5	0
21	559	7	10000	5	1	0	5	0
20	560	7	10000	5	1	0	5	0
20	561	7	10000	5	1	0	5	0
20	562	7	10000	5	1	0	5	0
20	563	7	10000	5	1	0	5	0
19	564	7	10000	5	1	0	5	0
19	565	7	10000	5	1	0	5	0
18	566	7	10000	5	1	0	5	0
18	567	7	10000	5	1	0	5	0
18	568	7	10000	5	1	0	5	0
18	569	7	10000	5	1	0	5	0
18	570	7	10000	5	1	0	5	0
19	571	7	10000	5	1	0	5	0
19	572	7	10000	5	1	0	5	0
19	573	7	10000	5	1	0	5	0
19	574	7	10000	5	1	0	5	0
19	575	7	10000	5	1	0	5	0
19	576	7	10000	5	1	0	5	0
19	577	7	10000	5	1	0	5	0
22	578	7	10000	5	1	0	5	0
35	579	7	10000	5	1	0	5	0
41	580	7	10000	5	1	0	5	0
61	581	7	10000	5	1	0	5	0
86	582	7	10000	5	1	0	5	0
121	583	7	10000	5	1	0	5	0
204	584	7	10000	5	1	0	5	0
250	585	7	10000	5	1	0	5	0
260	586	7	10000	5	1	0	5	0
285	587	7	10000	5	1	0	5	0
330	588	7	10000	5	1	0	5	0
356	589	7	10000	5	1	0	5	0
363	590	7	10000	5	1	0	5	0
377	591	7	10000	5	1	0	5	0
397	592	7	10000	5	1	0	5	0
401	593	7	10000	5	1	0	5	0
392	594	7	10000	5	1	0	5	0
397	595	7	10000	5	1	0	5	0
400	596	7	10000	5	1	0	5	0
397	597	7	10000	5	1	0	5	0
385	598	7	10000	5	1	0	5	0
379	599	7	10000	5	1	0	5	0
417	600	7	10000	5	1	0	5	0
504	601	7	10000	5	1	0	5	0
597	602	7	10000	5	1	0	5	0
609	603	7	10000	5	1	0	5	0
648	604	7	10000	5	1	0	5	0
640	605	7	10000	5	1	0	5	0
652	606	7	10000	5	1	0	5	0
646	607	7	10000	5	1	0	5	0
643	608	7	10000	5	1	0	5	0
695	609	7	10000	5	1	0	5	0
720	610	7	10000	5	1	0	5	0
705	611	7	10000	5	1	0	5	0
711	612	7	10000	5	1	0	5	0
690	613	7	10000	5	1	0	5	0
664	614	7	10000	5	1	0	5	0
664	615	7	10000	5	1	0	5	0
695	616	7	10000	5	1	0	5	0
702	617	7	10000	5	1	0	5	0
678	618	7	10000	5	1	0	5	0
682	619	7	10000	5	1	0	5	0
699	620	7	10000	5	1	0	5	0
710	621	7	10000	5	1	0	5	0
714	622	7	10000	5	1	0	5	0
716	623	7	10000	5	1	0	5	0
716	624	7	10000	5	1	0	5	0
709	625	7	10000	5	1	0	5	0
701	626	7	10000	5	1	0	5	0
694	627	7	10000	5	1	0	5	0
682	628	7	10000	5	1	0	5	0
670	629	7	10000	5	1	0	5	0
658	630	7	10000	5	1	0	5	0
647	631	7	10000	5	1	0	5	0
634	632	7	10000	5	1	0	5	0
618	633	7	10000	5	1	0	5	0
600	634	7	10000	5	1	0	5	0
583	635	7	10000	5	1	0	5	0
563	636	7	10000	5	1	0	5	0
538	637	7	10000	5	1	0	5	0
513	638	7	10000	5	1	0	5	0
493	639	7	10000	5	1	0	5	0
475	640	7	10000	5	1	0	5	0
458	641	7	10000	5	1	0	5	0
442	642	7	10000	5	1	0	5	0
426	643	7	10000	5	1	0	5	0
408	644	7	10000	5	1	0	5	0
393	645	7	10000	5	1	0	5	0
383	646	7	10000	5	1	0	5	0
385	647	7	10000	5	1	0	5	0
391	648	7	10000	5	1	0	5	0
395	649	7	10000	5	1	0	5	0
398	650	7	10000	5	1	0	5	0
399	651	7	10000	5	1	0	5	0
401	652	7	10000	5	1	0	5	0
401	653	7	10000	5	1	0	5	0
395	654	7	10000	5	1	0	5	0
389	655	7	10000	5	1	0	5	0
381	656	7	10000	5	1	0	5	0
370	657	7	10000	5	1	0	5	0
363	658	7	10000	5	1	0	5	0
366	659	7	10000	5	1	0	5	0
372	660	7	10000	5	1	0	5	0
380	661	7	10000	5	1	0	5	0
390	662	7	10000	5	1	0	5	0
398	663	7	10000	5	1	0	5	0
401	664	7	10000	5	1	0	5	0
403	665	7	10000	5	1	0	5	0
402	666	7	10000	5	1	0	5	0
401	667	7	10000	5	1	0	5	0
399	668	7	10000	5	1	0	5	0
398	669	7	10000	5	1	0	5	0
398	670	7	10000	5	1	0	5	0
398	671	7	10000	5	1	0	5	0
395	672	7	10000	5	1	0	5	0
389	673	7	10000	5	1	0	5	0
381	674	7	10000	5	1	0	5	0
371	675	7	10000	5	1	0	5	0
360	676	7	10000	5	1	0	5	0
345	677	7	10000	5	1	0	5	0
328	678	7	10000	5	1	0	5	0
313	679	7	10000	5	1	0	5	0
301	680	7	10000	5	1	0	5	0
291	681	7	10000	5	1	0	5	0
283	682	7	10000	5	1	0	5	0
274	683	7	10000	5	1	0	5	0
266	684	7	10000	5	1	0	5	0
260	685	7	10000	5	1	0	5	0
249	686	7	10000	5	1	0	5	0
242	687	7	10000	5	1	0	5	0
233	688	7	10000	5	1	0	5	0
222	689	7	10000	5	1	0	5	0
214	690	7	10000	5	1	0	5	0
208	691	7	10000	5	1	0	5	0
204	692	7	10000	5	1	0	5	0
202	693	7	10000	5	1	0	5	0
203	694	7	10000	5	1	0	5	0
203	695	7	10000	5	1	0	5	0
204	696	7	10000	5	1	0	5	0
203	697	7	10000	5	1	0	5	0
205	698	7	10000	5	1	0	5	0
204	699	7	10000	5	1	0	5	0
203	700	7	10000	5	1	0	5	0
203	701	7	10000	5	1	0	5	0
203	702	7	10000	5	1	0	5	0
201	703	7	10000	5	1	0	5	0
198	704	7	10000	5	1	0	5	0
194	705	7	10000	5	1	0	5	0
191	706	7	10000	5	1	0	5	0
192	707	7	10000	5	1	0	5	0
189	708	7	10000	5	1	0	5	0
186	709	7	10000	5	1	0	5	0
183	710	7	10000	5	1	0	5	0
182	711	7	10000	5	1	0	5	0
181	712	7	10000	5	1	0	5	0
181	713	7	10000	5	1	0	5	0
183	714	7	10000	5	1	0	5	0
183	715	7	10000	5	1	0	5	0
186	716	7	10000	5	1	0	5	0
186	717	7	10000	5	1	0	5	0
187	718	7	10000	5	1	0	5	0
189	719	7	10000	5	1	0	5	0
188	720	7	10000	5	1	0	5	0
185	721	7	10000	5	1	0	5	0
181	722	7	10000	5	1	0	5	0
177	723	7	10000	5	1	0	5	0
173	724	7	10000	5	1	0	5	0
166	725	7	10000	5	1	0	5	0
162	726	7	10000	5	1	0	5	0
160	727	7	10000	5	1	0	5	0
156	728	7	10000	5	1	0	5	0
149	729	7	10000	5	1	0	5	0
146	730	7	10000	5	1	0	5	0
145	731	7	10000	5	1	0	5	0
144	732	7	10000	5	1	0	5	0
141	733	7	10000	5	1	0	5	0
135	734	7	10000	5	1	0	5	0
136	735	7	10000	5	1	0	5	0
143	736	7	10000	5	1	0	5	0
153	737	7	10000	5	1	0	5	0
163	738	7	10000	5	1	0	5	0
173	739	7	10000	5	1	0	5	0
179	740	7	10000	5	1	0	5	0
176	741	7	10000	5	1	0	5	0
171	742	7	10000	5	1	0	5	0
170	743	7	10000	5	1	0	5	0
166	744	7	10000	5	1	0	5	0
164	745	7	10000	5	1	0	5	0
163	746	7	10000	5	1	0	5	0
162	747	7	10000	5	1	0	5	0
158	748	7	10000	5	1	0	5	0
153	749	7	10000	5	1	0	5	0
148	750	7	10000	5	1	0	5	0
142	751	7	10000	5	1	0	5	0
136	752	7	10000	5	1	0	5	0
133	753	7	10000	5	1	0	5	0
