value	EMG	Stimulus	EMG_sensitivity	Total_Trial_Nr	practise	acq	probe_nr	Startle_Probe
15	1	10	10000	1	1	0	1	0
15	2	10	10000	1	1	0	1	0
14	3	10	10000	1	1	0	1	0
14	4	10	10000	1	1	0	1	0
14	5	10	10000	1	1	0	1	0
15	6	10	10000	1	1	0	1	0
13	7	10	10000	1	1	0	1	0
13	8	10	10000	1	1	0	1	0
14	9	10	10000	1	1	0	1	0
14	10	10	10000	1	1	0	1	0
13	11	10	10000	1	1	0	1	0
14	12	10	10000	1	1	0	1	0
14	13	10	10000	1	1	0	1	0
14	14	10	10000	1	1	0	1	0
13	15	10	10000	1	1	0	1	0
13	16	10	10000	1	1	0	1	0
15	17	10	10000	1	1	0	1	0
16	18	10	10000	1	1	0	1	0
16	19	10	10000	1	1	0	1	0
16	20	10	10000	1	1	0	1	0
19	21	10	10000	1	1	0	1	0
21	22	10	10000	1	1	0	1	0
24	23	10	10000	1	1	0	1	0
28	24	10	10000	1	1	0	1	0
31	25	10	10000	1	1	0	1	0
34	26	10	10000	1	1	0	1	0
37	27	10	10000	1	1	0	1	0
42	28	10	10000	1	1	0	1	0
47	29	10	10000	1	1	0	1	0
53	30	10	10000	1	1	0	1	0
54	31	10	10000	1	1	0	1	0
55	32	10	10000	1	1	0	1	0
57	33	10	10000	1	1	0	1	0
57	34	10	10000	1	1	0	1	0
57	35	10	10000	1	1	0	1	0
60	36	10	10000	1	1	0	1	0
62	37	10	10000	1	1	0	1	0
62	38	10	10000	1	1	0	1	0
64	39	10	10000	1	1	0	1	0
65	40	10	10000	1	1	0	1	0
67	41	10	10000	1	1	0	1	0
70	42	10	10000	1	1	0	1	0
71	43	10	10000	1	1	0	1	0
73	44	10	10000	1	1	0	1	0
75	45	10	10000	1	1	0	1	0
73	46	10	10000	1	1	0	1	0
71	47	10	10000	1	1	0	1	0
71	48	10	10000	1	1	0	1	0
70	49	10	10000	1	1	0	1	0
69	50	10	10000	1	1	0	1	0
67	51	10	10000	1	1	0	1	0
63	52	10	10000	1	1	0	1	0
61	53	10	10000	1	1	0	1	0
58	54	10	10000	1	1	0	1	0
55	55	10	10000	1	1	0	1	0
54	56	10	10000	1	1	0	1	0
54	57	10	10000	1	1	0	1	0
51	58	10	10000	1	1	0	1	0
51	59	10	10000	1	1	0	1	0
54	60	10	10000	1	1	0	1	0
56	61	10	10000	1	1	0	1	0
58	62	10	10000	1	1	0	1	0
61	63	10	10000	1	1	0	1	0
63	64	10	10000	1	1	0	1	0
67	65	10	10000	1	1	0	1	0
69	66	10	10000	1	1	0	1	0
68	67	10	10000	1	1	0	1	0
72	68	10	10000	1	1	0	1	0
75	69	10	10000	1	1	0	1	0
76	70	10	10000	1	1	0	1	0
78	71	10	10000	1	1	0	1	0
79	72	10	10000	1	1	0	1	0
79	73	10	10000	1	1	0	1	0
79	74	10	10000	1	1	0	1	0
79	75	10	10000	1	1	0	1	0
79	76	10	10000	1	1	0	1	0
81	77	10	10000	1	1	0	1	0
81	78	10	10000	1	1	0	1	0
79	79	10	10000	1	1	0	1	0
78	80	10	10000	1	1	0	1	0
78	81	10	10000	1	1	0	1	0
77	82	10	10000	1	1	0	1	0
76	83	10	10000	1	1	0	1	0
77	84	10	10000	1	1	0	1	0
77	85	10	10000	1	1	0	1	0
78	86	10	10000	1	1	0	1	0
77	87	10	10000	1	1	0	1	0
77	88	10	10000	1	1	0	1	0
77	89	10	10000	1	1	0	1	0
76	90	10	10000	1	1	0	1	0
74	91	10	10000	1	1	0	1	0
74	92	10	10000	1	1	0	1	0
74	93	10	10000	1	1	0	1	0
71	94	10	10000	1	1	0	1	0
71	95	10	10000	1	1	0	1	0
71	96	10	10000	1	1	0	1	0
71	97	10	10000	1	1	0	1	0
69	98	10	10000	1	1	0	1	0
67	99	10	10000	1	1	0	1	0
63	100	10	10000	1	1	0	1	0
61	101	10	10000	1	1	0	1	0
61	102	10	10000	1	1	0	1	0
59	103	10	10000	1	1	0	1	0
60	104	10	10000	1	1	0	1	0
60	105	10	10000	1	1	0	1	0
58	106	10	10000	1	1	0	1	0
56	107	10	10000	1	1	0	1	0
55	108	10	10000	1	1	0	1	0
53	109	10	10000	1	1	0	1	0
52	110	10	10000	1	1	0	1	0
51	111	10	10000	1	1	0	1	0
49	112	10	10000	1	1	0	1	0
49	113	10	10000	1	1	0	1	0
47	114	10	10000	1	1	0	1	0
44	115	10	10000	1	1	0	1	0
42	116	10	10000	1	1	0	1	0
43	117	10	10000	1	1	0	1	0
40	118	10	10000	1	1	0	1	0
39	119	10	10000	1	1	0	1	0
37	120	10	10000	1	1	0	1	0
36	121	10	10000	1	1	0	1	0
35	122	10	10000	1	1	0	1	0
34	123	10	10000	1	1	0	1	0
34	124	10	10000	1	1	0	1	0
34	125	10	10000	1	1	0	1	0
34	126	10	10000	1	1	0	1	0
30	127	10	10000	1	1	0	1	0
31	128	10	10000	1	1	0	1	0
32	129	10	10000	1	1	0	1	0
31	130	10	10000	1	1	0	1	0
30	131	10	10000	1	1	0	1	0
30	132	10	10000	1	1	0	1	0
29	133	10	10000	1	1	0	1	0
26	134	10	10000	1	1	0	1	0
26	135	10	10000	1	1	0	1	0
25	136	10	10000	1	1	0	1	0
26	137	10	10000	1	1	0	1	0
26	138	10	10000	1	1	0	1	0
24	139	10	10000	1	1	0	1	0
23	140	10	10000	1	1	0	1	0
22	141	10	10000	1	1	0	1	0
21	142	10	10000	1	1	0	1	0
21	143	10	10000	1	1	0	1	0
22	144	10	10000	1	1	0	1	0
21	145	10	10000	1	1	0	1	0
20	146	10	10000	1	1	0	1	0
18	147	10	10000	1	1	0	1	0
17	148	10	10000	1	1	0	1	0
17	149	10	10000	1	1	0	1	0
18	150	10	10000	1	1	0	1	0
17	151	10	10000	1	1	0	1	0
16	152	10	10000	1	1	0	1	0
17	153	10	10000	1	1	0	1	0
15	154	10	10000	1	1	0	1	0
15	155	10	10000	1	1	0	1	0
15	156	10	10000	1	1	0	1	0
17	157	10	10000	1	1	0	1	0
17	158	10	10000	1	1	0	1	0
16	159	10	10000	1	1	0	1	0
16	160	10	10000	1	1	0	1	0
15	161	10	10000	1	1	0	1	0
16	162	10	10000	1	1	0	1	0
15	163	10	10000	1	1	0	1	0
15	164	10	10000	1	1	0	1	0
17	165	10	10000	1	1	0	1	0
16	166	10	10000	1	1	0	1	0
14	167	10	10000	1	1	0	1	0
14	168	10	10000	1	1	0	1	0
13	169	10	10000	1	1	0	1	0
14	170	10	10000	1	1	0	1	0
16	171	10	10000	1	1	0	1	0
17	172	10	10000	1	1	0	1	0
18	173	10	10000	1	1	0	1	0
18	174	10	10000	1	1	0	1	0
17	175	10	10000	1	1	0	1	0
16	176	10	10000	1	1	0	1	0
18	177	10	10000	1	1	0	1	0
17	178	10	10000	1	1	0	1	0
17	179	10	10000	1	1	0	1	0
16	180	10	10000	1	1	0	1	0
15	181	10	10000	1	1	0	1	0
15	182	10	10000	1	1	0	1	0
15	183	10	10000	1	1	0	1	0
16	184	10	10000	1	1	0	1	0
17	185	10	10000	1	1	0	1	0
17	186	10	10000	1	1	0	1	0
15	187	10	10000	1	1	0	1	0
16	188	10	10000	1	1	0	1	0
16	189	10	10000	1	1	0	1	0
16	190	10	10000	1	1	0	1	0
17	191	10	10000	1	1	0	1	0
18	192	10	10000	1	1	0	1	0
18	193	10	10000	1	1	0	1	0
16	194	10	10000	1	1	0	1	0
16	195	10	10000	1	1	0	1	0
15	196	10	10000	1	1	0	1	0
16	197	10	10000	1	1	0	1	0
15	198	10	10000	1	1	0	1	0
15	199	10	10000	1	1	0	1	0
14	200	10	10000	1	1	0	1	0
15	201	10	10000	1	1	0	1	0
14	202	10	10000	1	1	0	1	0
13	203	10	10000	1	1	0	1	0
14	204	10	10000	1	1	0	1	0
14	205	10	10000	1	1	0	1	0
14	206	10	10000	1	1	0	1	0
13	207	10	10000	1	1	0	1	0
13	208	10	10000	1	1	0	1	0
14	209	10	10000	1	1	0	1	0
14	210	10	10000	1	1	0	1	0
13	211	10	10000	1	1	0	1	0
13	212	10	10000	1	1	0	1	0
14	213	10	10000	1	1	0	1	0
12	214	10	10000	1	1	0	1	0
12	215	10	10000	1	1	0	1	0
12	216	10	10000	1	1	0	1	0
14	217	10	10000	1	1	0	1	0
15	218	10	10000	1	1	0	1	0
15	219	10	10000	1	1	0	1	0
14	220	10	10000	1	1	0	1	0
14	221	10	10000	1	1	0	1	0
14	222	10	10000	1	1	0	1	0
14	223	10	10000	1	1	0	1	0
14	224	10	10000	1	1	0	1	0
15	225	10	10000	1	1	0	1	0
14	226	10	10000	1	1	0	1	0
13	227	10	10000	1	1	0	1	0
13	228	10	10000	1	1	0	1	0
14	229	10	10000	1	1	0	1	0
14	230	10	10000	1	1	0	1	0
13	231	10	10000	1	1	0	1	0
12	232	10	10000	1	1	0	1	0
13	233	10	10000	1	1	0	1	0
13	234	10	10000	1	1	0	1	0
12	235	10	10000	1	1	0	1	0
12	236	10	10000	1	1	0	1	0
14	237	10	10000	1	1	0	1	0
13	238	10	10000	1	1	0	1	0
14	239	10	10000	1	1	0	1	0
14	240	10	10000	1	1	0	1	0
13	241	10	10000	1	1	0	1	0
13	242	10	10000	1	1	0	1	0
13	243	10	10000	1	1	0	1	0
12	244	10	10000	1	1	0	1	0
13	245	10	10000	1	1	0	1	0
13	246	10	10000	1	1	0	1	0
11	247	10	10000	1	1	0	1	0
12	248	10	10000	1	1	0	1	0
13	249	10	10000	1	1	0	1	0
13	250	10	10000	1	1	0	1	0
13	251	10	10000	1	1	0	1	0
13	252	10	10000	1	1	0	1	0
14	253	10	10000	1	1	0	1	0
13	254	10	10000	1	1	0	1	0
12	255	10	10000	1	1	0	1	0
12	256	10	10000	1	1	0	1	0
14	257	10	10000	1	1	0	1	0
14	258	10	10000	1	1	0	1	0
15	259	10	10000	1	1	0	1	0
14	260	10	10000	1	1	0	1	0
14	261	10	10000	1	1	0	1	0
14	262	10	10000	1	1	0	1	0
14	263	10	10000	1	1	0	1	0
16	264	10	10000	1	1	0	1	0
16	265	10	10000	1	1	0	1	0
16	266	10	10000	1	1	0	1	0
14	267	10	10000	1	1	0	1	0
14	268	10	10000	1	1	0	1	0
13	269	10	10000	1	1	0	1	0
14	270	10	10000	1	1	0	1	0
13	271	10	10000	1	1	0	1	0
14	272	10	10000	1	1	0	1	0
15	273	10	10000	1	1	0	1	0
15	274	10	10000	1	1	0	1	0
15	275	10	10000	1	1	0	1	0
16	276	10	10000	1	1	0	1	0
18	277	10	10000	1	1	0	1	0
18	278	10	10000	1	1	0	1	0
18	279	10	10000	1	1	0	1	0
17	280	10	10000	1	1	0	1	0
16	281	10	10000	1	1	0	1	0
16	282	10	10000	1	1	0	1	0
15	283	10	10000	1	1	0	1	0
15	284	10	10000	1	1	0	1	0
15	285	10	10000	1	1	0	1	0
14	286	10	10000	1	1	0	1	0
11	287	10	10000	1	1	0	1	0
12	288	10	10000	1	1	0	1	0
13	289	10	10000	1	1	0	1	0
15	290	10	10000	1	1	0	1	0
16	291	10	10000	1	1	0	1	0
16	292	10	10000	1	1	0	1	0
16	293	10	10000	1	1	0	1	0
17	294	10	10000	1	1	0	1	0
17	295	10	10000	1	1	0	1	0
18	296	10	10000	1	1	0	1	0
20	297	10	10000	1	1	0	1	0
19	298	10	10000	1	1	0	1	0
20	299	10	10000	1	1	0	1	0
20	300	10	10000	1	1	0	1	0
19	301	10	10000	1	1	0	1	0
18	302	10	10000	1	1	0	1	0
18	303	10	10000	1	1	0	1	0
19	304	10	10000	1	1	0	1	0
20	305	10	10000	1	1	0	1	0
20	306	10	10000	1	1	0	1	0
17	307	10	10000	1	1	0	1	0
17	308	10	10000	1	1	0	1	0
17	309	10	10000	1	1	0	1	0
16	310	10	10000	1	1	0	1	0
16	311	10	10000	1	1	0	1	0
16	312	10	10000	1	1	0	1	0
17	313	10	10000	1	1	0	1	0
17	314	10	10000	1	1	0	1	0
17	315	10	10000	1	1	0	1	0
16	316	10	10000	1	1	0	1	0
18	317	10	10000	1	1	0	1	0
18	318	10	10000	1	1	0	1	0
17	319	10	10000	1	1	0	1	0
16	320	10	10000	1	1	0	1	0
16	321	10	10000	1	1	0	1	0
16	322	10	10000	1	1	0	1	0
16	323	10	10000	1	1	0	1	0
16	324	10	10000	1	1	0	1	0
17	325	10	10000	1	1	0	1	0
17	326	10	10000	1	1	0	1	0
15	327	10	10000	1	1	0	1	0
16	328	10	10000	1	1	0	1	0
16	329	10	10000	1	1	0	1	0
16	330	10	10000	1	1	0	1	0
16	331	10	10000	1	1	0	1	0
17	332	10	10000	1	1	0	1	0
18	333	10	10000	1	1	0	1	0
17	334	10	10000	1	1	0	1	0
16	335	10	10000	1	1	0	1	0
17	336	10	10000	1	1	0	1	0
19	337	10	10000	1	1	0	1	0
18	338	10	10000	1	1	0	1	0
17	339	10	10000	1	1	0	1	0
16	340	10	10000	1	1	0	1	0
16	341	10	10000	1	1	0	1	0
15	342	10	10000	1	1	0	1	0
15	343	10	10000	1	1	0	1	0
15	344	10	10000	1	1	0	1	0
16	345	10	10000	1	1	0	1	0
16	346	10	10000	1	1	0	1	0
13	347	10	10000	1	1	0	1	0
13	348	10	10000	1	1	0	1	0
12	349	10	10000	1	1	0	1	0
13	350	10	10000	1	1	0	1	0
12	351	10	10000	1	1	0	1	0
12	352	10	10000	1	1	0	1	0
12	353	10	10000	1	1	0	1	0
12	354	10	10000	1	1	0	1	0
11	355	10	10000	1	1	0	1	0
11	356	10	10000	1	1	0	1	0
12	357	10	10000	1	1	0	1	0
13	358	10	10000	1	1	0	1	0
12	359	10	10000	1	1	0	1	0
12	360	10	10000	1	1	0	1	0
12	361	10	10000	1	1	0	1	0
11	362	10	10000	1	1	0	1	0
11	363	10	10000	1	1	0	1	0
14	364	10	10000	1	1	0	1	0
17	365	10	10000	1	1	0	1	0
18	366	10	10000	1	1	0	1	0
17	367	10	10000	1	1	0	1	0
18	368	10	10000	1	1	0	1	0
17	369	10	10000	1	1	0	1	0
18	370	10	10000	1	1	0	1	0
18	371	10	10000	1	1	0	1	0
18	372	10	10000	1	1	0	1	0
19	373	10	10000	1	1	0	1	0
20	374	10	10000	1	1	0	1	0
21	375	10	10000	1	1	0	1	0
21	376	10	10000	1	1	0	1	0
22	377	10	10000	1	1	0	1	0
21	378	10	10000	1	1	0	1	0
21	379	10	10000	1	1	0	1	0
20	380	10	10000	1	1	0	1	0
19	381	10	10000	1	1	0	1	0
19	382	10	10000	1	1	0	1	0
18	383	10	10000	1	1	0	1	0
19	384	10	10000	1	1	0	1	0
19	385	10	10000	1	1	0	1	0
18	386	10	10000	1	1	0	1	0
16	387	10	10000	1	1	0	1	0
16	388	10	10000	1	1	0	1	0
15	389	10	10000	1	1	0	1	0
15	390	10	10000	1	1	0	1	0
14	391	10	10000	1	1	0	1	0
14	392	10	10000	1	1	0	1	0
14	393	10	10000	1	1	0	1	0
13	394	10	10000	1	1	0	1	0
13	395	10	10000	1	1	0	1	0
13	396	10	10000	1	1	0	1	0
15	397	10	10000	1	1	0	1	0
15	398	10	10000	1	1	0	1	0
14	399	10	10000	1	1	0	1	0
13	400	10	10000	1	1	0	1	0
13	401	10	10000	1	1	0	1	0
13	402	10	10000	1	1	0	1	0
14	403	10	10000	1	1	0	1	0
15	404	10	10000	1	1	0	1	0
14	405	10	10000	1	1	0	1	0
14	406	10	10000	1	1	0	1	0
12	407	10	10000	1	1	0	1	0
13	408	10	10000	1	1	0	1	0
14	409	10	10000	1	1	0	1	0
16	410	10	10000	1	1	0	1	0
17	411	10	10000	1	1	0	1	0
16	412	10	10000	1	1	0	1	0
17	413	10	10000	1	1	0	1	0
16	414	10	10000	1	1	0	1	0
15	415	10	10000	1	1	0	1	0
15	416	10	10000	1	1	0	1	0
17	417	10	10000	1	1	0	1	0
16	418	10	10000	1	1	0	1	0
15	419	10	10000	1	1	0	1	0
14	420	10	10000	1	1	0	1	0
14	421	10	10000	1	1	0	1	0
14	422	10	10000	1	1	0	1	0
13	423	10	10000	1	1	0	1	0
14	424	10	10000	1	1	0	1	0
14	425	10	10000	1	1	0	1	0
14	426	10	10000	1	1	0	1	0
12	427	10	10000	1	1	0	1	0
12	428	10	10000	1	1	0	1	0
13	429	10	10000	1	1	0	1	0
14	430	10	10000	1	1	0	1	0
15	431	10	10000	1	1	0	1	0
16	432	10	10000	1	1	0	1	0
17	433	10	10000	1	1	0	1	0
17	434	10	10000	1	1	0	1	0
16	435	10	10000	1	1	0	1	0
17	436	10	10000	1	1	0	1	0
20	437	10	10000	1	1	0	1	0
21	438	10	10000	1	1	0	1	0
21	439	10	10000	1	1	0	1	0
22	440	10	10000	1	1	0	1	0
22	441	10	10000	1	1	0	1	0
21	442	10	10000	1	1	0	1	0
20	443	10	10000	1	1	0	1	0
20	444	10	10000	1	1	0	1	0
21	445	10	10000	1	1	0	1	0
21	446	10	10000	1	1	0	1	0
19	447	10	10000	1	1	0	1	0
19	448	10	10000	1	1	0	1	0
19	449	10	10000	1	1	0	1	0
18	450	10	10000	1	1	0	1	0
18	451	10	10000	1	1	0	1	0
17	452	10	10000	1	1	0	1	0
17	453	10	10000	1	1	0	1	0
16	454	10	10000	1	1	0	1	0
15	455	10	10000	1	1	0	1	0
15	456	10	10000	1	1	0	1	0
16	457	10	10000	1	1	0	1	0
16	458	10	10000	1	1	0	1	0
15	459	10	10000	1	1	0	1	0
15	460	10	10000	1	1	0	1	0
14	461	10	10000	1	1	0	1	0
13	462	10	10000	1	1	0	1	0
13	463	10	10000	1	1	0	1	0
14	464	10	10000	1	1	0	1	0
14	465	10	10000	1	1	0	1	0
14	466	10	10000	1	1	0	1	0
12	467	10	10000	1	1	0	1	0
12	468	10	10000	1	1	0	1	0
12	469	10	10000	1	1	0	1	0
12	470	10	10000	1	1	0	1	0
12	471	10	10000	1	1	0	1	0
13	472	10	10000	1	1	0	1	0
14	473	10	10000	1	1	0	1	0
13	474	10	10000	1	1	0	1	0
13	475	10	10000	1	1	0	1	0
14	476	10	10000	1	1	0	1	0
16	477	10	10000	1	1	0	1	0
15	478	10	10000	1	1	0	1	0
14	479	10	10000	1	1	0	1	0
13	480	10	10000	1	1	0	1	0
14	481	10	10000	1	1	0	1	0
15	482	10	10000	1	1	0	1	0
15	483	10	10000	1	1	0	1	0
18	484	10	10000	1	1	0	1	0
19	485	10	10000	1	1	0	1	0
19	486	10	10000	1	1	0	1	0
16	487	10	10000	1	1	0	1	0
17	488	10	10000	1	1	0	1	0
16	489	10	10000	1	1	0	1	0
17	490	10	10000	1	1	0	1	0
18	491	10	10000	1	1	0	1	0
17	492	10	10000	1	1	0	1	0
18	493	10	10000	1	1	0	1	0
18	494	10	10000	1	1	0	1	0
17	495	10	10000	1	1	0	1	0
16	496	10	10000	1	1	0	1	0
18	497	10	10000	1	1	0	1	0
17	498	10	10000	1	1	0	1	0
17	499	10	10000	1	1	0	1	0
17	500	10	10000	1	1	0	1	0
18	555	10	10000	1	1	0	1	1
18	556	10	10000	1	1	0	1	1
18	557	10	10000	1	1	0	1	1
21	558	10	10000	1	1	0	1	1
24	559	10	10000	1	1	0	1	1
26	560	10	10000	1	1	0	1	1
23	561	10	10000	1	1	0	1	1
22	562	10	10000	1	1	0	1	1
22	563	10	10000	1	1	0	1	1
22	564	10	10000	1	1	0	1	1
23	565	10	10000	1	1	0	1	1
25	566	10	10000	1	1	0	1	1
28	567	10	10000	1	1	0	1	1
31	568	10	10000	1	1	0	1	1
33	569	10	10000	1	1	0	1	1
34	570	10	10000	1	1	0	1	1
38	571	10	10000	1	1	0	1	1
39	572	10	10000	1	1	0	1	1
41	573	10	10000	1	1	0	1	1
44	574	10	10000	1	1	0	1	1
47	575	10	10000	1	1	0	1	1
49	576	10	10000	1	1	0	1	1
51	577	10	10000	1	1	0	1	1
55	578	10	10000	1	1	0	1	1
60	579	10	10000	1	1	0	1	1
66	580	10	10000	1	1	0	1	1
69	581	10	10000	1	1	0	1	1
75	582	10	10000	1	1	0	1	1
78	583	10	10000	1	1	0	1	1
80	584	10	10000	1	1	0	1	1
82	585	10	10000	1	1	0	1	1
84	586	10	10000	1	1	0	1	1
86	587	10	10000	1	1	0	1	1
87	588	10	10000	1	1	0	1	1
91	589	10	10000	1	1	0	1	1
94	590	10	10000	1	1	0	1	1
99	591	10	10000	1	1	0	1	1
101	592	10	10000	1	1	0	1	1
102	593	10	10000	1	1	0	1	1
100	594	10	10000	1	1	0	1	1
98	595	10	10000	1	1	0	1	1
95	596	10	10000	1	1	0	1	1
91	597	10	10000	1	1	0	1	1
88	598	10	10000	1	1	0	1	1
85	599	10	10000	1	1	0	1	1
82	600	10	10000	1	1	0	1	1
76	601	10	10000	1	1	0	1	1
74	602	10	10000	1	1	0	1	1
71	603	10	10000	1	1	0	1	1
68	604	10	10000	1	1	0	1	1
67	605	10	10000	1	1	0	1	1
65	606	10	10000	1	1	0	1	1
66	607	10	10000	1	1	0	1	1
68	608	10	10000	1	1	0	1	1
68	609	10	10000	1	1	0	1	1
69	610	10	10000	1	1	0	1	1
73	559	10	10000	1	1	0	1	0
74	560	10	10000	1	1	0	1	0
75	561	10	10000	1	1	0	1	0
77	562	10	10000	1	1	0	1	0
78	561	10	10000	1	1	0	1	0
80	562	10	10000	1	1	0	1	0
80	563	10	10000	1	1	0	1	0
82	564	10	10000	1	1	0	1	0
85	565	10	10000	1	1	0	1	0
86	566	10	10000	1	1	0	1	0
85	567	10	10000	1	1	0	1	0
88	568	10	10000	1	1	0	1	0
90	569	10	10000	1	1	0	1	0
93	570	10	10000	1	1	0	1	0
94	571	10	10000	1	1	0	1	0
95	572	10	10000	1	1	0	1	0
97	573	10	10000	1	1	0	1	0
96	574	10	10000	1	1	0	1	0
97	575	10	10000	1	1	0	1	0
98	576	10	10000	1	1	0	1	0
100	577	10	10000	1	1	0	1	0
99	578	10	10000	1	1	0	1	0
98	579	10	10000	1	1	0	1	0
97	580	10	10000	1	1	0	1	0
96	581	10	10000	1	1	0	1	0
96	582	10	10000	1	1	0	1	0
96	583	10	10000	1	1	0	1	0
95	584	10	10000	1	1	0	1	0
93	585	10	10000	1	1	0	1	0
92	586	10	10000	1	1	0	1	0
88	587	10	10000	1	1	0	1	0
86	588	10	10000	1	1	0	1	0
86	589	10	10000	1	1	0	1	0
85	590	10	10000	1	1	0	1	0
84	591	10	10000	1	1	0	1	0
84	592	10	10000	1	1	0	1	0
84	593	10	10000	1	1	0	1	0
80	594	10	10000	1	1	0	1	0
77	595	10	10000	1	1	0	1	0
74	596	10	10000	1	1	0	1	0
73	597	10	10000	1	1	0	1	0
70	598	10	10000	1	1	0	1	0
69	599	10	10000	1	1	0	1	0
67	600	10	10000	1	1	0	1	0
66	601	10	10000	1	1	0	1	0
64	602	10	10000	1	1	0	1	0
63	603	10	10000	1	1	0	1	0
63	604	10	10000	1	1	0	1	0
62	605	10	10000	1	1	0	1	0
60	606	10	10000	1	1	0	1	0
57	607	10	10000	1	1	0	1	0
56	608	10	10000	1	1	0	1	0
56	609	10	10000	1	1	0	1	0
56	610	10	10000	1	1	0	1	0
54	611	10	10000	1	1	0	1	0
52	612	10	10000	1	1	0	1	0
51	613	10	10000	1	1	0	1	0
49	614	10	10000	1	1	0	1	0
47	615	10	10000	1	1	0	1	0
44	616	10	10000	1	1	0	1	0
44	617	10	10000	1	1	0	1	0
43	618	10	10000	1	1	0	1	0
41	619	10	10000	1	1	0	1	0
39	620	10	10000	1	1	0	1	0
37	621	10	10000	1	1	0	1	0
36	622	10	10000	1	1	0	1	0
34	623	10	10000	1	1	0	1	0
33	624	10	10000	1	1	0	1	0
33	625	10	10000	1	1	0	1	0
33	626	10	10000	1	1	0	1	0
31	627	10	10000	1	1	0	1	0
31	628	10	10000	1	1	0	1	0
30	629	10	10000	1	1	0	1	0
29	630	10	10000	1	1	0	1	0
28	631	10	10000	1	1	0	1	0
28	632	10	10000	1	1	0	1	0
28	633	10	10000	1	1	0	1	0
27	634	10	10000	1	1	0	1	0
25	635	10	10000	1	1	0	1	0
24	636	10	10000	1	1	0	1	0
25	637	10	10000	1	1	0	1	0
24	638	10	10000	1	1	0	1	0
23	639	10	10000	1	1	0	1	0
23	640	10	10000	1	1	0	1	0
24	641	10	10000	1	1	0	1	0
28	642	10	10000	1	1	0	1	0
31	643	10	10000	1	1	0	1	0
40	644	10	10000	1	1	0	1	0
53	645	10	10000	1	1	0	1	0
70	646	10	10000	1	1	0	1	0
85	647	10	10000	1	1	0	1	0
88	648	10	10000	1	1	0	1	0
88	649	10	10000	1	1	0	1	0
95	650	10	10000	1	1	0	1	0
103	651	10	10000	1	1	0	1	0
152	652	10	10000	1	1	0	1	0
212	653	10	10000	1	1	0	1	0
217	654	10	10000	1	1	0	1	0
229	655	10	10000	1	1	0	1	0
226	656	10	10000	1	1	0	1	0
258	657	10	10000	1	1	0	1	0
294	658	10	10000	1	1	0	1	0
300	659	10	10000	1	1	0	1	0
297	660	10	10000	1	1	0	1	0
293	661	10	10000	1	1	0	1	0
291	662	10	10000	1	1	0	1	0
293	663	10	10000	1	1	0	1	0
295	664	10	10000	1	1	0	1	0
303	665	10	10000	1	1	0	1	0
295	666	10	10000	1	1	0	1	0
307	667	10	10000	1	1	0	1	0
321	668	10	10000	1	1	0	1	0
342	669	10	10000	1	1	0	1	0
367	670	10	10000	1	1	0	1	0
386	671	10	10000	1	1	0	1	0
397	672	10	10000	1	1	0	1	0
399	673	10	10000	1	1	0	1	0
446	674	10	10000	1	1	0	1	0
488	675	10	10000	1	1	0	1	0
512	676	10	10000	1	1	0	1	0
520	677	10	10000	1	1	0	1	0
509	678	10	10000	1	1	0	1	0
541	679	10	10000	1	1	0	1	0
568	680	10	10000	1	1	0	1	0
625	681	10	10000	1	1	0	1	0
730	682	10	10000	1	1	0	1	0
777	683	10	10000	1	1	0	1	0
774	684	10	10000	1	1	0	1	0
766	685	10	10000	1	1	0	1	0
774	686	10	10000	1	1	0	1	0
787	687	10	10000	1	1	0	1	0
789	688	10	10000	1	1	0	1	0
773	689	10	10000	1	1	0	1	0
746	690	10	10000	1	1	0	1	0
717	691	10	10000	1	1	0	1	0
690	692	10	10000	1	1	0	1	0
664	693	10	10000	1	1	0	1	0
636	694	10	10000	1	1	0	1	0
613	695	10	10000	1	1	0	1	0
601	696	10	10000	1	1	0	1	0
589	697	10	10000	1	1	0	1	0
586	698	10	10000	1	1	0	1	0
603	699	10	10000	1	1	0	1	0
610	700	10	10000	1	1	0	1	0
587	701	10	10000	1	1	0	1	0
608	702	10	10000	1	1	0	1	0
668	703	10	10000	1	1	0	1	0
676	704	10	10000	1	1	0	1	0
655	705	10	10000	1	1	0	1	0
628	706	10	10000	1	1	0	1	0
640	707	10	10000	1	1	0	1	0
719	708	10	10000	1	1	0	1	0
806	709	10	10000	1	1	0	1	0
854	710	10	10000	1	1	0	1	0
870	711	10	10000	1	1	0	1	0
875	712	10	10000	1	1	0	1	0
867	713	10	10000	1	1	0	1	0
844	714	10	10000	1	1	0	1	0
817	715	10	10000	1	1	0	1	0
788	716	10	10000	1	1	0	1	0
756	717	10	10000	1	1	0	1	0
724	718	10	10000	1	1	0	1	0
707	719	10	10000	1	1	0	1	0
716	720	10	10000	1	1	0	1	0
716	721	10	10000	1	1	0	1	0
688	722	10	10000	1	1	0	1	0
661	723	10	10000	1	1	0	1	0
636	724	10	10000	1	1	0	1	0
629	725	10	10000	1	1	0	1	0
620	726	10	10000	1	1	0	1	0
605	727	10	10000	1	1	0	1	0
617	728	10	10000	1	1	0	1	0
596	729	10	10000	1	1	0	1	0
586	730	10	10000	1	1	0	1	0
577	731	10	10000	1	1	0	1	0
600	732	10	10000	1	1	0	1	0
615	733	10	10000	1	1	0	1	0
616	734	10	10000	1	1	0	1	0
686	735	10	10000	1	1	0	1	0
773	736	10	10000	1	1	0	1	0
806	737	10	10000	1	1	0	1	0
811	738	10	10000	1	1	0	1	0
803	739	10	10000	1	1	0	1	0
833	740	10	10000	1	1	0	1	0
818	741	10	10000	1	1	0	1	0
832	742	10	10000	1	1	0	1	0
855	743	10	10000	1	1	0	1	0
874	744	10	10000	1	1	0	1	0
851	745	10	10000	1	1	0	1	0
845	746	10	10000	1	1	0	1	0
862	747	10	10000	1	1	0	1	0
862	748	10	10000	1	1	0	1	0
877	749	10	10000	1	1	0	1	0
860	750	10	10000	1	1	0	1	0
841	751	10	10000	1	1	0	1	0
892	752	10	10000	1	1	0	1	0
880	753	10	10000	1	1	0	1	0
907	754	10	10000	1	1	0	1	0
938	755	10	10000	1	1	0	1	0
942	756	10	10000	1	1	0	1	0
920	757	10	10000	1	1	0	1	0
886	758	10	10000	1	1	0	1	0
850	759	10	10000	1	1	0	1	0
812	760	10	10000	1	1	0	1	0
784	761	10	10000	1	1	0	1	0
760	762	10	10000	1	1	0	1	0
736	763	10	10000	1	1	0	1	0
716	764	10	10000	1	1	0	1	0
697	765	10	10000	1	1	0	1	0
676	766	10	10000	1	1	0	1	0
660	767	10	10000	1	1	0	1	0
654	768	10	10000	1	1	0	1	0
648	769	10	10000	1	1	0	1	0
636	770	10	10000	1	1	0	1	0
628	771	10	10000	1	1	0	1	0
618	772	10	10000	1	1	0	1	0
607	773	10	10000	1	1	0	1	0
596	774	10	10000	1	1	0	1	0
587	775	10	10000	1	1	0	1	0
581	776	10	10000	1	1	0	1	0
576	777	10	10000	1	1	0	1	0
570	778	10	10000	1	1	0	1	0
562	779	10	10000	1	1	0	1	0
554	780	10	10000	1	1	0	1	0
546	781	10	10000	1	1	0	1	0
537	782	10	10000	1	1	0	1	0
526	783	10	10000	1	1	0	1	0
516	784	10	10000	1	1	0	1	0
503	785	10	10000	1	1	0	1	0
493	786	10	10000	1	1	0	1	0
481	787	10	10000	1	1	0	1	0
469	788	10	10000	1	1	0	1	0
454	789	10	10000	1	1	0	1	0
439	790	10	10000	1	1	0	1	0
425	791	10	10000	1	1	0	1	0
412	792	10	10000	1	1	0	1	0
399	793	10	10000	1	1	0	1	0
385	794	10	10000	1	1	0	1	0
372	795	10	10000	1	1	0	1	0
361	796	10	10000	1	1	0	1	0
353	797	10	10000	1	1	0	1	0
345	798	10	10000	1	1	0	1	0
340	799	10	10000	1	1	0	1	0
337	800	10	10000	1	1	0	1	0
336	801	10	10000	1	1	0	1	0
337	802	10	10000	1	1	0	1	0
338	803	10	10000	1	1	0	1	0
340	804	10	10000	1	1	0	1	0
344	805	10	10000	1	1	0	1	0
348	806	10	10000	1	1	0	1	0
348	807	10	10000	1	1	0	1	0
351	808	10	10000	1	1	0	1	0
356	809	10	10000	1	1	0	1	0
360	810	10	10000	1	1	0	1	0
364	811	10	10000	1	1	0	1	0
368	812	10	10000	1	1	0	1	0
372	813	10	10000	1	1	0	1	0
377	814	10	10000	1	1	0	1	0
381	815	10	10000	1	1	0	1	0
386	816	10	10000	1	1	0	1	0
394	817	10	10000	1	1	0	1	0
400	818	10	10000	1	1	0	1	0
402	819	10	10000	1	1	0	1	0
405	820	10	10000	1	1	0	1	0
411	821	10	10000	1	1	0	1	0
415	822	10	10000	1	1	0	1	0
419	823	10	10000	1	1	0	1	0
424	824	10	10000	1	1	0	1	0
428	825	10	10000	1	1	0	1	0
433	826	10	10000	1	1	0	1	0
434	827	10	10000	1	1	0	1	0
435	828	10	10000	1	1	0	1	0
435	829	10	10000	1	1	0	1	0
437	830	10	10000	1	1	0	1	0
438	831	10	10000	1	1	0	1	0
438	832	10	10000	1	1	0	1	0
439	833	10	10000	1	1	0	1	0
438	834	10	10000	1	1	0	1	0
437	835	10	10000	1	1	0	1	0
435	836	10	10000	1	1	0	1	0
437	837	10	10000	1	1	0	1	0
435	838	10	10000	1	1	0	1	0
432	839	10	10000	1	1	0	1	0
429	840	10	10000	1	1	0	1	0
426	841	10	10000	1	1	0	1	0
421	842	10	10000	1	1	0	1	0
416	843	10	10000	1	1	0	1	0
412	844	10	10000	1	1	0	1	0
408	845	10	10000	1	1	0	1	0
403	846	10	10000	1	1	0	1	0
396	847	10	10000	1	1	0	1	0
391	848	10	10000	1	1	0	1	0
384	849	10	10000	1	1	0	1	0
377	850	10	10000	1	1	0	1	0
368	851	10	10000	1	1	0	1	0
359	852	10	10000	1	1	0	1	0
348	853	10	10000	1	1	0	1	0
337	854	10	10000	1	1	0	1	0
327	855	10	10000	1	1	0	1	0
317	856	10	10000	1	1	0	1	0
308	857	10	10000	1	1	0	1	0
297	858	10	10000	1	1	0	1	0
288	859	10	10000	1	1	0	1	0
276	860	10	10000	1	1	0	1	0
265	861	10	10000	1	1	0	1	0
253	862	10	10000	1	1	0	1	0
242	863	10	10000	1	1	0	1	0
231	864	10	10000	1	1	0	1	0
221	865	10	10000	1	1	0	1	0
212	866	10	10000	1	1	0	1	0
200	867	10	10000	1	1	0	1	0
191	868	10	10000	1	1	0	1	0
184	869	10	10000	1	1	0	1	0
179	870	10	10000	1	1	0	1	0
178	871	10	10000	1	1	0	1	0
176	872	10	10000	1	1	0	1	0
177	873	10	10000	1	1	0	1	0
176	874	10	10000	1	1	0	1	0
176	875	10	10000	1	1	0	1	0
176	876	10	10000	1	1	0	1	0
176	877	10	10000	1	1	0	1	0
177	878	10	10000	1	1	0	1	0
178	879	10	10000	1	1	0	1	0
179	880	10	10000	1	1	0	1	0
181	881	10	10000	1	1	0	1	0
181	882	10	10000	1	1	0	1	0
183	883	10	10000	1	1	0	1	0
187	884	10	10000	1	1	0	1	0
190	885	10	10000	1	1	0	1	0
194	886	10	10000	1	1	0	1	0
194	887	10	10000	1	1	0	1	0
196	888	10	10000	1	1	0	1	0
197	889	10	10000	1	1	0	1	0
199	890	10	10000	1	1	0	1	0
199	891	10	10000	1	1	0	1	0
200	892	10	10000	1	1	0	1	0
203	893	10	10000	1	1	0	1	0
205	894	10	10000	1	1	0	1	0
209	895	10	10000	1	1	0	1	0
213	896	10	10000	1	1	0	1	0
219	897	10	10000	1	1	0	1	0
223	898	10	10000	1	1	0	1	0
226	899	10	10000	1	1	0	1	0
229	900	10	10000	1	1	0	1	0
232	901	10	10000	1	1	0	1	0
235	902	10	10000	1	1	0	1	0
235	903	10	10000	1	1	0	1	0
237	904	10	10000	1	1	0	1	0
237	905	10	10000	1	1	0	1	0
238	906	10	10000	1	1	0	1	0
236	907	10	10000	1	1	0	1	0
235	908	10	10000	1	1	0	1	0
234	909	10	10000	1	1	0	1	0
233	910	10	10000	1	1	0	1	0
231	911	10	10000	1	1	0	1	0
229	912	10	10000	1	1	0	1	0
227	913	10	10000	1	1	0	1	0
225	914	10	10000	1	1	0	1	0
223	915	10	10000	1	1	0	1	0
220	916	10	10000	1	1	0	1	0
220	917	10	10000	1	1	0	1	0
217	918	10	10000	1	1	0	1	0
213	919	10	10000	1	1	0	1	0
207	920	10	10000	1	1	0	1	0
202	921	10	10000	1	1	0	1	0
199	922	10	10000	1	1	0	1	0
197	923	10	10000	1	1	0	1	0
195	924	10	10000	1	1	0	1	0
193	925	10	10000	1	1	0	1	0
190	926	10	10000	1	1	0	1	0
183	927	10	10000	1	1	0	1	0
181	928	10	10000	1	1	0	1	0
179	929	10	10000	1	1	0	1	0
177	930	10	10000	1	1	0	1	0
175	931	10	10000	1	1	0	1	0
173	932	10	10000	1	1	0	1	0
170	933	10	10000	1	1	0	1	0
167	934	10	10000	1	1	0	1	0
164	935	10	10000	1	1	0	1	0
161	936	10	10000	1	1	0	1	0
162	937	10	10000	1	1	0	1	0
159	938	10	10000	1	1	0	1	0
155	939	10	10000	1	1	0	1	0
152	940	10	10000	1	1	0	1	0
150	941	10	10000	1	1	0	1	0
147	942	10	10000	1	1	0	1	0
143	943	10	10000	1	1	0	1	0
140	944	10	10000	1	1	0	1	0
136	945	10	10000	1	1	0	1	0
133	946	10	10000	1	1	0	1	0
128	947	10	10000	1	1	0	1	0
126	948	10	10000	1	1	0	1	0
124	949	10	10000	1	1	0	1	0
122	950	10	10000	1	1	0	1	0
118	951	10	10000	1	1	0	1	0
115	952	10	10000	1	1	0	1	0
111	953	10	10000	1	1	0	1	0
106	954	10	10000	1	1	0	1	0
102	955	10	10000	1	1	0	1	0
99	956	10	10000	1	1	0	1	0
98	957	10	10000	1	1	0	1	0
96	958	10	10000	1	1	0	1	0
92	959	10	10000	1	1	0	1	0
89	960	10	10000	1	1	0	1	0
86	961	10	10000	1	1	0	1	0
82	962	10	10000	1	1	0	1	0
78	963	10	10000	1	1	0	1	0
76	964	10	10000	1	1	0	1	0
75	965	10	10000	1	1	0	1	0
73	966	10	10000	1	1	0	1	0
68	967	10	10000	1	1	0	1	0
65	968	10	10000	1	1	0	1	0
64	969	10	10000	1	1	0	1	0
64	970	10	10000	1	1	0	1	0
62	971	10	10000	1	1	0	1	0
59	972	10	10000	1	1	0	1	0
58	973	10	10000	1	1	0	1	0
56	974	10	10000	1	1	0	1	0
55	975	10	10000	1	1	0	1	0
53	976	10	10000	1	1	0	1	0
55	977	10	10000	1	1	0	1	0
55	978	10	10000	1	1	0	1	0
56	979	10	10000	1	1	0	1	0
56	980	10	10000	1	1	0	1	0
57	981	10	10000	1	1	0	1	0
57	982	10	10000	1	1	0	1	0
56	983	10	10000	1	1	0	1	0
56	984	10	10000	1	1	0	1	0
58	985	10	10000	1	1	0	1	0
60	986	10	10000	1	1	0	1	0
60	987	10	10000	1	1	0	1	0
62	988	10	10000	1	1	0	1	0
65	989	10	10000	1	1	0	1	0
67	990	10	10000	1	1	0	1	0
69	990	10	10000	1	1	0	1	0
71	991	10	10000	1	1	0	1	0
73	993	10	10000	1	1	0	1	0
73	994	10	10000	1	1	0	1	0
73	995	10	10000	1	1	0	1	0
73	996	10	10000	1	1	0	1	0
75	997	10	10000	1	1	0	1	0
74	998	10	10000	1	1	0	1	0
73	999	10	10000	1	1	0	1	0
74	1000	10	10000	1	1	0	1	0
74	1000	10	10000	1	1	0	1	0
31	1	0	10000	2	1	0	2	0
31	2	0	10000	2	1	0	2	0
32	3	0	10000	2	1	0	2	0
32	4	0	10000	2	1	0	2	0
30	5	0	10000	2	1	0	2	0
29	6	0	10000	2	1	0	2	0
29	7	0	10000	2	1	0	2	0
28	8	0	10000	2	1	0	2	0
27	9	0	10000	2	1	0	2	0
27	10	0	10000	2	1	0	2	0
27	11	0	10000	2	1	0	2	0
27	12	0	10000	2	1	0	2	0
25	13	0	10000	2	1	0	2	0
25	14	0	10000	2	1	0	2	0
25	15	0	10000	2	1	0	2	0
24	16	0	10000	2	1	0	2	0
24	17	0	10000	2	1	0	2	0
25	18	0	10000	2	1	0	2	0
26	19	0	10000	2	1	0	2	0
26	20	0	10000	2	1	0	2	0
26	21	0	10000	2	1	0	2	0
25	22	0	10000	2	1	0	2	0
27	23	0	10000	2	1	0	2	0
28	24	0	10000	2	1	0	2	0
30	25	0	10000	2	1	0	2	0
32	26	0	10000	2	1	0	2	0
36	27	0	10000	2	1	0	2	0
37	28	0	10000	2	1	0	2	0
37	29	0	10000	2	1	0	2	0
37	30	0	10000	2	1	0	2	0
37	31	0	10000	2	1	0	2	0
37	32	0	10000	2	1	0	2	0
33	33	0	10000	2	1	0	2	0
32	34	0	10000	2	1	0	2	0
31	35	0	10000	2	1	0	2	0
31	36	0	10000	2	1	0	2	0
31	37	0	10000	2	1	0	2	0
30	38	0	10000	2	1	0	2	0
31	39	0	10000	2	1	0	2	0
31	40	0	10000	2	1	0	2	0
32	41	0	10000	2	1	0	2	0
33	42	0	10000	2	1	0	2	0
36	43	0	10000	2	1	0	2	0
35	44	0	10000	2	1	0	2	0
34	45	0	10000	2	1	0	2	0
32	46	0	10000	2	1	0	2	0
31	47	0	10000	2	1	0	2	0
30	48	0	10000	2	1	0	2	0
28	49	0	10000	2	1	0	2	0
29	50	0	10000	2	1	0	2	0
30	51	0	10000	2	1	0	2	0
30	52	0	10000	2	1	0	2	0
30	53	0	10000	2	1	0	2	0
32	54	0	10000	2	1	0	2	0
32	55	0	10000	2	1	0	2	0
34	56	0	10000	2	1	0	2	0
35	57	0	10000	2	1	0	2	0
36	58	0	10000	2	1	0	2	0
37	59	0	10000	2	1	0	2	0
36	60	0	10000	2	1	0	2	0
36	61	0	10000	2	1	0	2	0
35	62	0	10000	2	1	0	2	0
37	63	0	10000	2	1	0	2	0
36	64	0	10000	2	1	0	2	0
34	65	0	10000	2	1	0	2	0
34	66	0	10000	2	1	0	2	0
32	67	0	10000	2	1	0	2	0
31	68	0	10000	2	1	0	2	0
30	69	0	10000	2	1	0	2	0
29	70	0	10000	2	1	0	2	0
28	71	0	10000	2	1	0	2	0
28	72	0	10000	2	1	0	2	0
24	73	0	10000	2	1	0	2	0
24	74	0	10000	2	1	0	2	0
24	75	0	10000	2	1	0	2	0
23	76	0	10000	2	1	0	2	0
23	77	0	10000	2	1	0	2	0
24	78	0	10000	2	1	0	2	0
24	79	0	10000	2	1	0	2	0
22	80	0	10000	2	1	0	2	0
23	81	0	10000	2	1	0	2	0
24	82	0	10000	2	1	0	2	0
27	83	0	10000	2	1	0	2	0
28	84	0	10000	2	1	0	2	0
28	85	0	10000	2	1	0	2	0
27	86	0	10000	2	1	0	2	0
28	87	0	10000	2	1	0	2	0
27	88	0	10000	2	1	0	2	0
27	89	0	10000	2	1	0	2	0
28	90	0	10000	2	1	0	2	0
28	91	0	10000	2	1	0	2	0
27	92	0	10000	2	1	0	2	0
25	93	0	10000	2	1	0	2	0
24	94	0	10000	2	1	0	2	0
24	95	0	10000	2	1	0	2	0
24	96	0	10000	2	1	0	2	0
25	97	0	10000	2	1	0	2	0
25	98	0	10000	2	1	0	2	0
25	99	0	10000	2	1	0	2	0
25	100	0	10000	2	1	0	2	0
26	101	0	10000	2	1	0	2	0
25	102	0	10000	2	1	0	2	0
26	103	0	10000	2	1	0	2	0
25	104	0	10000	2	1	0	2	0
23	105	0	10000	2	1	0	2	0
23	106	0	10000	2	1	0	2	0
22	107	0	10000	2	1	0	2	0
21	108	0	10000	2	1	0	2	0
21	109	0	10000	2	1	0	2	0
22	110	0	10000	2	1	0	2	0
23	111	0	10000	2	1	0	2	0
25	112	0	10000	2	1	0	2	0
24	113	0	10000	2	1	0	2	0
26	114	0	10000	2	1	0	2	0
26	115	0	10000	2	1	0	2	0
27	116	0	10000	2	1	0	2	0
27	117	0	10000	2	1	0	2	0
27	118	0	10000	2	1	0	2	0
26	119	0	10000	2	1	0	2	0
24	120	0	10000	2	1	0	2	0
23	121	0	10000	2	1	0	2	0
22	122	0	10000	2	1	0	2	0
24	123	0	10000	2	1	0	2	0
23	124	0	10000	2	1	0	2	0
23	125	0	10000	2	1	0	2	0
23	126	0	10000	2	1	0	2	0
23	127	0	10000	2	1	0	2	0
22	128	0	10000	2	1	0	2	0
21	129	0	10000	2	1	0	2	0
20	130	0	10000	2	1	0	2	0
20	131	0	10000	2	1	0	2	0
21	132	0	10000	2	1	0	2	0
20	133	0	10000	2	1	0	2	0
21	134	0	10000	2	1	0	2	0
21	135	0	10000	2	1	0	2	0
20	136	0	10000	2	1	0	2	0
21	137	0	10000	2	1	0	2	0
22	138	0	10000	2	1	0	2	0
23	139	0	10000	2	1	0	2	0
23	140	0	10000	2	1	0	2	0
23	141	0	10000	2	1	0	2	0
21	142	0	10000	2	1	0	2	0
22	143	0	10000	2	1	0	2	0
21	144	0	10000	2	1	0	2	0
20	145	0	10000	2	1	0	2	0
20	146	0	10000	2	1	0	2	0
19	147	0	10000	2	1	0	2	0
19	148	0	10000	2	1	0	2	0
17	149	0	10000	2	1	0	2	0
18	150	0	10000	2	1	0	2	0
17	151	0	10000	2	1	0	2	0
17	152	0	10000	2	1	0	2	0
15	153	0	10000	2	1	0	2	0
16	154	0	10000	2	1	0	2	0
17	155	0	10000	2	1	0	2	0
18	156	0	10000	2	1	0	2	0
19	157	0	10000	2	1	0	2	0
19	158	0	10000	2	1	0	2	0
20	159	0	10000	2	1	0	2	0
19	160	0	10000	2	1	0	2	0
18	161	0	10000	2	1	0	2	0
17	162	0	10000	2	1	0	2	0
19	163	0	10000	2	1	0	2	0
18	164	0	10000	2	1	0	2	0
18	165	0	10000	2	1	0	2	0
18	166	0	10000	2	1	0	2	0
18	167	0	10000	2	1	0	2	0
18	168	0	10000	2	1	0	2	0
19	169	0	10000	2	1	0	2	0
20	170	0	10000	2	1	0	2	0
20	171	0	10000	2	1	0	2	0
20	172	0	10000	2	1	0	2	0
16	173	0	10000	2	1	0	2	0
16	174	0	10000	2	1	0	2	0
16	175	0	10000	2	1	0	2	0
17	176	0	10000	2	1	0	2	0
17	177	0	10000	2	1	0	2	0
18	178	0	10000	2	1	0	2	0
18	179	0	10000	2	1	0	2	0
17	180	0	10000	2	1	0	2	0
17	181	0	10000	2	1	0	2	0
16	182	0	10000	2	1	0	2	0
18	183	0	10000	2	1	0	2	0
17	184	0	10000	2	1	0	2	0
16	185	0	10000	2	1	0	2	0
16	186	0	10000	2	1	0	2	0
16	187	0	10000	2	1	0	2	0
17	188	0	10000	2	1	0	2	0
16	189	0	10000	2	1	0	2	0
17	190	0	10000	2	1	0	2	0
17	191	0	10000	2	1	0	2	0
18	192	0	10000	2	1	0	2	0
17	193	0	10000	2	1	0	2	0
18	194	0	10000	2	1	0	2	0
21	195	0	10000	2	1	0	2	0
22	196	0	10000	2	1	0	2	0
23	197	0	10000	2	1	0	2	0
22	198	0	10000	2	1	0	2	0
23	199	0	10000	2	1	0	2	0
21	200	0	10000	2	1	0	2	0
22	201	0	10000	2	1	0	2	0
20	202	0	10000	2	1	0	2	0
22	203	0	10000	2	1	0	2	0
22	204	0	10000	2	1	0	2	0
21	205	0	10000	2	1	0	2	0
20	206	0	10000	2	1	0	2	0
19	207	0	10000	2	1	0	2	0
19	208	0	10000	2	1	0	2	0
18	209	0	10000	2	1	0	2	0
19	210	0	10000	2	1	0	2	0
20	211	0	10000	2	1	0	2	0
20	212	0	10000	2	1	0	2	0
18	213	0	10000	2	1	0	2	0
17	214	0	10000	2	1	0	2	0
17	215	0	10000	2	1	0	2	0
17	216	0	10000	2	1	0	2	0
17	217	0	10000	2	1	0	2	0
17	218	0	10000	2	1	0	2	0
17	219	0	10000	2	1	0	2	0
17	220	0	10000	2	1	0	2	0
15	221	0	10000	2	1	0	2	0
15	222	0	10000	2	1	0	2	0
17	223	0	10000	2	1	0	2	0
17	224	0	10000	2	1	0	2	0
16	225	0	10000	2	1	0	2	0
15	226	0	10000	2	1	0	2	0
14	227	0	10000	2	1	0	2	0
14	228	0	10000	2	1	0	2	0
13	229	0	10000	2	1	0	2	0
14	230	0	10000	2	1	0	2	0
14	231	0	10000	2	1	0	2	0
14	232	0	10000	2	1	0	2	0
11	233	0	10000	2	1	0	2	0
11	234	0	10000	2	1	0	2	0
11	235	0	10000	2	1	0	2	0
11	236	0	10000	2	1	0	2	0
10	237	0	10000	2	1	0	2	0
11	238	0	10000	2	1	0	2	0
11	239	0	10000	2	1	0	2	0
10	240	0	10000	2	1	0	2	0
10	241	0	10000	2	1	0	2	0
9	242	0	10000	2	1	0	2	0
11	243	0	10000	2	1	0	2	0
11	244	0	10000	2	1	0	2	0
11	245	0	10000	2	1	0	2	0
11	246	0	10000	2	1	0	2	0
12	247	0	10000	2	1	0	2	0
11	248	0	10000	2	1	0	2	0
11	249	0	10000	2	1	0	2	0
11	250	0	10000	2	1	0	2	0
11	251	0	10000	2	1	0	2	0
12	252	0	10000	2	1	0	2	0
9	253	0	10000	2	1	0	2	0
9	254	0	10000	2	1	0	2	0
10	255	0	10000	2	1	0	2	0
10	256	0	10000	2	1	0	2	0
10	257	0	10000	2	1	0	2	0
10	258	0	10000	2	1	0	2	0
11	259	0	10000	2	1	0	2	0
10	260	0	10000	2	1	0	2	0
11	261	0	10000	2	1	0	2	0
11	262	0	10000	2	1	0	2	0
12	263	0	10000	2	1	0	2	0
12	264	0	10000	2	1	0	2	0
14	265	0	10000	2	1	0	2	0
14	266	0	10000	2	1	0	2	0
15	267	0	10000	2	1	0	2	0
17	268	0	10000	2	1	0	2	0
18	269	0	10000	2	1	0	2	0
20	270	0	10000	2	1	0	2	0
20	271	0	10000	2	1	0	2	0
20	272	0	10000	2	1	0	2	0
17	273	0	10000	2	1	0	2	0
18	274	0	10000	2	1	0	2	0
19	275	0	10000	2	1	0	2	0
19	276	0	10000	2	1	0	2	0
19	277	0	10000	2	1	0	2	0
18	278	0	10000	2	1	0	2	0
18	279	0	10000	2	1	0	2	0
17	280	0	10000	2	1	0	2	0
16	281	0	10000	2	1	0	2	0
16	282	0	10000	2	1	0	2	0
17	283	0	10000	2	1	0	2	0
18	284	0	10000	2	1	0	2	0
19	285	0	10000	2	1	0	2	0
20	286	0	10000	2	1	0	2	0
20	287	0	10000	2	1	0	2	0
20	288	0	10000	2	1	0	2	0
20	289	0	10000	2	1	0	2	0
21	290	0	10000	2	1	0	2	0
21	291	0	10000	2	1	0	2	0
22	292	0	10000	2	1	0	2	0
19	293	0	10000	2	1	0	2	0
19	294	0	10000	2	1	0	2	0
18	295	0	10000	2	1	0	2	0
19	296	0	10000	2	1	0	2	0
18	297	0	10000	2	1	0	2	0
18	298	0	10000	2	1	0	2	0
17	299	0	10000	2	1	0	2	0
17	300	0	10000	2	1	0	2	0
17	301	0	10000	2	1	0	2	0
16	302	0	10000	2	1	0	2	0
18	303	0	10000	2	1	0	2	0
17	304	0	10000	2	1	0	2	0
16	305	0	10000	2	1	0	2	0
15	306	0	10000	2	1	0	2	0
15	307	0	10000	2	1	0	2	0
14	308	0	10000	2	1	0	2	0
13	309	0	10000	2	1	0	2	0
14	310	0	10000	2	1	0	2	0
13	311	0	10000	2	1	0	2	0
13	312	0	10000	2	1	0	2	0
11	313	0	10000	2	1	0	2	0
10	314	0	10000	2	1	0	2	0
12	315	0	10000	2	1	0	2	0
14	316	0	10000	2	1	0	2	0
17	317	0	10000	2	1	0	2	0
18	318	0	10000	2	1	0	2	0
18	319	0	10000	2	1	0	2	0
17	320	0	10000	2	1	0	2	0
17	321	0	10000	2	1	0	2	0
17	322	0	10000	2	1	0	2	0
19	323	0	10000	2	1	0	2	0
19	324	0	10000	2	1	0	2	0
18	325	0	10000	2	1	0	2	0
18	326	0	10000	2	1	0	2	0
18	327	0	10000	2	1	0	2	0
17	328	0	10000	2	1	0	2	0
16	329	0	10000	2	1	0	2	0
17	330	0	10000	2	1	0	2	0
17	331	0	10000	2	1	0	2	0
17	332	0	10000	2	1	0	2	0
14	333	0	10000	2	1	0	2	0
13	334	0	10000	2	1	0	2	0
13	335	0	10000	2	1	0	2	0
14	336	0	10000	2	1	0	2	0
14	337	0	10000	2	1	0	2	0
14	338	0	10000	2	1	0	2	0
14	339	0	10000	2	1	0	2	0
14	340	0	10000	2	1	0	2	0
14	341	0	10000	2	1	0	2	0
13	342	0	10000	2	1	0	2	0
15	343	0	10000	2	1	0	2	0
14	344	0	10000	2	1	0	2	0
14	345	0	10000	2	1	0	2	0
15	346	0	10000	2	1	0	2	0
16	347	0	10000	2	1	0	2	0
16	348	0	10000	2	1	0	2	0
16	349	0	10000	2	1	0	2	0
17	350	0	10000	2	1	0	2	0
18	351	0	10000	2	1	0	2	0
18	352	0	10000	2	1	0	2	0
16	353	0	10000	2	1	0	2	0
16	354	0	10000	2	1	0	2	0
16	355	0	10000	2	1	0	2	0
17	356	0	10000	2	1	0	2	0
17	357	0	10000	2	1	0	2	0
17	358	0	10000	2	1	0	2	0
18	359	0	10000	2	1	0	2	0
17	360	0	10000	2	1	0	2	0
16	361	0	10000	2	1	0	2	0
14	362	0	10000	2	1	0	2	0
16	363	0	10000	2	1	0	2	0
16	364	0	10000	2	1	0	2	0
15	365	0	10000	2	1	0	2	0
14	366	0	10000	2	1	0	2	0
14	367	0	10000	2	1	0	2	0
13	368	0	10000	2	1	0	2	0
14	369	0	10000	2	1	0	2	0
15	370	0	10000	2	1	0	2	0
14	371	0	10000	2	1	0	2	0
15	372	0	10000	2	1	0	2	0
14	373	0	10000	2	1	0	2	0
16	374	0	10000	2	1	0	2	0
19	375	0	10000	2	1	0	2	0
21	376	0	10000	2	1	0	2	0
21	377	0	10000	2	1	0	2	0
21	378	0	10000	2	1	0	2	0
22	379	0	10000	2	1	0	2	0
21	380	0	10000	2	1	0	2	0
21	381	0	10000	2	1	0	2	0
21	382	0	10000	2	1	0	2	0
22	383	0	10000	2	1	0	2	0
22	384	0	10000	2	1	0	2	0
22	385	0	10000	2	1	0	2	0
20	386	0	10000	2	1	0	2	0
20	387	0	10000	2	1	0	2	0
20	388	0	10000	2	1	0	2	0
18	389	0	10000	2	1	0	2	0
18	390	0	10000	2	1	0	2	0
19	391	0	10000	2	1	0	2	0
19	392	0	10000	2	1	0	2	0
17	393	0	10000	2	1	0	2	0
16	394	0	10000	2	1	0	2	0
16	395	0	10000	2	1	0	2	0
16	396	0	10000	2	1	0	2	0
15	397	0	10000	2	1	0	2	0
15	398	0	10000	2	1	0	2	0
15	399	0	10000	2	1	0	2	0
14	400	0	10000	2	1	0	2	0
14	401	0	10000	2	1	0	2	0
14	402	0	10000	2	1	0	2	0
17	403	0	10000	2	1	0	2	0
18	404	0	10000	2	1	0	2	0
19	405	0	10000	2	1	0	2	0
19	406	0	10000	2	1	0	2	0
18	407	0	10000	2	1	0	2	0
18	408	0	10000	2	1	0	2	0
18	409	0	10000	2	1	0	2	0
19	410	0	10000	2	1	0	2	0
19	411	0	10000	2	1	0	2	0
18	412	0	10000	2	1	0	2	0
15	413	0	10000	2	1	0	2	0
15	414	0	10000	2	1	0	2	0
15	415	0	10000	2	1	0	2	0
15	416	0	10000	2	1	0	2	0
15	417	0	10000	2	1	0	2	0
14	418	0	10000	2	1	0	2	0
13	419	0	10000	2	1	0	2	0
13	420	0	10000	2	1	0	2	0
12	421	0	10000	2	1	0	2	0
12	422	0	10000	2	1	0	2	0
16	423	0	10000	2	1	0	2	0
16	424	0	10000	2	1	0	2	0
15	425	0	10000	2	1	0	2	0
15	426	0	10000	2	1	0	2	0
14	427	0	10000	2	1	0	2	0
13	428	0	10000	2	1	0	2	0
13	429	0	10000	2	1	0	2	0
13	430	0	10000	2	1	0	2	0
13	431	0	10000	2	1	0	2	0
13	432	0	10000	2	1	0	2	0
11	433	0	10000	2	1	0	2	0
10	434	0	10000	2	1	0	2	0
11	435	0	10000	2	1	0	2	0
11	436	0	10000	2	1	0	2	0
10	437	0	10000	2	1	0	2	0
10	438	0	10000	2	1	0	2	0
10	439	0	10000	2	1	0	2	0
9	440	0	10000	2	1	0	2	0
9	441	0	10000	2	1	0	2	0
9	442	0	10000	2	1	0	2	0
12	443	0	10000	2	1	0	2	0
12	444	0	10000	2	1	0	2	0
11	445	0	10000	2	1	0	2	0
11	446	0	10000	2	1	0	2	0
10	447	0	10000	2	1	0	2	0
10	448	0	10000	2	1	0	2	0
10	449	0	10000	2	1	0	2	0
11	450	0	10000	2	1	0	2	0
11	451	0	10000	2	1	0	2	0
13	452	0	10000	2	1	0	2	0
11	453	0	10000	2	1	0	2	0
12	454	0	10000	2	1	0	2	0
12	455	0	10000	2	1	0	2	0
13	456	0	10000	2	1	0	2	0
14	457	0	10000	2	1	0	2	0
16	458	0	10000	2	1	0	2	0
18	459	0	10000	2	1	0	2	0
17	460	0	10000	2	1	0	2	0
15	461	0	10000	2	1	0	2	0
15	462	0	10000	2	1	0	2	0
17	463	0	10000	2	1	0	2	0
19	464	0	10000	2	1	0	2	0
21	465	0	10000	2	1	0	2	0
26	466	0	10000	2	1	0	2	0
31	467	0	10000	2	1	0	2	0
36	468	0	10000	2	1	0	2	0
42	469	0	10000	2	1	0	2	0
48	470	0	10000	2	1	0	2	0
53	471	0	10000	2	1	0	2	0
57	472	0	10000	2	1	0	2	0
57	473	0	10000	2	1	0	2	0
60	474	0	10000	2	1	0	2	0
62	475	0	10000	2	1	0	2	0
64	476	0	10000	2	1	0	2	0
67	477	0	10000	2	1	0	2	0
67	478	0	10000	2	1	0	2	0
67	479	0	10000	2	1	0	2	0
65	480	0	10000	2	1	0	2	0
64	481	0	10000	2	1	0	2	0
63	482	0	10000	2	1	0	2	0
66	483	0	10000	2	1	0	2	0
67	484	0	10000	2	1	0	2	0
67	485	0	10000	2	1	0	2	0
67	486	0	10000	2	1	0	2	0
66	487	0	10000	2	1	0	2	0
63	488	0	10000	2	1	0	2	0
60	489	0	10000	2	1	0	2	0
60	490	0	10000	2	1	0	2	0
59	491	0	10000	2	1	0	2	0
58	492	0	10000	2	1	0	2	0
56	493	0	10000	2	1	0	2	0
57	494	0	10000	2	1	0	2	0
58	495	0	10000	2	1	0	2	0
60	496	0	10000	2	1	0	2	0
60	497	0	10000	2	1	0	2	0
62	498	0	10000	2	1	0	2	0
64	499	0	10000	2	1	0	2	0
64	500	0	10000	2	1	0	2	0
64	501	0	10000	2	1	0	2	1
65	502	0	10000	2	1	0	2	1
68	503	0	10000	2	1	0	2	1
69	504	0	10000	2	1	0	2	1
69	505	0	10000	2	1	0	2	1
69	506	0	10000	2	1	0	2	1
70	507	0	10000	2	1	0	2	1
70	508	0	10000	2	1	0	2	1
70	509	0	10000	2	1	0	2	1
71	510	0	10000	2	1	0	2	1
71	511	0	10000	2	1	0	2	1
72	512	0	10000	2	1	0	2	1
71	513	0	10000	2	1	0	2	1
71	514	0	10000	2	1	0	2	1
71	515	0	10000	2	1	0	2	1
72	516	0	10000	2	1	0	2	1
71	517	0	10000	2	1	0	2	1
70	518	0	10000	2	1	0	2	1
71	519	0	10000	2	1	0	2	1
70	520	0	10000	2	1	0	2	1
69	521	0	10000	2	1	0	2	1
69	522	0	10000	2	1	0	2	1
71	523	0	10000	2	1	0	2	1
70	524	0	10000	2	1	0	2	1
70	525	0	10000	2	1	0	2	1
70	526	0	10000	2	1	0	2	1
71	527	0	10000	2	1	0	2	1
72	528	0	10000	2	1	0	2	1
71	529	0	10000	2	1	0	2	1
69	530	0	10000	2	1	0	2	1
67	531	0	10000	2	1	0	2	1
64	532	0	10000	2	1	0	2	1
60	533	0	10000	2	1	0	2	1
59	534	0	10000	2	1	0	2	1
57	535	0	10000	2	1	0	2	1
54	536	0	10000	2	1	0	2	1
52	537	0	10000	2	1	0	2	1
50	538	0	10000	2	1	0	2	1
49	539	0	10000	2	1	0	2	1
46	540	0	10000	2	1	0	2	1
44	541	0	10000	2	1	0	2	1
42	542	0	10000	2	1	0	2	1
44	543	0	10000	2	1	0	2	1
42	544	0	10000	2	1	0	2	1
40	545	0	10000	2	1	0	2	1
39	546	0	10000	2	1	0	2	1
38	547	0	10000	2	1	0	2	1
36	548	0	10000	2	1	0	2	1
36	549	0	10000	2	1	0	2	1
36	550	0	10000	2	1	0	2	1
35	551	0	10000	2	1	0	2	0
34	552	0	10000	2	1	0	2	0
31	553	0	10000	2	1	0	2	0
30	554	0	10000	2	1	0	2	0
30	555	0	10000	2	1	0	2	0
29	556	0	10000	2	1	0	2	0
28	557	0	10000	2	1	0	2	0
28	558	0	10000	2	1	0	2	0
29	559	0	10000	2	1	0	2	0
29	560	0	10000	2	1	0	2	0
27	561	0	10000	2	1	0	2	0
26	562	0	10000	2	1	0	2	0
27	563	0	10000	2	1	0	2	0
26	564	0	10000	2	1	0	2	0
25	565	0	10000	2	1	0	2	0
25	566	0	10000	2	1	0	2	0
25	567	0	10000	2	1	0	2	0
24	568	0	10000	2	1	0	2	0
22	569	0	10000	2	1	0	2	0
22	570	0	10000	2	1	0	2	0
21	571	0	10000	2	1	0	2	0
21	572	0	10000	2	1	0	2	0
19	573	0	10000	2	1	0	2	0
19	574	0	10000	2	1	0	2	0
19	575	0	10000	2	1	0	2	0
18	576	0	10000	2	1	0	2	0
18	577	0	10000	2	1	0	2	0
17	578	0	10000	2	1	0	2	0
21	579	0	10000	2	1	0	2	0
25	580	0	10000	2	1	0	2	0
32	581	0	10000	2	1	0	2	0
64	582	0	10000	2	1	0	2	0
73	583	0	10000	2	1	0	2	0
81	584	0	10000	2	1	0	2	0
102	585	0	10000	2	1	0	2	0
133	586	0	10000	2	1	0	2	0
195	587	0	10000	2	1	0	2	0
269	588	0	10000	2	1	0	2	0
282	589	0	10000	2	1	0	2	0
298	590	0	10000	2	1	0	2	0
320	591	0	10000	2	1	0	2	0
313	592	0	10000	2	1	0	2	0
306	593	0	10000	2	1	0	2	0
346	594	0	10000	2	1	0	2	0
385	595	0	10000	2	1	0	2	0
381	596	0	10000	2	1	0	2	0
438	597	0	10000	2	1	0	2	0
550	598	0	10000	2	1	0	2	0
558	599	0	10000	2	1	0	2	0
610	600	0	10000	2	1	0	2	0
680	601	0	10000	2	1	0	2	0
732	602	0	10000	2	1	0	2	0
744	603	0	10000	2	1	0	2	0
731	604	0	10000	2	1	0	2	0
776	605	0	10000	2	1	0	2	0
779	606	0	10000	2	1	0	2	0
808	607	0	10000	2	1	0	2	0
886	608	0	10000	2	1	0	2	0
947	609	0	10000	2	1	0	2	0
972	610	0	10000	2	1	0	2	0
944	611	0	10000	2	1	0	2	0
932	612	0	10000	2	1	0	2	0
925	613	0	10000	2	1	0	2	0
898	614	0	10000	2	1	0	2	0
905	615	0	10000	2	1	0	2	0
920	616	0	10000	2	1	0	2	0
950	617	0	10000	2	1	0	2	0
951	618	0	10000	2	1	0	2	0
940	619	0	10000	2	1	0	2	0
919	620	0	10000	2	1	0	2	0
893	621	0	10000	2	1	0	2	0
852	622	0	10000	2	1	0	2	0
828	623	0	10000	2	1	0	2	0
818	624	0	10000	2	1	0	2	0
790	625	0	10000	2	1	0	2	0
758	626	0	10000	2	1	0	2	0
729	627	0	10000	2	1	0	2	0
696	628	0	10000	2	1	0	2	0
664	629	0	10000	2	1	0	2	0
640	630	0	10000	2	1	0	2	0
625	631	0	10000	2	1	0	2	0
604	632	0	10000	2	1	0	2	0
585	633	0	10000	2	1	0	2	0
618	634	0	10000	2	1	0	2	0
742	635	0	10000	2	1	0	2	0
829	636	0	10000	2	1	0	2	0
828	637	0	10000	2	1	0	2	0
798	638	0	10000	2	1	0	2	0
770	639	0	10000	2	1	0	2	0
754	640	0	10000	2	1	0	2	0
747	641	0	10000	2	1	0	2	0
778	642	0	10000	2	1	0	2	0
870	643	0	10000	2	1	0	2	0
961	644	0	10000	2	1	0	2	0
1024	645	0	10000	2	1	0	2	0
1042	646	0	10000	2	1	0	2	0
1048	647	0	10000	2	1	0	2	0
1056	648	0	10000	2	1	0	2	0
1049	649	0	10000	2	1	0	2	0
1023	650	0	10000	2	1	0	2	0
984	651	0	10000	2	1	0	2	0
941	652	0	10000	2	1	0	2	0
896	653	0	10000	2	1	0	2	0
855	654	0	10000	2	1	0	2	0
823	655	0	10000	2	1	0	2	0
797	656	0	10000	2	1	0	2	0
778	657	0	10000	2	1	0	2	0
768	658	0	10000	2	1	0	2	0
757	659	0	10000	2	1	0	2	0
746	660	0	10000	2	1	0	2	0
730	661	0	10000	2	1	0	2	0
747	662	0	10000	2	1	0	2	0
769	663	0	10000	2	1	0	2	0
751	664	0	10000	2	1	0	2	0
766	665	0	10000	2	1	0	2	0
801	666	0	10000	2	1	0	2	0
784	667	0	10000	2	1	0	2	0
786	668	0	10000	2	1	0	2	0
833	669	0	10000	2	1	0	2	0
860	670	0	10000	2	1	0	2	0
851	671	0	10000	2	1	0	2	0
848	672	0	10000	2	1	0	2	0
889	673	0	10000	2	1	0	2	0
942	674	0	10000	2	1	0	2	0
984	675	0	10000	2	1	0	2	0
993	676	0	10000	2	1	0	2	0
980	677	0	10000	2	1	0	2	0
950	678	0	10000	2	1	0	2	0
911	679	0	10000	2	1	0	2	0
868	680	0	10000	2	1	0	2	0
834	681	0	10000	2	1	0	2	0
806	682	0	10000	2	1	0	2	0
789	683	0	10000	2	1	0	2	0
791	684	0	10000	2	1	0	2	0
771	685	0	10000	2	1	0	2	0
743	686	0	10000	2	1	0	2	0
732	687	0	10000	2	1	0	2	0
714	688	0	10000	2	1	0	2	0
685	689	0	10000	2	1	0	2	0
655	690	0	10000	2	1	0	2	0
625	691	0	10000	2	1	0	2	0
598	692	0	10000	2	1	0	2	0
572	693	0	10000	2	1	0	2	0
550	694	0	10000	2	1	0	2	0
529	695	0	10000	2	1	0	2	0
510	696	0	10000	2	1	0	2	0
494	697	0	10000	2	1	0	2	0
479	698	0	10000	2	1	0	2	0
465	699	0	10000	2	1	0	2	0
451	700	0	10000	2	1	0	2	0
439	701	0	10000	2	1	0	2	0
430	702	0	10000	2	1	0	2	0
425	703	0	10000	2	1	0	2	0
417	704	0	10000	2	1	0	2	0
413	705	0	10000	2	1	0	2	0
409	706	0	10000	2	1	0	2	0
405	707	0	10000	2	1	0	2	0
400	708	0	10000	2	1	0	2	0
394	709	0	10000	2	1	0	2	0
389	710	0	10000	2	1	0	2	0
384	711	0	10000	2	1	0	2	0
380	712	0	10000	2	1	0	2	0
374	713	0	10000	2	1	0	2	0
371	714	0	10000	2	1	0	2	0
369	715	0	10000	2	1	0	2	0
368	716	0	10000	2	1	0	2	0
368	717	0	10000	2	1	0	2	0
368	718	0	10000	2	1	0	2	0
370	719	0	10000	2	1	0	2	0
375	720	0	10000	2	1	0	2	0
381	721	0	10000	2	1	0	2	0
387	722	0	10000	2	1	0	2	0
396	723	0	10000	2	1	0	2	0
406	724	0	10000	2	1	0	2	0
417	725	0	10000	2	1	0	2	0
426	726	0	10000	2	1	0	2	0
434	727	0	10000	2	1	0	2	0
442	728	0	10000	2	1	0	2	0
448	729	0	10000	2	1	0	2	0
452	730	0	10000	2	1	0	2	0
455	731	0	10000	2	1	0	2	0
458	732	0	10000	2	1	0	2	0
457	733	0	10000	2	1	0	2	0
459	734	0	10000	2	1	0	2	0
462	735	0	10000	2	1	0	2	0
465	736	0	10000	2	1	0	2	0
469	737	0	10000	2	1	0	2	0
473	738	0	10000	2	1	0	2	0
475	739	0	10000	2	1	0	2	0
476	740	0	10000	2	1	0	2	0
478	741	0	10000	2	1	0	2	0
480	742	0	10000	2	1	0	2	0
483	743	0	10000	2	1	0	2	0
486	744	0	10000	2	1	0	2	0
488	745	0	10000	2	1	0	2	0
489	746	0	10000	2	1	0	2	0
490	747	0	10000	2	1	0	2	0
489	748	0	10000	2	1	0	2	0
488	749	0	10000	2	1	0	2	0
488	750	0	10000	2	1	0	2	0
484	751	0	10000	2	1	0	2	0
479	752	0	10000	2	1	0	2	0
471	753	0	10000	2	1	0	2	0
466	754	0	10000	2	1	0	2	0
461	755	0	10000	2	1	0	2	0
456	756	0	10000	2	1	0	2	0
452	757	0	10000	2	1	0	2	0
449	758	0	10000	2	1	0	2	0
448	759	0	10000	2	1	0	2	0
448	760	0	10000	2	1	0	2	0
447	761	0	10000	2	1	0	2	0
445	762	0	10000	2	1	0	2	0
444	763	0	10000	2	1	0	2	0
442	764	0	10000	2	1	0	2	0
439	765	0	10000	2	1	0	2	0
436	766	0	10000	2	1	0	2	0
432	767	0	10000	2	1	0	2	0
426	768	0	10000	2	1	0	2	0
419	769	0	10000	2	1	0	2	0
409	770	0	10000	2	1	0	2	0
399	771	0	10000	2	1	0	2	0
388	772	0	10000	2	1	0	2	0
374	773	0	10000	2	1	0	2	0
363	774	0	10000	2	1	0	2	0
352	775	0	10000	2	1	0	2	0
342	776	0	10000	2	1	0	2	0
330	777	0	10000	2	1	0	2	0
319	778	0	10000	2	1	0	2	0
309	779	0	10000	2	1	0	2	0
298	780	0	10000	2	1	0	2	0
288	781	0	10000	2	1	0	2	0
279	782	0	10000	2	1	0	2	0
273	783	0	10000	2	1	0	2	0
264	784	0	10000	2	1	0	2	0
255	785	0	10000	2	1	0	2	0
245	786	0	10000	2	1	0	2	0
234	787	0	10000	2	1	0	2	0
224	788	0	10000	2	1	0	2	0
214	789	0	10000	2	1	0	2	0
208	790	0	10000	2	1	0	2	0
204	791	0	10000	2	1	0	2	0
200	792	0	10000	2	1	0	2	0
195	793	0	10000	2	1	0	2	0
192	794	0	10000	2	1	0	2	0
191	795	0	10000	2	1	0	2	0
189	796	0	10000	2	1	0	2	0
186	797	0	10000	2	1	0	2	0
184	798	0	10000	2	1	0	2	0
182	799	0	10000	2	1	0	2	0
178	800	0	10000	2	1	0	2	0
176	801	0	10000	2	1	0	2	0
173	802	0	10000	2	1	0	2	0
171	803	0	10000	2	1	0	2	0
168	804	0	10000	2	1	0	2	0
164	805	0	10000	2	1	0	2	0
159	806	0	10000	2	1	0	2	0
157	807	0	10000	2	1	0	2	0
155	808	0	10000	2	1	0	2	0
155	809	0	10000	2	1	0	2	0
157	810	0	10000	2	1	0	2	0
160	811	0	10000	2	1	0	2	0
163	812	0	10000	2	1	0	2	0
164	813	0	10000	2	1	0	2	0
166	814	0	10000	2	1	0	2	0
168	815	0	10000	2	1	0	2	0
170	816	0	10000	2	1	0	2	0
173	817	0	10000	2	1	0	2	0
174	818	0	10000	2	1	0	2	0
175	819	0	10000	2	1	0	2	0
175	820	0	10000	2	1	0	2	0
175	821	0	10000	2	1	0	2	0
174	822	0	10000	2	1	0	2	0
176	823	0	10000	2	1	0	2	0
175	824	0	10000	2	1	0	2	0
172	825	0	10000	2	1	0	2	0
171	826	0	10000	2	1	0	2	0
170	827	0	10000	2	1	0	2	0
171	828	0	10000	2	1	0	2	0
172	829	0	10000	2	1	0	2	0
174	830	0	10000	2	1	0	2	0
175	831	0	10000	2	1	0	2	0
176	832	0	10000	2	1	0	2	0
176	833	0	10000	2	1	0	2	0
179	834	0	10000	2	1	0	2	0
182	835	0	10000	2	1	0	2	0
185	836	0	10000	2	1	0	2	0
186	837	0	10000	2	1	0	2	0
188	838	0	10000	2	1	0	2	0
188	839	0	10000	2	1	0	2	0
187	840	0	10000	2	1	0	2	0
185	841	0	10000	2	1	0	2	0
183	842	0	10000	2	1	0	2	0
185	843	0	10000	2	1	0	2	0
184	844	0	10000	2	1	0	2	0
182	845	0	10000	2	1	0	2	0
179	846	0	10000	2	1	0	2	0
175	847	0	10000	2	1	0	2	0
172	848	0	10000	2	1	0	2	0
168	849	0	10000	2	1	0	2	0
166	850	0	10000	2	1	0	2	0
167	851	0	10000	2	1	0	2	0
167	852	0	10000	2	1	0	2	0
166	853	0	10000	2	1	0	2	0
167	854	0	10000	2	1	0	2	0
168	855	0	10000	2	1	0	2	0
168	856	0	10000	2	1	0	2	0
168	857	0	10000	2	1	0	2	0
168	858	0	10000	2	1	0	2	0
163	859	0	10000	2	1	0	2	0
159	860	0	10000	2	1	0	2	0
156	861	0	10000	2	1	0	2	0
155	862	0	10000	2	1	0	2	0
157	863	0	10000	2	1	0	2	0
157	864	0	10000	2	1	0	2	0
155	865	0	10000	2	1	0	2	0
153	866	0	10000	2	1	0	2	0
152	867	0	10000	2	1	0	2	0
150	868	0	10000	2	1	0	2	0
146	869	0	10000	2	1	0	2	0
146	870	0	10000	2	1	0	2	0
145	871	0	10000	2	1	0	2	0
146	872	0	10000	2	1	0	2	0
145	873	0	10000	2	1	0	2	0
145	874	0	10000	2	1	0	2	0
145	875	0	10000	2	1	0	2	0
146	876	0	10000	2	1	0	2	0
144	877	0	10000	2	1	0	2	0
143	878	0	10000	2	1	0	2	0
142	879	0	10000	2	1	0	2	0
139	880	0	10000	2	1	0	2	0
136	881	0	10000	2	1	0	2	0
134	882	0	10000	2	1	0	2	0
134	883	0	10000	2	1	0	2	0
132	884	0	10000	2	1	0	2	0
129	885	0	10000	2	1	0	2	0
127	886	0	10000	2	1	0	2	0
124	887	0	10000	2	1	0	2	0
120	888	0	10000	2	1	0	2	0
114	889	0	10000	2	1	0	2	0
109	890	0	10000	2	1	0	2	0
106	891	0	10000	2	1	0	2	0
104	892	0	10000	2	1	0	2	0
99	893	0	10000	2	1	0	2	0
97	894	0	10000	2	1	0	2	0
93	895	0	10000	2	1	0	2	0
90	896	0	10000	2	1	0	2	0
87	897	0	10000	2	1	0	2	0
84	898	0	10000	2	1	0	2	0
82	899	0	10000	2	1	0	2	0
79	900	0	10000	2	1	0	2	0
75	901	0	10000	2	1	0	2	0
71	902	0	10000	2	1	0	2	0
70	903	0	10000	2	1	0	2	0
67	904	0	10000	2	1	0	2	0
63	905	0	10000	2	1	0	2	0
61	906	0	10000	2	1	0	2	0
58	907	0	10000	2	1	0	2	0
56	908	0	10000	2	1	0	2	0
54	909	0	10000	2	1	0	2	0
53	910	0	10000	2	1	0	2	0
52	911	0	10000	2	1	0	2	0
54	912	0	10000	2	1	0	2	0
56	913	0	10000	2	1	0	2	0
61	914	0	10000	2	1	0	2	0
63	915	0	10000	2	1	0	2	0
64	916	0	10000	2	1	0	2	0
62	917	0	10000	2	1	0	2	0
60	918	0	10000	2	1	0	2	0
60	919	0	10000	2	1	0	2	0
58	920	0	10000	2	1	0	2	0
57	921	0	10000	2	1	0	2	0
56	922	0	10000	2	1	0	2	0
56	923	0	10000	2	1	0	2	0
56	924	0	10000	2	1	0	2	0
55	925	0	10000	2	1	0	2	0
54	926	0	10000	2	1	0	2	0
53	927	0	10000	2	1	0	2	0
55	928	0	10000	2	1	0	2	0
57	929	0	10000	2	1	0	2	0
64	930	0	10000	2	1	0	2	0
65	931	0	10000	2	1	0	2	0
63	932	0	10000	2	1	0	2	0
63	933	0	10000	2	1	0	2	0
64	934	0	10000	2	1	0	2	0
64	935	0	10000	2	1	0	2	0
62	936	0	10000	2	1	0	2	0
58	937	0	10000	2	1	0	2	0
58	938	0	10000	2	1	0	2	0
59	939	0	10000	2	1	0	2	0
58	940	0	10000	2	1	0	2	0
57	941	0	10000	2	1	0	2	0
55	942	0	10000	2	1	0	2	0
56	943	0	10000	2	1	0	2	0
54	944	0	10000	2	1	0	2	0
54	945	0	10000	2	1	0	2	0
52	946	0	10000	2	1	0	2	0
49	947	0	10000	2	1	0	2	0
47	948	0	10000	2	1	0	2	0
45	949	0	10000	2	1	0	2	0
45	950	0	10000	2	1	0	2	0
47	951	0	10000	2	1	0	2	0
52	952	0	10000	2	1	0	2	0
54	953	0	10000	2	1	0	2	0
56	954	0	10000	2	1	0	2	0
56	955	0	10000	2	1	0	2	0
55	956	0	10000	2	1	0	2	0
54	957	0	10000	2	1	0	2	0
53	958	0	10000	2	1	0	2	0
51	959	0	10000	2	1	0	2	0
51	960	0	10000	2	1	0	2	0
49	961	0	10000	2	1	0	2	0
47	962	0	10000	2	1	0	2	0
49	963	0	10000	2	1	0	2	0
47	964	0	10000	2	1	0	2	0
47	965	0	10000	2	1	0	2	0
46	966	0	10000	2	1	0	2	0
44	967	0	10000	2	1	0	2	0
45	968	0	10000	2	1	0	2	0
49	969	0	10000	2	1	0	2	0
55	970	0	10000	2	1	0	2	0
63	971	0	10000	2	1	0	2	0
73	972	0	10000	2	1	0	2	0
78	973	0	10000	2	1	0	2	0
77	974	0	10000	2	1	0	2	0
78	975	0	10000	2	1	0	2	0
83	976	0	10000	2	1	0	2	0
86	977	0	10000	2	1	0	2	0
88	978	0	10000	2	1	0	2	0
86	979	0	10000	2	1	0	2	0
82	980	0	10000	2	1	0	2	0
79	981	0	10000	2	1	0	2	0
74	982	0	10000	2	1	0	2	0
73	983	0	10000	2	1	0	2	0
71	984	0	10000	2	1	0	2	0
69	985	0	10000	2	1	0	2	0
66	986	0	10000	2	1	0	2	0
66	987	0	10000	2	1	0	2	0
66	988	0	10000	2	1	0	2	0
64	989	0	10000	2	1	0	2	0
63	990	0	10000	2	1	0	2	0
62	991	0	10000	2	1	0	2	0
62	992	0	10000	2	1	0	2	0
60	993	0	10000	2	1	0	2	0
57	994	0	10000	2	1	0	2	0
55	995	0	10000	2	1	0	2	0
55	996	0	10000	2	1	0	2	0
55	997	0	10000	2	1	0	2	0
55	998	0	10000	2	1	0	2	0
56	999	0	10000	2	1	0	2	0
55	1000	0	10000	2	1	0	2	0
107	1	0	10000	3	1	0	3	0
109	2	0	10000	3	1	0	3	0
112	3	0	10000	3	1	0	3	0
111	4	0	10000	3	1	0	3	0
109	5	0	10000	3	1	0	3	0
114	6	0	10000	3	1	0	3	0
118	7	0	10000	3	1	0	3	0
118	8	0	10000	3	1	0	3	0
118	9	0	10000	3	1	0	3	0
122	10	0	10000	3	1	0	3	0
130	11	0	10000	3	1	0	3	0
132	12	0	10000	3	1	0	3	0
128	13	0	10000	3	1	0	3	0
130	14	0	10000	3	1	0	3	0
132	15	0	10000	3	1	0	3	0
130	16	0	10000	3	1	0	3	0
123	17	0	10000	3	1	0	3	0
119	18	0	10000	3	1	0	3	0
116	19	0	10000	3	1	0	3	0
121	20	0	10000	3	1	0	3	0
139	21	0	10000	3	1	0	3	0
152	22	0	10000	3	1	0	3	0
151	23	0	10000	3	1	0	3	0
153	24	0	10000	3	1	0	3	0
155	25	0	10000	3	1	0	3	0
156	26	0	10000	3	1	0	3	0
159	27	0	10000	3	1	0	3	0
154	28	0	10000	3	1	0	3	0
148	29	0	10000	3	1	0	3	0
145	30	0	10000	3	1	0	3	0
140	31	0	10000	3	1	0	3	0
139	32	0	10000	3	1	0	3	0
141	33	0	10000	3	1	0	3	0
142	34	0	10000	3	1	0	3	0
141	35	0	10000	3	1	0	3	0
136	36	0	10000	3	1	0	3	0
128	37	0	10000	3	1	0	3	0
122	38	0	10000	3	1	0	3	0
117	39	0	10000	3	1	0	3	0
116	40	0	10000	3	1	0	3	0
119	41	0	10000	3	1	0	3	0
122	42	0	10000	3	1	0	3	0
128	43	0	10000	3	1	0	3	0
129	44	0	10000	3	1	0	3	0
135	45	0	10000	3	1	0	3	0
147	46	0	10000	3	1	0	3	0
155	47	0	10000	3	1	0	3	0
152	48	0	10000	3	1	0	3	0
149	49	0	10000	3	1	0	3	0
147	50	0	10000	3	1	0	3	0
144	51	0	10000	3	1	0	3	0
140	52	0	10000	3	1	0	3	0
136	53	0	10000	3	1	0	3	0
131	54	0	10000	3	1	0	3	0
126	55	0	10000	3	1	0	3	0
123	56	0	10000	3	1	0	3	0
116	57	0	10000	3	1	0	3	0
114	58	0	10000	3	1	0	3	0
118	59	0	10000	3	1	0	3	0
124	60	0	10000	3	1	0	3	0
128	61	0	10000	3	1	0	3	0
126	62	0	10000	3	1	0	3	0
126	63	0	10000	3	1	0	3	0
127	64	0	10000	3	1	0	3	0
125	65	0	10000	3	1	0	3	0
122	66	0	10000	3	1	0	3	0
119	67	0	10000	3	1	0	3	0
118	68	0	10000	3	1	0	3	0
119	69	0	10000	3	1	0	3	0
118	70	0	10000	3	1	0	3	0
116	71	0	10000	3	1	0	3	0
116	72	0	10000	3	1	0	3	0
116	73	0	10000	3	1	0	3	0
116	74	0	10000	3	1	0	3	0
113	75	0	10000	3	1	0	3	0
110	76	0	10000	3	1	0	3	0
110	77	0	10000	3	1	0	3	0
117	78	0	10000	3	1	0	3	0
121	79	0	10000	3	1	0	3	0
119	80	0	10000	3	1	0	3	0
121	81	0	10000	3	1	0	3	0
125	82	0	10000	3	1	0	3	0
135	83	0	10000	3	1	0	3	0
145	84	0	10000	3	1	0	3	0
143	85	0	10000	3	1	0	3	0
140	86	0	10000	3	1	0	3	0
140	87	0	10000	3	1	0	3	0
137	88	0	10000	3	1	0	3	0
136	89	0	10000	3	1	0	3	0
142	90	0	10000	3	1	0	3	0
146	91	0	10000	3	1	0	3	0
141	92	0	10000	3	1	0	3	0
140	93	0	10000	3	1	0	3	0
154	94	0	10000	3	1	0	3	0
175	95	0	10000	3	1	0	3	0
196	96	0	10000	3	1	0	3	0
213	97	0	10000	3	1	0	3	0
225	98	0	10000	3	1	0	3	0
224	99	0	10000	3	1	0	3	0
222	100	0	10000	3	1	0	3	0
218	101	0	10000	3	1	0	3	0
211	102	0	10000	3	1	0	3	0
204	103	0	10000	3	1	0	3	0
200	104	0	10000	3	1	0	3	0
205	105	0	10000	3	1	0	3	0
210	106	0	10000	3	1	0	3	0
211	107	0	10000	3	1	0	3	0
211	108	0	10000	3	1	0	3	0
216	109	0	10000	3	1	0	3	0
237	110	0	10000	3	1	0	3	0
247	111	0	10000	3	1	0	3	0
241	112	0	10000	3	1	0	3	0
238	113	0	10000	3	1	0	3	0
246	114	0	10000	3	1	0	3	0
246	115	0	10000	3	1	0	3	0
243	116	0	10000	3	1	0	3	0
247	117	0	10000	3	1	0	3	0
255	118	0	10000	3	1	0	3	0
261	119	0	10000	3	1	0	3	0
260	120	0	10000	3	1	0	3	0
253	121	0	10000	3	1	0	3	0
247	122	0	10000	3	1	0	3	0
237	123	0	10000	3	1	0	3	0
227	124	0	10000	3	1	0	3	0
218	125	0	10000	3	1	0	3	0
208	126	0	10000	3	1	0	3	0
201	127	0	10000	3	1	0	3	0
197	128	0	10000	3	1	0	3	0
193	129	0	10000	3	1	0	3	0
185	130	0	10000	3	1	0	3	0
180	131	0	10000	3	1	0	3	0
175	132	0	10000	3	1	0	3	0
170	133	0	10000	3	1	0	3	0
169	134	0	10000	3	1	0	3	0
165	135	0	10000	3	1	0	3	0
166	136	0	10000	3	1	0	3	0
159	137	0	10000	3	1	0	3	0
154	138	0	10000	3	1	0	3	0
155	139	0	10000	3	1	0	3	0
159	140	0	10000	3	1	0	3	0
162	141	0	10000	3	1	0	3	0
163	142	0	10000	3	1	0	3	0
159	143	0	10000	3	1	0	3	0
152	144	0	10000	3	1	0	3	0
146	145	0	10000	3	1	0	3	0
140	146	0	10000	3	1	0	3	0
136	147	0	10000	3	1	0	3	0
131	148	0	10000	3	1	0	3	0
129	149	0	10000	3	1	0	3	0
128	150	0	10000	3	1	0	3	0
122	151	0	10000	3	1	0	3	0
117	152	0	10000	3	1	0	3	0
113	153	0	10000	3	1	0	3	0
109	154	0	10000	3	1	0	3	0
105	155	0	10000	3	1	0	3	0
101	156	0	10000	3	1	0	3	0
94	157	0	10000	3	1	0	3	0
91	158	0	10000	3	1	0	3	0
89	159	0	10000	3	1	0	3	0
86	160	0	10000	3	1	0	3	0
85	161	0	10000	3	1	0	3	0
83	162	0	10000	3	1	0	3	0
81	163	0	10000	3	1	0	3	0
79	164	0	10000	3	1	0	3	0
80	165	0	10000	3	1	0	3	0
84	166	0	10000	3	1	0	3	0
84	167	0	10000	3	1	0	3	0
82	168	0	10000	3	1	0	3	0
80	169	0	10000	3	1	0	3	0
77	170	0	10000	3	1	0	3	0
75	171	0	10000	3	1	0	3	0
75	172	0	10000	3	1	0	3	0
77	173	0	10000	3	1	0	3	0
77	174	0	10000	3	1	0	3	0
74	175	0	10000	3	1	0	3	0
75	176	0	10000	3	1	0	3	0
74	177	0	10000	3	1	0	3	0
74	178	0	10000	3	1	0	3	0
76	179	0	10000	3	1	0	3	0
76	180	0	10000	3	1	0	3	0
75	181	0	10000	3	1	0	3	0
77	182	0	10000	3	1	0	3	0
79	183	0	10000	3	1	0	3	0
79	184	0	10000	3	1	0	3	0
79	185	0	10000	3	1	0	3	0
80	186	0	10000	3	1	0	3	0
85	187	0	10000	3	1	0	3	0
87	188	0	10000	3	1	0	3	0
88	189	0	10000	3	1	0	3	0
90	190	0	10000	3	1	0	3	0
93	191	0	10000	3	1	0	3	0
96	192	0	10000	3	1	0	3	0
98	193	0	10000	3	1	0	3	0
99	194	0	10000	3	1	0	3	0
99	195	0	10000	3	1	0	3	0
99	196	0	10000	3	1	0	3	0
97	197	0	10000	3	1	0	3	0
97	198	0	10000	3	1	0	3	0
97	199	0	10000	3	1	0	3	0
95	200	0	10000	3	1	0	3	0
92	201	0	10000	3	1	0	3	0
89	202	0	10000	3	1	0	3	0
85	203	0	10000	3	1	0	3	0
84	204	0	10000	3	1	0	3	0
83	205	0	10000	3	1	0	3	0
80	206	0	10000	3	1	0	3	0
78	207	0	10000	3	1	0	3	0
76	208	0	10000	3	1	0	3	0
72	209	0	10000	3	1	0	3	0
69	210	0	10000	3	1	0	3	0
67	211	0	10000	3	1	0	3	0
64	212	0	10000	3	1	0	3	0
63	213	0	10000	3	1	0	3	0
63	214	0	10000	3	1	0	3	0
64	215	0	10000	3	1	0	3	0
64	216	0	10000	3	1	0	3	0
61	217	0	10000	3	1	0	3	0
60	218	0	10000	3	1	0	3	0
59	219	0	10000	3	1	0	3	0
58	220	0	10000	3	1	0	3	0
57	221	0	10000	3	1	0	3	0
55	222	0	10000	3	1	0	3	0
56	223	0	10000	3	1	0	3	0
61	224	0	10000	3	1	0	3	0
65	225	0	10000	3	1	0	3	0
65	226	0	10000	3	1	0	3	0
68	227	0	10000	3	1	0	3	0
66	228	0	10000	3	1	0	3	0
70	229	0	10000	3	1	0	3	0
77	230	0	10000	3	1	0	3	0
78	231	0	10000	3	1	0	3	0
76	232	0	10000	3	1	0	3	0
75	233	0	10000	3	1	0	3	0
74	234	0	10000	3	1	0	3	0
74	235	0	10000	3	1	0	3	0
72	236	0	10000	3	1	0	3	0
70	237	0	10000	3	1	0	3	0
70	238	0	10000	3	1	0	3	0
68	239	0	10000	3	1	0	3	0
67	240	0	10000	3	1	0	3	0
67	241	0	10000	3	1	0	3	0
65	242	0	10000	3	1	0	3	0
63	243	0	10000	3	1	0	3	0
60	244	0	10000	3	1	0	3	0
57	245	0	10000	3	1	0	3	0
57	246	0	10000	3	1	0	3	0
59	247	0	10000	3	1	0	3	0
59	248	0	10000	3	1	0	3	0
57	249	0	10000	3	1	0	3	0
56	250	0	10000	3	1	0	3	0
56	251	0	10000	3	1	0	3	0
56	252	0	10000	3	1	0	3	0
56	253	0	10000	3	1	0	3	0
55	254	0	10000	3	1	0	3	0
53	255	0	10000	3	1	0	3	0
51	256	0	10000	3	1	0	3	0
49	257	0	10000	3	1	0	3	0
48	258	0	10000	3	1	0	3	0
47	259	0	10000	3	1	0	3	0
45	260	0	10000	3	1	0	3	0
45	261	0	10000	3	1	0	3	0
48	262	0	10000	3	1	0	3	0
48	263	0	10000	3	1	0	3	0
46	264	0	10000	3	1	0	3	0
44	265	0	10000	3	1	0	3	0
42	266	0	10000	3	1	0	3	0
43	267	0	10000	3	1	0	3	0
43	268	0	10000	3	1	0	3	0
42	269	0	10000	3	1	0	3	0
41	270	0	10000	3	1	0	3	0
42	271	0	10000	3	1	0	3	0
41	272	0	10000	3	1	0	3	0
39	273	0	10000	3	1	0	3	0
40	274	0	10000	3	1	0	3	0
44	275	0	10000	3	1	0	3	0
45	276	0	10000	3	1	0	3	0
44	277	0	10000	3	1	0	3	0
47	278	0	10000	3	1	0	3	0
48	279	0	10000	3	1	0	3	0
46	280	0	10000	3	1	0	3	0
50	281	0	10000	3	1	0	3	0
54	282	0	10000	3	1	0	3	0
55	283	0	10000	3	1	0	3	0
60	284	0	10000	3	1	0	3	0
67	285	0	10000	3	1	0	3	0
70	286	0	10000	3	1	0	3	0
74	287	0	10000	3	1	0	3	0
73	288	0	10000	3	1	0	3	0
71	289	0	10000	3	1	0	3	0
72	290	0	10000	3	1	0	3	0
71	291	0	10000	3	1	0	3	0
68	292	0	10000	3	1	0	3	0
66	293	0	10000	3	1	0	3	0
63	294	0	10000	3	1	0	3	0
62	295	0	10000	3	1	0	3	0
60	296	0	10000	3	1	0	3	0
55	297	0	10000	3	1	0	3	0
53	298	0	10000	3	1	0	3	0
52	299	0	10000	3	1	0	3	0
51	300	0	10000	3	1	0	3	0
50	301	0	10000	3	1	0	3	0
50	302	0	10000	3	1	0	3	0
53	303	0	10000	3	1	0	3	0
53	304	0	10000	3	1	0	3	0
51	305	0	10000	3	1	0	3	0
49	306	0	10000	3	1	0	3	0
49	307	0	10000	3	1	0	3	0
47	308	0	10000	3	1	0	3	0
45	309	0	10000	3	1	0	3	0
44	310	0	10000	3	1	0	3	0
42	311	0	10000	3	1	0	3	0
43	312	0	10000	3	1	0	3	0
50	313	0	10000	3	1	0	3	0
51	314	0	10000	3	1	0	3	0
49	315	0	10000	3	1	0	3	0
50	316	0	10000	3	1	0	3	0
49	317	0	10000	3	1	0	3	0
52	318	0	10000	3	1	0	3	0
61	319	0	10000	3	1	0	3	0
68	320	0	10000	3	1	0	3	0
73	321	0	10000	3	1	0	3	0
76	322	0	10000	3	1	0	3	0
75	323	0	10000	3	1	0	3	0
72	324	0	10000	3	1	0	3	0
70	325	0	10000	3	1	0	3	0
67	326	0	10000	3	1	0	3	0
66	327	0	10000	3	1	0	3	0
66	328	0	10000	3	1	0	3	0
67	329	0	10000	3	1	0	3	0
69	330	0	10000	3	1	0	3	0
71	331	0	10000	3	1	0	3	0
70	332	0	10000	3	1	0	3	0
67	333	0	10000	3	1	0	3	0
66	334	0	10000	3	1	0	3	0
69	335	0	10000	3	1	0	3	0
71	336	0	10000	3	1	0	3	0
68	337	0	10000	3	1	0	3	0
66	338	0	10000	3	1	0	3	0
64	339	0	10000	3	1	0	3	0
62	340	0	10000	3	1	0	3	0
61	341	0	10000	3	1	0	3	0
60	342	0	10000	3	1	0	3	0
58	343	0	10000	3	1	0	3	0
55	344	0	10000	3	1	0	3	0
52	345	0	10000	3	1	0	3	0
50	346	0	10000	3	1	0	3	0
51	347	0	10000	3	1	0	3	0
50	348	0	10000	3	1	0	3	0
48	349	0	10000	3	1	0	3	0
47	350	0	10000	3	1	0	3	0
49	351	0	10000	3	1	0	3	0
59	352	0	10000	3	1	0	3	0
65	353	0	10000	3	1	0	3	0
69	354	0	10000	3	1	0	3	0
69	355	0	10000	3	1	0	3	0
72	356	0	10000	3	1	0	3	0
76	357	0	10000	3	1	0	3	0
85	358	0	10000	3	1	0	3	0
92	359	0	10000	3	1	0	3	0
94	360	0	10000	3	1	0	3	0
94	361	0	10000	3	1	0	3	0
90	362	0	10000	3	1	0	3	0
89	363	0	10000	3	1	0	3	0
87	364	0	10000	3	1	0	3	0
85	365	0	10000	3	1	0	3	0
82	366	0	10000	3	1	0	3	0
81	367	0	10000	3	1	0	3	0
78	368	0	10000	3	1	0	3	0
74	369	0	10000	3	1	0	3	0
71	370	0	10000	3	1	0	3	0
68	371	0	10000	3	1	0	3	0
67	372	0	10000	3	1	0	3	0
64	373	0	10000	3	1	0	3	0
62	374	0	10000	3	1	0	3	0
59	375	0	10000	3	1	0	3	0
59	376	0	10000	3	1	0	3	0
60	377	0	10000	3	1	0	3	0
61	378	0	10000	3	1	0	3	0
60	379	0	10000	3	1	0	3	0
61	380	0	10000	3	1	0	3	0
60	381	0	10000	3	1	0	3	0
59	382	0	10000	3	1	0	3	0
58	383	0	10000	3	1	0	3	0
56	384	0	10000	3	1	0	3	0
56	385	0	10000	3	1	0	3	0
58	386	0	10000	3	1	0	3	0
59	387	0	10000	3	1	0	3	0
57	388	0	10000	3	1	0	3	0
55	389	0	10000	3	1	0	3	0
52	390	0	10000	3	1	0	3	0
51	391	0	10000	3	1	0	3	0
51	392	0	10000	3	1	0	3	0
53	393	0	10000	3	1	0	3	0
54	394	0	10000	3	1	0	3	0
53	395	0	10000	3	1	0	3	0
56	396	0	10000	3	1	0	3	0
56	397	0	10000	3	1	0	3	0
57	398	0	10000	3	1	0	3	0
55	399	0	10000	3	1	0	3	0
54	400	0	10000	3	1	0	3	0
57	401	0	10000	3	1	0	3	0
61	402	0	10000	3	1	0	3	0
60	403	0	10000	3	1	0	3	0
58	404	0	10000	3	1	0	3	0
57	405	0	10000	3	1	0	3	0
58	406	0	10000	3	1	0	3	0
63	407	0	10000	3	1	0	3	0
64	408	0	10000	3	1	0	3	0
64	409	0	10000	3	1	0	3	0
65	410	0	10000	3	1	0	3	0
64	411	0	10000	3	1	0	3	0
66	412	0	10000	3	1	0	3	0
65	413	0	10000	3	1	0	3	0
62	414	0	10000	3	1	0	3	0
61	415	0	10000	3	1	0	3	0
59	416	0	10000	3	1	0	3	0
55	417	0	10000	3	1	0	3	0
53	418	0	10000	3	1	0	3	0
51	419	0	10000	3	1	0	3	0
50	420	0	10000	3	1	0	3	0
49	421	0	10000	3	1	0	3	0
50	422	0	10000	3	1	0	3	0
52	423	0	10000	3	1	0	3	0
52	424	0	10000	3	1	0	3	0
50	425	0	10000	3	1	0	3	0
50	426	0	10000	3	1	0	3	0
53	427	0	10000	3	1	0	3	0
54	428	0	10000	3	1	0	3	0
52	429	0	10000	3	1	0	3	0
49	430	0	10000	3	1	0	3	0
48	431	0	10000	3	1	0	3	0
46	432	0	10000	3	1	0	3	0
46	433	0	10000	3	1	0	3	0
52	434	0	10000	3	1	0	3	0
59	435	0	10000	3	1	0	3	0
64	436	0	10000	3	1	0	3	0
61	437	0	10000	3	1	0	3	0
61	438	0	10000	3	1	0	3	0
69	439	0	10000	3	1	0	3	0
77	440	0	10000	3	1	0	3	0
79	441	0	10000	3	1	0	3	0
80	442	0	10000	3	1	0	3	0
81	443	0	10000	3	1	0	3	0
81	444	0	10000	3	1	0	3	0
78	445	0	10000	3	1	0	3	0
75	446	0	10000	3	1	0	3	0
75	447	0	10000	3	1	0	3	0
74	448	0	10000	3	1	0	3	0
70	449	0	10000	3	1	0	3	0
68	450	0	10000	3	1	0	3	0
65	451	0	10000	3	1	0	3	0
62	452	0	10000	3	1	0	3	0
60	453	0	10000	3	1	0	3	0
57	454	0	10000	3	1	0	3	0
56	455	0	10000	3	1	0	3	0
55	456	0	10000	3	1	0	3	0
56	457	0	10000	3	1	0	3	0
53	458	0	10000	3	1	0	3	0
53	459	0	10000	3	1	0	3	0
53	460	0	10000	3	1	0	3	0
52	461	0	10000	3	1	0	3	0
54	462	0	10000	3	1	0	3	0
54	463	0	10000	3	1	0	3	0
52	464	0	10000	3	1	0	3	0
51	465	0	10000	3	1	0	3	0
51	466	0	10000	3	1	0	3	0
51	467	0	10000	3	1	0	3	0
51	468	0	10000	3	1	0	3	0
52	469	0	10000	3	1	0	3	0
51	470	0	10000	3	1	0	3	0
50	471	0	10000	3	1	0	3	0
51	472	0	10000	3	1	0	3	0
52	473	0	10000	3	1	0	3	0
51	474	0	10000	3	1	0	3	0
55	475	0	10000	3	1	0	3	0
60	476	0	10000	3	1	0	3	0
61	477	0	10000	3	1	0	3	0
63	478	0	10000	3	1	0	3	0
64	479	0	10000	3	1	0	3	0
63	480	0	10000	3	1	0	3	0
67	481	0	10000	3	1	0	3	0
69	482	0	10000	3	1	0	3	0
69	483	0	10000	3	1	0	3	0
68	484	0	10000	3	1	0	3	0
65	485	0	10000	3	1	0	3	0
62	486	0	10000	3	1	0	3	0
62	487	0	10000	3	1	0	3	0
60	488	0	10000	3	1	0	3	0
57	489	0	10000	3	1	0	3	0
55	490	0	10000	3	1	0	3	0
53	491	0	10000	3	1	0	3	0
51	492	0	10000	3	1	0	3	0
49	493	0	10000	3	1	0	3	0
48	494	0	10000	3	1	0	3	0
48	495	0	10000	3	1	0	3	0
48	496	0	10000	3	1	0	3	0
44	497	0	10000	3	1	0	3	0
43	498	0	10000	3	1	0	3	0
50	499	0	10000	3	1	0	3	0
55	500	0	10000	3	1	0	3	0
53	501	0	10000	3	1	0	3	1
51	502	0	10000	3	1	0	3	1
51	503	0	10000	3	1	0	3	1
52	504	0	10000	3	1	0	3	1
54	505	0	10000	3	1	0	3	1
53	506	0	10000	3	1	0	3	1
54	507	0	10000	3	1	0	3	1
52	508	0	10000	3	1	0	3	1
51	509	0	10000	3	1	0	3	1
51	510	0	10000	3	1	0	3	1
50	511	0	10000	3	1	0	3	1
51	512	0	10000	3	1	0	3	1
48	513	0	10000	3	1	0	3	1
50	514	0	10000	3	1	0	3	1
52	515	0	10000	3	1	0	3	1
56	516	0	10000	3	1	0	3	1
57	517	0	10000	3	1	0	3	1
57	518	0	10000	3	1	0	3	1
55	519	0	10000	3	1	0	3	1
53	520	0	10000	3	1	0	3	1
52	521	0	10000	3	1	0	3	1
51	522	0	10000	3	1	0	3	1
51	523	0	10000	3	1	0	3	1
50	524	0	10000	3	1	0	3	1
50	525	0	10000	3	1	0	3	1
50	526	0	10000	3	1	0	3	1
51	527	0	10000	3	1	0	3	1
52	528	0	10000	3	1	0	3	1
54	529	0	10000	3	1	0	3	1
55	530	0	10000	3	1	0	3	1
53	531	0	10000	3	1	0	3	1
52	532	0	10000	3	1	0	3	1
51	533	0	10000	3	1	0	3	1
49	534	0	10000	3	1	0	3	1
47	535	0	10000	3	1	0	3	1
46	536	0	10000	3	1	0	3	1
43	537	0	10000	3	1	0	3	1
43	538	0	10000	3	1	0	3	1
43	539	0	10000	3	1	0	3	1
40	540	0	10000	3	1	0	3	1
39	541	0	10000	3	1	0	3	1
39	542	0	10000	3	1	0	3	1
39	543	0	10000	3	1	0	3	1
38	544	0	10000	3	1	0	3	1
38	545	0	10000	3	1	0	3	1
39	546	0	10000	3	1	0	3	1
42	547	0	10000	3	1	0	3	1
40	548	0	10000	3	1	0	3	1
38	549	0	10000	3	1	0	3	1
37	550	0	10000	3	1	0	3	1
36	551	0	10000	3	1	0	3	0
36	552	0	10000	3	1	0	3	0
34	553	0	10000	3	1	0	3	0
34	554	0	10000	3	1	0	3	0
34	555	0	10000	3	1	0	3	0
35	556	0	10000	3	1	0	3	0
33	557	0	10000	3	1	0	3	0
32	558	0	10000	3	1	0	3	0
33	559	0	10000	3	1	0	3	0
34	560	0	10000	3	1	0	3	0
34	561	0	10000	3	1	0	3	0
35	562	0	10000	3	1	0	3	0
39	563	0	10000	3	1	0	3	0
39	564	0	10000	3	1	0	3	0
38	565	0	10000	3	1	0	3	0
37	566	0	10000	3	1	0	3	0
39	567	0	10000	3	1	0	3	0
39	568	0	10000	3	1	0	3	0
39	569	0	10000	3	1	0	3	0
38	570	0	10000	3	1	0	3	0
36	571	0	10000	3	1	0	3	0
36	572	0	10000	3	1	0	3	0
35	573	0	10000	3	1	0	3	0
35	574	0	10000	3	1	0	3	0
34	575	0	10000	3	1	0	3	0
33	576	0	10000	3	1	0	3	0
30	577	0	10000	3	1	0	3	0
29	578	0	10000	3	1	0	3	0
28	579	0	10000	3	1	0	3	0
28	580	0	10000	3	1	0	3	0
31	581	0	10000	3	1	0	3	0
32	582	0	10000	3	1	0	3	0
38	583	0	10000	3	1	0	3	0
51	584	0	10000	3	1	0	3	0
72	585	0	10000	3	1	0	3	0
88	586	0	10000	3	1	0	3	0
91	587	0	10000	3	1	0	3	0
95	588	0	10000	3	1	0	3	0
107	589	0	10000	3	1	0	3	0
172	590	0	10000	3	1	0	3	0
233	591	0	10000	3	1	0	3	0
253	592	0	10000	3	1	0	3	0
252	593	0	10000	3	1	0	3	0
289	594	0	10000	3	1	0	3	0
293	595	0	10000	3	1	0	3	0
313	596	0	10000	3	1	0	3	0
340	597	0	10000	3	1	0	3	0
355	598	0	10000	3	1	0	3	0
350	599	0	10000	3	1	0	3	0
363	600	0	10000	3	1	0	3	0
369	601	0	10000	3	1	0	3	0
443	602	0	10000	3	1	0	3	0
484	603	0	10000	3	1	0	3	0
493	604	0	10000	3	1	0	3	0
491	605	0	10000	3	1	0	3	0
476	606	0	10000	3	1	0	3	0
505	607	0	10000	3	1	0	3	0
563	608	0	10000	3	1	0	3	0
651	609	0	10000	3	1	0	3	0
737	610	0	10000	3	1	0	3	0
790	611	0	10000	3	1	0	3	0
795	612	0	10000	3	1	0	3	0
775	613	0	10000	3	1	0	3	0
819	614	0	10000	3	1	0	3	0
902	615	0	10000	3	1	0	3	0
931	616	0	10000	3	1	0	3	0
939	617	0	10000	3	1	0	3	0
951	618	0	10000	3	1	0	3	0
913	619	0	10000	3	1	0	3	0
895	620	0	10000	3	1	0	3	0
934	621	0	10000	3	1	0	3	0
998	622	0	10000	3	1	0	3	0
1028	623	0	10000	3	1	0	3	0
1025	624	0	10000	3	1	0	3	0
1007	625	0	10000	3	1	0	3	0
977	626	0	10000	3	1	0	3	0
946	627	0	10000	3	1	0	3	0
906	628	0	10000	3	1	0	3	0
864	629	0	10000	3	1	0	3	0
824	630	0	10000	3	1	0	3	0
789	631	0	10000	3	1	0	3	0
756	632	0	10000	3	1	0	3	0
727	633	0	10000	3	1	0	3	0
702	634	0	10000	3	1	0	3	0
684	635	0	10000	3	1	0	3	0
671	636	0	10000	3	1	0	3	0
677	637	0	10000	3	1	0	3	0
674	638	0	10000	3	1	0	3	0
649	639	0	10000	3	1	0	3	0
639	640	0	10000	3	1	0	3	0
630	641	0	10000	3	1	0	3	0
605	642	0	10000	3	1	0	3	0
589	643	0	10000	3	1	0	3	0
568	644	0	10000	3	1	0	3	0
557	645	0	10000	3	1	0	3	0
562	646	0	10000	3	1	0	3	0
549	647	0	10000	3	1	0	3	0
525	648	0	10000	3	1	0	3	0
507	649	0	10000	3	1	0	3	0
498	650	0	10000	3	1	0	3	0
488	651	0	10000	3	1	0	3	0
477	652	0	10000	3	1	0	3	0
466	653	0	10000	3	1	0	3	0
458	654	0	10000	3	1	0	3	0
450	655	0	10000	3	1	0	3	0
440	656	0	10000	3	1	0	3	0
424	657	0	10000	3	1	0	3	0
410	658	0	10000	3	1	0	3	0
396	659	0	10000	3	1	0	3	0
381	660	0	10000	3	1	0	3	0
365	661	0	10000	3	1	0	3	0
350	662	0	10000	3	1	0	3	0
337	663	0	10000	3	1	0	3	0
324	664	0	10000	3	1	0	3	0
311	665	0	10000	3	1	0	3	0
297	666	0	10000	3	1	0	3	0
288	667	0	10000	3	1	0	3	0
277	668	0	10000	3	1	0	3	0
265	669	0	10000	3	1	0	3	0
254	670	0	10000	3	1	0	3	0
243	671	0	10000	3	1	0	3	0
233	672	0	10000	3	1	0	3	0
222	673	0	10000	3	1	0	3	0
216	674	0	10000	3	1	0	3	0
212	675	0	10000	3	1	0	3	0
209	676	0	10000	3	1	0	3	0
201	677	0	10000	3	1	0	3	0
196	678	0	10000	3	1	0	3	0
190	679	0	10000	3	1	0	3	0
183	680	0	10000	3	1	0	3	0
175	681	0	10000	3	1	0	3	0
168	682	0	10000	3	1	0	3	0
164	683	0	10000	3	1	0	3	0
162	684	0	10000	3	1	0	3	0
161	685	0	10000	3	1	0	3	0
158	686	0	10000	3	1	0	3	0
156	687	0	10000	3	1	0	3	0
154	688	0	10000	3	1	0	3	0
152	689	0	10000	3	1	0	3	0
150	690	0	10000	3	1	0	3	0
150	691	0	10000	3	1	0	3	0
149	692	0	10000	3	1	0	3	0
148	693	0	10000	3	1	0	3	0
149	694	0	10000	3	1	0	3	0
149	695	0	10000	3	1	0	3	0
149	696	0	10000	3	1	0	3	0
148	697	0	10000	3	1	0	3	0
149	698	0	10000	3	1	0	3	0
150	699	0	10000	3	1	0	3	0
154	700	0	10000	3	1	0	3	0
160	701	0	10000	3	1	0	3	0
167	702	0	10000	3	1	0	3	0
175	703	0	10000	3	1	0	3	0
182	704	0	10000	3	1	0	3	0
189	705	0	10000	3	1	0	3	0
197	706	0	10000	3	1	0	3	0
209	707	0	10000	3	1	0	3	0
220	708	0	10000	3	1	0	3	0
230	709	0	10000	3	1	0	3	0
238	710	0	10000	3	1	0	3	0
245	711	0	10000	3	1	0	3	0
250	712	0	10000	3	1	0	3	0
255	713	0	10000	3	1	0	3	0
259	714	0	10000	3	1	0	3	0
263	715	0	10000	3	1	0	3	0
267	716	0	10000	3	1	0	3	0
268	717	0	10000	3	1	0	3	0
273	718	0	10000	3	1	0	3	0
281	719	0	10000	3	1	0	3	0
288	720	0	10000	3	1	0	3	0
296	721	0	10000	3	1	0	3	0
301	722	0	10000	3	1	0	3	0
308	723	0	10000	3	1	0	3	0
316	724	0	10000	3	1	0	3	0
323	725	0	10000	3	1	0	3	0
331	726	0	10000	3	1	0	3	0
338	727	0	10000	3	1	0	3	0
345	728	0	10000	3	1	0	3	0
349	729	0	10000	3	1	0	3	0
352	730	0	10000	3	1	0	3	0
353	731	0	10000	3	1	0	3	0
354	732	0	10000	3	1	0	3	0
356	733	0	10000	3	1	0	3	0
357	734	0	10000	3	1	0	3	0
356	735	0	10000	3	1	0	3	0
354	736	0	10000	3	1	0	3	0
350	737	0	10000	3	1	0	3	0
348	738	0	10000	3	1	0	3	0
346	739	0	10000	3	1	0	3	0
345	740	0	10000	3	1	0	3	0
343	741	0	10000	3	1	0	3	0
341	742	0	10000	3	1	0	3	0
342	743	0	10000	3	1	0	3	0
342	744	0	10000	3	1	0	3	0
342	745	0	10000	3	1	0	3	0
338	746	0	10000	3	1	0	3	0
335	747	0	10000	3	1	0	3	0
328	748	0	10000	3	1	0	3	0
319	749	0	10000	3	1	0	3	0
307	750	0	10000	3	1	0	3	0
297	751	0	10000	3	1	0	3	0
287	752	0	10000	3	1	0	3	0
277	753	0	10000	3	1	0	3	0
268	754	0	10000	3	1	0	3	0
258	755	0	10000	3	1	0	3	0
249	756	0	10000	3	1	0	3	0
237	757	0	10000	3	1	0	3	0
226	758	0	10000	3	1	0	3	0
217	759	0	10000	3	1	0	3	0
207	760	0	10000	3	1	0	3	0
199	761	0	10000	3	1	0	3	0
190	762	0	10000	3	1	0	3	0
183	763	0	10000	3	1	0	3	0
175	764	0	10000	3	1	0	3	0
167	765	0	10000	3	1	0	3	0
160	766	0	10000	3	1	0	3	0
157	767	0	10000	3	1	0	3	0
153	768	0	10000	3	1	0	3	0
151	769	0	10000	3	1	0	3	0
149	770	0	10000	3	1	0	3	0
147	771	0	10000	3	1	0	3	0
146	772	0	10000	3	1	0	3	0
143	773	0	10000	3	1	0	3	0
145	774	0	10000	3	1	0	3	0
148	775	0	10000	3	1	0	3	0
149	776	0	10000	3	1	0	3	0
144	777	0	10000	3	1	0	3	0
141	778	0	10000	3	1	0	3	0
140	779	0	10000	3	1	0	3	0
140	780	0	10000	3	1	0	3	0
140	781	0	10000	3	1	0	3	0
138	782	0	10000	3	1	0	3	0
137	783	0	10000	3	1	0	3	0
139	784	0	10000	3	1	0	3	0
143	785	0	10000	3	1	0	3	0
148	786	0	10000	3	1	0	3	0
151	787	0	10000	3	1	0	3	0
150	788	0	10000	3	1	0	3	0
147	789	0	10000	3	1	0	3	0
141	790	0	10000	3	1	0	3	0
136	791	0	10000	3	1	0	3	0
130	792	0	10000	3	1	0	3	0
127	793	0	10000	3	1	0	3	0
127	794	0	10000	3	1	0	3	0
129	795	0	10000	3	1	0	3	0
131	796	0	10000	3	1	0	3	0
132	797	0	10000	3	1	0	3	0
134	798	0	10000	3	1	0	3	0
137	799	0	10000	3	1	0	3	0
140	800	0	10000	3	1	0	3	0
142	801	0	10000	3	1	0	3	0
144	802	0	10000	3	1	0	3	0
142	803	0	10000	3	1	0	3	0
137	804	0	10000	3	1	0	3	0
132	805	0	10000	3	1	0	3	0
129	806	0	10000	3	1	0	3	0
130	807	0	10000	3	1	0	3	0
131	808	0	10000	3	1	0	3	0
132	809	0	10000	3	1	0	3	0
132	810	0	10000	3	1	0	3	0
134	811	0	10000	3	1	0	3	0
135	812	0	10000	3	1	0	3	0
137	813	0	10000	3	1	0	3	0
140	814	0	10000	3	1	0	3	0
142	815	0	10000	3	1	0	3	0
143	816	0	10000	3	1	0	3	0
141	817	0	10000	3	1	0	3	0
140	818	0	10000	3	1	0	3	0
140	819	0	10000	3	1	0	3	0
140	820	0	10000	3	1	0	3	0
139	821	0	10000	3	1	0	3	0
136	822	0	10000	3	1	0	3	0
135	823	0	10000	3	1	0	3	0
134	824	0	10000	3	1	0	3	0
130	825	0	10000	3	1	0	3	0
126	826	0	10000	3	1	0	3	0
123	827	0	10000	3	1	0	3	0
119	828	0	10000	3	1	0	3	0
116	829	0	10000	3	1	0	3	0
112	830	0	10000	3	1	0	3	0
111	831	0	10000	3	1	0	3	0
115	832	0	10000	3	1	0	3	0
120	833	0	10000	3	1	0	3	0
128	834	0	10000	3	1	0	3	0
135	835	0	10000	3	1	0	3	0
137	836	0	10000	3	1	0	3	0
132	837	0	10000	3	1	0	3	0
129	838	0	10000	3	1	0	3	0
125	839	0	10000	3	1	0	3	0
121	840	0	10000	3	1	0	3	0
118	841	0	10000	3	1	0	3	0
116	842	0	10000	3	1	0	3	0
111	843	0	10000	3	1	0	3	0
107	844	0	10000	3	1	0	3	0
103	845	0	10000	3	1	0	3	0
98	846	0	10000	3	1	0	3	0
97	847	0	10000	3	1	0	3	0
94	848	0	10000	3	1	0	3	0
96	849	0	10000	3	1	0	3	0
99	850	0	10000	3	1	0	3	0
97	851	0	10000	3	1	0	3	0
96	852	0	10000	3	1	0	3	0
94	853	0	10000	3	1	0	3	0
90	854	0	10000	3	1	0	3	0
89	855	0	10000	3	1	0	3	0
89	856	0	10000	3	1	0	3	0
82	857	0	10000	3	1	0	3	0
80	858	0	10000	3	1	0	3	0
80	859	0	10000	3	1	0	3	0
80	860	0	10000	3	1	0	3	0
79	861	0	10000	3	1	0	3	0
78	862	0	10000	3	1	0	3	0
74	863	0	10000	3	1	0	3	0
71	864	0	10000	3	1	0	3	0
71	865	0	10000	3	1	0	3	0
68	866	0	10000	3	1	0	3	0
68	867	0	10000	3	1	0	3	0
69	868	0	10000	3	1	0	3	0
68	869	0	10000	3	1	0	3	0
70	870	0	10000	3	1	0	3	0
72	871	0	10000	3	1	0	3	0
71	872	0	10000	3	1	0	3	0
71	873	0	10000	3	1	0	3	0
73	874	0	10000	3	1	0	3	0
74	875	0	10000	3	1	0	3	0
75	876	0	10000	3	1	0	3	0
74	877	0	10000	3	1	0	3	0
73	878	0	10000	3	1	0	3	0
77	879	0	10000	3	1	0	3	0
81	880	0	10000	3	1	0	3	0
79	881	0	10000	3	1	0	3	0
80	882	0	10000	3	1	0	3	0
84	883	0	10000	3	1	0	3	0
82	884	0	10000	3	1	0	3	0
79	885	0	10000	3	1	0	3	0
77	886	0	10000	3	1	0	3	0
75	887	0	10000	3	1	0	3	0
72	888	0	10000	3	1	0	3	0
70	889	0	10000	3	1	0	3	0
69	890	0	10000	3	1	0	3	0
68	891	0	10000	3	1	0	3	0
67	892	0	10000	3	1	0	3	0
64	893	0	10000	3	1	0	3	0
63	894	0	10000	3	1	0	3	0
61	895	0	10000	3	1	0	3	0
59	896	0	10000	3	1	0	3	0
56	897	0	10000	3	1	0	3	0
57	898	0	10000	3	1	0	3	0
58	899	0	10000	3	1	0	3	0
59	900	0	10000	3	1	0	3	0
58	901	0	10000	3	1	0	3	0
56	902	0	10000	3	1	0	3	0
56	903	0	10000	3	1	0	3	0
57	904	0	10000	3	1	0	3	0
57	905	0	10000	3	1	0	3	0
55	906	0	10000	3	1	0	3	0
58	907	0	10000	3	1	0	3	0
56	908	0	10000	3	1	0	3	0
55	909	0	10000	3	1	0	3	0
56	910	0	10000	3	1	0	3	0
54	911	0	10000	3	1	0	3	0
51	912	0	10000	3	1	0	3	0
50	913	0	10000	3	1	0	3	0
49	914	0	10000	3	1	0	3	0
52	915	0	10000	3	1	0	3	0
56	916	0	10000	3	1	0	3	0
56	917	0	10000	3	1	0	3	0
54	918	0	10000	3	1	0	3	0
54	919	0	10000	3	1	0	3	0
53	920	0	10000	3	1	0	3	0
51	921	0	10000	3	1	0	3	0
51	922	0	10000	3	1	0	3	0
50	923	0	10000	3	1	0	3	0
48	924	0	10000	3	1	0	3	0
49	925	0	10000	3	1	0	3	0
48	926	0	10000	3	1	0	3	0
49	927	0	10000	3	1	0	3	0
49	928	0	10000	3	1	0	3	0
48	929	0	10000	3	1	0	3	0
47	930	0	10000	3	1	0	3	0
47	931	0	10000	3	1	0	3	0
47	932	0	10000	3	1	0	3	0
44	933	0	10000	3	1	0	3	0
45	934	0	10000	3	1	0	3	0
46	935	0	10000	3	1	0	3	0
49	936	0	10000	3	1	0	3	0
49	937	0	10000	3	1	0	3	0
49	938	0	10000	3	1	0	3	0
48	939	0	10000	3	1	0	3	0
48	940	0	10000	3	1	0	3	0
51	941	0	10000	3	1	0	3	0
58	942	0	10000	3	1	0	3	0
59	943	0	10000	3	1	0	3	0
58	944	0	10000	3	1	0	3	0
59	945	0	10000	3	1	0	3	0
60	946	0	10000	3	1	0	3	0
61	947	0	10000	3	1	0	3	0
60	948	0	10000	3	1	0	3	0
61	949	0	10000	3	1	0	3	0
63	950	0	10000	3	1	0	3	0
62	951	0	10000	3	1	0	3	0
63	952	0	10000	3	1	0	3	0
66	953	0	10000	3	1	0	3	0
70	954	0	10000	3	1	0	3	0
71	955	0	10000	3	1	0	3	0
68	956	0	10000	3	1	0	3	0
65	957	0	10000	3	1	0	3	0
65	958	0	10000	3	1	0	3	0
64	959	0	10000	3	1	0	3	0
62	960	0	10000	3	1	0	3	0
62	961	0	10000	3	1	0	3	0
63	962	0	10000	3	1	0	3	0
62	963	0	10000	3	1	0	3	0
62	964	0	10000	3	1	0	3	0
62	965	0	10000	3	1	0	3	0
61	966	0	10000	3	1	0	3	0
63	967	0	10000	3	1	0	3	0
66	968	0	10000	3	1	0	3	0
66	969	0	10000	3	1	0	3	0
64	970	0	10000	3	1	0	3	0
63	971	0	10000	3	1	0	3	0
68	972	0	10000	3	1	0	3	0
74	973	0	10000	3	1	0	3	0
72	974	0	10000	3	1	0	3	0
71	975	0	10000	3	1	0	3	0
74	976	0	10000	3	1	0	3	0
75	977	0	10000	3	1	0	3	0
75	978	0	10000	3	1	0	3	0
76	979	0	10000	3	1	0	3	0
73	980	0	10000	3	1	0	3	0
72	981	0	10000	3	1	0	3	0
70	982	0	10000	3	1	0	3	0
69	983	0	10000	3	1	0	3	0
68	984	0	10000	3	1	0	3	0
69	985	0	10000	3	1	0	3	0
68	986	0	10000	3	1	0	3	0
72	987	0	10000	3	1	0	3	0
73	988	0	10000	3	1	0	3	0
74	989	0	10000	3	1	0	3	0
82	990	0	10000	3	1	0	3	0
91	991	0	10000	3	1	0	3	0
91	992	0	10000	3	1	0	3	0
89	993	0	10000	3	1	0	3	0
86	994	0	10000	3	1	0	3	0
82	995	0	10000	3	1	0	3	0
80	996	0	10000	3	1	0	3	0
80	997	0	10000	3	1	0	3	0
80	998	0	10000	3	1	0	3	0
78	999	0	10000	3	1	0	3	0
77	1000	0	10000	3	1	0	3	0
15	1	10	10000	4	1	0	4	0
15	2	10	10000	4	1	0	4	0
16	3	10	10000	4	1	0	4	0
15	4	10	10000	4	1	0	4	0
17	5	10	10000	4	1	0	4	0
15	6	10	10000	4	1	0	4	0
14	7	10	10000	4	1	0	4	0
14	8	10	10000	4	1	0	4	0
15	9	10	10000	4	1	0	4	0
14	10	10	10000	4	1	0	4	0
15	11	10	10000	4	1	0	4	0
16	12	10	10000	4	1	0	4	0
14	13	10	10000	4	1	0	4	0
14	14	10	10000	4	1	0	4	0
14	15	10	10000	4	1	0	4	0
15	16	10	10000	4	1	0	4	0
16	17	10	10000	4	1	0	4	0
16	18	10	10000	4	1	0	4	0
15	19	10	10000	4	1	0	4	0
15	20	10	10000	4	1	0	4	0
15	20	10	10000	4	1	0	4	0
14	21	10	10000	4	1	0	4	0
14	23	10	10000	4	1	0	4	0
14	24	10	10000	4	1	0	4	0
14	25	10	10000	4	1	0	4	0
12	26	10	10000	4	1	0	4	0
12	27	10	10000	4	1	0	4	0
13	28	10	10000	4	1	0	4	0
14	29	10	10000	4	1	0	4	0
15	30	10	10000	4	1	0	4	0
14	30	10	10000	4	1	0	4	0
15	31	10	10000	4	1	0	4	0
15	33	10	10000	4	1	0	4	0
14	34	10	10000	4	1	0	4	0
13	35	10	10000	4	1	0	4	0
16	36	10	10000	4	1	0	4	0
15	37	10	10000	4	1	0	4	0
14	38	10	10000	4	1	0	4	0
14	39	10	10000	4	1	0	4	0
14	40	10	10000	4	1	0	4	0
14	40	10	10000	4	1	0	4	0
14	41	10	10000	4	1	0	4	0
14	43	10	10000	4	1	0	4	0
14	44	10	10000	4	1	0	4	0
15	45	10	10000	4	1	0	4	0
12	46	10	10000	4	1	0	4	0
12	47	10	10000	4	1	0	4	0
13	48	10	10000	4	1	0	4	0
12	49	10	10000	4	1	0	4	0
12	50	10	10000	4	1	0	4	0
13	50	10	10000	4	1	0	4	0
12	51	10	10000	4	1	0	4	0
13	53	10	10000	4	1	0	4	0
12	54	10	10000	4	1	0	4	0
11	55	10	10000	4	1	0	4	0
13	56	10	10000	4	1	0	4	0
14	57	10	10000	4	1	0	4	0
12	58	10	10000	4	1	0	4	0
11	59	10	10000	4	1	0	4	0
12	60	10	10000	4	1	0	4	0
10	60	10	10000	4	1	0	4	0
9	61	10	10000	4	1	0	4	0
11	63	10	10000	4	1	0	4	0
10	64	10	10000	4	1	0	4	0
12	65	10	10000	4	1	0	4	0
10	66	10	10000	4	1	0	4	0
10	67	10	10000	4	1	0	4	0
10	68	10	10000	4	1	0	4	0
12	69	10	10000	4	1	0	4	0
11	70	10	10000	4	1	0	4	0
11	70	10	10000	4	1	0	4	0
12	71	10	10000	4	1	0	4	0
11	73	10	10000	4	1	0	4	0
10	74	10	10000	4	1	0	4	0
10	75	10	10000	4	1	0	4	0
11	76	10	10000	4	1	0	4	0
10	77	10	10000	4	1	0	4	0
10	78	10	10000	4	1	0	4	0
9	79	10	10000	4	1	0	4	0
9	80	10	10000	4	1	0	4	0
10	80	10	10000	4	1	0	4	0
10	81	10	10000	4	1	0	4	0
11	83	10	10000	4	1	0	4	0
13	84	10	10000	4	1	0	4	0
13	85	10	10000	4	1	0	4	0
11	86	10	10000	4	1	0	4	0
12	87	10	10000	4	1	0	4	0
12	88	10	10000	4	1	0	4	0
14	89	10	10000	4	1	0	4	0
15	90	10	10000	4	1	0	4	0
13	90	10	10000	4	1	0	4	0
13	91	10	10000	4	1	0	4	0
13	93	10	10000	4	1	0	4	0
12	94	10	10000	4	1	0	4	0
11	95	10	10000	4	1	0	4	0
14	96	10	10000	4	1	0	4	0
13	97	10	10000	4	1	0	4	0
13	98	10	10000	4	1	0	4	0
14	99	10	10000	4	1	0	4	0
12	100	10	10000	4	1	0	4	0
13	100	10	10000	4	1	0	4	0
12	101	10	10000	4	1	0	4	0
12	103	10	10000	4	1	0	4	0
13	104	10	10000	4	1	0	4	0
14	105	10	10000	4	1	0	4	0
12	106	10	10000	4	1	0	4	0
12	107	10	10000	4	1	0	4	0
13	108	10	10000	4	1	0	4	0
12	109	10	10000	4	1	0	4	0
12	110	10	10000	4	1	0	4	0
12	110	10	10000	4	1	0	4	0
12	111	10	10000	4	1	0	4	0
11	113	10	10000	4	1	0	4	0
12	114	10	10000	4	1	0	4	0
11	115	10	10000	4	1	0	4	0
12	116	10	10000	4	1	0	4	0
14	117	10	10000	4	1	0	4	0
13	118	10	10000	4	1	0	4	0
13	119	10	10000	4	1	0	4	0
12	120	10	10000	4	1	0	4	0
12	120	10	10000	4	1	0	4	0
11	121	10	10000	4	1	0	4	0
13	132	10	10000	4	1	0	4	0
12	133	10	10000	4	1	0	4	0
13	134	10	10000	4	1	0	4	0
12	135	10	10000	4	1	0	4	0
11	136	10	10000	4	1	0	4	0
10	137	10	10000	4	1	0	4	0
12	138	10	10000	4	1	0	4	0
10	139	10	10000	4	1	0	4	0
10	140	10	10000	4	1	0	4	0
11	141	10	10000	4	1	0	4	0
9	142	10	10000	4	1	0	4	0
8	143	10	10000	4	1	0	4	0
10	141	10	10000	4	1	0	4	0
11	142	10	10000	4	1	0	4	0
11	143	10	10000	4	1	0	4	0
13	144	10	10000	4	1	0	4	0
12	145	10	10000	4	1	0	4	0
11	146	10	10000	4	1	0	4	0
12	147	10	10000	4	1	0	4	0
11	148	10	10000	4	1	0	4	0
12	152	10	10000	4	1	0	4	0
13	153	10	10000	4	1	0	4	0
13	154	10	10000	4	1	0	4	0
11	155	10	10000	4	1	0	4	0
11	156	10	10000	4	1	0	4	0
11	157	10	10000	4	1	0	4	0
10	158	10	10000	4	1	0	4	0
11	159	10	10000	4	1	0	4	0
10	160	10	10000	4	1	0	4	0
11	161	10	10000	4	1	0	4	0
10	162	10	10000	4	1	0	4	0
9	163	10	10000	4	1	0	4	0
9	157	10	10000	4	1	0	4	0
11	158	10	10000	4	1	0	4	0
10	159	10	10000	4	1	0	4	0
10	160	10	10000	4	1	0	4	0
10	162	10	10000	4	1	0	4	0
10	163	10	10000	4	1	0	4	0
10	164	10	10000	4	1	0	4	0
10	165	10	10000	4	1	0	4	0
10	166	10	10000	4	1	0	4	0
10	167	10	10000	4	1	0	4	0
11	168	10	10000	4	1	0	4	0
8	169	10	10000	4	1	0	4	0
8	170	10	10000	4	1	0	4	0
10	171	10	10000	4	1	0	4	0
11	172	10	10000	4	1	0	4	0
12	173	10	10000	4	1	0	4	0
13	173	10	10000	4	1	0	4	0
13	174	10	10000	4	1	0	4	0
13	175	10	10000	4	1	0	4	0
14	176	10	10000	4	1	0	4	0
13	178	10	10000	4	1	0	4	0
15	179	10	10000	4	1	0	4	0
16	180	10	10000	4	1	0	4	0
15	181	10	10000	4	1	0	4	0
16	182	10	10000	4	1	0	4	0
17	183	10	10000	4	1	0	4	0
16	185	10	10000	4	1	0	4	0
17	186	10	10000	4	1	0	4	0
18	187	10	10000	4	1	0	4	0
18	188	10	10000	4	1	0	4	0
19	189	10	10000	4	1	0	4	0
17	190	10	10000	4	1	0	4	0
15	189	10	10000	4	1	0	4	0
15	190	10	10000	4	1	0	4	0
15	191	10	10000	4	1	0	4	0
15	192	10	10000	4	1	0	4	0
16	196	10	10000	4	1	0	4	0
17	197	10	10000	4	1	0	4	0
16	198	10	10000	4	1	0	4	0
15	199	10	10000	4	1	0	4	0
15	200	10	10000	4	1	0	4	0
17	201	10	10000	4	1	0	4	0
18	202	10	10000	4	1	0	4	0
18	203	10	10000	4	1	0	4	0
18	201	10	10000	4	1	0	4	0
17	202	10	10000	4	1	0	4	0
17	203	10	10000	4	1	0	4	0
17	204	10	10000	4	1	0	4	0
16	208	10	10000	4	1	0	4	0
17	209	10	10000	4	1	0	4	0
17	210	10	10000	4	1	0	4	0
15	211	10	10000	4	1	0	4	0
15	212	10	10000	4	1	0	4	0
14	213	10	10000	4	1	0	4	0
14	214	10	10000	4	1	0	4	0
15	215	10	10000	4	1	0	4	0
14	211	10	10000	4	1	0	4	0
15	212	10	10000	4	1	0	4	0
14	213	10	10000	4	1	0	4	0
13	214	10	10000	4	1	0	4	0
12	215	10	10000	4	1	0	4	0
13	216	10	10000	4	1	0	4	0
13	217	10	10000	4	1	0	4	0
13	218	10	10000	4	1	0	4	0
14	219	10	10000	4	1	0	4	0
14	220	10	10000	4	1	0	4	0
15	221	10	10000	4	1	0	4	0
15	222	10	10000	4	1	0	4	0
15	223	10	10000	4	1	0	4	0
15	224	10	10000	4	1	0	4	0
16	225	10	10000	4	1	0	4	0
14	226	10	10000	4	1	0	4	0
13	227	10	10000	4	1	0	4	0
13	228	10	10000	4	1	0	4	0
13	229	10	10000	4	1	0	4	0
13	230	10	10000	4	1	0	4	0
13	231	10	10000	4	1	0	4	0
12	232	10	10000	4	1	0	4	0
11	233	10	10000	4	1	0	4	0
11	234	10	10000	4	1	0	4	0
11	235	10	10000	4	1	0	4	0
14	236	10	10000	4	1	0	4	0
15	237	10	10000	4	1	0	4	0
15	238	10	10000	4	1	0	4	0
16	239	10	10000	4	1	0	4	0
17	240	10	10000	4	1	0	4	0
17	241	10	10000	4	1	0	4	0
17	242	10	10000	4	1	0	4	0
17	243	10	10000	4	1	0	4	0
16	244	10	10000	4	1	0	4	0
16	245	10	10000	4	1	0	4	0
15	246	10	10000	4	1	0	4	0
15	247	10	10000	4	1	0	4	0
15	248	10	10000	4	1	0	4	0
15	249	10	10000	4	1	0	4	0
16	250	10	10000	4	1	0	4	0
16	251	10	10000	4	1	0	4	0
16	252	10	10000	4	1	0	4	0
15	253	10	10000	4	1	0	4	0
14	254	10	10000	4	1	0	4	0
13	255	10	10000	4	1	0	4	0
15	256	10	10000	4	1	0	4	0
15	257	10	10000	4	1	0	4	0
14	258	10	10000	4	1	0	4	0
13	259	10	10000	4	1	0	4	0
13	260	10	10000	4	1	0	4	0
13	261	10	10000	4	1	0	4	0
12	262	10	10000	4	1	0	4	0
12	263	10	10000	4	1	0	4	0
12	264	10	10000	4	1	0	4	0
13	265	10	10000	4	1	0	4	0
11	266	10	10000	4	1	0	4	0
11	267	10	10000	4	1	0	4	0
10	268	10	10000	4	1	0	4	0
11	269	10	10000	4	1	0	4	0
11	270	10	10000	4	1	0	4	0
11	271	10	10000	4	1	0	4	0
12	272	10	10000	4	1	0	4	0
11	273	10	10000	4	1	0	4	0
10	274	10	10000	4	1	0	4	0
10	275	10	10000	4	1	0	4	0
12	276	10	10000	4	1	0	4	0
11	277	10	10000	4	1	0	4	0
11	278	10	10000	4	1	0	4	0
12	279	10	10000	4	1	0	4	0
12	280	10	10000	4	1	0	4	0
11	281	10	10000	4	1	0	4	0
12	282	10	10000	4	1	0	4	0
14	283	10	10000	4	1	0	4	0
15	284	10	10000	4	1	0	4	0
17	285	10	10000	4	1	0	4	0
14	286	10	10000	4	1	0	4	0
14	287	10	10000	4	1	0	4	0
15	288	10	10000	4	1	0	4	0
14	289	10	10000	4	1	0	4	0
14	290	10	10000	4	1	0	4	0
14	291	10	10000	4	1	0	4	0
15	292	10	10000	4	1	0	4	0
16	293	10	10000	4	1	0	4	0
16	294	10	10000	4	1	0	4	0
15	295	10	10000	4	1	0	4	0
17	296	10	10000	4	1	0	4	0
17	297	10	10000	4	1	0	4	0
16	298	10	10000	4	1	0	4	0
17	299	10	10000	4	1	0	4	0
17	300	10	10000	4	1	0	4	0
18	301	10	10000	4	1	0	4	0
17	302	10	10000	4	1	0	4	0
18	303	10	10000	4	1	0	4	0
17	304	10	10000	4	1	0	4	0
18	305	10	10000	4	1	0	4	0
15	306	10	10000	4	1	0	4	0
15	307	10	10000	4	1	0	4	0
15	308	10	10000	4	1	0	4	0
15	309	10	10000	4	1	0	4	0
15	310	10	10000	4	1	0	4	0
15	311	10	10000	4	1	0	4	0
16	312	10	10000	4	1	0	4	0
15	313	10	10000	4	1	0	4	0
15	314	10	10000	4	1	0	4	0
15	315	10	10000	4	1	0	4	0
17	316	10	10000	4	1	0	4	0
18	317	10	10000	4	1	0	4	0
18	318	10	10000	4	1	0	4	0
17	319	10	10000	4	1	0	4	0
18	320	10	10000	4	1	0	4	0
17	321	10	10000	4	1	0	4	0
16	322	10	10000	4	1	0	4	0
16	323	10	10000	4	1	0	4	0
17	324	10	10000	4	1	0	4	0
18	325	10	10000	4	1	0	4	0
18	326	10	10000	4	1	0	4	0
19	327	10	10000	4	1	0	4	0
21	328	10	10000	4	1	0	4	0
22	329	10	10000	4	1	0	4	0
23	330	10	10000	4	1	0	4	0
22	331	10	10000	4	1	0	4	0
22	332	10	10000	4	1	0	4	0
23	333	10	10000	4	1	0	4	0
25	334	10	10000	4	1	0	4	0
24	335	10	10000	4	1	0	4	0
26	336	10	10000	4	1	0	4	0
26	337	10	10000	4	1	0	4	0
25	338	10	10000	4	1	0	4	0
25	339	10	10000	4	1	0	4	0
24	340	10	10000	4	1	0	4	0
23	341	10	10000	4	1	0	4	0
23	342	10	10000	4	1	0	4	0
22	343	10	10000	4	1	0	4	0
22	344	10	10000	4	1	0	4	0
21	345	10	10000	4	1	0	4	0
19	346	10	10000	4	1	0	4	0
18	347	10	10000	4	1	0	4	0
18	348	10	10000	4	1	0	4	0
17	349	10	10000	4	1	0	4	0
17	350	10	10000	4	1	0	4	0
18	351	10	10000	4	1	0	4	0
17	352	10	10000	4	1	0	4	0
16	353	10	10000	4	1	0	4	0
17	354	10	10000	4	1	0	4	0
17	355	10	10000	4	1	0	4	0
20	356	10	10000	4	1	0	4	0
20	357	10	10000	4	1	0	4	0
20	358	10	10000	4	1	0	4	0
21	359	10	10000	4	1	0	4	0
20	360	10	10000	4	1	0	4	0
20	361	10	10000	4	1	0	4	0
19	362	10	10000	4	1	0	4	0
20	363	10	10000	4	1	0	4	0
20	364	10	10000	4	1	0	4	0
20	365	10	10000	4	1	0	4	0
19	366	10	10000	4	1	0	4	0
20	367	10	10000	4	1	0	4	0
22	368	10	10000	4	1	0	4	0
23	369	10	10000	4	1	0	4	0
23	370	10	10000	4	1	0	4	0
25	371	10	10000	4	1	0	4	0
26	372	10	10000	4	1	0	4	0
26	373	10	10000	4	1	0	4	0
27	374	10	10000	4	1	0	4	0
28	375	10	10000	4	1	0	4	0
31	376	10	10000	4	1	0	4	0
32	377	10	10000	4	1	0	4	0
31	378	10	10000	4	1	0	4	0
30	379	10	10000	4	1	0	4	0
31	380	10	10000	4	1	0	4	0
32	381	10	10000	4	1	0	4	0
33	382	10	10000	4	1	0	4	0
34	383	10	10000	4	1	0	4	0
38	384	10	10000	4	1	0	4	0
41	385	10	10000	4	1	0	4	0
43	386	10	10000	4	1	0	4	0
46	387	10	10000	4	1	0	4	0
49	388	10	10000	4	1	0	4	0
53	389	10	10000	4	1	0	4	0
56	390	10	10000	4	1	0	4	0
59	391	10	10000	4	1	0	4	0
63	392	10	10000	4	1	0	4	0
67	393	10	10000	4	1	0	4	0
74	394	10	10000	4	1	0	4	0
81	395	10	10000	4	1	0	4	0
89	396	10	10000	4	1	0	4	0
95	397	10	10000	4	1	0	4	0
101	398	10	10000	4	1	0	4	0
106	399	10	10000	4	1	0	4	0
110	400	10	10000	4	1	0	4	0
113	401	10	10000	4	1	0	4	0
114	402	10	10000	4	1	0	4	0
115	403	10	10000	4	1	0	4	0
117	404	10	10000	4	1	0	4	0
119	405	10	10000	4	1	0	4	0
120	406	10	10000	4	1	0	4	0
121	407	10	10000	4	1	0	4	0
122	408	10	10000	4	1	0	4	0
122	409	10	10000	4	1	0	4	0
120	410	10	10000	4	1	0	4	0
117	411	10	10000	4	1	0	4	0
115	412	10	10000	4	1	0	4	0
111	413	10	10000	4	1	0	4	0
106	414	10	10000	4	1	0	4	0
101	415	10	10000	4	1	0	4	0
98	416	10	10000	4	1	0	4	0
95	417	10	10000	4	1	0	4	0
92	418	10	10000	4	1	0	4	0
90	419	10	10000	4	1	0	4	0
88	420	10	10000	4	1	0	4	0
87	421	10	10000	4	1	0	4	0
86	422	10	10000	4	1	0	4	0
86	423	10	10000	4	1	0	4	0
86	424	10	10000	4	1	0	4	0
89	425	10	10000	4	1	0	4	0
87	426	10	10000	4	1	0	4	0
89	427	10	10000	4	1	0	4	0
91	428	10	10000	4	1	0	4	0
93	429	10	10000	4	1	0	4	0
97	430	10	10000	4	1	0	4	0
101	431	10	10000	4	1	0	4	0
105	432	10	10000	4	1	0	4	0
109	433	10	10000	4	1	0	4	0
112	434	10	10000	4	1	0	4	0
116	435	10	10000	4	1	0	4	0
120	436	10	10000	4	1	0	4	0
124	437	10	10000	4	1	0	4	0
126	438	10	10000	4	1	0	4	0
128	439	10	10000	4	1	0	4	0
129	440	10	10000	4	1	0	4	0
132	441	10	10000	4	1	0	4	0
135	442	10	10000	4	1	0	4	0
139	443	10	10000	4	1	0	4	0
141	444	10	10000	4	1	0	4	0
142	445	10	10000	4	1	0	4	0
140	446	10	10000	4	1	0	4	0
138	447	10	10000	4	1	0	4	0
139	448	10	10000	4	1	0	4	0
139	449	10	10000	4	1	0	4	0
137	450	10	10000	4	1	0	4	0
136	451	10	10000	4	1	0	4	0
134	452	10	10000	4	1	0	4	0
131	453	10	10000	4	1	0	4	0
130	454	10	10000	4	1	0	4	0
129	455	10	10000	4	1	0	4	0
130	456	10	10000	4	1	0	4	0
129	457	10	10000	4	1	0	4	0
128	458	10	10000	4	1	0	4	0
126	459	10	10000	4	1	0	4	0
124	460	10	10000	4	1	0	4	0
122	461	10	10000	4	1	0	4	0
118	462	10	10000	4	1	0	4	0
115	463	10	10000	4	1	0	4	0
113	464	10	10000	4	1	0	4	0
111	465	10	10000	4	1	0	4	0
107	466	10	10000	4	1	0	4	0
104	467	10	10000	4	1	0	4	0
101	468	10	10000	4	1	0	4	0
99	469	10	10000	4	1	0	4	0
96	470	10	10000	4	1	0	4	0
94	471	10	10000	4	1	0	4	0
92	472	10	10000	4	1	0	4	0
90	473	10	10000	4	1	0	4	0
88	474	10	10000	4	1	0	4	0
85	475	10	10000	4	1	0	4	0
86	476	10	10000	4	1	0	4	0
83	477	10	10000	4	1	0	4	0
80	478	10	10000	4	1	0	4	0
79	479	10	10000	4	1	0	4	0
76	480	10	10000	4	1	0	4	0
74	481	10	10000	4	1	0	4	0
73	482	10	10000	4	1	0	4	0
71	483	10	10000	4	1	0	4	0
70	484	10	10000	4	1	0	4	0
69	485	10	10000	4	1	0	4	0
64	486	10	10000	4	1	0	4	0
61	487	10	10000	4	1	0	4	0
59	488	10	10000	4	1	0	4	0
56	489	10	10000	4	1	0	4	0
55	490	10	10000	4	1	0	4	0
52	491	10	10000	4	1	0	4	0
50	492	10	10000	4	1	0	4	0
48	493	10	10000	4	1	0	4	0
46	494	10	10000	4	1	0	4	0
43	495	10	10000	4	1	0	4	0
43	496	10	10000	4	1	0	4	0
42	497	10	10000	4	1	0	4	0
41	498	10	10000	4	1	0	4	0
40	499	10	10000	4	1	0	4	0
39	500	10	10000	4	1	0	4	0
37	501	10	10000	4	1	0	4	1
35	502	10	10000	4	1	0	4	1
34	503	10	10000	4	1	0	4	1
33	504	10	10000	4	1	0	4	1
32	505	10	10000	4	1	0	4	1
30	506	10	10000	4	1	0	4	1
28	507	10	10000	4	1	0	4	1
27	508	10	10000	4	1	0	4	1
27	509	10	10000	4	1	0	4	1
26	510	10	10000	4	1	0	4	1
25	511	10	10000	4	1	0	4	1
25	512	10	10000	4	1	0	4	1
23	513	10	10000	4	1	0	4	1
23	514	10	10000	4	1	0	4	1
23	515	10	10000	4	1	0	4	1
24	516	10	10000	4	1	0	4	1
24	517	10	10000	4	1	0	4	1
23	518	10	10000	4	1	0	4	1
23	519	10	10000	4	1	0	4	1
23	520	10	10000	4	1	0	4	1
23	521	10	10000	4	1	0	4	1
22	522	10	10000	4	1	0	4	1
22	523	10	10000	4	1	0	4	1
22	524	10	10000	4	1	0	4	1
23	525	10	10000	4	1	0	4	1
22	526	10	10000	4	1	0	4	1
22	527	10	10000	4	1	0	4	1
23	528	10	10000	4	1	0	4	1
23	529	10	10000	4	1	0	4	1
23	530	10	10000	4	1	0	4	1
24	531	10	10000	4	1	0	4	1
25	532	10	10000	4	1	0	4	1
26	533	10	10000	4	1	0	4	1
25	534	10	10000	4	1	0	4	1
24	535	10	10000	4	1	0	4	1
25	536	10	10000	4	1	0	4	1
25	537	10	10000	4	1	0	4	1
25	538	10	10000	4	1	0	4	1
25	539	10	10000	4	1	0	4	1
25	540	10	10000	4	1	0	4	1
26	541	10	10000	4	1	0	4	1
26	542	10	10000	4	1	0	4	1
26	543	10	10000	4	1	0	4	1
27	544	10	10000	4	1	0	4	1
28	545	10	10000	4	1	0	4	1
26	546	10	10000	4	1	0	4	1
25	547	10	10000	4	1	0	4	1
24	548	10	10000	4	1	0	4	1
23	549	10	10000	4	1	0	4	1
23	550	10	10000	4	1	0	4	1
23	551	10	10000	4	1	0	4	0
22	552	10	10000	4	1	0	4	0
21	553	10	10000	4	1	0	4	0
20	554	10	10000	4	1	0	4	0
20	555	10	10000	4	1	0	4	0
20	556	10	10000	4	1	0	4	0
20	557	10	10000	4	1	0	4	0
19	558	10	10000	4	1	0	4	0
18	559	10	10000	4	1	0	4	0
18	560	10	10000	4	1	0	4	0
18	561	10	10000	4	1	0	4	0
18	562	10	10000	4	1	0	4	0
18	563	10	10000	4	1	0	4	0
18	564	10	10000	4	1	0	4	0
19	565	10	10000	4	1	0	4	0
16	566	10	10000	4	1	0	4	0
16	567	10	10000	4	1	0	4	0
17	568	10	10000	4	1	0	4	0
16	569	10	10000	4	1	0	4	0
16	570	10	10000	4	1	0	4	0
16	571	10	10000	4	1	0	4	0
16	572	10	10000	4	1	0	4	0
16	573	10	10000	4	1	0	4	0
16	574	10	10000	4	1	0	4	0
15	575	10	10000	4	1	0	4	0
17	576	10	10000	4	1	0	4	0
18	577	10	10000	4	1	0	4	0
18	578	10	10000	4	1	0	4	0
20	579	10	10000	4	1	0	4	0
26	580	10	10000	4	1	0	4	0
37	581	10	10000	4	1	0	4	0
56	582	10	10000	4	1	0	4	0
79	583	10	10000	4	1	0	4	0
95	584	10	10000	4	1	0	4	0
102	585	10	10000	4	1	0	4	0
134	586	10	10000	4	1	0	4	0
213	587	10	10000	4	1	0	4	0
293	588	10	10000	4	1	0	4	0
336	589	10	10000	4	1	0	4	0
333	590	10	10000	4	1	0	4	0
339	591	10	10000	4	1	0	4	0
339	592	10	10000	4	1	0	4	0
328	593	10	10000	4	1	0	4	0
332	594	10	10000	4	1	0	4	0
327	595	10	10000	4	1	0	4	0
359	596	10	10000	4	1	0	4	0
400	597	10	10000	4	1	0	4	0
411	598	10	10000	4	1	0	4	0
429	599	10	10000	4	1	0	4	0
453	600	10	10000	4	1	0	4	0
548	601	10	10000	4	1	0	4	0
564	602	10	10000	4	1	0	4	0
594	603	10	10000	4	1	0	4	0
687	604	10	10000	4	1	0	4	0
727	605	10	10000	4	1	0	4	0
713	606	10	10000	4	1	0	4	0
744	607	10	10000	4	1	0	4	0
790	608	10	10000	4	1	0	4	0
780	609	10	10000	4	1	0	4	0
801	610	10	10000	4	1	0	4	0
849	611	10	10000	4	1	0	4	0
868	612	10	10000	4	1	0	4	0
835	613	10	10000	4	1	0	4	0
813	614	10	10000	4	1	0	4	0
842	615	10	10000	4	1	0	4	0
907	616	10	10000	4	1	0	4	0
972	617	10	10000	4	1	0	4	0
1019	618	10	10000	4	1	0	4	0
1039	619	10	10000	4	1	0	4	0
1025	620	10	10000	4	1	0	4	0
984	621	10	10000	4	1	0	4	0
938	622	10	10000	4	1	0	4	0
896	623	10	10000	4	1	0	4	0
860	624	10	10000	4	1	0	4	0
829	625	10	10000	4	1	0	4	0
795	626	10	10000	4	1	0	4	0
763	627	10	10000	4	1	0	4	0
731	628	10	10000	4	1	0	4	0
697	629	10	10000	4	1	0	4	0
669	630	10	10000	4	1	0	4	0
643	631	10	10000	4	1	0	4	0
613	632	10	10000	4	1	0	4	0
587	633	10	10000	4	1	0	4	0
563	634	10	10000	4	1	0	4	0
544	635	10	10000	4	1	0	4	0
531	636	10	10000	4	1	0	4	0
534	637	10	10000	4	1	0	4	0
569	638	10	10000	4	1	0	4	0
600	639	10	10000	4	1	0	4	0
590	640	10	10000	4	1	0	4	0
620	641	10	10000	4	1	0	4	0
648	642	10	10000	4	1	0	4	0
646	643	10	10000	4	1	0	4	0
633	644	10	10000	4	1	0	4	0
624	645	10	10000	4	1	0	4	0
620	646	10	10000	4	1	0	4	0
619	647	10	10000	4	1	0	4	0
616	648	10	10000	4	1	0	4	0
608	649	10	10000	4	1	0	4	0
596	650	10	10000	4	1	0	4	0
582	651	10	10000	4	1	0	4	0
562	652	10	10000	4	1	0	4	0
537	653	10	10000	4	1	0	4	0
515	654	10	10000	4	1	0	4	0
493	655	10	10000	4	1	0	4	0
473	656	10	10000	4	1	0	4	0
453	657	10	10000	4	1	0	4	0
434	658	10	10000	4	1	0	4	0
415	659	10	10000	4	1	0	4	0
395	660	10	10000	4	1	0	4	0
377	661	10	10000	4	1	0	4	0
360	662	10	10000	4	1	0	4	0
346	663	10	10000	4	1	0	4	0
333	664	10	10000	4	1	0	4	0
319	665	10	10000	4	1	0	4	0
303	666	10	10000	4	1	0	4	0
292	667	10	10000	4	1	0	4	0
282	668	10	10000	4	1	0	4	0
273	669	10	10000	4	1	0	4	0
266	670	10	10000	4	1	0	4	0
257	671	10	10000	4	1	0	4	0
247	672	10	10000	4	1	0	4	0
237	673	10	10000	4	1	0	4	0
232	674	10	10000	4	1	0	4	0
228	675	10	10000	4	1	0	4	0
226	676	10	10000	4	1	0	4	0
225	677	10	10000	4	1	0	4	0
224	678	10	10000	4	1	0	4	0
224	679	10	10000	4	1	0	4	0
222	680	10	10000	4	1	0	4	0
222	681	10	10000	4	1	0	4	0
222	682	10	10000	4	1	0	4	0
222	683	10	10000	4	1	0	4	0
221	684	10	10000	4	1	0	4	0
222	685	10	10000	4	1	0	4	0
221	686	10	10000	4	1	0	4	0
221	687	10	10000	4	1	0	4	0
224	688	10	10000	4	1	0	4	0
227	689	10	10000	4	1	0	4	0
231	690	10	10000	4	1	0	4	0
236	691	10	10000	4	1	0	4	0
241	692	10	10000	4	1	0	4	0
248	693	10	10000	4	1	0	4	0
256	694	10	10000	4	1	0	4	0
265	695	10	10000	4	1	0	4	0
276	696	10	10000	4	1	0	4	0
286	697	10	10000	4	1	0	4	0
294	698	10	10000	4	1	0	4	0
303	699	10	10000	4	1	0	4	0
310	700	10	10000	4	1	0	4	0
317	701	10	10000	4	1	0	4	0
322	702	10	10000	4	1	0	4	0
329	703	10	10000	4	1	0	4	0
333	704	10	10000	4	1	0	4	0
338	705	10	10000	4	1	0	4	0
342	706	10	10000	4	1	0	4	0
347	707	10	10000	4	1	0	4	0
353	708	10	10000	4	1	0	4	0
360	709	10	10000	4	1	0	4	0
368	710	10	10000	4	1	0	4	0
374	711	10	10000	4	1	0	4	0
382	712	10	10000	4	1	0	4	0
390	713	10	10000	4	1	0	4	0
398	714	10	10000	4	1	0	4	0
407	715	10	10000	4	1	0	4	0
417	716	10	10000	4	1	0	4	0
425	717	10	10000	4	1	0	4	0
429	718	10	10000	4	1	0	4	0
432	719	10	10000	4	1	0	4	0
433	720	10	10000	4	1	0	4	0
434	721	10	10000	4	1	0	4	0
434	722	10	10000	4	1	0	4	0
434	723	10	10000	4	1	0	4	0
433	724	10	10000	4	1	0	4	0
432	725	10	10000	4	1	0	4	0
429	726	10	10000	4	1	0	4	0
426	727	10	10000	4	1	0	4	0
423	728	10	10000	4	1	0	4	0
420	729	10	10000	4	1	0	4	0
417	730	10	10000	4	1	0	4	0
411	731	10	10000	4	1	0	4	0
407	732	10	10000	4	1	0	4	0
404	733	10	10000	4	1	0	4	0
401	734	10	10000	4	1	0	4	0
399	735	10	10000	4	1	0	4	0
401	736	10	10000	4	1	0	4	0
400	737	10	10000	4	1	0	4	0
396	738	10	10000	4	1	0	4	0
392	739	10	10000	4	1	0	4	0
386	740	10	10000	4	1	0	4	0
379	741	10	10000	4	1	0	4	0
371	742	10	10000	4	1	0	4	0
362	743	10	10000	4	1	0	4	0
352	744	10	10000	4	1	0	4	0
341	745	10	10000	4	1	0	4	0
326	746	10	10000	4	1	0	4	0
313	747	10	10000	4	1	0	4	0
301	748	10	10000	4	1	0	4	0
289	749	10	10000	4	1	0	4	0
279	750	10	10000	4	1	0	4	0
269	751	10	10000	4	1	0	4	0
259	752	10	10000	4	1	0	4	0
250	753	10	10000	4	1	0	4	0
241	754	10	10000	4	1	0	4	0
232	755	10	10000	4	1	0	4	0
225	756	10	10000	4	1	0	4	0
215	757	10	10000	4	1	0	4	0
205	758	10	10000	4	1	0	4	0
195	759	10	10000	4	1	0	4	0
188	760	10	10000	4	1	0	4	0
181	761	10	10000	4	1	0	4	0
177	762	10	10000	4	1	0	4	0
175	763	10	10000	4	1	0	4	0
173	764	10	10000	4	1	0	4	0
173	765	10	10000	4	1	0	4	0
171	766	10	10000	4	1	0	4	0
170	767	10	10000	4	1	0	4	0
170	768	10	10000	4	1	0	4	0
171	769	10	10000	4	1	0	4	0
170	770	10	10000	4	1	0	4	0
169	771	10	10000	4	1	0	4	0
168	772	10	10000	4	1	0	4	0
167	773	10	10000	4	1	0	4	0
166	774	10	10000	4	1	0	4	0
165	775	10	10000	4	1	0	4	0
165	776	10	10000	4	1	0	4	0
164	777	10	10000	4	1	0	4	0
162	778	10	10000	4	1	0	4	0
162	779	10	10000	4	1	0	4	0
162	780	10	10000	4	1	0	4	0
164	781	10	10000	4	1	0	4	0
166	782	10	10000	4	1	0	4	0
168	783	10	10000	4	1	0	4	0
169	784	10	10000	4	1	0	4	0
172	785	10	10000	4	1	0	4	0
172	786	10	10000	4	1	0	4	0
173	787	10	10000	4	1	0	4	0
175	788	10	10000	4	1	0	4	0
176	789	10	10000	4	1	0	4	0
176	790	10	10000	4	1	0	4	0
176	791	10	10000	4	1	0	4	0
175	792	10	10000	4	1	0	4	0
174	793	10	10000	4	1	0	4	0
172	794	10	10000	4	1	0	4	0
169	795	10	10000	4	1	0	4	0
167	796	10	10000	4	1	0	4	0
165	797	10	10000	4	1	0	4	0
163	798	10	10000	4	1	0	4	0
162	799	10	10000	4	1	0	4	0
159	800	10	10000	4	1	0	4	0
157	801	10	10000	4	1	0	4	0
156	802	10	10000	4	1	0	4	0
156	803	10	10000	4	1	0	4	0
156	804	10	10000	4	1	0	4	0
158	805	10	10000	4	1	0	4	0
156	806	10	10000	4	1	0	4	0
155	807	10	10000	4	1	0	4	0
155	808	10	10000	4	1	0	4	0
154	809	10	10000	4	1	0	4	0
154	810	10	10000	4	1	0	4	0
155	811	10	10000	4	1	0	4	0
154	812	10	10000	4	1	0	4	0
151	813	10	10000	4	1	0	4	0
147	814	10	10000	4	1	0	4	0
143	815	10	10000	4	1	0	4	0
141	816	10	10000	4	1	0	4	0
138	817	10	10000	4	1	0	4	0
134	818	10	10000	4	1	0	4	0
131	819	10	10000	4	1	0	4	0
128	820	10	10000	4	1	0	4	0
126	821	10	10000	4	1	0	4	0
124	822	10	10000	4	1	0	4	0
123	823	10	10000	4	1	0	4	0
124	824	10	10000	4	1	0	4	0
126	825	10	10000	4	1	0	4	0
126	826	10	10000	4	1	0	4	0
127	827	10	10000	4	1	0	4	0
128	828	10	10000	4	1	0	4	0
128	829	10	10000	4	1	0	4	0
128	830	10	10000	4	1	0	4	0
127	831	10	10000	4	1	0	4	0
126	832	10	10000	4	1	0	4	0
123	833	10	10000	4	1	0	4	0
120	834	10	10000	4	1	0	4	0
116	835	10	10000	4	1	0	4	0
114	836	10	10000	4	1	0	4	0
112	837	10	10000	4	1	0	4	0
110	838	10	10000	4	1	0	4	0
109	839	10	10000	4	1	0	4	0
109	840	10	10000	4	1	0	4	0
109	841	10	10000	4	1	0	4	0
110	842	10	10000	4	1	0	4	0
110	843	10	10000	4	1	0	4	0
110	844	10	10000	4	1	0	4	0
109	845	10	10000	4	1	0	4	0
105	846	10	10000	4	1	0	4	0
103	847	10	10000	4	1	0	4	0
102	848	10	10000	4	1	0	4	0
100	849	10	10000	4	1	0	4	0
98	850	10	10000	4	1	0	4	0
96	851	10	10000	4	1	0	4	0
93	852	10	10000	4	1	0	4	0
91	853	10	10000	4	1	0	4	0
87	854	10	10000	4	1	0	4	0
84	855	10	10000	4	1	0	4	0
83	856	10	10000	4	1	0	4	0
79	857	10	10000	4	1	0	4	0
76	858	10	10000	4	1	0	4	0
74	859	10	10000	4	1	0	4	0
72	860	10	10000	4	1	0	4	0
72	861	10	10000	4	1	0	4	0
74	862	10	10000	4	1	0	4	0
76	863	10	10000	4	1	0	4	0
78	864	10	10000	4	1	0	4	0
81	865	10	10000	4	1	0	4	0
83	866	10	10000	4	1	0	4	0
85	867	10	10000	4	1	0	4	0
88	868	10	10000	4	1	0	4	0
88	869	10	10000	4	1	0	4	0
87	870	10	10000	4	1	0	4	0
83	871	10	10000	4	1	0	4	0
83	872	10	10000	4	1	0	4	0
80	873	10	10000	4	1	0	4	0
77	874	10	10000	4	1	0	4	0
75	875	10	10000	4	1	0	4	0
76	876	10	10000	4	1	0	4	0
78	877	10	10000	4	1	0	4	0
79	878	10	10000	4	1	0	4	0
80	879	10	10000	4	1	0	4	0
84	880	10	10000	4	1	0	4	0
89	881	10	10000	4	1	0	4	0
95	882	10	10000	4	1	0	4	0
101	883	10	10000	4	1	0	4	0
105	884	10	10000	4	1	0	4	0
109	885	10	10000	4	1	0	4	0
113	886	10	10000	4	1	0	4	0
117	887	10	10000	4	1	0	4	0
121	888	10	10000	4	1	0	4	0
124	889	10	10000	4	1	0	4	0
125	890	10	10000	4	1	0	4	0
127	891	10	10000	4	1	0	4	0
128	892	10	10000	4	1	0	4	0
126	893	10	10000	4	1	0	4	0
126	894	10	10000	4	1	0	4	0
123	895	10	10000	4	1	0	4	0
121	896	10	10000	4	1	0	4	0
117	897	10	10000	4	1	0	4	0
113	898	10	10000	4	1	0	4	0
108	899	10	10000	4	1	0	4	0
103	900	10	10000	4	1	0	4	0
99	901	10	10000	4	1	0	4	0
96	902	10	10000	4	1	0	4	0
91	903	10	10000	4	1	0	4	0
88	904	10	10000	4	1	0	4	0
85	905	10	10000	4	1	0	4	0
82	906	10	10000	4	1	0	4	0
80	907	10	10000	4	1	0	4	0
80	908	10	10000	4	1	0	4	0
80	909	10	10000	4	1	0	4	0
82	910	10	10000	4	1	0	4	0
84	911	10	10000	4	1	0	4	0
86	912	10	10000	4	1	0	4	0
88	913	10	10000	4	1	0	4	0
91	914	10	10000	4	1	0	4	0
93	915	10	10000	4	1	0	4	0
99	916	10	10000	4	1	0	4	0
104	917	10	10000	4	1	0	4	0
105	918	10	10000	4	1	0	4	0
108	919	10	10000	4	1	0	4	0
109	920	10	10000	4	1	0	4	0
110	921	10	10000	4	1	0	4	0
111	922	10	10000	4	1	0	4	0
111	923	10	10000	4	1	0	4	0
111	924	10	10000	4	1	0	4	0
112	925	10	10000	4	1	0	4	0
109	926	10	10000	4	1	0	4	0
106	927	10	10000	4	1	0	4	0
104	928	10	10000	4	1	0	4	0
102	929	10	10000	4	1	0	4	0
99	930	10	10000	4	1	0	4	0
98	931	10	10000	4	1	0	4	0
96	932	10	10000	4	1	0	4	0
97	933	10	10000	4	1	0	4	0
98	934	10	10000	4	1	0	4	0
97	935	10	10000	4	1	0	4	0
97	936	10	10000	4	1	0	4	0
98	937	10	10000	4	1	0	4	0
97	938	10	10000	4	1	0	4	0
96	939	10	10000	4	1	0	4	0
96	940	10	10000	4	1	0	4	0
95	941	10	10000	4	1	0	4	0
94	942	10	10000	4	1	0	4	0
92	943	10	10000	4	1	0	4	0
90	944	10	10000	4	1	0	4	0
87	945	10	10000	4	1	0	4	0
83	946	10	10000	4	1	0	4	0
79	947	10	10000	4	1	0	4	0
76	948	10	10000	4	1	0	4	0
74	949	10	10000	4	1	0	4	0
71	950	10	10000	4	1	0	4	0
68	951	10	10000	4	1	0	4	0
67	952	10	10000	4	1	0	4	0
65	953	10	10000	4	1	0	4	0
64	954	10	10000	4	1	0	4	0
63	955	10	10000	4	1	0	4	0
62	956	10	10000	4	1	0	4	0
62	957	10	10000	4	1	0	4	0
63	958	10	10000	4	1	0	4	0
62	959	10	10000	4	1	0	4	0
61	960	10	10000	4	1	0	4	0
61	961	10	10000	4	1	0	4	0
58	962	10	10000	4	1	0	4	0
57	963	10	10000	4	1	0	4	0
57	964	10	10000	4	1	0	4	0
56	965	10	10000	4	1	0	4	0
53	966	10	10000	4	1	0	4	0
51	967	10	10000	4	1	0	4	0
49	968	10	10000	4	1	0	4	0
48	969	10	10000	4	1	0	4	0
48	970	10	10000	4	1	0	4	0
45	971	10	10000	4	1	0	4	0
44	972	10	10000	4	1	0	4	0
43	973	10	10000	4	1	0	4	0
41	974	10	10000	4	1	0	4	0
40	975	10	10000	4	1	0	4	0
42	976	10	10000	4	1	0	4	0
43	977	10	10000	4	1	0	4	0
44	978	10	10000	4	1	0	4	0
43	979	10	10000	4	1	0	4	0
43	980	10	10000	4	1	0	4	0
41	981	10	10000	4	1	0	4	0
41	982	10	10000	4	1	0	4	0
42	983	10	10000	4	1	0	4	0
42	984	10	10000	4	1	0	4	0
43	985	10	10000	4	1	0	4	0
40	986	10	10000	4	1	0	4	0
39	987	10	10000	4	1	0	4	0
39	988	10	10000	4	1	0	4	0
39	989	10	10000	4	1	0	4	0
39	990	10	10000	4	1	0	4	0
39	991	10	10000	4	1	0	4	0
38	992	10	10000	4	1	0	4	0
36	993	10	10000	4	1	0	4	0
34	994	10	10000	4	1	0	4	0
32	995	10	10000	4	1	0	4	0
34	996	10	10000	4	1	0	4	0
35	997	10	10000	4	1	0	4	0
33	998	10	10000	4	1	0	4	0
32	999	10	10000	4	1	0	4	0
31	1000	10	10000	4	1	0	4	0
15	1	1	10000	5	1	0	5	0
14	2	1	10000	5	1	0	5	0
13	3	1	10000	5	1	0	5	0
14	4	1	10000	5	1	0	5	0
14	5	1	10000	5	1	0	5	0
13	6	1	10000	5	1	0	5	0
12	7	1	10000	5	1	0	5	0
11	8	1	10000	5	1	0	5	0
11	9	1	10000	5	1	0	5	0
11	10	1	10000	5	1	0	5	0
10	11	1	10000	5	1	0	5	0
10	12	1	10000	5	1	0	5	0
11	13	1	10000	5	1	0	5	0
10	14	1	10000	5	1	0	5	0
9	15	1	10000	5	1	0	5	0
10	16	1	10000	5	1	0	5	0
11	17	1	10000	5	1	0	5	0
10	18	1	10000	5	1	0	5	0
10	19	1	10000	5	1	0	5	0
10	20	1	10000	5	1	0	5	0
10	21	1	10000	5	1	0	5	0
10	22	1	10000	5	1	0	5	0
10	23	1	10000	5	1	0	5	0
10	24	1	10000	5	1	0	5	0
11	25	1	10000	5	1	0	5	0
11	26	1	10000	5	1	0	5	0
9	27	1	10000	5	1	0	5	0
12	28	1	10000	5	1	0	5	0
13	29	1	10000	5	1	0	5	0
15	30	1	10000	5	1	0	5	0
17	31	1	10000	5	1	0	5	0
16	32	1	10000	5	1	0	5	0
18	33	1	10000	5	1	0	5	0
20	34	1	10000	5	1	0	5	0
20	35	1	10000	5	1	0	5	0
22	36	1	10000	5	1	0	5	0
24	37	1	10000	5	1	0	5	0
22	38	1	10000	5	1	0	5	0
21	39	1	10000	5	1	0	5	0
22	40	1	10000	5	1	0	5	0
22	41	1	10000	5	1	0	5	0
25	42	1	10000	5	1	0	5	0
26	43	1	10000	5	1	0	5	0
27	44	1	10000	5	1	0	5	0
28	45	1	10000	5	1	0	5	0
27	46	1	10000	5	1	0	5	0
24	47	1	10000	5	1	0	5	0
23	48	1	10000	5	1	0	5	0
23	49	1	10000	5	1	0	5	0
22	50	1	10000	5	1	0	5	0
22	51	1	10000	5	1	0	5	0
24	52	1	10000	5	1	0	5	0
27	53	1	10000	5	1	0	5	0
29	54	1	10000	5	1	0	5	0
32	55	1	10000	5	1	0	5	0
33	56	1	10000	5	1	0	5	0
38	57	1	10000	5	1	0	5	0
40	58	1	10000	5	1	0	5	0
41	59	1	10000	5	1	0	5	0
43	60	1	10000	5	1	0	5	0
45	61	1	10000	5	1	0	5	0
46	62	1	10000	5	1	0	5	0
46	63	1	10000	5	1	0	5	0
47	64	1	10000	5	1	0	5	0
46	65	1	10000	5	1	0	5	0
46	66	1	10000	5	1	0	5	0
44	67	1	10000	5	1	0	5	0
42	68	1	10000	5	1	0	5	0
40	69	1	10000	5	1	0	5	0
40	70	1	10000	5	1	0	5	0
39	71	1	10000	5	1	0	5	0
37	72	1	10000	5	1	0	5	0
37	73	1	10000	5	1	0	5	0
34	74	1	10000	5	1	0	5	0
34	75	1	10000	5	1	0	5	0
34	76	1	10000	5	1	0	5	0
34	77	1	10000	5	1	0	5	0
32	78	1	10000	5	1	0	5	0
31	79	1	10000	5	1	0	5	0
30	80	1	10000	5	1	0	5	0
32	81	1	10000	5	1	0	5	0
35	82	1	10000	5	1	0	5	0
37	83	1	10000	5	1	0	5	0
40	84	1	10000	5	1	0	5	0
43	85	1	10000	5	1	0	5	0
44	86	1	10000	5	1	0	5	0
43	87	1	10000	5	1	0	5	0
44	88	1	10000	5	1	0	5	0
44	89	1	10000	5	1	0	5	0
46	90	1	10000	5	1	0	5	0
47	91	1	10000	5	1	0	5	0
47	92	1	10000	5	1	0	5	0
48	93	1	10000	5	1	0	5	0
46	94	1	10000	5	1	0	5	0
45	95	1	10000	5	1	0	5	0
45	96	1	10000	5	1	0	5	0
47	97	1	10000	5	1	0	5	0
46	98	1	10000	5	1	0	5	0
46	99	1	10000	5	1	0	5	0
46	100	1	10000	5	1	0	5	0
46	101	1	10000	5	1	0	5	0
46	102	1	10000	5	1	0	5	0
45	103	1	10000	5	1	0	5	0
44	104	1	10000	5	1	0	5	0
43	105	1	10000	5	1	0	5	0
43	106	1	10000	5	1	0	5	0
40	107	1	10000	5	1	0	5	0
39	108	1	10000	5	1	0	5	0
40	109	1	10000	5	1	0	5	0
40	110	1	10000	5	1	0	5	0
40	111	1	10000	5	1	0	5	0
40	112	1	10000	5	1	0	5	0
38	113	1	10000	5	1	0	5	0
36	114	1	10000	5	1	0	5	0
35	115	1	10000	5	1	0	5	0
33	116	1	10000	5	1	0	5	0
34	117	1	10000	5	1	0	5	0
33	118	1	10000	5	1	0	5	0
32	119	1	10000	5	1	0	5	0
32	120	1	10000	5	1	0	5	0
32	121	1	10000	5	1	0	5	0
31	122	1	10000	5	1	0	5	0
29	123	1	10000	5	1	0	5	0
30	124	1	10000	5	1	0	5	0
29	125	1	10000	5	1	0	5	0
29	126	1	10000	5	1	0	5	0
27	127	1	10000	5	1	0	5	0
27	128	1	10000	5	1	0	5	0
27	129	1	10000	5	1	0	5	0
26	130	1	10000	5	1	0	5	0
25	131	1	10000	5	1	0	5	0
24	132	1	10000	5	1	0	5	0
25	133	1	10000	5	1	0	5	0
24	134	1	10000	5	1	0	5	0
23	135	1	10000	5	1	0	5	0
23	136	1	10000	5	1	0	5	0
23	137	1	10000	5	1	0	5	0
22	138	1	10000	5	1	0	5	0
22	139	1	10000	5	1	0	5	0
22	140	1	10000	5	1	0	5	0
23	141	1	10000	5	1	0	5	0
22	142	1	10000	5	1	0	5	0
20	143	1	10000	5	1	0	5	0
21	144	1	10000	5	1	0	5	0
20	145	1	10000	5	1	0	5	0
20	146	1	10000	5	1	0	5	0
17	147	1	10000	5	1	0	5	0
17	148	1	10000	5	1	0	5	0
17	149	1	10000	5	1	0	5	0
16	150	1	10000	5	1	0	5	0
17	151	1	10000	5	1	0	5	0
16	152	1	10000	5	1	0	5	0
17	153	1	10000	5	1	0	5	0
16	154	1	10000	5	1	0	5	0
15	155	1	10000	5	1	0	5	0
15	156	1	10000	5	1	0	5	0
17	157	1	10000	5	1	0	5	0
16	158	1	10000	5	1	0	5	0
15	159	1	10000	5	1	0	5	0
15	160	1	10000	5	1	0	5	0
14	161	1	10000	5	1	0	5	0
14	162	1	10000	5	1	0	5	0
14	163	1	10000	5	1	0	5	0
15	164	1	10000	5	1	0	5	0
15	165	1	10000	5	1	0	5	0
16	166	1	10000	5	1	0	5	0
14	167	1	10000	5	1	0	5	0
14	168	1	10000	5	1	0	5	0
15	169	1	10000	5	1	0	5	0
15	170	1	10000	5	1	0	5	0
15	171	1	10000	5	1	0	5	0
15	172	1	10000	5	1	0	5	0
14	173	1	10000	5	1	0	5	0
14	174	1	10000	5	1	0	5	0
14	175	1	10000	5	1	0	5	0
15	176	1	10000	5	1	0	5	0
17	177	1	10000	5	1	0	5	0
17	178	1	10000	5	1	0	5	0
16	179	1	10000	5	1	0	5	0
16	180	1	10000	5	1	0	5	0
16	181	1	10000	5	1	0	5	0
16	182	1	10000	5	1	0	5	0
15	183	1	10000	5	1	0	5	0
16	184	1	10000	5	1	0	5	0
16	185	1	10000	5	1	0	5	0
15	186	1	10000	5	1	0	5	0
13	187	1	10000	5	1	0	5	0
13	188	1	10000	5	1	0	5	0
13	189	1	10000	5	1	0	5	0
13	190	1	10000	5	1	0	5	0
12	191	1	10000	5	1	0	5	0
12	192	1	10000	5	1	0	5	0
12	193	1	10000	5	1	0	5	0
11	194	1	10000	5	1	0	5	0
11	195	1	10000	5	1	0	5	0
11	196	1	10000	5	1	0	5	0
11	197	1	10000	5	1	0	5	0
12	198	1	10000	5	1	0	5	0
12	199	1	10000	5	1	0	5	0
11	200	1	10000	5	1	0	5	0
10	201	1	10000	5	1	0	5	0
10	202	1	10000	5	1	0	5	0
9	203	1	10000	5	1	0	5	0
10	204	1	10000	5	1	0	5	0
11	205	1	10000	5	1	0	5	0
12	206	1	10000	5	1	0	5	0
10	207	1	10000	5	1	0	5	0
11	208	1	10000	5	1	0	5	0
10	209	1	10000	5	1	0	5	0
10	210	1	10000	5	1	0	5	0
10	211	1	10000	5	1	0	5	0
10	212	1	10000	5	1	0	5	0
12	213	1	10000	5	1	0	5	0
14	214	1	10000	5	1	0	5	0
13	215	1	10000	5	1	0	5	0
13	216	1	10000	5	1	0	5	0
16	217	1	10000	5	1	0	5	0
16	218	1	10000	5	1	0	5	0
16	219	1	10000	5	1	0	5	0
16	220	1	10000	5	1	0	5	0
16	221	1	10000	5	1	0	5	0
16	222	1	10000	5	1	0	5	0
15	223	1	10000	5	1	0	5	0
15	224	1	10000	5	1	0	5	0
15	225	1	10000	5	1	0	5	0
15	226	1	10000	5	1	0	5	0
12	227	1	10000	5	1	0	5	0
14	228	1	10000	5	1	0	5	0
19	229	1	10000	5	1	0	5	0
26	230	1	10000	5	1	0	5	0
34	231	1	10000	5	1	0	5	0
41	232	1	10000	5	1	0	5	0
47	233	1	10000	5	1	0	5	0
47	234	1	10000	5	1	0	5	0
48	235	1	10000	5	1	0	5	0
51	236	1	10000	5	1	0	5	0
57	237	1	10000	5	1	0	5	0
59	238	1	10000	5	1	0	5	0
59	239	1	10000	5	1	0	5	0
58	240	1	10000	5	1	0	5	0
57	241	1	10000	5	1	0	5	0
56	242	1	10000	5	1	0	5	0
57	243	1	10000	5	1	0	5	0
60	244	1	10000	5	1	0	5	0
63	245	1	10000	5	1	0	5	0
63	246	1	10000	5	1	0	5	0
60	247	1	10000	5	1	0	5	0
57	248	1	10000	5	1	0	5	0
56	249	1	10000	5	1	0	5	0
54	250	1	10000	5	1	0	5	0
51	251	1	10000	5	1	0	5	0
49	252	1	10000	5	1	0	5	0
50	253	1	10000	5	1	0	5	0
50	254	1	10000	5	1	0	5	0
50	255	1	10000	5	1	0	5	0
49	256	1	10000	5	1	0	5	0
51	257	1	10000	5	1	0	5	0
50	258	1	10000	5	1	0	5	0
48	259	1	10000	5	1	0	5	0
47	260	1	10000	5	1	0	5	0
47	261	1	10000	5	1	0	5	0
48	262	1	10000	5	1	0	5	0
49	263	1	10000	5	1	0	5	0
51	264	1	10000	5	1	0	5	0
49	265	1	10000	5	1	0	5	0
48	266	1	10000	5	1	0	5	0
44	267	1	10000	5	1	0	5	0
43	268	1	10000	5	1	0	5	0
42	269	1	10000	5	1	0	5	0
41	270	1	10000	5	1	0	5	0
40	271	1	10000	5	1	0	5	0
39	272	1	10000	5	1	0	5	0
40	273	1	10000	5	1	0	5	0
40	274	1	10000	5	1	0	5	0
37	275	1	10000	5	1	0	5	0
37	276	1	10000	5	1	0	5	0
39	277	1	10000	5	1	0	5	0
39	278	1	10000	5	1	0	5	0
37	279	1	10000	5	1	0	5	0
36	280	1	10000	5	1	0	5	0
35	281	1	10000	5	1	0	5	0
32	282	1	10000	5	1	0	5	0
32	283	1	10000	5	1	0	5	0
32	284	1	10000	5	1	0	5	0
32	285	1	10000	5	1	0	5	0
31	286	1	10000	5	1	0	5	0
29	287	1	10000	5	1	0	5	0
29	288	1	10000	5	1	0	5	0
30	289	1	10000	5	1	0	5	0
31	290	1	10000	5	1	0	5	0
33	291	1	10000	5	1	0	5	0
34	292	1	10000	5	1	0	5	0
34	293	1	10000	5	1	0	5	0
32	294	1	10000	5	1	0	5	0
31	295	1	10000	5	1	0	5	0
30	296	1	10000	5	1	0	5	0
31	297	1	10000	5	1	0	5	0
30	298	1	10000	5	1	0	5	0
29	299	1	10000	5	1	0	5	0
29	300	1	10000	5	1	0	5	0
29	301	1	10000	5	1	0	5	0
28	302	1	10000	5	1	0	5	0
28	303	1	10000	5	1	0	5	0
29	304	1	10000	5	1	0	5	0
30	305	1	10000	5	1	0	5	0
32	306	1	10000	5	1	0	5	0
30	307	1	10000	5	1	0	5	0
30	308	1	10000	5	1	0	5	0
32	309	1	10000	5	1	0	5	0
33	310	1	10000	5	1	0	5	0
34	311	1	10000	5	1	0	5	0
35	312	1	10000	5	1	0	5	0
37	313	1	10000	5	1	0	5	0
36	314	1	10000	5	1	0	5	0
35	315	1	10000	5	1	0	5	0
34	316	1	10000	5	1	0	5	0
35	317	1	10000	5	1	0	5	0
34	318	1	10000	5	1	0	5	0
33	319	1	10000	5	1	0	5	0
32	320	1	10000	5	1	0	5	0
32	321	1	10000	5	1	0	5	0
32	322	1	10000	5	1	0	5	0
32	323	1	10000	5	1	0	5	0
33	324	1	10000	5	1	0	5	0
33	325	1	10000	5	1	0	5	0
33	326	1	10000	5	1	0	5	0
30	327	1	10000	5	1	0	5	0
30	328	1	10000	5	1	0	5	0
29	329	1	10000	5	1	0	5	0
30	330	1	10000	5	1	0	5	0
30	331	1	10000	5	1	0	5	0
30	332	1	10000	5	1	0	5	0
31	333	1	10000	5	1	0	5	0
31	334	1	10000	5	1	0	5	0
31	335	1	10000	5	1	0	5	0
31	336	1	10000	5	1	0	5	0
32	337	1	10000	5	1	0	5	0
32	338	1	10000	5	1	0	5	0
32	339	1	10000	5	1	0	5	0
31	340	1	10000	5	1	0	5	0
30	341	1	10000	5	1	0	5	0
30	342	1	10000	5	1	0	5	0
31	343	1	10000	5	1	0	5	0
31	344	1	10000	5	1	0	5	0
30	345	1	10000	5	1	0	5	0
30	346	1	10000	5	1	0	5	0
27	347	1	10000	5	1	0	5	0
26	348	1	10000	5	1	0	5	0
26	349	1	10000	5	1	0	5	0
27	350	1	10000	5	1	0	5	0
28	351	1	10000	5	1	0	5	0
27	352	1	10000	5	1	0	5	0
27	353	1	10000	5	1	0	5	0
28	354	1	10000	5	1	0	5	0
30	355	1	10000	5	1	0	5	0
29	356	1	10000	5	1	0	5	0
31	357	1	10000	5	1	0	5	0
30	358	1	10000	5	1	0	5	0
30	359	1	10000	5	1	0	5	0
29	360	1	10000	5	1	0	5	0
29	361	1	10000	5	1	0	5	0
28	362	1	10000	5	1	0	5	0
27	363	1	10000	5	1	0	5	0
28	364	1	10000	5	1	0	5	0
27	365	1	10000	5	1	0	5	0
26	366	1	10000	5	1	0	5	0
24	367	1	10000	5	1	0	5	0
23	368	1	10000	5	1	0	5	0
22	369	1	10000	5	1	0	5	0
22	370	1	10000	5	1	0	5	0
21	371	1	10000	5	1	0	5	0
21	372	1	10000	5	1	0	5	0
20	373	1	10000	5	1	0	5	0
19	374	1	10000	5	1	0	5	0
18	375	1	10000	5	1	0	5	0
18	376	1	10000	5	1	0	5	0
19	377	1	10000	5	1	0	5	0
18	378	1	10000	5	1	0	5	0
18	379	1	10000	5	1	0	5	0
18	380	1	10000	5	1	0	5	0
18	381	1	10000	5	1	0	5	0
17	382	1	10000	5	1	0	5	0
15	383	1	10000	5	1	0	5	0
16	384	1	10000	5	1	0	5	0
16	385	1	10000	5	1	0	5	0
15	386	1	10000	5	1	0	5	0
14	387	1	10000	5	1	0	5	0
15	388	1	10000	5	1	0	5	0
15	389	1	10000	5	1	0	5	0
16	390	1	10000	5	1	0	5	0
16	391	1	10000	5	1	0	5	0
15	392	1	10000	5	1	0	5	0
16	393	1	10000	5	1	0	5	0
17	394	1	10000	5	1	0	5	0
17	395	1	10000	5	1	0	5	0
17	396	1	10000	5	1	0	5	0
18	397	1	10000	5	1	0	5	0
17	398	1	10000	5	1	0	5	0
17	399	1	10000	5	1	0	5	0
17	400	1	10000	5	1	0	5	0
17	401	1	10000	5	1	0	5	0
16	402	1	10000	5	1	0	5	0
16	403	1	10000	5	1	0	5	0
17	404	1	10000	5	1	0	5	0
17	405	1	10000	5	1	0	5	0
16	406	1	10000	5	1	0	5	0
14	407	1	10000	5	1	0	5	0
14	408	1	10000	5	1	0	5	0
14	409	1	10000	5	1	0	5	0
14	410	1	10000	5	1	0	5	0
14	411	1	10000	5	1	0	5	0
13	412	1	10000	5	1	0	5	0
13	413	1	10000	5	1	0	5	0
12	414	1	10000	5	1	0	5	0
13	415	1	10000	5	1	0	5	0
13	416	1	10000	5	1	0	5	0
16	417	1	10000	5	1	0	5	0
16	418	1	10000	5	1	0	5	0
15	419	1	10000	5	1	0	5	0
14	420	1	10000	5	1	0	5	0
14	421	1	10000	5	1	0	5	0
15	422	1	10000	5	1	0	5	0
15	423	1	10000	5	1	0	5	0
16	424	1	10000	5	1	0	5	0
16	425	1	10000	5	1	0	5	0
16	426	1	10000	5	1	0	5	0
14	427	1	10000	5	1	0	5	0
14	428	1	10000	5	1	0	5	0
15	429	1	10000	5	1	0	5	0
16	430	1	10000	5	1	0	5	0
15	431	1	10000	5	1	0	5	0
15	432	1	10000	5	1	0	5	0
15	433	1	10000	5	1	0	5	0
14	434	1	10000	5	1	0	5	0
14	435	1	10000	5	1	0	5	0
13	436	1	10000	5	1	0	5	0
15	437	1	10000	5	1	0	5	0
16	438	1	10000	5	1	0	5	0
16	439	1	10000	5	1	0	5	0
16	440	1	10000	5	1	0	5	0
15	441	1	10000	5	1	0	5	0
15	442	1	10000	5	1	0	5	0
14	443	1	10000	5	1	0	5	0
14	444	1	10000	5	1	0	5	0
15	445	1	10000	5	1	0	5	0
15	446	1	10000	5	1	0	5	0
12	447	1	10000	5	1	0	5	0
13	448	1	10000	5	1	0	5	0
12	449	1	10000	5	1	0	5	0
14	450	1	10000	5	1	0	5	0
13	451	1	10000	5	1	0	5	0
13	452	1	10000	5	1	0	5	0
13	453	1	10000	5	1	0	5	0
12	454	1	10000	5	1	0	5	0
12	455	1	10000	5	1	0	5	0
15	456	1	10000	5	1	0	5	0
20	457	1	10000	5	1	0	5	0
22	458	1	10000	5	1	0	5	0
24	459	1	10000	5	1	0	5	0
24	460	1	10000	5	1	0	5	0
23	461	1	10000	5	1	0	5	0
24	462	1	10000	5	1	0	5	0
23	463	1	10000	5	1	0	5	0
23	464	1	10000	5	1	0	5	0
23	465	1	10000	5	1	0	5	0
23	466	1	10000	5	1	0	5	0
21	467	1	10000	5	1	0	5	0
22	468	1	10000	5	1	0	5	0
23	469	1	10000	5	1	0	5	0
23	470	1	10000	5	1	0	5	0
23	471	1	10000	5	1	0	5	0
22	472	1	10000	5	1	0	5	0
22	473	1	10000	5	1	0	5	0
22	474	1	10000	5	1	0	5	0
21	475	1	10000	5	1	0	5	0
20	476	1	10000	5	1	0	5	0
21	477	1	10000	5	1	0	5	0
22	478	1	10000	5	1	0	5	0
21	479	1	10000	5	1	0	5	0
20	480	1	10000	5	1	0	5	0
20	481	1	10000	5	1	0	5	0
20	482	1	10000	5	1	0	5	0
20	483	1	10000	5	1	0	5	0
21	484	1	10000	5	1	0	5	0
21	485	1	10000	5	1	0	5	0
22	486	1	10000	5	1	0	5	0
21	487	1	10000	5	1	0	5	0
20	488	1	10000	5	1	0	5	0
20	489	1	10000	5	1	0	5	0
20	490	1	10000	5	1	0	5	0
20	491	1	10000	5	1	0	5	0
19	492	1	10000	5	1	0	5	0
20	493	1	10000	5	1	0	5	0
19	494	1	10000	5	1	0	5	0
18	495	1	10000	5	1	0	5	0
19	496	1	10000	5	1	0	5	0
21	497	1	10000	5	1	0	5	0
22	498	1	10000	5	1	0	5	0
22	499	1	10000	5	1	0	5	0
21	500	1	10000	5	1	0	5	0
21	501	1	10000	5	1	0	5	1
20	502	1	10000	5	1	0	5	1
19	503	1	10000	5	1	0	5	1
19	504	1	10000	5	1	0	5	1
19	505	1	10000	5	1	0	5	1
17	506	1	10000	5	1	0	5	1
15	507	1	10000	5	1	0	5	1
15	508	1	10000	5	1	0	5	1
16	509	1	10000	5	1	0	5	1
18	510	1	10000	5	1	0	5	1
19	511	1	10000	5	1	0	5	1
18	512	1	10000	5	1	0	5	1
18	513	1	10000	5	1	0	5	1
18	514	1	10000	5	1	0	5	1
17	515	1	10000	5	1	0	5	1
17	516	1	10000	5	1	0	5	1
18	517	1	10000	5	1	0	5	1
18	518	1	10000	5	1	0	5	1
17	519	1	10000	5	1	0	5	1
17	520	1	10000	5	1	0	5	1
16	521	1	10000	5	1	0	5	1
16	522	1	10000	5	1	0	5	1
16	523	1	10000	5	1	0	5	1
16	524	1	10000	5	1	0	5	1
15	525	1	10000	5	1	0	5	1
15	526	1	10000	5	1	0	5	1
13	527	1	10000	5	1	0	5	1
14	528	1	10000	5	1	0	5	1
13	529	1	10000	5	1	0	5	1
13	530	1	10000	5	1	0	5	1
13	531	1	10000	5	1	0	5	1
13	532	1	10000	5	1	0	5	1
13	533	1	10000	5	1	0	5	1
14	534	1	10000	5	1	0	5	1
13	535	1	10000	5	1	0	5	1
13	536	1	10000	5	1	0	5	1
14	537	1	10000	5	1	0	5	1
14	538	1	10000	5	1	0	5	1
14	539	1	10000	5	1	0	5	1
15	540	1	10000	5	1	0	5	1
16	541	1	10000	5	1	0	5	1
17	542	1	10000	5	1	0	5	1
16	543	1	10000	5	1	0	5	1
16	544	1	10000	5	1	0	5	1
16	545	1	10000	5	1	0	5	1
17	546	1	10000	5	1	0	5	1
16	547	1	10000	5	1	0	5	1
17	548	1	10000	5	1	0	5	1
17	549	1	10000	5	1	0	5	1
17	550	1	10000	5	1	0	5	1
16	551	1	10000	5	1	0	5	0
16	552	1	10000	5	1	0	5	0
17	553	1	10000	5	1	0	5	0
17	554	1	10000	5	1	0	5	0
17	555	1	10000	5	1	0	5	0
16	556	1	10000	5	1	0	5	0
18	557	1	10000	5	1	0	5	0
17	558	1	10000	5	1	0	5	0
17	559	1	10000	5	1	0	5	0
16	560	1	10000	5	1	0	5	0
16	561	1	10000	5	1	0	5	0
15	562	1	10000	5	1	0	5	0
14	563	1	10000	5	1	0	5	0
15	564	1	10000	5	1	0	5	0
16	565	1	10000	5	1	0	5	0
15	566	1	10000	5	1	0	5	0
13	567	1	10000	5	1	0	5	0
13	568	1	10000	5	1	0	5	0
13	569	1	10000	5	1	0	5	0
14	570	1	10000	5	1	0	5	0
18	571	1	10000	5	1	0	5	0
18	572	1	10000	5	1	0	5	0
22	573	1	10000	5	1	0	5	0
33	574	1	10000	5	1	0	5	0
60	575	1	10000	5	1	0	5	0
97	576	1	10000	5	1	0	5	0
110	577	1	10000	5	1	0	5	0
119	578	1	10000	5	1	0	5	0
193	579	1	10000	5	1	0	5	0
304	580	1	10000	5	1	0	5	0
359	581	1	10000	5	1	0	5	0
369	582	1	10000	5	1	0	5	0
363	583	1	10000	5	1	0	5	0
407	584	1	10000	5	1	0	5	0
427	585	1	10000	5	1	0	5	0
472	586	1	10000	5	1	0	5	0
481	587	1	10000	5	1	0	5	0
526	588	1	10000	5	1	0	5	0
542	589	1	10000	5	1	0	5	0
540	590	1	10000	5	1	0	5	0
549	591	1	10000	5	1	0	5	0
549	592	1	10000	5	1	0	5	0
540	593	1	10000	5	1	0	5	0
555	594	1	10000	5	1	0	5	0
635	595	1	10000	5	1	0	5	0
684	596	1	10000	5	1	0	5	0
671	597	1	10000	5	1	0	5	0
674	598	1	10000	5	1	0	5	0
660	599	1	10000	5	1	0	5	0
686	600	1	10000	5	1	0	5	0
692	601	1	10000	5	1	0	5	0
688	602	1	10000	5	1	0	5	0
698	603	1	10000	5	1	0	5	0
701	604	1	10000	5	1	0	5	0
712	605	1	10000	5	1	0	5	0
764	606	1	10000	5	1	0	5	0
808	607	1	10000	5	1	0	5	0
839	608	1	10000	5	1	0	5	0
850	609	1	10000	5	1	0	5	0
852	610	1	10000	5	1	0	5	0
843	611	1	10000	5	1	0	5	0
818	612	1	10000	5	1	0	5	0
783	613	1	10000	5	1	0	5	0
749	614	1	10000	5	1	0	5	0
720	615	1	10000	5	1	0	5	0
693	616	1	10000	5	1	0	5	0
666	617	1	10000	5	1	0	5	0
637	618	1	10000	5	1	0	5	0
610	619	1	10000	5	1	0	5	0
586	620	1	10000	5	1	0	5	0
565	621	1	10000	5	1	0	5	0
547	622	1	10000	5	1	0	5	0
530	623	1	10000	5	1	0	5	0
515	624	1	10000	5	1	0	5	0
502	625	1	10000	5	1	0	5	0
490	626	1	10000	5	1	0	5	0
472	627	1	10000	5	1	0	5	0
455	628	1	10000	5	1	0	5	0
438	629	1	10000	5	1	0	5	0
433	630	1	10000	5	1	0	5	0
433	631	1	10000	5	1	0	5	0
429	632	1	10000	5	1	0	5	0
417	633	1	10000	5	1	0	5	0
418	634	1	10000	5	1	0	5	0
435	635	1	10000	5	1	0	5	0
447	636	1	10000	5	1	0	5	0
453	637	1	10000	5	1	0	5	0
455	638	1	10000	5	1	0	5	0
457	639	1	10000	5	1	0	5	0
458	640	1	10000	5	1	0	5	0
456	641	1	10000	5	1	0	5	0
455	642	1	10000	5	1	0	5	0
451	643	1	10000	5	1	0	5	0
443	644	1	10000	5	1	0	5	0
431	645	1	10000	5	1	0	5	0
416	646	1	10000	5	1	0	5	0
397	647	1	10000	5	1	0	5	0
382	648	1	10000	5	1	0	5	0
369	649	1	10000	5	1	0	5	0
357	650	1	10000	5	1	0	5	0
346	651	1	10000	5	1	0	5	0
337	652	1	10000	5	1	0	5	0
331	653	1	10000	5	1	0	5	0
324	654	1	10000	5	1	0	5	0
318	655	1	10000	5	1	0	5	0
313	656	1	10000	5	1	0	5	0
312	657	1	10000	5	1	0	5	0
307	658	1	10000	5	1	0	5	0
299	659	1	10000	5	1	0	5	0
291	660	1	10000	5	1	0	5	0
282	661	1	10000	5	1	0	5	0
272	662	1	10000	5	1	0	5	0
261	663	1	10000	5	1	0	5	0
250	664	1	10000	5	1	0	5	0
240	665	1	10000	5	1	0	5	0
232	666	1	10000	5	1	0	5	0
224	667	1	10000	5	1	0	5	0
218	668	1	10000	5	1	0	5	0
214	669	1	10000	5	1	0	5	0
210	670	1	10000	5	1	0	5	0
206	671	1	10000	5	1	0	5	0
203	672	1	10000	5	1	0	5	0
200	673	1	10000	5	1	0	5	0
195	674	1	10000	5	1	0	5	0
192	675	1	10000	5	1	0	5	0
190	676	1	10000	5	1	0	5	0
191	677	1	10000	5	1	0	5	0
