value	EMG	Stimulus	EMG_sensitivity	Total_Trial_Nr	practise	acq	probe_nr	Startle_Probe
2490	2	10	10000	1	1	0	1	0
2437	3	10	10000	1	1	0	1	0
2358	4	10	10000	1	1	0	1	0
2340	5	10	10000	1	1	0	1	0
2369	6	10	10000	1	1	0	1	0
2449	7	10	10000	1	1	0	1	0
2568	8	10	10000	1	1	0	1	0
2637	9	10	10000	1	1	0	1	0
2655	10	10	10000	1	1	0	1	0
2664	11	10	10000	1	1	0	1	0
2676	12	10	10000	1	1	0	1	0
2660	13	10	10000	1	1	0	1	0
2612	14	10	10000	1	1	0	1	0
2518	15	10	10000	1	1	0	1	0
2435	16	10	10000	1	1	0	1	0
2393	17	10	10000	1	1	0	1	0
2377	18	10	10000	1	1	0	1	0
2355	19	10	10000	1	1	0	1	0
2290	20	10	10000	1	1	0	1	0
2236	21	10	10000	1	1	0	1	0
2291	21	10	10000	1	1	0	1	0
2427	22	10	10000	1	1	0	1	0
2598	24	10	10000	1	1	0	1	0
2747	25	10	10000	1	1	0	1	0
2809	26	10	10000	1	1	0	1	0
2720	27	10	10000	1	1	0	1	0
2673	28	10	10000	1	1	0	1	0
2691	29	10	10000	1	1	0	1	0
2718	30	10	10000	1	1	0	1	0
2699	31	10	10000	1	1	0	1	0
2605	31	10	10000	1	1	0	1	0
2555	32	10	10000	1	1	0	1	0
2602	34	10	10000	1	1	0	1	0
2589	35	10	10000	1	1	0	1	0
2496	36	10	10000	1	1	0	1	0
2393	37	10	10000	1	1	0	1	0
2316	38	10	10000	1	1	0	1	0
2241	39	10	10000	1	1	0	1	0
2155	40	10	10000	1	1	0	1	0
2066	41	10	10000	1	1	0	1	0
2019	41	10	10000	1	1	0	1	0
2046	42	10	10000	1	1	0	1	0
2078	44	10	10000	1	1	0	1	0
2082	45	10	10000	1	1	0	1	0
2030	46	10	10000	1	1	0	1	0
2104	47	10	10000	1	1	0	1	0
2266	48	10	10000	1	1	0	1	0
2457	49	10	10000	1	1	0	1	0
2625	50	10	10000	1	1	0	1	0
2723	51	10	10000	1	1	0	1	0
2721	51	10	10000	1	1	0	1	0
2623	52	10	10000	1	1	0	1	0
2604	54	10	10000	1	1	0	1	0
2564	55	10	10000	1	1	0	1	0
2470	56	10	10000	1	1	0	1	0
2370	57	10	10000	1	1	0	1	0
2295	58	10	10000	1	1	0	1	0
2220	59	10	10000	1	1	0	1	0
2265	60	10	10000	1	1	0	1	0
2427	61	10	10000	1	1	0	1	0
2633	61	10	10000	1	1	0	1	0
2862	62	10	10000	1	1	0	1	0
3105	64	10	10000	1	1	0	1	0
3362	65	10	10000	1	1	0	1	0
3593	66	10	10000	1	1	0	1	0
3679	67	10	10000	1	1	0	1	0
3574	68	10	10000	1	1	0	1	0
3471	69	10	10000	1	1	0	1	0
3367	70	10	10000	1	1	0	1	0
3285	71	10	10000	1	1	0	1	0
3269	71	10	10000	1	1	0	1	0
3314	72	10	10000	1	1	0	1	0
3299	74	10	10000	1	1	0	1	0
3234	75	10	10000	1	1	0	1	0
3171	76	10	10000	1	1	0	1	0
3078	77	10	10000	1	1	0	1	0
2977	78	10	10000	1	1	0	1	0
2908	79	10	10000	1	1	0	1	0
2836	80	10	10000	1	1	0	1	0
2768	81	10	10000	1	1	0	1	0
2666	81	10	10000	1	1	0	1	0
2583	82	10	10000	1	1	0	1	0
2542	84	10	10000	1	1	0	1	0
2532	85	10	10000	1	1	0	1	0
2558	86	10	10000	1	1	0	1	0
2587	87	10	10000	1	1	0	1	0
2518	88	10	10000	1	1	0	1	0
2421	89	10	10000	1	1	0	1	0
2349	90	10	10000	1	1	0	1	0
2253	91	10	10000	1	1	0	1	0
2201	91	10	10000	1	1	0	1	0
2246	92	10	10000	1	1	0	1	0
2298	94	10	10000	1	1	0	1	0
2268	95	10	10000	1	1	0	1	0
2190	96	10	10000	1	1	0	1	0
2104	97	10	10000	1	1	0	1	0
2097	98	10	10000	1	1	0	1	0
2115	99	10	10000	1	1	0	1	0
2093	100	10	10000	1	1	0	1	0
2060	101	10	10000	1	1	0	1	0
1987	101	10	10000	1	1	0	1	0
1973	102	10	10000	1	1	0	1	0
1908	104	10	10000	1	1	0	1	0
1894	105	10	10000	1	1	0	1	0
1947	106	10	10000	1	1	0	1	0
1992	107	10	10000	1	1	0	1	0
2032	108	10	10000	1	1	0	1	0
2006	109	10	10000	1	1	0	1	0
1933	110	10	10000	1	1	0	1	0
1856	111	10	10000	1	1	0	1	0
1854	111	10	10000	1	1	0	1	0
1872	112	10	10000	1	1	0	1	0
1847	114	10	10000	1	1	0	1	0
1777	115	10	10000	1	1	0	1	0
1730	116	10	10000	1	1	0	1	0
1708	117	10	10000	1	1	0	1	0
1722	118	10	10000	1	1	0	1	0
1696	119	10	10000	1	1	0	1	0
1635	120	10	10000	1	1	0	1	0
1633	121	10	10000	1	1	0	1	0
1725	121	10	10000	1	1	0	1	0
1900	122	10	10000	1	1	0	1	0
2055	124	10	10000	1	1	0	1	0
2145	125	10	10000	1	1	0	1	0
2209	126	10	10000	1	1	0	1	0
2189	127	10	10000	1	1	0	1	0
2121	128	10	10000	1	1	0	1	0
2122	129	10	10000	1	1	0	1	0
2134	130	10	10000	1	1	0	1	0
2107	131	10	10000	1	1	0	1	0
2029	131	10	10000	1	1	0	1	0
2033	132	10	10000	1	1	0	1	0
2051	134	10	10000	1	1	0	1	0
1994	135	10	10000	1	1	0	1	0
2007	136	10	10000	1	1	0	1	0
2036	137	10	10000	1	1	0	1	0
2084	138	10	10000	1	1	0	1	0
2116	139	10	10000	1	1	0	1	0
2077	140	10	10000	1	1	0	1	0
1997	141	10	10000	1	1	0	1	0
1974	141	10	10000	1	1	0	1	0
1985	142	10	10000	1	1	0	1	0
1955	144	10	10000	1	1	0	1	0
1883	145	10	10000	1	1	0	1	0
1839	146	10	10000	1	1	0	1	0
1823	147	10	10000	1	1	0	1	0
1822	148	10	10000	1	1	0	1	0
1807	149	10	10000	1	1	0	1	0
1794	150	10	10000	1	1	0	1	0
1761	151	10	10000	1	1	0	1	0
1727	151	10	10000	1	1	0	1	0
1768	152	10	10000	1	1	0	1	0
1899	154	10	10000	1	1	0	1	0
2069	155	10	10000	1	1	0	1	0
2265	156	10	10000	1	1	0	1	0
2414	157	10	10000	1	1	0	1	0
2420	158	10	10000	1	1	0	1	0
2336	159	10	10000	1	1	0	1	0
2225	160	10	10000	1	1	0	1	0
2140	161	10	10000	1	1	0	1	0
2119	161	10	10000	1	1	0	1	0
2180	162	10	10000	1	1	0	1	0
2237	164	10	10000	1	1	0	1	0
2188	165	10	10000	1	1	0	1	0
2095	166	10	10000	1	1	0	1	0
2049	167	10	10000	1	1	0	1	0
2061	168	10	10000	1	1	0	1	0
2128	169	10	10000	1	1	0	1	0
2221	170	10	10000	1	1	0	1	0
2353	171	10	10000	1	1	0	1	0
2477	171	10	10000	1	1	0	1	0
2518	172	10	10000	1	1	0	1	0
2448	174	10	10000	1	1	0	1	0
2421	175	10	10000	1	1	0	1	0
2420	176	10	10000	1	1	0	1	0
2393	177	10	10000	1	1	0	1	0
2303	178	10	10000	1	1	0	1	0
2254	179	10	10000	1	1	0	1	0
2243	180	10	10000	1	1	0	1	0
2254	181	10	10000	1	1	0	1	0
2316	181	10	10000	1	1	0	1	0
2416	182	10	10000	1	1	0	1	0
2532	184	10	10000	1	1	0	1	0
2650	185	10	10000	1	1	0	1	0
2768	186	10	10000	1	1	0	1	0
2871	187	10	10000	1	1	0	1	0
2862	188	10	10000	1	1	0	1	0
2766	189	10	10000	1	1	0	1	0
2645	190	10	10000	1	1	0	1	0
2551	191	10	10000	1	1	0	1	0
2529	191	10	10000	1	1	0	1	0
2599	192	10	10000	1	1	0	1	0
2606	194	10	10000	1	1	0	1	0
2577	195	10	10000	1	1	0	1	0
2681	196	10	10000	1	1	0	1	0
2818	197	10	10000	1	1	0	1	0
2902	198	10	10000	1	1	0	1	0
2891	199	10	10000	1	1	0	1	0
2842	200	10	10000	1	1	0	1	0
2808	201	10	10000	1	1	0	1	0
2761	201	10	10000	1	1	0	1	0
2647	202	10	10000	1	1	0	1	0
2580	204	10	10000	1	1	0	1	0
2526	205	10	10000	1	1	0	1	0
2456	206	10	10000	1	1	0	1	0
2399	207	10	10000	1	1	0	1	0
2371	208	10	10000	1	1	0	1	0
2309	209	10	10000	1	1	0	1	0
2220	210	10	10000	1	1	0	1	0
2156	211	10	10000	1	1	0	1	0
2162	211	10	10000	1	1	0	1	0
2176	212	10	10000	1	1	0	1	0
2100	214	10	10000	1	1	0	1	0
2081	215	10	10000	1	1	0	1	0
2089	216	10	10000	1	1	0	1	0
2078	217	10	10000	1	1	0	1	0
2068	218	10	10000	1	1	0	1	0
2054	219	10	10000	1	1	0	1	0
2007	220	10	10000	1	1	0	1	0
1941	221	10	10000	1	1	0	1	0
1939	221	10	10000	1	1	0	1	0
1972	222	10	10000	1	1	0	1	0
2050	224	10	10000	1	1	0	1	0
2160	225	10	10000	1	1	0	1	0
2268	226	10	10000	1	1	0	1	0
2269	227	10	10000	1	1	0	1	0
2190	228	10	10000	1	1	0	1	0
2176	229	10	10000	1	1	0	1	0
2173	230	10	10000	1	1	0	1	0
2130	231	10	10000	1	1	0	1	0
2050	231	10	10000	1	1	0	1	0
2091	232	10	10000	1	1	0	1	0
2251	234	10	10000	1	1	0	1	0
2470	235	10	10000	1	1	0	1	0
2672	236	10	10000	1	1	0	1	0
2774	237	10	10000	1	1	0	1	0
2757	238	10	10000	1	1	0	1	0
2658	239	10	10000	1	1	0	1	0
2537	240	10	10000	1	1	0	1	0
2453	241	10	10000	1	1	0	1	0
2440	241	10	10000	1	1	0	1	0
2482	242	10	10000	1	1	0	1	0
2520	244	10	10000	1	1	0	1	0
2563	245	10	10000	1	1	0	1	0
2576	246	10	10000	1	1	0	1	0
2535	247	10	10000	1	1	0	1	0
2437	248	10	10000	1	1	0	1	0
2381	249	10	10000	1	1	0	1	0
2393	250	10	10000	1	1	0	1	0
2465	251	10	10000	1	1	0	1	0
2569	251	10	10000	1	1	0	1	0
2635	252	10	10000	1	1	0	1	0
2598	254	10	10000	1	1	0	1	0
2496	255	10	10000	1	1	0	1	0
2414	256	10	10000	1	1	0	1	0
2333	257	10	10000	1	1	0	1	0
2242	258	10	10000	1	1	0	1	0
2208	259	10	10000	1	1	0	1	0
2191	260	10	10000	1	1	0	1	0
2143	261	10	10000	1	1	0	1	0
2061	261	10	10000	1	1	0	1	0
2017	262	10	10000	1	1	0	1	0
1939	264	10	10000	1	1	0	1	0
1854	265	10	10000	1	1	0	1	0
1787	266	10	10000	1	1	0	1	0
1776	267	10	10000	1	1	0	1	0
1771	268	10	10000	1	1	0	1	0
1777	269	10	10000	1	1	0	1	0
1796	270	10	10000	1	1	0	1	0
1843	271	10	10000	1	1	0	1	0
1915	271	10	10000	1	1	0	1	0
1992	272	10	10000	1	1	0	1	0
1987	274	10	10000	1	1	0	1	0
1910	275	10	10000	1	1	0	1	0
1868	276	10	10000	1	1	0	1	0
1863	277	10	10000	1	1	0	1	0
1845	278	10	10000	1	1	0	1	0
1789	279	10	10000	1	1	0	1	0
1706	280	10	10000	1	1	0	1	0
1647	281	10	10000	1	1	0	1	0
1606	281	10	10000	1	1	0	1	0
1543	282	10	10000	1	1	0	1	0
1518	284	10	10000	1	1	0	1	0
1526	285	10	10000	1	1	0	1	0
1543	286	10	10000	1	1	0	1	0
1613	287	10	10000	1	1	0	1	0
1658	288	10	10000	1	1	0	1	0
1615	289	10	10000	1	1	0	1	0
1543	290	10	10000	1	1	0	1	0
1500	291	10	10000	1	1	0	1	0
1514	291	10	10000	1	1	0	1	0
1474	292	10	10000	1	1	0	1	0
1497	294	10	10000	1	1	0	1	0
1634	295	10	10000	1	1	0	1	0
1776	296	10	10000	1	1	0	1	0
1822	297	10	10000	1	1	0	1	0
1806	298	10	10000	1	1	0	1	0
1755	299	10	10000	1	1	0	1	0
1673	300	10	10000	1	1	0	1	0
1615	301	10	10000	1	1	0	1	0
1570	301	10	10000	1	1	0	1	0
1519	302	10	10000	1	1	0	1	0
1486	304	10	10000	1	1	0	1	0
1449	305	10	10000	1	1	0	1	0
1417	306	10	10000	1	1	0	1	0
1429	307	10	10000	1	1	0	1	0
1447	308	10	10000	1	1	0	1	0
1423	309	10	10000	1	1	0	1	0
1368	310	10	10000	1	1	0	1	0
1313	311	10	10000	1	1	0	1	0
1302	311	10	10000	1	1	0	1	0
1387	312	10	10000	1	1	0	1	0
1546	314	10	10000	1	1	0	1	0
1684	315	10	10000	1	1	0	1	0
1773	316	10	10000	1	1	0	1	0
1819	317	10	10000	1	1	0	1	0
1762	318	10	10000	1	1	0	1	0
1731	319	10	10000	1	1	0	1	0
1715	320	10	10000	1	1	0	1	0
1664	321	10	10000	1	1	0	1	0
1623	321	10	10000	1	1	0	1	0
1587	322	10	10000	1	1	0	1	0
1519	324	10	10000	1	1	0	1	0
1466	325	10	10000	1	1	0	1	0
1449	326	10	10000	1	1	0	1	0
1484	327	10	10000	1	1	0	1	0
1559	328	10	10000	1	1	0	1	0
1610	329	10	10000	1	1	0	1	0
1626	330	10	10000	1	1	0	1	0
1648	331	10	10000	1	1	0	1	0
1672	331	10	10000	1	1	0	1	0
1631	332	10	10000	1	1	0	1	0
1677	334	10	10000	1	1	0	1	0
1852	335	10	10000	1	1	0	1	0
2024	336	10	10000	1	1	0	1	0
2053	337	10	10000	1	1	0	1	0
1981	338	10	10000	1	1	0	1	0
1963	339	10	10000	1	1	0	1	0
1956	340	10	10000	1	1	0	1	0
1910	341	10	10000	1	1	0	1	0
1857	341	10	10000	1	1	0	1	0
1835	342	10	10000	1	1	0	1	0
1798	344	10	10000	1	1	0	1	0
1723	345	10	10000	1	1	0	1	0
1672	346	10	10000	1	1	0	1	0
1682	347	10	10000	1	1	0	1	0
1719	348	10	10000	1	1	0	1	0
1725	349	10	10000	1	1	0	1	0
1715	350	10	10000	1	1	0	1	0
1709	351	10	10000	1	1	0	1	0
1748	351	10	10000	1	1	0	1	0
1791	352	10	10000	1	1	0	1	0
1762	354	10	10000	1	1	0	1	0
1694	355	10	10000	1	1	0	1	0
1654	356	10	10000	1	1	0	1	0
1634	357	10	10000	1	1	0	1	0
1611	358	10	10000	1	1	0	1	0
1551	359	10	10000	1	1	0	1	0
1508	360	10	10000	1	1	0	1	0
1453	361	10	10000	1	1	0	1	0
1444	361	10	10000	1	1	0	1	0
1398	362	10	10000	1	1	0	1	0
1389	364	10	10000	1	1	0	1	0
1419	365	10	10000	1	1	0	1	0
1408	366	10	10000	1	1	0	1	0
1348	367	10	10000	1	1	0	1	0
1298	368	10	10000	1	1	0	1	0
1247	369	10	10000	1	1	0	1	0
1220	370	10	10000	1	1	0	1	0
1194	371	10	10000	1	1	0	1	0
1149	371	10	10000	1	1	0	1	0
1154	372	10	10000	1	1	0	1	0
1219	374	10	10000	1	1	0	1	0
1312	375	10	10000	1	1	0	1	0
1395	376	10	10000	1	1	0	1	0
1421	377	10	10000	1	1	0	1	0
1379	378	10	10000	1	1	0	1	0
1366	379	10	10000	1	1	0	1	0
1377	380	10	10000	1	1	0	1	0
1400	381	10	10000	1	1	0	1	0
1421	381	10	10000	1	1	0	1	0
1460	382	10	10000	1	1	0	1	0
1487	384	10	10000	1	1	0	1	0
1525	385	10	10000	1	1	0	1	0
1579	386	10	10000	1	1	0	1	0
1646	387	10	10000	1	1	0	1	0
1645	388	10	10000	1	1	0	1	0
1580	389	10	10000	1	1	0	1	0
1530	390	10	10000	1	1	0	1	0
1468	391	10	10000	1	1	0	1	0
1428	391	10	10000	1	1	0	1	0
1406	392	10	10000	1	1	0	1	0
1475	394	10	10000	1	1	0	1	0
1586	395	10	10000	1	1	0	1	0
1717	396	10	10000	1	1	0	1	0
1809	397	10	10000	1	1	0	1	0
1794	398	10	10000	1	1	0	1	0
1721	399	10	10000	1	1	0	1	0
1661	400	10	10000	1	1	0	1	0
1602	401	10	10000	1	1	0	1	0
1587	401	10	10000	1	1	0	1	0
1524	402	10	10000	1	1	0	1	0
1460	404	10	10000	1	1	0	1	0
1401	405	10	10000	1	1	0	1	0
1361	406	10	10000	1	1	0	1	0
1340	407	10	10000	1	1	0	1	0
1306	408	10	10000	1	1	0	1	0
1266	409	10	10000	1	1	0	1	0
1314	410	10	10000	1	1	0	1	0
1420	411	10	10000	1	1	0	1	0
1587	411	10	10000	1	1	0	1	0
1806	412	10	10000	1	1	0	1	0
2028	414	10	10000	1	1	0	1	0
2177	415	10	10000	1	1	0	1	0
2160	416	10	10000	1	1	0	1	0
2154	417	10	10000	1	1	0	1	0
2359	418	10	10000	1	1	0	1	0
2632	419	10	10000	1	1	0	1	0
2905	420	10	10000	1	1	0	1	0
3143	421	10	10000	1	1	0	1	0
3339	421	10	10000	1	1	0	1	0
3546	422	10	10000	1	1	0	1	0
3716	424	10	10000	1	1	0	1	0
3792	425	10	10000	1	1	0	1	0
3788	426	10	10000	1	1	0	1	0
3704	427	10	10000	1	1	0	1	0
3555	428	10	10000	1	1	0	1	0
3469	429	10	10000	1	1	0	1	0
3391	430	10	10000	1	1	0	1	0
3268	431	10	10000	1	1	0	1	0
3134	431	10	10000	1	1	0	1	0
3000	432	10	10000	1	1	0	1	0
2920	434	10	10000	1	1	0	1	0
2858	435	10	10000	1	1	0	1	0
2794	436	10	10000	1	1	0	1	0
2761	437	10	10000	1	1	0	1	0
2736	438	10	10000	1	1	0	1	0
2660	439	10	10000	1	1	0	1	0
2555	440	10	10000	1	1	0	1	0
2491	441	10	10000	1	1	0	1	0
2429	441	10	10000	1	1	0	1	0
2351	442	10	10000	1	1	0	1	0
2289	444	10	10000	1	1	0	1	0
2237	445	10	10000	1	1	0	1	0
2146	446	10	10000	1	1	0	1	0
2089	447	10	10000	1	1	0	1	0
2056	448	10	10000	1	1	0	1	0
2067	449	10	10000	1	1	0	1	0
2077	450	10	10000	1	1	0	1	0
2029	451	10	10000	1	1	0	1	0
1975	451	10	10000	1	1	0	1	0
2026	452	10	10000	1	1	0	1	0
2052	454	10	10000	1	1	0	1	0
1980	455	10	10000	1	1	0	1	0
1933	456	10	10000	1	1	0	1	0
1938	457	10	10000	1	1	0	1	0
1972	458	10	10000	1	1	0	1	0
1994	459	10	10000	1	1	0	1	0
2000	460	10	10000	1	1	0	1	0
1996	461	10	10000	1	1	0	1	0
1971	461	10	10000	1	1	0	1	0
1905	462	10	10000	1	1	0	1	0
1820	464	10	10000	1	1	0	1	0
1767	465	10	10000	1	1	0	1	0
1778	466	10	10000	1	1	0	1	0
1755	467	10	10000	1	1	0	1	0
1723	468	10	10000	1	1	0	1	0
1750	469	10	10000	1	1	0	1	0
1772	470	10	10000	1	1	0	1	0
1734	471	10	10000	1	1	0	1	0
1698	471	10	10000	1	1	0	1	0
1738	472	10	10000	1	1	0	1	0
1707	474	10	10000	1	1	0	1	0
1663	475	10	10000	1	1	0	1	0
1684	476	10	10000	1	1	0	1	0
1664	477	10	10000	1	1	0	1	0
1614	478	10	10000	1	1	0	1	0
1644	479	10	10000	1	1	0	1	0
1682	480	10	10000	1	1	0	1	0
1698	481	10	10000	1	1	0	1	0
1657	481	10	10000	1	1	0	1	0
1601	482	10	10000	1	1	0	1	0
1648	484	10	10000	1	1	0	1	0
1760	485	10	10000	1	1	0	1	0
1874	486	10	10000	1	1	0	1	0
1917	487	10	10000	1	1	0	1	0
1867	488	10	10000	1	1	0	1	0
1837	489	10	10000	1	1	0	1	0
1811	490	10	10000	1	1	0	1	0
1744	491	10	10000	1	1	0	1	0
1741	491	10	10000	1	1	0	1	0
1849	492	10	10000	1	1	0	1	0
1970	494	10	10000	1	1	0	1	0
2007	495	10	10000	1	1	0	1	0
2010	496	10	10000	1	1	0	1	0
2010	497	10	10000	1	1	0	1	0
1981	498	10	10000	1	1	0	1	0
1943	499	10	10000	1	1	0	1	0
1910	500	10	10000	1	1	0	1	0
1903	501	10	10000	1	1	0	1	0
1910	539	10	10000	1	1	0	1	1
1953	540	10	10000	1	1	0	1	1
2002	541	10	10000	1	1	0	1	1
2039	542	10	10000	1	1	0	1	1
1986	543	10	10000	1	1	0	1	1
2013	544	10	10000	1	1	0	1	1
2135	545	10	10000	1	1	0	1	1
2288	546	10	10000	1	1	0	1	1
2412	547	10	10000	1	1	0	1	1
2459	548	10	10000	1	1	0	1	1
2398	549	10	10000	1	1	0	1	1
2358	550	10	10000	1	1	0	1	1
2454	551	10	10000	1	1	0	1	1
2563	552	10	10000	1	1	0	1	1
2605	553	10	10000	1	1	0	1	1
2586	554	10	10000	1	1	0	1	1
2497	555	10	10000	1	1	0	1	1
2381	556	10	10000	1	1	0	1	1
2270	557	10	10000	1	1	0	1	1
2176	558	10	10000	1	1	0	1	1
2111	559	10	10000	1	1	0	1	1
2084	560	10	10000	1	1	0	1	1
2064	561	10	10000	1	1	0	1	1
2023	562	10	10000	1	1	0	1	1
1994	563	10	10000	1	1	0	1	1
2099	564	10	10000	1	1	0	1	1
2282	565	10	10000	1	1	0	1	1
2482	566	10	10000	1	1	0	1	1
2646	567	10	10000	1	1	0	1	1
2723	568	10	10000	1	1	0	1	1
2685	569	10	10000	1	1	0	1	1
2604	570	10	10000	1	1	0	1	1
2661	571	10	10000	1	1	0	1	1
2766	572	10	10000	1	1	0	1	1
2798	573	10	10000	1	1	0	1	1
2760	574	10	10000	1	1	0	1	1
2654	575	10	10000	1	1	0	1	1
2602	576	10	10000	1	1	0	1	1
2607	577	10	10000	1	1	0	1	1
2632	578	10	10000	1	1	0	1	1
2655	545	10	10000	1	1	0	1	1
2633	546	10	10000	1	1	0	1	1
2572	547	10	10000	1	1	0	1	1
2510	548	10	10000	1	1	0	1	1
2417	549	10	10000	1	1	0	1	1
2359	550	10	10000	1	1	0	1	1
2393	548	10	10000	1	1	0	1	1
2467	549	10	10000	1	1	0	1	1
2522	550	10	10000	1	1	0	1	1
2511	551	10	10000	1	1	0	1	1
2420	552	10	10000	1	1	0	1	0
2358	553	10	10000	1	1	0	1	0
2273	554	10	10000	1	1	0	1	0
2237	555	10	10000	1	1	0	1	0
2191	556	10	10000	1	1	0	1	0
2101	557	10	10000	1	1	0	1	0
2025	558	10	10000	1	1	0	1	0
1981	559	10	10000	1	1	0	1	0
1963	560	10	10000	1	1	0	1	0
1978	561	10	10000	1	1	0	1	0
1990	562	10	10000	1	1	0	1	0
1987	563	10	10000	1	1	0	1	0
1963	564	10	10000	1	1	0	1	0
1925	565	10	10000	1	1	0	1	0
1849	566	10	10000	1	1	0	1	0
1810	567	10	10000	1	1	0	1	0
1809	568	10	10000	1	1	0	1	0
1843	569	10	10000	1	1	0	1	0
1870	570	10	10000	1	1	0	1	0
1838	571	10	10000	1	1	0	1	0
1789	571	10	10000	1	1	0	1	0
1840	572	10	10000	1	1	0	1	0
1845	574	10	10000	1	1	0	1	0
1777	575	10	10000	1	1	0	1	0
1766	576	10	10000	1	1	0	1	0
1770	577	10	10000	1	1	0	1	0
1791	578	10	10000	1	1	0	1	0
1760	579	10	10000	1	1	0	1	0
1698	580	10	10000	1	1	0	1	0
1688	581	10	10000	1	1	0	1	0
1665	581	10	10000	1	1	0	1	0
1663	582	10	10000	1	1	0	1	0
1647	584	10	10000	1	1	0	1	0
1634	585	10	10000	1	1	0	1	0
1616	586	10	10000	1	1	0	1	0
1577	587	10	10000	1	1	0	1	0
1539	588	10	10000	1	1	0	1	0
1554	589	10	10000	1	1	0	1	0
1566	590	10	10000	1	1	0	1	0
1524	591	10	10000	1	1	0	1	0
1502	591	10	10000	1	1	0	1	0
1506	592	10	10000	1	1	0	1	0
1463	594	10	10000	1	1	0	1	0
1492	595	10	10000	1	1	0	1	0
1598	596	10	10000	1	1	0	1	0
1735	597	10	10000	1	1	0	1	0
1833	598	10	10000	1	1	0	1	0
1850	599	10	10000	1	1	0	1	0
1836	600	10	10000	1	1	0	1	0
1849	601	10	10000	1	1	0	1	0
1924	601	10	10000	1	1	0	1	0
2032	602	10	10000	1	1	0	1	0
2053	604	10	10000	1	1	0	1	0
1980	605	10	10000	1	1	0	1	0
1941	606	10	10000	1	1	0	1	0
1935	607	10	10000	1	1	0	1	0
1966	608	10	10000	1	1	0	1	0
2016	609	10	10000	1	1	0	1	0
2055	610	10	10000	1	1	0	1	0
2066	611	10	10000	1	1	0	1	0
2003	611	10	10000	1	1	0	1	0
1972	612	10	10000	1	1	0	1	0
2047	614	10	10000	1	1	0	1	0
2131	615	10	10000	1	1	0	1	0
2185	616	10	10000	1	1	0	1	0
2138	617	10	10000	1	1	0	1	0
2094	618	10	10000	1	1	0	1	0
2113	619	10	10000	1	1	0	1	0
2132	620	10	10000	1	1	0	1	0
2105	621	10	10000	1	1	0	1	0
2027	621	10	10000	1	1	0	1	0
1952	622	10	10000	1	1	0	1	0
1941	624	10	10000	1	1	0	1	0
1989	625	10	10000	1	1	0	1	0
2018	626	10	10000	1	1	0	1	0
2060	627	10	10000	1	1	0	1	0
2162	628	10	10000	1	1	0	1	0
2231	629	10	10000	1	1	0	1	0
2267	630	10	10000	1	1	0	1	0
2321	631	10	10000	1	1	0	1	0
2412	631	10	10000	1	1	0	1	0
2414	632	10	10000	1	1	0	1	0
2317	634	10	10000	1	1	0	1	0
2222	635	10	10000	1	1	0	1	0
2189	636	10	10000	1	1	0	1	0
2232	637	10	10000	1	1	0	1	0
2196	638	10	10000	1	1	0	1	0
2101	639	10	10000	1	1	0	1	0
2017	640	10	10000	1	1	0	1	0
1947	641	10	10000	1	1	0	1	0
1957	641	10	10000	1	1	0	1	0
2029	642	10	10000	1	1	0	1	0
2063	644	10	10000	1	1	0	1	0
2067	645	10	10000	1	1	0	1	0
2096	646	10	10000	1	1	0	1	0
2137	647	10	10000	1	1	0	1	0
2148	648	10	10000	1	1	0	1	0
2098	649	10	10000	1	1	0	1	0
2014	650	10	10000	1	1	0	1	0
1958	651	10	10000	1	1	0	1	0
1916	651	10	10000	1	1	0	1	0
1841	652	10	10000	1	1	0	1	0
1785	654	10	10000	1	1	0	1	0
1761	655	10	10000	1	1	0	1	0
1732	656	10	10000	1	1	0	1	0
1689	657	10	10000	1	1	0	1	0
1747	658	10	10000	1	1	0	1	0
1850	659	10	10000	1	1	0	1	0
1941	660	10	10000	1	1	0	1	0
1974	661	10	10000	1	1	0	1	0
1926	661	10	10000	1	1	0	1	0
1853	662	10	10000	1	1	0	1	0
1869	664	10	10000	1	1	0	1	0
1937	665	10	10000	1	1	0	1	0
1995	666	10	10000	1	1	0	1	0
2094	667	10	10000	1	1	0	1	0
2195	668	10	10000	1	1	0	1	0
2240	669	10	10000	1	1	0	1	0
2251	670	10	10000	1	1	0	1	0
2280	671	10	10000	1	1	0	1	0
2306	671	10	10000	1	1	0	1	0
2240	672	10	10000	1	1	0	1	0
2296	674	10	10000	1	1	0	1	0
2479	675	10	10000	1	1	0	1	0
2633	676	10	10000	1	1	0	1	0
2621	677	10	10000	1	1	0	1	0
2518	678	10	10000	1	1	0	1	0
2465	679	10	10000	1	1	0	1	0
2415	680	10	10000	1	1	0	1	0
2325	681	10	10000	1	1	0	1	0
2286	681	10	10000	1	1	0	1	0
2364	682	10	10000	1	1	0	1	0
2554	684	10	10000	1	1	0	1	0
2725	685	10	10000	1	1	0	1	0
2728	686	10	10000	1	1	0	1	0
2777	687	10	10000	1	1	0	1	0
2748	688	10	10000	1	1	0	1	0
3089	689	10	10000	1	1	0	1	0
3426	690	10	10000	1	1	0	1	0
3774	691	10	10000	1	1	0	1	0
4049	691	10	10000	1	1	0	1	0
4248	692	10	10000	1	1	0	1	0
4358	694	10	10000	1	1	0	1	0
4340	695	10	10000	1	1	0	1	0
4540	696	10	10000	1	1	0	1	0
4560	697	10	10000	1	1	0	1	0
4416	698	10	10000	1	1	0	1	0
4243	699	10	10000	1	1	0	1	0
4167	700	10	10000	1	1	0	1	0
4157	701	10	10000	1	1	0	1	0
4137	701	10	10000	1	1	0	1	0
4165	702	10	10000	1	1	0	1	0
4210	704	10	10000	1	1	0	1	0
4247	705	10	10000	1	1	0	1	0
4204	706	10	10000	1	1	0	1	0
4038	707	10	10000	1	1	0	1	0
3940	708	10	10000	1	1	0	1	0
3894	709	10	10000	1	1	0	1	0
3844	710	10	10000	1	1	0	1	0
3741	711	10	10000	1	1	0	1	0
3588	711	10	10000	1	1	0	1	0
3530	712	10	10000	1	1	0	1	0
3453	714	10	10000	1	1	0	1	0
3369	715	10	10000	1	1	0	1	0
3341	716	10	10000	1	1	0	1	0
3373	717	10	10000	1	1	0	1	0
3422	718	10	10000	1	1	0	1	0
3443	719	10	10000	1	1	0	1	0
3441	720	10	10000	1	1	0	1	0
3378	721	10	10000	1	1	0	1	0
3238	721	10	10000	1	1	0	1	0
3144	722	10	10000	1	1	0	1	0
3069	724	10	10000	1	1	0	1	0
3019	725	10	10000	1	1	0	1	0
2972	726	10	10000	1	1	0	1	0
2862	727	10	10000	1	1	0	1	0
2815	728	10	10000	1	1	0	1	0
2816	729	10	10000	1	1	0	1	0
2807	730	10	10000	1	1	0	1	0
2739	731	10	10000	1	1	0	1	0
2641	731	10	10000	1	1	0	1	0
2658	732	10	10000	1	1	0	1	0
2743	734	10	10000	1	1	0	1	0
2683	735	10	10000	1	1	0	1	0
2774	736	10	10000	1	1	0	1	0
2924	737	10	10000	1	1	0	1	0
3066	738	10	10000	1	1	0	1	0
3140	739	10	10000	1	1	0	1	0
3175	740	10	10000	1	1	0	1	0
3229	741	10	10000	1	1	0	1	0
3299	741	10	10000	1	1	0	1	0
3257	742	10	10000	1	1	0	1	0
3141	744	10	10000	1	1	0	1	0
3002	745	10	10000	1	1	0	1	0
2898	746	10	10000	1	1	0	1	0
2831	747	10	10000	1	1	0	1	0
2769	748	10	10000	1	1	0	1	0
2674	749	10	10000	1	1	0	1	0
2575	750	10	10000	1	1	0	1	0
2511	751	10	10000	1	1	0	1	0
2427	751	10	10000	1	1	0	1	0
2466	752	10	10000	1	1	0	1	0
2582	754	10	10000	1	1	0	1	0
2682	755	10	10000	1	1	0	1	0
2725	756	10	10000	1	1	0	1	0
2708	757	10	10000	1	1	0	1	0
2603	758	10	10000	1	1	0	1	0
2523	759	10	10000	1	1	0	1	0
2452	760	10	10000	1	1	0	1	0
2354	761	10	10000	1	1	0	1	0
2321	761	10	10000	1	1	0	1	0
2309	762	10	10000	1	1	0	1	0
2229	764	10	10000	1	1	0	1	0
2158	765	10	10000	1	1	0	1	0
2116	766	10	10000	1	1	0	1	0
2104	767	10	10000	1	1	0	1	0
2184	768	10	10000	1	1	0	1	0
2266	769	10	10000	1	1	0	1	0
2299	770	10	10000	1	1	0	1	0
2315	771	10	10000	1	1	0	1	0
2347	771	10	10000	1	1	0	1	0
2329	772	10	10000	1	1	0	1	0
2238	774	10	10000	1	1	0	1	0
2143	775	10	10000	1	1	0	1	0
2058	776	10	10000	1	1	0	1	0
1984	777	10	10000	1	1	0	1	0
1908	778	10	10000	1	1	0	1	0
1873	779	10	10000	1	1	0	1	0
1882	780	10	10000	1	1	0	1	0
1885	781	10	10000	1	1	0	1	0
1888	781	10	10000	1	1	0	1	0
1935	782	10	10000	1	1	0	1	0
2039	784	10	10000	1	1	0	1	0
2151	785	10	10000	1	1	0	1	0
2244	786	10	10000	1	1	0	1	0
2257	787	10	10000	1	1	0	1	0
2171	788	10	10000	1	1	0	1	0
2123	789	10	10000	1	1	0	1	0
2077	790	10	10000	1	1	0	1	0
1995	791	10	10000	1	1	0	1	0
1984	791	10	10000	1	1	0	1	0
2087	792	10	10000	1	1	0	1	0
2300	794	10	10000	1	1	0	1	0
2512	795	10	10000	1	1	0	1	0
2633	796	10	10000	1	1	0	1	0
2643	797	10	10000	1	1	0	1	0
2547	798	10	10000	1	1	0	1	0
2494	799	10	10000	1	1	0	1	0
2502	800	10	10000	1	1	0	1	0
2541	801	10	10000	1	1	0	1	0
2589	801	10	10000	1	1	0	1	0
2640	802	10	10000	1	1	0	1	0
2655	804	10	10000	1	1	0	1	0
2600	805	10	10000	1	1	0	1	0
2557	806	10	10000	1	1	0	1	0
2509	807	10	10000	1	1	0	1	0
2513	808	10	10000	1	1	0	1	0
2563	809	10	10000	1	1	0	1	0
2600	810	10	10000	1	1	0	1	0
2572	811	10	10000	1	1	0	1	0
2476	811	10	10000	1	1	0	1	0
2410	812	10	10000	1	1	0	1	0
2363	814	10	10000	1	1	0	1	0
2478	815	10	10000	1	1	0	1	0
2704	816	10	10000	1	1	0	1	0
2898	817	10	10000	1	1	0	1	0
2949	818	10	10000	1	1	0	1	0
2913	819	10	10000	1	1	0	1	0
2855	820	10	10000	1	1	0	1	0
2831	821	10	10000	1	1	0	1	0
2874	821	10	10000	1	1	0	1	0
2923	822	10	10000	1	1	0	1	0
2890	824	10	10000	1	1	0	1	0
2807	825	10	10000	1	1	0	1	0
2719	826	10	10000	1	1	0	1	0
2613	827	10	10000	1	1	0	1	0
2590	828	10	10000	1	1	0	1	0
2606	829	10	10000	1	1	0	1	0
2614	830	10	10000	1	1	0	1	0
2649	831	10	10000	1	1	0	1	0
2753	831	10	10000	1	1	0	1	0
2922	832	10	10000	1	1	0	1	0
3041	834	10	10000	1	1	0	1	0
3096	835	10	10000	1	1	0	1	0
3123	836	10	10000	1	1	0	1	0
3121	837	10	10000	1	1	0	1	0
3072	838	10	10000	1	1	0	1	0
2985	839	10	10000	1	1	0	1	0
2897	840	10	10000	1	1	0	1	0
2820	841	10	10000	1	1	0	1	0
2747	841	10	10000	1	1	0	1	0
2658	842	10	10000	1	1	0	1	0
2543	844	10	10000	1	1	0	1	0
2456	845	10	10000	1	1	0	1	0
2521	846	10	10000	1	1	0	1	0
2721	847	10	10000	1	1	0	1	0
2926	848	10	10000	1	1	0	1	0
3074	849	10	10000	1	1	0	1	0
3171	850	10	10000	1	1	0	1	0
3222	851	10	10000	1	1	0	1	0
3222	851	10	10000	1	1	0	1	0
3099	852	10	10000	1	1	0	1	0
3005	854	10	10000	1	1	0	1	0
2951	855	10	10000	1	1	0	1	0
2895	856	10	10000	1	1	0	1	0
2840	857	10	10000	1	1	0	1	0
2726	858	10	10000	1	1	0	1	0
2609	859	10	10000	1	1	0	1	0
2498	860	10	10000	1	1	0	1	0
2427	861	10	10000	1	1	0	1	0
2421	861	10	10000	1	1	0	1	0
2403	862	10	10000	1	1	0	1	0
2318	864	10	10000	1	1	0	1	0
2245	865	10	10000	1	1	0	1	0
2223	866	10	10000	1	1	0	1	0
2237	867	10	10000	1	1	0	1	0
2300	868	10	10000	1	1	0	1	0
2325	869	10	10000	1	1	0	1	0
2320	870	10	10000	1	1	0	1	0
2338	871	10	10000	1	1	0	1	0
2424	871	10	10000	1	1	0	1	0
2602	872	10	10000	1	1	0	1	0
2877	874	10	10000	1	1	0	1	0
3180	875	10	10000	1	1	0	1	0
3374	876	10	10000	1	1	0	1	0
3459	877	10	10000	1	1	0	1	0
3495	878	10	10000	1	1	0	1	0
3502	879	10	10000	1	1	0	1	0
3461	880	10	10000	1	1	0	1	0
3402	881	10	10000	1	1	0	1	0
3357	881	10	10000	1	1	0	1	0
3344	882	10	10000	1	1	0	1	0
3306	884	10	10000	1	1	0	1	0
3214	885	10	10000	1	1	0	1	0
3144	886	10	10000	1	1	0	1	0
3213	887	10	10000	1	1	0	1	0
3363	888	10	10000	1	1	0	1	0
3537	889	10	10000	1	1	0	1	0
3680	890	10	10000	1	1	0	1	0
3744	891	10	10000	1	1	0	1	0
3702	891	10	10000	1	1	0	1	0
3559	892	10	10000	1	1	0	1	0
3510	894	10	10000	1	1	0	1	0
3479	895	10	10000	1	1	0	1	0
3384	896	10	10000	1	1	0	1	0
3247	897	10	10000	1	1	0	1	0
3105	898	10	10000	1	1	0	1	0
3026	899	10	10000	1	1	0	1	0
2977	900	10	10000	1	1	0	1	0
2928	901	10	10000	1	1	0	1	0
2863	901	10	10000	1	1	0	1	0
2759	902	10	10000	1	1	0	1	0
2657	904	10	10000	1	1	0	1	0
2563	905	10	10000	1	1	0	1	0
2474	906	10	10000	1	1	0	1	0
2481	907	10	10000	1	1	0	1	0
2579	908	10	10000	1	1	0	1	0
2707	909	10	10000	1	1	0	1	0
2813	910	10	10000	1	1	0	1	0
2848	911	10	10000	1	1	0	1	0
2783	911	10	10000	1	1	0	1	0
2703	912	10	10000	1	1	0	1	0
2730	914	10	10000	1	1	0	1	0
2694	915	10	10000	1	1	0	1	0
2593	916	10	10000	1	1	0	1	0
2577	917	10	10000	1	1	0	1	0
2626	918	10	10000	1	1	0	1	0
2682	919	10	10000	1	1	0	1	0
2706	920	10	10000	1	1	0	1	0
2712	921	10	10000	1	1	0	1	0
2694	921	10	10000	1	1	0	1	0
2615	922	10	10000	1	1	0	1	0
2502	924	10	10000	1	1	0	1	0
2403	925	10	10000	1	1	0	1	0
2336	926	10	10000	1	1	0	1	0
2285	927	10	10000	1	1	0	1	0
2204	928	10	10000	1	1	0	1	0
2180	929	10	10000	1	1	0	1	0
2160	930	10	10000	1	1	0	1	0
2092	931	10	10000	1	1	0	1	0
2041	931	10	10000	1	1	0	1	0
2097	932	10	10000	1	1	0	1	0
2139	934	10	10000	1	1	0	1	0
2099	935	10	10000	1	1	0	1	0
2016	936	10	10000	1	1	0	1	0
1971	937	10	10000	1	1	0	1	0
2027	938	10	10000	1	1	0	1	0
2125	939	10	10000	1	1	0	1	0
2212	940	10	10000	1	1	0	1	0
2292	941	10	10000	1	1	0	1	0
2356	941	10	10000	1	1	0	1	0
2334	942	10	10000	1	1	0	1	0
2262	944	10	10000	1	1	0	1	0
2158	945	10	10000	1	1	0	1	0
2066	946	10	10000	1	1	0	1	0
2046	947	10	10000	1	1	0	1	0
2052	948	10	10000	1	1	0	1	0
2028	949	10	10000	1	1	0	1	0
1985	950	10	10000	1	1	0	1	0
1971	951	10	10000	1	1	0	1	0
2010	951	10	10000	1	1	0	1	0
1975	952	10	10000	1	1	0	1	0
1932	954	10	10000	1	1	0	1	0
1961	955	10	10000	1	1	0	1	0
2003	956	10	10000	1	1	0	1	0
2028	957	10	10000	1	1	0	1	0
2025	958	10	10000	1	1	0	1	0
1955	959	10	10000	1	1	0	1	0
1864	960	10	10000	1	1	0	1	0
1797	961	10	10000	1	1	0	1	0
1754	961	10	10000	1	1	0	1	0
1687	962	10	10000	1	1	0	1	0
1653	964	10	10000	1	1	0	1	0
1627	965	10	10000	1	1	0	1	0
1611	966	10	10000	1	1	0	1	0
1597	967	10	10000	1	1	0	1	0
1551	968	10	10000	1	1	0	1	0
1515	969	10	10000	1	1	0	1	0
1480	970	10	10000	1	1	0	1	0
1422	971	10	10000	1	1	0	1	0
1393	971	10	10000	1	1	0	1	0
1444	972	10	10000	1	1	0	1	0
1546	974	10	10000	1	1	0	1	0
1645	975	10	10000	1	1	0	1	0
1716	976	10	10000	1	1	0	1	0
1679	977	10	10000	1	1	0	1	0
1679	978	10	10000	1	1	0	1	0
1741	979	10	10000	1	1	0	1	0
1803	980	10	10000	1	1	0	1	0
1820	981	10	10000	1	1	0	1	0
1760	981	10	10000	1	1	0	1	0
1757	982	10	10000	1	1	0	1	0
1744	984	10	10000	1	1	0	1	0
1671	985	10	10000	1	1	0	1	0
1643	986	10	10000	1	1	0	1	0
1692	987	10	10000	1	1	0	1	0
1844	988	10	10000	1	1	0	1	0
2026	989	10	10000	1	1	0	1	0
2156	990	10	10000	1	1	0	1	0
2282	991	10	10000	1	1	0	1	0
2440	991	10	10000	1	1	0	1	0
2543	992	10	10000	1	1	0	1	0
2527	994	10	10000	1	1	0	1	0
2435	995	10	10000	1	1	0	1	0
2325	996	10	10000	1	1	0	1	0
2236	997	10	10000	1	1	0	1	0
2178	998	10	10000	1	1	0	1	0
2100	999	10	10000	1	1	0	1	0
2006	1000	10	10000	1	1	0	1	0
1940	1001	10	10000	1	1	0	1	0
3653	2	0	10000	2	1	0	2	0
3484	3	0	10000	2	1	0	2	0
3326	4	0	10000	2	1	0	2	0
3178	5	0	10000	2	1	0	2	0
3075	6	0	10000	2	1	0	2	0
3044	7	0	10000	2	1	0	2	0
3035	8	0	10000	2	1	0	2	0
3056	9	0	10000	2	1	0	2	0
3015	10	0	10000	2	1	0	2	0
2896	11	0	10000	2	1	0	2	0
2835	12	0	10000	2	1	0	2	0
2807	13	0	10000	2	1	0	2	0
2769	14	0	10000	2	1	0	2	0
2687	15	0	10000	2	1	0	2	0
2619	16	0	10000	2	1	0	2	0
2729	17	0	10000	2	1	0	2	0
2908	18	0	10000	2	1	0	2	0
3088	19	0	10000	2	1	0	2	0
3354	20	0	10000	2	1	0	2	0
3576	21	0	10000	2	1	0	2	0
3666	22	0	10000	2	1	0	2	0
3672	23	0	10000	2	1	0	2	0
3646	24	0	10000	2	1	0	2	0
3622	25	0	10000	2	1	0	2	0
3526	26	0	10000	2	1	0	2	0
3643	27	0	10000	2	1	0	2	0
3933	28	0	10000	2	1	0	2	0
4243	29	0	10000	2	1	0	2	0
4376	30	0	10000	2	1	0	2	0
4362	31	0	10000	2	1	0	2	0
4259	32	0	10000	2	1	0	2	0
4114	33	0	10000	2	1	0	2	0
3973	34	0	10000	2	1	0	2	0
3872	35	0	10000	2	1	0	2	0
3842	36	0	10000	2	1	0	2	0
3893	37	0	10000	2	1	0	2	0
3985	38	0	10000	2	1	0	2	0
3937	39	0	10000	2	1	0	2	0
3778	40	0	10000	2	1	0	2	0
3712	41	0	10000	2	1	0	2	0
3690	42	0	10000	2	1	0	2	0
3631	43	0	10000	2	1	0	2	0
3508	44	0	10000	2	1	0	2	0
3390	45	0	10000	2	1	0	2	0
3361	46	0	10000	2	1	0	2	0
3346	47	0	10000	2	1	0	2	0
3331	48	0	10000	2	1	0	2	0
3292	49	0	10000	2	1	0	2	0
3212	50	0	10000	2	1	0	2	0
3090	51	0	10000	2	1	0	2	0
3039	52	0	10000	2	1	0	2	0
3017	53	0	10000	2	1	0	2	0
2979	54	0	10000	2	1	0	2	0
2887	55	0	10000	2	1	0	2	0
2780	56	0	10000	2	1	0	2	0
2769	57	0	10000	2	1	0	2	0
2851	58	0	10000	2	1	0	2	0
2934	59	0	10000	2	1	0	2	0
2979	60	0	10000	2	1	0	2	0
2993	61	0	10000	2	1	0	2	0
2980	62	0	10000	2	1	0	2	0
2943	63	0	10000	2	1	0	2	0
2889	64	0	10000	2	1	0	2	0
2820	65	0	10000	2	1	0	2	0
2737	66	0	10000	2	1	0	2	0
2642	67	0	10000	2	1	0	2	0
2538	68	0	10000	2	1	0	2	0
2454	69	0	10000	2	1	0	2	0
2483	70	0	10000	2	1	0	2	0
2592	71	0	10000	2	1	0	2	0
2740	72	0	10000	2	1	0	2	0
2883	73	0	10000	2	1	0	2	0
2987	74	0	10000	2	1	0	2	0
3015	75	0	10000	2	1	0	2	0
2956	76	0	10000	2	1	0	2	0
2844	77	0	10000	2	1	0	2	0
2826	78	0	10000	2	1	0	2	0
2820	79	0	10000	2	1	0	2	0
2741	80	0	10000	2	1	0	2	0
2662	81	0	10000	2	1	0	2	0
2676	82	0	10000	2	1	0	2	0
2619	83	0	10000	2	1	0	2	0
2567	84	0	10000	2	1	0	2	0
2560	85	0	10000	2	1	0	2	0
2533	86	0	10000	2	1	0	2	0
2491	87	0	10000	2	1	0	2	0
2437	88	0	10000	2	1	0	2	0
2348	89	0	10000	2	1	0	2	0
2341	90	0	10000	2	1	0	2	0
2414	91	0	10000	2	1	0	2	0
2526	92	0	10000	2	1	0	2	0
2636	93	0	10000	2	1	0	2	0
2706	94	0	10000	2	1	0	2	0
2708	95	0	10000	2	1	0	2	0
2626	96	0	10000	2	1	0	2	0
2553	97	0	10000	2	1	0	2	0
2576	98	0	10000	2	1	0	2	0
2608	99	0	10000	2	1	0	2	0
2618	100	0	10000	2	1	0	2	0
2607	101	0	10000	2	1	0	2	0
2580	102	0	10000	2	1	0	2	0
2539	103	0	10000	2	1	0	2	0
2488	104	0	10000	2	1	0	2	0
2428	105	0	10000	2	1	0	2	0
2358	106	0	10000	2	1	0	2	0
2283	107	0	10000	2	1	0	2	0
2201	108	0	10000	2	1	0	2	0
2126	109	0	10000	2	1	0	2	0
2146	110	0	10000	2	1	0	2	0
2237	111	0	10000	2	1	0	2	0
2363	112	0	10000	2	1	0	2	0
2482	113	0	10000	2	1	0	2	0
2562	114	0	10000	2	1	0	2	0
2574	115	0	10000	2	1	0	2	0
2503	116	0	10000	2	1	0	2	0
2427	117	0	10000	2	1	0	2	0
2442	118	0	10000	2	1	0	2	0
2467	119	0	10000	2	1	0	2	0
2453	120	0	10000	2	1	0	2	0
2365	121	0	10000	2	1	0	2	0
2338	122	0	10000	2	1	0	2	0
2309	123	0	10000	2	1	0	2	0
2255	124	0	10000	2	1	0	2	0
2184	125	0	10000	2	1	0	2	0
2130	126	0	10000	2	1	0	2	0
2127	127	0	10000	2	1	0	2	0
2142	128	0	10000	2	1	0	2	0
2104	129	0	10000	2	1	0	2	0
2047	130	0	10000	2	1	0	2	0
2070	131	0	10000	2	1	0	2	0
2136	132	0	10000	2	1	0	2	0
2205	133	0	10000	2	1	0	2	0
2244	134	0	10000	2	1	0	2	0
2222	135	0	10000	2	1	0	2	0
2139	136	0	10000	2	1	0	2	0
2114	137	0	10000	2	1	0	2	0
2078	138	0	10000	2	1	0	2	0
2093	139	0	10000	2	1	0	2	0
2227	140	0	10000	2	1	0	2	0
2418	141	0	10000	2	1	0	2	0
2606	142	0	10000	2	1	0	2	0
2747	143	0	10000	2	1	0	2	0
2826	144	0	10000	2	1	0	2	0
2822	145	0	10000	2	1	0	2	0
2723	146	0	10000	2	1	0	2	0
2704	147	0	10000	2	1	0	2	0
2706	148	0	10000	2	1	0	2	0
2684	149	0	10000	2	1	0	2	0
2636	150	0	10000	2	1	0	2	0
2559	151	0	10000	2	1	0	2	0
2475	152	0	10000	2	1	0	2	0
2424	153	0	10000	2	1	0	2	0
2396	154	0	10000	2	1	0	2	0
2399	155	0	10000	2	1	0	2	0
2460	156	0	10000	2	1	0	2	0
2482	157	0	10000	2	1	0	2	0
2568	158	0	10000	2	1	0	2	0
2875	159	0	10000	2	1	0	2	0
3182	160	0	10000	2	1	0	2	0
3361	161	0	10000	2	1	0	2	0
3410	162	0	10000	2	1	0	2	0
3391	163	0	10000	2	1	0	2	0
3347	164	0	10000	2	1	0	2	0
3320	165	0	10000	2	1	0	2	0
3328	166	0	10000	2	1	0	2	0
3369	167	0	10000	2	1	0	2	0
3275	168	0	10000	2	1	0	2	0
3273	169	0	10000	2	1	0	2	0
3321	170	0	10000	2	1	0	2	0
3309	171	0	10000	2	1	0	2	0
3229	172	0	10000	2	1	0	2	0
3106	173	0	10000	2	1	0	2	0
2981	174	0	10000	2	1	0	2	0
2857	175	0	10000	2	1	0	2	0
2803	176	0	10000	2	1	0	2	0
2947	177	0	10000	2	1	0	2	0
3294	178	0	10000	2	1	0	2	0
3399	179	0	10000	2	1	0	2	0
3531	180	0	10000	2	1	0	2	0
3518	181	0	10000	2	1	0	2	0
3413	182	0	10000	2	1	0	2	0
3270	183	0	10000	2	1	0	2	0
3129	184	0	10000	2	1	0	2	0
3014	185	0	10000	2	1	0	2	0
3065	186	0	10000	2	1	0	2	0
3349	187	0	10000	2	1	0	2	0
3690	188	0	10000	2	1	0	2	0
4014	189	0	10000	2	1	0	2	0
4193	190	0	10000	2	1	0	2	0
4226	191	0	10000	2	1	0	2	0
4168	192	0	10000	2	1	0	2	0
4067	193	0	10000	2	1	0	2	0
3965	194	0	10000	2	1	0	2	0
3897	195	0	10000	2	1	0	2	0
3890	196	0	10000	2	1	0	2	0
3955	197	0	10000	2	1	0	2	0
4072	198	0	10000	2	1	0	2	0
4103	199	0	10000	2	1	0	2	0
3976	200	0	10000	2	1	0	2	0
4016	201	0	10000	2	1	0	2	0
4250	202	0	10000	2	1	0	2	0
4477	203	0	10000	2	1	0	2	0
4646	204	0	10000	2	1	0	2	0
4775	205	0	10000	2	1	0	2	0
4799	206	0	10000	2	1	0	2	0
4762	207	0	10000	2	1	0	2	0
4685	208	0	10000	2	1	0	2	0
4594	209	0	10000	2	1	0	2	0
4512	210	0	10000	2	1	0	2	0
4389	211	0	10000	2	1	0	2	0
4215	212	0	10000	2	1	0	2	0
4140	213	0	10000	2	1	0	2	0
4165	214	0	10000	2	1	0	2	0
4200	215	0	10000	2	1	0	2	0
4278	216	0	10000	2	1	0	2	0
4338	217	0	10000	2	1	0	2	0
4218	218	0	10000	2	1	0	2	0
4049	219	0	10000	2	1	0	2	0
3959	220	0	10000	2	1	0	2	0
3971	221	0	10000	2	1	0	2	0
4060	222	0	10000	2	1	0	2	0
4080	223	0	10000	2	1	0	2	0
4073	224	0	10000	2	1	0	2	0
4082	225	0	10000	2	1	0	2	0
4130	226	0	10000	2	1	0	2	0
4237	227	0	10000	2	1	0	2	0
4333	228	0	10000	2	1	0	2	0
4615	229	0	10000	2	1	0	2	0
4906	230	0	10000	2	1	0	2	0
5142	231	0	10000	2	1	0	2	0
5305	232	0	10000	2	1	0	2	0
5404	233	0	10000	2	1	0	2	0
5446	234	0	10000	2	1	0	2	0
5440	235	0	10000	2	1	0	2	0
5396	236	0	10000	2	1	0	2	0
5317	237	0	10000	2	1	0	2	0
5224	238	0	10000	2	1	0	2	0
5249	239	0	10000	2	1	0	2	0
5336	240	0	10000	2	1	0	2	0
5482	241	0	10000	2	1	0	2	0
5485	242	0	10000	2	1	0	2	0
5419	243	0	10000	2	1	0	2	0
5333	244	0	10000	2	1	0	2	0
5262	245	0	10000	2	1	0	2	0
5232	246	0	10000	2	1	0	2	0
5234	247	0	10000	2	1	0	2	0
5106	248	0	10000	2	1	0	2	0
4905	249	0	10000	2	1	0	2	0
4962	250	0	10000	2	1	0	2	0
5175	251	0	10000	2	1	0	2	0
5273	252	0	10000	2	1	0	2	0
5284	253	0	10000	2	1	0	2	0
5264	254	0	10000	2	1	0	2	0
5250	255	0	10000	2	1	0	2	0
5278	256	0	10000	2	1	0	2	0
5358	257	0	10000	2	1	0	2	0
5492	258	0	10000	2	1	0	2	0
5586	259	0	10000	2	1	0	2	0
5555	260	0	10000	2	1	0	2	0
5392	261	0	10000	2	1	0	2	0
5145	262	0	10000	2	1	0	2	0
4948	263	0	10000	2	1	0	2	0
4855	264	0	10000	2	1	0	2	0
4827	265	0	10000	2	1	0	2	0
4779	266	0	10000	2	1	0	2	0
4699	267	0	10000	2	1	0	2	0
4592	268	0	10000	2	1	0	2	0
4425	269	0	10000	2	1	0	2	0
4285	270	0	10000	2	1	0	2	0
4247	271	0	10000	2	1	0	2	0
4268	272	0	10000	2	1	0	2	0
4301	273	0	10000	2	1	0	2	0
4310	274	0	10000	2	1	0	2	0
4261	275	0	10000	2	1	0	2	0
4136	276	0	10000	2	1	0	2	0
3966	277	0	10000	2	1	0	2	0
3870	278	0	10000	2	1	0	2	0
3727	279	0	10000	2	1	0	2	0
3692	280	0	10000	2	1	0	2	0
3754	281	0	10000	2	1	0	2	0
3877	282	0	10000	2	1	0	2	0
4002	283	0	10000	2	1	0	2	0
4083	284	0	10000	2	1	0	2	0
4080	285	0	10000	2	1	0	2	0
3985	286	0	10000	2	1	0	2	0
3821	287	0	10000	2	1	0	2	0
3694	288	0	10000	2	1	0	2	0
3630	289	0	10000	2	1	0	2	0
3564	290	0	10000	2	1	0	2	0
3418	291	0	10000	2	1	0	2	0
3320	292	0	10000	2	1	0	2	0
3254	293	0	10000	2	1	0	2	0
3179	294	0	10000	2	1	0	2	0
3060	295	0	10000	2	1	0	2	0
2953	296	0	10000	2	1	0	2	0
2893	297	0	10000	2	1	0	2	0
2801	298	0	10000	2	1	0	2	0
2811	299	0	10000	2	1	0	2	0
2898	300	0	10000	2	1	0	2	0
2995	301	0	10000	2	1	0	2	0
3042	302	0	10000	2	1	0	2	0
3016	303	0	10000	2	1	0	2	0
2892	304	0	10000	2	1	0	2	0
2783	305	0	10000	2	1	0	2	0
2725	306	0	10000	2	1	0	2	0
2683	307	0	10000	2	1	0	2	0
2635	308	0	10000	2	1	0	2	0
2613	309	0	10000	2	1	0	2	0
2628	310	0	10000	2	1	0	2	0
2585	311	0	10000	2	1	0	2	0
2477	312	0	10000	2	1	0	2	0
2391	313	0	10000	2	1	0	2	0
2302	314	0	10000	2	1	0	2	0
2210	315	0	10000	2	1	0	2	0
2188	316	0	10000	2	1	0	2	0
2153	317	0	10000	2	1	0	2	0
2128	318	0	10000	2	1	0	2	0
2253	319	0	10000	2	1	0	2	0
2435	320	0	10000	2	1	0	2	0
2681	321	0	10000	2	1	0	2	0
2878	322	0	10000	2	1	0	2	0
2983	323	0	10000	2	1	0	2	0
3048	324	0	10000	2	1	0	2	0
3116	325	0	10000	2	1	0	2	0
3140	326	0	10000	2	1	0	2	0
3034	327	0	10000	2	1	0	2	0
3020	328	0	10000	2	1	0	2	0
3192	329	0	10000	2	1	0	2	0
3447	330	0	10000	2	1	0	2	0
3563	331	0	10000	2	1	0	2	0
3568	332	0	10000	2	1	0	2	0
3520	333	0	10000	2	1	0	2	0
3463	334	0	10000	2	1	0	2	0
3437	335	0	10000	2	1	0	2	0
3472	336	0	10000	2	1	0	2	0
3582	337	0	10000	2	1	0	2	0
3761	338	0	10000	2	1	0	2	0
3926	339	0	10000	2	1	0	2	0
4024	340	0	10000	2	1	0	2	0
3921	341	0	10000	2	1	0	2	0
3827	342	0	10000	2	1	0	2	0
3695	343	0	10000	2	1	0	2	0
3629	344	0	10000	2	1	0	2	0
3576	345	0	10000	2	1	0	2	0
3540	346	0	10000	2	1	0	2	0
3538	347	0	10000	2	1	0	2	0
3516	348	0	10000	2	1	0	2	0
3424	349	0	10000	2	1	0	2	0
3315	350	0	10000	2	1	0	2	0
3310	351	0	10000	2	1	0	2	0
3363	352	0	10000	2	1	0	2	0
3427	353	0	10000	2	1	0	2	0
3462	354	0	10000	2	1	0	2	0
3433	355	0	10000	2	1	0	2	0
3320	356	0	10000	2	1	0	2	0
3212	357	0	10000	2	1	0	2	0
3208	358	0	10000	2	1	0	2	0
3219	359	0	10000	2	1	0	2	0
3190	360	0	10000	2	1	0	2	0
3077	361	0	10000	2	1	0	2	0
2955	362	0	10000	2	1	0	2	0
2842	363	0	10000	2	1	0	2	0
2725	364	0	10000	2	1	0	2	0
2620	365	0	10000	2	1	0	2	0
2563	366	0	10000	2	1	0	2	0
2513	367	0	10000	2	1	0	2	0
2450	368	0	10000	2	1	0	2	0
2360	369	0	10000	2	1	0	2	0
2365	370	0	10000	2	1	0	2	0
2457	371	0	10000	2	1	0	2	0
2592	372	0	10000	2	1	0	2	0
2726	373	0	10000	2	1	0	2	0
2820	374	0	10000	2	1	0	2	0
2842	375	0	10000	2	1	0	2	0
2776	376	0	10000	2	1	0	2	0
2663	377	0	10000	2	1	0	2	0
2580	378	0	10000	2	1	0	2	0
2623	379	0	10000	2	1	0	2	0
2726	380	0	10000	2	1	0	2	0
2883	381	0	10000	2	1	0	2	0
3059	382	0	10000	2	1	0	2	0
3174	383	0	10000	2	1	0	2	0
3221	384	0	10000	2	1	0	2	0
3231	385	0	10000	2	1	0	2	0
3177	386	0	10000	2	1	0	2	0
3077	387	0	10000	2	1	0	2	0
2945	388	0	10000	2	1	0	2	0
2831	389	0	10000	2	1	0	2	0
2770	390	0	10000	2	1	0	2	0
2743	391	0	10000	2	1	0	2	0
2717	392	0	10000	2	1	0	2	0
2658	393	0	10000	2	1	0	2	0
2597	394	0	10000	2	1	0	2	0
2572	395	0	10000	2	1	0	2	0
2553	396	0	10000	2	1	0	2	0
2458	397	0	10000	2	1	0	2	0
2428	398	0	10000	2	1	0	2	0
2445	399	0	10000	2	1	0	2	0
2455	400	0	10000	2	1	0	2	0
2500	401	0	10000	2	1	0	2	0
2567	402	0	10000	2	1	0	2	0
2625	403	0	10000	2	1	0	2	0
2657	404	0	10000	2	1	0	2	0
2698	405	0	10000	2	1	0	2	0
2772	406	0	10000	2	1	0	2	0
2867	407	0	10000	2	1	0	2	0
2918	408	0	10000	2	1	0	2	0
2912	409	0	10000	2	1	0	2	0
2847	410	0	10000	2	1	0	2	0
2727	411	0	10000	2	1	0	2	0
2647	412	0	10000	2	1	0	2	0
2593	413	0	10000	2	1	0	2	0
2561	414	0	10000	2	1	0	2	0
2513	415	0	10000	2	1	0	2	0
2434	416	0	10000	2	1	0	2	0
2367	417	0	10000	2	1	0	2	0
2359	418	0	10000	2	1	0	2	0
2307	419	0	10000	2	1	0	2	0
2237	420	0	10000	2	1	0	2	0
2199	421	0	10000	2	1	0	2	0
2239	422	0	10000	2	1	0	2	0
2306	423	0	10000	2	1	0	2	0
2359	424	0	10000	2	1	0	2	0
2362	425	0	10000	2	1	0	2	0
2287	426	0	10000	2	1	0	2	0
2230	427	0	10000	2	1	0	2	0
2454	428	0	10000	2	1	0	2	0
2854	429	0	10000	2	1	0	2	0
3168	430	0	10000	2	1	0	2	0
3211	431	0	10000	2	1	0	2	0
3381	432	0	10000	2	1	0	2	0
3437	433	0	10000	2	1	0	2	0
3427	434	0	10000	2	1	0	2	0
3444	435	0	10000	2	1	0	2	0
3496	436	0	10000	2	1	0	2	0
3807	437	0	10000	2	1	0	2	0
4083	438	0	10000	2	1	0	2	0
4121	439	0	10000	2	1	0	2	0
4288	440	0	10000	2	1	0	2	0
4290	441	0	10000	2	1	0	2	0
4191	442	0	10000	2	1	0	2	0
4045	443	0	10000	2	1	0	2	0
3899	444	0	10000	2	1	0	2	0
3792	445	0	10000	2	1	0	2	0
3747	446	0	10000	2	1	0	2	0
3779	447	0	10000	2	1	0	2	0
3730	448	0	10000	2	1	0	2	0
3974	449	0	10000	2	1	0	2	0
4272	450	0	10000	2	1	0	2	0
4332	451	0	10000	2	1	0	2	0
4488	452	0	10000	2	1	0	2	0
4496	453	0	10000	2	1	0	2	0
4412	454	0	10000	2	1	0	2	0
4349	455	0	10000	2	1	0	2	0
4280	456	0	10000	2	1	0	2	0
4273	457	0	10000	2	1	0	2	0
4245	458	0	10000	2	1	0	2	0
4192	459	0	10000	2	1	0	2	0
4158	460	0	10000	2	1	0	2	0
4000	461	0	10000	2	1	0	2	0
3852	462	0	10000	2	1	0	2	0
3749	463	0	10000	2	1	0	2	0
3647	464	0	10000	2	1	0	2	0
3512	465	0	10000	2	1	0	2	0
3377	466	0	10000	2	1	0	2	0
3329	467	0	10000	2	1	0	2	0
3252	468	0	10000	2	1	0	2	0
3120	469	0	10000	2	1	0	2	0
3105	470	0	10000	2	1	0	2	0
3176	471	0	10000	2	1	0	2	0
3305	472	0	10000	2	1	0	2	0
3449	473	0	10000	2	1	0	2	0
3583	474	0	10000	2	1	0	2	0
3670	475	0	10000	2	1	0	2	0
3650	476	0	10000	2	1	0	2	0
3573	477	0	10000	2	1	0	2	0
3662	478	0	10000	2	1	0	2	0
3760	479	0	10000	2	1	0	2	0
3783	480	0	10000	2	1	0	2	0
3673	481	0	10000	2	1	0	2	0
3516	482	0	10000	2	1	0	2	0
3401	483	0	10000	2	1	0	2	0
3288	484	0	10000	2	1	0	2	0
3149	485	0	10000	2	1	0	2	0
3062	486	0	10000	2	1	0	2	0
3069	487	0	10000	2	1	0	2	0
3109	488	0	10000	2	1	0	2	0
3335	489	0	10000	2	1	0	2	0
3660	490	0	10000	2	1	0	2	0
3970	491	0	10000	2	1	0	2	0
4294	492	0	10000	2	1	0	2	0
4549	493	0	10000	2	1	0	2	0
4724	494	0	10000	2	1	0	2	0
4828	495	0	10000	2	1	0	2	0
4875	496	0	10000	2	1	0	2	0
4871	497	0	10000	2	1	0	2	0
4796	498	0	10000	2	1	0	2	0
4728	499	0	10000	2	1	0	2	0
4942	500	0	10000	2	1	0	2	0
5043	501	0	10000	2	1	0	2	0
5020	502	0	10000	2	1	0	2	1
4939	503	0	10000	2	1	0	2	1
4842	504	0	10000	2	1	0	2	1
4770	505	0	10000	2	1	0	2	1
4745	506	0	10000	2	1	0	2	1
4784	507	0	10000	2	1	0	2	1
4868	508	0	10000	2	1	0	2	1
4906	509	0	10000	2	1	0	2	1
4887	510	0	10000	2	1	0	2	1
4796	511	0	10000	2	1	0	2	1
4610	512	0	10000	2	1	0	2	1
4409	513	0	10000	2	1	0	2	1
4390	514	0	10000	2	1	0	2	1
4526	515	0	10000	2	1	0	2	1
4698	516	0	10000	2	1	0	2	1
4813	517	0	10000	2	1	0	2	1
4874	518	0	10000	2	1	0	2	1
4979	519	0	10000	2	1	0	2	1
5111	520	0	10000	2	1	0	2	1
5223	521	0	10000	2	1	0	2	1
5280	522	0	10000	2	1	0	2	1
5309	523	0	10000	2	1	0	2	1
5386	524	0	10000	2	1	0	2	1
5477	525	0	10000	2	1	0	2	1
5544	526	0	10000	2	1	0	2	1
5568	527	0	10000	2	1	0	2	1
5540	528	0	10000	2	1	0	2	1
5442	529	0	10000	2	1	0	2	1
5221	530	0	10000	2	1	0	2	1
5051	531	0	10000	2	1	0	2	1
4960	532	0	10000	2	1	0	2	1
4907	533	0	10000	2	1	0	2	1
4845	534	0	10000	2	1	0	2	1
4744	535	0	10000	2	1	0	2	1
4584	536	0	10000	2	1	0	2	1
4392	537	0	10000	2	1	0	2	1
4255	538	0	10000	2	1	0	2	1
4154	539	0	10000	2	1	0	2	1
4068	540	0	10000	2	1	0	2	1
4337	541	0	10000	2	1	0	2	1
4497	542	0	10000	2	1	0	2	1
4456	543	0	10000	2	1	0	2	1
4288	544	0	10000	2	1	0	2	1
4261	545	0	10000	2	1	0	2	1
4381	546	0	10000	2	1	0	2	1
4555	547	0	10000	2	1	0	2	1
4679	548	0	10000	2	1	0	2	1
4706	549	0	10000	2	1	0	2	1
4589	550	0	10000	2	1	0	2	1
4393	551	0	10000	2	1	0	2	1
4262	552	0	10000	2	1	0	2	0
4168	553	0	10000	2	1	0	2	0
4069	554	0	10000	2	1	0	2	0
3931	555	0	10000	2	1	0	2	0
3765	556	0	10000	2	1	0	2	0
3681	557	0	10000	2	1	0	2	0
3682	558	0	10000	2	1	0	2	0
3676	559	0	10000	2	1	0	2	0
3559	560	0	10000	2	1	0	2	0
3466	561	0	10000	2	1	0	2	0
3492	562	0	10000	2	1	0	2	0
3558	563	0	10000	2	1	0	2	0
3597	564	0	10000	2	1	0	2	0
3598	565	0	10000	2	1	0	2	0
3551	566	0	10000	2	1	0	2	0
3468	567	0	10000	2	1	0	2	0
3344	568	0	10000	2	1	0	2	0
3194	569	0	10000	2	1	0	2	0
3070	570	0	10000	2	1	0	2	0
2946	571	0	10000	2	1	0	2	0
2888	572	0	10000	2	1	0	2	0
2862	573	0	10000	2	1	0	2	0
2825	574	0	10000	2	1	0	2	0
2743	575	0	10000	2	1	0	2	0
2636	576	0	10000	2	1	0	2	0
2551	577	0	10000	2	1	0	2	0
2539	578	0	10000	2	1	0	2	0
2626	579	0	10000	2	1	0	2	0
2763	580	0	10000	2	1	0	2	0
2932	581	0	10000	2	1	0	2	0
3097	582	0	10000	2	1	0	2	0
3206	583	0	10000	2	1	0	2	0
3228	584	0	10000	2	1	0	2	0
3168	585	0	10000	2	1	0	2	0
3046	586	0	10000	2	1	0	2	0
2958	587	0	10000	2	1	0	2	0
2893	588	0	10000	2	1	0	2	0
2863	589	0	10000	2	1	0	2	0
2900	590	0	10000	2	1	0	2	0
2943	591	0	10000	2	1	0	2	0
2904	592	0	10000	2	1	0	2	0
2819	593	0	10000	2	1	0	2	0
2734	594	0	10000	2	1	0	2	0
2674	595	0	10000	2	1	0	2	0
2605	596	0	10000	2	1	0	2	0
2557	597	0	10000	2	1	0	2	0
2705	598	0	10000	2	1	0	2	0
2962	599	0	10000	2	1	0	2	0
3248	600	0	10000	2	1	0	2	0
3384	601	0	10000	2	1	0	2	0
3397	602	0	10000	2	1	0	2	0
3345	603	0	10000	2	1	0	2	0
3276	604	0	10000	2	1	0	2	0
3231	605	0	10000	2	1	0	2	0
3235	606	0	10000	2	1	0	2	0
3307	607	0	10000	2	1	0	2	0
3271	608	0	10000	2	1	0	2	0
3197	609	0	10000	2	1	0	2	0
3087	610	0	10000	2	1	0	2	0
2967	611	0	10000	2	1	0	2	0
3011	612	0	10000	2	1	0	2	0
3128	613	0	10000	2	1	0	2	0
3207	614	0	10000	2	1	0	2	0
3409	615	0	10000	2	1	0	2	0
3706	616	0	10000	2	1	0	2	0
4028	617	0	10000	2	1	0	2	0
4346	618	0	10000	2	1	0	2	0
4514	619	0	10000	2	1	0	2	0
4526	620	0	10000	2	1	0	2	0
4379	621	0	10000	2	1	0	2	0
4258	622	0	10000	2	1	0	2	0
4242	623	0	10000	2	1	0	2	0
4246	624	0	10000	2	1	0	2	0
4237	625	0	10000	2	1	0	2	0
4218	626	0	10000	2	1	0	2	0
4151	627	0	10000	2	1	0	2	0
4064	628	0	10000	2	1	0	2	0
3907	629	0	10000	2	1	0	2	0
3812	630	0	10000	2	1	0	2	0
3770	631	0	10000	2	1	0	2	0
3787	632	0	10000	2	1	0	2	0
3786	633	0	10000	2	1	0	2	0
3754	634	0	10000	2	1	0	2	0
3723	635	0	10000	2	1	0	2	0
3644	636	0	10000	2	1	0	2	0
3514	637	0	10000	2	1	0	2	0
3507	638	0	10000	2	1	0	2	0
3542	639	0	10000	2	1	0	2	0
3560	640	0	10000	2	1	0	2	0
3602	641	0	10000	2	1	0	2	0
3607	642	0	10000	2	1	0	2	0
3542	643	0	10000	2	1	0	2	0
3458	644	0	10000	2	1	0	2	0
3396	645	0	10000	2	1	0	2	0
3292	646	0	10000	2	1	0	2	0
3310	647	0	10000	2	1	0	2	0
3516	648	0	10000	2	1	0	2	0
3821	649	0	10000	2	1	0	2	0
4020	650	0	10000	2	1	0	2	0
4048	651	0	10000	2	1	0	2	0
3966	652	0	10000	2	1	0	2	0
3825	653	0	10000	2	1	0	2	0
3678	654	0	10000	2	1	0	2	0
3563	655	0	10000	2	1	0	2	0
3518	656	0	10000	2	1	0	2	0
3551	657	0	10000	2	1	0	2	0
3572	658	0	10000	2	1	0	2	0
3508	659	0	10000	2	1	0	2	0
3432	660	0	10000	2	1	0	2	0
3321	661	0	10000	2	1	0	2	0
3188	662	0	10000	2	1	0	2	0
3048	663	0	10000	2	1	0	2	0
2910	664	0	10000	2	1	0	2	0
2781	665	0	10000	2	1	0	2	0
2682	666	0	10000	2	1	0	2	0
2652	667	0	10000	2	1	0	2	0
2686	668	0	10000	2	1	0	2	0
2695	669	0	10000	2	1	0	2	0
2602	670	0	10000	2	1	0	2	0
2600	671	0	10000	2	1	0	2	0
2672	672	0	10000	2	1	0	2	0
2766	673	0	10000	2	1	0	2	0
2837	674	0	10000	2	1	0	2	0
2846	675	0	10000	2	1	0	2	0
2802	676	0	10000	2	1	0	2	0
2853	677	0	10000	2	1	0	2	0
3018	678	0	10000	2	1	0	2	0
3224	679	0	10000	2	1	0	2	0
3453	680	0	10000	2	1	0	2	0
3698	681	0	10000	2	1	0	2	0
3837	682	0	10000	2	1	0	2	0
3883	683	0	10000	2	1	0	2	0
3891	684	0	10000	2	1	0	2	0
3909	685	0	10000	2	1	0	2	0
3966	686	0	10000	2	1	0	2	0
4087	687	0	10000	2	1	0	2	0
4106	688	0	10000	2	1	0	2	0
4309	689	0	10000	2	1	0	2	0
4588	690	0	10000	2	1	0	2	0
4796	691	0	10000	2	1	0	2	0
4827	692	0	10000	2	1	0	2	0
4693	693	0	10000	2	1	0	2	0
4543	694	0	10000	2	1	0	2	0
4517	695	0	10000	2	1	0	2	0
4594	696	0	10000	2	1	0	2	0
4694	697	0	10000	2	1	0	2	0
4562	698	0	10000	2	1	0	2	0
4518	699	0	10000	2	1	0	2	0
4555	700	0	10000	2	1	0	2	0
4433	701	0	10000	2	1	0	2	0
4240	702	0	10000	2	1	0	2	0
4100	703	0	10000	2	1	0	2	0
3971	704	0	10000	2	1	0	2	0
3816	705	0	10000	2	1	0	2	0
3665	706	0	10000	2	1	0	2	0
3564	707	0	10000	2	1	0	2	0
3416	708	0	10000	2	1	0	2	0
3310	709	0	10000	2	1	0	2	0
3229	710	0	10000	2	1	0	2	0
3095	711	0	10000	2	1	0	2	0
2956	712	0	10000	2	1	0	2	0
2866	713	0	10000	2	1	0	2	0
2853	714	0	10000	2	1	0	2	0
2882	715	0	10000	2	1	0	2	0
2841	716	0	10000	2	1	0	2	0
2735	717	0	10000	2	1	0	2	0
2723	718	0	10000	2	1	0	2	0
2745	719	0	10000	2	1	0	2	0
2692	720	0	10000	2	1	0	2	0
2617	721	0	10000	2	1	0	2	0
2626	722	0	10000	2	1	0	2	0
2669	723	0	10000	2	1	0	2	0
2699	724	0	10000	2	1	0	2	0
2680	725	0	10000	2	1	0	2	0
2627	726	0	10000	2	1	0	2	0
2801	727	0	10000	2	1	0	2	0
3164	728	0	10000	2	1	0	2	0
3500	729	0	10000	2	1	0	2	0
3806	730	0	10000	2	1	0	2	0
3931	731	0	10000	2	1	0	2	0
3927	732	0	10000	2	1	0	2	0
3854	733	0	10000	2	1	0	2	0
3762	734	0	10000	2	1	0	2	0
3696	735	0	10000	2	1	0	2	0
3691	736	0	10000	2	1	0	2	0
3763	737	0	10000	2	1	0	2	0
3911	738	0	10000	2	1	0	2	0
4039	739	0	10000	2	1	0	2	0
4046	740	0	10000	2	1	0	2	0
3924	741	0	10000	2	1	0	2	0
3763	742	0	10000	2	1	0	2	0
3652	743	0	10000	2	1	0	2	0
3513	744	0	10000	2	1	0	2	0
3453	745	0	10000	2	1	0	2	0
3448	746	0	10000	2	1	0	2	0
3424	747	0	10000	2	1	0	2	0
3367	748	0	10000	2	1	0	2	0
3250	749	0	10000	2	1	0	2	0
3197	750	0	10000	2	1	0	2	0
3255	751	0	10000	2	1	0	2	0
3375	752	0	10000	2	1	0	2	0
3507	753	0	10000	2	1	0	2	0
3605	754	0	10000	2	1	0	2	0
3632	755	0	10000	2	1	0	2	0
3568	756	0	10000	2	1	0	2	0
3426	757	0	10000	2	1	0	2	0
3373	758	0	10000	2	1	0	2	0
3350	759	0	10000	2	1	0	2	0
3300	760	0	10000	2	1	0	2	0
3228	761	0	10000	2	1	0	2	0
3138	762	0	10000	2	1	0	2	0
3034	763	0	10000	2	1	0	2	0
2918	764	0	10000	2	1	0	2	0
2796	765	0	10000	2	1	0	2	0
2666	766	0	10000	2	1	0	2	0
2549	767	0	10000	2	1	0	2	0
2448	768	0	10000	2	1	0	2	0
2400	769	0	10000	2	1	0	2	0
2467	770	0	10000	2	1	0	2	0
2619	771	0	10000	2	1	0	2	0
2812	772	0	10000	2	1	0	2	0
3000	773	0	10000	2	1	0	2	0
3144	774	0	10000	2	1	0	2	0
3210	775	0	10000	2	1	0	2	0
3180	776	0	10000	2	1	0	2	0
3057	777	0	10000	2	1	0	2	0
3008	778	0	10000	2	1	0	2	0
2991	779	0	10000	2	1	0	2	0
2954	780	0	10000	2	1	0	2	0
2900	781	0	10000	2	1	0	2	0
2832	782	0	10000	2	1	0	2	0
2753	783	0	10000	2	1	0	2	0
2666	784	0	10000	2	1	0	2	0
2574	785	0	10000	2	1	0	2	0
2473	786	0	10000	2	1	0	2	0
2368	787	0	10000	2	1	0	2	0
2260	788	0	10000	2	1	0	2	0
2192	789	0	10000	2	1	0	2	0
2234	790	0	10000	2	1	0	2	0
2354	791	0	10000	2	1	0	2	0
2515	792	0	10000	2	1	0	2	0
2673	793	0	10000	2	1	0	2	0
2789	794	0	10000	2	1	0	2	0
2831	795	0	10000	2	1	0	2	0
2783	796	0	10000	2	1	0	2	0
2680	797	0	10000	2	1	0	2	0
2620	798	0	10000	2	1	0	2	0
2543	799	0	10000	2	1	0	2	0
2572	800	0	10000	2	1	0	2	0
2778	801	0	10000	2	1	0	2	0
3164	802	0	10000	2	1	0	2	0
3453	803	0	10000	2	1	0	2	0
3660	804	0	10000	2	1	0	2	0
3838	805	0	10000	2	1	0	2	0
4002	806	0	10000	2	1	0	2	0
3971	807	0	10000	2	1	0	2	0
3840	808	0	10000	2	1	0	2	0
3784	809	0	10000	2	1	0	2	0
3816	810	0	10000	2	1	0	2	0
3904	811	0	10000	2	1	0	2	0
3909	812	0	10000	2	1	0	2	0
3854	813	0	10000	2	1	0	2	0
3791	814	0	10000	2	1	0	2	0
3754	815	0	10000	2	1	0	2	0
3778	816	0	10000	2	1	0	2	0
3876	817	0	10000	2	1	0	2	0
4032	818	0	10000	2	1	0	2	0
4142	819	0	10000	2	1	0	2	0
4194	820	0	10000	2	1	0	2	0
4195	821	0	10000	2	1	0	2	0
4152	822	0	10000	2	1	0	2	0
4054	823	0	10000	2	1	0	2	0
3883	824	0	10000	2	1	0	2	0
3707	825	0	10000	2	1	0	2	0
3550	826	0	10000	2	1	0	2	0
3403	827	0	10000	2	1	0	2	0
3258	828	0	10000	2	1	0	2	0
3143	829	0	10000	2	1	0	2	0
3046	830	0	10000	2	1	0	2	0
2935	831	0	10000	2	1	0	2	0
2900	832	0	10000	2	1	0	2	0
2897	833	0	10000	2	1	0	2	0
2882	834	0	10000	2	1	0	2	0
2818	835	0	10000	2	1	0	2	0
2703	836	0	10000	2	1	0	2	0
2599	837	0	10000	2	1	0	2	0
2568	838	0	10000	2	1	0	2	0
2599	839	0	10000	2	1	0	2	0
2671	840	0	10000	2	1	0	2	0
2733	841	0	10000	2	1	0	2	0
2711	842	0	10000	2	1	0	2	0
2604	843	0	10000	2	1	0	2	0
2518	844	0	10000	2	1	0	2	0
2500	845	0	10000	2	1	0	2	0
2583	846	0	10000	2	1	0	2	0
2751	847	0	10000	2	1	0	2	0
2912	848	0	10000	2	1	0	2	0
2991	849	0	10000	2	1	0	2	0
2927	850	0	10000	2	1	0	2	0
2822	851	0	10000	2	1	0	2	0
2791	852	0	10000	2	1	0	2	0
2789	853	0	10000	2	1	0	2	0
2770	854	0	10000	2	1	0	2	0
2700	855	0	10000	2	1	0	2	0
2595	856	0	10000	2	1	0	2	0
2534	857	0	10000	2	1	0	2	0
2464	858	0	10000	2	1	0	2	0
2478	859	0	10000	2	1	0	2	0
2578	860	0	10000	2	1	0	2	0
2768	861	0	10000	2	1	0	2	0
3011	862	0	10000	2	1	0	2	0
3186	863	0	10000	2	1	0	2	0
3301	864	0	10000	2	1	0	2	0
3408	865	0	10000	2	1	0	2	0
3536	866	0	10000	2	1	0	2	0
3707	867	0	10000	2	1	0	2	0
3812	868	0	10000	2	1	0	2	0
4143	869	0	10000	2	1	0	2	0
4245	870	0	10000	2	1	0	2	0
4391	871	0	10000	2	1	0	2	0
4393	872	0	10000	2	1	0	2	0
4257	873	0	10000	2	1	0	2	0
4077	874	0	10000	2	1	0	2	0
3893	875	0	10000	2	1	0	2	0
3720	876	0	10000	2	1	0	2	0
3593	877	0	10000	2	1	0	2	0
3550	878	0	10000	2	1	0	2	0
3616	879	0	10000	2	1	0	2	0
3645	880	0	10000	2	1	0	2	0
3534	881	0	10000	2	1	0	2	0
3400	882	0	10000	2	1	0	2	0
3323	883	0	10000	2	1	0	2	0
3257	884	0	10000	2	1	0	2	0
3163	885	0	10000	2	1	0	2	0
3027	886	0	10000	2	1	0	2	0
2953	887	0	10000	2	1	0	2	0
2924	888	0	10000	2	1	0	2	0
3045	889	0	10000	2	1	0	2	0
3364	890	0	10000	2	1	0	2	0
3662	891	0	10000	2	1	0	2	0
3815	892	0	10000	2	1	0	2	0
4131	893	0	10000	2	1	0	2	0
4445	894	0	10000	2	1	0	2	0
4682	895	0	10000	2	1	0	2	0
4848	896	0	10000	2	1	0	2	0
4953	897	0	10000	2	1	0	2	0
4983	898	0	10000	2	1	0	2	0
4962	899	0	10000	2	1	0	2	0
5088	900	0	10000	2	1	0	2	0
5223	901	0	10000	2	1	0	2	0
5212	902	0	10000	2	1	0	2	0
5130	903	0	10000	2	1	0	2	0
5026	904	0	10000	2	1	0	2	0
4941	905	0	10000	2	1	0	2	0
4900	906	0	10000	2	1	0	2	0
4924	907	0	10000	2	1	0	2	0
4867	908	0	10000	2	1	0	2	0
5030	909	0	10000	2	1	0	2	0
5278	910	0	10000	2	1	0	2	0
5405	911	0	10000	2	1	0	2	0
5468	912	0	10000	2	1	0	2	0
5271	913	0	10000	2	1	0	2	0
5253	914	0	10000	2	1	0	2	0
5119	915	0	10000	2	1	0	2	0
5160	916	0	10000	2	1	0	2	0
5388	917	0	10000	2	1	0	2	0
5487	918	0	10000	2	1	0	2	0
5386	919	0	10000	2	1	0	2	0
5555	920	0	10000	2	1	0	2	0
5643	921	0	10000	2	1	0	2	0
5598	922	0	10000	2	1	0	2	0
5489	923	0	10000	2	1	0	2	0
5359	924	0	10000	2	1	0	2	0
5251	925	0	10000	2	1	0	2	0
5186	926	0	10000	2	1	0	2	0
5185	927	0	10000	2	1	0	2	0
5173	928	0	10000	2	1	0	2	0
5257	929	0	10000	2	1	0	2	0
5490	930	0	10000	2	1	0	2	0
5719	931	0	10000	2	1	0	2	0
5955	932	0	10000	2	1	0	2	0
6110	933	0	10000	2	1	0	2	0
6180	934	0	10000	2	1	0	2	0
6194	935	0	10000	2	1	0	2	0
6187	936	0	10000	2	1	0	2	0
6133	937	0	10000	2	1	0	2	0
6025	938	0	10000	2	1	0	2	0
5901	939	0	10000	2	1	0	2	0
6006	940	0	10000	2	1	0	2	0
6102	941	0	10000	2	1	0	2	0
6062	942	0	10000	2	1	0	2	0
5955	943	0	10000	2	1	0	2	0
5824	944	0	10000	2	1	0	2	0
5709	945	0	10000	2	1	0	2	0
5633	946	0	10000	2	1	0	2	0
5614	947	0	10000	2	1	0	2	0
5625	948	0	10000	2	1	0	2	0
5587	949	0	10000	2	1	0	2	0
5477	950	0	10000	2	1	0	2	0
5260	951	0	10000	2	1	0	2	0
5034	952	0	10000	2	1	0	2	0
4823	953	0	10000	2	1	0	2	0
4609	954	0	10000	2	1	0	2	0
4427	955	0	10000	2	1	0	2	0
4306	956	0	10000	2	1	0	2	0
4438	957	0	10000	2	1	0	2	0
4673	958	0	10000	2	1	0	2	0
4663	959	0	10000	2	1	0	2	0
4675	960	0	10000	2	1	0	2	0
4548	961	0	10000	2	1	0	2	0
4347	962	0	10000	2	1	0	2	0
4169	963	0	10000	2	1	0	2	0
4005	964	0	10000	2	1	0	2	0
3829	965	0	10000	2	1	0	2	0
3695	966	0	10000	2	1	0	2	0
3631	967	0	10000	2	1	0	2	0
3509	968	0	10000	2	1	0	2	0
3409	969	0	10000	2	1	0	2	0
3368	970	0	10000	2	1	0	2	0
3393	971	0	10000	2	1	0	2	0
3494	972	0	10000	2	1	0	2	0
3614	973	0	10000	2	1	0	2	0
3692	974	0	10000	2	1	0	2	0
3712	975	0	10000	2	1	0	2	0
3656	976	0	10000	2	1	0	2	0
3510	977	0	10000	2	1	0	2	0
3437	978	0	10000	2	1	0	2	0
3408	979	0	10000	2	1	0	2	0
3388	980	0	10000	2	1	0	2	0
3331	981	0	10000	2	1	0	2	0
3209	982	0	10000	2	1	0	2	0
3060	983	0	10000	2	1	0	2	0
2921	984	0	10000	2	1	0	2	0
2805	985	0	10000	2	1	0	2	0
2695	986	0	10000	2	1	0	2	0
2585	987	0	10000	2	1	0	2	0
2519	988	0	10000	2	1	0	2	0
2483	989	0	10000	2	1	0	2	0
2478	990	0	10000	2	1	0	2	0
2495	991	0	10000	2	1	0	2	0
2553	992	0	10000	2	1	0	2	0
2657	993	0	10000	2	1	0	2	0
2775	994	0	10000	2	1	0	2	0
2844	995	0	10000	2	1	0	2	0
2815	996	0	10000	2	1	0	2	0
2721	997	0	10000	2	1	0	2	0
2745	998	0	10000	2	1	0	2	0
2845	999	0	10000	2	1	0	2	0
2947	1000	0	10000	2	1	0	2	0
2989	1001	0	10000	2	1	0	2	0
1561	2	10	10000	3	1	0	3	0
1696	3	10	10000	3	1	0	3	0
1814	4	10	10000	3	1	0	3	0
1832	5	10	10000	3	1	0	3	0
1778	6	10	10000	3	1	0	3	0
1792	7	10	10000	3	1	0	3	0
1813	8	10	10000	3	1	0	3	0
1788	9	10	10000	3	1	0	3	0
1723	10	10	10000	3	1	0	3	0
1705	11	10	10000	3	1	0	3	0
1695	12	10	10000	3	1	0	3	0
1663	13	10	10000	3	1	0	3	0
1621	14	10	10000	3	1	0	3	0
1579	15	10	10000	3	1	0	3	0
1536	16	10	10000	3	1	0	3	0
1486	17	10	10000	3	1	0	3	0
1425	18	10	10000	3	1	0	3	0
1363	19	10	10000	3	1	0	3	0
1358	20	10	10000	3	1	0	3	0
1467	21	10	10000	3	1	0	3	0
1623	22	10	10000	3	1	0	3	0
1778	23	10	10000	3	1	0	3	0
1888	24	10	10000	3	1	0	3	0
1850	25	10	10000	3	1	0	3	0
1845	26	10	10000	3	1	0	3	0
1907	27	10	10000	3	1	0	3	0
1970	28	10	10000	3	1	0	3	0
1977	29	10	10000	3	1	0	3	0
1938	30	10	10000	3	1	0	3	0
1934	31	10	10000	3	1	0	3	0
1952	32	10	10000	3	1	0	3	0
1966	33	10	10000	3	1	0	3	0
1978	34	10	10000	3	1	0	3	0
1996	35	10	10000	3	1	0	3	0
2005	36	10	10000	3	1	0	3	0
1957	37	10	10000	3	1	0	3	0
1886	38	10	10000	3	1	0	3	0
1839	39	10	10000	3	1	0	3	0
1782	40	10	10000	3	1	0	3	0
1799	41	10	10000	3	1	0	3	0
1894	42	10	10000	3	1	0	3	0
2003	43	10	10000	3	1	0	3	0
2086	44	10	10000	3	1	0	3	0
2087	45	10	10000	3	1	0	3	0
2020	46	10	10000	3	1	0	3	0
2020	47	10	10000	3	1	0	3	0
2027	48	10	10000	3	1	0	3	0
1994	49	10	10000	3	1	0	3	0
1979	50	10	10000	3	1	0	3	0
2019	51	10	10000	3	1	0	3	0
2053	52	10	10000	3	1	0	3	0
2070	53	10	10000	3	1	0	3	0
2077	54	10	10000	3	1	0	3	0
2078	55	10	10000	3	1	0	3	0
2037	56	10	10000	3	1	0	3	0
1958	57	10	10000	3	1	0	3	0
1894	58	10	10000	3	1	0	3	0
1814	59	10	10000	3	1	0	3	0
1746	60	10	10000	3	1	0	3	0
1760	61	10	10000	3	1	0	3	0
1851	62	10	10000	3	1	0	3	0
1967	63	10	10000	3	1	0	3	0
2080	64	10	10000	3	1	0	3	0
2124	65	10	10000	3	1	0	3	0
2050	66	10	10000	3	1	0	3	0
2013	67	10	10000	3	1	0	3	0
1989	68	10	10000	3	1	0	3	0
1923	69	10	10000	3	1	0	3	0
1840	70	10	10000	3	1	0	3	0
1796	71	10	10000	3	1	0	3	0
1800	72	10	10000	3	1	0	3	0
1805	73	10	10000	3	1	0	3	0
1806	74	10	10000	3	1	0	3	0
1834	75	10	10000	3	1	0	3	0
1821	76	10	10000	3	1	0	3	0
1748	77	10	10000	3	1	0	3	0
1683	78	10	10000	3	1	0	3	0
1618	79	10	10000	3	1	0	3	0
1569	80	10	10000	3	1	0	3	0
1566	81	10	10000	3	1	0	3	0
1638	82	10	10000	3	1	0	3	0
1745	83	10	10000	3	1	0	3	0
1842	84	10	10000	3	1	0	3	0
1891	85	10	10000	3	1	0	3	0
1829	86	10	10000	3	1	0	3	0
1801	87	10	10000	3	1	0	3	0
1786	88	10	10000	3	1	0	3	0
1730	89	10	10000	3	1	0	3	0
1675	90	10	10000	3	1	0	3	0
1616	91	10	10000	3	1	0	3	0
1550	92	10	10000	3	1	0	3	0
1489	93	10	10000	3	1	0	3	0
1429	94	10	10000	3	1	0	3	0
1389	95	10	10000	3	1	0	3	0
1362	96	10	10000	3	1	0	3	0
1330	97	10	10000	3	1	0	3	0
1308	98	10	10000	3	1	0	3	0
1290	99	10	10000	3	1	0	3	0
1260	100	10	10000	3	1	0	3	0
1327	101	10	10000	3	1	0	3	0
1459	102	10	10000	3	1	0	3	0
1596	103	10	10000	3	1	0	3	0
1713	104	10	10000	3	1	0	3	0
1695	105	10	10000	3	1	0	3	0
1682	106	10	10000	3	1	0	3	0
1738	107	10	10000	3	1	0	3	0
1797	108	10	10000	3	1	0	3	0
1805	109	10	10000	3	1	0	3	0
1789	110	10	10000	3	1	0	3	0
1793	111	10	10000	3	1	0	3	0
1796	112	10	10000	3	1	0	3	0
1791	113	10	10000	3	1	0	3	0
1818	114	10	10000	3	1	0	3	0
1868	115	10	10000	3	1	0	3	0
1892	116	10	10000	3	1	0	3	0
1835	117	10	10000	3	1	0	3	0
1759	118	10	10000	3	1	0	3	0
1714	119	10	10000	3	1	0	3	0
1678	120	10	10000	3	1	0	3	0
1657	121	10	10000	3	1	0	3	0
1721	122	10	10000	3	1	0	3	0
1827	123	10	10000	3	1	0	3	0
1933	124	10	10000	3	1	0	3	0
1970	125	10	10000	3	1	0	3	0
1903	126	10	10000	3	1	0	3	0
1887	127	10	10000	3	1	0	3	0
1885	128	10	10000	3	1	0	3	0
1838	129	10	10000	3	1	0	3	0
1758	130	10	10000	3	1	0	3	0
1727	131	10	10000	3	1	0	3	0
1724	132	10	10000	3	1	0	3	0
1715	133	10	10000	3	1	0	3	0
1700	134	10	10000	3	1	0	3	0
1691	135	10	10000	3	1	0	3	0
1678	136	10	10000	3	1	0	3	0
1616	137	10	10000	3	1	0	3	0
1540	138	10	10000	3	1	0	3	0
1480	139	10	10000	3	1	0	3	0
1435	140	10	10000	3	1	0	3	0
1484	141	10	10000	3	1	0	3	0
1605	142	10	10000	3	1	0	3	0
1734	143	10	10000	3	1	0	3	0
1851	144	10	10000	3	1	0	3	0
1878	145	10	10000	3	1	0	3	0
1819	146	10	10000	3	1	0	3	0
1824	147	10	10000	3	1	0	3	0
1839	148	10	10000	3	1	0	3	0
1812	149	10	10000	3	1	0	3	0
1788	150	10	10000	3	1	0	3	0
1815	151	10	10000	3	1	0	3	0
1853	152	10	10000	3	1	0	3	0
1878	153	10	10000	3	1	0	3	0
1908	154	10	10000	3	1	0	3	0
1946	155	10	10000	3	1	0	3	0
1922	156	10	10000	3	1	0	3	0
1846	157	10	10000	3	1	0	3	0
1785	158	10	10000	3	1	0	3	0
1711	159	10	10000	3	1	0	3	0
1649	160	10	10000	3	1	0	3	0
1659	161	10	10000	3	1	0	3	0
1727	162	10	10000	3	1	0	3	0
1808	163	10	10000	3	1	0	3	0
1880	164	10	10000	3	1	0	3	0
1927	165	10	10000	3	1	0	3	0
1870	166	10	10000	3	1	0	3	0
1829	167	10	10000	3	1	0	3	0
1807	168	10	10000	3	1	0	3	0
1753	169	10	10000	3	1	0	3	0
1712	170	10	10000	3	1	0	3	0
1730	171	10	10000	3	1	0	3	0
1748	172	10	10000	3	1	0	3	0
1728	173	10	10000	3	1	0	3	0
1694	174	10	10000	3	1	0	3	0
1686	175	10	10000	3	1	0	3	0
1669	176	10	10000	3	1	0	3	0
1606	177	10	10000	3	1	0	3	0
1556	178	10	10000	3	1	0	3	0
1496	179	10	10000	3	1	0	3	0
1476	180	10	10000	3	1	0	3	0
1436	181	10	10000	3	1	0	3	0
1473	182	10	10000	3	1	0	3	0
1528	183	10	10000	3	1	0	3	0
1584	184	10	10000	3	1	0	3	0
1601	185	10	10000	3	1	0	3	0
1561	186	10	10000	3	1	0	3	0
1507	187	10	10000	3	1	0	3	0
1477	188	10	10000	3	1	0	3	0
1447	189	10	10000	3	1	0	3	0
1480	190	10	10000	3	1	0	3	0
1547	191	10	10000	3	1	0	3	0
1587	192	10	10000	3	1	0	3	0
1587	193	10	10000	3	1	0	3	0
1589	194	10	10000	3	1	0	3	0
1601	195	10	10000	3	1	0	3	0
1552	196	10	10000	3	1	0	3	0
1541	197	10	10000	3	1	0	3	0
1541	198	10	10000	3	1	0	3	0
1504	199	10	10000	3	1	0	3	0
1441	200	10	10000	3	1	0	3	0
1436	201	10	10000	3	1	0	3	0
1498	202	10	10000	3	1	0	3	0
1597	203	10	10000	3	1	0	3	0
1709	204	10	10000	3	1	0	3	0
1800	205	10	10000	3	1	0	3	0
1777	206	10	10000	3	1	0	3	0
1716	207	10	10000	3	1	0	3	0
1676	208	10	10000	3	1	0	3	0
1637	209	10	10000	3	1	0	3	0
1648	210	10	10000	3	1	0	3	0
1670	211	10	10000	3	1	0	3	0
1692	212	10	10000	3	1	0	3	0
1702	213	10	10000	3	1	0	3	0
1723	214	10	10000	3	1	0	3	0
1742	215	10	10000	3	1	0	3	0
1694	216	10	10000	3	1	0	3	0
1660	217	10	10000	3	1	0	3	0
1638	218	10	10000	3	1	0	3	0
1587	219	10	10000	3	1	0	3	0
1556	220	10	10000	3	1	0	3	0
1611	221	10	10000	3	1	0	3	0
1751	222	10	10000	3	1	0	3	0
1912	223	10	10000	3	1	0	3	0
2069	224	10	10000	3	1	0	3	0
2110	225	10	10000	3	1	0	3	0
2037	226	10	10000	3	1	0	3	0
2017	227	10	10000	3	1	0	3	0
2014	228	10	10000	3	1	0	3	0
1968	229	10	10000	3	1	0	3	0
1879	230	10	10000	3	1	0	3	0
1813	231	10	10000	3	1	0	3	0
1768	232	10	10000	3	1	0	3	0
1730	233	10	10000	3	1	0	3	0
1707	234	10	10000	3	1	0	3	0
1727	235	10	10000	3	1	0	3	0
1754	236	10	10000	3	1	0	3	0
1719	237	10	10000	3	1	0	3	0
1662	238	10	10000	3	1	0	3	0
1631	239	10	10000	3	1	0	3	0
1599	240	10	10000	3	1	0	3	0
1594	241	10	10000	3	1	0	3	0
1663	242	10	10000	3	1	0	3	0
1765	243	10	10000	3	1	0	3	0
1839	244	10	10000	3	1	0	3	0
1845	245	10	10000	3	1	0	3	0
1787	246	10	10000	3	1	0	3	0
1792	247	10	10000	3	1	0	3	0
1812	248	10	10000	3	1	0	3	0
1811	249	10	10000	3	1	0	3	0
1854	250	10	10000	3	1	0	3	0
1931	251	10	10000	3	1	0	3	0
2006	252	10	10000	3	1	0	3	0
2048	253	10	10000	3	1	0	3	0
2079	254	10	10000	3	1	0	3	0
2099	255	10	10000	3	1	0	3	0
2044	256	10	10000	3	1	0	3	0
1979	257	10	10000	3	1	0	3	0
1931	258	10	10000	3	1	0	3	0
1856	259	10	10000	3	1	0	3	0
1796	260	10	10000	3	1	0	3	0
1838	261	10	10000	3	1	0	3	0
1931	262	10	10000	3	1	0	3	0
2017	263	10	10000	3	1	0	3	0
2100	264	10	10000	3	1	0	3	0
2148	265	10	10000	3	1	0	3	0
2078	266	10	10000	3	1	0	3	0
2036	267	10	10000	3	1	0	3	0
2012	268	10	10000	3	1	0	3	0
1961	269	10	10000	3	1	0	3	0
1924	270	10	10000	3	1	0	3	0
1922	271	10	10000	3	1	0	3	0
1940	272	10	10000	3	1	0	3	0
1912	273	10	10000	3	1	0	3	0
1894	274	10	10000	3	1	0	3	0
1881	275	10	10000	3	1	0	3	0
1847	276	10	10000	3	1	0	3	0
1772	277	10	10000	3	1	0	3	0
1708	278	10	10000	3	1	0	3	0
1638	279	10	10000	3	1	0	3	0
1580	280	10	10000	3	1	0	3	0
1586	281	10	10000	3	1	0	3	0
1647	282	10	10000	3	1	0	3	0
1720	283	10	10000	3	1	0	3	0
1795	284	10	10000	3	1	0	3	0
1838	285	10	10000	3	1	0	3	0
1782	286	10	10000	3	1	0	3	0
1753	287	10	10000	3	1	0	3	0
1742	288	10	10000	3	1	0	3	0
1693	289	10	10000	3	1	0	3	0
1620	290	10	10000	3	1	0	3	0
1546	291	10	10000	3	1	0	3	0
1485	292	10	10000	3	1	0	3	0
1450	293	10	10000	3	1	0	3	0
1453	294	10	10000	3	1	0	3	0
1483	295	10	10000	3	1	0	3	0
1511	296	10	10000	3	1	0	3	0
1475	297	10	10000	3	1	0	3	0
1416	298	10	10000	3	1	0	3	0
1384	299	10	10000	3	1	0	3	0
1355	300	10	10000	3	1	0	3	0
1355	301	10	10000	3	1	0	3	0
1450	302	10	10000	3	1	0	3	0
1569	303	10	10000	3	1	0	3	0
1668	304	10	10000	3	1	0	3	0
1704	305	10	10000	3	1	0	3	0
1651	306	10	10000	3	1	0	3	0
1656	307	10	10000	3	1	0	3	0
1675	308	10	10000	3	1	0	3	0
1669	309	10	10000	3	1	0	3	0
1698	310	10	10000	3	1	0	3	0
1749	311	10	10000	3	1	0	3	0
1816	312	10	10000	3	1	0	3	0
1878	313	10	10000	3	1	0	3	0
1914	314	10	10000	3	1	0	3	0
1927	315	10	10000	3	1	0	3	0
1885	316	10	10000	3	1	0	3	0
1824	317	10	10000	3	1	0	3	0
1779	318	10	10000	3	1	0	3	0
1709	319	10	10000	3	1	0	3	0
1664	320	10	10000	3	1	0	3	0
1713	321	10	10000	3	1	0	3	0
1799	322	10	10000	3	1	0	3	0
1877	323	10	10000	3	1	0	3	0
1926	324	10	10000	3	1	0	3	0
1952	325	10	10000	3	1	0	3	0
1893	326	10	10000	3	1	0	3	0
1851	327	10	10000	3	1	0	3	0
1830	328	10	10000	3	1	0	3	0
1788	329	10	10000	3	1	0	3	0
1791	330	10	10000	3	1	0	3	0
1843	331	10	10000	3	1	0	3	0
1895	332	10	10000	3	1	0	3	0
1959	333	10	10000	3	1	0	3	0
2019	334	10	10000	3	1	0	3	0
2059	335	10	10000	3	1	0	3	0
1995	336	10	10000	3	1	0	3	0
1959	337	10	10000	3	1	0	3	0
1935	338	10	10000	3	1	0	3	0
1875	339	10	10000	3	1	0	3	0
1796	340	10	10000	3	1	0	3	0
1787	341	10	10000	3	1	0	3	0
1855	342	10	10000	3	1	0	3	0
1964	343	10	10000	3	1	0	3	0
2067	344	10	10000	3	1	0	3	0
2126	345	10	10000	3	1	0	3	0
2078	346	10	10000	3	1	0	3	0
2009	347	10	10000	3	1	0	3	0
1963	348	10	10000	3	1	0	3	0
1899	349	10	10000	3	1	0	3	0
1886	350	10	10000	3	1	0	3	0
1898	351	10	10000	3	1	0	3	0
1897	352	10	10000	3	1	0	3	0
1881	353	10	10000	3	1	0	3	0
1858	354	10	10000	3	1	0	3	0
1847	355	10	10000	3	1	0	3	0
1803	356	10	10000	3	1	0	3	0
1742	357	10	10000	3	1	0	3	0
1698	358	10	10000	3	1	0	3	0
1629	359	10	10000	3	1	0	3	0
1585	360	10	10000	3	1	0	3	0
1633	361	10	10000	3	1	0	3	0
1732	362	10	10000	3	1	0	3	0
1832	363	10	10000	3	1	0	3	0
1911	364	10	10000	3	1	0	3	0
1950	365	10	10000	3	1	0	3	0
1886	366	10	10000	3	1	0	3	0
1861	367	10	10000	3	1	0	3	0
1853	368	10	10000	3	1	0	3	0
1811	369	10	10000	3	1	0	3	0
1752	370	10	10000	3	1	0	3	0
1722	371	10	10000	3	1	0	3	0
1714	372	10	10000	3	1	0	3	0
1709	373	10	10000	3	1	0	3	0
1713	374	10	10000	3	1	0	3	0
1715	375	10	10000	3	1	0	3	0
1708	376	10	10000	3	1	0	3	0
1648	377	10	10000	3	1	0	3	0
1570	378	10	10000	3	1	0	3	0
1514	379	10	10000	3	1	0	3	0
1466	380	10	10000	3	1	0	3	0
1509	381	10	10000	3	1	0	3	0
1624	382	10	10000	3	1	0	3	0
1755	383	10	10000	3	1	0	3	0
1871	384	10	10000	3	1	0	3	0
1894	385	10	10000	3	1	0	3	0
1835	386	10	10000	3	1	0	3	0
1843	387	10	10000	3	1	0	3	0
1865	388	10	10000	3	1	0	3	0
1845	389	10	10000	3	1	0	3	0
1793	390	10	10000	3	1	0	3	0
1767	391	10	10000	3	1	0	3	0
1782	392	10	10000	3	1	0	3	0
1795	393	10	10000	3	1	0	3	0
1798	394	10	10000	3	1	0	3	0
1818	395	10	10000	3	1	0	3	0
1821	396	10	10000	3	1	0	3	0
1763	397	10	10000	3	1	0	3	0
1683	398	10	10000	3	1	0	3	0
1616	399	10	10000	3	1	0	3	0
1562	400	10	10000	3	1	0	3	0
1592	401	10	10000	3	1	0	3	0
1665	402	10	10000	3	1	0	3	0
1752	403	10	10000	3	1	0	3	0
1830	404	10	10000	3	1	0	3	0
1854	405	10	10000	3	1	0	3	0
1794	406	10	10000	3	1	0	3	0
1793	407	10	10000	3	1	0	3	0
1807	408	10	10000	3	1	0	3	0
1793	409	10	10000	3	1	0	3	0
1804	410	10	10000	3	1	0	3	0
1863	411	10	10000	3	1	0	3	0
1926	412	10	10000	3	1	0	3	0
1965	413	10	10000	3	1	0	3	0
2005	414	10	10000	3	1	0	3	0
2045	415	10	10000	3	1	0	3	0
2001	416	10	10000	3	1	0	3	0
1936	417	10	10000	3	1	0	3	0
1889	418	10	10000	3	1	0	3	0
1816	419	10	10000	3	1	0	3	0
1753	420	10	10000	3	1	0	3	0
1733	421	10	10000	3	1	0	3	0
1783	422	10	10000	3	1	0	3	0
1857	423	10	10000	3	1	0	3	0
1898	424	10	10000	3	1	0	3	0
1919	425	10	10000	3	1	0	3	0
1884	426	10	10000	3	1	0	3	0
1815	427	10	10000	3	1	0	3	0
1771	428	10	10000	3	1	0	3	0
1724	429	10	10000	3	1	0	3	0
1730	430	10	10000	3	1	0	3	0
1759	431	10	10000	3	1	0	3	0
1781	432	10	10000	3	1	0	3	0
1785	433	10	10000	3	1	0	3	0
1762	434	10	10000	3	1	0	3	0
1743	435	10	10000	3	1	0	3	0
1691	436	10	10000	3	1	0	3	0
1656	437	10	10000	3	1	0	3	0
1635	438	10	10000	3	1	0	3	0
1581	439	10	10000	3	1	0	3	0
1518	440	10	10000	3	1	0	3	0
1505	441	10	10000	3	1	0	3	0
1548	442	10	10000	3	1	0	3	0
1608	443	10	10000	3	1	0	3	0
1646	444	10	10000	3	1	0	3	0
1681	445	10	10000	3	1	0	3	0
1666	446	10	10000	3	1	0	3	0
1602	447	10	10000	3	1	0	3	0
1567	448	10	10000	3	1	0	3	0
1554	449	10	10000	3	1	0	3	0
1586	450	10	10000	3	1	0	3	0
1664	451	10	10000	3	1	0	3	0
1730	452	10	10000	3	1	0	3	0
1789	453	10	10000	3	1	0	3	0
1840	454	10	10000	3	1	0	3	0
1854	455	10	10000	3	1	0	3	0
1796	456	10	10000	3	1	0	3	0
1801	457	10	10000	3	1	0	3	0
1812	458	10	10000	3	1	0	3	0
1781	459	10	10000	3	1	0	3	0
1704	460	10	10000	3	1	0	3	0
1690	461	10	10000	3	1	0	3	0
1732	462	10	10000	3	1	0	3	0
1801	463	10	10000	3	1	0	3	0
1879	464	10	10000	3	1	0	3	0
1940	465	10	10000	3	1	0	3	0
1930	466	10	10000	3	1	0	3	0
1852	467	10	10000	3	1	0	3	0
1788	468	10	10000	3	1	0	3	0
1712	469	10	10000	3	1	0	3	0
1662	470	10	10000	3	1	0	3	0
1677	471	10	10000	3	1	0	3	0
1706	472	10	10000	3	1	0	3	0
1728	473	10	10000	3	1	0	3	0
1726	474	10	10000	3	1	0	3	0
1721	475	10	10000	3	1	0	3	0
1671	476	10	10000	3	1	0	3	0
1635	477	10	10000	3	1	0	3	0
1614	478	10	10000	3	1	0	3	0
1559	479	10	10000	3	1	0	3	0
1509	480	10	10000	3	1	0	3	0
1531	481	10	10000	3	1	0	3	0
1599	482	10	10000	3	1	0	3	0
1696	483	10	10000	3	1	0	3	0
1815	484	10	10000	3	1	0	3	0
1886	485	10	10000	3	1	0	3	0
1832	486	10	10000	3	1	0	3	0
1796	487	10	10000	3	1	0	3	0
1782	488	10	10000	3	1	0	3	0
1732	489	10	10000	3	1	0	3	0
1667	490	10	10000	3	1	0	3	0
1634	491	10	10000	3	1	0	3	0
1604	492	10	10000	3	1	0	3	0
1568	493	10	10000	3	1	0	3	0
1547	494	10	10000	3	1	0	3	0
1551	495	10	10000	3	1	0	3	0
1542	496	10	10000	3	1	0	3	0
1498	497	10	10000	3	1	0	3	0
1439	498	10	10000	3	1	0	3	0
1396	499	10	10000	3	1	0	3	0
1348	500	10	10000	3	1	0	3	0
1368	501	10	10000	3	1	0	3	0
1457	502	10	10000	3	1	0	3	1
1549	503	10	10000	3	1	0	3	1
1624	504	10	10000	3	1	0	3	1
1642	505	10	10000	3	1	0	3	1
1593	506	10	10000	3	1	0	3	1
1608	507	10	10000	3	1	0	3	1
1638	508	10	10000	3	1	0	3	1
1647	509	10	10000	3	1	0	3	1
1696	510	10	10000	3	1	0	3	1
1774	511	10	10000	3	1	0	3	1
1827	512	10	10000	3	1	0	3	1
1830	513	10	10000	3	1	0	3	1
1848	514	10	10000	3	1	0	3	1
1888	515	10	10000	3	1	0	3	1
1864	516	10	10000	3	1	0	3	1
1794	517	10	10000	3	1	0	3	1
1739	518	10	10000	3	1	0	3	1
1669	519	10	10000	3	1	0	3	1
1633	520	10	10000	3	1	0	3	1
1592	521	10	10000	3	1	0	3	1
1634	522	10	10000	3	1	0	3	1
1708	523	10	10000	3	1	0	3	1
1779	524	10	10000	3	1	0	3	1
1828	525	10	10000	3	1	0	3	1
1790	526	10	10000	3	1	0	3	1
1737	527	10	10000	3	1	0	3	1
1706	528	10	10000	3	1	0	3	1
1646	529	10	10000	3	1	0	3	1
1585	530	10	10000	3	1	0	3	1
1569	531	10	10000	3	1	0	3	1
1599	532	10	10000	3	1	0	3	1
1640	533	10	10000	3	1	0	3	1
1697	534	10	10000	3	1	0	3	1
1752	535	10	10000	3	1	0	3	1
1716	536	10	10000	3	1	0	3	1
1669	537	10	10000	3	1	0	3	1
1637	538	10	10000	3	1	0	3	1
1577	539	10	10000	3	1	0	3	1
1559	540	10	10000	3	1	0	3	1
1514	541	10	10000	3	1	0	3	1
1500	542	10	10000	3	1	0	3	1
1516	543	10	10000	3	1	0	3	1
1537	544	10	10000	3	1	0	3	1
1556	545	10	10000	3	1	0	3	1
1558	546	10	10000	3	1	0	3	1
1501	547	10	10000	3	1	0	3	1
1440	548	10	10000	3	1	0	3	1
1387	549	10	10000	3	1	0	3	1
1367	550	10	10000	3	1	0	3	1
1365	551	10	10000	3	1	0	3	1
1374	552	10	10000	3	1	0	3	0
1371	553	10	10000	3	1	0	3	0
1375	554	10	10000	3	1	0	3	0
1376	555	10	10000	3	1	0	3	0
1336	556	10	10000	3	1	0	3	0
1326	557	10	10000	3	1	0	3	0
1328	558	10	10000	3	1	0	3	0
1297	559	10	10000	3	1	0	3	0
1243	560	10	10000	3	1	0	3	0
1275	561	10	10000	3	1	0	3	0
1365	562	10	10000	3	1	0	3	0
1488	563	10	10000	3	1	0	3	0
1576	564	10	10000	3	1	0	3	0
1630	565	10	10000	3	1	0	3	0
1599	566	10	10000	3	1	0	3	0
1557	567	10	10000	3	1	0	3	0
1538	568	10	10000	3	1	0	3	0
1497	569	10	10000	3	1	0	3	0
1475	570	10	10000	3	1	0	3	0
1480	571	10	10000	3	1	0	3	0
1489	572	10	10000	3	1	0	3	0
1478	573	10	10000	3	1	0	3	0
1470	574	10	10000	3	1	0	3	0
1483	575	10	10000	3	1	0	3	0
1476	576	10	10000	3	1	0	3	0
1419	577	10	10000	3	1	0	3	0
1373	578	10	10000	3	1	0	3	0
1322	579	10	10000	3	1	0	3	0
1301	580	10	10000	3	1	0	3	0
1276	581	10	10000	3	1	0	3	0
1326	582	10	10000	3	1	0	3	0
1377	583	10	10000	3	1	0	3	0
1423	584	10	10000	3	1	0	3	0
1474	585	10	10000	3	1	0	3	0
1453	586	10	10000	3	1	0	3	0
1417	587	10	10000	3	1	0	3	0
1407	588	10	10000	3	1	0	3	0
1411	589	10	10000	3	1	0	3	0
1453	590	10	10000	3	1	0	3	0
1470	591	10	10000	3	1	0	3	0
1485	592	10	10000	3	1	0	3	0
1560	593	10	10000	3	1	0	3	0
1668	594	10	10000	3	1	0	3	0
1747	595	10	10000	3	1	0	3	0
1698	596	10	10000	3	1	0	3	0
1677	597	10	10000	3	1	0	3	0
1669	598	10	10000	3	1	0	3	0
1625	599	10	10000	3	1	0	3	0
1585	600	10	10000	3	1	0	3	0
1533	601	10	10000	3	1	0	3	0
1533	602	10	10000	3	1	0	3	0
1591	603	10	10000	3	1	0	3	0
1701	604	10	10000	3	1	0	3	0
1810	605	10	10000	3	1	0	3	0
1816	606	10	10000	3	1	0	3	0
1743	607	10	10000	3	1	0	3	0
1685	608	10	10000	3	1	0	3	0
1613	609	10	10000	3	1	0	3	0
1590	610	10	10000	3	1	0	3	0
1542	611	10	10000	3	1	0	3	0
1533	612	10	10000	3	1	0	3	0
1525	613	10	10000	3	1	0	3	0
1526	614	10	10000	3	1	0	3	0
1592	615	10	10000	3	1	0	3	0
1573	616	10	10000	3	1	0	3	0
1531	617	10	10000	3	1	0	3	0
1506	618	10	10000	3	1	0	3	0
1453	619	10	10000	3	1	0	3	0
1437	620	10	10000	3	1	0	3	0
1408	621	10	10000	3	1	0	3	0
1486	622	10	10000	3	1	0	3	0
1613	623	10	10000	3	1	0	3	0
1743	624	10	10000	3	1	0	3	0
1827	625	10	10000	3	1	0	3	0
1787	626	10	10000	3	1	0	3	0
1743	627	10	10000	3	1	0	3	0
1723	628	10	10000	3	1	0	3	0
1672	629	10	10000	3	1	0	3	0
1600	630	10	10000	3	1	0	3	0
1530	631	10	10000	3	1	0	3	0
1461	632	10	10000	3	1	0	3	0
1409	633	10	10000	3	1	0	3	0
1367	634	10	10000	3	1	0	3	0
1313	635	10	10000	3	1	0	3	0
1303	636	10	10000	3	1	0	3	0
1303	637	10	10000	3	1	0	3	0
1287	638	10	10000	3	1	0	3	0
1284	639	10	10000	3	1	0	3	0
1273	640	10	10000	3	1	0	3	0
1253	641	10	10000	3	1	0	3	0
1278	642	10	10000	3	1	0	3	0
1312	643	10	10000	3	1	0	3	0
1330	644	10	10000	3	1	0	3	0
1326	645	10	10000	3	1	0	3	0
1285	646	10	10000	3	1	0	3	0
1297	647	10	10000	3	1	0	3	0
1334	648	10	10000	3	1	0	3	0
1376	649	10	10000	3	1	0	3	0
1465	650	10	10000	3	1	0	3	0
1592	651	10	10000	3	1	0	3	0
1718	652	10	10000	3	1	0	3	0
1836	653	10	10000	3	1	0	3	0
1945	654	10	10000	3	1	0	3	0
1991	655	10	10000	3	1	0	3	0
1927	656	10	10000	3	1	0	3	0
1909	657	10	10000	3	1	0	3	0
1906	658	10	10000	3	1	0	3	0
1867	659	10	10000	3	1	0	3	0
1787	660	10	10000	3	1	0	3	0
1756	661	10	10000	3	1	0	3	0
1796	662	10	10000	3	1	0	3	0
1825	663	10	10000	3	1	0	3	0
1835	664	10	10000	3	1	0	3	0
1835	665	10	10000	3	1	0	3	0
1803	666	10	10000	3	1	0	3	0
1739	667	10	10000	3	1	0	3	0
1743	668	10	10000	3	1	0	3	0
1796	669	10	10000	3	1	0	3	0
1897	670	10	10000	3	1	0	3	0
2017	671	10	10000	3	1	0	3	0
2112	672	10	10000	3	1	0	3	0
2161	673	10	10000	3	1	0	3	0
2187	674	10	10000	3	1	0	3	0
2130	675	10	10000	3	1	0	3	0
2119	676	10	10000	3	1	0	3	0
2181	677	10	10000	3	1	0	3	0
2244	678	10	10000	3	1	0	3	0
2256	679	10	10000	3	1	0	3	0
2189	680	10	10000	3	1	0	3	0
2153	681	10	10000	3	1	0	3	0
2196	682	10	10000	3	1	0	3	0
2290	683	10	10000	3	1	0	3	0
2396	684	10	10000	3	1	0	3	0
2473	685	10	10000	3	1	0	3	0
2472	686	10	10000	3	1	0	3	0
2389	687	10	10000	3	1	0	3	0
2278	688	10	10000	3	1	0	3	0
2174	689	10	10000	3	1	0	3	0
2113	690	10	10000	3	1	0	3	0
2089	691	10	10000	3	1	0	3	0
2096	692	10	10000	3	1	0	3	0
2140	693	10	10000	3	1	0	3	0
2206	694	10	10000	3	1	0	3	0
2226	695	10	10000	3	1	0	3	0
2149	696	10	10000	3	1	0	3	0
2128	697	10	10000	3	1	0	3	0
2116	698	10	10000	3	1	0	3	0
2066	699	10	10000	3	1	0	3	0
1979	700	10	10000	3	1	0	3	0
1989	701	10	10000	3	1	0	3	0
2112	702	10	10000	3	1	0	3	0
2271	703	10	10000	3	1	0	3	0
2405	704	10	10000	3	1	0	3	0
2458	705	10	10000	3	1	0	3	0
2376	706	10	10000	3	1	0	3	0
2317	707	10	10000	3	1	0	3	0
2283	708	10	10000	3	1	0	3	0
2214	709	10	10000	3	1	0	3	0
2133	710	10	10000	3	1	0	3	0
2048	711	10	10000	3	1	0	3	0
1961	712	10	10000	3	1	0	3	0
1901	713	10	10000	3	1	0	3	0
1875	714	10	10000	3	1	0	3	0
1870	715	10	10000	3	1	0	3	0
1879	716	10	10000	3	1	0	3	0
1852	717	10	10000	3	1	0	3	0
1803	718	10	10000	3	1	0	3	0
1744	719	10	10000	3	1	0	3	0
1707	720	10	10000	3	1	0	3	0
1741	721	10	10000	3	1	0	3	0
1816	722	10	10000	3	1	0	3	0
1911	723	10	10000	3	1	0	3	0
1995	724	10	10000	3	1	0	3	0
1972	725	10	10000	3	1	0	3	0
1939	726	10	10000	3	1	0	3	0
1982	727	10	10000	3	1	0	3	0
2035	728	10	10000	3	1	0	3	0
2061	729	10	10000	3	1	0	3	0
2118	730	10	10000	3	1	0	3	0
2211	731	10	10000	3	1	0	3	0
2329	732	10	10000	3	1	0	3	0
2441	733	10	10000	3	1	0	3	0
2552	734	10	10000	3	1	0	3	0
2616	735	10	10000	3	1	0	3	0
2541	736	10	10000	3	1	0	3	0
2457	737	10	10000	3	1	0	3	0
2391	738	10	10000	3	1	0	3	0
2296	739	10	10000	3	1	0	3	0
2252	740	10	10000	3	1	0	3	0
2246	741	10	10000	3	1	0	3	0
2161	742	10	10000	3	1	0	3	0
2110	743	10	10000	3	1	0	3	0
2091	744	10	10000	3	1	0	3	0
2114	745	10	10000	3	1	0	3	0
2125	746	10	10000	3	1	0	3	0
2069	747	10	10000	3	1	0	3	0
1981	748	10	10000	3	1	0	3	0
1922	749	10	10000	3	1	0	3	0
1940	750	10	10000	3	1	0	3	0
1983	751	10	10000	3	1	0	3	0
2009	752	10	10000	3	1	0	3	0
2029	753	10	10000	3	1	0	3	0
2063	754	10	10000	3	1	0	3	0
2047	755	10	10000	3	1	0	3	0
2000	756	10	10000	3	1	0	3	0
2030	757	10	10000	3	1	0	3	0
2061	758	10	10000	3	1	0	3	0
2048	759	10	10000	3	1	0	3	0
1990	760	10	10000	3	1	0	3	0
2002	761	10	10000	3	1	0	3	0
2072	762	10	10000	3	1	0	3	0
2170	763	10	10000	3	1	0	3	0
2263	764	10	10000	3	1	0	3	0
2334	765	10	10000	3	1	0	3	0
2310	766	10	10000	3	1	0	3	0
2214	767	10	10000	3	1	0	3	0
2134	768	10	10000	3	1	0	3	0
2050	769	10	10000	3	1	0	3	0
1994	770	10	10000	3	1	0	3	0
1910	771	10	10000	3	1	0	3	0
1835	772	10	10000	3	1	0	3	0
1763	773	10	10000	3	1	0	3	0
1699	774	10	10000	3	1	0	3	0
1681	775	10	10000	3	1	0	3	0
1676	776	10	10000	3	1	0	3	0
1626	777	10	10000	3	1	0	3	0
1555	778	10	10000	3	1	0	3	0
1511	779	10	10000	3	1	0	3	0
1500	780	10	10000	3	1	0	3	0
1477	781	10	10000	3	1	0	3	0
1524	782	10	10000	3	1	0	3	0
1605	783	10	10000	3	1	0	3	0
1707	784	10	10000	3	1	0	3	0
1758	785	10	10000	3	1	0	3	0
1703	786	10	10000	3	1	0	3	0
1698	787	10	10000	3	1	0	3	0
1711	788	10	10000	3	1	0	3	0
1685	789	10	10000	3	1	0	3	0
1621	790	10	10000	3	1	0	3	0
1581	791	10	10000	3	1	0	3	0
1541	792	10	10000	3	1	0	3	0
1478	793	10	10000	3	1	0	3	0
1445	794	10	10000	3	1	0	3	0
1478	795	10	10000	3	1	0	3	0
1532	796	10	10000	3	1	0	3	0
1544	797	10	10000	3	1	0	3	0
1525	798	10	10000	3	1	0	3	0
1524	799	10	10000	3	1	0	3	0
1527	800	10	10000	3	1	0	3	0
1490	801	10	10000	3	1	0	3	0
1527	802	10	10000	3	1	0	3	0
1606	803	10	10000	3	1	0	3	0
1687	804	10	10000	3	1	0	3	0
1712	805	10	10000	3	1	0	3	0
1661	806	10	10000	3	1	0	3	0
1679	807	10	10000	3	1	0	3	0
1712	808	10	10000	3	1	0	3	0
1708	809	10	10000	3	1	0	3	0
1700	810	10	10000	3	1	0	3	0
1747	811	10	10000	3	1	0	3	0
1822	812	10	10000	3	1	0	3	0
1879	813	10	10000	3	1	0	3	0
1919	814	10	10000	3	1	0	3	0
1979	815	10	10000	3	1	0	3	0
1961	816	10	10000	3	1	0	3	0
1887	817	10	10000	3	1	0	3	0
1830	818	10	10000	3	1	0	3	0
1756	819	10	10000	3	1	0	3	0
1715	820	10	10000	3	1	0	3	0
1681	821	10	10000	3	1	0	3	0
1744	822	10	10000	3	1	0	3	0
1817	823	10	10000	3	1	0	3	0
1863	824	10	10000	3	1	0	3	0
1892	825	10	10000	3	1	0	3	0
1858	826	10	10000	3	1	0	3	0
1794	827	10	10000	3	1	0	3	0
1758	828	10	10000	3	1	0	3	0
1699	829	10	10000	3	1	0	3	0
1649	830	10	10000	3	1	0	3	0
1627	831	10	10000	3	1	0	3	0
1623	832	10	10000	3	1	0	3	0
1606	833	10	10000	3	1	0	3	0
1573	834	10	10000	3	1	0	3	0
1526	835	10	10000	3	1	0	3	0
1484	836	10	10000	3	1	0	3	0
1427	837	10	10000	3	1	0	3	0
1379	838	10	10000	3	1	0	3	0
1320	839	10	10000	3	1	0	3	0
1300	840	10	10000	3	1	0	3	0
1371	841	10	10000	3	1	0	3	0
1515	842	10	10000	3	1	0	3	0
1675	843	10	10000	3	1	0	3	0
1819	844	10	10000	3	1	0	3	0
1860	845	10	10000	3	1	0	3	0
1802	846	10	10000	3	1	0	3	0
1810	847	10	10000	3	1	0	3	0
1837	848	10	10000	3	1	0	3	0
1822	849	10	10000	3	1	0	3	0
1752	850	10	10000	3	1	0	3	0
1682	851	10	10000	3	1	0	3	0
1671	852	10	10000	3	1	0	3	0
1696	853	10	10000	3	1	0	3	0
1734	854	10	10000	3	1	0	3	0
1773	855	10	10000	3	1	0	3	0
1792	856	10	10000	3	1	0	3	0
1752	857	10	10000	3	1	0	3	0
1685	858	10	10000	3	1	0	3	0
1637	859	10	10000	3	1	0	3	0
1599	860	10	10000	3	1	0	3	0
1569	861	10	10000	3	1	0	3	0
1605	862	10	10000	3	1	0	3	0
1660	863	10	10000	3	1	0	3	0
1717	864	10	10000	3	1	0	3	0
1758	865	10	10000	3	1	0	3	0
1707	866	10	10000	3	1	0	3	0
1689	867	10	10000	3	1	0	3	0
1694	868	10	10000	3	1	0	3	0
1669	869	10	10000	3	1	0	3	0
1662	870	10	10000	3	1	0	3	0
1711	871	10	10000	3	1	0	3	0
1765	872	10	10000	3	1	0	3	0
1802	873	10	10000	3	1	0	3	0
1846	874	10	10000	3	1	0	3	0
1862	875	10	10000	3	1	0	3	0
1821	876	10	10000	3	1	0	3	0
1762	877	10	10000	3	1	0	3	0
1725	878	10	10000	3	1	0	3	0
1681	879	10	10000	3	1	0	3	0
1687	880	10	10000	3	1	0	3	0
1798	881	10	10000	3	1	0	3	0
1967	882	10	10000	3	1	0	3	0
2158	883	10	10000	3	1	0	3	0
2329	884	10	10000	3	1	0	3	0
2342	885	10	10000	3	1	0	3	0
2262	886	10	10000	3	1	0	3	0
2257	887	10	10000	3	1	0	3	0
2268	888	10	10000	3	1	0	3	0
2241	889	10	10000	3	1	0	3	0
2179	890	10	10000	3	1	0	3	0
2155	891	10	10000	3	1	0	3	0
2154	892	10	10000	3	1	0	3	0
2163	893	10	10000	3	1	0	3	0
2164	894	10	10000	3	1	0	3	0
2166	895	10	10000	3	1	0	3	0
2166	896	10	10000	3	1	0	3	0
2093	897	10	10000	3	1	0	3	0
1995	898	10	10000	3	1	0	3	0
1915	899	10	10000	3	1	0	3	0
1840	900	10	10000	3	1	0	3	0
1821	901	10	10000	3	1	0	3	0
1888	902	10	10000	3	1	0	3	0
1999	903	10	10000	3	1	0	3	0
2108	904	10	10000	3	1	0	3	0
2139	905	10	10000	3	1	0	3	0
2066	906	10	10000	3	1	0	3	0
2046	907	10	10000	3	1	0	3	0
2048	908	10	10000	3	1	0	3	0
2013	909	10	10000	3	1	0	3	0
1958	910	10	10000	3	1	0	3	0
1948	911	10	10000	3	1	0	3	0
1979	912	10	10000	3	1	0	3	0
2042	913	10	10000	3	1	0	3	0
2102	914	10	10000	3	1	0	3	0
2133	915	10	10000	3	1	0	3	0
2104	916	10	10000	3	1	0	3	0
2024	917	10	10000	3	1	0	3	0
1961	918	10	10000	3	1	0	3	0
1881	919	10	10000	3	1	0	3	0
1811	920	10	10000	3	1	0	3	0
1789	921	10	10000	3	1	0	3	0
1829	922	10	10000	3	1	0	3	0
1867	923	10	10000	3	1	0	3	0
1888	924	10	10000	3	1	0	3	0
1923	925	10	10000	3	1	0	3	0
1893	926	10	10000	3	1	0	3	0
1825	927	10	10000	3	1	0	3	0
1785	928	10	10000	3	1	0	3	0
1747	929	10	10000	3	1	0	3	0
1769	930	10	10000	3	1	0	3	0
1816	931	10	10000	3	1	0	3	0
1857	932	10	10000	3	1	0	3	0
1893	933	10	10000	3	1	0	3	0
1922	934	10	10000	3	1	0	3	0
1950	935	10	10000	3	1	0	3	0
1890	936	10	10000	3	1	0	3	0
1866	937	10	10000	3	1	0	3	0
1860	938	10	10000	3	1	0	3	0
1821	939	10	10000	3	1	0	3	0
1759	940	10	10000	3	1	0	3	0
1697	941	10	10000	3	1	0	3	0
1697	942	10	10000	3	1	0	3	0
1738	943	10	10000	3	1	0	3	0
1758	944	10	10000	3	1	0	3	0
1766	945	10	10000	3	1	0	3	0
1760	946	10	10000	3	1	0	3	0
1710	947	10	10000	3	1	0	3	0
1634	948	10	10000	3	1	0	3	0
1587	949	10	10000	3	1	0	3	0
1580	950	10	10000	3	1	0	3	0
1620	951	10	10000	3	1	0	3	0
1660	952	10	10000	3	1	0	3	0
1670	953	10	10000	3	1	0	3	0
1650	954	10	10000	3	1	0	3	0
1617	955	10	10000	3	1	0	3	0
1563	956	10	10000	3	1	0	3	0
1570	957	10	10000	3	1	0	3	0
1590	958	10	10000	3	1	0	3	0
1575	959	10	10000	3	1	0	3	0
1547	960	10	10000	3	1	0	3	0
1605	961	10	10000	3	1	0	3	0
1742	962	10	10000	3	1	0	3	0
1899	963	10	10000	3	1	0	3	0
2038	964	10	10000	3	1	0	3	0
2116	965	10	10000	3	1	0	3	0
2059	966	10	10000	3	1	0	3	0
2008	967	10	10000	3	1	0	3	0
1983	968	10	10000	3	1	0	3	0
1928	969	10	10000	3	1	0	3	0
1858	970	10	10000	3	1	0	3	0
1785	971	10	10000	3	1	0	3	0
1712	972	10	10000	3	1	0	3	0
1636	973	10	10000	3	1	0	3	0
1572	974	10	10000	3	1	0	3	0
1579	975	10	10000	3	1	0	3	0
1627	976	10	10000	3	1	0	3	0
1615	977	10	10000	3	1	0	3	0
1573	978	10	10000	3	1	0	3	0
1540	979	10	10000	3	1	0	3	0
1497	980	10	10000	3	1	0	3	0
1537	981	10	10000	3	1	0	3	0
1649	982	10	10000	3	1	0	3	0
1781	983	10	10000	3	1	0	3	0
1896	984	10	10000	3	1	0	3	0
1895	985	10	10000	3	1	0	3	0
1854	986	10	10000	3	1	0	3	0
1893	987	10	10000	3	1	0	3	0
1946	988	10	10000	3	1	0	3	0
1956	989	10	10000	3	1	0	3	0
1908	990	10	10000	3	1	0	3	0
1886	991	10	10000	3	1	0	3	0
1879	992	10	10000	3	1	0	3	0
1857	993	10	10000	3	1	0	3	0
1822	994	10	10000	3	1	0	3	0
1806	995	10	10000	3	1	0	3	0
1835	996	10	10000	3	1	0	3	0
1822	997	10	10000	3	1	0	3	0
1779	998	10	10000	3	1	0	3	0
1739	999	10	10000	3	1	0	3	0
1691	1000	10	10000	3	1	0	3	0
1742	1001	10	10000	3	1	0	3	0
1555	2	0	10000	4	1	0	4	0
1602	3	0	10000	4	1	0	4	0
1633	4	0	10000	4	1	0	4	0
1599	5	0	10000	4	1	0	4	0
1531	6	0	10000	4	1	0	4	0
1488	7	0	10000	4	1	0	4	0
1466	8	0	10000	4	1	0	4	0
1433	9	0	10000	4	1	0	4	0
1413	10	0	10000	4	1	0	4	0
1423	11	0	10000	4	1	0	4	0
1461	12	0	10000	4	1	0	4	0
1451	13	0	10000	4	1	0	4	0
1430	14	0	10000	4	1	0	4	0
1446	15	0	10000	4	1	0	4	0
1431	16	0	10000	4	1	0	4	0
1387	17	0	10000	4	1	0	4	0
1393	18	0	10000	4	1	0	4	0
1424	19	0	10000	4	1	0	4	0
1427	20	0	10000	4	1	0	4	0
1418	21	0	10000	4	1	0	4	0
1372	22	0	10000	4	1	0	4	0
1337	23	0	10000	4	1	0	4	0
1306	24	0	10000	4	1	0	4	0
1274	25	0	10000	4	1	0	4	0
1280	26	0	10000	4	1	0	4	0
1311	27	0	10000	4	1	0	4	0
1341	28	0	10000	4	1	0	4	0
1348	29	0	10000	4	1	0	4	0
1370	30	0	10000	4	1	0	4	0
1390	31	0	10000	4	1	0	4	0
1347	32	0	10000	4	1	0	4	0
1340	33	0	10000	4	1	0	4	0
1326	34	0	10000	4	1	0	4	0
1277	35	0	10000	4	1	0	4	0
1247	36	0	10000	4	1	0	4	0
1297	37	0	10000	4	1	0	4	0
1380	38	0	10000	4	1	0	4	0
1455	39	0	10000	4	1	0	4	0
1506	40	0	10000	4	1	0	4	0
1531	41	0	10000	4	1	0	4	0
1502	42	0	10000	4	1	0	4	0
1438	43	0	10000	4	1	0	4	0
1378	44	0	10000	4	1	0	4	0
1330	45	0	10000	4	1	0	4	0
1341	46	0	10000	4	1	0	4	0
1381	47	0	10000	4	1	0	4	0
1424	48	0	10000	4	1	0	4	0
1440	49	0	10000	4	1	0	4	0
1459	50	0	10000	4	1	0	4	0
1461	51	0	10000	4	1	0	4	0
1419	52	0	10000	4	1	0	4	0
1425	53	0	10000	4	1	0	4	0
1417	54	0	10000	4	1	0	4	0
1369	55	0	10000	4	1	0	4	0
1332	56	0	10000	4	1	0	4	0
1345	57	0	10000	4	1	0	4	0
1402	58	0	10000	4	1	0	4	0
1429	59	0	10000	4	1	0	4	0
1432	60	0	10000	4	1	0	4	0
1434	61	0	10000	4	1	0	4	0
1412	62	0	10000	4	1	0	4	0
1352	63	0	10000	4	1	0	4	0
1311	64	0	10000	4	1	0	4	0
1297	65	0	10000	4	1	0	4	0
1319	66	0	10000	4	1	0	4	0
1341	67	0	10000	4	1	0	4	0
1355	68	0	10000	4	1	0	4	0
1349	69	0	10000	4	1	0	4	0
1360	70	0	10000	4	1	0	4	0
1346	71	0	10000	4	1	0	4	0
1328	72	0	10000	4	1	0	4	0
1357	73	0	10000	4	1	0	4	0
1367	74	0	10000	4	1	0	4	0
1323	75	0	10000	4	1	0	4	0
1330	76	0	10000	4	1	0	4	0
1295	77	0	10000	4	1	0	4	0
1289	78	0	10000	4	1	0	4	0
1286	79	0	10000	4	1	0	4	0
1272	80	0	10000	4	1	0	4	0
1272	81	0	10000	4	1	0	4	0
1285	82	0	10000	4	1	0	4	0
1265	83	0	10000	4	1	0	4	0
1228	84	0	10000	4	1	0	4	0
1188	85	0	10000	4	1	0	4	0
1145	86	0	10000	4	1	0	4	0
1104	87	0	10000	4	1	0	4	0
1054	88	0	10000	4	1	0	4	0
1015	89	0	10000	4	1	0	4	0
987	90	0	10000	4	1	0	4	0
967	91	0	10000	4	1	0	4	0
945	92	0	10000	4	1	0	4	0
966	93	0	10000	4	1	0	4	0
971	94	0	10000	4	1	0	4	0
943	95	0	10000	4	1	0	4	0
918	96	0	10000	4	1	0	4	0
935	97	0	10000	4	1	0	4	0
979	98	0	10000	4	1	0	4	0
1035	99	0	10000	4	1	0	4	0
1103	100	0	10000	4	1	0	4	0
1166	101	0	10000	4	1	0	4	0
1152	102	0	10000	4	1	0	4	0
1112	103	0	10000	4	1	0	4	0
1074	104	0	10000	4	1	0	4	0
1041	105	0	10000	4	1	0	4	0
1068	106	0	10000	4	1	0	4	0
1124	107	0	10000	4	1	0	4	0
1193	108	0	10000	4	1	0	4	0
1256	109	0	10000	4	1	0	4	0
1304	110	0	10000	4	1	0	4	0
1319	111	0	10000	4	1	0	4	0
1279	112	0	10000	4	1	0	4	0
1278	113	0	10000	4	1	0	4	0
1261	114	0	10000	4	1	0	4	0
1226	115	0	10000	4	1	0	4	0
1260	116	0	10000	4	1	0	4	0
1233	117	0	10000	4	1	0	4	0
1222	118	0	10000	4	1	0	4	0
1238	119	0	10000	4	1	0	4	0
1267	120	0	10000	4	1	0	4	0
1301	121	0	10000	4	1	0	4	0
1293	122	0	10000	4	1	0	4	0
1240	123	0	10000	4	1	0	4	0
1226	124	0	10000	4	1	0	4	0
1266	125	0	10000	4	1	0	4	0
1338	126	0	10000	4	1	0	4	0
1414	127	0	10000	4	1	0	4	0
1488	128	0	10000	4	1	0	4	0
1556	129	0	10000	4	1	0	4	0
1600	130	0	10000	4	1	0	4	0
1558	131	0	10000	4	1	0	4	0
1577	132	0	10000	4	1	0	4	0
1631	133	0	10000	4	1	0	4	0
1659	134	0	10000	4	1	0	4	0
1616	135	0	10000	4	1	0	4	0
1597	136	0	10000	4	1	0	4	0
1564	137	0	10000	4	1	0	4	0
1511	138	0	10000	4	1	0	4	0
1512	139	0	10000	4	1	0	4	0
1539	140	0	10000	4	1	0	4	0
1587	141	0	10000	4	1	0	4	0
1618	142	0	10000	4	1	0	4	0
1604	143	0	10000	4	1	0	4	0
1583	144	0	10000	4	1	0	4	0
1539	145	0	10000	4	1	0	4	0
1510	146	0	10000	4	1	0	4	0
1498	147	0	10000	4	1	0	4	0
1473	148	0	10000	4	1	0	4	0
1430	149	0	10000	4	1	0	4	0
1395	150	0	10000	4	1	0	4	0
1366	151	0	10000	4	1	0	4	0
1337	152	0	10000	4	1	0	4	0
1351	153	0	10000	4	1	0	4	0
1346	154	0	10000	4	1	0	4	0
1298	155	0	10000	4	1	0	4	0
1257	156	0	10000	4	1	0	4	0
1302	157	0	10000	4	1	0	4	0
1403	158	0	10000	4	1	0	4	0
1497	159	0	10000	4	1	0	4	0
1555	160	0	10000	4	1	0	4	0
1577	161	0	10000	4	1	0	4	0
1522	162	0	10000	4	1	0	4	0
1491	163	0	10000	4	1	0	4	0
1456	164	0	10000	4	1	0	4	0
1400	165	0	10000	4	1	0	4	0
1396	166	0	10000	4	1	0	4	0
1408	167	0	10000	4	1	0	4	0
1429	168	0	10000	4	1	0	4	0
1453	169	0	10000	4	1	0	4	0
1482	170	0	10000	4	1	0	4	0
1521	171	0	10000	4	1	0	4	0
1477	172	0	10000	4	1	0	4	0
1430	173	0	10000	4	1	0	4	0
1376	174	0	10000	4	1	0	4	0
1357	175	0	10000	4	1	0	4	0
1408	176	0	10000	4	1	0	4	0
1406	177	0	10000	4	1	0	4	0
1354	178	0	10000	4	1	0	4	0
1331	179	0	10000	4	1	0	4	0
1306	180	0	10000	4	1	0	4	0
1272	181	0	10000	4	1	0	4	0
1247	182	0	10000	4	1	0	4	0
1204	183	0	10000	4	1	0	4	0
1165	184	0	10000	4	1	0	4	0
1138	185	0	10000	4	1	0	4	0
1101	186	0	10000	4	1	0	4	0
1074	187	0	10000	4	1	0	4	0
1045	188	0	10000	4	1	0	4	0
1006	189	0	10000	4	1	0	4	0
966	190	0	10000	4	1	0	4	0
955	191	0	10000	4	1	0	4	0
932	192	0	10000	4	1	0	4	0
902	193	0	10000	4	1	0	4	0
868	194	0	10000	4	1	0	4	0
867	195	0	10000	4	1	0	4	0
863	196	0	10000	4	1	0	4	0
870	197	0	10000	4	1	0	4	0
928	198	0	10000	4	1	0	4	0
993	199	0	10000	4	1	0	4	0
1043	200	0	10000	4	1	0	4	0
1067	201	0	10000	4	1	0	4	0
1036	202	0	10000	4	1	0	4	0
1034	203	0	10000	4	1	0	4	0
1026	204	0	10000	4	1	0	4	0
985	205	0	10000	4	1	0	4	0
981	206	0	10000	4	1	0	4	0
1012	207	0	10000	4	1	0	4	0
1073	208	0	10000	4	1	0	4	0
1142	209	0	10000	4	1	0	4	0
1230	210	0	10000	4	1	0	4	0
1286	211	0	10000	4	1	0	4	0
1248	212	0	10000	4	1	0	4	0
1225	213	0	10000	4	1	0	4	0
1194	214	0	10000	4	1	0	4	0
1168	215	0	10000	4	1	0	4	0
1226	216	0	10000	4	1	0	4	0
1253	217	0	10000	4	1	0	4	0
1205	218	0	10000	4	1	0	4	0
1150	219	0	10000	4	1	0	4	0
1105	220	0	10000	4	1	0	4	0
1054	221	0	10000	4	1	0	4	0
1007	222	0	10000	4	1	0	4	0
989	223	0	10000	4	1	0	4	0
995	224	0	10000	4	1	0	4	0
1040	225	0	10000	4	1	0	4	0
1101	226	0	10000	4	1	0	4	0
1144	227	0	10000	4	1	0	4	0
1181	228	0	10000	4	1	0	4	0
1199	229	0	10000	4	1	0	4	0
1194	230	0	10000	4	1	0	4	0
1171	231	0	10000	4	1	0	4	0
1240	232	0	10000	4	1	0	4	0
1342	233	0	10000	4	1	0	4	0
1416	234	0	10000	4	1	0	4	0
1415	235	0	10000	4	1	0	4	0
1363	236	0	10000	4	1	0	4	0
1333	237	0	10000	4	1	0	4	0
1379	238	0	10000	4	1	0	4	0
1438	239	0	10000	4	1	0	4	0
1486	240	0	10000	4	1	0	4	0
1556	241	0	10000	4	1	0	4	0
1589	242	0	10000	4	1	0	4	0
1562	243	0	10000	4	1	0	4	0
1533	244	0	10000	4	1	0	4	0
1513	245	0	10000	4	1	0	4	0
1453	246	0	10000	4	1	0	4	0
1393	247	0	10000	4	1	0	4	0
1339	248	0	10000	4	1	0	4	0
1288	249	0	10000	4	1	0	4	0
1238	250	0	10000	4	1	0	4	0
1213	251	0	10000	4	1	0	4	0
1175	252	0	10000	4	1	0	4	0
1145	253	0	10000	4	1	0	4	0
1107	254	0	10000	4	1	0	4	0
1086	255	0	10000	4	1	0	4	0
1060	256	0	10000	4	1	0	4	0
1095	257	0	10000	4	1	0	4	0
1187	258	0	10000	4	1	0	4	0
1286	259	0	10000	4	1	0	4	0
1372	260	0	10000	4	1	0	4	0
1394	261	0	10000	4	1	0	4	0
1355	262	0	10000	4	1	0	4	0
1362	263	0	10000	4	1	0	4	0
1364	264	0	10000	4	1	0	4	0
1321	265	0	10000	4	1	0	4	0
1303	266	0	10000	4	1	0	4	0
1344	267	0	10000	4	1	0	4	0
1442	268	0	10000	4	1	0	4	0
1524	269	0	10000	4	1	0	4	0
1600	270	0	10000	4	1	0	4	0
1648	271	0	10000	4	1	0	4	0
1599	272	0	10000	4	1	0	4	0
1550	273	0	10000	4	1	0	4	0
1494	274	0	10000	4	1	0	4	0
1450	275	0	10000	4	1	0	4	0
1406	276	0	10000	4	1	0	4	0
1441	277	0	10000	4	1	0	4	0
1503	278	0	10000	4	1	0	4	0
1517	279	0	10000	4	1	0	4	0
1540	280	0	10000	4	1	0	4	0
1556	281	0	10000	4	1	0	4	0
1503	282	0	10000	4	1	0	4	0
1485	283	0	10000	4	1	0	4	0
1465	284	0	10000	4	1	0	4	0
1430	285	0	10000	4	1	0	4	0
1444	286	0	10000	4	1	0	4	0
1489	287	0	10000	4	1	0	4	0
1532	288	0	10000	4	1	0	4	0
1547	289	0	10000	4	1	0	4	0
1542	290	0	10000	4	1	0	4	0
1537	291	0	10000	4	1	0	4	0
1486	292	0	10000	4	1	0	4	0
1452	293	0	10000	4	1	0	4	0
1409	294	0	10000	4	1	0	4	0
1366	295	0	10000	4	1	0	4	0
1323	296	0	10000	4	1	0	4	0
1295	297	0	10000	4	1	0	4	0
1306	298	0	10000	4	1	0	4	0
1308	299	0	10000	4	1	0	4	0
1277	300	0	10000	4	1	0	4	0
1231	301	0	10000	4	1	0	4	0
1182	302	0	10000	4	1	0	4	0
1163	303	0	10000	4	1	0	4	0
1187	304	0	10000	4	1	0	4	0
1238	305	0	10000	4	1	0	4	0
1307	306	0	10000	4	1	0	4	0
1371	307	0	10000	4	1	0	4	0
1434	308	0	10000	4	1	0	4	0
1451	309	0	10000	4	1	0	4	0
1473	310	0	10000	4	1	0	4	0
1441	311	0	10000	4	1	0	4	0
1449	312	0	10000	4	1	0	4	0
1502	313	0	10000	4	1	0	4	0
1531	314	0	10000	4	1	0	4	0
1495	315	0	10000	4	1	0	4	0
1464	316	0	10000	4	1	0	4	0
1418	317	0	10000	4	1	0	4	0
1424	318	0	10000	4	1	0	4	0
1446	319	0	10000	4	1	0	4	0
1440	320	0	10000	4	1	0	4	0
1427	321	0	10000	4	1	0	4	0
1385	322	0	10000	4	1	0	4	0
1343	323	0	10000	4	1	0	4	0
1326	324	0	10000	4	1	0	4	0
1317	325	0	10000	4	1	0	4	0
1337	326	0	10000	4	1	0	4	0
1354	327	0	10000	4	1	0	4	0
1363	328	0	10000	4	1	0	4	0
1361	329	0	10000	4	1	0	4	0
1357	330	0	10000	4	1	0	4	0
1319	331	0	10000	4	1	0	4	0
1353	332	0	10000	4	1	0	4	0
1426	333	0	10000	4	1	0	4	0
1473	334	0	10000	4	1	0	4	0
1449	335	0	10000	4	1	0	4	0
1395	336	0	10000	4	1	0	4	0
1368	337	0	10000	4	1	0	4	0
1373	338	0	10000	4	1	0	4	0
1416	339	0	10000	4	1	0	4	0
1481	340	0	10000	4	1	0	4	0
1542	341	0	10000	4	1	0	4	0
1559	342	0	10000	4	1	0	4	0
1518	343	0	10000	4	1	0	4	0
1463	344	0	10000	4	1	0	4	0
1406	345	0	10000	4	1	0	4	0
1388	346	0	10000	4	1	0	4	0
1386	347	0	10000	4	1	0	4	0
1400	348	0	10000	4	1	0	4	0
1401	349	0	10000	4	1	0	4	0
1380	350	0	10000	4	1	0	4	0
1362	351	0	10000	4	1	0	4	0
1322	352	0	10000	4	1	0	4	0
1324	353	0	10000	4	1	0	4	0
1312	354	0	10000	4	1	0	4	0
1272	355	0	10000	4	1	0	4	0
1295	356	0	10000	4	1	0	4	0
1263	357	0	10000	4	1	0	4	0
1233	358	0	10000	4	1	0	4	0
1240	359	0	10000	4	1	0	4	0
1257	360	0	10000	4	1	0	4	0
1300	361	0	10000	4	1	0	4	0
1313	362	0	10000	4	1	0	4	0
1267	363	0	10000	4	1	0	4	0
1219	364	0	10000	4	1	0	4	0
1177	365	0	10000	4	1	0	4	0
1176	366	0	10000	4	1	0	4	0
1222	367	0	10000	4	1	0	4	0
1264	368	0	10000	4	1	0	4	0
1302	369	0	10000	4	1	0	4	0
1339	370	0	10000	4	1	0	4	0
1346	371	0	10000	4	1	0	4	0
1309	372	0	10000	4	1	0	4	0
1317	373	0	10000	4	1	0	4	0
1309	374	0	10000	4	1	0	4	0
1267	375	0	10000	4	1	0	4	0
1254	376	0	10000	4	1	0	4	0
1222	377	0	10000	4	1	0	4	0
1245	378	0	10000	4	1	0	4	0
1283	379	0	10000	4	1	0	4	0
1330	380	0	10000	4	1	0	4	0
1380	381	0	10000	4	1	0	4	0
1361	382	0	10000	4	1	0	4	0
1309	383	0	10000	4	1	0	4	0
1264	384	0	10000	4	1	0	4	0
1219	385	0	10000	4	1	0	4	0
1207	386	0	10000	4	1	0	4	0
1202	387	0	10000	4	1	0	4	0
1195	388	0	10000	4	1	0	4	0
1173	389	0	10000	4	1	0	4	0
1151	390	0	10000	4	1	0	4	0
1142	391	0	10000	4	1	0	4	0
1109	392	0	10000	4	1	0	4	0
1081	393	0	10000	4	1	0	4	0
1048	394	0	10000	4	1	0	4	0
1002	395	0	10000	4	1	0	4	0
999	396	0	10000	4	1	0	4	0
1062	397	0	10000	4	1	0	4	0
1174	398	0	10000	4	1	0	4	0
1283	399	0	10000	4	1	0	4	0
1371	400	0	10000	4	1	0	4	0
1378	401	0	10000	4	1	0	4	0
1348	402	0	10000	4	1	0	4	0
1371	403	0	10000	4	1	0	4	0
1383	404	0	10000	4	1	0	4	0
1338	405	0	10000	4	1	0	4	0
1284	406	0	10000	4	1	0	4	0
1261	407	0	10000	4	1	0	4	0
1248	408	0	10000	4	1	0	4	0
1212	409	0	10000	4	1	0	4	0
1182	410	0	10000	4	1	0	4	0
1167	411	0	10000	4	1	0	4	0
1160	412	0	10000	4	1	0	4	0
1148	413	0	10000	4	1	0	4	0
1143	414	0	10000	4	1	0	4	0
1160	415	0	10000	4	1	0	4	0
1139	416	0	10000	4	1	0	4	0
1119	417	0	10000	4	1	0	4	0
1140	418	0	10000	4	1	0	4	0
1172	419	0	10000	4	1	0	4	0
1196	420	0	10000	4	1	0	4	0
1181	421	0	10000	4	1	0	4	0
1162	422	0	10000	4	1	0	4	0
1195	423	0	10000	4	1	0	4	0
1221	424	0	10000	4	1	0	4	0
1224	425	0	10000	4	1	0	4	0
1267	426	0	10000	4	1	0	4	0
1316	427	0	10000	4	1	0	4	0
1367	428	0	10000	4	1	0	4	0
1406	429	0	10000	4	1	0	4	0
1449	430	0	10000	4	1	0	4	0
1496	431	0	10000	4	1	0	4	0
1457	432	0	10000	4	1	0	4	0
1415	433	0	10000	4	1	0	4	0
1369	434	0	10000	4	1	0	4	0
1335	435	0	10000	4	1	0	4	0
1350	436	0	10000	4	1	0	4	0
1307	437	0	10000	4	1	0	4	0
1295	438	0	10000	4	1	0	4	0
1319	439	0	10000	4	1	0	4	0
1352	440	0	10000	4	1	0	4	0
1372	441	0	10000	4	1	0	4	0
1346	442	0	10000	4	1	0	4	0
1291	443	0	10000	4	1	0	4	0
1261	444	0	10000	4	1	0	4	0
1264	445	0	10000	4	1	0	4	0
1314	446	0	10000	4	1	0	4	0
1378	447	0	10000	4	1	0	4	0
1418	448	0	10000	4	1	0	4	0
1442	449	0	10000	4	1	0	4	0
1475	450	0	10000	4	1	0	4	0
1455	451	0	10000	4	1	0	4	0
1445	452	0	10000	4	1	0	4	0
1482	453	0	10000	4	1	0	4	0
1502	454	0	10000	4	1	0	4	0
1461	455	0	10000	4	1	0	4	0
1453	456	0	10000	4	1	0	4	0
1422	457	0	10000	4	1	0	4	0
1390	458	0	10000	4	1	0	4	0
1409	459	0	10000	4	1	0	4	0
1441	460	0	10000	4	1	0	4	0
1492	461	0	10000	4	1	0	4	0
1515	462	0	10000	4	1	0	4	0
1489	463	0	10000	4	1	0	4	0
1449	464	0	10000	4	1	0	4	0
1392	465	0	10000	4	1	0	4	0
1360	466	0	10000	4	1	0	4	0
1337	467	0	10000	4	1	0	4	0
1310	468	0	10000	4	1	0	4	0
1259	469	0	10000	4	1	0	4	0
1207	470	0	10000	4	1	0	4	0
1165	471	0	10000	4	1	0	4	0
1132	472	0	10000	4	1	0	4	0
1144	473	0	10000	4	1	0	4	0
1145	474	0	10000	4	1	0	4	0
1109	475	0	10000	4	1	0	4	0
1096	476	0	10000	4	1	0	4	0
1085	477	0	10000	4	1	0	4	0
1136	478	0	10000	4	1	0	4	0
1189	479	0	10000	4	1	0	4	0
1240	480	0	10000	4	1	0	4	0
1286	481	0	10000	4	1	0	4	0
1264	482	0	10000	4	1	0	4	0
1225	483	0	10000	4	1	0	4	0
1218	484	0	10000	4	1	0	4	0
1237	485	0	10000	4	1	0	4	0
1286	486	0	10000	4	1	0	4	0
1344	487	0	10000	4	1	0	4	0
1407	488	0	10000	4	1	0	4	0
1433	489	0	10000	4	1	0	4	0
1452	490	0	10000	4	1	0	4	0
1449	491	0	10000	4	1	0	4	0
1415	492	0	10000	4	1	0	4	0
1429	493	0	10000	4	1	0	4	0
1431	494	0	10000	4	1	0	4	0
1385	495	0	10000	4	1	0	4	0
1379	496	0	10000	4	1	0	4	0
1337	497	0	10000	4	1	0	4	0
1334	498	0	10000	4	1	0	4	0
1352	499	0	10000	4	1	0	4	0
1371	500	0	10000	4	1	0	4	0
1384	501	0	10000	4	1	0	4	0
1363	502	0	10000	4	1	0	4	1
1308	503	0	10000	4	1	0	4	1
1255	504	0	10000	4	1	0	4	1
1211	505	0	10000	4	1	0	4	1
1242	506	0	10000	4	1	0	4	1
1320	507	0	10000	4	1	0	4	1
1381	508	0	10000	4	1	0	4	1
1397	509	0	10000	4	1	0	4	1
1386	510	0	10000	4	1	0	4	1
1345	511	0	10000	4	1	0	4	1
1327	512	0	10000	4	1	0	4	1
1359	513	0	10000	4	1	0	4	1
1375	514	0	10000	4	1	0	4	1
1338	515	0	10000	4	1	0	4	1
1328	516	0	10000	4	1	0	4	1
1402	517	0	10000	4	1	0	4	1
1516	518	0	10000	4	1	0	4	1
1637	519	0	10000	4	1	0	4	1
1727	520	0	10000	4	1	0	4	1
1757	521	0	10000	4	1	0	4	1
1696	522	0	10000	4	1	0	4	1
1662	523	0	10000	4	1	0	4	1
1628	524	0	10000	4	1	0	4	1
1561	525	0	10000	4	1	0	4	1
1498	526	0	10000	4	1	0	4	1
1443	527	0	10000	4	1	0	4	1
1393	528	0	10000	4	1	0	4	1
1349	529	0	10000	4	1	0	4	1
1309	530	0	10000	4	1	0	4	1
1312	531	0	10000	4	1	0	4	1
1329	532	0	10000	4	1	0	4	1
1299	533	0	10000	4	1	0	4	1
1267	534	0	10000	4	1	0	4	1
1285	535	0	10000	4	1	0	4	1
1332	536	0	10000	4	1	0	4	1
1299	537	0	10000	4	1	0	4	1
1270	538	0	10000	4	1	0	4	1
1282	539	0	10000	4	1	0	4	1
1297	540	0	10000	4	1	0	4	1
1319	541	0	10000	4	1	0	4	1
1282	542	0	10000	4	1	0	4	1
1264	543	0	10000	4	1	0	4	1
1247	544	0	10000	4	1	0	4	1
1221	545	0	10000	4	1	0	4	1
1231	546	0	10000	4	1	0	4	1
1268	547	0	10000	4	1	0	4	1
1316	548	0	10000	4	1	0	4	1
1346	549	0	10000	4	1	0	4	1
1366	550	0	10000	4	1	0	4	1
1380	551	0	10000	4	1	0	4	1
1339	552	0	10000	4	1	0	4	0
1313	553	0	10000	4	1	0	4	0
1283	554	0	10000	4	1	0	4	0
1244	555	0	10000	4	1	0	4	0
1234	556	0	10000	4	1	0	4	0
1217	557	0	10000	4	1	0	4	0
1272	558	0	10000	4	1	0	4	0
1333	559	0	10000	4	1	0	4	0
1381	560	0	10000	4	1	0	4	0
1402	561	0	10000	4	1	0	4	0
1363	562	0	10000	4	1	0	4	0
1322	563	0	10000	4	1	0	4	0
1287	564	0	10000	4	1	0	4	0
1237	565	0	10000	4	1	0	4	0
1226	566	0	10000	4	1	0	4	0
1254	567	0	10000	4	1	0	4	0
1298	568	0	10000	4	1	0	4	0
1343	569	0	10000	4	1	0	4	0
1400	570	0	10000	4	1	0	4	0
1430	571	0	10000	4	1	0	4	0
1385	572	0	10000	4	1	0	4	0
1376	573	0	10000	4	1	0	4	0
1362	574	0	10000	4	1	0	4	0
1314	575	0	10000	4	1	0	4	0
1298	576	0	10000	4	1	0	4	0
1256	577	0	10000	4	1	0	4	0
1257	578	0	10000	4	1	0	4	0
1293	579	0	10000	4	1	0	4	0
1327	580	0	10000	4	1	0	4	0
1360	581	0	10000	4	1	0	4	0
1356	582	0	10000	4	1	0	4	0
1299	583	0	10000	4	1	0	4	0
1249	584	0	10000	4	1	0	4	0
1219	585	0	10000	4	1	0	4	0
1258	586	0	10000	4	1	0	4	0
1324	587	0	10000	4	1	0	4	0
1371	588	0	10000	4	1	0	4	0
1378	589	0	10000	4	1	0	4	0
1381	590	0	10000	4	1	0	4	0
1382	591	0	10000	4	1	0	4	0
1349	592	0	10000	4	1	0	4	0
1367	593	0	10000	4	1	0	4	0
1375	594	0	10000	4	1	0	4	0
1333	595	0	10000	4	1	0	4	0
1328	596	0	10000	4	1	0	4	0
1312	597	0	10000	4	1	0	4	0
1423	598	0	10000	4	1	0	4	0
1586	599	0	10000	4	1	0	4	0
1721	600	0	10000	4	1	0	4	0
1786	601	0	10000	4	1	0	4	0
1732	602	0	10000	4	1	0	4	0
1684	603	0	10000	4	1	0	4	0
1638	604	0	10000	4	1	0	4	0
1584	605	0	10000	4	1	0	4	0
1546	606	0	10000	4	1	0	4	0
1475	607	0	10000	4	1	0	4	0
1406	608	0	10000	4	1	0	4	0
1344	609	0	10000	4	1	0	4	0
1285	610	0	10000	4	1	0	4	0
1237	611	0	10000	4	1	0	4	0
1225	612	0	10000	4	1	0	4	0
1197	613	0	10000	4	1	0	4	0
1171	614	0	10000	4	1	0	4	0
1146	615	0	10000	4	1	0	4	0
1154	616	0	10000	4	1	0	4	0
1275	617	0	10000	4	1	0	4	0
1418	618	0	10000	4	1	0	4	0
1564	619	0	10000	4	1	0	4	0
1638	620	0	10000	4	1	0	4	0
1597	621	0	10000	4	1	0	4	0
1624	622	0	10000	4	1	0	4	0
1699	623	0	10000	4	1	0	4	0
1760	624	0	10000	4	1	0	4	0
1754	625	0	10000	4	1	0	4	0
1687	626	0	10000	4	1	0	4	0
1658	627	0	10000	4	1	0	4	0
1624	628	0	10000	4	1	0	4	0
1560	629	0	10000	4	1	0	4	0
1521	630	0	10000	4	1	0	4	0
1543	631	0	10000	4	1	0	4	0
1590	632	0	10000	4	1	0	4	0
1628	633	0	10000	4	1	0	4	0
1648	634	0	10000	4	1	0	4	0
1663	635	0	10000	4	1	0	4	0
1631	636	0	10000	4	1	0	4	0
1572	637	0	10000	4	1	0	4	0
1577	638	0	10000	4	1	0	4	0
1622	639	0	10000	4	1	0	4	0
1668	640	0	10000	4	1	0	4	0
1630	641	0	10000	4	1	0	4	0
1632	642	0	10000	4	1	0	4	0
1686	643	0	10000	4	1	0	4	0
1730	644	0	10000	4	1	0	4	0
1727	645	0	10000	4	1	0	4	0
1749	646	0	10000	4	1	0	4	0
1809	647	0	10000	4	1	0	4	0
1857	648	0	10000	4	1	0	4	0
1896	649	0	10000	4	1	0	4	0
1940	650	0	10000	4	1	0	4	0
1959	651	0	10000	4	1	0	4	0
1914	652	0	10000	4	1	0	4	0
1836	653	0	10000	4	1	0	4	0
1765	654	0	10000	4	1	0	4	0
1705	655	0	10000	4	1	0	4	0
1651	656	0	10000	4	1	0	4	0
1649	657	0	10000	4	1	0	4	0
1718	658	0	10000	4	1	0	4	0
1809	659	0	10000	4	1	0	4	0
1879	660	0	10000	4	1	0	4	0
1906	661	0	10000	4	1	0	4	0
1839	662	0	10000	4	1	0	4	0
1802	663	0	10000	4	1	0	4	0
1768	664	0	10000	4	1	0	4	0
1697	665	0	10000	4	1	0	4	0
1653	666	0	10000	4	1	0	4	0
1647	667	0	10000	4	1	0	4	0
1673	668	0	10000	4	1	0	4	0
1682	669	0	10000	4	1	0	4	0
1690	670	0	10000	4	1	0	4	0
1694	671	0	10000	4	1	0	4	0
1642	672	0	10000	4	1	0	4	0
1599	673	0	10000	4	1	0	4	0
1557	674	0	10000	4	1	0	4	0
1497	675	0	10000	4	1	0	4	0
1445	676	0	10000	4	1	0	4	0
1462	677	0	10000	4	1	0	4	0
1554	678	0	10000	4	1	0	4	0
1664	679	0	10000	4	1	0	4	0
1746	680	0	10000	4	1	0	4	0
1773	681	0	10000	4	1	0	4	0
1712	682	0	10000	4	1	0	4	0
1679	683	0	10000	4	1	0	4	0
1648	684	0	10000	4	1	0	4	0
1586	685	0	10000	4	1	0	4	0
1532	686	0	10000	4	1	0	4	0
1467	687	0	10000	4	1	0	4	0
1415	688	0	10000	4	1	0	4	0
1375	689	0	10000	4	1	0	4	0
1349	690	0	10000	4	1	0	4	0
1329	691	0	10000	4	1	0	4	0
1314	692	0	10000	4	1	0	4	0
1271	693	0	10000	4	1	0	4	0
1220	694	0	10000	4	1	0	4	0
1172	695	0	10000	4	1	0	4	0
1176	696	0	10000	4	1	0	4	0
1236	697	0	10000	4	1	0	4	0
1312	698	0	10000	4	1	0	4	0
1393	699	0	10000	4	1	0	4	0
1452	700	0	10000	4	1	0	4	0
1454	701	0	10000	4	1	0	4	0
1425	702	0	10000	4	1	0	4	0
1456	703	0	10000	4	1	0	4	0
1483	704	0	10000	4	1	0	4	0
1456	705	0	10000	4	1	0	4	0
1412	706	0	10000	4	1	0	4	0
1384	707	0	10000	4	1	0	4	0
1350	708	0	10000	4	1	0	4	0
1317	709	0	10000	4	1	0	4	0
1299	710	0	10000	4	1	0	4	0
1310	711	0	10000	4	1	0	4	0
1337	712	0	10000	4	1	0	4	0
1318	713	0	10000	4	1	0	4	0
1286	714	0	10000	4	1	0	4	0
1275	715	0	10000	4	1	0	4	0
1240	716	0	10000	4	1	0	4	0
1267	717	0	10000	4	1	0	4	0
1360	718	0	10000	4	1	0	4	0
1465	719	0	10000	4	1	0	4	0
1529	720	0	10000	4	1	0	4	0
1530	721	0	10000	4	1	0	4	0
1493	722	0	10000	4	1	0	4	0
1517	723	0	10000	4	1	0	4	0
1538	724	0	10000	4	1	0	4	0
1505	725	0	10000	4	1	0	4	0
1443	726	0	10000	4	1	0	4	0
1401	727	0	10000	4	1	0	4	0
1403	728	0	10000	4	1	0	4	0
1405	729	0	10000	4	1	0	4	0
1405	730	0	10000	4	1	0	4	0
1414	731	0	10000	4	1	0	4	0
1422	732	0	10000	4	1	0	4	0
1384	733	0	10000	4	1	0	4	0
1332	734	0	10000	4	1	0	4	0
1299	735	0	10000	4	1	0	4	0
1265	736	0	10000	4	1	0	4	0
1305	737	0	10000	4	1	0	4	0
1377	738	0	10000	4	1	0	4	0
1429	739	0	10000	4	1	0	4	0
1449	740	0	10000	4	1	0	4	0
1446	741	0	10000	4	1	0	4	0
1399	742	0	10000	4	1	0	4	0
1405	743	0	10000	4	1	0	4	0
1422	744	0	10000	4	1	0	4	0
1436	745	0	10000	4	1	0	4	0
1497	746	0	10000	4	1	0	4	0
1583	747	0	10000	4	1	0	4	0
1674	748	0	10000	4	1	0	4	0
1724	749	0	10000	4	1	0	4	0
1752	750	0	10000	4	1	0	4	0
1766	751	0	10000	4	1	0	4	0
1706	752	0	10000	4	1	0	4	0
1692	753	0	10000	4	1	0	4	0
1675	754	0	10000	4	1	0	4	0
1617	755	0	10000	4	1	0	4	0
1559	756	0	10000	4	1	0	4	0
1553	757	0	10000	4	1	0	4	0
1602	758	0	10000	4	1	0	4	0
1646	759	0	10000	4	1	0	4	0
1697	760	0	10000	4	1	0	4	0
1742	761	0	10000	4	1	0	4	0
1725	762	0	10000	4	1	0	4	0
1653	763	0	10000	4	1	0	4	0
1589	764	0	10000	4	1	0	4	0
1524	765	0	10000	4	1	0	4	0
1474	766	0	10000	4	1	0	4	0
1455	767	0	10000	4	1	0	4	0
1443	768	0	10000	4	1	0	4	0
1401	769	0	10000	4	1	0	4	0
1359	770	0	10000	4	1	0	4	0
1358	771	0	10000	4	1	0	4	0
1327	772	0	10000	4	1	0	4	0
1296	773	0	10000	4	1	0	4	0
1269	774	0	10000	4	1	0	4	0
1226	775	0	10000	4	1	0	4	0
1240	776	0	10000	4	1	0	4	0
1213	777	0	10000	4	1	0	4	0
1252	778	0	10000	4	1	0	4	0
1300	779	0	10000	4	1	0	4	0
1333	780	0	10000	4	1	0	4	0
1363	781	0	10000	4	1	0	4	0
1352	782	0	10000	4	1	0	4	0
1298	783	0	10000	4	1	0	4	0
1252	784	0	10000	4	1	0	4	0
1202	785	0	10000	4	1	0	4	0
1178	786	0	10000	4	1	0	4	0
1168	787	0	10000	4	1	0	4	0
1157	788	0	10000	4	1	0	4	0
1134	789	0	10000	4	1	0	4	0
1120	790	0	10000	4	1	0	4	0
1138	791	0	10000	4	1	0	4	0
1119	792	0	10000	4	1	0	4	0
1092	793	0	10000	4	1	0	4	0
1072	794	0	10000	4	1	0	4	0
1037	795	0	10000	4	1	0	4	0
1014	796	0	10000	4	1	0	4	0
1020	797	0	10000	4	1	0	4	0
1055	798	0	10000	4	1	0	4	0
1087	799	0	10000	4	1	0	4	0
1127	800	0	10000	4	1	0	4	0
1185	801	0	10000	4	1	0	4	0
1176	802	0	10000	4	1	0	4	0
1143	803	0	10000	4	1	0	4	0
1124	804	0	10000	4	1	0	4	0
1079	805	0	10000	4	1	0	4	0
1063	806	0	10000	4	1	0	4	0
1062	807	0	10000	4	1	0	4	0
1035	808	0	10000	4	1	0	4	0
994	809	0	10000	4	1	0	4	0
957	810	0	10000	4	1	0	4	0
947	811	0	10000	4	1	0	4	0
957	812	0	10000	4	1	0	4	0
923	813	0	10000	4	1	0	4	0
880	814	0	10000	4	1	0	4	0
848	815	0	10000	4	1	0	4	0
854	816	0	10000	4	1	0	4	0
942	817	0	10000	4	1	0	4	0
1084	818	0	10000	4	1	0	4	0
1245	819	0	10000	4	1	0	4	0
1381	820	0	10000	4	1	0	4	0
1394	821	0	10000	4	1	0	4	0
1374	822	0	10000	4	1	0	4	0
1419	823	0	10000	4	1	0	4	0
1464	824	0	10000	4	1	0	4	0
1458	825	0	10000	4	1	0	4	0
1465	826	0	10000	4	1	0	4	0
1511	827	0	10000	4	1	0	4	0
1536	828	0	10000	4	1	0	4	0
1524	829	0	10000	4	1	0	4	0
1500	830	0	10000	4	1	0	4	0
1466	831	0	10000	4	1	0	4	0
1445	832	0	10000	4	1	0	4	0
1409	833	0	10000	4	1	0	4	0
1367	834	0	10000	4	1	0	4	0
1352	835	0	10000	4	1	0	4	0
1320	836	0	10000	4	1	0	4	0
1277	837	0	10000	4	1	0	4	0
1270	838	0	10000	4	1	0	4	0
1287	839	0	10000	4	1	0	4	0
1310	840	0	10000	4	1	0	4	0
1318	841	0	10000	4	1	0	4	0
1278	842	0	10000	4	1	0	4	0
1267	843	0	10000	4	1	0	4	0
1266	844	0	10000	4	1	0	4	0
1226	845	0	10000	4	1	0	4	0
1227	846	0	10000	4	1	0	4	0
1288	847	0	10000	4	1	0	4	0
1384	848	0	10000	4	1	0	4	0
1481	849	0	10000	4	1	0	4	0
1559	850	0	10000	4	1	0	4	0
1603	851	0	10000	4	1	0	4	0
1554	852	0	10000	4	1	0	4	0
1540	853	0	10000	4	1	0	4	0
1528	854	0	10000	4	1	0	4	0
1477	855	0	10000	4	1	0	4	0
1422	856	0	10000	4	1	0	4	0
1413	857	0	10000	4	1	0	4	0
1481	858	0	10000	4	1	0	4	0
1576	859	0	10000	4	1	0	4	0
1646	860	0	10000	4	1	0	4	0
1691	861	0	10000	4	1	0	4	0
1656	862	0	10000	4	1	0	4	0
1595	863	0	10000	4	1	0	4	0
1560	864	0	10000	4	1	0	4	0
1554	865	0	10000	4	1	0	4	0
1609	866	0	10000	4	1	0	4	0
1668	867	0	10000	4	1	0	4	0
1712	868	0	10000	4	1	0	4	0
1714	869	0	10000	4	1	0	4	0
1705	870	0	10000	4	1	0	4	0
1682	871	0	10000	4	1	0	4	0
1627	872	0	10000	4	1	0	4	0
1626	873	0	10000	4	1	0	4	0
1625	874	0	10000	4	1	0	4	0
1575	875	0	10000	4	1	0	4	0
1542	876	0	10000	4	1	0	4	0
1497	877	0	10000	4	1	0	4	0
1539	878	0	10000	4	1	0	4	0
1612	879	0	10000	4	1	0	4	0
1698	880	0	10000	4	1	0	4	0
1761	881	0	10000	4	1	0	4	0
1742	882	0	10000	4	1	0	4	0
1670	883	0	10000	4	1	0	4	0
1622	884	0	10000	4	1	0	4	0
1612	885	0	10000	4	1	0	4	0
1671	886	0	10000	4	1	0	4	0
1744	887	0	10000	4	1	0	4	0
1802	888	0	10000	4	1	0	4	0
1830	889	0	10000	4	1	0	4	0
1848	890	0	10000	4	1	0	4	0
1830	891	0	10000	4	1	0	4	0
1782	892	0	10000	4	1	0	4	0
1797	893	0	10000	4	1	0	4	0
1806	894	0	10000	4	1	0	4	0
1766	895	0	10000	4	1	0	4	0
1715	896	0	10000	4	1	0	4	0
1767	897	0	10000	4	1	0	4	0
1876	898	0	10000	4	1	0	4	0
1971	899	0	10000	4	1	0	4	0
2040	900	0	10000	4	1	0	4	0
2086	901	0	10000	4	1	0	4	0
2030	902	0	10000	4	1	0	4	0
1963	903	0	10000	4	1	0	4	0
1911	904	0	10000	4	1	0	4	0
1830	905	0	10000	4	1	0	4	0
1763	906	0	10000	4	1	0	4	0
1714	907	0	10000	4	1	0	4	0
1681	908	0	10000	4	1	0	4	0
1628	909	0	10000	4	1	0	4	0
1570	910	0	10000	4	1	0	4	0
1544	911	0	10000	4	1	0	4	0
1513	912	0	10000	4	1	0	4	0
1453	913	0	10000	4	1	0	4	0
1385	914	0	10000	4	1	0	4	0
1325	915	0	10000	4	1	0	4	0
1313	916	0	10000	4	1	0	4	0
1374	917	0	10000	4	1	0	4	0
1472	918	0	10000	4	1	0	4	0
1559	919	0	10000	4	1	0	4	0
1612	920	0	10000	4	1	0	4	0
1602	921	0	10000	4	1	0	4	0
1568	922	0	10000	4	1	0	4	0
1599	923	0	10000	4	1	0	4	0
1632	924	0	10000	4	1	0	4	0
1631	925	0	10000	4	1	0	4	0
1659	926	0	10000	4	1	0	4	0
1705	927	0	10000	4	1	0	4	0
1730	928	0	10000	4	1	0	4	0
1708	929	0	10000	4	1	0	4	0
1698	930	0	10000	4	1	0	4	0
1718	931	0	10000	4	1	0	4	0
1711	932	0	10000	4	1	0	4	0
1644	933	0	10000	4	1	0	4	0
1566	934	0	10000	4	1	0	4	0
1506	935	0	10000	4	1	0	4	0
1467	936	0	10000	4	1	0	4	0
1524	937	0	10000	4	1	0	4	0
1647	938	0	10000	4	1	0	4	0
1776	939	0	10000	4	1	0	4	0
1868	940	0	10000	4	1	0	4	0
1858	941	0	10000	4	1	0	4	0
1813	942	0	10000	4	1	0	4	0
1831	943	0	10000	4	1	0	4	0
1849	944	0	10000	4	1	0	4	0
1812	945	0	10000	4	1	0	4	0
1737	946	0	10000	4	1	0	4	0
1684	947	0	10000	4	1	0	4	0
1668	948	0	10000	4	1	0	4	0
1643	949	0	10000	4	1	0	4	0
1627	950	0	10000	4	1	0	4	0
1613	951	0	10000	4	1	0	4	0
1597	952	0	10000	4	1	0	4	0
1566	953	0	10000	4	1	0	4	0
1525	954	0	10000	4	1	0	4	0
1472	955	0	10000	4	1	0	4	0
1442	956	0	10000	4	1	0	4	0
1473	957	0	10000	4	1	0	4	0
1545	958	0	10000	4	1	0	4	0
1631	959	0	10000	4	1	0	4	0
1698	960	0	10000	4	1	0	4	0
1680	961	0	10000	4	1	0	4	0
1654	962	0	10000	4	1	0	4	0
1690	963	0	10000	4	1	0	4	0
1724	964	0	10000	4	1	0	4	0
1704	965	0	10000	4	1	0	4	0
1669	966	0	10000	4	1	0	4	0
1651	967	0	10000	4	1	0	4	0
1624	968	0	10000	4	1	0	4	0
1561	969	0	10000	4	1	0	4	0
1513	970	0	10000	4	1	0	4	0
1458	971	0	10000	4	1	0	4	0
1400	972	0	10000	4	1	0	4	0
1370	973	0	10000	4	1	0	4	0
1354	974	0	10000	4	1	0	4	0
1338	975	0	10000	4	1	0	4	0
1310	976	0	10000	4	1	0	4	0
1380	977	0	10000	4	1	0	4	0
1497	978	0	10000	4	1	0	4	0
1612	979	0	10000	4	1	0	4	0
1681	980	0	10000	4	1	0	4	0
1642	981	0	10000	4	1	0	4	0
1650	982	0	10000	4	1	0	4	0
1714	983	0	10000	4	1	0	4	0
1771	984	0	10000	4	1	0	4	0
1764	985	0	10000	4	1	0	4	0
1700	986	0	10000	4	1	0	4	0
1639	987	0	10000	4	1	0	4	0
1595	988	0	10000	4	1	0	4	0
1556	989	0	10000	4	1	0	4	0
1527	990	0	10000	4	1	0	4	0
1505	991	0	10000	4	1	0	4	0
1507	992	0	10000	4	1	0	4	0
1508	993	0	10000	4	1	0	4	0
1505	994	0	10000	4	1	0	4	0
1484	995	0	10000	4	1	0	4	0
1440	996	0	10000	4	1	0	4	0
1475	997	0	10000	4	1	0	4	0
1563	998	0	10000	4	1	0	4	0
1648	999	0	10000	4	1	0	4	0
1703	1000	0	10000	4	1	0	4	0
1667	1001	0	10000	4	1	0	4	0
1586	2	10	10000	5	1	0	5	0
1522	3	10	10000	5	1	0	5	0
1484	4	10	10000	5	1	0	5	0
1457	5	10	10000	5	1	0	5	0
1544	6	10	10000	5	1	0	5	0
1692	7	10	10000	5	1	0	5	0
1854	8	10	10000	5	1	0	5	0
1954	9	10	10000	5	1	0	5	0
1911	10	10	10000	5	1	0	5	0
1883	11	10	10000	5	1	0	5	0
1900	12	10	10000	5	1	0	5	0
1909	13	10	10000	5	1	0	5	0
1913	14	10	10000	5	1	0	5	0
1990	15	10	10000	5	1	0	5	0
2098	16	10	10000	5	1	0	5	0
2205	17	10	10000	5	1	0	5	0
2314	18	10	10000	5	1	0	5	0
2393	19	10	10000	5	1	0	5	0
2371	20	10	10000	5	1	0	5	0
2284	21	10	10000	5	1	0	5	0
2236	22	10	10000	5	1	0	5	0
2176	23	10	10000	5	1	0	5	0
2094	24	10	10000	5	1	0	5	0
2035	25	10	10000	5	1	0	5	0
1975	26	10	10000	5	1	0	5	0
1985	27	10	10000	5	1	0	5	0
2030	28	10	10000	5	1	0	5	0
2092	29	10	10000	5	1	0	5	0
2129	30	10	10000	5	1	0	5	0
2060	31	10	10000	5	1	0	5	0
1984	32	10	10000	5	1	0	5	0
1911	33	10	10000	5	1	0	5	0
1829	34	10	10000	5	1	0	5	0
1777	35	10	10000	5	1	0	5	0
1782	36	10	10000	5	1	0	5	0
1839	37	10	10000	5	1	0	5	0
1881	38	10	10000	5	1	0	5	0
1927	39	10	10000	5	1	0	5	0
1920	40	10	10000	5	1	0	5	0
1856	41	10	10000	5	1	0	5	0
1834	42	10	10000	5	1	0	5	0
1796	43	10	10000	5	1	0	5	0
1729	44	10	10000	5	1	0	5	0
1666	45	10	10000	5	1	0	5	0
1671	46	10	10000	5	1	0	5	0
1752	47	10	10000	5	1	0	5	0
1846	48	10	10000	5	1	0	5	0
1889	49	10	10000	5	1	0	5	0
1909	50	10	10000	5	1	0	5	0
1840	51	10	10000	5	1	0	5	0
1793	52	10	10000	5	1	0	5	0
1756	53	10	10000	5	1	0	5	0
1765	54	10	10000	5	1	0	5	0
1857	55	10	10000	5	1	0	5	0
1967	56	10	10000	5	1	0	5	0
2085	57	10	10000	5	1	0	5	0
2179	58	10	10000	5	1	0	5	0
2222	59	10	10000	5	1	0	5	0
2160	60	10	10000	5	1	0	5	0
2130	61	10	10000	5	1	0	5	0
2139	62	10	10000	5	1	0	5	0
2128	63	10	10000	5	1	0	5	0
2057	64	10	10000	5	1	0	5	0
1979	65	10	10000	5	1	0	5	0
1906	66	10	10000	5	1	0	5	0
1862	67	10	10000	5	1	0	5	0
1866	68	10	10000	5	1	0	5	0
1886	69	10	10000	5	1	0	5	0
1873	70	10	10000	5	1	0	5	0
1826	71	10	10000	5	1	0	5	0
1750	72	10	10000	5	1	0	5	0
1690	73	10	10000	5	1	0	5	0
1693	74	10	10000	5	1	0	5	0
1736	75	10	10000	5	1	0	5	0
1767	76	10	10000	5	1	0	5	0
1797	77	10	10000	5	1	0	5	0
1829	78	10	10000	5	1	0	5	0
1854	79	10	10000	5	1	0	5	0
1802	80	10	10000	5	1	0	5	0
1821	81	10	10000	5	1	0	5	0
1875	82	10	10000	5	1	0	5	0
1902	83	10	10000	5	1	0	5	0
1859	84	10	10000	5	1	0	5	0
1812	85	10	10000	5	1	0	5	0
1745	86	10	10000	5	1	0	5	0
1695	87	10	10000	5	1	0	5	0
1677	88	10	10000	5	1	0	5	0
1676	89	10	10000	5	1	0	5	0
1641	90	10	10000	5	1	0	5	0
1573	91	10	10000	5	1	0	5	0
1528	92	10	10000	5	1	0	5	0
1535	93	10	10000	5	1	0	5	0
1600	94	10	10000	5	1	0	5	0
1721	95	10	10000	5	1	0	5	0
1841	96	10	10000	5	1	0	5	0
1969	97	10	10000	5	1	0	5	0
2046	98	10	10000	5	1	0	5	0
1998	99	10	10000	5	1	0	5	0
2017	100	10	10000	5	1	0	5	0
2122	101	10	10000	5	1	0	5	0
2248	102	10	10000	5	1	0	5	0
2331	103	10	10000	5	1	0	5	0
2330	104	10	10000	5	1	0	5	0
2252	105	10	10000	5	1	0	5	0
2202	106	10	10000	5	1	0	5	0
2126	107	10	10000	5	1	0	5	0
2101	108	10	10000	5	1	0	5	0
2087	109	10	10000	5	1	0	5	0
2085	110	10	10000	5	1	0	5	0
2089	111	10	10000	5	1	0	5	0
2067	112	10	10000	5	1	0	5	0
2011	113	10	10000	5	1	0	5	0
1942	114	10	10000	5	1	0	5	0
1946	115	10	10000	5	1	0	5	0
1978	116	10	10000	5	1	0	5	0
2024	117	10	10000	5	1	0	5	0
2055	118	10	10000	5	1	0	5	0
2032	119	10	10000	5	1	0	5	0
1997	120	10	10000	5	1	0	5	0
2057	121	10	10000	5	1	0	5	0
2141	122	10	10000	5	1	0	5	0
2188	123	10	10000	5	1	0	5	0
2154	124	10	10000	5	1	0	5	0
2083	125	10	10000	5	1	0	5	0
2012	126	10	10000	5	1	0	5	0
2025	127	10	10000	5	1	0	5	0
2062	128	10	10000	5	1	0	5	0
2086	129	10	10000	5	1	0	5	0
2074	130	10	10000	5	1	0	5	0
2016	131	10	10000	5	1	0	5	0
1937	132	10	10000	5	1	0	5	0
1923	133	10	10000	5	1	0	5	0
1977	134	10	10000	5	1	0	5	0
2073	135	10	10000	5	1	0	5	0
2159	136	10	10000	5	1	0	5	0
2261	137	10	10000	5	1	0	5	0
2350	138	10	10000	5	1	0	5	0
2322	139	10	10000	5	1	0	5	0
2277	140	10	10000	5	1	0	5	0
2323	141	10	10000	5	1	0	5	0
2393	142	10	10000	5	1	0	5	0
2423	143	10	10000	5	1	0	5	0
2371	144	10	10000	5	1	0	5	0
2288	145	10	10000	5	1	0	5	0
2211	146	10	10000	5	1	0	5	0
2208	147	10	10000	5	1	0	5	0
2227	148	10	10000	5	1	0	5	0
2254	149	10	10000	5	1	0	5	0
2289	150	10	10000	5	1	0	5	0
2275	151	10	10000	5	1	0	5	0
2194	152	10	10000	5	1	0	5	0
2107	153	10	10000	5	1	0	5	0
2060	154	10	10000	5	1	0	5	0
2044	155	10	10000	5	1	0	5	0
2036	156	10	10000	5	1	0	5	0
2041	157	10	10000	5	1	0	5	0
2029	158	10	10000	5	1	0	5	0
2017	159	10	10000	5	1	0	5	0
1960	160	10	10000	5	1	0	5	0
1924	161	10	10000	5	1	0	5	0
1926	162	10	10000	5	1	0	5	0
1898	163	10	10000	5	1	0	5	0
1830	164	10	10000	5	1	0	5	0
1771	165	10	10000	5	1	0	5	0
1782	166	10	10000	5	1	0	5	0
1844	167	10	10000	5	1	0	5	0
1902	168	10	10000	5	1	0	5	0
1950	169	10	10000	5	1	0	5	0
1969	170	10	10000	5	1	0	5	0
1898	171	10	10000	5	1	0	5	0
1840	172	10	10000	5	1	0	5	0
1796	173	10	10000	5	1	0	5	0
1793	174	10	10000	5	1	0	5	0
1849	175	10	10000	5	1	0	5	0
1920	176	10	10000	5	1	0	5	0
1999	177	10	10000	5	1	0	5	0
2058	178	10	10000	5	1	0	5	0
2102	179	10	10000	5	1	0	5	0
2065	180	10	10000	5	1	0	5	0
2002	181	10	10000	5	1	0	5	0
1978	182	10	10000	5	1	0	5	0
1929	183	10	10000	5	1	0	5	0
1861	184	10	10000	5	1	0	5	0
1796	185	10	10000	5	1	0	5	0
1772	186	10	10000	5	1	0	5	0
1778	187	10	10000	5	1	0	5	0
1789	188	10	10000	5	1	0	5	0
1804	189	10	10000	5	1	0	5	0
1802	190	10	10000	5	1	0	5	0
1747	191	10	10000	5	1	0	5	0
1678	192	10	10000	5	1	0	5	0
1622	193	10	10000	5	1	0	5	0
1581	194	10	10000	5	1	0	5	0
1596	195	10	10000	5	1	0	5	0
1623	196	10	10000	5	1	0	5	0
1653	197	10	10000	5	1	0	5	0
1680	198	10	10000	5	1	0	5	0
1703	199	10	10000	5	1	0	5	0
1686	200	10	10000	5	1	0	5	0
1632	201	10	10000	5	1	0	5	0
1613	202	10	10000	5	1	0	5	0
1571	203	10	10000	5	1	0	5	0
1512	204	10	10000	5	1	0	5	0
1489	205	10	10000	5	1	0	5	0
1556	206	10	10000	5	1	0	5	0
1662	207	10	10000	5	1	0	5	0
1771	208	10	10000	5	1	0	5	0
1855	209	10	10000	5	1	0	5	0
1839	210	10	10000	5	1	0	5	0
1783	211	10	10000	5	1	0	5	0
1769	212	10	10000	5	1	0	5	0
1757	213	10	10000	5	1	0	5	0
1778	214	10	10000	5	1	0	5	0
1848	215	10	10000	5	1	0	5	0
1924	216	10	10000	5	1	0	5	0
1996	217	10	10000	5	1	0	5	0
2041	218	10	10000	5	1	0	5	0
2079	219	10	10000	5	1	0	5	0
2051	220	10	10000	5	1	0	5	0
1981	221	10	10000	5	1	0	5	0
1947	222	10	10000	5	1	0	5	0
1890	223	10	10000	5	1	0	5	0
1828	224	10	10000	5	1	0	5	0
1767	225	10	10000	5	1	0	5	0
1758	226	10	10000	5	1	0	5	0
1812	227	10	10000	5	1	0	5	0
1876	228	10	10000	5	1	0	5	0
1939	229	10	10000	5	1	0	5	0
1946	230	10	10000	5	1	0	5	0
1872	231	10	10000	5	1	0	5	0
1818	232	10	10000	5	1	0	5	0
1753	233	10	10000	5	1	0	5	0
1679	234	10	10000	5	1	0	5	0
1640	235	10	10000	5	1	0	5	0
1622	236	10	10000	5	1	0	5	0
1632	237	10	10000	5	1	0	5	0
1630	238	10	10000	5	1	0	5	0
1627	239	10	10000	5	1	0	5	0
1629	240	10	10000	5	1	0	5	0
1571	241	10	10000	5	1	0	5	0
1521	242	10	10000	5	1	0	5	0
1459	243	10	10000	5	1	0	5	0
1433	244	10	10000	5	1	0	5	0
1390	245	10	10000	5	1	0	5	0
1410	246	10	10000	5	1	0	5	0
1479	247	10	10000	5	1	0	5	0
1558	248	10	10000	5	1	0	5	0
1648	249	10	10000	5	1	0	5	0
1645	250	10	10000	5	1	0	5	0
1596	251	10	10000	5	1	0	5	0
1586	252	10	10000	5	1	0	5	0
1558	253	10	10000	5	1	0	5	0
1495	254	10	10000	5	1	0	5	0
1455	255	10	10000	5	1	0	5	0
1496	256	10	10000	5	1	0	5	0
1575	257	10	10000	5	1	0	5	0
1641	258	10	10000	5	1	0	5	0
1697	259	10	10000	5	1	0	5	0
1706	260	10	10000	5	1	0	5	0
1644	261	10	10000	5	1	0	5	0
1598	262	10	10000	5	1	0	5	0
1538	263	10	10000	5	1	0	5	0
1500	264	10	10000	5	1	0	5	0
1456	265	10	10000	5	1	0	5	0
1488	266	10	10000	5	1	0	5	0
1567	267	10	10000	5	1	0	5	0
1669	268	10	10000	5	1	0	5	0
1759	269	10	10000	5	1	0	5	0
1751	270	10	10000	5	1	0	5	0
1696	271	10	10000	5	1	0	5	0
1680	272	10	10000	5	1	0	5	0
1646	273	10	10000	5	1	0	5	0
1595	274	10	10000	5	1	0	5	0
1574	275	10	10000	5	1	0	5	0
1524	276	10	10000	5	1	0	5	0
1472	277	10	10000	5	1	0	5	0
1461	278	10	10000	5	1	0	5	0
1495	279	10	10000	5	1	0	5	0
1545	280	10	10000	5	1	0	5	0
1537	281	10	10000	5	1	0	5	0
1487	282	10	10000	5	1	0	5	0
1444	283	10	10000	5	1	0	5	0
1416	284	10	10000	5	1	0	5	0
1392	285	10	10000	5	1	0	5	0
1461	286	10	10000	5	1	0	5	0
1566	287	10	10000	5	1	0	5	0
1656	288	10	10000	5	1	0	5	0
1713	289	10	10000	5	1	0	5	0
1667	290	10	10000	5	1	0	5	0
1664	291	10	10000	5	1	0	5	0
1694	292	10	10000	5	1	0	5	0
1701	293	10	10000	5	1	0	5	0
1655	294	10	10000	5	1	0	5	0
1650	295	10	10000	5	1	0	5	0
1702	296	10	10000	5	1	0	5	0
1787	297	10	10000	5	1	0	5	0
1864	298	10	10000	5	1	0	5	0
1936	299	10	10000	5	1	0	5	0
1954	300	10	10000	5	1	0	5	0
1881	301	10	10000	5	1	0	5	0
1821	302	10	10000	5	1	0	5	0
1751	303	10	10000	5	1	0	5	0
1705	304	10	10000	5	1	0	5	0
1651	305	10	10000	5	1	0	5	0
1650	306	10	10000	5	1	0	5	0
1722	307	10	10000	5	1	0	5	0
1827	308	10	10000	5	1	0	5	0
1945	309	10	10000	5	1	0	5	0
1943	310	10	10000	5	1	0	5	0
1874	311	10	10000	5	1	0	5	0
1842	312	10	10000	5	1	0	5	0
1796	313	10	10000	5	1	0	5	0
1741	314	10	10000	5	1	0	5	0
1714	315	10	10000	5	1	0	5	0
1647	316	10	10000	5	1	0	5	0
1594	317	10	10000	5	1	0	5	0
1571	318	10	10000	5	1	0	5	0
1597	319	10	10000	5	1	0	5	0
1638	320	10	10000	5	1	0	5	0
1613	321	10	10000	5	1	0	5	0
1546	322	10	10000	5	1	0	5	0
1485	323	10	10000	5	1	0	5	0
1466	324	10	10000	5	1	0	5	0
1422	325	10	10000	5	1	0	5	0
1463	326	10	10000	5	1	0	5	0
1556	327	10	10000	5	1	0	5	0
1677	328	10	10000	5	1	0	5	0
1761	329	10	10000	5	1	0	5	0
1729	330	10	10000	5	1	0	5	0
1699	331	10	10000	5	1	0	5	0
1711	332	10	10000	5	1	0	5	0
1704	333	10	10000	5	1	0	5	0
1652	334	10	10000	5	1	0	5	0
1630	335	10	10000	5	1	0	5	0
1632	336	10	10000	5	1	0	5	0
1648	337	10	10000	5	1	0	5	0
1651	338	10	10000	5	1	0	5	0
1653	339	10	10000	5	1	0	5	0
1638	340	10	10000	5	1	0	5	0
1599	341	10	10000	5	1	0	5	0
1527	342	10	10000	5	1	0	5	0
1455	343	10	10000	5	1	0	5	0
1399	344	10	10000	5	1	0	5	0
1421	345	10	10000	5	1	0	5	0
1547	346	10	10000	5	1	0	5	0
1720	347	10	10000	5	1	0	5	0
1884	348	10	10000	5	1	0	5	0
1961	349	10	10000	5	1	0	5	0
1902	350	10	10000	5	1	0	5	0
1898	351	10	10000	5	1	0	5	0
1930	352	10	10000	5	1	0	5	0
1941	353	10	10000	5	1	0	5	0
1880	354	10	10000	5	1	0	5	0
1813	355	10	10000	5	1	0	5	0
1752	356	10	10000	5	1	0	5	0
1734	357	10	10000	5	1	0	5	0
1718	358	10	10000	5	1	0	5	0
1729	359	10	10000	5	1	0	5	0
1762	360	10	10000	5	1	0	5	0
1767	361	10	10000	5	1	0	5	0
1727	362	10	10000	5	1	0	5	0
1685	363	10	10000	5	1	0	5	0
1661	364	10	10000	5	1	0	5	0
1625	365	10	10000	5	1	0	5	0
1662	366	10	10000	5	1	0	5	0
1727	367	10	10000	5	1	0	5	0
1799	368	10	10000	5	1	0	5	0
1857	369	10	10000	5	1	0	5	0
1812	370	10	10000	5	1	0	5	0
1792	371	10	10000	5	1	0	5	0
1814	372	10	10000	5	1	0	5	0
1817	373	10	10000	5	1	0	5	0
1768	374	10	10000	5	1	0	5	0
