value	EMG	Stimulus	EMG_sensitivity	Total_Trial_Nr	practise	acq	probe_nr	Startle_Probe
30	1	7	10000	1	1	0	1	0
31	2	7	10000	1	1	0	1	0
31	3	7	10000	1	1	0	1	0
31	4	7	10000	1	1	0	1	0
31	5	7	10000	1	1	0	1	0
29	6	7	10000	1	1	0	1	0
29	7	7	10000	1	1	0	1	0
31	8	7	10000	1	1	0	1	0
30	9	7	10000	1	1	0	1	0
30	10	7	10000	1	1	0	1	0
31	11	7	10000	1	1	0	1	0
30	12	7	10000	1	1	0	1	0
29	13	7	10000	1	1	0	1	0
29	14	7	10000	1	1	0	1	0
32	15	7	10000	1	1	0	1	0
31	16	7	10000	1	1	0	1	0
32	17	7	10000	1	1	0	1	0
31	18	7	10000	1	1	0	1	0
31	19	7	10000	1	1	0	1	0
30	20	7	10000	1	1	0	1	0
31	21	7	10000	1	1	0	1	0
30	22	7	10000	1	1	0	1	0
31	23	7	10000	1	1	0	1	0
31	24	7	10000	1	1	0	1	0
28	25	7	10000	1	1	0	1	0
29	26	7	10000	1	1	0	1	0
28	27	7	10000	1	1	0	1	0
29	28	7	10000	1	1	0	1	0
29	29	7	10000	1	1	0	1	0
30	30	7	10000	1	1	0	1	0
30	31	7	10000	1	1	0	1	0
31	32	7	10000	1	1	0	1	0
30	33	7	10000	1	1	0	1	0
30	34	7	10000	1	1	0	1	0
32	35	7	10000	1	1	0	1	0
32	36	7	10000	1	1	0	1	0
31	37	7	10000	1	1	0	1	0
31	38	7	10000	1	1	0	1	0
31	39	7	10000	1	1	0	1	0
31	40	7	10000	1	1	0	1	0
30	41	7	10000	1	1	0	1	0
34	42	7	10000	1	1	0	1	0
43	43	7	10000	1	1	0	1	0
48	44	7	10000	1	1	0	1	0
49	45	7	10000	1	1	0	1	0
47	46	7	10000	1	1	0	1	0
45	47	7	10000	1	1	0	1	0
48	48	7	10000	1	1	0	1	0
50	49	7	10000	1	1	0	1	0
49	50	7	10000	1	1	0	1	0
49	51	7	10000	1	1	0	1	0
50	52	7	10000	1	1	0	1	0
52	53	7	10000	1	1	0	1	0
51	54	7	10000	1	1	0	1	0
52	55	7	10000	1	1	0	1	0
56	56	7	10000	1	1	0	1	0
68	57	7	10000	1	1	0	1	0
74	58	7	10000	1	1	0	1	0
75	59	7	10000	1	1	0	1	0
74	60	7	10000	1	1	0	1	0
80	61	7	10000	1	1	0	1	0
81	62	7	10000	1	1	0	1	0
81	63	7	10000	1	1	0	1	0
82	64	7	10000	1	1	0	1	0
80	65	7	10000	1	1	0	1	0
79	66	7	10000	1	1	0	1	0
83	67	7	10000	1	1	0	1	0
86	68	7	10000	1	1	0	1	0
93	69	7	10000	1	1	0	1	0
105	70	7	10000	1	1	0	1	0
106	71	7	10000	1	1	0	1	0
115	72	7	10000	1	1	0	1	0
121	73	7	10000	1	1	0	1	0
122	74	7	10000	1	1	0	1	0
123	75	7	10000	1	1	0	1	0
128	76	7	10000	1	1	0	1	0
135	77	7	10000	1	1	0	1	0
142	78	7	10000	1	1	0	1	0
145	79	7	10000	1	1	0	1	0
149	80	7	10000	1	1	0	1	0
150	81	7	10000	1	1	0	1	0
146	82	7	10000	1	1	0	1	0
143	83	7	10000	1	1	0	1	0
141	84	7	10000	1	1	0	1	0
139	85	7	10000	1	1	0	1	0
137	86	7	10000	1	1	0	1	0
135	87	7	10000	1	1	0	1	0
133	88	7	10000	1	1	0	1	0
128	89	7	10000	1	1	0	1	0
125	90	7	10000	1	1	0	1	0
121	91	7	10000	1	1	0	1	0
117	92	7	10000	1	1	0	1	0
115	93	7	10000	1	1	0	1	0
123	94	7	10000	1	1	0	1	0
131	95	7	10000	1	1	0	1	0
128	96	7	10000	1	1	0	1	0
124	97	7	10000	1	1	0	1	0
120	98	7	10000	1	1	0	1	0
119	99	7	10000	1	1	0	1	0
117	100	7	10000	1	1	0	1	0
117	101	7	10000	1	1	0	1	0
114	102	7	10000	1	1	0	1	0
109	103	7	10000	1	1	0	1	0
107	104	7	10000	1	1	0	1	0
106	105	7	10000	1	1	0	1	0
104	106	7	10000	1	1	0	1	0
102	107	7	10000	1	1	0	1	0
98	108	7	10000	1	1	0	1	0
96	109	7	10000	1	1	0	1	0
94	110	7	10000	1	1	0	1	0
94	111	7	10000	1	1	0	1	0
94	112	7	10000	1	1	0	1	0
93	113	7	10000	1	1	0	1	0
94	114	7	10000	1	1	0	1	0
92	115	7	10000	1	1	0	1	0
92	116	7	10000	1	1	0	1	0
89	117	7	10000	1	1	0	1	0
88	118	7	10000	1	1	0	1	0
87	119	7	10000	1	1	0	1	0
83	120	7	10000	1	1	0	1	0
80	121	7	10000	1	1	0	1	0
80	122	7	10000	1	1	0	1	0
77	123	7	10000	1	1	0	1	0
77	124	7	10000	1	1	0	1	0
75	125	7	10000	1	1	0	1	0
75	126	7	10000	1	1	0	1	0
76	127	7	10000	1	1	0	1	0
76	128	7	10000	1	1	0	1	0
78	129	7	10000	1	1	0	1	0
79	130	7	10000	1	1	0	1	0
82	131	7	10000	1	1	0	1	0
82	132	7	10000	1	1	0	1	0
83	133	7	10000	1	1	0	1	0
85	134	7	10000	1	1	0	1	0
85	135	7	10000	1	1	0	1	0
85	136	7	10000	1	1	0	1	0
81	137	7	10000	1	1	0	1	0
80	138	7	10000	1	1	0	1	0
79	139	7	10000	1	1	0	1	0
82	140	7	10000	1	1	0	1	0
83	141	7	10000	1	1	0	1	0
84	142	7	10000	1	1	0	1	0
85	143	7	10000	1	1	0	1	0
82	144	7	10000	1	1	0	1	0
79	145	7	10000	1	1	0	1	0
76	146	7	10000	1	1	0	1	0
77	147	7	10000	1	1	0	1	0
78	148	7	10000	1	1	0	1	0
80	149	7	10000	1	1	0	1	0
81	150	7	10000	1	1	0	1	0
79	151	7	10000	1	1	0	1	0
77	152	7	10000	1	1	0	1	0
76	153	7	10000	1	1	0	1	0
72	154	7	10000	1	1	0	1	0
74	155	7	10000	1	1	0	1	0
74	156	7	10000	1	1	0	1	0
73	157	7	10000	1	1	0	1	0
72	158	7	10000	1	1	0	1	0
69	159	7	10000	1	1	0	1	0
68	160	7	10000	1	1	0	1	0
66	161	7	10000	1	1	0	1	0
65	162	7	10000	1	1	0	1	0
63	163	7	10000	1	1	0	1	0
62	164	7	10000	1	1	0	1	0
60	165	7	10000	1	1	0	1	0
60	166	7	10000	1	1	0	1	0
60	167	7	10000	1	1	0	1	0
59	168	7	10000	1	1	0	1	0
60	169	7	10000	1	1	0	1	0
57	170	7	10000	1	1	0	1	0
57	171	7	10000	1	1	0	1	0
56	172	7	10000	1	1	0	1	0
54	173	7	10000	1	1	0	1	0
54	174	7	10000	1	1	0	1	0
53	175	7	10000	1	1	0	1	0
54	176	7	10000	1	1	0	1	0
54	177	7	10000	1	1	0	1	0
55	178	7	10000	1	1	0	1	0
54	179	7	10000	1	1	0	1	0
52	180	7	10000	1	1	0	1	0
52	181	7	10000	1	1	0	1	0
49	182	7	10000	1	1	0	1	0
51	183	7	10000	1	1	0	1	0
50	184	7	10000	1	1	0	1	0
49	185	7	10000	1	1	0	1	0
47	186	7	10000	1	1	0	1	0
47	187	7	10000	1	1	0	1	0
46	188	7	10000	1	1	0	1	0
45	189	7	10000	1	1	0	1	0
44	190	7	10000	1	1	0	1	0
44	191	7	10000	1	1	0	1	0
44	192	7	10000	1	1	0	1	0
44	193	7	10000	1	1	0	1	0
43	194	7	10000	1	1	0	1	0
45	195	7	10000	1	1	0	1	0
44	196	7	10000	1	1	0	1	0
45	197	7	10000	1	1	0	1	0
43	198	7	10000	1	1	0	1	0
44	199	7	10000	1	1	0	1	0
43	200	7	10000	1	1	0	1	0
44	201	7	10000	1	1	0	1	0
42	202	7	10000	1	1	0	1	0
42	203	7	10000	1	1	0	1	0
43	204	7	10000	1	1	0	1	0
39	205	7	10000	1	1	0	1	0
39	206	7	10000	1	1	0	1	0
39	207	7	10000	1	1	0	1	0
38	208	7	10000	1	1	0	1	0
38	209	7	10000	1	1	0	1	0
38	210	7	10000	1	1	0	1	0
38	211	7	10000	1	1	0	1	0
36	212	7	10000	1	1	0	1	0
37	213	7	10000	1	1	0	1	0
35	214	7	10000	1	1	0	1	0
37	215	7	10000	1	1	0	1	0
37	216	7	10000	1	1	0	1	0
37	217	7	10000	1	1	0	1	0
36	218	7	10000	1	1	0	1	0
36	219	7	10000	1	1	0	1	0
36	220	7	10000	1	1	0	1	0
34	221	7	10000	1	1	0	1	0
35	222	7	10000	1	1	0	1	0
35	223	7	10000	1	1	0	1	0
36	224	7	10000	1	1	0	1	0
33	225	7	10000	1	1	0	1	0
33	226	7	10000	1	1	0	1	0
32	227	7	10000	1	1	0	1	0
32	228	7	10000	1	1	0	1	0
32	229	7	10000	1	1	0	1	0
32	230	7	10000	1	1	0	1	0
32	231	7	10000	1	1	0	1	0
31	232	7	10000	1	1	0	1	0
31	233	7	10000	1	1	0	1	0
30	234	7	10000	1	1	0	1	0
31	235	7	10000	1	1	0	1	0
32	236	7	10000	1	1	0	1	0
32	237	7	10000	1	1	0	1	0
31	238	7	10000	1	1	0	1	0
31	239	7	10000	1	1	0	1	0
31	240	7	10000	1	1	0	1	0
30	241	7	10000	1	1	0	1	0
30	242	7	10000	1	1	0	1	0
31	243	7	10000	1	1	0	1	0
30	244	7	10000	1	1	0	1	0
30	245	7	10000	1	1	0	1	0
28	246	7	10000	1	1	0	1	0
29	247	7	10000	1	1	0	1	0
29	248	7	10000	1	1	0	1	0
29	249	7	10000	1	1	0	1	0
29	250	7	10000	1	1	0	1	0
29	251	7	10000	1	1	0	1	0
30	252	7	10000	1	1	0	1	0
29	253	7	10000	1	1	0	1	0
29	254	7	10000	1	1	0	1	0
30	255	7	10000	1	1	0	1	0
31	256	7	10000	1	1	0	1	0
32	257	7	10000	1	1	0	1	0
31	258	7	10000	1	1	0	1	0
31	259	7	10000	1	1	0	1	0
31	260	7	10000	1	1	0	1	0
31	261	7	10000	1	1	0	1	0
31	262	7	10000	1	1	0	1	0
31	263	7	10000	1	1	0	1	0
31	264	7	10000	1	1	0	1	0
29	265	7	10000	1	1	0	1	0
29	266	7	10000	1	1	0	1	0
29	267	7	10000	1	1	0	1	0
29	268	7	10000	1	1	0	1	0
29	269	7	10000	1	1	0	1	0
29	270	7	10000	1	1	0	1	0
29	271	7	10000	1	1	0	1	0
29	272	7	10000	1	1	0	1	0
29	273	7	10000	1	1	0	1	0
28	274	7	10000	1	1	0	1	0
30	275	7	10000	1	1	0	1	0
30	276	7	10000	1	1	0	1	0
32	277	7	10000	1	1	0	1	0
31	278	7	10000	1	1	0	1	0
31	279	7	10000	1	1	0	1	0
31	280	7	10000	1	1	0	1	0
32	281	7	10000	1	1	0	1	0
31	282	7	10000	1	1	0	1	0
34	283	7	10000	1	1	0	1	0
33	284	7	10000	1	1	0	1	0
31	285	7	10000	1	1	0	1	0
32	286	7	10000	1	1	0	1	0
31	287	7	10000	1	1	0	1	0
32	288	7	10000	1	1	0	1	0
32	289	7	10000	1	1	0	1	0
32	290	7	10000	1	1	0	1	0
32	291	7	10000	1	1	0	1	0
31	292	7	10000	1	1	0	1	0
31	293	7	10000	1	1	0	1	0
30	294	7	10000	1	1	0	1	0
32	295	7	10000	1	1	0	1	0
32	296	7	10000	1	1	0	1	0
30	297	7	10000	1	1	0	1	0
31	298	7	10000	1	1	0	1	0
30	299	7	10000	1	1	0	1	0
30	300	7	10000	1	1	0	1	0
29	301	7	10000	1	1	0	1	0
29	302	7	10000	1	1	0	1	0
30	303	7	10000	1	1	0	1	0
31	304	7	10000	1	1	0	1	0
29	305	7	10000	1	1	0	1	0
29	306	7	10000	1	1	0	1	0
29	307	7	10000	1	1	0	1	0
30	308	7	10000	1	1	0	1	0
31	309	7	10000	1	1	0	1	0
30	310	7	10000	1	1	0	1	0
30	311	7	10000	1	1	0	1	0
30	312	7	10000	1	1	0	1	0
29	313	7	10000	1	1	0	1	0
30	314	7	10000	1	1	0	1	0
31	315	7	10000	1	1	0	1	0
31	316	7	10000	1	1	0	1	0
29	317	7	10000	1	1	0	1	0
31	318	7	10000	1	1	0	1	0
29	319	7	10000	1	1	0	1	0
29	320	7	10000	1	1	0	1	0
30	321	7	10000	1	1	0	1	0
29	322	7	10000	1	1	0	1	0
30	323	7	10000	1	1	0	1	0
30	324	7	10000	1	1	0	1	0
29	325	7	10000	1	1	0	1	0
28	326	7	10000	1	1	0	1	0
28	327	7	10000	1	1	0	1	0
28	328	7	10000	1	1	0	1	0
29	329	7	10000	1	1	0	1	0
30	330	7	10000	1	1	0	1	0
29	331	7	10000	1	1	0	1	0
29	332	7	10000	1	1	0	1	0
29	333	7	10000	1	1	0	1	0
28	334	7	10000	1	1	0	1	0
30	335	7	10000	1	1	0	1	0
29	336	7	10000	1	1	0	1	0
30	337	7	10000	1	1	0	1	0
28	338	7	10000	1	1	0	1	0
29	339	7	10000	1	1	0	1	0
28	340	7	10000	1	1	0	1	0
27	341	7	10000	1	1	0	1	0
28	342	7	10000	1	1	0	1	0
27	343	7	10000	1	1	0	1	0
30	344	7	10000	1	1	0	1	0
30	345	7	10000	1	1	0	1	0
32	346	7	10000	1	1	0	1	0
34	347	7	10000	1	1	0	1	0
38	348	7	10000	1	1	0	1	0
40	349	7	10000	1	1	0	1	0
39	350	7	10000	1	1	0	1	0
40	351	7	10000	1	1	0	1	0
40	352	7	10000	1	1	0	1	0
39	353	7	10000	1	1	0	1	0
39	354	7	10000	1	1	0	1	0
41	355	7	10000	1	1	0	1	0
40	356	7	10000	1	1	0	1	0
39	357	7	10000	1	1	0	1	0
40	358	7	10000	1	1	0	1	0
39	359	7	10000	1	1	0	1	0
41	360	7	10000	1	1	0	1	0
41	361	7	10000	1	1	0	1	0
45	362	7	10000	1	1	0	1	0
47	363	7	10000	1	1	0	1	0
51	364	7	10000	1	1	0	1	0
53	365	7	10000	1	1	0	1	0
54	366	7	10000	1	1	0	1	0
56	367	7	10000	1	1	0	1	0
55	368	7	10000	1	1	0	1	0
54	369	7	10000	1	1	0	1	0
53	370	7	10000	1	1	0	1	0
53	371	7	10000	1	1	0	1	0
52	372	7	10000	1	1	0	1	0
51	373	7	10000	1	1	0	1	0
52	374	7	10000	1	1	0	1	0
52	375	7	10000	1	1	0	1	0
53	376	7	10000	1	1	0	1	0
50	377	7	10000	1	1	0	1	0
50	378	7	10000	1	1	0	1	0
49	379	7	10000	1	1	0	1	0
49	380	7	10000	1	1	0	1	0
49	381	7	10000	1	1	0	1	0
48	382	7	10000	1	1	0	1	0
47	383	7	10000	1	1	0	1	0
48	384	7	10000	1	1	0	1	0
46	385	7	10000	1	1	0	1	0
47	386	7	10000	1	1	0	1	0
47	387	7	10000	1	1	0	1	0
49	388	7	10000	1	1	0	1	0
49	389	7	10000	1	1	0	1	0
49	390	7	10000	1	1	0	1	0
52	391	7	10000	1	1	0	1	0
51	392	7	10000	1	1	0	1	0
52	393	7	10000	1	1	0	1	0
52	394	7	10000	1	1	0	1	0
55	395	7	10000	1	1	0	1	0
56	396	7	10000	1	1	0	1	0
56	397	7	10000	1	1	0	1	0
57	398	7	10000	1	1	0	1	0
57	399	7	10000	1	1	0	1	0
61	400	7	10000	1	1	0	1	0
61	401	7	10000	1	1	0	1	0
61	402	7	10000	1	1	0	1	0
63	403	7	10000	1	1	0	1	0
64	404	7	10000	1	1	0	1	0
63	405	7	10000	1	1	0	1	0
64	406	7	10000	1	1	0	1	0
66	407	7	10000	1	1	0	1	0
65	408	7	10000	1	1	0	1	0
67	409	7	10000	1	1	0	1	0
67	410	7	10000	1	1	0	1	0
66	411	7	10000	1	1	0	1	0
67	412	7	10000	1	1	0	1	0
64	413	7	10000	1	1	0	1	0
63	414	7	10000	1	1	0	1	0
63	415	7	10000	1	1	0	1	0
63	416	7	10000	1	1	0	1	0
61	417	7	10000	1	1	0	1	0
60	418	7	10000	1	1	0	1	0
59	419	7	10000	1	1	0	1	0
58	420	7	10000	1	1	0	1	0
58	421	7	10000	1	1	0	1	0
56	422	7	10000	1	1	0	1	0
56	423	7	10000	1	1	0	1	0
56	424	7	10000	1	1	0	1	0
55	425	7	10000	1	1	0	1	0
53	426	7	10000	1	1	0	1	0
53	427	7	10000	1	1	0	1	0
53	428	7	10000	1	1	0	1	0
52	429	7	10000	1	1	0	1	0
53	430	7	10000	1	1	0	1	0
52	431	7	10000	1	1	0	1	0
51	432	7	10000	1	1	0	1	0
51	433	7	10000	1	1	0	1	0
49	434	7	10000	1	1	0	1	0
49	435	7	10000	1	1	0	1	0
49	436	7	10000	1	1	0	1	0
46	437	7	10000	1	1	0	1	0
47	438	7	10000	1	1	0	1	0
45	439	7	10000	1	1	0	1	0
44	440	7	10000	1	1	0	1	0
45	441	7	10000	1	1	0	1	0
44	442	7	10000	1	1	0	1	0
44	443	7	10000	1	1	0	1	0
45	444	7	10000	1	1	0	1	0
42	445	7	10000	1	1	0	1	0
41	446	7	10000	1	1	0	1	0
42	447	7	10000	1	1	0	1	0
41	448	7	10000	1	1	0	1	0
42	449	7	10000	1	1	0	1	0
40	450	7	10000	1	1	0	1	0
40	451	7	10000	1	1	0	1	0
40	452	7	10000	1	1	0	1	0
39	453	7	10000	1	1	0	1	0
38	454	7	10000	1	1	0	1	0
38	455	7	10000	1	1	0	1	0
39	456	7	10000	1	1	0	1	0
38	457	7	10000	1	1	0	1	0
38	458	7	10000	1	1	0	1	0
37	459	7	10000	1	1	0	1	0
36	460	7	10000	1	1	0	1	0
36	461	7	10000	1	1	0	1	0
35	462	7	10000	1	1	0	1	0
36	463	7	10000	1	1	0	1	0
35	464	7	10000	1	1	0	1	0
34	465	7	10000	1	1	0	1	0
32	466	7	10000	1	1	0	1	0
33	467	7	10000	1	1	0	1	0
32	468	7	10000	1	1	0	1	0
33	469	7	10000	1	1	0	1	0
33	470	7	10000	1	1	0	1	0
33	471	7	10000	1	1	0	1	0
33	472	7	10000	1	1	0	1	0
33	473	7	10000	1	1	0	1	0
32	474	7	10000	1	1	0	1	0
33	475	7	10000	1	1	0	1	0
33	476	7	10000	1	1	0	1	0
32	477	7	10000	1	1	0	1	0
31	478	7	10000	1	1	0	1	0
32	479	7	10000	1	1	0	1	0
31	480	7	10000	1	1	0	1	0
31	481	7	10000	1	1	0	1	0
32	482	7	10000	1	1	0	1	0
32	483	7	10000	1	1	0	1	0
33	484	7	10000	1	1	0	1	0
31	485	7	10000	1	1	0	1	0
30	486	7	10000	1	1	0	1	0
30	487	7	10000	1	1	0	1	0
31	488	7	10000	1	1	0	1	0
30	489	7	10000	1	1	0	1	0
29	490	7	10000	1	1	0	1	0
30	491	7	10000	1	1	0	1	0
29	492	7	10000	1	1	0	1	0
30	493	7	10000	1	1	0	1	0
28	494	7	10000	1	1	0	1	0
30	495	7	10000	1	1	0	1	0
30	496	7	10000	1	1	0	1	0
29	497	7	10000	1	1	0	1	0
29	498	7	10000	1	1	0	1	0
29	499	7	10000	1	1	0	1	0
29	500	7	10000	1	1	0	1	0
28	542	7	10000	1	1	0	1	1
29	543	7	10000	1	1	0	1	1
29	544	7	10000	1	1	0	1	1
30	545	7	10000	1	1	0	1	1
28	546	7	10000	1	1	0	1	1
28	547	7	10000	1	1	0	1	1
28	548	7	10000	1	1	0	1	1
29	549	7	10000	1	1	0	1	1
29	550	7	10000	1	1	0	1	1
29	551	7	10000	1	1	0	1	1
29	552	7	10000	1	1	0	1	1
28	553	7	10000	1	1	0	1	1
27	554	7	10000	1	1	0	1	1
28	555	7	10000	1	1	0	1	1
29	556	7	10000	1	1	0	1	1
29	557	7	10000	1	1	0	1	1
29	558	7	10000	1	1	0	1	1
29	559	7	10000	1	1	0	1	1
29	560	7	10000	1	1	0	1	1
29	561	7	10000	1	1	0	1	1
28	562	7	10000	1	1	0	1	1
30	563	7	10000	1	1	0	1	1
31	564	7	10000	1	1	0	1	1
30	565	7	10000	1	1	0	1	1
29	566	7	10000	1	1	0	1	1
29	567	7	10000	1	1	0	1	1
28	568	7	10000	1	1	0	1	1
28	569	7	10000	1	1	0	1	1
30	570	7	10000	1	1	0	1	1
29	571	7	10000	1	1	0	1	1
29	572	7	10000	1	1	0	1	1
29	573	7	10000	1	1	0	1	1
28	574	7	10000	1	1	0	1	1
28	575	7	10000	1	1	0	1	1
29	576	7	10000	1	1	0	1	1
29	577	7	10000	1	1	0	1	1
29	578	7	10000	1	1	0	1	1
28	579	7	10000	1	1	0	1	1
28	580	7	10000	1	1	0	1	1
28	581	7	10000	1	1	0	1	1
29	582	7	10000	1	1	0	1	1
29	583	7	10000	1	1	0	1	1
29	584	7	10000	1	1	0	1	1
30	585	7	10000	1	1	0	1	1
28	546	7	10000	1	1	0	1	1
29	547	7	10000	1	1	0	1	1
28	548	7	10000	1	1	0	1	1
28	549	7	10000	1	1	0	1	1
29	549	7	10000	1	1	0	1	1
29	550	7	10000	1	1	0	1	1
29	551	7	10000	1	1	0	1	0
30	552	7	10000	1	1	0	1	0
29	553	7	10000	1	1	0	1	0
28	554	7	10000	1	1	0	1	0
31	555	7	10000	1	1	0	1	0
31	556	7	10000	1	1	0	1	0
31	557	7	10000	1	1	0	1	0
32	558	7	10000	1	1	0	1	0
31	559	7	10000	1	1	0	1	0
31	560	7	10000	1	1	0	1	0
32	561	7	10000	1	1	0	1	0
32	562	7	10000	1	1	0	1	0
32	563	7	10000	1	1	0	1	0
33	564	7	10000	1	1	0	1	0
31	565	7	10000	1	1	0	1	0
30	566	7	10000	1	1	0	1	0
30	567	7	10000	1	1	0	1	0
30	568	7	10000	1	1	0	1	0
31	569	7	10000	1	1	0	1	0
31	570	7	10000	1	1	0	1	0
32	571	7	10000	1	1	0	1	0
31	572	7	10000	1	1	0	1	0
30	573	7	10000	1	1	0	1	0
31	574	7	10000	1	1	0	1	0
31	575	7	10000	1	1	0	1	0
32	576	7	10000	1	1	0	1	0
30	577	7	10000	1	1	0	1	0
31	578	7	10000	1	1	0	1	0
30	579	7	10000	1	1	0	1	0
30	580	7	10000	1	1	0	1	0
30	581	7	10000	1	1	0	1	0
30	582	7	10000	1	1	0	1	0
30	583	7	10000	1	1	0	1	0
29	584	7	10000	1	1	0	1	0
28	585	7	10000	1	1	0	1	0
28	586	7	10000	1	1	0	1	0
28	587	7	10000	1	1	0	1	0
28	588	7	10000	1	1	0	1	0
28	589	7	10000	1	1	0	1	0
28	590	7	10000	1	1	0	1	0
29	591	7	10000	1	1	0	1	0
28	592	7	10000	1	1	0	1	0
28	593	7	10000	1	1	0	1	0
26	594	7	10000	1	1	0	1	0
30	595	7	10000	1	1	0	1	0
29	596	7	10000	1	1	0	1	0
30	597	7	10000	1	1	0	1	0
29	598	7	10000	1	1	0	1	0
30	599	7	10000	1	1	0	1	0
29	600	7	10000	1	1	0	1	0
29	601	7	10000	1	1	0	1	0
30	602	7	10000	1	1	0	1	0
31	603	7	10000	1	1	0	1	0
32	604	7	10000	1	1	0	1	0
30	605	7	10000	1	1	0	1	0
29	606	7	10000	1	1	0	1	0
29	607	7	10000	1	1	0	1	0
29	608	7	10000	1	1	0	1	0
29	609	7	10000	1	1	0	1	0
29	610	7	10000	1	1	0	1	0
30	611	7	10000	1	1	0	1	0
30	612	7	10000	1	1	0	1	0
29	613	7	10000	1	1	0	1	0
28	614	7	10000	1	1	0	1	0
30	615	7	10000	1	1	0	1	0
30	616	7	10000	1	1	0	1	0
29	617	7	10000	1	1	0	1	0
30	618	7	10000	1	1	0	1	0
28	619	7	10000	1	1	0	1	0
29	620	7	10000	1	1	0	1	0
28	621	7	10000	1	1	0	1	0
30	622	7	10000	1	1	0	1	0
30	623	7	10000	1	1	0	1	0
30	624	7	10000	1	1	0	1	0
34	625	7	10000	1	1	0	1	0
36	626	7	10000	1	1	0	1	0
44	627	7	10000	1	1	0	1	0
77	628	7	10000	1	1	0	1	0
113	629	7	10000	1	1	0	1	0
119	630	7	10000	1	1	0	1	0
143	631	7	10000	1	1	0	1	0
154	632	7	10000	1	1	0	1	0
177	633	7	10000	1	1	0	1	0
228	634	7	10000	1	1	0	1	0
254	635	7	10000	1	1	0	1	0
303	636	7	10000	1	1	0	1	0
407	637	7	10000	1	1	0	1	0
531	638	7	10000	1	1	0	1	0
551	639	7	10000	1	1	0	1	0
593	640	7	10000	1	1	0	1	0
696	641	7	10000	1	1	0	1	0
773	642	7	10000	1	1	0	1	0
782	643	7	10000	1	1	0	1	0
797	644	7	10000	1	1	0	1	0
765	645	7	10000	1	1	0	1	0
804	646	7	10000	1	1	0	1	0
813	647	7	10000	1	1	0	1	0
915	648	7	10000	1	1	0	1	0
1027	649	7	10000	1	1	0	1	0
999	650	7	10000	1	1	0	1	0
961	651	7	10000	1	1	0	1	0
935	652	7	10000	1	1	0	1	0
1002	653	7	10000	1	1	0	1	0
1026	654	7	10000	1	1	0	1	0
1069	655	7	10000	1	1	0	1	0
1154	656	7	10000	1	1	0	1	0
1161	657	7	10000	1	1	0	1	0
1129	658	7	10000	1	1	0	1	0
1141	659	7	10000	1	1	0	1	0
1183	660	7	10000	1	1	0	1	0
1233	661	7	10000	1	1	0	1	0
1230	662	7	10000	1	1	0	1	0
1182	663	7	10000	1	1	0	1	0
1178	664	7	10000	1	1	0	1	0
1181	665	7	10000	1	1	0	1	0
1160	666	7	10000	1	1	0	1	0
1140	667	7	10000	1	1	0	1	0
1119	668	7	10000	1	1	0	1	0
1116	669	7	10000	1	1	0	1	0
1126	670	7	10000	1	1	0	1	0
1141	671	7	10000	1	1	0	1	0
1191	672	7	10000	1	1	0	1	0
1236	673	7	10000	1	1	0	1	0
1222	674	7	10000	1	1	0	1	0
1178	675	7	10000	1	1	0	1	0
1146	676	7	10000	1	1	0	1	0
1123	677	7	10000	1	1	0	1	0
1109	678	7	10000	1	1	0	1	0
1094	679	7	10000	1	1	0	1	0
1089	680	7	10000	1	1	0	1	0
1086	681	7	10000	1	1	0	1	0
1083	682	7	10000	1	1	0	1	0
1100	683	7	10000	1	1	0	1	0
1120	684	7	10000	1	1	0	1	0
1081	685	7	10000	1	1	0	1	0
1049	686	7	10000	1	1	0	1	0
1064	687	7	10000	1	1	0	1	0
1036	688	7	10000	1	1	0	1	0
1035	689	7	10000	1	1	0	1	0
1016	690	7	10000	1	1	0	1	0
984	691	7	10000	1	1	0	1	0
1040	692	7	10000	1	1	0	1	0
1051	693	7	10000	1	1	0	1	0
1132	694	7	10000	1	1	0	1	0
1221	695	7	10000	1	1	0	1	0
1231	696	7	10000	1	1	0	1	0
1200	697	7	10000	1	1	0	1	0
1155	698	7	10000	1	1	0	1	0
1107	699	7	10000	1	1	0	1	0
1078	700	7	10000	1	1	0	1	0
1082	701	7	10000	1	1	0	1	0
1051	702	7	10000	1	1	0	1	0
1030	703	7	10000	1	1	0	1	0
993	704	7	10000	1	1	0	1	0
952	705	7	10000	1	1	0	1	0
944	706	7	10000	1	1	0	1	0
923	707	7	10000	1	1	0	1	0
905	708	7	10000	1	1	0	1	0
868	709	7	10000	1	1	0	1	0
888	710	7	10000	1	1	0	1	0
880	711	7	10000	1	1	0	1	0
863	712	7	10000	1	1	0	1	0
841	713	7	10000	1	1	0	1	0
818	714	7	10000	1	1	0	1	0
804	715	7	10000	1	1	0	1	0
805	716	7	10000	1	1	0	1	0
778	717	7	10000	1	1	0	1	0
755	718	7	10000	1	1	0	1	0
780	719	7	10000	1	1	0	1	0
970	720	7	10000	1	1	0	1	0
1080	721	7	10000	1	1	0	1	0
1054	722	7	10000	1	1	0	1	0
1047	723	7	10000	1	1	0	1	0
1031	724	7	10000	1	1	0	1	0
999	725	7	10000	1	1	0	1	0
968	726	7	10000	1	1	0	1	0
939	727	7	10000	1	1	0	1	0
930	728	7	10000	1	1	0	1	0
915	729	7	10000	1	1	0	1	0
886	730	7	10000	1	1	0	1	0
888	731	7	10000	1	1	0	1	0
894	732	7	10000	1	1	0	1	0
914	733	7	10000	1	1	0	1	0
922	734	7	10000	1	1	0	1	0
927	735	7	10000	1	1	0	1	0
928	736	7	10000	1	1	0	1	0
926	737	7	10000	1	1	0	1	0
936	738	7	10000	1	1	0	1	0
950	739	7	10000	1	1	0	1	0
963	740	7	10000	1	1	0	1	0
970	741	7	10000	1	1	0	1	0
977	742	7	10000	1	1	0	1	0
979	743	7	10000	1	1	0	1	0
970	744	7	10000	1	1	0	1	0
954	745	7	10000	1	1	0	1	0
934	746	7	10000	1	1	0	1	0
913	747	7	10000	1	1	0	1	0
886	748	7	10000	1	1	0	1	0
859	749	7	10000	1	1	0	1	0
829	750	7	10000	1	1	0	1	0
792	751	7	10000	1	1	0	1	0
756	752	7	10000	1	1	0	1	0
729	753	7	10000	1	1	0	1	0
704	754	7	10000	1	1	0	1	0
687	755	7	10000	1	1	0	1	0
672	756	7	10000	1	1	0	1	0
661	757	7	10000	1	1	0	1	0
654	758	7	10000	1	1	0	1	0
650	759	7	10000	1	1	0	1	0
654	760	7	10000	1	1	0	1	0
660	761	7	10000	1	1	0	1	0
678	762	7	10000	1	1	0	1	0
698	763	7	10000	1	1	0	1	0
722	764	7	10000	1	1	0	1	0
746	765	7	10000	1	1	0	1	0
774	766	7	10000	1	1	0	1	0
803	767	7	10000	1	1	0	1	0
831	768	7	10000	1	1	0	1	0
860	769	7	10000	1	1	0	1	0
888	770	7	10000	1	1	0	1	0
917	771	7	10000	1	1	0	1	0
945	772	7	10000	1	1	0	1	0
967	773	7	10000	1	1	0	1	0
987	774	7	10000	1	1	0	1	0
1003	775	7	10000	1	1	0	1	0
1017	776	7	10000	1	1	0	1	0
1023	777	7	10000	1	1	0	1	0
1030	778	7	10000	1	1	0	1	0
1034	779	7	10000	1	1	0	1	0
1034	780	7	10000	1	1	0	1	0
1033	781	7	10000	1	1	0	1	0
1028	782	7	10000	1	1	0	1	0
1023	783	7	10000	1	1	0	1	0
1014	784	7	10000	1	1	0	1	0
1003	785	7	10000	1	1	0	1	0
990	786	7	10000	1	1	0	1	0
974	787	7	10000	1	1	0	1	0
957	788	7	10000	1	1	0	1	0
938	789	7	10000	1	1	0	1	0
920	790	7	10000	1	1	0	1	0
896	791	7	10000	1	1	0	1	0
873	792	7	10000	1	1	0	1	0
847	793	7	10000	1	1	0	1	0
821	794	7	10000	1	1	0	1	0
794	795	7	10000	1	1	0	1	0
759	796	7	10000	1	1	0	1	0
723	797	7	10000	1	1	0	1	0
696	798	7	10000	1	1	0	1	0
669	799	7	10000	1	1	0	1	0
646	800	7	10000	1	1	0	1	0
625	801	7	10000	1	1	0	1	0
606	802	7	10000	1	1	0	1	0
591	803	7	10000	1	1	0	1	0
576	804	7	10000	1	1	0	1	0
561	805	7	10000	1	1	0	1	0
545	806	7	10000	1	1	0	1	0
534	807	7	10000	1	1	0	1	0
518	808	7	10000	1	1	0	1	0
506	809	7	10000	1	1	0	1	0
497	810	7	10000	1	1	0	1	0
486	811	7	10000	1	1	0	1	0
476	812	7	10000	1	1	0	1	0
466	813	7	10000	1	1	0	1	0
466	814	7	10000	1	1	0	1	0
471	815	7	10000	1	1	0	1	0
470	816	7	10000	1	1	0	1	0
464	817	7	10000	1	1	0	1	0
461	818	7	10000	1	1	0	1	0
463	819	7	10000	1	1	0	1	0
465	820	7	10000	1	1	0	1	0
468	821	7	10000	1	1	0	1	0
468	822	7	10000	1	1	0	1	0
470	823	7	10000	1	1	0	1	0
470	824	7	10000	1	1	0	1	0
466	825	7	10000	1	1	0	1	0
465	826	7	10000	1	1	0	1	0
461	827	7	10000	1	1	0	1	0
461	828	7	10000	1	1	0	1	0
456	829	7	10000	1	1	0	1	0
452	830	7	10000	1	1	0	1	0
446	831	7	10000	1	1	0	1	0
442	832	7	10000	1	1	0	1	0
444	833	7	10000	1	1	0	1	0
444	834	7	10000	1	1	0	1	0
446	835	7	10000	1	1	0	1	0
444	836	7	10000	1	1	0	1	0
445	837	7	10000	1	1	0	1	0
446	838	7	10000	1	1	0	1	0
449	839	7	10000	1	1	0	1	0
450	840	7	10000	1	1	0	1	0
450	841	7	10000	1	1	0	1	0
451	842	7	10000	1	1	0	1	0
447	843	7	10000	1	1	0	1	0
445	844	7	10000	1	1	0	1	0
438	845	7	10000	1	1	0	1	0
429	846	7	10000	1	1	0	1	0
422	847	7	10000	1	1	0	1	0
417	848	7	10000	1	1	0	1	0
413	849	7	10000	1	1	0	1	0
402	850	7	10000	1	1	0	1	0
393	851	7	10000	1	1	0	1	0
387	852	7	10000	1	1	0	1	0
379	853	7	10000	1	1	0	1	0
366	854	7	10000	1	1	0	1	0
354	855	7	10000	1	1	0	1	0
344	856	7	10000	1	1	0	1	0
334	857	7	10000	1	1	0	1	0
329	858	7	10000	1	1	0	1	0
322	859	7	10000	1	1	0	1	0
319	860	7	10000	1	1	0	1	0
315	861	7	10000	1	1	0	1	0
312	862	7	10000	1	1	0	1	0
309	863	7	10000	1	1	0	1	0
303	864	7	10000	1	1	0	1	0
296	865	7	10000	1	1	0	1	0
287	866	7	10000	1	1	0	1	0
282	867	7	10000	1	1	0	1	0
275	868	7	10000	1	1	0	1	0
268	869	7	10000	1	1	0	1	0
264	870	7	10000	1	1	0	1	0
265	871	7	10000	1	1	0	1	0
274	872	7	10000	1	1	0	1	0
269	873	7	10000	1	1	0	1	0
257	874	7	10000	1	1	0	1	0
249	875	7	10000	1	1	0	1	0
243	876	7	10000	1	1	0	1	0
237	877	7	10000	1	1	0	1	0
227	878	7	10000	1	1	0	1	0
232	879	7	10000	1	1	0	1	0
235	880	7	10000	1	1	0	1	0
226	881	7	10000	1	1	0	1	0
217	882	7	10000	1	1	0	1	0
213	883	7	10000	1	1	0	1	0
208	884	7	10000	1	1	0	1	0
200	885	7	10000	1	1	0	1	0
198	886	7	10000	1	1	0	1	0
191	887	7	10000	1	1	0	1	0
186	888	7	10000	1	1	0	1	0
178	889	7	10000	1	1	0	1	0
172	890	7	10000	1	1	0	1	0
167	891	7	10000	1	1	0	1	0
160	892	7	10000	1	1	0	1	0
155	893	7	10000	1	1	0	1	0
150	894	7	10000	1	1	0	1	0
150	895	7	10000	1	1	0	1	0
147	896	7	10000	1	1	0	1	0
148	897	7	10000	1	1	0	1	0
149	898	7	10000	1	1	0	1	0
153	899	7	10000	1	1	0	1	0
157	900	7	10000	1	1	0	1	0
158	901	7	10000	1	1	0	1	0
158	902	7	10000	1	1	0	1	0
154	903	7	10000	1	1	0	1	0
150	904	7	10000	1	1	0	1	0
143	905	7	10000	1	1	0	1	0
138	906	7	10000	1	1	0	1	0
133	907	7	10000	1	1	0	1	0
129	908	7	10000	1	1	0	1	0
124	909	7	10000	1	1	0	1	0
118	910	7	10000	1	1	0	1	0
116	911	7	10000	1	1	0	1	0
111	912	7	10000	1	1	0	1	0
107	913	7	10000	1	1	0	1	0
104	914	7	10000	1	1	0	1	0
102	915	7	10000	1	1	0	1	0
99	916	7	10000	1	1	0	1	0
98	917	7	10000	1	1	0	1	0
105	918	7	10000	1	1	0	1	0
106	919	7	10000	1	1	0	1	0
104	920	7	10000	1	1	0	1	0
102	921	7	10000	1	1	0	1	0
97	922	7	10000	1	1	0	1	0
94	923	7	10000	1	1	0	1	0
92	924	7	10000	1	1	0	1	0
87	925	7	10000	1	1	0	1	0
83	926	7	10000	1	1	0	1	0
82	927	7	10000	1	1	0	1	0
81	928	7	10000	1	1	0	1	0
84	929	7	10000	1	1	0	1	0
85	930	7	10000	1	1	0	1	0
85	931	7	10000	1	1	0	1	0
82	932	7	10000	1	1	0	1	0
80	933	7	10000	1	1	0	1	0
77	934	7	10000	1	1	0	1	0
76	935	7	10000	1	1	0	1	0
75	936	7	10000	1	1	0	1	0
72	937	7	10000	1	1	0	1	0
69	938	7	10000	1	1	0	1	0
70	939	7	10000	1	1	0	1	0
67	940	7	10000	1	1	0	1	0
66	941	7	10000	1	1	0	1	0
66	942	7	10000	1	1	0	1	0
65	943	7	10000	1	1	0	1	0
63	944	7	10000	1	1	0	1	0
60	945	7	10000	1	1	0	1	0
58	946	7	10000	1	1	0	1	0
57	947	7	10000	1	1	0	1	0
56	948	7	10000	1	1	0	1	0
55	949	7	10000	1	1	0	1	0
55	950	7	10000	1	1	0	1	0
56	951	7	10000	1	1	0	1	0
56	952	7	10000	1	1	0	1	0
54	953	7	10000	1	1	0	1	0
52	954	7	10000	1	1	0	1	0
53	955	7	10000	1	1	0	1	0
52	956	7	10000	1	1	0	1	0
52	957	7	10000	1	1	0	1	0
53	958	7	10000	1	1	0	1	0
54	959	7	10000	1	1	0	1	0
56	960	7	10000	1	1	0	1	0
56	961	7	10000	1	1	0	1	0
60	962	7	10000	1	1	0	1	0
59	963	7	10000	1	1	0	1	0
60	964	7	10000	1	1	0	1	0
58	965	7	10000	1	1	0	1	0
55	966	7	10000	1	1	0	1	0
54	967	7	10000	1	1	0	1	0
55	968	7	10000	1	1	0	1	0
52	969	7	10000	1	1	0	1	0
52	970	7	10000	1	1	0	1	0
51	971	7	10000	1	1	0	1	0
50	972	7	10000	1	1	0	1	0
50	973	7	10000	1	1	0	1	0
47	974	7	10000	1	1	0	1	0
48	975	7	10000	1	1	0	1	0
50	976	7	10000	1	1	0	1	0
50	977	7	10000	1	1	0	1	0
51	978	7	10000	1	1	0	1	0
48	979	7	10000	1	1	0	1	0
48	980	7	10000	1	1	0	1	0
47	981	7	10000	1	1	0	1	0
46	982	7	10000	1	1	0	1	0
47	983	7	10000	1	1	0	1	0
45	984	7	10000	1	1	0	1	0
44	985	7	10000	1	1	0	1	0
44	986	7	10000	1	1	0	1	0
43	987	7	10000	1	1	0	1	0
44	988	7	10000	1	1	0	1	0
47	989	7	10000	1	1	0	1	0
48	990	7	10000	1	1	0	1	0
49	991	7	10000	1	1	0	1	0
48	992	7	10000	1	1	0	1	0
47	993	7	10000	1	1	0	1	0
45	994	7	10000	1	1	0	1	0
45	995	7	10000	1	1	0	1	0
46	996	7	10000	1	1	0	1	0
45	997	7	10000	1	1	0	1	0
47	998	7	10000	1	1	0	1	0
52	999	7	10000	1	1	0	1	0
52	1000	7	10000	1	1	0	1	0
30	1	7	10000	2	1	0	2	0
29	2	7	10000	2	1	0	2	0
29	3	7	10000	2	1	0	2	0
31	4	7	10000	2	1	0	2	0
31	5	7	10000	2	1	0	2	0
32	6	7	10000	2	1	0	2	0
29	7	7	10000	2	1	0	2	0
29	8	7	10000	2	1	0	2	0
30	9	7	10000	2	1	0	2	0
29	10	7	10000	2	1	0	2	0
30	11	7	10000	2	1	0	2	0
30	12	7	10000	2	1	0	2	0
30	13	7	10000	2	1	0	2	0
30	14	7	10000	2	1	0	2	0
30	15	7	10000	2	1	0	2	0
31	16	7	10000	2	1	0	2	0
33	17	7	10000	2	1	0	2	0
35	18	7	10000	2	1	0	2	0
35	19	7	10000	2	1	0	2	0
37	20	7	10000	2	1	0	2	0
38	21	7	10000	2	1	0	2	0
38	22	7	10000	2	1	0	2	0
39	23	7	10000	2	1	0	2	0
39	24	7	10000	2	1	0	2	0
39	25	7	10000	2	1	0	2	0
38	26	7	10000	2	1	0	2	0
35	27	7	10000	2	1	0	2	0
35	28	7	10000	2	1	0	2	0
35	29	7	10000	2	1	0	2	0
35	30	7	10000	2	1	0	2	0
36	31	7	10000	2	1	0	2	0
36	32	7	10000	2	1	0	2	0
36	33	7	10000	2	1	0	2	0
35	34	7	10000	2	1	0	2	0
34	35	7	10000	2	1	0	2	0
34	36	7	10000	2	1	0	2	0
36	37	7	10000	2	1	0	2	0
36	38	7	10000	2	1	0	2	0
36	39	7	10000	2	1	0	2	0
36	40	7	10000	2	1	0	2	0
36	41	7	10000	2	1	0	2	0
36	42	7	10000	2	1	0	2	0
36	43	7	10000	2	1	0	2	0
38	44	7	10000	2	1	0	2	0
38	45	7	10000	2	1	0	2	0
39	46	7	10000	2	1	0	2	0
37	47	7	10000	2	1	0	2	0
38	48	7	10000	2	1	0	2	0
37	49	7	10000	2	1	0	2	0
38	50	7	10000	2	1	0	2	0
38	51	7	10000	2	1	0	2	0
38	52	7	10000	2	1	0	2	0
40	53	7	10000	2	1	0	2	0
37	54	7	10000	2	1	0	2	0
37	55	7	10000	2	1	0	2	0
38	56	7	10000	2	1	0	2	0
39	57	7	10000	2	1	0	2	0
38	58	7	10000	2	1	0	2	0
37	59	7	10000	2	1	0	2	0
38	60	7	10000	2	1	0	2	0
37	61	7	10000	2	1	0	2	0
37	62	7	10000	2	1	0	2	0
38	63	7	10000	2	1	0	2	0
38	64	7	10000	2	1	0	2	0
39	65	7	10000	2	1	0	2	0
39	66	7	10000	2	1	0	2	0
35	67	7	10000	2	1	0	2	0
36	68	7	10000	2	1	0	2	0
35	69	7	10000	2	1	0	2	0
35	70	7	10000	2	1	0	2	0
34	71	7	10000	2	1	0	2	0
35	72	7	10000	2	1	0	2	0
34	73	7	10000	2	1	0	2	0
34	74	7	10000	2	1	0	2	0
35	75	7	10000	2	1	0	2	0
34	76	7	10000	2	1	0	2	0
37	77	7	10000	2	1	0	2	0
35	78	7	10000	2	1	0	2	0
34	79	7	10000	2	1	0	2	0
34	80	7	10000	2	1	0	2	0
33	81	7	10000	2	1	0	2	0
33	82	7	10000	2	1	0	2	0
33	83	7	10000	2	1	0	2	0
33	84	7	10000	2	1	0	2	0
33	85	7	10000	2	1	0	2	0
33	86	7	10000	2	1	0	2	0
32	87	7	10000	2	1	0	2	0
32	88	7	10000	2	1	0	2	0
31	89	7	10000	2	1	0	2	0
31	90	7	10000	2	1	0	2	0
32	91	7	10000	2	1	0	2	0
32	92	7	10000	2	1	0	2	0
31	93	7	10000	2	1	0	2	0
31	94	7	10000	2	1	0	2	0
30	95	7	10000	2	1	0	2	0
30	96	7	10000	2	1	0	2	0
32	97	7	10000	2	1	0	2	0
31	98	7	10000	2	1	0	2	0
31	99	7	10000	2	1	0	2	0
30	100	7	10000	2	1	0	2	0
31	101	7	10000	2	1	0	2	0
30	102	7	10000	2	1	0	2	0
31	103	7	10000	2	1	0	2	0
32	104	7	10000	2	1	0	2	0
32	105	7	10000	2	1	0	2	0
32	106	7	10000	2	1	0	2	0
31	107	7	10000	2	1	0	2	0
29	108	7	10000	2	1	0	2	0
30	109	7	10000	2	1	0	2	0
30	110	7	10000	2	1	0	2	0
30	111	7	10000	2	1	0	2	0
30	112	7	10000	2	1	0	2	0
31	113	7	10000	2	1	0	2	0
31	114	7	10000	2	1	0	2	0
30	115	7	10000	2	1	0	2	0
30	116	7	10000	2	1	0	2	0
32	117	7	10000	2	1	0	2	0
32	118	7	10000	2	1	0	2	0
31	119	7	10000	2	1	0	2	0
31	120	7	10000	2	1	0	2	0
31	121	7	10000	2	1	0	2	0
30	122	7	10000	2	1	0	2	0
30	123	7	10000	2	1	0	2	0
30	124	7	10000	2	1	0	2	0
31	125	7	10000	2	1	0	2	0
32	126	7	10000	2	1	0	2	0
29	127	7	10000	2	1	0	2	0
30	128	7	10000	2	1	0	2	0
30	129	7	10000	2	1	0	2	0
29	130	7	10000	2	1	0	2	0
29	131	7	10000	2	1	0	2	0
29	132	7	10000	2	1	0	2	0
30	133	7	10000	2	1	0	2	0
28	134	7	10000	2	1	0	2	0
29	135	7	10000	2	1	0	2	0
28	136	7	10000	2	1	0	2	0
31	137	7	10000	2	1	0	2	0
30	138	7	10000	2	1	0	2	0
30	139	7	10000	2	1	0	2	0
30	140	7	10000	2	1	0	2	0
30	141	7	10000	2	1	0	2	0
30	142	7	10000	2	1	0	2	0
29	143	7	10000	2	1	0	2	0
29	144	7	10000	2	1	0	2	0
30	145	7	10000	2	1	0	2	0
30	146	7	10000	2	1	0	2	0
28	147	7	10000	2	1	0	2	0
27	148	7	10000	2	1	0	2	0
27	149	7	10000	2	1	0	2	0
28	150	7	10000	2	1	0	2	0
27	151	7	10000	2	1	0	2	0
27	152	7	10000	2	1	0	2	0
28	153	7	10000	2	1	0	2	0
29	154	7	10000	2	1	0	2	0
28	155	7	10000	2	1	0	2	0
27	156	7	10000	2	1	0	2	0
30	157	7	10000	2	1	0	2	0
29	158	7	10000	2	1	0	2	0
28	159	7	10000	2	1	0	2	0
28	160	7	10000	2	1	0	2	0
29	161	7	10000	2	1	0	2	0
28	162	7	10000	2	1	0	2	0
29	163	7	10000	2	1	0	2	0
30	164	7	10000	2	1	0	2	0
30	165	7	10000	2	1	0	2	0
29	166	7	10000	2	1	0	2	0
28	167	7	10000	2	1	0	2	0
27	168	7	10000	2	1	0	2	0
28	169	7	10000	2	1	0	2	0
28	170	7	10000	2	1	0	2	0
28	171	7	10000	2	1	0	2	0
28	172	7	10000	2	1	0	2	0
30	173	7	10000	2	1	0	2	0
29	174	7	10000	2	1	0	2	0
28	175	7	10000	2	1	0	2	0
27	176	7	10000	2	1	0	2	0
29	177	7	10000	2	1	0	2	0
31	178	7	10000	2	1	0	2	0
30	179	7	10000	2	1	0	2	0
30	180	7	10000	2	1	0	2	0
31	181	7	10000	2	1	0	2	0
30	182	7	10000	2	1	0	2	0
29	183	7	10000	2	1	0	2	0
30	184	7	10000	2	1	0	2	0
29	185	7	10000	2	1	0	2	0
30	186	7	10000	2	1	0	2	0
28	187	7	10000	2	1	0	2	0
28	188	7	10000	2	1	0	2	0
28	189	7	10000	2	1	0	2	0
28	190	7	10000	2	1	0	2	0
28	191	7	10000	2	1	0	2	0
28	192	7	10000	2	1	0	2	0
29	193	7	10000	2	1	0	2	0
28	194	7	10000	2	1	0	2	0
28	195	7	10000	2	1	0	2	0
28	196	7	10000	2	1	0	2	0
30	197	7	10000	2	1	0	2	0
31	198	7	10000	2	1	0	2	0
31	199	7	10000	2	1	0	2	0
30	200	7	10000	2	1	0	2	0
30	201	7	10000	2	1	0	2	0
29	202	7	10000	2	1	0	2	0
29	203	7	10000	2	1	0	2	0
29	204	7	10000	2	1	0	2	0
30	205	7	10000	2	1	0	2	0
29	206	7	10000	2	1	0	2	0
28	207	7	10000	2	1	0	2	0
29	208	7	10000	2	1	0	2	0
29	209	7	10000	2	1	0	2	0
29	210	7	10000	2	1	0	2	0
30	211	7	10000	2	1	0	2	0
29	212	7	10000	2	1	0	2	0
29	213	7	10000	2	1	0	2	0
29	214	7	10000	2	1	0	2	0
28	215	7	10000	2	1	0	2	0
27	216	7	10000	2	1	0	2	0
30	217	7	10000	2	1	0	2	0
28	218	7	10000	2	1	0	2	0
28	219	7	10000	2	1	0	2	0
28	220	7	10000	2	1	0	2	0
27	221	7	10000	2	1	0	2	0
28	222	7	10000	2	1	0	2	0
26	223	7	10000	2	1	0	2	0
28	224	7	10000	2	1	0	2	0
28	225	7	10000	2	1	0	2	0
28	226	7	10000	2	1	0	2	0
26	227	7	10000	2	1	0	2	0
26	228	7	10000	2	1	0	2	0
27	229	7	10000	2	1	0	2	0
26	230	7	10000	2	1	0	2	0
25	231	7	10000	2	1	0	2	0
27	232	7	10000	2	1	0	2	0
28	233	7	10000	2	1	0	2	0
27	234	7	10000	2	1	0	2	0
27	235	7	10000	2	1	0	2	0
27	236	7	10000	2	1	0	2	0
29	237	7	10000	2	1	0	2	0
28	238	7	10000	2	1	0	2	0
29	239	7	10000	2	1	0	2	0
27	240	7	10000	2	1	0	2	0
29	241	7	10000	2	1	0	2	0
28	242	7	10000	2	1	0	2	0
28	243	7	10000	2	1	0	2	0
28	244	7	10000	2	1	0	2	0
30	245	7	10000	2	1	0	2	0
30	246	7	10000	2	1	0	2	0
27	247	7	10000	2	1	0	2	0
28	248	7	10000	2	1	0	2	0
29	249	7	10000	2	1	0	2	0
28	250	7	10000	2	1	0	2	0
29	251	7	10000	2	1	0	2	0
29	252	7	10000	2	1	0	2	0
29	253	7	10000	2	1	0	2	0
27	254	7	10000	2	1	0	2	0
27	255	7	10000	2	1	0	2	0
26	256	7	10000	2	1	0	2	0
29	257	7	10000	2	1	0	2	0
30	258	7	10000	2	1	0	2	0
28	259	7	10000	2	1	0	2	0
28	260	7	10000	2	1	0	2	0
28	261	7	10000	2	1	0	2	0
29	262	7	10000	2	1	0	2	0
29	263	7	10000	2	1	0	2	0
29	264	7	10000	2	1	0	2	0
29	265	7	10000	2	1	0	2	0
30	266	7	10000	2	1	0	2	0
26	267	7	10000	2	1	0	2	0
28	268	7	10000	2	1	0	2	0
27	269	7	10000	2	1	0	2	0
28	270	7	10000	2	1	0	2	0
28	271	7	10000	2	1	0	2	0
29	272	7	10000	2	1	0	2	0
28	273	7	10000	2	1	0	2	0
27	274	7	10000	2	1	0	2	0
29	275	7	10000	2	1	0	2	0
27	276	7	10000	2	1	0	2	0
29	277	7	10000	2	1	0	2	0
28	278	7	10000	2	1	0	2	0
28	279	7	10000	2	1	0	2	0
28	280	7	10000	2	1	0	2	0
28	281	7	10000	2	1	0	2	0
28	282	7	10000	2	1	0	2	0
29	283	7	10000	2	1	0	2	0
31	284	7	10000	2	1	0	2	0
31	285	7	10000	2	1	0	2	0
30	286	7	10000	2	1	0	2	0
29	287	7	10000	2	1	0	2	0
29	288	7	10000	2	1	0	2	0
30	289	7	10000	2	1	0	2	0
32	290	7	10000	2	1	0	2	0
31	291	7	10000	2	1	0	2	0
31	292	7	10000	2	1	0	2	0
32	293	7	10000	2	1	0	2	0
31	294	7	10000	2	1	0	2	0
30	295	7	10000	2	1	0	2	0
31	296	7	10000	2	1	0	2	0
32	297	7	10000	2	1	0	2	0
31	298	7	10000	2	1	0	2	0
31	299	7	10000	2	1	0	2	0
30	300	7	10000	2	1	0	2	0
30	301	7	10000	2	1	0	2	0
30	302	7	10000	2	1	0	2	0
30	303	7	10000	2	1	0	2	0
31	304	7	10000	2	1	0	2	0
30	305	7	10000	2	1	0	2	0
30	306	7	10000	2	1	0	2	0
28	307	7	10000	2	1	0	2	0
28	308	7	10000	2	1	0	2	0
29	309	7	10000	2	1	0	2	0
29	310	7	10000	2	1	0	2	0
29	311	7	10000	2	1	0	2	0
29	312	7	10000	2	1	0	2	0
29	313	7	10000	2	1	0	2	0
30	314	7	10000	2	1	0	2	0
28	315	7	10000	2	1	0	2	0
28	316	7	10000	2	1	0	2	0
30	317	7	10000	2	1	0	2	0
29	318	7	10000	2	1	0	2	0
29	319	7	10000	2	1	0	2	0
29	320	7	10000	2	1	0	2	0
29	321	7	10000	2	1	0	2	0
28	322	7	10000	2	1	0	2	0
28	323	7	10000	2	1	0	2	0
29	324	7	10000	2	1	0	2	0
28	325	7	10000	2	1	0	2	0
30	326	7	10000	2	1	0	2	0
27	327	7	10000	2	1	0	2	0
27	328	7	10000	2	1	0	2	0
28	329	7	10000	2	1	0	2	0
30	330	7	10000	2	1	0	2	0
30	331	7	10000	2	1	0	2	0
30	332	7	10000	2	1	0	2	0
31	333	7	10000	2	1	0	2	0
31	334	7	10000	2	1	0	2	0
29	335	7	10000	2	1	0	2	0
29	336	7	10000	2	1	0	2	0
31	337	7	10000	2	1	0	2	0
31	338	7	10000	2	1	0	2	0
29	339	7	10000	2	1	0	2	0
30	340	7	10000	2	1	0	2	0
29	341	7	10000	2	1	0	2	0
29	342	7	10000	2	1	0	2	0
29	343	7	10000	2	1	0	2	0
29	344	7	10000	2	1	0	2	0
30	345	7	10000	2	1	0	2	0
29	346	7	10000	2	1	0	2	0
28	347	7	10000	2	1	0	2	0
27	348	7	10000	2	1	0	2	0
28	349	7	10000	2	1	0	2	0
29	350	7	10000	2	1	0	2	0
28	351	7	10000	2	1	0	2	0
29	352	7	10000	2	1	0	2	0
28	353	7	10000	2	1	0	2	0
28	354	7	10000	2	1	0	2	0
28	355	7	10000	2	1	0	2	0
26	356	7	10000	2	1	0	2	0
30	357	7	10000	2	1	0	2	0
29	358	7	10000	2	1	0	2	0
29	359	7	10000	2	1	0	2	0
28	360	7	10000	2	1	0	2	0
28	361	7	10000	2	1	0	2	0
29	362	7	10000	2	1	0	2	0
28	363	7	10000	2	1	0	2	0
28	364	7	10000	2	1	0	2	0
28	365	7	10000	2	1	0	2	0
27	366	7	10000	2	1	0	2	0
26	367	7	10000	2	1	0	2	0
26	368	7	10000	2	1	0	2	0
27	369	7	10000	2	1	0	2	0
27	370	7	10000	2	1	0	2	0
27	371	7	10000	2	1	0	2	0
28	372	7	10000	2	1	0	2	0
28	373	7	10000	2	1	0	2	0
27	374	7	10000	2	1	0	2	0
29	375	7	10000	2	1	0	2	0
29	376	7	10000	2	1	0	2	0
30	377	7	10000	2	1	0	2	0
30	378	7	10000	2	1	0	2	0
30	379	7	10000	2	1	0	2	0
29	380	7	10000	2	1	0	2	0
30	381	7	10000	2	1	0	2	0
29	382	7	10000	2	1	0	2	0
29	383	7	10000	2	1	0	2	0
30	384	7	10000	2	1	0	2	0
30	385	7	10000	2	1	0	2	0
32	386	7	10000	2	1	0	2	0
29	387	7	10000	2	1	0	2	0
30	388	7	10000	2	1	0	2	0
30	389	7	10000	2	1	0	2	0
30	390	7	10000	2	1	0	2	0
30	391	7	10000	2	1	0	2	0
31	392	7	10000	2	1	0	2	0
32	393	7	10000	2	1	0	2	0
30	394	7	10000	2	1	0	2	0
29	395	7	10000	2	1	0	2	0
29	396	7	10000	2	1	0	2	0
31	397	7	10000	2	1	0	2	0
31	398	7	10000	2	1	0	2	0
30	399	7	10000	2	1	0	2	0
29	400	7	10000	2	1	0	2	0
29	401	7	10000	2	1	0	2	0
27	402	7	10000	2	1	0	2	0
29	403	7	10000	2	1	0	2	0
28	404	7	10000	2	1	0	2	0
29	405	7	10000	2	1	0	2	0
29	406	7	10000	2	1	0	2	0
28	407	7	10000	2	1	0	2	0
28	408	7	10000	2	1	0	2	0
29	409	7	10000	2	1	0	2	0
30	410	7	10000	2	1	0	2	0
29	411	7	10000	2	1	0	2	0
29	412	7	10000	2	1	0	2	0
30	413	7	10000	2	1	0	2	0
28	414	7	10000	2	1	0	2	0
28	415	7	10000	2	1	0	2	0
27	416	7	10000	2	1	0	2	0
29	417	7	10000	2	1	0	2	0
28	418	7	10000	2	1	0	2	0
29	419	7	10000	2	1	0	2	0
27	420	7	10000	2	1	0	2	0
27	421	7	10000	2	1	0	2	0
28	422	7	10000	2	1	0	2	0
27	423	7	10000	2	1	0	2	0
27	424	7	10000	2	1	0	2	0
29	425	7	10000	2	1	0	2	0
29	426	7	10000	2	1	0	2	0
27	427	7	10000	2	1	0	2	0
27	428	7	10000	2	1	0	2	0
28	429	7	10000	2	1	0	2	0
29	430	7	10000	2	1	0	2	0
30	431	7	10000	2	1	0	2	0
31	432	7	10000	2	1	0	2	0
30	433	7	10000	2	1	0	2	0
30	434	7	10000	2	1	0	2	0
29	435	7	10000	2	1	0	2	0
29	436	7	10000	2	1	0	2	0
30	437	7	10000	2	1	0	2	0
29	438	7	10000	2	1	0	2	0
30	439	7	10000	2	1	0	2	0
30	440	7	10000	2	1	0	2	0
30	441	7	10000	2	1	0	2	0
30	442	7	10000	2	1	0	2	0
30	443	7	10000	2	1	0	2	0
30	444	7	10000	2	1	0	2	0
30	445	7	10000	2	1	0	2	0
31	446	7	10000	2	1	0	2	0
28	447	7	10000	2	1	0	2	0
29	448	7	10000	2	1	0	2	0
30	449	7	10000	2	1	0	2	0
30	450	7	10000	2	1	0	2	0
31	451	7	10000	2	1	0	2	0
30	452	7	10000	2	1	0	2	0
30	453	7	10000	2	1	0	2	0
30	454	7	10000	2	1	0	2	0
29	455	7	10000	2	1	0	2	0
30	456	7	10000	2	1	0	2	0
32	457	7	10000	2	1	0	2	0
32	458	7	10000	2	1	0	2	0
30	459	7	10000	2	1	0	2	0
31	460	7	10000	2	1	0	2	0
31	461	7	10000	2	1	0	2	0
30	462	7	10000	2	1	0	2	0
30	463	7	10000	2	1	0	2	0
31	464	7	10000	2	1	0	2	0
31	465	7	10000	2	1	0	2	0
32	466	7	10000	2	1	0	2	0
29	467	7	10000	2	1	0	2	0
29	468	7	10000	2	1	0	2	0
30	469	7	10000	2	1	0	2	0
31	470	7	10000	2	1	0	2	0
30	471	7	10000	2	1	0	2	0
30	472	7	10000	2	1	0	2	0
30	473	7	10000	2	1	0	2	0
30	474	7	10000	2	1	0	2	0
30	475	7	10000	2	1	0	2	0
30	476	7	10000	2	1	0	2	0
32	477	7	10000	2	1	0	2	0
31	478	7	10000	2	1	0	2	0
30	479	7	10000	2	1	0	2	0
30	480	7	10000	2	1	0	2	0
30	481	7	10000	2	1	0	2	0
30	482	7	10000	2	1	0	2	0
29	483	7	10000	2	1	0	2	0
30	484	7	10000	2	1	0	2	0
30	485	7	10000	2	1	0	2	0
30	486	7	10000	2	1	0	2	0
28	487	7	10000	2	1	0	2	0
28	488	7	10000	2	1	0	2	0
28	489	7	10000	2	1	0	2	0
28	490	7	10000	2	1	0	2	0
28	491	7	10000	2	1	0	2	0
30	492	7	10000	2	1	0	2	0
28	493	7	10000	2	1	0	2	0
28	494	7	10000	2	1	0	2	0
29	495	7	10000	2	1	0	2	0
27	496	7	10000	2	1	0	2	0
29	497	7	10000	2	1	0	2	0
29	498	7	10000	2	1	0	2	0
30	499	7	10000	2	1	0	2	0
29	500	7	10000	2	1	0	2	0
30	501	7	10000	2	1	0	2	1
29	502	7	10000	2	1	0	2	1
29	503	7	10000	2	1	0	2	1
30	504	7	10000	2	1	0	2	1
28	505	7	10000	2	1	0	2	1
29	506	7	10000	2	1	0	2	1
26	507	7	10000	2	1	0	2	1
26	508	7	10000	2	1	0	2	1
27	509	7	10000	2	1	0	2	1
27	510	7	10000	2	1	0	2	1
27	511	7	10000	2	1	0	2	1
27	512	7	10000	2	1	0	2	1
28	513	7	10000	2	1	0	2	1
27	514	7	10000	2	1	0	2	1
26	515	7	10000	2	1	0	2	1
27	516	7	10000	2	1	0	2	1
28	517	7	10000	2	1	0	2	1
28	518	7	10000	2	1	0	2	1
27	519	7	10000	2	1	0	2	1
26	520	7	10000	2	1	0	2	1
26	521	7	10000	2	1	0	2	1
26	522	7	10000	2	1	0	2	1
27	523	7	10000	2	1	0	2	1
27	524	7	10000	2	1	0	2	1
27	525	7	10000	2	1	0	2	1
27	526	7	10000	2	1	0	2	1
25	527	7	10000	2	1	0	2	1
26	528	7	10000	2	1	0	2	1
24	529	7	10000	2	1	0	2	1
26	530	7	10000	2	1	0	2	1
25	531	7	10000	2	1	0	2	1
25	532	7	10000	2	1	0	2	1
26	533	7	10000	2	1	0	2	1
25	534	7	10000	2	1	0	2	1
25	535	7	10000	2	1	0	2	1
24	536	7	10000	2	1	0	2	1
26	537	7	10000	2	1	0	2	1
26	538	7	10000	2	1	0	2	1
27	539	7	10000	2	1	0	2	1
26	540	7	10000	2	1	0	2	1
27	541	7	10000	2	1	0	2	1
28	542	7	10000	2	1	0	2	1
27	543	7	10000	2	1	0	2	1
27	544	7	10000	2	1	0	2	1
28	545	7	10000	2	1	0	2	1
28	546	7	10000	2	1	0	2	1
26	547	7	10000	2	1	0	2	1
26	548	7	10000	2	1	0	2	1
27	549	7	10000	2	1	0	2	1
27	550	7	10000	2	1	0	2	1
27	551	7	10000	2	1	0	2	0
28	552	7	10000	2	1	0	2	0
27	553	7	10000	2	1	0	2	0
26	554	7	10000	2	1	0	2	0
27	555	7	10000	2	1	0	2	0
26	556	7	10000	2	1	0	2	0
29	557	7	10000	2	1	0	2	0
28	558	7	10000	2	1	0	2	0
28	559	7	10000	2	1	0	2	0
28	560	7	10000	2	1	0	2	0
28	561	7	10000	2	1	0	2	0
28	562	7	10000	2	1	0	2	0
29	563	7	10000	2	1	0	2	0
30	564	7	10000	2	1	0	2	0
29	565	7	10000	2	1	0	2	0
29	566	7	10000	2	1	0	2	0
27	567	7	10000	2	1	0	2	0
28	568	7	10000	2	1	0	2	0
29	569	7	10000	2	1	0	2	0
27	570	7	10000	2	1	0	2	0
28	571	7	10000	2	1	0	2	0
28	572	7	10000	2	1	0	2	0
28	573	7	10000	2	1	0	2	0
28	574	7	10000	2	1	0	2	0
28	575	7	10000	2	1	0	2	0
28	576	7	10000	2	1	0	2	0
30	577	7	10000	2	1	0	2	0
29	578	7	10000	2	1	0	2	0
29	579	7	10000	2	1	0	2	0
30	580	7	10000	2	1	0	2	0
31	581	7	10000	2	1	0	2	0
41	582	7	10000	2	1	0	2	0
68	583	7	10000	2	1	0	2	0
77	584	7	10000	2	1	0	2	0
92	585	7	10000	2	1	0	2	0
94	586	7	10000	2	1	0	2	0
95	587	7	10000	2	1	0	2	0
130	588	7	10000	2	1	0	2	0
169	589	7	10000	2	1	0	2	0
170	590	7	10000	2	1	0	2	0
176	591	7	10000	2	1	0	2	0
198	592	7	10000	2	1	0	2	0
205	593	7	10000	2	1	0	2	0
251	594	7	10000	2	1	0	2	0
296	595	7	10000	2	1	0	2	0
367	596	7	10000	2	1	0	2	0
434	597	7	10000	2	1	0	2	0
482	598	7	10000	2	1	0	2	0
533	599	7	10000	2	1	0	2	0
532	600	7	10000	2	1	0	2	0
563	601	7	10000	2	1	0	2	0
656	602	7	10000	2	1	0	2	0
684	603	7	10000	2	1	0	2	0
759	604	7	10000	2	1	0	2	0
773	605	7	10000	2	1	0	2	0
864	606	7	10000	2	1	0	2	0
927	607	7	10000	2	1	0	2	0
901	608	7	10000	2	1	0	2	0
937	609	7	10000	2	1	0	2	0
997	610	7	10000	2	1	0	2	0
970	611	7	10000	2	1	0	2	0
973	612	7	10000	2	1	0	2	0
1057	613	7	10000	2	1	0	2	0
1120	614	7	10000	2	1	0	2	0
1163	615	7	10000	2	1	0	2	0
1291	616	7	10000	2	1	0	2	0
1355	617	7	10000	2	1	0	2	0
1320	618	7	10000	2	1	0	2	0
1261	619	7	10000	2	1	0	2	0
1232	620	7	10000	2	1	0	2	0
1214	621	7	10000	2	1	0	2	0
1167	622	7	10000	2	1	0	2	0
1132	623	7	10000	2	1	0	2	0
1116	624	7	10000	2	1	0	2	0
1119	625	7	10000	2	1	0	2	0
1134	626	7	10000	2	1	0	2	0
1160	627	7	10000	2	1	0	2	0
1186	628	7	10000	2	1	0	2	0
1211	629	7	10000	2	1	0	2	0
1232	630	7	10000	2	1	0	2	0
1248	631	7	10000	2	1	0	2	0
1264	632	7	10000	2	1	0	2	0
1277	633	7	10000	2	1	0	2	0
1284	634	7	10000	2	1	0	2	0
1285	635	7	10000	2	1	0	2	0
1281	636	7	10000	2	1	0	2	0
1273	637	7	10000	2	1	0	2	0
1254	638	7	10000	2	1	0	2	0
1237	639	7	10000	2	1	0	2	0
1233	640	7	10000	2	1	0	2	0
1224	640	7	10000	2	1	0	2	0
1177	641	7	10000	2	1	0	2	0
1132	643	7	10000	2	1	0	2	0
1084	644	7	10000	2	1	0	2	0
1041	645	7	10000	2	1	0	2	0
1006	646	7	10000	2	1	0	2	0
974	647	7	10000	2	1	0	2	0
932	648	7	10000	2	1	0	2	0
894	649	7	10000	2	1	0	2	0
865	650	7	10000	2	1	0	2	0
836	651	7	10000	2	1	0	2	0
806	652	7	10000	2	1	0	2	0
796	653	7	10000	2	1	0	2	0
797	654	7	10000	2	1	0	2	0
798	655	7	10000	2	1	0	2	0
797	656	7	10000	2	1	0	2	0
795	657	7	10000	2	1	0	2	0
780	658	7	10000	2	1	0	2	0
762	659	7	10000	2	1	0	2	0
756	660	7	10000	2	1	0	2	0
753	661	7	10000	2	1	0	2	0
757	662	7	10000	2	1	0	2	0
743	663	7	10000	2	1	0	2	0
717	664	7	10000	2	1	0	2	0
730	665	7	10000	2	1	0	2	0
733	666	7	10000	2	1	0	2	0
736	667	7	10000	2	1	0	2	0
758	668	7	10000	2	1	0	2	0
788	669	7	10000	2	1	0	2	0
820	670	7	10000	2	1	0	2	0
838	671	7	10000	2	1	0	2	0
847	672	7	10000	2	1	0	2	0
848	673	7	10000	2	1	0	2	0
846	674	7	10000	2	1	0	2	0
856	675	7	10000	2	1	0	2	0
883	676	7	10000	2	1	0	2	0
907	677	7	10000	2	1	0	2	0
904	678	7	10000	2	1	0	2	0
898	679	7	10000	2	1	0	2	0
890	680	7	10000	2	1	0	2	0
879	680	7	10000	2	1	0	2	0
864	681	7	10000	2	1	0	2	0
848	683	7	10000	2	1	0	2	0
834	684	7	10000	2	1	0	2	0
818	685	7	10000	2	1	0	2	0
803	686	7	10000	2	1	0	2	0
784	687	7	10000	2	1	0	2	0
767	688	7	10000	2	1	0	2	0
752	689	7	10000	2	1	0	2	0
733	690	7	10000	2	1	0	2	0
716	691	7	10000	2	1	0	2	0
696	692	7	10000	2	1	0	2	0
678	693	7	10000	2	1	0	2	0
659	694	7	10000	2	1	0	2	0
636	695	7	10000	2	1	0	2	0
613	696	7	10000	2	1	0	2	0
590	697	7	10000	2	1	0	2	0
565	698	7	10000	2	1	0	2	0
540	699	7	10000	2	1	0	2	0
516	700	7	10000	2	1	0	2	0
494	701	7	10000	2	1	0	2	0
471	702	7	10000	2	1	0	2	0
450	703	7	10000	2	1	0	2	0
431	704	7	10000	2	1	0	2	0
413	705	7	10000	2	1	0	2	0
395	706	7	10000	2	1	0	2	0
376	707	7	10000	2	1	0	2	0
359	708	7	10000	2	1	0	2	0
345	709	7	10000	2	1	0	2	0
330	710	7	10000	2	1	0	2	0
316	711	7	10000	2	1	0	2	0
302	712	7	10000	2	1	0	2	0
290	713	7	10000	2	1	0	2	0
277	714	7	10000	2	1	0	2	0
264	715	7	10000	2	1	0	2	0
253	716	7	10000	2	1	0	2	0
244	717	7	10000	2	1	0	2	0
234	718	7	10000	2	1	0	2	0
226	719	7	10000	2	1	0	2	0
218	720	7	10000	2	1	0	2	0
213	720	7	10000	2	1	0	2	0
206	721	7	10000	2	1	0	2	0
200	723	7	10000	2	1	0	2	0
196	724	7	10000	2	1	0	2	0
189	725	7	10000	2	1	0	2	0
187	726	7	10000	2	1	0	2	0
179	727	7	10000	2	1	0	2	0
174	728	7	10000	2	1	0	2	0
167	729	7	10000	2	1	0	2	0
161	730	7	10000	2	1	0	2	0
157	731	7	10000	2	1	0	2	0
151	732	7	10000	2	1	0	2	0
148	733	7	10000	2	1	0	2	0
143	734	7	10000	2	1	0	2	0
139	735	7	10000	2	1	0	2	0
138	736	7	10000	2	1	0	2	0
137	737	7	10000	2	1	0	2	0
139	738	7	10000	2	1	0	2	0
137	739	7	10000	2	1	0	2	0
137	740	7	10000	2	1	0	2	0
139	741	7	10000	2	1	0	2	0
138	742	7	10000	2	1	0	2	0
141	743	7	10000	2	1	0	2	0
143	744	7	10000	2	1	0	2	0
144	745	7	10000	2	1	0	2	0
146	746	7	10000	2	1	0	2	0
144	747	7	10000	2	1	0	2	0
146	748	7	10000	2	1	0	2	0
145	749	7	10000	2	1	0	2	0
145	750	7	10000	2	1	0	2	0
144	751	7	10000	2	1	0	2	0
143	752	7	10000	2	1	0	2	0
144	753	7	10000	2	1	0	2	0
141	754	7	10000	2	1	0	2	0
143	755	7	10000	2	1	0	2	0
143	756	7	10000	2	1	0	2	0
148	757	7	10000	2	1	0	2	0
151	758	7	10000	2	1	0	2	0
154	759	7	10000	2	1	0	2	0
159	760	7	10000	2	1	0	2	0
162	760	7	10000	2	1	0	2	0
167	761	7	10000	2	1	0	2	0
169	763	7	10000	2	1	0	2	0
171	764	7	10000	2	1	0	2	0
175	765	7	10000	2	1	0	2	0
175	766	7	10000	2	1	0	2	0
175	767	7	10000	2	1	0	2	0
176	768	7	10000	2	1	0	2	0
176	769	7	10000	2	1	0	2	0
177	770	7	10000	2	1	0	2	0
175	771	7	10000	2	1	0	2	0
176	772	7	10000	2	1	0	2	0
175	773	7	10000	2	1	0	2	0
174	774	7	10000	2	1	0	2	0
174	775	7	10000	2	1	0	2	0
172	776	7	10000	2	1	0	2	0
175	777	7	10000	2	1	0	2	0
173	778	7	10000	2	1	0	2	0
176	779	7	10000	2	1	0	2	0
174	780	7	10000	2	1	0	2	0
175	781	7	10000	2	1	0	2	0
178	782	7	10000	2	1	0	2	0
176	783	7	10000	2	1	0	2	0
178	784	7	10000	2	1	0	2	0
178	785	7	10000	2	1	0	2	0
177	786	7	10000	2	1	0	2	0
175	787	7	10000	2	1	0	2	0
174	788	7	10000	2	1	0	2	0
173	789	7	10000	2	1	0	2	0
169	790	7	10000	2	1	0	2	0
167	791	7	10000	2	1	0	2	0
164	792	7	10000	2	1	0	2	0
159	793	7	10000	2	1	0	2	0
156	794	7	10000	2	1	0	2	0
152	795	7	10000	2	1	0	2	0
150	796	7	10000	2	1	0	2	0
149	797	7	10000	2	1	0	2	0
146	798	7	10000	2	1	0	2	0
145	799	7	10000	2	1	0	2	0
142	800	7	10000	2	1	0	2	0
143	801	7	10000	2	1	0	2	0
141	802	7	10000	2	1	0	2	0
140	803	7	10000	2	1	0	2	0
139	804	7	10000	2	1	0	2	0
136	805	7	10000	2	1	0	2	0
136	806	7	10000	2	1	0	2	0
129	807	7	10000	2	1	0	2	0
126	808	7	10000	2	1	0	2	0
121	809	7	10000	2	1	0	2	0
116	810	7	10000	2	1	0	2	0
113	811	7	10000	2	1	0	2	0
109	812	7	10000	2	1	0	2	0
107	813	7	10000	2	1	0	2	0
103	814	7	10000	2	1	0	2	0
99	815	7	10000	2	1	0	2	0
97	816	7	10000	2	1	0	2	0
95	817	7	10000	2	1	0	2	0
93	818	7	10000	2	1	0	2	0
90	819	7	10000	2	1	0	2	0
89	820	7	10000	2	1	0	2	0
88	821	7	10000	2	1	0	2	0
85	822	7	10000	2	1	0	2	0
86	823	7	10000	2	1	0	2	0
84	824	7	10000	2	1	0	2	0
83	825	7	10000	2	1	0	2	0
82	826	7	10000	2	1	0	2	0
76	827	7	10000	2	1	0	2	0
74	828	7	10000	2	1	0	2	0
72	829	7	10000	2	1	0	2	0
70	830	7	10000	2	1	0	2	0
68	831	7	10000	2	1	0	2	0
67	832	7	10000	2	1	0	2	0
65	833	7	10000	2	1	0	2	0
63	834	7	10000	2	1	0	2	0
61	835	7	10000	2	1	0	2	0
60	836	7	10000	2	1	0	2	0
61	837	7	10000	2	1	0	2	0
59	838	7	10000	2	1	0	2	0
56	839	7	10000	2	1	0	2	0
57	840	7	10000	2	1	0	2	0
56	840	7	10000	2	1	0	2	0
55	841	7	10000	2	1	0	2	0
53	843	7	10000	2	1	0	2	0
52	844	7	10000	2	1	0	2	0
53	845	7	10000	2	1	0	2	0
52	846	7	10000	2	1	0	2	0
49	847	7	10000	2	1	0	2	0
48	848	7	10000	2	1	0	2	0
48	849	7	10000	2	1	0	2	0
47	850	7	10000	2	1	0	2	0
46	851	7	10000	2	1	0	2	0
45	852	7	10000	2	1	0	2	0
46	853	7	10000	2	1	0	2	0
45	854	7	10000	2	1	0	2	0
44	855	7	10000	2	1	0	2	0
43	856	7	10000	2	1	0	2	0
44	857	7	10000	2	1	0	2	0
43	858	7	10000	2	1	0	2	0
43	859	7	10000	2	1	0	2	0
42	860	7	10000	2	1	0	2	0
42	861	7	10000	2	1	0	2	0
42	862	7	10000	2	1	0	2	0
40	863	7	10000	2	1	0	2	0
42	864	7	10000	2	1	0	2	0
42	865	7	10000	2	1	0	2	0
41	866	7	10000	2	1	0	2	0
39	867	7	10000	2	1	0	2	0
37	868	7	10000	2	1	0	2	0
38	869	7	10000	2	1	0	2	0
37	870	7	10000	2	1	0	2	0
37	871	7	10000	2	1	0	2	0
36	872	7	10000	2	1	0	2	0
38	873	7	10000	2	1	0	2	0
37	874	7	10000	2	1	0	2	0
36	875	7	10000	2	1	0	2	0
36	876	7	10000	2	1	0	2	0
37	877	7	10000	2	1	0	2	0
37	878	7	10000	2	1	0	2	0
36	879	7	10000	2	1	0	2	0
35	880	7	10000	2	1	0	2	0
36	880	7	10000	2	1	0	2	0
36	881	7	10000	2	1	0	2	0
36	883	7	10000	2	1	0	2	0
35	884	7	10000	2	1	0	2	0
36	885	7	10000	2	1	0	2	0
35	886	7	10000	2	1	0	2	0
33	887	7	10000	2	1	0	2	0
34	888	7	10000	2	1	0	2	0
33	889	7	10000	2	1	0	2	0
33	890	7	10000	2	1	0	2	0
33	891	7	10000	2	1	0	2	0
33	892	7	10000	2	1	0	2	0
33	893	7	10000	2	1	0	2	0
33	894	7	10000	2	1	0	2	0
33	895	7	10000	2	1	0	2	0
32	896	7	10000	2	1	0	2	0
34	897	7	10000	2	1	0	2	0
35	898	7	10000	2	1	0	2	0
35	899	7	10000	2	1	0	2	0
37	900	7	10000	2	1	0	2	0
38	901	7	10000	2	1	0	2	0
37	902	7	10000	2	1	0	2	0
36	903	7	10000	2	1	0	2	0
37	904	7	10000	2	1	0	2	0
38	905	7	10000	2	1	0	2	0
36	906	7	10000	2	1	0	2	0
34	907	7	10000	2	1	0	2	0
34	908	7	10000	2	1	0	2	0
32	909	7	10000	2	1	0	2	0
35	910	7	10000	2	1	0	2	0
35	911	7	10000	2	1	0	2	0
34	912	7	10000	2	1	0	2	0
35	913	7	10000	2	1	0	2	0
34	914	7	10000	2	1	0	2	0
34	915	7	10000	2	1	0	2	0
33	916	7	10000	2	1	0	2	0
35	917	7	10000	2	1	0	2	0
34	918	7	10000	2	1	0	2	0
33	919	7	10000	2	1	0	2	0
34	920	7	10000	2	1	0	2	0
34	920	7	10000	2	1	0	2	0
36	921	7	10000	2	1	0	2	0
36	923	7	10000	2	1	0	2	0
35	924	7	10000	2	1	0	2	0
36	925	7	10000	2	1	0	2	0
36	926	7	10000	2	1	0	2	0
33	927	7	10000	2	1	0	2	0
33	928	7	10000	2	1	0	2	0
33	929	7	10000	2	1	0	2	0
34	930	7	10000	2	1	0	2	0
35	931	7	10000	2	1	0	2	0
35	932	7	10000	2	1	0	2	0
35	933	7	10000	2	1	0	2	0
35	934	7	10000	2	1	0	2	0
35	935	7	10000	2	1	0	2	0
36	936	7	10000	2	1	0	2	0
38	937	7	10000	2	1	0	2	0
38	938	7	10000	2	1	0	2	0
37	939	7	10000	2	1	0	2	0
36	940	7	10000	2	1	0	2	0
36	941	7	10000	2	1	0	2	0
35	942	7	10000	2	1	0	2	0
36	943	7	10000	2	1	0	2	0
35	944	7	10000	2	1	0	2	0
34	945	7	10000	2	1	0	2	0
35	946	7	10000	2	1	0	2	0
32	947	7	10000	2	1	0	2	0
32	948	7	10000	2	1	0	2	0
33	949	7	10000	2	1	0	2	0
33	950	7	10000	2	1	0	2	0
32	951	7	10000	2	1	0	2	0
34	952	7	10000	2	1	0	2	0
35	953	7	10000	2	1	0	2	0
34	954	7	10000	2	1	0	2	0
34	955	7	10000	2	1	0	2	0
33	956	7	10000	2	1	0	2	0
35	957	7	10000	2	1	0	2	0
36	958	7	10000	2	1	0	2	0
35	959	7	10000	2	1	0	2	0
34	960	7	10000	2	1	0	2	0
35	961	7	10000	2	1	0	2	0
33	962	7	10000	2	1	0	2	0
33	963	7	10000	2	1	0	2	0
33	964	7	10000	2	1	0	2	0
33	965	7	10000	2	1	0	2	0
33	966	7	10000	2	1	0	2	0
32	967	7	10000	2	1	0	2	0
32	968	7	10000	2	1	0	2	0
32	969	7	10000	2	1	0	2	0
32	970	7	10000	2	1	0	2	0
32	971	7	10000	2	1	0	2	0
32	972	7	10000	2	1	0	2	0
32	973	7	10000	2	1	0	2	0
31	974	7	10000	2	1	0	2	0
31	975	7	10000	2	1	0	2	0
31	976	7	10000	2	1	0	2	0
34	977	7	10000	2	1	0	2	0
33	978	7	10000	2	1	0	2	0
32	979	7	10000	2	1	0	2	0
33	980	7	10000	2	1	0	2	0
32	981	7	10000	2	1	0	2	0
31	982	7	10000	2	1	0	2	0
32	983	7	10000	2	1	0	2	0
32	984	7	10000	2	1	0	2	0
32	985	7	10000	2	1	0	2	0
32	986	7	10000	2	1	0	2	0
31	987	7	10000	2	1	0	2	0
29	988	7	10000	2	1	0	2	0
30	989	7	10000	2	1	0	2	0
32	990	7	10000	2	1	0	2	0
35	991	7	10000	2	1	0	2	0
35	992	7	10000	2	1	0	2	0
36	993	7	10000	2	1	0	2	0
34	994	7	10000	2	1	0	2	0
35	995	7	10000	2	1	0	2	0
33	996	7	10000	2	1	0	2	0
35	997	7	10000	2	1	0	2	0
34	998	7	10000	2	1	0	2	0
34	999	7	10000	2	1	0	2	0
32	1000	7	10000	2	1	0	2	0
127	2	0	10000	3	1	0	3	0
126	3	0	10000	3	1	0	3	0
128	4	0	10000	3	1	0	3	0
128	5	0	10000	3	1	0	3	0
127	6	0	10000	3	1	0	3	0
129	7	0	10000	3	1	0	3	0
125	8	0	10000	3	1	0	3	0
123	9	0	10000	3	1	0	3	0
121	10	0	10000	3	1	0	3	0
116	11	0	10000	3	1	0	3	0
113	12	0	10000	3	1	0	3	0
109	13	0	10000	3	1	0	3	0
106	14	0	10000	3	1	0	3	0
103	15	0	10000	3	1	0	3	0
100	16	0	10000	3	1	0	3	0
99	17	0	10000	3	1	0	3	0
101	18	0	10000	3	1	0	3	0
100	19	0	10000	3	1	0	3	0
98	20	0	10000	3	1	0	3	0
94	21	0	10000	3	1	0	3	0
91	22	0	10000	3	1	0	3	0
88	23	0	10000	3	1	0	3	0
85	24	0	10000	3	1	0	3	0
82	25	0	10000	3	1	0	3	0
80	26	0	10000	3	1	0	3	0
78	27	0	10000	3	1	0	3	0
75	28	0	10000	3	1	0	3	0
73	29	0	10000	3	1	0	3	0
73	30	0	10000	3	1	0	3	0
70	31	0	10000	3	1	0	3	0
69	32	0	10000	3	1	0	3	0
67	33	0	10000	3	1	0	3	0
65	34	0	10000	3	1	0	3	0
62	35	0	10000	3	1	0	3	0
62	36	0	10000	3	1	0	3	0
60	37	0	10000	3	1	0	3	0
59	38	0	10000	3	1	0	3	0
59	39	0	10000	3	1	0	3	0
57	40	0	10000	3	1	0	3	0
56	41	0	10000	3	1	0	3	0
55	42	0	10000	3	1	0	3	0
52	43	0	10000	3	1	0	3	0
52	44	0	10000	3	1	0	3	0
52	45	0	10000	3	1	0	3	0
51	46	0	10000	3	1	0	3	0
51	47	0	10000	3	1	0	3	0
48	48	0	10000	3	1	0	3	0
49	49	0	10000	3	1	0	3	0
49	50	0	10000	3	1	0	3	0
48	51	0	10000	3	1	0	3	0
50	52	0	10000	3	1	0	3	0
50	53	0	10000	3	1	0	3	0
51	54	0	10000	3	1	0	3	0
49	55	0	10000	3	1	0	3	0
48	56	0	10000	3	1	0	3	0
49	57	0	10000	3	1	0	3	0
48	58	0	10000	3	1	0	3	0
50	59	0	10000	3	1	0	3	0
49	60	0	10000	3	1	0	3	0
47	61	0	10000	3	1	0	3	0
47	62	0	10000	3	1	0	3	0
46	63	0	10000	3	1	0	3	0
45	64	0	10000	3	1	0	3	0
46	65	0	10000	3	1	0	3	0
46	66	0	10000	3	1	0	3	0
49	67	0	10000	3	1	0	3	0
49	68	0	10000	3	1	0	3	0
51	69	0	10000	3	1	0	3	0
51	70	0	10000	3	1	0	3	0
50	71	0	10000	3	1	0	3	0
52	72	0	10000	3	1	0	3	0
51	73	0	10000	3	1	0	3	0
51	74	0	10000	3	1	0	3	0
52	75	0	10000	3	1	0	3	0
50	76	0	10000	3	1	0	3	0
50	77	0	10000	3	1	0	3	0
49	78	0	10000	3	1	0	3	0
49	79	0	10000	3	1	0	3	0
49	80	0	10000	3	1	0	3	0
47	81	0	10000	3	1	0	3	0
47	82	0	10000	3	1	0	3	0
46	83	0	10000	3	1	0	3	0
44	84	0	10000	3	1	0	3	0
45	85	0	10000	3	1	0	3	0
45	86	0	10000	3	1	0	3	0
44	87	0	10000	3	1	0	3	0
42	88	0	10000	3	1	0	3	0
41	89	0	10000	3	1	0	3	0
41	90	0	10000	3	1	0	3	0
39	91	0	10000	3	1	0	3	0
41	92	0	10000	3	1	0	3	0
41	93	0	10000	3	1	0	3	0
40	94	0	10000	3	1	0	3	0
42	95	0	10000	3	1	0	3	0
42	96	0	10000	3	1	0	3	0
41	97	0	10000	3	1	0	3	0
42	98	0	10000	3	1	0	3	0
41	99	0	10000	3	1	0	3	0
41	100	0	10000	3	1	0	3	0
40	101	0	10000	3	1	0	3	0
39	102	0	10000	3	1	0	3	0
39	103	0	10000	3	1	0	3	0
38	104	0	10000	3	1	0	3	0
39	105	0	10000	3	1	0	3	0
39	106	0	10000	3	1	0	3	0
39	107	0	10000	3	1	0	3	0
38	108	0	10000	3	1	0	3	0
37	109	0	10000	3	1	0	3	0
38	110	0	10000	3	1	0	3	0
37	111	0	10000	3	1	0	3	0
35	112	0	10000	3	1	0	3	0
36	113	0	10000	3	1	0	3	0
35	114	0	10000	3	1	0	3	0
35	115	0	10000	3	1	0	3	0
34	116	0	10000	3	1	0	3	0
33	117	0	10000	3	1	0	3	0
35	118	0	10000	3	1	0	3	0
35	119	0	10000	3	1	0	3	0
35	120	0	10000	3	1	0	3	0
35	121	0	10000	3	1	0	3	0
34	122	0	10000	3	1	0	3	0
35	123	0	10000	3	1	0	3	0
35	124	0	10000	3	1	0	3	0
34	125	0	10000	3	1	0	3	0
34	126	0	10000	3	1	0	3	0
34	127	0	10000	3	1	0	3	0
33	128	0	10000	3	1	0	3	0
33	129	0	10000	3	1	0	3	0
33	130	0	10000	3	1	0	3	0
33	131	0	10000	3	1	0	3	0
33	132	0	10000	3	1	0	3	0
34	133	0	10000	3	1	0	3	0
33	134	0	10000	3	1	0	3	0
32	135	0	10000	3	1	0	3	0
32	136	0	10000	3	1	0	3	0
31	137	0	10000	3	1	0	3	0
32	138	0	10000	3	1	0	3	0
33	139	0	10000	3	1	0	3	0
32	140	0	10000	3	1	0	3	0
33	141	0	10000	3	1	0	3	0
32	142	0	10000	3	1	0	3	0
32	143	0	10000	3	1	0	3	0
32	144	0	10000	3	1	0	3	0
33	145	0	10000	3	1	0	3	0
34	146	0	10000	3	1	0	3	0
34	147	0	10000	3	1	0	3	0
32	148	0	10000	3	1	0	3	0
32	149	0	10000	3	1	0	3	0
32	150	0	10000	3	1	0	3	0
33	151	0	10000	3	1	0	3	0
32	152	0	10000	3	1	0	3	0
32	153	0	10000	3	1	0	3	0
32	154	0	10000	3	1	0	3	0
31	155	0	10000	3	1	0	3	0
32	156	0	10000	3	1	0	3	0
31	157	0	10000	3	1	0	3	0
31	158	0	10000	3	1	0	3	0
33	159	0	10000	3	1	0	3	0
32	160	0	10000	3	1	0	3	0
31	161	0	10000	3	1	0	3	0
31	162	0	10000	3	1	0	3	0
33	163	0	10000	3	1	0	3	0
32	164	0	10000	3	1	0	3	0
32	165	0	10000	3	1	0	3	0
32	166	0	10000	3	1	0	3	0
34	167	0	10000	3	1	0	3	0
32	168	0	10000	3	1	0	3	0
31	169	0	10000	3	1	0	3	0
30	170	0	10000	3	1	0	3	0
31	171	0	10000	3	1	0	3	0
31	172	0	10000	3	1	0	3	0
30	173	0	10000	3	1	0	3	0
32	174	0	10000	3	1	0	3	0
30	175	0	10000	3	1	0	3	0
29	176	0	10000	3	1	0	3	0
30	177	0	10000	3	1	0	3	0
30	178	0	10000	3	1	0	3	0
31	179	0	10000	3	1	0	3	0
30	180	0	10000	3	1	0	3	0
28	181	0	10000	3	1	0	3	0
29	182	0	10000	3	1	0	3	0
28	183	0	10000	3	1	0	3	0
28	184	0	10000	3	1	0	3	0
28	185	0	10000	3	1	0	3	0
29	186	0	10000	3	1	0	3	0
30	187	0	10000	3	1	0	3	0
28	188	0	10000	3	1	0	3	0
27	189	0	10000	3	1	0	3	0
27	190	0	10000	3	1	0	3	0
27	191	0	10000	3	1	0	3	0
28	192	0	10000	3	1	0	3	0
28	193	0	10000	3	1	0	3	0
26	194	0	10000	3	1	0	3	0
28	195	0	10000	3	1	0	3	0
27	196	0	10000	3	1	0	3	0
27	197	0	10000	3	1	0	3	0
28	198	0	10000	3	1	0	3	0
28	199	0	10000	3	1	0	3	0
28	200	0	10000	3	1	0	3	0
28	201	0	10000	3	1	0	3	0
28	202	0	10000	3	1	0	3	0
28	203	0	10000	3	1	0	3	0
29	204	0	10000	3	1	0	3	0
30	205	0	10000	3	1	0	3	0
29	206	0	10000	3	1	0	3	0
30	207	0	10000	3	1	0	3	0
28	208	0	10000	3	1	0	3	0
27	209	0	10000	3	1	0	3	0
28	210	0	10000	3	1	0	3	0
27	211	0	10000	3	1	0	3	0
28	212	0	10000	3	1	0	3	0
28	213	0	10000	3	1	0	3	0
28	214	0	10000	3	1	0	3	0
29	215	0	10000	3	1	0	3	0
27	216	0	10000	3	1	0	3	0
27	217	0	10000	3	1	0	3	0
29	218	0	10000	3	1	0	3	0
29	219	0	10000	3	1	0	3	0
29	220	0	10000	3	1	0	3	0
28	221	0	10000	3	1	0	3	0
28	222	0	10000	3	1	0	3	0
29	223	0	10000	3	1	0	3	0
27	224	0	10000	3	1	0	3	0
28	225	0	10000	3	1	0	3	0
28	226	0	10000	3	1	0	3	0
29	227	0	10000	3	1	0	3	0
27	228	0	10000	3	1	0	3	0
26	229	0	10000	3	1	0	3	0
28	230	0	10000	3	1	0	3	0
28	231	0	10000	3	1	0	3	0
29	232	0	10000	3	1	0	3	0
30	233	0	10000	3	1	0	3	0
28	234	0	10000	3	1	0	3	0
28	235	0	10000	3	1	0	3	0
28	236	0	10000	3	1	0	3	0
28	237	0	10000	3	1	0	3	0
28	238	0	10000	3	1	0	3	0
29	239	0	10000	3	1	0	3	0
29	240	0	10000	3	1	0	3	0
28	241	0	10000	3	1	0	3	0
29	242	0	10000	3	1	0	3	0
29	243	0	10000	3	1	0	3	0
29	244	0	10000	3	1	0	3	0
30	245	0	10000	3	1	0	3	0
30	246	0	10000	3	1	0	3	0
30	247	0	10000	3	1	0	3	0
29	248	0	10000	3	1	0	3	0
28	249	0	10000	3	1	0	3	0
29	250	0	10000	3	1	0	3	0
29	251	0	10000	3	1	0	3	0
29	252	0	10000	3	1	0	3	0
29	253	0	10000	3	1	0	3	0
29	254	0	10000	3	1	0	3	0
29	255	0	10000	3	1	0	3	0
30	256	0	10000	3	1	0	3	0
29	257	0	10000	3	1	0	3	0
30	258	0	10000	3	1	0	3	0
32	259	0	10000	3	1	0	3	0
31	260	0	10000	3	1	0	3	0
31	261	0	10000	3	1	0	3	0
30	262	0	10000	3	1	0	3	0
30	263	0	10000	3	1	0	3	0
29	264	0	10000	3	1	0	3	0
29	265	0	10000	3	1	0	3	0
31	266	0	10000	3	1	0	3	0
30	267	0	10000	3	1	0	3	0
28	268	0	10000	3	1	0	3	0
28	269	0	10000	3	1	0	3	0
28	270	0	10000	3	1	0	3	0
29	271	0	10000	3	1	0	3	0
29	272	0	10000	3	1	0	3	0
30	273	0	10000	3	1	0	3	0
30	274	0	10000	3	1	0	3	0
29	275	0	10000	3	1	0	3	0
28	276	0	10000	3	1	0	3	0
28	277	0	10000	3	1	0	3	0
30	278	0	10000	3	1	0	3	0
30	279	0	10000	3	1	0	3	0
29	280	0	10000	3	1	0	3	0
28	281	0	10000	3	1	0	3	0
28	282	0	10000	3	1	0	3	0
29	283	0	10000	3	1	0	3	0
29	284	0	10000	3	1	0	3	0
29	285	0	10000	3	1	0	3	0
29	286	0	10000	3	1	0	3	0
29	287	0	10000	3	1	0	3	0
28	288	0	10000	3	1	0	3	0
28	289	0	10000	3	1	0	3	0
28	290	0	10000	3	1	0	3	0
28	291	0	10000	3	1	0	3	0
28	292	0	10000	3	1	0	3	0
28	293	0	10000	3	1	0	3	0
29	294	0	10000	3	1	0	3	0
28	295	0	10000	3	1	0	3	0
27	296	0	10000	3	1	0	3	0
28	297	0	10000	3	1	0	3	0
28	298	0	10000	3	1	0	3	0
28	299	0	10000	3	1	0	3	0
30	300	0	10000	3	1	0	3	0
28	301	0	10000	3	1	0	3	0
27	302	0	10000	3	1	0	3	0
28	303	0	10000	3	1	0	3	0
28	304	0	10000	3	1	0	3	0
29	305	0	10000	3	1	0	3	0
29	306	0	10000	3	1	0	3	0
30	307	0	10000	3	1	0	3	0
27	308	0	10000	3	1	0	3	0
27	309	0	10000	3	1	0	3	0
27	310	0	10000	3	1	0	3	0
27	311	0	10000	3	1	0	3	0
28	312	0	10000	3	1	0	3	0
28	313	0	10000	3	1	0	3	0
30	314	0	10000	3	1	0	3	0
29	315	0	10000	3	1	0	3	0
29	316	0	10000	3	1	0	3	0
29	317	0	10000	3	1	0	3	0
30	318	0	10000	3	1	0	3	0
30	319	0	10000	3	1	0	3	0
30	320	0	10000	3	1	0	3	0
30	321	0	10000	3	1	0	3	0
30	322	0	10000	3	1	0	3	0
30	323	0	10000	3	1	0	3	0
30	324	0	10000	3	1	0	3	0
31	325	0	10000	3	1	0	3	0
30	326	0	10000	3	1	0	3	0
30	327	0	10000	3	1	0	3	0
29	328	0	10000	3	1	0	3	0
29	329	0	10000	3	1	0	3	0
30	330	0	10000	3	1	0	3	0
29	331	0	10000	3	1	0	3	0
29	332	0	10000	3	1	0	3	0
29	333	0	10000	3	1	0	3	0
30	334	0	10000	3	1	0	3	0
30	335	0	10000	3	1	0	3	0
29	336	0	10000	3	1	0	3	0
27	337	0	10000	3	1	0	3	0
30	338	0	10000	3	1	0	3	0
29	339	0	10000	3	1	0	3	0
29	340	0	10000	3	1	0	3	0
29	341	0	10000	3	1	0	3	0
28	342	0	10000	3	1	0	3	0
29	343	0	10000	3	1	0	3	0
28	344	0	10000	3	1	0	3	0
27	345	0	10000	3	1	0	3	0
29	346	0	10000	3	1	0	3	0
29	347	0	10000	3	1	0	3	0
28	348	0	10000	3	1	0	3	0
27	349	0	10000	3	1	0	3	0
28	350	0	10000	3	1	0	3	0
28	351	0	10000	3	1	0	3	0
29	352	0	10000	3	1	0	3	0
30	353	0	10000	3	1	0	3	0
30	354	0	10000	3	1	0	3	0
28	355	0	10000	3	1	0	3	0
30	356	0	10000	3	1	0	3	0
29	357	0	10000	3	1	0	3	0
30	358	0	10000	3	1	0	3	0
31	359	0	10000	3	1	0	3	0
30	360	0	10000	3	1	0	3	0
29	361	0	10000	3	1	0	3	0
30	362	0	10000	3	1	0	3	0
31	363	0	10000	3	1	0	3	0
30	364	0	10000	3	1	0	3	0
30	365	0	10000	3	1	0	3	0
31	366	0	10000	3	1	0	3	0
31	367	0	10000	3	1	0	3	0
29	368	0	10000	3	1	0	3	0
29	369	0	10000	3	1	0	3	0
30	370	0	10000	3	1	0	3	0
30	371	0	10000	3	1	0	3	0
30	372	0	10000	3	1	0	3	0
32	373	0	10000	3	1	0	3	0
32	374	0	10000	3	1	0	3	0
32	375	0	10000	3	1	0	3	0
32	376	0	10000	3	1	0	3	0
30	377	0	10000	3	1	0	3	0
32	378	0	10000	3	1	0	3	0
34	379	0	10000	3	1	0	3	0
32	380	0	10000	3	1	0	3	0
32	381	0	10000	3	1	0	3	0
32	382	0	10000	3	1	0	3	0
32	383	0	10000	3	1	0	3	0
32	384	0	10000	3	1	0	3	0
32	385	0	10000	3	1	0	3	0
32	386	0	10000	3	1	0	3	0
32	387	0	10000	3	1	0	3	0
31	388	0	10000	3	1	0	3	0
30	389	0	10000	3	1	0	3	0
32	390	0	10000	3	1	0	3	0
33	391	0	10000	3	1	0	3	0
32	392	0	10000	3	1	0	3	0
32	393	0	10000	3	1	0	3	0
33	394	0	10000	3	1	0	3	0
32	395	0	10000	3	1	0	3	0
31	396	0	10000	3	1	0	3	0
31	397	0	10000	3	1	0	3	0
32	398	0	10000	3	1	0	3	0
33	399	0	10000	3	1	0	3	0
32	400	0	10000	3	1	0	3	0
31	401	0	10000	3	1	0	3	0
32	402	0	10000	3	1	0	3	0
31	403	0	10000	3	1	0	3	0
30	404	0	10000	3	1	0	3	0
31	405	0	10000	3	1	0	3	0
31	406	0	10000	3	1	0	3	0
32	407	0	10000	3	1	0	3	0
29	408	0	10000	3	1	0	3	0
29	409	0	10000	3	1	0	3	0
29	410	0	10000	3	1	0	3	0
28	411	0	10000	3	1	0	3	0
29	412	0	10000	3	1	0	3	0
29	413	0	10000	3	1	0	3	0
30	414	0	10000	3	1	0	3	0
30	415	0	10000	3	1	0	3	0
29	416	0	10000	3	1	0	3	0
29	417	0	10000	3	1	0	3	0
30	418	0	10000	3	1	0	3	0
30	419	0	10000	3	1	0	3	0
31	420	0	10000	3	1	0	3	0
30	421	0	10000	3	1	0	3	0
30	422	0	10000	3	1	0	3	0
30	423	0	10000	3	1	0	3	0
29	424	0	10000	3	1	0	3	0
30	425	0	10000	3	1	0	3	0
30	426	0	10000	3	1	0	3	0
30	427	0	10000	3	1	0	3	0
29	428	0	10000	3	1	0	3	0
29	429	0	10000	3	1	0	3	0
29	430	0	10000	3	1	0	3	0
29	431	0	10000	3	1	0	3	0
29	432	0	10000	3	1	0	3	0
30	433	0	10000	3	1	0	3	0
30	434	0	10000	3	1	0	3	0
30	435	0	10000	3	1	0	3	0
29	436	0	10000	3	1	0	3	0
28	437	0	10000	3	1	0	3	0
31	438	0	10000	3	1	0	3	0
31	439	0	10000	3	1	0	3	0
31	440	0	10000	3	1	0	3	0
30	441	0	10000	3	1	0	3	0
30	442	0	10000	3	1	0	3	0
30	443	0	10000	3	1	0	3	0
30	444	0	10000	3	1	0	3	0
31	445	0	10000	3	1	0	3	0
31	446	0	10000	3	1	0	3	0
30	447	0	10000	3	1	0	3	0
30	448	0	10000	3	1	0	3	0
28	449	0	10000	3	1	0	3	0
29	450	0	10000	3	1	0	3	0
29	451	0	10000	3	1	0	3	0
29	452	0	10000	3	1	0	3	0
28	453	0	10000	3	1	0	3	0
29	454	0	10000	3	1	0	3	0
29	455	0	10000	3	1	0	3	0
29	456	0	10000	3	1	0	3	0
28	457	0	10000	3	1	0	3	0
31	458	0	10000	3	1	0	3	0
30	459	0	10000	3	1	0	3	0
28	460	0	10000	3	1	0	3	0
30	461	0	10000	3	1	0	3	0
29	462	0	10000	3	1	0	3	0
30	463	0	10000	3	1	0	3	0
30	464	0	10000	3	1	0	3	0
29	465	0	10000	3	1	0	3	0
30	466	0	10000	3	1	0	3	0
30	467	0	10000	3	1	0	3	0
28	468	0	10000	3	1	0	3	0
28	469	0	10000	3	1	0	3	0
28	470	0	10000	3	1	0	3	0
29	471	0	10000	3	1	0	3	0
29	472	0	10000	3	1	0	3	0
28	473	0	10000	3	1	0	3	0
29	474	0	10000	3	1	0	3	0
29	475	0	10000	3	1	0	3	0
30	476	0	10000	3	1	0	3	0
28	477	0	10000	3	1	0	3	0
30	478	0	10000	3	1	0	3	0
31	479	0	10000	3	1	0	3	0
30	480	0	10000	3	1	0	3	0
30	481	0	10000	3	1	0	3	0
30	482	0	10000	3	1	0	3	0
32	483	0	10000	3	1	0	3	0
31	484	0	10000	3	1	0	3	0
32	485	0	10000	3	1	0	3	0
32	486	0	10000	3	1	0	3	0
33	487	0	10000	3	1	0	3	0
31	488	0	10000	3	1	0	3	0
31	489	0	10000	3	1	0	3	0
30	490	0	10000	3	1	0	3	0
31	491	0	10000	3	1	0	3	0
31	492	0	10000	3	1	0	3	0
31	493	0	10000	3	1	0	3	0
32	494	0	10000	3	1	0	3	0
30	495	0	10000	3	1	0	3	0
29	496	0	10000	3	1	0	3	0
29	497	0	10000	3	1	0	3	0
30	498	0	10000	3	1	0	3	0
32	499	0	10000	3	1	0	3	0
31	500	0	10000	3	1	0	3	0
30	501	0	10000	3	1	0	3	0
30	502	0	10000	3	1	0	3	1
30	503	0	10000	3	1	0	3	1
30	504	0	10000	3	1	0	3	1
31	505	0	10000	3	1	0	3	1
31	506	0	10000	3	1	0	3	1
31	507	0	10000	3	1	0	3	1
29	508	0	10000	3	1	0	3	1
29	509	0	10000	3	1	0	3	1
28	510	0	10000	3	1	0	3	1
30	511	0	10000	3	1	0	3	1
30	512	0	10000	3	1	0	3	1
29	513	0	10000	3	1	0	3	1
29	514	0	10000	3	1	0	3	1
29	515	0	10000	3	1	0	3	1
27	516	0	10000	3	1	0	3	1
28	517	0	10000	3	1	0	3	1
29	518	0	10000	3	1	0	3	1
30	519	0	10000	3	1	0	3	1
29	520	0	10000	3	1	0	3	1
29	521	0	10000	3	1	0	3	1
30	522	0	10000	3	1	0	3	1
30	523	0	10000	3	1	0	3	1
29	524	0	10000	3	1	0	3	1
30	525	0	10000	3	1	0	3	1
30	526	0	10000	3	1	0	3	1
30	527	0	10000	3	1	0	3	1
27	528	0	10000	3	1	0	3	1
27	529	0	10000	3	1	0	3	1
28	530	0	10000	3	1	0	3	1
27	531	0	10000	3	1	0	3	1
28	532	0	10000	3	1	0	3	1
29	533	0	10000	3	1	0	3	1
29	534	0	10000	3	1	0	3	1
29	535	0	10000	3	1	0	3	1
28	536	0	10000	3	1	0	3	1
28	537	0	10000	3	1	0	3	1
29	538	0	10000	3	1	0	3	1
30	539	0	10000	3	1	0	3	1
31	540	0	10000	3	1	0	3	1
29	541	0	10000	3	1	0	3	1
29	542	0	10000	3	1	0	3	1
30	543	0	10000	3	1	0	3	1
28	544	0	10000	3	1	0	3	1
29	545	0	10000	3	1	0	3	1
30	546	0	10000	3	1	0	3	1
30	547	0	10000	3	1	0	3	1
28	548	0	10000	3	1	0	3	1
27	549	0	10000	3	1	0	3	1
28	550	0	10000	3	1	0	3	1
28	551	0	10000	3	1	0	3	1
29	552	0	10000	3	1	0	3	0
28	553	0	10000	3	1	0	3	0
28	554	0	10000	3	1	0	3	0
28	555	0	10000	3	1	0	3	0
28	556	0	10000	3	1	0	3	0
28	557	0	10000	3	1	0	3	0
29	558	0	10000	3	1	0	3	0
29	559	0	10000	3	1	0	3	0
28	560	0	10000	3	1	0	3	0
29	561	0	10000	3	1	0	3	0
28	562	0	10000	3	1	0	3	0
29	563	0	10000	3	1	0	3	0
29	564	0	10000	3	1	0	3	0
30	565	0	10000	3	1	0	3	0
30	566	0	10000	3	1	0	3	0
31	567	0	10000	3	1	0	3	0
30	568	0	10000	3	1	0	3	0
28	569	0	10000	3	1	0	3	0
29	570	0	10000	3	1	0	3	0
29	571	0	10000	3	1	0	3	0
28	572	0	10000	3	1	0	3	0
28	573	0	10000	3	1	0	3	0
29	574	0	10000	3	1	0	3	0
29	575	0	10000	3	1	0	3	0
30	576	0	10000	3	1	0	3	0
28	577	0	10000	3	1	0	3	0
30	578	0	10000	3	1	0	3	0
31	579	0	10000	3	1	0	3	0
30	580	0	10000	3	1	0	3	0
35	581	0	10000	3	1	0	3	0
33	582	0	10000	3	1	0	3	0
36	583	0	10000	3	1	0	3	0
56	584	0	10000	3	1	0	3	0
92	585	0	10000	3	1	0	3	0
110	586	0	10000	3	1	0	3	0
119	587	0	10000	3	1	0	3	0
130	588	0	10000	3	1	0	3	0
133	589	0	10000	3	1	0	3	0
134	590	0	10000	3	1	0	3	0
145	591	0	10000	3	1	0	3	0
152	592	0	10000	3	1	0	3	0
152	593	0	10000	3	1	0	3	0
150	594	0	10000	3	1	0	3	0
181	595	0	10000	3	1	0	3	0
230	596	0	10000	3	1	0	3	0
236	597	0	10000	3	1	0	3	0
261	598	0	10000	3	1	0	3	0
282	599	0	10000	3	1	0	3	0
413	600	0	10000	3	1	0	3	0
587	601	0	10000	3	1	0	3	0
625	602	0	10000	3	1	0	3	0
731	603	0	10000	3	1	0	3	0
809	604	0	10000	3	1	0	3	0
856	605	0	10000	3	1	0	3	0
893	606	0	10000	3	1	0	3	0
924	607	0	10000	3	1	0	3	0
939	608	0	10000	3	1	0	3	0
943	609	0	10000	3	1	0	3	0
929	610	0	10000	3	1	0	3	0
1021	611	0	10000	3	1	0	3	0
1231	612	0	10000	3	1	0	3	0
1269	613	0	10000	3	1	0	3	0
1381	614	0	10000	3	1	0	3	0
1407	615	0	10000	3	1	0	3	0
1411	616	0	10000	3	1	0	3	0
1406	617	0	10000	3	1	0	3	0
1429	618	0	10000	3	1	0	3	0
1454	619	0	10000	3	1	0	3	0
1439	620	0	10000	3	1	0	3	0
1401	621	0	10000	3	1	0	3	0
1343	622	0	10000	3	1	0	3	0
1293	623	0	10000	3	1	0	3	0
1261	624	0	10000	3	1	0	3	0
1245	625	0	10000	3	1	0	3	0
1233	626	0	10000	3	1	0	3	0
1229	627	0	10000	3	1	0	3	0
1225	628	0	10000	3	1	0	3	0
1221	629	0	10000	3	1	0	3	0
1223	630	0	10000	3	1	0	3	0
1224	631	0	10000	3	1	0	3	0
1246	632	0	10000	3	1	0	3	0
1272	633	0	10000	3	1	0	3	0
1263	634	0	10000	3	1	0	3	0
1261	635	0	10000	3	1	0	3	0
1268	636	0	10000	3	1	0	3	0
1238	637	0	10000	3	1	0	3	0
1190	638	0	10000	3	1	0	3	0
1137	639	0	10000	3	1	0	3	0
1100	640	0	10000	3	1	0	3	0
1058	641	0	10000	3	1	0	3	0
1029	642	0	10000	3	1	0	3	0
995	643	0	10000	3	1	0	3	0
956	644	0	10000	3	1	0	3	0
917	645	0	10000	3	1	0	3	0
879	646	0	10000	3	1	0	3	0
841	647	0	10000	3	1	0	3	0
810	648	0	10000	3	1	0	3	0
784	649	0	10000	3	1	0	3	0
758	650	0	10000	3	1	0	3	0
734	651	0	10000	3	1	0	3	0
714	652	0	10000	3	1	0	3	0
692	653	0	10000	3	1	0	3	0
676	654	0	10000	3	1	0	3	0
662	655	0	10000	3	1	0	3	0
646	656	0	10000	3	1	0	3	0
633	657	0	10000	3	1	0	3	0
619	658	0	10000	3	1	0	3	0
606	659	0	10000	3	1	0	3	0
595	660	0	10000	3	1	0	3	0
583	661	0	10000	3	1	0	3	0
575	662	0	10000	3	1	0	3	0
567	663	0	10000	3	1	0	3	0
563	664	0	10000	3	1	0	3	0
562	665	0	10000	3	1	0	3	0
560	666	0	10000	3	1	0	3	0
559	667	0	10000	3	1	0	3	0
556	668	0	10000	3	1	0	3	0
555	669	0	10000	3	1	0	3	0
557	670	0	10000	3	1	0	3	0
558	671	0	10000	3	1	0	3	0
562	672	0	10000	3	1	0	3	0
564	673	0	10000	3	1	0	3	0
562	674	0	10000	3	1	0	3	0
562	675	0	10000	3	1	0	3	0
558	676	0	10000	3	1	0	3	0
553	677	0	10000	3	1	0	3	0
552	678	0	10000	3	1	0	3	0
545	679	0	10000	3	1	0	3	0
538	680	0	10000	3	1	0	3	0
527	681	0	10000	3	1	0	3	0
518	682	0	10000	3	1	0	3	0
510	683	0	10000	3	1	0	3	0
498	684	0	10000	3	1	0	3	0
491	685	0	10000	3	1	0	3	0
484	686	0	10000	3	1	0	3	0
478	687	0	10000	3	1	0	3	0
471	688	0	10000	3	1	0	3	0
461	689	0	10000	3	1	0	3	0
453	690	0	10000	3	1	0	3	0
445	691	0	10000	3	1	0	3	0
434	692	0	10000	3	1	0	3	0
425	693	0	10000	3	1	0	3	0
415	694	0	10000	3	1	0	3	0
404	695	0	10000	3	1	0	3	0
392	696	0	10000	3	1	0	3	0
377	697	0	10000	3	1	0	3	0
365	698	0	10000	3	1	0	3	0
351	699	0	10000	3	1	0	3	0
334	700	0	10000	3	1	0	3	0
319	701	0	10000	3	1	0	3	0
308	702	0	10000	3	1	0	3	0
293	703	0	10000	3	1	0	3	0
281	704	0	10000	3	1	0	3	0
272	705	0	10000	3	1	0	3	0
261	706	0	10000	3	1	0	3	0
253	707	0	10000	3	1	0	3	0
243	708	0	10000	3	1	0	3	0
235	709	0	10000	3	1	0	3	0
228	710	0	10000	3	1	0	3	0
219	711	0	10000	3	1	0	3	0
213	712	0	10000	3	1	0	3	0
206	713	0	10000	3	1	0	3	0
199	714	0	10000	3	1	0	3	0
195	715	0	10000	3	1	0	3	0
191	716	0	10000	3	1	0	3	0
189	717	0	10000	3	1	0	3	0
191	718	0	10000	3	1	0	3	0
191	719	0	10000	3	1	0	3	0
193	720	0	10000	3	1	0	3	0
195	721	0	10000	3	1	0	3	0
197	722	0	10000	3	1	0	3	0
198	723	0	10000	3	1	0	3	0
198	724	0	10000	3	1	0	3	0
201	725	0	10000	3	1	0	3	0
202	726	0	10000	3	1	0	3	0
203	727	0	10000	3	1	0	3	0
201	728	0	10000	3	1	0	3	0
197	729	0	10000	3	1	0	3	0
195	730	0	10000	3	1	0	3	0
190	731	0	10000	3	1	0	3	0
186	732	0	10000	3	1	0	3	0
186	733	0	10000	3	1	0	3	0
184	734	0	10000	3	1	0	3	0
183	735	0	10000	3	1	0	3	0
184	736	0	10000	3	1	0	3	0
183	737	0	10000	3	1	0	3	0
186	738	0	10000	3	1	0	3	0
187	739	0	10000	3	1	0	3	0
189	740	0	10000	3	1	0	3	0
189	741	0	10000	3	1	0	3	0
188	742	0	10000	3	1	0	3	0
189	743	0	10000	3	1	0	3	0
188	744	0	10000	3	1	0	3	0
187	745	0	10000	3	1	0	3	0
188	746	0	10000	3	1	0	3	0
184	747	0	10000	3	1	0	3	0
180	748	0	10000	3	1	0	3	0
175	749	0	10000	3	1	0	3	0
170	750	0	10000	3	1	0	3	0
167	751	0	10000	3	1	0	3	0
161	752	0	10000	3	1	0	3	0
156	753	0	10000	3	1	0	3	0
152	754	0	10000	3	1	0	3	0
147	755	0	10000	3	1	0	3	0
146	756	0	10000	3	1	0	3	0
143	757	0	10000	3	1	0	3	0
142	758	0	10000	3	1	0	3	0
141	759	0	10000	3	1	0	3	0
140	760	0	10000	3	1	0	3	0
140	761	0	10000	3	1	0	3	0
137	762	0	10000	3	1	0	3	0
135	763	0	10000	3	1	0	3	0
133	764	0	10000	3	1	0	3	0
130	765	0	10000	3	1	0	3	0
129	766	0	10000	3	1	0	3	0
125	767	0	10000	3	1	0	3	0
118	768	0	10000	3	1	0	3	0
114	769	0	10000	3	1	0	3	0
110	770	0	10000	3	1	0	3	0
107	771	0	10000	3	1	0	3	0
103	772	0	10000	3	1	0	3	0
101	773	0	10000	3	1	0	3	0
98	774	0	10000	3	1	0	3	0
94	775	0	10000	3	1	0	3	0
91	776	0	10000	3	1	0	3	0
87	777	0	10000	3	1	0	3	0
85	778	0	10000	3	1	0	3	0
86	779	0	10000	3	1	0	3	0
84	780	0	10000	3	1	0	3	0
83	781	0	10000	3	1	0	3	0
83	782	0	10000	3	1	0	3	0
81	783	0	10000	3	1	0	3	0
80	784	0	10000	3	1	0	3	0
78	785	0	10000	3	1	0	3	0
75	786	0	10000	3	1	0	3	0
74	787	0	10000	3	1	0	3	0
69	788	0	10000	3	1	0	3	0
68	789	0	10000	3	1	0	3	0
66	790	0	10000	3	1	0	3	0
66	791	0	10000	3	1	0	3	0
64	792	0	10000	3	1	0	3	0
64	793	0	10000	3	1	0	3	0
63	794	0	10000	3	1	0	3	0
62	795	0	10000	3	1	0	3	0
59	796	0	10000	3	1	0	3	0
59	797	0	10000	3	1	0	3	0
60	798	0	10000	3	1	0	3	0
58	799	0	10000	3	1	0	3	0
57	800	0	10000	3	1	0	3	0
56	801	0	10000	3	1	0	3	0
56	802	0	10000	3	1	0	3	0
55	803	0	10000	3	1	0	3	0
54	804	0	10000	3	1	0	3	0
54	805	0	10000	3	1	0	3	0
53	806	0	10000	3	1	0	3	0
53	807	0	10000	3	1	0	3	0
49	808	0	10000	3	1	0	3	0
50	809	0	10000	3	1	0	3	0
49	810	0	10000	3	1	0	3	0
52	811	0	10000	3	1	0	3	0
52	812	0	10000	3	1	0	3	0
51	813	0	10000	3	1	0	3	0
51	814	0	10000	3	1	0	3	0
49	815	0	10000	3	1	0	3	0
48	816	0	10000	3	1	0	3	0
47	817	0	10000	3	1	0	3	0
48	818	0	10000	3	1	0	3	0
47	819	0	10000	3	1	0	3	0
47	820	0	10000	3	1	0	3	0
45	821	0	10000	3	1	0	3	0
45	822	0	10000	3	1	0	3	0
44	823	0	10000	3	1	0	3	0
42	824	0	10000	3	1	0	3	0
43	825	0	10000	3	1	0	3	0
41	826	0	10000	3	1	0	3	0
42	827	0	10000	3	1	0	3	0
39	828	0	10000	3	1	0	3	0
38	829	0	10000	3	1	0	3	0
38	830	0	10000	3	1	0	3	0
40	831	0	10000	3	1	0	3	0
43	832	0	10000	3	1	0	3	0
43	833	0	10000	3	1	0	3	0
45	834	0	10000	3	1	0	3	0
45	835	0	10000	3	1	0	3	0
45	836	0	10000	3	1	0	3	0
46	837	0	10000	3	1	0	3	0
47	838	0	10000	3	1	0	3	0
47	839	0	10000	3	1	0	3	0
47	840	0	10000	3	1	0	3	0
49	841	0	10000	3	1	0	3	0
49	842	0	10000	3	1	0	3	0
50	843	0	10000	3	1	0	3	0
50	844	0	10000	3	1	0	3	0
50	845	0	10000	3	1	0	3	0
50	846	0	10000	3	1	0	3	0
48	847	0	10000	3	1	0	3	0
47	848	0	10000	3	1	0	3	0
45	849	0	10000	3	1	0	3	0
44	850	0	10000	3	1	0	3	0
44	851	0	10000	3	1	0	3	0
44	852	0	10000	3	1	0	3	0
43	853	0	10000	3	1	0	3	0
43	854	0	10000	3	1	0	3	0
41	855	0	10000	3	1	0	3	0
41	856	0	10000	3	1	0	3	0
40	857	0	10000	3	1	0	3	0
40	858	0	10000	3	1	0	3	0
42	859	0	10000	3	1	0	3	0
40	860	0	10000	3	1	0	3	0
42	861	0	10000	3	1	0	3	0
41	862	0	10000	3	1	0	3	0
39	863	0	10000	3	1	0	3	0
39	864	0	10000	3	1	0	3	0
39	865	0	10000	3	1	0	3	0
40	866	0	10000	3	1	0	3	0
41	867	0	10000	3	1	0	3	0
42	868	0	10000	3	1	0	3	0
43	869	0	10000	3	1	0	3	0
46	870	0	10000	3	1	0	3	0
47	871	0	10000	3	1	0	3	0
47	872	0	10000	3	1	0	3	0
47	873	0	10000	3	1	0	3	0
47	874	0	10000	3	1	0	3	0
45	875	0	10000	3	1	0	3	0
45	876	0	10000	3	1	0	3	0
44	877	0	10000	3	1	0	3	0
45	878	0	10000	3	1	0	3	0
45	879	0	10000	3	1	0	3	0
44	880	0	10000	3	1	0	3	0
42	881	0	10000	3	1	0	3	0
42	882	0	10000	3	1	0	3	0
41	883	0	10000	3	1	0	3	0
40	884	0	10000	3	1	0	3	0
41	885	0	10000	3	1	0	3	0
40	886	0	10000	3	1	0	3	0
40	887	0	10000	3	1	0	3	0
39	888	0	10000	3	1	0	3	0
39	889	0	10000	3	1	0	3	0
38	890	0	10000	3	1	0	3	0
39	891	0	10000	3	1	0	3	0
40	892	0	10000	3	1	0	3	0
39	893	0	10000	3	1	0	3	0
39	894	0	10000	3	1	0	3	0
38	895	0	10000	3	1	0	3	0
36	896	0	10000	3	1	0	3	0
36	897	0	10000	3	1	0	3	0
37	898	0	10000	3	1	0	3	0
35	899	0	10000	3	1	0	3	0
37	900	0	10000	3	1	0	3	0
35	901	0	10000	3	1	0	3	0
35	902	0	10000	3	1	0	3	0
36	903	0	10000	3	1	0	3	0
34	904	0	10000	3	1	0	3	0
35	905	0	10000	3	1	0	3	0
35	906	0	10000	3	1	0	3	0
34	907	0	10000	3	1	0	3	0
32	908	0	10000	3	1	0	3	0
32	909	0	10000	3	1	0	3	0
32	910	0	10000	3	1	0	3	0
33	911	0	10000	3	1	0	3	0
35	912	0	10000	3	1	0	3	0
35	913	0	10000	3	1	0	3	0
35	914	0	10000	3	1	0	3	0
35	915	0	10000	3	1	0	3	0
35	916	0	10000	3	1	0	3	0
33	917	0	10000	3	1	0	3	0
35	918	0	10000	3	1	0	3	0
35	919	0	10000	3	1	0	3	0
35	920	0	10000	3	1	0	3	0
36	921	0	10000	3	1	0	3	0
34	922	0	10000	3	1	0	3	0
37	923	0	10000	3	1	0	3	0
38	924	0	10000	3	1	0	3	0
38	925	0	10000	3	1	0	3	0
39	926	0	10000	3	1	0	3	0
39	927	0	10000	3	1	0	3	0
37	928	0	10000	3	1	0	3	0
36	929	0	10000	3	1	0	3	0
37	930	0	10000	3	1	0	3	0
36	931	0	10000	3	1	0	3	0
37	932	0	10000	3	1	0	3	0
37	933	0	10000	3	1	0	3	0
37	934	0	10000	3	1	0	3	0
37	935	0	10000	3	1	0	3	0
36	936	0	10000	3	1	0	3	0
36	937	0	10000	3	1	0	3	0
38	938	0	10000	3	1	0	3	0
38	939	0	10000	3	1	0	3	0
37	940	0	10000	3	1	0	3	0
38	941	0	10000	3	1	0	3	0
36	942	0	10000	3	1	0	3	0
36	943	0	10000	3	1	0	3	0
35	944	0	10000	3	1	0	3	0
36	945	0	10000	3	1	0	3	0
36	946	0	10000	3	1	0	3	0
35	947	0	10000	3	1	0	3	0
33	948	0	10000	3	1	0	3	0
32	949	0	10000	3	1	0	3	0
33	950	0	10000	3	1	0	3	0
33	951	0	10000	3	1	0	3	0
33	952	0	10000	3	1	0	3	0
34	953	0	10000	3	1	0	3	0
34	954	0	10000	3	1	0	3	0
34	955	0	10000	3	1	0	3	0
35	956	0	10000	3	1	0	3	0
34	957	0	10000	3	1	0	3	0
35	958	0	10000	3	1	0	3	0
35	959	0	10000	3	1	0	3	0
33	960	0	10000	3	1	0	3	0
33	961	0	10000	3	1	0	3	0
33	962	0	10000	3	1	0	3	0
33	963	0	10000	3	1	0	3	0
32	964	0	10000	3	1	0	3	0
33	965	0	10000	3	1	0	3	0
32	966	0	10000	3	1	0	3	0
32	967	0	10000	3	1	0	3	0
32	968	0	10000	3	1	0	3	0
31	969	0	10000	3	1	0	3	0
30	970	0	10000	3	1	0	3	0
31	971	0	10000	3	1	0	3	0
31	972	0	10000	3	1	0	3	0
32	973	0	10000	3	1	0	3	0
33	974	0	10000	3	1	0	3	0
32	975	0	10000	3	1	0	3	0
32	976	0	10000	3	1	0	3	0
31	977	0	10000	3	1	0	3	0
33	978	0	10000	3	1	0	3	0
34	979	0	10000	3	1	0	3	0
33	980	0	10000	3	1	0	3	0
32	981	0	10000	3	1	0	3	0
33	982	0	10000	3	1	0	3	0
31	983	0	10000	3	1	0	3	0
32	984	0	10000	3	1	0	3	0
32	985	0	10000	3	1	0	3	0
32	986	0	10000	3	1	0	3	0
32	987	0	10000	3	1	0	3	0
29	988	0	10000	3	1	0	3	0
29	989	0	10000	3	1	0	3	0
29	990	0	10000	3	1	0	3	0
31	991	0	10000	3	1	0	3	0
31	992	0	10000	3	1	0	3	0
31	993	0	10000	3	1	0	3	0
31	994	0	10000	3	1	0	3	0
32	995	0	10000	3	1	0	3	0
30	996	0	10000	3	1	0	3	0
31	997	0	10000	3	1	0	3	0
32	998	0	10000	3	1	0	3	0
31	999	0	10000	3	1	0	3	0
33	1000	0	10000	3	1	0	3	0
33	1001	0	10000	3	1	0	3	0
46	1	7	10000	4	1	0	4	0
48	2	7	10000	4	1	0	4	0
47	3	7	10000	4	1	0	4	0
44	4	7	10000	4	1	0	4	0
45	5	7	10000	4	1	0	4	0
44	6	7	10000	4	1	0	4	0
45	7	7	10000	4	1	0	4	0
44	8	7	10000	4	1	0	4	0
45	9	7	10000	4	1	0	4	0
46	10	7	10000	4	1	0	4	0
43	11	7	10000	4	1	0	4	0
42	12	7	10000	4	1	0	4	0
42	13	7	10000	4	1	0	4	0
44	14	7	10000	4	1	0	4	0
43	15	7	10000	4	1	0	4	0
42	16	7	10000	4	1	0	4	0
40	17	7	10000	4	1	0	4	0
41	18	7	10000	4	1	0	4	0
39	19	7	10000	4	1	0	4	0
38	20	7	10000	4	1	0	4	0
39	21	7	10000	4	1	0	4	0
39	22	7	10000	4	1	0	4	0
39	23	7	10000	4	1	0	4	0
37	24	7	10000	4	1	0	4	0
37	25	7	10000	4	1	0	4	0
37	26	7	10000	4	1	0	4	0
36	27	7	10000	4	1	0	4	0
36	28	7	10000	4	1	0	4	0
35	29	7	10000	4	1	0	4	0
34	30	7	10000	4	1	0	4	0
34	31	7	10000	4	1	0	4	0
32	32	7	10000	4	1	0	4	0
32	33	7	10000	4	1	0	4	0
34	34	7	10000	4	1	0	4	0
32	35	7	10000	4	1	0	4	0
32	36	7	10000	4	1	0	4	0
32	37	7	10000	4	1	0	4	0
32	38	7	10000	4	1	0	4	0
32	39	7	10000	4	1	0	4	0
32	40	7	10000	4	1	0	4	0
34	41	7	10000	4	1	0	4	0
34	42	7	10000	4	1	0	4	0
33	43	7	10000	4	1	0	4	0
32	44	7	10000	4	1	0	4	0
32	45	7	10000	4	1	0	4	0
33	46	7	10000	4	1	0	4	0
33	47	7	10000	4	1	0	4	0
33	48	7	10000	4	1	0	4	0
35	49	7	10000	4	1	0	4	0
34	50	7	10000	4	1	0	4	0
35	51	7	10000	4	1	0	4	0
35	52	7	10000	4	1	0	4	0
33	53	7	10000	4	1	0	4	0
35	54	7	10000	4	1	0	4	0
36	55	7	10000	4	1	0	4	0
35	56	7	10000	4	1	0	4	0
36	57	7	10000	4	1	0	4	0
35	58	7	10000	4	1	0	4	0
35	59	7	10000	4	1	0	4	0
36	60	7	10000	4	1	0	4	0
36	61	7	10000	4	1	0	4	0
36	62	7	10000	4	1	0	4	0
37	63	7	10000	4	1	0	4	0
33	64	7	10000	4	1	0	4	0
33	65	7	10000	4	1	0	4	0
33	66	7	10000	4	1	0	4	0
34	67	7	10000	4	1	0	4	0
34	68	7	10000	4	1	0	4	0
33	69	7	10000	4	1	0	4	0
33	70	7	10000	4	1	0	4	0
33	71	7	10000	4	1	0	4	0
32	72	7	10000	4	1	0	4	0
31	73	7	10000	4	1	0	4	0
33	74	7	10000	4	1	0	4	0
32	75	7	10000	4	1	0	4	0
33	76	7	10000	4	1	0	4	0
32	77	7	10000	4	1	0	4	0
32	78	7	10000	4	1	0	4	0
32	79	7	10000	4	1	0	4	0
32	80	7	10000	4	1	0	4	0
33	81	7	10000	4	1	0	4	0
33	82	7	10000	4	1	0	4	0
32	83	7	10000	4	1	0	4	0
32	84	7	10000	4	1	0	4	0
31	85	7	10000	4	1	0	4	0
30	86	7	10000	4	1	0	4	0
31	87	7	10000	4	1	0	4	0
32	88	7	10000	4	1	0	4	0
32	89	7	10000	4	1	0	4	0
32	90	7	10000	4	1	0	4	0
31	91	7	10000	4	1	0	4	0
33	92	7	10000	4	1	0	4	0
32	93	7	10000	4	1	0	4	0
33	94	7	10000	4	1	0	4	0
34	95	7	10000	4	1	0	4	0
33	96	7	10000	4	1	0	4	0
33	97	7	10000	4	1	0	4	0
33	98	7	10000	4	1	0	4	0
31	99	7	10000	4	1	0	4	0
32	100	7	10000	4	1	0	4	0
33	101	7	10000	4	1	0	4	0
32	102	7	10000	4	1	0	4	0
32	103	7	10000	4	1	0	4	0
31	104	7	10000	4	1	0	4	0
31	105	7	10000	4	1	0	4	0
31	106	7	10000	4	1	0	4	0
32	107	7	10000	4	1	0	4	0
32	108	7	10000	4	1	0	4	0
32	109	7	10000	4	1	0	4	0
32	110	7	10000	4	1	0	4	0
32	111	7	10000	4	1	0	4	0
32	112	7	10000	4	1	0	4	0
32	113	7	10000	4	1	0	4	0
32	114	7	10000	4	1	0	4	0
32	115	7	10000	4	1	0	4	0
32	116	7	10000	4	1	0	4	0
30	117	7	10000	4	1	0	4	0
31	118	7	10000	4	1	0	4	0
31	119	7	10000	4	1	0	4	0
32	120	7	10000	4	1	0	4	0
33	121	7	10000	4	1	0	4	0
33	122	7	10000	4	1	0	4	0
32	123	7	10000	4	1	0	4	0
31	124	7	10000	4	1	0	4	0
30	125	7	10000	4	1	0	4	0
31	126	7	10000	4	1	0	4	0
30	127	7	10000	4	1	0	4	0
30	128	7	10000	4	1	0	4	0
30	129	7	10000	4	1	0	4	0
32	130	7	10000	4	1	0	4	0
32	131	7	10000	4	1	0	4	0
32	132	7	10000	4	1	0	4	0
31	133	7	10000	4	1	0	4	0
34	134	7	10000	4	1	0	4	0
33	135	7	10000	4	1	0	4	0
33	136	7	10000	4	1	0	4	0
33	137	7	10000	4	1	0	4	0
33	138	7	10000	4	1	0	4	0
34	139	7	10000	4	1	0	4	0
34	140	7	10000	4	1	0	4	0
36	141	7	10000	4	1	0	4	0
37	142	7	10000	4	1	0	4	0
35	143	7	10000	4	1	0	4	0
32	144	7	10000	4	1	0	4	0
33	145	7	10000	4	1	0	4	0
32	146	7	10000	4	1	0	4	0
32	147	7	10000	4	1	0	4	0
32	148	7	10000	4	1	0	4	0
32	149	7	10000	4	1	0	4	0
33	150	7	10000	4	1	0	4	0
32	151	7	10000	4	1	0	4	0
31	152	7	10000	4	1	0	4	0
31	153	7	10000	4	1	0	4	0
32	154	7	10000	4	1	0	4	0
32	155	7	10000	4	1	0	4	0
31	156	7	10000	4	1	0	4	0
30	157	7	10000	4	1	0	4	0
31	158	7	10000	4	1	0	4	0
29	159	7	10000	4	1	0	4	0
29	160	7	10000	4	1	0	4	0
30	161	7	10000	4	1	0	4	0
30	162	7	10000	4	1	0	4	0
30	163	7	10000	4	1	0	4	0
28	164	7	10000	4	1	0	4	0
30	165	7	10000	4	1	0	4	0
30	166	7	10000	4	1	0	4	0
30	167	7	10000	4	1	0	4	0
31	168	7	10000	4	1	0	4	0
31	169	7	10000	4	1	0	4	0
30	170	7	10000	4	1	0	4	0
31	171	7	10000	4	1	0	4	0
30	172	7	10000	4	1	0	4	0
29	173	7	10000	4	1	0	4	0
31	174	7	10000	4	1	0	4	0
31	175	7	10000	4	1	0	4	0
31	176	7	10000	4	1	0	4	0
31	177	7	10000	4	1	0	4	0
31	178	7	10000	4	1	0	4	0
32	179	7	10000	4	1	0	4	0
31	180	7	10000	4	1	0	4	0
31	181	7	10000	4	1	0	4	0
31	182	7	10000	4	1	0	4	0
32	183	7	10000	4	1	0	4	0
29	184	7	10000	4	1	0	4	0
29	185	7	10000	4	1	0	4	0
31	186	7	10000	4	1	0	4	0
31	187	7	10000	4	1	0	4	0
31	188	7	10000	4	1	0	4	0
31	189	7	10000	4	1	0	4	0
31	190	7	10000	4	1	0	4	0
29	191	7	10000	4	1	0	4	0
30	192	7	10000	4	1	0	4	0
29	193	7	10000	4	1	0	4	0
30	194	7	10000	4	1	0	4	0
30	195	7	10000	4	1	0	4	0
29	196	7	10000	4	1	0	4	0
30	197	7	10000	4	1	0	4	0
29	198	7	10000	4	1	0	4	0
28	199	7	10000	4	1	0	4	0
28	200	7	10000	4	1	0	4	0
29	201	7	10000	4	1	0	4	0
31	202	7	10000	4	1	0	4	0
31	203	7	10000	4	1	0	4	0
28	204	7	10000	4	1	0	4	0
29	205	7	10000	4	1	0	4	0
30	206	7	10000	4	1	0	4	0
30	207	7	10000	4	1	0	4	0
32	208	7	10000	4	1	0	4	0
32	209	7	10000	4	1	0	4	0
32	210	7	10000	4	1	0	4	0
32	211	7	10000	4	1	0	4	0
31	212	7	10000	4	1	0	4	0
32	213	7	10000	4	1	0	4	0
32	214	7	10000	4	1	0	4	0
31	215	7	10000	4	1	0	4	0
31	216	7	10000	4	1	0	4	0
29	217	7	10000	4	1	0	4	0
30	218	7	10000	4	1	0	4	0
30	219	7	10000	4	1	0	4	0
30	220	7	10000	4	1	0	4	0
31	221	7	10000	4	1	0	4	0
30	222	7	10000	4	1	0	4	0
31	223	7	10000	4	1	0	4	0
30	224	7	10000	4	1	0	4	0
30	225	7	10000	4	1	0	4	0
30	226	7	10000	4	1	0	4	0
31	227	7	10000	4	1	0	4	0
31	228	7	10000	4	1	0	4	0
32	229	7	10000	4	1	0	4	0
32	230	7	10000	4	1	0	4	0
31	231	7	10000	4	1	0	4	0
30	232	7	10000	4	1	0	4	0
31	233	7	10000	4	1	0	4	0
33	234	7	10000	4	1	0	4	0
32	235	7	10000	4	1	0	4	0
33	236	7	10000	4	1	0	4	0
33	237	7	10000	4	1	0	4	0
31	238	7	10000	4	1	0	4	0
31	239	7	10000	4	1	0	4	0
31	240	7	10000	4	1	0	4	0
31	241	7	10000	4	1	0	4	0
32	242	7	10000	4	1	0	4	0
32	243	7	10000	4	1	0	4	0
29	244	7	10000	4	1	0	4	0
29	245	7	10000	4	1	0	4	0
29	246	7	10000	4	1	0	4	0
29	247	7	10000	4	1	0	4	0
30	248	7	10000	4	1	0	4	0
30	249	7	10000	4	1	0	4	0
31	250	7	10000	4	1	0	4	0
29	251	7	10000	4	1	0	4	0
28	252	7	10000	4	1	0	4	0
29	253	7	10000	4	1	0	4	0
31	254	7	10000	4	1	0	4	0
31	255	7	10000	4	1	0	4	0
31	256	7	10000	4	1	0	4	0
31	257	7	10000	4	1	0	4	0
31	258	7	10000	4	1	0	4	0
30	259	7	10000	4	1	0	4	0
31	260	7	10000	4	1	0	4	0
32	261	7	10000	4	1	0	4	0
32	262	7	10000	4	1	0	4	0
32	263	7	10000	4	1	0	4	0
30	264	7	10000	4	1	0	4	0
30	265	7	10000	4	1	0	4	0
31	266	7	10000	4	1	0	4	0
31	267	7	10000	4	1	0	4	0
31	268	7	10000	4	1	0	4	0
31	269	7	10000	4	1	0	4	0
32	270	7	10000	4	1	0	4	0
33	271	7	10000	4	1	0	4	0
32	272	7	10000	4	1	0	4	0
31	273	7	10000	4	1	0	4	0
34	274	7	10000	4	1	0	4	0
32	275	7	10000	4	1	0	4	0
32	276	7	10000	4	1	0	4	0
32	277	7	10000	4	1	0	4	0
31	278	7	10000	4	1	0	4	0
32	279	7	10000	4	1	0	4	0
30	280	7	10000	4	1	0	4	0
31	281	7	10000	4	1	0	4	0
32	282	7	10000	4	1	0	4	0
30	283	7	10000	4	1	0	4	0
30	284	7	10000	4	1	0	4	0
30	285	7	10000	4	1	0	4	0
30	286	7	10000	4	1	0	4	0
31	287	7	10000	4	1	0	4	0
31	288	7	10000	4	1	0	4	0
31	289	7	10000	4	1	0	4	0
31	290	7	10000	4	1	0	4	0
29	291	7	10000	4	1	0	4	0
30	292	7	10000	4	1	0	4	0
28	293	7	10000	4	1	0	4	0
30	294	7	10000	4	1	0	4	0
31	295	7	10000	4	1	0	4	0
29	296	7	10000	4	1	0	4	0
29	297	7	10000	4	1	0	4	0
30	298	7	10000	4	1	0	4	0
31	299	7	10000	4	1	0	4	0
31	300	7	10000	4	1	0	4	0
32	301	7	10000	4	1	0	4	0
33	302	7	10000	4	1	0	4	0
32	303	7	10000	4	1	0	4	0
30	304	7	10000	4	1	0	4	0
31	305	7	10000	4	1	0	4	0
31	306	7	10000	4	1	0	4	0
31	307	7	10000	4	1	0	4	0
32	308	7	10000	4	1	0	4	0
31	309	7	10000	4	1	0	4	0
30	310	7	10000	4	1	0	4	0
32	311	7	10000	4	1	0	4	0
31	312	7	10000	4	1	0	4	0
31	313	7	10000	4	1	0	4	0
32	314	7	10000	4	1	0	4	0
32	315	7	10000	4	1	0	4	0
32	316	7	10000	4	1	0	4	0
32	317	7	10000	4	1	0	4	0
33	318	7	10000	4	1	0	4	0
32	319	7	10000	4	1	0	4	0
32	320	7	10000	4	1	0	4	0
33	321	7	10000	4	1	0	4	0
33	322	7	10000	4	1	0	4	0
32	323	7	10000	4	1	0	4	0
31	324	7	10000	4	1	0	4	0
31	325	7	10000	4	1	0	4	0
31	326	7	10000	4	1	0	4	0
32	327	7	10000	4	1	0	4	0
32	328	7	10000	4	1	0	4	0
32	329	7	10000	4	1	0	4	0
32	330	7	10000	4	1	0	4	0
31	331	7	10000	4	1	0	4	0
31	332	7	10000	4	1	0	4	0
31	333	7	10000	4	1	0	4	0
32	334	7	10000	4	1	0	4	0
32	335	7	10000	4	1	0	4	0
31	336	7	10000	4	1	0	4	0
32	337	7	10000	4	1	0	4	0
31	338	7	10000	4	1	0	4	0
30	339	7	10000	4	1	0	4	0
32	340	7	10000	4	1	0	4	0
32	341	7	10000	4	1	0	4	0
35	342	7	10000	4	1	0	4	0
36	343	7	10000	4	1	0	4	0
35	344	7	10000	4	1	0	4	0
38	345	7	10000	4	1	0	4	0
37	346	7	10000	4	1	0	4	0
37	347	7	10000	4	1	0	4	0
38	348	7	10000	4	1	0	4	0
39	349	7	10000	4	1	0	4	0
40	350	7	10000	4	1	0	4	0
40	351	7	10000	4	1	0	4	0
41	352	7	10000	4	1	0	4	0
42	353	7	10000	4	1	0	4	0
41	354	7	10000	4	1	0	4	0
42	355	7	10000	4	1	0	4	0
44	356	7	10000	4	1	0	4	0
44	357	7	10000	4	1	0	4	0
47	358	7	10000	4	1	0	4	0
45	359	7	10000	4	1	0	4	0
44	360	7	10000	4	1	0	4	0
44	361	7	10000	4	1	0	4	0
43	362	7	10000	4	1	0	4	0
43	363	7	10000	4	1	0	4	0
42	364	7	10000	4	1	0	4	0
43	365	7	10000	4	1	0	4	0
47	366	7	10000	4	1	0	4	0
49	367	7	10000	4	1	0	4	0
48	368	7	10000	4	1	0	4	0
48	369	7	10000	4	1	0	4	0
46	370	7	10000	4	1	0	4	0
45	371	7	10000	4	1	0	4	0
44	372	7	10000	4	1	0	4	0
47	373	7	10000	4	1	0	4	0
48	374	7	10000	4	1	0	4	0
49	375	7	10000	4	1	0	4	0
48	376	7	10000	4	1	0	4	0
47	377	7	10000	4	1	0	4	0
46	378	7	10000	4	1	0	4	0
45	379	7	10000	4	1	0	4	0
45	380	7	10000	4	1	0	4	0
46	381	7	10000	4	1	0	4	0
45	382	7	10000	4	1	0	4	0
46	383	7	10000	4	1	0	4	0
44	384	7	10000	4	1	0	4	0
44	385	7	10000	4	1	0	4	0
45	386	7	10000	4	1	0	4	0
44	387	7	10000	4	1	0	4	0
45	388	7	10000	4	1	0	4	0
45	389	7	10000	4	1	0	4	0
45	390	7	10000	4	1	0	4	0
43	391	7	10000	4	1	0	4	0
41	392	7	10000	4	1	0	4	0
41	393	7	10000	4	1	0	4	0
44	394	7	10000	4	1	0	4	0
43	395	7	10000	4	1	0	4	0
42	396	7	10000	4	1	0	4	0
44	397	7	10000	4	1	0	4	0
43	398	7	10000	4	1	0	4	0
42	399	7	10000	4	1	0	4	0
43	400	7	10000	4	1	0	4	0
41	401	7	10000	4	1	0	4	0
41	402	7	10000	4	1	0	4	0
41	403	7	10000	4	1	0	4	0
38	404	7	10000	4	1	0	4	0
38	405	7	10000	4	1	0	4	0
38	406	7	10000	4	1	0	4	0
39	407	7	10000	4	1	0	4	0
39	408	7	10000	4	1	0	4	0
39	409	7	10000	4	1	0	4	0
39	410	7	10000	4	1	0	4	0
38	411	7	10000	4	1	0	4	0
38	412	7	10000	4	1	0	4	0
38	413	7	10000	4	1	0	4	0
39	414	7	10000	4	1	0	4	0
38	415	7	10000	4	1	0	4	0
37	416	7	10000	4	1	0	4	0
36	417	7	10000	4	1	0	4	0
37	418	7	10000	4	1	0	4	0
36	419	7	10000	4	1	0	4	0
36	420	7	10000	4	1	0	4	0
38	421	7	10000	4	1	0	4	0
38	422	7	10000	4	1	0	4	0
36	423	7	10000	4	1	0	4	0
35	424	7	10000	4	1	0	4	0
34	425	7	10000	4	1	0	4	0
35	426	7	10000	4	1	0	4	0
35	427	7	10000	4	1	0	4	0
33	428	7	10000	4	1	0	4	0
33	429	7	10000	4	1	0	4	0
33	430	7	10000	4	1	0	4	0
31	431	7	10000	4	1	0	4	0
32	432	7	10000	4	1	0	4	0
32	433	7	10000	4	1	0	4	0
32	434	7	10000	4	1	0	4	0
32	435	7	10000	4	1	0	4	0
32	436	7	10000	4	1	0	4	0
32	437	7	10000	4	1	0	4	0
32	438	7	10000	4	1	0	4	0
33	439	7	10000	4	1	0	4	0
32	440	7	10000	4	1	0	4	0
34	441	7	10000	4	1	0	4	0
34	442	7	10000	4	1	0	4	0
34	443	7	10000	4	1	0	4	0
32	444	7	10000	4	1	0	4	0
32	445	7	10000	4	1	0	4	0
31	446	7	10000	4	1	0	4	0
32	447	7	10000	4	1	0	4	0
31	448	7	10000	4	1	0	4	0
31	449	7	10000	4	1	0	4	0
32	450	7	10000	4	1	0	4	0
31	451	7	10000	4	1	0	4	0
30	452	7	10000	4	1	0	4	0
31	453	7	10000	4	1	0	4	0
32	454	7	10000	4	1	0	4	0
31	455	7	10000	4	1	0	4	0
31	456	7	10000	4	1	0	4	0
30	457	7	10000	4	1	0	4	0
31	458	7	10000	4	1	0	4	0
30	459	7	10000	4	1	0	4	0
30	460	7	10000	4	1	0	4	0
32	461	7	10000	4	1	0	4	0
31	462	7	10000	4	1	0	4	0
31	463	7	10000	4	1	0	4	0
29	464	7	10000	4	1	0	4	0
30	465	7	10000	4	1	0	4	0
30	466	7	10000	4	1	0	4	0
31	467	7	10000	4	1	0	4	0
31	468	7	10000	4	1	0	4	0
31	469	7	10000	4	1	0	4	0
30	470	7	10000	4	1	0	4	0
30	471	7	10000	4	1	0	4	0
30	472	7	10000	4	1	0	4	0
30	473	7	10000	4	1	0	4	0
32	474	7	10000	4	1	0	4	0
31	475	7	10000	4	1	0	4	0
30	476	7	10000	4	1	0	4	0
32	477	7	10000	4	1	0	4	0
31	478	7	10000	4	1	0	4	0
31	479	7	10000	4	1	0	4	0
30	480	7	10000	4	1	0	4	0
30	481	7	10000	4	1	0	4	0
32	482	7	10000	4	1	0	4	0
31	483	7	10000	4	1	0	4	0
29	484	7	10000	4	1	0	4	0
30	485	7	10000	4	1	0	4	0
29	486	7	10000	4	1	0	4	0
29	487	7	10000	4	1	0	4	0
30	488	7	10000	4	1	0	4	0
29	489	7	10000	4	1	0	4	0
30	490	7	10000	4	1	0	4	0
29	491	7	10000	4	1	0	4	0
28	492	7	10000	4	1	0	4	0
29	493	7	10000	4	1	0	4	0
30	494	7	10000	4	1	0	4	0
30	495	7	10000	4	1	0	4	0
29	496	7	10000	4	1	0	4	0
29	497	7	10000	4	1	0	4	0
30	498	7	10000	4	1	0	4	0
29	499	7	10000	4	1	0	4	0
29	500	7	10000	4	1	0	4	0
30	501	7	10000	4	1	0	4	1
29	502	7	10000	4	1	0	4	1
30	503	7	10000	4	1	0	4	1
27	504	7	10000	4	1	0	4	1
29	505	7	10000	4	1	0	4	1
29	506	7	10000	4	1	0	4	1
29	507	7	10000	4	1	0	4	1
30	508	7	10000	4	1	0	4	1
31	509	7	10000	4	1	0	4	1
30	510	7	10000	4	1	0	4	1
30	511	7	10000	4	1	0	4	1
30	512	7	10000	4	1	0	4	1
29	513	7	10000	4	1	0	4	1
33	514	7	10000	4	1	0	4	1
32	515	7	10000	4	1	0	4	1
32	516	7	10000	4	1	0	4	1
31	517	7	10000	4	1	0	4	1
31	518	7	10000	4	1	0	4	1
32	519	7	10000	4	1	0	4	1
31	520	7	10000	4	1	0	4	1
33	521	7	10000	4	1	0	4	1
33	522	7	10000	4	1	0	4	1
33	523	7	10000	4	1	0	4	1
32	524	7	10000	4	1	0	4	1
32	525	7	10000	4	1	0	4	1
32	526	7	10000	4	1	0	4	1
32	527	7	10000	4	1	0	4	1
32	528	7	10000	4	1	0	4	1
32	529	7	10000	4	1	0	4	1
33	530	7	10000	4	1	0	4	1
32	531	7	10000	4	1	0	4	1
33	532	7	10000	4	1	0	4	1
32	533	7	10000	4	1	0	4	1
35	534	7	10000	4	1	0	4	1
35	535	7	10000	4	1	0	4	1
33	536	7	10000	4	1	0	4	1
32	537	7	10000	4	1	0	4	1
34	538	7	10000	4	1	0	4	1
32	539	7	10000	4	1	0	4	1
32	540	7	10000	4	1	0	4	1
33	541	7	10000	4	1	0	4	1
33	542	7	10000	4	1	0	4	1
33	543	7	10000	4	1	0	4	1
31	544	7	10000	4	1	0	4	1
32	545	7	10000	4	1	0	4	1
32	546	7	10000	4	1	0	4	1
32	547	7	10000	4	1	0	4	1
32	548	7	10000	4	1	0	4	1
32	549	7	10000	4	1	0	4	1
32	550	7	10000	4	1	0	4	1
32	551	7	10000	4	1	0	4	0
31	552	7	10000	4	1	0	4	0
31	553	7	10000	4	1	0	4	0
32	554	7	10000	4	1	0	4	0
31	555	7	10000	4	1	0	4	0
32	556	7	10000	4	1	0	4	0
31	557	7	10000	4	1	0	4	0
30	558	7	10000	4	1	0	4	0
30	559	7	10000	4	1	0	4	0
30	560	7	10000	4	1	0	4	0
31	561	7	10000	4	1	0	4	0
32	562	7	10000	4	1	0	4	0
31	563	7	10000	4	1	0	4	0
30	564	7	10000	4	1	0	4	0
30	565	7	10000	4	1	0	4	0
29	566	7	10000	4	1	0	4	0
31	567	7	10000	4	1	0	4	0
30	568	7	10000	4	1	0	4	0
30	569	7	10000	4	1	0	4	0
31	570	7	10000	4	1	0	4	0
31	571	7	10000	4	1	0	4	0
31	572	7	10000	4	1	0	4	0
34	573	7	10000	4	1	0	4	0
49	574	7	10000	4	1	0	4	0
91	575	7	10000	4	1	0	4	0
132	576	7	10000	4	1	0	4	0
135	577	7	10000	4	1	0	4	0
156	578	7	10000	4	1	0	4	0
241	579	7	10000	4	1	0	4	0
282	580	7	10000	4	1	0	4	0
300	581	7	10000	4	1	0	4	0
303	582	7	10000	4	1	0	4	0
324	583	7	10000	4	1	0	4	0
323	584	7	10000	4	1	0	4	0
358	585	7	10000	4	1	0	4	0
405	586	7	10000	4	1	0	4	0
423	587	7	10000	4	1	0	4	0
530	588	7	10000	4	1	0	4	0
600	589	7	10000	4	1	0	4	0
615	590	7	10000	4	1	0	4	0
670	591	7	10000	4	1	0	4	0
701	592	7	10000	4	1	0	4	0
707	593	7	10000	4	1	0	4	0
743	594	7	10000	4	1	0	4	0
741	595	7	10000	4	1	0	4	0
731	596	7	10000	4	1	0	4	0
745	597	7	10000	4	1	0	4	0
791	598	7	10000	4	1	0	4	0
820	599	7	10000	4	1	0	4	0
795	600	7	10000	4	1	0	4	0
762	601	7	10000	4	1	0	4	0
784	602	7	10000	4	1	0	4	0
784	603	7	10000	4	1	0	4	0
811	604	7	10000	4	1	0	4	0
940	605	7	10000	4	1	0	4	0
1017	606	7	10000	4	1	0	4	0
1038	607	7	10000	4	1	0	4	0
1041	608	7	10000	4	1	0	4	0
1032	609	7	10000	4	1	0	4	0
996	610	7	10000	4	1	0	4	0
984	611	7	10000	4	1	0	4	0
970	612	7	10000	4	1	0	4	0
930	613	7	10000	4	1	0	4	0
928	614	7	10000	4	1	0	4	0
953	615	7	10000	4	1	0	4	0
989	616	7	10000	4	1	0	4	0
1049	617	7	10000	4	1	0	4	0
1066	618	7	10000	4	1	0	4	0
1091	619	7	10000	4	1	0	4	0
1107	620	7	10000	4	1	0	4	0
1092	621	7	10000	4	1	0	4	0
1080	622	7	10000	4	1	0	4	0
1080	623	7	10000	4	1	0	4	0
1087	624	7	10000	4	1	0	4	0
1105	625	7	10000	4	1	0	4	0
1120	626	7	10000	4	1	0	4	0
1132	627	7	10000	4	1	0	4	0
1138	628	7	10000	4	1	0	4	0
1139	629	7	10000	4	1	0	4	0
1138	630	7	10000	4	1	0	4	0
1130	631	7	10000	4	1	0	4	0
1116	632	7	10000	4	1	0	4	0
1100	633	7	10000	4	1	0	4	0
1082	634	7	10000	4	1	0	4	0
1062	635	7	10000	4	1	0	4	0
1032	636	7	10000	4	1	0	4	0
995	637	7	10000	4	1	0	4	0
956	638	7	10000	4	1	0	4	0
921	639	7	10000	4	1	0	4	0
900	640	7	10000	4	1	0	4	0
886	641	7	10000	4	1	0	4	0
878	642	7	10000	4	1	0	4	0
877	643	7	10000	4	1	0	4	0
846	644	7	10000	4	1	0	4	0
822	645	7	10000	4	1	0	4	0
790	646	7	10000	4	1	0	4	0
763	647	7	10000	4	1	0	4	0
752	648	7	10000	4	1	0	4	0
755	649	7	10000	4	1	0	4	0
763	650	7	10000	4	1	0	4	0
761	651	7	10000	4	1	0	4	0
760	652	7	10000	4	1	0	4	0
761	653	7	10000	4	1	0	4	0
763	654	7	10000	4	1	0	4	0
770	655	7	10000	4	1	0	4	0
781	656	7	10000	4	1	0	4	0
796	657	7	10000	4	1	0	4	0
814	658	7	10000	4	1	0	4	0
825	659	7	10000	4	1	0	4	0
836	660	7	10000	4	1	0	4	0
846	661	7	10000	4	1	0	4	0
850	662	7	10000	4	1	0	4	0
857	663	7	10000	4	1	0	4	0
863	664	7	10000	4	1	0	4	0
867	665	7	10000	4	1	0	4	0
870	666	7	10000	4	1	0	4	0
862	667	7	10000	4	1	0	4	0
855	668	7	10000	4	1	0	4	0
862	669	7	10000	4	1	0	4	0
877	670	7	10000	4	1	0	4	0
893	671	7	10000	4	1	0	4	0
901	672	7	10000	4	1	0	4	0
904	673	7	10000	4	1	0	4	0
909	674	7	10000	4	1	0	4	0
907	675	7	10000	4	1	0	4	0
908	676	7	10000	4	1	0	4	0
907	677	7	10000	4	1	0	4	0
903	678	7	10000	4	1	0	4	0
900	679	7	10000	4	1	0	4	0
893	680	7	10000	4	1	0	4	0
885	681	7	10000	4	1	0	4	0
875	682	7	10000	4	1	0	4	0
853	683	7	10000	4	1	0	4	0
831	684	7	10000	4	1	0	4	0
812	685	7	10000	4	1	0	4	0
790	686	7	10000	4	1	0	4	0
767	687	7	10000	4	1	0	4	0
744	688	7	10000	4	1	0	4	0
722	689	7	10000	4	1	0	4	0
702	690	7	10000	4	1	0	4	0
678	691	7	10000	4	1	0	4	0
658	692	7	10000	4	1	0	4	0
641	693	7	10000	4	1	0	4	0
625	694	7	10000	4	1	0	4	0
609	695	7	10000	4	1	0	4	0
590	696	7	10000	4	1	0	4	0
572	697	7	10000	4	1	0	4	0
555	698	7	10000	4	1	0	4	0
534	699	7	10000	4	1	0	4	0
513	700	7	10000	4	1	0	4	0
492	701	7	10000	4	1	0	4	0
472	702	7	10000	4	1	0	4	0
452	703	7	10000	4	1	0	4	0
435	704	7	10000	4	1	0	4	0
422	705	7	10000	4	1	0	4	0
409	706	7	10000	4	1	0	4	0
403	707	7	10000	4	1	0	4	0
395	708	7	10000	4	1	0	4	0
386	709	7	10000	4	1	0	4	0
380	710	7	10000	4	1	0	4	0
370	711	7	10000	4	1	0	4	0
361	712	7	10000	4	1	0	4	0
352	713	7	10000	4	1	0	4	0
345	714	7	10000	4	1	0	4	0
338	715	7	10000	4	1	0	4	0
330	716	7	10000	4	1	0	4	0
322	717	7	10000	4	1	0	4	0
316	718	7	10000	4	1	0	4	0
309	719	7	10000	4	1	0	4	0
306	720	7	10000	4	1	0	4	0
303	721	7	10000	4	1	0	4	0
301	722	7	10000	4	1	0	4	0
303	723	7	10000	4	1	0	4	0
302	724	7	10000	4	1	0	4	0
304	725	7	10000	4	1	0	4	0
307	726	7	10000	4	1	0	4	0
309	727	7	10000	4	1	0	4	0
315	728	7	10000	4	1	0	4	0
318	729	7	10000	4	1	0	4	0
320	730	7	10000	4	1	0	4	0
321	731	7	10000	4	1	0	4	0
319	732	7	10000	4	1	0	4	0
320	733	7	10000	4	1	0	4	0
321	734	7	10000	4	1	0	4	0
317	735	7	10000	4	1	0	4	0
315	736	7	10000	4	1	0	4	0
307	737	7	10000	4	1	0	4	0
300	738	7	10000	4	1	0	4	0
295	739	7	10000	4	1	0	4	0
292	740	7	10000	4	1	0	4	0
291	741	7	10000	4	1	0	4	0
290	742	7	10000	4	1	0	4	0
290	743	7	10000	4	1	0	4	0
289	744	7	10000	4	1	0	4	0
289	745	7	10000	4	1	0	4	0
291	746	7	10000	4	1	0	4	0
292	747	7	10000	4	1	0	4	0
289	748	7	10000	4	1	0	4	0
291	749	7	10000	4	1	0	4	0
289	750	7	10000	4	1	0	4	0
284	751	7	10000	4	1	0	4	0
282	752	7	10000	4	1	0	4	0
276	753	7	10000	4	1	0	4	0
273	754	7	10000	4	1	0	4	0
269	755	7	10000	4	1	0	4	0
262	756	7	10000	4	1	0	4	0
256	757	7	10000	4	1	0	4	0
248	758	7	10000	4	1	0	4	0
240	759	7	10000	4	1	0	4	0
235	760	7	10000	4	1	0	4	0
227	761	7	10000	4	1	0	4	0
219	762	7	10000	4	1	0	4	0
216	763	7	10000	4	1	0	4	0
212	764	7	10000	4	1	0	4	0
214	765	7	10000	4	1	0	4	0
212	766	7	10000	4	1	0	4	0
206	767	7	10000	4	1	0	4	0
199	768	7	10000	4	1	0	4	0
190	769	7	10000	4	1	0	4	0
188	770	7	10000	4	1	0	4	0
192	771	7	10000	4	1	0	4	0
193	772	7	10000	4	1	0	4	0
191	773	7	10000	4	1	0	4	0
186	774	7	10000	4	1	0	4	0
177	775	7	10000	4	1	0	4	0
172	776	7	10000	4	1	0	4	0
165	777	7	10000	4	1	0	4	0
159	778	7	10000	4	1	0	4	0
155	779	7	10000	4	1	0	4	0
149	780	7	10000	4	1	0	4	0
147	781	7	10000	4	1	0	4	0
149	782	7	10000	4	1	0	4	0
151	783	7	10000	4	1	0	4	0
149	784	7	10000	4	1	0	4	0
144	785	7	10000	4	1	0	4	0
139	786	7	10000	4	1	0	4	0
136	787	7	10000	4	1	0	4	0
131	788	7	10000	4	1	0	4	0
131	789	7	10000	4	1	0	4	0
128	790	7	10000	4	1	0	4	0
120	791	7	10000	4	1	0	4	0
116	792	7	10000	4	1	0	4	0
113	793	7	10000	4	1	0	4	0
110	794	7	10000	4	1	0	4	0
105	795	7	10000	4	1	0	4	0
103	796	7	10000	4	1	0	4	0
99	797	7	10000	4	1	0	4	0
95	798	7	10000	4	1	0	4	0
92	799	7	10000	4	1	0	4	0
91	800	7	10000	4	1	0	4	0
89	801	7	10000	4	1	0	4	0
88	802	7	10000	4	1	0	4	0
87	803	7	10000	4	1	0	4	0
87	804	7	10000	4	1	0	4	0
88	805	7	10000	4	1	0	4	0
85	806	7	10000	4	1	0	4	0
83	807	7	10000	4	1	0	4	0
82	808	7	10000	4	1	0	4	0
80	809	7	10000	4	1	0	4	0
79	810	7	10000	4	1	0	4	0
76	811	7	10000	4	1	0	4	0
72	812	7	10000	4	1	0	4	0
74	813	7	10000	4	1	0	4	0
75	814	7	10000	4	1	0	4	0
73	815	7	10000	4	1	0	4	0
72	816	7	10000	4	1	0	4	0
68	817	7	10000	4	1	0	4	0
67	818	7	10000	4	1	0	4	0
66	819	7	10000	4	1	0	4	0
64	820	7	10000	4	1	0	4	0
64	821	7	10000	4	1	0	4	0
62	822	7	10000	4	1	0	4	0
60	823	7	10000	4	1	0	4	0
61	824	7	10000	4	1	0	4	0
61	825	7	10000	4	1	0	4	0
62	826	7	10000	4	1	0	4	0
63	827	7	10000	4	1	0	4	0
62	828	7	10000	4	1	0	4	0
64	829	7	10000	4	1	0	4	0
63	830	7	10000	4	1	0	4	0
61	831	7	10000	4	1	0	4	0
59	832	7	10000	4	1	0	4	0
60	833	7	10000	4	1	0	4	0
61	834	7	10000	4	1	0	4	0
60	835	7	10000	4	1	0	4	0
62	836	7	10000	4	1	0	4	0
60	837	7	10000	4	1	0	4	0
61	838	7	10000	4	1	0	4	0
61	839	7	10000	4	1	0	4	0
60	840	7	10000	4	1	0	4	0
59	841	7	10000	4	1	0	4	0
59	842	7	10000	4	1	0	4	0
57	843	7	10000	4	1	0	4	0
53	844	7	10000	4	1	0	4	0
54	845	7	10000	4	1	0	4	0
55	846	7	10000	4	1	0	4	0
55	847	7	10000	4	1	0	4	0
55	848	7	10000	4	1	0	4	0
53	849	7	10000	4	1	0	4	0
53	850	7	10000	4	1	0	4	0
52	851	7	10000	4	1	0	4	0
50	852	7	10000	4	1	0	4	0
49	853	7	10000	4	1	0	4	0
51	854	7	10000	4	1	0	4	0
50	855	7	10000	4	1	0	4	0
50	856	7	10000	4	1	0	4	0
51	857	7	10000	4	1	0	4	0
50	858	7	10000	4	1	0	4	0
50	859	7	10000	4	1	0	4	0
48	860	7	10000	4	1	0	4	0
50	861	7	10000	4	1	0	4	0
48	862	7	10000	4	1	0	4	0
48	863	7	10000	4	1	0	4	0
48	864	7	10000	4	1	0	4	0
48	865	7	10000	4	1	0	4	0
50	866	7	10000	4	1	0	4	0
51	867	7	10000	4	1	0	4	0
49	868	7	10000	4	1	0	4	0
50	869	7	10000	4	1	0	4	0
49	870	7	10000	4	1	0	4	0
47	871	7	10000	4	1	0	4	0
46	872	7	10000	4	1	0	4	0
46	873	7	10000	4	1	0	4	0
47	874	7	10000	4	1	0	4	0
46	875	7	10000	4	1	0	4	0
45	876	7	10000	4	1	0	4	0
44	877	7	10000	4	1	0	4	0
46	878	7	10000	4	1	0	4	0
46	879	7	10000	4	1	0	4	0
46	880	7	10000	4	1	0	4	0
47	881	7	10000	4	1	0	4	0
46	882	7	10000	4	1	0	4	0
45	883	7	10000	4	1	0	4	0
43	884	7	10000	4	1	0	4	0
44	885	7	10000	4	1	0	4	0
43	886	7	10000	4	1	0	4	0
44	887	7	10000	4	1	0	4	0
45	888	7	10000	4	1	0	4	0
44	889	7	10000	4	1	0	4	0
44	890	7	10000	4	1	0	4	0
42	891	7	10000	4	1	0	4	0
42	892	7	10000	4	1	0	4	0
41	893	7	10000	4	1	0	4	0
42	894	7	10000	4	1	0	4	0
42	895	7	10000	4	1	0	4	0
41	896	7	10000	4	1	0	4	0
40	897	7	10000	4	1	0	4	0
40	898	7	10000	4	1	0	4	0
40	899	7	10000	4	1	0	4	0
39	900	7	10000	4	1	0	4	0
41	901	7	10000	4	1	0	4	0
39	902	7	10000	4	1	0	4	0
40	903	7	10000	4	1	0	4	0
38	904	7	10000	4	1	0	4	0
38	905	7	10000	4	1	0	4	0
40	906	7	10000	4	1	0	4	0
40	907	7	10000	4	1	0	4	0
39	908	7	10000	4	1	0	4	0
40	909	7	10000	4	1	0	4	0
39	910	7	10000	4	1	0	4	0
39	911	7	10000	4	1	0	4	0
39	912	7	10000	4	1	0	4	0
38	913	7	10000	4	1	0	4	0
39	914	7	10000	4	1	0	4	0
39	915	7	10000	4	1	0	4	0
40	916	7	10000	4	1	0	4	0
39	917	7	10000	4	1	0	4	0
41	918	7	10000	4	1	0	4	0
42	919	7	10000	4	1	0	4	0
40	920	7	10000	4	1	0	4	0
40	921	7	10000	4	1	0	4	0
42	922	7	10000	4	1	0	4	0
40	923	7	10000	4	1	0	4	0
37	924	7	10000	4	1	0	4	0
38	925	7	10000	4	1	0	4	0
37	926	7	10000	4	1	0	4	0
37	927	7	10000	4	1	0	4	0
38	928	7	10000	4	1	0	4	0
37	929	7	10000	4	1	0	4	0
38	930	7	10000	4	1	0	4	0
36	931	7	10000	4	1	0	4	0
35	932	7	10000	4	1	0	4	0
35	933	7	10000	4	1	0	4	0
38	934	7	10000	4	1	0	4	0
38	935	7	10000	4	1	0	4	0
37	936	7	10000	4	1	0	4	0
39	937	7	10000	4	1	0	4	0
38	938	7	10000	4	1	0	4	0
39	939	7	10000	4	1	0	4	0
40	940	7	10000	4	1	0	4	0
40	941	7	10000	4	1	0	4	0
40	942	7	10000	4	1	0	4	0
42	943	7	10000	4	1	0	4	0
40	944	7	10000	4	1	0	4	0
39	945	7	10000	4	1	0	4	0
41	946	7	10000	4	1	0	4	0
39	947	7	10000	4	1	0	4	0
39	948	7	10000	4	1	0	4	0
40	949	7	10000	4	1	0	4	0
39	950	7	10000	4	1	0	4	0
40	951	7	10000	4	1	0	4	0
40	952	7	10000	4	1	0	4	0
38	953	7	10000	4	1	0	4	0
40	954	7	10000	4	1	0	4	0
40	955	7	10000	4	1	0	4	0
39	956	7	10000	4	1	0	4	0
39	957	7	10000	4	1	0	4	0
41	958	7	10000	4	1	0	4	0
41	959	7	10000	4	1	0	4	0
40	960	7	10000	4	1	0	4	0
40	961	7	10000	4	1	0	4	0
41	962	7	10000	4	1	0	4	0
40	963	7	10000	4	1	0	4	0
39	964	7	10000	4	1	0	4	0
38	965	7	10000	4	1	0	4	0
38	966	7	10000	4	1	0	4	0
38	967	7	10000	4	1	0	4	0
37	968	7	10000	4	1	0	4	0
37	969	7	10000	4	1	0	4	0
37	970	7	10000	4	1	0	4	0
35	971	7	10000	4	1	0	4	0
35	972	7	10000	4	1	0	4	0
35	973	7	10000	4	1	0	4	0
39	974	7	10000	4	1	0	4	0
38	975	7	10000	4	1	0	4	0
37	976	7	10000	4	1	0	4	0
37	977	7	10000	4	1	0	4	0
37	978	7	10000	4	1	0	4	0
38	979	7	10000	4	1	0	4	0
38	980	7	10000	4	1	0	4	0
38	981	7	10000	4	1	0	4	0
38	982	7	10000	4	1	0	4	0
38	983	7	10000	4	1	0	4	0
36	984	7	10000	4	1	0	4	0
36	985	7	10000	4	1	0	4	0
37	986	7	10000	4	1	0	4	0
36	987	7	10000	4	1	0	4	0
36	988	7	10000	4	1	0	4	0
36	989	7	10000	4	1	0	4	0
34	990	7	10000	4	1	0	4	0
34	991	7	10000	4	1	0	4	0
34	992	7	10000	4	1	0	4	0
35	993	7	10000	4	1	0	4	0
36	994	7	10000	4	1	0	4	0
34	995	7	10000	4	1	0	4	0
35	996	7	10000	4	1	0	4	0
34	997	7	10000	4	1	0	4	0
36	998	7	10000	4	1	0	4	0
36	999	7	10000	4	1	0	4	0
37	1000	7	10000	4	1	0	4	0
29	1	7	10000	5	1	0	5	0
31	2	7	10000	5	1	0	5	0
31	3	7	10000	5	1	0	5	0
31	4	7	10000	5	1	0	5	0
32	5	7	10000	5	1	0	5	0
33	6	7	10000	5	1	0	5	0
32	7	7	10000	5	1	0	5	0
31	8	7	10000	5	1	0	5	0
32	9	7	10000	5	1	0	5	0
32	10	7	10000	5	1	0	5	0
32	11	7	10000	5	1	0	5	0
32	12	7	10000	5	1	0	5	0
31	13	7	10000	5	1	0	5	0
32	14	7	10000	5	1	0	5	0
31	15	7	10000	5	1	0	5	0
31	16	7	10000	5	1	0	5	0
32	17	7	10000	5	1	0	5	0
32	18	7	10000	5	1	0	5	0
32	19	7	10000	5	1	0	5	0
31	20	7	10000	5	1	0	5	0
31	21	7	10000	5	1	0	5	0
31	22	7	10000	5	1	0	5	0
32	23	7	10000	5	1	0	5	0
32	24	7	10000	5	1	0	5	0
32	25	7	10000	5	1	0	5	0
33	26	7	10000	5	1	0	5	0
32	27	7	10000	5	1	0	5	0
32	28	7	10000	5	1	0	5	0
33	29	7	10000	5	1	0	5	0
33	30	7	10000	5	1	0	5	0
33	31	7	10000	5	1	0	5	0
33	32	7	10000	5	1	0	5	0
32	33	7	10000	5	1	0	5	0
34	34	7	10000	5	1	0	5	0
34	35	7	10000	5	1	0	5	0
34	36	7	10000	5	1	0	5	0
35	37	7	10000	5	1	0	5	0
34	38	7	10000	5	1	0	5	0
33	39	7	10000	5	1	0	5	0
32	40	7	10000	5	1	0	5	0
32	41	7	10000	5	1	0	5	0
32	42	7	10000	5	1	0	5	0
32	43	7	10000	5	1	0	5	0
32	44	7	10000	5	1	0	5	0
32	45	7	10000	5	1	0	5	0
32	46	7	10000	5	1	0	5	0
32	47	7	10000	5	1	0	5	0
32	48	7	10000	5	1	0	5	0
32	49	7	10000	5	1	0	5	0
34	50	7	10000	5	1	0	5	0
34	51	7	10000	5	1	0	5	0
33	52	7	10000	5	1	0	5	0
33	53	7	10000	5	1	0	5	0
33	54	7	10000	5	1	0	5	0
33	55	7	10000	5	1	0	5	0
34	56	7	10000	5	1	0	5	0
33	57	7	10000	5	1	0	5	0
33	58	7	10000	5	1	0	5	0
33	59	7	10000	5	1	0	5	0
31	60	7	10000	5	1	0	5	0
31	61	7	10000	5	1	0	5	0
32	62	7	10000	5	1	0	5	0
32	63	7	10000	5	1	0	5	0
32	64	7	10000	5	1	0	5	0
32	65	7	10000	5	1	0	5	0
32	66	7	10000	5	1	0	5	0
32	67	7	10000	5	1	0	5	0
31	68	7	10000	5	1	0	5	0
31	69	7	10000	5	1	0	5	0
33	70	7	10000	5	1	0	5	0
33	71	7	10000	5	1	0	5	0
32	72	7	10000	5	1	0	5	0
33	73	7	10000	5	1	0	5	0
32	74	7	10000	5	1	0	5	0
32	75	7	10000	5	1	0	5	0
33	76	7	10000	5	1	0	5	0
32	77	7	10000	5	1	0	5	0
31	78	7	10000	5	1	0	5	0
32	79	7	10000	5	1	0	5	0
29	80	7	10000	5	1	0	5	0
29	81	7	10000	5	1	0	5	0
30	82	7	10000	5	1	0	5	0
31	83	7	10000	5	1	0	5	0
31	84	7	10000	5	1	0	5	0
31	85	7	10000	5	1	0	5	0
32	86	7	10000	5	1	0	5	0
32	87	7	10000	5	1	0	5	0
32	88	7	10000	5	1	0	5	0
32	89	7	10000	5	1	0	5	0
33	90	7	10000	5	1	0	5	0
32	91	7	10000	5	1	0	5	0
31	92	7	10000	5	1	0	5	0
32	93	7	10000	5	1	0	5	0
31	94	7	10000	5	1	0	5	0
32	95	7	10000	5	1	0	5	0
32	96	7	10000	5	1	0	5	0
33	97	7	10000	5	1	0	5	0
33	98	7	10000	5	1	0	5	0
33	99	7	10000	5	1	0	5	0
32	100	7	10000	5	1	0	5	0
32	101	7	10000	5	1	0	5	0
32	102	7	10000	5	1	0	5	0
32	103	7	10000	5	1	0	5	0
33	104	7	10000	5	1	0	5	0
32	105	7	10000	5	1	0	5	0
32	106	7	10000	5	1	0	5	0
32	107	7	10000	5	1	0	5	0
31	108	7	10000	5	1	0	5	0
31	109	7	10000	5	1	0	5	0
32	110	7	10000	5	1	0	5	0
31	111	7	10000	5	1	0	5	0
31	112	7	10000	5	1	0	5	0
31	113	7	10000	5	1	0	5	0
32	114	7	10000	5	1	0	5	0
33	115	7	10000	5	1	0	5	0
33	116	7	10000	5	1	0	5	0
33	117	7	10000	5	1	0	5	0
33	118	7	10000	5	1	0	5	0
32	119	7	10000	5	1	0	5	0
32	120	7	10000	5	1	0	5	0
33	121	7	10000	5	1	0	5	0
32	122	7	10000	5	1	0	5	0
33	123	7	10000	5	1	0	5	0
32	124	7	10000	5	1	0	5	0
32	125	7	10000	5	1	0	5	0
33	126	7	10000	5	1	0	5	0
32	127	7	10000	5	1	0	5	0
31	128	7	10000	5	1	0	5	0
32	129	7	10000	5	1	0	5	0
33	130	7	10000	5	1	0	5	0
31	131	7	10000	5	1	0	5	0
32	132	7	10000	5	1	0	5	0
32	133	7	10000	5	1	0	5	0
30	134	7	10000	5	1	0	5	0
31	135	7	10000	5	1	0	5	0
31	136	7	10000	5	1	0	5	0
32	137	7	10000	5	1	0	5	0
33	138	7	10000	5	1	0	5	0
31	139	7	10000	5	1	0	5	0
29	140	7	10000	5	1	0	5	0
30	141	7	10000	5	1	0	5	0
31	142	7	10000	5	1	0	5	0
31	143	7	10000	5	1	0	5	0
31	144	7	10000	5	1	0	5	0
31	145	7	10000	5	1	0	5	0
30	146	7	10000	5	1	0	5	0
30	147	7	10000	5	1	0	5	0
30	148	7	10000	5	1	0	5	0
30	149	7	10000	5	1	0	5	0
32	150	7	10000	5	1	0	5	0
30	151	7	10000	5	1	0	5	0
31	152	7	10000	5	1	0	5	0
30	153	7	10000	5	1	0	5	0
29	154	7	10000	5	1	0	5	0
30	155	7	10000	5	1	0	5	0
30	156	7	10000	5	1	0	5	0
30	157	7	10000	5	1	0	5	0
31	158	7	10000	5	1	0	5	0
30	159	7	10000	5	1	0	5	0
29	160	7	10000	5	1	0	5	0
30	161	7	10000	5	1	0	5	0
29	162	7	10000	5	1	0	5	0
31	163	7	10000	5	1	0	5	0
31	164	7	10000	5	1	0	5	0
30	165	7	10000	5	1	0	5	0
31	166	7	10000	5	1	0	5	0
32	167	7	10000	5	1	0	5	0
30	168	7	10000	5	1	0	5	0
32	169	7	10000	5	1	0	5	0
33	170	7	10000	5	1	0	5	0
33	171	7	10000	5	1	0	5	0
32	172	7	10000	5	1	0	5	0
33	173	7	10000	5	1	0	5	0
33	174	7	10000	5	1	0	5	0
33	175	7	10000	5	1	0	5	0
33	176	7	10000	5	1	0	5	0
32	177	7	10000	5	1	0	5	0
34	178	7	10000	5	1	0	5	0
32	179	7	10000	5	1	0	5	0
31	180	7	10000	5	1	0	5	0
31	181	7	10000	5	1	0	5	0
31	182	7	10000	5	1	0	5	0
32	183	7	10000	5	1	0	5	0
32	184	7	10000	5	1	0	5	0
32	185	7	10000	5	1	0	5	0
32	186	7	10000	5	1	0	5	0
31	187	7	10000	5	1	0	5	0
29	188	7	10000	5	1	0	5	0
32	189	7	10000	5	1	0	5	0
31	190	7	10000	5	1	0	5	0
31	191	7	10000	5	1	0	5	0
31	192	7	10000	5	1	0	5	0
30	193	7	10000	5	1	0	5	0
31	194	7	10000	5	1	0	5	0
31	195	7	10000	5	1	0	5	0
30	196	7	10000	5	1	0	5	0
31	197	7	10000	5	1	0	5	0
31	198	7	10000	5	1	0	5	0
30	199	7	10000	5	1	0	5	0
30	200	7	10000	5	1	0	5	0
30	201	7	10000	5	1	0	5	0
31	202	7	10000	5	1	0	5	0
31	203	7	10000	5	1	0	5	0
31	204	7	10000	5	1	0	5	0
30	205	7	10000	5	1	0	5	0
32	206	7	10000	5	1	0	5	0
30	207	7	10000	5	1	0	5	0
30	208	7	10000	5	1	0	5	0
31	209	7	10000	5	1	0	5	0
31	210	7	10000	5	1	0	5	0
32	211	7	10000	5	1	0	5	0
31	212	7	10000	5	1	0	5	0
32	213	7	10000	5	1	0	5	0
32	214	7	10000	5	1	0	5	0
31	215	7	10000	5	1	0	5	0
31	216	7	10000	5	1	0	5	0
33	217	7	10000	5	1	0	5	0
32	218	7	10000	5	1	0	5	0
31	219	7	10000	5	1	0	5	0
31	220	7	10000	5	1	0	5	0
30	221	7	10000	5	1	0	5	0
31	222	7	10000	5	1	0	5	0
32	223	7	10000	5	1	0	5	0
31	224	7	10000	5	1	0	5	0
32	225	7	10000	5	1	0	5	0
32	226	7	10000	5	1	0	5	0
32	227	7	10000	5	1	0	5	0
32	228	7	10000	5	1	0	5	0
32	229	7	10000	5	1	0	5	0
33	230	7	10000	5	1	0	5	0
34	231	7	10000	5	1	0	5	0
32	232	7	10000	5	1	0	5	0
31	233	7	10000	5	1	0	5	0
33	234	7	10000	5	1	0	5	0
32	235	7	10000	5	1	0	5	0
32	236	7	10000	5	1	0	5	0
32	247	7	10000	5	1	0	5	0
32	248	7	10000	5	1	0	5	0
32	249	7	10000	5	1	0	5	0
30	250	7	10000	5	1	0	5	0
30	251	7	10000	5	1	0	5	0
32	252	7	10000	5	1	0	5	0
31	253	7	10000	5	1	0	5	0
31	254	7	10000	5	1	0	5	0
31	255	7	10000	5	1	0	5	0
31	256	7	10000	5	1	0	5	0
32	257	7	10000	5	1	0	5	0
31	258	7	10000	5	1	0	5	0
31	256	7	10000	5	1	0	5	0
32	257	7	10000	5	1	0	5	0
32	258	7	10000	5	1	0	5	0
32	259	7	10000	5	1	0	5	0
32	260	7	10000	5	1	0	5	0
31	261	7	10000	5	1	0	5	0
31	262	7	10000	5	1	0	5	0
32	263	7	10000	5	1	0	5	0
32	266	7	10000	5	1	0	5	0
32	267	7	10000	5	1	0	5	0
32	268	7	10000	5	1	0	5	0
30	269	7	10000	5	1	0	5	0
31	270	7	10000	5	1	0	5	0
31	271	7	10000	5	1	0	5	0
31	272	7	10000	5	1	0	5	0
32	273	7	10000	5	1	0	5	0
32	274	7	10000	5	1	0	5	0
31	275	7	10000	5	1	0	5	0
31	276	7	10000	5	1	0	5	0
30	277	7	10000	5	1	0	5	0
30	272	7	10000	5	1	0	5	0
32	273	7	10000	5	1	0	5	0
31	274	7	10000	5	1	0	5	0
32	275	7	10000	5	1	0	5	0
32	278	7	10000	5	1	0	5	0
31	279	7	10000	5	1	0	5	0
32	280	7	10000	5	1	0	5	0
33	281	7	10000	5	1	0	5	0
32	282	7	10000	5	1	0	5	0
32	283	7	10000	5	1	0	5	0
32	282	7	10000	5	1	0	5	0
29	283	7	10000	5	1	0	5	0
30	284	7	10000	5	1	0	5	0
30	285	7	10000	5	1	0	5	0
30	286	7	10000	5	1	0	5	0
31	287	7	10000	5	1	0	5	0
31	289	7	10000	5	1	0	5	0
32	290	7	10000	5	1	0	5	0
32	291	7	10000	5	1	0	5	0
31	292	7	10000	5	1	0	5	0
31	293	7	10000	5	1	0	5	0
32	294	7	10000	5	1	0	5	0
31	293	7	10000	5	1	0	5	0
31	294	7	10000	5	1	0	5	0
31	295	7	10000	5	1	0	5	0
31	296	7	10000	5	1	0	5	0
31	299	7	10000	5	1	0	5	0
31	300	7	10000	5	1	0	5	0
31	301	7	10000	5	1	0	5	0
32	302	7	10000	5	1	0	5	0
31	303	7	10000	5	1	0	5	0
29	304	7	10000	5	1	0	5	0
31	305	7	10000	5	1	0	5	0
30	306	7	10000	5	1	0	5	0
30	307	7	10000	5	1	0	5	0
30	308	7	10000	5	1	0	5	0
32	309	7	10000	5	1	0	5	0
31	310	7	10000	5	1	0	5	0
32	310	7	10000	5	1	0	5	0
31	311	7	10000	5	1	0	5	0
31	312	7	10000	5	1	0	5	0
32	313	7	10000	5	1	0	5	0
32	316	7	10000	5	1	0	5	0
31	317	7	10000	5	1	0	5	0
31	318	7	10000	5	1	0	5	0
32	319	7	10000	5	1	0	5	0
32	320	7	10000	5	1	0	5	0
31	321	7	10000	5	1	0	5	0
30	321	7	10000	5	1	0	5	0
32	322	7	10000	5	1	0	5	0
30	323	7	10000	5	1	0	5	0
28	324	7	10000	5	1	0	5	0
30	325	7	10000	5	1	0	5	0
29	326	7	10000	5	1	0	5	0
29	328	7	10000	5	1	0	5	0
29	329	7	10000	5	1	0	5	0
31	330	7	10000	5	1	0	5	0
32	331	7	10000	5	1	0	5	0
31	332	7	10000	5	1	0	5	0
31	333	7	10000	5	1	0	5	0
32	332	7	10000	5	1	0	5	0
32	333	7	10000	5	1	0	5	0
32	334	7	10000	5	1	0	5	0
33	335	7	10000	5	1	0	5	0
31	336	7	10000	5	1	0	5	0
31	337	7	10000	5	1	0	5	0
32	335	7	10000	5	1	0	5	0
31	336	7	10000	5	1	0	5	0
31	337	7	10000	5	1	0	5	0
32	338	7	10000	5	1	0	5	0
31	339	7	10000	5	1	0	5	0
30	340	7	10000	5	1	0	5	0
30	341	7	10000	5	1	0	5	0
29	342	7	10000	5	1	0	5	0
30	343	7	10000	5	1	0	5	0
30	344	7	10000	5	1	0	5	0
29	345	7	10000	5	1	0	5	0
30	346	7	10000	5	1	0	5	0
29	347	7	10000	5	1	0	5	0
30	348	7	10000	5	1	0	5	0
30	349	7	10000	5	1	0	5	0
32	350	7	10000	5	1	0	5	0
31	351	7	10000	5	1	0	5	0
32	352	7	10000	5	1	0	5	0
30	353	7	10000	5	1	0	5	0
30	354	7	10000	5	1	0	5	0
31	355	7	10000	5	1	0	5	0
30	356	7	10000	5	1	0	5	0
31	357	7	10000	5	1	0	5	0
32	358	7	10000	5	1	0	5	0
29	359	7	10000	5	1	0	5	0
29	360	7	10000	5	1	0	5	0
30	361	7	10000	5	1	0	5	0
29	362	7	10000	5	1	0	5	0
30	363	7	10000	5	1	0	5	0
31	364	7	10000	5	1	0	5	0
32	365	7	10000	5	1	0	5	0
31	366	7	10000	5	1	0	5	0
30	367	7	10000	5	1	0	5	0
30	368	7	10000	5	1	0	5	0
31	369	7	10000	5	1	0	5	0
32	370	7	10000	5	1	0	5	0
32	371	7	10000	5	1	0	5	0
32	372	7	10000	5	1	0	5	0
32	373	7	10000	5	1	0	5	0
32	374	7	10000	5	1	0	5	0
33	375	7	10000	5	1	0	5	0
33	376	7	10000	5	1	0	5	0
35	377	7	10000	5	1	0	5	0
34	378	7	10000	5	1	0	5	0
33	379	7	10000	5	1	0	5	0
33	380	7	10000	5	1	0	5	0
32	381	7	10000	5	1	0	5	0
32	382	7	10000	5	1	0	5	0
33	383	7	10000	5	1	0	5	0
32	384	7	10000	5	1	0	5	0
33	385	7	10000	5	1	0	5	0
32	386	7	10000	5	1	0	5	0
32	387	7	10000	5	1	0	5	0
32	388	7	10000	5	1	0	5	0
33	389	7	10000	5	1	0	5	0
34	390	7	10000	5	1	0	5	0
34	391	7	10000	5	1	0	5	0
33	392	7	10000	5	1	0	5	0
33	393	7	10000	5	1	0	5	0
33	394	7	10000	5	1	0	5	0
34	395	7	10000	5	1	0	5	0
35	396	7	10000	5	1	0	5	0
34	397	7	10000	5	1	0	5	0
35	398	7	10000	5	1	0	5	0
35	399	7	10000	5	1	0	5	0
33	400	7	10000	5	1	0	5	0
32	401	7	10000	5	1	0	5	0
33	402	7	10000	5	1	0	5	0
33	403	7	10000	5	1	0	5	0
35	404	7	10000	5	1	0	5	0
36	405	7	10000	5	1	0	5	0
34	406	7	10000	5	1	0	5	0
32	407	7	10000	5	1	0	5	0
33	408	7	10000	5	1	0	5	0
33	409	7	10000	5	1	0	5	0
34	410	7	10000	5	1	0	5	0
34	411	7	10000	5	1	0	5	0
33	412	7	10000	5	1	0	5	0
33	413	7	10000	5	1	0	5	0
33	414	7	10000	5	1	0	5	0
32	415	7	10000	5	1	0	5	0
32	416	7	10000	5	1	0	5	0
32	417	7	10000	5	1	0	5	0
32	418	7	10000	5	1	0	5	0
32	419	7	10000	5	1	0	5	0
30	420	7	10000	5	1	0	5	0
31	421	7	10000	5	1	0	5	0
31	422	7	10000	5	1	0	5	0
32	423	7	10000	5	1	0	5	0
32	424	7	10000	5	1	0	5	0
32	425	7	10000	5	1	0	5	0
33	426	7	10000	5	1	0	5	0
33	427	7	10000	5	1	0	5	0
32	428	7	10000	5	1	0	5	0
34	429	7	10000	5	1	0	5	0
35	430	7	10000	5	1	0	5	0
34	431	7	10000	5	1	0	5	0
36	432	7	10000	5	1	0	5	0
35	433	7	10000	5	1	0	5	0
35	434	7	10000	5	1	0	5	0
35	435	7	10000	5	1	0	5	0
35	436	7	10000	5	1	0	5	0
35	437	7	10000	5	1	0	5	0
36	438	7	10000	5	1	0	5	0
34	439	7	10000	5	1	0	5	0
33	440	7	10000	5	1	0	5	0
33	441	7	10000	5	1	0	5	0
33	442	7	10000	5	1	0	5	0
34	443	7	10000	5	1	0	5	0
34	444	7	10000	5	1	0	5	0
33	445	7	10000	5	1	0	5	0
32	446	7	10000	5	1	0	5	0
33	447	7	10000	5	1	0	5	0
32	448	7	10000	5	1	0	5	0
32	449	7	10000	5	1	0	5	0
33	450	7	10000	5	1	0	5	0
32	451	7	10000	5	1	0	5	0
32	452	7	10000	5	1	0	5	0
31	453	7	10000	5	1	0	5	0
31	454	7	10000	5	1	0	5	0
31	455	7	10000	5	1	0	5	0
31	456	7	10000	5	1	0	5	0
31	457	7	10000	5	1	0	5	0
33	458	7	10000	5	1	0	5	0
31	459	7	10000	5	1	0	5	0
29	460	7	10000	5	1	0	5	0
30	461	7	10000	5	1	0	5	0
30	462	7	10000	5	1	0	5	0
30	463	7	10000	5	1	0	5	0
31	464	7	10000	5	1	0	5	0
30	465	7	10000	5	1	0	5	0
30	466	7	10000	5	1	0	5	0
30	467	7	10000	5	1	0	5	0
29	468	7	10000	5	1	0	5	0
31	469	7	10000	5	1	0	5	0
32	470	7	10000	5	1	0	5	0
30	471	7	10000	5	1	0	5	0
31	472	7	10000	5	1	0	5	0
30	473	7	10000	5	1	0	5	0
30	474	7	10000	5	1	0	5	0
31	475	7	10000	5	1	0	5	0
31	476	7	10000	5	1	0	5	0
31	477	7	10000	5	1	0	5	0
32	478	7	10000	5	1	0	5	0
30	479	7	10000	5	1	0	5	0
29	480	7	10000	5	1	0	5	0
30	481	7	10000	5	1	0	5	0
30	482	7	10000	5	1	0	5	0
30	483	7	10000	5	1	0	5	0
31	484	7	10000	5	1	0	5	0
31	485	7	10000	5	1	0	5	0
31	486	7	10000	5	1	0	5	0
30	487	7	10000	5	1	0	5	0
30	488	7	10000	5	1	0	5	0
32	489	7	10000	5	1	0	5	0
32	490	7	10000	5	1	0	5	0
31	491	7	10000	5	1	0	5	0
32	492	7	10000	5	1	0	5	0
31	493	7	10000	5	1	0	5	0
31	494	7	10000	5	1	0	5	0
31	495	7	10000	5	1	0	5	0
32	496	7	10000	5	1	0	5	0
32	497	7	10000	5	1	0	5	0
32	498	7	10000	5	1	0	5	0
32	499	7	10000	5	1	0	5	0
31	500	7	10000	5	1	0	5	0
31	501	7	10000	5	1	0	5	1
31	502	7	10000	5	1	0	5	1
32	503	7	10000	5	1	0	5	1
31	504	7	10000	5	1	0	5	1
30	505	7	10000	5	1	0	5	1
31	506	7	10000	5	1	0	5	1
30	507	7	10000	5	1	0	5	1
30	508	7	10000	5	1	0	5	1
31	509	7	10000	5	1	0	5	1
32	510	7	10000	5	1	0	5	1
32	511	7	10000	5	1	0	5	1
32	512	7	10000	5	1	0	5	1
30	513	7	10000	5	1	0	5	1
31	514	7	10000	5	1	0	5	1
30	515	7	10000	5	1	0	5	1
29	516	7	10000	5	1	0	5	1
31	517	7	10000	5	1	0	5	1
31	518	7	10000	5	1	0	5	1
30	519	7	10000	5	1	0	5	1
30	520	7	10000	5	1	0	5	1
29	521	7	10000	5	1	0	5	1
28	522	7	10000	5	1	0	5	1
30	523	7	10000	5	1	0	5	1
29	524	7	10000	5	1	0	5	1
29	525	7	10000	5	1	0	5	1
30	526	7	10000	5	1	0	5	1
28	527	7	10000	5	1	0	5	1
28	528	7	10000	5	1	0	5	1
29	529	7	10000	5	1	0	5	1
31	530	7	10000	5	1	0	5	1
31	531	7	10000	5	1	0	5	1
30	532	7	10000	5	1	0	5	1
30	533	7	10000	5	1	0	5	1
31	534	7	10000	5	1	0	5	1
31	535	7	10000	5	1	0	5	1
30	536	7	10000	5	1	0	5	1
32	537	7	10000	5	1	0	5	1
32	538	7	10000	5	1	0	5	1
31	539	7	10000	5	1	0	5	1
31	540	7	10000	5	1	0	5	1
31	541	7	10000	5	1	0	5	1
32	542	7	10000	5	1	0	5	1
32	543	7	10000	5	1	0	5	1
31	544	7	10000	5	1	0	5	1
32	545	7	10000	5	1	0	5	1
32	546	7	10000	5	1	0	5	1
30	547	7	10000	5	1	0	5	1
30	548	7	10000	5	1	0	5	1
31	549	7	10000	5	1	0	5	1
31	550	7	10000	5	1	0	5	1
32	551	7	10000	5	1	0	5	0
31	552	7	10000	5	1	0	5	0
30	553	7	10000	5	1	0	5	0
31	554	7	10000	5	1	0	5	0
32	555	7	10000	5	1	0	5	0
32	556	7	10000	5	1	0	5	0
32	557	7	10000	5	1	0	5	0
32	558	7	10000	5	1	0	5	0
32	559	7	10000	5	1	0	5	0
30	560	7	10000	5	1	0	5	0
32	561	7	10000	5	1	0	5	0
32	562	7	10000	5	1	0	5	0
32	563	7	10000	5	1	0	5	0
32	564	7	10000	5	1	0	5	0
33	565	7	10000	5	1	0	5	0
32	566	7	10000	5	1	0	5	0
31	567	7	10000	5	1	0	5	0
32	568	7	10000	5	1	0	5	0
32	569	7	10000	5	1	0	5	0
33	570	7	10000	5	1	0	5	0
32	571	7	10000	5	1	0	5	0
32	572	7	10000	5	1	0	5	0
33	573	7	10000	5	1	0	5	0
32	574	7	10000	5	1	0	5	0
32	575	7	10000	5	1	0	5	0
32	576	7	10000	5	1	0	5	0
32	577	7	10000	5	1	0	5	0
31	578	7	10000	5	1	0	5	0
31	579	7	10000	5	1	0	5	0
29	580	7	10000	5	1	0	5	0
33	581	7	10000	5	1	0	5	0
59	582	7	10000	5	1	0	5	0
89	583	7	10000	5	1	0	5	0
103	584	7	10000	5	1	0	5	0
104	585	7	10000	5	1	0	5	0
109	586	7	10000	5	1	0	5	0
141	587	7	10000	5	1	0	5	0
181	588	7	10000	5	1	0	5	0
229	589	7	10000	5	1	0	5	0
368	590	7	10000	5	1	0	5	0
467	591	7	10000	5	1	0	5	0
491	592	7	10000	5	1	0	5	0
495	593	7	10000	5	1	0	5	0
541	594	7	10000	5	1	0	5	0
666	595	7	10000	5	1	0	5	0
758	596	7	10000	5	1	0	5	0
753	597	7	10000	5	1	0	5	0
754	598	7	10000	5	1	0	5	0
754	599	7	10000	5	1	0	5	0
806	600	7	10000	5	1	0	5	0
809	601	7	10000	5	1	0	5	0
808	602	7	10000	5	1	0	5	0
846	603	7	10000	5	1	0	5	0
825	604	7	10000	5	1	0	5	0
834	605	7	10000	5	1	0	5	0
868	606	7	10000	5	1	0	5	0
845	607	7	10000	5	1	0	5	0
856	608	7	10000	5	1	0	5	0
847	609	7	10000	5	1	0	5	0
847	610	7	10000	5	1	0	5	0
863	611	7	10000	5	1	0	5	0
827	612	7	10000	5	1	0	5	0
833	613	7	10000	5	1	0	5	0
891	614	7	10000	5	1	0	5	0
937	615	7	10000	5	1	0	5	0
917	616	7	10000	5	1	0	5	0
927	617	7	10000	5	1	0	5	0
962	618	7	10000	5	1	0	5	0
946	619	7	10000	5	1	0	5	0
910	620	7	10000	5	1	0	5	0
887	621	7	10000	5	1	0	5	0
867	622	7	10000	5	1	0	5	0
872	623	7	10000	5	1	0	5	0
895	624	7	10000	5	1	0	5	0
923	625	7	10000	5	1	0	5	0
946	626	7	10000	5	1	0	5	0
978	627	7	10000	5	1	0	5	0
1007	628	7	10000	5	1	0	5	0
1026	629	7	10000	5	1	0	5	0
1035	630	7	10000	5	1	0	5	0
1041	631	7	10000	5	1	0	5	0
1048	632	7	10000	5	1	0	5	0
1048	633	7	10000	5	1	0	5	0
1046	634	7	10000	5	1	0	5	0
1044	635	7	10000	5	1	0	5	0
1035	636	7	10000	5	1	0	5	0
1024	637	7	10000	5	1	0	5	0
1009	638	7	10000	5	1	0	5	0
986	639	7	10000	5	1	0	5	0
958	640	7	10000	5	1	0	5	0
925	641	7	10000	5	1	0	5	0
886	642	7	10000	5	1	0	5	0
847	643	7	10000	5	1	0	5	0
810	644	7	10000	5	1	0	5	0
778	645	7	10000	5	1	0	5	0
750	646	7	10000	5	1	0	5	0
723	647	7	10000	5	1	0	5	0
703	648	7	10000	5	1	0	5	0
687	649	7	10000	5	1	0	5	0
679	650	7	10000	5	1	0	5	0
673	651	7	10000	5	1	0	5	0
666	652	7	10000	5	1	0	5	0
663	653	7	10000	5	1	0	5	0
658	654	7	10000	5	1	0	5	0
650	655	7	10000	5	1	0	5	0
652	656	7	10000	5	1	0	5	0
656	657	7	10000	5	1	0	5	0
660	658	7	10000	5	1	0	5	0
669	659	7	10000	5	1	0	5	0
679	660	7	10000	5	1	0	5	0
695	661	7	10000	5	1	0	5	0
714	662	7	10000	5	1	0	5	0
733	663	7	10000	5	1	0	5	0
757	664	7	10000	5	1	0	5	0
783	665	7	10000	5	1	0	5	0
803	666	7	10000	5	1	0	5	0
823	667	7	10000	5	1	0	5	0
841	668	7	10000	5	1	0	5	0
854	669	7	10000	5	1	0	5	0
867	670	7	10000	5	1	0	5	0
874	671	7	10000	5	1	0	5	0
875	672	7	10000	5	1	0	5	0
876	673	7	10000	5	1	0	5	0
874	674	7	10000	5	1	0	5	0
872	675	7	10000	5	1	0	5	0
870	676	7	10000	5	1	0	5	0
863	677	7	10000	5	1	0	5	0
858	678	7	10000	5	1	0	5	0
851	679	7	10000	5	1	0	5	0
839	680	7	10000	5	1	0	5	0
832	681	7	10000	5	1	0	5	0
822	682	7	10000	5	1	0	5	0
810	683	7	10000	5	1	0	5	0
800	684	7	10000	5	1	0	5	0
789	685	7	10000	5	1	0	5	0
774	686	7	10000	5	1	0	5	0
761	687	7	10000	5	1	0	5	0
743	688	7	10000	5	1	0	5	0
725	689	7	10000	5	1	0	5	0
707	690	7	10000	5	1	0	5	0
682	691	7	10000	5	1	0	5	0
660	692	7	10000	5	1	0	5	0
635	693	7	10000	5	1	0	5	0
608	694	7	10000	5	1	0	5	0
584	695	7	10000	5	1	0	5	0
560	696	7	10000	5	1	0	5	0
535	697	7	10000	5	1	0	5	0
512	698	7	10000	5	1	0	5	0
488	699	7	10000	5	1	0	5	0
465	700	7	10000	5	1	0	5	0
445	701	7	10000	5	1	0	5	0
427	702	7	10000	5	1	0	5	0
407	703	7	10000	5	1	0	5	0
389	704	7	10000	5	1	0	5	0
374	705	7	10000	5	1	0	5	0
357	706	7	10000	5	1	0	5	0
341	707	7	10000	5	1	0	5	0
330	708	7	10000	5	1	0	5	0
319	709	7	10000	5	1	0	5	0
310	710	7	10000	5	1	0	5	0
306	711	7	10000	5	1	0	5	0
300	712	7	10000	5	1	0	5	0
296	713	7	10000	5	1	0	5	0
296	714	7	10000	5	1	0	5	0
294	715	7	10000	5	1	0	5	0
292	716	7	10000	5	1	0	5	0
293	717	7	10000	5	1	0	5	0
291	718	7	10000	5	1	0	5	0
289	719	7	10000	5	1	0	5	0
285	720	7	10000	5	1	0	5	0
280	721	7	10000	5	1	0	5	0
279	722	7	10000	5	1	0	5	0
275	723	7	10000	5	1	0	5	0
270	724	7	10000	5	1	0	5	0
269	725	7	10000	5	1	0	5	0
263	726	7	10000	5	1	0	5	0
259	727	7	10000	5	1	0	5	0
258	728	7	10000	5	1	0	5	0
255	729	7	10000	5	1	0	5	0
254	730	7	10000	5	1	0	5	0
254	731	7	10000	5	1	0	5	0
251	732	7	10000	5	1	0	5	0
253	733	7	10000	5	1	0	5	0
258	734	7	10000	5	1	0	5	0
259	735	7	10000	5	1	0	5	0
263	736	7	10000	5	1	0	5	0
265	737	7	10000	5	1	0	5	0
264	738	7	10000	5	1	0	5	0
265	739	7	10000	5	1	0	5	0
262	740	7	10000	5	1	0	5	0
259	741	7	10000	5	1	0	5	0
257	742	7	10000	5	1	0	5	0
251	743	7	10000	5	1	0	5	0
244	744	7	10000	5	1	0	5	0
239	745	7	10000	5	1	0	5	0
233	746	7	10000	5	1	0	5	0
228	747	7	10000	5	1	0	5	0
223	748	7	10000	5	1	0	5	0
220	749	7	10000	5	1	0	5	0
219	750	7	10000	5	1	0	5	0
217	751	7	10000	5	1	0	5	0
215	752	7	10000	5	1	0	5	0
215	753	7	10000	5	1	0	5	0
213	754	7	10000	5	1	0	5	0
212	755	7	10000	5	1	0	5	0
214	756	7	10000	5	1	0	5	0
213	757	7	10000	5	1	0	5	0
212	758	7	10000	5	1	0	5	0
211	759	7	10000	5	1	0	5	0
206	760	7	10000	5	1	0	5	0
204	761	7	10000	5	1	0	5	0
201	762	7	10000	5	1	0	5	0
194	763	7	10000	5	1	0	5	0
190	764	7	10000	5	1	0	5	0
