value	EMG	Stimulus	EMG_sensitivity	Total_Trial_Nr	practise	acq	probe_nr	Startle_Probe
37	1	0	10000	1	1	0	1	0
41	2	0	10000	1	1	0	1	0
42	3	0	10000	1	1	0	1	0
42	4	0	10000	1	1	0	1	0
43	5	0	10000	1	1	0	1	0
44	6	0	10000	1	1	0	1	0
45	7	0	10000	1	1	0	1	0
43	8	0	10000	1	1	0	1	0
42	9	0	10000	1	1	0	1	0
42	10	0	10000	1	1	0	1	0
44	11	0	10000	1	1	0	1	0
48	12	0	10000	1	1	0	1	0
51	13	0	10000	1	1	0	1	0
51	14	0	10000	1	1	0	1	0
51	15	0	10000	1	1	0	1	0
52	16	0	10000	1	1	0	1	0
50	17	0	10000	1	1	0	1	0
53	18	0	10000	1	1	0	1	0
56	19	0	10000	1	1	0	1	0
66	20	0	10000	1	1	0	1	0
68	20	0	10000	1	1	0	1	0
69	21	0	10000	1	1	0	1	0
68	23	0	10000	1	1	0	1	0
67	24	0	10000	1	1	0	1	0
66	25	0	10000	1	1	0	1	0
88	26	0	10000	1	1	0	1	0
111	27	0	10000	1	1	0	1	0
115	28	0	10000	1	1	0	1	0
130	29	0	10000	1	1	0	1	0
143	30	0	10000	1	1	0	1	0
153	30	0	10000	1	1	0	1	0
154	31	0	10000	1	1	0	1	0
156	33	0	10000	1	1	0	1	0
163	34	0	10000	1	1	0	1	0
165	35	0	10000	1	1	0	1	0
164	36	0	10000	1	1	0	1	0
158	37	0	10000	1	1	0	1	0
154	38	0	10000	1	1	0	1	0
152	39	0	10000	1	1	0	1	0
170	40	0	10000	1	1	0	1	0
176	40	0	10000	1	1	0	1	0
171	41	0	10000	1	1	0	1	0
168	43	0	10000	1	1	0	1	0
170	44	0	10000	1	1	0	1	0
167	45	0	10000	1	1	0	1	0
160	46	0	10000	1	1	0	1	0
156	47	0	10000	1	1	0	1	0
153	48	0	10000	1	1	0	1	0
156	49	0	10000	1	1	0	1	0
180	50	0	10000	1	1	0	1	0
201	50	0	10000	1	1	0	1	0
201	51	0	10000	1	1	0	1	0
204	53	0	10000	1	1	0	1	0
208	54	0	10000	1	1	0	1	0
202	55	0	10000	1	1	0	1	0
209	56	0	10000	1	1	0	1	0
213	57	0	10000	1	1	0	1	0
236	58	0	10000	1	1	0	1	0
237	59	0	10000	1	1	0	1	0
245	60	0	10000	1	1	0	1	0
237	60	0	10000	1	1	0	1	0
226	61	0	10000	1	1	0	1	0
216	63	0	10000	1	1	0	1	0
208	64	0	10000	1	1	0	1	0
201	65	0	10000	1	1	0	1	0
193	66	0	10000	1	1	0	1	0
194	67	0	10000	1	1	0	1	0
196	68	0	10000	1	1	0	1	0
197	69	0	10000	1	1	0	1	0
197	70	0	10000	1	1	0	1	0
194	70	0	10000	1	1	0	1	0
186	71	0	10000	1	1	0	1	0
179	73	0	10000	1	1	0	1	0
174	74	0	10000	1	1	0	1	0
172	75	0	10000	1	1	0	1	0
168	76	0	10000	1	1	0	1	0
162	77	0	10000	1	1	0	1	0
158	78	0	10000	1	1	0	1	0
151	79	0	10000	1	1	0	1	0
145	80	0	10000	1	1	0	1	0
141	80	0	10000	1	1	0	1	0
137	81	0	10000	1	1	0	1	0
133	83	0	10000	1	1	0	1	0
130	84	0	10000	1	1	0	1	0
127	85	0	10000	1	1	0	1	0
123	86	0	10000	1	1	0	1	0
120	87	0	10000	1	1	0	1	0
115	88	0	10000	1	1	0	1	0
110	89	0	10000	1	1	0	1	0
106	90	0	10000	1	1	0	1	0
106	90	0	10000	1	1	0	1	0
105	91	0	10000	1	1	0	1	0
103	93	0	10000	1	1	0	1	0
102	94	0	10000	1	1	0	1	0
102	95	0	10000	1	1	0	1	0
106	96	0	10000	1	1	0	1	0
104	97	0	10000	1	1	0	1	0
104	98	0	10000	1	1	0	1	0
102	99	0	10000	1	1	0	1	0
99	100	0	10000	1	1	0	1	0
98	100	0	10000	1	1	0	1	0
98	101	0	10000	1	1	0	1	0
100	103	0	10000	1	1	0	1	0
98	104	0	10000	1	1	0	1	0
96	105	0	10000	1	1	0	1	0
95	106	0	10000	1	1	0	1	0
95	107	0	10000	1	1	0	1	0
94	108	0	10000	1	1	0	1	0
92	109	0	10000	1	1	0	1	0
88	110	0	10000	1	1	0	1	0
87	110	0	10000	1	1	0	1	0
85	111	0	10000	1	1	0	1	0
85	113	0	10000	1	1	0	1	0
82	114	0	10000	1	1	0	1	0
79	115	0	10000	1	1	0	1	0
76	116	0	10000	1	1	0	1	0
71	117	0	10000	1	1	0	1	0
72	118	0	10000	1	1	0	1	0
75	119	0	10000	1	1	0	1	0
77	120	0	10000	1	1	0	1	0
79	120	0	10000	1	1	0	1	0
76	121	0	10000	1	1	0	1	0
76	123	0	10000	1	1	0	1	0
77	124	0	10000	1	1	0	1	0
77	125	0	10000	1	1	0	1	0
76	126	0	10000	1	1	0	1	0
77	127	0	10000	1	1	0	1	0
78	128	0	10000	1	1	0	1	0
79	129	0	10000	1	1	0	1	0
80	130	0	10000	1	1	0	1	0
81	130	0	10000	1	1	0	1	0
82	131	0	10000	1	1	0	1	0
83	133	0	10000	1	1	0	1	0
82	134	0	10000	1	1	0	1	0
83	135	0	10000	1	1	0	1	0
83	136	0	10000	1	1	0	1	0
79	137	0	10000	1	1	0	1	0
79	138	0	10000	1	1	0	1	0
77	139	0	10000	1	1	0	1	0
77	140	0	10000	1	1	0	1	0
77	140	0	10000	1	1	0	1	0
77	141	0	10000	1	1	0	1	0
80	143	0	10000	1	1	0	1	0
81	144	0	10000	1	1	0	1	0
81	145	0	10000	1	1	0	1	0
80	146	0	10000	1	1	0	1	0
78	147	0	10000	1	1	0	1	0
75	148	0	10000	1	1	0	1	0
73	149	0	10000	1	1	0	1	0
71	150	0	10000	1	1	0	1	0
68	150	0	10000	1	1	0	1	0
66	151	0	10000	1	1	0	1	0
64	153	0	10000	1	1	0	1	0
62	154	0	10000	1	1	0	1	0
60	155	0	10000	1	1	0	1	0
60	156	0	10000	1	1	0	1	0
56	157	0	10000	1	1	0	1	0
54	158	0	10000	1	1	0	1	0
52	159	0	10000	1	1	0	1	0
50	160	0	10000	1	1	0	1	0
50	160	0	10000	1	1	0	1	0
49	161	0	10000	1	1	0	1	0
50	163	0	10000	1	1	0	1	0
50	164	0	10000	1	1	0	1	0
48	165	0	10000	1	1	0	1	0
49	166	0	10000	1	1	0	1	0
49	167	0	10000	1	1	0	1	0
51	168	0	10000	1	1	0	1	0
51	169	0	10000	1	1	0	1	0
51	170	0	10000	1	1	0	1	0
51	170	0	10000	1	1	0	1	0
50	171	0	10000	1	1	0	1	0
51	173	0	10000	1	1	0	1	0
54	174	0	10000	1	1	0	1	0
56	175	0	10000	1	1	0	1	0
58	176	0	10000	1	1	0	1	0
56	177	0	10000	1	1	0	1	0
56	178	0	10000	1	1	0	1	0
59	179	0	10000	1	1	0	1	0
61	180	0	10000	1	1	0	1	0
64	180	0	10000	1	1	0	1	0
65	181	0	10000	1	1	0	1	0
67	183	0	10000	1	1	0	1	0
65	184	0	10000	1	1	0	1	0
64	185	0	10000	1	1	0	1	0
62	186	0	10000	1	1	0	1	0
62	187	0	10000	1	1	0	1	0
59	188	0	10000	1	1	0	1	0
57	189	0	10000	1	1	0	1	0
56	190	0	10000	1	1	0	1	0
55	190	0	10000	1	1	0	1	0
53	191	0	10000	1	1	0	1	0
52	193	0	10000	1	1	0	1	0
52	194	0	10000	1	1	0	1	0
49	195	0	10000	1	1	0	1	0
48	196	0	10000	1	1	0	1	0
45	197	0	10000	1	1	0	1	0
44	198	0	10000	1	1	0	1	0
43	199	0	10000	1	1	0	1	0
42	200	0	10000	1	1	0	1	0
40	200	0	10000	1	1	0	1	0
39	201	0	10000	1	1	0	1	0
37	203	0	10000	1	1	0	1	0
36	204	0	10000	1	1	0	1	0
34	205	0	10000	1	1	0	1	0
32	206	0	10000	1	1	0	1	0
34	207	0	10000	1	1	0	1	0
33	208	0	10000	1	1	0	1	0
32	209	0	10000	1	1	0	1	0
31	210	0	10000	1	1	0	1	0
30	210	0	10000	1	1	0	1	0
29	211	0	10000	1	1	0	1	0
28	213	0	10000	1	1	0	1	0
28	214	0	10000	1	1	0	1	0
28	215	0	10000	1	1	0	1	0
28	216	0	10000	1	1	0	1	0
25	217	0	10000	1	1	0	1	0
26	218	0	10000	1	1	0	1	0
25	219	0	10000	1	1	0	1	0
24	220	0	10000	1	1	0	1	0
25	220	0	10000	1	1	0	1	0
25	221	0	10000	1	1	0	1	0
26	223	0	10000	1	1	0	1	0
26	224	0	10000	1	1	0	1	0
25	225	0	10000	1	1	0	1	0
25	226	0	10000	1	1	0	1	0
25	227	0	10000	1	1	0	1	0
24	228	0	10000	1	1	0	1	0
24	229	0	10000	1	1	0	1	0
24	230	0	10000	1	1	0	1	0
24	230	0	10000	1	1	0	1	0
23	231	0	10000	1	1	0	1	0
23	233	0	10000	1	1	0	1	0
24	234	0	10000	1	1	0	1	0
24	235	0	10000	1	1	0	1	0
24	236	0	10000	1	1	0	1	0
22	237	0	10000	1	1	0	1	0
21	238	0	10000	1	1	0	1	0
21	239	0	10000	1	1	0	1	0
22	240	0	10000	1	1	0	1	0
23	240	0	10000	1	1	0	1	0
22	241	0	10000	1	1	0	1	0
24	243	0	10000	1	1	0	1	0
25	244	0	10000	1	1	0	1	0
25	245	0	10000	1	1	0	1	0
26	246	0	10000	1	1	0	1	0
28	247	0	10000	1	1	0	1	0
27	248	0	10000	1	1	0	1	0
26	249	0	10000	1	1	0	1	0
25	250	0	10000	1	1	0	1	0
24	250	0	10000	1	1	0	1	0
23	251	0	10000	1	1	0	1	0
22	253	0	10000	1	1	0	1	0
23	254	0	10000	1	1	0	1	0
22	255	0	10000	1	1	0	1	0
25	256	0	10000	1	1	0	1	0
23	257	0	10000	1	1	0	1	0
22	258	0	10000	1	1	0	1	0
22	259	0	10000	1	1	0	1	0
22	260	0	10000	1	1	0	1	0
21	260	0	10000	1	1	0	1	0
22	261	0	10000	1	1	0	1	0
22	263	0	10000	1	1	0	1	0
20	264	0	10000	1	1	0	1	0
20	265	0	10000	1	1	0	1	0
20	266	0	10000	1	1	0	1	0
21	267	0	10000	1	1	0	1	0
20	268	0	10000	1	1	0	1	0
21	269	0	10000	1	1	0	1	0
20	270	0	10000	1	1	0	1	0
20	270	0	10000	1	1	0	1	0
20	271	0	10000	1	1	0	1	0
21	273	0	10000	1	1	0	1	0
26	274	0	10000	1	1	0	1	0
27	275	0	10000	1	1	0	1	0
28	276	0	10000	1	1	0	1	0
28	277	0	10000	1	1	0	1	0
31	278	0	10000	1	1	0	1	0
32	279	0	10000	1	1	0	1	0
35	280	0	10000	1	1	0	1	0
35	280	0	10000	1	1	0	1	0
36	281	0	10000	1	1	0	1	0
35	283	0	10000	1	1	0	1	0
37	284	0	10000	1	1	0	1	0
37	285	0	10000	1	1	0	1	0
38	286	0	10000	1	1	0	1	0
43	287	0	10000	1	1	0	1	0
42	288	0	10000	1	1	0	1	0
42	289	0	10000	1	1	0	1	0
41	290	0	10000	1	1	0	1	0
41	290	0	10000	1	1	0	1	0
40	291	0	10000	1	1	0	1	0
39	293	0	10000	1	1	0	1	0
40	294	0	10000	1	1	0	1	0
41	295	0	10000	1	1	0	1	0
41	296	0	10000	1	1	0	1	0
37	297	0	10000	1	1	0	1	0
37	298	0	10000	1	1	0	1	0
37	299	0	10000	1	1	0	1	0
36	300	0	10000	1	1	0	1	0
35	300	0	10000	1	1	0	1	0
34	301	0	10000	1	1	0	1	0
35	303	0	10000	1	1	0	1	0
33	304	0	10000	1	1	0	1	0
32	305	0	10000	1	1	0	1	0
31	306	0	10000	1	1	0	1	0
33	307	0	10000	1	1	0	1	0
32	308	0	10000	1	1	0	1	0
32	309	0	10000	1	1	0	1	0
31	310	0	10000	1	1	0	1	0
30	310	0	10000	1	1	0	1	0
31	311	0	10000	1	1	0	1	0
32	313	0	10000	1	1	0	1	0
34	314	0	10000	1	1	0	1	0
32	315	0	10000	1	1	0	1	0
34	316	0	10000	1	1	0	1	0
32	317	0	10000	1	1	0	1	0
32	318	0	10000	1	1	0	1	0
31	319	0	10000	1	1	0	1	0
33	320	0	10000	1	1	0	1	0
33	320	0	10000	1	1	0	1	0
34	321	0	10000	1	1	0	1	0
33	323	0	10000	1	1	0	1	0
32	324	0	10000	1	1	0	1	0
31	325	0	10000	1	1	0	1	0
29	326	0	10000	1	1	0	1	0
31	327	0	10000	1	1	0	1	0
30	328	0	10000	1	1	0	1	0
29	329	0	10000	1	1	0	1	0
28	330	0	10000	1	1	0	1	0
29	330	0	10000	1	1	0	1	0
29	331	0	10000	1	1	0	1	0
29	333	0	10000	1	1	0	1	0
29	334	0	10000	1	1	0	1	0
29	335	0	10000	1	1	0	1	0
30	336	0	10000	1	1	0	1	0
27	337	0	10000	1	1	0	1	0
27	338	0	10000	1	1	0	1	0
27	339	0	10000	1	1	0	1	0
27	340	0	10000	1	1	0	1	0
27	340	0	10000	1	1	0	1	0
26	341	0	10000	1	1	0	1	0
25	343	0	10000	1	1	0	1	0
24	344	0	10000	1	1	0	1	0
25	345	0	10000	1	1	0	1	0
23	346	0	10000	1	1	0	1	0
25	347	0	10000	1	1	0	1	0
28	348	0	10000	1	1	0	1	0
26	349	0	10000	1	1	0	1	0
25	350	0	10000	1	1	0	1	0
25	350	0	10000	1	1	0	1	0
24	351	0	10000	1	1	0	1	0
23	353	0	10000	1	1	0	1	0
23	354	0	10000	1	1	0	1	0
25	355	0	10000	1	1	0	1	0
26	356	0	10000	1	1	0	1	0
24	357	0	10000	1	1	0	1	0
23	358	0	10000	1	1	0	1	0
24	359	0	10000	1	1	0	1	0
24	360	0	10000	1	1	0	1	0
26	360	0	10000	1	1	0	1	0
28	361	0	10000	1	1	0	1	0
29	363	0	10000	1	1	0	1	0
28	364	0	10000	1	1	0	1	0
28	365	0	10000	1	1	0	1	0
28	366	0	10000	1	1	0	1	0
31	367	0	10000	1	1	0	1	0
30	368	0	10000	1	1	0	1	0
30	369	0	10000	1	1	0	1	0
29	370	0	10000	1	1	0	1	0
28	370	0	10000	1	1	0	1	0
27	371	0	10000	1	1	0	1	0
26	373	0	10000	1	1	0	1	0
30	374	0	10000	1	1	0	1	0
31	375	0	10000	1	1	0	1	0
30	376	0	10000	1	1	0	1	0
27	377	0	10000	1	1	0	1	0
27	378	0	10000	1	1	0	1	0
28	379	0	10000	1	1	0	1	0
29	380	0	10000	1	1	0	1	0
31	380	0	10000	1	1	0	1	0
32	381	0	10000	1	1	0	1	0
32	383	0	10000	1	1	0	1	0
32	384	0	10000	1	1	0	1	0
33	385	0	10000	1	1	0	1	0
32	386	0	10000	1	1	0	1	0
33	387	0	10000	1	1	0	1	0
33	388	0	10000	1	1	0	1	0
36	389	0	10000	1	1	0	1	0
41	390	0	10000	1	1	0	1	0
47	390	0	10000	1	1	0	1	0
54	391	0	10000	1	1	0	1	0
55	393	0	10000	1	1	0	1	0
57	394	0	10000	1	1	0	1	0
60	395	0	10000	1	1	0	1	0
63	396	0	10000	1	1	0	1	0
63	397	0	10000	1	1	0	1	0
65	398	0	10000	1	1	0	1	0
67	399	0	10000	1	1	0	1	0
66	400	0	10000	1	1	0	1	0
66	400	0	10000	1	1	0	1	0
66	401	0	10000	1	1	0	1	0
66	403	0	10000	1	1	0	1	0
67	404	0	10000	1	1	0	1	0
66	405	0	10000	1	1	0	1	0
64	406	0	10000	1	1	0	1	0
65	407	0	10000	1	1	0	1	0
63	408	0	10000	1	1	0	1	0
62	409	0	10000	1	1	0	1	0
61	410	0	10000	1	1	0	1	0
59	410	0	10000	1	1	0	1	0
56	411	0	10000	1	1	0	1	0
53	413	0	10000	1	1	0	1	0
52	414	0	10000	1	1	0	1	0
50	415	0	10000	1	1	0	1	0
48	416	0	10000	1	1	0	1	0
47	417	0	10000	1	1	0	1	0
44	418	0	10000	1	1	0	1	0
44	419	0	10000	1	1	0	1	0
45	420	0	10000	1	1	0	1	0
45	420	0	10000	1	1	0	1	0
44	421	0	10000	1	1	0	1	0
44	423	0	10000	1	1	0	1	0
44	424	0	10000	1	1	0	1	0
43	425	0	10000	1	1	0	1	0
41	426	0	10000	1	1	0	1	0
44	427	0	10000	1	1	0	1	0
43	428	0	10000	1	1	0	1	0
42	429	0	10000	1	1	0	1	0
42	430	0	10000	1	1	0	1	0
41	430	0	10000	1	1	0	1	0
39	431	0	10000	1	1	0	1	0
38	433	0	10000	1	1	0	1	0
37	434	0	10000	1	1	0	1	0
38	435	0	10000	1	1	0	1	0
40	436	0	10000	1	1	0	1	0
41	437	0	10000	1	1	0	1	0
40	438	0	10000	1	1	0	1	0
41	439	0	10000	1	1	0	1	0
40	440	0	10000	1	1	0	1	0
39	440	0	10000	1	1	0	1	0
41	441	0	10000	1	1	0	1	0
41	443	0	10000	1	1	0	1	0
38	444	0	10000	1	1	0	1	0
37	445	0	10000	1	1	0	1	0
36	446	0	10000	1	1	0	1	0
37	447	0	10000	1	1	0	1	0
36	448	0	10000	1	1	0	1	0
36	449	0	10000	1	1	0	1	0
36	450	0	10000	1	1	0	1	0
36	450	0	10000	1	1	0	1	0
37	451	0	10000	1	1	0	1	0
36	453	0	10000	1	1	0	1	0
35	454	0	10000	1	1	0	1	0
33	455	0	10000	1	1	0	1	0
33	456	0	10000	1	1	0	1	0
32	457	0	10000	1	1	0	1	0
31	458	0	10000	1	1	0	1	0
33	459	0	10000	1	1	0	1	0
34	460	0	10000	1	1	0	1	0
35	460	0	10000	1	1	0	1	0
37	461	0	10000	1	1	0	1	0
36	463	0	10000	1	1	0	1	0
36	464	0	10000	1	1	0	1	0
36	465	0	10000	1	1	0	1	0
37	466	0	10000	1	1	0	1	0
39	467	0	10000	1	1	0	1	0
37	468	0	10000	1	1	0	1	0
38	469	0	10000	1	1	0	1	0
40	470	0	10000	1	1	0	1	0
43	470	0	10000	1	1	0	1	0
44	471	0	10000	1	1	0	1	0
43	473	0	10000	1	1	0	1	0
43	474	0	10000	1	1	0	1	0
42	475	0	10000	1	1	0	1	0
42	476	0	10000	1	1	0	1	0
38	477	0	10000	1	1	0	1	0
37	478	0	10000	1	1	0	1	0
38	479	0	10000	1	1	0	1	0
38	480	0	10000	1	1	0	1	0
39	480	0	10000	1	1	0	1	0
39	481	0	10000	1	1	0	1	0
39	483	0	10000	1	1	0	1	0
39	484	0	10000	1	1	0	1	0
39	485	0	10000	1	1	0	1	0
40	486	0	10000	1	1	0	1	0
40	487	0	10000	1	1	0	1	0
39	488	0	10000	1	1	0	1	0
37	489	0	10000	1	1	0	1	0
36	490	0	10000	1	1	0	1	0
35	490	0	10000	1	1	0	1	0
33	491	0	10000	1	1	0	1	0
35	493	0	10000	1	1	0	1	0
34	494	0	10000	1	1	0	1	0
34	495	0	10000	1	1	0	1	0
36	496	0	10000	1	1	0	1	0
33	497	0	10000	1	1	0	1	0
33	498	0	10000	1	1	0	1	0
34	499	0	10000	1	1	0	1	0
34	500	0	10000	1	1	0	1	0
34	500	0	10000	1	1	0	1	0
35	501	0	10000	1	1	0	1	0
35	536	0	10000	1	1	0	1	1
37	537	0	10000	1	1	0	1	1
39	538	0	10000	1	1	0	1	1
40	539	0	10000	1	1	0	1	1
43	540	0	10000	1	1	0	1	1
43	541	0	10000	1	1	0	1	1
42	542	0	10000	1	1	0	1	1
41	543	0	10000	1	1	0	1	1
42	544	0	10000	1	1	0	1	1
44	545	0	10000	1	1	0	1	1
44	546	0	10000	1	1	0	1	1
45	547	0	10000	1	1	0	1	1
44	548	0	10000	1	1	0	1	1
45	549	0	10000	1	1	0	1	1
43	550	0	10000	1	1	0	1	1
43	551	0	10000	1	1	0	1	1
42	552	0	10000	1	1	0	1	1
40	553	0	10000	1	1	0	1	1
43	554	0	10000	1	1	0	1	1
45	555	0	10000	1	1	0	1	1
44	556	0	10000	1	1	0	1	1
44	557	0	10000	1	1	0	1	1
43	558	0	10000	1	1	0	1	1
41	559	0	10000	1	1	0	1	1
41	560	0	10000	1	1	0	1	1
39	561	0	10000	1	1	0	1	1
39	562	0	10000	1	1	0	1	1
37	563	0	10000	1	1	0	1	1
35	564	0	10000	1	1	0	1	1
34	565	0	10000	1	1	0	1	1
33	566	0	10000	1	1	0	1	1
32	567	0	10000	1	1	0	1	1
32	568	0	10000	1	1	0	1	1
33	569	0	10000	1	1	0	1	1
31	570	0	10000	1	1	0	1	1
30	571	0	10000	1	1	0	1	1
29	541	0	10000	1	1	0	1	1
31	542	0	10000	1	1	0	1	1
31	543	0	10000	1	1	0	1	1
32	544	0	10000	1	1	0	1	1
34	543	0	10000	1	1	0	1	1
35	544	0	10000	1	1	0	1	1
38	545	0	10000	1	1	0	1	1
40	546	0	10000	1	1	0	1	1
45	547	0	10000	1	1	0	1	1
47	548	0	10000	1	1	0	1	1
48	549	0	10000	1	1	0	1	1
49	550	0	10000	1	1	0	1	1
48	551	0	10000	1	1	0	1	0
49	552	0	10000	1	1	0	1	0
50	553	0	10000	1	1	0	1	0
51	554	0	10000	1	1	0	1	0
53	555	0	10000	1	1	0	1	0
52	556	0	10000	1	1	0	1	0
49	557	0	10000	1	1	0	1	0
49	558	0	10000	1	1	0	1	0
47	559	0	10000	1	1	0	1	0
47	560	0	10000	1	1	0	1	0
47	561	0	10000	1	1	0	1	0
46	562	0	10000	1	1	0	1	0
45	563	0	10000	1	1	0	1	0
42	564	0	10000	1	1	0	1	0
42	565	0	10000	1	1	0	1	0
39	566	0	10000	1	1	0	1	0
43	567	0	10000	1	1	0	1	0
43	568	0	10000	1	1	0	1	0
44	569	0	10000	1	1	0	1	0
43	570	0	10000	1	1	0	1	0
41	570	0	10000	1	1	0	1	0
41	571	0	10000	1	1	0	1	0
40	573	0	10000	1	1	0	1	0
40	574	0	10000	1	1	0	1	0
40	575	0	10000	1	1	0	1	0
39	576	0	10000	1	1	0	1	0
37	577	0	10000	1	1	0	1	0
36	578	0	10000	1	1	0	1	0
36	579	0	10000	1	1	0	1	0
38	580	0	10000	1	1	0	1	0
37	580	0	10000	1	1	0	1	0
36	581	0	10000	1	1	0	1	0
35	583	0	10000	1	1	0	1	0
33	584	0	10000	1	1	0	1	0
32	585	0	10000	1	1	0	1	0
31	586	0	10000	1	1	0	1	0
32	587	0	10000	1	1	0	1	0
31	588	0	10000	1	1	0	1	0
30	589	0	10000	1	1	0	1	0
29	590	0	10000	1	1	0	1	0
29	590	0	10000	1	1	0	1	0
31	591	0	10000	1	1	0	1	0
32	593	0	10000	1	1	0	1	0
34	594	0	10000	1	1	0	1	0
32	595	0	10000	1	1	0	1	0
32	596	0	10000	1	1	0	1	0
30	597	0	10000	1	1	0	1	0
30	598	0	10000	1	1	0	1	0
29	599	0	10000	1	1	0	1	0
29	600	0	10000	1	1	0	1	0
29	600	0	10000	1	1	0	1	0
30	601	0	10000	1	1	0	1	0
32	603	0	10000	1	1	0	1	0
32	604	0	10000	1	1	0	1	0
34	605	0	10000	1	1	0	1	0
33	606	0	10000	1	1	0	1	0
33	607	0	10000	1	1	0	1	0
33	608	0	10000	1	1	0	1	0
33	609	0	10000	1	1	0	1	0
32	610	0	10000	1	1	0	1	0
31	610	0	10000	1	1	0	1	0
31	611	0	10000	1	1	0	1	0
30	613	0	10000	1	1	0	1	0
31	614	0	10000	1	1	0	1	0
31	615	0	10000	1	1	0	1	0
31	616	0	10000	1	1	0	1	0
31	617	0	10000	1	1	0	1	0
30	618	0	10000	1	1	0	1	0
31	619	0	10000	1	1	0	1	0
31	620	0	10000	1	1	0	1	0
32	620	0	10000	1	1	0	1	0
31	621	0	10000	1	1	0	1	0
31	623	0	10000	1	1	0	1	0
30	624	0	10000	1	1	0	1	0
30	625	0	10000	1	1	0	1	0
29	626	0	10000	1	1	0	1	0
31	627	0	10000	1	1	0	1	0
31	628	0	10000	1	1	0	1	0
36	629	0	10000	1	1	0	1	0
44	630	0	10000	1	1	0	1	0
50	630	0	10000	1	1	0	1	0
52	631	0	10000	1	1	0	1	0
53	633	0	10000	1	1	0	1	0
52	634	0	10000	1	1	0	1	0
51	635	0	10000	1	1	0	1	0
52	636	0	10000	1	1	0	1	0
53	637	0	10000	1	1	0	1	0
52	638	0	10000	1	1	0	1	0
51	639	0	10000	1	1	0	1	0
50	640	0	10000	1	1	0	1	0
53	640	0	10000	1	1	0	1	0
54	641	0	10000	1	1	0	1	0
56	643	0	10000	1	1	0	1	0
56	644	0	10000	1	1	0	1	0
61	645	0	10000	1	1	0	1	0
64	646	0	10000	1	1	0	1	0
85	647	0	10000	1	1	0	1	0
102	648	0	10000	1	1	0	1	0
101	649	0	10000	1	1	0	1	0
98	650	0	10000	1	1	0	1	0
96	650	0	10000	1	1	0	1	0
99	651	0	10000	1	1	0	1	0
113	653	0	10000	1	1	0	1	0
116	654	0	10000	1	1	0	1	0
114	655	0	10000	1	1	0	1	0
130	656	0	10000	1	1	0	1	0
143	657	0	10000	1	1	0	1	0
158	658	0	10000	1	1	0	1	0
172	659	0	10000	1	1	0	1	0
171	660	0	10000	1	1	0	1	0
172	660	0	10000	1	1	0	1	0
188	661	0	10000	1	1	0	1	0
228	663	0	10000	1	1	0	1	0
243	664	0	10000	1	1	0	1	0
245	665	0	10000	1	1	0	1	0
255	666	0	10000	1	1	0	1	0
257	667	0	10000	1	1	0	1	0
250	668	0	10000	1	1	0	1	0
239	669	0	10000	1	1	0	1	0
231	670	0	10000	1	1	0	1	0
223	670	0	10000	1	1	0	1	0
218	671	0	10000	1	1	0	1	0
216	673	0	10000	1	1	0	1	0
217	674	0	10000	1	1	0	1	0
213	675	0	10000	1	1	0	1	0
207	676	0	10000	1	1	0	1	0
201	677	0	10000	1	1	0	1	0
192	678	0	10000	1	1	0	1	0
188	679	0	10000	1	1	0	1	0
183	680	0	10000	1	1	0	1	0
175	680	0	10000	1	1	0	1	0
166	681	0	10000	1	1	0	1	0
160	683	0	10000	1	1	0	1	0
154	684	0	10000	1	1	0	1	0
148	685	0	10000	1	1	0	1	0
143	686	0	10000	1	1	0	1	0
140	687	0	10000	1	1	0	1	0
139	688	0	10000	1	1	0	1	0
136	689	0	10000	1	1	0	1	0
134	690	0	10000	1	1	0	1	0
132	690	0	10000	1	1	0	1	0
129	691	0	10000	1	1	0	1	0
130	693	0	10000	1	1	0	1	0
131	694	0	10000	1	1	0	1	0
128	695	0	10000	1	1	0	1	0
123	696	0	10000	1	1	0	1	0
124	697	0	10000	1	1	0	1	0
129	698	0	10000	1	1	0	1	0
134	699	0	10000	1	1	0	1	0
138	700	0	10000	1	1	0	1	0
144	700	0	10000	1	1	0	1	0
153	701	0	10000	1	1	0	1	0
160	703	0	10000	1	1	0	1	0
162	704	0	10000	1	1	0	1	0
166	705	0	10000	1	1	0	1	0
170	706	0	10000	1	1	0	1	0
174	707	0	10000	1	1	0	1	0
175	708	0	10000	1	1	0	1	0
174	709	0	10000	1	1	0	1	0
173	710	0	10000	1	1	0	1	0
170	710	0	10000	1	1	0	1	0
168	711	0	10000	1	1	0	1	0
167	713	0	10000	1	1	0	1	0
167	714	0	10000	1	1	0	1	0
166	715	0	10000	1	1	0	1	0
164	716	0	10000	1	1	0	1	0
161	717	0	10000	1	1	0	1	0
157	718	0	10000	1	1	0	1	0
156	719	0	10000	1	1	0	1	0
155	720	0	10000	1	1	0	1	0
152	720	0	10000	1	1	0	1	0
148	721	0	10000	1	1	0	1	0
142	723	0	10000	1	1	0	1	0
137	724	0	10000	1	1	0	1	0
133	725	0	10000	1	1	0	1	0
130	726	0	10000	1	1	0	1	0
129	727	0	10000	1	1	0	1	0
125	728	0	10000	1	1	0	1	0
120	729	0	10000	1	1	0	1	0
116	730	0	10000	1	1	0	1	0
114	730	0	10000	1	1	0	1	0
110	731	0	10000	1	1	0	1	0
107	733	0	10000	1	1	0	1	0
105	734	0	10000	1	1	0	1	0
100	735	0	10000	1	1	0	1	0
96	736	0	10000	1	1	0	1	0
91	737	0	10000	1	1	0	1	0
88	738	0	10000	1	1	0	1	0
86	739	0	10000	1	1	0	1	0
83	740	0	10000	1	1	0	1	0
80	740	0	10000	1	1	0	1	0
77	741	0	10000	1	1	0	1	0
73	743	0	10000	1	1	0	1	0
70	744	0	10000	1	1	0	1	0
68	745	0	10000	1	1	0	1	0
65	746	0	10000	1	1	0	1	0
65	747	0	10000	1	1	0	1	0
63	748	0	10000	1	1	0	1	0
61	749	0	10000	1	1	0	1	0
62	750	0	10000	1	1	0	1	0
61	750	0	10000	1	1	0	1	0
59	751	0	10000	1	1	0	1	0
59	753	0	10000	1	1	0	1	0
58	754	0	10000	1	1	0	1	0
57	755	0	10000	1	1	0	1	0
56	756	0	10000	1	1	0	1	0
53	757	0	10000	1	1	0	1	0
55	758	0	10000	1	1	0	1	0
55	759	0	10000	1	1	0	1	0
55	760	0	10000	1	1	0	1	0
53	760	0	10000	1	1	0	1	0
52	761	0	10000	1	1	0	1	0
52	763	0	10000	1	1	0	1	0
50	764	0	10000	1	1	0	1	0
48	765	0	10000	1	1	0	1	0
47	766	0	10000	1	1	0	1	0
49	767	0	10000	1	1	0	1	0
48	768	0	10000	1	1	0	1	0
46	769	0	10000	1	1	0	1	0
45	770	0	10000	1	1	0	1	0
44	770	0	10000	1	1	0	1	0
44	771	0	10000	1	1	0	1	0
42	773	0	10000	1	1	0	1	0
41	774	0	10000	1	1	0	1	0
39	775	0	10000	1	1	0	1	0
39	776	0	10000	1	1	0	1	0
38	777	0	10000	1	1	0	1	0
37	778	0	10000	1	1	0	1	0
36	779	0	10000	1	1	0	1	0
35	780	0	10000	1	1	0	1	0
34	780	0	10000	1	1	0	1	0
35	781	0	10000	1	1	0	1	0
35	783	0	10000	1	1	0	1	0
33	784	0	10000	1	1	0	1	0
33	785	0	10000	1	1	0	1	0
32	786	0	10000	1	1	0	1	0
34	787	0	10000	1	1	0	1	0
36	788	0	10000	1	1	0	1	0
38	789	0	10000	1	1	0	1	0
37	790	0	10000	1	1	0	1	0
38	790	0	10000	1	1	0	1	0
37	791	0	10000	1	1	0	1	0
36	793	0	10000	1	1	0	1	0
36	794	0	10000	1	1	0	1	0
37	795	0	10000	1	1	0	1	0
39	796	0	10000	1	1	0	1	0
38	797	0	10000	1	1	0	1	0
37	798	0	10000	1	1	0	1	0
38	799	0	10000	1	1	0	1	0
39	800	0	10000	1	1	0	1	0
39	800	0	10000	1	1	0	1	0
39	801	0	10000	1	1	0	1	0
38	803	0	10000	1	1	0	1	0
38	804	0	10000	1	1	0	1	0
40	805	0	10000	1	1	0	1	0
41	806	0	10000	1	1	0	1	0
45	807	0	10000	1	1	0	1	0
45	808	0	10000	1	1	0	1	0
45	809	0	10000	1	1	0	1	0
44	810	0	10000	1	1	0	1	0
42	810	0	10000	1	1	0	1	0
39	811	0	10000	1	1	0	1	0
39	813	0	10000	1	1	0	1	0
39	814	0	10000	1	1	0	1	0
37	815	0	10000	1	1	0	1	0
37	816	0	10000	1	1	0	1	0
35	817	0	10000	1	1	0	1	0
33	818	0	10000	1	1	0	1	0
33	819	0	10000	1	1	0	1	0
32	820	0	10000	1	1	0	1	0
32	820	0	10000	1	1	0	1	0
35	821	0	10000	1	1	0	1	0
36	823	0	10000	1	1	0	1	0
34	824	0	10000	1	1	0	1	0
33	825	0	10000	1	1	0	1	0
32	826	0	10000	1	1	0	1	0
33	827	0	10000	1	1	0	1	0
33	828	0	10000	1	1	0	1	0
32	829	0	10000	1	1	0	1	0
33	830	0	10000	1	1	0	1	0
32	830	0	10000	1	1	0	1	0
32	831	0	10000	1	1	0	1	0
32	833	0	10000	1	1	0	1	0
32	834	0	10000	1	1	0	1	0
31	835	0	10000	1	1	0	1	0
32	836	0	10000	1	1	0	1	0
32	837	0	10000	1	1	0	1	0
34	838	0	10000	1	1	0	1	0
37	839	0	10000	1	1	0	1	0
36	840	0	10000	1	1	0	1	0
36	840	0	10000	1	1	0	1	0
36	841	0	10000	1	1	0	1	0
36	843	0	10000	1	1	0	1	0
34	844	0	10000	1	1	0	1	0
33	845	0	10000	1	1	0	1	0
32	846	0	10000	1	1	0	1	0
33	847	0	10000	1	1	0	1	0
32	848	0	10000	1	1	0	1	0
31	849	0	10000	1	1	0	1	0
31	850	0	10000	1	1	0	1	0
32	850	0	10000	1	1	0	1	0
33	851	0	10000	1	1	0	1	0
34	853	0	10000	1	1	0	1	0
34	854	0	10000	1	1	0	1	0
36	855	0	10000	1	1	0	1	0
39	856	0	10000	1	1	0	1	0
38	857	0	10000	1	1	0	1	0
37	858	0	10000	1	1	0	1	0
35	859	0	10000	1	1	0	1	0
36	860	0	10000	1	1	0	1	0
36	860	0	10000	1	1	0	1	0
36	861	0	10000	1	1	0	1	0
35	863	0	10000	1	1	0	1	0
34	864	0	10000	1	1	0	1	0
34	865	0	10000	1	1	0	1	0
33	866	0	10000	1	1	0	1	0
34	867	0	10000	1	1	0	1	0
34	868	0	10000	1	1	0	1	0
34	869	0	10000	1	1	0	1	0
32	870	0	10000	1	1	0	1	0
31	870	0	10000	1	1	0	1	0
31	871	0	10000	1	1	0	1	0
30	873	0	10000	1	1	0	1	0
30	874	0	10000	1	1	0	1	0
30	875	0	10000	1	1	0	1	0
30	876	0	10000	1	1	0	1	0
28	877	0	10000	1	1	0	1	0
28	878	0	10000	1	1	0	1	0
28	879	0	10000	1	1	0	1	0
27	880	0	10000	1	1	0	1	0
28	880	0	10000	1	1	0	1	0
27	881	0	10000	1	1	0	1	0
28	883	0	10000	1	1	0	1	0
27	884	0	10000	1	1	0	1	0
27	885	0	10000	1	1	0	1	0
29	886	0	10000	1	1	0	1	0
31	887	0	10000	1	1	0	1	0
31	888	0	10000	1	1	0	1	0
30	889	0	10000	1	1	0	1	0
30	890	0	10000	1	1	0	1	0
29	890	0	10000	1	1	0	1	0
27	891	0	10000	1	1	0	1	0
27	893	0	10000	1	1	0	1	0
29	894	0	10000	1	1	0	1	0
28	895	0	10000	1	1	0	1	0
27	896	0	10000	1	1	0	1	0
26	897	0	10000	1	1	0	1	0
27	898	0	10000	1	1	0	1	0
27	899	0	10000	1	1	0	1	0
27	900	0	10000	1	1	0	1	0
27	900	0	10000	1	1	0	1	0
28	901	0	10000	1	1	0	1	0
27	903	0	10000	1	1	0	1	0
27	904	0	10000	1	1	0	1	0
28	905	0	10000	1	1	0	1	0
30	906	0	10000	1	1	0	1	0
33	907	0	10000	1	1	0	1	0
35	908	0	10000	1	1	0	1	0
36	909	0	10000	1	1	0	1	0
37	910	0	10000	1	1	0	1	0
36	910	0	10000	1	1	0	1	0
37	911	0	10000	1	1	0	1	0
36	913	0	10000	1	1	0	1	0
35	914	0	10000	1	1	0	1	0
35	915	0	10000	1	1	0	1	0
34	916	0	10000	1	1	0	1	0
33	917	0	10000	1	1	0	1	0
34	918	0	10000	1	1	0	1	0
33	919	0	10000	1	1	0	1	0
32	920	0	10000	1	1	0	1	0
33	920	0	10000	1	1	0	1	0
34	921	0	10000	1	1	0	1	0
34	923	0	10000	1	1	0	1	0
33	924	0	10000	1	1	0	1	0
33	925	0	10000	1	1	0	1	0
34	926	0	10000	1	1	0	1	0
35	927	0	10000	1	1	0	1	0
35	928	0	10000	1	1	0	1	0
35	929	0	10000	1	1	0	1	0
34	930	0	10000	1	1	0	1	0
32	930	0	10000	1	1	0	1	0
32	931	0	10000	1	1	0	1	0
32	933	0	10000	1	1	0	1	0
31	934	0	10000	1	1	0	1	0
31	935	0	10000	1	1	0	1	0
31	936	0	10000	1	1	0	1	0
30	937	0	10000	1	1	0	1	0
29	938	0	10000	1	1	0	1	0
29	939	0	10000	1	1	0	1	0
29	940	0	10000	1	1	0	1	0
29	940	0	10000	1	1	0	1	0
27	941	0	10000	1	1	0	1	0
27	943	0	10000	1	1	0	1	0
27	944	0	10000	1	1	0	1	0
26	945	0	10000	1	1	0	1	0
27	946	0	10000	1	1	0	1	0
30	947	0	10000	1	1	0	1	0
29	948	0	10000	1	1	0	1	0
28	949	0	10000	1	1	0	1	0
30	950	0	10000	1	1	0	1	0
32	950	0	10000	1	1	0	1	0
31	951	0	10000	1	1	0	1	0
29	953	0	10000	1	1	0	1	0
32	954	0	10000	1	1	0	1	0
33	955	0	10000	1	1	0	1	0
35	956	0	10000	1	1	0	1	0
32	957	0	10000	1	1	0	1	0
33	958	0	10000	1	1	0	1	0
33	959	0	10000	1	1	0	1	0
33	960	0	10000	1	1	0	1	0
34	960	0	10000	1	1	0	1	0
35	961	0	10000	1	1	0	1	0
34	963	0	10000	1	1	0	1	0
32	964	0	10000	1	1	0	1	0
32	965	0	10000	1	1	0	1	0
30	966	0	10000	1	1	0	1	0
31	967	0	10000	1	1	0	1	0
30	968	0	10000	1	1	0	1	0
29	969	0	10000	1	1	0	1	0
29	970	0	10000	1	1	0	1	0
28	970	0	10000	1	1	0	1	0
27	971	0	10000	1	1	0	1	0
28	973	0	10000	1	1	0	1	0
28	974	0	10000	1	1	0	1	0
30	975	0	10000	1	1	0	1	0
30	976	0	10000	1	1	0	1	0
28	977	0	10000	1	1	0	1	0
27	978	0	10000	1	1	0	1	0
26	979	0	10000	1	1	0	1	0
26	980	0	10000	1	1	0	1	0
25	980	0	10000	1	1	0	1	0
24	981	0	10000	1	1	0	1	0
24	983	0	10000	1	1	0	1	0
22	984	0	10000	1	1	0	1	0
23	985	0	10000	1	1	0	1	0
22	986	0	10000	1	1	0	1	0
24	987	0	10000	1	1	0	1	0
24	988	0	10000	1	1	0	1	0
24	989	0	10000	1	1	0	1	0
23	990	0	10000	1	1	0	1	0
24	990	0	10000	1	1	0	1	0
22	991	0	10000	1	1	0	1	0
22	993	0	10000	1	1	0	1	0
21	994	0	10000	1	1	0	1	0
21	995	0	10000	1	1	0	1	0
21	996	0	10000	1	1	0	1	0
19	997	0	10000	1	1	0	1	0
19	998	0	10000	1	1	0	1	0
19	999	0	10000	1	1	0	1	0
20	1000	0	10000	1	1	0	1	0
19	1000	0	10000	1	1	0	1	0
19	1001	0	10000	1	1	0	1	0
20	5	7	10000	2	1	0	2	0
20	6	7	10000	2	1	0	2	0
19	7	7	10000	2	1	0	2	0
19	8	7	10000	2	1	0	2	0
19	9	7	10000	2	1	0	2	0
20	10	7	10000	2	1	0	2	0
21	8	7	10000	2	1	0	2	0
19	9	7	10000	2	1	0	2	0
20	10	7	10000	2	1	0	2	0
20	11	7	10000	2	1	0	2	0
22	12	7	10000	2	1	0	2	0
22	13	7	10000	2	1	0	2	0
23	14	7	10000	2	1	0	2	0
24	15	7	10000	2	1	0	2	0
23	16	7	10000	2	1	0	2	0
25	17	7	10000	2	1	0	2	0
24	18	7	10000	2	1	0	2	0
25	19	7	10000	2	1	0	2	0
25	20	7	10000	2	1	0	2	0
25	21	7	10000	2	1	0	2	0
24	22	7	10000	2	1	0	2	0
23	23	7	10000	2	1	0	2	0
22	24	7	10000	2	1	0	2	0
22	25	7	10000	2	1	0	2	0
23	26	7	10000	2	1	0	2	0
22	27	7	10000	2	1	0	2	0
22	28	7	10000	2	1	0	2	0
21	29	7	10000	2	1	0	2	0
22	30	7	10000	2	1	0	2	0
22	31	7	10000	2	1	0	2	0
22	32	7	10000	2	1	0	2	0
22	33	7	10000	2	1	0	2	0
21	34	7	10000	2	1	0	2	0
21	35	7	10000	2	1	0	2	0
20	36	7	10000	2	1	0	2	0
20	37	7	10000	2	1	0	2	0
19	38	7	10000	2	1	0	2	0
19	39	7	10000	2	1	0	2	0
20	40	7	10000	2	1	0	2	0
20	41	7	10000	2	1	0	2	0
20	42	7	10000	2	1	0	2	0
20	43	7	10000	2	1	0	2	0
20	44	7	10000	2	1	0	2	0
20	45	7	10000	2	1	0	2	0
19	46	7	10000	2	1	0	2	0
19	47	7	10000	2	1	0	2	0
20	48	7	10000	2	1	0	2	0
19	49	7	10000	2	1	0	2	0
18	50	7	10000	2	1	0	2	0
19	51	7	10000	2	1	0	2	0
19	52	7	10000	2	1	0	2	0
18	53	7	10000	2	1	0	2	0
18	54	7	10000	2	1	0	2	0
19	55	7	10000	2	1	0	2	0
18	56	7	10000	2	1	0	2	0
18	57	7	10000	2	1	0	2	0
19	58	7	10000	2	1	0	2	0
19	59	7	10000	2	1	0	2	0
19	60	7	10000	2	1	0	2	0
19	61	7	10000	2	1	0	2	0
19	62	7	10000	2	1	0	2	0
17	63	7	10000	2	1	0	2	0
17	64	7	10000	2	1	0	2	0
18	65	7	10000	2	1	0	2	0
18	66	7	10000	2	1	0	2	0
20	67	7	10000	2	1	0	2	0
21	68	7	10000	2	1	0	2	0
20	69	7	10000	2	1	0	2	0
18	70	7	10000	2	1	0	2	0
18	71	7	10000	2	1	0	2	0
18	72	7	10000	2	1	0	2	0
19	73	7	10000	2	1	0	2	0
18	74	7	10000	2	1	0	2	0
20	75	7	10000	2	1	0	2	0
19	76	7	10000	2	1	0	2	0
19	77	7	10000	2	1	0	2	0
18	78	7	10000	2	1	0	2	0
18	79	7	10000	2	1	0	2	0
19	80	7	10000	2	1	0	2	0
20	81	7	10000	2	1	0	2	0
19	82	7	10000	2	1	0	2	0
19	83	7	10000	2	1	0	2	0
18	84	7	10000	2	1	0	2	0
18	85	7	10000	2	1	0	2	0
19	86	7	10000	2	1	0	2	0
19	87	7	10000	2	1	0	2	0
20	88	7	10000	2	1	0	2	0
19	89	7	10000	2	1	0	2	0
18	90	7	10000	2	1	0	2	0
19	91	7	10000	2	1	0	2	0
18	92	7	10000	2	1	0	2	0
18	93	7	10000	2	1	0	2	0
18	94	7	10000	2	1	0	2	0
18	95	7	10000	2	1	0	2	0
18	96	7	10000	2	1	0	2	0
18	97	7	10000	2	1	0	2	0
18	98	7	10000	2	1	0	2	0
19	99	7	10000	2	1	0	2	0
20	100	7	10000	2	1	0	2	0
18	101	7	10000	2	1	0	2	0
18	102	7	10000	2	1	0	2	0
17	103	7	10000	2	1	0	2	0
17	104	7	10000	2	1	0	2	0
17	105	7	10000	2	1	0	2	0
18	106	7	10000	2	1	0	2	0
17	107	7	10000	2	1	0	2	0
19	108	7	10000	2	1	0	2	0
20	109	7	10000	2	1	0	2	0
18	110	7	10000	2	1	0	2	0
19	111	7	10000	2	1	0	2	0
20	112	7	10000	2	1	0	2	0
19	113	7	10000	2	1	0	2	0
19	114	7	10000	2	1	0	2	0
19	115	7	10000	2	1	0	2	0
19	116	7	10000	2	1	0	2	0
19	117	7	10000	2	1	0	2	0
20	118	7	10000	2	1	0	2	0
21	119	7	10000	2	1	0	2	0
22	120	7	10000	2	1	0	2	0
20	121	7	10000	2	1	0	2	0
22	122	7	10000	2	1	0	2	0
21	123	7	10000	2	1	0	2	0
24	124	7	10000	2	1	0	2	0
29	125	7	10000	2	1	0	2	0
34	126	7	10000	2	1	0	2	0
39	127	7	10000	2	1	0	2	0
44	128	7	10000	2	1	0	2	0
44	129	7	10000	2	1	0	2	0
42	130	7	10000	2	1	0	2	0
42	131	7	10000	2	1	0	2	0
42	132	7	10000	2	1	0	2	0
40	133	7	10000	2	1	0	2	0
39	134	7	10000	2	1	0	2	0
40	135	7	10000	2	1	0	2	0
42	136	7	10000	2	1	0	2	0
46	137	7	10000	2	1	0	2	0
53	138	7	10000	2	1	0	2	0
60	139	7	10000	2	1	0	2	0
66	140	7	10000	2	1	0	2	0
66	141	7	10000	2	1	0	2	0
64	142	7	10000	2	1	0	2	0
64	143	7	10000	2	1	0	2	0
64	144	7	10000	2	1	0	2	0
68	145	7	10000	2	1	0	2	0
70	146	7	10000	2	1	0	2	0
73	147	7	10000	2	1	0	2	0
76	148	7	10000	2	1	0	2	0
75	149	7	10000	2	1	0	2	0
73	150	7	10000	2	1	0	2	0
70	151	7	10000	2	1	0	2	0
68	152	7	10000	2	1	0	2	0
66	153	7	10000	2	1	0	2	0
67	154	7	10000	2	1	0	2	0
72	155	7	10000	2	1	0	2	0
76	156	7	10000	2	1	0	2	0
77	157	7	10000	2	1	0	2	0
75	158	7	10000	2	1	0	2	0
74	159	7	10000	2	1	0	2	0
74	160	7	10000	2	1	0	2	0
73	161	7	10000	2	1	0	2	0
70	162	7	10000	2	1	0	2	0
68	163	7	10000	2	1	0	2	0
68	164	7	10000	2	1	0	2	0
66	165	7	10000	2	1	0	2	0
66	166	7	10000	2	1	0	2	0
66	167	7	10000	2	1	0	2	0
67	168	7	10000	2	1	0	2	0
66	169	7	10000	2	1	0	2	0
66	170	7	10000	2	1	0	2	0
67	171	7	10000	2	1	0	2	0
67	172	7	10000	2	1	0	2	0
68	173	7	10000	2	1	0	2	0
67	174	7	10000	2	1	0	2	0
67	175	7	10000	2	1	0	2	0
65	176	7	10000	2	1	0	2	0
65	177	7	10000	2	1	0	2	0
67	178	7	10000	2	1	0	2	0
68	179	7	10000	2	1	0	2	0
69	180	7	10000	2	1	0	2	0
69	181	7	10000	2	1	0	2	0
70	182	7	10000	2	1	0	2	0
71	183	7	10000	2	1	0	2	0
72	184	7	10000	2	1	0	2	0
73	185	7	10000	2	1	0	2	0
72	186	7	10000	2	1	0	2	0
73	187	7	10000	2	1	0	2	0
74	188	7	10000	2	1	0	2	0
72	189	7	10000	2	1	0	2	0
72	190	7	10000	2	1	0	2	0
71	191	7	10000	2	1	0	2	0
73	192	7	10000	2	1	0	2	0
73	193	7	10000	2	1	0	2	0
72	194	7	10000	2	1	0	2	0
70	195	7	10000	2	1	0	2	0
68	196	7	10000	2	1	0	2	0
68	197	7	10000	2	1	0	2	0
67	198	7	10000	2	1	0	2	0
68	199	7	10000	2	1	0	2	0
67	200	7	10000	2	1	0	2	0
63	201	7	10000	2	1	0	2	0
62	202	7	10000	2	1	0	2	0
59	203	7	10000	2	1	0	2	0
57	204	7	10000	2	1	0	2	0
56	205	7	10000	2	1	0	2	0
55	206	7	10000	2	1	0	2	0
53	207	7	10000	2	1	0	2	0
52	208	7	10000	2	1	0	2	0
49	209	7	10000	2	1	0	2	0
47	210	7	10000	2	1	0	2	0
45	211	7	10000	2	1	0	2	0
43	212	7	10000	2	1	0	2	0
43	213	7	10000	2	1	0	2	0
41	214	7	10000	2	1	0	2	0
40	215	7	10000	2	1	0	2	0
39	216	7	10000	2	1	0	2	0
37	217	7	10000	2	1	0	2	0
36	218	7	10000	2	1	0	2	0
36	219	7	10000	2	1	0	2	0
36	220	7	10000	2	1	0	2	0
36	221	7	10000	2	1	0	2	0
35	222	7	10000	2	1	0	2	0
35	223	7	10000	2	1	0	2	0
36	224	7	10000	2	1	0	2	0
37	225	7	10000	2	1	0	2	0
39	226	7	10000	2	1	0	2	0
40	227	7	10000	2	1	0	2	0
42	228	7	10000	2	1	0	2	0
41	229	7	10000	2	1	0	2	0
40	230	7	10000	2	1	0	2	0
44	231	7	10000	2	1	0	2	0
46	232	7	10000	2	1	0	2	0
50	233	7	10000	2	1	0	2	0
54	234	7	10000	2	1	0	2	0
57	235	7	10000	2	1	0	2	0
60	236	7	10000	2	1	0	2	0
63	237	7	10000	2	1	0	2	0
67	238	7	10000	2	1	0	2	0
72	239	7	10000	2	1	0	2	0
75	240	7	10000	2	1	0	2	0
78	241	7	10000	2	1	0	2	0
81	242	7	10000	2	1	0	2	0
85	243	7	10000	2	1	0	2	0
87	244	7	10000	2	1	0	2	0
89	245	7	10000	2	1	0	2	0
91	246	7	10000	2	1	0	2	0
92	247	7	10000	2	1	0	2	0
92	248	7	10000	2	1	0	2	0
92	249	7	10000	2	1	0	2	0
92	250	7	10000	2	1	0	2	0
92	251	7	10000	2	1	0	2	0
92	252	7	10000	2	1	0	2	0
92	253	7	10000	2	1	0	2	0
90	254	7	10000	2	1	0	2	0
89	255	7	10000	2	1	0	2	0
85	256	7	10000	2	1	0	2	0
84	257	7	10000	2	1	0	2	0
80	258	7	10000	2	1	0	2	0
79	259	7	10000	2	1	0	2	0
79	260	7	10000	2	1	0	2	0
75	261	7	10000	2	1	0	2	0
72	262	7	10000	2	1	0	2	0
68	263	7	10000	2	1	0	2	0
66	264	7	10000	2	1	0	2	0
64	265	7	10000	2	1	0	2	0
62	266	7	10000	2	1	0	2	0
59	267	7	10000	2	1	0	2	0
58	268	7	10000	2	1	0	2	0
55	269	7	10000	2	1	0	2	0
52	270	7	10000	2	1	0	2	0
52	271	7	10000	2	1	0	2	0
50	272	7	10000	2	1	0	2	0
51	273	7	10000	2	1	0	2	0
53	274	7	10000	2	1	0	2	0
56	275	7	10000	2	1	0	2	0
58	276	7	10000	2	1	0	2	0
59	277	7	10000	2	1	0	2	0
61	278	7	10000	2	1	0	2	0
62	279	7	10000	2	1	0	2	0
64	280	7	10000	2	1	0	2	0
65	281	7	10000	2	1	0	2	0
66	282	7	10000	2	1	0	2	0
69	283	7	10000	2	1	0	2	0
71	284	7	10000	2	1	0	2	0
74	285	7	10000	2	1	0	2	0
78	286	7	10000	2	1	0	2	0
80	287	7	10000	2	1	0	2	0
82	288	7	10000	2	1	0	2	0
81	289	7	10000	2	1	0	2	0
82	290	7	10000	2	1	0	2	0
83	291	7	10000	2	1	0	2	0
84	292	7	10000	2	1	0	2	0
86	293	7	10000	2	1	0	2	0
87	294	7	10000	2	1	0	2	0
89	295	7	10000	2	1	0	2	0
88	296	7	10000	2	1	0	2	0
88	297	7	10000	2	1	0	2	0
86	298	7	10000	2	1	0	2	0
86	299	7	10000	2	1	0	2	0
86	300	7	10000	2	1	0	2	0
83	301	7	10000	2	1	0	2	0
81	302	7	10000	2	1	0	2	0
79	303	7	10000	2	1	0	2	0
77	304	7	10000	2	1	0	2	0
74	305	7	10000	2	1	0	2	0
72	306	7	10000	2	1	0	2	0
69	307	7	10000	2	1	0	2	0
67	308	7	10000	2	1	0	2	0
63	309	7	10000	2	1	0	2	0
61	310	7	10000	2	1	0	2	0
60	311	7	10000	2	1	0	2	0
57	312	7	10000	2	1	0	2	0
57	313	7	10000	2	1	0	2	0
56	314	7	10000	2	1	0	2	0
56	315	7	10000	2	1	0	2	0
56	316	7	10000	2	1	0	2	0
55	317	7	10000	2	1	0	2	0
56	318	7	10000	2	1	0	2	0
56	319	7	10000	2	1	0	2	0
56	320	7	10000	2	1	0	2	0
54	321	7	10000	2	1	0	2	0
54	322	7	10000	2	1	0	2	0
55	323	7	10000	2	1	0	2	0
54	324	7	10000	2	1	0	2	0
53	325	7	10000	2	1	0	2	0
53	326	7	10000	2	1	0	2	0
54	327	7	10000	2	1	0	2	0
56	328	7	10000	2	1	0	2	0
56	329	7	10000	2	1	0	2	0
56	330	7	10000	2	1	0	2	0
56	331	7	10000	2	1	0	2	0
56	332	7	10000	2	1	0	2	0
57	333	7	10000	2	1	0	2	0
56	334	7	10000	2	1	0	2	0
57	335	7	10000	2	1	0	2	0
56	336	7	10000	2	1	0	2	0
56	337	7	10000	2	1	0	2	0
57	338	7	10000	2	1	0	2	0
59	339	7	10000	2	1	0	2	0
60	340	7	10000	2	1	0	2	0
57	341	7	10000	2	1	0	2	0
58	342	7	10000	2	1	0	2	0
58	343	7	10000	2	1	0	2	0
57	344	7	10000	2	1	0	2	0
57	345	7	10000	2	1	0	2	0
55	346	7	10000	2	1	0	2	0
55	347	7	10000	2	1	0	2	0
53	348	7	10000	2	1	0	2	0
52	349	7	10000	2	1	0	2	0
49	350	7	10000	2	1	0	2	0
48	351	7	10000	2	1	0	2	0
46	352	7	10000	2	1	0	2	0
46	353	7	10000	2	1	0	2	0
45	354	7	10000	2	1	0	2	0
45	355	7	10000	2	1	0	2	0
45	356	7	10000	2	1	0	2	0
44	357	7	10000	2	1	0	2	0
46	358	7	10000	2	1	0	2	0
47	359	7	10000	2	1	0	2	0
49	360	7	10000	2	1	0	2	0
49	361	7	10000	2	1	0	2	0
49	362	7	10000	2	1	0	2	0
49	363	7	10000	2	1	0	2	0
49	364	7	10000	2	1	0	2	0
50	365	7	10000	2	1	0	2	0
51	366	7	10000	2	1	0	2	0
50	367	7	10000	2	1	0	2	0
51	368	7	10000	2	1	0	2	0
49	369	7	10000	2	1	0	2	0
47	370	7	10000	2	1	0	2	0
46	371	7	10000	2	1	0	2	0
45	372	7	10000	2	1	0	2	0
44	373	7	10000	2	1	0	2	0
43	374	7	10000	2	1	0	2	0
41	375	7	10000	2	1	0	2	0
41	376	7	10000	2	1	0	2	0
38	377	7	10000	2	1	0	2	0
35	378	7	10000	2	1	0	2	0
35	379	7	10000	2	1	0	2	0
36	380	7	10000	2	1	0	2	0
35	381	7	10000	2	1	0	2	0
34	382	7	10000	2	1	0	2	0
34	383	7	10000	2	1	0	2	0
35	384	7	10000	2	1	0	2	0
37	385	7	10000	2	1	0	2	0
41	386	7	10000	2	1	0	2	0
44	387	7	10000	2	1	0	2	0
45	388	7	10000	2	1	0	2	0
43	389	7	10000	2	1	0	2	0
41	390	7	10000	2	1	0	2	0
42	391	7	10000	2	1	0	2	0
43	392	7	10000	2	1	0	2	0
45	393	7	10000	2	1	0	2	0
48	394	7	10000	2	1	0	2	0
48	395	7	10000	2	1	0	2	0
49	396	7	10000	2	1	0	2	0
47	397	7	10000	2	1	0	2	0
47	398	7	10000	2	1	0	2	0
49	399	7	10000	2	1	0	2	0
51	400	7	10000	2	1	0	2	0
54	401	7	10000	2	1	0	2	0
55	402	7	10000	2	1	0	2	0
59	403	7	10000	2	1	0	2	0
61	404	7	10000	2	1	0	2	0
62	405	7	10000	2	1	0	2	0
61	406	7	10000	2	1	0	2	0
59	407	7	10000	2	1	0	2	0
58	408	7	10000	2	1	0	2	0
56	409	7	10000	2	1	0	2	0
54	410	7	10000	2	1	0	2	0
53	411	7	10000	2	1	0	2	0
52	412	7	10000	2	1	0	2	0
51	413	7	10000	2	1	0	2	0
48	414	7	10000	2	1	0	2	0
48	415	7	10000	2	1	0	2	0
47	416	7	10000	2	1	0	2	0
45	417	7	10000	2	1	0	2	0
43	418	7	10000	2	1	0	2	0
43	419	7	10000	2	1	0	2	0
43	420	7	10000	2	1	0	2	0
44	421	7	10000	2	1	0	2	0
46	422	7	10000	2	1	0	2	0
48	423	7	10000	2	1	0	2	0
50	424	7	10000	2	1	0	2	0
50	425	7	10000	2	1	0	2	0
50	426	7	10000	2	1	0	2	0
51	427	7	10000	2	1	0	2	0
54	428	7	10000	2	1	0	2	0
56	429	7	10000	2	1	0	2	0
58	430	7	10000	2	1	0	2	0
62	431	7	10000	2	1	0	2	0
65	432	7	10000	2	1	0	2	0
68	433	7	10000	2	1	0	2	0
71	434	7	10000	2	1	0	2	0
73	435	7	10000	2	1	0	2	0
75	436	7	10000	2	1	0	2	0
74	437	7	10000	2	1	0	2	0
74	438	7	10000	2	1	0	2	0
75	439	7	10000	2	1	0	2	0
78	440	7	10000	2	1	0	2	0
81	441	7	10000	2	1	0	2	0
81	442	7	10000	2	1	0	2	0
82	443	7	10000	2	1	0	2	0
83	444	7	10000	2	1	0	2	0
87	445	7	10000	2	1	0	2	0
91	446	7	10000	2	1	0	2	0
94	447	7	10000	2	1	0	2	0
100	448	7	10000	2	1	0	2	0
101	449	7	10000	2	1	0	2	0
105	450	7	10000	2	1	0	2	0
108	451	7	10000	2	1	0	2	0
111	452	7	10000	2	1	0	2	0
114	453	7	10000	2	1	0	2	0
117	454	7	10000	2	1	0	2	0
121	455	7	10000	2	1	0	2	0
123	456	7	10000	2	1	0	2	0
126	457	7	10000	2	1	0	2	0
129	458	7	10000	2	1	0	2	0
132	459	7	10000	2	1	0	2	0
134	460	7	10000	2	1	0	2	0
135	461	7	10000	2	1	0	2	0
135	462	7	10000	2	1	0	2	0
135	463	7	10000	2	1	0	2	0
135	464	7	10000	2	1	0	2	0
134	465	7	10000	2	1	0	2	0
133	466	7	10000	2	1	0	2	0
131	467	7	10000	2	1	0	2	0
129	468	7	10000	2	1	0	2	0
125	469	7	10000	2	1	0	2	0
121	470	7	10000	2	1	0	2	0
116	471	7	10000	2	1	0	2	0
114	472	7	10000	2	1	0	2	0
111	473	7	10000	2	1	0	2	0
108	474	7	10000	2	1	0	2	0
105	475	7	10000	2	1	0	2	0
100	476	7	10000	2	1	0	2	0
98	477	7	10000	2	1	0	2	0
93	478	7	10000	2	1	0	2	0
90	479	7	10000	2	1	0	2	0
87	480	7	10000	2	1	0	2	0
84	481	7	10000	2	1	0	2	0
80	482	7	10000	2	1	0	2	0
77	483	7	10000	2	1	0	2	0
74	484	7	10000	2	1	0	2	0
72	485	7	10000	2	1	0	2	0
70	486	7	10000	2	1	0	2	0
68	487	7	10000	2	1	0	2	0
68	488	7	10000	2	1	0	2	0
67	489	7	10000	2	1	0	2	0
66	490	7	10000	2	1	0	2	0
63	491	7	10000	2	1	0	2	0
61	492	7	10000	2	1	0	2	0
61	493	7	10000	2	1	0	2	0
59	494	7	10000	2	1	0	2	0
61	495	7	10000	2	1	0	2	0
60	496	7	10000	2	1	0	2	1
60	497	7	10000	2	1	0	2	1
60	498	7	10000	2	1	0	2	1
60	499	7	10000	2	1	0	2	1
60	500	7	10000	2	1	0	2	1
59	501	7	10000	2	1	0	2	1
59	502	7	10000	2	1	0	2	1
58	503	7	10000	2	1	0	2	1
59	504	7	10000	2	1	0	2	1
60	505	7	10000	2	1	0	2	1
60	506	7	10000	2	1	0	2	1
61	507	7	10000	2	1	0	2	1
63	508	7	10000	2	1	0	2	1
64	509	7	10000	2	1	0	2	1
65	510	7	10000	2	1	0	2	1
65	511	7	10000	2	1	0	2	1
65	512	7	10000	2	1	0	2	1
67	513	7	10000	2	1	0	2	1
68	514	7	10000	2	1	0	2	1
69	515	7	10000	2	1	0	2	1
69	516	7	10000	2	1	0	2	1
68	517	7	10000	2	1	0	2	1
66	518	7	10000	2	1	0	2	1
66	519	7	10000	2	1	0	2	1
66	520	7	10000	2	1	0	2	1
64	521	7	10000	2	1	0	2	1
64	522	7	10000	2	1	0	2	1
62	523	7	10000	2	1	0	2	1
62	524	7	10000	2	1	0	2	1
61	525	7	10000	2	1	0	2	1
61	526	7	10000	2	1	0	2	1
62	527	7	10000	2	1	0	2	1
61	528	7	10000	2	1	0	2	1
60	529	7	10000	2	1	0	2	1
57	530	7	10000	2	1	0	2	1
57	531	7	10000	2	1	0	2	1
55	532	7	10000	2	1	0	2	1
54	533	7	10000	2	1	0	2	1
54	534	7	10000	2	1	0	2	1
52	535	7	10000	2	1	0	2	1
52	536	7	10000	2	1	0	2	1
50	537	7	10000	2	1	0	2	1
50	538	7	10000	2	1	0	2	1
52	539	7	10000	2	1	0	2	1
53	540	7	10000	2	1	0	2	1
52	541	7	10000	2	1	0	2	1
50	542	7	10000	2	1	0	2	1
48	543	7	10000	2	1	0	2	1
48	544	7	10000	2	1	0	2	1
47	545	7	10000	2	1	0	2	1
47	546	7	10000	2	1	0	2	0
45	547	7	10000	2	1	0	2	0
46	548	7	10000	2	1	0	2	0
44	549	7	10000	2	1	0	2	0
42	550	7	10000	2	1	0	2	0
43	551	7	10000	2	1	0	2	0
43	552	7	10000	2	1	0	2	0
46	553	7	10000	2	1	0	2	0
46	554	7	10000	2	1	0	2	0
46	555	7	10000	2	1	0	2	0
45	556	7	10000	2	1	0	2	0
44	557	7	10000	2	1	0	2	0
45	558	7	10000	2	1	0	2	0
46	559	7	10000	2	1	0	2	0
51	560	7	10000	2	1	0	2	0
52	561	7	10000	2	1	0	2	0
53	562	7	10000	2	1	0	2	0
53	563	7	10000	2	1	0	2	0
52	564	7	10000	2	1	0	2	0
52	565	7	10000	2	1	0	2	0
51	566	7	10000	2	1	0	2	0
51	567	7	10000	2	1	0	2	0
50	568	7	10000	2	1	0	2	0
48	569	7	10000	2	1	0	2	0
47	570	7	10000	2	1	0	2	0
47	571	7	10000	2	1	0	2	0
48	572	7	10000	2	1	0	2	0
48	573	7	10000	2	1	0	2	0
46	574	7	10000	2	1	0	2	0
46	575	7	10000	2	1	0	2	0
45	576	7	10000	2	1	0	2	0
44	577	7	10000	2	1	0	2	0
44	578	7	10000	2	1	0	2	0
42	579	7	10000	2	1	0	2	0
42	580	7	10000	2	1	0	2	0
42	581	7	10000	2	1	0	2	0
43	582	7	10000	2	1	0	2	0
46	583	7	10000	2	1	0	2	0
49	584	7	10000	2	1	0	2	0
56	585	7	10000	2	1	0	2	0
88	586	7	10000	2	1	0	2	0
96	587	7	10000	2	1	0	2	0
103	588	7	10000	2	1	0	2	0
102	589	7	10000	2	1	0	2	0
102	590	7	10000	2	1	0	2	0
146	591	7	10000	2	1	0	2	0
202	592	7	10000	2	1	0	2	0
243	593	7	10000	2	1	0	2	0
256	594	7	10000	2	1	0	2	0
290	595	7	10000	2	1	0	2	0
352	596	7	10000	2	1	0	2	0
521	597	7	10000	2	1	0	2	0
559	598	7	10000	2	1	0	2	0
706	599	7	10000	2	1	0	2	0
843	600	7	10000	2	1	0	2	0
865	601	7	10000	2	1	0	2	0
864	602	7	10000	2	1	0	2	0
916	603	7	10000	2	1	0	2	0
932	604	7	10000	2	1	0	2	0
920	605	7	10000	2	1	0	2	0
952	606	7	10000	2	1	0	2	0
937	607	7	10000	2	1	0	2	0
937	608	7	10000	2	1	0	2	0
913	609	7	10000	2	1	0	2	0
887	610	7	10000	2	1	0	2	0
868	611	7	10000	2	1	0	2	0
865	612	7	10000	2	1	0	2	0
1063	613	7	10000	2	1	0	2	0
1183	614	7	10000	2	1	0	2	0
1151	615	7	10000	2	1	0	2	0
1178	616	7	10000	2	1	0	2	0
1172	617	7	10000	2	1	0	2	0
1176	618	7	10000	2	1	0	2	0
1194	619	7	10000	2	1	0	2	0
1224	620	7	10000	2	1	0	2	0
1213	621	7	10000	2	1	0	2	0
1176	622	7	10000	2	1	0	2	0
1131	623	7	10000	2	1	0	2	0
1080	624	7	10000	2	1	0	2	0
1034	625	7	10000	2	1	0	2	0
997	626	7	10000	2	1	0	2	0
965	627	7	10000	2	1	0	2	0
936	628	7	10000	2	1	0	2	0
909	629	7	10000	2	1	0	2	0
879	630	7	10000	2	1	0	2	0
850	631	7	10000	2	1	0	2	0
838	632	7	10000	2	1	0	2	0
823	633	7	10000	2	1	0	2	0
791	634	7	10000	2	1	0	2	0
764	635	7	10000	2	1	0	2	0
736	636	7	10000	2	1	0	2	0
702	637	7	10000	2	1	0	2	0
671	638	7	10000	2	1	0	2	0
656	639	7	10000	2	1	0	2	0
673	640	7	10000	2	1	0	2	0
693	641	7	10000	2	1	0	2	0
684	642	7	10000	2	1	0	2	0
693	643	7	10000	2	1	0	2	0
676	644	7	10000	2	1	0	2	0
647	645	7	10000	2	1	0	2	0
618	646	7	10000	2	1	0	2	0
596	647	7	10000	2	1	0	2	0
583	648	7	10000	2	1	0	2	0
573	649	7	10000	2	1	0	2	0
569	650	7	10000	2	1	0	2	0
569	651	7	10000	2	1	0	2	0
571	652	7	10000	2	1	0	2	0
573	653	7	10000	2	1	0	2	0
575	654	7	10000	2	1	0	2	0
576	655	7	10000	2	1	0	2	0
575	656	7	10000	2	1	0	2	0
574	657	7	10000	2	1	0	2	0
570	658	7	10000	2	1	0	2	0
567	659	7	10000	2	1	0	2	0
561	660	7	10000	2	1	0	2	0
551	661	7	10000	2	1	0	2	0
539	662	7	10000	2	1	0	2	0
528	663	7	10000	2	1	0	2	0
518	664	7	10000	2	1	0	2	0
509	665	7	10000	2	1	0	2	0
502	666	7	10000	2	1	0	2	0
495	667	7	10000	2	1	0	2	0
491	668	7	10000	2	1	0	2	0
485	669	7	10000	2	1	0	2	0
469	670	7	10000	2	1	0	2	0
461	671	7	10000	2	1	0	2	0
462	672	7	10000	2	1	0	2	0
460	673	7	10000	2	1	0	2	0
454	674	7	10000	2	1	0	2	0
445	675	7	10000	2	1	0	2	0
434	676	7	10000	2	1	0	2	0
417	677	7	10000	2	1	0	2	0
400	678	7	10000	2	1	0	2	0
383	679	7	10000	2	1	0	2	0
369	680	7	10000	2	1	0	2	0
355	681	7	10000	2	1	0	2	0
343	682	7	10000	2	1	0	2	0
333	683	7	10000	2	1	0	2	0
322	684	7	10000	2	1	0	2	0
308	685	7	10000	2	1	0	2	0
296	686	7	10000	2	1	0	2	0
282	687	7	10000	2	1	0	2	0
272	688	7	10000	2	1	0	2	0
259	689	7	10000	2	1	0	2	0
250	690	7	10000	2	1	0	2	0
240	691	7	10000	2	1	0	2	0
235	692	7	10000	2	1	0	2	0
232	693	7	10000	2	1	0	2	0
225	694	7	10000	2	1	0	2	0
219	695	7	10000	2	1	0	2	0
211	696	7	10000	2	1	0	2	0
202	697	7	10000	2	1	0	2	0
193	698	7	10000	2	1	0	2	0
185	699	7	10000	2	1	0	2	0
180	700	7	10000	2	1	0	2	0
177	701	7	10000	2	1	0	2	0
172	702	7	10000	2	1	0	2	0
165	703	7	10000	2	1	0	2	0
159	704	7	10000	2	1	0	2	0
153	705	7	10000	2	1	0	2	0
148	706	7	10000	2	1	0	2	0
145	707	7	10000	2	1	0	2	0
144	708	7	10000	2	1	0	2	0
142	709	7	10000	2	1	0	2	0
141	710	7	10000	2	1	0	2	0
144	711	7	10000	2	1	0	2	0
151	712	7	10000	2	1	0	2	0
156	713	7	10000	2	1	0	2	0
159	714	7	10000	2	1	0	2	0
161	715	7	10000	2	1	0	2	0
162	716	7	10000	2	1	0	2	0
162	717	7	10000	2	1	0	2	0
158	718	7	10000	2	1	0	2	0
153	719	7	10000	2	1	0	2	0
149	720	7	10000	2	1	0	2	0
141	721	7	10000	2	1	0	2	0
136	722	7	10000	2	1	0	2	0
132	723	7	10000	2	1	0	2	0
127	724	7	10000	2	1	0	2	0
122	725	7	10000	2	1	0	2	0
118	726	7	10000	2	1	0	2	0
114	727	7	10000	2	1	0	2	0
112	728	7	10000	2	1	0	2	0
106	729	7	10000	2	1	0	2	0
100	730	7	10000	2	1	0	2	0
97	731	7	10000	2	1	0	2	0
94	732	7	10000	2	1	0	2	0
92	733	7	10000	2	1	0	2	0
88	734	7	10000	2	1	0	2	0
88	735	7	10000	2	1	0	2	0
89	736	7	10000	2	1	0	2	0
91	737	7	10000	2	1	0	2	0
93	738	7	10000	2	1	0	2	0
98	739	7	10000	2	1	0	2	0
104	740	7	10000	2	1	0	2	0
108	741	7	10000	2	1	0	2	0
115	742	7	10000	2	1	0	2	0
120	743	7	10000	2	1	0	2	0
125	744	7	10000	2	1	0	2	0
127	745	7	10000	2	1	0	2	0
129	746	7	10000	2	1	0	2	0
132	747	7	10000	2	1	0	2	0
132	748	7	10000	2	1	0	2	0
132	749	7	10000	2	1	0	2	0
130	750	7	10000	2	1	0	2	0
127	751	7	10000	2	1	0	2	0
121	752	7	10000	2	1	0	2	0
117	753	7	10000	2	1	0	2	0
114	754	7	10000	2	1	0	2	0
112	755	7	10000	2	1	0	2	0
110	756	7	10000	2	1	0	2	0
112	757	7	10000	2	1	0	2	0
112	758	7	10000	2	1	0	2	0
114	759	7	10000	2	1	0	2	0
116	760	7	10000	2	1	0	2	0
118	761	7	10000	2	1	0	2	0
120	762	7	10000	2	1	0	2	0
118	763	7	10000	2	1	0	2	0
119	764	7	10000	2	1	0	2	0
116	765	7	10000	2	1	0	2	0
114	766	7	10000	2	1	0	2	0
111	767	7	10000	2	1	0	2	0
105	768	7	10000	2	1	0	2	0
102	769	7	10000	2	1	0	2	0
98	770	7	10000	2	1	0	2	0
97	771	7	10000	2	1	0	2	0
99	772	7	10000	2	1	0	2	0
100	773	7	10000	2	1	0	2	0
98	774	7	10000	2	1	0	2	0
97	775	7	10000	2	1	0	2	0
93	776	7	10000	2	1	0	2	0
92	777	7	10000	2	1	0	2	0
88	778	7	10000	2	1	0	2	0
85	779	7	10000	2	1	0	2	0
84	780	7	10000	2	1	0	2	0
80	781	7	10000	2	1	0	2	0
78	782	7	10000	2	1	0	2	0
74	783	7	10000	2	1	0	2	0
72	784	7	10000	2	1	0	2	0
70	785	7	10000	2	1	0	2	0
68	786	7	10000	2	1	0	2	0
67	787	7	10000	2	1	0	2	0
66	788	7	10000	2	1	0	2	0
64	789	7	10000	2	1	0	2	0
61	790	7	10000	2	1	0	2	0
59	791	7	10000	2	1	0	2	0
56	792	7	10000	2	1	0	2	0
55	793	7	10000	2	1	0	2	0
53	794	7	10000	2	1	0	2	0
55	795	7	10000	2	1	0	2	0
57	796	7	10000	2	1	0	2	0
60	797	7	10000	2	1	0	2	0
67	798	7	10000	2	1	0	2	0
72	799	7	10000	2	1	0	2	0
81	800	7	10000	2	1	0	2	0
89	801	7	10000	2	1	0	2	0
97	802	7	10000	2	1	0	2	0
105	803	7	10000	2	1	0	2	0
113	804	7	10000	2	1	0	2	0
122	805	7	10000	2	1	0	2	0
128	806	7	10000	2	1	0	2	0
135	807	7	10000	2	1	0	2	0
140	808	7	10000	2	1	0	2	0
141	809	7	10000	2	1	0	2	0
141	810	7	10000	2	1	0	2	0
140	811	7	10000	2	1	0	2	0
140	812	7	10000	2	1	0	2	0
140	813	7	10000	2	1	0	2	0
139	814	7	10000	2	1	0	2	0
139	815	7	10000	2	1	0	2	0
140	816	7	10000	2	1	0	2	0
141	817	7	10000	2	1	0	2	0
142	818	7	10000	2	1	0	2	0
147	819	7	10000	2	1	0	2	0
152	820	7	10000	2	1	0	2	0
156	821	7	10000	2	1	0	2	0
161	822	7	10000	2	1	0	2	0
161	823	7	10000	2	1	0	2	0
162	824	7	10000	2	1	0	2	0
160	825	7	10000	2	1	0	2	0
160	826	7	10000	2	1	0	2	0
159	827	7	10000	2	1	0	2	0
155	828	7	10000	2	1	0	2	0
151	829	7	10000	2	1	0	2	0
144	830	7	10000	2	1	0	2	0
138	831	7	10000	2	1	0	2	0
132	832	7	10000	2	1	0	2	0
128	833	7	10000	2	1	0	2	0
123	834	7	10000	2	1	0	2	0
119	835	7	10000	2	1	0	2	0
115	836	7	10000	2	1	0	2	0
111	837	7	10000	2	1	0	2	0
107	838	7	10000	2	1	0	2	0
104	839	7	10000	2	1	0	2	0
103	840	7	10000	2	1	0	2	0
101	841	7	10000	2	1	0	2	0
98	842	7	10000	2	1	0	2	0
94	843	7	10000	2	1	0	2	0
90	844	7	10000	2	1	0	2	0
87	845	7	10000	2	1	0	2	0
83	846	7	10000	2	1	0	2	0
86	847	7	10000	2	1	0	2	0
89	848	7	10000	2	1	0	2	0
94	849	7	10000	2	1	0	2	0
99	850	7	10000	2	1	0	2	0
103	851	7	10000	2	1	0	2	0
104	852	7	10000	2	1	0	2	0
123	853	7	10000	2	1	0	2	0
127	854	7	10000	2	1	0	2	0
132	855	7	10000	2	1	0	2	0
148	856	7	10000	2	1	0	2	0
159	857	7	10000	2	1	0	2	0
155	858	7	10000	2	1	0	2	0
151	859	7	10000	2	1	0	2	0
148	860	7	10000	2	1	0	2	0
149	861	7	10000	2	1	0	2	0
156	862	7	10000	2	1	0	2	0
160	863	7	10000	2	1	0	2	0
171	864	7	10000	2	1	0	2	0
187	865	7	10000	2	1	0	2	0
187	866	7	10000	2	1	0	2	0
183	867	7	10000	2	1	0	2	0
180	868	7	10000	2	1	0	2	0
186	869	7	10000	2	1	0	2	0
188	870	7	10000	2	1	0	2	0
191	871	7	10000	2	1	0	2	0
186	872	7	10000	2	1	0	2	0
178	873	7	10000	2	1	0	2	0
178	874	7	10000	2	1	0	2	0
177	875	7	10000	2	1	0	2	0
171	876	7	10000	2	1	0	2	0
170	877	7	10000	2	1	0	2	0
169	878	7	10000	2	1	0	2	0
165	879	7	10000	2	1	0	2	0
164	880	7	10000	2	1	0	2	0
173	881	7	10000	2	1	0	2	0
186	882	7	10000	2	1	0	2	0
189	883	7	10000	2	1	0	2	0
183	884	7	10000	2	1	0	2	0
175	885	7	10000	2	1	0	2	0
171	886	7	10000	2	1	0	2	0
177	887	7	10000	2	1	0	2	0
182	888	7	10000	2	1	0	2	0
182	889	7	10000	2	1	0	2	0
178	890	7	10000	2	1	0	2	0
176	891	7	10000	2	1	0	2	0
174	892	7	10000	2	1	0	2	0
171	893	7	10000	2	1	0	2	0
170	894	7	10000	2	1	0	2	0
170	895	7	10000	2	1	0	2	0
169	896	7	10000	2	1	0	2	0
167	897	7	10000	2	1	0	2	0
164	898	7	10000	2	1	0	2	0
174	899	7	10000	2	1	0	2	0
178	900	7	10000	2	1	0	2	0
171	901	7	10000	2	1	0	2	0
167	902	7	10000	2	1	0	2	0
195	903	7	10000	2	1	0	2	0
204	904	7	10000	2	1	0	2	0
234	905	7	10000	2	1	0	2	0
252	906	7	10000	2	1	0	2	0
250	907	7	10000	2	1	0	2	0
240	908	7	10000	2	1	0	2	0
230	909	7	10000	2	1	0	2	0
222	910	7	10000	2	1	0	2	0
216	911	7	10000	2	1	0	2	0
209	912	7	10000	2	1	0	2	0
202	913	7	10000	2	1	0	2	0
198	914	7	10000	2	1	0	2	0
191	915	7	10000	2	1	0	2	0
183	916	7	10000	2	1	0	2	0
178	917	7	10000	2	1	0	2	0
170	918	7	10000	2	1	0	2	0
171	919	7	10000	2	1	0	2	0
175	920	7	10000	2	1	0	2	0
174	921	7	10000	2	1	0	2	0
167	922	7	10000	2	1	0	2	0
160	923	7	10000	2	1	0	2	0
154	924	7	10000	2	1	0	2	0
150	925	7	10000	2	1	0	2	0
143	926	7	10000	2	1	0	2	0
138	927	7	10000	2	1	0	2	0
134	928	7	10000	2	1	0	2	0
132	929	7	10000	2	1	0	2	0
128	930	7	10000	2	1	0	2	0
122	931	7	10000	2	1	0	2	0
118	932	7	10000	2	1	0	2	0
114	933	7	10000	2	1	0	2	0
115	934	7	10000	2	1	0	2	0
117	935	7	10000	2	1	0	2	0
122	936	7	10000	2	1	0	2	0
122	937	7	10000	2	1	0	2	0
118	938	7	10000	2	1	0	2	0
116	939	7	10000	2	1	0	2	0
112	940	7	10000	2	1	0	2	0
113	941	7	10000	2	1	0	2	0
116	942	7	10000	2	1	0	2	0
122	943	7	10000	2	1	0	2	0
128	944	7	10000	2	1	0	2	0
129	945	7	10000	2	1	0	2	0
130	946	7	10000	2	1	0	2	0
130	947	7	10000	2	1	0	2	0
133	948	7	10000	2	1	0	2	0
136	949	7	10000	2	1	0	2	0
138	950	7	10000	2	1	0	2	0
147	951	7	10000	2	1	0	2	0
155	952	7	10000	2	1	0	2	0
166	953	7	10000	2	1	0	2	0
177	954	7	10000	2	1	0	2	0
184	955	7	10000	2	1	0	2	0
185	956	7	10000	2	1	0	2	0
182	957	7	10000	2	1	0	2	0
180	958	7	10000	2	1	0	2	0
179	959	7	10000	2	1	0	2	0
182	960	7	10000	2	1	0	2	0
185	961	7	10000	2	1	0	2	0
189	962	7	10000	2	1	0	2	0
193	963	7	10000	2	1	0	2	0
197	964	7	10000	2	1	0	2	0
197	965	7	10000	2	1	0	2	0
194	966	7	10000	2	1	0	2	0
192	967	7	10000	2	1	0	2	0
194	968	7	10000	2	1	0	2	0
197	969	7	10000	2	1	0	2	0
201	970	7	10000	2	1	0	2	0
207	971	7	10000	2	1	0	2	0
211	972	7	10000	2	1	0	2	0
216	973	7	10000	2	1	0	2	0
217	974	7	10000	2	1	0	2	0
216	975	7	10000	2	1	0	2	0
212	976	7	10000	2	1	0	2	0
207	977	7	10000	2	1	0	2	0
201	978	7	10000	2	1	0	2	0
196	979	7	10000	2	1	0	2	0
192	980	7	10000	2	1	0	2	0
186	981	7	10000	2	1	0	2	0
183	982	7	10000	2	1	0	2	0
176	983	7	10000	2	1	0	2	0
171	984	7	10000	2	1	0	2	0
164	985	7	10000	2	1	0	2	0
158	986	7	10000	2	1	0	2	0
153	987	7	10000	2	1	0	2	0
147	988	7	10000	2	1	0	2	0
140	989	7	10000	2	1	0	2	0
133	990	7	10000	2	1	0	2	0
127	991	7	10000	2	1	0	2	0
122	992	7	10000	2	1	0	2	0
118	993	7	10000	2	1	0	2	0
112	994	7	10000	2	1	0	2	0
109	995	7	10000	2	1	0	2	0
106	996	7	10000	2	1	0	2	0
104	997	7	10000	2	1	0	2	0
104	998	7	10000	2	1	0	2	0
103	999	7	10000	2	1	0	2	0
107	1000	7	10000	2	1	0	2	0
108	1001	7	10000	2	1	0	2	0
52	1	0	10000	3	1	0	3	0
53	2	0	10000	3	1	0	3	0
53	3	0	10000	3	1	0	3	0
54	4	0	10000	3	1	0	3	0
54	5	0	10000	3	1	0	3	0
53	6	0	10000	3	1	0	3	0
52	7	0	10000	3	1	0	3	0
51	8	0	10000	3	1	0	3	0
50	9	0	10000	3	1	0	3	0
49	10	0	10000	3	1	0	3	0
48	11	0	10000	3	1	0	3	0
48	12	0	10000	3	1	0	3	0
48	13	0	10000	3	1	0	3	0
47	14	0	10000	3	1	0	3	0
45	15	0	10000	3	1	0	3	0
45	16	0	10000	3	1	0	3	0
46	17	0	10000	3	1	0	3	0
45	18	0	10000	3	1	0	3	0
47	19	0	10000	3	1	0	3	0
49	20	0	10000	3	1	0	3	0
48	20	0	10000	3	1	0	3	0
48	21	0	10000	3	1	0	3	0
46	23	0	10000	3	1	0	3	0
44	24	0	10000	3	1	0	3	0
43	25	0	10000	3	1	0	3	0
42	26	0	10000	3	1	0	3	0
42	27	0	10000	3	1	0	3	0
40	28	0	10000	3	1	0	3	0
38	29	0	10000	3	1	0	3	0
36	30	0	10000	3	1	0	3	0
35	30	0	10000	3	1	0	3	0
33	31	0	10000	3	1	0	3	0
33	33	0	10000	3	1	0	3	0
32	34	0	10000	3	1	0	3	0
32	35	0	10000	3	1	0	3	0
31	36	0	10000	3	1	0	3	0
30	37	0	10000	3	1	0	3	0
31	38	0	10000	3	1	0	3	0
31	39	0	10000	3	1	0	3	0
31	40	0	10000	3	1	0	3	0
32	40	0	10000	3	1	0	3	0
31	41	0	10000	3	1	0	3	0
30	43	0	10000	3	1	0	3	0
28	44	0	10000	3	1	0	3	0
28	45	0	10000	3	1	0	3	0
29	46	0	10000	3	1	0	3	0
29	47	0	10000	3	1	0	3	0
30	48	0	10000	3	1	0	3	0
29	49	0	10000	3	1	0	3	0
27	50	0	10000	3	1	0	3	0
27	50	0	10000	3	1	0	3	0
27	51	0	10000	3	1	0	3	0
26	53	0	10000	3	1	0	3	0
25	54	0	10000	3	1	0	3	0
25	55	0	10000	3	1	0	3	0
25	56	0	10000	3	1	0	3	0
24	57	0	10000	3	1	0	3	0
22	58	0	10000	3	1	0	3	0
22	59	0	10000	3	1	0	3	0
25	60	0	10000	3	1	0	3	0
25	60	0	10000	3	1	0	3	0
24	61	0	10000	3	1	0	3	0
23	63	0	10000	3	1	0	3	0
22	64	0	10000	3	1	0	3	0
22	65	0	10000	3	1	0	3	0
21	66	0	10000	3	1	0	3	0
25	67	0	10000	3	1	0	3	0
27	68	0	10000	3	1	0	3	0
27	69	0	10000	3	1	0	3	0
27	70	0	10000	3	1	0	3	0
30	70	0	10000	3	1	0	3	0
31	71	0	10000	3	1	0	3	0
32	73	0	10000	3	1	0	3	0
34	74	0	10000	3	1	0	3	0
36	75	0	10000	3	1	0	3	0
39	76	0	10000	3	1	0	3	0
40	77	0	10000	3	1	0	3	0
39	78	0	10000	3	1	0	3	0
40	79	0	10000	3	1	0	3	0
40	80	0	10000	3	1	0	3	0
40	80	0	10000	3	1	0	3	0
38	81	0	10000	3	1	0	3	0
38	83	0	10000	3	1	0	3	0
37	84	0	10000	3	1	0	3	0
37	85	0	10000	3	1	0	3	0
36	86	0	10000	3	1	0	3	0
36	87	0	10000	3	1	0	3	0
37	88	0	10000	3	1	0	3	0
36	89	0	10000	3	1	0	3	0
35	90	0	10000	3	1	0	3	0
35	90	0	10000	3	1	0	3	0
36	91	0	10000	3	1	0	3	0
36	93	0	10000	3	1	0	3	0
38	94	0	10000	3	1	0	3	0
38	95	0	10000	3	1	0	3	0
36	96	0	10000	3	1	0	3	0
36	97	0	10000	3	1	0	3	0
36	98	0	10000	3	1	0	3	0
36	99	0	10000	3	1	0	3	0
36	100	0	10000	3	1	0	3	0
35	100	0	10000	3	1	0	3	0
35	101	0	10000	3	1	0	3	0
35	103	0	10000	3	1	0	3	0
34	104	0	10000	3	1	0	3	0
34	105	0	10000	3	1	0	3	0
34	106	0	10000	3	1	0	3	0
35	107	0	10000	3	1	0	3	0
35	108	0	10000	3	1	0	3	0
35	109	0	10000	3	1	0	3	0
35	110	0	10000	3	1	0	3	0
35	110	0	10000	3	1	0	3	0
34	111	0	10000	3	1	0	3	0
34	113	0	10000	3	1	0	3	0
35	114	0	10000	3	1	0	3	0
36	115	0	10000	3	1	0	3	0
34	116	0	10000	3	1	0	3	0
33	117	0	10000	3	1	0	3	0
32	118	0	10000	3	1	0	3	0
32	119	0	10000	3	1	0	3	0
32	120	0	10000	3	1	0	3	0
32	120	0	10000	3	1	0	3	0
30	121	0	10000	3	1	0	3	0
29	123	0	10000	3	1	0	3	0
28	124	0	10000	3	1	0	3	0
28	125	0	10000	3	1	0	3	0
27	126	0	10000	3	1	0	3	0
29	127	0	10000	3	1	0	3	0
28	128	0	10000	3	1	0	3	0
28	129	0	10000	3	1	0	3	0
27	130	0	10000	3	1	0	3	0
27	130	0	10000	3	1	0	3	0
28	131	0	10000	3	1	0	3	0
28	133	0	10000	3	1	0	3	0
27	134	0	10000	3	1	0	3	0
26	135	0	10000	3	1	0	3	0
26	136	0	10000	3	1	0	3	0
24	137	0	10000	3	1	0	3	0
24	138	0	10000	3	1	0	3	0
25	139	0	10000	3	1	0	3	0
25	140	0	10000	3	1	0	3	0
25	140	0	10000	3	1	0	3	0
27	141	0	10000	3	1	0	3	0
26	143	0	10000	3	1	0	3	0
25	144	0	10000	3	1	0	3	0
24	145	0	10000	3	1	0	3	0
24	146	0	10000	3	1	0	3	0
24	147	0	10000	3	1	0	3	0
25	148	0	10000	3	1	0	3	0
28	149	0	10000	3	1	0	3	0
28	150	0	10000	3	1	0	3	0
30	150	0	10000	3	1	0	3	0
31	151	0	10000	3	1	0	3	0
31	153	0	10000	3	1	0	3	0
30	154	0	10000	3	1	0	3	0
29	155	0	10000	3	1	0	3	0
27	156	0	10000	3	1	0	3	0
27	157	0	10000	3	1	0	3	0
26	158	0	10000	3	1	0	3	0
26	159	0	10000	3	1	0	3	0
27	160	0	10000	3	1	0	3	0
28	160	0	10000	3	1	0	3	0
28	161	0	10000	3	1	0	3	0
26	163	0	10000	3	1	0	3	0
26	164	0	10000	3	1	0	3	0
25	165	0	10000	3	1	0	3	0
25	166	0	10000	3	1	0	3	0
24	167	0	10000	3	1	0	3	0
27	168	0	10000	3	1	0	3	0
28	169	0	10000	3	1	0	3	0
29	170	0	10000	3	1	0	3	0
29	170	0	10000	3	1	0	3	0
30	171	0	10000	3	1	0	3	0
31	173	0	10000	3	1	0	3	0
31	174	0	10000	3	1	0	3	0
31	175	0	10000	3	1	0	3	0
30	176	0	10000	3	1	0	3	0
29	177	0	10000	3	1	0	3	0
28	178	0	10000	3	1	0	3	0
28	179	0	10000	3	1	0	3	0
28	180	0	10000	3	1	0	3	0
27	180	0	10000	3	1	0	3	0
27	181	0	10000	3	1	0	3	0
26	183	0	10000	3	1	0	3	0
26	184	0	10000	3	1	0	3	0
26	185	0	10000	3	1	0	3	0
27	186	0	10000	3	1	0	3	0
28	187	0	10000	3	1	0	3	0
28	188	0	10000	3	1	0	3	0
28	189	0	10000	3	1	0	3	0
29	190	0	10000	3	1	0	3	0
29	190	0	10000	3	1	0	3	0
29	191	0	10000	3	1	0	3	0
29	193	0	10000	3	1	0	3	0
29	194	0	10000	3	1	0	3	0
28	195	0	10000	3	1	0	3	0
27	196	0	10000	3	1	0	3	0
28	197	0	10000	3	1	0	3	0
26	198	0	10000	3	1	0	3	0
27	199	0	10000	3	1	0	3	0
27	200	0	10000	3	1	0	3	0
27	200	0	10000	3	1	0	3	0
26	201	0	10000	3	1	0	3	0
26	203	0	10000	3	1	0	3	0
25	204	0	10000	3	1	0	3	0
24	205	0	10000	3	1	0	3	0
24	206	0	10000	3	1	0	3	0
24	207	0	10000	3	1	0	3	0
24	208	0	10000	3	1	0	3	0
23	209	0	10000	3	1	0	3	0
22	210	0	10000	3	1	0	3	0
22	210	0	10000	3	1	0	3	0
23	211	0	10000	3	1	0	3	0
25	213	0	10000	3	1	0	3	0
23	214	0	10000	3	1	0	3	0
24	215	0	10000	3	1	0	3	0
23	216	0	10000	3	1	0	3	0
22	217	0	10000	3	1	0	3	0
22	218	0	10000	3	1	0	3	0
22	219	0	10000	3	1	0	3	0
23	220	0	10000	3	1	0	3	0
22	220	0	10000	3	1	0	3	0
22	221	0	10000	3	1	0	3	0
21	223	0	10000	3	1	0	3	0
21	224	0	10000	3	1	0	3	0
21	225	0	10000	3	1	0	3	0
23	226	0	10000	3	1	0	3	0
24	227	0	10000	3	1	0	3	0
26	228	0	10000	3	1	0	3	0
25	229	0	10000	3	1	0	3	0
23	230	0	10000	3	1	0	3	0
23	230	0	10000	3	1	0	3	0
24	231	0	10000	3	1	0	3	0
24	233	0	10000	3	1	0	3	0
23	234	0	10000	3	1	0	3	0
25	235	0	10000	3	1	0	3	0
24	236	0	10000	3	1	0	3	0
23	237	0	10000	3	1	0	3	0
21	238	0	10000	3	1	0	3	0
22	239	0	10000	3	1	0	3	0
23	240	0	10000	3	1	0	3	0
23	240	0	10000	3	1	0	3	0
24	241	0	10000	3	1	0	3	0
22	243	0	10000	3	1	0	3	0
22	244	0	10000	3	1	0	3	0
21	245	0	10000	3	1	0	3	0
21	246	0	10000	3	1	0	3	0
21	247	0	10000	3	1	0	3	0
21	248	0	10000	3	1	0	3	0
22	249	0	10000	3	1	0	3	0
23	250	0	10000	3	1	0	3	0
24	250	0	10000	3	1	0	3	0
22	251	0	10000	3	1	0	3	0
21	253	0	10000	3	1	0	3	0
21	254	0	10000	3	1	0	3	0
21	255	0	10000	3	1	0	3	0
20	256	0	10000	3	1	0	3	0
20	257	0	10000	3	1	0	3	0
20	258	0	10000	3	1	0	3	0
20	259	0	10000	3	1	0	3	0
21	260	0	10000	3	1	0	3	0
20	260	0	10000	3	1	0	3	0
20	261	0	10000	3	1	0	3	0
20	263	0	10000	3	1	0	3	0
20	264	0	10000	3	1	0	3	0
19	265	0	10000	3	1	0	3	0
19	266	0	10000	3	1	0	3	0
19	267	0	10000	3	1	0	3	0
19	268	0	10000	3	1	0	3	0
19	269	0	10000	3	1	0	3	0
18	270	0	10000	3	1	0	3	0
19	270	0	10000	3	1	0	3	0
19	271	0	10000	3	1	0	3	0
20	273	0	10000	3	1	0	3	0
19	274	0	10000	3	1	0	3	0
18	275	0	10000	3	1	0	3	0
18	276	0	10000	3	1	0	3	0
17	277	0	10000	3	1	0	3	0
16	278	0	10000	3	1	0	3	0
18	279	0	10000	3	1	0	3	0
19	280	0	10000	3	1	0	3	0
19	280	0	10000	3	1	0	3	0
19	281	0	10000	3	1	0	3	0
19	283	0	10000	3	1	0	3	0
19	284	0	10000	3	1	0	3	0
20	285	0	10000	3	1	0	3	0
20	286	0	10000	3	1	0	3	0
22	287	0	10000	3	1	0	3	0
22	288	0	10000	3	1	0	3	0
21	289	0	10000	3	1	0	3	0
20	290	0	10000	3	1	0	3	0
20	290	0	10000	3	1	0	3	0
19	291	0	10000	3	1	0	3	0
19	293	0	10000	3	1	0	3	0
19	294	0	10000	3	1	0	3	0
20	295	0	10000	3	1	0	3	0
20	296	0	10000	3	1	0	3	0
20	297	0	10000	3	1	0	3	0
20	298	0	10000	3	1	0	3	0
19	299	0	10000	3	1	0	3	0
21	300	0	10000	3	1	0	3	0
20	300	0	10000	3	1	0	3	0
19	301	0	10000	3	1	0	3	0
19	303	0	10000	3	1	0	3	0
19	304	0	10000	3	1	0	3	0
19	305	0	10000	3	1	0	3	0
18	306	0	10000	3	1	0	3	0
20	307	0	10000	3	1	0	3	0
20	308	0	10000	3	1	0	3	0
19	309	0	10000	3	1	0	3	0
19	310	0	10000	3	1	0	3	0
19	310	0	10000	3	1	0	3	0
19	311	0	10000	3	1	0	3	0
20	313	0	10000	3	1	0	3	0
22	314	0	10000	3	1	0	3	0
21	315	0	10000	3	1	0	3	0
22	316	0	10000	3	1	0	3	0
21	317	0	10000	3	1	0	3	0
21	318	0	10000	3	1	0	3	0
21	319	0	10000	3	1	0	3	0
22	320	0	10000	3	1	0	3	0
21	320	0	10000	3	1	0	3	0
21	321	0	10000	3	1	0	3	0
20	323	0	10000	3	1	0	3	0
20	324	0	10000	3	1	0	3	0
20	325	0	10000	3	1	0	3	0
20	326	0	10000	3	1	0	3	0
20	327	0	10000	3	1	0	3	0
20	328	0	10000	3	1	0	3	0
20	329	0	10000	3	1	0	3	0
18	330	0	10000	3	1	0	3	0
19	330	0	10000	3	1	0	3	0
19	331	0	10000	3	1	0	3	0
19	333	0	10000	3	1	0	3	0
20	334	0	10000	3	1	0	3	0
19	335	0	10000	3	1	0	3	0
20	336	0	10000	3	1	0	3	0
20	337	0	10000	3	1	0	3	0
19	338	0	10000	3	1	0	3	0
19	339	0	10000	3	1	0	3	0
20	340	0	10000	3	1	0	3	0
20	340	0	10000	3	1	0	3	0
19	341	0	10000	3	1	0	3	0
20	343	0	10000	3	1	0	3	0
20	344	0	10000	3	1	0	3	0
20	345	0	10000	3	1	0	3	0
20	346	0	10000	3	1	0	3	0
19	347	0	10000	3	1	0	3	0
20	348	0	10000	3	1	0	3	0
19	349	0	10000	3	1	0	3	0
19	350	0	10000	3	1	0	3	0
19	350	0	10000	3	1	0	3	0
20	351	0	10000	3	1	0	3	0
20	353	0	10000	3	1	0	3	0
21	354	0	10000	3	1	0	3	0
20	355	0	10000	3	1	0	3	0
20	356	0	10000	3	1	0	3	0
19	357	0	10000	3	1	0	3	0
20	358	0	10000	3	1	0	3	0
21	359	0	10000	3	1	0	3	0
23	360	0	10000	3	1	0	3	0
23	360	0	10000	3	1	0	3	0
22	361	0	10000	3	1	0	3	0
22	363	0	10000	3	1	0	3	0
21	364	0	10000	3	1	0	3	0
21	365	0	10000	3	1	0	3	0
21	366	0	10000	3	1	0	3	0
21	367	0	10000	3	1	0	3	0
21	368	0	10000	3	1	0	3	0
21	369	0	10000	3	1	0	3	0
20	370	0	10000	3	1	0	3	0
21	370	0	10000	3	1	0	3	0
21	371	0	10000	3	1	0	3	0
20	373	0	10000	3	1	0	3	0
20	374	0	10000	3	1	0	3	0
21	375	0	10000	3	1	0	3	0
20	376	0	10000	3	1	0	3	0
20	377	0	10000	3	1	0	3	0
19	378	0	10000	3	1	0	3	0
20	379	0	10000	3	1	0	3	0
20	380	0	10000	3	1	0	3	0
20	380	0	10000	3	1	0	3	0
20	381	0	10000	3	1	0	3	0
20	383	0	10000	3	1	0	3	0
22	384	0	10000	3	1	0	3	0
25	385	0	10000	3	1	0	3	0
26	386	0	10000	3	1	0	3	0
27	387	0	10000	3	1	0	3	0
28	388	0	10000	3	1	0	3	0
27	389	0	10000	3	1	0	3	0
26	390	0	10000	3	1	0	3	0
25	390	0	10000	3	1	0	3	0
26	391	0	10000	3	1	0	3	0
26	393	0	10000	3	1	0	3	0
27	394	0	10000	3	1	0	3	0
26	395	0	10000	3	1	0	3	0
26	396	0	10000	3	1	0	3	0
26	397	0	10000	3	1	0	3	0
25	398	0	10000	3	1	0	3	0
27	399	0	10000	3	1	0	3	0
27	400	0	10000	3	1	0	3	0
26	400	0	10000	3	1	0	3	0
26	401	0	10000	3	1	0	3	0
25	403	0	10000	3	1	0	3	0
26	404	0	10000	3	1	0	3	0
26	405	0	10000	3	1	0	3	0
27	406	0	10000	3	1	0	3	0
27	407	0	10000	3	1	0	3	0
26	408	0	10000	3	1	0	3	0
25	409	0	10000	3	1	0	3	0
23	410	0	10000	3	1	0	3	0
23	410	0	10000	3	1	0	3	0
22	411	0	10000	3	1	0	3	0
22	413	0	10000	3	1	0	3	0
23	414	0	10000	3	1	0	3	0
22	415	0	10000	3	1	0	3	0
21	416	0	10000	3	1	0	3	0
20	417	0	10000	3	1	0	3	0
19	418	0	10000	3	1	0	3	0
20	419	0	10000	3	1	0	3	0
20	420	0	10000	3	1	0	3	0
20	420	0	10000	3	1	0	3	0
20	421	0	10000	3	1	0	3	0
20	423	0	10000	3	1	0	3	0
20	424	0	10000	3	1	0	3	0
20	425	0	10000	3	1	0	3	0
19	426	0	10000	3	1	0	3	0
20	427	0	10000	3	1	0	3	0
20	428	0	10000	3	1	0	3	0
18	429	0	10000	3	1	0	3	0
17	430	0	10000	3	1	0	3	0
18	430	0	10000	3	1	0	3	0
17	431	0	10000	3	1	0	3	0
18	433	0	10000	3	1	0	3	0
17	434	0	10000	3	1	0	3	0
18	435	0	10000	3	1	0	3	0
18	436	0	10000	3	1	0	3	0
18	437	0	10000	3	1	0	3	0
19	438	0	10000	3	1	0	3	0
20	439	0	10000	3	1	0	3	0
21	440	0	10000	3	1	0	3	0
21	440	0	10000	3	1	0	3	0
22	441	0	10000	3	1	0	3	0
21	443	0	10000	3	1	0	3	0
21	444	0	10000	3	1	0	3	0
20	445	0	10000	3	1	0	3	0
20	446	0	10000	3	1	0	3	0
20	447	0	10000	3	1	0	3	0
20	448	0	10000	3	1	0	3	0
20	449	0	10000	3	1	0	3	0
21	450	0	10000	3	1	0	3	0
24	450	0	10000	3	1	0	3	0
24	451	0	10000	3	1	0	3	0
25	453	0	10000	3	1	0	3	0
26	454	0	10000	3	1	0	3	0
27	455	0	10000	3	1	0	3	0
28	456	0	10000	3	1	0	3	0
27	457	0	10000	3	1	0	3	0
26	458	0	10000	3	1	0	3	0
26	459	0	10000	3	1	0	3	0
26	460	0	10000	3	1	0	3	0
27	460	0	10000	3	1	0	3	0
28	461	0	10000	3	1	0	3	0
28	463	0	10000	3	1	0	3	0
28	464	0	10000	3	1	0	3	0
26	465	0	10000	3	1	0	3	0
27	466	0	10000	3	1	0	3	0
28	467	0	10000	3	1	0	3	0
30	468	0	10000	3	1	0	3	0
28	469	0	10000	3	1	0	3	0
26	470	0	10000	3	1	0	3	0
27	470	0	10000	3	1	0	3	0
27	471	0	10000	3	1	0	3	0
28	473	0	10000	3	1	0	3	0
28	474	0	10000	3	1	0	3	0
30	475	0	10000	3	1	0	3	0
31	476	0	10000	3	1	0	3	0
32	477	0	10000	3	1	0	3	0
32	478	0	10000	3	1	0	3	0
32	479	0	10000	3	1	0	3	0
34	480	0	10000	3	1	0	3	0
33	480	0	10000	3	1	0	3	0
33	481	0	10000	3	1	0	3	0
31	483	0	10000	3	1	0	3	0
32	484	0	10000	3	1	0	3	0
32	485	0	10000	3	1	0	3	0
33	486	0	10000	3	1	0	3	0
34	487	0	10000	3	1	0	3	0
33	488	0	10000	3	1	0	3	0
33	489	0	10000	3	1	0	3	0
32	490	0	10000	3	1	0	3	0
32	490	0	10000	3	1	0	3	0
32	491	0	10000	3	1	0	3	0
33	493	0	10000	3	1	0	3	0
34	494	0	10000	3	1	0	3	0
34	495	0	10000	3	1	0	3	0
34	496	0	10000	3	1	0	3	0
32	497	0	10000	3	1	0	3	0
31	498	0	10000	3	1	0	3	0
31	499	0	10000	3	1	0	3	0
33	500	0	10000	3	1	0	3	0
32	500	0	10000	3	1	0	3	0
30	501	0	10000	3	1	0	3	0
30	503	0	10000	3	1	0	3	1
29	504	0	10000	3	1	0	3	1
29	505	0	10000	3	1	0	3	1
30	506	0	10000	3	1	0	3	1
32	507	0	10000	3	1	0	3	1
32	508	0	10000	3	1	0	3	1
33	509	0	10000	3	1	0	3	1
32	510	0	10000	3	1	0	3	1
33	510	0	10000	3	1	0	3	1
32	511	0	10000	3	1	0	3	1
32	513	0	10000	3	1	0	3	1
32	514	0	10000	3	1	0	3	1
31	515	0	10000	3	1	0	3	1
30	516	0	10000	3	1	0	3	1
29	517	0	10000	3	1	0	3	1
29	518	0	10000	3	1	0	3	1
29	519	0	10000	3	1	0	3	1
30	520	0	10000	3	1	0	3	1
28	520	0	10000	3	1	0	3	1
28	521	0	10000	3	1	0	3	1
27	523	0	10000	3	1	0	3	1
27	524	0	10000	3	1	0	3	1
30	525	0	10000	3	1	0	3	1
33	526	0	10000	3	1	0	3	1
33	527	0	10000	3	1	0	3	1
34	528	0	10000	3	1	0	3	1
34	529	0	10000	3	1	0	3	1
32	530	0	10000	3	1	0	3	1
33	530	0	10000	3	1	0	3	1
32	531	0	10000	3	1	0	3	1
32	533	0	10000	3	1	0	3	1
32	534	0	10000	3	1	0	3	1
32	535	0	10000	3	1	0	3	1
32	536	0	10000	3	1	0	3	1
31	537	0	10000	3	1	0	3	1
30	538	0	10000	3	1	0	3	1
30	539	0	10000	3	1	0	3	1
32	540	0	10000	3	1	0	3	1
31	540	0	10000	3	1	0	3	1
32	541	0	10000	3	1	0	3	1
31	543	0	10000	3	1	0	3	1
30	544	0	10000	3	1	0	3	1
30	545	0	10000	3	1	0	3	1
29	546	0	10000	3	1	0	3	1
30	547	0	10000	3	1	0	3	1
29	548	0	10000	3	1	0	3	1
29	549	0	10000	3	1	0	3	1
27	550	0	10000	3	1	0	3	1
27	550	0	10000	3	1	0	3	1
29	551	0	10000	3	1	0	3	1
29	553	0	10000	3	1	0	3	0
28	554	0	10000	3	1	0	3	0
28	555	0	10000	3	1	0	3	0
28	556	0	10000	3	1	0	3	0
26	557	0	10000	3	1	0	3	0
26	558	0	10000	3	1	0	3	0
25	559	0	10000	3	1	0	3	0
27	560	0	10000	3	1	0	3	0
27	560	0	10000	3	1	0	3	0
27	561	0	10000	3	1	0	3	0
26	563	0	10000	3	1	0	3	0
25	564	0	10000	3	1	0	3	0
26	565	0	10000	3	1	0	3	0
25	566	0	10000	3	1	0	3	0
26	567	0	10000	3	1	0	3	0
25	568	0	10000	3	1	0	3	0
25	569	0	10000	3	1	0	3	0
23	570	0	10000	3	1	0	3	0
24	570	0	10000	3	1	0	3	0
24	571	0	10000	3	1	0	3	0
24	573	0	10000	3	1	0	3	0
24	574	0	10000	3	1	0	3	0
23	575	0	10000	3	1	0	3	0
23	576	0	10000	3	1	0	3	0
21	577	0	10000	3	1	0	3	0
23	578	0	10000	3	1	0	3	0
26	579	0	10000	3	1	0	3	0
27	580	0	10000	3	1	0	3	0
26	580	0	10000	3	1	0	3	0
26	581	0	10000	3	1	0	3	0
25	583	0	10000	3	1	0	3	0
24	584	0	10000	3	1	0	3	0
23	585	0	10000	3	1	0	3	0
25	586	0	10000	3	1	0	3	0
28	587	0	10000	3	1	0	3	0
31	588	0	10000	3	1	0	3	0
33	589	0	10000	3	1	0	3	0
35	590	0	10000	3	1	0	3	0
35	590	0	10000	3	1	0	3	0
36	591	0	10000	3	1	0	3	0
37	593	0	10000	3	1	0	3	0
44	594	0	10000	3	1	0	3	0
57	595	0	10000	3	1	0	3	0
65	596	0	10000	3	1	0	3	0
80	597	0	10000	3	1	0	3	0
100	598	0	10000	3	1	0	3	0
129	599	0	10000	3	1	0	3	0
145	600	0	10000	3	1	0	3	0
163	600	0	10000	3	1	0	3	0
198	601	0	10000	3	1	0	3	0
233	603	0	10000	3	1	0	3	0
240	604	0	10000	3	1	0	3	0
281	605	0	10000	3	1	0	3	0
304	606	0	10000	3	1	0	3	0
425	607	0	10000	3	1	0	3	0
523	608	0	10000	3	1	0	3	0
543	609	0	10000	3	1	0	3	0
719	610	0	10000	3	1	0	3	0
841	610	0	10000	3	1	0	3	0
863	611	0	10000	3	1	0	3	0
901	613	0	10000	3	1	0	3	0
899	614	0	10000	3	1	0	3	0
879	615	0	10000	3	1	0	3	0
846	616	0	10000	3	1	0	3	0
840	617	0	10000	3	1	0	3	0
822	618	0	10000	3	1	0	3	0
811	619	0	10000	3	1	0	3	0
797	620	0	10000	3	1	0	3	0
882	620	0	10000	3	1	0	3	0
1073	621	0	10000	3	1	0	3	0
1148	623	0	10000	3	1	0	3	0
1135	624	0	10000	3	1	0	3	0
1181	625	0	10000	3	1	0	3	0
1224	626	0	10000	3	1	0	3	0
1259	627	0	10000	3	1	0	3	0
1265	628	0	10000	3	1	0	3	0
1242	629	0	10000	3	1	0	3	0
1195	630	0	10000	3	1	0	3	0
1141	630	0	10000	3	1	0	3	0
1097	631	0	10000	3	1	0	3	0
1061	633	0	10000	3	1	0	3	0
1029	634	0	10000	3	1	0	3	0
998	635	0	10000	3	1	0	3	0
966	636	0	10000	3	1	0	3	0
934	637	0	10000	3	1	0	3	0
910	638	0	10000	3	1	0	3	0
891	639	0	10000	3	1	0	3	0
878	640	0	10000	3	1	0	3	0
857	640	0	10000	3	1	0	3	0
836	641	0	10000	3	1	0	3	0
816	643	0	10000	3	1	0	3	0
843	644	0	10000	3	1	0	3	0
872	645	0	10000	3	1	0	3	0
862	646	0	10000	3	1	0	3	0
867	647	0	10000	3	1	0	3	0
978	648	0	10000	3	1	0	3	0
991	649	0	10000	3	1	0	3	0
1046	650	0	10000	3	1	0	3	0
1087	650	0	10000	3	1	0	3	0
1098	651	0	10000	3	1	0	3	0
1099	653	0	10000	3	1	0	3	0
1092	654	0	10000	3	1	0	3	0
1078	655	0	10000	3	1	0	3	0
1059	656	0	10000	3	1	0	3	0
1035	657	0	10000	3	1	0	3	0
1010	658	0	10000	3	1	0	3	0
983	659	0	10000	3	1	0	3	0
958	660	0	10000	3	1	0	3	0
932	660	0	10000	3	1	0	3	0
908	661	0	10000	3	1	0	3	0
881	663	0	10000	3	1	0	3	0
853	664	0	10000	3	1	0	3	0
824	665	0	10000	3	1	0	3	0
796	666	0	10000	3	1	0	3	0
769	667	0	10000	3	1	0	3	0
743	668	0	10000	3	1	0	3	0
718	669	0	10000	3	1	0	3	0
692	670	0	10000	3	1	0	3	0
667	670	0	10000	3	1	0	3	0
644	671	0	10000	3	1	0	3	0
622	673	0	10000	3	1	0	3	0
607	674	0	10000	3	1	0	3	0
595	675	0	10000	3	1	0	3	0
588	676	0	10000	3	1	0	3	0
584	677	0	10000	3	1	0	3	0
577	678	0	10000	3	1	0	3	0
574	679	0	10000	3	1	0	3	0
575	680	0	10000	3	1	0	3	0
576	680	0	10000	3	1	0	3	0
577	681	0	10000	3	1	0	3	0
578	683	0	10000	3	1	0	3	0
577	684	0	10000	3	1	0	3	0
575	685	0	10000	3	1	0	3	0
572	686	0	10000	3	1	0	3	0
565	687	0	10000	3	1	0	3	0
560	688	0	10000	3	1	0	3	0
550	689	0	10000	3	1	0	3	0
538	690	0	10000	3	1	0	3	0
529	690	0	10000	3	1	0	3	0
521	691	0	10000	3	1	0	3	0
513	693	0	10000	3	1	0	3	0
505	694	0	10000	3	1	0	3	0
500	695	0	10000	3	1	0	3	0
494	696	0	10000	3	1	0	3	0
490	697	0	10000	3	1	0	3	0
487	698	0	10000	3	1	0	3	0
486	699	0	10000	3	1	0	3	0
487	700	0	10000	3	1	0	3	0
484	700	0	10000	3	1	0	3	0
477	701	0	10000	3	1	0	3	0
468	703	0	10000	3	1	0	3	0
462	704	0	10000	3	1	0	3	0
458	705	0	10000	3	1	0	3	0
444	706	0	10000	3	1	0	3	0
426	707	0	10000	3	1	0	3	0
413	708	0	10000	3	1	0	3	0
398	709	0	10000	3	1	0	3	0
381	710	0	10000	3	1	0	3	0
369	710	0	10000	3	1	0	3	0
360	711	0	10000	3	1	0	3	0
353	713	0	10000	3	1	0	3	0
343	714	0	10000	3	1	0	3	0
334	715	0	10000	3	1	0	3	0
324	716	0	10000	3	1	0	3	0
314	717	0	10000	3	1	0	3	0
303	718	0	10000	3	1	0	3	0
290	719	0	10000	3	1	0	3	0
285	720	0	10000	3	1	0	3	0
274	720	0	10000	3	1	0	3	0
265	721	0	10000	3	1	0	3	0
260	723	0	10000	3	1	0	3	0
258	724	0	10000	3	1	0	3	0
256	725	0	10000	3	1	0	3	0
256	726	0	10000	3	1	0	3	0
259	727	0	10000	3	1	0	3	0
264	728	0	10000	3	1	0	3	0
269	729	0	10000	3	1	0	3	0
273	730	0	10000	3	1	0	3	0
279	730	0	10000	3	1	0	3	0
283	731	0	10000	3	1	0	3	0
288	733	0	10000	3	1	0	3	0
293	734	0	10000	3	1	0	3	0
293	735	0	10000	3	1	0	3	0
291	736	0	10000	3	1	0	3	0
288	737	0	10000	3	1	0	3	0
284	738	0	10000	3	1	0	3	0
280	739	0	10000	3	1	0	3	0
276	740	0	10000	3	1	0	3	0
270	740	0	10000	3	1	0	3	0
263	741	0	10000	3	1	0	3	0
258	743	0	10000	3	1	0	3	0
253	744	0	10000	3	1	0	3	0
249	745	0	10000	3	1	0	3	0
246	746	0	10000	3	1	0	3	0
245	747	0	10000	3	1	0	3	0
247	748	0	10000	3	1	0	3	0
249	749	0	10000	3	1	0	3	0
250	750	0	10000	3	1	0	3	0
252	750	0	10000	3	1	0	3	0
253	751	0	10000	3	1	0	3	0
253	753	0	10000	3	1	0	3	0
251	754	0	10000	3	1	0	3	0
249	755	0	10000	3	1	0	3	0
244	756	0	10000	3	1	0	3	0
238	757	0	10000	3	1	0	3	0
230	758	0	10000	3	1	0	3	0
220	759	0	10000	3	1	0	3	0
211	760	0	10000	3	1	0	3	0
201	760	0	10000	3	1	0	3	0
191	761	0	10000	3	1	0	3	0
183	763	0	10000	3	1	0	3	0
175	764	0	10000	3	1	0	3	0
167	765	0	10000	3	1	0	3	0
160	766	0	10000	3	1	0	3	0
157	767	0	10000	3	1	0	3	0
156	768	0	10000	3	1	0	3	0
155	769	0	10000	3	1	0	3	0
153	770	0	10000	3	1	0	3	0
154	770	0	10000	3	1	0	3	0
154	771	0	10000	3	1	0	3	0
152	773	0	10000	3	1	0	3	0
151	774	0	10000	3	1	0	3	0
148	775	0	10000	3	1	0	3	0
143	776	0	10000	3	1	0	3	0
137	777	0	10000	3	1	0	3	0
130	778	0	10000	3	1	0	3	0
126	779	0	10000	3	1	0	3	0
123	780	0	10000	3	1	0	3	0
119	780	0	10000	3	1	0	3	0
117	781	0	10000	3	1	0	3	0
115	783	0	10000	3	1	0	3	0
111	784	0	10000	3	1	0	3	0
106	785	0	10000	3	1	0	3	0
103	786	0	10000	3	1	0	3	0
102	787	0	10000	3	1	0	3	0
102	788	0	10000	3	1	0	3	0
103	789	0	10000	3	1	0	3	0
102	790	0	10000	3	1	0	3	0
103	790	0	10000	3	1	0	3	0
105	791	0	10000	3	1	0	3	0
104	793	0	10000	3	1	0	3	0
100	794	0	10000	3	1	0	3	0
97	795	0	10000	3	1	0	3	0
95	796	0	10000	3	1	0	3	0
92	797	0	10000	3	1	0	3	0
88	798	0	10000	3	1	0	3	0
84	799	0	10000	3	1	0	3	0
82	800	0	10000	3	1	0	3	0
78	800	0	10000	3	1	0	3	0
75	801	0	10000	3	1	0	3	0
73	803	0	10000	3	1	0	3	0
71	804	0	10000	3	1	0	3	0
68	805	0	10000	3	1	0	3	0
68	806	0	10000	3	1	0	3	0
69	807	0	10000	3	1	0	3	0
70	808	0	10000	3	1	0	3	0
72	809	0	10000	3	1	0	3	0
71	810	0	10000	3	1	0	3	0
73	810	0	10000	3	1	0	3	0
72	811	0	10000	3	1	0	3	0
73	813	0	10000	3	1	0	3	0
75	814	0	10000	3	1	0	3	0
75	815	0	10000	3	1	0	3	0
73	816	0	10000	3	1	0	3	0
69	817	0	10000	3	1	0	3	0
68	818	0	10000	3	1	0	3	0
69	819	0	10000	3	1	0	3	0
70	820	0	10000	3	1	0	3	0
70	820	0	10000	3	1	0	3	0
70	821	0	10000	3	1	0	3	0
68	823	0	10000	3	1	0	3	0
69	824	0	10000	3	1	0	3	0
67	825	0	10000	3	1	0	3	0
66	826	0	10000	3	1	0	3	0
63	827	0	10000	3	1	0	3	0
62	828	0	10000	3	1	0	3	0
59	829	0	10000	3	1	0	3	0
56	830	0	10000	3	1	0	3	0
56	830	0	10000	3	1	0	3	0
57	831	0	10000	3	1	0	3	0
56	833	0	10000	3	1	0	3	0
54	834	0	10000	3	1	0	3	0
52	835	0	10000	3	1	0	3	0
51	836	0	10000	3	1	0	3	0
50	837	0	10000	3	1	0	3	0
50	838	0	10000	3	1	0	3	0
50	839	0	10000	3	1	0	3	0
54	840	0	10000	3	1	0	3	0
57	840	0	10000	3	1	0	3	0
59	841	0	10000	3	1	0	3	0
59	843	0	10000	3	1	0	3	0
59	844	0	10000	3	1	0	3	0
58	845	0	10000	3	1	0	3	0
57	846	0	10000	3	1	0	3	0
56	847	0	10000	3	1	0	3	0
54	848	0	10000	3	1	0	3	0
53	849	0	10000	3	1	0	3	0
50	850	0	10000	3	1	0	3	0
52	850	0	10000	3	1	0	3	0
52	851	0	10000	3	1	0	3	0
51	853	0	10000	3	1	0	3	0
50	854	0	10000	3	1	0	3	0
48	855	0	10000	3	1	0	3	0
46	856	0	10000	3	1	0	3	0
44	857	0	10000	3	1	0	3	0
42	858	0	10000	3	1	0	3	0
43	859	0	10000	3	1	0	3	0
44	860	0	10000	3	1	0	3	0
44	860	0	10000	3	1	0	3	0
44	861	0	10000	3	1	0	3	0
43	863	0	10000	3	1	0	3	0
42	864	0	10000	3	1	0	3	0
41	865	0	10000	3	1	0	3	0
41	866	0	10000	3	1	0	3	0
41	867	0	10000	3	1	0	3	0
44	868	0	10000	3	1	0	3	0
46	869	0	10000	3	1	0	3	0
47	870	0	10000	3	1	0	3	0
50	870	0	10000	3	1	0	3	0
53	871	0	10000	3	1	0	3	0
52	873	0	10000	3	1	0	3	0
52	874	0	10000	3	1	0	3	0
54	875	0	10000	3	1	0	3	0
54	876	0	10000	3	1	0	3	0
53	877	0	10000	3	1	0	3	0
50	878	0	10000	3	1	0	3	0
49	879	0	10000	3	1	0	3	0
49	880	0	10000	3	1	0	3	0
47	880	0	10000	3	1	0	3	0
46	881	0	10000	3	1	0	3	0
46	883	0	10000	3	1	0	3	0
45	884	0	10000	3	1	0	3	0
44	885	0	10000	3	1	0	3	0
43	886	0	10000	3	1	0	3	0
44	887	0	10000	3	1	0	3	0
48	888	0	10000	3	1	0	3	0
52	889	0	10000	3	1	0	3	0
55	890	0	10000	3	1	0	3	0
57	890	0	10000	3	1	0	3	0
60	891	0	10000	3	1	0	3	0
65	893	0	10000	3	1	0	3	0
66	894	0	10000	3	1	0	3	0
65	895	0	10000	3	1	0	3	0
62	896	0	10000	3	1	0	3	0
59	897	0	10000	3	1	0	3	0
57	898	0	10000	3	1	0	3	0
56	899	0	10000	3	1	0	3	0
56	900	0	10000	3	1	0	3	0
55	900	0	10000	3	1	0	3	0
52	901	0	10000	3	1	0	3	0
51	903	0	10000	3	1	0	3	0
50	904	0	10000	3	1	0	3	0
48	905	0	10000	3	1	0	3	0
47	906	0	10000	3	1	0	3	0
45	907	0	10000	3	1	0	3	0
45	908	0	10000	3	1	0	3	0
44	909	0	10000	3	1	0	3	0
44	910	0	10000	3	1	0	3	0
46	910	0	10000	3	1	0	3	0
49	911	0	10000	3	1	0	3	0
49	913	0	10000	3	1	0	3	0
49	914	0	10000	3	1	0	3	0
47	915	0	10000	3	1	0	3	0
45	916	0	10000	3	1	0	3	0
44	917	0	10000	3	1	0	3	0
44	918	0	10000	3	1	0	3	0
46	919	0	10000	3	1	0	3	0
47	920	0	10000	3	1	0	3	0
47	920	0	10000	3	1	0	3	0
48	921	0	10000	3	1	0	3	0
46	923	0	10000	3	1	0	3	0
46	924	0	10000	3	1	0	3	0
45	925	0	10000	3	1	0	3	0
44	926	0	10000	3	1	0	3	0
44	927	0	10000	3	1	0	3	0
44	928	0	10000	3	1	0	3	0
43	929	0	10000	3	1	0	3	0
43	930	0	10000	3	1	0	3	0
42	930	0	10000	3	1	0	3	0
43	931	0	10000	3	1	0	3	0
44	933	0	10000	3	1	0	3	0
43	934	0	10000	3	1	0	3	0
42	935	0	10000	3	1	0	3	0
41	936	0	10000	3	1	0	3	0
42	937	0	10000	3	1	0	3	0
44	938	0	10000	3	1	0	3	0
45	939	0	10000	3	1	0	3	0
48	940	0	10000	3	1	0	3	0
49	940	0	10000	3	1	0	3	0
50	941	0	10000	3	1	0	3	0
52	943	0	10000	3	1	0	3	0
53	944	0	10000	3	1	0	3	0
51	945	0	10000	3	1	0	3	0
49	946	0	10000	3	1	0	3	0
47	947	0	10000	3	1	0	3	0
48	948	0	10000	3	1	0	3	0
47	949	0	10000	3	1	0	3	0
44	950	0	10000	3	1	0	3	0
45	950	0	10000	3	1	0	3	0
45	951	0	10000	3	1	0	3	0
46	953	0	10000	3	1	0	3	0
46	954	0	10000	3	1	0	3	0
46	955	0	10000	3	1	0	3	0
45	956	0	10000	3	1	0	3	0
45	957	0	10000	3	1	0	3	0
44	958	0	10000	3	1	0	3	0
47	959	0	10000	3	1	0	3	0
49	960	0	10000	3	1	0	3	0
48	960	0	10000	3	1	0	3	0
47	961	0	10000	3	1	0	3	0
46	963	0	10000	3	1	0	3	0
45	964	0	10000	3	1	0	3	0
44	965	0	10000	3	1	0	3	0
43	966	0	10000	3	1	0	3	0
41	967	0	10000	3	1	0	3	0
41	968	0	10000	3	1	0	3	0
39	969	0	10000	3	1	0	3	0
36	970	0	10000	3	1	0	3	0
36	970	0	10000	3	1	0	3	0
38	971	0	10000	3	1	0	3	0
38	973	0	10000	3	1	0	3	0
36	974	0	10000	3	1	0	3	0
37	975	0	10000	3	1	0	3	0
37	976	0	10000	3	1	0	3	0
36	977	0	10000	3	1	0	3	0
38	978	0	10000	3	1	0	3	0
40	979	0	10000	3	1	0	3	0
43	980	0	10000	3	1	0	3	0
44	980	0	10000	3	1	0	3	0
45	981	0	10000	3	1	0	3	0
45	983	0	10000	3	1	0	3	0
46	984	0	10000	3	1	0	3	0
46	985	0	10000	3	1	0	3	0
44	986	0	10000	3	1	0	3	0
44	987	0	10000	3	1	0	3	0
42	988	0	10000	3	1	0	3	0
41	989	0	10000	3	1	0	3	0
39	990	0	10000	3	1	0	3	0
38	990	0	10000	3	1	0	3	0
37	991	0	10000	3	1	0	3	0
36	993	0	10000	3	1	0	3	0
35	994	0	10000	3	1	0	3	0
35	995	0	10000	3	1	0	3	0
35	996	0	10000	3	1	0	3	0
35	997	0	10000	3	1	0	3	0
34	998	0	10000	3	1	0	3	0
37	999	0	10000	3	1	0	3	0
38	1000	0	10000	3	1	0	3	0
38	1000	0	10000	3	1	0	3	0
41	1001	0	10000	3	1	0	3	0
31	1	7	10000	4	1	0	4	0
31	2	7	10000	4	1	0	4	0
30	3	7	10000	4	1	0	4	0
30	4	7	10000	4	1	0	4	0
30	5	7	10000	4	1	0	4	0
30	6	7	10000	4	1	0	4	0
30	7	7	10000	4	1	0	4	0
27	8	7	10000	4	1	0	4	0
26	9	7	10000	4	1	0	4	0
25	10	7	10000	4	1	0	4	0
26	11	7	10000	4	1	0	4	0
25	12	7	10000	4	1	0	4	0
25	13	7	10000	4	1	0	4	0
25	14	7	10000	4	1	0	4	0
24	15	7	10000	4	1	0	4	0
23	16	7	10000	4	1	0	4	0
22	17	7	10000	4	1	0	4	0
24	18	7	10000	4	1	0	4	0
23	19	7	10000	4	1	0	4	0
23	20	7	10000	4	1	0	4	0
21	21	7	10000	4	1	0	4	0
21	22	7	10000	4	1	0	4	0
21	23	7	10000	4	1	0	4	0
21	24	7	10000	4	1	0	4	0
24	25	7	10000	4	1	0	4	0
22	26	7	10000	4	1	0	4	0
23	27	7	10000	4	1	0	4	0
20	28	7	10000	4	1	0	4	0
20	29	7	10000	4	1	0	4	0
20	30	7	10000	4	1	0	4	0
21	31	7	10000	4	1	0	4	0
21	32	7	10000	4	1	0	4	0
21	33	7	10000	4	1	0	4	0
21	34	7	10000	4	1	0	4	0
21	35	7	10000	4	1	0	4	0
21	36	7	10000	4	1	0	4	0
20	37	7	10000	4	1	0	4	0
20	38	7	10000	4	1	0	4	0
21	39	7	10000	4	1	0	4	0
20	40	7	10000	4	1	0	4	0
20	41	7	10000	4	1	0	4	0
19	42	7	10000	4	1	0	4	0
19	43	7	10000	4	1	0	4	0
19	44	7	10000	4	1	0	4	0
20	45	7	10000	4	1	0	4	0
20	46	7	10000	4	1	0	4	0
21	47	7	10000	4	1	0	4	0
18	48	7	10000	4	1	0	4	0
18	49	7	10000	4	1	0	4	0
19	50	7	10000	4	1	0	4	0
20	51	7	10000	4	1	0	4	0
21	52	7	10000	4	1	0	4	0
21	53	7	10000	4	1	0	4	0
20	54	7	10000	4	1	0	4	0
19	55	7	10000	4	1	0	4	0
19	56	7	10000	4	1	0	4	0
18	57	7	10000	4	1	0	4	0
20	58	7	10000	4	1	0	4	0
20	59	7	10000	4	1	0	4	0
20	60	7	10000	4	1	0	4	0
20	61	7	10000	4	1	0	4	0
20	62	7	10000	4	1	0	4	0
19	63	7	10000	4	1	0	4	0
19	64	7	10000	4	1	0	4	0
20	65	7	10000	4	1	0	4	0
19	66	7	10000	4	1	0	4	0
19	67	7	10000	4	1	0	4	0
17	68	7	10000	4	1	0	4	0
18	69	7	10000	4	1	0	4	0
17	70	7	10000	4	1	0	4	0
18	71	7	10000	4	1	0	4	0
19	72	7	10000	4	1	0	4	0
19	73	7	10000	4	1	0	4	0
18	74	7	10000	4	1	0	4	0
18	75	7	10000	4	1	0	4	0
17	76	7	10000	4	1	0	4	0
17	77	7	10000	4	1	0	4	0
19	78	7	10000	4	1	0	4	0
18	79	7	10000	4	1	0	4	0
19	80	7	10000	4	1	0	4	0
20	81	7	10000	4	1	0	4	0
20	82	7	10000	4	1	0	4	0
22	83	7	10000	4	1	0	4	0
21	84	7	10000	4	1	0	4	0
21	85	7	10000	4	1	0	4	0
21	86	7	10000	4	1	0	4	0
22	87	7	10000	4	1	0	4	0
19	88	7	10000	4	1	0	4	0
19	89	7	10000	4	1	0	4	0
21	90	7	10000	4	1	0	4	0
21	91	7	10000	4	1	0	4	0
21	92	7	10000	4	1	0	4	0
21	93	7	10000	4	1	0	4	0
21	94	7	10000	4	1	0	4	0
21	95	7	10000	4	1	0	4	0
21	96	7	10000	4	1	0	4	0
22	97	7	10000	4	1	0	4	0
25	98	7	10000	4	1	0	4	0
27	99	7	10000	4	1	0	4	0
27	100	7	10000	4	1	0	4	0
27	101	7	10000	4	1	0	4	0
26	102	7	10000	4	1	0	4	0
25	103	7	10000	4	1	0	4	0
26	104	7	10000	4	1	0	4	0
26	105	7	10000	4	1	0	4	0
25	106	7	10000	4	1	0	4	0
25	107	7	10000	4	1	0	4	0
24	108	7	10000	4	1	0	4	0
23	109	7	10000	4	1	0	4	0
22	110	7	10000	4	1	0	4	0
23	111	7	10000	4	1	0	4	0
23	112	7	10000	4	1	0	4	0
24	113	7	10000	4	1	0	4	0
25	114	7	10000	4	1	0	4	0
26	115	7	10000	4	1	0	4	0
25	116	7	10000	4	1	0	4	0
26	117	7	10000	4	1	0	4	0
27	118	7	10000	4	1	0	4	0
30	119	7	10000	4	1	0	4	0
30	120	7	10000	4	1	0	4	0
29	121	7	10000	4	1	0	4	0
28	122	7	10000	4	1	0	4	0
27	123	7	10000	4	1	0	4	0
30	124	7	10000	4	1	0	4	0
33	125	7	10000	4	1	0	4	0
36	126	7	10000	4	1	0	4	0
39	127	7	10000	4	1	0	4	0
39	128	7	10000	4	1	0	4	0
40	129	7	10000	4	1	0	4	0
41	130	7	10000	4	1	0	4	0
42	131	7	10000	4	1	0	4	0
43	132	7	10000	4	1	0	4	0
44	133	7	10000	4	1	0	4	0
48	134	7	10000	4	1	0	4	0
48	135	7	10000	4	1	0	4	0
50	136	7	10000	4	1	0	4	0
50	137	7	10000	4	1	0	4	0
53	138	7	10000	4	1	0	4	0
54	139	7	10000	4	1	0	4	0
53	140	7	10000	4	1	0	4	0
52	141	7	10000	4	1	0	4	0
52	142	7	10000	4	1	0	4	0
51	143	7	10000	4	1	0	4	0
48	144	7	10000	4	1	0	4	0
48	145	7	10000	4	1	0	4	0
49	146	7	10000	4	1	0	4	0
51	147	7	10000	4	1	0	4	0
51	148	7	10000	4	1	0	4	0
50	149	7	10000	4	1	0	4	0
51	150	7	10000	4	1	0	4	0
50	151	7	10000	4	1	0	4	0
51	152	7	10000	4	1	0	4	0
50	153	7	10000	4	1	0	4	0
49	154	7	10000	4	1	0	4	0
49	155	7	10000	4	1	0	4	0
47	156	7	10000	4	1	0	4	0
45	157	7	10000	4	1	0	4	0
46	158	7	10000	4	1	0	4	0
44	159	7	10000	4	1	0	4	0
43	160	7	10000	4	1	0	4	0
42	161	7	10000	4	1	0	4	0
40	162	7	10000	4	1	0	4	0
40	163	7	10000	4	1	0	4	0
40	164	7	10000	4	1	0	4	0
42	165	7	10000	4	1	0	4	0
44	166	7	10000	4	1	0	4	0
43	167	7	10000	4	1	0	4	0
42	168	7	10000	4	1	0	4	0
41	169	7	10000	4	1	0	4	0
42	170	7	10000	4	1	0	4	0
43	171	7	10000	4	1	0	4	0
46	172	7	10000	4	1	0	4	0
47	173	7	10000	4	1	0	4	0
49	174	7	10000	4	1	0	4	0
50	175	7	10000	4	1	0	4	0
51	176	7	10000	4	1	0	4	0
52	177	7	10000	4	1	0	4	0
52	178	7	10000	4	1	0	4	0
52	179	7	10000	4	1	0	4	0
50	180	7	10000	4	1	0	4	0
50	181	7	10000	4	1	0	4	0
50	182	7	10000	4	1	0	4	0
50	183	7	10000	4	1	0	4	0
51	184	7	10000	4	1	0	4	0
49	185	7	10000	4	1	0	4	0
49	186	7	10000	4	1	0	4	0
48	187	7	10000	4	1	0	4	0
45	188	7	10000	4	1	0	4	0
44	189	7	10000	4	1	0	4	0
44	190	7	10000	4	1	0	4	0
44	191	7	10000	4	1	0	4	0
43	192	7	10000	4	1	0	4	0
45	193	7	10000	4	1	0	4	0
45	194	7	10000	4	1	0	4	0
45	195	7	10000	4	1	0	4	0
44	196	7	10000	4	1	0	4	0
43	197	7	10000	4	1	0	4	0
44	198	7	10000	4	1	0	4	0
43	199	7	10000	4	1	0	4	0
42	200	7	10000	4	1	0	4	0
41	201	7	10000	4	1	0	4	0
41	202	7	10000	4	1	0	4	0
40	203	7	10000	4	1	0	4	0
38	204	7	10000	4	1	0	4	0
38	205	7	10000	4	1	0	4	0
37	206	7	10000	4	1	0	4	0
37	207	7	10000	4	1	0	4	0
34	208	7	10000	4	1	0	4	0
33	209	7	10000	4	1	0	4	0
32	210	7	10000	4	1	0	4	0
32	211	7	10000	4	1	0	4	0
31	212	7	10000	4	1	0	4	0
31	213	7	10000	4	1	0	4	0
30	214	7	10000	4	1	0	4	0
29	215	7	10000	4	1	0	4	0
29	216	7	10000	4	1	0	4	0
27	217	7	10000	4	1	0	4	0
28	218	7	10000	4	1	0	4	0
27	219	7	10000	4	1	0	4	0
28	220	7	10000	4	1	0	4	0
26	221	7	10000	4	1	0	4	0
26	222	7	10000	4	1	0	4	0
27	223	7	10000	4	1	0	4	0
28	224	7	10000	4	1	0	4	0
29	225	7	10000	4	1	0	4	0
28	226	7	10000	4	1	0	4	0
29	227	7	10000	4	1	0	4	0
26	228	7	10000	4	1	0	4	0
26	229	7	10000	4	1	0	4	0
26	230	7	10000	4	1	0	4	0
27	231	7	10000	4	1	0	4	0
28	232	7	10000	4	1	0	4	0
27	233	7	10000	4	1	0	4	0
26	234	7	10000	4	1	0	4	0
25	235	7	10000	4	1	0	4	0
26	236	7	10000	4	1	0	4	0
26	237	7	10000	4	1	0	4	0
29	238	7	10000	4	1	0	4	0
29	239	7	10000	4	1	0	4	0
29	240	7	10000	4	1	0	4	0
28	241	7	10000	4	1	0	4	0
28	242	7	10000	4	1	0	4	0
27	243	7	10000	4	1	0	4	0
27	244	7	10000	4	1	0	4	0
27	245	7	10000	4	1	0	4	0
25	246	7	10000	4	1	0	4	0
25	247	7	10000	4	1	0	4	0
22	248	7	10000	4	1	0	4	0
23	249	7	10000	4	1	0	4	0
22	250	7	10000	4	1	0	4	0
22	251	7	10000	4	1	0	4	0
21	252	7	10000	4	1	0	4	0
22	253	7	10000	4	1	0	4	0
21	254	7	10000	4	1	0	4	0
20	255	7	10000	4	1	0	4	0
21	256	7	10000	4	1	0	4	0
22	257	7	10000	4	1	0	4	0
25	258	7	10000	4	1	0	4	0
26	259	7	10000	4	1	0	4	0
27	260	7	10000	4	1	0	4	0
26	261	7	10000	4	1	0	4	0
27	262	7	10000	4	1	0	4	0
28	263	7	10000	4	1	0	4	0
27	264	7	10000	4	1	0	4	0
26	265	7	10000	4	1	0	4	0
26	266	7	10000	4	1	0	4	0
28	267	7	10000	4	1	0	4	0
24	268	7	10000	4	1	0	4	0
23	269	7	10000	4	1	0	4	0
24	270	7	10000	4	1	0	4	0
25	271	7	10000	4	1	0	4	0
26	272	7	10000	4	1	0	4	0
27	273	7	10000	4	1	0	4	0
28	274	7	10000	4	1	0	4	0
26	275	7	10000	4	1	0	4	0
25	276	7	10000	4	1	0	4	0
24	277	7	10000	4	1	0	4	0
24	278	7	10000	4	1	0	4	0
24	279	7	10000	4	1	0	4	0
24	280	7	10000	4	1	0	4	0
24	281	7	10000	4	1	0	4	0
26	282	7	10000	4	1	0	4	0
27	283	7	10000	4	1	0	4	0
26	284	7	10000	4	1	0	4	0
26	285	7	10000	4	1	0	4	0
25	286	7	10000	4	1	0	4	0
25	287	7	10000	4	1	0	4	0
25	288	7	10000	4	1	0	4	0
24	289	7	10000	4	1	0	4	0
24	290	7	10000	4	1	0	4	0
26	291	7	10000	4	1	0	4	0
26	292	7	10000	4	1	0	4	0
24	293	7	10000	4	1	0	4	0
24	294	7	10000	4	1	0	4	0
24	295	7	10000	4	1	0	4	0
24	296	7	10000	4	1	0	4	0
24	297	7	10000	4	1	0	4	0
26	298	7	10000	4	1	0	4	0
25	299	7	10000	4	1	0	4	0
24	300	7	10000	4	1	0	4	0
24	301	7	10000	4	1	0	4	0
23	302	7	10000	4	1	0	4	0
24	303	7	10000	4	1	0	4	0
22	304	7	10000	4	1	0	4	0
23	305	7	10000	4	1	0	4	0
24	306	7	10000	4	1	0	4	0
25	307	7	10000	4	1	0	4	0
23	308	7	10000	4	1	0	4	0
25	309	7	10000	4	1	0	4	0
25	310	7	10000	4	1	0	4	0
24	311	7	10000	4	1	0	4	0
23	312	7	10000	4	1	0	4	0
23	313	7	10000	4	1	0	4	0
23	314	7	10000	4	1	0	4	0
23	315	7	10000	4	1	0	4	0
24	316	7	10000	4	1	0	4	0
23	317	7	10000	4	1	0	4	0
26	318	7	10000	4	1	0	4	0
27	319	7	10000	4	1	0	4	0
28	320	7	10000	4	1	0	4	0
29	321	7	10000	4	1	0	4	0
27	322	7	10000	4	1	0	4	0
25	323	7	10000	4	1	0	4	0
25	324	7	10000	4	1	0	4	0
25	325	7	10000	4	1	0	4	0
25	326	7	10000	4	1	0	4	0
26	327	7	10000	4	1	0	4	0
24	328	7	10000	4	1	0	4	0
23	329	7	10000	4	1	0	4	0
25	330	7	10000	4	1	0	4	0
25	331	7	10000	4	1	0	4	0
27	332	7	10000	4	1	0	4	0
28	333	7	10000	4	1	0	4	0
28	334	7	10000	4	1	0	4	0
27	335	7	10000	4	1	0	4	0
26	336	7	10000	4	1	0	4	0
25	337	7	10000	4	1	0	4	0
26	338	7	10000	4	1	0	4	0
26	339	7	10000	4	1	0	4	0
24	340	7	10000	4	1	0	4	0
24	341	7	10000	4	1	0	4	0
23	342	7	10000	4	1	0	4	0
22	343	7	10000	4	1	0	4	0
22	344	7	10000	4	1	0	4	0
24	345	7	10000	4	1	0	4	0
24	346	7	10000	4	1	0	4	0
23	347	7	10000	4	1	0	4	0
20	348	7	10000	4	1	0	4	0
20	349	7	10000	4	1	0	4	0
23	350	7	10000	4	1	0	4	0
21	351	7	10000	4	1	0	4	0
23	352	7	10000	4	1	0	4	0
23	353	7	10000	4	1	0	4	0
25	354	7	10000	4	1	0	4	0
25	355	7	10000	4	1	0	4	0
24	356	7	10000	4	1	0	4	0
24	357	7	10000	4	1	0	4	0
25	358	7	10000	4	1	0	4	0
25	359	7	10000	4	1	0	4	0
25	360	7	10000	4	1	0	4	0
24	361	7	10000	4	1	0	4	0
24	362	7	10000	4	1	0	4	0
23	363	7	10000	4	1	0	4	0
23	364	7	10000	4	1	0	4	0
23	365	7	10000	4	1	0	4	0
23	366	7	10000	4	1	0	4	0
24	367	7	10000	4	1	0	4	0
23	368	7	10000	4	1	0	4	0
23	369	7	10000	4	1	0	4	0
23	370	7	10000	4	1	0	4	0
26	371	7	10000	4	1	0	4	0
26	372	7	10000	4	1	0	4	0
26	373	7	10000	4	1	0	4	0
26	374	7	10000	4	1	0	4	0
25	375	7	10000	4	1	0	4	0
24	376	7	10000	4	1	0	4	0
22	377	7	10000	4	1	0	4	0
24	378	7	10000	4	1	0	4	0
23	379	7	10000	4	1	0	4	0
24	380	7	10000	4	1	0	4	0
23	381	7	10000	4	1	0	4	0
23	382	7	10000	4	1	0	4	0
22	383	7	10000	4	1	0	4	0
21	384	7	10000	4	1	0	4	0
21	385	7	10000	4	1	0	4	0
22	386	7	10000	4	1	0	4	0
21	387	7	10000	4	1	0	4	0
19	388	7	10000	4	1	0	4	0
19	389	7	10000	4	1	0	4	0
20	390	7	10000	4	1	0	4	0
20	391	7	10000	4	1	0	4	0
19	392	7	10000	4	1	0	4	0
21	393	7	10000	4	1	0	4	0
20	394	7	10000	4	1	0	4	0
20	395	7	10000	4	1	0	4	0
20	396	7	10000	4	1	0	4	0
20	397	7	10000	4	1	0	4	0
21	398	7	10000	4	1	0	4	0
22	399	7	10000	4	1	0	4	0
21	400	7	10000	4	1	0	4	0
20	401	7	10000	4	1	0	4	0
20	402	7	10000	4	1	0	4	0
22	403	7	10000	4	1	0	4	0
24	404	7	10000	4	1	0	4	0
26	405	7	10000	4	1	0	4	0
27	406	7	10000	4	1	0	4	0
29	407	7	10000	4	1	0	4	0
27	408	7	10000	4	1	0	4	0
28	409	7	10000	4	1	0	4	0
28	410	7	10000	4	1	0	4	0
28	411	7	10000	4	1	0	4	0
27	412	7	10000	4	1	0	4	0
26	413	7	10000	4	1	0	4	0
28	414	7	10000	4	1	0	4	0
28	415	7	10000	4	1	0	4	0
29	416	7	10000	4	1	0	4	0
28	417	7	10000	4	1	0	4	0
30	418	7	10000	4	1	0	4	0
31	419	7	10000	4	1	0	4	0
30	420	7	10000	4	1	0	4	0
29	421	7	10000	4	1	0	4	0
29	422	7	10000	4	1	0	4	0
28	423	7	10000	4	1	0	4	0
28	424	7	10000	4	1	0	4	0
28	425	7	10000	4	1	0	4	0
29	426	7	10000	4	1	0	4	0
29	427	7	10000	4	1	0	4	0
27	428	7	10000	4	1	0	4	0
26	429	7	10000	4	1	0	4	0
27	430	7	10000	4	1	0	4	0
26	431	7	10000	4	1	0	4	0
26	432	7	10000	4	1	0	4	0
25	433	7	10000	4	1	0	4	0
26	434	7	10000	4	1	0	4	0
27	435	7	10000	4	1	0	4	0
26	436	7	10000	4	1	0	4	0
26	437	7	10000	4	1	0	4	0
27	438	7	10000	4	1	0	4	0
27	439	7	10000	4	1	0	4	0
27	440	7	10000	4	1	0	4	0
25	441	7	10000	4	1	0	4	0
24	442	7	10000	4	1	0	4	0
25	443	7	10000	4	1	0	4	0
24	444	7	10000	4	1	0	4	0
23	445	7	10000	4	1	0	4	0
24	446	7	10000	4	1	0	4	0
24	447	7	10000	4	1	0	4	0
22	448	7	10000	4	1	0	4	0
22	449	7	10000	4	1	0	4	0
23	450	7	10000	4	1	0	4	0
25	451	7	10000	4	1	0	4	0
25	452	7	10000	4	1	0	4	0
25	453	7	10000	4	1	0	4	0
25	454	7	10000	4	1	0	4	0
25	455	7	10000	4	1	0	4	0
24	456	7	10000	4	1	0	4	0
24	457	7	10000	4	1	0	4	0
26	458	7	10000	4	1	0	4	0
25	459	7	10000	4	1	0	4	0
24	460	7	10000	4	1	0	4	0
23	461	7	10000	4	1	0	4	0
24	462	7	10000	4	1	0	4	0
24	463	7	10000	4	1	0	4	0
24	464	7	10000	4	1	0	4	0
24	465	7	10000	4	1	0	4	0
24	466	7	10000	4	1	0	4	0
24	467	7	10000	4	1	0	4	0
21	468	7	10000	4	1	0	4	0
22	469	7	10000	4	1	0	4	0
21	470	7	10000	4	1	0	4	0
22	471	7	10000	4	1	0	4	0
22	472	7	10000	4	1	0	4	0
22	473	7	10000	4	1	0	4	0
21	474	7	10000	4	1	0	4	0
20	475	7	10000	4	1	0	4	0
20	476	7	10000	4	1	0	4	0
19	477	7	10000	4	1	0	4	0
22	478	7	10000	4	1	0	4	0
22	479	7	10000	4	1	0	4	0
22	480	7	10000	4	1	0	4	0
22	481	7	10000	4	1	0	4	0
21	482	7	10000	4	1	0	4	0
21	483	7	10000	4	1	0	4	0
20	484	7	10000	4	1	0	4	0
21	485	7	10000	4	1	0	4	0
20	486	7	10000	4	1	0	4	0
20	487	7	10000	4	1	0	4	0
18	488	7	10000	4	1	0	4	0
18	489	7	10000	4	1	0	4	0
19	490	7	10000	4	1	0	4	0
19	491	7	10000	4	1	0	4	0
19	492	7	10000	4	1	0	4	0
20	493	7	10000	4	1	0	4	0
21	494	7	10000	4	1	0	4	0
20	495	7	10000	4	1	0	4	0
20	496	7	10000	4	1	0	4	0
20	497	7	10000	4	1	0	4	0
22	498	7	10000	4	1	0	4	0
21	499	7	10000	4	1	0	4	0
20	500	7	10000	4	1	0	4	0
20	501	7	10000	4	1	0	4	1
19	502	7	10000	4	1	0	4	1
18	503	7	10000	4	1	0	4	1
19	504	7	10000	4	1	0	4	1
20	505	7	10000	4	1	0	4	1
21	506	7	10000	4	1	0	4	1
21	507	7	10000	4	1	0	4	1
19	508	7	10000	4	1	0	4	1
19	509	7	10000	4	1	0	4	1
20	510	7	10000	4	1	0	4	1
19	511	7	10000	4	1	0	4	1
19	512	7	10000	4	1	0	4	1
19	513	7	10000	4	1	0	4	1
19	514	7	10000	4	1	0	4	1
18	515	7	10000	4	1	0	4	1
17	516	7	10000	4	1	0	4	1
17	517	7	10000	4	1	0	4	1
19	518	7	10000	4	1	0	4	1
18	519	7	10000	4	1	0	4	1
18	520	7	10000	4	1	0	4	1
17	521	7	10000	4	1	0	4	1
17	522	7	10000	4	1	0	4	1
18	523	7	10000	4	1	0	4	1
17	524	7	10000	4	1	0	4	1
18	525	7	10000	4	1	0	4	1
18	526	7	10000	4	1	0	4	1
18	527	7	10000	4	1	0	4	1
15	528	7	10000	4	1	0	4	1
15	529	7	10000	4	1	0	4	1
17	530	7	10000	4	1	0	4	1
17	531	7	10000	4	1	0	4	1
17	532	7	10000	4	1	0	4	1
17	533	7	10000	4	1	0	4	1
17	534	7	10000	4	1	0	4	1
15	535	7	10000	4	1	0	4	1
15	536	7	10000	4	1	0	4	1
14	537	7	10000	4	1	0	4	1
15	538	7	10000	4	1	0	4	1
16	539	7	10000	4	1	0	4	1
16	540	7	10000	4	1	0	4	1
17	541	7	10000	4	1	0	4	1
17	542	7	10000	4	1	0	4	1
18	543	7	10000	4	1	0	4	1
18	544	7	10000	4	1	0	4	1
18	545	7	10000	4	1	0	4	1
19	546	7	10000	4	1	0	4	1
19	547	7	10000	4	1	0	4	1
17	548	7	10000	4	1	0	4	1
17	549	7	10000	4	1	0	4	1
17	550	7	10000	4	1	0	4	1
16	551	7	10000	4	1	0	4	0
18	552	7	10000	4	1	0	4	0
18	553	7	10000	4	1	0	4	0
19	554	7	10000	4	1	0	4	0
19	555	7	10000	4	1	0	4	0
18	556	7	10000	4	1	0	4	0
17	557	7	10000	4	1	0	4	0
19	558	7	10000	4	1	0	4	0
20	559	7	10000	4	1	0	4	0
19	560	7	10000	4	1	0	4	0
20	561	7	10000	4	1	0	4	0
20	562	7	10000	4	1	0	4	0
20	563	7	10000	4	1	0	4	0
19	564	7	10000	4	1	0	4	0
19	565	7	10000	4	1	0	4	0
19	566	7	10000	4	1	0	4	0
19	567	7	10000	4	1	0	4	0
17	568	7	10000	4	1	0	4	0
18	569	7	10000	4	1	0	4	0
19	570	7	10000	4	1	0	4	0
19	571	7	10000	4	1	0	4	0
19	572	7	10000	4	1	0	4	0
20	573	7	10000	4	1	0	4	0
19	574	7	10000	4	1	0	4	0
19	575	7	10000	4	1	0	4	0
18	576	7	10000	4	1	0	4	0
18	577	7	10000	4	1	0	4	0
20	578	7	10000	4	1	0	4	0
21	579	7	10000	4	1	0	4	0
21	580	7	10000	4	1	0	4	0
21	581	7	10000	4	1	0	4	0
21	582	7	10000	4	1	0	4	0
20	583	7	10000	4	1	0	4	0
21	584	7	10000	4	1	0	4	0
22	585	7	10000	4	1	0	4	0
22	586	7	10000	4	1	0	4	0
23	587	7	10000	4	1	0	4	0
22	588	7	10000	4	1	0	4	0
20	589	7	10000	4	1	0	4	0
22	590	7	10000	4	1	0	4	0
22	591	7	10000	4	1	0	4	0
21	592	7	10000	4	1	0	4	0
21	593	7	10000	4	1	0	4	0
21	594	7	10000	4	1	0	4	0
21	595	7	10000	4	1	0	4	0
20	596	7	10000	4	1	0	4	0
19	597	7	10000	4	1	0	4	0
20	598	7	10000	4	1	0	4	0
20	599	7	10000	4	1	0	4	0
20	600	7	10000	4	1	0	4	0
20	601	7	10000	4	1	0	4	0
20	602	7	10000	4	1	0	4	0
20	603	7	10000	4	1	0	4	0
20	604	7	10000	4	1	0	4	0
20	605	7	10000	4	1	0	4	0
22	606	7	10000	4	1	0	4	0
21	607	7	10000	4	1	0	4	0
20	608	7	10000	4	1	0	4	0
21	609	7	10000	4	1	0	4	0
20	610	7	10000	4	1	0	4	0
20	611	7	10000	4	1	0	4	0
20	612	7	10000	4	1	0	4	0
21	613	7	10000	4	1	0	4	0
21	614	7	10000	4	1	0	4	0
20	615	7	10000	4	1	0	4	0
20	616	7	10000	4	1	0	4	0
20	617	7	10000	4	1	0	4	0
21	618	7	10000	4	1	0	4	0
21	619	7	10000	4	1	0	4	0
22	620	7	10000	4	1	0	4	0
24	621	7	10000	4	1	0	4	0
27	622	7	10000	4	1	0	4	0
26	623	7	10000	4	1	0	4	0
26	624	7	10000	4	1	0	4	0
26	625	7	10000	4	1	0	4	0
27	626	7	10000	4	1	0	4	0
27	627	7	10000	4	1	0	4	0
25	628	7	10000	4	1	0	4	0
24	629	7	10000	4	1	0	4	0
23	630	7	10000	4	1	0	4	0
24	631	7	10000	4	1	0	4	0
23	632	7	10000	4	1	0	4	0
23	633	7	10000	4	1	0	4	0
23	634	7	10000	4	1	0	4	0
22	635	7	10000	4	1	0	4	0
21	636	7	10000	4	1	0	4	0
20	637	7	10000	4	1	0	4	0
21	638	7	10000	4	1	0	4	0
21	639	7	10000	4	1	0	4	0
20	640	7	10000	4	1	0	4	0
20	641	7	10000	4	1	0	4	0
20	642	7	10000	4	1	0	4	0
19	643	7	10000	4	1	0	4	0
18	644	7	10000	4	1	0	4	0
20	645	7	10000	4	1	0	4	0
19	646	7	10000	4	1	0	4	0
20	647	7	10000	4	1	0	4	0
18	648	7	10000	4	1	0	4	0
18	649	7	10000	4	1	0	4	0
18	650	7	10000	4	1	0	4	0
18	651	7	10000	4	1	0	4	0
18	652	7	10000	4	1	0	4	0
19	653	7	10000	4	1	0	4	0
19	654	7	10000	4	1	0	4	0
19	655	7	10000	4	1	0	4	0
18	656	7	10000	4	1	0	4	0
17	657	7	10000	4	1	0	4	0
19	658	7	10000	4	1	0	4	0
19	659	7	10000	4	1	0	4	0
18	660	7	10000	4	1	0	4	0
18	661	7	10000	4	1	0	4	0
17	662	7	10000	4	1	0	4	0
17	663	7	10000	4	1	0	4	0
17	664	7	10000	4	1	0	4	0
16	665	7	10000	4	1	0	4	0
17	666	7	10000	4	1	0	4	0
17	667	7	10000	4	1	0	4	0
17	668	7	10000	4	1	0	4	0
16	669	7	10000	4	1	0	4	0
16	670	7	10000	4	1	0	4	0
18	671	7	10000	4	1	0	4	0
17	672	7	10000	4	1	0	4	0
16	673	7	10000	4	1	0	4	0
18	674	7	10000	4	1	0	4	0
17	675	7	10000	4	1	0	4	0
16	676	7	10000	4	1	0	4	0
15	677	7	10000	4	1	0	4	0
17	678	7	10000	4	1	0	4	0
18	679	7	10000	4	1	0	4	0
17	680	7	10000	4	1	0	4	0
19	681	7	10000	4	1	0	4	0
19	682	7	10000	4	1	0	4	0
18	683	7	10000	4	1	0	4	0
17	684	7	10000	4	1	0	4	0
18	685	7	10000	4	1	0	4	0
18	686	7	10000	4	1	0	4	0
18	687	7	10000	4	1	0	4	0
17	688	7	10000	4	1	0	4	0
18	689	7	10000	4	1	0	4	0
20	690	7	10000	4	1	0	4	0
22	691	7	10000	4	1	0	4	0
23	692	7	10000	4	1	0	4	0
25	693	7	10000	4	1	0	4	0
26	694	7	10000	4	1	0	4	0
27	695	7	10000	4	1	0	4	0
26	696	7	10000	4	1	0	4	0
28	697	7	10000	4	1	0	4	0
30	698	7	10000	4	1	0	4	0
28	699	7	10000	4	1	0	4	0
29	700	7	10000	4	1	0	4	0
27	701	7	10000	4	1	0	4	0
27	702	7	10000	4	1	0	4	0
26	703	7	10000	4	1	0	4	0
27	704	7	10000	4	1	0	4	0
27	705	7	10000	4	1	0	4	0
27	706	7	10000	4	1	0	4	0
28	707	7	10000	4	1	0	4	0
26	708	7	10000	4	1	0	4	0
26	709	7	10000	4	1	0	4	0
26	710	7	10000	4	1	0	4	0
26	711	7	10000	4	1	0	4	0
26	712	7	10000	4	1	0	4	0
25	713	7	10000	4	1	0	4	0
24	714	7	10000	4	1	0	4	0
25	715	7	10000	4	1	0	4	0
24	716	7	10000	4	1	0	4	0
24	717	7	10000	4	1	0	4	0
26	718	7	10000	4	1	0	4	0
24	719	7	10000	4	1	0	4	0
24	720	7	10000	4	1	0	4	0
22	721	7	10000	4	1	0	4	0
23	722	7	10000	4	1	0	4	0
22	723	7	10000	4	1	0	4	0
22	724	7	10000	4	1	0	4	0
22	725	7	10000	4	1	0	4	0
21	726	7	10000	4	1	0	4	0
22	727	7	10000	4	1	0	4	0
21	728	7	10000	4	1	0	4	0
22	729	7	10000	4	1	0	4	0
21	730	7	10000	4	1	0	4	0
21	731	7	10000	4	1	0	4	0
21	732	7	10000	4	1	0	4	0
21	733	7	10000	4	1	0	4	0
23	734	7	10000	4	1	0	4	0
21	735	7	10000	4	1	0	4	0
22	736	7	10000	4	1	0	4	0
21	737	7	10000	4	1	0	4	0
24	738	7	10000	4	1	0	4	0
23	739	7	10000	4	1	0	4	0
23	740	7	10000	4	1	0	4	0
24	741	7	10000	4	1	0	4	0
25	742	7	10000	4	1	0	4	0
27	743	7	10000	4	1	0	4	0
28	744	7	10000	4	1	0	4	0
29	745	7	10000	4	1	0	4	0
29	746	7	10000	4	1	0	4	0
29	747	7	10000	4	1	0	4	0
28	748	7	10000	4	1	0	4	0
27	749	7	10000	4	1	0	4	0
28	750	7	10000	4	1	0	4	0
28	751	7	10000	4	1	0	4	0
29	752	7	10000	4	1	0	4	0
28	753	7	10000	4	1	0	4	0
29	754	7	10000	4	1	0	4	0
27	755	7	10000	4	1	0	4	0
26	756	7	10000	4	1	0	4	0
24	757	7	10000	4	1	0	4	0
27	758	7	10000	4	1	0	4	0
25	759	7	10000	4	1	0	4	0
24	760	7	10000	4	1	0	4	0
24	761	7	10000	4	1	0	4	0
24	762	7	10000	4	1	0	4	0
23	763	7	10000	4	1	0	4	0
22	764	7	10000	4	1	0	4	0
24	765	7	10000	4	1	0	4	0
23	766	7	10000	4	1	0	4	0
25	767	7	10000	4	1	0	4	0
22	768	7	10000	4	1	0	4	0
22	769	7	10000	4	1	0	4	0
22	770	7	10000	4	1	0	4	0
22	771	7	10000	4	1	0	4	0
22	772	7	10000	4	1	0	4	0
21	773	7	10000	4	1	0	4	0
22	774	7	10000	4	1	0	4	0
23	775	7	10000	4	1	0	4	0
23	776	7	10000	4	1	0	4	0
22	777	7	10000	4	1	0	4	0
23	778	7	10000	4	1	0	4	0
23	779	7	10000	4	1	0	4	0
22	780	7	10000	4	1	0	4	0
23	781	7	10000	4	1	0	4	0
22	782	7	10000	4	1	0	4	0
23	783	7	10000	4	1	0	4	0
23	784	7	10000	4	1	0	4	0
23	785	7	10000	4	1	0	4	0
23	786	7	10000	4	1	0	4	0
23	787	7	10000	4	1	0	4	0
20	788	7	10000	4	1	0	4	0
20	789	7	10000	4	1	0	4	0
21	790	7	10000	4	1	0	4	0
20	791	7	10000	4	1	0	4	0
20	792	7	10000	4	1	0	4	0
20	793	7	10000	4	1	0	4	0
20	794	7	10000	4	1	0	4	0
20	795	7	10000	4	1	0	4	0
19	796	7	10000	4	1	0	4	0
18	797	7	10000	4	1	0	4	0
20	798	7	10000	4	1	0	4	0
20	799	7	10000	4	1	0	4	0
20	800	7	10000	4	1	0	4	0
21	801	7	10000	4	1	0	4	0
21	802	7	10000	4	1	0	4	0
22	803	7	10000	4	1	0	4	0
22	804	7	10000	4	1	0	4	0
22	805	7	10000	4	1	0	4	0
22	806	7	10000	4	1	0	4	0
23	807	7	10000	4	1	0	4	0
21	808	7	10000	4	1	0	4	0
21	809	7	10000	4	1	0	4	0
22	810	7	10000	4	1	0	4	0
22	811	7	10000	4	1	0	4	0
22	812	7	10000	4	1	0	4	0
23	813	7	10000	4	1	0	4	0
24	814	7	10000	4	1	0	4	0
22	815	7	10000	4	1	0	4	0
23	816	7	10000	4	1	0	4	0
22	817	7	10000	4	1	0	4	0
24	818	7	10000	4	1	0	4	0
25	819	7	10000	4	1	0	4	0
24	820	7	10000	4	1	0	4	0
26	821	7	10000	4	1	0	4	0
26	822	7	10000	4	1	0	4	0
27	823	7	10000	4	1	0	4	0
26	824	7	10000	4	1	0	4	0
26	825	7	10000	4	1	0	4	0
26	826	7	10000	4	1	0	4	0
27	827	7	10000	4	1	0	4	0
28	828	7	10000	4	1	0	4	0
28	829	7	10000	4	1	0	4	0
29	830	7	10000	4	1	0	4	0
28	831	7	10000	4	1	0	4	0
28	832	7	10000	4	1	0	4	0
30	833	7	10000	4	1	0	4	0
32	834	7	10000	4	1	0	4	0
34	835	7	10000	4	1	0	4	0
33	836	7	10000	4	1	0	4	0
33	837	7	10000	4	1	0	4	0
35	838	7	10000	4	1	0	4	0
34	839	7	10000	4	1	0	4	0
34	840	7	10000	4	1	0	4	0
33	841	7	10000	4	1	0	4	0
34	842	7	10000	4	1	0	4	0
35	843	7	10000	4	1	0	4	0
36	844	7	10000	4	1	0	4	0
35	845	7	10000	4	1	0	4	0
35	846	7	10000	4	1	0	4	0
34	847	7	10000	4	1	0	4	0
33	848	7	10000	4	1	0	4	0
32	849	7	10000	4	1	0	4	0
32	850	7	10000	4	1	0	4	0
33	851	7	10000	4	1	0	4	0
33	852	7	10000	4	1	0	4	0
32	853	7	10000	4	1	0	4	0
32	854	7	10000	4	1	0	4	0
31	855	7	10000	4	1	0	4	0
30	856	7	10000	4	1	0	4	0
28	857	7	10000	4	1	0	4	0
29	858	7	10000	4	1	0	4	0
29	859	7	10000	4	1	0	4	0
29	860	7	10000	4	1	0	4	0
27	861	7	10000	4	1	0	4	0
27	862	7	10000	4	1	0	4	0
27	863	7	10000	4	1	0	4	0
26	864	7	10000	4	1	0	4	0
25	865	7	10000	4	1	0	4	0
27	866	7	10000	4	1	0	4	0
26	867	7	10000	4	1	0	4	0
25	868	7	10000	4	1	0	4	0
26	869	7	10000	4	1	0	4	0
27	870	7	10000	4	1	0	4	0
28	871	7	10000	4	1	0	4	0
29	872	7	10000	4	1	0	4	0
29	873	7	10000	4	1	0	4	0
30	874	7	10000	4	1	0	4	0
29	875	7	10000	4	1	0	4	0
28	876	7	10000	4	1	0	4	0
29	877	7	10000	4	1	0	4	0
32	878	7	10000	4	1	0	4	0
32	879	7	10000	4	1	0	4	0
31	880	7	10000	4	1	0	4	0
30	881	7	10000	4	1	0	4	0
29	882	7	10000	4	1	0	4	0
31	883	7	10000	4	1	0	4	0
32	884	7	10000	4	1	0	4	0
33	885	7	10000	4	1	0	4	0
34	886	7	10000	4	1	0	4	0
34	887	7	10000	4	1	0	4	0
34	888	7	10000	4	1	0	4	0
35	889	7	10000	4	1	0	4	0
37	890	7	10000	4	1	0	4	0
37	891	7	10000	4	1	0	4	0
39	892	7	10000	4	1	0	4	0
40	893	7	10000	4	1	0	4	0
40	894	7	10000	4	1	0	4	0
41	895	7	10000	4	1	0	4	0
41	896	7	10000	4	1	0	4	0
43	897	7	10000	4	1	0	4	0
44	898	7	10000	4	1	0	4	0
47	899	7	10000	4	1	0	4	0
47	900	7	10000	4	1	0	4	0
48	901	7	10000	4	1	0	4	0
48	902	7	10000	4	1	0	4	0
45	903	7	10000	4	1	0	4	0
43	904	7	10000	4	1	0	4	0
42	905	7	10000	4	1	0	4	0
41	906	7	10000	4	1	0	4	0
40	907	7	10000	4	1	0	4	0
37	908	7	10000	4	1	0	4	0
37	909	7	10000	4	1	0	4	0
38	910	7	10000	4	1	0	4	0
39	911	7	10000	4	1	0	4	0
38	912	7	10000	4	1	0	4	0
37	913	7	10000	4	1	0	4	0
35	914	7	10000	4	1	0	4	0
33	915	7	10000	4	1	0	4	0
32	916	7	10000	4	1	0	4	0
31	917	7	10000	4	1	0	4	0
32	918	7	10000	4	1	0	4	0
31	919	7	10000	4	1	0	4	0
30	920	7	10000	4	1	0	4	0
28	921	7	10000	4	1	0	4	0
27	922	7	10000	4	1	0	4	0
26	923	7	10000	4	1	0	4	0
25	924	7	10000	4	1	0	4	0
25	925	7	10000	4	1	0	4	0
24	926	7	10000	4	1	0	4	0
25	927	7	10000	4	1	0	4	0
23	928	7	10000	4	1	0	4	0
22	929	7	10000	4	1	0	4	0
22	930	7	10000	4	1	0	4	0
22	931	7	10000	4	1	0	4	0
21	932	7	10000	4	1	0	4	0
21	933	7	10000	4	1	0	4	0
21	934	7	10000	4	1	0	4	0
20	935	7	10000	4	1	0	4	0
20	936	7	10000	4	1	0	4	0
19	937	7	10000	4	1	0	4	0
22	938	7	10000	4	1	0	4	0
21	939	7	10000	4	1	0	4	0
20	940	7	10000	4	1	0	4	0
20	941	7	10000	4	1	0	4	0
20	942	7	10000	4	1	0	4	0
19	943	7	10000	4	1	0	4	0
19	944	7	10000	4	1	0	4	0
20	945	7	10000	4	1	0	4	0
20	946	7	10000	4	1	0	4	0
20	947	7	10000	4	1	0	4	0
18	948	7	10000	4	1	0	4	0
19	949	7	10000	4	1	0	4	0
19	950	7	10000	4	1	0	4	0
20	951	7	10000	4	1	0	4	0
20	952	7	10000	4	1	0	4	0
19	953	7	10000	4	1	0	4	0
22	954	7	10000	4	1	0	4	0
22	955	7	10000	4	1	0	4	0
22	956	7	10000	4	1	0	4	0
21	957	7	10000	4	1	0	4	0
22	958	7	10000	4	1	0	4	0
21	959	7	10000	4	1	0	4	0
21	960	7	10000	4	1	0	4	0
20	961	7	10000	4	1	0	4	0
20	962	7	10000	4	1	0	4	0
20	963	7	10000	4	1	0	4	0
20	964	7	10000	4	1	0	4	0
19	965	7	10000	4	1	0	4	0
20	966	7	10000	4	1	0	4	0
21	967	7	10000	4	1	0	4	0
19	968	7	10000	4	1	0	4	0
20	969	7	10000	4	1	0	4	0
20	970	7	10000	4	1	0	4	0
21	971	7	10000	4	1	0	4	0
22	972	7	10000	4	1	0	4	0
22	973	7	10000	4	1	0	4	0
22	974	7	10000	4	1	0	4	0
20	975	7	10000	4	1	0	4	0
20	976	7	10000	4	1	0	4	0
19	977	7	10000	4	1	0	4	0
20	978	7	10000	4	1	0	4	0
20	979	7	10000	4	1	0	4	0
19	980	7	10000	4	1	0	4	0
18	981	7	10000	4	1	0	4	0
18	982	7	10000	4	1	0	4	0
18	983	7	10000	4	1	0	4	0
18	984	7	10000	4	1	0	4	0
18	985	7	10000	4	1	0	4	0
19	986	7	10000	4	1	0	4	0
19	987	7	10000	4	1	0	4	0
17	988	7	10000	4	1	0	4	0
16	989	7	10000	4	1	0	4	0
16	990	7	10000	4	1	0	4	0
17	991	7	10000	4	1	0	4	0
16	992	7	10000	4	1	0	4	0
17	993	7	10000	4	1	0	4	0
17	994	7	10000	4	1	0	4	0
16	995	7	10000	4	1	0	4	0
17	996	7	10000	4	1	0	4	0
15	997	7	10000	4	1	0	4	0
19	998	7	10000	4	1	0	4	0
19	999	7	10000	4	1	0	4	0
19	1000	7	10000	4	1	0	4	0
16	2	0	10000	5	1	0	5	0
16	3	0	10000	5	1	0	5	0
16	4	0	10000	5	1	0	5	0
16	5	0	10000	5	1	0	5	0
15	6	0	10000	5	1	0	5	0
15	7	0	10000	5	1	0	5	0
19	8	0	10000	5	1	0	5	0
19	9	0	10000	5	1	0	5	0
20	10	0	10000	5	1	0	5	0
19	11	0	10000	5	1	0	5	0
19	12	0	10000	5	1	0	5	0
18	13	0	10000	5	1	0	5	0
18	14	0	10000	5	1	0	5	0
18	15	0	10000	5	1	0	5	0
18	16	0	10000	5	1	0	5	0
18	17	0	10000	5	1	0	5	0
17	18	0	10000	5	1	0	5	0
17	19	0	10000	5	1	0	5	0
16	20	0	10000	5	1	0	5	0
16	21	0	10000	5	1	0	5	0
16	22	0	10000	5	1	0	5	0
17	23	0	10000	5	1	0	5	0
17	24	0	10000	5	1	0	5	0
16	25	0	10000	5	1	0	5	0
16	26	0	10000	5	1	0	5	0
15	27	0	10000	5	1	0	5	0
17	28	0	10000	5	1	0	5	0
16	29	0	10000	5	1	0	5	0
17	30	0	10000	5	1	0	5	0
16	31	0	10000	5	1	0	5	0
16	32	0	10000	5	1	0	5	0
16	33	0	10000	5	1	0	5	0
16	34	0	10000	5	1	0	5	0
16	35	0	10000	5	1	0	5	0
17	36	0	10000	5	1	0	5	0
18	37	0	10000	5	1	0	5	0
15	38	0	10000	5	1	0	5	0
15	39	0	10000	5	1	0	5	0
16	40	0	10000	5	1	0	5	0
17	41	0	10000	5	1	0	5	0
17	42	0	10000	5	1	0	5	0
19	43	0	10000	5	1	0	5	0
21	44	0	10000	5	1	0	5	0
23	45	0	10000	5	1	0	5	0
23	46	0	10000	5	1	0	5	0
25	47	0	10000	5	1	0	5	0
28	48	0	10000	5	1	0	5	0
29	49	0	10000	5	1	0	5	0
31	50	0	10000	5	1	0	5	0
30	51	0	10000	5	1	0	5	0
31	52	0	10000	5	1	0	5	0
30	53	0	10000	5	1	0	5	0
31	54	0	10000	5	1	0	5	0
32	55	0	10000	5	1	0	5	0
31	56	0	10000	5	1	0	5	0
33	57	0	10000	5	1	0	5	0
32	58	0	10000	5	1	0	5	0
33	59	0	10000	5	1	0	5	0
34	60	0	10000	5	1	0	5	0
37	61	0	10000	5	1	0	5	0
38	62	0	10000	5	1	0	5	0
41	63	0	10000	5	1	0	5	0
41	64	0	10000	5	1	0	5	0
40	65	0	10000	5	1	0	5	0
39	66	0	10000	5	1	0	5	0
37	67	0	10000	5	1	0	5	0
37	68	0	10000	5	1	0	5	0
38	69	0	10000	5	1	0	5	0
40	70	0	10000	5	1	0	5	0
40	71	0	10000	5	1	0	5	0
40	72	0	10000	5	1	0	5	0
39	73	0	10000	5	1	0	5	0
38	74	0	10000	5	1	0	5	0
37	75	0	10000	5	1	0	5	0
36	76	0	10000	5	1	0	5	0
35	77	0	10000	5	1	0	5	0
33	78	0	10000	5	1	0	5	0
32	79	0	10000	5	1	0	5	0
32	80	0	10000	5	1	0	5	0
31	81	0	10000	5	1	0	5	0
30	82	0	10000	5	1	0	5	0
30	83	0	10000	5	1	0	5	0
30	84	0	10000	5	1	0	5	0
28	85	0	10000	5	1	0	5	0
27	86	0	10000	5	1	0	5	0
26	87	0	10000	5	1	0	5	0
27	88	0	10000	5	1	0	5	0
29	89	0	10000	5	1	0	5	0
30	90	0	10000	5	1	0	5	0
32	91	0	10000	5	1	0	5	0
34	92	0	10000	5	1	0	5	0
33	93	0	10000	5	1	0	5	0
33	94	0	10000	5	1	0	5	0
33	95	0	10000	5	1	0	5	0
32	96	0	10000	5	1	0	5	0
33	97	0	10000	5	1	0	5	0
31	98	0	10000	5	1	0	5	0
32	99	0	10000	5	1	0	5	0
32	100	0	10000	5	1	0	5	0
33	101	0	10000	5	1	0	5	0
34	102	0	10000	5	1	0	5	0
35	103	0	10000	5	1	0	5	0
36	104	0	10000	5	1	0	5	0
38	105	0	10000	5	1	0	5	0
39	106	0	10000	5	1	0	5	0
39	107	0	10000	5	1	0	5	0
42	108	0	10000	5	1	0	5	0
42	109	0	10000	5	1	0	5	0
41	110	0	10000	5	1	0	5	0
39	111	0	10000	5	1	0	5	0
38	112	0	10000	5	1	0	5	0
38	113	0	10000	5	1	0	5	0
36	114	0	10000	5	1	0	5	0
35	115	0	10000	5	1	0	5	0
35	116	0	10000	5	1	0	5	0
35	117	0	10000	5	1	0	5	0
32	118	0	10000	5	1	0	5	0
32	119	0	10000	5	1	0	5	0
31	120	0	10000	5	1	0	5	0
31	121	0	10000	5	1	0	5	0
30	122	0	10000	5	1	0	5	0
29	123	0	10000	5	1	0	5	0
28	124	0	10000	5	1	0	5	0
27	125	0	10000	5	1	0	5	0
27	126	0	10000	5	1	0	5	0
25	127	0	10000	5	1	0	5	0
27	128	0	10000	5	1	0	5	0
26	129	0	10000	5	1	0	5	0
26	130	0	10000	5	1	0	5	0
26	131	0	10000	5	1	0	5	0
25	132	0	10000	5	1	0	5	0
24	133	0	10000	5	1	0	5	0
24	134	0	10000	5	1	0	5	0
23	135	0	10000	5	1	0	5	0
23	136	0	10000	5	1	0	5	0
23	137	0	10000	5	1	0	5	0
22	138	0	10000	5	1	0	5	0
21	139	0	10000	5	1	0	5	0
22	140	0	10000	5	1	0	5	0
22	141	0	10000	5	1	0	5	0
22	142	0	10000	5	1	0	5	0
21	143	0	10000	5	1	0	5	0
21	144	0	10000	5	1	0	5	0
20	145	0	10000	5	1	0	5	0
20	146	0	10000	5	1	0	5	0
19	147	0	10000	5	1	0	5	0
20	148	0	10000	5	1	0	5	0
20	149	0	10000	5	1	0	5	0
20	150	0	10000	5	1	0	5	0
19	151	0	10000	5	1	0	5	0
19	152	0	10000	5	1	0	5	0
19	153	0	10000	5	1	0	5	0
18	154	0	10000	5	1	0	5	0
18	155	0	10000	5	1	0	5	0
20	156	0	10000	5	1	0	5	0
20	157	0	10000	5	1	0	5	0
20	158	0	10000	5	1	0	5	0
21	159	0	10000	5	1	0	5	0
22	160	0	10000	5	1	0	5	0
23	161	0	10000	5	1	0	5	0
25	162	0	10000	5	1	0	5	0
26	163	0	10000	5	1	0	5	0
26	164	0	10000	5	1	0	5	0
26	165	0	10000	5	1	0	5	0
26	166	0	10000	5	1	0	5	0
26	167	0	10000	5	1	0	5	0
27	168	0	10000	5	1	0	5	0
27	169	0	10000	5	1	0	5	0
26	170	0	10000	5	1	0	5	0
26	171	0	10000	5	1	0	5	0
25	172	0	10000	5	1	0	5	0
25	173	0	10000	5	1	0	5	0
24	174	0	10000	5	1	0	5	0
24	175	0	10000	5	1	0	5	0
23	176	0	10000	5	1	0	5	0
23	177	0	10000	5	1	0	5	0
21	178	0	10000	5	1	0	5	0
20	179	0	10000	5	1	0	5	0
20	180	0	10000	5	1	0	5	0
20	181	0	10000	5	1	0	5	0
20	182	0	10000	5	1	0	5	0
20	183	0	10000	5	1	0	5	0
20	184	0	10000	5	1	0	5	0
20	185	0	10000	5	1	0	5	0
19	186	0	10000	5	1	0	5	0
20	187	0	10000	5	1	0	5	0
22	188	0	10000	5	1	0	5	0
25	189	0	10000	5	1	0	5	0
25	190	0	10000	5	1	0	5	0
26	191	0	10000	5	1	0	5	0
26	192	0	10000	5	1	0	5	0
26	193	0	10000	5	1	0	5	0
25	194	0	10000	5	1	0	5	0
24	195	0	10000	5	1	0	5	0
24	196	0	10000	5	1	0	5	0
23	197	0	10000	5	1	0	5	0
22	198	0	10000	5	1	0	5	0
21	199	0	10000	5	1	0	5	0
22	200	0	10000	5	1	0	5	0
24	201	0	10000	5	1	0	5	0
25	202	0	10000	5	1	0	5	0
25	203	0	10000	5	1	0	5	0
24	204	0	10000	5	1	0	5	0
24	205	0	10000	5	1	0	5	0
22	206	0	10000	5	1	0	5	0
23	207	0	10000	5	1	0	5	0
26	208	0	10000	5	1	0	5	0
27	209	0	10000	5	1	0	5	0
26	210	0	10000	5	1	0	5	0
26	211	0	10000	5	1	0	5	0
26	212	0	10000	5	1	0	5	0
25	213	0	10000	5	1	0	5	0
26	214	0	10000	5	1	0	5	0
26	215	0	10000	5	1	0	5	0
25	216	0	10000	5	1	0	5	0
24	217	0	10000	5	1	0	5	0
23	218	0	10000	5	1	0	5	0
22	219	0	10000	5	1	0	5	0
22	220	0	10000	5	1	0	5	0
23	221	0	10000	5	1	0	5	0
23	222	0	10000	5	1	0	5	0
22	223	0	10000	5	1	0	5	0
23	224	0	10000	5	1	0	5	0
23	225	0	10000	5	1	0	5	0
24	226	0	10000	5	1	0	5	0
24	227	0	10000	5	1	0	5	0
27	228	0	10000	5	1	0	5	0
28	229	0	10000	5	1	0	5	0
28	230	0	10000	5	1	0	5	0
29	231	0	10000	5	1	0	5	0
31	232	0	10000	5	1	0	5	0
30	233	0	10000	5	1	0	5	0
31	234	0	10000	5	1	0	5	0
33	235	0	10000	5	1	0	5	0
33	236	0	10000	5	1	0	5	0
34	237	0	10000	5	1	0	5	0
32	238	0	10000	5	1	0	5	0
32	239	0	10000	5	1	0	5	0
30	240	0	10000	5	1	0	5	0
30	241	0	10000	5	1	0	5	0
28	242	0	10000	5	1	0	5	0
29	243	0	10000	5	1	0	5	0
29	244	0	10000	5	1	0	5	0
28	245	0	10000	5	1	0	5	0
27	246	0	10000	5	1	0	5	0
27	247	0	10000	5	1	0	5	0
29	248	0	10000	5	1	0	5	0
29	249	0	10000	5	1	0	5	0
30	250	0	10000	5	1	0	5	0
28	251	0	10000	5	1	0	5	0
27	252	0	10000	5	1	0	5	0
26	253	0	10000	5	1	0	5	0
26	254	0	10000	5	1	0	5	0
26	255	0	10000	5	1	0	5	0
26	256	0	10000	5	1	0	5	0
27	257	0	10000	5	1	0	5	0
24	258	0	10000	5	1	0	5	0
23	259	0	10000	5	1	0	5	0
23	260	0	10000	5	1	0	5	0
25	261	0	10000	5	1	0	5	0
25	262	0	10000	5	1	0	5	0
25	263	0	10000	5	1	0	5	0
26	264	0	10000	5	1	0	5	0
26	265	0	10000	5	1	0	5	0
25	266	0	10000	5	1	0	5	0
24	267	0	10000	5	1	0	5	0
29	268	0	10000	5	1	0	5	0
30	269	0	10000	5	1	0	5	0
29	270	0	10000	5	1	0	5	0
27	271	0	10000	5	1	0	5	0
26	272	0	10000	5	1	0	5	0
26	273	0	10000	5	1	0	5	0
25	274	0	10000	5	1	0	5	0
26	275	0	10000	5	1	0	5	0
27	276	0	10000	5	1	0	5	0
28	277	0	10000	5	1	0	5	0
26	278	0	10000	5	1	0	5	0
26	279	0	10000	5	1	0	5	0
25	280	0	10000	5	1	0	5	0
25	281	0	10000	5	1	0	5	0
26	282	0	10000	5	1	0	5	0
27	283	0	10000	5	1	0	5	0
29	284	0	10000	5	1	0	5	0
31	285	0	10000	5	1	0	5	0
32	286	0	10000	5	1	0	5	0
33	287	0	10000	5	1	0	5	0
35	288	0	10000	5	1	0	5	0
36	289	0	10000	5	1	0	5	0
36	290	0	10000	5	1	0	5	0
37	291	0	10000	5	1	0	5	0
37	292	0	10000	5	1	0	5	0
38	293	0	10000	5	1	0	5	0
37	294	0	10000	5	1	0	5	0
36	295	0	10000	5	1	0	5	0
35	296	0	10000	5	1	0	5	0
35	297	0	10000	5	1	0	5	0
31	298	0	10000	5	1	0	5	0
30	299	0	10000	5	1	0	5	0
30	300	0	10000	5	1	0	5	0
30	301	0	10000	5	1	0	5	0
30	302	0	10000	5	1	0	5	0
29	303	0	10000	5	1	0	5	0
31	304	0	10000	5	1	0	5	0
29	305	0	10000	5	1	0	5	0
28	306	0	10000	5	1	0	5	0
27	307	0	10000	5	1	0	5	0
30	308	0	10000	5	1	0	5	0
29	309	0	10000	5	1	0	5	0
29	310	0	10000	5	1	0	5	0
29	311	0	10000	5	1	0	5	0
31	312	0	10000	5	1	0	5	0
31	313	0	10000	5	1	0	5	0
32	314	0	10000	5	1	0	5	0
34	315	0	10000	5	1	0	5	0
33	316	0	10000	5	1	0	5	0
34	317	0	10000	5	1	0	5	0
34	318	0	10000	5	1	0	5	0
35	319	0	10000	5	1	0	5	0
36	320	0	10000	5	1	0	5	0
35	321	0	10000	5	1	0	5	0
35	322	0	10000	5	1	0	5	0
34	323	0	10000	5	1	0	5	0
35	324	0	10000	5	1	0	5	0
34	325	0	10000	5	1	0	5	0
34	326	0	10000	5	1	0	5	0
32	327	0	10000	5	1	0	5	0
33	328	0	10000	5	1	0	5	0
33	329	0	10000	5	1	0	5	0
32	330	0	10000	5	1	0	5	0
31	331	0	10000	5	1	0	5	0
31	332	0	10000	5	1	0	5	0
31	333	0	10000	5	1	0	5	0
29	334	0	10000	5	1	0	5	0
28	335	0	10000	5	1	0	5	0
28	336	0	10000	5	1	0	5	0
28	337	0	10000	5	1	0	5	0
26	338	0	10000	5	1	0	5	0
26	339	0	10000	5	1	0	5	0
26	340	0	10000	5	1	0	5	0
26	341	0	10000	5	1	0	5	0
25	342	0	10000	5	1	0	5	0
26	343	0	10000	5	1	0	5	0
26	344	0	10000	5	1	0	5	0
25	345	0	10000	5	1	0	5	0
25	346	0	10000	5	1	0	5	0
25	347	0	10000	5	1	0	5	0
28	348	0	10000	5	1	0	5	0
27	349	0	10000	5	1	0	5	0
25	350	0	10000	5	1	0	5	0
25	351	0	10000	5	1	0	5	0
25	352	0	10000	5	1	0	5	0
24	353	0	10000	5	1	0	5	0
24	354	0	10000	5	1	0	5	0
23	355	0	10000	5	1	0	5	0
22	356	0	10000	5	1	0	5	0
22	357	0	10000	5	1	0	5	0
20	358	0	10000	5	1	0	5	0
20	359	0	10000	5	1	0	5	0
20	360	0	10000	5	1	0	5	0
20	361	0	10000	5	1	0	5	0
21	362	0	10000	5	1	0	5	0
20	363	0	10000	5	1	0	5	0
19	364	0	10000	5	1	0	5	0
19	365	0	10000	5	1	0	5	0
19	366	0	10000	5	1	0	5	0
19	367	0	10000	5	1	0	5	0
20	368	0	10000	5	1	0	5	0
20	369	0	10000	5	1	0	5	0
19	370	0	10000	5	1	0	5	0
18	371	0	10000	5	1	0	5	0
17	372	0	10000	5	1	0	5	0
17	373	0	10000	5	1	0	5	0
16	374	0	10000	5	1	0	5	0
17	375	0	10000	5	1	0	5	0
17	376	0	10000	5	1	0	5	0
17	377	0	10000	5	1	0	5	0
15	378	0	10000	5	1	0	5	0
15	379	0	10000	5	1	0	5	0
17	380	0	10000	5	1	0	5	0
16	381	0	10000	5	1	0	5	0
17	382	0	10000	5	1	0	5	0
16	383	0	10000	5	1	0	5	0
16	384	0	10000	5	1	0	5	0
16	385	0	10000	5	1	0	5	0
15	386	0	10000	5	1	0	5	0
15	387	0	10000	5	1	0	5	0
17	388	0	10000	5	1	0	5	0
17	389	0	10000	5	1	0	5	0
18	390	0	10000	5	1	0	5	0
17	391	0	10000	5	1	0	5	0
17	392	0	10000	5	1	0	5	0
17	393	0	10000	5	1	0	5	0
17	394	0	10000	5	1	0	5	0
19	395	0	10000	5	1	0	5	0
19	396	0	10000	5	1	0	5	0
18	397	0	10000	5	1	0	5	0
18	398	0	10000	5	1	0	5	0
17	399	0	10000	5	1	0	5	0
17	400	0	10000	5	1	0	5	0
17	401	0	10000	5	1	0	5	0
17	402	0	10000	5	1	0	5	0
17	403	0	10000	5	1	0	5	0
18	404	0	10000	5	1	0	5	0
18	405	0	10000	5	1	0	5	0
19	406	0	10000	5	1	0	5	0
18	407	0	10000	5	1	0	5	0
20	408	0	10000	5	1	0	5	0
21	409	0	10000	5	1	0	5	0
20	410	0	10000	5	1	0	5	0
20	411	0	10000	5	1	0	5	0
19	412	0	10000	5	1	0	5	0
19	413	0	10000	5	1	0	5	0
18	414	0	10000	5	1	0	5	0
18	415	0	10000	5	1	0	5	0
20	416	0	10000	5	1	0	5	0
19	417	0	10000	5	1	0	5	0
17	418	0	10000	5	1	0	5	0
16	419	0	10000	5	1	0	5	0
17	420	0	10000	5	1	0	5	0
17	421	0	10000	5	1	0	5	0
17	422	0	10000	5	1	0	5	0
17	423	0	10000	5	1	0	5	0
18	424	0	10000	5	1	0	5	0
17	425	0	10000	5	1	0	5	0
18	426	0	10000	5	1	0	5	0
18	427	0	10000	5	1	0	5	0
18	428	0	10000	5	1	0	5	0
19	429	0	10000	5	1	0	5	0
20	430	0	10000	5	1	0	5	0
20	431	0	10000	5	1	0	5	0
19	432	0	10000	5	1	0	5	0
19	433	0	10000	5	1	0	5	0
19	434	0	10000	5	1	0	5	0
19	435	0	10000	5	1	0	5	0
19	436	0	10000	5	1	0	5	0
19	437	0	10000	5	1	0	5	0
17	438	0	10000	5	1	0	5	0
16	439	0	10000	5	1	0	5	0
16	440	0	10000	5	1	0	5	0
16	441	0	10000	5	1	0	5	0
18	442	0	10000	5	1	0	5	0
19	443	0	10000	5	1	0	5	0
19	444	0	10000	5	1	0	5	0
20	445	0	10000	5	1	0	5	0
21	446	0	10000	5	1	0	5	0
22	447	0	10000	5	1	0	5	0
25	448	0	10000	5	1	0	5	0
25	449	0	10000	5	1	0	5	0
24	450	0	10000	5	1	0	5	0
24	451	0	10000	5	1	0	5	0
23	452	0	10000	5	1	0	5	0
24	453	0	10000	5	1	0	5	0
24	454	0	10000	5	1	0	5	0
24	455	0	10000	5	1	0	5	0
24	456	0	10000	5	1	0	5	0
24	457	0	10000	5	1	0	5	0
21	458	0	10000	5	1	0	5	0
21	459	0	10000	5	1	0	5	0
21	460	0	10000	5	1	0	5	0
21	461	0	10000	5	1	0	5	0
21	462	0	10000	5	1	0	5	0
22	463	0	10000	5	1	0	5	0
21	464	0	10000	5	1	0	5	0
20	465	0	10000	5	1	0	5	0
20	466	0	10000	5	1	0	5	0
20	467	0	10000	5	1	0	5	0
22	468	0	10000	5	1	0	5	0
21	469	0	10000	5	1	0	5	0
20	470	0	10000	5	1	0	5	0
20	471	0	10000	5	1	0	5	0
19	472	0	10000	5	1	0	5	0
20	473	0	10000	5	1	0	5	0
19	474	0	10000	5	1	0	5	0
19	475	0	10000	5	1	0	5	0
19	476	0	10000	5	1	0	5	0
19	477	0	10000	5	1	0	5	0
17	478	0	10000	5	1	0	5	0
16	479	0	10000	5	1	0	5	0
17	480	0	10000	5	1	0	5	0
17	481	0	10000	5	1	0	5	0
17	482	0	10000	5	1	0	5	0
16	483	0	10000	5	1	0	5	0
16	484	0	10000	5	1	0	5	0
16	485	0	10000	5	1	0	5	0
15	486	0	10000	5	1	0	5	0
15	487	0	10000	5	1	0	5	0
16	488	0	10000	5	1	0	5	0
17	489	0	10000	5	1	0	5	0
18	490	0	10000	5	1	0	5	0
17	491	0	10000	5	1	0	5	0
18	492	0	10000	5	1	0	5	0
17	493	0	10000	5	1	0	5	0
17	494	0	10000	5	1	0	5	0
18	495	0	10000	5	1	0	5	0
18	496	0	10000	5	1	0	5	0
17	497	0	10000	5	1	0	5	0
16	498	0	10000	5	1	0	5	0
17	499	0	10000	5	1	0	5	0
16	500	0	10000	5	1	0	5	0
16	501	0	10000	5	1	0	5	0
16	501	0	10000	5	1	0	5	1
16	502	0	10000	5	1	0	5	1
16	504	0	10000	5	1	0	5	1
15	505	0	10000	5	1	0	5	1
16	506	0	10000	5	1	0	5	1
15	507	0	10000	5	1	0	5	1
16	508	0	10000	5	1	0	5	1
17	509	0	10000	5	1	0	5	1
17	510	0	10000	5	1	0	5	1
16	511	0	10000	5	1	0	5	1
16	512	0	10000	5	1	0	5	1
15	513	0	10000	5	1	0	5	1
16	514	0	10000	5	1	0	5	1
17	515	0	10000	5	1	0	5	1
17	516	0	10000	5	1	0	5	1
17	517	0	10000	5	1	0	5	1
16	518	0	10000	5	1	0	5	1
15	519	0	10000	5	1	0	5	1
15	520	0	10000	5	1	0	5	1
15	521	0	10000	5	1	0	5	1
14	522	0	10000	5	1	0	5	1
14	523	0	10000	5	1	0	5	1
14	524	0	10000	5	1	0	5	1
14	525	0	10000	5	1	0	5	1
14	526	0	10000	5	1	0	5	1
13	527	0	10000	5	1	0	5	1
16	528	0	10000	5	1	0	5	1
15	529	0	10000	5	1	0	5	1
15	530	0	10000	5	1	0	5	1
15	531	0	10000	5	1	0	5	1
15	532	0	10000	5	1	0	5	1
15	533	0	10000	5	1	0	5	1
15	534	0	10000	5	1	0	5	1
15	535	0	10000	5	1	0	5	1
16	536	0	10000	5	1	0	5	1
17	537	0	10000	5	1	0	5	1
14	538	0	10000	5	1	0	5	1
16	539	0	10000	5	1	0	5	1
16	540	0	10000	5	1	0	5	1
16	541	0	10000	5	1	0	5	1
17	542	0	10000	5	1	0	5	1
17	543	0	10000	5	1	0	5	1
17	544	0	10000	5	1	0	5	1
17	545	0	10000	5	1	0	5	1
17	546	0	10000	5	1	0	5	1
17	547	0	10000	5	1	0	5	1
18	548	0	10000	5	1	0	5	1
18	549	0	10000	5	1	0	5	1
17	550	0	10000	5	1	0	5	1
17	551	0	10000	5	1	0	5	1
17	552	0	10000	5	1	0	5	0
17	553	0	10000	5	1	0	5	0
16	554	0	10000	5	1	0	5	0
16	555	0	10000	5	1	0	5	0
16	556	0	10000	5	1	0	5	0
17	557	0	10000	5	1	0	5	0
15	558	0	10000	5	1	0	5	0
14	559	0	10000	5	1	0	5	0
14	560	0	10000	5	1	0	5	0
13	561	0	10000	5	1	0	5	0
14	562	0	10000	5	1	0	5	0
13	563	0	10000	5	1	0	5	0
15	564	0	10000	5	1	0	5	0
14	565	0	10000	5	1	0	5	0
13	566	0	10000	5	1	0	5	0
13	567	0	10000	5	1	0	5	0
15	568	0	10000	5	1	0	5	0
15	569	0	10000	5	1	0	5	0
14	570	0	10000	5	1	0	5	0
15	571	0	10000	5	1	0	5	0
15	572	0	10000	5	1	0	5	0
16	573	0	10000	5	1	0	5	0
15	574	0	10000	5	1	0	5	0
16	575	0	10000	5	1	0	5	0
16	576	0	10000	5	1	0	5	0
17	577	0	10000	5	1	0	5	0
16	578	0	10000	5	1	0	5	0
14	579	0	10000	5	1	0	5	0
15	580	0	10000	5	1	0	5	0
18	581	0	10000	5	1	0	5	0
19	582	0	10000	5	1	0	5	0
18	583	0	10000	5	1	0	5	0
19	584	0	10000	5	1	0	5	0
20	585	0	10000	5	1	0	5	0
27	586	0	10000	5	1	0	5	0
40	587	0	10000	5	1	0	5	0
51	588	0	10000	5	1	0	5	0
65	589	0	10000	5	1	0	5	0
64	590	0	10000	5	1	0	5	0
63	591	0	10000	5	1	0	5	0
67	592	0	10000	5	1	0	5	0
103	593	0	10000	5	1	0	5	0
123	594	0	10000	5	1	0	5	0
134	595	0	10000	5	1	0	5	0
157	596	0	10000	5	1	0	5	0
208	597	0	10000	5	1	0	5	0
226	598	0	10000	5	1	0	5	0
325	599	0	10000	5	1	0	5	0
370	600	0	10000	5	1	0	5	0
407	601	0	10000	5	1	0	5	0
438	602	0	10000	5	1	0	5	0
505	603	0	10000	5	1	0	5	0
579	604	0	10000	5	1	0	5	0
682	605	0	10000	5	1	0	5	0
831	606	0	10000	5	1	0	5	0
893	607	0	10000	5	1	0	5	0
892	608	0	10000	5	1	0	5	0
883	609	0	10000	5	1	0	5	0
911	610	0	10000	5	1	0	5	0
980	611	0	10000	5	1	0	5	0
1034	612	0	10000	5	1	0	5	0
1038	613	0	10000	5	1	0	5	0
1032	614	0	10000	5	1	0	5	0
1029	615	0	10000	5	1	0	5	0
1007	616	0	10000	5	1	0	5	0
1015	617	0	10000	5	1	0	5	0
976	618	0	10000	5	1	0	5	0
935	619	0	10000	5	1	0	5	0
932	620	0	10000	5	1	0	5	0
928	621	0	10000	5	1	0	5	0
894	622	0	10000	5	1	0	5	0
861	623	0	10000	5	1	0	5	0
848	624	0	10000	5	1	0	5	0
831	625	0	10000	5	1	0	5	0
804	626	0	10000	5	1	0	5	0
774	627	0	10000	5	1	0	5	0
753	628	0	10000	5	1	0	5	0
736	629	0	10000	5	1	0	5	0
720	630	0	10000	5	1	0	5	0
705	631	0	10000	5	1	0	5	0
690	632	0	10000	5	1	0	5	0
676	633	0	10000	5	1	0	5	0
657	634	0	10000	5	1	0	5	0
644	635	0	10000	5	1	0	5	0
632	636	0	10000	5	1	0	5	0
622	637	0	10000	5	1	0	5	0
608	638	0	10000	5	1	0	5	0
587	639	0	10000	5	1	0	5	0
570	640	0	10000	5	1	0	5	0
552	641	0	10000	5	1	0	5	0
548	642	0	10000	5	1	0	5	0
570	643	0	10000	5	1	0	5	0
560	644	0	10000	5	1	0	5	0
576	645	0	10000	5	1	0	5	0
597	646	0	10000	5	1	0	5	0
601	647	0	10000	5	1	0	5	0
596	648	0	10000	5	1	0	5	0
587	649	0	10000	5	1	0	5	0
579	650	0	10000	5	1	0	5	0
569	651	0	10000	5	1	0	5	0
555	652	0	10000	5	1	0	5	0
538	653	0	10000	5	1	0	5	0
520	654	0	10000	5	1	0	5	0
505	655	0	10000	5	1	0	5	0
492	656	0	10000	5	1	0	5	0
482	657	0	10000	5	1	0	5	0
472	658	0	10000	5	1	0	5	0
466	659	0	10000	5	1	0	5	0
462	660	0	10000	5	1	0	5	0
458	661	0	10000	5	1	0	5	0
455	662	0	10000	5	1	0	5	0
453	663	0	10000	5	1	0	5	0
452	664	0	10000	5	1	0	5	0
449	665	0	10000	5	1	0	5	0
446	666	0	10000	5	1	0	5	0
442	667	0	10000	5	1	0	5	0
441	668	0	10000	5	1	0	5	0
438	669	0	10000	5	1	0	5	0
431	670	0	10000	5	1	0	5	0
426	671	0	10000	5	1	0	5	0
422	672	0	10000	5	1	0	5	0
420	673	0	10000	5	1	0	5	0
413	674	0	10000	5	1	0	5	0
406	675	0	10000	5	1	0	5	0
401	676	0	10000	5	1	0	5	0
395	677	0	10000	5	1	0	5	0
389	678	0	10000	5	1	0	5	0
387	679	0	10000	5	1	0	5	0
387	680	0	10000	5	1	0	5	0
386	681	0	10000	5	1	0	5	0
384	682	0	10000	5	1	0	5	0
382	683	0	10000	5	1	0	5	0
383	684	0	10000	5	1	0	5	0
381	685	0	10000	5	1	0	5	0
378	686	0	10000	5	1	0	5	0
374	687	0	10000	5	1	0	5	0
369	688	0	10000	5	1	0	5	0
362	689	0	10000	5	1	0	5	0
352	690	0	10000	5	1	0	5	0
344	691	0	10000	5	1	0	5	0
333	692	0	10000	5	1	0	5	0
321	693	0	10000	5	1	0	5	0
308	694	0	10000	5	1	0	5	0
296	695	0	10000	5	1	0	5	0
284	696	0	10000	5	1	0	5	0
273	697	0	10000	5	1	0	5	0
263	698	0	10000	5	1	0	5	0
253	699	0	10000	5	1	0	5	0
246	700	0	10000	5	1	0	5	0
237	701	0	10000	5	1	0	5	0
231	702	0	10000	5	1	0	5	0
223	703	0	10000	5	1	0	5	0
213	704	0	10000	5	1	0	5	0
203	705	0	10000	5	1	0	5	0
194	706	0	10000	5	1	0	5	0
186	707	0	10000	5	1	0	5	0
180	708	0	10000	5	1	0	5	0
174	709	0	10000	5	1	0	5	0
171	710	0	10000	5	1	0	5	0
169	711	0	10000	5	1	0	5	0
169	712	0	10000	5	1	0	5	0
169	713	0	10000	5	1	0	5	0
169	714	0	10000	5	1	0	5	0
169	715	0	10000	5	1	0	5	0
168	716	0	10000	5	1	0	5	0
169	717	0	10000	5	1	0	5	0
167	718	0	10000	5	1	0	5	0
165	719	0	10000	5	1	0	5	0
164	720	0	10000	5	1	0	5	0
168	721	0	10000	5	1	0	5	0
171	722	0	10000	5	1	0	5	0
172	723	0	10000	5	1	0	5	0
171	724	0	10000	5	1	0	5	0
168	725	0	10000	5	1	0	5	0
165	726	0	10000	5	1	0	5	0
164	727	0	10000	5	1	0	5	0
166	728	0	10000	5	1	0	5	0
170	729	0	10000	5	1	0	5	0
173	730	0	10000	5	1	0	5	0
177	731	0	10000	5	1	0	5	0
180	732	0	10000	5	1	0	5	0
184	733	0	10000	5	1	0	5	0
186	734	0	10000	5	1	0	5	0
188	735	0	10000	5	1	0	5	0
189	736	0	10000	5	1	0	5	0
189	737	0	10000	5	1	0	5	0
189	738	0	10000	5	1	0	5	0
185	739	0	10000	5	1	0	5	0
183	740	0	10000	5	1	0	5	0
179	741	0	10000	5	1	0	5	0
176	742	0	10000	5	1	0	5	0
171	743	0	10000	5	1	0	5	0
169	744	0	10000	5	1	0	5	0
167	745	0	10000	5	1	0	5	0
165	746	0	10000	5	1	0	5	0
161	747	0	10000	5	1	0	5	0
159	748	0	10000	5	1	0	5	0
159	749	0	10000	5	1	0	5	0
154	750	0	10000	5	1	0	5	0
150	751	0	10000	5	1	0	5	0
149	752	0	10000	5	1	0	5	0
148	753	0	10000	5	1	0	5	0
148	754	0	10000	5	1	0	5	0
146	755	0	10000	5	1	0	5	0
144	756	0	10000	5	1	0	5	0
139	757	0	10000	5	1	0	5	0
131	758	0	10000	5	1	0	5	0
126	759	0	10000	5	1	0	5	0
121	760	0	10000	5	1	0	5	0
117	761	0	10000	5	1	0	5	0
115	762	0	10000	5	1	0	5	0
113	763	0	10000	5	1	0	5	0
112	764	0	10000	5	1	0	5	0
109	765	0	10000	5	1	0	5	0
107	766	0	10000	5	1	0	5	0
104	767	0	10000	5	1	0	5	0
102	768	0	10000	5	1	0	5	0
99	769	0	10000	5	1	0	5	0
95	770	0	10000	5	1	0	5	0
90	771	0	10000	5	1	0	5	0
88	772	0	10000	5	1	0	5	0
84	773	0	10000	5	1	0	5	0
82	774	0	10000	5	1	0	5	0
81	775	0	10000	5	1	0	5	0
