value	EMG	Stimulus	EMG_sensitivity	Total_Trial_Nr	practise	acq	probe_nr	Startle_Probe
85	1	7	10000	1	1	0	1	0
85	2	7	10000	1	1	0	1	0
83	3	7	10000	1	1	0	1	0
80	4	7	10000	1	1	0	1	0
77	5	7	10000	1	1	0	1	0
74	6	7	10000	1	1	0	1	0
73	7	7	10000	1	1	0	1	0
70	8	7	10000	1	1	0	1	0
66	9	7	10000	1	1	0	1	0
64	10	7	10000	1	1	0	1	0
64	11	7	10000	1	1	0	1	0
65	12	7	10000	1	1	0	1	0
63	13	7	10000	1	1	0	1	0
60	14	7	10000	1	1	0	1	0
63	15	7	10000	1	1	0	1	0
62	16	7	10000	1	1	0	1	0
64	17	7	10000	1	1	0	1	0
66	18	7	10000	1	1	0	1	0
66	19	7	10000	1	1	0	1	0
63	20	7	10000	1	1	0	1	0
63	20	7	10000	1	1	0	1	0
65	21	7	10000	1	1	0	1	0
66	23	7	10000	1	1	0	1	0
64	24	7	10000	1	1	0	1	0
62	25	7	10000	1	1	0	1	0
60	26	7	10000	1	1	0	1	0
60	27	7	10000	1	1	0	1	0
58	28	7	10000	1	1	0	1	0
59	29	7	10000	1	1	0	1	0
58	30	7	10000	1	1	0	1	0
56	30	7	10000	1	1	0	1	0
56	31	7	10000	1	1	0	1	0
56	33	7	10000	1	1	0	1	0
56	34	7	10000	1	1	0	1	0
57	35	7	10000	1	1	0	1	0
56	36	7	10000	1	1	0	1	0
55	37	7	10000	1	1	0	1	0
55	38	7	10000	1	1	0	1	0
58	39	7	10000	1	1	0	1	0
60	40	7	10000	1	1	0	1	0
63	40	7	10000	1	1	0	1	0
65	41	7	10000	1	1	0	1	0
62	43	7	10000	1	1	0	1	0
59	44	7	10000	1	1	0	1	0
59	45	7	10000	1	1	0	1	0
59	46	7	10000	1	1	0	1	0
58	47	7	10000	1	1	0	1	0
57	48	7	10000	1	1	0	1	0
57	49	7	10000	1	1	0	1	0
55	50	7	10000	1	1	0	1	0
54	50	7	10000	1	1	0	1	0
52	51	7	10000	1	1	0	1	0
52	53	7	10000	1	1	0	1	0
50	54	7	10000	1	1	0	1	0
49	55	7	10000	1	1	0	1	0
48	56	7	10000	1	1	0	1	0
47	57	7	10000	1	1	0	1	0
55	58	7	10000	1	1	0	1	0
60	59	7	10000	1	1	0	1	0
66	60	7	10000	1	1	0	1	0
68	60	7	10000	1	1	0	1	0
66	61	7	10000	1	1	0	1	0
67	63	7	10000	1	1	0	1	0
65	64	7	10000	1	1	0	1	0
64	65	7	10000	1	1	0	1	0
67	66	7	10000	1	1	0	1	0
74	67	7	10000	1	1	0	1	0
79	68	7	10000	1	1	0	1	0
82	69	7	10000	1	1	0	1	0
82	70	7	10000	1	1	0	1	0
81	70	7	10000	1	1	0	1	0
80	71	7	10000	1	1	0	1	0
79	73	7	10000	1	1	0	1	0
76	74	7	10000	1	1	0	1	0
73	75	7	10000	1	1	0	1	0
71	76	7	10000	1	1	0	1	0
68	77	7	10000	1	1	0	1	0
67	78	7	10000	1	1	0	1	0
66	79	7	10000	1	1	0	1	0
65	80	7	10000	1	1	0	1	0
66	80	7	10000	1	1	0	1	0
68	81	7	10000	1	1	0	1	0
70	83	7	10000	1	1	0	1	0
69	84	7	10000	1	1	0	1	0
72	85	7	10000	1	1	0	1	0
73	86	7	10000	1	1	0	1	0
72	87	7	10000	1	1	0	1	0
69	88	7	10000	1	1	0	1	0
70	89	7	10000	1	1	0	1	0
74	90	7	10000	1	1	0	1	0
76	90	7	10000	1	1	0	1	0
74	91	7	10000	1	1	0	1	0
74	93	7	10000	1	1	0	1	0
74	94	7	10000	1	1	0	1	0
73	95	7	10000	1	1	0	1	0
71	96	7	10000	1	1	0	1	0
71	97	7	10000	1	1	0	1	0
74	98	7	10000	1	1	0	1	0
76	99	7	10000	1	1	0	1	0
79	100	7	10000	1	1	0	1	0
80	100	7	10000	1	1	0	1	0
78	101	7	10000	1	1	0	1	0
76	103	7	10000	1	1	0	1	0
77	104	7	10000	1	1	0	1	0
78	105	7	10000	1	1	0	1	0
80	106	7	10000	1	1	0	1	0
79	107	7	10000	1	1	0	1	0
76	108	7	10000	1	1	0	1	0
76	109	7	10000	1	1	0	1	0
76	110	7	10000	1	1	0	1	0
73	110	7	10000	1	1	0	1	0
70	111	7	10000	1	1	0	1	0
68	113	7	10000	1	1	0	1	0
68	114	7	10000	1	1	0	1	0
65	115	7	10000	1	1	0	1	0
66	116	7	10000	1	1	0	1	0
71	117	7	10000	1	1	0	1	0
78	118	7	10000	1	1	0	1	0
84	119	7	10000	1	1	0	1	0
82	120	7	10000	1	1	0	1	0
82	120	7	10000	1	1	0	1	0
84	121	7	10000	1	1	0	1	0
89	123	7	10000	1	1	0	1	0
91	124	7	10000	1	1	0	1	0
89	125	7	10000	1	1	0	1	0
86	126	7	10000	1	1	0	1	0
83	127	7	10000	1	1	0	1	0
80	128	7	10000	1	1	0	1	0
81	129	7	10000	1	1	0	1	0
82	130	7	10000	1	1	0	1	0
79	130	7	10000	1	1	0	1	0
76	131	7	10000	1	1	0	1	0
72	133	7	10000	1	1	0	1	0
71	134	7	10000	1	1	0	1	0
72	135	7	10000	1	1	0	1	0
73	136	7	10000	1	1	0	1	0
75	137	7	10000	1	1	0	1	0
75	138	7	10000	1	1	0	1	0
72	139	7	10000	1	1	0	1	0
71	140	7	10000	1	1	0	1	0
68	140	7	10000	1	1	0	1	0
65	141	7	10000	1	1	0	1	0
63	143	7	10000	1	1	0	1	0
65	144	7	10000	1	1	0	1	0
70	145	7	10000	1	1	0	1	0
69	146	7	10000	1	1	0	1	0
71	147	7	10000	1	1	0	1	0
69	148	7	10000	1	1	0	1	0
71	149	7	10000	1	1	0	1	0
74	150	7	10000	1	1	0	1	0
74	150	7	10000	1	1	0	1	0
72	151	7	10000	1	1	0	1	0
75	153	7	10000	1	1	0	1	0
78	154	7	10000	1	1	0	1	0
78	155	7	10000	1	1	0	1	0
76	156	7	10000	1	1	0	1	0
74	157	7	10000	1	1	0	1	0
75	158	7	10000	1	1	0	1	0
74	159	7	10000	1	1	0	1	0
76	160	7	10000	1	1	0	1	0
78	160	7	10000	1	1	0	1	0
78	161	7	10000	1	1	0	1	0
77	163	7	10000	1	1	0	1	0
73	164	7	10000	1	1	0	1	0
72	165	7	10000	1	1	0	1	0
71	166	7	10000	1	1	0	1	0
70	167	7	10000	1	1	0	1	0
68	168	7	10000	1	1	0	1	0
68	169	7	10000	1	1	0	1	0
68	170	7	10000	1	1	0	1	0
70	170	7	10000	1	1	0	1	0
71	171	7	10000	1	1	0	1	0
69	173	7	10000	1	1	0	1	0
68	174	7	10000	1	1	0	1	0
67	175	7	10000	1	1	0	1	0
65	176	7	10000	1	1	0	1	0
66	177	7	10000	1	1	0	1	0
73	178	7	10000	1	1	0	1	0
73	179	7	10000	1	1	0	1	0
71	180	7	10000	1	1	0	1	0
69	180	7	10000	1	1	0	1	0
71	181	7	10000	1	1	0	1	0
73	183	7	10000	1	1	0	1	0
70	184	7	10000	1	1	0	1	0
68	185	7	10000	1	1	0	1	0
68	186	7	10000	1	1	0	1	0
73	187	7	10000	1	1	0	1	0
76	188	7	10000	1	1	0	1	0
82	189	7	10000	1	1	0	1	0
83	190	7	10000	1	1	0	1	0
83	190	7	10000	1	1	0	1	0
81	191	7	10000	1	1	0	1	0
78	193	7	10000	1	1	0	1	0
76	194	7	10000	1	1	0	1	0
72	195	7	10000	1	1	0	1	0
70	196	7	10000	1	1	0	1	0
69	197	7	10000	1	1	0	1	0
70	198	7	10000	1	1	0	1	0
70	199	7	10000	1	1	0	1	0
69	200	7	10000	1	1	0	1	0
69	200	7	10000	1	1	0	1	0
67	201	7	10000	1	1	0	1	0
64	203	7	10000	1	1	0	1	0
62	204	7	10000	1	1	0	1	0
60	205	7	10000	1	1	0	1	0
58	206	7	10000	1	1	0	1	0
56	207	7	10000	1	1	0	1	0
55	208	7	10000	1	1	0	1	0
61	209	7	10000	1	1	0	1	0
65	210	7	10000	1	1	0	1	0
66	210	7	10000	1	1	0	1	0
64	211	7	10000	1	1	0	1	0
63	213	7	10000	1	1	0	1	0
64	214	7	10000	1	1	0	1	0
64	215	7	10000	1	1	0	1	0
64	216	7	10000	1	1	0	1	0
66	217	7	10000	1	1	0	1	0
70	218	7	10000	1	1	0	1	0
68	219	7	10000	1	1	0	1	0
67	220	7	10000	1	1	0	1	0
68	220	7	10000	1	1	0	1	0
65	221	7	10000	1	1	0	1	0
67	223	7	10000	1	1	0	1	0
69	224	7	10000	1	1	0	1	0
67	225	7	10000	1	1	0	1	0
66	226	7	10000	1	1	0	1	0
66	227	7	10000	1	1	0	1	0
64	228	7	10000	1	1	0	1	0
63	229	7	10000	1	1	0	1	0
61	230	7	10000	1	1	0	1	0
60	230	7	10000	1	1	0	1	0
59	231	7	10000	1	1	0	1	0
57	233	7	10000	1	1	0	1	0
55	234	7	10000	1	1	0	1	0
57	235	7	10000	1	1	0	1	0
59	236	7	10000	1	1	0	1	0
59	237	7	10000	1	1	0	1	0
59	238	7	10000	1	1	0	1	0
59	239	7	10000	1	1	0	1	0
61	240	7	10000	1	1	0	1	0
65	240	7	10000	1	1	0	1	0
64	241	7	10000	1	1	0	1	0
63	243	7	10000	1	1	0	1	0
63	244	7	10000	1	1	0	1	0
62	245	7	10000	1	1	0	1	0
60	246	7	10000	1	1	0	1	0
58	247	7	10000	1	1	0	1	0
56	248	7	10000	1	1	0	1	0
56	249	7	10000	1	1	0	1	0
61	250	7	10000	1	1	0	1	0
65	250	7	10000	1	1	0	1	0
65	251	7	10000	1	1	0	1	0
64	253	7	10000	1	1	0	1	0
66	254	7	10000	1	1	0	1	0
68	255	7	10000	1	1	0	1	0
67	256	7	10000	1	1	0	1	0
66	257	7	10000	1	1	0	1	0
68	258	7	10000	1	1	0	1	0
66	259	7	10000	1	1	0	1	0
64	260	7	10000	1	1	0	1	0
62	260	7	10000	1	1	0	1	0
61	261	7	10000	1	1	0	1	0
64	263	7	10000	1	1	0	1	0
68	264	7	10000	1	1	0	1	0
69	265	7	10000	1	1	0	1	0
68	266	7	10000	1	1	0	1	0
70	267	7	10000	1	1	0	1	0
70	268	7	10000	1	1	0	1	0
70	269	7	10000	1	1	0	1	0
74	270	7	10000	1	1	0	1	0
81	270	7	10000	1	1	0	1	0
88	271	7	10000	1	1	0	1	0
92	273	7	10000	1	1	0	1	0
92	274	7	10000	1	1	0	1	0
91	275	7	10000	1	1	0	1	0
89	276	7	10000	1	1	0	1	0
85	277	7	10000	1	1	0	1	0
85	278	7	10000	1	1	0	1	0
82	279	7	10000	1	1	0	1	0
78	280	7	10000	1	1	0	1	0
75	280	7	10000	1	1	0	1	0
72	281	7	10000	1	1	0	1	0
68	283	7	10000	1	1	0	1	0
67	284	7	10000	1	1	0	1	0
63	285	7	10000	1	1	0	1	0
62	286	7	10000	1	1	0	1	0
62	287	7	10000	1	1	0	1	0
60	288	7	10000	1	1	0	1	0
60	289	7	10000	1	1	0	1	0
64	290	7	10000	1	1	0	1	0
71	290	7	10000	1	1	0	1	0
75	291	7	10000	1	1	0	1	0
72	293	7	10000	1	1	0	1	0
70	294	7	10000	1	1	0	1	0
70	295	7	10000	1	1	0	1	0
71	296	7	10000	1	1	0	1	0
69	297	7	10000	1	1	0	1	0
69	298	7	10000	1	1	0	1	0
70	299	7	10000	1	1	0	1	0
74	300	7	10000	1	1	0	1	0
77	300	7	10000	1	1	0	1	0
80	301	7	10000	1	1	0	1	0
79	303	7	10000	1	1	0	1	0
78	304	7	10000	1	1	0	1	0
76	305	7	10000	1	1	0	1	0
74	306	7	10000	1	1	0	1	0
76	307	7	10000	1	1	0	1	0
73	308	7	10000	1	1	0	1	0
73	309	7	10000	1	1	0	1	0
73	310	7	10000	1	1	0	1	0
70	310	7	10000	1	1	0	1	0
68	311	7	10000	1	1	0	1	0
65	313	7	10000	1	1	0	1	0
64	314	7	10000	1	1	0	1	0
63	315	7	10000	1	1	0	1	0
61	316	7	10000	1	1	0	1	0
61	317	7	10000	1	1	0	1	0
65	318	7	10000	1	1	0	1	0
67	319	7	10000	1	1	0	1	0
68	320	7	10000	1	1	0	1	0
70	320	7	10000	1	1	0	1	0
73	321	7	10000	1	1	0	1	0
72	323	7	10000	1	1	0	1	0
72	324	7	10000	1	1	0	1	0
77	325	7	10000	1	1	0	1	0
80	326	7	10000	1	1	0	1	0
83	327	7	10000	1	1	0	1	0
80	328	7	10000	1	1	0	1	0
77	329	7	10000	1	1	0	1	0
76	330	7	10000	1	1	0	1	0
72	330	7	10000	1	1	0	1	0
69	331	7	10000	1	1	0	1	0
68	333	7	10000	1	1	0	1	0
67	334	7	10000	1	1	0	1	0
65	335	7	10000	1	1	0	1	0
65	336	7	10000	1	1	0	1	0
62	337	7	10000	1	1	0	1	0
63	338	7	10000	1	1	0	1	0
65	339	7	10000	1	1	0	1	0
64	340	7	10000	1	1	0	1	0
61	340	7	10000	1	1	0	1	0
60	341	7	10000	1	1	0	1	0
58	343	7	10000	1	1	0	1	0
60	344	7	10000	1	1	0	1	0
64	345	7	10000	1	1	0	1	0
64	346	7	10000	1	1	0	1	0
62	347	7	10000	1	1	0	1	0
59	348	7	10000	1	1	0	1	0
57	349	7	10000	1	1	0	1	0
56	350	7	10000	1	1	0	1	0
55	350	7	10000	1	1	0	1	0
54	351	7	10000	1	1	0	1	0
54	353	7	10000	1	1	0	1	0
54	354	7	10000	1	1	0	1	0
51	355	7	10000	1	1	0	1	0
51	356	7	10000	1	1	0	1	0
51	357	7	10000	1	1	0	1	0
53	358	7	10000	1	1	0	1	0
53	359	7	10000	1	1	0	1	0
52	360	7	10000	1	1	0	1	0
51	360	7	10000	1	1	0	1	0
50	361	7	10000	1	1	0	1	0
48	363	7	10000	1	1	0	1	0
47	364	7	10000	1	1	0	1	0
49	365	7	10000	1	1	0	1	0
51	366	7	10000	1	1	0	1	0
50	367	7	10000	1	1	0	1	0
50	368	7	10000	1	1	0	1	0
51	369	7	10000	1	1	0	1	0
51	370	7	10000	1	1	0	1	0
57	370	7	10000	1	1	0	1	0
62	371	7	10000	1	1	0	1	0
64	373	7	10000	1	1	0	1	0
62	374	7	10000	1	1	0	1	0
59	375	7	10000	1	1	0	1	0
59	376	7	10000	1	1	0	1	0
57	377	7	10000	1	1	0	1	0
56	378	7	10000	1	1	0	1	0
56	379	7	10000	1	1	0	1	0
56	380	7	10000	1	1	0	1	0
59	380	7	10000	1	1	0	1	0
64	381	7	10000	1	1	0	1	0
62	383	7	10000	1	1	0	1	0
62	384	7	10000	1	1	0	1	0
64	385	7	10000	1	1	0	1	0
62	386	7	10000	1	1	0	1	0
60	387	7	10000	1	1	0	1	0
56	388	7	10000	1	1	0	1	0
55	389	7	10000	1	1	0	1	0
55	390	7	10000	1	1	0	1	0
54	390	7	10000	1	1	0	1	0
53	391	7	10000	1	1	0	1	0
52	393	7	10000	1	1	0	1	0
50	394	7	10000	1	1	0	1	0
48	395	7	10000	1	1	0	1	0
47	396	7	10000	1	1	0	1	0
49	397	7	10000	1	1	0	1	0
52	398	7	10000	1	1	0	1	0
50	399	7	10000	1	1	0	1	0
49	400	7	10000	1	1	0	1	0
51	400	7	10000	1	1	0	1	0
53	401	7	10000	1	1	0	1	0
53	403	7	10000	1	1	0	1	0
52	404	7	10000	1	1	0	1	0
57	405	7	10000	1	1	0	1	0
59	406	7	10000	1	1	0	1	0
58	407	7	10000	1	1	0	1	0
56	408	7	10000	1	1	0	1	0
54	409	7	10000	1	1	0	1	0
54	410	7	10000	1	1	0	1	0
55	410	7	10000	1	1	0	1	0
55	411	7	10000	1	1	0	1	0
56	413	7	10000	1	1	0	1	0
55	414	7	10000	1	1	0	1	0
52	415	7	10000	1	1	0	1	0
49	416	7	10000	1	1	0	1	0
48	417	7	10000	1	1	0	1	0
49	418	7	10000	1	1	0	1	0
49	419	7	10000	1	1	0	1	0
50	420	7	10000	1	1	0	1	0
54	420	7	10000	1	1	0	1	0
56	421	7	10000	1	1	0	1	0
55	423	7	10000	1	1	0	1	0
53	424	7	10000	1	1	0	1	0
55	425	7	10000	1	1	0	1	0
61	426	7	10000	1	1	0	1	0
64	427	7	10000	1	1	0	1	0
61	428	7	10000	1	1	0	1	0
61	429	7	10000	1	1	0	1	0
67	430	7	10000	1	1	0	1	0
76	430	7	10000	1	1	0	1	0
82	431	7	10000	1	1	0	1	0
80	433	7	10000	1	1	0	1	0
81	434	7	10000	1	1	0	1	0
79	444	7	10000	1	1	0	1	0
79	445	7	10000	1	1	0	1	0
81	446	7	10000	1	1	0	1	0
83	447	7	10000	1	1	0	1	0
80	448	7	10000	1	1	0	1	0
79	449	7	10000	1	1	0	1	0
78	450	7	10000	1	1	0	1	0
76	451	7	10000	1	1	0	1	0
73	452	7	10000	1	1	0	1	0
72	453	7	10000	1	1	0	1	0
71	454	7	10000	1	1	0	1	0
69	455	7	10000	1	1	0	1	0
67	452	7	10000	1	1	0	1	0
63	453	7	10000	1	1	0	1	0
59	454	7	10000	1	1	0	1	0
58	455	7	10000	1	1	0	1	0
61	456	7	10000	1	1	0	1	0
64	457	7	10000	1	1	0	1	0
65	458	7	10000	1	1	0	1	0
63	459	7	10000	1	1	0	1	0
59	459	7	10000	1	1	0	1	0
61	460	7	10000	1	1	0	1	0
65	461	7	10000	1	1	0	1	0
66	462	7	10000	1	1	0	1	0
65	463	7	10000	1	1	0	1	0
64	464	7	10000	1	1	0	1	0
60	466	7	10000	1	1	0	1	0
60	467	7	10000	1	1	0	1	0
59	468	7	10000	1	1	0	1	0
56	469	7	10000	1	1	0	1	0
55	470	7	10000	1	1	0	1	0
55	471	7	10000	1	1	0	1	0
58	472	7	10000	1	1	0	1	0
60	473	7	10000	1	1	0	1	0
63	471	7	10000	1	1	0	1	0
62	472	7	10000	1	1	0	1	0
61	473	7	10000	1	1	0	1	0
59	474	7	10000	1	1	0	1	0
56	479	7	10000	1	1	0	1	0
55	480	7	10000	1	1	0	1	0
53	481	7	10000	1	1	0	1	0
51	482	7	10000	1	1	0	1	0
49	483	7	10000	1	1	0	1	0
51	484	7	10000	1	1	0	1	0
56	485	7	10000	1	1	0	1	0
63	486	7	10000	1	1	0	1	0
62	483	7	10000	1	1	0	1	0
62	484	7	10000	1	1	0	1	0
64	485	7	10000	1	1	0	1	0
61	486	7	10000	1	1	0	1	0
60	488	7	10000	1	1	0	1	0
58	489	7	10000	1	1	0	1	0
59	490	7	10000	1	1	0	1	0
56	491	7	10000	1	1	0	1	0
57	492	7	10000	1	1	0	1	0
56	493	7	10000	1	1	0	1	0
56	495	7	10000	1	1	0	1	0
54	496	7	10000	1	1	0	1	0
54	497	7	10000	1	1	0	1	0
59	498	7	10000	1	1	0	1	0
58	499	7	10000	1	1	0	1	0
58	500	7	10000	1	1	0	1	0
61	499	7	10000	1	1	0	1	0
64	500	7	10000	1	1	0	1	0
66	501	7	10000	1	1	0	1	0
65	502	7	10000	1	1	0	1	0
62	506	7	10000	1	1	0	1	0
61	507	7	10000	1	1	0	1	0
62	508	7	10000	1	1	0	1	0
63	509	7	10000	1	1	0	1	0
63	510	7	10000	1	1	0	1	0
65	511	7	10000	1	1	0	1	0
64	512	7	10000	1	1	0	1	0
61	513	7	10000	1	1	0	1	0
62	565	7	10000	1	1	0	1	1
61	566	7	10000	1	1	0	1	1
58	567	7	10000	1	1	0	1	1
56	568	7	10000	1	1	0	1	1
54	569	7	10000	1	1	0	1	1
54	570	7	10000	1	1	0	1	1
55	571	7	10000	1	1	0	1	1
54	572	7	10000	1	1	0	1	1
51	573	7	10000	1	1	0	1	1
51	574	7	10000	1	1	0	1	1
49	575	7	10000	1	1	0	1	1
49	576	7	10000	1	1	0	1	1
47	577	7	10000	1	1	0	1	1
45	578	7	10000	1	1	0	1	1
44	579	7	10000	1	1	0	1	1
43	580	7	10000	1	1	0	1	1
44	581	7	10000	1	1	0	1	1
48	582	7	10000	1	1	0	1	1
54	583	7	10000	1	1	0	1	1
54	584	7	10000	1	1	0	1	1
54	585	7	10000	1	1	0	1	1
55	586	7	10000	1	1	0	1	1
59	587	7	10000	1	1	0	1	1
65	588	7	10000	1	1	0	1	1
66	589	7	10000	1	1	0	1	1
66	590	7	10000	1	1	0	1	1
65	591	7	10000	1	1	0	1	1
64	592	7	10000	1	1	0	1	1
61	593	7	10000	1	1	0	1	1
61	594	7	10000	1	1	0	1	1
59	595	7	10000	1	1	0	1	1
58	596	7	10000	1	1	0	1	1
58	597	7	10000	1	1	0	1	1
57	598	7	10000	1	1	0	1	1
56	599	7	10000	1	1	0	1	1
53	600	7	10000	1	1	0	1	1
52	601	7	10000	1	1	0	1	1
53	602	7	10000	1	1	0	1	1
55	603	7	10000	1	1	0	1	1
52	604	7	10000	1	1	0	1	1
53	605	7	10000	1	1	0	1	1
55	606	7	10000	1	1	0	1	1
54	607	7	10000	1	1	0	1	1
53	608	7	10000	1	1	0	1	1
51	609	7	10000	1	1	0	1	1
52	610	7	10000	1	1	0	1	1
51	611	7	10000	1	1	0	1	1
51	612	7	10000	1	1	0	1	1
55	613	7	10000	1	1	0	1	1
58	614	7	10000	1	1	0	1	1
56	615	7	10000	1	1	0	1	1
56	616	7	10000	1	1	0	1	1
59	617	7	10000	1	1	0	1	1
62	618	7	10000	1	1	0	1	1
63	619	7	10000	1	1	0	1	1
61	620	7	10000	1	1	0	1	1
62	621	7	10000	1	1	0	1	1
64	622	7	10000	1	1	0	1	1
67	576	7	10000	1	1	0	1	0
63	577	7	10000	1	1	0	1	0
64	578	7	10000	1	1	0	1	0
62	579	7	10000	1	1	0	1	0
62	580	7	10000	1	1	0	1	0
64	581	7	10000	1	1	0	1	0
63	582	7	10000	1	1	0	1	0
68	583	7	10000	1	1	0	1	0
70	584	7	10000	1	1	0	1	0
69	585	7	10000	1	1	0	1	0
69	586	7	10000	1	1	0	1	0
71	587	7	10000	1	1	0	1	0
68	579	7	10000	1	1	0	1	0
67	580	7	10000	1	1	0	1	0
65	581	7	10000	1	1	0	1	0
63	582	7	10000	1	1	0	1	0
61	583	7	10000	1	1	0	1	0
65	584	7	10000	1	1	0	1	0
69	585	7	10000	1	1	0	1	0
71	586	7	10000	1	1	0	1	0
69	587	7	10000	1	1	0	1	0
67	588	7	10000	1	1	0	1	0
67	589	7	10000	1	1	0	1	0
67	590	7	10000	1	1	0	1	0
65	591	7	10000	1	1	0	1	0
64	592	7	10000	1	1	0	1	0
63	593	7	10000	1	1	0	1	0
63	594	7	10000	1	1	0	1	0
60	595	7	10000	1	1	0	1	0
58	596	7	10000	1	1	0	1	0
60	597	7	10000	1	1	0	1	0
63	598	7	10000	1	1	0	1	0
60	599	7	10000	1	1	0	1	0
58	600	7	10000	1	1	0	1	0
60	601	7	10000	1	1	0	1	0
59	602	7	10000	1	1	0	1	0
60	603	7	10000	1	1	0	1	0
61	604	7	10000	1	1	0	1	0
62	605	7	10000	1	1	0	1	0
61	606	7	10000	1	1	0	1	0
61	607	7	10000	1	1	0	1	0
60	608	7	10000	1	1	0	1	0
62	609	7	10000	1	1	0	1	0
61	610	7	10000	1	1	0	1	0
59	611	7	10000	1	1	0	1	0
58	612	7	10000	1	1	0	1	0
60	613	7	10000	1	1	0	1	0
61	614	7	10000	1	1	0	1	0
61	615	7	10000	1	1	0	1	0
57	616	7	10000	1	1	0	1	0
55	617	7	10000	1	1	0	1	0
56	618	7	10000	1	1	0	1	0
52	619	7	10000	1	1	0	1	0
50	620	7	10000	1	1	0	1	0
50	621	7	10000	1	1	0	1	0
49	622	7	10000	1	1	0	1	0
49	623	7	10000	1	1	0	1	0
55	624	7	10000	1	1	0	1	0
64	625	7	10000	1	1	0	1	0
69	626	7	10000	1	1	0	1	0
68	627	7	10000	1	1	0	1	0
68	628	7	10000	1	1	0	1	0
68	629	7	10000	1	1	0	1	0
67	630	7	10000	1	1	0	1	0
69	631	7	10000	1	1	0	1	0
71	632	7	10000	1	1	0	1	0
71	633	7	10000	1	1	0	1	0
69	634	7	10000	1	1	0	1	0
68	635	7	10000	1	1	0	1	0
72	636	7	10000	1	1	0	1	0
78	637	7	10000	1	1	0	1	0
81	638	7	10000	1	1	0	1	0
77	639	7	10000	1	1	0	1	0
75	640	7	10000	1	1	0	1	0
75	641	7	10000	1	1	0	1	0
75	642	7	10000	1	1	0	1	0
76	643	7	10000	1	1	0	1	0
76	644	7	10000	1	1	0	1	0
75	645	7	10000	1	1	0	1	0
79	646	7	10000	1	1	0	1	0
79	647	7	10000	1	1	0	1	0
78	648	7	10000	1	1	0	1	0
78	649	7	10000	1	1	0	1	0
78	650	7	10000	1	1	0	1	0
82	651	7	10000	1	1	0	1	0
88	652	7	10000	1	1	0	1	0
88	653	7	10000	1	1	0	1	0
94	654	7	10000	1	1	0	1	0
95	655	7	10000	1	1	0	1	0
113	656	7	10000	1	1	0	1	0
118	657	7	10000	1	1	0	1	0
131	658	7	10000	1	1	0	1	0
140	659	7	10000	1	1	0	1	0
178	660	7	10000	1	1	0	1	0
208	661	7	10000	1	1	0	1	0
207	662	7	10000	1	1	0	1	0
208	663	7	10000	1	1	0	1	0
229	664	7	10000	1	1	0	1	0
236	665	7	10000	1	1	0	1	0
231	666	7	10000	1	1	0	1	0
273	667	7	10000	1	1	0	1	0
368	668	7	10000	1	1	0	1	0
379	669	7	10000	1	1	0	1	0
416	670	7	10000	1	1	0	1	0
471	671	7	10000	1	1	0	1	0
538	672	7	10000	1	1	0	1	0
608	673	7	10000	1	1	0	1	0
656	674	7	10000	1	1	0	1	0
637	675	7	10000	1	1	0	1	0
645	676	7	10000	1	1	0	1	0
663	677	7	10000	1	1	0	1	0
670	678	7	10000	1	1	0	1	0
715	679	7	10000	1	1	0	1	0
723	680	7	10000	1	1	0	1	0
700	681	7	10000	1	1	0	1	0
678	682	7	10000	1	1	0	1	0
667	683	7	10000	1	1	0	1	0
656	684	7	10000	1	1	0	1	0
668	685	7	10000	1	1	0	1	0
683	686	7	10000	1	1	0	1	0
693	687	7	10000	1	1	0	1	0
678	688	7	10000	1	1	0	1	0
650	689	7	10000	1	1	0	1	0
623	690	7	10000	1	1	0	1	0
600	691	7	10000	1	1	0	1	0
591	692	7	10000	1	1	0	1	0
587	693	7	10000	1	1	0	1	0
575	694	7	10000	1	1	0	1	0
560	695	7	10000	1	1	0	1	0
544	696	7	10000	1	1	0	1	0
529	697	7	10000	1	1	0	1	0
516	698	7	10000	1	1	0	1	0
501	699	7	10000	1	1	0	1	0
482	700	7	10000	1	1	0	1	0
462	701	7	10000	1	1	0	1	0
445	702	7	10000	1	1	0	1	0
431	703	7	10000	1	1	0	1	0
417	704	7	10000	1	1	0	1	0
401	705	7	10000	1	1	0	1	0
384	706	7	10000	1	1	0	1	0
373	707	7	10000	1	1	0	1	0
367	708	7	10000	1	1	0	1	0
366	709	7	10000	1	1	0	1	0
372	710	7	10000	1	1	0	1	0
374	711	7	10000	1	1	0	1	0
361	712	7	10000	1	1	0	1	0
352	713	7	10000	1	1	0	1	0
341	714	7	10000	1	1	0	1	0
325	715	7	10000	1	1	0	1	0
318	716	7	10000	1	1	0	1	0
306	717	7	10000	1	1	0	1	0
294	718	7	10000	1	1	0	1	0
282	719	7	10000	1	1	0	1	0
273	720	7	10000	1	1	0	1	0
268	721	7	10000	1	1	0	1	0
259	722	7	10000	1	1	0	1	0
257	723	7	10000	1	1	0	1	0
258	724	7	10000	1	1	0	1	0
261	725	7	10000	1	1	0	1	0
263	726	7	10000	1	1	0	1	0
264	727	7	10000	1	1	0	1	0
255	728	7	10000	1	1	0	1	0
244	729	7	10000	1	1	0	1	0
236	730	7	10000	1	1	0	1	0
226	731	7	10000	1	1	0	1	0
217	732	7	10000	1	1	0	1	0
210	733	7	10000	1	1	0	1	0
205	734	7	10000	1	1	0	1	0
201	735	7	10000	1	1	0	1	0
197	736	7	10000	1	1	0	1	0
196	737	7	10000	1	1	0	1	0
202	738	7	10000	1	1	0	1	0
204	739	7	10000	1	1	0	1	0
202	740	7	10000	1	1	0	1	0
198	741	7	10000	1	1	0	1	0
211	742	7	10000	1	1	0	1	0
233	743	7	10000	1	1	0	1	0
257	744	7	10000	1	1	0	1	0
277	745	7	10000	1	1	0	1	0
275	746	7	10000	1	1	0	1	0
266	747	7	10000	1	1	0	1	0
263	748	7	10000	1	1	0	1	0
263	749	7	10000	1	1	0	1	0
269	750	7	10000	1	1	0	1	0
273	751	7	10000	1	1	0	1	0
273	752	7	10000	1	1	0	1	0
269	753	7	10000	1	1	0	1	0
261	754	7	10000	1	1	0	1	0
251	755	7	10000	1	1	0	1	0
243	756	7	10000	1	1	0	1	0
234	757	7	10000	1	1	0	1	0
226	758	7	10000	1	1	0	1	0
219	759	7	10000	1	1	0	1	0
212	760	7	10000	1	1	0	1	0
206	761	7	10000	1	1	0	1	0
203	762	7	10000	1	1	0	1	0
195	763	7	10000	1	1	0	1	0
190	764	7	10000	1	1	0	1	0
188	765	7	10000	1	1	0	1	0
185	766	7	10000	1	1	0	1	0
182	767	7	10000	1	1	0	1	0
178	768	7	10000	1	1	0	1	0
175	769	7	10000	1	1	0	1	0
171	770	7	10000	1	1	0	1	0
164	771	7	10000	1	1	0	1	0
158	772	7	10000	1	1	0	1	0
153	773	7	10000	1	1	0	1	0
148	774	7	10000	1	1	0	1	0
141	775	7	10000	1	1	0	1	0
136	776	7	10000	1	1	0	1	0
131	777	7	10000	1	1	0	1	0
129	778	7	10000	1	1	0	1	0
125	779	7	10000	1	1	0	1	0
120	780	7	10000	1	1	0	1	0
118	781	7	10000	1	1	0	1	0
114	782	7	10000	1	1	0	1	0
109	783	7	10000	1	1	0	1	0
108	784	7	10000	1	1	0	1	0
107	785	7	10000	1	1	0	1	0
105	786	7	10000	1	1	0	1	0
104	787	7	10000	1	1	0	1	0
98	788	7	10000	1	1	0	1	0
95	789	7	10000	1	1	0	1	0
92	790	7	10000	1	1	0	1	0
90	791	7	10000	1	1	0	1	0
87	792	7	10000	1	1	0	1	0
84	793	7	10000	1	1	0	1	0
81	794	7	10000	1	1	0	1	0
79	795	7	10000	1	1	0	1	0
78	796	7	10000	1	1	0	1	0
79	797	7	10000	1	1	0	1	0
80	798	7	10000	1	1	0	1	0
77	799	7	10000	1	1	0	1	0
74	800	7	10000	1	1	0	1	0
72	801	7	10000	1	1	0	1	0
72	802	7	10000	1	1	0	1	0
71	803	7	10000	1	1	0	1	0
69	804	7	10000	1	1	0	1	0
69	805	7	10000	1	1	0	1	0
67	806	7	10000	1	1	0	1	0
68	807	7	10000	1	1	0	1	0
72	808	7	10000	1	1	0	1	0
76	809	7	10000	1	1	0	1	0
75	810	7	10000	1	1	0	1	0
80	811	7	10000	1	1	0	1	0
88	812	7	10000	1	1	0	1	0
96	813	7	10000	1	1	0	1	0
101	814	7	10000	1	1	0	1	0
98	815	7	10000	1	1	0	1	0
93	816	7	10000	1	1	0	1	0
90	817	7	10000	1	1	0	1	0
90	818	7	10000	1	1	0	1	0
88	819	7	10000	1	1	0	1	0
84	820	7	10000	1	1	0	1	0
81	821	7	10000	1	1	0	1	0
80	822	7	10000	1	1	0	1	0
80	823	7	10000	1	1	0	1	0
79	824	7	10000	1	1	0	1	0
80	825	7	10000	1	1	0	1	0
78	826	7	10000	1	1	0	1	0
78	827	7	10000	1	1	0	1	0
79	828	7	10000	1	1	0	1	0
77	829	7	10000	1	1	0	1	0
74	830	7	10000	1	1	0	1	0
72	831	7	10000	1	1	0	1	0
72	832	7	10000	1	1	0	1	0
79	833	7	10000	1	1	0	1	0
90	834	7	10000	1	1	0	1	0
97	835	7	10000	1	1	0	1	0
101	836	7	10000	1	1	0	1	0
100	837	7	10000	1	1	0	1	0
104	838	7	10000	1	1	0	1	0
110	839	7	10000	1	1	0	1	0
113	840	7	10000	1	1	0	1	0
114	841	7	10000	1	1	0	1	0
111	842	7	10000	1	1	0	1	0
107	843	7	10000	1	1	0	1	0
102	844	7	10000	1	1	0	1	0
98	845	7	10000	1	1	0	1	0
95	846	7	10000	1	1	0	1	0
93	847	7	10000	1	1	0	1	0
93	848	7	10000	1	1	0	1	0
95	849	7	10000	1	1	0	1	0
97	850	7	10000	1	1	0	1	0
96	851	7	10000	1	1	0	1	0
93	852	7	10000	1	1	0	1	0
92	853	7	10000	1	1	0	1	0
90	854	7	10000	1	1	0	1	0
87	855	7	10000	1	1	0	1	0
86	856	7	10000	1	1	0	1	0
83	857	7	10000	1	1	0	1	0
83	858	7	10000	1	1	0	1	0
84	859	7	10000	1	1	0	1	0
82	860	7	10000	1	1	0	1	0
80	861	7	10000	1	1	0	1	0
78	862	7	10000	1	1	0	1	0
77	863	7	10000	1	1	0	1	0
85	864	7	10000	1	1	0	1	0
99	865	7	10000	1	1	0	1	0
108	866	7	10000	1	1	0	1	0
105	867	7	10000	1	1	0	1	0
99	868	7	10000	1	1	0	1	0
96	869	7	10000	1	1	0	1	0
92	870	7	10000	1	1	0	1	0
89	871	7	10000	1	1	0	1	0
85	872	7	10000	1	1	0	1	0
84	873	7	10000	1	1	0	1	0
86	874	7	10000	1	1	0	1	0
87	875	7	10000	1	1	0	1	0
89	876	7	10000	1	1	0	1	0
93	877	7	10000	1	1	0	1	0
92	878	7	10000	1	1	0	1	0
95	879	7	10000	1	1	0	1	0
99	880	7	10000	1	1	0	1	0
100	881	7	10000	1	1	0	1	0
99	882	7	10000	1	1	0	1	0
97	883	7	10000	1	1	0	1	0
92	884	7	10000	1	1	0	1	0
89	885	7	10000	1	1	0	1	0
87	886	7	10000	1	1	0	1	0
86	887	7	10000	1	1	0	1	0
84	888	7	10000	1	1	0	1	0
82	889	7	10000	1	1	0	1	0
80	890	7	10000	1	1	0	1	0
80	891	7	10000	1	1	0	1	0
78	892	7	10000	1	1	0	1	0
80	893	7	10000	1	1	0	1	0
82	894	7	10000	1	1	0	1	0
85	895	7	10000	1	1	0	1	0
88	896	7	10000	1	1	0	1	0
89	897	7	10000	1	1	0	1	0
88	898	7	10000	1	1	0	1	0
85	899	7	10000	1	1	0	1	0
82	900	7	10000	1	1	0	1	0
79	901	7	10000	1	1	0	1	0
77	902	7	10000	1	1	0	1	0
75	903	7	10000	1	1	0	1	0
73	904	7	10000	1	1	0	1	0
74	905	7	10000	1	1	0	1	0
78	906	7	10000	1	1	0	1	0
76	907	7	10000	1	1	0	1	0
71	908	7	10000	1	1	0	1	0
69	909	7	10000	1	1	0	1	0
68	910	7	10000	1	1	0	1	0
68	911	7	10000	1	1	0	1	0
69	912	7	10000	1	1	0	1	0
71	913	7	10000	1	1	0	1	0
72	914	7	10000	1	1	0	1	0
75	915	7	10000	1	1	0	1	0
87	916	7	10000	1	1	0	1	0
98	917	7	10000	1	1	0	1	0
103	918	7	10000	1	1	0	1	0
101	919	7	10000	1	1	0	1	0
105	920	7	10000	1	1	0	1	0
109	921	7	10000	1	1	0	1	0
112	922	7	10000	1	1	0	1	0
113	923	7	10000	1	1	0	1	0
111	924	7	10000	1	1	0	1	0
110	925	7	10000	1	1	0	1	0
108	926	7	10000	1	1	0	1	0
102	927	7	10000	1	1	0	1	0
97	928	7	10000	1	1	0	1	0
94	929	7	10000	1	1	0	1	0
93	930	7	10000	1	1	0	1	0
93	931	7	10000	1	1	0	1	0
89	932	7	10000	1	1	0	1	0
85	933	7	10000	1	1	0	1	0
82	934	7	10000	1	1	0	1	0
78	935	7	10000	1	1	0	1	0
77	936	7	10000	1	1	0	1	0
75	937	7	10000	1	1	0	1	0
75	938	7	10000	1	1	0	1	0
73	939	7	10000	1	1	0	1	0
74	940	7	10000	1	1	0	1	0
82	941	7	10000	1	1	0	1	0
94	942	7	10000	1	1	0	1	0
100	943	7	10000	1	1	0	1	0
101	944	7	10000	1	1	0	1	0
100	945	7	10000	1	1	0	1	0
101	946	7	10000	1	1	0	1	0
104	947	7	10000	1	1	0	1	0
105	948	7	10000	1	1	0	1	0
107	949	7	10000	1	1	0	1	0
103	950	7	10000	1	1	0	1	0
98	951	7	10000	1	1	0	1	0
95	952	7	10000	1	1	0	1	0
91	953	7	10000	1	1	0	1	0
89	954	7	10000	1	1	0	1	0
88	955	7	10000	1	1	0	1	0
88	956	7	10000	1	1	0	1	0
87	957	7	10000	1	1	0	1	0
86	958	7	10000	1	1	0	1	0
85	959	7	10000	1	1	0	1	0
88	960	7	10000	1	1	0	1	0
91	961	7	10000	1	1	0	1	0
102	962	7	10000	1	1	0	1	0
114	963	7	10000	1	1	0	1	0
113	964	7	10000	1	1	0	1	0
116	965	7	10000	1	1	0	1	0
124	966	7	10000	1	1	0	1	0
132	967	7	10000	1	1	0	1	0
138	968	7	10000	1	1	0	1	0
141	969	7	10000	1	1	0	1	0
137	970	7	10000	1	1	0	1	0
134	971	7	10000	1	1	0	1	0
130	972	7	10000	1	1	0	1	0
126	973	7	10000	1	1	0	1	0
124	974	7	10000	1	1	0	1	0
126	975	7	10000	1	1	0	1	0
122	976	7	10000	1	1	0	1	0
123	977	7	10000	1	1	0	1	0
121	978	7	10000	1	1	0	1	0
116	979	7	10000	1	1	0	1	0
111	980	7	10000	1	1	0	1	0
108	981	7	10000	1	1	0	1	0
105	982	7	10000	1	1	0	1	0
112	983	7	10000	1	1	0	1	0
117	984	7	10000	1	1	0	1	0
114	985	7	10000	1	1	0	1	0
114	986	7	10000	1	1	0	1	0
114	987	7	10000	1	1	0	1	0
112	988	7	10000	1	1	0	1	0
114	989	7	10000	1	1	0	1	0
111	990	7	10000	1	1	0	1	0
107	991	7	10000	1	1	0	1	0
105	992	7	10000	1	1	0	1	0
105	993	7	10000	1	1	0	1	0
102	994	7	10000	1	1	0	1	0
98	995	7	10000	1	1	0	1	0
94	996	7	10000	1	1	0	1	0
92	997	7	10000	1	1	0	1	0
92	998	7	10000	1	1	0	1	0
89	999	7	10000	1	1	0	1	0
90	1000	7	10000	1	1	0	1	0
58	1	7	10000	2	1	0	2	0
58	2	7	10000	2	1	0	2	0
60	3	7	10000	2	1	0	2	0
60	4	7	10000	2	1	0	2	0
60	5	7	10000	2	1	0	2	0
60	6	7	10000	2	1	0	2	0
61	7	7	10000	2	1	0	2	0
63	8	7	10000	2	1	0	2	0
67	9	7	10000	2	1	0	2	0
68	10	7	10000	2	1	0	2	0
67	11	7	10000	2	1	0	2	0
66	12	7	10000	2	1	0	2	0
64	13	7	10000	2	1	0	2	0
64	14	7	10000	2	1	0	2	0
62	15	7	10000	2	1	0	2	0
60	16	7	10000	2	1	0	2	0
59	17	7	10000	2	1	0	2	0
56	18	7	10000	2	1	0	2	0
53	19	7	10000	2	1	0	2	0
51	20	7	10000	2	1	0	2	0
49	21	7	10000	2	1	0	2	0
48	22	7	10000	2	1	0	2	0
47	23	7	10000	2	1	0	2	0
46	24	7	10000	2	1	0	2	0
45	25	7	10000	2	1	0	2	0
44	26	7	10000	2	1	0	2	0
44	27	7	10000	2	1	0	2	0
46	28	7	10000	2	1	0	2	0
47	29	7	10000	2	1	0	2	0
47	30	7	10000	2	1	0	2	0
49	31	7	10000	2	1	0	2	0
50	32	7	10000	2	1	0	2	0
52	33	7	10000	2	1	0	2	0
51	34	7	10000	2	1	0	2	0
49	35	7	10000	2	1	0	2	0
48	36	7	10000	2	1	0	2	0
48	37	7	10000	2	1	0	2	0
46	38	7	10000	2	1	0	2	0
44	39	7	10000	2	1	0	2	0
43	40	7	10000	2	1	0	2	0
42	41	7	10000	2	1	0	2	0
41	42	7	10000	2	1	0	2	0
40	43	7	10000	2	1	0	2	0
40	44	7	10000	2	1	0	2	0
38	45	7	10000	2	1	0	2	0
37	46	7	10000	2	1	0	2	0
35	47	7	10000	2	1	0	2	0
34	48	7	10000	2	1	0	2	0
35	49	7	10000	2	1	0	2	0
34	50	7	10000	2	1	0	2	0
33	51	7	10000	2	1	0	2	0
33	52	7	10000	2	1	0	2	0
32	53	7	10000	2	1	0	2	0
32	54	7	10000	2	1	0	2	0
32	55	7	10000	2	1	0	2	0
31	56	7	10000	2	1	0	2	0
31	57	7	10000	2	1	0	2	0
29	58	7	10000	2	1	0	2	0
27	59	7	10000	2	1	0	2	0
29	60	7	10000	2	1	0	2	0
31	61	7	10000	2	1	0	2	0
30	62	7	10000	2	1	0	2	0
29	63	7	10000	2	1	0	2	0
30	64	7	10000	2	1	0	2	0
31	65	7	10000	2	1	0	2	0
32	66	7	10000	2	1	0	2	0
30	67	7	10000	2	1	0	2	0
30	68	7	10000	2	1	0	2	0
31	69	7	10000	2	1	0	2	0
29	70	7	10000	2	1	0	2	0
28	71	7	10000	2	1	0	2	0
27	72	7	10000	2	1	0	2	0
27	73	7	10000	2	1	0	2	0
26	74	7	10000	2	1	0	2	0
26	75	7	10000	2	1	0	2	0
25	76	7	10000	2	1	0	2	0
26	77	7	10000	2	1	0	2	0
26	78	7	10000	2	1	0	2	0
28	79	7	10000	2	1	0	2	0
28	80	7	10000	2	1	0	2	0
27	81	7	10000	2	1	0	2	0
27	82	7	10000	2	1	0	2	0
26	83	7	10000	2	1	0	2	0
26	84	7	10000	2	1	0	2	0
25	85	7	10000	2	1	0	2	0
24	86	7	10000	2	1	0	2	0
24	87	7	10000	2	1	0	2	0
25	88	7	10000	2	1	0	2	0
27	89	7	10000	2	1	0	2	0
27	90	7	10000	2	1	0	2	0
26	91	7	10000	2	1	0	2	0
27	92	7	10000	2	1	0	2	0
28	93	7	10000	2	1	0	2	0
28	94	7	10000	2	1	0	2	0
29	95	7	10000	2	1	0	2	0
28	96	7	10000	2	1	0	2	0
27	97	7	10000	2	1	0	2	0
27	98	7	10000	2	1	0	2	0
28	99	7	10000	2	1	0	2	0
28	100	7	10000	2	1	0	2	0
29	101	7	10000	2	1	0	2	0
30	102	7	10000	2	1	0	2	0
29	103	7	10000	2	1	0	2	0
30	104	7	10000	2	1	0	2	0
29	105	7	10000	2	1	0	2	0
27	106	7	10000	2	1	0	2	0
26	107	7	10000	2	1	0	2	0
26	108	7	10000	2	1	0	2	0
26	109	7	10000	2	1	0	2	0
25	110	7	10000	2	1	0	2	0
23	111	7	10000	2	1	0	2	0
23	112	7	10000	2	1	0	2	0
23	113	7	10000	2	1	0	2	0
25	114	7	10000	2	1	0	2	0
26	115	7	10000	2	1	0	2	0
27	116	7	10000	2	1	0	2	0
26	117	7	10000	2	1	0	2	0
25	118	7	10000	2	1	0	2	0
24	119	7	10000	2	1	0	2	0
23	120	7	10000	2	1	0	2	0
23	121	7	10000	2	1	0	2	0
22	122	7	10000	2	1	0	2	0
24	123	7	10000	2	1	0	2	0
28	124	7	10000	2	1	0	2	0
28	125	7	10000	2	1	0	2	0
30	126	7	10000	2	1	0	2	0
34	127	7	10000	2	1	0	2	0
38	128	7	10000	2	1	0	2	0
40	129	7	10000	2	1	0	2	0
39	130	7	10000	2	1	0	2	0
38	131	7	10000	2	1	0	2	0
36	132	7	10000	2	1	0	2	0
35	133	7	10000	2	1	0	2	0
33	134	7	10000	2	1	0	2	0
34	135	7	10000	2	1	0	2	0
35	136	7	10000	2	1	0	2	0
36	137	7	10000	2	1	0	2	0
34	138	7	10000	2	1	0	2	0
32	139	7	10000	2	1	0	2	0
31	140	7	10000	2	1	0	2	0
31	141	7	10000	2	1	0	2	0
30	142	7	10000	2	1	0	2	0
29	143	7	10000	2	1	0	2	0
28	144	7	10000	2	1	0	2	0
27	145	7	10000	2	1	0	2	0
26	146	7	10000	2	1	0	2	0
26	147	7	10000	2	1	0	2	0
26	148	7	10000	2	1	0	2	0
26	149	7	10000	2	1	0	2	0
25	150	7	10000	2	1	0	2	0
25	151	7	10000	2	1	0	2	0
24	152	7	10000	2	1	0	2	0
23	153	7	10000	2	1	0	2	0
23	154	7	10000	2	1	0	2	0
23	155	7	10000	2	1	0	2	0
25	156	7	10000	2	1	0	2	0
25	157	7	10000	2	1	0	2	0
25	158	7	10000	2	1	0	2	0
24	159	7	10000	2	1	0	2	0
25	160	7	10000	2	1	0	2	0
27	161	7	10000	2	1	0	2	0
25	162	7	10000	2	1	0	2	0
25	163	7	10000	2	1	0	2	0
24	164	7	10000	2	1	0	2	0
23	165	7	10000	2	1	0	2	0
24	166	7	10000	2	1	0	2	0
23	167	7	10000	2	1	0	2	0
23	168	7	10000	2	1	0	2	0
24	169	7	10000	2	1	0	2	0
24	170	7	10000	2	1	0	2	0
24	171	7	10000	2	1	0	2	0
23	172	7	10000	2	1	0	2	0
22	173	7	10000	2	1	0	2	0
22	174	7	10000	2	1	0	2	0
22	175	7	10000	2	1	0	2	0
22	176	7	10000	2	1	0	2	0
22	177	7	10000	2	1	0	2	0
22	178	7	10000	2	1	0	2	0
22	179	7	10000	2	1	0	2	0
21	180	7	10000	2	1	0	2	0
21	181	7	10000	2	1	0	2	0
20	182	7	10000	2	1	0	2	0
20	183	7	10000	2	1	0	2	0
20	184	7	10000	2	1	0	2	0
20	185	7	10000	2	1	0	2	0
20	186	7	10000	2	1	0	2	0
20	187	7	10000	2	1	0	2	0
20	188	7	10000	2	1	0	2	0
21	189	7	10000	2	1	0	2	0
20	190	7	10000	2	1	0	2	0
19	191	7	10000	2	1	0	2	0
18	192	7	10000	2	1	0	2	0
18	193	7	10000	2	1	0	2	0
18	194	7	10000	2	1	0	2	0
18	195	7	10000	2	1	0	2	0
19	196	7	10000	2	1	0	2	0
19	197	7	10000	2	1	0	2	0
20	198	7	10000	2	1	0	2	0
19	199	7	10000	2	1	0	2	0
20	200	7	10000	2	1	0	2	0
25	201	7	10000	2	1	0	2	0
27	202	7	10000	2	1	0	2	0
27	203	7	10000	2	1	0	2	0
29	204	7	10000	2	1	0	2	0
30	205	7	10000	2	1	0	2	0
32	206	7	10000	2	1	0	2	0
33	207	7	10000	2	1	0	2	0
31	208	7	10000	2	1	0	2	0
31	209	7	10000	2	1	0	2	0
31	210	7	10000	2	1	0	2	0
30	211	7	10000	2	1	0	2	0
30	212	7	10000	2	1	0	2	0
29	213	7	10000	2	1	0	2	0
28	214	7	10000	2	1	0	2	0
28	215	7	10000	2	1	0	2	0
27	216	7	10000	2	1	0	2	0
27	217	7	10000	2	1	0	2	0
27	218	7	10000	2	1	0	2	0
28	219	7	10000	2	1	0	2	0
28	220	7	10000	2	1	0	2	0
30	221	7	10000	2	1	0	2	0
32	222	7	10000	2	1	0	2	0
33	223	7	10000	2	1	0	2	0
34	224	7	10000	2	1	0	2	0
33	225	7	10000	2	1	0	2	0
33	226	7	10000	2	1	0	2	0
31	227	7	10000	2	1	0	2	0
32	228	7	10000	2	1	0	2	0
32	229	7	10000	2	1	0	2	0
31	230	7	10000	2	1	0	2	0
30	231	7	10000	2	1	0	2	0
29	232	7	10000	2	1	0	2	0
29	233	7	10000	2	1	0	2	0
27	234	7	10000	2	1	0	2	0
26	235	7	10000	2	1	0	2	0
26	236	7	10000	2	1	0	2	0
26	237	7	10000	2	1	0	2	0
24	238	7	10000	2	1	0	2	0
24	239	7	10000	2	1	0	2	0
26	240	7	10000	2	1	0	2	0
27	241	7	10000	2	1	0	2	0
27	242	7	10000	2	1	0	2	0
27	243	7	10000	2	1	0	2	0
26	244	7	10000	2	1	0	2	0
26	245	7	10000	2	1	0	2	0
24	246	7	10000	2	1	0	2	0
23	247	7	10000	2	1	0	2	0
25	248	7	10000	2	1	0	2	0
25	249	7	10000	2	1	0	2	0
24	250	7	10000	2	1	0	2	0
23	251	7	10000	2	1	0	2	0
22	252	7	10000	2	1	0	2	0
22	253	7	10000	2	1	0	2	0
21	254	7	10000	2	1	0	2	0
20	255	7	10000	2	1	0	2	0
21	256	7	10000	2	1	0	2	0
22	257	7	10000	2	1	0	2	0
20	258	7	10000	2	1	0	2	0
20	259	7	10000	2	1	0	2	0
20	260	7	10000	2	1	0	2	0
20	261	7	10000	2	1	0	2	0
20	262	7	10000	2	1	0	2	0
20	263	7	10000	2	1	0	2	0
20	264	7	10000	2	1	0	2	0
19	265	7	10000	2	1	0	2	0
18	266	7	10000	2	1	0	2	0
17	267	7	10000	2	1	0	2	0
19	268	7	10000	2	1	0	2	0
20	269	7	10000	2	1	0	2	0
19	270	7	10000	2	1	0	2	0
19	271	7	10000	2	1	0	2	0
18	272	7	10000	2	1	0	2	0
19	273	7	10000	2	1	0	2	0
18	274	7	10000	2	1	0	2	0
18	275	7	10000	2	1	0	2	0
18	276	7	10000	2	1	0	2	0
17	277	7	10000	2	1	0	2	0
16	278	7	10000	2	1	0	2	0
17	279	7	10000	2	1	0	2	0
17	280	7	10000	2	1	0	2	0
17	281	7	10000	2	1	0	2	0
18	282	7	10000	2	1	0	2	0
17	283	7	10000	2	1	0	2	0
18	284	7	10000	2	1	0	2	0
19	285	7	10000	2	1	0	2	0
19	286	7	10000	2	1	0	2	0
18	287	7	10000	2	1	0	2	0
20	288	7	10000	2	1	0	2	0
21	289	7	10000	2	1	0	2	0
20	290	7	10000	2	1	0	2	0
20	291	7	10000	2	1	0	2	0
22	292	7	10000	2	1	0	2	0
24	293	7	10000	2	1	0	2	0
26	294	7	10000	2	1	0	2	0
27	295	7	10000	2	1	0	2	0
26	296	7	10000	2	1	0	2	0
28	297	7	10000	2	1	0	2	0
29	298	7	10000	2	1	0	2	0
31	299	7	10000	2	1	0	2	0
31	300	7	10000	2	1	0	2	0
31	301	7	10000	2	1	0	2	0
32	302	7	10000	2	1	0	2	0
30	303	7	10000	2	1	0	2	0
30	304	7	10000	2	1	0	2	0
31	305	7	10000	2	1	0	2	0
32	306	7	10000	2	1	0	2	0
32	307	7	10000	2	1	0	2	0
35	308	7	10000	2	1	0	2	0
37	309	7	10000	2	1	0	2	0
36	310	7	10000	2	1	0	2	0
36	311	7	10000	2	1	0	2	0
35	312	7	10000	2	1	0	2	0
34	313	7	10000	2	1	0	2	0
32	314	7	10000	2	1	0	2	0
32	315	7	10000	2	1	0	2	0
32	316	7	10000	2	1	0	2	0
31	317	7	10000	2	1	0	2	0
29	318	7	10000	2	1	0	2	0
28	319	7	10000	2	1	0	2	0
27	320	7	10000	2	1	0	2	0
26	321	7	10000	2	1	0	2	0
26	322	7	10000	2	1	0	2	0
25	323	7	10000	2	1	0	2	0
24	324	7	10000	2	1	0	2	0
23	325	7	10000	2	1	0	2	0
21	326	7	10000	2	1	0	2	0
20	327	7	10000	2	1	0	2	0
22	328	7	10000	2	1	0	2	0
22	329	7	10000	2	1	0	2	0
21	330	7	10000	2	1	0	2	0
21	331	7	10000	2	1	0	2	0
21	332	7	10000	2	1	0	2	0
22	333	7	10000	2	1	0	2	0
22	334	7	10000	2	1	0	2	0
21	335	7	10000	2	1	0	2	0
20	336	7	10000	2	1	0	2	0
21	337	7	10000	2	1	0	2	0
19	338	7	10000	2	1	0	2	0
18	339	7	10000	2	1	0	2	0
18	340	7	10000	2	1	0	2	0
19	341	7	10000	2	1	0	2	0
20	342	7	10000	2	1	0	2	0
20	343	7	10000	2	1	0	2	0
20	344	7	10000	2	1	0	2	0
20	345	7	10000	2	1	0	2	0
20	346	7	10000	2	1	0	2	0
19	347	7	10000	2	1	0	2	0
20	348	7	10000	2	1	0	2	0
20	349	7	10000	2	1	0	2	0
20	350	7	10000	2	1	0	2	0
20	351	7	10000	2	1	0	2	0
21	352	7	10000	2	1	0	2	0
22	353	7	10000	2	1	0	2	0
22	354	7	10000	2	1	0	2	0
22	355	7	10000	2	1	0	2	0
21	356	7	10000	2	1	0	2	0
22	357	7	10000	2	1	0	2	0
22	358	7	10000	2	1	0	2	0
22	359	7	10000	2	1	0	2	0
23	360	7	10000	2	1	0	2	0
25	361	7	10000	2	1	0	2	0
25	362	7	10000	2	1	0	2	0
26	363	7	10000	2	1	0	2	0
25	364	7	10000	2	1	0	2	0
24	365	7	10000	2	1	0	2	0
23	366	7	10000	2	1	0	2	0
21	367	7	10000	2	1	0	2	0
23	368	7	10000	2	1	0	2	0
23	369	7	10000	2	1	0	2	0
21	370	7	10000	2	1	0	2	0
22	371	7	10000	2	1	0	2	0
21	372	7	10000	2	1	0	2	0
21	373	7	10000	2	1	0	2	0
21	374	7	10000	2	1	0	2	0
20	375	7	10000	2	1	0	2	0
20	376	7	10000	2	1	0	2	0
20	377	7	10000	2	1	0	2	0
20	378	7	10000	2	1	0	2	0
20	379	7	10000	2	1	0	2	0
20	380	7	10000	2	1	0	2	0
23	381	7	10000	2	1	0	2	0
23	382	7	10000	2	1	0	2	0
23	383	7	10000	2	1	0	2	0
23	384	7	10000	2	1	0	2	0
21	385	7	10000	2	1	0	2	0
21	386	7	10000	2	1	0	2	0
20	387	7	10000	2	1	0	2	0
21	388	7	10000	2	1	0	2	0
21	389	7	10000	2	1	0	2	0
20	390	7	10000	2	1	0	2	0
22	391	7	10000	2	1	0	2	0
22	392	7	10000	2	1	0	2	0
21	393	7	10000	2	1	0	2	0
22	394	7	10000	2	1	0	2	0
22	395	7	10000	2	1	0	2	0
24	396	7	10000	2	1	0	2	0
26	397	7	10000	2	1	0	2	0
24	398	7	10000	2	1	0	2	0
23	399	7	10000	2	1	0	2	0
27	400	7	10000	2	1	0	2	0
30	401	7	10000	2	1	0	2	0
30	402	7	10000	2	1	0	2	0
31	403	7	10000	2	1	0	2	0
31	404	7	10000	2	1	0	2	0
30	405	7	10000	2	1	0	2	0
28	406	7	10000	2	1	0	2	0
28	407	7	10000	2	1	0	2	0
30	408	7	10000	2	1	0	2	0
30	409	7	10000	2	1	0	2	0
29	410	7	10000	2	1	0	2	0
28	411	7	10000	2	1	0	2	0
27	412	7	10000	2	1	0	2	0
26	413	7	10000	2	1	0	2	0
26	414	7	10000	2	1	0	2	0
25	415	7	10000	2	1	0	2	0
24	416	7	10000	2	1	0	2	0
25	417	7	10000	2	1	0	2	0
22	418	7	10000	2	1	0	2	0
20	419	7	10000	2	1	0	2	0
20	420	7	10000	2	1	0	2	0
20	421	7	10000	2	1	0	2	0
19	422	7	10000	2	1	0	2	0
19	423	7	10000	2	1	0	2	0
19	424	7	10000	2	1	0	2	0
19	425	7	10000	2	1	0	2	0
19	426	7	10000	2	1	0	2	0
18	427	7	10000	2	1	0	2	0
19	428	7	10000	2	1	0	2	0
18	429	7	10000	2	1	0	2	0
18	430	7	10000	2	1	0	2	0
17	431	7	10000	2	1	0	2	0
18	432	7	10000	2	1	0	2	0
19	433	7	10000	2	1	0	2	0
19	434	7	10000	2	1	0	2	0
19	435	7	10000	2	1	0	2	0
19	436	7	10000	2	1	0	2	0
20	437	7	10000	2	1	0	2	0
19	438	7	10000	2	1	0	2	0
19	439	7	10000	2	1	0	2	0
20	440	7	10000	2	1	0	2	0
19	441	7	10000	2	1	0	2	0
19	442	7	10000	2	1	0	2	0
19	443	7	10000	2	1	0	2	0
18	444	7	10000	2	1	0	2	0
18	445	7	10000	2	1	0	2	0
17	446	7	10000	2	1	0	2	0
17	447	7	10000	2	1	0	2	0
18	448	7	10000	2	1	0	2	0
18	449	7	10000	2	1	0	2	0
17	450	7	10000	2	1	0	2	0
16	451	7	10000	2	1	0	2	0
15	452	7	10000	2	1	0	2	0
15	453	7	10000	2	1	0	2	0
15	454	7	10000	2	1	0	2	0
16	455	7	10000	2	1	0	2	0
15	456	7	10000	2	1	0	2	0
17	457	7	10000	2	1	0	2	0
17	458	7	10000	2	1	0	2	0
16	459	7	10000	2	1	0	2	0
16	460	7	10000	2	1	0	2	0
16	461	7	10000	2	1	0	2	0
15	462	7	10000	2	1	0	2	0
16	463	7	10000	2	1	0	2	0
15	464	7	10000	2	1	0	2	0
14	465	7	10000	2	1	0	2	0
15	466	7	10000	2	1	0	2	0
13	467	7	10000	2	1	0	2	0
14	468	7	10000	2	1	0	2	0
14	469	7	10000	2	1	0	2	0
14	470	7	10000	2	1	0	2	0
14	471	7	10000	2	1	0	2	0
14	472	7	10000	2	1	0	2	0
14	473	7	10000	2	1	0	2	0
13	474	7	10000	2	1	0	2	0
14	475	7	10000	2	1	0	2	0
14	476	7	10000	2	1	0	2	0
14	477	7	10000	2	1	0	2	0
13	478	7	10000	2	1	0	2	0
13	479	7	10000	2	1	0	2	0
15	480	7	10000	2	1	0	2	0
16	481	7	10000	2	1	0	2	0
15	482	7	10000	2	1	0	2	0
15	483	7	10000	2	1	0	2	0
15	484	7	10000	2	1	0	2	0
15	485	7	10000	2	1	0	2	0
15	486	7	10000	2	1	0	2	0
14	487	7	10000	2	1	0	2	0
15	488	7	10000	2	1	0	2	0
16	489	7	10000	2	1	0	2	0
15	490	7	10000	2	1	0	2	0
14	491	7	10000	2	1	0	2	0
14	492	7	10000	2	1	0	2	0
14	493	7	10000	2	1	0	2	0
15	494	7	10000	2	1	0	2	0
16	495	7	10000	2	1	0	2	0
17	496	7	10000	2	1	0	2	0
17	497	7	10000	2	1	0	2	0
16	498	7	10000	2	1	0	2	0
16	499	7	10000	2	1	0	2	0
19	500	7	10000	2	1	0	2	0
21	501	7	10000	2	1	0	2	1
22	502	7	10000	2	1	0	2	1
21	503	7	10000	2	1	0	2	1
21	504	7	10000	2	1	0	2	1
22	505	7	10000	2	1	0	2	1
25	506	7	10000	2	1	0	2	1
26	507	7	10000	2	1	0	2	1
27	508	7	10000	2	1	0	2	1
30	509	7	10000	2	1	0	2	1
30	510	7	10000	2	1	0	2	1
30	511	7	10000	2	1	0	2	1
30	512	7	10000	2	1	0	2	1
29	513	7	10000	2	1	0	2	1
27	514	7	10000	2	1	0	2	1
28	515	7	10000	2	1	0	2	1
29	516	7	10000	2	1	0	2	1
29	517	7	10000	2	1	0	2	1
28	518	7	10000	2	1	0	2	1
28	519	7	10000	2	1	0	2	1
28	520	7	10000	2	1	0	2	1
27	521	7	10000	2	1	0	2	1
26	522	7	10000	2	1	0	2	1
25	523	7	10000	2	1	0	2	1
25	524	7	10000	2	1	0	2	1
24	525	7	10000	2	1	0	2	1
22	526	7	10000	2	1	0	2	1
22	527	7	10000	2	1	0	2	1
22	528	7	10000	2	1	0	2	1
22	529	7	10000	2	1	0	2	1
20	530	7	10000	2	1	0	2	1
20	531	7	10000	2	1	0	2	1
20	532	7	10000	2	1	0	2	1
19	533	7	10000	2	1	0	2	1
19	534	7	10000	2	1	0	2	1
21	535	7	10000	2	1	0	2	1
20	536	7	10000	2	1	0	2	1
21	537	7	10000	2	1	0	2	1
20	538	7	10000	2	1	0	2	1
19	539	7	10000	2	1	0	2	1
20	540	7	10000	2	1	0	2	1
20	541	7	10000	2	1	0	2	1
20	542	7	10000	2	1	0	2	1
19	543	7	10000	2	1	0	2	1
20	544	7	10000	2	1	0	2	1
18	545	7	10000	2	1	0	2	1
18	546	7	10000	2	1	0	2	1
18	547	7	10000	2	1	0	2	1
19	548	7	10000	2	1	0	2	1
19	549	7	10000	2	1	0	2	1
19	550	7	10000	2	1	0	2	1
19	551	7	10000	2	1	0	2	0
19	552	7	10000	2	1	0	2	0
18	553	7	10000	2	1	0	2	0
18	554	7	10000	2	1	0	2	0
18	555	7	10000	2	1	0	2	0
18	556	7	10000	2	1	0	2	0
19	557	7	10000	2	1	0	2	0
19	558	7	10000	2	1	0	2	0
19	559	7	10000	2	1	0	2	0
19	560	7	10000	2	1	0	2	0
21	561	7	10000	2	1	0	2	0
20	562	7	10000	2	1	0	2	0
20	563	7	10000	2	1	0	2	0
21	564	7	10000	2	1	0	2	0
22	565	7	10000	2	1	0	2	0
23	566	7	10000	2	1	0	2	0
22	567	7	10000	2	1	0	2	0
23	568	7	10000	2	1	0	2	0
24	569	7	10000	2	1	0	2	0
23	570	7	10000	2	1	0	2	0
22	571	7	10000	2	1	0	2	0
21	572	7	10000	2	1	0	2	0
21	573	7	10000	2	1	0	2	0
21	574	7	10000	2	1	0	2	0
21	575	7	10000	2	1	0	2	0
21	576	7	10000	2	1	0	2	0
21	577	7	10000	2	1	0	2	0
19	578	7	10000	2	1	0	2	0
18	579	7	10000	2	1	0	2	0
18	580	7	10000	2	1	0	2	0
19	581	7	10000	2	1	0	2	0
21	582	7	10000	2	1	0	2	0
21	583	7	10000	2	1	0	2	0
25	584	7	10000	2	1	0	2	0
31	585	7	10000	2	1	0	2	0
33	586	7	10000	2	1	0	2	0
32	587	7	10000	2	1	0	2	0
35	588	7	10000	2	1	0	2	0
39	589	7	10000	2	1	0	2	0
42	590	7	10000	2	1	0	2	0
44	591	7	10000	2	1	0	2	0
44	592	7	10000	2	1	0	2	0
44	593	7	10000	2	1	0	2	0
52	594	7	10000	2	1	0	2	0
56	595	7	10000	2	1	0	2	0
74	596	7	10000	2	1	0	2	0
91	597	7	10000	2	1	0	2	0
175	598	7	10000	2	1	0	2	0
226	599	7	10000	2	1	0	2	0
234	600	7	10000	2	1	0	2	0
290	601	7	10000	2	1	0	2	0
321	602	7	10000	2	1	0	2	0
323	603	7	10000	2	1	0	2	0
314	604	7	10000	2	1	0	2	0
302	605	7	10000	2	1	0	2	0
299	606	7	10000	2	1	0	2	0
307	607	7	10000	2	1	0	2	0
314	608	7	10000	2	1	0	2	0
308	609	7	10000	2	1	0	2	0
299	610	7	10000	2	1	0	2	0
306	611	7	10000	2	1	0	2	0
308	612	7	10000	2	1	0	2	0
309	613	7	10000	2	1	0	2	0
328	614	7	10000	2	1	0	2	0
336	615	7	10000	2	1	0	2	0
336	616	7	10000	2	1	0	2	0
373	617	7	10000	2	1	0	2	0
416	618	7	10000	2	1	0	2	0
417	619	7	10000	2	1	0	2	0
405	620	7	10000	2	1	0	2	0
408	621	7	10000	2	1	0	2	0
413	622	7	10000	2	1	0	2	0
411	623	7	10000	2	1	0	2	0
410	624	7	10000	2	1	0	2	0
403	625	7	10000	2	1	0	2	0
391	626	7	10000	2	1	0	2	0
374	627	7	10000	2	1	0	2	0
359	628	7	10000	2	1	0	2	0
343	629	7	10000	2	1	0	2	0
330	630	7	10000	2	1	0	2	0
320	631	7	10000	2	1	0	2	0
311	632	7	10000	2	1	0	2	0
303	633	7	10000	2	1	0	2	0
294	634	7	10000	2	1	0	2	0
286	635	7	10000	2	1	0	2	0
278	636	7	10000	2	1	0	2	0
270	637	7	10000	2	1	0	2	0
261	638	7	10000	2	1	0	2	0
254	639	7	10000	2	1	0	2	0
244	640	7	10000	2	1	0	2	0
238	641	7	10000	2	1	0	2	0
234	642	7	10000	2	1	0	2	0
225	643	7	10000	2	1	0	2	0
220	644	7	10000	2	1	0	2	0
219	645	7	10000	2	1	0	2	0
222	646	7	10000	2	1	0	2	0
225	647	7	10000	2	1	0	2	0
223	648	7	10000	2	1	0	2	0
214	649	7	10000	2	1	0	2	0
205	650	7	10000	2	1	0	2	0
196	651	7	10000	2	1	0	2	0
189	652	7	10000	2	1	0	2	0
182	653	7	10000	2	1	0	2	0
175	654	7	10000	2	1	0	2	0
167	655	7	10000	2	1	0	2	0
161	656	7	10000	2	1	0	2	0
154	657	7	10000	2	1	0	2	0
147	658	7	10000	2	1	0	2	0
141	659	7	10000	2	1	0	2	0
135	660	7	10000	2	1	0	2	0
129	661	7	10000	2	1	0	2	0
124	662	7	10000	2	1	0	2	0
119	663	7	10000	2	1	0	2	0
114	664	7	10000	2	1	0	2	0
109	665	7	10000	2	1	0	2	0
107	666	7	10000	2	1	0	2	0
107	667	7	10000	2	1	0	2	0
106	668	7	10000	2	1	0	2	0
105	669	7	10000	2	1	0	2	0
106	670	7	10000	2	1	0	2	0
106	671	7	10000	2	1	0	2	0
106	672	7	10000	2	1	0	2	0
104	673	7	10000	2	1	0	2	0
102	674	7	10000	2	1	0	2	0
101	675	7	10000	2	1	0	2	0
99	676	7	10000	2	1	0	2	0
97	677	7	10000	2	1	0	2	0
94	678	7	10000	2	1	0	2	0
93	679	7	10000	2	1	0	2	0
91	680	7	10000	2	1	0	2	0
90	681	7	10000	2	1	0	2	0
88	682	7	10000	2	1	0	2	0
87	683	7	10000	2	1	0	2	0
86	684	7	10000	2	1	0	2	0
84	685	7	10000	2	1	0	2	0
81	686	7	10000	2	1	0	2	0
78	687	7	10000	2	1	0	2	0
76	688	7	10000	2	1	0	2	0
73	700	7	10000	2	1	0	2	0
70	701	7	10000	2	1	0	2	0
69	702	7	10000	2	1	0	2	0
67	703	7	10000	2	1	0	2	0
66	704	7	10000	2	1	0	2	0
63	705	7	10000	2	1	0	2	0
61	706	7	10000	2	1	0	2	0
60	707	7	10000	2	1	0	2	0
57	708	7	10000	2	1	0	2	0
54	709	7	10000	2	1	0	2	0
52	710	7	10000	2	1	0	2	0
51	711	7	10000	2	1	0	2	0
49	709	7	10000	2	1	0	2	0
48	710	7	10000	2	1	0	2	0
47	711	7	10000	2	1	0	2	0
46	712	7	10000	2	1	0	2	0
46	713	7	10000	2	1	0	2	0
48	714	7	10000	2	1	0	2	0
50	715	7	10000	2	1	0	2	0
50	716	7	10000	2	1	0	2	0
49	717	7	10000	2	1	0	2	0
48	718	7	10000	2	1	0	2	0
47	720	7	10000	2	1	0	2	0
46	721	7	10000	2	1	0	2	0
44	722	7	10000	2	1	0	2	0
42	723	7	10000	2	1	0	2	0
41	724	7	10000	2	1	0	2	0
40	725	7	10000	2	1	0	2	0
40	726	7	10000	2	1	0	2	0
37	727	7	10000	2	1	0	2	0
36	728	7	10000	2	1	0	2	0
37	729	7	10000	2	1	0	2	0
39	725	7	10000	2	1	0	2	0
40	726	7	10000	2	1	0	2	0
39	727	7	10000	2	1	0	2	0
41	728	7	10000	2	1	0	2	0
42	729	7	10000	2	1	0	2	0
43	730	7	10000	2	1	0	2	0
43	730	7	10000	2	1	0	2	0
46	731	7	10000	2	1	0	2	0
47	732	7	10000	2	1	0	2	0
48	733	7	10000	2	1	0	2	0
47	731	7	10000	2	1	0	2	0
47	732	7	10000	2	1	0	2	0
50	733	7	10000	2	1	0	2	0
52	734	7	10000	2	1	0	2	0
52	735	7	10000	2	1	0	2	0
51	736	7	10000	2	1	0	2	0
51	737	7	10000	2	1	0	2	0
49	738	7	10000	2	1	0	2	0
50	739	7	10000	2	1	0	2	0
52	740	7	10000	2	1	0	2	0
59	741	7	10000	2	1	0	2	0
68	742	7	10000	2	1	0	2	0
76	743	7	10000	2	1	0	2	0
79	744	7	10000	2	1	0	2	0
79	745	7	10000	2	1	0	2	0
76	746	7	10000	2	1	0	2	0
72	747	7	10000	2	1	0	2	0
71	748	7	10000	2	1	0	2	0
68	749	7	10000	2	1	0	2	0
66	750	7	10000	2	1	0	2	0
69	751	7	10000	2	1	0	2	0
76	752	7	10000	2	1	0	2	0
80	753	7	10000	2	1	0	2	0
77	754	7	10000	2	1	0	2	0
74	755	7	10000	2	1	0	2	0
73	756	7	10000	2	1	0	2	0
72	757	7	10000	2	1	0	2	0
67	758	7	10000	2	1	0	2	0
65	759	7	10000	2	1	0	2	0
65	760	7	10000	2	1	0	2	0
66	761	7	10000	2	1	0	2	0
67	762	7	10000	2	1	0	2	0
72	763	7	10000	2	1	0	2	0
73	764	7	10000	2	1	0	2	0
71	765	7	10000	2	1	0	2	0
69	766	7	10000	2	1	0	2	0
70	767	7	10000	2	1	0	2	0
73	768	7	10000	2	1	0	2	0
75	769	7	10000	2	1	0	2	0
79	770	7	10000	2	1	0	2	0
81	771	7	10000	2	1	0	2	0
82	772	7	10000	2	1	0	2	0
81	773	7	10000	2	1	0	2	0
78	774	7	10000	2	1	0	2	0
77	775	7	10000	2	1	0	2	0
75	776	7	10000	2	1	0	2	0
76	777	7	10000	2	1	0	2	0
77	778	7	10000	2	1	0	2	0
79	779	7	10000	2	1	0	2	0
80	780	7	10000	2	1	0	2	0
82	781	7	10000	2	1	0	2	0
80	782	7	10000	2	1	0	2	0
78	783	7	10000	2	1	0	2	0
75	784	7	10000	2	1	0	2	0
76	785	7	10000	2	1	0	2	0
79	786	7	10000	2	1	0	2	0
80	787	7	10000	2	1	0	2	0
83	788	7	10000	2	1	0	2	0
82	789	7	10000	2	1	0	2	0
81	790	7	10000	2	1	0	2	0
81	791	7	10000	2	1	0	2	0
78	792	7	10000	2	1	0	2	0
75	793	7	10000	2	1	0	2	0
73	794	7	10000	2	1	0	2	0
77	795	7	10000	2	1	0	2	0
87	796	7	10000	2	1	0	2	0
91	797	7	10000	2	1	0	2	0
88	798	7	10000	2	1	0	2	0
88	799	7	10000	2	1	0	2	0
91	800	7	10000	2	1	0	2	0
92	801	7	10000	2	1	0	2	0
92	802	7	10000	2	1	0	2	0
89	803	7	10000	2	1	0	2	0
85	804	7	10000	2	1	0	2	0
81	805	7	10000	2	1	0	2	0
80	806	7	10000	2	1	0	2	0
77	807	7	10000	2	1	0	2	0
77	808	7	10000	2	1	0	2	0
74	809	7	10000	2	1	0	2	0
71	810	7	10000	2	1	0	2	0
68	811	7	10000	2	1	0	2	0
66	812	7	10000	2	1	0	2	0
65	813	7	10000	2	1	0	2	0
65	814	7	10000	2	1	0	2	0
63	815	7	10000	2	1	0	2	0
60	816	7	10000	2	1	0	2	0
59	817	7	10000	2	1	0	2	0
54	818	7	10000	2	1	0	2	0
53	819	7	10000	2	1	0	2	0
52	820	7	10000	2	1	0	2	0
56	821	7	10000	2	1	0	2	0
62	822	7	10000	2	1	0	2	0
63	823	7	10000	2	1	0	2	0
62	824	7	10000	2	1	0	2	0
62	825	7	10000	2	1	0	2	0
63	826	7	10000	2	1	0	2	0
66	827	7	10000	2	1	0	2	0
71	828	7	10000	2	1	0	2	0
75	829	7	10000	2	1	0	2	0
76	830	7	10000	2	1	0	2	0
77	831	7	10000	2	1	0	2	0
77	832	7	10000	2	1	0	2	0
75	833	7	10000	2	1	0	2	0
72	834	7	10000	2	1	0	2	0
71	835	7	10000	2	1	0	2	0
69	836	7	10000	2	1	0	2	0
68	837	7	10000	2	1	0	2	0
65	838	7	10000	2	1	0	2	0
64	839	7	10000	2	1	0	2	0
62	840	7	10000	2	1	0	2	0
62	841	7	10000	2	1	0	2	0
60	842	7	10000	2	1	0	2	0
59	843	7	10000	2	1	0	2	0
57	844	7	10000	2	1	0	2	0
54	845	7	10000	2	1	0	2	0
53	846	7	10000	2	1	0	2	0
55	847	7	10000	2	1	0	2	0
58	848	7	10000	2	1	0	2	0
59	849	7	10000	2	1	0	2	0
56	850	7	10000	2	1	0	2	0
54	851	7	10000	2	1	0	2	0
56	852	7	10000	2	1	0	2	0
60	853	7	10000	2	1	0	2	0
65	854	7	10000	2	1	0	2	0
66	855	7	10000	2	1	0	2	0
64	856	7	10000	2	1	0	2	0
62	857	7	10000	2	1	0	2	0
58	858	7	10000	2	1	0	2	0
57	859	7	10000	2	1	0	2	0
55	860	7	10000	2	1	0	2	0
53	861	7	10000	2	1	0	2	0
54	862	7	10000	2	1	0	2	0
54	863	7	10000	2	1	0	2	0
52	864	7	10000	2	1	0	2	0
49	865	7	10000	2	1	0	2	0
48	866	7	10000	2	1	0	2	0
49	867	7	10000	2	1	0	2	0
52	868	7	10000	2	1	0	2	0
56	869	7	10000	2	1	0	2	0
61	870	7	10000	2	1	0	2	0
64	871	7	10000	2	1	0	2	0
63	872	7	10000	2	1	0	2	0
61	873	7	10000	2	1	0	2	0
60	874	7	10000	2	1	0	2	0
63	875	7	10000	2	1	0	2	0
69	876	7	10000	2	1	0	2	0
78	877	7	10000	2	1	0	2	0
83	878	7	10000	2	1	0	2	0
84	879	7	10000	2	1	0	2	0
81	880	7	10000	2	1	0	2	0
82	881	7	10000	2	1	0	2	0
83	882	7	10000	2	1	0	2	0
85	883	7	10000	2	1	0	2	0
88	884	7	10000	2	1	0	2	0
88	885	7	10000	2	1	0	2	0
87	886	7	10000	2	1	0	2	0
84	887	7	10000	2	1	0	2	0
83	888	7	10000	2	1	0	2	0
81	889	7	10000	2	1	0	2	0
79	890	7	10000	2	1	0	2	0
78	891	7	10000	2	1	0	2	0
76	892	7	10000	2	1	0	2	0
73	893	7	10000	2	1	0	2	0
71	894	7	10000	2	1	0	2	0
69	895	7	10000	2	1	0	2	0
68	896	7	10000	2	1	0	2	0
66	897	7	10000	2	1	0	2	0
62	898	7	10000	2	1	0	2	0
59	899	7	10000	2	1	0	2	0
57	900	7	10000	2	1	0	2	0
56	901	7	10000	2	1	0	2	0
56	902	7	10000	2	1	0	2	0
55	903	7	10000	2	1	0	2	0
53	904	7	10000	2	1	0	2	0
52	905	7	10000	2	1	0	2	0
55	906	7	10000	2	1	0	2	0
62	907	7	10000	2	1	0	2	0
73	908	7	10000	2	1	0	2	0
82	909	7	10000	2	1	0	2	0
87	910	7	10000	2	1	0	2	0
85	911	7	10000	2	1	0	2	0
87	912	7	10000	2	1	0	2	0
87	913	7	10000	2	1	0	2	0
83	914	7	10000	2	1	0	2	0
81	915	7	10000	2	1	0	2	0
79	916	7	10000	2	1	0	2	0
77	917	7	10000	2	1	0	2	0
74	918	7	10000	2	1	0	2	0
72	919	7	10000	2	1	0	2	0
74	920	7	10000	2	1	0	2	0
77	921	7	10000	2	1	0	2	0
76	922	7	10000	2	1	0	2	0
75	923	7	10000	2	1	0	2	0
77	924	7	10000	2	1	0	2	0
76	925	7	10000	2	1	0	2	0
73	926	7	10000	2	1	0	2	0
70	927	7	10000	2	1	0	2	0
69	928	7	10000	2	1	0	2	0
66	929	7	10000	2	1	0	2	0
65	930	7	10000	2	1	0	2	0
70	931	7	10000	2	1	0	2	0
77	932	7	10000	2	1	0	2	0
83	933	7	10000	2	1	0	2	0
83	934	7	10000	2	1	0	2	0
83	935	7	10000	2	1	0	2	0
85	936	7	10000	2	1	0	2	0
89	937	7	10000	2	1	0	2	0
87	938	7	10000	2	1	0	2	0
84	939	7	10000	2	1	0	2	0
84	940	7	10000	2	1	0	2	0
86	941	7	10000	2	1	0	2	0
91	942	7	10000	2	1	0	2	0
103	943	7	10000	2	1	0	2	0
108	944	7	10000	2	1	0	2	0
105	945	7	10000	2	1	0	2	0
104	946	7	10000	2	1	0	2	0
104	947	7	10000	2	1	0	2	0
102	948	7	10000	2	1	0	2	0
98	949	7	10000	2	1	0	2	0
97	950	7	10000	2	1	0	2	0
95	951	7	10000	2	1	0	2	0
91	952	7	10000	2	1	0	2	0
90	953	7	10000	2	1	0	2	0
90	954	7	10000	2	1	0	2	0
89	955	7	10000	2	1	0	2	0
87	956	7	10000	2	1	0	2	0
85	957	7	10000	2	1	0	2	0
80	958	7	10000	2	1	0	2	0
77	959	7	10000	2	1	0	2	0
77	960	7	10000	2	1	0	2	0
79	961	7	10000	2	1	0	2	0
77	962	7	10000	2	1	0	2	0
74	963	7	10000	2	1	0	2	0
73	964	7	10000	2	1	0	2	0
72	965	7	10000	2	1	0	2	0
69	966	7	10000	2	1	0	2	0
66	967	7	10000	2	1	0	2	0
65	968	7	10000	2	1	0	2	0
65	969	7	10000	2	1	0	2	0
64	970	7	10000	2	1	0	2	0
67	971	7	10000	2	1	0	2	0
69	972	7	10000	2	1	0	2	0
68	973	7	10000	2	1	0	2	0
68	974	7	10000	2	1	0	2	0
70	975	7	10000	2	1	0	2	0
75	976	7	10000	2	1	0	2	0
80	977	7	10000	2	1	0	2	0
82	978	7	10000	2	1	0	2	0
84	979	7	10000	2	1	0	2	0
84	980	7	10000	2	1	0	2	0
86	981	7	10000	2	1	0	2	0
90	982	7	10000	2	1	0	2	0
87	983	7	10000	2	1	0	2	0
87	984	7	10000	2	1	0	2	0
86	985	7	10000	2	1	0	2	0
86	986	7	10000	2	1	0	2	0
84	987	7	10000	2	1	0	2	0
82	988	7	10000	2	1	0	2	0
79	989	7	10000	2	1	0	2	0
77	990	7	10000	2	1	0	2	0
76	991	7	10000	2	1	0	2	0
76	992	7	10000	2	1	0	2	0
75	993	7	10000	2	1	0	2	0
73	994	7	10000	2	1	0	2	0
73	995	7	10000	2	1	0	2	0
74	996	7	10000	2	1	0	2	0
74	997	7	10000	2	1	0	2	0
71	998	7	10000	2	1	0	2	0
73	999	7	10000	2	1	0	2	0
76	1000	7	10000	2	1	0	2	0
141	2	0	10000	3	1	0	3	0
156	3	0	10000	3	1	0	3	0
167	4	0	10000	3	1	0	3	0
163	5	0	10000	3	1	0	3	0
167	6	0	10000	3	1	0	3	0
181	7	0	10000	3	1	0	3	0
184	8	0	10000	3	1	0	3	0
185	9	0	10000	3	1	0	3	0
186	10	0	10000	3	1	0	3	0
185	11	0	10000	3	1	0	3	0
176	12	0	10000	3	1	0	3	0
169	13	0	10000	3	1	0	3	0
163	14	0	10000	3	1	0	3	0
158	15	0	10000	3	1	0	3	0
155	16	0	10000	3	1	0	3	0
149	17	0	10000	3	1	0	3	0
149	18	0	10000	3	1	0	3	0
145	19	0	10000	3	1	0	3	0
139	20	0	10000	3	1	0	3	0
137	21	0	10000	3	1	0	3	0
142	21	0	10000	3	1	0	3	0
151	22	0	10000	3	1	0	3	0
154	24	0	10000	3	1	0	3	0
152	25	0	10000	3	1	0	3	0
154	26	0	10000	3	1	0	3	0
167	27	0	10000	3	1	0	3	0
171	28	0	10000	3	1	0	3	0
164	29	0	10000	3	1	0	3	0
159	30	0	10000	3	1	0	3	0
165	31	0	10000	3	1	0	3	0
178	31	0	10000	3	1	0	3	0
189	32	0	10000	3	1	0	3	0
196	34	0	10000	3	1	0	3	0
194	35	0	10000	3	1	0	3	0
185	36	0	10000	3	1	0	3	0
176	37	0	10000	3	1	0	3	0
172	38	0	10000	3	1	0	3	0
173	39	0	10000	3	1	0	3	0
172	40	0	10000	3	1	0	3	0
166	41	0	10000	3	1	0	3	0
160	41	0	10000	3	1	0	3	0
153	42	0	10000	3	1	0	3	0
148	44	0	10000	3	1	0	3	0
147	45	0	10000	3	1	0	3	0
151	46	0	10000	3	1	0	3	0
154	47	0	10000	3	1	0	3	0
149	48	0	10000	3	1	0	3	0
153	49	0	10000	3	1	0	3	0
152	50	0	10000	3	1	0	3	0
154	51	0	10000	3	1	0	3	0
162	51	0	10000	3	1	0	3	0
169	52	0	10000	3	1	0	3	0
168	54	0	10000	3	1	0	3	0
162	55	0	10000	3	1	0	3	0
154	56	0	10000	3	1	0	3	0
150	57	0	10000	3	1	0	3	0
146	58	0	10000	3	1	0	3	0
146	59	0	10000	3	1	0	3	0
147	60	0	10000	3	1	0	3	0
146	61	0	10000	3	1	0	3	0
146	61	0	10000	3	1	0	3	0
148	62	0	10000	3	1	0	3	0
152	64	0	10000	3	1	0	3	0
151	65	0	10000	3	1	0	3	0
149	66	0	10000	3	1	0	3	0
151	67	0	10000	3	1	0	3	0
149	68	0	10000	3	1	0	3	0
150	69	0	10000	3	1	0	3	0
146	70	0	10000	3	1	0	3	0
146	71	0	10000	3	1	0	3	0
149	71	0	10000	3	1	0	3	0
149	72	0	10000	3	1	0	3	0
164	74	0	10000	3	1	0	3	0
173	75	0	10000	3	1	0	3	0
175	76	0	10000	3	1	0	3	0
180	77	0	10000	3	1	0	3	0
178	78	0	10000	3	1	0	3	0
185	79	0	10000	3	1	0	3	0
191	80	0	10000	3	1	0	3	0
193	81	0	10000	3	1	0	3	0
200	81	0	10000	3	1	0	3	0
203	82	0	10000	3	1	0	3	0
204	84	0	10000	3	1	0	3	0
198	85	0	10000	3	1	0	3	0
191	86	0	10000	3	1	0	3	0
185	87	0	10000	3	1	0	3	0
177	88	0	10000	3	1	0	3	0
170	89	0	10000	3	1	0	3	0
166	90	0	10000	3	1	0	3	0
166	91	0	10000	3	1	0	3	0
170	91	0	10000	3	1	0	3	0
168	92	0	10000	3	1	0	3	0
164	94	0	10000	3	1	0	3	0
164	95	0	10000	3	1	0	3	0
160	96	0	10000	3	1	0	3	0
156	97	0	10000	3	1	0	3	0
152	98	0	10000	3	1	0	3	0
146	99	0	10000	3	1	0	3	0
141	100	0	10000	3	1	0	3	0
137	101	0	10000	3	1	0	3	0
132	101	0	10000	3	1	0	3	0
128	102	0	10000	3	1	0	3	0
127	104	0	10000	3	1	0	3	0
123	105	0	10000	3	1	0	3	0
118	106	0	10000	3	1	0	3	0
114	107	0	10000	3	1	0	3	0
112	108	0	10000	3	1	0	3	0
108	109	0	10000	3	1	0	3	0
107	110	0	10000	3	1	0	3	0
107	111	0	10000	3	1	0	3	0
106	111	0	10000	3	1	0	3	0
104	112	0	10000	3	1	0	3	0
101	114	0	10000	3	1	0	3	0
98	115	0	10000	3	1	0	3	0
105	116	0	10000	3	1	0	3	0
134	117	0	10000	3	1	0	3	0
151	118	0	10000	3	1	0	3	0
156	119	0	10000	3	1	0	3	0
185	120	0	10000	3	1	0	3	0
210	121	0	10000	3	1	0	3	0
219	121	0	10000	3	1	0	3	0
214	122	0	10000	3	1	0	3	0
206	124	0	10000	3	1	0	3	0
198	125	0	10000	3	1	0	3	0
192	126	0	10000	3	1	0	3	0
189	127	0	10000	3	1	0	3	0
186	128	0	10000	3	1	0	3	0
181	129	0	10000	3	1	0	3	0
180	130	0	10000	3	1	0	3	0
182	131	0	10000	3	1	0	3	0
182	131	0	10000	3	1	0	3	0
176	132	0	10000	3	1	0	3	0
173	134	0	10000	3	1	0	3	0
171	135	0	10000	3	1	0	3	0
166	136	0	10000	3	1	0	3	0
158	137	0	10000	3	1	0	3	0
156	138	0	10000	3	1	0	3	0
164	139	0	10000	3	1	0	3	0
182	140	0	10000	3	1	0	3	0
199	141	0	10000	3	1	0	3	0
199	141	0	10000	3	1	0	3	0
201	142	0	10000	3	1	0	3	0
211	144	0	10000	3	1	0	3	0
211	145	0	10000	3	1	0	3	0
205	146	0	10000	3	1	0	3	0
206	147	0	10000	3	1	0	3	0
209	148	0	10000	3	1	0	3	0
201	149	0	10000	3	1	0	3	0
196	150	0	10000	3	1	0	3	0
200	151	0	10000	3	1	0	3	0
199	151	0	10000	3	1	0	3	0
192	152	0	10000	3	1	0	3	0
193	154	0	10000	3	1	0	3	0
194	155	0	10000	3	1	0	3	0
194	156	0	10000	3	1	0	3	0
195	157	0	10000	3	1	0	3	0
188	158	0	10000	3	1	0	3	0
184	159	0	10000	3	1	0	3	0
182	160	0	10000	3	1	0	3	0
181	161	0	10000	3	1	0	3	0
179	161	0	10000	3	1	0	3	0
177	162	0	10000	3	1	0	3	0
173	164	0	10000	3	1	0	3	0
169	165	0	10000	3	1	0	3	0
181	166	0	10000	3	1	0	3	0
192	167	0	10000	3	1	0	3	0
188	168	0	10000	3	1	0	3	0
193	169	0	10000	3	1	0	3	0
198	170	0	10000	3	1	0	3	0
199	171	0	10000	3	1	0	3	0
197	171	0	10000	3	1	0	3	0
192	172	0	10000	3	1	0	3	0
195	174	0	10000	3	1	0	3	0
189	175	0	10000	3	1	0	3	0
186	176	0	10000	3	1	0	3	0
182	177	0	10000	3	1	0	3	0
176	178	0	10000	3	1	0	3	0
169	179	0	10000	3	1	0	3	0
170	180	0	10000	3	1	0	3	0
169	181	0	10000	3	1	0	3	0
169	181	0	10000	3	1	0	3	0
164	182	0	10000	3	1	0	3	0
159	184	0	10000	3	1	0	3	0
166	185	0	10000	3	1	0	3	0
183	186	0	10000	3	1	0	3	0
181	187	0	10000	3	1	0	3	0
176	188	0	10000	3	1	0	3	0
169	189	0	10000	3	1	0	3	0
164	190	0	10000	3	1	0	3	0
159	191	0	10000	3	1	0	3	0
152	191	0	10000	3	1	0	3	0
152	192	0	10000	3	1	0	3	0
158	194	0	10000	3	1	0	3	0
157	195	0	10000	3	1	0	3	0
151	196	0	10000	3	1	0	3	0
148	197	0	10000	3	1	0	3	0
156	198	0	10000	3	1	0	3	0
164	199	0	10000	3	1	0	3	0
171	200	0	10000	3	1	0	3	0
172	201	0	10000	3	1	0	3	0
166	201	0	10000	3	1	0	3	0
164	202	0	10000	3	1	0	3	0
163	204	0	10000	3	1	0	3	0
170	205	0	10000	3	1	0	3	0
183	206	0	10000	3	1	0	3	0
184	207	0	10000	3	1	0	3	0
180	208	0	10000	3	1	0	3	0
176	209	0	10000	3	1	0	3	0
177	210	0	10000	3	1	0	3	0
189	211	0	10000	3	1	0	3	0
198	211	0	10000	3	1	0	3	0
195	212	0	10000	3	1	0	3	0
195	214	0	10000	3	1	0	3	0
191	215	0	10000	3	1	0	3	0
190	216	0	10000	3	1	0	3	0
191	217	0	10000	3	1	0	3	0
185	218	0	10000	3	1	0	3	0
181	219	0	10000	3	1	0	3	0
175	220	0	10000	3	1	0	3	0
166	221	0	10000	3	1	0	3	0
161	221	0	10000	3	1	0	3	0
155	222	0	10000	3	1	0	3	0
148	224	0	10000	3	1	0	3	0
144	225	0	10000	3	1	0	3	0
148	226	0	10000	3	1	0	3	0
155	227	0	10000	3	1	0	3	0
151	228	0	10000	3	1	0	3	0
148	229	0	10000	3	1	0	3	0
153	230	0	10000	3	1	0	3	0
157	231	0	10000	3	1	0	3	0
156	231	0	10000	3	1	0	3	0
152	232	0	10000	3	1	0	3	0
154	234	0	10000	3	1	0	3	0
155	235	0	10000	3	1	0	3	0
150	236	0	10000	3	1	0	3	0
147	237	0	10000	3	1	0	3	0
140	238	0	10000	3	1	0	3	0
138	239	0	10000	3	1	0	3	0
149	240	0	10000	3	1	0	3	0
163	241	0	10000	3	1	0	3	0
164	241	0	10000	3	1	0	3	0
166	242	0	10000	3	1	0	3	0
176	244	0	10000	3	1	0	3	0
173	245	0	10000	3	1	0	3	0
178	246	0	10000	3	1	0	3	0
177	247	0	10000	3	1	0	3	0
186	248	0	10000	3	1	0	3	0
204	249	0	10000	3	1	0	3	0
213	250	0	10000	3	1	0	3	0
206	251	0	10000	3	1	0	3	0
198	251	0	10000	3	1	0	3	0
189	252	0	10000	3	1	0	3	0
181	254	0	10000	3	1	0	3	0
176	255	0	10000	3	1	0	3	0
169	256	0	10000	3	1	0	3	0
161	257	0	10000	3	1	0	3	0
158	258	0	10000	3	1	0	3	0
156	259	0	10000	3	1	0	3	0
155	260	0	10000	3	1	0	3	0
149	261	0	10000	3	1	0	3	0
148	261	0	10000	3	1	0	3	0
146	262	0	10000	3	1	0	3	0
147	264	0	10000	3	1	0	3	0
146	265	0	10000	3	1	0	3	0
151	266	0	10000	3	1	0	3	0
150	267	0	10000	3	1	0	3	0
145	268	0	10000	3	1	0	3	0
142	269	0	10000	3	1	0	3	0
143	270	0	10000	3	1	0	3	0
140	271	0	10000	3	1	0	3	0
146	271	0	10000	3	1	0	3	0
152	272	0	10000	3	1	0	3	0
155	274	0	10000	3	1	0	3	0
153	275	0	10000	3	1	0	3	0
145	276	0	10000	3	1	0	3	0
138	277	0	10000	3	1	0	3	0
132	278	0	10000	3	1	0	3	0
129	279	0	10000	3	1	0	3	0
134	280	0	10000	3	1	0	3	0
139	281	0	10000	3	1	0	3	0
151	281	0	10000	3	1	0	3	0
163	282	0	10000	3	1	0	3	0
161	284	0	10000	3	1	0	3	0
171	285	0	10000	3	1	0	3	0
185	286	0	10000	3	1	0	3	0
196	287	0	10000	3	1	0	3	0
202	288	0	10000	3	1	0	3	0
203	289	0	10000	3	1	0	3	0
195	290	0	10000	3	1	0	3	0
188	291	0	10000	3	1	0	3	0
180	291	0	10000	3	1	0	3	0
176	292	0	10000	3	1	0	3	0
174	294	0	10000	3	1	0	3	0
178	295	0	10000	3	1	0	3	0
173	296	0	10000	3	1	0	3	0
173	297	0	10000	3	1	0	3	0
169	298	0	10000	3	1	0	3	0
164	299	0	10000	3	1	0	3	0
163	300	0	10000	3	1	0	3	0
158	301	0	10000	3	1	0	3	0
151	301	0	10000	3	1	0	3	0
144	302	0	10000	3	1	0	3	0
138	304	0	10000	3	1	0	3	0
138	305	0	10000	3	1	0	3	0
145	306	0	10000	3	1	0	3	0
146	307	0	10000	3	1	0	3	0
145	308	0	10000	3	1	0	3	0
151	309	0	10000	3	1	0	3	0
152	310	0	10000	3	1	0	3	0
148	311	0	10000	3	1	0	3	0
144	311	0	10000	3	1	0	3	0
143	312	0	10000	3	1	0	3	0
145	314	0	10000	3	1	0	3	0
142	315	0	10000	3	1	0	3	0
144	316	0	10000	3	1	0	3	0
150	317	0	10000	3	1	0	3	0
163	318	0	10000	3	1	0	3	0
172	319	0	10000	3	1	0	3	0
170	320	0	10000	3	1	0	3	0
166	321	0	10000	3	1	0	3	0
168	321	0	10000	3	1	0	3	0
171	322	0	10000	3	1	0	3	0
167	324	0	10000	3	1	0	3	0
160	325	0	10000	3	1	0	3	0
160	326	0	10000	3	1	0	3	0
158	327	0	10000	3	1	0	3	0
157	328	0	10000	3	1	0	3	0
156	329	0	10000	3	1	0	3	0
155	330	0	10000	3	1	0	3	0
157	331	0	10000	3	1	0	3	0
158	331	0	10000	3	1	0	3	0
160	332	0	10000	3	1	0	3	0
162	334	0	10000	3	1	0	3	0
160	335	0	10000	3	1	0	3	0
158	336	0	10000	3	1	0	3	0
157	337	0	10000	3	1	0	3	0
156	338	0	10000	3	1	0	3	0
170	339	0	10000	3	1	0	3	0
170	340	0	10000	3	1	0	3	0
179	341	0	10000	3	1	0	3	0
184	341	0	10000	3	1	0	3	0
180	342	0	10000	3	1	0	3	0
183	344	0	10000	3	1	0	3	0
184	345	0	10000	3	1	0	3	0
186	346	0	10000	3	1	0	3	0
191	347	0	10000	3	1	0	3	0
196	348	0	10000	3	1	0	3	0
202	349	0	10000	3	1	0	3	0
205	350	0	10000	3	1	0	3	0
201	351	0	10000	3	1	0	3	0
194	351	0	10000	3	1	0	3	0
194	352	0	10000	3	1	0	3	0
202	354	0	10000	3	1	0	3	0
209	355	0	10000	3	1	0	3	0
206	356	0	10000	3	1	0	3	0
197	357	0	10000	3	1	0	3	0
194	358	0	10000	3	1	0	3	0
195	359	0	10000	3	1	0	3	0
189	360	0	10000	3	1	0	3	0
187	361	0	10000	3	1	0	3	0
183	361	0	10000	3	1	0	3	0
175	362	0	10000	3	1	0	3	0
169	364	0	10000	3	1	0	3	0
162	365	0	10000	3	1	0	3	0
159	366	0	10000	3	1	0	3	0
162	367	0	10000	3	1	0	3	0
165	368	0	10000	3	1	0	3	0
162	369	0	10000	3	1	0	3	0
157	370	0	10000	3	1	0	3	0
156	371	0	10000	3	1	0	3	0
153	371	0	10000	3	1	0	3	0
154	372	0	10000	3	1	0	3	0
154	374	0	10000	3	1	0	3	0
164	375	0	10000	3	1	0	3	0
167	376	0	10000	3	1	0	3	0
168	377	0	10000	3	1	0	3	0
185	378	0	10000	3	1	0	3	0
201	379	0	10000	3	1	0	3	0
219	380	0	10000	3	1	0	3	0
229	381	0	10000	3	1	0	3	0
228	381	0	10000	3	1	0	3	0
219	382	0	10000	3	1	0	3	0
216	384	0	10000	3	1	0	3	0
213	385	0	10000	3	1	0	3	0
208	386	0	10000	3	1	0	3	0
200	387	0	10000	3	1	0	3	0
190	388	0	10000	3	1	0	3	0
181	389	0	10000	3	1	0	3	0
174	390	0	10000	3	1	0	3	0
168	391	0	10000	3	1	0	3	0
171	391	0	10000	3	1	0	3	0
181	392	0	10000	3	1	0	3	0
197	394	0	10000	3	1	0	3	0
205	395	0	10000	3	1	0	3	0
197	396	0	10000	3	1	0	3	0
194	397	0	10000	3	1	0	3	0
189	398	0	10000	3	1	0	3	0
185	399	0	10000	3	1	0	3	0
177	400	0	10000	3	1	0	3	0
170	401	0	10000	3	1	0	3	0
166	401	0	10000	3	1	0	3	0
167	402	0	10000	3	1	0	3	0
167	404	0	10000	3	1	0	3	0
163	405	0	10000	3	1	0	3	0
163	406	0	10000	3	1	0	3	0
165	407	0	10000	3	1	0	3	0
161	408	0	10000	3	1	0	3	0
161	409	0	10000	3	1	0	3	0
172	410	0	10000	3	1	0	3	0
184	411	0	10000	3	1	0	3	0
188	411	0	10000	3	1	0	3	0
183	412	0	10000	3	1	0	3	0
181	414	0	10000	3	1	0	3	0
183	415	0	10000	3	1	0	3	0
183	416	0	10000	3	1	0	3	0
180	417	0	10000	3	1	0	3	0
183	418	0	10000	3	1	0	3	0
190	419	0	10000	3	1	0	3	0
186	420	0	10000	3	1	0	3	0
184	421	0	10000	3	1	0	3	0
180	421	0	10000	3	1	0	3	0
176	422	0	10000	3	1	0	3	0
177	424	0	10000	3	1	0	3	0
171	425	0	10000	3	1	0	3	0
170	426	0	10000	3	1	0	3	0
179	427	0	10000	3	1	0	3	0
186	428	0	10000	3	1	0	3	0
182	429	0	10000	3	1	0	3	0
185	430	0	10000	3	1	0	3	0
199	431	0	10000	3	1	0	3	0
199	431	0	10000	3	1	0	3	0
202	432	0	10000	3	1	0	3	0
217	434	0	10000	3	1	0	3	0
232	435	0	10000	3	1	0	3	0
231	436	0	10000	3	1	0	3	0
221	437	0	10000	3	1	0	3	0
219	438	0	10000	3	1	0	3	0
225	439	0	10000	3	1	0	3	0
222	440	0	10000	3	1	0	3	0
216	441	0	10000	3	1	0	3	0
216	441	0	10000	3	1	0	3	0
211	442	0	10000	3	1	0	3	0
205	444	0	10000	3	1	0	3	0
211	445	0	10000	3	1	0	3	0
217	446	0	10000	3	1	0	3	0
213	447	0	10000	3	1	0	3	0
203	448	0	10000	3	1	0	3	0
199	449	0	10000	3	1	0	3	0
199	450	0	10000	3	1	0	3	0
192	451	0	10000	3	1	0	3	0
184	451	0	10000	3	1	0	3	0
176	452	0	10000	3	1	0	3	0
171	454	0	10000	3	1	0	3	0
168	455	0	10000	3	1	0	3	0
163	456	0	10000	3	1	0	3	0
157	457	0	10000	3	1	0	3	0
150	458	0	10000	3	1	0	3	0
147	459	0	10000	3	1	0	3	0
149	460	0	10000	3	1	0	3	0
146	461	0	10000	3	1	0	3	0
147	461	0	10000	3	1	0	3	0
152	462	0	10000	3	1	0	3	0
168	464	0	10000	3	1	0	3	0
168	465	0	10000	3	1	0	3	0
172	466	0	10000	3	1	0	3	0
177	467	0	10000	3	1	0	3	0
181	468	0	10000	3	1	0	3	0
181	469	0	10000	3	1	0	3	0
182	470	0	10000	3	1	0	3	0
178	471	0	10000	3	1	0	3	0
170	471	0	10000	3	1	0	3	0
169	472	0	10000	3	1	0	3	0
167	474	0	10000	3	1	0	3	0
162	475	0	10000	3	1	0	3	0
157	476	0	10000	3	1	0	3	0
162	477	0	10000	3	1	0	3	0
181	478	0	10000	3	1	0	3	0
192	479	0	10000	3	1	0	3	0
188	480	0	10000	3	1	0	3	0
190	481	0	10000	3	1	0	3	0
193	481	0	10000	3	1	0	3	0
194	482	0	10000	3	1	0	3	0
192	484	0	10000	3	1	0	3	0
189	485	0	10000	3	1	0	3	0
184	486	0	10000	3	1	0	3	0
177	487	0	10000	3	1	0	3	0
173	488	0	10000	3	1	0	3	0
165	489	0	10000	3	1	0	3	0
159	490	0	10000	3	1	0	3	0
155	491	0	10000	3	1	0	3	0
150	491	0	10000	3	1	0	3	0
149	492	0	10000	3	1	0	3	0
144	494	0	10000	3	1	0	3	0
138	495	0	10000	3	1	0	3	0
134	496	0	10000	3	1	0	3	0
135	497	0	10000	3	1	0	3	0
133	498	0	10000	3	1	0	3	0
128	499	0	10000	3	1	0	3	0
128	500	0	10000	3	1	0	3	0
129	501	0	10000	3	1	0	3	0
129	502	0	10000	3	1	0	3	1
129	503	0	10000	3	1	0	3	1
129	504	0	10000	3	1	0	3	1
125	505	0	10000	3	1	0	3	1
127	506	0	10000	3	1	0	3	1
133	507	0	10000	3	1	0	3	1
133	508	0	10000	3	1	0	3	1
128	509	0	10000	3	1	0	3	1
125	510	0	10000	3	1	0	3	1
124	511	0	10000	3	1	0	3	1
119	511	0	10000	3	1	0	3	1
118	512	0	10000	3	1	0	3	1
116	514	0	10000	3	1	0	3	1
119	515	0	10000	3	1	0	3	1
127	516	0	10000	3	1	0	3	1
129	517	0	10000	3	1	0	3	1
128	518	0	10000	3	1	0	3	1
130	519	0	10000	3	1	0	3	1
127	520	0	10000	3	1	0	3	1
127	521	0	10000	3	1	0	3	1
123	521	0	10000	3	1	0	3	1
120	522	0	10000	3	1	0	3	1
117	524	0	10000	3	1	0	3	1
113	525	0	10000	3	1	0	3	1
112	526	0	10000	3	1	0	3	1
110	527	0	10000	3	1	0	3	1
107	528	0	10000	3	1	0	3	1
103	529	0	10000	3	1	0	3	1
99	530	0	10000	3	1	0	3	1
96	531	0	10000	3	1	0	3	1
93	531	0	10000	3	1	0	3	1
92	532	0	10000	3	1	0	3	1
89	534	0	10000	3	1	0	3	1
90	535	0	10000	3	1	0	3	1
97	536	0	10000	3	1	0	3	1
106	537	0	10000	3	1	0	3	1
113	538	0	10000	3	1	0	3	1
117	539	0	10000	3	1	0	3	1
119	540	0	10000	3	1	0	3	1
117	541	0	10000	3	1	0	3	1
127	541	0	10000	3	1	0	3	1
135	542	0	10000	3	1	0	3	1
131	544	0	10000	3	1	0	3	1
127	545	0	10000	3	1	0	3	1
124	546	0	10000	3	1	0	3	1
121	547	0	10000	3	1	0	3	1
116	548	0	10000	3	1	0	3	1
113	549	0	10000	3	1	0	3	1
108	550	0	10000	3	1	0	3	1
107	551	0	10000	3	1	0	3	1
109	551	0	10000	3	1	0	3	0
115	552	0	10000	3	1	0	3	0
116	554	0	10000	3	1	0	3	0
113	555	0	10000	3	1	0	3	0
107	556	0	10000	3	1	0	3	0
108	557	0	10000	3	1	0	3	0
109	558	0	10000	3	1	0	3	0
110	559	0	10000	3	1	0	3	0
108	560	0	10000	3	1	0	3	0
115	561	0	10000	3	1	0	3	0
121	561	0	10000	3	1	0	3	0
120	562	0	10000	3	1	0	3	0
115	564	0	10000	3	1	0	3	0
115	565	0	10000	3	1	0	3	0
122	566	0	10000	3	1	0	3	0
130	567	0	10000	3	1	0	3	0
136	568	0	10000	3	1	0	3	0
132	569	0	10000	3	1	0	3	0
138	570	0	10000	3	1	0	3	0
144	571	0	10000	3	1	0	3	0
146	571	0	10000	3	1	0	3	0
162	572	0	10000	3	1	0	3	0
161	574	0	10000	3	1	0	3	0
169	575	0	10000	3	1	0	3	0
178	576	0	10000	3	1	0	3	0
180	577	0	10000	3	1	0	3	0
174	578	0	10000	3	1	0	3	0
169	579	0	10000	3	1	0	3	0
163	580	0	10000	3	1	0	3	0
164	581	0	10000	3	1	0	3	0
170	581	0	10000	3	1	0	3	0
168	582	0	10000	3	1	0	3	0
162	584	0	10000	3	1	0	3	0
157	585	0	10000	3	1	0	3	0
156	586	0	10000	3	1	0	3	0
160	587	0	10000	3	1	0	3	0
167	588	0	10000	3	1	0	3	0
184	589	0	10000	3	1	0	3	0
204	590	0	10000	3	1	0	3	0
205	591	0	10000	3	1	0	3	0
209	591	0	10000	3	1	0	3	0
218	592	0	10000	3	1	0	3	0
232	594	0	10000	3	1	0	3	0
261	595	0	10000	3	1	0	3	0
350	596	0	10000	3	1	0	3	0
431	597	0	10000	3	1	0	3	0
425	598	0	10000	3	1	0	3	0
427	599	0	10000	3	1	0	3	0
425	600	0	10000	3	1	0	3	0
483	601	0	10000	3	1	0	3	0
576	601	0	10000	3	1	0	3	0
659	602	0	10000	3	1	0	3	0
649	604	0	10000	3	1	0	3	0
656	605	0	10000	3	1	0	3	0
649	606	0	10000	3	1	0	3	0
632	607	0	10000	3	1	0	3	0
634	608	0	10000	3	1	0	3	0
652	609	0	10000	3	1	0	3	0
640	610	0	10000	3	1	0	3	0
685	611	0	10000	3	1	0	3	0
798	611	0	10000	3	1	0	3	0
864	612	0	10000	3	1	0	3	0
849	614	0	10000	3	1	0	3	0
882	615	0	10000	3	1	0	3	0
936	616	0	10000	3	1	0	3	0
960	617	0	10000	3	1	0	3	0
956	618	0	10000	3	1	0	3	0
928	619	0	10000	3	1	0	3	0
888	620	0	10000	3	1	0	3	0
860	621	0	10000	3	1	0	3	0
840	621	0	10000	3	1	0	3	0
822	622	0	10000	3	1	0	3	0
803	624	0	10000	3	1	0	3	0
783	625	0	10000	3	1	0	3	0
764	626	0	10000	3	1	0	3	0
732	627	0	10000	3	1	0	3	0
700	628	0	10000	3	1	0	3	0
671	629	0	10000	3	1	0	3	0
656	630	0	10000	3	1	0	3	0
647	631	0	10000	3	1	0	3	0
634	631	0	10000	3	1	0	3	0
615	632	0	10000	3	1	0	3	0
602	634	0	10000	3	1	0	3	0
589	635	0	10000	3	1	0	3	0
572	636	0	10000	3	1	0	3	0
557	637	0	10000	3	1	0	3	0
542	638	0	10000	3	1	0	3	0
530	639	0	10000	3	1	0	3	0
515	640	0	10000	3	1	0	3	0
496	641	0	10000	3	1	0	3	0
476	641	0	10000	3	1	0	3	0
465	642	0	10000	3	1	0	3	0
464	644	0	10000	3	1	0	3	0
470	645	0	10000	3	1	0	3	0
472	646	0	10000	3	1	0	3	0
461	647	0	10000	3	1	0	3	0
444	648	0	10000	3	1	0	3	0
425	649	0	10000	3	1	0	3	0
411	650	0	10000	3	1	0	3	0
394	651	0	10000	3	1	0	3	0
383	651	0	10000	3	1	0	3	0
370	652	0	10000	3	1	0	3	0
352	654	0	10000	3	1	0	3	0
339	655	0	10000	3	1	0	3	0
327	656	0	10000	3	1	0	3	0
319	657	0	10000	3	1	0	3	0
312	658	0	10000	3	1	0	3	0
308	659	0	10000	3	1	0	3	0
307	660	0	10000	3	1	0	3	0
309	661	0	10000	3	1	0	3	0
307	661	0	10000	3	1	0	3	0
301	662	0	10000	3	1	0	3	0
293	664	0	10000	3	1	0	3	0
287	665	0	10000	3	1	0	3	0
287	666	0	10000	3	1	0	3	0
289	667	0	10000	3	1	0	3	0
296	668	0	10000	3	1	0	3	0
304	669	0	10000	3	1	0	3	0
310	670	0	10000	3	1	0	3	0
305	671	0	10000	3	1	0	3	0
299	671	0	10000	3	1	0	3	0
303	672	0	10000	3	1	0	3	0
326	674	0	10000	3	1	0	3	0
338	675	0	10000	3	1	0	3	0
326	676	0	10000	3	1	0	3	0
318	677	0	10000	3	1	0	3	0
306	678	0	10000	3	1	0	3	0
293	679	0	10000	3	1	0	3	0
287	680	0	10000	3	1	0	3	0
288	681	0	10000	3	1	0	3	0
294	681	0	10000	3	1	0	3	0
294	682	0	10000	3	1	0	3	0
282	684	0	10000	3	1	0	3	0
269	685	0	10000	3	1	0	3	0
262	686	0	10000	3	1	0	3	0
253	687	0	10000	3	1	0	3	0
242	688	0	10000	3	1	0	3	0
233	689	0	10000	3	1	0	3	0
226	690	0	10000	3	1	0	3	0
232	691	0	10000	3	1	0	3	0
235	691	0	10000	3	1	0	3	0
235	692	0	10000	3	1	0	3	0
239	694	0	10000	3	1	0	3	0
236	695	0	10000	3	1	0	3	0
244	696	0	10000	3	1	0	3	0
255	697	0	10000	3	1	0	3	0
262	698	0	10000	3	1	0	3	0
272	699	0	10000	3	1	0	3	0
277	700	0	10000	3	1	0	3	0
275	701	0	10000	3	1	0	3	0
266	701	0	10000	3	1	0	3	0
254	702	0	10000	3	1	0	3	0
247	704	0	10000	3	1	0	3	0
249	705	0	10000	3	1	0	3	0
255	706	0	10000	3	1	0	3	0
251	707	0	10000	3	1	0	3	0
250	708	0	10000	3	1	0	3	0
265	709	0	10000	3	1	0	3	0
266	710	0	10000	3	1	0	3	0
267	711	0	10000	3	1	0	3	0
277	711	0	10000	3	1	0	3	0
286	712	0	10000	3	1	0	3	0
297	714	0	10000	3	1	0	3	0
304	715	0	10000	3	1	0	3	0
299	716	0	10000	3	1	0	3	0
290	717	0	10000	3	1	0	3	0
290	718	0	10000	3	1	0	3	0
281	719	0	10000	3	1	0	3	0
271	720	0	10000	3	1	0	3	0
279	721	0	10000	3	1	0	3	0
281	721	0	10000	3	1	0	3	0
287	722	0	10000	3	1	0	3	0
314	724	0	10000	3	1	0	3	0
316	725	0	10000	3	1	0	3	0
331	726	0	10000	3	1	0	3	0
327	727	0	10000	3	1	0	3	0
318	728	0	10000	3	1	0	3	0
315	729	0	10000	3	1	0	3	0
341	730	0	10000	3	1	0	3	0
372	731	0	10000	3	1	0	3	0
369	731	0	10000	3	1	0	3	0
368	732	0	10000	3	1	0	3	0
381	734	0	10000	3	1	0	3	0
401	735	0	10000	3	1	0	3	0
415	736	0	10000	3	1	0	3	0
416	737	0	10000	3	1	0	3	0
401	738	0	10000	3	1	0	3	0
389	739	0	10000	3	1	0	3	0
397	740	0	10000	3	1	0	3	0
432	741	0	10000	3	1	0	3	0
426	741	0	10000	3	1	0	3	0
415	742	0	10000	3	1	0	3	0
428	744	0	10000	3	1	0	3	0
436	745	0	10000	3	1	0	3	0
441	746	0	10000	3	1	0	3	0
508	747	0	10000	3	1	0	3	0
525	748	0	10000	3	1	0	3	0
560	749	0	10000	3	1	0	3	0
604	750	0	10000	3	1	0	3	0
619	751	0	10000	3	1	0	3	0
610	751	0	10000	3	1	0	3	0
594	752	0	10000	3	1	0	3	0
571	754	0	10000	3	1	0	3	0
547	755	0	10000	3	1	0	3	0
524	756	0	10000	3	1	0	3	0
511	757	0	10000	3	1	0	3	0
511	758	0	10000	3	1	0	3	0
497	759	0	10000	3	1	0	3	0
480	760	0	10000	3	1	0	3	0
477	761	0	10000	3	1	0	3	0
477	761	0	10000	3	1	0	3	0
474	762	0	10000	3	1	0	3	0
464	764	0	10000	3	1	0	3	0
447	765	0	10000	3	1	0	3	0
430	766	0	10000	3	1	0	3	0
413	767	0	10000	3	1	0	3	0
401	768	0	10000	3	1	0	3	0
391	769	0	10000	3	1	0	3	0
381	770	0	10000	3	1	0	3	0
371	771	0	10000	3	1	0	3	0
360	771	0	10000	3	1	0	3	0
354	772	0	10000	3	1	0	3	0
369	774	0	10000	3	1	0	3	0
377	775	0	10000	3	1	0	3	0
361	776	0	10000	3	1	0	3	0
353	777	0	10000	3	1	0	3	0
353	778	0	10000	3	1	0	3	0
357	779	0	10000	3	1	0	3	0
359	780	0	10000	3	1	0	3	0
352	781	0	10000	3	1	0	3	0
342	781	0	10000	3	1	0	3	0
335	782	0	10000	3	1	0	3	0
333	784	0	10000	3	1	0	3	0
325	785	0	10000	3	1	0	3	0
318	786	0	10000	3	1	0	3	0
306	787	0	10000	3	1	0	3	0
294	788	0	10000	3	1	0	3	0
289	789	0	10000	3	1	0	3	0
292	790	0	10000	3	1	0	3	0
284	791	0	10000	3	1	0	3	0
281	791	0	10000	3	1	0	3	0
273	792	0	10000	3	1	0	3	0
263	794	0	10000	3	1	0	3	0
263	795	0	10000	3	1	0	3	0
267	796	0	10000	3	1	0	3	0
265	797	0	10000	3	1	0	3	0
255	798	0	10000	3	1	0	3	0
250	799	0	10000	3	1	0	3	0
252	800	0	10000	3	1	0	3	0
268	801	0	10000	3	1	0	3	0
284	801	0	10000	3	1	0	3	0
284	802	0	10000	3	1	0	3	0
274	804	0	10000	3	1	0	3	0
267	805	0	10000	3	1	0	3	0
265	806	0	10000	3	1	0	3	0
257	807	0	10000	3	1	0	3	0
252	808	0	10000	3	1	0	3	0
246	809	0	10000	3	1	0	3	0
251	810	0	10000	3	1	0	3	0
257	811	0	10000	3	1	0	3	0
260	811	0	10000	3	1	0	3	0
251	812	0	10000	3	1	0	3	0
242	814	0	10000	3	1	0	3	0
236	815	0	10000	3	1	0	3	0
225	816	0	10000	3	1	0	3	0
215	817	0	10000	3	1	0	3	0
208	818	0	10000	3	1	0	3	0
202	819	0	10000	3	1	0	3	0
202	820	0	10000	3	1	0	3	0
199	821	0	10000	3	1	0	3	0
195	821	0	10000	3	1	0	3	0
193	822	0	10000	3	1	0	3	0
191	824	0	10000	3	1	0	3	0
184	825	0	10000	3	1	0	3	0
182	826	0	10000	3	1	0	3	0
179	827	0	10000	3	1	0	3	0
173	828	0	10000	3	1	0	3	0
166	829	0	10000	3	1	0	3	0
171	830	0	10000	3	1	0	3	0
172	831	0	10000	3	1	0	3	0
167	831	0	10000	3	1	0	3	0
164	832	0	10000	3	1	0	3	0
162	834	0	10000	3	1	0	3	0
157	835	0	10000	3	1	0	3	0
154	836	0	10000	3	1	0	3	0
152	837	0	10000	3	1	0	3	0
160	838	0	10000	3	1	0	3	0
167	839	0	10000	3	1	0	3	0
167	840	0	10000	3	1	0	3	0
180	841	0	10000	3	1	0	3	0
184	841	0	10000	3	1	0	3	0
181	842	0	10000	3	1	0	3	0
194	844	0	10000	3	1	0	3	0
212	845	0	10000	3	1	0	3	0
238	846	0	10000	3	1	0	3	0
254	847	0	10000	3	1	0	3	0
253	848	0	10000	3	1	0	3	0
242	849	0	10000	3	1	0	3	0
233	850	0	10000	3	1	0	3	0
227	851	0	10000	3	1	0	3	0
228	851	0	10000	3	1	0	3	0
232	852	0	10000	3	1	0	3	0
233	854	0	10000	3	1	0	3	0
234	855	0	10000	3	1	0	3	0
232	856	0	10000	3	1	0	3	0
223	857	0	10000	3	1	0	3	0
214	858	0	10000	3	1	0	3	0
208	859	0	10000	3	1	0	3	0
201	860	0	10000	3	1	0	3	0
195	861	0	10000	3	1	0	3	0
188	861	0	10000	3	1	0	3	0
179	862	0	10000	3	1	0	3	0
172	864	0	10000	3	1	0	3	0
168	865	0	10000	3	1	0	3	0
168	866	0	10000	3	1	0	3	0
168	867	0	10000	3	1	0	3	0
162	868	0	10000	3	1	0	3	0
156	869	0	10000	3	1	0	3	0
162	870	0	10000	3	1	0	3	0
164	871	0	10000	3	1	0	3	0
158	871	0	10000	3	1	0	3	0
153	872	0	10000	3	1	0	3	0
152	874	0	10000	3	1	0	3	0
153	875	0	10000	3	1	0	3	0
149	876	0	10000	3	1	0	3	0
148	877	0	10000	3	1	0	3	0
144	878	0	10000	3	1	0	3	0
146	879	0	10000	3	1	0	3	0
158	880	0	10000	3	1	0	3	0
158	881	0	10000	3	1	0	3	0
169	881	0	10000	3	1	0	3	0
177	882	0	10000	3	1	0	3	0
182	884	0	10000	3	1	0	3	0
184	885	0	10000	3	1	0	3	0
181	886	0	10000	3	1	0	3	0
176	887	0	10000	3	1	0	3	0
175	888	0	10000	3	1	0	3	0
171	889	0	10000	3	1	0	3	0
178	890	0	10000	3	1	0	3	0
185	891	0	10000	3	1	0	3	0
181	891	0	10000	3	1	0	3	0
187	892	0	10000	3	1	0	3	0
191	894	0	10000	3	1	0	3	0
189	895	0	10000	3	1	0	3	0
179	896	0	10000	3	1	0	3	0
178	897	0	10000	3	1	0	3	0
177	898	0	10000	3	1	0	3	0
174	899	0	10000	3	1	0	3	0
174	900	0	10000	3	1	0	3	0
180	901	0	10000	3	1	0	3	0
188	901	0	10000	3	1	0	3	0
190	902	0	10000	3	1	0	3	0
187	904	0	10000	3	1	0	3	0
179	905	0	10000	3	1	0	3	0
176	906	0	10000	3	1	0	3	0
180	907	0	10000	3	1	0	3	0
175	908	0	10000	3	1	0	3	0
177	909	0	10000	3	1	0	3	0
185	910	0	10000	3	1	0	3	0
182	911	0	10000	3	1	0	3	0
175	911	0	10000	3	1	0	3	0
172	912	0	10000	3	1	0	3	0
170	914	0	10000	3	1	0	3	0
168	915	0	10000	3	1	0	3	0
161	916	0	10000	3	1	0	3	0
155	917	0	10000	3	1	0	3	0
150	918	0	10000	3	1	0	3	0
148	919	0	10000	3	1	0	3	0
143	920	0	10000	3	1	0	3	0
142	921	0	10000	3	1	0	3	0
149	921	0	10000	3	1	0	3	0
150	922	0	10000	3	1	0	3	0
144	924	0	10000	3	1	0	3	0
150	925	0	10000	3	1	0	3	0
161	926	0	10000	3	1	0	3	0
168	927	0	10000	3	1	0	3	0
172	928	0	10000	3	1	0	3	0
167	929	0	10000	3	1	0	3	0
166	930	0	10000	3	1	0	3	0
174	931	0	10000	3	1	0	3	0
194	931	0	10000	3	1	0	3	0
212	932	0	10000	3	1	0	3	0
211	934	0	10000	3	1	0	3	0
214	935	0	10000	3	1	0	3	0
225	936	0	10000	3	1	0	3	0
236	937	0	10000	3	1	0	3	0
240	938	0	10000	3	1	0	3	0
241	939	0	10000	3	1	0	3	0
235	940	0	10000	3	1	0	3	0
247	941	0	10000	3	1	0	3	0
277	941	0	10000	3	1	0	3	0
284	942	0	10000	3	1	0	3	0
277	944	0	10000	3	1	0	3	0
276	945	0	10000	3	1	0	3	0
274	946	0	10000	3	1	0	3	0
268	947	0	10000	3	1	0	3	0
270	948	0	10000	3	1	0	3	0
277	949	0	10000	3	1	0	3	0
279	950	0	10000	3	1	0	3	0
270	951	0	10000	3	1	0	3	0
270	951	0	10000	3	1	0	3	0
277	952	0	10000	3	1	0	3	0
276	954	0	10000	3	1	0	3	0
268	955	0	10000	3	1	0	3	0
261	956	0	10000	3	1	0	3	0
261	957	0	10000	3	1	0	3	0
255	958	0	10000	3	1	0	3	0
263	959	0	10000	3	1	0	3	0
272	960	0	10000	3	1	0	3	0
276	961	0	10000	3	1	0	3	0
268	961	0	10000	3	1	0	3	0
263	962	0	10000	3	1	0	3	0
258	964	0	10000	3	1	0	3	0
248	965	0	10000	3	1	0	3	0
241	966	0	10000	3	1	0	3	0
232	967	0	10000	3	1	0	3	0
222	968	0	10000	3	1	0	3	0
212	969	0	10000	3	1	0	3	0
205	970	0	10000	3	1	0	3	0
198	971	0	10000	3	1	0	3	0
191	971	0	10000	3	1	0	3	0
192	972	0	10000	3	1	0	3	0
194	974	0	10000	3	1	0	3	0
187	975	0	10000	3	1	0	3	0
180	976	0	10000	3	1	0	3	0
185	977	0	10000	3	1	0	3	0
189	978	0	10000	3	1	0	3	0
184	979	0	10000	3	1	0	3	0
177	980	0	10000	3	1	0	3	0
174	981	0	10000	3	1	0	3	0
169	981	0	10000	3	1	0	3	0
164	982	0	10000	3	1	0	3	0
159	984	0	10000	3	1	0	3	0
157	985	0	10000	3	1	0	3	0
153	986	0	10000	3	1	0	3	0
147	987	0	10000	3	1	0	3	0
141	988	0	10000	3	1	0	3	0
141	989	0	10000	3	1	0	3	0
142	990	0	10000	3	1	0	3	0
139	991	0	10000	3	1	0	3	0
140	991	0	10000	3	1	0	3	0
143	992	0	10000	3	1	0	3	0
143	994	0	10000	3	1	0	3	0
149	995	0	10000	3	1	0	3	0
145	996	0	10000	3	1	0	3	0
155	997	0	10000	3	1	0	3	0
166	998	0	10000	3	1	0	3	0
195	999	0	10000	3	1	0	3	0
222	1000	0	10000	3	1	0	3	0
218	1001	0	10000	3	1	0	3	0
117	2	7	10000	4	1	0	4	0
120	3	7	10000	4	1	0	4	0
122	4	7	10000	4	1	0	4	0
125	5	7	10000	4	1	0	4	0
127	6	7	10000	4	1	0	4	0
129	7	7	10000	4	1	0	4	0
129	8	7	10000	4	1	0	4	0
130	9	7	10000	4	1	0	4	0
131	10	7	10000	4	1	0	4	0
132	11	7	10000	4	1	0	4	0
135	12	7	10000	4	1	0	4	0
134	13	7	10000	4	1	0	4	0
134	14	7	10000	4	1	0	4	0
135	15	7	10000	4	1	0	4	0
134	16	7	10000	4	1	0	4	0
136	17	7	10000	4	1	0	4	0
138	18	7	10000	4	1	0	4	0
138	19	7	10000	4	1	0	4	0
136	20	7	10000	4	1	0	4	0
135	21	7	10000	4	1	0	4	0
135	22	7	10000	4	1	0	4	0
134	23	7	10000	4	1	0	4	0
134	24	7	10000	4	1	0	4	0
133	25	7	10000	4	1	0	4	0
131	26	7	10000	4	1	0	4	0
128	27	7	10000	4	1	0	4	0
125	28	7	10000	4	1	0	4	0
120	29	7	10000	4	1	0	4	0
117	30	7	10000	4	1	0	4	0
115	31	7	10000	4	1	0	4	0
118	32	7	10000	4	1	0	4	0
115	33	7	10000	4	1	0	4	0
115	34	7	10000	4	1	0	4	0
112	35	7	10000	4	1	0	4	0
108	36	7	10000	4	1	0	4	0
105	37	7	10000	4	1	0	4	0
104	38	7	10000	4	1	0	4	0
102	39	7	10000	4	1	0	4	0
101	40	7	10000	4	1	0	4	0
101	41	7	10000	4	1	0	4	0
101	42	7	10000	4	1	0	4	0
101	43	7	10000	4	1	0	4	0
98	44	7	10000	4	1	0	4	0
94	45	7	10000	4	1	0	4	0
91	46	7	10000	4	1	0	4	0
90	47	7	10000	4	1	0	4	0
88	48	7	10000	4	1	0	4	0
85	49	7	10000	4	1	0	4	0
83	50	7	10000	4	1	0	4	0
79	51	7	10000	4	1	0	4	0
76	52	7	10000	4	1	0	4	0
72	53	7	10000	4	1	0	4	0
69	54	7	10000	4	1	0	4	0
67	55	7	10000	4	1	0	4	0
65	56	7	10000	4	1	0	4	0
63	57	7	10000	4	1	0	4	0
63	58	7	10000	4	1	0	4	0
62	59	7	10000	4	1	0	4	0
60	60	7	10000	4	1	0	4	0
61	61	7	10000	4	1	0	4	0
57	62	7	10000	4	1	0	4	0
58	63	7	10000	4	1	0	4	0
58	64	7	10000	4	1	0	4	0
56	65	7	10000	4	1	0	4	0
53	66	7	10000	4	1	0	4	0
51	67	7	10000	4	1	0	4	0
49	68	7	10000	4	1	0	4	0
48	69	7	10000	4	1	0	4	0
48	70	7	10000	4	1	0	4	0
48	71	7	10000	4	1	0	4	0
47	72	7	10000	4	1	0	4	0
47	73	7	10000	4	1	0	4	0
46	74	7	10000	4	1	0	4	0
44	75	7	10000	4	1	0	4	0
43	76	7	10000	4	1	0	4	0
42	77	7	10000	4	1	0	4	0
40	78	7	10000	4	1	0	4	0
39	79	7	10000	4	1	0	4	0
37	80	7	10000	4	1	0	4	0
39	81	7	10000	4	1	0	4	0
41	82	7	10000	4	1	0	4	0
41	83	7	10000	4	1	0	4	0
42	84	7	10000	4	1	0	4	0
44	85	7	10000	4	1	0	4	0
44	86	7	10000	4	1	0	4	0
44	87	7	10000	4	1	0	4	0
43	88	7	10000	4	1	0	4	0
43	89	7	10000	4	1	0	4	0
43	90	7	10000	4	1	0	4	0
43	91	7	10000	4	1	0	4	0
42	92	7	10000	4	1	0	4	0
41	93	7	10000	4	1	0	4	0
40	94	7	10000	4	1	0	4	0
40	95	7	10000	4	1	0	4	0
40	96	7	10000	4	1	0	4	0
39	97	7	10000	4	1	0	4	0
38	98	7	10000	4	1	0	4	0
35	99	7	10000	4	1	0	4	0
33	100	7	10000	4	1	0	4	0
33	101	7	10000	4	1	0	4	0
33	102	7	10000	4	1	0	4	0
32	103	7	10000	4	1	0	4	0
32	104	7	10000	4	1	0	4	0
33	105	7	10000	4	1	0	4	0
34	106	7	10000	4	1	0	4	0
35	107	7	10000	4	1	0	4	0
33	108	7	10000	4	1	0	4	0
32	109	7	10000	4	1	0	4	0
33	110	7	10000	4	1	0	4	0
31	111	7	10000	4	1	0	4	0
29	112	7	10000	4	1	0	4	0
29	113	7	10000	4	1	0	4	0
28	114	7	10000	4	1	0	4	0
28	115	7	10000	4	1	0	4	0
27	116	7	10000	4	1	0	4	0
26	117	7	10000	4	1	0	4	0
26	118	7	10000	4	1	0	4	0
24	119	7	10000	4	1	0	4	0
23	120	7	10000	4	1	0	4	0
24	121	7	10000	4	1	0	4	0
26	122	7	10000	4	1	0	4	0
29	123	7	10000	4	1	0	4	0
30	124	7	10000	4	1	0	4	0
34	125	7	10000	4	1	0	4	0
40	126	7	10000	4	1	0	4	0
45	127	7	10000	4	1	0	4	0
45	128	7	10000	4	1	0	4	0
44	129	7	10000	4	1	0	4	0
44	130	7	10000	4	1	0	4	0
41	131	7	10000	4	1	0	4	0
40	132	7	10000	4	1	0	4	0
40	133	7	10000	4	1	0	4	0
37	134	7	10000	4	1	0	4	0
36	135	7	10000	4	1	0	4	0
34	136	7	10000	4	1	0	4	0
33	137	7	10000	4	1	0	4	0
33	138	7	10000	4	1	0	4	0
31	139	7	10000	4	1	0	4	0
29	140	7	10000	4	1	0	4	0
28	141	7	10000	4	1	0	4	0
28	142	7	10000	4	1	0	4	0
27	143	7	10000	4	1	0	4	0
26	144	7	10000	4	1	0	4	0
26	145	7	10000	4	1	0	4	0
24	146	7	10000	4	1	0	4	0
24	147	7	10000	4	1	0	4	0
23	148	7	10000	4	1	0	4	0
23	149	7	10000	4	1	0	4	0
23	150	7	10000	4	1	0	4	0
23	151	7	10000	4	1	0	4	0
22	152	7	10000	4	1	0	4	0
23	153	7	10000	4	1	0	4	0
22	154	7	10000	4	1	0	4	0
21	155	7	10000	4	1	0	4	0
22	156	7	10000	4	1	0	4	0
21	157	7	10000	4	1	0	4	0
21	158	7	10000	4	1	0	4	0
20	159	7	10000	4	1	0	4	0
18	160	7	10000	4	1	0	4	0
18	161	7	10000	4	1	0	4	0
18	162	7	10000	4	1	0	4	0
18	163	7	10000	4	1	0	4	0
17	164	7	10000	4	1	0	4	0
17	165	7	10000	4	1	0	4	0
16	166	7	10000	4	1	0	4	0
16	167	7	10000	4	1	0	4	0
16	168	7	10000	4	1	0	4	0
17	169	7	10000	4	1	0	4	0
19	170	7	10000	4	1	0	4	0
19	171	7	10000	4	1	0	4	0
18	172	7	10000	4	1	0	4	0
17	173	7	10000	4	1	0	4	0
19	174	7	10000	4	1	0	4	0
20	175	7	10000	4	1	0	4	0
20	176	7	10000	4	1	0	4	0
20	177	7	10000	4	1	0	4	0
22	178	7	10000	4	1	0	4	0
26	179	7	10000	4	1	0	4	0
28	180	7	10000	4	1	0	4	0
27	181	7	10000	4	1	0	4	0
29	182	7	10000	4	1	0	4	0
29	183	7	10000	4	1	0	4	0
31	184	7	10000	4	1	0	4	0
30	185	7	10000	4	1	0	4	0
29	186	7	10000	4	1	0	4	0
28	187	7	10000	4	1	0	4	0
27	188	7	10000	4	1	0	4	0
28	189	7	10000	4	1	0	4	0
28	190	7	10000	4	1	0	4	0
27	191	7	10000	4	1	0	4	0
27	192	7	10000	4	1	0	4	0
26	193	7	10000	4	1	0	4	0
25	194	7	10000	4	1	0	4	0
24	195	7	10000	4	1	0	4	0
23	196	7	10000	4	1	0	4	0
23	197	7	10000	4	1	0	4	0
24	198	7	10000	4	1	0	4	0
22	199	7	10000	4	1	0	4	0
21	200	7	10000	4	1	0	4	0
21	201	7	10000	4	1	0	4	0
21	202	7	10000	4	1	0	4	0
22	203	7	10000	4	1	0	4	0
22	204	7	10000	4	1	0	4	0
24	205	7	10000	4	1	0	4	0
24	206	7	10000	4	1	0	4	0
24	207	7	10000	4	1	0	4	0
24	208	7	10000	4	1	0	4	0
24	209	7	10000	4	1	0	4	0
25	210	7	10000	4	1	0	4	0
26	211	7	10000	4	1	0	4	0
25	212	7	10000	4	1	0	4	0
24	213	7	10000	4	1	0	4	0
25	214	7	10000	4	1	0	4	0
24	215	7	10000	4	1	0	4	0
24	216	7	10000	4	1	0	4	0
24	217	7	10000	4	1	0	4	0
26	218	7	10000	4	1	0	4	0
25	219	7	10000	4	1	0	4	0
24	220	7	10000	4	1	0	4	0
24	221	7	10000	4	1	0	4	0
23	222	7	10000	4	1	0	4	0
23	223	7	10000	4	1	0	4	0
22	224	7	10000	4	1	0	4	0
22	225	7	10000	4	1	0	4	0
23	226	7	10000	4	1	0	4	0
21	227	7	10000	4	1	0	4	0
21	228	7	10000	4	1	0	4	0
22	229	7	10000	4	1	0	4	0
23	230	7	10000	4	1	0	4	0
25	231	7	10000	4	1	0	4	0
23	232	7	10000	4	1	0	4	0
23	233	7	10000	4	1	0	4	0
22	234	7	10000	4	1	0	4	0
21	235	7	10000	4	1	0	4	0
21	236	7	10000	4	1	0	4	0
20	237	7	10000	4	1	0	4	0
21	238	7	10000	4	1	0	4	0
22	239	7	10000	4	1	0	4	0
24	240	7	10000	4	1	0	4	0
25	241	7	10000	4	1	0	4	0
28	242	7	10000	4	1	0	4	0
30	243	7	10000	4	1	0	4	0
31	244	7	10000	4	1	0	4	0
32	245	7	10000	4	1	0	4	0
31	246	7	10000	4	1	0	4	0
29	247	7	10000	4	1	0	4	0
28	248	7	10000	4	1	0	4	0
28	249	7	10000	4	1	0	4	0
28	250	7	10000	4	1	0	4	0
27	251	7	10000	4	1	0	4	0
25	252	7	10000	4	1	0	4	0
25	253	7	10000	4	1	0	4	0
25	254	7	10000	4	1	0	4	0
24	255	7	10000	4	1	0	4	0
25	256	7	10000	4	1	0	4	0
26	257	7	10000	4	1	0	4	0
25	258	7	10000	4	1	0	4	0
24	259	7	10000	4	1	0	4	0
23	260	7	10000	4	1	0	4	0
25	261	7	10000	4	1	0	4	0
28	262	7	10000	4	1	0	4	0
31	263	7	10000	4	1	0	4	0
32	264	7	10000	4	1	0	4	0
33	265	7	10000	4	1	0	4	0
32	266	7	10000	4	1	0	4	0
32	267	7	10000	4	1	0	4	0
33	268	7	10000	4	1	0	4	0
36	269	7	10000	4	1	0	4	0
38	270	7	10000	4	1	0	4	0
37	271	7	10000	4	1	0	4	0
36	272	7	10000	4	1	0	4	0
34	273	7	10000	4	1	0	4	0
33	274	7	10000	4	1	0	4	0
32	275	7	10000	4	1	0	4	0
31	276	7	10000	4	1	0	4	0
31	277	7	10000	4	1	0	4	0
29	278	7	10000	4	1	0	4	0
28	279	7	10000	4	1	0	4	0
30	280	7	10000	4	1	0	4	0
31	281	7	10000	4	1	0	4	0
30	282	7	10000	4	1	0	4	0
30	283	7	10000	4	1	0	4	0
28	284	7	10000	4	1	0	4	0
29	285	7	10000	4	1	0	4	0
29	286	7	10000	4	1	0	4	0
28	287	7	10000	4	1	0	4	0
27	288	7	10000	4	1	0	4	0
27	289	7	10000	4	1	0	4	0
27	290	7	10000	4	1	0	4	0
26	291	7	10000	4	1	0	4	0
25	292	7	10000	4	1	0	4	0
24	293	7	10000	4	1	0	4	0
25	294	7	10000	4	1	0	4	0
24	295	7	10000	4	1	0	4	0
24	296	7	10000	4	1	0	4	0
24	297	7	10000	4	1	0	4	0
24	298	7	10000	4	1	0	4	0
23	299	7	10000	4	1	0	4	0
22	300	7	10000	4	1	0	4	0
23	301	7	10000	4	1	0	4	0
23	302	7	10000	4	1	0	4	0
26	303	7	10000	4	1	0	4	0
25	304	7	10000	4	1	0	4	0
26	305	7	10000	4	1	0	4	0
27	306	7	10000	4	1	0	4	0
27	307	7	10000	4	1	0	4	0
27	308	7	10000	4	1	0	4	0
29	309	7	10000	4	1	0	4	0
29	310	7	10000	4	1	0	4	0
28	311	7	10000	4	1	0	4	0
28	312	7	10000	4	1	0	4	0
27	313	7	10000	4	1	0	4	0
28	314	7	10000	4	1	0	4	0
28	315	7	10000	4	1	0	4	0
28	316	7	10000	4	1	0	4	0
27	317	7	10000	4	1	0	4	0
27	318	7	10000	4	1	0	4	0
25	319	7	10000	4	1	0	4	0
24	320	7	10000	4	1	0	4	0
25	321	7	10000	4	1	0	4	0
25	322	7	10000	4	1	0	4	0
27	323	7	10000	4	1	0	4	0
26	324	7	10000	4	1	0	4	0
26	325	7	10000	4	1	0	4	0
26	326	7	10000	4	1	0	4	0
23	327	7	10000	4	1	0	4	0
23	328	7	10000	4	1	0	4	0
24	329	7	10000	4	1	0	4	0
25	330	7	10000	4	1	0	4	0
24	331	7	10000	4	1	0	4	0
23	332	7	10000	4	1	0	4	0
22	333	7	10000	4	1	0	4	0
22	334	7	10000	4	1	0	4	0
22	335	7	10000	4	1	0	4	0
22	336	7	10000	4	1	0	4	0
21	337	7	10000	4	1	0	4	0
21	338	7	10000	4	1	0	4	0
20	339	7	10000	4	1	0	4	0
20	340	7	10000	4	1	0	4	0
19	341	7	10000	4	1	0	4	0
19	342	7	10000	4	1	0	4	0
19	343	7	10000	4	1	0	4	0
19	344	7	10000	4	1	0	4	0
17	345	7	10000	4	1	0	4	0
17	346	7	10000	4	1	0	4	0
17	347	7	10000	4	1	0	4	0
16	348	7	10000	4	1	0	4	0
18	349	7	10000	4	1	0	4	0
18	350	7	10000	4	1	0	4	0
18	351	7	10000	4	1	0	4	0
18	352	7	10000	4	1	0	4	0
17	353	7	10000	4	1	0	4	0
17	354	7	10000	4	1	0	4	0
17	355	7	10000	4	1	0	4	0
21	356	7	10000	4	1	0	4	0
22	357	7	10000	4	1	0	4	0
24	358	7	10000	4	1	0	4	0
24	359	7	10000	4	1	0	4	0
23	360	7	10000	4	1	0	4	0
23	361	7	10000	4	1	0	4	0
23	362	7	10000	4	1	0	4	0
23	363	7	10000	4	1	0	4	0
23	364	7	10000	4	1	0	4	0
22	365	7	10000	4	1	0	4	0
21	366	7	10000	4	1	0	4	0
20	367	7	10000	4	1	0	4	0
20	368	7	10000	4	1	0	4	0
21	369	7	10000	4	1	0	4	0
23	370	7	10000	4	1	0	4	0
23	371	7	10000	4	1	0	4	0
22	372	7	10000	4	1	0	4	0
21	373	7	10000	4	1	0	4	0
21	374	7	10000	4	1	0	4	0
21	375	7	10000	4	1	0	4	0
20	376	7	10000	4	1	0	4	0
20	377	7	10000	4	1	0	4	0
21	378	7	10000	4	1	0	4	0
19	379	7	10000	4	1	0	4	0
18	380	7	10000	4	1	0	4	0
18	381	7	10000	4	1	0	4	0
17	382	7	10000	4	1	0	4	0
18	383	7	10000	4	1	0	4	0
17	384	7	10000	4	1	0	4	0
17	385	7	10000	4	1	0	4	0
17	386	7	10000	4	1	0	4	0
18	387	7	10000	4	1	0	4	0
18	388	7	10000	4	1	0	4	0
18	389	7	10000	4	1	0	4	0
20	390	7	10000	4	1	0	4	0
19	391	7	10000	4	1	0	4	0
19	392	7	10000	4	1	0	4	0
18	393	7	10000	4	1	0	4	0
18	394	7	10000	4	1	0	4	0
18	395	7	10000	4	1	0	4	0
17	396	7	10000	4	1	0	4	0
17	397	7	10000	4	1	0	4	0
18	398	7	10000	4	1	0	4	0
15	399	7	10000	4	1	0	4	0
15	400	7	10000	4	1	0	4	0
15	401	7	10000	4	1	0	4	0
16	402	7	10000	4	1	0	4	0
16	403	7	10000	4	1	0	4	0
17	404	7	10000	4	1	0	4	0
17	405	7	10000	4	1	0	4	0
17	406	7	10000	4	1	0	4	0
19	407	7	10000	4	1	0	4	0
18	408	7	10000	4	1	0	4	0
19	409	7	10000	4	1	0	4	0
19	410	7	10000	4	1	0	4	0
18	411	7	10000	4	1	0	4	0
19	412	7	10000	4	1	0	4	0
23	413	7	10000	4	1	0	4	0
23	414	7	10000	4	1	0	4	0
24	415	7	10000	4	1	0	4	0
27	416	7	10000	4	1	0	4	0
28	417	7	10000	4	1	0	4	0
29	418	7	10000	4	1	0	4	0
26	419	7	10000	4	1	0	4	0
25	420	7	10000	4	1	0	4	0
25	421	7	10000	4	1	0	4	0
23	422	7	10000	4	1	0	4	0
24	423	7	10000	4	1	0	4	0
23	424	7	10000	4	1	0	4	0
23	425	7	10000	4	1	0	4	0
22	426	7	10000	4	1	0	4	0
22	427	7	10000	4	1	0	4	0
20	428	7	10000	4	1	0	4	0
21	429	7	10000	4	1	0	4	0
21	430	7	10000	4	1	0	4	0
20	431	7	10000	4	1	0	4	0
20	432	7	10000	4	1	0	4	0
20	433	7	10000	4	1	0	4	0
20	434	7	10000	4	1	0	4	0
19	435	7	10000	4	1	0	4	0
20	436	7	10000	4	1	0	4	0
20	437	7	10000	4	1	0	4	0
21	438	7	10000	4	1	0	4	0
20	439	7	10000	4	1	0	4	0
20	440	7	10000	4	1	0	4	0
20	441	7	10000	4	1	0	4	0
20	442	7	10000	4	1	0	4	0
19	443	7	10000	4	1	0	4	0
19	444	7	10000	4	1	0	4	0
18	445	7	10000	4	1	0	4	0
18	446	7	10000	4	1	0	4	0
20	447	7	10000	4	1	0	4	0
20	448	7	10000	4	1	0	4	0
20	449	7	10000	4	1	0	4	0
21	450	7	10000	4	1	0	4	0
21	451	7	10000	4	1	0	4	0
25	452	7	10000	4	1	0	4	0
28	453	7	10000	4	1	0	4	0
30	454	7	10000	4	1	0	4	0
30	455	7	10000	4	1	0	4	0
31	456	7	10000	4	1	0	4	0
34	457	7	10000	4	1	0	4	0
35	458	7	10000	4	1	0	4	0
34	459	7	10000	4	1	0	4	0
32	460	7	10000	4	1	0	4	0
31	461	7	10000	4	1	0	4	0
32	462	7	10000	4	1	0	4	0
35	463	7	10000	4	1	0	4	0
39	464	7	10000	4	1	0	4	0
39	465	7	10000	4	1	0	4	0
39	466	7	10000	4	1	0	4	0
39	467	7	10000	4	1	0	4	0
40	468	7	10000	4	1	0	4	0
41	469	7	10000	4	1	0	4	0
42	470	7	10000	4	1	0	4	0
39	471	7	10000	4	1	0	4	0
37	472	7	10000	4	1	0	4	0
36	473	7	10000	4	1	0	4	0
34	474	7	10000	4	1	0	4	0
32	475	7	10000	4	1	0	4	0
32	476	7	10000	4	1	0	4	0
32	477	7	10000	4	1	0	4	0
32	478	7	10000	4	1	0	4	0
30	479	7	10000	4	1	0	4	0
28	480	7	10000	4	1	0	4	0
30	481	7	10000	4	1	0	4	0
30	482	7	10000	4	1	0	4	0
30	483	7	10000	4	1	0	4	0
31	484	7	10000	4	1	0	4	0
32	485	7	10000	4	1	0	4	0
31	486	7	10000	4	1	0	4	0
32	487	7	10000	4	1	0	4	0
35	488	7	10000	4	1	0	4	0
37	489	7	10000	4	1	0	4	0
37	490	7	10000	4	1	0	4	0
35	491	7	10000	4	1	0	4	0
33	492	7	10000	4	1	0	4	0
32	493	7	10000	4	1	0	4	0
31	494	7	10000	4	1	0	4	0
30	495	7	10000	4	1	0	4	0
30	496	7	10000	4	1	0	4	0
29	497	7	10000	4	1	0	4	0
28	498	7	10000	4	1	0	4	0
26	499	7	10000	4	1	0	4	0
24	500	7	10000	4	1	0	4	0
24	501	7	10000	4	1	0	4	0
24	502	7	10000	4	1	0	4	1
24	503	7	10000	4	1	0	4	1
24	504	7	10000	4	1	0	4	1
25	505	7	10000	4	1	0	4	1
26	506	7	10000	4	1	0	4	1
26	507	7	10000	4	1	0	4	1
25	508	7	10000	4	1	0	4	1
25	509	7	10000	4	1	0	4	1
25	510	7	10000	4	1	0	4	1
25	511	7	10000	4	1	0	4	1
24	512	7	10000	4	1	0	4	1
23	513	7	10000	4	1	0	4	1
23	514	7	10000	4	1	0	4	1
22	515	7	10000	4	1	0	4	1
22	516	7	10000	4	1	0	4	1
22	517	7	10000	4	1	0	4	1
21	518	7	10000	4	1	0	4	1
20	519	7	10000	4	1	0	4	1
20	520	7	10000	4	1	0	4	1
20	521	7	10000	4	1	0	4	1
20	522	7	10000	4	1	0	4	1
20	523	7	10000	4	1	0	4	1
20	524	7	10000	4	1	0	4	1
20	525	7	10000	4	1	0	4	1
19	526	7	10000	4	1	0	4	1
18	527	7	10000	4	1	0	4	1
18	528	7	10000	4	1	0	4	1
19	529	7	10000	4	1	0	4	1
24	530	7	10000	4	1	0	4	1
24	531	7	10000	4	1	0	4	1
26	532	7	10000	4	1	0	4	1
29	533	7	10000	4	1	0	4	1
31	534	7	10000	4	1	0	4	1
32	535	7	10000	4	1	0	4	1
33	536	7	10000	4	1	0	4	1
33	537	7	10000	4	1	0	4	1
34	538	7	10000	4	1	0	4	1
32	539	7	10000	4	1	0	4	1
30	540	7	10000	4	1	0	4	1
30	541	7	10000	4	1	0	4	1
30	542	7	10000	4	1	0	4	1
28	543	7	10000	4	1	0	4	1
28	544	7	10000	4	1	0	4	1
27	545	7	10000	4	1	0	4	1
25	546	7	10000	4	1	0	4	1
25	547	7	10000	4	1	0	4	1
24	548	7	10000	4	1	0	4	1
24	549	7	10000	4	1	0	4	1
24	550	7	10000	4	1	0	4	1
24	551	7	10000	4	1	0	4	1
23	552	7	10000	4	1	0	4	0
23	553	7	10000	4	1	0	4	0
22	554	7	10000	4	1	0	4	0
23	555	7	10000	4	1	0	4	0
23	556	7	10000	4	1	0	4	0
23	557	7	10000	4	1	0	4	0
23	558	7	10000	4	1	0	4	0
20	559	7	10000	4	1	0	4	0
20	560	7	10000	4	1	0	4	0
20	561	7	10000	4	1	0	4	0
20	562	7	10000	4	1	0	4	0
20	563	7	10000	4	1	0	4	0
20	564	7	10000	4	1	0	4	0
20	565	7	10000	4	1	0	4	0
20	566	7	10000	4	1	0	4	0
20	567	7	10000	4	1	0	4	0
20	568	7	10000	4	1	0	4	0
20	569	7	10000	4	1	0	4	0
22	570	7	10000	4	1	0	4	0
25	571	7	10000	4	1	0	4	0
24	572	7	10000	4	1	0	4	0
24	573	7	10000	4	1	0	4	0
24	574	7	10000	4	1	0	4	0
25	575	7	10000	4	1	0	4	0
27	576	7	10000	4	1	0	4	0
30	577	7	10000	4	1	0	4	0
32	578	7	10000	4	1	0	4	0
37	579	7	10000	4	1	0	4	0
43	580	7	10000	4	1	0	4	0
45	581	7	10000	4	1	0	4	0
49	582	7	10000	4	1	0	4	0
65	583	7	10000	4	1	0	4	0
77	584	7	10000	4	1	0	4	0
80	585	7	10000	4	1	0	4	0
96	586	7	10000	4	1	0	4	0
163	587	7	10000	4	1	0	4	0
292	588	7	10000	4	1	0	4	0
312	589	7	10000	4	1	0	4	0
312	590	7	10000	4	1	0	4	0
308	591	7	10000	4	1	0	4	0
324	592	7	10000	4	1	0	4	0
379	593	7	10000	4	1	0	4	0
401	594	7	10000	4	1	0	4	0
461	595	7	10000	4	1	0	4	0
503	596	7	10000	4	1	0	4	0
526	597	7	10000	4	1	0	4	0
627	598	7	10000	4	1	0	4	0
677	599	7	10000	4	1	0	4	0
672	600	7	10000	4	1	0	4	0
658	601	7	10000	4	1	0	4	0
637	602	7	10000	4	1	0	4	0
620	603	7	10000	4	1	0	4	0
604	604	7	10000	4	1	0	4	0
610	605	7	10000	4	1	0	4	0
620	606	7	10000	4	1	0	4	0
610	607	7	10000	4	1	0	4	0
584	608	7	10000	4	1	0	4	0
566	609	7	10000	4	1	0	4	0
554	610	7	10000	4	1	0	4	0
541	611	7	10000	4	1	0	4	0
522	612	7	10000	4	1	0	4	0
521	613	7	10000	4	1	0	4	0
524	614	7	10000	4	1	0	4	0
507	615	7	10000	4	1	0	4	0
507	616	7	10000	4	1	0	4	0
498	617	7	10000	4	1	0	4	0
476	618	7	10000	4	1	0	4	0
455	619	7	10000	4	1	0	4	0
440	620	7	10000	4	1	0	4	0
427	621	7	10000	4	1	0	4	0
416	622	7	10000	4	1	0	4	0
404	623	7	10000	4	1	0	4	0
391	624	7	10000	4	1	0	4	0
378	625	7	10000	4	1	0	4	0
364	626	7	10000	4	1	0	4	0
348	627	7	10000	4	1	0	4	0
332	628	7	10000	4	1	0	4	0
319	629	7	10000	4	1	0	4	0
307	630	7	10000	4	1	0	4	0
297	631	7	10000	4	1	0	4	0
285	632	7	10000	4	1	0	4	0
275	633	7	10000	4	1	0	4	0
267	634	7	10000	4	1	0	4	0
262	635	7	10000	4	1	0	4	0
260	636	7	10000	4	1	0	4	0
256	637	7	10000	4	1	0	4	0
246	638	7	10000	4	1	0	4	0
232	639	7	10000	4	1	0	4	0
223	640	7	10000	4	1	0	4	0
214	641	7	10000	4	1	0	4	0
206	642	7	10000	4	1	0	4	0
198	643	7	10000	4	1	0	4	0
188	644	7	10000	4	1	0	4	0
181	645	7	10000	4	1	0	4	0
175	646	7	10000	4	1	0	4	0
167	647	7	10000	4	1	0	4	0
160	648	7	10000	4	1	0	4	0
154	649	7	10000	4	1	0	4	0
148	650	7	10000	4	1	0	4	0
142	651	7	10000	4	1	0	4	0
136	652	7	10000	4	1	0	4	0
130	653	7	10000	4	1	0	4	0
126	654	7	10000	4	1	0	4	0
121	655	7	10000	4	1	0	4	0
116	656	7	10000	4	1	0	4	0
112	657	7	10000	4	1	0	4	0
107	658	7	10000	4	1	0	4	0
101	659	7	10000	4	1	0	4	0
96	660	7	10000	4	1	0	4	0
92	661	7	10000	4	1	0	4	0
90	662	7	10000	4	1	0	4	0
89	663	7	10000	4	1	0	4	0
88	664	7	10000	4	1	0	4	0
88	665	7	10000	4	1	0	4	0
88	666	7	10000	4	1	0	4	0
87	667	7	10000	4	1	0	4	0
86	668	7	10000	4	1	0	4	0
88	669	7	10000	4	1	0	4	0
85	670	7	10000	4	1	0	4	0
82	671	7	10000	4	1	0	4	0
79	672	7	10000	4	1	0	4	0
75	673	7	10000	4	1	0	4	0
72	674	7	10000	4	1	0	4	0
69	675	7	10000	4	1	0	4	0
68	676	7	10000	4	1	0	4	0
68	677	7	10000	4	1	0	4	0
69	678	7	10000	4	1	0	4	0
70	679	7	10000	4	1	0	4	0
73	680	7	10000	4	1	0	4	0
73	681	7	10000	4	1	0	4	0
73	682	7	10000	4	1	0	4	0
72	683	7	10000	4	1	0	4	0
70	684	7	10000	4	1	0	4	0
69	685	7	10000	4	1	0	4	0
68	686	7	10000	4	1	0	4	0
66	687	7	10000	4	1	0	4	0
63	688	7	10000	4	1	0	4	0
65	689	7	10000	4	1	0	4	0
65	690	7	10000	4	1	0	4	0
65	691	7	10000	4	1	0	4	0
65	692	7	10000	4	1	0	4	0
64	693	7	10000	4	1	0	4	0
63	694	7	10000	4	1	0	4	0
62	695	7	10000	4	1	0	4	0
58	696	7	10000	4	1	0	4	0
56	697	7	10000	4	1	0	4	0
55	698	7	10000	4	1	0	4	0
51	699	7	10000	4	1	0	4	0
48	700	7	10000	4	1	0	4	0
47	701	7	10000	4	1	0	4	0
45	702	7	10000	4	1	0	4	0
45	703	7	10000	4	1	0	4	0
47	704	7	10000	4	1	0	4	0
49	705	7	10000	4	1	0	4	0
50	706	7	10000	4	1	0	4	0
53	707	7	10000	4	1	0	4	0
56	708	7	10000	4	1	0	4	0
60	709	7	10000	4	1	0	4	0
62	710	7	10000	4	1	0	4	0
63	711	7	10000	4	1	0	4	0
63	712	7	10000	4	1	0	4	0
63	713	7	10000	4	1	0	4	0
62	714	7	10000	4	1	0	4	0
64	715	7	10000	4	1	0	4	0
65	716	7	10000	4	1	0	4	0
66	717	7	10000	4	1	0	4	0
66	718	7	10000	4	1	0	4	0
61	719	7	10000	4	1	0	4	0
59	720	7	10000	4	1	0	4	0
58	721	7	10000	4	1	0	4	0
56	722	7	10000	4	1	0	4	0
56	723	7	10000	4	1	0	4	0
55	724	7	10000	4	1	0	4	0
56	725	7	10000	4	1	0	4	0
59	726	7	10000	4	1	0	4	0
66	727	7	10000	4	1	0	4	0
71	728	7	10000	4	1	0	4	0
74	729	7	10000	4	1	0	4	0
73	730	7	10000	4	1	0	4	0
69	731	7	10000	4	1	0	4	0
68	732	7	10000	4	1	0	4	0
70	733	7	10000	4	1	0	4	0
73	734	7	10000	4	1	0	4	0
71	735	7	10000	4	1	0	4	0
69	736	7	10000	4	1	0	4	0
68	737	7	10000	4	1	0	4	0
67	738	7	10000	4	1	0	4	0
62	739	7	10000	4	1	0	4	0
59	740	7	10000	4	1	0	4	0
60	741	7	10000	4	1	0	4	0
59	742	7	10000	4	1	0	4	0
60	743	7	10000	4	1	0	4	0
59	744	7	10000	4	1	0	4	0
57	745	7	10000	4	1	0	4	0
55	746	7	10000	4	1	0	4	0
53	747	7	10000	4	1	0	4	0
52	748	7	10000	4	1	0	4	0
54	749	7	10000	4	1	0	4	0
59	750	7	10000	4	1	0	4	0
65	751	7	10000	4	1	0	4	0
72	752	7	10000	4	1	0	4	0
75	753	7	10000	4	1	0	4	0
73	754	7	10000	4	1	0	4	0
73	755	7	10000	4	1	0	4	0
80	756	7	10000	4	1	0	4	0
89	757	7	10000	4	1	0	4	0
95	758	7	10000	4	1	0	4	0
99	759	7	10000	4	1	0	4	0
105	760	7	10000	4	1	0	4	0
107	761	7	10000	4	1	0	4	0
106	762	7	10000	4	1	0	4	0
105	763	7	10000	4	1	0	4	0
105	764	7	10000	4	1	0	4	0
102	765	7	10000	4	1	0	4	0
100	766	7	10000	4	1	0	4	0
99	767	7	10000	4	1	0	4	0
96	768	7	10000	4	1	0	4	0
96	769	7	10000	4	1	0	4	0
96	770	7	10000	4	1	0	4	0
95	771	7	10000	4	1	0	4	0
96	772	7	10000	4	1	0	4	0
97	773	7	10000	4	1	0	4	0
97	774	7	10000	4	1	0	4	0
97	775	7	10000	4	1	0	4	0
98	776	7	10000	4	1	0	4	0
98	777	7	10000	4	1	0	4	0
95	778	7	10000	4	1	0	4	0
90	779	7	10000	4	1	0	4	0
87	780	7	10000	4	1	0	4	0
84	781	7	10000	4	1	0	4	0
82	782	7	10000	4	1	0	4	0
82	783	7	10000	4	1	0	4	0
84	784	7	10000	4	1	0	4	0
86	785	7	10000	4	1	0	4	0
89	786	7	10000	4	1	0	4	0
91	787	7	10000	4	1	0	4	0
92	788	7	10000	4	1	0	4	0
92	789	7	10000	4	1	0	4	0
92	790	7	10000	4	1	0	4	0
90	791	7	10000	4	1	0	4	0
87	792	7	10000	4	1	0	4	0
89	793	7	10000	4	1	0	4	0
93	794	7	10000	4	1	0	4	0
97	795	7	10000	4	1	0	4	0
100	796	7	10000	4	1	0	4	0
101	797	7	10000	4	1	0	4	0
102	798	7	10000	4	1	0	4	0
101	799	7	10000	4	1	0	4	0
100	800	7	10000	4	1	0	4	0
97	801	7	10000	4	1	0	4	0
93	802	7	10000	4	1	0	4	0
89	803	7	10000	4	1	0	4	0
86	804	7	10000	4	1	0	4	0
83	805	7	10000	4	1	0	4	0
81	806	7	10000	4	1	0	4	0
77	807	7	10000	4	1	0	4	0
76	808	7	10000	4	1	0	4	0
76	809	7	10000	4	1	0	4	0
73	810	7	10000	4	1	0	4	0
71	811	7	10000	4	1	0	4	0
68	812	7	10000	4	1	0	4	0
66	813	7	10000	4	1	0	4	0
65	814	7	10000	4	1	0	4	0
64	815	7	10000	4	1	0	4	0
65	816	7	10000	4	1	0	4	0
66	817	7	10000	4	1	0	4	0
65	818	7	10000	4	1	0	4	0
65	819	7	10000	4	1	0	4	0
63	820	7	10000	4	1	0	4	0
62	821	7	10000	4	1	0	4	0
63	822	7	10000	4	1	0	4	0
66	823	7	10000	4	1	0	4	0
67	824	7	10000	4	1	0	4	0
67	825	7	10000	4	1	0	4	0
69	826	7	10000	4	1	0	4	0
72	827	7	10000	4	1	0	4	0
70	828	7	10000	4	1	0	4	0
70	829	7	10000	4	1	0	4	0
71	830	7	10000	4	1	0	4	0
71	831	7	10000	4	1	0	4	0
68	832	7	10000	4	1	0	4	0
65	833	7	10000	4	1	0	4	0
64	834	7	10000	4	1	0	4	0
65	835	7	10000	4	1	0	4	0
67	836	7	10000	4	1	0	4	0
65	837	7	10000	4	1	0	4	0
65	838	7	10000	4	1	0	4	0
65	839	7	10000	4	1	0	4	0
66	840	7	10000	4	1	0	4	0
66	841	7	10000	4	1	0	4	0
69	842	7	10000	4	1	0	4	0
70	843	7	10000	4	1	0	4	0
68	844	7	10000	4	1	0	4	0
71	845	7	10000	4	1	0	4	0
72	846	7	10000	4	1	0	4	0
71	847	7	10000	4	1	0	4	0
70	848	7	10000	4	1	0	4	0
71	849	7	10000	4	1	0	4	0
69	850	7	10000	4	1	0	4	0
67	851	7	10000	4	1	0	4	0
66	852	7	10000	4	1	0	4	0
65	853	7	10000	4	1	0	4	0
63	854	7	10000	4	1	0	4	0
63	855	7	10000	4	1	0	4	0
64	856	7	10000	4	1	0	4	0
65	857	7	10000	4	1	0	4	0
64	858	7	10000	4	1	0	4	0
61	859	7	10000	4	1	0	4	0
61	860	7	10000	4	1	0	4	0
64	861	7	10000	4	1	0	4	0
69	862	7	10000	4	1	0	4	0
70	863	7	10000	4	1	0	4	0
68	864	7	10000	4	1	0	4	0
66	865	7	10000	4	1	0	4	0
62	866	7	10000	4	1	0	4	0
59	867	7	10000	4	1	0	4	0
57	868	7	10000	4	1	0	4	0
56	869	7	10000	4	1	0	4	0
55	870	7	10000	4	1	0	4	0
53	871	7	10000	4	1	0	4	0
51	872	7	10000	4	1	0	4	0
49	873	7	10000	4	1	0	4	0
47	874	7	10000	4	1	0	4	0
44	875	7	10000	4	1	0	4	0
45	876	7	10000	4	1	0	4	0
44	877	7	10000	4	1	0	4	0
43	878	7	10000	4	1	0	4	0
43	879	7	10000	4	1	0	4	0
45	880	7	10000	4	1	0	4	0
44	881	7	10000	4	1	0	4	0
43	882	7	10000	4	1	0	4	0
43	883	7	10000	4	1	0	4	0
44	884	7	10000	4	1	0	4	0
47	885	7	10000	4	1	0	4	0
51	886	7	10000	4	1	0	4	0
52	887	7	10000	4	1	0	4	0
51	888	7	10000	4	1	0	4	0
52	889	7	10000	4	1	0	4	0
53	890	7	10000	4	1	0	4	0
54	891	7	10000	4	1	0	4	0
56	892	7	10000	4	1	0	4	0
57	893	7	10000	4	1	0	4	0
56	894	7	10000	4	1	0	4	0
53	895	7	10000	4	1	0	4	0
55	896	7	10000	4	1	0	4	0
61	897	7	10000	4	1	0	4	0
67	898	7	10000	4	1	0	4	0
65	899	7	10000	4	1	0	4	0
65	900	7	10000	4	1	0	4	0
68	901	7	10000	4	1	0	4	0
70	902	7	10000	4	1	0	4	0
70	903	7	10000	4	1	0	4	0
68	904	7	10000	4	1	0	4	0
67	905	7	10000	4	1	0	4	0
71	906	7	10000	4	1	0	4	0
78	907	7	10000	4	1	0	4	0
81	908	7	10000	4	1	0	4	0
82	909	7	10000	4	1	0	4	0
79	910	7	10000	4	1	0	4	0
76	911	7	10000	4	1	0	4	0
72	912	7	10000	4	1	0	4	0
70	913	7	10000	4	1	0	4	0
69	914	7	10000	4	1	0	4	0
66	915	7	10000	4	1	0	4	0
66	916	7	10000	4	1	0	4	0
65	917	7	10000	4	1	0	4	0
65	918	7	10000	4	1	0	4	0
62	919	7	10000	4	1	0	4	0
61	920	7	10000	4	1	0	4	0
59	921	7	10000	4	1	0	4	0
58	922	7	10000	4	1	0	4	0
59	923	7	10000	4	1	0	4	0
59	924	7	10000	4	1	0	4	0
60	925	7	10000	4	1	0	4	0
63	926	7	10000	4	1	0	4	0
67	927	7	10000	4	1	0	4	0
67	928	7	10000	4	1	0	4	0
67	929	7	10000	4	1	0	4	0
65	930	7	10000	4	1	0	4	0
63	931	7	10000	4	1	0	4	0
68	932	7	10000	4	1	0	4	0
79	933	7	10000	4	1	0	4	0
92	934	7	10000	4	1	0	4	0
99	935	7	10000	4	1	0	4	0
102	936	7	10000	4	1	0	4	0
99	937	7	10000	4	1	0	4	0
98	938	7	10000	4	1	0	4	0
95	939	7	10000	4	1	0	4	0
96	940	7	10000	4	1	0	4	0
94	941	7	10000	4	1	0	4	0
93	942	7	10000	4	1	0	4	0
93	943	7	10000	4	1	0	4	0
93	944	7	10000	4	1	0	4	0
96	945	7	10000	4	1	0	4	0
101	946	7	10000	4	1	0	4	0
106	947	7	10000	4	1	0	4	0
107	948	7	10000	4	1	0	4	0
110	949	7	10000	4	1	0	4	0
109	950	7	10000	4	1	0	4	0
108	951	7	10000	4	1	0	4	0
106	952	7	10000	4	1	0	4	0
102	953	7	10000	4	1	0	4	0
99	954	7	10000	4	1	0	4	0
102	955	7	10000	4	1	0	4	0
109	956	7	10000	4	1	0	4	0
110	957	7	10000	4	1	0	4	0
108	958	7	10000	4	1	0	4	0
103	959	7	10000	4	1	0	4	0
100	960	7	10000	4	1	0	4	0
98	961	7	10000	4	1	0	4	0
96	962	7	10000	4	1	0	4	0
97	963	7	10000	4	1	0	4	0
95	964	7	10000	4	1	0	4	0
94	965	7	10000	4	1	0	4	0
92	966	7	10000	4	1	0	4	0
89	967	7	10000	4	1	0	4	0
85	968	7	10000	4	1	0	4	0
85	969	7	10000	4	1	0	4	0
86	970	7	10000	4	1	0	4	0
91	971	7	10000	4	1	0	4	0
95	972	7	10000	4	1	0	4	0
93	973	7	10000	4	1	0	4	0
96	974	7	10000	4	1	0	4	0
101	975	7	10000	4	1	0	4	0
106	976	7	10000	4	1	0	4	0
108	977	7	10000	4	1	0	4	0
109	978	7	10000	4	1	0	4	0
103	979	7	10000	4	1	0	4	0
98	980	7	10000	4	1	0	4	0
95	981	7	10000	4	1	0	4	0
94	982	7	10000	4	1	0	4	0
92	983	7	10000	4	1	0	4	0
89	984	7	10000	4	1	0	4	0
86	985	7	10000	4	1	0	4	0
85	986	7	10000	4	1	0	4	0
85	987	7	10000	4	1	0	4	0
86	988	7	10000	4	1	0	4	0
86	989	7	10000	4	1	0	4	0
84	990	7	10000	4	1	0	4	0
82	991	7	10000	4	1	0	4	0
80	992	7	10000	4	1	0	4	0
76	993	7	10000	4	1	0	4	0
74	994	7	10000	4	1	0	4	0
75	995	7	10000	4	1	0	4	0
79	996	7	10000	4	1	0	4	0
82	997	7	10000	4	1	0	4	0
82	998	7	10000	4	1	0	4	0
77	999	7	10000	4	1	0	4	0
80	1000	7	10000	4	1	0	4	0
86	1001	7	10000	4	1	0	4	0
24	1	7	10000	5	1	0	5	0
24	2	7	10000	5	1	0	5	0
24	3	7	10000	5	1	0	5	0
24	4	7	10000	5	1	0	5	0
26	5	7	10000	5	1	0	5	0
25	6	7	10000	5	1	0	5	0
26	7	7	10000	5	1	0	5	0
25	8	7	10000	5	1	0	5	0
25	9	7	10000	5	1	0	5	0
24	10	7	10000	5	1	0	5	0
23	11	7	10000	5	1	0	5	0
23	12	7	10000	5	1	0	5	0
27	13	7	10000	5	1	0	5	0
29	14	7	10000	5	1	0	5	0
27	15	7	10000	5	1	0	5	0
28	16	7	10000	5	1	0	5	0
30	17	7	10000	5	1	0	5	0
31	18	7	10000	5	1	0	5	0
30	19	7	10000	5	1	0	5	0
31	20	7	10000	5	1	0	5	0
31	21	7	10000	5	1	0	5	0
31	22	7	10000	5	1	0	5	0
30	23	7	10000	5	1	0	5	0
27	24	7	10000	5	1	0	5	0
30	25	7	10000	5	1	0	5	0
28	26	7	10000	5	1	0	5	0
26	27	7	10000	5	1	0	5	0
26	28	7	10000	5	1	0	5	0
24	29	7	10000	5	1	0	5	0
24	30	7	10000	5	1	0	5	0
25	31	7	10000	5	1	0	5	0
26	32	7	10000	5	1	0	5	0
25	33	7	10000	5	1	0	5	0
25	34	7	10000	5	1	0	5	0
23	35	7	10000	5	1	0	5	0
24	36	7	10000	5	1	0	5	0
25	37	7	10000	5	1	0	5	0
25	38	7	10000	5	1	0	5	0
24	39	7	10000	5	1	0	5	0
24	40	7	10000	5	1	0	5	0
23	41	7	10000	5	1	0	5	0
24	42	7	10000	5	1	0	5	0
25	43	7	10000	5	1	0	5	0
26	44	7	10000	5	1	0	5	0
27	45	7	10000	5	1	0	5	0
26	46	7	10000	5	1	0	5	0
25	47	7	10000	5	1	0	5	0
25	48	7	10000	5	1	0	5	0
23	49	7	10000	5	1	0	5	0
23	50	7	10000	5	1	0	5	0
22	51	7	10000	5	1	0	5	0
22	52	7	10000	5	1	0	5	0
25	53	7	10000	5	1	0	5	0
28	54	7	10000	5	1	0	5	0
28	55	7	10000	5	1	0	5	0
28	56	7	10000	5	1	0	5	0
28	57	7	10000	5	1	0	5	0
31	58	7	10000	5	1	0	5	0
33	59	7	10000	5	1	0	5	0
34	60	7	10000	5	1	0	5	0
35	61	7	10000	5	1	0	5	0
34	62	7	10000	5	1	0	5	0
34	63	7	10000	5	1	0	5	0
34	64	7	10000	5	1	0	5	0
35	65	7	10000	5	1	0	5	0
34	66	7	10000	5	1	0	5	0
33	67	7	10000	5	1	0	5	0
32	68	7	10000	5	1	0	5	0
30	69	7	10000	5	1	0	5	0
30	70	7	10000	5	1	0	5	0
30	71	7	10000	5	1	0	5	0
31	72	7	10000	5	1	0	5	0
31	73	7	10000	5	1	0	5	0
32	74	7	10000	5	1	0	5	0
32	75	7	10000	5	1	0	5	0
31	76	7	10000	5	1	0	5	0
33	77	7	10000	5	1	0	5	0
34	78	7	10000	5	1	0	5	0
33	79	7	10000	5	1	0	5	0
31	80	7	10000	5	1	0	5	0
32	81	7	10000	5	1	0	5	0
30	82	7	10000	5	1	0	5	0
28	83	7	10000	5	1	0	5	0
27	84	7	10000	5	1	0	5	0
29	85	7	10000	5	1	0	5	0
28	86	7	10000	5	1	0	5	0
26	87	7	10000	5	1	0	5	0
26	88	7	10000	5	1	0	5	0
26	89	7	10000	5	1	0	5	0
26	90	7	10000	5	1	0	5	0
25	91	7	10000	5	1	0	5	0
25	92	7	10000	5	1	0	5	0
26	93	7	10000	5	1	0	5	0
26	94	7	10000	5	1	0	5	0
23	95	7	10000	5	1	0	5	0
23	96	7	10000	5	1	0	5	0
23	97	7	10000	5	1	0	5	0
23	98	7	10000	5	1	0	5	0
24	99	7	10000	5	1	0	5	0
25	100	7	10000	5	1	0	5	0
24	101	7	10000	5	1	0	5	0
22	102	7	10000	5	1	0	5	0
23	103	7	10000	5	1	0	5	0
22	104	7	10000	5	1	0	5	0
24	105	7	10000	5	1	0	5	0
22	106	7	10000	5	1	0	5	0
21	107	7	10000	5	1	0	5	0
21	108	7	10000	5	1	0	5	0
21	109	7	10000	5	1	0	5	0
21	110	7	10000	5	1	0	5	0
21	111	7	10000	5	1	0	5	0
22	112	7	10000	5	1	0	5	0
21	113	7	10000	5	1	0	5	0
21	114	7	10000	5	1	0	5	0
19	115	7	10000	5	1	0	5	0
19	116	7	10000	5	1	0	5	0
22	117	7	10000	5	1	0	5	0
23	118	7	10000	5	1	0	5	0
23	119	7	10000	5	1	0	5	0
25	120	7	10000	5	1	0	5	0
24	121	7	10000	5	1	0	5	0
23	122	7	10000	5	1	0	5	0
23	123	7	10000	5	1	0	5	0
23	124	7	10000	5	1	0	5	0
26	125	7	10000	5	1	0	5	0
27	126	7	10000	5	1	0	5	0
26	127	7	10000	5	1	0	5	0
27	128	7	10000	5	1	0	5	0
27	129	7	10000	5	1	0	5	0
26	130	7	10000	5	1	0	5	0
24	131	7	10000	5	1	0	5	0
25	132	7	10000	5	1	0	5	0
24	133	7	10000	5	1	0	5	0
24	134	7	10000	5	1	0	5	0
23	135	7	10000	5	1	0	5	0
23	136	7	10000	5	1	0	5	0
24	137	7	10000	5	1	0	5	0
25	138	7	10000	5	1	0	5	0
25	139	7	10000	5	1	0	5	0
26	140	7	10000	5	1	0	5	0
25	141	7	10000	5	1	0	5	0
24	142	7	10000	5	1	0	5	0
23	143	7	10000	5	1	0	5	0
23	144	7	10000	5	1	0	5	0
24	145	7	10000	5	1	0	5	0
24	146	7	10000	5	1	0	5	0
24	147	7	10000	5	1	0	5	0
23	148	7	10000	5	1	0	5	0
24	149	7	10000	5	1	0	5	0
22	150	7	10000	5	1	0	5	0
21	151	7	10000	5	1	0	5	0
22	152	7	10000	5	1	0	5	0
24	153	7	10000	5	1	0	5	0
24	154	7	10000	5	1	0	5	0
22	155	7	10000	5	1	0	5	0
22	156	7	10000	5	1	0	5	0
22	157	7	10000	5	1	0	5	0
24	158	7	10000	5	1	0	5	0
25	159	7	10000	5	1	0	5	0
25	160	7	10000	5	1	0	5	0
25	161	7	10000	5	1	0	5	0
24	162	7	10000	5	1	0	5	0
22	163	7	10000	5	1	0	5	0
23	164	7	10000	5	1	0	5	0
28	165	7	10000	5	1	0	5	0
30	166	7	10000	5	1	0	5	0
31	167	7	10000	5	1	0	5	0
30	168	7	10000	5	1	0	5	0
32	169	7	10000	5	1	0	5	0
33	170	7	10000	5	1	0	5	0
32	171	7	10000	5	1	0	5	0
32	172	7	10000	5	1	0	5	0
31	173	7	10000	5	1	0	5	0
30	174	7	10000	5	1	0	5	0
28	175	7	10000	5	1	0	5	0
27	176	7	10000	5	1	0	5	0
26	177	7	10000	5	1	0	5	0
26	178	7	10000	5	1	0	5	0
24	179	7	10000	5	1	0	5	0
24	180	7	10000	5	1	0	5	0
23	181	7	10000	5	1	0	5	0
23	182	7	10000	5	1	0	5	0
27	183	7	10000	5	1	0	5	0
27	184	7	10000	5	1	0	5	0
30	185	7	10000	5	1	0	5	0
31	186	7	10000	5	1	0	5	0
32	187	7	10000	5	1	0	5	0
32	188	7	10000	5	1	0	5	0
32	189	7	10000	5	1	0	5	0
31	190	7	10000	5	1	0	5	0
30	191	7	10000	5	1	0	5	0
31	192	7	10000	5	1	0	5	0
30	193	7	10000	5	1	0	5	0
29	194	7	10000	5	1	0	5	0
28	195	7	10000	5	1	0	5	0
27	196	7	10000	5	1	0	5	0
27	197	7	10000	5	1	0	5	0
28	198	7	10000	5	1	0	5	0
27	199	7	10000	5	1	0	5	0
26	200	7	10000	5	1	0	5	0
27	201	7	10000	5	1	0	5	0
25	202	7	10000	5	1	0	5	0
24	203	7	10000	5	1	0	5	0
23	204	7	10000	5	1	0	5	0
24	205	7	10000	5	1	0	5	0
23	206	7	10000	5	1	0	5	0
22	207	7	10000	5	1	0	5	0
21	208	7	10000	5	1	0	5	0
21	209	7	10000	5	1	0	5	0
23	210	7	10000	5	1	0	5	0
23	211	7	10000	5	1	0	5	0
22	212	7	10000	5	1	0	5	0
22	213	7	10000	5	1	0	5	0
21	214	7	10000	5	1	0	5	0
20	215	7	10000	5	1	0	5	0
20	216	7	10000	5	1	0	5	0
19	217	7	10000	5	1	0	5	0
20	218	7	10000	5	1	0	5	0
19	219	7	10000	5	1	0	5	0
19	220	7	10000	5	1	0	5	0
20	221	7	10000	5	1	0	5	0
19	222	7	10000	5	1	0	5	0
18	223	7	10000	5	1	0	5	0
18	224	7	10000	5	1	0	5	0
19	225	7	10000	5	1	0	5	0
18	226	7	10000	5	1	0	5	0
18	227	7	10000	5	1	0	5	0
16	228	7	10000	5	1	0	5	0
16	229	7	10000	5	1	0	5	0
17	230	7	10000	5	1	0	5	0
18	231	7	10000	5	1	0	5	0
19	232	7	10000	5	1	0	5	0
19	233	7	10000	5	1	0	5	0
19	234	7	10000	5	1	0	5	0
17	235	7	10000	5	1	0	5	0
18	236	7	10000	5	1	0	5	0
19	237	7	10000	5	1	0	5	0
22	238	7	10000	5	1	0	5	0
25	239	7	10000	5	1	0	5	0
28	240	7	10000	5	1	0	5	0
29	241	7	10000	5	1	0	5	0
28	242	7	10000	5	1	0	5	0
27	243	7	10000	5	1	0	5	0
28	244	7	10000	5	1	0	5	0
30	245	7	10000	5	1	0	5	0
31	246	7	10000	5	1	0	5	0
33	247	7	10000	5	1	0	5	0
33	248	7	10000	5	1	0	5	0
34	249	7	10000	5	1	0	5	0
36	250	7	10000	5	1	0	5	0
39	251	7	10000	5	1	0	5	0
43	252	7	10000	5	1	0	5	0
45	253	7	10000	5	1	0	5	0
47	254	7	10000	5	1	0	5	0
47	255	7	10000	5	1	0	5	0
48	256	7	10000	5	1	0	5	0
48	257	7	10000	5	1	0	5	0
49	258	7	10000	5	1	0	5	0
48	259	7	10000	5	1	0	5	0
47	260	7	10000	5	1	0	5	0
48	261	7	10000	5	1	0	5	0
47	262	7	10000	5	1	0	5	0
45	263	7	10000	5	1	0	5	0
44	264	7	10000	5	1	0	5	0
44	265	7	10000	5	1	0	5	0
43	266	7	10000	5	1	0	5	0
42	267	7	10000	5	1	0	5	0
42	268	7	10000	5	1	0	5	0
43	269	7	10000	5	1	0	5	0
44	270	7	10000	5	1	0	5	0
47	271	7	10000	5	1	0	5	0
53	272	7	10000	5	1	0	5	0
54	273	7	10000	5	1	0	5	0
52	274	7	10000	5	1	0	5	0
48	275	7	10000	5	1	0	5	0
48	276	7	10000	5	1	0	5	0
48	277	7	10000	5	1	0	5	0
49	278	7	10000	5	1	0	5	0
50	279	7	10000	5	1	0	5	0
51	280	7	10000	5	1	0	5	0
52	281	7	10000	5	1	0	5	0
51	282	7	10000	5	1	0	5	0
51	283	7	10000	5	1	0	5	0
51	284	7	10000	5	1	0	5	0
52	285	7	10000	5	1	0	5	0
51	286	7	10000	5	1	0	5	0
52	287	7	10000	5	1	0	5	0
53	288	7	10000	5	1	0	5	0
54	289	7	10000	5	1	0	5	0
55	290	7	10000	5	1	0	5	0
54	291	7	10000	5	1	0	5	0
53	292	7	10000	5	1	0	5	0
53	293	7	10000	5	1	0	5	0
53	294	7	10000	5	1	0	5	0
53	295	7	10000	5	1	0	5	0
56	296	7	10000	5	1	0	5	0
55	297	7	10000	5	1	0	5	0
55	298	7	10000	5	1	0	5	0
55	299	7	10000	5	1	0	5	0
52	300	7	10000	5	1	0	5	0
51	301	7	10000	5	1	0	5	0
49	302	7	10000	5	1	0	5	0
48	303	7	10000	5	1	0	5	0
47	304	7	10000	5	1	0	5	0
48	305	7	10000	5	1	0	5	0
46	306	7	10000	5	1	0	5	0
45	307	7	10000	5	1	0	5	0
44	308	7	10000	5	1	0	5	0
44	309	7	10000	5	1	0	5	0
44	310	7	10000	5	1	0	5	0
44	311	7	10000	5	1	0	5	0
44	312	7	10000	5	1	0	5	0
43	313	7	10000	5	1	0	5	0
41	314	7	10000	5	1	0	5	0
38	315	7	10000	5	1	0	5	0
37	316	7	10000	5	1	0	5	0
36	317	7	10000	5	1	0	5	0
35	318	7	10000	5	1	0	5	0
36	319	7	10000	5	1	0	5	0
36	320	7	10000	5	1	0	5	0
35	321	7	10000	5	1	0	5	0
34	322	7	10000	5	1	0	5	0
32	323	7	10000	5	1	0	5	0
31	324	7	10000	5	1	0	5	0
32	325	7	10000	5	1	0	5	0
30	326	7	10000	5	1	0	5	0
30	327	7	10000	5	1	0	5	0
31	328	7	10000	5	1	0	5	0
33	329	7	10000	5	1	0	5	0
34	330	7	10000	5	1	0	5	0
33	331	7	10000	5	1	0	5	0
32	332	7	10000	5	1	0	5	0
32	333	7	10000	5	1	0	5	0
31	334	7	10000	5	1	0	5	0
28	335	7	10000	5	1	0	5	0
28	336	7	10000	5	1	0	5	0
28	337	7	10000	5	1	0	5	0
31	338	7	10000	5	1	0	5	0
32	339	7	10000	5	1	0	5	0
32	340	7	10000	5	1	0	5	0
33	341	7	10000	5	1	0	5	0
32	342	7	10000	5	1	0	5	0
31	343	7	10000	5	1	0	5	0
30	344	7	10000	5	1	0	5	0
32	345	7	10000	5	1	0	5	0
31	346	7	10000	5	1	0	5	0
31	347	7	10000	5	1	0	5	0
31	348	7	10000	5	1	0	5	0
29	349	7	10000	5	1	0	5	0
28	350	7	10000	5	1	0	5	0
28	351	7	10000	5	1	0	5	0
29	352	7	10000	5	1	0	5	0
29	353	7	10000	5	1	0	5	0
28	354	7	10000	5	1	0	5	0
28	355	7	10000	5	1	0	5	0
28	356	7	10000	5	1	0	5	0
28	357	7	10000	5	1	0	5	0
29	358	7	10000	5	1	0	5	0
29	359	7	10000	5	1	0	5	0
28	360	7	10000	5	1	0	5	0
26	361	7	10000	5	1	0	5	0
25	362	7	10000	5	1	0	5	0
24	363	7	10000	5	1	0	5	0
24	364	7	10000	5	1	0	5	0
26	365	7	10000	5	1	0	5	0
24	366	7	10000	5	1	0	5	0
23	367	7	10000	5	1	0	5	0
22	368	7	10000	5	1	0	5	0
21	369	7	10000	5	1	0	5	0
20	370	7	10000	5	1	0	5	0
21	371	7	10000	5	1	0	5	0
22	372	7	10000	5	1	0	5	0
23	373	7	10000	5	1	0	5	0
24	374	7	10000	5	1	0	5	0
21	375	7	10000	5	1	0	5	0
21	376	7	10000	5	1	0	5	0
21	377	7	10000	5	1	0	5	0
20	378	7	10000	5	1	0	5	0
20	379	7	10000	5	1	0	5	0
20	380	7	10000	5	1	0	5	0
20	381	7	10000	5	1	0	5	0
19	382	7	10000	5	1	0	5	0
18	383	7	10000	5	1	0	5	0
18	384	7	10000	5	1	0	5	0
19	385	7	10000	5	1	0	5	0
19	386	7	10000	5	1	0	5	0
20	387	7	10000	5	1	0	5	0
19	388	7	10000	5	1	0	5	0
19	389	7	10000	5	1	0	5	0
19	390	7	10000	5	1	0	5	0
19	391	7	10000	5	1	0	5	0
19	392	7	10000	5	1	0	5	0
19	393	7	10000	5	1	0	5	0
18	394	7	10000	5	1	0	5	0
15	395	7	10000	5	1	0	5	0
15	396	7	10000	5	1	0	5	0
16	397	7	10000	5	1	0	5	0
15	398	7	10000	5	1	0	5	0
16	399	7	10000	5	1	0	5	0
17	400	7	10000	5	1	0	5	0
17	401	7	10000	5	1	0	5	0
16	402	7	10000	5	1	0	5	0
19	403	7	10000	5	1	0	5	0
24	404	7	10000	5	1	0	5	0
27	405	7	10000	5	1	0	5	0
28	406	7	10000	5	1	0	5	0
29	407	7	10000	5	1	0	5	0
32	408	7	10000	5	1	0	5	0
34	409	7	10000	5	1	0	5	0
35	410	7	10000	5	1	0	5	0
35	411	7	10000	5	1	0	5	0
35	412	7	10000	5	1	0	5	0
34	413	7	10000	5	1	0	5	0
32	414	7	10000	5	1	0	5	0
31	415	7	10000	5	1	0	5	0
30	416	7	10000	5	1	0	5	0
30	417	7	10000	5	1	0	5	0
30	418	7	10000	5	1	0	5	0
29	419	7	10000	5	1	0	5	0
29	420	7	10000	5	1	0	5	0
27	421	7	10000	5	1	0	5	0
26	422	7	10000	5	1	0	5	0
25	423	7	10000	5	1	0	5	0
25	424	7	10000	5	1	0	5	0
26	425	7	10000	5	1	0	5	0
26	426	7	10000	5	1	0	5	0
25	427	7	10000	5	1	0	5	0
25	428	7	10000	5	1	0	5	0
24	429	7	10000	5	1	0	5	0
23	430	7	10000	5	1	0	5	0
23	431	7	10000	5	1	0	5	0
23	432	7	10000	5	1	0	5	0
23	433	7	10000	5	1	0	5	0
22	434	7	10000	5	1	0	5	0
22	435	7	10000	5	1	0	5	0
22	436	7	10000	5	1	0	5	0
23	437	7	10000	5	1	0	5	0
23	438	7	10000	5	1	0	5	0
26	439	7	10000	5	1	0	5	0
29	440	7	10000	5	1	0	5	0
30	441	7	10000	5	1	0	5	0
29	442	7	10000	5	1	0	5	0
30	443	7	10000	5	1	0	5	0
33	444	7	10000	5	1	0	5	0
35	445	7	10000	5	1	0	5	0
37	446	7	10000	5	1	0	5	0
36	447	7	10000	5	1	0	5	0
36	448	7	10000	5	1	0	5	0
37	449	7	10000	5	1	0	5	0
35	450	7	10000	5	1	0	5	0
34	451	7	10000	5	1	0	5	0
34	452	7	10000	5	1	0	5	0
36	453	7	10000	5	1	0	5	0
39	454	7	10000	5	1	0	5	0
37	455	7	10000	5	1	0	5	0
38	456	7	10000	5	1	0	5	0
41	457	7	10000	5	1	0	5	0
43	458	7	10000	5	1	0	5	0
43	459	7	10000	5	1	0	5	0
42	460	7	10000	5	1	0	5	0
41	461	7	10000	5	1	0	5	0
40	462	7	10000	5	1	0	5	0
39	463	7	10000	5	1	0	5	0
39	464	7	10000	5	1	0	5	0
39	465	7	10000	5	1	0	5	0
38	466	7	10000	5	1	0	5	0
36	467	7	10000	5	1	0	5	0
33	468	7	10000	5	1	0	5	0
34	469	7	10000	5	1	0	5	0
33	470	7	10000	5	1	0	5	0
34	471	7	10000	5	1	0	5	0
36	472	7	10000	5	1	0	5	0
35	473	7	10000	5	1	0	5	0
34	474	7	10000	5	1	0	5	0
33	475	7	10000	5	1	0	5	0
32	476	7	10000	5	1	0	5	0
32	477	7	10000	5	1	0	5	0
33	478	7	10000	5	1	0	5	0
33	479	7	10000	5	1	0	5	0
32	480	7	10000	5	1	0	5	0
32	481	7	10000	5	1	0	5	0
32	482	7	10000	5	1	0	5	0
33	483	7	10000	5	1	0	5	0
36	484	7	10000	5	1	0	5	0
36	485	7	10000	5	1	0	5	0
35	486	7	10000	5	1	0	5	0
35	487	7	10000	5	1	0	5	0
35	488	7	10000	5	1	0	5	0
33	489	7	10000	5	1	0	5	0
33	490	7	10000	5	1	0	5	0
34	491	7	10000	5	1	0	5	0
34	492	7	10000	5	1	0	5	0
35	493	7	10000	5	1	0	5	0
36	494	7	10000	5	1	0	5	0
37	495	7	10000	5	1	0	5	0
36	496	7	10000	5	1	0	5	0
37	497	7	10000	5	1	0	5	0
40	498	7	10000	5	1	0	5	0
42	499	7	10000	5	1	0	5	0
43	500	7	10000	5	1	0	5	0
43	501	7	10000	5	1	0	5	1
41	502	7	10000	5	1	0	5	1
40	503	7	10000	5	1	0	5	1
40	504	7	10000	5	1	0	5	1
41	505	7	10000	5	1	0	5	1
40	506	7	10000	5	1	0	5	1
40	507	7	10000	5	1	0	5	1
39	508	7	10000	5	1	0	5	1
39	509	7	10000	5	1	0	5	1
37	510	7	10000	5	1	0	5	1
35	511	7	10000	5	1	0	5	1
35	512	7	10000	5	1	0	5	1
36	513	7	10000	5	1	0	5	1
36	514	7	10000	5	1	0	5	1
35	515	7	10000	5	1	0	5	1
34	516	7	10000	5	1	0	5	1
35	517	7	10000	5	1	0	5	1
38	518	7	10000	5	1	0	5	1
39	519	7	10000	5	1	0	5	1
40	520	7	10000	5	1	0	5	1
42	521	7	10000	5	1	0	5	1
42	522	7	10000	5	1	0	5	1
42	523	7	10000	5	1	0	5	1
43	524	7	10000	5	1	0	5	1
43	525	7	10000	5	1	0	5	1
45	526	7	10000	5	1	0	5	1
50	527	7	10000	5	1	0	5	1
55	528	7	10000	5	1	0	5	1
58	529	7	10000	5	1	0	5	1
57	530	7	10000	5	1	0	5	1
55	531	7	10000	5	1	0	5	1
53	532	7	10000	5	1	0	5	1
53	533	7	10000	5	1	0	5	1
50	534	7	10000	5	1	0	5	1
47	535	7	10000	5	1	0	5	1
46	536	7	10000	5	1	0	5	1
44	537	7	10000	5	1	0	5	1
43	538	7	10000	5	1	0	5	1
43	539	7	10000	5	1	0	5	1
44	540	7	10000	5	1	0	5	1
45	541	7	10000	5	1	0	5	1
47	542	7	10000	5	1	0	5	1
49	543	7	10000	5	1	0	5	1
51	544	7	10000	5	1	0	5	1
52	545	7	10000	5	1	0	5	1
52	546	7	10000	5	1	0	5	1
50	547	7	10000	5	1	0	5	1
47	548	7	10000	5	1	0	5	1
46	549	7	10000	5	1	0	5	1
44	550	7	10000	5	1	0	5	1
42	551	7	10000	5	1	0	5	0
41	552	7	10000	5	1	0	5	0
40	553	7	10000	5	1	0	5	0
38	554	7	10000	5	1	0	5	0
36	555	7	10000	5	1	0	5	0
35	556	7	10000	5	1	0	5	0
35	557	7	10000	5	1	0	5	0
34	558	7	10000	5	1	0	5	0
34	559	7	10000	5	1	0	5	0
34	560	7	10000	5	1	0	5	0
35	561	7	10000	5	1	0	5	0
38	562	7	10000	5	1	0	5	0
43	563	7	10000	5	1	0	5	0
44	564	7	10000	5	1	0	5	0
43	565	7	10000	5	1	0	5	0
43	566	7	10000	5	1	0	5	0
42	567	7	10000	5	1	0	5	0
40	568	7	10000	5	1	0	5	0
40	569	7	10000	5	1	0	5	0
42	570	7	10000	5	1	0	5	0
43	571	7	10000	5	1	0	5	0
44	572	7	10000	5	1	0	5	0
45	573	7	10000	5	1	0	5	0
45	574	7	10000	5	1	0	5	0
45	575	7	10000	5	1	0	5	0
48	576	7	10000	5	1	0	5	0
50	577	7	10000	5	1	0	5	0
50	578	7	10000	5	1	0	5	0
50	579	7	10000	5	1	0	5	0
49	580	7	10000	5	1	0	5	0
49	581	7	10000	5	1	0	5	0
49	582	7	10000	5	1	0	5	0
49	583	7	10000	5	1	0	5	0
52	584	7	10000	5	1	0	5	0
63	585	7	10000	5	1	0	5	0
72	586	7	10000	5	1	0	5	0
79	587	7	10000	5	1	0	5	0
85	588	7	10000	5	1	0	5	0
92	589	7	10000	5	1	0	5	0
93	590	7	10000	5	1	0	5	0
94	591	7	10000	5	1	0	5	0
97	592	7	10000	5	1	0	5	0
138	593	7	10000	5	1	0	5	0
199	594	7	10000	5	1	0	5	0
256	595	7	10000	5	1	0	5	0
260	596	7	10000	5	1	0	5	0
275	597	7	10000	5	1	0	5	0
271	598	7	10000	5	1	0	5	0
262	599	7	10000	5	1	0	5	0
316	600	7	10000	5	1	0	5	0
414	601	7	10000	5	1	0	5	0
423	602	7	10000	5	1	0	5	0
436	603	7	10000	5	1	0	5	0
469	604	7	10000	5	1	0	5	0
504	605	7	10000	5	1	0	5	0
544	606	7	10000	5	1	0	5	0
599	607	7	10000	5	1	0	5	0
614	608	7	10000	5	1	0	5	0
597	609	7	10000	5	1	0	5	0
579	610	7	10000	5	1	0	5	0
571	611	7	10000	5	1	0	5	0
573	612	7	10000	5	1	0	5	0
557	613	7	10000	5	1	0	5	0
540	614	7	10000	5	1	0	5	0
529	615	7	10000	5	1	0	5	0
512	616	7	10000	5	1	0	5	0
491	617	7	10000	5	1	0	5	0
479	618	7	10000	5	1	0	5	0
480	619	7	10000	5	1	0	5	0
476	620	7	10000	5	1	0	5	0
456	621	7	10000	5	1	0	5	0
437	622	7	10000	5	1	0	5	0
421	623	7	10000	5	1	0	5	0
413	624	7	10000	5	1	0	5	0
408	625	7	10000	5	1	0	5	0
400	626	7	10000	5	1	0	5	0
393	627	7	10000	5	1	0	5	0
384	628	7	10000	5	1	0	5	0
377	629	7	10000	5	1	0	5	0
367	630	7	10000	5	1	0	5	0
356	631	7	10000	5	1	0	5	0
344	632	7	10000	5	1	0	5	0
331	633	7	10000	5	1	0	5	0
315	634	7	10000	5	1	0	5	0
300	635	7	10000	5	1	0	5	0
286	636	7	10000	5	1	0	5	0
273	637	7	10000	5	1	0	5	0
263	638	7	10000	5	1	0	5	0
254	639	7	10000	5	1	0	5	0
246	640	7	10000	5	1	0	5	0
241	641	7	10000	5	1	0	5	0
234	642	7	10000	5	1	0	5	0
224	643	7	10000	5	1	0	5	0
217	644	7	10000	5	1	0	5	0
213	645	7	10000	5	1	0	5	0
204	646	7	10000	5	1	0	5	0
196	647	7	10000	5	1	0	5	0
187	648	7	10000	5	1	0	5	0
180	649	7	10000	5	1	0	5	0
174	650	7	10000	5	1	0	5	0
171	651	7	10000	5	1	0	5	0
167	652	7	10000	5	1	0	5	0
165	653	7	10000	5	1	0	5	0
162	654	7	10000	5	1	0	5	0
158	655	7	10000	5	1	0	5	0
156	656	7	10000	5	1	0	5	0
154	657	7	10000	5	1	0	5	0
152	658	7	10000	5	1	0	5	0
149	659	7	10000	5	1	0	5	0
146	660	7	10000	5	1	0	5	0
142	661	7	10000	5	1	0	5	0
137	662	7	10000	5	1	0	5	0
130	663	7	10000	5	1	0	5	0
126	664	7	10000	5	1	0	5	0
123	665	7	10000	5	1	0	5	0
119	666	7	10000	5	1	0	5	0
115	667	7	10000	5	1	0	5	0
113	668	7	10000	5	1	0	5	0
108	669	7	10000	5	1	0	5	0
105	670	7	10000	5	1	0	5	0
102	671	7	10000	5	1	0	5	0
98	672	7	10000	5	1	0	5	0
95	673	7	10000	5	1	0	5	0
93	674	7	10000	5	1	0	5	0
89	675	7	10000	5	1	0	5	0
86	676	7	10000	5	1	0	5	0
83	677	7	10000	5	1	0	5	0
80	678	7	10000	5	1	0	5	0
76	679	7	10000	5	1	0	5	0
74	680	7	10000	5	1	0	5	0
71	681	7	10000	5	1	0	5	0
68	682	7	10000	5	1	0	5	0
67	683	7	10000	5	1	0	5	0
68	684	7	10000	5	1	0	5	0
69	685	7	10000	5	1	0	5	0
70	686	7	10000	5	1	0	5	0
72	687	7	10000	5	1	0	5	0
74	688	7	10000	5	1	0	5	0
74	689	7	10000	5	1	0	5	0
75	690	7	10000	5	1	0	5	0
74	691	7	10000	5	1	0	5	0
71	692	7	10000	5	1	0	5	0
69	693	7	10000	5	1	0	5	0
69	694	7	10000	5	1	0	5	0
68	695	7	10000	5	1	0	5	0
68	696	7	10000	5	1	0	5	0
68	697	7	10000	5	1	0	5	0
68	698	7	10000	5	1	0	5	0
67	699	7	10000	5	1	0	5	0
67	700	7	10000	5	1	0	5	0
67	701	7	10000	5	1	0	5	0
65	702	7	10000	5	1	0	5	0
65	703	7	10000	5	1	0	5	0
67	704	7	10000	5	1	0	5	0
69	705	7	10000	5	1	0	5	0
72	706	7	10000	5	1	0	5	0
74	707	7	10000	5	1	0	5	0
75	708	7	10000	5	1	0	5	0
76	709	7	10000	5	1	0	5	0
75	710	7	10000	5	1	0	5	0
73	711	7	10000	5	1	0	5	0
71	712	7	10000	5	1	0	5	0
68	713	7	10000	5	1	0	5	0
66	714	7	10000	5	1	0	5	0
63	715	7	10000	5	1	0	5	0
62	716	7	10000	5	1	0	5	0
62	717	7	10000	5	1	0	5	0
62	718	7	10000	5	1	0	5	0
62	719	7	10000	5	1	0	5	0
64	720	7	10000	5	1	0	5	0
64	721	7	10000	5	1	0	5	0
67	722	7	10000	5	1	0	5	0
71	723	7	10000	5	1	0	5	0
69	724	7	10000	5	1	0	5	0
68	725	7	10000	5	1	0	5	0
68	726	7	10000	5	1	0	5	0
68	727	7	10000	5	1	0	5	0
66	728	7	10000	5	1	0	5	0
67	729	7	10000	5	1	0	5	0
68	730	7	10000	5	1	0	5	0
70	731	7	10000	5	1	0	5	0
68	732	7	10000	5	1	0	5	0
71	733	7	10000	5	1	0	5	0
70	734	7	10000	5	1	0	5	0
67	735	7	10000	5	1	0	5	0
66	736	7	10000	5	1	0	5	0
64	737	7	10000	5	1	0	5	0
64	738	7	10000	5	1	0	5	0
64	739	7	10000	5	1	0	5	0
65	740	7	10000	5	1	0	5	0
65	741	7	10000	5	1	0	5	0
62	742	7	10000	5	1	0	5	0
60	743	7	10000	5	1	0	5	0
60	744	7	10000	5	1	0	5	0
61	745	7	10000	5	1	0	5	0
61	746	7	10000	5	1	0	5	0
60	747	7	10000	5	1	0	5	0
58	748	7	10000	5	1	0	5	0
57	749	7	10000	5	1	0	5	0
56	750	7	10000	5	1	0	5	0
54	751	7	10000	5	1	0	5	0
53	752	7	10000	5	1	0	5	0
55	753	7	10000	5	1	0	5	0
61	754	7	10000	5	1	0	5	0
71	755	7	10000	5	1	0	5	0
82	756	7	10000	5	1	0	5	0
90	757	7	10000	5	1	0	5	0
