value	EMG	Stimulus	EMG_sensitivity	Total_Trial_Nr	practise	acq	probe_nr	Startle_Probe
49	2	1	10000	1	1	0	1	0
50	3	1	10000	1	1	0	1	0
52	4	1	10000	1	1	0	1	0
56	5	1	10000	1	1	0	1	0
57	6	1	10000	1	1	0	1	0
57	7	1	10000	1	1	0	1	0
56	8	1	10000	1	1	0	1	0
57	9	1	10000	1	1	0	1	0
57	10	1	10000	1	1	0	1	0
56	11	1	10000	1	1	0	1	0
54	12	1	10000	1	1	0	1	0
54	13	1	10000	1	1	0	1	0
54	14	1	10000	1	1	0	1	0
53	15	1	10000	1	1	0	1	0
52	16	1	10000	1	1	0	1	0
51	17	1	10000	1	1	0	1	0
50	18	1	10000	1	1	0	1	0
49	19	1	10000	1	1	0	1	0
47	20	1	10000	1	1	0	1	0
46	21	1	10000	1	1	0	1	0
44	22	1	10000	1	1	0	1	0
43	23	1	10000	1	1	0	1	0
43	24	1	10000	1	1	0	1	0
43	25	1	10000	1	1	0	1	0
43	26	1	10000	1	1	0	1	0
42	27	1	10000	1	1	0	1	0
40	28	1	10000	1	1	0	1	0
40	29	1	10000	1	1	0	1	0
40	30	1	10000	1	1	0	1	0
40	31	1	10000	1	1	0	1	0
39	32	1	10000	1	1	0	1	0
37	33	1	10000	1	1	0	1	0
37	34	1	10000	1	1	0	1	0
36	35	1	10000	1	1	0	1	0
37	36	1	10000	1	1	0	1	0
38	37	1	10000	1	1	0	1	0
40	38	1	10000	1	1	0	1	0
39	39	1	10000	1	1	0	1	0
38	40	1	10000	1	1	0	1	0
38	41	1	10000	1	1	0	1	0
38	42	1	10000	1	1	0	1	0
38	43	1	10000	1	1	0	1	0
38	44	1	10000	1	1	0	1	0
39	45	1	10000	1	1	0	1	0
41	46	1	10000	1	1	0	1	0
42	47	1	10000	1	1	0	1	0
42	48	1	10000	1	1	0	1	0
42	49	1	10000	1	1	0	1	0
41	50	1	10000	1	1	0	1	0
41	51	1	10000	1	1	0	1	0
40	52	1	10000	1	1	0	1	0
39	53	1	10000	1	1	0	1	0
38	54	1	10000	1	1	0	1	0
36	55	1	10000	1	1	0	1	0
35	56	1	10000	1	1	0	1	0
36	57	1	10000	1	1	0	1	0
40	58	1	10000	1	1	0	1	0
40	59	1	10000	1	1	0	1	0
40	60	1	10000	1	1	0	1	0
39	61	1	10000	1	1	0	1	0
38	62	1	10000	1	1	0	1	0
39	63	1	10000	1	1	0	1	0
38	64	1	10000	1	1	0	1	0
38	65	1	10000	1	1	0	1	0
38	66	1	10000	1	1	0	1	0
36	67	1	10000	1	1	0	1	0
34	68	1	10000	1	1	0	1	0
33	69	1	10000	1	1	0	1	0
32	70	1	10000	1	1	0	1	0
31	71	1	10000	1	1	0	1	0
31	72	1	10000	1	1	0	1	0
30	73	1	10000	1	1	0	1	0
29	74	1	10000	1	1	0	1	0
29	75	1	10000	1	1	0	1	0
28	76	1	10000	1	1	0	1	0
27	77	1	10000	1	1	0	1	0
27	78	1	10000	1	1	0	1	0
27	79	1	10000	1	1	0	1	0
26	80	1	10000	1	1	0	1	0
26	81	1	10000	1	1	0	1	0
27	82	1	10000	1	1	0	1	0
27	83	1	10000	1	1	0	1	0
28	84	1	10000	1	1	0	1	0
28	85	1	10000	1	1	0	1	0
27	86	1	10000	1	1	0	1	0
27	87	1	10000	1	1	0	1	0
25	88	1	10000	1	1	0	1	0
25	89	1	10000	1	1	0	1	0
25	90	1	10000	1	1	0	1	0
25	91	1	10000	1	1	0	1	0
25	92	1	10000	1	1	0	1	0
24	93	1	10000	1	1	0	1	0
24	94	1	10000	1	1	0	1	0
23	95	1	10000	1	1	0	1	0
22	96	1	10000	1	1	0	1	0
22	97	1	10000	1	1	0	1	0
23	98	1	10000	1	1	0	1	0
22	99	1	10000	1	1	0	1	0
21	100	1	10000	1	1	0	1	0
21	101	1	10000	1	1	0	1	0
21	102	1	10000	1	1	0	1	0
21	103	1	10000	1	1	0	1	0
20	104	1	10000	1	1	0	1	0
20	105	1	10000	1	1	0	1	0
21	106	1	10000	1	1	0	1	0
22	107	1	10000	1	1	0	1	0
21	108	1	10000	1	1	0	1	0
21	109	1	10000	1	1	0	1	0
20	110	1	10000	1	1	0	1	0
20	111	1	10000	1	1	0	1	0
20	112	1	10000	1	1	0	1	0
20	113	1	10000	1	1	0	1	0
20	114	1	10000	1	1	0	1	0
19	115	1	10000	1	1	0	1	0
18	116	1	10000	1	1	0	1	0
17	117	1	10000	1	1	0	1	0
20	118	1	10000	1	1	0	1	0
19	119	1	10000	1	1	0	1	0
18	120	1	10000	1	1	0	1	0
18	121	1	10000	1	1	0	1	0
17	122	1	10000	1	1	0	1	0
17	123	1	10000	1	1	0	1	0
17	124	1	10000	1	1	0	1	0
17	125	1	10000	1	1	0	1	0
17	126	1	10000	1	1	0	1	0
17	127	1	10000	1	1	0	1	0
16	128	1	10000	1	1	0	1	0
15	129	1	10000	1	1	0	1	0
15	130	1	10000	1	1	0	1	0
15	131	1	10000	1	1	0	1	0
16	132	1	10000	1	1	0	1	0
16	133	1	10000	1	1	0	1	0
18	134	1	10000	1	1	0	1	0
18	135	1	10000	1	1	0	1	0
18	136	1	10000	1	1	0	1	0
17	137	1	10000	1	1	0	1	0
19	138	1	10000	1	1	0	1	0
18	139	1	10000	1	1	0	1	0
18	140	1	10000	1	1	0	1	0
18	141	1	10000	1	1	0	1	0
17	142	1	10000	1	1	0	1	0
17	143	1	10000	1	1	0	1	0
17	144	1	10000	1	1	0	1	0
17	145	1	10000	1	1	0	1	0
18	146	1	10000	1	1	0	1	0
18	147	1	10000	1	1	0	1	0
16	148	1	10000	1	1	0	1	0
17	149	1	10000	1	1	0	1	0
19	150	1	10000	1	1	0	1	0
20	151	1	10000	1	1	0	1	0
20	152	1	10000	1	1	0	1	0
20	153	1	10000	1	1	0	1	0
20	154	1	10000	1	1	0	1	0
21	155	1	10000	1	1	0	1	0
22	156	1	10000	1	1	0	1	0
21	157	1	10000	1	1	0	1	0
24	158	1	10000	1	1	0	1	0
23	159	1	10000	1	1	0	1	0
23	160	1	10000	1	1	0	1	0
24	161	1	10000	1	1	0	1	0
22	162	1	10000	1	1	0	1	0
21	163	1	10000	1	1	0	1	0
21	164	1	10000	1	1	0	1	0
21	165	1	10000	1	1	0	1	0
21	166	1	10000	1	1	0	1	0
20	167	1	10000	1	1	0	1	0
19	168	1	10000	1	1	0	1	0
19	169	1	10000	1	1	0	1	0
20	170	1	10000	1	1	0	1	0
21	171	1	10000	1	1	0	1	0
21	172	1	10000	1	1	0	1	0
21	173	1	10000	1	1	0	1	0
20	174	1	10000	1	1	0	1	0
20	175	1	10000	1	1	0	1	0
20	176	1	10000	1	1	0	1	0
20	177	1	10000	1	1	0	1	0
21	178	1	10000	1	1	0	1	0
22	179	1	10000	1	1	0	1	0
23	180	1	10000	1	1	0	1	0
24	181	1	10000	1	1	0	1	0
24	182	1	10000	1	1	0	1	0
23	183	1	10000	1	1	0	1	0
23	184	1	10000	1	1	0	1	0
23	185	1	10000	1	1	0	1	0
24	186	1	10000	1	1	0	1	0
24	187	1	10000	1	1	0	1	0
24	188	1	10000	1	1	0	1	0
25	189	1	10000	1	1	0	1	0
26	190	1	10000	1	1	0	1	0
26	191	1	10000	1	1	0	1	0
25	192	1	10000	1	1	0	1	0
24	193	1	10000	1	1	0	1	0
24	194	1	10000	1	1	0	1	0
23	195	1	10000	1	1	0	1	0
22	196	1	10000	1	1	0	1	0
21	197	1	10000	1	1	0	1	0
23	198	1	10000	1	1	0	1	0
23	199	1	10000	1	1	0	1	0
22	200	1	10000	1	1	0	1	0
22	201	1	10000	1	1	0	1	0
21	202	1	10000	1	1	0	1	0
23	203	1	10000	1	1	0	1	0
23	204	1	10000	1	1	0	1	0
22	205	1	10000	1	1	0	1	0
22	206	1	10000	1	1	0	1	0
22	207	1	10000	1	1	0	1	0
20	208	1	10000	1	1	0	1	0
19	209	1	10000	1	1	0	1	0
20	210	1	10000	1	1	0	1	0
19	211	1	10000	1	1	0	1	0
19	212	1	10000	1	1	0	1	0
18	213	1	10000	1	1	0	1	0
19	214	1	10000	1	1	0	1	0
18	215	1	10000	1	1	0	1	0
20	216	1	10000	1	1	0	1	0
19	217	1	10000	1	1	0	1	0
20	218	1	10000	1	1	0	1	0
21	219	1	10000	1	1	0	1	0
20	220	1	10000	1	1	0	1	0
20	221	1	10000	1	1	0	1	0
19	222	1	10000	1	1	0	1	0
20	223	1	10000	1	1	0	1	0
20	224	1	10000	1	1	0	1	0
21	225	1	10000	1	1	0	1	0
22	226	1	10000	1	1	0	1	0
22	227	1	10000	1	1	0	1	0
20	228	1	10000	1	1	0	1	0
19	229	1	10000	1	1	0	1	0
20	230	1	10000	1	1	0	1	0
20	231	1	10000	1	1	0	1	0
20	232	1	10000	1	1	0	1	0
20	233	1	10000	1	1	0	1	0
19	234	1	10000	1	1	0	1	0
18	235	1	10000	1	1	0	1	0
19	236	1	10000	1	1	0	1	0
20	237	1	10000	1	1	0	1	0
21	238	1	10000	1	1	0	1	0
21	239	1	10000	1	1	0	1	0
21	240	1	10000	1	1	0	1	0
20	241	1	10000	1	1	0	1	0
21	242	1	10000	1	1	0	1	0
21	243	1	10000	1	1	0	1	0
21	244	1	10000	1	1	0	1	0
21	245	1	10000	1	1	0	1	0
21	246	1	10000	1	1	0	1	0
22	247	1	10000	1	1	0	1	0
20	248	1	10000	1	1	0	1	0
19	249	1	10000	1	1	0	1	0
20	250	1	10000	1	1	0	1	0
19	251	1	10000	1	1	0	1	0
19	252	1	10000	1	1	0	1	0
18	253	1	10000	1	1	0	1	0
18	254	1	10000	1	1	0	1	0
18	255	1	10000	1	1	0	1	0
17	256	1	10000	1	1	0	1	0
17	257	1	10000	1	1	0	1	0
19	258	1	10000	1	1	0	1	0
18	259	1	10000	1	1	0	1	0
18	260	1	10000	1	1	0	1	0
19	261	1	10000	1	1	0	1	0
19	262	1	10000	1	1	0	1	0
19	263	1	10000	1	1	0	1	0
18	264	1	10000	1	1	0	1	0
18	265	1	10000	1	1	0	1	0
18	266	1	10000	1	1	0	1	0
18	267	1	10000	1	1	0	1	0
17	268	1	10000	1	1	0	1	0
17	269	1	10000	1	1	0	1	0
17	270	1	10000	1	1	0	1	0
17	271	1	10000	1	1	0	1	0
17	272	1	10000	1	1	0	1	0
17	273	1	10000	1	1	0	1	0
17	274	1	10000	1	1	0	1	0
16	275	1	10000	1	1	0	1	0
16	276	1	10000	1	1	0	1	0
16	277	1	10000	1	1	0	1	0
17	278	1	10000	1	1	0	1	0
17	279	1	10000	1	1	0	1	0
17	280	1	10000	1	1	0	1	0
17	281	1	10000	1	1	0	1	0
16	282	1	10000	1	1	0	1	0
16	283	1	10000	1	1	0	1	0
15	284	1	10000	1	1	0	1	0
15	285	1	10000	1	1	0	1	0
15	286	1	10000	1	1	0	1	0
16	287	1	10000	1	1	0	1	0
13	288	1	10000	1	1	0	1	0
14	289	1	10000	1	1	0	1	0
15	290	1	10000	1	1	0	1	0
15	291	1	10000	1	1	0	1	0
15	292	1	10000	1	1	0	1	0
15	293	1	10000	1	1	0	1	0
15	294	1	10000	1	1	0	1	0
14	295	1	10000	1	1	0	1	0
14	296	1	10000	1	1	0	1	0
14	297	1	10000	1	1	0	1	0
14	298	1	10000	1	1	0	1	0
15	299	1	10000	1	1	0	1	0
15	300	1	10000	1	1	0	1	0
16	301	1	10000	1	1	0	1	0
16	302	1	10000	1	1	0	1	0
16	303	1	10000	1	1	0	1	0
15	304	1	10000	1	1	0	1	0
15	305	1	10000	1	1	0	1	0
15	306	1	10000	1	1	0	1	0
15	307	1	10000	1	1	0	1	0
14	308	1	10000	1	1	0	1	0
14	309	1	10000	1	1	0	1	0
14	310	1	10000	1	1	0	1	0
15	311	1	10000	1	1	0	1	0
15	312	1	10000	1	1	0	1	0
16	313	1	10000	1	1	0	1	0
16	314	1	10000	1	1	0	1	0
16	315	1	10000	1	1	0	1	0
16	316	1	10000	1	1	0	1	0
16	317	1	10000	1	1	0	1	0
16	318	1	10000	1	1	0	1	0
16	319	1	10000	1	1	0	1	0
16	320	1	10000	1	1	0	1	0
16	321	1	10000	1	1	0	1	0
16	322	1	10000	1	1	0	1	0
15	323	1	10000	1	1	0	1	0
15	324	1	10000	1	1	0	1	0
16	325	1	10000	1	1	0	1	0
16	326	1	10000	1	1	0	1	0
15	327	1	10000	1	1	0	1	0
14	328	1	10000	1	1	0	1	0
14	329	1	10000	1	1	0	1	0
14	330	1	10000	1	1	0	1	0
14	331	1	10000	1	1	0	1	0
14	332	1	10000	1	1	0	1	0
15	333	1	10000	1	1	0	1	0
15	334	1	10000	1	1	0	1	0
14	335	1	10000	1	1	0	1	0
16	336	1	10000	1	1	0	1	0
14	337	1	10000	1	1	0	1	0
15	338	1	10000	1	1	0	1	0
16	339	1	10000	1	1	0	1	0
15	340	1	10000	1	1	0	1	0
14	341	1	10000	1	1	0	1	0
14	342	1	10000	1	1	0	1	0
14	343	1	10000	1	1	0	1	0
14	344	1	10000	1	1	0	1	0
14	345	1	10000	1	1	0	1	0
14	346	1	10000	1	1	0	1	0
14	347	1	10000	1	1	0	1	0
12	348	1	10000	1	1	0	1	0
12	349	1	10000	1	1	0	1	0
12	350	1	10000	1	1	0	1	0
13	351	1	10000	1	1	0	1	0
13	352	1	10000	1	1	0	1	0
14	353	1	10000	1	1	0	1	0
15	354	1	10000	1	1	0	1	0
17	355	1	10000	1	1	0	1	0
21	356	1	10000	1	1	0	1	0
28	357	1	10000	1	1	0	1	0
42	358	1	10000	1	1	0	1	0
57	359	1	10000	1	1	0	1	0
65	360	1	10000	1	1	0	1	0
71	361	1	10000	1	1	0	1	0
69	362	1	10000	1	1	0	1	0
70	363	1	10000	1	1	0	1	0
74	364	1	10000	1	1	0	1	0
80	365	1	10000	1	1	0	1	0
84	366	1	10000	1	1	0	1	0
84	367	1	10000	1	1	0	1	0
83	368	1	10000	1	1	0	1	0
82	369	1	10000	1	1	0	1	0
80	370	1	10000	1	1	0	1	0
78	371	1	10000	1	1	0	1	0
77	372	1	10000	1	1	0	1	0
79	373	1	10000	1	1	0	1	0
82	374	1	10000	1	1	0	1	0
81	375	1	10000	1	1	0	1	0
80	376	1	10000	1	1	0	1	0
75	377	1	10000	1	1	0	1	0
77	378	1	10000	1	1	0	1	0
81	379	1	10000	1	1	0	1	0
85	380	1	10000	1	1	0	1	0
89	381	1	10000	1	1	0	1	0
90	382	1	10000	1	1	0	1	0
86	383	1	10000	1	1	0	1	0
82	384	1	10000	1	1	0	1	0
84	385	1	10000	1	1	0	1	0
83	386	1	10000	1	1	0	1	0
82	387	1	10000	1	1	0	1	0
89	388	1	10000	1	1	0	1	0
95	389	1	10000	1	1	0	1	0
104	390	1	10000	1	1	0	1	0
115	391	1	10000	1	1	0	1	0
119	392	1	10000	1	1	0	1	0
118	393	1	10000	1	1	0	1	0
115	394	1	10000	1	1	0	1	0
113	395	1	10000	1	1	0	1	0
114	396	1	10000	1	1	0	1	0
118	397	1	10000	1	1	0	1	0
125	398	1	10000	1	1	0	1	0
129	399	1	10000	1	1	0	1	0
128	400	1	10000	1	1	0	1	0
123	401	1	10000	1	1	0	1	0
119	402	1	10000	1	1	0	1	0
121	403	1	10000	1	1	0	1	0
125	404	1	10000	1	1	0	1	0
121	405	1	10000	1	1	0	1	0
118	406	1	10000	1	1	0	1	0
117	407	1	10000	1	1	0	1	0
112	408	1	10000	1	1	0	1	0
118	409	1	10000	1	1	0	1	0
124	410	1	10000	1	1	0	1	0
122	411	1	10000	1	1	0	1	0
120	412	1	10000	1	1	0	1	0
125	413	1	10000	1	1	0	1	0
136	414	1	10000	1	1	0	1	0
153	415	1	10000	1	1	0	1	0
159	416	1	10000	1	1	0	1	0
154	417	1	10000	1	1	0	1	0
156	418	1	10000	1	1	0	1	0
157	419	1	10000	1	1	0	1	0
151	420	1	10000	1	1	0	1	0
145	421	1	10000	1	1	0	1	0
147	422	1	10000	1	1	0	1	0
148	423	1	10000	1	1	0	1	0
146	424	1	10000	1	1	0	1	0
144	425	1	10000	1	1	0	1	0
145	426	1	10000	1	1	0	1	0
148	427	1	10000	1	1	0	1	0
150	428	1	10000	1	1	0	1	0
153	429	1	10000	1	1	0	1	0
157	430	1	10000	1	1	0	1	0
159	431	1	10000	1	1	0	1	0
160	432	1	10000	1	1	0	1	0
161	433	1	10000	1	1	0	1	0
162	434	1	10000	1	1	0	1	0
161	435	1	10000	1	1	0	1	0
158	436	1	10000	1	1	0	1	0
154	437	1	10000	1	1	0	1	0
152	438	1	10000	1	1	0	1	0
151	439	1	10000	1	1	0	1	0
152	440	1	10000	1	1	0	1	0
153	441	1	10000	1	1	0	1	0
154	442	1	10000	1	1	0	1	0
156	443	1	10000	1	1	0	1	0
156	444	1	10000	1	1	0	1	0
155	445	1	10000	1	1	0	1	0
153	446	1	10000	1	1	0	1	0
149	447	1	10000	1	1	0	1	0
143	448	1	10000	1	1	0	1	0
138	449	1	10000	1	1	0	1	0
132	450	1	10000	1	1	0	1	0
127	451	1	10000	1	1	0	1	0
122	452	1	10000	1	1	0	1	0
119	453	1	10000	1	1	0	1	0
115	454	1	10000	1	1	0	1	0
110	455	1	10000	1	1	0	1	0
106	456	1	10000	1	1	0	1	0
102	457	1	10000	1	1	0	1	0
100	458	1	10000	1	1	0	1	0
100	459	1	10000	1	1	0	1	0
101	460	1	10000	1	1	0	1	0
101	461	1	10000	1	1	0	1	0
100	462	1	10000	1	1	0	1	0
96	463	1	10000	1	1	0	1	0
92	464	1	10000	1	1	0	1	0
91	465	1	10000	1	1	0	1	0
90	466	1	10000	1	1	0	1	0
88	467	1	10000	1	1	0	1	0
87	468	1	10000	1	1	0	1	0
83	469	1	10000	1	1	0	1	0
81	470	1	10000	1	1	0	1	0
80	471	1	10000	1	1	0	1	0
78	472	1	10000	1	1	0	1	0
76	473	1	10000	1	1	0	1	0
74	474	1	10000	1	1	0	1	0
72	475	1	10000	1	1	0	1	0
69	476	1	10000	1	1	0	1	0
67	477	1	10000	1	1	0	1	0
65	478	1	10000	1	1	0	1	0
63	479	1	10000	1	1	0	1	0
60	480	1	10000	1	1	0	1	0
58	481	1	10000	1	1	0	1	0
55	482	1	10000	1	1	0	1	0
53	483	1	10000	1	1	0	1	0
52	484	1	10000	1	1	0	1	0
50	485	1	10000	1	1	0	1	0
48	486	1	10000	1	1	0	1	0
47	487	1	10000	1	1	0	1	0
44	488	1	10000	1	1	0	1	0
43	489	1	10000	1	1	0	1	0
42	490	1	10000	1	1	0	1	0
42	491	1	10000	1	1	0	1	0
40	492	1	10000	1	1	0	1	0
40	493	1	10000	1	1	0	1	0
39	494	1	10000	1	1	0	1	0
37	495	1	10000	1	1	0	1	0
36	496	1	10000	1	1	0	1	0
34	497	1	10000	1	1	0	1	0
35	498	1	10000	1	1	0	1	0
34	499	1	10000	1	1	0	1	0
33	500	1	10000	1	1	0	1	0
32	501	1	10000	1	1	0	1	0
31	551	1	10000	1	1	0	1	1
30	552	1	10000	1	1	0	1	1
30	553	1	10000	1	1	0	1	1
29	554	1	10000	1	1	0	1	1
29	555	1	10000	1	1	0	1	1
29	556	1	10000	1	1	0	1	1
26	557	1	10000	1	1	0	1	1
26	558	1	10000	1	1	0	1	1
25	559	1	10000	1	1	0	1	1
26	560	1	10000	1	1	0	1	1
25	561	1	10000	1	1	0	1	1
24	562	1	10000	1	1	0	1	1
26	563	1	10000	1	1	0	1	1
23	564	1	10000	1	1	0	1	1
22	565	1	10000	1	1	0	1	1
22	566	1	10000	1	1	0	1	1
22	567	1	10000	1	1	0	1	1
22	568	1	10000	1	1	0	1	1
22	569	1	10000	1	1	0	1	1
23	570	1	10000	1	1	0	1	1
23	571	1	10000	1	1	0	1	1
23	572	1	10000	1	1	0	1	1
22	573	1	10000	1	1	0	1	1
23	574	1	10000	1	1	0	1	1
24	575	1	10000	1	1	0	1	1
24	576	1	10000	1	1	0	1	1
23	577	1	10000	1	1	0	1	1
22	578	1	10000	1	1	0	1	1
22	579	1	10000	1	1	0	1	1
22	580	1	10000	1	1	0	1	1
23	581	1	10000	1	1	0	1	1
22	582	1	10000	1	1	0	1	1
22	583	1	10000	1	1	0	1	1
21	584	1	10000	1	1	0	1	1
21	585	1	10000	1	1	0	1	1
21	586	1	10000	1	1	0	1	1
22	587	1	10000	1	1	0	1	1
22	588	1	10000	1	1	0	1	1
22	589	1	10000	1	1	0	1	1
22	590	1	10000	1	1	0	1	1
22	591	1	10000	1	1	0	1	1
21	592	1	10000	1	1	0	1	1
21	593	1	10000	1	1	0	1	1
21	594	1	10000	1	1	0	1	1
21	595	1	10000	1	1	0	1	1
20	596	1	10000	1	1	0	1	1
19	597	1	10000	1	1	0	1	1
19	598	1	10000	1	1	0	1	1
19	599	1	10000	1	1	0	1	1
20	600	1	10000	1	1	0	1	1
21	554	1	10000	1	1	0	1	0
20	555	1	10000	1	1	0	1	0
22	556	1	10000	1	1	0	1	0
22	557	1	10000	1	1	0	1	0
21	556	1	10000	1	1	0	1	0
22	557	1	10000	1	1	0	1	0
22	558	1	10000	1	1	0	1	0
22	559	1	10000	1	1	0	1	0
24	560	1	10000	1	1	0	1	0
26	561	1	10000	1	1	0	1	0
27	562	1	10000	1	1	0	1	0
27	563	1	10000	1	1	0	1	0
26	564	1	10000	1	1	0	1	0
26	565	1	10000	1	1	0	1	0
27	566	1	10000	1	1	0	1	0
26	567	1	10000	1	1	0	1	0
24	568	1	10000	1	1	0	1	0
23	569	1	10000	1	1	0	1	0
23	570	1	10000	1	1	0	1	0
23	571	1	10000	1	1	0	1	0
22	572	1	10000	1	1	0	1	0
21	573	1	10000	1	1	0	1	0
21	574	1	10000	1	1	0	1	0
20	575	1	10000	1	1	0	1	0
20	576	1	10000	1	1	0	1	0
20	577	1	10000	1	1	0	1	0
22	578	1	10000	1	1	0	1	0
22	579	1	10000	1	1	0	1	0
22	580	1	10000	1	1	0	1	0
21	581	1	10000	1	1	0	1	0
20	582	1	10000	1	1	0	1	0
20	583	1	10000	1	1	0	1	0
20	584	1	10000	1	1	0	1	0
20	585	1	10000	1	1	0	1	0
20	586	1	10000	1	1	0	1	0
20	587	1	10000	1	1	0	1	0
20	588	1	10000	1	1	0	1	0
20	589	1	10000	1	1	0	1	0
20	590	1	10000	1	1	0	1	0
20	591	1	10000	1	1	0	1	0
20	592	1	10000	1	1	0	1	0
20	593	1	10000	1	1	0	1	0
21	594	1	10000	1	1	0	1	0
27	595	1	10000	1	1	0	1	0
31	596	1	10000	1	1	0	1	0
36	597	1	10000	1	1	0	1	0
52	598	1	10000	1	1	0	1	0
64	599	1	10000	1	1	0	1	0
65	600	1	10000	1	1	0	1	0
80	601	1	10000	1	1	0	1	0
98	602	1	10000	1	1	0	1	0
99	603	1	10000	1	1	0	1	0
102	604	1	10000	1	1	0	1	0
107	605	1	10000	1	1	0	1	0
109	606	1	10000	1	1	0	1	0
105	607	1	10000	1	1	0	1	0
112	608	1	10000	1	1	0	1	0
120	609	1	10000	1	1	0	1	0
125	610	1	10000	1	1	0	1	0
127	611	1	10000	1	1	0	1	0
136	612	1	10000	1	1	0	1	0
136	613	1	10000	1	1	0	1	0
142	614	1	10000	1	1	0	1	0
148	615	1	10000	1	1	0	1	0
159	616	1	10000	1	1	0	1	0
176	617	1	10000	1	1	0	1	0
190	618	1	10000	1	1	0	1	0
197	619	1	10000	1	1	0	1	0
196	620	1	10000	1	1	0	1	0
189	621	1	10000	1	1	0	1	0
182	622	1	10000	1	1	0	1	0
182	623	1	10000	1	1	0	1	0
185	624	1	10000	1	1	0	1	0
195	625	1	10000	1	1	0	1	0
203	626	1	10000	1	1	0	1	0
205	627	1	10000	1	1	0	1	0
217	628	1	10000	1	1	0	1	0
220	629	1	10000	1	1	0	1	0
217	630	1	10000	1	1	0	1	0
213	631	1	10000	1	1	0	1	0
207	632	1	10000	1	1	0	1	0
211	633	1	10000	1	1	0	1	0
219	634	1	10000	1	1	0	1	0
217	635	1	10000	1	1	0	1	0
213	636	1	10000	1	1	0	1	0
220	637	1	10000	1	1	0	1	0
250	638	1	10000	1	1	0	1	0
280	639	1	10000	1	1	0	1	0
283	640	1	10000	1	1	0	1	0
299	641	1	10000	1	1	0	1	0
315	642	1	10000	1	1	0	1	0
310	643	1	10000	1	1	0	1	0
298	644	1	10000	1	1	0	1	0
286	645	1	10000	1	1	0	1	0
277	646	1	10000	1	1	0	1	0
267	647	1	10000	1	1	0	1	0
256	648	1	10000	1	1	0	1	0
244	649	1	10000	1	1	0	1	0
235	650	1	10000	1	1	0	1	0
235	651	1	10000	1	1	0	1	0
243	652	1	10000	1	1	0	1	0
256	653	1	10000	1	1	0	1	0
270	654	1	10000	1	1	0	1	0
274	655	1	10000	1	1	0	1	0
266	656	1	10000	1	1	0	1	0
261	657	1	10000	1	1	0	1	0
281	658	1	10000	1	1	0	1	0
284	659	1	10000	1	1	0	1	0
291	660	1	10000	1	1	0	1	0
285	661	1	10000	1	1	0	1	0
294	662	1	10000	1	1	0	1	0
294	663	1	10000	1	1	0	1	0
313	664	1	10000	1	1	0	1	0
321	665	1	10000	1	1	0	1	0
324	666	1	10000	1	1	0	1	0
312	667	1	10000	1	1	0	1	0
302	668	1	10000	1	1	0	1	0
301	669	1	10000	1	1	0	1	0
296	670	1	10000	1	1	0	1	0
290	671	1	10000	1	1	0	1	0
283	672	1	10000	1	1	0	1	0
272	673	1	10000	1	1	0	1	0
260	674	1	10000	1	1	0	1	0
248	675	1	10000	1	1	0	1	0
236	676	1	10000	1	1	0	1	0
225	677	1	10000	1	1	0	1	0
218	678	1	10000	1	1	0	1	0
214	679	1	10000	1	1	0	1	0
214	680	1	10000	1	1	0	1	0
212	681	1	10000	1	1	0	1	0
204	682	1	10000	1	1	0	1	0
195	683	1	10000	1	1	0	1	0
189	684	1	10000	1	1	0	1	0
185	685	1	10000	1	1	0	1	0
186	686	1	10000	1	1	0	1	0
190	687	1	10000	1	1	0	1	0
192	688	1	10000	1	1	0	1	0
197	689	1	10000	1	1	0	1	0
197	690	1	10000	1	1	0	1	0
193	691	1	10000	1	1	0	1	0
195	692	1	10000	1	1	0	1	0
199	693	1	10000	1	1	0	1	0
203	694	1	10000	1	1	0	1	0
208	695	1	10000	1	1	0	1	0
212	696	1	10000	1	1	0	1	0
214	697	1	10000	1	1	0	1	0
219	698	1	10000	1	1	0	1	0
225	699	1	10000	1	1	0	1	0
230	700	1	10000	1	1	0	1	0
232	701	1	10000	1	1	0	1	0
233	702	1	10000	1	1	0	1	0
232	703	1	10000	1	1	0	1	0
236	704	1	10000	1	1	0	1	0
247	705	1	10000	1	1	0	1	0
255	706	1	10000	1	1	0	1	0
258	707	1	10000	1	1	0	1	0
259	708	1	10000	1	1	0	1	0
261	709	1	10000	1	1	0	1	0
260	710	1	10000	1	1	0	1	0
255	711	1	10000	1	1	0	1	0
250	712	1	10000	1	1	0	1	0
246	713	1	10000	1	1	0	1	0
242	714	1	10000	1	1	0	1	0
237	715	1	10000	1	1	0	1	0
231	716	1	10000	1	1	0	1	0
226	717	1	10000	1	1	0	1	0
225	718	1	10000	1	1	0	1	0
221	719	1	10000	1	1	0	1	0
215	720	1	10000	1	1	0	1	0
208	721	1	10000	1	1	0	1	0
202	722	1	10000	1	1	0	1	0
197	723	1	10000	1	1	0	1	0
192	724	1	10000	1	1	0	1	0
186	725	1	10000	1	1	0	1	0
182	726	1	10000	1	1	0	1	0
176	727	1	10000	1	1	0	1	0
167	728	1	10000	1	1	0	1	0
161	729	1	10000	1	1	0	1	0
156	730	1	10000	1	1	0	1	0
152	731	1	10000	1	1	0	1	0
150	732	1	10000	1	1	0	1	0
144	733	1	10000	1	1	0	1	0
141	734	1	10000	1	1	0	1	0
140	735	1	10000	1	1	0	1	0
134	736	1	10000	1	1	0	1	0
130	737	1	10000	1	1	0	1	0
131	738	1	10000	1	1	0	1	0
133	739	1	10000	1	1	0	1	0
137	740	1	10000	1	1	0	1	0
142	741	1	10000	1	1	0	1	0
147	742	1	10000	1	1	0	1	0
152	743	1	10000	1	1	0	1	0
157	744	1	10000	1	1	0	1	0
159	745	1	10000	1	1	0	1	0
158	746	1	10000	1	1	0	1	0
157	747	1	10000	1	1	0	1	0
154	748	1	10000	1	1	0	1	0
156	749	1	10000	1	1	0	1	0
160	750	1	10000	1	1	0	1	0
163	751	1	10000	1	1	0	1	0
160	752	1	10000	1	1	0	1	0
155	753	1	10000	1	1	0	1	0
152	754	1	10000	1	1	0	1	0
150	755	1	10000	1	1	0	1	0
149	756	1	10000	1	1	0	1	0
149	757	1	10000	1	1	0	1	0
149	758	1	10000	1	1	0	1	0
146	759	1	10000	1	1	0	1	0
144	760	1	10000	1	1	0	1	0
146	761	1	10000	1	1	0	1	0
148	762	1	10000	1	1	0	1	0
152	763	1	10000	1	1	0	1	0
156	764	1	10000	1	1	0	1	0
159	765	1	10000	1	1	0	1	0
157	766	1	10000	1	1	0	1	0
153	767	1	10000	1	1	0	1	0
148	768	1	10000	1	1	0	1	0
147	769	1	10000	1	1	0	1	0
145	770	1	10000	1	1	0	1	0
140	771	1	10000	1	1	0	1	0
135	772	1	10000	1	1	0	1	0
132	773	1	10000	1	1	0	1	0
130	774	1	10000	1	1	0	1	0
129	775	1	10000	1	1	0	1	0
126	776	1	10000	1	1	0	1	0
122	777	1	10000	1	1	0	1	0
121	778	1	10000	1	1	0	1	0
119	779	1	10000	1	1	0	1	0
123	780	1	10000	1	1	0	1	0
127	781	1	10000	1	1	0	1	0
130	782	1	10000	1	1	0	1	0
128	783	1	10000	1	1	0	1	0
123	784	1	10000	1	1	0	1	0
118	785	1	10000	1	1	0	1	0
116	786	1	10000	1	1	0	1	0
116	787	1	10000	1	1	0	1	0
113	788	1	10000	1	1	0	1	0
114	789	1	10000	1	1	0	1	0
115	790	1	10000	1	1	0	1	0
114	791	1	10000	1	1	0	1	0
111	792	1	10000	1	1	0	1	0
109	793	1	10000	1	1	0	1	0
105	794	1	10000	1	1	0	1	0
102	795	1	10000	1	1	0	1	0
99	796	1	10000	1	1	0	1	0
95	797	1	10000	1	1	0	1	0
95	798	1	10000	1	1	0	1	0
91	799	1	10000	1	1	0	1	0
87	800	1	10000	1	1	0	1	0
86	801	1	10000	1	1	0	1	0
85	802	1	10000	1	1	0	1	0
83	803	1	10000	1	1	0	1	0
81	804	1	10000	1	1	0	1	0
80	805	1	10000	1	1	0	1	0
76	806	1	10000	1	1	0	1	0
74	807	1	10000	1	1	0	1	0
72	808	1	10000	1	1	0	1	0
73	809	1	10000	1	1	0	1	0
74	810	1	10000	1	1	0	1	0
73	811	1	10000	1	1	0	1	0
72	812	1	10000	1	1	0	1	0
70	813	1	10000	1	1	0	1	0
68	814	1	10000	1	1	0	1	0
66	815	1	10000	1	1	0	1	0
67	816	1	10000	1	1	0	1	0
69	817	1	10000	1	1	0	1	0
72	818	1	10000	1	1	0	1	0
72	819	1	10000	1	1	0	1	0
70	820	1	10000	1	1	0	1	0
70	821	1	10000	1	1	0	1	0
68	822	1	10000	1	1	0	1	0
65	823	1	10000	1	1	0	1	0
62	824	1	10000	1	1	0	1	0
61	825	1	10000	1	1	0	1	0
59	826	1	10000	1	1	0	1	0
58	827	1	10000	1	1	0	1	0
54	828	1	10000	1	1	0	1	0
52	829	1	10000	1	1	0	1	0
55	830	1	10000	1	1	0	1	0
60	831	1	10000	1	1	0	1	0
64	832	1	10000	1	1	0	1	0
64	833	1	10000	1	1	0	1	0
62	834	1	10000	1	1	0	1	0
60	835	1	10000	1	1	0	1	0
59	836	1	10000	1	1	0	1	0
57	837	1	10000	1	1	0	1	0
57	838	1	10000	1	1	0	1	0
57	839	1	10000	1	1	0	1	0
59	840	1	10000	1	1	0	1	0
63	841	1	10000	1	1	0	1	0
65	842	1	10000	1	1	0	1	0
64	843	1	10000	1	1	0	1	0
65	844	1	10000	1	1	0	1	0
68	845	1	10000	1	1	0	1	0
74	846	1	10000	1	1	0	1	0
77	847	1	10000	1	1	0	1	0
75	848	1	10000	1	1	0	1	0
75	849	1	10000	1	1	0	1	0
74	850	1	10000	1	1	0	1	0
71	851	1	10000	1	1	0	1	0
68	852	1	10000	1	1	0	1	0
68	853	1	10000	1	1	0	1	0
68	854	1	10000	1	1	0	1	0
67	855	1	10000	1	1	0	1	0
67	856	1	10000	1	1	0	1	0
64	857	1	10000	1	1	0	1	0
62	858	1	10000	1	1	0	1	0
60	859	1	10000	1	1	0	1	0
59	860	1	10000	1	1	0	1	0
57	861	1	10000	1	1	0	1	0
56	862	1	10000	1	1	0	1	0
55	863	1	10000	1	1	0	1	0
56	864	1	10000	1	1	0	1	0
54	865	1	10000	1	1	0	1	0
52	866	1	10000	1	1	0	1	0
52	867	1	10000	1	1	0	1	0
49	868	1	10000	1	1	0	1	0
49	869	1	10000	1	1	0	1	0
52	870	1	10000	1	1	0	1	0
55	871	1	10000	1	1	0	1	0
56	872	1	10000	1	1	0	1	0
57	873	1	10000	1	1	0	1	0
57	874	1	10000	1	1	0	1	0
55	875	1	10000	1	1	0	1	0
53	876	1	10000	1	1	0	1	0
54	877	1	10000	1	1	0	1	0
57	878	1	10000	1	1	0	1	0
59	879	1	10000	1	1	0	1	0
60	880	1	10000	1	1	0	1	0
64	881	1	10000	1	1	0	1	0
64	882	1	10000	1	1	0	1	0
64	883	1	10000	1	1	0	1	0
64	884	1	10000	1	1	0	1	0
66	885	1	10000	1	1	0	1	0
70	886	1	10000	1	1	0	1	0
73	887	1	10000	1	1	0	1	0
75	888	1	10000	1	1	0	1	0
79	889	1	10000	1	1	0	1	0
82	890	1	10000	1	1	0	1	0
83	891	1	10000	1	1	0	1	0
84	892	1	10000	1	1	0	1	0
89	893	1	10000	1	1	0	1	0
92	894	1	10000	1	1	0	1	0
92	895	1	10000	1	1	0	1	0
92	896	1	10000	1	1	0	1	0
92	897	1	10000	1	1	0	1	0
93	898	1	10000	1	1	0	1	0
93	899	1	10000	1	1	0	1	0
92	900	1	10000	1	1	0	1	0
96	901	1	10000	1	1	0	1	0
102	902	1	10000	1	1	0	1	0
106	903	1	10000	1	1	0	1	0
108	904	1	10000	1	1	0	1	0
108	905	1	10000	1	1	0	1	0
107	906	1	10000	1	1	0	1	0
106	907	1	10000	1	1	0	1	0
104	908	1	10000	1	1	0	1	0
106	909	1	10000	1	1	0	1	0
109	910	1	10000	1	1	0	1	0
109	911	1	10000	1	1	0	1	0
107	912	1	10000	1	1	0	1	0
103	913	1	10000	1	1	0	1	0
100	914	1	10000	1	1	0	1	0
96	915	1	10000	1	1	0	1	0
94	916	1	10000	1	1	0	1	0
92	917	1	10000	1	1	0	1	0
95	918	1	10000	1	1	0	1	0
96	919	1	10000	1	1	0	1	0
96	920	1	10000	1	1	0	1	0
95	921	1	10000	1	1	0	1	0
95	922	1	10000	1	1	0	1	0
95	923	1	10000	1	1	0	1	0
96	924	1	10000	1	1	0	1	0
100	925	1	10000	1	1	0	1	0
103	926	1	10000	1	1	0	1	0
105	927	1	10000	1	1	0	1	0
105	928	1	10000	1	1	0	1	0
108	929	1	10000	1	1	0	1	0
111	930	1	10000	1	1	0	1	0
112	931	1	10000	1	1	0	1	0
112	932	1	10000	1	1	0	1	0
116	933	1	10000	1	1	0	1	0
119	934	1	10000	1	1	0	1	0
123	935	1	10000	1	1	0	1	0
127	936	1	10000	1	1	0	1	0
133	937	1	10000	1	1	0	1	0
138	938	1	10000	1	1	0	1	0
136	939	1	10000	1	1	0	1	0
130	940	1	10000	1	1	0	1	0
126	941	1	10000	1	1	0	1	0
121	942	1	10000	1	1	0	1	0
117	943	1	10000	1	1	0	1	0
114	944	1	10000	1	1	0	1	0
111	945	1	10000	1	1	0	1	0
108	946	1	10000	1	1	0	1	0
107	947	1	10000	1	1	0	1	0
105	948	1	10000	1	1	0	1	0
104	949	1	10000	1	1	0	1	0
103	950	1	10000	1	1	0	1	0
101	951	1	10000	1	1	0	1	0
100	952	1	10000	1	1	0	1	0
102	953	1	10000	1	1	0	1	0
103	954	1	10000	1	1	0	1	0
104	955	1	10000	1	1	0	1	0
104	956	1	10000	1	1	0	1	0
103	957	1	10000	1	1	0	1	0
101	958	1	10000	1	1	0	1	0
98	959	1	10000	1	1	0	1	0
97	960	1	10000	1	1	0	1	0
97	961	1	10000	1	1	0	1	0
96	962	1	10000	1	1	0	1	0
95	963	1	10000	1	1	0	1	0
92	964	1	10000	1	1	0	1	0
91	965	1	10000	1	1	0	1	0
90	966	1	10000	1	1	0	1	0
89	967	1	10000	1	1	0	1	0
90	968	1	10000	1	1	0	1	0
92	969	1	10000	1	1	0	1	0
93	970	1	10000	1	1	0	1	0
93	971	1	10000	1	1	0	1	0
93	972	1	10000	1	1	0	1	0
91	973	1	10000	1	1	0	1	0
89	974	1	10000	1	1	0	1	0
88	975	1	10000	1	1	0	1	0
89	976	1	10000	1	1	0	1	0
90	977	1	10000	1	1	0	1	0
91	978	1	10000	1	1	0	1	0
90	979	1	10000	1	1	0	1	0
86	980	1	10000	1	1	0	1	0
84	981	1	10000	1	1	0	1	0
81	982	1	10000	1	1	0	1	0
79	983	1	10000	1	1	0	1	0
75	984	1	10000	1	1	0	1	0
74	985	1	10000	1	1	0	1	0
71	986	1	10000	1	1	0	1	0
68	987	1	10000	1	1	0	1	0
66	988	1	10000	1	1	0	1	0
63	989	1	10000	1	1	0	1	0
62	990	1	10000	1	1	0	1	0
60	991	1	10000	1	1	0	1	0
58	992	1	10000	1	1	0	1	0
58	993	1	10000	1	1	0	1	0
61	994	1	10000	1	1	0	1	0
60	995	1	10000	1	1	0	1	0
59	996	1	10000	1	1	0	1	0
56	997	1	10000	1	1	0	1	0
57	998	1	10000	1	1	0	1	0
57	999	1	10000	1	1	0	1	0
56	1000	1	10000	1	1	0	1	0
54	1001	1	10000	1	1	0	1	0
20	1	10	10000	2	1	0	2	0
20	2	10	10000	2	1	0	2	0
21	3	10	10000	2	1	0	2	0
21	4	10	10000	2	1	0	2	0
20	5	10	10000	2	1	0	2	0
20	6	10	10000	2	1	0	2	0
20	7	10	10000	2	1	0	2	0
20	8	10	10000	2	1	0	2	0
20	9	10	10000	2	1	0	2	0
20	10	10	10000	2	1	0	2	0
19	11	10	10000	2	1	0	2	0
20	12	10	10000	2	1	0	2	0
18	13	10	10000	2	1	0	2	0
17	14	10	10000	2	1	0	2	0
18	15	10	10000	2	1	0	2	0
17	16	10	10000	2	1	0	2	0
18	17	10	10000	2	1	0	2	0
20	18	10	10000	2	1	0	2	0
20	19	10	10000	2	1	0	2	0
19	20	10	10000	2	1	0	2	0
18	21	10	10000	2	1	0	2	0
17	22	10	10000	2	1	0	2	0
20	23	10	10000	2	1	0	2	0
22	24	10	10000	2	1	0	2	0
24	25	10	10000	2	1	0	2	0
29	26	10	10000	2	1	0	2	0
36	27	10	10000	2	1	0	2	0
41	28	10	10000	2	1	0	2	0
45	29	10	10000	2	1	0	2	0
46	30	10	10000	2	1	0	2	0
45	31	10	10000	2	1	0	2	0
44	32	10	10000	2	1	0	2	0
41	33	10	10000	2	1	0	2	0
40	34	10	10000	2	1	0	2	0
40	35	10	10000	2	1	0	2	0
39	36	10	10000	2	1	0	2	0
38	37	10	10000	2	1	0	2	0
37	38	10	10000	2	1	0	2	0
36	39	10	10000	2	1	0	2	0
38	40	10	10000	2	1	0	2	0
42	41	10	10000	2	1	0	2	0
48	42	10	10000	2	1	0	2	0
56	43	10	10000	2	1	0	2	0
62	44	10	10000	2	1	0	2	0
66	45	10	10000	2	1	0	2	0
68	46	10	10000	2	1	0	2	0
71	47	10	10000	2	1	0	2	0
75	48	10	10000	2	1	0	2	0
82	49	10	10000	2	1	0	2	0
90	50	10	10000	2	1	0	2	0
96	51	10	10000	2	1	0	2	0
102	52	10	10000	2	1	0	2	0
103	53	10	10000	2	1	0	2	0
104	54	10	10000	2	1	0	2	0
107	55	10	10000	2	1	0	2	0
110	56	10	10000	2	1	0	2	0
112	57	10	10000	2	1	0	2	0
115	58	10	10000	2	1	0	2	0
118	59	10	10000	2	1	0	2	0
120	60	10	10000	2	1	0	2	0
120	61	10	10000	2	1	0	2	0
118	62	10	10000	2	1	0	2	0
115	63	10	10000	2	1	0	2	0
111	64	10	10000	2	1	0	2	0
106	65	10	10000	2	1	0	2	0
101	66	10	10000	2	1	0	2	0
97	67	10	10000	2	1	0	2	0
93	68	10	10000	2	1	0	2	0
90	69	10	10000	2	1	0	2	0
88	70	10	10000	2	1	0	2	0
87	71	10	10000	2	1	0	2	0
87	72	10	10000	2	1	0	2	0
85	73	10	10000	2	1	0	2	0
84	74	10	10000	2	1	0	2	0
84	75	10	10000	2	1	0	2	0
84	76	10	10000	2	1	0	2	0
85	77	10	10000	2	1	0	2	0
87	78	10	10000	2	1	0	2	0
88	79	10	10000	2	1	0	2	0
88	80	10	10000	2	1	0	2	0
90	81	10	10000	2	1	0	2	0
92	82	10	10000	2	1	0	2	0
98	83	10	10000	2	1	0	2	0
102	84	10	10000	2	1	0	2	0
103	85	10	10000	2	1	0	2	0
104	86	10	10000	2	1	0	2	0
106	87	10	10000	2	1	0	2	0
109	88	10	10000	2	1	0	2	0
114	89	10	10000	2	1	0	2	0
120	90	10	10000	2	1	0	2	0
127	91	10	10000	2	1	0	2	0
133	92	10	10000	2	1	0	2	0
135	93	10	10000	2	1	0	2	0
137	94	10	10000	2	1	0	2	0
139	95	10	10000	2	1	0	2	0
140	96	10	10000	2	1	0	2	0
140	97	10	10000	2	1	0	2	0
140	98	10	10000	2	1	0	2	0
140	99	10	10000	2	1	0	2	0
141	100	10	10000	2	1	0	2	0
142	101	10	10000	2	1	0	2	0
140	102	10	10000	2	1	0	2	0
140	103	10	10000	2	1	0	2	0
137	104	10	10000	2	1	0	2	0
134	105	10	10000	2	1	0	2	0
131	106	10	10000	2	1	0	2	0
130	107	10	10000	2	1	0	2	0
129	108	10	10000	2	1	0	2	0
128	109	10	10000	2	1	0	2	0
125	110	10	10000	2	1	0	2	0
122	111	10	10000	2	1	0	2	0
119	112	10	10000	2	1	0	2	0
114	113	10	10000	2	1	0	2	0
110	114	10	10000	2	1	0	2	0
107	115	10	10000	2	1	0	2	0
103	116	10	10000	2	1	0	2	0
100	117	10	10000	2	1	0	2	0
99	118	10	10000	2	1	0	2	0
94	119	10	10000	2	1	0	2	0
90	120	10	10000	2	1	0	2	0
89	121	10	10000	2	1	0	2	0
88	122	10	10000	2	1	0	2	0
89	123	10	10000	2	1	0	2	0
88	124	10	10000	2	1	0	2	0
86	125	10	10000	2	1	0	2	0
84	126	10	10000	2	1	0	2	0
83	127	10	10000	2	1	0	2	0
80	128	10	10000	2	1	0	2	0
77	129	10	10000	2	1	0	2	0
76	130	10	10000	2	1	0	2	0
74	131	10	10000	2	1	0	2	0
70	132	10	10000	2	1	0	2	0
67	133	10	10000	2	1	0	2	0
64	134	10	10000	2	1	0	2	0
62	135	10	10000	2	1	0	2	0
61	136	10	10000	2	1	0	2	0
58	137	10	10000	2	1	0	2	0
56	138	10	10000	2	1	0	2	0
55	139	10	10000	2	1	0	2	0
54	140	10	10000	2	1	0	2	0
52	141	10	10000	2	1	0	2	0
50	142	10	10000	2	1	0	2	0
51	143	10	10000	2	1	0	2	0
52	144	10	10000	2	1	0	2	0
49	145	10	10000	2	1	0	2	0
47	146	10	10000	2	1	0	2	0
47	147	10	10000	2	1	0	2	0
46	148	10	10000	2	1	0	2	0
44	149	10	10000	2	1	0	2	0
43	150	10	10000	2	1	0	2	0
42	151	10	10000	2	1	0	2	0
41	152	10	10000	2	1	0	2	0
38	153	10	10000	2	1	0	2	0
37	154	10	10000	2	1	0	2	0
36	155	10	10000	2	1	0	2	0
35	156	10	10000	2	1	0	2	0
34	157	10	10000	2	1	0	2	0
33	158	10	10000	2	1	0	2	0
32	159	10	10000	2	1	0	2	0
31	160	10	10000	2	1	0	2	0
30	161	10	10000	2	1	0	2	0
28	162	10	10000	2	1	0	2	0
29	163	10	10000	2	1	0	2	0
29	164	10	10000	2	1	0	2	0
28	165	10	10000	2	1	0	2	0
26	166	10	10000	2	1	0	2	0
26	167	10	10000	2	1	0	2	0
25	168	10	10000	2	1	0	2	0
24	169	10	10000	2	1	0	2	0
25	170	10	10000	2	1	0	2	0
25	171	10	10000	2	1	0	2	0
25	172	10	10000	2	1	0	2	0
23	173	10	10000	2	1	0	2	0
23	174	10	10000	2	1	0	2	0
24	175	10	10000	2	1	0	2	0
25	176	10	10000	2	1	0	2	0
25	177	10	10000	2	1	0	2	0
25	178	10	10000	2	1	0	2	0
26	179	10	10000	2	1	0	2	0
25	180	10	10000	2	1	0	2	0
24	181	10	10000	2	1	0	2	0
23	182	10	10000	2	1	0	2	0
25	183	10	10000	2	1	0	2	0
25	184	10	10000	2	1	0	2	0
23	185	10	10000	2	1	0	2	0
23	186	10	10000	2	1	0	2	0
24	187	10	10000	2	1	0	2	0
23	188	10	10000	2	1	0	2	0
22	189	10	10000	2	1	0	2	0
23	190	10	10000	2	1	0	2	0
22	191	10	10000	2	1	0	2	0
22	192	10	10000	2	1	0	2	0
20	193	10	10000	2	1	0	2	0
20	194	10	10000	2	1	0	2	0
20	195	10	10000	2	1	0	2	0
19	196	10	10000	2	1	0	2	0
20	197	10	10000	2	1	0	2	0
20	198	10	10000	2	1	0	2	0
19	199	10	10000	2	1	0	2	0
18	200	10	10000	2	1	0	2	0
19	201	10	10000	2	1	0	2	0
20	202	10	10000	2	1	0	2	0
20	203	10	10000	2	1	0	2	0
20	204	10	10000	2	1	0	2	0
20	205	10	10000	2	1	0	2	0
19	206	10	10000	2	1	0	2	0
20	207	10	10000	2	1	0	2	0
19	208	10	10000	2	1	0	2	0
18	209	10	10000	2	1	0	2	0
19	210	10	10000	2	1	0	2	0
19	211	10	10000	2	1	0	2	0
20	212	10	10000	2	1	0	2	0
19	213	10	10000	2	1	0	2	0
18	214	10	10000	2	1	0	2	0
18	215	10	10000	2	1	0	2	0
19	216	10	10000	2	1	0	2	0
18	217	10	10000	2	1	0	2	0
18	218	10	10000	2	1	0	2	0
19	219	10	10000	2	1	0	2	0
18	220	10	10000	2	1	0	2	0
19	221	10	10000	2	1	0	2	0
19	222	10	10000	2	1	0	2	0
20	223	10	10000	2	1	0	2	0
20	224	10	10000	2	1	0	2	0
20	225	10	10000	2	1	0	2	0
20	226	10	10000	2	1	0	2	0
19	227	10	10000	2	1	0	2	0
19	228	10	10000	2	1	0	2	0
18	229	10	10000	2	1	0	2	0
19	230	10	10000	2	1	0	2	0
19	231	10	10000	2	1	0	2	0
19	232	10	10000	2	1	0	2	0
17	233	10	10000	2	1	0	2	0
16	234	10	10000	2	1	0	2	0
16	235	10	10000	2	1	0	2	0
16	236	10	10000	2	1	0	2	0
16	237	10	10000	2	1	0	2	0
16	238	10	10000	2	1	0	2	0
18	239	10	10000	2	1	0	2	0
19	240	10	10000	2	1	0	2	0
19	241	10	10000	2	1	0	2	0
19	242	10	10000	2	1	0	2	0
20	243	10	10000	2	1	0	2	0
19	244	10	10000	2	1	0	2	0
19	245	10	10000	2	1	0	2	0
18	246	10	10000	2	1	0	2	0
18	247	10	10000	2	1	0	2	0
18	248	10	10000	2	1	0	2	0
19	249	10	10000	2	1	0	2	0
20	250	10	10000	2	1	0	2	0
20	251	10	10000	2	1	0	2	0
20	252	10	10000	2	1	0	2	0
18	253	10	10000	2	1	0	2	0
18	254	10	10000	2	1	0	2	0
18	255	10	10000	2	1	0	2	0
20	256	10	10000	2	1	0	2	0
20	257	10	10000	2	1	0	2	0
20	258	10	10000	2	1	0	2	0
20	259	10	10000	2	1	0	2	0
19	260	10	10000	2	1	0	2	0
19	261	10	10000	2	1	0	2	0
19	262	10	10000	2	1	0	2	0
21	263	10	10000	2	1	0	2	0
20	264	10	10000	2	1	0	2	0
20	265	10	10000	2	1	0	2	0
19	266	10	10000	2	1	0	2	0
19	267	10	10000	2	1	0	2	0
20	268	10	10000	2	1	0	2	0
20	269	10	10000	2	1	0	2	0
20	270	10	10000	2	1	0	2	0
20	271	10	10000	2	1	0	2	0
20	272	10	10000	2	1	0	2	0
19	273	10	10000	2	1	0	2	0
19	274	10	10000	2	1	0	2	0
19	275	10	10000	2	1	0	2	0
19	276	10	10000	2	1	0	2	0
18	277	10	10000	2	1	0	2	0
18	278	10	10000	2	1	0	2	0
18	279	10	10000	2	1	0	2	0
17	280	10	10000	2	1	0	2	0
17	281	10	10000	2	1	0	2	0
16	282	10	10000	2	1	0	2	0
17	283	10	10000	2	1	0	2	0
17	284	10	10000	2	1	0	2	0
16	285	10	10000	2	1	0	2	0
16	286	10	10000	2	1	0	2	0
16	287	10	10000	2	1	0	2	0
16	288	10	10000	2	1	0	2	0
14	289	10	10000	2	1	0	2	0
15	290	10	10000	2	1	0	2	0
15	291	10	10000	2	1	0	2	0
15	292	10	10000	2	1	0	2	0
13	293	10	10000	2	1	0	2	0
14	294	10	10000	2	1	0	2	0
15	295	10	10000	2	1	0	2	0
16	296	10	10000	2	1	0	2	0
16	297	10	10000	2	1	0	2	0
16	298	10	10000	2	1	0	2	0
16	299	10	10000	2	1	0	2	0
15	300	10	10000	2	1	0	2	0
15	301	10	10000	2	1	0	2	0
17	302	10	10000	2	1	0	2	0
19	303	10	10000	2	1	0	2	0
18	304	10	10000	2	1	0	2	0
18	305	10	10000	2	1	0	2	0
17	306	10	10000	2	1	0	2	0
16	307	10	10000	2	1	0	2	0
17	308	10	10000	2	1	0	2	0
16	309	10	10000	2	1	0	2	0
16	310	10	10000	2	1	0	2	0
16	311	10	10000	2	1	0	2	0
16	312	10	10000	2	1	0	2	0
15	313	10	10000	2	1	0	2	0
15	314	10	10000	2	1	0	2	0
15	315	10	10000	2	1	0	2	0
15	316	10	10000	2	1	0	2	0
16	317	10	10000	2	1	0	2	0
16	318	10	10000	2	1	0	2	0
16	319	10	10000	2	1	0	2	0
15	320	10	10000	2	1	0	2	0
15	321	10	10000	2	1	0	2	0
15	322	10	10000	2	1	0	2	0
17	323	10	10000	2	1	0	2	0
18	324	10	10000	2	1	0	2	0
18	325	10	10000	2	1	0	2	0
16	326	10	10000	2	1	0	2	0
17	327	10	10000	2	1	0	2	0
17	328	10	10000	2	1	0	2	0
17	329	10	10000	2	1	0	2	0
18	330	10	10000	2	1	0	2	0
20	331	10	10000	2	1	0	2	0
22	332	10	10000	2	1	0	2	0
22	333	10	10000	2	1	0	2	0
22	334	10	10000	2	1	0	2	0
22	335	10	10000	2	1	0	2	0
24	336	10	10000	2	1	0	2	0
26	337	10	10000	2	1	0	2	0
27	338	10	10000	2	1	0	2	0
29	339	10	10000	2	1	0	2	0
29	340	10	10000	2	1	0	2	0
28	341	10	10000	2	1	0	2	0
27	342	10	10000	2	1	0	2	0
29	343	10	10000	2	1	0	2	0
30	344	10	10000	2	1	0	2	0
32	345	10	10000	2	1	0	2	0
31	346	10	10000	2	1	0	2	0
30	347	10	10000	2	1	0	2	0
29	348	10	10000	2	1	0	2	0
28	349	10	10000	2	1	0	2	0
29	350	10	10000	2	1	0	2	0
30	351	10	10000	2	1	0	2	0
30	352	10	10000	2	1	0	2	0
27	353	10	10000	2	1	0	2	0
30	354	10	10000	2	1	0	2	0
37	355	10	10000	2	1	0	2	0
46	356	10	10000	2	1	0	2	0
52	357	10	10000	2	1	0	2	0
56	358	10	10000	2	1	0	2	0
56	359	10	10000	2	1	0	2	0
58	360	10	10000	2	1	0	2	0
64	361	10	10000	2	1	0	2	0
70	362	10	10000	2	1	0	2	0
76	363	10	10000	2	1	0	2	0
80	364	10	10000	2	1	0	2	0
82	365	10	10000	2	1	0	2	0
80	366	10	10000	2	1	0	2	0
80	367	10	10000	2	1	0	2	0
82	368	10	10000	2	1	0	2	0
84	369	10	10000	2	1	0	2	0
90	370	10	10000	2	1	0	2	0
95	371	10	10000	2	1	0	2	0
96	372	10	10000	2	1	0	2	0
95	373	10	10000	2	1	0	2	0
97	374	10	10000	2	1	0	2	0
102	375	10	10000	2	1	0	2	0
110	376	10	10000	2	1	0	2	0
118	377	10	10000	2	1	0	2	0
121	378	10	10000	2	1	0	2	0
126	379	10	10000	2	1	0	2	0
127	380	10	10000	2	1	0	2	0
128	381	10	10000	2	1	0	2	0
134	382	10	10000	2	1	0	2	0
139	383	10	10000	2	1	0	2	0
137	384	10	10000	2	1	0	2	0
134	385	10	10000	2	1	0	2	0
135	386	10	10000	2	1	0	2	0
131	387	10	10000	2	1	0	2	0
128	388	10	10000	2	1	0	2	0
122	389	10	10000	2	1	0	2	0
117	390	10	10000	2	1	0	2	0
113	391	10	10000	2	1	0	2	0
116	392	10	10000	2	1	0	2	0
127	393	10	10000	2	1	0	2	0
128	394	10	10000	2	1	0	2	0
124	395	10	10000	2	1	0	2	0
119	396	10	10000	2	1	0	2	0
116	397	10	10000	2	1	0	2	0
114	398	10	10000	2	1	0	2	0
109	399	10	10000	2	1	0	2	0
106	400	10	10000	2	1	0	2	0
112	401	10	10000	2	1	0	2	0
116	402	10	10000	2	1	0	2	0
120	403	10	10000	2	1	0	2	0
116	404	10	10000	2	1	0	2	0
114	405	10	10000	2	1	0	2	0
115	406	10	10000	2	1	0	2	0
118	407	10	10000	2	1	0	2	0
125	408	10	10000	2	1	0	2	0
140	409	10	10000	2	1	0	2	0
141	410	10	10000	2	1	0	2	0
150	411	10	10000	2	1	0	2	0
164	412	10	10000	2	1	0	2	0
171	413	10	10000	2	1	0	2	0
173	414	10	10000	2	1	0	2	0
169	415	10	10000	2	1	0	2	0
164	416	10	10000	2	1	0	2	0
162	417	10	10000	2	1	0	2	0
158	418	10	10000	2	1	0	2	0
156	419	10	10000	2	1	0	2	0
153	420	10	10000	2	1	0	2	0
148	421	10	10000	2	1	0	2	0
143	422	10	10000	2	1	0	2	0
139	423	10	10000	2	1	0	2	0
137	424	10	10000	2	1	0	2	0
140	425	10	10000	2	1	0	2	0
143	426	10	10000	2	1	0	2	0
142	427	10	10000	2	1	0	2	0
138	428	10	10000	2	1	0	2	0
132	429	10	10000	2	1	0	2	0
128	430	10	10000	2	1	0	2	0
129	431	10	10000	2	1	0	2	0
132	432	10	10000	2	1	0	2	0
134	433	10	10000	2	1	0	2	0
138	434	10	10000	2	1	0	2	0
135	435	10	10000	2	1	0	2	0
129	436	10	10000	2	1	0	2	0
124	437	10	10000	2	1	0	2	0
119	438	10	10000	2	1	0	2	0
117	439	10	10000	2	1	0	2	0
119	440	10	10000	2	1	0	2	0
123	441	10	10000	2	1	0	2	0
125	442	10	10000	2	1	0	2	0
128	443	10	10000	2	1	0	2	0
126	444	10	10000	2	1	0	2	0
122	445	10	10000	2	1	0	2	0
119	446	10	10000	2	1	0	2	0
118	447	10	10000	2	1	0	2	0
119	448	10	10000	2	1	0	2	0
120	449	10	10000	2	1	0	2	0
122	450	10	10000	2	1	0	2	0
123	451	10	10000	2	1	0	2	0
123	452	10	10000	2	1	0	2	0
122	453	10	10000	2	1	0	2	0
122	454	10	10000	2	1	0	2	0
120	455	10	10000	2	1	0	2	0
118	456	10	10000	2	1	0	2	0
117	457	10	10000	2	1	0	2	0
115	458	10	10000	2	1	0	2	0
113	459	10	10000	2	1	0	2	0
109	460	10	10000	2	1	0	2	0
106	461	10	10000	2	1	0	2	0
104	462	10	10000	2	1	0	2	0
104	463	10	10000	2	1	0	2	0
101	464	10	10000	2	1	0	2	0
100	465	10	10000	2	1	0	2	0
97	466	10	10000	2	1	0	2	0
94	467	10	10000	2	1	0	2	0
92	468	10	10000	2	1	0	2	0
89	469	10	10000	2	1	0	2	0
87	470	10	10000	2	1	0	2	0
85	471	10	10000	2	1	0	2	0
83	472	10	10000	2	1	0	2	0
80	473	10	10000	2	1	0	2	0
81	474	10	10000	2	1	0	2	0
79	475	10	10000	2	1	0	2	0
77	476	10	10000	2	1	0	2	0
75	477	10	10000	2	1	0	2	0
71	478	10	10000	2	1	0	2	0
69	479	10	10000	2	1	0	2	0
67	480	10	10000	2	1	0	2	0
63	481	10	10000	2	1	0	2	0
60	482	10	10000	2	1	0	2	0
60	483	10	10000	2	1	0	2	0
57	484	10	10000	2	1	0	2	0
55	485	10	10000	2	1	0	2	0
53	486	10	10000	2	1	0	2	0
51	487	10	10000	2	1	0	2	0
50	488	10	10000	2	1	0	2	0
47	489	10	10000	2	1	0	2	0
47	490	10	10000	2	1	0	2	0
48	491	10	10000	2	1	0	2	0
47	492	10	10000	2	1	0	2	0
44	493	10	10000	2	1	0	2	0
43	494	10	10000	2	1	0	2	0
42	495	10	10000	2	1	0	2	0
41	496	10	10000	2	1	0	2	0
39	497	10	10000	2	1	0	2	0
38	498	10	10000	2	1	0	2	0
38	499	10	10000	2	1	0	2	0
39	500	10	10000	2	1	0	2	0
40	501	10	10000	2	1	0	2	1
39	502	10	10000	2	1	0	2	1
40	503	10	10000	2	1	0	2	1
39	504	10	10000	2	1	0	2	1
37	505	10	10000	2	1	0	2	1
35	506	10	10000	2	1	0	2	1
34	507	10	10000	2	1	0	2	1
34	508	10	10000	2	1	0	2	1
33	509	10	10000	2	1	0	2	1
33	510	10	10000	2	1	0	2	1
32	511	10	10000	2	1	0	2	1
32	512	10	10000	2	1	0	2	1
30	513	10	10000	2	1	0	2	1
32	514	10	10000	2	1	0	2	1
33	515	10	10000	2	1	0	2	1
33	516	10	10000	2	1	0	2	1
34	517	10	10000	2	1	0	2	1
35	518	10	10000	2	1	0	2	1
35	519	10	10000	2	1	0	2	1
34	520	10	10000	2	1	0	2	1
32	521	10	10000	2	1	0	2	1
31	522	10	10000	2	1	0	2	1
34	523	10	10000	2	1	0	2	1
34	524	10	10000	2	1	0	2	1
34	525	10	10000	2	1	0	2	1
33	526	10	10000	2	1	0	2	1
32	527	10	10000	2	1	0	2	1
31	528	10	10000	2	1	0	2	1
30	529	10	10000	2	1	0	2	1
32	530	10	10000	2	1	0	2	1
31	531	10	10000	2	1	0	2	1
32	532	10	10000	2	1	0	2	1
31	533	10	10000	2	1	0	2	1
32	534	10	10000	2	1	0	2	1
32	535	10	10000	2	1	0	2	1
32	536	10	10000	2	1	0	2	1
31	537	10	10000	2	1	0	2	1
31	538	10	10000	2	1	0	2	1
31	539	10	10000	2	1	0	2	1
30	540	10	10000	2	1	0	2	1
30	541	10	10000	2	1	0	2	1
30	542	10	10000	2	1	0	2	1
33	543	10	10000	2	1	0	2	1
32	544	10	10000	2	1	0	2	1
31	545	10	10000	2	1	0	2	1
30	546	10	10000	2	1	0	2	1
28	547	10	10000	2	1	0	2	1
28	548	10	10000	2	1	0	2	1
27	549	10	10000	2	1	0	2	1
26	550	10	10000	2	1	0	2	1
26	551	10	10000	2	1	0	2	0
26	552	10	10000	2	1	0	2	0
24	553	10	10000	2	1	0	2	0
24	554	10	10000	2	1	0	2	0
25	555	10	10000	2	1	0	2	0
24	556	10	10000	2	1	0	2	0
24	557	10	10000	2	1	0	2	0
23	558	10	10000	2	1	0	2	0
23	559	10	10000	2	1	0	2	0
22	560	10	10000	2	1	0	2	0
21	561	10	10000	2	1	0	2	0
22	562	10	10000	2	1	0	2	0
25	563	10	10000	2	1	0	2	0
25	564	10	10000	2	1	0	2	0
25	565	10	10000	2	1	0	2	0
25	566	10	10000	2	1	0	2	0
23	567	10	10000	2	1	0	2	0
22	568	10	10000	2	1	0	2	0
23	569	10	10000	2	1	0	2	0
23	570	10	10000	2	1	0	2	0
23	571	10	10000	2	1	0	2	0
23	572	10	10000	2	1	0	2	0
21	573	10	10000	2	1	0	2	0
22	574	10	10000	2	1	0	2	0
24	575	10	10000	2	1	0	2	0
24	576	10	10000	2	1	0	2	0
23	577	10	10000	2	1	0	2	0
23	578	10	10000	2	1	0	2	0
22	579	10	10000	2	1	0	2	0
25	580	10	10000	2	1	0	2	0
30	581	10	10000	2	1	0	2	0
31	582	10	10000	2	1	0	2	0
35	583	10	10000	2	1	0	2	0
43	584	10	10000	2	1	0	2	0
75	585	10	10000	2	1	0	2	0
103	586	10	10000	2	1	0	2	0
105	587	10	10000	2	1	0	2	0
111	588	10	10000	2	1	0	2	0
112	589	10	10000	2	1	0	2	0
131	590	10	10000	2	1	0	2	0
138	591	10	10000	2	1	0	2	0
144	592	10	10000	2	1	0	2	0
149	593	10	10000	2	1	0	2	0
163	594	10	10000	2	1	0	2	0
166	595	10	10000	2	1	0	2	0
189	596	10	10000	2	1	0	2	0
199	597	10	10000	2	1	0	2	0
203	598	10	10000	2	1	0	2	0
226	599	10	10000	2	1	0	2	0
242	600	10	10000	2	1	0	2	0
241	601	10	10000	2	1	0	2	0
243	602	10	10000	2	1	0	2	0
265	603	10	10000	2	1	0	2	0
289	604	10	10000	2	1	0	2	0
296	605	10	10000	2	1	0	2	0
310	606	10	10000	2	1	0	2	0
345	607	10	10000	2	1	0	2	0
344	608	10	10000	2	1	0	2	0
341	609	10	10000	2	1	0	2	0
357	610	10	10000	2	1	0	2	0
371	611	10	10000	2	1	0	2	0
380	612	10	10000	2	1	0	2	0
373	613	10	10000	2	1	0	2	0
361	614	10	10000	2	1	0	2	0
346	615	10	10000	2	1	0	2	0
338	616	10	10000	2	1	0	2	0
333	617	10	10000	2	1	0	2	0
345	618	10	10000	2	1	0	2	0
342	619	10	10000	2	1	0	2	0
327	620	10	10000	2	1	0	2	0
323	621	10	10000	2	1	0	2	0
331	622	10	10000	2	1	0	2	0
338	623	10	10000	2	1	0	2	0
336	624	10	10000	2	1	0	2	0
326	625	10	10000	2	1	0	2	0
313	626	10	10000	2	1	0	2	0
304	627	10	10000	2	1	0	2	0
295	628	10	10000	2	1	0	2	0
283	629	10	10000	2	1	0	2	0
272	630	10	10000	2	1	0	2	0
268	631	10	10000	2	1	0	2	0
267	632	10	10000	2	1	0	2	0
264	633	10	10000	2	1	0	2	0
263	634	10	10000	2	1	0	2	0
256	635	10	10000	2	1	0	2	0
245	636	10	10000	2	1	0	2	0
234	637	10	10000	2	1	0	2	0
224	638	10	10000	2	1	0	2	0
214	639	10	10000	2	1	0	2	0
205	640	10	10000	2	1	0	2	0
196	641	10	10000	2	1	0	2	0
189	642	10	10000	2	1	0	2	0
186	643	10	10000	2	1	0	2	0
182	644	10	10000	2	1	0	2	0
183	645	10	10000	2	1	0	2	0
187	646	10	10000	2	1	0	2	0
191	647	10	10000	2	1	0	2	0
197	648	10	10000	2	1	0	2	0
205	649	10	10000	2	1	0	2	0
216	650	10	10000	2	1	0	2	0
224	651	10	10000	2	1	0	2	0
229	652	10	10000	2	1	0	2	0
234	653	10	10000	2	1	0	2	0
242	654	10	10000	2	1	0	2	0
250	655	10	10000	2	1	0	2	0
253	656	10	10000	2	1	0	2	0
253	657	10	10000	2	1	0	2	0
252	658	10	10000	2	1	0	2	0
251	659	10	10000	2	1	0	2	0
252	660	10	10000	2	1	0	2	0
255	661	10	10000	2	1	0	2	0
258	662	10	10000	2	1	0	2	0
260	663	10	10000	2	1	0	2	0
259	664	10	10000	2	1	0	2	0
255	665	10	10000	2	1	0	2	0
251	666	10	10000	2	1	0	2	0
244	667	10	10000	2	1	0	2	0
235	668	10	10000	2	1	0	2	0
225	669	10	10000	2	1	0	2	0
216	670	10	10000	2	1	0	2	0
208	671	10	10000	2	1	0	2	0
201	672	10	10000	2	1	0	2	0
192	673	10	10000	2	1	0	2	0
184	674	10	10000	2	1	0	2	0
176	675	10	10000	2	1	0	2	0
169	676	10	10000	2	1	0	2	0
162	677	10	10000	2	1	0	2	0
156	678	10	10000	2	1	0	2	0
149	679	10	10000	2	1	0	2	0
143	680	10	10000	2	1	0	2	0
139	681	10	10000	2	1	0	2	0
132	682	10	10000	2	1	0	2	0
129	683	10	10000	2	1	0	2	0
127	684	10	10000	2	1	0	2	0
127	685	10	10000	2	1	0	2	0
130	686	10	10000	2	1	0	2	0
138	687	10	10000	2	1	0	2	0
146	688	10	10000	2	1	0	2	0
153	689	10	10000	2	1	0	2	0
160	690	10	10000	2	1	0	2	0
165	691	10	10000	2	1	0	2	0
168	692	10	10000	2	1	0	2	0
168	693	10	10000	2	1	0	2	0
167	694	10	10000	2	1	0	2	0
166	695	10	10000	2	1	0	2	0
165	696	10	10000	2	1	0	2	0
166	697	10	10000	2	1	0	2	0
172	698	10	10000	2	1	0	2	0
178	699	10	10000	2	1	0	2	0
183	700	10	10000	2	1	0	2	0
187	701	10	10000	2	1	0	2	0
189	702	10	10000	2	1	0	2	0
191	703	10	10000	2	1	0	2	0
192	704	10	10000	2	1	0	2	0
186	705	10	10000	2	1	0	2	0
180	706	10	10000	2	1	0	2	0
177	707	10	10000	2	1	0	2	0
177	708	10	10000	2	1	0	2	0
180	709	10	10000	2	1	0	2	0
187	710	10	10000	2	1	0	2	0
196	711	10	10000	2	1	0	2	0
202	712	10	10000	2	1	0	2	0
204	713	10	10000	2	1	0	2	0
208	714	10	10000	2	1	0	2	0
210	715	10	10000	2	1	0	2	0
210	716	10	10000	2	1	0	2	0
204	717	10	10000	2	1	0	2	0
199	718	10	10000	2	1	0	2	0
194	719	10	10000	2	1	0	2	0
189	720	10	10000	2	1	0	2	0
186	721	10	10000	2	1	0	2	0
181	722	10	10000	2	1	0	2	0
178	723	10	10000	2	1	0	2	0
174	724	10	10000	2	1	0	2	0
170	725	10	10000	2	1	0	2	0
167	726	10	10000	2	1	0	2	0
166	727	10	10000	2	1	0	2	0
162	728	10	10000	2	1	0	2	0
158	729	10	10000	2	1	0	2	0
154	730	10	10000	2	1	0	2	0
150	731	10	10000	2	1	0	2	0
143	732	10	10000	2	1	0	2	0
136	733	10	10000	2	1	0	2	0
131	734	10	10000	2	1	0	2	0
129	735	10	10000	2	1	0	2	0
127	736	10	10000	2	1	0	2	0
123	737	10	10000	2	1	0	2	0
119	738	10	10000	2	1	0	2	0
115	739	10	10000	2	1	0	2	0
109	740	10	10000	2	1	0	2	0
104	741	10	10000	2	1	0	2	0
101	742	10	10000	2	1	0	2	0
99	743	10	10000	2	1	0	2	0
96	744	10	10000	2	1	0	2	0
95	745	10	10000	2	1	0	2	0
93	746	10	10000	2	1	0	2	0
92	747	10	10000	2	1	0	2	0
89	748	10	10000	2	1	0	2	0
86	749	10	10000	2	1	0	2	0
84	750	10	10000	2	1	0	2	0
80	751	10	10000	2	1	0	2	0
78	752	10	10000	2	1	0	2	0
74	753	10	10000	2	1	0	2	0
72	754	10	10000	2	1	0	2	0
69	755	10	10000	2	1	0	2	0
66	756	10	10000	2	1	0	2	0
64	757	10	10000	2	1	0	2	0
62	758	10	10000	2	1	0	2	0
61	759	10	10000	2	1	0	2	0
61	760	10	10000	2	1	0	2	0
60	761	10	10000	2	1	0	2	0
59	762	10	10000	2	1	0	2	0
62	763	10	10000	2	1	0	2	0
62	764	10	10000	2	1	0	2	0
61	765	10	10000	2	1	0	2	0
59	766	10	10000	2	1	0	2	0
57	767	10	10000	2	1	0	2	0
56	768	10	10000	2	1	0	2	0
61	769	10	10000	2	1	0	2	0
68	770	10	10000	2	1	0	2	0
70	771	10	10000	2	1	0	2	0
70	772	10	10000	2	1	0	2	0
66	773	10	10000	2	1	0	2	0
65	774	10	10000	2	1	0	2	0
65	775	10	10000	2	1	0	2	0
66	776	10	10000	2	1	0	2	0
63	777	10	10000	2	1	0	2	0
62	778	10	10000	2	1	0	2	0
62	779	10	10000	2	1	0	2	0
61	780	10	10000	2	1	0	2	0
60	781	10	10000	2	1	0	2	0
60	782	10	10000	2	1	0	2	0
59	783	10	10000	2	1	0	2	0
59	784	10	10000	2	1	0	2	0
57	785	10	10000	2	1	0	2	0
56	786	10	10000	2	1	0	2	0
55	787	10	10000	2	1	0	2	0
54	788	10	10000	2	1	0	2	0
51	789	10	10000	2	1	0	2	0
51	790	10	10000	2	1	0	2	0
53	791	10	10000	2	1	0	2	0
53	792	10	10000	2	1	0	2	0
52	793	10	10000	2	1	0	2	0
51	794	10	10000	2	1	0	2	0
50	795	10	10000	2	1	0	2	0
48	796	10	10000	2	1	0	2	0
47	797	10	10000	2	1	0	2	0
46	798	10	10000	2	1	0	2	0
47	799	10	10000	2	1	0	2	0
47	800	10	10000	2	1	0	2	0
47	801	10	10000	2	1	0	2	0
45	802	10	10000	2	1	0	2	0
45	803	10	10000	2	1	0	2	0
44	804	10	10000	2	1	0	2	0
43	805	10	10000	2	1	0	2	0
41	806	10	10000	2	1	0	2	0
42	807	10	10000	2	1	0	2	0
44	808	10	10000	2	1	0	2	0
45	809	10	10000	2	1	0	2	0
46	810	10	10000	2	1	0	2	0
46	811	10	10000	2	1	0	2	0
47	812	10	10000	2	1	0	2	0
46	813	10	10000	2	1	0	2	0
44	814	10	10000	2	1	0	2	0
43	815	10	10000	2	1	0	2	0
45	816	10	10000	2	1	0	2	0
50	817	10	10000	2	1	0	2	0
58	818	10	10000	2	1	0	2	0
67	819	10	10000	2	1	0	2	0
71	820	10	10000	2	1	0	2	0
70	821	10	10000	2	1	0	2	0
68	822	10	10000	2	1	0	2	0
70	823	10	10000	2	1	0	2	0
71	824	10	10000	2	1	0	2	0
75	825	10	10000	2	1	0	2	0
78	826	10	10000	2	1	0	2	0
78	827	10	10000	2	1	0	2	0
76	828	10	10000	2	1	0	2	0
73	829	10	10000	2	1	0	2	0
71	830	10	10000	2	1	0	2	0
69	831	10	10000	2	1	0	2	0
67	832	10	10000	2	1	0	2	0
68	833	10	10000	2	1	0	2	0
75	834	10	10000	2	1	0	2	0
81	835	10	10000	2	1	0	2	0
85	836	10	10000	2	1	0	2	0
83	837	10	10000	2	1	0	2	0
81	838	10	10000	2	1	0	2	0
83	839	10	10000	2	1	0	2	0
83	840	10	10000	2	1	0	2	0
85	841	10	10000	2	1	0	2	0
87	842	10	10000	2	1	0	2	0
87	843	10	10000	2	1	0	2	0
85	844	10	10000	2	1	0	2	0
84	845	10	10000	2	1	0	2	0
81	846	10	10000	2	1	0	2	0
77	847	10	10000	2	1	0	2	0
75	848	10	10000	2	1	0	2	0
76	849	10	10000	2	1	0	2	0
77	850	10	10000	2	1	0	2	0
77	851	10	10000	2	1	0	2	0
76	852	10	10000	2	1	0	2	0
72	853	10	10000	2	1	0	2	0
71	854	10	10000	2	1	0	2	0
69	855	10	10000	2	1	0	2	0
69	856	10	10000	2	1	0	2	0
67	857	10	10000	2	1	0	2	0
66	858	10	10000	2	1	0	2	0
65	859	10	10000	2	1	0	2	0
62	860	10	10000	2	1	0	2	0
63	861	10	10000	2	1	0	2	0
66	862	10	10000	2	1	0	2	0
68	863	10	10000	2	1	0	2	0
68	864	10	10000	2	1	0	2	0
67	865	10	10000	2	1	0	2	0
64	866	10	10000	2	1	0	2	0
63	867	10	10000	2	1	0	2	0
63	868	10	10000	2	1	0	2	0
63	869	10	10000	2	1	0	2	0
66	870	10	10000	2	1	0	2	0
64	871	10	10000	2	1	0	2	0
62	872	10	10000	2	1	0	2	0
61	873	10	10000	2	1	0	2	0
62	874	10	10000	2	1	0	2	0
67	875	10	10000	2	1	0	2	0
87	876	10	10000	2	1	0	2	0
106	877	10	10000	2	1	0	2	0
120	878	10	10000	2	1	0	2	0
119	879	10	10000	2	1	0	2	0
116	880	10	10000	2	1	0	2	0
126	881	10	10000	2	1	0	2	0
130	882	10	10000	2	1	0	2	0
133	883	10	10000	2	1	0	2	0
141	884	10	10000	2	1	0	2	0
143	885	10	10000	2	1	0	2	0
137	886	10	10000	2	1	0	2	0
135	887	10	10000	2	1	0	2	0
134	888	10	10000	2	1	0	2	0
129	889	10	10000	2	1	0	2	0
126	890	10	10000	2	1	0	2	0
134	891	10	10000	2	1	0	2	0
149	892	10	10000	2	1	0	2	0
150	893	10	10000	2	1	0	2	0
147	894	10	10000	2	1	0	2	0
148	895	10	10000	2	1	0	2	0
147	896	10	10000	2	1	0	2	0
146	897	10	10000	2	1	0	2	0
143	898	10	10000	2	1	0	2	0
138	899	10	10000	2	1	0	2	0
145	900	10	10000	2	1	0	2	0
161	901	10	10000	2	1	0	2	0
169	902	10	10000	2	1	0	2	0
169	903	10	10000	2	1	0	2	0
176	904	10	10000	2	1	0	2	0
185	905	10	10000	2	1	0	2	0
180	906	10	10000	2	1	0	2	0
183	907	10	10000	2	1	0	2	0
182	908	10	10000	2	1	0	2	0
175	909	10	10000	2	1	0	2	0
167	910	10	10000	2	1	0	2	0
161	911	10	10000	2	1	0	2	0
156	912	10	10000	2	1	0	2	0
159	913	10	10000	2	1	0	2	0
169	914	10	10000	2	1	0	2	0
176	915	10	10000	2	1	0	2	0
175	916	10	10000	2	1	0	2	0
171	917	10	10000	2	1	0	2	0
165	918	10	10000	2	1	0	2	0
163	919	10	10000	2	1	0	2	0
164	920	10	10000	2	1	0	2	0
169	921	10	10000	2	1	0	2	0
173	922	10	10000	2	1	0	2	0
170	923	10	10000	2	1	0	2	0
164	924	10	10000	2	1	0	2	0
161	925	10	10000	2	1	0	2	0
158	926	10	10000	2	1	0	2	0
154	927	10	10000	2	1	0	2	0
150	928	10	10000	2	1	0	2	0
142	929	10	10000	2	1	0	2	0
137	930	10	10000	2	1	0	2	0
134	931	10	10000	2	1	0	2	0
137	932	10	10000	2	1	0	2	0
136	933	10	10000	2	1	0	2	0
155	934	10	10000	2	1	0	2	0
177	935	10	10000	2	1	0	2	0
194	936	10	10000	2	1	0	2	0
206	937	10	10000	2	1	0	2	0
212	938	10	10000	2	1	0	2	0
205	939	10	10000	2	1	0	2	0
197	940	10	10000	2	1	0	2	0
193	941	10	10000	2	1	0	2	0
191	942	10	10000	2	1	0	2	0
188	943	10	10000	2	1	0	2	0
181	944	10	10000	2	1	0	2	0
177	945	10	10000	2	1	0	2	0
170	946	10	10000	2	1	0	2	0
165	947	10	10000	2	1	0	2	0
159	948	10	10000	2	1	0	2	0
160	949	10	10000	2	1	0	2	0
170	950	10	10000	2	1	0	2	0
182	951	10	10000	2	1	0	2	0
184	952	10	10000	2	1	0	2	0
175	953	10	10000	2	1	0	2	0
172	954	10	10000	2	1	0	2	0
170	955	10	10000	2	1	0	2	0
168	956	10	10000	2	1	0	2	0
167	957	10	10000	2	1	0	2	0
165	958	10	10000	2	1	0	2	0
166	959	10	10000	2	1	0	2	0
167	960	10	10000	2	1	0	2	0
165	961	10	10000	2	1	0	2	0
161	962	10	10000	2	1	0	2	0
157	963	10	10000	2	1	0	2	0
152	964	10	10000	2	1	0	2	0
147	965	10	10000	2	1	0	2	0
142	966	10	10000	2	1	0	2	0
140	967	10	10000	2	1	0	2	0
140	968	10	10000	2	1	0	2	0
140	969	10	10000	2	1	0	2	0
144	970	10	10000	2	1	0	2	0
146	971	10	10000	2	1	0	2	0
145	972	10	10000	2	1	0	2	0
138	973	10	10000	2	1	0	2	0
136	974	10	10000	2	1	0	2	0
133	975	10	10000	2	1	0	2	0
131	976	10	10000	2	1	0	2	0
127	977	10	10000	2	1	0	2	0
122	978	10	10000	2	1	0	2	0
119	979	10	10000	2	1	0	2	0
114	980	10	10000	2	1	0	2	0
110	981	10	10000	2	1	0	2	0
106	982	10	10000	2	1	0	2	0
106	983	10	10000	2	1	0	2	0
104	984	10	10000	2	1	0	2	0
110	985	10	10000	2	1	0	2	0
116	986	10	10000	2	1	0	2	0
122	987	10	10000	2	1	0	2	0
130	988	10	10000	2	1	0	2	0
128	989	10	10000	2	1	0	2	0
127	990	10	10000	2	1	0	2	0
132	991	10	10000	2	1	0	2	0
139	992	10	10000	2	1	0	2	0
144	993	10	10000	2	1	0	2	0
148	994	10	10000	2	1	0	2	0
149	995	10	10000	2	1	0	2	0
148	996	10	10000	2	1	0	2	0
144	997	10	10000	2	1	0	2	0
140	998	10	10000	2	1	0	2	0
138	999	10	10000	2	1	0	2	0
135	1000	10	10000	2	1	0	2	0
23	1	0	10000	3	1	0	3	0
23	2	0	10000	3	1	0	3	0
21	3	0	10000	3	1	0	3	0
20	4	0	10000	3	1	0	3	0
20	5	0	10000	3	1	0	3	0
20	6	0	10000	3	1	0	3	0
20	7	0	10000	3	1	0	3	0
20	8	0	10000	3	1	0	3	0
19	9	0	10000	3	1	0	3	0
19	10	0	10000	3	1	0	3	0
17	11	0	10000	3	1	0	3	0
17	12	0	10000	3	1	0	3	0
18	13	0	10000	3	1	0	3	0
19	14	0	10000	3	1	0	3	0
19	15	0	10000	3	1	0	3	0
20	16	0	10000	3	1	0	3	0
19	17	0	10000	3	1	0	3	0
19	18	0	10000	3	1	0	3	0
20	19	0	10000	3	1	0	3	0
21	20	0	10000	3	1	0	3	0
22	21	0	10000	3	1	0	3	0
22	22	0	10000	3	1	0	3	0
21	23	0	10000	3	1	0	3	0
21	24	0	10000	3	1	0	3	0
21	25	0	10000	3	1	0	3	0
20	26	0	10000	3	1	0	3	0
19	27	0	10000	3	1	0	3	0
19	28	0	10000	3	1	0	3	0
19	29	0	10000	3	1	0	3	0
19	30	0	10000	3	1	0	3	0
18	31	0	10000	3	1	0	3	0
18	32	0	10000	3	1	0	3	0
18	33	0	10000	3	1	0	3	0
18	34	0	10000	3	1	0	3	0
18	35	0	10000	3	1	0	3	0
18	36	0	10000	3	1	0	3	0
17	37	0	10000	3	1	0	3	0
17	38	0	10000	3	1	0	3	0
18	39	0	10000	3	1	0	3	0
16	40	0	10000	3	1	0	3	0
17	41	0	10000	3	1	0	3	0
18	42	0	10000	3	1	0	3	0
18	43	0	10000	3	1	0	3	0
18	44	0	10000	3	1	0	3	0
18	45	0	10000	3	1	0	3	0
17	46	0	10000	3	1	0	3	0
17	47	0	10000	3	1	0	3	0
17	48	0	10000	3	1	0	3	0
17	49	0	10000	3	1	0	3	0
18	50	0	10000	3	1	0	3	0
17	51	0	10000	3	1	0	3	0
16	52	0	10000	3	1	0	3	0
18	53	0	10000	3	1	0	3	0
19	54	0	10000	3	1	0	3	0
20	55	0	10000	3	1	0	3	0
20	56	0	10000	3	1	0	3	0
20	57	0	10000	3	1	0	3	0
19	58	0	10000	3	1	0	3	0
20	59	0	10000	3	1	0	3	0
19	60	0	10000	3	1	0	3	0
21	61	0	10000	3	1	0	3	0
21	62	0	10000	3	1	0	3	0
20	63	0	10000	3	1	0	3	0
21	64	0	10000	3	1	0	3	0
21	65	0	10000	3	1	0	3	0
21	66	0	10000	3	1	0	3	0
21	67	0	10000	3	1	0	3	0
21	68	0	10000	3	1	0	3	0
22	69	0	10000	3	1	0	3	0
22	70	0	10000	3	1	0	3	0
20	71	0	10000	3	1	0	3	0
20	72	0	10000	3	1	0	3	0
22	73	0	10000	3	1	0	3	0
22	74	0	10000	3	1	0	3	0
24	75	0	10000	3	1	0	3	0
27	76	0	10000	3	1	0	3	0
32	77	0	10000	3	1	0	3	0
35	78	0	10000	3	1	0	3	0
42	79	0	10000	3	1	0	3	0
46	80	0	10000	3	1	0	3	0
52	81	0	10000	3	1	0	3	0
56	82	0	10000	3	1	0	3	0
59	83	0	10000	3	1	0	3	0
65	84	0	10000	3	1	0	3	0
73	85	0	10000	3	1	0	3	0
80	86	0	10000	3	1	0	3	0
86	87	0	10000	3	1	0	3	0
90	88	0	10000	3	1	0	3	0
93	89	0	10000	3	1	0	3	0
94	90	0	10000	3	1	0	3	0
95	91	0	10000	3	1	0	3	0
97	92	0	10000	3	1	0	3	0
98	93	0	10000	3	1	0	3	0
95	94	0	10000	3	1	0	3	0
93	95	0	10000	3	1	0	3	0
92	96	0	10000	3	1	0	3	0
92	97	0	10000	3	1	0	3	0
91	98	0	10000	3	1	0	3	0
88	99	0	10000	3	1	0	3	0
84	100	0	10000	3	1	0	3	0
82	101	0	10000	3	1	0	3	0
79	102	0	10000	3	1	0	3	0
80	103	0	10000	3	1	0	3	0
80	104	0	10000	3	1	0	3	0
82	105	0	10000	3	1	0	3	0
84	106	0	10000	3	1	0	3	0
88	107	0	10000	3	1	0	3	0
91	108	0	10000	3	1	0	3	0
90	109	0	10000	3	1	0	3	0
88	110	0	10000	3	1	0	3	0
85	111	0	10000	3	1	0	3	0
83	112	0	10000	3	1	0	3	0
81	113	0	10000	3	1	0	3	0
80	114	0	10000	3	1	0	3	0
77	115	0	10000	3	1	0	3	0
76	116	0	10000	3	1	0	3	0
74	117	0	10000	3	1	0	3	0
73	118	0	10000	3	1	0	3	0
75	119	0	10000	3	1	0	3	0
78	120	0	10000	3	1	0	3	0
79	121	0	10000	3	1	0	3	0
78	122	0	10000	3	1	0	3	0
77	123	0	10000	3	1	0	3	0
76	124	0	10000	3	1	0	3	0
76	125	0	10000	3	1	0	3	0
75	126	0	10000	3	1	0	3	0
74	127	0	10000	3	1	0	3	0
75	128	0	10000	3	1	0	3	0
76	129	0	10000	3	1	0	3	0
77	130	0	10000	3	1	0	3	0
78	131	0	10000	3	1	0	3	0
77	132	0	10000	3	1	0	3	0
79	133	0	10000	3	1	0	3	0
83	134	0	10000	3	1	0	3	0
86	135	0	10000	3	1	0	3	0
89	136	0	10000	3	1	0	3	0
94	137	0	10000	3	1	0	3	0
97	138	0	10000	3	1	0	3	0
98	139	0	10000	3	1	0	3	0
99	140	0	10000	3	1	0	3	0
103	141	0	10000	3	1	0	3	0
103	142	0	10000	3	1	0	3	0
104	143	0	10000	3	1	0	3	0
108	144	0	10000	3	1	0	3	0
113	145	0	10000	3	1	0	3	0
117	146	0	10000	3	1	0	3	0
118	147	0	10000	3	1	0	3	0
119	148	0	10000	3	1	0	3	0
118	149	0	10000	3	1	0	3	0
116	150	0	10000	3	1	0	3	0
113	151	0	10000	3	1	0	3	0
112	152	0	10000	3	1	0	3	0
109	153	0	10000	3	1	0	3	0
108	154	0	10000	3	1	0	3	0
106	155	0	10000	3	1	0	3	0
105	156	0	10000	3	1	0	3	0
106	157	0	10000	3	1	0	3	0
107	158	0	10000	3	1	0	3	0
107	159	0	10000	3	1	0	3	0
108	160	0	10000	3	1	0	3	0
109	161	0	10000	3	1	0	3	0
107	162	0	10000	3	1	0	3	0
106	163	0	10000	3	1	0	3	0
105	164	0	10000	3	1	0	3	0
105	165	0	10000	3	1	0	3	0
103	166	0	10000	3	1	0	3	0
102	167	0	10000	3	1	0	3	0
102	168	0	10000	3	1	0	3	0
100	169	0	10000	3	1	0	3	0
98	170	0	10000	3	1	0	3	0
94	171	0	10000	3	1	0	3	0
92	172	0	10000	3	1	0	3	0
90	173	0	10000	3	1	0	3	0
90	174	0	10000	3	1	0	3	0
88	175	0	10000	3	1	0	3	0
88	176	0	10000	3	1	0	3	0
88	177	0	10000	3	1	0	3	0
86	178	0	10000	3	1	0	3	0
85	179	0	10000	3	1	0	3	0
82	180	0	10000	3	1	0	3	0
81	181	0	10000	3	1	0	3	0
79	182	0	10000	3	1	0	3	0
77	183	0	10000	3	1	0	3	0
74	184	0	10000	3	1	0	3	0
70	185	0	10000	3	1	0	3	0
68	186	0	10000	3	1	0	3	0
64	187	0	10000	3	1	0	3	0
63	188	0	10000	3	1	0	3	0
63	189	0	10000	3	1	0	3	0
61	190	0	10000	3	1	0	3	0
57	191	0	10000	3	1	0	3	0
55	192	0	10000	3	1	0	3	0
53	193	0	10000	3	1	0	3	0
53	194	0	10000	3	1	0	3	0
52	195	0	10000	3	1	0	3	0
50	196	0	10000	3	1	0	3	0
50	197	0	10000	3	1	0	3	0
47	198	0	10000	3	1	0	3	0
46	199	0	10000	3	1	0	3	0
44	200	0	10000	3	1	0	3	0
44	201	0	10000	3	1	0	3	0
44	202	0	10000	3	1	0	3	0
44	203	0	10000	3	1	0	3	0
44	204	0	10000	3	1	0	3	0
44	205	0	10000	3	1	0	3	0
43	206	0	10000	3	1	0	3	0
41	207	0	10000	3	1	0	3	0
40	208	0	10000	3	1	0	3	0
40	209	0	10000	3	1	0	3	0
39	210	0	10000	3	1	0	3	0
37	211	0	10000	3	1	0	3	0
36	212	0	10000	3	1	0	3	0
35	213	0	10000	3	1	0	3	0
35	214	0	10000	3	1	0	3	0
35	215	0	10000	3	1	0	3	0
36	216	0	10000	3	1	0	3	0
36	217	0	10000	3	1	0	3	0
35	218	0	10000	3	1	0	3	0
35	219	0	10000	3	1	0	3	0
37	220	0	10000	3	1	0	3	0
40	221	0	10000	3	1	0	3	0
40	222	0	10000	3	1	0	3	0
38	223	0	10000	3	1	0	3	0
37	224	0	10000	3	1	0	3	0
38	225	0	10000	3	1	0	3	0
37	226	0	10000	3	1	0	3	0
38	227	0	10000	3	1	0	3	0
40	228	0	10000	3	1	0	3	0
42	229	0	10000	3	1	0	3	0
44	230	0	10000	3	1	0	3	0
44	231	0	10000	3	1	0	3	0
44	232	0	10000	3	1	0	3	0
44	233	0	10000	3	1	0	3	0
42	234	0	10000	3	1	0	3	0
41	235	0	10000	3	1	0	3	0
40	236	0	10000	3	1	0	3	0
39	237	0	10000	3	1	0	3	0
37	238	0	10000	3	1	0	3	0
36	239	0	10000	3	1	0	3	0
35	240	0	10000	3	1	0	3	0
36	241	0	10000	3	1	0	3	0
35	242	0	10000	3	1	0	3	0
34	243	0	10000	3	1	0	3	0
32	244	0	10000	3	1	0	3	0
33	245	0	10000	3	1	0	3	0
34	246	0	10000	3	1	0	3	0
32	247	0	10000	3	1	0	3	0
32	248	0	10000	3	1	0	3	0
32	249	0	10000	3	1	0	3	0
32	250	0	10000	3	1	0	3	0
32	251	0	10000	3	1	0	3	0
34	252	0	10000	3	1	0	3	0
36	253	0	10000	3	1	0	3	0
37	254	0	10000	3	1	0	3	0
37	255	0	10000	3	1	0	3	0
35	256	0	10000	3	1	0	3	0
34	257	0	10000	3	1	0	3	0
33	258	0	10000	3	1	0	3	0
32	259	0	10000	3	1	0	3	0
31	260	0	10000	3	1	0	3	0
31	261	0	10000	3	1	0	3	0
30	262	0	10000	3	1	0	3	0
31	263	0	10000	3	1	0	3	0
30	264	0	10000	3	1	0	3	0
29	265	0	10000	3	1	0	3	0
29	266	0	10000	3	1	0	3	0
27	267	0	10000	3	1	0	3	0
26	268	0	10000	3	1	0	3	0
27	269	0	10000	3	1	0	3	0
26	270	0	10000	3	1	0	3	0
23	271	0	10000	3	1	0	3	0
23	272	0	10000	3	1	0	3	0
23	273	0	10000	3	1	0	3	0
24	274	0	10000	3	1	0	3	0
26	275	0	10000	3	1	0	3	0
29	276	0	10000	3	1	0	3	0
31	277	0	10000	3	1	0	3	0
33	278	0	10000	3	1	0	3	0
33	279	0	10000	3	1	0	3	0
33	280	0	10000	3	1	0	3	0
35	281	0	10000	3	1	0	3	0
35	282	0	10000	3	1	0	3	0
34	283	0	10000	3	1	0	3	0
33	284	0	10000	3	1	0	3	0
32	285	0	10000	3	1	0	3	0
32	286	0	10000	3	1	0	3	0
31	287	0	10000	3	1	0	3	0
30	288	0	10000	3	1	0	3	0
30	289	0	10000	3	1	0	3	0
29	290	0	10000	3	1	0	3	0
27	291	0	10000	3	1	0	3	0
28	292	0	10000	3	1	0	3	0
27	293	0	10000	3	1	0	3	0
28	294	0	10000	3	1	0	3	0
28	295	0	10000	3	1	0	3	0
27	296	0	10000	3	1	0	3	0
29	297	0	10000	3	1	0	3	0
31	298	0	10000	3	1	0	3	0
31	299	0	10000	3	1	0	3	0
31	300	0	10000	3	1	0	3	0
32	301	0	10000	3	1	0	3	0
32	302	0	10000	3	1	0	3	0
31	303	0	10000	3	1	0	3	0
30	304	0	10000	3	1	0	3	0
29	305	0	10000	3	1	0	3	0
28	306	0	10000	3	1	0	3	0
29	307	0	10000	3	1	0	3	0
29	308	0	10000	3	1	0	3	0
29	309	0	10000	3	1	0	3	0
28	310	0	10000	3	1	0	3	0
25	311	0	10000	3	1	0	3	0
26	312	0	10000	3	1	0	3	0
26	313	0	10000	3	1	0	3	0
26	314	0	10000	3	1	0	3	0
27	315	0	10000	3	1	0	3	0
26	316	0	10000	3	1	0	3	0
25	317	0	10000	3	1	0	3	0
24	318	0	10000	3	1	0	3	0
23	319	0	10000	3	1	0	3	0
23	320	0	10000	3	1	0	3	0
26	321	0	10000	3	1	0	3	0
29	322	0	10000	3	1	0	3	0
32	323	0	10000	3	1	0	3	0
35	324	0	10000	3	1	0	3	0
37	325	0	10000	3	1	0	3	0
37	326	0	10000	3	1	0	3	0
36	327	0	10000	3	1	0	3	0
35	328	0	10000	3	1	0	3	0
34	329	0	10000	3	1	0	3	0
34	330	0	10000	3	1	0	3	0
32	331	0	10000	3	1	0	3	0
32	332	0	10000	3	1	0	3	0
32	333	0	10000	3	1	0	3	0
33	334	0	10000	3	1	0	3	0
33	335	0	10000	3	1	0	3	0
32	336	0	10000	3	1	0	3	0
33	337	0	10000	3	1	0	3	0
32	338	0	10000	3	1	0	3	0
31	339	0	10000	3	1	0	3	0
29	340	0	10000	3	1	0	3	0
31	341	0	10000	3	1	0	3	0
30	342	0	10000	3	1	0	3	0
29	343	0	10000	3	1	0	3	0
29	344	0	10000	3	1	0	3	0
29	345	0	10000	3	1	0	3	0
28	346	0	10000	3	1	0	3	0
27	347	0	10000	3	1	0	3	0
27	348	0	10000	3	1	0	3	0
25	349	0	10000	3	1	0	3	0
26	350	0	10000	3	1	0	3	0
25	351	0	10000	3	1	0	3	0
25	352	0	10000	3	1	0	3	0
26	353	0	10000	3	1	0	3	0
26	354	0	10000	3	1	0	3	0
27	355	0	10000	3	1	0	3	0
28	356	0	10000	3	1	0	3	0
29	357	0	10000	3	1	0	3	0
30	358	0	10000	3	1	0	3	0
30	359	0	10000	3	1	0	3	0
29	360	0	10000	3	1	0	3	0
31	361	0	10000	3	1	0	3	0
29	362	0	10000	3	1	0	3	0
28	363	0	10000	3	1	0	3	0
29	364	0	10000	3	1	0	3	0
29	365	0	10000	3	1	0	3	0
29	366	0	10000	3	1	0	3	0
29	367	0	10000	3	1	0	3	0
29	368	0	10000	3	1	0	3	0
28	369	0	10000	3	1	0	3	0
28	370	0	10000	3	1	0	3	0
25	371	0	10000	3	1	0	3	0
25	372	0	10000	3	1	0	3	0
24	373	0	10000	3	1	0	3	0
23	374	0	10000	3	1	0	3	0
23	375	0	10000	3	1	0	3	0
24	376	0	10000	3	1	0	3	0
26	377	0	10000	3	1	0	3	0
28	378	0	10000	3	1	0	3	0
29	379	0	10000	3	1	0	3	0
28	380	0	10000	3	1	0	3	0
30	381	0	10000	3	1	0	3	0
29	382	0	10000	3	1	0	3	0
28	383	0	10000	3	1	0	3	0
28	384	0	10000	3	1	0	3	0
26	385	0	10000	3	1	0	3	0
27	386	0	10000	3	1	0	3	0
28	387	0	10000	3	1	0	3	0
30	388	0	10000	3	1	0	3	0
31	389	0	10000	3	1	0	3	0
30	390	0	10000	3	1	0	3	0
30	391	0	10000	3	1	0	3	0
32	392	0	10000	3	1	0	3	0
36	393	0	10000	3	1	0	3	0
38	394	0	10000	3	1	0	3	0
38	395	0	10000	3	1	0	3	0
38	396	0	10000	3	1	0	3	0
37	397	0	10000	3	1	0	3	0
36	398	0	10000	3	1	0	3	0
35	399	0	10000	3	1	0	3	0
34	400	0	10000	3	1	0	3	0
35	401	0	10000	3	1	0	3	0
34	402	0	10000	3	1	0	3	0
33	403	0	10000	3	1	0	3	0
32	404	0	10000	3	1	0	3	0
31	405	0	10000	3	1	0	3	0
30	406	0	10000	3	1	0	3	0
29	407	0	10000	3	1	0	3	0
28	408	0	10000	3	1	0	3	0
28	409	0	10000	3	1	0	3	0
29	410	0	10000	3	1	0	3	0
29	411	0	10000	3	1	0	3	0
30	412	0	10000	3	1	0	3	0
29	413	0	10000	3	1	0	3	0
29	414	0	10000	3	1	0	3	0
29	415	0	10000	3	1	0	3	0
30	416	0	10000	3	1	0	3	0
31	417	0	10000	3	1	0	3	0
32	418	0	10000	3	1	0	3	0
32	419	0	10000	3	1	0	3	0
32	420	0	10000	3	1	0	3	0
37	421	0	10000	3	1	0	3	0
40	422	0	10000	3	1	0	3	0
42	423	0	10000	3	1	0	3	0
41	424	0	10000	3	1	0	3	0
41	425	0	10000	3	1	0	3	0
42	426	0	10000	3	1	0	3	0
43	427	0	10000	3	1	0	3	0
40	428	0	10000	3	1	0	3	0
40	429	0	10000	3	1	0	3	0
39	430	0	10000	3	1	0	3	0
36	431	0	10000	3	1	0	3	0
36	432	0	10000	3	1	0	3	0
35	433	0	10000	3	1	0	3	0
33	434	0	10000	3	1	0	3	0
33	435	0	10000	3	1	0	3	0
32	436	0	10000	3	1	0	3	0
32	437	0	10000	3	1	0	3	0
30	438	0	10000	3	1	0	3	0
31	439	0	10000	3	1	0	3	0
32	440	0	10000	3	1	0	3	0
35	441	0	10000	3	1	0	3	0
38	442	0	10000	3	1	0	3	0
38	443	0	10000	3	1	0	3	0
36	444	0	10000	3	1	0	3	0
37	445	0	10000	3	1	0	3	0
39	446	0	10000	3	1	0	3	0
43	447	0	10000	3	1	0	3	0
44	448	0	10000	3	1	0	3	0
44	449	0	10000	3	1	0	3	0
43	450	0	10000	3	1	0	3	0
39	451	0	10000	3	1	0	3	0
38	452	0	10000	3	1	0	3	0
37	453	0	10000	3	1	0	3	0
37	454	0	10000	3	1	0	3	0
38	455	0	10000	3	1	0	3	0
40	456	0	10000	3	1	0	3	0
41	457	0	10000	3	1	0	3	0
39	458	0	10000	3	1	0	3	0
38	459	0	10000	3	1	0	3	0
37	460	0	10000	3	1	0	3	0
37	461	0	10000	3	1	0	3	0
35	462	0	10000	3	1	0	3	0
34	463	0	10000	3	1	0	3	0
34	464	0	10000	3	1	0	3	0
36	465	0	10000	3	1	0	3	0
36	466	0	10000	3	1	0	3	0
35	467	0	10000	3	1	0	3	0
35	468	0	10000	3	1	0	3	0
34	469	0	10000	3	1	0	3	0
34	470	0	10000	3	1	0	3	0
31	471	0	10000	3	1	0	3	0
31	472	0	10000	3	1	0	3	0
31	473	0	10000	3	1	0	3	0
30	474	0	10000	3	1	0	3	0
30	475	0	10000	3	1	0	3	0
31	476	0	10000	3	1	0	3	0
29	477	0	10000	3	1	0	3	0
27	478	0	10000	3	1	0	3	0
27	479	0	10000	3	1	0	3	0
27	480	0	10000	3	1	0	3	0
28	481	0	10000	3	1	0	3	0
26	482	0	10000	3	1	0	3	0
26	483	0	10000	3	1	0	3	0
25	484	0	10000	3	1	0	3	0
24	485	0	10000	3	1	0	3	0
24	486	0	10000	3	1	0	3	0
26	487	0	10000	3	1	0	3	0
30	488	0	10000	3	1	0	3	0
30	489	0	10000	3	1	0	3	0
29	490	0	10000	3	1	0	3	0
28	491	0	10000	3	1	0	3	0
30	492	0	10000	3	1	0	3	0
33	493	0	10000	3	1	0	3	0
33	494	0	10000	3	1	0	3	0
33	495	0	10000	3	1	0	3	0
33	496	0	10000	3	1	0	3	0
32	497	0	10000	3	1	0	3	0
31	498	0	10000	3	1	0	3	0
30	499	0	10000	3	1	0	3	0
33	500	0	10000	3	1	0	3	0
41	501	0	10000	3	1	0	3	1
45	502	0	10000	3	1	0	3	1
45	503	0	10000	3	1	0	3	1
44	504	0	10000	3	1	0	3	1
48	505	0	10000	3	1	0	3	1
51	506	0	10000	3	1	0	3	1
52	507	0	10000	3	1	0	3	1
55	508	0	10000	3	1	0	3	1
56	509	0	10000	3	1	0	3	1
56	510	0	10000	3	1	0	3	1
55	511	0	10000	3	1	0	3	1
53	512	0	10000	3	1	0	3	1
52	513	0	10000	3	1	0	3	1
50	514	0	10000	3	1	0	3	1
48	515	0	10000	3	1	0	3	1
47	516	0	10000	3	1	0	3	1
45	517	0	10000	3	1	0	3	1
44	518	0	10000	3	1	0	3	1
44	519	0	10000	3	1	0	3	1
42	520	0	10000	3	1	0	3	1
42	521	0	10000	3	1	0	3	1
40	522	0	10000	3	1	0	3	1
38	523	0	10000	3	1	0	3	1
36	524	0	10000	3	1	0	3	1
37	525	0	10000	3	1	0	3	1
37	526	0	10000	3	1	0	3	1
36	527	0	10000	3	1	0	3	1
36	528	0	10000	3	1	0	3	1
35	529	0	10000	3	1	0	3	1
35	530	0	10000	3	1	0	3	1
34	531	0	10000	3	1	0	3	1
34	532	0	10000	3	1	0	3	1
33	533	0	10000	3	1	0	3	1
35	534	0	10000	3	1	0	3	1
37	535	0	10000	3	1	0	3	1
37	536	0	10000	3	1	0	3	1
36	537	0	10000	3	1	0	3	1
36	538	0	10000	3	1	0	3	1
38	539	0	10000	3	1	0	3	1
37	540	0	10000	3	1	0	3	1
38	541	0	10000	3	1	0	3	1
39	542	0	10000	3	1	0	3	1
37	543	0	10000	3	1	0	3	1
37	544	0	10000	3	1	0	3	1
38	545	0	10000	3	1	0	3	1
36	546	0	10000	3	1	0	3	1
37	547	0	10000	3	1	0	3	1
41	548	0	10000	3	1	0	3	1
44	549	0	10000	3	1	0	3	1
42	550	0	10000	3	1	0	3	1
40	551	0	10000	3	1	0	3	0
40	552	0	10000	3	1	0	3	0
42	553	0	10000	3	1	0	3	0
42	554	0	10000	3	1	0	3	0
41	555	0	10000	3	1	0	3	0
40	556	0	10000	3	1	0	3	0
39	557	0	10000	3	1	0	3	0
38	558	0	10000	3	1	0	3	0
37	559	0	10000	3	1	0	3	0
35	560	0	10000	3	1	0	3	0
35	561	0	10000	3	1	0	3	0
34	562	0	10000	3	1	0	3	0
32	563	0	10000	3	1	0	3	0
32	564	0	10000	3	1	0	3	0
32	565	0	10000	3	1	0	3	0
32	566	0	10000	3	1	0	3	0
32	567	0	10000	3	1	0	3	0
31	568	0	10000	3	1	0	3	0
31	569	0	10000	3	1	0	3	0
31	570	0	10000	3	1	0	3	0
30	571	0	10000	3	1	0	3	0
29	572	0	10000	3	1	0	3	0
30	573	0	10000	3	1	0	3	0
31	574	0	10000	3	1	0	3	0
30	575	0	10000	3	1	0	3	0
30	576	0	10000	3	1	0	3	0
32	577	0	10000	3	1	0	3	0
31	578	0	10000	3	1	0	3	0
30	579	0	10000	3	1	0	3	0
31	580	0	10000	3	1	0	3	0
34	581	0	10000	3	1	0	3	0
35	582	0	10000	3	1	0	3	0
35	583	0	10000	3	1	0	3	0
36	584	0	10000	3	1	0	3	0
37	585	0	10000	3	1	0	3	0
37	586	0	10000	3	1	0	3	0
38	587	0	10000	3	1	0	3	0
39	588	0	10000	3	1	0	3	0
44	589	0	10000	3	1	0	3	0
51	590	0	10000	3	1	0	3	0
51	591	0	10000	3	1	0	3	0
50	592	0	10000	3	1	0	3	0
50	593	0	10000	3	1	0	3	0
51	594	0	10000	3	1	0	3	0
52	595	0	10000	3	1	0	3	0
60	596	0	10000	3	1	0	3	0
72	597	0	10000	3	1	0	3	0
71	598	0	10000	3	1	0	3	0
73	599	0	10000	3	1	0	3	0
78	600	0	10000	3	1	0	3	0
82	601	0	10000	3	1	0	3	0
92	602	0	10000	3	1	0	3	0
101	603	0	10000	3	1	0	3	0
120	604	0	10000	3	1	0	3	0
126	605	0	10000	3	1	0	3	0
142	606	0	10000	3	1	0	3	0
160	607	0	10000	3	1	0	3	0
186	608	0	10000	3	1	0	3	0
224	609	0	10000	3	1	0	3	0
240	610	0	10000	3	1	0	3	0
236	611	0	10000	3	1	0	3	0
225	612	0	10000	3	1	0	3	0
216	613	0	10000	3	1	0	3	0
212	614	0	10000	3	1	0	3	0
218	615	0	10000	3	1	0	3	0
233	616	0	10000	3	1	0	3	0
247	617	0	10000	3	1	0	3	0
248	618	0	10000	3	1	0	3	0
252	619	0	10000	3	1	0	3	0
243	620	0	10000	3	1	0	3	0
237	621	0	10000	3	1	0	3	0
242	622	0	10000	3	1	0	3	0
238	623	0	10000	3	1	0	3	0
244	624	0	10000	3	1	0	3	0
238	625	0	10000	3	1	0	3	0
249	626	0	10000	3	1	0	3	0
258	627	0	10000	3	1	0	3	0
284	628	0	10000	3	1	0	3	0
310	629	0	10000	3	1	0	3	0
305	630	0	10000	3	1	0	3	0
318	631	0	10000	3	1	0	3	0
339	632	0	10000	3	1	0	3	0
351	633	0	10000	3	1	0	3	0
352	634	0	10000	3	1	0	3	0
345	635	0	10000	3	1	0	3	0
335	636	0	10000	3	1	0	3	0
325	637	0	10000	3	1	0	3	0
311	638	0	10000	3	1	0	3	0
297	639	0	10000	3	1	0	3	0
285	640	0	10000	3	1	0	3	0
273	641	0	10000	3	1	0	3	0
263	642	0	10000	3	1	0	3	0
255	643	0	10000	3	1	0	3	0
245	644	0	10000	3	1	0	3	0
234	645	0	10000	3	1	0	3	0
226	646	0	10000	3	1	0	3	0
218	647	0	10000	3	1	0	3	0
213	648	0	10000	3	1	0	3	0
207	649	0	10000	3	1	0	3	0
203	650	0	10000	3	1	0	3	0
198	651	0	10000	3	1	0	3	0
193	652	0	10000	3	1	0	3	0
186	653	0	10000	3	1	0	3	0
178	654	0	10000	3	1	0	3	0
170	655	0	10000	3	1	0	3	0
164	656	0	10000	3	1	0	3	0
161	657	0	10000	3	1	0	3	0
160	658	0	10000	3	1	0	3	0
160	659	0	10000	3	1	0	3	0
160	660	0	10000	3	1	0	3	0
160	661	0	10000	3	1	0	3	0
157	662	0	10000	3	1	0	3	0
154	663	0	10000	3	1	0	3	0
151	664	0	10000	3	1	0	3	0
149	665	0	10000	3	1	0	3	0
148	666	0	10000	3	1	0	3	0
148	667	0	10000	3	1	0	3	0
152	668	0	10000	3	1	0	3	0
156	669	0	10000	3	1	0	3	0
158	670	0	10000	3	1	0	3	0
157	671	0	10000	3	1	0	3	0
155	672	0	10000	3	1	0	3	0
150	673	0	10000	3	1	0	3	0
145	674	0	10000	3	1	0	3	0
139	675	0	10000	3	1	0	3	0
133	676	0	10000	3	1	0	3	0
129	677	0	10000	3	1	0	3	0
123	678	0	10000	3	1	0	3	0
117	679	0	10000	3	1	0	3	0
113	680	0	10000	3	1	0	3	0
109	681	0	10000	3	1	0	3	0
104	682	0	10000	3	1	0	3	0
101	683	0	10000	3	1	0	3	0
97	684	0	10000	3	1	0	3	0
93	685	0	10000	3	1	0	3	0
91	686	0	10000	3	1	0	3	0
88	687	0	10000	3	1	0	3	0
87	688	0	10000	3	1	0	3	0
86	689	0	10000	3	1	0	3	0
84	690	0	10000	3	1	0	3	0
83	691	0	10000	3	1	0	3	0
88	692	0	10000	3	1	0	3	0
93	693	0	10000	3	1	0	3	0
96	694	0	10000	3	1	0	3	0
99	695	0	10000	3	1	0	3	0
102	696	0	10000	3	1	0	3	0
103	697	0	10000	3	1	0	3	0
98	698	0	10000	3	1	0	3	0
94	699	0	10000	3	1	0	3	0
95	700	0	10000	3	1	0	3	0
96	701	0	10000	3	1	0	3	0
97	702	0	10000	3	1	0	3	0
101	703	0	10000	3	1	0	3	0
103	704	0	10000	3	1	0	3	0
107	705	0	10000	3	1	0	3	0
111	706	0	10000	3	1	0	3	0
114	707	0	10000	3	1	0	3	0
117	708	0	10000	3	1	0	3	0
120	709	0	10000	3	1	0	3	0
121	710	0	10000	3	1	0	3	0
118	711	0	10000	3	1	0	3	0
117	712	0	10000	3	1	0	3	0
117	713	0	10000	3	1	0	3	0
117	714	0	10000	3	1	0	3	0
119	715	0	10000	3	1	0	3	0
118	716	0	10000	3	1	0	3	0
118	717	0	10000	3	1	0	3	0
115	718	0	10000	3	1	0	3	0
113	719	0	10000	3	1	0	3	0
112	720	0	10000	3	1	0	3	0
110	721	0	10000	3	1	0	3	0
107	722	0	10000	3	1	0	3	0
104	723	0	10000	3	1	0	3	0
100	724	0	10000	3	1	0	3	0
99	725	0	10000	3	1	0	3	0
102	726	0	10000	3	1	0	3	0
106	727	0	10000	3	1	0	3	0
112	728	0	10000	3	1	0	3	0
115	729	0	10000	3	1	0	3	0
115	730	0	10000	3	1	0	3	0
113	731	0	10000	3	1	0	3	0
113	732	0	10000	3	1	0	3	0
113	733	0	10000	3	1	0	3	0
113	734	0	10000	3	1	0	3	0
112	735	0	10000	3	1	0	3	0
110	736	0	10000	3	1	0	3	0
106	737	0	10000	3	1	0	3	0
102	738	0	10000	3	1	0	3	0
99	739	0	10000	3	1	0	3	0
95	740	0	10000	3	1	0	3	0
93	741	0	10000	3	1	0	3	0
90	742	0	10000	3	1	0	3	0
87	743	0	10000	3	1	0	3	0
87	744	0	10000	3	1	0	3	0
90	745	0	10000	3	1	0	3	0
89	746	0	10000	3	1	0	3	0
84	747	0	10000	3	1	0	3	0
84	748	0	10000	3	1	0	3	0
87	749	0	10000	3	1	0	3	0
90	750	0	10000	3	1	0	3	0
89	751	0	10000	3	1	0	3	0
90	752	0	10000	3	1	0	3	0
89	753	0	10000	3	1	0	3	0
89	754	0	10000	3	1	0	3	0
89	755	0	10000	3	1	0	3	0
88	756	0	10000	3	1	0	3	0
86	757	0	10000	3	1	0	3	0
82	758	0	10000	3	1	0	3	0
80	759	0	10000	3	1	0	3	0
79	760	0	10000	3	1	0	3	0
80	761	0	10000	3	1	0	3	0
78	762	0	10000	3	1	0	3	0
77	763	0	10000	3	1	0	3	0
77	764	0	10000	3	1	0	3	0
78	765	0	10000	3	1	0	3	0
79	766	0	10000	3	1	0	3	0
79	767	0	10000	3	1	0	3	0
81	768	0	10000	3	1	0	3	0
82	769	0	10000	3	1	0	3	0
79	770	0	10000	3	1	0	3	0
78	771	0	10000	3	1	0	3	0
80	772	0	10000	3	1	0	3	0
77	773	0	10000	3	1	0	3	0
77	774	0	10000	3	1	0	3	0
77	775	0	10000	3	1	0	3	0
77	776	0	10000	3	1	0	3	0
78	777	0	10000	3	1	0	3	0
74	778	0	10000	3	1	0	3	0
72	779	0	10000	3	1	0	3	0
71	780	0	10000	3	1	0	3	0
71	781	0	10000	3	1	0	3	0
68	782	0	10000	3	1	0	3	0
67	783	0	10000	3	1	0	3	0
67	784	0	10000	3	1	0	3	0
68	785	0	10000	3	1	0	3	0
65	786	0	10000	3	1	0	3	0
63	787	0	10000	3	1	0	3	0
63	788	0	10000	3	1	0	3	0
62	789	0	10000	3	1	0	3	0
59	790	0	10000	3	1	0	3	0
56	791	0	10000	3	1	0	3	0
55	792	0	10000	3	1	0	3	0
53	793	0	10000	3	1	0	3	0
54	794	0	10000	3	1	0	3	0
55	795	0	10000	3	1	0	3	0
56	796	0	10000	3	1	0	3	0
58	797	0	10000	3	1	0	3	0
63	798	0	10000	3	1	0	3	0
69	799	0	10000	3	1	0	3	0
73	800	0	10000	3	1	0	3	0
75	801	0	10000	3	1	0	3	0
72	802	0	10000	3	1	0	3	0
71	803	0	10000	3	1	0	3	0
72	804	0	10000	3	1	0	3	0
70	805	0	10000	3	1	0	3	0
68	806	0	10000	3	1	0	3	0
67	807	0	10000	3	1	0	3	0
65	808	0	10000	3	1	0	3	0
62	809	0	10000	3	1	0	3	0
60	810	0	10000	3	1	0	3	0
56	811	0	10000	3	1	0	3	0
56	812	0	10000	3	1	0	3	0
56	813	0	10000	3	1	0	3	0
56	814	0	10000	3	1	0	3	0
55	815	0	10000	3	1	0	3	0
53	816	0	10000	3	1	0	3	0
52	817	0	10000	3	1	0	3	0
55	818	0	10000	3	1	0	3	0
57	819	0	10000	3	1	0	3	0
56	820	0	10000	3	1	0	3	0
56	821	0	10000	3	1	0	3	0
54	822	0	10000	3	1	0	3	0
52	823	0	10000	3	1	0	3	0
50	824	0	10000	3	1	0	3	0
49	825	0	10000	3	1	0	3	0
50	826	0	10000	3	1	0	3	0
51	827	0	10000	3	1	0	3	0
54	828	0	10000	3	1	0	3	0
54	829	0	10000	3	1	0	3	0
58	830	0	10000	3	1	0	3	0
61	831	0	10000	3	1	0	3	0
66	832	0	10000	3	1	0	3	0
68	833	0	10000	3	1	0	3	0
68	834	0	10000	3	1	0	3	0
66	835	0	10000	3	1	0	3	0
64	836	0	10000	3	1	0	3	0
62	837	0	10000	3	1	0	3	0
63	838	0	10000	3	1	0	3	0
63	839	0	10000	3	1	0	3	0
63	840	0	10000	3	1	0	3	0
63	841	0	10000	3	1	0	3	0
60	842	0	10000	3	1	0	3	0
58	843	0	10000	3	1	0	3	0
57	844	0	10000	3	1	0	3	0
61	845	0	10000	3	1	0	3	0
65	846	0	10000	3	1	0	3	0
66	847	0	10000	3	1	0	3	0
64	848	0	10000	3	1	0	3	0
62	849	0	10000	3	1	0	3	0
60	850	0	10000	3	1	0	3	0
58	851	0	10000	3	1	0	3	0
61	852	0	10000	3	1	0	3	0
62	853	0	10000	3	1	0	3	0
60	854	0	10000	3	1	0	3	0
58	855	0	10000	3	1	0	3	0
60	856	0	10000	3	1	0	3	0
60	857	0	10000	3	1	0	3	0
58	858	0	10000	3	1	0	3	0
57	859	0	10000	3	1	0	3	0
56	860	0	10000	3	1	0	3	0
57	861	0	10000	3	1	0	3	0
56	862	0	10000	3	1	0	3	0
54	863	0	10000	3	1	0	3	0
55	864	0	10000	3	1	0	3	0
56	865	0	10000	3	1	0	3	0
58	866	0	10000	3	1	0	3	0
56	867	0	10000	3	1	0	3	0
55	868	0	10000	3	1	0	3	0
52	869	0	10000	3	1	0	3	0
52	870	0	10000	3	1	0	3	0
50	871	0	10000	3	1	0	3	0
51	872	0	10000	3	1	0	3	0
53	873	0	10000	3	1	0	3	0
55	874	0	10000	3	1	0	3	0
57	875	0	10000	3	1	0	3	0
59	876	0	10000	3	1	0	3	0
60	877	0	10000	3	1	0	3	0
61	878	0	10000	3	1	0	3	0
63	879	0	10000	3	1	0	3	0
64	880	0	10000	3	1	0	3	0
68	881	0	10000	3	1	0	3	0
66	882	0	10000	3	1	0	3	0
66	883	0	10000	3	1	0	3	0
69	884	0	10000	3	1	0	3	0
71	885	0	10000	3	1	0	3	0
72	886	0	10000	3	1	0	3	0
72	887	0	10000	3	1	0	3	0
74	888	0	10000	3	1	0	3	0
75	889	0	10000	3	1	0	3	0
72	890	0	10000	3	1	0	3	0
68	891	0	10000	3	1	0	3	0
65	892	0	10000	3	1	0	3	0
63	893	0	10000	3	1	0	3	0
61	894	0	10000	3	1	0	3	0
59	895	0	10000	3	1	0	3	0
57	896	0	10000	3	1	0	3	0
56	897	0	10000	3	1	0	3	0
54	898	0	10000	3	1	0	3	0
54	899	0	10000	3	1	0	3	0
56	900	0	10000	3	1	0	3	0
59	901	0	10000	3	1	0	3	0
59	902	0	10000	3	1	0	3	0
59	903	0	10000	3	1	0	3	0
59	904	0	10000	3	1	0	3	0
57	905	0	10000	3	1	0	3	0
57	906	0	10000	3	1	0	3	0
59	907	0	10000	3	1	0	3	0
57	908	0	10000	3	1	0	3	0
55	909	0	10000	3	1	0	3	0
54	910	0	10000	3	1	0	3	0
51	911	0	10000	3	1	0	3	0
50	912	0	10000	3	1	0	3	0
51	913	0	10000	3	1	0	3	0
57	914	0	10000	3	1	0	3	0
66	915	0	10000	3	1	0	3	0
74	916	0	10000	3	1	0	3	0
79	917	0	10000	3	1	0	3	0
78	918	0	10000	3	1	0	3	0
75	919	0	10000	3	1	0	3	0
75	920	0	10000	3	1	0	3	0
81	921	0	10000	3	1	0	3	0
87	922	0	10000	3	1	0	3	0
93	923	0	10000	3	1	0	3	0
100	924	0	10000	3	1	0	3	0
104	925	0	10000	3	1	0	3	0
102	926	0	10000	3	1	0	3	0
99	927	0	10000	3	1	0	3	0
96	928	0	10000	3	1	0	3	0
98	929	0	10000	3	1	0	3	0
99	930	0	10000	3	1	0	3	0
93	931	0	10000	3	1	0	3	0
92	932	0	10000	3	1	0	3	0
92	933	0	10000	3	1	0	3	0
96	934	0	10000	3	1	0	3	0
100	935	0	10000	3	1	0	3	0
99	936	0	10000	3	1	0	3	0
98	937	0	10000	3	1	0	3	0
100	938	0	10000	3	1	0	3	0
103	939	0	10000	3	1	0	3	0
105	940	0	10000	3	1	0	3	0
107	941	0	10000	3	1	0	3	0
103	942	0	10000	3	1	0	3	0
102	943	0	10000	3	1	0	3	0
99	944	0	10000	3	1	0	3	0
96	945	0	10000	3	1	0	3	0
92	946	0	10000	3	1	0	3	0
89	947	0	10000	3	1	0	3	0
85	948	0	10000	3	1	0	3	0
85	949	0	10000	3	1	0	3	0
89	950	0	10000	3	1	0	3	0
90	951	0	10000	3	1	0	3	0
90	952	0	10000	3	1	0	3	0
89	953	0	10000	3	1	0	3	0
90	954	0	10000	3	1	0	3	0
91	955	0	10000	3	1	0	3	0
88	956	0	10000	3	1	0	3	0
86	957	0	10000	3	1	0	3	0
83	958	0	10000	3	1	0	3	0
83	959	0	10000	3	1	0	3	0
86	960	0	10000	3	1	0	3	0
87	961	0	10000	3	1	0	3	0
84	962	0	10000	3	1	0	3	0
86	963	0	10000	3	1	0	3	0
91	964	0	10000	3	1	0	3	0
89	965	0	10000	3	1	0	3	0
89	966	0	10000	3	1	0	3	0
88	967	0	10000	3	1	0	3	0
86	968	0	10000	3	1	0	3	0
82	969	0	10000	3	1	0	3	0
83	970	0	10000	3	1	0	3	0
90	971	0	10000	3	1	0	3	0
96	972	0	10000	3	1	0	3	0
95	973	0	10000	3	1	0	3	0
91	974	0	10000	3	1	0	3	0
87	975	0	10000	3	1	0	3	0
85	976	0	10000	3	1	0	3	0
85	977	0	10000	3	1	0	3	0
87	978	0	10000	3	1	0	3	0
89	979	0	10000	3	1	0	3	0
90	980	0	10000	3	1	0	3	0
89	981	0	10000	3	1	0	3	0
86	982	0	10000	3	1	0	3	0
84	983	0	10000	3	1	0	3	0
82	984	0	10000	3	1	0	3	0
79	985	0	10000	3	1	0	3	0
77	986	0	10000	3	1	0	3	0
77	987	0	10000	3	1	0	3	0
77	988	0	10000	3	1	0	3	0
75	989	0	10000	3	1	0	3	0
74	990	0	10000	3	1	0	3	0
71	991	0	10000	3	1	0	3	0
70	992	0	10000	3	1	0	3	0
68	993	0	10000	3	1	0	3	0
65	994	0	10000	3	1	0	3	0
62	995	0	10000	3	1	0	3	0
62	996	0	10000	3	1	0	3	0
63	997	0	10000	3	1	0	3	0
63	998	0	10000	3	1	0	3	0
63	999	0	10000	3	1	0	3	0
61	1000	0	10000	3	1	0	3	0
42	2	10	10000	4	1	0	4	0
40	3	10	10000	4	1	0	4	0
39	4	10	10000	4	1	0	4	0
39	5	10	10000	4	1	0	4	0
41	6	10	10000	4	1	0	4	0
45	7	10	10000	4	1	0	4	0
49	8	10	10000	4	1	0	4	0
52	9	10	10000	4	1	0	4	0
55	10	10	10000	4	1	0	4	0
56	11	10	10000	4	1	0	4	0
56	12	10	10000	4	1	0	4	0
56	13	10	10000	4	1	0	4	0
57	14	10	10000	4	1	0	4	0
58	15	10	10000	4	1	0	4	0
60	16	10	10000	4	1	0	4	0
60	17	10	10000	4	1	0	4	0
62	18	10	10000	4	1	0	4	0
65	19	10	10000	4	1	0	4	0
66	20	10	10000	4	1	0	4	0
67	21	10	10000	4	1	0	4	0
67	21	10	10000	4	1	0	4	0
67	22	10	10000	4	1	0	4	0
68	24	10	10000	4	1	0	4	0
69	25	10	10000	4	1	0	4	0
68	26	10	10000	4	1	0	4	0
68	27	10	10000	4	1	0	4	0
68	28	10	10000	4	1	0	4	0
68	29	10	10000	4	1	0	4	0
68	30	10	10000	4	1	0	4	0
68	31	10	10000	4	1	0	4	0
67	31	10	10000	4	1	0	4	0
66	32	10	10000	4	1	0	4	0
67	34	10	10000	4	1	0	4	0
65	35	10	10000	4	1	0	4	0
63	36	10	10000	4	1	0	4	0
59	37	10	10000	4	1	0	4	0
57	38	10	10000	4	1	0	4	0
56	39	10	10000	4	1	0	4	0
54	40	10	10000	4	1	0	4	0
53	41	10	10000	4	1	0	4	0
54	41	10	10000	4	1	0	4	0
55	42	10	10000	4	1	0	4	0
53	44	10	10000	4	1	0	4	0
52	45	10	10000	4	1	0	4	0
49	46	10	10000	4	1	0	4	0
49	47	10	10000	4	1	0	4	0
48	48	10	10000	4	1	0	4	0
47	49	10	10000	4	1	0	4	0
47	50	10	10000	4	1	0	4	0
46	51	10	10000	4	1	0	4	0
45	51	10	10000	4	1	0	4	0
44	52	10	10000	4	1	0	4	0
45	54	10	10000	4	1	0	4	0
46	55	10	10000	4	1	0	4	0
44	56	10	10000	4	1	0	4	0
41	57	10	10000	4	1	0	4	0
40	58	10	10000	4	1	0	4	0
40	59	10	10000	4	1	0	4	0
38	60	10	10000	4	1	0	4	0
37	61	10	10000	4	1	0	4	0
37	61	10	10000	4	1	0	4	0
37	62	10	10000	4	1	0	4	0
36	64	10	10000	4	1	0	4	0
34	65	10	10000	4	1	0	4	0
34	66	10	10000	4	1	0	4	0
34	67	10	10000	4	1	0	4	0
33	68	10	10000	4	1	0	4	0
32	69	10	10000	4	1	0	4	0
31	70	10	10000	4	1	0	4	0
30	71	10	10000	4	1	0	4	0
29	71	10	10000	4	1	0	4	0
28	72	10	10000	4	1	0	4	0
28	74	10	10000	4	1	0	4	0
27	75	10	10000	4	1	0	4	0
28	76	10	10000	4	1	0	4	0
26	77	10	10000	4	1	0	4	0
25	78	10	10000	4	1	0	4	0
25	79	10	10000	4	1	0	4	0
25	80	10	10000	4	1	0	4	0
24	81	10	10000	4	1	0	4	0
24	81	10	10000	4	1	0	4	0
23	82	10	10000	4	1	0	4	0
22	84	10	10000	4	1	0	4	0
23	85	10	10000	4	1	0	4	0
21	86	10	10000	4	1	0	4	0
22	87	10	10000	4	1	0	4	0
22	88	10	10000	4	1	0	4	0
22	89	10	10000	4	1	0	4	0
21	90	10	10000	4	1	0	4	0
21	91	10	10000	4	1	0	4	0
21	91	10	10000	4	1	0	4	0
20	92	10	10000	4	1	0	4	0
20	94	10	10000	4	1	0	4	0
21	95	10	10000	4	1	0	4	0
20	96	10	10000	4	1	0	4	0
19	97	10	10000	4	1	0	4	0
19	98	10	10000	4	1	0	4	0
18	99	10	10000	4	1	0	4	0
18	100	10	10000	4	1	0	4	0
18	101	10	10000	4	1	0	4	0
17	101	10	10000	4	1	0	4	0
17	102	10	10000	4	1	0	4	0
17	104	10	10000	4	1	0	4	0
17	105	10	10000	4	1	0	4	0
16	106	10	10000	4	1	0	4	0
17	107	10	10000	4	1	0	4	0
17	108	10	10000	4	1	0	4	0
16	109	10	10000	4	1	0	4	0
15	110	10	10000	4	1	0	4	0
15	111	10	10000	4	1	0	4	0
14	111	10	10000	4	1	0	4	0
14	112	10	10000	4	1	0	4	0
14	114	10	10000	4	1	0	4	0
14	115	10	10000	4	1	0	4	0
15	116	10	10000	4	1	0	4	0
14	117	10	10000	4	1	0	4	0
14	118	10	10000	4	1	0	4	0
14	119	10	10000	4	1	0	4	0
14	120	10	10000	4	1	0	4	0
14	121	10	10000	4	1	0	4	0
14	121	10	10000	4	1	0	4	0
15	122	10	10000	4	1	0	4	0
14	124	10	10000	4	1	0	4	0
13	125	10	10000	4	1	0	4	0
13	126	10	10000	4	1	0	4	0
15	127	10	10000	4	1	0	4	0
15	128	10	10000	4	1	0	4	0
15	129	10	10000	4	1	0	4	0
16	130	10	10000	4	1	0	4	0
16	131	10	10000	4	1	0	4	0
15	131	10	10000	4	1	0	4	0
15	132	10	10000	4	1	0	4	0
15	134	10	10000	4	1	0	4	0
15	135	10	10000	4	1	0	4	0
14	136	10	10000	4	1	0	4	0
13	137	10	10000	4	1	0	4	0
13	138	10	10000	4	1	0	4	0
13	139	10	10000	4	1	0	4	0
14	140	10	10000	4	1	0	4	0
14	141	10	10000	4	1	0	4	0
13	141	10	10000	4	1	0	4	0
14	142	10	10000	4	1	0	4	0
14	144	10	10000	4	1	0	4	0
15	145	10	10000	4	1	0	4	0
15	146	10	10000	4	1	0	4	0
16	147	10	10000	4	1	0	4	0
16	148	10	10000	4	1	0	4	0
16	149	10	10000	4	1	0	4	0
16	150	10	10000	4	1	0	4	0
17	151	10	10000	4	1	0	4	0
18	151	10	10000	4	1	0	4	0
17	152	10	10000	4	1	0	4	0
19	154	10	10000	4	1	0	4	0
18	155	10	10000	4	1	0	4	0
17	156	10	10000	4	1	0	4	0
16	157	10	10000	4	1	0	4	0
15	158	10	10000	4	1	0	4	0
15	159	10	10000	4	1	0	4	0
15	160	10	10000	4	1	0	4	0
15	161	10	10000	4	1	0	4	0
15	161	10	10000	4	1	0	4	0
17	162	10	10000	4	1	0	4	0
17	164	10	10000	4	1	0	4	0
17	165	10	10000	4	1	0	4	0
16	166	10	10000	4	1	0	4	0
18	167	10	10000	4	1	0	4	0
20	168	10	10000	4	1	0	4	0
22	169	10	10000	4	1	0	4	0
21	170	10	10000	4	1	0	4	0
22	171	10	10000	4	1	0	4	0
25	171	10	10000	4	1	0	4	0
28	172	10	10000	4	1	0	4	0
32	174	10	10000	4	1	0	4	0
36	175	10	10000	4	1	0	4	0
39	176	10	10000	4	1	0	4	0
42	177	10	10000	4	1	0	4	0
42	178	10	10000	4	1	0	4	0
40	179	10	10000	4	1	0	4	0
40	180	10	10000	4	1	0	4	0
39	181	10	10000	4	1	0	4	0
39	181	10	10000	4	1	0	4	0
38	182	10	10000	4	1	0	4	0
39	184	10	10000	4	1	0	4	0
42	185	10	10000	4	1	0	4	0
46	186	10	10000	4	1	0	4	0
51	187	10	10000	4	1	0	4	0
52	188	10	10000	4	1	0	4	0
52	189	10	10000	4	1	0	4	0
51	190	10	10000	4	1	0	4	0
48	191	10	10000	4	1	0	4	0
46	191	10	10000	4	1	0	4	0
45	192	10	10000	4	1	0	4	0
44	194	10	10000	4	1	0	4	0
42	195	10	10000	4	1	0	4	0
41	196	10	10000	4	1	0	4	0
38	197	10	10000	4	1	0	4	0
37	198	10	10000	4	1	0	4	0
37	199	10	10000	4	1	0	4	0
37	200	10	10000	4	1	0	4	0
35	201	10	10000	4	1	0	4	0
35	201	10	10000	4	1	0	4	0
37	202	10	10000	4	1	0	4	0
38	204	10	10000	4	1	0	4	0
37	205	10	10000	4	1	0	4	0
36	206	10	10000	4	1	0	4	0
36	207	10	10000	4	1	0	4	0
35	208	10	10000	4	1	0	4	0
35	209	10	10000	4	1	0	4	0
35	210	10	10000	4	1	0	4	0
36	211	10	10000	4	1	0	4	0
37	211	10	10000	4	1	0	4	0
39	212	10	10000	4	1	0	4	0
40	214	10	10000	4	1	0	4	0
42	215	10	10000	4	1	0	4	0
43	216	10	10000	4	1	0	4	0
40	217	10	10000	4	1	0	4	0
39	218	10	10000	4	1	0	4	0
39	219	10	10000	4	1	0	4	0
39	220	10	10000	4	1	0	4	0
38	221	10	10000	4	1	0	4	0
36	221	10	10000	4	1	0	4	0
36	222	10	10000	4	1	0	4	0
34	224	10	10000	4	1	0	4	0
33	225	10	10000	4	1	0	4	0
33	226	10	10000	4	1	0	4	0
34	227	10	10000	4	1	0	4	0
33	228	10	10000	4	1	0	4	0
33	229	10	10000	4	1	0	4	0
33	230	10	10000	4	1	0	4	0
35	231	10	10000	4	1	0	4	0
34	231	10	10000	4	1	0	4	0
33	232	10	10000	4	1	0	4	0
32	234	10	10000	4	1	0	4	0
32	235	10	10000	4	1	0	4	0
31	236	10	10000	4	1	0	4	0
28	237	10	10000	4	1	0	4	0
28	238	10	10000	4	1	0	4	0
27	239	10	10000	4	1	0	4	0
27	240	10	10000	4	1	0	4	0
28	241	10	10000	4	1	0	4	0
28	241	10	10000	4	1	0	4	0
27	242	10	10000	4	1	0	4	0
27	244	10	10000	4	1	0	4	0
27	245	10	10000	4	1	0	4	0
26	246	10	10000	4	1	0	4	0
27	247	10	10000	4	1	0	4	0
27	248	10	10000	4	1	0	4	0
27	249	10	10000	4	1	0	4	0
26	250	10	10000	4	1	0	4	0
25	251	10	10000	4	1	0	4	0
25	251	10	10000	4	1	0	4	0
24	252	10	10000	4	1	0	4	0
25	254	10	10000	4	1	0	4	0
25	255	10	10000	4	1	0	4	0
24	256	10	10000	4	1	0	4	0
22	257	10	10000	4	1	0	4	0
23	258	10	10000	4	1	0	4	0
22	259	10	10000	4	1	0	4	0
23	260	10	10000	4	1	0	4	0
23	261	10	10000	4	1	0	4	0
22	261	10	10000	4	1	0	4	0
22	262	10	10000	4	1	0	4	0
22	264	10	10000	4	1	0	4	0
21	265	10	10000	4	1	0	4	0
21	266	10	10000	4	1	0	4	0
22	267	10	10000	4	1	0	4	0
21	268	10	10000	4	1	0	4	0
21	269	10	10000	4	1	0	4	0
21	270	10	10000	4	1	0	4	0
20	271	10	10000	4	1	0	4	0
22	271	10	10000	4	1	0	4	0
20	272	10	10000	4	1	0	4	0
20	274	10	10000	4	1	0	4	0
21	275	10	10000	4	1	0	4	0
23	276	10	10000	4	1	0	4	0
23	277	10	10000	4	1	0	4	0
24	278	10	10000	4	1	0	4	0
24	279	10	10000	4	1	0	4	0
24	280	10	10000	4	1	0	4	0
24	281	10	10000	4	1	0	4	0
25	281	10	10000	4	1	0	4	0
27	282	10	10000	4	1	0	4	0
27	284	10	10000	4	1	0	4	0
26	285	10	10000	4	1	0	4	0
25	286	10	10000	4	1	0	4	0
26	287	10	10000	4	1	0	4	0
25	288	10	10000	4	1	0	4	0
24	289	10	10000	4	1	0	4	0
24	290	10	10000	4	1	0	4	0
24	291	10	10000	4	1	0	4	0
25	291	10	10000	4	1	0	4	0
24	292	10	10000	4	1	0	4	0
24	294	10	10000	4	1	0	4	0
24	295	10	10000	4	1	0	4	0
23	296	10	10000	4	1	0	4	0
21	297	10	10000	4	1	0	4	0
21	298	10	10000	4	1	0	4	0
20	299	10	10000	4	1	0	4	0
20	300	10	10000	4	1	0	4	0
20	301	10	10000	4	1	0	4	0
19	301	10	10000	4	1	0	4	0
19	302	10	10000	4	1	0	4	0
18	304	10	10000	4	1	0	4	0
18	305	10	10000	4	1	0	4	0
19	306	10	10000	4	1	0	4	0
20	307	10	10000	4	1	0	4	0
20	308	10	10000	4	1	0	4	0
20	309	10	10000	4	1	0	4	0
21	310	10	10000	4	1	0	4	0
22	311	10	10000	4	1	0	4	0
24	311	10	10000	4	1	0	4	0
26	312	10	10000	4	1	0	4	0
25	314	10	10000	4	1	0	4	0
26	315	10	10000	4	1	0	4	0
26	316	10	10000	4	1	0	4	0
26	317	10	10000	4	1	0	4	0
27	318	10	10000	4	1	0	4	0
26	319	10	10000	4	1	0	4	0
26	320	10	10000	4	1	0	4	0
27	321	10	10000	4	1	0	4	0
27	321	10	10000	4	1	0	4	0
27	322	10	10000	4	1	0	4	0
26	324	10	10000	4	1	0	4	0
24	325	10	10000	4	1	0	4	0
24	326	10	10000	4	1	0	4	0
26	327	10	10000	4	1	0	4	0
26	328	10	10000	4	1	0	4	0
27	329	10	10000	4	1	0	4	0
27	330	10	10000	4	1	0	4	0
26	331	10	10000	4	1	0	4	0
26	331	10	10000	4	1	0	4	0
25	332	10	10000	4	1	0	4	0
26	334	10	10000	4	1	0	4	0
25	335	10	10000	4	1	0	4	0
26	336	10	10000	4	1	0	4	0
24	337	10	10000	4	1	0	4	0
24	338	10	10000	4	1	0	4	0
24	339	10	10000	4	1	0	4	0
24	340	10	10000	4	1	0	4	0
25	341	10	10000	4	1	0	4	0
24	341	10	10000	4	1	0	4	0
23	342	10	10000	4	1	0	4	0
23	344	10	10000	4	1	0	4	0
22	345	10	10000	4	1	0	4	0
22	346	10	10000	4	1	0	4	0
24	347	10	10000	4	1	0	4	0
25	348	10	10000	4	1	0	4	0
26	349	10	10000	4	1	0	4	0
25	350	10	10000	4	1	0	4	0
25	351	10	10000	4	1	0	4	0
24	351	10	10000	4	1	0	4	0
24	352	10	10000	4	1	0	4	0
23	354	10	10000	4	1	0	4	0
23	355	10	10000	4	1	0	4	0
24	356	10	10000	4	1	0	4	0
23	357	10	10000	4	1	0	4	0
24	358	10	10000	4	1	0	4	0
24	359	10	10000	4	1	0	4	0
23	360	10	10000	4	1	0	4	0
22	361	10	10000	4	1	0	4	0
22	361	10	10000	4	1	0	4	0
24	362	10	10000	4	1	0	4	0
25	364	10	10000	4	1	0	4	0
24	365	10	10000	4	1	0	4	0
23	366	10	10000	4	1	0	4	0
25	367	10	10000	4	1	0	4	0
25	368	10	10000	4	1	0	4	0
25	369	10	10000	4	1	0	4	0
25	370	10	10000	4	1	0	4	0
25	371	10	10000	4	1	0	4	0
25	371	10	10000	4	1	0	4	0
24	372	10	10000	4	1	0	4	0
25	374	10	10000	4	1	0	4	0
26	375	10	10000	4	1	0	4	0
27	376	10	10000	4	1	0	4	0
25	377	10	10000	4	1	0	4	0
25	378	10	10000	4	1	0	4	0
25	379	10	10000	4	1	0	4	0
25	380	10	10000	4	1	0	4	0
24	381	10	10000	4	1	0	4	0
24	381	10	10000	4	1	0	4	0
23	382	10	10000	4	1	0	4	0
22	384	10	10000	4	1	0	4	0
22	385	10	10000	4	1	0	4	0
21	386	10	10000	4	1	0	4	0
23	387	10	10000	4	1	0	4	0
22	388	10	10000	4	1	0	4	0
21	389	10	10000	4	1	0	4	0
22	390	10	10000	4	1	0	4	0
20	391	10	10000	4	1	0	4	0
20	391	10	10000	4	1	0	4	0
20	392	10	10000	4	1	0	4	0
20	394	10	10000	4	1	0	4	0
21	395	10	10000	4	1	0	4	0
21	396	10	10000	4	1	0	4	0
20	397	10	10000	4	1	0	4	0
20	398	10	10000	4	1	0	4	0
20	399	10	10000	4	1	0	4	0
19	400	10	10000	4	1	0	4	0
18	401	10	10000	4	1	0	4	0
18	401	10	10000	4	1	0	4	0
19	402	10	10000	4	1	0	4	0
18	404	10	10000	4	1	0	4	0
18	405	10	10000	4	1	0	4	0
17	406	10	10000	4	1	0	4	0
19	407	10	10000	4	1	0	4	0
19	408	10	10000	4	1	0	4	0
19	409	10	10000	4	1	0	4	0
19	410	10	10000	4	1	0	4	0
19	411	10	10000	4	1	0	4	0
19	411	10	10000	4	1	0	4	0
20	412	10	10000	4	1	0	4	0
19	414	10	10000	4	1	0	4	0
19	415	10	10000	4	1	0	4	0
19	416	10	10000	4	1	0	4	0
16	417	10	10000	4	1	0	4	0
16	418	10	10000	4	1	0	4	0
17	419	10	10000	4	1	0	4	0
18	420	10	10000	4	1	0	4	0
17	421	10	10000	4	1	0	4	0
16	421	10	10000	4	1	0	4	0
17	422	10	10000	4	1	0	4	0
18	424	10	10000	4	1	0	4	0
17	425	10	10000	4	1	0	4	0
17	426	10	10000	4	1	0	4	0
20	427	10	10000	4	1	0	4	0
20	428	10	10000	4	1	0	4	0
20	429	10	10000	4	1	0	4	0
19	430	10	10000	4	1	0	4	0
19	431	10	10000	4	1	0	4	0
20	431	10	10000	4	1	0	4	0
21	432	10	10000	4	1	0	4	0
20	434	10	10000	4	1	0	4	0
20	435	10	10000	4	1	0	4	0
21	436	10	10000	4	1	0	4	0
19	437	10	10000	4	1	0	4	0
19	438	10	10000	4	1	0	4	0
20	439	10	10000	4	1	0	4	0
18	440	10	10000	4	1	0	4	0
18	441	10	10000	4	1	0	4	0
18	441	10	10000	4	1	0	4	0
19	442	10	10000	4	1	0	4	0
19	444	10	10000	4	1	0	4	0
19	445	10	10000	4	1	0	4	0
20	446	10	10000	4	1	0	4	0
21	447	10	10000	4	1	0	4	0
20	448	10	10000	4	1	0	4	0
20	449	10	10000	4	1	0	4	0
19	450	10	10000	4	1	0	4	0
19	451	10	10000	4	1	0	4	0
19	451	10	10000	4	1	0	4	0
18	452	10	10000	4	1	0	4	0
19	454	10	10000	4	1	0	4	0
19	455	10	10000	4	1	0	4	0
19	456	10	10000	4	1	0	4	0
18	457	10	10000	4	1	0	4	0
19	458	10	10000	4	1	0	4	0
20	459	10	10000	4	1	0	4	0
19	460	10	10000	4	1	0	4	0
18	461	10	10000	4	1	0	4	0
20	461	10	10000	4	1	0	4	0
20	462	10	10000	4	1	0	4	0
19	464	10	10000	4	1	0	4	0
19	465	10	10000	4	1	0	4	0
19	466	10	10000	4	1	0	4	0
19	467	10	10000	4	1	0	4	0
20	468	10	10000	4	1	0	4	0
20	469	10	10000	4	1	0	4	0
20	470	10	10000	4	1	0	4	0
20	471	10	10000	4	1	0	4	0
19	471	10	10000	4	1	0	4	0
19	472	10	10000	4	1	0	4	0
19	474	10	10000	4	1	0	4	0
19	475	10	10000	4	1	0	4	0
19	476	10	10000	4	1	0	4	0
18	477	10	10000	4	1	0	4	0
18	478	10	10000	4	1	0	4	0
18	479	10	10000	4	1	0	4	0
18	480	10	10000	4	1	0	4	0
18	481	10	10000	4	1	0	4	0
19	481	10	10000	4	1	0	4	0
18	482	10	10000	4	1	0	4	0
17	484	10	10000	4	1	0	4	0
18	485	10	10000	4	1	0	4	0
17	486	10	10000	4	1	0	4	0
18	487	10	10000	4	1	0	4	0
19	488	10	10000	4	1	0	4	0
19	489	10	10000	4	1	0	4	0
19	490	10	10000	4	1	0	4	0
20	491	10	10000	4	1	0	4	0
19	491	10	10000	4	1	0	4	0
19	492	10	10000	4	1	0	4	0
20	494	10	10000	4	1	0	4	0
20	495	10	10000	4	1	0	4	0
20	496	10	10000	4	1	0	4	0
19	497	10	10000	4	1	0	4	0
19	498	10	10000	4	1	0	4	0
20	499	10	10000	4	1	0	4	0
20	500	10	10000	4	1	0	4	0
20	501	10	10000	4	1	0	4	0
21	502	10	10000	4	1	0	4	1
21	503	10	10000	4	1	0	4	1
20	504	10	10000	4	1	0	4	1
20	505	10	10000	4	1	0	4	1
19	506	10	10000	4	1	0	4	1
20	507	10	10000	4	1	0	4	1
20	508	10	10000	4	1	0	4	1
19	509	10	10000	4	1	0	4	1
19	510	10	10000	4	1	0	4	1
20	511	10	10000	4	1	0	4	1
18	511	10	10000	4	1	0	4	1
18	512	10	10000	4	1	0	4	1
19	514	10	10000	4	1	0	4	1
19	515	10	10000	4	1	0	4	1
18	516	10	10000	4	1	0	4	1
16	517	10	10000	4	1	0	4	1
16	518	10	10000	4	1	0	4	1
16	519	10	10000	4	1	0	4	1
17	520	10	10000	4	1	0	4	1
18	521	10	10000	4	1	0	4	1
19	521	10	10000	4	1	0	4	1
19	522	10	10000	4	1	0	4	1
18	524	10	10000	4	1	0	4	1
17	525	10	10000	4	1	0	4	1
17	526	10	10000	4	1	0	4	1
18	527	10	10000	4	1	0	4	1
19	528	10	10000	4	1	0	4	1
19	529	10	10000	4	1	0	4	1
18	530	10	10000	4	1	0	4	1
19	531	10	10000	4	1	0	4	1
19	531	10	10000	4	1	0	4	1
19	532	10	10000	4	1	0	4	1
20	534	10	10000	4	1	0	4	1
20	535	10	10000	4	1	0	4	1
20	536	10	10000	4	1	0	4	1
19	537	10	10000	4	1	0	4	1
19	538	10	10000	4	1	0	4	1
20	539	10	10000	4	1	0	4	1
20	540	10	10000	4	1	0	4	1
21	541	10	10000	4	1	0	4	1
23	541	10	10000	4	1	0	4	1
24	542	10	10000	4	1	0	4	1
22	544	10	10000	4	1	0	4	1
21	545	10	10000	4	1	0	4	1
22	546	10	10000	4	1	0	4	1
25	547	10	10000	4	1	0	4	1
27	548	10	10000	4	1	0	4	1
28	549	10	10000	4	1	0	4	1
27	550	10	10000	4	1	0	4	1
26	551	10	10000	4	1	0	4	1
26	551	10	10000	4	1	0	4	0
25	552	10	10000	4	1	0	4	0
27	554	10	10000	4	1	0	4	0
26	555	10	10000	4	1	0	4	0
27	556	10	10000	4	1	0	4	0
27	557	10	10000	4	1	0	4	0
28	558	10	10000	4	1	0	4	0
29	559	10	10000	4	1	0	4	0
29	560	10	10000	4	1	0	4	0
28	561	10	10000	4	1	0	4	0
28	561	10	10000	4	1	0	4	0
27	562	10	10000	4	1	0	4	0
28	564	10	10000	4	1	0	4	0
27	565	10	10000	4	1	0	4	0
26	566	10	10000	4	1	0	4	0
27	567	10	10000	4	1	0	4	0
26	568	10	10000	4	1	0	4	0
27	569	10	10000	4	1	0	4	0
27	570	10	10000	4	1	0	4	0
25	571	10	10000	4	1	0	4	0
25	571	10	10000	4	1	0	4	0
24	572	10	10000	4	1	0	4	0
23	574	10	10000	4	1	0	4	0
24	575	10	10000	4	1	0	4	0
23	576	10	10000	4	1	0	4	0
22	577	10	10000	4	1	0	4	0
21	578	10	10000	4	1	0	4	0
22	579	10	10000	4	1	0	4	0
23	580	10	10000	4	1	0	4	0
22	581	10	10000	4	1	0	4	0
21	581	10	10000	4	1	0	4	0
21	582	10	10000	4	1	0	4	0
20	584	10	10000	4	1	0	4	0
22	585	10	10000	4	1	0	4	0
25	586	10	10000	4	1	0	4	0
27	587	10	10000	4	1	0	4	0
28	588	10	10000	4	1	0	4	0
33	589	10	10000	4	1	0	4	0
52	590	10	10000	4	1	0	4	0
72	591	10	10000	4	1	0	4	0
79	591	10	10000	4	1	0	4	0
80	592	10	10000	4	1	0	4	0
83	594	10	10000	4	1	0	4	0
88	595	10	10000	4	1	0	4	0
92	596	10	10000	4	1	0	4	0
118	597	10	10000	4	1	0	4	0
138	598	10	10000	4	1	0	4	0
150	599	10	10000	4	1	0	4	0
154	600	10	10000	4	1	0	4	0
158	601	10	10000	4	1	0	4	0
172	601	10	10000	4	1	0	4	0
221	602	10	10000	4	1	0	4	0
223	604	10	10000	4	1	0	4	0
225	605	10	10000	4	1	0	4	0
228	606	10	10000	4	1	0	4	0
249	607	10	10000	4	1	0	4	0
247	608	10	10000	4	1	0	4	0
245	609	10	10000	4	1	0	4	0
253	610	10	10000	4	1	0	4	0
255	611	10	10000	4	1	0	4	0
251	611	10	10000	4	1	0	4	0
263	612	10	10000	4	1	0	4	0
265	614	10	10000	4	1	0	4	0
327	615	10	10000	4	1	0	4	0
393	616	10	10000	4	1	0	4	0
392	617	10	10000	4	1	0	4	0
409	618	10	10000	4	1	0	4	0
423	619	10	10000	4	1	0	4	0
425	620	10	10000	4	1	0	4	0
423	621	10	10000	4	1	0	4	0
415	621	10	10000	4	1	0	4	0
404	622	10	10000	4	1	0	4	0
391	624	10	10000	4	1	0	4	0
377	625	10	10000	4	1	0	4	0
373	626	10	10000	4	1	0	4	0
372	627	10	10000	4	1	0	4	0
359	628	10	10000	4	1	0	4	0
349	629	10	10000	4	1	0	4	0
335	630	10	10000	4	1	0	4	0
329	631	10	10000	4	1	0	4	0
326	631	10	10000	4	1	0	4	0
318	632	10	10000	4	1	0	4	0
306	634	10	10000	4	1	0	4	0
293	635	10	10000	4	1	0	4	0
281	636	10	10000	4	1	0	4	0
269	637	10	10000	4	1	0	4	0
260	638	10	10000	4	1	0	4	0
249	639	10	10000	4	1	0	4	0
239	640	10	10000	4	1	0	4	0
231	641	10	10000	4	1	0	4	0
221	641	10	10000	4	1	0	4	0
211	642	10	10000	4	1	0	4	0
201	644	10	10000	4	1	0	4	0
196	645	10	10000	4	1	0	4	0
198	646	10	10000	4	1	0	4	0
202	647	10	10000	4	1	0	4	0
201	648	10	10000	4	1	0	4	0
198	649	10	10000	4	1	0	4	0
193	650	10	10000	4	1	0	4	0
188	651	10	10000	4	1	0	4	0
184	651	10	10000	4	1	0	4	0
180	652	10	10000	4	1	0	4	0
179	654	10	10000	4	1	0	4	0
178	655	10	10000	4	1	0	4	0
178	656	10	10000	4	1	0	4	0
177	657	10	10000	4	1	0	4	0
178	658	10	10000	4	1	0	4	0
178	659	10	10000	4	1	0	4	0
177	660	10	10000	4	1	0	4	0
175	661	10	10000	4	1	0	4	0
171	661	10	10000	4	1	0	4	0
168	662	10	10000	4	1	0	4	0
168	664	10	10000	4	1	0	4	0
170	665	10	10000	4	1	0	4	0
174	666	10	10000	4	1	0	4	0
176	667	10	10000	4	1	0	4	0
175	668	10	10000	4	1	0	4	0
171	669	10	10000	4	1	0	4	0
168	670	10	10000	4	1	0	4	0
164	671	10	10000	4	1	0	4	0
160	671	10	10000	4	1	0	4	0
154	672	10	10000	4	1	0	4	0
149	674	10	10000	4	1	0	4	0
143	675	10	10000	4	1	0	4	0
138	676	10	10000	4	1	0	4	0
130	677	10	10000	4	1	0	4	0
125	678	10	10000	4	1	0	4	0
120	679	10	10000	4	1	0	4	0
118	680	10	10000	4	1	0	4	0
117	681	10	10000	4	1	0	4	0
116	681	10	10000	4	1	0	4	0
117	682	10	10000	4	1	0	4	0
117	684	10	10000	4	1	0	4	0
117	685	10	10000	4	1	0	4	0
117	686	10	10000	4	1	0	4	0
118	687	10	10000	4	1	0	4	0
115	688	10	10000	4	1	0	4	0
113	689	10	10000	4	1	0	4	0
109	690	10	10000	4	1	0	4	0
105	691	10	10000	4	1	0	4	0
103	691	10	10000	4	1	0	4	0
100	692	10	10000	4	1	0	4	0
100	694	10	10000	4	1	0	4	0
100	695	10	10000	4	1	0	4	0
100	696	10	10000	4	1	0	4	0
102	697	10	10000	4	1	0	4	0
107	698	10	10000	4	1	0	4	0
110	699	10	10000	4	1	0	4	0
112	700	10	10000	4	1	0	4	0
114	701	10	10000	4	1	0	4	0
116	701	10	10000	4	1	0	4	0
118	702	10	10000	4	1	0	4	0
120	704	10	10000	4	1	0	4	0
120	705	10	10000	4	1	0	4	0
119	706	10	10000	4	1	0	4	0
121	707	10	10000	4	1	0	4	0
123	708	10	10000	4	1	0	4	0
127	709	10	10000	4	1	0	4	0
129	710	10	10000	4	1	0	4	0
128	711	10	10000	4	1	0	4	0
124	711	10	10000	4	1	0	4	0
122	712	10	10000	4	1	0	4	0
121	714	10	10000	4	1	0	4	0
120	715	10	10000	4	1	0	4	0
118	716	10	10000	4	1	0	4	0
115	717	10	10000	4	1	0	4	0
113	718	10	10000	4	1	0	4	0
114	719	10	10000	4	1	0	4	0
116	720	10	10000	4	1	0	4	0
118	721	10	10000	4	1	0	4	0
118	721	10	10000	4	1	0	4	0
119	722	10	10000	4	1	0	4	0
119	724	10	10000	4	1	0	4	0
117	725	10	10000	4	1	0	4	0
115	726	10	10000	4	1	0	4	0
115	727	10	10000	4	1	0	4	0
113	728	10	10000	4	1	0	4	0
112	729	10	10000	4	1	0	4	0
111	730	10	10000	4	1	0	4	0
108	731	10	10000	4	1	0	4	0
106	731	10	10000	4	1	0	4	0
102	732	10	10000	4	1	0	4	0
98	734	10	10000	4	1	0	4	0
94	735	10	10000	4	1	0	4	0
92	736	10	10000	4	1	0	4	0
88	737	10	10000	4	1	0	4	0
89	738	10	10000	4	1	0	4	0
90	739	10	10000	4	1	0	4	0
90	740	10	10000	4	1	0	4	0
91	741	10	10000	4	1	0	4	0
89	741	10	10000	4	1	0	4	0
84	742	10	10000	4	1	0	4	0
81	744	10	10000	4	1	0	4	0
78	745	10	10000	4	1	0	4	0
75	746	10	10000	4	1	0	4	0
75	747	10	10000	4	1	0	4	0
71	748	10	10000	4	1	0	4	0
68	749	10	10000	4	1	0	4	0
67	750	10	10000	4	1	0	4	0
64	751	10	10000	4	1	0	4	0
62	751	10	10000	4	1	0	4	0
62	752	10	10000	4	1	0	4	0
61	754	10	10000	4	1	0	4	0
60	755	10	10000	4	1	0	4	0
60	756	10	10000	4	1	0	4	0
58	757	10	10000	4	1	0	4	0
56	758	10	10000	4	1	0	4	0
55	759	10	10000	4	1	0	4	0
53	760	10	10000	4	1	0	4	0
51	761	10	10000	4	1	0	4	0
50	761	10	10000	4	1	0	4	0
48	762	10	10000	4	1	0	4	0
46	764	10	10000	4	1	0	4	0
46	765	10	10000	4	1	0	4	0
45	766	10	10000	4	1	0	4	0
45	767	10	10000	4	1	0	4	0
43	768	10	10000	4	1	0	4	0
43	769	10	10000	4	1	0	4	0
42	770	10	10000	4	1	0	4	0
41	771	10	10000	4	1	0	4	0
42	771	10	10000	4	1	0	4	0
42	772	10	10000	4	1	0	4	0
42	774	10	10000	4	1	0	4	0
43	775	10	10000	4	1	0	4	0
43	776	10	10000	4	1	0	4	0
42	777	10	10000	4	1	0	4	0
41	778	10	10000	4	1	0	4	0
39	779	10	10000	4	1	0	4	0
38	780	10	10000	4	1	0	4	0
37	781	10	10000	4	1	0	4	0
37	781	10	10000	4	1	0	4	0
36	782	10	10000	4	1	0	4	0
35	784	10	10000	4	1	0	4	0
35	785	10	10000	4	1	0	4	0
37	786	10	10000	4	1	0	4	0
44	787	10	10000	4	1	0	4	0
49	788	10	10000	4	1	0	4	0
49	789	10	10000	4	1	0	4	0
48	790	10	10000	4	1	0	4	0
50	791	10	10000	4	1	0	4	0
48	791	10	10000	4	1	0	4	0
47	792	10	10000	4	1	0	4	0
48	794	10	10000	4	1	0	4	0
48	795	10	10000	4	1	0	4	0
47	796	10	10000	4	1	0	4	0
44	797	10	10000	4	1	0	4	0
44	798	10	10000	4	1	0	4	0
43	799	10	10000	4	1	0	4	0
41	800	10	10000	4	1	0	4	0
40	801	10	10000	4	1	0	4	0
39	801	10	10000	4	1	0	4	0
38	802	10	10000	4	1	0	4	0
37	804	10	10000	4	1	0	4	0
34	805	10	10000	4	1	0	4	0
35	806	10	10000	4	1	0	4	0
36	807	10	10000	4	1	0	4	0
36	808	10	10000	4	1	0	4	0
35	809	10	10000	4	1	0	4	0
33	810	10	10000	4	1	0	4	0
32	811	10	10000	4	1	0	4	0
31	811	10	10000	4	1	0	4	0
31	812	10	10000	4	1	0	4	0
33	814	10	10000	4	1	0	4	0
37	815	10	10000	4	1	0	4	0
39	816	10	10000	4	1	0	4	0
38	817	10	10000	4	1	0	4	0
38	818	10	10000	4	1	0	4	0
37	819	10	10000	4	1	0	4	0
35	820	10	10000	4	1	0	4	0
35	821	10	10000	4	1	0	4	0
39	821	10	10000	4	1	0	4	0
40	822	10	10000	4	1	0	4	0
39	824	10	10000	4	1	0	4	0
39	825	10	10000	4	1	0	4	0
41	826	10	10000	4	1	0	4	0
43	827	10	10000	4	1	0	4	0
44	828	10	10000	4	1	0	4	0
44	829	10	10000	4	1	0	4	0
43	830	10	10000	4	1	0	4	0
42	831	10	10000	4	1	0	4	0
41	831	10	10000	4	1	0	4	0
40	832	10	10000	4	1	0	4	0
42	834	10	10000	4	1	0	4	0
43	835	10	10000	4	1	0	4	0
42	836	10	10000	4	1	0	4	0
41	837	10	10000	4	1	0	4	0
41	838	10	10000	4	1	0	4	0
40	839	10	10000	4	1	0	4	0
39	840	10	10000	4	1	0	4	0
39	841	10	10000	4	1	0	4	0
38	841	10	10000	4	1	0	4	0
36	842	10	10000	4	1	0	4	0
35	844	10	10000	4	1	0	4	0
35	845	10	10000	4	1	0	4	0
35	846	10	10000	4	1	0	4	0
35	847	10	10000	4	1	0	4	0
34	848	10	10000	4	1	0	4	0
32	849	10	10000	4	1	0	4	0
32	850	10	10000	4	1	0	4	0
32	851	10	10000	4	1	0	4	0
32	851	10	10000	4	1	0	4	0
32	852	10	10000	4	1	0	4	0
33	854	10	10000	4	1	0	4	0
34	855	10	10000	4	1	0	4	0
40	856	10	10000	4	1	0	4	0
46	857	10	10000	4	1	0	4	0
51	858	10	10000	4	1	0	4	0
51	859	10	10000	4	1	0	4	0
49	860	10	10000	4	1	0	4	0
48	861	10	10000	4	1	0	4	0
48	861	10	10000	4	1	0	4	0
52	862	10	10000	4	1	0	4	0
57	864	10	10000	4	1	0	4	0
63	865	10	10000	4	1	0	4	0
67	866	10	10000	4	1	0	4	0
68	867	10	10000	4	1	0	4	0
68	868	10	10000	4	1	0	4	0
67	869	10	10000	4	1	0	4	0
66	870	10	10000	4	1	0	4	0
66	871	10	10000	4	1	0	4	0
70	871	10	10000	4	1	0	4	0
75	872	10	10000	4	1	0	4	0
83	874	10	10000	4	1	0	4	0
89	875	10	10000	4	1	0	4	0
91	876	10	10000	4	1	0	4	0
87	877	10	10000	4	1	0	4	0
88	878	10	10000	4	1	0	4	0
90	879	10	10000	4	1	0	4	0
89	880	10	10000	4	1	0	4	0
86	881	10	10000	4	1	0	4	0
82	881	10	10000	4	1	0	4	0
80	882	10	10000	4	1	0	4	0
77	884	10	10000	4	1	0	4	0
76	885	10	10000	4	1	0	4	0
78	886	10	10000	4	1	0	4	0
81	887	10	10000	4	1	0	4	0
82	888	10	10000	4	1	0	4	0
82	889	10	10000	4	1	0	4	0
81	890	10	10000	4	1	0	4	0
82	891	10	10000	4	1	0	4	0
78	891	10	10000	4	1	0	4	0
77	892	10	10000	4	1	0	4	0
79	894	10	10000	4	1	0	4	0
79	895	10	10000	4	1	0	4	0
78	896	10	10000	4	1	0	4	0
74	897	10	10000	4	1	0	4	0
75	898	10	10000	4	1	0	4	0
80	899	10	10000	4	1	0	4	0
83	900	10	10000	4	1	0	4	0
82	901	10	10000	4	1	0	4	0
80	901	10	10000	4	1	0	4	0
81	902	10	10000	4	1	0	4	0
83	904	10	10000	4	1	0	4	0
86	905	10	10000	4	1	0	4	0
89	906	10	10000	4	1	0	4	0
91	907	10	10000	4	1	0	4	0
89	908	10	10000	4	1	0	4	0
85	909	10	10000	4	1	0	4	0
83	910	10	10000	4	1	0	4	0
84	911	10	10000	4	1	0	4	0
84	911	10	10000	4	1	0	4	0
81	912	10	10000	4	1	0	4	0
80	914	10	10000	4	1	0	4	0
77	915	10	10000	4	1	0	4	0
75	916	10	10000	4	1	0	4	0
71	917	10	10000	4	1	0	4	0
68	918	10	10000	4	1	0	4	0
66	919	10	10000	4	1	0	4	0
64	920	10	10000	4	1	0	4	0
64	921	10	10000	4	1	0	4	0
64	921	10	10000	4	1	0	4	0
62	922	10	10000	4	1	0	4	0
59	924	10	10000	4	1	0	4	0
57	925	10	10000	4	1	0	4	0
56	926	10	10000	4	1	0	4	0
57	927	10	10000	4	1	0	4	0
59	928	10	10000	4	1	0	4	0
64	929	10	10000	4	1	0	4	0
66	930	10	10000	4	1	0	4	0
64	931	10	10000	4	1	0	4	0
64	931	10	10000	4	1	0	4	0
65	932	10	10000	4	1	0	4	0
64	934	10	10000	4	1	0	4	0
64	935	10	10000	4	1	0	4	0
61	936	10	10000	4	1	0	4	0
62	937	10	10000	4	1	0	4	0
63	938	10	10000	4	1	0	4	0
61	939	10	10000	4	1	0	4	0
60	940	10	10000	4	1	0	4	0
57	941	10	10000	4	1	0	4	0
55	941	10	10000	4	1	0	4	0
56	942	10	10000	4	1	0	4	0
58	944	10	10000	4	1	0	4	0
61	945	10	10000	4	1	0	4	0
61	946	10	10000	4	1	0	4	0
61	947	10	10000	4	1	0	4	0
61	948	10	10000	4	1	0	4	0
62	949	10	10000	4	1	0	4	0
60	950	10	10000	4	1	0	4	0
59	951	10	10000	4	1	0	4	0
58	951	10	10000	4	1	0	4	0
56	952	10	10000	4	1	0	4	0
57	954	10	10000	4	1	0	4	0
59	955	10	10000	4	1	0	4	0
59	956	10	10000	4	1	0	4	0
56	957	10	10000	4	1	0	4	0
55	958	10	10000	4	1	0	4	0
53	959	10	10000	4	1	0	4	0
52	960	10	10000	4	1	0	4	0
50	961	10	10000	4	1	0	4	0
52	961	10	10000	4	1	0	4	0
52	962	10	10000	4	1	0	4	0
49	964	10	10000	4	1	0	4	0
48	965	10	10000	4	1	0	4	0
48	966	10	10000	4	1	0	4	0
50	967	10	10000	4	1	0	4	0
51	968	10	10000	4	1	0	4	0
52	969	10	10000	4	1	0	4	0
53	970	10	10000	4	1	0	4	0
56	971	10	10000	4	1	0	4	0
60	971	10	10000	4	1	0	4	0
66	972	10	10000	4	1	0	4	0
67	974	10	10000	4	1	0	4	0
67	975	10	10000	4	1	0	4	0
70	976	10	10000	4	1	0	4	0
74	977	10	10000	4	1	0	4	0
78	978	10	10000	4	1	0	4	0
78	979	10	10000	4	1	0	4	0
75	980	10	10000	4	1	0	4	0
73	981	10	10000	4	1	0	4	0
72	981	10	10000	4	1	0	4	0
74	982	10	10000	4	1	0	4	0
73	984	10	10000	4	1	0	4	0
69	985	10	10000	4	1	0	4	0
68	986	10	10000	4	1	0	4	0
67	987	10	10000	4	1	0	4	0
64	988	10	10000	4	1	0	4	0
66	989	10	10000	4	1	0	4	0
68	990	10	10000	4	1	0	4	0
67	991	10	10000	4	1	0	4	0
66	991	10	10000	4	1	0	4	0
69	992	10	10000	4	1	0	4	0
76	994	10	10000	4	1	0	4	0
80	995	10	10000	4	1	0	4	0
82	996	10	10000	4	1	0	4	0
80	997	10	10000	4	1	0	4	0
78	998	10	10000	4	1	0	4	0
82	999	10	10000	4	1	0	4	0
90	1000	10	10000	4	1	0	4	0
91	1001	10	10000	4	1	0	4	0
46	6	10	10000	5	1	0	5	0
45	7	10	10000	5	1	0	5	0
47	8	10	10000	5	1	0	5	0
44	9	10	10000	5	1	0	5	0
42	10	10	10000	5	1	0	5	0
42	11	10	10000	5	1	0	5	0
39	11	10	10000	5	1	0	5	0
38	12	10	10000	5	1	0	5	0
38	13	10	10000	5	1	0	5	0
38	14	10	10000	5	1	0	5	0
37	16	10	10000	5	1	0	5	0
36	17	10	10000	5	1	0	5	0
36	18	10	10000	5	1	0	5	0
39	19	10	10000	5	1	0	5	0
37	20	10	10000	5	1	0	5	0
37	21	10	10000	5	1	0	5	0
38	21	10	10000	5	1	0	5	0
37	22	10	10000	5	1	0	5	0
36	23	10	10000	5	1	0	5	0
34	24	10	10000	5	1	0	5	0
33	25	10	10000	5	1	0	5	0
32	26	10	10000	5	1	0	5	0
33	28	10	10000	5	1	0	5	0
31	29	10	10000	5	1	0	5	0
30	30	10	10000	5	1	0	5	0
31	31	10	10000	5	1	0	5	0
30	32	10	10000	5	1	0	5	0
30	33	10	10000	5	1	0	5	0
32	33	10	10000	5	1	0	5	0
33	34	10	10000	5	1	0	5	0
33	35	10	10000	5	1	0	5	0
33	36	10	10000	5	1	0	5	0
32	39	10	10000	5	1	0	5	0
34	40	10	10000	5	1	0	5	0
36	41	10	10000	5	1	0	5	0
36	42	10	10000	5	1	0	5	0
34	43	10	10000	5	1	0	5	0
35	44	10	10000	5	1	0	5	0
34	45	10	10000	5	1	0	5	0
33	46	10	10000	5	1	0	5	0
34	44	10	10000	5	1	0	5	0
35	45	10	10000	5	1	0	5	0
36	46	10	10000	5	1	0	5	0
35	47	10	10000	5	1	0	5	0
35	46	10	10000	5	1	0	5	0
34	47	10	10000	5	1	0	5	0
33	48	10	10000	5	1	0	5	0
32	49	10	10000	5	1	0	5	0
32	50	10	10000	5	1	0	5	0
31	51	10	10000	5	1	0	5	0
29	52	10	10000	5	1	0	5	0
30	53	10	10000	5	1	0	5	0
30	54	10	10000	5	1	0	5	0
35	55	10	10000	5	1	0	5	0
44	56	10	10000	5	1	0	5	0
50	57	10	10000	5	1	0	5	0
51	58	10	10000	5	1	0	5	0
49	59	10	10000	5	1	0	5	0
50	60	10	10000	5	1	0	5	0
51	61	10	10000	5	1	0	5	0
53	62	10	10000	5	1	0	5	0
55	63	10	10000	5	1	0	5	0
56	64	10	10000	5	1	0	5	0
55	65	10	10000	5	1	0	5	0
54	66	10	10000	5	1	0	5	0
52	67	10	10000	5	1	0	5	0
51	68	10	10000	5	1	0	5	0
49	69	10	10000	5	1	0	5	0
47	70	10	10000	5	1	0	5	0
47	71	10	10000	5	1	0	5	0
46	72	10	10000	5	1	0	5	0
45	73	10	10000	5	1	0	5	0
44	74	10	10000	5	1	0	5	0
44	75	10	10000	5	1	0	5	0
46	76	10	10000	5	1	0	5	0
44	77	10	10000	5	1	0	5	0
44	78	10	10000	5	1	0	5	0
44	79	10	10000	5	1	0	5	0
42	80	10	10000	5	1	0	5	0
40	81	10	10000	5	1	0	5	0
40	82	10	10000	5	1	0	5	0
39	83	10	10000	5	1	0	5	0
39	84	10	10000	5	1	0	5	0
37	85	10	10000	5	1	0	5	0
35	86	10	10000	5	1	0	5	0
34	87	10	10000	5	1	0	5	0
33	88	10	10000	5	1	0	5	0
33	89	10	10000	5	1	0	5	0
33	90	10	10000	5	1	0	5	0
33	91	10	10000	5	1	0	5	0
32	92	10	10000	5	1	0	5	0
33	93	10	10000	5	1	0	5	0
35	94	10	10000	5	1	0	5	0
35	95	10	10000	5	1	0	5	0
36	96	10	10000	5	1	0	5	0
39	97	10	10000	5	1	0	5	0
41	98	10	10000	5	1	0	5	0
41	99	10	10000	5	1	0	5	0
40	100	10	10000	5	1	0	5	0
38	101	10	10000	5	1	0	5	0
38	102	10	10000	5	1	0	5	0
37	103	10	10000	5	1	0	5	0
41	104	10	10000	5	1	0	5	0
42	105	10	10000	5	1	0	5	0
42	106	10	10000	5	1	0	5	0
41	107	10	10000	5	1	0	5	0
40	108	10	10000	5	1	0	5	0
41	109	10	10000	5	1	0	5	0
43	110	10	10000	5	1	0	5	0
45	111	10	10000	5	1	0	5	0
46	112	10	10000	5	1	0	5	0
46	113	10	10000	5	1	0	5	0
44	114	10	10000	5	1	0	5	0
45	115	10	10000	5	1	0	5	0
44	116	10	10000	5	1	0	5	0
43	117	10	10000	5	1	0	5	0
43	118	10	10000	5	1	0	5	0
42	119	10	10000	5	1	0	5	0
43	120	10	10000	5	1	0	5	0
41	121	10	10000	5	1	0	5	0
41	122	10	10000	5	1	0	5	0
40	123	10	10000	5	1	0	5	0
38	124	10	10000	5	1	0	5	0
36	125	10	10000	5	1	0	5	0
34	126	10	10000	5	1	0	5	0
33	127	10	10000	5	1	0	5	0
33	128	10	10000	5	1	0	5	0
32	129	10	10000	5	1	0	5	0
31	130	10	10000	5	1	0	5	0
31	131	10	10000	5	1	0	5	0
30	132	10	10000	5	1	0	5	0
30	133	10	10000	5	1	0	5	0
30	134	10	10000	5	1	0	5	0
32	135	10	10000	5	1	0	5	0
32	136	10	10000	5	1	0	5	0
31	137	10	10000	5	1	0	5	0
32	138	10	10000	5	1	0	5	0
32	139	10	10000	5	1	0	5	0
31	140	10	10000	5	1	0	5	0
30	141	10	10000	5	1	0	5	0
31	142	10	10000	5	1	0	5	0
32	143	10	10000	5	1	0	5	0
32	144	10	10000	5	1	0	5	0
31	145	10	10000	5	1	0	5	0
31	146	10	10000	5	1	0	5	0
32	147	10	10000	5	1	0	5	0
34	148	10	10000	5	1	0	5	0
36	149	10	10000	5	1	0	5	0
39	150	10	10000	5	1	0	5	0
41	151	10	10000	5	1	0	5	0
41	152	10	10000	5	1	0	5	0
41	153	10	10000	5	1	0	5	0
41	154	10	10000	5	1	0	5	0
42	155	10	10000	5	1	0	5	0
42	156	10	10000	5	1	0	5	0
41	157	10	10000	5	1	0	5	0
39	158	10	10000	5	1	0	5	0
39	159	10	10000	5	1	0	5	0
39	160	10	10000	5	1	0	5	0
39	161	10	10000	5	1	0	5	0
41	162	10	10000	5	1	0	5	0
42	163	10	10000	5	1	0	5	0
42	164	10	10000	5	1	0	5	0
40	165	10	10000	5	1	0	5	0
40	166	10	10000	5	1	0	5	0
38	167	10	10000	5	1	0	5	0
38	168	10	10000	5	1	0	5	0
37	169	10	10000	5	1	0	5	0
37	170	10	10000	5	1	0	5	0
38	171	10	10000	5	1	0	5	0
36	172	10	10000	5	1	0	5	0
35	173	10	10000	5	1	0	5	0
36	174	10	10000	5	1	0	5	0
36	175	10	10000	5	1	0	5	0
35	176	10	10000	5	1	0	5	0
34	177	10	10000	5	1	0	5	0
33	178	10	10000	5	1	0	5	0
32	179	10	10000	5	1	0	5	0
33	180	10	10000	5	1	0	5	0
36	181	10	10000	5	1	0	5	0
38	182	10	10000	5	1	0	5	0
39	183	10	10000	5	1	0	5	0
43	184	10	10000	5	1	0	5	0
45	185	10	10000	5	1	0	5	0
47	186	10	10000	5	1	0	5	0
47	187	10	10000	5	1	0	5	0
47	188	10	10000	5	1	0	5	0
47	189	10	10000	5	1	0	5	0
45	190	10	10000	5	1	0	5	0
44	191	10	10000	5	1	0	5	0
42	192	10	10000	5	1	0	5	0
40	193	10	10000	5	1	0	5	0
39	194	10	10000	5	1	0	5	0
39	195	10	10000	5	1	0	5	0
39	196	10	10000	5	1	0	5	0
38	197	10	10000	5	1	0	5	0
36	198	10	10000	5	1	0	5	0
35	199	10	10000	5	1	0	5	0
35	200	10	10000	5	1	0	5	0
34	201	10	10000	5	1	0	5	0
34	202	10	10000	5	1	0	5	0
33	203	10	10000	5	1	0	5	0
32	204	10	10000	5	1	0	5	0
30	205	10	10000	5	1	0	5	0
30	206	10	10000	5	1	0	5	0
29	207	10	10000	5	1	0	5	0
28	208	10	10000	5	1	0	5	0
27	209	10	10000	5	1	0	5	0
26	210	10	10000	5	1	0	5	0
26	211	10	10000	5	1	0	5	0
25	212	10	10000	5	1	0	5	0
24	213	10	10000	5	1	0	5	0
24	214	10	10000	5	1	0	5	0
25	215	10	10000	5	1	0	5	0
24	216	10	10000	5	1	0	5	0
23	217	10	10000	5	1	0	5	0
24	218	10	10000	5	1	0	5	0
25	219	10	10000	5	1	0	5	0
26	220	10	10000	5	1	0	5	0
26	221	10	10000	5	1	0	5	0
26	222	10	10000	5	1	0	5	0
26	223	10	10000	5	1	0	5	0
26	224	10	10000	5	1	0	5	0
26	225	10	10000	5	1	0	5	0
29	226	10	10000	5	1	0	5	0
29	227	10	10000	5	1	0	5	0
30	228	10	10000	5	1	0	5	0
31	229	10	10000	5	1	0	5	0
33	230	10	10000	5	1	0	5	0
38	231	10	10000	5	1	0	5	0
40	232	10	10000	5	1	0	5	0
39	233	10	10000	5	1	0	5	0
41	234	10	10000	5	1	0	5	0
45	235	10	10000	5	1	0	5	0
47	236	10	10000	5	1	0	5	0
48	237	10	10000	5	1	0	5	0
50	238	10	10000	5	1	0	5	0
49	239	10	10000	5	1	0	5	0
46	240	10	10000	5	1	0	5	0
44	241	10	10000	5	1	0	5	0
44	242	10	10000	5	1	0	5	0
43	243	10	10000	5	1	0	5	0
42	244	10	10000	5	1	0	5	0
40	245	10	10000	5	1	0	5	0
39	246	10	10000	5	1	0	5	0
38	247	10	10000	5	1	0	5	0
40	248	10	10000	5	1	0	5	0
42	249	10	10000	5	1	0	5	0
43	250	10	10000	5	1	0	5	0
42	251	10	10000	5	1	0	5	0
41	252	10	10000	5	1	0	5	0
38	253	10	10000	5	1	0	5	0
37	254	10	10000	5	1	0	5	0
38	255	10	10000	5	1	0	5	0
37	256	10	10000	5	1	0	5	0
36	257	10	10000	5	1	0	5	0
36	258	10	10000	5	1	0	5	0
36	259	10	10000	5	1	0	5	0
36	260	10	10000	5	1	0	5	0
35	261	10	10000	5	1	0	5	0
34	262	10	10000	5	1	0	5	0
33	263	10	10000	5	1	0	5	0
32	264	10	10000	5	1	0	5	0
31	265	10	10000	5	1	0	5	0
31	266	10	10000	5	1	0	5	0
30	267	10	10000	5	1	0	5	0
30	268	10	10000	5	1	0	5	0
30	269	10	10000	5	1	0	5	0
29	270	10	10000	5	1	0	5	0
28	271	10	10000	5	1	0	5	0
27	272	10	10000	5	1	0	5	0
26	273	10	10000	5	1	0	5	0
25	274	10	10000	5	1	0	5	0
29	275	10	10000	5	1	0	5	0
29	276	10	10000	5	1	0	5	0
28	277	10	10000	5	1	0	5	0
27	278	10	10000	5	1	0	5	0
26	279	10	10000	5	1	0	5	0
25	280	10	10000	5	1	0	5	0
25	281	10	10000	5	1	0	5	0
26	282	10	10000	5	1	0	5	0
25	283	10	10000	5	1	0	5	0
25	284	10	10000	5	1	0	5	0
23	285	10	10000	5	1	0	5	0
24	286	10	10000	5	1	0	5	0
24	287	10	10000	5	1	0	5	0
25	288	10	10000	5	1	0	5	0
26	289	10	10000	5	1	0	5	0
27	290	10	10000	5	1	0	5	0
27	291	10	10000	5	1	0	5	0
26	292	10	10000	5	1	0	5	0
26	293	10	10000	5	1	0	5	0
26	294	10	10000	5	1	0	5	0
28	295	10	10000	5	1	0	5	0
29	296	10	10000	5	1	0	5	0
30	297	10	10000	5	1	0	5	0
30	298	10	10000	5	1	0	5	0
30	299	10	10000	5	1	0	5	0
31	300	10	10000	5	1	0	5	0
31	301	10	10000	5	1	0	5	0
31	302	10	10000	5	1	0	5	0
33	303	10	10000	5	1	0	5	0
35	304	10	10000	5	1	0	5	0
33	305	10	10000	5	1	0	5	0
34	306	10	10000	5	1	0	5	0
36	307	10	10000	5	1	0	5	0
37	308	10	10000	5	1	0	5	0
36	309	10	10000	5	1	0	5	0
35	310	10	10000	5	1	0	5	0
34	311	10	10000	5	1	0	5	0
33	312	10	10000	5	1	0	5	0
33	313	10	10000	5	1	0	5	0
32	314	10	10000	5	1	0	5	0
32	315	10	10000	5	1	0	5	0
32	316	10	10000	5	1	0	5	0
30	317	10	10000	5	1	0	5	0
29	318	10	10000	5	1	0	5	0
28	319	10	10000	5	1	0	5	0
30	320	10	10000	5	1	0	5	0
34	321	10	10000	5	1	0	5	0
35	322	10	10000	5	1	0	5	0
35	323	10	10000	5	1	0	5	0
36	324	10	10000	5	1	0	5	0
33	325	10	10000	5	1	0	5	0
32	326	10	10000	5	1	0	5	0
32	327	10	10000	5	1	0	5	0
30	328	10	10000	5	1	0	5	0
29	329	10	10000	5	1	0	5	0
29	330	10	10000	5	1	0	5	0
30	331	10	10000	5	1	0	5	0
28	332	10	10000	5	1	0	5	0
28	333	10	10000	5	1	0	5	0
28	334	10	10000	5	1	0	5	0
32	335	10	10000	5	1	0	5	0
33	336	10	10000	5	1	0	5	0
33	337	10	10000	5	1	0	5	0
32	338	10	10000	5	1	0	5	0
32	339	10	10000	5	1	0	5	0
33	340	10	10000	5	1	0	5	0
33	341	10	10000	5	1	0	5	0
32	342	10	10000	5	1	0	5	0
32	343	10	10000	5	1	0	5	0
31	344	10	10000	5	1	0	5	0
28	345	10	10000	5	1	0	5	0
28	346	10	10000	5	1	0	5	0
30	347	10	10000	5	1	0	5	0
29	348	10	10000	5	1	0	5	0
31	349	10	10000	5	1	0	5	0
30	350	10	10000	5	1	0	5	0
31	351	10	10000	5	1	0	5	0
35	352	10	10000	5	1	0	5	0
40	353	10	10000	5	1	0	5	0
42	354	10	10000	5	1	0	5	0
42	355	10	10000	5	1	0	5	0
44	356	10	10000	5	1	0	5	0
47	357	10	10000	5	1	0	5	0
50	358	10	10000	5	1	0	5	0
52	359	10	10000	5	1	0	5	0
52	360	10	10000	5	1	0	5	0
51	361	10	10000	5	1	0	5	0
50	362	10	10000	5	1	0	5	0
49	363	10	10000	5	1	0	5	0
49	364	10	10000	5	1	0	5	0
48	365	10	10000	5	1	0	5	0
47	366	10	10000	5	1	0	5	0
46	367	10	10000	5	1	0	5	0
45	368	10	10000	5	1	0	5	0
45	369	10	10000	5	1	0	5	0
45	370	10	10000	5	1	0	5	0
44	371	10	10000	5	1	0	5	0
44	372	10	10000	5	1	0	5	0
48	373	10	10000	5	1	0	5	0
52	374	10	10000	5	1	0	5	0
61	375	10	10000	5	1	0	5	0
65	376	10	10000	5	1	0	5	0
61	377	10	10000	5	1	0	5	0
59	378	10	10000	5	1	0	5	0
57	379	10	10000	5	1	0	5	0
54	380	10	10000	5	1	0	5	0
54	381	10	10000	5	1	0	5	0
62	382	10	10000	5	1	0	5	0
73	383	10	10000	5	1	0	5	0
77	384	10	10000	5	1	0	5	0
81	385	10	10000	5	1	0	5	0
90	386	10	10000	5	1	0	5	0
98	387	10	10000	5	1	0	5	0
103	388	10	10000	5	1	0	5	0
100	389	10	10000	5	1	0	5	0
103	390	10	10000	5	1	0	5	0
111	391	10	10000	5	1	0	5	0
124	392	10	10000	5	1	0	5	0
141	393	10	10000	5	1	0	5	0
155	394	10	10000	5	1	0	5	0
169	395	10	10000	5	1	0	5	0
184	396	10	10000	5	1	0	5	0
194	397	10	10000	5	1	0	5	0
196	398	10	10000	5	1	0	5	0
197	399	10	10000	5	1	0	5	0
217	400	10	10000	5	1	0	5	0
218	401	10	10000	5	1	0	5	0
232	402	10	10000	5	1	0	5	0
254	403	10	10000	5	1	0	5	0
282	404	10	10000	5	1	0	5	0
307	405	10	10000	5	1	0	5	0
314	406	10	10000	5	1	0	5	0
313	407	10	10000	5	1	0	5	0
310	408	10	10000	5	1	0	5	0
305	409	10	10000	5	1	0	5	0
294	410	10	10000	5	1	0	5	0
288	411	10	10000	5	1	0	5	0
285	412	10	10000	5	1	0	5	0
274	413	10	10000	5	1	0	5	0
267	414	10	10000	5	1	0	5	0
263	415	10	10000	5	1	0	5	0
261	416	10	10000	5	1	0	5	0
254	417	10	10000	5	1	0	5	0
256	418	10	10000	5	1	0	5	0
257	419	10	10000	5	1	0	5	0
252	420	10	10000	5	1	0	5	0
246	421	10	10000	5	1	0	5	0
237	422	10	10000	5	1	0	5	0
227	423	10	10000	5	1	0	5	0
220	424	10	10000	5	1	0	5	0
218	425	10	10000	5	1	0	5	0
218	426	10	10000	5	1	0	5	0
222	427	10	10000	5	1	0	5	0
242	428	10	10000	5	1	0	5	0
259	429	10	10000	5	1	0	5	0
255	430	10	10000	5	1	0	5	0
246	431	10	10000	5	1	0	5	0
249	432	10	10000	5	1	0	5	0
245	433	10	10000	5	1	0	5	0
234	434	10	10000	5	1	0	5	0
229	435	10	10000	5	1	0	5	0
240	436	10	10000	5	1	0	5	0
241	437	10	10000	5	1	0	5	0
232	438	10	10000	5	1	0	5	0
230	439	10	10000	5	1	0	5	0
236	440	10	10000	5	1	0	5	0
233	441	10	10000	5	1	0	5	0
233	442	10	10000	5	1	0	5	0
242	443	10	10000	5	1	0	5	0
237	444	10	10000	5	1	0	5	0
226	445	10	10000	5	1	0	5	0
220	446	10	10000	5	1	0	5	0
221	447	10	10000	5	1	0	5	0
221	448	10	10000	5	1	0	5	0
223	449	10	10000	5	1	0	5	0
230	450	10	10000	5	1	0	5	0
248	451	10	10000	5	1	0	5	0
265	452	10	10000	5	1	0	5	0
269	453	10	10000	5	1	0	5	0
261	454	10	10000	5	1	0	5	0
255	455	10	10000	5	1	0	5	0
253	456	10	10000	5	1	0	5	0
252	457	10	10000	5	1	0	5	0
242	458	10	10000	5	1	0	5	0
232	459	10	10000	5	1	0	5	0
230	460	10	10000	5	1	0	5	0
227	461	10	10000	5	1	0	5	0
225	462	10	10000	5	1	0	5	0
223	463	10	10000	5	1	0	5	0
219	464	10	10000	5	1	0	5	0
214	465	10	10000	5	1	0	5	0
216	466	10	10000	5	1	0	5	0
220	467	10	10000	5	1	0	5	0
223	468	10	10000	5	1	0	5	0
224	469	10	10000	5	1	0	5	0
222	470	10	10000	5	1	0	5	0
221	471	10	10000	5	1	0	5	0
220	472	10	10000	5	1	0	5	0
219	473	10	10000	5	1	0	5	0
216	474	10	10000	5	1	0	5	0
212	475	10	10000	5	1	0	5	0
206	476	10	10000	5	1	0	5	0
200	477	10	10000	5	1	0	5	0
191	478	10	10000	5	1	0	5	0
183	479	10	10000	5	1	0	5	0
176	480	10	10000	5	1	0	5	0
168	481	10	10000	5	1	0	5	0
161	482	10	10000	5	1	0	5	0
156	483	10	10000	5	1	0	5	0
151	484	10	10000	5	1	0	5	0
143	485	10	10000	5	1	0	5	0
138	486	10	10000	5	1	0	5	0
134	487	10	10000	5	1	0	5	0
128	488	10	10000	5	1	0	5	0
124	489	10	10000	5	1	0	5	0
119	490	10	10000	5	1	0	5	0
114	491	10	10000	5	1	0	5	0
110	492	10	10000	5	1	0	5	0
105	493	10	10000	5	1	0	5	0
103	494	10	10000	5	1	0	5	0
104	495	10	10000	5	1	0	5	0
104	496	10	10000	5	1	0	5	0
106	497	10	10000	5	1	0	5	0
106	498	10	10000	5	1	0	5	0
104	499	10	10000	5	1	0	5	0
101	500	10	10000	5	1	0	5	1
98	501	10	10000	5	1	0	5	1
98	502	10	10000	5	1	0	5	1
100	503	10	10000	5	1	0	5	1
104	504	10	10000	5	1	0	5	1
106	505	10	10000	5	1	0	5	1
107	506	10	10000	5	1	0	5	1
104	507	10	10000	5	1	0	5	1
101	508	10	10000	5	1	0	5	1
97	509	10	10000	5	1	0	5	1
95	510	10	10000	5	1	0	5	1
95	511	10	10000	5	1	0	5	1
97	512	10	10000	5	1	0	5	1
98	513	10	10000	5	1	0	5	1
97	514	10	10000	5	1	0	5	1
95	515	10	10000	5	1	0	5	1
93	516	10	10000	5	1	0	5	1
91	517	10	10000	5	1	0	5	1
86	518	10	10000	5	1	0	5	1
83	519	10	10000	5	1	0	5	1
80	520	10	10000	5	1	0	5	1
79	521	10	10000	5	1	0	5	1
81	522	10	10000	5	1	0	5	1
82	523	10	10000	5	1	0	5	1
80	524	10	10000	5	1	0	5	1
78	525	10	10000	5	1	0	5	1
77	526	10	10000	5	1	0	5	1
74	527	10	10000	5	1	0	5	1
72	528	10	10000	5	1	0	5	1
70	529	10	10000	5	1	0	5	1
67	530	10	10000	5	1	0	5	1
67	531	10	10000	5	1	0	5	1
68	532	10	10000	5	1	0	5	1
69	533	10	10000	5	1	0	5	1
69	534	10	10000	5	1	0	5	1
71	535	10	10000	5	1	0	5	1
74	536	10	10000	5	1	0	5	1
73	537	10	10000	5	1	0	5	1
71	538	10	10000	5	1	0	5	1
69	539	10	10000	5	1	0	5	1
66	540	10	10000	5	1	0	5	1
64	541	10	10000	5	1	0	5	1
62	542	10	10000	5	1	0	5	1
60	543	10	10000	5	1	0	5	1
58	544	10	10000	5	1	0	5	1
56	545	10	10000	5	1	0	5	1
57	546	10	10000	5	1	0	5	1
58	547	10	10000	5	1	0	5	1
64	548	10	10000	5	1	0	5	1
68	549	10	10000	5	1	0	5	1
68	550	10	10000	5	1	0	5	0
65	551	10	10000	5	1	0	5	0
63	552	10	10000	5	1	0	5	0
61	553	10	10000	5	1	0	5	0
59	554	10	10000	5	1	0	5	0
59	555	10	10000	5	1	0	5	0
58	556	10	10000	5	1	0	5	0
56	557	10	10000	5	1	0	5	0
54	558	10	10000	5	1	0	5	0
56	559	10	10000	5	1	0	5	0
57	560	10	10000	5	1	0	5	0
56	561	10	10000	5	1	0	5	0
55	562	10	10000	5	1	0	5	0
54	563	10	10000	5	1	0	5	0
52	564	10	10000	5	1	0	5	0
49	565	10	10000	5	1	0	5	0
47	566	10	10000	5	1	0	5	0
47	567	10	10000	5	1	0	5	0
46	568	10	10000	5	1	0	5	0
47	569	10	10000	5	1	0	5	0
46	570	10	10000	5	1	0	5	0
49	571	10	10000	5	1	0	5	0
52	572	10	10000	5	1	0	5	0
52	573	10	10000	5	1	0	5	0
51	574	10	10000	5	1	0	5	0
54	575	10	10000	5	1	0	5	0
57	576	10	10000	5	1	0	5	0
63	577	10	10000	5	1	0	5	0
66	578	10	10000	5	1	0	5	0
63	579	10	10000	5	1	0	5	0
63	580	10	10000	5	1	0	5	0
67	581	10	10000	5	1	0	5	0
72	582	10	10000	5	1	0	5	0
78	583	10	10000	5	1	0	5	0
84	584	10	10000	5	1	0	5	0
87	585	10	10000	5	1	0	5	0
88	586	10	10000	5	1	0	5	0
86	587	10	10000	5	1	0	5	0
83	588	10	10000	5	1	0	5	0
82	589	10	10000	5	1	0	5	0
79	590	10	10000	5	1	0	5	0
76	591	10	10000	5	1	0	5	0
74	592	10	10000	5	1	0	5	0
73	593	10	10000	5	1	0	5	0
74	594	10	10000	5	1	0	5	0
76	595	10	10000	5	1	0	5	0
77	596	10	10000	5	1	0	5	0
93	597	10	10000	5	1	0	5	0
97	598	10	10000	5	1	0	5	0
120	599	10	10000	5	1	0	5	0
153	600	10	10000	5	1	0	5	0
156	601	10	10000	5	1	0	5	0
176	602	10	10000	5	1	0	5	0
183	603	10	10000	5	1	0	5	0
182	604	10	10000	5	1	0	5	0
203	605	10	10000	5	1	0	5	0
213	606	10	10000	5	1	0	5	0
239	607	10	10000	5	1	0	5	0
250	608	10	10000	5	1	0	5	0
258	609	10	10000	5	1	0	5	0
293	610	10	10000	5	1	0	5	0
323	611	10	10000	5	1	0	5	0
321	612	10	10000	5	1	0	5	0
314	613	10	10000	5	1	0	5	0
338	614	10	10000	5	1	0	5	0
379	615	10	10000	5	1	0	5	0
376	616	10	10000	5	1	0	5	0
384	617	10	10000	5	1	0	5	0
389	618	10	10000	5	1	0	5	0
379	619	10	10000	5	1	0	5	0
370	620	10	10000	5	1	0	5	0
357	621	10	10000	5	1	0	5	0
343	622	10	10000	5	1	0	5	0
330	623	10	10000	5	1	0	5	0
328	624	10	10000	5	1	0	5	0
327	625	10	10000	5	1	0	5	0
320	626	10	10000	5	1	0	5	0
322	627	10	10000	5	1	0	5	0
310	628	10	10000	5	1	0	5	0
298	629	10	10000	5	1	0	5	0
287	630	10	10000	5	1	0	5	0
298	631	10	10000	5	1	0	5	0
313	632	10	10000	5	1	0	5	0
311	633	10	10000	5	1	0	5	0
307	634	10	10000	5	1	0	5	0
313	635	10	10000	5	1	0	5	0
311	636	10	10000	5	1	0	5	0
298	637	10	10000	5	1	0	5	0
287	638	10	10000	5	1	0	5	0
274	639	10	10000	5	1	0	5	0
262	640	10	10000	5	1	0	5	0
251	641	10	10000	5	1	0	5	0
240	642	10	10000	5	1	0	5	0
232	643	10	10000	5	1	0	5	0
223	644	10	10000	5	1	0	5	0
213	645	10	10000	5	1	0	5	0
205	646	10	10000	5	1	0	5	0
199	647	10	10000	5	1	0	5	0
190	648	10	10000	5	1	0	5	0
183	649	10	10000	5	1	0	5	0
176	650	10	10000	5	1	0	5	0
170	651	10	10000	5	1	0	5	0
166	652	10	10000	5	1	0	5	0
162	653	10	10000	5	1	0	5	0
155	654	10	10000	5	1	0	5	0
151	655	10	10000	5	1	0	5	0
147	656	10	10000	5	1	0	5	0
145	657	10	10000	5	1	0	5	0
143	658	10	10000	5	1	0	5	0
146	659	10	10000	5	1	0	5	0
149	660	10	10000	5	1	0	5	0
154	661	10	10000	5	1	0	5	0
160	662	10	10000	5	1	0	5	0
166	663	10	10000	5	1	0	5	0
