value	EMG	Stimulus	EMG_sensitivity	Total_Trial_Nr	practise	acq	probe_nr	Startle_Probe
14	1	0	10000	1	1	0	1	0
14	2	0	10000	1	1	0	1	0
14	3	0	10000	1	1	0	1	0
15	4	0	10000	1	1	0	1	0
15	5	0	10000	1	1	0	1	0
14	6	0	10000	1	1	0	1	0
13	7	0	10000	1	1	0	1	0
15	8	0	10000	1	1	0	1	0
17	9	0	10000	1	1	0	1	0
20	10	0	10000	1	1	0	1	0
20	11	0	10000	1	1	0	1	0
20	12	0	10000	1	1	0	1	0
23	13	0	10000	1	1	0	1	0
23	14	0	10000	1	1	0	1	0
24	15	0	10000	1	1	0	1	0
26	16	0	10000	1	1	0	1	0
26	17	0	10000	1	1	0	1	0
24	18	0	10000	1	1	0	1	0
25	19	0	10000	1	1	0	1	0
24	20	0	10000	1	1	0	1	0
23	21	0	10000	1	1	0	1	0
23	22	0	10000	1	1	0	1	0
24	23	0	10000	1	1	0	1	0
24	24	0	10000	1	1	0	1	0
23	25	0	10000	1	1	0	1	0
22	26	0	10000	1	1	0	1	0
21	27	0	10000	1	1	0	1	0
21	28	0	10000	1	1	0	1	0
21	29	0	10000	1	1	0	1	0
22	30	0	10000	1	1	0	1	0
21	31	0	10000	1	1	0	1	0
21	32	0	10000	1	1	0	1	0
21	33	0	10000	1	1	0	1	0
21	34	0	10000	1	1	0	1	0
21	35	0	10000	1	1	0	1	0
21	36	0	10000	1	1	0	1	0
21	37	0	10000	1	1	0	1	0
20	38	0	10000	1	1	0	1	0
21	39	0	10000	1	1	0	1	0
20	40	0	10000	1	1	0	1	0
20	41	0	10000	1	1	0	1	0
19	42	0	10000	1	1	0	1	0
19	43	0	10000	1	1	0	1	0
20	44	0	10000	1	1	0	1	0
21	45	0	10000	1	1	0	1	0
20	46	0	10000	1	1	0	1	0
20	47	0	10000	1	1	0	1	0
19	48	0	10000	1	1	0	1	0
18	49	0	10000	1	1	0	1	0
19	50	0	10000	1	1	0	1	0
18	51	0	10000	1	1	0	1	0
18	52	0	10000	1	1	0	1	0
17	53	0	10000	1	1	0	1	0
17	54	0	10000	1	1	0	1	0
16	55	0	10000	1	1	0	1	0
18	56	0	10000	1	1	0	1	0
20	57	0	10000	1	1	0	1	0
19	58	0	10000	1	1	0	1	0
20	59	0	10000	1	1	0	1	0
20	60	0	10000	1	1	0	1	0
20	61	0	10000	1	1	0	1	0
21	62	0	10000	1	1	0	1	0
21	63	0	10000	1	1	0	1	0
21	64	0	10000	1	1	0	1	0
21	65	0	10000	1	1	0	1	0
20	66	0	10000	1	1	0	1	0
19	67	0	10000	1	1	0	1	0
19	68	0	10000	1	1	0	1	0
20	69	0	10000	1	1	0	1	0
20	70	0	10000	1	1	0	1	0
20	71	0	10000	1	1	0	1	0
21	72	0	10000	1	1	0	1	0
20	73	0	10000	1	1	0	1	0
21	74	0	10000	1	1	0	1	0
23	75	0	10000	1	1	0	1	0
24	76	0	10000	1	1	0	1	0
25	77	0	10000	1	1	0	1	0
25	78	0	10000	1	1	0	1	0
26	79	0	10000	1	1	0	1	0
26	80	0	10000	1	1	0	1	0
27	81	0	10000	1	1	0	1	0
28	82	0	10000	1	1	0	1	0
28	83	0	10000	1	1	0	1	0
30	84	0	10000	1	1	0	1	0
33	85	0	10000	1	1	0	1	0
34	86	0	10000	1	1	0	1	0
34	87	0	10000	1	1	0	1	0
34	88	0	10000	1	1	0	1	0
33	89	0	10000	1	1	0	1	0
33	90	0	10000	1	1	0	1	0
33	91	0	10000	1	1	0	1	0
32	92	0	10000	1	1	0	1	0
31	93	0	10000	1	1	0	1	0
30	94	0	10000	1	1	0	1	0
29	95	0	10000	1	1	0	1	0
30	96	0	10000	1	1	0	1	0
30	97	0	10000	1	1	0	1	0
30	98	0	10000	1	1	0	1	0
29	99	0	10000	1	1	0	1	0
28	100	0	10000	1	1	0	1	0
28	101	0	10000	1	1	0	1	0
27	102	0	10000	1	1	0	1	0
27	103	0	10000	1	1	0	1	0
29	104	0	10000	1	1	0	1	0
31	105	0	10000	1	1	0	1	0
30	106	0	10000	1	1	0	1	0
29	107	0	10000	1	1	0	1	0
32	108	0	10000	1	1	0	1	0
37	109	0	10000	1	1	0	1	0
41	110	0	10000	1	1	0	1	0
41	111	0	10000	1	1	0	1	0
41	112	0	10000	1	1	0	1	0
43	113	0	10000	1	1	0	1	0
44	114	0	10000	1	1	0	1	0
44	115	0	10000	1	1	0	1	0
43	116	0	10000	1	1	0	1	0
44	117	0	10000	1	1	0	1	0
44	118	0	10000	1	1	0	1	0
43	119	0	10000	1	1	0	1	0
42	120	0	10000	1	1	0	1	0
42	121	0	10000	1	1	0	1	0
41	122	0	10000	1	1	0	1	0
40	123	0	10000	1	1	0	1	0
40	124	0	10000	1	1	0	1	0
39	125	0	10000	1	1	0	1	0
37	126	0	10000	1	1	0	1	0
34	127	0	10000	1	1	0	1	0
33	128	0	10000	1	1	0	1	0
32	129	0	10000	1	1	0	1	0
32	130	0	10000	1	1	0	1	0
31	131	0	10000	1	1	0	1	0
30	132	0	10000	1	1	0	1	0
28	133	0	10000	1	1	0	1	0
27	134	0	10000	1	1	0	1	0
26	135	0	10000	1	1	0	1	0
25	136	0	10000	1	1	0	1	0
26	137	0	10000	1	1	0	1	0
25	138	0	10000	1	1	0	1	0
25	139	0	10000	1	1	0	1	0
24	140	0	10000	1	1	0	1	0
24	141	0	10000	1	1	0	1	0
23	142	0	10000	1	1	0	1	0
22	143	0	10000	1	1	0	1	0
22	144	0	10000	1	1	0	1	0
22	145	0	10000	1	1	0	1	0
20	146	0	10000	1	1	0	1	0
18	147	0	10000	1	1	0	1	0
18	148	0	10000	1	1	0	1	0
18	149	0	10000	1	1	0	1	0
19	150	0	10000	1	1	0	1	0
19	150	0	10000	1	1	0	1	0
20	151	0	10000	1	1	0	1	0
20	153	0	10000	1	1	0	1	0
19	154	0	10000	1	1	0	1	0
19	155	0	10000	1	1	0	1	0
19	156	0	10000	1	1	0	1	0
20	157	0	10000	1	1	0	1	0
20	158	0	10000	1	1	0	1	0
19	159	0	10000	1	1	0	1	0
20	160	0	10000	1	1	0	1	0
19	160	0	10000	1	1	0	1	0
18	161	0	10000	1	1	0	1	0
17	163	0	10000	1	1	0	1	0
17	164	0	10000	1	1	0	1	0
17	165	0	10000	1	1	0	1	0
16	166	0	10000	1	1	0	1	0
15	167	0	10000	1	1	0	1	0
15	168	0	10000	1	1	0	1	0
16	169	0	10000	1	1	0	1	0
15	170	0	10000	1	1	0	1	0
15	170	0	10000	1	1	0	1	0
15	171	0	10000	1	1	0	1	0
14	173	0	10000	1	1	0	1	0
13	174	0	10000	1	1	0	1	0
13	175	0	10000	1	1	0	1	0
13	176	0	10000	1	1	0	1	0
15	177	0	10000	1	1	0	1	0
15	178	0	10000	1	1	0	1	0
14	179	0	10000	1	1	0	1	0
13	180	0	10000	1	1	0	1	0
14	180	0	10000	1	1	0	1	0
14	181	0	10000	1	1	0	1	0
15	183	0	10000	1	1	0	1	0
15	184	0	10000	1	1	0	1	0
15	185	0	10000	1	1	0	1	0
15	186	0	10000	1	1	0	1	0
12	187	0	10000	1	1	0	1	0
13	188	0	10000	1	1	0	1	0
13	189	0	10000	1	1	0	1	0
13	190	0	10000	1	1	0	1	0
12	190	0	10000	1	1	0	1	0
12	191	0	10000	1	1	0	1	0
12	193	0	10000	1	1	0	1	0
12	194	0	10000	1	1	0	1	0
12	195	0	10000	1	1	0	1	0
12	196	0	10000	1	1	0	1	0
14	197	0	10000	1	1	0	1	0
13	198	0	10000	1	1	0	1	0
12	199	0	10000	1	1	0	1	0
12	200	0	10000	1	1	0	1	0
11	200	0	10000	1	1	0	1	0
12	201	0	10000	1	1	0	1	0
15	203	0	10000	1	1	0	1	0
17	204	0	10000	1	1	0	1	0
18	205	0	10000	1	1	0	1	0
18	206	0	10000	1	1	0	1	0
16	207	0	10000	1	1	0	1	0
19	208	0	10000	1	1	0	1	0
21	209	0	10000	1	1	0	1	0
23	210	0	10000	1	1	0	1	0
23	210	0	10000	1	1	0	1	0
22	211	0	10000	1	1	0	1	0
22	213	0	10000	1	1	0	1	0
21	214	0	10000	1	1	0	1	0
20	215	0	10000	1	1	0	1	0
20	216	0	10000	1	1	0	1	0
21	217	0	10000	1	1	0	1	0
21	218	0	10000	1	1	0	1	0
21	219	0	10000	1	1	0	1	0
22	220	0	10000	1	1	0	1	0
21	220	0	10000	1	1	0	1	0
20	221	0	10000	1	1	0	1	0
20	223	0	10000	1	1	0	1	0
20	224	0	10000	1	1	0	1	0
20	225	0	10000	1	1	0	1	0
19	226	0	10000	1	1	0	1	0
17	227	0	10000	1	1	0	1	0
17	228	0	10000	1	1	0	1	0
17	229	0	10000	1	1	0	1	0
17	230	0	10000	1	1	0	1	0
17	230	0	10000	1	1	0	1	0
17	231	0	10000	1	1	0	1	0
16	233	0	10000	1	1	0	1	0
15	234	0	10000	1	1	0	1	0
14	235	0	10000	1	1	0	1	0
15	236	0	10000	1	1	0	1	0
16	237	0	10000	1	1	0	1	0
16	238	0	10000	1	1	0	1	0
15	239	0	10000	1	1	0	1	0
15	240	0	10000	1	1	0	1	0
14	240	0	10000	1	1	0	1	0
13	241	0	10000	1	1	0	1	0
14	243	0	10000	1	1	0	1	0
14	244	0	10000	1	1	0	1	0
14	245	0	10000	1	1	0	1	0
13	246	0	10000	1	1	0	1	0
11	247	0	10000	1	1	0	1	0
13	248	0	10000	1	1	0	1	0
15	249	0	10000	1	1	0	1	0
16	250	0	10000	1	1	0	1	0
17	250	0	10000	1	1	0	1	0
17	251	0	10000	1	1	0	1	0
16	253	0	10000	1	1	0	1	0
16	254	0	10000	1	1	0	1	0
16	255	0	10000	1	1	0	1	0
16	256	0	10000	1	1	0	1	0
18	257	0	10000	1	1	0	1	0
18	258	0	10000	1	1	0	1	0
19	259	0	10000	1	1	0	1	0
20	260	0	10000	1	1	0	1	0
19	260	0	10000	1	1	0	1	0
19	261	0	10000	1	1	0	1	0
18	263	0	10000	1	1	0	1	0
18	264	0	10000	1	1	0	1	0
19	265	0	10000	1	1	0	1	0
18	266	0	10000	1	1	0	1	0
16	267	0	10000	1	1	0	1	0
17	268	0	10000	1	1	0	1	0
16	269	0	10000	1	1	0	1	0
17	270	0	10000	1	1	0	1	0
16	270	0	10000	1	1	0	1	0
16	271	0	10000	1	1	0	1	0
16	273	0	10000	1	1	0	1	0
16	274	0	10000	1	1	0	1	0
14	275	0	10000	1	1	0	1	0
14	276	0	10000	1	1	0	1	0
17	277	0	10000	1	1	0	1	0
15	278	0	10000	1	1	0	1	0
14	279	0	10000	1	1	0	1	0
14	280	0	10000	1	1	0	1	0
15	280	0	10000	1	1	0	1	0
16	281	0	10000	1	1	0	1	0
16	283	0	10000	1	1	0	1	0
17	284	0	10000	1	1	0	1	0
18	285	0	10000	1	1	0	1	0
17	286	0	10000	1	1	0	1	0
16	287	0	10000	1	1	0	1	0
16	288	0	10000	1	1	0	1	0
16	289	0	10000	1	1	0	1	0
16	290	0	10000	1	1	0	1	0
17	290	0	10000	1	1	0	1	0
16	291	0	10000	1	1	0	1	0
17	293	0	10000	1	1	0	1	0
19	294	0	10000	1	1	0	1	0
20	295	0	10000	1	1	0	1	0
22	296	0	10000	1	1	0	1	0
26	297	0	10000	1	1	0	1	0
27	298	0	10000	1	1	0	1	0
25	299	0	10000	1	1	0	1	0
25	300	0	10000	1	1	0	1	0
26	300	0	10000	1	1	0	1	0
26	301	0	10000	1	1	0	1	0
26	303	0	10000	1	1	0	1	0
26	304	0	10000	1	1	0	1	0
26	305	0	10000	1	1	0	1	0
26	306	0	10000	1	1	0	1	0
25	307	0	10000	1	1	0	1	0
27	308	0	10000	1	1	0	1	0
28	309	0	10000	1	1	0	1	0
32	310	0	10000	1	1	0	1	0
37	310	0	10000	1	1	0	1	0
42	311	0	10000	1	1	0	1	0
48	313	0	10000	1	1	0	1	0
51	314	0	10000	1	1	0	1	0
55	315	0	10000	1	1	0	1	0
59	316	0	10000	1	1	0	1	0
65	317	0	10000	1	1	0	1	0
67	318	0	10000	1	1	0	1	0
70	319	0	10000	1	1	0	1	0
73	320	0	10000	1	1	0	1	0
76	320	0	10000	1	1	0	1	0
79	321	0	10000	1	1	0	1	0
81	323	0	10000	1	1	0	1	0
83	324	0	10000	1	1	0	1	0
88	325	0	10000	1	1	0	1	0
92	326	0	10000	1	1	0	1	0
94	327	0	10000	1	1	0	1	0
99	328	0	10000	1	1	0	1	0
99	329	0	10000	1	1	0	1	0
100	330	0	10000	1	1	0	1	0
100	330	0	10000	1	1	0	1	0
98	331	0	10000	1	1	0	1	0
97	333	0	10000	1	1	0	1	0
94	334	0	10000	1	1	0	1	0
92	335	0	10000	1	1	0	1	0
91	336	0	10000	1	1	0	1	0
89	337	0	10000	1	1	0	1	0
84	338	0	10000	1	1	0	1	0
80	339	0	10000	1	1	0	1	0
77	340	0	10000	1	1	0	1	0
74	340	0	10000	1	1	0	1	0
71	341	0	10000	1	1	0	1	0
68	343	0	10000	1	1	0	1	0
66	344	0	10000	1	1	0	1	0
66	345	0	10000	1	1	0	1	0
63	346	0	10000	1	1	0	1	0
59	347	0	10000	1	1	0	1	0
57	348	0	10000	1	1	0	1	0
55	349	0	10000	1	1	0	1	0
56	350	0	10000	1	1	0	1	0
55	350	0	10000	1	1	0	1	0
54	351	0	10000	1	1	0	1	0
53	353	0	10000	1	1	0	1	0
53	354	0	10000	1	1	0	1	0
52	355	0	10000	1	1	0	1	0
52	356	0	10000	1	1	0	1	0
51	357	0	10000	1	1	0	1	0
49	358	0	10000	1	1	0	1	0
48	359	0	10000	1	1	0	1	0
48	360	0	10000	1	1	0	1	0
50	360	0	10000	1	1	0	1	0
51	361	0	10000	1	1	0	1	0
50	363	0	10000	1	1	0	1	0
50	364	0	10000	1	1	0	1	0
50	365	0	10000	1	1	0	1	0
47	366	0	10000	1	1	0	1	0
44	367	0	10000	1	1	0	1	0
44	368	0	10000	1	1	0	1	0
45	369	0	10000	1	1	0	1	0
47	370	0	10000	1	1	0	1	0
49	370	0	10000	1	1	0	1	0
49	371	0	10000	1	1	0	1	0
49	373	0	10000	1	1	0	1	0
50	374	0	10000	1	1	0	1	0
51	375	0	10000	1	1	0	1	0
55	376	0	10000	1	1	0	1	0
59	377	0	10000	1	1	0	1	0
60	378	0	10000	1	1	0	1	0
59	379	0	10000	1	1	0	1	0
57	380	0	10000	1	1	0	1	0
57	380	0	10000	1	1	0	1	0
57	381	0	10000	1	1	0	1	0
59	383	0	10000	1	1	0	1	0
61	384	0	10000	1	1	0	1	0
63	385	0	10000	1	1	0	1	0
61	386	0	10000	1	1	0	1	0
58	387	0	10000	1	1	0	1	0
58	388	0	10000	1	1	0	1	0
59	389	0	10000	1	1	0	1	0
63	390	0	10000	1	1	0	1	0
67	390	0	10000	1	1	0	1	0
68	391	0	10000	1	1	0	1	0
71	393	0	10000	1	1	0	1	0
71	394	0	10000	1	1	0	1	0
70	395	0	10000	1	1	0	1	0
72	396	0	10000	1	1	0	1	0
76	397	0	10000	1	1	0	1	0
78	398	0	10000	1	1	0	1	0
82	399	0	10000	1	1	0	1	0
85	400	0	10000	1	1	0	1	0
87	400	0	10000	1	1	0	1	0
90	401	0	10000	1	1	0	1	0
90	403	0	10000	1	1	0	1	0
92	404	0	10000	1	1	0	1	0
92	405	0	10000	1	1	0	1	0
91	406	0	10000	1	1	0	1	0
87	407	0	10000	1	1	0	1	0
87	408	0	10000	1	1	0	1	0
87	409	0	10000	1	1	0	1	0
89	410	0	10000	1	1	0	1	0
92	410	0	10000	1	1	0	1	0
92	411	0	10000	1	1	0	1	0
94	413	0	10000	1	1	0	1	0
93	414	0	10000	1	1	0	1	0
91	415	0	10000	1	1	0	1	0
91	416	0	10000	1	1	0	1	0
91	417	0	10000	1	1	0	1	0
89	418	0	10000	1	1	0	1	0
88	419	0	10000	1	1	0	1	0
89	420	0	10000	1	1	0	1	0
89	420	0	10000	1	1	0	1	0
88	421	0	10000	1	1	0	1	0
86	423	0	10000	1	1	0	1	0
84	424	0	10000	1	1	0	1	0
85	425	0	10000	1	1	0	1	0
83	426	0	10000	1	1	0	1	0
80	427	0	10000	1	1	0	1	0
79	428	0	10000	1	1	0	1	0
77	429	0	10000	1	1	0	1	0
75	430	0	10000	1	1	0	1	0
73	430	0	10000	1	1	0	1	0
72	431	0	10000	1	1	0	1	0
72	433	0	10000	1	1	0	1	0
70	434	0	10000	1	1	0	1	0
68	435	0	10000	1	1	0	1	0
67	436	0	10000	1	1	0	1	0
66	437	0	10000	1	1	0	1	0
63	438	0	10000	1	1	0	1	0
62	439	0	10000	1	1	0	1	0
59	440	0	10000	1	1	0	1	0
57	440	0	10000	1	1	0	1	0
55	441	0	10000	1	1	0	1	0
54	443	0	10000	1	1	0	1	0
53	444	0	10000	1	1	0	1	0
50	445	0	10000	1	1	0	1	0
48	446	0	10000	1	1	0	1	0
45	447	0	10000	1	1	0	1	0
44	448	0	10000	1	1	0	1	0
43	449	0	10000	1	1	0	1	0
42	450	0	10000	1	1	0	1	0
40	450	0	10000	1	1	0	1	0
39	451	0	10000	1	1	0	1	0
38	453	0	10000	1	1	0	1	0
35	454	0	10000	1	1	0	1	0
33	455	0	10000	1	1	0	1	0
32	456	0	10000	1	1	0	1	0
33	457	0	10000	1	1	0	1	0
31	458	0	10000	1	1	0	1	0
30	459	0	10000	1	1	0	1	0
28	460	0	10000	1	1	0	1	0
28	460	0	10000	1	1	0	1	0
27	461	0	10000	1	1	0	1	0
26	463	0	10000	1	1	0	1	0
25	464	0	10000	1	1	0	1	0
25	465	0	10000	1	1	0	1	0
24	466	0	10000	1	1	0	1	0
23	467	0	10000	1	1	0	1	0
21	468	0	10000	1	1	0	1	0
21	469	0	10000	1	1	0	1	0
22	470	0	10000	1	1	0	1	0
21	470	0	10000	1	1	0	1	0
20	471	0	10000	1	1	0	1	0
21	473	0	10000	1	1	0	1	0
19	474	0	10000	1	1	0	1	0
19	475	0	10000	1	1	0	1	0
19	476	0	10000	1	1	0	1	0
21	477	0	10000	1	1	0	1	0
20	478	0	10000	1	1	0	1	0
19	479	0	10000	1	1	0	1	0
19	480	0	10000	1	1	0	1	0
20	480	0	10000	1	1	0	1	0
20	481	0	10000	1	1	0	1	0
22	483	0	10000	1	1	0	1	0
22	484	0	10000	1	1	0	1	0
23	485	0	10000	1	1	0	1	0
23	486	0	10000	1	1	0	1	0
21	487	0	10000	1	1	0	1	0
21	488	0	10000	1	1	0	1	0
20	489	0	10000	1	1	0	1	0
20	490	0	10000	1	1	0	1	0
19	490	0	10000	1	1	0	1	0
19	491	0	10000	1	1	0	1	0
19	493	0	10000	1	1	0	1	0
18	494	0	10000	1	1	0	1	0
18	495	0	10000	1	1	0	1	0
18	496	0	10000	1	1	0	1	0
20	497	0	10000	1	1	0	1	0
21	498	0	10000	1	1	0	1	0
22	499	0	10000	1	1	0	1	0
22	500	0	10000	1	1	0	1	0
23	500	0	10000	1	1	0	1	0
22	501	0	10000	1	1	0	1	0
21	562	0	10000	1	1	0	1	1
22	563	0	10000	1	1	0	1	1
21	564	0	10000	1	1	0	1	1
20	565	0	10000	1	1	0	1	1
21	566	0	10000	1	1	0	1	1
21	567	0	10000	1	1	0	1	1
22	568	0	10000	1	1	0	1	1
24	569	0	10000	1	1	0	1	1
24	570	0	10000	1	1	0	1	1
23	571	0	10000	1	1	0	1	1
23	572	0	10000	1	1	0	1	1
22	573	0	10000	1	1	0	1	1
20	574	0	10000	1	1	0	1	1
20	575	0	10000	1	1	0	1	1
21	576	0	10000	1	1	0	1	1
21	577	0	10000	1	1	0	1	1
21	578	0	10000	1	1	0	1	1
23	579	0	10000	1	1	0	1	1
27	580	0	10000	1	1	0	1	1
29	581	0	10000	1	1	0	1	1
32	582	0	10000	1	1	0	1	1
34	583	0	10000	1	1	0	1	1
37	584	0	10000	1	1	0	1	1
39	585	0	10000	1	1	0	1	1
39	586	0	10000	1	1	0	1	1
40	587	0	10000	1	1	0	1	1
42	588	0	10000	1	1	0	1	1
43	589	0	10000	1	1	0	1	1
44	590	0	10000	1	1	0	1	1
44	591	0	10000	1	1	0	1	1
44	592	0	10000	1	1	0	1	1
45	593	0	10000	1	1	0	1	1
47	594	0	10000	1	1	0	1	1
48	595	0	10000	1	1	0	1	1
52	596	0	10000	1	1	0	1	1
53	597	0	10000	1	1	0	1	1
53	598	0	10000	1	1	0	1	1
52	599	0	10000	1	1	0	1	1
52	600	0	10000	1	1	0	1	1
49	601	0	10000	1	1	0	1	1
47	602	0	10000	1	1	0	1	1
48	603	0	10000	1	1	0	1	1
47	604	0	10000	1	1	0	1	1
46	605	0	10000	1	1	0	1	1
44	606	0	10000	1	1	0	1	1
43	607	0	10000	1	1	0	1	1
42	608	0	10000	1	1	0	1	1
41	609	0	10000	1	1	0	1	1
41	610	0	10000	1	1	0	1	1
41	611	0	10000	1	1	0	1	1
41	612	0	10000	1	1	0	1	1
40	613	0	10000	1	1	0	1	1
38	614	0	10000	1	1	0	1	1
38	615	0	10000	1	1	0	1	1
38	616	0	10000	1	1	0	1	1
36	617	0	10000	1	1	0	1	1
35	618	0	10000	1	1	0	1	1
33	619	0	10000	1	1	0	1	1
33	620	0	10000	1	1	0	1	1
31	621	0	10000	1	1	0	1	1
32	622	0	10000	1	1	0	1	1
33	623	0	10000	1	1	0	1	1
35	572	0	10000	1	1	0	1	0
36	573	0	10000	1	1	0	1	0
37	574	0	10000	1	1	0	1	0
39	575	0	10000	1	1	0	1	0
41	576	0	10000	1	1	0	1	0
42	577	0	10000	1	1	0	1	0
42	578	0	10000	1	1	0	1	0
43	579	0	10000	1	1	0	1	0
42	580	0	10000	1	1	0	1	0
41	581	0	10000	1	1	0	1	0
41	575	0	10000	1	1	0	1	0
40	576	0	10000	1	1	0	1	0
42	577	0	10000	1	1	0	1	0
42	578	0	10000	1	1	0	1	0
43	579	0	10000	1	1	0	1	0
43	580	0	10000	1	1	0	1	0
43	581	0	10000	1	1	0	1	0
42	582	0	10000	1	1	0	1	0
42	583	0	10000	1	1	0	1	0
41	584	0	10000	1	1	0	1	0
41	585	0	10000	1	1	0	1	0
39	586	0	10000	1	1	0	1	0
36	587	0	10000	1	1	0	1	0
36	588	0	10000	1	1	0	1	0
35	589	0	10000	1	1	0	1	0
35	590	0	10000	1	1	0	1	0
35	591	0	10000	1	1	0	1	0
34	592	0	10000	1	1	0	1	0
33	593	0	10000	1	1	0	1	0
32	594	0	10000	1	1	0	1	0
32	595	0	10000	1	1	0	1	0
30	596	0	10000	1	1	0	1	0
31	597	0	10000	1	1	0	1	0
29	598	0	10000	1	1	0	1	0
28	599	0	10000	1	1	0	1	0
27	600	0	10000	1	1	0	1	0
26	600	0	10000	1	1	0	1	0
25	601	0	10000	1	1	0	1	0
24	603	0	10000	1	1	0	1	0
23	604	0	10000	1	1	0	1	0
24	605	0	10000	1	1	0	1	0
24	606	0	10000	1	1	0	1	0
22	607	0	10000	1	1	0	1	0
22	608	0	10000	1	1	0	1	0
22	609	0	10000	1	1	0	1	0
22	610	0	10000	1	1	0	1	0
20	610	0	10000	1	1	0	1	0
21	611	0	10000	1	1	0	1	0
20	613	0	10000	1	1	0	1	0
19	614	0	10000	1	1	0	1	0
18	615	0	10000	1	1	0	1	0
18	616	0	10000	1	1	0	1	0
19	617	0	10000	1	1	0	1	0
19	618	0	10000	1	1	0	1	0
19	619	0	10000	1	1	0	1	0
18	620	0	10000	1	1	0	1	0
18	620	0	10000	1	1	0	1	0
17	621	0	10000	1	1	0	1	0
17	623	0	10000	1	1	0	1	0
18	624	0	10000	1	1	0	1	0
18	625	0	10000	1	1	0	1	0
17	626	0	10000	1	1	0	1	0
15	627	0	10000	1	1	0	1	0
15	628	0	10000	1	1	0	1	0
16	629	0	10000	1	1	0	1	0
15	630	0	10000	1	1	0	1	0
14	630	0	10000	1	1	0	1	0
15	631	0	10000	1	1	0	1	0
15	633	0	10000	1	1	0	1	0
15	634	0	10000	1	1	0	1	0
15	635	0	10000	1	1	0	1	0
15	636	0	10000	1	1	0	1	0
16	637	0	10000	1	1	0	1	0
16	638	0	10000	1	1	0	1	0
15	639	0	10000	1	1	0	1	0
15	640	0	10000	1	1	0	1	0
15	640	0	10000	1	1	0	1	0
14	641	0	10000	1	1	0	1	0
13	643	0	10000	1	1	0	1	0
14	644	0	10000	1	1	0	1	0
15	645	0	10000	1	1	0	1	0
16	646	0	10000	1	1	0	1	0
13	647	0	10000	1	1	0	1	0
13	648	0	10000	1	1	0	1	0
15	649	0	10000	1	1	0	1	0
15	650	0	10000	1	1	0	1	0
14	650	0	10000	1	1	0	1	0
14	651	0	10000	1	1	0	1	0
15	653	0	10000	1	1	0	1	0
13	654	0	10000	1	1	0	1	0
16	655	0	10000	1	1	0	1	0
20	656	0	10000	1	1	0	1	0
27	657	0	10000	1	1	0	1	0
27	658	0	10000	1	1	0	1	0
31	659	0	10000	1	1	0	1	0
38	660	0	10000	1	1	0	1	0
47	660	0	10000	1	1	0	1	0
50	661	0	10000	1	1	0	1	0
49	663	0	10000	1	1	0	1	0
46	664	0	10000	1	1	0	1	0
48	665	0	10000	1	1	0	1	0
53	666	0	10000	1	1	0	1	0
56	667	0	10000	1	1	0	1	0
59	668	0	10000	1	1	0	1	0
58	669	0	10000	1	1	0	1	0
56	670	0	10000	1	1	0	1	0
57	670	0	10000	1	1	0	1	0
61	671	0	10000	1	1	0	1	0
68	673	0	10000	1	1	0	1	0
74	674	0	10000	1	1	0	1	0
76	675	0	10000	1	1	0	1	0
74	676	0	10000	1	1	0	1	0
79	677	0	10000	1	1	0	1	0
86	678	0	10000	1	1	0	1	0
95	679	0	10000	1	1	0	1	0
97	680	0	10000	1	1	0	1	0
108	680	0	10000	1	1	0	1	0
123	681	0	10000	1	1	0	1	0
133	683	0	10000	1	1	0	1	0
129	684	0	10000	1	1	0	1	0
127	685	0	10000	1	1	0	1	0
126	686	0	10000	1	1	0	1	0
123	687	0	10000	1	1	0	1	0
120	688	0	10000	1	1	0	1	0
118	689	0	10000	1	1	0	1	0
118	690	0	10000	1	1	0	1	0
118	690	0	10000	1	1	0	1	0
116	691	0	10000	1	1	0	1	0
111	693	0	10000	1	1	0	1	0
106	694	0	10000	1	1	0	1	0
105	695	0	10000	1	1	0	1	0
103	696	0	10000	1	1	0	1	0
103	697	0	10000	1	1	0	1	0
100	698	0	10000	1	1	0	1	0
100	699	0	10000	1	1	0	1	0
97	700	0	10000	1	1	0	1	0
92	700	0	10000	1	1	0	1	0
89	701	0	10000	1	1	0	1	0
87	703	0	10000	1	1	0	1	0
85	704	0	10000	1	1	0	1	0
84	705	0	10000	1	1	0	1	0
80	706	0	10000	1	1	0	1	0
77	707	0	10000	1	1	0	1	0
75	708	0	10000	1	1	0	1	0
73	709	0	10000	1	1	0	1	0
70	710	0	10000	1	1	0	1	0
68	710	0	10000	1	1	0	1	0
65	711	0	10000	1	1	0	1	0
62	713	0	10000	1	1	0	1	0
59	714	0	10000	1	1	0	1	0
56	715	0	10000	1	1	0	1	0
54	716	0	10000	1	1	0	1	0
55	717	0	10000	1	1	0	1	0
52	718	0	10000	1	1	0	1	0
50	719	0	10000	1	1	0	1	0
49	720	0	10000	1	1	0	1	0
46	720	0	10000	1	1	0	1	0
46	721	0	10000	1	1	0	1	0
46	723	0	10000	1	1	0	1	0
45	724	0	10000	1	1	0	1	0
43	725	0	10000	1	1	0	1	0
43	726	0	10000	1	1	0	1	0
39	727	0	10000	1	1	0	1	0
40	728	0	10000	1	1	0	1	0
43	729	0	10000	1	1	0	1	0
46	730	0	10000	1	1	0	1	0
49	730	0	10000	1	1	0	1	0
51	731	0	10000	1	1	0	1	0
55	733	0	10000	1	1	0	1	0
56	734	0	10000	1	1	0	1	0
57	735	0	10000	1	1	0	1	0
57	736	0	10000	1	1	0	1	0
58	737	0	10000	1	1	0	1	0
55	738	0	10000	1	1	0	1	0
55	739	0	10000	1	1	0	1	0
56	740	0	10000	1	1	0	1	0
57	740	0	10000	1	1	0	1	0
55	741	0	10000	1	1	0	1	0
53	743	0	10000	1	1	0	1	0
54	744	0	10000	1	1	0	1	0
53	745	0	10000	1	1	0	1	0
51	746	0	10000	1	1	0	1	0
47	747	0	10000	1	1	0	1	0
47	748	0	10000	1	1	0	1	0
48	749	0	10000	1	1	0	1	0
47	750	0	10000	1	1	0	1	0
45	750	0	10000	1	1	0	1	0
44	751	0	10000	1	1	0	1	0
43	753	0	10000	1	1	0	1	0
41	754	0	10000	1	1	0	1	0
38	755	0	10000	1	1	0	1	0
37	756	0	10000	1	1	0	1	0
38	757	0	10000	1	1	0	1	0
36	758	0	10000	1	1	0	1	0
34	759	0	10000	1	1	0	1	0
33	760	0	10000	1	1	0	1	0
33	760	0	10000	1	1	0	1	0
33	761	0	10000	1	1	0	1	0
34	763	0	10000	1	1	0	1	0
36	764	0	10000	1	1	0	1	0
37	765	0	10000	1	1	0	1	0
37	766	0	10000	1	1	0	1	0
36	767	0	10000	1	1	0	1	0
38	768	0	10000	1	1	0	1	0
38	769	0	10000	1	1	0	1	0
40	770	0	10000	1	1	0	1	0
42	770	0	10000	1	1	0	1	0
42	771	0	10000	1	1	0	1	0
43	773	0	10000	1	1	0	1	0
42	774	0	10000	1	1	0	1	0
41	775	0	10000	1	1	0	1	0
40	776	0	10000	1	1	0	1	0
42	777	0	10000	1	1	0	1	0
40	778	0	10000	1	1	0	1	0
40	779	0	10000	1	1	0	1	0
40	780	0	10000	1	1	0	1	0
40	780	0	10000	1	1	0	1	0
40	781	0	10000	1	1	0	1	0
39	783	0	10000	1	1	0	1	0
39	784	0	10000	1	1	0	1	0
39	785	0	10000	1	1	0	1	0
38	786	0	10000	1	1	0	1	0
35	787	0	10000	1	1	0	1	0
35	788	0	10000	1	1	0	1	0
33	789	0	10000	1	1	0	1	0
32	790	0	10000	1	1	0	1	0
32	790	0	10000	1	1	0	1	0
31	791	0	10000	1	1	0	1	0
30	793	0	10000	1	1	0	1	0
30	794	0	10000	1	1	0	1	0
29	795	0	10000	1	1	0	1	0
28	796	0	10000	1	1	0	1	0
29	797	0	10000	1	1	0	1	0
28	798	0	10000	1	1	0	1	0
27	799	0	10000	1	1	0	1	0
26	800	0	10000	1	1	0	1	0
26	800	0	10000	1	1	0	1	0
25	801	0	10000	1	1	0	1	0
24	803	0	10000	1	1	0	1	0
24	804	0	10000	1	1	0	1	0
24	805	0	10000	1	1	0	1	0
22	806	0	10000	1	1	0	1	0
20	807	0	10000	1	1	0	1	0
21	808	0	10000	1	1	0	1	0
21	809	0	10000	1	1	0	1	0
21	810	0	10000	1	1	0	1	0
21	810	0	10000	1	1	0	1	0
20	811	0	10000	1	1	0	1	0
20	813	0	10000	1	1	0	1	0
20	814	0	10000	1	1	0	1	0
20	815	0	10000	1	1	0	1	0
19	816	0	10000	1	1	0	1	0
20	817	0	10000	1	1	0	1	0
20	818	0	10000	1	1	0	1	0
19	819	0	10000	1	1	0	1	0
19	820	0	10000	1	1	0	1	0
18	820	0	10000	1	1	0	1	0
18	821	0	10000	1	1	0	1	0
17	823	0	10000	1	1	0	1	0
17	824	0	10000	1	1	0	1	0
18	825	0	10000	1	1	0	1	0
17	826	0	10000	1	1	0	1	0
14	827	0	10000	1	1	0	1	0
16	828	0	10000	1	1	0	1	0
16	829	0	10000	1	1	0	1	0
16	830	0	10000	1	1	0	1	0
15	830	0	10000	1	1	0	1	0
15	831	0	10000	1	1	0	1	0
14	833	0	10000	1	1	0	1	0
14	834	0	10000	1	1	0	1	0
14	835	0	10000	1	1	0	1	0
14	836	0	10000	1	1	0	1	0
16	837	0	10000	1	1	0	1	0
16	838	0	10000	1	1	0	1	0
15	839	0	10000	1	1	0	1	0
14	840	0	10000	1	1	0	1	0
14	840	0	10000	1	1	0	1	0
15	841	0	10000	1	1	0	1	0
13	843	0	10000	1	1	0	1	0
14	844	0	10000	1	1	0	1	0
14	845	0	10000	1	1	0	1	0
13	846	0	10000	1	1	0	1	0
11	847	0	10000	1	1	0	1	0
13	848	0	10000	1	1	0	1	0
12	849	0	10000	1	1	0	1	0
12	850	0	10000	1	1	0	1	0
13	850	0	10000	1	1	0	1	0
13	851	0	10000	1	1	0	1	0
13	853	0	10000	1	1	0	1	0
13	854	0	10000	1	1	0	1	0
11	855	0	10000	1	1	0	1	0
12	856	0	10000	1	1	0	1	0
13	857	0	10000	1	1	0	1	0
13	858	0	10000	1	1	0	1	0
14	859	0	10000	1	1	0	1	0
13	860	0	10000	1	1	0	1	0
13	860	0	10000	1	1	0	1	0
13	861	0	10000	1	1	0	1	0
13	863	0	10000	1	1	0	1	0
14	864	0	10000	1	1	0	1	0
15	865	0	10000	1	1	0	1	0
15	866	0	10000	1	1	0	1	0
13	867	0	10000	1	1	0	1	0
15	868	0	10000	1	1	0	1	0
15	869	0	10000	1	1	0	1	0
16	870	0	10000	1	1	0	1	0
17	870	0	10000	1	1	0	1	0
18	871	0	10000	1	1	0	1	0
19	873	0	10000	1	1	0	1	0
17	874	0	10000	1	1	0	1	0
17	875	0	10000	1	1	0	1	0
17	876	0	10000	1	1	0	1	0
18	877	0	10000	1	1	0	1	0
17	878	0	10000	1	1	0	1	0
17	879	0	10000	1	1	0	1	0
16	880	0	10000	1	1	0	1	0
15	880	0	10000	1	1	0	1	0
15	881	0	10000	1	1	0	1	0
15	883	0	10000	1	1	0	1	0
16	884	0	10000	1	1	0	1	0
16	885	0	10000	1	1	0	1	0
16	886	0	10000	1	1	0	1	0
13	887	0	10000	1	1	0	1	0
14	888	0	10000	1	1	0	1	0
14	889	0	10000	1	1	0	1	0
14	890	0	10000	1	1	0	1	0
14	890	0	10000	1	1	0	1	0
13	891	0	10000	1	1	0	1	0
13	893	0	10000	1	1	0	1	0
13	894	0	10000	1	1	0	1	0
11	895	0	10000	1	1	0	1	0
12	896	0	10000	1	1	0	1	0
14	897	0	10000	1	1	0	1	0
14	898	0	10000	1	1	0	1	0
13	899	0	10000	1	1	0	1	0
12	900	0	10000	1	1	0	1	0
12	900	0	10000	1	1	0	1	0
12	901	0	10000	1	1	0	1	0
11	903	0	10000	1	1	0	1	0
12	904	0	10000	1	1	0	1	0
12	905	0	10000	1	1	0	1	0
12	906	0	10000	1	1	0	1	0
10	907	0	10000	1	1	0	1	0
11	908	0	10000	1	1	0	1	0
12	909	0	10000	1	1	0	1	0
12	910	0	10000	1	1	0	1	0
12	910	0	10000	1	1	0	1	0
13	911	0	10000	1	1	0	1	0
14	913	0	10000	1	1	0	1	0
12	914	0	10000	1	1	0	1	0
11	915	0	10000	1	1	0	1	0
11	916	0	10000	1	1	0	1	0
13	917	0	10000	1	1	0	1	0
13	918	0	10000	1	1	0	1	0
13	919	0	10000	1	1	0	1	0
12	920	0	10000	1	1	0	1	0
12	920	0	10000	1	1	0	1	0
11	921	0	10000	1	1	0	1	0
10	923	0	10000	1	1	0	1	0
12	924	0	10000	1	1	0	1	0
12	925	0	10000	1	1	0	1	0
11	926	0	10000	1	1	0	1	0
9	927	0	10000	1	1	0	1	0
9	928	0	10000	1	1	0	1	0
9	929	0	10000	1	1	0	1	0
11	930	0	10000	1	1	0	1	0
10	930	0	10000	1	1	0	1	0
10	931	0	10000	1	1	0	1	0
11	933	0	10000	1	1	0	1	0
9	934	0	10000	1	1	0	1	0
9	935	0	10000	1	1	0	1	0
10	936	0	10000	1	1	0	1	0
12	937	0	10000	1	1	0	1	0
11	938	0	10000	1	1	0	1	0
11	939	0	10000	1	1	0	1	0
11	940	0	10000	1	1	0	1	0
10	940	0	10000	1	1	0	1	0
10	941	0	10000	1	1	0	1	0
10	943	0	10000	1	1	0	1	0
11	944	0	10000	1	1	0	1	0
11	945	0	10000	1	1	0	1	0
11	946	0	10000	1	1	0	1	0
9	947	0	10000	1	1	0	1	0
9	948	0	10000	1	1	0	1	0
9	949	0	10000	1	1	0	1	0
10	950	0	10000	1	1	0	1	0
9	950	0	10000	1	1	0	1	0
10	951	0	10000	1	1	0	1	0
10	953	0	10000	1	1	0	1	0
9	954	0	10000	1	1	0	1	0
9	955	0	10000	1	1	0	1	0
10	956	0	10000	1	1	0	1	0
12	957	0	10000	1	1	0	1	0
12	958	0	10000	1	1	0	1	0
12	959	0	10000	1	1	0	1	0
11	960	0	10000	1	1	0	1	0
11	960	0	10000	1	1	0	1	0
13	961	0	10000	1	1	0	1	0
12	963	0	10000	1	1	0	1	0
13	964	0	10000	1	1	0	1	0
13	965	0	10000	1	1	0	1	0
13	966	0	10000	1	1	0	1	0
12	967	0	10000	1	1	0	1	0
11	968	0	10000	1	1	0	1	0
12	969	0	10000	1	1	0	1	0
12	970	0	10000	1	1	0	1	0
12	970	0	10000	1	1	0	1	0
12	971	0	10000	1	1	0	1	0
13	973	0	10000	1	1	0	1	0
13	974	0	10000	1	1	0	1	0
12	975	0	10000	1	1	0	1	0
14	976	0	10000	1	1	0	1	0
16	977	0	10000	1	1	0	1	0
15	978	0	10000	1	1	0	1	0
14	979	0	10000	1	1	0	1	0
14	980	0	10000	1	1	0	1	0
14	980	0	10000	1	1	0	1	0
14	981	0	10000	1	1	0	1	0
14	983	0	10000	1	1	0	1	0
15	984	0	10000	1	1	0	1	0
15	985	0	10000	1	1	0	1	0
15	986	0	10000	1	1	0	1	0
15	987	0	10000	1	1	0	1	0
16	988	0	10000	1	1	0	1	0
16	989	0	10000	1	1	0	1	0
17	990	0	10000	1	1	0	1	0
18	990	0	10000	1	1	0	1	0
19	991	0	10000	1	1	0	1	0
20	993	0	10000	1	1	0	1	0
19	994	0	10000	1	1	0	1	0
18	995	0	10000	1	1	0	1	0
19	996	0	10000	1	1	0	1	0
20	997	0	10000	1	1	0	1	0
20	998	0	10000	1	1	0	1	0
20	999	0	10000	1	1	0	1	0
19	1000	0	10000	1	1	0	1	0
19	1000	0	10000	1	1	0	1	0
18	1001	0	10000	1	1	0	1	0
71	2	1	10000	2	1	0	2	0
69	3	1	10000	2	1	0	2	0
67	4	1	10000	2	1	0	2	0
67	5	1	10000	2	1	0	2	0
66	6	1	10000	2	1	0	2	0
63	7	1	10000	2	1	0	2	0
59	8	1	10000	2	1	0	2	0
57	9	1	10000	2	1	0	2	0
56	10	1	10000	2	1	0	2	0
54	11	1	10000	2	1	0	2	0
52	12	1	10000	2	1	0	2	0
51	13	1	10000	2	1	0	2	0
50	14	1	10000	2	1	0	2	0
48	15	1	10000	2	1	0	2	0
46	16	1	10000	2	1	0	2	0
45	17	1	10000	2	1	0	2	0
44	18	1	10000	2	1	0	2	0
42	19	1	10000	2	1	0	2	0
41	20	1	10000	2	1	0	2	0
39	21	1	10000	2	1	0	2	0
38	22	1	10000	2	1	0	2	0
36	23	1	10000	2	1	0	2	0
35	24	1	10000	2	1	0	2	0
34	25	1	10000	2	1	0	2	0
33	26	1	10000	2	1	0	2	0
32	27	1	10000	2	1	0	2	0
30	28	1	10000	2	1	0	2	0
30	29	1	10000	2	1	0	2	0
30	30	1	10000	2	1	0	2	0
29	31	1	10000	2	1	0	2	0
28	32	1	10000	2	1	0	2	0
27	33	1	10000	2	1	0	2	0
27	34	1	10000	2	1	0	2	0
25	35	1	10000	2	1	0	2	0
24	36	1	10000	2	1	0	2	0
23	37	1	10000	2	1	0	2	0
25	38	1	10000	2	1	0	2	0
24	39	1	10000	2	1	0	2	0
23	40	1	10000	2	1	0	2	0
23	41	1	10000	2	1	0	2	0
24	42	1	10000	2	1	0	2	0
23	43	1	10000	2	1	0	2	0
23	44	1	10000	2	1	0	2	0
23	45	1	10000	2	1	0	2	0
22	46	1	10000	2	1	0	2	0
21	47	1	10000	2	1	0	2	0
19	48	1	10000	2	1	0	2	0
19	49	1	10000	2	1	0	2	0
19	50	1	10000	2	1	0	2	0
18	51	1	10000	2	1	0	2	0
18	52	1	10000	2	1	0	2	0
17	53	1	10000	2	1	0	2	0
17	54	1	10000	2	1	0	2	0
16	55	1	10000	2	1	0	2	0
16	56	1	10000	2	1	0	2	0
17	57	1	10000	2	1	0	2	0
18	58	1	10000	2	1	0	2	0
19	59	1	10000	2	1	0	2	0
18	60	1	10000	2	1	0	2	0
18	61	1	10000	2	1	0	2	0
19	62	1	10000	2	1	0	2	0
18	63	1	10000	2	1	0	2	0
18	64	1	10000	2	1	0	2	0
19	65	1	10000	2	1	0	2	0
20	66	1	10000	2	1	0	2	0
20	67	1	10000	2	1	0	2	0
19	68	1	10000	2	1	0	2	0
20	69	1	10000	2	1	0	2	0
19	70	1	10000	2	1	0	2	0
19	71	1	10000	2	1	0	2	0
18	72	1	10000	2	1	0	2	0
19	73	1	10000	2	1	0	2	0
19	74	1	10000	2	1	0	2	0
18	75	1	10000	2	1	0	2	0
17	76	1	10000	2	1	0	2	0
16	77	1	10000	2	1	0	2	0
18	78	1	10000	2	1	0	2	0
18	79	1	10000	2	1	0	2	0
17	80	1	10000	2	1	0	2	0
17	81	1	10000	2	1	0	2	0
17	82	1	10000	2	1	0	2	0
18	83	1	10000	2	1	0	2	0
18	84	1	10000	2	1	0	2	0
19	85	1	10000	2	1	0	2	0
20	86	1	10000	2	1	0	2	0
18	87	1	10000	2	1	0	2	0
16	88	1	10000	2	1	0	2	0
17	89	1	10000	2	1	0	2	0
19	90	1	10000	2	1	0	2	0
21	91	1	10000	2	1	0	2	0
21	92	1	10000	2	1	0	2	0
22	93	1	10000	2	1	0	2	0
21	94	1	10000	2	1	0	2	0
19	95	1	10000	2	1	0	2	0
20	96	1	10000	2	1	0	2	0
19	97	1	10000	2	1	0	2	0
21	98	1	10000	2	1	0	2	0
21	99	1	10000	2	1	0	2	0
21	100	1	10000	2	1	0	2	0
20	101	1	10000	2	1	0	2	0
25	102	1	10000	2	1	0	2	0
35	103	1	10000	2	1	0	2	0
46	104	1	10000	2	1	0	2	0
55	105	1	10000	2	1	0	2	0
58	106	1	10000	2	1	0	2	0
57	107	1	10000	2	1	0	2	0
57	108	1	10000	2	1	0	2	0
58	109	1	10000	2	1	0	2	0
58	110	1	10000	2	1	0	2	0
63	111	1	10000	2	1	0	2	0
65	112	1	10000	2	1	0	2	0
66	113	1	10000	2	1	0	2	0
66	114	1	10000	2	1	0	2	0
65	115	1	10000	2	1	0	2	0
71	116	1	10000	2	1	0	2	0
77	117	1	10000	2	1	0	2	0
78	118	1	10000	2	1	0	2	0
80	119	1	10000	2	1	0	2	0
78	120	1	10000	2	1	0	2	0
76	121	1	10000	2	1	0	2	0
84	122	1	10000	2	1	0	2	0
96	123	1	10000	2	1	0	2	0
98	124	1	10000	2	1	0	2	0
99	125	1	10000	2	1	0	2	0
105	126	1	10000	2	1	0	2	0
116	127	1	10000	2	1	0	2	0
121	128	1	10000	2	1	0	2	0
120	129	1	10000	2	1	0	2	0
133	130	1	10000	2	1	0	2	0
167	131	1	10000	2	1	0	2	0
197	132	1	10000	2	1	0	2	0
204	133	1	10000	2	1	0	2	0
198	134	1	10000	2	1	0	2	0
190	135	1	10000	2	1	0	2	0
182	136	1	10000	2	1	0	2	0
177	137	1	10000	2	1	0	2	0
186	138	1	10000	2	1	0	2	0
202	139	1	10000	2	1	0	2	0
211	140	1	10000	2	1	0	2	0
208	141	1	10000	2	1	0	2	0
201	142	1	10000	2	1	0	2	0
195	143	1	10000	2	1	0	2	0
201	144	1	10000	2	1	0	2	0
218	145	1	10000	2	1	0	2	0
238	146	1	10000	2	1	0	2	0
258	147	1	10000	2	1	0	2	0
257	148	1	10000	2	1	0	2	0
247	149	1	10000	2	1	0	2	0
236	150	1	10000	2	1	0	2	0
225	151	1	10000	2	1	0	2	0
216	152	1	10000	2	1	0	2	0
210	153	1	10000	2	1	0	2	0
206	154	1	10000	2	1	0	2	0
199	155	1	10000	2	1	0	2	0
199	156	1	10000	2	1	0	2	0
216	157	1	10000	2	1	0	2	0
245	158	1	10000	2	1	0	2	0
257	159	1	10000	2	1	0	2	0
260	160	1	10000	2	1	0	2	0
260	161	1	10000	2	1	0	2	0
251	162	1	10000	2	1	0	2	0
251	163	1	10000	2	1	0	2	0
248	164	1	10000	2	1	0	2	0
239	165	1	10000	2	1	0	2	0
232	166	1	10000	2	1	0	2	0
225	167	1	10000	2	1	0	2	0
216	168	1	10000	2	1	0	2	0
207	169	1	10000	2	1	0	2	0
202	170	1	10000	2	1	0	2	0
204	171	1	10000	2	1	0	2	0
213	172	1	10000	2	1	0	2	0
210	173	1	10000	2	1	0	2	0
213	174	1	10000	2	1	0	2	0
219	175	1	10000	2	1	0	2	0
218	176	1	10000	2	1	0	2	0
209	177	1	10000	2	1	0	2	0
203	178	1	10000	2	1	0	2	0
197	179	1	10000	2	1	0	2	0
188	180	1	10000	2	1	0	2	0
184	181	1	10000	2	1	0	2	0
181	182	1	10000	2	1	0	2	0
175	183	1	10000	2	1	0	2	0
169	184	1	10000	2	1	0	2	0
164	185	1	10000	2	1	0	2	0
161	186	1	10000	2	1	0	2	0
162	187	1	10000	2	1	0	2	0
161	188	1	10000	2	1	0	2	0
162	189	1	10000	2	1	0	2	0
157	190	1	10000	2	1	0	2	0
153	191	1	10000	2	1	0	2	0
149	192	1	10000	2	1	0	2	0
143	193	1	10000	2	1	0	2	0
141	194	1	10000	2	1	0	2	0
139	195	1	10000	2	1	0	2	0
139	196	1	10000	2	1	0	2	0
143	197	1	10000	2	1	0	2	0
153	198	1	10000	2	1	0	2	0
162	199	1	10000	2	1	0	2	0
167	200	1	10000	2	1	0	2	0
170	201	1	10000	2	1	0	2	0
172	202	1	10000	2	1	0	2	0
176	203	1	10000	2	1	0	2	0
180	204	1	10000	2	1	0	2	0
182	205	1	10000	2	1	0	2	0
184	206	1	10000	2	1	0	2	0
184	207	1	10000	2	1	0	2	0
181	208	1	10000	2	1	0	2	0
180	209	1	10000	2	1	0	2	0
181	210	1	10000	2	1	0	2	0
181	211	1	10000	2	1	0	2	0
180	212	1	10000	2	1	0	2	0
178	213	1	10000	2	1	0	2	0
175	214	1	10000	2	1	0	2	0
170	215	1	10000	2	1	0	2	0
166	216	1	10000	2	1	0	2	0
164	217	1	10000	2	1	0	2	0
165	218	1	10000	2	1	0	2	0
165	219	1	10000	2	1	0	2	0
169	220	1	10000	2	1	0	2	0
173	221	1	10000	2	1	0	2	0
176	222	1	10000	2	1	0	2	0
178	223	1	10000	2	1	0	2	0
180	224	1	10000	2	1	0	2	0
183	225	1	10000	2	1	0	2	0
186	226	1	10000	2	1	0	2	0
190	227	1	10000	2	1	0	2	0
193	228	1	10000	2	1	0	2	0
198	229	1	10000	2	1	0	2	0
202	230	1	10000	2	1	0	2	0
205	231	1	10000	2	1	0	2	0
208	232	1	10000	2	1	0	2	0
209	233	1	10000	2	1	0	2	0
212	234	1	10000	2	1	0	2	0
214	235	1	10000	2	1	0	2	0
216	236	1	10000	2	1	0	2	0
217	237	1	10000	2	1	0	2	0
220	238	1	10000	2	1	0	2	0
221	239	1	10000	2	1	0	2	0
221	240	1	10000	2	1	0	2	0
221	241	1	10000	2	1	0	2	0
220	242	1	10000	2	1	0	2	0
220	243	1	10000	2	1	0	2	0
220	244	1	10000	2	1	0	2	0
222	245	1	10000	2	1	0	2	0
222	246	1	10000	2	1	0	2	0
221	247	1	10000	2	1	0	2	0
218	248	1	10000	2	1	0	2	0
215	249	1	10000	2	1	0	2	0
212	250	1	10000	2	1	0	2	0
209	251	1	10000	2	1	0	2	0
207	252	1	10000	2	1	0	2	0
205	253	1	10000	2	1	0	2	0
203	254	1	10000	2	1	0	2	0
201	255	1	10000	2	1	0	2	0
196	256	1	10000	2	1	0	2	0
191	257	1	10000	2	1	0	2	0
189	258	1	10000	2	1	0	2	0
183	259	1	10000	2	1	0	2	0
176	260	1	10000	2	1	0	2	0
170	261	1	10000	2	1	0	2	0
164	262	1	10000	2	1	0	2	0
158	263	1	10000	2	1	0	2	0
152	264	1	10000	2	1	0	2	0
148	265	1	10000	2	1	0	2	0
144	266	1	10000	2	1	0	2	0
139	267	1	10000	2	1	0	2	0
132	268	1	10000	2	1	0	2	0
127	269	1	10000	2	1	0	2	0
121	270	1	10000	2	1	0	2	0
116	271	1	10000	2	1	0	2	0
113	272	1	10000	2	1	0	2	0
108	273	1	10000	2	1	0	2	0
105	274	1	10000	2	1	0	2	0
103	275	1	10000	2	1	0	2	0
102	276	1	10000	2	1	0	2	0
102	277	1	10000	2	1	0	2	0
105	278	1	10000	2	1	0	2	0
105	279	1	10000	2	1	0	2	0
106	280	1	10000	2	1	0	2	0
107	281	1	10000	2	1	0	2	0
109	282	1	10000	2	1	0	2	0
111	283	1	10000	2	1	0	2	0
111	284	1	10000	2	1	0	2	0
113	285	1	10000	2	1	0	2	0
114	286	1	10000	2	1	0	2	0
113	287	1	10000	2	1	0	2	0
110	288	1	10000	2	1	0	2	0
111	289	1	10000	2	1	0	2	0
111	290	1	10000	2	1	0	2	0
112	291	1	10000	2	1	0	2	0
113	292	1	10000	2	1	0	2	0
113	293	1	10000	2	1	0	2	0
113	294	1	10000	2	1	0	2	0
113	295	1	10000	2	1	0	2	0
112	296	1	10000	2	1	0	2	0
113	297	1	10000	2	1	0	2	0
113	298	1	10000	2	1	0	2	0
113	299	1	10000	2	1	0	2	0
114	300	1	10000	2	1	0	2	0
114	301	1	10000	2	1	0	2	0
116	302	1	10000	2	1	0	2	0
117	303	1	10000	2	1	0	2	0
117	304	1	10000	2	1	0	2	0
117	305	1	10000	2	1	0	2	0
118	306	1	10000	2	1	0	2	0
116	307	1	10000	2	1	0	2	0
114	308	1	10000	2	1	0	2	0
113	309	1	10000	2	1	0	2	0
113	310	1	10000	2	1	0	2	0
112	311	1	10000	2	1	0	2	0
110	312	1	10000	2	1	0	2	0
109	313	1	10000	2	1	0	2	0
108	314	1	10000	2	1	0	2	0
106	315	1	10000	2	1	0	2	0
105	316	1	10000	2	1	0	2	0
104	317	1	10000	2	1	0	2	0
106	318	1	10000	2	1	0	2	0
105	319	1	10000	2	1	0	2	0
106	320	1	10000	2	1	0	2	0
106	321	1	10000	2	1	0	2	0
106	322	1	10000	2	1	0	2	0
108	323	1	10000	2	1	0	2	0
107	324	1	10000	2	1	0	2	0
107	325	1	10000	2	1	0	2	0
107	326	1	10000	2	1	0	2	0
105	327	1	10000	2	1	0	2	0
102	328	1	10000	2	1	0	2	0
102	329	1	10000	2	1	0	2	0
100	330	1	10000	2	1	0	2	0
99	331	1	10000	2	1	0	2	0
96	332	1	10000	2	1	0	2	0
94	333	1	10000	2	1	0	2	0
92	334	1	10000	2	1	0	2	0
91	335	1	10000	2	1	0	2	0
90	336	1	10000	2	1	0	2	0
90	337	1	10000	2	1	0	2	0
91	338	1	10000	2	1	0	2	0
90	339	1	10000	2	1	0	2	0
89	340	1	10000	2	1	0	2	0
87	341	1	10000	2	1	0	2	0
87	342	1	10000	2	1	0	2	0
85	343	1	10000	2	1	0	2	0
82	344	1	10000	2	1	0	2	0
80	345	1	10000	2	1	0	2	0
80	346	1	10000	2	1	0	2	0
79	347	1	10000	2	1	0	2	0
76	348	1	10000	2	1	0	2	0
74	349	1	10000	2	1	0	2	0
72	350	1	10000	2	1	0	2	0
69	351	1	10000	2	1	0	2	0
68	352	1	10000	2	1	0	2	0
66	353	1	10000	2	1	0	2	0
64	354	1	10000	2	1	0	2	0
62	355	1	10000	2	1	0	2	0
61	356	1	10000	2	1	0	2	0
61	357	1	10000	2	1	0	2	0
64	358	1	10000	2	1	0	2	0
64	359	1	10000	2	1	0	2	0
65	360	1	10000	2	1	0	2	0
64	361	1	10000	2	1	0	2	0
64	362	1	10000	2	1	0	2	0
65	363	1	10000	2	1	0	2	0
63	364	1	10000	2	1	0	2	0
63	365	1	10000	2	1	0	2	0
62	366	1	10000	2	1	0	2	0
61	367	1	10000	2	1	0	2	0
56	368	1	10000	2	1	0	2	0
54	369	1	10000	2	1	0	2	0
52	370	1	10000	2	1	0	2	0
50	371	1	10000	2	1	0	2	0
50	372	1	10000	2	1	0	2	0
49	373	1	10000	2	1	0	2	0
49	374	1	10000	2	1	0	2	0
47	375	1	10000	2	1	0	2	0
45	376	1	10000	2	1	0	2	0
45	377	1	10000	2	1	0	2	0
45	378	1	10000	2	1	0	2	0
43	379	1	10000	2	1	0	2	0
41	380	1	10000	2	1	0	2	0
40	381	1	10000	2	1	0	2	0
39	382	1	10000	2	1	0	2	0
39	383	1	10000	2	1	0	2	0
37	384	1	10000	2	1	0	2	0
37	385	1	10000	2	1	0	2	0
37	386	1	10000	2	1	0	2	0
35	387	1	10000	2	1	0	2	0
32	388	1	10000	2	1	0	2	0
31	389	1	10000	2	1	0	2	0
31	390	1	10000	2	1	0	2	0
30	391	1	10000	2	1	0	2	0
30	392	1	10000	2	1	0	2	0
29	393	1	10000	2	1	0	2	0
29	394	1	10000	2	1	0	2	0
27	395	1	10000	2	1	0	2	0
26	396	1	10000	2	1	0	2	0
26	397	1	10000	2	1	0	2	0
26	398	1	10000	2	1	0	2	0
25	399	1	10000	2	1	0	2	0
25	400	1	10000	2	1	0	2	0
23	401	1	10000	2	1	0	2	0
23	402	1	10000	2	1	0	2	0
24	403	1	10000	2	1	0	2	0
23	404	1	10000	2	1	0	2	0
23	405	1	10000	2	1	0	2	0
24	406	1	10000	2	1	0	2	0
23	407	1	10000	2	1	0	2	0
20	408	1	10000	2	1	0	2	0
20	409	1	10000	2	1	0	2	0
20	410	1	10000	2	1	0	2	0
20	411	1	10000	2	1	0	2	0
20	412	1	10000	2	1	0	2	0
19	413	1	10000	2	1	0	2	0
20	414	1	10000	2	1	0	2	0
18	415	1	10000	2	1	0	2	0
17	416	1	10000	2	1	0	2	0
18	417	1	10000	2	1	0	2	0
20	418	1	10000	2	1	0	2	0
19	419	1	10000	2	1	0	2	0
19	420	1	10000	2	1	0	2	0
18	421	1	10000	2	1	0	2	0
18	422	1	10000	2	1	0	2	0
20	423	1	10000	2	1	0	2	0
19	424	1	10000	2	1	0	2	0
20	425	1	10000	2	1	0	2	0
20	426	1	10000	2	1	0	2	0
19	427	1	10000	2	1	0	2	0
17	428	1	10000	2	1	0	2	0
17	429	1	10000	2	1	0	2	0
17	430	1	10000	2	1	0	2	0
18	431	1	10000	2	1	0	2	0
17	432	1	10000	2	1	0	2	0
18	433	1	10000	2	1	0	2	0
19	434	1	10000	2	1	0	2	0
18	435	1	10000	2	1	0	2	0
19	436	1	10000	2	1	0	2	0
19	437	1	10000	2	1	0	2	0
22	438	1	10000	2	1	0	2	0
22	439	1	10000	2	1	0	2	0
21	440	1	10000	2	1	0	2	0
21	441	1	10000	2	1	0	2	0
20	442	1	10000	2	1	0	2	0
20	443	1	10000	2	1	0	2	0
19	444	1	10000	2	1	0	2	0
19	445	1	10000	2	1	0	2	0
19	446	1	10000	2	1	0	2	0
19	447	1	10000	2	1	0	2	0
19	448	1	10000	2	1	0	2	0
20	449	1	10000	2	1	0	2	0
23	450	1	10000	2	1	0	2	0
24	451	1	10000	2	1	0	2	0
23	452	1	10000	2	1	0	2	0
24	453	1	10000	2	1	0	2	0
24	454	1	10000	2	1	0	2	0
23	455	1	10000	2	1	0	2	0
22	456	1	10000	2	1	0	2	0
21	457	1	10000	2	1	0	2	0
23	458	1	10000	2	1	0	2	0
22	459	1	10000	2	1	0	2	0
22	460	1	10000	2	1	0	2	0
21	461	1	10000	2	1	0	2	0
21	462	1	10000	2	1	0	2	0
20	463	1	10000	2	1	0	2	0
20	464	1	10000	2	1	0	2	0
20	465	1	10000	2	1	0	2	0
20	466	1	10000	2	1	0	2	0
19	467	1	10000	2	1	0	2	0
17	468	1	10000	2	1	0	2	0
17	469	1	10000	2	1	0	2	0
16	470	1	10000	2	1	0	2	0
16	471	1	10000	2	1	0	2	0
17	472	1	10000	2	1	0	2	0
17	473	1	10000	2	1	0	2	0
19	474	1	10000	2	1	0	2	0
18	475	1	10000	2	1	0	2	0
17	476	1	10000	2	1	0	2	0
17	477	1	10000	2	1	0	2	0
18	478	1	10000	2	1	0	2	0
18	479	1	10000	2	1	0	2	0
17	480	1	10000	2	1	0	2	0
17	481	1	10000	2	1	0	2	0
17	482	1	10000	2	1	0	2	0
17	483	1	10000	2	1	0	2	0
17	484	1	10000	2	1	0	2	0
19	485	1	10000	2	1	0	2	0
18	486	1	10000	2	1	0	2	0
17	487	1	10000	2	1	0	2	0
16	488	1	10000	2	1	0	2	0
16	489	1	10000	2	1	0	2	0
16	490	1	10000	2	1	0	2	0
17	491	1	10000	2	1	0	2	0
17	492	1	10000	2	1	0	2	0
17	493	1	10000	2	1	0	2	0
18	494	1	10000	2	1	0	2	0
18	495	1	10000	2	1	0	2	0
18	496	1	10000	2	1	0	2	0
17	497	1	10000	2	1	0	2	0
20	498	1	10000	2	1	0	2	0
21	499	1	10000	2	1	0	2	0
21	500	1	10000	2	1	0	2	0
21	501	1	10000	2	1	0	2	0
22	501	1	10000	2	1	0	2	1
21	502	1	10000	2	1	0	2	1
21	504	1	10000	2	1	0	2	1
21	505	1	10000	2	1	0	2	1
20	506	1	10000	2	1	0	2	1
20	507	1	10000	2	1	0	2	1
17	508	1	10000	2	1	0	2	1
17	509	1	10000	2	1	0	2	1
18	510	1	10000	2	1	0	2	1
18	511	1	10000	2	1	0	2	1
18	512	1	10000	2	1	0	2	1
18	513	1	10000	2	1	0	2	1
18	514	1	10000	2	1	0	2	1
18	515	1	10000	2	1	0	2	1
18	516	1	10000	2	1	0	2	1
18	517	1	10000	2	1	0	2	1
20	518	1	10000	2	1	0	2	1
20	519	1	10000	2	1	0	2	1
20	520	1	10000	2	1	0	2	1
19	521	1	10000	2	1	0	2	1
21	522	1	10000	2	1	0	2	1
21	523	1	10000	2	1	0	2	1
20	524	1	10000	2	1	0	2	1
20	525	1	10000	2	1	0	2	1
20	526	1	10000	2	1	0	2	1
20	527	1	10000	2	1	0	2	1
18	528	1	10000	2	1	0	2	1
19	529	1	10000	2	1	0	2	1
18	530	1	10000	2	1	0	2	1
18	531	1	10000	2	1	0	2	1
18	532	1	10000	2	1	0	2	1
17	533	1	10000	2	1	0	2	1
18	534	1	10000	2	1	0	2	1
16	535	1	10000	2	1	0	2	1
16	536	1	10000	2	1	0	2	1
15	537	1	10000	2	1	0	2	1
17	538	1	10000	2	1	0	2	1
16	539	1	10000	2	1	0	2	1
15	540	1	10000	2	1	0	2	1
15	541	1	10000	2	1	0	2	1
16	542	1	10000	2	1	0	2	1
16	543	1	10000	2	1	0	2	1
16	544	1	10000	2	1	0	2	1
17	545	1	10000	2	1	0	2	1
17	546	1	10000	2	1	0	2	1
16	547	1	10000	2	1	0	2	1
14	548	1	10000	2	1	0	2	1
14	549	1	10000	2	1	0	2	1
14	550	1	10000	2	1	0	2	1
15	551	1	10000	2	1	0	2	1
14	552	1	10000	2	1	0	2	0
15	553	1	10000	2	1	0	2	0
14	554	1	10000	2	1	0	2	0
14	555	1	10000	2	1	0	2	0
15	556	1	10000	2	1	0	2	0
14	557	1	10000	2	1	0	2	0
16	558	1	10000	2	1	0	2	0
16	559	1	10000	2	1	0	2	0
15	560	1	10000	2	1	0	2	0
15	561	1	10000	2	1	0	2	0
14	562	1	10000	2	1	0	2	0
13	563	1	10000	2	1	0	2	0
13	564	1	10000	2	1	0	2	0
13	565	1	10000	2	1	0	2	0
13	566	1	10000	2	1	0	2	0
13	567	1	10000	2	1	0	2	0
11	568	1	10000	2	1	0	2	0
11	569	1	10000	2	1	0	2	0
11	570	1	10000	2	1	0	2	0
12	571	1	10000	2	1	0	2	0
12	572	1	10000	2	1	0	2	0
12	573	1	10000	2	1	0	2	0
12	574	1	10000	2	1	0	2	0
12	575	1	10000	2	1	0	2	0
12	576	1	10000	2	1	0	2	0
11	577	1	10000	2	1	0	2	0
14	578	1	10000	2	1	0	2	0
13	579	1	10000	2	1	0	2	0
12	580	1	10000	2	1	0	2	0
12	581	1	10000	2	1	0	2	0
11	582	1	10000	2	1	0	2	0
11	583	1	10000	2	1	0	2	0
12	584	1	10000	2	1	0	2	0
17	585	1	10000	2	1	0	2	0
20	586	1	10000	2	1	0	2	0
20	587	1	10000	2	1	0	2	0
24	588	1	10000	2	1	0	2	0
29	589	1	10000	2	1	0	2	0
32	590	1	10000	2	1	0	2	0
33	591	1	10000	2	1	0	2	0
32	592	1	10000	2	1	0	2	0
34	593	1	10000	2	1	0	2	0
42	594	1	10000	2	1	0	2	0
55	595	1	10000	2	1	0	2	0
57	596	1	10000	2	1	0	2	0
70	597	1	10000	2	1	0	2	0
93	598	1	10000	2	1	0	2	0
109	599	1	10000	2	1	0	2	0
113	600	1	10000	2	1	0	2	0
110	601	1	10000	2	1	0	2	0
110	602	1	10000	2	1	0	2	0
112	603	1	10000	2	1	0	2	0
117	604	1	10000	2	1	0	2	0
129	605	1	10000	2	1	0	2	0
135	606	1	10000	2	1	0	2	0
144	607	1	10000	2	1	0	2	0
179	608	1	10000	2	1	0	2	0
213	609	1	10000	2	1	0	2	0
216	610	1	10000	2	1	0	2	0
214	611	1	10000	2	1	0	2	0
217	612	1	10000	2	1	0	2	0
222	613	1	10000	2	1	0	2	0
234	614	1	10000	2	1	0	2	0
246	615	1	10000	2	1	0	2	0
266	616	1	10000	2	1	0	2	0
284	617	1	10000	2	1	0	2	0
278	618	1	10000	2	1	0	2	0
283	619	1	10000	2	1	0	2	0
291	620	1	10000	2	1	0	2	0
297	621	1	10000	2	1	0	2	0
303	622	1	10000	2	1	0	2	0
298	623	1	10000	2	1	0	2	0
285	624	1	10000	2	1	0	2	0
275	625	1	10000	2	1	0	2	0
268	626	1	10000	2	1	0	2	0
261	627	1	10000	2	1	0	2	0
249	628	1	10000	2	1	0	2	0
238	629	1	10000	2	1	0	2	0
229	630	1	10000	2	1	0	2	0
219	631	1	10000	2	1	0	2	0
211	632	1	10000	2	1	0	2	0
203	633	1	10000	2	1	0	2	0
195	634	1	10000	2	1	0	2	0
187	635	1	10000	2	1	0	2	0
179	636	1	10000	2	1	0	2	0
171	637	1	10000	2	1	0	2	0
165	638	1	10000	2	1	0	2	0
158	639	1	10000	2	1	0	2	0
153	640	1	10000	2	1	0	2	0
147	641	1	10000	2	1	0	2	0
140	642	1	10000	2	1	0	2	0
134	643	1	10000	2	1	0	2	0
129	644	1	10000	2	1	0	2	0
125	645	1	10000	2	1	0	2	0
122	646	1	10000	2	1	0	2	0
121	647	1	10000	2	1	0	2	0
118	648	1	10000	2	1	0	2	0
118	649	1	10000	2	1	0	2	0
117	650	1	10000	2	1	0	2	0
117	651	1	10000	2	1	0	2	0
117	652	1	10000	2	1	0	2	0
116	653	1	10000	2	1	0	2	0
117	654	1	10000	2	1	0	2	0
116	655	1	10000	2	1	0	2	0
116	656	1	10000	2	1	0	2	0
115	657	1	10000	2	1	0	2	0
117	658	1	10000	2	1	0	2	0
117	659	1	10000	2	1	0	2	0
117	660	1	10000	2	1	0	2	0
118	661	1	10000	2	1	0	2	0
117	662	1	10000	2	1	0	2	0
117	663	1	10000	2	1	0	2	0
119	664	1	10000	2	1	0	2	0
120	665	1	10000	2	1	0	2	0
121	666	1	10000	2	1	0	2	0
121	667	1	10000	2	1	0	2	0
119	668	1	10000	2	1	0	2	0
119	669	1	10000	2	1	0	2	0
119	670	1	10000	2	1	0	2	0
118	671	1	10000	2	1	0	2	0
115	672	1	10000	2	1	0	2	0
113	673	1	10000	2	1	0	2	0
109	674	1	10000	2	1	0	2	0
105	675	1	10000	2	1	0	2	0
103	676	1	10000	2	1	0	2	0
101	677	1	10000	2	1	0	2	0
100	678	1	10000	2	1	0	2	0
97	679	1	10000	2	1	0	2	0
94	680	1	10000	2	1	0	2	0
92	681	1	10000	2	1	0	2	0
90	682	1	10000	2	1	0	2	0
87	683	1	10000	2	1	0	2	0
85	684	1	10000	2	1	0	2	0
83	685	1	10000	2	1	0	2	0
80	686	1	10000	2	1	0	2	0
79	687	1	10000	2	1	0	2	0
74	688	1	10000	2	1	0	2	0
72	689	1	10000	2	1	0	2	0
69	690	1	10000	2	1	0	2	0
67	691	1	10000	2	1	0	2	0
64	692	1	10000	2	1	0	2	0
63	693	1	10000	2	1	0	2	0
62	694	1	10000	2	1	0	2	0
60	695	1	10000	2	1	0	2	0
59	696	1	10000	2	1	0	2	0
58	697	1	10000	2	1	0	2	0
59	698	1	10000	2	1	0	2	0
56	699	1	10000	2	1	0	2	0
54	700	1	10000	2	1	0	2	0
52	701	1	10000	2	1	0	2	0
50	702	1	10000	2	1	0	2	0
49	703	1	10000	2	1	0	2	0
47	704	1	10000	2	1	0	2	0
46	705	1	10000	2	1	0	2	0
47	706	1	10000	2	1	0	2	0
47	707	1	10000	2	1	0	2	0
44	708	1	10000	2	1	0	2	0
43	709	1	10000	2	1	0	2	0
43	710	1	10000	2	1	0	2	0
44	711	1	10000	2	1	0	2	0
44	712	1	10000	2	1	0	2	0
44	713	1	10000	2	1	0	2	0
45	714	1	10000	2	1	0	2	0
45	715	1	10000	2	1	0	2	0
47	716	1	10000	2	1	0	2	0
50	717	1	10000	2	1	0	2	0
54	718	1	10000	2	1	0	2	0
52	719	1	10000	2	1	0	2	0
50	720	1	10000	2	1	0	2	0
48	721	1	10000	2	1	0	2	0
48	722	1	10000	2	1	0	2	0
47	723	1	10000	2	1	0	2	0
47	724	1	10000	2	1	0	2	0
46	725	1	10000	2	1	0	2	0
45	726	1	10000	2	1	0	2	0
45	727	1	10000	2	1	0	2	0
41	728	1	10000	2	1	0	2	0
41	729	1	10000	2	1	0	2	0
41	730	1	10000	2	1	0	2	0
43	731	1	10000	2	1	0	2	0
44	732	1	10000	2	1	0	2	0
43	733	1	10000	2	1	0	2	0
44	734	1	10000	2	1	0	2	0
44	735	1	10000	2	1	0	2	0
43	736	1	10000	2	1	0	2	0
43	737	1	10000	2	1	0	2	0
44	738	1	10000	2	1	0	2	0
44	739	1	10000	2	1	0	2	0
43	740	1	10000	2	1	0	2	0
42	741	1	10000	2	1	0	2	0
41	742	1	10000	2	1	0	2	0
40	743	1	10000	2	1	0	2	0
39	744	1	10000	2	1	0	2	0
38	745	1	10000	2	1	0	2	0
38	746	1	10000	2	1	0	2	0
37	747	1	10000	2	1	0	2	0
33	748	1	10000	2	1	0	2	0
32	749	1	10000	2	1	0	2	0
31	750	1	10000	2	1	0	2	0
31	751	1	10000	2	1	0	2	0
33	752	1	10000	2	1	0	2	0
32	753	1	10000	2	1	0	2	0
32	754	1	10000	2	1	0	2	0
31	755	1	10000	2	1	0	2	0
29	756	1	10000	2	1	0	2	0
28	757	1	10000	2	1	0	2	0
30	758	1	10000	2	1	0	2	0
31	759	1	10000	2	1	0	2	0
30	760	1	10000	2	1	0	2	0
29	761	1	10000	2	1	0	2	0
27	762	1	10000	2	1	0	2	0
26	763	1	10000	2	1	0	2	0
25	764	1	10000	2	1	0	2	0
24	765	1	10000	2	1	0	2	0
25	766	1	10000	2	1	0	2	0
25	767	1	10000	2	1	0	2	0
24	768	1	10000	2	1	0	2	0
25	769	1	10000	2	1	0	2	0
25	770	1	10000	2	1	0	2	0
24	771	1	10000	2	1	0	2	0
25	772	1	10000	2	1	0	2	0
27	773	1	10000	2	1	0	2	0
29	774	1	10000	2	1	0	2	0
31	775	1	10000	2	1	0	2	0
32	776	1	10000	2	1	0	2	0
32	777	1	10000	2	1	0	2	0
34	778	1	10000	2	1	0	2	0
33	779	1	10000	2	1	0	2	0
32	780	1	10000	2	1	0	2	0
32	781	1	10000	2	1	0	2	0
33	782	1	10000	2	1	0	2	0
34	783	1	10000	2	1	0	2	0
34	784	1	10000	2	1	0	2	0
34	785	1	10000	2	1	0	2	0
34	786	1	10000	2	1	0	2	0
33	787	1	10000	2	1	0	2	0
31	788	1	10000	2	1	0	2	0
32	789	1	10000	2	1	0	2	0
33	790	1	10000	2	1	0	2	0
34	791	1	10000	2	1	0	2	0
33	792	1	10000	2	1	0	2	0
32	793	1	10000	2	1	0	2	0
32	794	1	10000	2	1	0	2	0
31	795	1	10000	2	1	0	2	0
29	796	1	10000	2	1	0	2	0
28	797	1	10000	2	1	0	2	0
30	798	1	10000	2	1	0	2	0
29	799	1	10000	2	1	0	2	0
29	800	1	10000	2	1	0	2	0
29	801	1	10000	2	1	0	2	0
29	802	1	10000	2	1	0	2	0
28	803	1	10000	2	1	0	2	0
27	804	1	10000	2	1	0	2	0
29	805	1	10000	2	1	0	2	0
31	806	1	10000	2	1	0	2	0
32	807	1	10000	2	1	0	2	0
30	808	1	10000	2	1	0	2	0
29	809	1	10000	2	1	0	2	0
29	810	1	10000	2	1	0	2	0
28	811	1	10000	2	1	0	2	0
27	812	1	10000	2	1	0	2	0
26	813	1	10000	2	1	0	2	0
25	814	1	10000	2	1	0	2	0
25	815	1	10000	2	1	0	2	0
23	816	1	10000	2	1	0	2	0
23	817	1	10000	2	1	0	2	0
24	818	1	10000	2	1	0	2	0
23	819	1	10000	2	1	0	2	0
22	820	1	10000	2	1	0	2	0
21	821	1	10000	2	1	0	2	0
21	822	1	10000	2	1	0	2	0
22	823	1	10000	2	1	0	2	0
21	824	1	10000	2	1	0	2	0
21	825	1	10000	2	1	0	2	0
21	826	1	10000	2	1	0	2	0
20	827	1	10000	2	1	0	2	0
18	828	1	10000	2	1	0	2	0
19	829	1	10000	2	1	0	2	0
19	830	1	10000	2	1	0	2	0
19	831	1	10000	2	1	0	2	0
18	832	1	10000	2	1	0	2	0
17	833	1	10000	2	1	0	2	0
17	834	1	10000	2	1	0	2	0
16	835	1	10000	2	1	0	2	0
16	836	1	10000	2	1	0	2	0
16	837	1	10000	2	1	0	2	0
18	838	1	10000	2	1	0	2	0
17	839	1	10000	2	1	0	2	0
17	840	1	10000	2	1	0	2	0
15	841	1	10000	2	1	0	2	0
15	842	1	10000	2	1	0	2	0
16	843	1	10000	2	1	0	2	0
15	844	1	10000	2	1	0	2	0
16	845	1	10000	2	1	0	2	0
16	846	1	10000	2	1	0	2	0
17	847	1	10000	2	1	0	2	0
16	848	1	10000	2	1	0	2	0
17	849	1	10000	2	1	0	2	0
18	850	1	10000	2	1	0	2	0
19	851	1	10000	2	1	0	2	0
20	852	1	10000	2	1	0	2	0
20	853	1	10000	2	1	0	2	0
21	854	1	10000	2	1	0	2	0
20	855	1	10000	2	1	0	2	0
19	856	1	10000	2	1	0	2	0
19	857	1	10000	2	1	0	2	0
20	858	1	10000	2	1	0	2	0
20	859	1	10000	2	1	0	2	0
20	860	1	10000	2	1	0	2	0
18	861	1	10000	2	1	0	2	0
17	862	1	10000	2	1	0	2	0
18	863	1	10000	2	1	0	2	0
16	864	1	10000	2	1	0	2	0
17	865	1	10000	2	1	0	2	0
16	866	1	10000	2	1	0	2	0
16	867	1	10000	2	1	0	2	0
14	868	1	10000	2	1	0	2	0
14	869	1	10000	2	1	0	2	0
14	870	1	10000	2	1	0	2	0
16	871	1	10000	2	1	0	2	0
18	872	1	10000	2	1	0	2	0
18	873	1	10000	2	1	0	2	0
18	874	1	10000	2	1	0	2	0
17	875	1	10000	2	1	0	2	0
16	876	1	10000	2	1	0	2	0
16	877	1	10000	2	1	0	2	0
17	878	1	10000	2	1	0	2	0
16	879	1	10000	2	1	0	2	0
16	880	1	10000	2	1	0	2	0
16	881	1	10000	2	1	0	2	0
15	882	1	10000	2	1	0	2	0
14	883	1	10000	2	1	0	2	0
14	884	1	10000	2	1	0	2	0
14	885	1	10000	2	1	0	2	0
14	886	1	10000	2	1	0	2	0
14	887	1	10000	2	1	0	2	0
12	888	1	10000	2	1	0	2	0
13	889	1	10000	2	1	0	2	0
12	890	1	10000	2	1	0	2	0
12	891	1	10000	2	1	0	2	0
13	892	1	10000	2	1	0	2	0
14	893	1	10000	2	1	0	2	0
15	894	1	10000	2	1	0	2	0
15	895	1	10000	2	1	0	2	0
14	896	1	10000	2	1	0	2	0
14	897	1	10000	2	1	0	2	0
15	898	1	10000	2	1	0	2	0
16	899	1	10000	2	1	0	2	0
17	900	1	10000	2	1	0	2	0
17	901	1	10000	2	1	0	2	0
16	902	1	10000	2	1	0	2	0
17	903	1	10000	2	1	0	2	0
16	904	1	10000	2	1	0	2	0
17	905	1	10000	2	1	0	2	0
17	906	1	10000	2	1	0	2	0
18	907	1	10000	2	1	0	2	0
15	908	1	10000	2	1	0	2	0
15	909	1	10000	2	1	0	2	0
15	910	1	10000	2	1	0	2	0
15	911	1	10000	2	1	0	2	0
16	912	1	10000	2	1	0	2	0
15	913	1	10000	2	1	0	2	0
16	914	1	10000	2	1	0	2	0
14	915	1	10000	2	1	0	2	0
14	916	1	10000	2	1	0	2	0
13	917	1	10000	2	1	0	2	0
15	918	1	10000	2	1	0	2	0
17	919	1	10000	2	1	0	2	0
17	920	1	10000	2	1	0	2	0
16	921	1	10000	2	1	0	2	0
16	922	1	10000	2	1	0	2	0
16	923	1	10000	2	1	0	2	0
15	924	1	10000	2	1	0	2	0
15	925	1	10000	2	1	0	2	0
15	926	1	10000	2	1	0	2	0
16	927	1	10000	2	1	0	2	0
13	928	1	10000	2	1	0	2	0
13	929	1	10000	2	1	0	2	0
13	930	1	10000	2	1	0	2	0
15	931	1	10000	2	1	0	2	0
14	932	1	10000	2	1	0	2	0
14	933	1	10000	2	1	0	2	0
15	934	1	10000	2	1	0	2	0
13	935	1	10000	2	1	0	2	0
12	936	1	10000	2	1	0	2	0
12	937	1	10000	2	1	0	2	0
14	938	1	10000	2	1	0	2	0
14	939	1	10000	2	1	0	2	0
13	940	1	10000	2	1	0	2	0
13	941	1	10000	2	1	0	2	0
14	942	1	10000	2	1	0	2	0
14	943	1	10000	2	1	0	2	0
14	944	1	10000	2	1	0	2	0
14	945	1	10000	2	1	0	2	0
15	946	1	10000	2	1	0	2	0
15	947	1	10000	2	1	0	2	0
14	948	1	10000	2	1	0	2	0
15	949	1	10000	2	1	0	2	0
16	950	1	10000	2	1	0	2	0
18	951	1	10000	2	1	0	2	0
17	952	1	10000	2	1	0	2	0
17	953	1	10000	2	1	0	2	0
17	954	1	10000	2	1	0	2	0
16	955	1	10000	2	1	0	2	0
16	956	1	10000	2	1	0	2	0
15	957	1	10000	2	1	0	2	0
18	958	1	10000	2	1	0	2	0
18	959	1	10000	2	1	0	2	0
17	960	1	10000	2	1	0	2	0
17	961	1	10000	2	1	0	2	0
17	962	1	10000	2	1	0	2	0
18	963	1	10000	2	1	0	2	0
18	964	1	10000	2	1	0	2	0
19	965	1	10000	2	1	0	2	0
20	966	1	10000	2	1	0	2	0
22	967	1	10000	2	1	0	2	0
21	968	1	10000	2	1	0	2	0
21	969	1	10000	2	1	0	2	0
22	970	1	10000	2	1	0	2	0
23	971	1	10000	2	1	0	2	0
22	972	1	10000	2	1	0	2	0
21	973	1	10000	2	1	0	2	0
21	974	1	10000	2	1	0	2	0
20	975	1	10000	2	1	0	2	0
20	976	1	10000	2	1	0	2	0
20	977	1	10000	2	1	0	2	0
23	978	1	10000	2	1	0	2	0
23	979	1	10000	2	1	0	2	0
23	980	1	10000	2	1	0	2	0
22	981	1	10000	2	1	0	2	0
22	982	1	10000	2	1	0	2	0
22	983	1	10000	2	1	0	2	0
21	984	1	10000	2	1	0	2	0
23	985	1	10000	2	1	0	2	0
23	986	1	10000	2	1	0	2	0
22	987	1	10000	2	1	0	2	0
21	988	1	10000	2	1	0	2	0
20	989	1	10000	2	1	0	2	0
19	990	1	10000	2	1	0	2	0
19	991	1	10000	2	1	0	2	0
19	992	1	10000	2	1	0	2	0
19	993	1	10000	2	1	0	2	0
19	994	1	10000	2	1	0	2	0
17	995	1	10000	2	1	0	2	0
16	996	1	10000	2	1	0	2	0
16	997	1	10000	2	1	0	2	0
17	998	1	10000	2	1	0	2	0
17	999	1	10000	2	1	0	2	0
16	1000	1	10000	2	1	0	2	0
16	1001	1	10000	2	1	0	2	0
11	2	10	10000	3	1	0	3	0
13	3	10	10000	3	1	0	3	0
13	4	10	10000	3	1	0	3	0
12	5	10	10000	3	1	0	3	0
12	6	10	10000	3	1	0	3	0
13	7	10	10000	3	1	0	3	0
13	8	10	10000	3	1	0	3	0
12	9	10	10000	3	1	0	3	0
12	10	10	10000	3	1	0	3	0
13	11	10	10000	3	1	0	3	0
14	12	10	10000	3	1	0	3	0
11	13	10	10000	3	1	0	3	0
12	14	10	10000	3	1	0	3	0
12	15	10	10000	3	1	0	3	0
11	16	10	10000	3	1	0	3	0
11	17	10	10000	3	1	0	3	0
11	18	10	10000	3	1	0	3	0
11	19	10	10000	3	1	0	3	0
10	20	10	10000	3	1	0	3	0
10	21	10	10000	3	1	0	3	0
10	22	10	10000	3	1	0	3	0
12	23	10	10000	3	1	0	3	0
11	24	10	10000	3	1	0	3	0
12	25	10	10000	3	1	0	3	0
11	26	10	10000	3	1	0	3	0
11	27	10	10000	3	1	0	3	0
12	28	10	10000	3	1	0	3	0
12	29	10	10000	3	1	0	3	0
13	30	10	10000	3	1	0	3	0
13	31	10	10000	3	1	0	3	0
14	32	10	10000	3	1	0	3	0
11	33	10	10000	3	1	0	3	0
10	34	10	10000	3	1	0	3	0
12	35	10	10000	3	1	0	3	0
11	36	10	10000	3	1	0	3	0
11	37	10	10000	3	1	0	3	0
12	38	10	10000	3	1	0	3	0
13	39	10	10000	3	1	0	3	0
13	40	10	10000	3	1	0	3	0
15	41	10	10000	3	1	0	3	0
18	42	10	10000	3	1	0	3	0
24	43	10	10000	3	1	0	3	0
27	44	10	10000	3	1	0	3	0
30	45	10	10000	3	1	0	3	0
30	46	10	10000	3	1	0	3	0
30	47	10	10000	3	1	0	3	0
30	48	10	10000	3	1	0	3	0
30	49	10	10000	3	1	0	3	0
32	50	10	10000	3	1	0	3	0
34	51	10	10000	3	1	0	3	0
35	52	10	10000	3	1	0	3	0
33	53	10	10000	3	1	0	3	0
34	54	10	10000	3	1	0	3	0
34	55	10	10000	3	1	0	3	0
35	56	10	10000	3	1	0	3	0
36	57	10	10000	3	1	0	3	0
35	58	10	10000	3	1	0	3	0
34	59	10	10000	3	1	0	3	0
33	60	10	10000	3	1	0	3	0
33	61	10	10000	3	1	0	3	0
34	62	10	10000	3	1	0	3	0
37	63	10	10000	3	1	0	3	0
35	64	10	10000	3	1	0	3	0
33	65	10	10000	3	1	0	3	0
33	66	10	10000	3	1	0	3	0
32	67	10	10000	3	1	0	3	0
31	68	10	10000	3	1	0	3	0
31	69	10	10000	3	1	0	3	0
30	70	10	10000	3	1	0	3	0
30	71	10	10000	3	1	0	3	0
31	72	10	10000	3	1	0	3	0
28	73	10	10000	3	1	0	3	0
27	74	10	10000	3	1	0	3	0
28	75	10	10000	3	1	0	3	0
27	76	10	10000	3	1	0	3	0
26	77	10	10000	3	1	0	3	0
26	78	10	10000	3	1	0	3	0
28	79	10	10000	3	1	0	3	0
27	80	10	10000	3	1	0	3	0
27	81	10	10000	3	1	0	3	0
30	82	10	10000	3	1	0	3	0
33	83	10	10000	3	1	0	3	0
32	84	10	10000	3	1	0	3	0
30	85	10	10000	3	1	0	3	0
30	86	10	10000	3	1	0	3	0
28	87	10	10000	3	1	0	3	0
29	88	10	10000	3	1	0	3	0
29	89	10	10000	3	1	0	3	0
29	90	10	10000	3	1	0	3	0
30	91	10	10000	3	1	0	3	0
30	101	10	10000	3	1	0	3	0
29	102	10	10000	3	1	0	3	0
28	103	10	10000	3	1	0	3	0
28	104	10	10000	3	1	0	3	0
28	105	10	10000	3	1	0	3	0
27	106	10	10000	3	1	0	3	0
27	107	10	10000	3	1	0	3	0
26	108	10	10000	3	1	0	3	0
26	109	10	10000	3	1	0	3	0
25	110	10	10000	3	1	0	3	0
23	108	10	10000	3	1	0	3	0
26	109	10	10000	3	1	0	3	0
24	110	10	10000	3	1	0	3	0
23	111	10	10000	3	1	0	3	0
22	112	10	10000	3	1	0	3	0
21	113	10	10000	3	1	0	3	0
20	114	10	10000	3	1	0	3	0
20	115	10	10000	3	1	0	3	0
20	113	10	10000	3	1	0	3	0
20	114	10	10000	3	1	0	3	0
21	115	10	10000	3	1	0	3	0
20	116	10	10000	3	1	0	3	0
20	117	10	10000	3	1	0	3	0
19	118	10	10000	3	1	0	3	0
19	124	10	10000	3	1	0	3	0
19	125	10	10000	3	1	0	3	0
18	126	10	10000	3	1	0	3	0
18	127	10	10000	3	1	0	3	0
18	128	10	10000	3	1	0	3	0
16	129	10	10000	3	1	0	3	0
15	130	10	10000	3	1	0	3	0
17	131	10	10000	3	1	0	3	0
16	132	10	10000	3	1	0	3	0
16	133	10	10000	3	1	0	3	0
16	129	10	10000	3	1	0	3	0
17	130	10	10000	3	1	0	3	0
17	131	10	10000	3	1	0	3	0
17	132	10	10000	3	1	0	3	0
18	133	10	10000	3	1	0	3	0
17	134	10	10000	3	1	0	3	0
17	134	10	10000	3	1	0	3	0
15	135	10	10000	3	1	0	3	0
14	136	10	10000	3	1	0	3	0
14	137	10	10000	3	1	0	3	0
14	139	10	10000	3	1	0	3	0
15	140	10	10000	3	1	0	3	0
15	141	10	10000	3	1	0	3	0
14	142	10	10000	3	1	0	3	0
14	144	10	10000	3	1	0	3	0
13	145	10	10000	3	1	0	3	0
13	146	10	10000	3	1	0	3	0
15	147	10	10000	3	1	0	3	0
15	148	10	10000	3	1	0	3	0
15	149	10	10000	3	1	0	3	0
14	152	10	10000	3	1	0	3	0
14	153	10	10000	3	1	0	3	0
13	154	10	10000	3	1	0	3	0
13	155	10	10000	3	1	0	3	0
14	156	10	10000	3	1	0	3	0
14	157	10	10000	3	1	0	3	0
14	158	10	10000	3	1	0	3	0
12	159	10	10000	3	1	0	3	0
12	157	10	10000	3	1	0	3	0
12	158	10	10000	3	1	0	3	0
12	159	10	10000	3	1	0	3	0
12	160	10	10000	3	1	0	3	0
12	161	10	10000	3	1	0	3	0
12	162	10	10000	3	1	0	3	0
11	162	10	10000	3	1	0	3	0
11	163	10	10000	3	1	0	3	0
11	164	10	10000	3	1	0	3	0
13	165	10	10000	3	1	0	3	0
12	168	10	10000	3	1	0	3	0
12	169	10	10000	3	1	0	3	0
12	170	10	10000	3	1	0	3	0
11	171	10	10000	3	1	0	3	0
11	172	10	10000	3	1	0	3	0
11	173	10	10000	3	1	0	3	0
11	173	10	10000	3	1	0	3	0
13	174	10	10000	3	1	0	3	0
13	175	10	10000	3	1	0	3	0
10	176	10	10000	3	1	0	3	0
11	179	10	10000	3	1	0	3	0
11	180	10	10000	3	1	0	3	0
12	181	10	10000	3	1	0	3	0
13	182	10	10000	3	1	0	3	0
13	183	10	10000	3	1	0	3	0
13	184	10	10000	3	1	0	3	0
13	185	10	10000	3	1	0	3	0
12	186	10	10000	3	1	0	3	0
12	184	10	10000	3	1	0	3	0
14	185	10	10000	3	1	0	3	0
13	186	10	10000	3	1	0	3	0
13	187	10	10000	3	1	0	3	0
13	189	10	10000	3	1	0	3	0
13	190	10	10000	3	1	0	3	0
13	191	10	10000	3	1	0	3	0
11	192	10	10000	3	1	0	3	0
12	194	10	10000	3	1	0	3	0
13	195	10	10000	3	1	0	3	0
12	196	10	10000	3	1	0	3	0
10	197	10	10000	3	1	0	3	0
11	198	10	10000	3	1	0	3	0
11	199	10	10000	3	1	0	3	0
11	196	10	10000	3	1	0	3	0
11	197	10	10000	3	1	0	3	0
11	198	10	10000	3	1	0	3	0
12	199	10	10000	3	1	0	3	0
11	200	10	10000	3	1	0	3	0
11	201	10	10000	3	1	0	3	0
10	202	10	10000	3	1	0	3	0
12	203	10	10000	3	1	0	3	0
12	204	10	10000	3	1	0	3	0
12	205	10	10000	3	1	0	3	0
12	206	10	10000	3	1	0	3	0
12	207	10	10000	3	1	0	3	0
12	208	10	10000	3	1	0	3	0
11	209	10	10000	3	1	0	3	0
12	210	10	10000	3	1	0	3	0
12	211	10	10000	3	1	0	3	0
12	212	10	10000	3	1	0	3	0
9	213	10	10000	3	1	0	3	0
10	214	10	10000	3	1	0	3	0
10	215	10	10000	3	1	0	3	0
10	216	10	10000	3	1	0	3	0
10	217	10	10000	3	1	0	3	0
10	218	10	10000	3	1	0	3	0
10	219	10	10000	3	1	0	3	0
9	220	10	10000	3	1	0	3	0
9	221	10	10000	3	1	0	3	0
9	222	10	10000	3	1	0	3	0
11	223	10	10000	3	1	0	3	0
11	224	10	10000	3	1	0	3	0
11	225	10	10000	3	1	0	3	0
10	226	10	10000	3	1	0	3	0
9	227	10	10000	3	1	0	3	0
10	228	10	10000	3	1	0	3	0
9	229	10	10000	3	1	0	3	0
10	230	10	10000	3	1	0	3	0
10	231	10	10000	3	1	0	3	0
10	232	10	10000	3	1	0	3	0
9	233	10	10000	3	1	0	3	0
10	234	10	10000	3	1	0	3	0
10	235	10	10000	3	1	0	3	0
11	236	10	10000	3	1	0	3	0
11	237	10	10000	3	1	0	3	0
10	238	10	10000	3	1	0	3	0
11	239	10	10000	3	1	0	3	0
10	240	10	10000	3	1	0	3	0
9	241	10	10000	3	1	0	3	0
9	242	10	10000	3	1	0	3	0
11	243	10	10000	3	1	0	3	0
11	244	10	10000	3	1	0	3	0
11	245	10	10000	3	1	0	3	0
11	246	10	10000	3	1	0	3	0
11	247	10	10000	3	1	0	3	0
11	248	10	10000	3	1	0	3	0
12	249	10	10000	3	1	0	3	0
12	250	10	10000	3	1	0	3	0
12	251	10	10000	3	1	0	3	0
12	252	10	10000	3	1	0	3	0
10	253	10	10000	3	1	0	3	0
10	254	10	10000	3	1	0	3	0
11	255	10	10000	3	1	0	3	0
12	256	10	10000	3	1	0	3	0
12	257	10	10000	3	1	0	3	0
12	258	10	10000	3	1	0	3	0
14	259	10	10000	3	1	0	3	0
13	260	10	10000	3	1	0	3	0
13	261	10	10000	3	1	0	3	0
12	262	10	10000	3	1	0	3	0
15	263	10	10000	3	1	0	3	0
15	264	10	10000	3	1	0	3	0
14	265	10	10000	3	1	0	3	0
13	266	10	10000	3	1	0	3	0
14	267	10	10000	3	1	0	3	0
13	268	10	10000	3	1	0	3	0
12	269	10	10000	3	1	0	3	0
13	270	10	10000	3	1	0	3	0
13	271	10	10000	3	1	0	3	0
13	272	10	10000	3	1	0	3	0
11	273	10	10000	3	1	0	3	0
11	274	10	10000	3	1	0	3	0
11	275	10	10000	3	1	0	3	0
13	276	10	10000	3	1	0	3	0
13	277	10	10000	3	1	0	3	0
13	278	10	10000	3	1	0	3	0
13	279	10	10000	3	1	0	3	0
14	280	10	10000	3	1	0	3	0
16	281	10	10000	3	1	0	3	0
18	282	10	10000	3	1	0	3	0
20	283	10	10000	3	1	0	3	0
20	284	10	10000	3	1	0	3	0
19	285	10	10000	3	1	0	3	0
19	286	10	10000	3	1	0	3	0
20	287	10	10000	3	1	0	3	0
21	288	10	10000	3	1	0	3	0
20	289	10	10000	3	1	0	3	0
20	290	10	10000	3	1	0	3	0
20	291	10	10000	3	1	0	3	0
21	292	10	10000	3	1	0	3	0
20	293	10	10000	3	1	0	3	0
20	294	10	10000	3	1	0	3	0
21	295	10	10000	3	1	0	3	0
21	296	10	10000	3	1	0	3	0
23	297	10	10000	3	1	0	3	0
25	298	10	10000	3	1	0	3	0
28	299	10	10000	3	1	0	3	0
27	300	10	10000	3	1	0	3	0
27	301	10	10000	3	1	0	3	0
27	302	10	10000	3	1	0	3	0
28	303	10	10000	3	1	0	3	0
28	304	10	10000	3	1	0	3	0
28	305	10	10000	3	1	0	3	0
28	306	10	10000	3	1	0	3	0
28	307	10	10000	3	1	0	3	0
28	308	10	10000	3	1	0	3	0
27	309	10	10000	3	1	0	3	0
28	310	10	10000	3	1	0	3	0
27	311	10	10000	3	1	0	3	0
26	312	10	10000	3	1	0	3	0
24	313	10	10000	3	1	0	3	0
23	314	10	10000	3	1	0	3	0
23	315	10	10000	3	1	0	3	0
23	316	10	10000	3	1	0	3	0
22	317	10	10000	3	1	0	3	0
22	318	10	10000	3	1	0	3	0
22	319	10	10000	3	1	0	3	0
21	320	10	10000	3	1	0	3	0
20	321	10	10000	3	1	0	3	0
19	322	10	10000	3	1	0	3	0
20	323	10	10000	3	1	0	3	0
19	324	10	10000	3	1	0	3	0
19	325	10	10000	3	1	0	3	0
18	326	10	10000	3	1	0	3	0
18	327	10	10000	3	1	0	3	0
18	328	10	10000	3	1	0	3	0
17	329	10	10000	3	1	0	3	0
18	330	10	10000	3	1	0	3	0
17	331	10	10000	3	1	0	3	0
17	332	10	10000	3	1	0	3	0
15	333	10	10000	3	1	0	3	0
14	334	10	10000	3	1	0	3	0
15	335	10	10000	3	1	0	3	0
15	336	10	10000	3	1	0	3	0
16	337	10	10000	3	1	0	3	0
17	338	10	10000	3	1	0	3	0
19	339	10	10000	3	1	0	3	0
18	340	10	10000	3	1	0	3	0
18	341	10	10000	3	1	0	3	0
18	342	10	10000	3	1	0	3	0
19	343	10	10000	3	1	0	3	0
18	344	10	10000	3	1	0	3	0
18	345	10	10000	3	1	0	3	0
18	346	10	10000	3	1	0	3	0
18	347	10	10000	3	1	0	3	0
18	348	10	10000	3	1	0	3	0
17	349	10	10000	3	1	0	3	0
18	350	10	10000	3	1	0	3	0
17	351	10	10000	3	1	0	3	0
17	352	10	10000	3	1	0	3	0
15	353	10	10000	3	1	0	3	0
14	354	10	10000	3	1	0	3	0
15	355	10	10000	3	1	0	3	0
15	356	10	10000	3	1	0	3	0
16	357	10	10000	3	1	0	3	0
17	358	10	10000	3	1	0	3	0
18	359	10	10000	3	1	0	3	0
18	360	10	10000	3	1	0	3	0
18	361	10	10000	3	1	0	3	0
18	362	10	10000	3	1	0	3	0
20	363	10	10000	3	1	0	3	0
20	364	10	10000	3	1	0	3	0
18	365	10	10000	3	1	0	3	0
17	366	10	10000	3	1	0	3	0
18	367	10	10000	3	1	0	3	0
16	368	10	10000	3	1	0	3	0
16	369	10	10000	3	1	0	3	0
16	370	10	10000	3	1	0	3	0
16	371	10	10000	3	1	0	3	0
16	372	10	10000	3	1	0	3	0
14	373	10	10000	3	1	0	3	0
13	374	10	10000	3	1	0	3	0
14	375	10	10000	3	1	0	3	0
14	376	10	10000	3	1	0	3	0
14	377	10	10000	3	1	0	3	0
14	378	10	10000	3	1	0	3	0
15	379	10	10000	3	1	0	3	0
13	380	10	10000	3	1	0	3	0
13	381	10	10000	3	1	0	3	0
13	382	10	10000	3	1	0	3	0
14	383	10	10000	3	1	0	3	0
14	384	10	10000	3	1	0	3	0
13	385	10	10000	3	1	0	3	0
12	386	10	10000	3	1	0	3	0
12	387	10	10000	3	1	0	3	0
12	388	10	10000	3	1	0	3	0
12	389	10	10000	3	1	0	3	0
12	390	10	10000	3	1	0	3	0
11	391	10	10000	3	1	0	3	0
12	392	10	10000	3	1	0	3	0
11	393	10	10000	3	1	0	3	0
11	394	10	10000	3	1	0	3	0
12	395	10	10000	3	1	0	3	0
12	396	10	10000	3	1	0	3	0
12	397	10	10000	3	1	0	3	0
12	398	10	10000	3	1	0	3	0
12	399	10	10000	3	1	0	3	0
13	400	10	10000	3	1	0	3	0
14	401	10	10000	3	1	0	3	0
14	402	10	10000	3	1	0	3	0
16	403	10	10000	3	1	0	3	0
16	404	10	10000	3	1	0	3	0
15	405	10	10000	3	1	0	3	0
14	406	10	10000	3	1	0	3	0
14	407	10	10000	3	1	0	3	0
14	408	10	10000	3	1	0	3	0
14	409	10	10000	3	1	0	3	0
15	410	10	10000	3	1	0	3	0
15	411	10	10000	3	1	0	3	0
15	412	10	10000	3	1	0	3	0
14	413	10	10000	3	1	0	3	0
14	414	10	10000	3	1	0	3	0
15	415	10	10000	3	1	0	3	0
15	416	10	10000	3	1	0	3	0
15	417	10	10000	3	1	0	3	0
15	418	10	10000	3	1	0	3	0
15	419	10	10000	3	1	0	3	0
16	420	10	10000	3	1	0	3	0
18	421	10	10000	3	1	0	3	0
18	422	10	10000	3	1	0	3	0
21	423	10	10000	3	1	0	3	0
21	424	10	10000	3	1	0	3	0
20	425	10	10000	3	1	0	3	0
20	426	10	10000	3	1	0	3	0
20	427	10	10000	3	1	0	3	0
20	428	10	10000	3	1	0	3	0
21	429	10	10000	3	1	0	3	0
25	430	10	10000	3	1	0	3	0
30	431	10	10000	3	1	0	3	0
32	432	10	10000	3	1	0	3	0
29	433	10	10000	3	1	0	3	0
28	434	10	10000	3	1	0	3	0
28	435	10	10000	3	1	0	3	0
27	436	10	10000	3	1	0	3	0
26	437	10	10000	3	1	0	3	0
26	438	10	10000	3	1	0	3	0
25	439	10	10000	3	1	0	3	0
31	440	10	10000	3	1	0	3	0
44	441	10	10000	3	1	0	3	0
59	442	10	10000	3	1	0	3	0
69	443	10	10000	3	1	0	3	0
69	444	10	10000	3	1	0	3	0
68	445	10	10000	3	1	0	3	0
66	446	10	10000	3	1	0	3	0
67	447	10	10000	3	1	0	3	0
70	448	10	10000	3	1	0	3	0
79	449	10	10000	3	1	0	3	0
88	450	10	10000	3	1	0	3	0
95	451	10	10000	3	1	0	3	0
100	452	10	10000	3	1	0	3	0
95	453	10	10000	3	1	0	3	0
97	454	10	10000	3	1	0	3	0
100	455	10	10000	3	1	0	3	0
95	456	10	10000	3	1	0	3	0
93	457	10	10000	3	1	0	3	0
97	458	10	10000	3	1	0	3	0
97	459	10	10000	3	1	0	3	0
98	460	10	10000	3	1	0	3	0
98	461	10	10000	3	1	0	3	0
99	462	10	10000	3	1	0	3	0
103	463	10	10000	3	1	0	3	0
102	464	10	10000	3	1	0	3	0
98	465	10	10000	3	1	0	3	0
95	466	10	10000	3	1	0	3	0
94	467	10	10000	3	1	0	3	0
99	468	10	10000	3	1	0	3	0
112	469	10	10000	3	1	0	3	0
128	470	10	10000	3	1	0	3	0
131	471	10	10000	3	1	0	3	0
128	472	10	10000	3	1	0	3	0
123	473	10	10000	3	1	0	3	0
127	474	10	10000	3	1	0	3	0
124	475	10	10000	3	1	0	3	0
128	476	10	10000	3	1	0	3	0
136	477	10	10000	3	1	0	3	0
143	478	10	10000	3	1	0	3	0
146	479	10	10000	3	1	0	3	0
142	480	10	10000	3	1	0	3	0
142	481	10	10000	3	1	0	3	0
142	482	10	10000	3	1	0	3	0
140	483	10	10000	3	1	0	3	0
135	484	10	10000	3	1	0	3	0
132	485	10	10000	3	1	0	3	0
133	486	10	10000	3	1	0	3	0
132	487	10	10000	3	1	0	3	0
131	488	10	10000	3	1	0	3	0
130	489	10	10000	3	1	0	3	0
126	490	10	10000	3	1	0	3	0
121	491	10	10000	3	1	0	3	0
117	492	10	10000	3	1	0	3	0
111	493	10	10000	3	1	0	3	0
107	494	10	10000	3	1	0	3	0
104	495	10	10000	3	1	0	3	0
103	496	10	10000	3	1	0	3	0
103	497	10	10000	3	1	0	3	0
104	498	10	10000	3	1	0	3	0
103	499	10	10000	3	1	0	3	0
99	500	10	10000	3	1	0	3	0
97	501	10	10000	3	1	0	3	0
94	502	10	10000	3	1	0	3	1
92	503	10	10000	3	1	0	3	1
91	504	10	10000	3	1	0	3	1
92	505	10	10000	3	1	0	3	1
94	506	10	10000	3	1	0	3	1
93	507	10	10000	3	1	0	3	1
94	508	10	10000	3	1	0	3	1
96	509	10	10000	3	1	0	3	1
96	510	10	10000	3	1	0	3	1
94	511	10	10000	3	1	0	3	1
92	512	10	10000	3	1	0	3	1
94	513	10	10000	3	1	0	3	1
100	514	10	10000	3	1	0	3	1
103	515	10	10000	3	1	0	3	1
106	516	10	10000	3	1	0	3	1
107	517	10	10000	3	1	0	3	1
111	518	10	10000	3	1	0	3	1
120	519	10	10000	3	1	0	3	1
128	520	10	10000	3	1	0	3	1
134	521	10	10000	3	1	0	3	1
138	522	10	10000	3	1	0	3	1
143	523	10	10000	3	1	0	3	1
144	524	10	10000	3	1	0	3	1
143	525	10	10000	3	1	0	3	1
141	526	10	10000	3	1	0	3	1
138	527	10	10000	3	1	0	3	1
135	528	10	10000	3	1	0	3	1
132	529	10	10000	3	1	0	3	1
130	530	10	10000	3	1	0	3	1
128	531	10	10000	3	1	0	3	1
127	532	10	10000	3	1	0	3	1
123	533	10	10000	3	1	0	3	1
121	534	10	10000	3	1	0	3	1
120	535	10	10000	3	1	0	3	1
118	536	10	10000	3	1	0	3	1
116	537	10	10000	3	1	0	3	1
115	538	10	10000	3	1	0	3	1
115	539	10	10000	3	1	0	3	1
113	540	10	10000	3	1	0	3	1
110	541	10	10000	3	1	0	3	1
104	542	10	10000	3	1	0	3	1
102	543	10	10000	3	1	0	3	1
97	544	10	10000	3	1	0	3	1
93	545	10	10000	3	1	0	3	1
90	546	10	10000	3	1	0	3	1
86	547	10	10000	3	1	0	3	1
83	548	10	10000	3	1	0	3	1
80	549	10	10000	3	1	0	3	1
76	550	10	10000	3	1	0	3	1
73	551	10	10000	3	1	0	3	1
72	552	10	10000	3	1	0	3	0
67	553	10	10000	3	1	0	3	0
65	554	10	10000	3	1	0	3	0
65	555	10	10000	3	1	0	3	0
64	556	10	10000	3	1	0	3	0
62	557	10	10000	3	1	0	3	0
59	558	10	10000	3	1	0	3	0
56	559	10	10000	3	1	0	3	0
55	560	10	10000	3	1	0	3	0
52	561	10	10000	3	1	0	3	0
51	562	10	10000	3	1	0	3	0
52	563	10	10000	3	1	0	3	0
52	564	10	10000	3	1	0	3	0
53	565	10	10000	3	1	0	3	0
53	566	10	10000	3	1	0	3	0
53	567	10	10000	3	1	0	3	0
54	568	10	10000	3	1	0	3	0
54	569	10	10000	3	1	0	3	0
54	570	10	10000	3	1	0	3	0
53	571	10	10000	3	1	0	3	0
52	572	10	10000	3	1	0	3	0
50	573	10	10000	3	1	0	3	0
51	574	10	10000	3	1	0	3	0
51	575	10	10000	3	1	0	3	0
52	576	10	10000	3	1	0	3	0
55	577	10	10000	3	1	0	3	0
56	578	10	10000	3	1	0	3	0
58	579	10	10000	3	1	0	3	0
57	580	10	10000	3	1	0	3	0
56	581	10	10000	3	1	0	3	0
55	582	10	10000	3	1	0	3	0
56	583	10	10000	3	1	0	3	0
55	584	10	10000	3	1	0	3	0
53	585	10	10000	3	1	0	3	0
53	586	10	10000	3	1	0	3	0
52	587	10	10000	3	1	0	3	0
52	588	10	10000	3	1	0	3	0
51	589	10	10000	3	1	0	3	0
52	590	10	10000	3	1	0	3	0
52	591	10	10000	3	1	0	3	0
51	592	10	10000	3	1	0	3	0
50	593	10	10000	3	1	0	3	0
53	594	10	10000	3	1	0	3	0
51	595	10	10000	3	1	0	3	0
50	596	10	10000	3	1	0	3	0
50	597	10	10000	3	1	0	3	0
54	598	10	10000	3	1	0	3	0
56	599	10	10000	3	1	0	3	0
55	600	10	10000	3	1	0	3	0
52	601	10	10000	3	1	0	3	0
52	602	10	10000	3	1	0	3	0
61	603	10	10000	3	1	0	3	0
76	604	10	10000	3	1	0	3	0
90	605	10	10000	3	1	0	3	0
100	606	10	10000	3	1	0	3	0
102	607	10	10000	3	1	0	3	0
99	608	10	10000	3	1	0	3	0
97	609	10	10000	3	1	0	3	0
100	610	10	10000	3	1	0	3	0
101	611	10	10000	3	1	0	3	0
100	612	10	10000	3	1	0	3	0
97	613	10	10000	3	1	0	3	0
93	614	10	10000	3	1	0	3	0
91	615	10	10000	3	1	0	3	0
92	616	10	10000	3	1	0	3	0
93	617	10	10000	3	1	0	3	0
95	618	10	10000	3	1	0	3	0
95	619	10	10000	3	1	0	3	0
93	620	10	10000	3	1	0	3	0
95	621	10	10000	3	1	0	3	0
93	622	10	10000	3	1	0	3	0
94	623	10	10000	3	1	0	3	0
97	624	10	10000	3	1	0	3	0
103	625	10	10000	3	1	0	3	0
108	626	10	10000	3	1	0	3	0
109	627	10	10000	3	1	0	3	0
109	628	10	10000	3	1	0	3	0
106	629	10	10000	3	1	0	3	0
103	630	10	10000	3	1	0	3	0
101	631	10	10000	3	1	0	3	0
97	632	10	10000	3	1	0	3	0
91	633	10	10000	3	1	0	3	0
87	634	10	10000	3	1	0	3	0
83	635	10	10000	3	1	0	3	0
80	636	10	10000	3	1	0	3	0
77	637	10	10000	3	1	0	3	0
74	638	10	10000	3	1	0	3	0
72	639	10	10000	3	1	0	3	0
70	640	10	10000	3	1	0	3	0
68	641	10	10000	3	1	0	3	0
66	642	10	10000	3	1	0	3	0
67	643	10	10000	3	1	0	3	0
67	644	10	10000	3	1	0	3	0
67	645	10	10000	3	1	0	3	0
67	646	10	10000	3	1	0	3	0
68	647	10	10000	3	1	0	3	0
68	648	10	10000	3	1	0	3	0
68	649	10	10000	3	1	0	3	0
68	650	10	10000	3	1	0	3	0
68	651	10	10000	3	1	0	3	0
68	652	10	10000	3	1	0	3	0
68	653	10	10000	3	1	0	3	0
68	654	10	10000	3	1	0	3	0
67	655	10	10000	3	1	0	3	0
66	656	10	10000	3	1	0	3	0
65	657	10	10000	3	1	0	3	0
63	658	10	10000	3	1	0	3	0
62	659	10	10000	3	1	0	3	0
60	660	10	10000	3	1	0	3	0
58	661	10	10000	3	1	0	3	0
57	662	10	10000	3	1	0	3	0
59	663	10	10000	3	1	0	3	0
60	664	10	10000	3	1	0	3	0
59	665	10	10000	3	1	0	3	0
56	666	10	10000	3	1	0	3	0
54	667	10	10000	3	1	0	3	0
53	668	10	10000	3	1	0	3	0
51	669	10	10000	3	1	0	3	0
49	670	10	10000	3	1	0	3	0
48	671	10	10000	3	1	0	3	0
46	672	10	10000	3	1	0	3	0
42	673	10	10000	3	1	0	3	0
41	674	10	10000	3	1	0	3	0
41	675	10	10000	3	1	0	3	0
40	676	10	10000	3	1	0	3	0
39	677	10	10000	3	1	0	3	0
39	678	10	10000	3	1	0	3	0
38	679	10	10000	3	1	0	3	0
36	680	10	10000	3	1	0	3	0
34	681	10	10000	3	1	0	3	0
34	682	10	10000	3	1	0	3	0
34	683	10	10000	3	1	0	3	0
33	684	10	10000	3	1	0	3	0
32	685	10	10000	3	1	0	3	0
30	686	10	10000	3	1	0	3	0
29	687	10	10000	3	1	0	3	0
28	688	10	10000	3	1	0	3	0
28	689	10	10000	3	1	0	3	0
29	690	10	10000	3	1	0	3	0
29	691	10	10000	3	1	0	3	0
29	692	10	10000	3	1	0	3	0
27	693	10	10000	3	1	0	3	0
27	694	10	10000	3	1	0	3	0
26	695	10	10000	3	1	0	3	0
26	696	10	10000	3	1	0	3	0
25	697	10	10000	3	1	0	3	0
25	698	10	10000	3	1	0	3	0
26	699	10	10000	3	1	0	3	0
25	700	10	10000	3	1	0	3	0
26	701	10	10000	3	1	0	3	0
27	702	10	10000	3	1	0	3	0
31	703	10	10000	3	1	0	3	0
32	704	10	10000	3	1	0	3	0
33	705	10	10000	3	1	0	3	0
32	706	10	10000	3	1	0	3	0
31	707	10	10000	3	1	0	3	0
31	708	10	10000	3	1	0	3	0
29	709	10	10000	3	1	0	3	0
28	710	10	10000	3	1	0	3	0
28	711	10	10000	3	1	0	3	0
27	712	10	10000	3	1	0	3	0
24	713	10	10000	3	1	0	3	0
23	714	10	10000	3	1	0	3	0
26	715	10	10000	3	1	0	3	0
27	716	10	10000	3	1	0	3	0
27	717	10	10000	3	1	0	3	0
28	718	10	10000	3	1	0	3	0
28	719	10	10000	3	1	0	3	0
26	720	10	10000	3	1	0	3	0
25	721	10	10000	3	1	0	3	0
24	722	10	10000	3	1	0	3	0
26	723	10	10000	3	1	0	3	0
26	724	10	10000	3	1	0	3	0
25	725	10	10000	3	1	0	3	0
24	726	10	10000	3	1	0	3	0
24	727	10	10000	3	1	0	3	0
24	728	10	10000	3	1	0	3	0
23	729	10	10000	3	1	0	3	0
23	730	10	10000	3	1	0	3	0
22	731	10	10000	3	1	0	3	0
22	732	10	10000	3	1	0	3	0
20	733	10	10000	3	1	0	3	0
20	734	10	10000	3	1	0	3	0
20	735	10	10000	3	1	0	3	0
21	736	10	10000	3	1	0	3	0
21	737	10	10000	3	1	0	3	0
20	738	10	10000	3	1	0	3	0
20	739	10	10000	3	1	0	3	0
19	740	10	10000	3	1	0	3	0
18	741	10	10000	3	1	0	3	0
17	742	10	10000	3	1	0	3	0
18	743	10	10000	3	1	0	3	0
18	744	10	10000	3	1	0	3	0
17	745	10	10000	3	1	0	3	0
17	746	10	10000	3	1	0	3	0
16	747	10	10000	3	1	0	3	0
16	748	10	10000	3	1	0	3	0
16	749	10	10000	3	1	0	3	0
20	750	10	10000	3	1	0	3	0
22	751	10	10000	3	1	0	3	0
26	752	10	10000	3	1	0	3	0
29	753	10	10000	3	1	0	3	0
33	754	10	10000	3	1	0	3	0
37	755	10	10000	3	1	0	3	0
39	756	10	10000	3	1	0	3	0
39	757	10	10000	3	1	0	3	0
37	758	10	10000	3	1	0	3	0
36	759	10	10000	3	1	0	3	0
33	760	10	10000	3	1	0	3	0
32	761	10	10000	3	1	0	3	0
32	762	10	10000	3	1	0	3	0
36	763	10	10000	3	1	0	3	0
38	764	10	10000	3	1	0	3	0
39	765	10	10000	3	1	0	3	0
40	766	10	10000	3	1	0	3	0
43	767	10	10000	3	1	0	3	0
44	768	10	10000	3	1	0	3	0
45	769	10	10000	3	1	0	3	0
50	770	10	10000	3	1	0	3	0
52	771	10	10000	3	1	0	3	0
56	772	10	10000	3	1	0	3	0
59	773	10	10000	3	1	0	3	0
63	774	10	10000	3	1	0	3	0
67	775	10	10000	3	1	0	3	0
72	776	10	10000	3	1	0	3	0
76	777	10	10000	3	1	0	3	0
79	778	10	10000	3	1	0	3	0
83	779	10	10000	3	1	0	3	0
85	780	10	10000	3	1	0	3	0
87	781	10	10000	3	1	0	3	0
89	782	10	10000	3	1	0	3	0
92	783	10	10000	3	1	0	3	0
95	784	10	10000	3	1	0	3	0
94	785	10	10000	3	1	0	3	0
94	786	10	10000	3	1	0	3	0
94	787	10	10000	3	1	0	3	0
93	788	10	10000	3	1	0	3	0
91	789	10	10000	3	1	0	3	0
90	790	10	10000	3	1	0	3	0
89	791	10	10000	3	1	0	3	0
89	792	10	10000	3	1	0	3	0
86	793	10	10000	3	1	0	3	0
84	794	10	10000	3	1	0	3	0
83	795	10	10000	3	1	0	3	0
81	796	10	10000	3	1	0	3	0
78	797	10	10000	3	1	0	3	0
74	798	10	10000	3	1	0	3	0
73	799	10	10000	3	1	0	3	0
73	800	10	10000	3	1	0	3	0
73	801	10	10000	3	1	0	3	0
73	802	10	10000	3	1	0	3	0
77	803	10	10000	3	1	0	3	0
80	804	10	10000	3	1	0	3	0
83	805	10	10000	3	1	0	3	0
86	806	10	10000	3	1	0	3	0
88	807	10	10000	3	1	0	3	0
91	808	10	10000	3	1	0	3	0
93	809	10	10000	3	1	0	3	0
98	810	10	10000	3	1	0	3	0
101	811	10	10000	3	1	0	3	0
104	812	10	10000	3	1	0	3	0
105	813	10	10000	3	1	0	3	0
108	814	10	10000	3	1	0	3	0
111	815	10	10000	3	1	0	3	0
113	816	10	10000	3	1	0	3	0
115	817	10	10000	3	1	0	3	0
116	818	10	10000	3	1	0	3	0
118	819	10	10000	3	1	0	3	0
118	820	10	10000	3	1	0	3	0
120	821	10	10000	3	1	0	3	0
118	822	10	10000	3	1	0	3	0
121	823	10	10000	3	1	0	3	0
122	824	10	10000	3	1	0	3	0
122	825	10	10000	3	1	0	3	0
121	826	10	10000	3	1	0	3	0
120	827	10	10000	3	1	0	3	0
118	828	10	10000	3	1	0	3	0
116	829	10	10000	3	1	0	3	0
114	830	10	10000	3	1	0	3	0
112	831	10	10000	3	1	0	3	0
111	832	10	10000	3	1	0	3	0
107	833	10	10000	3	1	0	3	0
104	834	10	10000	3	1	0	3	0
104	835	10	10000	3	1	0	3	0
103	836	10	10000	3	1	0	3	0
102	837	10	10000	3	1	0	3	0
102	838	10	10000	3	1	0	3	0
101	839	10	10000	3	1	0	3	0
100	840	10	10000	3	1	0	3	0
98	841	10	10000	3	1	0	3	0
96	842	10	10000	3	1	0	3	0
96	843	10	10000	3	1	0	3	0
95	844	10	10000	3	1	0	3	0
93	845	10	10000	3	1	0	3	0
90	846	10	10000	3	1	0	3	0
88	847	10	10000	3	1	0	3	0
85	848	10	10000	3	1	0	3	0
82	849	10	10000	3	1	0	3	0
80	850	10	10000	3	1	0	3	0
79	851	10	10000	3	1	0	3	0
77	852	10	10000	3	1	0	3	0
74	853	10	10000	3	1	0	3	0
73	854	10	10000	3	1	0	3	0
72	855	10	10000	3	1	0	3	0
70	856	10	10000	3	1	0	3	0
68	857	10	10000	3	1	0	3	0
65	858	10	10000	3	1	0	3	0
63	859	10	10000	3	1	0	3	0
60	860	10	10000	3	1	0	3	0
58	861	10	10000	3	1	0	3	0
56	862	10	10000	3	1	0	3	0
58	863	10	10000	3	1	0	3	0
57	864	10	10000	3	1	0	3	0
56	865	10	10000	3	1	0	3	0
54	866	10	10000	3	1	0	3	0
53	867	10	10000	3	1	0	3	0
51	868	10	10000	3	1	0	3	0
50	869	10	10000	3	1	0	3	0
50	870	10	10000	3	1	0	3	0
50	871	10	10000	3	1	0	3	0
51	872	10	10000	3	1	0	3	0
48	873	10	10000	3	1	0	3	0
48	874	10	10000	3	1	0	3	0
47	875	10	10000	3	1	0	3	0
45	876	10	10000	3	1	0	3	0
43	877	10	10000	3	1	0	3	0
42	878	10	10000	3	1	0	3	0
40	879	10	10000	3	1	0	3	0
39	880	10	10000	3	1	0	3	0
37	881	10	10000	3	1	0	3	0
35	882	10	10000	3	1	0	3	0
35	883	10	10000	3	1	0	3	0
34	884	10	10000	3	1	0	3	0
33	885	10	10000	3	1	0	3	0
32	886	10	10000	3	1	0	3	0
31	887	10	10000	3	1	0	3	0
30	888	10	10000	3	1	0	3	0
29	889	10	10000	3	1	0	3	0
27	890	10	10000	3	1	0	3	0
27	891	10	10000	3	1	0	3	0
27	892	10	10000	3	1	0	3	0
23	893	10	10000	3	1	0	3	0
23	894	10	10000	3	1	0	3	0
23	895	10	10000	3	1	0	3	0
22	896	10	10000	3	1	0	3	0
21	897	10	10000	3	1	0	3	0
21	898	10	10000	3	1	0	3	0
21	899	10	10000	3	1	0	3	0
20	900	10	10000	3	1	0	3	0
20	901	10	10000	3	1	0	3	0
20	902	10	10000	3	1	0	3	0
22	903	10	10000	3	1	0	3	0
22	904	10	10000	3	1	0	3	0
21	905	10	10000	3	1	0	3	0
20	906	10	10000	3	1	0	3	0
19	907	10	10000	3	1	0	3	0
19	908	10	10000	3	1	0	3	0
19	909	10	10000	3	1	0	3	0
18	910	10	10000	3	1	0	3	0
18	911	10	10000	3	1	0	3	0
18	912	10	10000	3	1	0	3	0
16	913	10	10000	3	1	0	3	0
15	914	10	10000	3	1	0	3	0
15	915	10	10000	3	1	0	3	0
15	916	10	10000	3	1	0	3	0
16	917	10	10000	3	1	0	3	0
17	918	10	10000	3	1	0	3	0
17	919	10	10000	3	1	0	3	0
16	920	10	10000	3	1	0	3	0
17	921	10	10000	3	1	0	3	0
17	922	10	10000	3	1	0	3	0
19	923	10	10000	3	1	0	3	0
18	924	10	10000	3	1	0	3	0
18	925	10	10000	3	1	0	3	0
18	926	10	10000	3	1	0	3	0
17	927	10	10000	3	1	0	3	0
17	928	10	10000	3	1	0	3	0
17	929	10	10000	3	1	0	3	0
17	930	10	10000	3	1	0	3	0
19	931	10	10000	3	1	0	3	0
21	932	10	10000	3	1	0	3	0
18	933	10	10000	3	1	0	3	0
18	934	10	10000	3	1	0	3	0
18	935	10	10000	3	1	0	3	0
19	936	10	10000	3	1	0	3	0
19	937	10	10000	3	1	0	3	0
20	938	10	10000	3	1	0	3	0
20	939	10	10000	3	1	0	3	0
20	940	10	10000	3	1	0	3	0
19	941	10	10000	3	1	0	3	0
20	942	10	10000	3	1	0	3	0
24	943	10	10000	3	1	0	3	0
22	944	10	10000	3	1	0	3	0
23	945	10	10000	3	1	0	3	0
26	946	10	10000	3	1	0	3	0
27	947	10	10000	3	1	0	3	0
27	948	10	10000	3	1	0	3	0
27	949	10	10000	3	1	0	3	0
28	950	10	10000	3	1	0	3	0
27	951	10	10000	3	1	0	3	0
27	952	10	10000	3	1	0	3	0
23	953	10	10000	3	1	0	3	0
22	954	10	10000	3	1	0	3	0
24	955	10	10000	3	1	0	3	0
27	956	10	10000	3	1	0	3	0
28	957	10	10000	3	1	0	3	0
28	958	10	10000	3	1	0	3	0
29	959	10	10000	3	1	0	3	0
28	960	10	10000	3	1	0	3	0
27	961	10	10000	3	1	0	3	0
26	962	10	10000	3	1	0	3	0
27	963	10	10000	3	1	0	3	0
27	964	10	10000	3	1	0	3	0
26	965	10	10000	3	1	0	3	0
25	966	10	10000	3	1	0	3	0
24	967	10	10000	3	1	0	3	0
24	968	10	10000	3	1	0	3	0
23	969	10	10000	3	1	0	3	0
23	970	10	10000	3	1	0	3	0
22	971	10	10000	3	1	0	3	0
22	972	10	10000	3	1	0	3	0
19	973	10	10000	3	1	0	3	0
19	974	10	10000	3	1	0	3	0
19	975	10	10000	3	1	0	3	0
18	976	10	10000	3	1	0	3	0
19	977	10	10000	3	1	0	3	0
18	978	10	10000	3	1	0	3	0
18	979	10	10000	3	1	0	3	0
17	980	10	10000	3	1	0	3	0
16	981	10	10000	3	1	0	3	0
14	982	10	10000	3	1	0	3	0
17	983	10	10000	3	1	0	3	0
17	984	10	10000	3	1	0	3	0
16	985	10	10000	3	1	0	3	0
15	986	10	10000	3	1	0	3	0
15	987	10	10000	3	1	0	3	0
15	988	10	10000	3	1	0	3	0
15	989	10	10000	3	1	0	3	0
15	990	10	10000	3	1	0	3	0
15	991	10	10000	3	1	0	3	0
16	992	10	10000	3	1	0	3	0
14	993	10	10000	3	1	0	3	0
14	994	10	10000	3	1	0	3	0
13	995	10	10000	3	1	0	3	0
14	996	10	10000	3	1	0	3	0
13	997	10	10000	3	1	0	3	0
13	998	10	10000	3	1	0	3	0
13	999	10	10000	3	1	0	3	0
13	1000	10	10000	3	1	0	3	0
13	1001	10	10000	3	1	0	3	0
42	1	10	10000	4	1	0	4	0
43	2	10	10000	4	1	0	4	0
42	3	10	10000	4	1	0	4	0
41	4	10	10000	4	1	0	4	0
42	5	10	10000	4	1	0	4	0
42	6	10	10000	4	1	0	4	0
41	7	10	10000	4	1	0	4	0
42	8	10	10000	4	1	0	4	0
42	9	10	10000	4	1	0	4	0
39	10	10	10000	4	1	0	4	0
38	11	10	10000	4	1	0	4	0
39	12	10	10000	4	1	0	4	0
38	13	10	10000	4	1	0	4	0
38	14	10	10000	4	1	0	4	0
38	15	10	10000	4	1	0	4	0
38	16	10	10000	4	1	0	4	0
38	17	10	10000	4	1	0	4	0
36	18	10	10000	4	1	0	4	0
36	19	10	10000	4	1	0	4	0
36	20	10	10000	4	1	0	4	0
35	21	10	10000	4	1	0	4	0
35	22	10	10000	4	1	0	4	0
33	23	10	10000	4	1	0	4	0
32	24	10	10000	4	1	0	4	0
32	25	10	10000	4	1	0	4	0
32	26	10	10000	4	1	0	4	0
32	27	10	10000	4	1	0	4	0
33	28	10	10000	4	1	0	4	0
32	29	10	10000	4	1	0	4	0
30	30	10	10000	4	1	0	4	0
29	31	10	10000	4	1	0	4	0
28	32	10	10000	4	1	0	4	0
28	33	10	10000	4	1	0	4	0
28	34	10	10000	4	1	0	4	0
26	35	10	10000	4	1	0	4	0
26	36	10	10000	4	1	0	4	0
25	37	10	10000	4	1	0	4	0
23	38	10	10000	4	1	0	4	0
23	39	10	10000	4	1	0	4	0
23	40	10	10000	4	1	0	4	0
23	41	10	10000	4	1	0	4	0
22	42	10	10000	4	1	0	4	0
21	43	10	10000	4	1	0	4	0
20	44	10	10000	4	1	0	4	0
20	45	10	10000	4	1	0	4	0
19	46	10	10000	4	1	0	4	0
19	47	10	10000	4	1	0	4	0
19	48	10	10000	4	1	0	4	0
19	49	10	10000	4	1	0	4	0
18	50	10	10000	4	1	0	4	0
17	51	10	10000	4	1	0	4	0
17	52	10	10000	4	1	0	4	0
17	53	10	10000	4	1	0	4	0
16	54	10	10000	4	1	0	4	0
16	55	10	10000	4	1	0	4	0
16	56	10	10000	4	1	0	4	0
15	57	10	10000	4	1	0	4	0
15	58	10	10000	4	1	0	4	0
14	59	10	10000	4	1	0	4	0
15	60	10	10000	4	1	0	4	0
15	61	10	10000	4	1	0	4	0
15	62	10	10000	4	1	0	4	0
15	63	10	10000	4	1	0	4	0
14	64	10	10000	4	1	0	4	0
14	65	10	10000	4	1	0	4	0
14	66	10	10000	4	1	0	4	0
14	67	10	10000	4	1	0	4	0
15	68	10	10000	4	1	0	4	0
15	69	10	10000	4	1	0	4	0
14	70	10	10000	4	1	0	4	0
13	71	10	10000	4	1	0	4	0
14	72	10	10000	4	1	0	4	0
15	73	10	10000	4	1	0	4	0
14	74	10	10000	4	1	0	4	0
15	75	10	10000	4	1	0	4	0
15	76	10	10000	4	1	0	4	0
14	77	10	10000	4	1	0	4	0
14	78	10	10000	4	1	0	4	0
14	79	10	10000	4	1	0	4	0
15	80	10	10000	4	1	0	4	0
15	81	10	10000	4	1	0	4	0
16	82	10	10000	4	1	0	4	0
15	83	10	10000	4	1	0	4	0
15	84	10	10000	4	1	0	4	0
15	85	10	10000	4	1	0	4	0
15	86	10	10000	4	1	0	4	0
16	87	10	10000	4	1	0	4	0
17	88	10	10000	4	1	0	4	0
19	89	10	10000	4	1	0	4	0
17	90	10	10000	4	1	0	4	0
15	91	10	10000	4	1	0	4	0
15	92	10	10000	4	1	0	4	0
15	93	10	10000	4	1	0	4	0
15	94	10	10000	4	1	0	4	0
16	95	10	10000	4	1	0	4	0
16	96	10	10000	4	1	0	4	0
16	97	10	10000	4	1	0	4	0
18	98	10	10000	4	1	0	4	0
18	99	10	10000	4	1	0	4	0
19	100	10	10000	4	1	0	4	0
19	101	10	10000	4	1	0	4	0
18	102	10	10000	4	1	0	4	0
18	103	10	10000	4	1	0	4	0
17	104	10	10000	4	1	0	4	0
17	105	10	10000	4	1	0	4	0
16	106	10	10000	4	1	0	4	0
16	107	10	10000	4	1	0	4	0
16	108	10	10000	4	1	0	4	0
16	109	10	10000	4	1	0	4	0
14	110	10	10000	4	1	0	4	0
13	111	10	10000	4	1	0	4	0
13	112	10	10000	4	1	0	4	0
13	113	10	10000	4	1	0	4	0
13	114	10	10000	4	1	0	4	0
13	115	10	10000	4	1	0	4	0
13	116	10	10000	4	1	0	4	0
12	117	10	10000	4	1	0	4	0
11	118	10	10000	4	1	0	4	0
10	119	10	10000	4	1	0	4	0
12	120	10	10000	4	1	0	4	0
13	121	10	10000	4	1	0	4	0
12	122	10	10000	4	1	0	4	0
11	123	10	10000	4	1	0	4	0
12	124	10	10000	4	1	0	4	0
11	125	10	10000	4	1	0	4	0
10	126	10	10000	4	1	0	4	0
12	127	10	10000	4	1	0	4	0
13	128	10	10000	4	1	0	4	0
13	129	10	10000	4	1	0	4	0
11	130	10	10000	4	1	0	4	0
10	131	10	10000	4	1	0	4	0
11	132	10	10000	4	1	0	4	0
11	133	10	10000	4	1	0	4	0
11	134	10	10000	4	1	0	4	0
11	135	10	10000	4	1	0	4	0
11	136	10	10000	4	1	0	4	0
11	137	10	10000	4	1	0	4	0
12	138	10	10000	4	1	0	4	0
11	139	10	10000	4	1	0	4	0
13	140	10	10000	4	1	0	4	0
14	141	10	10000	4	1	0	4	0
13	142	10	10000	4	1	0	4	0
12	143	10	10000	4	1	0	4	0
12	144	10	10000	4	1	0	4	0
12	145	10	10000	4	1	0	4	0
13	146	10	10000	4	1	0	4	0
13	147	10	10000	4	1	0	4	0
13	148	10	10000	4	1	0	4	0
14	149	10	10000	4	1	0	4	0
13	150	10	10000	4	1	0	4	0
12	151	10	10000	4	1	0	4	0
12	152	10	10000	4	1	0	4	0
12	153	10	10000	4	1	0	4	0
12	154	10	10000	4	1	0	4	0
12	155	10	10000	4	1	0	4	0
12	156	10	10000	4	1	0	4	0
12	157	10	10000	4	1	0	4	0
13	158	10	10000	4	1	0	4	0
12	159	10	10000	4	1	0	4	0
13	160	10	10000	4	1	0	4	0
15	161	10	10000	4	1	0	4	0
14	162	10	10000	4	1	0	4	0
14	163	10	10000	4	1	0	4	0
13	164	10	10000	4	1	0	4	0
12	165	10	10000	4	1	0	4	0
12	166	10	10000	4	1	0	4	0
12	167	10	10000	4	1	0	4	0
13	168	10	10000	4	1	0	4	0
14	169	10	10000	4	1	0	4	0
13	170	10	10000	4	1	0	4	0
11	171	10	10000	4	1	0	4	0
12	172	10	10000	4	1	0	4	0
13	173	10	10000	4	1	0	4	0
13	174	10	10000	4	1	0	4	0
14	175	10	10000	4	1	0	4	0
13	176	10	10000	4	1	0	4	0
12	177	10	10000	4	1	0	4	0
12	178	10	10000	4	1	0	4	0
11	179	10	10000	4	1	0	4	0
13	180	10	10000	4	1	0	4	0
13	181	10	10000	4	1	0	4	0
13	182	10	10000	4	1	0	4	0
14	183	10	10000	4	1	0	4	0
13	184	10	10000	4	1	0	4	0
13	185	10	10000	4	1	0	4	0
13	186	10	10000	4	1	0	4	0
13	187	10	10000	4	1	0	4	0
14	188	10	10000	4	1	0	4	0
14	189	10	10000	4	1	0	4	0
14	190	10	10000	4	1	0	4	0
14	191	10	10000	4	1	0	4	0
15	192	10	10000	4	1	0	4	0
14	193	10	10000	4	1	0	4	0
13	194	10	10000	4	1	0	4	0
14	195	10	10000	4	1	0	4	0
13	196	10	10000	4	1	0	4	0
14	197	10	10000	4	1	0	4	0
13	198	10	10000	4	1	0	4	0
13	199	10	10000	4	1	0	4	0
14	200	10	10000	4	1	0	4	0
15	201	10	10000	4	1	0	4	0
14	202	10	10000	4	1	0	4	0
14	203	10	10000	4	1	0	4	0
14	204	10	10000	4	1	0	4	0
13	205	10	10000	4	1	0	4	0
14	206	10	10000	4	1	0	4	0
14	207	10	10000	4	1	0	4	0
14	208	10	10000	4	1	0	4	0
15	209	10	10000	4	1	0	4	0
13	210	10	10000	4	1	0	4	0
13	211	10	10000	4	1	0	4	0
14	212	10	10000	4	1	0	4	0
13	213	10	10000	4	1	0	4	0
13	214	10	10000	4	1	0	4	0
14	215	10	10000	4	1	0	4	0
15	216	10	10000	4	1	0	4	0
14	217	10	10000	4	1	0	4	0
14	218	10	10000	4	1	0	4	0
13	219	10	10000	4	1	0	4	0
14	220	10	10000	4	1	0	4	0
15	221	10	10000	4	1	0	4	0
15	222	10	10000	4	1	0	4	0
15	223	10	10000	4	1	0	4	0
15	224	10	10000	4	1	0	4	0
15	225	10	10000	4	1	0	4	0
15	226	10	10000	4	1	0	4	0
14	227	10	10000	4	1	0	4	0
14	228	10	10000	4	1	0	4	0
17	229	10	10000	4	1	0	4	0
17	230	10	10000	4	1	0	4	0
19	231	10	10000	4	1	0	4	0
21	232	10	10000	4	1	0	4	0
20	233	10	10000	4	1	0	4	0
21	234	10	10000	4	1	0	4	0
24	235	10	10000	4	1	0	4	0
26	236	10	10000	4	1	0	4	0
26	237	10	10000	4	1	0	4	0
25	238	10	10000	4	1	0	4	0
27	239	10	10000	4	1	0	4	0
32	240	10	10000	4	1	0	4	0
38	241	10	10000	4	1	0	4	0
41	242	10	10000	4	1	0	4	0
43	243	10	10000	4	1	0	4	0
44	244	10	10000	4	1	0	4	0
46	245	10	10000	4	1	0	4	0
47	246	10	10000	4	1	0	4	0
47	247	10	10000	4	1	0	4	0
48	248	10	10000	4	1	0	4	0
49	249	10	10000	4	1	0	4	0
49	250	10	10000	4	1	0	4	0
50	251	10	10000	4	1	0	4	0
54	252	10	10000	4	1	0	4	0
57	253	10	10000	4	1	0	4	0
60	254	10	10000	4	1	0	4	0
63	255	10	10000	4	1	0	4	0
64	256	10	10000	4	1	0	4	0
65	257	10	10000	4	1	0	4	0
63	258	10	10000	4	1	0	4	0
60	259	10	10000	4	1	0	4	0
59	260	10	10000	4	1	0	4	0
57	261	10	10000	4	1	0	4	0
55	262	10	10000	4	1	0	4	0
54	263	10	10000	4	1	0	4	0
51	264	10	10000	4	1	0	4	0
49	265	10	10000	4	1	0	4	0
47	266	10	10000	4	1	0	4	0
46	267	10	10000	4	1	0	4	0
46	268	10	10000	4	1	0	4	0
45	269	10	10000	4	1	0	4	0
42	270	10	10000	4	1	0	4	0
40	271	10	10000	4	1	0	4	0
41	272	10	10000	4	1	0	4	0
43	273	10	10000	4	1	0	4	0
43	274	10	10000	4	1	0	4	0
44	275	10	10000	4	1	0	4	0
44	276	10	10000	4	1	0	4	0
45	277	10	10000	4	1	0	4	0
45	278	10	10000	4	1	0	4	0
44	279	10	10000	4	1	0	4	0
47	280	10	10000	4	1	0	4	0
47	281	10	10000	4	1	0	4	0
48	282	10	10000	4	1	0	4	0
49	283	10	10000	4	1	0	4	0
49	284	10	10000	4	1	0	4	0
50	285	10	10000	4	1	0	4	0
51	286	10	10000	4	1	0	4	0
51	287	10	10000	4	1	0	4	0
52	288	10	10000	4	1	0	4	0
52	289	10	10000	4	1	0	4	0
50	290	10	10000	4	1	0	4	0
48	291	10	10000	4	1	0	4	0
49	292	10	10000	4	1	0	4	0
51	293	10	10000	4	1	0	4	0
53	294	10	10000	4	1	0	4	0
53	295	10	10000	4	1	0	4	0
54	296	10	10000	4	1	0	4	0
55	297	10	10000	4	1	0	4	0
54	298	10	10000	4	1	0	4	0
53	299	10	10000	4	1	0	4	0
55	300	10	10000	4	1	0	4	0
55	301	10	10000	4	1	0	4	0
54	302	10	10000	4	1	0	4	0
52	303	10	10000	4	1	0	4	0
51	304	10	10000	4	1	0	4	0
51	305	10	10000	4	1	0	4	0
50	306	10	10000	4	1	0	4	0
49	307	10	10000	4	1	0	4	0
47	308	10	10000	4	1	0	4	0
46	309	10	10000	4	1	0	4	0
43	310	10	10000	4	1	0	4	0
42	311	10	10000	4	1	0	4	0
42	312	10	10000	4	1	0	4	0
40	313	10	10000	4	1	0	4	0
40	314	10	10000	4	1	0	4	0
39	315	10	10000	4	1	0	4	0
37	316	10	10000	4	1	0	4	0
36	317	10	10000	4	1	0	4	0
35	318	10	10000	4	1	0	4	0
34	319	10	10000	4	1	0	4	0
36	320	10	10000	4	1	0	4	0
37	321	10	10000	4	1	0	4	0
36	322	10	10000	4	1	0	4	0
35	323	10	10000	4	1	0	4	0
33	324	10	10000	4	1	0	4	0
32	325	10	10000	4	1	0	4	0
31	326	10	10000	4	1	0	4	0
31	327	10	10000	4	1	0	4	0
31	328	10	10000	4	1	0	4	0
30	329	10	10000	4	1	0	4	0
28	330	10	10000	4	1	0	4	0
27	331	10	10000	4	1	0	4	0
25	332	10	10000	4	1	0	4	0
25	333	10	10000	4	1	0	4	0
24	334	10	10000	4	1	0	4	0
24	335	10	10000	4	1	0	4	0
24	336	10	10000	4	1	0	4	0
23	337	10	10000	4	1	0	4	0
21	338	10	10000	4	1	0	4	0
20	339	10	10000	4	1	0	4	0
21	340	10	10000	4	1	0	4	0
21	341	10	10000	4	1	0	4	0
20	342	10	10000	4	1	0	4	0
20	343	10	10000	4	1	0	4	0
20	344	10	10000	4	1	0	4	0
19	345	10	10000	4	1	0	4	0
18	346	10	10000	4	1	0	4	0
19	347	10	10000	4	1	0	4	0
20	348	10	10000	4	1	0	4	0
20	349	10	10000	4	1	0	4	0
17	350	10	10000	4	1	0	4	0
17	351	10	10000	4	1	0	4	0
16	352	10	10000	4	1	0	4	0
16	353	10	10000	4	1	0	4	0
16	354	10	10000	4	1	0	4	0
16	355	10	10000	4	1	0	4	0
15	356	10	10000	4	1	0	4	0
15	357	10	10000	4	1	0	4	0
15	358	10	10000	4	1	0	4	0
14	359	10	10000	4	1	0	4	0
15	360	10	10000	4	1	0	4	0
16	361	10	10000	4	1	0	4	0
14	362	10	10000	4	1	0	4	0
15	363	10	10000	4	1	0	4	0
14	364	10	10000	4	1	0	4	0
15	365	10	10000	4	1	0	4	0
14	366	10	10000	4	1	0	4	0
14	367	10	10000	4	1	0	4	0
15	368	10	10000	4	1	0	4	0
15	369	10	10000	4	1	0	4	0
14	370	10	10000	4	1	0	4	0
12	371	10	10000	4	1	0	4	0
12	372	10	10000	4	1	0	4	0
12	373	10	10000	4	1	0	4	0
13	374	10	10000	4	1	0	4	0
13	375	10	10000	4	1	0	4	0
13	376	10	10000	4	1	0	4	0
13	377	10	10000	4	1	0	4	0
13	378	10	10000	4	1	0	4	0
13	379	10	10000	4	1	0	4	0
14	380	10	10000	4	1	0	4	0
14	381	10	10000	4	1	0	4	0
15	382	10	10000	4	1	0	4	0
13	383	10	10000	4	1	0	4	0
12	384	10	10000	4	1	0	4	0
13	385	10	10000	4	1	0	4	0
12	386	10	10000	4	1	0	4	0
12	387	10	10000	4	1	0	4	0
13	388	10	10000	4	1	0	4	0
13	389	10	10000	4	1	0	4	0
11	390	10	10000	4	1	0	4	0
11	391	10	10000	4	1	0	4	0
11	392	10	10000	4	1	0	4	0
11	393	10	10000	4	1	0	4	0
12	394	10	10000	4	1	0	4	0
11	395	10	10000	4	1	0	4	0
13	396	10	10000	4	1	0	4	0
13	397	10	10000	4	1	0	4	0
13	398	10	10000	4	1	0	4	0
14	399	10	10000	4	1	0	4	0
14	400	10	10000	4	1	0	4	0
14	401	10	10000	4	1	0	4	0
14	402	10	10000	4	1	0	4	0
14	403	10	10000	4	1	0	4	0
14	404	10	10000	4	1	0	4	0
14	405	10	10000	4	1	0	4	0
14	406	10	10000	4	1	0	4	0
15	407	10	10000	4	1	0	4	0
15	408	10	10000	4	1	0	4	0
15	409	10	10000	4	1	0	4	0
14	410	10	10000	4	1	0	4	0
14	411	10	10000	4	1	0	4	0
14	412	10	10000	4	1	0	4	0
14	413	10	10000	4	1	0	4	0
15	414	10	10000	4	1	0	4	0
14	415	10	10000	4	1	0	4	0
15	416	10	10000	4	1	0	4	0
13	417	10	10000	4	1	0	4	0
12	418	10	10000	4	1	0	4	0
13	419	10	10000	4	1	0	4	0
13	420	10	10000	4	1	0	4	0
14	421	10	10000	4	1	0	4	0
14	422	10	10000	4	1	0	4	0
13	423	10	10000	4	1	0	4	0
14	424	10	10000	4	1	0	4	0
14	425	10	10000	4	1	0	4	0
14	426	10	10000	4	1	0	4	0
14	427	10	10000	4	1	0	4	0
15	428	10	10000	4	1	0	4	0
15	429	10	10000	4	1	0	4	0
13	430	10	10000	4	1	0	4	0
12	431	10	10000	4	1	0	4	0
13	432	10	10000	4	1	0	4	0
13	433	10	10000	4	1	0	4	0
13	434	10	10000	4	1	0	4	0
13	435	10	10000	4	1	0	4	0
13	436	10	10000	4	1	0	4	0
12	437	10	10000	4	1	0	4	0
13	438	10	10000	4	1	0	4	0
13	439	10	10000	4	1	0	4	0
15	440	10	10000	4	1	0	4	0
17	441	10	10000	4	1	0	4	0
17	442	10	10000	4	1	0	4	0
16	443	10	10000	4	1	0	4	0
15	444	10	10000	4	1	0	4	0
16	445	10	10000	4	1	0	4	0
16	446	10	10000	4	1	0	4	0
16	447	10	10000	4	1	0	4	0
17	448	10	10000	4	1	0	4	0
17	449	10	10000	4	1	0	4	0
16	450	10	10000	4	1	0	4	0
14	451	10	10000	4	1	0	4	0
14	452	10	10000	4	1	0	4	0
14	453	10	10000	4	1	0	4	0
13	454	10	10000	4	1	0	4	0
14	455	10	10000	4	1	0	4	0
15	456	10	10000	4	1	0	4	0
14	457	10	10000	4	1	0	4	0
13	458	10	10000	4	1	0	4	0
12	459	10	10000	4	1	0	4	0
14	460	10	10000	4	1	0	4	0
14	461	10	10000	4	1	0	4	0
15	462	10	10000	4	1	0	4	0
15	463	10	10000	4	1	0	4	0
15	464	10	10000	4	1	0	4	0
14	465	10	10000	4	1	0	4	0
14	466	10	10000	4	1	0	4	0
14	467	10	10000	4	1	0	4	0
15	468	10	10000	4	1	0	4	0
15	469	10	10000	4	1	0	4	0
15	470	10	10000	4	1	0	4	0
13	470	10	10000	4	1	0	4	0
14	471	10	10000	4	1	0	4	0
15	473	10	10000	4	1	0	4	0
14	474	10	10000	4	1	0	4	0
14	475	10	10000	4	1	0	4	0
14	476	10	10000	4	1	0	4	0
14	477	10	10000	4	1	0	4	0
13	478	10	10000	4	1	0	4	0
13	479	10	10000	4	1	0	4	0
14	480	10	10000	4	1	0	4	0
14	480	10	10000	4	1	0	4	0
14	481	10	10000	4	1	0	4	0
13	483	10	10000	4	1	0	4	0
14	484	10	10000	4	1	0	4	0
14	485	10	10000	4	1	0	4	0
13	486	10	10000	4	1	0	4	0
13	487	10	10000	4	1	0	4	0
13	488	10	10000	4	1	0	4	0
13	489	10	10000	4	1	0	4	0
13	490	10	10000	4	1	0	4	0
13	490	10	10000	4	1	0	4	0
12	491	10	10000	4	1	0	4	0
12	493	10	10000	4	1	0	4	0
12	494	10	10000	4	1	0	4	0
12	495	10	10000	4	1	0	4	0
12	496	10	10000	4	1	0	4	0
12	497	10	10000	4	1	0	4	0
12	498	10	10000	4	1	0	4	0
11	499	10	10000	4	1	0	4	0
12	500	10	10000	4	1	0	4	0
13	500	10	10000	4	1	0	4	0
12	501	10	10000	4	1	0	4	1
12	503	10	10000	4	1	0	4	1
12	504	10	10000	4	1	0	4	1
11	505	10	10000	4	1	0	4	1
11	506	10	10000	4	1	0	4	1
11	507	10	10000	4	1	0	4	1
11	508	10	10000	4	1	0	4	1
12	509	10	10000	4	1	0	4	1
10	510	10	10000	4	1	0	4	1
9	510	10	10000	4	1	0	4	1
9	511	10	10000	4	1	0	4	1
10	513	10	10000	4	1	0	4	1
11	514	10	10000	4	1	0	4	1
10	515	10	10000	4	1	0	4	1
10	516	10	10000	4	1	0	4	1
11	517	10	10000	4	1	0	4	1
12	518	10	10000	4	1	0	4	1
13	519	10	10000	4	1	0	4	1
16	520	10	10000	4	1	0	4	1
22	520	10	10000	4	1	0	4	1
22	521	10	10000	4	1	0	4	1
22	523	10	10000	4	1	0	4	1
22	524	10	10000	4	1	0	4	1
21	525	10	10000	4	1	0	4	1
20	526	10	10000	4	1	0	4	1
21	527	10	10000	4	1	0	4	1
22	528	10	10000	4	1	0	4	1
25	529	10	10000	4	1	0	4	1
27	530	10	10000	4	1	0	4	1
29	530	10	10000	4	1	0	4	1
33	531	10	10000	4	1	0	4	1
37	533	10	10000	4	1	0	4	1
42	534	10	10000	4	1	0	4	1
47	535	10	10000	4	1	0	4	1
50	536	10	10000	4	1	0	4	1
52	537	10	10000	4	1	0	4	1
55	538	10	10000	4	1	0	4	1
57	539	10	10000	4	1	0	4	1
63	540	10	10000	4	1	0	4	1
69	540	10	10000	4	1	0	4	1
75	541	10	10000	4	1	0	4	1
80	543	10	10000	4	1	0	4	1
84	544	10	10000	4	1	0	4	1
87	545	10	10000	4	1	0	4	1
91	546	10	10000	4	1	0	4	1
94	547	10	10000	4	1	0	4	1
100	548	10	10000	4	1	0	4	1
105	549	10	10000	4	1	0	4	1
110	550	10	10000	4	1	0	4	1
111	550	10	10000	4	1	0	4	1
112	551	10	10000	4	1	0	4	1
112	553	10	10000	4	1	0	4	0
112	554	10	10000	4	1	0	4	0
112	555	10	10000	4	1	0	4	0
111	556	10	10000	4	1	0	4	0
110	557	10	10000	4	1	0	4	0
109	558	10	10000	4	1	0	4	0
105	559	10	10000	4	1	0	4	0
104	560	10	10000	4	1	0	4	0
103	560	10	10000	4	1	0	4	0
99	561	10	10000	4	1	0	4	0
95	563	10	10000	4	1	0	4	0
91	564	10	10000	4	1	0	4	0
88	565	10	10000	4	1	0	4	0
85	566	10	10000	4	1	0	4	0
82	567	10	10000	4	1	0	4	0
80	568	10	10000	4	1	0	4	0
78	569	10	10000	4	1	0	4	0
74	570	10	10000	4	1	0	4	0
71	570	10	10000	4	1	0	4	0
72	571	10	10000	4	1	0	4	0
72	573	10	10000	4	1	0	4	0
72	574	10	10000	4	1	0	4	0
73	575	10	10000	4	1	0	4	0
75	576	10	10000	4	1	0	4	0
78	577	10	10000	4	1	0	4	0
80	578	10	10000	4	1	0	4	0
84	579	10	10000	4	1	0	4	0
88	580	10	10000	4	1	0	4	0
92	580	10	10000	4	1	0	4	0
95	581	10	10000	4	1	0	4	0
99	583	10	10000	4	1	0	4	0
103	584	10	10000	4	1	0	4	0
108	585	10	10000	4	1	0	4	0
113	586	10	10000	4	1	0	4	0
115	586	10	10000	4	1	0	4	0
114	587	10	10000	4	1	0	4	0
122	589	10	10000	4	1	0	4	0
130	590	10	10000	4	1	0	4	0
133	590	10	10000	4	1	0	4	0
132	591	10	10000	4	1	0	4	0
128	593	10	10000	4	1	0	4	0
126	594	10	10000	4	1	0	4	0
125	595	10	10000	4	1	0	4	0
127	596	10	10000	4	1	0	4	0
131	597	10	10000	4	1	0	4	0
138	598	10	10000	4	1	0	4	0
139	599	10	10000	4	1	0	4	0
138	600	10	10000	4	1	0	4	0
137	600	10	10000	4	1	0	4	0
134	601	10	10000	4	1	0	4	0
132	603	10	10000	4	1	0	4	0
131	604	10	10000	4	1	0	4	0
135	605	10	10000	4	1	0	4	0
144	606	10	10000	4	1	0	4	0
151	607	10	10000	4	1	0	4	0
153	608	10	10000	4	1	0	4	0
150	609	10	10000	4	1	0	4	0
145	610	10	10000	4	1	0	4	0
142	610	10	10000	4	1	0	4	0
149	611	10	10000	4	1	0	4	0
150	613	10	10000	4	1	0	4	0
145	614	10	10000	4	1	0	4	0
139	615	10	10000	4	1	0	4	0
133	616	10	10000	4	1	0	4	0
129	616	10	10000	4	1	0	4	0
124	617	10	10000	4	1	0	4	0
118	619	10	10000	4	1	0	4	0
117	620	10	10000	4	1	0	4	0
119	620	10	10000	4	1	0	4	0
119	621	10	10000	4	1	0	4	0
118	623	10	10000	4	1	0	4	0
115	624	10	10000	4	1	0	4	0
110	625	10	10000	4	1	0	4	0
108	626	10	10000	4	1	0	4	0
106	627	10	10000	4	1	0	4	0
104	628	10	10000	4	1	0	4	0
104	629	10	10000	4	1	0	4	0
102	630	10	10000	4	1	0	4	0
98	630	10	10000	4	1	0	4	0
97	631	10	10000	4	1	0	4	0
95	633	10	10000	4	1	0	4	0
92	634	10	10000	4	1	0	4	0
89	635	10	10000	4	1	0	4	0
86	636	10	10000	4	1	0	4	0
82	636	10	10000	4	1	0	4	0
80	637	10	10000	4	1	0	4	0
78	638	10	10000	4	1	0	4	0
79	639	10	10000	4	1	0	4	0
77	640	10	10000	4	1	0	4	0
73	641	10	10000	4	1	0	4	0
71	642	10	10000	4	1	0	4	0
67	643	10	10000	4	1	0	4	0
65	644	10	10000	4	1	0	4	0
62	645	10	10000	4	1	0	4	0
60	646	10	10000	4	1	0	4	0
59	647	10	10000	4	1	0	4	0
60	648	10	10000	4	1	0	4	0
59	649	10	10000	4	1	0	4	0
59	650	10	10000	4	1	0	4	0
58	651	10	10000	4	1	0	4	0
57	652	10	10000	4	1	0	4	0
56	653	10	10000	4	1	0	4	0
54	654	10	10000	4	1	0	4	0
52	655	10	10000	4	1	0	4	0
51	656	10	10000	4	1	0	4	0
48	657	10	10000	4	1	0	4	0
45	658	10	10000	4	1	0	4	0
46	659	10	10000	4	1	0	4	0
45	660	10	10000	4	1	0	4	0
43	661	10	10000	4	1	0	4	0
42	662	10	10000	4	1	0	4	0
40	663	10	10000	4	1	0	4	0
38	664	10	10000	4	1	0	4	0
37	665	10	10000	4	1	0	4	0
35	666	10	10000	4	1	0	4	0
35	667	10	10000	4	1	0	4	0
35	668	10	10000	4	1	0	4	0
32	669	10	10000	4	1	0	4	0
30	670	10	10000	4	1	0	4	0
30	671	10	10000	4	1	0	4	0
29	672	10	10000	4	1	0	4	0
28	673	10	10000	4	1	0	4	0
28	674	10	10000	4	1	0	4	0
29	675	10	10000	4	1	0	4	0
30	676	10	10000	4	1	0	4	0
28	677	10	10000	4	1	0	4	0
28	678	10	10000	4	1	0	4	0
29	679	10	10000	4	1	0	4	0
29	680	10	10000	4	1	0	4	0
28	681	10	10000	4	1	0	4	0
28	682	10	10000	4	1	0	4	0
26	683	10	10000	4	1	0	4	0
26	684	10	10000	4	1	0	4	0
24	685	10	10000	4	1	0	4	0
23	686	10	10000	4	1	0	4	0
23	687	10	10000	4	1	0	4	0
23	688	10	10000	4	1	0	4	0
21	689	10	10000	4	1	0	4	0
20	690	10	10000	4	1	0	4	0
20	691	10	10000	4	1	0	4	0
20	692	10	10000	4	1	0	4	0
21	693	10	10000	4	1	0	4	0
20	694	10	10000	4	1	0	4	0
19	695	10	10000	4	1	0	4	0
19	696	10	10000	4	1	0	4	0
18	697	10	10000	4	1	0	4	0
17	698	10	10000	4	1	0	4	0
17	699	10	10000	4	1	0	4	0
18	700	10	10000	4	1	0	4	0
17	701	10	10000	4	1	0	4	0
17	702	10	10000	4	1	0	4	0
16	703	10	10000	4	1	0	4	0
16	704	10	10000	4	1	0	4	0
17	705	10	10000	4	1	0	4	0
17	706	10	10000	4	1	0	4	0
16	707	10	10000	4	1	0	4	0
16	708	10	10000	4	1	0	4	0
15	709	10	10000	4	1	0	4	0
14	710	10	10000	4	1	0	4	0
13	711	10	10000	4	1	0	4	0
14	712	10	10000	4	1	0	4	0
15	713	10	10000	4	1	0	4	0
14	714	10	10000	4	1	0	4	0
15	715	10	10000	4	1	0	4	0
16	716	10	10000	4	1	0	4	0
15	717	10	10000	4	1	0	4	0
15	718	10	10000	4	1	0	4	0
15	719	10	10000	4	1	0	4	0
17	720	10	10000	4	1	0	4	0
17	721	10	10000	4	1	0	4	0
17	722	10	10000	4	1	0	4	0
16	723	10	10000	4	1	0	4	0
16	724	10	10000	4	1	0	4	0
16	725	10	10000	4	1	0	4	0
15	726	10	10000	4	1	0	4	0
16	727	10	10000	4	1	0	4	0
16	728	10	10000	4	1	0	4	0
16	729	10	10000	4	1	0	4	0
16	730	10	10000	4	1	0	4	0
17	731	10	10000	4	1	0	4	0
16	732	10	10000	4	1	0	4	0
16	733	10	10000	4	1	0	4	0
16	734	10	10000	4	1	0	4	0
15	735	10	10000	4	1	0	4	0
15	736	10	10000	4	1	0	4	0
14	737	10	10000	4	1	0	4	0
14	738	10	10000	4	1	0	4	0
14	739	10	10000	4	1	0	4	0
18	740	10	10000	4	1	0	4	0
18	741	10	10000	4	1	0	4	0
17	742	10	10000	4	1	0	4	0
17	743	10	10000	4	1	0	4	0
17	744	10	10000	4	1	0	4	0
15	745	10	10000	4	1	0	4	0
15	746	10	10000	4	1	0	4	0
16	747	10	10000	4	1	0	4	0
15	748	10	10000	4	1	0	4	0
14	749	10	10000	4	1	0	4	0
12	750	10	10000	4	1	0	4	0
12	751	10	10000	4	1	0	4	0
12	752	10	10000	4	1	0	4	0
13	753	10	10000	4	1	0	4	0
12	754	10	10000	4	1	0	4	0
12	755	10	10000	4	1	0	4	0
12	756	10	10000	4	1	0	4	0
11	757	10	10000	4	1	0	4	0
11	758	10	10000	4	1	0	4	0
12	759	10	10000	4	1	0	4	0
14	760	10	10000	4	1	0	4	0
15	761	10	10000	4	1	0	4	0
16	762	10	10000	4	1	0	4	0
16	763	10	10000	4	1	0	4	0
16	764	10	10000	4	1	0	4	0
15	765	10	10000	4	1	0	4	0
15	766	10	10000	4	1	0	4	0
16	767	10	10000	4	1	0	4	0
16	768	10	10000	4	1	0	4	0
16	769	10	10000	4	1	0	4	0
15	770	10	10000	4	1	0	4	0
16	771	10	10000	4	1	0	4	0
16	772	10	10000	4	1	0	4	0
17	773	10	10000	4	1	0	4	0
17	774	10	10000	4	1	0	4	0
18	775	10	10000	4	1	0	4	0
20	776	10	10000	4	1	0	4	0
21	777	10	10000	4	1	0	4	0
23	778	10	10000	4	1	0	4	0
23	779	10	10000	4	1	0	4	0
24	780	10	10000	4	1	0	4	0
24	781	10	10000	4	1	0	4	0
23	782	10	10000	4	1	0	4	0
23	783	10	10000	4	1	0	4	0
23	784	10	10000	4	1	0	4	0
21	785	10	10000	4	1	0	4	0
20	786	10	10000	4	1	0	4	0
21	787	10	10000	4	1	0	4	0
23	788	10	10000	4	1	0	4	0
24	789	10	10000	4	1	0	4	0
24	790	10	10000	4	1	0	4	0
23	791	10	10000	4	1	0	4	0
23	792	10	10000	4	1	0	4	0
23	793	10	10000	4	1	0	4	0
21	794	10	10000	4	1	0	4	0
22	795	10	10000	4	1	0	4	0
21	796	10	10000	4	1	0	4	0
20	797	10	10000	4	1	0	4	0
20	798	10	10000	4	1	0	4	0
20	799	10	10000	4	1	0	4	0
20	800	10	10000	4	1	0	4	0
20	801	10	10000	4	1	0	4	0
19	802	10	10000	4	1	0	4	0
18	803	10	10000	4	1	0	4	0
18	804	10	10000	4	1	0	4	0
18	805	10	10000	4	1	0	4	0
18	806	10	10000	4	1	0	4	0
20	807	10	10000	4	1	0	4	0
20	808	10	10000	4	1	0	4	0
21	809	10	10000	4	1	0	4	0
20	810	10	10000	4	1	0	4	0
20	811	10	10000	4	1	0	4	0
20	812	10	10000	4	1	0	4	0
20	813	10	10000	4	1	0	4	0
20	814	10	10000	4	1	0	4	0
21	815	10	10000	4	1	0	4	0
20	816	10	10000	4	1	0	4	0
20	817	10	10000	4	1	0	4	0
20	818	10	10000	4	1	0	4	0
21	819	10	10000	4	1	0	4	0
21	820	10	10000	4	1	0	4	0
20	821	10	10000	4	1	0	4	0
20	822	10	10000	4	1	0	4	0
20	823	10	10000	4	1	0	4	0
20	824	10	10000	4	1	0	4	0
20	825	10	10000	4	1	0	4	0
20	826	10	10000	4	1	0	4	0
20	827	10	10000	4	1	0	4	0
20	828	10	10000	4	1	0	4	0
19	829	10	10000	4	1	0	4	0
17	830	10	10000	4	1	0	4	0
17	831	10	10000	4	1	0	4	0
18	832	10	10000	4	1	0	4	0
17	833	10	10000	4	1	0	4	0
17	834	10	10000	4	1	0	4	0
17	835	10	10000	4	1	0	4	0
16	836	10	10000	4	1	0	4	0
15	837	10	10000	4	1	0	4	0
15	838	10	10000	4	1	0	4	0
15	839	10	10000	4	1	0	4	0
16	840	10	10000	4	1	0	4	0
16	841	10	10000	4	1	0	4	0
16	842	10	10000	4	1	0	4	0
16	843	10	10000	4	1	0	4	0
16	844	10	10000	4	1	0	4	0
15	845	10	10000	4	1	0	4	0
15	846	10	10000	4	1	0	4	0
16	847	10	10000	4	1	0	4	0
17	848	10	10000	4	1	0	4	0
17	849	10	10000	4	1	0	4	0
15	850	10	10000	4	1	0	4	0
15	851	10	10000	4	1	0	4	0
15	852	10	10000	4	1	0	4	0
15	853	10	10000	4	1	0	4	0
15	854	10	10000	4	1	0	4	0
15	855	10	10000	4	1	0	4	0
15	856	10	10000	4	1	0	4	0
15	857	10	10000	4	1	0	4	0
14	858	10	10000	4	1	0	4	0
14	859	10	10000	4	1	0	4	0
16	860	10	10000	4	1	0	4	0
17	861	10	10000	4	1	0	4	0
17	862	10	10000	4	1	0	4	0
17	863	10	10000	4	1	0	4	0
16	864	10	10000	4	1	0	4	0
15	865	10	10000	4	1	0	4	0
17	866	10	10000	4	1	0	4	0
17	867	10	10000	4	1	0	4	0
17	868	10	10000	4	1	0	4	0
17	869	10	10000	4	1	0	4	0
15	870	10	10000	4	1	0	4	0
17	871	10	10000	4	1	0	4	0
16	872	10	10000	4	1	0	4	0
17	873	10	10000	4	1	0	4	0
16	874	10	10000	4	1	0	4	0
16	875	10	10000	4	1	0	4	0
15	876	10	10000	4	1	0	4	0
15	877	10	10000	4	1	0	4	0
14	878	10	10000	4	1	0	4	0
14	879	10	10000	4	1	0	4	0
16	880	10	10000	4	1	0	4	0
16	881	10	10000	4	1	0	4	0
16	882	10	10000	4	1	0	4	0
17	883	10	10000	4	1	0	4	0
18	884	10	10000	4	1	0	4	0
22	885	10	10000	4	1	0	4	0
27	886	10	10000	4	1	0	4	0
31	887	10	10000	4	1	0	4	0
34	888	10	10000	4	1	0	4	0
36	889	10	10000	4	1	0	4	0
34	890	10	10000	4	1	0	4	0
34	891	10	10000	4	1	0	4	0
34	892	10	10000	4	1	0	4	0
34	893	10	10000	4	1	0	4	0
34	894	10	10000	4	1	0	4	0
34	895	10	10000	4	1	0	4	0
33	896	10	10000	4	1	0	4	0
32	897	10	10000	4	1	0	4	0
31	898	10	10000	4	1	0	4	0
32	899	10	10000	4	1	0	4	0
36	900	10	10000	4	1	0	4	0
36	901	10	10000	4	1	0	4	0
38	902	10	10000	4	1	0	4	0
42	903	10	10000	4	1	0	4	0
47	904	10	10000	4	1	0	4	0
52	905	10	10000	4	1	0	4	0
57	906	10	10000	4	1	0	4	0
63	907	10	10000	4	1	0	4	0
68	908	10	10000	4	1	0	4	0
69	909	10	10000	4	1	0	4	0
71	910	10	10000	4	1	0	4	0
76	911	10	10000	4	1	0	4	0
81	912	10	10000	4	1	0	4	0
86	913	10	10000	4	1	0	4	0
92	914	10	10000	4	1	0	4	0
98	915	10	10000	4	1	0	4	0
102	916	10	10000	4	1	0	4	0
107	917	10	10000	4	1	0	4	0
112	918	10	10000	4	1	0	4	0
117	919	10	10000	4	1	0	4	0
125	920	10	10000	4	1	0	4	0
129	921	10	10000	4	1	0	4	0
133	922	10	10000	4	1	0	4	0
134	923	10	10000	4	1	0	4	0
136	924	10	10000	4	1	0	4	0
139	925	10	10000	4	1	0	4	0
141	926	10	10000	4	1	0	4	0
142	927	10	10000	4	1	0	4	0
143	928	10	10000	4	1	0	4	0
142	929	10	10000	4	1	0	4	0
140	930	10	10000	4	1	0	4	0
140	931	10	10000	4	1	0	4	0
140	932	10	10000	4	1	0	4	0
140	933	10	10000	4	1	0	4	0
142	934	10	10000	4	1	0	4	0
142	935	10	10000	4	1	0	4	0
141	936	10	10000	4	1	0	4	0
140	937	10	10000	4	1	0	4	0
136	938	10	10000	4	1	0	4	0
135	939	10	10000	4	1	0	4	0
133	940	10	10000	4	1	0	4	0
131	941	10	10000	4	1	0	4	0
129	942	10	10000	4	1	0	4	0
126	943	10	10000	4	1	0	4	0
122	944	10	10000	4	1	0	4	0
118	945	10	10000	4	1	0	4	0
114	946	10	10000	4	1	0	4	0
108	947	10	10000	4	1	0	4	0
104	948	10	10000	4	1	0	4	0
99	949	10	10000	4	1	0	4	0
94	950	10	10000	4	1	0	4	0
92	951	10	10000	4	1	0	4	0
88	952	10	10000	4	1	0	4	0
86	953	10	10000	4	1	0	4	0
83	954	10	10000	4	1	0	4	0
81	955	10	10000	4	1	0	4	0
82	956	10	10000	4	1	0	4	0
84	957	10	10000	4	1	0	4	0
85	958	10	10000	4	1	0	4	0
86	959	10	10000	4	1	0	4	0
88	960	10	10000	4	1	0	4	0
89	961	10	10000	4	1	0	4	0
91	962	10	10000	4	1	0	4	0
92	963	10	10000	4	1	0	4	0
94	964	10	10000	4	1	0	4	0
97	965	10	10000	4	1	0	4	0
100	966	10	10000	4	1	0	4	0
103	967	10	10000	4	1	0	4	0
107	968	10	10000	4	1	0	4	0
110	969	10	10000	4	1	0	4	0
112	970	10	10000	4	1	0	4	0
116	971	10	10000	4	1	0	4	0
120	972	10	10000	4	1	0	4	0
125	973	10	10000	4	1	0	4	0
129	974	10	10000	4	1	0	4	0
134	975	10	10000	4	1	0	4	0
140	976	10	10000	4	1	0	4	0
146	977	10	10000	4	1	0	4	0
152	978	10	10000	4	1	0	4	0
158	979	10	10000	4	1	0	4	0
167	980	10	10000	4	1	0	4	0
174	981	10	10000	4	1	0	4	0
180	982	10	10000	4	1	0	4	0
186	983	10	10000	4	1	0	4	0
191	984	10	10000	4	1	0	4	0
197	985	10	10000	4	1	0	4	0
200	986	10	10000	4	1	0	4	0
205	987	10	10000	4	1	0	4	0
210	988	10	10000	4	1	0	4	0
213	989	10	10000	4	1	0	4	0
213	990	10	10000	4	1	0	4	0
213	991	10	10000	4	1	0	4	0
213	992	10	10000	4	1	0	4	0
212	993	10	10000	4	1	0	4	0
212	994	10	10000	4	1	0	4	0
212	995	10	10000	4	1	0	4	0
211	996	10	10000	4	1	0	4	0
208	997	10	10000	4	1	0	4	0
205	998	10	10000	4	1	0	4	0
203	999	10	10000	4	1	0	4	0
203	1000	10	10000	4	1	0	4	0
201	1001	10	10000	4	1	0	4	0
14	1	0	10000	5	1	0	5	0
14	2	0	10000	5	1	0	5	0
14	3	0	10000	5	1	0	5	0
14	4	0	10000	5	1	0	5	0
13	5	0	10000	5	1	0	5	0
14	6	0	10000	5	1	0	5	0
14	7	0	10000	5	1	0	5	0
14	8	0	10000	5	1	0	5	0
14	9	0	10000	5	1	0	5	0
13	10	0	10000	5	1	0	5	0
13	11	0	10000	5	1	0	5	0
13	12	0	10000	5	1	0	5	0
13	13	0	10000	5	1	0	5	0
14	14	0	10000	5	1	0	5	0
13	15	0	10000	5	1	0	5	0
12	16	0	10000	5	1	0	5	0
12	17	0	10000	5	1	0	5	0
12	18	0	10000	5	1	0	5	0
12	19	0	10000	5	1	0	5	0
13	20	0	10000	5	1	0	5	0
11	21	0	10000	5	1	0	5	0
12	22	0	10000	5	1	0	5	0
12	23	0	10000	5	1	0	5	0
12	24	0	10000	5	1	0	5	0
11	25	0	10000	5	1	0	5	0
12	26	0	10000	5	1	0	5	0
13	27	0	10000	5	1	0	5	0
12	28	0	10000	5	1	0	5	0
12	29	0	10000	5	1	0	5	0
12	30	0	10000	5	1	0	5	0
12	31	0	10000	5	1	0	5	0
12	32	0	10000	5	1	0	5	0
13	33	0	10000	5	1	0	5	0
13	34	0	10000	5	1	0	5	0
13	35	0	10000	5	1	0	5	0
12	36	0	10000	5	1	0	5	0
12	37	0	10000	5	1	0	5	0
11	38	0	10000	5	1	0	5	0
11	39	0	10000	5	1	0	5	0
11	40	0	10000	5	1	0	5	0
11	41	0	10000	5	1	0	5	0
11	42	0	10000	5	1	0	5	0
12	43	0	10000	5	1	0	5	0
12	44	0	10000	5	1	0	5	0
13	45	0	10000	5	1	0	5	0
15	46	0	10000	5	1	0	5	0
15	47	0	10000	5	1	0	5	0
15	48	0	10000	5	1	0	5	0
14	49	0	10000	5	1	0	5	0
14	50	0	10000	5	1	0	5	0
14	51	0	10000	5	1	0	5	0
14	52	0	10000	5	1	0	5	0
15	53	0	10000	5	1	0	5	0
16	54	0	10000	5	1	0	5	0
16	55	0	10000	5	1	0	5	0
15	56	0	10000	5	1	0	5	0
13	57	0	10000	5	1	0	5	0
13	58	0	10000	5	1	0	5	0
13	59	0	10000	5	1	0	5	0
14	60	0	10000	5	1	0	5	0
13	61	0	10000	5	1	0	5	0
13	62	0	10000	5	1	0	5	0
12	63	0	10000	5	1	0	5	0
12	64	0	10000	5	1	0	5	0
11	65	0	10000	5	1	0	5	0
12	66	0	10000	5	1	0	5	0
12	67	0	10000	5	1	0	5	0
13	68	0	10000	5	1	0	5	0
14	69	0	10000	5	1	0	5	0
14	70	0	10000	5	1	0	5	0
16	71	0	10000	5	1	0	5	0
16	72	0	10000	5	1	0	5	0
19	73	0	10000	5	1	0	5	0
20	74	0	10000	5	1	0	5	0
20	75	0	10000	5	1	0	5	0
19	76	0	10000	5	1	0	5	0
19	77	0	10000	5	1	0	5	0
21	78	0	10000	5	1	0	5	0
23	79	0	10000	5	1	0	5	0
26	80	0	10000	5	1	0	5	0
27	81	0	10000	5	1	0	5	0
28	82	0	10000	5	1	0	5	0
28	83	0	10000	5	1	0	5	0
28	84	0	10000	5	1	0	5	0
28	85	0	10000	5	1	0	5	0
28	86	0	10000	5	1	0	5	0
30	87	0	10000	5	1	0	5	0
30	88	0	10000	5	1	0	5	0
27	89	0	10000	5	1	0	5	0
27	90	0	10000	5	1	0	5	0
28	91	0	10000	5	1	0	5	0
27	92	0	10000	5	1	0	5	0
26	93	0	10000	5	1	0	5	0
25	94	0	10000	5	1	0	5	0
25	95	0	10000	5	1	0	5	0
25	96	0	10000	5	1	0	5	0
23	97	0	10000	5	1	0	5	0
23	98	0	10000	5	1	0	5	0
23	99	0	10000	5	1	0	5	0
23	100	0	10000	5	1	0	5	0
22	101	0	10000	5	1	0	5	0
22	102	0	10000	5	1	0	5	0
22	103	0	10000	5	1	0	5	0
21	104	0	10000	5	1	0	5	0
23	105	0	10000	5	1	0	5	0
24	106	0	10000	5	1	0	5	0
25	107	0	10000	5	1	0	5	0
25	108	0	10000	5	1	0	5	0
23	109	0	10000	5	1	0	5	0
22	110	0	10000	5	1	0	5	0
22	111	0	10000	5	1	0	5	0
20	112	0	10000	5	1	0	5	0
20	113	0	10000	5	1	0	5	0
20	114	0	10000	5	1	0	5	0
20	115	0	10000	5	1	0	5	0
19	116	0	10000	5	1	0	5	0
18	117	0	10000	5	1	0	5	0
18	118	0	10000	5	1	0	5	0
17	119	0	10000	5	1	0	5	0
17	120	0	10000	5	1	0	5	0
16	121	0	10000	5	1	0	5	0
17	122	0	10000	5	1	0	5	0
15	123	0	10000	5	1	0	5	0
15	124	0	10000	5	1	0	5	0
15	125	0	10000	5	1	0	5	0
15	126	0	10000	5	1	0	5	0
16	127	0	10000	5	1	0	5	0
15	128	0	10000	5	1	0	5	0
15	129	0	10000	5	1	0	5	0
14	130	0	10000	5	1	0	5	0
15	131	0	10000	5	1	0	5	0
15	132	0	10000	5	1	0	5	0
16	133	0	10000	5	1	0	5	0
16	134	0	10000	5	1	0	5	0
16	135	0	10000	5	1	0	5	0
15	136	0	10000	5	1	0	5	0
13	137	0	10000	5	1	0	5	0
14	138	0	10000	5	1	0	5	0
15	139	0	10000	5	1	0	5	0
14	140	0	10000	5	1	0	5	0
13	141	0	10000	5	1	0	5	0
14	142	0	10000	5	1	0	5	0
13	143	0	10000	5	1	0	5	0
12	144	0	10000	5	1	0	5	0
12	145	0	10000	5	1	0	5	0
11	146	0	10000	5	1	0	5	0
12	147	0	10000	5	1	0	5	0
12	148	0	10000	5	1	0	5	0
11	149	0	10000	5	1	0	5	0
11	150	0	10000	5	1	0	5	0
11	151	0	10000	5	1	0	5	0
12	152	0	10000	5	1	0	5	0
11	153	0	10000	5	1	0	5	0
12	154	0	10000	5	1	0	5	0
12	155	0	10000	5	1	0	5	0
12	156	0	10000	5	1	0	5	0
10	157	0	10000	5	1	0	5	0
10	158	0	10000	5	1	0	5	0
11	159	0	10000	5	1	0	5	0
11	160	0	10000	5	1	0	5	0
10	161	0	10000	5	1	0	5	0
11	162	0	10000	5	1	0	5	0
11	163	0	10000	5	1	0	5	0
11	164	0	10000	5	1	0	5	0
10	165	0	10000	5	1	0	5	0
11	166	0	10000	5	1	0	5	0
13	167	0	10000	5	1	0	5	0
12	168	0	10000	5	1	0	5	0
12	169	0	10000	5	1	0	5	0
11	170	0	10000	5	1	0	5	0
11	171	0	10000	5	1	0	5	0
11	172	0	10000	5	1	0	5	0
12	173	0	10000	5	1	0	5	0
12	174	0	10000	5	1	0	5	0
13	175	0	10000	5	1	0	5	0
14	176	0	10000	5	1	0	5	0
13	177	0	10000	5	1	0	5	0
14	178	0	10000	5	1	0	5	0
14	179	0	10000	5	1	0	5	0
14	180	0	10000	5	1	0	5	0
14	181	0	10000	5	1	0	5	0
13	182	0	10000	5	1	0	5	0
13	183	0	10000	5	1	0	5	0
13	184	0	10000	5	1	0	5	0
13	185	0	10000	5	1	0	5	0
14	186	0	10000	5	1	0	5	0
15	187	0	10000	5	1	0	5	0
15	188	0	10000	5	1	0	5	0
15	189	0	10000	5	1	0	5	0
15	190	0	10000	5	1	0	5	0
15	191	0	10000	5	1	0	5	0
14	192	0	10000	5	1	0	5	0
15	193	0	10000	5	1	0	5	0
14	194	0	10000	5	1	0	5	0
15	195	0	10000	5	1	0	5	0
15	196	0	10000	5	1	0	5	0
14	197	0	10000	5	1	0	5	0
14	198	0	10000	5	1	0	5	0
15	199	0	10000	5	1	0	5	0
14	200	0	10000	5	1	0	5	0
14	201	0	10000	5	1	0	5	0
14	202	0	10000	5	1	0	5	0
13	203	0	10000	5	1	0	5	0
13	204	0	10000	5	1	0	5	0
12	205	0	10000	5	1	0	5	0
13	206	0	10000	5	1	0	5	0
14	207	0	10000	5	1	0	5	0
14	208	0	10000	5	1	0	5	0
15	209	0	10000	5	1	0	5	0
15	210	0	10000	5	1	0	5	0
15	211	0	10000	5	1	0	5	0
15	212	0	10000	5	1	0	5	0
15	213	0	10000	5	1	0	5	0
15	214	0	10000	5	1	0	5	0
15	215	0	10000	5	1	0	5	0
14	216	0	10000	5	1	0	5	0
13	217	0	10000	5	1	0	5	0
13	218	0	10000	5	1	0	5	0
13	219	0	10000	5	1	0	5	0
13	220	0	10000	5	1	0	5	0
13	221	0	10000	5	1	0	5	0
13	222	0	10000	5	1	0	5	0
13	223	0	10000	5	1	0	5	0
13	224	0	10000	5	1	0	5	0
12	225	0	10000	5	1	0	5	0
12	226	0	10000	5	1	0	5	0
14	227	0	10000	5	1	0	5	0
12	228	0	10000	5	1	0	5	0
12	229	0	10000	5	1	0	5	0
12	230	0	10000	5	1	0	5	0
12	231	0	10000	5	1	0	5	0
12	232	0	10000	5	1	0	5	0
12	233	0	10000	5	1	0	5	0
12	234	0	10000	5	1	0	5	0
12	235	0	10000	5	1	0	5	0
11	236	0	10000	5	1	0	5	0
9	237	0	10000	5	1	0	5	0
9	238	0	10000	5	1	0	5	0
10	239	0	10000	5	1	0	5	0
10	240	0	10000	5	1	0	5	0
10	241	0	10000	5	1	0	5	0
10	242	0	10000	5	1	0	5	0
10	243	0	10000	5	1	0	5	0
10	244	0	10000	5	1	0	5	0
9	245	0	10000	5	1	0	5	0
10	246	0	10000	5	1	0	5	0
12	247	0	10000	5	1	0	5	0
11	248	0	10000	5	1	0	5	0
11	249	0	10000	5	1	0	5	0
12	250	0	10000	5	1	0	5	0
12	251	0	10000	5	1	0	5	0
12	252	0	10000	5	1	0	5	0
13	253	0	10000	5	1	0	5	0
13	254	0	10000	5	1	0	5	0
13	255	0	10000	5	1	0	5	0
13	256	0	10000	5	1	0	5	0
11	257	0	10000	5	1	0	5	0
11	258	0	10000	5	1	0	5	0
11	259	0	10000	5	1	0	5	0
11	260	0	10000	5	1	0	5	0
12	261	0	10000	5	1	0	5	0
12	262	0	10000	5	1	0	5	0
12	263	0	10000	5	1	0	5	0
11	264	0	10000	5	1	0	5	0
11	265	0	10000	5	1	0	5	0
12	266	0	10000	5	1	0	5	0
14	267	0	10000	5	1	0	5	0
13	268	0	10000	5	1	0	5	0
13	269	0	10000	5	1	0	5	0
13	270	0	10000	5	1	0	5	0
12	271	0	10000	5	1	0	5	0
13	272	0	10000	5	1	0	5	0
13	273	0	10000	5	1	0	5	0
13	274	0	10000	5	1	0	5	0
14	275	0	10000	5	1	0	5	0
12	276	0	10000	5	1	0	5	0
12	277	0	10000	5	1	0	5	0
13	278	0	10000	5	1	0	5	0
12	279	0	10000	5	1	0	5	0
12	280	0	10000	5	1	0	5	0
13	281	0	10000	5	1	0	5	0
13	282	0	10000	5	1	0	5	0
13	283	0	10000	5	1	0	5	0
12	284	0	10000	5	1	0	5	0
12	285	0	10000	5	1	0	5	0
13	286	0	10000	5	1	0	5	0
14	287	0	10000	5	1	0	5	0
13	288	0	10000	5	1	0	5	0
13	289	0	10000	5	1	0	5	0
12	290	0	10000	5	1	0	5	0
12	291	0	10000	5	1	0	5	0
12	292	0	10000	5	1	0	5	0
12	293	0	10000	5	1	0	5	0
13	294	0	10000	5	1	0	5	0
14	295	0	10000	5	1	0	5	0
11	296	0	10000	5	1	0	5	0
10	297	0	10000	5	1	0	5	0
11	298	0	10000	5	1	0	5	0
12	299	0	10000	5	1	0	5	0
13	300	0	10000	5	1	0	5	0
13	301	0	10000	5	1	0	5	0
13	302	0	10000	5	1	0	5	0
13	303	0	10000	5	1	0	5	0
12	304	0	10000	5	1	0	5	0
11	305	0	10000	5	1	0	5	0
12	306	0	10000	5	1	0	5	0
14	307	0	10000	5	1	0	5	0
14	308	0	10000	5	1	0	5	0
14	309	0	10000	5	1	0	5	0
13	310	0	10000	5	1	0	5	0
13	311	0	10000	5	1	0	5	0
15	312	0	10000	5	1	0	5	0
13	313	0	10000	5	1	0	5	0
14	314	0	10000	5	1	0	5	0
14	315	0	10000	5	1	0	5	0
14	316	0	10000	5	1	0	5	0
13	317	0	10000	5	1	0	5	0
13	318	0	10000	5	1	0	5	0
14	319	0	10000	5	1	0	5	0
15	320	0	10000	5	1	0	5	0
15	321	0	10000	5	1	0	5	0
15	322	0	10000	5	1	0	5	0
16	323	0	10000	5	1	0	5	0
16	324	0	10000	5	1	0	5	0
16	325	0	10000	5	1	0	5	0
17	326	0	10000	5	1	0	5	0
18	327	0	10000	5	1	0	5	0
18	328	0	10000	5	1	0	5	0
18	329	0	10000	5	1	0	5	0
16	330	0	10000	5	1	0	5	0
16	331	0	10000	5	1	0	5	0
16	332	0	10000	5	1	0	5	0
15	333	0	10000	5	1	0	5	0
17	334	0	10000	5	1	0	5	0
17	335	0	10000	5	1	0	5	0
15	336	0	10000	5	1	0	5	0
13	337	0	10000	5	1	0	5	0
14	338	0	10000	5	1	0	5	0
14	339	0	10000	5	1	0	5	0
14	340	0	10000	5	1	0	5	0
14	341	0	10000	5	1	0	5	0
14	342	0	10000	5	1	0	5	0
14	343	0	10000	5	1	0	5	0
13	344	0	10000	5	1	0	5	0
12	345	0	10000	5	1	0	5	0
14	346	0	10000	5	1	0	5	0
15	347	0	10000	5	1	0	5	0
14	348	0	10000	5	1	0	5	0
16	349	0	10000	5	1	0	5	0
14	350	0	10000	5	1	0	5	0
14	351	0	10000	5	1	0	5	0
14	352	0	10000	5	1	0	5	0
14	353	0	10000	5	1	0	5	0
14	354	0	10000	5	1	0	5	0
14	355	0	10000	5	1	0	5	0
14	356	0	10000	5	1	0	5	0
12	357	0	10000	5	1	0	5	0
13	358	0	10000	5	1	0	5	0
12	359	0	10000	5	1	0	5	0
13	360	0	10000	5	1	0	5	0
13	361	0	10000	5	1	0	5	0
14	362	0	10000	5	1	0	5	0
17	363	0	10000	5	1	0	5	0
20	364	0	10000	5	1	0	5	0
23	365	0	10000	5	1	0	5	0
27	366	0	10000	5	1	0	5	0
28	367	0	10000	5	1	0	5	0
28	368	0	10000	5	1	0	5	0
29	369	0	10000	5	1	0	5	0
31	370	0	10000	5	1	0	5	0
32	371	0	10000	5	1	0	5	0
33	372	0	10000	5	1	0	5	0
32	373	0	10000	5	1	0	5	0
33	374	0	10000	5	1	0	5	0
33	375	0	10000	5	1	0	5	0
31	376	0	10000	5	1	0	5	0
29	377	0	10000	5	1	0	5	0
30	378	0	10000	5	1	0	5	0
30	379	0	10000	5	1	0	5	0
31	380	0	10000	5	1	0	5	0
29	381	0	10000	5	1	0	5	0
28	382	0	10000	5	1	0	5	0
28	383	0	10000	5	1	0	5	0
27	384	0	10000	5	1	0	5	0
28	385	0	10000	5	1	0	5	0
29	386	0	10000	5	1	0	5	0
30	387	0	10000	5	1	0	5	0
28	388	0	10000	5	1	0	5	0
27	389	0	10000	5	1	0	5	0
26	390	0	10000	5	1	0	5	0
25	391	0	10000	5	1	0	5	0
24	392	0	10000	5	1	0	5	0
24	393	0	10000	5	1	0	5	0
24	394	0	10000	5	1	0	5	0
24	395	0	10000	5	1	0	5	0
24	396	0	10000	5	1	0	5	0
23	397	0	10000	5	1	0	5	0
23	398	0	10000	5	1	0	5	0
24	399	0	10000	5	1	0	5	0
25	400	0	10000	5	1	0	5	0
24	401	0	10000	5	1	0	5	0
24	402	0	10000	5	1	0	5	0
23	403	0	10000	5	1	0	5	0
23	404	0	10000	5	1	0	5	0
24	405	0	10000	5	1	0	5	0
28	406	0	10000	5	1	0	5	0
36	407	0	10000	5	1	0	5	0
44	408	0	10000	5	1	0	5	0
55	409	0	10000	5	1	0	5	0
61	410	0	10000	5	1	0	5	0
62	411	0	10000	5	1	0	5	0
61	412	0	10000	5	1	0	5	0
64	413	0	10000	5	1	0	5	0
65	414	0	10000	5	1	0	5	0
63	415	0	10000	5	1	0	5	0
60	416	0	10000	5	1	0	5	0
60	417	0	10000	5	1	0	5	0
59	418	0	10000	5	1	0	5	0
67	419	0	10000	5	1	0	5	0
75	420	0	10000	5	1	0	5	0
74	421	0	10000	5	1	0	5	0
82	422	0	10000	5	1	0	5	0
91	423	0	10000	5	1	0	5	0
91	424	0	10000	5	1	0	5	0
88	425	0	10000	5	1	0	5	0
89	426	0	10000	5	1	0	5	0
94	427	0	10000	5	1	0	5	0
91	428	0	10000	5	1	0	5	0
89	429	0	10000	5	1	0	5	0
91	430	0	10000	5	1	0	5	0
91	431	0	10000	5	1	0	5	0
89	432	0	10000	5	1	0	5	0
85	433	0	10000	5	1	0	5	0
83	434	0	10000	5	1	0	5	0
79	435	0	10000	5	1	0	5	0
80	436	0	10000	5	1	0	5	0
88	437	0	10000	5	1	0	5	0
88	438	0	10000	5	1	0	5	0
92	439	0	10000	5	1	0	5	0
97	440	0	10000	5	1	0	5	0
98	441	0	10000	5	1	0	5	0
97	442	0	10000	5	1	0	5	0
94	443	0	10000	5	1	0	5	0
91	444	0	10000	5	1	0	5	0
87	445	0	10000	5	1	0	5	0
86	446	0	10000	5	1	0	5	0
84	447	0	10000	5	1	0	5	0
84	448	0	10000	5	1	0	5	0
94	449	0	10000	5	1	0	5	0
99	450	0	10000	5	1	0	5	0
99	451	0	10000	5	1	0	5	0
100	452	0	10000	5	1	0	5	0
104	453	0	10000	5	1	0	5	0
109	454	0	10000	5	1	0	5	0
111	455	0	10000	5	1	0	5	0
107	456	0	10000	5	1	0	5	0
104	457	0	10000	5	1	0	5	0
100	458	0	10000	5	1	0	5	0
98	459	0	10000	5	1	0	5	0
100	460	0	10000	5	1	0	5	0
100	461	0	10000	5	1	0	5	0
100	462	0	10000	5	1	0	5	0
97	463	0	10000	5	1	0	5	0
96	464	0	10000	5	1	0	5	0
99	465	0	10000	5	1	0	5	0
104	466	0	10000	5	1	0	5	0
104	467	0	10000	5	1	0	5	0
104	468	0	10000	5	1	0	5	0
101	469	0	10000	5	1	0	5	0
98	470	0	10000	5	1	0	5	0
95	471	0	10000	5	1	0	5	0
92	472	0	10000	5	1	0	5	0
91	473	0	10000	5	1	0	5	0
91	474	0	10000	5	1	0	5	0
89	475	0	10000	5	1	0	5	0
91	476	0	10000	5	1	0	5	0
95	477	0	10000	5	1	0	5	0
97	478	0	10000	5	1	0	5	0
94	479	0	10000	5	1	0	5	0
93	480	0	10000	5	1	0	5	0
91	481	0	10000	5	1	0	5	0
92	482	0	10000	5	1	0	5	0
92	483	0	10000	5	1	0	5	0
91	484	0	10000	5	1	0	5	0
87	485	0	10000	5	1	0	5	0
88	486	0	10000	5	1	0	5	0
97	487	0	10000	5	1	0	5	0
104	488	0	10000	5	1	0	5	0
103	489	0	10000	5	1	0	5	0
98	490	0	10000	5	1	0	5	0
96	491	0	10000	5	1	0	5	0
98	492	0	10000	5	1	0	5	0
99	493	0	10000	5	1	0	5	0
98	494	0	10000	5	1	0	5	0
97	495	0	10000	5	1	0	5	0
97	496	0	10000	5	1	0	5	0
102	497	0	10000	5	1	0	5	0
106	498	0	10000	5	1	0	5	0
108	499	0	10000	5	1	0	5	0
109	500	0	10000	5	1	0	5	0
106	501	0	10000	5	1	0	5	1
104	502	0	10000	5	1	0	5	1
99	503	0	10000	5	1	0	5	1
95	504	0	10000	5	1	0	5	1
91	505	0	10000	5	1	0	5	1
86	506	0	10000	5	1	0	5	1
85	507	0	10000	5	1	0	5	1
81	508	0	10000	5	1	0	5	1
79	509	0	10000	5	1	0	5	1
77	510	0	10000	5	1	0	5	1
75	511	0	10000	5	1	0	5	1
74	512	0	10000	5	1	0	5	1
74	513	0	10000	5	1	0	5	1
72	514	0	10000	5	1	0	5	1
71	515	0	10000	5	1	0	5	1
73	516	0	10000	5	1	0	5	1
77	517	0	10000	5	1	0	5	1
82	518	0	10000	5	1	0	5	1
84	519	0	10000	5	1	0	5	1
82	520	0	10000	5	1	0	5	1
79	521	0	10000	5	1	0	5	1
77	522	0	10000	5	1	0	5	1
73	523	0	10000	5	1	0	5	1
70	524	0	10000	5	1	0	5	1
70	525	0	10000	5	1	0	5	1
71	526	0	10000	5	1	0	5	1
75	527	0	10000	5	1	0	5	1
78	528	0	10000	5	1	0	5	1
80	529	0	10000	5	1	0	5	1
81	530	0	10000	5	1	0	5	1
82	531	0	10000	5	1	0	5	1
80	532	0	10000	5	1	0	5	1
79	533	0	10000	5	1	0	5	1
81	534	0	10000	5	1	0	5	1
85	535	0	10000	5	1	0	5	1
83	536	0	10000	5	1	0	5	1
79	537	0	10000	5	1	0	5	1
80	538	0	10000	5	1	0	5	1
83	539	0	10000	5	1	0	5	1
90	540	0	10000	5	1	0	5	1
98	541	0	10000	5	1	0	5	1
104	542	0	10000	5	1	0	5	1
104	543	0	10000	5	1	0	5	1
103	544	0	10000	5	1	0	5	1
102	545	0	10000	5	1	0	5	1
102	546	0	10000	5	1	0	5	1
104	547	0	10000	5	1	0	5	1
104	548	0	10000	5	1	0	5	1
104	549	0	10000	5	1	0	5	1
103	550	0	10000	5	1	0	5	1
103	551	0	10000	5	1	0	5	0
103	552	0	10000	5	1	0	5	0
105	553	0	10000	5	1	0	5	0
107	554	0	10000	5	1	0	5	0
104	555	0	10000	5	1	0	5	0
103	556	0	10000	5	1	0	5	0
101	557	0	10000	5	1	0	5	0
103	558	0	10000	5	1	0	5	0
102	559	0	10000	5	1	0	5	0
102	560	0	10000	5	1	0	5	0
107	561	0	10000	5	1	0	5	0
114	562	0	10000	5	1	0	5	0
118	563	0	10000	5	1	0	5	0
117	564	0	10000	5	1	0	5	0
113	565	0	10000	5	1	0	5	0
108	566	0	10000	5	1	0	5	0
105	567	0	10000	5	1	0	5	0
101	568	0	10000	5	1	0	5	0
97	569	0	10000	5	1	0	5	0
92	570	0	10000	5	1	0	5	0
90	571	0	10000	5	1	0	5	0
87	572	0	10000	5	1	0	5	0
85	573	0	10000	5	1	0	5	0
81	574	0	10000	5	1	0	5	0
78	575	0	10000	5	1	0	5	0
77	576	0	10000	5	1	0	5	0
74	577	0	10000	5	1	0	5	0
73	578	0	10000	5	1	0	5	0
72	579	0	10000	5	1	0	5	0
69	580	0	10000	5	1	0	5	0
66	581	0	10000	5	1	0	5	0
66	582	0	10000	5	1	0	5	0
66	583	0	10000	5	1	0	5	0
65	584	0	10000	5	1	0	5	0
64	585	0	10000	5	1	0	5	0
64	586	0	10000	5	1	0	5	0
64	587	0	10000	5	1	0	5	0
62	588	0	10000	5	1	0	5	0
60	589	0	10000	5	1	0	5	0
63	590	0	10000	5	1	0	5	0
67	591	0	10000	5	1	0	5	0
67	592	0	10000	5	1	0	5	0
66	593	0	10000	5	1	0	5	0
66	594	0	10000	5	1	0	5	0
67	595	0	10000	5	1	0	5	0
64	596	0	10000	5	1	0	5	0
61	597	0	10000	5	1	0	5	0
58	598	0	10000	5	1	0	5	0
56	599	0	10000	5	1	0	5	0
57	600	0	10000	5	1	0	5	0
60	601	0	10000	5	1	0	5	0
63	602	0	10000	5	1	0	5	0
69	603	0	10000	5	1	0	5	0
68	604	0	10000	5	1	0	5	0
67	605	0	10000	5	1	0	5	0
68	606	0	10000	5	1	0	5	0
68	607	0	10000	5	1	0	5	0
71	608	0	10000	5	1	0	5	0
73	609	0	10000	5	1	0	5	0
71	610	0	10000	5	1	0	5	0
69	611	0	10000	5	1	0	5	0
66	612	0	10000	5	1	0	5	0
66	613	0	10000	5	1	0	5	0
68	614	0	10000	5	1	0	5	0
73	615	0	10000	5	1	0	5	0
78	616	0	10000	5	1	0	5	0
84	617	0	10000	5	1	0	5	0
91	618	0	10000	5	1	0	5	0
91	619	0	10000	5	1	0	5	0
91	620	0	10000	5	1	0	5	0
88	621	0	10000	5	1	0	5	0
85	622	0	10000	5	1	0	5	0
83	623	0	10000	5	1	0	5	0
83	624	0	10000	5	1	0	5	0
80	625	0	10000	5	1	0	5	0
80	626	0	10000	5	1	0	5	0
83	627	0	10000	5	1	0	5	0
82	628	0	10000	5	1	0	5	0
83	629	0	10000	5	1	0	5	0
84	630	0	10000	5	1	0	5	0
85	631	0	10000	5	1	0	5	0
86	632	0	10000	5	1	0	5	0
86	633	0	10000	5	1	0	5	0
86	634	0	10000	5	1	0	5	0
85	635	0	10000	5	1	0	5	0
84	636	0	10000	5	1	0	5	0
81	637	0	10000	5	1	0	5	0
78	638	0	10000	5	1	0	5	0
75	639	0	10000	5	1	0	5	0
72	640	0	10000	5	1	0	5	0
70	641	0	10000	5	1	0	5	0
67	642	0	10000	5	1	0	5	0
65	643	0	10000	5	1	0	5	0
64	644	0	10000	5	1	0	5	0
60	645	0	10000	5	1	0	5	0
59	646	0	10000	5	1	0	5	0
58	647	0	10000	5	1	0	5	0
55	648	0	10000	5	1	0	5	0
53	649	0	10000	5	1	0	5	0
53	650	0	10000	5	1	0	5	0
53	651	0	10000	5	1	0	5	0
56	652	0	10000	5	1	0	5	0
58	653	0	10000	5	1	0	5	0
56	654	0	10000	5	1	0	5	0
57	655	0	10000	5	1	0	5	0
56	656	0	10000	5	1	0	5	0
55	657	0	10000	5	1	0	5	0
58	658	0	10000	5	1	0	5	0
60	659	0	10000	5	1	0	5	0
59	660	0	10000	5	1	0	5	0
60	661	0	10000	5	1	0	5	0
60	662	0	10000	5	1	0	5	0
61	663	0	10000	5	1	0	5	0
61	664	0	10000	5	1	0	5	0
59	665	0	10000	5	1	0	5	0
57	666	0	10000	5	1	0	5	0
56	667	0	10000	5	1	0	5	0
55	668	0	10000	5	1	0	5	0
54	669	0	10000	5	1	0	5	0
51	670	0	10000	5	1	0	5	0
50	671	0	10000	5	1	0	5	0
48	672	0	10000	5	1	0	5	0
49	673	0	10000	5	1	0	5	0
51	674	0	10000	5	1	0	5	0
53	675	0	10000	5	1	0	5	0
54	676	0	10000	5	1	0	5	0
54	677	0	10000	5	1	0	5	0
58	678	0	10000	5	1	0	5	0
60	679	0	10000	5	1	0	5	0
59	680	0	10000	5	1	0	5	0
61	681	0	10000	5	1	0	5	0
62	682	0	10000	5	1	0	5	0
60	683	0	10000	5	1	0	5	0
61	684	0	10000	5	1	0	5	0
63	685	0	10000	5	1	0	5	0
64	686	0	10000	5	1	0	5	0
63	687	0	10000	5	1	0	5	0
60	688	0	10000	5	1	0	5	0
57	689	0	10000	5	1	0	5	0
55	690	0	10000	5	1	0	5	0
53	691	0	10000	5	1	0	5	0
51	692	0	10000	5	1	0	5	0
49	693	0	10000	5	1	0	5	0
48	694	0	10000	5	1	0	5	0
48	695	0	10000	5	1	0	5	0
47	696	0	10000	5	1	0	5	0
46	697	0	10000	5	1	0	5	0
48	698	0	10000	5	1	0	5	0
50	699	0	10000	5	1	0	5	0
52	700	0	10000	5	1	0	5	0
53	701	0	10000	5	1	0	5	0
51	702	0	10000	5	1	0	5	0
51	703	0	10000	5	1	0	5	0
50	704	0	10000	5	1	0	5	0
48	705	0	10000	5	1	0	5	0
46	706	0	10000	5	1	0	5	0
49	707	0	10000	5	1	0	5	0
51	708	0	10000	5	1	0	5	0
51	709	0	10000	5	1	0	5	0
51	710	0	10000	5	1	0	5	0
