value	EMG	Stimulus	EMG_sensitivity	Total_Trial_Nr	practise	acq	probe_nr	Startle_Probe
56	2	10	10000	1	1	0	1	0
56	3	10	10000	1	1	0	1	0
57	4	10	10000	1	1	0	1	0
55	5	10	10000	1	1	0	1	0
57	6	10	10000	1	1	0	1	0
56	7	10	10000	1	1	0	1	0
54	8	10	10000	1	1	0	1	0
55	9	10	10000	1	1	0	1	0
56	10	10	10000	1	1	0	1	0
58	11	10	10000	1	1	0	1	0
61	12	10	10000	1	1	0	1	0
64	13	10	10000	1	1	0	1	0
68	14	10	10000	1	1	0	1	0
68	15	10	10000	1	1	0	1	0
70	16	10	10000	1	1	0	1	0
68	17	10	10000	1	1	0	1	0
69	18	10	10000	1	1	0	1	0
71	19	10	10000	1	1	0	1	0
68	20	10	10000	1	1	0	1	0
65	21	10	10000	1	1	0	1	0
63	21	10	10000	1	1	0	1	0
65	22	10	10000	1	1	0	1	0
62	24	10	10000	1	1	0	1	0
61	25	10	10000	1	1	0	1	0
61	26	10	10000	1	1	0	1	0
59	27	10	10000	1	1	0	1	0
58	28	10	10000	1	1	0	1	0
59	29	10	10000	1	1	0	1	0
57	30	10	10000	1	1	0	1	0
59	31	10	10000	1	1	0	1	0
61	31	10	10000	1	1	0	1	0
58	32	10	10000	1	1	0	1	0
56	34	10	10000	1	1	0	1	0
56	35	10	10000	1	1	0	1	0
56	36	10	10000	1	1	0	1	0
55	37	10	10000	1	1	0	1	0
55	38	10	10000	1	1	0	1	0
56	39	10	10000	1	1	0	1	0
56	40	10	10000	1	1	0	1	0
54	41	10	10000	1	1	0	1	0
54	41	10	10000	1	1	0	1	0
58	42	10	10000	1	1	0	1	0
62	44	10	10000	1	1	0	1	0
60	45	10	10000	1	1	0	1	0
57	46	10	10000	1	1	0	1	0
56	47	10	10000	1	1	0	1	0
54	48	10	10000	1	1	0	1	0
56	49	10	10000	1	1	0	1	0
57	50	10	10000	1	1	0	1	0
55	51	10	10000	1	1	0	1	0
54	51	10	10000	1	1	0	1	0
51	52	10	10000	1	1	0	1	0
53	54	10	10000	1	1	0	1	0
55	55	10	10000	1	1	0	1	0
56	56	10	10000	1	1	0	1	0
55	57	10	10000	1	1	0	1	0
56	58	10	10000	1	1	0	1	0
62	59	10	10000	1	1	0	1	0
62	60	10	10000	1	1	0	1	0
62	61	10	10000	1	1	0	1	0
64	61	10	10000	1	1	0	1	0
68	62	10	10000	1	1	0	1	0
69	64	10	10000	1	1	0	1	0
67	65	10	10000	1	1	0	1	0
68	66	10	10000	1	1	0	1	0
68	67	10	10000	1	1	0	1	0
67	68	10	10000	1	1	0	1	0
64	69	10	10000	1	1	0	1	0
65	70	10	10000	1	1	0	1	0
65	71	10	10000	1	1	0	1	0
63	71	10	10000	1	1	0	1	0
60	72	10	10000	1	1	0	1	0
58	74	10	10000	1	1	0	1	0
57	75	10	10000	1	1	0	1	0
55	76	10	10000	1	1	0	1	0
55	77	10	10000	1	1	0	1	0
54	78	10	10000	1	1	0	1	0
56	79	10	10000	1	1	0	1	0
55	80	10	10000	1	1	0	1	0
53	81	10	10000	1	1	0	1	0
53	81	10	10000	1	1	0	1	0
58	82	10	10000	1	1	0	1	0
60	84	10	10000	1	1	0	1	0
56	85	10	10000	1	1	0	1	0
55	86	10	10000	1	1	0	1	0
55	87	10	10000	1	1	0	1	0
56	88	10	10000	1	1	0	1	0
55	89	10	10000	1	1	0	1	0
56	90	10	10000	1	1	0	1	0
58	91	10	10000	1	1	0	1	0
57	91	10	10000	1	1	0	1	0
55	92	10	10000	1	1	0	1	0
53	94	10	10000	1	1	0	1	0
52	95	10	10000	1	1	0	1	0
51	96	10	10000	1	1	0	1	0
48	97	10	10000	1	1	0	1	0
50	98	10	10000	1	1	0	1	0
51	99	10	10000	1	1	0	1	0
49	100	10	10000	1	1	0	1	0
50	101	10	10000	1	1	0	1	0
49	101	10	10000	1	1	0	1	0
49	102	10	10000	1	1	0	1	0
50	104	10	10000	1	1	0	1	0
51	105	10	10000	1	1	0	1	0
61	106	10	10000	1	1	0	1	0
66	107	10	10000	1	1	0	1	0
63	108	10	10000	1	1	0	1	0
63	109	10	10000	1	1	0	1	0
62	110	10	10000	1	1	0	1	0
60	111	10	10000	1	1	0	1	0
57	111	10	10000	1	1	0	1	0
54	112	10	10000	1	1	0	1	0
53	114	10	10000	1	1	0	1	0
54	115	10	10000	1	1	0	1	0
54	116	10	10000	1	1	0	1	0
58	117	10	10000	1	1	0	1	0
66	118	10	10000	1	1	0	1	0
72	119	10	10000	1	1	0	1	0
69	120	10	10000	1	1	0	1	0
69	121	10	10000	1	1	0	1	0
73	121	10	10000	1	1	0	1	0
78	122	10	10000	1	1	0	1	0
75	124	10	10000	1	1	0	1	0
75	125	10	10000	1	1	0	1	0
72	126	10	10000	1	1	0	1	0
70	127	10	10000	1	1	0	1	0
68	128	10	10000	1	1	0	1	0
64	129	10	10000	1	1	0	1	0
65	130	10	10000	1	1	0	1	0
67	131	10	10000	1	1	0	1	0
66	131	10	10000	1	1	0	1	0
63	132	10	10000	1	1	0	1	0
64	134	10	10000	1	1	0	1	0
62	135	10	10000	1	1	0	1	0
60	136	10	10000	1	1	0	1	0
58	137	10	10000	1	1	0	1	0
56	138	10	10000	1	1	0	1	0
55	139	10	10000	1	1	0	1	0
55	140	10	10000	1	1	0	1	0
56	141	10	10000	1	1	0	1	0
56	141	10	10000	1	1	0	1	0
57	142	10	10000	1	1	0	1	0
56	144	10	10000	1	1	0	1	0
58	145	10	10000	1	1	0	1	0
56	146	10	10000	1	1	0	1	0
58	147	10	10000	1	1	0	1	0
64	148	10	10000	1	1	0	1	0
65	149	10	10000	1	1	0	1	0
66	150	10	10000	1	1	0	1	0
68	151	10	10000	1	1	0	1	0
68	151	10	10000	1	1	0	1	0
63	152	10	10000	1	1	0	1	0
61	154	10	10000	1	1	0	1	0
61	155	10	10000	1	1	0	1	0
59	156	10	10000	1	1	0	1	0
62	157	10	10000	1	1	0	1	0
63	158	10	10000	1	1	0	1	0
64	159	10	10000	1	1	0	1	0
66	160	10	10000	1	1	0	1	0
66	161	10	10000	1	1	0	1	0
63	161	10	10000	1	1	0	1	0
66	162	10	10000	1	1	0	1	0
63	164	10	10000	1	1	0	1	0
62	165	10	10000	1	1	0	1	0
60	166	10	10000	1	1	0	1	0
62	167	10	10000	1	1	0	1	0
64	168	10	10000	1	1	0	1	0
65	169	10	10000	1	1	0	1	0
64	170	10	10000	1	1	0	1	0
65	171	10	10000	1	1	0	1	0
66	171	10	10000	1	1	0	1	0
65	172	10	10000	1	1	0	1	0
65	174	10	10000	1	1	0	1	0
65	175	10	10000	1	1	0	1	0
66	176	10	10000	1	1	0	1	0
68	177	10	10000	1	1	0	1	0
68	178	10	10000	1	1	0	1	0
66	179	10	10000	1	1	0	1	0
64	180	10	10000	1	1	0	1	0
64	181	10	10000	1	1	0	1	0
61	181	10	10000	1	1	0	1	0
62	182	10	10000	1	1	0	1	0
65	184	10	10000	1	1	0	1	0
65	185	10	10000	1	1	0	1	0
68	186	10	10000	1	1	0	1	0
67	187	10	10000	1	1	0	1	0
70	188	10	10000	1	1	0	1	0
73	189	10	10000	1	1	0	1	0
71	190	10	10000	1	1	0	1	0
68	191	10	10000	1	1	0	1	0
68	191	10	10000	1	1	0	1	0
65	192	10	10000	1	1	0	1	0
72	194	10	10000	1	1	0	1	0
75	195	10	10000	1	1	0	1	0
74	196	10	10000	1	1	0	1	0
78	197	10	10000	1	1	0	1	0
81	198	10	10000	1	1	0	1	0
80	199	10	10000	1	1	0	1	0
77	200	10	10000	1	1	0	1	0
75	201	10	10000	1	1	0	1	0
73	201	10	10000	1	1	0	1	0
79	202	10	10000	1	1	0	1	0
77	204	10	10000	1	1	0	1	0
75	205	10	10000	1	1	0	1	0
74	206	10	10000	1	1	0	1	0
76	207	10	10000	1	1	0	1	0
77	208	10	10000	1	1	0	1	0
76	209	10	10000	1	1	0	1	0
79	210	10	10000	1	1	0	1	0
77	211	10	10000	1	1	0	1	0
76	211	10	10000	1	1	0	1	0
73	212	10	10000	1	1	0	1	0
71	214	10	10000	1	1	0	1	0
71	215	10	10000	1	1	0	1	0
71	216	10	10000	1	1	0	1	0
72	217	10	10000	1	1	0	1	0
73	218	10	10000	1	1	0	1	0
71	219	10	10000	1	1	0	1	0
70	220	10	10000	1	1	0	1	0
69	221	10	10000	1	1	0	1	0
69	221	10	10000	1	1	0	1	0
72	222	10	10000	1	1	0	1	0
68	224	10	10000	1	1	0	1	0
65	225	10	10000	1	1	0	1	0
64	226	10	10000	1	1	0	1	0
64	227	10	10000	1	1	0	1	0
63	228	10	10000	1	1	0	1	0
61	229	10	10000	1	1	0	1	0
60	230	10	10000	1	1	0	1	0
59	231	10	10000	1	1	0	1	0
58	231	10	10000	1	1	0	1	0
56	232	10	10000	1	1	0	1	0
55	234	10	10000	1	1	0	1	0
54	235	10	10000	1	1	0	1	0
52	236	10	10000	1	1	0	1	0
50	237	10	10000	1	1	0	1	0
50	238	10	10000	1	1	0	1	0
50	239	10	10000	1	1	0	1	0
53	240	10	10000	1	1	0	1	0
55	241	10	10000	1	1	0	1	0
56	241	10	10000	1	1	0	1	0
56	242	10	10000	1	1	0	1	0
54	244	10	10000	1	1	0	1	0
53	245	10	10000	1	1	0	1	0
53	246	10	10000	1	1	0	1	0
51	247	10	10000	1	1	0	1	0
52	248	10	10000	1	1	0	1	0
50	249	10	10000	1	1	0	1	0
53	250	10	10000	1	1	0	1	0
56	251	10	10000	1	1	0	1	0
55	251	10	10000	1	1	0	1	0
52	252	10	10000	1	1	0	1	0
52	254	10	10000	1	1	0	1	0
52	255	10	10000	1	1	0	1	0
52	256	10	10000	1	1	0	1	0
53	257	10	10000	1	1	0	1	0
55	258	10	10000	1	1	0	1	0
53	259	10	10000	1	1	0	1	0
53	260	10	10000	1	1	0	1	0
50	261	10	10000	1	1	0	1	0
48	261	10	10000	1	1	0	1	0
50	262	10	10000	1	1	0	1	0
51	264	10	10000	1	1	0	1	0
52	265	10	10000	1	1	0	1	0
54	266	10	10000	1	1	0	1	0
54	267	10	10000	1	1	0	1	0
56	268	10	10000	1	1	0	1	0
55	269	10	10000	1	1	0	1	0
54	270	10	10000	1	1	0	1	0
52	271	10	10000	1	1	0	1	0
51	271	10	10000	1	1	0	1	0
47	272	10	10000	1	1	0	1	0
49	274	10	10000	1	1	0	1	0
51	275	10	10000	1	1	0	1	0
57	276	10	10000	1	1	0	1	0
56	277	10	10000	1	1	0	1	0
54	278	10	10000	1	1	0	1	0
53	279	10	10000	1	1	0	1	0
57	280	10	10000	1	1	0	1	0
59	281	10	10000	1	1	0	1	0
59	281	10	10000	1	1	0	1	0
60	282	10	10000	1	1	0	1	0
58	284	10	10000	1	1	0	1	0
58	285	10	10000	1	1	0	1	0
58	286	10	10000	1	1	0	1	0
58	287	10	10000	1	1	0	1	0
56	288	10	10000	1	1	0	1	0
54	289	10	10000	1	1	0	1	0
54	290	10	10000	1	1	0	1	0
51	291	10	10000	1	1	0	1	0
51	291	10	10000	1	1	0	1	0
49	292	10	10000	1	1	0	1	0
48	294	10	10000	1	1	0	1	0
47	295	10	10000	1	1	0	1	0
46	305	10	10000	1	1	0	1	0
45	306	10	10000	1	1	0	1	0
44	307	10	10000	1	1	0	1	0
44	308	10	10000	1	1	0	1	0
41	309	10	10000	1	1	0	1	0
42	310	10	10000	1	1	0	1	0
41	311	10	10000	1	1	0	1	0
42	312	10	10000	1	1	0	1	0
41	313	10	10000	1	1	0	1	0
40	314	10	10000	1	1	0	1	0
38	315	10	10000	1	1	0	1	0
36	316	10	10000	1	1	0	1	0
36	314	10	10000	1	1	0	1	0
37	315	10	10000	1	1	0	1	0
42	316	10	10000	1	1	0	1	0
42	317	10	10000	1	1	0	1	0
45	318	10	10000	1	1	0	1	0
43	319	10	10000	1	1	0	1	0
42	320	10	10000	1	1	0	1	0
42	321	10	10000	1	1	0	1	0
43	320	10	10000	1	1	0	1	0
45	321	10	10000	1	1	0	1	0
44	322	10	10000	1	1	0	1	0
44	323	10	10000	1	1	0	1	0
45	324	10	10000	1	1	0	1	0
45	325	10	10000	1	1	0	1	0
44	327	10	10000	1	1	0	1	0
47	328	10	10000	1	1	0	1	0
48	329	10	10000	1	1	0	1	0
45	330	10	10000	1	1	0	1	0
45	331	10	10000	1	1	0	1	0
44	332	10	10000	1	1	0	1	0
44	333	10	10000	1	1	0	1	0
42	334	10	10000	1	1	0	1	0
41	333	10	10000	1	1	0	1	0
41	334	10	10000	1	1	0	1	0
44	335	10	10000	1	1	0	1	0
46	336	10	10000	1	1	0	1	0
47	337	10	10000	1	1	0	1	0
48	338	10	10000	1	1	0	1	0
48	340	10	10000	1	1	0	1	0
47	341	10	10000	1	1	0	1	0
45	342	10	10000	1	1	0	1	0
45	343	10	10000	1	1	0	1	0
46	344	10	10000	1	1	0	1	0
45	345	10	10000	1	1	0	1	0
44	345	10	10000	1	1	0	1	0
44	346	10	10000	1	1	0	1	0
43	347	10	10000	1	1	0	1	0
42	348	10	10000	1	1	0	1	0
40	350	10	10000	1	1	0	1	0
40	351	10	10000	1	1	0	1	0
39	352	10	10000	1	1	0	1	0
43	353	10	10000	1	1	0	1	0
43	354	10	10000	1	1	0	1	0
45	355	10	10000	1	1	0	1	0
46	356	10	10000	1	1	0	1	0
41	357	10	10000	1	1	0	1	0
42	358	10	10000	1	1	0	1	0
42	359	10	10000	1	1	0	1	0
40	360	10	10000	1	1	0	1	0
39	361	10	10000	1	1	0	1	0
39	361	10	10000	1	1	0	1	0
38	362	10	10000	1	1	0	1	0
38	363	10	10000	1	1	0	1	0
36	364	10	10000	1	1	0	1	0
35	365	10	10000	1	1	0	1	0
36	366	10	10000	1	1	0	1	0
36	368	10	10000	1	1	0	1	0
35	369	10	10000	1	1	0	1	0
33	370	10	10000	1	1	0	1	0
31	371	10	10000	1	1	0	1	0
33	372	10	10000	1	1	0	1	0
38	373	10	10000	1	1	0	1	0
40	373	10	10000	1	1	0	1	0
44	374	10	10000	1	1	0	1	0
48	375	10	10000	1	1	0	1	0
45	376	10	10000	1	1	0	1	0
45	379	10	10000	1	1	0	1	0
46	380	10	10000	1	1	0	1	0
45	381	10	10000	1	1	0	1	0
45	382	10	10000	1	1	0	1	0
44	383	10	10000	1	1	0	1	0
44	384	10	10000	1	1	0	1	0
45	385	10	10000	1	1	0	1	0
43	386	10	10000	1	1	0	1	0
44	384	10	10000	1	1	0	1	0
44	385	10	10000	1	1	0	1	0
44	386	10	10000	1	1	0	1	0
45	387	10	10000	1	1	0	1	0
45	389	10	10000	1	1	0	1	0
42	390	10	10000	1	1	0	1	0
41	391	10	10000	1	1	0	1	0
39	392	10	10000	1	1	0	1	0
39	393	10	10000	1	1	0	1	0
40	394	10	10000	1	1	0	1	0
40	396	10	10000	1	1	0	1	0
38	397	10	10000	1	1	0	1	0
37	398	10	10000	1	1	0	1	0
38	399	10	10000	1	1	0	1	0
38	400	10	10000	1	1	0	1	0
38	401	10	10000	1	1	0	1	0
42	400	10	10000	1	1	0	1	0
41	401	10	10000	1	1	0	1	0
40	402	10	10000	1	1	0	1	0
40	403	10	10000	1	1	0	1	0
41	407	10	10000	1	1	0	1	0
42	408	10	10000	1	1	0	1	0
45	409	10	10000	1	1	0	1	0
45	410	10	10000	1	1	0	1	0
46	411	10	10000	1	1	0	1	0
46	412	10	10000	1	1	0	1	0
45	411	10	10000	1	1	0	1	0
46	412	10	10000	1	1	0	1	0
47	413	10	10000	1	1	0	1	0
48	414	10	10000	1	1	0	1	0
48	415	10	10000	1	1	0	1	0
48	416	10	10000	1	1	0	1	0
47	418	10	10000	1	1	0	1	0
48	419	10	10000	1	1	0	1	0
47	420	10	10000	1	1	0	1	0
51	421	10	10000	1	1	0	1	0
56	422	10	10000	1	1	0	1	0
54	423	10	10000	1	1	0	1	0
51	423	10	10000	1	1	0	1	0
49	424	10	10000	1	1	0	1	0
51	425	10	10000	1	1	0	1	0
54	426	10	10000	1	1	0	1	0
53	429	10	10000	1	1	0	1	0
52	430	10	10000	1	1	0	1	0
49	431	10	10000	1	1	0	1	0
49	432	10	10000	1	1	0	1	0
47	433	10	10000	1	1	0	1	0
46	434	10	10000	1	1	0	1	0
45	435	10	10000	1	1	0	1	0
45	436	10	10000	1	1	0	1	0
45	434	10	10000	1	1	0	1	0
43	435	10	10000	1	1	0	1	0
41	436	10	10000	1	1	0	1	0
40	437	10	10000	1	1	0	1	0
40	439	10	10000	1	1	0	1	0
41	440	10	10000	1	1	0	1	0
44	441	10	10000	1	1	0	1	0
44	442	10	10000	1	1	0	1	0
44	443	10	10000	1	1	0	1	0
45	444	10	10000	1	1	0	1	0
43	445	10	10000	1	1	0	1	0
46	446	10	10000	1	1	0	1	0
48	447	10	10000	1	1	0	1	0
46	448	10	10000	1	1	0	1	0
44	449	10	10000	1	1	0	1	0
44	450	10	10000	1	1	0	1	0
42	450	10	10000	1	1	0	1	0
43	451	10	10000	1	1	0	1	0
43	452	10	10000	1	1	0	1	0
41	453	10	10000	1	1	0	1	0
40	456	10	10000	1	1	0	1	0
38	457	10	10000	1	1	0	1	0
36	458	10	10000	1	1	0	1	0
38	459	10	10000	1	1	0	1	0
37	460	10	10000	1	1	0	1	0
38	461	10	10000	1	1	0	1	0
36	461	10	10000	1	1	0	1	0
35	462	10	10000	1	1	0	1	0
34	463	10	10000	1	1	0	1	0
33	464	10	10000	1	1	0	1	0
34	462	10	10000	1	1	0	1	0
39	463	10	10000	1	1	0	1	0
39	464	10	10000	1	1	0	1	0
37	465	10	10000	1	1	0	1	0
41	466	10	10000	1	1	0	1	0
44	467	10	10000	1	1	0	1	0
44	468	10	10000	1	1	0	1	0
46	469	10	10000	1	1	0	1	0
48	470	10	10000	1	1	0	1	0
46	471	10	10000	1	1	0	1	0
49	472	10	10000	1	1	0	1	0
52	473	10	10000	1	1	0	1	0
54	474	10	10000	1	1	0	1	0
53	475	10	10000	1	1	0	1	0
54	476	10	10000	1	1	0	1	0
55	477	10	10000	1	1	0	1	0
53	478	10	10000	1	1	0	1	0
52	479	10	10000	1	1	0	1	0
50	480	10	10000	1	1	0	1	0
48	481	10	10000	1	1	0	1	0
46	482	10	10000	1	1	0	1	0
46	483	10	10000	1	1	0	1	0
45	484	10	10000	1	1	0	1	0
44	485	10	10000	1	1	0	1	0
42	486	10	10000	1	1	0	1	0
43	487	10	10000	1	1	0	1	0
42	488	10	10000	1	1	0	1	0
43	489	10	10000	1	1	0	1	0
45	490	10	10000	1	1	0	1	0
45	491	10	10000	1	1	0	1	0
44	492	10	10000	1	1	0	1	0
40	493	10	10000	1	1	0	1	0
39	494	10	10000	1	1	0	1	0
40	495	10	10000	1	1	0	1	0
39	496	10	10000	1	1	0	1	0
40	497	10	10000	1	1	0	1	0
43	498	10	10000	1	1	0	1	0
44	499	10	10000	1	1	0	1	0
46	500	10	10000	1	1	0	1	0
51	501	10	10000	1	1	0	1	0
50	546	10	10000	1	1	0	1	1
53	547	10	10000	1	1	0	1	1
54	548	10	10000	1	1	0	1	1
54	549	10	10000	1	1	0	1	1
52	550	10	10000	1	1	0	1	1
49	551	10	10000	1	1	0	1	1
48	552	10	10000	1	1	0	1	1
45	553	10	10000	1	1	0	1	1
44	554	10	10000	1	1	0	1	1
43	555	10	10000	1	1	0	1	1
42	556	10	10000	1	1	0	1	1
41	557	10	10000	1	1	0	1	1
40	558	10	10000	1	1	0	1	1
39	559	10	10000	1	1	0	1	1
38	560	10	10000	1	1	0	1	1
37	561	10	10000	1	1	0	1	1
36	562	10	10000	1	1	0	1	1
35	563	10	10000	1	1	0	1	1
37	564	10	10000	1	1	0	1	1
39	565	10	10000	1	1	0	1	1
37	566	10	10000	1	1	0	1	1
39	567	10	10000	1	1	0	1	1
38	568	10	10000	1	1	0	1	1
38	569	10	10000	1	1	0	1	1
37	570	10	10000	1	1	0	1	1
35	571	10	10000	1	1	0	1	1
35	572	10	10000	1	1	0	1	1
36	573	10	10000	1	1	0	1	1
36	574	10	10000	1	1	0	1	1
39	575	10	10000	1	1	0	1	1
38	576	10	10000	1	1	0	1	1
36	577	10	10000	1	1	0	1	1
36	578	10	10000	1	1	0	1	1
36	579	10	10000	1	1	0	1	1
39	580	10	10000	1	1	0	1	1
39	581	10	10000	1	1	0	1	1
38	582	10	10000	1	1	0	1	1
40	583	10	10000	1	1	0	1	1
41	584	10	10000	1	1	0	1	1
42	585	10	10000	1	1	0	1	1
44	586	10	10000	1	1	0	1	1
47	587	10	10000	1	1	0	1	1
48	588	10	10000	1	1	0	1	1
47	589	10	10000	1	1	0	1	1
45	590	10	10000	1	1	0	1	1
44	591	10	10000	1	1	0	1	1
44	549	10	10000	1	1	0	1	1
43	550	10	10000	1	1	0	1	1
41	551	10	10000	1	1	0	1	1
40	552	10	10000	1	1	0	1	1
40	552	10	10000	1	1	0	1	0
36	553	10	10000	1	1	0	1	0
35	554	10	10000	1	1	0	1	0
37	555	10	10000	1	1	0	1	0
38	556	10	10000	1	1	0	1	0
37	557	10	10000	1	1	0	1	0
36	558	10	10000	1	1	0	1	0
36	559	10	10000	1	1	0	1	0
38	560	10	10000	1	1	0	1	0
38	561	10	10000	1	1	0	1	0
36	562	10	10000	1	1	0	1	0
36	563	10	10000	1	1	0	1	0
36	564	10	10000	1	1	0	1	0
35	565	10	10000	1	1	0	1	0
37	566	10	10000	1	1	0	1	0
36	567	10	10000	1	1	0	1	0
37	568	10	10000	1	1	0	1	0
38	569	10	10000	1	1	0	1	0
37	570	10	10000	1	1	0	1	0
36	571	10	10000	1	1	0	1	0
36	572	10	10000	1	1	0	1	0
33	573	10	10000	1	1	0	1	0
33	574	10	10000	1	1	0	1	0
33	575	10	10000	1	1	0	1	0
33	576	10	10000	1	1	0	1	0
32	577	10	10000	1	1	0	1	0
33	578	10	10000	1	1	0	1	0
33	579	10	10000	1	1	0	1	0
32	580	10	10000	1	1	0	1	0
35	581	10	10000	1	1	0	1	0
36	582	10	10000	1	1	0	1	0
37	583	10	10000	1	1	0	1	0
36	584	10	10000	1	1	0	1	0
35	585	10	10000	1	1	0	1	0
37	586	10	10000	1	1	0	1	0
36	587	10	10000	1	1	0	1	0
35	588	10	10000	1	1	0	1	0
34	589	10	10000	1	1	0	1	0
34	590	10	10000	1	1	0	1	0
33	591	10	10000	1	1	0	1	0
35	592	10	10000	1	1	0	1	0
33	593	10	10000	1	1	0	1	0
33	594	10	10000	1	1	0	1	0
32	595	10	10000	1	1	0	1	0
33	596	10	10000	1	1	0	1	0
33	597	10	10000	1	1	0	1	0
34	598	10	10000	1	1	0	1	0
33	599	10	10000	1	1	0	1	0
31	600	10	10000	1	1	0	1	0
32	601	10	10000	1	1	0	1	0
30	602	10	10000	1	1	0	1	0
30	603	10	10000	1	1	0	1	0
31	604	10	10000	1	1	0	1	0
29	605	10	10000	1	1	0	1	0
28	606	10	10000	1	1	0	1	0
26	607	10	10000	1	1	0	1	0
26	608	10	10000	1	1	0	1	0
24	609	10	10000	1	1	0	1	0
24	610	10	10000	1	1	0	1	0
24	611	10	10000	1	1	0	1	0
24	612	10	10000	1	1	0	1	0
26	613	10	10000	1	1	0	1	0
26	614	10	10000	1	1	0	1	0
29	615	10	10000	1	1	0	1	0
31	616	10	10000	1	1	0	1	0
33	617	10	10000	1	1	0	1	0
35	618	10	10000	1	1	0	1	0
34	619	10	10000	1	1	0	1	0
34	620	10	10000	1	1	0	1	0
35	621	10	10000	1	1	0	1	0
36	622	10	10000	1	1	0	1	0
38	623	10	10000	1	1	0	1	0
39	624	10	10000	1	1	0	1	0
39	625	10	10000	1	1	0	1	0
39	626	10	10000	1	1	0	1	0
41	627	10	10000	1	1	0	1	0
42	628	10	10000	1	1	0	1	0
44	629	10	10000	1	1	0	1	0
51	630	10	10000	1	1	0	1	0
55	631	10	10000	1	1	0	1	0
56	632	10	10000	1	1	0	1	0
56	633	10	10000	1	1	0	1	0
56	634	10	10000	1	1	0	1	0
57	635	10	10000	1	1	0	1	0
64	636	10	10000	1	1	0	1	0
76	637	10	10000	1	1	0	1	0
85	638	10	10000	1	1	0	1	0
93	639	10	10000	1	1	0	1	0
110	640	10	10000	1	1	0	1	0
167	641	10	10000	1	1	0	1	0
222	642	10	10000	1	1	0	1	0
312	643	10	10000	1	1	0	1	0
319	644	10	10000	1	1	0	1	0
313	645	10	10000	1	1	0	1	0
355	646	10	10000	1	1	0	1	0
387	647	10	10000	1	1	0	1	0
500	648	10	10000	1	1	0	1	0
568	649	10	10000	1	1	0	1	0
575	650	10	10000	1	1	0	1	0
562	651	10	10000	1	1	0	1	0
556	652	10	10000	1	1	0	1	0
630	653	10	10000	1	1	0	1	0
689	654	10	10000	1	1	0	1	0
670	655	10	10000	1	1	0	1	0
651	656	10	10000	1	1	0	1	0
687	657	10	10000	1	1	0	1	0
689	658	10	10000	1	1	0	1	0
719	659	10	10000	1	1	0	1	0
808	660	10	10000	1	1	0	1	0
785	661	10	10000	1	1	0	1	0
799	662	10	10000	1	1	0	1	0
803	663	10	10000	1	1	0	1	0
787	664	10	10000	1	1	0	1	0
796	665	10	10000	1	1	0	1	0
788	666	10	10000	1	1	0	1	0
849	667	10	10000	1	1	0	1	0
852	668	10	10000	1	1	0	1	0
914	669	10	10000	1	1	0	1	0
918	670	10	10000	1	1	0	1	0
887	671	10	10000	1	1	0	1	0
855	672	10	10000	1	1	0	1	0
845	673	10	10000	1	1	0	1	0
859	674	10	10000	1	1	0	1	0
869	675	10	10000	1	1	0	1	0
867	676	10	10000	1	1	0	1	0
870	677	10	10000	1	1	0	1	0
875	678	10	10000	1	1	0	1	0
878	679	10	10000	1	1	0	1	0
887	680	10	10000	1	1	0	1	0
902	681	10	10000	1	1	0	1	0
922	682	10	10000	1	1	0	1	0
945	683	10	10000	1	1	0	1	0
966	684	10	10000	1	1	0	1	0
979	685	10	10000	1	1	0	1	0
993	686	10	10000	1	1	0	1	0
1007	687	10	10000	1	1	0	1	0
1018	688	10	10000	1	1	0	1	0
1020	689	10	10000	1	1	0	1	0
1015	690	10	10000	1	1	0	1	0
1004	691	10	10000	1	1	0	1	0
990	692	10	10000	1	1	0	1	0
967	693	10	10000	1	1	0	1	0
940	694	10	10000	1	1	0	1	0
913	695	10	10000	1	1	0	1	0
887	696	10	10000	1	1	0	1	0
856	697	10	10000	1	1	0	1	0
822	698	10	10000	1	1	0	1	0
785	699	10	10000	1	1	0	1	0
754	700	10	10000	1	1	0	1	0
731	701	10	10000	1	1	0	1	0
715	702	10	10000	1	1	0	1	0
707	703	10	10000	1	1	0	1	0
709	704	10	10000	1	1	0	1	0
713	705	10	10000	1	1	0	1	0
722	706	10	10000	1	1	0	1	0
737	707	10	10000	1	1	0	1	0
753	708	10	10000	1	1	0	1	0
776	709	10	10000	1	1	0	1	0
799	710	10	10000	1	1	0	1	0
823	711	10	10000	1	1	0	1	0
847	712	10	10000	1	1	0	1	0
866	713	10	10000	1	1	0	1	0
886	714	10	10000	1	1	0	1	0
908	715	10	10000	1	1	0	1	0
930	716	10	10000	1	1	0	1	0
950	717	10	10000	1	1	0	1	0
969	718	10	10000	1	1	0	1	0
988	719	10	10000	1	1	0	1	0
1007	720	10	10000	1	1	0	1	0
1021	721	10	10000	1	1	0	1	0
1033	722	10	10000	1	1	0	1	0
1042	723	10	10000	1	1	0	1	0
1045	724	10	10000	1	1	0	1	0
1048	725	10	10000	1	1	0	1	0
1050	726	10	10000	1	1	0	1	0
1050	727	10	10000	1	1	0	1	0
1052	728	10	10000	1	1	0	1	0
1049	729	10	10000	1	1	0	1	0
1040	730	10	10000	1	1	0	1	0
1032	731	10	10000	1	1	0	1	0
1025	732	10	10000	1	1	0	1	0
1011	733	10	10000	1	1	0	1	0
993	734	10	10000	1	1	0	1	0
973	735	10	10000	1	1	0	1	0
951	736	10	10000	1	1	0	1	0
929	737	10	10000	1	1	0	1	0
907	738	10	10000	1	1	0	1	0
886	739	10	10000	1	1	0	1	0
863	740	10	10000	1	1	0	1	0
842	741	10	10000	1	1	0	1	0
818	742	10	10000	1	1	0	1	0
794	743	10	10000	1	1	0	1	0
769	744	10	10000	1	1	0	1	0
742	745	10	10000	1	1	0	1	0
716	746	10	10000	1	1	0	1	0
691	747	10	10000	1	1	0	1	0
669	748	10	10000	1	1	0	1	0
643	749	10	10000	1	1	0	1	0
615	750	10	10000	1	1	0	1	0
587	751	10	10000	1	1	0	1	0
567	752	10	10000	1	1	0	1	0
544	753	10	10000	1	1	0	1	0
519	754	10	10000	1	1	0	1	0
497	755	10	10000	1	1	0	1	0
475	756	10	10000	1	1	0	1	0
456	757	10	10000	1	1	0	1	0
439	758	10	10000	1	1	0	1	0
429	759	10	10000	1	1	0	1	0
417	760	10	10000	1	1	0	1	0
408	761	10	10000	1	1	0	1	0
404	762	10	10000	1	1	0	1	0
400	763	10	10000	1	1	0	1	0
398	764	10	10000	1	1	0	1	0
396	765	10	10000	1	1	0	1	0
394	766	10	10000	1	1	0	1	0
388	767	10	10000	1	1	0	1	0
382	768	10	10000	1	1	0	1	0
374	769	10	10000	1	1	0	1	0
364	770	10	10000	1	1	0	1	0
360	771	10	10000	1	1	0	1	0
359	772	10	10000	1	1	0	1	0
355	773	10	10000	1	1	0	1	0
351	774	10	10000	1	1	0	1	0
348	775	10	10000	1	1	0	1	0
345	776	10	10000	1	1	0	1	0
344	777	10	10000	1	1	0	1	0
342	778	10	10000	1	1	0	1	0
341	779	10	10000	1	1	0	1	0
343	780	10	10000	1	1	0	1	0
347	781	10	10000	1	1	0	1	0
347	782	10	10000	1	1	0	1	0
346	783	10	10000	1	1	0	1	0
350	784	10	10000	1	1	0	1	0
354	785	10	10000	1	1	0	1	0
349	786	10	10000	1	1	0	1	0
342	787	10	10000	1	1	0	1	0
341	788	10	10000	1	1	0	1	0
345	789	10	10000	1	1	0	1	0
346	790	10	10000	1	1	0	1	0
346	791	10	10000	1	1	0	1	0
345	792	10	10000	1	1	0	1	0
341	793	10	10000	1	1	0	1	0
333	794	10	10000	1	1	0	1	0
329	795	10	10000	1	1	0	1	0
328	796	10	10000	1	1	0	1	0
326	797	10	10000	1	1	0	1	0
326	798	10	10000	1	1	0	1	0
322	799	10	10000	1	1	0	1	0
317	800	10	10000	1	1	0	1	0
314	801	10	10000	1	1	0	1	0
316	802	10	10000	1	1	0	1	0
314	803	10	10000	1	1	0	1	0
306	804	10	10000	1	1	0	1	0
298	805	10	10000	1	1	0	1	0
296	806	10	10000	1	1	0	1	0
296	807	10	10000	1	1	0	1	0
294	808	10	10000	1	1	0	1	0
289	809	10	10000	1	1	0	1	0
283	810	10	10000	1	1	0	1	0
277	811	10	10000	1	1	0	1	0
272	812	10	10000	1	1	0	1	0
264	813	10	10000	1	1	0	1	0
260	814	10	10000	1	1	0	1	0
259	815	10	10000	1	1	0	1	0
259	816	10	10000	1	1	0	1	0
259	817	10	10000	1	1	0	1	0
257	818	10	10000	1	1	0	1	0
255	819	10	10000	1	1	0	1	0
251	820	10	10000	1	1	0	1	0
246	821	10	10000	1	1	0	1	0
239	822	10	10000	1	1	0	1	0
237	823	10	10000	1	1	0	1	0
235	824	10	10000	1	1	0	1	0
233	825	10	10000	1	1	0	1	0
229	826	10	10000	1	1	0	1	0
222	827	10	10000	1	1	0	1	0
213	828	10	10000	1	1	0	1	0
204	829	10	10000	1	1	0	1	0
204	830	10	10000	1	1	0	1	0
204	831	10	10000	1	1	0	1	0
200	832	10	10000	1	1	0	1	0
192	833	10	10000	1	1	0	1	0
182	834	10	10000	1	1	0	1	0
176	835	10	10000	1	1	0	1	0
169	836	10	10000	1	1	0	1	0
162	837	10	10000	1	1	0	1	0
157	838	10	10000	1	1	0	1	0
159	839	10	10000	1	1	0	1	0
163	840	10	10000	1	1	0	1	0
171	841	10	10000	1	1	0	1	0
175	842	10	10000	1	1	0	1	0
172	843	10	10000	1	1	0	1	0
167	844	10	10000	1	1	0	1	0
160	845	10	10000	1	1	0	1	0
153	846	10	10000	1	1	0	1	0
148	847	10	10000	1	1	0	1	0
143	848	10	10000	1	1	0	1	0
137	849	10	10000	1	1	0	1	0
133	850	10	10000	1	1	0	1	0
130	851	10	10000	1	1	0	1	0
128	852	10	10000	1	1	0	1	0
123	853	10	10000	1	1	0	1	0
117	854	10	10000	1	1	0	1	0
113	855	10	10000	1	1	0	1	0
110	856	10	10000	1	1	0	1	0
110	857	10	10000	1	1	0	1	0
108	858	10	10000	1	1	0	1	0
104	859	10	10000	1	1	0	1	0
100	860	10	10000	1	1	0	1	0
96	861	10	10000	1	1	0	1	0
96	862	10	10000	1	1	0	1	0
96	863	10	10000	1	1	0	1	0
95	864	10	10000	1	1	0	1	0
91	865	10	10000	1	1	0	1	0
87	866	10	10000	1	1	0	1	0
85	867	10	10000	1	1	0	1	0
81	868	10	10000	1	1	0	1	0
77	869	10	10000	1	1	0	1	0
75	870	10	10000	1	1	0	1	0
76	871	10	10000	1	1	0	1	0
84	872	10	10000	1	1	0	1	0
87	873	10	10000	1	1	0	1	0
83	874	10	10000	1	1	0	1	0
82	875	10	10000	1	1	0	1	0
83	876	10	10000	1	1	0	1	0
82	877	10	10000	1	1	0	1	0
78	878	10	10000	1	1	0	1	0
75	879	10	10000	1	1	0	1	0
74	880	10	10000	1	1	0	1	0
72	881	10	10000	1	1	0	1	0
70	882	10	10000	1	1	0	1	0
68	883	10	10000	1	1	0	1	0
67	884	10	10000	1	1	0	1	0
66	885	10	10000	1	1	0	1	0
66	886	10	10000	1	1	0	1	0
64	887	10	10000	1	1	0	1	0
62	888	10	10000	1	1	0	1	0
60	889	10	10000	1	1	0	1	0
58	890	10	10000	1	1	0	1	0
59	891	10	10000	1	1	0	1	0
60	892	10	10000	1	1	0	1	0
57	893	10	10000	1	1	0	1	0
55	894	10	10000	1	1	0	1	0
54	895	10	10000	1	1	0	1	0
54	896	10	10000	1	1	0	1	0
52	897	10	10000	1	1	0	1	0
52	898	10	10000	1	1	0	1	0
52	899	10	10000	1	1	0	1	0
51	900	10	10000	1	1	0	1	0
52	901	10	10000	1	1	0	1	0
52	902	10	10000	1	1	0	1	0
52	903	10	10000	1	1	0	1	0
52	904	10	10000	1	1	0	1	0
53	905	10	10000	1	1	0	1	0
55	906	10	10000	1	1	0	1	0
56	907	10	10000	1	1	0	1	0
55	908	10	10000	1	1	0	1	0
53	909	10	10000	1	1	0	1	0
51	910	10	10000	1	1	0	1	0
50	911	10	10000	1	1	0	1	0
50	912	10	10000	1	1	0	1	0
47	913	10	10000	1	1	0	1	0
45	914	10	10000	1	1	0	1	0
45	915	10	10000	1	1	0	1	0
44	916	10	10000	1	1	0	1	0
44	917	10	10000	1	1	0	1	0
42	918	10	10000	1	1	0	1	0
45	919	10	10000	1	1	0	1	0
49	920	10	10000	1	1	0	1	0
49	921	10	10000	1	1	0	1	0
48	922	10	10000	1	1	0	1	0
47	923	10	10000	1	1	0	1	0
50	924	10	10000	1	1	0	1	0
51	925	10	10000	1	1	0	1	0
50	926	10	10000	1	1	0	1	0
49	927	10	10000	1	1	0	1	0
50	928	10	10000	1	1	0	1	0
52	929	10	10000	1	1	0	1	0
54	930	10	10000	1	1	0	1	0
56	931	10	10000	1	1	0	1	0
57	932	10	10000	1	1	0	1	0
57	933	10	10000	1	1	0	1	0
57	934	10	10000	1	1	0	1	0
61	935	10	10000	1	1	0	1	0
64	936	10	10000	1	1	0	1	0
65	937	10	10000	1	1	0	1	0
65	938	10	10000	1	1	0	1	0
65	939	10	10000	1	1	0	1	0
66	940	10	10000	1	1	0	1	0
67	941	10	10000	1	1	0	1	0
67	942	10	10000	1	1	0	1	0
68	943	10	10000	1	1	0	1	0
71	944	10	10000	1	1	0	1	0
68	945	10	10000	1	1	0	1	0
65	946	10	10000	1	1	0	1	0
62	947	10	10000	1	1	0	1	0
60	948	10	10000	1	1	0	1	0
61	949	10	10000	1	1	0	1	0
66	950	10	10000	1	1	0	1	0
71	951	10	10000	1	1	0	1	0
70	952	10	10000	1	1	0	1	0
70	953	10	10000	1	1	0	1	0
68	954	10	10000	1	1	0	1	0
68	955	10	10000	1	1	0	1	0
67	956	10	10000	1	1	0	1	0
65	957	10	10000	1	1	0	1	0
65	958	10	10000	1	1	0	1	0
65	959	10	10000	1	1	0	1	0
64	960	10	10000	1	1	0	1	0
61	961	10	10000	1	1	0	1	0
59	962	10	10000	1	1	0	1	0
59	963	10	10000	1	1	0	1	0
60	964	10	10000	1	1	0	1	0
58	965	10	10000	1	1	0	1	0
56	966	10	10000	1	1	0	1	0
53	967	10	10000	1	1	0	1	0
52	968	10	10000	1	1	0	1	0
53	969	10	10000	1	1	0	1	0
53	970	10	10000	1	1	0	1	0
51	971	10	10000	1	1	0	1	0
52	972	10	10000	1	1	0	1	0
50	973	10	10000	1	1	0	1	0
47	974	10	10000	1	1	0	1	0
49	975	10	10000	1	1	0	1	0
53	976	10	10000	1	1	0	1	0
56	977	10	10000	1	1	0	1	0
54	978	10	10000	1	1	0	1	0
56	979	10	10000	1	1	0	1	0
56	980	10	10000	1	1	0	1	0
55	981	10	10000	1	1	0	1	0
53	982	10	10000	1	1	0	1	0
53	983	10	10000	1	1	0	1	0
52	984	10	10000	1	1	0	1	0
51	985	10	10000	1	1	0	1	0
51	986	10	10000	1	1	0	1	0
50	987	10	10000	1	1	0	1	0
48	988	10	10000	1	1	0	1	0
45	989	10	10000	1	1	0	1	0
46	990	10	10000	1	1	0	1	0
48	991	10	10000	1	1	0	1	0
50	992	10	10000	1	1	0	1	0
49	993	10	10000	1	1	0	1	0
45	994	10	10000	1	1	0	1	0
45	995	10	10000	1	1	0	1	0
48	996	10	10000	1	1	0	1	0
53	997	10	10000	1	1	0	1	0
56	998	10	10000	1	1	0	1	0
56	999	10	10000	1	1	0	1	0
55	1000	10	10000	1	1	0	1	0
53	1001	10	10000	1	1	0	1	0
24	2	0	10000	2	1	0	2	0
25	3	0	10000	2	1	0	2	0
24	4	0	10000	2	1	0	2	0
23	5	0	10000	2	1	0	2	0
20	6	0	10000	2	1	0	2	0
20	7	0	10000	2	1	0	2	0
19	8	0	10000	2	1	0	2	0
19	9	0	10000	2	1	0	2	0
20	10	0	10000	2	1	0	2	0
20	11	0	10000	2	1	0	2	0
20	12	0	10000	2	1	0	2	0
18	13	0	10000	2	1	0	2	0
17	14	0	10000	2	1	0	2	0
17	15	0	10000	2	1	0	2	0
18	16	0	10000	2	1	0	2	0
18	17	0	10000	2	1	0	2	0
17	18	0	10000	2	1	0	2	0
16	19	0	10000	2	1	0	2	0
16	20	0	10000	2	1	0	2	0
17	21	0	10000	2	1	0	2	0
17	22	0	10000	2	1	0	2	0
17	23	0	10000	2	1	0	2	0
18	24	0	10000	2	1	0	2	0
18	25	0	10000	2	1	0	2	0
17	26	0	10000	2	1	0	2	0
17	27	0	10000	2	1	0	2	0
17	28	0	10000	2	1	0	2	0
17	29	0	10000	2	1	0	2	0
17	30	0	10000	2	1	0	2	0
17	31	0	10000	2	1	0	2	0
18	32	0	10000	2	1	0	2	0
16	33	0	10000	2	1	0	2	0
15	34	0	10000	2	1	0	2	0
15	35	0	10000	2	1	0	2	0
18	36	0	10000	2	1	0	2	0
17	37	0	10000	2	1	0	2	0
18	38	0	10000	2	1	0	2	0
19	39	0	10000	2	1	0	2	0
19	40	0	10000	2	1	0	2	0
19	41	0	10000	2	1	0	2	0
18	42	0	10000	2	1	0	2	0
18	43	0	10000	2	1	0	2	0
18	44	0	10000	2	1	0	2	0
18	45	0	10000	2	1	0	2	0
15	46	0	10000	2	1	0	2	0
16	47	0	10000	2	1	0	2	0
15	48	0	10000	2	1	0	2	0
16	49	0	10000	2	1	0	2	0
15	50	0	10000	2	1	0	2	0
15	51	0	10000	2	1	0	2	0
14	52	0	10000	2	1	0	2	0
14	53	0	10000	2	1	0	2	0
12	54	0	10000	2	1	0	2	0
12	55	0	10000	2	1	0	2	0
14	56	0	10000	2	1	0	2	0
13	57	0	10000	2	1	0	2	0
13	58	0	10000	2	1	0	2	0
12	59	0	10000	2	1	0	2	0
12	60	0	10000	2	1	0	2	0
13	61	0	10000	2	1	0	2	0
13	62	0	10000	2	1	0	2	0
14	63	0	10000	2	1	0	2	0
15	64	0	10000	2	1	0	2	0
14	65	0	10000	2	1	0	2	0
12	66	0	10000	2	1	0	2	0
12	67	0	10000	2	1	0	2	0
12	68	0	10000	2	1	0	2	0
12	69	0	10000	2	1	0	2	0
11	70	0	10000	2	1	0	2	0
11	71	0	10000	2	1	0	2	0
13	72	0	10000	2	1	0	2	0
11	73	0	10000	2	1	0	2	0
11	74	0	10000	2	1	0	2	0
11	75	0	10000	2	1	0	2	0
13	76	0	10000	2	1	0	2	0
13	77	0	10000	2	1	0	2	0
12	78	0	10000	2	1	0	2	0
12	79	0	10000	2	1	0	2	0
13	80	0	10000	2	1	0	2	0
13	81	0	10000	2	1	0	2	0
12	82	0	10000	2	1	0	2	0
13	83	0	10000	2	1	0	2	0
13	84	0	10000	2	1	0	2	0
13	85	0	10000	2	1	0	2	0
11	86	0	10000	2	1	0	2	0
11	87	0	10000	2	1	0	2	0
11	88	0	10000	2	1	0	2	0
12	89	0	10000	2	1	0	2	0
12	90	0	10000	2	1	0	2	0
12	91	0	10000	2	1	0	2	0
12	92	0	10000	2	1	0	2	0
11	93	0	10000	2	1	0	2	0
10	94	0	10000	2	1	0	2	0
12	95	0	10000	2	1	0	2	0
14	96	0	10000	2	1	0	2	0
13	97	0	10000	2	1	0	2	0
12	98	0	10000	2	1	0	2	0
12	99	0	10000	2	1	0	2	0
12	100	0	10000	2	1	0	2	0
12	101	0	10000	2	1	0	2	0
13	102	0	10000	2	1	0	2	0
14	103	0	10000	2	1	0	2	0
15	104	0	10000	2	1	0	2	0
14	105	0	10000	2	1	0	2	0
12	106	0	10000	2	1	0	2	0
12	107	0	10000	2	1	0	2	0
12	108	0	10000	2	1	0	2	0
13	109	0	10000	2	1	0	2	0
13	110	0	10000	2	1	0	2	0
13	111	0	10000	2	1	0	2	0
14	112	0	10000	2	1	0	2	0
13	113	0	10000	2	1	0	2	0
12	114	0	10000	2	1	0	2	0
12	115	0	10000	2	1	0	2	0
15	116	0	10000	2	1	0	2	0
14	117	0	10000	2	1	0	2	0
15	118	0	10000	2	1	0	2	0
14	119	0	10000	2	1	0	2	0
15	120	0	10000	2	1	0	2	0
16	121	0	10000	2	1	0	2	0
15	122	0	10000	2	1	0	2	0
15	123	0	10000	2	1	0	2	0
15	124	0	10000	2	1	0	2	0
15	125	0	10000	2	1	0	2	0
13	126	0	10000	2	1	0	2	0
14	127	0	10000	2	1	0	2	0
14	128	0	10000	2	1	0	2	0
15	129	0	10000	2	1	0	2	0
16	130	0	10000	2	1	0	2	0
15	131	0	10000	2	1	0	2	0
15	132	0	10000	2	1	0	2	0
14	133	0	10000	2	1	0	2	0
14	134	0	10000	2	1	0	2	0
13	135	0	10000	2	1	0	2	0
15	136	0	10000	2	1	0	2	0
14	137	0	10000	2	1	0	2	0
13	138	0	10000	2	1	0	2	0
13	139	0	10000	2	1	0	2	0
13	140	0	10000	2	1	0	2	0
14	141	0	10000	2	1	0	2	0
13	142	0	10000	2	1	0	2	0
14	143	0	10000	2	1	0	2	0
14	144	0	10000	2	1	0	2	0
14	145	0	10000	2	1	0	2	0
11	146	0	10000	2	1	0	2	0
12	147	0	10000	2	1	0	2	0
13	148	0	10000	2	1	0	2	0
14	149	0	10000	2	1	0	2	0
14	150	0	10000	2	1	0	2	0
14	151	0	10000	2	1	0	2	0
14	152	0	10000	2	1	0	2	0
13	153	0	10000	2	1	0	2	0
13	154	0	10000	2	1	0	2	0
14	155	0	10000	2	1	0	2	0
16	156	0	10000	2	1	0	2	0
17	157	0	10000	2	1	0	2	0
16	158	0	10000	2	1	0	2	0
16	159	0	10000	2	1	0	2	0
15	160	0	10000	2	1	0	2	0
15	161	0	10000	2	1	0	2	0
13	162	0	10000	2	1	0	2	0
14	163	0	10000	2	1	0	2	0
14	164	0	10000	2	1	0	2	0
15	165	0	10000	2	1	0	2	0
12	166	0	10000	2	1	0	2	0
12	167	0	10000	2	1	0	2	0
13	168	0	10000	2	1	0	2	0
14	169	0	10000	2	1	0	2	0
14	170	0	10000	2	1	0	2	0
13	171	0	10000	2	1	0	2	0
14	172	0	10000	2	1	0	2	0
13	173	0	10000	2	1	0	2	0
13	174	0	10000	2	1	0	2	0
13	175	0	10000	2	1	0	2	0
17	176	0	10000	2	1	0	2	0
17	177	0	10000	2	1	0	2	0
18	178	0	10000	2	1	0	2	0
19	179	0	10000	2	1	0	2	0
18	180	0	10000	2	1	0	2	0
17	181	0	10000	2	1	0	2	0
18	182	0	10000	2	1	0	2	0
17	183	0	10000	2	1	0	2	0
17	184	0	10000	2	1	0	2	0
17	185	0	10000	2	1	0	2	0
16	186	0	10000	2	1	0	2	0
16	187	0	10000	2	1	0	2	0
16	188	0	10000	2	1	0	2	0
15	189	0	10000	2	1	0	2	0
15	190	0	10000	2	1	0	2	0
15	191	0	10000	2	1	0	2	0
15	192	0	10000	2	1	0	2	0
13	193	0	10000	2	1	0	2	0
13	194	0	10000	2	1	0	2	0
12	195	0	10000	2	1	0	2	0
15	196	0	10000	2	1	0	2	0
14	197	0	10000	2	1	0	2	0
15	198	0	10000	2	1	0	2	0
14	199	0	10000	2	1	0	2	0
13	200	0	10000	2	1	0	2	0
12	201	0	10000	2	1	0	2	0
12	202	0	10000	2	1	0	2	0
13	203	0	10000	2	1	0	2	0
13	204	0	10000	2	1	0	2	0
14	205	0	10000	2	1	0	2	0
11	206	0	10000	2	1	0	2	0
11	207	0	10000	2	1	0	2	0
12	208	0	10000	2	1	0	2	0
13	209	0	10000	2	1	0	2	0
13	210	0	10000	2	1	0	2	0
13	211	0	10000	2	1	0	2	0
14	212	0	10000	2	1	0	2	0
14	213	0	10000	2	1	0	2	0
15	214	0	10000	2	1	0	2	0
14	215	0	10000	2	1	0	2	0
15	216	0	10000	2	1	0	2	0
14	217	0	10000	2	1	0	2	0
14	218	0	10000	2	1	0	2	0
14	219	0	10000	2	1	0	2	0
13	220	0	10000	2	1	0	2	0
15	221	0	10000	2	1	0	2	0
15	222	0	10000	2	1	0	2	0
18	223	0	10000	2	1	0	2	0
19	224	0	10000	2	1	0	2	0
20	225	0	10000	2	1	0	2	0
20	226	0	10000	2	1	0	2	0
21	227	0	10000	2	1	0	2	0
21	228	0	10000	2	1	0	2	0
20	229	0	10000	2	1	0	2	0
20	230	0	10000	2	1	0	2	0
19	231	0	10000	2	1	0	2	0
20	232	0	10000	2	1	0	2	0
20	233	0	10000	2	1	0	2	0
19	234	0	10000	2	1	0	2	0
19	235	0	10000	2	1	0	2	0
20	236	0	10000	2	1	0	2	0
20	237	0	10000	2	1	0	2	0
19	238	0	10000	2	1	0	2	0
20	239	0	10000	2	1	0	2	0
23	240	0	10000	2	1	0	2	0
25	241	0	10000	2	1	0	2	0
27	242	0	10000	2	1	0	2	0
28	243	0	10000	2	1	0	2	0
29	244	0	10000	2	1	0	2	0
29	245	0	10000	2	1	0	2	0
27	246	0	10000	2	1	0	2	0
29	247	0	10000	2	1	0	2	0
30	248	0	10000	2	1	0	2	0
30	249	0	10000	2	1	0	2	0
29	250	0	10000	2	1	0	2	0
29	251	0	10000	2	1	0	2	0
28	252	0	10000	2	1	0	2	0
28	253	0	10000	2	1	0	2	0
29	254	0	10000	2	1	0	2	0
29	255	0	10000	2	1	0	2	0
31	256	0	10000	2	1	0	2	0
31	257	0	10000	2	1	0	2	0
30	258	0	10000	2	1	0	2	0
29	259	0	10000	2	1	0	2	0
30	260	0	10000	2	1	0	2	0
28	261	0	10000	2	1	0	2	0
27	262	0	10000	2	1	0	2	0
26	263	0	10000	2	1	0	2	0
26	264	0	10000	2	1	0	2	0
26	265	0	10000	2	1	0	2	0
23	266	0	10000	2	1	0	2	0
24	267	0	10000	2	1	0	2	0
25	268	0	10000	2	1	0	2	0
26	269	0	10000	2	1	0	2	0
27	270	0	10000	2	1	0	2	0
27	271	0	10000	2	1	0	2	0
26	272	0	10000	2	1	0	2	0
27	273	0	10000	2	1	0	2	0
29	274	0	10000	2	1	0	2	0
28	275	0	10000	2	1	0	2	0
31	276	0	10000	2	1	0	2	0
32	277	0	10000	2	1	0	2	0
33	278	0	10000	2	1	0	2	0
34	279	0	10000	2	1	0	2	0
34	280	0	10000	2	1	0	2	0
34	281	0	10000	2	1	0	2	0
33	282	0	10000	2	1	0	2	0
35	283	0	10000	2	1	0	2	0
36	284	0	10000	2	1	0	2	0
36	285	0	10000	2	1	0	2	0
34	286	0	10000	2	1	0	2	0
34	287	0	10000	2	1	0	2	0
34	288	0	10000	2	1	0	2	0
33	289	0	10000	2	1	0	2	0
33	290	0	10000	2	1	0	2	0
34	291	0	10000	2	1	0	2	0
35	292	0	10000	2	1	0	2	0
36	293	0	10000	2	1	0	2	0
35	294	0	10000	2	1	0	2	0
34	295	0	10000	2	1	0	2	0
36	296	0	10000	2	1	0	2	0
36	297	0	10000	2	1	0	2	0
34	298	0	10000	2	1	0	2	0
35	299	0	10000	2	1	0	2	0
35	300	0	10000	2	1	0	2	0
35	301	0	10000	2	1	0	2	0
34	302	0	10000	2	1	0	2	0
33	303	0	10000	2	1	0	2	0
32	304	0	10000	2	1	0	2	0
32	305	0	10000	2	1	0	2	0
29	306	0	10000	2	1	0	2	0
28	307	0	10000	2	1	0	2	0
28	308	0	10000	2	1	0	2	0
27	309	0	10000	2	1	0	2	0
27	310	0	10000	2	1	0	2	0
27	311	0	10000	2	1	0	2	0
26	312	0	10000	2	1	0	2	0
24	313	0	10000	2	1	0	2	0
23	314	0	10000	2	1	0	2	0
22	315	0	10000	2	1	0	2	0
24	316	0	10000	2	1	0	2	0
23	317	0	10000	2	1	0	2	0
22	318	0	10000	2	1	0	2	0
21	319	0	10000	2	1	0	2	0
21	320	0	10000	2	1	0	2	0
20	321	0	10000	2	1	0	2	0
19	322	0	10000	2	1	0	2	0
19	323	0	10000	2	1	0	2	0
20	324	0	10000	2	1	0	2	0
20	325	0	10000	2	1	0	2	0
18	326	0	10000	2	1	0	2	0
18	327	0	10000	2	1	0	2	0
18	328	0	10000	2	1	0	2	0
19	329	0	10000	2	1	0	2	0
18	330	0	10000	2	1	0	2	0
18	331	0	10000	2	1	0	2	0
18	332	0	10000	2	1	0	2	0
17	333	0	10000	2	1	0	2	0
17	334	0	10000	2	1	0	2	0
18	335	0	10000	2	1	0	2	0
20	336	0	10000	2	1	0	2	0
19	337	0	10000	2	1	0	2	0
20	338	0	10000	2	1	0	2	0
19	339	0	10000	2	1	0	2	0
18	340	0	10000	2	1	0	2	0
19	341	0	10000	2	1	0	2	0
18	342	0	10000	2	1	0	2	0
18	343	0	10000	2	1	0	2	0
18	344	0	10000	2	1	0	2	0
18	345	0	10000	2	1	0	2	0
15	346	0	10000	2	1	0	2	0
17	347	0	10000	2	1	0	2	0
17	348	0	10000	2	1	0	2	0
16	349	0	10000	2	1	0	2	0
16	350	0	10000	2	1	0	2	0
16	351	0	10000	2	1	0	2	0
17	352	0	10000	2	1	0	2	0
15	353	0	10000	2	1	0	2	0
14	354	0	10000	2	1	0	2	0
13	355	0	10000	2	1	0	2	0
14	356	0	10000	2	1	0	2	0
15	357	0	10000	2	1	0	2	0
13	358	0	10000	2	1	0	2	0
13	359	0	10000	2	1	0	2	0
12	360	0	10000	2	1	0	2	0
12	361	0	10000	2	1	0	2	0
11	362	0	10000	2	1	0	2	0
12	363	0	10000	2	1	0	2	0
12	364	0	10000	2	1	0	2	0
13	365	0	10000	2	1	0	2	0
11	366	0	10000	2	1	0	2	0
11	367	0	10000	2	1	0	2	0
11	368	0	10000	2	1	0	2	0
12	369	0	10000	2	1	0	2	0
12	370	0	10000	2	1	0	2	0
12	371	0	10000	2	1	0	2	0
13	372	0	10000	2	1	0	2	0
12	373	0	10000	2	1	0	2	0
11	374	0	10000	2	1	0	2	0
12	375	0	10000	2	1	0	2	0
15	376	0	10000	2	1	0	2	0
14	377	0	10000	2	1	0	2	0
13	378	0	10000	2	1	0	2	0
13	379	0	10000	2	1	0	2	0
12	380	0	10000	2	1	0	2	0
12	381	0	10000	2	1	0	2	0
11	382	0	10000	2	1	0	2	0
13	383	0	10000	2	1	0	2	0
13	384	0	10000	2	1	0	2	0
13	385	0	10000	2	1	0	2	0
12	386	0	10000	2	1	0	2	0
12	387	0	10000	2	1	0	2	0
11	388	0	10000	2	1	0	2	0
12	389	0	10000	2	1	0	2	0
11	390	0	10000	2	1	0	2	0
11	391	0	10000	2	1	0	2	0
11	392	0	10000	2	1	0	2	0
11	393	0	10000	2	1	0	2	0
11	394	0	10000	2	1	0	2	0
12	395	0	10000	2	1	0	2	0
16	396	0	10000	2	1	0	2	0
17	397	0	10000	2	1	0	2	0
18	398	0	10000	2	1	0	2	0
17	399	0	10000	2	1	0	2	0
16	400	0	10000	2	1	0	2	0
15	401	0	10000	2	1	0	2	0
15	402	0	10000	2	1	0	2	0
15	403	0	10000	2	1	0	2	0
16	404	0	10000	2	1	0	2	0
16	405	0	10000	2	1	0	2	0
14	406	0	10000	2	1	0	2	0
14	407	0	10000	2	1	0	2	0
13	408	0	10000	2	1	0	2	0
13	409	0	10000	2	1	0	2	0
13	410	0	10000	2	1	0	2	0
14	411	0	10000	2	1	0	2	0
14	412	0	10000	2	1	0	2	0
14	413	0	10000	2	1	0	2	0
14	414	0	10000	2	1	0	2	0
14	415	0	10000	2	1	0	2	0
17	416	0	10000	2	1	0	2	0
16	417	0	10000	2	1	0	2	0
15	418	0	10000	2	1	0	2	0
14	419	0	10000	2	1	0	2	0
14	420	0	10000	2	1	0	2	0
15	421	0	10000	2	1	0	2	0
15	422	0	10000	2	1	0	2	0
15	423	0	10000	2	1	0	2	0
15	424	0	10000	2	1	0	2	0
16	425	0	10000	2	1	0	2	0
14	426	0	10000	2	1	0	2	0
14	427	0	10000	2	1	0	2	0
13	428	0	10000	2	1	0	2	0
13	429	0	10000	2	1	0	2	0
13	430	0	10000	2	1	0	2	0
13	431	0	10000	2	1	0	2	0
14	432	0	10000	2	1	0	2	0
13	433	0	10000	2	1	0	2	0
12	434	0	10000	2	1	0	2	0
11	435	0	10000	2	1	0	2	0
15	436	0	10000	2	1	0	2	0
14	437	0	10000	2	1	0	2	0
13	438	0	10000	2	1	0	2	0
14	439	0	10000	2	1	0	2	0
14	440	0	10000	2	1	0	2	0
14	441	0	10000	2	1	0	2	0
14	442	0	10000	2	1	0	2	0
14	443	0	10000	2	1	0	2	0
14	444	0	10000	2	1	0	2	0
14	445	0	10000	2	1	0	2	0
11	446	0	10000	2	1	0	2	0
11	447	0	10000	2	1	0	2	0
12	448	0	10000	2	1	0	2	0
12	449	0	10000	2	1	0	2	0
12	450	0	10000	2	1	0	2	0
13	451	0	10000	2	1	0	2	0
15	452	0	10000	2	1	0	2	0
15	453	0	10000	2	1	0	2	0
13	454	0	10000	2	1	0	2	0
13	455	0	10000	2	1	0	2	0
15	456	0	10000	2	1	0	2	0
14	457	0	10000	2	1	0	2	0
14	458	0	10000	2	1	0	2	0
13	459	0	10000	2	1	0	2	0
13	460	0	10000	2	1	0	2	0
13	461	0	10000	2	1	0	2	0
13	462	0	10000	2	1	0	2	0
14	463	0	10000	2	1	0	2	0
13	464	0	10000	2	1	0	2	0
15	465	0	10000	2	1	0	2	0
12	466	0	10000	2	1	0	2	0
13	467	0	10000	2	1	0	2	0
13	468	0	10000	2	1	0	2	0
14	469	0	10000	2	1	0	2	0
14	470	0	10000	2	1	0	2	0
15	471	0	10000	2	1	0	2	0
14	472	0	10000	2	1	0	2	0
13	473	0	10000	2	1	0	2	0
12	474	0	10000	2	1	0	2	0
12	475	0	10000	2	1	0	2	0
15	476	0	10000	2	1	0	2	0
14	477	0	10000	2	1	0	2	0
13	478	0	10000	2	1	0	2	0
12	479	0	10000	2	1	0	2	0
12	480	0	10000	2	1	0	2	0
12	481	0	10000	2	1	0	2	0
12	482	0	10000	2	1	0	2	0
14	483	0	10000	2	1	0	2	0
14	484	0	10000	2	1	0	2	0
15	485	0	10000	2	1	0	2	0
12	486	0	10000	2	1	0	2	0
11	487	0	10000	2	1	0	2	0
12	488	0	10000	2	1	0	2	0
12	489	0	10000	2	1	0	2	0
12	490	0	10000	2	1	0	2	0
11	491	0	10000	2	1	0	2	0
12	492	0	10000	2	1	0	2	0
11	493	0	10000	2	1	0	2	0
10	494	0	10000	2	1	0	2	0
9	495	0	10000	2	1	0	2	0
12	496	0	10000	2	1	0	2	0
11	497	0	10000	2	1	0	2	0
11	498	0	10000	2	1	0	2	0
11	499	0	10000	2	1	0	2	0
11	500	0	10000	2	1	0	2	0
10	501	0	10000	2	1	0	2	0
10	501	0	10000	2	1	0	2	1
11	502	0	10000	2	1	0	2	1
12	504	0	10000	2	1	0	2	1
11	505	0	10000	2	1	0	2	1
10	506	0	10000	2	1	0	2	1
10	507	0	10000	2	1	0	2	1
11	508	0	10000	2	1	0	2	1
10	509	0	10000	2	1	0	2	1
10	510	0	10000	2	1	0	2	1
11	511	0	10000	2	1	0	2	1
13	512	0	10000	2	1	0	2	1
14	513	0	10000	2	1	0	2	1
16	514	0	10000	2	1	0	2	1
16	515	0	10000	2	1	0	2	1
18	516	0	10000	2	1	0	2	1
17	517	0	10000	2	1	0	2	1
16	518	0	10000	2	1	0	2	1
15	519	0	10000	2	1	0	2	1
15	520	0	10000	2	1	0	2	1
14	521	0	10000	2	1	0	2	1
14	522	0	10000	2	1	0	2	1
14	523	0	10000	2	1	0	2	1
14	524	0	10000	2	1	0	2	1
15	525	0	10000	2	1	0	2	1
13	526	0	10000	2	1	0	2	1
12	527	0	10000	2	1	0	2	1
12	528	0	10000	2	1	0	2	1
13	529	0	10000	2	1	0	2	1
12	530	0	10000	2	1	0	2	1
13	531	0	10000	2	1	0	2	1
12	532	0	10000	2	1	0	2	1
12	533	0	10000	2	1	0	2	1
11	534	0	10000	2	1	0	2	1
10	535	0	10000	2	1	0	2	1
13	536	0	10000	2	1	0	2	1
12	537	0	10000	2	1	0	2	1
11	538	0	10000	2	1	0	2	1
11	539	0	10000	2	1	0	2	1
11	540	0	10000	2	1	0	2	1
10	541	0	10000	2	1	0	2	1
11	542	0	10000	2	1	0	2	1
13	543	0	10000	2	1	0	2	1
14	544	0	10000	2	1	0	2	1
14	545	0	10000	2	1	0	2	1
13	546	0	10000	2	1	0	2	1
14	547	0	10000	2	1	0	2	1
13	548	0	10000	2	1	0	2	1
14	549	0	10000	2	1	0	2	1
13	550	0	10000	2	1	0	2	1
13	551	0	10000	2	1	0	2	1
14	552	0	10000	2	1	0	2	0
13	553	0	10000	2	1	0	2	0
12	554	0	10000	2	1	0	2	0
11	555	0	10000	2	1	0	2	0
13	556	0	10000	2	1	0	2	0
12	557	0	10000	2	1	0	2	0
11	558	0	10000	2	1	0	2	0
11	559	0	10000	2	1	0	2	0
11	560	0	10000	2	1	0	2	0
11	561	0	10000	2	1	0	2	0
10	562	0	10000	2	1	0	2	0
12	563	0	10000	2	1	0	2	0
12	564	0	10000	2	1	0	2	0
12	565	0	10000	2	1	0	2	0
9	566	0	10000	2	1	0	2	0
10	567	0	10000	2	1	0	2	0
10	568	0	10000	2	1	0	2	0
11	569	0	10000	2	1	0	2	0
12	570	0	10000	2	1	0	2	0
12	571	0	10000	2	1	0	2	0
15	572	0	10000	2	1	0	2	0
13	573	0	10000	2	1	0	2	0
13	574	0	10000	2	1	0	2	0
13	575	0	10000	2	1	0	2	0
15	576	0	10000	2	1	0	2	0
15	577	0	10000	2	1	0	2	0
15	578	0	10000	2	1	0	2	0
17	579	0	10000	2	1	0	2	0
19	580	0	10000	2	1	0	2	0
18	581	0	10000	2	1	0	2	0
19	582	0	10000	2	1	0	2	0
23	583	0	10000	2	1	0	2	0
32	584	0	10000	2	1	0	2	0
78	585	0	10000	2	1	0	2	0
99	586	0	10000	2	1	0	2	0
100	587	0	10000	2	1	0	2	0
105	588	0	10000	2	1	0	2	0
162	589	0	10000	2	1	0	2	0
240	590	0	10000	2	1	0	2	0
265	591	0	10000	2	1	0	2	0
316	592	0	10000	2	1	0	2	0
334	593	0	10000	2	1	0	2	0
399	594	0	10000	2	1	0	2	0
450	595	0	10000	2	1	0	2	0
518	596	0	10000	2	1	0	2	0
558	597	0	10000	2	1	0	2	0
569	598	0	10000	2	1	0	2	0
561	599	0	10000	2	1	0	2	0
570	600	0	10000	2	1	0	2	0
669	601	0	10000	2	1	0	2	0
691	602	0	10000	2	1	0	2	0
699	603	0	10000	2	1	0	2	0
743	604	0	10000	2	1	0	2	0
751	605	0	10000	2	1	0	2	0
765	606	0	10000	2	1	0	2	0
763	607	0	10000	2	1	0	2	0
819	608	0	10000	2	1	0	2	0
890	609	0	10000	2	1	0	2	0
931	610	0	10000	2	1	0	2	0
952	611	0	10000	2	1	0	2	0
963	612	0	10000	2	1	0	2	0
976	613	0	10000	2	1	0	2	0
1002	614	0	10000	2	1	0	2	0
1006	615	0	10000	2	1	0	2	0
1034	616	0	10000	2	1	0	2	0
1006	617	0	10000	2	1	0	2	0
994	618	0	10000	2	1	0	2	0
999	619	0	10000	2	1	0	2	0
989	620	0	10000	2	1	0	2	0
977	621	0	10000	2	1	0	2	0
936	622	0	10000	2	1	0	2	0
902	623	0	10000	2	1	0	2	0
888	624	0	10000	2	1	0	2	0
887	625	0	10000	2	1	0	2	0
890	626	0	10000	2	1	0	2	0
898	627	0	10000	2	1	0	2	0
906	628	0	10000	2	1	0	2	0
915	629	0	10000	2	1	0	2	0
921	630	0	10000	2	1	0	2	0
927	631	0	10000	2	1	0	2	0
931	632	0	10000	2	1	0	2	0
932	633	0	10000	2	1	0	2	0
933	634	0	10000	2	1	0	2	0
933	635	0	10000	2	1	0	2	0
935	636	0	10000	2	1	0	2	0
931	637	0	10000	2	1	0	2	0
925	638	0	10000	2	1	0	2	0
918	639	0	10000	2	1	0	2	0
910	640	0	10000	2	1	0	2	0
903	641	0	10000	2	1	0	2	0
891	642	0	10000	2	1	0	2	0
875	643	0	10000	2	1	0	2	0
855	644	0	10000	2	1	0	2	0
831	645	0	10000	2	1	0	2	0
802	646	0	10000	2	1	0	2	0
771	647	0	10000	2	1	0	2	0
736	648	0	10000	2	1	0	2	0
705	649	0	10000	2	1	0	2	0
683	650	0	10000	2	1	0	2	0
670	651	0	10000	2	1	0	2	0
661	652	0	10000	2	1	0	2	0
655	653	0	10000	2	1	0	2	0
652	654	0	10000	2	1	0	2	0
648	655	0	10000	2	1	0	2	0
648	656	0	10000	2	1	0	2	0
650	657	0	10000	2	1	0	2	0
652	658	0	10000	2	1	0	2	0
656	659	0	10000	2	1	0	2	0
662	660	0	10000	2	1	0	2	0
668	661	0	10000	2	1	0	2	0
675	662	0	10000	2	1	0	2	0
682	663	0	10000	2	1	0	2	0
692	664	0	10000	2	1	0	2	0
702	665	0	10000	2	1	0	2	0
711	666	0	10000	2	1	0	2	0
723	667	0	10000	2	1	0	2	0
733	668	0	10000	2	1	0	2	0
742	669	0	10000	2	1	0	2	0
750	670	0	10000	2	1	0	2	0
757	671	0	10000	2	1	0	2	0
764	672	0	10000	2	1	0	2	0
770	673	0	10000	2	1	0	2	0
776	674	0	10000	2	1	0	2	0
782	675	0	10000	2	1	0	2	0
790	676	0	10000	2	1	0	2	0
793	677	0	10000	2	1	0	2	0
795	678	0	10000	2	1	0	2	0
794	679	0	10000	2	1	0	2	0
792	680	0	10000	2	1	0	2	0
787	681	0	10000	2	1	0	2	0
778	682	0	10000	2	1	0	2	0
768	683	0	10000	2	1	0	2	0
755	684	0	10000	2	1	0	2	0
741	685	0	10000	2	1	0	2	0
723	686	0	10000	2	1	0	2	0
708	687	0	10000	2	1	0	2	0
694	688	0	10000	2	1	0	2	0
679	689	0	10000	2	1	0	2	0
664	690	0	10000	2	1	0	2	0
649	691	0	10000	2	1	0	2	0
634	692	0	10000	2	1	0	2	0
619	693	0	10000	2	1	0	2	0
604	694	0	10000	2	1	0	2	0
589	695	0	10000	2	1	0	2	0
574	696	0	10000	2	1	0	2	0
557	697	0	10000	2	1	0	2	0
538	698	0	10000	2	1	0	2	0
518	699	0	10000	2	1	0	2	0
497	700	0	10000	2	1	0	2	0
477	701	0	10000	2	1	0	2	0
458	702	0	10000	2	1	0	2	0
439	703	0	10000	2	1	0	2	0
419	704	0	10000	2	1	0	2	0
404	705	0	10000	2	1	0	2	0
387	706	0	10000	2	1	0	2	0
373	707	0	10000	2	1	0	2	0
362	708	0	10000	2	1	0	2	0
351	709	0	10000	2	1	0	2	0
341	710	0	10000	2	1	0	2	0
332	711	0	10000	2	1	0	2	0
322	712	0	10000	2	1	0	2	0
315	713	0	10000	2	1	0	2	0
309	714	0	10000	2	1	0	2	0
302	715	0	10000	2	1	0	2	0
298	716	0	10000	2	1	0	2	0
293	717	0	10000	2	1	0	2	0
289	718	0	10000	2	1	0	2	0
285	719	0	10000	2	1	0	2	0
282	720	0	10000	2	1	0	2	0
280	721	0	10000	2	1	0	2	0
280	722	0	10000	2	1	0	2	0
281	723	0	10000	2	1	0	2	0
281	724	0	10000	2	1	0	2	0
282	725	0	10000	2	1	0	2	0
281	726	0	10000	2	1	0	2	0
280	727	0	10000	2	1	0	2	0
280	728	0	10000	2	1	0	2	0
278	729	0	10000	2	1	0	2	0
278	730	0	10000	2	1	0	2	0
278	731	0	10000	2	1	0	2	0
276	732	0	10000	2	1	0	2	0
272	733	0	10000	2	1	0	2	0
269	734	0	10000	2	1	0	2	0
266	735	0	10000	2	1	0	2	0
265	736	0	10000	2	1	0	2	0
263	737	0	10000	2	1	0	2	0
261	738	0	10000	2	1	0	2	0
260	739	0	10000	2	1	0	2	0
260	740	0	10000	2	1	0	2	0
259	741	0	10000	2	1	0	2	0
259	742	0	10000	2	1	0	2	0
258	743	0	10000	2	1	0	2	0
259	744	0	10000	2	1	0	2	0
260	745	0	10000	2	1	0	2	0
259	746	0	10000	2	1	0	2	0
260	747	0	10000	2	1	0	2	0
260	748	0	10000	2	1	0	2	0
259	749	0	10000	2	1	0	2	0
256	750	0	10000	2	1	0	2	0
252	751	0	10000	2	1	0	2	0
248	752	0	10000	2	1	0	2	0
243	753	0	10000	2	1	0	2	0
239	754	0	10000	2	1	0	2	0
235	755	0	10000	2	1	0	2	0
233	756	0	10000	2	1	0	2	0
230	757	0	10000	2	1	0	2	0
227	758	0	10000	2	1	0	2	0
222	759	0	10000	2	1	0	2	0
219	760	0	10000	2	1	0	2	0
217	761	0	10000	2	1	0	2	0
214	762	0	10000	2	1	0	2	0
212	763	0	10000	2	1	0	2	0
210	764	0	10000	2	1	0	2	0
208	765	0	10000	2	1	0	2	0
203	766	0	10000	2	1	0	2	0
200	767	0	10000	2	1	0	2	0
196	768	0	10000	2	1	0	2	0
193	769	0	10000	2	1	0	2	0
189	770	0	10000	2	1	0	2	0
185	771	0	10000	2	1	0	2	0
180	772	0	10000	2	1	0	2	0
175	773	0	10000	2	1	0	2	0
170	774	0	10000	2	1	0	2	0
163	775	0	10000	2	1	0	2	0
159	776	0	10000	2	1	0	2	0
153	777	0	10000	2	1	0	2	0
146	778	0	10000	2	1	0	2	0
142	779	0	10000	2	1	0	2	0
139	780	0	10000	2	1	0	2	0
137	781	0	10000	2	1	0	2	0
134	782	0	10000	2	1	0	2	0
131	783	0	10000	2	1	0	2	0
128	784	0	10000	2	1	0	2	0
127	785	0	10000	2	1	0	2	0
124	786	0	10000	2	1	0	2	0
124	787	0	10000	2	1	0	2	0
124	788	0	10000	2	1	0	2	0
124	789	0	10000	2	1	0	2	0
122	790	0	10000	2	1	0	2	0
118	791	0	10000	2	1	0	2	0
114	792	0	10000	2	1	0	2	0
108	793	0	10000	2	1	0	2	0
104	794	0	10000	2	1	0	2	0
99	795	0	10000	2	1	0	2	0
97	796	0	10000	2	1	0	2	0
93	797	0	10000	2	1	0	2	0
90	798	0	10000	2	1	0	2	0
86	799	0	10000	2	1	0	2	0
83	800	0	10000	2	1	0	2	0
79	801	0	10000	2	1	0	2	0
76	802	0	10000	2	1	0	2	0
75	803	0	10000	2	1	0	2	0
73	804	0	10000	2	1	0	2	0
73	805	0	10000	2	1	0	2	0
70	806	0	10000	2	1	0	2	0
69	807	0	10000	2	1	0	2	0
68	808	0	10000	2	1	0	2	0
67	809	0	10000	2	1	0	2	0
67	810	0	10000	2	1	0	2	0
67	811	0	10000	2	1	0	2	0
65	812	0	10000	2	1	0	2	0
62	813	0	10000	2	1	0	2	0
59	814	0	10000	2	1	0	2	0
57	815	0	10000	2	1	0	2	0
57	816	0	10000	2	1	0	2	0
56	817	0	10000	2	1	0	2	0
54	818	0	10000	2	1	0	2	0
51	819	0	10000	2	1	0	2	0
51	820	0	10000	2	1	0	2	0
48	821	0	10000	2	1	0	2	0
46	822	0	10000	2	1	0	2	0
45	823	0	10000	2	1	0	2	0
45	824	0	10000	2	1	0	2	0
48	825	0	10000	2	1	0	2	0
47	826	0	10000	2	1	0	2	0
47	827	0	10000	2	1	0	2	0
48	828	0	10000	2	1	0	2	0
50	829	0	10000	2	1	0	2	0
50	830	0	10000	2	1	0	2	0
49	831	0	10000	2	1	0	2	0
48	832	0	10000	2	1	0	2	0
46	833	0	10000	2	1	0	2	0
44	834	0	10000	2	1	0	2	0
41	835	0	10000	2	1	0	2	0
42	836	0	10000	2	1	0	2	0
42	837	0	10000	2	1	0	2	0
42	838	0	10000	2	1	0	2	0
41	839	0	10000	2	1	0	2	0
40	840	0	10000	2	1	0	2	0
39	841	0	10000	2	1	0	2	0
37	842	0	10000	2	1	0	2	0
37	843	0	10000	2	1	0	2	0
35	844	0	10000	2	1	0	2	0
35	845	0	10000	2	1	0	2	0
33	846	0	10000	2	1	0	2	0
32	847	0	10000	2	1	0	2	0
32	848	0	10000	2	1	0	2	0
31	849	0	10000	2	1	0	2	0
31	850	0	10000	2	1	0	2	0
30	851	0	10000	2	1	0	2	0
30	852	0	10000	2	1	0	2	0
29	853	0	10000	2	1	0	2	0
29	854	0	10000	2	1	0	2	0
30	855	0	10000	2	1	0	2	0
32	856	0	10000	2	1	0	2	0
32	857	0	10000	2	1	0	2	0
30	858	0	10000	2	1	0	2	0
29	859	0	10000	2	1	0	2	0
28	860	0	10000	2	1	0	2	0
27	861	0	10000	2	1	0	2	0
25	862	0	10000	2	1	0	2	0
25	863	0	10000	2	1	0	2	0
25	864	0	10000	2	1	0	2	0
25	865	0	10000	2	1	0	2	0
23	866	0	10000	2	1	0	2	0
21	867	0	10000	2	1	0	2	0
21	868	0	10000	2	1	0	2	0
22	869	0	10000	2	1	0	2	0
22	870	0	10000	2	1	0	2	0
22	871	0	10000	2	1	0	2	0
22	872	0	10000	2	1	0	2	0
21	873	0	10000	2	1	0	2	0
20	874	0	10000	2	1	0	2	0
21	875	0	10000	2	1	0	2	0
22	876	0	10000	2	1	0	2	0
23	877	0	10000	2	1	0	2	0
23	878	0	10000	2	1	0	2	0
23	879	0	10000	2	1	0	2	0
22	880	0	10000	2	1	0	2	0
21	881	0	10000	2	1	0	2	0
20	882	0	10000	2	1	0	2	0
20	883	0	10000	2	1	0	2	0
20	884	0	10000	2	1	0	2	0
21	885	0	10000	2	1	0	2	0
20	886	0	10000	2	1	0	2	0
20	887	0	10000	2	1	0	2	0
20	888	0	10000	2	1	0	2	0
20	889	0	10000	2	1	0	2	0
19	890	0	10000	2	1	0	2	0
19	891	0	10000	2	1	0	2	0
20	892	0	10000	2	1	0	2	0
19	893	0	10000	2	1	0	2	0
19	894	0	10000	2	1	0	2	0
18	895	0	10000	2	1	0	2	0
20	896	0	10000	2	1	0	2	0
20	897	0	10000	2	1	0	2	0
20	898	0	10000	2	1	0	2	0
19	899	0	10000	2	1	0	2	0
18	900	0	10000	2	1	0	2	0
18	901	0	10000	2	1	0	2	0
18	902	0	10000	2	1	0	2	0
18	903	0	10000	2	1	0	2	0
18	904	0	10000	2	1	0	2	0
19	905	0	10000	2	1	0	2	0
17	906	0	10000	2	1	0	2	0
19	907	0	10000	2	1	0	2	0
20	908	0	10000	2	1	0	2	0
19	909	0	10000	2	1	0	2	0
20	910	0	10000	2	1	0	2	0
21	911	0	10000	2	1	0	2	0
22	912	0	10000	2	1	0	2	0
22	913	0	10000	2	1	0	2	0
22	914	0	10000	2	1	0	2	0
21	915	0	10000	2	1	0	2	0
24	916	0	10000	2	1	0	2	0
24	917	0	10000	2	1	0	2	0
24	918	0	10000	2	1	0	2	0
25	919	0	10000	2	1	0	2	0
24	920	0	10000	2	1	0	2	0
25	921	0	10000	2	1	0	2	0
24	922	0	10000	2	1	0	2	0
23	923	0	10000	2	1	0	2	0
24	924	0	10000	2	1	0	2	0
24	925	0	10000	2	1	0	2	0
22	926	0	10000	2	1	0	2	0
21	927	0	10000	2	1	0	2	0
21	928	0	10000	2	1	0	2	0
20	929	0	10000	2	1	0	2	0
20	930	0	10000	2	1	0	2	0
20	931	0	10000	2	1	0	2	0
20	932	0	10000	2	1	0	2	0
21	933	0	10000	2	1	0	2	0
22	934	0	10000	2	1	0	2	0
23	935	0	10000	2	1	0	2	0
25	936	0	10000	2	1	0	2	0
25	937	0	10000	2	1	0	2	0
26	938	0	10000	2	1	0	2	0
25	939	0	10000	2	1	0	2	0
24	940	0	10000	2	1	0	2	0
23	941	0	10000	2	1	0	2	0
22	942	0	10000	2	1	0	2	0
21	943	0	10000	2	1	0	2	0
22	944	0	10000	2	1	0	2	0
22	945	0	10000	2	1	0	2	0
21	946	0	10000	2	1	0	2	0
20	947	0	10000	2	1	0	2	0
21	948	0	10000	2	1	0	2	0
21	949	0	10000	2	1	0	2	0
20	950	0	10000	2	1	0	2	0
20	951	0	10000	2	1	0	2	0
20	952	0	10000	2	1	0	2	0
20	953	0	10000	2	1	0	2	0
20	954	0	10000	2	1	0	2	0
20	955	0	10000	2	1	0	2	0
23	956	0	10000	2	1	0	2	0
23	957	0	10000	2	1	0	2	0
23	958	0	10000	2	1	0	2	0
21	959	0	10000	2	1	0	2	0
21	960	0	10000	2	1	0	2	0
20	961	0	10000	2	1	0	2	0
20	962	0	10000	2	1	0	2	0
19	963	0	10000	2	1	0	2	0
19	964	0	10000	2	1	0	2	0
20	965	0	10000	2	1	0	2	0
18	966	0	10000	2	1	0	2	0
20	967	0	10000	2	1	0	2	0
24	968	0	10000	2	1	0	2	0
31	969	0	10000	2	1	0	2	0
37	970	0	10000	2	1	0	2	0
42	971	0	10000	2	1	0	2	0
44	972	0	10000	2	1	0	2	0
42	973	0	10000	2	1	0	2	0
41	974	0	10000	2	1	0	2	0
42	975	0	10000	2	1	0	2	0
49	976	0	10000	2	1	0	2	0
51	977	0	10000	2	1	0	2	0
51	978	0	10000	2	1	0	2	0
51	979	0	10000	2	1	0	2	0
52	980	0	10000	2	1	0	2	0
51	981	0	10000	2	1	0	2	0
52	982	0	10000	2	1	0	2	0
51	983	0	10000	2	1	0	2	0
50	984	0	10000	2	1	0	2	0
51	985	0	10000	2	1	0	2	0
47	986	0	10000	2	1	0	2	0
45	987	0	10000	2	1	0	2	0
44	988	0	10000	2	1	0	2	0
44	989	0	10000	2	1	0	2	0
43	990	0	10000	2	1	0	2	0
41	991	0	10000	2	1	0	2	0
41	992	0	10000	2	1	0	2	0
39	993	0	10000	2	1	0	2	0
38	994	0	10000	2	1	0	2	0
38	995	0	10000	2	1	0	2	0
38	996	0	10000	2	1	0	2	0
38	997	0	10000	2	1	0	2	0
37	998	0	10000	2	1	0	2	0
38	999	0	10000	2	1	0	2	0
36	1000	0	10000	2	1	0	2	0
36	1001	0	10000	2	1	0	2	0
19	2	0	10000	3	1	0	3	0
19	3	0	10000	3	1	0	3	0
18	4	0	10000	3	1	0	3	0
17	5	0	10000	3	1	0	3	0
18	6	0	10000	3	1	0	3	0
20	7	0	10000	3	1	0	3	0
20	8	0	10000	3	1	0	3	0
20	9	0	10000	3	1	0	3	0
19	10	0	10000	3	1	0	3	0
17	11	0	10000	3	1	0	3	0
17	12	0	10000	3	1	0	3	0
17	13	0	10000	3	1	0	3	0
17	14	0	10000	3	1	0	3	0
17	15	0	10000	3	1	0	3	0
17	16	0	10000	3	1	0	3	0
16	17	0	10000	3	1	0	3	0
15	18	0	10000	3	1	0	3	0
14	19	0	10000	3	1	0	3	0
14	20	0	10000	3	1	0	3	0
16	21	0	10000	3	1	0	3	0
16	21	0	10000	3	1	0	3	0
16	22	0	10000	3	1	0	3	0
16	24	0	10000	3	1	0	3	0
18	25	0	10000	3	1	0	3	0
18	26	0	10000	3	1	0	3	0
18	27	0	10000	3	1	0	3	0
20	28	0	10000	3	1	0	3	0
23	29	0	10000	3	1	0	3	0
23	30	0	10000	3	1	0	3	0
23	31	0	10000	3	1	0	3	0
23	31	0	10000	3	1	0	3	0
23	32	0	10000	3	1	0	3	0
23	34	0	10000	3	1	0	3	0
23	35	0	10000	3	1	0	3	0
24	36	0	10000	3	1	0	3	0
24	37	0	10000	3	1	0	3	0
23	38	0	10000	3	1	0	3	0
22	39	0	10000	3	1	0	3	0
21	40	0	10000	3	1	0	3	0
23	41	0	10000	3	1	0	3	0
21	41	0	10000	3	1	0	3	0
21	42	0	10000	3	1	0	3	0
20	44	0	10000	3	1	0	3	0
21	45	0	10000	3	1	0	3	0
22	46	0	10000	3	1	0	3	0
23	47	0	10000	3	1	0	3	0
23	48	0	10000	3	1	0	3	0
23	49	0	10000	3	1	0	3	0
22	50	0	10000	3	1	0	3	0
21	51	0	10000	3	1	0	3	0
23	51	0	10000	3	1	0	3	0
24	52	0	10000	3	1	0	3	0
24	54	0	10000	3	1	0	3	0
25	55	0	10000	3	1	0	3	0
25	56	0	10000	3	1	0	3	0
26	57	0	10000	3	1	0	3	0
24	58	0	10000	3	1	0	3	0
23	59	0	10000	3	1	0	3	0
23	60	0	10000	3	1	0	3	0
23	61	0	10000	3	1	0	3	0
23	61	0	10000	3	1	0	3	0
23	62	0	10000	3	1	0	3	0
22	64	0	10000	3	1	0	3	0
21	65	0	10000	3	1	0	3	0
21	66	0	10000	3	1	0	3	0
20	67	0	10000	3	1	0	3	0
20	68	0	10000	3	1	0	3	0
20	69	0	10000	3	1	0	3	0
19	70	0	10000	3	1	0	3	0
19	71	0	10000	3	1	0	3	0
19	71	0	10000	3	1	0	3	0
19	72	0	10000	3	1	0	3	0
21	74	0	10000	3	1	0	3	0
22	75	0	10000	3	1	0	3	0
22	76	0	10000	3	1	0	3	0
23	77	0	10000	3	1	0	3	0
21	78	0	10000	3	1	0	3	0
20	79	0	10000	3	1	0	3	0
20	80	0	10000	3	1	0	3	0
21	81	0	10000	3	1	0	3	0
20	81	0	10000	3	1	0	3	0
20	82	0	10000	3	1	0	3	0
19	84	0	10000	3	1	0	3	0
20	85	0	10000	3	1	0	3	0
19	86	0	10000	3	1	0	3	0
19	87	0	10000	3	1	0	3	0
20	88	0	10000	3	1	0	3	0
21	89	0	10000	3	1	0	3	0
20	90	0	10000	3	1	0	3	0
19	91	0	10000	3	1	0	3	0
20	91	0	10000	3	1	0	3	0
20	92	0	10000	3	1	0	3	0
21	94	0	10000	3	1	0	3	0
20	95	0	10000	3	1	0	3	0
21	96	0	10000	3	1	0	3	0
20	97	0	10000	3	1	0	3	0
21	98	0	10000	3	1	0	3	0
21	99	0	10000	3	1	0	3	0
21	100	0	10000	3	1	0	3	0
23	101	0	10000	3	1	0	3	0
22	101	0	10000	3	1	0	3	0
21	102	0	10000	3	1	0	3	0
20	104	0	10000	3	1	0	3	0
20	105	0	10000	3	1	0	3	0
19	106	0	10000	3	1	0	3	0
19	107	0	10000	3	1	0	3	0
19	108	0	10000	3	1	0	3	0
18	109	0	10000	3	1	0	3	0
17	110	0	10000	3	1	0	3	0
15	111	0	10000	3	1	0	3	0
15	111	0	10000	3	1	0	3	0
16	112	0	10000	3	1	0	3	0
16	114	0	10000	3	1	0	3	0
15	115	0	10000	3	1	0	3	0
15	116	0	10000	3	1	0	3	0
16	117	0	10000	3	1	0	3	0
15	118	0	10000	3	1	0	3	0
14	119	0	10000	3	1	0	3	0
16	120	0	10000	3	1	0	3	0
20	121	0	10000	3	1	0	3	0
21	121	0	10000	3	1	0	3	0
21	122	0	10000	3	1	0	3	0
20	124	0	10000	3	1	0	3	0
20	125	0	10000	3	1	0	3	0
20	126	0	10000	3	1	0	3	0
19	127	0	10000	3	1	0	3	0
19	128	0	10000	3	1	0	3	0
19	129	0	10000	3	1	0	3	0
17	130	0	10000	3	1	0	3	0
15	131	0	10000	3	1	0	3	0
15	131	0	10000	3	1	0	3	0
15	132	0	10000	3	1	0	3	0
16	134	0	10000	3	1	0	3	0
15	135	0	10000	3	1	0	3	0
15	136	0	10000	3	1	0	3	0
14	137	0	10000	3	1	0	3	0
13	138	0	10000	3	1	0	3	0
13	139	0	10000	3	1	0	3	0
13	140	0	10000	3	1	0	3	0
14	141	0	10000	3	1	0	3	0
14	141	0	10000	3	1	0	3	0
14	142	0	10000	3	1	0	3	0
15	144	0	10000	3	1	0	3	0
17	145	0	10000	3	1	0	3	0
17	146	0	10000	3	1	0	3	0
16	147	0	10000	3	1	0	3	0
16	148	0	10000	3	1	0	3	0
17	149	0	10000	3	1	0	3	0
15	150	0	10000	3	1	0	3	0
14	151	0	10000	3	1	0	3	0
17	151	0	10000	3	1	0	3	0
17	152	0	10000	3	1	0	3	0
19	154	0	10000	3	1	0	3	0
20	155	0	10000	3	1	0	3	0
19	156	0	10000	3	1	0	3	0
19	157	0	10000	3	1	0	3	0
19	158	0	10000	3	1	0	3	0
17	159	0	10000	3	1	0	3	0
17	160	0	10000	3	1	0	3	0
18	161	0	10000	3	1	0	3	0
17	161	0	10000	3	1	0	3	0
18	162	0	10000	3	1	0	3	0
17	164	0	10000	3	1	0	3	0
16	165	0	10000	3	1	0	3	0
16	166	0	10000	3	1	0	3	0
16	167	0	10000	3	1	0	3	0
15	168	0	10000	3	1	0	3	0
16	169	0	10000	3	1	0	3	0
16	170	0	10000	3	1	0	3	0
14	171	0	10000	3	1	0	3	0
14	171	0	10000	3	1	0	3	0
15	172	0	10000	3	1	0	3	0
16	174	0	10000	3	1	0	3	0
16	175	0	10000	3	1	0	3	0
16	176	0	10000	3	1	0	3	0
15	177	0	10000	3	1	0	3	0
14	178	0	10000	3	1	0	3	0
14	179	0	10000	3	1	0	3	0
14	180	0	10000	3	1	0	3	0
16	181	0	10000	3	1	0	3	0
15	181	0	10000	3	1	0	3	0
15	182	0	10000	3	1	0	3	0
14	184	0	10000	3	1	0	3	0
15	185	0	10000	3	1	0	3	0
15	186	0	10000	3	1	0	3	0
14	187	0	10000	3	1	0	3	0
14	188	0	10000	3	1	0	3	0
16	189	0	10000	3	1	0	3	0
16	190	0	10000	3	1	0	3	0
14	191	0	10000	3	1	0	3	0
14	191	0	10000	3	1	0	3	0
14	192	0	10000	3	1	0	3	0
14	194	0	10000	3	1	0	3	0
14	195	0	10000	3	1	0	3	0
14	196	0	10000	3	1	0	3	0
14	197	0	10000	3	1	0	3	0
14	198	0	10000	3	1	0	3	0
13	199	0	10000	3	1	0	3	0
13	200	0	10000	3	1	0	3	0
16	201	0	10000	3	1	0	3	0
16	201	0	10000	3	1	0	3	0
17	202	0	10000	3	1	0	3	0
16	204	0	10000	3	1	0	3	0
16	205	0	10000	3	1	0	3	0
15	206	0	10000	3	1	0	3	0
15	207	0	10000	3	1	0	3	0
15	208	0	10000	3	1	0	3	0
15	209	0	10000	3	1	0	3	0
14	210	0	10000	3	1	0	3	0
12	211	0	10000	3	1	0	3	0
12	211	0	10000	3	1	0	3	0
12	212	0	10000	3	1	0	3	0
13	214	0	10000	3	1	0	3	0
13	215	0	10000	3	1	0	3	0
13	216	0	10000	3	1	0	3	0
14	217	0	10000	3	1	0	3	0
14	218	0	10000	3	1	0	3	0
13	219	0	10000	3	1	0	3	0
12	220	0	10000	3	1	0	3	0
14	221	0	10000	3	1	0	3	0
13	221	0	10000	3	1	0	3	0
13	222	0	10000	3	1	0	3	0
12	224	0	10000	3	1	0	3	0
12	225	0	10000	3	1	0	3	0
12	226	0	10000	3	1	0	3	0
13	227	0	10000	3	1	0	3	0
12	228	0	10000	3	1	0	3	0
13	229	0	10000	3	1	0	3	0
13	230	0	10000	3	1	0	3	0
13	231	0	10000	3	1	0	3	0
15	231	0	10000	3	1	0	3	0
16	232	0	10000	3	1	0	3	0
17	234	0	10000	3	1	0	3	0
17	235	0	10000	3	1	0	3	0
19	236	0	10000	3	1	0	3	0
17	237	0	10000	3	1	0	3	0
17	238	0	10000	3	1	0	3	0
17	239	0	10000	3	1	0	3	0
17	240	0	10000	3	1	0	3	0
20	241	0	10000	3	1	0	3	0
19	241	0	10000	3	1	0	3	0
19	242	0	10000	3	1	0	3	0
19	244	0	10000	3	1	0	3	0
18	245	0	10000	3	1	0	3	0
18	246	0	10000	3	1	0	3	0
18	247	0	10000	3	1	0	3	0
20	248	0	10000	3	1	0	3	0
20	249	0	10000	3	1	0	3	0
20	250	0	10000	3	1	0	3	0
18	251	0	10000	3	1	0	3	0
19	251	0	10000	3	1	0	3	0
19	252	0	10000	3	1	0	3	0
19	254	0	10000	3	1	0	3	0
19	255	0	10000	3	1	0	3	0
19	256	0	10000	3	1	0	3	0
19	257	0	10000	3	1	0	3	0
18	258	0	10000	3	1	0	3	0
18	259	0	10000	3	1	0	3	0
18	260	0	10000	3	1	0	3	0
20	261	0	10000	3	1	0	3	0
20	261	0	10000	3	1	0	3	0
20	262	0	10000	3	1	0	3	0
20	264	0	10000	3	1	0	3	0
19	265	0	10000	3	1	0	3	0
18	266	0	10000	3	1	0	3	0
18	267	0	10000	3	1	0	3	0
19	268	0	10000	3	1	0	3	0
19	269	0	10000	3	1	0	3	0
17	270	0	10000	3	1	0	3	0
15	271	0	10000	3	1	0	3	0
16	271	0	10000	3	1	0	3	0
18	272	0	10000	3	1	0	3	0
18	274	0	10000	3	1	0	3	0
19	275	0	10000	3	1	0	3	0
19	276	0	10000	3	1	0	3	0
20	277	0	10000	3	1	0	3	0
20	278	0	10000	3	1	0	3	0
19	279	0	10000	3	1	0	3	0
20	280	0	10000	3	1	0	3	0
20	281	0	10000	3	1	0	3	0
20	281	0	10000	3	1	0	3	0
21	282	0	10000	3	1	0	3	0
20	284	0	10000	3	1	0	3	0
19	285	0	10000	3	1	0	3	0
18	286	0	10000	3	1	0	3	0
17	287	0	10000	3	1	0	3	0
17	288	0	10000	3	1	0	3	0
18	289	0	10000	3	1	0	3	0
17	290	0	10000	3	1	0	3	0
15	291	0	10000	3	1	0	3	0
15	291	0	10000	3	1	0	3	0
15	292	0	10000	3	1	0	3	0
16	294	0	10000	3	1	0	3	0
15	295	0	10000	3	1	0	3	0
16	296	0	10000	3	1	0	3	0
16	297	0	10000	3	1	0	3	0
14	298	0	10000	3	1	0	3	0
15	299	0	10000	3	1	0	3	0
17	300	0	10000	3	1	0	3	0
19	301	0	10000	3	1	0	3	0
18	301	0	10000	3	1	0	3	0
19	302	0	10000	3	1	0	3	0
17	304	0	10000	3	1	0	3	0
18	305	0	10000	3	1	0	3	0
18	306	0	10000	3	1	0	3	0
16	307	0	10000	3	1	0	3	0
19	308	0	10000	3	1	0	3	0
19	309	0	10000	3	1	0	3	0
18	310	0	10000	3	1	0	3	0
15	311	0	10000	3	1	0	3	0
15	311	0	10000	3	1	0	3	0
16	312	0	10000	3	1	0	3	0
17	314	0	10000	3	1	0	3	0
17	315	0	10000	3	1	0	3	0
17	316	0	10000	3	1	0	3	0
17	317	0	10000	3	1	0	3	0
16	318	0	10000	3	1	0	3	0
15	319	0	10000	3	1	0	3	0
15	320	0	10000	3	1	0	3	0
17	321	0	10000	3	1	0	3	0
16	321	0	10000	3	1	0	3	0
16	322	0	10000	3	1	0	3	0
16	324	0	10000	3	1	0	3	0
17	325	0	10000	3	1	0	3	0
18	326	0	10000	3	1	0	3	0
18	327	0	10000	3	1	0	3	0
19	328	0	10000	3	1	0	3	0
19	329	0	10000	3	1	0	3	0
19	330	0	10000	3	1	0	3	0
16	331	0	10000	3	1	0	3	0
17	331	0	10000	3	1	0	3	0
18	332	0	10000	3	1	0	3	0
19	334	0	10000	3	1	0	3	0
20	335	0	10000	3	1	0	3	0
20	336	0	10000	3	1	0	3	0
20	337	0	10000	3	1	0	3	0
18	338	0	10000	3	1	0	3	0
18	339	0	10000	3	1	0	3	0
18	340	0	10000	3	1	0	3	0
20	341	0	10000	3	1	0	3	0
19	341	0	10000	3	1	0	3	0
17	342	0	10000	3	1	0	3	0
17	344	0	10000	3	1	0	3	0
17	345	0	10000	3	1	0	3	0
18	346	0	10000	3	1	0	3	0
19	347	0	10000	3	1	0	3	0
19	348	0	10000	3	1	0	3	0
20	349	0	10000	3	1	0	3	0
21	350	0	10000	3	1	0	3	0
21	351	0	10000	3	1	0	3	0
20	351	0	10000	3	1	0	3	0
20	352	0	10000	3	1	0	3	0
20	354	0	10000	3	1	0	3	0
19	355	0	10000	3	1	0	3	0
19	356	0	10000	3	1	0	3	0
18	357	0	10000	3	1	0	3	0
17	358	0	10000	3	1	0	3	0
16	359	0	10000	3	1	0	3	0
16	360	0	10000	3	1	0	3	0
18	361	0	10000	3	1	0	3	0
18	361	0	10000	3	1	0	3	0
19	362	0	10000	3	1	0	3	0
20	364	0	10000	3	1	0	3	0
22	365	0	10000	3	1	0	3	0
23	366	0	10000	3	1	0	3	0
24	367	0	10000	3	1	0	3	0
25	368	0	10000	3	1	0	3	0
25	369	0	10000	3	1	0	3	0
24	370	0	10000	3	1	0	3	0
22	371	0	10000	3	1	0	3	0
23	371	0	10000	3	1	0	3	0
23	372	0	10000	3	1	0	3	0
25	374	0	10000	3	1	0	3	0
25	375	0	10000	3	1	0	3	0
24	376	0	10000	3	1	0	3	0
24	377	0	10000	3	1	0	3	0
22	378	0	10000	3	1	0	3	0
20	379	0	10000	3	1	0	3	0
21	380	0	10000	3	1	0	3	0
23	381	0	10000	3	1	0	3	0
23	381	0	10000	3	1	0	3	0
22	382	0	10000	3	1	0	3	0
20	384	0	10000	3	1	0	3	0
20	385	0	10000	3	1	0	3	0
20	386	0	10000	3	1	0	3	0
19	387	0	10000	3	1	0	3	0
20	388	0	10000	3	1	0	3	0
20	389	0	10000	3	1	0	3	0
19	390	0	10000	3	1	0	3	0
17	391	0	10000	3	1	0	3	0
17	391	0	10000	3	1	0	3	0
18	392	0	10000	3	1	0	3	0
18	394	0	10000	3	1	0	3	0
19	395	0	10000	3	1	0	3	0
18	396	0	10000	3	1	0	3	0
19	397	0	10000	3	1	0	3	0
19	398	0	10000	3	1	0	3	0
20	399	0	10000	3	1	0	3	0
20	400	0	10000	3	1	0	3	0
21	401	0	10000	3	1	0	3	0
20	401	0	10000	3	1	0	3	0
20	402	0	10000	3	1	0	3	0
22	404	0	10000	3	1	0	3	0
24	405	0	10000	3	1	0	3	0
25	406	0	10000	3	1	0	3	0
22	407	0	10000	3	1	0	3	0
22	408	0	10000	3	1	0	3	0
23	409	0	10000	3	1	0	3	0
22	410	0	10000	3	1	0	3	0
21	411	0	10000	3	1	0	3	0
22	411	0	10000	3	1	0	3	0
21	412	0	10000	3	1	0	3	0
22	414	0	10000	3	1	0	3	0
22	415	0	10000	3	1	0	3	0
21	416	0	10000	3	1	0	3	0
21	417	0	10000	3	1	0	3	0
19	418	0	10000	3	1	0	3	0
19	419	0	10000	3	1	0	3	0
19	420	0	10000	3	1	0	3	0
21	421	0	10000	3	1	0	3	0
21	421	0	10000	3	1	0	3	0
20	422	0	10000	3	1	0	3	0
19	424	0	10000	3	1	0	3	0
19	425	0	10000	3	1	0	3	0
18	426	0	10000	3	1	0	3	0
19	427	0	10000	3	1	0	3	0
20	428	0	10000	3	1	0	3	0
20	429	0	10000	3	1	0	3	0
20	430	0	10000	3	1	0	3	0
18	431	0	10000	3	1	0	3	0
18	431	0	10000	3	1	0	3	0
19	432	0	10000	3	1	0	3	0
20	434	0	10000	3	1	0	3	0
19	435	0	10000	3	1	0	3	0
20	436	0	10000	3	1	0	3	0
20	437	0	10000	3	1	0	3	0
21	438	0	10000	3	1	0	3	0
20	439	0	10000	3	1	0	3	0
21	440	0	10000	3	1	0	3	0
22	441	0	10000	3	1	0	3	0
21	441	0	10000	3	1	0	3	0
20	442	0	10000	3	1	0	3	0
19	444	0	10000	3	1	0	3	0
19	445	0	10000	3	1	0	3	0
18	446	0	10000	3	1	0	3	0
18	447	0	10000	3	1	0	3	0
19	448	0	10000	3	1	0	3	0
19	449	0	10000	3	1	0	3	0
20	450	0	10000	3	1	0	3	0
18	451	0	10000	3	1	0	3	0
19	451	0	10000	3	1	0	3	0
18	452	0	10000	3	1	0	3	0
19	454	0	10000	3	1	0	3	0
18	455	0	10000	3	1	0	3	0
20	456	0	10000	3	1	0	3	0
21	457	0	10000	3	1	0	3	0
21	458	0	10000	3	1	0	3	0
20	459	0	10000	3	1	0	3	0
20	460	0	10000	3	1	0	3	0
21	461	0	10000	3	1	0	3	0
21	461	0	10000	3	1	0	3	0
22	462	0	10000	3	1	0	3	0
23	464	0	10000	3	1	0	3	0
23	465	0	10000	3	1	0	3	0
23	466	0	10000	3	1	0	3	0
23	467	0	10000	3	1	0	3	0
24	468	0	10000	3	1	0	3	0
25	469	0	10000	3	1	0	3	0
26	470	0	10000	3	1	0	3	0
24	471	0	10000	3	1	0	3	0
24	471	0	10000	3	1	0	3	0
24	472	0	10000	3	1	0	3	0
23	474	0	10000	3	1	0	3	0
24	475	0	10000	3	1	0	3	0
24	476	0	10000	3	1	0	3	0
24	477	0	10000	3	1	0	3	0
22	478	0	10000	3	1	0	3	0
21	479	0	10000	3	1	0	3	0
20	480	0	10000	3	1	0	3	0
21	481	0	10000	3	1	0	3	0
20	481	0	10000	3	1	0	3	0
20	482	0	10000	3	1	0	3	0
21	484	0	10000	3	1	0	3	0
20	485	0	10000	3	1	0	3	0
19	486	0	10000	3	1	0	3	0
19	487	0	10000	3	1	0	3	0
20	488	0	10000	3	1	0	3	0
21	489	0	10000	3	1	0	3	0
20	490	0	10000	3	1	0	3	0
18	491	0	10000	3	1	0	3	0
19	491	0	10000	3	1	0	3	0
20	492	0	10000	3	1	0	3	0
20	494	0	10000	3	1	0	3	0
20	495	0	10000	3	1	0	3	0
20	496	0	10000	3	1	0	3	0
20	497	0	10000	3	1	0	3	0
20	498	0	10000	3	1	0	3	0
19	499	0	10000	3	1	0	3	0
19	500	0	10000	3	1	0	3	0
20	501	0	10000	3	1	0	3	0
20	502	0	10000	3	1	0	3	1
19	503	0	10000	3	1	0	3	1
18	504	0	10000	3	1	0	3	1
18	505	0	10000	3	1	0	3	1
19	506	0	10000	3	1	0	3	1
21	507	0	10000	3	1	0	3	1
22	508	0	10000	3	1	0	3	1
22	509	0	10000	3	1	0	3	1
21	510	0	10000	3	1	0	3	1
19	511	0	10000	3	1	0	3	1
19	511	0	10000	3	1	0	3	1
20	512	0	10000	3	1	0	3	1
19	514	0	10000	3	1	0	3	1
19	515	0	10000	3	1	0	3	1
19	516	0	10000	3	1	0	3	1
20	517	0	10000	3	1	0	3	1
22	518	0	10000	3	1	0	3	1
22	519	0	10000	3	1	0	3	1
23	520	0	10000	3	1	0	3	1
26	521	0	10000	3	1	0	3	1
25	521	0	10000	3	1	0	3	1
25	522	0	10000	3	1	0	3	1
24	524	0	10000	3	1	0	3	1
24	525	0	10000	3	1	0	3	1
24	526	0	10000	3	1	0	3	1
23	527	0	10000	3	1	0	3	1
23	528	0	10000	3	1	0	3	1
22	529	0	10000	3	1	0	3	1
22	530	0	10000	3	1	0	3	1
19	531	0	10000	3	1	0	3	1
20	531	0	10000	3	1	0	3	1
21	532	0	10000	3	1	0	3	1
21	534	0	10000	3	1	0	3	1
20	535	0	10000	3	1	0	3	1
20	536	0	10000	3	1	0	3	1
22	537	0	10000	3	1	0	3	1
27	538	0	10000	3	1	0	3	1
29	539	0	10000	3	1	0	3	1
29	540	0	10000	3	1	0	3	1
32	541	0	10000	3	1	0	3	1
32	541	0	10000	3	1	0	3	1
31	542	0	10000	3	1	0	3	1
29	544	0	10000	3	1	0	3	1
29	545	0	10000	3	1	0	3	1
29	546	0	10000	3	1	0	3	1
29	547	0	10000	3	1	0	3	1
30	548	0	10000	3	1	0	3	1
31	549	0	10000	3	1	0	3	1
28	550	0	10000	3	1	0	3	1
28	551	0	10000	3	1	0	3	1
37	551	0	10000	3	1	0	3	0
45	552	0	10000	3	1	0	3	0
48	554	0	10000	3	1	0	3	0
48	555	0	10000	3	1	0	3	0
50	556	0	10000	3	1	0	3	0
49	557	0	10000	3	1	0	3	0
48	558	0	10000	3	1	0	3	0
47	559	0	10000	3	1	0	3	0
56	560	0	10000	3	1	0	3	0
67	561	0	10000	3	1	0	3	0
67	561	0	10000	3	1	0	3	0
72	562	0	10000	3	1	0	3	0
80	564	0	10000	3	1	0	3	0
80	565	0	10000	3	1	0	3	0
76	566	0	10000	3	1	0	3	0
83	567	0	10000	3	1	0	3	0
93	568	0	10000	3	1	0	3	0
97	569	0	10000	3	1	0	3	0
96	570	0	10000	3	1	0	3	0
95	571	0	10000	3	1	0	3	0
91	571	0	10000	3	1	0	3	0
88	572	0	10000	3	1	0	3	0
87	574	0	10000	3	1	0	3	0
88	575	0	10000	3	1	0	3	0
107	576	0	10000	3	1	0	3	0
128	577	0	10000	3	1	0	3	0
130	578	0	10000	3	1	0	3	0
152	579	0	10000	3	1	0	3	0
161	580	0	10000	3	1	0	3	0
178	581	0	10000	3	1	0	3	0
177	581	0	10000	3	1	0	3	0
205	582	0	10000	3	1	0	3	0
258	584	0	10000	3	1	0	3	0
288	585	0	10000	3	1	0	3	0
309	586	0	10000	3	1	0	3	0
343	587	0	10000	3	1	0	3	0
343	588	0	10000	3	1	0	3	0
377	589	0	10000	3	1	0	3	0
411	590	0	10000	3	1	0	3	0
505	591	0	10000	3	1	0	3	0
541	591	0	10000	3	1	0	3	0
667	592	0	10000	3	1	0	3	0
777	594	0	10000	3	1	0	3	0
777	595	0	10000	3	1	0	3	0
865	596	0	10000	3	1	0	3	0
922	597	0	10000	3	1	0	3	0
959	598	0	10000	3	1	0	3	0
1021	599	0	10000	3	1	0	3	0
1089	600	0	10000	3	1	0	3	0
1076	601	0	10000	3	1	0	3	0
1066	601	0	10000	3	1	0	3	0
1146	602	0	10000	3	1	0	3	0
1143	604	0	10000	3	1	0	3	0
1121	605	0	10000	3	1	0	3	0
1110	606	0	10000	3	1	0	3	0
1098	607	0	10000	3	1	0	3	0
1132	608	0	10000	3	1	0	3	0
1161	609	0	10000	3	1	0	3	0
1125	610	0	10000	3	1	0	3	0
1095	611	0	10000	3	1	0	3	0
1049	611	0	10000	3	1	0	3	0
1008	612	0	10000	3	1	0	3	0
969	614	0	10000	3	1	0	3	0
935	615	0	10000	3	1	0	3	0
906	616	0	10000	3	1	0	3	0
896	617	0	10000	3	1	0	3	0
881	618	0	10000	3	1	0	3	0
858	619	0	10000	3	1	0	3	0
834	620	0	10000	3	1	0	3	0
816	621	0	10000	3	1	0	3	0
801	621	0	10000	3	1	0	3	0
788	622	0	10000	3	1	0	3	0
779	624	0	10000	3	1	0	3	0
771	625	0	10000	3	1	0	3	0
762	626	0	10000	3	1	0	3	0
755	627	0	10000	3	1	0	3	0
750	628	0	10000	3	1	0	3	0
740	629	0	10000	3	1	0	3	0
727	630	0	10000	3	1	0	3	0
713	631	0	10000	3	1	0	3	0
696	631	0	10000	3	1	0	3	0
677	632	0	10000	3	1	0	3	0
658	634	0	10000	3	1	0	3	0
640	635	0	10000	3	1	0	3	0
616	636	0	10000	3	1	0	3	0
590	637	0	10000	3	1	0	3	0
562	638	0	10000	3	1	0	3	0
538	639	0	10000	3	1	0	3	0
518	640	0	10000	3	1	0	3	0
501	641	0	10000	3	1	0	3	0
482	641	0	10000	3	1	0	3	0
469	642	0	10000	3	1	0	3	0
458	644	0	10000	3	1	0	3	0
450	645	0	10000	3	1	0	3	0
441	646	0	10000	3	1	0	3	0
433	647	0	10000	3	1	0	3	0
429	648	0	10000	3	1	0	3	0
428	649	0	10000	3	1	0	3	0
429	650	0	10000	3	1	0	3	0
429	651	0	10000	3	1	0	3	0
435	651	0	10000	3	1	0	3	0
440	652	0	10000	3	1	0	3	0
448	654	0	10000	3	1	0	3	0
454	655	0	10000	3	1	0	3	0
461	656	0	10000	3	1	0	3	0
468	657	0	10000	3	1	0	3	0
474	658	0	10000	3	1	0	3	0
480	659	0	10000	3	1	0	3	0
488	660	0	10000	3	1	0	3	0
497	661	0	10000	3	1	0	3	0
502	661	0	10000	3	1	0	3	0
505	662	0	10000	3	1	0	3	0
507	664	0	10000	3	1	0	3	0
509	665	0	10000	3	1	0	3	0
509	666	0	10000	3	1	0	3	0
509	667	0	10000	3	1	0	3	0
509	668	0	10000	3	1	0	3	0
506	669	0	10000	3	1	0	3	0
501	670	0	10000	3	1	0	3	0
495	671	0	10000	3	1	0	3	0
492	671	0	10000	3	1	0	3	0
489	672	0	10000	3	1	0	3	0
488	674	0	10000	3	1	0	3	0
487	675	0	10000	3	1	0	3	0
484	676	0	10000	3	1	0	3	0
480	677	0	10000	3	1	0	3	0
475	678	0	10000	3	1	0	3	0
468	679	0	10000	3	1	0	3	0
459	680	0	10000	3	1	0	3	0
451	681	0	10000	3	1	0	3	0
438	681	0	10000	3	1	0	3	0
424	682	0	10000	3	1	0	3	0
409	684	0	10000	3	1	0	3	0
393	685	0	10000	3	1	0	3	0
379	686	0	10000	3	1	0	3	0
362	687	0	10000	3	1	0	3	0
347	688	0	10000	3	1	0	3	0
332	689	0	10000	3	1	0	3	0
317	690	0	10000	3	1	0	3	0
300	691	0	10000	3	1	0	3	0
286	691	0	10000	3	1	0	3	0
273	692	0	10000	3	1	0	3	0
261	694	0	10000	3	1	0	3	0
250	695	0	10000	3	1	0	3	0
239	696	0	10000	3	1	0	3	0
232	697	0	10000	3	1	0	3	0
224	698	0	10000	3	1	0	3	0
219	699	0	10000	3	1	0	3	0
213	700	0	10000	3	1	0	3	0
211	701	0	10000	3	1	0	3	0
208	701	0	10000	3	1	0	3	0
205	702	0	10000	3	1	0	3	0
204	704	0	10000	3	1	0	3	0
203	705	0	10000	3	1	0	3	0
203	706	0	10000	3	1	0	3	0
204	707	0	10000	3	1	0	3	0
205	708	0	10000	3	1	0	3	0
206	709	0	10000	3	1	0	3	0
205	710	0	10000	3	1	0	3	0
203	711	0	10000	3	1	0	3	0
202	711	0	10000	3	1	0	3	0
200	712	0	10000	3	1	0	3	0
196	714	0	10000	3	1	0	3	0
191	715	0	10000	3	1	0	3	0
187	716	0	10000	3	1	0	3	0
184	717	0	10000	3	1	0	3	0
181	718	0	10000	3	1	0	3	0
178	719	0	10000	3	1	0	3	0
175	720	0	10000	3	1	0	3	0
176	721	0	10000	3	1	0	3	0
176	721	0	10000	3	1	0	3	0
175	722	0	10000	3	1	0	3	0
174	724	0	10000	3	1	0	3	0
174	725	0	10000	3	1	0	3	0
174	726	0	10000	3	1	0	3	0
174	727	0	10000	3	1	0	3	0
175	728	0	10000	3	1	0	3	0
176	729	0	10000	3	1	0	3	0
176	730	0	10000	3	1	0	3	0
172	731	0	10000	3	1	0	3	0
170	731	0	10000	3	1	0	3	0
164	732	0	10000	3	1	0	3	0
161	734	0	10000	3	1	0	3	0
159	735	0	10000	3	1	0	3	0
157	736	0	10000	3	1	0	3	0
155	737	0	10000	3	1	0	3	0
153	738	0	10000	3	1	0	3	0
152	739	0	10000	3	1	0	3	0
152	740	0	10000	3	1	0	3	0
155	741	0	10000	3	1	0	3	0
153	741	0	10000	3	1	0	3	0
150	742	0	10000	3	1	0	3	0
148	744	0	10000	3	1	0	3	0
147	745	0	10000	3	1	0	3	0
146	746	0	10000	3	1	0	3	0
144	747	0	10000	3	1	0	3	0
142	748	0	10000	3	1	0	3	0
140	749	0	10000	3	1	0	3	0
140	750	0	10000	3	1	0	3	0
136	751	0	10000	3	1	0	3	0
134	751	0	10000	3	1	0	3	0
131	752	0	10000	3	1	0	3	0
127	754	0	10000	3	1	0	3	0
123	755	0	10000	3	1	0	3	0
120	756	0	10000	3	1	0	3	0
116	757	0	10000	3	1	0	3	0
110	758	0	10000	3	1	0	3	0
106	759	0	10000	3	1	0	3	0
104	760	0	10000	3	1	0	3	0
106	761	0	10000	3	1	0	3	0
104	761	0	10000	3	1	0	3	0
103	762	0	10000	3	1	0	3	0
101	764	0	10000	3	1	0	3	0
100	765	0	10000	3	1	0	3	0
100	766	0	10000	3	1	0	3	0
100	767	0	10000	3	1	0	3	0
101	768	0	10000	3	1	0	3	0
99	769	0	10000	3	1	0	3	0
97	770	0	10000	3	1	0	3	0
94	771	0	10000	3	1	0	3	0
92	771	0	10000	3	1	0	3	0
90	772	0	10000	3	1	0	3	0
87	774	0	10000	3	1	0	3	0
83	775	0	10000	3	1	0	3	0
81	776	0	10000	3	1	0	3	0
81	777	0	10000	3	1	0	3	0
80	778	0	10000	3	1	0	3	0
76	779	0	10000	3	1	0	3	0
74	780	0	10000	3	1	0	3	0
73	781	0	10000	3	1	0	3	0
71	781	0	10000	3	1	0	3	0
68	782	0	10000	3	1	0	3	0
67	784	0	10000	3	1	0	3	0
65	785	0	10000	3	1	0	3	0
65	786	0	10000	3	1	0	3	0
66	787	0	10000	3	1	0	3	0
67	788	0	10000	3	1	0	3	0
66	789	0	10000	3	1	0	3	0
64	790	0	10000	3	1	0	3	0
60	791	0	10000	3	1	0	3	0
58	791	0	10000	3	1	0	3	0
56	792	0	10000	3	1	0	3	0
55	794	0	10000	3	1	0	3	0
53	795	0	10000	3	1	0	3	0
52	796	0	10000	3	1	0	3	0
50	797	0	10000	3	1	0	3	0
48	798	0	10000	3	1	0	3	0
47	799	0	10000	3	1	0	3	0
45	800	0	10000	3	1	0	3	0
46	801	0	10000	3	1	0	3	0
46	801	0	10000	3	1	0	3	0
45	802	0	10000	3	1	0	3	0
44	804	0	10000	3	1	0	3	0
43	805	0	10000	3	1	0	3	0
42	806	0	10000	3	1	0	3	0
41	807	0	10000	3	1	0	3	0
42	808	0	10000	3	1	0	3	0
44	809	0	10000	3	1	0	3	0
45	810	0	10000	3	1	0	3	0
43	811	0	10000	3	1	0	3	0
41	811	0	10000	3	1	0	3	0
40	812	0	10000	3	1	0	3	0
40	814	0	10000	3	1	0	3	0
39	815	0	10000	3	1	0	3	0
38	816	0	10000	3	1	0	3	0
38	817	0	10000	3	1	0	3	0
37	818	0	10000	3	1	0	3	0
37	819	0	10000	3	1	0	3	0
35	820	0	10000	3	1	0	3	0
36	821	0	10000	3	1	0	3	0
36	821	0	10000	3	1	0	3	0
36	822	0	10000	3	1	0	3	0
36	824	0	10000	3	1	0	3	0
36	825	0	10000	3	1	0	3	0
36	826	0	10000	3	1	0	3	0
36	827	0	10000	3	1	0	3	0
36	828	0	10000	3	1	0	3	0
35	829	0	10000	3	1	0	3	0
36	830	0	10000	3	1	0	3	0
34	831	0	10000	3	1	0	3	0
35	831	0	10000	3	1	0	3	0
36	832	0	10000	3	1	0	3	0
35	834	0	10000	3	1	0	3	0
35	835	0	10000	3	1	0	3	0
36	836	0	10000	3	1	0	3	0
36	837	0	10000	3	1	0	3	0
35	838	0	10000	3	1	0	3	0
35	839	0	10000	3	1	0	3	0
35	840	0	10000	3	1	0	3	0
36	841	0	10000	3	1	0	3	0
35	841	0	10000	3	1	0	3	0
33	842	0	10000	3	1	0	3	0
32	844	0	10000	3	1	0	3	0
32	845	0	10000	3	1	0	3	0
32	846	0	10000	3	1	0	3	0
32	847	0	10000	3	1	0	3	0
33	848	0	10000	3	1	0	3	0
34	849	0	10000	3	1	0	3	0
35	850	0	10000	3	1	0	3	0
32	851	0	10000	3	1	0	3	0
32	851	0	10000	3	1	0	3	0
32	852	0	10000	3	1	0	3	0
31	854	0	10000	3	1	0	3	0
31	855	0	10000	3	1	0	3	0
30	856	0	10000	3	1	0	3	0
29	857	0	10000	3	1	0	3	0
27	858	0	10000	3	1	0	3	0
27	859	0	10000	3	1	0	3	0
28	860	0	10000	3	1	0	3	0
31	861	0	10000	3	1	0	3	0
32	861	0	10000	3	1	0	3	0
31	862	0	10000	3	1	0	3	0
30	864	0	10000	3	1	0	3	0
31	865	0	10000	3	1	0	3	0
30	866	0	10000	3	1	0	3	0
28	867	0	10000	3	1	0	3	0
28	868	0	10000	3	1	0	3	0
27	869	0	10000	3	1	0	3	0
27	870	0	10000	3	1	0	3	0
24	871	0	10000	3	1	0	3	0
24	871	0	10000	3	1	0	3	0
23	872	0	10000	3	1	0	3	0
24	874	0	10000	3	1	0	3	0
22	875	0	10000	3	1	0	3	0
22	876	0	10000	3	1	0	3	0
22	877	0	10000	3	1	0	3	0
24	878	0	10000	3	1	0	3	0
27	879	0	10000	3	1	0	3	0
29	880	0	10000	3	1	0	3	0
31	881	0	10000	3	1	0	3	0
29	881	0	10000	3	1	0	3	0
28	882	0	10000	3	1	0	3	0
28	884	0	10000	3	1	0	3	0
27	885	0	10000	3	1	0	3	0
26	886	0	10000	3	1	0	3	0
25	887	0	10000	3	1	0	3	0
26	888	0	10000	3	1	0	3	0
28	889	0	10000	3	1	0	3	0
29	890	0	10000	3	1	0	3	0
26	891	0	10000	3	1	0	3	0
25	891	0	10000	3	1	0	3	0
25	892	0	10000	3	1	0	3	0
24	894	0	10000	3	1	0	3	0
23	895	0	10000	3	1	0	3	0
22	896	0	10000	3	1	0	3	0
22	897	0	10000	3	1	0	3	0
20	898	0	10000	3	1	0	3	0
20	899	0	10000	3	1	0	3	0
20	900	0	10000	3	1	0	3	0
22	901	0	10000	3	1	0	3	0
21	901	0	10000	3	1	0	3	0
20	902	0	10000	3	1	0	3	0
20	904	0	10000	3	1	0	3	0
19	905	0	10000	3	1	0	3	0
19	906	0	10000	3	1	0	3	0
18	907	0	10000	3	1	0	3	0
20	908	0	10000	3	1	0	3	0
19	909	0	10000	3	1	0	3	0
19	910	0	10000	3	1	0	3	0
18	911	0	10000	3	1	0	3	0
18	911	0	10000	3	1	0	3	0
19	912	0	10000	3	1	0	3	0
19	914	0	10000	3	1	0	3	0
19	915	0	10000	3	1	0	3	0
20	916	0	10000	3	1	0	3	0
20	917	0	10000	3	1	0	3	0
20	918	0	10000	3	1	0	3	0
20	919	0	10000	3	1	0	3	0
24	920	0	10000	3	1	0	3	0
26	921	0	10000	3	1	0	3	0
26	921	0	10000	3	1	0	3	0
28	922	0	10000	3	1	0	3	0
32	924	0	10000	3	1	0	3	0
32	925	0	10000	3	1	0	3	0
32	926	0	10000	3	1	0	3	0
31	927	0	10000	3	1	0	3	0
32	928	0	10000	3	1	0	3	0
34	929	0	10000	3	1	0	3	0
34	930	0	10000	3	1	0	3	0
31	931	0	10000	3	1	0	3	0
32	931	0	10000	3	1	0	3	0
33	932	0	10000	3	1	0	3	0
33	934	0	10000	3	1	0	3	0
31	935	0	10000	3	1	0	3	0
31	936	0	10000	3	1	0	3	0
30	937	0	10000	3	1	0	3	0
28	938	0	10000	3	1	0	3	0
27	939	0	10000	3	1	0	3	0
26	940	0	10000	3	1	0	3	0
28	941	0	10000	3	1	0	3	0
29	941	0	10000	3	1	0	3	0
30	942	0	10000	3	1	0	3	0
28	944	0	10000	3	1	0	3	0
27	945	0	10000	3	1	0	3	0
26	946	0	10000	3	1	0	3	0
25	947	0	10000	3	1	0	3	0
26	948	0	10000	3	1	0	3	0
25	949	0	10000	3	1	0	3	0
25	950	0	10000	3	1	0	3	0
21	951	0	10000	3	1	0	3	0
22	951	0	10000	3	1	0	3	0
21	952	0	10000	3	1	0	3	0
21	954	0	10000	3	1	0	3	0
23	955	0	10000	3	1	0	3	0
25	956	0	10000	3	1	0	3	0
26	957	0	10000	3	1	0	3	0
27	958	0	10000	3	1	0	3	0
28	959	0	10000	3	1	0	3	0
27	960	0	10000	3	1	0	3	0
30	961	0	10000	3	1	0	3	0
30	961	0	10000	3	1	0	3	0
28	962	0	10000	3	1	0	3	0
28	964	0	10000	3	1	0	3	0
28	965	0	10000	3	1	0	3	0
27	966	0	10000	3	1	0	3	0
26	967	0	10000	3	1	0	3	0
28	968	0	10000	3	1	0	3	0
29	969	0	10000	3	1	0	3	0
29	970	0	10000	3	1	0	3	0
28	971	0	10000	3	1	0	3	0
31	971	0	10000	3	1	0	3	0
32	972	0	10000	3	1	0	3	0
31	974	0	10000	3	1	0	3	0
31	975	0	10000	3	1	0	3	0
30	976	0	10000	3	1	0	3	0
30	977	0	10000	3	1	0	3	0
29	978	0	10000	3	1	0	3	0
28	979	0	10000	3	1	0	3	0
30	980	0	10000	3	1	0	3	0
32	981	0	10000	3	1	0	3	0
32	981	0	10000	3	1	0	3	0
31	982	0	10000	3	1	0	3	0
31	984	0	10000	3	1	0	3	0
30	985	0	10000	3	1	0	3	0
29	986	0	10000	3	1	0	3	0
27	987	0	10000	3	1	0	3	0
30	988	0	10000	3	1	0	3	0
33	989	0	10000	3	1	0	3	0
33	990	0	10000	3	1	0	3	0
32	991	0	10000	3	1	0	3	0
32	991	0	10000	3	1	0	3	0
32	992	0	10000	3	1	0	3	0
32	994	0	10000	3	1	0	3	0
35	995	0	10000	3	1	0	3	0
35	996	0	10000	3	1	0	3	0
34	997	0	10000	3	1	0	3	0
32	998	0	10000	3	1	0	3	0
31	999	0	10000	3	1	0	3	0
30	1000	0	10000	3	1	0	3	0
32	1001	0	10000	3	1	0	3	0
16	1	0	10000	4	1	0	4	0
15	2	0	10000	4	1	0	4	0
15	3	0	10000	4	1	0	4	0
15	4	0	10000	4	1	0	4	0
15	5	0	10000	4	1	0	4	0
16	6	0	10000	4	1	0	4	0
15	7	0	10000	4	1	0	4	0
14	8	0	10000	4	1	0	4	0
14	9	0	10000	4	1	0	4	0
17	10	0	10000	4	1	0	4	0
16	11	0	10000	4	1	0	4	0
16	12	0	10000	4	1	0	4	0
16	13	0	10000	4	1	0	4	0
15	14	0	10000	4	1	0	4	0
15	15	0	10000	4	1	0	4	0
14	16	0	10000	4	1	0	4	0
14	17	0	10000	4	1	0	4	0
14	18	0	10000	4	1	0	4	0
15	19	0	10000	4	1	0	4	0
14	20	0	10000	4	1	0	4	0
14	21	0	10000	4	1	0	4	0
14	22	0	10000	4	1	0	4	0
15	23	0	10000	4	1	0	4	0
15	24	0	10000	4	1	0	4	0
15	25	0	10000	4	1	0	4	0
15	26	0	10000	4	1	0	4	0
14	27	0	10000	4	1	0	4	0
13	28	0	10000	4	1	0	4	0
14	29	0	10000	4	1	0	4	0
16	30	0	10000	4	1	0	4	0
15	31	0	10000	4	1	0	4	0
16	32	0	10000	4	1	0	4	0
16	33	0	10000	4	1	0	4	0
14	34	0	10000	4	1	0	4	0
14	35	0	10000	4	1	0	4	0
13	36	0	10000	4	1	0	4	0
14	37	0	10000	4	1	0	4	0
14	38	0	10000	4	1	0	4	0
15	39	0	10000	4	1	0	4	0
15	40	0	10000	4	1	0	4	0
15	41	0	10000	4	1	0	4	0
16	42	0	10000	4	1	0	4	0
15	43	0	10000	4	1	0	4	0
16	44	0	10000	4	1	0	4	0
16	45	0	10000	4	1	0	4	0
18	46	0	10000	4	1	0	4	0
19	47	0	10000	4	1	0	4	0
20	48	0	10000	4	1	0	4	0
21	49	0	10000	4	1	0	4	0
24	50	0	10000	4	1	0	4	0
23	51	0	10000	4	1	0	4	0
22	52	0	10000	4	1	0	4	0
21	53	0	10000	4	1	0	4	0
21	54	0	10000	4	1	0	4	0
22	55	0	10000	4	1	0	4	0
22	56	0	10000	4	1	0	4	0
23	57	0	10000	4	1	0	4	0
23	58	0	10000	4	1	0	4	0
22	59	0	10000	4	1	0	4	0
19	60	0	10000	4	1	0	4	0
20	61	0	10000	4	1	0	4	0
19	62	0	10000	4	1	0	4	0
18	63	0	10000	4	1	0	4	0
18	64	0	10000	4	1	0	4	0
19	65	0	10000	4	1	0	4	0
18	66	0	10000	4	1	0	4	0
18	67	0	10000	4	1	0	4	0
18	68	0	10000	4	1	0	4	0
17	69	0	10000	4	1	0	4	0
20	70	0	10000	4	1	0	4	0
20	71	0	10000	4	1	0	4	0
19	72	0	10000	4	1	0	4	0
18	73	0	10000	4	1	0	4	0
19	74	0	10000	4	1	0	4	0
18	75	0	10000	4	1	0	4	0
17	76	0	10000	4	1	0	4	0
17	77	0	10000	4	1	0	4	0
17	78	0	10000	4	1	0	4	0
17	79	0	10000	4	1	0	4	0
14	80	0	10000	4	1	0	4	0
14	81	0	10000	4	1	0	4	0
14	82	0	10000	4	1	0	4	0
16	83	0	10000	4	1	0	4	0
18	84	0	10000	4	1	0	4	0
18	85	0	10000	4	1	0	4	0
18	86	0	10000	4	1	0	4	0
17	87	0	10000	4	1	0	4	0
17	88	0	10000	4	1	0	4	0
19	89	0	10000	4	1	0	4	0
20	90	0	10000	4	1	0	4	0
20	91	0	10000	4	1	0	4	0
18	92	0	10000	4	1	0	4	0
17	93	0	10000	4	1	0	4	0
17	94	0	10000	4	1	0	4	0
16	95	0	10000	4	1	0	4	0
15	96	0	10000	4	1	0	4	0
17	97	0	10000	4	1	0	4	0
16	98	0	10000	4	1	0	4	0
16	99	0	10000	4	1	0	4	0
13	100	0	10000	4	1	0	4	0
14	101	0	10000	4	1	0	4	0
16	102	0	10000	4	1	0	4	0
16	103	0	10000	4	1	0	4	0
16	104	0	10000	4	1	0	4	0
16	105	0	10000	4	1	0	4	0
17	106	0	10000	4	1	0	4	0
16	107	0	10000	4	1	0	4	0
14	108	0	10000	4	1	0	4	0
13	109	0	10000	4	1	0	4	0
16	110	0	10000	4	1	0	4	0
17	111	0	10000	4	1	0	4	0
16	112	0	10000	4	1	0	4	0
16	113	0	10000	4	1	0	4	0
16	114	0	10000	4	1	0	4	0
15	115	0	10000	4	1	0	4	0
15	116	0	10000	4	1	0	4	0
15	117	0	10000	4	1	0	4	0
15	118	0	10000	4	1	0	4	0
15	119	0	10000	4	1	0	4	0
13	120	0	10000	4	1	0	4	0
13	121	0	10000	4	1	0	4	0
13	122	0	10000	4	1	0	4	0
14	123	0	10000	4	1	0	4	0
14	124	0	10000	4	1	0	4	0
15	125	0	10000	4	1	0	4	0
15	126	0	10000	4	1	0	4	0
15	127	0	10000	4	1	0	4	0
14	128	0	10000	4	1	0	4	0
15	129	0	10000	4	1	0	4	0
16	130	0	10000	4	1	0	4	0
15	131	0	10000	4	1	0	4	0
14	132	0	10000	4	1	0	4	0
13	133	0	10000	4	1	0	4	0
14	134	0	10000	4	1	0	4	0
15	135	0	10000	4	1	0	4	0
13	136	0	10000	4	1	0	4	0
15	137	0	10000	4	1	0	4	0
15	138	0	10000	4	1	0	4	0
14	139	0	10000	4	1	0	4	0
12	140	0	10000	4	1	0	4	0
12	141	0	10000	4	1	0	4	0
12	142	0	10000	4	1	0	4	0
13	143	0	10000	4	1	0	4	0
12	144	0	10000	4	1	0	4	0
12	145	0	10000	4	1	0	4	0
12	146	0	10000	4	1	0	4	0
12	147	0	10000	4	1	0	4	0
11	148	0	10000	4	1	0	4	0
13	149	0	10000	4	1	0	4	0
16	150	0	10000	4	1	0	4	0
16	151	0	10000	4	1	0	4	0
17	152	0	10000	4	1	0	4	0
17	153	0	10000	4	1	0	4	0
18	154	0	10000	4	1	0	4	0
19	155	0	10000	4	1	0	4	0
18	156	0	10000	4	1	0	4	0
18	157	0	10000	4	1	0	4	0
18	158	0	10000	4	1	0	4	0
17	159	0	10000	4	1	0	4	0
14	160	0	10000	4	1	0	4	0
14	161	0	10000	4	1	0	4	0
14	162	0	10000	4	1	0	4	0
14	163	0	10000	4	1	0	4	0
14	164	0	10000	4	1	0	4	0
15	165	0	10000	4	1	0	4	0
18	166	0	10000	4	1	0	4	0
17	167	0	10000	4	1	0	4	0
16	168	0	10000	4	1	0	4	0
15	169	0	10000	4	1	0	4	0
17	170	0	10000	4	1	0	4	0
17	171	0	10000	4	1	0	4	0
16	172	0	10000	4	1	0	4	0
16	173	0	10000	4	1	0	4	0
15	174	0	10000	4	1	0	4	0
15	175	0	10000	4	1	0	4	0
15	176	0	10000	4	1	0	4	0
17	177	0	10000	4	1	0	4	0
17	178	0	10000	4	1	0	4	0
17	179	0	10000	4	1	0	4	0
16	180	0	10000	4	1	0	4	0
16	181	0	10000	4	1	0	4	0
15	182	0	10000	4	1	0	4	0
17	183	0	10000	4	1	0	4	0
18	184	0	10000	4	1	0	4	0
20	185	0	10000	4	1	0	4	0
21	186	0	10000	4	1	0	4	0
21	187	0	10000	4	1	0	4	0
20	188	0	10000	4	1	0	4	0
21	189	0	10000	4	1	0	4	0
22	190	0	10000	4	1	0	4	0
22	191	0	10000	4	1	0	4	0
20	192	0	10000	4	1	0	4	0
20	193	0	10000	4	1	0	4	0
20	194	0	10000	4	1	0	4	0
19	195	0	10000	4	1	0	4	0
19	196	0	10000	4	1	0	4	0
19	197	0	10000	4	1	0	4	0
20	198	0	10000	4	1	0	4	0
19	199	0	10000	4	1	0	4	0
17	200	0	10000	4	1	0	4	0
16	201	0	10000	4	1	0	4	0
16	202	0	10000	4	1	0	4	0
16	203	0	10000	4	1	0	4	0
17	204	0	10000	4	1	0	4	0
16	205	0	10000	4	1	0	4	0
17	206	0	10000	4	1	0	4	0
17	207	0	10000	4	1	0	4	0
16	208	0	10000	4	1	0	4	0
16	209	0	10000	4	1	0	4	0
18	210	0	10000	4	1	0	4	0
16	211	0	10000	4	1	0	4	0
16	212	0	10000	4	1	0	4	0
15	213	0	10000	4	1	0	4	0
14	214	0	10000	4	1	0	4	0
14	215	0	10000	4	1	0	4	0
14	216	0	10000	4	1	0	4	0
14	217	0	10000	4	1	0	4	0
15	218	0	10000	4	1	0	4	0
15	219	0	10000	4	1	0	4	0
12	220	0	10000	4	1	0	4	0
13	221	0	10000	4	1	0	4	0
12	222	0	10000	4	1	0	4	0
12	223	0	10000	4	1	0	4	0
13	224	0	10000	4	1	0	4	0
13	225	0	10000	4	1	0	4	0
14	226	0	10000	4	1	0	4	0
14	227	0	10000	4	1	0	4	0
13	228	0	10000	4	1	0	4	0
13	229	0	10000	4	1	0	4	0
16	230	0	10000	4	1	0	4	0
16	231	0	10000	4	1	0	4	0
16	232	0	10000	4	1	0	4	0
16	233	0	10000	4	1	0	4	0
16	234	0	10000	4	1	0	4	0
16	235	0	10000	4	1	0	4	0
16	236	0	10000	4	1	0	4	0
17	237	0	10000	4	1	0	4	0
17	238	0	10000	4	1	0	4	0
17	239	0	10000	4	1	0	4	0
14	240	0	10000	4	1	0	4	0
14	241	0	10000	4	1	0	4	0
16	242	0	10000	4	1	0	4	0
18	243	0	10000	4	1	0	4	0
19	244	0	10000	4	1	0	4	0
17	245	0	10000	4	1	0	4	0
18	246	0	10000	4	1	0	4	0
17	247	0	10000	4	1	0	4	0
16	248	0	10000	4	1	0	4	0
17	249	0	10000	4	1	0	4	0
19	250	0	10000	4	1	0	4	0
19	251	0	10000	4	1	0	4	0
18	252	0	10000	4	1	0	4	0
19	253	0	10000	4	1	0	4	0
18	254	0	10000	4	1	0	4	0
18	255	0	10000	4	1	0	4	0
18	256	0	10000	4	1	0	4	0
19	257	0	10000	4	1	0	4	0
19	258	0	10000	4	1	0	4	0
18	259	0	10000	4	1	0	4	0
16	260	0	10000	4	1	0	4	0
16	261	0	10000	4	1	0	4	0
18	262	0	10000	4	1	0	4	0
19	263	0	10000	4	1	0	4	0
18	264	0	10000	4	1	0	4	0
17	265	0	10000	4	1	0	4	0
17	266	0	10000	4	1	0	4	0
16	267	0	10000	4	1	0	4	0
15	268	0	10000	4	1	0	4	0
14	269	0	10000	4	1	0	4	0
16	270	0	10000	4	1	0	4	0
16	271	0	10000	4	1	0	4	0
16	272	0	10000	4	1	0	4	0
15	273	0	10000	4	1	0	4	0
15	274	0	10000	4	1	0	4	0
16	275	0	10000	4	1	0	4	0
18	276	0	10000	4	1	0	4	0
19	277	0	10000	4	1	0	4	0
19	278	0	10000	4	1	0	4	0
19	279	0	10000	4	1	0	4	0
17	280	0	10000	4	1	0	4	0
17	281	0	10000	4	1	0	4	0
18	282	0	10000	4	1	0	4	0
18	283	0	10000	4	1	0	4	0
18	284	0	10000	4	1	0	4	0
20	285	0	10000	4	1	0	4	0
20	286	0	10000	4	1	0	4	0
18	287	0	10000	4	1	0	4	0
18	288	0	10000	4	1	0	4	0
17	289	0	10000	4	1	0	4	0
20	290	0	10000	4	1	0	4	0
20	291	0	10000	4	1	0	4	0
19	292	0	10000	4	1	0	4	0
19	293	0	10000	4	1	0	4	0
19	294	0	10000	4	1	0	4	0
18	295	0	10000	4	1	0	4	0
18	296	0	10000	4	1	0	4	0
17	297	0	10000	4	1	0	4	0
17	298	0	10000	4	1	0	4	0
20	299	0	10000	4	1	0	4	0
18	300	0	10000	4	1	0	4	0
19	301	0	10000	4	1	0	4	0
18	302	0	10000	4	1	0	4	0
18	303	0	10000	4	1	0	4	0
18	304	0	10000	4	1	0	4	0
18	305	0	10000	4	1	0	4	0
19	306	0	10000	4	1	0	4	0
17	307	0	10000	4	1	0	4	0
17	308	0	10000	4	1	0	4	0
16	309	0	10000	4	1	0	4	0
18	310	0	10000	4	1	0	4	0
18	311	0	10000	4	1	0	4	0
18	312	0	10000	4	1	0	4	0
18	313	0	10000	4	1	0	4	0
18	314	0	10000	4	1	0	4	0
18	315	0	10000	4	1	0	4	0
19	316	0	10000	4	1	0	4	0
19	317	0	10000	4	1	0	4	0
19	318	0	10000	4	1	0	4	0
19	319	0	10000	4	1	0	4	0
16	320	0	10000	4	1	0	4	0
16	321	0	10000	4	1	0	4	0
17	322	0	10000	4	1	0	4	0
16	323	0	10000	4	1	0	4	0
16	324	0	10000	4	1	0	4	0
15	325	0	10000	4	1	0	4	0
16	326	0	10000	4	1	0	4	0
17	327	0	10000	4	1	0	4	0
16	328	0	10000	4	1	0	4	0
16	329	0	10000	4	1	0	4	0
19	330	0	10000	4	1	0	4	0
19	331	0	10000	4	1	0	4	0
19	332	0	10000	4	1	0	4	0
20	333	0	10000	4	1	0	4	0
22	334	0	10000	4	1	0	4	0
22	335	0	10000	4	1	0	4	0
22	336	0	10000	4	1	0	4	0
22	337	0	10000	4	1	0	4	0
22	338	0	10000	4	1	0	4	0
22	339	0	10000	4	1	0	4	0
20	340	0	10000	4	1	0	4	0
20	341	0	10000	4	1	0	4	0
19	342	0	10000	4	1	0	4	0
19	343	0	10000	4	1	0	4	0
18	344	0	10000	4	1	0	4	0
19	345	0	10000	4	1	0	4	0
18	346	0	10000	4	1	0	4	0
17	347	0	10000	4	1	0	4	0
17	348	0	10000	4	1	0	4	0
17	349	0	10000	4	1	0	4	0
20	350	0	10000	4	1	0	4	0
19	351	0	10000	4	1	0	4	0
19	352	0	10000	4	1	0	4	0
18	353	0	10000	4	1	0	4	0
18	354	0	10000	4	1	0	4	0
17	355	0	10000	4	1	0	4	0
17	356	0	10000	4	1	0	4	0
17	357	0	10000	4	1	0	4	0
16	358	0	10000	4	1	0	4	0
17	359	0	10000	4	1	0	4	0
15	360	0	10000	4	1	0	4	0
15	361	0	10000	4	1	0	4	0
15	362	0	10000	4	1	0	4	0
16	363	0	10000	4	1	0	4	0
17	364	0	10000	4	1	0	4	0
18	365	0	10000	4	1	0	4	0
18	366	0	10000	4	1	0	4	0
17	367	0	10000	4	1	0	4	0
17	368	0	10000	4	1	0	4	0
16	369	0	10000	4	1	0	4	0
19	370	0	10000	4	1	0	4	0
19	371	0	10000	4	1	0	4	0
18	372	0	10000	4	1	0	4	0
17	373	0	10000	4	1	0	4	0
16	374	0	10000	4	1	0	4	0
16	375	0	10000	4	1	0	4	0
15	376	0	10000	4	1	0	4	0
18	377	0	10000	4	1	0	4	0
19	378	0	10000	4	1	0	4	0
19	379	0	10000	4	1	0	4	0
16	380	0	10000	4	1	0	4	0
16	381	0	10000	4	1	0	4	0
16	382	0	10000	4	1	0	4	0
16	383	0	10000	4	1	0	4	0
16	384	0	10000	4	1	0	4	0
16	385	0	10000	4	1	0	4	0
17	386	0	10000	4	1	0	4	0
16	387	0	10000	4	1	0	4	0
15	388	0	10000	4	1	0	4	0
14	389	0	10000	4	1	0	4	0
16	390	0	10000	4	1	0	4	0
16	391	0	10000	4	1	0	4	0
15	392	0	10000	4	1	0	4	0
15	393	0	10000	4	1	0	4	0
14	394	0	10000	4	1	0	4	0
14	395	0	10000	4	1	0	4	0
14	396	0	10000	4	1	0	4	0
14	397	0	10000	4	1	0	4	0
15	398	0	10000	4	1	0	4	0
16	399	0	10000	4	1	0	4	0
14	400	0	10000	4	1	0	4	0
13	401	0	10000	4	1	0	4	0
14	402	0	10000	4	1	0	4	0
14	403	0	10000	4	1	0	4	0
14	404	0	10000	4	1	0	4	0
15	405	0	10000	4	1	0	4	0
16	406	0	10000	4	1	0	4	0
18	407	0	10000	4	1	0	4	0
19	408	0	10000	4	1	0	4	0
20	409	0	10000	4	1	0	4	0
21	410	0	10000	4	1	0	4	0
20	411	0	10000	4	1	0	4	0
20	412	0	10000	4	1	0	4	0
19	413	0	10000	4	1	0	4	0
20	414	0	10000	4	1	0	4	0
20	415	0	10000	4	1	0	4	0
19	416	0	10000	4	1	0	4	0
19	417	0	10000	4	1	0	4	0
20	418	0	10000	4	1	0	4	0
19	419	0	10000	4	1	0	4	0
17	420	0	10000	4	1	0	4	0
17	421	0	10000	4	1	0	4	0
17	422	0	10000	4	1	0	4	0
17	423	0	10000	4	1	0	4	0
17	424	0	10000	4	1	0	4	0
17	425	0	10000	4	1	0	4	0
16	426	0	10000	4	1	0	4	0
15	427	0	10000	4	1	0	4	0
14	428	0	10000	4	1	0	4	0
15	429	0	10000	4	1	0	4	0
17	430	0	10000	4	1	0	4	0
16	431	0	10000	4	1	0	4	0
16	432	0	10000	4	1	0	4	0
17	433	0	10000	4	1	0	4	0
18	434	0	10000	4	1	0	4	0
19	435	0	10000	4	1	0	4	0
19	436	0	10000	4	1	0	4	0
20	437	0	10000	4	1	0	4	0
19	438	0	10000	4	1	0	4	0
20	439	0	10000	4	1	0	4	0
18	440	0	10000	4	1	0	4	0
18	441	0	10000	4	1	0	4	0
17	442	0	10000	4	1	0	4	0
18	443	0	10000	4	1	0	4	0
18	444	0	10000	4	1	0	4	0
19	445	0	10000	4	1	0	4	0
19	446	0	10000	4	1	0	4	0
19	447	0	10000	4	1	0	4	0
18	448	0	10000	4	1	0	4	0
20	449	0	10000	4	1	0	4	0
24	450	0	10000	4	1	0	4	0
25	451	0	10000	4	1	0	4	0
23	452	0	10000	4	1	0	4	0
22	453	0	10000	4	1	0	4	0
21	454	0	10000	4	1	0	4	0
21	455	0	10000	4	1	0	4	0
21	456	0	10000	4	1	0	4	0
21	457	0	10000	4	1	0	4	0
21	458	0	10000	4	1	0	4	0
20	459	0	10000	4	1	0	4	0
18	460	0	10000	4	1	0	4	0
18	460	0	10000	4	1	0	4	0
17	461	0	10000	4	1	0	4	0
18	463	0	10000	4	1	0	4	0
19	464	0	10000	4	1	0	4	0
19	465	0	10000	4	1	0	4	0
18	466	0	10000	4	1	0	4	0
17	467	0	10000	4	1	0	4	0
17	468	0	10000	4	1	0	4	0
16	469	0	10000	4	1	0	4	0
17	470	0	10000	4	1	0	4	0
17	470	0	10000	4	1	0	4	0
17	471	0	10000	4	1	0	4	0
16	473	0	10000	4	1	0	4	0
16	474	0	10000	4	1	0	4	0
16	475	0	10000	4	1	0	4	0
17	476	0	10000	4	1	0	4	0
17	477	0	10000	4	1	0	4	0
18	478	0	10000	4	1	0	4	0
17	479	0	10000	4	1	0	4	0
15	480	0	10000	4	1	0	4	0
14	480	0	10000	4	1	0	4	0
14	481	0	10000	4	1	0	4	0
14	483	0	10000	4	1	0	4	0
13	484	0	10000	4	1	0	4	0
13	485	0	10000	4	1	0	4	0
13	486	0	10000	4	1	0	4	0
12	487	0	10000	4	1	0	4	0
11	488	0	10000	4	1	0	4	0
11	489	0	10000	4	1	0	4	0
14	490	0	10000	4	1	0	4	0
15	490	0	10000	4	1	0	4	0
16	491	0	10000	4	1	0	4	0
14	493	0	10000	4	1	0	4	0
14	494	0	10000	4	1	0	4	0
13	495	0	10000	4	1	0	4	0
13	496	0	10000	4	1	0	4	0
13	497	0	10000	4	1	0	4	0
13	498	0	10000	4	1	0	4	0
13	499	0	10000	4	1	0	4	0
11	500	0	10000	4	1	0	4	0
11	500	0	10000	4	1	0	4	0
11	501	0	10000	4	1	0	4	0
11	503	0	10000	4	1	0	4	1
11	504	0	10000	4	1	0	4	1
11	505	0	10000	4	1	0	4	1
12	506	0	10000	4	1	0	4	1
12	507	0	10000	4	1	0	4	1
12	508	0	10000	4	1	0	4	1
11	509	0	10000	4	1	0	4	1
14	510	0	10000	4	1	0	4	1
15	510	0	10000	4	1	0	4	1
13	511	0	10000	4	1	0	4	1
13	513	0	10000	4	1	0	4	1
13	514	0	10000	4	1	0	4	1
13	515	0	10000	4	1	0	4	1
14	516	0	10000	4	1	0	4	1
15	517	0	10000	4	1	0	4	1
16	518	0	10000	4	1	0	4	1
17	519	0	10000	4	1	0	4	1
14	520	0	10000	4	1	0	4	1
15	520	0	10000	4	1	0	4	1
18	521	0	10000	4	1	0	4	1
20	523	0	10000	4	1	0	4	1
21	524	0	10000	4	1	0	4	1
21	525	0	10000	4	1	0	4	1
21	526	0	10000	4	1	0	4	1
20	527	0	10000	4	1	0	4	1
18	528	0	10000	4	1	0	4	1
18	529	0	10000	4	1	0	4	1
20	530	0	10000	4	1	0	4	1
19	530	0	10000	4	1	0	4	1
18	531	0	10000	4	1	0	4	1
18	533	0	10000	4	1	0	4	1
17	534	0	10000	4	1	0	4	1
16	535	0	10000	4	1	0	4	1
15	536	0	10000	4	1	0	4	1
16	537	0	10000	4	1	0	4	1
16	538	0	10000	4	1	0	4	1
17	539	0	10000	4	1	0	4	1
16	540	0	10000	4	1	0	4	1
16	540	0	10000	4	1	0	4	1
18	541	0	10000	4	1	0	4	1
17	543	0	10000	4	1	0	4	1
16	544	0	10000	4	1	0	4	1
16	545	0	10000	4	1	0	4	1
17	546	0	10000	4	1	0	4	1
16	547	0	10000	4	1	0	4	1
15	548	0	10000	4	1	0	4	1
15	549	0	10000	4	1	0	4	1
18	550	0	10000	4	1	0	4	1
18	550	0	10000	4	1	0	4	1
17	551	0	10000	4	1	0	4	1
16	553	0	10000	4	1	0	4	0
16	554	0	10000	4	1	0	4	0
15	555	0	10000	4	1	0	4	0
16	556	0	10000	4	1	0	4	0
16	557	0	10000	4	1	0	4	0
17	558	0	10000	4	1	0	4	0
18	559	0	10000	4	1	0	4	0
15	560	0	10000	4	1	0	4	0
15	560	0	10000	4	1	0	4	0
16	561	0	10000	4	1	0	4	0
17	563	0	10000	4	1	0	4	0
18	564	0	10000	4	1	0	4	0
18	565	0	10000	4	1	0	4	0
18	566	0	10000	4	1	0	4	0
19	567	0	10000	4	1	0	4	0
19	568	0	10000	4	1	0	4	0
18	569	0	10000	4	1	0	4	0
20	570	0	10000	4	1	0	4	0
19	570	0	10000	4	1	0	4	0
19	571	0	10000	4	1	0	4	0
19	573	0	10000	4	1	0	4	0
19	574	0	10000	4	1	0	4	0
19	575	0	10000	4	1	0	4	0
18	576	0	10000	4	1	0	4	0
20	577	0	10000	4	1	0	4	0
20	578	0	10000	4	1	0	4	0
21	579	0	10000	4	1	0	4	0
19	580	0	10000	4	1	0	4	0
22	580	0	10000	4	1	0	4	0
24	581	0	10000	4	1	0	4	0
29	583	0	10000	4	1	0	4	0
37	584	0	10000	4	1	0	4	0
38	585	0	10000	4	1	0	4	0
48	586	0	10000	4	1	0	4	0
65	587	0	10000	4	1	0	4	0
82	588	0	10000	4	1	0	4	0
104	589	0	10000	4	1	0	4	0
115	590	0	10000	4	1	0	4	0
208	590	0	10000	4	1	0	4	0
244	591	0	10000	4	1	0	4	0
311	593	0	10000	4	1	0	4	0
321	594	0	10000	4	1	0	4	0
328	595	0	10000	4	1	0	4	0
338	596	0	10000	4	1	0	4	0
474	597	0	10000	4	1	0	4	0
547	598	0	10000	4	1	0	4	0
556	599	0	10000	4	1	0	4	0
590	600	0	10000	4	1	0	4	0
615	600	0	10000	4	1	0	4	0
618	601	0	10000	4	1	0	4	0
693	603	0	10000	4	1	0	4	0
747	604	0	10000	4	1	0	4	0
766	605	0	10000	4	1	0	4	0
755	606	0	10000	4	1	0	4	0
791	607	0	10000	4	1	0	4	0
821	608	0	10000	4	1	0	4	0
847	609	0	10000	4	1	0	4	0
828	610	0	10000	4	1	0	4	0
854	610	0	10000	4	1	0	4	0
894	611	0	10000	4	1	0	4	0
918	613	0	10000	4	1	0	4	0
979	614	0	10000	4	1	0	4	0
1080	615	0	10000	4	1	0	4	0
1150	616	0	10000	4	1	0	4	0
1182	617	0	10000	4	1	0	4	0
1196	618	0	10000	4	1	0	4	0
1152	619	0	10000	4	1	0	4	0
1116	620	0	10000	4	1	0	4	0
1085	620	0	10000	4	1	0	4	0
1046	621	0	10000	4	1	0	4	0
1000	623	0	10000	4	1	0	4	0
965	624	0	10000	4	1	0	4	0
941	625	0	10000	4	1	0	4	0
924	626	0	10000	4	1	0	4	0
913	627	0	10000	4	1	0	4	0
907	628	0	10000	4	1	0	4	0
904	629	0	10000	4	1	0	4	0
908	630	0	10000	4	1	0	4	0
909	630	0	10000	4	1	0	4	0
906	631	0	10000	4	1	0	4	0
902	633	0	10000	4	1	0	4	0
899	634	0	10000	4	1	0	4	0
893	635	0	10000	4	1	0	4	0
886	636	0	10000	4	1	0	4	0
880	637	0	10000	4	1	0	4	0
874	638	0	10000	4	1	0	4	0
864	639	0	10000	4	1	0	4	0
849	640	0	10000	4	1	0	4	0
834	640	0	10000	4	1	0	4	0
815	641	0	10000	4	1	0	4	0
797	643	0	10000	4	1	0	4	0
777	644	0	10000	4	1	0	4	0
752	645	0	10000	4	1	0	4	0
726	646	0	10000	4	1	0	4	0
699	647	0	10000	4	1	0	4	0
671	648	0	10000	4	1	0	4	0
641	649	0	10000	4	1	0	4	0
615	650	0	10000	4	1	0	4	0
593	650	0	10000	4	1	0	4	0
578	651	0	10000	4	1	0	4	0
567	653	0	10000	4	1	0	4	0
558	654	0	10000	4	1	0	4	0
553	655	0	10000	4	1	0	4	0
551	656	0	10000	4	1	0	4	0
553	657	0	10000	4	1	0	4	0
555	658	0	10000	4	1	0	4	0
560	659	0	10000	4	1	0	4	0
563	660	0	10000	4	1	0	4	0
570	660	0	10000	4	1	0	4	0
579	661	0	10000	4	1	0	4	0
591	663	0	10000	4	1	0	4	0
604	664	0	10000	4	1	0	4	0
613	665	0	10000	4	1	0	4	0
622	666	0	10000	4	1	0	4	0
628	667	0	10000	4	1	0	4	0
634	668	0	10000	4	1	0	4	0
638	669	0	10000	4	1	0	4	0
646	670	0	10000	4	1	0	4	0
654	670	0	10000	4	1	0	4	0
658	671	0	10000	4	1	0	4	0
661	673	0	10000	4	1	0	4	0
664	674	0	10000	4	1	0	4	0
669	675	0	10000	4	1	0	4	0
670	676	0	10000	4	1	0	4	0
672	677	0	10000	4	1	0	4	0
674	678	0	10000	4	1	0	4	0
673	679	0	10000	4	1	0	4	0
668	680	0	10000	4	1	0	4	0
664	680	0	10000	4	1	0	4	0
662	681	0	10000	4	1	0	4	0
657	683	0	10000	4	1	0	4	0
649	684	0	10000	4	1	0	4	0
640	685	0	10000	4	1	0	4	0
631	686	0	10000	4	1	0	4	0
620	687	0	10000	4	1	0	4	0
607	688	0	10000	4	1	0	4	0
593	689	0	10000	4	1	0	4	0
580	690	0	10000	4	1	0	4	0
565	690	0	10000	4	1	0	4	0
548	691	0	10000	4	1	0	4	0
530	693	0	10000	4	1	0	4	0
512	694	0	10000	4	1	0	4	0
493	695	0	10000	4	1	0	4	0
475	696	0	10000	4	1	0	4	0
457	697	0	10000	4	1	0	4	0
440	698	0	10000	4	1	0	4	0
422	699	0	10000	4	1	0	4	0
401	700	0	10000	4	1	0	4	0
383	700	0	10000	4	1	0	4	0
366	701	0	10000	4	1	0	4	0
352	703	0	10000	4	1	0	4	0
339	704	0	10000	4	1	0	4	0
328	705	0	10000	4	1	0	4	0
318	706	0	10000	4	1	0	4	0
308	707	0	10000	4	1	0	4	0
301	708	0	10000	4	1	0	4	0
295	709	0	10000	4	1	0	4	0
292	710	0	10000	4	1	0	4	0
287	710	0	10000	4	1	0	4	0
282	711	0	10000	4	1	0	4	0
277	713	0	10000	4	1	0	4	0
272	714	0	10000	4	1	0	4	0
268	715	0	10000	4	1	0	4	0
265	716	0	10000	4	1	0	4	0
261	717	0	10000	4	1	0	4	0
258	718	0	10000	4	1	0	4	0
254	719	0	10000	4	1	0	4	0
249	720	0	10000	4	1	0	4	0
246	720	0	10000	4	1	0	4	0
242	721	0	10000	4	1	0	4	0
241	723	0	10000	4	1	0	4	0
240	724	0	10000	4	1	0	4	0
240	725	0	10000	4	1	0	4	0
240	726	0	10000	4	1	0	4	0
239	727	0	10000	4	1	0	4	0
238	728	0	10000	4	1	0	4	0
236	729	0	10000	4	1	0	4	0
234	730	0	10000	4	1	0	4	0
234	730	0	10000	4	1	0	4	0
234	731	0	10000	4	1	0	4	0
234	733	0	10000	4	1	0	4	0
232	734	0	10000	4	1	0	4	0
231	735	0	10000	4	1	0	4	0
229	736	0	10000	4	1	0	4	0
227	737	0	10000	4	1	0	4	0
226	738	0	10000	4	1	0	4	0
225	739	0	10000	4	1	0	4	0
219	740	0	10000	4	1	0	4	0
216	740	0	10000	4	1	0	4	0
213	741	0	10000	4	1	0	4	0
210	743	0	10000	4	1	0	4	0
207	744	0	10000	4	1	0	4	0
204	745	0	10000	4	1	0	4	0
200	746	0	10000	4	1	0	4	0
197	747	0	10000	4	1	0	4	0
195	748	0	10000	4	1	0	4	0
193	749	0	10000	4	1	0	4	0
193	750	0	10000	4	1	0	4	0
193	750	0	10000	4	1	0	4	0
191	751	0	10000	4	1	0	4	0
190	753	0	10000	4	1	0	4	0
187	754	0	10000	4	1	0	4	0
182	755	0	10000	4	1	0	4	0
177	756	0	10000	4	1	0	4	0
175	757	0	10000	4	1	0	4	0
174	758	0	10000	4	1	0	4	0
172	759	0	10000	4	1	0	4	0
167	760	0	10000	4	1	0	4	0
163	760	0	10000	4	1	0	4	0
161	761	0	10000	4	1	0	4	0
158	763	0	10000	4	1	0	4	0
154	764	0	10000	4	1	0	4	0
151	765	0	10000	4	1	0	4	0
149	766	0	10000	4	1	0	4	0
147	767	0	10000	4	1	0	4	0
142	768	0	10000	4	1	0	4	0
137	769	0	10000	4	1	0	4	0
137	770	0	10000	4	1	0	4	0
141	770	0	10000	4	1	0	4	0
146	771	0	10000	4	1	0	4	0
149	773	0	10000	4	1	0	4	0
144	774	0	10000	4	1	0	4	0
140	775	0	10000	4	1	0	4	0
134	776	0	10000	4	1	0	4	0
129	777	0	10000	4	1	0	4	0
126	778	0	10000	4	1	0	4	0
125	779	0	10000	4	1	0	4	0
120	780	0	10000	4	1	0	4	0
117	780	0	10000	4	1	0	4	0
114	781	0	10000	4	1	0	4	0
111	783	0	10000	4	1	0	4	0
107	784	0	10000	4	1	0	4	0
104	785	0	10000	4	1	0	4	0
103	786	0	10000	4	1	0	4	0
99	787	0	10000	4	1	0	4	0
95	788	0	10000	4	1	0	4	0
91	789	0	10000	4	1	0	4	0
90	790	0	10000	4	1	0	4	0
88	790	0	10000	4	1	0	4	0
86	791	0	10000	4	1	0	4	0
84	793	0	10000	4	1	0	4	0
82	794	0	10000	4	1	0	4	0
80	795	0	10000	4	1	0	4	0
77	796	0	10000	4	1	0	4	0
77	797	0	10000	4	1	0	4	0
74	798	0	10000	4	1	0	4	0
72	799	0	10000	4	1	0	4	0
68	800	0	10000	4	1	0	4	0
65	800	0	10000	4	1	0	4	0
64	801	0	10000	4	1	0	4	0
62	803	0	10000	4	1	0	4	0
62	804	0	10000	4	1	0	4	0
59	805	0	10000	4	1	0	4	0
57	806	0	10000	4	1	0	4	0
56	807	0	10000	4	1	0	4	0
53	808	0	10000	4	1	0	4	0
50	809	0	10000	4	1	0	4	0
50	810	0	10000	4	1	0	4	0
49	810	0	10000	4	1	0	4	0
48	811	0	10000	4	1	0	4	0
47	813	0	10000	4	1	0	4	0
45	814	0	10000	4	1	0	4	0
43	815	0	10000	4	1	0	4	0
42	816	0	10000	4	1	0	4	0
41	817	0	10000	4	1	0	4	0
41	818	0	10000	4	1	0	4	0
42	819	0	10000	4	1	0	4	0
38	820	0	10000	4	1	0	4	0
36	820	0	10000	4	1	0	4	0
36	821	0	10000	4	1	0	4	0
35	823	0	10000	4	1	0	4	0
34	824	0	10000	4	1	0	4	0
33	825	0	10000	4	1	0	4	0
32	826	0	10000	4	1	0	4	0
32	827	0	10000	4	1	0	4	0
30	828	0	10000	4	1	0	4	0
29	829	0	10000	4	1	0	4	0
29	830	0	10000	4	1	0	4	0
30	830	0	10000	4	1	0	4	0
29	831	0	10000	4	1	0	4	0
28	833	0	10000	4	1	0	4	0
27	834	0	10000	4	1	0	4	0
26	835	0	10000	4	1	0	4	0
26	836	0	10000	4	1	0	4	0
25	837	0	10000	4	1	0	4	0
25	838	0	10000	4	1	0	4	0
27	839	0	10000	4	1	0	4	0
24	840	0	10000	4	1	0	4	0
23	840	0	10000	4	1	0	4	0
24	841	0	10000	4	1	0	4	0
25	843	0	10000	4	1	0	4	0
25	844	0	10000	4	1	0	4	0
26	845	0	10000	4	1	0	4	0
24	846	0	10000	4	1	0	4	0
23	847	0	10000	4	1	0	4	0
24	848	0	10000	4	1	0	4	0
26	849	0	10000	4	1	0	4	0
30	850	0	10000	4	1	0	4	0
31	850	0	10000	4	1	0	4	0
30	851	0	10000	4	1	0	4	0
29	853	0	10000	4	1	0	4	0
28	854	0	10000	4	1	0	4	0
27	855	0	10000	4	1	0	4	0
26	856	0	10000	4	1	0	4	0
25	857	0	10000	4	1	0	4	0
25	858	0	10000	4	1	0	4	0
26	859	0	10000	4	1	0	4	0
24	860	0	10000	4	1	0	4	0
23	860	0	10000	4	1	0	4	0
22	861	0	10000	4	1	0	4	0
23	863	0	10000	4	1	0	4	0
22	864	0	10000	4	1	0	4	0
22	865	0	10000	4	1	0	4	0
24	866	0	10000	4	1	0	4	0
24	867	0	10000	4	1	0	4	0
24	868	0	10000	4	1	0	4	0
23	869	0	10000	4	1	0	4	0
25	870	0	10000	4	1	0	4	0
24	870	0	10000	4	1	0	4	0
24	871	0	10000	4	1	0	4	0
26	873	0	10000	4	1	0	4	0
26	874	0	10000	4	1	0	4	0
28	875	0	10000	4	1	0	4	0
31	876	0	10000	4	1	0	4	0
33	877	0	10000	4	1	0	4	0
33	878	0	10000	4	1	0	4	0
33	879	0	10000	4	1	0	4	0
31	880	0	10000	4	1	0	4	0
31	880	0	10000	4	1	0	4	0
33	881	0	10000	4	1	0	4	0
34	883	0	10000	4	1	0	4	0
33	884	0	10000	4	1	0	4	0
32	885	0	10000	4	1	0	4	0
33	886	0	10000	4	1	0	4	0
34	887	0	10000	4	1	0	4	0
33	888	0	10000	4	1	0	4	0
32	889	0	10000	4	1	0	4	0
33	890	0	10000	4	1	0	4	0
33	890	0	10000	4	1	0	4	0
31	891	0	10000	4	1	0	4	0
29	893	0	10000	4	1	0	4	0
28	894	0	10000	4	1	0	4	0
29	895	0	10000	4	1	0	4	0
29	896	0	10000	4	1	0	4	0
30	897	0	10000	4	1	0	4	0
30	898	0	10000	4	1	0	4	0
29	899	0	10000	4	1	0	4	0
28	900	0	10000	4	1	0	4	0
28	900	0	10000	4	1	0	4	0
27	901	0	10000	4	1	0	4	0
27	903	0	10000	4	1	0	4	0
28	904	0	10000	4	1	0	4	0
29	905	0	10000	4	1	0	4	0
27	906	0	10000	4	1	0	4	0
27	907	0	10000	4	1	0	4	0
27	908	0	10000	4	1	0	4	0
27	909	0	10000	4	1	0	4	0
29	910	0	10000	4	1	0	4	0
31	910	0	10000	4	1	0	4	0
30	911	0	10000	4	1	0	4	0
29	913	0	10000	4	1	0	4	0
29	914	0	10000	4	1	0	4	0
27	915	0	10000	4	1	0	4	0
26	916	0	10000	4	1	0	4	0
27	917	0	10000	4	1	0	4	0
27	918	0	10000	4	1	0	4	0
29	919	0	10000	4	1	0	4	0
28	920	0	10000	4	1	0	4	0
28	920	0	10000	4	1	0	4	0
29	921	0	10000	4	1	0	4	0
29	923	0	10000	4	1	0	4	0
28	924	0	10000	4	1	0	4	0
27	925	0	10000	4	1	0	4	0
29	926	0	10000	4	1	0	4	0
30	927	0	10000	4	1	0	4	0
31	928	0	10000	4	1	0	4	0
29	929	0	10000	4	1	0	4	0
31	930	0	10000	4	1	0	4	0
31	930	0	10000	4	1	0	4	0
31	931	0	10000	4	1	0	4	0
30	933	0	10000	4	1	0	4	0
31	934	0	10000	4	1	0	4	0
33	935	0	10000	4	1	0	4	0
33	936	0	10000	4	1	0	4	0
38	937	0	10000	4	1	0	4	0
41	938	0	10000	4	1	0	4	0
43	939	0	10000	4	1	0	4	0
41	940	0	10000	4	1	0	4	0
41	940	0	10000	4	1	0	4	0
42	941	0	10000	4	1	0	4	0
41	943	0	10000	4	1	0	4	0
39	944	0	10000	4	1	0	4	0
38	945	0	10000	4	1	0	4	0
39	946	0	10000	4	1	0	4	0
36	947	0	10000	4	1	0	4	0
35	948	0	10000	4	1	0	4	0
33	949	0	10000	4	1	0	4	0
34	950	0	10000	4	1	0	4	0
35	950	0	10000	4	1	0	4	0
35	951	0	10000	4	1	0	4	0
34	953	0	10000	4	1	0	4	0
32	954	0	10000	4	1	0	4	0
31	955	0	10000	4	1	0	4	0
30	956	0	10000	4	1	0	4	0
30	957	0	10000	4	1	0	4	0
31	958	0	10000	4	1	0	4	0
30	959	0	10000	4	1	0	4	0
30	960	0	10000	4	1	0	4	0
29	960	0	10000	4	1	0	4	0
29	961	0	10000	4	1	0	4	0
29	963	0	10000	4	1	0	4	0
28	964	0	10000	4	1	0	4	0
28	965	0	10000	4	1	0	4	0
28	966	0	10000	4	1	0	4	0
27	967	0	10000	4	1	0	4	0
28	968	0	10000	4	1	0	4	0
30	969	0	10000	4	1	0	4	0
32	970	0	10000	4	1	0	4	0
32	970	0	10000	4	1	0	4	0
33	971	0	10000	4	1	0	4	0
33	973	0	10000	4	1	0	4	0
32	974	0	10000	4	1	0	4	0
32	975	0	10000	4	1	0	4	0
31	976	0	10000	4	1	0	4	0
30	977	0	10000	4	1	0	4	0
31	978	0	10000	4	1	0	4	0
32	979	0	10000	4	1	0	4	0
30	980	0	10000	4	1	0	4	0
29	980	0	10000	4	1	0	4	0
28	981	0	10000	4	1	0	4	0
29	983	0	10000	4	1	0	4	0
30	984	0	10000	4	1	0	4	0
33	985	0	10000	4	1	0	4	0
32	986	0	10000	4	1	0	4	0
34	987	0	10000	4	1	0	4	0
36	988	0	10000	4	1	0	4	0
35	989	0	10000	4	1	0	4	0
35	990	0	10000	4	1	0	4	0
36	990	0	10000	4	1	0	4	0
34	991	0	10000	4	1	0	4	0
32	993	0	10000	4	1	0	4	0
32	994	0	10000	4	1	0	4	0
31	995	0	10000	4	1	0	4	0
30	996	0	10000	4	1	0	4	0
32	997	0	10000	4	1	0	4	0
33	998	0	10000	4	1	0	4	0
34	999	0	10000	4	1	0	4	0
32	1000	0	10000	4	1	0	4	0
31	1000	0	10000	4	1	0	4	0
30	1001	0	10000	4	1	0	4	0
17	1	1	10000	5	1	0	5	0
16	2	1	10000	5	1	0	5	0
17	3	1	10000	5	1	0	5	0
15	4	1	10000	5	1	0	5	0
14	5	1	10000	5	1	0	5	0
14	6	1	10000	5	1	0	5	0
13	7	1	10000	5	1	0	5	0
15	8	1	10000	5	1	0	5	0
15	9	1	10000	5	1	0	5	0
16	10	1	10000	5	1	0	5	0
15	11	1	10000	5	1	0	5	0
15	12	1	10000	5	1	0	5	0
15	13	1	10000	5	1	0	5	0
18	14	1	10000	5	1	0	5	0
18	15	1	10000	5	1	0	5	0
17	16	1	10000	5	1	0	5	0
18	17	1	10000	5	1	0	5	0
18	18	1	10000	5	1	0	5	0
17	19	1	10000	5	1	0	5	0
17	20	1	10000	5	1	0	5	0
17	20	1	10000	5	1	0	5	0
17	21	1	10000	5	1	0	5	0
17	23	1	10000	5	1	0	5	0
16	24	1	10000	5	1	0	5	0
14	25	1	10000	5	1	0	5	0
15	26	1	10000	5	1	0	5	0
15	27	1	10000	5	1	0	5	0
15	28	1	10000	5	1	0	5	0
15	29	1	10000	5	1	0	5	0
15	30	1	10000	5	1	0	5	0
14	30	1	10000	5	1	0	5	0
15	31	1	10000	5	1	0	5	0
14	33	1	10000	5	1	0	5	0
15	34	1	10000	5	1	0	5	0
17	35	1	10000	5	1	0	5	0
16	36	1	10000	5	1	0	5	0
15	37	1	10000	5	1	0	5	0
14	38	1	10000	5	1	0	5	0
14	39	1	10000	5	1	0	5	0
14	40	1	10000	5	1	0	5	0
14	40	1	10000	5	1	0	5	0
13	41	1	10000	5	1	0	5	0
14	43	1	10000	5	1	0	5	0
12	44	1	10000	5	1	0	5	0
10	45	1	10000	5	1	0	5	0
11	46	1	10000	5	1	0	5	0
11	47	1	10000	5	1	0	5	0
12	48	1	10000	5	1	0	5	0
13	49	1	10000	5	1	0	5	0
12	50	1	10000	5	1	0	5	0
11	50	1	10000	5	1	0	5	0
10	51	1	10000	5	1	0	5	0
9	53	1	10000	5	1	0	5	0
11	54	1	10000	5	1	0	5	0
13	55	1	10000	5	1	0	5	0
13	56	1	10000	5	1	0	5	0
13	57	1	10000	5	1	0	5	0
14	58	1	10000	5	1	0	5	0
13	59	1	10000	5	1	0	5	0
14	60	1	10000	5	1	0	5	0
15	60	1	10000	5	1	0	5	0
14	61	1	10000	5	1	0	5	0
15	63	1	10000	5	1	0	5	0
15	64	1	10000	5	1	0	5	0
14	65	1	10000	5	1	0	5	0
14	66	1	10000	5	1	0	5	0
15	67	1	10000	5	1	0	5	0
16	68	1	10000	5	1	0	5	0
16	69	1	10000	5	1	0	5	0
16	70	1	10000	5	1	0	5	0
15	70	1	10000	5	1	0	5	0
15	71	1	10000	5	1	0	5	0
14	73	1	10000	5	1	0	5	0
15	74	1	10000	5	1	0	5	0
17	75	1	10000	5	1	0	5	0
16	76	1	10000	5	1	0	5	0
15	77	1	10000	5	1	0	5	0
15	78	1	10000	5	1	0	5	0
15	79	1	10000	5	1	0	5	0
14	80	1	10000	5	1	0	5	0
15	80	1	10000	5	1	0	5	0
14	81	1	10000	5	1	0	5	0
14	83	1	10000	5	1	0	5	0
13	84	1	10000	5	1	0	5	0
11	85	1	10000	5	1	0	5	0
12	86	1	10000	5	1	0	5	0
13	87	1	10000	5	1	0	5	0
13	88	1	10000	5	1	0	5	0
13	89	1	10000	5	1	0	5	0
14	90	1	10000	5	1	0	5	0
13	90	1	10000	5	1	0	5	0
13	91	1	10000	5	1	0	5	0
13	93	1	10000	5	1	0	5	0
15	94	1	10000	5	1	0	5	0
16	95	1	10000	5	1	0	5	0
15	96	1	10000	5	1	0	5	0
14	97	1	10000	5	1	0	5	0
13	98	1	10000	5	1	0	5	0
13	99	1	10000	5	1	0	5	0
13	100	1	10000	5	1	0	5	0
12	100	1	10000	5	1	0	5	0
14	101	1	10000	5	1	0	5	0
16	103	1	10000	5	1	0	5	0
15	104	1	10000	5	1	0	5	0
13	105	1	10000	5	1	0	5	0
12	106	1	10000	5	1	0	5	0
12	107	1	10000	5	1	0	5	0
13	108	1	10000	5	1	0	5	0
12	109	1	10000	5	1	0	5	0
12	110	1	10000	5	1	0	5	0
11	110	1	10000	5	1	0	5	0
11	111	1	10000	5	1	0	5	0
11	113	1	10000	5	1	0	5	0
12	114	1	10000	5	1	0	5	0
13	115	1	10000	5	1	0	5	0
12	116	1	10000	5	1	0	5	0
12	117	1	10000	5	1	0	5	0
13	118	1	10000	5	1	0	5	0
12	119	1	10000	5	1	0	5	0
12	120	1	10000	5	1	0	5	0
11	120	1	10000	5	1	0	5	0
13	121	1	10000	5	1	0	5	0
14	123	1	10000	5	1	0	5	0
12	124	1	10000	5	1	0	5	0
12	125	1	10000	5	1	0	5	0
13	126	1	10000	5	1	0	5	0
13	127	1	10000	5	1	0	5	0
13	128	1	10000	5	1	0	5	0
12	129	1	10000	5	1	0	5	0
12	130	1	10000	5	1	0	5	0
12	130	1	10000	5	1	0	5	0
12	131	1	10000	5	1	0	5	0
11	133	1	10000	5	1	0	5	0
11	134	1	10000	5	1	0	5	0
13	135	1	10000	5	1	0	5	0
13	136	1	10000	5	1	0	5	0
12	137	1	10000	5	1	0	5	0
11	138	1	10000	5	1	0	5	0
11	139	1	10000	5	1	0	5	0
12	140	1	10000	5	1	0	5	0
12	140	1	10000	5	1	0	5	0
13	141	1	10000	5	1	0	5	0
13	143	1	10000	5	1	0	5	0
12	144	1	10000	5	1	0	5	0
10	145	1	10000	5	1	0	5	0
13	146	1	10000	5	1	0	5	0
12	147	1	10000	5	1	0	5	0
12	148	1	10000	5	1	0	5	0
13	149	1	10000	5	1	0	5	0
15	150	1	10000	5	1	0	5	0
16	150	1	10000	5	1	0	5	0
15	151	1	10000	5	1	0	5	0
14	153	1	10000	5	1	0	5	0
15	154	1	10000	5	1	0	5	0
16	155	1	10000	5	1	0	5	0
15	156	1	10000	5	1	0	5	0
15	157	1	10000	5	1	0	5	0
15	158	1	10000	5	1	0	5	0
15	159	1	10000	5	1	0	5	0
14	160	1	10000	5	1	0	5	0
14	160	1	10000	5	1	0	5	0
15	161	1	10000	5	1	0	5	0
15	163	1	10000	5	1	0	5	0
14	164	1	10000	5	1	0	5	0
12	165	1	10000	5	1	0	5	0
13	166	1	10000	5	1	0	5	0
13	167	1	10000	5	1	0	5	0
14	168	1	10000	5	1	0	5	0
13	169	1	10000	5	1	0	5	0
12	170	1	10000	5	1	0	5	0
12	170	1	10000	5	1	0	5	0
13	171	1	10000	5	1	0	5	0
12	173	1	10000	5	1	0	5	0
12	174	1	10000	5	1	0	5	0
13	175	1	10000	5	1	0	5	0
14	176	1	10000	5	1	0	5	0
13	177	1	10000	5	1	0	5	0
13	178	1	10000	5	1	0	5	0
13	179	1	10000	5	1	0	5	0
14	180	1	10000	5	1	0	5	0
15	180	1	10000	5	1	0	5	0
16	181	1	10000	5	1	0	5	0
16	183	1	10000	5	1	0	5	0
14	184	1	10000	5	1	0	5	0
12	185	1	10000	5	1	0	5	0
13	186	1	10000	5	1	0	5	0
13	187	1	10000	5	1	0	5	0
13	188	1	10000	5	1	0	5	0
13	189	1	10000	5	1	0	5	0
13	190	1	10000	5	1	0	5	0
13	190	1	10000	5	1	0	5	0
12	191	1	10000	5	1	0	5	0
11	193	1	10000	5	1	0	5	0
12	194	1	10000	5	1	0	5	0
13	195	1	10000	5	1	0	5	0
13	196	1	10000	5	1	0	5	0
13	197	1	10000	5	1	0	5	0
13	198	1	10000	5	1	0	5	0
14	199	1	10000	5	1	0	5	0
14	200	1	10000	5	1	0	5	0
14	200	1	10000	5	1	0	5	0
14	201	1	10000	5	1	0	5	0
14	203	1	10000	5	1	0	5	0
14	204	1	10000	5	1	0	5	0
14	205	1	10000	5	1	0	5	0
13	206	1	10000	5	1	0	5	0
14	207	1	10000	5	1	0	5	0
15	208	1	10000	5	1	0	5	0
14	209	1	10000	5	1	0	5	0
14	210	1	10000	5	1	0	5	0
15	210	1	10000	5	1	0	5	0
14	211	1	10000	5	1	0	5	0
13	213	1	10000	5	1	0	5	0
15	214	1	10000	5	1	0	5	0
16	215	1	10000	5	1	0	5	0
16	216	1	10000	5	1	0	5	0
16	217	1	10000	5	1	0	5	0
15	218	1	10000	5	1	0	5	0
16	219	1	10000	5	1	0	5	0
15	220	1	10000	5	1	0	5	0
14	220	1	10000	5	1	0	5	0
14	221	1	10000	5	1	0	5	0
15	223	1	10000	5	1	0	5	0
15	224	1	10000	5	1	0	5	0
14	225	1	10000	5	1	0	5	0
14	226	1	10000	5	1	0	5	0
14	227	1	10000	5	1	0	5	0
14	228	1	10000	5	1	0	5	0
14	229	1	10000	5	1	0	5	0
13	230	1	10000	5	1	0	5	0
13	230	1	10000	5	1	0	5	0
12	231	1	10000	5	1	0	5	0
12	233	1	10000	5	1	0	5	0
12	234	1	10000	5	1	0	5	0
13	235	1	10000	5	1	0	5	0
13	236	1	10000	5	1	0	5	0
15	237	1	10000	5	1	0	5	0
15	238	1	10000	5	1	0	5	0
18	239	1	10000	5	1	0	5	0
21	240	1	10000	5	1	0	5	0
24	240	1	10000	5	1	0	5	0
27	241	1	10000	5	1	0	5	0
28	243	1	10000	5	1	0	5	0
29	244	1	10000	5	1	0	5	0
26	245	1	10000	5	1	0	5	0
27	246	1	10000	5	1	0	5	0
28	247	1	10000	5	1	0	5	0
26	248	1	10000	5	1	0	5	0
26	249	1	10000	5	1	0	5	0
25	250	1	10000	5	1	0	5	0
25	250	1	10000	5	1	0	5	0
24	251	1	10000	5	1	0	5	0
25	253	1	10000	5	1	0	5	0
28	254	1	10000	5	1	0	5	0
31	255	1	10000	5	1	0	5	0
33	256	1	10000	5	1	0	5	0
35	257	1	10000	5	1	0	5	0
36	258	1	10000	5	1	0	5	0
39	259	1	10000	5	1	0	5	0
42	260	1	10000	5	1	0	5	0
44	260	1	10000	5	1	0	5	0
45	261	1	10000	5	1	0	5	0
45	263	1	10000	5	1	0	5	0
45	264	1	10000	5	1	0	5	0
43	265	1	10000	5	1	0	5	0
44	266	1	10000	5	1	0	5	0
44	267	1	10000	5	1	0	5	0
44	268	1	10000	5	1	0	5	0
43	269	1	10000	5	1	0	5	0
41	270	1	10000	5	1	0	5	0
40	270	1	10000	5	1	0	5	0
37	271	1	10000	5	1	0	5	0
36	273	1	10000	5	1	0	5	0
35	274	1	10000	5	1	0	5	0
35	275	1	10000	5	1	0	5	0
33	276	1	10000	5	1	0	5	0
31	277	1	10000	5	1	0	5	0
30	278	1	10000	5	1	0	5	0
29	279	1	10000	5	1	0	5	0
29	280	1	10000	5	1	0	5	0
29	280	1	10000	5	1	0	5	0
30	281	1	10000	5	1	0	5	0
32	283	1	10000	5	1	0	5	0
33	284	1	10000	5	1	0	5	0
32	285	1	10000	5	1	0	5	0
34	286	1	10000	5	1	0	5	0
35	287	1	10000	5	1	0	5	0
37	288	1	10000	5	1	0	5	0
37	289	1	10000	5	1	0	5	0
37	290	1	10000	5	1	0	5	0
38	290	1	10000	5	1	0	5	0
38	291	1	10000	5	1	0	5	0
38	293	1	10000	5	1	0	5	0
39	294	1	10000	5	1	0	5	0
42	295	1	10000	5	1	0	5	0
41	296	1	10000	5	1	0	5	0
43	297	1	10000	5	1	0	5	0
44	298	1	10000	5	1	0	5	0
44	299	1	10000	5	1	0	5	0
44	300	1	10000	5	1	0	5	0
45	300	1	10000	5	1	0	5	0
44	301	1	10000	5	1	0	5	0
43	303	1	10000	5	1	0	5	0
40	304	1	10000	5	1	0	5	0
37	305	1	10000	5	1	0	5	0
38	306	1	10000	5	1	0	5	0
35	307	1	10000	5	1	0	5	0
34	308	1	10000	5	1	0	5	0
33	309	1	10000	5	1	0	5	0
32	310	1	10000	5	1	0	5	0
32	310	1	10000	5	1	0	5	0
30	311	1	10000	5	1	0	5	0
29	313	1	10000	5	1	0	5	0
29	314	1	10000	5	1	0	5	0
30	315	1	10000	5	1	0	5	0
29	316	1	10000	5	1	0	5	0
29	317	1	10000	5	1	0	5	0
29	318	1	10000	5	1	0	5	0
28	319	1	10000	5	1	0	5	0
27	320	1	10000	5	1	0	5	0
26	320	1	10000	5	1	0	5	0
27	321	1	10000	5	1	0	5	0
28	323	1	10000	5	1	0	5	0
29	324	1	10000	5	1	0	5	0
29	325	1	10000	5	1	0	5	0
28	326	1	10000	5	1	0	5	0
29	327	1	10000	5	1	0	5	0
30	328	1	10000	5	1	0	5	0
30	329	1	10000	5	1	0	5	0
29	330	1	10000	5	1	0	5	0
29	330	1	10000	5	1	0	5	0
28	331	1	10000	5	1	0	5	0
27	333	1	10000	5	1	0	5	0
29	334	1	10000	5	1	0	5	0
32	335	1	10000	5	1	0	5	0
32	336	1	10000	5	1	0	5	0
32	337	1	10000	5	1	0	5	0
31	338	1	10000	5	1	0	5	0
30	339	1	10000	5	1	0	5	0
28	340	1	10000	5	1	0	5	0
27	340	1	10000	5	1	0	5	0
27	341	1	10000	5	1	0	5	0
27	343	1	10000	5	1	0	5	0
25	344	1	10000	5	1	0	5	0
23	345	1	10000	5	1	0	5	0
22	346	1	10000	5	1	0	5	0
24	347	1	10000	5	1	0	5	0
24	348	1	10000	5	1	0	5	0
23	349	1	10000	5	1	0	5	0
23	350	1	10000	5	1	0	5	0
22	350	1	10000	5	1	0	5	0
21	351	1	10000	5	1	0	5	0
22	353	1	10000	5	1	0	5	0
22	354	1	10000	5	1	0	5	0
25	355	1	10000	5	1	0	5	0
23	356	1	10000	5	1	0	5	0
22	357	1	10000	5	1	0	5	0
22	358	1	10000	5	1	0	5	0
22	359	1	10000	5	1	0	5	0
22	360	1	10000	5	1	0	5	0
21	360	1	10000	5	1	0	5	0
21	361	1	10000	5	1	0	5	0
21	363	1	10000	5	1	0	5	0
20	364	1	10000	5	1	0	5	0
18	365	1	10000	5	1	0	5	0
19	366	1	10000	5	1	0	5	0
20	367	1	10000	5	1	0	5	0
20	368	1	10000	5	1	0	5	0
20	369	1	10000	5	1	0	5	0
20	370	1	10000	5	1	0	5	0
19	370	1	10000	5	1	0	5	0
18	371	1	10000	5	1	0	5	0
18	373	1	10000	5	1	0	5	0
18	374	1	10000	5	1	0	5	0
20	375	1	10000	5	1	0	5	0
18	376	1	10000	5	1	0	5	0
17	377	1	10000	5	1	0	5	0
17	378	1	10000	5	1	0	5	0
17	379	1	10000	5	1	0	5	0
18	380	1	10000	5	1	0	5	0
18	380	1	10000	5	1	0	5	0
19	381	1	10000	5	1	0	5	0
19	383	1	10000	5	1	0	5	0
18	384	1	10000	5	1	0	5	0
16	385	1	10000	5	1	0	5	0
16	386	1	10000	5	1	0	5	0
15	387	1	10000	5	1	0	5	0
16	388	1	10000	5	1	0	5	0
16	389	1	10000	5	1	0	5	0
16	390	1	10000	5	1	0	5	0
16	390	1	10000	5	1	0	5	0
15	391	1	10000	5	1	0	5	0
14	393	1	10000	5	1	0	5	0
14	394	1	10000	5	1	0	5	0
15	395	1	10000	5	1	0	5	0
15	396	1	10000	5	1	0	5	0
15	397	1	10000	5	1	0	5	0
17	398	1	10000	5	1	0	5	0
16	399	1	10000	5	1	0	5	0
16	400	1	10000	5	1	0	5	0
15	400	1	10000	5	1	0	5	0
17	401	1	10000	5	1	0	5	0
17	403	1	10000	5	1	0	5	0
17	404	1	10000	5	1	0	5	0
14	405	1	10000	5	1	0	5	0
14	406	1	10000	5	1	0	5	0
15	407	1	10000	5	1	0	5	0
15	408	1	10000	5	1	0	5	0
14	409	1	10000	5	1	0	5	0
14	410	1	10000	5	1	0	5	0
14	410	1	10000	5	1	0	5	0
13	411	1	10000	5	1	0	5	0
12	413	1	10000	5	1	0	5	0
13	414	1	10000	5	1	0	5	0
14	415	1	10000	5	1	0	5	0
15	416	1	10000	5	1	0	5	0
14	417	1	10000	5	1	0	5	0
13	418	1	10000	5	1	0	5	0
13	419	1	10000	5	1	0	5	0
12	420	1	10000	5	1	0	5	0
12	420	1	10000	5	1	0	5	0
12	421	1	10000	5	1	0	5	0
12	423	1	10000	5	1	0	5	0
12	424	1	10000	5	1	0	5	0
10	425	1	10000	5	1	0	5	0
11	426	1	10000	5	1	0	5	0
11	427	1	10000	5	1	0	5	0
11	428	1	10000	5	1	0	5	0
11	429	1	10000	5	1	0	5	0
13	430	1	10000	5	1	0	5	0
13	430	1	10000	5	1	0	5	0
12	431	1	10000	5	1	0	5	0
12	433	1	10000	5	1	0	5	0
14	434	1	10000	5	1	0	5	0
17	435	1	10000	5	1	0	5	0
15	436	1	10000	5	1	0	5	0
16	437	1	10000	5	1	0	5	0
15	438	1	10000	5	1	0	5	0
16	439	1	10000	5	1	0	5	0
15	440	1	10000	5	1	0	5	0
16	440	1	10000	5	1	0	5	0
18	441	1	10000	5	1	0	5	0
20	443	1	10000	5	1	0	5	0
20	444	1	10000	5	1	0	5	0
17	445	1	10000	5	1	0	5	0
16	446	1	10000	5	1	0	5	0
16	447	1	10000	5	1	0	5	0
17	448	1	10000	5	1	0	5	0
17	449	1	10000	5	1	0	5	0
17	450	1	10000	5	1	0	5	0
19	450	1	10000	5	1	0	5	0
20	451	1	10000	5	1	0	5	0
20	453	1	10000	5	1	0	5	0
19	454	1	10000	5	1	0	5	0
21	455	1	10000	5	1	0	5	0
21	456	1	10000	5	1	0	5	0
22	457	1	10000	5	1	0	5	0
21	458	1	10000	5	1	0	5	0
20	459	1	10000	5	1	0	5	0
20	460	1	10000	5	1	0	5	0
19	460	1	10000	5	1	0	5	0
20	461	1	10000	5	1	0	5	0
20	463	1	10000	5	1	0	5	0
20	464	1	10000	5	1	0	5	0
17	465	1	10000	5	1	0	5	0
17	466	1	10000	5	1	0	5	0
18	467	1	10000	5	1	0	5	0
18	468	1	10000	5	1	0	5	0
17	469	1	10000	5	1	0	5	0
18	470	1	10000	5	1	0	5	0
19	470	1	10000	5	1	0	5	0
19	471	1	10000	5	1	0	5	0
18	473	1	10000	5	1	0	5	0
17	474	1	10000	5	1	0	5	0
20	475	1	10000	5	1	0	5	0
19	476	1	10000	5	1	0	5	0
18	477	1	10000	5	1	0	5	0
17	478	1	10000	5	1	0	5	0
16	479	1	10000	5	1	0	5	0
15	480	1	10000	5	1	0	5	0
15	480	1	10000	5	1	0	5	0
16	481	1	10000	5	1	0	5	0
17	483	1	10000	5	1	0	5	0
17	484	1	10000	5	1	0	5	0
16	485	1	10000	5	1	0	5	0
15	486	1	10000	5	1	0	5	0
15	487	1	10000	5	1	0	5	0
15	488	1	10000	5	1	0	5	0
14	489	1	10000	5	1	0	5	0
14	490	1	10000	5	1	0	5	0
15	490	1	10000	5	1	0	5	0
15	491	1	10000	5	1	0	5	0
16	493	1	10000	5	1	0	5	0
16	494	1	10000	5	1	0	5	0
18	495	1	10000	5	1	0	5	0
16	496	1	10000	5	1	0	5	0
16	497	1	10000	5	1	0	5	0
16	498	1	10000	5	1	0	5	0
16	499	1	10000	5	1	0	5	0
16	500	1	10000	5	1	0	5	0
16	500	1	10000	5	1	0	5	0
17	501	1	10000	5	1	0	5	0
17	503	1	10000	5	1	0	5	1
18	504	1	10000	5	1	0	5	1
15	505	1	10000	5	1	0	5	1
15	506	1	10000	5	1	0	5	1
15	507	1	10000	5	1	0	5	1
16	508	1	10000	5	1	0	5	1
15	509	1	10000	5	1	0	5	1
14	510	1	10000	5	1	0	5	1
15	510	1	10000	5	1	0	5	1
14	511	1	10000	5	1	0	5	1
14	513	1	10000	5	1	0	5	1
13	514	1	10000	5	1	0	5	1
15	515	1	10000	5	1	0	5	1
14	516	1	10000	5	1	0	5	1
15	517	1	10000	5	1	0	5	1
14	518	1	10000	5	1	0	5	1
14	519	1	10000	5	1	0	5	1
14	520	1	10000	5	1	0	5	1
13	520	1	10000	5	1	0	5	1
13	521	1	10000	5	1	0	5	1
14	523	1	10000	5	1	0	5	1
14	524	1	10000	5	1	0	5	1
11	525	1	10000	5	1	0	5	1
12	526	1	10000	5	1	0	5	1
12	527	1	10000	5	1	0	5	1
12	528	1	10000	5	1	0	5	1
12	529	1	10000	5	1	0	5	1
12	530	1	10000	5	1	0	5	1
15	530	1	10000	5	1	0	5	1
14	531	1	10000	5	1	0	5	1
13	533	1	10000	5	1	0	5	1
13	534	1	10000	5	1	0	5	1
15	535	1	10000	5	1	0	5	1
15	536	1	10000	5	1	0	5	1
14	537	1	10000	5	1	0	5	1
13	538	1	10000	5	1	0	5	1
13	539	1	10000	5	1	0	5	1
13	540	1	10000	5	1	0	5	1
12	540	1	10000	5	1	0	5	1
12	541	1	10000	5	1	0	5	1
12	543	1	10000	5	1	0	5	1
13	544	1	10000	5	1	0	5	1
10	545	1	10000	5	1	0	5	1
11	546	1	10000	5	1	0	5	1
12	547	1	10000	5	1	0	5	1
12	548	1	10000	5	1	0	5	1
14	549	1	10000	5	1	0	5	1
14	550	1	10000	5	1	0	5	1
15	550	1	10000	5	1	0	5	1
15	551	1	10000	5	1	0	5	1
14	553	1	10000	5	1	0	5	0
16	554	1	10000	5	1	0	5	0
17	555	1	10000	5	1	0	5	0
17	556	1	10000	5	1	0	5	0
16	557	1	10000	5	1	0	5	0
16	558	1	10000	5	1	0	5	0
16	559	1	10000	5	1	0	5	0
16	560	1	10000	5	1	0	5	0
15	560	1	10000	5	1	0	5	0
16	561	1	10000	5	1	0	5	0
17	563	1	10000	5	1	0	5	0
16	564	1	10000	5	1	0	5	0
14	565	1	10000	5	1	0	5	0
14	566	1	10000	5	1	0	5	0
14	567	1	10000	5	1	0	5	0
14	568	1	10000	5	1	0	5	0
14	569	1	10000	5	1	0	5	0
14	570	1	10000	5	1	0	5	0
14	570	1	10000	5	1	0	5	0
14	571	1	10000	5	1	0	5	0
14	573	1	10000	5	1	0	5	0
16	574	1	10000	5	1	0	5	0
20	575	1	10000	5	1	0	5	0
20	576	1	10000	5	1	0	5	0
20	577	1	10000	5	1	0	5	0
18	578	1	10000	5	1	0	5	0
19	579	1	10000	5	1	0	5	0
18	580	1	10000	5	1	0	5	0
17	580	1	10000	5	1	0	5	0
18	581	1	10000	5	1	0	5	0
18	583	1	10000	5	1	0	5	0
18	584	1	10000	5	1	0	5	0
16	585	1	10000	5	1	0	5	0
18	586	1	10000	5	1	0	5	0
19	587	1	10000	5	1	0	5	0
20	588	1	10000	5	1	0	5	0
25	589	1	10000	5	1	0	5	0
29	590	1	10000	5	1	0	5	0
30	590	1	10000	5	1	0	5	0
33	591	1	10000	5	1	0	5	0
33	593	1	10000	5	1	0	5	0
33	594	1	10000	5	1	0	5	0
37	595	1	10000	5	1	0	5	0
42	596	1	10000	5	1	0	5	0
56	597	1	10000	5	1	0	5	0
120	598	1	10000	5	1	0	5	0
140	599	1	10000	5	1	0	5	0
186	600	1	10000	5	1	0	5	0
238	600	1	10000	5	1	0	5	0
311	601	1	10000	5	1	0	5	0
409	603	1	10000	5	1	0	5	0
491	604	1	10000	5	1	0	5	0
702	605	1	10000	5	1	0	5	0
768	606	1	10000	5	1	0	5	0
772	607	1	10000	5	1	0	5	0
746	608	1	10000	5	1	0	5	0
729	609	1	10000	5	1	0	5	0
760	610	1	10000	5	1	0	5	0
751	610	1	10000	5	1	0	5	0
764	611	1	10000	5	1	0	5	0
792	613	1	10000	5	1	0	5	0
837	614	1	10000	5	1	0	5	0
844	615	1	10000	5	1	0	5	0
910	616	1	10000	5	1	0	5	0
942	617	1	10000	5	1	0	5	0
949	618	1	10000	5	1	0	5	0
932	619	1	10000	5	1	0	5	0
912	620	1	10000	5	1	0	5	0
890	620	1	10000	5	1	0	5	0
921	621	1	10000	5	1	0	5	0
951	623	1	10000	5	1	0	5	0
964	624	1	10000	5	1	0	5	0
939	625	1	10000	5	1	0	5	0
984	626	1	10000	5	1	0	5	0
1096	627	1	10000	5	1	0	5	0
1080	628	1	10000	5	1	0	5	0
1053	629	1	10000	5	1	0	5	0
1009	630	1	10000	5	1	0	5	0
965	630	1	10000	5	1	0	5	0
928	631	1	10000	5	1	0	5	0
895	633	1	10000	5	1	0	5	0
855	634	1	10000	5	1	0	5	0
824	635	1	10000	5	1	0	5	0
798	636	1	10000	5	1	0	5	0
776	637	1	10000	5	1	0	5	0
756	638	1	10000	5	1	0	5	0
740	639	1	10000	5	1	0	5	0
726	640	1	10000	5	1	0	5	0
711	640	1	10000	5	1	0	5	0
694	641	1	10000	5	1	0	5	0
678	643	1	10000	5	1	0	5	0
663	644	1	10000	5	1	0	5	0
644	645	1	10000	5	1	0	5	0
624	646	1	10000	5	1	0	5	0
603	647	1	10000	5	1	0	5	0
583	648	1	10000	5	1	0	5	0
561	649	1	10000	5	1	0	5	0
541	650	1	10000	5	1	0	5	0
522	650	1	10000	5	1	0	5	0
501	651	1	10000	5	1	0	5	0
480	653	1	10000	5	1	0	5	0
461	654	1	10000	5	1	0	5	0
447	655	1	10000	5	1	0	5	0
430	656	1	10000	5	1	0	5	0
413	657	1	10000	5	1	0	5	0
393	658	1	10000	5	1	0	5	0
376	659	1	10000	5	1	0	5	0
362	660	1	10000	5	1	0	5	0
350	660	1	10000	5	1	0	5	0
344	661	1	10000	5	1	0	5	0
340	663	1	10000	5	1	0	5	0
341	664	1	10000	5	1	0	5	0
340	665	1	10000	5	1	0	5	0
345	666	1	10000	5	1	0	5	0
349	667	1	10000	5	1	0	5	0
352	668	1	10000	5	1	0	5	0
357	669	1	10000	5	1	0	5	0
361	670	1	10000	5	1	0	5	0
364	670	1	10000	5	1	0	5	0
364	671	1	10000	5	1	0	5	0
364	673	1	10000	5	1	0	5	0
364	674	1	10000	5	1	0	5	0
367	675	1	10000	5	1	0	5	0
367	676	1	10000	5	1	0	5	0
366	677	1	10000	5	1	0	5	0
365	678	1	10000	5	1	0	5	0
364	679	1	10000	5	1	0	5	0
365	680	1	10000	5	1	0	5	0
365	680	1	10000	5	1	0	5	0
367	681	1	10000	5	1	0	5	0
369	683	1	10000	5	1	0	5	0
370	684	1	10000	5	1	0	5	0
369	685	1	10000	5	1	0	5	0
372	686	1	10000	5	1	0	5	0
376	687	1	10000	5	1	0	5	0
377	688	1	10000	5	1	0	5	0
376	689	1	10000	5	1	0	5	0
374	690	1	10000	5	1	0	5	0
371	690	1	10000	5	1	0	5	0
366	691	1	10000	5	1	0	5	0
360	693	1	10000	5	1	0	5	0
350	694	1	10000	5	1	0	5	0
341	695	1	10000	5	1	0	5	0
328	696	1	10000	5	1	0	5	0
315	697	1	10000	5	1	0	5	0
301	698	1	10000	5	1	0	5	0
288	699	1	10000	5	1	0	5	0
275	700	1	10000	5	1	0	5	0
261	700	1	10000	5	1	0	5	0
252	701	1	10000	5	1	0	5	0
243	703	1	10000	5	1	0	5	0
234	704	1	10000	5	1	0	5	0
222	705	1	10000	5	1	0	5	0
213	706	1	10000	5	1	0	5	0
205	707	1	10000	5	1	0	5	0
199	708	1	10000	5	1	0	5	0
190	709	1	10000	5	1	0	5	0
183	710	1	10000	5	1	0	5	0
176	710	1	10000	5	1	0	5	0
172	711	1	10000	5	1	0	5	0
167	713	1	10000	5	1	0	5	0
165	714	1	10000	5	1	0	5	0
165	715	1	10000	5	1	0	5	0
165	716	1	10000	5	1	0	5	0
166	717	1	10000	5	1	0	5	0
168	718	1	10000	5	1	0	5	0
170	719	1	10000	5	1	0	5	0
168	720	1	10000	5	1	0	5	0
166	720	1	10000	5	1	0	5	0
163	721	1	10000	5	1	0	5	0
159	723	1	10000	5	1	0	5	0
155	724	1	10000	5	1	0	5	0
149	725	1	10000	5	1	0	5	0
145	726	1	10000	5	1	0	5	0
140	727	1	10000	5	1	0	5	0
137	728	1	10000	5	1	0	5	0
132	729	1	10000	5	1	0	5	0
128	730	1	10000	5	1	0	5	0
127	730	1	10000	5	1	0	5	0
126	731	1	10000	5	1	0	5	0
126	733	1	10000	5	1	0	5	0
126	734	1	10000	5	1	0	5	0
128	735	1	10000	5	1	0	5	0
