value	EMG	Stimulus	EMG_sensitivity	Total_Trial_Nr	practise	acq	probe_nr	Startle_Probe
49	2	0	10000	1	1	0	1	0
47	3	0	10000	1	1	0	1	0
45	4	0	10000	1	1	0	1	0
44	5	0	10000	1	1	0	1	0
44	6	0	10000	1	1	0	1	0
45	7	0	10000	1	1	0	1	0
45	8	0	10000	1	1	0	1	0
44	9	0	10000	1	1	0	1	0
42	10	0	10000	1	1	0	1	0
43	11	0	10000	1	1	0	1	0
49	12	0	10000	1	1	0	1	0
52	13	0	10000	1	1	0	1	0
54	14	0	10000	1	1	0	1	0
57	15	0	10000	1	1	0	1	0
59	16	0	10000	1	1	0	1	0
62	17	0	10000	1	1	0	1	0
64	18	0	10000	1	1	0	1	0
65	19	0	10000	1	1	0	1	0
68	20	0	10000	1	1	0	1	0
69	21	0	10000	1	1	0	1	0
68	21	0	10000	1	1	0	1	0
69	22	0	10000	1	1	0	1	0
70	24	0	10000	1	1	0	1	0
70	25	0	10000	1	1	0	1	0
68	26	0	10000	1	1	0	1	0
66	27	0	10000	1	1	0	1	0
65	28	0	10000	1	1	0	1	0
66	29	0	10000	1	1	0	1	0
67	30	0	10000	1	1	0	1	0
65	31	0	10000	1	1	0	1	0
63	31	0	10000	1	1	0	1	0
62	32	0	10000	1	1	0	1	0
59	34	0	10000	1	1	0	1	0
56	35	0	10000	1	1	0	1	0
54	36	0	10000	1	1	0	1	0
52	37	0	10000	1	1	0	1	0
52	38	0	10000	1	1	0	1	0
52	39	0	10000	1	1	0	1	0
52	40	0	10000	1	1	0	1	0
50	41	0	10000	1	1	0	1	0
47	41	0	10000	1	1	0	1	0
48	42	0	10000	1	1	0	1	0
52	44	0	10000	1	1	0	1	0
54	45	0	10000	1	1	0	1	0
55	46	0	10000	1	1	0	1	0
56	47	0	10000	1	1	0	1	0
56	48	0	10000	1	1	0	1	0
54	49	0	10000	1	1	0	1	0
53	50	0	10000	1	1	0	1	0
53	51	0	10000	1	1	0	1	0
55	51	0	10000	1	1	0	1	0
55	52	0	10000	1	1	0	1	0
53	54	0	10000	1	1	0	1	0
51	55	0	10000	1	1	0	1	0
48	56	0	10000	1	1	0	1	0
46	57	0	10000	1	1	0	1	0
45	58	0	10000	1	1	0	1	0
44	59	0	10000	1	1	0	1	0
44	60	0	10000	1	1	0	1	0
44	61	0	10000	1	1	0	1	0
41	61	0	10000	1	1	0	1	0
42	62	0	10000	1	1	0	1	0
45	64	0	10000	1	1	0	1	0
48	65	0	10000	1	1	0	1	0
49	66	0	10000	1	1	0	1	0
48	67	0	10000	1	1	0	1	0
47	68	0	10000	1	1	0	1	0
47	69	0	10000	1	1	0	1	0
47	70	0	10000	1	1	0	1	0
47	71	0	10000	1	1	0	1	0
51	71	0	10000	1	1	0	1	0
52	72	0	10000	1	1	0	1	0
49	74	0	10000	1	1	0	1	0
47	75	0	10000	1	1	0	1	0
47	76	0	10000	1	1	0	1	0
45	77	0	10000	1	1	0	1	0
45	78	0	10000	1	1	0	1	0
46	79	0	10000	1	1	0	1	0
45	80	0	10000	1	1	0	1	0
45	81	0	10000	1	1	0	1	0
44	81	0	10000	1	1	0	1	0
42	82	0	10000	1	1	0	1	0
41	84	0	10000	1	1	0	1	0
40	85	0	10000	1	1	0	1	0
41	86	0	10000	1	1	0	1	0
44	87	0	10000	1	1	0	1	0
44	88	0	10000	1	1	0	1	0
44	89	0	10000	1	1	0	1	0
45	90	0	10000	1	1	0	1	0
45	91	0	10000	1	1	0	1	0
45	91	0	10000	1	1	0	1	0
45	92	0	10000	1	1	0	1	0
43	94	0	10000	1	1	0	1	0
42	95	0	10000	1	1	0	1	0
39	96	0	10000	1	1	0	1	0
39	97	0	10000	1	1	0	1	0
36	98	0	10000	1	1	0	1	0
35	99	0	10000	1	1	0	1	0
35	100	0	10000	1	1	0	1	0
37	101	0	10000	1	1	0	1	0
35	101	0	10000	1	1	0	1	0
37	102	0	10000	1	1	0	1	0
44	104	0	10000	1	1	0	1	0
47	105	0	10000	1	1	0	1	0
45	106	0	10000	1	1	0	1	0
47	107	0	10000	1	1	0	1	0
47	108	0	10000	1	1	0	1	0
46	109	0	10000	1	1	0	1	0
44	110	0	10000	1	1	0	1	0
42	111	0	10000	1	1	0	1	0
43	111	0	10000	1	1	0	1	0
42	112	0	10000	1	1	0	1	0
41	114	0	10000	1	1	0	1	0
40	115	0	10000	1	1	0	1	0
39	116	0	10000	1	1	0	1	0
40	117	0	10000	1	1	0	1	0
39	118	0	10000	1	1	0	1	0
38	119	0	10000	1	1	0	1	0
37	120	0	10000	1	1	0	1	0
37	121	0	10000	1	1	0	1	0
34	121	0	10000	1	1	0	1	0
33	122	0	10000	1	1	0	1	0
33	124	0	10000	1	1	0	1	0
35	125	0	10000	1	1	0	1	0
34	126	0	10000	1	1	0	1	0
34	127	0	10000	1	1	0	1	0
35	128	0	10000	1	1	0	1	0
37	129	0	10000	1	1	0	1	0
37	130	0	10000	1	1	0	1	0
37	131	0	10000	1	1	0	1	0
39	131	0	10000	1	1	0	1	0
38	132	0	10000	1	1	0	1	0
37	134	0	10000	1	1	0	1	0
37	135	0	10000	1	1	0	1	0
38	136	0	10000	1	1	0	1	0
37	137	0	10000	1	1	0	1	0
37	138	0	10000	1	1	0	1	0
37	139	0	10000	1	1	0	1	0
37	140	0	10000	1	1	0	1	0
37	141	0	10000	1	1	0	1	0
34	141	0	10000	1	1	0	1	0
36	142	0	10000	1	1	0	1	0
37	144	0	10000	1	1	0	1	0
39	145	0	10000	1	1	0	1	0
42	146	0	10000	1	1	0	1	0
46	147	0	10000	1	1	0	1	0
52	148	0	10000	1	1	0	1	0
52	149	0	10000	1	1	0	1	0
50	150	0	10000	1	1	0	1	0
50	151	0	10000	1	1	0	1	0
52	151	0	10000	1	1	0	1	0
53	152	0	10000	1	1	0	1	0
50	154	0	10000	1	1	0	1	0
48	155	0	10000	1	1	0	1	0
46	156	0	10000	1	1	0	1	0
46	157	0	10000	1	1	0	1	0
45	158	0	10000	1	1	0	1	0
47	159	0	10000	1	1	0	1	0
49	160	0	10000	1	1	0	1	0
49	161	0	10000	1	1	0	1	0
47	161	0	10000	1	1	0	1	0
46	162	0	10000	1	1	0	1	0
45	164	0	10000	1	1	0	1	0
44	165	0	10000	1	1	0	1	0
43	166	0	10000	1	1	0	1	0
44	167	0	10000	1	1	0	1	0
45	168	0	10000	1	1	0	1	0
46	169	0	10000	1	1	0	1	0
44	170	0	10000	1	1	0	1	0
44	171	0	10000	1	1	0	1	0
44	171	0	10000	1	1	0	1	0
44	172	0	10000	1	1	0	1	0
42	174	0	10000	1	1	0	1	0
41	175	0	10000	1	1	0	1	0
44	176	0	10000	1	1	0	1	0
45	177	0	10000	1	1	0	1	0
43	178	0	10000	1	1	0	1	0
42	179	0	10000	1	1	0	1	0
41	180	0	10000	1	1	0	1	0
41	181	0	10000	1	1	0	1	0
39	181	0	10000	1	1	0	1	0
37	182	0	10000	1	1	0	1	0
38	184	0	10000	1	1	0	1	0
41	185	0	10000	1	1	0	1	0
41	186	0	10000	1	1	0	1	0
40	187	0	10000	1	1	0	1	0
40	188	0	10000	1	1	0	1	0
40	189	0	10000	1	1	0	1	0
39	190	0	10000	1	1	0	1	0
38	191	0	10000	1	1	0	1	0
39	191	0	10000	1	1	0	1	0
40	192	0	10000	1	1	0	1	0
41	194	0	10000	1	1	0	1	0
41	195	0	10000	1	1	0	1	0
40	196	0	10000	1	1	0	1	0
43	197	0	10000	1	1	0	1	0
46	198	0	10000	1	1	0	1	0
46	199	0	10000	1	1	0	1	0
46	200	0	10000	1	1	0	1	0
48	201	0	10000	1	1	0	1	0
46	201	0	10000	1	1	0	1	0
44	202	0	10000	1	1	0	1	0
43	204	0	10000	1	1	0	1	0
41	205	0	10000	1	1	0	1	0
40	206	0	10000	1	1	0	1	0
39	207	0	10000	1	1	0	1	0
38	208	0	10000	1	1	0	1	0
39	209	0	10000	1	1	0	1	0
40	210	0	10000	1	1	0	1	0
39	211	0	10000	1	1	0	1	0
39	211	0	10000	1	1	0	1	0
41	212	0	10000	1	1	0	1	0
44	214	0	10000	1	1	0	1	0
47	215	0	10000	1	1	0	1	0
52	216	0	10000	1	1	0	1	0
56	217	0	10000	1	1	0	1	0
58	218	0	10000	1	1	0	1	0
61	219	0	10000	1	1	0	1	0
64	220	0	10000	1	1	0	1	0
66	221	0	10000	1	1	0	1	0
63	221	0	10000	1	1	0	1	0
61	222	0	10000	1	1	0	1	0
59	224	0	10000	1	1	0	1	0
57	225	0	10000	1	1	0	1	0
55	226	0	10000	1	1	0	1	0
54	227	0	10000	1	1	0	1	0
51	228	0	10000	1	1	0	1	0
50	229	0	10000	1	1	0	1	0
50	230	0	10000	1	1	0	1	0
49	231	0	10000	1	1	0	1	0
50	231	0	10000	1	1	0	1	0
49	232	0	10000	1	1	0	1	0
47	234	0	10000	1	1	0	1	0
46	235	0	10000	1	1	0	1	0
49	236	0	10000	1	1	0	1	0
52	237	0	10000	1	1	0	1	0
54	238	0	10000	1	1	0	1	0
56	239	0	10000	1	1	0	1	0
55	240	0	10000	1	1	0	1	0
54	241	0	10000	1	1	0	1	0
52	241	0	10000	1	1	0	1	0
52	242	0	10000	1	1	0	1	0
51	244	0	10000	1	1	0	1	0
49	245	0	10000	1	1	0	1	0
47	246	0	10000	1	1	0	1	0
46	247	0	10000	1	1	0	1	0
46	248	0	10000	1	1	0	1	0
46	249	0	10000	1	1	0	1	0
46	250	0	10000	1	1	0	1	0
47	251	0	10000	1	1	0	1	0
50	251	0	10000	1	1	0	1	0
51	252	0	10000	1	1	0	1	0
52	254	0	10000	1	1	0	1	0
52	255	0	10000	1	1	0	1	0
49	256	0	10000	1	1	0	1	0
48	257	0	10000	1	1	0	1	0
47	258	0	10000	1	1	0	1	0
48	259	0	10000	1	1	0	1	0
49	260	0	10000	1	1	0	1	0
49	261	0	10000	1	1	0	1	0
45	261	0	10000	1	1	0	1	0
44	262	0	10000	1	1	0	1	0
43	264	0	10000	1	1	0	1	0
42	265	0	10000	1	1	0	1	0
41	266	0	10000	1	1	0	1	0
40	267	0	10000	1	1	0	1	0
39	268	0	10000	1	1	0	1	0
38	269	0	10000	1	1	0	1	0
36	270	0	10000	1	1	0	1	0
35	271	0	10000	1	1	0	1	0
37	271	0	10000	1	1	0	1	0
37	272	0	10000	1	1	0	1	0
39	274	0	10000	1	1	0	1	0
41	275	0	10000	1	1	0	1	0
43	276	0	10000	1	1	0	1	0
44	277	0	10000	1	1	0	1	0
42	278	0	10000	1	1	0	1	0
40	279	0	10000	1	1	0	1	0
40	280	0	10000	1	1	0	1	0
39	281	0	10000	1	1	0	1	0
37	281	0	10000	1	1	0	1	0
36	282	0	10000	1	1	0	1	0
36	284	0	10000	1	1	0	1	0
36	285	0	10000	1	1	0	1	0
36	286	0	10000	1	1	0	1	0
36	287	0	10000	1	1	0	1	0
35	288	0	10000	1	1	0	1	0
34	289	0	10000	1	1	0	1	0
32	290	0	10000	1	1	0	1	0
31	291	0	10000	1	1	0	1	0
33	291	0	10000	1	1	0	1	0
32	292	0	10000	1	1	0	1	0
32	294	0	10000	1	1	0	1	0
30	295	0	10000	1	1	0	1	0
29	296	0	10000	1	1	0	1	0
30	297	0	10000	1	1	0	1	0
32	298	0	10000	1	1	0	1	0
34	299	0	10000	1	1	0	1	0
37	300	0	10000	1	1	0	1	0
39	301	0	10000	1	1	0	1	0
37	301	0	10000	1	1	0	1	0
35	302	0	10000	1	1	0	1	0
34	304	0	10000	1	1	0	1	0
33	305	0	10000	1	1	0	1	0
32	306	0	10000	1	1	0	1	0
32	307	0	10000	1	1	0	1	0
32	308	0	10000	1	1	0	1	0
30	309	0	10000	1	1	0	1	0
28	310	0	10000	1	1	0	1	0
28	311	0	10000	1	1	0	1	0
28	311	0	10000	1	1	0	1	0
30	312	0	10000	1	1	0	1	0
33	314	0	10000	1	1	0	1	0
39	315	0	10000	1	1	0	1	0
40	316	0	10000	1	1	0	1	0
42	317	0	10000	1	1	0	1	0
40	318	0	10000	1	1	0	1	0
40	319	0	10000	1	1	0	1	0
41	320	0	10000	1	1	0	1	0
41	321	0	10000	1	1	0	1	0
39	321	0	10000	1	1	0	1	0
39	322	0	10000	1	1	0	1	0
39	324	0	10000	1	1	0	1	0
39	325	0	10000	1	1	0	1	0
38	326	0	10000	1	1	0	1	0
36	327	0	10000	1	1	0	1	0
35	328	0	10000	1	1	0	1	0
34	329	0	10000	1	1	0	1	0
33	330	0	10000	1	1	0	1	0
31	331	0	10000	1	1	0	1	0
32	331	0	10000	1	1	0	1	0
32	332	0	10000	1	1	0	1	0
32	334	0	10000	1	1	0	1	0
33	335	0	10000	1	1	0	1	0
36	336	0	10000	1	1	0	1	0
37	337	0	10000	1	1	0	1	0
39	338	0	10000	1	1	0	1	0
42	339	0	10000	1	1	0	1	0
42	340	0	10000	1	1	0	1	0
42	341	0	10000	1	1	0	1	0
39	341	0	10000	1	1	0	1	0
37	342	0	10000	1	1	0	1	0
36	344	0	10000	1	1	0	1	0
35	345	0	10000	1	1	0	1	0
34	346	0	10000	1	1	0	1	0
33	347	0	10000	1	1	0	1	0
32	348	0	10000	1	1	0	1	0
31	349	0	10000	1	1	0	1	0
31	350	0	10000	1	1	0	1	0
29	351	0	10000	1	1	0	1	0
30	351	0	10000	1	1	0	1	0
31	352	0	10000	1	1	0	1	0
29	354	0	10000	1	1	0	1	0
29	355	0	10000	1	1	0	1	0
30	356	0	10000	1	1	0	1	0
31	357	0	10000	1	1	0	1	0
30	358	0	10000	1	1	0	1	0
31	359	0	10000	1	1	0	1	0
31	360	0	10000	1	1	0	1	0
32	361	0	10000	1	1	0	1	0
30	361	0	10000	1	1	0	1	0
29	362	0	10000	1	1	0	1	0
29	364	0	10000	1	1	0	1	0
29	365	0	10000	1	1	0	1	0
29	366	0	10000	1	1	0	1	0
29	367	0	10000	1	1	0	1	0
28	368	0	10000	1	1	0	1	0
27	369	0	10000	1	1	0	1	0
27	370	0	10000	1	1	0	1	0
27	371	0	10000	1	1	0	1	0
29	371	0	10000	1	1	0	1	0
28	372	0	10000	1	1	0	1	0
27	374	0	10000	1	1	0	1	0
27	375	0	10000	1	1	0	1	0
26	376	0	10000	1	1	0	1	0
25	377	0	10000	1	1	0	1	0
25	378	0	10000	1	1	0	1	0
24	379	0	10000	1	1	0	1	0
23	380	0	10000	1	1	0	1	0
25	381	0	10000	1	1	0	1	0
23	381	0	10000	1	1	0	1	0
24	382	0	10000	1	1	0	1	0
26	384	0	10000	1	1	0	1	0
28	385	0	10000	1	1	0	1	0
27	386	0	10000	1	1	0	1	0
27	387	0	10000	1	1	0	1	0
26	388	0	10000	1	1	0	1	0
24	389	0	10000	1	1	0	1	0
24	390	0	10000	1	1	0	1	0
23	391	0	10000	1	1	0	1	0
25	391	0	10000	1	1	0	1	0
25	392	0	10000	1	1	0	1	0
24	394	0	10000	1	1	0	1	0
24	395	0	10000	1	1	0	1	0
23	396	0	10000	1	1	0	1	0
25	397	0	10000	1	1	0	1	0
25	398	0	10000	1	1	0	1	0
25	399	0	10000	1	1	0	1	0
26	400	0	10000	1	1	0	1	0
27	401	0	10000	1	1	0	1	0
26	401	0	10000	1	1	0	1	0
25	402	0	10000	1	1	0	1	0
25	404	0	10000	1	1	0	1	0
25	405	0	10000	1	1	0	1	0
25	406	0	10000	1	1	0	1	0
27	407	0	10000	1	1	0	1	0
30	408	0	10000	1	1	0	1	0
31	409	0	10000	1	1	0	1	0
29	410	0	10000	1	1	0	1	0
29	411	0	10000	1	1	0	1	0
32	411	0	10000	1	1	0	1	0
32	412	0	10000	1	1	0	1	0
32	414	0	10000	1	1	0	1	0
32	415	0	10000	1	1	0	1	0
32	416	0	10000	1	1	0	1	0
31	417	0	10000	1	1	0	1	0
31	418	0	10000	1	1	0	1	0
32	419	0	10000	1	1	0	1	0
32	420	0	10000	1	1	0	1	0
31	421	0	10000	1	1	0	1	0
29	421	0	10000	1	1	0	1	0
28	422	0	10000	1	1	0	1	0
28	424	0	10000	1	1	0	1	0
28	425	0	10000	1	1	0	1	0
27	426	0	10000	1	1	0	1	0
27	427	0	10000	1	1	0	1	0
26	428	0	10000	1	1	0	1	0
25	429	0	10000	1	1	0	1	0
23	430	0	10000	1	1	0	1	0
23	431	0	10000	1	1	0	1	0
25	431	0	10000	1	1	0	1	0
26	432	0	10000	1	1	0	1	0
27	434	0	10000	1	1	0	1	0
26	435	0	10000	1	1	0	1	0
27	436	0	10000	1	1	0	1	0
28	437	0	10000	1	1	0	1	0
26	438	0	10000	1	1	0	1	0
25	439	0	10000	1	1	0	1	0
25	440	0	10000	1	1	0	1	0
25	441	0	10000	1	1	0	1	0
23	441	0	10000	1	1	0	1	0
22	442	0	10000	1	1	0	1	0
21	444	0	10000	1	1	0	1	0
21	445	0	10000	1	1	0	1	0
21	446	0	10000	1	1	0	1	0
21	447	0	10000	1	1	0	1	0
21	448	0	10000	1	1	0	1	0
20	449	0	10000	1	1	0	1	0
18	450	0	10000	1	1	0	1	0
19	451	0	10000	1	1	0	1	0
20	451	0	10000	1	1	0	1	0
19	452	0	10000	1	1	0	1	0
19	454	0	10000	1	1	0	1	0
21	455	0	10000	1	1	0	1	0
22	456	0	10000	1	1	0	1	0
23	457	0	10000	1	1	0	1	0
22	458	0	10000	1	1	0	1	0
23	459	0	10000	1	1	0	1	0
24	460	0	10000	1	1	0	1	0
24	461	0	10000	1	1	0	1	0
23	461	0	10000	1	1	0	1	0
23	462	0	10000	1	1	0	1	0
23	464	0	10000	1	1	0	1	0
23	465	0	10000	1	1	0	1	0
23	466	0	10000	1	1	0	1	0
24	467	0	10000	1	1	0	1	0
26	468	0	10000	1	1	0	1	0
25	469	0	10000	1	1	0	1	0
24	470	0	10000	1	1	0	1	0
23	471	0	10000	1	1	0	1	0
25	471	0	10000	1	1	0	1	0
25	472	0	10000	1	1	0	1	0
27	474	0	10000	1	1	0	1	0
28	475	0	10000	1	1	0	1	0
29	476	0	10000	1	1	0	1	0
27	477	0	10000	1	1	0	1	0
27	478	0	10000	1	1	0	1	0
30	479	0	10000	1	1	0	1	0
31	480	0	10000	1	1	0	1	0
33	481	0	10000	1	1	0	1	0
31	481	0	10000	1	1	0	1	0
31	482	0	10000	1	1	0	1	0
31	484	0	10000	1	1	0	1	0
32	485	0	10000	1	1	0	1	0
32	486	0	10000	1	1	0	1	0
32	487	0	10000	1	1	0	1	0
31	488	0	10000	1	1	0	1	0
29	489	0	10000	1	1	0	1	0
30	490	0	10000	1	1	0	1	0
28	491	0	10000	1	1	0	1	0
30	491	0	10000	1	1	0	1	0
31	492	0	10000	1	1	0	1	0
30	494	0	10000	1	1	0	1	0
28	495	0	10000	1	1	0	1	0
29	496	0	10000	1	1	0	1	0
30	497	0	10000	1	1	0	1	0
30	498	0	10000	1	1	0	1	0
31	499	0	10000	1	1	0	1	0
32	500	0	10000	1	1	0	1	0
32	501	0	10000	1	1	0	1	0
30	520	0	10000	1	1	0	1	1
29	521	0	10000	1	1	0	1	1
29	522	0	10000	1	1	0	1	1
28	523	0	10000	1	1	0	1	1
27	524	0	10000	1	1	0	1	1
27	525	0	10000	1	1	0	1	1
26	526	0	10000	1	1	0	1	1
25	527	0	10000	1	1	0	1	1
25	528	0	10000	1	1	0	1	1
23	529	0	10000	1	1	0	1	1
25	530	0	10000	1	1	0	1	1
27	531	0	10000	1	1	0	1	1
29	532	0	10000	1	1	0	1	1
28	533	0	10000	1	1	0	1	1
28	534	0	10000	1	1	0	1	1
27	535	0	10000	1	1	0	1	1
26	536	0	10000	1	1	0	1	1
25	537	0	10000	1	1	0	1	1
24	538	0	10000	1	1	0	1	1
25	539	0	10000	1	1	0	1	1
23	522	0	10000	1	1	0	1	1
23	523	0	10000	1	1	0	1	1
23	524	0	10000	1	1	0	1	1
23	525	0	10000	1	1	0	1	1
23	526	0	10000	1	1	0	1	1
23	527	0	10000	1	1	0	1	1
22	528	0	10000	1	1	0	1	1
22	529	0	10000	1	1	0	1	1
24	530	0	10000	1	1	0	1	1
24	531	0	10000	1	1	0	1	1
26	531	0	10000	1	1	0	1	1
25	532	0	10000	1	1	0	1	1
25	534	0	10000	1	1	0	1	1
25	535	0	10000	1	1	0	1	1
24	536	0	10000	1	1	0	1	1
23	537	0	10000	1	1	0	1	1
24	538	0	10000	1	1	0	1	1
27	539	0	10000	1	1	0	1	1
27	540	0	10000	1	1	0	1	1
27	541	0	10000	1	1	0	1	1
26	542	0	10000	1	1	0	1	1
26	543	0	10000	1	1	0	1	1
26	544	0	10000	1	1	0	1	1
25	545	0	10000	1	1	0	1	1
26	546	0	10000	1	1	0	1	1
26	547	0	10000	1	1	0	1	1
26	548	0	10000	1	1	0	1	1
26	549	0	10000	1	1	0	1	1
25	550	0	10000	1	1	0	1	1
24	551	0	10000	1	1	0	1	1
27	552	0	10000	1	1	0	1	0
26	553	0	10000	1	1	0	1	0
26	554	0	10000	1	1	0	1	0
26	555	0	10000	1	1	0	1	0
26	556	0	10000	1	1	0	1	0
25	557	0	10000	1	1	0	1	0
24	558	0	10000	1	1	0	1	0
24	559	0	10000	1	1	0	1	0
24	560	0	10000	1	1	0	1	0
23	561	0	10000	1	1	0	1	0
21	561	0	10000	1	1	0	1	0
23	562	0	10000	1	1	0	1	0
24	564	0	10000	1	1	0	1	0
26	565	0	10000	1	1	0	1	0
27	566	0	10000	1	1	0	1	0
28	567	0	10000	1	1	0	1	0
28	568	0	10000	1	1	0	1	0
28	569	0	10000	1	1	0	1	0
29	570	0	10000	1	1	0	1	0
30	571	0	10000	1	1	0	1	0
34	571	0	10000	1	1	0	1	0
34	572	0	10000	1	1	0	1	0
33	574	0	10000	1	1	0	1	0
32	575	0	10000	1	1	0	1	0
31	576	0	10000	1	1	0	1	0
31	577	0	10000	1	1	0	1	0
29	578	0	10000	1	1	0	1	0
29	579	0	10000	1	1	0	1	0
29	580	0	10000	1	1	0	1	0
28	581	0	10000	1	1	0	1	0
27	581	0	10000	1	1	0	1	0
27	582	0	10000	1	1	0	1	0
30	584	0	10000	1	1	0	1	0
33	585	0	10000	1	1	0	1	0
33	586	0	10000	1	1	0	1	0
32	587	0	10000	1	1	0	1	0
35	588	0	10000	1	1	0	1	0
35	589	0	10000	1	1	0	1	0
36	590	0	10000	1	1	0	1	0
36	591	0	10000	1	1	0	1	0
38	591	0	10000	1	1	0	1	0
37	592	0	10000	1	1	0	1	0
35	594	0	10000	1	1	0	1	0
34	595	0	10000	1	1	0	1	0
33	596	0	10000	1	1	0	1	0
33	597	0	10000	1	1	0	1	0
33	598	0	10000	1	1	0	1	0
32	599	0	10000	1	1	0	1	0
32	600	0	10000	1	1	0	1	0
32	601	0	10000	1	1	0	1	0
31	601	0	10000	1	1	0	1	0
30	602	0	10000	1	1	0	1	0
32	604	0	10000	1	1	0	1	0
32	605	0	10000	1	1	0	1	0
34	606	0	10000	1	1	0	1	0
36	607	0	10000	1	1	0	1	0
42	608	0	10000	1	1	0	1	0
50	609	0	10000	1	1	0	1	0
49	610	0	10000	1	1	0	1	0
50	611	0	10000	1	1	0	1	0
54	611	0	10000	1	1	0	1	0
54	612	0	10000	1	1	0	1	0
53	614	0	10000	1	1	0	1	0
55	615	0	10000	1	1	0	1	0
56	616	0	10000	1	1	0	1	0
60	617	0	10000	1	1	0	1	0
85	618	0	10000	1	1	0	1	0
101	619	0	10000	1	1	0	1	0
100	620	0	10000	1	1	0	1	0
103	621	0	10000	1	1	0	1	0
99	621	0	10000	1	1	0	1	0
106	622	0	10000	1	1	0	1	0
124	624	0	10000	1	1	0	1	0
154	625	0	10000	1	1	0	1	0
161	626	0	10000	1	1	0	1	0
181	627	0	10000	1	1	0	1	0
212	628	0	10000	1	1	0	1	0
227	629	0	10000	1	1	0	1	0
239	630	0	10000	1	1	0	1	0
250	631	0	10000	1	1	0	1	0
261	631	0	10000	1	1	0	1	0
266	632	0	10000	1	1	0	1	0
263	634	0	10000	1	1	0	1	0
252	635	0	10000	1	1	0	1	0
252	636	0	10000	1	1	0	1	0
263	637	0	10000	1	1	0	1	0
260	638	0	10000	1	1	0	1	0
254	639	0	10000	1	1	0	1	0
258	640	0	10000	1	1	0	1	0
259	641	0	10000	1	1	0	1	0
251	641	0	10000	1	1	0	1	0
251	642	0	10000	1	1	0	1	0
255	644	0	10000	1	1	0	1	0
255	645	0	10000	1	1	0	1	0
250	646	0	10000	1	1	0	1	0
261	647	0	10000	1	1	0	1	0
286	648	0	10000	1	1	0	1	0
309	649	0	10000	1	1	0	1	0
321	650	0	10000	1	1	0	1	0
318	651	0	10000	1	1	0	1	0
309	651	0	10000	1	1	0	1	0
297	652	0	10000	1	1	0	1	0
292	654	0	10000	1	1	0	1	0
289	655	0	10000	1	1	0	1	0
287	656	0	10000	1	1	0	1	0
286	657	0	10000	1	1	0	1	0
287	658	0	10000	1	1	0	1	0
289	659	0	10000	1	1	0	1	0
290	660	0	10000	1	1	0	1	0
291	661	0	10000	1	1	0	1	0
286	661	0	10000	1	1	0	1	0
281	662	0	10000	1	1	0	1	0
276	664	0	10000	1	1	0	1	0
274	665	0	10000	1	1	0	1	0
274	666	0	10000	1	1	0	1	0
274	667	0	10000	1	1	0	1	0
274	668	0	10000	1	1	0	1	0
272	669	0	10000	1	1	0	1	0
268	670	0	10000	1	1	0	1	0
265	671	0	10000	1	1	0	1	0
265	671	0	10000	1	1	0	1	0
257	672	0	10000	1	1	0	1	0
247	674	0	10000	1	1	0	1	0
239	675	0	10000	1	1	0	1	0
234	676	0	10000	1	1	0	1	0
229	677	0	10000	1	1	0	1	0
224	678	0	10000	1	1	0	1	0
219	679	0	10000	1	1	0	1	0
217	680	0	10000	1	1	0	1	0
219	681	0	10000	1	1	0	1	0
218	681	0	10000	1	1	0	1	0
218	682	0	10000	1	1	0	1	0
218	684	0	10000	1	1	0	1	0
217	685	0	10000	1	1	0	1	0
214	686	0	10000	1	1	0	1	0
211	687	0	10000	1	1	0	1	0
209	688	0	10000	1	1	0	1	0
207	689	0	10000	1	1	0	1	0
204	690	0	10000	1	1	0	1	0
201	691	0	10000	1	1	0	1	0
201	691	0	10000	1	1	0	1	0
200	692	0	10000	1	1	0	1	0
199	694	0	10000	1	1	0	1	0
199	695	0	10000	1	1	0	1	0
198	696	0	10000	1	1	0	1	0
198	697	0	10000	1	1	0	1	0
197	698	0	10000	1	1	0	1	0
196	699	0	10000	1	1	0	1	0
194	700	0	10000	1	1	0	1	0
191	701	0	10000	1	1	0	1	0
189	701	0	10000	1	1	0	1	0
188	702	0	10000	1	1	0	1	0
188	704	0	10000	1	1	0	1	0
187	705	0	10000	1	1	0	1	0
181	706	0	10000	1	1	0	1	0
173	707	0	10000	1	1	0	1	0
166	708	0	10000	1	1	0	1	0
159	709	0	10000	1	1	0	1	0
151	710	0	10000	1	1	0	1	0
144	711	0	10000	1	1	0	1	0
140	711	0	10000	1	1	0	1	0
133	712	0	10000	1	1	0	1	0
128	714	0	10000	1	1	0	1	0
122	715	0	10000	1	1	0	1	0
119	716	0	10000	1	1	0	1	0
118	717	0	10000	1	1	0	1	0
115	718	0	10000	1	1	0	1	0
112	719	0	10000	1	1	0	1	0
108	720	0	10000	1	1	0	1	0
104	721	0	10000	1	1	0	1	0
97	721	0	10000	1	1	0	1	0
93	722	0	10000	1	1	0	1	0
90	724	0	10000	1	1	0	1	0
87	725	0	10000	1	1	0	1	0
86	726	0	10000	1	1	0	1	0
85	727	0	10000	1	1	0	1	0
85	728	0	10000	1	1	0	1	0
83	729	0	10000	1	1	0	1	0
81	730	0	10000	1	1	0	1	0
80	731	0	10000	1	1	0	1	0
81	731	0	10000	1	1	0	1	0
79	732	0	10000	1	1	0	1	0
78	734	0	10000	1	1	0	1	0
76	735	0	10000	1	1	0	1	0
74	736	0	10000	1	1	0	1	0
72	737	0	10000	1	1	0	1	0
69	738	0	10000	1	1	0	1	0
67	739	0	10000	1	1	0	1	0
65	740	0	10000	1	1	0	1	0
65	741	0	10000	1	1	0	1	0
61	741	0	10000	1	1	0	1	0
58	742	0	10000	1	1	0	1	0
57	744	0	10000	1	1	0	1	0
58	745	0	10000	1	1	0	1	0
61	746	0	10000	1	1	0	1	0
65	747	0	10000	1	1	0	1	0
69	748	0	10000	1	1	0	1	0
70	749	0	10000	1	1	0	1	0
71	750	0	10000	1	1	0	1	0
75	751	0	10000	1	1	0	1	0
80	751	0	10000	1	1	0	1	0
80	752	0	10000	1	1	0	1	0
79	754	0	10000	1	1	0	1	0
77	755	0	10000	1	1	0	1	0
77	756	0	10000	1	1	0	1	0
78	757	0	10000	1	1	0	1	0
77	758	0	10000	1	1	0	1	0
76	759	0	10000	1	1	0	1	0
73	760	0	10000	1	1	0	1	0
71	761	0	10000	1	1	0	1	0
68	761	0	10000	1	1	0	1	0
68	762	0	10000	1	1	0	1	0
67	764	0	10000	1	1	0	1	0
66	765	0	10000	1	1	0	1	0
65	766	0	10000	1	1	0	1	0
66	767	0	10000	1	1	0	1	0
68	768	0	10000	1	1	0	1	0
68	769	0	10000	1	1	0	1	0
68	770	0	10000	1	1	0	1	0
68	771	0	10000	1	1	0	1	0
67	771	0	10000	1	1	0	1	0
65	772	0	10000	1	1	0	1	0
62	774	0	10000	1	1	0	1	0
60	775	0	10000	1	1	0	1	0
58	776	0	10000	1	1	0	1	0
56	777	0	10000	1	1	0	1	0
54	778	0	10000	1	1	0	1	0
53	779	0	10000	1	1	0	1	0
51	780	0	10000	1	1	0	1	0
50	781	0	10000	1	1	0	1	0
50	781	0	10000	1	1	0	1	0
56	782	0	10000	1	1	0	1	0
65	784	0	10000	1	1	0	1	0
73	785	0	10000	1	1	0	1	0
81	786	0	10000	1	1	0	1	0
91	787	0	10000	1	1	0	1	0
98	788	0	10000	1	1	0	1	0
102	789	0	10000	1	1	0	1	0
100	790	0	10000	1	1	0	1	0
96	791	0	10000	1	1	0	1	0
100	791	0	10000	1	1	0	1	0
103	792	0	10000	1	1	0	1	0
106	794	0	10000	1	1	0	1	0
110	795	0	10000	1	1	0	1	0
112	796	0	10000	1	1	0	1	0
109	797	0	10000	1	1	0	1	0
106	798	0	10000	1	1	0	1	0
104	799	0	10000	1	1	0	1	0
103	800	0	10000	1	1	0	1	0
105	801	0	10000	1	1	0	1	0
106	801	0	10000	1	1	0	1	0
109	802	0	10000	1	1	0	1	0
113	804	0	10000	1	1	0	1	0
114	805	0	10000	1	1	0	1	0
115	806	0	10000	1	1	0	1	0
114	807	0	10000	1	1	0	1	0
110	808	0	10000	1	1	0	1	0
104	809	0	10000	1	1	0	1	0
101	810	0	10000	1	1	0	1	0
100	811	0	10000	1	1	0	1	0
103	811	0	10000	1	1	0	1	0
101	812	0	10000	1	1	0	1	0
102	814	0	10000	1	1	0	1	0
103	815	0	10000	1	1	0	1	0
106	816	0	10000	1	1	0	1	0
110	817	0	10000	1	1	0	1	0
109	818	0	10000	1	1	0	1	0
104	819	0	10000	1	1	0	1	0
101	820	0	10000	1	1	0	1	0
100	821	0	10000	1	1	0	1	0
97	821	0	10000	1	1	0	1	0
97	822	0	10000	1	1	0	1	0
98	824	0	10000	1	1	0	1	0
99	825	0	10000	1	1	0	1	0
103	826	0	10000	1	1	0	1	0
102	827	0	10000	1	1	0	1	0
100	828	0	10000	1	1	0	1	0
97	829	0	10000	1	1	0	1	0
95	830	0	10000	1	1	0	1	0
96	831	0	10000	1	1	0	1	0
100	831	0	10000	1	1	0	1	0
102	832	0	10000	1	1	0	1	0
100	834	0	10000	1	1	0	1	0
97	835	0	10000	1	1	0	1	0
94	836	0	10000	1	1	0	1	0
90	837	0	10000	1	1	0	1	0
86	838	0	10000	1	1	0	1	0
85	839	0	10000	1	1	0	1	0
87	840	0	10000	1	1	0	1	0
89	841	0	10000	1	1	0	1	0
90	841	0	10000	1	1	0	1	0
93	842	0	10000	1	1	0	1	0
94	844	0	10000	1	1	0	1	0
94	845	0	10000	1	1	0	1	0
95	846	0	10000	1	1	0	1	0
96	847	0	10000	1	1	0	1	0
99	848	0	10000	1	1	0	1	0
102	849	0	10000	1	1	0	1	0
103	850	0	10000	1	1	0	1	0
101	851	0	10000	1	1	0	1	0
102	851	0	10000	1	1	0	1	0
98	852	0	10000	1	1	0	1	0
93	854	0	10000	1	1	0	1	0
91	855	0	10000	1	1	0	1	0
91	856	0	10000	1	1	0	1	0
92	857	0	10000	1	1	0	1	0
94	858	0	10000	1	1	0	1	0
100	859	0	10000	1	1	0	1	0
108	860	0	10000	1	1	0	1	0
113	861	0	10000	1	1	0	1	0
112	861	0	10000	1	1	0	1	0
114	862	0	10000	1	1	0	1	0
117	864	0	10000	1	1	0	1	0
120	865	0	10000	1	1	0	1	0
125	866	0	10000	1	1	0	1	0
134	867	0	10000	1	1	0	1	0
143	868	0	10000	1	1	0	1	0
146	869	0	10000	1	1	0	1	0
148	870	0	10000	1	1	0	1	0
145	871	0	10000	1	1	0	1	0
143	871	0	10000	1	1	0	1	0
141	872	0	10000	1	1	0	1	0
140	874	0	10000	1	1	0	1	0
138	875	0	10000	1	1	0	1	0
134	876	0	10000	1	1	0	1	0
131	877	0	10000	1	1	0	1	0
129	878	0	10000	1	1	0	1	0
130	879	0	10000	1	1	0	1	0
132	880	0	10000	1	1	0	1	0
132	881	0	10000	1	1	0	1	0
128	881	0	10000	1	1	0	1	0
123	882	0	10000	1	1	0	1	0
121	884	0	10000	1	1	0	1	0
121	885	0	10000	1	1	0	1	0
121	886	0	10000	1	1	0	1	0
120	887	0	10000	1	1	0	1	0
117	888	0	10000	1	1	0	1	0
115	889	0	10000	1	1	0	1	0
112	890	0	10000	1	1	0	1	0
108	891	0	10000	1	1	0	1	0
106	891	0	10000	1	1	0	1	0
102	892	0	10000	1	1	0	1	0
99	894	0	10000	1	1	0	1	0
98	895	0	10000	1	1	0	1	0
94	896	0	10000	1	1	0	1	0
91	897	0	10000	1	1	0	1	0
88	898	0	10000	1	1	0	1	0
88	899	0	10000	1	1	0	1	0
90	900	0	10000	1	1	0	1	0
90	901	0	10000	1	1	0	1	0
85	901	0	10000	1	1	0	1	0
84	902	0	10000	1	1	0	1	0
82	904	0	10000	1	1	0	1	0
79	905	0	10000	1	1	0	1	0
76	906	0	10000	1	1	0	1	0
74	907	0	10000	1	1	0	1	0
71	908	0	10000	1	1	0	1	0
69	909	0	10000	1	1	0	1	0
69	910	0	10000	1	1	0	1	0
67	911	0	10000	1	1	0	1	0
71	911	0	10000	1	1	0	1	0
70	912	0	10000	1	1	0	1	0
70	914	0	10000	1	1	0	1	0
73	915	0	10000	1	1	0	1	0
73	916	0	10000	1	1	0	1	0
71	917	0	10000	1	1	0	1	0
79	918	0	10000	1	1	0	1	0
88	919	0	10000	1	1	0	1	0
87	920	0	10000	1	1	0	1	0
89	921	0	10000	1	1	0	1	0
92	921	0	10000	1	1	0	1	0
98	922	0	10000	1	1	0	1	0
100	924	0	10000	1	1	0	1	0
96	925	0	10000	1	1	0	1	0
95	926	0	10000	1	1	0	1	0
97	927	0	10000	1	1	0	1	0
103	928	0	10000	1	1	0	1	0
108	929	0	10000	1	1	0	1	0
113	930	0	10000	1	1	0	1	0
114	931	0	10000	1	1	0	1	0
114	931	0	10000	1	1	0	1	0
111	932	0	10000	1	1	0	1	0
112	934	0	10000	1	1	0	1	0
111	935	0	10000	1	1	0	1	0
112	936	0	10000	1	1	0	1	0
111	937	0	10000	1	1	0	1	0
111	938	0	10000	1	1	0	1	0
110	939	0	10000	1	1	0	1	0
108	940	0	10000	1	1	0	1	0
106	941	0	10000	1	1	0	1	0
100	941	0	10000	1	1	0	1	0
97	942	0	10000	1	1	0	1	0
94	944	0	10000	1	1	0	1	0
92	945	0	10000	1	1	0	1	0
88	946	0	10000	1	1	0	1	0
85	947	0	10000	1	1	0	1	0
83	948	0	10000	1	1	0	1	0
80	949	0	10000	1	1	0	1	0
78	950	0	10000	1	1	0	1	0
75	951	0	10000	1	1	0	1	0
78	951	0	10000	1	1	0	1	0
80	952	0	10000	1	1	0	1	0
79	954	0	10000	1	1	0	1	0
76	955	0	10000	1	1	0	1	0
74	956	0	10000	1	1	0	1	0
71	957	0	10000	1	1	0	1	0
69	958	0	10000	1	1	0	1	0
66	959	0	10000	1	1	0	1	0
63	960	0	10000	1	1	0	1	0
63	961	0	10000	1	1	0	1	0
59	961	0	10000	1	1	0	1	0
59	962	0	10000	1	1	0	1	0
57	964	0	10000	1	1	0	1	0
56	965	0	10000	1	1	0	1	0
54	966	0	10000	1	1	0	1	0
53	967	0	10000	1	1	0	1	0
54	968	0	10000	1	1	0	1	0
52	969	0	10000	1	1	0	1	0
49	970	0	10000	1	1	0	1	0
49	971	0	10000	1	1	0	1	0
52	971	0	10000	1	1	0	1	0
50	972	0	10000	1	1	0	1	0
49	974	0	10000	1	1	0	1	0
47	975	0	10000	1	1	0	1	0
47	976	0	10000	1	1	0	1	0
46	977	0	10000	1	1	0	1	0
44	978	0	10000	1	1	0	1	0
44	979	0	10000	1	1	0	1	0
43	980	0	10000	1	1	0	1	0
42	981	0	10000	1	1	0	1	0
41	981	0	10000	1	1	0	1	0
41	982	0	10000	1	1	0	1	0
41	984	0	10000	1	1	0	1	0
40	985	0	10000	1	1	0	1	0
40	986	0	10000	1	1	0	1	0
39	987	0	10000	1	1	0	1	0
39	988	0	10000	1	1	0	1	0
37	989	0	10000	1	1	0	1	0
36	990	0	10000	1	1	0	1	0
35	991	0	10000	1	1	0	1	0
38	991	0	10000	1	1	0	1	0
43	992	0	10000	1	1	0	1	0
48	994	0	10000	1	1	0	1	0
50	995	0	10000	1	1	0	1	0
51	996	0	10000	1	1	0	1	0
51	997	0	10000	1	1	0	1	0
49	998	0	10000	1	1	0	1	0
47	999	0	10000	1	1	0	1	0
46	1000	0	10000	1	1	0	1	0
45	1001	0	10000	1	1	0	1	0
32	1	0	10000	2	1	0	2	0
31	2	0	10000	2	1	0	2	0
31	3	0	10000	2	1	0	2	0
29	4	0	10000	2	1	0	2	0
27	5	0	10000	2	1	0	2	0
30	6	0	10000	2	1	0	2	0
29	7	0	10000	2	1	0	2	0
27	8	0	10000	2	1	0	2	0
26	9	0	10000	2	1	0	2	0
26	10	0	10000	2	1	0	2	0
24	11	0	10000	2	1	0	2	0
24	12	0	10000	2	1	0	2	0
23	13	0	10000	2	1	0	2	0
23	14	0	10000	2	1	0	2	0
23	15	0	10000	2	1	0	2	0
23	16	0	10000	2	1	0	2	0
23	17	0	10000	2	1	0	2	0
24	18	0	10000	2	1	0	2	0
24	19	0	10000	2	1	0	2	0
24	20	0	10000	2	1	0	2	0
22	21	0	10000	2	1	0	2	0
23	22	0	10000	2	1	0	2	0
24	23	0	10000	2	1	0	2	0
24	24	0	10000	2	1	0	2	0
23	25	0	10000	2	1	0	2	0
26	26	0	10000	2	1	0	2	0
24	27	0	10000	2	1	0	2	0
24	28	0	10000	2	1	0	2	0
22	29	0	10000	2	1	0	2	0
22	30	0	10000	2	1	0	2	0
23	31	0	10000	2	1	0	2	0
24	32	0	10000	2	1	0	2	0
25	33	0	10000	2	1	0	2	0
27	34	0	10000	2	1	0	2	0
28	35	0	10000	2	1	0	2	0
27	36	0	10000	2	1	0	2	0
29	37	0	10000	2	1	0	2	0
30	38	0	10000	2	1	0	2	0
29	39	0	10000	2	1	0	2	0
29	40	0	10000	2	1	0	2	0
29	41	0	10000	2	1	0	2	0
29	42	0	10000	2	1	0	2	0
28	43	0	10000	2	1	0	2	0
26	44	0	10000	2	1	0	2	0
26	45	0	10000	2	1	0	2	0
27	46	0	10000	2	1	0	2	0
27	47	0	10000	2	1	0	2	0
26	48	0	10000	2	1	0	2	0
26	49	0	10000	2	1	0	2	0
27	50	0	10000	2	1	0	2	0
26	51	0	10000	2	1	0	2	0
25	52	0	10000	2	1	0	2	0
25	53	0	10000	2	1	0	2	0
28	54	0	10000	2	1	0	2	0
32	55	0	10000	2	1	0	2	0
32	56	0	10000	2	1	0	2	0
32	57	0	10000	2	1	0	2	0
35	58	0	10000	2	1	0	2	0
38	59	0	10000	2	1	0	2	0
39	60	0	10000	2	1	0	2	0
40	61	0	10000	2	1	0	2	0
41	62	0	10000	2	1	0	2	0
40	63	0	10000	2	1	0	2	0
38	64	0	10000	2	1	0	2	0
37	65	0	10000	2	1	0	2	0
38	66	0	10000	2	1	0	2	0
37	67	0	10000	2	1	0	2	0
35	68	0	10000	2	1	0	2	0
35	69	0	10000	2	1	0	2	0
33	70	0	10000	2	1	0	2	0
32	71	0	10000	2	1	0	2	0
31	72	0	10000	2	1	0	2	0
32	73	0	10000	2	1	0	2	0
31	74	0	10000	2	1	0	2	0
30	75	0	10000	2	1	0	2	0
29	76	0	10000	2	1	0	2	0
30	77	0	10000	2	1	0	2	0
32	78	0	10000	2	1	0	2	0
32	79	0	10000	2	1	0	2	0
31	80	0	10000	2	1	0	2	0
30	81	0	10000	2	1	0	2	0
30	82	0	10000	2	1	0	2	0
30	83	0	10000	2	1	0	2	0
30	84	0	10000	2	1	0	2	0
30	85	0	10000	2	1	0	2	0
31	86	0	10000	2	1	0	2	0
31	87	0	10000	2	1	0	2	0
30	88	0	10000	2	1	0	2	0
29	89	0	10000	2	1	0	2	0
31	90	0	10000	2	1	0	2	0
32	91	0	10000	2	1	0	2	0
34	92	0	10000	2	1	0	2	0
37	93	0	10000	2	1	0	2	0
37	94	0	10000	2	1	0	2	0
37	95	0	10000	2	1	0	2	0
33	96	0	10000	2	1	0	2	0
32	97	0	10000	2	1	0	2	0
32	98	0	10000	2	1	0	2	0
31	99	0	10000	2	1	0	2	0
32	100	0	10000	2	1	0	2	0
32	101	0	10000	2	1	0	2	0
31	102	0	10000	2	1	0	2	0
30	103	0	10000	2	1	0	2	0
29	104	0	10000	2	1	0	2	0
27	105	0	10000	2	1	0	2	0
29	106	0	10000	2	1	0	2	0
29	107	0	10000	2	1	0	2	0
27	108	0	10000	2	1	0	2	0
26	109	0	10000	2	1	0	2	0
25	110	0	10000	2	1	0	2	0
24	111	0	10000	2	1	0	2	0
24	112	0	10000	2	1	0	2	0
25	113	0	10000	2	1	0	2	0
25	114	0	10000	2	1	0	2	0
25	115	0	10000	2	1	0	2	0
22	116	0	10000	2	1	0	2	0
22	117	0	10000	2	1	0	2	0
23	118	0	10000	2	1	0	2	0
21	119	0	10000	2	1	0	2	0
23	120	0	10000	2	1	0	2	0
26	121	0	10000	2	1	0	2	0
26	122	0	10000	2	1	0	2	0
25	123	0	10000	2	1	0	2	0
25	124	0	10000	2	1	0	2	0
25	125	0	10000	2	1	0	2	0
27	126	0	10000	2	1	0	2	0
27	127	0	10000	2	1	0	2	0
28	128	0	10000	2	1	0	2	0
28	129	0	10000	2	1	0	2	0
28	130	0	10000	2	1	0	2	0
27	131	0	10000	2	1	0	2	0
28	132	0	10000	2	1	0	2	0
27	133	0	10000	2	1	0	2	0
26	134	0	10000	2	1	0	2	0
26	135	0	10000	2	1	0	2	0
23	136	0	10000	2	1	0	2	0
23	137	0	10000	2	1	0	2	0
23	138	0	10000	2	1	0	2	0
23	139	0	10000	2	1	0	2	0
23	140	0	10000	2	1	0	2	0
25	141	0	10000	2	1	0	2	0
26	142	0	10000	2	1	0	2	0
26	143	0	10000	2	1	0	2	0
28	144	0	10000	2	1	0	2	0
30	145	0	10000	2	1	0	2	0
34	146	0	10000	2	1	0	2	0
33	147	0	10000	2	1	0	2	0
33	148	0	10000	2	1	0	2	0
32	149	0	10000	2	1	0	2	0
31	150	0	10000	2	1	0	2	0
31	151	0	10000	2	1	0	2	0
31	152	0	10000	2	1	0	2	0
31	153	0	10000	2	1	0	2	0
30	154	0	10000	2	1	0	2	0
32	155	0	10000	2	1	0	2	0
31	156	0	10000	2	1	0	2	0
33	157	0	10000	2	1	0	2	0
32	158	0	10000	2	1	0	2	0
32	159	0	10000	2	1	0	2	0
30	160	0	10000	2	1	0	2	0
29	161	0	10000	2	1	0	2	0
30	162	0	10000	2	1	0	2	0
28	163	0	10000	2	1	0	2	0
27	164	0	10000	2	1	0	2	0
26	165	0	10000	2	1	0	2	0
30	166	0	10000	2	1	0	2	0
31	167	0	10000	2	1	0	2	0
30	168	0	10000	2	1	0	2	0
30	169	0	10000	2	1	0	2	0
31	170	0	10000	2	1	0	2	0
30	171	0	10000	2	1	0	2	0
29	172	0	10000	2	1	0	2	0
30	173	0	10000	2	1	0	2	0
32	174	0	10000	2	1	0	2	0
32	175	0	10000	2	1	0	2	0
30	176	0	10000	2	1	0	2	0
31	177	0	10000	2	1	0	2	0
31	178	0	10000	2	1	0	2	0
30	179	0	10000	2	1	0	2	0
30	180	0	10000	2	1	0	2	0
28	181	0	10000	2	1	0	2	0
29	182	0	10000	2	1	0	2	0
29	183	0	10000	2	1	0	2	0
27	184	0	10000	2	1	0	2	0
27	185	0	10000	2	1	0	2	0
29	186	0	10000	2	1	0	2	0
28	187	0	10000	2	1	0	2	0
27	188	0	10000	2	1	0	2	0
26	189	0	10000	2	1	0	2	0
26	190	0	10000	2	1	0	2	0
26	191	0	10000	2	1	0	2	0
24	192	0	10000	2	1	0	2	0
25	193	0	10000	2	1	0	2	0
26	194	0	10000	2	1	0	2	0
27	195	0	10000	2	1	0	2	0
26	196	0	10000	2	1	0	2	0
26	197	0	10000	2	1	0	2	0
27	198	0	10000	2	1	0	2	0
30	199	0	10000	2	1	0	2	0
30	200	0	10000	2	1	0	2	0
30	201	0	10000	2	1	0	2	0
30	202	0	10000	2	1	0	2	0
28	203	0	10000	2	1	0	2	0
27	204	0	10000	2	1	0	2	0
25	205	0	10000	2	1	0	2	0
27	206	0	10000	2	1	0	2	0
26	207	0	10000	2	1	0	2	0
26	208	0	10000	2	1	0	2	0
28	209	0	10000	2	1	0	2	0
29	210	0	10000	2	1	0	2	0
28	211	0	10000	2	1	0	2	0
27	212	0	10000	2	1	0	2	0
27	213	0	10000	2	1	0	2	0
26	214	0	10000	2	1	0	2	0
26	215	0	10000	2	1	0	2	0
23	216	0	10000	2	1	0	2	0
22	217	0	10000	2	1	0	2	0
22	218	0	10000	2	1	0	2	0
23	219	0	10000	2	1	0	2	0
24	220	0	10000	2	1	0	2	0
25	221	0	10000	2	1	0	2	0
24	222	0	10000	2	1	0	2	0
24	223	0	10000	2	1	0	2	0
24	224	0	10000	2	1	0	2	0
23	225	0	10000	2	1	0	2	0
25	226	0	10000	2	1	0	2	0
26	227	0	10000	2	1	0	2	0
25	228	0	10000	2	1	0	2	0
25	229	0	10000	2	1	0	2	0
25	230	0	10000	2	1	0	2	0
24	231	0	10000	2	1	0	2	0
24	232	0	10000	2	1	0	2	0
24	233	0	10000	2	1	0	2	0
25	234	0	10000	2	1	0	2	0
25	235	0	10000	2	1	0	2	0
24	236	0	10000	2	1	0	2	0
23	237	0	10000	2	1	0	2	0
24	238	0	10000	2	1	0	2	0
25	239	0	10000	2	1	0	2	0
24	240	0	10000	2	1	0	2	0
24	241	0	10000	2	1	0	2	0
23	242	0	10000	2	1	0	2	0
22	243	0	10000	2	1	0	2	0
23	244	0	10000	2	1	0	2	0
22	245	0	10000	2	1	0	2	0
24	246	0	10000	2	1	0	2	0
23	247	0	10000	2	1	0	2	0
23	248	0	10000	2	1	0	2	0
23	249	0	10000	2	1	0	2	0
23	250	0	10000	2	1	0	2	0
23	251	0	10000	2	1	0	2	0
23	252	0	10000	2	1	0	2	0
25	253	0	10000	2	1	0	2	0
26	254	0	10000	2	1	0	2	0
29	255	0	10000	2	1	0	2	0
26	256	0	10000	2	1	0	2	0
28	257	0	10000	2	1	0	2	0
29	258	0	10000	2	1	0	2	0
27	259	0	10000	2	1	0	2	0
27	260	0	10000	2	1	0	2	0
27	261	0	10000	2	1	0	2	0
26	262	0	10000	2	1	0	2	0
25	263	0	10000	2	1	0	2	0
25	264	0	10000	2	1	0	2	0
24	265	0	10000	2	1	0	2	0
26	266	0	10000	2	1	0	2	0
26	267	0	10000	2	1	0	2	0
25	268	0	10000	2	1	0	2	0
24	269	0	10000	2	1	0	2	0
24	270	0	10000	2	1	0	2	0
24	271	0	10000	2	1	0	2	0
26	272	0	10000	2	1	0	2	0
26	273	0	10000	2	1	0	2	0
25	274	0	10000	2	1	0	2	0
25	275	0	10000	2	1	0	2	0
23	276	0	10000	2	1	0	2	0
26	277	0	10000	2	1	0	2	0
31	278	0	10000	2	1	0	2	0
33	279	0	10000	2	1	0	2	0
33	280	0	10000	2	1	0	2	0
35	281	0	10000	2	1	0	2	0
36	282	0	10000	2	1	0	2	0
36	283	0	10000	2	1	0	2	0
35	284	0	10000	2	1	0	2	0
33	285	0	10000	2	1	0	2	0
36	286	0	10000	2	1	0	2	0
36	287	0	10000	2	1	0	2	0
37	288	0	10000	2	1	0	2	0
36	289	0	10000	2	1	0	2	0
34	290	0	10000	2	1	0	2	0
33	291	0	10000	2	1	0	2	0
32	292	0	10000	2	1	0	2	0
32	293	0	10000	2	1	0	2	0
30	294	0	10000	2	1	0	2	0
30	295	0	10000	2	1	0	2	0
27	296	0	10000	2	1	0	2	0
26	297	0	10000	2	1	0	2	0
27	298	0	10000	2	1	0	2	0
26	299	0	10000	2	1	0	2	0
27	300	0	10000	2	1	0	2	0
25	301	0	10000	2	1	0	2	0
26	302	0	10000	2	1	0	2	0
26	303	0	10000	2	1	0	2	0
26	304	0	10000	2	1	0	2	0
27	305	0	10000	2	1	0	2	0
28	306	0	10000	2	1	0	2	0
29	307	0	10000	2	1	0	2	0
29	308	0	10000	2	1	0	2	0
28	309	0	10000	2	1	0	2	0
28	310	0	10000	2	1	0	2	0
30	311	0	10000	2	1	0	2	0
29	312	0	10000	2	1	0	2	0
29	313	0	10000	2	1	0	2	0
31	314	0	10000	2	1	0	2	0
30	315	0	10000	2	1	0	2	0
26	316	0	10000	2	1	0	2	0
27	317	0	10000	2	1	0	2	0
26	318	0	10000	2	1	0	2	0
25	319	0	10000	2	1	0	2	0
25	320	0	10000	2	1	0	2	0
26	321	0	10000	2	1	0	2	0
26	322	0	10000	2	1	0	2	0
25	323	0	10000	2	1	0	2	0
24	324	0	10000	2	1	0	2	0
24	325	0	10000	2	1	0	2	0
25	326	0	10000	2	1	0	2	0
25	327	0	10000	2	1	0	2	0
27	328	0	10000	2	1	0	2	0
27	329	0	10000	2	1	0	2	0
26	330	0	10000	2	1	0	2	0
26	331	0	10000	2	1	0	2	0
24	332	0	10000	2	1	0	2	0
24	333	0	10000	2	1	0	2	0
24	334	0	10000	2	1	0	2	0
23	335	0	10000	2	1	0	2	0
20	336	0	10000	2	1	0	2	0
21	337	0	10000	2	1	0	2	0
21	338	0	10000	2	1	0	2	0
21	339	0	10000	2	1	0	2	0
21	340	0	10000	2	1	0	2	0
21	341	0	10000	2	1	0	2	0
22	342	0	10000	2	1	0	2	0
22	343	0	10000	2	1	0	2	0
22	344	0	10000	2	1	0	2	0
22	345	0	10000	2	1	0	2	0
24	346	0	10000	2	1	0	2	0
23	347	0	10000	2	1	0	2	0
23	348	0	10000	2	1	0	2	0
22	349	0	10000	2	1	0	2	0
21	350	0	10000	2	1	0	2	0
22	351	0	10000	2	1	0	2	0
24	352	0	10000	2	1	0	2	0
24	353	0	10000	2	1	0	2	0
25	354	0	10000	2	1	0	2	0
27	355	0	10000	2	1	0	2	0
28	356	0	10000	2	1	0	2	0
29	357	0	10000	2	1	0	2	0
29	358	0	10000	2	1	0	2	0
28	359	0	10000	2	1	0	2	0
28	360	0	10000	2	1	0	2	0
27	361	0	10000	2	1	0	2	0
27	362	0	10000	2	1	0	2	0
25	363	0	10000	2	1	0	2	0
24	364	0	10000	2	1	0	2	0
23	365	0	10000	2	1	0	2	0
24	366	0	10000	2	1	0	2	0
23	367	0	10000	2	1	0	2	0
22	368	0	10000	2	1	0	2	0
21	369	0	10000	2	1	0	2	0
22	370	0	10000	2	1	0	2	0
21	371	0	10000	2	1	0	2	0
22	372	0	10000	2	1	0	2	0
24	373	0	10000	2	1	0	2	0
25	374	0	10000	2	1	0	2	0
26	375	0	10000	2	1	0	2	0
25	376	0	10000	2	1	0	2	0
26	377	0	10000	2	1	0	2	0
27	378	0	10000	2	1	0	2	0
27	379	0	10000	2	1	0	2	0
28	380	0	10000	2	1	0	2	0
30	381	0	10000	2	1	0	2	0
30	382	0	10000	2	1	0	2	0
28	383	0	10000	2	1	0	2	0
28	384	0	10000	2	1	0	2	0
26	385	0	10000	2	1	0	2	0
26	386	0	10000	2	1	0	2	0
25	387	0	10000	2	1	0	2	0
24	388	0	10000	2	1	0	2	0
23	389	0	10000	2	1	0	2	0
23	390	0	10000	2	1	0	2	0
22	391	0	10000	2	1	0	2	0
22	392	0	10000	2	1	0	2	0
22	393	0	10000	2	1	0	2	0
21	394	0	10000	2	1	0	2	0
21	395	0	10000	2	1	0	2	0
19	396	0	10000	2	1	0	2	0
18	397	0	10000	2	1	0	2	0
19	398	0	10000	2	1	0	2	0
20	399	0	10000	2	1	0	2	0
23	400	0	10000	2	1	0	2	0
26	401	0	10000	2	1	0	2	0
27	402	0	10000	2	1	0	2	0
25	403	0	10000	2	1	0	2	0
25	404	0	10000	2	1	0	2	0
27	405	0	10000	2	1	0	2	0
31	406	0	10000	2	1	0	2	0
31	407	0	10000	2	1	0	2	0
32	408	0	10000	2	1	0	2	0
31	409	0	10000	2	1	0	2	0
31	410	0	10000	2	1	0	2	0
30	411	0	10000	2	1	0	2	0
30	412	0	10000	2	1	0	2	0
29	413	0	10000	2	1	0	2	0
29	414	0	10000	2	1	0	2	0
30	415	0	10000	2	1	0	2	0
30	416	0	10000	2	1	0	2	0
31	417	0	10000	2	1	0	2	0
33	418	0	10000	2	1	0	2	0
32	419	0	10000	2	1	0	2	0
31	420	0	10000	2	1	0	2	0
30	421	0	10000	2	1	0	2	0
30	422	0	10000	2	1	0	2	0
30	423	0	10000	2	1	0	2	0
29	424	0	10000	2	1	0	2	0
28	425	0	10000	2	1	0	2	0
30	426	0	10000	2	1	0	2	0
28	427	0	10000	2	1	0	2	0
30	428	0	10000	2	1	0	2	0
32	429	0	10000	2	1	0	2	0
32	430	0	10000	2	1	0	2	0
31	431	0	10000	2	1	0	2	0
30	432	0	10000	2	1	0	2	0
31	433	0	10000	2	1	0	2	0
31	434	0	10000	2	1	0	2	0
31	435	0	10000	2	1	0	2	0
27	436	0	10000	2	1	0	2	0
27	437	0	10000	2	1	0	2	0
28	438	0	10000	2	1	0	2	0
27	439	0	10000	2	1	0	2	0
27	440	0	10000	2	1	0	2	0
28	441	0	10000	2	1	0	2	0
33	442	0	10000	2	1	0	2	0
35	443	0	10000	2	1	0	2	0
36	444	0	10000	2	1	0	2	0
35	445	0	10000	2	1	0	2	0
37	446	0	10000	2	1	0	2	0
36	447	0	10000	2	1	0	2	0
37	448	0	10000	2	1	0	2	0
35	449	0	10000	2	1	0	2	0
33	450	0	10000	2	1	0	2	0
32	451	0	10000	2	1	0	2	0
31	452	0	10000	2	1	0	2	0
30	453	0	10000	2	1	0	2	0
30	454	0	10000	2	1	0	2	0
29	455	0	10000	2	1	0	2	0
26	456	0	10000	2	1	0	2	0
28	457	0	10000	2	1	0	2	0
28	458	0	10000	2	1	0	2	0
28	459	0	10000	2	1	0	2	0
29	460	0	10000	2	1	0	2	0
29	461	0	10000	2	1	0	2	0
29	462	0	10000	2	1	0	2	0
27	463	0	10000	2	1	0	2	0
27	464	0	10000	2	1	0	2	0
26	465	0	10000	2	1	0	2	0
28	466	0	10000	2	1	0	2	0
28	467	0	10000	2	1	0	2	0
28	468	0	10000	2	1	0	2	0
26	469	0	10000	2	1	0	2	0
26	470	0	10000	2	1	0	2	0
27	471	0	10000	2	1	0	2	0
25	472	0	10000	2	1	0	2	0
26	473	0	10000	2	1	0	2	0
27	474	0	10000	2	1	0	2	0
28	475	0	10000	2	1	0	2	0
26	476	0	10000	2	1	0	2	0
25	477	0	10000	2	1	0	2	0
25	478	0	10000	2	1	0	2	0
27	479	0	10000	2	1	0	2	0
29	480	0	10000	2	1	0	2	0
30	481	0	10000	2	1	0	2	0
32	482	0	10000	2	1	0	2	0
31	483	0	10000	2	1	0	2	0
29	484	0	10000	2	1	0	2	0
29	485	0	10000	2	1	0	2	0
30	486	0	10000	2	1	0	2	0
30	487	0	10000	2	1	0	2	0
29	488	0	10000	2	1	0	2	0
28	489	0	10000	2	1	0	2	0
30	490	0	10000	2	1	0	2	0
33	491	0	10000	2	1	0	2	0
33	492	0	10000	2	1	0	2	0
32	493	0	10000	2	1	0	2	0
32	494	0	10000	2	1	0	2	0
32	495	0	10000	2	1	0	2	0
31	496	0	10000	2	1	0	2	0
30	497	0	10000	2	1	0	2	0
31	498	0	10000	2	1	0	2	0
32	499	0	10000	2	1	0	2	0
31	500	0	10000	2	1	0	2	0
31	501	0	10000	2	1	0	2	1
31	502	0	10000	2	1	0	2	1
29	503	0	10000	2	1	0	2	1
29	504	0	10000	2	1	0	2	1
29	505	0	10000	2	1	0	2	1
31	506	0	10000	2	1	0	2	1
31	507	0	10000	2	1	0	2	1
30	508	0	10000	2	1	0	2	1
28	509	0	10000	2	1	0	2	1
28	510	0	10000	2	1	0	2	1
27	511	0	10000	2	1	0	2	1
26	512	0	10000	2	1	0	2	1
26	513	0	10000	2	1	0	2	1
26	514	0	10000	2	1	0	2	1
27	515	0	10000	2	1	0	2	1
24	516	0	10000	2	1	0	2	1
24	517	0	10000	2	1	0	2	1
25	518	0	10000	2	1	0	2	1
28	519	0	10000	2	1	0	2	1
28	520	0	10000	2	1	0	2	1
27	521	0	10000	2	1	0	2	1
27	522	0	10000	2	1	0	2	1
26	523	0	10000	2	1	0	2	1
26	524	0	10000	2	1	0	2	1
24	525	0	10000	2	1	0	2	1
26	526	0	10000	2	1	0	2	1
27	527	0	10000	2	1	0	2	1
27	528	0	10000	2	1	0	2	1
28	529	0	10000	2	1	0	2	1
27	530	0	10000	2	1	0	2	1
26	531	0	10000	2	1	0	2	1
25	532	0	10000	2	1	0	2	1
25	533	0	10000	2	1	0	2	1
25	534	0	10000	2	1	0	2	1
24	535	0	10000	2	1	0	2	1
22	536	0	10000	2	1	0	2	1
23	537	0	10000	2	1	0	2	1
25	538	0	10000	2	1	0	2	1
24	539	0	10000	2	1	0	2	1
24	540	0	10000	2	1	0	2	1
25	541	0	10000	2	1	0	2	1
25	542	0	10000	2	1	0	2	1
26	543	0	10000	2	1	0	2	1
27	544	0	10000	2	1	0	2	1
27	545	0	10000	2	1	0	2	1
28	546	0	10000	2	1	0	2	1
27	547	0	10000	2	1	0	2	1
26	548	0	10000	2	1	0	2	1
25	549	0	10000	2	1	0	2	1
27	550	0	10000	2	1	0	2	1
29	551	0	10000	2	1	0	2	0
29	552	0	10000	2	1	0	2	0
28	553	0	10000	2	1	0	2	0
30	554	0	10000	2	1	0	2	0
32	555	0	10000	2	1	0	2	0
29	556	0	10000	2	1	0	2	0
30	557	0	10000	2	1	0	2	0
29	558	0	10000	2	1	0	2	0
29	559	0	10000	2	1	0	2	0
28	560	0	10000	2	1	0	2	0
27	561	0	10000	2	1	0	2	0
26	562	0	10000	2	1	0	2	0
25	563	0	10000	2	1	0	2	0
25	564	0	10000	2	1	0	2	0
24	565	0	10000	2	1	0	2	0
26	566	0	10000	2	1	0	2	0
25	567	0	10000	2	1	0	2	0
24	568	0	10000	2	1	0	2	0
24	569	0	10000	2	1	0	2	0
25	570	0	10000	2	1	0	2	0
25	571	0	10000	2	1	0	2	0
24	572	0	10000	2	1	0	2	0
25	573	0	10000	2	1	0	2	0
27	574	0	10000	2	1	0	2	0
31	575	0	10000	2	1	0	2	0
30	576	0	10000	2	1	0	2	0
32	577	0	10000	2	1	0	2	0
34	578	0	10000	2	1	0	2	0
36	579	0	10000	2	1	0	2	0
38	580	0	10000	2	1	0	2	0
49	581	0	10000	2	1	0	2	0
63	582	0	10000	2	1	0	2	0
67	583	0	10000	2	1	0	2	0
70	584	0	10000	2	1	0	2	0
71	585	0	10000	2	1	0	2	0
86	586	0	10000	2	1	0	2	0
97	587	0	10000	2	1	0	2	0
98	588	0	10000	2	1	0	2	0
96	589	0	10000	2	1	0	2	0
96	590	0	10000	2	1	0	2	0
108	591	0	10000	2	1	0	2	0
107	592	0	10000	2	1	0	2	0
116	593	0	10000	2	1	0	2	0
121	594	0	10000	2	1	0	2	0
125	595	0	10000	2	1	0	2	0
184	596	0	10000	2	1	0	2	0
277	597	0	10000	2	1	0	2	0
295	598	0	10000	2	1	0	2	0
361	599	0	10000	2	1	0	2	0
433	600	0	10000	2	1	0	2	0
474	601	0	10000	2	1	0	2	0
495	602	0	10000	2	1	0	2	0
502	603	0	10000	2	1	0	2	0
496	604	0	10000	2	1	0	2	0
486	605	0	10000	2	1	0	2	0
480	606	0	10000	2	1	0	2	0
507	607	0	10000	2	1	0	2	0
546	608	0	10000	2	1	0	2	0
553	609	0	10000	2	1	0	2	0
558	610	0	10000	2	1	0	2	0
549	611	0	10000	2	1	0	2	0
552	612	0	10000	2	1	0	2	0
569	613	0	10000	2	1	0	2	0
563	614	0	10000	2	1	0	2	0
622	615	0	10000	2	1	0	2	0
680	616	0	10000	2	1	0	2	0
670	617	0	10000	2	1	0	2	0
688	618	0	10000	2	1	0	2	0
702	619	0	10000	2	1	0	2	0
696	620	0	10000	2	1	0	2	0
672	621	0	10000	2	1	0	2	0
648	622	0	10000	2	1	0	2	0
635	623	0	10000	2	1	0	2	0
628	624	0	10000	2	1	0	2	0
626	625	0	10000	2	1	0	2	0
627	626	0	10000	2	1	0	2	0
625	627	0	10000	2	1	0	2	0
624	628	0	10000	2	1	0	2	0
621	629	0	10000	2	1	0	2	0
614	630	0	10000	2	1	0	2	0
605	631	0	10000	2	1	0	2	0
593	632	0	10000	2	1	0	2	0
582	633	0	10000	2	1	0	2	0
572	634	0	10000	2	1	0	2	0
560	635	0	10000	2	1	0	2	0
544	636	0	10000	2	1	0	2	0
530	637	0	10000	2	1	0	2	0
515	638	0	10000	2	1	0	2	0
501	639	0	10000	2	1	0	2	0
483	640	0	10000	2	1	0	2	0
466	641	0	10000	2	1	0	2	0
448	642	0	10000	2	1	0	2	0
427	643	0	10000	2	1	0	2	0
409	644	0	10000	2	1	0	2	0
393	645	0	10000	2	1	0	2	0
384	646	0	10000	2	1	0	2	0
379	647	0	10000	2	1	0	2	0
380	648	0	10000	2	1	0	2	0
385	649	0	10000	2	1	0	2	0
393	650	0	10000	2	1	0	2	0
403	651	0	10000	2	1	0	2	0
411	652	0	10000	2	1	0	2	0
421	653	0	10000	2	1	0	2	0
428	654	0	10000	2	1	0	2	0
435	655	0	10000	2	1	0	2	0
439	656	0	10000	2	1	0	2	0
443	657	0	10000	2	1	0	2	0
447	658	0	10000	2	1	0	2	0
449	659	0	10000	2	1	0	2	0
450	660	0	10000	2	1	0	2	0
451	661	0	10000	2	1	0	2	0
452	662	0	10000	2	1	0	2	0
452	663	0	10000	2	1	0	2	0
455	664	0	10000	2	1	0	2	0
458	665	0	10000	2	1	0	2	0
462	666	0	10000	2	1	0	2	0
463	667	0	10000	2	1	0	2	0
461	668	0	10000	2	1	0	2	0
460	669	0	10000	2	1	0	2	0
458	670	0	10000	2	1	0	2	0
455	671	0	10000	2	1	0	2	0
452	672	0	10000	2	1	0	2	0
447	673	0	10000	2	1	0	2	0
440	674	0	10000	2	1	0	2	0
430	675	0	10000	2	1	0	2	0
418	676	0	10000	2	1	0	2	0
407	677	0	10000	2	1	0	2	0
396	678	0	10000	2	1	0	2	0
382	679	0	10000	2	1	0	2	0
368	680	0	10000	2	1	0	2	0
355	681	0	10000	2	1	0	2	0
338	682	0	10000	2	1	0	2	0
322	683	0	10000	2	1	0	2	0
309	684	0	10000	2	1	0	2	0
296	685	0	10000	2	1	0	2	0
287	686	0	10000	2	1	0	2	0
277	687	0	10000	2	1	0	2	0
268	688	0	10000	2	1	0	2	0
261	689	0	10000	2	1	0	2	0
253	690	0	10000	2	1	0	2	0
245	691	0	10000	2	1	0	2	0
234	692	0	10000	2	1	0	2	0
225	693	0	10000	2	1	0	2	0
215	694	0	10000	2	1	0	2	0
208	695	0	10000	2	1	0	2	0
196	696	0	10000	2	1	0	2	0
189	697	0	10000	2	1	0	2	0
185	698	0	10000	2	1	0	2	0
184	699	0	10000	2	1	0	2	0
182	700	0	10000	2	1	0	2	0
180	701	0	10000	2	1	0	2	0
177	702	0	10000	2	1	0	2	0
173	703	0	10000	2	1	0	2	0
168	704	0	10000	2	1	0	2	0
164	705	0	10000	2	1	0	2	0
165	706	0	10000	2	1	0	2	0
163	707	0	10000	2	1	0	2	0
160	708	0	10000	2	1	0	2	0
157	709	0	10000	2	1	0	2	0
154	710	0	10000	2	1	0	2	0
151	711	0	10000	2	1	0	2	0
146	712	0	10000	2	1	0	2	0
142	713	0	10000	2	1	0	2	0
141	714	0	10000	2	1	0	2	0
141	715	0	10000	2	1	0	2	0
137	716	0	10000	2	1	0	2	0
134	717	0	10000	2	1	0	2	0
132	718	0	10000	2	1	0	2	0
129	719	0	10000	2	1	0	2	0
127	720	0	10000	2	1	0	2	0
127	721	0	10000	2	1	0	2	0
132	722	0	10000	2	1	0	2	0
136	723	0	10000	2	1	0	2	0
137	724	0	10000	2	1	0	2	0
139	725	0	10000	2	1	0	2	0
139	726	0	10000	2	1	0	2	0
133	727	0	10000	2	1	0	2	0
129	728	0	10000	2	1	0	2	0
124	729	0	10000	2	1	0	2	0
118	730	0	10000	2	1	0	2	0
115	731	0	10000	2	1	0	2	0
111	732	0	10000	2	1	0	2	0
109	733	0	10000	2	1	0	2	0
110	734	0	10000	2	1	0	2	0
110	735	0	10000	2	1	0	2	0
109	736	0	10000	2	1	0	2	0
113	737	0	10000	2	1	0	2	0
114	738	0	10000	2	1	0	2	0
114	739	0	10000	2	1	0	2	0
118	740	0	10000	2	1	0	2	0
121	741	0	10000	2	1	0	2	0
123	742	0	10000	2	1	0	2	0
124	743	0	10000	2	1	0	2	0
123	744	0	10000	2	1	0	2	0
121	745	0	10000	2	1	0	2	0
118	746	0	10000	2	1	0	2	0
113	747	0	10000	2	1	0	2	0
109	748	0	10000	2	1	0	2	0
107	749	0	10000	2	1	0	2	0
105	750	0	10000	2	1	0	2	0
105	751	0	10000	2	1	0	2	0
100	752	0	10000	2	1	0	2	0
99	753	0	10000	2	1	0	2	0
99	754	0	10000	2	1	0	2	0
98	755	0	10000	2	1	0	2	0
92	756	0	10000	2	1	0	2	0
89	757	0	10000	2	1	0	2	0
89	758	0	10000	2	1	0	2	0
90	759	0	10000	2	1	0	2	0
91	760	0	10000	2	1	0	2	0
89	761	0	10000	2	1	0	2	0
87	762	0	10000	2	1	0	2	0
85	763	0	10000	2	1	0	2	0
84	764	0	10000	2	1	0	2	0
84	765	0	10000	2	1	0	2	0
85	766	0	10000	2	1	0	2	0
82	767	0	10000	2	1	0	2	0
79	768	0	10000	2	1	0	2	0
75	769	0	10000	2	1	0	2	0
71	770	0	10000	2	1	0	2	0
68	771	0	10000	2	1	0	2	0
66	772	0	10000	2	1	0	2	0
63	773	0	10000	2	1	0	2	0
62	774	0	10000	2	1	0	2	0
60	775	0	10000	2	1	0	2	0
59	776	0	10000	2	1	0	2	0
57	777	0	10000	2	1	0	2	0
56	778	0	10000	2	1	0	2	0
59	779	0	10000	2	1	0	2	0
63	780	0	10000	2	1	0	2	0
63	781	0	10000	2	1	0	2	0
63	782	0	10000	2	1	0	2	0
61	783	0	10000	2	1	0	2	0
61	784	0	10000	2	1	0	2	0
62	785	0	10000	2	1	0	2	0
63	786	0	10000	2	1	0	2	0
61	787	0	10000	2	1	0	2	0
59	788	0	10000	2	1	0	2	0
57	789	0	10000	2	1	0	2	0
55	790	0	10000	2	1	0	2	0
52	791	0	10000	2	1	0	2	0
50	792	0	10000	2	1	0	2	0
50	793	0	10000	2	1	0	2	0
48	794	0	10000	2	1	0	2	0
47	795	0	10000	2	1	0	2	0
44	796	0	10000	2	1	0	2	0
43	797	0	10000	2	1	0	2	0
41	798	0	10000	2	1	0	2	0
41	799	0	10000	2	1	0	2	0
42	800	0	10000	2	1	0	2	0
43	801	0	10000	2	1	0	2	0
44	802	0	10000	2	1	0	2	0
44	803	0	10000	2	1	0	2	0
46	804	0	10000	2	1	0	2	0
46	805	0	10000	2	1	0	2	0
47	806	0	10000	2	1	0	2	0
45	807	0	10000	2	1	0	2	0
43	808	0	10000	2	1	0	2	0
41	809	0	10000	2	1	0	2	0
40	810	0	10000	2	1	0	2	0
38	811	0	10000	2	1	0	2	0
37	812	0	10000	2	1	0	2	0
37	813	0	10000	2	1	0	2	0
36	814	0	10000	2	1	0	2	0
35	815	0	10000	2	1	0	2	0
33	816	0	10000	2	1	0	2	0
33	817	0	10000	2	1	0	2	0
32	818	0	10000	2	1	0	2	0
32	819	0	10000	2	1	0	2	0
32	820	0	10000	2	1	0	2	0
33	821	0	10000	2	1	0	2	0
33	822	0	10000	2	1	0	2	0
31	823	0	10000	2	1	0	2	0
31	824	0	10000	2	1	0	2	0
30	825	0	10000	2	1	0	2	0
32	826	0	10000	2	1	0	2	0
31	827	0	10000	2	1	0	2	0
30	828	0	10000	2	1	0	2	0
32	829	0	10000	2	1	0	2	0
34	830	0	10000	2	1	0	2	0
36	831	0	10000	2	1	0	2	0
34	832	0	10000	2	1	0	2	0
36	833	0	10000	2	1	0	2	0
37	834	0	10000	2	1	0	2	0
39	835	0	10000	2	1	0	2	0
35	836	0	10000	2	1	0	2	0
35	837	0	10000	2	1	0	2	0
34	838	0	10000	2	1	0	2	0
33	839	0	10000	2	1	0	2	0
34	840	0	10000	2	1	0	2	0
33	841	0	10000	2	1	0	2	0
34	842	0	10000	2	1	0	2	0
37	843	0	10000	2	1	0	2	0
39	844	0	10000	2	1	0	2	0
42	845	0	10000	2	1	0	2	0
45	846	0	10000	2	1	0	2	0
44	847	0	10000	2	1	0	2	0
44	848	0	10000	2	1	0	2	0
43	849	0	10000	2	1	0	2	0
42	850	0	10000	2	1	0	2	0
40	851	0	10000	2	1	0	2	0
38	852	0	10000	2	1	0	2	0
37	853	0	10000	2	1	0	2	0
36	854	0	10000	2	1	0	2	0
36	855	0	10000	2	1	0	2	0
34	856	0	10000	2	1	0	2	0
34	857	0	10000	2	1	0	2	0
33	858	0	10000	2	1	0	2	0
33	859	0	10000	2	1	0	2	0
32	860	0	10000	2	1	0	2	0
32	861	0	10000	2	1	0	2	0
31	862	0	10000	2	1	0	2	0
31	863	0	10000	2	1	0	2	0
30	864	0	10000	2	1	0	2	0
31	865	0	10000	2	1	0	2	0
32	866	0	10000	2	1	0	2	0
31	867	0	10000	2	1	0	2	0
32	868	0	10000	2	1	0	2	0
32	869	0	10000	2	1	0	2	0
30	870	0	10000	2	1	0	2	0
30	871	0	10000	2	1	0	2	0
31	872	0	10000	2	1	0	2	0
33	873	0	10000	2	1	0	2	0
36	874	0	10000	2	1	0	2	0
41	875	0	10000	2	1	0	2	0
40	876	0	10000	2	1	0	2	0
41	877	0	10000	2	1	0	2	0
39	878	0	10000	2	1	0	2	0
40	879	0	10000	2	1	0	2	0
44	880	0	10000	2	1	0	2	0
49	881	0	10000	2	1	0	2	0
50	882	0	10000	2	1	0	2	0
49	883	0	10000	2	1	0	2	0
47	884	0	10000	2	1	0	2	0
44	885	0	10000	2	1	0	2	0
46	886	0	10000	2	1	0	2	0
44	887	0	10000	2	1	0	2	0
42	888	0	10000	2	1	0	2	0
40	889	0	10000	2	1	0	2	0
39	890	0	10000	2	1	0	2	0
38	891	0	10000	2	1	0	2	0
39	892	0	10000	2	1	0	2	0
43	893	0	10000	2	1	0	2	0
43	894	0	10000	2	1	0	2	0
44	895	0	10000	2	1	0	2	0
43	896	0	10000	2	1	0	2	0
44	897	0	10000	2	1	0	2	0
44	898	0	10000	2	1	0	2	0
45	899	0	10000	2	1	0	2	0
46	900	0	10000	2	1	0	2	0
46	901	0	10000	2	1	0	2	0
45	902	0	10000	2	1	0	2	0
47	903	0	10000	2	1	0	2	0
51	904	0	10000	2	1	0	2	0
52	905	0	10000	2	1	0	2	0
52	906	0	10000	2	1	0	2	0
49	907	0	10000	2	1	0	2	0
48	908	0	10000	2	1	0	2	0
46	909	0	10000	2	1	0	2	0
47	910	0	10000	2	1	0	2	0
47	911	0	10000	2	1	0	2	0
46	912	0	10000	2	1	0	2	0
45	913	0	10000	2	1	0	2	0
44	914	0	10000	2	1	0	2	0
43	915	0	10000	2	1	0	2	0
39	916	0	10000	2	1	0	2	0
37	917	0	10000	2	1	0	2	0
38	918	0	10000	2	1	0	2	0
37	919	0	10000	2	1	0	2	0
36	920	0	10000	2	1	0	2	0
36	921	0	10000	2	1	0	2	0
35	922	0	10000	2	1	0	2	0
33	923	0	10000	2	1	0	2	0
32	924	0	10000	2	1	0	2	0
32	925	0	10000	2	1	0	2	0
37	926	0	10000	2	1	0	2	0
40	927	0	10000	2	1	0	2	0
40	928	0	10000	2	1	0	2	0
40	929	0	10000	2	1	0	2	0
40	930	0	10000	2	1	0	2	0
39	931	0	10000	2	1	0	2	0
39	932	0	10000	2	1	0	2	0
39	933	0	10000	2	1	0	2	0
41	934	0	10000	2	1	0	2	0
44	935	0	10000	2	1	0	2	0
45	936	0	10000	2	1	0	2	0
46	937	0	10000	2	1	0	2	0
47	938	0	10000	2	1	0	2	0
49	939	0	10000	2	1	0	2	0
49	940	0	10000	2	1	0	2	0
47	941	0	10000	2	1	0	2	0
46	942	0	10000	2	1	0	2	0
45	943	0	10000	2	1	0	2	0
44	944	0	10000	2	1	0	2	0
42	945	0	10000	2	1	0	2	0
43	946	0	10000	2	1	0	2	0
43	947	0	10000	2	1	0	2	0
41	948	0	10000	2	1	0	2	0
39	949	0	10000	2	1	0	2	0
39	950	0	10000	2	1	0	2	0
38	951	0	10000	2	1	0	2	0
37	952	0	10000	2	1	0	2	0
37	953	0	10000	2	1	0	2	0
37	954	0	10000	2	1	0	2	0
36	955	0	10000	2	1	0	2	0
34	956	0	10000	2	1	0	2	0
34	957	0	10000	2	1	0	2	0
34	958	0	10000	2	1	0	2	0
34	959	0	10000	2	1	0	2	0
33	960	0	10000	2	1	0	2	0
34	961	0	10000	2	1	0	2	0
38	962	0	10000	2	1	0	2	0
40	963	0	10000	2	1	0	2	0
39	964	0	10000	2	1	0	2	0
39	965	0	10000	2	1	0	2	0
41	966	0	10000	2	1	0	2	0
40	967	0	10000	2	1	0	2	0
39	968	0	10000	2	1	0	2	0
37	969	0	10000	2	1	0	2	0
36	970	0	10000	2	1	0	2	0
37	971	0	10000	2	1	0	2	0
38	972	0	10000	2	1	0	2	0
36	973	0	10000	2	1	0	2	0
36	974	0	10000	2	1	0	2	0
35	975	0	10000	2	1	0	2	0
32	976	0	10000	2	1	0	2	0
34	977	0	10000	2	1	0	2	0
40	978	0	10000	2	1	0	2	0
42	979	0	10000	2	1	0	2	0
43	980	0	10000	2	1	0	2	0
44	981	0	10000	2	1	0	2	0
44	982	0	10000	2	1	0	2	0
41	983	0	10000	2	1	0	2	0
39	984	0	10000	2	1	0	2	0
38	985	0	10000	2	1	0	2	0
38	986	0	10000	2	1	0	2	0
38	987	0	10000	2	1	0	2	0
42	988	0	10000	2	1	0	2	0
47	989	0	10000	2	1	0	2	0
52	990	0	10000	2	1	0	2	0
51	991	0	10000	2	1	0	2	0
52	992	0	10000	2	1	0	2	0
52	993	0	10000	2	1	0	2	0
51	994	0	10000	2	1	0	2	0
51	995	0	10000	2	1	0	2	0
49	996	0	10000	2	1	0	2	0
49	997	0	10000	2	1	0	2	0
48	998	0	10000	2	1	0	2	0
46	999	0	10000	2	1	0	2	0
46	1000	0	10000	2	1	0	2	0
45	1000	0	10000	2	1	0	2	0
45	1001	0	10000	2	1	0	2	0
42	2	10	10000	3	1	0	3	0
42	3	10	10000	3	1	0	3	0
44	4	10	10000	3	1	0	3	0
44	5	10	10000	3	1	0	3	0
42	6	10	10000	3	1	0	3	0
41	7	10	10000	3	1	0	3	0
39	8	10	10000	3	1	0	3	0
37	9	10	10000	3	1	0	3	0
38	10	10	10000	3	1	0	3	0
36	11	10	10000	3	1	0	3	0
36	12	10	10000	3	1	0	3	0
37	13	10	10000	3	1	0	3	0
37	14	10	10000	3	1	0	3	0
36	15	10	10000	3	1	0	3	0
36	16	10	10000	3	1	0	3	0
36	17	10	10000	3	1	0	3	0
37	18	10	10000	3	1	0	3	0
36	19	10	10000	3	1	0	3	0
35	20	10	10000	3	1	0	3	0
39	21	10	10000	3	1	0	3	0
40	21	10	10000	3	1	0	3	0
40	22	10	10000	3	1	0	3	0
40	24	10	10000	3	1	0	3	0
41	25	10	10000	3	1	0	3	0
40	26	10	10000	3	1	0	3	0
40	27	10	10000	3	1	0	3	0
40	28	10	10000	3	1	0	3	0
42	29	10	10000	3	1	0	3	0
44	39	10	10000	3	1	0	3	0
42	40	10	10000	3	1	0	3	0
41	41	10	10000	3	1	0	3	0
38	42	10	10000	3	1	0	3	0
39	43	10	10000	3	1	0	3	0
38	44	10	10000	3	1	0	3	0
40	45	10	10000	3	1	0	3	0
41	46	10	10000	3	1	0	3	0
41	47	10	10000	3	1	0	3	0
40	48	10	10000	3	1	0	3	0
36	47	10	10000	3	1	0	3	0
35	48	10	10000	3	1	0	3	0
34	49	10	10000	3	1	0	3	0
33	50	10	10000	3	1	0	3	0
34	51	10	10000	3	1	0	3	0
32	52	10	10000	3	1	0	3	0
32	53	10	10000	3	1	0	3	0
30	54	10	10000	3	1	0	3	0
29	55	10	10000	3	1	0	3	0
28	56	10	10000	3	1	0	3	0
33	54	10	10000	3	1	0	3	0
37	55	10	10000	3	1	0	3	0
37	56	10	10000	3	1	0	3	0
36	57	10	10000	3	1	0	3	0
38	58	10	10000	3	1	0	3	0
39	59	10	10000	3	1	0	3	0
38	62	10	10000	3	1	0	3	0
38	63	10	10000	3	1	0	3	0
39	64	10	10000	3	1	0	3	0
36	65	10	10000	3	1	0	3	0
33	66	10	10000	3	1	0	3	0
33	67	10	10000	3	1	0	3	0
32	68	10	10000	3	1	0	3	0
34	69	10	10000	3	1	0	3	0
34	68	10	10000	3	1	0	3	0
35	69	10	10000	3	1	0	3	0
35	70	10	10000	3	1	0	3	0
33	71	10	10000	3	1	0	3	0
31	72	10	10000	3	1	0	3	0
31	73	10	10000	3	1	0	3	0
32	72	10	10000	3	1	0	3	0
32	73	10	10000	3	1	0	3	0
33	74	10	10000	3	1	0	3	0
36	75	10	10000	3	1	0	3	0
38	79	10	10000	3	1	0	3	0
38	80	10	10000	3	1	0	3	0
37	81	10	10000	3	1	0	3	0
38	82	10	10000	3	1	0	3	0
38	83	10	10000	3	1	0	3	0
36	84	10	10000	3	1	0	3	0
33	83	10	10000	3	1	0	3	0
33	84	10	10000	3	1	0	3	0
33	85	10	10000	3	1	0	3	0
33	86	10	10000	3	1	0	3	0
32	87	10	10000	3	1	0	3	0
31	88	10	10000	3	1	0	3	0
31	89	10	10000	3	1	0	3	0
29	90	10	10000	3	1	0	3	0
30	91	10	10000	3	1	0	3	0
33	92	10	10000	3	1	0	3	0
34	93	10	10000	3	1	0	3	0
33	94	10	10000	3	1	0	3	0
32	94	10	10000	3	1	0	3	0
31	95	10	10000	3	1	0	3	0
32	96	10	10000	3	1	0	3	0
35	97	10	10000	3	1	0	3	0
35	99	10	10000	3	1	0	3	0
36	100	10	10000	3	1	0	3	0
36	101	10	10000	3	1	0	3	0
35	102	10	10000	3	1	0	3	0
34	103	10	10000	3	1	0	3	0
34	104	10	10000	3	1	0	3	0
34	105	10	10000	3	1	0	3	0
33	106	10	10000	3	1	0	3	0
32	107	10	10000	3	1	0	3	0
31	108	10	10000	3	1	0	3	0
30	109	10	10000	3	1	0	3	0
29	110	10	10000	3	1	0	3	0
27	110	10	10000	3	1	0	3	0
28	111	10	10000	3	1	0	3	0
29	112	10	10000	3	1	0	3	0
28	113	10	10000	3	1	0	3	0
27	116	10	10000	3	1	0	3	0
28	117	10	10000	3	1	0	3	0
29	118	10	10000	3	1	0	3	0
28	119	10	10000	3	1	0	3	0
28	120	10	10000	3	1	0	3	0
30	121	10	10000	3	1	0	3	0
30	121	10	10000	3	1	0	3	0
31	122	10	10000	3	1	0	3	0
28	123	10	10000	3	1	0	3	0
28	124	10	10000	3	1	0	3	0
28	127	10	10000	3	1	0	3	0
30	128	10	10000	3	1	0	3	0
31	129	10	10000	3	1	0	3	0
30	130	10	10000	3	1	0	3	0
29	131	10	10000	3	1	0	3	0
27	132	10	10000	3	1	0	3	0
26	133	10	10000	3	1	0	3	0
25	134	10	10000	3	1	0	3	0
27	131	10	10000	3	1	0	3	0
26	132	10	10000	3	1	0	3	0
25	133	10	10000	3	1	0	3	0
24	134	10	10000	3	1	0	3	0
22	138	10	10000	3	1	0	3	0
22	139	10	10000	3	1	0	3	0
21	140	10	10000	3	1	0	3	0
22	141	10	10000	3	1	0	3	0
23	142	10	10000	3	1	0	3	0
22	143	10	10000	3	1	0	3	0
20	143	10	10000	3	1	0	3	0
20	144	10	10000	3	1	0	3	0
22	145	10	10000	3	1	0	3	0
21	146	10	10000	3	1	0	3	0
22	147	10	10000	3	1	0	3	0
22	148	10	10000	3	1	0	3	0
25	149	10	10000	3	1	0	3	0
25	150	10	10000	3	1	0	3	0
26	151	10	10000	3	1	0	3	0
25	152	10	10000	3	1	0	3	0
27	153	10	10000	3	1	0	3	0
26	154	10	10000	3	1	0	3	0
26	154	10	10000	3	1	0	3	0
26	155	10	10000	3	1	0	3	0
27	156	10	10000	3	1	0	3	0
26	157	10	10000	3	1	0	3	0
26	159	10	10000	3	1	0	3	0
25	160	10	10000	3	1	0	3	0
25	161	10	10000	3	1	0	3	0
24	162	10	10000	3	1	0	3	0
22	163	10	10000	3	1	0	3	0
22	164	10	10000	3	1	0	3	0
23	165	10	10000	3	1	0	3	0
23	166	10	10000	3	1	0	3	0
22	167	10	10000	3	1	0	3	0
23	168	10	10000	3	1	0	3	0
26	169	10	10000	3	1	0	3	0
25	170	10	10000	3	1	0	3	0
25	170	10	10000	3	1	0	3	0
27	171	10	10000	3	1	0	3	0
30	172	10	10000	3	1	0	3	0
29	173	10	10000	3	1	0	3	0
28	176	10	10000	3	1	0	3	0
27	177	10	10000	3	1	0	3	0
27	178	10	10000	3	1	0	3	0
26	179	10	10000	3	1	0	3	0
25	180	10	10000	3	1	0	3	0
24	181	10	10000	3	1	0	3	0
25	180	10	10000	3	1	0	3	0
25	181	10	10000	3	1	0	3	0
24	182	10	10000	3	1	0	3	0
25	183	10	10000	3	1	0	3	0
25	187	10	10000	3	1	0	3	0
24	188	10	10000	3	1	0	3	0
24	189	10	10000	3	1	0	3	0
23	190	10	10000	3	1	0	3	0
24	191	10	10000	3	1	0	3	0
27	192	10	10000	3	1	0	3	0
28	193	10	10000	3	1	0	3	0
27	194	10	10000	3	1	0	3	0
31	191	10	10000	3	1	0	3	0
32	192	10	10000	3	1	0	3	0
34	193	10	10000	3	1	0	3	0
34	194	10	10000	3	1	0	3	0
33	198	10	10000	3	1	0	3	0
32	199	10	10000	3	1	0	3	0
31	200	10	10000	3	1	0	3	0
31	201	10	10000	3	1	0	3	0
31	202	10	10000	3	1	0	3	0
30	203	10	10000	3	1	0	3	0
27	203	10	10000	3	1	0	3	0
26	204	10	10000	3	1	0	3	0
25	205	10	10000	3	1	0	3	0
27	206	10	10000	3	1	0	3	0
28	209	10	10000	3	1	0	3	0
27	210	10	10000	3	1	0	3	0
27	211	10	10000	3	1	0	3	0
26	212	10	10000	3	1	0	3	0
26	213	10	10000	3	1	0	3	0
27	214	10	10000	3	1	0	3	0
29	215	10	10000	3	1	0	3	0
32	216	10	10000	3	1	0	3	0
35	214	10	10000	3	1	0	3	0
35	215	10	10000	3	1	0	3	0
35	216	10	10000	3	1	0	3	0
35	217	10	10000	3	1	0	3	0
34	216	10	10000	3	1	0	3	0
34	217	10	10000	3	1	0	3	0
34	218	10	10000	3	1	0	3	0
33	219	10	10000	3	1	0	3	0
31	220	10	10000	3	1	0	3	0
30	221	10	10000	3	1	0	3	0
30	222	10	10000	3	1	0	3	0
31	223	10	10000	3	1	0	3	0
30	224	10	10000	3	1	0	3	0
30	225	10	10000	3	1	0	3	0
31	226	10	10000	3	1	0	3	0
29	227	10	10000	3	1	0	3	0
29	228	10	10000	3	1	0	3	0
29	229	10	10000	3	1	0	3	0
31	230	10	10000	3	1	0	3	0
29	231	10	10000	3	1	0	3	0
29	232	10	10000	3	1	0	3	0
28	233	10	10000	3	1	0	3	0
28	234	10	10000	3	1	0	3	0
27	235	10	10000	3	1	0	3	0
26	236	10	10000	3	1	0	3	0
27	237	10	10000	3	1	0	3	0
26	238	10	10000	3	1	0	3	0
25	239	10	10000	3	1	0	3	0
24	240	10	10000	3	1	0	3	0
27	241	10	10000	3	1	0	3	0
31	242	10	10000	3	1	0	3	0
33	243	10	10000	3	1	0	3	0
32	244	10	10000	3	1	0	3	0
30	245	10	10000	3	1	0	3	0
30	246	10	10000	3	1	0	3	0
29	247	10	10000	3	1	0	3	0
28	248	10	10000	3	1	0	3	0
28	249	10	10000	3	1	0	3	0
30	250	10	10000	3	1	0	3	0
30	251	10	10000	3	1	0	3	0
30	252	10	10000	3	1	0	3	0
31	253	10	10000	3	1	0	3	0
32	254	10	10000	3	1	0	3	0
32	255	10	10000	3	1	0	3	0
30	256	10	10000	3	1	0	3	0
31	257	10	10000	3	1	0	3	0
31	258	10	10000	3	1	0	3	0
30	259	10	10000	3	1	0	3	0
27	260	10	10000	3	1	0	3	0
26	261	10	10000	3	1	0	3	0
26	262	10	10000	3	1	0	3	0
25	263	10	10000	3	1	0	3	0
25	264	10	10000	3	1	0	3	0
26	265	10	10000	3	1	0	3	0
25	266	10	10000	3	1	0	3	0
25	267	10	10000	3	1	0	3	0
28	268	10	10000	3	1	0	3	0
28	269	10	10000	3	1	0	3	0
30	270	10	10000	3	1	0	3	0
30	271	10	10000	3	1	0	3	0
30	272	10	10000	3	1	0	3	0
30	273	10	10000	3	1	0	3	0
29	274	10	10000	3	1	0	3	0
27	275	10	10000	3	1	0	3	0
28	276	10	10000	3	1	0	3	0
29	277	10	10000	3	1	0	3	0
29	278	10	10000	3	1	0	3	0
29	279	10	10000	3	1	0	3	0
26	280	10	10000	3	1	0	3	0
26	281	10	10000	3	1	0	3	0
26	282	10	10000	3	1	0	3	0
25	283	10	10000	3	1	0	3	0
25	284	10	10000	3	1	0	3	0
24	285	10	10000	3	1	0	3	0
26	286	10	10000	3	1	0	3	0
29	287	10	10000	3	1	0	3	0
30	288	10	10000	3	1	0	3	0
29	289	10	10000	3	1	0	3	0
30	290	10	10000	3	1	0	3	0
28	291	10	10000	3	1	0	3	0
28	292	10	10000	3	1	0	3	0
27	293	10	10000	3	1	0	3	0
25	294	10	10000	3	1	0	3	0
24	295	10	10000	3	1	0	3	0
25	296	10	10000	3	1	0	3	0
28	297	10	10000	3	1	0	3	0
29	298	10	10000	3	1	0	3	0
28	299	10	10000	3	1	0	3	0
25	300	10	10000	3	1	0	3	0
24	301	10	10000	3	1	0	3	0
24	302	10	10000	3	1	0	3	0
26	303	10	10000	3	1	0	3	0
28	304	10	10000	3	1	0	3	0
28	305	10	10000	3	1	0	3	0
29	306	10	10000	3	1	0	3	0
29	307	10	10000	3	1	0	3	0
28	308	10	10000	3	1	0	3	0
27	309	10	10000	3	1	0	3	0
30	310	10	10000	3	1	0	3	0
30	311	10	10000	3	1	0	3	0
31	312	10	10000	3	1	0	3	0
30	313	10	10000	3	1	0	3	0
29	314	10	10000	3	1	0	3	0
29	315	10	10000	3	1	0	3	0
28	316	10	10000	3	1	0	3	0
28	317	10	10000	3	1	0	3	0
27	318	10	10000	3	1	0	3	0
28	319	10	10000	3	1	0	3	0
28	320	10	10000	3	1	0	3	0
28	321	10	10000	3	1	0	3	0
28	322	10	10000	3	1	0	3	0
30	323	10	10000	3	1	0	3	0
32	324	10	10000	3	1	0	3	0
33	325	10	10000	3	1	0	3	0
32	326	10	10000	3	1	0	3	0
32	327	10	10000	3	1	0	3	0
36	328	10	10000	3	1	0	3	0
40	329	10	10000	3	1	0	3	0
43	330	10	10000	3	1	0	3	0
41	331	10	10000	3	1	0	3	0
42	332	10	10000	3	1	0	3	0
41	333	10	10000	3	1	0	3	0
40	334	10	10000	3	1	0	3	0
39	335	10	10000	3	1	0	3	0
37	336	10	10000	3	1	0	3	0
37	337	10	10000	3	1	0	3	0
36	338	10	10000	3	1	0	3	0
34	339	10	10000	3	1	0	3	0
31	340	10	10000	3	1	0	3	0
31	341	10	10000	3	1	0	3	0
31	342	10	10000	3	1	0	3	0
32	343	10	10000	3	1	0	3	0
32	344	10	10000	3	1	0	3	0
31	345	10	10000	3	1	0	3	0
31	346	10	10000	3	1	0	3	0
29	347	10	10000	3	1	0	3	0
28	348	10	10000	3	1	0	3	0
28	349	10	10000	3	1	0	3	0
28	350	10	10000	3	1	0	3	0
27	351	10	10000	3	1	0	3	0
26	352	10	10000	3	1	0	3	0
27	353	10	10000	3	1	0	3	0
29	354	10	10000	3	1	0	3	0
32	355	10	10000	3	1	0	3	0
34	356	10	10000	3	1	0	3	0
36	357	10	10000	3	1	0	3	0
35	358	10	10000	3	1	0	3	0
35	359	10	10000	3	1	0	3	0
34	360	10	10000	3	1	0	3	0
37	361	10	10000	3	1	0	3	0
40	362	10	10000	3	1	0	3	0
43	363	10	10000	3	1	0	3	0
42	364	10	10000	3	1	0	3	0
44	365	10	10000	3	1	0	3	0
43	366	10	10000	3	1	0	3	0
42	367	10	10000	3	1	0	3	0
41	368	10	10000	3	1	0	3	0
42	369	10	10000	3	1	0	3	0
43	370	10	10000	3	1	0	3	0
41	371	10	10000	3	1	0	3	0
39	372	10	10000	3	1	0	3	0
37	373	10	10000	3	1	0	3	0
37	374	10	10000	3	1	0	3	0
36	375	10	10000	3	1	0	3	0
34	376	10	10000	3	1	0	3	0
35	377	10	10000	3	1	0	3	0
34	378	10	10000	3	1	0	3	0
35	379	10	10000	3	1	0	3	0
36	380	10	10000	3	1	0	3	0
38	381	10	10000	3	1	0	3	0
39	382	10	10000	3	1	0	3	0
37	383	10	10000	3	1	0	3	0
37	384	10	10000	3	1	0	3	0
36	385	10	10000	3	1	0	3	0
36	386	10	10000	3	1	0	3	0
34	387	10	10000	3	1	0	3	0
34	388	10	10000	3	1	0	3	0
35	389	10	10000	3	1	0	3	0
39	390	10	10000	3	1	0	3	0
38	391	10	10000	3	1	0	3	0
37	392	10	10000	3	1	0	3	0
37	393	10	10000	3	1	0	3	0
36	394	10	10000	3	1	0	3	0
37	395	10	10000	3	1	0	3	0
39	396	10	10000	3	1	0	3	0
39	397	10	10000	3	1	0	3	0
41	398	10	10000	3	1	0	3	0
44	399	10	10000	3	1	0	3	0
45	400	10	10000	3	1	0	3	0
49	401	10	10000	3	1	0	3	0
52	402	10	10000	3	1	0	3	0
52	403	10	10000	3	1	0	3	0
51	404	10	10000	3	1	0	3	0
50	405	10	10000	3	1	0	3	0
50	406	10	10000	3	1	0	3	0
47	407	10	10000	3	1	0	3	0
45	408	10	10000	3	1	0	3	0
44	409	10	10000	3	1	0	3	0
44	410	10	10000	3	1	0	3	0
46	411	10	10000	3	1	0	3	0
48	412	10	10000	3	1	0	3	0
49	413	10	10000	3	1	0	3	0
47	414	10	10000	3	1	0	3	0
46	415	10	10000	3	1	0	3	0
44	416	10	10000	3	1	0	3	0
44	417	10	10000	3	1	0	3	0
44	418	10	10000	3	1	0	3	0
43	419	10	10000	3	1	0	3	0
39	420	10	10000	3	1	0	3	0
38	421	10	10000	3	1	0	3	0
37	422	10	10000	3	1	0	3	0
36	423	10	10000	3	1	0	3	0
36	424	10	10000	3	1	0	3	0
36	425	10	10000	3	1	0	3	0
35	426	10	10000	3	1	0	3	0
34	427	10	10000	3	1	0	3	0
35	428	10	10000	3	1	0	3	0
35	429	10	10000	3	1	0	3	0
36	430	10	10000	3	1	0	3	0
36	431	10	10000	3	1	0	3	0
34	432	10	10000	3	1	0	3	0
33	433	10	10000	3	1	0	3	0
32	434	10	10000	3	1	0	3	0
32	435	10	10000	3	1	0	3	0
32	436	10	10000	3	1	0	3	0
32	437	10	10000	3	1	0	3	0
34	438	10	10000	3	1	0	3	0
35	439	10	10000	3	1	0	3	0
34	440	10	10000	3	1	0	3	0
36	441	10	10000	3	1	0	3	0
36	442	10	10000	3	1	0	3	0
36	443	10	10000	3	1	0	3	0
36	444	10	10000	3	1	0	3	0
35	445	10	10000	3	1	0	3	0
34	446	10	10000	3	1	0	3	0
34	447	10	10000	3	1	0	3	0
35	448	10	10000	3	1	0	3	0
35	449	10	10000	3	1	0	3	0
38	450	10	10000	3	1	0	3	0
36	451	10	10000	3	1	0	3	0
35	452	10	10000	3	1	0	3	0
33	453	10	10000	3	1	0	3	0
33	454	10	10000	3	1	0	3	0
33	455	10	10000	3	1	0	3	0
33	456	10	10000	3	1	0	3	0
33	457	10	10000	3	1	0	3	0
33	458	10	10000	3	1	0	3	0
32	459	10	10000	3	1	0	3	0
30	460	10	10000	3	1	0	3	0
30	461	10	10000	3	1	0	3	0
29	462	10	10000	3	1	0	3	0
29	463	10	10000	3	1	0	3	0
29	464	10	10000	3	1	0	3	0
28	465	10	10000	3	1	0	3	0
28	466	10	10000	3	1	0	3	0
29	467	10	10000	3	1	0	3	0
30	468	10	10000	3	1	0	3	0
28	469	10	10000	3	1	0	3	0
30	470	10	10000	3	1	0	3	0
31	471	10	10000	3	1	0	3	0
30	472	10	10000	3	1	0	3	0
30	473	10	10000	3	1	0	3	0
31	474	10	10000	3	1	0	3	0
31	475	10	10000	3	1	0	3	0
32	476	10	10000	3	1	0	3	0
38	477	10	10000	3	1	0	3	0
42	478	10	10000	3	1	0	3	0
40	479	10	10000	3	1	0	3	0
39	480	10	10000	3	1	0	3	0
40	481	10	10000	3	1	0	3	0
39	482	10	10000	3	1	0	3	0
39	483	10	10000	3	1	0	3	0
38	484	10	10000	3	1	0	3	0
37	485	10	10000	3	1	0	3	0
37	486	10	10000	3	1	0	3	0
35	487	10	10000	3	1	0	3	0
33	488	10	10000	3	1	0	3	0
32	489	10	10000	3	1	0	3	0
34	490	10	10000	3	1	0	3	0
33	491	10	10000	3	1	0	3	0
32	492	10	10000	3	1	0	3	0
32	493	10	10000	3	1	0	3	0
33	494	10	10000	3	1	0	3	0
35	495	10	10000	3	1	0	3	0
35	496	10	10000	3	1	0	3	0
36	497	10	10000	3	1	0	3	0
37	498	10	10000	3	1	0	3	0
39	499	10	10000	3	1	0	3	0
37	500	10	10000	3	1	0	3	0
36	501	10	10000	3	1	0	3	0
36	501	10	10000	3	1	0	3	1
37	502	10	10000	3	1	0	3	1
36	504	10	10000	3	1	0	3	1
34	505	10	10000	3	1	0	3	1
34	506	10	10000	3	1	0	3	1
33	507	10	10000	3	1	0	3	1
33	508	10	10000	3	1	0	3	1
32	509	10	10000	3	1	0	3	1
34	510	10	10000	3	1	0	3	1
35	511	10	10000	3	1	0	3	1
35	512	10	10000	3	1	0	3	1
35	513	10	10000	3	1	0	3	1
36	514	10	10000	3	1	0	3	1
34	515	10	10000	3	1	0	3	1
35	516	10	10000	3	1	0	3	1
37	517	10	10000	3	1	0	3	1
37	518	10	10000	3	1	0	3	1
36	519	10	10000	3	1	0	3	1
36	520	10	10000	3	1	0	3	1
37	521	10	10000	3	1	0	3	1
38	522	10	10000	3	1	0	3	1
39	523	10	10000	3	1	0	3	1
40	524	10	10000	3	1	0	3	1
40	525	10	10000	3	1	0	3	1
38	526	10	10000	3	1	0	3	1
36	527	10	10000	3	1	0	3	1
34	528	10	10000	3	1	0	3	1
35	529	10	10000	3	1	0	3	1
40	530	10	10000	3	1	0	3	1
42	531	10	10000	3	1	0	3	1
40	532	10	10000	3	1	0	3	1
40	533	10	10000	3	1	0	3	1
40	534	10	10000	3	1	0	3	1
39	535	10	10000	3	1	0	3	1
40	536	10	10000	3	1	0	3	1
41	537	10	10000	3	1	0	3	1
40	538	10	10000	3	1	0	3	1
43	539	10	10000	3	1	0	3	1
42	540	10	10000	3	1	0	3	1
44	541	10	10000	3	1	0	3	1
45	542	10	10000	3	1	0	3	1
44	543	10	10000	3	1	0	3	1
44	544	10	10000	3	1	0	3	1
44	545	10	10000	3	1	0	3	1
43	546	10	10000	3	1	0	3	1
41	547	10	10000	3	1	0	3	1
40	548	10	10000	3	1	0	3	1
38	549	10	10000	3	1	0	3	1
38	550	10	10000	3	1	0	3	1
39	551	10	10000	3	1	0	3	1
42	552	10	10000	3	1	0	3	0
44	553	10	10000	3	1	0	3	0
42	554	10	10000	3	1	0	3	0
41	555	10	10000	3	1	0	3	0
39	556	10	10000	3	1	0	3	0
38	557	10	10000	3	1	0	3	0
38	558	10	10000	3	1	0	3	0
38	559	10	10000	3	1	0	3	0
36	560	10	10000	3	1	0	3	0
37	561	10	10000	3	1	0	3	0
36	562	10	10000	3	1	0	3	0
37	563	10	10000	3	1	0	3	0
40	564	10	10000	3	1	0	3	0
43	565	10	10000	3	1	0	3	0
44	566	10	10000	3	1	0	3	0
44	567	10	10000	3	1	0	3	0
41	568	10	10000	3	1	0	3	0
41	569	10	10000	3	1	0	3	0
44	570	10	10000	3	1	0	3	0
48	571	10	10000	3	1	0	3	0
52	572	10	10000	3	1	0	3	0
56	573	10	10000	3	1	0	3	0
63	574	10	10000	3	1	0	3	0
66	575	10	10000	3	1	0	3	0
68	576	10	10000	3	1	0	3	0
70	577	10	10000	3	1	0	3	0
75	578	10	10000	3	1	0	3	0
80	579	10	10000	3	1	0	3	0
81	580	10	10000	3	1	0	3	0
85	581	10	10000	3	1	0	3	0
88	582	10	10000	3	1	0	3	0
93	583	10	10000	3	1	0	3	0
95	584	10	10000	3	1	0	3	0
95	585	10	10000	3	1	0	3	0
94	586	10	10000	3	1	0	3	0
93	587	10	10000	3	1	0	3	0
90	588	10	10000	3	1	0	3	0
88	589	10	10000	3	1	0	3	0
95	590	10	10000	3	1	0	3	0
100	591	10	10000	3	1	0	3	0
99	592	10	10000	3	1	0	3	0
105	593	10	10000	3	1	0	3	0
115	594	10	10000	3	1	0	3	0
121	595	10	10000	3	1	0	3	0
124	596	10	10000	3	1	0	3	0
125	597	10	10000	3	1	0	3	0
128	598	10	10000	3	1	0	3	0
138	599	10	10000	3	1	0	3	0
139	600	10	10000	3	1	0	3	0
174	601	10	10000	3	1	0	3	0
231	602	10	10000	3	1	0	3	0
261	603	10	10000	3	1	0	3	0
260	604	10	10000	3	1	0	3	0
280	605	10	10000	3	1	0	3	0
288	606	10	10000	3	1	0	3	0
292	607	10	10000	3	1	0	3	0
296	608	10	10000	3	1	0	3	0
297	609	10	10000	3	1	0	3	0
300	610	10	10000	3	1	0	3	0
291	611	10	10000	3	1	0	3	0
279	612	10	10000	3	1	0	3	0
269	613	10	10000	3	1	0	3	0
262	614	10	10000	3	1	0	3	0
252	615	10	10000	3	1	0	3	0
241	616	10	10000	3	1	0	3	0
232	617	10	10000	3	1	0	3	0
226	618	10	10000	3	1	0	3	0
223	619	10	10000	3	1	0	3	0
221	620	10	10000	3	1	0	3	0
222	621	10	10000	3	1	0	3	0
224	622	10	10000	3	1	0	3	0
225	623	10	10000	3	1	0	3	0
224	624	10	10000	3	1	0	3	0
228	625	10	10000	3	1	0	3	0
231	626	10	10000	3	1	0	3	0
232	627	10	10000	3	1	0	3	0
234	628	10	10000	3	1	0	3	0
236	629	10	10000	3	1	0	3	0
240	630	10	10000	3	1	0	3	0
241	631	10	10000	3	1	0	3	0
241	632	10	10000	3	1	0	3	0
239	633	10	10000	3	1	0	3	0
236	634	10	10000	3	1	0	3	0
231	635	10	10000	3	1	0	3	0
226	636	10	10000	3	1	0	3	0
223	637	10	10000	3	1	0	3	0
215	638	10	10000	3	1	0	3	0
205	639	10	10000	3	1	0	3	0
196	640	10	10000	3	1	0	3	0
192	641	10	10000	3	1	0	3	0
188	642	10	10000	3	1	0	3	0
182	643	10	10000	3	1	0	3	0
174	644	10	10000	3	1	0	3	0
169	645	10	10000	3	1	0	3	0
164	646	10	10000	3	1	0	3	0
158	647	10	10000	3	1	0	3	0
153	648	10	10000	3	1	0	3	0
147	649	10	10000	3	1	0	3	0
142	650	10	10000	3	1	0	3	0
137	651	10	10000	3	1	0	3	0
131	652	10	10000	3	1	0	3	0
125	653	10	10000	3	1	0	3	0
121	654	10	10000	3	1	0	3	0
119	655	10	10000	3	1	0	3	0
116	656	10	10000	3	1	0	3	0
114	657	10	10000	3	1	0	3	0
112	658	10	10000	3	1	0	3	0
110	659	10	10000	3	1	0	3	0
103	660	10	10000	3	1	0	3	0
99	661	10	10000	3	1	0	3	0
96	662	10	10000	3	1	0	3	0
93	663	10	10000	3	1	0	3	0
92	664	10	10000	3	1	0	3	0
91	665	10	10000	3	1	0	3	0
89	666	10	10000	3	1	0	3	0
87	667	10	10000	3	1	0	3	0
87	668	10	10000	3	1	0	3	0
85	669	10	10000	3	1	0	3	0
85	670	10	10000	3	1	0	3	0
84	671	10	10000	3	1	0	3	0
81	672	10	10000	3	1	0	3	0
77	673	10	10000	3	1	0	3	0
74	674	10	10000	3	1	0	3	0
71	675	10	10000	3	1	0	3	0
69	676	10	10000	3	1	0	3	0
67	677	10	10000	3	1	0	3	0
66	678	10	10000	3	1	0	3	0
67	679	10	10000	3	1	0	3	0
63	680	10	10000	3	1	0	3	0
62	681	10	10000	3	1	0	3	0
62	682	10	10000	3	1	0	3	0
63	683	10	10000	3	1	0	3	0
63	684	10	10000	3	1	0	3	0
61	685	10	10000	3	1	0	3	0
60	686	10	10000	3	1	0	3	0
56	687	10	10000	3	1	0	3	0
54	688	10	10000	3	1	0	3	0
52	689	10	10000	3	1	0	3	0
52	690	10	10000	3	1	0	3	0
49	691	10	10000	3	1	0	3	0
49	692	10	10000	3	1	0	3	0
47	693	10	10000	3	1	0	3	0
47	694	10	10000	3	1	0	3	0
44	695	10	10000	3	1	0	3	0
43	696	10	10000	3	1	0	3	0
41	697	10	10000	3	1	0	3	0
41	698	10	10000	3	1	0	3	0
41	699	10	10000	3	1	0	3	0
39	700	10	10000	3	1	0	3	0
38	701	10	10000	3	1	0	3	0
38	702	10	10000	3	1	0	3	0
40	703	10	10000	3	1	0	3	0
40	704	10	10000	3	1	0	3	0
38	705	10	10000	3	1	0	3	0
40	706	10	10000	3	1	0	3	0
41	707	10	10000	3	1	0	3	0
41	708	10	10000	3	1	0	3	0
43	709	10	10000	3	1	0	3	0
48	710	10	10000	3	1	0	3	0
49	711	10	10000	3	1	0	3	0
49	712	10	10000	3	1	0	3	0
47	713	10	10000	3	1	0	3	0
46	714	10	10000	3	1	0	3	0
46	715	10	10000	3	1	0	3	0
47	716	10	10000	3	1	0	3	0
47	717	10	10000	3	1	0	3	0
48	718	10	10000	3	1	0	3	0
46	719	10	10000	3	1	0	3	0
45	720	10	10000	3	1	0	3	0
46	721	10	10000	3	1	0	3	0
47	722	10	10000	3	1	0	3	0
48	723	10	10000	3	1	0	3	0
49	724	10	10000	3	1	0	3	0
50	725	10	10000	3	1	0	3	0
52	726	10	10000	3	1	0	3	0
52	727	10	10000	3	1	0	3	0
51	728	10	10000	3	1	0	3	0
50	729	10	10000	3	1	0	3	0
50	730	10	10000	3	1	0	3	0
48	731	10	10000	3	1	0	3	0
48	732	10	10000	3	1	0	3	0
47	733	10	10000	3	1	0	3	0
46	734	10	10000	3	1	0	3	0
47	735	10	10000	3	1	0	3	0
50	736	10	10000	3	1	0	3	0
51	737	10	10000	3	1	0	3	0
51	738	10	10000	3	1	0	3	0
51	739	10	10000	3	1	0	3	0
48	740	10	10000	3	1	0	3	0
47	741	10	10000	3	1	0	3	0
46	742	10	10000	3	1	0	3	0
44	743	10	10000	3	1	0	3	0
44	744	10	10000	3	1	0	3	0
44	745	10	10000	3	1	0	3	0
44	746	10	10000	3	1	0	3	0
43	747	10	10000	3	1	0	3	0
42	748	10	10000	3	1	0	3	0
40	749	10	10000	3	1	0	3	0
43	750	10	10000	3	1	0	3	0
45	751	10	10000	3	1	0	3	0
45	752	10	10000	3	1	0	3	0
46	753	10	10000	3	1	0	3	0
49	754	10	10000	3	1	0	3	0
50	755	10	10000	3	1	0	3	0
50	756	10	10000	3	1	0	3	0
50	757	10	10000	3	1	0	3	0
50	758	10	10000	3	1	0	3	0
52	759	10	10000	3	1	0	3	0
51	760	10	10000	3	1	0	3	0
50	761	10	10000	3	1	0	3	0
50	762	10	10000	3	1	0	3	0
51	763	10	10000	3	1	0	3	0
52	764	10	10000	3	1	0	3	0
52	765	10	10000	3	1	0	3	0
52	766	10	10000	3	1	0	3	0
51	767	10	10000	3	1	0	3	0
51	768	10	10000	3	1	0	3	0
50	769	10	10000	3	1	0	3	0
50	770	10	10000	3	1	0	3	0
48	771	10	10000	3	1	0	3	0
47	772	10	10000	3	1	0	3	0
47	773	10	10000	3	1	0	3	0
46	774	10	10000	3	1	0	3	0
48	775	10	10000	3	1	0	3	0
52	776	10	10000	3	1	0	3	0
56	777	10	10000	3	1	0	3	0
57	778	10	10000	3	1	0	3	0
55	779	10	10000	3	1	0	3	0
51	780	10	10000	3	1	0	3	0
48	781	10	10000	3	1	0	3	0
48	782	10	10000	3	1	0	3	0
47	783	10	10000	3	1	0	3	0
45	784	10	10000	3	1	0	3	0
45	785	10	10000	3	1	0	3	0
45	786	10	10000	3	1	0	3	0
43	787	10	10000	3	1	0	3	0
42	788	10	10000	3	1	0	3	0
40	789	10	10000	3	1	0	3	0
40	790	10	10000	3	1	0	3	0
40	791	10	10000	3	1	0	3	0
38	792	10	10000	3	1	0	3	0
38	793	10	10000	3	1	0	3	0
41	794	10	10000	3	1	0	3	0
42	795	10	10000	3	1	0	3	0
41	796	10	10000	3	1	0	3	0
41	797	10	10000	3	1	0	3	0
41	798	10	10000	3	1	0	3	0
40	799	10	10000	3	1	0	3	0
38	800	10	10000	3	1	0	3	0
38	801	10	10000	3	1	0	3	0
43	802	10	10000	3	1	0	3	0
46	803	10	10000	3	1	0	3	0
45	804	10	10000	3	1	0	3	0
45	805	10	10000	3	1	0	3	0
44	806	10	10000	3	1	0	3	0
42	807	10	10000	3	1	0	3	0
41	808	10	10000	3	1	0	3	0
43	809	10	10000	3	1	0	3	0
47	810	10	10000	3	1	0	3	0
49	811	10	10000	3	1	0	3	0
47	812	10	10000	3	1	0	3	0
48	813	10	10000	3	1	0	3	0
48	814	10	10000	3	1	0	3	0
46	815	10	10000	3	1	0	3	0
45	816	10	10000	3	1	0	3	0
46	817	10	10000	3	1	0	3	0
47	818	10	10000	3	1	0	3	0
49	819	10	10000	3	1	0	3	0
48	820	10	10000	3	1	0	3	0
47	821	10	10000	3	1	0	3	0
46	822	10	10000	3	1	0	3	0
45	823	10	10000	3	1	0	3	0
46	824	10	10000	3	1	0	3	0
45	825	10	10000	3	1	0	3	0
46	826	10	10000	3	1	0	3	0
47	827	10	10000	3	1	0	3	0
46	828	10	10000	3	1	0	3	0
44	829	10	10000	3	1	0	3	0
45	830	10	10000	3	1	0	3	0
43	831	10	10000	3	1	0	3	0
42	832	10	10000	3	1	0	3	0
40	833	10	10000	3	1	0	3	0
43	834	10	10000	3	1	0	3	0
45	835	10	10000	3	1	0	3	0
45	836	10	10000	3	1	0	3	0
45	837	10	10000	3	1	0	3	0
47	838	10	10000	3	1	0	3	0
48	839	10	10000	3	1	0	3	0
44	840	10	10000	3	1	0	3	0
47	841	10	10000	3	1	0	3	0
50	842	10	10000	3	1	0	3	0
50	843	10	10000	3	1	0	3	0
51	844	10	10000	3	1	0	3	0
52	845	10	10000	3	1	0	3	0
52	846	10	10000	3	1	0	3	0
50	847	10	10000	3	1	0	3	0
48	848	10	10000	3	1	0	3	0
48	849	10	10000	3	1	0	3	0
53	850	10	10000	3	1	0	3	0
55	851	10	10000	3	1	0	3	0
53	852	10	10000	3	1	0	3	0
51	853	10	10000	3	1	0	3	0
49	854	10	10000	3	1	0	3	0
48	855	10	10000	3	1	0	3	0
46	856	10	10000	3	1	0	3	0
45	857	10	10000	3	1	0	3	0
47	858	10	10000	3	1	0	3	0
54	859	10	10000	3	1	0	3	0
57	860	10	10000	3	1	0	3	0
57	861	10	10000	3	1	0	3	0
56	862	10	10000	3	1	0	3	0
56	863	10	10000	3	1	0	3	0
57	864	10	10000	3	1	0	3	0
55	865	10	10000	3	1	0	3	0
54	866	10	10000	3	1	0	3	0
56	867	10	10000	3	1	0	3	0
60	868	10	10000	3	1	0	3	0
59	869	10	10000	3	1	0	3	0
65	870	10	10000	3	1	0	3	0
66	871	10	10000	3	1	0	3	0
68	872	10	10000	3	1	0	3	0
67	873	10	10000	3	1	0	3	0
66	874	10	10000	3	1	0	3	0
64	875	10	10000	3	1	0	3	0
61	876	10	10000	3	1	0	3	0
60	877	10	10000	3	1	0	3	0
58	878	10	10000	3	1	0	3	0
56	879	10	10000	3	1	0	3	0
53	880	10	10000	3	1	0	3	0
52	881	10	10000	3	1	0	3	0
51	882	10	10000	3	1	0	3	0
51	883	10	10000	3	1	0	3	0
51	884	10	10000	3	1	0	3	0
50	885	10	10000	3	1	0	3	0
50	886	10	10000	3	1	0	3	0
51	887	10	10000	3	1	0	3	0
53	888	10	10000	3	1	0	3	0
52	889	10	10000	3	1	0	3	0
56	890	10	10000	3	1	0	3	0
59	891	10	10000	3	1	0	3	0
58	892	10	10000	3	1	0	3	0
57	893	10	10000	3	1	0	3	0
57	894	10	10000	3	1	0	3	0
56	895	10	10000	3	1	0	3	0
59	896	10	10000	3	1	0	3	0
61	897	10	10000	3	1	0	3	0
58	898	10	10000	3	1	0	3	0
56	899	10	10000	3	1	0	3	0
52	900	10	10000	3	1	0	3	0
49	901	10	10000	3	1	0	3	0
47	902	10	10000	3	1	0	3	0
47	903	10	10000	3	1	0	3	0
48	904	10	10000	3	1	0	3	0
48	905	10	10000	3	1	0	3	0
49	906	10	10000	3	1	0	3	0
47	907	10	10000	3	1	0	3	0
49	908	10	10000	3	1	0	3	0
49	909	10	10000	3	1	0	3	0
51	910	10	10000	3	1	0	3	0
51	911	10	10000	3	1	0	3	0
50	912	10	10000	3	1	0	3	0
51	913	10	10000	3	1	0	3	0
51	914	10	10000	3	1	0	3	0
51	915	10	10000	3	1	0	3	0
50	916	10	10000	3	1	0	3	0
51	917	10	10000	3	1	0	3	0
50	918	10	10000	3	1	0	3	0
48	919	10	10000	3	1	0	3	0
47	920	10	10000	3	1	0	3	0
48	921	10	10000	3	1	0	3	0
48	922	10	10000	3	1	0	3	0
48	923	10	10000	3	1	0	3	0
49	924	10	10000	3	1	0	3	0
49	925	10	10000	3	1	0	3	0
49	926	10	10000	3	1	0	3	0
47	927	10	10000	3	1	0	3	0
47	928	10	10000	3	1	0	3	0
46	929	10	10000	3	1	0	3	0
51	930	10	10000	3	1	0	3	0
50	931	10	10000	3	1	0	3	0
49	932	10	10000	3	1	0	3	0
50	933	10	10000	3	1	0	3	0
49	934	10	10000	3	1	0	3	0
50	935	10	10000	3	1	0	3	0
51	936	10	10000	3	1	0	3	0
52	937	10	10000	3	1	0	3	0
52	938	10	10000	3	1	0	3	0
55	939	10	10000	3	1	0	3	0
54	940	10	10000	3	1	0	3	0
54	941	10	10000	3	1	0	3	0
55	942	10	10000	3	1	0	3	0
55	943	10	10000	3	1	0	3	0
56	944	10	10000	3	1	0	3	0
56	945	10	10000	3	1	0	3	0
55	946	10	10000	3	1	0	3	0
53	947	10	10000	3	1	0	3	0
55	948	10	10000	3	1	0	3	0
56	949	10	10000	3	1	0	3	0
57	950	10	10000	3	1	0	3	0
57	951	10	10000	3	1	0	3	0
56	952	10	10000	3	1	0	3	0
55	953	10	10000	3	1	0	3	0
53	954	10	10000	3	1	0	3	0
54	955	10	10000	3	1	0	3	0
53	956	10	10000	3	1	0	3	0
52	957	10	10000	3	1	0	3	0
51	958	10	10000	3	1	0	3	0
51	959	10	10000	3	1	0	3	0
48	960	10	10000	3	1	0	3	0
48	961	10	10000	3	1	0	3	0
51	962	10	10000	3	1	0	3	0
52	963	10	10000	3	1	0	3	0
51	964	10	10000	3	1	0	3	0
51	965	10	10000	3	1	0	3	0
52	966	10	10000	3	1	0	3	0
55	967	10	10000	3	1	0	3	0
57	968	10	10000	3	1	0	3	0
57	969	10	10000	3	1	0	3	0
61	970	10	10000	3	1	0	3	0
59	971	10	10000	3	1	0	3	0
58	972	10	10000	3	1	0	3	0
56	973	10	10000	3	1	0	3	0
56	974	10	10000	3	1	0	3	0
57	975	10	10000	3	1	0	3	0
59	976	10	10000	3	1	0	3	0
59	977	10	10000	3	1	0	3	0
59	978	10	10000	3	1	0	3	0
59	979	10	10000	3	1	0	3	0
58	980	10	10000	3	1	0	3	0
56	981	10	10000	3	1	0	3	0
55	982	10	10000	3	1	0	3	0
57	983	10	10000	3	1	0	3	0
62	984	10	10000	3	1	0	3	0
61	985	10	10000	3	1	0	3	0
59	986	10	10000	3	1	0	3	0
58	987	10	10000	3	1	0	3	0
60	988	10	10000	3	1	0	3	0
62	989	10	10000	3	1	0	3	0
62	990	10	10000	3	1	0	3	0
64	991	10	10000	3	1	0	3	0
67	992	10	10000	3	1	0	3	0
67	993	10	10000	3	1	0	3	0
66	994	10	10000	3	1	0	3	0
65	995	10	10000	3	1	0	3	0
64	996	10	10000	3	1	0	3	0
71	997	10	10000	3	1	0	3	0
75	998	10	10000	3	1	0	3	0
72	999	10	10000	3	1	0	3	0
70	1000	10	10000	3	1	0	3	0
70	1001	10	10000	3	1	0	3	0
26	1	0	10000	4	1	0	4	0
26	2	0	10000	4	1	0	4	0
27	3	0	10000	4	1	0	4	0
28	4	0	10000	4	1	0	4	0
27	5	0	10000	4	1	0	4	0
25	6	0	10000	4	1	0	4	0
25	7	0	10000	4	1	0	4	0
25	8	0	10000	4	1	0	4	0
25	9	0	10000	4	1	0	4	0
24	10	0	10000	4	1	0	4	0
23	11	0	10000	4	1	0	4	0
22	12	0	10000	4	1	0	4	0
21	13	0	10000	4	1	0	4	0
22	14	0	10000	4	1	0	4	0
24	15	0	10000	4	1	0	4	0
23	16	0	10000	4	1	0	4	0
23	17	0	10000	4	1	0	4	0
22	18	0	10000	4	1	0	4	0
23	19	0	10000	4	1	0	4	0
26	20	0	10000	4	1	0	4	0
25	21	0	10000	4	1	0	4	0
28	22	0	10000	4	1	0	4	0
30	23	0	10000	4	1	0	4	0
30	24	0	10000	4	1	0	4	0
26	25	0	10000	4	1	0	4	0
26	26	0	10000	4	1	0	4	0
26	27	0	10000	4	1	0	4	0
27	28	0	10000	4	1	0	4	0
26	29	0	10000	4	1	0	4	0
25	30	0	10000	4	1	0	4	0
24	31	0	10000	4	1	0	4	0
22	32	0	10000	4	1	0	4	0
22	33	0	10000	4	1	0	4	0
21	34	0	10000	4	1	0	4	0
22	35	0	10000	4	1	0	4	0
21	36	0	10000	4	1	0	4	0
22	37	0	10000	4	1	0	4	0
21	38	0	10000	4	1	0	4	0
21	39	0	10000	4	1	0	4	0
20	40	0	10000	4	1	0	4	0
20	41	0	10000	4	1	0	4	0
20	42	0	10000	4	1	0	4	0
20	43	0	10000	4	1	0	4	0
20	44	0	10000	4	1	0	4	0
18	45	0	10000	4	1	0	4	0
18	46	0	10000	4	1	0	4	0
19	47	0	10000	4	1	0	4	0
18	48	0	10000	4	1	0	4	0
19	49	0	10000	4	1	0	4	0
23	50	0	10000	4	1	0	4	0
27	51	0	10000	4	1	0	4	0
26	52	0	10000	4	1	0	4	0
26	53	0	10000	4	1	0	4	0
28	54	0	10000	4	1	0	4	0
31	55	0	10000	4	1	0	4	0
32	56	0	10000	4	1	0	4	0
32	57	0	10000	4	1	0	4	0
31	58	0	10000	4	1	0	4	0
32	59	0	10000	4	1	0	4	0
33	60	0	10000	4	1	0	4	0
32	61	0	10000	4	1	0	4	0
32	62	0	10000	4	1	0	4	0
32	63	0	10000	4	1	0	4	0
31	64	0	10000	4	1	0	4	0
29	65	0	10000	4	1	0	4	0
28	66	0	10000	4	1	0	4	0
28	67	0	10000	4	1	0	4	0
27	68	0	10000	4	1	0	4	0
26	69	0	10000	4	1	0	4	0
26	70	0	10000	4	1	0	4	0
26	71	0	10000	4	1	0	4	0
25	72	0	10000	4	1	0	4	0
25	73	0	10000	4	1	0	4	0
23	74	0	10000	4	1	0	4	0
24	75	0	10000	4	1	0	4	0
23	76	0	10000	4	1	0	4	0
24	77	0	10000	4	1	0	4	0
23	78	0	10000	4	1	0	4	0
22	79	0	10000	4	1	0	4	0
21	80	0	10000	4	1	0	4	0
20	81	0	10000	4	1	0	4	0
20	82	0	10000	4	1	0	4	0
20	83	0	10000	4	1	0	4	0
20	84	0	10000	4	1	0	4	0
19	85	0	10000	4	1	0	4	0
19	86	0	10000	4	1	0	4	0
20	87	0	10000	4	1	0	4	0
20	88	0	10000	4	1	0	4	0
20	89	0	10000	4	1	0	4	0
20	90	0	10000	4	1	0	4	0
20	91	0	10000	4	1	0	4	0
21	92	0	10000	4	1	0	4	0
22	93	0	10000	4	1	0	4	0
22	94	0	10000	4	1	0	4	0
24	95	0	10000	4	1	0	4	0
24	96	0	10000	4	1	0	4	0
23	97	0	10000	4	1	0	4	0
23	98	0	10000	4	1	0	4	0
24	99	0	10000	4	1	0	4	0
25	100	0	10000	4	1	0	4	0
27	101	0	10000	4	1	0	4	0
28	102	0	10000	4	1	0	4	0
28	103	0	10000	4	1	0	4	0
29	104	0	10000	4	1	0	4	0
28	105	0	10000	4	1	0	4	0
27	106	0	10000	4	1	0	4	0
27	107	0	10000	4	1	0	4	0
27	108	0	10000	4	1	0	4	0
27	109	0	10000	4	1	0	4	0
27	110	0	10000	4	1	0	4	0
27	111	0	10000	4	1	0	4	0
27	112	0	10000	4	1	0	4	0
26	113	0	10000	4	1	0	4	0
27	114	0	10000	4	1	0	4	0
30	115	0	10000	4	1	0	4	0
30	116	0	10000	4	1	0	4	0
31	117	0	10000	4	1	0	4	0
29	118	0	10000	4	1	0	4	0
28	119	0	10000	4	1	0	4	0
27	120	0	10000	4	1	0	4	0
27	121	0	10000	4	1	0	4	0
27	122	0	10000	4	1	0	4	0
27	123	0	10000	4	1	0	4	0
26	124	0	10000	4	1	0	4	0
24	125	0	10000	4	1	0	4	0
23	126	0	10000	4	1	0	4	0
22	127	0	10000	4	1	0	4	0
22	128	0	10000	4	1	0	4	0
22	129	0	10000	4	1	0	4	0
22	130	0	10000	4	1	0	4	0
22	131	0	10000	4	1	0	4	0
21	132	0	10000	4	1	0	4	0
23	133	0	10000	4	1	0	4	0
25	134	0	10000	4	1	0	4	0
29	135	0	10000	4	1	0	4	0
32	136	0	10000	4	1	0	4	0
31	137	0	10000	4	1	0	4	0
32	138	0	10000	4	1	0	4	0
34	139	0	10000	4	1	0	4	0
38	140	0	10000	4	1	0	4	0
40	141	0	10000	4	1	0	4	0
41	142	0	10000	4	1	0	4	0
42	143	0	10000	4	1	0	4	0
41	144	0	10000	4	1	0	4	0
38	145	0	10000	4	1	0	4	0
38	146	0	10000	4	1	0	4	0
39	147	0	10000	4	1	0	4	0
37	148	0	10000	4	1	0	4	0
37	149	0	10000	4	1	0	4	0
35	150	0	10000	4	1	0	4	0
35	151	0	10000	4	1	0	4	0
33	152	0	10000	4	1	0	4	0
31	153	0	10000	4	1	0	4	0
30	154	0	10000	4	1	0	4	0
30	155	0	10000	4	1	0	4	0
31	156	0	10000	4	1	0	4	0
30	157	0	10000	4	1	0	4	0
28	158	0	10000	4	1	0	4	0
27	159	0	10000	4	1	0	4	0
27	160	0	10000	4	1	0	4	0
27	161	0	10000	4	1	0	4	0
28	162	0	10000	4	1	0	4	0
29	163	0	10000	4	1	0	4	0
29	164	0	10000	4	1	0	4	0
26	165	0	10000	4	1	0	4	0
25	166	0	10000	4	1	0	4	0
25	167	0	10000	4	1	0	4	0
27	168	0	10000	4	1	0	4	0
28	169	0	10000	4	1	0	4	0
29	170	0	10000	4	1	0	4	0
28	171	0	10000	4	1	0	4	0
28	172	0	10000	4	1	0	4	0
28	173	0	10000	4	1	0	4	0
28	174	0	10000	4	1	0	4	0
29	175	0	10000	4	1	0	4	0
29	176	0	10000	4	1	0	4	0
30	177	0	10000	4	1	0	4	0
32	178	0	10000	4	1	0	4	0
34	179	0	10000	4	1	0	4	0
35	180	0	10000	4	1	0	4	0
34	181	0	10000	4	1	0	4	0
34	182	0	10000	4	1	0	4	0
34	183	0	10000	4	1	0	4	0
34	184	0	10000	4	1	0	4	0
34	185	0	10000	4	1	0	4	0
36	186	0	10000	4	1	0	4	0
39	187	0	10000	4	1	0	4	0
42	188	0	10000	4	1	0	4	0
46	189	0	10000	4	1	0	4	0
48	190	0	10000	4	1	0	4	0
51	191	0	10000	4	1	0	4	0
49	192	0	10000	4	1	0	4	0
49	193	0	10000	4	1	0	4	0
49	194	0	10000	4	1	0	4	0
52	195	0	10000	4	1	0	4	0
56	196	0	10000	4	1	0	4	0
57	197	0	10000	4	1	0	4	0
57	198	0	10000	4	1	0	4	0
58	199	0	10000	4	1	0	4	0
57	200	0	10000	4	1	0	4	0
58	201	0	10000	4	1	0	4	0
59	202	0	10000	4	1	0	4	0
57	203	0	10000	4	1	0	4	0
57	204	0	10000	4	1	0	4	0
54	205	0	10000	4	1	0	4	0
52	206	0	10000	4	1	0	4	0
51	207	0	10000	4	1	0	4	0
50	208	0	10000	4	1	0	4	0
49	209	0	10000	4	1	0	4	0
47	210	0	10000	4	1	0	4	0
46	211	0	10000	4	1	0	4	0
45	212	0	10000	4	1	0	4	0
45	213	0	10000	4	1	0	4	0
44	214	0	10000	4	1	0	4	0
44	215	0	10000	4	1	0	4	0
46	216	0	10000	4	1	0	4	0
46	217	0	10000	4	1	0	4	0
45	218	0	10000	4	1	0	4	0
43	219	0	10000	4	1	0	4	0
41	220	0	10000	4	1	0	4	0
40	221	0	10000	4	1	0	4	0
39	222	0	10000	4	1	0	4	0
39	223	0	10000	4	1	0	4	0
39	224	0	10000	4	1	0	4	0
35	225	0	10000	4	1	0	4	0
33	226	0	10000	4	1	0	4	0
32	227	0	10000	4	1	0	4	0
32	228	0	10000	4	1	0	4	0
32	229	0	10000	4	1	0	4	0
32	230	0	10000	4	1	0	4	0
31	231	0	10000	4	1	0	4	0
30	232	0	10000	4	1	0	4	0
29	233	0	10000	4	1	0	4	0
28	234	0	10000	4	1	0	4	0
30	235	0	10000	4	1	0	4	0
30	236	0	10000	4	1	0	4	0
29	237	0	10000	4	1	0	4	0
28	238	0	10000	4	1	0	4	0
27	239	0	10000	4	1	0	4	0
26	240	0	10000	4	1	0	4	0
26	241	0	10000	4	1	0	4	0
25	242	0	10000	4	1	0	4	0
24	243	0	10000	4	1	0	4	0
24	244	0	10000	4	1	0	4	0
22	245	0	10000	4	1	0	4	0
21	246	0	10000	4	1	0	4	0
20	247	0	10000	4	1	0	4	0
21	248	0	10000	4	1	0	4	0
22	249	0	10000	4	1	0	4	0
23	250	0	10000	4	1	0	4	0
23	251	0	10000	4	1	0	4	0
22	252	0	10000	4	1	0	4	0
22	253	0	10000	4	1	0	4	0
22	254	0	10000	4	1	0	4	0
24	255	0	10000	4	1	0	4	0
24	256	0	10000	4	1	0	4	0
23	257	0	10000	4	1	0	4	0
22	258	0	10000	4	1	0	4	0
22	259	0	10000	4	1	0	4	0
22	260	0	10000	4	1	0	4	0
21	261	0	10000	4	1	0	4	0
20	262	0	10000	4	1	0	4	0
20	263	0	10000	4	1	0	4	0
21	264	0	10000	4	1	0	4	0
20	265	0	10000	4	1	0	4	0
22	266	0	10000	4	1	0	4	0
22	267	0	10000	4	1	0	4	0
23	268	0	10000	4	1	0	4	0
25	269	0	10000	4	1	0	4	0
26	270	0	10000	4	1	0	4	0
26	271	0	10000	4	1	0	4	0
25	272	0	10000	4	1	0	4	0
24	273	0	10000	4	1	0	4	0
23	274	0	10000	4	1	0	4	0
24	275	0	10000	4	1	0	4	0
24	276	0	10000	4	1	0	4	0
22	277	0	10000	4	1	0	4	0
21	278	0	10000	4	1	0	4	0
21	279	0	10000	4	1	0	4	0
22	280	0	10000	4	1	0	4	0
21	281	0	10000	4	1	0	4	0
21	282	0	10000	4	1	0	4	0
23	283	0	10000	4	1	0	4	0
25	284	0	10000	4	1	0	4	0
25	285	0	10000	4	1	0	4	0
24	286	0	10000	4	1	0	4	0
25	287	0	10000	4	1	0	4	0
26	288	0	10000	4	1	0	4	0
26	289	0	10000	4	1	0	4	0
25	290	0	10000	4	1	0	4	0
24	291	0	10000	4	1	0	4	0
23	292	0	10000	4	1	0	4	0
22	293	0	10000	4	1	0	4	0
23	294	0	10000	4	1	0	4	0
25	295	0	10000	4	1	0	4	0
27	296	0	10000	4	1	0	4	0
26	297	0	10000	4	1	0	4	0
25	298	0	10000	4	1	0	4	0
24	299	0	10000	4	1	0	4	0
23	300	0	10000	4	1	0	4	0
22	301	0	10000	4	1	0	4	0
22	302	0	10000	4	1	0	4	0
24	303	0	10000	4	1	0	4	0
25	304	0	10000	4	1	0	4	0
22	305	0	10000	4	1	0	4	0
21	306	0	10000	4	1	0	4	0
21	307	0	10000	4	1	0	4	0
21	308	0	10000	4	1	0	4	0
20	309	0	10000	4	1	0	4	0
19	310	0	10000	4	1	0	4	0
20	311	0	10000	4	1	0	4	0
18	312	0	10000	4	1	0	4	0
18	313	0	10000	4	1	0	4	0
17	314	0	10000	4	1	0	4	0
18	315	0	10000	4	1	0	4	0
20	316	0	10000	4	1	0	4	0
19	317	0	10000	4	1	0	4	0
17	318	0	10000	4	1	0	4	0
17	319	0	10000	4	1	0	4	0
17	320	0	10000	4	1	0	4	0
17	321	0	10000	4	1	0	4	0
18	322	0	10000	4	1	0	4	0
19	323	0	10000	4	1	0	4	0
19	324	0	10000	4	1	0	4	0
18	325	0	10000	4	1	0	4	0
19	326	0	10000	4	1	0	4	0
20	327	0	10000	4	1	0	4	0
20	328	0	10000	4	1	0	4	0
20	329	0	10000	4	1	0	4	0
20	330	0	10000	4	1	0	4	0
19	331	0	10000	4	1	0	4	0
18	332	0	10000	4	1	0	4	0
17	333	0	10000	4	1	0	4	0
18	334	0	10000	4	1	0	4	0
22	335	0	10000	4	1	0	4	0
24	336	0	10000	4	1	0	4	0
22	337	0	10000	4	1	0	4	0
22	338	0	10000	4	1	0	4	0
22	339	0	10000	4	1	0	4	0
21	340	0	10000	4	1	0	4	0
22	341	0	10000	4	1	0	4	0
23	342	0	10000	4	1	0	4	0
24	343	0	10000	4	1	0	4	0
25	344	0	10000	4	1	0	4	0
24	345	0	10000	4	1	0	4	0
22	346	0	10000	4	1	0	4	0
23	347	0	10000	4	1	0	4	0
24	348	0	10000	4	1	0	4	0
24	349	0	10000	4	1	0	4	0
25	350	0	10000	4	1	0	4	0
26	351	0	10000	4	1	0	4	0
26	352	0	10000	4	1	0	4	0
27	353	0	10000	4	1	0	4	0
25	354	0	10000	4	1	0	4	0
29	355	0	10000	4	1	0	4	0
33	356	0	10000	4	1	0	4	0
34	357	0	10000	4	1	0	4	0
33	358	0	10000	4	1	0	4	0
32	359	0	10000	4	1	0	4	0
31	360	0	10000	4	1	0	4	0
30	361	0	10000	4	1	0	4	0
30	362	0	10000	4	1	0	4	0
30	363	0	10000	4	1	0	4	0
31	364	0	10000	4	1	0	4	0
28	365	0	10000	4	1	0	4	0
28	366	0	10000	4	1	0	4	0
27	367	0	10000	4	1	0	4	0
26	368	0	10000	4	1	0	4	0
26	369	0	10000	4	1	0	4	0
25	370	0	10000	4	1	0	4	0
24	371	0	10000	4	1	0	4	0
24	372	0	10000	4	1	0	4	0
24	373	0	10000	4	1	0	4	0
23	374	0	10000	4	1	0	4	0
25	375	0	10000	4	1	0	4	0
26	376	0	10000	4	1	0	4	0
25	377	0	10000	4	1	0	4	0
24	378	0	10000	4	1	0	4	0
23	379	0	10000	4	1	0	4	0
22	380	0	10000	4	1	0	4	0
22	381	0	10000	4	1	0	4	0
22	382	0	10000	4	1	0	4	0
21	383	0	10000	4	1	0	4	0
22	384	0	10000	4	1	0	4	0
20	385	0	10000	4	1	0	4	0
19	386	0	10000	4	1	0	4	0
18	387	0	10000	4	1	0	4	0
18	388	0	10000	4	1	0	4	0
18	389	0	10000	4	1	0	4	0
20	390	0	10000	4	1	0	4	0
23	391	0	10000	4	1	0	4	0
24	392	0	10000	4	1	0	4	0
22	393	0	10000	4	1	0	4	0
21	394	0	10000	4	1	0	4	0
22	395	0	10000	4	1	0	4	0
22	396	0	10000	4	1	0	4	0
22	397	0	10000	4	1	0	4	0
23	398	0	10000	4	1	0	4	0
24	399	0	10000	4	1	0	4	0
23	400	0	10000	4	1	0	4	0
23	401	0	10000	4	1	0	4	0
23	402	0	10000	4	1	0	4	0
23	403	0	10000	4	1	0	4	0
24	404	0	10000	4	1	0	4	0
22	405	0	10000	4	1	0	4	0
21	406	0	10000	4	1	0	4	0
21	407	0	10000	4	1	0	4	0
20	408	0	10000	4	1	0	4	0
20	409	0	10000	4	1	0	4	0
20	410	0	10000	4	1	0	4	0
19	411	0	10000	4	1	0	4	0
18	412	0	10000	4	1	0	4	0
17	413	0	10000	4	1	0	4	0
16	414	0	10000	4	1	0	4	0
18	415	0	10000	4	1	0	4	0
18	416	0	10000	4	1	0	4	0
17	417	0	10000	4	1	0	4	0
17	418	0	10000	4	1	0	4	0
18	419	0	10000	4	1	0	4	0
18	420	0	10000	4	1	0	4	0
18	421	0	10000	4	1	0	4	0
20	422	0	10000	4	1	0	4	0
22	423	0	10000	4	1	0	4	0
22	424	0	10000	4	1	0	4	0
20	425	0	10000	4	1	0	4	0
19	426	0	10000	4	1	0	4	0
19	427	0	10000	4	1	0	4	0
19	428	0	10000	4	1	0	4	0
18	429	0	10000	4	1	0	4	0
18	430	0	10000	4	1	0	4	0
19	431	0	10000	4	1	0	4	0
21	432	0	10000	4	1	0	4	0
23	433	0	10000	4	1	0	4	0
24	434	0	10000	4	1	0	4	0
24	435	0	10000	4	1	0	4	0
25	436	0	10000	4	1	0	4	0
25	437	0	10000	4	1	0	4	0
26	438	0	10000	4	1	0	4	0
27	439	0	10000	4	1	0	4	0
28	440	0	10000	4	1	0	4	0
28	441	0	10000	4	1	0	4	0
28	442	0	10000	4	1	0	4	0
29	443	0	10000	4	1	0	4	0
29	444	0	10000	4	1	0	4	0
31	445	0	10000	4	1	0	4	0
33	446	0	10000	4	1	0	4	0
32	447	0	10000	4	1	0	4	0
32	448	0	10000	4	1	0	4	0
32	449	0	10000	4	1	0	4	0
33	450	0	10000	4	1	0	4	0
34	451	0	10000	4	1	0	4	0
33	452	0	10000	4	1	0	4	0
32	453	0	10000	4	1	0	4	0
31	454	0	10000	4	1	0	4	0
31	455	0	10000	4	1	0	4	0
31	456	0	10000	4	1	0	4	0
30	457	0	10000	4	1	0	4	0
30	458	0	10000	4	1	0	4	0
29	459	0	10000	4	1	0	4	0
29	460	0	10000	4	1	0	4	0
27	461	0	10000	4	1	0	4	0
27	462	0	10000	4	1	0	4	0
26	463	0	10000	4	1	0	4	0
25	464	0	10000	4	1	0	4	0
24	465	0	10000	4	1	0	4	0
23	466	0	10000	4	1	0	4	0
23	467	0	10000	4	1	0	4	0
25	468	0	10000	4	1	0	4	0
24	469	0	10000	4	1	0	4	0
23	470	0	10000	4	1	0	4	0
23	471	0	10000	4	1	0	4	0
22	472	0	10000	4	1	0	4	0
22	473	0	10000	4	1	0	4	0
22	474	0	10000	4	1	0	4	0
23	475	0	10000	4	1	0	4	0
27	476	0	10000	4	1	0	4	0
25	477	0	10000	4	1	0	4	0
24	478	0	10000	4	1	0	4	0
24	479	0	10000	4	1	0	4	0
23	480	0	10000	4	1	0	4	0
23	481	0	10000	4	1	0	4	0
24	482	0	10000	4	1	0	4	0
25	483	0	10000	4	1	0	4	0
25	484	0	10000	4	1	0	4	0
24	485	0	10000	4	1	0	4	0
22	486	0	10000	4	1	0	4	0
23	487	0	10000	4	1	0	4	0
25	488	0	10000	4	1	0	4	0
24	489	0	10000	4	1	0	4	0
25	490	0	10000	4	1	0	4	0
24	491	0	10000	4	1	0	4	0
25	492	0	10000	4	1	0	4	0
27	493	0	10000	4	1	0	4	0
27	494	0	10000	4	1	0	4	0
28	495	0	10000	4	1	0	4	0
29	496	0	10000	4	1	0	4	0
27	497	0	10000	4	1	0	4	0
27	498	0	10000	4	1	0	4	0
29	499	0	10000	4	1	0	4	0
30	500	0	10000	4	1	0	4	0
31	501	0	10000	4	1	0	4	1
32	502	0	10000	4	1	0	4	1
32	503	0	10000	4	1	0	4	1
33	504	0	10000	4	1	0	4	1
31	505	0	10000	4	1	0	4	1
31	506	0	10000	4	1	0	4	1
34	507	0	10000	4	1	0	4	1
37	508	0	10000	4	1	0	4	1
37	509	0	10000	4	1	0	4	1
35	510	0	10000	4	1	0	4	1
34	511	0	10000	4	1	0	4	1
32	512	0	10000	4	1	0	4	1
32	513	0	10000	4	1	0	4	1
31	514	0	10000	4	1	0	4	1
32	515	0	10000	4	1	0	4	1
31	516	0	10000	4	1	0	4	1
30	517	0	10000	4	1	0	4	1
30	518	0	10000	4	1	0	4	1
28	519	0	10000	4	1	0	4	1
27	520	0	10000	4	1	0	4	1
26	521	0	10000	4	1	0	4	1
25	522	0	10000	4	1	0	4	1
24	523	0	10000	4	1	0	4	1
24	524	0	10000	4	1	0	4	1
23	525	0	10000	4	1	0	4	1
21	526	0	10000	4	1	0	4	1
21	527	0	10000	4	1	0	4	1
23	528	0	10000	4	1	0	4	1
26	529	0	10000	4	1	0	4	1
31	530	0	10000	4	1	0	4	1
34	531	0	10000	4	1	0	4	1
34	532	0	10000	4	1	0	4	1
32	533	0	10000	4	1	0	4	1
33	534	0	10000	4	1	0	4	1
35	535	0	10000	4	1	0	4	1
35	536	0	10000	4	1	0	4	1
34	537	0	10000	4	1	0	4	1
34	538	0	10000	4	1	0	4	1
35	539	0	10000	4	1	0	4	1
36	540	0	10000	4	1	0	4	1
37	541	0	10000	4	1	0	4	1
37	542	0	10000	4	1	0	4	1
37	543	0	10000	4	1	0	4	1
35	544	0	10000	4	1	0	4	1
34	545	0	10000	4	1	0	4	1
35	546	0	10000	4	1	0	4	1
34	547	0	10000	4	1	0	4	1
33	548	0	10000	4	1	0	4	1
33	549	0	10000	4	1	0	4	1
33	550	0	10000	4	1	0	4	1
33	551	0	10000	4	1	0	4	0
31	552	0	10000	4	1	0	4	0
31	553	0	10000	4	1	0	4	0
29	554	0	10000	4	1	0	4	0
31	555	0	10000	4	1	0	4	0
32	556	0	10000	4	1	0	4	0
31	557	0	10000	4	1	0	4	0
30	558	0	10000	4	1	0	4	0
30	559	0	10000	4	1	0	4	0
31	560	0	10000	4	1	0	4	0
30	561	0	10000	4	1	0	4	0
30	562	0	10000	4	1	0	4	0
30	563	0	10000	4	1	0	4	0
29	564	0	10000	4	1	0	4	0
28	565	0	10000	4	1	0	4	0
27	566	0	10000	4	1	0	4	0
27	567	0	10000	4	1	0	4	0
26	568	0	10000	4	1	0	4	0
25	569	0	10000	4	1	0	4	0
24	570	0	10000	4	1	0	4	0
26	571	0	10000	4	1	0	4	0
25	572	0	10000	4	1	0	4	0
26	573	0	10000	4	1	0	4	0
25	574	0	10000	4	1	0	4	0
26	575	0	10000	4	1	0	4	0
30	576	0	10000	4	1	0	4	0
32	577	0	10000	4	1	0	4	0
32	578	0	10000	4	1	0	4	0
34	579	0	10000	4	1	0	4	0
35	580	0	10000	4	1	0	4	0
36	581	0	10000	4	1	0	4	0
38	582	0	10000	4	1	0	4	0
49	583	0	10000	4	1	0	4	0
76	584	0	10000	4	1	0	4	0
106	585	0	10000	4	1	0	4	0
119	586	0	10000	4	1	0	4	0
118	587	0	10000	4	1	0	4	0
115	588	0	10000	4	1	0	4	0
117	589	0	10000	4	1	0	4	0
128	590	0	10000	4	1	0	4	0
144	591	0	10000	4	1	0	4	0
146	592	0	10000	4	1	0	4	0
161	593	0	10000	4	1	0	4	0
164	594	0	10000	4	1	0	4	0
164	595	0	10000	4	1	0	4	0
169	596	0	10000	4	1	0	4	0
182	597	0	10000	4	1	0	4	0
190	598	0	10000	4	1	0	4	0
185	599	0	10000	4	1	0	4	0
195	600	0	10000	4	1	0	4	0
194	601	0	10000	4	1	0	4	0
211	602	0	10000	4	1	0	4	0
240	603	0	10000	4	1	0	4	0
252	604	0	10000	4	1	0	4	0
247	605	0	10000	4	1	0	4	0
265	606	0	10000	4	1	0	4	0
299	607	0	10000	4	1	0	4	0
324	608	0	10000	4	1	0	4	0
321	609	0	10000	4	1	0	4	0
330	610	0	10000	4	1	0	4	0
327	611	0	10000	4	1	0	4	0
321	612	0	10000	4	1	0	4	0
325	613	0	10000	4	1	0	4	0
318	614	0	10000	4	1	0	4	0
317	615	0	10000	4	1	0	4	0
327	616	0	10000	4	1	0	4	0
334	617	0	10000	4	1	0	4	0
344	618	0	10000	4	1	0	4	0
351	619	0	10000	4	1	0	4	0
340	620	0	10000	4	1	0	4	0
330	620	0	10000	4	1	0	4	0
317	621	0	10000	4	1	0	4	0
315	623	0	10000	4	1	0	4	0
318	624	0	10000	4	1	0	4	0
320	625	0	10000	4	1	0	4	0
323	626	0	10000	4	1	0	4	0
326	627	0	10000	4	1	0	4	0
327	628	0	10000	4	1	0	4	0
326	629	0	10000	4	1	0	4	0
329	630	0	10000	4	1	0	4	0
331	630	0	10000	4	1	0	4	0
332	631	0	10000	4	1	0	4	0
332	633	0	10000	4	1	0	4	0
331	634	0	10000	4	1	0	4	0
329	635	0	10000	4	1	0	4	0
324	636	0	10000	4	1	0	4	0
316	637	0	10000	4	1	0	4	0
306	638	0	10000	4	1	0	4	0
293	639	0	10000	4	1	0	4	0
280	640	0	10000	4	1	0	4	0
270	640	0	10000	4	1	0	4	0
263	641	0	10000	4	1	0	4	0
257	643	0	10000	4	1	0	4	0
253	644	0	10000	4	1	0	4	0
250	645	0	10000	4	1	0	4	0
250	646	0	10000	4	1	0	4	0
250	647	0	10000	4	1	0	4	0
251	648	0	10000	4	1	0	4	0
256	649	0	10000	4	1	0	4	0
262	650	0	10000	4	1	0	4	0
267	650	0	10000	4	1	0	4	0
273	651	0	10000	4	1	0	4	0
281	653	0	10000	4	1	0	4	0
288	654	0	10000	4	1	0	4	0
297	655	0	10000	4	1	0	4	0
305	656	0	10000	4	1	0	4	0
314	657	0	10000	4	1	0	4	0
325	658	0	10000	4	1	0	4	0
335	659	0	10000	4	1	0	4	0
346	660	0	10000	4	1	0	4	0
358	660	0	10000	4	1	0	4	0
372	661	0	10000	4	1	0	4	0
384	663	0	10000	4	1	0	4	0
394	664	0	10000	4	1	0	4	0
401	665	0	10000	4	1	0	4	0
405	666	0	10000	4	1	0	4	0
407	667	0	10000	4	1	0	4	0
409	668	0	10000	4	1	0	4	0
409	669	0	10000	4	1	0	4	0
407	670	0	10000	4	1	0	4	0
404	670	0	10000	4	1	0	4	0
401	671	0	10000	4	1	0	4	0
396	673	0	10000	4	1	0	4	0
393	674	0	10000	4	1	0	4	0
390	675	0	10000	4	1	0	4	0
385	676	0	10000	4	1	0	4	0
377	677	0	10000	4	1	0	4	0
369	678	0	10000	4	1	0	4	0
357	679	0	10000	4	1	0	4	0
347	680	0	10000	4	1	0	4	0
336	680	0	10000	4	1	0	4	0
326	681	0	10000	4	1	0	4	0
316	683	0	10000	4	1	0	4	0
306	684	0	10000	4	1	0	4	0
296	685	0	10000	4	1	0	4	0
288	686	0	10000	4	1	0	4	0
276	687	0	10000	4	1	0	4	0
264	688	0	10000	4	1	0	4	0
253	689	0	10000	4	1	0	4	0
243	690	0	10000	4	1	0	4	0
232	690	0	10000	4	1	0	4	0
224	691	0	10000	4	1	0	4	0
216	693	0	10000	4	1	0	4	0
207	694	0	10000	4	1	0	4	0
201	695	0	10000	4	1	0	4	0
195	696	0	10000	4	1	0	4	0
187	697	0	10000	4	1	0	4	0
182	698	0	10000	4	1	0	4	0
180	699	0	10000	4	1	0	4	0
177	700	0	10000	4	1	0	4	0
176	700	0	10000	4	1	0	4	0
174	701	0	10000	4	1	0	4	0
172	703	0	10000	4	1	0	4	0
170	704	0	10000	4	1	0	4	0
166	705	0	10000	4	1	0	4	0
164	706	0	10000	4	1	0	4	0
163	707	0	10000	4	1	0	4	0
163	708	0	10000	4	1	0	4	0
163	709	0	10000	4	1	0	4	0
163	710	0	10000	4	1	0	4	0
164	710	0	10000	4	1	0	4	0
162	711	0	10000	4	1	0	4	0
160	713	0	10000	4	1	0	4	0
159	714	0	10000	4	1	0	4	0
159	715	0	10000	4	1	0	4	0
158	716	0	10000	4	1	0	4	0
155	717	0	10000	4	1	0	4	0
153	718	0	10000	4	1	0	4	0
149	719	0	10000	4	1	0	4	0
147	720	0	10000	4	1	0	4	0
141	720	0	10000	4	1	0	4	0
136	721	0	10000	4	1	0	4	0
131	723	0	10000	4	1	0	4	0
132	724	0	10000	4	1	0	4	0
133	725	0	10000	4	1	0	4	0
134	726	0	10000	4	1	0	4	0
136	727	0	10000	4	1	0	4	0
138	728	0	10000	4	1	0	4	0
138	729	0	10000	4	1	0	4	0
139	730	0	10000	4	1	0	4	0
139	730	0	10000	4	1	0	4	0
138	731	0	10000	4	1	0	4	0
137	733	0	10000	4	1	0	4	0
134	734	0	10000	4	1	0	4	0
134	735	0	10000	4	1	0	4	0
133	736	0	10000	4	1	0	4	0
128	737	0	10000	4	1	0	4	0
124	738	0	10000	4	1	0	4	0
120	739	0	10000	4	1	0	4	0
117	740	0	10000	4	1	0	4	0
114	740	0	10000	4	1	0	4	0
112	741	0	10000	4	1	0	4	0
111	743	0	10000	4	1	0	4	0
110	744	0	10000	4	1	0	4	0
108	745	0	10000	4	1	0	4	0
106	746	0	10000	4	1	0	4	0
105	747	0	10000	4	1	0	4	0
104	748	0	10000	4	1	0	4	0
103	749	0	10000	4	1	0	4	0
103	750	0	10000	4	1	0	4	0
103	750	0	10000	4	1	0	4	0
100	751	0	10000	4	1	0	4	0
96	753	0	10000	4	1	0	4	0
92	754	0	10000	4	1	0	4	0
90	755	0	10000	4	1	0	4	0
90	756	0	10000	4	1	0	4	0
88	757	0	10000	4	1	0	4	0
87	758	0	10000	4	1	0	4	0
86	759	0	10000	4	1	0	4	0
85	760	0	10000	4	1	0	4	0
82	760	0	10000	4	1	0	4	0
80	761	0	10000	4	1	0	4	0
79	763	0	10000	4	1	0	4	0
80	764	0	10000	4	1	0	4	0
79	765	0	10000	4	1	0	4	0
77	766	0	10000	4	1	0	4	0
77	767	0	10000	4	1	0	4	0
77	768	0	10000	4	1	0	4	0
75	769	0	10000	4	1	0	4	0
72	770	0	10000	4	1	0	4	0
70	770	0	10000	4	1	0	4	0
68	771	0	10000	4	1	0	4	0
67	773	0	10000	4	1	0	4	0
65	774	0	10000	4	1	0	4	0
63	775	0	10000	4	1	0	4	0
64	776	0	10000	4	1	0	4	0
63	777	0	10000	4	1	0	4	0
61	778	0	10000	4	1	0	4	0
58	779	0	10000	4	1	0	4	0
55	780	0	10000	4	1	0	4	0
55	780	0	10000	4	1	0	4	0
55	781	0	10000	4	1	0	4	0
55	783	0	10000	4	1	0	4	0
54	784	0	10000	4	1	0	4	0
50	785	0	10000	4	1	0	4	0
49	786	0	10000	4	1	0	4	0
48	787	0	10000	4	1	0	4	0
47	788	0	10000	4	1	0	4	0
46	789	0	10000	4	1	0	4	0
45	790	0	10000	4	1	0	4	0
44	790	0	10000	4	1	0	4	0
44	791	0	10000	4	1	0	4	0
44	793	0	10000	4	1	0	4	0
44	794	0	10000	4	1	0	4	0
48	795	0	10000	4	1	0	4	0
48	796	0	10000	4	1	0	4	0
45	797	0	10000	4	1	0	4	0
45	798	0	10000	4	1	0	4	0
44	799	0	10000	4	1	0	4	0
42	800	0	10000	4	1	0	4	0
42	800	0	10000	4	1	0	4	0
42	801	0	10000	4	1	0	4	0
41	803	0	10000	4	1	0	4	0
42	804	0	10000	4	1	0	4	0
40	805	0	10000	4	1	0	4	0
39	806	0	10000	4	1	0	4	0
39	807	0	10000	4	1	0	4	0
38	808	0	10000	4	1	0	4	0
38	809	0	10000	4	1	0	4	0
38	810	0	10000	4	1	0	4	0
37	810	0	10000	4	1	0	4	0
37	811	0	10000	4	1	0	4	0
34	813	0	10000	4	1	0	4	0
32	814	0	10000	4	1	0	4	0
33	815	0	10000	4	1	0	4	0
35	816	0	10000	4	1	0	4	0
36	817	0	10000	4	1	0	4	0
36	818	0	10000	4	1	0	4	0
35	819	0	10000	4	1	0	4	0
33	820	0	10000	4	1	0	4	0
34	820	0	10000	4	1	0	4	0
35	821	0	10000	4	1	0	4	0
34	823	0	10000	4	1	0	4	0
34	824	0	10000	4	1	0	4	0
34	825	0	10000	4	1	0	4	0
34	826	0	10000	4	1	0	4	0
32	827	0	10000	4	1	0	4	0
32	828	0	10000	4	1	0	4	0
33	829	0	10000	4	1	0	4	0
35	830	0	10000	4	1	0	4	0
37	830	0	10000	4	1	0	4	0
37	831	0	10000	4	1	0	4	0
35	833	0	10000	4	1	0	4	0
33	834	0	10000	4	1	0	4	0
34	835	0	10000	4	1	0	4	0
35	836	0	10000	4	1	0	4	0
33	837	0	10000	4	1	0	4	0
34	838	0	10000	4	1	0	4	0
33	839	0	10000	4	1	0	4	0
33	840	0	10000	4	1	0	4	0
32	840	0	10000	4	1	0	4	0
33	841	0	10000	4	1	0	4	0
33	843	0	10000	4	1	0	4	0
33	844	0	10000	4	1	0	4	0
31	845	0	10000	4	1	0	4	0
29	846	0	10000	4	1	0	4	0
30	847	0	10000	4	1	0	4	0
29	848	0	10000	4	1	0	4	0
30	849	0	10000	4	1	0	4	0
32	850	0	10000	4	1	0	4	0
35	850	0	10000	4	1	0	4	0
36	851	0	10000	4	1	0	4	0
34	853	0	10000	4	1	0	4	0
35	854	0	10000	4	1	0	4	0
37	855	0	10000	4	1	0	4	0
38	856	0	10000	4	1	0	4	0
37	857	0	10000	4	1	0	4	0
35	858	0	10000	4	1	0	4	0
34	859	0	10000	4	1	0	4	0
33	860	0	10000	4	1	0	4	0
33	860	0	10000	4	1	0	4	0
33	861	0	10000	4	1	0	4	0
33	863	0	10000	4	1	0	4	0
32	864	0	10000	4	1	0	4	0
30	865	0	10000	4	1	0	4	0
28	866	0	10000	4	1	0	4	0
27	867	0	10000	4	1	0	4	0
29	868	0	10000	4	1	0	4	0
30	869	0	10000	4	1	0	4	0
30	870	0	10000	4	1	0	4	0
31	870	0	10000	4	1	0	4	0
30	871	0	10000	4	1	0	4	0
30	873	0	10000	4	1	0	4	0
30	874	0	10000	4	1	0	4	0
31	875	0	10000	4	1	0	4	0
32	876	0	10000	4	1	0	4	0
31	877	0	10000	4	1	0	4	0
30	878	0	10000	4	1	0	4	0
29	879	0	10000	4	1	0	4	0
29	880	0	10000	4	1	0	4	0
29	880	0	10000	4	1	0	4	0
31	881	0	10000	4	1	0	4	0
31	883	0	10000	4	1	0	4	0
31	884	0	10000	4	1	0	4	0
34	885	0	10000	4	1	0	4	0
36	886	0	10000	4	1	0	4	0
36	887	0	10000	4	1	0	4	0
38	888	0	10000	4	1	0	4	0
39	889	0	10000	4	1	0	4	0
39	890	0	10000	4	1	0	4	0
39	890	0	10000	4	1	0	4	0
40	891	0	10000	4	1	0	4	0
42	893	0	10000	4	1	0	4	0
40	894	0	10000	4	1	0	4	0
41	895	0	10000	4	1	0	4	0
44	896	0	10000	4	1	0	4	0
44	897	0	10000	4	1	0	4	0
44	898	0	10000	4	1	0	4	0
46	899	0	10000	4	1	0	4	0
47	900	0	10000	4	1	0	4	0
51	900	0	10000	4	1	0	4	0
53	901	0	10000	4	1	0	4	0
52	903	0	10000	4	1	0	4	0
53	904	0	10000	4	1	0	4	0
50	905	0	10000	4	1	0	4	0
48	906	0	10000	4	1	0	4	0
48	907	0	10000	4	1	0	4	0
46	908	0	10000	4	1	0	4	0
46	909	0	10000	4	1	0	4	0
48	910	0	10000	4	1	0	4	0
48	910	0	10000	4	1	0	4	0
46	911	0	10000	4	1	0	4	0
44	913	0	10000	4	1	0	4	0
44	914	0	10000	4	1	0	4	0
44	915	0	10000	4	1	0	4	0
44	916	0	10000	4	1	0	4	0
42	917	0	10000	4	1	0	4	0
40	918	0	10000	4	1	0	4	0
39	919	0	10000	4	1	0	4	0
39	920	0	10000	4	1	0	4	0
38	920	0	10000	4	1	0	4	0
38	921	0	10000	4	1	0	4	0
39	923	0	10000	4	1	0	4	0
39	924	0	10000	4	1	0	4	0
38	925	0	10000	4	1	0	4	0
37	926	0	10000	4	1	0	4	0
36	927	0	10000	4	1	0	4	0
36	928	0	10000	4	1	0	4	0
36	929	0	10000	4	1	0	4	0
34	930	0	10000	4	1	0	4	0
34	930	0	10000	4	1	0	4	0
32	931	0	10000	4	1	0	4	0
32	933	0	10000	4	1	0	4	0
30	934	0	10000	4	1	0	4	0
33	935	0	10000	4	1	0	4	0
34	936	0	10000	4	1	0	4	0
35	937	0	10000	4	1	0	4	0
35	938	0	10000	4	1	0	4	0
34	939	0	10000	4	1	0	4	0
35	940	0	10000	4	1	0	4	0
39	940	0	10000	4	1	0	4	0
43	941	0	10000	4	1	0	4	0
45	943	0	10000	4	1	0	4	0
45	944	0	10000	4	1	0	4	0
43	945	0	10000	4	1	0	4	0
41	946	0	10000	4	1	0	4	0
44	947	0	10000	4	1	0	4	0
45	948	0	10000	4	1	0	4	0
46	949	0	10000	4	1	0	4	0
48	950	0	10000	4	1	0	4	0
49	950	0	10000	4	1	0	4	0
51	951	0	10000	4	1	0	4	0
57	953	0	10000	4	1	0	4	0
60	954	0	10000	4	1	0	4	0
62	955	0	10000	4	1	0	4	0
62	956	0	10000	4	1	0	4	0
62	957	0	10000	4	1	0	4	0
62	958	0	10000	4	1	0	4	0
59	959	0	10000	4	1	0	4	0
57	960	0	10000	4	1	0	4	0
56	960	0	10000	4	1	0	4	0
55	961	0	10000	4	1	0	4	0
55	963	0	10000	4	1	0	4	0
54	964	0	10000	4	1	0	4	0
51	965	0	10000	4	1	0	4	0
51	966	0	10000	4	1	0	4	0
49	967	0	10000	4	1	0	4	0
47	968	0	10000	4	1	0	4	0
47	969	0	10000	4	1	0	4	0
47	970	0	10000	4	1	0	4	0
46	970	0	10000	4	1	0	4	0
46	971	0	10000	4	1	0	4	0
45	973	0	10000	4	1	0	4	0
42	974	0	10000	4	1	0	4	0
42	975	0	10000	4	1	0	4	0
42	976	0	10000	4	1	0	4	0
40	977	0	10000	4	1	0	4	0
38	978	0	10000	4	1	0	4	0
37	979	0	10000	4	1	0	4	0
36	980	0	10000	4	1	0	4	0
35	980	0	10000	4	1	0	4	0
34	981	0	10000	4	1	0	4	0
34	983	0	10000	4	1	0	4	0
36	984	0	10000	4	1	0	4	0
34	985	0	10000	4	1	0	4	0
33	986	0	10000	4	1	0	4	0
33	987	0	10000	4	1	0	4	0
33	988	0	10000	4	1	0	4	0
34	989	0	10000	4	1	0	4	0
35	990	0	10000	4	1	0	4	0
37	990	0	10000	4	1	0	4	0
37	991	0	10000	4	1	0	4	0
37	993	0	10000	4	1	0	4	0
36	994	0	10000	4	1	0	4	0
36	995	0	10000	4	1	0	4	0
35	996	0	10000	4	1	0	4	0
35	997	0	10000	4	1	0	4	0
35	998	0	10000	4	1	0	4	0
35	999	0	10000	4	1	0	4	0
35	1000	0	10000	4	1	0	4	0
35	1000	0	10000	4	1	0	4	0
35	1001	0	10000	4	1	0	4	0
22	2	1	10000	5	1	0	5	0
21	3	1	10000	5	1	0	5	0
21	4	1	10000	5	1	0	5	0
20	5	1	10000	5	1	0	5	0
19	6	1	10000	5	1	0	5	0
19	7	1	10000	5	1	0	5	0
19	8	1	10000	5	1	0	5	0
18	9	1	10000	5	1	0	5	0
19	10	1	10000	5	1	0	5	0
18	11	1	10000	5	1	0	5	0
16	12	1	10000	5	1	0	5	0
15	13	1	10000	5	1	0	5	0
16	14	1	10000	5	1	0	5	0
17	15	1	10000	5	1	0	5	0
17	16	1	10000	5	1	0	5	0
17	17	1	10000	5	1	0	5	0
16	18	1	10000	5	1	0	5	0
16	19	1	10000	5	1	0	5	0
14	20	1	10000	5	1	0	5	0
16	21	1	10000	5	1	0	5	0
18	21	1	10000	5	1	0	5	0
16	22	1	10000	5	1	0	5	0
17	24	1	10000	5	1	0	5	0
19	25	1	10000	5	1	0	5	0
21	26	1	10000	5	1	0	5	0
20	27	1	10000	5	1	0	5	0
21	28	1	10000	5	1	0	5	0
23	29	1	10000	5	1	0	5	0
25	30	1	10000	5	1	0	5	0
26	31	1	10000	5	1	0	5	0
25	31	1	10000	5	1	0	5	0
26	32	1	10000	5	1	0	5	0
25	34	1	10000	5	1	0	5	0
25	35	1	10000	5	1	0	5	0
25	36	1	10000	5	1	0	5	0
24	37	1	10000	5	1	0	5	0
25	38	1	10000	5	1	0	5	0
26	39	1	10000	5	1	0	5	0
27	40	1	10000	5	1	0	5	0
30	41	1	10000	5	1	0	5	0
31	41	1	10000	5	1	0	5	0
31	42	1	10000	5	1	0	5	0
32	44	1	10000	5	1	0	5	0
31	45	1	10000	5	1	0	5	0
30	46	1	10000	5	1	0	5	0
28	47	1	10000	5	1	0	5	0
27	48	1	10000	5	1	0	5	0
28	49	1	10000	5	1	0	5	0
30	50	1	10000	5	1	0	5	0
28	51	1	10000	5	1	0	5	0
26	51	1	10000	5	1	0	5	0
27	52	1	10000	5	1	0	5	0
28	54	1	10000	5	1	0	5	0
28	55	1	10000	5	1	0	5	0
29	56	1	10000	5	1	0	5	0
29	57	1	10000	5	1	0	5	0
28	58	1	10000	5	1	0	5	0
27	59	1	10000	5	1	0	5	0
26	60	1	10000	5	1	0	5	0
27	61	1	10000	5	1	0	5	0
28	61	1	10000	5	1	0	5	0
27	62	1	10000	5	1	0	5	0
28	64	1	10000	5	1	0	5	0
28	65	1	10000	5	1	0	5	0
28	66	1	10000	5	1	0	5	0
27	67	1	10000	5	1	0	5	0
26	68	1	10000	5	1	0	5	0
26	69	1	10000	5	1	0	5	0
27	70	1	10000	5	1	0	5	0
26	71	1	10000	5	1	0	5	0
24	71	1	10000	5	1	0	5	0
24	72	1	10000	5	1	0	5	0
24	74	1	10000	5	1	0	5	0
25	75	1	10000	5	1	0	5	0
25	76	1	10000	5	1	0	5	0
26	77	1	10000	5	1	0	5	0
27	78	1	10000	5	1	0	5	0
26	79	1	10000	5	1	0	5	0
26	80	1	10000	5	1	0	5	0
25	81	1	10000	5	1	0	5	0
26	81	1	10000	5	1	0	5	0
25	82	1	10000	5	1	0	5	0
25	84	1	10000	5	1	0	5	0
23	85	1	10000	5	1	0	5	0
23	86	1	10000	5	1	0	5	0
22	87	1	10000	5	1	0	5	0
24	88	1	10000	5	1	0	5	0
25	89	1	10000	5	1	0	5	0
25	90	1	10000	5	1	0	5	0
24	91	1	10000	5	1	0	5	0
24	91	1	10000	5	1	0	5	0
23	92	1	10000	5	1	0	5	0
23	94	1	10000	5	1	0	5	0
22	95	1	10000	5	1	0	5	0
21	96	1	10000	5	1	0	5	0
21	97	1	10000	5	1	0	5	0
21	98	1	10000	5	1	0	5	0
21	99	1	10000	5	1	0	5	0
20	100	1	10000	5	1	0	5	0
20	101	1	10000	5	1	0	5	0
22	101	1	10000	5	1	0	5	0
22	102	1	10000	5	1	0	5	0
23	104	1	10000	5	1	0	5	0
23	105	1	10000	5	1	0	5	0
24	106	1	10000	5	1	0	5	0
23	107	1	10000	5	1	0	5	0
23	108	1	10000	5	1	0	5	0
26	109	1	10000	5	1	0	5	0
26	110	1	10000	5	1	0	5	0
27	111	1	10000	5	1	0	5	0
25	111	1	10000	5	1	0	5	0
26	112	1	10000	5	1	0	5	0
25	114	1	10000	5	1	0	5	0
26	115	1	10000	5	1	0	5	0
25	116	1	10000	5	1	0	5	0
25	117	1	10000	5	1	0	5	0
25	118	1	10000	5	1	0	5	0
26	119	1	10000	5	1	0	5	0
28	120	1	10000	5	1	0	5	0
30	121	1	10000	5	1	0	5	0
32	121	1	10000	5	1	0	5	0
31	122	1	10000	5	1	0	5	0
29	124	1	10000	5	1	0	5	0
29	125	1	10000	5	1	0	5	0
28	126	1	10000	5	1	0	5	0
27	127	1	10000	5	1	0	5	0
26	128	1	10000	5	1	0	5	0
26	129	1	10000	5	1	0	5	0
26	130	1	10000	5	1	0	5	0
25	131	1	10000	5	1	0	5	0
21	131	1	10000	5	1	0	5	0
21	132	1	10000	5	1	0	5	0
21	134	1	10000	5	1	0	5	0
21	135	1	10000	5	1	0	5	0
23	136	1	10000	5	1	0	5	0
22	137	1	10000	5	1	0	5	0
21	138	1	10000	5	1	0	5	0
21	139	1	10000	5	1	0	5	0
21	140	1	10000	5	1	0	5	0
22	141	1	10000	5	1	0	5	0
24	141	1	10000	5	1	0	5	0
23	142	1	10000	5	1	0	5	0
23	144	1	10000	5	1	0	5	0
24	145	1	10000	5	1	0	5	0
23	146	1	10000	5	1	0	5	0
23	147	1	10000	5	1	0	5	0
24	148	1	10000	5	1	0	5	0
24	149	1	10000	5	1	0	5	0
24	150	1	10000	5	1	0	5	0
24	151	1	10000	5	1	0	5	0
22	151	1	10000	5	1	0	5	0
22	152	1	10000	5	1	0	5	0
22	154	1	10000	5	1	0	5	0
21	155	1	10000	5	1	0	5	0
22	156	1	10000	5	1	0	5	0
22	157	1	10000	5	1	0	5	0
21	158	1	10000	5	1	0	5	0
22	159	1	10000	5	1	0	5	0
20	160	1	10000	5	1	0	5	0
20	161	1	10000	5	1	0	5	0
21	161	1	10000	5	1	0	5	0
20	162	1	10000	5	1	0	5	0
19	164	1	10000	5	1	0	5	0
19	165	1	10000	5	1	0	5	0
18	166	1	10000	5	1	0	5	0
17	167	1	10000	5	1	0	5	0
17	168	1	10000	5	1	0	5	0
19	169	1	10000	5	1	0	5	0
20	170	1	10000	5	1	0	5	0
20	171	1	10000	5	1	0	5	0
18	171	1	10000	5	1	0	5	0
19	172	1	10000	5	1	0	5	0
20	174	1	10000	5	1	0	5	0
23	175	1	10000	5	1	0	5	0
25	176	1	10000	5	1	0	5	0
25	177	1	10000	5	1	0	5	0
24	178	1	10000	5	1	0	5	0
24	179	1	10000	5	1	0	5	0
24	180	1	10000	5	1	0	5	0
25	181	1	10000	5	1	0	5	0
28	181	1	10000	5	1	0	5	0
27	182	1	10000	5	1	0	5	0
26	184	1	10000	5	1	0	5	0
26	185	1	10000	5	1	0	5	0
26	186	1	10000	5	1	0	5	0
27	187	1	10000	5	1	0	5	0
26	188	1	10000	5	1	0	5	0
27	189	1	10000	5	1	0	5	0
26	190	1	10000	5	1	0	5	0
24	191	1	10000	5	1	0	5	0
23	191	1	10000	5	1	0	5	0
24	192	1	10000	5	1	0	5	0
23	194	1	10000	5	1	0	5	0
23	195	1	10000	5	1	0	5	0
23	196	1	10000	5	1	0	5	0
25	197	1	10000	5	1	0	5	0
24	198	1	10000	5	1	0	5	0
25	199	1	10000	5	1	0	5	0
26	200	1	10000	5	1	0	5	0
28	201	1	10000	5	1	0	5	0
27	201	1	10000	5	1	0	5	0
26	202	1	10000	5	1	0	5	0
27	204	1	10000	5	1	0	5	0
28	205	1	10000	5	1	0	5	0
29	206	1	10000	5	1	0	5	0
29	207	1	10000	5	1	0	5	0
30	208	1	10000	5	1	0	5	0
30	209	1	10000	5	1	0	5	0
30	210	1	10000	5	1	0	5	0
29	211	1	10000	5	1	0	5	0
28	211	1	10000	5	1	0	5	0
27	212	1	10000	5	1	0	5	0
27	214	1	10000	5	1	0	5	0
28	215	1	10000	5	1	0	5	0
26	216	1	10000	5	1	0	5	0
25	217	1	10000	5	1	0	5	0
24	218	1	10000	5	1	0	5	0
25	219	1	10000	5	1	0	5	0
26	220	1	10000	5	1	0	5	0
27	221	1	10000	5	1	0	5	0
29	221	1	10000	5	1	0	5	0
31	222	1	10000	5	1	0	5	0
30	224	1	10000	5	1	0	5	0
29	225	1	10000	5	1	0	5	0
29	226	1	10000	5	1	0	5	0
27	227	1	10000	5	1	0	5	0
26	228	1	10000	5	1	0	5	0
28	229	1	10000	5	1	0	5	0
27	230	1	10000	5	1	0	5	0
27	231	1	10000	5	1	0	5	0
25	231	1	10000	5	1	0	5	0
24	232	1	10000	5	1	0	5	0
24	234	1	10000	5	1	0	5	0
26	235	1	10000	5	1	0	5	0
28	236	1	10000	5	1	0	5	0
28	237	1	10000	5	1	0	5	0
27	238	1	10000	5	1	0	5	0
28	239	1	10000	5	1	0	5	0
28	240	1	10000	5	1	0	5	0
28	241	1	10000	5	1	0	5	0
30	241	1	10000	5	1	0	5	0
29	242	1	10000	5	1	0	5	0
28	244	1	10000	5	1	0	5	0
28	245	1	10000	5	1	0	5	0
28	246	1	10000	5	1	0	5	0
28	247	1	10000	5	1	0	5	0
29	248	1	10000	5	1	0	5	0
30	249	1	10000	5	1	0	5	0
29	250	1	10000	5	1	0	5	0
28	251	1	10000	5	1	0	5	0
27	251	1	10000	5	1	0	5	0
27	252	1	10000	5	1	0	5	0
30	254	1	10000	5	1	0	5	0
31	255	1	10000	5	1	0	5	0
30	256	1	10000	5	1	0	5	0
30	257	1	10000	5	1	0	5	0
29	258	1	10000	5	1	0	5	0
27	259	1	10000	5	1	0	5	0
26	260	1	10000	5	1	0	5	0
26	261	1	10000	5	1	0	5	0
26	261	1	10000	5	1	0	5	0
28	262	1	10000	5	1	0	5	0
31	264	1	10000	5	1	0	5	0
32	265	1	10000	5	1	0	5	0
32	266	1	10000	5	1	0	5	0
32	267	1	10000	5	1	0	5	0
32	268	1	10000	5	1	0	5	0
32	269	1	10000	5	1	0	5	0
32	270	1	10000	5	1	0	5	0
31	271	1	10000	5	1	0	5	0
32	271	1	10000	5	1	0	5	0
33	272	1	10000	5	1	0	5	0
33	274	1	10000	5	1	0	5	0
34	275	1	10000	5	1	0	5	0
33	276	1	10000	5	1	0	5	0
34	277	1	10000	5	1	0	5	0
33	278	1	10000	5	1	0	5	0
31	279	1	10000	5	1	0	5	0
29	280	1	10000	5	1	0	5	0
29	281	1	10000	5	1	0	5	0
31	281	1	10000	5	1	0	5	0
31	282	1	10000	5	1	0	5	0
30	284	1	10000	5	1	0	5	0
30	285	1	10000	5	1	0	5	0
29	286	1	10000	5	1	0	5	0
29	287	1	10000	5	1	0	5	0
30	288	1	10000	5	1	0	5	0
32	289	1	10000	5	1	0	5	0
36	290	1	10000	5	1	0	5	0
37	291	1	10000	5	1	0	5	0
36	291	1	10000	5	1	0	5	0
36	292	1	10000	5	1	0	5	0
37	294	1	10000	5	1	0	5	0
37	295	1	10000	5	1	0	5	0
38	296	1	10000	5	1	0	5	0
38	297	1	10000	5	1	0	5	0
38	298	1	10000	5	1	0	5	0
36	299	1	10000	5	1	0	5	0
34	300	1	10000	5	1	0	5	0
34	301	1	10000	5	1	0	5	0
36	301	1	10000	5	1	0	5	0
34	302	1	10000	5	1	0	5	0
33	304	1	10000	5	1	0	5	0
32	305	1	10000	5	1	0	5	0
31	306	1	10000	5	1	0	5	0
30	307	1	10000	5	1	0	5	0
29	308	1	10000	5	1	0	5	0
29	309	1	10000	5	1	0	5	0
31	310	1	10000	5	1	0	5	0
30	311	1	10000	5	1	0	5	0
28	311	1	10000	5	1	0	5	0
29	312	1	10000	5	1	0	5	0
28	314	1	10000	5	1	0	5	0
27	315	1	10000	5	1	0	5	0
26	316	1	10000	5	1	0	5	0
27	317	1	10000	5	1	0	5	0
28	318	1	10000	5	1	0	5	0
26	319	1	10000	5	1	0	5	0
28	320	1	10000	5	1	0	5	0
32	321	1	10000	5	1	0	5	0
33	321	1	10000	5	1	0	5	0
32	322	1	10000	5	1	0	5	0
33	324	1	10000	5	1	0	5	0
33	325	1	10000	5	1	0	5	0
35	326	1	10000	5	1	0	5	0
34	327	1	10000	5	1	0	5	0
35	328	1	10000	5	1	0	5	0
36	329	1	10000	5	1	0	5	0
37	330	1	10000	5	1	0	5	0
35	331	1	10000	5	1	0	5	0
32	331	1	10000	5	1	0	5	0
32	332	1	10000	5	1	0	5	0
31	334	1	10000	5	1	0	5	0
31	335	1	10000	5	1	0	5	0
30	336	1	10000	5	1	0	5	0
29	337	1	10000	5	1	0	5	0
29	338	1	10000	5	1	0	5	0
28	339	1	10000	5	1	0	5	0
26	340	1	10000	5	1	0	5	0
29	341	1	10000	5	1	0	5	0
30	341	1	10000	5	1	0	5	0
30	342	1	10000	5	1	0	5	0
30	344	1	10000	5	1	0	5	0
29	345	1	10000	5	1	0	5	0
30	346	1	10000	5	1	0	5	0
28	347	1	10000	5	1	0	5	0
28	348	1	10000	5	1	0	5	0
28	349	1	10000	5	1	0	5	0
28	350	1	10000	5	1	0	5	0
27	351	1	10000	5	1	0	5	0
27	351	1	10000	5	1	0	5	0
28	352	1	10000	5	1	0	5	0
30	354	1	10000	5	1	0	5	0
30	355	1	10000	5	1	0	5	0
29	356	1	10000	5	1	0	5	0
29	357	1	10000	5	1	0	5	0
28	358	1	10000	5	1	0	5	0
27	359	1	10000	5	1	0	5	0
25	360	1	10000	5	1	0	5	0
25	361	1	10000	5	1	0	5	0
26	361	1	10000	5	1	0	5	0
26	362	1	10000	5	1	0	5	0
26	364	1	10000	5	1	0	5	0
24	365	1	10000	5	1	0	5	0
25	366	1	10000	5	1	0	5	0
23	367	1	10000	5	1	0	5	0
22	368	1	10000	5	1	0	5	0
23	369	1	10000	5	1	0	5	0
23	370	1	10000	5	1	0	5	0
22	371	1	10000	5	1	0	5	0
22	371	1	10000	5	1	0	5	0
22	372	1	10000	5	1	0	5	0
21	374	1	10000	5	1	0	5	0
22	375	1	10000	5	1	0	5	0
23	376	1	10000	5	1	0	5	0
24	377	1	10000	5	1	0	5	0
24	378	1	10000	5	1	0	5	0
23	379	1	10000	5	1	0	5	0
24	380	1	10000	5	1	0	5	0
27	381	1	10000	5	1	0	5	0
31	381	1	10000	5	1	0	5	0
32	382	1	10000	5	1	0	5	0
30	384	1	10000	5	1	0	5	0
30	385	1	10000	5	1	0	5	0
30	386	1	10000	5	1	0	5	0
31	387	1	10000	5	1	0	5	0
31	388	1	10000	5	1	0	5	0
31	389	1	10000	5	1	0	5	0
31	390	1	10000	5	1	0	5	0
30	391	1	10000	5	1	0	5	0
28	391	1	10000	5	1	0	5	0
29	392	1	10000	5	1	0	5	0
30	394	1	10000	5	1	0	5	0
29	395	1	10000	5	1	0	5	0
27	396	1	10000	5	1	0	5	0
27	397	1	10000	5	1	0	5	0
26	398	1	10000	5	1	0	5	0
25	399	1	10000	5	1	0	5	0
24	400	1	10000	5	1	0	5	0
24	401	1	10000	5	1	0	5	0
25	401	1	10000	5	1	0	5	0
24	402	1	10000	5	1	0	5	0
25	404	1	10000	5	1	0	5	0
25	405	1	10000	5	1	0	5	0
24	406	1	10000	5	1	0	5	0
23	407	1	10000	5	1	0	5	0
23	408	1	10000	5	1	0	5	0
23	409	1	10000	5	1	0	5	0
23	410	1	10000	5	1	0	5	0
22	411	1	10000	5	1	0	5	0
22	411	1	10000	5	1	0	5	0
22	412	1	10000	5	1	0	5	0
24	414	1	10000	5	1	0	5	0
22	415	1	10000	5	1	0	5	0
23	416	1	10000	5	1	0	5	0
25	417	1	10000	5	1	0	5	0
26	418	1	10000	5	1	0	5	0
26	419	1	10000	5	1	0	5	0
25	420	1	10000	5	1	0	5	0
26	421	1	10000	5	1	0	5	0
28	421	1	10000	5	1	0	5	0
26	422	1	10000	5	1	0	5	0
27	424	1	10000	5	1	0	5	0
27	425	1	10000	5	1	0	5	0
28	426	1	10000	5	1	0	5	0
29	427	1	10000	5	1	0	5	0
30	428	1	10000	5	1	0	5	0
32	429	1	10000	5	1	0	5	0
34	430	1	10000	5	1	0	5	0
34	431	1	10000	5	1	0	5	0
32	431	1	10000	5	1	0	5	0
31	432	1	10000	5	1	0	5	0
30	434	1	10000	5	1	0	5	0
29	435	1	10000	5	1	0	5	0
29	436	1	10000	5	1	0	5	0
29	437	1	10000	5	1	0	5	0
29	438	1	10000	5	1	0	5	0
29	439	1	10000	5	1	0	5	0
27	440	1	10000	5	1	0	5	0
28	441	1	10000	5	1	0	5	0
29	441	1	10000	5	1	0	5	0
27	442	1	10000	5	1	0	5	0
28	444	1	10000	5	1	0	5	0
29	445	1	10000	5	1	0	5	0
29	446	1	10000	5	1	0	5	0
29	447	1	10000	5	1	0	5	0
28	448	1	10000	5	1	0	5	0
29	449	1	10000	5	1	0	5	0
29	450	1	10000	5	1	0	5	0
26	451	1	10000	5	1	0	5	0
24	451	1	10000	5	1	0	5	0
25	452	1	10000	5	1	0	5	0
24	454	1	10000	5	1	0	5	0
26	455	1	10000	5	1	0	5	0
27	456	1	10000	5	1	0	5	0
26	457	1	10000	5	1	0	5	0
26	458	1	10000	5	1	0	5	0
25	459	1	10000	5	1	0	5	0
24	460	1	10000	5	1	0	5	0
24	461	1	10000	5	1	0	5	0
23	461	1	10000	5	1	0	5	0
22	462	1	10000	5	1	0	5	0
22	464	1	10000	5	1	0	5	0
22	465	1	10000	5	1	0	5	0
24	466	1	10000	5	1	0	5	0
25	467	1	10000	5	1	0	5	0
28	468	1	10000	5	1	0	5	0
27	469	1	10000	5	1	0	5	0
27	470	1	10000	5	1	0	5	0
26	471	1	10000	5	1	0	5	0
24	471	1	10000	5	1	0	5	0
23	472	1	10000	5	1	0	5	0
23	474	1	10000	5	1	0	5	0
25	475	1	10000	5	1	0	5	0
25	476	1	10000	5	1	0	5	0
25	477	1	10000	5	1	0	5	0
25	478	1	10000	5	1	0	5	0
23	479	1	10000	5	1	0	5	0
22	480	1	10000	5	1	0	5	0
24	481	1	10000	5	1	0	5	0
27	481	1	10000	5	1	0	5	0
26	482	1	10000	5	1	0	5	0
25	484	1	10000	5	1	0	5	0
25	485	1	10000	5	1	0	5	0
24	486	1	10000	5	1	0	5	0
24	487	1	10000	5	1	0	5	0
25	488	1	10000	5	1	0	5	0
26	489	1	10000	5	1	0	5	0
26	490	1	10000	5	1	0	5	0
24	491	1	10000	5	1	0	5	0
24	491	1	10000	5	1	0	5	0
23	492	1	10000	5	1	0	5	0
23	494	1	10000	5	1	0	5	0
25	495	1	10000	5	1	0	5	0
26	496	1	10000	5	1	0	5	0
26	497	1	10000	5	1	0	5	0
26	498	1	10000	5	1	0	5	0
28	499	1	10000	5	1	0	5	0
28	500	1	10000	5	1	0	5	0
29	501	1	10000	5	1	0	5	0
29	502	1	10000	5	1	0	5	1
30	503	1	10000	5	1	0	5	1
28	504	1	10000	5	1	0	5	1
28	505	1	10000	5	1	0	5	1
31	506	1	10000	5	1	0	5	1
31	507	1	10000	5	1	0	5	1
32	508	1	10000	5	1	0	5	1
32	509	1	10000	5	1	0	5	1
33	510	1	10000	5	1	0	5	1
30	511	1	10000	5	1	0	5	1
29	511	1	10000	5	1	0	5	1
30	512	1	10000	5	1	0	5	1
29	514	1	10000	5	1	0	5	1
28	515	1	10000	5	1	0	5	1
27	516	1	10000	5	1	0	5	1
26	517	1	10000	5	1	0	5	1
25	518	1	10000	5	1	0	5	1
23	519	1	10000	5	1	0	5	1
23	520	1	10000	5	1	0	5	1
24	521	1	10000	5	1	0	5	1
26	521	1	10000	5	1	0	5	1
25	522	1	10000	5	1	0	5	1
24	524	1	10000	5	1	0	5	1
23	525	1	10000	5	1	0	5	1
22	526	1	10000	5	1	0	5	1
23	527	1	10000	5	1	0	5	1
23	528	1	10000	5	1	0	5	1
23	529	1	10000	5	1	0	5	1
23	530	1	10000	5	1	0	5	1
23	531	1	10000	5	1	0	5	1
22	531	1	10000	5	1	0	5	1
23	532	1	10000	5	1	0	5	1
24	534	1	10000	5	1	0	5	1
25	535	1	10000	5	1	0	5	1
24	536	1	10000	5	1	0	5	1
23	537	1	10000	5	1	0	5	1
23	538	1	10000	5	1	0	5	1
23	539	1	10000	5	1	0	5	1
25	540	1	10000	5	1	0	5	1
26	541	1	10000	5	1	0	5	1
27	541	1	10000	5	1	0	5	1
30	542	1	10000	5	1	0	5	1
32	544	1	10000	5	1	0	5	1
33	545	1	10000	5	1	0	5	1
32	546	1	10000	5	1	0	5	1
31	547	1	10000	5	1	0	5	1
31	548	1	10000	5	1	0	5	1
30	549	1	10000	5	1	0	5	1
30	550	1	10000	5	1	0	5	1
28	551	1	10000	5	1	0	5	1
26	551	1	10000	5	1	0	5	0
26	552	1	10000	5	1	0	5	0
24	554	1	10000	5	1	0	5	0
25	555	1	10000	5	1	0	5	0
26	556	1	10000	5	1	0	5	0
29	557	1	10000	5	1	0	5	0
29	558	1	10000	5	1	0	5	0
29	559	1	10000	5	1	0	5	0
26	560	1	10000	5	1	0	5	0
27	561	1	10000	5	1	0	5	0
29	561	1	10000	5	1	0	5	0
27	562	1	10000	5	1	0	5	0
27	564	1	10000	5	1	0	5	0
26	565	1	10000	5	1	0	5	0
25	566	1	10000	5	1	0	5	0
26	567	1	10000	5	1	0	5	0
27	568	1	10000	5	1	0	5	0
27	569	1	10000	5	1	0	5	0
26	570	1	10000	5	1	0	5	0
25	571	1	10000	5	1	0	5	0
23	571	1	10000	5	1	0	5	0
24	572	1	10000	5	1	0	5	0
22	574	1	10000	5	1	0	5	0
22	575	1	10000	5	1	0	5	0
22	576	1	10000	5	1	0	5	0
23	577	1	10000	5	1	0	5	0
25	578	1	10000	5	1	0	5	0
25	579	1	10000	5	1	0	5	0
24	580	1	10000	5	1	0	5	0
31	581	1	10000	5	1	0	5	0
40	581	1	10000	5	1	0	5	0
41	582	1	10000	5	1	0	5	0
62	584	1	10000	5	1	0	5	0
92	585	1	10000	5	1	0	5	0
102	586	1	10000	5	1	0	5	0
104	587	1	10000	5	1	0	5	0
104	588	1	10000	5	1	0	5	0
110	589	1	10000	5	1	0	5	0
123	590	1	10000	5	1	0	5	0
136	591	1	10000	5	1	0	5	0
139	591	1	10000	5	1	0	5	0
163	592	1	10000	5	1	0	5	0
172	594	1	10000	5	1	0	5	0
177	595	1	10000	5	1	0	5	0
192	596	1	10000	5	1	0	5	0
213	597	1	10000	5	1	0	5	0
236	598	1	10000	5	1	0	5	0
293	599	1	10000	5	1	0	5	0
299	600	1	10000	5	1	0	5	0
329	601	1	10000	5	1	0	5	0
363	601	1	10000	5	1	0	5	0
363	602	1	10000	5	1	0	5	0
349	604	1	10000	5	1	0	5	0
343	605	1	10000	5	1	0	5	0
355	606	1	10000	5	1	0	5	0
369	607	1	10000	5	1	0	5	0
362	608	1	10000	5	1	0	5	0
348	609	1	10000	5	1	0	5	0
336	610	1	10000	5	1	0	5	0
332	611	1	10000	5	1	0	5	0
334	611	1	10000	5	1	0	5	0
396	612	1	10000	5	1	0	5	0
485	614	1	10000	5	1	0	5	0
518	615	1	10000	5	1	0	5	0
509	616	1	10000	5	1	0	5	0
504	617	1	10000	5	1	0	5	0
507	618	1	10000	5	1	0	5	0
502	619	1	10000	5	1	0	5	0
490	620	1	10000	5	1	0	5	0
470	621	1	10000	5	1	0	5	0
455	621	1	10000	5	1	0	5	0
447	622	1	10000	5	1	0	5	0
446	624	1	10000	5	1	0	5	0
449	625	1	10000	5	1	0	5	0
454	626	1	10000	5	1	0	5	0
460	627	1	10000	5	1	0	5	0
466	628	1	10000	5	1	0	5	0
472	629	1	10000	5	1	0	5	0
476	630	1	10000	5	1	0	5	0
475	631	1	10000	5	1	0	5	0
471	631	1	10000	5	1	0	5	0
467	632	1	10000	5	1	0	5	0
463	634	1	10000	5	1	0	5	0
459	635	1	10000	5	1	0	5	0
453	636	1	10000	5	1	0	5	0
443	637	1	10000	5	1	0	5	0
429	638	1	10000	5	1	0	5	0
414	639	1	10000	5	1	0	5	0
397	640	1	10000	5	1	0	5	0
381	641	1	10000	5	1	0	5	0
366	641	1	10000	5	1	0	5	0
351	642	1	10000	5	1	0	5	0
338	644	1	10000	5	1	0	5	0
330	645	1	10000	5	1	0	5	0
327	646	1	10000	5	1	0	5	0
326	647	1	10000	5	1	0	5	0
328	648	1	10000	5	1	0	5	0
333	649	1	10000	5	1	0	5	0
340	650	1	10000	5	1	0	5	0
350	651	1	10000	5	1	0	5	0
361	651	1	10000	5	1	0	5	0
373	652	1	10000	5	1	0	5	0
384	654	1	10000	5	1	0	5	0
395	655	1	10000	5	1	0	5	0
406	656	1	10000	5	1	0	5	0
417	657	1	10000	5	1	0	5	0
426	658	1	10000	5	1	0	5	0
435	659	1	10000	5	1	0	5	0
442	660	1	10000	5	1	0	5	0
451	661	1	10000	5	1	0	5	0
457	661	1	10000	5	1	0	5	0
460	662	1	10000	5	1	0	5	0
462	664	1	10000	5	1	0	5	0
460	665	1	10000	5	1	0	5	0
459	666	1	10000	5	1	0	5	0
457	667	1	10000	5	1	0	5	0
458	668	1	10000	5	1	0	5	0
457	669	1	10000	5	1	0	5	0
457	670	1	10000	5	1	0	5	0
458	671	1	10000	5	1	0	5	0
454	671	1	10000	5	1	0	5	0
452	672	1	10000	5	1	0	5	0
449	674	1	10000	5	1	0	5	0
444	675	1	10000	5	1	0	5	0
439	676	1	10000	5	1	0	5	0
433	677	1	10000	5	1	0	5	0
425	678	1	10000	5	1	0	5	0
414	679	1	10000	5	1	0	5	0
398	680	1	10000	5	1	0	5	0
381	681	1	10000	5	1	0	5	0
364	681	1	10000	5	1	0	5	0
347	682	1	10000	5	1	0	5	0
331	684	1	10000	5	1	0	5	0
317	685	1	10000	5	1	0	5	0
302	686	1	10000	5	1	0	5	0
288	687	1	10000	5	1	0	5	0
276	688	1	10000	5	1	0	5	0
264	689	1	10000	5	1	0	5	0
253	690	1	10000	5	1	0	5	0
242	691	1	10000	5	1	0	5	0
232	691	1	10000	5	1	0	5	0
223	692	1	10000	5	1	0	5	0
215	694	1	10000	5	1	0	5	0
209	695	1	10000	5	1	0	5	0
202	696	1	10000	5	1	0	5	0
196	697	1	10000	5	1	0	5	0
191	698	1	10000	5	1	0	5	0
188	699	1	10000	5	1	0	5	0
184	700	1	10000	5	1	0	5	0
182	701	1	10000	5	1	0	5	0
183	701	1	10000	5	1	0	5	0
177	702	1	10000	5	1	0	5	0
171	704	1	10000	5	1	0	5	0
169	705	1	10000	5	1	0	5	0
169	706	1	10000	5	1	0	5	0
168	707	1	10000	5	1	0	5	0
167	708	1	10000	5	1	0	5	0
166	709	1	10000	5	1	0	5	0
164	710	1	10000	5	1	0	5	0
156	711	1	10000	5	1	0	5	0
151	711	1	10000	5	1	0	5	0
150	712	1	10000	5	1	0	5	0
149	714	1	10000	5	1	0	5	0
150	715	1	10000	5	1	0	5	0
150	716	1	10000	5	1	0	5	0
150	717	1	10000	5	1	0	5	0
149	718	1	10000	5	1	0	5	0
147	719	1	10000	5	1	0	5	0
144	720	1	10000	5	1	0	5	0
144	721	1	10000	5	1	0	5	0
143	721	1	10000	5	1	0	5	0
141	722	1	10000	5	1	0	5	0
141	724	1	10000	5	1	0	5	0
140	725	1	10000	5	1	0	5	0
136	726	1	10000	5	1	0	5	0
135	727	1	10000	5	1	0	5	0
133	728	1	10000	5	1	0	5	0
133	729	1	10000	5	1	0	5	0
135	730	1	10000	5	1	0	5	0
135	731	1	10000	5	1	0	5	0
134	731	1	10000	5	1	0	5	0
133	732	1	10000	5	1	0	5	0
131	734	1	10000	5	1	0	5	0
126	735	1	10000	5	1	0	5	0
120	736	1	10000	5	1	0	5	0
116	737	1	10000	5	1	0	5	0
114	738	1	10000	5	1	0	5	0
112	739	1	10000	5	1	0	5	0
109	740	1	10000	5	1	0	5	0
112	741	1	10000	5	1	0	5	0
118	741	1	10000	5	1	0	5	0
121	742	1	10000	5	1	0	5	0
120	744	1	10000	5	1	0	5	0
