value	EMG	Stimulus	EMG_sensitivity	Total_Trial_Nr	practise	acq	probe_nr	Startle_Probe
23	2	10	10000	1	1	0	1	0
23	3	10	10000	1	1	0	1	0
21	4	10	10000	1	1	0	1	0
20	5	10	10000	1	1	0	1	0
23	6	10	10000	1	1	0	1	0
23	7	10	10000	1	1	0	1	0
23	8	10	10000	1	1	0	1	0
23	9	10	10000	1	1	0	1	0
24	10	10	10000	1	1	0	1	0
24	11	10	10000	1	1	0	1	0
23	12	10	10000	1	1	0	1	0
23	13	10	10000	1	1	0	1	0
24	14	10	10000	1	1	0	1	0
22	15	10	10000	1	1	0	1	0
20	16	10	10000	1	1	0	1	0
20	17	10	10000	1	1	0	1	0
21	18	10	10000	1	1	0	1	0
24	19	10	10000	1	1	0	1	0
26	20	10	10000	1	1	0	1	0
25	21	10	10000	1	1	0	1	0
26	22	10	10000	1	1	0	1	0
25	23	10	10000	1	1	0	1	0
24	24	10	10000	1	1	0	1	0
23	25	10	10000	1	1	0	1	0
24	26	10	10000	1	1	0	1	0
27	27	10	10000	1	1	0	1	0
32	28	10	10000	1	1	0	1	0
34	29	10	10000	1	1	0	1	0
36	30	10	10000	1	1	0	1	0
37	31	10	10000	1	1	0	1	0
36	32	10	10000	1	1	0	1	0
38	33	10	10000	1	1	0	1	0
39	34	10	10000	1	1	0	1	0
42	35	10	10000	1	1	0	1	0
43	36	10	10000	1	1	0	1	0
47	37	10	10000	1	1	0	1	0
53	38	10	10000	1	1	0	1	0
59	39	10	10000	1	1	0	1	0
62	40	10	10000	1	1	0	1	0
65	41	10	10000	1	1	0	1	0
68	42	10	10000	1	1	0	1	0
69	43	10	10000	1	1	0	1	0
71	44	10	10000	1	1	0	1	0
73	45	10	10000	1	1	0	1	0
77	46	10	10000	1	1	0	1	0
78	47	10	10000	1	1	0	1	0
78	48	10	10000	1	1	0	1	0
77	49	10	10000	1	1	0	1	0
77	50	10	10000	1	1	0	1	0
77	51	10	10000	1	1	0	1	0
77	52	10	10000	1	1	0	1	0
75	53	10	10000	1	1	0	1	0
74	54	10	10000	1	1	0	1	0
72	55	10	10000	1	1	0	1	0
68	56	10	10000	1	1	0	1	0
65	57	10	10000	1	1	0	1	0
64	58	10	10000	1	1	0	1	0
62	59	10	10000	1	1	0	1	0
60	60	10	10000	1	1	0	1	0
59	61	10	10000	1	1	0	1	0
58	62	10	10000	1	1	0	1	0
56	63	10	10000	1	1	0	1	0
56	64	10	10000	1	1	0	1	0
55	65	10	10000	1	1	0	1	0
58	66	10	10000	1	1	0	1	0
59	67	10	10000	1	1	0	1	0
60	68	10	10000	1	1	0	1	0
60	69	10	10000	1	1	0	1	0
61	70	10	10000	1	1	0	1	0
65	71	10	10000	1	1	0	1	0
67	72	10	10000	1	1	0	1	0
69	73	10	10000	1	1	0	1	0
70	74	10	10000	1	1	0	1	0
72	75	10	10000	1	1	0	1	0
71	76	10	10000	1	1	0	1	0
72	77	10	10000	1	1	0	1	0
74	78	10	10000	1	1	0	1	0
78	79	10	10000	1	1	0	1	0
80	80	10	10000	1	1	0	1	0
81	81	10	10000	1	1	0	1	0
82	82	10	10000	1	1	0	1	0
81	83	10	10000	1	1	0	1	0
80	84	10	10000	1	1	0	1	0
80	85	10	10000	1	1	0	1	0
81	86	10	10000	1	1	0	1	0
80	87	10	10000	1	1	0	1	0
77	88	10	10000	1	1	0	1	0
75	89	10	10000	1	1	0	1	0
73	90	10	10000	1	1	0	1	0
73	91	10	10000	1	1	0	1	0
73	92	10	10000	1	1	0	1	0
73	93	10	10000	1	1	0	1	0
74	94	10	10000	1	1	0	1	0
74	95	10	10000	1	1	0	1	0
71	96	10	10000	1	1	0	1	0
70	97	10	10000	1	1	0	1	0
71	98	10	10000	1	1	0	1	0
72	99	10	10000	1	1	0	1	0
73	100	10	10000	1	1	0	1	0
72	101	10	10000	1	1	0	1	0
72	102	10	10000	1	1	0	1	0
72	103	10	10000	1	1	0	1	0
72	104	10	10000	1	1	0	1	0
73	105	10	10000	1	1	0	1	0
76	106	10	10000	1	1	0	1	0
72	107	10	10000	1	1	0	1	0
69	108	10	10000	1	1	0	1	0
67	109	10	10000	1	1	0	1	0
64	110	10	10000	1	1	0	1	0
63	111	10	10000	1	1	0	1	0
60	112	10	10000	1	1	0	1	0
58	113	10	10000	1	1	0	1	0
56	114	10	10000	1	1	0	1	0
54	115	10	10000	1	1	0	1	0
51	116	10	10000	1	1	0	1	0
48	117	10	10000	1	1	0	1	0
48	118	10	10000	1	1	0	1	0
46	119	10	10000	1	1	0	1	0
44	120	10	10000	1	1	0	1	0
44	121	10	10000	1	1	0	1	0
43	122	10	10000	1	1	0	1	0
41	123	10	10000	1	1	0	1	0
40	124	10	10000	1	1	0	1	0
39	125	10	10000	1	1	0	1	0
38	126	10	10000	1	1	0	1	0
37	127	10	10000	1	1	0	1	0
36	128	10	10000	1	1	0	1	0
37	129	10	10000	1	1	0	1	0
40	130	10	10000	1	1	0	1	0
43	131	10	10000	1	1	0	1	0
44	132	10	10000	1	1	0	1	0
46	133	10	10000	1	1	0	1	0
48	134	10	10000	1	1	0	1	0
50	135	10	10000	1	1	0	1	0
49	136	10	10000	1	1	0	1	0
48	137	10	10000	1	1	0	1	0
47	138	10	10000	1	1	0	1	0
45	139	10	10000	1	1	0	1	0
44	140	10	10000	1	1	0	1	0
43	141	10	10000	1	1	0	1	0
44	142	10	10000	1	1	0	1	0
44	143	10	10000	1	1	0	1	0
47	144	10	10000	1	1	0	1	0
52	145	10	10000	1	1	0	1	0
63	146	10	10000	1	1	0	1	0
73	147	10	10000	1	1	0	1	0
77	148	10	10000	1	1	0	1	0
78	149	10	10000	1	1	0	1	0
80	150	10	10000	1	1	0	1	0
82	151	10	10000	1	1	0	1	0
87	152	10	10000	1	1	0	1	0
94	153	10	10000	1	1	0	1	0
102	154	10	10000	1	1	0	1	0
111	155	10	10000	1	1	0	1	0
116	156	10	10000	1	1	0	1	0
123	157	10	10000	1	1	0	1	0
129	158	10	10000	1	1	0	1	0
135	159	10	10000	1	1	0	1	0
141	160	10	10000	1	1	0	1	0
145	161	10	10000	1	1	0	1	0
149	162	10	10000	1	1	0	1	0
153	163	10	10000	1	1	0	1	0
158	164	10	10000	1	1	0	1	0
160	165	10	10000	1	1	0	1	0
162	166	10	10000	1	1	0	1	0
160	167	10	10000	1	1	0	1	0
157	168	10	10000	1	1	0	1	0
155	169	10	10000	1	1	0	1	0
154	170	10	10000	1	1	0	1	0
154	171	10	10000	1	1	0	1	0
157	172	10	10000	1	1	0	1	0
155	173	10	10000	1	1	0	1	0
152	174	10	10000	1	1	0	1	0
150	175	10	10000	1	1	0	1	0
144	176	10	10000	1	1	0	1	0
140	177	10	10000	1	1	0	1	0
138	178	10	10000	1	1	0	1	0
135	179	10	10000	1	1	0	1	0
132	180	10	10000	1	1	0	1	0
128	181	10	10000	1	1	0	1	0
123	182	10	10000	1	1	0	1	0
118	183	10	10000	1	1	0	1	0
113	184	10	10000	1	1	0	1	0
108	185	10	10000	1	1	0	1	0
106	186	10	10000	1	1	0	1	0
102	187	10	10000	1	1	0	1	0
97	188	10	10000	1	1	0	1	0
94	189	10	10000	1	1	0	1	0
91	190	10	10000	1	1	0	1	0
89	191	10	10000	1	1	0	1	0
88	192	10	10000	1	1	0	1	0
87	193	10	10000	1	1	0	1	0
86	194	10	10000	1	1	0	1	0
84	195	10	10000	1	1	0	1	0
80	196	10	10000	1	1	0	1	0
80	197	10	10000	1	1	0	1	0
80	198	10	10000	1	1	0	1	0
81	199	10	10000	1	1	0	1	0
85	200	10	10000	1	1	0	1	0
88	201	10	10000	1	1	0	1	0
91	202	10	10000	1	1	0	1	0
93	203	10	10000	1	1	0	1	0
95	204	10	10000	1	1	0	1	0
98	205	10	10000	1	1	0	1	0
102	206	10	10000	1	1	0	1	0
106	207	10	10000	1	1	0	1	0
110	208	10	10000	1	1	0	1	0
113	209	10	10000	1	1	0	1	0
118	210	10	10000	1	1	0	1	0
124	211	10	10000	1	1	0	1	0
129	212	10	10000	1	1	0	1	0
135	213	10	10000	1	1	0	1	0
140	214	10	10000	1	1	0	1	0
144	215	10	10000	1	1	0	1	0
147	216	10	10000	1	1	0	1	0
153	217	10	10000	1	1	0	1	0
158	218	10	10000	1	1	0	1	0
163	219	10	10000	1	1	0	1	0
166	220	10	10000	1	1	0	1	0
168	221	10	10000	1	1	0	1	0
171	222	10	10000	1	1	0	1	0
173	223	10	10000	1	1	0	1	0
176	224	10	10000	1	1	0	1	0
178	225	10	10000	1	1	0	1	0
180	226	10	10000	1	1	0	1	0
180	227	10	10000	1	1	0	1	0
180	228	10	10000	1	1	0	1	0
180	229	10	10000	1	1	0	1	0
181	230	10	10000	1	1	0	1	0
181	231	10	10000	1	1	0	1	0
179	232	10	10000	1	1	0	1	0
180	233	10	10000	1	1	0	1	0
179	234	10	10000	1	1	0	1	0
179	235	10	10000	1	1	0	1	0
176	236	10	10000	1	1	0	1	0
173	237	10	10000	1	1	0	1	0
169	238	10	10000	1	1	0	1	0
167	239	10	10000	1	1	0	1	0
164	240	10	10000	1	1	0	1	0
163	241	10	10000	1	1	0	1	0
162	242	10	10000	1	1	0	1	0
160	243	10	10000	1	1	0	1	0
156	244	10	10000	1	1	0	1	0
152	245	10	10000	1	1	0	1	0
148	246	10	10000	1	1	0	1	0
144	247	10	10000	1	1	0	1	0
140	248	10	10000	1	1	0	1	0
136	249	10	10000	1	1	0	1	0
131	250	10	10000	1	1	0	1	0
126	251	10	10000	1	1	0	1	0
122	252	10	10000	1	1	0	1	0
120	253	10	10000	1	1	0	1	0
119	254	10	10000	1	1	0	1	0
116	255	10	10000	1	1	0	1	0
110	256	10	10000	1	1	0	1	0
106	257	10	10000	1	1	0	1	0
103	258	10	10000	1	1	0	1	0
99	259	10	10000	1	1	0	1	0
96	260	10	10000	1	1	0	1	0
94	261	10	10000	1	1	0	1	0
94	262	10	10000	1	1	0	1	0
90	263	10	10000	1	1	0	1	0
86	264	10	10000	1	1	0	1	0
82	265	10	10000	1	1	0	1	0
80	266	10	10000	1	1	0	1	0
80	267	10	10000	1	1	0	1	0
79	268	10	10000	1	1	0	1	0
78	269	10	10000	1	1	0	1	0
75	270	10	10000	1	1	0	1	0
74	271	10	10000	1	1	0	1	0
72	272	10	10000	1	1	0	1	0
69	273	10	10000	1	1	0	1	0
66	274	10	10000	1	1	0	1	0
65	275	10	10000	1	1	0	1	0
64	276	10	10000	1	1	0	1	0
62	277	10	10000	1	1	0	1	0
60	278	10	10000	1	1	0	1	0
58	279	10	10000	1	1	0	1	0
57	280	10	10000	1	1	0	1	0
57	281	10	10000	1	1	0	1	0
57	282	10	10000	1	1	0	1	0
55	283	10	10000	1	1	0	1	0
54	284	10	10000	1	1	0	1	0
51	285	10	10000	1	1	0	1	0
52	286	10	10000	1	1	0	1	0
50	287	10	10000	1	1	0	1	0
48	288	10	10000	1	1	0	1	0
46	289	10	10000	1	1	0	1	0
44	290	10	10000	1	1	0	1	0
42	291	10	10000	1	1	0	1	0
40	292	10	10000	1	1	0	1	0
39	293	10	10000	1	1	0	1	0
38	294	10	10000	1	1	0	1	0
37	295	10	10000	1	1	0	1	0
35	296	10	10000	1	1	0	1	0
33	297	10	10000	1	1	0	1	0
34	298	10	10000	1	1	0	1	0
35	299	10	10000	1	1	0	1	0
33	300	10	10000	1	1	0	1	0
34	301	10	10000	1	1	0	1	0
35	302	10	10000	1	1	0	1	0
35	303	10	10000	1	1	0	1	0
34	304	10	10000	1	1	0	1	0
36	305	10	10000	1	1	0	1	0
38	306	10	10000	1	1	0	1	0
38	307	10	10000	1	1	0	1	0
38	308	10	10000	1	1	0	1	0
40	309	10	10000	1	1	0	1	0
43	310	10	10000	1	1	0	1	0
46	311	10	10000	1	1	0	1	0
48	312	10	10000	1	1	0	1	0
50	313	10	10000	1	1	0	1	0
52	314	10	10000	1	1	0	1	0
53	315	10	10000	1	1	0	1	0
52	316	10	10000	1	1	0	1	0
51	317	10	10000	1	1	0	1	0
51	318	10	10000	1	1	0	1	0
53	319	10	10000	1	1	0	1	0
51	320	10	10000	1	1	0	1	0
49	321	10	10000	1	1	0	1	0
51	322	10	10000	1	1	0	1	0
52	323	10	10000	1	1	0	1	0
52	324	10	10000	1	1	0	1	0
51	325	10	10000	1	1	0	1	0
54	326	10	10000	1	1	0	1	0
57	327	10	10000	1	1	0	1	0
60	328	10	10000	1	1	0	1	0
61	329	10	10000	1	1	0	1	0
65	330	10	10000	1	1	0	1	0
68	331	10	10000	1	1	0	1	0
70	332	10	10000	1	1	0	1	0
74	333	10	10000	1	1	0	1	0
77	334	10	10000	1	1	0	1	0
80	335	10	10000	1	1	0	1	0
82	336	10	10000	1	1	0	1	0
83	337	10	10000	1	1	0	1	0
83	338	10	10000	1	1	0	1	0
82	339	10	10000	1	1	0	1	0
81	340	10	10000	1	1	0	1	0
80	341	10	10000	1	1	0	1	0
78	342	10	10000	1	1	0	1	0
75	343	10	10000	1	1	0	1	0
74	344	10	10000	1	1	0	1	0
71	345	10	10000	1	1	0	1	0
71	346	10	10000	1	1	0	1	0
70	347	10	10000	1	1	0	1	0
67	348	10	10000	1	1	0	1	0
64	349	10	10000	1	1	0	1	0
62	350	10	10000	1	1	0	1	0
59	351	10	10000	1	1	0	1	0
57	352	10	10000	1	1	0	1	0
55	353	10	10000	1	1	0	1	0
53	354	10	10000	1	1	0	1	0
53	355	10	10000	1	1	0	1	0
48	356	10	10000	1	1	0	1	0
46	357	10	10000	1	1	0	1	0
47	358	10	10000	1	1	0	1	0
48	359	10	10000	1	1	0	1	0
49	360	10	10000	1	1	0	1	0
50	361	10	10000	1	1	0	1	0
50	362	10	10000	1	1	0	1	0
48	363	10	10000	1	1	0	1	0
45	364	10	10000	1	1	0	1	0
45	365	10	10000	1	1	0	1	0
49	366	10	10000	1	1	0	1	0
49	367	10	10000	1	1	0	1	0
49	368	10	10000	1	1	0	1	0
53	369	10	10000	1	1	0	1	0
56	370	10	10000	1	1	0	1	0
58	371	10	10000	1	1	0	1	0
57	372	10	10000	1	1	0	1	0
56	373	10	10000	1	1	0	1	0
56	374	10	10000	1	1	0	1	0
56	375	10	10000	1	1	0	1	0
53	376	10	10000	1	1	0	1	0
51	377	10	10000	1	1	0	1	0
49	378	10	10000	1	1	0	1	0
49	379	10	10000	1	1	0	1	0
53	380	10	10000	1	1	0	1	0
54	381	10	10000	1	1	0	1	0
56	382	10	10000	1	1	0	1	0
54	383	10	10000	1	1	0	1	0
52	384	10	10000	1	1	0	1	0
50	385	10	10000	1	1	0	1	0
49	386	10	10000	1	1	0	1	0
48	387	10	10000	1	1	0	1	0
47	388	10	10000	1	1	0	1	0
48	389	10	10000	1	1	0	1	0
47	390	10	10000	1	1	0	1	0
46	391	10	10000	1	1	0	1	0
44	392	10	10000	1	1	0	1	0
44	393	10	10000	1	1	0	1	0
44	394	10	10000	1	1	0	1	0
44	395	10	10000	1	1	0	1	0
42	396	10	10000	1	1	0	1	0
41	397	10	10000	1	1	0	1	0
40	398	10	10000	1	1	0	1	0
39	399	10	10000	1	1	0	1	0
39	400	10	10000	1	1	0	1	0
38	401	10	10000	1	1	0	1	0
40	402	10	10000	1	1	0	1	0
39	403	10	10000	1	1	0	1	0
37	404	10	10000	1	1	0	1	0
36	405	10	10000	1	1	0	1	0
36	406	10	10000	1	1	0	1	0
37	407	10	10000	1	1	0	1	0
37	408	10	10000	1	1	0	1	0
36	409	10	10000	1	1	0	1	0
36	410	10	10000	1	1	0	1	0
35	411	10	10000	1	1	0	1	0
32	412	10	10000	1	1	0	1	0
32	413	10	10000	1	1	0	1	0
32	414	10	10000	1	1	0	1	0
31	415	10	10000	1	1	0	1	0
30	416	10	10000	1	1	0	1	0
29	417	10	10000	1	1	0	1	0
31	418	10	10000	1	1	0	1	0
33	419	10	10000	1	1	0	1	0
34	420	10	10000	1	1	0	1	0
34	421	10	10000	1	1	0	1	0
34	422	10	10000	1	1	0	1	0
34	423	10	10000	1	1	0	1	0
34	424	10	10000	1	1	0	1	0
34	425	10	10000	1	1	0	1	0
37	426	10	10000	1	1	0	1	0
39	427	10	10000	1	1	0	1	0
37	428	10	10000	1	1	0	1	0
36	429	10	10000	1	1	0	1	0
34	430	10	10000	1	1	0	1	0
32	431	10	10000	1	1	0	1	0
32	432	10	10000	1	1	0	1	0
32	433	10	10000	1	1	0	1	0
32	434	10	10000	1	1	0	1	0
32	435	10	10000	1	1	0	1	0
31	436	10	10000	1	1	0	1	0
30	437	10	10000	1	1	0	1	0
30	438	10	10000	1	1	0	1	0
29	439	10	10000	1	1	0	1	0
29	440	10	10000	1	1	0	1	0
32	441	10	10000	1	1	0	1	0
32	442	10	10000	1	1	0	1	0
32	443	10	10000	1	1	0	1	0
31	444	10	10000	1	1	0	1	0
30	445	10	10000	1	1	0	1	0
31	446	10	10000	1	1	0	1	0
31	447	10	10000	1	1	0	1	0
29	448	10	10000	1	1	0	1	0
29	449	10	10000	1	1	0	1	0
29	450	10	10000	1	1	0	1	0
29	451	10	10000	1	1	0	1	0
29	452	10	10000	1	1	0	1	0
28	453	10	10000	1	1	0	1	0
28	454	10	10000	1	1	0	1	0
29	455	10	10000	1	1	0	1	0
26	456	10	10000	1	1	0	1	0
24	457	10	10000	1	1	0	1	0
24	458	10	10000	1	1	0	1	0
23	459	10	10000	1	1	0	1	0
22	460	10	10000	1	1	0	1	0
23	461	10	10000	1	1	0	1	0
22	462	10	10000	1	1	0	1	0
22	463	10	10000	1	1	0	1	0
21	464	10	10000	1	1	0	1	0
21	465	10	10000	1	1	0	1	0
24	466	10	10000	1	1	0	1	0
24	467	10	10000	1	1	0	1	0
24	468	10	10000	1	1	0	1	0
24	469	10	10000	1	1	0	1	0
23	470	10	10000	1	1	0	1	0
22	471	10	10000	1	1	0	1	0
22	472	10	10000	1	1	0	1	0
22	473	10	10000	1	1	0	1	0
22	474	10	10000	1	1	0	1	0
22	475	10	10000	1	1	0	1	0
21	476	10	10000	1	1	0	1	0
22	477	10	10000	1	1	0	1	0
22	478	10	10000	1	1	0	1	0
22	479	10	10000	1	1	0	1	0
23	480	10	10000	1	1	0	1	0
21	481	10	10000	1	1	0	1	0
21	482	10	10000	1	1	0	1	0
20	483	10	10000	1	1	0	1	0
20	484	10	10000	1	1	0	1	0
19	485	10	10000	1	1	0	1	0
21	486	10	10000	1	1	0	1	0
22	487	10	10000	1	1	0	1	0
23	488	10	10000	1	1	0	1	0
25	489	10	10000	1	1	0	1	0
24	490	10	10000	1	1	0	1	0
24	491	10	10000	1	1	0	1	0
23	492	10	10000	1	1	0	1	0
22	493	10	10000	1	1	0	1	0
22	494	10	10000	1	1	0	1	0
21	495	10	10000	1	1	0	1	0
20	496	10	10000	1	1	0	1	0
20	497	10	10000	1	1	0	1	0
20	498	10	10000	1	1	0	1	0
21	499	10	10000	1	1	0	1	0
21	500	10	10000	1	1	0	1	0
22	501	10	10000	1	1	0	1	0
23	539	10	10000	1	1	0	1	1
21	540	10	10000	1	1	0	1	1
20	541	10	10000	1	1	0	1	1
20	542	10	10000	1	1	0	1	1
21	543	10	10000	1	1	0	1	1
23	544	10	10000	1	1	0	1	1
24	545	10	10000	1	1	0	1	1
22	546	10	10000	1	1	0	1	1
21	547	10	10000	1	1	0	1	1
21	548	10	10000	1	1	0	1	1
22	549	10	10000	1	1	0	1	1
24	550	10	10000	1	1	0	1	1
23	551	10	10000	1	1	0	1	1
22	552	10	10000	1	1	0	1	1
20	553	10	10000	1	1	0	1	1
19	554	10	10000	1	1	0	1	1
19	555	10	10000	1	1	0	1	1
20	556	10	10000	1	1	0	1	1
22	557	10	10000	1	1	0	1	1
25	558	10	10000	1	1	0	1	1
26	559	10	10000	1	1	0	1	1
28	560	10	10000	1	1	0	1	1
31	561	10	10000	1	1	0	1	1
31	562	10	10000	1	1	0	1	1
32	563	10	10000	1	1	0	1	1
31	564	10	10000	1	1	0	1	1
30	565	10	10000	1	1	0	1	1
29	566	10	10000	1	1	0	1	1
27	567	10	10000	1	1	0	1	1
27	568	10	10000	1	1	0	1	1
27	569	10	10000	1	1	0	1	1
26	570	10	10000	1	1	0	1	1
26	571	10	10000	1	1	0	1	1
27	572	10	10000	1	1	0	1	1
26	573	10	10000	1	1	0	1	1
27	574	10	10000	1	1	0	1	1
28	575	10	10000	1	1	0	1	1
30	576	10	10000	1	1	0	1	1
32	577	10	10000	1	1	0	1	1
33	578	10	10000	1	1	0	1	1
33	542	10	10000	1	1	0	1	1
32	543	10	10000	1	1	0	1	1
31	544	10	10000	1	1	0	1	1
31	545	10	10000	1	1	0	1	1
31	546	10	10000	1	1	0	1	1
31	547	10	10000	1	1	0	1	1
30	548	10	10000	1	1	0	1	1
28	549	10	10000	1	1	0	1	1
27	550	10	10000	1	1	0	1	1
26	551	10	10000	1	1	0	1	1
25	552	10	10000	1	1	0	1	0
25	553	10	10000	1	1	0	1	0
24	554	10	10000	1	1	0	1	0
25	555	10	10000	1	1	0	1	0
22	556	10	10000	1	1	0	1	0
21	557	10	10000	1	1	0	1	0
23	558	10	10000	1	1	0	1	0
23	559	10	10000	1	1	0	1	0
25	560	10	10000	1	1	0	1	0
24	561	10	10000	1	1	0	1	0
23	562	10	10000	1	1	0	1	0
23	563	10	10000	1	1	0	1	0
23	564	10	10000	1	1	0	1	0
26	565	10	10000	1	1	0	1	0
33	566	10	10000	1	1	0	1	0
41	567	10	10000	1	1	0	1	0
45	568	10	10000	1	1	0	1	0
49	569	10	10000	1	1	0	1	0
51	570	10	10000	1	1	0	1	0
53	571	10	10000	1	1	0	1	0
51	572	10	10000	1	1	0	1	0
51	573	10	10000	1	1	0	1	0
53	574	10	10000	1	1	0	1	0
55	575	10	10000	1	1	0	1	0
56	576	10	10000	1	1	0	1	0
55	577	10	10000	1	1	0	1	0
53	578	10	10000	1	1	0	1	0
51	579	10	10000	1	1	0	1	0
50	580	10	10000	1	1	0	1	0
49	581	10	10000	1	1	0	1	0
51	582	10	10000	1	1	0	1	0
54	583	10	10000	1	1	0	1	0
58	584	10	10000	1	1	0	1	0
63	585	10	10000	1	1	0	1	0
71	586	10	10000	1	1	0	1	0
78	587	10	10000	1	1	0	1	0
86	588	10	10000	1	1	0	1	0
94	589	10	10000	1	1	0	1	0
101	590	10	10000	1	1	0	1	0
107	591	10	10000	1	1	0	1	0
113	592	10	10000	1	1	0	1	0
120	593	10	10000	1	1	0	1	0
127	594	10	10000	1	1	0	1	0
132	595	10	10000	1	1	0	1	0
132	596	10	10000	1	1	0	1	0
132	597	10	10000	1	1	0	1	0
135	598	10	10000	1	1	0	1	0
138	599	10	10000	1	1	0	1	0
139	600	10	10000	1	1	0	1	0
139	601	10	10000	1	1	0	1	0
138	602	10	10000	1	1	0	1	0
137	603	10	10000	1	1	0	1	0
136	604	10	10000	1	1	0	1	0
134	605	10	10000	1	1	0	1	0
135	606	10	10000	1	1	0	1	0
136	607	10	10000	1	1	0	1	0
134	608	10	10000	1	1	0	1	0
132	609	10	10000	1	1	0	1	0
133	610	10	10000	1	1	0	1	0
130	611	10	10000	1	1	0	1	0
128	612	10	10000	1	1	0	1	0
125	613	10	10000	1	1	0	1	0
124	614	10	10000	1	1	0	1	0
123	615	10	10000	1	1	0	1	0
122	616	10	10000	1	1	0	1	0
120	617	10	10000	1	1	0	1	0
118	618	10	10000	1	1	0	1	0
117	619	10	10000	1	1	0	1	0
116	620	10	10000	1	1	0	1	0
111	621	10	10000	1	1	0	1	0
107	622	10	10000	1	1	0	1	0
103	623	10	10000	1	1	0	1	0
99	624	10	10000	1	1	0	1	0
96	625	10	10000	1	1	0	1	0
100	626	10	10000	1	1	0	1	0
105	627	10	10000	1	1	0	1	0
115	628	10	10000	1	1	0	1	0
135	629	10	10000	1	1	0	1	0
151	630	10	10000	1	1	0	1	0
156	631	10	10000	1	1	0	1	0
163	632	10	10000	1	1	0	1	0
172	633	10	10000	1	1	0	1	0
174	634	10	10000	1	1	0	1	0
179	635	10	10000	1	1	0	1	0
181	636	10	10000	1	1	0	1	0
182	637	10	10000	1	1	0	1	0
217	638	10	10000	1	1	0	1	0
266	639	10	10000	1	1	0	1	0
286	640	10	10000	1	1	0	1	0
289	641	10	10000	1	1	0	1	0
309	642	10	10000	1	1	0	1	0
315	643	10	10000	1	1	0	1	0
305	644	10	10000	1	1	0	1	0
301	645	10	10000	1	1	0	1	0
323	646	10	10000	1	1	0	1	0
322	647	10	10000	1	1	0	1	0
314	648	10	10000	1	1	0	1	0
311	649	10	10000	1	1	0	1	0
360	650	10	10000	1	1	0	1	0
450	651	10	10000	1	1	0	1	0
564	652	10	10000	1	1	0	1	0
678	653	10	10000	1	1	0	1	0
758	654	10	10000	1	1	0	1	0
790	655	10	10000	1	1	0	1	0
775	656	10	10000	1	1	0	1	0
753	657	10	10000	1	1	0	1	0
759	658	10	10000	1	1	0	1	0
812	659	10	10000	1	1	0	1	0
872	660	10	10000	1	1	0	1	0
871	661	10	10000	1	1	0	1	0
839	662	10	10000	1	1	0	1	0
845	663	10	10000	1	1	0	1	0
870	664	10	10000	1	1	0	1	0
893	665	10	10000	1	1	0	1	0
892	666	10	10000	1	1	0	1	0
862	667	10	10000	1	1	0	1	0
827	668	10	10000	1	1	0	1	0
803	669	10	10000	1	1	0	1	0
774	670	10	10000	1	1	0	1	0
753	671	10	10000	1	1	0	1	0
741	672	10	10000	1	1	0	1	0
737	673	10	10000	1	1	0	1	0
734	674	10	10000	1	1	0	1	0
712	675	10	10000	1	1	0	1	0
694	676	10	10000	1	1	0	1	0
673	677	10	10000	1	1	0	1	0
650	678	10	10000	1	1	0	1	0
637	679	10	10000	1	1	0	1	0
628	680	10	10000	1	1	0	1	0
611	681	10	10000	1	1	0	1	0
592	682	10	10000	1	1	0	1	0
578	683	10	10000	1	1	0	1	0
564	684	10	10000	1	1	0	1	0
543	685	10	10000	1	1	0	1	0
525	686	10	10000	1	1	0	1	0
532	687	10	10000	1	1	0	1	0
555	688	10	10000	1	1	0	1	0
551	689	10	10000	1	1	0	1	0
542	690	10	10000	1	1	0	1	0
538	691	10	10000	1	1	0	1	0
532	692	10	10000	1	1	0	1	0
533	693	10	10000	1	1	0	1	0
540	694	10	10000	1	1	0	1	0
546	695	10	10000	1	1	0	1	0
553	696	10	10000	1	1	0	1	0
563	697	10	10000	1	1	0	1	0
574	698	10	10000	1	1	0	1	0
581	699	10	10000	1	1	0	1	0
579	700	10	10000	1	1	0	1	0
578	701	10	10000	1	1	0	1	0
580	702	10	10000	1	1	0	1	0
574	703	10	10000	1	1	0	1	0
565	704	10	10000	1	1	0	1	0
554	705	10	10000	1	1	0	1	0
539	706	10	10000	1	1	0	1	0
523	707	10	10000	1	1	0	1	0
505	708	10	10000	1	1	0	1	0
488	709	10	10000	1	1	0	1	0
466	710	10	10000	1	1	0	1	0
444	711	10	10000	1	1	0	1	0
433	712	10	10000	1	1	0	1	0
438	713	10	10000	1	1	0	1	0
441	714	10	10000	1	1	0	1	0
436	715	10	10000	1	1	0	1	0
418	716	10	10000	1	1	0	1	0
399	717	10	10000	1	1	0	1	0
383	718	10	10000	1	1	0	1	0
370	719	10	10000	1	1	0	1	0
355	720	10	10000	1	1	0	1	0
340	721	10	10000	1	1	0	1	0
327	722	10	10000	1	1	0	1	0
314	723	10	10000	1	1	0	1	0
311	724	10	10000	1	1	0	1	0
310	725	10	10000	1	1	0	1	0
305	726	10	10000	1	1	0	1	0
304	727	10	10000	1	1	0	1	0
297	728	10	10000	1	1	0	1	0
284	729	10	10000	1	1	0	1	0
277	730	10	10000	1	1	0	1	0
279	731	10	10000	1	1	0	1	0
281	732	10	10000	1	1	0	1	0
272	733	10	10000	1	1	0	1	0
261	734	10	10000	1	1	0	1	0
250	735	10	10000	1	1	0	1	0
244	736	10	10000	1	1	0	1	0
244	737	10	10000	1	1	0	1	0
249	738	10	10000	1	1	0	1	0
251	739	10	10000	1	1	0	1	0
249	740	10	10000	1	1	0	1	0
243	741	10	10000	1	1	0	1	0
243	742	10	10000	1	1	0	1	0
247	743	10	10000	1	1	0	1	0
248	744	10	10000	1	1	0	1	0
247	745	10	10000	1	1	0	1	0
246	746	10	10000	1	1	0	1	0
242	747	10	10000	1	1	0	1	0
235	748	10	10000	1	1	0	1	0
228	749	10	10000	1	1	0	1	0
220	750	10	10000	1	1	0	1	0
213	751	10	10000	1	1	0	1	0
206	752	10	10000	1	1	0	1	0
203	753	10	10000	1	1	0	1	0
200	754	10	10000	1	1	0	1	0
195	755	10	10000	1	1	0	1	0
187	756	10	10000	1	1	0	1	0
181	757	10	10000	1	1	0	1	0
173	758	10	10000	1	1	0	1	0
170	759	10	10000	1	1	0	1	0
170	760	10	10000	1	1	0	1	0
169	761	10	10000	1	1	0	1	0
166	762	10	10000	1	1	0	1	0
159	763	10	10000	1	1	0	1	0
154	764	10	10000	1	1	0	1	0
152	765	10	10000	1	1	0	1	0
152	766	10	10000	1	1	0	1	0
155	767	10	10000	1	1	0	1	0
161	768	10	10000	1	1	0	1	0
171	769	10	10000	1	1	0	1	0
182	770	10	10000	1	1	0	1	0
188	771	10	10000	1	1	0	1	0
194	772	10	10000	1	1	0	1	0
203	773	10	10000	1	1	0	1	0
207	774	10	10000	1	1	0	1	0
205	775	10	10000	1	1	0	1	0
199	776	10	10000	1	1	0	1	0
191	777	10	10000	1	1	0	1	0
183	778	10	10000	1	1	0	1	0
176	779	10	10000	1	1	0	1	0
169	780	10	10000	1	1	0	1	0
163	781	10	10000	1	1	0	1	0
162	782	10	10000	1	1	0	1	0
161	783	10	10000	1	1	0	1	0
154	784	10	10000	1	1	0	1	0
155	785	10	10000	1	1	0	1	0
157	786	10	10000	1	1	0	1	0
153	787	10	10000	1	1	0	1	0
147	788	10	10000	1	1	0	1	0
150	789	10	10000	1	1	0	1	0
165	790	10	10000	1	1	0	1	0
182	791	10	10000	1	1	0	1	0
193	792	10	10000	1	1	0	1	0
201	793	10	10000	1	1	0	1	0
207	794	10	10000	1	1	0	1	0
210	795	10	10000	1	1	0	1	0
209	796	10	10000	1	1	0	1	0
206	797	10	10000	1	1	0	1	0
201	798	10	10000	1	1	0	1	0
198	799	10	10000	1	1	0	1	0
191	800	10	10000	1	1	0	1	0
184	801	10	10000	1	1	0	1	0
175	802	10	10000	1	1	0	1	0
169	803	10	10000	1	1	0	1	0
164	804	10	10000	1	1	0	1	0
159	805	10	10000	1	1	0	1	0
155	806	10	10000	1	1	0	1	0
154	807	10	10000	1	1	0	1	0
151	808	10	10000	1	1	0	1	0
144	809	10	10000	1	1	0	1	0
139	810	10	10000	1	1	0	1	0
133	811	10	10000	1	1	0	1	0
130	812	10	10000	1	1	0	1	0
129	813	10	10000	1	1	0	1	0
132	814	10	10000	1	1	0	1	0
139	815	10	10000	1	1	0	1	0
143	816	10	10000	1	1	0	1	0
145	817	10	10000	1	1	0	1	0
145	818	10	10000	1	1	0	1	0
140	819	10	10000	1	1	0	1	0
134	820	10	10000	1	1	0	1	0
132	821	10	10000	1	1	0	1	0
136	822	10	10000	1	1	0	1	0
139	823	10	10000	1	1	0	1	0
139	824	10	10000	1	1	0	1	0
138	825	10	10000	1	1	0	1	0
138	826	10	10000	1	1	0	1	0
138	827	10	10000	1	1	0	1	0
144	828	10	10000	1	1	0	1	0
149	829	10	10000	1	1	0	1	0
145	830	10	10000	1	1	0	1	0
140	831	10	10000	1	1	0	1	0
139	832	10	10000	1	1	0	1	0
142	833	10	10000	1	1	0	1	0
146	834	10	10000	1	1	0	1	0
148	835	10	10000	1	1	0	1	0
147	836	10	10000	1	1	0	1	0
144	837	10	10000	1	1	0	1	0
142	838	10	10000	1	1	0	1	0
140	839	10	10000	1	1	0	1	0
142	840	10	10000	1	1	0	1	0
146	841	10	10000	1	1	0	1	0
151	842	10	10000	1	1	0	1	0
152	843	10	10000	1	1	0	1	0
152	844	10	10000	1	1	0	1	0
152	845	10	10000	1	1	0	1	0
155	846	10	10000	1	1	0	1	0
155	847	10	10000	1	1	0	1	0
156	848	10	10000	1	1	0	1	0
157	849	10	10000	1	1	0	1	0
157	850	10	10000	1	1	0	1	0
156	851	10	10000	1	1	0	1	0
153	852	10	10000	1	1	0	1	0
148	853	10	10000	1	1	0	1	0
147	854	10	10000	1	1	0	1	0
150	855	10	10000	1	1	0	1	0
147	856	10	10000	1	1	0	1	0
142	857	10	10000	1	1	0	1	0
140	858	10	10000	1	1	0	1	0
140	859	10	10000	1	1	0	1	0
141	860	10	10000	1	1	0	1	0
140	861	10	10000	1	1	0	1	0
137	862	10	10000	1	1	0	1	0
133	863	10	10000	1	1	0	1	0
131	864	10	10000	1	1	0	1	0
129	865	10	10000	1	1	0	1	0
129	866	10	10000	1	1	0	1	0
129	867	10	10000	1	1	0	1	0
128	868	10	10000	1	1	0	1	0
128	869	10	10000	1	1	0	1	0
132	870	10	10000	1	1	0	1	0
138	871	10	10000	1	1	0	1	0
142	872	10	10000	1	1	0	1	0
148	873	10	10000	1	1	0	1	0
153	874	10	10000	1	1	0	1	0
157	875	10	10000	1	1	0	1	0
161	876	10	10000	1	1	0	1	0
166	877	10	10000	1	1	0	1	0
172	878	10	10000	1	1	0	1	0
177	879	10	10000	1	1	0	1	0
181	880	10	10000	1	1	0	1	0
188	881	10	10000	1	1	0	1	0
193	882	10	10000	1	1	0	1	0
194	883	10	10000	1	1	0	1	0
190	884	10	10000	1	1	0	1	0
182	885	10	10000	1	1	0	1	0
177	886	10	10000	1	1	0	1	0
172	887	10	10000	1	1	0	1	0
168	888	10	10000	1	1	0	1	0
163	889	10	10000	1	1	0	1	0
157	890	10	10000	1	1	0	1	0
150	891	10	10000	1	1	0	1	0
147	892	10	10000	1	1	0	1	0
146	893	10	10000	1	1	0	1	0
146	894	10	10000	1	1	0	1	0
146	895	10	10000	1	1	0	1	0
144	896	10	10000	1	1	0	1	0
141	897	10	10000	1	1	0	1	0
139	898	10	10000	1	1	0	1	0
136	899	10	10000	1	1	0	1	0
134	900	10	10000	1	1	0	1	0
131	901	10	10000	1	1	0	1	0
130	902	10	10000	1	1	0	1	0
128	903	10	10000	1	1	0	1	0
128	904	10	10000	1	1	0	1	0
126	905	10	10000	1	1	0	1	0
125	906	10	10000	1	1	0	1	0
122	907	10	10000	1	1	0	1	0
120	908	10	10000	1	1	0	1	0
118	909	10	10000	1	1	0	1	0
118	910	10	10000	1	1	0	1	0
120	911	10	10000	1	1	0	1	0
123	912	10	10000	1	1	0	1	0
127	913	10	10000	1	1	0	1	0
132	914	10	10000	1	1	0	1	0
136	915	10	10000	1	1	0	1	0
134	916	10	10000	1	1	0	1	0
134	917	10	10000	1	1	0	1	0
134	918	10	10000	1	1	0	1	0
136	919	10	10000	1	1	0	1	0
138	920	10	10000	1	1	0	1	0
138	921	10	10000	1	1	0	1	0
136	922	10	10000	1	1	0	1	0
134	923	10	10000	1	1	0	1	0
131	924	10	10000	1	1	0	1	0
126	925	10	10000	1	1	0	1	0
122	926	10	10000	1	1	0	1	0
117	927	10	10000	1	1	0	1	0
112	928	10	10000	1	1	0	1	0
108	929	10	10000	1	1	0	1	0
105	930	10	10000	1	1	0	1	0
102	931	10	10000	1	1	0	1	0
99	932	10	10000	1	1	0	1	0
96	933	10	10000	1	1	0	1	0
94	934	10	10000	1	1	0	1	0
94	935	10	10000	1	1	0	1	0
92	936	10	10000	1	1	0	1	0
91	937	10	10000	1	1	0	1	0
92	938	10	10000	1	1	0	1	0
92	939	10	10000	1	1	0	1	0
95	940	10	10000	1	1	0	1	0
97	941	10	10000	1	1	0	1	0
102	942	10	10000	1	1	0	1	0
104	943	10	10000	1	1	0	1	0
105	944	10	10000	1	1	0	1	0
109	945	10	10000	1	1	0	1	0
115	946	10	10000	1	1	0	1	0
117	947	10	10000	1	1	0	1	0
120	948	10	10000	1	1	0	1	0
126	949	10	10000	1	1	0	1	0
131	950	10	10000	1	1	0	1	0
136	951	10	10000	1	1	0	1	0
143	952	10	10000	1	1	0	1	0
150	953	10	10000	1	1	0	1	0
153	954	10	10000	1	1	0	1	0
151	955	10	10000	1	1	0	1	0
145	956	10	10000	1	1	0	1	0
145	957	10	10000	1	1	0	1	0
151	958	10	10000	1	1	0	1	0
158	959	10	10000	1	1	0	1	0
165	960	10	10000	1	1	0	1	0
170	961	10	10000	1	1	0	1	0
175	962	10	10000	1	1	0	1	0
178	963	10	10000	1	1	0	1	0
181	964	10	10000	1	1	0	1	0
185	965	10	10000	1	1	0	1	0
186	966	10	10000	1	1	0	1	0
186	967	10	10000	1	1	0	1	0
186	968	10	10000	1	1	0	1	0
182	969	10	10000	1	1	0	1	0
175	970	10	10000	1	1	0	1	0
167	971	10	10000	1	1	0	1	0
164	972	10	10000	1	1	0	1	0
168	973	10	10000	1	1	0	1	0
173	974	10	10000	1	1	0	1	0
176	975	10	10000	1	1	0	1	0
176	976	10	10000	1	1	0	1	0
174	977	10	10000	1	1	0	1	0
172	978	10	10000	1	1	0	1	0
166	979	10	10000	1	1	0	1	0
159	980	10	10000	1	1	0	1	0
154	981	10	10000	1	1	0	1	0
148	982	10	10000	1	1	0	1	0
141	983	10	10000	1	1	0	1	0
134	984	10	10000	1	1	0	1	0
128	985	10	10000	1	1	0	1	0
125	986	10	10000	1	1	0	1	0
120	987	10	10000	1	1	0	1	0
115	988	10	10000	1	1	0	1	0
111	989	10	10000	1	1	0	1	0
107	990	10	10000	1	1	0	1	0
102	991	10	10000	1	1	0	1	0
99	992	10	10000	1	1	0	1	0
95	993	10	10000	1	1	0	1	0
93	994	10	10000	1	1	0	1	0
92	995	10	10000	1	1	0	1	0
88	996	10	10000	1	1	0	1	0
89	997	10	10000	1	1	0	1	0
91	998	10	10000	1	1	0	1	0
91	999	10	10000	1	1	0	1	0
89	1000	10	10000	1	1	0	1	0
87	1001	10	10000	1	1	0	1	0
19	2	10	10000	2	1	0	2	0
20	3	10	10000	2	1	0	2	0
19	4	10	10000	2	1	0	2	0
19	5	10	10000	2	1	0	2	0
18	6	10	10000	2	1	0	2	0
18	7	10	10000	2	1	0	2	0
19	8	10	10000	2	1	0	2	0
18	9	10	10000	2	1	0	2	0
17	10	10	10000	2	1	0	2	0
18	11	10	10000	2	1	0	2	0
19	12	10	10000	2	1	0	2	0
18	13	10	10000	2	1	0	2	0
18	14	10	10000	2	1	0	2	0
18	15	10	10000	2	1	0	2	0
17	16	10	10000	2	1	0	2	0
17	17	10	10000	2	1	0	2	0
16	18	10	10000	2	1	0	2	0
16	19	10	10000	2	1	0	2	0
18	20	10	10000	2	1	0	2	0
20	21	10	10000	2	1	0	2	0
20	21	10	10000	2	1	0	2	0
20	22	10	10000	2	1	0	2	0
20	24	10	10000	2	1	0	2	0
21	25	10	10000	2	1	0	2	0
21	26	10	10000	2	1	0	2	0
20	27	10	10000	2	1	0	2	0
20	28	10	10000	2	1	0	2	0
19	29	10	10000	2	1	0	2	0
19	30	10	10000	2	1	0	2	0
19	31	10	10000	2	1	0	2	0
20	31	10	10000	2	1	0	2	0
20	32	10	10000	2	1	0	2	0
21	34	10	10000	2	1	0	2	0
22	35	10	10000	2	1	0	2	0
24	36	10	10000	2	1	0	2	0
22	37	10	10000	2	1	0	2	0
21	38	10	10000	2	1	0	2	0
22	39	10	10000	2	1	0	2	0
22	40	10	10000	2	1	0	2	0
21	41	10	10000	2	1	0	2	0
19	41	10	10000	2	1	0	2	0
19	42	10	10000	2	1	0	2	0
20	44	10	10000	2	1	0	2	0
20	45	10	10000	2	1	0	2	0
21	46	10	10000	2	1	0	2	0
21	47	10	10000	2	1	0	2	0
21	48	10	10000	2	1	0	2	0
20	49	10	10000	2	1	0	2	0
19	50	10	10000	2	1	0	2	0
19	51	10	10000	2	1	0	2	0
20	51	10	10000	2	1	0	2	0
19	52	10	10000	2	1	0	2	0
18	54	10	10000	2	1	0	2	0
17	55	10	10000	2	1	0	2	0
18	56	10	10000	2	1	0	2	0
19	57	10	10000	2	1	0	2	0
19	58	10	10000	2	1	0	2	0
19	59	10	10000	2	1	0	2	0
18	60	10	10000	2	1	0	2	0
19	61	10	10000	2	1	0	2	0
16	61	10	10000	2	1	0	2	0
16	62	10	10000	2	1	0	2	0
16	64	10	10000	2	1	0	2	0
16	65	10	10000	2	1	0	2	0
16	66	10	10000	2	1	0	2	0
15	67	10	10000	2	1	0	2	0
15	68	10	10000	2	1	0	2	0
14	69	10	10000	2	1	0	2	0
14	70	10	10000	2	1	0	2	0
13	71	10	10000	2	1	0	2	0
16	71	10	10000	2	1	0	2	0
16	72	10	10000	2	1	0	2	0
17	74	10	10000	2	1	0	2	0
18	75	10	10000	2	1	0	2	0
18	76	10	10000	2	1	0	2	0
18	77	10	10000	2	1	0	2	0
18	78	10	10000	2	1	0	2	0
18	79	10	10000	2	1	0	2	0
19	80	10	10000	2	1	0	2	0
21	81	10	10000	2	1	0	2	0
20	81	10	10000	2	1	0	2	0
21	82	10	10000	2	1	0	2	0
21	84	10	10000	2	1	0	2	0
20	85	10	10000	2	1	0	2	0
20	86	10	10000	2	1	0	2	0
19	87	10	10000	2	1	0	2	0
20	88	10	10000	2	1	0	2	0
20	89	10	10000	2	1	0	2	0
19	90	10	10000	2	1	0	2	0
18	91	10	10000	2	1	0	2	0
20	91	10	10000	2	1	0	2	0
20	92	10	10000	2	1	0	2	0
20	94	10	10000	2	1	0	2	0
20	95	10	10000	2	1	0	2	0
20	96	10	10000	2	1	0	2	0
20	97	10	10000	2	1	0	2	0
19	98	10	10000	2	1	0	2	0
21	99	10	10000	2	1	0	2	0
24	100	10	10000	2	1	0	2	0
25	101	10	10000	2	1	0	2	0
24	101	10	10000	2	1	0	2	0
23	102	10	10000	2	1	0	2	0
23	104	10	10000	2	1	0	2	0
23	105	10	10000	2	1	0	2	0
24	106	10	10000	2	1	0	2	0
23	107	10	10000	2	1	0	2	0
22	108	10	10000	2	1	0	2	0
21	109	10	10000	2	1	0	2	0
20	110	10	10000	2	1	0	2	0
20	111	10	10000	2	1	0	2	0
22	111	10	10000	2	1	0	2	0
21	112	10	10000	2	1	0	2	0
23	114	10	10000	2	1	0	2	0
26	115	10	10000	2	1	0	2	0
27	116	10	10000	2	1	0	2	0
26	117	10	10000	2	1	0	2	0
26	118	10	10000	2	1	0	2	0
27	119	10	10000	2	1	0	2	0
27	120	10	10000	2	1	0	2	0
27	121	10	10000	2	1	0	2	0
26	121	10	10000	2	1	0	2	0
24	122	10	10000	2	1	0	2	0
24	124	10	10000	2	1	0	2	0
23	125	10	10000	2	1	0	2	0
22	126	10	10000	2	1	0	2	0
23	127	10	10000	2	1	0	2	0
25	128	10	10000	2	1	0	2	0
25	129	10	10000	2	1	0	2	0
27	130	10	10000	2	1	0	2	0
27	131	10	10000	2	1	0	2	0
28	131	10	10000	2	1	0	2	0
27	132	10	10000	2	1	0	2	0
25	134	10	10000	2	1	0	2	0
24	135	10	10000	2	1	0	2	0
24	136	10	10000	2	1	0	2	0
23	137	10	10000	2	1	0	2	0
22	138	10	10000	2	1	0	2	0
22	139	10	10000	2	1	0	2	0
22	140	10	10000	2	1	0	2	0
22	141	10	10000	2	1	0	2	0
20	141	10	10000	2	1	0	2	0
22	142	10	10000	2	1	0	2	0
24	144	10	10000	2	1	0	2	0
26	145	10	10000	2	1	0	2	0
27	146	10	10000	2	1	0	2	0
29	147	10	10000	2	1	0	2	0
29	148	10	10000	2	1	0	2	0
28	149	10	10000	2	1	0	2	0
27	150	10	10000	2	1	0	2	0
25	151	10	10000	2	1	0	2	0
26	151	10	10000	2	1	0	2	0
25	152	10	10000	2	1	0	2	0
25	154	10	10000	2	1	0	2	0
25	155	10	10000	2	1	0	2	0
25	156	10	10000	2	1	0	2	0
24	157	10	10000	2	1	0	2	0
24	158	10	10000	2	1	0	2	0
23	159	10	10000	2	1	0	2	0
23	160	10	10000	2	1	0	2	0
23	161	10	10000	2	1	0	2	0
20	161	10	10000	2	1	0	2	0
21	162	10	10000	2	1	0	2	0
21	164	10	10000	2	1	0	2	0
21	165	10	10000	2	1	0	2	0
20	166	10	10000	2	1	0	2	0
21	167	10	10000	2	1	0	2	0
21	168	10	10000	2	1	0	2	0
21	169	10	10000	2	1	0	2	0
20	170	10	10000	2	1	0	2	0
19	171	10	10000	2	1	0	2	0
20	171	10	10000	2	1	0	2	0
21	172	10	10000	2	1	0	2	0
21	174	10	10000	2	1	0	2	0
21	175	10	10000	2	1	0	2	0
22	176	10	10000	2	1	0	2	0
24	177	10	10000	2	1	0	2	0
24	178	10	10000	2	1	0	2	0
24	179	10	10000	2	1	0	2	0
23	180	10	10000	2	1	0	2	0
22	181	10	10000	2	1	0	2	0
20	181	10	10000	2	1	0	2	0
22	182	10	10000	2	1	0	2	0
22	184	10	10000	2	1	0	2	0
22	185	10	10000	2	1	0	2	0
22	186	10	10000	2	1	0	2	0
22	187	10	10000	2	1	0	2	0
23	188	10	10000	2	1	0	2	0
22	189	10	10000	2	1	0	2	0
21	190	10	10000	2	1	0	2	0
21	191	10	10000	2	1	0	2	0
26	191	10	10000	2	1	0	2	0
26	192	10	10000	2	1	0	2	0
25	194	10	10000	2	1	0	2	0
23	195	10	10000	2	1	0	2	0
24	196	10	10000	2	1	0	2	0
24	197	10	10000	2	1	0	2	0
22	198	10	10000	2	1	0	2	0
23	199	10	10000	2	1	0	2	0
22	200	10	10000	2	1	0	2	0
22	201	10	10000	2	1	0	2	0
19	201	10	10000	2	1	0	2	0
20	202	10	10000	2	1	0	2	0
20	204	10	10000	2	1	0	2	0
20	205	10	10000	2	1	0	2	0
20	206	10	10000	2	1	0	2	0
19	207	10	10000	2	1	0	2	0
20	208	10	10000	2	1	0	2	0
19	209	10	10000	2	1	0	2	0
19	210	10	10000	2	1	0	2	0
20	211	10	10000	2	1	0	2	0
21	211	10	10000	2	1	0	2	0
20	212	10	10000	2	1	0	2	0
21	214	10	10000	2	1	0	2	0
21	215	10	10000	2	1	0	2	0
22	216	10	10000	2	1	0	2	0
23	217	10	10000	2	1	0	2	0
23	218	10	10000	2	1	0	2	0
23	219	10	10000	2	1	0	2	0
24	220	10	10000	2	1	0	2	0
23	221	10	10000	2	1	0	2	0
20	221	10	10000	2	1	0	2	0
22	222	10	10000	2	1	0	2	0
21	224	10	10000	2	1	0	2	0
21	225	10	10000	2	1	0	2	0
20	226	10	10000	2	1	0	2	0
20	227	10	10000	2	1	0	2	0
20	228	10	10000	2	1	0	2	0
18	229	10	10000	2	1	0	2	0
19	230	10	10000	2	1	0	2	0
17	231	10	10000	2	1	0	2	0
19	231	10	10000	2	1	0	2	0
19	232	10	10000	2	1	0	2	0
20	234	10	10000	2	1	0	2	0
20	235	10	10000	2	1	0	2	0
19	236	10	10000	2	1	0	2	0
19	237	10	10000	2	1	0	2	0
17	238	10	10000	2	1	0	2	0
19	239	10	10000	2	1	0	2	0
19	240	10	10000	2	1	0	2	0
19	241	10	10000	2	1	0	2	0
17	241	10	10000	2	1	0	2	0
17	242	10	10000	2	1	0	2	0
17	244	10	10000	2	1	0	2	0
16	245	10	10000	2	1	0	2	0
17	246	10	10000	2	1	0	2	0
18	247	10	10000	2	1	0	2	0
19	248	10	10000	2	1	0	2	0
18	249	10	10000	2	1	0	2	0
19	250	10	10000	2	1	0	2	0
20	251	10	10000	2	1	0	2	0
21	251	10	10000	2	1	0	2	0
22	252	10	10000	2	1	0	2	0
22	254	10	10000	2	1	0	2	0
23	255	10	10000	2	1	0	2	0
21	256	10	10000	2	1	0	2	0
20	257	10	10000	2	1	0	2	0
21	258	10	10000	2	1	0	2	0
22	259	10	10000	2	1	0	2	0
24	260	10	10000	2	1	0	2	0
24	261	10	10000	2	1	0	2	0
22	261	10	10000	2	1	0	2	0
22	262	10	10000	2	1	0	2	0
21	264	10	10000	2	1	0	2	0
21	265	10	10000	2	1	0	2	0
21	266	10	10000	2	1	0	2	0
20	267	10	10000	2	1	0	2	0
21	268	10	10000	2	1	0	2	0
20	269	10	10000	2	1	0	2	0
19	270	10	10000	2	1	0	2	0
18	271	10	10000	2	1	0	2	0
20	271	10	10000	2	1	0	2	0
20	272	10	10000	2	1	0	2	0
21	274	10	10000	2	1	0	2	0
20	275	10	10000	2	1	0	2	0
20	276	10	10000	2	1	0	2	0
20	277	10	10000	2	1	0	2	0
20	278	10	10000	2	1	0	2	0
22	279	10	10000	2	1	0	2	0
24	280	10	10000	2	1	0	2	0
23	281	10	10000	2	1	0	2	0
20	281	10	10000	2	1	0	2	0
21	282	10	10000	2	1	0	2	0
20	284	10	10000	2	1	0	2	0
21	285	10	10000	2	1	0	2	0
22	286	10	10000	2	1	0	2	0
22	287	10	10000	2	1	0	2	0
23	288	10	10000	2	1	0	2	0
23	289	10	10000	2	1	0	2	0
22	290	10	10000	2	1	0	2	0
21	291	10	10000	2	1	0	2	0
21	291	10	10000	2	1	0	2	0
20	292	10	10000	2	1	0	2	0
20	294	10	10000	2	1	0	2	0
19	295	10	10000	2	1	0	2	0
21	296	10	10000	2	1	0	2	0
20	297	10	10000	2	1	0	2	0
19	298	10	10000	2	1	0	2	0
19	299	10	10000	2	1	0	2	0
20	300	10	10000	2	1	0	2	0
19	301	10	10000	2	1	0	2	0
17	301	10	10000	2	1	0	2	0
17	302	10	10000	2	1	0	2	0
16	304	10	10000	2	1	0	2	0
18	305	10	10000	2	1	0	2	0
18	306	10	10000	2	1	0	2	0
19	307	10	10000	2	1	0	2	0
21	308	10	10000	2	1	0	2	0
23	309	10	10000	2	1	0	2	0
22	310	10	10000	2	1	0	2	0
22	311	10	10000	2	1	0	2	0
23	311	10	10000	2	1	0	2	0
22	312	10	10000	2	1	0	2	0
21	314	10	10000	2	1	0	2	0
22	315	10	10000	2	1	0	2	0
21	316	10	10000	2	1	0	2	0
21	317	10	10000	2	1	0	2	0
21	318	10	10000	2	1	0	2	0
21	319	10	10000	2	1	0	2	0
21	320	10	10000	2	1	0	2	0
23	321	10	10000	2	1	0	2	0
22	321	10	10000	2	1	0	2	0
21	322	10	10000	2	1	0	2	0
23	324	10	10000	2	1	0	2	0
23	325	10	10000	2	1	0	2	0
24	326	10	10000	2	1	0	2	0
26	327	10	10000	2	1	0	2	0
28	328	10	10000	2	1	0	2	0
28	329	10	10000	2	1	0	2	0
27	330	10	10000	2	1	0	2	0
26	331	10	10000	2	1	0	2	0
28	331	10	10000	2	1	0	2	0
27	332	10	10000	2	1	0	2	0
27	334	10	10000	2	1	0	2	0
25	335	10	10000	2	1	0	2	0
25	336	10	10000	2	1	0	2	0
24	337	10	10000	2	1	0	2	0
23	338	10	10000	2	1	0	2	0
23	339	10	10000	2	1	0	2	0
23	340	10	10000	2	1	0	2	0
25	341	10	10000	2	1	0	2	0
23	341	10	10000	2	1	0	2	0
22	342	10	10000	2	1	0	2	0
22	344	10	10000	2	1	0	2	0
22	345	10	10000	2	1	0	2	0
20	346	10	10000	2	1	0	2	0
21	347	10	10000	2	1	0	2	0
22	348	10	10000	2	1	0	2	0
23	349	10	10000	2	1	0	2	0
24	350	10	10000	2	1	0	2	0
24	351	10	10000	2	1	0	2	0
25	351	10	10000	2	1	0	2	0
24	352	10	10000	2	1	0	2	0
24	354	10	10000	2	1	0	2	0
23	355	10	10000	2	1	0	2	0
23	356	10	10000	2	1	0	2	0
24	357	10	10000	2	1	0	2	0
24	358	10	10000	2	1	0	2	0
24	359	10	10000	2	1	0	2	0
24	360	10	10000	2	1	0	2	0
23	361	10	10000	2	1	0	2	0
21	361	10	10000	2	1	0	2	0
21	362	10	10000	2	1	0	2	0
21	364	10	10000	2	1	0	2	0
22	365	10	10000	2	1	0	2	0
24	366	10	10000	2	1	0	2	0
24	367	10	10000	2	1	0	2	0
25	368	10	10000	2	1	0	2	0
25	369	10	10000	2	1	0	2	0
25	370	10	10000	2	1	0	2	0
25	371	10	10000	2	1	0	2	0
26	371	10	10000	2	1	0	2	0
25	372	10	10000	2	1	0	2	0
24	374	10	10000	2	1	0	2	0
24	375	10	10000	2	1	0	2	0
25	376	10	10000	2	1	0	2	0
25	377	10	10000	2	1	0	2	0
26	378	10	10000	2	1	0	2	0
27	379	10	10000	2	1	0	2	0
27	380	10	10000	2	1	0	2	0
26	381	10	10000	2	1	0	2	0
23	381	10	10000	2	1	0	2	0
24	382	10	10000	2	1	0	2	0
24	384	10	10000	2	1	0	2	0
23	385	10	10000	2	1	0	2	0
23	386	10	10000	2	1	0	2	0
22	387	10	10000	2	1	0	2	0
22	388	10	10000	2	1	0	2	0
20	389	10	10000	2	1	0	2	0
20	390	10	10000	2	1	0	2	0
20	391	10	10000	2	1	0	2	0
22	391	10	10000	2	1	0	2	0
21	392	10	10000	2	1	0	2	0
20	394	10	10000	2	1	0	2	0
19	395	10	10000	2	1	0	2	0
18	396	10	10000	2	1	0	2	0
18	397	10	10000	2	1	0	2	0
17	398	10	10000	2	1	0	2	0
18	399	10	10000	2	1	0	2	0
19	400	10	10000	2	1	0	2	0
19	401	10	10000	2	1	0	2	0
17	401	10	10000	2	1	0	2	0
16	402	10	10000	2	1	0	2	0
15	404	10	10000	2	1	0	2	0
16	405	10	10000	2	1	0	2	0
16	406	10	10000	2	1	0	2	0
16	407	10	10000	2	1	0	2	0
17	408	10	10000	2	1	0	2	0
17	409	10	10000	2	1	0	2	0
18	410	10	10000	2	1	0	2	0
19	411	10	10000	2	1	0	2	0
20	411	10	10000	2	1	0	2	0
20	412	10	10000	2	1	0	2	0
19	414	10	10000	2	1	0	2	0
18	415	10	10000	2	1	0	2	0
19	416	10	10000	2	1	0	2	0
18	417	10	10000	2	1	0	2	0
18	418	10	10000	2	1	0	2	0
18	419	10	10000	2	1	0	2	0
18	420	10	10000	2	1	0	2	0
18	421	10	10000	2	1	0	2	0
16	421	10	10000	2	1	0	2	0
16	422	10	10000	2	1	0	2	0
16	424	10	10000	2	1	0	2	0
15	425	10	10000	2	1	0	2	0
15	426	10	10000	2	1	0	2	0
15	427	10	10000	2	1	0	2	0
15	428	10	10000	2	1	0	2	0
16	429	10	10000	2	1	0	2	0
19	430	10	10000	2	1	0	2	0
19	431	10	10000	2	1	0	2	0
20	431	10	10000	2	1	0	2	0
21	432	10	10000	2	1	0	2	0
21	434	10	10000	2	1	0	2	0
21	435	10	10000	2	1	0	2	0
21	436	10	10000	2	1	0	2	0
23	437	10	10000	2	1	0	2	0
24	438	10	10000	2	1	0	2	0
23	439	10	10000	2	1	0	2	0
24	440	10	10000	2	1	0	2	0
23	441	10	10000	2	1	0	2	0
22	441	10	10000	2	1	0	2	0
25	442	10	10000	2	1	0	2	0
26	444	10	10000	2	1	0	2	0
26	445	10	10000	2	1	0	2	0
27	446	10	10000	2	1	0	2	0
30	447	10	10000	2	1	0	2	0
34	448	10	10000	2	1	0	2	0
36	449	10	10000	2	1	0	2	0
37	450	10	10000	2	1	0	2	0
39	451	10	10000	2	1	0	2	0
44	451	10	10000	2	1	0	2	0
44	452	10	10000	2	1	0	2	0
45	454	10	10000	2	1	0	2	0
47	455	10	10000	2	1	0	2	0
49	456	10	10000	2	1	0	2	0
51	457	10	10000	2	1	0	2	0
51	458	10	10000	2	1	0	2	0
52	459	10	10000	2	1	0	2	0
54	460	10	10000	2	1	0	2	0
56	461	10	10000	2	1	0	2	0
58	461	10	10000	2	1	0	2	0
62	462	10	10000	2	1	0	2	0
64	464	10	10000	2	1	0	2	0
68	465	10	10000	2	1	0	2	0
72	466	10	10000	2	1	0	2	0
76	467	10	10000	2	1	0	2	0
77	468	10	10000	2	1	0	2	0
74	469	10	10000	2	1	0	2	0
70	470	10	10000	2	1	0	2	0
67	471	10	10000	2	1	0	2	0
66	471	10	10000	2	1	0	2	0
64	472	10	10000	2	1	0	2	0
64	474	10	10000	2	1	0	2	0
61	475	10	10000	2	1	0	2	0
59	476	10	10000	2	1	0	2	0
57	477	10	10000	2	1	0	2	0
54	478	10	10000	2	1	0	2	0
53	479	10	10000	2	1	0	2	0
53	480	10	10000	2	1	0	2	0
53	481	10	10000	2	1	0	2	0
51	481	10	10000	2	1	0	2	0
51	482	10	10000	2	1	0	2	0
50	484	10	10000	2	1	0	2	0
49	485	10	10000	2	1	0	2	0
50	486	10	10000	2	1	0	2	0
52	487	10	10000	2	1	0	2	0
57	488	10	10000	2	1	0	2	0
58	489	10	10000	2	1	0	2	0
60	490	10	10000	2	1	0	2	0
61	491	10	10000	2	1	0	2	0
64	491	10	10000	2	1	0	2	0
67	492	10	10000	2	1	0	2	0
68	494	10	10000	2	1	0	2	0
69	495	10	10000	2	1	0	2	0
71	496	10	10000	2	1	0	2	0
73	497	10	10000	2	1	0	2	0
76	498	10	10000	2	1	0	2	0
79	499	10	10000	2	1	0	2	0
81	500	10	10000	2	1	0	2	0
83	501	10	10000	2	1	0	2	0
83	502	10	10000	2	1	0	2	1
83	503	10	10000	2	1	0	2	1
82	504	10	10000	2	1	0	2	1
82	505	10	10000	2	1	0	2	1
80	506	10	10000	2	1	0	2	1
79	507	10	10000	2	1	0	2	1
80	508	10	10000	2	1	0	2	1
80	509	10	10000	2	1	0	2	1
79	510	10	10000	2	1	0	2	1
78	511	10	10000	2	1	0	2	1
78	511	10	10000	2	1	0	2	1
77	512	10	10000	2	1	0	2	1
75	514	10	10000	2	1	0	2	1
73	515	10	10000	2	1	0	2	1
70	516	10	10000	2	1	0	2	1
69	517	10	10000	2	1	0	2	1
69	518	10	10000	2	1	0	2	1
69	519	10	10000	2	1	0	2	1
68	520	10	10000	2	1	0	2	1
68	521	10	10000	2	1	0	2	1
66	521	10	10000	2	1	0	2	1
65	522	10	10000	2	1	0	2	1
65	524	10	10000	2	1	0	2	1
63	525	10	10000	2	1	0	2	1
60	526	10	10000	2	1	0	2	1
59	527	10	10000	2	1	0	2	1
57	528	10	10000	2	1	0	2	1
54	529	10	10000	2	1	0	2	1
52	530	10	10000	2	1	0	2	1
50	531	10	10000	2	1	0	2	1
51	531	10	10000	2	1	0	2	1
50	532	10	10000	2	1	0	2	1
48	534	10	10000	2	1	0	2	1
47	535	10	10000	2	1	0	2	1
45	536	10	10000	2	1	0	2	1
44	537	10	10000	2	1	0	2	1
42	538	10	10000	2	1	0	2	1
41	539	10	10000	2	1	0	2	1
40	540	10	10000	2	1	0	2	1
40	541	10	10000	2	1	0	2	1
37	541	10	10000	2	1	0	2	1
37	542	10	10000	2	1	0	2	1
36	544	10	10000	2	1	0	2	1
36	545	10	10000	2	1	0	2	1
35	546	10	10000	2	1	0	2	1
34	547	10	10000	2	1	0	2	1
32	548	10	10000	2	1	0	2	1
32	549	10	10000	2	1	0	2	1
31	550	10	10000	2	1	0	2	1
31	551	10	10000	2	1	0	2	1
32	551	10	10000	2	1	0	2	0
31	552	10	10000	2	1	0	2	0
31	554	10	10000	2	1	0	2	0
31	555	10	10000	2	1	0	2	0
32	556	10	10000	2	1	0	2	0
32	557	10	10000	2	1	0	2	0
32	558	10	10000	2	1	0	2	0
32	559	10	10000	2	1	0	2	0
32	560	10	10000	2	1	0	2	0
32	561	10	10000	2	1	0	2	0
29	561	10	10000	2	1	0	2	0
31	562	10	10000	2	1	0	2	0
30	564	10	10000	2	1	0	2	0
31	565	10	10000	2	1	0	2	0
31	566	10	10000	2	1	0	2	0
31	567	10	10000	2	1	0	2	0
31	568	10	10000	2	1	0	2	0
33	569	10	10000	2	1	0	2	0
34	570	10	10000	2	1	0	2	0
33	571	10	10000	2	1	0	2	0
34	571	10	10000	2	1	0	2	0
33	572	10	10000	2	1	0	2	0
33	574	10	10000	2	1	0	2	0
31	575	10	10000	2	1	0	2	0
30	576	10	10000	2	1	0	2	0
29	577	10	10000	2	1	0	2	0
28	578	10	10000	2	1	0	2	0
27	579	10	10000	2	1	0	2	0
26	580	10	10000	2	1	0	2	0
27	581	10	10000	2	1	0	2	0
24	581	10	10000	2	1	0	2	0
24	582	10	10000	2	1	0	2	0
25	584	10	10000	2	1	0	2	0
26	585	10	10000	2	1	0	2	0
25	586	10	10000	2	1	0	2	0
26	587	10	10000	2	1	0	2	0
31	588	10	10000	2	1	0	2	0
35	589	10	10000	2	1	0	2	0
45	590	10	10000	2	1	0	2	0
61	591	10	10000	2	1	0	2	0
71	591	10	10000	2	1	0	2	0
72	592	10	10000	2	1	0	2	0
70	594	10	10000	2	1	0	2	0
72	595	10	10000	2	1	0	2	0
89	596	10	10000	2	1	0	2	0
122	597	10	10000	2	1	0	2	0
148	598	10	10000	2	1	0	2	0
152	599	10	10000	2	1	0	2	0
153	600	10	10000	2	1	0	2	0
150	601	10	10000	2	1	0	2	0
148	601	10	10000	2	1	0	2	0
146	602	10	10000	2	1	0	2	0
147	604	10	10000	2	1	0	2	0
201	605	10	10000	2	1	0	2	0
246	606	10	10000	2	1	0	2	0
254	607	10	10000	2	1	0	2	0
297	608	10	10000	2	1	0	2	0
353	609	10	10000	2	1	0	2	0
400	610	10	10000	2	1	0	2	0
423	611	10	10000	2	1	0	2	0
426	611	10	10000	2	1	0	2	0
417	612	10	10000	2	1	0	2	0
404	614	10	10000	2	1	0	2	0
427	615	10	10000	2	1	0	2	0
458	616	10	10000	2	1	0	2	0
496	617	10	10000	2	1	0	2	0
545	618	10	10000	2	1	0	2	0
569	619	10	10000	2	1	0	2	0
560	620	10	10000	2	1	0	2	0
550	621	10	10000	2	1	0	2	0
565	621	10	10000	2	1	0	2	0
587	622	10	10000	2	1	0	2	0
593	624	10	10000	2	1	0	2	0
580	625	10	10000	2	1	0	2	0
575	626	10	10000	2	1	0	2	0
576	627	10	10000	2	1	0	2	0
568	628	10	10000	2	1	0	2	0
547	629	10	10000	2	1	0	2	0
523	630	10	10000	2	1	0	2	0
500	631	10	10000	2	1	0	2	0
482	631	10	10000	2	1	0	2	0
464	632	10	10000	2	1	0	2	0
448	634	10	10000	2	1	0	2	0
430	635	10	10000	2	1	0	2	0
410	636	10	10000	2	1	0	2	0
393	637	10	10000	2	1	0	2	0
376	638	10	10000	2	1	0	2	0
361	639	10	10000	2	1	0	2	0
348	640	10	10000	2	1	0	2	0
335	641	10	10000	2	1	0	2	0
319	641	10	10000	2	1	0	2	0
305	642	10	10000	2	1	0	2	0
304	644	10	10000	2	1	0	2	0
300	645	10	10000	2	1	0	2	0
296	646	10	10000	2	1	0	2	0
296	647	10	10000	2	1	0	2	0
285	648	10	10000	2	1	0	2	0
282	649	10	10000	2	1	0	2	0
284	650	10	10000	2	1	0	2	0
285	651	10	10000	2	1	0	2	0
286	651	10	10000	2	1	0	2	0
288	652	10	10000	2	1	0	2	0
296	654	10	10000	2	1	0	2	0
308	655	10	10000	2	1	0	2	0
318	656	10	10000	2	1	0	2	0
324	657	10	10000	2	1	0	2	0
326	658	10	10000	2	1	0	2	0
331	659	10	10000	2	1	0	2	0
335	660	10	10000	2	1	0	2	0
338	661	10	10000	2	1	0	2	0
339	661	10	10000	2	1	0	2	0
341	662	10	10000	2	1	0	2	0
344	664	10	10000	2	1	0	2	0
343	665	10	10000	2	1	0	2	0
342	666	10	10000	2	1	0	2	0
344	667	10	10000	2	1	0	2	0
340	668	10	10000	2	1	0	2	0
326	669	10	10000	2	1	0	2	0
314	670	10	10000	2	1	0	2	0
313	671	10	10000	2	1	0	2	0
312	671	10	10000	2	1	0	2	0
302	672	10	10000	2	1	0	2	0
293	674	10	10000	2	1	0	2	0
282	675	10	10000	2	1	0	2	0
279	676	10	10000	2	1	0	2	0
279	677	10	10000	2	1	0	2	0
269	678	10	10000	2	1	0	2	0
259	679	10	10000	2	1	0	2	0
253	680	10	10000	2	1	0	2	0
244	681	10	10000	2	1	0	2	0
233	681	10	10000	2	1	0	2	0
234	682	10	10000	2	1	0	2	0
244	684	10	10000	2	1	0	2	0
250	685	10	10000	2	1	0	2	0
250	686	10	10000	2	1	0	2	0
243	687	10	10000	2	1	0	2	0
233	688	10	10000	2	1	0	2	0
222	689	10	10000	2	1	0	2	0
213	690	10	10000	2	1	0	2	0
209	691	10	10000	2	1	0	2	0
208	691	10	10000	2	1	0	2	0
205	692	10	10000	2	1	0	2	0
201	694	10	10000	2	1	0	2	0
197	695	10	10000	2	1	0	2	0
191	696	10	10000	2	1	0	2	0
181	697	10	10000	2	1	0	2	0
174	698	10	10000	2	1	0	2	0
173	699	10	10000	2	1	0	2	0
178	700	10	10000	2	1	0	2	0
181	701	10	10000	2	1	0	2	0
181	701	10	10000	2	1	0	2	0
183	702	10	10000	2	1	0	2	0
186	704	10	10000	2	1	0	2	0
191	705	10	10000	2	1	0	2	0
197	706	10	10000	2	1	0	2	0
204	707	10	10000	2	1	0	2	0
208	708	10	10000	2	1	0	2	0
211	709	10	10000	2	1	0	2	0
213	710	10	10000	2	1	0	2	0
215	711	10	10000	2	1	0	2	0
215	711	10	10000	2	1	0	2	0
211	712	10	10000	2	1	0	2	0
204	714	10	10000	2	1	0	2	0
198	715	10	10000	2	1	0	2	0
194	716	10	10000	2	1	0	2	0
189	717	10	10000	2	1	0	2	0
186	718	10	10000	2	1	0	2	0
184	719	10	10000	2	1	0	2	0
182	720	10	10000	2	1	0	2	0
182	721	10	10000	2	1	0	2	0
178	721	10	10000	2	1	0	2	0
178	722	10	10000	2	1	0	2	0
177	724	10	10000	2	1	0	2	0
178	725	10	10000	2	1	0	2	0
177	726	10	10000	2	1	0	2	0
180	727	10	10000	2	1	0	2	0
182	728	10	10000	2	1	0	2	0
182	729	10	10000	2	1	0	2	0
183	730	10	10000	2	1	0	2	0
185	731	10	10000	2	1	0	2	0
189	731	10	10000	2	1	0	2	0
187	732	10	10000	2	1	0	2	0
182	734	10	10000	2	1	0	2	0
177	735	10	10000	2	1	0	2	0
174	736	10	10000	2	1	0	2	0
170	737	10	10000	2	1	0	2	0
166	738	10	10000	2	1	0	2	0
161	739	10	10000	2	1	0	2	0
160	740	10	10000	2	1	0	2	0
157	741	10	10000	2	1	0	2	0
154	741	10	10000	2	1	0	2	0
154	742	10	10000	2	1	0	2	0
152	744	10	10000	2	1	0	2	0
152	745	10	10000	2	1	0	2	0
152	746	10	10000	2	1	0	2	0
152	747	10	10000	2	1	0	2	0
150	748	10	10000	2	1	0	2	0
148	749	10	10000	2	1	0	2	0
146	750	10	10000	2	1	0	2	0
143	751	10	10000	2	1	0	2	0
140	751	10	10000	2	1	0	2	0
133	752	10	10000	2	1	0	2	0
128	754	10	10000	2	1	0	2	0
122	755	10	10000	2	1	0	2	0
117	756	10	10000	2	1	0	2	0
116	757	10	10000	2	1	0	2	0
114	758	10	10000	2	1	0	2	0
116	759	10	10000	2	1	0	2	0
118	760	10	10000	2	1	0	2	0
120	761	10	10000	2	1	0	2	0
119	761	10	10000	2	1	0	2	0
117	762	10	10000	2	1	0	2	0
112	764	10	10000	2	1	0	2	0
108	765	10	10000	2	1	0	2	0
105	766	10	10000	2	1	0	2	0
103	767	10	10000	2	1	0	2	0
100	768	10	10000	2	1	0	2	0
95	769	10	10000	2	1	0	2	0
91	770	10	10000	2	1	0	2	0
86	771	10	10000	2	1	0	2	0
84	771	10	10000	2	1	0	2	0
81	772	10	10000	2	1	0	2	0
79	774	10	10000	2	1	0	2	0
75	775	10	10000	2	1	0	2	0
72	776	10	10000	2	1	0	2	0
69	777	10	10000	2	1	0	2	0
66	778	10	10000	2	1	0	2	0
64	779	10	10000	2	1	0	2	0
61	780	10	10000	2	1	0	2	0
59	781	10	10000	2	1	0	2	0
56	781	10	10000	2	1	0	2	0
55	782	10	10000	2	1	0	2	0
55	784	10	10000	2	1	0	2	0
56	785	10	10000	2	1	0	2	0
55	786	10	10000	2	1	0	2	0
53	787	10	10000	2	1	0	2	0
51	788	10	10000	2	1	0	2	0
51	789	10	10000	2	1	0	2	0
52	790	10	10000	2	1	0	2	0
55	791	10	10000	2	1	0	2	0
60	791	10	10000	2	1	0	2	0
63	792	10	10000	2	1	0	2	0
63	794	10	10000	2	1	0	2	0
62	795	10	10000	2	1	0	2	0
59	796	10	10000	2	1	0	2	0
58	797	10	10000	2	1	0	2	0
57	798	10	10000	2	1	0	2	0
56	799	10	10000	2	1	0	2	0
54	800	10	10000	2	1	0	2	0
51	801	10	10000	2	1	0	2	0
49	801	10	10000	2	1	0	2	0
48	802	10	10000	2	1	0	2	0
46	804	10	10000	2	1	0	2	0
45	805	10	10000	2	1	0	2	0
46	806	10	10000	2	1	0	2	0
47	807	10	10000	2	1	0	2	0
49	808	10	10000	2	1	0	2	0
52	809	10	10000	2	1	0	2	0
56	810	10	10000	2	1	0	2	0
58	811	10	10000	2	1	0	2	0
62	811	10	10000	2	1	0	2	0
63	812	10	10000	2	1	0	2	0
61	814	10	10000	2	1	0	2	0
60	815	10	10000	2	1	0	2	0
62	816	10	10000	2	1	0	2	0
61	817	10	10000	2	1	0	2	0
60	818	10	10000	2	1	0	2	0
59	819	10	10000	2	1	0	2	0
59	820	10	10000	2	1	0	2	0
59	821	10	10000	2	1	0	2	0
58	821	10	10000	2	1	0	2	0
58	822	10	10000	2	1	0	2	0
57	824	10	10000	2	1	0	2	0
57	825	10	10000	2	1	0	2	0
58	826	10	10000	2	1	0	2	0
57	827	10	10000	2	1	0	2	0
57	828	10	10000	2	1	0	2	0
55	829	10	10000	2	1	0	2	0
52	830	10	10000	2	1	0	2	0
52	831	10	10000	2	1	0	2	0
55	831	10	10000	2	1	0	2	0
55	832	10	10000	2	1	0	2	0
54	834	10	10000	2	1	0	2	0
52	835	10	10000	2	1	0	2	0
50	836	10	10000	2	1	0	2	0
49	837	10	10000	2	1	0	2	0
48	838	10	10000	2	1	0	2	0
48	839	10	10000	2	1	0	2	0
50	840	10	10000	2	1	0	2	0
54	841	10	10000	2	1	0	2	0
55	841	10	10000	2	1	0	2	0
55	842	10	10000	2	1	0	2	0
56	844	10	10000	2	1	0	2	0
58	845	10	10000	2	1	0	2	0
59	846	10	10000	2	1	0	2	0
59	847	10	10000	2	1	0	2	0
57	848	10	10000	2	1	0	2	0
56	849	10	10000	2	1	0	2	0
53	850	10	10000	2	1	0	2	0
51	851	10	10000	2	1	0	2	0
51	851	10	10000	2	1	0	2	0
50	852	10	10000	2	1	0	2	0
50	854	10	10000	2	1	0	2	0
49	855	10	10000	2	1	0	2	0
51	856	10	10000	2	1	0	2	0
51	857	10	10000	2	1	0	2	0
52	858	10	10000	2	1	0	2	0
55	859	10	10000	2	1	0	2	0
57	860	10	10000	2	1	0	2	0
58	861	10	10000	2	1	0	2	0
56	861	10	10000	2	1	0	2	0
54	862	10	10000	2	1	0	2	0
52	864	10	10000	2	1	0	2	0
51	865	10	10000	2	1	0	2	0
48	866	10	10000	2	1	0	2	0
49	867	10	10000	2	1	0	2	0
49	868	10	10000	2	1	0	2	0
48	869	10	10000	2	1	0	2	0
48	870	10	10000	2	1	0	2	0
51	871	10	10000	2	1	0	2	0
54	871	10	10000	2	1	0	2	0
53	872	10	10000	2	1	0	2	0
51	874	10	10000	2	1	0	2	0
48	875	10	10000	2	1	0	2	0
48	876	10	10000	2	1	0	2	0
45	877	10	10000	2	1	0	2	0
44	878	10	10000	2	1	0	2	0
44	879	10	10000	2	1	0	2	0
42	880	10	10000	2	1	0	2	0
41	881	10	10000	2	1	0	2	0
39	881	10	10000	2	1	0	2	0
40	882	10	10000	2	1	0	2	0
41	884	10	10000	2	1	0	2	0
43	885	10	10000	2	1	0	2	0
45	886	10	10000	2	1	0	2	0
47	887	10	10000	2	1	0	2	0
48	888	10	10000	2	1	0	2	0
45	889	10	10000	2	1	0	2	0
46	890	10	10000	2	1	0	2	0
44	891	10	10000	2	1	0	2	0
45	891	10	10000	2	1	0	2	0
44	892	10	10000	2	1	0	2	0
43	894	10	10000	2	1	0	2	0
42	895	10	10000	2	1	0	2	0
42	896	10	10000	2	1	0	2	0
42	897	10	10000	2	1	0	2	0
40	898	10	10000	2	1	0	2	0
40	899	10	10000	2	1	0	2	0
40	900	10	10000	2	1	0	2	0
41	901	10	10000	2	1	0	2	0
38	901	10	10000	2	1	0	2	0
37	902	10	10000	2	1	0	2	0
35	904	10	10000	2	1	0	2	0
34	905	10	10000	2	1	0	2	0
33	906	10	10000	2	1	0	2	0
35	907	10	10000	2	1	0	2	0
35	908	10	10000	2	1	0	2	0
37	909	10	10000	2	1	0	2	0
38	910	10	10000	2	1	0	2	0
41	911	10	10000	2	1	0	2	0
48	911	10	10000	2	1	0	2	0
53	912	10	10000	2	1	0	2	0
59	914	10	10000	2	1	0	2	0
65	915	10	10000	2	1	0	2	0
68	916	10	10000	2	1	0	2	0
71	917	10	10000	2	1	0	2	0
74	918	10	10000	2	1	0	2	0
77	919	10	10000	2	1	0	2	0
79	920	10	10000	2	1	0	2	0
81	921	10	10000	2	1	0	2	0
81	921	10	10000	2	1	0	2	0
81	922	10	10000	2	1	0	2	0
80	924	10	10000	2	1	0	2	0
76	925	10	10000	2	1	0	2	0
74	926	10	10000	2	1	0	2	0
71	927	10	10000	2	1	0	2	0
68	928	10	10000	2	1	0	2	0
65	929	10	10000	2	1	0	2	0
63	930	10	10000	2	1	0	2	0
62	931	10	10000	2	1	0	2	0
63	931	10	10000	2	1	0	2	0
62	932	10	10000	2	1	0	2	0
61	934	10	10000	2	1	0	2	0
61	935	10	10000	2	1	0	2	0
62	936	10	10000	2	1	0	2	0
62	937	10	10000	2	1	0	2	0
61	938	10	10000	2	1	0	2	0
60	939	10	10000	2	1	0	2	0
60	940	10	10000	2	1	0	2	0
57	941	10	10000	2	1	0	2	0
54	941	10	10000	2	1	0	2	0
52	942	10	10000	2	1	0	2	0
50	944	10	10000	2	1	0	2	0
50	945	10	10000	2	1	0	2	0
51	946	10	10000	2	1	0	2	0
50	947	10	10000	2	1	0	2	0
48	948	10	10000	2	1	0	2	0
46	949	10	10000	2	1	0	2	0
44	950	10	10000	2	1	0	2	0
45	951	10	10000	2	1	0	2	0
46	951	10	10000	2	1	0	2	0
47	952	10	10000	2	1	0	2	0
49	954	10	10000	2	1	0	2	0
51	955	10	10000	2	1	0	2	0
54	956	10	10000	2	1	0	2	0
57	957	10	10000	2	1	0	2	0
57	958	10	10000	2	1	0	2	0
56	959	10	10000	2	1	0	2	0
56	960	10	10000	2	1	0	2	0
57	961	10	10000	2	1	0	2	0
58	961	10	10000	2	1	0	2	0
58	962	10	10000	2	1	0	2	0
59	964	10	10000	2	1	0	2	0
61	965	10	10000	2	1	0	2	0
59	966	10	10000	2	1	0	2	0
57	967	10	10000	2	1	0	2	0
55	968	10	10000	2	1	0	2	0
53	969	10	10000	2	1	0	2	0
53	970	10	10000	2	1	0	2	0
55	971	10	10000	2	1	0	2	0
58	971	10	10000	2	1	0	2	0
60	972	10	10000	2	1	0	2	0
62	974	10	10000	2	1	0	2	0
63	975	10	10000	2	1	0	2	0
62	976	10	10000	2	1	0	2	0
58	977	10	10000	2	1	0	2	0
56	978	10	10000	2	1	0	2	0
56	979	10	10000	2	1	0	2	0
54	980	10	10000	2	1	0	2	0
53	981	10	10000	2	1	0	2	0
52	981	10	10000	2	1	0	2	0
56	982	10	10000	2	1	0	2	0
61	984	10	10000	2	1	0	2	0
67	985	10	10000	2	1	0	2	0
71	986	10	10000	2	1	0	2	0
74	987	10	10000	2	1	0	2	0
74	988	10	10000	2	1	0	2	0
74	989	10	10000	2	1	0	2	0
75	990	10	10000	2	1	0	2	0
74	991	10	10000	2	1	0	2	0
74	991	10	10000	2	1	0	2	0
75	992	10	10000	2	1	0	2	0
75	994	10	10000	2	1	0	2	0
75	995	10	10000	2	1	0	2	0
75	996	10	10000	2	1	0	2	0
73	997	10	10000	2	1	0	2	0
71	998	10	10000	2	1	0	2	0
70	999	10	10000	2	1	0	2	0
68	1000	10	10000	2	1	0	2	0
68	1001	10	10000	2	1	0	2	0
23	2	0	10000	3	1	0	3	0
22	3	0	10000	3	1	0	3	0
23	4	0	10000	3	1	0	3	0
24	5	0	10000	3	1	0	3	0
24	6	0	10000	3	1	0	3	0
24	7	0	10000	3	1	0	3	0
24	8	0	10000	3	1	0	3	0
24	9	0	10000	3	1	0	3	0
25	10	0	10000	3	1	0	3	0
24	11	0	10000	3	1	0	3	0
23	12	0	10000	3	1	0	3	0
23	13	0	10000	3	1	0	3	0
23	14	0	10000	3	1	0	3	0
22	15	0	10000	3	1	0	3	0
22	16	0	10000	3	1	0	3	0
23	17	0	10000	3	1	0	3	0
22	18	0	10000	3	1	0	3	0
21	19	0	10000	3	1	0	3	0
21	20	0	10000	3	1	0	3	0
23	21	0	10000	3	1	0	3	0
25	21	0	10000	3	1	0	3	0
25	22	0	10000	3	1	0	3	0
25	24	0	10000	3	1	0	3	0
24	25	0	10000	3	1	0	3	0
24	26	0	10000	3	1	0	3	0
24	27	0	10000	3	1	0	3	0
24	28	0	10000	3	1	0	3	0
24	29	0	10000	3	1	0	3	0
24	30	0	10000	3	1	0	3	0
22	31	0	10000	3	1	0	3	0
21	31	0	10000	3	1	0	3	0
20	32	0	10000	3	1	0	3	0
20	34	0	10000	3	1	0	3	0
20	35	0	10000	3	1	0	3	0
20	36	0	10000	3	1	0	3	0
20	37	0	10000	3	1	0	3	0
19	38	0	10000	3	1	0	3	0
18	39	0	10000	3	1	0	3	0
17	40	0	10000	3	1	0	3	0
17	41	0	10000	3	1	0	3	0
19	41	0	10000	3	1	0	3	0
21	42	0	10000	3	1	0	3	0
24	44	0	10000	3	1	0	3	0
25	45	0	10000	3	1	0	3	0
25	46	0	10000	3	1	0	3	0
26	47	0	10000	3	1	0	3	0
27	48	0	10000	3	1	0	3	0
29	49	0	10000	3	1	0	3	0
29	50	0	10000	3	1	0	3	0
28	51	0	10000	3	1	0	3	0
26	51	0	10000	3	1	0	3	0
29	52	0	10000	3	1	0	3	0
32	54	0	10000	3	1	0	3	0
33	55	0	10000	3	1	0	3	0
33	56	0	10000	3	1	0	3	0
31	57	0	10000	3	1	0	3	0
30	58	0	10000	3	1	0	3	0
29	59	0	10000	3	1	0	3	0
29	60	0	10000	3	1	0	3	0
30	61	0	10000	3	1	0	3	0
30	61	0	10000	3	1	0	3	0
28	62	0	10000	3	1	0	3	0
28	64	0	10000	3	1	0	3	0
27	65	0	10000	3	1	0	3	0
26	66	0	10000	3	1	0	3	0
26	67	0	10000	3	1	0	3	0
25	68	0	10000	3	1	0	3	0
25	69	0	10000	3	1	0	3	0
26	70	0	10000	3	1	0	3	0
25	71	0	10000	3	1	0	3	0
26	71	0	10000	3	1	0	3	0
27	72	0	10000	3	1	0	3	0
26	74	0	10000	3	1	0	3	0
26	75	0	10000	3	1	0	3	0
26	76	0	10000	3	1	0	3	0
27	77	0	10000	3	1	0	3	0
26	78	0	10000	3	1	0	3	0
27	79	0	10000	3	1	0	3	0
27	80	0	10000	3	1	0	3	0
28	81	0	10000	3	1	0	3	0
27	81	0	10000	3	1	0	3	0
27	82	0	10000	3	1	0	3	0
26	84	0	10000	3	1	0	3	0
26	85	0	10000	3	1	0	3	0
26	86	0	10000	3	1	0	3	0
27	87	0	10000	3	1	0	3	0
28	88	0	10000	3	1	0	3	0
29	89	0	10000	3	1	0	3	0
29	90	0	10000	3	1	0	3	0
27	91	0	10000	3	1	0	3	0
27	91	0	10000	3	1	0	3	0
27	92	0	10000	3	1	0	3	0
27	94	0	10000	3	1	0	3	0
28	95	0	10000	3	1	0	3	0
27	96	0	10000	3	1	0	3	0
26	97	0	10000	3	1	0	3	0
26	98	0	10000	3	1	0	3	0
27	99	0	10000	3	1	0	3	0
28	100	0	10000	3	1	0	3	0
29	101	0	10000	3	1	0	3	0
30	101	0	10000	3	1	0	3	0
31	102	0	10000	3	1	0	3	0
31	104	0	10000	3	1	0	3	0
30	105	0	10000	3	1	0	3	0
29	106	0	10000	3	1	0	3	0
27	107	0	10000	3	1	0	3	0
27	108	0	10000	3	1	0	3	0
28	109	0	10000	3	1	0	3	0
29	110	0	10000	3	1	0	3	0
27	111	0	10000	3	1	0	3	0
26	111	0	10000	3	1	0	3	0
25	112	0	10000	3	1	0	3	0
25	114	0	10000	3	1	0	3	0
25	115	0	10000	3	1	0	3	0
24	116	0	10000	3	1	0	3	0
25	117	0	10000	3	1	0	3	0
24	118	0	10000	3	1	0	3	0
24	119	0	10000	3	1	0	3	0
26	120	0	10000	3	1	0	3	0
28	121	0	10000	3	1	0	3	0
28	121	0	10000	3	1	0	3	0
27	122	0	10000	3	1	0	3	0
26	124	0	10000	3	1	0	3	0
25	125	0	10000	3	1	0	3	0
24	126	0	10000	3	1	0	3	0
23	127	0	10000	3	1	0	3	0
23	128	0	10000	3	1	0	3	0
22	129	0	10000	3	1	0	3	0
22	130	0	10000	3	1	0	3	0
20	131	0	10000	3	1	0	3	0
20	131	0	10000	3	1	0	3	0
21	132	0	10000	3	1	0	3	0
22	134	0	10000	3	1	0	3	0
21	135	0	10000	3	1	0	3	0
20	136	0	10000	3	1	0	3	0
20	137	0	10000	3	1	0	3	0
19	138	0	10000	3	1	0	3	0
19	139	0	10000	3	1	0	3	0
20	140	0	10000	3	1	0	3	0
22	141	0	10000	3	1	0	3	0
23	141	0	10000	3	1	0	3	0
21	142	0	10000	3	1	0	3	0
20	144	0	10000	3	1	0	3	0
20	145	0	10000	3	1	0	3	0
20	146	0	10000	3	1	0	3	0
20	147	0	10000	3	1	0	3	0
21	148	0	10000	3	1	0	3	0
24	149	0	10000	3	1	0	3	0
28	150	0	10000	3	1	0	3	0
27	151	0	10000	3	1	0	3	0
25	151	0	10000	3	1	0	3	0
26	152	0	10000	3	1	0	3	0
26	154	0	10000	3	1	0	3	0
26	155	0	10000	3	1	0	3	0
25	156	0	10000	3	1	0	3	0
25	157	0	10000	3	1	0	3	0
26	158	0	10000	3	1	0	3	0
27	159	0	10000	3	1	0	3	0
26	160	0	10000	3	1	0	3	0
27	161	0	10000	3	1	0	3	0
28	161	0	10000	3	1	0	3	0
28	162	0	10000	3	1	0	3	0
29	164	0	10000	3	1	0	3	0
28	165	0	10000	3	1	0	3	0
27	166	0	10000	3	1	0	3	0
29	167	0	10000	3	1	0	3	0
28	168	0	10000	3	1	0	3	0
28	169	0	10000	3	1	0	3	0
27	170	0	10000	3	1	0	3	0
26	171	0	10000	3	1	0	3	0
25	171	0	10000	3	1	0	3	0
25	172	0	10000	3	1	0	3	0
26	174	0	10000	3	1	0	3	0
25	175	0	10000	3	1	0	3	0
25	176	0	10000	3	1	0	3	0
25	177	0	10000	3	1	0	3	0
25	178	0	10000	3	1	0	3	0
22	179	0	10000	3	1	0	3	0
21	180	0	10000	3	1	0	3	0
22	181	0	10000	3	1	0	3	0
21	181	0	10000	3	1	0	3	0
21	182	0	10000	3	1	0	3	0
21	184	0	10000	3	1	0	3	0
20	185	0	10000	3	1	0	3	0
19	186	0	10000	3	1	0	3	0
20	187	0	10000	3	1	0	3	0
21	188	0	10000	3	1	0	3	0
22	189	0	10000	3	1	0	3	0
23	190	0	10000	3	1	0	3	0
23	191	0	10000	3	1	0	3	0
23	191	0	10000	3	1	0	3	0
22	192	0	10000	3	1	0	3	0
21	194	0	10000	3	1	0	3	0
22	195	0	10000	3	1	0	3	0
24	196	0	10000	3	1	0	3	0
24	197	0	10000	3	1	0	3	0
25	198	0	10000	3	1	0	3	0
26	199	0	10000	3	1	0	3	0
26	200	0	10000	3	1	0	3	0
28	201	0	10000	3	1	0	3	0
30	201	0	10000	3	1	0	3	0
31	202	0	10000	3	1	0	3	0
30	204	0	10000	3	1	0	3	0
30	205	0	10000	3	1	0	3	0
29	206	0	10000	3	1	0	3	0
28	207	0	10000	3	1	0	3	0
28	208	0	10000	3	1	0	3	0
27	209	0	10000	3	1	0	3	0
28	210	0	10000	3	1	0	3	0
28	211	0	10000	3	1	0	3	0
29	211	0	10000	3	1	0	3	0
30	212	0	10000	3	1	0	3	0
32	214	0	10000	3	1	0	3	0
31	215	0	10000	3	1	0	3	0
30	216	0	10000	3	1	0	3	0
30	217	0	10000	3	1	0	3	0
30	218	0	10000	3	1	0	3	0
29	219	0	10000	3	1	0	3	0
27	220	0	10000	3	1	0	3	0
28	221	0	10000	3	1	0	3	0
28	221	0	10000	3	1	0	3	0
27	222	0	10000	3	1	0	3	0
27	224	0	10000	3	1	0	3	0
26	225	0	10000	3	1	0	3	0
25	226	0	10000	3	1	0	3	0
25	227	0	10000	3	1	0	3	0
26	228	0	10000	3	1	0	3	0
26	229	0	10000	3	1	0	3	0
25	230	0	10000	3	1	0	3	0
23	231	0	10000	3	1	0	3	0
23	231	0	10000	3	1	0	3	0
23	232	0	10000	3	1	0	3	0
24	234	0	10000	3	1	0	3	0
27	235	0	10000	3	1	0	3	0
30	236	0	10000	3	1	0	3	0
31	237	0	10000	3	1	0	3	0
31	238	0	10000	3	1	0	3	0
31	239	0	10000	3	1	0	3	0
29	240	0	10000	3	1	0	3	0
31	241	0	10000	3	1	0	3	0
34	241	0	10000	3	1	0	3	0
37	242	0	10000	3	1	0	3	0
39	244	0	10000	3	1	0	3	0
38	245	0	10000	3	1	0	3	0
37	246	0	10000	3	1	0	3	0
35	247	0	10000	3	1	0	3	0
35	248	0	10000	3	1	0	3	0
35	249	0	10000	3	1	0	3	0
35	250	0	10000	3	1	0	3	0
33	251	0	10000	3	1	0	3	0
32	251	0	10000	3	1	0	3	0
32	252	0	10000	3	1	0	3	0
31	254	0	10000	3	1	0	3	0
31	255	0	10000	3	1	0	3	0
31	256	0	10000	3	1	0	3	0
30	257	0	10000	3	1	0	3	0
29	258	0	10000	3	1	0	3	0
30	259	0	10000	3	1	0	3	0
31	260	0	10000	3	1	0	3	0
32	261	0	10000	3	1	0	3	0
33	261	0	10000	3	1	0	3	0
32	262	0	10000	3	1	0	3	0
32	264	0	10000	3	1	0	3	0
33	265	0	10000	3	1	0	3	0
34	266	0	10000	3	1	0	3	0
33	267	0	10000	3	1	0	3	0
32	268	0	10000	3	1	0	3	0
33	269	0	10000	3	1	0	3	0
32	270	0	10000	3	1	0	3	0
30	271	0	10000	3	1	0	3	0
30	271	0	10000	3	1	0	3	0
30	272	0	10000	3	1	0	3	0
29	274	0	10000	3	1	0	3	0
29	275	0	10000	3	1	0	3	0
27	276	0	10000	3	1	0	3	0
26	277	0	10000	3	1	0	3	0
27	278	0	10000	3	1	0	3	0
26	279	0	10000	3	1	0	3	0
26	280	0	10000	3	1	0	3	0
27	281	0	10000	3	1	0	3	0
26	281	0	10000	3	1	0	3	0
26	282	0	10000	3	1	0	3	0
26	284	0	10000	3	1	0	3	0
25	285	0	10000	3	1	0	3	0
25	286	0	10000	3	1	0	3	0
24	287	0	10000	3	1	0	3	0
24	288	0	10000	3	1	0	3	0
24	289	0	10000	3	1	0	3	0
24	290	0	10000	3	1	0	3	0
22	291	0	10000	3	1	0	3	0
21	291	0	10000	3	1	0	3	0
21	292	0	10000	3	1	0	3	0
21	294	0	10000	3	1	0	3	0
21	295	0	10000	3	1	0	3	0
21	296	0	10000	3	1	0	3	0
21	297	0	10000	3	1	0	3	0
20	298	0	10000	3	1	0	3	0
20	299	0	10000	3	1	0	3	0
20	300	0	10000	3	1	0	3	0
22	301	0	10000	3	1	0	3	0
22	301	0	10000	3	1	0	3	0
22	302	0	10000	3	1	0	3	0
21	304	0	10000	3	1	0	3	0
22	305	0	10000	3	1	0	3	0
23	306	0	10000	3	1	0	3	0
23	307	0	10000	3	1	0	3	0
23	308	0	10000	3	1	0	3	0
22	309	0	10000	3	1	0	3	0
23	310	0	10000	3	1	0	3	0
21	311	0	10000	3	1	0	3	0
20	311	0	10000	3	1	0	3	0
20	312	0	10000	3	1	0	3	0
22	314	0	10000	3	1	0	3	0
21	315	0	10000	3	1	0	3	0
21	316	0	10000	3	1	0	3	0
21	317	0	10000	3	1	0	3	0
20	318	0	10000	3	1	0	3	0
21	319	0	10000	3	1	0	3	0
22	320	0	10000	3	1	0	3	0
26	321	0	10000	3	1	0	3	0
27	321	0	10000	3	1	0	3	0
26	322	0	10000	3	1	0	3	0
26	324	0	10000	3	1	0	3	0
26	325	0	10000	3	1	0	3	0
26	326	0	10000	3	1	0	3	0
26	327	0	10000	3	1	0	3	0
25	328	0	10000	3	1	0	3	0
26	329	0	10000	3	1	0	3	0
25	330	0	10000	3	1	0	3	0
23	331	0	10000	3	1	0	3	0
22	331	0	10000	3	1	0	3	0
24	332	0	10000	3	1	0	3	0
25	334	0	10000	3	1	0	3	0
27	335	0	10000	3	1	0	3	0
28	336	0	10000	3	1	0	3	0
28	337	0	10000	3	1	0	3	0
27	338	0	10000	3	1	0	3	0
26	339	0	10000	3	1	0	3	0
25	340	0	10000	3	1	0	3	0
28	341	0	10000	3	1	0	3	0
27	341	0	10000	3	1	0	3	0
26	342	0	10000	3	1	0	3	0
26	344	0	10000	3	1	0	3	0
26	345	0	10000	3	1	0	3	0
25	346	0	10000	3	1	0	3	0
25	347	0	10000	3	1	0	3	0
24	348	0	10000	3	1	0	3	0
25	349	0	10000	3	1	0	3	0
29	350	0	10000	3	1	0	3	0
29	351	0	10000	3	1	0	3	0
28	351	0	10000	3	1	0	3	0
28	352	0	10000	3	1	0	3	0
26	354	0	10000	3	1	0	3	0
26	355	0	10000	3	1	0	3	0
25	356	0	10000	3	1	0	3	0
25	357	0	10000	3	1	0	3	0
24	358	0	10000	3	1	0	3	0
23	359	0	10000	3	1	0	3	0
23	360	0	10000	3	1	0	3	0
25	361	0	10000	3	1	0	3	0
25	361	0	10000	3	1	0	3	0
24	362	0	10000	3	1	0	3	0
24	364	0	10000	3	1	0	3	0
24	365	0	10000	3	1	0	3	0
23	366	0	10000	3	1	0	3	0
23	367	0	10000	3	1	0	3	0
22	368	0	10000	3	1	0	3	0
22	369	0	10000	3	1	0	3	0
22	370	0	10000	3	1	0	3	0
20	371	0	10000	3	1	0	3	0
20	371	0	10000	3	1	0	3	0
19	372	0	10000	3	1	0	3	0
21	374	0	10000	3	1	0	3	0
21	375	0	10000	3	1	0	3	0
22	376	0	10000	3	1	0	3	0
21	377	0	10000	3	1	0	3	0
21	378	0	10000	3	1	0	3	0
19	379	0	10000	3	1	0	3	0
19	380	0	10000	3	1	0	3	0
21	381	0	10000	3	1	0	3	0
23	381	0	10000	3	1	0	3	0
26	382	0	10000	3	1	0	3	0
25	384	0	10000	3	1	0	3	0
24	385	0	10000	3	1	0	3	0
24	386	0	10000	3	1	0	3	0
23	387	0	10000	3	1	0	3	0
24	388	0	10000	3	1	0	3	0
24	389	0	10000	3	1	0	3	0
24	390	0	10000	3	1	0	3	0
21	391	0	10000	3	1	0	3	0
20	391	0	10000	3	1	0	3	0
20	392	0	10000	3	1	0	3	0
20	394	0	10000	3	1	0	3	0
19	395	0	10000	3	1	0	3	0
19	396	0	10000	3	1	0	3	0
20	397	0	10000	3	1	0	3	0
18	398	0	10000	3	1	0	3	0
19	399	0	10000	3	1	0	3	0
18	400	0	10000	3	1	0	3	0
20	401	0	10000	3	1	0	3	0
20	401	0	10000	3	1	0	3	0
20	402	0	10000	3	1	0	3	0
19	404	0	10000	3	1	0	3	0
20	405	0	10000	3	1	0	3	0
20	406	0	10000	3	1	0	3	0
20	407	0	10000	3	1	0	3	0
21	408	0	10000	3	1	0	3	0
20	409	0	10000	3	1	0	3	0
20	410	0	10000	3	1	0	3	0
20	411	0	10000	3	1	0	3	0
20	411	0	10000	3	1	0	3	0
20	412	0	10000	3	1	0	3	0
20	414	0	10000	3	1	0	3	0
20	415	0	10000	3	1	0	3	0
20	416	0	10000	3	1	0	3	0
20	417	0	10000	3	1	0	3	0
19	418	0	10000	3	1	0	3	0
19	419	0	10000	3	1	0	3	0
17	420	0	10000	3	1	0	3	0
20	421	0	10000	3	1	0	3	0
21	421	0	10000	3	1	0	3	0
20	422	0	10000	3	1	0	3	0
18	424	0	10000	3	1	0	3	0
18	425	0	10000	3	1	0	3	0
20	426	0	10000	3	1	0	3	0
18	427	0	10000	3	1	0	3	0
19	428	0	10000	3	1	0	3	0
20	429	0	10000	3	1	0	3	0
22	430	0	10000	3	1	0	3	0
21	431	0	10000	3	1	0	3	0
20	431	0	10000	3	1	0	3	0
21	432	0	10000	3	1	0	3	0
20	434	0	10000	3	1	0	3	0
22	435	0	10000	3	1	0	3	0
24	436	0	10000	3	1	0	3	0
26	437	0	10000	3	1	0	3	0
26	438	0	10000	3	1	0	3	0
25	439	0	10000	3	1	0	3	0
24	440	0	10000	3	1	0	3	0
26	441	0	10000	3	1	0	3	0
25	441	0	10000	3	1	0	3	0
25	442	0	10000	3	1	0	3	0
24	444	0	10000	3	1	0	3	0
23	445	0	10000	3	1	0	3	0
23	446	0	10000	3	1	0	3	0
24	447	0	10000	3	1	0	3	0
23	448	0	10000	3	1	0	3	0
23	449	0	10000	3	1	0	3	0
24	450	0	10000	3	1	0	3	0
21	451	0	10000	3	1	0	3	0
20	451	0	10000	3	1	0	3	0
21	452	0	10000	3	1	0	3	0
22	454	0	10000	3	1	0	3	0
23	455	0	10000	3	1	0	3	0
22	456	0	10000	3	1	0	3	0
23	457	0	10000	3	1	0	3	0
23	458	0	10000	3	1	0	3	0
23	459	0	10000	3	1	0	3	0
22	460	0	10000	3	1	0	3	0
23	461	0	10000	3	1	0	3	0
23	461	0	10000	3	1	0	3	0
21	462	0	10000	3	1	0	3	0
21	464	0	10000	3	1	0	3	0
20	465	0	10000	3	1	0	3	0
20	466	0	10000	3	1	0	3	0
20	467	0	10000	3	1	0	3	0
20	468	0	10000	3	1	0	3	0
20	469	0	10000	3	1	0	3	0
20	470	0	10000	3	1	0	3	0
19	471	0	10000	3	1	0	3	0
18	471	0	10000	3	1	0	3	0
18	472	0	10000	3	1	0	3	0
19	474	0	10000	3	1	0	3	0
20	475	0	10000	3	1	0	3	0
21	476	0	10000	3	1	0	3	0
21	477	0	10000	3	1	0	3	0
21	478	0	10000	3	1	0	3	0
21	479	0	10000	3	1	0	3	0
20	480	0	10000	3	1	0	3	0
21	481	0	10000	3	1	0	3	0
22	481	0	10000	3	1	0	3	0
23	482	0	10000	3	1	0	3	0
22	484	0	10000	3	1	0	3	0
21	485	0	10000	3	1	0	3	0
21	486	0	10000	3	1	0	3	0
21	487	0	10000	3	1	0	3	0
23	488	0	10000	3	1	0	3	0
23	489	0	10000	3	1	0	3	0
24	490	0	10000	3	1	0	3	0
22	491	0	10000	3	1	0	3	0
21	491	0	10000	3	1	0	3	0
21	492	0	10000	3	1	0	3	0
22	494	0	10000	3	1	0	3	0
23	495	0	10000	3	1	0	3	0
23	496	0	10000	3	1	0	3	0
23	497	0	10000	3	1	0	3	0
22	498	0	10000	3	1	0	3	0
22	499	0	10000	3	1	0	3	0
21	500	0	10000	3	1	0	3	0
22	501	0	10000	3	1	0	3	0
22	502	0	10000	3	1	0	3	1
22	503	0	10000	3	1	0	3	1
22	504	0	10000	3	1	0	3	1
23	505	0	10000	3	1	0	3	1
22	506	0	10000	3	1	0	3	1
21	507	0	10000	3	1	0	3	1
23	508	0	10000	3	1	0	3	1
23	509	0	10000	3	1	0	3	1
23	510	0	10000	3	1	0	3	1
20	511	0	10000	3	1	0	3	1
20	511	0	10000	3	1	0	3	1
20	512	0	10000	3	1	0	3	1
21	514	0	10000	3	1	0	3	1
21	515	0	10000	3	1	0	3	1
20	516	0	10000	3	1	0	3	1
20	517	0	10000	3	1	0	3	1
19	518	0	10000	3	1	0	3	1
19	519	0	10000	3	1	0	3	1
18	520	0	10000	3	1	0	3	1
19	521	0	10000	3	1	0	3	1
19	521	0	10000	3	1	0	3	1
18	522	0	10000	3	1	0	3	1
18	524	0	10000	3	1	0	3	1
17	525	0	10000	3	1	0	3	1
17	526	0	10000	3	1	0	3	1
18	527	0	10000	3	1	0	3	1
19	528	0	10000	3	1	0	3	1
18	529	0	10000	3	1	0	3	1
20	530	0	10000	3	1	0	3	1
20	531	0	10000	3	1	0	3	1
21	531	0	10000	3	1	0	3	1
22	532	0	10000	3	1	0	3	1
22	534	0	10000	3	1	0	3	1
21	535	0	10000	3	1	0	3	1
21	536	0	10000	3	1	0	3	1
23	537	0	10000	3	1	0	3	1
28	538	0	10000	3	1	0	3	1
29	539	0	10000	3	1	0	3	1
28	540	0	10000	3	1	0	3	1
29	541	0	10000	3	1	0	3	1
28	541	0	10000	3	1	0	3	1
27	542	0	10000	3	1	0	3	1
27	544	0	10000	3	1	0	3	1
25	545	0	10000	3	1	0	3	1
24	546	0	10000	3	1	0	3	1
23	547	0	10000	3	1	0	3	1
23	548	0	10000	3	1	0	3	1
23	549	0	10000	3	1	0	3	1
24	550	0	10000	3	1	0	3	1
22	551	0	10000	3	1	0	3	1
21	551	0	10000	3	1	0	3	0
22	552	0	10000	3	1	0	3	0
23	554	0	10000	3	1	0	3	0
24	555	0	10000	3	1	0	3	0
24	556	0	10000	3	1	0	3	0
24	557	0	10000	3	1	0	3	0
23	558	0	10000	3	1	0	3	0
22	559	0	10000	3	1	0	3	0
21	560	0	10000	3	1	0	3	0
24	561	0	10000	3	1	0	3	0
23	561	0	10000	3	1	0	3	0
22	562	0	10000	3	1	0	3	0
22	564	0	10000	3	1	0	3	0
21	565	0	10000	3	1	0	3	0
23	566	0	10000	3	1	0	3	0
23	567	0	10000	3	1	0	3	0
23	568	0	10000	3	1	0	3	0
23	569	0	10000	3	1	0	3	0
23	570	0	10000	3	1	0	3	0
22	571	0	10000	3	1	0	3	0
22	571	0	10000	3	1	0	3	0
22	572	0	10000	3	1	0	3	0
23	574	0	10000	3	1	0	3	0
23	575	0	10000	3	1	0	3	0
22	576	0	10000	3	1	0	3	0
23	577	0	10000	3	1	0	3	0
24	578	0	10000	3	1	0	3	0
23	579	0	10000	3	1	0	3	0
23	580	0	10000	3	1	0	3	0
24	581	0	10000	3	1	0	3	0
24	581	0	10000	3	1	0	3	0
24	582	0	10000	3	1	0	3	0
28	584	0	10000	3	1	0	3	0
44	585	0	10000	3	1	0	3	0
73	586	0	10000	3	1	0	3	0
104	587	0	10000	3	1	0	3	0
124	588	0	10000	3	1	0	3	0
139	589	0	10000	3	1	0	3	0
152	590	0	10000	3	1	0	3	0
168	591	0	10000	3	1	0	3	0
193	591	0	10000	3	1	0	3	0
208	592	0	10000	3	1	0	3	0
233	594	0	10000	3	1	0	3	0
309	595	0	10000	3	1	0	3	0
374	596	0	10000	3	1	0	3	0
398	597	0	10000	3	1	0	3	0
416	598	0	10000	3	1	0	3	0
444	599	0	10000	3	1	0	3	0
467	600	0	10000	3	1	0	3	0
473	601	0	10000	3	1	0	3	0
539	601	0	10000	3	1	0	3	0
603	602	0	10000	3	1	0	3	0
672	604	0	10000	3	1	0	3	0
756	605	0	10000	3	1	0	3	0
829	606	0	10000	3	1	0	3	0
885	607	0	10000	3	1	0	3	0
891	608	0	10000	3	1	0	3	0
856	609	0	10000	3	1	0	3	0
829	610	0	10000	3	1	0	3	0
833	611	0	10000	3	1	0	3	0
871	611	0	10000	3	1	0	3	0
885	612	0	10000	3	1	0	3	0
862	614	0	10000	3	1	0	3	0
869	615	0	10000	3	1	0	3	0
844	616	0	10000	3	1	0	3	0
821	617	0	10000	3	1	0	3	0
830	618	0	10000	3	1	0	3	0
854	619	0	10000	3	1	0	3	0
865	620	0	10000	3	1	0	3	0
849	621	0	10000	3	1	0	3	0
820	621	0	10000	3	1	0	3	0
817	622	0	10000	3	1	0	3	0
829	624	0	10000	3	1	0	3	0
847	625	0	10000	3	1	0	3	0
863	626	0	10000	3	1	0	3	0
869	627	0	10000	3	1	0	3	0
865	628	0	10000	3	1	0	3	0
856	629	0	10000	3	1	0	3	0
841	630	0	10000	3	1	0	3	0
815	631	0	10000	3	1	0	3	0
786	631	0	10000	3	1	0	3	0
761	632	0	10000	3	1	0	3	0
743	634	0	10000	3	1	0	3	0
731	635	0	10000	3	1	0	3	0
720	636	0	10000	3	1	0	3	0
707	637	0	10000	3	1	0	3	0
690	638	0	10000	3	1	0	3	0
671	639	0	10000	3	1	0	3	0
661	640	0	10000	3	1	0	3	0
656	641	0	10000	3	1	0	3	0
631	641	0	10000	3	1	0	3	0
611	642	0	10000	3	1	0	3	0
621	644	0	10000	3	1	0	3	0
619	645	0	10000	3	1	0	3	0
602	646	0	10000	3	1	0	3	0
582	647	0	10000	3	1	0	3	0
584	648	0	10000	3	1	0	3	0
589	649	0	10000	3	1	0	3	0
592	650	0	10000	3	1	0	3	0
581	651	0	10000	3	1	0	3	0
570	651	0	10000	3	1	0	3	0
559	652	0	10000	3	1	0	3	0
546	654	0	10000	3	1	0	3	0
530	655	0	10000	3	1	0	3	0
509	656	0	10000	3	1	0	3	0
490	657	0	10000	3	1	0	3	0
481	658	0	10000	3	1	0	3	0
469	659	0	10000	3	1	0	3	0
451	660	0	10000	3	1	0	3	0
434	661	0	10000	3	1	0	3	0
418	661	0	10000	3	1	0	3	0
406	662	0	10000	3	1	0	3	0
387	664	0	10000	3	1	0	3	0
371	665	0	10000	3	1	0	3	0
363	666	0	10000	3	1	0	3	0
368	667	0	10000	3	1	0	3	0
370	668	0	10000	3	1	0	3	0
389	669	0	10000	3	1	0	3	0
412	670	0	10000	3	1	0	3	0
404	671	0	10000	3	1	0	3	0
415	671	0	10000	3	1	0	3	0
445	672	0	10000	3	1	0	3	0
468	674	0	10000	3	1	0	3	0
479	675	0	10000	3	1	0	3	0
485	676	0	10000	3	1	0	3	0
487	677	0	10000	3	1	0	3	0
473	678	0	10000	3	1	0	3	0
459	679	0	10000	3	1	0	3	0
445	680	0	10000	3	1	0	3	0
432	681	0	10000	3	1	0	3	0
419	681	0	10000	3	1	0	3	0
405	682	0	10000	3	1	0	3	0
394	684	0	10000	3	1	0	3	0
388	685	0	10000	3	1	0	3	0
382	686	0	10000	3	1	0	3	0
376	687	0	10000	3	1	0	3	0
373	688	0	10000	3	1	0	3	0
369	689	0	10000	3	1	0	3	0
364	690	0	10000	3	1	0	3	0
355	691	0	10000	3	1	0	3	0
347	691	0	10000	3	1	0	3	0
339	692	0	10000	3	1	0	3	0
331	694	0	10000	3	1	0	3	0
321	695	0	10000	3	1	0	3	0
309	696	0	10000	3	1	0	3	0
298	697	0	10000	3	1	0	3	0
287	698	0	10000	3	1	0	3	0
275	699	0	10000	3	1	0	3	0
263	700	0	10000	3	1	0	3	0
255	701	0	10000	3	1	0	3	0
249	701	0	10000	3	1	0	3	0
243	702	0	10000	3	1	0	3	0
236	704	0	10000	3	1	0	3	0
231	705	0	10000	3	1	0	3	0
226	706	0	10000	3	1	0	3	0
222	707	0	10000	3	1	0	3	0
218	708	0	10000	3	1	0	3	0
218	709	0	10000	3	1	0	3	0
218	710	0	10000	3	1	0	3	0
216	711	0	10000	3	1	0	3	0
218	711	0	10000	3	1	0	3	0
222	712	0	10000	3	1	0	3	0
227	714	0	10000	3	1	0	3	0
234	715	0	10000	3	1	0	3	0
241	716	0	10000	3	1	0	3	0
243	717	0	10000	3	1	0	3	0
243	718	0	10000	3	1	0	3	0
242	719	0	10000	3	1	0	3	0
241	720	0	10000	3	1	0	3	0
243	721	0	10000	3	1	0	3	0
244	721	0	10000	3	1	0	3	0
242	722	0	10000	3	1	0	3	0
240	724	0	10000	3	1	0	3	0
235	725	0	10000	3	1	0	3	0
229	726	0	10000	3	1	0	3	0
223	727	0	10000	3	1	0	3	0
218	728	0	10000	3	1	0	3	0
216	729	0	10000	3	1	0	3	0
216	730	0	10000	3	1	0	3	0
215	731	0	10000	3	1	0	3	0
216	731	0	10000	3	1	0	3	0
217	732	0	10000	3	1	0	3	0
218	734	0	10000	3	1	0	3	0
218	735	0	10000	3	1	0	3	0
215	736	0	10000	3	1	0	3	0
211	737	0	10000	3	1	0	3	0
204	738	0	10000	3	1	0	3	0
199	739	0	10000	3	1	0	3	0
192	740	0	10000	3	1	0	3	0
188	741	0	10000	3	1	0	3	0
181	741	0	10000	3	1	0	3	0
173	742	0	10000	3	1	0	3	0
166	744	0	10000	3	1	0	3	0
159	745	0	10000	3	1	0	3	0
154	746	0	10000	3	1	0	3	0
150	747	0	10000	3	1	0	3	0
143	748	0	10000	3	1	0	3	0
138	749	0	10000	3	1	0	3	0
132	750	0	10000	3	1	0	3	0
126	751	0	10000	3	1	0	3	0
122	751	0	10000	3	1	0	3	0
118	752	0	10000	3	1	0	3	0
114	754	0	10000	3	1	0	3	0
111	755	0	10000	3	1	0	3	0
108	756	0	10000	3	1	0	3	0
106	757	0	10000	3	1	0	3	0
105	758	0	10000	3	1	0	3	0
105	759	0	10000	3	1	0	3	0
107	760	0	10000	3	1	0	3	0
111	761	0	10000	3	1	0	3	0
115	761	0	10000	3	1	0	3	0
117	762	0	10000	3	1	0	3	0
119	764	0	10000	3	1	0	3	0
121	765	0	10000	3	1	0	3	0
124	766	0	10000	3	1	0	3	0
128	767	0	10000	3	1	0	3	0
133	768	0	10000	3	1	0	3	0
134	769	0	10000	3	1	0	3	0
134	770	0	10000	3	1	0	3	0
133	771	0	10000	3	1	0	3	0
131	771	0	10000	3	1	0	3	0
131	772	0	10000	3	1	0	3	0
129	774	0	10000	3	1	0	3	0
127	775	0	10000	3	1	0	3	0
126	776	0	10000	3	1	0	3	0
125	777	0	10000	3	1	0	3	0
124	778	0	10000	3	1	0	3	0
122	779	0	10000	3	1	0	3	0
120	780	0	10000	3	1	0	3	0
120	781	0	10000	3	1	0	3	0
118	781	0	10000	3	1	0	3	0
114	782	0	10000	3	1	0	3	0
110	784	0	10000	3	1	0	3	0
105	785	0	10000	3	1	0	3	0
100	786	0	10000	3	1	0	3	0
96	787	0	10000	3	1	0	3	0
93	788	0	10000	3	1	0	3	0
92	789	0	10000	3	1	0	3	0
90	790	0	10000	3	1	0	3	0
85	791	0	10000	3	1	0	3	0
82	791	0	10000	3	1	0	3	0
80	792	0	10000	3	1	0	3	0
78	794	0	10000	3	1	0	3	0
79	795	0	10000	3	1	0	3	0
80	796	0	10000	3	1	0	3	0
79	797	0	10000	3	1	0	3	0
75	798	0	10000	3	1	0	3	0
71	799	0	10000	3	1	0	3	0
69	800	0	10000	3	1	0	3	0
69	801	0	10000	3	1	0	3	0
67	801	0	10000	3	1	0	3	0
63	802	0	10000	3	1	0	3	0
61	804	0	10000	3	1	0	3	0
62	805	0	10000	3	1	0	3	0
65	806	0	10000	3	1	0	3	0
68	807	0	10000	3	1	0	3	0
67	808	0	10000	3	1	0	3	0
65	809	0	10000	3	1	0	3	0
63	810	0	10000	3	1	0	3	0
59	811	0	10000	3	1	0	3	0
56	811	0	10000	3	1	0	3	0
55	812	0	10000	3	1	0	3	0
54	814	0	10000	3	1	0	3	0
53	815	0	10000	3	1	0	3	0
51	816	0	10000	3	1	0	3	0
50	817	0	10000	3	1	0	3	0
48	818	0	10000	3	1	0	3	0
48	819	0	10000	3	1	0	3	0
48	820	0	10000	3	1	0	3	0
51	821	0	10000	3	1	0	3	0
50	821	0	10000	3	1	0	3	0
49	822	0	10000	3	1	0	3	0
47	824	0	10000	3	1	0	3	0
45	825	0	10000	3	1	0	3	0
44	826	0	10000	3	1	0	3	0
44	827	0	10000	3	1	0	3	0
43	828	0	10000	3	1	0	3	0
42	829	0	10000	3	1	0	3	0
41	830	0	10000	3	1	0	3	0
39	831	0	10000	3	1	0	3	0
40	831	0	10000	3	1	0	3	0
40	832	0	10000	3	1	0	3	0
39	834	0	10000	3	1	0	3	0
39	835	0	10000	3	1	0	3	0
37	836	0	10000	3	1	0	3	0
37	837	0	10000	3	1	0	3	0
36	838	0	10000	3	1	0	3	0
36	839	0	10000	3	1	0	3	0
35	840	0	10000	3	1	0	3	0
35	841	0	10000	3	1	0	3	0
34	841	0	10000	3	1	0	3	0
33	842	0	10000	3	1	0	3	0
32	844	0	10000	3	1	0	3	0
32	845	0	10000	3	1	0	3	0
31	846	0	10000	3	1	0	3	0
30	847	0	10000	3	1	0	3	0
29	848	0	10000	3	1	0	3	0
29	849	0	10000	3	1	0	3	0
28	850	0	10000	3	1	0	3	0
26	851	0	10000	3	1	0	3	0
26	851	0	10000	3	1	0	3	0
27	852	0	10000	3	1	0	3	0
28	854	0	10000	3	1	0	3	0
28	855	0	10000	3	1	0	3	0
29	856	0	10000	3	1	0	3	0
29	857	0	10000	3	1	0	3	0
27	858	0	10000	3	1	0	3	0
27	859	0	10000	3	1	0	3	0
27	860	0	10000	3	1	0	3	0
28	861	0	10000	3	1	0	3	0
29	861	0	10000	3	1	0	3	0
31	862	0	10000	3	1	0	3	0
32	864	0	10000	3	1	0	3	0
31	865	0	10000	3	1	0	3	0
30	866	0	10000	3	1	0	3	0
32	867	0	10000	3	1	0	3	0
35	868	0	10000	3	1	0	3	0
33	869	0	10000	3	1	0	3	0
32	870	0	10000	3	1	0	3	0
30	871	0	10000	3	1	0	3	0
28	871	0	10000	3	1	0	3	0
27	872	0	10000	3	1	0	3	0
27	874	0	10000	3	1	0	3	0
25	875	0	10000	3	1	0	3	0
25	876	0	10000	3	1	0	3	0
26	877	0	10000	3	1	0	3	0
26	878	0	10000	3	1	0	3	0
27	879	0	10000	3	1	0	3	0
25	880	0	10000	3	1	0	3	0
27	881	0	10000	3	1	0	3	0
28	881	0	10000	3	1	0	3	0
26	882	0	10000	3	1	0	3	0
25	884	0	10000	3	1	0	3	0
25	885	0	10000	3	1	0	3	0
25	886	0	10000	3	1	0	3	0
25	887	0	10000	3	1	0	3	0
25	888	0	10000	3	1	0	3	0
25	889	0	10000	3	1	0	3	0
26	890	0	10000	3	1	0	3	0
26	891	0	10000	3	1	0	3	0
25	891	0	10000	3	1	0	3	0
26	892	0	10000	3	1	0	3	0
26	894	0	10000	3	1	0	3	0
31	895	0	10000	3	1	0	3	0
39	896	0	10000	3	1	0	3	0
47	897	0	10000	3	1	0	3	0
51	898	0	10000	3	1	0	3	0
52	899	0	10000	3	1	0	3	0
50	900	0	10000	3	1	0	3	0
49	901	0	10000	3	1	0	3	0
49	901	0	10000	3	1	0	3	0
48	902	0	10000	3	1	0	3	0
48	904	0	10000	3	1	0	3	0
46	905	0	10000	3	1	0	3	0
45	906	0	10000	3	1	0	3	0
44	907	0	10000	3	1	0	3	0
44	908	0	10000	3	1	0	3	0
44	909	0	10000	3	1	0	3	0
45	910	0	10000	3	1	0	3	0
42	911	0	10000	3	1	0	3	0
41	911	0	10000	3	1	0	3	0
44	912	0	10000	3	1	0	3	0
46	914	0	10000	3	1	0	3	0
45	915	0	10000	3	1	0	3	0
44	916	0	10000	3	1	0	3	0
44	917	0	10000	3	1	0	3	0
43	918	0	10000	3	1	0	3	0
40	919	0	10000	3	1	0	3	0
39	920	0	10000	3	1	0	3	0
40	921	0	10000	3	1	0	3	0
39	921	0	10000	3	1	0	3	0
37	922	0	10000	3	1	0	3	0
36	924	0	10000	3	1	0	3	0
34	925	0	10000	3	1	0	3	0
33	926	0	10000	3	1	0	3	0
32	927	0	10000	3	1	0	3	0
32	928	0	10000	3	1	0	3	0
32	929	0	10000	3	1	0	3	0
31	930	0	10000	3	1	0	3	0
28	931	0	10000	3	1	0	3	0
28	931	0	10000	3	1	0	3	0
29	932	0	10000	3	1	0	3	0
32	934	0	10000	3	1	0	3	0
36	935	0	10000	3	1	0	3	0
39	936	0	10000	3	1	0	3	0
38	937	0	10000	3	1	0	3	0
39	938	0	10000	3	1	0	3	0
40	939	0	10000	3	1	0	3	0
39	940	0	10000	3	1	0	3	0
40	941	0	10000	3	1	0	3	0
39	941	0	10000	3	1	0	3	0
39	942	0	10000	3	1	0	3	0
39	944	0	10000	3	1	0	3	0
41	945	0	10000	3	1	0	3	0
43	946	0	10000	3	1	0	3	0
42	947	0	10000	3	1	0	3	0
41	948	0	10000	3	1	0	3	0
40	949	0	10000	3	1	0	3	0
40	950	0	10000	3	1	0	3	0
39	951	0	10000	3	1	0	3	0
40	951	0	10000	3	1	0	3	0
41	952	0	10000	3	1	0	3	0
42	954	0	10000	3	1	0	3	0
41	955	0	10000	3	1	0	3	0
39	956	0	10000	3	1	0	3	0
38	957	0	10000	3	1	0	3	0
36	958	0	10000	3	1	0	3	0
35	959	0	10000	3	1	0	3	0
33	960	0	10000	3	1	0	3	0
34	961	0	10000	3	1	0	3	0
35	961	0	10000	3	1	0	3	0
35	962	0	10000	3	1	0	3	0
35	964	0	10000	3	1	0	3	0
37	965	0	10000	3	1	0	3	0
39	966	0	10000	3	1	0	3	0
41	967	0	10000	3	1	0	3	0
41	968	0	10000	3	1	0	3	0
41	969	0	10000	3	1	0	3	0
41	970	0	10000	3	1	0	3	0
39	971	0	10000	3	1	0	3	0
38	971	0	10000	3	1	0	3	0
37	972	0	10000	3	1	0	3	0
37	974	0	10000	3	1	0	3	0
37	975	0	10000	3	1	0	3	0
37	976	0	10000	3	1	0	3	0
35	977	0	10000	3	1	0	3	0
35	978	0	10000	3	1	0	3	0
35	979	0	10000	3	1	0	3	0
33	980	0	10000	3	1	0	3	0
34	981	0	10000	3	1	0	3	0
38	981	0	10000	3	1	0	3	0
41	982	0	10000	3	1	0	3	0
43	984	0	10000	3	1	0	3	0
43	985	0	10000	3	1	0	3	0
41	986	0	10000	3	1	0	3	0
39	987	0	10000	3	1	0	3	0
38	988	0	10000	3	1	0	3	0
38	989	0	10000	3	1	0	3	0
40	990	0	10000	3	1	0	3	0
37	991	0	10000	3	1	0	3	0
38	991	0	10000	3	1	0	3	0
39	992	0	10000	3	1	0	3	0
38	994	0	10000	3	1	0	3	0
36	995	0	10000	3	1	0	3	0
36	996	0	10000	3	1	0	3	0
35	997	0	10000	3	1	0	3	0
34	998	0	10000	3	1	0	3	0
34	999	0	10000	3	1	0	3	0
34	1000	0	10000	3	1	0	3	0
36	1001	0	10000	3	1	0	3	0
184	2	1	10000	4	1	0	4	0
187	3	1	10000	4	1	0	4	0
190	4	1	10000	4	1	0	4	0
193	5	1	10000	4	1	0	4	0
195	6	1	10000	4	1	0	4	0
199	7	1	10000	4	1	0	4	0
201	8	1	10000	4	1	0	4	0
204	9	1	10000	4	1	0	4	0
205	10	1	10000	4	1	0	4	0
202	11	1	10000	4	1	0	4	0
201	12	1	10000	4	1	0	4	0
199	13	1	10000	4	1	0	4	0
197	14	1	10000	4	1	0	4	0
196	15	1	10000	4	1	0	4	0
195	16	1	10000	4	1	0	4	0
193	17	1	10000	4	1	0	4	0
192	18	1	10000	4	1	0	4	0
189	19	1	10000	4	1	0	4	0
189	20	1	10000	4	1	0	4	0
188	21	1	10000	4	1	0	4	0
185	22	1	10000	4	1	0	4	0
182	23	1	10000	4	1	0	4	0
178	24	1	10000	4	1	0	4	0
174	25	1	10000	4	1	0	4	0
169	26	1	10000	4	1	0	4	0
164	27	1	10000	4	1	0	4	0
161	28	1	10000	4	1	0	4	0
160	29	1	10000	4	1	0	4	0
155	30	1	10000	4	1	0	4	0
150	31	1	10000	4	1	0	4	0
147	32	1	10000	4	1	0	4	0
143	33	1	10000	4	1	0	4	0
139	34	1	10000	4	1	0	4	0
135	35	1	10000	4	1	0	4	0
130	36	1	10000	4	1	0	4	0
126	37	1	10000	4	1	0	4	0
120	38	1	10000	4	1	0	4	0
114	39	1	10000	4	1	0	4	0
111	40	1	10000	4	1	0	4	0
107	41	1	10000	4	1	0	4	0
103	42	1	10000	4	1	0	4	0
100	43	1	10000	4	1	0	4	0
96	44	1	10000	4	1	0	4	0
93	45	1	10000	4	1	0	4	0
92	46	1	10000	4	1	0	4	0
91	47	1	10000	4	1	0	4	0
89	48	1	10000	4	1	0	4	0
86	49	1	10000	4	1	0	4	0
81	50	1	10000	4	1	0	4	0
77	51	1	10000	4	1	0	4	0
75	52	1	10000	4	1	0	4	0
73	53	1	10000	4	1	0	4	0
71	54	1	10000	4	1	0	4	0
68	55	1	10000	4	1	0	4	0
65	56	1	10000	4	1	0	4	0
62	57	1	10000	4	1	0	4	0
59	58	1	10000	4	1	0	4	0
56	59	1	10000	4	1	0	4	0
56	60	1	10000	4	1	0	4	0
56	61	1	10000	4	1	0	4	0
54	62	1	10000	4	1	0	4	0
52	63	1	10000	4	1	0	4	0
49	64	1	10000	4	1	0	4	0
48	65	1	10000	4	1	0	4	0
45	66	1	10000	4	1	0	4	0
44	67	1	10000	4	1	0	4	0
43	68	1	10000	4	1	0	4	0
42	69	1	10000	4	1	0	4	0
39	70	1	10000	4	1	0	4	0
37	71	1	10000	4	1	0	4	0
36	72	1	10000	4	1	0	4	0
35	73	1	10000	4	1	0	4	0
35	74	1	10000	4	1	0	4	0
34	75	1	10000	4	1	0	4	0
34	76	1	10000	4	1	0	4	0
32	77	1	10000	4	1	0	4	0
31	78	1	10000	4	1	0	4	0
31	79	1	10000	4	1	0	4	0
31	80	1	10000	4	1	0	4	0
30	81	1	10000	4	1	0	4	0
30	82	1	10000	4	1	0	4	0
31	83	1	10000	4	1	0	4	0
31	84	1	10000	4	1	0	4	0
31	85	1	10000	4	1	0	4	0
30	86	1	10000	4	1	0	4	0
29	87	1	10000	4	1	0	4	0
29	88	1	10000	4	1	0	4	0
30	89	1	10000	4	1	0	4	0
28	90	1	10000	4	1	0	4	0
26	91	1	10000	4	1	0	4	0
26	92	1	10000	4	1	0	4	0
26	93	1	10000	4	1	0	4	0
28	94	1	10000	4	1	0	4	0
28	95	1	10000	4	1	0	4	0
28	96	1	10000	4	1	0	4	0
27	97	1	10000	4	1	0	4	0
25	98	1	10000	4	1	0	4	0
24	99	1	10000	4	1	0	4	0
26	100	1	10000	4	1	0	4	0
27	101	1	10000	4	1	0	4	0
25	102	1	10000	4	1	0	4	0
25	103	1	10000	4	1	0	4	0
24	104	1	10000	4	1	0	4	0
23	105	1	10000	4	1	0	4	0
23	106	1	10000	4	1	0	4	0
23	107	1	10000	4	1	0	4	0
22	108	1	10000	4	1	0	4	0
24	109	1	10000	4	1	0	4	0
23	110	1	10000	4	1	0	4	0
21	111	1	10000	4	1	0	4	0
21	112	1	10000	4	1	0	4	0
20	113	1	10000	4	1	0	4	0
20	114	1	10000	4	1	0	4	0
20	115	1	10000	4	1	0	4	0
20	116	1	10000	4	1	0	4	0
19	117	1	10000	4	1	0	4	0
19	118	1	10000	4	1	0	4	0
18	119	1	10000	4	1	0	4	0
20	120	1	10000	4	1	0	4	0
21	121	1	10000	4	1	0	4	0
22	122	1	10000	4	1	0	4	0
22	123	1	10000	4	1	0	4	0
21	124	1	10000	4	1	0	4	0
21	125	1	10000	4	1	0	4	0
21	126	1	10000	4	1	0	4	0
21	127	1	10000	4	1	0	4	0
22	128	1	10000	4	1	0	4	0
24	129	1	10000	4	1	0	4	0
22	130	1	10000	4	1	0	4	0
22	131	1	10000	4	1	0	4	0
21	132	1	10000	4	1	0	4	0
21	133	1	10000	4	1	0	4	0
20	134	1	10000	4	1	0	4	0
20	135	1	10000	4	1	0	4	0
19	136	1	10000	4	1	0	4	0
19	137	1	10000	4	1	0	4	0
18	138	1	10000	4	1	0	4	0
19	139	1	10000	4	1	0	4	0
21	140	1	10000	4	1	0	4	0
22	141	1	10000	4	1	0	4	0
22	142	1	10000	4	1	0	4	0
22	143	1	10000	4	1	0	4	0
21	144	1	10000	4	1	0	4	0
21	145	1	10000	4	1	0	4	0
21	146	1	10000	4	1	0	4	0
23	147	1	10000	4	1	0	4	0
23	148	1	10000	4	1	0	4	0
23	149	1	10000	4	1	0	4	0
22	150	1	10000	4	1	0	4	0
23	151	1	10000	4	1	0	4	0
23	152	1	10000	4	1	0	4	0
24	153	1	10000	4	1	0	4	0
25	154	1	10000	4	1	0	4	0
25	155	1	10000	4	1	0	4	0
24	156	1	10000	4	1	0	4	0
24	157	1	10000	4	1	0	4	0
22	158	1	10000	4	1	0	4	0
22	159	1	10000	4	1	0	4	0
25	160	1	10000	4	1	0	4	0
28	161	1	10000	4	1	0	4	0
32	162	1	10000	4	1	0	4	0
34	163	1	10000	4	1	0	4	0
34	164	1	10000	4	1	0	4	0
35	165	1	10000	4	1	0	4	0
33	166	1	10000	4	1	0	4	0
32	167	1	10000	4	1	0	4	0
32	168	1	10000	4	1	0	4	0
33	169	1	10000	4	1	0	4	0
32	170	1	10000	4	1	0	4	0
31	171	1	10000	4	1	0	4	0
31	172	1	10000	4	1	0	4	0
31	173	1	10000	4	1	0	4	0
32	174	1	10000	4	1	0	4	0
32	175	1	10000	4	1	0	4	0
33	176	1	10000	4	1	0	4	0
32	177	1	10000	4	1	0	4	0
31	178	1	10000	4	1	0	4	0
31	179	1	10000	4	1	0	4	0
31	180	1	10000	4	1	0	4	0
31	181	1	10000	4	1	0	4	0
29	182	1	10000	4	1	0	4	0
29	183	1	10000	4	1	0	4	0
27	184	1	10000	4	1	0	4	0
27	185	1	10000	4	1	0	4	0
27	186	1	10000	4	1	0	4	0
27	187	1	10000	4	1	0	4	0
26	188	1	10000	4	1	0	4	0
26	189	1	10000	4	1	0	4	0
26	190	1	10000	4	1	0	4	0
25	191	1	10000	4	1	0	4	0
25	192	1	10000	4	1	0	4	0
25	193	1	10000	4	1	0	4	0
26	194	1	10000	4	1	0	4	0
26	195	1	10000	4	1	0	4	0
24	196	1	10000	4	1	0	4	0
24	197	1	10000	4	1	0	4	0
23	198	1	10000	4	1	0	4	0
22	199	1	10000	4	1	0	4	0
23	200	1	10000	4	1	0	4	0
23	201	1	10000	4	1	0	4	0
22	202	1	10000	4	1	0	4	0
21	203	1	10000	4	1	0	4	0
20	204	1	10000	4	1	0	4	0
21	205	1	10000	4	1	0	4	0
21	206	1	10000	4	1	0	4	0
21	207	1	10000	4	1	0	4	0
21	208	1	10000	4	1	0	4	0
21	209	1	10000	4	1	0	4	0
21	210	1	10000	4	1	0	4	0
22	211	1	10000	4	1	0	4	0
24	212	1	10000	4	1	0	4	0
23	213	1	10000	4	1	0	4	0
22	214	1	10000	4	1	0	4	0
22	215	1	10000	4	1	0	4	0
21	216	1	10000	4	1	0	4	0
21	217	1	10000	4	1	0	4	0
22	218	1	10000	4	1	0	4	0
22	219	1	10000	4	1	0	4	0
24	220	1	10000	4	1	0	4	0
25	221	1	10000	4	1	0	4	0
23	222	1	10000	4	1	0	4	0
24	223	1	10000	4	1	0	4	0
24	224	1	10000	4	1	0	4	0
24	225	1	10000	4	1	0	4	0
25	226	1	10000	4	1	0	4	0
24	227	1	10000	4	1	0	4	0
23	228	1	10000	4	1	0	4	0
23	229	1	10000	4	1	0	4	0
21	230	1	10000	4	1	0	4	0
20	231	1	10000	4	1	0	4	0
21	232	1	10000	4	1	0	4	0
21	233	1	10000	4	1	0	4	0
21	234	1	10000	4	1	0	4	0
20	235	1	10000	4	1	0	4	0
20	236	1	10000	4	1	0	4	0
21	237	1	10000	4	1	0	4	0
21	238	1	10000	4	1	0	4	0
20	239	1	10000	4	1	0	4	0
21	240	1	10000	4	1	0	4	0
20	241	1	10000	4	1	0	4	0
20	242	1	10000	4	1	0	4	0
21	243	1	10000	4	1	0	4	0
21	244	1	10000	4	1	0	4	0
20	245	1	10000	4	1	0	4	0
20	246	1	10000	4	1	0	4	0
20	247	1	10000	4	1	0	4	0
21	248	1	10000	4	1	0	4	0
21	249	1	10000	4	1	0	4	0
19	250	1	10000	4	1	0	4	0
19	251	1	10000	4	1	0	4	0
20	252	1	10000	4	1	0	4	0
19	253	1	10000	4	1	0	4	0
20	254	1	10000	4	1	0	4	0
20	255	1	10000	4	1	0	4	0
20	256	1	10000	4	1	0	4	0
19	257	1	10000	4	1	0	4	0
18	258	1	10000	4	1	0	4	0
18	259	1	10000	4	1	0	4	0
18	260	1	10000	4	1	0	4	0
19	261	1	10000	4	1	0	4	0
19	262	1	10000	4	1	0	4	0
17	263	1	10000	4	1	0	4	0
17	264	1	10000	4	1	0	4	0
17	265	1	10000	4	1	0	4	0
17	266	1	10000	4	1	0	4	0
17	267	1	10000	4	1	0	4	0
16	268	1	10000	4	1	0	4	0
18	269	1	10000	4	1	0	4	0
16	270	1	10000	4	1	0	4	0
15	271	1	10000	4	1	0	4	0
18	272	1	10000	4	1	0	4	0
20	273	1	10000	4	1	0	4	0
21	274	1	10000	4	1	0	4	0
21	275	1	10000	4	1	0	4	0
21	276	1	10000	4	1	0	4	0
20	277	1	10000	4	1	0	4	0
20	278	1	10000	4	1	0	4	0
19	279	1	10000	4	1	0	4	0
19	280	1	10000	4	1	0	4	0
19	281	1	10000	4	1	0	4	0
19	282	1	10000	4	1	0	4	0
18	283	1	10000	4	1	0	4	0
18	284	1	10000	4	1	0	4	0
18	285	1	10000	4	1	0	4	0
17	286	1	10000	4	1	0	4	0
17	287	1	10000	4	1	0	4	0
17	288	1	10000	4	1	0	4	0
17	289	1	10000	4	1	0	4	0
16	290	1	10000	4	1	0	4	0
15	291	1	10000	4	1	0	4	0
15	292	1	10000	4	1	0	4	0
14	293	1	10000	4	1	0	4	0
14	294	1	10000	4	1	0	4	0
14	295	1	10000	4	1	0	4	0
14	296	1	10000	4	1	0	4	0
13	297	1	10000	4	1	0	4	0
14	298	1	10000	4	1	0	4	0
13	299	1	10000	4	1	0	4	0
13	300	1	10000	4	1	0	4	0
16	301	1	10000	4	1	0	4	0
15	302	1	10000	4	1	0	4	0
16	303	1	10000	4	1	0	4	0
16	304	1	10000	4	1	0	4	0
15	305	1	10000	4	1	0	4	0
15	306	1	10000	4	1	0	4	0
15	307	1	10000	4	1	0	4	0
17	308	1	10000	4	1	0	4	0
18	309	1	10000	4	1	0	4	0
16	310	1	10000	4	1	0	4	0
15	311	1	10000	4	1	0	4	0
15	312	1	10000	4	1	0	4	0
15	313	1	10000	4	1	0	4	0
14	314	1	10000	4	1	0	4	0
16	315	1	10000	4	1	0	4	0
16	316	1	10000	4	1	0	4	0
14	317	1	10000	4	1	0	4	0
14	318	1	10000	4	1	0	4	0
12	319	1	10000	4	1	0	4	0
14	320	1	10000	4	1	0	4	0
15	321	1	10000	4	1	0	4	0
16	322	1	10000	4	1	0	4	0
17	323	1	10000	4	1	0	4	0
16	324	1	10000	4	1	0	4	0
16	325	1	10000	4	1	0	4	0
15	326	1	10000	4	1	0	4	0
15	327	1	10000	4	1	0	4	0
14	328	1	10000	4	1	0	4	0
16	329	1	10000	4	1	0	4	0
15	330	1	10000	4	1	0	4	0
14	331	1	10000	4	1	0	4	0
14	332	1	10000	4	1	0	4	0
13	333	1	10000	4	1	0	4	0
14	334	1	10000	4	1	0	4	0
14	335	1	10000	4	1	0	4	0
15	336	1	10000	4	1	0	4	0
14	337	1	10000	4	1	0	4	0
15	338	1	10000	4	1	0	4	0
15	339	1	10000	4	1	0	4	0
18	340	1	10000	4	1	0	4	0
19	341	1	10000	4	1	0	4	0
19	342	1	10000	4	1	0	4	0
19	343	1	10000	4	1	0	4	0
19	344	1	10000	4	1	0	4	0
20	345	1	10000	4	1	0	4	0
18	346	1	10000	4	1	0	4	0
17	347	1	10000	4	1	0	4	0
18	348	1	10000	4	1	0	4	0
17	349	1	10000	4	1	0	4	0
15	350	1	10000	4	1	0	4	0
15	351	1	10000	4	1	0	4	0
15	352	1	10000	4	1	0	4	0
16	353	1	10000	4	1	0	4	0
16	354	1	10000	4	1	0	4	0
15	355	1	10000	4	1	0	4	0
16	356	1	10000	4	1	0	4	0
15	357	1	10000	4	1	0	4	0
14	358	1	10000	4	1	0	4	0
14	359	1	10000	4	1	0	4	0
16	360	1	10000	4	1	0	4	0
18	361	1	10000	4	1	0	4	0
18	362	1	10000	4	1	0	4	0
18	363	1	10000	4	1	0	4	0
18	364	1	10000	4	1	0	4	0
19	365	1	10000	4	1	0	4	0
18	366	1	10000	4	1	0	4	0
17	367	1	10000	4	1	0	4	0
17	368	1	10000	4	1	0	4	0
18	369	1	10000	4	1	0	4	0
18	370	1	10000	4	1	0	4	0
16	371	1	10000	4	1	0	4	0
18	372	1	10000	4	1	0	4	0
18	373	1	10000	4	1	0	4	0
19	374	1	10000	4	1	0	4	0
19	375	1	10000	4	1	0	4	0
19	376	1	10000	4	1	0	4	0
19	377	1	10000	4	1	0	4	0
17	378	1	10000	4	1	0	4	0
18	379	1	10000	4	1	0	4	0
19	380	1	10000	4	1	0	4	0
21	381	1	10000	4	1	0	4	0
21	382	1	10000	4	1	0	4	0
23	383	1	10000	4	1	0	4	0
29	384	1	10000	4	1	0	4	0
35	385	1	10000	4	1	0	4	0
43	386	1	10000	4	1	0	4	0
50	387	1	10000	4	1	0	4	0
56	388	1	10000	4	1	0	4	0
60	389	1	10000	4	1	0	4	0
60	390	1	10000	4	1	0	4	0
58	391	1	10000	4	1	0	4	0
56	392	1	10000	4	1	0	4	0
55	393	1	10000	4	1	0	4	0
59	394	1	10000	4	1	0	4	0
66	395	1	10000	4	1	0	4	0
67	396	1	10000	4	1	0	4	0
65	397	1	10000	4	1	0	4	0
62	398	1	10000	4	1	0	4	0
61	399	1	10000	4	1	0	4	0
76	400	1	10000	4	1	0	4	0
92	401	1	10000	4	1	0	4	0
97	402	1	10000	4	1	0	4	0
94	403	1	10000	4	1	0	4	0
91	404	1	10000	4	1	0	4	0
89	405	1	10000	4	1	0	4	0
89	406	1	10000	4	1	0	4	0
85	407	1	10000	4	1	0	4	0
83	408	1	10000	4	1	0	4	0
88	409	1	10000	4	1	0	4	0
92	410	1	10000	4	1	0	4	0
101	411	1	10000	4	1	0	4	0
122	412	1	10000	4	1	0	4	0
146	413	1	10000	4	1	0	4	0
164	414	1	10000	4	1	0	4	0
172	415	1	10000	4	1	0	4	0
173	416	1	10000	4	1	0	4	0
178	417	1	10000	4	1	0	4	0
185	418	1	10000	4	1	0	4	0
192	419	1	10000	4	1	0	4	0
195	420	1	10000	4	1	0	4	0
193	421	1	10000	4	1	0	4	0
194	422	1	10000	4	1	0	4	0
194	423	1	10000	4	1	0	4	0
192	424	1	10000	4	1	0	4	0
188	425	1	10000	4	1	0	4	0
184	426	1	10000	4	1	0	4	0
176	427	1	10000	4	1	0	4	0
170	428	1	10000	4	1	0	4	0
169	429	1	10000	4	1	0	4	0
163	430	1	10000	4	1	0	4	0
162	431	1	10000	4	1	0	4	0
162	432	1	10000	4	1	0	4	0
164	433	1	10000	4	1	0	4	0
164	434	1	10000	4	1	0	4	0
164	435	1	10000	4	1	0	4	0
164	436	1	10000	4	1	0	4	0
163	437	1	10000	4	1	0	4	0
162	438	1	10000	4	1	0	4	0
158	439	1	10000	4	1	0	4	0
156	440	1	10000	4	1	0	4	0
152	441	1	10000	4	1	0	4	0
154	442	1	10000	4	1	0	4	0
156	443	1	10000	4	1	0	4	0
156	444	1	10000	4	1	0	4	0
157	445	1	10000	4	1	0	4	0
155	446	1	10000	4	1	0	4	0
150	447	1	10000	4	1	0	4	0
144	448	1	10000	4	1	0	4	0
140	449	1	10000	4	1	0	4	0
134	450	1	10000	4	1	0	4	0
134	451	1	10000	4	1	0	4	0
143	452	1	10000	4	1	0	4	0
157	453	1	10000	4	1	0	4	0
171	454	1	10000	4	1	0	4	0
182	455	1	10000	4	1	0	4	0
191	456	1	10000	4	1	0	4	0
198	457	1	10000	4	1	0	4	0
201	458	1	10000	4	1	0	4	0
202	459	1	10000	4	1	0	4	0
205	460	1	10000	4	1	0	4	0
209	461	1	10000	4	1	0	4	0
212	462	1	10000	4	1	0	4	0
213	463	1	10000	4	1	0	4	0
213	464	1	10000	4	1	0	4	0
214	465	1	10000	4	1	0	4	0
214	466	1	10000	4	1	0	4	0
215	467	1	10000	4	1	0	4	0
215	468	1	10000	4	1	0	4	0
218	469	1	10000	4	1	0	4	0
220	470	1	10000	4	1	0	4	0
221	471	1	10000	4	1	0	4	0
223	472	1	10000	4	1	0	4	0
223	473	1	10000	4	1	0	4	0
223	474	1	10000	4	1	0	4	0
223	475	1	10000	4	1	0	4	0
224	476	1	10000	4	1	0	4	0
225	477	1	10000	4	1	0	4	0
225	478	1	10000	4	1	0	4	0
224	479	1	10000	4	1	0	4	0
224	480	1	10000	4	1	0	4	0
224	481	1	10000	4	1	0	4	0
223	482	1	10000	4	1	0	4	0
223	483	1	10000	4	1	0	4	0
224	484	1	10000	4	1	0	4	0
227	485	1	10000	4	1	0	4	0
230	486	1	10000	4	1	0	4	0
231	487	1	10000	4	1	0	4	0
234	488	1	10000	4	1	0	4	0
236	489	1	10000	4	1	0	4	0
238	490	1	10000	4	1	0	4	0
241	491	1	10000	4	1	0	4	0
244	492	1	10000	4	1	0	4	0
246	493	1	10000	4	1	0	4	0
248	494	1	10000	4	1	0	4	0
250	495	1	10000	4	1	0	4	0
252	496	1	10000	4	1	0	4	0
254	497	1	10000	4	1	0	4	0
257	498	1	10000	4	1	0	4	0
258	499	1	10000	4	1	0	4	0
261	500	1	10000	4	1	0	4	0
264	501	1	10000	4	1	0	4	0
263	502	1	10000	4	1	0	4	1
263	503	1	10000	4	1	0	4	1
264	504	1	10000	4	1	0	4	1
265	505	1	10000	4	1	0	4	1
265	506	1	10000	4	1	0	4	1
262	507	1	10000	4	1	0	4	1
259	508	1	10000	4	1	0	4	1
257	509	1	10000	4	1	0	4	1
252	510	1	10000	4	1	0	4	1
249	511	1	10000	4	1	0	4	1
245	512	1	10000	4	1	0	4	1
238	513	1	10000	4	1	0	4	1
232	514	1	10000	4	1	0	4	1
225	515	1	10000	4	1	0	4	1
219	516	1	10000	4	1	0	4	1
213	517	1	10000	4	1	0	4	1
205	518	1	10000	4	1	0	4	1
198	519	1	10000	4	1	0	4	1
191	520	1	10000	4	1	0	4	1
185	521	1	10000	4	1	0	4	1
177	522	1	10000	4	1	0	4	1
169	523	1	10000	4	1	0	4	1
161	524	1	10000	4	1	0	4	1
154	525	1	10000	4	1	0	4	1
148	526	1	10000	4	1	0	4	1
141	527	1	10000	4	1	0	4	1
136	528	1	10000	4	1	0	4	1
129	529	1	10000	4	1	0	4	1
123	530	1	10000	4	1	0	4	1
118	531	1	10000	4	1	0	4	1
114	532	1	10000	4	1	0	4	1
111	533	1	10000	4	1	0	4	1
109	534	1	10000	4	1	0	4	1
106	535	1	10000	4	1	0	4	1
104	536	1	10000	4	1	0	4	1
102	537	1	10000	4	1	0	4	1
101	538	1	10000	4	1	0	4	1
98	539	1	10000	4	1	0	4	1
97	540	1	10000	4	1	0	4	1
98	541	1	10000	4	1	0	4	1
97	542	1	10000	4	1	0	4	1
94	543	1	10000	4	1	0	4	1
94	544	1	10000	4	1	0	4	1
94	545	1	10000	4	1	0	4	1
93	546	1	10000	4	1	0	4	1
93	547	1	10000	4	1	0	4	1
92	548	1	10000	4	1	0	4	1
91	549	1	10000	4	1	0	4	1
91	550	1	10000	4	1	0	4	1
89	551	1	10000	4	1	0	4	1
90	552	1	10000	4	1	0	4	0
92	553	1	10000	4	1	0	4	0
94	554	1	10000	4	1	0	4	0
94	555	1	10000	4	1	0	4	0
95	556	1	10000	4	1	0	4	0
95	557	1	10000	4	1	0	4	0
96	558	1	10000	4	1	0	4	0
97	559	1	10000	4	1	0	4	0
99	560	1	10000	4	1	0	4	0
100	561	1	10000	4	1	0	4	0
101	562	1	10000	4	1	0	4	0
102	563	1	10000	4	1	0	4	0
103	564	1	10000	4	1	0	4	0
104	565	1	10000	4	1	0	4	0
105	566	1	10000	4	1	0	4	0
108	567	1	10000	4	1	0	4	0
110	568	1	10000	4	1	0	4	0
111	569	1	10000	4	1	0	4	0
111	570	1	10000	4	1	0	4	0
110	571	1	10000	4	1	0	4	0
111	572	1	10000	4	1	0	4	0
113	573	1	10000	4	1	0	4	0
113	574	1	10000	4	1	0	4	0
112	575	1	10000	4	1	0	4	0
112	576	1	10000	4	1	0	4	0
112	577	1	10000	4	1	0	4	0
113	578	1	10000	4	1	0	4	0
112	579	1	10000	4	1	0	4	0
115	580	1	10000	4	1	0	4	0
117	581	1	10000	4	1	0	4	0
117	582	1	10000	4	1	0	4	0
116	583	1	10000	4	1	0	4	0
127	584	1	10000	4	1	0	4	0
149	585	1	10000	4	1	0	4	0
163	586	1	10000	4	1	0	4	0
176	587	1	10000	4	1	0	4	0
200	588	1	10000	4	1	0	4	0
251	589	1	10000	4	1	0	4	0
310	590	1	10000	4	1	0	4	0
356	591	1	10000	4	1	0	4	0
393	592	1	10000	4	1	0	4	0
438	593	1	10000	4	1	0	4	0
472	594	1	10000	4	1	0	4	0
474	595	1	10000	4	1	0	4	0
463	596	1	10000	4	1	0	4	0
453	597	1	10000	4	1	0	4	0
438	598	1	10000	4	1	0	4	0
420	599	1	10000	4	1	0	4	0
412	600	1	10000	4	1	0	4	0
453	601	1	10000	4	1	0	4	0
521	602	1	10000	4	1	0	4	0
604	603	1	10000	4	1	0	4	0
662	604	1	10000	4	1	0	4	0
665	605	1	10000	4	1	0	4	0
671	606	1	10000	4	1	0	4	0
706	607	1	10000	4	1	0	4	0
699	608	1	10000	4	1	0	4	0
680	609	1	10000	4	1	0	4	0
715	610	1	10000	4	1	0	4	0
756	611	1	10000	4	1	0	4	0
770	612	1	10000	4	1	0	4	0
756	613	1	10000	4	1	0	4	0
754	614	1	10000	4	1	0	4	0
765	615	1	10000	4	1	0	4	0
770	616	1	10000	4	1	0	4	0
778	617	1	10000	4	1	0	4	0
795	618	1	10000	4	1	0	4	0
809	619	1	10000	4	1	0	4	0
801	620	1	10000	4	1	0	4	0
770	621	1	10000	4	1	0	4	0
758	622	1	10000	4	1	0	4	0
764	623	1	10000	4	1	0	4	0
776	624	1	10000	4	1	0	4	0
786	625	1	10000	4	1	0	4	0
791	626	1	10000	4	1	0	4	0
789	627	1	10000	4	1	0	4	0
784	628	1	10000	4	1	0	4	0
772	629	1	10000	4	1	0	4	0
750	630	1	10000	4	1	0	4	0
725	631	1	10000	4	1	0	4	0
705	632	1	10000	4	1	0	4	0
685	633	1	10000	4	1	0	4	0
663	634	1	10000	4	1	0	4	0
639	635	1	10000	4	1	0	4	0
611	636	1	10000	4	1	0	4	0
582	637	1	10000	4	1	0	4	0
557	638	1	10000	4	1	0	4	0
533	639	1	10000	4	1	0	4	0
509	640	1	10000	4	1	0	4	0
489	641	1	10000	4	1	0	4	0
470	642	1	10000	4	1	0	4	0
455	643	1	10000	4	1	0	4	0
444	644	1	10000	4	1	0	4	0
438	645	1	10000	4	1	0	4	0
434	646	1	10000	4	1	0	4	0
436	647	1	10000	4	1	0	4	0
448	648	1	10000	4	1	0	4	0
464	649	1	10000	4	1	0	4	0
480	650	1	10000	4	1	0	4	0
501	651	1	10000	4	1	0	4	0
520	652	1	10000	4	1	0	4	0
531	653	1	10000	4	1	0	4	0
537	654	1	10000	4	1	0	4	0
540	655	1	10000	4	1	0	4	0
544	656	1	10000	4	1	0	4	0
548	657	1	10000	4	1	0	4	0
549	658	1	10000	4	1	0	4	0
547	659	1	10000	4	1	0	4	0
546	660	1	10000	4	1	0	4	0
543	661	1	10000	4	1	0	4	0
541	662	1	10000	4	1	0	4	0
547	663	1	10000	4	1	0	4	0
551	664	1	10000	4	1	0	4	0
546	665	1	10000	4	1	0	4	0
539	666	1	10000	4	1	0	4	0
530	667	1	10000	4	1	0	4	0
519	668	1	10000	4	1	0	4	0
510	669	1	10000	4	1	0	4	0
500	670	1	10000	4	1	0	4	0
487	671	1	10000	4	1	0	4	0
474	672	1	10000	4	1	0	4	0
460	673	1	10000	4	1	0	4	0
444	674	1	10000	4	1	0	4	0
428	675	1	10000	4	1	0	4	0
409	676	1	10000	4	1	0	4	0
393	677	1	10000	4	1	0	4	0
381	678	1	10000	4	1	0	4	0
371	679	1	10000	4	1	0	4	0
365	680	1	10000	4	1	0	4	0
361	681	1	10000	4	1	0	4	0
357	682	1	10000	4	1	0	4	0
353	683	1	10000	4	1	0	4	0
350	684	1	10000	4	1	0	4	0
345	685	1	10000	4	1	0	4	0
341	686	1	10000	4	1	0	4	0
335	687	1	10000	4	1	0	4	0
330	688	1	10000	4	1	0	4	0
322	689	1	10000	4	1	0	4	0
312	690	1	10000	4	1	0	4	0
301	691	1	10000	4	1	0	4	0
291	692	1	10000	4	1	0	4	0
284	693	1	10000	4	1	0	4	0
278	694	1	10000	4	1	0	4	0
274	695	1	10000	4	1	0	4	0
273	696	1	10000	4	1	0	4	0
277	697	1	10000	4	1	0	4	0
280	698	1	10000	4	1	0	4	0
284	699	1	10000	4	1	0	4	0
291	700	1	10000	4	1	0	4	0
297	701	1	10000	4	1	0	4	0
301	702	1	10000	4	1	0	4	0
305	703	1	10000	4	1	0	4	0
306	704	1	10000	4	1	0	4	0
306	705	1	10000	4	1	0	4	0
305	706	1	10000	4	1	0	4	0
300	707	1	10000	4	1	0	4	0
294	708	1	10000	4	1	0	4	0
288	709	1	10000	4	1	0	4	0
282	710	1	10000	4	1	0	4	0
278	711	1	10000	4	1	0	4	0
274	712	1	10000	4	1	0	4	0
270	713	1	10000	4	1	0	4	0
268	714	1	10000	4	1	0	4	0
267	715	1	10000	4	1	0	4	0
269	716	1	10000	4	1	0	4	0
271	717	1	10000	4	1	0	4	0
273	718	1	10000	4	1	0	4	0
276	719	1	10000	4	1	0	4	0
280	720	1	10000	4	1	0	4	0
283	721	1	10000	4	1	0	4	0
286	722	1	10000	4	1	0	4	0
289	723	1	10000	4	1	0	4	0
292	724	1	10000	4	1	0	4	0
293	725	1	10000	4	1	0	4	0
291	726	1	10000	4	1	0	4	0
287	727	1	10000	4	1	0	4	0
280	728	1	10000	4	1	0	4	0
272	729	1	10000	4	1	0	4	0
261	730	1	10000	4	1	0	4	0
249	731	1	10000	4	1	0	4	0
238	732	1	10000	4	1	0	4	0
227	733	1	10000	4	1	0	4	0
217	734	1	10000	4	1	0	4	0
209	735	1	10000	4	1	0	4	0
202	736	1	10000	4	1	0	4	0
194	737	1	10000	4	1	0	4	0
187	738	1	10000	4	1	0	4	0
180	739	1	10000	4	1	0	4	0
176	740	1	10000	4	1	0	4	0
173	741	1	10000	4	1	0	4	0
171	742	1	10000	4	1	0	4	0
166	743	1	10000	4	1	0	4	0
160	744	1	10000	4	1	0	4	0
153	745	1	10000	4	1	0	4	0
147	746	1	10000	4	1	0	4	0
144	747	1	10000	4	1	0	4	0
140	748	1	10000	4	1	0	4	0
139	749	1	10000	4	1	0	4	0
138	750	1	10000	4	1	0	4	0
135	751	1	10000	4	1	0	4	0
133	752	1	10000	4	1	0	4	0
131	753	1	10000	4	1	0	4	0
130	754	1	10000	4	1	0	4	0
127	755	1	10000	4	1	0	4	0
123	756	1	10000	4	1	0	4	0
117	757	1	10000	4	1	0	4	0
113	758	1	10000	4	1	0	4	0
112	759	1	10000	4	1	0	4	0
114	760	1	10000	4	1	0	4	0
118	761	1	10000	4	1	0	4	0
118	762	1	10000	4	1	0	4	0
118	763	1	10000	4	1	0	4	0
115	764	1	10000	4	1	0	4	0
111	765	1	10000	4	1	0	4	0
111	766	1	10000	4	1	0	4	0
113	767	1	10000	4	1	0	4	0
112	768	1	10000	4	1	0	4	0
113	769	1	10000	4	1	0	4	0
116	770	1	10000	4	1	0	4	0
118	771	1	10000	4	1	0	4	0
119	772	1	10000	4	1	0	4	0
116	773	1	10000	4	1	0	4	0
114	774	1	10000	4	1	0	4	0
110	775	1	10000	4	1	0	4	0
106	776	1	10000	4	1	0	4	0
101	777	1	10000	4	1	0	4	0
98	778	1	10000	4	1	0	4	0
95	779	1	10000	4	1	0	4	0
93	780	1	10000	4	1	0	4	0
92	781	1	10000	4	1	0	4	0
90	782	1	10000	4	1	0	4	0
88	783	1	10000	4	1	0	4	0
84	784	1	10000	4	1	0	4	0
81	785	1	10000	4	1	0	4	0
79	786	1	10000	4	1	0	4	0
77	787	1	10000	4	1	0	4	0
78	788	1	10000	4	1	0	4	0
81	789	1	10000	4	1	0	4	0
84	790	1	10000	4	1	0	4	0
88	791	1	10000	4	1	0	4	0
91	792	1	10000	4	1	0	4	0
91	793	1	10000	4	1	0	4	0
92	794	1	10000	4	1	0	4	0
90	795	1	10000	4	1	0	4	0
92	796	1	10000	4	1	0	4	0
93	797	1	10000	4	1	0	4	0
92	798	1	10000	4	1	0	4	0
90	799	1	10000	4	1	0	4	0
88	800	1	10000	4	1	0	4	0
85	801	1	10000	4	1	0	4	0
82	802	1	10000	4	1	0	4	0
80	803	1	10000	4	1	0	4	0
78	804	1	10000	4	1	0	4	0
75	805	1	10000	4	1	0	4	0
72	806	1	10000	4	1	0	4	0
70	807	1	10000	4	1	0	4	0
69	808	1	10000	4	1	0	4	0
67	809	1	10000	4	1	0	4	0
65	810	1	10000	4	1	0	4	0
64	811	1	10000	4	1	0	4	0
63	812	1	10000	4	1	0	4	0
63	813	1	10000	4	1	0	4	0
61	814	1	10000	4	1	0	4	0
58	815	1	10000	4	1	0	4	0
56	816	1	10000	4	1	0	4	0
56	817	1	10000	4	1	0	4	0
54	818	1	10000	4	1	0	4	0
53	819	1	10000	4	1	0	4	0
55	820	1	10000	4	1	0	4	0
56	821	1	10000	4	1	0	4	0
54	822	1	10000	4	1	0	4	0
51	823	1	10000	4	1	0	4	0
51	824	1	10000	4	1	0	4	0
50	825	1	10000	4	1	0	4	0
49	826	1	10000	4	1	0	4	0
48	827	1	10000	4	1	0	4	0
47	828	1	10000	4	1	0	4	0
47	829	1	10000	4	1	0	4	0
47	830	1	10000	4	1	0	4	0
50	831	1	10000	4	1	0	4	0
54	832	1	10000	4	1	0	4	0
57	833	1	10000	4	1	0	4	0
56	834	1	10000	4	1	0	4	0
54	835	1	10000	4	1	0	4	0
52	836	1	10000	4	1	0	4	0
51	837	1	10000	4	1	0	4	0
51	838	1	10000	4	1	0	4	0
51	839	1	10000	4	1	0	4	0
53	840	1	10000	4	1	0	4	0
55	841	1	10000	4	1	0	4	0
55	842	1	10000	4	1	0	4	0
55	843	1	10000	4	1	0	4	0
54	844	1	10000	4	1	0	4	0
54	845	1	10000	4	1	0	4	0
55	846	1	10000	4	1	0	4	0
58	847	1	10000	4	1	0	4	0
61	848	1	10000	4	1	0	4	0
65	849	1	10000	4	1	0	4	0
68	850	1	10000	4	1	0	4	0
74	851	1	10000	4	1	0	4	0
76	852	1	10000	4	1	0	4	0
74	853	1	10000	4	1	0	4	0
72	854	1	10000	4	1	0	4	0
70	855	1	10000	4	1	0	4	0
68	856	1	10000	4	1	0	4	0
68	857	1	10000	4	1	0	4	0
67	858	1	10000	4	1	0	4	0
63	859	1	10000	4	1	0	4	0
64	860	1	10000	4	1	0	4	0
67	861	1	10000	4	1	0	4	0
69	862	1	10000	4	1	0	4	0
75	863	1	10000	4	1	0	4	0
78	864	1	10000	4	1	0	4	0
77	865	1	10000	4	1	0	4	0
74	866	1	10000	4	1	0	4	0
71	867	1	10000	4	1	0	4	0
70	868	1	10000	4	1	0	4	0
68	869	1	10000	4	1	0	4	0
65	870	1	10000	4	1	0	4	0
61	871	1	10000	4	1	0	4	0
59	872	1	10000	4	1	0	4	0
57	873	1	10000	4	1	0	4	0
57	874	1	10000	4	1	0	4	0
57	875	1	10000	4	1	0	4	0
55	876	1	10000	4	1	0	4	0
53	877	1	10000	4	1	0	4	0
50	878	1	10000	4	1	0	4	0
50	879	1	10000	4	1	0	4	0
51	880	1	10000	4	1	0	4	0
53	881	1	10000	4	1	0	4	0
51	882	1	10000	4	1	0	4	0
50	883	1	10000	4	1	0	4	0
47	884	1	10000	4	1	0	4	0
47	885	1	10000	4	1	0	4	0
44	886	1	10000	4	1	0	4	0
42	887	1	10000	4	1	0	4	0
41	888	1	10000	4	1	0	4	0
41	889	1	10000	4	1	0	4	0
39	890	1	10000	4	1	0	4	0
39	891	1	10000	4	1	0	4	0
40	892	1	10000	4	1	0	4	0
39	893	1	10000	4	1	0	4	0
40	894	1	10000	4	1	0	4	0
38	895	1	10000	4	1	0	4	0
38	896	1	10000	4	1	0	4	0
37	897	1	10000	4	1	0	4	0
35	898	1	10000	4	1	0	4	0
35	899	1	10000	4	1	0	4	0
37	900	1	10000	4	1	0	4	0
41	901	1	10000	4	1	0	4	0
42	902	1	10000	4	1	0	4	0
40	903	1	10000	4	1	0	4	0
39	904	1	10000	4	1	0	4	0
39	905	1	10000	4	1	0	4	0
40	906	1	10000	4	1	0	4	0
41	907	1	10000	4	1	0	4	0
45	908	1	10000	4	1	0	4	0
46	909	1	10000	4	1	0	4	0
46	910	1	10000	4	1	0	4	0
45	911	1	10000	4	1	0	4	0
46	912	1	10000	4	1	0	4	0
47	913	1	10000	4	1	0	4	0
46	914	1	10000	4	1	0	4	0
44	915	1	10000	4	1	0	4	0
44	916	1	10000	4	1	0	4	0
45	917	1	10000	4	1	0	4	0
48	918	1	10000	4	1	0	4	0
51	919	1	10000	4	1	0	4	0
50	920	1	10000	4	1	0	4	0
51	921	1	10000	4	1	0	4	0
53	922	1	10000	4	1	0	4	0
58	923	1	10000	4	1	0	4	0
65	924	1	10000	4	1	0	4	0
74	925	1	10000	4	1	0	4	0
86	926	1	10000	4	1	0	4	0
94	927	1	10000	4	1	0	4	0
96	928	1	10000	4	1	0	4	0
95	929	1	10000	4	1	0	4	0
93	930	1	10000	4	1	0	4	0
90	931	1	10000	4	1	0	4	0
92	932	1	10000	4	1	0	4	0
97	933	1	10000	4	1	0	4	0
102	934	1	10000	4	1	0	4	0
105	935	1	10000	4	1	0	4	0
107	936	1	10000	4	1	0	4	0
104	937	1	10000	4	1	0	4	0
106	938	1	10000	4	1	0	4	0
107	939	1	10000	4	1	0	4	0
105	940	1	10000	4	1	0	4	0
104	941	1	10000	4	1	0	4	0
100	942	1	10000	4	1	0	4	0
95	943	1	10000	4	1	0	4	0
93	944	1	10000	4	1	0	4	0
93	945	1	10000	4	1	0	4	0
95	946	1	10000	4	1	0	4	0
95	947	1	10000	4	1	0	4	0
94	948	1	10000	4	1	0	4	0
94	949	1	10000	4	1	0	4	0
92	950	1	10000	4	1	0	4	0
92	951	1	10000	4	1	0	4	0
96	952	1	10000	4	1	0	4	0
95	953	1	10000	4	1	0	4	0
97	954	1	10000	4	1	0	4	0
104	955	1	10000	4	1	0	4	0
108	956	1	10000	4	1	0	4	0
108	957	1	10000	4	1	0	4	0
107	958	1	10000	4	1	0	4	0
106	959	1	10000	4	1	0	4	0
108	960	1	10000	4	1	0	4	0
108	961	1	10000	4	1	0	4	0
105	962	1	10000	4	1	0	4	0
105	963	1	10000	4	1	0	4	0
103	964	1	10000	4	1	0	4	0
103	965	1	10000	4	1	0	4	0
102	966	1	10000	4	1	0	4	0
104	967	1	10000	4	1	0	4	0
106	968	1	10000	4	1	0	4	0
104	969	1	10000	4	1	0	4	0
107	970	1	10000	4	1	0	4	0
104	971	1	10000	4	1	0	4	0
107	972	1	10000	4	1	0	4	0
109	973	1	10000	4	1	0	4	0
106	974	1	10000	4	1	0	4	0
103	975	1	10000	4	1	0	4	0
99	976	1	10000	4	1	0	4	0
96	977	1	10000	4	1	0	4	0
91	978	1	10000	4	1	0	4	0
87	979	1	10000	4	1	0	4	0
86	980	1	10000	4	1	0	4	0
84	981	1	10000	4	1	0	4	0
81	982	1	10000	4	1	0	4	0
78	983	1	10000	4	1	0	4	0
74	984	1	10000	4	1	0	4	0
71	985	1	10000	4	1	0	4	0
69	986	1	10000	4	1	0	4	0
67	987	1	10000	4	1	0	4	0
68	988	1	10000	4	1	0	4	0
72	989	1	10000	4	1	0	4	0
71	990	1	10000	4	1	0	4	0
70	991	1	10000	4	1	0	4	0
74	992	1	10000	4	1	0	4	0
75	993	1	10000	4	1	0	4	0
79	994	1	10000	4	1	0	4	0
79	995	1	10000	4	1	0	4	0
76	996	1	10000	4	1	0	4	0
77	997	1	10000	4	1	0	4	0
85	998	1	10000	4	1	0	4	0
93	999	1	10000	4	1	0	4	0
105	1000	1	10000	4	1	0	4	0
113	1001	1	10000	4	1	0	4	0
24	2	0	10000	5	1	0	5	0
23	3	0	10000	5	1	0	5	0
23	4	0	10000	5	1	0	5	0
23	5	0	10000	5	1	0	5	0
22	6	0	10000	5	1	0	5	0
21	7	0	10000	5	1	0	5	0
22	8	0	10000	5	1	0	5	0
23	9	0	10000	5	1	0	5	0
23	10	0	10000	5	1	0	5	0
21	11	0	10000	5	1	0	5	0
20	12	0	10000	5	1	0	5	0
20	13	0	10000	5	1	0	5	0
19	14	0	10000	5	1	0	5	0
19	15	0	10000	5	1	0	5	0
18	16	0	10000	5	1	0	5	0
18	17	0	10000	5	1	0	5	0
17	18	0	10000	5	1	0	5	0
17	19	0	10000	5	1	0	5	0
17	20	0	10000	5	1	0	5	0
17	21	0	10000	5	1	0	5	0
17	22	0	10000	5	1	0	5	0
18	23	0	10000	5	1	0	5	0
19	24	0	10000	5	1	0	5	0
18	25	0	10000	5	1	0	5	0
16	26	0	10000	5	1	0	5	0
17	27	0	10000	5	1	0	5	0
17	28	0	10000	5	1	0	5	0
20	29	0	10000	5	1	0	5	0
20	30	0	10000	5	1	0	5	0
19	31	0	10000	5	1	0	5	0
18	32	0	10000	5	1	0	5	0
18	33	0	10000	5	1	0	5	0
17	34	0	10000	5	1	0	5	0
17	35	0	10000	5	1	0	5	0
17	36	0	10000	5	1	0	5	0
17	37	0	10000	5	1	0	5	0
15	38	0	10000	5	1	0	5	0
14	39	0	10000	5	1	0	5	0
14	40	0	10000	5	1	0	5	0
15	41	0	10000	5	1	0	5	0
16	42	0	10000	5	1	0	5	0
18	43	0	10000	5	1	0	5	0
18	44	0	10000	5	1	0	5	0
16	45	0	10000	5	1	0	5	0
17	46	0	10000	5	1	0	5	0
16	47	0	10000	5	1	0	5	0
17	48	0	10000	5	1	0	5	0
18	49	0	10000	5	1	0	5	0
17	50	0	10000	5	1	0	5	0
16	51	0	10000	5	1	0	5	0
16	52	0	10000	5	1	0	5	0
15	53	0	10000	5	1	0	5	0
14	54	0	10000	5	1	0	5	0
15	55	0	10000	5	1	0	5	0
14	56	0	10000	5	1	0	5	0
15	57	0	10000	5	1	0	5	0
13	58	0	10000	5	1	0	5	0
12	59	0	10000	5	1	0	5	0
14	60	0	10000	5	1	0	5	0
13	61	0	10000	5	1	0	5	0
13	62	0	10000	5	1	0	5	0
13	63	0	10000	5	1	0	5	0
12	64	0	10000	5	1	0	5	0
11	65	0	10000	5	1	0	5	0
11	66	0	10000	5	1	0	5	0
10	67	0	10000	5	1	0	5	0
11	68	0	10000	5	1	0	5	0
12	69	0	10000	5	1	0	5	0
11	70	0	10000	5	1	0	5	0
12	71	0	10000	5	1	0	5	0
10	72	0	10000	5	1	0	5	0
10	73	0	10000	5	1	0	5	0
10	74	0	10000	5	1	0	5	0
10	75	0	10000	5	1	0	5	0
10	76	0	10000	5	1	0	5	0
10	77	0	10000	5	1	0	5	0
9	78	0	10000	5	1	0	5	0
8	79	0	10000	5	1	0	5	0
10	80	0	10000	5	1	0	5	0
10	81	0	10000	5	1	0	5	0
11	82	0	10000	5	1	0	5	0
10	83	0	10000	5	1	0	5	0
10	84	0	10000	5	1	0	5	0
10	85	0	10000	5	1	0	5	0
9	86	0	10000	5	1	0	5	0
9	87	0	10000	5	1	0	5	0
10	88	0	10000	5	1	0	5	0
10	89	0	10000	5	1	0	5	0
10	90	0	10000	5	1	0	5	0
11	91	0	10000	5	1	0	5	0
11	92	0	10000	5	1	0	5	0
12	93	0	10000	5	1	0	5	0
11	94	0	10000	5	1	0	5	0
11	95	0	10000	5	1	0	5	0
12	96	0	10000	5	1	0	5	0
12	97	0	10000	5	1	0	5	0
12	98	0	10000	5	1	0	5	0
12	99	0	10000	5	1	0	5	0
14	100	0	10000	5	1	0	5	0
15	101	0	10000	5	1	0	5	0
17	102	0	10000	5	1	0	5	0
17	103	0	10000	5	1	0	5	0
18	104	0	10000	5	1	0	5	0
19	105	0	10000	5	1	0	5	0
18	106	0	10000	5	1	0	5	0
18	107	0	10000	5	1	0	5	0
19	108	0	10000	5	1	0	5	0
20	109	0	10000	5	1	0	5	0
20	110	0	10000	5	1	0	5	0
20	111	0	10000	5	1	0	5	0
20	112	0	10000	5	1	0	5	0
21	113	0	10000	5	1	0	5	0
20	114	0	10000	5	1	0	5	0
20	115	0	10000	5	1	0	5	0
20	116	0	10000	5	1	0	5	0
20	117	0	10000	5	1	0	5	0
18	118	0	10000	5	1	0	5	0
17	119	0	10000	5	1	0	5	0
18	120	0	10000	5	1	0	5	0
19	121	0	10000	5	1	0	5	0
18	122	0	10000	5	1	0	5	0
18	123	0	10000	5	1	0	5	0
19	124	0	10000	5	1	0	5	0
20	125	0	10000	5	1	0	5	0
21	126	0	10000	5	1	0	5	0
20	127	0	10000	5	1	0	5	0
20	128	0	10000	5	1	0	5	0
21	129	0	10000	5	1	0	5	0
22	130	0	10000	5	1	0	5	0
21	131	0	10000	5	1	0	5	0
21	132	0	10000	5	1	0	5	0
21	133	0	10000	5	1	0	5	0
22	134	0	10000	5	1	0	5	0
22	135	0	10000	5	1	0	5	0
21	136	0	10000	5	1	0	5	0
22	137	0	10000	5	1	0	5	0
21	138	0	10000	5	1	0	5	0
21	139	0	10000	5	1	0	5	0
20	140	0	10000	5	1	0	5	0
20	141	0	10000	5	1	0	5	0
19	142	0	10000	5	1	0	5	0
19	143	0	10000	5	1	0	5	0
19	144	0	10000	5	1	0	5	0
19	145	0	10000	5	1	0	5	0
18	146	0	10000	5	1	0	5	0
17	147	0	10000	5	1	0	5	0
17	148	0	10000	5	1	0	5	0
18	149	0	10000	5	1	0	5	0
18	150	0	10000	5	1	0	5	0
18	151	0	10000	5	1	0	5	0
17	152	0	10000	5	1	0	5	0
16	153	0	10000	5	1	0	5	0
17	154	0	10000	5	1	0	5	0
17	155	0	10000	5	1	0	5	0
19	156	0	10000	5	1	0	5	0
21	157	0	10000	5	1	0	5	0
20	158	0	10000	5	1	0	5	0
20	159	0	10000	5	1	0	5	0
21	160	0	10000	5	1	0	5	0
23	161	0	10000	5	1	0	5	0
22	162	0	10000	5	1	0	5	0
23	163	0	10000	5	1	0	5	0
22	164	0	10000	5	1	0	5	0
21	165	0	10000	5	1	0	5	0
20	166	0	10000	5	1	0	5	0
19	167	0	10000	5	1	0	5	0
20	168	0	10000	5	1	0	5	0
20	169	0	10000	5	1	0	5	0
19	170	0	10000	5	1	0	5	0
19	171	0	10000	5	1	0	5	0
19	172	0	10000	5	1	0	5	0
19	173	0	10000	5	1	0	5	0
19	174	0	10000	5	1	0	5	0
19	175	0	10000	5	1	0	5	0
19	176	0	10000	5	1	0	5	0
18	177	0	10000	5	1	0	5	0
17	178	0	10000	5	1	0	5	0
16	179	0	10000	5	1	0	5	0
16	180	0	10000	5	1	0	5	0
15	181	0	10000	5	1	0	5	0
16	182	0	10000	5	1	0	5	0
16	183	0	10000	5	1	0	5	0
17	184	0	10000	5	1	0	5	0
16	185	0	10000	5	1	0	5	0
15	186	0	10000	5	1	0	5	0
15	187	0	10000	5	1	0	5	0
16	188	0	10000	5	1	0	5	0
17	189	0	10000	5	1	0	5	0
17	190	0	10000	5	1	0	5	0
17	191	0	10000	5	1	0	5	0
17	192	0	10000	5	1	0	5	0
18	193	0	10000	5	1	0	5	0
17	194	0	10000	5	1	0	5	0
17	195	0	10000	5	1	0	5	0
17	196	0	10000	5	1	0	5	0
17	197	0	10000	5	1	0	5	0
17	198	0	10000	5	1	0	5	0
16	199	0	10000	5	1	0	5	0
15	200	0	10000	5	1	0	5	0
15	201	0	10000	5	1	0	5	0
15	202	0	10000	5	1	0	5	0
16	203	0	10000	5	1	0	5	0
17	204	0	10000	5	1	0	5	0
16	205	0	10000	5	1	0	5	0
16	206	0	10000	5	1	0	5	0
15	207	0	10000	5	1	0	5	0
16	208	0	10000	5	1	0	5	0
17	209	0	10000	5	1	0	5	0
16	210	0	10000	5	1	0	5	0
15	211	0	10000	5	1	0	5	0
15	212	0	10000	5	1	0	5	0
15	213	0	10000	5	1	0	5	0
15	214	0	10000	5	1	0	5	0
15	215	0	10000	5	1	0	5	0
17	216	0	10000	5	1	0	5	0
18	217	0	10000	5	1	0	5	0
18	218	0	10000	5	1	0	5	0
17	219	0	10000	5	1	0	5	0
16	220	0	10000	5	1	0	5	0
16	221	0	10000	5	1	0	5	0
16	222	0	10000	5	1	0	5	0
15	223	0	10000	5	1	0	5	0
16	224	0	10000	5	1	0	5	0
17	225	0	10000	5	1	0	5	0
18	226	0	10000	5	1	0	5	0
19	227	0	10000	5	1	0	5	0
19	228	0	10000	5	1	0	5	0
20	229	0	10000	5	1	0	5	0
18	230	0	10000	5	1	0	5	0
17	231	0	10000	5	1	0	5	0
17	232	0	10000	5	1	0	5	0
17	233	0	10000	5	1	0	5	0
17	234	0	10000	5	1	0	5	0
16	235	0	10000	5	1	0	5	0
16	236	0	10000	5	1	0	5	0
17	237	0	10000	5	1	0	5	0
16	238	0	10000	5	1	0	5	0
16	239	0	10000	5	1	0	5	0
16	240	0	10000	5	1	0	5	0
15	241	0	10000	5	1	0	5	0
15	242	0	10000	5	1	0	5	0
15	243	0	10000	5	1	0	5	0
15	244	0	10000	5	1	0	5	0
16	245	0	10000	5	1	0	5	0
17	246	0	10000	5	1	0	5	0
17	247	0	10000	5	1	0	5	0
16	248	0	10000	5	1	0	5	0
17	249	0	10000	5	1	0	5	0
17	250	0	10000	5	1	0	5	0
16	251	0	10000	5	1	0	5	0
15	252	0	10000	5	1	0	5	0
15	253	0	10000	5	1	0	5	0
16	254	0	10000	5	1	0	5	0
14	255	0	10000	5	1	0	5	0
15	256	0	10000	5	1	0	5	0
15	257	0	10000	5	1	0	5	0
15	258	0	10000	5	1	0	5	0
14	259	0	10000	5	1	0	5	0
13	260	0	10000	5	1	0	5	0
14	261	0	10000	5	1	0	5	0
13	262	0	10000	5	1	0	5	0
13	263	0	10000	5	1	0	5	0
13	264	0	10000	5	1	0	5	0
14	265	0	10000	5	1	0	5	0
13	266	0	10000	5	1	0	5	0
13	267	0	10000	5	1	0	5	0
14	268	0	10000	5	1	0	5	0
14	269	0	10000	5	1	0	5	0
14	270	0	10000	5	1	0	5	0
15	271	0	10000	5	1	0	5	0
13	272	0	10000	5	1	0	5	0
13	273	0	10000	5	1	0	5	0
12	274	0	10000	5	1	0	5	0
12	275	0	10000	5	1	0	5	0
12	276	0	10000	5	1	0	5	0
13	277	0	10000	5	1	0	5	0
11	278	0	10000	5	1	0	5	0
12	279	0	10000	5	1	0	5	0
11	280	0	10000	5	1	0	5	0
12	281	0	10000	5	1	0	5	0
12	282	0	10000	5	1	0	5	0
12	283	0	10000	5	1	0	5	0
12	284	0	10000	5	1	0	5	0
11	285	0	10000	5	1	0	5	0
12	286	0	10000	5	1	0	5	0
12	287	0	10000	5	1	0	5	0
14	288	0	10000	5	1	0	5	0
14	289	0	10000	5	1	0	5	0
14	290	0	10000	5	1	0	5	0
14	291	0	10000	5	1	0	5	0
13	292	0	10000	5	1	0	5	0
13	293	0	10000	5	1	0	5	0
12	294	0	10000	5	1	0	5	0
13	295	0	10000	5	1	0	5	0
15	296	0	10000	5	1	0	5	0
17	297	0	10000	5	1	0	5	0
16	298	0	10000	5	1	0	5	0
15	299	0	10000	5	1	0	5	0
15	300	0	10000	5	1	0	5	0
15	301	0	10000	5	1	0	5	0
14	302	0	10000	5	1	0	5	0
15	303	0	10000	5	1	0	5	0
16	304	0	10000	5	1	0	5	0
16	305	0	10000	5	1	0	5	0
16	306	0	10000	5	1	0	5	0
15	307	0	10000	5	1	0	5	0
15	308	0	10000	5	1	0	5	0
16	309	0	10000	5	1	0	5	0
15	310	0	10000	5	1	0	5	0
15	311	0	10000	5	1	0	5	0
14	312	0	10000	5	1	0	5	0
15	313	0	10000	5	1	0	5	0
14	314	0	10000	5	1	0	5	0
15	315	0	10000	5	1	0	5	0
14	316	0	10000	5	1	0	5	0
14	317	0	10000	5	1	0	5	0
13	318	0	10000	5	1	0	5	0
13	319	0	10000	5	1	0	5	0
13	320	0	10000	5	1	0	5	0
14	321	0	10000	5	1	0	5	0
15	322	0	10000	5	1	0	5	0
17	323	0	10000	5	1	0	5	0
17	324	0	10000	5	1	0	5	0
17	325	0	10000	5	1	0	5	0
16	326	0	10000	5	1	0	5	0
15	327	0	10000	5	1	0	5	0
15	328	0	10000	5	1	0	5	0
16	329	0	10000	5	1	0	5	0
16	330	0	10000	5	1	0	5	0
15	331	0	10000	5	1	0	5	0
15	332	0	10000	5	1	0	5	0
14	333	0	10000	5	1	0	5	0
15	334	0	10000	5	1	0	5	0
14	335	0	10000	5	1	0	5	0
14	336	0	10000	5	1	0	5	0
14	337	0	10000	5	1	0	5	0
12	338	0	10000	5	1	0	5	0
12	339	0	10000	5	1	0	5	0
13	340	0	10000	5	1	0	5	0
12	341	0	10000	5	1	0	5	0
12	342	0	10000	5	1	0	5	0
12	343	0	10000	5	1	0	5	0
12	344	0	10000	5	1	0	5	0
11	345	0	10000	5	1	0	5	0
12	346	0	10000	5	1	0	5	0
13	347	0	10000	5	1	0	5	0
14	348	0	10000	5	1	0	5	0
14	349	0	10000	5	1	0	5	0
14	350	0	10000	5	1	0	5	0
14	351	0	10000	5	1	0	5	0
13	352	0	10000	5	1	0	5	0
13	353	0	10000	5	1	0	5	0
13	354	0	10000	5	1	0	5	0
15	355	0	10000	5	1	0	5	0
17	356	0	10000	5	1	0	5	0
17	357	0	10000	5	1	0	5	0
15	358	0	10000	5	1	0	5	0
14	359	0	10000	5	1	0	5	0
14	360	0	10000	5	1	0	5	0
15	361	0	10000	5	1	0	5	0
16	362	0	10000	5	1	0	5	0
15	363	0	10000	5	1	0	5	0
14	364	0	10000	5	1	0	5	0
14	365	0	10000	5	1	0	5	0
14	366	0	10000	5	1	0	5	0
14	367	0	10000	5	1	0	5	0
16	368	0	10000	5	1	0	5	0
18	369	0	10000	5	1	0	5	0
19	370	0	10000	5	1	0	5	0
18	371	0	10000	5	1	0	5	0
18	372	0	10000	5	1	0	5	0
18	373	0	10000	5	1	0	5	0
19	374	0	10000	5	1	0	5	0
18	375	0	10000	5	1	0	5	0
19	376	0	10000	5	1	0	5	0
18	377	0	10000	5	1	0	5	0
17	378	0	10000	5	1	0	5	0
16	379	0	10000	5	1	0	5	0
16	380	0	10000	5	1	0	5	0
17	381	0	10000	5	1	0	5	0
17	382	0	10000	5	1	0	5	0
16	383	0	10000	5	1	0	5	0
17	384	0	10000	5	1	0	5	0
17	385	0	10000	5	1	0	5	0
16	386	0	10000	5	1	0	5	0
16	387	0	10000	5	1	0	5	0
17	388	0	10000	5	1	0	5	0
18	389	0	10000	5	1	0	5	0
18	390	0	10000	5	1	0	5	0
17	391	0	10000	5	1	0	5	0
17	392	0	10000	5	1	0	5	0
17	393	0	10000	5	1	0	5	0
16	394	0	10000	5	1	0	5	0
16	395	0	10000	5	1	0	5	0
16	396	0	10000	5	1	0	5	0
17	397	0	10000	5	1	0	5	0
16	398	0	10000	5	1	0	5	0
15	399	0	10000	5	1	0	5	0
15	400	0	10000	5	1	0	5	0
16	401	0	10000	5	1	0	5	0
16	402	0	10000	5	1	0	5	0
16	403	0	10000	5	1	0	5	0
16	404	0	10000	5	1	0	5	0
16	405	0	10000	5	1	0	5	0
16	406	0	10000	5	1	0	5	0
16	407	0	10000	5	1	0	5	0
16	408	0	10000	5	1	0	5	0
17	409	0	10000	5	1	0	5	0
16	410	0	10000	5	1	0	5	0
15	411	0	10000	5	1	0	5	0
16	412	0	10000	5	1	0	5	0
15	413	0	10000	5	1	0	5	0
14	414	0	10000	5	1	0	5	0
14	415	0	10000	5	1	0	5	0
15	416	0	10000	5	1	0	5	0
17	417	0	10000	5	1	0	5	0
16	418	0	10000	5	1	0	5	0
14	419	0	10000	5	1	0	5	0
15	420	0	10000	5	1	0	5	0
15	421	0	10000	5	1	0	5	0
14	422	0	10000	5	1	0	5	0
15	423	0	10000	5	1	0	5	0
14	424	0	10000	5	1	0	5	0
14	425	0	10000	5	1	0	5	0
15	426	0	10000	5	1	0	5	0
14	427	0	10000	5	1	0	5	0
15	428	0	10000	5	1	0	5	0
16	429	0	10000	5	1	0	5	0
15	430	0	10000	5	1	0	5	0
15	431	0	10000	5	1	0	5	0
14	432	0	10000	5	1	0	5	0
14	433	0	10000	5	1	0	5	0
14	434	0	10000	5	1	0	5	0
13	435	0	10000	5	1	0	5	0
13	436	0	10000	5	1	0	5	0
14	437	0	10000	5	1	0	5	0
12	438	0	10000	5	1	0	5	0
11	439	0	10000	5	1	0	5	0
12	440	0	10000	5	1	0	5	0
11	441	0	10000	5	1	0	5	0
11	442	0	10000	5	1	0	5	0
11	443	0	10000	5	1	0	5	0
11	444	0	10000	5	1	0	5	0
10	445	0	10000	5	1	0	5	0
9	446	0	10000	5	1	0	5	0
8	447	0	10000	5	1	0	5	0
10	448	0	10000	5	1	0	5	0
11	449	0	10000	5	1	0	5	0
11	450	0	10000	5	1	0	5	0
10	451	0	10000	5	1	0	5	0
10	452	0	10000	5	1	0	5	0
10	453	0	10000	5	1	0	5	0
10	454	0	10000	5	1	0	5	0
10	455	0	10000	5	1	0	5	0
10	456	0	10000	5	1	0	5	0
11	457	0	10000	5	1	0	5	0
10	458	0	10000	5	1	0	5	0
11	459	0	10000	5	1	0	5	0
12	460	0	10000	5	1	0	5	0
13	461	0	10000	5	1	0	5	0
14	462	0	10000	5	1	0	5	0
13	463	0	10000	5	1	0	5	0
13	464	0	10000	5	1	0	5	0
13	465	0	10000	5	1	0	5	0
12	466	0	10000	5	1	0	5	0
12	467	0	10000	5	1	0	5	0
12	468	0	10000	5	1	0	5	0
14	469	0	10000	5	1	0	5	0
14	470	0	10000	5	1	0	5	0
13	471	0	10000	5	1	0	5	0
13	472	0	10000	5	1	0	5	0
14	473	0	10000	5	1	0	5	0
13	474	0	10000	5	1	0	5	0
13	475	0	10000	5	1	0	5	0
13	476	0	10000	5	1	0	5	0
13	477	0	10000	5	1	0	5	0
13	478	0	10000	5	1	0	5	0
12	479	0	10000	5	1	0	5	0
13	480	0	10000	5	1	0	5	0
14	481	0	10000	5	1	0	5	0
17	482	0	10000	5	1	0	5	0
18	483	0	10000	5	1	0	5	0
20	484	0	10000	5	1	0	5	0
19	485	0	10000	5	1	0	5	0
19	486	0	10000	5	1	0	5	0
18	487	0	10000	5	1	0	5	0
19	488	0	10000	5	1	0	5	0
19	489	0	10000	5	1	0	5	0
19	490	0	10000	5	1	0	5	0
19	491	0	10000	5	1	0	5	0
19	492	0	10000	5	1	0	5	0
20	493	0	10000	5	1	0	5	0
20	494	0	10000	5	1	0	5	0
20	495	0	10000	5	1	0	5	0
19	496	0	10000	5	1	0	5	0
19	497	0	10000	5	1	0	5	0
19	498	0	10000	5	1	0	5	0
18	499	0	10000	5	1	0	5	0
18	500	0	10000	5	1	0	5	0
19	501	0	10000	5	1	0	5	0
19	502	0	10000	5	1	0	5	1
20	503	0	10000	5	1	0	5	1
21	504	0	10000	5	1	0	5	1
24	505	0	10000	5	1	0	5	1
23	506	0	10000	5	1	0	5	1
23	507	0	10000	5	1	0	5	1
24	508	0	10000	5	1	0	5	1
26	509	0	10000	5	1	0	5	1
25	510	0	10000	5	1	0	5	1
25	511	0	10000	5	1	0	5	1
24	512	0	10000	5	1	0	5	1
23	513	0	10000	5	1	0	5	1
23	514	0	10000	5	1	0	5	1
24	515	0	10000	5	1	0	5	1
23	516	0	10000	5	1	0	5	1
25	517	0	10000	5	1	0	5	1
25	518	0	10000	5	1	0	5	1
25	519	0	10000	5	1	0	5	1
28	520	0	10000	5	1	0	5	1
26	521	0	10000	5	1	0	5	1
27	522	0	10000	5	1	0	5	1
27	523	0	10000	5	1	0	5	1
25	524	0	10000	5	1	0	5	1
25	525	0	10000	5	1	0	5	1
24	526	0	10000	5	1	0	5	1
23	527	0	10000	5	1	0	5	1
23	528	0	10000	5	1	0	5	1
24	529	0	10000	5	1	0	5	1
22	530	0	10000	5	1	0	5	1
22	531	0	10000	5	1	0	5	1
22	532	0	10000	5	1	0	5	1
21	533	0	10000	5	1	0	5	1
21	534	0	10000	5	1	0	5	1
22	535	0	10000	5	1	0	5	1
21	536	0	10000	5	1	0	5	1
21	537	0	10000	5	1	0	5	1
20	538	0	10000	5	1	0	5	1
20	539	0	10000	5	1	0	5	1
20	540	0	10000	5	1	0	5	1
19	541	0	10000	5	1	0	5	1
19	542	0	10000	5	1	0	5	1
18	543	0	10000	5	1	0	5	1
17	544	0	10000	5	1	0	5	1
17	545	0	10000	5	1	0	5	1
17	546	0	10000	5	1	0	5	1
18	547	0	10000	5	1	0	5	1
19	548	0	10000	5	1	0	5	1
21	549	0	10000	5	1	0	5	1
22	550	0	10000	5	1	0	5	1
23	551	0	10000	5	1	0	5	1
22	552	0	10000	5	1	0	5	0
21	553	0	10000	5	1	0	5	0
20	554	0	10000	5	1	0	5	0
20	555	0	10000	5	1	0	5	0
21	556	0	10000	5	1	0	5	0
22	557	0	10000	5	1	0	5	0
21	558	0	10000	5	1	0	5	0
20	559	0	10000	5	1	0	5	0
20	560	0	10000	5	1	0	5	0
20	561	0	10000	5	1	0	5	0
20	562	0	10000	5	1	0	5	0
19	563	0	10000	5	1	0	5	0
18	564	0	10000	5	1	0	5	0
18	565	0	10000	5	1	0	5	0
18	566	0	10000	5	1	0	5	0
18	567	0	10000	5	1	0	5	0
20	568	0	10000	5	1	0	5	0
22	569	0	10000	5	1	0	5	0
22	570	0	10000	5	1	0	5	0
21	571	0	10000	5	1	0	5	0
21	572	0	10000	5	1	0	5	0
21	573	0	10000	5	1	0	5	0
20	574	0	10000	5	1	0	5	0
20	575	0	10000	5	1	0	5	0
20	576	0	10000	5	1	0	5	0
20	577	0	10000	5	1	0	5	0
19	578	0	10000	5	1	0	5	0
20	579	0	10000	5	1	0	5	0
30	580	0	10000	5	1	0	5	0
52	581	0	10000	5	1	0	5	0
76	582	0	10000	5	1	0	5	0
102	583	0	10000	5	1	0	5	0
123	584	0	10000	5	1	0	5	0
125	585	0	10000	5	1	0	5	0
138	586	0	10000	5	1	0	5	0
176	587	0	10000	5	1	0	5	0
214	588	0	10000	5	1	0	5	0
246	589	0	10000	5	1	0	5	0
253	590	0	10000	5	1	0	5	0
285	591	0	10000	5	1	0	5	0
345	592	0	10000	5	1	0	5	0
406	593	0	10000	5	1	0	5	0
416	594	0	10000	5	1	0	5	0
406	595	0	10000	5	1	0	5	0
431	596	0	10000	5	1	0	5	0
462	597	0	10000	5	1	0	5	0
464	598	0	10000	5	1	0	5	0
453	599	0	10000	5	1	0	5	0
461	600	0	10000	5	1	0	5	0
500	601	0	10000	5	1	0	5	0
566	602	0	10000	5	1	0	5	0
628	603	0	10000	5	1	0	5	0
642	604	0	10000	5	1	0	5	0
618	605	0	10000	5	1	0	5	0
604	606	0	10000	5	1	0	5	0
580	607	0	10000	5	1	0	5	0
574	608	0	10000	5	1	0	5	0
562	609	0	10000	5	1	0	5	0
550	610	0	10000	5	1	0	5	0
527	611	0	10000	5	1	0	5	0
509	612	0	10000	5	1	0	5	0
517	613	0	10000	5	1	0	5	0
535	614	0	10000	5	1	0	5	0
541	615	0	10000	5	1	0	5	0
528	616	0	10000	5	1	0	5	0
507	617	0	10000	5	1	0	5	0
493	618	0	10000	5	1	0	5	0
493	619	0	10000	5	1	0	5	0
501	620	0	10000	5	1	0	5	0
511	621	0	10000	5	1	0	5	0
520	622	0	10000	5	1	0	5	0
526	623	0	10000	5	1	0	5	0
526	624	0	10000	5	1	0	5	0
523	625	0	10000	5	1	0	5	0
516	626	0	10000	5	1	0	5	0
507	627	0	10000	5	1	0	5	0
495	628	0	10000	5	1	0	5	0
482	629	0	10000	5	1	0	5	0
466	630	0	10000	5	1	0	5	0
451	631	0	10000	5	1	0	5	0
432	632	0	10000	5	1	0	5	0
415	633	0	10000	5	1	0	5	0
398	634	0	10000	5	1	0	5	0
381	635	0	10000	5	1	0	5	0
369	636	0	10000	5	1	0	5	0
361	637	0	10000	5	1	0	5	0
349	638	0	10000	5	1	0	5	0
335	639	0	10000	5	1	0	5	0
328	640	0	10000	5	1	0	5	0
329	641	0	10000	5	1	0	5	0
337	642	0	10000	5	1	0	5	0
348	643	0	10000	5	1	0	5	0
359	644	0	10000	5	1	0	5	0
366	645	0	10000	5	1	0	5	0
377	646	0	10000	5	1	0	5	0
389	647	0	10000	5	1	0	5	0
402	648	0	10000	5	1	0	5	0
415	649	0	10000	5	1	0	5	0
424	650	0	10000	5	1	0	5	0
431	651	0	10000	5	1	0	5	0
435	652	0	10000	5	1	0	5	0
440	653	0	10000	5	1	0	5	0
444	654	0	10000	5	1	0	5	0
450	655	0	10000	5	1	0	5	0
454	656	0	10000	5	1	0	5	0
456	657	0	10000	5	1	0	5	0
455	658	0	10000	5	1	0	5	0
451	659	0	10000	5	1	0	5	0
445	660	0	10000	5	1	0	5	0
439	661	0	10000	5	1	0	5	0
434	662	0	10000	5	1	0	5	0
428	663	0	10000	5	1	0	5	0
420	664	0	10000	5	1	0	5	0
413	665	0	10000	5	1	0	5	0
407	666	0	10000	5	1	0	5	0
401	667	0	10000	5	1	0	5	0
389	668	0	10000	5	1	0	5	0
377	669	0	10000	5	1	0	5	0
365	670	0	10000	5	1	0	5	0
351	671	0	10000	5	1	0	5	0
337	672	0	10000	5	1	0	5	0
323	673	0	10000	5	1	0	5	0
309	674	0	10000	5	1	0	5	0
300	675	0	10000	5	1	0	5	0
297	676	0	10000	5	1	0	5	0
291	677	0	10000	5	1	0	5	0
286	678	0	10000	5	1	0	5	0
279	679	0	10000	5	1	0	5	0
273	680	0	10000	5	1	0	5	0
267	681	0	10000	5	1	0	5	0
262	682	0	10000	5	1	0	5	0
258	683	0	10000	5	1	0	5	0
