value	EMG	Stimulus	EMG_sensitivity	Total_Trial_Nr	practise	acq	probe_nr	Startle_Probe
46	2	1	10000	1	1	0	1	0
46	3	1	10000	1	1	0	1	0
44	4	1	10000	1	1	0	1	0
41	5	1	10000	1	1	0	1	0
39	6	1	10000	1	1	0	1	0
41	7	1	10000	1	1	0	1	0
42	8	1	10000	1	1	0	1	0
43	9	1	10000	1	1	0	1	0
44	10	1	10000	1	1	0	1	0
44	11	1	10000	1	1	0	1	0
45	12	1	10000	1	1	0	1	0
45	13	1	10000	1	1	0	1	0
47	14	1	10000	1	1	0	1	0
47	15	1	10000	1	1	0	1	0
47	16	1	10000	1	1	0	1	0
45	17	1	10000	1	1	0	1	0
44	18	1	10000	1	1	0	1	0
43	19	1	10000	1	1	0	1	0
43	20	1	10000	1	1	0	1	0
45	21	1	10000	1	1	0	1	0
46	21	1	10000	1	1	0	1	0
47	22	1	10000	1	1	0	1	0
46	24	1	10000	1	1	0	1	0
44	25	1	10000	1	1	0	1	0
43	26	1	10000	1	1	0	1	0
42	27	1	10000	1	1	0	1	0
41	28	1	10000	1	1	0	1	0
41	29	1	10000	1	1	0	1	0
39	30	1	10000	1	1	0	1	0
38	31	1	10000	1	1	0	1	0
37	31	1	10000	1	1	0	1	0
36	32	1	10000	1	1	0	1	0
35	34	1	10000	1	1	0	1	0
36	35	1	10000	1	1	0	1	0
36	36	1	10000	1	1	0	1	0
35	37	1	10000	1	1	0	1	0
37	38	1	10000	1	1	0	1	0
37	39	1	10000	1	1	0	1	0
38	40	1	10000	1	1	0	1	0
39	41	1	10000	1	1	0	1	0
39	41	1	10000	1	1	0	1	0
39	42	1	10000	1	1	0	1	0
37	44	1	10000	1	1	0	1	0
34	45	1	10000	1	1	0	1	0
35	46	1	10000	1	1	0	1	0
34	47	1	10000	1	1	0	1	0
34	48	1	10000	1	1	0	1	0
34	49	1	10000	1	1	0	1	0
33	50	1	10000	1	1	0	1	0
34	51	1	10000	1	1	0	1	0
33	51	1	10000	1	1	0	1	0
32	52	1	10000	1	1	0	1	0
32	54	1	10000	1	1	0	1	0
32	55	1	10000	1	1	0	1	0
29	56	1	10000	1	1	0	1	0
29	57	1	10000	1	1	0	1	0
29	58	1	10000	1	1	0	1	0
29	59	1	10000	1	1	0	1	0
29	60	1	10000	1	1	0	1	0
30	61	1	10000	1	1	0	1	0
32	61	1	10000	1	1	0	1	0
32	62	1	10000	1	1	0	1	0
31	64	1	10000	1	1	0	1	0
30	65	1	10000	1	1	0	1	0
31	66	1	10000	1	1	0	1	0
31	67	1	10000	1	1	0	1	0
32	68	1	10000	1	1	0	1	0
33	69	1	10000	1	1	0	1	0
31	70	1	10000	1	1	0	1	0
31	71	1	10000	1	1	0	1	0
29	71	1	10000	1	1	0	1	0
29	72	1	10000	1	1	0	1	0
28	74	1	10000	1	1	0	1	0
30	75	1	10000	1	1	0	1	0
30	76	1	10000	1	1	0	1	0
30	77	1	10000	1	1	0	1	0
29	78	1	10000	1	1	0	1	0
29	79	1	10000	1	1	0	1	0
28	80	1	10000	1	1	0	1	0
28	81	1	10000	1	1	0	1	0
29	81	1	10000	1	1	0	1	0
28	82	1	10000	1	1	0	1	0
27	84	1	10000	1	1	0	1	0
25	85	1	10000	1	1	0	1	0
24	86	1	10000	1	1	0	1	0
25	87	1	10000	1	1	0	1	0
24	88	1	10000	1	1	0	1	0
23	89	1	10000	1	1	0	1	0
23	90	1	10000	1	1	0	1	0
24	91	1	10000	1	1	0	1	0
24	91	1	10000	1	1	0	1	0
23	92	1	10000	1	1	0	1	0
23	94	1	10000	1	1	0	1	0
25	95	1	10000	1	1	0	1	0
25	96	1	10000	1	1	0	1	0
24	97	1	10000	1	1	0	1	0
25	98	1	10000	1	1	0	1	0
26	99	1	10000	1	1	0	1	0
28	100	1	10000	1	1	0	1	0
28	101	1	10000	1	1	0	1	0
29	101	1	10000	1	1	0	1	0
29	102	1	10000	1	1	0	1	0
28	104	1	10000	1	1	0	1	0
25	105	1	10000	1	1	0	1	0
25	106	1	10000	1	1	0	1	0
25	107	1	10000	1	1	0	1	0
25	108	1	10000	1	1	0	1	0
24	109	1	10000	1	1	0	1	0
24	110	1	10000	1	1	0	1	0
25	111	1	10000	1	1	0	1	0
24	111	1	10000	1	1	0	1	0
24	112	1	10000	1	1	0	1	0
25	114	1	10000	1	1	0	1	0
28	115	1	10000	1	1	0	1	0
29	116	1	10000	1	1	0	1	0
30	117	1	10000	1	1	0	1	0
29	118	1	10000	1	1	0	1	0
28	119	1	10000	1	1	0	1	0
28	120	1	10000	1	1	0	1	0
27	121	1	10000	1	1	0	1	0
27	121	1	10000	1	1	0	1	0
27	122	1	10000	1	1	0	1	0
26	124	1	10000	1	1	0	1	0
24	125	1	10000	1	1	0	1	0
26	126	1	10000	1	1	0	1	0
27	127	1	10000	1	1	0	1	0
28	128	1	10000	1	1	0	1	0
27	129	1	10000	1	1	0	1	0
26	130	1	10000	1	1	0	1	0
26	131	1	10000	1	1	0	1	0
24	131	1	10000	1	1	0	1	0
23	132	1	10000	1	1	0	1	0
24	134	1	10000	1	1	0	1	0
27	135	1	10000	1	1	0	1	0
29	136	1	10000	1	1	0	1	0
29	137	1	10000	1	1	0	1	0
30	138	1	10000	1	1	0	1	0
29	139	1	10000	1	1	0	1	0
27	140	1	10000	1	1	0	1	0
26	141	1	10000	1	1	0	1	0
26	141	1	10000	1	1	0	1	0
26	142	1	10000	1	1	0	1	0
24	144	1	10000	1	1	0	1	0
23	145	1	10000	1	1	0	1	0
22	146	1	10000	1	1	0	1	0
22	147	1	10000	1	1	0	1	0
24	148	1	10000	1	1	0	1	0
24	149	1	10000	1	1	0	1	0
23	150	1	10000	1	1	0	1	0
22	151	1	10000	1	1	0	1	0
20	151	1	10000	1	1	0	1	0
20	152	1	10000	1	1	0	1	0
21	154	1	10000	1	1	0	1	0
22	155	1	10000	1	1	0	1	0
21	156	1	10000	1	1	0	1	0
21	157	1	10000	1	1	0	1	0
20	158	1	10000	1	1	0	1	0
20	159	1	10000	1	1	0	1	0
21	160	1	10000	1	1	0	1	0
21	161	1	10000	1	1	0	1	0
21	161	1	10000	1	1	0	1	0
20	162	1	10000	1	1	0	1	0
20	164	1	10000	1	1	0	1	0
18	165	1	10000	1	1	0	1	0
20	166	1	10000	1	1	0	1	0
21	167	1	10000	1	1	0	1	0
22	168	1	10000	1	1	0	1	0
23	169	1	10000	1	1	0	1	0
24	170	1	10000	1	1	0	1	0
24	171	1	10000	1	1	0	1	0
22	171	1	10000	1	1	0	1	0
22	172	1	10000	1	1	0	1	0
21	174	1	10000	1	1	0	1	0
23	175	1	10000	1	1	0	1	0
22	176	1	10000	1	1	0	1	0
21	177	1	10000	1	1	0	1	0
20	178	1	10000	1	1	0	1	0
20	179	1	10000	1	1	0	1	0
20	180	1	10000	1	1	0	1	0
21	181	1	10000	1	1	0	1	0
23	181	1	10000	1	1	0	1	0
21	182	1	10000	1	1	0	1	0
22	184	1	10000	1	1	0	1	0
19	185	1	10000	1	1	0	1	0
20	186	1	10000	1	1	0	1	0
20	187	1	10000	1	1	0	1	0
22	188	1	10000	1	1	0	1	0
22	189	1	10000	1	1	0	1	0
21	190	1	10000	1	1	0	1	0
21	191	1	10000	1	1	0	1	0
21	191	1	10000	1	1	0	1	0
20	192	1	10000	1	1	0	1	0
19	194	1	10000	1	1	0	1	0
21	195	1	10000	1	1	0	1	0
20	196	1	10000	1	1	0	1	0
20	197	1	10000	1	1	0	1	0
21	198	1	10000	1	1	0	1	0
22	199	1	10000	1	1	0	1	0
22	200	1	10000	1	1	0	1	0
21	201	1	10000	1	1	0	1	0
22	201	1	10000	1	1	0	1	0
21	202	1	10000	1	1	0	1	0
21	204	1	10000	1	1	0	1	0
18	205	1	10000	1	1	0	1	0
17	206	1	10000	1	1	0	1	0
17	207	1	10000	1	1	0	1	0
18	208	1	10000	1	1	0	1	0
17	209	1	10000	1	1	0	1	0
19	210	1	10000	1	1	0	1	0
19	211	1	10000	1	1	0	1	0
17	211	1	10000	1	1	0	1	0
17	212	1	10000	1	1	0	1	0
17	214	1	10000	1	1	0	1	0
18	215	1	10000	1	1	0	1	0
17	216	1	10000	1	1	0	1	0
16	217	1	10000	1	1	0	1	0
15	218	1	10000	1	1	0	1	0
15	219	1	10000	1	1	0	1	0
14	220	1	10000	1	1	0	1	0
15	221	1	10000	1	1	0	1	0
17	221	1	10000	1	1	0	1	0
17	222	1	10000	1	1	0	1	0
16	224	1	10000	1	1	0	1	0
15	225	1	10000	1	1	0	1	0
15	226	1	10000	1	1	0	1	0
15	227	1	10000	1	1	0	1	0
15	228	1	10000	1	1	0	1	0
15	229	1	10000	1	1	0	1	0
16	230	1	10000	1	1	0	1	0
16	231	1	10000	1	1	0	1	0
16	231	1	10000	1	1	0	1	0
16	232	1	10000	1	1	0	1	0
16	234	1	10000	1	1	0	1	0
18	235	1	10000	1	1	0	1	0
18	236	1	10000	1	1	0	1	0
17	237	1	10000	1	1	0	1	0
17	238	1	10000	1	1	0	1	0
18	239	1	10000	1	1	0	1	0
20	240	1	10000	1	1	0	1	0
22	241	1	10000	1	1	0	1	0
24	241	1	10000	1	1	0	1	0
24	242	1	10000	1	1	0	1	0
24	244	1	10000	1	1	0	1	0
20	245	1	10000	1	1	0	1	0
20	246	1	10000	1	1	0	1	0
20	247	1	10000	1	1	0	1	0
21	248	1	10000	1	1	0	1	0
21	249	1	10000	1	1	0	1	0
20	250	1	10000	1	1	0	1	0
20	251	1	10000	1	1	0	1	0
19	251	1	10000	1	1	0	1	0
17	252	1	10000	1	1	0	1	0
18	254	1	10000	1	1	0	1	0
20	255	1	10000	1	1	0	1	0
20	256	1	10000	1	1	0	1	0
21	257	1	10000	1	1	0	1	0
22	258	1	10000	1	1	0	1	0
21	259	1	10000	1	1	0	1	0
21	260	1	10000	1	1	0	1	0
23	261	1	10000	1	1	0	1	0
23	261	1	10000	1	1	0	1	0
24	262	1	10000	1	1	0	1	0
22	264	1	10000	1	1	0	1	0
19	265	1	10000	1	1	0	1	0
20	266	1	10000	1	1	0	1	0
21	267	1	10000	1	1	0	1	0
23	268	1	10000	1	1	0	1	0
25	269	1	10000	1	1	0	1	0
24	270	1	10000	1	1	0	1	0
24	271	1	10000	1	1	0	1	0
23	271	1	10000	1	1	0	1	0
23	272	1	10000	1	1	0	1	0
22	274	1	10000	1	1	0	1	0
23	275	1	10000	1	1	0	1	0
22	276	1	10000	1	1	0	1	0
23	277	1	10000	1	1	0	1	0
22	278	1	10000	1	1	0	1	0
21	279	1	10000	1	1	0	1	0
21	280	1	10000	1	1	0	1	0
21	281	1	10000	1	1	0	1	0
21	281	1	10000	1	1	0	1	0
21	282	1	10000	1	1	0	1	0
21	284	1	10000	1	1	0	1	0
19	285	1	10000	1	1	0	1	0
19	286	1	10000	1	1	0	1	0
19	287	1	10000	1	1	0	1	0
21	288	1	10000	1	1	0	1	0
21	289	1	10000	1	1	0	1	0
21	290	1	10000	1	1	0	1	0
21	291	1	10000	1	1	0	1	0
20	291	1	10000	1	1	0	1	0
19	292	1	10000	1	1	0	1	0
20	294	1	10000	1	1	0	1	0
21	295	1	10000	1	1	0	1	0
21	296	1	10000	1	1	0	1	0
21	297	1	10000	1	1	0	1	0
21	298	1	10000	1	1	0	1	0
21	299	1	10000	1	1	0	1	0
20	300	1	10000	1	1	0	1	0
20	301	1	10000	1	1	0	1	0
21	301	1	10000	1	1	0	1	0
22	302	1	10000	1	1	0	1	0
21	304	1	10000	1	1	0	1	0
19	305	1	10000	1	1	0	1	0
20	306	1	10000	1	1	0	1	0
19	307	1	10000	1	1	0	1	0
19	308	1	10000	1	1	0	1	0
18	309	1	10000	1	1	0	1	0
19	310	1	10000	1	1	0	1	0
20	311	1	10000	1	1	0	1	0
20	311	1	10000	1	1	0	1	0
20	312	1	10000	1	1	0	1	0
20	314	1	10000	1	1	0	1	0
24	315	1	10000	1	1	0	1	0
23	316	1	10000	1	1	0	1	0
24	317	1	10000	1	1	0	1	0
21	318	1	10000	1	1	0	1	0
21	319	1	10000	1	1	0	1	0
21	320	1	10000	1	1	0	1	0
20	321	1	10000	1	1	0	1	0
21	321	1	10000	1	1	0	1	0
20	322	1	10000	1	1	0	1	0
20	324	1	10000	1	1	0	1	0
19	325	1	10000	1	1	0	1	0
19	326	1	10000	1	1	0	1	0
19	327	1	10000	1	1	0	1	0
22	328	1	10000	1	1	0	1	0
23	329	1	10000	1	1	0	1	0
22	330	1	10000	1	1	0	1	0
21	331	1	10000	1	1	0	1	0
20	331	1	10000	1	1	0	1	0
19	332	1	10000	1	1	0	1	0
18	334	1	10000	1	1	0	1	0
20	335	1	10000	1	1	0	1	0
18	336	1	10000	1	1	0	1	0
18	337	1	10000	1	1	0	1	0
18	338	1	10000	1	1	0	1	0
19	339	1	10000	1	1	0	1	0
19	340	1	10000	1	1	0	1	0
19	341	1	10000	1	1	0	1	0
19	341	1	10000	1	1	0	1	0
20	342	1	10000	1	1	0	1	0
21	344	1	10000	1	1	0	1	0
18	345	1	10000	1	1	0	1	0
19	346	1	10000	1	1	0	1	0
19	347	1	10000	1	1	0	1	0
18	348	1	10000	1	1	0	1	0
18	349	1	10000	1	1	0	1	0
19	350	1	10000	1	1	0	1	0
19	351	1	10000	1	1	0	1	0
18	351	1	10000	1	1	0	1	0
17	352	1	10000	1	1	0	1	0
18	354	1	10000	1	1	0	1	0
20	355	1	10000	1	1	0	1	0
20	356	1	10000	1	1	0	1	0
20	357	1	10000	1	1	0	1	0
20	358	1	10000	1	1	0	1	0
19	359	1	10000	1	1	0	1	0
19	360	1	10000	1	1	0	1	0
20	361	1	10000	1	1	0	1	0
21	361	1	10000	1	1	0	1	0
22	362	1	10000	1	1	0	1	0
20	364	1	10000	1	1	0	1	0
20	365	1	10000	1	1	0	1	0
21	366	1	10000	1	1	0	1	0
22	367	1	10000	1	1	0	1	0
22	368	1	10000	1	1	0	1	0
21	369	1	10000	1	1	0	1	0
20	370	1	10000	1	1	0	1	0
19	371	1	10000	1	1	0	1	0
18	371	1	10000	1	1	0	1	0
18	372	1	10000	1	1	0	1	0
18	374	1	10000	1	1	0	1	0
20	375	1	10000	1	1	0	1	0
20	376	1	10000	1	1	0	1	0
20	377	1	10000	1	1	0	1	0
18	378	1	10000	1	1	0	1	0
19	379	1	10000	1	1	0	1	0
19	380	1	10000	1	1	0	1	0
19	381	1	10000	1	1	0	1	0
19	381	1	10000	1	1	0	1	0
20	382	1	10000	1	1	0	1	0
20	384	1	10000	1	1	0	1	0
18	385	1	10000	1	1	0	1	0
19	386	1	10000	1	1	0	1	0
20	387	1	10000	1	1	0	1	0
20	388	1	10000	1	1	0	1	0
21	389	1	10000	1	1	0	1	0
23	390	1	10000	1	1	0	1	0
23	391	1	10000	1	1	0	1	0
22	391	1	10000	1	1	0	1	0
22	392	1	10000	1	1	0	1	0
21	394	1	10000	1	1	0	1	0
25	395	1	10000	1	1	0	1	0
27	396	1	10000	1	1	0	1	0
26	397	1	10000	1	1	0	1	0
25	398	1	10000	1	1	0	1	0
24	399	1	10000	1	1	0	1	0
25	400	1	10000	1	1	0	1	0
26	401	1	10000	1	1	0	1	0
26	401	1	10000	1	1	0	1	0
27	402	1	10000	1	1	0	1	0
28	404	1	10000	1	1	0	1	0
28	405	1	10000	1	1	0	1	0
29	406	1	10000	1	1	0	1	0
30	407	1	10000	1	1	0	1	0
29	408	1	10000	1	1	0	1	0
28	409	1	10000	1	1	0	1	0
28	410	1	10000	1	1	0	1	0
27	411	1	10000	1	1	0	1	0
25	411	1	10000	1	1	0	1	0
24	412	1	10000	1	1	0	1	0
24	414	1	10000	1	1	0	1	0
25	415	1	10000	1	1	0	1	0
24	427	1	10000	1	1	0	1	0
24	428	1	10000	1	1	0	1	0
24	429	1	10000	1	1	0	1	0
24	430	1	10000	1	1	0	1	0
23	431	1	10000	1	1	0	1	0
24	432	1	10000	1	1	0	1	0
26	433	1	10000	1	1	0	1	0
28	434	1	10000	1	1	0	1	0
28	435	1	10000	1	1	0	1	0
25	436	1	10000	1	1	0	1	0
26	437	1	10000	1	1	0	1	0
25	438	1	10000	1	1	0	1	0
25	439	1	10000	1	1	0	1	0
24	440	1	10000	1	1	0	1	0
24	436	1	10000	1	1	0	1	0
23	437	1	10000	1	1	0	1	0
22	438	1	10000	1	1	0	1	0
22	439	1	10000	1	1	0	1	0
22	440	1	10000	1	1	0	1	0
24	441	1	10000	1	1	0	1	0
23	442	1	10000	1	1	0	1	0
22	443	1	10000	1	1	0	1	0
21	446	1	10000	1	1	0	1	0
20	447	1	10000	1	1	0	1	0
20	448	1	10000	1	1	0	1	0
20	449	1	10000	1	1	0	1	0
20	450	1	10000	1	1	0	1	0
20	451	1	10000	1	1	0	1	0
19	452	1	10000	1	1	0	1	0
18	453	1	10000	1	1	0	1	0
19	454	1	10000	1	1	0	1	0
18	455	1	10000	1	1	0	1	0
18	452	1	10000	1	1	0	1	0
19	453	1	10000	1	1	0	1	0
19	454	1	10000	1	1	0	1	0
19	455	1	10000	1	1	0	1	0
19	456	1	10000	1	1	0	1	0
19	457	1	10000	1	1	0	1	0
19	458	1	10000	1	1	0	1	0
21	459	1	10000	1	1	0	1	0
21	460	1	10000	1	1	0	1	0
20	461	1	10000	1	1	0	1	0
20	462	1	10000	1	1	0	1	0
20	463	1	10000	1	1	0	1	0
21	462	1	10000	1	1	0	1	0
21	463	1	10000	1	1	0	1	0
22	464	1	10000	1	1	0	1	0
23	465	1	10000	1	1	0	1	0
22	469	1	10000	1	1	0	1	0
20	470	1	10000	1	1	0	1	0
21	471	1	10000	1	1	0	1	0
21	472	1	10000	1	1	0	1	0
20	473	1	10000	1	1	0	1	0
20	474	1	10000	1	1	0	1	0
22	475	1	10000	1	1	0	1	0
23	476	1	10000	1	1	0	1	0
22	473	1	10000	1	1	0	1	0
22	474	1	10000	1	1	0	1	0
23	475	1	10000	1	1	0	1	0
24	476	1	10000	1	1	0	1	0
24	479	1	10000	1	1	0	1	0
23	480	1	10000	1	1	0	1	0
22	481	1	10000	1	1	0	1	0
22	482	1	10000	1	1	0	1	0
23	483	1	10000	1	1	0	1	0
23	484	1	10000	1	1	0	1	0
25	485	1	10000	1	1	0	1	0
26	486	1	10000	1	1	0	1	0
26	487	1	10000	1	1	0	1	0
25	488	1	10000	1	1	0	1	0
26	489	1	10000	1	1	0	1	0
25	490	1	10000	1	1	0	1	0
25	490	1	10000	1	1	0	1	0
24	491	1	10000	1	1	0	1	0
23	492	1	10000	1	1	0	1	0
22	493	1	10000	1	1	0	1	0
21	496	1	10000	1	1	0	1	0
21	497	1	10000	1	1	0	1	0
20	498	1	10000	1	1	0	1	0
22	499	1	10000	1	1	0	1	0
22	500	1	10000	1	1	0	1	0
20	501	1	10000	1	1	0	1	0
19	501	1	10000	1	1	0	1	0
18	502	1	10000	1	1	0	1	0
19	503	1	10000	1	1	0	1	0
17	504	1	10000	1	1	0	1	0
17	505	1	10000	1	1	0	1	0
19	506	1	10000	1	1	0	1	0
19	546	1	10000	1	1	0	1	1
16	547	1	10000	1	1	0	1	1
17	548	1	10000	1	1	0	1	1
17	549	1	10000	1	1	0	1	1
17	550	1	10000	1	1	0	1	1
17	551	1	10000	1	1	0	1	1
16	552	1	10000	1	1	0	1	1
16	553	1	10000	1	1	0	1	1
15	554	1	10000	1	1	0	1	1
14	555	1	10000	1	1	0	1	1
14	556	1	10000	1	1	0	1	1
15	557	1	10000	1	1	0	1	1
15	558	1	10000	1	1	0	1	1
14	559	1	10000	1	1	0	1	1
15	560	1	10000	1	1	0	1	1
15	561	1	10000	1	1	0	1	1
16	562	1	10000	1	1	0	1	1
16	563	1	10000	1	1	0	1	1
16	564	1	10000	1	1	0	1	1
17	565	1	10000	1	1	0	1	1
19	566	1	10000	1	1	0	1	1
18	567	1	10000	1	1	0	1	1
18	568	1	10000	1	1	0	1	1
18	569	1	10000	1	1	0	1	1
21	570	1	10000	1	1	0	1	1
21	571	1	10000	1	1	0	1	1
22	572	1	10000	1	1	0	1	1
22	573	1	10000	1	1	0	1	1
20	574	1	10000	1	1	0	1	1
20	575	1	10000	1	1	0	1	1
19	576	1	10000	1	1	0	1	1
20	577	1	10000	1	1	0	1	1
21	578	1	10000	1	1	0	1	1
20	579	1	10000	1	1	0	1	1
19	580	1	10000	1	1	0	1	1
19	581	1	10000	1	1	0	1	1
19	582	1	10000	1	1	0	1	1
18	583	1	10000	1	1	0	1	1
19	584	1	10000	1	1	0	1	1
22	585	1	10000	1	1	0	1	1
24	586	1	10000	1	1	0	1	1
24	587	1	10000	1	1	0	1	1
25	588	1	10000	1	1	0	1	1
25	589	1	10000	1	1	0	1	1
25	554	1	10000	1	1	0	1	1
26	555	1	10000	1	1	0	1	1
26	556	1	10000	1	1	0	1	1
26	557	1	10000	1	1	0	1	1
25	558	1	10000	1	1	0	1	1
25	559	1	10000	1	1	0	1	1
24	560	1	10000	1	1	0	1	1
25	561	1	10000	1	1	0	1	1
24	556	1	10000	1	1	0	1	0
23	557	1	10000	1	1	0	1	0
23	558	1	10000	1	1	0	1	0
22	559	1	10000	1	1	0	1	0
21	560	1	10000	1	1	0	1	0
20	561	1	10000	1	1	0	1	0
20	562	1	10000	1	1	0	1	0
20	563	1	10000	1	1	0	1	0
20	564	1	10000	1	1	0	1	0
17	565	1	10000	1	1	0	1	0
18	566	1	10000	1	1	0	1	0
18	567	1	10000	1	1	0	1	0
21	568	1	10000	1	1	0	1	0
24	569	1	10000	1	1	0	1	0
24	570	1	10000	1	1	0	1	0
23	571	1	10000	1	1	0	1	0
22	572	1	10000	1	1	0	1	0
21	573	1	10000	1	1	0	1	0
21	574	1	10000	1	1	0	1	0
24	575	1	10000	1	1	0	1	0
25	576	1	10000	1	1	0	1	0
26	577	1	10000	1	1	0	1	0
26	578	1	10000	1	1	0	1	0
25	579	1	10000	1	1	0	1	0
27	580	1	10000	1	1	0	1	0
29	581	1	10000	1	1	0	1	0
31	582	1	10000	1	1	0	1	0
30	583	1	10000	1	1	0	1	0
30	584	1	10000	1	1	0	1	0
27	585	1	10000	1	1	0	1	0
26	586	1	10000	1	1	0	1	0
26	587	1	10000	1	1	0	1	0
26	588	1	10000	1	1	0	1	0
26	589	1	10000	1	1	0	1	0
24	590	1	10000	1	1	0	1	0
24	591	1	10000	1	1	0	1	0
23	592	1	10000	1	1	0	1	0
22	593	1	10000	1	1	0	1	0
21	594	1	10000	1	1	0	1	0
24	595	1	10000	1	1	0	1	0
23	596	1	10000	1	1	0	1	0
22	597	1	10000	1	1	0	1	0
23	598	1	10000	1	1	0	1	0
24	599	1	10000	1	1	0	1	0
24	600	1	10000	1	1	0	1	0
23	601	1	10000	1	1	0	1	0
25	602	1	10000	1	1	0	1	0
25	603	1	10000	1	1	0	1	0
24	604	1	10000	1	1	0	1	0
21	605	1	10000	1	1	0	1	0
21	606	1	10000	1	1	0	1	0
21	607	1	10000	1	1	0	1	0
21	608	1	10000	1	1	0	1	0
22	609	1	10000	1	1	0	1	0
22	610	1	10000	1	1	0	1	0
22	611	1	10000	1	1	0	1	0
22	612	1	10000	1	1	0	1	0
22	613	1	10000	1	1	0	1	0
21	614	1	10000	1	1	0	1	0
23	615	1	10000	1	1	0	1	0
23	616	1	10000	1	1	0	1	0
23	617	1	10000	1	1	0	1	0
22	618	1	10000	1	1	0	1	0
21	619	1	10000	1	1	0	1	0
22	620	1	10000	1	1	0	1	0
21	621	1	10000	1	1	0	1	0
22	622	1	10000	1	1	0	1	0
22	623	1	10000	1	1	0	1	0
24	624	1	10000	1	1	0	1	0
23	625	1	10000	1	1	0	1	0
23	626	1	10000	1	1	0	1	0
22	627	1	10000	1	1	0	1	0
24	628	1	10000	1	1	0	1	0
23	629	1	10000	1	1	0	1	0
24	630	1	10000	1	1	0	1	0
25	631	1	10000	1	1	0	1	0
24	632	1	10000	1	1	0	1	0
23	633	1	10000	1	1	0	1	0
27	634	1	10000	1	1	0	1	0
33	635	1	10000	1	1	0	1	0
35	636	1	10000	1	1	0	1	0
37	637	1	10000	1	1	0	1	0
39	638	1	10000	1	1	0	1	0
43	639	1	10000	1	1	0	1	0
43	640	1	10000	1	1	0	1	0
43	641	1	10000	1	1	0	1	0
52	642	1	10000	1	1	0	1	0
62	643	1	10000	1	1	0	1	0
78	644	1	10000	1	1	0	1	0
79	645	1	10000	1	1	0	1	0
89	646	1	10000	1	1	0	1	0
91	647	1	10000	1	1	0	1	0
96	648	1	10000	1	1	0	1	0
108	649	1	10000	1	1	0	1	0
165	650	1	10000	1	1	0	1	0
215	651	1	10000	1	1	0	1	0
233	652	1	10000	1	1	0	1	0
244	653	1	10000	1	1	0	1	0
285	654	1	10000	1	1	0	1	0
323	655	1	10000	1	1	0	1	0
323	656	1	10000	1	1	0	1	0
363	657	1	10000	1	1	0	1	0
386	658	1	10000	1	1	0	1	0
410	659	1	10000	1	1	0	1	0
454	660	1	10000	1	1	0	1	0
471	661	1	10000	1	1	0	1	0
487	662	1	10000	1	1	0	1	0
495	663	1	10000	1	1	0	1	0
477	664	1	10000	1	1	0	1	0
461	665	1	10000	1	1	0	1	0
443	666	1	10000	1	1	0	1	0
434	667	1	10000	1	1	0	1	0
437	668	1	10000	1	1	0	1	0
494	669	1	10000	1	1	0	1	0
571	670	1	10000	1	1	0	1	0
616	671	1	10000	1	1	0	1	0
608	672	1	10000	1	1	0	1	0
629	673	1	10000	1	1	0	1	0
633	674	1	10000	1	1	0	1	0
670	675	1	10000	1	1	0	1	0
697	676	1	10000	1	1	0	1	0
715	677	1	10000	1	1	0	1	0
711	678	1	10000	1	1	0	1	0
788	679	1	10000	1	1	0	1	0
875	680	1	10000	1	1	0	1	0
917	681	1	10000	1	1	0	1	0
916	682	1	10000	1	1	0	1	0
892	683	1	10000	1	1	0	1	0
855	684	1	10000	1	1	0	1	0
814	685	1	10000	1	1	0	1	0
786	686	1	10000	1	1	0	1	0
765	687	1	10000	1	1	0	1	0
746	688	1	10000	1	1	0	1	0
729	689	1	10000	1	1	0	1	0
712	690	1	10000	1	1	0	1	0
697	691	1	10000	1	1	0	1	0
684	692	1	10000	1	1	0	1	0
673	693	1	10000	1	1	0	1	0
660	694	1	10000	1	1	0	1	0
648	695	1	10000	1	1	0	1	0
634	696	1	10000	1	1	0	1	0
621	697	1	10000	1	1	0	1	0
608	698	1	10000	1	1	0	1	0
599	699	1	10000	1	1	0	1	0
587	700	1	10000	1	1	0	1	0
573	701	1	10000	1	1	0	1	0
554	702	1	10000	1	1	0	1	0
533	703	1	10000	1	1	0	1	0
510	704	1	10000	1	1	0	1	0
489	705	1	10000	1	1	0	1	0
476	706	1	10000	1	1	0	1	0
466	707	1	10000	1	1	0	1	0
462	708	1	10000	1	1	0	1	0
459	709	1	10000	1	1	0	1	0
459	710	1	10000	1	1	0	1	0
460	711	1	10000	1	1	0	1	0
462	712	1	10000	1	1	0	1	0
463	713	1	10000	1	1	0	1	0
464	714	1	10000	1	1	0	1	0
466	715	1	10000	1	1	0	1	0
463	716	1	10000	1	1	0	1	0
459	717	1	10000	1	1	0	1	0
455	718	1	10000	1	1	0	1	0
450	719	1	10000	1	1	0	1	0
442	720	1	10000	1	1	0	1	0
435	721	1	10000	1	1	0	1	0
428	722	1	10000	1	1	0	1	0
420	723	1	10000	1	1	0	1	0
411	724	1	10000	1	1	0	1	0
402	725	1	10000	1	1	0	1	0
399	726	1	10000	1	1	0	1	0
394	727	1	10000	1	1	0	1	0
389	728	1	10000	1	1	0	1	0
383	729	1	10000	1	1	0	1	0
380	730	1	10000	1	1	0	1	0
376	731	1	10000	1	1	0	1	0
370	732	1	10000	1	1	0	1	0
363	733	1	10000	1	1	0	1	0
354	734	1	10000	1	1	0	1	0
345	735	1	10000	1	1	0	1	0
333	736	1	10000	1	1	0	1	0
321	737	1	10000	1	1	0	1	0
306	738	1	10000	1	1	0	1	0
296	739	1	10000	1	1	0	1	0
292	740	1	10000	1	1	0	1	0
285	741	1	10000	1	1	0	1	0
279	742	1	10000	1	1	0	1	0
272	743	1	10000	1	1	0	1	0
262	744	1	10000	1	1	0	1	0
251	745	1	10000	1	1	0	1	0
240	746	1	10000	1	1	0	1	0
230	747	1	10000	1	1	0	1	0
221	748	1	10000	1	1	0	1	0
212	749	1	10000	1	1	0	1	0
204	750	1	10000	1	1	0	1	0
199	751	1	10000	1	1	0	1	0
191	752	1	10000	1	1	0	1	0
183	753	1	10000	1	1	0	1	0
176	754	1	10000	1	1	0	1	0
173	755	1	10000	1	1	0	1	0
167	756	1	10000	1	1	0	1	0
164	757	1	10000	1	1	0	1	0
162	758	1	10000	1	1	0	1	0
161	759	1	10000	1	1	0	1	0
162	760	1	10000	1	1	0	1	0
164	761	1	10000	1	1	0	1	0
165	762	1	10000	1	1	0	1	0
166	763	1	10000	1	1	0	1	0
164	764	1	10000	1	1	0	1	0
158	765	1	10000	1	1	0	1	0
153	766	1	10000	1	1	0	1	0
148	767	1	10000	1	1	0	1	0
144	768	1	10000	1	1	0	1	0
139	769	1	10000	1	1	0	1	0
134	770	1	10000	1	1	0	1	0
129	771	1	10000	1	1	0	1	0
123	772	1	10000	1	1	0	1	0
118	773	1	10000	1	1	0	1	0
113	774	1	10000	1	1	0	1	0
110	775	1	10000	1	1	0	1	0
107	776	1	10000	1	1	0	1	0
108	777	1	10000	1	1	0	1	0
109	778	1	10000	1	1	0	1	0
112	779	1	10000	1	1	0	1	0
115	780	1	10000	1	1	0	1	0
116	781	1	10000	1	1	0	1	0
118	782	1	10000	1	1	0	1	0
118	783	1	10000	1	1	0	1	0
118	784	1	10000	1	1	0	1	0
113	785	1	10000	1	1	0	1	0
110	786	1	10000	1	1	0	1	0
107	787	1	10000	1	1	0	1	0
104	788	1	10000	1	1	0	1	0
100	789	1	10000	1	1	0	1	0
96	790	1	10000	1	1	0	1	0
93	791	1	10000	1	1	0	1	0
90	792	1	10000	1	1	0	1	0
87	793	1	10000	1	1	0	1	0
83	794	1	10000	1	1	0	1	0
83	795	1	10000	1	1	0	1	0
78	796	1	10000	1	1	0	1	0
76	797	1	10000	1	1	0	1	0
77	798	1	10000	1	1	0	1	0
80	799	1	10000	1	1	0	1	0
82	800	1	10000	1	1	0	1	0
87	801	1	10000	1	1	0	1	0
92	802	1	10000	1	1	0	1	0
93	803	1	10000	1	1	0	1	0
92	804	1	10000	1	1	0	1	0
87	805	1	10000	1	1	0	1	0
85	806	1	10000	1	1	0	1	0
82	807	1	10000	1	1	0	1	0
80	808	1	10000	1	1	0	1	0
79	809	1	10000	1	1	0	1	0
76	810	1	10000	1	1	0	1	0
75	811	1	10000	1	1	0	1	0
73	812	1	10000	1	1	0	1	0
72	813	1	10000	1	1	0	1	0
72	814	1	10000	1	1	0	1	0
71	815	1	10000	1	1	0	1	0
69	816	1	10000	1	1	0	1	0
69	817	1	10000	1	1	0	1	0
70	818	1	10000	1	1	0	1	0
72	819	1	10000	1	1	0	1	0
74	820	1	10000	1	1	0	1	0
77	821	1	10000	1	1	0	1	0
79	822	1	10000	1	1	0	1	0
79	823	1	10000	1	1	0	1	0
77	824	1	10000	1	1	0	1	0
73	825	1	10000	1	1	0	1	0
71	826	1	10000	1	1	0	1	0
70	827	1	10000	1	1	0	1	0
72	828	1	10000	1	1	0	1	0
73	829	1	10000	1	1	0	1	0
73	830	1	10000	1	1	0	1	0
73	831	1	10000	1	1	0	1	0
72	832	1	10000	1	1	0	1	0
68	833	1	10000	1	1	0	1	0
67	834	1	10000	1	1	0	1	0
67	835	1	10000	1	1	0	1	0
63	836	1	10000	1	1	0	1	0
60	837	1	10000	1	1	0	1	0
58	838	1	10000	1	1	0	1	0
58	839	1	10000	1	1	0	1	0
60	840	1	10000	1	1	0	1	0
61	841	1	10000	1	1	0	1	0
62	842	1	10000	1	1	0	1	0
62	843	1	10000	1	1	0	1	0
61	844	1	10000	1	1	0	1	0
56	845	1	10000	1	1	0	1	0
56	846	1	10000	1	1	0	1	0
56	847	1	10000	1	1	0	1	0
56	848	1	10000	1	1	0	1	0
58	849	1	10000	1	1	0	1	0
59	850	1	10000	1	1	0	1	0
60	851	1	10000	1	1	0	1	0
60	852	1	10000	1	1	0	1	0
59	853	1	10000	1	1	0	1	0
58	854	1	10000	1	1	0	1	0
58	855	1	10000	1	1	0	1	0
57	856	1	10000	1	1	0	1	0
57	857	1	10000	1	1	0	1	0
56	858	1	10000	1	1	0	1	0
55	859	1	10000	1	1	0	1	0
57	860	1	10000	1	1	0	1	0
59	861	1	10000	1	1	0	1	0
60	862	1	10000	1	1	0	1	0
61	863	1	10000	1	1	0	1	0
61	864	1	10000	1	1	0	1	0
56	865	1	10000	1	1	0	1	0
55	866	1	10000	1	1	0	1	0
56	867	1	10000	1	1	0	1	0
56	868	1	10000	1	1	0	1	0
56	869	1	10000	1	1	0	1	0
58	870	1	10000	1	1	0	1	0
58	871	1	10000	1	1	0	1	0
56	872	1	10000	1	1	0	1	0
53	873	1	10000	1	1	0	1	0
51	874	1	10000	1	1	0	1	0
51	875	1	10000	1	1	0	1	0
48	876	1	10000	1	1	0	1	0
47	877	1	10000	1	1	0	1	0
47	878	1	10000	1	1	0	1	0
48	879	1	10000	1	1	0	1	0
49	880	1	10000	1	1	0	1	0
51	881	1	10000	1	1	0	1	0
52	882	1	10000	1	1	0	1	0
53	883	1	10000	1	1	0	1	0
52	884	1	10000	1	1	0	1	0
48	885	1	10000	1	1	0	1	0
46	886	1	10000	1	1	0	1	0
45	887	1	10000	1	1	0	1	0
43	888	1	10000	1	1	0	1	0
42	889	1	10000	1	1	0	1	0
43	890	1	10000	1	1	0	1	0
43	891	1	10000	1	1	0	1	0
43	892	1	10000	1	1	0	1	0
41	893	1	10000	1	1	0	1	0
41	894	1	10000	1	1	0	1	0
42	895	1	10000	1	1	0	1	0
40	896	1	10000	1	1	0	1	0
38	897	1	10000	1	1	0	1	0
37	898	1	10000	1	1	0	1	0
38	899	1	10000	1	1	0	1	0
41	900	1	10000	1	1	0	1	0
44	901	1	10000	1	1	0	1	0
46	902	1	10000	1	1	0	1	0
46	903	1	10000	1	1	0	1	0
45	904	1	10000	1	1	0	1	0
42	905	1	10000	1	1	0	1	0
42	906	1	10000	1	1	0	1	0
42	907	1	10000	1	1	0	1	0
41	908	1	10000	1	1	0	1	0
41	909	1	10000	1	1	0	1	0
42	910	1	10000	1	1	0	1	0
43	911	1	10000	1	1	0	1	0
44	912	1	10000	1	1	0	1	0
42	913	1	10000	1	1	0	1	0
42	914	1	10000	1	1	0	1	0
44	915	1	10000	1	1	0	1	0
43	916	1	10000	1	1	0	1	0
41	917	1	10000	1	1	0	1	0
39	918	1	10000	1	1	0	1	0
38	919	1	10000	1	1	0	1	0
38	920	1	10000	1	1	0	1	0
37	921	1	10000	1	1	0	1	0
37	922	1	10000	1	1	0	1	0
37	923	1	10000	1	1	0	1	0
35	924	1	10000	1	1	0	1	0
33	925	1	10000	1	1	0	1	0
35	926	1	10000	1	1	0	1	0
35	927	1	10000	1	1	0	1	0
36	928	1	10000	1	1	0	1	0
36	929	1	10000	1	1	0	1	0
38	930	1	10000	1	1	0	1	0
39	931	1	10000	1	1	0	1	0
40	932	1	10000	1	1	0	1	0
40	933	1	10000	1	1	0	1	0
44	934	1	10000	1	1	0	1	0
46	935	1	10000	1	1	0	1	0
45	936	1	10000	1	1	0	1	0
44	937	1	10000	1	1	0	1	0
43	938	1	10000	1	1	0	1	0
42	939	1	10000	1	1	0	1	0
42	940	1	10000	1	1	0	1	0
42	941	1	10000	1	1	0	1	0
42	942	1	10000	1	1	0	1	0
41	943	1	10000	1	1	0	1	0
39	944	1	10000	1	1	0	1	0
36	945	1	10000	1	1	0	1	0
36	946	1	10000	1	1	0	1	0
36	947	1	10000	1	1	0	1	0
35	948	1	10000	1	1	0	1	0
33	949	1	10000	1	1	0	1	0
33	950	1	10000	1	1	0	1	0
35	951	1	10000	1	1	0	1	0
38	952	1	10000	1	1	0	1	0
37	953	1	10000	1	1	0	1	0
36	954	1	10000	1	1	0	1	0
39	955	1	10000	1	1	0	1	0
38	956	1	10000	1	1	0	1	0
37	957	1	10000	1	1	0	1	0
39	958	1	10000	1	1	0	1	0
41	959	1	10000	1	1	0	1	0
42	960	1	10000	1	1	0	1	0
44	961	1	10000	1	1	0	1	0
46	962	1	10000	1	1	0	1	0
47	963	1	10000	1	1	0	1	0
48	964	1	10000	1	1	0	1	0
47	965	1	10000	1	1	0	1	0
46	966	1	10000	1	1	0	1	0
46	967	1	10000	1	1	0	1	0
51	968	1	10000	1	1	0	1	0
54	969	1	10000	1	1	0	1	0
53	970	1	10000	1	1	0	1	0
52	971	1	10000	1	1	0	1	0
56	972	1	10000	1	1	0	1	0
63	973	1	10000	1	1	0	1	0
64	974	1	10000	1	1	0	1	0
68	975	1	10000	1	1	0	1	0
67	976	1	10000	1	1	0	1	0
70	977	1	10000	1	1	0	1	0
76	978	1	10000	1	1	0	1	0
78	979	1	10000	1	1	0	1	0
77	980	1	10000	1	1	0	1	0
76	981	1	10000	1	1	0	1	0
97	982	1	10000	1	1	0	1	0
130	983	1	10000	1	1	0	1	0
136	984	1	10000	1	1	0	1	0
138	985	1	10000	1	1	0	1	0
137	986	1	10000	1	1	0	1	0
153	987	1	10000	1	1	0	1	0
166	988	1	10000	1	1	0	1	0
181	989	1	10000	1	1	0	1	0
189	990	1	10000	1	1	0	1	0
186	991	1	10000	1	1	0	1	0
182	992	1	10000	1	1	0	1	0
191	993	1	10000	1	1	0	1	0
191	994	1	10000	1	1	0	1	0
208	995	1	10000	1	1	0	1	0
206	996	1	10000	1	1	0	1	0
196	997	1	10000	1	1	0	1	0
188	998	1	10000	1	1	0	1	0
181	999	1	10000	1	1	0	1	0
178	1000	1	10000	1	1	0	1	0
189	1001	1	10000	1	1	0	1	0
29	2	0	10000	2	1	0	2	0
28	3	0	10000	2	1	0	2	0
26	4	0	10000	2	1	0	2	0
25	5	0	10000	2	1	0	2	0
26	6	0	10000	2	1	0	2	0
25	7	0	10000	2	1	0	2	0
24	8	0	10000	2	1	0	2	0
23	9	0	10000	2	1	0	2	0
22	10	0	10000	2	1	0	2	0
24	11	0	10000	2	1	0	2	0
24	12	0	10000	2	1	0	2	0
27	13	0	10000	2	1	0	2	0
28	14	0	10000	2	1	0	2	0
29	15	0	10000	2	1	0	2	0
27	16	0	10000	2	1	0	2	0
27	17	0	10000	2	1	0	2	0
27	18	0	10000	2	1	0	2	0
27	19	0	10000	2	1	0	2	0
27	20	0	10000	2	1	0	2	0
26	21	0	10000	2	1	0	2	0
30	21	0	10000	2	1	0	2	0
31	22	0	10000	2	1	0	2	0
31	24	0	10000	2	1	0	2	0
32	25	0	10000	2	1	0	2	0
35	26	0	10000	2	1	0	2	0
34	27	0	10000	2	1	0	2	0
33	28	0	10000	2	1	0	2	0
35	29	0	10000	2	1	0	2	0
37	30	0	10000	2	1	0	2	0
36	31	0	10000	2	1	0	2	0
36	31	0	10000	2	1	0	2	0
38	32	0	10000	2	1	0	2	0
37	34	0	10000	2	1	0	2	0
38	35	0	10000	2	1	0	2	0
35	36	0	10000	2	1	0	2	0
36	37	0	10000	2	1	0	2	0
38	38	0	10000	2	1	0	2	0
39	39	0	10000	2	1	0	2	0
40	40	0	10000	2	1	0	2	0
38	41	0	10000	2	1	0	2	0
38	41	0	10000	2	1	0	2	0
37	42	0	10000	2	1	0	2	0
37	44	0	10000	2	1	0	2	0
34	45	0	10000	2	1	0	2	0
36	46	0	10000	2	1	0	2	0
34	47	0	10000	2	1	0	2	0
34	48	0	10000	2	1	0	2	0
33	49	0	10000	2	1	0	2	0
32	50	0	10000	2	1	0	2	0
32	51	0	10000	2	1	0	2	0
31	51	0	10000	2	1	0	2	0
31	52	0	10000	2	1	0	2	0
32	54	0	10000	2	1	0	2	0
34	55	0	10000	2	1	0	2	0
32	56	0	10000	2	1	0	2	0
32	57	0	10000	2	1	0	2	0
32	58	0	10000	2	1	0	2	0
32	59	0	10000	2	1	0	2	0
34	60	0	10000	2	1	0	2	0
34	61	0	10000	2	1	0	2	0
35	61	0	10000	2	1	0	2	0
33	62	0	10000	2	1	0	2	0
32	64	0	10000	2	1	0	2	0
32	65	0	10000	2	1	0	2	0
32	66	0	10000	2	1	0	2	0
32	67	0	10000	2	1	0	2	0
31	68	0	10000	2	1	0	2	0
32	69	0	10000	2	1	0	2	0
33	70	0	10000	2	1	0	2	0
31	71	0	10000	2	1	0	2	0
31	71	0	10000	2	1	0	2	0
31	72	0	10000	2	1	0	2	0
31	74	0	10000	2	1	0	2	0
32	75	0	10000	2	1	0	2	0
30	76	0	10000	2	1	0	2	0
29	77	0	10000	2	1	0	2	0
29	78	0	10000	2	1	0	2	0
29	79	0	10000	2	1	0	2	0
29	80	0	10000	2	1	0	2	0
29	81	0	10000	2	1	0	2	0
30	81	0	10000	2	1	0	2	0
29	82	0	10000	2	1	0	2	0
29	84	0	10000	2	1	0	2	0
27	85	0	10000	2	1	0	2	0
28	86	0	10000	2	1	0	2	0
27	87	0	10000	2	1	0	2	0
26	88	0	10000	2	1	0	2	0
27	89	0	10000	2	1	0	2	0
27	90	0	10000	2	1	0	2	0
27	91	0	10000	2	1	0	2	0
27	91	0	10000	2	1	0	2	0
30	92	0	10000	2	1	0	2	0
30	94	0	10000	2	1	0	2	0
31	95	0	10000	2	1	0	2	0
29	96	0	10000	2	1	0	2	0
28	97	0	10000	2	1	0	2	0
27	98	0	10000	2	1	0	2	0
26	99	0	10000	2	1	0	2	0
26	100	0	10000	2	1	0	2	0
25	101	0	10000	2	1	0	2	0
26	101	0	10000	2	1	0	2	0
24	102	0	10000	2	1	0	2	0
23	104	0	10000	2	1	0	2	0
23	105	0	10000	2	1	0	2	0
25	106	0	10000	2	1	0	2	0
25	107	0	10000	2	1	0	2	0
25	108	0	10000	2	1	0	2	0
24	109	0	10000	2	1	0	2	0
25	110	0	10000	2	1	0	2	0
25	111	0	10000	2	1	0	2	0
24	111	0	10000	2	1	0	2	0
24	112	0	10000	2	1	0	2	0
25	114	0	10000	2	1	0	2	0
27	115	0	10000	2	1	0	2	0
26	116	0	10000	2	1	0	2	0
27	117	0	10000	2	1	0	2	0
28	118	0	10000	2	1	0	2	0
28	119	0	10000	2	1	0	2	0
32	120	0	10000	2	1	0	2	0
35	121	0	10000	2	1	0	2	0
37	121	0	10000	2	1	0	2	0
37	122	0	10000	2	1	0	2	0
36	124	0	10000	2	1	0	2	0
35	125	0	10000	2	1	0	2	0
37	126	0	10000	2	1	0	2	0
36	127	0	10000	2	1	0	2	0
37	128	0	10000	2	1	0	2	0
37	129	0	10000	2	1	0	2	0
35	130	0	10000	2	1	0	2	0
34	131	0	10000	2	1	0	2	0
34	131	0	10000	2	1	0	2	0
33	132	0	10000	2	1	0	2	0
33	134	0	10000	2	1	0	2	0
35	135	0	10000	2	1	0	2	0
35	136	0	10000	2	1	0	2	0
36	137	0	10000	2	1	0	2	0
35	138	0	10000	2	1	0	2	0
37	139	0	10000	2	1	0	2	0
39	140	0	10000	2	1	0	2	0
39	141	0	10000	2	1	0	2	0
39	141	0	10000	2	1	0	2	0
39	142	0	10000	2	1	0	2	0
39	144	0	10000	2	1	0	2	0
39	145	0	10000	2	1	0	2	0
42	146	0	10000	2	1	0	2	0
40	147	0	10000	2	1	0	2	0
38	148	0	10000	2	1	0	2	0
36	149	0	10000	2	1	0	2	0
35	150	0	10000	2	1	0	2	0
35	151	0	10000	2	1	0	2	0
34	151	0	10000	2	1	0	2	0
35	152	0	10000	2	1	0	2	0
34	154	0	10000	2	1	0	2	0
33	155	0	10000	2	1	0	2	0
31	156	0	10000	2	1	0	2	0
34	157	0	10000	2	1	0	2	0
36	158	0	10000	2	1	0	2	0
36	159	0	10000	2	1	0	2	0
34	160	0	10000	2	1	0	2	0
34	161	0	10000	2	1	0	2	0
34	161	0	10000	2	1	0	2	0
32	162	0	10000	2	1	0	2	0
32	164	0	10000	2	1	0	2	0
31	165	0	10000	2	1	0	2	0
34	166	0	10000	2	1	0	2	0
34	167	0	10000	2	1	0	2	0
33	168	0	10000	2	1	0	2	0
32	169	0	10000	2	1	0	2	0
34	170	0	10000	2	1	0	2	0
35	171	0	10000	2	1	0	2	0
36	171	0	10000	2	1	0	2	0
35	172	0	10000	2	1	0	2	0
34	174	0	10000	2	1	0	2	0
34	175	0	10000	2	1	0	2	0
32	176	0	10000	2	1	0	2	0
32	177	0	10000	2	1	0	2	0
31	178	0	10000	2	1	0	2	0
30	179	0	10000	2	1	0	2	0
29	180	0	10000	2	1	0	2	0
30	181	0	10000	2	1	0	2	0
31	181	0	10000	2	1	0	2	0
30	182	0	10000	2	1	0	2	0
30	184	0	10000	2	1	0	2	0
29	185	0	10000	2	1	0	2	0
31	186	0	10000	2	1	0	2	0
31	187	0	10000	2	1	0	2	0
30	188	0	10000	2	1	0	2	0
28	189	0	10000	2	1	0	2	0
28	190	0	10000	2	1	0	2	0
27	191	0	10000	2	1	0	2	0
27	191	0	10000	2	1	0	2	0
26	192	0	10000	2	1	0	2	0
26	194	0	10000	2	1	0	2	0
27	195	0	10000	2	1	0	2	0
27	196	0	10000	2	1	0	2	0
28	197	0	10000	2	1	0	2	0
27	198	0	10000	2	1	0	2	0
27	199	0	10000	2	1	0	2	0
28	200	0	10000	2	1	0	2	0
28	201	0	10000	2	1	0	2	0
29	201	0	10000	2	1	0	2	0
28	202	0	10000	2	1	0	2	0
28	204	0	10000	2	1	0	2	0
28	205	0	10000	2	1	0	2	0
30	206	0	10000	2	1	0	2	0
29	207	0	10000	2	1	0	2	0
28	208	0	10000	2	1	0	2	0
27	209	0	10000	2	1	0	2	0
26	210	0	10000	2	1	0	2	0
26	211	0	10000	2	1	0	2	0
25	211	0	10000	2	1	0	2	0
26	212	0	10000	2	1	0	2	0
27	214	0	10000	2	1	0	2	0
27	215	0	10000	2	1	0	2	0
27	216	0	10000	2	1	0	2	0
27	217	0	10000	2	1	0	2	0
29	218	0	10000	2	1	0	2	0
31	219	0	10000	2	1	0	2	0
29	220	0	10000	2	1	0	2	0
29	221	0	10000	2	1	0	2	0
29	221	0	10000	2	1	0	2	0
27	222	0	10000	2	1	0	2	0
26	224	0	10000	2	1	0	2	0
24	225	0	10000	2	1	0	2	0
25	226	0	10000	2	1	0	2	0
25	227	0	10000	2	1	0	2	0
24	228	0	10000	2	1	0	2	0
25	229	0	10000	2	1	0	2	0
31	230	0	10000	2	1	0	2	0
30	231	0	10000	2	1	0	2	0
29	231	0	10000	2	1	0	2	0
30	232	0	10000	2	1	0	2	0
30	234	0	10000	2	1	0	2	0
29	235	0	10000	2	1	0	2	0
27	236	0	10000	2	1	0	2	0
26	237	0	10000	2	1	0	2	0
25	238	0	10000	2	1	0	2	0
27	239	0	10000	2	1	0	2	0
29	240	0	10000	2	1	0	2	0
30	241	0	10000	2	1	0	2	0
30	241	0	10000	2	1	0	2	0
30	242	0	10000	2	1	0	2	0
31	244	0	10000	2	1	0	2	0
30	245	0	10000	2	1	0	2	0
32	246	0	10000	2	1	0	2	0
32	247	0	10000	2	1	0	2	0
32	248	0	10000	2	1	0	2	0
30	249	0	10000	2	1	0	2	0
29	250	0	10000	2	1	0	2	0
29	251	0	10000	2	1	0	2	0
29	251	0	10000	2	1	0	2	0
30	252	0	10000	2	1	0	2	0
31	254	0	10000	2	1	0	2	0
31	255	0	10000	2	1	0	2	0
28	256	0	10000	2	1	0	2	0
28	257	0	10000	2	1	0	2	0
28	258	0	10000	2	1	0	2	0
28	259	0	10000	2	1	0	2	0
28	260	0	10000	2	1	0	2	0
28	261	0	10000	2	1	0	2	0
28	261	0	10000	2	1	0	2	0
28	262	0	10000	2	1	0	2	0
28	264	0	10000	2	1	0	2	0
30	265	0	10000	2	1	0	2	0
32	266	0	10000	2	1	0	2	0
32	267	0	10000	2	1	0	2	0
33	268	0	10000	2	1	0	2	0
33	269	0	10000	2	1	0	2	0
33	270	0	10000	2	1	0	2	0
33	271	0	10000	2	1	0	2	0
34	271	0	10000	2	1	0	2	0
34	272	0	10000	2	1	0	2	0
34	274	0	10000	2	1	0	2	0
33	275	0	10000	2	1	0	2	0
30	276	0	10000	2	1	0	2	0
30	277	0	10000	2	1	0	2	0
30	278	0	10000	2	1	0	2	0
29	279	0	10000	2	1	0	2	0
30	280	0	10000	2	1	0	2	0
32	281	0	10000	2	1	0	2	0
32	281	0	10000	2	1	0	2	0
31	282	0	10000	2	1	0	2	0
30	284	0	10000	2	1	0	2	0
29	285	0	10000	2	1	0	2	0
32	286	0	10000	2	1	0	2	0
31	287	0	10000	2	1	0	2	0
30	288	0	10000	2	1	0	2	0
29	289	0	10000	2	1	0	2	0
30	290	0	10000	2	1	0	2	0
29	291	0	10000	2	1	0	2	0
29	291	0	10000	2	1	0	2	0
29	292	0	10000	2	1	0	2	0
29	294	0	10000	2	1	0	2	0
30	295	0	10000	2	1	0	2	0
26	296	0	10000	2	1	0	2	0
27	297	0	10000	2	1	0	2	0
29	298	0	10000	2	1	0	2	0
32	299	0	10000	2	1	0	2	0
33	300	0	10000	2	1	0	2	0
33	301	0	10000	2	1	0	2	0
33	301	0	10000	2	1	0	2	0
33	302	0	10000	2	1	0	2	0
33	304	0	10000	2	1	0	2	0
33	305	0	10000	2	1	0	2	0
34	306	0	10000	2	1	0	2	0
35	307	0	10000	2	1	0	2	0
37	308	0	10000	2	1	0	2	0
37	309	0	10000	2	1	0	2	0
38	310	0	10000	2	1	0	2	0
37	311	0	10000	2	1	0	2	0
35	311	0	10000	2	1	0	2	0
35	312	0	10000	2	1	0	2	0
34	314	0	10000	2	1	0	2	0
33	315	0	10000	2	1	0	2	0
34	316	0	10000	2	1	0	2	0
35	317	0	10000	2	1	0	2	0
36	318	0	10000	2	1	0	2	0
37	319	0	10000	2	1	0	2	0
38	320	0	10000	2	1	0	2	0
39	321	0	10000	2	1	0	2	0
39	321	0	10000	2	1	0	2	0
38	322	0	10000	2	1	0	2	0
38	324	0	10000	2	1	0	2	0
37	325	0	10000	2	1	0	2	0
37	326	0	10000	2	1	0	2	0
36	327	0	10000	2	1	0	2	0
34	328	0	10000	2	1	0	2	0
33	329	0	10000	2	1	0	2	0
32	330	0	10000	2	1	0	2	0
32	331	0	10000	2	1	0	2	0
33	331	0	10000	2	1	0	2	0
34	332	0	10000	2	1	0	2	0
34	334	0	10000	2	1	0	2	0
35	335	0	10000	2	1	0	2	0
32	336	0	10000	2	1	0	2	0
31	337	0	10000	2	1	0	2	0
31	338	0	10000	2	1	0	2	0
31	339	0	10000	2	1	0	2	0
32	340	0	10000	2	1	0	2	0
32	341	0	10000	2	1	0	2	0
32	341	0	10000	2	1	0	2	0
32	342	0	10000	2	1	0	2	0
30	344	0	10000	2	1	0	2	0
29	345	0	10000	2	1	0	2	0
30	346	0	10000	2	1	0	2	0
30	347	0	10000	2	1	0	2	0
29	348	0	10000	2	1	0	2	0
30	349	0	10000	2	1	0	2	0
30	350	0	10000	2	1	0	2	0
32	351	0	10000	2	1	0	2	0
32	351	0	10000	2	1	0	2	0
33	352	0	10000	2	1	0	2	0
33	354	0	10000	2	1	0	2	0
33	355	0	10000	2	1	0	2	0
31	356	0	10000	2	1	0	2	0
30	357	0	10000	2	1	0	2	0
30	358	0	10000	2	1	0	2	0
29	359	0	10000	2	1	0	2	0
29	360	0	10000	2	1	0	2	0
28	361	0	10000	2	1	0	2	0
28	361	0	10000	2	1	0	2	0
27	362	0	10000	2	1	0	2	0
26	364	0	10000	2	1	0	2	0
30	365	0	10000	2	1	0	2	0
31	366	0	10000	2	1	0	2	0
29	367	0	10000	2	1	0	2	0
30	368	0	10000	2	1	0	2	0
32	369	0	10000	2	1	0	2	0
34	370	0	10000	2	1	0	2	0
36	371	0	10000	2	1	0	2	0
38	371	0	10000	2	1	0	2	0
39	372	0	10000	2	1	0	2	0
38	374	0	10000	2	1	0	2	0
37	375	0	10000	2	1	0	2	0
35	376	0	10000	2	1	0	2	0
35	377	0	10000	2	1	0	2	0
37	378	0	10000	2	1	0	2	0
37	379	0	10000	2	1	0	2	0
36	380	0	10000	2	1	0	2	0
35	381	0	10000	2	1	0	2	0
34	381	0	10000	2	1	0	2	0
33	382	0	10000	2	1	0	2	0
33	384	0	10000	2	1	0	2	0
32	385	0	10000	2	1	0	2	0
34	386	0	10000	2	1	0	2	0
35	387	0	10000	2	1	0	2	0
36	388	0	10000	2	1	0	2	0
37	389	0	10000	2	1	0	2	0
37	390	0	10000	2	1	0	2	0
35	391	0	10000	2	1	0	2	0
34	391	0	10000	2	1	0	2	0
35	392	0	10000	2	1	0	2	0
34	394	0	10000	2	1	0	2	0
34	395	0	10000	2	1	0	2	0
32	396	0	10000	2	1	0	2	0
32	397	0	10000	2	1	0	2	0
31	398	0	10000	2	1	0	2	0
32	399	0	10000	2	1	0	2	0
31	400	0	10000	2	1	0	2	0
32	401	0	10000	2	1	0	2	0
34	401	0	10000	2	1	0	2	0
35	402	0	10000	2	1	0	2	0
36	404	0	10000	2	1	0	2	0
35	405	0	10000	2	1	0	2	0
36	406	0	10000	2	1	0	2	0
34	407	0	10000	2	1	0	2	0
33	408	0	10000	2	1	0	2	0
33	409	0	10000	2	1	0	2	0
31	410	0	10000	2	1	0	2	0
30	411	0	10000	2	1	0	2	0
31	411	0	10000	2	1	0	2	0
31	412	0	10000	2	1	0	2	0
31	414	0	10000	2	1	0	2	0
31	415	0	10000	2	1	0	2	0
30	416	0	10000	2	1	0	2	0
29	417	0	10000	2	1	0	2	0
28	418	0	10000	2	1	0	2	0
27	419	0	10000	2	1	0	2	0
27	420	0	10000	2	1	0	2	0
26	421	0	10000	2	1	0	2	0
26	421	0	10000	2	1	0	2	0
24	422	0	10000	2	1	0	2	0
23	424	0	10000	2	1	0	2	0
23	425	0	10000	2	1	0	2	0
27	426	0	10000	2	1	0	2	0
27	427	0	10000	2	1	0	2	0
26	428	0	10000	2	1	0	2	0
25	429	0	10000	2	1	0	2	0
26	430	0	10000	2	1	0	2	0
27	431	0	10000	2	1	0	2	0
27	431	0	10000	2	1	0	2	0
27	432	0	10000	2	1	0	2	0
26	434	0	10000	2	1	0	2	0
26	435	0	10000	2	1	0	2	0
22	436	0	10000	2	1	0	2	0
24	437	0	10000	2	1	0	2	0
24	438	0	10000	2	1	0	2	0
26	439	0	10000	2	1	0	2	0
28	440	0	10000	2	1	0	2	0
30	441	0	10000	2	1	0	2	0
31	441	0	10000	2	1	0	2	0
30	442	0	10000	2	1	0	2	0
31	444	0	10000	2	1	0	2	0
30	445	0	10000	2	1	0	2	0
32	446	0	10000	2	1	0	2	0
31	447	0	10000	2	1	0	2	0
30	448	0	10000	2	1	0	2	0
29	449	0	10000	2	1	0	2	0
28	450	0	10000	2	1	0	2	0
27	451	0	10000	2	1	0	2	0
26	451	0	10000	2	1	0	2	0
25	452	0	10000	2	1	0	2	0
25	454	0	10000	2	1	0	2	0
25	455	0	10000	2	1	0	2	0
22	456	0	10000	2	1	0	2	0
23	457	0	10000	2	1	0	2	0
23	458	0	10000	2	1	0	2	0
23	459	0	10000	2	1	0	2	0
23	460	0	10000	2	1	0	2	0
23	461	0	10000	2	1	0	2	0
23	461	0	10000	2	1	0	2	0
22	462	0	10000	2	1	0	2	0
21	464	0	10000	2	1	0	2	0
20	465	0	10000	2	1	0	2	0
21	466	0	10000	2	1	0	2	0
21	467	0	10000	2	1	0	2	0
20	468	0	10000	2	1	0	2	0
20	469	0	10000	2	1	0	2	0
19	470	0	10000	2	1	0	2	0
20	471	0	10000	2	1	0	2	0
20	471	0	10000	2	1	0	2	0
20	472	0	10000	2	1	0	2	0
20	474	0	10000	2	1	0	2	0
20	475	0	10000	2	1	0	2	0
17	476	0	10000	2	1	0	2	0
16	477	0	10000	2	1	0	2	0
17	478	0	10000	2	1	0	2	0
17	479	0	10000	2	1	0	2	0
17	480	0	10000	2	1	0	2	0
17	481	0	10000	2	1	0	2	0
17	481	0	10000	2	1	0	2	0
17	482	0	10000	2	1	0	2	0
17	484	0	10000	2	1	0	2	0
16	485	0	10000	2	1	0	2	0
17	486	0	10000	2	1	0	2	0
17	487	0	10000	2	1	0	2	0
17	488	0	10000	2	1	0	2	0
18	489	0	10000	2	1	0	2	0
17	490	0	10000	2	1	0	2	0
16	491	0	10000	2	1	0	2	0
16	491	0	10000	2	1	0	2	0
17	492	0	10000	2	1	0	2	0
16	494	0	10000	2	1	0	2	0
16	495	0	10000	2	1	0	2	0
13	496	0	10000	2	1	0	2	0
13	497	0	10000	2	1	0	2	0
14	498	0	10000	2	1	0	2	0
14	499	0	10000	2	1	0	2	0
16	500	0	10000	2	1	0	2	0
17	501	0	10000	2	1	0	2	0
18	502	0	10000	2	1	0	2	1
18	503	0	10000	2	1	0	2	1
19	504	0	10000	2	1	0	2	1
18	505	0	10000	2	1	0	2	1
20	506	0	10000	2	1	0	2	1
20	507	0	10000	2	1	0	2	1
19	508	0	10000	2	1	0	2	1
18	509	0	10000	2	1	0	2	1
17	510	0	10000	2	1	0	2	1
18	511	0	10000	2	1	0	2	1
17	511	0	10000	2	1	0	2	1
17	512	0	10000	2	1	0	2	1
19	514	0	10000	2	1	0	2	1
20	515	0	10000	2	1	0	2	1
17	516	0	10000	2	1	0	2	1
17	517	0	10000	2	1	0	2	1
16	518	0	10000	2	1	0	2	1
16	519	0	10000	2	1	0	2	1
16	520	0	10000	2	1	0	2	1
15	521	0	10000	2	1	0	2	1
15	521	0	10000	2	1	0	2	1
15	522	0	10000	2	1	0	2	1
14	524	0	10000	2	1	0	2	1
13	525	0	10000	2	1	0	2	1
16	526	0	10000	2	1	0	2	1
17	527	0	10000	2	1	0	2	1
18	528	0	10000	2	1	0	2	1
17	529	0	10000	2	1	0	2	1
17	530	0	10000	2	1	0	2	1
17	531	0	10000	2	1	0	2	1
18	531	0	10000	2	1	0	2	1
20	532	0	10000	2	1	0	2	1
20	534	0	10000	2	1	0	2	1
23	535	0	10000	2	1	0	2	1
22	536	0	10000	2	1	0	2	1
22	537	0	10000	2	1	0	2	1
23	538	0	10000	2	1	0	2	1
26	539	0	10000	2	1	0	2	1
28	540	0	10000	2	1	0	2	1
28	541	0	10000	2	1	0	2	1
27	541	0	10000	2	1	0	2	1
27	542	0	10000	2	1	0	2	1
27	544	0	10000	2	1	0	2	1
26	545	0	10000	2	1	0	2	1
27	546	0	10000	2	1	0	2	1
28	547	0	10000	2	1	0	2	1
28	548	0	10000	2	1	0	2	1
27	549	0	10000	2	1	0	2	1
27	550	0	10000	2	1	0	2	1
27	551	0	10000	2	1	0	2	1
27	551	0	10000	2	1	0	2	0
28	552	0	10000	2	1	0	2	0
28	554	0	10000	2	1	0	2	0
29	555	0	10000	2	1	0	2	0
27	556	0	10000	2	1	0	2	0
28	557	0	10000	2	1	0	2	0
27	558	0	10000	2	1	0	2	0
28	559	0	10000	2	1	0	2	0
28	560	0	10000	2	1	0	2	0
27	561	0	10000	2	1	0	2	0
27	561	0	10000	2	1	0	2	0
26	562	0	10000	2	1	0	2	0
26	564	0	10000	2	1	0	2	0
26	565	0	10000	2	1	0	2	0
28	566	0	10000	2	1	0	2	0
27	567	0	10000	2	1	0	2	0
26	568	0	10000	2	1	0	2	0
25	569	0	10000	2	1	0	2	0
26	570	0	10000	2	1	0	2	0
25	571	0	10000	2	1	0	2	0
25	571	0	10000	2	1	0	2	0
26	572	0	10000	2	1	0	2	0
27	574	0	10000	2	1	0	2	0
28	575	0	10000	2	1	0	2	0
28	576	0	10000	2	1	0	2	0
32	577	0	10000	2	1	0	2	0
35	578	0	10000	2	1	0	2	0
35	579	0	10000	2	1	0	2	0
37	580	0	10000	2	1	0	2	0
39	581	0	10000	2	1	0	2	0
41	581	0	10000	2	1	0	2	0
43	582	0	10000	2	1	0	2	0
46	584	0	10000	2	1	0	2	0
45	585	0	10000	2	1	0	2	0
46	586	0	10000	2	1	0	2	0
45	587	0	10000	2	1	0	2	0
43	588	0	10000	2	1	0	2	0
43	589	0	10000	2	1	0	2	0
44	590	0	10000	2	1	0	2	0
43	591	0	10000	2	1	0	2	0
41	591	0	10000	2	1	0	2	0
40	592	0	10000	2	1	0	2	0
38	594	0	10000	2	1	0	2	0
38	595	0	10000	2	1	0	2	0
34	596	0	10000	2	1	0	2	0
37	597	0	10000	2	1	0	2	0
39	598	0	10000	2	1	0	2	0
39	599	0	10000	2	1	0	2	0
43	600	0	10000	2	1	0	2	0
50	601	0	10000	2	1	0	2	0
60	601	0	10000	2	1	0	2	0
67	602	0	10000	2	1	0	2	0
68	604	0	10000	2	1	0	2	0
66	605	0	10000	2	1	0	2	0
76	606	0	10000	2	1	0	2	0
76	607	0	10000	2	1	0	2	0
94	608	0	10000	2	1	0	2	0
120	609	0	10000	2	1	0	2	0
131	610	0	10000	2	1	0	2	0
136	611	0	10000	2	1	0	2	0
196	611	0	10000	2	1	0	2	0
221	612	0	10000	2	1	0	2	0
215	614	0	10000	2	1	0	2	0
255	615	0	10000	2	1	0	2	0
287	616	0	10000	2	1	0	2	0
322	617	0	10000	2	1	0	2	0
389	618	0	10000	2	1	0	2	0
436	619	0	10000	2	1	0	2	0
478	620	0	10000	2	1	0	2	0
573	621	0	10000	2	1	0	2	0
661	621	0	10000	2	1	0	2	0
649	622	0	10000	2	1	0	2	0
642	624	0	10000	2	1	0	2	0
648	625	0	10000	2	1	0	2	0
667	626	0	10000	2	1	0	2	0
680	627	0	10000	2	1	0	2	0
658	628	0	10000	2	1	0	2	0
724	629	0	10000	2	1	0	2	0
827	630	0	10000	2	1	0	2	0
875	631	0	10000	2	1	0	2	0
842	631	0	10000	2	1	0	2	0
842	632	0	10000	2	1	0	2	0
825	634	0	10000	2	1	0	2	0
874	635	0	10000	2	1	0	2	0
921	636	0	10000	2	1	0	2	0
1011	637	0	10000	2	1	0	2	0
1088	638	0	10000	2	1	0	2	0
1135	639	0	10000	2	1	0	2	0
1144	640	0	10000	2	1	0	2	0
1101	641	0	10000	2	1	0	2	0
1071	641	0	10000	2	1	0	2	0
1059	642	0	10000	2	1	0	2	0
1061	644	0	10000	2	1	0	2	0
1071	645	0	10000	2	1	0	2	0
1091	646	0	10000	2	1	0	2	0
1111	647	0	10000	2	1	0	2	0
1139	648	0	10000	2	1	0	2	0
1180	649	0	10000	2	1	0	2	0
1225	650	0	10000	2	1	0	2	0
1254	651	0	10000	2	1	0	2	0
1260	651	0	10000	2	1	0	2	0
1266	652	0	10000	2	1	0	2	0
1281	654	0	10000	2	1	0	2	0
1300	655	0	10000	2	1	0	2	0
1318	656	0	10000	2	1	0	2	0
1336	657	0	10000	2	1	0	2	0
1351	658	0	10000	2	1	0	2	0
1360	659	0	10000	2	1	0	2	0
1362	660	0	10000	2	1	0	2	0
1356	661	0	10000	2	1	0	2	0
1342	661	0	10000	2	1	0	2	0
1318	662	0	10000	2	1	0	2	0
1283	664	0	10000	2	1	0	2	0
1236	665	0	10000	2	1	0	2	0
1182	666	0	10000	2	1	0	2	0
1135	667	0	10000	2	1	0	2	0
1102	668	0	10000	2	1	0	2	0
1078	669	0	10000	2	1	0	2	0
1066	670	0	10000	2	1	0	2	0
1061	671	0	10000	2	1	0	2	0
1062	671	0	10000	2	1	0	2	0
1069	672	0	10000	2	1	0	2	0
1080	674	0	10000	2	1	0	2	0
1096	675	0	10000	2	1	0	2	0
1110	676	0	10000	2	1	0	2	0
1126	677	0	10000	2	1	0	2	0
1141	678	0	10000	2	1	0	2	0
1158	679	0	10000	2	1	0	2	0
1173	680	0	10000	2	1	0	2	0
1191	681	0	10000	2	1	0	2	0
1212	681	0	10000	2	1	0	2	0
1232	682	0	10000	2	1	0	2	0
1254	684	0	10000	2	1	0	2	0
1276	685	0	10000	2	1	0	2	0
1303	686	0	10000	2	1	0	2	0
1326	687	0	10000	2	1	0	2	0
1344	688	0	10000	2	1	0	2	0
1358	689	0	10000	2	1	0	2	0
1368	690	0	10000	2	1	0	2	0
1370	691	0	10000	2	1	0	2	0
1368	691	0	10000	2	1	0	2	0
1360	692	0	10000	2	1	0	2	0
1346	694	0	10000	2	1	0	2	0
1327	695	0	10000	2	1	0	2	0
1300	696	0	10000	2	1	0	2	0
1270	697	0	10000	2	1	0	2	0
1236	698	0	10000	2	1	0	2	0
1196	699	0	10000	2	1	0	2	0
1155	700	0	10000	2	1	0	2	0
1117	701	0	10000	2	1	0	2	0
1078	701	0	10000	2	1	0	2	0
1041	702	0	10000	2	1	0	2	0
1005	704	0	10000	2	1	0	2	0
974	705	0	10000	2	1	0	2	0
946	706	0	10000	2	1	0	2	0
917	707	0	10000	2	1	0	2	0
887	708	0	10000	2	1	0	2	0
856	709	0	10000	2	1	0	2	0
826	710	0	10000	2	1	0	2	0
792	711	0	10000	2	1	0	2	0
757	711	0	10000	2	1	0	2	0
725	712	0	10000	2	1	0	2	0
697	714	0	10000	2	1	0	2	0
674	715	0	10000	2	1	0	2	0
654	716	0	10000	2	1	0	2	0
639	717	0	10000	2	1	0	2	0
627	718	0	10000	2	1	0	2	0
620	719	0	10000	2	1	0	2	0
610	720	0	10000	2	1	0	2	0
599	721	0	10000	2	1	0	2	0
586	721	0	10000	2	1	0	2	0
571	722	0	10000	2	1	0	2	0
556	724	0	10000	2	1	0	2	0
540	725	0	10000	2	1	0	2	0
524	726	0	10000	2	1	0	2	0
504	727	0	10000	2	1	0	2	0
485	728	0	10000	2	1	0	2	0
464	729	0	10000	2	1	0	2	0
446	730	0	10000	2	1	0	2	0
429	731	0	10000	2	1	0	2	0
414	731	0	10000	2	1	0	2	0
405	732	0	10000	2	1	0	2	0
400	734	0	10000	2	1	0	2	0
398	735	0	10000	2	1	0	2	0
393	736	0	10000	2	1	0	2	0
393	737	0	10000	2	1	0	2	0
393	738	0	10000	2	1	0	2	0
396	739	0	10000	2	1	0	2	0
399	740	0	10000	2	1	0	2	0
400	741	0	10000	2	1	0	2	0
398	741	0	10000	2	1	0	2	0
392	742	0	10000	2	1	0	2	0
384	744	0	10000	2	1	0	2	0
374	745	0	10000	2	1	0	2	0
366	746	0	10000	2	1	0	2	0
352	747	0	10000	2	1	0	2	0
338	748	0	10000	2	1	0	2	0
323	749	0	10000	2	1	0	2	0
311	750	0	10000	2	1	0	2	0
301	751	0	10000	2	1	0	2	0
293	751	0	10000	2	1	0	2	0
287	752	0	10000	2	1	0	2	0
283	754	0	10000	2	1	0	2	0
279	755	0	10000	2	1	0	2	0
276	756	0	10000	2	1	0	2	0
275	757	0	10000	2	1	0	2	0
276	758	0	10000	2	1	0	2	0
279	759	0	10000	2	1	0	2	0
282	760	0	10000	2	1	0	2	0
285	761	0	10000	2	1	0	2	0
285	761	0	10000	2	1	0	2	0
282	762	0	10000	2	1	0	2	0
276	764	0	10000	2	1	0	2	0
268	765	0	10000	2	1	0	2	0
258	766	0	10000	2	1	0	2	0
248	767	0	10000	2	1	0	2	0
237	768	0	10000	2	1	0	2	0
226	769	0	10000	2	1	0	2	0
220	770	0	10000	2	1	0	2	0
210	771	0	10000	2	1	0	2	0
205	771	0	10000	2	1	0	2	0
206	772	0	10000	2	1	0	2	0
207	774	0	10000	2	1	0	2	0
209	775	0	10000	2	1	0	2	0
208	776	0	10000	2	1	0	2	0
212	777	0	10000	2	1	0	2	0
213	778	0	10000	2	1	0	2	0
210	779	0	10000	2	1	0	2	0
203	780	0	10000	2	1	0	2	0
202	781	0	10000	2	1	0	2	0
202	781	0	10000	2	1	0	2	0
196	782	0	10000	2	1	0	2	0
189	784	0	10000	2	1	0	2	0
191	785	0	10000	2	1	0	2	0
196	786	0	10000	2	1	0	2	0
207	787	0	10000	2	1	0	2	0
206	788	0	10000	2	1	0	2	0
216	789	0	10000	2	1	0	2	0
231	790	0	10000	2	1	0	2	0
231	791	0	10000	2	1	0	2	0
241	791	0	10000	2	1	0	2	0
276	792	0	10000	2	1	0	2	0
292	794	0	10000	2	1	0	2	0
295	795	0	10000	2	1	0	2	0
309	796	0	10000	2	1	0	2	0
309	797	0	10000	2	1	0	2	0
299	798	0	10000	2	1	0	2	0
290	799	0	10000	2	1	0	2	0
284	800	0	10000	2	1	0	2	0
295	801	0	10000	2	1	0	2	0
316	801	0	10000	2	1	0	2	0
317	802	0	10000	2	1	0	2	0
310	804	0	10000	2	1	0	2	0
308	805	0	10000	2	1	0	2	0
302	806	0	10000	2	1	0	2	0
294	807	0	10000	2	1	0	2	0
287	808	0	10000	2	1	0	2	0
301	809	0	10000	2	1	0	2	0
298	810	0	10000	2	1	0	2	0
285	811	0	10000	2	1	0	2	0
277	811	0	10000	2	1	0	2	0
266	812	0	10000	2	1	0	2	0
260	814	0	10000	2	1	0	2	0
261	815	0	10000	2	1	0	2	0
264	816	0	10000	2	1	0	2	0
276	817	0	10000	2	1	0	2	0
295	818	0	10000	2	1	0	2	0
318	819	0	10000	2	1	0	2	0
343	820	0	10000	2	1	0	2	0
365	821	0	10000	2	1	0	2	0
386	821	0	10000	2	1	0	2	0
400	822	0	10000	2	1	0	2	0
405	824	0	10000	2	1	0	2	0
401	825	0	10000	2	1	0	2	0
396	826	0	10000	2	1	0	2	0
396	827	0	10000	2	1	0	2	0
397	828	0	10000	2	1	0	2	0
393	829	0	10000	2	1	0	2	0
397	830	0	10000	2	1	0	2	0
400	831	0	10000	2	1	0	2	0
383	831	0	10000	2	1	0	2	0
367	832	0	10000	2	1	0	2	0
351	834	0	10000	2	1	0	2	0
336	835	0	10000	2	1	0	2	0
319	836	0	10000	2	1	0	2	0
304	837	0	10000	2	1	0	2	0
295	838	0	10000	2	1	0	2	0
290	839	0	10000	2	1	0	2	0
283	840	0	10000	2	1	0	2	0
276	841	0	10000	2	1	0	2	0
270	841	0	10000	2	1	0	2	0
258	842	0	10000	2	1	0	2	0
248	844	0	10000	2	1	0	2	0
242	845	0	10000	2	1	0	2	0
238	846	0	10000	2	1	0	2	0
234	847	0	10000	2	1	0	2	0
233	848	0	10000	2	1	0	2	0
235	849	0	10000	2	1	0	2	0
236	850	0	10000	2	1	0	2	0
236	851	0	10000	2	1	0	2	0
235	851	0	10000	2	1	0	2	0
236	852	0	10000	2	1	0	2	0
237	854	0	10000	2	1	0	2	0
237	855	0	10000	2	1	0	2	0
237	856	0	10000	2	1	0	2	0
241	857	0	10000	2	1	0	2	0
244	858	0	10000	2	1	0	2	0
245	859	0	10000	2	1	0	2	0
247	860	0	10000	2	1	0	2	0
251	861	0	10000	2	1	0	2	0
256	861	0	10000	2	1	0	2	0
264	862	0	10000	2	1	0	2	0
276	864	0	10000	2	1	0	2	0
289	865	0	10000	2	1	0	2	0
303	866	0	10000	2	1	0	2	0
316	867	0	10000	2	1	0	2	0
330	868	0	10000	2	1	0	2	0
342	869	0	10000	2	1	0	2	0
354	870	0	10000	2	1	0	2	0
365	871	0	10000	2	1	0	2	0
375	871	0	10000	2	1	0	2	0
384	872	0	10000	2	1	0	2	0
393	874	0	10000	2	1	0	2	0
399	875	0	10000	2	1	0	2	0
401	876	0	10000	2	1	0	2	0
402	877	0	10000	2	1	0	2	0
402	878	0	10000	2	1	0	2	0
402	879	0	10000	2	1	0	2	0
399	880	0	10000	2	1	0	2	0
395	881	0	10000	2	1	0	2	0
393	881	0	10000	2	1	0	2	0
393	882	0	10000	2	1	0	2	0
396	884	0	10000	2	1	0	2	0
396	885	0	10000	2	1	0	2	0
400	886	0	10000	2	1	0	2	0
401	887	0	10000	2	1	0	2	0
400	888	0	10000	2	1	0	2	0
398	889	0	10000	2	1	0	2	0
395	890	0	10000	2	1	0	2	0
390	891	0	10000	2	1	0	2	0
384	891	0	10000	2	1	0	2	0
378	892	0	10000	2	1	0	2	0
371	894	0	10000	2	1	0	2	0
362	895	0	10000	2	1	0	2	0
351	896	0	10000	2	1	0	2	0
342	897	0	10000	2	1	0	2	0
330	898	0	10000	2	1	0	2	0
314	899	0	10000	2	1	0	2	0
300	900	0	10000	2	1	0	2	0
286	901	0	10000	2	1	0	2	0
274	901	0	10000	2	1	0	2	0
262	902	0	10000	2	1	0	2	0
253	904	0	10000	2	1	0	2	0
244	905	0	10000	2	1	0	2	0
237	906	0	10000	2	1	0	2	0
229	907	0	10000	2	1	0	2	0
224	908	0	10000	2	1	0	2	0
216	909	0	10000	2	1	0	2	0
207	910	0	10000	2	1	0	2	0
198	911	0	10000	2	1	0	2	0
189	911	0	10000	2	1	0	2	0
182	912	0	10000	2	1	0	2	0
177	914	0	10000	2	1	0	2	0
174	915	0	10000	2	1	0	2	0
169	916	0	10000	2	1	0	2	0
166	917	0	10000	2	1	0	2	0
164	918	0	10000	2	1	0	2	0
165	919	0	10000	2	1	0	2	0
166	920	0	10000	2	1	0	2	0
167	921	0	10000	2	1	0	2	0
167	921	0	10000	2	1	0	2	0
164	922	0	10000	2	1	0	2	0
163	924	0	10000	2	1	0	2	0
157	925	0	10000	2	1	0	2	0
153	926	0	10000	2	1	0	2	0
148	927	0	10000	2	1	0	2	0
140	928	0	10000	2	1	0	2	0
135	929	0	10000	2	1	0	2	0
131	930	0	10000	2	1	0	2	0
128	931	0	10000	2	1	0	2	0
126	931	0	10000	2	1	0	2	0
126	932	0	10000	2	1	0	2	0
127	934	0	10000	2	1	0	2	0
130	935	0	10000	2	1	0	2	0
130	936	0	10000	2	1	0	2	0
131	937	0	10000	2	1	0	2	0
134	938	0	10000	2	1	0	2	0
137	939	0	10000	2	1	0	2	0
140	940	0	10000	2	1	0	2	0
142	941	0	10000	2	1	0	2	0
142	941	0	10000	2	1	0	2	0
140	942	0	10000	2	1	0	2	0
138	944	0	10000	2	1	0	2	0
132	945	0	10000	2	1	0	2	0
128	946	0	10000	2	1	0	2	0
123	947	0	10000	2	1	0	2	0
118	948	0	10000	2	1	0	2	0
115	949	0	10000	2	1	0	2	0
109	950	0	10000	2	1	0	2	0
106	951	0	10000	2	1	0	2	0
104	951	0	10000	2	1	0	2	0
104	952	0	10000	2	1	0	2	0
103	954	0	10000	2	1	0	2	0
104	955	0	10000	2	1	0	2	0
103	956	0	10000	2	1	0	2	0
103	957	0	10000	2	1	0	2	0
105	958	0	10000	2	1	0	2	0
107	959	0	10000	2	1	0	2	0
107	960	0	10000	2	1	0	2	0
106	961	0	10000	2	1	0	2	0
106	961	0	10000	2	1	0	2	0
105	962	0	10000	2	1	0	2	0
104	964	0	10000	2	1	0	2	0
99	965	0	10000	2	1	0	2	0
97	966	0	10000	2	1	0	2	0
93	967	0	10000	2	1	0	2	0
89	968	0	10000	2	1	0	2	0
86	969	0	10000	2	1	0	2	0
84	970	0	10000	2	1	0	2	0
82	971	0	10000	2	1	0	2	0
81	971	0	10000	2	1	0	2	0
83	972	0	10000	2	1	0	2	0
83	974	0	10000	2	1	0	2	0
82	975	0	10000	2	1	0	2	0
79	976	0	10000	2	1	0	2	0
80	977	0	10000	2	1	0	2	0
82	978	0	10000	2	1	0	2	0
85	979	0	10000	2	1	0	2	0
88	980	0	10000	2	1	0	2	0
88	981	0	10000	2	1	0	2	0
87	981	0	10000	2	1	0	2	0
84	982	0	10000	2	1	0	2	0
81	984	0	10000	2	1	0	2	0
80	985	0	10000	2	1	0	2	0
79	986	0	10000	2	1	0	2	0
75	987	0	10000	2	1	0	2	0
72	988	0	10000	2	1	0	2	0
70	989	0	10000	2	1	0	2	0
70	990	0	10000	2	1	0	2	0
69	991	0	10000	2	1	0	2	0
67	991	0	10000	2	1	0	2	0
65	992	0	10000	2	1	0	2	0
63	994	0	10000	2	1	0	2	0
62	995	0	10000	2	1	0	2	0
60	996	0	10000	2	1	0	2	0
61	997	0	10000	2	1	0	2	0
61	998	0	10000	2	1	0	2	0
62	999	0	10000	2	1	0	2	0
61	1000	0	10000	2	1	0	2	0
58	1001	0	10000	2	1	0	2	0
20	2	1	10000	3	1	0	3	0
20	3	1	10000	3	1	0	3	0
21	4	1	10000	3	1	0	3	0
20	5	1	10000	3	1	0	3	0
21	6	1	10000	3	1	0	3	0
21	7	1	10000	3	1	0	3	0
20	8	1	10000	3	1	0	3	0
20	9	1	10000	3	1	0	3	0
22	10	1	10000	3	1	0	3	0
25	11	1	10000	3	1	0	3	0
25	12	1	10000	3	1	0	3	0
25	13	1	10000	3	1	0	3	0
24	14	1	10000	3	1	0	3	0
25	15	1	10000	3	1	0	3	0
24	16	1	10000	3	1	0	3	0
25	17	1	10000	3	1	0	3	0
24	18	1	10000	3	1	0	3	0
23	19	1	10000	3	1	0	3	0
22	20	1	10000	3	1	0	3	0
21	21	1	10000	3	1	0	3	0
20	22	1	10000	3	1	0	3	0
21	23	1	10000	3	1	0	3	0
21	24	1	10000	3	1	0	3	0
22	25	1	10000	3	1	0	3	0
25	26	1	10000	3	1	0	3	0
24	27	1	10000	3	1	0	3	0
25	28	1	10000	3	1	0	3	0
25	29	1	10000	3	1	0	3	0
25	30	1	10000	3	1	0	3	0
27	31	1	10000	3	1	0	3	0
28	32	1	10000	3	1	0	3	0
28	33	1	10000	3	1	0	3	0
26	34	1	10000	3	1	0	3	0
26	35	1	10000	3	1	0	3	0
24	36	1	10000	3	1	0	3	0
26	37	1	10000	3	1	0	3	0
25	38	1	10000	3	1	0	3	0
25	39	1	10000	3	1	0	3	0
24	40	1	10000	3	1	0	3	0
23	41	1	10000	3	1	0	3	0
24	42	1	10000	3	1	0	3	0
28	43	1	10000	3	1	0	3	0
33	44	1	10000	3	1	0	3	0
33	45	1	10000	3	1	0	3	0
33	46	1	10000	3	1	0	3	0
31	47	1	10000	3	1	0	3	0
30	48	1	10000	3	1	0	3	0
29	49	1	10000	3	1	0	3	0
30	50	1	10000	3	1	0	3	0
30	51	1	10000	3	1	0	3	0
30	52	1	10000	3	1	0	3	0
29	53	1	10000	3	1	0	3	0
30	54	1	10000	3	1	0	3	0
32	55	1	10000	3	1	0	3	0
33	56	1	10000	3	1	0	3	0
35	57	1	10000	3	1	0	3	0
35	58	1	10000	3	1	0	3	0
33	59	1	10000	3	1	0	3	0
32	60	1	10000	3	1	0	3	0
33	61	1	10000	3	1	0	3	0
35	62	1	10000	3	1	0	3	0
35	63	1	10000	3	1	0	3	0
38	64	1	10000	3	1	0	3	0
38	65	1	10000	3	1	0	3	0
39	66	1	10000	3	1	0	3	0
35	67	1	10000	3	1	0	3	0
35	68	1	10000	3	1	0	3	0
36	69	1	10000	3	1	0	3	0
35	70	1	10000	3	1	0	3	0
35	71	1	10000	3	1	0	3	0
33	72	1	10000	3	1	0	3	0
33	73	1	10000	3	1	0	3	0
35	74	1	10000	3	1	0	3	0
35	75	1	10000	3	1	0	3	0
36	76	1	10000	3	1	0	3	0
41	77	1	10000	3	1	0	3	0
41	78	1	10000	3	1	0	3	0
43	79	1	10000	3	1	0	3	0
42	80	1	10000	3	1	0	3	0
41	81	1	10000	3	1	0	3	0
39	82	1	10000	3	1	0	3	0
38	83	1	10000	3	1	0	3	0
37	84	1	10000	3	1	0	3	0
37	85	1	10000	3	1	0	3	0
37	86	1	10000	3	1	0	3	0
35	87	1	10000	3	1	0	3	0
35	88	1	10000	3	1	0	3	0
34	89	1	10000	3	1	0	3	0
33	90	1	10000	3	1	0	3	0
33	91	1	10000	3	1	0	3	0
34	92	1	10000	3	1	0	3	0
33	93	1	10000	3	1	0	3	0
32	94	1	10000	3	1	0	3	0
31	95	1	10000	3	1	0	3	0
30	96	1	10000	3	1	0	3	0
32	97	1	10000	3	1	0	3	0
31	98	1	10000	3	1	0	3	0
31	99	1	10000	3	1	0	3	0
29	100	1	10000	3	1	0	3	0
29	101	1	10000	3	1	0	3	0
29	102	1	10000	3	1	0	3	0
28	103	1	10000	3	1	0	3	0
27	104	1	10000	3	1	0	3	0
26	105	1	10000	3	1	0	3	0
26	106	1	10000	3	1	0	3	0
23	107	1	10000	3	1	0	3	0
23	108	1	10000	3	1	0	3	0
22	109	1	10000	3	1	0	3	0
23	110	1	10000	3	1	0	3	0
24	111	1	10000	3	1	0	3	0
23	112	1	10000	3	1	0	3	0
23	113	1	10000	3	1	0	3	0
23	114	1	10000	3	1	0	3	0
23	115	1	10000	3	1	0	3	0
22	116	1	10000	3	1	0	3	0
24	117	1	10000	3	1	0	3	0
22	118	1	10000	3	1	0	3	0
22	119	1	10000	3	1	0	3	0
22	120	1	10000	3	1	0	3	0
22	121	1	10000	3	1	0	3	0
20	122	1	10000	3	1	0	3	0
20	123	1	10000	3	1	0	3	0
20	124	1	10000	3	1	0	3	0
20	125	1	10000	3	1	0	3	0
19	126	1	10000	3	1	0	3	0
16	127	1	10000	3	1	0	3	0
16	128	1	10000	3	1	0	3	0
15	129	1	10000	3	1	0	3	0
15	130	1	10000	3	1	0	3	0
15	131	1	10000	3	1	0	3	0
15	132	1	10000	3	1	0	3	0
15	133	1	10000	3	1	0	3	0
14	134	1	10000	3	1	0	3	0
14	135	1	10000	3	1	0	3	0
14	136	1	10000	3	1	0	3	0
15	137	1	10000	3	1	0	3	0
14	138	1	10000	3	1	0	3	0
15	139	1	10000	3	1	0	3	0
14	140	1	10000	3	1	0	3	0
14	141	1	10000	3	1	0	3	0
14	142	1	10000	3	1	0	3	0
14	143	1	10000	3	1	0	3	0
15	144	1	10000	3	1	0	3	0
15	145	1	10000	3	1	0	3	0
14	146	1	10000	3	1	0	3	0
12	147	1	10000	3	1	0	3	0
12	148	1	10000	3	1	0	3	0
12	149	1	10000	3	1	0	3	0
13	150	1	10000	3	1	0	3	0
14	151	1	10000	3	1	0	3	0
15	152	1	10000	3	1	0	3	0
16	153	1	10000	3	1	0	3	0
17	154	1	10000	3	1	0	3	0
16	155	1	10000	3	1	0	3	0
17	156	1	10000	3	1	0	3	0
21	157	1	10000	3	1	0	3	0
22	158	1	10000	3	1	0	3	0
21	159	1	10000	3	1	0	3	0
20	160	1	10000	3	1	0	3	0
20	161	1	10000	3	1	0	3	0
21	162	1	10000	3	1	0	3	0
20	163	1	10000	3	1	0	3	0
21	164	1	10000	3	1	0	3	0
21	165	1	10000	3	1	0	3	0
21	166	1	10000	3	1	0	3	0
20	167	1	10000	3	1	0	3	0
19	168	1	10000	3	1	0	3	0
20	169	1	10000	3	1	0	3	0
20	170	1	10000	3	1	0	3	0
21	171	1	10000	3	1	0	3	0
23	172	1	10000	3	1	0	3	0
24	173	1	10000	3	1	0	3	0
24	174	1	10000	3	1	0	3	0
23	175	1	10000	3	1	0	3	0
22	176	1	10000	3	1	0	3	0
24	177	1	10000	3	1	0	3	0
24	178	1	10000	3	1	0	3	0
23	179	1	10000	3	1	0	3	0
23	180	1	10000	3	1	0	3	0
22	181	1	10000	3	1	0	3	0
22	182	1	10000	3	1	0	3	0
23	183	1	10000	3	1	0	3	0
23	184	1	10000	3	1	0	3	0
24	185	1	10000	3	1	0	3	0
24	186	1	10000	3	1	0	3	0
23	187	1	10000	3	1	0	3	0
22	188	1	10000	3	1	0	3	0
22	189	1	10000	3	1	0	3	0
24	190	1	10000	3	1	0	3	0
24	191	1	10000	3	1	0	3	0
24	192	1	10000	3	1	0	3	0
23	193	1	10000	3	1	0	3	0
24	194	1	10000	3	1	0	3	0
22	195	1	10000	3	1	0	3	0
21	196	1	10000	3	1	0	3	0
23	197	1	10000	3	1	0	3	0
24	198	1	10000	3	1	0	3	0
23	199	1	10000	3	1	0	3	0
22	200	1	10000	3	1	0	3	0
23	201	1	10000	3	1	0	3	0
21	202	1	10000	3	1	0	3	0
20	203	1	10000	3	1	0	3	0
21	204	1	10000	3	1	0	3	0
22	205	1	10000	3	1	0	3	0
21	206	1	10000	3	1	0	3	0
19	207	1	10000	3	1	0	3	0
20	208	1	10000	3	1	0	3	0
20	209	1	10000	3	1	0	3	0
19	210	1	10000	3	1	0	3	0
18	211	1	10000	3	1	0	3	0
18	212	1	10000	3	1	0	3	0
18	213	1	10000	3	1	0	3	0
17	214	1	10000	3	1	0	3	0
16	215	1	10000	3	1	0	3	0
16	216	1	10000	3	1	0	3	0
17	217	1	10000	3	1	0	3	0
17	218	1	10000	3	1	0	3	0
16	219	1	10000	3	1	0	3	0
15	220	1	10000	3	1	0	3	0
15	221	1	10000	3	1	0	3	0
17	222	1	10000	3	1	0	3	0
19	223	1	10000	3	1	0	3	0
20	224	1	10000	3	1	0	3	0
20	225	1	10000	3	1	0	3	0
20	226	1	10000	3	1	0	3	0
20	227	1	10000	3	1	0	3	0
19	228	1	10000	3	1	0	3	0
20	229	1	10000	3	1	0	3	0
21	230	1	10000	3	1	0	3	0
23	231	1	10000	3	1	0	3	0
23	232	1	10000	3	1	0	3	0
23	233	1	10000	3	1	0	3	0
23	234	1	10000	3	1	0	3	0
23	235	1	10000	3	1	0	3	0
22	236	1	10000	3	1	0	3	0
23	237	1	10000	3	1	0	3	0
23	238	1	10000	3	1	0	3	0
22	239	1	10000	3	1	0	3	0
21	240	1	10000	3	1	0	3	0
21	241	1	10000	3	1	0	3	0
20	242	1	10000	3	1	0	3	0
20	243	1	10000	3	1	0	3	0
20	244	1	10000	3	1	0	3	0
20	245	1	10000	3	1	0	3	0
19	246	1	10000	3	1	0	3	0
18	247	1	10000	3	1	0	3	0
17	248	1	10000	3	1	0	3	0
17	249	1	10000	3	1	0	3	0
18	250	1	10000	3	1	0	3	0
18	251	1	10000	3	1	0	3	0
18	252	1	10000	3	1	0	3	0
18	253	1	10000	3	1	0	3	0
17	254	1	10000	3	1	0	3	0
17	255	1	10000	3	1	0	3	0
16	256	1	10000	3	1	0	3	0
18	257	1	10000	3	1	0	3	0
19	258	1	10000	3	1	0	3	0
20	259	1	10000	3	1	0	3	0
20	260	1	10000	3	1	0	3	0
21	261	1	10000	3	1	0	3	0
21	262	1	10000	3	1	0	3	0
21	263	1	10000	3	1	0	3	0
20	264	1	10000	3	1	0	3	0
20	265	1	10000	3	1	0	3	0
20	266	1	10000	3	1	0	3	0
18	267	1	10000	3	1	0	3	0
19	268	1	10000	3	1	0	3	0
19	269	1	10000	3	1	0	3	0
19	270	1	10000	3	1	0	3	0
19	271	1	10000	3	1	0	3	0
20	272	1	10000	3	1	0	3	0
20	273	1	10000	3	1	0	3	0
21	274	1	10000	3	1	0	3	0
20	275	1	10000	3	1	0	3	0
20	276	1	10000	3	1	0	3	0
23	277	1	10000	3	1	0	3	0
25	278	1	10000	3	1	0	3	0
26	279	1	10000	3	1	0	3	0
26	280	1	10000	3	1	0	3	0
26	281	1	10000	3	1	0	3	0
29	282	1	10000	3	1	0	3	0
28	283	1	10000	3	1	0	3	0
27	284	1	10000	3	1	0	3	0
29	285	1	10000	3	1	0	3	0
30	286	1	10000	3	1	0	3	0
27	287	1	10000	3	1	0	3	0
26	288	1	10000	3	1	0	3	0
26	289	1	10000	3	1	0	3	0
25	290	1	10000	3	1	0	3	0
26	291	1	10000	3	1	0	3	0
25	292	1	10000	3	1	0	3	0
25	293	1	10000	3	1	0	3	0
23	294	1	10000	3	1	0	3	0
23	295	1	10000	3	1	0	3	0
23	296	1	10000	3	1	0	3	0
24	297	1	10000	3	1	0	3	0
24	298	1	10000	3	1	0	3	0
24	299	1	10000	3	1	0	3	0
24	300	1	10000	3	1	0	3	0
23	301	1	10000	3	1	0	3	0
22	302	1	10000	3	1	0	3	0
21	303	1	10000	3	1	0	3	0
22	304	1	10000	3	1	0	3	0
23	305	1	10000	3	1	0	3	0
23	306	1	10000	3	1	0	3	0
20	307	1	10000	3	1	0	3	0
20	308	1	10000	3	1	0	3	0
20	309	1	10000	3	1	0	3	0
22	310	1	10000	3	1	0	3	0
24	311	1	10000	3	1	0	3	0
23	312	1	10000	3	1	0	3	0
22	313	1	10000	3	1	0	3	0
21	314	1	10000	3	1	0	3	0
21	315	1	10000	3	1	0	3	0
20	316	1	10000	3	1	0	3	0
22	317	1	10000	3	1	0	3	0
22	318	1	10000	3	1	0	3	0
22	319	1	10000	3	1	0	3	0
22	320	1	10000	3	1	0	3	0
22	321	1	10000	3	1	0	3	0
21	322	1	10000	3	1	0	3	0
20	323	1	10000	3	1	0	3	0
20	324	1	10000	3	1	0	3	0
20	325	1	10000	3	1	0	3	0
20	326	1	10000	3	1	0	3	0
20	327	1	10000	3	1	0	3	0
21	328	1	10000	3	1	0	3	0
24	329	1	10000	3	1	0	3	0
24	330	1	10000	3	1	0	3	0
25	331	1	10000	3	1	0	3	0
26	332	1	10000	3	1	0	3	0
27	333	1	10000	3	1	0	3	0
25	334	1	10000	3	1	0	3	0
25	335	1	10000	3	1	0	3	0
26	336	1	10000	3	1	0	3	0
28	337	1	10000	3	1	0	3	0
28	338	1	10000	3	1	0	3	0
27	339	1	10000	3	1	0	3	0
27	340	1	10000	3	1	0	3	0
26	341	1	10000	3	1	0	3	0
25	342	1	10000	3	1	0	3	0
24	343	1	10000	3	1	0	3	0
24	344	1	10000	3	1	0	3	0
23	345	1	10000	3	1	0	3	0
23	346	1	10000	3	1	0	3	0
22	347	1	10000	3	1	0	3	0
21	348	1	10000	3	1	0	3	0
21	349	1	10000	3	1	0	3	0
22	350	1	10000	3	1	0	3	0
24	351	1	10000	3	1	0	3	0
26	352	1	10000	3	1	0	3	0
25	353	1	10000	3	1	0	3	0
24	354	1	10000	3	1	0	3	0
23	355	1	10000	3	1	0	3	0
22	356	1	10000	3	1	0	3	0
26	357	1	10000	3	1	0	3	0
28	358	1	10000	3	1	0	3	0
27	359	1	10000	3	1	0	3	0
27	360	1	10000	3	1	0	3	0
26	361	1	10000	3	1	0	3	0
25	362	1	10000	3	1	0	3	0
24	363	1	10000	3	1	0	3	0
24	364	1	10000	3	1	0	3	0
26	365	1	10000	3	1	0	3	0
26	366	1	10000	3	1	0	3	0
24	367	1	10000	3	1	0	3	0
24	368	1	10000	3	1	0	3	0
25	369	1	10000	3	1	0	3	0
23	370	1	10000	3	1	0	3	0
23	371	1	10000	3	1	0	3	0
23	372	1	10000	3	1	0	3	0
24	373	1	10000	3	1	0	3	0
24	374	1	10000	3	1	0	3	0
23	375	1	10000	3	1	0	3	0
21	376	1	10000	3	1	0	3	0
23	377	1	10000	3	1	0	3	0
23	378	1	10000	3	1	0	3	0
23	379	1	10000	3	1	0	3	0
23	380	1	10000	3	1	0	3	0
22	381	1	10000	3	1	0	3	0
21	382	1	10000	3	1	0	3	0
20	383	1	10000	3	1	0	3	0
22	384	1	10000	3	1	0	3	0
22	385	1	10000	3	1	0	3	0
22	386	1	10000	3	1	0	3	0
20	387	1	10000	3	1	0	3	0
19	388	1	10000	3	1	0	3	0
19	389	1	10000	3	1	0	3	0
19	390	1	10000	3	1	0	3	0
20	391	1	10000	3	1	0	3	0
21	392	1	10000	3	1	0	3	0
21	393	1	10000	3	1	0	3	0
20	394	1	10000	3	1	0	3	0
20	395	1	10000	3	1	0	3	0
21	396	1	10000	3	1	0	3	0
25	397	1	10000	3	1	0	3	0
25	398	1	10000	3	1	0	3	0
24	399	1	10000	3	1	0	3	0
23	400	1	10000	3	1	0	3	0
23	401	1	10000	3	1	0	3	0
23	402	1	10000	3	1	0	3	0
24	403	1	10000	3	1	0	3	0
26	404	1	10000	3	1	0	3	0
26	405	1	10000	3	1	0	3	0
26	406	1	10000	3	1	0	3	0
24	407	1	10000	3	1	0	3	0
25	408	1	10000	3	1	0	3	0
25	409	1	10000	3	1	0	3	0
25	410	1	10000	3	1	0	3	0
24	411	1	10000	3	1	0	3	0
24	412	1	10000	3	1	0	3	0
23	413	1	10000	3	1	0	3	0
22	414	1	10000	3	1	0	3	0
21	415	1	10000	3	1	0	3	0
20	416	1	10000	3	1	0	3	0
23	417	1	10000	3	1	0	3	0
23	418	1	10000	3	1	0	3	0
21	419	1	10000	3	1	0	3	0
21	420	1	10000	3	1	0	3	0
21	421	1	10000	3	1	0	3	0
21	422	1	10000	3	1	0	3	0
21	423	1	10000	3	1	0	3	0
22	424	1	10000	3	1	0	3	0
22	425	1	10000	3	1	0	3	0
23	426	1	10000	3	1	0	3	0
20	427	1	10000	3	1	0	3	0
20	428	1	10000	3	1	0	3	0
21	429	1	10000	3	1	0	3	0
20	430	1	10000	3	1	0	3	0
20	431	1	10000	3	1	0	3	0
20	432	1	10000	3	1	0	3	0
19	433	1	10000	3	1	0	3	0
18	434	1	10000	3	1	0	3	0
17	435	1	10000	3	1	0	3	0
16	436	1	10000	3	1	0	3	0
18	437	1	10000	3	1	0	3	0
19	438	1	10000	3	1	0	3	0
22	439	1	10000	3	1	0	3	0
23	440	1	10000	3	1	0	3	0
22	441	1	10000	3	1	0	3	0
22	442	1	10000	3	1	0	3	0
21	443	1	10000	3	1	0	3	0
20	444	1	10000	3	1	0	3	0
20	445	1	10000	3	1	0	3	0
20	446	1	10000	3	1	0	3	0
17	447	1	10000	3	1	0	3	0
17	448	1	10000	3	1	0	3	0
17	449	1	10000	3	1	0	3	0
17	450	1	10000	3	1	0	3	0
17	451	1	10000	3	1	0	3	0
19	452	1	10000	3	1	0	3	0
19	453	1	10000	3	1	0	3	0
18	454	1	10000	3	1	0	3	0
18	455	1	10000	3	1	0	3	0
17	456	1	10000	3	1	0	3	0
19	457	1	10000	3	1	0	3	0
18	458	1	10000	3	1	0	3	0
18	459	1	10000	3	1	0	3	0
18	460	1	10000	3	1	0	3	0
19	461	1	10000	3	1	0	3	0
19	462	1	10000	3	1	0	3	0
19	463	1	10000	3	1	0	3	0
19	464	1	10000	3	1	0	3	0
18	465	1	10000	3	1	0	3	0
19	466	1	10000	3	1	0	3	0
17	467	1	10000	3	1	0	3	0
17	468	1	10000	3	1	0	3	0
18	469	1	10000	3	1	0	3	0
19	470	1	10000	3	1	0	3	0
20	471	1	10000	3	1	0	3	0
20	472	1	10000	3	1	0	3	0
20	473	1	10000	3	1	0	3	0
20	474	1	10000	3	1	0	3	0
20	475	1	10000	3	1	0	3	0
21	476	1	10000	3	1	0	3	0
24	477	1	10000	3	1	0	3	0
24	478	1	10000	3	1	0	3	0
23	479	1	10000	3	1	0	3	0
22	480	1	10000	3	1	0	3	0
22	481	1	10000	3	1	0	3	0
23	482	1	10000	3	1	0	3	0
21	483	1	10000	3	1	0	3	0
23	484	1	10000	3	1	0	3	0
25	485	1	10000	3	1	0	3	0
27	486	1	10000	3	1	0	3	0
26	487	1	10000	3	1	0	3	0
26	488	1	10000	3	1	0	3	0
25	489	1	10000	3	1	0	3	0
25	490	1	10000	3	1	0	3	0
25	491	1	10000	3	1	0	3	0
25	492	1	10000	3	1	0	3	0
25	493	1	10000	3	1	0	3	0
24	494	1	10000	3	1	0	3	0
24	495	1	10000	3	1	0	3	0
22	496	1	10000	3	1	0	3	0
24	497	1	10000	3	1	0	3	0
24	498	1	10000	3	1	0	3	0
23	499	1	10000	3	1	0	3	0
23	500	1	10000	3	1	0	3	0
21	501	1	10000	3	1	0	3	0
20	502	1	10000	3	1	0	3	1
19	503	1	10000	3	1	0	3	1
20	504	1	10000	3	1	0	3	1
20	505	1	10000	3	1	0	3	1
22	506	1	10000	3	1	0	3	1
20	507	1	10000	3	1	0	3	1
20	508	1	10000	3	1	0	3	1
20	509	1	10000	3	1	0	3	1
20	510	1	10000	3	1	0	3	1
21	511	1	10000	3	1	0	3	1
24	512	1	10000	3	1	0	3	1
25	513	1	10000	3	1	0	3	1
24	514	1	10000	3	1	0	3	1
23	515	1	10000	3	1	0	3	1
21	516	1	10000	3	1	0	3	1
26	517	1	10000	3	1	0	3	1
26	518	1	10000	3	1	0	3	1
24	519	1	10000	3	1	0	3	1
24	520	1	10000	3	1	0	3	1
24	521	1	10000	3	1	0	3	1
23	522	1	10000	3	1	0	3	1
22	523	1	10000	3	1	0	3	1
22	524	1	10000	3	1	0	3	1
22	525	1	10000	3	1	0	3	1
23	526	1	10000	3	1	0	3	1
21	527	1	10000	3	1	0	3	1
22	528	1	10000	3	1	0	3	1
22	529	1	10000	3	1	0	3	1
21	530	1	10000	3	1	0	3	1
20	531	1	10000	3	1	0	3	1
20	532	1	10000	3	1	0	3	1
19	533	1	10000	3	1	0	3	1
20	534	1	10000	3	1	0	3	1
20	535	1	10000	3	1	0	3	1
20	536	1	10000	3	1	0	3	1
22	537	1	10000	3	1	0	3	1
22	538	1	10000	3	1	0	3	1
21	539	1	10000	3	1	0	3	1
22	540	1	10000	3	1	0	3	1
21	541	1	10000	3	1	0	3	1
20	542	1	10000	3	1	0	3	1
20	543	1	10000	3	1	0	3	1
23	544	1	10000	3	1	0	3	1
23	545	1	10000	3	1	0	3	1
23	546	1	10000	3	1	0	3	1
22	547	1	10000	3	1	0	3	1
24	548	1	10000	3	1	0	3	1
24	549	1	10000	3	1	0	3	1
25	550	1	10000	3	1	0	3	1
26	551	1	10000	3	1	0	3	1
26	552	1	10000	3	1	0	3	0
26	553	1	10000	3	1	0	3	0
26	554	1	10000	3	1	0	3	0
27	555	1	10000	3	1	0	3	0
25	556	1	10000	3	1	0	3	0
26	557	1	10000	3	1	0	3	0
25	558	1	10000	3	1	0	3	0
24	559	1	10000	3	1	0	3	0
23	560	1	10000	3	1	0	3	0
22	561	1	10000	3	1	0	3	0
22	562	1	10000	3	1	0	3	0
21	563	1	10000	3	1	0	3	0
21	564	1	10000	3	1	0	3	0
21	565	1	10000	3	1	0	3	0
23	566	1	10000	3	1	0	3	0
20	567	1	10000	3	1	0	3	0
19	568	1	10000	3	1	0	3	0
19	569	1	10000	3	1	0	3	0
19	570	1	10000	3	1	0	3	0
19	571	1	10000	3	1	0	3	0
20	572	1	10000	3	1	0	3	0
20	573	1	10000	3	1	0	3	0
19	574	1	10000	3	1	0	3	0
18	575	1	10000	3	1	0	3	0
18	576	1	10000	3	1	0	3	0
21	577	1	10000	3	1	0	3	0
21	578	1	10000	3	1	0	3	0
22	579	1	10000	3	1	0	3	0
22	580	1	10000	3	1	0	3	0
21	581	1	10000	3	1	0	3	0
21	582	1	10000	3	1	0	3	0
23	583	1	10000	3	1	0	3	0
24	584	1	10000	3	1	0	3	0
25	585	1	10000	3	1	0	3	0
25	586	1	10000	3	1	0	3	0
23	587	1	10000	3	1	0	3	0
28	588	1	10000	3	1	0	3	0
28	589	1	10000	3	1	0	3	0
32	590	1	10000	3	1	0	3	0
36	591	1	10000	3	1	0	3	0
36	592	1	10000	3	1	0	3	0
38	593	1	10000	3	1	0	3	0
48	594	1	10000	3	1	0	3	0
58	595	1	10000	3	1	0	3	0
61	596	1	10000	3	1	0	3	0
63	597	1	10000	3	1	0	3	0
62	598	1	10000	3	1	0	3	0
64	599	1	10000	3	1	0	3	0
64	600	1	10000	3	1	0	3	0
68	601	1	10000	3	1	0	3	0
86	602	1	10000	3	1	0	3	0
108	603	1	10000	3	1	0	3	0
130	604	1	10000	3	1	0	3	0
175	605	1	10000	3	1	0	3	0
192	606	1	10000	3	1	0	3	0
192	607	1	10000	3	1	0	3	0
193	608	1	10000	3	1	0	3	0
198	609	1	10000	3	1	0	3	0
242	610	1	10000	3	1	0	3	0
298	611	1	10000	3	1	0	3	0
301	612	1	10000	3	1	0	3	0
291	613	1	10000	3	1	0	3	0
293	614	1	10000	3	1	0	3	0
287	615	1	10000	3	1	0	3	0
285	616	1	10000	3	1	0	3	0
287	617	1	10000	3	1	0	3	0
289	618	1	10000	3	1	0	3	0
312	619	1	10000	3	1	0	3	0
374	620	1	10000	3	1	0	3	0
385	621	1	10000	3	1	0	3	0
420	622	1	10000	3	1	0	3	0
474	623	1	10000	3	1	0	3	0
505	624	1	10000	3	1	0	3	0
628	625	1	10000	3	1	0	3	0
807	626	1	10000	3	1	0	3	0
879	627	1	10000	3	1	0	3	0
845	628	1	10000	3	1	0	3	0
820	629	1	10000	3	1	0	3	0
915	630	1	10000	3	1	0	3	0
1045	631	1	10000	3	1	0	3	0
1119	632	1	10000	3	1	0	3	0
1142	633	1	10000	3	1	0	3	0
1107	634	1	10000	3	1	0	3	0
1069	635	1	10000	3	1	0	3	0
1023	636	1	10000	3	1	0	3	0
986	637	1	10000	3	1	0	3	0
959	638	1	10000	3	1	0	3	0
940	639	1	10000	3	1	0	3	0
927	640	1	10000	3	1	0	3	0
920	641	1	10000	3	1	0	3	0
915	642	1	10000	3	1	0	3	0
911	643	1	10000	3	1	0	3	0
910	644	1	10000	3	1	0	3	0
914	645	1	10000	3	1	0	3	0
923	646	1	10000	3	1	0	3	0
933	647	1	10000	3	1	0	3	0
925	648	1	10000	3	1	0	3	0
907	649	1	10000	3	1	0	3	0
893	650	1	10000	3	1	0	3	0
881	651	1	10000	3	1	0	3	0
870	652	1	10000	3	1	0	3	0
859	653	1	10000	3	1	0	3	0
843	654	1	10000	3	1	0	3	0
824	655	1	10000	3	1	0	3	0
795	656	1	10000	3	1	0	3	0
761	657	1	10000	3	1	0	3	0
730	658	1	10000	3	1	0	3	0
705	659	1	10000	3	1	0	3	0
688	660	1	10000	3	1	0	3	0
680	661	1	10000	3	1	0	3	0
675	662	1	10000	3	1	0	3	0
676	663	1	10000	3	1	0	3	0
681	664	1	10000	3	1	0	3	0
688	665	1	10000	3	1	0	3	0
696	666	1	10000	3	1	0	3	0
702	667	1	10000	3	1	0	3	0
707	668	1	10000	3	1	0	3	0
709	669	1	10000	3	1	0	3	0
709	670	1	10000	3	1	0	3	0
707	671	1	10000	3	1	0	3	0
705	672	1	10000	3	1	0	3	0
704	673	1	10000	3	1	0	3	0
703	674	1	10000	3	1	0	3	0
702	675	1	10000	3	1	0	3	0
703	676	1	10000	3	1	0	3	0
708	677	1	10000	3	1	0	3	0
710	678	1	10000	3	1	0	3	0
714	679	1	10000	3	1	0	3	0
719	680	1	10000	3	1	0	3	0
723	681	1	10000	3	1	0	3	0
726	682	1	10000	3	1	0	3	0
726	683	1	10000	3	1	0	3	0
725	684	1	10000	3	1	0	3	0
722	685	1	10000	3	1	0	3	0
717	686	1	10000	3	1	0	3	0
705	687	1	10000	3	1	0	3	0
692	688	1	10000	3	1	0	3	0
672	689	1	10000	3	1	0	3	0
651	690	1	10000	3	1	0	3	0
627	691	1	10000	3	1	0	3	0
603	692	1	10000	3	1	0	3	0
581	693	1	10000	3	1	0	3	0
559	694	1	10000	3	1	0	3	0
536	695	1	10000	3	1	0	3	0
513	696	1	10000	3	1	0	3	0
495	697	1	10000	3	1	0	3	0
478	698	1	10000	3	1	0	3	0
461	699	1	10000	3	1	0	3	0
445	700	1	10000	3	1	0	3	0
431	701	1	10000	3	1	0	3	0
415	702	1	10000	3	1	0	3	0
400	703	1	10000	3	1	0	3	0
386	704	1	10000	3	1	0	3	0
372	705	1	10000	3	1	0	3	0
358	706	1	10000	3	1	0	3	0
341	707	1	10000	3	1	0	3	0
327	708	1	10000	3	1	0	3	0
318	709	1	10000	3	1	0	3	0
312	710	1	10000	3	1	0	3	0
311	711	1	10000	3	1	0	3	0
311	712	1	10000	3	1	0	3	0
309	713	1	10000	3	1	0	3	0
307	714	1	10000	3	1	0	3	0
305	715	1	10000	3	1	0	3	0
303	716	1	10000	3	1	0	3	0
299	717	1	10000	3	1	0	3	0
291	718	1	10000	3	1	0	3	0
281	719	1	10000	3	1	0	3	0
271	720	1	10000	3	1	0	3	0
262	721	1	10000	3	1	0	3	0
253	722	1	10000	3	1	0	3	0
244	723	1	10000	3	1	0	3	0
234	724	1	10000	3	1	0	3	0
225	725	1	10000	3	1	0	3	0
220	726	1	10000	3	1	0	3	0
213	727	1	10000	3	1	0	3	0
209	728	1	10000	3	1	0	3	0
208	729	1	10000	3	1	0	3	0
210	730	1	10000	3	1	0	3	0
213	731	1	10000	3	1	0	3	0
216	732	1	10000	3	1	0	3	0
218	733	1	10000	3	1	0	3	0
219	734	1	10000	3	1	0	3	0
219	735	1	10000	3	1	0	3	0
218	736	1	10000	3	1	0	3	0
216	737	1	10000	3	1	0	3	0
210	738	1	10000	3	1	0	3	0
201	739	1	10000	3	1	0	3	0
193	740	1	10000	3	1	0	3	0
185	741	1	10000	3	1	0	3	0
177	742	1	10000	3	1	0	3	0
168	743	1	10000	3	1	0	3	0
162	744	1	10000	3	1	0	3	0
158	745	1	10000	3	1	0	3	0
152	746	1	10000	3	1	0	3	0
147	747	1	10000	3	1	0	3	0
145	748	1	10000	3	1	0	3	0
145	749	1	10000	3	1	0	3	0
146	750	1	10000	3	1	0	3	0
149	751	1	10000	3	1	0	3	0
151	752	1	10000	3	1	0	3	0
152	753	1	10000	3	1	0	3	0
153	754	1	10000	3	1	0	3	0
154	755	1	10000	3	1	0	3	0
154	756	1	10000	3	1	0	3	0
153	757	1	10000	3	1	0	3	0
147	758	1	10000	3	1	0	3	0
142	759	1	10000	3	1	0	3	0
135	760	1	10000	3	1	0	3	0
130	761	1	10000	3	1	0	3	0
124	762	1	10000	3	1	0	3	0
119	763	1	10000	3	1	0	3	0
116	764	1	10000	3	1	0	3	0
111	765	1	10000	3	1	0	3	0
106	766	1	10000	3	1	0	3	0
103	767	1	10000	3	1	0	3	0
99	768	1	10000	3	1	0	3	0
98	769	1	10000	3	1	0	3	0
99	770	1	10000	3	1	0	3	0
102	771	1	10000	3	1	0	3	0
104	772	1	10000	3	1	0	3	0
107	773	1	10000	3	1	0	3	0
108	774	1	10000	3	1	0	3	0
109	775	1	10000	3	1	0	3	0
108	776	1	10000	3	1	0	3	0
109	777	1	10000	3	1	0	3	0
105	778	1	10000	3	1	0	3	0
100	779	1	10000	3	1	0	3	0
98	780	1	10000	3	1	0	3	0
96	781	1	10000	3	1	0	3	0
95	782	1	10000	3	1	0	3	0
94	783	1	10000	3	1	0	3	0
94	784	1	10000	3	1	0	3	0
94	785	1	10000	3	1	0	3	0
92	786	1	10000	3	1	0	3	0
86	787	1	10000	3	1	0	3	0
85	788	1	10000	3	1	0	3	0
85	789	1	10000	3	1	0	3	0
88	790	1	10000	3	1	0	3	0
89	791	1	10000	3	1	0	3	0
91	792	1	10000	3	1	0	3	0
90	793	1	10000	3	1	0	3	0
92	794	1	10000	3	1	0	3	0
94	795	1	10000	3	1	0	3	0
95	796	1	10000	3	1	0	3	0
94	797	1	10000	3	1	0	3	0
90	798	1	10000	3	1	0	3	0
86	799	1	10000	3	1	0	3	0
83	800	1	10000	3	1	0	3	0
84	801	1	10000	3	1	0	3	0
84	802	1	10000	3	1	0	3	0
84	803	1	10000	3	1	0	3	0
85	804	1	10000	3	1	0	3	0
84	805	1	10000	3	1	0	3	0
83	806	1	10000	3	1	0	3	0
78	807	1	10000	3	1	0	3	0
74	808	1	10000	3	1	0	3	0
72	809	1	10000	3	1	0	3	0
73	810	1	10000	3	1	0	3	0
75	811	1	10000	3	1	0	3	0
77	812	1	10000	3	1	0	3	0
78	813	1	10000	3	1	0	3	0
79	814	1	10000	3	1	0	3	0
80	815	1	10000	3	1	0	3	0
80	816	1	10000	3	1	0	3	0
80	817	1	10000	3	1	0	3	0
78	818	1	10000	3	1	0	3	0
75	819	1	10000	3	1	0	3	0
74	820	1	10000	3	1	0	3	0
73	821	1	10000	3	1	0	3	0
71	822	1	10000	3	1	0	3	0
70	823	1	10000	3	1	0	3	0
72	824	1	10000	3	1	0	3	0
74	825	1	10000	3	1	0	3	0
72	826	1	10000	3	1	0	3	0
67	827	1	10000	3	1	0	3	0
64	828	1	10000	3	1	0	3	0
66	829	1	10000	3	1	0	3	0
67	830	1	10000	3	1	0	3	0
68	831	1	10000	3	1	0	3	0
68	832	1	10000	3	1	0	3	0
69	833	1	10000	3	1	0	3	0
68	834	1	10000	3	1	0	3	0
66	835	1	10000	3	1	0	3	0
63	836	1	10000	3	1	0	3	0
62	837	1	10000	3	1	0	3	0
58	838	1	10000	3	1	0	3	0
57	839	1	10000	3	1	0	3	0
57	840	1	10000	3	1	0	3	0
56	841	1	10000	3	1	0	3	0
54	842	1	10000	3	1	0	3	0
52	843	1	10000	3	1	0	3	0
54	844	1	10000	3	1	0	3	0
54	845	1	10000	3	1	0	3	0
55	846	1	10000	3	1	0	3	0
55	847	1	10000	3	1	0	3	0
54	848	1	10000	3	1	0	3	0
52	849	1	10000	3	1	0	3	0
52	850	1	10000	3	1	0	3	0
55	851	1	10000	3	1	0	3	0
58	852	1	10000	3	1	0	3	0
61	853	1	10000	3	1	0	3	0
61	854	1	10000	3	1	0	3	0
62	855	1	10000	3	1	0	3	0
60	856	1	10000	3	1	0	3	0
60	857	1	10000	3	1	0	3	0
60	858	1	10000	3	1	0	3	0
59	859	1	10000	3	1	0	3	0
57	860	1	10000	3	1	0	3	0
58	861	1	10000	3	1	0	3	0
60	862	1	10000	3	1	0	3	0
60	863	1	10000	3	1	0	3	0
60	864	1	10000	3	1	0	3	0
62	865	1	10000	3	1	0	3	0
62	866	1	10000	3	1	0	3	0
57	867	1	10000	3	1	0	3	0
56	868	1	10000	3	1	0	3	0
58	869	1	10000	3	1	0	3	0
60	870	1	10000	3	1	0	3	0
63	871	1	10000	3	1	0	3	0
66	872	1	10000	3	1	0	3	0
70	873	1	10000	3	1	0	3	0
72	874	1	10000	3	1	0	3	0
74	875	1	10000	3	1	0	3	0
73	876	1	10000	3	1	0	3	0
73	877	1	10000	3	1	0	3	0
70	878	1	10000	3	1	0	3	0
67	879	1	10000	3	1	0	3	0
69	880	1	10000	3	1	0	3	0
71	881	1	10000	3	1	0	3	0
73	882	1	10000	3	1	0	3	0
73	883	1	10000	3	1	0	3	0
75	884	1	10000	3	1	0	3	0
75	885	1	10000	3	1	0	3	0
73	886	1	10000	3	1	0	3	0
68	887	1	10000	3	1	0	3	0
65	888	1	10000	3	1	0	3	0
64	889	1	10000	3	1	0	3	0
65	890	1	10000	3	1	0	3	0
67	891	1	10000	3	1	0	3	0
66	892	1	10000	3	1	0	3	0
66	893	1	10000	3	1	0	3	0
65	894	1	10000	3	1	0	3	0
66	895	1	10000	3	1	0	3	0
64	896	1	10000	3	1	0	3	0
65	897	1	10000	3	1	0	3	0
63	898	1	10000	3	1	0	3	0
61	899	1	10000	3	1	0	3	0
60	900	1	10000	3	1	0	3	0
60	901	1	10000	3	1	0	3	0
61	902	1	10000	3	1	0	3	0
60	903	1	10000	3	1	0	3	0
60	904	1	10000	3	1	0	3	0
61	905	1	10000	3	1	0	3	0
62	906	1	10000	3	1	0	3	0
60	907	1	10000	3	1	0	3	0
60	908	1	10000	3	1	0	3	0
59	909	1	10000	3	1	0	3	0
59	910	1	10000	3	1	0	3	0
62	911	1	10000	3	1	0	3	0
64	912	1	10000	3	1	0	3	0
65	913	1	10000	3	1	0	3	0
61	914	1	10000	3	1	0	3	0
59	915	1	10000	3	1	0	3	0
60	916	1	10000	3	1	0	3	0
60	917	1	10000	3	1	0	3	0
58	918	1	10000	3	1	0	3	0
56	919	1	10000	3	1	0	3	0
55	920	1	10000	3	1	0	3	0
54	921	1	10000	3	1	0	3	0
52	922	1	10000	3	1	0	3	0
49	923	1	10000	3	1	0	3	0
49	924	1	10000	3	1	0	3	0
50	925	1	10000	3	1	0	3	0
51	926	1	10000	3	1	0	3	0
49	927	1	10000	3	1	0	3	0
49	928	1	10000	3	1	0	3	0
47	929	1	10000	3	1	0	3	0
46	930	1	10000	3	1	0	3	0
47	931	1	10000	3	1	0	3	0
47	932	1	10000	3	1	0	3	0
45	933	1	10000	3	1	0	3	0
45	934	1	10000	3	1	0	3	0
45	935	1	10000	3	1	0	3	0
44	936	1	10000	3	1	0	3	0
45	937	1	10000	3	1	0	3	0
45	938	1	10000	3	1	0	3	0
45	939	1	10000	3	1	0	3	0
45	940	1	10000	3	1	0	3	0
46	941	1	10000	3	1	0	3	0
45	942	1	10000	3	1	0	3	0
44	943	1	10000	3	1	0	3	0
43	944	1	10000	3	1	0	3	0
44	945	1	10000	3	1	0	3	0
44	946	1	10000	3	1	0	3	0
44	947	1	10000	3	1	0	3	0
44	948	1	10000	3	1	0	3	0
44	949	1	10000	3	1	0	3	0
45	950	1	10000	3	1	0	3	0
47	951	1	10000	3	1	0	3	0
53	952	1	10000	3	1	0	3	0
57	953	1	10000	3	1	0	3	0
58	954	1	10000	3	1	0	3	0
58	955	1	10000	3	1	0	3	0
56	956	1	10000	3	1	0	3	0
56	957	1	10000	3	1	0	3	0
55	958	1	10000	3	1	0	3	0
54	959	1	10000	3	1	0	3	0
51	960	1	10000	3	1	0	3	0
49	961	1	10000	3	1	0	3	0
47	962	1	10000	3	1	0	3	0
47	963	1	10000	3	1	0	3	0
48	964	1	10000	3	1	0	3	0
47	965	1	10000	3	1	0	3	0
46	966	1	10000	3	1	0	3	0
42	967	1	10000	3	1	0	3	0
41	968	1	10000	3	1	0	3	0
40	969	1	10000	3	1	0	3	0
42	970	1	10000	3	1	0	3	0
46	971	1	10000	3	1	0	3	0
48	972	1	10000	3	1	0	3	0
48	973	1	10000	3	1	0	3	0
48	974	1	10000	3	1	0	3	0
48	975	1	10000	3	1	0	3	0
48	976	1	10000	3	1	0	3	0
49	977	1	10000	3	1	0	3	0
47	978	1	10000	3	1	0	3	0
46	979	1	10000	3	1	0	3	0
44	980	1	10000	3	1	0	3	0
43	981	1	10000	3	1	0	3	0
42	982	1	10000	3	1	0	3	0
40	983	1	10000	3	1	0	3	0
39	984	1	10000	3	1	0	3	0
41	985	1	10000	3	1	0	3	0
42	986	1	10000	3	1	0	3	0
38	987	1	10000	3	1	0	3	0
37	988	1	10000	3	1	0	3	0
38	989	1	10000	3	1	0	3	0
38	990	1	10000	3	1	0	3	0
40	991	1	10000	3	1	0	3	0
42	992	1	10000	3	1	0	3	0
45	993	1	10000	3	1	0	3	0
44	994	1	10000	3	1	0	3	0
43	995	1	10000	3	1	0	3	0
40	996	1	10000	3	1	0	3	0
42	997	1	10000	3	1	0	3	0
40	998	1	10000	3	1	0	3	0
39	999	1	10000	3	1	0	3	0
39	1000	1	10000	3	1	0	3	0
39	1001	1	10000	3	1	0	3	0
86	2	10	10000	4	1	0	4	0
88	3	10	10000	4	1	0	4	0
89	4	10	10000	4	1	0	4	0
90	5	10	10000	4	1	0	4	0
91	6	10	10000	4	1	0	4	0
92	7	10	10000	4	1	0	4	0
88	8	10	10000	4	1	0	4	0
85	9	10	10000	4	1	0	4	0
84	10	10	10000	4	1	0	4	0
83	11	10	10000	4	1	0	4	0
83	12	10	10000	4	1	0	4	0
82	13	10	10000	4	1	0	4	0
82	14	10	10000	4	1	0	4	0
79	15	10	10000	4	1	0	4	0
76	16	10	10000	4	1	0	4	0
72	17	10	10000	4	1	0	4	0
68	18	10	10000	4	1	0	4	0
65	19	10	10000	4	1	0	4	0
64	20	10	10000	4	1	0	4	0
62	21	10	10000	4	1	0	4	0
58	22	10	10000	4	1	0	4	0
56	23	10	10000	4	1	0	4	0
54	24	10	10000	4	1	0	4	0
52	25	10	10000	4	1	0	4	0
51	26	10	10000	4	1	0	4	0
55	27	10	10000	4	1	0	4	0
60	28	10	10000	4	1	0	4	0
65	29	10	10000	4	1	0	4	0
71	30	10	10000	4	1	0	4	0
74	31	10	10000	4	1	0	4	0
76	32	10	10000	4	1	0	4	0
78	33	10	10000	4	1	0	4	0
84	34	10	10000	4	1	0	4	0
90	35	10	10000	4	1	0	4	0
96	36	10	10000	4	1	0	4	0
98	37	10	10000	4	1	0	4	0
102	38	10	10000	4	1	0	4	0
106	39	10	10000	4	1	0	4	0
107	40	10	10000	4	1	0	4	0
109	41	10	10000	4	1	0	4	0
110	42	10	10000	4	1	0	4	0
112	43	10	10000	4	1	0	4	0
113	44	10	10000	4	1	0	4	0
114	45	10	10000	4	1	0	4	0
114	46	10	10000	4	1	0	4	0
118	47	10	10000	4	1	0	4	0
121	48	10	10000	4	1	0	4	0
122	49	10	10000	4	1	0	4	0
123	50	10	10000	4	1	0	4	0
121	51	10	10000	4	1	0	4	0
120	52	10	10000	4	1	0	4	0
118	53	10	10000	4	1	0	4	0
116	54	10	10000	4	1	0	4	0
116	55	10	10000	4	1	0	4	0
116	56	10	10000	4	1	0	4	0
115	57	10	10000	4	1	0	4	0
116	58	10	10000	4	1	0	4	0
117	59	10	10000	4	1	0	4	0
117	60	10	10000	4	1	0	4	0
117	61	10	10000	4	1	0	4	0
116	62	10	10000	4	1	0	4	0
114	63	10	10000	4	1	0	4	0
112	64	10	10000	4	1	0	4	0
111	65	10	10000	4	1	0	4	0
109	66	10	10000	4	1	0	4	0
108	67	10	10000	4	1	0	4	0
108	68	10	10000	4	1	0	4	0
106	69	10	10000	4	1	0	4	0
105	70	10	10000	4	1	0	4	0
102	71	10	10000	4	1	0	4	0
100	72	10	10000	4	1	0	4	0
96	73	10	10000	4	1	0	4	0
94	74	10	10000	4	1	0	4	0
93	75	10	10000	4	1	0	4	0
89	76	10	10000	4	1	0	4	0
84	77	10	10000	4	1	0	4	0
80	78	10	10000	4	1	0	4	0
78	79	10	10000	4	1	0	4	0
74	80	10	10000	4	1	0	4	0
72	81	10	10000	4	1	0	4	0
70	82	10	10000	4	1	0	4	0
68	83	10	10000	4	1	0	4	0
65	84	10	10000	4	1	0	4	0
62	85	10	10000	4	1	0	4	0
59	86	10	10000	4	1	0	4	0
59	87	10	10000	4	1	0	4	0
57	88	10	10000	4	1	0	4	0
56	89	10	10000	4	1	0	4	0
54	90	10	10000	4	1	0	4	0
51	91	10	10000	4	1	0	4	0
49	91	10	10000	4	1	0	4	0
47	92	10	10000	4	1	0	4	0
46	94	10	10000	4	1	0	4	0
44	95	10	10000	4	1	0	4	0
43	96	10	10000	4	1	0	4	0
40	97	10	10000	4	1	0	4	0
39	98	10	10000	4	1	0	4	0
38	99	10	10000	4	1	0	4	0
38	100	10	10000	4	1	0	4	0
37	101	10	10000	4	1	0	4	0
37	101	10	10000	4	1	0	4	0
38	102	10	10000	4	1	0	4	0
36	104	10	10000	4	1	0	4	0
34	105	10	10000	4	1	0	4	0
33	106	10	10000	4	1	0	4	0
35	107	10	10000	4	1	0	4	0
35	108	10	10000	4	1	0	4	0
33	109	10	10000	4	1	0	4	0
32	110	10	10000	4	1	0	4	0
30	111	10	10000	4	1	0	4	0
31	111	10	10000	4	1	0	4	0
29	112	10	10000	4	1	0	4	0
29	114	10	10000	4	1	0	4	0
29	115	10	10000	4	1	0	4	0
28	116	10	10000	4	1	0	4	0
25	117	10	10000	4	1	0	4	0
25	118	10	10000	4	1	0	4	0
25	119	10	10000	4	1	0	4	0
24	120	10	10000	4	1	0	4	0
23	121	10	10000	4	1	0	4	0
23	121	10	10000	4	1	0	4	0
26	122	10	10000	4	1	0	4	0
28	124	10	10000	4	1	0	4	0
30	125	10	10000	4	1	0	4	0
28	126	10	10000	4	1	0	4	0
31	127	10	10000	4	1	0	4	0
30	128	10	10000	4	1	0	4	0
29	129	10	10000	4	1	0	4	0
30	130	10	10000	4	1	0	4	0
29	131	10	10000	4	1	0	4	0
28	131	10	10000	4	1	0	4	0
27	132	10	10000	4	1	0	4	0
30	134	10	10000	4	1	0	4	0
30	135	10	10000	4	1	0	4	0
31	136	10	10000	4	1	0	4	0
28	137	10	10000	4	1	0	4	0
27	138	10	10000	4	1	0	4	0
27	139	10	10000	4	1	0	4	0
27	140	10	10000	4	1	0	4	0
28	141	10	10000	4	1	0	4	0
28	141	10	10000	4	1	0	4	0
27	142	10	10000	4	1	0	4	0
26	144	10	10000	4	1	0	4	0
26	145	10	10000	4	1	0	4	0
24	146	10	10000	4	1	0	4	0
25	147	10	10000	4	1	0	4	0
25	148	10	10000	4	1	0	4	0
26	149	10	10000	4	1	0	4	0
25	150	10	10000	4	1	0	4	0
25	151	10	10000	4	1	0	4	0
25	151	10	10000	4	1	0	4	0
27	152	10	10000	4	1	0	4	0
29	154	10	10000	4	1	0	4	0
29	155	10	10000	4	1	0	4	0
30	156	10	10000	4	1	0	4	0
29	157	10	10000	4	1	0	4	0
29	158	10	10000	4	1	0	4	0
29	159	10	10000	4	1	0	4	0
30	160	10	10000	4	1	0	4	0
32	161	10	10000	4	1	0	4	0
33	161	10	10000	4	1	0	4	0
35	162	10	10000	4	1	0	4	0
33	164	10	10000	4	1	0	4	0
31	165	10	10000	4	1	0	4	0
30	166	10	10000	4	1	0	4	0
32	167	10	10000	4	1	0	4	0
30	168	10	10000	4	1	0	4	0
30	169	10	10000	4	1	0	4	0
28	170	10	10000	4	1	0	4	0
28	171	10	10000	4	1	0	4	0
27	171	10	10000	4	1	0	4	0
28	172	10	10000	4	1	0	4	0
31	174	10	10000	4	1	0	4	0
31	175	10	10000	4	1	0	4	0
31	176	10	10000	4	1	0	4	0
28	177	10	10000	4	1	0	4	0
27	178	10	10000	4	1	0	4	0
27	179	10	10000	4	1	0	4	0
28	180	10	10000	4	1	0	4	0
30	181	10	10000	4	1	0	4	0
32	181	10	10000	4	1	0	4	0
35	182	10	10000	4	1	0	4	0
33	184	10	10000	4	1	0	4	0
32	185	10	10000	4	1	0	4	0
30	186	10	10000	4	1	0	4	0
32	187	10	10000	4	1	0	4	0
31	188	10	10000	4	1	0	4	0
31	189	10	10000	4	1	0	4	0
29	190	10	10000	4	1	0	4	0
29	191	10	10000	4	1	0	4	0
28	191	10	10000	4	1	0	4	0
27	192	10	10000	4	1	0	4	0
27	194	10	10000	4	1	0	4	0
28	195	10	10000	4	1	0	4	0
30	196	10	10000	4	1	0	4	0
25	197	10	10000	4	1	0	4	0
25	198	10	10000	4	1	0	4	0
25	199	10	10000	4	1	0	4	0
27	200	10	10000	4	1	0	4	0
30	201	10	10000	4	1	0	4	0
31	201	10	10000	4	1	0	4	0
33	202	10	10000	4	1	0	4	0
33	204	10	10000	4	1	0	4	0
32	205	10	10000	4	1	0	4	0
29	206	10	10000	4	1	0	4	0
31	207	10	10000	4	1	0	4	0
30	208	10	10000	4	1	0	4	0
31	209	10	10000	4	1	0	4	0
32	210	10	10000	4	1	0	4	0
31	211	10	10000	4	1	0	4	0
29	211	10	10000	4	1	0	4	0
29	212	10	10000	4	1	0	4	0
29	214	10	10000	4	1	0	4	0
30	215	10	10000	4	1	0	4	0
31	216	10	10000	4	1	0	4	0
28	217	10	10000	4	1	0	4	0
28	218	10	10000	4	1	0	4	0
26	219	10	10000	4	1	0	4	0
27	220	10	10000	4	1	0	4	0
28	221	10	10000	4	1	0	4	0
27	221	10	10000	4	1	0	4	0
27	222	10	10000	4	1	0	4	0
26	224	10	10000	4	1	0	4	0
27	225	10	10000	4	1	0	4	0
26	226	10	10000	4	1	0	4	0
28	227	10	10000	4	1	0	4	0
28	228	10	10000	4	1	0	4	0
28	229	10	10000	4	1	0	4	0
28	230	10	10000	4	1	0	4	0
29	231	10	10000	4	1	0	4	0
31	231	10	10000	4	1	0	4	0
34	232	10	10000	4	1	0	4	0
37	234	10	10000	4	1	0	4	0
39	235	10	10000	4	1	0	4	0
41	236	10	10000	4	1	0	4	0
37	237	10	10000	4	1	0	4	0
35	238	10	10000	4	1	0	4	0
34	239	10	10000	4	1	0	4	0
36	240	10	10000	4	1	0	4	0
38	241	10	10000	4	1	0	4	0
39	241	10	10000	4	1	0	4	0
38	242	10	10000	4	1	0	4	0
38	244	10	10000	4	1	0	4	0
37	245	10	10000	4	1	0	4	0
36	246	10	10000	4	1	0	4	0
37	247	10	10000	4	1	0	4	0
35	248	10	10000	4	1	0	4	0
34	249	10	10000	4	1	0	4	0
34	250	10	10000	4	1	0	4	0
34	251	10	10000	4	1	0	4	0
34	251	10	10000	4	1	0	4	0
33	252	10	10000	4	1	0	4	0
34	254	10	10000	4	1	0	4	0
35	255	10	10000	4	1	0	4	0
37	256	10	10000	4	1	0	4	0
36	257	10	10000	4	1	0	4	0
37	258	10	10000	4	1	0	4	0
36	259	10	10000	4	1	0	4	0
35	260	10	10000	4	1	0	4	0
35	261	10	10000	4	1	0	4	0
34	261	10	10000	4	1	0	4	0
34	262	10	10000	4	1	0	4	0
32	264	10	10000	4	1	0	4	0
31	265	10	10000	4	1	0	4	0
30	266	10	10000	4	1	0	4	0
33	267	10	10000	4	1	0	4	0
34	268	10	10000	4	1	0	4	0
36	269	10	10000	4	1	0	4	0
36	270	10	10000	4	1	0	4	0
35	271	10	10000	4	1	0	4	0
33	271	10	10000	4	1	0	4	0
33	272	10	10000	4	1	0	4	0
34	274	10	10000	4	1	0	4	0
33	275	10	10000	4	1	0	4	0
34	276	10	10000	4	1	0	4	0
32	277	10	10000	4	1	0	4	0
32	278	10	10000	4	1	0	4	0
32	279	10	10000	4	1	0	4	0
33	280	10	10000	4	1	0	4	0
34	281	10	10000	4	1	0	4	0
33	281	10	10000	4	1	0	4	0
33	282	10	10000	4	1	0	4	0
32	284	10	10000	4	1	0	4	0
31	285	10	10000	4	1	0	4	0
30	286	10	10000	4	1	0	4	0
32	287	10	10000	4	1	0	4	0
31	288	10	10000	4	1	0	4	0
30	289	10	10000	4	1	0	4	0
31	290	10	10000	4	1	0	4	0
31	291	10	10000	4	1	0	4	0
31	291	10	10000	4	1	0	4	0
30	292	10	10000	4	1	0	4	0
30	294	10	10000	4	1	0	4	0
32	295	10	10000	4	1	0	4	0
33	296	10	10000	4	1	0	4	0
32	297	10	10000	4	1	0	4	0
33	298	10	10000	4	1	0	4	0
31	299	10	10000	4	1	0	4	0
33	300	10	10000	4	1	0	4	0
35	301	10	10000	4	1	0	4	0
36	301	10	10000	4	1	0	4	0
35	302	10	10000	4	1	0	4	0
34	304	10	10000	4	1	0	4	0
32	305	10	10000	4	1	0	4	0
31	306	10	10000	4	1	0	4	0
32	307	10	10000	4	1	0	4	0
31	308	10	10000	4	1	0	4	0
31	309	10	10000	4	1	0	4	0
30	310	10	10000	4	1	0	4	0
28	311	10	10000	4	1	0	4	0
28	311	10	10000	4	1	0	4	0
26	312	10	10000	4	1	0	4	0
26	314	10	10000	4	1	0	4	0
25	315	10	10000	4	1	0	4	0
26	316	10	10000	4	1	0	4	0
24	317	10	10000	4	1	0	4	0
25	318	10	10000	4	1	0	4	0
25	319	10	10000	4	1	0	4	0
25	320	10	10000	4	1	0	4	0
25	321	10	10000	4	1	0	4	0
24	321	10	10000	4	1	0	4	0
24	322	10	10000	4	1	0	4	0
23	324	10	10000	4	1	0	4	0
22	325	10	10000	4	1	0	4	0
23	326	10	10000	4	1	0	4	0
26	327	10	10000	4	1	0	4	0
27	328	10	10000	4	1	0	4	0
26	329	10	10000	4	1	0	4	0
24	330	10	10000	4	1	0	4	0
25	331	10	10000	4	1	0	4	0
24	331	10	10000	4	1	0	4	0
23	332	10	10000	4	1	0	4	0
24	334	10	10000	4	1	0	4	0
23	335	10	10000	4	1	0	4	0
24	336	10	10000	4	1	0	4	0
24	337	10	10000	4	1	0	4	0
23	338	10	10000	4	1	0	4	0
23	339	10	10000	4	1	0	4	0
23	340	10	10000	4	1	0	4	0
23	341	10	10000	4	1	0	4	0
23	341	10	10000	4	1	0	4	0
23	342	10	10000	4	1	0	4	0
22	344	10	10000	4	1	0	4	0
20	345	10	10000	4	1	0	4	0
20	346	10	10000	4	1	0	4	0
21	347	10	10000	4	1	0	4	0
22	348	10	10000	4	1	0	4	0
22	349	10	10000	4	1	0	4	0
21	350	10	10000	4	1	0	4	0
21	351	10	10000	4	1	0	4	0
21	351	10	10000	4	1	0	4	0
22	352	10	10000	4	1	0	4	0
22	354	10	10000	4	1	0	4	0
22	355	10	10000	4	1	0	4	0
22	356	10	10000	4	1	0	4	0
21	357	10	10000	4	1	0	4	0
21	358	10	10000	4	1	0	4	0
21	359	10	10000	4	1	0	4	0
23	360	10	10000	4	1	0	4	0
23	361	10	10000	4	1	0	4	0
22	361	10	10000	4	1	0	4	0
21	362	10	10000	4	1	0	4	0
21	364	10	10000	4	1	0	4	0
20	365	10	10000	4	1	0	4	0
19	366	10	10000	4	1	0	4	0
20	367	10	10000	4	1	0	4	0
22	368	10	10000	4	1	0	4	0
22	369	10	10000	4	1	0	4	0
21	370	10	10000	4	1	0	4	0
22	371	10	10000	4	1	0	4	0
21	371	10	10000	4	1	0	4	0
22	372	10	10000	4	1	0	4	0
22	374	10	10000	4	1	0	4	0
23	375	10	10000	4	1	0	4	0
24	376	10	10000	4	1	0	4	0
21	377	10	10000	4	1	0	4	0
20	378	10	10000	4	1	0	4	0
20	379	10	10000	4	1	0	4	0
20	380	10	10000	4	1	0	4	0
20	381	10	10000	4	1	0	4	0
20	381	10	10000	4	1	0	4	0
19	382	10	10000	4	1	0	4	0
18	384	10	10000	4	1	0	4	0
18	385	10	10000	4	1	0	4	0
17	386	10	10000	4	1	0	4	0
20	387	10	10000	4	1	0	4	0
20	388	10	10000	4	1	0	4	0
21	389	10	10000	4	1	0	4	0
22	390	10	10000	4	1	0	4	0
21	391	10	10000	4	1	0	4	0
21	391	10	10000	4	1	0	4	0
21	392	10	10000	4	1	0	4	0
20	394	10	10000	4	1	0	4	0
21	395	10	10000	4	1	0	4	0
22	396	10	10000	4	1	0	4	0
19	397	10	10000	4	1	0	4	0
19	398	10	10000	4	1	0	4	0
18	399	10	10000	4	1	0	4	0
20	400	10	10000	4	1	0	4	0
21	401	10	10000	4	1	0	4	0
21	401	10	10000	4	1	0	4	0
21	402	10	10000	4	1	0	4	0
21	404	10	10000	4	1	0	4	0
21	405	10	10000	4	1	0	4	0
22	406	10	10000	4	1	0	4	0
23	407	10	10000	4	1	0	4	0
24	408	10	10000	4	1	0	4	0
23	409	10	10000	4	1	0	4	0
21	410	10	10000	4	1	0	4	0
21	411	10	10000	4	1	0	4	0
20	411	10	10000	4	1	0	4	0
20	412	10	10000	4	1	0	4	0
22	414	10	10000	4	1	0	4	0
24	415	10	10000	4	1	0	4	0
23	416	10	10000	4	1	0	4	0
21	417	10	10000	4	1	0	4	0
20	418	10	10000	4	1	0	4	0
23	419	10	10000	4	1	0	4	0
26	420	10	10000	4	1	0	4	0
27	421	10	10000	4	1	0	4	0
30	421	10	10000	4	1	0	4	0
31	422	10	10000	4	1	0	4	0
31	424	10	10000	4	1	0	4	0
31	425	10	10000	4	1	0	4	0
31	426	10	10000	4	1	0	4	0
32	427	10	10000	4	1	0	4	0
32	428	10	10000	4	1	0	4	0
32	429	10	10000	4	1	0	4	0
32	430	10	10000	4	1	0	4	0
32	431	10	10000	4	1	0	4	0
30	431	10	10000	4	1	0	4	0
29	432	10	10000	4	1	0	4	0
29	434	10	10000	4	1	0	4	0
29	435	10	10000	4	1	0	4	0
30	436	10	10000	4	1	0	4	0
28	437	10	10000	4	1	0	4	0
29	438	10	10000	4	1	0	4	0
31	439	10	10000	4	1	0	4	0
33	440	10	10000	4	1	0	4	0
32	441	10	10000	4	1	0	4	0
32	441	10	10000	4	1	0	4	0
31	442	10	10000	4	1	0	4	0
30	444	10	10000	4	1	0	4	0
28	445	10	10000	4	1	0	4	0
28	446	10	10000	4	1	0	4	0
31	447	10	10000	4	1	0	4	0
31	448	10	10000	4	1	0	4	0
31	449	10	10000	4	1	0	4	0
32	450	10	10000	4	1	0	4	0
31	451	10	10000	4	1	0	4	0
31	451	10	10000	4	1	0	4	0
31	452	10	10000	4	1	0	4	0
30	454	10	10000	4	1	0	4	0
30	455	10	10000	4	1	0	4	0
29	456	10	10000	4	1	0	4	0
25	457	10	10000	4	1	0	4	0
24	458	10	10000	4	1	0	4	0
25	459	10	10000	4	1	0	4	0
28	460	10	10000	4	1	0	4	0
31	461	10	10000	4	1	0	4	0
32	461	10	10000	4	1	0	4	0
33	462	10	10000	4	1	0	4	0
33	464	10	10000	4	1	0	4	0
32	465	10	10000	4	1	0	4	0
32	466	10	10000	4	1	0	4	0
33	467	10	10000	4	1	0	4	0
33	468	10	10000	4	1	0	4	0
32	469	10	10000	4	1	0	4	0
32	470	10	10000	4	1	0	4	0
32	471	10	10000	4	1	0	4	0
33	471	10	10000	4	1	0	4	0
33	472	10	10000	4	1	0	4	0
35	474	10	10000	4	1	0	4	0
36	475	10	10000	4	1	0	4	0
36	476	10	10000	4	1	0	4	0
34	477	10	10000	4	1	0	4	0
32	478	10	10000	4	1	0	4	0
33	479	10	10000	4	1	0	4	0
33	480	10	10000	4	1	0	4	0
32	481	10	10000	4	1	0	4	0
32	481	10	10000	4	1	0	4	0
32	482	10	10000	4	1	0	4	0
31	484	10	10000	4	1	0	4	0
31	485	10	10000	4	1	0	4	0
30	486	10	10000	4	1	0	4	0
32	487	10	10000	4	1	0	4	0
34	488	10	10000	4	1	0	4	0
35	489	10	10000	4	1	0	4	0
34	490	10	10000	4	1	0	4	0
33	491	10	10000	4	1	0	4	0
32	491	10	10000	4	1	0	4	0
30	492	10	10000	4	1	0	4	0
30	494	10	10000	4	1	0	4	0
29	495	10	10000	4	1	0	4	0
31	496	10	10000	4	1	0	4	0
28	497	10	10000	4	1	0	4	0
29	498	10	10000	4	1	0	4	0
29	499	10	10000	4	1	0	4	0
28	500	10	10000	4	1	0	4	0
27	501	10	10000	4	1	0	4	0
26	502	10	10000	4	1	0	4	1
26	503	10	10000	4	1	0	4	1
24	504	10	10000	4	1	0	4	1
25	505	10	10000	4	1	0	4	1
25	506	10	10000	4	1	0	4	1
25	507	10	10000	4	1	0	4	1
24	508	10	10000	4	1	0	4	1
23	509	10	10000	4	1	0	4	1
24	510	10	10000	4	1	0	4	1
24	511	10	10000	4	1	0	4	1
23	511	10	10000	4	1	0	4	1
23	512	10	10000	4	1	0	4	1
24	514	10	10000	4	1	0	4	1
25	515	10	10000	4	1	0	4	1
27	516	10	10000	4	1	0	4	1
24	517	10	10000	4	1	0	4	1
24	518	10	10000	4	1	0	4	1
24	519	10	10000	4	1	0	4	1
23	520	10	10000	4	1	0	4	1
23	521	10	10000	4	1	0	4	1
23	521	10	10000	4	1	0	4	1
23	522	10	10000	4	1	0	4	1
23	524	10	10000	4	1	0	4	1
24	525	10	10000	4	1	0	4	1
23	526	10	10000	4	1	0	4	1
25	527	10	10000	4	1	0	4	1
26	528	10	10000	4	1	0	4	1
26	529	10	10000	4	1	0	4	1
27	530	10	10000	4	1	0	4	1
27	531	10	10000	4	1	0	4	1
26	531	10	10000	4	1	0	4	1
28	532	10	10000	4	1	0	4	1
30	534	10	10000	4	1	0	4	1
29	535	10	10000	4	1	0	4	1
31	536	10	10000	4	1	0	4	1
28	537	10	10000	4	1	0	4	1
28	538	10	10000	4	1	0	4	1
28	539	10	10000	4	1	0	4	1
27	540	10	10000	4	1	0	4	1
29	541	10	10000	4	1	0	4	1
29	541	10	10000	4	1	0	4	1
31	542	10	10000	4	1	0	4	1
30	544	10	10000	4	1	0	4	1
29	545	10	10000	4	1	0	4	1
28	546	10	10000	4	1	0	4	1
29	547	10	10000	4	1	0	4	1
27	548	10	10000	4	1	0	4	1
27	549	10	10000	4	1	0	4	1
27	550	10	10000	4	1	0	4	1
26	551	10	10000	4	1	0	4	1
26	551	10	10000	4	1	0	4	0
26	552	10	10000	4	1	0	4	0
27	554	10	10000	4	1	0	4	0
26	555	10	10000	4	1	0	4	0
26	556	10	10000	4	1	0	4	0
25	557	10	10000	4	1	0	4	0
25	558	10	10000	4	1	0	4	0
25	559	10	10000	4	1	0	4	0
26	560	10	10000	4	1	0	4	0
28	561	10	10000	4	1	0	4	0
28	561	10	10000	4	1	0	4	0
29	562	10	10000	4	1	0	4	0
30	564	10	10000	4	1	0	4	0
30	565	10	10000	4	1	0	4	0
29	566	10	10000	4	1	0	4	0
31	567	10	10000	4	1	0	4	0
32	568	10	10000	4	1	0	4	0
33	569	10	10000	4	1	0	4	0
32	570	10	10000	4	1	0	4	0
32	571	10	10000	4	1	0	4	0
32	571	10	10000	4	1	0	4	0
31	572	10	10000	4	1	0	4	0
31	574	10	10000	4	1	0	4	0
32	575	10	10000	4	1	0	4	0
33	576	10	10000	4	1	0	4	0
31	577	10	10000	4	1	0	4	0
32	578	10	10000	4	1	0	4	0
32	579	10	10000	4	1	0	4	0
32	580	10	10000	4	1	0	4	0
33	581	10	10000	4	1	0	4	0
32	581	10	10000	4	1	0	4	0
32	582	10	10000	4	1	0	4	0
30	584	10	10000	4	1	0	4	0
28	585	10	10000	4	1	0	4	0
27	586	10	10000	4	1	0	4	0
29	587	10	10000	4	1	0	4	0
29	588	10	10000	4	1	0	4	0
29	589	10	10000	4	1	0	4	0
36	590	10	10000	4	1	0	4	0
37	591	10	10000	4	1	0	4	0
42	591	10	10000	4	1	0	4	0
52	592	10	10000	4	1	0	4	0
72	594	10	10000	4	1	0	4	0
92	595	10	10000	4	1	0	4	0
96	596	10	10000	4	1	0	4	0
102	597	10	10000	4	1	0	4	0
118	598	10	10000	4	1	0	4	0
138	599	10	10000	4	1	0	4	0
141	600	10	10000	4	1	0	4	0
226	601	10	10000	4	1	0	4	0
335	601	10	10000	4	1	0	4	0
350	602	10	10000	4	1	0	4	0
377	604	10	10000	4	1	0	4	0
369	605	10	10000	4	1	0	4	0
404	606	10	10000	4	1	0	4	0
493	607	10	10000	4	1	0	4	0
584	608	10	10000	4	1	0	4	0
605	609	10	10000	4	1	0	4	0
675	610	10	10000	4	1	0	4	0
676	611	10	10000	4	1	0	4	0
698	611	10	10000	4	1	0	4	0
759	612	10	10000	4	1	0	4	0
826	614	10	10000	4	1	0	4	0
857	615	10	10000	4	1	0	4	0
840	616	10	10000	4	1	0	4	0
854	617	10	10000	4	1	0	4	0
849	618	10	10000	4	1	0	4	0
849	619	10	10000	4	1	0	4	0
825	620	10	10000	4	1	0	4	0
870	621	10	10000	4	1	0	4	0
1043	621	10	10000	4	1	0	4	0
1133	622	10	10000	4	1	0	4	0
1105	624	10	10000	4	1	0	4	0
1155	625	10	10000	4	1	0	4	0
1231	626	10	10000	4	1	0	4	0
1267	627	10	10000	4	1	0	4	0
1256	628	10	10000	4	1	0	4	0
1218	629	10	10000	4	1	0	4	0
1169	630	10	10000	4	1	0	4	0
1151	631	10	10000	4	1	0	4	0
1160	631	10	10000	4	1	0	4	0
1185	632	10	10000	4	1	0	4	0
1221	634	10	10000	4	1	0	4	0
1257	635	10	10000	4	1	0	4	0
1294	636	10	10000	4	1	0	4	0
1327	637	10	10000	4	1	0	4	0
1360	638	10	10000	4	1	0	4	0
1392	639	10	10000	4	1	0	4	0
1428	640	10	10000	4	1	0	4	0
1467	641	10	10000	4	1	0	4	0
1481	641	10	10000	4	1	0	4	0
1477	642	10	10000	4	1	0	4	0
1483	644	10	10000	4	1	0	4	0
1496	645	10	10000	4	1	0	4	0
1488	646	10	10000	4	1	0	4	0
1465	647	10	10000	4	1	0	4	0
1433	648	10	10000	4	1	0	4	0
1395	649	10	10000	4	1	0	4	0
1352	650	10	10000	4	1	0	4	0
1306	651	10	10000	4	1	0	4	0
1257	651	10	10000	4	1	0	4	0
1202	652	10	10000	4	1	0	4	0
1154	654	10	10000	4	1	0	4	0
1126	655	10	10000	4	1	0	4	0
1113	656	10	10000	4	1	0	4	0
1107	657	10	10000	4	1	0	4	0
1116	658	10	10000	4	1	0	4	0
1131	659	10	10000	4	1	0	4	0
1153	660	10	10000	4	1	0	4	0
1178	661	10	10000	4	1	0	4	0
1206	661	10	10000	4	1	0	4	0
1235	662	10	10000	4	1	0	4	0
1262	664	10	10000	4	1	0	4	0
1288	665	10	10000	4	1	0	4	0
1313	666	10	10000	4	1	0	4	0
1341	667	10	10000	4	1	0	4	0
1365	668	10	10000	4	1	0	4	0
1388	669	10	10000	4	1	0	4	0
1409	670	10	10000	4	1	0	4	0
1428	671	10	10000	4	1	0	4	0
1444	671	10	10000	4	1	0	4	0
1461	672	10	10000	4	1	0	4	0
1478	674	10	10000	4	1	0	4	0
1494	675	10	10000	4	1	0	4	0
1509	676	10	10000	4	1	0	4	0
1522	677	10	10000	4	1	0	4	0
1534	678	10	10000	4	1	0	4	0
1531	679	10	10000	4	1	0	4	0
1527	680	10	10000	4	1	0	4	0
1523	681	10	10000	4	1	0	4	0
1518	681	10	10000	4	1	0	4	0
1512	682	10	10000	4	1	0	4	0
1498	684	10	10000	4	1	0	4	0
1477	685	10	10000	4	1	0	4	0
1447	686	10	10000	4	1	0	4	0
1417	687	10	10000	4	1	0	4	0
1381	688	10	10000	4	1	0	4	0
1343	689	10	10000	4	1	0	4	0
1303	690	10	10000	4	1	0	4	0
1261	691	10	10000	4	1	0	4	0
1219	691	10	10000	4	1	0	4	0
1177	692	10	10000	4	1	0	4	0
1137	694	10	10000	4	1	0	4	0
1101	695	10	10000	4	1	0	4	0
1068	696	10	10000	4	1	0	4	0
1031	697	10	10000	4	1	0	4	0
997	698	10	10000	4	1	0	4	0
962	699	10	10000	4	1	0	4	0
923	700	10	10000	4	1	0	4	0
885	701	10	10000	4	1	0	4	0
848	701	10	10000	4	1	0	4	0
812	702	10	10000	4	1	0	4	0
773	704	10	10000	4	1	0	4	0
741	705	10	10000	4	1	0	4	0
713	706	10	10000	4	1	0	4	0
693	707	10	10000	4	1	0	4	0
671	708	10	10000	4	1	0	4	0
652	709	10	10000	4	1	0	4	0
635	710	10	10000	4	1	0	4	0
622	711	10	10000	4	1	0	4	0
610	711	10	10000	4	1	0	4	0
597	712	10	10000	4	1	0	4	0
586	714	10	10000	4	1	0	4	0
571	715	10	10000	4	1	0	4	0
555	716	10	10000	4	1	0	4	0
538	717	10	10000	4	1	0	4	0
525	718	10	10000	4	1	0	4	0
512	719	10	10000	4	1	0	4	0
501	720	10	10000	4	1	0	4	0
491	721	10	10000	4	1	0	4	0
484	721	10	10000	4	1	0	4	0
476	722	10	10000	4	1	0	4	0
470	724	10	10000	4	1	0	4	0
468	725	10	10000	4	1	0	4	0
465	726	10	10000	4	1	0	4	0
465	727	10	10000	4	1	0	4	0
464	728	10	10000	4	1	0	4	0
463	729	10	10000	4	1	0	4	0
461	730	10	10000	4	1	0	4	0
458	731	10	10000	4	1	0	4	0
457	731	10	10000	4	1	0	4	0
454	732	10	10000	4	1	0	4	0
448	734	10	10000	4	1	0	4	0
441	735	10	10000	4	1	0	4	0
433	736	10	10000	4	1	0	4	0
418	737	10	10000	4	1	0	4	0
405	738	10	10000	4	1	0	4	0
395	739	10	10000	4	1	0	4	0
389	740	10	10000	4	1	0	4	0
384	741	10	10000	4	1	0	4	0
377	741	10	10000	4	1	0	4	0
369	742	10	10000	4	1	0	4	0
365	744	10	10000	4	1	0	4	0
364	745	10	10000	4	1	0	4	0
361	746	10	10000	4	1	0	4	0
361	747	10	10000	4	1	0	4	0
358	748	10	10000	4	1	0	4	0
360	749	10	10000	4	1	0	4	0
362	750	10	10000	4	1	0	4	0
362	751	10	10000	4	1	0	4	0
360	751	10	10000	4	1	0	4	0
355	752	10	10000	4	1	0	4	0
346	754	10	10000	4	1	0	4	0
336	755	10	10000	4	1	0	4	0
328	756	10	10000	4	1	0	4	0
314	757	10	10000	4	1	0	4	0
301	758	10	10000	4	1	0	4	0
287	759	10	10000	4	1	0	4	0
274	760	10	10000	4	1	0	4	0
263	761	10	10000	4	1	0	4	0
254	761	10	10000	4	1	0	4	0
246	762	10	10000	4	1	0	4	0
242	764	10	10000	4	1	0	4	0
241	765	10	10000	4	1	0	4	0
239	766	10	10000	4	1	0	4	0
241	767	10	10000	4	1	0	4	0
239	768	10	10000	4	1	0	4	0
239	769	10	10000	4	1	0	4	0
239	770	10	10000	4	1	0	4	0
238	771	10	10000	4	1	0	4	0
238	771	10	10000	4	1	0	4	0
235	772	10	10000	4	1	0	4	0
231	774	10	10000	4	1	0	4	0
224	775	10	10000	4	1	0	4	0
217	776	10	10000	4	1	0	4	0
204	777	10	10000	4	1	0	4	0
196	778	10	10000	4	1	0	4	0
187	779	10	10000	4	1	0	4	0
181	780	10	10000	4	1	0	4	0
177	781	10	10000	4	1	0	4	0
172	781	10	10000	4	1	0	4	0
167	782	10	10000	4	1	0	4	0
165	784	10	10000	4	1	0	4	0
164	785	10	10000	4	1	0	4	0
164	786	10	10000	4	1	0	4	0
165	787	10	10000	4	1	0	4	0
166	788	10	10000	4	1	0	4	0
169	789	10	10000	4	1	0	4	0
169	790	10	10000	4	1	0	4	0
172	791	10	10000	4	1	0	4	0
176	791	10	10000	4	1	0	4	0
177	792	10	10000	4	1	0	4	0
178	794	10	10000	4	1	0	4	0
175	795	10	10000	4	1	0	4	0
168	796	10	10000	4	1	0	4	0
163	797	10	10000	4	1	0	4	0
160	798	10	10000	4	1	0	4	0
153	799	10	10000	4	1	0	4	0
148	800	10	10000	4	1	0	4	0
143	801	10	10000	4	1	0	4	0
139	801	10	10000	4	1	0	4	0
135	802	10	10000	4	1	0	4	0
137	804	10	10000	4	1	0	4	0
138	805	10	10000	4	1	0	4	0
139	806	10	10000	4	1	0	4	0
145	807	10	10000	4	1	0	4	0
155	808	10	10000	4	1	0	4	0
159	809	10	10000	4	1	0	4	0
160	810	10	10000	4	1	0	4	0
160	811	10	10000	4	1	0	4	0
160	811	10	10000	4	1	0	4	0
166	812	10	10000	4	1	0	4	0
181	814	10	10000	4	1	0	4	0
183	815	10	10000	4	1	0	4	0
180	816	10	10000	4	1	0	4	0
177	817	10	10000	4	1	0	4	0
181	818	10	10000	4	1	0	4	0
176	819	10	10000	4	1	0	4	0
174	820	10	10000	4	1	0	4	0
171	821	10	10000	4	1	0	4	0
166	821	10	10000	4	1	0	4	0
169	822	10	10000	4	1	0	4	0
170	824	10	10000	4	1	0	4	0
178	825	10	10000	4	1	0	4	0
178	826	10	10000	4	1	0	4	0
189	827	10	10000	4	1	0	4	0
197	828	10	10000	4	1	0	4	0
220	829	10	10000	4	1	0	4	0
222	830	10	10000	4	1	0	4	0
225	831	10	10000	4	1	0	4	0
228	831	10	10000	4	1	0	4	0
224	832	10	10000	4	1	0	4	0
216	834	10	10000	4	1	0	4	0
214	835	10	10000	4	1	0	4	0
215	836	10	10000	4	1	0	4	0
211	837	10	10000	4	1	0	4	0
207	838	10	10000	4	1	0	4	0
205	839	10	10000	4	1	0	4	0
204	840	10	10000	4	1	0	4	0
206	841	10	10000	4	1	0	4	0
216	841	10	10000	4	1	0	4	0
234	842	10	10000	4	1	0	4	0
244	844	10	10000	4	1	0	4	0
244	845	10	10000	4	1	0	4	0
240	846	10	10000	4	1	0	4	0
254	847	10	10000	4	1	0	4	0
269	848	10	10000	4	1	0	4	0
282	849	10	10000	4	1	0	4	0
284	850	10	10000	4	1	0	4	0
285	851	10	10000	4	1	0	4	0
287	851	10	10000	4	1	0	4	0
277	852	10	10000	4	1	0	4	0
266	854	10	10000	4	1	0	4	0
263	855	10	10000	4	1	0	4	0
257	856	10	10000	4	1	0	4	0
251	857	10	10000	4	1	0	4	0
243	858	10	10000	4	1	0	4	0
244	859	10	10000	4	1	0	4	0
260	860	10	10000	4	1	0	4	0
258	861	10	10000	4	1	0	4	0
266	861	10	10000	4	1	0	4	0
271	862	10	10000	4	1	0	4	0
269	864	10	10000	4	1	0	4	0
265	865	10	10000	4	1	0	4	0
264	866	10	10000	4	1	0	4	0
261	867	10	10000	4	1	0	4	0
254	868	10	10000	4	1	0	4	0
245	869	10	10000	4	1	0	4	0
234	870	10	10000	4	1	0	4	0
226	871	10	10000	4	1	0	4	0
222	871	10	10000	4	1	0	4	0
215	872	10	10000	4	1	0	4	0
206	874	10	10000	4	1	0	4	0
199	875	10	10000	4	1	0	4	0
194	876	10	10000	4	1	0	4	0
187	877	10	10000	4	1	0	4	0
184	878	10	10000	4	1	0	4	0
181	879	10	10000	4	1	0	4	0
178	880	10	10000	4	1	0	4	0
174	881	10	10000	4	1	0	4	0
171	881	10	10000	4	1	0	4	0
167	882	10	10000	4	1	0	4	0
163	884	10	10000	4	1	0	4	0
158	885	10	10000	4	1	0	4	0
155	886	10	10000	4	1	0	4	0
155	887	10	10000	4	1	0	4	0
154	888	10	10000	4	1	0	4	0
156	889	10	10000	4	1	0	4	0
160	890	10	10000	4	1	0	4	0
163	891	10	10000	4	1	0	4	0
170	891	10	10000	4	1	0	4	0
180	892	10	10000	4	1	0	4	0
190	894	10	10000	4	1	0	4	0
205	895	10	10000	4	1	0	4	0
223	896	10	10000	4	1	0	4	0
239	897	10	10000	4	1	0	4	0
257	898	10	10000	4	1	0	4	0
271	899	10	10000	4	1	0	4	0
283	900	10	10000	4	1	0	4	0
290	901	10	10000	4	1	0	4	0
299	901	10	10000	4	1	0	4	0
305	902	10	10000	4	1	0	4	0
311	904	10	10000	4	1	0	4	0
315	905	10	10000	4	1	0	4	0
319	906	10	10000	4	1	0	4	0
325	907	10	10000	4	1	0	4	0
329	908	10	10000	4	1	0	4	0
331	909	10	10000	4	1	0	4	0
332	910	10	10000	4	1	0	4	0
334	911	10	10000	4	1	0	4	0
335	911	10	10000	4	1	0	4	0
335	912	10	10000	4	1	0	4	0
336	914	10	10000	4	1	0	4	0
337	915	10	10000	4	1	0	4	0
337	916	10	10000	4	1	0	4	0
335	917	10	10000	4	1	0	4	0
335	918	10	10000	4	1	0	4	0
333	919	10	10000	4	1	0	4	0
331	920	10	10000	4	1	0	4	0
326	921	10	10000	4	1	0	4	0
320	921	10	10000	4	1	0	4	0
311	922	10	10000	4	1	0	4	0
300	924	10	10000	4	1	0	4	0
291	925	10	10000	4	1	0	4	0
281	926	10	10000	4	1	0	4	0
273	927	10	10000	4	1	0	4	0
260	928	10	10000	4	1	0	4	0
248	929	10	10000	4	1	0	4	0
237	930	10	10000	4	1	0	4	0
228	931	10	10000	4	1	0	4	0
220	931	10	10000	4	1	0	4	0
211	932	10	10000	4	1	0	4	0
201	934	10	10000	4	1	0	4	0
194	935	10	10000	4	1	0	4	0
186	936	10	10000	4	1	0	4	0
176	937	10	10000	4	1	0	4	0
168	938	10	10000	4	1	0	4	0
161	939	10	10000	4	1	0	4	0
155	940	10	10000	4	1	0	4	0
150	941	10	10000	4	1	0	4	0
146	941	10	10000	4	1	0	4	0
144	942	10	10000	4	1	0	4	0
141	944	10	10000	4	1	0	4	0
140	945	10	10000	4	1	0	4	0
142	946	10	10000	4	1	0	4	0
147	947	10	10000	4	1	0	4	0
150	948	10	10000	4	1	0	4	0
152	949	10	10000	4	1	0	4	0
155	950	10	10000	4	1	0	4	0
156	951	10	10000	4	1	0	4	0
158	951	10	10000	4	1	0	4	0
162	952	10	10000	4	1	0	4	0
165	954	10	10000	4	1	0	4	0
168	955	10	10000	4	1	0	4	0
168	956	10	10000	4	1	0	4	0
165	957	10	10000	4	1	0	4	0
163	958	10	10000	4	1	0	4	0
161	959	10	10000	4	1	0	4	0
160	960	10	10000	4	1	0	4	0
160	961	10	10000	4	1	0	4	0
159	961	10	10000	4	1	0	4	0
157	962	10	10000	4	1	0	4	0
155	964	10	10000	4	1	0	4	0
156	965	10	10000	4	1	0	4	0
157	966	10	10000	4	1	0	4	0
158	967	10	10000	4	1	0	4	0
158	968	10	10000	4	1	0	4	0
159	969	10	10000	4	1	0	4	0
162	970	10	10000	4	1	0	4	0
165	971	10	10000	4	1	0	4	0
169	971	10	10000	4	1	0	4	0
169	972	10	10000	4	1	0	4	0
167	974	10	10000	4	1	0	4	0
162	975	10	10000	4	1	0	4	0
158	976	10	10000	4	1	0	4	0
150	977	10	10000	4	1	0	4	0
144	978	10	10000	4	1	0	4	0
141	979	10	10000	4	1	0	4	0
140	980	10	10000	4	1	0	4	0
140	981	10	10000	4	1	0	4	0
139	981	10	10000	4	1	0	4	0
137	982	10	10000	4	1	0	4	0
136	984	10	10000	4	1	0	4	0
136	985	10	10000	4	1	0	4	0
133	986	10	10000	4	1	0	4	0
133	987	10	10000	4	1	0	4	0
132	988	10	10000	4	1	0	4	0
129	989	10	10000	4	1	0	4	0
129	990	10	10000	4	1	0	4	0
129	991	10	10000	4	1	0	4	0
130	991	10	10000	4	1	0	4	0
130	992	10	10000	4	1	0	4	0
129	994	10	10000	4	1	0	4	0
124	995	10	10000	4	1	0	4	0
119	996	10	10000	4	1	0	4	0
113	997	10	10000	4	1	0	4	0
110	998	10	10000	4	1	0	4	0
107	999	10	10000	4	1	0	4	0
104	1000	10	10000	4	1	0	4	0
101	1001	10	10000	4	1	0	4	0
25	2	10	10000	5	1	0	5	0
25	3	10	10000	5	1	0	5	0
24	4	10	10000	5	1	0	5	0
23	5	10	10000	5	1	0	5	0
22	6	10	10000	5	1	0	5	0
23	7	10	10000	5	1	0	5	0
23	8	10	10000	5	1	0	5	0
20	9	10	10000	5	1	0	5	0
20	10	10	10000	5	1	0	5	0
21	11	10	10000	5	1	0	5	0
23	12	10	10000	5	1	0	5	0
23	13	10	10000	5	1	0	5	0
23	14	10	10000	5	1	0	5	0
23	15	10	10000	5	1	0	5	0
22	16	10	10000	5	1	0	5	0
20	17	10	10000	5	1	0	5	0
20	18	10	10000	5	1	0	5	0
22	19	10	10000	5	1	0	5	0
22	20	10	10000	5	1	0	5	0
23	21	10	10000	5	1	0	5	0
23	22	10	10000	5	1	0	5	0
23	23	10	10000	5	1	0	5	0
22	24	10	10000	5	1	0	5	0
22	25	10	10000	5	1	0	5	0
22	26	10	10000	5	1	0	5	0
22	27	10	10000	5	1	0	5	0
21	28	10	10000	5	1	0	5	0
18	29	10	10000	5	1	0	5	0
18	30	10	10000	5	1	0	5	0
18	31	10	10000	5	1	0	5	0
20	32	10	10000	5	1	0	5	0
21	33	10	10000	5	1	0	5	0
23	34	10	10000	5	1	0	5	0
23	35	10	10000	5	1	0	5	0
22	36	10	10000	5	1	0	5	0
21	37	10	10000	5	1	0	5	0
22	38	10	10000	5	1	0	5	0
23	39	10	10000	5	1	0	5	0
23	40	10	10000	5	1	0	5	0
25	41	10	10000	5	1	0	5	0
25	42	10	10000	5	1	0	5	0
24	43	10	10000	5	1	0	5	0
23	44	10	10000	5	1	0	5	0
23	45	10	10000	5	1	0	5	0
22	46	10	10000	5	1	0	5	0
22	47	10	10000	5	1	0	5	0
21	48	10	10000	5	1	0	5	0
20	49	10	10000	5	1	0	5	0
21	50	10	10000	5	1	0	5	0
21	51	10	10000	5	1	0	5	0
24	52	10	10000	5	1	0	5	0
26	53	10	10000	5	1	0	5	0
27	54	10	10000	5	1	0	5	0
27	55	10	10000	5	1	0	5	0
26	56	10	10000	5	1	0	5	0
25	57	10	10000	5	1	0	5	0
25	58	10	10000	5	1	0	5	0
26	59	10	10000	5	1	0	5	0
25	60	10	10000	5	1	0	5	0
24	61	10	10000	5	1	0	5	0
22	62	10	10000	5	1	0	5	0
22	63	10	10000	5	1	0	5	0
22	64	10	10000	5	1	0	5	0
21	65	10	10000	5	1	0	5	0
21	66	10	10000	5	1	0	5	0
22	67	10	10000	5	1	0	5	0
22	68	10	10000	5	1	0	5	0
21	69	10	10000	5	1	0	5	0
21	70	10	10000	5	1	0	5	0
21	71	10	10000	5	1	0	5	0
21	72	10	10000	5	1	0	5	0
22	73	10	10000	5	1	0	5	0
23	74	10	10000	5	1	0	5	0
23	75	10	10000	5	1	0	5	0
22	76	10	10000	5	1	0	5	0
21	77	10	10000	5	1	0	5	0
21	78	10	10000	5	1	0	5	0
22	79	10	10000	5	1	0	5	0
22	80	10	10000	5	1	0	5	0
21	81	10	10000	5	1	0	5	0
20	82	10	10000	5	1	0	5	0
20	83	10	10000	5	1	0	5	0
19	84	10	10000	5	1	0	5	0
19	85	10	10000	5	1	0	5	0
18	86	10	10000	5	1	0	5	0
18	87	10	10000	5	1	0	5	0
17	88	10	10000	5	1	0	5	0
16	89	10	10000	5	1	0	5	0
15	90	10	10000	5	1	0	5	0
15	91	10	10000	5	1	0	5	0
16	92	10	10000	5	1	0	5	0
18	93	10	10000	5	1	0	5	0
17	94	10	10000	5	1	0	5	0
16	95	10	10000	5	1	0	5	0
16	96	10	10000	5	1	0	5	0
16	97	10	10000	5	1	0	5	0
17	98	10	10000	5	1	0	5	0
20	99	10	10000	5	1	0	5	0
21	100	10	10000	5	1	0	5	0
20	101	10	10000	5	1	0	5	0
20	102	10	10000	5	1	0	5	0
20	103	10	10000	5	1	0	5	0
20	104	10	10000	5	1	0	5	0
19	105	10	10000	5	1	0	5	0
18	106	10	10000	5	1	0	5	0
19	107	10	10000	5	1	0	5	0
18	108	10	10000	5	1	0	5	0
16	109	10	10000	5	1	0	5	0
17	110	10	10000	5	1	0	5	0
20	111	10	10000	5	1	0	5	0
21	112	10	10000	5	1	0	5	0
21	113	10	10000	5	1	0	5	0
20	114	10	10000	5	1	0	5	0
20	115	10	10000	5	1	0	5	0
19	116	10	10000	5	1	0	5	0
19	117	10	10000	5	1	0	5	0
20	118	10	10000	5	1	0	5	0
21	119	10	10000	5	1	0	5	0
21	120	10	10000	5	1	0	5	0
20	121	10	10000	5	1	0	5	0
19	122	10	10000	5	1	0	5	0
19	123	10	10000	5	1	0	5	0
19	124	10	10000	5	1	0	5	0
18	125	10	10000	5	1	0	5	0
19	126	10	10000	5	1	0	5	0
20	127	10	10000	5	1	0	5	0
20	128	10	10000	5	1	0	5	0
19	129	10	10000	5	1	0	5	0
19	130	10	10000	5	1	0	5	0
20	131	10	10000	5	1	0	5	0
22	132	10	10000	5	1	0	5	0
23	133	10	10000	5	1	0	5	0
24	134	10	10000	5	1	0	5	0
25	135	10	10000	5	1	0	5	0
25	136	10	10000	5	1	0	5	0
25	137	10	10000	5	1	0	5	0
25	138	10	10000	5	1	0	5	0
26	139	10	10000	5	1	0	5	0
27	140	10	10000	5	1	0	5	0
26	141	10	10000	5	1	0	5	0
26	142	10	10000	5	1	0	5	0
25	143	10	10000	5	1	0	5	0
25	144	10	10000	5	1	0	5	0
24	145	10	10000	5	1	0	5	0
23	146	10	10000	5	1	0	5	0
24	147	10	10000	5	1	0	5	0
24	148	10	10000	5	1	0	5	0
22	149	10	10000	5	1	0	5	0
22	150	10	10000	5	1	0	5	0
22	151	10	10000	5	1	0	5	0
21	152	10	10000	5	1	0	5	0
21	153	10	10000	5	1	0	5	0
20	154	10	10000	5	1	0	5	0
20	155	10	10000	5	1	0	5	0
21	156	10	10000	5	1	0	5	0
20	157	10	10000	5	1	0	5	0
20	158	10	10000	5	1	0	5	0
23	159	10	10000	5	1	0	5	0
24	160	10	10000	5	1	0	5	0
25	161	10	10000	5	1	0	5	0
25	162	10	10000	5	1	0	5	0
24	163	10	10000	5	1	0	5	0
24	164	10	10000	5	1	0	5	0
24	165	10	10000	5	1	0	5	0
25	166	10	10000	5	1	0	5	0
25	167	10	10000	5	1	0	5	0
25	168	10	10000	5	1	0	5	0
24	169	10	10000	5	1	0	5	0
25	170	10	10000	5	1	0	5	0
26	171	10	10000	5	1	0	5	0
28	172	10	10000	5	1	0	5	0
28	173	10	10000	5	1	0	5	0
27	174	10	10000	5	1	0	5	0
26	175	10	10000	5	1	0	5	0
26	176	10	10000	5	1	0	5	0
26	177	10	10000	5	1	0	5	0
26	178	10	10000	5	1	0	5	0
26	179	10	10000	5	1	0	5	0
25	180	10	10000	5	1	0	5	0
25	181	10	10000	5	1	0	5	0
24	182	10	10000	5	1	0	5	0
24	183	10	10000	5	1	0	5	0
24	184	10	10000	5	1	0	5	0
23	185	10	10000	5	1	0	5	0
23	186	10	10000	5	1	0	5	0
22	187	10	10000	5	1	0	5	0
22	188	10	10000	5	1	0	5	0
20	189	10	10000	5	1	0	5	0
21	190	10	10000	5	1	0	5	0
22	191	10	10000	5	1	0	5	0
23	192	10	10000	5	1	0	5	0
24	193	10	10000	5	1	0	5	0
24	194	10	10000	5	1	0	5	0
24	195	10	10000	5	1	0	5	0
22	196	10	10000	5	1	0	5	0
20	197	10	10000	5	1	0	5	0
21	198	10	10000	5	1	0	5	0
23	199	10	10000	5	1	0	5	0
21	200	10	10000	5	1	0	5	0
21	201	10	10000	5	1	0	5	0
22	202	10	10000	5	1	0	5	0
22	203	10	10000	5	1	0	5	0
22	204	10	10000	5	1	0	5	0
22	205	10	10000	5	1	0	5	0
22	206	10	10000	5	1	0	5	0
22	207	10	10000	5	1	0	5	0
21	208	10	10000	5	1	0	5	0
19	209	10	10000	5	1	0	5	0
20	210	10	10000	5	1	0	5	0
19	211	10	10000	5	1	0	5	0
19	212	10	10000	5	1	0	5	0
19	213	10	10000	5	1	0	5	0
19	214	10	10000	5	1	0	5	0
18	215	10	10000	5	1	0	5	0
18	216	10	10000	5	1	0	5	0
17	217	10	10000	5	1	0	5	0
19	218	10	10000	5	1	0	5	0
21	219	10	10000	5	1	0	5	0
20	220	10	10000	5	1	0	5	0
19	221	10	10000	5	1	0	5	0
19	222	10	10000	5	1	0	5	0
20	223	10	10000	5	1	0	5	0
20	224	10	10000	5	1	0	5	0
19	225	10	10000	5	1	0	5	0
19	226	10	10000	5	1	0	5	0
18	227	10	10000	5	1	0	5	0
18	228	10	10000	5	1	0	5	0
16	229	10	10000	5	1	0	5	0
17	230	10	10000	5	1	0	5	0
17	231	10	10000	5	1	0	5	0
18	232	10	10000	5	1	0	5	0
17	233	10	10000	5	1	0	5	0
17	234	10	10000	5	1	0	5	0
19	235	10	10000	5	1	0	5	0
19	236	10	10000	5	1	0	5	0
18	237	10	10000	5	1	0	5	0
17	238	10	10000	5	1	0	5	0
18	239	10	10000	5	1	0	5	0
17	240	10	10000	5	1	0	5	0
17	241	10	10000	5	1	0	5	0
16	242	10	10000	5	1	0	5	0
17	243	10	10000	5	1	0	5	0
18	244	10	10000	5	1	0	5	0
18	245	10	10000	5	1	0	5	0
19	246	10	10000	5	1	0	5	0
19	247	10	10000	5	1	0	5	0
19	248	10	10000	5	1	0	5	0
18	249	10	10000	5	1	0	5	0
19	250	10	10000	5	1	0	5	0
19	251	10	10000	5	1	0	5	0
19	252	10	10000	5	1	0	5	0
19	253	10	10000	5	1	0	5	0
19	254	10	10000	5	1	0	5	0
18	255	10	10000	5	1	0	5	0
17	256	10	10000	5	1	0	5	0
18	257	10	10000	5	1	0	5	0
17	258	10	10000	5	1	0	5	0
20	259	10	10000	5	1	0	5	0
19	260	10	10000	5	1	0	5	0
19	261	10	10000	5	1	0	5	0
18	262	10	10000	5	1	0	5	0
17	263	10	10000	5	1	0	5	0
20	264	10	10000	5	1	0	5	0
21	265	10	10000	5	1	0	5	0
20	266	10	10000	5	1	0	5	0
20	267	10	10000	5	1	0	5	0
19	268	10	10000	5	1	0	5	0
17	269	10	10000	5	1	0	5	0
17	270	10	10000	5	1	0	5	0
18	271	10	10000	5	1	0	5	0
20	272	10	10000	5	1	0	5	0
20	273	10	10000	5	1	0	5	0
20	274	10	10000	5	1	0	5	0
20	275	10	10000	5	1	0	5	0
18	276	10	10000	5	1	0	5	0
17	277	10	10000	5	1	0	5	0
18	278	10	10000	5	1	0	5	0
20	279	10	10000	5	1	0	5	0
18	280	10	10000	5	1	0	5	0
20	281	10	10000	5	1	0	5	0
19	282	10	10000	5	1	0	5	0
20	283	10	10000	5	1	0	5	0
20	284	10	10000	5	1	0	5	0
19	285	10	10000	5	1	0	5	0
20	286	10	10000	5	1	0	5	0
20	287	10	10000	5	1	0	5	0
20	288	10	10000	5	1	0	5	0
19	289	10	10000	5	1	0	5	0
18	290	10	10000	5	1	0	5	0
18	291	10	10000	5	1	0	5	0
19	292	10	10000	5	1	0	5	0
19	293	10	10000	5	1	0	5	0
19	294	10	10000	5	1	0	5	0
18	295	10	10000	5	1	0	5	0
18	296	10	10000	5	1	0	5	0
18	297	10	10000	5	1	0	5	0
17	298	10	10000	5	1	0	5	0
18	299	10	10000	5	1	0	5	0
18	300	10	10000	5	1	0	5	0
17	301	10	10000	5	1	0	5	0
17	302	10	10000	5	1	0	5	0
16	303	10	10000	5	1	0	5	0
15	304	10	10000	5	1	0	5	0
15	305	10	10000	5	1	0	5	0
16	306	10	10000	5	1	0	5	0
16	307	10	10000	5	1	0	5	0
17	308	10	10000	5	1	0	5	0
18	309	10	10000	5	1	0	5	0
18	310	10	10000	5	1	0	5	0
17	311	10	10000	5	1	0	5	0
17	312	10	10000	5	1	0	5	0
18	313	10	10000	5	1	0	5	0
18	314	10	10000	5	1	0	5	0
17	315	10	10000	5	1	0	5	0
17	316	10	10000	5	1	0	5	0
16	317	10	10000	5	1	0	5	0
17	318	10	10000	5	1	0	5	0
18	319	10	10000	5	1	0	5	0
18	320	10	10000	5	1	0	5	0
17	321	10	10000	5	1	0	5	0
17	322	10	10000	5	1	0	5	0
18	323	10	10000	5	1	0	5	0
17	324	10	10000	5	1	0	5	0
18	325	10	10000	5	1	0	5	0
18	326	10	10000	5	1	0	5	0
20	327	10	10000	5	1	0	5	0
18	328	10	10000	5	1	0	5	0
16	329	10	10000	5	1	0	5	0
17	330	10	10000	5	1	0	5	0
18	331	10	10000	5	1	0	5	0
20	332	10	10000	5	1	0	5	0
20	333	10	10000	5	1	0	5	0
19	334	10	10000	5	1	0	5	0
19	335	10	10000	5	1	0	5	0
19	336	10	10000	5	1	0	5	0
19	337	10	10000	5	1	0	5	0
18	338	10	10000	5	1	0	5	0
19	339	10	10000	5	1	0	5	0
19	340	10	10000	5	1	0	5	0
20	341	10	10000	5	1	0	5	0
20	342	10	10000	5	1	0	5	0
20	343	10	10000	5	1	0	5	0
20	344	10	10000	5	1	0	5	0
21	345	10	10000	5	1	0	5	0
20	346	10	10000	5	1	0	5	0
21	347	10	10000	5	1	0	5	0
21	348	10	10000	5	1	0	5	0
19	349	10	10000	5	1	0	5	0
19	350	10	10000	5	1	0	5	0
20	351	10	10000	5	1	0	5	0
22	352	10	10000	5	1	0	5	0
23	353	10	10000	5	1	0	5	0
23	354	10	10000	5	1	0	5	0
23	355	10	10000	5	1	0	5	0
21	356	10	10000	5	1	0	5	0
21	357	10	10000	5	1	0	5	0
22	358	10	10000	5	1	0	5	0
24	359	10	10000	5	1	0	5	0
25	360	10	10000	5	1	0	5	0
25	361	10	10000	5	1	0	5	0
24	362	10	10000	5	1	0	5	0
24	363	10	10000	5	1	0	5	0
23	364	10	10000	5	1	0	5	0
22	365	10	10000	5	1	0	5	0
22	366	10	10000	5	1	0	5	0
23	367	10	10000	5	1	0	5	0
22	368	10	10000	5	1	0	5	0
20	369	10	10000	5	1	0	5	0
21	370	10	10000	5	1	0	5	0
20	371	10	10000	5	1	0	5	0
20	372	10	10000	5	1	0	5	0
20	373	10	10000	5	1	0	5	0
20	374	10	10000	5	1	0	5	0
21	375	10	10000	5	1	0	5	0
21	376	10	10000	5	1	0	5	0
21	377	10	10000	5	1	0	5	0
23	378	10	10000	5	1	0	5	0
25	379	10	10000	5	1	0	5	0
25	380	10	10000	5	1	0	5	0
25	381	10	10000	5	1	0	5	0
24	382	10	10000	5	1	0	5	0
23	383	10	10000	5	1	0	5	0
23	384	10	10000	5	1	0	5	0
23	385	10	10000	5	1	0	5	0
23	386	10	10000	5	1	0	5	0
23	387	10	10000	5	1	0	5	0
22	388	10	10000	5	1	0	5	0
20	389	10	10000	5	1	0	5	0
20	390	10	10000	5	1	0	5	0
20	391	10	10000	5	1	0	5	0
22	392	10	10000	5	1	0	5	0
20	393	10	10000	5	1	0	5	0
20	394	10	10000	5	1	0	5	0
20	395	10	10000	5	1	0	5	0
19	396	10	10000	5	1	0	5	0
18	397	10	10000	5	1	0	5	0
20	398	10	10000	5	1	0	5	0
21	399	10	10000	5	1	0	5	0
23	400	10	10000	5	1	0	5	0
25	401	10	10000	5	1	0	5	0
23	402	10	10000	5	1	0	5	0
23	403	10	10000	5	1	0	5	0
23	404	10	10000	5	1	0	5	0
24	405	10	10000	5	1	0	5	0
25	406	10	10000	5	1	0	5	0
26	407	10	10000	5	1	0	5	0
25	408	10	10000	5	1	0	5	0
25	409	10	10000	5	1	0	5	0
25	410	10	10000	5	1	0	5	0
25	411	10	10000	5	1	0	5	0
27	412	10	10000	5	1	0	5	0
28	413	10	10000	5	1	0	5	0
29	414	10	10000	5	1	0	5	0
28	415	10	10000	5	1	0	5	0
28	416	10	10000	5	1	0	5	0
27	417	10	10000	5	1	0	5	0
27	418	10	10000	5	1	0	5	0
28	419	10	10000	5	1	0	5	0
27	420	10	10000	5	1	0	5	0
27	421	10	10000	5	1	0	5	0
26	422	10	10000	5	1	0	5	0
27	423	10	10000	5	1	0	5	0
26	424	10	10000	5	1	0	5	0
26	425	10	10000	5	1	0	5	0
26	426	10	10000	5	1	0	5	0
27	427	10	10000	5	1	0	5	0
25	428	10	10000	5	1	0	5	0
24	429	10	10000	5	1	0	5	0
24	430	10	10000	5	1	0	5	0
24	431	10	10000	5	1	0	5	0
26	432	10	10000	5	1	0	5	0
28	433	10	10000	5	1	0	5	0
28	434	10	10000	5	1	0	5	0
27	435	10	10000	5	1	0	5	0
26	436	10	10000	5	1	0	5	0
24	437	10	10000	5	1	0	5	0
24	438	10	10000	5	1	0	5	0
25	439	10	10000	5	1	0	5	0
24	440	10	10000	5	1	0	5	0
23	441	10	10000	5	1	0	5	0
22	442	10	10000	5	1	0	5	0
22	443	10	10000	5	1	0	5	0
20	444	10	10000	5	1	0	5	0
20	445	10	10000	5	1	0	5	0
20	446	10	10000	5	1	0	5	0
21	447	10	10000	5	1	0	5	0
20	448	10	10000	5	1	0	5	0
20	449	10	10000	5	1	0	5	0
20	450	10	10000	5	1	0	5	0
20	451	10	10000	5	1	0	5	0
20	452	10	10000	5	1	0	5	0
20	453	10	10000	5	1	0	5	0
20	454	10	10000	5	1	0	5	0
20	455	10	10000	5	1	0	5	0
19	456	10	10000	5	1	0	5	0
20	457	10	10000	5	1	0	5	0
22	458	10	10000	5	1	0	5	0
25	459	10	10000	5	1	0	5	0
25	460	10	10000	5	1	0	5	0
25	461	10	10000	5	1	0	5	0
25	462	10	10000	5	1	0	5	0
27	463	10	10000	5	1	0	5	0
29	464	10	10000	5	1	0	5	0
31	465	10	10000	5	1	0	5	0
30	466	10	10000	5	1	0	5	0
30	467	10	10000	5	1	0	5	0
29	468	10	10000	5	1	0	5	0
28	469	10	10000	5	1	0	5	0
28	470	10	10000	5	1	0	5	0
27	471	10	10000	5	1	0	5	0
27	472	10	10000	5	1	0	5	0
27	473	10	10000	5	1	0	5	0
26	474	10	10000	5	1	0	5	0
25	475	10	10000	5	1	0	5	0
25	476	10	10000	5	1	0	5	0
24	477	10	10000	5	1	0	5	0
24	478	10	10000	5	1	0	5	0
25	479	10	10000	5	1	0	5	0
25	480	10	10000	5	1	0	5	0
25	481	10	10000	5	1	0	5	0
24	482	10	10000	5	1	0	5	0
24	483	10	10000	5	1	0	5	0
23	484	10	10000	5	1	0	5	0
23	485	10	10000	5	1	0	5	0
24	486	10	10000	5	1	0	5	0
25	487	10	10000	5	1	0	5	0
23	488	10	10000	5	1	0	5	0
20	489	10	10000	5	1	0	5	0
20	490	10	10000	5	1	0	5	0
22	491	10	10000	5	1	0	5	0
24	492	10	10000	5	1	0	5	0
25	493	10	10000	5	1	0	5	0
27	494	10	10000	5	1	0	5	0
26	495	10	10000	5	1	0	5	0
24	496	10	10000	5	1	0	5	0
23	497	10	10000	5	1	0	5	0
24	498	10	10000	5	1	0	5	0
23	499	10	10000	5	1	0	5	0
22	500	10	10000	5	1	0	5	0
22	501	10	10000	5	1	0	5	0
23	502	10	10000	5	1	0	5	1
22	503	10	10000	5	1	0	5	1
21	504	10	10000	5	1	0	5	1
21	505	10	10000	5	1	0	5	1
22	506	10	10000	5	1	0	5	1
24	507	10	10000	5	1	0	5	1
24	508	10	10000	5	1	0	5	1
22	509	10	10000	5	1	0	5	1
22	510	10	10000	5	1	0	5	1
24	511	10	10000	5	1	0	5	1
25	512	10	10000	5	1	0	5	1
26	513	10	10000	5	1	0	5	1
25	514	10	10000	5	1	0	5	1
24	515	10	10000	5	1	0	5	1
23	516	10	10000	5	1	0	5	1
21	517	10	10000	5	1	0	5	1
21	518	10	10000	5	1	0	5	1
22	519	10	10000	5	1	0	5	1
21	520	10	10000	5	1	0	5	1
20	521	10	10000	5	1	0	5	1
21	522	10	10000	5	1	0	5	1
20	523	10	10000	5	1	0	5	1
20	524	10	10000	5	1	0	5	1
20	525	10	10000	5	1	0	5	1
20	526	10	10000	5	1	0	5	1
21	527	10	10000	5	1	0	5	1
20	528	10	10000	5	1	0	5	1
20	529	10	10000	5	1	0	5	1
20	530	10	10000	5	1	0	5	1
20	531	10	10000	5	1	0	5	1
20	532	10	10000	5	1	0	5	1
21	533	10	10000	5	1	0	5	1
21	534	10	10000	5	1	0	5	1
21	535	10	10000	5	1	0	5	1
21	536	10	10000	5	1	0	5	1
20	537	10	10000	5	1	0	5	1
22	538	10	10000	5	1	0	5	1
24	539	10	10000	5	1	0	5	1
26	540	10	10000	5	1	0	5	1
27	541	10	10000	5	1	0	5	1
27	542	10	10000	5	1	0	5	1
28	543	10	10000	5	1	0	5	1
27	544	10	10000	5	1	0	5	1
25	545	10	10000	5	1	0	5	1
26	546	10	10000	5	1	0	5	1
26	547	10	10000	5	1	0	5	1
24	548	10	10000	5	1	0	5	1
23	549	10	10000	5	1	0	5	1
23	550	10	10000	5	1	0	5	1
24	551	10	10000	5	1	0	5	1
26	552	10	10000	5	1	0	5	0
27	553	10	10000	5	1	0	5	0
27	554	10	10000	5	1	0	5	0
26	555	10	10000	5	1	0	5	0
27	556	10	10000	5	1	0	5	0
29	557	10	10000	5	1	0	5	0
30	558	10	10000	5	1	0	5	0
30	559	10	10000	5	1	0	5	0
29	560	10	10000	5	1	0	5	0
28	561	10	10000	5	1	0	5	0
28	562	10	10000	5	1	0	5	0
27	563	10	10000	5	1	0	5	0
26	564	10	10000	5	1	0	5	0
25	565	10	10000	5	1	0	5	0
25	566	10	10000	5	1	0	5	0
25	567	10	10000	5	1	0	5	0
24	568	10	10000	5	1	0	5	0
24	569	10	10000	5	1	0	5	0
25	570	10	10000	5	1	0	5	0
25	571	10	10000	5	1	0	5	0
24	572	10	10000	5	1	0	5	0
26	573	10	10000	5	1	0	5	0
27	574	10	10000	5	1	0	5	0
26	575	10	10000	5	1	0	5	0
25	576	10	10000	5	1	0	5	0
23	577	10	10000	5	1	0	5	0
25	578	10	10000	5	1	0	5	0
24	579	10	10000	5	1	0	5	0
23	580	10	10000	5	1	0	5	0
23	581	10	10000	5	1	0	5	0
23	582	10	10000	5	1	0	5	0
22	583	10	10000	5	1	0	5	0
23	584	10	10000	5	1	0	5	0
22	585	10	10000	5	1	0	5	0
22	586	10	10000	5	1	0	5	0
26	587	10	10000	5	1	0	5	0
28	588	10	10000	5	1	0	5	0
27	589	10	10000	5	1	0	5	0
27	590	10	10000	5	1	0	5	0
34	591	10	10000	5	1	0	5	0
44	592	10	10000	5	1	0	5	0
49	593	10	10000	5	1	0	5	0
61	594	10	10000	5	1	0	5	0
80	595	10	10000	5	1	0	5	0
88	596	10	10000	5	1	0	5	0
91	597	10	10000	5	1	0	5	0
97	598	10	10000	5	1	0	5	0
177	599	10	10000	5	1	0	5	0
283	600	10	10000	5	1	0	5	0
303	601	10	10000	5	1	0	5	0
345	602	10	10000	5	1	0	5	0
372	603	10	10000	5	1	0	5	0
391	604	10	10000	5	1	0	5	0
425	605	10	10000	5	1	0	5	0
427	606	10	10000	5	1	0	5	0
462	607	10	10000	5	1	0	5	0
472	608	10	10000	5	1	0	5	0
509	609	10	10000	5	1	0	5	0
517	610	10	10000	5	1	0	5	0
519	611	10	10000	5	1	0	5	0
540	612	10	10000	5	1	0	5	0
536	613	10	10000	5	1	0	5	0
535	614	10	10000	5	1	0	5	0
517	615	10	10000	5	1	0	5	0
568	616	10	10000	5	1	0	5	0
669	617	10	10000	5	1	0	5	0
732	618	10	10000	5	1	0	5	0
764	619	10	10000	5	1	0	5	0
802	620	10	10000	5	1	0	5	0
851	621	10	10000	5	1	0	5	0
862	622	10	10000	5	1	0	5	0
878	623	10	10000	5	1	0	5	0
860	624	10	10000	5	1	0	5	0
848	625	10	10000	5	1	0	5	0
895	626	10	10000	5	1	0	5	0
945	627	10	10000	5	1	0	5	0
985	628	10	10000	5	1	0	5	0
988	629	10	10000	5	1	0	5	0
951	630	10	10000	5	1	0	5	0
934	631	10	10000	5	1	0	5	0
933	632	10	10000	5	1	0	5	0
942	633	10	10000	5	1	0	5	0
959	634	10	10000	5	1	0	5	0
978	635	10	10000	5	1	0	5	0
998	636	10	10000	5	1	0	5	0
1019	637	10	10000	5	1	0	5	0
1052	638	10	10000	5	1	0	5	0
1078	639	10	10000	5	1	0	5	0
1087	640	10	10000	5	1	0	5	0
1096	641	10	10000	5	1	0	5	0
1103	642	10	10000	5	1	0	5	0
1108	643	10	10000	5	1	0	5	0
1113	644	10	10000	5	1	0	5	0
1114	645	10	10000	5	1	0	5	0
1111	646	10	10000	5	1	0	5	0
1104	647	10	10000	5	1	0	5	0
1088	648	10	10000	5	1	0	5	0
1064	649	10	10000	5	1	0	5	0
1032	650	10	10000	5	1	0	5	0
992	651	10	10000	5	1	0	5	0
948	652	10	10000	5	1	0	5	0
916	653	10	10000	5	1	0	5	0
897	654	10	10000	5	1	0	5	0
888	655	10	10000	5	1	0	5	0
883	656	10	10000	5	1	0	5	0
886	657	10	10000	5	1	0	5	0
896	658	10	10000	5	1	0	5	0
911	659	10	10000	5	1	0	5	0
925	660	10	10000	5	1	0	5	0
942	661	10	10000	5	1	0	5	0
957	662	10	10000	5	1	0	5	0
971	663	10	10000	5	1	0	5	0
983	664	10	10000	5	1	0	5	0
994	665	10	10000	5	1	0	5	0
1006	666	10	10000	5	1	0	5	0
1017	667	10	10000	5	1	0	5	0
1026	668	10	10000	5	1	0	5	0
1035	669	10	10000	5	1	0	5	0
1044	670	10	10000	5	1	0	5	0
1053	671	10	10000	5	1	0	5	0
1062	672	10	10000	5	1	0	5	0
1075	673	10	10000	5	1	0	5	0
1088	674	10	10000	5	1	0	5	0
1100	675	10	10000	5	1	0	5	0
1111	676	10	10000	5	1	0	5	0
1119	677	10	10000	5	1	0	5	0
1125	687	10	10000	5	1	0	5	0
1129	688	10	10000	5	1	0	5	0
1129	689	10	10000	5	1	0	5	0
1124	690	10	10000	5	1	0	5	0
1114	691	10	10000	5	1	0	5	0
1097	692	10	10000	5	1	0	5	0
1076	693	10	10000	5	1	0	5	0
1049	694	10	10000	5	1	0	5	0
1024	695	10	10000	5	1	0	5	0
997	696	10	10000	5	1	0	5	0
969	695	10	10000	5	1	0	5	0
939	696	10	10000	5	1	0	5	0
910	697	10	10000	5	1	0	5	0
882	698	10	10000	5	1	0	5	0
854	699	10	10000	5	1	0	5	0
828	700	10	10000	5	1	0	5	0
805	701	10	10000	5	1	0	5	0
