value	EMG	Stimulus	EMG_sensitivity	Total_Trial_Nr	practise	acq	probe_nr	Startle_Probe
30	2	0	10000	1	1	0	1	0
29	3	0	10000	1	1	0	1	0
29	4	0	10000	1	1	0	1	0
28	5	0	10000	1	1	0	1	0
26	6	0	10000	1	1	0	1	0
27	7	0	10000	1	1	0	1	0
29	8	0	10000	1	1	0	1	0
27	9	0	10000	1	1	0	1	0
29	10	0	10000	1	1	0	1	0
30	11	0	10000	1	1	0	1	0
29	12	0	10000	1	1	0	1	0
29	13	0	10000	1	1	0	1	0
29	14	0	10000	1	1	0	1	0
30	15	0	10000	1	1	0	1	0
31	16	0	10000	1	1	0	1	0
30	17	0	10000	1	1	0	1	0
27	18	0	10000	1	1	0	1	0
28	19	0	10000	1	1	0	1	0
29	20	0	10000	1	1	0	1	0
30	21	0	10000	1	1	0	1	0
30	22	0	10000	1	1	0	1	0
30	23	0	10000	1	1	0	1	0
29	24	0	10000	1	1	0	1	0
27	25	0	10000	1	1	0	1	0
27	26	0	10000	1	1	0	1	0
27	27	0	10000	1	1	0	1	0
29	28	0	10000	1	1	0	1	0
28	29	0	10000	1	1	0	1	0
29	30	0	10000	1	1	0	1	0
29	31	0	10000	1	1	0	1	0
28	32	0	10000	1	1	0	1	0
31	33	0	10000	1	1	0	1	0
32	34	0	10000	1	1	0	1	0
30	35	0	10000	1	1	0	1	0
29	36	0	10000	1	1	0	1	0
29	37	0	10000	1	1	0	1	0
27	38	0	10000	1	1	0	1	0
27	39	0	10000	1	1	0	1	0
27	40	0	10000	1	1	0	1	0
28	41	0	10000	1	1	0	1	0
27	42	0	10000	1	1	0	1	0
29	43	0	10000	1	1	0	1	0
32	44	0	10000	1	1	0	1	0
30	45	0	10000	1	1	0	1	0
28	46	0	10000	1	1	0	1	0
28	47	0	10000	1	1	0	1	0
29	48	0	10000	1	1	0	1	0
29	49	0	10000	1	1	0	1	0
29	50	0	10000	1	1	0	1	0
29	51	0	10000	1	1	0	1	0
28	52	0	10000	1	1	0	1	0
27	53	0	10000	1	1	0	1	0
26	54	0	10000	1	1	0	1	0
27	55	0	10000	1	1	0	1	0
27	56	0	10000	1	1	0	1	0
28	57	0	10000	1	1	0	1	0
26	58	0	10000	1	1	0	1	0
26	59	0	10000	1	1	0	1	0
28	60	0	10000	1	1	0	1	0
29	61	0	10000	1	1	0	1	0
28	62	0	10000	1	1	0	1	0
28	63	0	10000	1	1	0	1	0
32	64	0	10000	1	1	0	1	0
31	65	0	10000	1	1	0	1	0
31	66	0	10000	1	1	0	1	0
30	67	0	10000	1	1	0	1	0
32	68	0	10000	1	1	0	1	0
34	69	0	10000	1	1	0	1	0
33	70	0	10000	1	1	0	1	0
34	71	0	10000	1	1	0	1	0
34	72	0	10000	1	1	0	1	0
33	73	0	10000	1	1	0	1	0
34	74	0	10000	1	1	0	1	0
35	75	0	10000	1	1	0	1	0
33	76	0	10000	1	1	0	1	0
33	77	0	10000	1	1	0	1	0
30	78	0	10000	1	1	0	1	0
31	79	0	10000	1	1	0	1	0
32	80	0	10000	1	1	0	1	0
32	81	0	10000	1	1	0	1	0
32	82	0	10000	1	1	0	1	0
32	83	0	10000	1	1	0	1	0
34	84	0	10000	1	1	0	1	0
34	85	0	10000	1	1	0	1	0
33	86	0	10000	1	1	0	1	0
34	87	0	10000	1	1	0	1	0
37	88	0	10000	1	1	0	1	0
35	89	0	10000	1	1	0	1	0
34	90	0	10000	1	1	0	1	0
34	91	0	10000	1	1	0	1	0
33	92	0	10000	1	1	0	1	0
32	93	0	10000	1	1	0	1	0
31	94	0	10000	1	1	0	1	0
32	95	0	10000	1	1	0	1	0
32	96	0	10000	1	1	0	1	0
32	97	0	10000	1	1	0	1	0
31	98	0	10000	1	1	0	1	0
31	99	0	10000	1	1	0	1	0
31	100	0	10000	1	1	0	1	0
31	101	0	10000	1	1	0	1	0
32	102	0	10000	1	1	0	1	0
32	103	0	10000	1	1	0	1	0
32	104	0	10000	1	1	0	1	0
32	105	0	10000	1	1	0	1	0
30	106	0	10000	1	1	0	1	0
30	107	0	10000	1	1	0	1	0
30	108	0	10000	1	1	0	1	0
29	109	0	10000	1	1	0	1	0
30	110	0	10000	1	1	0	1	0
28	111	0	10000	1	1	0	1	0
28	112	0	10000	1	1	0	1	0
27	113	0	10000	1	1	0	1	0
27	114	0	10000	1	1	0	1	0
30	115	0	10000	1	1	0	1	0
31	116	0	10000	1	1	0	1	0
29	117	0	10000	1	1	0	1	0
29	118	0	10000	1	1	0	1	0
30	119	0	10000	1	1	0	1	0
30	120	0	10000	1	1	0	1	0
29	121	0	10000	1	1	0	1	0
29	122	0	10000	1	1	0	1	0
28	123	0	10000	1	1	0	1	0
29	124	0	10000	1	1	0	1	0
30	125	0	10000	1	1	0	1	0
29	126	0	10000	1	1	0	1	0
29	127	0	10000	1	1	0	1	0
30	128	0	10000	1	1	0	1	0
29	129	0	10000	1	1	0	1	0
28	130	0	10000	1	1	0	1	0
28	131	0	10000	1	1	0	1	0
28	132	0	10000	1	1	0	1	0
27	133	0	10000	1	1	0	1	0
26	134	0	10000	1	1	0	1	0
28	135	0	10000	1	1	0	1	0
29	136	0	10000	1	1	0	1	0
28	137	0	10000	1	1	0	1	0
25	138	0	10000	1	1	0	1	0
25	139	0	10000	1	1	0	1	0
25	140	0	10000	1	1	0	1	0
25	141	0	10000	1	1	0	1	0
26	142	0	10000	1	1	0	1	0
25	143	0	10000	1	1	0	1	0
25	144	0	10000	1	1	0	1	0
24	145	0	10000	1	1	0	1	0
23	146	0	10000	1	1	0	1	0
23	147	0	10000	1	1	0	1	0
26	148	0	10000	1	1	0	1	0
25	149	0	10000	1	1	0	1	0
25	150	0	10000	1	1	0	1	0
24	151	0	10000	1	1	0	1	0
24	152	0	10000	1	1	0	1	0
24	153	0	10000	1	1	0	1	0
23	154	0	10000	1	1	0	1	0
25	155	0	10000	1	1	0	1	0
28	156	0	10000	1	1	0	1	0
27	157	0	10000	1	1	0	1	0
24	158	0	10000	1	1	0	1	0
24	159	0	10000	1	1	0	1	0
24	160	0	10000	1	1	0	1	0
26	161	0	10000	1	1	0	1	0
26	162	0	10000	1	1	0	1	0
28	163	0	10000	1	1	0	1	0
30	164	0	10000	1	1	0	1	0
29	165	0	10000	1	1	0	1	0
31	166	0	10000	1	1	0	1	0
30	167	0	10000	1	1	0	1	0
31	168	0	10000	1	1	0	1	0
31	169	0	10000	1	1	0	1	0
31	170	0	10000	1	1	0	1	0
31	171	0	10000	1	1	0	1	0
32	172	0	10000	1	1	0	1	0
31	173	0	10000	1	1	0	1	0
31	174	0	10000	1	1	0	1	0
30	175	0	10000	1	1	0	1	0
31	176	0	10000	1	1	0	1	0
31	177	0	10000	1	1	0	1	0
30	178	0	10000	1	1	0	1	0
29	179	0	10000	1	1	0	1	0
32	180	0	10000	1	1	0	1	0
35	181	0	10000	1	1	0	1	0
34	182	0	10000	1	1	0	1	0
36	183	0	10000	1	1	0	1	0
38	184	0	10000	1	1	0	1	0
38	185	0	10000	1	1	0	1	0
37	186	0	10000	1	1	0	1	0
35	187	0	10000	1	1	0	1	0
36	188	0	10000	1	1	0	1	0
35	189	0	10000	1	1	0	1	0
35	190	0	10000	1	1	0	1	0
34	191	0	10000	1	1	0	1	0
34	192	0	10000	1	1	0	1	0
33	193	0	10000	1	1	0	1	0
33	194	0	10000	1	1	0	1	0
35	195	0	10000	1	1	0	1	0
34	196	0	10000	1	1	0	1	0
34	197	0	10000	1	1	0	1	0
35	198	0	10000	1	1	0	1	0
34	199	0	10000	1	1	0	1	0
35	200	0	10000	1	1	0	1	0
38	201	0	10000	1	1	0	1	0
38	202	0	10000	1	1	0	1	0
38	203	0	10000	1	1	0	1	0
37	204	0	10000	1	1	0	1	0
35	205	0	10000	1	1	0	1	0
35	206	0	10000	1	1	0	1	0
34	207	0	10000	1	1	0	1	0
36	208	0	10000	1	1	0	1	0
35	209	0	10000	1	1	0	1	0
33	210	0	10000	1	1	0	1	0
33	211	0	10000	1	1	0	1	0
33	212	0	10000	1	1	0	1	0
33	213	0	10000	1	1	0	1	0
31	214	0	10000	1	1	0	1	0
31	215	0	10000	1	1	0	1	0
31	216	0	10000	1	1	0	1	0
32	217	0	10000	1	1	0	1	0
29	218	0	10000	1	1	0	1	0
29	219	0	10000	1	1	0	1	0
29	220	0	10000	1	1	0	1	0
30	221	0	10000	1	1	0	1	0
32	222	0	10000	1	1	0	1	0
32	223	0	10000	1	1	0	1	0
31	224	0	10000	1	1	0	1	0
30	225	0	10000	1	1	0	1	0
29	226	0	10000	1	1	0	1	0
30	227	0	10000	1	1	0	1	0
32	228	0	10000	1	1	0	1	0
33	229	0	10000	1	1	0	1	0
34	230	0	10000	1	1	0	1	0
33	231	0	10000	1	1	0	1	0
34	232	0	10000	1	1	0	1	0
34	233	0	10000	1	1	0	1	0
32	234	0	10000	1	1	0	1	0
32	235	0	10000	1	1	0	1	0
32	236	0	10000	1	1	0	1	0
32	237	0	10000	1	1	0	1	0
30	238	0	10000	1	1	0	1	0
29	239	0	10000	1	1	0	1	0
29	240	0	10000	1	1	0	1	0
29	241	0	10000	1	1	0	1	0
29	242	0	10000	1	1	0	1	0
29	243	0	10000	1	1	0	1	0
28	244	0	10000	1	1	0	1	0
27	245	0	10000	1	1	0	1	0
26	246	0	10000	1	1	0	1	0
26	247	0	10000	1	1	0	1	0
29	248	0	10000	1	1	0	1	0
30	249	0	10000	1	1	0	1	0
30	250	0	10000	1	1	0	1	0
31	251	0	10000	1	1	0	1	0
30	252	0	10000	1	1	0	1	0
29	253	0	10000	1	1	0	1	0
29	254	0	10000	1	1	0	1	0
28	255	0	10000	1	1	0	1	0
28	256	0	10000	1	1	0	1	0
28	257	0	10000	1	1	0	1	0
26	258	0	10000	1	1	0	1	0
26	259	0	10000	1	1	0	1	0
25	260	0	10000	1	1	0	1	0
25	261	0	10000	1	1	0	1	0
24	262	0	10000	1	1	0	1	0
25	263	0	10000	1	1	0	1	0
27	264	0	10000	1	1	0	1	0
28	265	0	10000	1	1	0	1	0
26	266	0	10000	1	1	0	1	0
28	267	0	10000	1	1	0	1	0
31	268	0	10000	1	1	0	1	0
29	269	0	10000	1	1	0	1	0
27	270	0	10000	1	1	0	1	0
26	271	0	10000	1	1	0	1	0
27	272	0	10000	1	1	0	1	0
27	273	0	10000	1	1	0	1	0
28	274	0	10000	1	1	0	1	0
28	275	0	10000	1	1	0	1	0
27	276	0	10000	1	1	0	1	0
28	277	0	10000	1	1	0	1	0
26	278	0	10000	1	1	0	1	0
26	279	0	10000	1	1	0	1	0
25	280	0	10000	1	1	0	1	0
25	281	0	10000	1	1	0	1	0
24	282	0	10000	1	1	0	1	0
25	283	0	10000	1	1	0	1	0
24	284	0	10000	1	1	0	1	0
24	285	0	10000	1	1	0	1	0
25	286	0	10000	1	1	0	1	0
26	287	0	10000	1	1	0	1	0
28	288	0	10000	1	1	0	1	0
31	289	0	10000	1	1	0	1	0
31	290	0	10000	1	1	0	1	0
28	291	0	10000	1	1	0	1	0
30	292	0	10000	1	1	0	1	0
31	293	0	10000	1	1	0	1	0
31	294	0	10000	1	1	0	1	0
33	295	0	10000	1	1	0	1	0
33	296	0	10000	1	1	0	1	0
32	297	0	10000	1	1	0	1	0
31	298	0	10000	1	1	0	1	0
31	299	0	10000	1	1	0	1	0
31	300	0	10000	1	1	0	1	0
30	301	0	10000	1	1	0	1	0
29	302	0	10000	1	1	0	1	0
30	303	0	10000	1	1	0	1	0
30	304	0	10000	1	1	0	1	0
31	305	0	10000	1	1	0	1	0
33	306	0	10000	1	1	0	1	0
32	307	0	10000	1	1	0	1	0
34	308	0	10000	1	1	0	1	0
34	309	0	10000	1	1	0	1	0
33	310	0	10000	1	1	0	1	0
34	311	0	10000	1	1	0	1	0
34	312	0	10000	1	1	0	1	0
34	313	0	10000	1	1	0	1	0
33	314	0	10000	1	1	0	1	0
32	315	0	10000	1	1	0	1	0
31	316	0	10000	1	1	0	1	0
30	317	0	10000	1	1	0	1	0
28	318	0	10000	1	1	0	1	0
28	319	0	10000	1	1	0	1	0
30	320	0	10000	1	1	0	1	0
30	321	0	10000	1	1	0	1	0
30	322	0	10000	1	1	0	1	0
31	323	0	10000	1	1	0	1	0
31	324	0	10000	1	1	0	1	0
29	325	0	10000	1	1	0	1	0
28	326	0	10000	1	1	0	1	0
28	327	0	10000	1	1	0	1	0
29	328	0	10000	1	1	0	1	0
29	329	0	10000	1	1	0	1	0
28	330	0	10000	1	1	0	1	0
25	331	0	10000	1	1	0	1	0
25	332	0	10000	1	1	0	1	0
24	333	0	10000	1	1	0	1	0
24	334	0	10000	1	1	0	1	0
24	335	0	10000	1	1	0	1	0
25	336	0	10000	1	1	0	1	0
26	337	0	10000	1	1	0	1	0
24	338	0	10000	1	1	0	1	0
26	339	0	10000	1	1	0	1	0
26	340	0	10000	1	1	0	1	0
27	341	0	10000	1	1	0	1	0
27	342	0	10000	1	1	0	1	0
27	343	0	10000	1	1	0	1	0
27	344	0	10000	1	1	0	1	0
28	345	0	10000	1	1	0	1	0
33	346	0	10000	1	1	0	1	0
37	347	0	10000	1	1	0	1	0
40	348	0	10000	1	1	0	1	0
39	349	0	10000	1	1	0	1	0
42	350	0	10000	1	1	0	1	0
44	351	0	10000	1	1	0	1	0
50	352	0	10000	1	1	0	1	0
54	353	0	10000	1	1	0	1	0
51	354	0	10000	1	1	0	1	0
53	355	0	10000	1	1	0	1	0
56	356	0	10000	1	1	0	1	0
58	357	0	10000	1	1	0	1	0
55	358	0	10000	1	1	0	1	0
58	359	0	10000	1	1	0	1	0
61	360	0	10000	1	1	0	1	0
62	361	0	10000	1	1	0	1	0
63	362	0	10000	1	1	0	1	0
62	363	0	10000	1	1	0	1	0
67	364	0	10000	1	1	0	1	0
69	365	0	10000	1	1	0	1	0
68	366	0	10000	1	1	0	1	0
80	367	0	10000	1	1	0	1	0
87	368	0	10000	1	1	0	1	0
88	369	0	10000	1	1	0	1	0
92	370	0	10000	1	1	0	1	0
91	371	0	10000	1	1	0	1	0
91	372	0	10000	1	1	0	1	0
89	373	0	10000	1	1	0	1	0
94	374	0	10000	1	1	0	1	0
98	375	0	10000	1	1	0	1	0
94	376	0	10000	1	1	0	1	0
92	377	0	10000	1	1	0	1	0
94	378	0	10000	1	1	0	1	0
92	379	0	10000	1	1	0	1	0
94	380	0	10000	1	1	0	1	0
103	381	0	10000	1	1	0	1	0
115	382	0	10000	1	1	0	1	0
120	383	0	10000	1	1	0	1	0
118	384	0	10000	1	1	0	1	0
121	385	0	10000	1	1	0	1	0
127	386	0	10000	1	1	0	1	0
127	387	0	10000	1	1	0	1	0
132	388	0	10000	1	1	0	1	0
142	389	0	10000	1	1	0	1	0
164	390	0	10000	1	1	0	1	0
177	391	0	10000	1	1	0	1	0
176	392	0	10000	1	1	0	1	0
184	393	0	10000	1	1	0	1	0
200	394	0	10000	1	1	0	1	0
211	395	0	10000	1	1	0	1	0
219	396	0	10000	1	1	0	1	0
224	397	0	10000	1	1	0	1	0
219	398	0	10000	1	1	0	1	0
211	399	0	10000	1	1	0	1	0
210	400	0	10000	1	1	0	1	0
214	401	0	10000	1	1	0	1	0
221	402	0	10000	1	1	0	1	0
221	403	0	10000	1	1	0	1	0
217	404	0	10000	1	1	0	1	0
222	405	0	10000	1	1	0	1	0
224	406	0	10000	1	1	0	1	0
220	407	0	10000	1	1	0	1	0
215	408	0	10000	1	1	0	1	0
206	409	0	10000	1	1	0	1	0
199	410	0	10000	1	1	0	1	0
196	411	0	10000	1	1	0	1	0
196	412	0	10000	1	1	0	1	0
202	413	0	10000	1	1	0	1	0
206	414	0	10000	1	1	0	1	0
206	415	0	10000	1	1	0	1	0
198	416	0	10000	1	1	0	1	0
192	417	0	10000	1	1	0	1	0
187	418	0	10000	1	1	0	1	0
184	419	0	10000	1	1	0	1	0
187	420	0	10000	1	1	0	1	0
183	421	0	10000	1	1	0	1	0
175	422	0	10000	1	1	0	1	0
172	423	0	10000	1	1	0	1	0
167	424	0	10000	1	1	0	1	0
159	425	0	10000	1	1	0	1	0
152	426	0	10000	1	1	0	1	0
146	427	0	10000	1	1	0	1	0
143	428	0	10000	1	1	0	1	0
150	429	0	10000	1	1	0	1	0
150	430	0	10000	1	1	0	1	0
146	431	0	10000	1	1	0	1	0
145	432	0	10000	1	1	0	1	0
143	433	0	10000	1	1	0	1	0
141	434	0	10000	1	1	0	1	0
141	435	0	10000	1	1	0	1	0
138	436	0	10000	1	1	0	1	0
132	437	0	10000	1	1	0	1	0
125	438	0	10000	1	1	0	1	0
120	439	0	10000	1	1	0	1	0
115	440	0	10000	1	1	0	1	0
113	441	0	10000	1	1	0	1	0
112	442	0	10000	1	1	0	1	0
107	443	0	10000	1	1	0	1	0
106	444	0	10000	1	1	0	1	0
105	445	0	10000	1	1	0	1	0
102	446	0	10000	1	1	0	1	0
102	447	0	10000	1	1	0	1	0
106	448	0	10000	1	1	0	1	0
109	449	0	10000	1	1	0	1	0
113	450	0	10000	1	1	0	1	0
114	451	0	10000	1	1	0	1	0
114	452	0	10000	1	1	0	1	0
111	453	0	10000	1	1	0	1	0
108	454	0	10000	1	1	0	1	0
107	455	0	10000	1	1	0	1	0
104	456	0	10000	1	1	0	1	0
102	457	0	10000	1	1	0	1	0
98	458	0	10000	1	1	0	1	0
98	459	0	10000	1	1	0	1	0
100	460	0	10000	1	1	0	1	0
101	461	0	10000	1	1	0	1	0
100	462	0	10000	1	1	0	1	0
99	463	0	10000	1	1	0	1	0
98	464	0	10000	1	1	0	1	0
98	465	0	10000	1	1	0	1	0
97	466	0	10000	1	1	0	1	0
95	467	0	10000	1	1	0	1	0
95	468	0	10000	1	1	0	1	0
93	469	0	10000	1	1	0	1	0
95	470	0	10000	1	1	0	1	0
97	471	0	10000	1	1	0	1	0
98	472	0	10000	1	1	0	1	0
101	473	0	10000	1	1	0	1	0
104	474	0	10000	1	1	0	1	0
105	475	0	10000	1	1	0	1	0
103	476	0	10000	1	1	0	1	0
99	477	0	10000	1	1	0	1	0
93	478	0	10000	1	1	0	1	0
92	479	0	10000	1	1	0	1	0
89	480	0	10000	1	1	0	1	0
88	481	0	10000	1	1	0	1	0
85	482	0	10000	1	1	0	1	0
83	483	0	10000	1	1	0	1	0
82	484	0	10000	1	1	0	1	0
83	485	0	10000	1	1	0	1	0
83	486	0	10000	1	1	0	1	0
81	487	0	10000	1	1	0	1	0
82	488	0	10000	1	1	0	1	0
79	489	0	10000	1	1	0	1	0
77	490	0	10000	1	1	0	1	0
76	491	0	10000	1	1	0	1	0
73	492	0	10000	1	1	0	1	0
71	493	0	10000	1	1	0	1	0
68	494	0	10000	1	1	0	1	0
65	495	0	10000	1	1	0	1	0
64	496	0	10000	1	1	0	1	0
62	497	0	10000	1	1	0	1	0
57	498	0	10000	1	1	0	1	0
56	499	0	10000	1	1	0	1	0
53	500	0	10000	1	1	0	1	0
52	501	0	10000	1	1	0	1	0
52	540	0	10000	1	1	0	1	1
52	541	0	10000	1	1	0	1	1
53	542	0	10000	1	1	0	1	1
52	543	0	10000	1	1	0	1	1
49	544	0	10000	1	1	0	1	1
49	545	0	10000	1	1	0	1	1
51	546	0	10000	1	1	0	1	1
49	547	0	10000	1	1	0	1	1
46	548	0	10000	1	1	0	1	1
46	549	0	10000	1	1	0	1	1
45	550	0	10000	1	1	0	1	1
45	551	0	10000	1	1	0	1	1
44	552	0	10000	1	1	0	1	1
44	553	0	10000	1	1	0	1	1
43	554	0	10000	1	1	0	1	1
44	555	0	10000	1	1	0	1	1
45	556	0	10000	1	1	0	1	1
47	557	0	10000	1	1	0	1	1
48	558	0	10000	1	1	0	1	1
47	559	0	10000	1	1	0	1	1
48	560	0	10000	1	1	0	1	1
51	561	0	10000	1	1	0	1	1
53	562	0	10000	1	1	0	1	1
53	563	0	10000	1	1	0	1	1
50	564	0	10000	1	1	0	1	1
51	565	0	10000	1	1	0	1	1
54	566	0	10000	1	1	0	1	1
54	567	0	10000	1	1	0	1	1
55	568	0	10000	1	1	0	1	1
52	569	0	10000	1	1	0	1	1
51	570	0	10000	1	1	0	1	1
51	571	0	10000	1	1	0	1	1
50	572	0	10000	1	1	0	1	1
49	573	0	10000	1	1	0	1	1
48	574	0	10000	1	1	0	1	1
49	575	0	10000	1	1	0	1	1
50	576	0	10000	1	1	0	1	1
53	577	0	10000	1	1	0	1	1
56	578	0	10000	1	1	0	1	1
54	579	0	10000	1	1	0	1	1
52	543	0	10000	1	1	0	1	1
52	544	0	10000	1	1	0	1	1
52	544	0	10000	1	1	0	1	1
52	545	0	10000	1	1	0	1	1
50	546	0	10000	1	1	0	1	1
48	547	0	10000	1	1	0	1	1
51	548	0	10000	1	1	0	1	1
53	549	0	10000	1	1	0	1	1
53	550	0	10000	1	1	0	1	1
51	551	0	10000	1	1	0	1	1
50	552	0	10000	1	1	0	1	0
49	553	0	10000	1	1	0	1	0
49	554	0	10000	1	1	0	1	0
52	555	0	10000	1	1	0	1	0
51	556	0	10000	1	1	0	1	0
50	557	0	10000	1	1	0	1	0
50	558	0	10000	1	1	0	1	0
49	559	0	10000	1	1	0	1	0
48	560	0	10000	1	1	0	1	0
47	561	0	10000	1	1	0	1	0
46	562	0	10000	1	1	0	1	0
46	563	0	10000	1	1	0	1	0
46	564	0	10000	1	1	0	1	0
44	565	0	10000	1	1	0	1	0
43	566	0	10000	1	1	0	1	0
41	567	0	10000	1	1	0	1	0
44	568	0	10000	1	1	0	1	0
44	569	0	10000	1	1	0	1	0
44	570	0	10000	1	1	0	1	0
42	571	0	10000	1	1	0	1	0
41	572	0	10000	1	1	0	1	0
41	573	0	10000	1	1	0	1	0
40	574	0	10000	1	1	0	1	0
42	575	0	10000	1	1	0	1	0
40	576	0	10000	1	1	0	1	0
39	577	0	10000	1	1	0	1	0
38	578	0	10000	1	1	0	1	0
38	579	0	10000	1	1	0	1	0
39	580	0	10000	1	1	0	1	0
41	581	0	10000	1	1	0	1	0
39	582	0	10000	1	1	0	1	0
38	583	0	10000	1	1	0	1	0
39	584	0	10000	1	1	0	1	0
36	585	0	10000	1	1	0	1	0
34	586	0	10000	1	1	0	1	0
35	587	0	10000	1	1	0	1	0
36	588	0	10000	1	1	0	1	0
34	589	0	10000	1	1	0	1	0
34	590	0	10000	1	1	0	1	0
32	591	0	10000	1	1	0	1	0
32	592	0	10000	1	1	0	1	0
32	593	0	10000	1	1	0	1	0
31	594	0	10000	1	1	0	1	0
30	595	0	10000	1	1	0	1	0
30	596	0	10000	1	1	0	1	0
29	597	0	10000	1	1	0	1	0
27	598	0	10000	1	1	0	1	0
28	599	0	10000	1	1	0	1	0
30	600	0	10000	1	1	0	1	0
32	601	0	10000	1	1	0	1	0
32	602	0	10000	1	1	0	1	0
32	603	0	10000	1	1	0	1	0
32	604	0	10000	1	1	0	1	0
30	605	0	10000	1	1	0	1	0
32	606	0	10000	1	1	0	1	0
32	607	0	10000	1	1	0	1	0
32	608	0	10000	1	1	0	1	0
31	609	0	10000	1	1	0	1	0
30	610	0	10000	1	1	0	1	0
28	611	0	10000	1	1	0	1	0
28	612	0	10000	1	1	0	1	0
27	613	0	10000	1	1	0	1	0
27	614	0	10000	1	1	0	1	0
27	615	0	10000	1	1	0	1	0
27	616	0	10000	1	1	0	1	0
26	617	0	10000	1	1	0	1	0
25	618	0	10000	1	1	0	1	0
26	619	0	10000	1	1	0	1	0
25	620	0	10000	1	1	0	1	0
26	621	0	10000	1	1	0	1	0
31	622	0	10000	1	1	0	1	0
33	623	0	10000	1	1	0	1	0
39	624	0	10000	1	1	0	1	0
50	625	0	10000	1	1	0	1	0
61	626	0	10000	1	1	0	1	0
94	627	0	10000	1	1	0	1	0
122	628	0	10000	1	1	0	1	0
147	629	0	10000	1	1	0	1	0
145	630	0	10000	1	1	0	1	0
173	631	0	10000	1	1	0	1	0
199	632	0	10000	1	1	0	1	0
201	633	0	10000	1	1	0	1	0
197	634	0	10000	1	1	0	1	0
203	635	0	10000	1	1	0	1	0
202	636	0	10000	1	1	0	1	0
209	637	0	10000	1	1	0	1	0
218	638	0	10000	1	1	0	1	0
308	639	0	10000	1	1	0	1	0
379	640	0	10000	1	1	0	1	0
391	641	0	10000	1	1	0	1	0
431	642	0	10000	1	1	0	1	0
441	643	0	10000	1	1	0	1	0
429	644	0	10000	1	1	0	1	0
422	645	0	10000	1	1	0	1	0
459	646	0	10000	1	1	0	1	0
489	647	0	10000	1	1	0	1	0
503	648	0	10000	1	1	0	1	0
498	649	0	10000	1	1	0	1	0
508	650	0	10000	1	1	0	1	0
575	651	0	10000	1	1	0	1	0
623	652	0	10000	1	1	0	1	0
713	653	0	10000	1	1	0	1	0
832	654	0	10000	1	1	0	1	0
840	655	0	10000	1	1	0	1	0
909	656	0	10000	1	1	0	1	0
911	657	0	10000	1	1	0	1	0
942	658	0	10000	1	1	0	1	0
925	659	0	10000	1	1	0	1	0
965	660	0	10000	1	1	0	1	0
1034	661	0	10000	1	1	0	1	0
1089	662	0	10000	1	1	0	1	0
1105	663	0	10000	1	1	0	1	0
1089	664	0	10000	1	1	0	1	0
1056	665	0	10000	1	1	0	1	0
1016	666	0	10000	1	1	0	1	0
968	667	0	10000	1	1	0	1	0
931	668	0	10000	1	1	0	1	0
903	669	0	10000	1	1	0	1	0
886	670	0	10000	1	1	0	1	0
872	671	0	10000	1	1	0	1	0
860	672	0	10000	1	1	0	1	0
849	673	0	10000	1	1	0	1	0
834	674	0	10000	1	1	0	1	0
822	675	0	10000	1	1	0	1	0
810	676	0	10000	1	1	0	1	0
799	677	0	10000	1	1	0	1	0
790	678	0	10000	1	1	0	1	0
780	679	0	10000	1	1	0	1	0
769	680	0	10000	1	1	0	1	0
752	681	0	10000	1	1	0	1	0
736	682	0	10000	1	1	0	1	0
722	683	0	10000	1	1	0	1	0
703	684	0	10000	1	1	0	1	0
679	685	0	10000	1	1	0	1	0
652	686	0	10000	1	1	0	1	0
623	687	0	10000	1	1	0	1	0
599	688	0	10000	1	1	0	1	0
585	689	0	10000	1	1	0	1	0
578	690	0	10000	1	1	0	1	0
571	691	0	10000	1	1	0	1	0
570	692	0	10000	1	1	0	1	0
567	693	0	10000	1	1	0	1	0
560	694	0	10000	1	1	0	1	0
565	695	0	10000	1	1	0	1	0
579	696	0	10000	1	1	0	1	0
598	697	0	10000	1	1	0	1	0
610	698	0	10000	1	1	0	1	0
617	699	0	10000	1	1	0	1	0
624	700	0	10000	1	1	0	1	0
624	701	0	10000	1	1	0	1	0
621	702	0	10000	1	1	0	1	0
616	703	0	10000	1	1	0	1	0
615	704	0	10000	1	1	0	1	0
611	705	0	10000	1	1	0	1	0
609	706	0	10000	1	1	0	1	0
610	707	0	10000	1	1	0	1	0
613	708	0	10000	1	1	0	1	0
618	709	0	10000	1	1	0	1	0
625	710	0	10000	1	1	0	1	0
630	711	0	10000	1	1	0	1	0
635	712	0	10000	1	1	0	1	0
637	713	0	10000	1	1	0	1	0
635	714	0	10000	1	1	0	1	0
624	715	0	10000	1	1	0	1	0
610	716	0	10000	1	1	0	1	0
604	717	0	10000	1	1	0	1	0
596	718	0	10000	1	1	0	1	0
575	719	0	10000	1	1	0	1	0
561	720	0	10000	1	1	0	1	0
541	721	0	10000	1	1	0	1	0
517	722	0	10000	1	1	0	1	0
497	723	0	10000	1	1	0	1	0
476	724	0	10000	1	1	0	1	0
455	725	0	10000	1	1	0	1	0
435	726	0	10000	1	1	0	1	0
418	727	0	10000	1	1	0	1	0
404	728	0	10000	1	1	0	1	0
390	729	0	10000	1	1	0	1	0
377	730	0	10000	1	1	0	1	0
364	731	0	10000	1	1	0	1	0
348	732	0	10000	1	1	0	1	0
333	733	0	10000	1	1	0	1	0
318	734	0	10000	1	1	0	1	0
305	735	0	10000	1	1	0	1	0
297	736	0	10000	1	1	0	1	0
293	737	0	10000	1	1	0	1	0
290	738	0	10000	1	1	0	1	0
292	739	0	10000	1	1	0	1	0
292	740	0	10000	1	1	0	1	0
293	741	0	10000	1	1	0	1	0
296	742	0	10000	1	1	0	1	0
296	743	0	10000	1	1	0	1	0
296	744	0	10000	1	1	0	1	0
291	745	0	10000	1	1	0	1	0
285	746	0	10000	1	1	0	1	0
281	747	0	10000	1	1	0	1	0
278	748	0	10000	1	1	0	1	0
273	749	0	10000	1	1	0	1	0
265	750	0	10000	1	1	0	1	0
255	751	0	10000	1	1	0	1	0
248	752	0	10000	1	1	0	1	0
240	753	0	10000	1	1	0	1	0
232	754	0	10000	1	1	0	1	0
226	755	0	10000	1	1	0	1	0
221	756	0	10000	1	1	0	1	0
222	757	0	10000	1	1	0	1	0
220	758	0	10000	1	1	0	1	0
221	759	0	10000	1	1	0	1	0
223	760	0	10000	1	1	0	1	0
221	761	0	10000	1	1	0	1	0
222	762	0	10000	1	1	0	1	0
223	763	0	10000	1	1	0	1	0
224	764	0	10000	1	1	0	1	0
222	765	0	10000	1	1	0	1	0
218	766	0	10000	1	1	0	1	0
215	767	0	10000	1	1	0	1	0
213	768	0	10000	1	1	0	1	0
207	769	0	10000	1	1	0	1	0
200	770	0	10000	1	1	0	1	0
191	771	0	10000	1	1	0	1	0
183	772	0	10000	1	1	0	1	0
177	773	0	10000	1	1	0	1	0
173	774	0	10000	1	1	0	1	0
168	775	0	10000	1	1	0	1	0
164	776	0	10000	1	1	0	1	0
164	777	0	10000	1	1	0	1	0
161	778	0	10000	1	1	0	1	0
160	779	0	10000	1	1	0	1	0
160	780	0	10000	1	1	0	1	0
159	781	0	10000	1	1	0	1	0
162	782	0	10000	1	1	0	1	0
168	783	0	10000	1	1	0	1	0
171	784	0	10000	1	1	0	1	0
173	785	0	10000	1	1	0	1	0
170	786	0	10000	1	1	0	1	0
163	787	0	10000	1	1	0	1	0
160	788	0	10000	1	1	0	1	0
153	789	0	10000	1	1	0	1	0
147	790	0	10000	1	1	0	1	0
144	791	0	10000	1	1	0	1	0
144	792	0	10000	1	1	0	1	0
138	793	0	10000	1	1	0	1	0
132	794	0	10000	1	1	0	1	0
126	795	0	10000	1	1	0	1	0
121	796	0	10000	1	1	0	1	0
117	797	0	10000	1	1	0	1	0
118	798	0	10000	1	1	0	1	0
119	799	0	10000	1	1	0	1	0
117	800	0	10000	1	1	0	1	0
117	801	0	10000	1	1	0	1	0
115	802	0	10000	1	1	0	1	0
116	803	0	10000	1	1	0	1	0
117	804	0	10000	1	1	0	1	0
116	805	0	10000	1	1	0	1	0
112	806	0	10000	1	1	0	1	0
110	807	0	10000	1	1	0	1	0
108	808	0	10000	1	1	0	1	0
108	809	0	10000	1	1	0	1	0
108	810	0	10000	1	1	0	1	0
104	811	0	10000	1	1	0	1	0
105	812	0	10000	1	1	0	1	0
102	813	0	10000	1	1	0	1	0
99	814	0	10000	1	1	0	1	0
102	815	0	10000	1	1	0	1	0
104	816	0	10000	1	1	0	1	0
106	817	0	10000	1	1	0	1	0
108	818	0	10000	1	1	0	1	0
111	819	0	10000	1	1	0	1	0
112	820	0	10000	1	1	0	1	0
114	821	0	10000	1	1	0	1	0
111	822	0	10000	1	1	0	1	0
111	823	0	10000	1	1	0	1	0
110	824	0	10000	1	1	0	1	0
108	825	0	10000	1	1	0	1	0
104	826	0	10000	1	1	0	1	0
100	827	0	10000	1	1	0	1	0
98	828	0	10000	1	1	0	1	0
94	829	0	10000	1	1	0	1	0
93	830	0	10000	1	1	0	1	0
95	831	0	10000	1	1	0	1	0
97	832	0	10000	1	1	0	1	0
98	833	0	10000	1	1	0	1	0
95	834	0	10000	1	1	0	1	0
95	835	0	10000	1	1	0	1	0
94	836	0	10000	1	1	0	1	0
94	837	0	10000	1	1	0	1	0
90	838	0	10000	1	1	0	1	0
88	839	0	10000	1	1	0	1	0
86	840	0	10000	1	1	0	1	0
85	841	0	10000	1	1	0	1	0
83	842	0	10000	1	1	0	1	0
82	843	0	10000	1	1	0	1	0
81	844	0	10000	1	1	0	1	0
78	845	0	10000	1	1	0	1	0
74	846	0	10000	1	1	0	1	0
73	847	0	10000	1	1	0	1	0
80	848	0	10000	1	1	0	1	0
85	849	0	10000	1	1	0	1	0
86	850	0	10000	1	1	0	1	0
85	851	0	10000	1	1	0	1	0
86	852	0	10000	1	1	0	1	0
86	853	0	10000	1	1	0	1	0
82	854	0	10000	1	1	0	1	0
80	855	0	10000	1	1	0	1	0
85	856	0	10000	1	1	0	1	0
89	857	0	10000	1	1	0	1	0
90	858	0	10000	1	1	0	1	0
93	859	0	10000	1	1	0	1	0
97	860	0	10000	1	1	0	1	0
97	861	0	10000	1	1	0	1	0
95	862	0	10000	1	1	0	1	0
96	863	0	10000	1	1	0	1	0
101	864	0	10000	1	1	0	1	0
98	865	0	10000	1	1	0	1	0
102	866	0	10000	1	1	0	1	0
106	867	0	10000	1	1	0	1	0
117	868	0	10000	1	1	0	1	0
135	869	0	10000	1	1	0	1	0
135	870	0	10000	1	1	0	1	0
132	871	0	10000	1	1	0	1	0
128	872	0	10000	1	1	0	1	0
126	873	0	10000	1	1	0	1	0
124	874	0	10000	1	1	0	1	0
122	875	0	10000	1	1	0	1	0
119	876	0	10000	1	1	0	1	0
116	877	0	10000	1	1	0	1	0
111	878	0	10000	1	1	0	1	0
108	879	0	10000	1	1	0	1	0
105	880	0	10000	1	1	0	1	0
103	881	0	10000	1	1	0	1	0
102	882	0	10000	1	1	0	1	0
99	883	0	10000	1	1	0	1	0
95	884	0	10000	1	1	0	1	0
91	885	0	10000	1	1	0	1	0
87	886	0	10000	1	1	0	1	0
83	887	0	10000	1	1	0	1	0
83	888	0	10000	1	1	0	1	0
85	889	0	10000	1	1	0	1	0
85	890	0	10000	1	1	0	1	0
86	891	0	10000	1	1	0	1	0
87	892	0	10000	1	1	0	1	0
88	893	0	10000	1	1	0	1	0
90	894	0	10000	1	1	0	1	0
87	895	0	10000	1	1	0	1	0
84	896	0	10000	1	1	0	1	0
84	897	0	10000	1	1	0	1	0
79	898	0	10000	1	1	0	1	0
78	899	0	10000	1	1	0	1	0
78	900	0	10000	1	1	0	1	0
75	901	0	10000	1	1	0	1	0
73	902	0	10000	1	1	0	1	0
73	903	0	10000	1	1	0	1	0
71	904	0	10000	1	1	0	1	0
69	905	0	10000	1	1	0	1	0
70	906	0	10000	1	1	0	1	0
74	907	0	10000	1	1	0	1	0
78	908	0	10000	1	1	0	1	0
75	909	0	10000	1	1	0	1	0
74	910	0	10000	1	1	0	1	0
76	911	0	10000	1	1	0	1	0
78	912	0	10000	1	1	0	1	0
78	913	0	10000	1	1	0	1	0
78	914	0	10000	1	1	0	1	0
79	915	0	10000	1	1	0	1	0
77	916	0	10000	1	1	0	1	0
76	917	0	10000	1	1	0	1	0
71	918	0	10000	1	1	0	1	0
70	919	0	10000	1	1	0	1	0
73	920	0	10000	1	1	0	1	0
79	921	0	10000	1	1	0	1	0
84	922	0	10000	1	1	0	1	0
88	923	0	10000	1	1	0	1	0
89	924	0	10000	1	1	0	1	0
85	925	0	10000	1	1	0	1	0
83	926	0	10000	1	1	0	1	0
79	927	0	10000	1	1	0	1	0
77	928	0	10000	1	1	0	1	0
75	929	0	10000	1	1	0	1	0
76	930	0	10000	1	1	0	1	0
78	931	0	10000	1	1	0	1	0
81	932	0	10000	1	1	0	1	0
82	933	0	10000	1	1	0	1	0
83	934	0	10000	1	1	0	1	0
88	935	0	10000	1	1	0	1	0
91	936	0	10000	1	1	0	1	0
90	937	0	10000	1	1	0	1	0
86	938	0	10000	1	1	0	1	0
85	939	0	10000	1	1	0	1	0
86	940	0	10000	1	1	0	1	0
85	941	0	10000	1	1	0	1	0
86	942	0	10000	1	1	0	1	0
85	943	0	10000	1	1	0	1	0
86	944	0	10000	1	1	0	1	0
84	945	0	10000	1	1	0	1	0
85	946	0	10000	1	1	0	1	0
83	947	0	10000	1	1	0	1	0
81	948	0	10000	1	1	0	1	0
79	949	0	10000	1	1	0	1	0
76	950	0	10000	1	1	0	1	0
74	951	0	10000	1	1	0	1	0
71	952	0	10000	1	1	0	1	0
68	953	0	10000	1	1	0	1	0
66	954	0	10000	1	1	0	1	0
65	955	0	10000	1	1	0	1	0
65	956	0	10000	1	1	0	1	0
64	957	0	10000	1	1	0	1	0
61	958	0	10000	1	1	0	1	0
62	959	0	10000	1	1	0	1	0
62	960	0	10000	1	1	0	1	0
60	961	0	10000	1	1	0	1	0
59	962	0	10000	1	1	0	1	0
61	963	0	10000	1	1	0	1	0
62	964	0	10000	1	1	0	1	0
60	965	0	10000	1	1	0	1	0
57	966	0	10000	1	1	0	1	0
56	967	0	10000	1	1	0	1	0
59	968	0	10000	1	1	0	1	0
64	969	0	10000	1	1	0	1	0
67	970	0	10000	1	1	0	1	0
65	971	0	10000	1	1	0	1	0
67	972	0	10000	1	1	0	1	0
71	973	0	10000	1	1	0	1	0
79	974	0	10000	1	1	0	1	0
83	975	0	10000	1	1	0	1	0
86	976	0	10000	1	1	0	1	0
86	977	0	10000	1	1	0	1	0
82	978	0	10000	1	1	0	1	0
87	979	0	10000	1	1	0	1	0
87	980	0	10000	1	1	0	1	0
84	981	0	10000	1	1	0	1	0
83	982	0	10000	1	1	0	1	0
81	983	0	10000	1	1	0	1	0
85	984	0	10000	1	1	0	1	0
91	985	0	10000	1	1	0	1	0
93	986	0	10000	1	1	0	1	0
90	987	0	10000	1	1	0	1	0
95	988	0	10000	1	1	0	1	0
98	989	0	10000	1	1	0	1	0
98	990	0	10000	1	1	0	1	0
95	991	0	10000	1	1	0	1	0
92	992	0	10000	1	1	0	1	0
88	993	0	10000	1	1	0	1	0
85	994	0	10000	1	1	0	1	0
82	995	0	10000	1	1	0	1	0
80	996	0	10000	1	1	0	1	0
79	997	0	10000	1	1	0	1	0
75	998	0	10000	1	1	0	1	0
72	999	0	10000	1	1	0	1	0
70	1000	0	10000	1	1	0	1	0
68	1001	0	10000	1	1	0	1	0
165	1	0	10000	2	1	0	2	0
160	2	0	10000	2	1	0	2	0
157	3	0	10000	2	1	0	2	0
153	4	0	10000	2	1	0	2	0
145	5	0	10000	2	1	0	2	0
140	6	0	10000	2	1	0	2	0
135	7	0	10000	2	1	0	2	0
136	8	0	10000	2	1	0	2	0
137	9	0	10000	2	1	0	2	0
135	10	0	10000	2	1	0	2	0
130	11	0	10000	2	1	0	2	0
127	12	0	10000	2	1	0	2	0
125	13	0	10000	2	1	0	2	0
120	14	0	10000	2	1	0	2	0
119	15	0	10000	2	1	0	2	0
119	16	0	10000	2	1	0	2	0
118	17	0	10000	2	1	0	2	0
118	18	0	10000	2	1	0	2	0
116	19	0	10000	2	1	0	2	0
114	20	0	10000	2	1	0	2	0
112	21	0	10000	2	1	0	2	0
115	22	0	10000	2	1	0	2	0
119	23	0	10000	2	1	0	2	0
124	24	0	10000	2	1	0	2	0
128	25	0	10000	2	1	0	2	0
131	26	0	10000	2	1	0	2	0
132	27	0	10000	2	1	0	2	0
127	28	0	10000	2	1	0	2	0
125	29	0	10000	2	1	0	2	0
127	30	0	10000	2	1	0	2	0
127	31	0	10000	2	1	0	2	0
128	32	0	10000	2	1	0	2	0
122	33	0	10000	2	1	0	2	0
118	34	0	10000	2	1	0	2	0
117	35	0	10000	2	1	0	2	0
118	36	0	10000	2	1	0	2	0
116	37	0	10000	2	1	0	2	0
112	38	0	10000	2	1	0	2	0
108	39	0	10000	2	1	0	2	0
105	40	0	10000	2	1	0	2	0
106	41	0	10000	2	1	0	2	0
106	42	0	10000	2	1	0	2	0
105	43	0	10000	2	1	0	2	0
104	44	0	10000	2	1	0	2	0
103	45	0	10000	2	1	0	2	0
102	46	0	10000	2	1	0	2	0
105	47	0	10000	2	1	0	2	0
107	48	0	10000	2	1	0	2	0
108	49	0	10000	2	1	0	2	0
105	50	0	10000	2	1	0	2	0
103	51	0	10000	2	1	0	2	0
98	52	0	10000	2	1	0	2	0
94	53	0	10000	2	1	0	2	0
92	54	0	10000	2	1	0	2	0
90	55	0	10000	2	1	0	2	0
88	56	0	10000	2	1	0	2	0
84	57	0	10000	2	1	0	2	0
80	58	0	10000	2	1	0	2	0
80	59	0	10000	2	1	0	2	0
79	60	0	10000	2	1	0	2	0
76	61	0	10000	2	1	0	2	0
74	62	0	10000	2	1	0	2	0
71	63	0	10000	2	1	0	2	0
69	64	0	10000	2	1	0	2	0
67	65	0	10000	2	1	0	2	0
64	66	0	10000	2	1	0	2	0
63	67	0	10000	2	1	0	2	0
62	68	0	10000	2	1	0	2	0
61	69	0	10000	2	1	0	2	0
60	70	0	10000	2	1	0	2	0
61	71	0	10000	2	1	0	2	0
60	72	0	10000	2	1	0	2	0
57	73	0	10000	2	1	0	2	0
56	74	0	10000	2	1	0	2	0
56	75	0	10000	2	1	0	2	0
58	76	0	10000	2	1	0	2	0
60	77	0	10000	2	1	0	2	0
62	78	0	10000	2	1	0	2	0
64	79	0	10000	2	1	0	2	0
64	80	0	10000	2	1	0	2	0
65	81	0	10000	2	1	0	2	0
66	82	0	10000	2	1	0	2	0
66	83	0	10000	2	1	0	2	0
66	84	0	10000	2	1	0	2	0
62	85	0	10000	2	1	0	2	0
59	86	0	10000	2	1	0	2	0
58	87	0	10000	2	1	0	2	0
56	88	0	10000	2	1	0	2	0
58	89	0	10000	2	1	0	2	0
60	90	0	10000	2	1	0	2	0
64	91	0	10000	2	1	0	2	0
66	92	0	10000	2	1	0	2	0
67	93	0	10000	2	1	0	2	0
65	94	0	10000	2	1	0	2	0
63	95	0	10000	2	1	0	2	0
65	96	0	10000	2	1	0	2	0
62	97	0	10000	2	1	0	2	0
60	98	0	10000	2	1	0	2	0
59	99	0	10000	2	1	0	2	0
60	100	0	10000	2	1	0	2	0
63	101	0	10000	2	1	0	2	0
63	102	0	10000	2	1	0	2	0
64	103	0	10000	2	1	0	2	0
63	104	0	10000	2	1	0	2	0
62	105	0	10000	2	1	0	2	0
62	106	0	10000	2	1	0	2	0
59	107	0	10000	2	1	0	2	0
57	108	0	10000	2	1	0	2	0
57	109	0	10000	2	1	0	2	0
55	110	0	10000	2	1	0	2	0
56	111	0	10000	2	1	0	2	0
58	112	0	10000	2	1	0	2	0
60	113	0	10000	2	1	0	2	0
59	114	0	10000	2	1	0	2	0
61	115	0	10000	2	1	0	2	0
63	116	0	10000	2	1	0	2	0
64	117	0	10000	2	1	0	2	0
64	118	0	10000	2	1	0	2	0
63	119	0	10000	2	1	0	2	0
62	120	0	10000	2	1	0	2	0
60	121	0	10000	2	1	0	2	0
63	122	0	10000	2	1	0	2	0
65	123	0	10000	2	1	0	2	0
63	124	0	10000	2	1	0	2	0
60	125	0	10000	2	1	0	2	0
59	126	0	10000	2	1	0	2	0
60	127	0	10000	2	1	0	2	0
59	128	0	10000	2	1	0	2	0
57	129	0	10000	2	1	0	2	0
55	130	0	10000	2	1	0	2	0
54	131	0	10000	2	1	0	2	0
53	132	0	10000	2	1	0	2	0
53	133	0	10000	2	1	0	2	0
51	134	0	10000	2	1	0	2	0
50	135	0	10000	2	1	0	2	0
51	136	0	10000	2	1	0	2	0
51	137	0	10000	2	1	0	2	0
50	138	0	10000	2	1	0	2	0
49	139	0	10000	2	1	0	2	0
52	140	0	10000	2	1	0	2	0
56	141	0	10000	2	1	0	2	0
57	142	0	10000	2	1	0	2	0
56	143	0	10000	2	1	0	2	0
56	144	0	10000	2	1	0	2	0
54	145	0	10000	2	1	0	2	0
50	146	0	10000	2	1	0	2	0
53	147	0	10000	2	1	0	2	0
55	148	0	10000	2	1	0	2	0
53	149	0	10000	2	1	0	2	0
52	150	0	10000	2	1	0	2	0
53	151	0	10000	2	1	0	2	0
55	152	0	10000	2	1	0	2	0
55	153	0	10000	2	1	0	2	0
53	154	0	10000	2	1	0	2	0
52	155	0	10000	2	1	0	2	0
52	156	0	10000	2	1	0	2	0
50	157	0	10000	2	1	0	2	0
50	158	0	10000	2	1	0	2	0
54	159	0	10000	2	1	0	2	0
56	160	0	10000	2	1	0	2	0
56	161	0	10000	2	1	0	2	0
56	162	0	10000	2	1	0	2	0
56	163	0	10000	2	1	0	2	0
58	164	0	10000	2	1	0	2	0
56	165	0	10000	2	1	0	2	0
55	166	0	10000	2	1	0	2	0
59	167	0	10000	2	1	0	2	0
61	168	0	10000	2	1	0	2	0
61	169	0	10000	2	1	0	2	0
60	170	0	10000	2	1	0	2	0
59	171	0	10000	2	1	0	2	0
57	172	0	10000	2	1	0	2	0
60	173	0	10000	2	1	0	2	0
60	174	0	10000	2	1	0	2	0
59	175	0	10000	2	1	0	2	0
61	176	0	10000	2	1	0	2	0
60	177	0	10000	2	1	0	2	0
61	178	0	10000	2	1	0	2	0
62	179	0	10000	2	1	0	2	0
66	180	0	10000	2	1	0	2	0
65	181	0	10000	2	1	0	2	0
64	182	0	10000	2	1	0	2	0
63	183	0	10000	2	1	0	2	0
61	184	0	10000	2	1	0	2	0
59	185	0	10000	2	1	0	2	0
55	186	0	10000	2	1	0	2	0
55	187	0	10000	2	1	0	2	0
56	188	0	10000	2	1	0	2	0
54	189	0	10000	2	1	0	2	0
54	190	0	10000	2	1	0	2	0
58	191	0	10000	2	1	0	2	0
56	192	0	10000	2	1	0	2	0
56	193	0	10000	2	1	0	2	0
56	194	0	10000	2	1	0	2	0
58	195	0	10000	2	1	0	2	0
61	196	0	10000	2	1	0	2	0
59	197	0	10000	2	1	0	2	0
59	198	0	10000	2	1	0	2	0
57	199	0	10000	2	1	0	2	0
61	200	0	10000	2	1	0	2	0
67	201	0	10000	2	1	0	2	0
68	202	0	10000	2	1	0	2	0
67	203	0	10000	2	1	0	2	0
69	204	0	10000	2	1	0	2	0
67	205	0	10000	2	1	0	2	0
64	206	0	10000	2	1	0	2	0
65	207	0	10000	2	1	0	2	0
66	208	0	10000	2	1	0	2	0
67	209	0	10000	2	1	0	2	0
64	210	0	10000	2	1	0	2	0
62	211	0	10000	2	1	0	2	0
60	212	0	10000	2	1	0	2	0
57	213	0	10000	2	1	0	2	0
56	214	0	10000	2	1	0	2	0
56	215	0	10000	2	1	0	2	0
58	216	0	10000	2	1	0	2	0
57	217	0	10000	2	1	0	2	0
55	218	0	10000	2	1	0	2	0
55	219	0	10000	2	1	0	2	0
60	220	0	10000	2	1	0	2	0
58	221	0	10000	2	1	0	2	0
60	222	0	10000	2	1	0	2	0
61	223	0	10000	2	1	0	2	0
59	224	0	10000	2	1	0	2	0
58	225	0	10000	2	1	0	2	0
59	226	0	10000	2	1	0	2	0
63	227	0	10000	2	1	0	2	0
64	228	0	10000	2	1	0	2	0
62	229	0	10000	2	1	0	2	0
59	230	0	10000	2	1	0	2	0
58	231	0	10000	2	1	0	2	0
61	232	0	10000	2	1	0	2	0
61	233	0	10000	2	1	0	2	0
61	234	0	10000	2	1	0	2	0
63	235	0	10000	2	1	0	2	0
65	236	0	10000	2	1	0	2	0
63	237	0	10000	2	1	0	2	0
61	238	0	10000	2	1	0	2	0
57	239	0	10000	2	1	0	2	0
58	240	0	10000	2	1	0	2	0
60	241	0	10000	2	1	0	2	0
60	242	0	10000	2	1	0	2	0
59	243	0	10000	2	1	0	2	0
58	244	0	10000	2	1	0	2	0
57	245	0	10000	2	1	0	2	0
56	246	0	10000	2	1	0	2	0
57	247	0	10000	2	1	0	2	0
57	248	0	10000	2	1	0	2	0
57	249	0	10000	2	1	0	2	0
59	250	0	10000	2	1	0	2	0
62	251	0	10000	2	1	0	2	0
62	252	0	10000	2	1	0	2	0
60	253	0	10000	2	1	0	2	0
57	254	0	10000	2	1	0	2	0
57	255	0	10000	2	1	0	2	0
58	256	0	10000	2	1	0	2	0
56	257	0	10000	2	1	0	2	0
53	258	0	10000	2	1	0	2	0
50	259	0	10000	2	1	0	2	0
50	260	0	10000	2	1	0	2	0
49	261	0	10000	2	1	0	2	0
48	262	0	10000	2	1	0	2	0
50	263	0	10000	2	1	0	2	0
52	264	0	10000	2	1	0	2	0
50	265	0	10000	2	1	0	2	0
49	266	0	10000	2	1	0	2	0
51	267	0	10000	2	1	0	2	0
51	268	0	10000	2	1	0	2	0
52	269	0	10000	2	1	0	2	0
51	270	0	10000	2	1	0	2	0
51	271	0	10000	2	1	0	2	0
51	272	0	10000	2	1	0	2	0
54	273	0	10000	2	1	0	2	0
51	274	0	10000	2	1	0	2	0
52	275	0	10000	2	1	0	2	0
53	276	0	10000	2	1	0	2	0
51	277	0	10000	2	1	0	2	0
55	278	0	10000	2	1	0	2	0
60	279	0	10000	2	1	0	2	0
63	280	0	10000	2	1	0	2	0
63	281	0	10000	2	1	0	2	0
60	282	0	10000	2	1	0	2	0
61	283	0	10000	2	1	0	2	0
66	284	0	10000	2	1	0	2	0
69	285	0	10000	2	1	0	2	0
71	286	0	10000	2	1	0	2	0
71	287	0	10000	2	1	0	2	0
70	288	0	10000	2	1	0	2	0
67	289	0	10000	2	1	0	2	0
65	290	0	10000	2	1	0	2	0
64	291	0	10000	2	1	0	2	0
61	292	0	10000	2	1	0	2	0
62	293	0	10000	2	1	0	2	0
61	294	0	10000	2	1	0	2	0
61	295	0	10000	2	1	0	2	0
61	296	0	10000	2	1	0	2	0
59	297	0	10000	2	1	0	2	0
57	298	0	10000	2	1	0	2	0
59	299	0	10000	2	1	0	2	0
62	300	0	10000	2	1	0	2	0
62	301	0	10000	2	1	0	2	0
63	302	0	10000	2	1	0	2	0
65	303	0	10000	2	1	0	2	0
66	304	0	10000	2	1	0	2	0
65	305	0	10000	2	1	0	2	0
62	306	0	10000	2	1	0	2	0
65	307	0	10000	2	1	0	2	0
66	308	0	10000	2	1	0	2	0
65	309	0	10000	2	1	0	2	0
64	310	0	10000	2	1	0	2	0
65	311	0	10000	2	1	0	2	0
63	312	0	10000	2	1	0	2	0
64	313	0	10000	2	1	0	2	0
62	314	0	10000	2	1	0	2	0
60	315	0	10000	2	1	0	2	0
58	316	0	10000	2	1	0	2	0
56	317	0	10000	2	1	0	2	0
57	318	0	10000	2	1	0	2	0
57	319	0	10000	2	1	0	2	0
56	320	0	10000	2	1	0	2	0
56	321	0	10000	2	1	0	2	0
57	322	0	10000	2	1	0	2	0
56	323	0	10000	2	1	0	2	0
56	324	0	10000	2	1	0	2	0
54	325	0	10000	2	1	0	2	0
52	326	0	10000	2	1	0	2	0
53	327	0	10000	2	1	0	2	0
53	328	0	10000	2	1	0	2	0
56	329	0	10000	2	1	0	2	0
57	330	0	10000	2	1	0	2	0
58	331	0	10000	2	1	0	2	0
57	332	0	10000	2	1	0	2	0
57	333	0	10000	2	1	0	2	0
56	334	0	10000	2	1	0	2	0
56	335	0	10000	2	1	0	2	0
56	336	0	10000	2	1	0	2	0
55	337	0	10000	2	1	0	2	0
57	338	0	10000	2	1	0	2	0
58	339	0	10000	2	1	0	2	0
57	340	0	10000	2	1	0	2	0
55	341	0	10000	2	1	0	2	0
57	342	0	10000	2	1	0	2	0
61	343	0	10000	2	1	0	2	0
64	344	0	10000	2	1	0	2	0
61	345	0	10000	2	1	0	2	0
59	346	0	10000	2	1	0	2	0
57	347	0	10000	2	1	0	2	0
56	348	0	10000	2	1	0	2	0
56	349	0	10000	2	1	0	2	0
56	350	0	10000	2	1	0	2	0
55	351	0	10000	2	1	0	2	0
54	352	0	10000	2	1	0	2	0
50	353	0	10000	2	1	0	2	0
49	354	0	10000	2	1	0	2	0
51	355	0	10000	2	1	0	2	0
51	356	0	10000	2	1	0	2	0
49	357	0	10000	2	1	0	2	0
49	358	0	10000	2	1	0	2	0
47	359	0	10000	2	1	0	2	0
49	360	0	10000	2	1	0	2	0
48	361	0	10000	2	1	0	2	0
47	362	0	10000	2	1	0	2	0
46	363	0	10000	2	1	0	2	0
49	364	0	10000	2	1	0	2	0
51	365	0	10000	2	1	0	2	0
49	366	0	10000	2	1	0	2	0
50	367	0	10000	2	1	0	2	0
53	368	0	10000	2	1	0	2	0
57	369	0	10000	2	1	0	2	0
56	370	0	10000	2	1	0	2	0
56	371	0	10000	2	1	0	2	0
54	372	0	10000	2	1	0	2	0
52	373	0	10000	2	1	0	2	0
51	374	0	10000	2	1	0	2	0
50	375	0	10000	2	1	0	2	0
50	376	0	10000	2	1	0	2	0
48	377	0	10000	2	1	0	2	0
45	378	0	10000	2	1	0	2	0
46	379	0	10000	2	1	0	2	0
48	380	0	10000	2	1	0	2	0
47	381	0	10000	2	1	0	2	0
46	382	0	10000	2	1	0	2	0
46	383	0	10000	2	1	0	2	0
48	384	0	10000	2	1	0	2	0
51	385	0	10000	2	1	0	2	0
49	386	0	10000	2	1	0	2	0
48	387	0	10000	2	1	0	2	0
48	388	0	10000	2	1	0	2	0
50	389	0	10000	2	1	0	2	0
51	390	0	10000	2	1	0	2	0
53	391	0	10000	2	1	0	2	0
55	392	0	10000	2	1	0	2	0
54	393	0	10000	2	1	0	2	0
53	394	0	10000	2	1	0	2	0
55	395	0	10000	2	1	0	2	0
57	396	0	10000	2	1	0	2	0
57	397	0	10000	2	1	0	2	0
62	398	0	10000	2	1	0	2	0
63	399	0	10000	2	1	0	2	0
61	400	0	10000	2	1	0	2	0
59	401	0	10000	2	1	0	2	0
60	402	0	10000	2	1	0	2	0
59	403	0	10000	2	1	0	2	0
58	404	0	10000	2	1	0	2	0
59	405	0	10000	2	1	0	2	0
56	406	0	10000	2	1	0	2	0
53	407	0	10000	2	1	0	2	0
53	408	0	10000	2	1	0	2	0
52	409	0	10000	2	1	0	2	0
50	410	0	10000	2	1	0	2	0
49	411	0	10000	2	1	0	2	0
47	412	0	10000	2	1	0	2	0
46	413	0	10000	2	1	0	2	0
48	414	0	10000	2	1	0	2	0
47	415	0	10000	2	1	0	2	0
47	416	0	10000	2	1	0	2	0
46	417	0	10000	2	1	0	2	0
46	418	0	10000	2	1	0	2	0
44	419	0	10000	2	1	0	2	0
43	420	0	10000	2	1	0	2	0
44	421	0	10000	2	1	0	2	0
44	422	0	10000	2	1	0	2	0
46	423	0	10000	2	1	0	2	0
45	424	0	10000	2	1	0	2	0
44	425	0	10000	2	1	0	2	0
41	426	0	10000	2	1	0	2	0
41	427	0	10000	2	1	0	2	0
44	428	0	10000	2	1	0	2	0
48	429	0	10000	2	1	0	2	0
49	430	0	10000	2	1	0	2	0
50	431	0	10000	2	1	0	2	0
52	432	0	10000	2	1	0	2	0
55	433	0	10000	2	1	0	2	0
57	434	0	10000	2	1	0	2	0
58	435	0	10000	2	1	0	2	0
59	436	0	10000	2	1	0	2	0
57	437	0	10000	2	1	0	2	0
54	438	0	10000	2	1	0	2	0
52	439	0	10000	2	1	0	2	0
50	440	0	10000	2	1	0	2	0
48	441	0	10000	2	1	0	2	0
47	442	0	10000	2	1	0	2	0
46	443	0	10000	2	1	0	2	0
44	444	0	10000	2	1	0	2	0
44	445	0	10000	2	1	0	2	0
43	446	0	10000	2	1	0	2	0
45	447	0	10000	2	1	0	2	0
45	448	0	10000	2	1	0	2	0
44	449	0	10000	2	1	0	2	0
43	450	0	10000	2	1	0	2	0
43	451	0	10000	2	1	0	2	0
44	452	0	10000	2	1	0	2	0
45	453	0	10000	2	1	0	2	0
46	454	0	10000	2	1	0	2	0
45	455	0	10000	2	1	0	2	0
45	456	0	10000	2	1	0	2	0
44	457	0	10000	2	1	0	2	0
43	458	0	10000	2	1	0	2	0
43	459	0	10000	2	1	0	2	0
44	460	0	10000	2	1	0	2	0
47	461	0	10000	2	1	0	2	0
53	462	0	10000	2	1	0	2	0
58	463	0	10000	2	1	0	2	0
58	464	0	10000	2	1	0	2	0
56	465	0	10000	2	1	0	2	0
54	466	0	10000	2	1	0	2	0
54	467	0	10000	2	1	0	2	0
53	468	0	10000	2	1	0	2	0
58	469	0	10000	2	1	0	2	0
61	470	0	10000	2	1	0	2	0
60	471	0	10000	2	1	0	2	0
63	472	0	10000	2	1	0	2	0
65	473	0	10000	2	1	0	2	0
68	474	0	10000	2	1	0	2	0
70	475	0	10000	2	1	0	2	0
69	476	0	10000	2	1	0	2	0
67	477	0	10000	2	1	0	2	0
66	478	0	10000	2	1	0	2	0
63	479	0	10000	2	1	0	2	0
61	480	0	10000	2	1	0	2	0
60	481	0	10000	2	1	0	2	0
57	482	0	10000	2	1	0	2	0
55	483	0	10000	2	1	0	2	0
56	484	0	10000	2	1	0	2	0
57	485	0	10000	2	1	0	2	0
56	486	0	10000	2	1	0	2	0
55	487	0	10000	2	1	0	2	0
56	488	0	10000	2	1	0	2	0
55	489	0	10000	2	1	0	2	0
58	490	0	10000	2	1	0	2	0
62	491	0	10000	2	1	0	2	0
63	492	0	10000	2	1	0	2	0
61	493	0	10000	2	1	0	2	0
62	494	0	10000	2	1	0	2	0
61	495	0	10000	2	1	0	2	0
65	496	0	10000	2	1	0	2	0
64	497	0	10000	2	1	0	2	0
62	498	0	10000	2	1	0	2	0
62	499	0	10000	2	1	0	2	0
62	500	0	10000	2	1	0	2	0
61	501	0	10000	2	1	0	2	1
59	502	0	10000	2	1	0	2	1
58	503	0	10000	2	1	0	2	1
57	504	0	10000	2	1	0	2	1
56	505	0	10000	2	1	0	2	1
53	506	0	10000	2	1	0	2	1
52	507	0	10000	2	1	0	2	1
51	508	0	10000	2	1	0	2	1
53	509	0	10000	2	1	0	2	1
52	510	0	10000	2	1	0	2	1
55	511	0	10000	2	1	0	2	1
59	512	0	10000	2	1	0	2	1
62	513	0	10000	2	1	0	2	1
60	514	0	10000	2	1	0	2	1
59	515	0	10000	2	1	0	2	1
59	516	0	10000	2	1	0	2	1
58	517	0	10000	2	1	0	2	1
56	518	0	10000	2	1	0	2	1
59	519	0	10000	2	1	0	2	1
63	520	0	10000	2	1	0	2	1
65	521	0	10000	2	1	0	2	1
64	522	0	10000	2	1	0	2	1
65	523	0	10000	2	1	0	2	1
66	524	0	10000	2	1	0	2	1
64	525	0	10000	2	1	0	2	1
61	526	0	10000	2	1	0	2	1
65	527	0	10000	2	1	0	2	1
67	528	0	10000	2	1	0	2	1
67	529	0	10000	2	1	0	2	1
68	530	0	10000	2	1	0	2	1
79	531	0	10000	2	1	0	2	1
88	532	0	10000	2	1	0	2	1
87	533	0	10000	2	1	0	2	1
89	534	0	10000	2	1	0	2	1
91	535	0	10000	2	1	0	2	1
94	536	0	10000	2	1	0	2	1
94	537	0	10000	2	1	0	2	1
96	538	0	10000	2	1	0	2	1
94	539	0	10000	2	1	0	2	1
99	540	0	10000	2	1	0	2	1
111	541	0	10000	2	1	0	2	1
118	542	0	10000	2	1	0	2	1
121	543	0	10000	2	1	0	2	1
118	544	0	10000	2	1	0	2	1
114	545	0	10000	2	1	0	2	1
107	546	0	10000	2	1	0	2	1
106	547	0	10000	2	1	0	2	1
114	548	0	10000	2	1	0	2	1
122	549	0	10000	2	1	0	2	1
126	550	0	10000	2	1	0	2	1
126	551	0	10000	2	1	0	2	0
136	552	0	10000	2	1	0	2	0
153	553	0	10000	2	1	0	2	0
161	554	0	10000	2	1	0	2	0
162	555	0	10000	2	1	0	2	0
176	556	0	10000	2	1	0	2	0
180	557	0	10000	2	1	0	2	0
175	558	0	10000	2	1	0	2	0
172	559	0	10000	2	1	0	2	0
174	560	0	10000	2	1	0	2	0
171	561	0	10000	2	1	0	2	0
166	562	0	10000	2	1	0	2	0
167	563	0	10000	2	1	0	2	0
163	564	0	10000	2	1	0	2	0
169	565	0	10000	2	1	0	2	0
168	566	0	10000	2	1	0	2	0
166	567	0	10000	2	1	0	2	0
162	568	0	10000	2	1	0	2	0
165	569	0	10000	2	1	0	2	0
162	570	0	10000	2	1	0	2	0
158	571	0	10000	2	1	0	2	0
171	572	0	10000	2	1	0	2	0
204	573	0	10000	2	1	0	2	0
244	574	0	10000	2	1	0	2	0
290	575	0	10000	2	1	0	2	0
321	576	0	10000	2	1	0	2	0
313	577	0	10000	2	1	0	2	0
321	578	0	10000	2	1	0	2	0
320	579	0	10000	2	1	0	2	0
375	580	0	10000	2	1	0	2	0
440	581	0	10000	2	1	0	2	0
438	582	0	10000	2	1	0	2	0
437	583	0	10000	2	1	0	2	0
465	584	0	10000	2	1	0	2	0
450	585	0	10000	2	1	0	2	0
435	586	0	10000	2	1	0	2	0
436	587	0	10000	2	1	0	2	0
422	588	0	10000	2	1	0	2	0
419	589	0	10000	2	1	0	2	0
432	590	0	10000	2	1	0	2	0
522	591	0	10000	2	1	0	2	0
586	592	0	10000	2	1	0	2	0
613	593	0	10000	2	1	0	2	0
625	594	0	10000	2	1	0	2	0
613	595	0	10000	2	1	0	2	0
666	596	0	10000	2	1	0	2	0
674	597	0	10000	2	1	0	2	0
702	598	0	10000	2	1	0	2	0
725	599	0	10000	2	1	0	2	0
836	600	0	10000	2	1	0	2	0
1031	601	0	10000	2	1	0	2	0
1067	602	0	10000	2	1	0	2	0
1036	603	0	10000	2	1	0	2	0
1010	604	0	10000	2	1	0	2	0
997	605	0	10000	2	1	0	2	0
983	606	0	10000	2	1	0	2	0
959	607	0	10000	2	1	0	2	0
957	608	0	10000	2	1	0	2	0
981	609	0	10000	2	1	0	2	0
984	610	0	10000	2	1	0	2	0
948	611	0	10000	2	1	0	2	0
941	612	0	10000	2	1	0	2	0
954	613	0	10000	2	1	0	2	0
966	614	0	10000	2	1	0	2	0
973	615	0	10000	2	1	0	2	0
983	616	0	10000	2	1	0	2	0
985	617	0	10000	2	1	0	2	0
987	618	0	10000	2	1	0	2	0
983	619	0	10000	2	1	0	2	0
973	620	0	10000	2	1	0	2	0
961	621	0	10000	2	1	0	2	0
944	622	0	10000	2	1	0	2	0
925	623	0	10000	2	1	0	2	0
904	624	0	10000	2	1	0	2	0
884	625	0	10000	2	1	0	2	0
861	626	0	10000	2	1	0	2	0
838	627	0	10000	2	1	0	2	0
809	628	0	10000	2	1	0	2	0
774	629	0	10000	2	1	0	2	0
739	630	0	10000	2	1	0	2	0
711	631	0	10000	2	1	0	2	0
692	632	0	10000	2	1	0	2	0
681	633	0	10000	2	1	0	2	0
680	634	0	10000	2	1	0	2	0
681	635	0	10000	2	1	0	2	0
693	636	0	10000	2	1	0	2	0
712	637	0	10000	2	1	0	2	0
742	638	0	10000	2	1	0	2	0
777	639	0	10000	2	1	0	2	0
809	640	0	10000	2	1	0	2	0
841	641	0	10000	2	1	0	2	0
871	642	0	10000	2	1	0	2	0
897	643	0	10000	2	1	0	2	0
915	644	0	10000	2	1	0	2	0
926	645	0	10000	2	1	0	2	0
932	646	0	10000	2	1	0	2	0
938	647	0	10000	2	1	0	2	0
947	648	0	10000	2	1	0	2	0
952	649	0	10000	2	1	0	2	0
957	650	0	10000	2	1	0	2	0
961	651	0	10000	2	1	0	2	0
964	652	0	10000	2	1	0	2	0
966	653	0	10000	2	1	0	2	0
967	654	0	10000	2	1	0	2	0
967	655	0	10000	2	1	0	2	0
969	656	0	10000	2	1	0	2	0
972	657	0	10000	2	1	0	2	0
981	658	0	10000	2	1	0	2	0
985	659	0	10000	2	1	0	2	0
986	660	0	10000	2	1	0	2	0
985	661	0	10000	2	1	0	2	0
984	662	0	10000	2	1	0	2	0
981	663	0	10000	2	1	0	2	0
967	664	0	10000	2	1	0	2	0
944	665	0	10000	2	1	0	2	0
918	666	0	10000	2	1	0	2	0
895	667	0	10000	2	1	0	2	0
871	668	0	10000	2	1	0	2	0
847	669	0	10000	2	1	0	2	0
822	670	0	10000	2	1	0	2	0
795	671	0	10000	2	1	0	2	0
773	672	0	10000	2	1	0	2	0
746	673	0	10000	2	1	0	2	0
719	674	0	10000	2	1	0	2	0
691	675	0	10000	2	1	0	2	0
667	676	0	10000	2	1	0	2	0
643	677	0	10000	2	1	0	2	0
617	678	0	10000	2	1	0	2	0
588	679	0	10000	2	1	0	2	0
563	680	0	10000	2	1	0	2	0
539	681	0	10000	2	1	0	2	0
518	682	0	10000	2	1	0	2	0
504	683	0	10000	2	1	0	2	0
492	684	0	10000	2	1	0	2	0
482	685	0	10000	2	1	0	2	0
473	686	0	10000	2	1	0	2	0
467	687	0	10000	2	1	0	2	0
466	688	0	10000	2	1	0	2	0
465	689	0	10000	2	1	0	2	0
461	690	0	10000	2	1	0	2	0
454	691	0	10000	2	1	0	2	0
449	692	0	10000	2	1	0	2	0
446	693	0	10000	2	1	0	2	0
443	694	0	10000	2	1	0	2	0
438	695	0	10000	2	1	0	2	0
433	696	0	10000	2	1	0	2	0
426	697	0	10000	2	1	0	2	0
420	698	0	10000	2	1	0	2	0
414	699	0	10000	2	1	0	2	0
410	700	0	10000	2	1	0	2	0
406	701	0	10000	2	1	0	2	0
405	702	0	10000	2	1	0	2	0
405	703	0	10000	2	1	0	2	0
403	704	0	10000	2	1	0	2	0
402	705	0	10000	2	1	0	2	0
400	706	0	10000	2	1	0	2	0
406	707	0	10000	2	1	0	2	0
411	708	0	10000	2	1	0	2	0
414	709	0	10000	2	1	0	2	0
413	710	0	10000	2	1	0	2	0
409	711	0	10000	2	1	0	2	0
406	712	0	10000	2	1	0	2	0
401	713	0	10000	2	1	0	2	0
395	714	0	10000	2	1	0	2	0
387	715	0	10000	2	1	0	2	0
381	716	0	10000	2	1	0	2	0
374	717	0	10000	2	1	0	2	0
365	718	0	10000	2	1	0	2	0
354	719	0	10000	2	1	0	2	0
343	720	0	10000	2	1	0	2	0
334	721	0	10000	2	1	0	2	0
327	722	0	10000	2	1	0	2	0
321	723	0	10000	2	1	0	2	0
318	724	0	10000	2	1	0	2	0
312	725	0	10000	2	1	0	2	0
308	726	0	10000	2	1	0	2	0
311	727	0	10000	2	1	0	2	0
313	728	0	10000	2	1	0	2	0
317	729	0	10000	2	1	0	2	0
318	730	0	10000	2	1	0	2	0
319	731	0	10000	2	1	0	2	0
317	732	0	10000	2	1	0	2	0
313	733	0	10000	2	1	0	2	0
303	734	0	10000	2	1	0	2	0
292	735	0	10000	2	1	0	2	0
285	736	0	10000	2	1	0	2	0
278	737	0	10000	2	1	0	2	0
273	738	0	10000	2	1	0	2	0
264	739	0	10000	2	1	0	2	0
257	740	0	10000	2	1	0	2	0
254	741	0	10000	2	1	0	2	0
251	742	0	10000	2	1	0	2	0
251	743	0	10000	2	1	0	2	0
247	744	0	10000	2	1	0	2	0
245	745	0	10000	2	1	0	2	0
240	746	0	10000	2	1	0	2	0
237	747	0	10000	2	1	0	2	0
237	748	0	10000	2	1	0	2	0
235	749	0	10000	2	1	0	2	0
234	750	0	10000	2	1	0	2	0
232	751	0	10000	2	1	0	2	0
228	752	0	10000	2	1	0	2	0
222	753	0	10000	2	1	0	2	0
215	754	0	10000	2	1	0	2	0
208	755	0	10000	2	1	0	2	0
204	756	0	10000	2	1	0	2	0
199	757	0	10000	2	1	0	2	0
191	758	0	10000	2	1	0	2	0
185	759	0	10000	2	1	0	2	0
177	760	0	10000	2	1	0	2	0
169	761	0	10000	2	1	0	2	0
164	762	0	10000	2	1	0	2	0
164	763	0	10000	2	1	0	2	0
159	764	0	10000	2	1	0	2	0
158	765	0	10000	2	1	0	2	0
157	766	0	10000	2	1	0	2	0
156	767	0	10000	2	1	0	2	0
150	768	0	10000	2	1	0	2	0
148	769	0	10000	2	1	0	2	0
152	770	0	10000	2	1	0	2	0
158	771	0	10000	2	1	0	2	0
159	772	0	10000	2	1	0	2	0
157	773	0	10000	2	1	0	2	0
156	774	0	10000	2	1	0	2	0
150	775	0	10000	2	1	0	2	0
147	776	0	10000	2	1	0	2	0
145	777	0	10000	2	1	0	2	0
140	778	0	10000	2	1	0	2	0
134	779	0	10000	2	1	0	2	0
129	780	0	10000	2	1	0	2	0
123	781	0	10000	2	1	0	2	0
119	782	0	10000	2	1	0	2	0
116	783	0	10000	2	1	0	2	0
111	784	0	10000	2	1	0	2	0
107	785	0	10000	2	1	0	2	0
102	786	0	10000	2	1	0	2	0
98	787	0	10000	2	1	0	2	0
100	788	0	10000	2	1	0	2	0
105	789	0	10000	2	1	0	2	0
106	790	0	10000	2	1	0	2	0
104	791	0	10000	2	1	0	2	0
102	792	0	10000	2	1	0	2	0
101	793	0	10000	2	1	0	2	0
99	794	0	10000	2	1	0	2	0
95	795	0	10000	2	1	0	2	0
92	796	0	10000	2	1	0	2	0
90	797	0	10000	2	1	0	2	0
87	798	0	10000	2	1	0	2	0
83	799	0	10000	2	1	0	2	0
82	800	0	10000	2	1	0	2	0
82	801	0	10000	2	1	0	2	0
80	802	0	10000	2	1	0	2	0
80	803	0	10000	2	1	0	2	0
78	804	0	10000	2	1	0	2	0
79	805	0	10000	2	1	0	2	0
74	806	0	10000	2	1	0	2	0
73	807	0	10000	2	1	0	2	0
70	808	0	10000	2	1	0	2	0
69	809	0	10000	2	1	0	2	0
68	810	0	10000	2	1	0	2	0
66	811	0	10000	2	1	0	2	0
64	812	0	10000	2	1	0	2	0
61	813	0	10000	2	1	0	2	0
60	814	0	10000	2	1	0	2	0
58	815	0	10000	2	1	0	2	0
60	816	0	10000	2	1	0	2	0
64	817	0	10000	2	1	0	2	0
65	818	0	10000	2	1	0	2	0
64	819	0	10000	2	1	0	2	0
65	820	0	10000	2	1	0	2	0
65	821	0	10000	2	1	0	2	0
61	822	0	10000	2	1	0	2	0
60	823	0	10000	2	1	0	2	0
60	824	0	10000	2	1	0	2	0
64	825	0	10000	2	1	0	2	0
67	826	0	10000	2	1	0	2	0
69	827	0	10000	2	1	0	2	0
67	828	0	10000	2	1	0	2	0
67	829	0	10000	2	1	0	2	0
69	830	0	10000	2	1	0	2	0
72	831	0	10000	2	1	0	2	0
72	832	0	10000	2	1	0	2	0
70	833	0	10000	2	1	0	2	0
70	834	0	10000	2	1	0	2	0
68	835	0	10000	2	1	0	2	0
68	836	0	10000	2	1	0	2	0
68	837	0	10000	2	1	0	2	0
68	838	0	10000	2	1	0	2	0
69	839	0	10000	2	1	0	2	0
74	840	0	10000	2	1	0	2	0
72	841	0	10000	2	1	0	2	0
69	842	0	10000	2	1	0	2	0
68	843	0	10000	2	1	0	2	0
65	844	0	10000	2	1	0	2	0
64	845	0	10000	2	1	0	2	0
66	846	0	10000	2	1	0	2	0
72	847	0	10000	2	1	0	2	0
71	848	0	10000	2	1	0	2	0
69	849	0	10000	2	1	0	2	0
70	850	0	10000	2	1	0	2	0
71	851	0	10000	2	1	0	2	0
69	852	0	10000	2	1	0	2	0
70	853	0	10000	2	1	0	2	0
75	854	0	10000	2	1	0	2	0
74	855	0	10000	2	1	0	2	0
73	856	0	10000	2	1	0	2	0
71	857	0	10000	2	1	0	2	0
70	858	0	10000	2	1	0	2	0
73	859	0	10000	2	1	0	2	0
72	860	0	10000	2	1	0	2	0
71	861	0	10000	2	1	0	2	0
68	862	0	10000	2	1	0	2	0
67	863	0	10000	2	1	0	2	0
65	864	0	10000	2	1	0	2	0
65	865	0	10000	2	1	0	2	0
61	866	0	10000	2	1	0	2	0
61	867	0	10000	2	1	0	2	0
60	868	0	10000	2	1	0	2	0
62	869	0	10000	2	1	0	2	0
64	870	0	10000	2	1	0	2	0
65	871	0	10000	2	1	0	2	0
64	872	0	10000	2	1	0	2	0
62	873	0	10000	2	1	0	2	0
60	874	0	10000	2	1	0	2	0
63	875	0	10000	2	1	0	2	0
80	876	0	10000	2	1	0	2	0
92	877	0	10000	2	1	0	2	0
96	878	0	10000	2	1	0	2	0
92	879	0	10000	2	1	0	2	0
90	880	0	10000	2	1	0	2	0
87	881	0	10000	2	1	0	2	0
87	882	0	10000	2	1	0	2	0
91	883	0	10000	2	1	0	2	0
92	884	0	10000	2	1	0	2	0
91	885	0	10000	2	1	0	2	0
88	886	0	10000	2	1	0	2	0
86	887	0	10000	2	1	0	2	0
84	888	0	10000	2	1	0	2	0
81	889	0	10000	2	1	0	2	0
78	890	0	10000	2	1	0	2	0
79	891	0	10000	2	1	0	2	0
84	892	0	10000	2	1	0	2	0
87	893	0	10000	2	1	0	2	0
87	894	0	10000	2	1	0	2	0
86	895	0	10000	2	1	0	2	0
88	896	0	10000	2	1	0	2	0
95	897	0	10000	2	1	0	2	0
98	898	0	10000	2	1	0	2	0
98	899	0	10000	2	1	0	2	0
96	900	0	10000	2	1	0	2	0
95	901	0	10000	2	1	0	2	0
96	902	0	10000	2	1	0	2	0
98	903	0	10000	2	1	0	2	0
96	904	0	10000	2	1	0	2	0
94	905	0	10000	2	1	0	2	0
92	906	0	10000	2	1	0	2	0
89	907	0	10000	2	1	0	2	0
89	908	0	10000	2	1	0	2	0
89	909	0	10000	2	1	0	2	0
90	910	0	10000	2	1	0	2	0
89	911	0	10000	2	1	0	2	0
86	912	0	10000	2	1	0	2	0
82	913	0	10000	2	1	0	2	0
82	914	0	10000	2	1	0	2	0
83	915	0	10000	2	1	0	2	0
86	916	0	10000	2	1	0	2	0
83	917	0	10000	2	1	0	2	0
82	918	0	10000	2	1	0	2	0
79	919	0	10000	2	1	0	2	0
79	920	0	10000	2	1	0	2	0
85	921	0	10000	2	1	0	2	0
89	922	0	10000	2	1	0	2	0
87	923	0	10000	2	1	0	2	0
91	924	0	10000	2	1	0	2	0
93	925	0	10000	2	1	0	2	0
92	926	0	10000	2	1	0	2	0
89	927	0	10000	2	1	0	2	0
89	928	0	10000	2	1	0	2	0
88	929	0	10000	2	1	0	2	0
92	930	0	10000	2	1	0	2	0
100	931	0	10000	2	1	0	2	0
104	932	0	10000	2	1	0	2	0
104	933	0	10000	2	1	0	2	0
105	934	0	10000	2	1	0	2	0
102	935	0	10000	2	1	0	2	0
102	936	0	10000	2	1	0	2	0
102	937	0	10000	2	1	0	2	0
99	938	0	10000	2	1	0	2	0
94	939	0	10000	2	1	0	2	0
93	940	0	10000	2	1	0	2	0
94	941	0	10000	2	1	0	2	0
92	942	0	10000	2	1	0	2	0
90	943	0	10000	2	1	0	2	0
90	944	0	10000	2	1	0	2	0
86	945	0	10000	2	1	0	2	0
82	946	0	10000	2	1	0	2	0
82	947	0	10000	2	1	0	2	0
86	948	0	10000	2	1	0	2	0
91	949	0	10000	2	1	0	2	0
99	950	0	10000	2	1	0	2	0
98	951	0	10000	2	1	0	2	0
100	952	0	10000	2	1	0	2	0
101	953	0	10000	2	1	0	2	0
98	954	0	10000	2	1	0	2	0
100	955	0	10000	2	1	0	2	0
107	956	0	10000	2	1	0	2	0
109	957	0	10000	2	1	0	2	0
105	958	0	10000	2	1	0	2	0
105	959	0	10000	2	1	0	2	0
109	960	0	10000	2	1	0	2	0
114	961	0	10000	2	1	0	2	0
113	962	0	10000	2	1	0	2	0
110	963	0	10000	2	1	0	2	0
109	964	0	10000	2	1	0	2	0
107	965	0	10000	2	1	0	2	0
106	966	0	10000	2	1	0	2	0
108	967	0	10000	2	1	0	2	0
105	968	0	10000	2	1	0	2	0
104	969	0	10000	2	1	0	2	0
106	970	0	10000	2	1	0	2	0
113	971	0	10000	2	1	0	2	0
122	972	0	10000	2	1	0	2	0
124	973	0	10000	2	1	0	2	0
122	974	0	10000	2	1	0	2	0
125	975	0	10000	2	1	0	2	0
129	976	0	10000	2	1	0	2	0
126	977	0	10000	2	1	0	2	0
120	978	0	10000	2	1	0	2	0
118	979	0	10000	2	1	0	2	0
115	980	0	10000	2	1	0	2	0
113	981	0	10000	2	1	0	2	0
115	982	0	10000	2	1	0	2	0
121	983	0	10000	2	1	0	2	0
121	984	0	10000	2	1	0	2	0
119	985	0	10000	2	1	0	2	0
113	986	0	10000	2	1	0	2	0
115	987	0	10000	2	1	0	2	0
122	988	0	10000	2	1	0	2	0
122	989	0	10000	2	1	0	2	0
118	990	0	10000	2	1	0	2	0
121	991	0	10000	2	1	0	2	0
121	992	0	10000	2	1	0	2	0
119	993	0	10000	2	1	0	2	0
117	994	0	10000	2	1	0	2	0
113	995	0	10000	2	1	0	2	0
112	996	0	10000	2	1	0	2	0
112	997	0	10000	2	1	0	2	0
111	998	0	10000	2	1	0	2	0
107	999	0	10000	2	1	0	2	0
106	1000	0	10000	2	1	0	2	0
44	1	7	10000	3	1	0	3	0
46	2	7	10000	3	1	0	3	0
46	3	7	10000	3	1	0	3	0
47	4	7	10000	3	1	0	3	0
49	5	7	10000	3	1	0	3	0
50	6	7	10000	3	1	0	3	0
50	7	7	10000	3	1	0	3	0
49	8	7	10000	3	1	0	3	0
48	9	7	10000	3	1	0	3	0
48	10	7	10000	3	1	0	3	0
52	11	7	10000	3	1	0	3	0
51	12	7	10000	3	1	0	3	0
50	13	7	10000	3	1	0	3	0
48	14	7	10000	3	1	0	3	0
49	15	7	10000	3	1	0	3	0
51	16	7	10000	3	1	0	3	0
48	17	7	10000	3	1	0	3	0
48	18	7	10000	3	1	0	3	0
49	19	7	10000	3	1	0	3	0
48	20	7	10000	3	1	0	3	0
48	20	7	10000	3	1	0	3	0
52	21	7	10000	3	1	0	3	0
53	23	7	10000	3	1	0	3	0
54	24	7	10000	3	1	0	3	0
53	25	7	10000	3	1	0	3	0
52	26	7	10000	3	1	0	3	0
51	27	7	10000	3	1	0	3	0
51	28	7	10000	3	1	0	3	0
52	29	7	10000	3	1	0	3	0
52	30	7	10000	3	1	0	3	0
53	30	7	10000	3	1	0	3	0
51	31	7	10000	3	1	0	3	0
50	33	7	10000	3	1	0	3	0
50	34	7	10000	3	1	0	3	0
49	35	7	10000	3	1	0	3	0
47	36	7	10000	3	1	0	3	0
47	37	7	10000	3	1	0	3	0
47	38	7	10000	3	1	0	3	0
45	39	7	10000	3	1	0	3	0
45	40	7	10000	3	1	0	3	0
45	40	7	10000	3	1	0	3	0
47	41	7	10000	3	1	0	3	0
45	43	7	10000	3	1	0	3	0
45	44	7	10000	3	1	0	3	0
44	45	7	10000	3	1	0	3	0
43	46	7	10000	3	1	0	3	0
43	47	7	10000	3	1	0	3	0
41	48	7	10000	3	1	0	3	0
41	49	7	10000	3	1	0	3	0
40	50	7	10000	3	1	0	3	0
39	50	7	10000	3	1	0	3	0
37	51	7	10000	3	1	0	3	0
38	53	7	10000	3	1	0	3	0
40	54	7	10000	3	1	0	3	0
39	55	7	10000	3	1	0	3	0
38	56	7	10000	3	1	0	3	0
41	57	7	10000	3	1	0	3	0
40	58	7	10000	3	1	0	3	0
39	59	7	10000	3	1	0	3	0
39	60	7	10000	3	1	0	3	0
36	60	7	10000	3	1	0	3	0
38	61	7	10000	3	1	0	3	0
38	63	7	10000	3	1	0	3	0
38	64	7	10000	3	1	0	3	0
38	65	7	10000	3	1	0	3	0
38	66	7	10000	3	1	0	3	0
37	67	7	10000	3	1	0	3	0
36	68	7	10000	3	1	0	3	0
36	69	7	10000	3	1	0	3	0
36	70	7	10000	3	1	0	3	0
36	70	7	10000	3	1	0	3	0
34	71	7	10000	3	1	0	3	0
34	73	7	10000	3	1	0	3	0
38	74	7	10000	3	1	0	3	0
45	75	7	10000	3	1	0	3	0
47	76	7	10000	3	1	0	3	0
48	77	7	10000	3	1	0	3	0
48	78	7	10000	3	1	0	3	0
48	79	7	10000	3	1	0	3	0
48	80	7	10000	3	1	0	3	0
51	80	7	10000	3	1	0	3	0
55	81	7	10000	3	1	0	3	0
54	83	7	10000	3	1	0	3	0
53	84	7	10000	3	1	0	3	0
52	85	7	10000	3	1	0	3	0
55	86	7	10000	3	1	0	3	0
58	87	7	10000	3	1	0	3	0
57	88	7	10000	3	1	0	3	0
56	89	7	10000	3	1	0	3	0
55	90	7	10000	3	1	0	3	0
54	90	7	10000	3	1	0	3	0
52	91	7	10000	3	1	0	3	0
55	93	7	10000	3	1	0	3	0
58	94	7	10000	3	1	0	3	0
58	95	7	10000	3	1	0	3	0
56	96	7	10000	3	1	0	3	0
55	97	7	10000	3	1	0	3	0
55	98	7	10000	3	1	0	3	0
52	99	7	10000	3	1	0	3	0
51	100	7	10000	3	1	0	3	0
49	100	7	10000	3	1	0	3	0
49	101	7	10000	3	1	0	3	0
50	103	7	10000	3	1	0	3	0
51	104	7	10000	3	1	0	3	0
50	105	7	10000	3	1	0	3	0
48	106	7	10000	3	1	0	3	0
47	107	7	10000	3	1	0	3	0
45	108	7	10000	3	1	0	3	0
46	109	7	10000	3	1	0	3	0
48	110	7	10000	3	1	0	3	0
50	110	7	10000	3	1	0	3	0
49	111	7	10000	3	1	0	3	0
48	113	7	10000	3	1	0	3	0
48	114	7	10000	3	1	0	3	0
50	115	7	10000	3	1	0	3	0
52	116	7	10000	3	1	0	3	0
52	117	7	10000	3	1	0	3	0
52	118	7	10000	3	1	0	3	0
50	119	7	10000	3	1	0	3	0
48	120	7	10000	3	1	0	3	0
47	120	7	10000	3	1	0	3	0
48	121	7	10000	3	1	0	3	0
46	123	7	10000	3	1	0	3	0
45	124	7	10000	3	1	0	3	0
45	125	7	10000	3	1	0	3	0
45	126	7	10000	3	1	0	3	0
44	127	7	10000	3	1	0	3	0
42	128	7	10000	3	1	0	3	0
41	129	7	10000	3	1	0	3	0
40	130	7	10000	3	1	0	3	0
41	130	7	10000	3	1	0	3	0
41	131	7	10000	3	1	0	3	0
44	133	7	10000	3	1	0	3	0
45	134	7	10000	3	1	0	3	0
46	135	7	10000	3	1	0	3	0
44	136	7	10000	3	1	0	3	0
42	137	7	10000	3	1	0	3	0
42	138	7	10000	3	1	0	3	0
46	139	7	10000	3	1	0	3	0
45	140	7	10000	3	1	0	3	0
47	140	7	10000	3	1	0	3	0
53	141	7	10000	3	1	0	3	0
54	143	7	10000	3	1	0	3	0
53	144	7	10000	3	1	0	3	0
54	145	7	10000	3	1	0	3	0
53	146	7	10000	3	1	0	3	0
51	147	7	10000	3	1	0	3	0
49	148	7	10000	3	1	0	3	0
48	149	7	10000	3	1	0	3	0
49	150	7	10000	3	1	0	3	0
49	150	7	10000	3	1	0	3	0
47	151	7	10000	3	1	0	3	0
48	153	7	10000	3	1	0	3	0
48	154	7	10000	3	1	0	3	0
48	155	7	10000	3	1	0	3	0
49	156	7	10000	3	1	0	3	0
48	157	7	10000	3	1	0	3	0
47	158	7	10000	3	1	0	3	0
45	159	7	10000	3	1	0	3	0
45	160	7	10000	3	1	0	3	0
46	160	7	10000	3	1	0	3	0
51	161	7	10000	3	1	0	3	0
51	163	7	10000	3	1	0	3	0
48	164	7	10000	3	1	0	3	0
47	165	7	10000	3	1	0	3	0
46	166	7	10000	3	1	0	3	0
44	167	7	10000	3	1	0	3	0
43	168	7	10000	3	1	0	3	0
42	169	7	10000	3	1	0	3	0
40	170	7	10000	3	1	0	3	0
40	170	7	10000	3	1	0	3	0
37	171	7	10000	3	1	0	3	0
38	173	7	10000	3	1	0	3	0
37	174	7	10000	3	1	0	3	0
37	175	7	10000	3	1	0	3	0
37	176	7	10000	3	1	0	3	0
37	177	7	10000	3	1	0	3	0
38	178	7	10000	3	1	0	3	0
37	179	7	10000	3	1	0	3	0
37	180	7	10000	3	1	0	3	0
37	180	7	10000	3	1	0	3	0
38	181	7	10000	3	1	0	3	0
38	183	7	10000	3	1	0	3	0
36	184	7	10000	3	1	0	3	0
37	185	7	10000	3	1	0	3	0
38	186	7	10000	3	1	0	3	0
36	187	7	10000	3	1	0	3	0
34	188	7	10000	3	1	0	3	0
35	189	7	10000	3	1	0	3	0
35	190	7	10000	3	1	0	3	0
35	190	7	10000	3	1	0	3	0
34	191	7	10000	3	1	0	3	0
34	193	7	10000	3	1	0	3	0
36	194	7	10000	3	1	0	3	0
37	195	7	10000	3	1	0	3	0
36	196	7	10000	3	1	0	3	0
35	197	7	10000	3	1	0	3	0
35	198	7	10000	3	1	0	3	0
36	199	7	10000	3	1	0	3	0
35	200	7	10000	3	1	0	3	0
33	200	7	10000	3	1	0	3	0
36	201	7	10000	3	1	0	3	0
35	203	7	10000	3	1	0	3	0
34	204	7	10000	3	1	0	3	0
34	205	7	10000	3	1	0	3	0
37	206	7	10000	3	1	0	3	0
41	207	7	10000	3	1	0	3	0
41	208	7	10000	3	1	0	3	0
41	209	7	10000	3	1	0	3	0
44	210	7	10000	3	1	0	3	0
48	210	7	10000	3	1	0	3	0
49	211	7	10000	3	1	0	3	0
50	213	7	10000	3	1	0	3	0
49	214	7	10000	3	1	0	3	0
48	215	7	10000	3	1	0	3	0
46	216	7	10000	3	1	0	3	0
44	217	7	10000	3	1	0	3	0
45	218	7	10000	3	1	0	3	0
47	219	7	10000	3	1	0	3	0
48	220	7	10000	3	1	0	3	0
47	220	7	10000	3	1	0	3	0
49	221	7	10000	3	1	0	3	0
48	223	7	10000	3	1	0	3	0
46	224	7	10000	3	1	0	3	0
44	225	7	10000	3	1	0	3	0
43	226	7	10000	3	1	0	3	0
42	227	7	10000	3	1	0	3	0
42	228	7	10000	3	1	0	3	0
43	229	7	10000	3	1	0	3	0
47	230	7	10000	3	1	0	3	0
46	230	7	10000	3	1	0	3	0
43	231	7	10000	3	1	0	3	0
44	233	7	10000	3	1	0	3	0
45	234	7	10000	3	1	0	3	0
46	235	7	10000	3	1	0	3	0
45	236	7	10000	3	1	0	3	0
45	237	7	10000	3	1	0	3	0
44	238	7	10000	3	1	0	3	0
44	239	7	10000	3	1	0	3	0
42	240	7	10000	3	1	0	3	0
41	240	7	10000	3	1	0	3	0
41	241	7	10000	3	1	0	3	0
40	243	7	10000	3	1	0	3	0
38	244	7	10000	3	1	0	3	0
38	245	7	10000	3	1	0	3	0
37	246	7	10000	3	1	0	3	0
36	247	7	10000	3	1	0	3	0
34	248	7	10000	3	1	0	3	0
34	249	7	10000	3	1	0	3	0
34	250	7	10000	3	1	0	3	0
36	250	7	10000	3	1	0	3	0
36	251	7	10000	3	1	0	3	0
37	253	7	10000	3	1	0	3	0
36	254	7	10000	3	1	0	3	0
35	255	7	10000	3	1	0	3	0
34	256	7	10000	3	1	0	3	0
35	257	7	10000	3	1	0	3	0
36	258	7	10000	3	1	0	3	0
39	259	7	10000	3	1	0	3	0
38	260	7	10000	3	1	0	3	0
37	260	7	10000	3	1	0	3	0
38	261	7	10000	3	1	0	3	0
38	263	7	10000	3	1	0	3	0
41	264	7	10000	3	1	0	3	0
41	265	7	10000	3	1	0	3	0
40	266	7	10000	3	1	0	3	0
40	267	7	10000	3	1	0	3	0
40	268	7	10000	3	1	0	3	0
44	269	7	10000	3	1	0	3	0
48	270	7	10000	3	1	0	3	0
52	270	7	10000	3	1	0	3	0
49	271	7	10000	3	1	0	3	0
48	273	7	10000	3	1	0	3	0
46	274	7	10000	3	1	0	3	0
50	275	7	10000	3	1	0	3	0
59	276	7	10000	3	1	0	3	0
63	277	7	10000	3	1	0	3	0
62	278	7	10000	3	1	0	3	0
60	279	7	10000	3	1	0	3	0
61	280	7	10000	3	1	0	3	0
70	280	7	10000	3	1	0	3	0
81	281	7	10000	3	1	0	3	0
84	283	7	10000	3	1	0	3	0
81	284	7	10000	3	1	0	3	0
78	285	7	10000	3	1	0	3	0
75	286	7	10000	3	1	0	3	0
73	287	7	10000	3	1	0	3	0
72	288	7	10000	3	1	0	3	0
70	289	7	10000	3	1	0	3	0
68	290	7	10000	3	1	0	3	0
69	290	7	10000	3	1	0	3	0
65	291	7	10000	3	1	0	3	0
66	293	7	10000	3	1	0	3	0
68	294	7	10000	3	1	0	3	0
71	295	7	10000	3	1	0	3	0
74	296	7	10000	3	1	0	3	0
76	297	7	10000	3	1	0	3	0
74	298	7	10000	3	1	0	3	0
70	299	7	10000	3	1	0	3	0
68	300	7	10000	3	1	0	3	0
65	300	7	10000	3	1	0	3	0
64	301	7	10000	3	1	0	3	0
64	303	7	10000	3	1	0	3	0
64	304	7	10000	3	1	0	3	0
65	305	7	10000	3	1	0	3	0
62	306	7	10000	3	1	0	3	0
60	307	7	10000	3	1	0	3	0
58	308	7	10000	3	1	0	3	0
59	309	7	10000	3	1	0	3	0
58	310	7	10000	3	1	0	3	0
57	310	7	10000	3	1	0	3	0
54	311	7	10000	3	1	0	3	0
51	313	7	10000	3	1	0	3	0
49	314	7	10000	3	1	0	3	0
52	315	7	10000	3	1	0	3	0
55	316	7	10000	3	1	0	3	0
57	317	7	10000	3	1	0	3	0
58	318	7	10000	3	1	0	3	0
56	319	7	10000	3	1	0	3	0
54	320	7	10000	3	1	0	3	0
54	320	7	10000	3	1	0	3	0
56	321	7	10000	3	1	0	3	0
59	323	7	10000	3	1	0	3	0
60	324	7	10000	3	1	0	3	0
59	325	7	10000	3	1	0	3	0
60	326	7	10000	3	1	0	3	0
60	327	7	10000	3	1	0	3	0
61	328	7	10000	3	1	0	3	0
59	329	7	10000	3	1	0	3	0
58	330	7	10000	3	1	0	3	0
57	330	7	10000	3	1	0	3	0
55	331	7	10000	3	1	0	3	0
53	333	7	10000	3	1	0	3	0
51	334	7	10000	3	1	0	3	0
50	335	7	10000	3	1	0	3	0
50	336	7	10000	3	1	0	3	0
49	337	7	10000	3	1	0	3	0
51	338	7	10000	3	1	0	3	0
55	339	7	10000	3	1	0	3	0
61	340	7	10000	3	1	0	3	0
63	340	7	10000	3	1	0	3	0
66	341	7	10000	3	1	0	3	0
68	343	7	10000	3	1	0	3	0
69	344	7	10000	3	1	0	3	0
69	345	7	10000	3	1	0	3	0
66	346	7	10000	3	1	0	3	0
67	347	7	10000	3	1	0	3	0
69	348	7	10000	3	1	0	3	0
68	349	7	10000	3	1	0	3	0
67	350	7	10000	3	1	0	3	0
64	350	7	10000	3	1	0	3	0
61	351	7	10000	3	1	0	3	0
60	353	7	10000	3	1	0	3	0
61	354	7	10000	3	1	0	3	0
61	355	7	10000	3	1	0	3	0
64	356	7	10000	3	1	0	3	0
66	357	7	10000	3	1	0	3	0
65	358	7	10000	3	1	0	3	0
64	359	7	10000	3	1	0	3	0
62	360	7	10000	3	1	0	3	0
66	360	7	10000	3	1	0	3	0
69	361	7	10000	3	1	0	3	0
67	363	7	10000	3	1	0	3	0
66	364	7	10000	3	1	0	3	0
63	365	7	10000	3	1	0	3	0
60	366	7	10000	3	1	0	3	0
58	367	7	10000	3	1	0	3	0
57	368	7	10000	3	1	0	3	0
56	369	7	10000	3	1	0	3	0
59	370	7	10000	3	1	0	3	0
63	370	7	10000	3	1	0	3	0
61	371	7	10000	3	1	0	3	0
58	373	7	10000	3	1	0	3	0
56	374	7	10000	3	1	0	3	0
56	375	7	10000	3	1	0	3	0
54	376	7	10000	3	1	0	3	0
54	377	7	10000	3	1	0	3	0
54	378	7	10000	3	1	0	3	0
51	379	7	10000	3	1	0	3	0
48	380	7	10000	3	1	0	3	0
46	380	7	10000	3	1	0	3	0
46	381	7	10000	3	1	0	3	0
49	383	7	10000	3	1	0	3	0
47	384	7	10000	3	1	0	3	0
45	385	7	10000	3	1	0	3	0
45	386	7	10000	3	1	0	3	0
49	387	7	10000	3	1	0	3	0
50	388	7	10000	3	1	0	3	0
49	389	7	10000	3	1	0	3	0
48	390	7	10000	3	1	0	3	0
47	390	7	10000	3	1	0	3	0
46	391	7	10000	3	1	0	3	0
44	393	7	10000	3	1	0	3	0
45	394	7	10000	3	1	0	3	0
48	395	7	10000	3	1	0	3	0
50	396	7	10000	3	1	0	3	0
51	397	7	10000	3	1	0	3	0
49	398	7	10000	3	1	0	3	0
50	399	7	10000	3	1	0	3	0
55	400	7	10000	3	1	0	3	0
57	400	7	10000	3	1	0	3	0
59	401	7	10000	3	1	0	3	0
58	403	7	10000	3	1	0	3	0
56	404	7	10000	3	1	0	3	0
53	405	7	10000	3	1	0	3	0
52	406	7	10000	3	1	0	3	0
50	407	7	10000	3	1	0	3	0
49	408	7	10000	3	1	0	3	0
49	409	7	10000	3	1	0	3	0
49	410	7	10000	3	1	0	3	0
48	410	7	10000	3	1	0	3	0
45	411	7	10000	3	1	0	3	0
43	413	7	10000	3	1	0	3	0
44	414	7	10000	3	1	0	3	0
45	415	7	10000	3	1	0	3	0
44	416	7	10000	3	1	0	3	0
45	417	7	10000	3	1	0	3	0
45	418	7	10000	3	1	0	3	0
43	419	7	10000	3	1	0	3	0
43	420	7	10000	3	1	0	3	0
43	420	7	10000	3	1	0	3	0
45	421	7	10000	3	1	0	3	0
44	423	7	10000	3	1	0	3	0
43	424	7	10000	3	1	0	3	0
41	425	7	10000	3	1	0	3	0
41	426	7	10000	3	1	0	3	0
41	427	7	10000	3	1	0	3	0
41	428	7	10000	3	1	0	3	0
41	429	7	10000	3	1	0	3	0
40	430	7	10000	3	1	0	3	0
39	430	7	10000	3	1	0	3	0
37	431	7	10000	3	1	0	3	0
38	433	7	10000	3	1	0	3	0
37	434	7	10000	3	1	0	3	0
39	435	7	10000	3	1	0	3	0
40	436	7	10000	3	1	0	3	0
39	437	7	10000	3	1	0	3	0
40	438	7	10000	3	1	0	3	0
38	439	7	10000	3	1	0	3	0
36	440	7	10000	3	1	0	3	0
35	440	7	10000	3	1	0	3	0
37	441	7	10000	3	1	0	3	0
37	443	7	10000	3	1	0	3	0
37	444	7	10000	3	1	0	3	0
35	445	7	10000	3	1	0	3	0
35	446	7	10000	3	1	0	3	0
39	447	7	10000	3	1	0	3	0
41	448	7	10000	3	1	0	3	0
41	449	7	10000	3	1	0	3	0
41	450	7	10000	3	1	0	3	0
39	450	7	10000	3	1	0	3	0
38	451	7	10000	3	1	0	3	0
38	453	7	10000	3	1	0	3	0
39	454	7	10000	3	1	0	3	0
38	455	7	10000	3	1	0	3	0
38	456	7	10000	3	1	0	3	0
37	457	7	10000	3	1	0	3	0
36	458	7	10000	3	1	0	3	0
34	459	7	10000	3	1	0	3	0
32	460	7	10000	3	1	0	3	0
31	460	7	10000	3	1	0	3	0
32	461	7	10000	3	1	0	3	0
31	463	7	10000	3	1	0	3	0
30	464	7	10000	3	1	0	3	0
31	465	7	10000	3	1	0	3	0
30	466	7	10000	3	1	0	3	0
29	467	7	10000	3	1	0	3	0
30	468	7	10000	3	1	0	3	0
32	469	7	10000	3	1	0	3	0
32	470	7	10000	3	1	0	3	0
32	470	7	10000	3	1	0	3	0
32	471	7	10000	3	1	0	3	0
34	473	7	10000	3	1	0	3	0
34	474	7	10000	3	1	0	3	0
33	475	7	10000	3	1	0	3	0
33	476	7	10000	3	1	0	3	0
32	477	7	10000	3	1	0	3	0
33	478	7	10000	3	1	0	3	0
33	479	7	10000	3	1	0	3	0
32	480	7	10000	3	1	0	3	0
30	480	7	10000	3	1	0	3	0
32	481	7	10000	3	1	0	3	0
32	483	7	10000	3	1	0	3	0
31	484	7	10000	3	1	0	3	0
32	485	7	10000	3	1	0	3	0
31	486	7	10000	3	1	0	3	0
32	487	7	10000	3	1	0	3	0
33	488	7	10000	3	1	0	3	0
32	489	7	10000	3	1	0	3	0
32	490	7	10000	3	1	0	3	0
34	490	7	10000	3	1	0	3	0
32	491	7	10000	3	1	0	3	0
35	493	7	10000	3	1	0	3	0
40	494	7	10000	3	1	0	3	0
41	495	7	10000	3	1	0	3	0
42	496	7	10000	3	1	0	3	0
45	497	7	10000	3	1	0	3	0
45	498	7	10000	3	1	0	3	0
44	499	7	10000	3	1	0	3	0
44	500	7	10000	3	1	0	3	0
46	500	7	10000	3	1	0	3	0
47	501	7	10000	3	1	0	3	0
45	503	7	10000	3	1	0	3	1
45	504	7	10000	3	1	0	3	1
50	505	7	10000	3	1	0	3	1
52	506	7	10000	3	1	0	3	1
56	507	7	10000	3	1	0	3	1
61	508	7	10000	3	1	0	3	1
61	509	7	10000	3	1	0	3	1
61	510	7	10000	3	1	0	3	1
64	510	7	10000	3	1	0	3	1
65	511	7	10000	3	1	0	3	1
65	513	7	10000	3	1	0	3	1
65	514	7	10000	3	1	0	3	1
63	515	7	10000	3	1	0	3	1
62	516	7	10000	3	1	0	3	1
60	517	7	10000	3	1	0	3	1
58	518	7	10000	3	1	0	3	1
56	519	7	10000	3	1	0	3	1
53	520	7	10000	3	1	0	3	1
52	520	7	10000	3	1	0	3	1
51	521	7	10000	3	1	0	3	1
50	523	7	10000	3	1	0	3	1
49	524	7	10000	3	1	0	3	1
48	525	7	10000	3	1	0	3	1
47	526	7	10000	3	1	0	3	1
45	527	7	10000	3	1	0	3	1
44	528	7	10000	3	1	0	3	1
44	529	7	10000	3	1	0	3	1
44	530	7	10000	3	1	0	3	1
44	530	7	10000	3	1	0	3	1
44	531	7	10000	3	1	0	3	1
42	533	7	10000	3	1	0	3	1
42	534	7	10000	3	1	0	3	1
42	535	7	10000	3	1	0	3	1
40	536	7	10000	3	1	0	3	1
38	537	7	10000	3	1	0	3	1
39	538	7	10000	3	1	0	3	1
38	539	7	10000	3	1	0	3	1
39	540	7	10000	3	1	0	3	1
39	540	7	10000	3	1	0	3	1
40	541	7	10000	3	1	0	3	1
42	543	7	10000	3	1	0	3	1
41	544	7	10000	3	1	0	3	1
41	545	7	10000	3	1	0	3	1
39	546	7	10000	3	1	0	3	1
38	547	7	10000	3	1	0	3	1
39	548	7	10000	3	1	0	3	1
42	549	7	10000	3	1	0	3	1
43	550	7	10000	3	1	0	3	1
44	550	7	10000	3	1	0	3	1
43	551	7	10000	3	1	0	3	1
41	553	7	10000	3	1	0	3	0
41	554	7	10000	3	1	0	3	0
44	555	7	10000	3	1	0	3	0
47	556	7	10000	3	1	0	3	0
46	557	7	10000	3	1	0	3	0
46	558	7	10000	3	1	0	3	0
45	559	7	10000	3	1	0	3	0
44	560	7	10000	3	1	0	3	0
44	560	7	10000	3	1	0	3	0
45	561	7	10000	3	1	0	3	0
46	563	7	10000	3	1	0	3	0
45	564	7	10000	3	1	0	3	0
43	565	7	10000	3	1	0	3	0
42	566	7	10000	3	1	0	3	0
41	567	7	10000	3	1	0	3	0
40	568	7	10000	3	1	0	3	0
40	569	7	10000	3	1	0	3	0
43	570	7	10000	3	1	0	3	0
42	570	7	10000	3	1	0	3	0
40	571	7	10000	3	1	0	3	0
40	573	7	10000	3	1	0	3	0
40	574	7	10000	3	1	0	3	0
41	575	7	10000	3	1	0	3	0
52	576	7	10000	3	1	0	3	0
59	577	7	10000	3	1	0	3	0
61	578	7	10000	3	1	0	3	0
60	579	7	10000	3	1	0	3	0
61	580	7	10000	3	1	0	3	0
70	580	7	10000	3	1	0	3	0
80	581	7	10000	3	1	0	3	0
88	583	7	10000	3	1	0	3	0
93	584	7	10000	3	1	0	3	0
105	585	7	10000	3	1	0	3	0
126	586	7	10000	3	1	0	3	0
143	587	7	10000	3	1	0	3	0
171	588	7	10000	3	1	0	3	0
190	589	7	10000	3	1	0	3	0
194	590	7	10000	3	1	0	3	0
220	590	7	10000	3	1	0	3	0
246	591	7	10000	3	1	0	3	0
259	593	7	10000	3	1	0	3	0
256	594	7	10000	3	1	0	3	0
252	595	7	10000	3	1	0	3	0
244	596	7	10000	3	1	0	3	0
234	597	7	10000	3	1	0	3	0
231	598	7	10000	3	1	0	3	0
224	599	7	10000	3	1	0	3	0
220	600	7	10000	3	1	0	3	0
233	600	7	10000	3	1	0	3	0
266	601	7	10000	3	1	0	3	0
297	603	7	10000	3	1	0	3	0
384	604	7	10000	3	1	0	3	0
399	605	7	10000	3	1	0	3	0
416	606	7	10000	3	1	0	3	0
417	607	7	10000	3	1	0	3	0
438	608	7	10000	3	1	0	3	0
527	609	7	10000	3	1	0	3	0
598	610	7	10000	3	1	0	3	0
590	610	7	10000	3	1	0	3	0
598	611	7	10000	3	1	0	3	0
596	613	7	10000	3	1	0	3	0
577	614	7	10000	3	1	0	3	0
569	615	7	10000	3	1	0	3	0
607	616	7	10000	3	1	0	3	0
653	617	7	10000	3	1	0	3	0
679	618	7	10000	3	1	0	3	0
689	619	7	10000	3	1	0	3	0
681	620	7	10000	3	1	0	3	0
654	620	7	10000	3	1	0	3	0
627	621	7	10000	3	1	0	3	0
609	623	7	10000	3	1	0	3	0
591	624	7	10000	3	1	0	3	0
573	625	7	10000	3	1	0	3	0
561	626	7	10000	3	1	0	3	0
551	627	7	10000	3	1	0	3	0
541	628	7	10000	3	1	0	3	0
533	629	7	10000	3	1	0	3	0
526	630	7	10000	3	1	0	3	0
520	630	7	10000	3	1	0	3	0
511	631	7	10000	3	1	0	3	0
501	633	7	10000	3	1	0	3	0
490	634	7	10000	3	1	0	3	0
481	635	7	10000	3	1	0	3	0
468	636	7	10000	3	1	0	3	0
450	637	7	10000	3	1	0	3	0
432	638	7	10000	3	1	0	3	0
415	639	7	10000	3	1	0	3	0
397	640	7	10000	3	1	0	3	0
379	640	7	10000	3	1	0	3	0
364	641	7	10000	3	1	0	3	0
350	643	7	10000	3	1	0	3	0
336	644	7	10000	3	1	0	3	0
329	645	7	10000	3	1	0	3	0
328	646	7	10000	3	1	0	3	0
332	647	7	10000	3	1	0	3	0
340	648	7	10000	3	1	0	3	0
348	649	7	10000	3	1	0	3	0
360	650	7	10000	3	1	0	3	0
374	650	7	10000	3	1	0	3	0
390	651	7	10000	3	1	0	3	0
405	653	7	10000	3	1	0	3	0
422	654	7	10000	3	1	0	3	0
438	655	7	10000	3	1	0	3	0
454	656	7	10000	3	1	0	3	0
470	657	7	10000	3	1	0	3	0
483	658	7	10000	3	1	0	3	0
495	659	7	10000	3	1	0	3	0
506	660	7	10000	3	1	0	3	0
517	660	7	10000	3	1	0	3	0
528	661	7	10000	3	1	0	3	0
535	663	7	10000	3	1	0	3	0
541	664	7	10000	3	1	0	3	0
548	665	7	10000	3	1	0	3	0
555	666	7	10000	3	1	0	3	0
561	667	7	10000	3	1	0	3	0
564	668	7	10000	3	1	0	3	0
564	669	7	10000	3	1	0	3	0
564	670	7	10000	3	1	0	3	0
559	670	7	10000	3	1	0	3	0
547	671	7	10000	3	1	0	3	0
530	673	7	10000	3	1	0	3	0
513	674	7	10000	3	1	0	3	0
496	675	7	10000	3	1	0	3	0
475	676	7	10000	3	1	0	3	0
454	677	7	10000	3	1	0	3	0
435	678	7	10000	3	1	0	3	0
418	679	7	10000	3	1	0	3	0
401	680	7	10000	3	1	0	3	0
387	680	7	10000	3	1	0	3	0
375	681	7	10000	3	1	0	3	0
361	683	7	10000	3	1	0	3	0
346	684	7	10000	3	1	0	3	0
334	685	7	10000	3	1	0	3	0
325	686	7	10000	3	1	0	3	0
318	687	7	10000	3	1	0	3	0
309	688	7	10000	3	1	0	3	0
299	689	7	10000	3	1	0	3	0
294	690	7	10000	3	1	0	3	0
291	690	7	10000	3	1	0	3	0
288	691	7	10000	3	1	0	3	0
285	693	7	10000	3	1	0	3	0
286	694	7	10000	3	1	0	3	0
289	695	7	10000	3	1	0	3	0
291	696	7	10000	3	1	0	3	0
291	697	7	10000	3	1	0	3	0
290	698	7	10000	3	1	0	3	0
292	699	7	10000	3	1	0	3	0
293	700	7	10000	3	1	0	3	0
293	700	7	10000	3	1	0	3	0
293	701	7	10000	3	1	0	3	0
291	703	7	10000	3	1	0	3	0
290	704	7	10000	3	1	0	3	0
288	705	7	10000	3	1	0	3	0
283	706	7	10000	3	1	0	3	0
275	707	7	10000	3	1	0	3	0
271	708	7	10000	3	1	0	3	0
267	709	7	10000	3	1	0	3	0
264	710	7	10000	3	1	0	3	0
262	710	7	10000	3	1	0	3	0
256	711	7	10000	3	1	0	3	0
256	713	7	10000	3	1	0	3	0
257	714	7	10000	3	1	0	3	0
258	715	7	10000	3	1	0	3	0
255	716	7	10000	3	1	0	3	0
254	717	7	10000	3	1	0	3	0
256	718	7	10000	3	1	0	3	0
256	719	7	10000	3	1	0	3	0
256	720	7	10000	3	1	0	3	0
251	720	7	10000	3	1	0	3	0
249	721	7	10000	3	1	0	3	0
246	723	7	10000	3	1	0	3	0
240	724	7	10000	3	1	0	3	0
233	725	7	10000	3	1	0	3	0
226	726	7	10000	3	1	0	3	0
221	727	7	10000	3	1	0	3	0
214	728	7	10000	3	1	0	3	0
207	729	7	10000	3	1	0	3	0
198	730	7	10000	3	1	0	3	0
194	730	7	10000	3	1	0	3	0
189	731	7	10000	3	1	0	3	0
186	733	7	10000	3	1	0	3	0
181	734	7	10000	3	1	0	3	0
176	735	7	10000	3	1	0	3	0
171	736	7	10000	3	1	0	3	0
165	737	7	10000	3	1	0	3	0
163	738	7	10000	3	1	0	3	0
161	739	7	10000	3	1	0	3	0
157	740	7	10000	3	1	0	3	0
154	740	7	10000	3	1	0	3	0
159	741	7	10000	3	1	0	3	0
162	743	7	10000	3	1	0	3	0
163	744	7	10000	3	1	0	3	0
168	745	7	10000	3	1	0	3	0
170	746	7	10000	3	1	0	3	0
165	747	7	10000	3	1	0	3	0
161	748	7	10000	3	1	0	3	0
160	749	7	10000	3	1	0	3	0
156	750	7	10000	3	1	0	3	0
152	750	7	10000	3	1	0	3	0
145	751	7	10000	3	1	0	3	0
137	753	7	10000	3	1	0	3	0
135	754	7	10000	3	1	0	3	0
133	755	7	10000	3	1	0	3	0
131	756	7	10000	3	1	0	3	0
129	757	7	10000	3	1	0	3	0
127	758	7	10000	3	1	0	3	0
123	759	7	10000	3	1	0	3	0
118	760	7	10000	3	1	0	3	0
116	760	7	10000	3	1	0	3	0
118	761	7	10000	3	1	0	3	0
125	763	7	10000	3	1	0	3	0
126	764	7	10000	3	1	0	3	0
121	765	7	10000	3	1	0	3	0
120	766	7	10000	3	1	0	3	0
123	767	7	10000	3	1	0	3	0
124	768	7	10000	3	1	0	3	0
126	769	7	10000	3	1	0	3	0
127	770	7	10000	3	1	0	3	0
126	770	7	10000	3	1	0	3	0
120	771	7	10000	3	1	0	3	0
117	773	7	10000	3	1	0	3	0
116	774	7	10000	3	1	0	3	0
113	775	7	10000	3	1	0	3	0
109	776	7	10000	3	1	0	3	0
110	777	7	10000	3	1	0	3	0
112	778	7	10000	3	1	0	3	0
111	779	7	10000	3	1	0	3	0
107	780	7	10000	3	1	0	3	0
104	780	7	10000	3	1	0	3	0
101	781	7	10000	3	1	0	3	0
98	783	7	10000	3	1	0	3	0
96	784	7	10000	3	1	0	3	0
94	785	7	10000	3	1	0	3	0
92	786	7	10000	3	1	0	3	0
89	787	7	10000	3	1	0	3	0
86	788	7	10000	3	1	0	3	0
83	789	7	10000	3	1	0	3	0
82	790	7	10000	3	1	0	3	0
80	790	7	10000	3	1	0	3	0
78	791	7	10000	3	1	0	3	0
76	793	7	10000	3	1	0	3	0
75	794	7	10000	3	1	0	3	0
73	795	7	10000	3	1	0	3	0
71	796	7	10000	3	1	0	3	0
68	797	7	10000	3	1	0	3	0
66	798	7	10000	3	1	0	3	0
64	799	7	10000	3	1	0	3	0
62	800	7	10000	3	1	0	3	0
59	800	7	10000	3	1	0	3	0
59	801	7	10000	3	1	0	3	0
60	803	7	10000	3	1	0	3	0
59	804	7	10000	3	1	0	3	0
58	805	7	10000	3	1	0	3	0
57	806	7	10000	3	1	0	3	0
59	807	7	10000	3	1	0	3	0
58	808	7	10000	3	1	0	3	0
60	809	7	10000	3	1	0	3	0
64	810	7	10000	3	1	0	3	0
65	810	7	10000	3	1	0	3	0
64	811	7	10000	3	1	0	3	0
63	813	7	10000	3	1	0	3	0
65	814	7	10000	3	1	0	3	0
65	815	7	10000	3	1	0	3	0
63	816	7	10000	3	1	0	3	0
62	817	7	10000	3	1	0	3	0
62	818	7	10000	3	1	0	3	0
62	819	7	10000	3	1	0	3	0
62	820	7	10000	3	1	0	3	0
59	820	7	10000	3	1	0	3	0
59	821	7	10000	3	1	0	3	0
59	823	7	10000	3	1	0	3	0
56	824	7	10000	3	1	0	3	0
55	825	7	10000	3	1	0	3	0
56	826	7	10000	3	1	0	3	0
60	827	7	10000	3	1	0	3	0
59	828	7	10000	3	1	0	3	0
59	829	7	10000	3	1	0	3	0
66	830	7	10000	3	1	0	3	0
73	830	7	10000	3	1	0	3	0
74	831	7	10000	3	1	0	3	0
77	833	7	10000	3	1	0	3	0
82	834	7	10000	3	1	0	3	0
82	835	7	10000	3	1	0	3	0
80	836	7	10000	3	1	0	3	0
80	837	7	10000	3	1	0	3	0
79	838	7	10000	3	1	0	3	0
75	839	7	10000	3	1	0	3	0
76	840	7	10000	3	1	0	3	0
73	840	7	10000	3	1	0	3	0
73	841	7	10000	3	1	0	3	0
72	843	7	10000	3	1	0	3	0
68	844	7	10000	3	1	0	3	0
67	845	7	10000	3	1	0	3	0
64	846	7	10000	3	1	0	3	0
64	847	7	10000	3	1	0	3	0
66	848	7	10000	3	1	0	3	0
69	849	7	10000	3	1	0	3	0
68	850	7	10000	3	1	0	3	0
67	850	7	10000	3	1	0	3	0
64	851	7	10000	3	1	0	3	0
61	853	7	10000	3	1	0	3	0
62	854	7	10000	3	1	0	3	0
63	855	7	10000	3	1	0	3	0
67	856	7	10000	3	1	0	3	0
69	857	7	10000	3	1	0	3	0
70	858	7	10000	3	1	0	3	0
68	859	7	10000	3	1	0	3	0
65	860	7	10000	3	1	0	3	0
66	860	7	10000	3	1	0	3	0
69	861	7	10000	3	1	0	3	0
68	863	7	10000	3	1	0	3	0
64	864	7	10000	3	1	0	3	0
61	865	7	10000	3	1	0	3	0
60	866	7	10000	3	1	0	3	0
59	867	7	10000	3	1	0	3	0
57	868	7	10000	3	1	0	3	0
56	869	7	10000	3	1	0	3	0
58	870	7	10000	3	1	0	3	0
61	870	7	10000	3	1	0	3	0
59	871	7	10000	3	1	0	3	0
55	873	7	10000	3	1	0	3	0
54	874	7	10000	3	1	0	3	0
54	875	7	10000	3	1	0	3	0
54	876	7	10000	3	1	0	3	0
52	877	7	10000	3	1	0	3	0
54	878	7	10000	3	1	0	3	0
54	879	7	10000	3	1	0	3	0
53	880	7	10000	3	1	0	3	0
54	880	7	10000	3	1	0	3	0
53	881	7	10000	3	1	0	3	0
52	883	7	10000	3	1	0	3	0
52	884	7	10000	3	1	0	3	0
51	885	7	10000	3	1	0	3	0
49	886	7	10000	3	1	0	3	0
49	887	7	10000	3	1	0	3	0
49	888	7	10000	3	1	0	3	0
51	889	7	10000	3	1	0	3	0
51	890	7	10000	3	1	0	3	0
50	890	7	10000	3	1	0	3	0
47	891	7	10000	3	1	0	3	0
46	893	7	10000	3	1	0	3	0
45	894	7	10000	3	1	0	3	0
45	895	7	10000	3	1	0	3	0
44	896	7	10000	3	1	0	3	0
44	897	7	10000	3	1	0	3	0
47	898	7	10000	3	1	0	3	0
46	899	7	10000	3	1	0	3	0
47	900	7	10000	3	1	0	3	0
49	900	7	10000	3	1	0	3	0
49	901	7	10000	3	1	0	3	0
50	903	7	10000	3	1	0	3	0
50	904	7	10000	3	1	0	3	0
51	905	7	10000	3	1	0	3	0
50	906	7	10000	3	1	0	3	0
49	907	7	10000	3	1	0	3	0
47	908	7	10000	3	1	0	3	0
45	909	7	10000	3	1	0	3	0
44	910	7	10000	3	1	0	3	0
46	910	7	10000	3	1	0	3	0
44	911	7	10000	3	1	0	3	0
46	913	7	10000	3	1	0	3	0
47	914	7	10000	3	1	0	3	0
47	915	7	10000	3	1	0	3	0
47	916	7	10000	3	1	0	3	0
45	917	7	10000	3	1	0	3	0
44	918	7	10000	3	1	0	3	0
46	919	7	10000	3	1	0	3	0
45	920	7	10000	3	1	0	3	0
43	920	7	10000	3	1	0	3	0
43	921	7	10000	3	1	0	3	0
42	923	7	10000	3	1	0	3	0
39	924	7	10000	3	1	0	3	0
42	925	7	10000	3	1	0	3	0
42	926	7	10000	3	1	0	3	0
43	927	7	10000	3	1	0	3	0
46	928	7	10000	3	1	0	3	0
48	929	7	10000	3	1	0	3	0
53	930	7	10000	3	1	0	3	0
54	930	7	10000	3	1	0	3	0
51	931	7	10000	3	1	0	3	0
51	933	7	10000	3	1	0	3	0
51	934	7	10000	3	1	0	3	0
53	935	7	10000	3	1	0	3	0
57	936	7	10000	3	1	0	3	0
62	937	7	10000	3	1	0	3	0
65	938	7	10000	3	1	0	3	0
64	939	7	10000	3	1	0	3	0
65	940	7	10000	3	1	0	3	0
65	940	7	10000	3	1	0	3	0
66	941	7	10000	3	1	0	3	0
67	943	7	10000	3	1	0	3	0
64	944	7	10000	3	1	0	3	0
61	945	7	10000	3	1	0	3	0
59	946	7	10000	3	1	0	3	0
59	947	7	10000	3	1	0	3	0
61	948	7	10000	3	1	0	3	0
59	949	7	10000	3	1	0	3	0
59	950	7	10000	3	1	0	3	0
57	950	7	10000	3	1	0	3	0
55	951	7	10000	3	1	0	3	0
54	953	7	10000	3	1	0	3	0
53	954	7	10000	3	1	0	3	0
51	955	7	10000	3	1	0	3	0
49	956	7	10000	3	1	0	3	0
49	957	7	10000	3	1	0	3	0
49	958	7	10000	3	1	0	3	0
50	959	7	10000	3	1	0	3	0
52	960	7	10000	3	1	0	3	0
53	960	7	10000	3	1	0	3	0
56	961	7	10000	3	1	0	3	0
58	963	7	10000	3	1	0	3	0
56	964	7	10000	3	1	0	3	0
54	965	7	10000	3	1	0	3	0
57	966	7	10000	3	1	0	3	0
60	967	7	10000	3	1	0	3	0
57	968	7	10000	3	1	0	3	0
56	969	7	10000	3	1	0	3	0
54	970	7	10000	3	1	0	3	0
54	970	7	10000	3	1	0	3	0
52	971	7	10000	3	1	0	3	0
49	973	7	10000	3	1	0	3	0
48	974	7	10000	3	1	0	3	0
46	975	7	10000	3	1	0	3	0
45	976	7	10000	3	1	0	3	0
47	977	7	10000	3	1	0	3	0
48	978	7	10000	3	1	0	3	0
47	979	7	10000	3	1	0	3	0
46	980	7	10000	3	1	0	3	0
44	980	7	10000	3	1	0	3	0
44	981	7	10000	3	1	0	3	0
44	983	7	10000	3	1	0	3	0
46	984	7	10000	3	1	0	3	0
52	985	7	10000	3	1	0	3	0
52	986	7	10000	3	1	0	3	0
50	987	7	10000	3	1	0	3	0
50	988	7	10000	3	1	0	3	0
47	989	7	10000	3	1	0	3	0
47	990	7	10000	3	1	0	3	0
45	990	7	10000	3	1	0	3	0
42	991	7	10000	3	1	0	3	0
40	993	7	10000	3	1	0	3	0
40	994	7	10000	3	1	0	3	0
38	995	7	10000	3	1	0	3	0
38	996	7	10000	3	1	0	3	0
42	997	7	10000	3	1	0	3	0
45	998	7	10000	3	1	0	3	0
43	999	7	10000	3	1	0	3	0
44	1000	7	10000	3	1	0	3	0
47	1000	7	10000	3	1	0	3	0
55	1001	7	10000	3	1	0	3	0
25	1	0	10000	4	1	0	4	0
26	2	0	10000	4	1	0	4	0
24	3	0	10000	4	1	0	4	0
25	4	0	10000	4	1	0	4	0
28	5	0	10000	4	1	0	4	0
29	6	0	10000	4	1	0	4	0
26	7	0	10000	4	1	0	4	0
25	8	0	10000	4	1	0	4	0
25	9	0	10000	4	1	0	4	0
27	10	0	10000	4	1	0	4	0
26	11	0	10000	4	1	0	4	0
25	12	0	10000	4	1	0	4	0
25	13	0	10000	4	1	0	4	0
25	14	0	10000	4	1	0	4	0
24	15	0	10000	4	1	0	4	0
23	16	0	10000	4	1	0	4	0
24	17	0	10000	4	1	0	4	0
24	18	0	10000	4	1	0	4	0
24	19	0	10000	4	1	0	4	0
24	20	0	10000	4	1	0	4	0
22	21	0	10000	4	1	0	4	0
23	22	0	10000	4	1	0	4	0
22	23	0	10000	4	1	0	4	0
22	24	0	10000	4	1	0	4	0
21	25	0	10000	4	1	0	4	0
22	26	0	10000	4	1	0	4	0
21	27	0	10000	4	1	0	4	0
20	28	0	10000	4	1	0	4	0
22	29	0	10000	4	1	0	4	0
23	30	0	10000	4	1	0	4	0
23	31	0	10000	4	1	0	4	0
23	32	0	10000	4	1	0	4	0
24	33	0	10000	4	1	0	4	0
24	34	0	10000	4	1	0	4	0
23	35	0	10000	4	1	0	4	0
22	36	0	10000	4	1	0	4	0
23	37	0	10000	4	1	0	4	0
23	38	0	10000	4	1	0	4	0
24	39	0	10000	4	1	0	4	0
24	40	0	10000	4	1	0	4	0
22	41	0	10000	4	1	0	4	0
21	42	0	10000	4	1	0	4	0
22	43	0	10000	4	1	0	4	0
23	44	0	10000	4	1	0	4	0
23	45	0	10000	4	1	0	4	0
24	46	0	10000	4	1	0	4	0
21	47	0	10000	4	1	0	4	0
20	48	0	10000	4	1	0	4	0
22	49	0	10000	4	1	0	4	0
21	50	0	10000	4	1	0	4	0
21	51	0	10000	4	1	0	4	0
22	52	0	10000	4	1	0	4	0
22	53	0	10000	4	1	0	4	0
21	54	0	10000	4	1	0	4	0
20	55	0	10000	4	1	0	4	0
19	56	0	10000	4	1	0	4	0
20	57	0	10000	4	1	0	4	0
21	58	0	10000	4	1	0	4	0
20	59	0	10000	4	1	0	4	0
19	60	0	10000	4	1	0	4	0
19	61	0	10000	4	1	0	4	0
20	62	0	10000	4	1	0	4	0
20	63	0	10000	4	1	0	4	0
20	64	0	10000	4	1	0	4	0
21	65	0	10000	4	1	0	4	0
22	66	0	10000	4	1	0	4	0
20	67	0	10000	4	1	0	4	0
19	68	0	10000	4	1	0	4	0
19	69	0	10000	4	1	0	4	0
19	70	0	10000	4	1	0	4	0
20	71	0	10000	4	1	0	4	0
22	72	0	10000	4	1	0	4	0
23	73	0	10000	4	1	0	4	0
23	74	0	10000	4	1	0	4	0
24	75	0	10000	4	1	0	4	0
24	76	0	10000	4	1	0	4	0
25	77	0	10000	4	1	0	4	0
24	78	0	10000	4	1	0	4	0
24	79	0	10000	4	1	0	4	0
24	80	0	10000	4	1	0	4	0
24	81	0	10000	4	1	0	4	0
23	82	0	10000	4	1	0	4	0
24	83	0	10000	4	1	0	4	0
25	84	0	10000	4	1	0	4	0
25	85	0	10000	4	1	0	4	0
26	86	0	10000	4	1	0	4	0
26	87	0	10000	4	1	0	4	0
24	88	0	10000	4	1	0	4	0
24	89	0	10000	4	1	0	4	0
26	90	0	10000	4	1	0	4	0
26	91	0	10000	4	1	0	4	0
26	92	0	10000	4	1	0	4	0
27	93	0	10000	4	1	0	4	0
27	94	0	10000	4	1	0	4	0
27	95	0	10000	4	1	0	4	0
28	96	0	10000	4	1	0	4	0
30	97	0	10000	4	1	0	4	0
33	98	0	10000	4	1	0	4	0
32	99	0	10000	4	1	0	4	0
32	100	0	10000	4	1	0	4	0
34	101	0	10000	4	1	0	4	0
34	102	0	10000	4	1	0	4	0
32	103	0	10000	4	1	0	4	0
31	104	0	10000	4	1	0	4	0
32	105	0	10000	4	1	0	4	0
32	106	0	10000	4	1	0	4	0
30	107	0	10000	4	1	0	4	0
28	108	0	10000	4	1	0	4	0
29	109	0	10000	4	1	0	4	0
30	110	0	10000	4	1	0	4	0
30	111	0	10000	4	1	0	4	0
29	112	0	10000	4	1	0	4	0
29	113	0	10000	4	1	0	4	0
27	114	0	10000	4	1	0	4	0
27	115	0	10000	4	1	0	4	0
26	116	0	10000	4	1	0	4	0
27	117	0	10000	4	1	0	4	0
28	118	0	10000	4	1	0	4	0
30	119	0	10000	4	1	0	4	0
29	120	0	10000	4	1	0	4	0
27	121	0	10000	4	1	0	4	0
27	122	0	10000	4	1	0	4	0
26	123	0	10000	4	1	0	4	0
26	124	0	10000	4	1	0	4	0
26	125	0	10000	4	1	0	4	0
25	126	0	10000	4	1	0	4	0
23	127	0	10000	4	1	0	4	0
23	128	0	10000	4	1	0	4	0
23	129	0	10000	4	1	0	4	0
22	130	0	10000	4	1	0	4	0
25	131	0	10000	4	1	0	4	0
26	132	0	10000	4	1	0	4	0
26	133	0	10000	4	1	0	4	0
26	134	0	10000	4	1	0	4	0
24	135	0	10000	4	1	0	4	0
24	136	0	10000	4	1	0	4	0
26	137	0	10000	4	1	0	4	0
25	138	0	10000	4	1	0	4	0
24	139	0	10000	4	1	0	4	0
25	140	0	10000	4	1	0	4	0
25	141	0	10000	4	1	0	4	0
27	142	0	10000	4	1	0	4	0
28	143	0	10000	4	1	0	4	0
29	144	0	10000	4	1	0	4	0
33	145	0	10000	4	1	0	4	0
34	146	0	10000	4	1	0	4	0
32	147	0	10000	4	1	0	4	0
30	148	0	10000	4	1	0	4	0
30	149	0	10000	4	1	0	4	0
30	150	0	10000	4	1	0	4	0
28	151	0	10000	4	1	0	4	0
29	152	0	10000	4	1	0	4	0
29	153	0	10000	4	1	0	4	0
29	154	0	10000	4	1	0	4	0
28	155	0	10000	4	1	0	4	0
26	156	0	10000	4	1	0	4	0
27	157	0	10000	4	1	0	4	0
28	158	0	10000	4	1	0	4	0
28	159	0	10000	4	1	0	4	0
27	160	0	10000	4	1	0	4	0
26	161	0	10000	4	1	0	4	0
27	162	0	10000	4	1	0	4	0
26	163	0	10000	4	1	0	4	0
26	164	0	10000	4	1	0	4	0
27	165	0	10000	4	1	0	4	0
27	166	0	10000	4	1	0	4	0
25	167	0	10000	4	1	0	4	0
25	168	0	10000	4	1	0	4	0
25	169	0	10000	4	1	0	4	0
24	170	0	10000	4	1	0	4	0
26	171	0	10000	4	1	0	4	0
26	172	0	10000	4	1	0	4	0
26	173	0	10000	4	1	0	4	0
26	174	0	10000	4	1	0	4	0
27	175	0	10000	4	1	0	4	0
26	176	0	10000	4	1	0	4	0
29	177	0	10000	4	1	0	4	0
30	178	0	10000	4	1	0	4	0
29	179	0	10000	4	1	0	4	0
27	180	0	10000	4	1	0	4	0
27	181	0	10000	4	1	0	4	0
27	182	0	10000	4	1	0	4	0
27	183	0	10000	4	1	0	4	0
29	184	0	10000	4	1	0	4	0
28	185	0	10000	4	1	0	4	0
27	186	0	10000	4	1	0	4	0
26	187	0	10000	4	1	0	4	0
25	188	0	10000	4	1	0	4	0
25	189	0	10000	4	1	0	4	0
25	190	0	10000	4	1	0	4	0
25	191	0	10000	4	1	0	4	0
24	192	0	10000	4	1	0	4	0
25	193	0	10000	4	1	0	4	0
24	194	0	10000	4	1	0	4	0
24	195	0	10000	4	1	0	4	0
24	196	0	10000	4	1	0	4	0
27	197	0	10000	4	1	0	4	0
27	198	0	10000	4	1	0	4	0
26	199	0	10000	4	1	0	4	0
26	200	0	10000	4	1	0	4	0
25	201	0	10000	4	1	0	4	0
25	202	0	10000	4	1	0	4	0
25	203	0	10000	4	1	0	4	0
26	204	0	10000	4	1	0	4	0
26	205	0	10000	4	1	0	4	0
27	206	0	10000	4	1	0	4	0
24	207	0	10000	4	1	0	4	0
24	208	0	10000	4	1	0	4	0
26	209	0	10000	4	1	0	4	0
26	210	0	10000	4	1	0	4	0
26	211	0	10000	4	1	0	4	0
28	212	0	10000	4	1	0	4	0
29	213	0	10000	4	1	0	4	0
28	214	0	10000	4	1	0	4	0
28	215	0	10000	4	1	0	4	0
27	216	0	10000	4	1	0	4	0
28	217	0	10000	4	1	0	4	0
28	218	0	10000	4	1	0	4	0
28	219	0	10000	4	1	0	4	0
27	220	0	10000	4	1	0	4	0
27	221	0	10000	4	1	0	4	0
27	222	0	10000	4	1	0	4	0
25	223	0	10000	4	1	0	4	0
26	224	0	10000	4	1	0	4	0
30	225	0	10000	4	1	0	4	0
29	226	0	10000	4	1	0	4	0
28	227	0	10000	4	1	0	4	0
33	228	0	10000	4	1	0	4	0
34	229	0	10000	4	1	0	4	0
33	230	0	10000	4	1	0	4	0
36	231	0	10000	4	1	0	4	0
36	232	0	10000	4	1	0	4	0
37	233	0	10000	4	1	0	4	0
38	234	0	10000	4	1	0	4	0
36	235	0	10000	4	1	0	4	0
37	236	0	10000	4	1	0	4	0
41	237	0	10000	4	1	0	4	0
42	238	0	10000	4	1	0	4	0
40	239	0	10000	4	1	0	4	0
41	240	0	10000	4	1	0	4	0
45	241	0	10000	4	1	0	4	0
49	242	0	10000	4	1	0	4	0
53	243	0	10000	4	1	0	4	0
68	244	0	10000	4	1	0	4	0
90	245	0	10000	4	1	0	4	0
103	246	0	10000	4	1	0	4	0
102	247	0	10000	4	1	0	4	0
107	248	0	10000	4	1	0	4	0
108	249	0	10000	4	1	0	4	0
106	250	0	10000	4	1	0	4	0
111	251	0	10000	4	1	0	4	0
116	252	0	10000	4	1	0	4	0
118	253	0	10000	4	1	0	4	0
116	254	0	10000	4	1	0	4	0
117	255	0	10000	4	1	0	4	0
117	256	0	10000	4	1	0	4	0
133	257	0	10000	4	1	0	4	0
167	258	0	10000	4	1	0	4	0
190	259	0	10000	4	1	0	4	0
191	260	0	10000	4	1	0	4	0
202	261	0	10000	4	1	0	4	0
223	262	0	10000	4	1	0	4	0
241	263	0	10000	4	1	0	4	0
257	264	0	10000	4	1	0	4	0
268	265	0	10000	4	1	0	4	0
273	266	0	10000	4	1	0	4	0
269	267	0	10000	4	1	0	4	0
259	268	0	10000	4	1	0	4	0
251	269	0	10000	4	1	0	4	0
250	270	0	10000	4	1	0	4	0
245	271	0	10000	4	1	0	4	0
239	272	0	10000	4	1	0	4	0
229	273	0	10000	4	1	0	4	0
226	274	0	10000	4	1	0	4	0
243	275	0	10000	4	1	0	4	0
262	276	0	10000	4	1	0	4	0
278	277	0	10000	4	1	0	4	0
273	278	0	10000	4	1	0	4	0
269	279	0	10000	4	1	0	4	0
259	280	0	10000	4	1	0	4	0
248	281	0	10000	4	1	0	4	0
242	282	0	10000	4	1	0	4	0
232	283	0	10000	4	1	0	4	0
223	284	0	10000	4	1	0	4	0
218	285	0	10000	4	1	0	4	0
213	286	0	10000	4	1	0	4	0
214	287	0	10000	4	1	0	4	0
212	288	0	10000	4	1	0	4	0
205	289	0	10000	4	1	0	4	0
205	290	0	10000	4	1	0	4	0
208	291	0	10000	4	1	0	4	0
205	292	0	10000	4	1	0	4	0
197	293	0	10000	4	1	0	4	0
195	294	0	10000	4	1	0	4	0
191	295	0	10000	4	1	0	4	0
183	296	0	10000	4	1	0	4	0
179	297	0	10000	4	1	0	4	0
176	298	0	10000	4	1	0	4	0
176	299	0	10000	4	1	0	4	0
179	300	0	10000	4	1	0	4	0
186	301	0	10000	4	1	0	4	0
193	302	0	10000	4	1	0	4	0
193	303	0	10000	4	1	0	4	0
191	304	0	10000	4	1	0	4	0
191	305	0	10000	4	1	0	4	0
193	306	0	10000	4	1	0	4	0
187	307	0	10000	4	1	0	4	0
190	308	0	10000	4	1	0	4	0
206	309	0	10000	4	1	0	4	0
206	310	0	10000	4	1	0	4	0
219	311	0	10000	4	1	0	4	0
234	312	0	10000	4	1	0	4	0
241	313	0	10000	4	1	0	4	0
240	314	0	10000	4	1	0	4	0
237	315	0	10000	4	1	0	4	0
230	316	0	10000	4	1	0	4	0
222	317	0	10000	4	1	0	4	0
216	318	0	10000	4	1	0	4	0
210	319	0	10000	4	1	0	4	0
201	320	0	10000	4	1	0	4	0
199	321	0	10000	4	1	0	4	0
193	322	0	10000	4	1	0	4	0
189	323	0	10000	4	1	0	4	0
188	324	0	10000	4	1	0	4	0
186	325	0	10000	4	1	0	4	0
182	326	0	10000	4	1	0	4	0
174	327	0	10000	4	1	0	4	0
171	328	0	10000	4	1	0	4	0
173	329	0	10000	4	1	0	4	0
174	330	0	10000	4	1	0	4	0
171	331	0	10000	4	1	0	4	0
168	332	0	10000	4	1	0	4	0
167	333	0	10000	4	1	0	4	0
166	334	0	10000	4	1	0	4	0
166	335	0	10000	4	1	0	4	0
164	336	0	10000	4	1	0	4	0
165	337	0	10000	4	1	0	4	0
164	338	0	10000	4	1	0	4	0
160	339	0	10000	4	1	0	4	0
158	340	0	10000	4	1	0	4	0
153	341	0	10000	4	1	0	4	0
152	342	0	10000	4	1	0	4	0
147	343	0	10000	4	1	0	4	0
141	344	0	10000	4	1	0	4	0
135	345	0	10000	4	1	0	4	0
132	346	0	10000	4	1	0	4	0
126	347	0	10000	4	1	0	4	0
120	348	0	10000	4	1	0	4	0
116	349	0	10000	4	1	0	4	0
113	350	0	10000	4	1	0	4	0
113	351	0	10000	4	1	0	4	0
110	352	0	10000	4	1	0	4	0
109	353	0	10000	4	1	0	4	0
110	354	0	10000	4	1	0	4	0
113	355	0	10000	4	1	0	4	0
115	356	0	10000	4	1	0	4	0
118	357	0	10000	4	1	0	4	0
118	358	0	10000	4	1	0	4	0
120	359	0	10000	4	1	0	4	0
123	360	0	10000	4	1	0	4	0
124	361	0	10000	4	1	0	4	0
127	362	0	10000	4	1	0	4	0
131	363	0	10000	4	1	0	4	0
134	364	0	10000	4	1	0	4	0
137	365	0	10000	4	1	0	4	0
139	366	0	10000	4	1	0	4	0
139	367	0	10000	4	1	0	4	0
140	368	0	10000	4	1	0	4	0
142	369	0	10000	4	1	0	4	0
144	370	0	10000	4	1	0	4	0
148	371	0	10000	4	1	0	4	0
152	372	0	10000	4	1	0	4	0
152	373	0	10000	4	1	0	4	0
149	374	0	10000	4	1	0	4	0
145	375	0	10000	4	1	0	4	0
142	376	0	10000	4	1	0	4	0
141	377	0	10000	4	1	0	4	0
136	378	0	10000	4	1	0	4	0
131	379	0	10000	4	1	0	4	0
128	380	0	10000	4	1	0	4	0
125	381	0	10000	4	1	0	4	0
120	382	0	10000	4	1	0	4	0
115	383	0	10000	4	1	0	4	0
111	384	0	10000	4	1	0	4	0
107	385	0	10000	4	1	0	4	0
104	386	0	10000	4	1	0	4	0
102	387	0	10000	4	1	0	4	0
100	388	0	10000	4	1	0	4	0
100	389	0	10000	4	1	0	4	0
97	390	0	10000	4	1	0	4	0
98	391	0	10000	4	1	0	4	0
98	392	0	10000	4	1	0	4	0
99	393	0	10000	4	1	0	4	0
98	394	0	10000	4	1	0	4	0
100	395	0	10000	4	1	0	4	0
101	396	0	10000	4	1	0	4	0
102	397	0	10000	4	1	0	4	0
101	398	0	10000	4	1	0	4	0
99	399	0	10000	4	1	0	4	0
98	400	0	10000	4	1	0	4	0
99	401	0	10000	4	1	0	4	0
99	402	0	10000	4	1	0	4	0
98	403	0	10000	4	1	0	4	0
100	404	0	10000	4	1	0	4	0
102	405	0	10000	4	1	0	4	0
106	406	0	10000	4	1	0	4	0
107	407	0	10000	4	1	0	4	0
107	408	0	10000	4	1	0	4	0
110	409	0	10000	4	1	0	4	0
112	410	0	10000	4	1	0	4	0
111	411	0	10000	4	1	0	4	0
109	412	0	10000	4	1	0	4	0
110	413	0	10000	4	1	0	4	0
109	414	0	10000	4	1	0	4	0
107	415	0	10000	4	1	0	4	0
104	416	0	10000	4	1	0	4	0
105	417	0	10000	4	1	0	4	0
105	418	0	10000	4	1	0	4	0
104	419	0	10000	4	1	0	4	0
101	420	0	10000	4	1	0	4	0
98	421	0	10000	4	1	0	4	0
99	422	0	10000	4	1	0	4	0
99	423	0	10000	4	1	0	4	0
99	424	0	10000	4	1	0	4	0
98	425	0	10000	4	1	0	4	0
99	426	0	10000	4	1	0	4	0
99	427	0	10000	4	1	0	4	0
99	428	0	10000	4	1	0	4	0
96	429	0	10000	4	1	0	4	0
95	430	0	10000	4	1	0	4	0
96	431	0	10000	4	1	0	4	0
96	432	0	10000	4	1	0	4	0
94	433	0	10000	4	1	0	4	0
92	434	0	10000	4	1	0	4	0
90	435	0	10000	4	1	0	4	0
88	436	0	10000	4	1	0	4	0
86	437	0	10000	4	1	0	4	0
83	438	0	10000	4	1	0	4	0
80	439	0	10000	4	1	0	4	0
78	440	0	10000	4	1	0	4	0
76	441	0	10000	4	1	0	4	0
73	442	0	10000	4	1	0	4	0
71	443	0	10000	4	1	0	4	0
72	444	0	10000	4	1	0	4	0
72	445	0	10000	4	1	0	4	0
70	446	0	10000	4	1	0	4	0
67	447	0	10000	4	1	0	4	0
68	448	0	10000	4	1	0	4	0
68	449	0	10000	4	1	0	4	0
67	450	0	10000	4	1	0	4	0
65	451	0	10000	4	1	0	4	0
66	452	0	10000	4	1	0	4	0
65	453	0	10000	4	1	0	4	0
65	454	0	10000	4	1	0	4	0
62	455	0	10000	4	1	0	4	0
59	456	0	10000	4	1	0	4	0
59	457	0	10000	4	1	0	4	0
57	458	0	10000	4	1	0	4	0
54	459	0	10000	4	1	0	4	0
53	460	0	10000	4	1	0	4	0
52	461	0	10000	4	1	0	4	0
51	462	0	10000	4	1	0	4	0
50	463	0	10000	4	1	0	4	0
48	464	0	10000	4	1	0	4	0
49	465	0	10000	4	1	0	4	0
50	466	0	10000	4	1	0	4	0
50	467	0	10000	4	1	0	4	0
48	468	0	10000	4	1	0	4	0
47	469	0	10000	4	1	0	4	0
48	470	0	10000	4	1	0	4	0
49	471	0	10000	4	1	0	4	0
48	472	0	10000	4	1	0	4	0
46	473	0	10000	4	1	0	4	0
46	474	0	10000	4	1	0	4	0
45	475	0	10000	4	1	0	4	0
43	476	0	10000	4	1	0	4	0
44	477	0	10000	4	1	0	4	0
45	478	0	10000	4	1	0	4	0
45	479	0	10000	4	1	0	4	0
46	480	0	10000	4	1	0	4	0
45	481	0	10000	4	1	0	4	0
44	482	0	10000	4	1	0	4	0
41	483	0	10000	4	1	0	4	0
40	484	0	10000	4	1	0	4	0
39	485	0	10000	4	1	0	4	0
40	486	0	10000	4	1	0	4	0
38	487	0	10000	4	1	0	4	0
36	488	0	10000	4	1	0	4	0
36	489	0	10000	4	1	0	4	0
36	490	0	10000	4	1	0	4	0
35	491	0	10000	4	1	0	4	0
35	492	0	10000	4	1	0	4	0
34	493	0	10000	4	1	0	4	0
33	494	0	10000	4	1	0	4	0
33	495	0	10000	4	1	0	4	0
31	496	0	10000	4	1	0	4	0
32	497	0	10000	4	1	0	4	0
32	498	0	10000	4	1	0	4	0
31	499	0	10000	4	1	0	4	0
31	500	0	10000	4	1	0	4	0
30	501	0	10000	4	1	0	4	1
28	502	0	10000	4	1	0	4	1
28	503	0	10000	4	1	0	4	1
28	504	0	10000	4	1	0	4	1
28	505	0	10000	4	1	0	4	1
28	506	0	10000	4	1	0	4	1
28	507	0	10000	4	1	0	4	1
26	508	0	10000	4	1	0	4	1
26	509	0	10000	4	1	0	4	1
26	510	0	10000	4	1	0	4	1
27	511	0	10000	4	1	0	4	1
26	512	0	10000	4	1	0	4	1
26	513	0	10000	4	1	0	4	1
26	514	0	10000	4	1	0	4	1
24	515	0	10000	4	1	0	4	1
25	516	0	10000	4	1	0	4	1
26	517	0	10000	4	1	0	4	1
26	518	0	10000	4	1	0	4	1
25	519	0	10000	4	1	0	4	1
25	520	0	10000	4	1	0	4	1
25	521	0	10000	4	1	0	4	1
24	522	0	10000	4	1	0	4	1
23	523	0	10000	4	1	0	4	1
22	524	0	10000	4	1	0	4	1
24	525	0	10000	4	1	0	4	1
23	526	0	10000	4	1	0	4	1
22	527	0	10000	4	1	0	4	1
23	528	0	10000	4	1	0	4	1
23	529	0	10000	4	1	0	4	1
22	530	0	10000	4	1	0	4	1
25	531	0	10000	4	1	0	4	1
25	532	0	10000	4	1	0	4	1
26	533	0	10000	4	1	0	4	1
28	534	0	10000	4	1	0	4	1
27	535	0	10000	4	1	0	4	1
26	536	0	10000	4	1	0	4	1
27	537	0	10000	4	1	0	4	1
30	538	0	10000	4	1	0	4	1
32	539	0	10000	4	1	0	4	1
30	540	0	10000	4	1	0	4	1
30	541	0	10000	4	1	0	4	1
31	542	0	10000	4	1	0	4	1
32	543	0	10000	4	1	0	4	1
30	544	0	10000	4	1	0	4	1
30	545	0	10000	4	1	0	4	1
30	546	0	10000	4	1	0	4	1
28	547	0	10000	4	1	0	4	1
28	548	0	10000	4	1	0	4	1
27	549	0	10000	4	1	0	4	1
26	550	0	10000	4	1	0	4	1
27	551	0	10000	4	1	0	4	0
27	552	0	10000	4	1	0	4	0
26	553	0	10000	4	1	0	4	0
25	554	0	10000	4	1	0	4	0
24	555	0	10000	4	1	0	4	0
23	556	0	10000	4	1	0	4	0
24	557	0	10000	4	1	0	4	0
24	558	0	10000	4	1	0	4	0
24	559	0	10000	4	1	0	4	0
26	560	0	10000	4	1	0	4	0
27	561	0	10000	4	1	0	4	0
26	562	0	10000	4	1	0	4	0
26	563	0	10000	4	1	0	4	0
26	564	0	10000	4	1	0	4	0
28	565	0	10000	4	1	0	4	0
27	566	0	10000	4	1	0	4	0
25	567	0	10000	4	1	0	4	0
23	568	0	10000	4	1	0	4	0
24	569	0	10000	4	1	0	4	0
24	570	0	10000	4	1	0	4	0
23	571	0	10000	4	1	0	4	0
22	572	0	10000	4	1	0	4	0
22	573	0	10000	4	1	0	4	0
23	574	0	10000	4	1	0	4	0
24	575	0	10000	4	1	0	4	0
23	576	0	10000	4	1	0	4	0
27	577	0	10000	4	1	0	4	0
34	578	0	10000	4	1	0	4	0
47	579	0	10000	4	1	0	4	0
70	580	0	10000	4	1	0	4	0
104	581	0	10000	4	1	0	4	0
116	582	0	10000	4	1	0	4	0
114	583	0	10000	4	1	0	4	0
115	584	0	10000	4	1	0	4	0
113	585	0	10000	4	1	0	4	0
144	586	0	10000	4	1	0	4	0
193	587	0	10000	4	1	0	4	0
217	588	0	10000	4	1	0	4	0
221	589	0	10000	4	1	0	4	0
240	590	0	10000	4	1	0	4	0
320	591	0	10000	4	1	0	4	0
349	592	0	10000	4	1	0	4	0
345	593	0	10000	4	1	0	4	0
348	594	0	10000	4	1	0	4	0
348	595	0	10000	4	1	0	4	0
368	596	0	10000	4	1	0	4	0
413	597	0	10000	4	1	0	4	0
449	598	0	10000	4	1	0	4	0
509	599	0	10000	4	1	0	4	0
505	600	0	10000	4	1	0	4	0
508	601	0	10000	4	1	0	4	0
516	602	0	10000	4	1	0	4	0
539	603	0	10000	4	1	0	4	0
561	604	0	10000	4	1	0	4	0
559	605	0	10000	4	1	0	4	0
566	606	0	10000	4	1	0	4	0
690	607	0	10000	4	1	0	4	0
782	608	0	10000	4	1	0	4	0
875	609	0	10000	4	1	0	4	0
962	610	0	10000	4	1	0	4	0
946	611	0	10000	4	1	0	4	0
980	612	0	10000	4	1	0	4	0
1039	613	0	10000	4	1	0	4	0
1077	614	0	10000	4	1	0	4	0
1091	615	0	10000	4	1	0	4	0
1081	616	0	10000	4	1	0	4	0
1056	617	0	10000	4	1	0	4	0
1015	618	0	10000	4	1	0	4	0
978	619	0	10000	4	1	0	4	0
952	620	0	10000	4	1	0	4	0
931	621	0	10000	4	1	0	4	0
913	622	0	10000	4	1	0	4	0
897	623	0	10000	4	1	0	4	0
881	624	0	10000	4	1	0	4	0
867	625	0	10000	4	1	0	4	0
853	626	0	10000	4	1	0	4	0
838	627	0	10000	4	1	0	4	0
823	628	0	10000	4	1	0	4	0
808	629	0	10000	4	1	0	4	0
791	630	0	10000	4	1	0	4	0
772	631	0	10000	4	1	0	4	0
755	632	0	10000	4	1	0	4	0
736	633	0	10000	4	1	0	4	0
711	634	0	10000	4	1	0	4	0
685	635	0	10000	4	1	0	4	0
658	636	0	10000	4	1	0	4	0
629	637	0	10000	4	1	0	4	0
603	638	0	10000	4	1	0	4	0
583	639	0	10000	4	1	0	4	0
565	640	0	10000	4	1	0	4	0
553	641	0	10000	4	1	0	4	0
549	642	0	10000	4	1	0	4	0
550	643	0	10000	4	1	0	4	0
554	644	0	10000	4	1	0	4	0
560	645	0	10000	4	1	0	4	0
568	646	0	10000	4	1	0	4	0
576	647	0	10000	4	1	0	4	0
584	648	0	10000	4	1	0	4	0
590	649	0	10000	4	1	0	4	0
594	650	0	10000	4	1	0	4	0
599	651	0	10000	4	1	0	4	0
605	652	0	10000	4	1	0	4	0
609	653	0	10000	4	1	0	4	0
612	654	0	10000	4	1	0	4	0
613	655	0	10000	4	1	0	4	0
616	656	0	10000	4	1	0	4	0
621	657	0	10000	4	1	0	4	0
622	658	0	10000	4	1	0	4	0
622	659	0	10000	4	1	0	4	0
624	660	0	10000	4	1	0	4	0
630	661	0	10000	4	1	0	4	0
636	662	0	10000	4	1	0	4	0
643	663	0	10000	4	1	0	4	0
649	664	0	10000	4	1	0	4	0
660	665	0	10000	4	1	0	4	0
670	666	0	10000	4	1	0	4	0
675	667	0	10000	4	1	0	4	0
678	668	0	10000	4	1	0	4	0
681	669	0	10000	4	1	0	4	0
682	670	0	10000	4	1	0	4	0
677	671	0	10000	4	1	0	4	0
666	672	0	10000	4	1	0	4	0
652	673	0	10000	4	1	0	4	0
636	674	0	10000	4	1	0	4	0
615	675	0	10000	4	1	0	4	0
592	676	0	10000	4	1	0	4	0
570	677	0	10000	4	1	0	4	0
550	678	0	10000	4	1	0	4	0
527	679	0	10000	4	1	0	4	0
505	680	0	10000	4	1	0	4	0
480	681	0	10000	4	1	0	4	0
458	682	0	10000	4	1	0	4	0
439	683	0	10000	4	1	0	4	0
418	684	0	10000	4	1	0	4	0
400	685	0	10000	4	1	0	4	0
383	686	0	10000	4	1	0	4	0
366	687	0	10000	4	1	0	4	0
353	688	0	10000	4	1	0	4	0
345	689	0	10000	4	1	0	4	0
338	690	0	10000	4	1	0	4	0
332	691	0	10000	4	1	0	4	0
328	692	0	10000	4	1	0	4	0
326	693	0	10000	4	1	0	4	0
325	694	0	10000	4	1	0	4	0
325	695	0	10000	4	1	0	4	0
324	696	0	10000	4	1	0	4	0
326	697	0	10000	4	1	0	4	0
328	698	0	10000	4	1	0	4	0
327	699	0	10000	4	1	0	4	0
323	700	0	10000	4	1	0	4	0
321	701	0	10000	4	1	0	4	0
318	702	0	10000	4	1	0	4	0
312	703	0	10000	4	1	0	4	0
305	704	0	10000	4	1	0	4	0
299	705	0	10000	4	1	0	4	0
296	706	0	10000	4	1	0	4	0
293	707	0	10000	4	1	0	4	0
289	708	0	10000	4	1	0	4	0
283	709	0	10000	4	1	0	4	0
281	710	0	10000	4	1	0	4	0
279	711	0	10000	4	1	0	4	0
278	712	0	10000	4	1	0	4	0
277	713	0	10000	4	1	0	4	0
277	714	0	10000	4	1	0	4	0
277	715	0	10000	4	1	0	4	0
277	716	0	10000	4	1	0	4	0
275	717	0	10000	4	1	0	4	0
274	718	0	10000	4	1	0	4	0
273	719	0	10000	4	1	0	4	0
270	720	0	10000	4	1	0	4	0
267	721	0	10000	4	1	0	4	0
260	722	0	10000	4	1	0	4	0
255	723	0	10000	4	1	0	4	0
250	724	0	10000	4	1	0	4	0
245	725	0	10000	4	1	0	4	0
237	726	0	10000	4	1	0	4	0
230	727	0	10000	4	1	0	4	0
224	728	0	10000	4	1	0	4	0
220	729	0	10000	4	1	0	4	0
217	730	0	10000	4	1	0	4	0
214	731	0	10000	4	1	0	4	0
213	732	0	10000	4	1	0	4	0
213	733	0	10000	4	1	0	4	0
213	734	0	10000	4	1	0	4	0
211	735	0	10000	4	1	0	4	0
212	736	0	10000	4	1	0	4	0
212	737	0	10000	4	1	0	4	0
212	738	0	10000	4	1	0	4	0
208	739	0	10000	4	1	0	4	0
203	740	0	10000	4	1	0	4	0
201	741	0	10000	4	1	0	4	0
197	742	0	10000	4	1	0	4	0
190	743	0	10000	4	1	0	4	0
183	744	0	10000	4	1	0	4	0
178	745	0	10000	4	1	0	4	0
172	746	0	10000	4	1	0	4	0
166	747	0	10000	4	1	0	4	0
157	748	0	10000	4	1	0	4	0
153	749	0	10000	4	1	0	4	0
151	750	0	10000	4	1	0	4	0
149	751	0	10000	4	1	0	4	0
146	752	0	10000	4	1	0	4	0
143	753	0	10000	4	1	0	4	0
142	754	0	10000	4	1	0	4	0
141	755	0	10000	4	1	0	4	0
141	756	0	10000	4	1	0	4	0
140	757	0	10000	4	1	0	4	0
141	758	0	10000	4	1	0	4	0
140	759	0	10000	4	1	0	4	0
136	760	0	10000	4	1	0	4	0
130	761	0	10000	4	1	0	4	0
125	762	0	10000	4	1	0	4	0
122	763	0	10000	4	1	0	4	0
118	764	0	10000	4	1	0	4	0
114	765	0	10000	4	1	0	4	0
110	766	0	10000	4	1	0	4	0
105	767	0	10000	4	1	0	4	0
100	768	0	10000	4	1	0	4	0
95	769	0	10000	4	1	0	4	0
92	770	0	10000	4	1	0	4	0
91	771	0	10000	4	1	0	4	0
88	772	0	10000	4	1	0	4	0
87	773	0	10000	4	1	0	4	0
87	774	0	10000	4	1	0	4	0
87	775	0	10000	4	1	0	4	0
90	776	0	10000	4	1	0	4	0
92	777	0	10000	4	1	0	4	0
93	778	0	10000	4	1	0	4	0
91	779	0	10000	4	1	0	4	0
89	780	0	10000	4	1	0	4	0
85	781	0	10000	4	1	0	4	0
82	782	0	10000	4	1	0	4	0
80	783	0	10000	4	1	0	4	0
79	784	0	10000	4	1	0	4	0
77	785	0	10000	4	1	0	4	0
75	786	0	10000	4	1	0	4	0
71	787	0	10000	4	1	0	4	0
68	788	0	10000	4	1	0	4	0
66	789	0	10000	4	1	0	4	0
64	790	0	10000	4	1	0	4	0
61	791	0	10000	4	1	0	4	0
59	792	0	10000	4	1	0	4	0
59	793	0	10000	4	1	0	4	0
58	794	0	10000	4	1	0	4	0
56	795	0	10000	4	1	0	4	0
53	796	0	10000	4	1	0	4	0
54	797	0	10000	4	1	0	4	0
54	798	0	10000	4	1	0	4	0
52	799	0	10000	4	1	0	4	0
52	800	0	10000	4	1	0	4	0
52	801	0	10000	4	1	0	4	0
50	802	0	10000	4	1	0	4	0
48	803	0	10000	4	1	0	4	0
47	804	0	10000	4	1	0	4	0
48	805	0	10000	4	1	0	4	0
47	806	0	10000	4	1	0	4	0
47	807	0	10000	4	1	0	4	0
45	808	0	10000	4	1	0	4	0
46	809	0	10000	4	1	0	4	0
44	810	0	10000	4	1	0	4	0
45	811	0	10000	4	1	0	4	0
46	812	0	10000	4	1	0	4	0
46	813	0	10000	4	1	0	4	0
46	814	0	10000	4	1	0	4	0
48	815	0	10000	4	1	0	4	0
48	816	0	10000	4	1	0	4	0
48	817	0	10000	4	1	0	4	0
48	818	0	10000	4	1	0	4	0
48	819	0	10000	4	1	0	4	0
47	820	0	10000	4	1	0	4	0
45	821	0	10000	4	1	0	4	0
46	822	0	10000	4	1	0	4	0
44	823	0	10000	4	1	0	4	0
44	824	0	10000	4	1	0	4	0
44	825	0	10000	4	1	0	4	0
47	826	0	10000	4	1	0	4	0
50	827	0	10000	4	1	0	4	0
48	828	0	10000	4	1	0	4	0
47	829	0	10000	4	1	0	4	0
45	830	0	10000	4	1	0	4	0
46	831	0	10000	4	1	0	4	0
44	832	0	10000	4	1	0	4	0
43	833	0	10000	4	1	0	4	0
43	834	0	10000	4	1	0	4	0
40	835	0	10000	4	1	0	4	0
40	836	0	10000	4	1	0	4	0
40	837	0	10000	4	1	0	4	0
41	838	0	10000	4	1	0	4	0
40	839	0	10000	4	1	0	4	0
39	840	0	10000	4	1	0	4	0
37	841	0	10000	4	1	0	4	0
36	842	0	10000	4	1	0	4	0
35	843	0	10000	4	1	0	4	0
36	844	0	10000	4	1	0	4	0
35	845	0	10000	4	1	0	4	0
34	846	0	10000	4	1	0	4	0
33	847	0	10000	4	1	0	4	0
32	848	0	10000	4	1	0	4	0
32	849	0	10000	4	1	0	4	0
31	850	0	10000	4	1	0	4	0
32	851	0	10000	4	1	0	4	0
32	852	0	10000	4	1	0	4	0
34	853	0	10000	4	1	0	4	0
35	854	0	10000	4	1	0	4	0
34	855	0	10000	4	1	0	4	0
33	856	0	10000	4	1	0	4	0
33	857	0	10000	4	1	0	4	0
35	858	0	10000	4	1	0	4	0
35	859	0	10000	4	1	0	4	0
34	860	0	10000	4	1	0	4	0
36	861	0	10000	4	1	0	4	0
40	862	0	10000	4	1	0	4	0
44	863	0	10000	4	1	0	4	0
49	864	0	10000	4	1	0	4	0
52	865	0	10000	4	1	0	4	0
51	866	0	10000	4	1	0	4	0
48	867	0	10000	4	1	0	4	0
47	868	0	10000	4	1	0	4	0
47	869	0	10000	4	1	0	4	0
45	870	0	10000	4	1	0	4	0
48	871	0	10000	4	1	0	4	0
47	872	0	10000	4	1	0	4	0
46	873	0	10000	4	1	0	4	0
48	874	0	10000	4	1	0	4	0
46	875	0	10000	4	1	0	4	0
44	876	0	10000	4	1	0	4	0
45	877	0	10000	4	1	0	4	0
46	878	0	10000	4	1	0	4	0
45	879	0	10000	4	1	0	4	0
48	880	0	10000	4	1	0	4	0
49	881	0	10000	4	1	0	4	0
48	882	0	10000	4	1	0	4	0
52	883	0	10000	4	1	0	4	0
56	884	0	10000	4	1	0	4	0
55	885	0	10000	4	1	0	4	0
54	886	0	10000	4	1	0	4	0
54	887	0	10000	4	1	0	4	0
53	888	0	10000	4	1	0	4	0
55	889	0	10000	4	1	0	4	0
54	890	0	10000	4	1	0	4	0
57	891	0	10000	4	1	0	4	0
61	892	0	10000	4	1	0	4	0
63	893	0	10000	4	1	0	4	0
61	894	0	10000	4	1	0	4	0
63	895	0	10000	4	1	0	4	0
62	896	0	10000	4	1	0	4	0
61	897	0	10000	4	1	0	4	0
61	898	0	10000	4	1	0	4	0
59	899	0	10000	4	1	0	4	0
60	900	0	10000	4	1	0	4	0
61	901	0	10000	4	1	0	4	0
66	902	0	10000	4	1	0	4	0
69	903	0	10000	4	1	0	4	0
72	904	0	10000	4	1	0	4	0
75	905	0	10000	4	1	0	4	0
76	906	0	10000	4	1	0	4	0
72	907	0	10000	4	1	0	4	0
69	908	0	10000	4	1	0	4	0
69	909	0	10000	4	1	0	4	0
68	910	0	10000	4	1	0	4	0
68	911	0	10000	4	1	0	4	0
66	912	0	10000	4	1	0	4	0
63	913	0	10000	4	1	0	4	0
62	914	0	10000	4	1	0	4	0
60	915	0	10000	4	1	0	4	0
58	916	0	10000	4	1	0	4	0
57	917	0	10000	4	1	0	4	0
60	918	0	10000	4	1	0	4	0
64	919	0	10000	4	1	0	4	0
67	920	0	10000	4	1	0	4	0
66	921	0	10000	4	1	0	4	0
64	922	0	10000	4	1	0	4	0
65	923	0	10000	4	1	0	4	0
66	924	0	10000	4	1	0	4	0
65	925	0	10000	4	1	0	4	0
70	926	0	10000	4	1	0	4	0
76	927	0	10000	4	1	0	4	0
77	928	0	10000	4	1	0	4	0
77	929	0	10000	4	1	0	4	0
78	930	0	10000	4	1	0	4	0
80	931	0	10000	4	1	0	4	0
80	932	0	10000	4	1	0	4	0
80	933	0	10000	4	1	0	4	0
78	934	0	10000	4	1	0	4	0
74	935	0	10000	4	1	0	4	0
71	936	0	10000	4	1	0	4	0
69	937	0	10000	4	1	0	4	0
68	938	0	10000	4	1	0	4	0
67	939	0	10000	4	1	0	4	0
68	940	0	10000	4	1	0	4	0
67	941	0	10000	4	1	0	4	0
66	942	0	10000	4	1	0	4	0
68	943	0	10000	4	1	0	4	0
68	944	0	10000	4	1	0	4	0
65	945	0	10000	4	1	0	4	0
63	946	0	10000	4	1	0	4	0
61	947	0	10000	4	1	0	4	0
59	948	0	10000	4	1	0	4	0
57	949	0	10000	4	1	0	4	0
56	950	0	10000	4	1	0	4	0
55	951	0	10000	4	1	0	4	0
54	952	0	10000	4	1	0	4	0
55	953	0	10000	4	1	0	4	0
62	954	0	10000	4	1	0	4	0
71	955	0	10000	4	1	0	4	0
73	956	0	10000	4	1	0	4	0
71	957	0	10000	4	1	0	4	0
78	958	0	10000	4	1	0	4	0
83	959	0	10000	4	1	0	4	0
84	960	0	10000	4	1	0	4	0
80	961	0	10000	4	1	0	4	0
82	962	0	10000	4	1	0	4	0
81	963	0	10000	4	1	0	4	0
80	964	0	10000	4	1	0	4	0
82	965	0	10000	4	1	0	4	0
84	966	0	10000	4	1	0	4	0
88	967	0	10000	4	1	0	4	0
90	968	0	10000	4	1	0	4	0
93	969	0	10000	4	1	0	4	0
96	970	0	10000	4	1	0	4	0
93	971	0	10000	4	1	0	4	0
93	972	0	10000	4	1	0	4	0
93	973	0	10000	4	1	0	4	0
89	974	0	10000	4	1	0	4	0
86	975	0	10000	4	1	0	4	0
84	976	0	10000	4	1	0	4	0
82	977	0	10000	4	1	0	4	0
81	978	0	10000	4	1	0	4	0
78	979	0	10000	4	1	0	4	0
76	980	0	10000	4	1	0	4	0
73	981	0	10000	4	1	0	4	0
72	982	0	10000	4	1	0	4	0
71	983	0	10000	4	1	0	4	0
70	984	0	10000	4	1	0	4	0
70	985	0	10000	4	1	0	4	0
69	986	0	10000	4	1	0	4	0
71	987	0	10000	4	1	0	4	0
70	988	0	10000	4	1	0	4	0
69	989	0	10000	4	1	0	4	0
66	990	0	10000	4	1	0	4	0
65	991	0	10000	4	1	0	4	0
64	992	0	10000	4	1	0	4	0
63	993	0	10000	4	1	0	4	0
63	994	0	10000	4	1	0	4	0
62	995	0	10000	4	1	0	4	0
64	996	0	10000	4	1	0	4	0
69	997	0	10000	4	1	0	4	0
74	998	0	10000	4	1	0	4	0
73	999	0	10000	4	1	0	4	0
70	1000	0	10000	4	1	0	4	0
43	2	7	10000	5	1	0	5	0
41	3	7	10000	5	1	0	5	0
40	4	7	10000	5	1	0	5	0
39	5	7	10000	5	1	0	5	0
37	6	7	10000	5	1	0	5	0
37	7	7	10000	5	1	0	5	0
36	8	7	10000	5	1	0	5	0
35	9	7	10000	5	1	0	5	0
35	10	7	10000	5	1	0	5	0
35	11	7	10000	5	1	0	5	0
34	12	7	10000	5	1	0	5	0
35	13	7	10000	5	1	0	5	0
34	14	7	10000	5	1	0	5	0
34	15	7	10000	5	1	0	5	0
33	16	7	10000	5	1	0	5	0
33	17	7	10000	5	1	0	5	0
31	18	7	10000	5	1	0	5	0
31	19	7	10000	5	1	0	5	0
30	20	7	10000	5	1	0	5	0
32	21	7	10000	5	1	0	5	0
33	22	7	10000	5	1	0	5	0
32	23	7	10000	5	1	0	5	0
35	24	7	10000	5	1	0	5	0
36	25	7	10000	5	1	0	5	0
37	26	7	10000	5	1	0	5	0
38	27	7	10000	5	1	0	5	0
38	28	7	10000	5	1	0	5	0
39	29	7	10000	5	1	0	5	0
39	30	7	10000	5	1	0	5	0
35	31	7	10000	5	1	0	5	0
36	32	7	10000	5	1	0	5	0
35	33	7	10000	5	1	0	5	0
34	34	7	10000	5	1	0	5	0
35	35	7	10000	5	1	0	5	0
33	36	7	10000	5	1	0	5	0
33	37	7	10000	5	1	0	5	0
33	38	7	10000	5	1	0	5	0
31	39	7	10000	5	1	0	5	0
31	40	7	10000	5	1	0	5	0
35	41	7	10000	5	1	0	5	0
33	42	7	10000	5	1	0	5	0
32	43	7	10000	5	1	0	5	0
32	44	7	10000	5	1	0	5	0
33	45	7	10000	5	1	0	5	0
32	46	7	10000	5	1	0	5	0
31	47	7	10000	5	1	0	5	0
30	48	7	10000	5	1	0	5	0
30	49	7	10000	5	1	0	5	0
29	50	7	10000	5	1	0	5	0
27	51	7	10000	5	1	0	5	0
27	52	7	10000	5	1	0	5	0
29	53	7	10000	5	1	0	5	0
29	54	7	10000	5	1	0	5	0
28	55	7	10000	5	1	0	5	0
28	56	7	10000	5	1	0	5	0
27	57	7	10000	5	1	0	5	0
25	58	7	10000	5	1	0	5	0
25	59	7	10000	5	1	0	5	0
24	60	7	10000	5	1	0	5	0
26	61	7	10000	5	1	0	5	0
31	62	7	10000	5	1	0	5	0
34	63	7	10000	5	1	0	5	0
33	64	7	10000	5	1	0	5	0
32	65	7	10000	5	1	0	5	0
33	66	7	10000	5	1	0	5	0
31	67	7	10000	5	1	0	5	0
32	68	7	10000	5	1	0	5	0
31	69	7	10000	5	1	0	5	0
33	70	7	10000	5	1	0	5	0
31	71	7	10000	5	1	0	5	0
29	72	7	10000	5	1	0	5	0
29	73	7	10000	5	1	0	5	0
29	74	7	10000	5	1	0	5	0
29	75	7	10000	5	1	0	5	0
28	76	7	10000	5	1	0	5	0
27	77	7	10000	5	1	0	5	0
26	78	7	10000	5	1	0	5	0
27	79	7	10000	5	1	0	5	0
26	80	7	10000	5	1	0	5	0
29	81	7	10000	5	1	0	5	0
31	82	7	10000	5	1	0	5	0
30	83	7	10000	5	1	0	5	0
29	84	7	10000	5	1	0	5	0
29	85	7	10000	5	1	0	5	0
27	86	7	10000	5	1	0	5	0
27	87	7	10000	5	1	0	5	0
28	88	7	10000	5	1	0	5	0
26	89	7	10000	5	1	0	5	0
27	90	7	10000	5	1	0	5	0
25	91	7	10000	5	1	0	5	0
26	92	7	10000	5	1	0	5	0
27	93	7	10000	5	1	0	5	0
26	94	7	10000	5	1	0	5	0
28	95	7	10000	5	1	0	5	0
28	96	7	10000	5	1	0	5	0
27	97	7	10000	5	1	0	5	0
27	98	7	10000	5	1	0	5	0
26	99	7	10000	5	1	0	5	0
26	100	7	10000	5	1	0	5	0
27	101	7	10000	5	1	0	5	0
28	102	7	10000	5	1	0	5	0
27	103	7	10000	5	1	0	5	0
27	104	7	10000	5	1	0	5	0
26	105	7	10000	5	1	0	5	0
25	106	7	10000	5	1	0	5	0
25	107	7	10000	5	1	0	5	0
27	108	7	10000	5	1	0	5	0
26	109	7	10000	5	1	0	5	0
25	110	7	10000	5	1	0	5	0
24	111	7	10000	5	1	0	5	0
25	112	7	10000	5	1	0	5	0
24	113	7	10000	5	1	0	5	0
24	114	7	10000	5	1	0	5	0
24	115	7	10000	5	1	0	5	0
23	116	7	10000	5	1	0	5	0
26	117	7	10000	5	1	0	5	0
27	118	7	10000	5	1	0	5	0
28	119	7	10000	5	1	0	5	0
27	120	7	10000	5	1	0	5	0
28	121	7	10000	5	1	0	5	0
29	122	7	10000	5	1	0	5	0
29	123	7	10000	5	1	0	5	0
28	124	7	10000	5	1	0	5	0
27	125	7	10000	5	1	0	5	0
27	126	7	10000	5	1	0	5	0
26	127	7	10000	5	1	0	5	0
26	128	7	10000	5	1	0	5	0
27	129	7	10000	5	1	0	5	0
27	130	7	10000	5	1	0	5	0
26	131	7	10000	5	1	0	5	0
27	132	7	10000	5	1	0	5	0
27	133	7	10000	5	1	0	5	0
27	134	7	10000	5	1	0	5	0
27	135	7	10000	5	1	0	5	0
27	136	7	10000	5	1	0	5	0
30	137	7	10000	5	1	0	5	0
30	138	7	10000	5	1	0	5	0
30	139	7	10000	5	1	0	5	0
30	140	7	10000	5	1	0	5	0
32	141	7	10000	5	1	0	5	0
33	142	7	10000	5	1	0	5	0
32	143	7	10000	5	1	0	5	0
31	144	7	10000	5	1	0	5	0
31	145	7	10000	5	1	0	5	0
30	146	7	10000	5	1	0	5	0
29	147	7	10000	5	1	0	5	0
30	148	7	10000	5	1	0	5	0
29	149	7	10000	5	1	0	5	0
30	150	7	10000	5	1	0	5	0
28	151	7	10000	5	1	0	5	0
26	152	7	10000	5	1	0	5	0
26	153	7	10000	5	1	0	5	0
27	154	7	10000	5	1	0	5	0
25	155	7	10000	5	1	0	5	0
25	156	7	10000	5	1	0	5	0
24	157	7	10000	5	1	0	5	0
25	158	7	10000	5	1	0	5	0
26	159	7	10000	5	1	0	5	0
26	160	7	10000	5	1	0	5	0
27	161	7	10000	5	1	0	5	0
28	162	7	10000	5	1	0	5	0
27	163	7	10000	5	1	0	5	0
28	164	7	10000	5	1	0	5	0
28	165	7	10000	5	1	0	5	0
31	166	7	10000	5	1	0	5	0
33	167	7	10000	5	1	0	5	0
34	168	7	10000	5	1	0	5	0
34	169	7	10000	5	1	0	5	0
35	170	7	10000	5	1	0	5	0
34	171	7	10000	5	1	0	5	0
35	172	7	10000	5	1	0	5	0
37	173	7	10000	5	1	0	5	0
35	174	7	10000	5	1	0	5	0
35	175	7	10000	5	1	0	5	0
35	176	7	10000	5	1	0	5	0
33	177	7	10000	5	1	0	5	0
32	178	7	10000	5	1	0	5	0
32	179	7	10000	5	1	0	5	0
30	180	7	10000	5	1	0	5	0
32	181	7	10000	5	1	0	5	0
32	182	7	10000	5	1	0	5	0
32	183	7	10000	5	1	0	5	0
31	184	7	10000	5	1	0	5	0
29	185	7	10000	5	1	0	5	0
28	186	7	10000	5	1	0	5	0
28	187	7	10000	5	1	0	5	0
28	188	7	10000	5	1	0	5	0
27	189	7	10000	5	1	0	5	0
29	190	7	10000	5	1	0	5	0
28	191	7	10000	5	1	0	5	0
26	192	7	10000	5	1	0	5	0
26	193	7	10000	5	1	0	5	0
24	194	7	10000	5	1	0	5	0
26	195	7	10000	5	1	0	5	0
28	196	7	10000	5	1	0	5	0
28	197	7	10000	5	1	0	5	0
27	198	7	10000	5	1	0	5	0
27	199	7	10000	5	1	0	5	0
25	200	7	10000	5	1	0	5	0
26	201	7	10000	5	1	0	5	0
26	202	7	10000	5	1	0	5	0
26	203	7	10000	5	1	0	5	0
29	204	7	10000	5	1	0	5	0
31	205	7	10000	5	1	0	5	0
30	206	7	10000	5	1	0	5	0
29	207	7	10000	5	1	0	5	0
29	208	7	10000	5	1	0	5	0
28	209	7	10000	5	1	0	5	0
29	210	7	10000	5	1	0	5	0
29	211	7	10000	5	1	0	5	0
28	212	7	10000	5	1	0	5	0
28	213	7	10000	5	1	0	5	0
31	214	7	10000	5	1	0	5	0
28	215	7	10000	5	1	0	5	0
29	216	7	10000	5	1	0	5	0
30	217	7	10000	5	1	0	5	0
30	218	7	10000	5	1	0	5	0
29	219	7	10000	5	1	0	5	0
29	220	7	10000	5	1	0	5	0
29	221	7	10000	5	1	0	5	0
31	222	7	10000	5	1	0	5	0
31	223	7	10000	5	1	0	5	0
31	224	7	10000	5	1	0	5	0
32	225	7	10000	5	1	0	5	0
32	226	7	10000	5	1	0	5	0
30	227	7	10000	5	1	0	5	0
30	228	7	10000	5	1	0	5	0
32	229	7	10000	5	1	0	5	0
31	230	7	10000	5	1	0	5	0
29	231	7	10000	5	1	0	5	0
28	232	7	10000	5	1	0	5	0
27	233	7	10000	5	1	0	5	0
27	234	7	10000	5	1	0	5	0
27	235	7	10000	5	1	0	5	0
26	236	7	10000	5	1	0	5	0
26	237	7	10000	5	1	0	5	0
27	238	7	10000	5	1	0	5	0
26	239	7	10000	5	1	0	5	0
25	240	7	10000	5	1	0	5	0
27	241	7	10000	5	1	0	5	0
29	242	7	10000	5	1	0	5	0
28	243	7	10000	5	1	0	5	0
28	244	7	10000	5	1	0	5	0
28	245	7	10000	5	1	0	5	0
28	246	7	10000	5	1	0	5	0
28	247	7	10000	5	1	0	5	0
30	248	7	10000	5	1	0	5	0
31	249	7	10000	5	1	0	5	0
31	250	7	10000	5	1	0	5	0
30	251	7	10000	5	1	0	5	0
31	252	7	10000	5	1	0	5	0
31	253	7	10000	5	1	0	5	0
33	254	7	10000	5	1	0	5	0
35	255	7	10000	5	1	0	5	0
36	256	7	10000	5	1	0	5	0
36	257	7	10000	5	1	0	5	0
38	258	7	10000	5	1	0	5	0
36	259	7	10000	5	1	0	5	0
35	260	7	10000	5	1	0	5	0
38	261	7	10000	5	1	0	5	0
38	262	7	10000	5	1	0	5	0
37	263	7	10000	5	1	0	5	0
37	264	7	10000	5	1	0	5	0
35	265	7	10000	5	1	0	5	0
35	266	7	10000	5	1	0	5	0
36	267	7	10000	5	1	0	5	0
36	268	7	10000	5	1	0	5	0
37	269	7	10000	5	1	0	5	0
36	270	7	10000	5	1	0	5	0
34	271	7	10000	5	1	0	5	0
40	272	7	10000	5	1	0	5	0
53	273	7	10000	5	1	0	5	0
65	274	7	10000	5	1	0	5	0
67	275	7	10000	5	1	0	5	0
66	276	7	10000	5	1	0	5	0
68	277	7	10000	5	1	0	5	0
73	278	7	10000	5	1	0	5	0
78	279	7	10000	5	1	0	5	0
80	280	7	10000	5	1	0	5	0
81	281	7	10000	5	1	0	5	0
79	282	7	10000	5	1	0	5	0
77	283	7	10000	5	1	0	5	0
73	284	7	10000	5	1	0	5	0
71	285	7	10000	5	1	0	5	0
68	286	7	10000	5	1	0	5	0
68	287	7	10000	5	1	0	5	0
67	288	7	10000	5	1	0	5	0
65	289	7	10000	5	1	0	5	0
66	290	7	10000	5	1	0	5	0
66	291	7	10000	5	1	0	5	0
67	292	7	10000	5	1	0	5	0
81	293	7	10000	5	1	0	5	0
96	294	7	10000	5	1	0	5	0
94	295	7	10000	5	1	0	5	0
93	296	7	10000	5	1	0	5	0
92	297	7	10000	5	1	0	5	0
93	298	7	10000	5	1	0	5	0
92	299	7	10000	5	1	0	5	0
98	300	7	10000	5	1	0	5	0
104	301	7	10000	5	1	0	5	0
106	302	7	10000	5	1	0	5	0
104	303	7	10000	5	1	0	5	0
103	304	7	10000	5	1	0	5	0
100	305	7	10000	5	1	0	5	0
96	306	7	10000	5	1	0	5	0
99	307	7	10000	5	1	0	5	0
99	308	7	10000	5	1	0	5	0
96	309	7	10000	5	1	0	5	0
92	310	7	10000	5	1	0	5	0
93	311	7	10000	5	1	0	5	0
114	312	7	10000	5	1	0	5	0
144	313	7	10000	5	1	0	5	0
149	314	7	10000	5	1	0	5	0
154	315	7	10000	5	1	0	5	0
168	316	7	10000	5	1	0	5	0
170	317	7	10000	5	1	0	5	0
198	318	7	10000	5	1	0	5	0
220	319	7	10000	5	1	0	5	0
217	320	7	10000	5	1	0	5	0
241	321	7	10000	5	1	0	5	0
270	322	7	10000	5	1	0	5	0
290	323	7	10000	5	1	0	5	0
294	324	7	10000	5	1	0	5	0
293	325	7	10000	5	1	0	5	0
287	326	7	10000	5	1	0	5	0
279	327	7	10000	5	1	0	5	0
268	328	7	10000	5	1	0	5	0
265	329	7	10000	5	1	0	5	0
271	330	7	10000	5	1	0	5	0
271	331	7	10000	5	1	0	5	0
270	332	7	10000	5	1	0	5	0
280	333	7	10000	5	1	0	5	0
285	334	7	10000	5	1	0	5	0
283	335	7	10000	5	1	0	5	0
286	336	7	10000	5	1	0	5	0
296	337	7	10000	5	1	0	5	0
290	338	7	10000	5	1	0	5	0
282	339	7	10000	5	1	0	5	0
273	340	7	10000	5	1	0	5	0
261	341	7	10000	5	1	0	5	0
253	342	7	10000	5	1	0	5	0
244	343	7	10000	5	1	0	5	0
233	344	7	10000	5	1	0	5	0
225	345	7	10000	5	1	0	5	0
219	346	7	10000	5	1	0	5	0
210	347	7	10000	5	1	0	5	0
208	348	7	10000	5	1	0	5	0
213	349	7	10000	5	1	0	5	0
218	350	7	10000	5	1	0	5	0
226	351	7	10000	5	1	0	5	0
228	352	7	10000	5	1	0	5	0
218	353	7	10000	5	1	0	5	0
215	354	7	10000	5	1	0	5	0
211	355	7	10000	5	1	0	5	0
203	356	7	10000	5	1	0	5	0
195	357	7	10000	5	1	0	5	0
189	358	7	10000	5	1	0	5	0
189	359	7	10000	5	1	0	5	0
188	360	7	10000	5	1	0	5	0
188	361	7	10000	5	1	0	5	0
185	362	7	10000	5	1	0	5	0
179	363	7	10000	5	1	0	5	0
181	364	7	10000	5	1	0	5	0
176	365	7	10000	5	1	0	5	0
168	366	7	10000	5	1	0	5	0
161	367	7	10000	5	1	0	5	0
155	368	7	10000	5	1	0	5	0
153	369	7	10000	5	1	0	5	0
155	370	7	10000	5	1	0	5	0
158	371	7	10000	5	1	0	5	0
157	372	7	10000	5	1	0	5	0
152	373	7	10000	5	1	0	5	0
146	374	7	10000	5	1	0	5	0
147	375	7	10000	5	1	0	5	0
150	376	7	10000	5	1	0	5	0
150	377	7	10000	5	1	0	5	0
145	378	7	10000	5	1	0	5	0
142	379	7	10000	5	1	0	5	0
136	380	7	10000	5	1	0	5	0
136	381	7	10000	5	1	0	5	0
136	382	7	10000	5	1	0	5	0
133	383	7	10000	5	1	0	5	0
135	384	7	10000	5	1	0	5	0
134	385	7	10000	5	1	0	5	0
133	386	7	10000	5	1	0	5	0
132	387	7	10000	5	1	0	5	0
133	388	7	10000	5	1	0	5	0
132	389	7	10000	5	1	0	5	0
131	390	7	10000	5	1	0	5	0
128	391	7	10000	5	1	0	5	0
129	392	7	10000	5	1	0	5	0
131	393	7	10000	5	1	0	5	0
132	394	7	10000	5	1	0	5	0
133	395	7	10000	5	1	0	5	0
137	396	7	10000	5	1	0	5	0
136	397	7	10000	5	1	0	5	0
136	398	7	10000	5	1	0	5	0
135	399	7	10000	5	1	0	5	0
136	400	7	10000	5	1	0	5	0
138	401	7	10000	5	1	0	5	0
138	402	7	10000	5	1	0	5	0
135	403	7	10000	5	1	0	5	0
134	404	7	10000	5	1	0	5	0
135	405	7	10000	5	1	0	5	0
135	406	7	10000	5	1	0	5	0
136	407	7	10000	5	1	0	5	0
140	408	7	10000	5	1	0	5	0
145	409	7	10000	5	1	0	5	0
149	410	7	10000	5	1	0	5	0
151	411	7	10000	5	1	0	5	0
151	412	7	10000	5	1	0	5	0
154	413	7	10000	5	1	0	5	0
156	414	7	10000	5	1	0	5	0
155	415	7	10000	5	1	0	5	0
154	416	7	10000	5	1	0	5	0
153	417	7	10000	5	1	0	5	0
150	418	7	10000	5	1	0	5	0
145	419	7	10000	5	1	0	5	0
139	420	7	10000	5	1	0	5	0
135	421	7	10000	5	1	0	5	0
130	422	7	10000	5	1	0	5	0
124	423	7	10000	5	1	0	5	0
118	424	7	10000	5	1	0	5	0
113	425	7	10000	5	1	0	5	0
109	426	7	10000	5	1	0	5	0
106	427	7	10000	5	1	0	5	0
102	428	7	10000	5	1	0	5	0
99	429	7	10000	5	1	0	5	0
98	430	7	10000	5	1	0	5	0
94	431	7	10000	5	1	0	5	0
89	432	7	10000	5	1	0	5	0
87	433	7	10000	5	1	0	5	0
84	434	7	10000	5	1	0	5	0
82	435	7	10000	5	1	0	5	0
83	436	7	10000	5	1	0	5	0
85	437	7	10000	5	1	0	5	0
85	438	7	10000	5	1	0	5	0
89	439	7	10000	5	1	0	5	0
91	440	7	10000	5	1	0	5	0
93	441	7	10000	5	1	0	5	0
94	442	7	10000	5	1	0	5	0
96	443	7	10000	5	1	0	5	0
98	444	7	10000	5	1	0	5	0
99	445	7	10000	5	1	0	5	0
97	446	7	10000	5	1	0	5	0
95	447	7	10000	5	1	0	5	0
96	448	7	10000	5	1	0	5	0
96	449	7	10000	5	1	0	5	0
94	450	7	10000	5	1	0	5	0
92	451	7	10000	5	1	0	5	0
90	452	7	10000	5	1	0	5	0
90	453	7	10000	5	1	0	5	0
87	454	7	10000	5	1	0	5	0
85	455	7	10000	5	1	0	5	0
84	456	7	10000	5	1	0	5	0
84	457	7	10000	5	1	0	5	0
83	458	7	10000	5	1	0	5	0
82	459	7	10000	5	1	0	5	0
84	460	7	10000	5	1	0	5	0
86	461	7	10000	5	1	0	5	0
87	462	7	10000	5	1	0	5	0
86	463	7	10000	5	1	0	5	0
88	464	7	10000	5	1	0	5	0
88	465	7	10000	5	1	0	5	0
87	466	7	10000	5	1	0	5	0
84	467	7	10000	5	1	0	5	0
82	468	7	10000	5	1	0	5	0
81	469	7	10000	5	1	0	5	0
82	470	7	10000	5	1	0	5	0
81	471	7	10000	5	1	0	5	0
78	472	7	10000	5	1	0	5	0
77	473	7	10000	5	1	0	5	0
75	474	7	10000	5	1	0	5	0
73	475	7	10000	5	1	0	5	0
70	476	7	10000	5	1	0	5	0
69	477	7	10000	5	1	0	5	0
69	478	7	10000	5	1	0	5	0
67	479	7	10000	5	1	0	5	0
65	480	7	10000	5	1	0	5	0
68	481	7	10000	5	1	0	5	0
70	482	7	10000	5	1	0	5	0
71	483	7	10000	5	1	0	5	0
70	484	7	10000	5	1	0	5	0
70	485	7	10000	5	1	0	5	0
70	486	7	10000	5	1	0	5	0
69	487	7	10000	5	1	0	5	0
67	488	7	10000	5	1	0	5	0
64	489	7	10000	5	1	0	5	0
63	490	7	10000	5	1	0	5	0
60	491	7	10000	5	1	0	5	0
57	492	7	10000	5	1	0	5	0
56	493	7	10000	5	1	0	5	0
55	494	7	10000	5	1	0	5	0
53	495	7	10000	5	1	0	5	0
52	496	7	10000	5	1	0	5	0
50	497	7	10000	5	1	0	5	0
51	498	7	10000	5	1	0	5	0
53	499	7	10000	5	1	0	5	0
53	500	7	10000	5	1	0	5	0
54	501	7	10000	5	1	0	5	0
57	502	7	10000	5	1	0	5	1
58	503	7	10000	5	1	0	5	1
57	504	7	10000	5	1	0	5	1
55	505	7	10000	5	1	0	5	1
55	506	7	10000	5	1	0	5	1
54	507	7	10000	5	1	0	5	1
53	508	7	10000	5	1	0	5	1
52	509	7	10000	5	1	0	5	1
51	510	7	10000	5	1	0	5	1
48	511	7	10000	5	1	0	5	1
45	512	7	10000	5	1	0	5	1
45	513	7	10000	5	1	0	5	1
44	514	7	10000	5	1	0	5	1
44	515	7	10000	5	1	0	5	1
41	516	7	10000	5	1	0	5	1
41	517	7	10000	5	1	0	5	1
40	518	7	10000	5	1	0	5	1
38	519	7	10000	5	1	0	5	1
36	520	7	10000	5	1	0	5	1
35	521	7	10000	5	1	0	5	1
36	522	7	10000	5	1	0	5	1
37	523	7	10000	5	1	0	5	1
36	524	7	10000	5	1	0	5	1
36	525	7	10000	5	1	0	5	1
35	526	7	10000	5	1	0	5	1
35	527	7	10000	5	1	0	5	1
35	528	7	10000	5	1	0	5	1
34	529	7	10000	5	1	0	5	1
35	530	7	10000	5	1	0	5	1
33	531	7	10000	5	1	0	5	1
31	532	7	10000	5	1	0	5	1
31	533	7	10000	5	1	0	5	1
33	534	7	10000	5	1	0	5	1
32	535	7	10000	5	1	0	5	1
32	536	7	10000	5	1	0	5	1
31	537	7	10000	5	1	0	5	1
30	538	7	10000	5	1	0	5	1
32	539	7	10000	5	1	0	5	1
32	540	7	10000	5	1	0	5	1
33	541	7	10000	5	1	0	5	1
33	542	7	10000	5	1	0	5	1
33	543	7	10000	5	1	0	5	1
33	544	7	10000	5	1	0	5	1
33	545	7	10000	5	1	0	5	1
32	546	7	10000	5	1	0	5	1
32	547	7	10000	5	1	0	5	1
31	548	7	10000	5	1	0	5	1
31	549	7	10000	5	1	0	5	1
31	550	7	10000	5	1	0	5	1
29	551	7	10000	5	1	0	5	1
28	552	7	10000	5	1	0	5	0
27	553	7	10000	5	1	0	5	0
26	554	7	10000	5	1	0	5	0
26	555	7	10000	5	1	0	5	0
24	556	7	10000	5	1	0	5	0
24	557	7	10000	5	1	0	5	0
25	558	7	10000	5	1	0	5	0
27	559	7	10000	5	1	0	5	0
26	560	7	10000	5	1	0	5	0
28	561	7	10000	5	1	0	5	0
29	562	7	10000	5	1	0	5	0
28	563	7	10000	5	1	0	5	0
28	564	7	10000	5	1	0	5	0
28	565	7	10000	5	1	0	5	0
28	566	7	10000	5	1	0	5	0
29	567	7	10000	5	1	0	5	0
28	568	7	10000	5	1	0	5	0
30	569	7	10000	5	1	0	5	0
29	570	7	10000	5	1	0	5	0
29	571	7	10000	5	1	0	5	0
29	572	7	10000	5	1	0	5	0
28	573	7	10000	5	1	0	5	0
27	574	7	10000	5	1	0	5	0
29	575	7	10000	5	1	0	5	0
29	576	7	10000	5	1	0	5	0
29	577	7	10000	5	1	0	5	0
39	578	7	10000	5	1	0	5	0
69	579	7	10000	5	1	0	5	0
113	580	7	10000	5	1	0	5	0
130	581	7	10000	5	1	0	5	0
133	582	7	10000	5	1	0	5	0
135	583	7	10000	5	1	0	5	0
169	584	7	10000	5	1	0	5	0
176	585	7	10000	5	1	0	5	0
169	586	7	10000	5	1	0	5	0
169	587	7	10000	5	1	0	5	0
175	588	7	10000	5	1	0	5	0
181	589	7	10000	5	1	0	5	0
183	590	7	10000	5	1	0	5	0
185	591	7	10000	5	1	0	5	0
186	592	7	10000	5	1	0	5	0
220	593	7	10000	5	1	0	5	0
248	594	7	10000	5	1	0	5	0
263	595	7	10000	5	1	0	5	0
257	596	7	10000	5	1	0	5	0
273	597	7	10000	5	1	0	5	0
296	598	7	10000	5	1	0	5	0
293	599	7	10000	5	1	0	5	0
304	600	7	10000	5	1	0	5	0
314	601	7	10000	5	1	0	5	0
322	602	7	10000	5	1	0	5	0
347	603	7	10000	5	1	0	5	0
380	604	7	10000	5	1	0	5	0
421	605	7	10000	5	1	0	5	0
437	606	7	10000	5	1	0	5	0
537	607	7	10000	5	1	0	5	0
623	608	7	10000	5	1	0	5	0
707	609	7	10000	5	1	0	5	0
775	610	7	10000	5	1	0	5	0
767	611	7	10000	5	1	0	5	0
808	612	7	10000	5	1	0	5	0
794	613	7	10000	5	1	0	5	0
773	614	7	10000	5	1	0	5	0
748	615	7	10000	5	1	0	5	0
756	616	7	10000	5	1	0	5	0
771	617	7	10000	5	1	0	5	0
769	618	7	10000	5	1	0	5	0
749	619	7	10000	5	1	0	5	0
715	620	7	10000	5	1	0	5	0
686	621	7	10000	5	1	0	5	0
667	622	7	10000	5	1	0	5	0
650	623	7	10000	5	1	0	5	0
636	624	7	10000	5	1	0	5	0
619	625	7	10000	5	1	0	5	0
604	626	7	10000	5	1	0	5	0
589	627	7	10000	5	1	0	5	0
573	628	7	10000	5	1	0	5	0
554	629	7	10000	5	1	0	5	0
538	630	7	10000	5	1	0	5	0
521	631	7	10000	5	1	0	5	0
503	632	7	10000	5	1	0	5	0
486	633	7	10000	5	1	0	5	0
469	634	7	10000	5	1	0	5	0
453	635	7	10000	5	1	0	5	0
436	636	7	10000	5	1	0	5	0
417	637	7	10000	5	1	0	5	0
399	638	7	10000	5	1	0	5	0
381	639	7	10000	5	1	0	5	0
369	640	7	10000	5	1	0	5	0
362	641	7	10000	5	1	0	5	0
357	642	7	10000	5	1	0	5	0
351	643	7	10000	5	1	0	5	0
349	644	7	10000	5	1	0	5	0
350	645	7	10000	5	1	0	5	0
354	646	7	10000	5	1	0	5	0
358	647	7	10000	5	1	0	5	0
363	648	7	10000	5	1	0	5	0
369	649	7	10000	5	1	0	5	0
379	650	7	10000	5	1	0	5	0
383	651	7	10000	5	1	0	5	0
386	652	7	10000	5	1	0	5	0
390	653	7	10000	5	1	0	5	0
395	654	7	10000	5	1	0	5	0
397	655	7	10000	5	1	0	5	0
400	656	7	10000	5	1	0	5	0
403	657	7	10000	5	1	0	5	0
407	658	7	10000	5	1	0	5	0
410	659	7	10000	5	1	0	5	0
413	660	7	10000	5	1	0	5	0
417	661	7	10000	5	1	0	5	0
422	662	7	10000	5	1	0	5	0
424	663	7	10000	5	1	0	5	0
425	664	7	10000	5	1	0	5	0
426	665	7	10000	5	1	0	5	0
430	666	7	10000	5	1	0	5	0
431	667	7	10000	5	1	0	5	0
430	668	7	10000	5	1	0	5	0
429	669	7	10000	5	1	0	5	0
425	670	7	10000	5	1	0	5	0
419	671	7	10000	5	1	0	5	0
409	672	7	10000	5	1	0	5	0
399	673	7	10000	5	1	0	5	0
386	674	7	10000	5	1	0	5	0
373	675	7	10000	5	1	0	5	0
356	676	7	10000	5	1	0	5	0
342	677	7	10000	5	1	0	5	0
328	678	7	10000	5	1	0	5	0
314	679	7	10000	5	1	0	5	0
303	680	7	10000	5	1	0	5	0
295	681	7	10000	5	1	0	5	0
286	682	7	10000	5	1	0	5	0
273	683	7	10000	5	1	0	5	0
263	684	7	10000	5	1	0	5	0
256	685	7	10000	5	1	0	5	0
249	686	7	10000	5	1	0	5	0
241	687	7	10000	5	1	0	5	0
235	688	7	10000	5	1	0	5	0
229	689	7	10000	5	1	0	5	0
223	690	7	10000	5	1	0	5	0
215	691	7	10000	5	1	0	5	0
209	692	7	10000	5	1	0	5	0
206	693	7	10000	5	1	0	5	0
205	694	7	10000	5	1	0	5	0
205	695	7	10000	5	1	0	5	0
205	696	7	10000	5	1	0	5	0
208	697	7	10000	5	1	0	5	0
210	698	7	10000	5	1	0	5	0
210	699	7	10000	5	1	0	5	0
210	700	7	10000	5	1	0	5	0
213	701	7	10000	5	1	0	5	0
212	702	7	10000	5	1	0	5	0
210	703	7	10000	5	1	0	5	0
206	704	7	10000	5	1	0	5	0
201	705	7	10000	5	1	0	5	0
196	706	7	10000	5	1	0	5	0
191	707	7	10000	5	1	0	5	0
186	708	7	10000	5	1	0	5	0
182	709	7	10000	5	1	0	5	0
181	710	7	10000	5	1	0	5	0
177	711	7	10000	5	1	0	5	0
173	712	7	10000	5	1	0	5	0
171	713	7	10000	5	1	0	5	0
171	714	7	10000	5	1	0	5	0
171	715	7	10000	5	1	0	5	0
170	716	7	10000	5	1	0	5	0
167	717	7	10000	5	1	0	5	0
167	718	7	10000	5	1	0	5	0
167	719	7	10000	5	1	0	5	0
168	720	7	10000	5	1	0	5	0
166	721	7	10000	5	1	0	5	0
166	722	7	10000	5	1	0	5	0
164	723	7	10000	5	1	0	5	0
162	724	7	10000	5	1	0	5	0
155	725	7	10000	5	1	0	5	0
150	726	7	10000	5	1	0	5	0
143	727	7	10000	5	1	0	5	0
137	728	7	10000	5	1	0	5	0
132	729	7	10000	5	1	0	5	0
127	730	7	10000	5	1	0	5	0
121	731	7	10000	5	1	0	5	0
115	732	7	10000	5	1	0	5	0
111	733	7	10000	5	1	0	5	0
112	734	7	10000	5	1	0	5	0
116	735	7	10000	5	1	0	5	0
116	736	7	10000	5	1	0	5	0
117	737	7	10000	5	1	0	5	0
118	738	7	10000	5	1	0	5	0
120	739	7	10000	5	1	0	5	0
120	740	7	10000	5	1	0	5	0
119	741	7	10000	5	1	0	5	0
117	742	7	10000	5	1	0	5	0
115	743	7	10000	5	1	0	5	0
111	744	7	10000	5	1	0	5	0
108	745	7	10000	5	1	0	5	0
106	746	7	10000	5	1	0	5	0
104	747	7	10000	5	1	0	5	0
101	748	7	10000	5	1	0	5	0
98	749	7	10000	5	1	0	5	0
94	750	7	10000	5	1	0	5	0
94	751	7	10000	5	1	0	5	0
91	752	7	10000	5	1	0	5	0
92	753	7	10000	5	1	0	5	0
93	754	7	10000	5	1	0	5	0
94	755	7	10000	5	1	0	5	0
94	756	7	10000	5	1	0	5	0
