value	EMG	Stimulus	EMG_sensitivity	Total_Trial_Nr	practise	acq	probe_nr	Startle_Probe
28	1	7	10000	1	1	0	1	0
29	2	7	10000	1	1	0	1	0
31	3	7	10000	1	1	0	1	0
32	4	7	10000	1	1	0	1	0
35	5	7	10000	1	1	0	1	0
35	6	7	10000	1	1	0	1	0
33	7	7	10000	1	1	0	1	0
33	8	7	10000	1	1	0	1	0
33	9	7	10000	1	1	0	1	0
35	10	7	10000	1	1	0	1	0
38	11	7	10000	1	1	0	1	0
41	12	7	10000	1	1	0	1	0
44	13	7	10000	1	1	0	1	0
47	14	7	10000	1	1	0	1	0
47	15	7	10000	1	1	0	1	0
46	16	7	10000	1	1	0	1	0
48	17	7	10000	1	1	0	1	0
53	18	7	10000	1	1	0	1	0
55	19	7	10000	1	1	0	1	0
56	20	7	10000	1	1	0	1	0
56	21	7	10000	1	1	0	1	0
56	22	7	10000	1	1	0	1	0
57	23	7	10000	1	1	0	1	0
57	24	7	10000	1	1	0	1	0
57	25	7	10000	1	1	0	1	0
55	26	7	10000	1	1	0	1	0
53	27	7	10000	1	1	0	1	0
52	28	7	10000	1	1	0	1	0
51	29	7	10000	1	1	0	1	0
49	30	7	10000	1	1	0	1	0
49	31	7	10000	1	1	0	1	0
47	32	7	10000	1	1	0	1	0
45	33	7	10000	1	1	0	1	0
44	34	7	10000	1	1	0	1	0
45	35	7	10000	1	1	0	1	0
46	36	7	10000	1	1	0	1	0
46	37	7	10000	1	1	0	1	0
45	38	7	10000	1	1	0	1	0
43	39	7	10000	1	1	0	1	0
43	40	7	10000	1	1	0	1	0
41	41	7	10000	1	1	0	1	0
40	42	7	10000	1	1	0	1	0
39	43	7	10000	1	1	0	1	0
40	44	7	10000	1	1	0	1	0
41	45	7	10000	1	1	0	1	0
42	46	7	10000	1	1	0	1	0
43	47	7	10000	1	1	0	1	0
44	48	7	10000	1	1	0	1	0
44	49	7	10000	1	1	0	1	0
43	50	7	10000	1	1	0	1	0
43	51	7	10000	1	1	0	1	0
42	52	7	10000	1	1	0	1	0
41	53	7	10000	1	1	0	1	0
39	54	7	10000	1	1	0	1	0
37	55	7	10000	1	1	0	1	0
35	56	7	10000	1	1	0	1	0
36	57	7	10000	1	1	0	1	0
35	58	7	10000	1	1	0	1	0
35	59	7	10000	1	1	0	1	0
35	60	7	10000	1	1	0	1	0
33	61	7	10000	1	1	0	1	0
32	62	7	10000	1	1	0	1	0
31	63	7	10000	1	1	0	1	0
30	64	7	10000	1	1	0	1	0
29	65	7	10000	1	1	0	1	0
27	66	7	10000	1	1	0	1	0
27	67	7	10000	1	1	0	1	0
26	68	7	10000	1	1	0	1	0
25	69	7	10000	1	1	0	1	0
24	70	7	10000	1	1	0	1	0
25	71	7	10000	1	1	0	1	0
24	72	7	10000	1	1	0	1	0
24	73	7	10000	1	1	0	1	0
24	74	7	10000	1	1	0	1	0
23	75	7	10000	1	1	0	1	0
22	76	7	10000	1	1	0	1	0
21	77	7	10000	1	1	0	1	0
20	78	7	10000	1	1	0	1	0
20	79	7	10000	1	1	0	1	0
21	80	7	10000	1	1	0	1	0
20	81	7	10000	1	1	0	1	0
20	82	7	10000	1	1	0	1	0
21	83	7	10000	1	1	0	1	0
20	84	7	10000	1	1	0	1	0
20	85	7	10000	1	1	0	1	0
21	86	7	10000	1	1	0	1	0
21	87	7	10000	1	1	0	1	0
20	88	7	10000	1	1	0	1	0
19	89	7	10000	1	1	0	1	0
19	90	7	10000	1	1	0	1	0
19	91	7	10000	1	1	0	1	0
19	92	7	10000	1	1	0	1	0
19	93	7	10000	1	1	0	1	0
17	94	7	10000	1	1	0	1	0
16	95	7	10000	1	1	0	1	0
16	96	7	10000	1	1	0	1	0
16	97	7	10000	1	1	0	1	0
15	98	7	10000	1	1	0	1	0
15	99	7	10000	1	1	0	1	0
16	100	7	10000	1	1	0	1	0
14	101	7	10000	1	1	0	1	0
13	102	7	10000	1	1	0	1	0
13	103	7	10000	1	1	0	1	0
13	104	7	10000	1	1	0	1	0
13	105	7	10000	1	1	0	1	0
12	106	7	10000	1	1	0	1	0
12	107	7	10000	1	1	0	1	0
11	108	7	10000	1	1	0	1	0
11	109	7	10000	1	1	0	1	0
11	110	7	10000	1	1	0	1	0
12	111	7	10000	1	1	0	1	0
13	112	7	10000	1	1	0	1	0
12	113	7	10000	1	1	0	1	0
12	114	7	10000	1	1	0	1	0
12	115	7	10000	1	1	0	1	0
14	116	7	10000	1	1	0	1	0
13	117	7	10000	1	1	0	1	0
12	118	7	10000	1	1	0	1	0
13	119	7	10000	1	1	0	1	0
13	120	7	10000	1	1	0	1	0
11	121	7	10000	1	1	0	1	0
11	122	7	10000	1	1	0	1	0
12	123	7	10000	1	1	0	1	0
12	124	7	10000	1	1	0	1	0
11	125	7	10000	1	1	0	1	0
12	126	7	10000	1	1	0	1	0
12	127	7	10000	1	1	0	1	0
12	128	7	10000	1	1	0	1	0
13	129	7	10000	1	1	0	1	0
12	130	7	10000	1	1	0	1	0
13	131	7	10000	1	1	0	1	0
14	132	7	10000	1	1	0	1	0
13	133	7	10000	1	1	0	1	0
14	134	7	10000	1	1	0	1	0
13	135	7	10000	1	1	0	1	0
14	136	7	10000	1	1	0	1	0
14	137	7	10000	1	1	0	1	0
15	138	7	10000	1	1	0	1	0
16	139	7	10000	1	1	0	1	0
16	140	7	10000	1	1	0	1	0
14	141	7	10000	1	1	0	1	0
14	142	7	10000	1	1	0	1	0
14	143	7	10000	1	1	0	1	0
13	144	7	10000	1	1	0	1	0
13	145	7	10000	1	1	0	1	0
13	146	7	10000	1	1	0	1	0
12	147	7	10000	1	1	0	1	0
12	148	7	10000	1	1	0	1	0
12	149	7	10000	1	1	0	1	0
11	150	7	10000	1	1	0	1	0
12	151	7	10000	1	1	0	1	0
14	152	7	10000	1	1	0	1	0
13	153	7	10000	1	1	0	1	0
12	154	7	10000	1	1	0	1	0
12	155	7	10000	1	1	0	1	0
12	156	7	10000	1	1	0	1	0
12	157	7	10000	1	1	0	1	0
11	158	7	10000	1	1	0	1	0
11	159	7	10000	1	1	0	1	0
12	160	7	10000	1	1	0	1	0
12	161	7	10000	1	1	0	1	0
12	162	7	10000	1	1	0	1	0
13	163	7	10000	1	1	0	1	0
13	164	7	10000	1	1	0	1	0
13	165	7	10000	1	1	0	1	0
13	166	7	10000	1	1	0	1	0
13	167	7	10000	1	1	0	1	0
14	168	7	10000	1	1	0	1	0
14	169	7	10000	1	1	0	1	0
14	170	7	10000	1	1	0	1	0
15	171	7	10000	1	1	0	1	0
15	172	7	10000	1	1	0	1	0
15	173	7	10000	1	1	0	1	0
17	174	7	10000	1	1	0	1	0
17	175	7	10000	1	1	0	1	0
16	176	7	10000	1	1	0	1	0
16	177	7	10000	1	1	0	1	0
17	178	7	10000	1	1	0	1	0
17	179	7	10000	1	1	0	1	0
18	180	7	10000	1	1	0	1	0
17	181	7	10000	1	1	0	1	0
16	182	7	10000	1	1	0	1	0
18	183	7	10000	1	1	0	1	0
20	184	7	10000	1	1	0	1	0
20	185	7	10000	1	1	0	1	0
19	186	7	10000	1	1	0	1	0
19	187	7	10000	1	1	0	1	0
20	188	7	10000	1	1	0	1	0
20	189	7	10000	1	1	0	1	0
19	190	7	10000	1	1	0	1	0
20	191	7	10000	1	1	0	1	0
20	192	7	10000	1	1	0	1	0
20	193	7	10000	1	1	0	1	0
19	194	7	10000	1	1	0	1	0
19	195	7	10000	1	1	0	1	0
18	196	7	10000	1	1	0	1	0
18	197	7	10000	1	1	0	1	0
17	198	7	10000	1	1	0	1	0
17	199	7	10000	1	1	0	1	0
17	200	7	10000	1	1	0	1	0
17	201	7	10000	1	1	0	1	0
15	202	7	10000	1	1	0	1	0
16	203	7	10000	1	1	0	1	0
16	204	7	10000	1	1	0	1	0
17	205	7	10000	1	1	0	1	0
17	206	7	10000	1	1	0	1	0
17	207	7	10000	1	1	0	1	0
17	208	7	10000	1	1	0	1	0
16	209	7	10000	1	1	0	1	0
16	210	7	10000	1	1	0	1	0
18	211	7	10000	1	1	0	1	0
18	212	7	10000	1	1	0	1	0
17	213	7	10000	1	1	0	1	0
17	214	7	10000	1	1	0	1	0
15	215	7	10000	1	1	0	1	0
16	216	7	10000	1	1	0	1	0
17	217	7	10000	1	1	0	1	0
18	218	7	10000	1	1	0	1	0
18	219	7	10000	1	1	0	1	0
18	220	7	10000	1	1	0	1	0
17	221	7	10000	1	1	0	1	0
16	222	7	10000	1	1	0	1	0
16	223	7	10000	1	1	0	1	0
16	224	7	10000	1	1	0	1	0
17	225	7	10000	1	1	0	1	0
18	226	7	10000	1	1	0	1	0
21	227	7	10000	1	1	0	1	0
21	228	7	10000	1	1	0	1	0
21	229	7	10000	1	1	0	1	0
20	230	7	10000	1	1	0	1	0
20	231	7	10000	1	1	0	1	0
23	232	7	10000	1	1	0	1	0
26	233	7	10000	1	1	0	1	0
27	234	7	10000	1	1	0	1	0
25	235	7	10000	1	1	0	1	0
24	236	7	10000	1	1	0	1	0
24	237	7	10000	1	1	0	1	0
23	238	7	10000	1	1	0	1	0
24	239	7	10000	1	1	0	1	0
27	240	7	10000	1	1	0	1	0
29	241	7	10000	1	1	0	1	0
31	242	7	10000	1	1	0	1	0
34	243	7	10000	1	1	0	1	0
36	244	7	10000	1	1	0	1	0
37	245	7	10000	1	1	0	1	0
36	246	7	10000	1	1	0	1	0
36	247	7	10000	1	1	0	1	0
34	248	7	10000	1	1	0	1	0
33	249	7	10000	1	1	0	1	0
32	250	7	10000	1	1	0	1	0
31	251	7	10000	1	1	0	1	0
32	252	7	10000	1	1	0	1	0
32	253	7	10000	1	1	0	1	0
31	254	7	10000	1	1	0	1	0
30	255	7	10000	1	1	0	1	0
28	256	7	10000	1	1	0	1	0
28	257	7	10000	1	1	0	1	0
29	258	7	10000	1	1	0	1	0
30	259	7	10000	1	1	0	1	0
32	260	7	10000	1	1	0	1	0
32	261	7	10000	1	1	0	1	0
30	262	7	10000	1	1	0	1	0
31	263	7	10000	1	1	0	1	0
31	264	7	10000	1	1	0	1	0
31	265	7	10000	1	1	0	1	0
30	266	7	10000	1	1	0	1	0
30	267	7	10000	1	1	0	1	0
30	268	7	10000	1	1	0	1	0
30	269	7	10000	1	1	0	1	0
31	270	7	10000	1	1	0	1	0
33	271	7	10000	1	1	0	1	0
34	272	7	10000	1	1	0	1	0
35	273	7	10000	1	1	0	1	0
34	274	7	10000	1	1	0	1	0
34	275	7	10000	1	1	0	1	0
34	276	7	10000	1	1	0	1	0
33	277	7	10000	1	1	0	1	0
32	278	7	10000	1	1	0	1	0
33	279	7	10000	1	1	0	1	0
34	280	7	10000	1	1	0	1	0
33	281	7	10000	1	1	0	1	0
32	282	7	10000	1	1	0	1	0
31	283	7	10000	1	1	0	1	0
30	284	7	10000	1	1	0	1	0
30	285	7	10000	1	1	0	1	0
32	286	7	10000	1	1	0	1	0
32	287	7	10000	1	1	0	1	0
32	288	7	10000	1	1	0	1	0
32	289	7	10000	1	1	0	1	0
32	290	7	10000	1	1	0	1	0
33	291	7	10000	1	1	0	1	0
34	292	7	10000	1	1	0	1	0
33	293	7	10000	1	1	0	1	0
32	294	7	10000	1	1	0	1	0
31	295	7	10000	1	1	0	1	0
30	296	7	10000	1	1	0	1	0
29	297	7	10000	1	1	0	1	0
28	298	7	10000	1	1	0	1	0
28	299	7	10000	1	1	0	1	0
27	300	7	10000	1	1	0	1	0
25	301	7	10000	1	1	0	1	0
23	302	7	10000	1	1	0	1	0
23	303	7	10000	1	1	0	1	0
22	304	7	10000	1	1	0	1	0
21	305	7	10000	1	1	0	1	0
21	306	7	10000	1	1	0	1	0
21	307	7	10000	1	1	0	1	0
21	308	7	10000	1	1	0	1	0
20	309	7	10000	1	1	0	1	0
19	310	7	10000	1	1	0	1	0
19	311	7	10000	1	1	0	1	0
19	312	7	10000	1	1	0	1	0
18	313	7	10000	1	1	0	1	0
18	314	7	10000	1	1	0	1	0
17	315	7	10000	1	1	0	1	0
17	316	7	10000	1	1	0	1	0
15	317	7	10000	1	1	0	1	0
16	318	7	10000	1	1	0	1	0
16	319	7	10000	1	1	0	1	0
16	320	7	10000	1	1	0	1	0
15	321	7	10000	1	1	0	1	0
14	322	7	10000	1	1	0	1	0
14	323	7	10000	1	1	0	1	0
14	324	7	10000	1	1	0	1	0
14	325	7	10000	1	1	0	1	0
14	326	7	10000	1	1	0	1	0
14	327	7	10000	1	1	0	1	0
13	328	7	10000	1	1	0	1	0
12	329	7	10000	1	1	0	1	0
12	330	7	10000	1	1	0	1	0
12	331	7	10000	1	1	0	1	0
13	332	7	10000	1	1	0	1	0
14	333	7	10000	1	1	0	1	0
14	334	7	10000	1	1	0	1	0
15	335	7	10000	1	1	0	1	0
15	336	7	10000	1	1	0	1	0
15	337	7	10000	1	1	0	1	0
15	338	7	10000	1	1	0	1	0
15	339	7	10000	1	1	0	1	0
15	340	7	10000	1	1	0	1	0
14	341	7	10000	1	1	0	1	0
13	342	7	10000	1	1	0	1	0
14	343	7	10000	1	1	0	1	0
14	344	7	10000	1	1	0	1	0
16	345	7	10000	1	1	0	1	0
14	346	7	10000	1	1	0	1	0
15	347	7	10000	1	1	0	1	0
15	348	7	10000	1	1	0	1	0
14	349	7	10000	1	1	0	1	0
13	350	7	10000	1	1	0	1	0
13	351	7	10000	1	1	0	1	0
15	352	7	10000	1	1	0	1	0
14	353	7	10000	1	1	0	1	0
13	354	7	10000	1	1	0	1	0
12	355	7	10000	1	1	0	1	0
12	356	7	10000	1	1	0	1	0
12	357	7	10000	1	1	0	1	0
12	358	7	10000	1	1	0	1	0
12	359	7	10000	1	1	0	1	0
13	360	7	10000	1	1	0	1	0
12	361	7	10000	1	1	0	1	0
10	362	7	10000	1	1	0	1	0
10	363	7	10000	1	1	0	1	0
11	364	7	10000	1	1	0	1	0
11	365	7	10000	1	1	0	1	0
10	366	7	10000	1	1	0	1	0
11	367	7	10000	1	1	0	1	0
11	368	7	10000	1	1	0	1	0
10	369	7	10000	1	1	0	1	0
10	370	7	10000	1	1	0	1	0
11	371	7	10000	1	1	0	1	0
12	372	7	10000	1	1	0	1	0
11	373	7	10000	1	1	0	1	0
11	374	7	10000	1	1	0	1	0
10	375	7	10000	1	1	0	1	0
11	376	7	10000	1	1	0	1	0
10	377	7	10000	1	1	0	1	0
11	378	7	10000	1	1	0	1	0
11	379	7	10000	1	1	0	1	0
11	380	7	10000	1	1	0	1	0
13	381	7	10000	1	1	0	1	0
12	382	7	10000	1	1	0	1	0
12	383	7	10000	1	1	0	1	0
13	384	7	10000	1	1	0	1	0
13	385	7	10000	1	1	0	1	0
14	386	7	10000	1	1	0	1	0
15	387	7	10000	1	1	0	1	0
15	388	7	10000	1	1	0	1	0
15	389	7	10000	1	1	0	1	0
14	390	7	10000	1	1	0	1	0
15	391	7	10000	1	1	0	1	0
17	392	7	10000	1	1	0	1	0
16	393	7	10000	1	1	0	1	0
16	394	7	10000	1	1	0	1	0
14	395	7	10000	1	1	0	1	0
14	396	7	10000	1	1	0	1	0
14	397	7	10000	1	1	0	1	0
14	398	7	10000	1	1	0	1	0
14	399	7	10000	1	1	0	1	0
14	400	7	10000	1	1	0	1	0
13	401	7	10000	1	1	0	1	0
11	402	7	10000	1	1	0	1	0
11	403	7	10000	1	1	0	1	0
11	404	7	10000	1	1	0	1	0
12	405	7	10000	1	1	0	1	0
11	406	7	10000	1	1	0	1	0
11	407	7	10000	1	1	0	1	0
10	408	7	10000	1	1	0	1	0
10	409	7	10000	1	1	0	1	0
10	410	7	10000	1	1	0	1	0
10	411	7	10000	1	1	0	1	0
12	412	7	10000	1	1	0	1	0
11	413	7	10000	1	1	0	1	0
11	414	7	10000	1	1	0	1	0
10	415	7	10000	1	1	0	1	0
9	416	7	10000	1	1	0	1	0
10	417	7	10000	1	1	0	1	0
9	418	7	10000	1	1	0	1	0
9	419	7	10000	1	1	0	1	0
9	420	7	10000	1	1	0	1	0
8	421	7	10000	1	1	0	1	0
8	422	7	10000	1	1	0	1	0
8	423	7	10000	1	1	0	1	0
8	424	7	10000	1	1	0	1	0
8	425	7	10000	1	1	0	1	0
8	426	7	10000	1	1	0	1	0
8	427	7	10000	1	1	0	1	0
10	428	7	10000	1	1	0	1	0
12	429	7	10000	1	1	0	1	0
13	430	7	10000	1	1	0	1	0
12	431	7	10000	1	1	0	1	0
13	432	7	10000	1	1	0	1	0
12	433	7	10000	1	1	0	1	0
12	434	7	10000	1	1	0	1	0
11	435	7	10000	1	1	0	1	0
11	436	7	10000	1	1	0	1	0
11	437	7	10000	1	1	0	1	0
11	438	7	10000	1	1	0	1	0
11	439	7	10000	1	1	0	1	0
11	440	7	10000	1	1	0	1	0
10	441	7	10000	1	1	0	1	0
9	442	7	10000	1	1	0	1	0
9	443	7	10000	1	1	0	1	0
9	444	7	10000	1	1	0	1	0
10	445	7	10000	1	1	0	1	0
9	446	7	10000	1	1	0	1	0
10	447	7	10000	1	1	0	1	0
10	448	7	10000	1	1	0	1	0
9	449	7	10000	1	1	0	1	0
9	450	7	10000	1	1	0	1	0
10	451	7	10000	1	1	0	1	0
11	452	7	10000	1	1	0	1	0
11	453	7	10000	1	1	0	1	0
10	454	7	10000	1	1	0	1	0
10	455	7	10000	1	1	0	1	0
11	456	7	10000	1	1	0	1	0
12	457	7	10000	1	1	0	1	0
14	458	7	10000	1	1	0	1	0
18	459	7	10000	1	1	0	1	0
20	460	7	10000	1	1	0	1	0
19	461	7	10000	1	1	0	1	0
20	462	7	10000	1	1	0	1	0
23	463	7	10000	1	1	0	1	0
24	464	7	10000	1	1	0	1	0
24	465	7	10000	1	1	0	1	0
24	466	7	10000	1	1	0	1	0
26	467	7	10000	1	1	0	1	0
28	468	7	10000	1	1	0	1	0
30	469	7	10000	1	1	0	1	0
30	470	7	10000	1	1	0	1	0
31	471	7	10000	1	1	0	1	0
34	472	7	10000	1	1	0	1	0
34	473	7	10000	1	1	0	1	0
33	474	7	10000	1	1	0	1	0
32	475	7	10000	1	1	0	1	0
33	476	7	10000	1	1	0	1	0
32	477	7	10000	1	1	0	1	0
32	478	7	10000	1	1	0	1	0
32	479	7	10000	1	1	0	1	0
31	480	7	10000	1	1	0	1	0
31	481	7	10000	1	1	0	1	0
31	482	7	10000	1	1	0	1	0
32	483	7	10000	1	1	0	1	0
32	484	7	10000	1	1	0	1	0
32	485	7	10000	1	1	0	1	0
31	486	7	10000	1	1	0	1	0
30	487	7	10000	1	1	0	1	0
31	488	7	10000	1	1	0	1	0
30	489	7	10000	1	1	0	1	0
29	490	7	10000	1	1	0	1	0
29	491	7	10000	1	1	0	1	0
31	492	7	10000	1	1	0	1	0
29	493	7	10000	1	1	0	1	0
29	494	7	10000	1	1	0	1	0
29	495	7	10000	1	1	0	1	0
29	496	7	10000	1	1	0	1	0
29	497	7	10000	1	1	0	1	0
28	498	7	10000	1	1	0	1	0
29	499	7	10000	1	1	0	1	0
29	500	7	10000	1	1	0	1	0
29	545	7	10000	1	1	0	1	1
29	546	7	10000	1	1	0	1	1
28	547	7	10000	1	1	0	1	1
29	548	7	10000	1	1	0	1	1
30	549	7	10000	1	1	0	1	1
30	550	7	10000	1	1	0	1	1
30	551	7	10000	1	1	0	1	1
29	552	7	10000	1	1	0	1	1
29	553	7	10000	1	1	0	1	1
28	554	7	10000	1	1	0	1	1
28	555	7	10000	1	1	0	1	1
30	556	7	10000	1	1	0	1	1
30	557	7	10000	1	1	0	1	1
30	558	7	10000	1	1	0	1	1
31	559	7	10000	1	1	0	1	1
30	560	7	10000	1	1	0	1	1
30	561	7	10000	1	1	0	1	1
29	562	7	10000	1	1	0	1	1
29	563	7	10000	1	1	0	1	1
28	564	7	10000	1	1	0	1	1
27	565	7	10000	1	1	0	1	1
24	566	7	10000	1	1	0	1	1
24	567	7	10000	1	1	0	1	1
24	568	7	10000	1	1	0	1	1
26	569	7	10000	1	1	0	1	1
26	570	7	10000	1	1	0	1	1
26	571	7	10000	1	1	0	1	1
28	572	7	10000	1	1	0	1	1
25	573	7	10000	1	1	0	1	1
25	574	7	10000	1	1	0	1	1
25	575	7	10000	1	1	0	1	1
27	576	7	10000	1	1	0	1	1
26	577	7	10000	1	1	0	1	1
25	578	7	10000	1	1	0	1	1
23	579	7	10000	1	1	0	1	1
23	580	7	10000	1	1	0	1	1
23	581	7	10000	1	1	0	1	1
23	582	7	10000	1	1	0	1	1
22	583	7	10000	1	1	0	1	1
22	584	7	10000	1	1	0	1	1
22	585	7	10000	1	1	0	1	1
20	586	7	10000	1	1	0	1	1
20	587	7	10000	1	1	0	1	1
19	588	7	10000	1	1	0	1	1
19	589	7	10000	1	1	0	1	1
18	590	7	10000	1	1	0	1	1
18	552	7	10000	1	1	0	1	1
18	553	7	10000	1	1	0	1	1
16	554	7	10000	1	1	0	1	1
15	555	7	10000	1	1	0	1	1
16	556	7	10000	1	1	0	1	1
16	557	7	10000	1	1	0	1	1
15	553	7	10000	1	1	0	1	0
14	554	7	10000	1	1	0	1	0
14	555	7	10000	1	1	0	1	0
13	556	7	10000	1	1	0	1	0
13	557	7	10000	1	1	0	1	0
12	558	7	10000	1	1	0	1	0
13	559	7	10000	1	1	0	1	0
12	560	7	10000	1	1	0	1	0
12	561	7	10000	1	1	0	1	0
10	562	7	10000	1	1	0	1	0
11	563	7	10000	1	1	0	1	0
12	564	7	10000	1	1	0	1	0
12	565	7	10000	1	1	0	1	0
12	566	7	10000	1	1	0	1	0
11	567	7	10000	1	1	0	1	0
12	568	7	10000	1	1	0	1	0
11	569	7	10000	1	1	0	1	0
11	570	7	10000	1	1	0	1	0
12	571	7	10000	1	1	0	1	0
14	572	7	10000	1	1	0	1	0
13	573	7	10000	1	1	0	1	0
13	574	7	10000	1	1	0	1	0
12	575	7	10000	1	1	0	1	0
12	576	7	10000	1	1	0	1	0
12	577	7	10000	1	1	0	1	0
13	578	7	10000	1	1	0	1	0
13	579	7	10000	1	1	0	1	0
13	580	7	10000	1	1	0	1	0
15	581	7	10000	1	1	0	1	0
14	582	7	10000	1	1	0	1	0
14	583	7	10000	1	1	0	1	0
14	584	7	10000	1	1	0	1	0
15	585	7	10000	1	1	0	1	0
14	586	7	10000	1	1	0	1	0
14	587	7	10000	1	1	0	1	0
14	588	7	10000	1	1	0	1	0
13	589	7	10000	1	1	0	1	0
13	590	7	10000	1	1	0	1	0
14	591	7	10000	1	1	0	1	0
15	592	7	10000	1	1	0	1	0
14	593	7	10000	1	1	0	1	0
13	594	7	10000	1	1	0	1	0
13	595	7	10000	1	1	0	1	0
13	596	7	10000	1	1	0	1	0
13	597	7	10000	1	1	0	1	0
12	598	7	10000	1	1	0	1	0
12	599	7	10000	1	1	0	1	0
13	600	7	10000	1	1	0	1	0
12	601	7	10000	1	1	0	1	0
10	602	7	10000	1	1	0	1	0
10	603	7	10000	1	1	0	1	0
11	604	7	10000	1	1	0	1	0
11	605	7	10000	1	1	0	1	0
11	606	7	10000	1	1	0	1	0
10	607	7	10000	1	1	0	1	0
11	608	7	10000	1	1	0	1	0
10	609	7	10000	1	1	0	1	0
10	610	7	10000	1	1	0	1	0
9	611	7	10000	1	1	0	1	0
12	612	7	10000	1	1	0	1	0
12	613	7	10000	1	1	0	1	0
11	614	7	10000	1	1	0	1	0
10	615	7	10000	1	1	0	1	0
10	616	7	10000	1	1	0	1	0
11	617	7	10000	1	1	0	1	0
11	618	7	10000	1	1	0	1	0
11	619	7	10000	1	1	0	1	0
11	620	7	10000	1	1	0	1	0
11	621	7	10000	1	1	0	1	0
9	622	7	10000	1	1	0	1	0
10	623	7	10000	1	1	0	1	0
11	624	7	10000	1	1	0	1	0
11	625	7	10000	1	1	0	1	0
11	626	7	10000	1	1	0	1	0
13	627	7	10000	1	1	0	1	0
13	628	7	10000	1	1	0	1	0
14	629	7	10000	1	1	0	1	0
19	630	7	10000	1	1	0	1	0
21	631	7	10000	1	1	0	1	0
25	632	7	10000	1	1	0	1	0
26	633	7	10000	1	1	0	1	0
29	634	7	10000	1	1	0	1	0
32	635	7	10000	1	1	0	1	0
34	636	7	10000	1	1	0	1	0
35	637	7	10000	1	1	0	1	0
45	638	7	10000	1	1	0	1	0
50	639	7	10000	1	1	0	1	0
57	640	7	10000	1	1	0	1	0
66	641	7	10000	1	1	0	1	0
98	642	7	10000	1	1	0	1	0
138	643	7	10000	1	1	0	1	0
151	644	7	10000	1	1	0	1	0
147	645	7	10000	1	1	0	1	0
150	646	7	10000	1	1	0	1	0
158	647	7	10000	1	1	0	1	0
155	648	7	10000	1	1	0	1	0
153	649	7	10000	1	1	0	1	0
149	650	7	10000	1	1	0	1	0
152	651	7	10000	1	1	0	1	0
177	652	7	10000	1	1	0	1	0
192	653	7	10000	1	1	0	1	0
189	654	7	10000	1	1	0	1	0
196	655	7	10000	1	1	0	1	0
198	656	7	10000	1	1	0	1	0
190	657	7	10000	1	1	0	1	0
183	658	7	10000	1	1	0	1	0
189	659	7	10000	1	1	0	1	0
191	660	7	10000	1	1	0	1	0
189	661	7	10000	1	1	0	1	0
191	662	7	10000	1	1	0	1	0
188	663	7	10000	1	1	0	1	0
182	664	7	10000	1	1	0	1	0
183	665	7	10000	1	1	0	1	0
183	666	7	10000	1	1	0	1	0
191	667	7	10000	1	1	0	1	0
190	668	7	10000	1	1	0	1	0
196	669	7	10000	1	1	0	1	0
208	670	7	10000	1	1	0	1	0
209	671	7	10000	1	1	0	1	0
204	672	7	10000	1	1	0	1	0
197	673	7	10000	1	1	0	1	0
195	674	7	10000	1	1	0	1	0
192	675	7	10000	1	1	0	1	0
185	676	7	10000	1	1	0	1	0
180	677	7	10000	1	1	0	1	0
174	678	7	10000	1	1	0	1	0
167	679	7	10000	1	1	0	1	0
162	680	7	10000	1	1	0	1	0
158	681	7	10000	1	1	0	1	0
153	682	7	10000	1	1	0	1	0
151	683	7	10000	1	1	0	1	0
149	684	7	10000	1	1	0	1	0
163	685	7	10000	1	1	0	1	0
171	686	7	10000	1	1	0	1	0
167	687	7	10000	1	1	0	1	0
172	688	7	10000	1	1	0	1	0
171	689	7	10000	1	1	0	1	0
163	690	7	10000	1	1	0	1	0
157	691	7	10000	1	1	0	1	0
154	692	7	10000	1	1	0	1	0
148	693	7	10000	1	1	0	1	0
146	694	7	10000	1	1	0	1	0
148	695	7	10000	1	1	0	1	0
149	696	7	10000	1	1	0	1	0
151	697	7	10000	1	1	0	1	0
152	698	7	10000	1	1	0	1	0
150	699	7	10000	1	1	0	1	0
148	700	7	10000	1	1	0	1	0
146	701	7	10000	1	1	0	1	0
143	702	7	10000	1	1	0	1	0
141	703	7	10000	1	1	0	1	0
140	704	7	10000	1	1	0	1	0
139	705	7	10000	1	1	0	1	0
136	706	7	10000	1	1	0	1	0
134	707	7	10000	1	1	0	1	0
133	708	7	10000	1	1	0	1	0
130	709	7	10000	1	1	0	1	0
126	710	7	10000	1	1	0	1	0
121	711	7	10000	1	1	0	1	0
118	712	7	10000	1	1	0	1	0
114	713	7	10000	1	1	0	1	0
110	714	7	10000	1	1	0	1	0
107	715	7	10000	1	1	0	1	0
106	716	7	10000	1	1	0	1	0
104	717	7	10000	1	1	0	1	0
103	718	7	10000	1	1	0	1	0
101	719	7	10000	1	1	0	1	0
99	720	7	10000	1	1	0	1	0
98	721	7	10000	1	1	0	1	0
92	722	7	10000	1	1	0	1	0
91	723	7	10000	1	1	0	1	0
88	724	7	10000	1	1	0	1	0
85	725	7	10000	1	1	0	1	0
82	726	7	10000	1	1	0	1	0
79	727	7	10000	1	1	0	1	0
77	728	7	10000	1	1	0	1	0
74	729	7	10000	1	1	0	1	0
72	730	7	10000	1	1	0	1	0
69	731	7	10000	1	1	0	1	0
68	732	7	10000	1	1	0	1	0
65	733	7	10000	1	1	0	1	0
63	734	7	10000	1	1	0	1	0
60	735	7	10000	1	1	0	1	0
57	736	7	10000	1	1	0	1	0
55	737	7	10000	1	1	0	1	0
53	738	7	10000	1	1	0	1	0
51	739	7	10000	1	1	0	1	0
49	740	7	10000	1	1	0	1	0
48	741	7	10000	1	1	0	1	0
44	742	7	10000	1	1	0	1	0
42	743	7	10000	1	1	0	1	0
42	744	7	10000	1	1	0	1	0
39	745	7	10000	1	1	0	1	0
38	746	7	10000	1	1	0	1	0
37	747	7	10000	1	1	0	1	0
36	748	7	10000	1	1	0	1	0
34	749	7	10000	1	1	0	1	0
33	750	7	10000	1	1	0	1	0
32	751	7	10000	1	1	0	1	0
32	752	7	10000	1	1	0	1	0
32	753	7	10000	1	1	0	1	0
30	754	7	10000	1	1	0	1	0
30	755	7	10000	1	1	0	1	0
29	756	7	10000	1	1	0	1	0
29	757	7	10000	1	1	0	1	0
27	758	7	10000	1	1	0	1	0
27	759	7	10000	1	1	0	1	0
26	760	7	10000	1	1	0	1	0
25	761	7	10000	1	1	0	1	0
23	762	7	10000	1	1	0	1	0
23	763	7	10000	1	1	0	1	0
23	764	7	10000	1	1	0	1	0
22	765	7	10000	1	1	0	1	0
21	766	7	10000	1	1	0	1	0
23	767	7	10000	1	1	0	1	0
23	768	7	10000	1	1	0	1	0
21	769	7	10000	1	1	0	1	0
22	770	7	10000	1	1	0	1	0
23	771	7	10000	1	1	0	1	0
26	772	7	10000	1	1	0	1	0
26	773	7	10000	1	1	0	1	0
24	774	7	10000	1	1	0	1	0
23	775	7	10000	1	1	0	1	0
23	776	7	10000	1	1	0	1	0
23	777	7	10000	1	1	0	1	0
24	778	7	10000	1	1	0	1	0
26	779	7	10000	1	1	0	1	0
26	780	7	10000	1	1	0	1	0
27	781	7	10000	1	1	0	1	0
25	782	7	10000	1	1	0	1	0
25	783	7	10000	1	1	0	1	0
24	784	7	10000	1	1	0	1	0
23	785	7	10000	1	1	0	1	0
21	786	7	10000	1	1	0	1	0
21	787	7	10000	1	1	0	1	0
21	788	7	10000	1	1	0	1	0
19	789	7	10000	1	1	0	1	0
20	790	7	10000	1	1	0	1	0
24	791	7	10000	1	1	0	1	0
33	792	7	10000	1	1	0	1	0
42	793	7	10000	1	1	0	1	0
48	794	7	10000	1	1	0	1	0
54	795	7	10000	1	1	0	1	0
60	796	7	10000	1	1	0	1	0
63	797	7	10000	1	1	0	1	0
62	798	7	10000	1	1	0	1	0
60	799	7	10000	1	1	0	1	0
61	800	7	10000	1	1	0	1	0
60	801	7	10000	1	1	0	1	0
57	802	7	10000	1	1	0	1	0
56	803	7	10000	1	1	0	1	0
56	804	7	10000	1	1	0	1	0
54	805	7	10000	1	1	0	1	0
54	806	7	10000	1	1	0	1	0
53	807	7	10000	1	1	0	1	0
56	808	7	10000	1	1	0	1	0
60	809	7	10000	1	1	0	1	0
68	810	7	10000	1	1	0	1	0
77	811	7	10000	1	1	0	1	0
90	812	7	10000	1	1	0	1	0
101	813	7	10000	1	1	0	1	0
109	814	7	10000	1	1	0	1	0
118	815	7	10000	1	1	0	1	0
126	816	7	10000	1	1	0	1	0
125	817	7	10000	1	1	0	1	0
120	818	7	10000	1	1	0	1	0
116	819	7	10000	1	1	0	1	0
119	820	7	10000	1	1	0	1	0
131	821	7	10000	1	1	0	1	0
144	822	7	10000	1	1	0	1	0
159	823	7	10000	1	1	0	1	0
172	824	7	10000	1	1	0	1	0
183	825	7	10000	1	1	0	1	0
187	826	7	10000	1	1	0	1	0
184	827	7	10000	1	1	0	1	0
176	828	7	10000	1	1	0	1	0
170	829	7	10000	1	1	0	1	0
169	830	7	10000	1	1	0	1	0
175	831	7	10000	1	1	0	1	0
181	832	7	10000	1	1	0	1	0
183	833	7	10000	1	1	0	1	0
181	834	7	10000	1	1	0	1	0
174	835	7	10000	1	1	0	1	0
169	836	7	10000	1	1	0	1	0
167	837	7	10000	1	1	0	1	0
162	838	7	10000	1	1	0	1	0
157	839	7	10000	1	1	0	1	0
157	840	7	10000	1	1	0	1	0
157	841	7	10000	1	1	0	1	0
153	842	7	10000	1	1	0	1	0
146	843	7	10000	1	1	0	1	0
145	844	7	10000	1	1	0	1	0
149	845	7	10000	1	1	0	1	0
152	846	7	10000	1	1	0	1	0
156	847	7	10000	1	1	0	1	0
162	848	7	10000	1	1	0	1	0
166	849	7	10000	1	1	0	1	0
170	850	7	10000	1	1	0	1	0
172	851	7	10000	1	1	0	1	0
175	852	7	10000	1	1	0	1	0
174	853	7	10000	1	1	0	1	0
175	854	7	10000	1	1	0	1	0
176	855	7	10000	1	1	0	1	0
179	856	7	10000	1	1	0	1	0
184	857	7	10000	1	1	0	1	0
189	858	7	10000	1	1	0	1	0
193	859	7	10000	1	1	0	1	0
196	860	7	10000	1	1	0	1	0
198	861	7	10000	1	1	0	1	0
198	862	7	10000	1	1	0	1	0
198	863	7	10000	1	1	0	1	0
198	864	7	10000	1	1	0	1	0
197	865	7	10000	1	1	0	1	0
196	866	7	10000	1	1	0	1	0
195	867	7	10000	1	1	0	1	0
195	868	7	10000	1	1	0	1	0
195	869	7	10000	1	1	0	1	0
195	870	7	10000	1	1	0	1	0
195	871	7	10000	1	1	0	1	0
195	872	7	10000	1	1	0	1	0
193	873	7	10000	1	1	0	1	0
191	874	7	10000	1	1	0	1	0
187	875	7	10000	1	1	0	1	0
183	876	7	10000	1	1	0	1	0
180	877	7	10000	1	1	0	1	0
178	878	7	10000	1	1	0	1	0
175	879	7	10000	1	1	0	1	0
173	880	7	10000	1	1	0	1	0
172	881	7	10000	1	1	0	1	0
168	882	7	10000	1	1	0	1	0
166	883	7	10000	1	1	0	1	0
163	884	7	10000	1	1	0	1	0
158	885	7	10000	1	1	0	1	0
152	886	7	10000	1	1	0	1	0
145	887	7	10000	1	1	0	1	0
140	888	7	10000	1	1	0	1	0
134	889	7	10000	1	1	0	1	0
130	890	7	10000	1	1	0	1	0
126	891	7	10000	1	1	0	1	0
125	892	7	10000	1	1	0	1	0
122	893	7	10000	1	1	0	1	0
118	894	7	10000	1	1	0	1	0
113	895	7	10000	1	1	0	1	0
110	896	7	10000	1	1	0	1	0
106	897	7	10000	1	1	0	1	0
102	898	7	10000	1	1	0	1	0
99	899	7	10000	1	1	0	1	0
94	900	7	10000	1	1	0	1	0
91	901	7	10000	1	1	0	1	0
85	902	7	10000	1	1	0	1	0
82	903	7	10000	1	1	0	1	0
80	904	7	10000	1	1	0	1	0
77	905	7	10000	1	1	0	1	0
75	906	7	10000	1	1	0	1	0
72	907	7	10000	1	1	0	1	0
69	908	7	10000	1	1	0	1	0
67	909	7	10000	1	1	0	1	0
64	910	7	10000	1	1	0	1	0
61	911	7	10000	1	1	0	1	0
60	912	7	10000	1	1	0	1	0
57	913	7	10000	1	1	0	1	0
55	914	7	10000	1	1	0	1	0
52	915	7	10000	1	1	0	1	0
50	916	7	10000	1	1	0	1	0
49	917	7	10000	1	1	0	1	0
47	918	7	10000	1	1	0	1	0
46	919	7	10000	1	1	0	1	0
44	920	7	10000	1	1	0	1	0
43	921	7	10000	1	1	0	1	0
40	922	7	10000	1	1	0	1	0
40	923	7	10000	1	1	0	1	0
41	924	7	10000	1	1	0	1	0
40	925	7	10000	1	1	0	1	0
39	926	7	10000	1	1	0	1	0
39	927	7	10000	1	1	0	1	0
38	928	7	10000	1	1	0	1	0
39	929	7	10000	1	1	0	1	0
39	930	7	10000	1	1	0	1	0
39	931	7	10000	1	1	0	1	0
40	932	7	10000	1	1	0	1	0
39	933	7	10000	1	1	0	1	0
38	934	7	10000	1	1	0	1	0
37	935	7	10000	1	1	0	1	0
35	936	7	10000	1	1	0	1	0
35	937	7	10000	1	1	0	1	0
34	938	7	10000	1	1	0	1	0
35	939	7	10000	1	1	0	1	0
35	940	7	10000	1	1	0	1	0
34	941	7	10000	1	1	0	1	0
31	942	7	10000	1	1	0	1	0
30	943	7	10000	1	1	0	1	0
29	944	7	10000	1	1	0	1	0
29	945	7	10000	1	1	0	1	0
28	946	7	10000	1	1	0	1	0
27	947	7	10000	1	1	0	1	0
26	948	7	10000	1	1	0	1	0
26	949	7	10000	1	1	0	1	0
28	950	7	10000	1	1	0	1	0
27	951	7	10000	1	1	0	1	0
29	952	7	10000	1	1	0	1	0
28	953	7	10000	1	1	0	1	0
27	954	7	10000	1	1	0	1	0
27	955	7	10000	1	1	0	1	0
26	956	7	10000	1	1	0	1	0
25	957	7	10000	1	1	0	1	0
24	958	7	10000	1	1	0	1	0
24	959	7	10000	1	1	0	1	0
24	960	7	10000	1	1	0	1	0
24	961	7	10000	1	1	0	1	0
22	962	7	10000	1	1	0	1	0
25	963	7	10000	1	1	0	1	0
28	964	7	10000	1	1	0	1	0
31	965	7	10000	1	1	0	1	0
34	966	7	10000	1	1	0	1	0
37	967	7	10000	1	1	0	1	0
36	968	7	10000	1	1	0	1	0
35	969	7	10000	1	1	0	1	0
33	970	7	10000	1	1	0	1	0
33	971	7	10000	1	1	0	1	0
38	972	7	10000	1	1	0	1	0
44	973	7	10000	1	1	0	1	0
49	974	7	10000	1	1	0	1	0
51	975	7	10000	1	1	0	1	0
50	976	7	10000	1	1	0	1	0
52	977	7	10000	1	1	0	1	0
58	978	7	10000	1	1	0	1	0
64	979	7	10000	1	1	0	1	0
67	980	7	10000	1	1	0	1	0
68	981	7	10000	1	1	0	1	0
64	982	7	10000	1	1	0	1	0
61	983	7	10000	1	1	0	1	0
59	984	7	10000	1	1	0	1	0
58	985	7	10000	1	1	0	1	0
58	986	7	10000	1	1	0	1	0
59	987	7	10000	1	1	0	1	0
61	988	7	10000	1	1	0	1	0
62	989	7	10000	1	1	0	1	0
62	990	7	10000	1	1	0	1	0
60	991	7	10000	1	1	0	1	0
60	992	7	10000	1	1	0	1	0
57	993	7	10000	1	1	0	1	0
55	994	7	10000	1	1	0	1	0
55	995	7	10000	1	1	0	1	0
56	996	7	10000	1	1	0	1	0
58	997	7	10000	1	1	0	1	0
58	998	7	10000	1	1	0	1	0
59	999	7	10000	1	1	0	1	0
56	1000	7	10000	1	1	0	1	0
38	1	0	10000	2	1	0	2	0
38	2	0	10000	2	1	0	2	0
36	3	0	10000	2	1	0	2	0
35	4	0	10000	2	1	0	2	0
34	5	0	10000	2	1	0	2	0
32	6	0	10000	2	1	0	2	0
32	7	0	10000	2	1	0	2	0
33	8	0	10000	2	1	0	2	0
33	9	0	10000	2	1	0	2	0
32	10	0	10000	2	1	0	2	0
32	11	0	10000	2	1	0	2	0
35	12	0	10000	2	1	0	2	0
38	13	0	10000	2	1	0	2	0
40	14	0	10000	2	1	0	2	0
40	15	0	10000	2	1	0	2	0
40	16	0	10000	2	1	0	2	0
37	17	0	10000	2	1	0	2	0
38	18	0	10000	2	1	0	2	0
37	19	0	10000	2	1	0	2	0
37	20	0	10000	2	1	0	2	0
36	21	0	10000	2	1	0	2	0
35	22	0	10000	2	1	0	2	0
34	23	0	10000	2	1	0	2	0
33	24	0	10000	2	1	0	2	0
32	25	0	10000	2	1	0	2	0
32	26	0	10000	2	1	0	2	0
32	27	0	10000	2	1	0	2	0
32	28	0	10000	2	1	0	2	0
32	29	0	10000	2	1	0	2	0
33	30	0	10000	2	1	0	2	0
33	31	0	10000	2	1	0	2	0
32	32	0	10000	2	1	0	2	0
31	33	0	10000	2	1	0	2	0
32	34	0	10000	2	1	0	2	0
31	35	0	10000	2	1	0	2	0
30	36	0	10000	2	1	0	2	0
28	37	0	10000	2	1	0	2	0
30	38	0	10000	2	1	0	2	0
31	39	0	10000	2	1	0	2	0
29	40	0	10000	2	1	0	2	0
30	41	0	10000	2	1	0	2	0
30	42	0	10000	2	1	0	2	0
30	43	0	10000	2	1	0	2	0
29	44	0	10000	2	1	0	2	0
29	45	0	10000	2	1	0	2	0
27	46	0	10000	2	1	0	2	0
31	47	0	10000	2	1	0	2	0
32	48	0	10000	2	1	0	2	0
30	49	0	10000	2	1	0	2	0
28	50	0	10000	2	1	0	2	0
27	51	0	10000	2	1	0	2	0
28	52	0	10000	2	1	0	2	0
29	53	0	10000	2	1	0	2	0
30	54	0	10000	2	1	0	2	0
29	55	0	10000	2	1	0	2	0
28	56	0	10000	2	1	0	2	0
27	57	0	10000	2	1	0	2	0
28	58	0	10000	2	1	0	2	0
30	59	0	10000	2	1	0	2	0
32	60	0	10000	2	1	0	2	0
31	61	0	10000	2	1	0	2	0
30	62	0	10000	2	1	0	2	0
29	63	0	10000	2	1	0	2	0
27	64	0	10000	2	1	0	2	0
25	65	0	10000	2	1	0	2	0
24	66	0	10000	2	1	0	2	0
26	67	0	10000	2	1	0	2	0
25	68	0	10000	2	1	0	2	0
23	69	0	10000	2	1	0	2	0
22	70	0	10000	2	1	0	2	0
23	71	0	10000	2	1	0	2	0
25	72	0	10000	2	1	0	2	0
26	73	0	10000	2	1	0	2	0
28	74	0	10000	2	1	0	2	0
28	75	0	10000	2	1	0	2	0
27	76	0	10000	2	1	0	2	0
25	77	0	10000	2	1	0	2	0
24	78	0	10000	2	1	0	2	0
25	79	0	10000	2	1	0	2	0
26	80	0	10000	2	1	0	2	0
28	81	0	10000	2	1	0	2	0
31	82	0	10000	2	1	0	2	0
33	83	0	10000	2	1	0	2	0
35	84	0	10000	2	1	0	2	0
36	85	0	10000	2	1	0	2	0
38	86	0	10000	2	1	0	2	0
44	87	0	10000	2	1	0	2	0
51	88	0	10000	2	1	0	2	0
61	89	0	10000	2	1	0	2	0
72	90	0	10000	2	1	0	2	0
79	91	0	10000	2	1	0	2	0
83	92	0	10000	2	1	0	2	0
84	93	0	10000	2	1	0	2	0
83	94	0	10000	2	1	0	2	0
83	95	0	10000	2	1	0	2	0
86	96	0	10000	2	1	0	2	0
89	97	0	10000	2	1	0	2	0
91	98	0	10000	2	1	0	2	0
91	99	0	10000	2	1	0	2	0
92	100	0	10000	2	1	0	2	0
92	101	0	10000	2	1	0	2	0
90	102	0	10000	2	1	0	2	0
91	103	0	10000	2	1	0	2	0
91	104	0	10000	2	1	0	2	0
93	105	0	10000	2	1	0	2	0
94	106	0	10000	2	1	0	2	0
95	107	0	10000	2	1	0	2	0
94	108	0	10000	2	1	0	2	0
95	109	0	10000	2	1	0	2	0
97	110	0	10000	2	1	0	2	0
100	111	0	10000	2	1	0	2	0
102	112	0	10000	2	1	0	2	0
102	113	0	10000	2	1	0	2	0
100	114	0	10000	2	1	0	2	0
96	115	0	10000	2	1	0	2	0
95	116	0	10000	2	1	0	2	0
93	117	0	10000	2	1	0	2	0
92	118	0	10000	2	1	0	2	0
92	119	0	10000	2	1	0	2	0
92	120	0	10000	2	1	0	2	0
93	121	0	10000	2	1	0	2	0
91	122	0	10000	2	1	0	2	0
88	123	0	10000	2	1	0	2	0
86	124	0	10000	2	1	0	2	0
84	125	0	10000	2	1	0	2	0
84	126	0	10000	2	1	0	2	0
86	127	0	10000	2	1	0	2	0
88	128	0	10000	2	1	0	2	0
89	129	0	10000	2	1	0	2	0
92	130	0	10000	2	1	0	2	0
93	131	0	10000	2	1	0	2	0
95	132	0	10000	2	1	0	2	0
98	133	0	10000	2	1	0	2	0
102	134	0	10000	2	1	0	2	0
105	135	0	10000	2	1	0	2	0
109	136	0	10000	2	1	0	2	0
110	137	0	10000	2	1	0	2	0
111	138	0	10000	2	1	0	2	0
114	139	0	10000	2	1	0	2	0
114	140	0	10000	2	1	0	2	0
114	141	0	10000	2	1	0	2	0
115	142	0	10000	2	1	0	2	0
117	143	0	10000	2	1	0	2	0
120	144	0	10000	2	1	0	2	0
121	145	0	10000	2	1	0	2	0
123	146	0	10000	2	1	0	2	0
126	147	0	10000	2	1	0	2	0
128	148	0	10000	2	1	0	2	0
131	149	0	10000	2	1	0	2	0
135	150	0	10000	2	1	0	2	0
137	151	0	10000	2	1	0	2	0
137	152	0	10000	2	1	0	2	0
134	153	0	10000	2	1	0	2	0
129	154	0	10000	2	1	0	2	0
126	155	0	10000	2	1	0	2	0
123	156	0	10000	2	1	0	2	0
118	157	0	10000	2	1	0	2	0
118	158	0	10000	2	1	0	2	0
117	159	0	10000	2	1	0	2	0
116	160	0	10000	2	1	0	2	0
115	161	0	10000	2	1	0	2	0
115	162	0	10000	2	1	0	2	0
113	163	0	10000	2	1	0	2	0
112	164	0	10000	2	1	0	2	0
111	165	0	10000	2	1	0	2	0
110	166	0	10000	2	1	0	2	0
109	167	0	10000	2	1	0	2	0
107	168	0	10000	2	1	0	2	0
104	169	0	10000	2	1	0	2	0
101	170	0	10000	2	1	0	2	0
99	171	0	10000	2	1	0	2	0
97	172	0	10000	2	1	0	2	0
93	173	0	10000	2	1	0	2	0
91	174	0	10000	2	1	0	2	0
89	175	0	10000	2	1	0	2	0
85	176	0	10000	2	1	0	2	0
80	177	0	10000	2	1	0	2	0
77	178	0	10000	2	1	0	2	0
74	179	0	10000	2	1	0	2	0
72	180	0	10000	2	1	0	2	0
70	181	0	10000	2	1	0	2	0
68	182	0	10000	2	1	0	2	0
65	183	0	10000	2	1	0	2	0
63	184	0	10000	2	1	0	2	0
62	185	0	10000	2	1	0	2	0
61	186	0	10000	2	1	0	2	0
63	187	0	10000	2	1	0	2	0
61	188	0	10000	2	1	0	2	0
61	189	0	10000	2	1	0	2	0
62	190	0	10000	2	1	0	2	0
60	191	0	10000	2	1	0	2	0
59	192	0	10000	2	1	0	2	0
58	193	0	10000	2	1	0	2	0
58	194	0	10000	2	1	0	2	0
56	195	0	10000	2	1	0	2	0
56	196	0	10000	2	1	0	2	0
52	197	0	10000	2	1	0	2	0
51	198	0	10000	2	1	0	2	0
49	199	0	10000	2	1	0	2	0
48	200	0	10000	2	1	0	2	0
46	201	0	10000	2	1	0	2	0
45	202	0	10000	2	1	0	2	0
44	203	0	10000	2	1	0	2	0
44	204	0	10000	2	1	0	2	0
46	205	0	10000	2	1	0	2	0
49	206	0	10000	2	1	0	2	0
52	207	0	10000	2	1	0	2	0
50	208	0	10000	2	1	0	2	0
49	209	0	10000	2	1	0	2	0
51	210	0	10000	2	1	0	2	0
54	211	0	10000	2	1	0	2	0
56	212	0	10000	2	1	0	2	0
56	213	0	10000	2	1	0	2	0
55	214	0	10000	2	1	0	2	0
54	215	0	10000	2	1	0	2	0
53	216	0	10000	2	1	0	2	0
49	217	0	10000	2	1	0	2	0
48	218	0	10000	2	1	0	2	0
47	219	0	10000	2	1	0	2	0
44	220	0	10000	2	1	0	2	0
45	221	0	10000	2	1	0	2	0
44	222	0	10000	2	1	0	2	0
44	223	0	10000	2	1	0	2	0
42	224	0	10000	2	1	0	2	0
41	225	0	10000	2	1	0	2	0
39	226	0	10000	2	1	0	2	0
39	227	0	10000	2	1	0	2	0
40	228	0	10000	2	1	0	2	0
39	229	0	10000	2	1	0	2	0
37	230	0	10000	2	1	0	2	0
36	231	0	10000	2	1	0	2	0
34	232	0	10000	2	1	0	2	0
33	233	0	10000	2	1	0	2	0
33	234	0	10000	2	1	0	2	0
32	235	0	10000	2	1	0	2	0
32	236	0	10000	2	1	0	2	0
31	237	0	10000	2	1	0	2	0
30	238	0	10000	2	1	0	2	0
30	239	0	10000	2	1	0	2	0
30	240	0	10000	2	1	0	2	0
29	241	0	10000	2	1	0	2	0
29	242	0	10000	2	1	0	2	0
28	243	0	10000	2	1	0	2	0
27	244	0	10000	2	1	0	2	0
26	245	0	10000	2	1	0	2	0
26	246	0	10000	2	1	0	2	0
29	247	0	10000	2	1	0	2	0
28	248	0	10000	2	1	0	2	0
27	249	0	10000	2	1	0	2	0
25	250	0	10000	2	1	0	2	0
24	251	0	10000	2	1	0	2	0
25	252	0	10000	2	1	0	2	0
26	253	0	10000	2	1	0	2	0
26	254	0	10000	2	1	0	2	0
26	255	0	10000	2	1	0	2	0
26	256	0	10000	2	1	0	2	0
24	257	0	10000	2	1	0	2	0
25	258	0	10000	2	1	0	2	0
25	259	0	10000	2	1	0	2	0
25	260	0	10000	2	1	0	2	0
24	261	0	10000	2	1	0	2	0
23	262	0	10000	2	1	0	2	0
24	263	0	10000	2	1	0	2	0
23	264	0	10000	2	1	0	2	0
24	265	0	10000	2	1	0	2	0
23	266	0	10000	2	1	0	2	0
25	267	0	10000	2	1	0	2	0
28	268	0	10000	2	1	0	2	0
30	269	0	10000	2	1	0	2	0
30	270	0	10000	2	1	0	2	0
30	271	0	10000	2	1	0	2	0
30	272	0	10000	2	1	0	2	0
31	273	0	10000	2	1	0	2	0
31	274	0	10000	2	1	0	2	0
32	275	0	10000	2	1	0	2	0
32	276	0	10000	2	1	0	2	0
32	277	0	10000	2	1	0	2	0
31	278	0	10000	2	1	0	2	0
31	279	0	10000	2	1	0	2	0
31	280	0	10000	2	1	0	2	0
33	281	0	10000	2	1	0	2	0
35	282	0	10000	2	1	0	2	0
38	283	0	10000	2	1	0	2	0
39	284	0	10000	2	1	0	2	0
39	285	0	10000	2	1	0	2	0
40	286	0	10000	2	1	0	2	0
43	287	0	10000	2	1	0	2	0
43	288	0	10000	2	1	0	2	0
41	289	0	10000	2	1	0	2	0
40	290	0	10000	2	1	0	2	0
40	291	0	10000	2	1	0	2	0
39	292	0	10000	2	1	0	2	0
38	293	0	10000	2	1	0	2	0
37	294	0	10000	2	1	0	2	0
35	295	0	10000	2	1	0	2	0
35	296	0	10000	2	1	0	2	0
32	297	0	10000	2	1	0	2	0
31	298	0	10000	2	1	0	2	0
30	299	0	10000	2	1	0	2	0
29	300	0	10000	2	1	0	2	0
29	301	0	10000	2	1	0	2	0
28	302	0	10000	2	1	0	2	0
27	303	0	10000	2	1	0	2	0
25	304	0	10000	2	1	0	2	0
25	305	0	10000	2	1	0	2	0
23	306	0	10000	2	1	0	2	0
24	307	0	10000	2	1	0	2	0
23	308	0	10000	2	1	0	2	0
22	309	0	10000	2	1	0	2	0
21	310	0	10000	2	1	0	2	0
22	311	0	10000	2	1	0	2	0
24	312	0	10000	2	1	0	2	0
24	313	0	10000	2	1	0	2	0
24	314	0	10000	2	1	0	2	0
24	315	0	10000	2	1	0	2	0
27	316	0	10000	2	1	0	2	0
27	317	0	10000	2	1	0	2	0
30	318	0	10000	2	1	0	2	0
30	319	0	10000	2	1	0	2	0
29	320	0	10000	2	1	0	2	0
27	321	0	10000	2	1	0	2	0
26	322	0	10000	2	1	0	2	0
27	323	0	10000	2	1	0	2	0
27	324	0	10000	2	1	0	2	0
28	325	0	10000	2	1	0	2	0
27	326	0	10000	2	1	0	2	0
28	327	0	10000	2	1	0	2	0
28	328	0	10000	2	1	0	2	0
29	329	0	10000	2	1	0	2	0
28	330	0	10000	2	1	0	2	0
26	331	0	10000	2	1	0	2	0
26	332	0	10000	2	1	0	2	0
25	333	0	10000	2	1	0	2	0
25	334	0	10000	2	1	0	2	0
27	335	0	10000	2	1	0	2	0
26	336	0	10000	2	1	0	2	0
25	337	0	10000	2	1	0	2	0
24	338	0	10000	2	1	0	2	0
24	339	0	10000	2	1	0	2	0
24	340	0	10000	2	1	0	2	0
23	341	0	10000	2	1	0	2	0
23	342	0	10000	2	1	0	2	0
24	343	0	10000	2	1	0	2	0
23	344	0	10000	2	1	0	2	0
22	345	0	10000	2	1	0	2	0
22	346	0	10000	2	1	0	2	0
25	347	0	10000	2	1	0	2	0
25	348	0	10000	2	1	0	2	0
28	349	0	10000	2	1	0	2	0
29	350	0	10000	2	1	0	2	0
29	351	0	10000	2	1	0	2	0
28	352	0	10000	2	1	0	2	0
28	353	0	10000	2	1	0	2	0
29	354	0	10000	2	1	0	2	0
31	355	0	10000	2	1	0	2	0
34	356	0	10000	2	1	0	2	0
37	357	0	10000	2	1	0	2	0
38	358	0	10000	2	1	0	2	0
37	359	0	10000	2	1	0	2	0
36	360	0	10000	2	1	0	2	0
36	361	0	10000	2	1	0	2	0
36	362	0	10000	2	1	0	2	0
37	363	0	10000	2	1	0	2	0
38	364	0	10000	2	1	0	2	0
37	365	0	10000	2	1	0	2	0
38	366	0	10000	2	1	0	2	0
44	367	0	10000	2	1	0	2	0
46	368	0	10000	2	1	0	2	0
45	369	0	10000	2	1	0	2	0
44	370	0	10000	2	1	0	2	0
43	371	0	10000	2	1	0	2	0
41	372	0	10000	2	1	0	2	0
40	373	0	10000	2	1	0	2	0
38	374	0	10000	2	1	0	2	0
37	375	0	10000	2	1	0	2	0
36	376	0	10000	2	1	0	2	0
34	377	0	10000	2	1	0	2	0
32	378	0	10000	2	1	0	2	0
32	379	0	10000	2	1	0	2	0
32	380	0	10000	2	1	0	2	0
34	381	0	10000	2	1	0	2	0
33	382	0	10000	2	1	0	2	0
33	383	0	10000	2	1	0	2	0
34	384	0	10000	2	1	0	2	0
34	385	0	10000	2	1	0	2	0
34	386	0	10000	2	1	0	2	0
34	387	0	10000	2	1	0	2	0
34	388	0	10000	2	1	0	2	0
33	389	0	10000	2	1	0	2	0
34	390	0	10000	2	1	0	2	0
33	391	0	10000	2	1	0	2	0
31	392	0	10000	2	1	0	2	0
30	393	0	10000	2	1	0	2	0
30	394	0	10000	2	1	0	2	0
29	395	0	10000	2	1	0	2	0
29	396	0	10000	2	1	0	2	0
29	397	0	10000	2	1	0	2	0
28	398	0	10000	2	1	0	2	0
29	399	0	10000	2	1	0	2	0
29	400	0	10000	2	1	0	2	0
28	401	0	10000	2	1	0	2	0
27	402	0	10000	2	1	0	2	0
27	403	0	10000	2	1	0	2	0
28	404	0	10000	2	1	0	2	0
26	405	0	10000	2	1	0	2	0
25	406	0	10000	2	1	0	2	0
26	407	0	10000	2	1	0	2	0
26	408	0	10000	2	1	0	2	0
26	409	0	10000	2	1	0	2	0
26	410	0	10000	2	1	0	2	0
29	411	0	10000	2	1	0	2	0
29	412	0	10000	2	1	0	2	0
30	413	0	10000	2	1	0	2	0
33	414	0	10000	2	1	0	2	0
35	415	0	10000	2	1	0	2	0
38	416	0	10000	2	1	0	2	0
42	417	0	10000	2	1	0	2	0
45	418	0	10000	2	1	0	2	0
49	419	0	10000	2	1	0	2	0
49	420	0	10000	2	1	0	2	0
47	421	0	10000	2	1	0	2	0
45	422	0	10000	2	1	0	2	0
44	423	0	10000	2	1	0	2	0
42	424	0	10000	2	1	0	2	0
41	425	0	10000	2	1	0	2	0
41	426	0	10000	2	1	0	2	0
41	427	0	10000	2	1	0	2	0
40	428	0	10000	2	1	0	2	0
39	429	0	10000	2	1	0	2	0
40	430	0	10000	2	1	0	2	0
41	431	0	10000	2	1	0	2	0
42	432	0	10000	2	1	0	2	0
40	433	0	10000	2	1	0	2	0
40	434	0	10000	2	1	0	2	0
40	435	0	10000	2	1	0	2	0
39	436	0	10000	2	1	0	2	0
38	437	0	10000	2	1	0	2	0
37	438	0	10000	2	1	0	2	0
36	439	0	10000	2	1	0	2	0
37	440	0	10000	2	1	0	2	0
35	441	0	10000	2	1	0	2	0
35	442	0	10000	2	1	0	2	0
33	443	0	10000	2	1	0	2	0
33	444	0	10000	2	1	0	2	0
33	445	0	10000	2	1	0	2	0
31	446	0	10000	2	1	0	2	0
32	447	0	10000	2	1	0	2	0
32	448	0	10000	2	1	0	2	0
34	449	0	10000	2	1	0	2	0
39	450	0	10000	2	1	0	2	0
43	451	0	10000	2	1	0	2	0
46	452	0	10000	2	1	0	2	0
47	453	0	10000	2	1	0	2	0
44	454	0	10000	2	1	0	2	0
45	455	0	10000	2	1	0	2	0
47	456	0	10000	2	1	0	2	0
48	457	0	10000	2	1	0	2	0
48	458	0	10000	2	1	0	2	0
48	459	0	10000	2	1	0	2	0
48	460	0	10000	2	1	0	2	0
47	461	0	10000	2	1	0	2	0
46	462	0	10000	2	1	0	2	0
45	463	0	10000	2	1	0	2	0
44	464	0	10000	2	1	0	2	0
42	465	0	10000	2	1	0	2	0
42	466	0	10000	2	1	0	2	0
41	467	0	10000	2	1	0	2	0
41	468	0	10000	2	1	0	2	0
41	469	0	10000	2	1	0	2	0
39	470	0	10000	2	1	0	2	0
38	471	0	10000	2	1	0	2	0
36	472	0	10000	2	1	0	2	0
36	473	0	10000	2	1	0	2	0
36	474	0	10000	2	1	0	2	0
36	475	0	10000	2	1	0	2	0
36	476	0	10000	2	1	0	2	0
34	477	0	10000	2	1	0	2	0
35	478	0	10000	2	1	0	2	0
35	479	0	10000	2	1	0	2	0
33	480	0	10000	2	1	0	2	0
32	481	0	10000	2	1	0	2	0
31	482	0	10000	2	1	0	2	0
31	483	0	10000	2	1	0	2	0
30	484	0	10000	2	1	0	2	0
29	485	0	10000	2	1	0	2	0
28	486	0	10000	2	1	0	2	0
30	487	0	10000	2	1	0	2	0
32	488	0	10000	2	1	0	2	0
32	489	0	10000	2	1	0	2	0
31	490	0	10000	2	1	0	2	0
31	491	0	10000	2	1	0	2	0
29	492	0	10000	2	1	0	2	0
28	493	0	10000	2	1	0	2	0
28	494	0	10000	2	1	0	2	0
27	495	0	10000	2	1	0	2	0
26	496	0	10000	2	1	0	2	0
25	497	0	10000	2	1	0	2	0
24	498	0	10000	2	1	0	2	0
27	499	0	10000	2	1	0	2	0
29	500	0	10000	2	1	0	2	0
31	501	0	10000	2	1	0	2	1
32	502	0	10000	2	1	0	2	1
31	503	0	10000	2	1	0	2	1
31	504	0	10000	2	1	0	2	1
31	505	0	10000	2	1	0	2	1
31	506	0	10000	2	1	0	2	1
31	507	0	10000	2	1	0	2	1
31	508	0	10000	2	1	0	2	1
29	509	0	10000	2	1	0	2	1
28	510	0	10000	2	1	0	2	1
29	511	0	10000	2	1	0	2	1
29	512	0	10000	2	1	0	2	1
29	513	0	10000	2	1	0	2	1
29	514	0	10000	2	1	0	2	1
30	515	0	10000	2	1	0	2	1
29	516	0	10000	2	1	0	2	1
28	517	0	10000	2	1	0	2	1
30	518	0	10000	2	1	0	2	1
31	519	0	10000	2	1	0	2	1
34	520	0	10000	2	1	0	2	1
39	521	0	10000	2	1	0	2	1
42	522	0	10000	2	1	0	2	1
43	523	0	10000	2	1	0	2	1
41	524	0	10000	2	1	0	2	1
41	525	0	10000	2	1	0	2	1
40	526	0	10000	2	1	0	2	1
40	527	0	10000	2	1	0	2	1
42	528	0	10000	2	1	0	2	1
42	529	0	10000	2	1	0	2	1
42	530	0	10000	2	1	0	2	1
42	531	0	10000	2	1	0	2	1
41	532	0	10000	2	1	0	2	1
41	533	0	10000	2	1	0	2	1
42	534	0	10000	2	1	0	2	1
41	535	0	10000	2	1	0	2	1
40	536	0	10000	2	1	0	2	1
38	537	0	10000	2	1	0	2	1
38	538	0	10000	2	1	0	2	1
39	539	0	10000	2	1	0	2	1
42	540	0	10000	2	1	0	2	1
45	541	0	10000	2	1	0	2	1
45	542	0	10000	2	1	0	2	1
44	543	0	10000	2	1	0	2	1
44	544	0	10000	2	1	0	2	1
44	545	0	10000	2	1	0	2	1
43	546	0	10000	2	1	0	2	1
43	547	0	10000	2	1	0	2	1
43	548	0	10000	2	1	0	2	1
41	549	0	10000	2	1	0	2	1
43	550	0	10000	2	1	0	2	1
44	551	0	10000	2	1	0	2	0
44	552	0	10000	2	1	0	2	0
45	553	0	10000	2	1	0	2	0
46	554	0	10000	2	1	0	2	0
46	555	0	10000	2	1	0	2	0
44	556	0	10000	2	1	0	2	0
41	557	0	10000	2	1	0	2	0
40	558	0	10000	2	1	0	2	0
39	559	0	10000	2	1	0	2	0
41	560	0	10000	2	1	0	2	0
43	561	0	10000	2	1	0	2	0
41	562	0	10000	2	1	0	2	0
40	563	0	10000	2	1	0	2	0
40	564	0	10000	2	1	0	2	0
40	565	0	10000	2	1	0	2	0
41	566	0	10000	2	1	0	2	0
42	567	0	10000	2	1	0	2	0
42	568	0	10000	2	1	0	2	0
40	569	0	10000	2	1	0	2	0
38	570	0	10000	2	1	0	2	0
37	571	0	10000	2	1	0	2	0
37	572	0	10000	2	1	0	2	0
38	573	0	10000	2	1	0	2	0
38	574	0	10000	2	1	0	2	0
37	575	0	10000	2	1	0	2	0
36	576	0	10000	2	1	0	2	0
34	577	0	10000	2	1	0	2	0
34	578	0	10000	2	1	0	2	0
36	579	0	10000	2	1	0	2	0
38	580	0	10000	2	1	0	2	0
41	581	0	10000	2	1	0	2	0
46	582	0	10000	2	1	0	2	0
51	583	0	10000	2	1	0	2	0
51	584	0	10000	2	1	0	2	0
56	585	0	10000	2	1	0	2	0
65	586	0	10000	2	1	0	2	0
73	587	0	10000	2	1	0	2	0
80	588	0	10000	2	1	0	2	0
83	589	0	10000	2	1	0	2	0
100	590	0	10000	2	1	0	2	0
128	591	0	10000	2	1	0	2	0
138	592	0	10000	2	1	0	2	0
136	593	0	10000	2	1	0	2	0
136	594	0	10000	2	1	0	2	0
146	595	0	10000	2	1	0	2	0
153	596	0	10000	2	1	0	2	0
146	597	0	10000	2	1	0	2	0
139	598	0	10000	2	1	0	2	0
134	599	0	10000	2	1	0	2	0
135	600	0	10000	2	1	0	2	0
138	601	0	10000	2	1	0	2	0
134	602	0	10000	2	1	0	2	0
128	603	0	10000	2	1	0	2	0
128	604	0	10000	2	1	0	2	0
135	605	0	10000	2	1	0	2	0
143	606	0	10000	2	1	0	2	0
152	607	0	10000	2	1	0	2	0
150	608	0	10000	2	1	0	2	0
148	609	0	10000	2	1	0	2	0
152	610	0	10000	2	1	0	2	0
149	611	0	10000	2	1	0	2	0
155	612	0	10000	2	1	0	2	0
153	613	0	10000	2	1	0	2	0
147	614	0	10000	2	1	0	2	0
143	615	0	10000	2	1	0	2	0
141	616	0	10000	2	1	0	2	0
135	617	0	10000	2	1	0	2	0
131	618	0	10000	2	1	0	2	0
144	619	0	10000	2	1	0	2	0
163	620	0	10000	2	1	0	2	0
177	621	0	10000	2	1	0	2	0
177	622	0	10000	2	1	0	2	0
184	623	0	10000	2	1	0	2	0
183	624	0	10000	2	1	0	2	0
180	625	0	10000	2	1	0	2	0
185	626	0	10000	2	1	0	2	0
183	627	0	10000	2	1	0	2	0
180	628	0	10000	2	1	0	2	0
174	629	0	10000	2	1	0	2	0
167	630	0	10000	2	1	0	2	0
160	631	0	10000	2	1	0	2	0
153	632	0	10000	2	1	0	2	0
149	633	0	10000	2	1	0	2	0
144	634	0	10000	2	1	0	2	0
139	635	0	10000	2	1	0	2	0
135	636	0	10000	2	1	0	2	0
133	637	0	10000	2	1	0	2	0
131	638	0	10000	2	1	0	2	0
130	639	0	10000	2	1	0	2	0
128	640	0	10000	2	1	0	2	0
125	641	0	10000	2	1	0	2	0
122	642	0	10000	2	1	0	2	0
117	643	0	10000	2	1	0	2	0
114	644	0	10000	2	1	0	2	0
109	645	0	10000	2	1	0	2	0
105	646	0	10000	2	1	0	2	0
100	647	0	10000	2	1	0	2	0
99	648	0	10000	2	1	0	2	0
96	649	0	10000	2	1	0	2	0
92	650	0	10000	2	1	0	2	0
88	651	0	10000	2	1	0	2	0
84	652	0	10000	2	1	0	2	0
84	653	0	10000	2	1	0	2	0
84	654	0	10000	2	1	0	2	0
84	655	0	10000	2	1	0	2	0
84	656	0	10000	2	1	0	2	0
83	657	0	10000	2	1	0	2	0
81	658	0	10000	2	1	0	2	0
82	659	0	10000	2	1	0	2	0
81	660	0	10000	2	1	0	2	0
83	661	0	10000	2	1	0	2	0
83	662	0	10000	2	1	0	2	0
84	663	0	10000	2	1	0	2	0
84	664	0	10000	2	1	0	2	0
84	665	0	10000	2	1	0	2	0
84	666	0	10000	2	1	0	2	0
85	667	0	10000	2	1	0	2	0
86	668	0	10000	2	1	0	2	0
85	669	0	10000	2	1	0	2	0
86	670	0	10000	2	1	0	2	0
87	671	0	10000	2	1	0	2	0
88	672	0	10000	2	1	0	2	0
86	673	0	10000	2	1	0	2	0
86	674	0	10000	2	1	0	2	0
85	675	0	10000	2	1	0	2	0
84	676	0	10000	2	1	0	2	0
82	677	0	10000	2	1	0	2	0
79	678	0	10000	2	1	0	2	0
78	679	0	10000	2	1	0	2	0
77	680	0	10000	2	1	0	2	0
78	681	0	10000	2	1	0	2	0
78	682	0	10000	2	1	0	2	0
79	683	0	10000	2	1	0	2	0
79	684	0	10000	2	1	0	2	0
79	685	0	10000	2	1	0	2	0
77	686	0	10000	2	1	0	2	0
76	687	0	10000	2	1	0	2	0
75	688	0	10000	2	1	0	2	0
73	689	0	10000	2	1	0	2	0
69	690	0	10000	2	1	0	2	0
67	691	0	10000	2	1	0	2	0
65	692	0	10000	2	1	0	2	0
63	693	0	10000	2	1	0	2	0
60	694	0	10000	2	1	0	2	0
60	695	0	10000	2	1	0	2	0
58	696	0	10000	2	1	0	2	0
57	697	0	10000	2	1	0	2	0
57	698	0	10000	2	1	0	2	0
58	699	0	10000	2	1	0	2	0
56	700	0	10000	2	1	0	2	0
56	701	0	10000	2	1	0	2	0
56	702	0	10000	2	1	0	2	0
56	703	0	10000	2	1	0	2	0
55	704	0	10000	2	1	0	2	0
53	705	0	10000	2	1	0	2	0
50	706	0	10000	2	1	0	2	0
49	707	0	10000	2	1	0	2	0
50	708	0	10000	2	1	0	2	0
49	709	0	10000	2	1	0	2	0
48	710	0	10000	2	1	0	2	0
46	711	0	10000	2	1	0	2	0
46	712	0	10000	2	1	0	2	0
46	713	0	10000	2	1	0	2	0
46	714	0	10000	2	1	0	2	0
48	715	0	10000	2	1	0	2	0
49	716	0	10000	2	1	0	2	0
48	717	0	10000	2	1	0	2	0
47	718	0	10000	2	1	0	2	0
46	719	0	10000	2	1	0	2	0
45	720	0	10000	2	1	0	2	0
46	721	0	10000	2	1	0	2	0
47	722	0	10000	2	1	0	2	0
48	723	0	10000	2	1	0	2	0
49	724	0	10000	2	1	0	2	0
50	725	0	10000	2	1	0	2	0
50	726	0	10000	2	1	0	2	0
50	727	0	10000	2	1	0	2	0
50	728	0	10000	2	1	0	2	0
49	729	0	10000	2	1	0	2	0
48	730	0	10000	2	1	0	2	0
49	731	0	10000	2	1	0	2	0
51	732	0	10000	2	1	0	2	0
54	733	0	10000	2	1	0	2	0
57	734	0	10000	2	1	0	2	0
58	735	0	10000	2	1	0	2	0
57	736	0	10000	2	1	0	2	0
56	737	0	10000	2	1	0	2	0
56	738	0	10000	2	1	0	2	0
57	739	0	10000	2	1	0	2	0
58	740	0	10000	2	1	0	2	0
58	741	0	10000	2	1	0	2	0
57	742	0	10000	2	1	0	2	0
55	743	0	10000	2	1	0	2	0
56	744	0	10000	2	1	0	2	0
57	745	0	10000	2	1	0	2	0
56	746	0	10000	2	1	0	2	0
54	747	0	10000	2	1	0	2	0
52	748	0	10000	2	1	0	2	0
51	749	0	10000	2	1	0	2	0
49	750	0	10000	2	1	0	2	0
47	751	0	10000	2	1	0	2	0
46	752	0	10000	2	1	0	2	0
45	753	0	10000	2	1	0	2	0
46	754	0	10000	2	1	0	2	0
45	755	0	10000	2	1	0	2	0
44	756	0	10000	2	1	0	2	0
43	757	0	10000	2	1	0	2	0
39	758	0	10000	2	1	0	2	0
39	759	0	10000	2	1	0	2	0
39	760	0	10000	2	1	0	2	0
39	761	0	10000	2	1	0	2	0
40	762	0	10000	2	1	0	2	0
42	763	0	10000	2	1	0	2	0
43	764	0	10000	2	1	0	2	0
46	765	0	10000	2	1	0	2	0
49	766	0	10000	2	1	0	2	0
51	767	0	10000	2	1	0	2	0
53	768	0	10000	2	1	0	2	0
51	769	0	10000	2	1	0	2	0
51	770	0	10000	2	1	0	2	0
48	771	0	10000	2	1	0	2	0
46	772	0	10000	2	1	0	2	0
44	773	0	10000	2	1	0	2	0
43	774	0	10000	2	1	0	2	0
42	775	0	10000	2	1	0	2	0
42	776	0	10000	2	1	0	2	0
44	777	0	10000	2	1	0	2	0
47	778	0	10000	2	1	0	2	0
52	779	0	10000	2	1	0	2	0
54	780	0	10000	2	1	0	2	0
52	781	0	10000	2	1	0	2	0
51	782	0	10000	2	1	0	2	0
51	783	0	10000	2	1	0	2	0
51	784	0	10000	2	1	0	2	0
49	785	0	10000	2	1	0	2	0
47	786	0	10000	2	1	0	2	0
46	787	0	10000	2	1	0	2	0
45	788	0	10000	2	1	0	2	0
44	789	0	10000	2	1	0	2	0
43	790	0	10000	2	1	0	2	0
41	791	0	10000	2	1	0	2	0
43	792	0	10000	2	1	0	2	0
47	793	0	10000	2	1	0	2	0
49	794	0	10000	2	1	0	2	0
49	795	0	10000	2	1	0	2	0
48	796	0	10000	2	1	0	2	0
47	797	0	10000	2	1	0	2	0
47	798	0	10000	2	1	0	2	0
48	799	0	10000	2	1	0	2	0
52	800	0	10000	2	1	0	2	0
54	801	0	10000	2	1	0	2	0
56	802	0	10000	2	1	0	2	0
58	803	0	10000	2	1	0	2	0
58	804	0	10000	2	1	0	2	0
56	805	0	10000	2	1	0	2	0
57	806	0	10000	2	1	0	2	0
57	807	0	10000	2	1	0	2	0
59	808	0	10000	2	1	0	2	0
58	809	0	10000	2	1	0	2	0
58	810	0	10000	2	1	0	2	0
56	811	0	10000	2	1	0	2	0
55	812	0	10000	2	1	0	2	0
53	813	0	10000	2	1	0	2	0
52	814	0	10000	2	1	0	2	0
51	815	0	10000	2	1	0	2	0
51	816	0	10000	2	1	0	2	0
48	817	0	10000	2	1	0	2	0
45	818	0	10000	2	1	0	2	0
46	819	0	10000	2	1	0	2	0
47	820	0	10000	2	1	0	2	0
48	821	0	10000	2	1	0	2	0
49	822	0	10000	2	1	0	2	0
49	823	0	10000	2	1	0	2	0
48	824	0	10000	2	1	0	2	0
45	825	0	10000	2	1	0	2	0
45	826	0	10000	2	1	0	2	0
45	827	0	10000	2	1	0	2	0
47	828	0	10000	2	1	0	2	0
46	829	0	10000	2	1	0	2	0
43	830	0	10000	2	1	0	2	0
41	831	0	10000	2	1	0	2	0
40	832	0	10000	2	1	0	2	0
39	833	0	10000	2	1	0	2	0
37	834	0	10000	2	1	0	2	0
36	835	0	10000	2	1	0	2	0
35	836	0	10000	2	1	0	2	0
33	837	0	10000	2	1	0	2	0
31	838	0	10000	2	1	0	2	0
30	839	0	10000	2	1	0	2	0
30	840	0	10000	2	1	0	2	0
30	841	0	10000	2	1	0	2	0
31	842	0	10000	2	1	0	2	0
32	843	0	10000	2	1	0	2	0
33	844	0	10000	2	1	0	2	0
33	845	0	10000	2	1	0	2	0
32	846	0	10000	2	1	0	2	0
32	847	0	10000	2	1	0	2	0
32	848	0	10000	2	1	0	2	0
30	849	0	10000	2	1	0	2	0
29	850	0	10000	2	1	0	2	0
28	851	0	10000	2	1	0	2	0
28	852	0	10000	2	1	0	2	0
26	853	0	10000	2	1	0	2	0
26	854	0	10000	2	1	0	2	0
26	855	0	10000	2	1	0	2	0
26	856	0	10000	2	1	0	2	0
25	857	0	10000	2	1	0	2	0
22	858	0	10000	2	1	0	2	0
22	859	0	10000	2	1	0	2	0
23	860	0	10000	2	1	0	2	0
24	861	0	10000	2	1	0	2	0
24	862	0	10000	2	1	0	2	0
24	863	0	10000	2	1	0	2	0
24	864	0	10000	2	1	0	2	0
25	865	0	10000	2	1	0	2	0
25	866	0	10000	2	1	0	2	0
25	867	0	10000	2	1	0	2	0
26	868	0	10000	2	1	0	2	0
25	869	0	10000	2	1	0	2	0
25	870	0	10000	2	1	0	2	0
24	871	0	10000	2	1	0	2	0
24	872	0	10000	2	1	0	2	0
24	873	0	10000	2	1	0	2	0
25	874	0	10000	2	1	0	2	0
28	875	0	10000	2	1	0	2	0
28	876	0	10000	2	1	0	2	0
27	877	0	10000	2	1	0	2	0
26	878	0	10000	2	1	0	2	0
26	879	0	10000	2	1	0	2	0
28	880	0	10000	2	1	0	2	0
29	881	0	10000	2	1	0	2	0
29	882	0	10000	2	1	0	2	0
31	883	0	10000	2	1	0	2	0
33	884	0	10000	2	1	0	2	0
36	885	0	10000	2	1	0	2	0
38	886	0	10000	2	1	0	2	0
38	887	0	10000	2	1	0	2	0
38	888	0	10000	2	1	0	2	0
37	889	0	10000	2	1	0	2	0
36	890	0	10000	2	1	0	2	0
37	891	0	10000	2	1	0	2	0
36	892	0	10000	2	1	0	2	0
36	893	0	10000	2	1	0	2	0
35	894	0	10000	2	1	0	2	0
37	895	0	10000	2	1	0	2	0
38	896	0	10000	2	1	0	2	0
36	897	0	10000	2	1	0	2	0
35	898	0	10000	2	1	0	2	0
35	899	0	10000	2	1	0	2	0
35	900	0	10000	2	1	0	2	0
35	901	0	10000	2	1	0	2	0
33	902	0	10000	2	1	0	2	0
33	903	0	10000	2	1	0	2	0
33	904	0	10000	2	1	0	2	0
32	905	0	10000	2	1	0	2	0
30	906	0	10000	2	1	0	2	0
29	907	0	10000	2	1	0	2	0
30	908	0	10000	2	1	0	2	0
28	909	0	10000	2	1	0	2	0
28	910	0	10000	2	1	0	2	0
27	911	0	10000	2	1	0	2	0
27	912	0	10000	2	1	0	2	0
28	913	0	10000	2	1	0	2	0
30	914	0	10000	2	1	0	2	0
31	915	0	10000	2	1	0	2	0
31	916	0	10000	2	1	0	2	0
30	917	0	10000	2	1	0	2	0
28	918	0	10000	2	1	0	2	0
29	919	0	10000	2	1	0	2	0
28	920	0	10000	2	1	0	2	0
28	921	0	10000	2	1	0	2	0
28	922	0	10000	2	1	0	2	0
27	923	0	10000	2	1	0	2	0
29	924	0	10000	2	1	0	2	0
30	925	0	10000	2	1	0	2	0
31	926	0	10000	2	1	0	2	0
32	927	0	10000	2	1	0	2	0
32	928	0	10000	2	1	0	2	0
31	929	0	10000	2	1	0	2	0
29	930	0	10000	2	1	0	2	0
28	931	0	10000	2	1	0	2	0
27	932	0	10000	2	1	0	2	0
27	933	0	10000	2	1	0	2	0
28	934	0	10000	2	1	0	2	0
27	935	0	10000	2	1	0	2	0
27	936	0	10000	2	1	0	2	0
27	937	0	10000	2	1	0	2	0
25	938	0	10000	2	1	0	2	0
24	939	0	10000	2	1	0	2	0
24	940	0	10000	2	1	0	2	0
25	941	0	10000	2	1	0	2	0
26	942	0	10000	2	1	0	2	0
28	943	0	10000	2	1	0	2	0
29	944	0	10000	2	1	0	2	0
30	945	0	10000	2	1	0	2	0
29	946	0	10000	2	1	0	2	0
29	947	0	10000	2	1	0	2	0
30	948	0	10000	2	1	0	2	0
29	949	0	10000	2	1	0	2	0
29	950	0	10000	2	1	0	2	0
27	951	0	10000	2	1	0	2	0
26	952	0	10000	2	1	0	2	0
25	953	0	10000	2	1	0	2	0
24	954	0	10000	2	1	0	2	0
23	955	0	10000	2	1	0	2	0
23	956	0	10000	2	1	0	2	0
23	957	0	10000	2	1	0	2	0
20	958	0	10000	2	1	0	2	0
20	959	0	10000	2	1	0	2	0
19	960	0	10000	2	1	0	2	0
19	961	0	10000	2	1	0	2	0
19	962	0	10000	2	1	0	2	0
20	963	0	10000	2	1	0	2	0
18	964	0	10000	2	1	0	2	0
17	965	0	10000	2	1	0	2	0
17	966	0	10000	2	1	0	2	0
16	967	0	10000	2	1	0	2	0
17	968	0	10000	2	1	0	2	0
17	969	0	10000	2	1	0	2	0
16	970	0	10000	2	1	0	2	0
15	971	0	10000	2	1	0	2	0
15	972	0	10000	2	1	0	2	0
16	973	0	10000	2	1	0	2	0
15	974	0	10000	2	1	0	2	0
18	975	0	10000	2	1	0	2	0
21	976	0	10000	2	1	0	2	0
26	977	0	10000	2	1	0	2	0
28	978	0	10000	2	1	0	2	0
30	979	0	10000	2	1	0	2	0
30	980	0	10000	2	1	0	2	0
29	981	0	10000	2	1	0	2	0
29	982	0	10000	2	1	0	2	0
29	983	0	10000	2	1	0	2	0
30	984	0	10000	2	1	0	2	0
30	985	0	10000	2	1	0	2	0
29	986	0	10000	2	1	0	2	0
28	987	0	10000	2	1	0	2	0
32	988	0	10000	2	1	0	2	0
34	989	0	10000	2	1	0	2	0
36	990	0	10000	2	1	0	2	0
39	991	0	10000	2	1	0	2	0
43	992	0	10000	2	1	0	2	0
48	993	0	10000	2	1	0	2	0
51	994	0	10000	2	1	0	2	0
53	995	0	10000	2	1	0	2	0
51	996	0	10000	2	1	0	2	0
49	997	0	10000	2	1	0	2	0
45	998	0	10000	2	1	0	2	0
45	999	0	10000	2	1	0	2	0
43	1000	0	10000	2	1	0	2	0
40	1	7	10000	3	1	0	3	0
41	2	7	10000	3	1	0	3	0
39	3	7	10000	3	1	0	3	0
39	4	7	10000	3	1	0	3	0
42	5	7	10000	3	1	0	3	0
42	6	7	10000	3	1	0	3	0
40	7	7	10000	3	1	0	3	0
44	8	7	10000	3	1	0	3	0
50	9	7	10000	3	1	0	3	0
50	10	7	10000	3	1	0	3	0
48	11	7	10000	3	1	0	3	0
48	12	7	10000	3	1	0	3	0
48	13	7	10000	3	1	0	3	0
47	14	7	10000	3	1	0	3	0
47	15	7	10000	3	1	0	3	0
46	16	7	10000	3	1	0	3	0
48	17	7	10000	3	1	0	3	0
48	18	7	10000	3	1	0	3	0
50	19	7	10000	3	1	0	3	0
52	20	7	10000	3	1	0	3	0
56	20	7	10000	3	1	0	3	0
56	21	7	10000	3	1	0	3	0
55	23	7	10000	3	1	0	3	0
56	24	7	10000	3	1	0	3	0
55	25	7	10000	3	1	0	3	0
56	26	7	10000	3	1	0	3	0
54	27	7	10000	3	1	0	3	0
55	28	7	10000	3	1	0	3	0
53	29	7	10000	3	1	0	3	0
52	30	7	10000	3	1	0	3	0
50	30	7	10000	3	1	0	3	0
50	31	7	10000	3	1	0	3	0
51	33	7	10000	3	1	0	3	0
52	34	7	10000	3	1	0	3	0
52	35	7	10000	3	1	0	3	0
52	36	7	10000	3	1	0	3	0
53	37	7	10000	3	1	0	3	0
52	38	7	10000	3	1	0	3	0
52	39	7	10000	3	1	0	3	0
49	40	7	10000	3	1	0	3	0
48	40	7	10000	3	1	0	3	0
47	41	7	10000	3	1	0	3	0
44	43	7	10000	3	1	0	3	0
45	44	7	10000	3	1	0	3	0
47	45	7	10000	3	1	0	3	0
45	46	7	10000	3	1	0	3	0
44	47	7	10000	3	1	0	3	0
45	48	7	10000	3	1	0	3	0
45	49	7	10000	3	1	0	3	0
44	50	7	10000	3	1	0	3	0
43	50	7	10000	3	1	0	3	0
42	51	7	10000	3	1	0	3	0
42	53	7	10000	3	1	0	3	0
40	54	7	10000	3	1	0	3	0
39	55	7	10000	3	1	0	3	0
39	56	7	10000	3	1	0	3	0
39	57	7	10000	3	1	0	3	0
37	58	7	10000	3	1	0	3	0
36	59	7	10000	3	1	0	3	0
34	60	7	10000	3	1	0	3	0
34	60	7	10000	3	1	0	3	0
33	61	7	10000	3	1	0	3	0
35	63	7	10000	3	1	0	3	0
36	64	7	10000	3	1	0	3	0
35	65	7	10000	3	1	0	3	0
35	66	7	10000	3	1	0	3	0
33	67	7	10000	3	1	0	3	0
34	68	7	10000	3	1	0	3	0
33	69	7	10000	3	1	0	3	0
32	70	7	10000	3	1	0	3	0
31	70	7	10000	3	1	0	3	0
30	71	7	10000	3	1	0	3	0
30	73	7	10000	3	1	0	3	0
30	74	7	10000	3	1	0	3	0
29	75	7	10000	3	1	0	3	0
27	76	7	10000	3	1	0	3	0
32	77	7	10000	3	1	0	3	0
33	78	7	10000	3	1	0	3	0
34	79	7	10000	3	1	0	3	0
33	80	7	10000	3	1	0	3	0
34	80	7	10000	3	1	0	3	0
34	81	7	10000	3	1	0	3	0
36	83	7	10000	3	1	0	3	0
41	84	7	10000	3	1	0	3	0
44	85	7	10000	3	1	0	3	0
45	86	7	10000	3	1	0	3	0
47	87	7	10000	3	1	0	3	0
48	88	7	10000	3	1	0	3	0
48	89	7	10000	3	1	0	3	0
47	90	7	10000	3	1	0	3	0
44	90	7	10000	3	1	0	3	0
44	91	7	10000	3	1	0	3	0
46	93	7	10000	3	1	0	3	0
48	94	7	10000	3	1	0	3	0
48	95	7	10000	3	1	0	3	0
46	96	7	10000	3	1	0	3	0
49	97	7	10000	3	1	0	3	0
49	98	7	10000	3	1	0	3	0
48	99	7	10000	3	1	0	3	0
46	100	7	10000	3	1	0	3	0
44	100	7	10000	3	1	0	3	0
43	101	7	10000	3	1	0	3	0
43	103	7	10000	3	1	0	3	0
42	104	7	10000	3	1	0	3	0
42	105	7	10000	3	1	0	3	0
44	106	7	10000	3	1	0	3	0
46	107	7	10000	3	1	0	3	0
52	108	7	10000	3	1	0	3	0
57	109	7	10000	3	1	0	3	0
56	110	7	10000	3	1	0	3	0
54	110	7	10000	3	1	0	3	0
51	111	7	10000	3	1	0	3	0
52	113	7	10000	3	1	0	3	0
51	114	7	10000	3	1	0	3	0
51	115	7	10000	3	1	0	3	0
52	116	7	10000	3	1	0	3	0
55	117	7	10000	3	1	0	3	0
53	118	7	10000	3	1	0	3	0
51	119	7	10000	3	1	0	3	0
49	120	7	10000	3	1	0	3	0
47	120	7	10000	3	1	0	3	0
47	121	7	10000	3	1	0	3	0
46	123	7	10000	3	1	0	3	0
44	124	7	10000	3	1	0	3	0
44	125	7	10000	3	1	0	3	0
43	126	7	10000	3	1	0	3	0
39	127	7	10000	3	1	0	3	0
38	128	7	10000	3	1	0	3	0
36	129	7	10000	3	1	0	3	0
36	130	7	10000	3	1	0	3	0
35	130	7	10000	3	1	0	3	0
35	131	7	10000	3	1	0	3	0
34	133	7	10000	3	1	0	3	0
33	134	7	10000	3	1	0	3	0
32	135	7	10000	3	1	0	3	0
32	136	7	10000	3	1	0	3	0
33	137	7	10000	3	1	0	3	0
33	138	7	10000	3	1	0	3	0
34	139	7	10000	3	1	0	3	0
32	140	7	10000	3	1	0	3	0
35	140	7	10000	3	1	0	3	0
41	141	7	10000	3	1	0	3	0
45	143	7	10000	3	1	0	3	0
45	144	7	10000	3	1	0	3	0
44	145	7	10000	3	1	0	3	0
44	146	7	10000	3	1	0	3	0
42	147	7	10000	3	1	0	3	0
42	148	7	10000	3	1	0	3	0
41	149	7	10000	3	1	0	3	0
39	150	7	10000	3	1	0	3	0
38	150	7	10000	3	1	0	3	0
36	151	7	10000	3	1	0	3	0
36	153	7	10000	3	1	0	3	0
36	154	7	10000	3	1	0	3	0
37	155	7	10000	3	1	0	3	0
38	156	7	10000	3	1	0	3	0
40	157	7	10000	3	1	0	3	0
43	158	7	10000	3	1	0	3	0
46	159	7	10000	3	1	0	3	0
46	160	7	10000	3	1	0	3	0
47	160	7	10000	3	1	0	3	0
46	161	7	10000	3	1	0	3	0
44	163	7	10000	3	1	0	3	0
46	164	7	10000	3	1	0	3	0
45	165	7	10000	3	1	0	3	0
44	166	7	10000	3	1	0	3	0
42	167	7	10000	3	1	0	3	0
42	168	7	10000	3	1	0	3	0
43	169	7	10000	3	1	0	3	0
44	170	7	10000	3	1	0	3	0
44	170	7	10000	3	1	0	3	0
43	171	7	10000	3	1	0	3	0
41	173	7	10000	3	1	0	3	0
39	174	7	10000	3	1	0	3	0
40	175	7	10000	3	1	0	3	0
39	176	7	10000	3	1	0	3	0
40	177	7	10000	3	1	0	3	0
38	178	7	10000	3	1	0	3	0
36	179	7	10000	3	1	0	3	0
35	180	7	10000	3	1	0	3	0
33	180	7	10000	3	1	0	3	0
32	181	7	10000	3	1	0	3	0
31	183	7	10000	3	1	0	3	0
30	184	7	10000	3	1	0	3	0
30	185	7	10000	3	1	0	3	0
29	186	7	10000	3	1	0	3	0
27	187	7	10000	3	1	0	3	0
26	188	7	10000	3	1	0	3	0
27	189	7	10000	3	1	0	3	0
32	190	7	10000	3	1	0	3	0
36	190	7	10000	3	1	0	3	0
37	191	7	10000	3	1	0	3	0
36	193	7	10000	3	1	0	3	0
35	194	7	10000	3	1	0	3	0
33	195	7	10000	3	1	0	3	0
33	196	7	10000	3	1	0	3	0
35	197	7	10000	3	1	0	3	0
35	198	7	10000	3	1	0	3	0
34	199	7	10000	3	1	0	3	0
35	200	7	10000	3	1	0	3	0
34	200	7	10000	3	1	0	3	0
33	201	7	10000	3	1	0	3	0
31	203	7	10000	3	1	0	3	0
32	204	7	10000	3	1	0	3	0
32	205	7	10000	3	1	0	3	0
32	206	7	10000	3	1	0	3	0
31	207	7	10000	3	1	0	3	0
32	208	7	10000	3	1	0	3	0
32	209	7	10000	3	1	0	3	0
33	210	7	10000	3	1	0	3	0
38	210	7	10000	3	1	0	3	0
40	211	7	10000	3	1	0	3	0
41	213	7	10000	3	1	0	3	0
41	214	7	10000	3	1	0	3	0
45	215	7	10000	3	1	0	3	0
50	216	7	10000	3	1	0	3	0
53	217	7	10000	3	1	0	3	0
51	218	7	10000	3	1	0	3	0
51	219	7	10000	3	1	0	3	0
49	220	7	10000	3	1	0	3	0
49	220	7	10000	3	1	0	3	0
47	221	7	10000	3	1	0	3	0
46	223	7	10000	3	1	0	3	0
47	224	7	10000	3	1	0	3	0
45	225	7	10000	3	1	0	3	0
44	226	7	10000	3	1	0	3	0
41	227	7	10000	3	1	0	3	0
41	228	7	10000	3	1	0	3	0
39	229	7	10000	3	1	0	3	0
39	230	7	10000	3	1	0	3	0
40	230	7	10000	3	1	0	3	0
41	231	7	10000	3	1	0	3	0
40	233	7	10000	3	1	0	3	0
39	234	7	10000	3	1	0	3	0
37	235	7	10000	3	1	0	3	0
35	236	7	10000	3	1	0	3	0
39	237	7	10000	3	1	0	3	0
46	238	7	10000	3	1	0	3	0
49	239	7	10000	3	1	0	3	0
49	240	7	10000	3	1	0	3	0
51	240	7	10000	3	1	0	3	0
52	241	7	10000	3	1	0	3	0
50	243	7	10000	3	1	0	3	0
49	244	7	10000	3	1	0	3	0
49	245	7	10000	3	1	0	3	0
51	246	7	10000	3	1	0	3	0
49	247	7	10000	3	1	0	3	0
47	248	7	10000	3	1	0	3	0
47	249	7	10000	3	1	0	3	0
46	250	7	10000	3	1	0	3	0
46	250	7	10000	3	1	0	3	0
44	251	7	10000	3	1	0	3	0
43	253	7	10000	3	1	0	3	0
41	254	7	10000	3	1	0	3	0
41	255	7	10000	3	1	0	3	0
40	256	7	10000	3	1	0	3	0
44	257	7	10000	3	1	0	3	0
43	258	7	10000	3	1	0	3	0
43	259	7	10000	3	1	0	3	0
42	260	7	10000	3	1	0	3	0
43	260	7	10000	3	1	0	3	0
44	261	7	10000	3	1	0	3	0
44	263	7	10000	3	1	0	3	0
44	264	7	10000	3	1	0	3	0
44	265	7	10000	3	1	0	3	0
44	266	7	10000	3	1	0	3	0
42	267	7	10000	3	1	0	3	0
40	268	7	10000	3	1	0	3	0
41	269	7	10000	3	1	0	3	0
46	270	7	10000	3	1	0	3	0
49	270	7	10000	3	1	0	3	0
51	271	7	10000	3	1	0	3	0
52	273	7	10000	3	1	0	3	0
53	274	7	10000	3	1	0	3	0
54	275	7	10000	3	1	0	3	0
53	276	7	10000	3	1	0	3	0
55	277	7	10000	3	1	0	3	0
54	278	7	10000	3	1	0	3	0
52	279	7	10000	3	1	0	3	0
50	280	7	10000	3	1	0	3	0
51	280	7	10000	3	1	0	3	0
49	281	7	10000	3	1	0	3	0
50	283	7	10000	3	1	0	3	0
52	284	7	10000	3	1	0	3	0
52	285	7	10000	3	1	0	3	0
51	286	7	10000	3	1	0	3	0
50	287	7	10000	3	1	0	3	0
52	288	7	10000	3	1	0	3	0
54	289	7	10000	3	1	0	3	0
52	290	7	10000	3	1	0	3	0
50	290	7	10000	3	1	0	3	0
48	291	7	10000	3	1	0	3	0
47	293	7	10000	3	1	0	3	0
46	294	7	10000	3	1	0	3	0
45	295	7	10000	3	1	0	3	0
44	296	7	10000	3	1	0	3	0
43	297	7	10000	3	1	0	3	0
43	298	7	10000	3	1	0	3	0
48	299	7	10000	3	1	0	3	0
49	300	7	10000	3	1	0	3	0
49	300	7	10000	3	1	0	3	0
50	301	7	10000	3	1	0	3	0
50	303	7	10000	3	1	0	3	0
54	304	7	10000	3	1	0	3	0
57	305	7	10000	3	1	0	3	0
57	306	7	10000	3	1	0	3	0
56	307	7	10000	3	1	0	3	0
57	308	7	10000	3	1	0	3	0
59	309	7	10000	3	1	0	3	0
58	310	7	10000	3	1	0	3	0
56	310	7	10000	3	1	0	3	0
54	311	7	10000	3	1	0	3	0
55	313	7	10000	3	1	0	3	0
54	314	7	10000	3	1	0	3	0
54	315	7	10000	3	1	0	3	0
52	316	7	10000	3	1	0	3	0
53	317	7	10000	3	1	0	3	0
52	318	7	10000	3	1	0	3	0
53	319	7	10000	3	1	0	3	0
52	320	7	10000	3	1	0	3	0
51	320	7	10000	3	1	0	3	0
51	321	7	10000	3	1	0	3	0
49	323	7	10000	3	1	0	3	0
48	324	7	10000	3	1	0	3	0
47	325	7	10000	3	1	0	3	0
45	326	7	10000	3	1	0	3	0
45	327	7	10000	3	1	0	3	0
50	328	7	10000	3	1	0	3	0
51	329	7	10000	3	1	0	3	0
50	330	7	10000	3	1	0	3	0
51	330	7	10000	3	1	0	3	0
54	331	7	10000	3	1	0	3	0
56	333	7	10000	3	1	0	3	0
57	334	7	10000	3	1	0	3	0
56	335	7	10000	3	1	0	3	0
52	336	7	10000	3	1	0	3	0
52	337	7	10000	3	1	0	3	0
52	338	7	10000	3	1	0	3	0
52	339	7	10000	3	1	0	3	0
50	340	7	10000	3	1	0	3	0
48	340	7	10000	3	1	0	3	0
47	341	7	10000	3	1	0	3	0
47	343	7	10000	3	1	0	3	0
49	344	7	10000	3	1	0	3	0
52	345	7	10000	3	1	0	3	0
50	346	7	10000	3	1	0	3	0
48	347	7	10000	3	1	0	3	0
47	348	7	10000	3	1	0	3	0
54	349	7	10000	3	1	0	3	0
61	350	7	10000	3	1	0	3	0
62	350	7	10000	3	1	0	3	0
61	351	7	10000	3	1	0	3	0
63	353	7	10000	3	1	0	3	0
63	354	7	10000	3	1	0	3	0
67	355	7	10000	3	1	0	3	0
73	356	7	10000	3	1	0	3	0
82	357	7	10000	3	1	0	3	0
86	358	7	10000	3	1	0	3	0
83	359	7	10000	3	1	0	3	0
84	360	7	10000	3	1	0	3	0
85	360	7	10000	3	1	0	3	0
84	361	7	10000	3	1	0	3	0
82	363	7	10000	3	1	0	3	0
80	364	7	10000	3	1	0	3	0
80	365	7	10000	3	1	0	3	0
81	366	7	10000	3	1	0	3	0
78	367	7	10000	3	1	0	3	0
75	368	7	10000	3	1	0	3	0
73	369	7	10000	3	1	0	3	0
73	370	7	10000	3	1	0	3	0
74	370	7	10000	3	1	0	3	0
73	371	7	10000	3	1	0	3	0
73	373	7	10000	3	1	0	3	0
74	374	7	10000	3	1	0	3	0
75	375	7	10000	3	1	0	3	0
75	376	7	10000	3	1	0	3	0
75	377	7	10000	3	1	0	3	0
75	378	7	10000	3	1	0	3	0
77	379	7	10000	3	1	0	3	0
78	380	7	10000	3	1	0	3	0
78	380	7	10000	3	1	0	3	0
75	381	7	10000	3	1	0	3	0
71	383	7	10000	3	1	0	3	0
69	384	7	10000	3	1	0	3	0
67	385	7	10000	3	1	0	3	0
64	386	7	10000	3	1	0	3	0
64	387	7	10000	3	1	0	3	0
66	388	7	10000	3	1	0	3	0
64	389	7	10000	3	1	0	3	0
66	390	7	10000	3	1	0	3	0
72	390	7	10000	3	1	0	3	0
73	391	7	10000	3	1	0	3	0
70	393	7	10000	3	1	0	3	0
69	394	7	10000	3	1	0	3	0
66	395	7	10000	3	1	0	3	0
64	396	7	10000	3	1	0	3	0
65	397	7	10000	3	1	0	3	0
63	398	7	10000	3	1	0	3	0
63	399	7	10000	3	1	0	3	0
62	400	7	10000	3	1	0	3	0
60	400	7	10000	3	1	0	3	0
60	401	7	10000	3	1	0	3	0
59	403	7	10000	3	1	0	3	0
61	404	7	10000	3	1	0	3	0
59	405	7	10000	3	1	0	3	0
60	406	7	10000	3	1	0	3	0
61	407	7	10000	3	1	0	3	0
59	408	7	10000	3	1	0	3	0
58	409	7	10000	3	1	0	3	0
56	410	7	10000	3	1	0	3	0
57	410	7	10000	3	1	0	3	0
59	411	7	10000	3	1	0	3	0
57	413	7	10000	3	1	0	3	0
57	414	7	10000	3	1	0	3	0
57	415	7	10000	3	1	0	3	0
56	416	7	10000	3	1	0	3	0
56	417	7	10000	3	1	0	3	0
56	418	7	10000	3	1	0	3	0
54	419	7	10000	3	1	0	3	0
55	420	7	10000	3	1	0	3	0
55	420	7	10000	3	1	0	3	0
53	421	7	10000	3	1	0	3	0
50	423	7	10000	3	1	0	3	0
50	424	7	10000	3	1	0	3	0
49	425	7	10000	3	1	0	3	0
54	426	7	10000	3	1	0	3	0
53	427	7	10000	3	1	0	3	0
50	428	7	10000	3	1	0	3	0
48	429	7	10000	3	1	0	3	0
48	430	7	10000	3	1	0	3	0
46	430	7	10000	3	1	0	3	0
46	431	7	10000	3	1	0	3	0
45	433	7	10000	3	1	0	3	0
47	434	7	10000	3	1	0	3	0
49	435	7	10000	3	1	0	3	0
48	436	7	10000	3	1	0	3	0
48	437	7	10000	3	1	0	3	0
49	438	7	10000	3	1	0	3	0
49	439	7	10000	3	1	0	3	0
47	440	7	10000	3	1	0	3	0
45	440	7	10000	3	1	0	3	0
44	441	7	10000	3	1	0	3	0
43	443	7	10000	3	1	0	3	0
44	444	7	10000	3	1	0	3	0
45	445	7	10000	3	1	0	3	0
44	446	7	10000	3	1	0	3	0
43	447	7	10000	3	1	0	3	0
43	448	7	10000	3	1	0	3	0
43	449	7	10000	3	1	0	3	0
41	450	7	10000	3	1	0	3	0
41	450	7	10000	3	1	0	3	0
42	451	7	10000	3	1	0	3	0
47	453	7	10000	3	1	0	3	0
49	454	7	10000	3	1	0	3	0
48	455	7	10000	3	1	0	3	0
53	456	7	10000	3	1	0	3	0
61	457	7	10000	3	1	0	3	0
64	458	7	10000	3	1	0	3	0
63	459	7	10000	3	1	0	3	0
63	460	7	10000	3	1	0	3	0
61	460	7	10000	3	1	0	3	0
63	461	7	10000	3	1	0	3	0
63	463	7	10000	3	1	0	3	0
67	464	7	10000	3	1	0	3	0
71	465	7	10000	3	1	0	3	0
71	466	7	10000	3	1	0	3	0
68	467	7	10000	3	1	0	3	0
67	468	7	10000	3	1	0	3	0
66	469	7	10000	3	1	0	3	0
66	470	7	10000	3	1	0	3	0
68	470	7	10000	3	1	0	3	0
67	471	7	10000	3	1	0	3	0
66	473	7	10000	3	1	0	3	0
67	474	7	10000	3	1	0	3	0
64	475	7	10000	3	1	0	3	0
62	476	7	10000	3	1	0	3	0
61	477	7	10000	3	1	0	3	0
61	478	7	10000	3	1	0	3	0
60	479	7	10000	3	1	0	3	0
57	480	7	10000	3	1	0	3	0
55	480	7	10000	3	1	0	3	0
54	481	7	10000	3	1	0	3	0
53	483	7	10000	3	1	0	3	0
52	484	7	10000	3	1	0	3	0
53	485	7	10000	3	1	0	3	0
52	486	7	10000	3	1	0	3	0
56	497	7	10000	3	1	0	3	0
59	498	7	10000	3	1	0	3	0
61	499	7	10000	3	1	0	3	0
61	500	7	10000	3	1	0	3	0
60	501	7	10000	3	1	0	3	0
60	502	7	10000	3	1	0	3	0
59	503	7	10000	3	1	0	3	0
59	504	7	10000	3	1	0	3	0
56	505	7	10000	3	1	0	3	0
57	506	7	10000	3	1	0	3	0
59	507	7	10000	3	1	0	3	0
59	508	7	10000	3	1	0	3	0
56	506	7	10000	3	1	0	3	0
55	507	7	10000	3	1	0	3	0
60	508	7	10000	3	1	0	3	0
67	509	7	10000	3	1	0	3	0
66	510	7	10000	3	1	0	3	0
64	511	7	10000	3	1	0	3	0
62	512	7	10000	3	1	0	3	0
60	513	7	10000	3	1	0	3	0
57	517	7	10000	3	1	0	3	1
55	518	7	10000	3	1	0	3	1
54	519	7	10000	3	1	0	3	1
54	520	7	10000	3	1	0	3	1
53	521	7	10000	3	1	0	3	1
54	522	7	10000	3	1	0	3	1
56	523	7	10000	3	1	0	3	1
56	524	7	10000	3	1	0	3	1
56	525	7	10000	3	1	0	3	1
53	526	7	10000	3	1	0	3	1
53	527	7	10000	3	1	0	3	1
51	528	7	10000	3	1	0	3	1
51	523	7	10000	3	1	0	3	1
51	524	7	10000	3	1	0	3	1
49	525	7	10000	3	1	0	3	1
48	526	7	10000	3	1	0	3	1
51	527	7	10000	3	1	0	3	1
53	528	7	10000	3	1	0	3	1
52	528	7	10000	3	1	0	3	1
51	529	7	10000	3	1	0	3	1
47	530	7	10000	3	1	0	3	1
47	531	7	10000	3	1	0	3	1
45	532	7	10000	3	1	0	3	1
44	533	7	10000	3	1	0	3	1
44	533	7	10000	3	1	0	3	1
45	534	7	10000	3	1	0	3	1
49	535	7	10000	3	1	0	3	1
52	536	7	10000	3	1	0	3	1
53	538	7	10000	3	1	0	3	1
52	539	7	10000	3	1	0	3	1
54	540	7	10000	3	1	0	3	1
56	541	7	10000	3	1	0	3	1
55	542	7	10000	3	1	0	3	1
55	543	7	10000	3	1	0	3	1
53	545	7	10000	3	1	0	3	1
50	546	7	10000	3	1	0	3	1
48	547	7	10000	3	1	0	3	1
48	548	7	10000	3	1	0	3	1
47	549	7	10000	3	1	0	3	1
47	550	7	10000	3	1	0	3	1
45	549	7	10000	3	1	0	3	1
45	550	7	10000	3	1	0	3	1
44	551	7	10000	3	1	0	3	1
44	552	7	10000	3	1	0	3	1
43	556	7	10000	3	1	0	3	1
42	557	7	10000	3	1	0	3	1
42	558	7	10000	3	1	0	3	1
43	559	7	10000	3	1	0	3	1
43	560	7	10000	3	1	0	3	1
41	561	7	10000	3	1	0	3	1
43	562	7	10000	3	1	0	3	1
43	563	7	10000	3	1	0	3	1
44	560	7	10000	3	1	0	3	0
46	561	7	10000	3	1	0	3	0
48	562	7	10000	3	1	0	3	0
50	563	7	10000	3	1	0	3	0
54	568	7	10000	3	1	0	3	0
64	569	7	10000	3	1	0	3	0
69	570	7	10000	3	1	0	3	0
68	571	7	10000	3	1	0	3	0
68	572	7	10000	3	1	0	3	0
72	573	7	10000	3	1	0	3	0
79	572	7	10000	3	1	0	3	0
81	573	7	10000	3	1	0	3	0
79	574	7	10000	3	1	0	3	0
75	575	7	10000	3	1	0	3	0
75	576	7	10000	3	1	0	3	0
76	577	7	10000	3	1	0	3	0
76	579	7	10000	3	1	0	3	0
76	580	7	10000	3	1	0	3	0
79	581	7	10000	3	1	0	3	0
78	582	7	10000	3	1	0	3	0
75	583	7	10000	3	1	0	3	0
75	584	7	10000	3	1	0	3	0
78	583	7	10000	3	1	0	3	0
81	584	7	10000	3	1	0	3	0
80	585	7	10000	3	1	0	3	0
79	586	7	10000	3	1	0	3	0
80	589	7	10000	3	1	0	3	0
79	590	7	10000	3	1	0	3	0
77	591	7	10000	3	1	0	3	0
81	592	7	10000	3	1	0	3	0
92	593	7	10000	3	1	0	3	0
99	594	7	10000	3	1	0	3	0
97	595	7	10000	3	1	0	3	0
98	596	7	10000	3	1	0	3	0
96	597	7	10000	3	1	0	3	0
103	598	7	10000	3	1	0	3	0
115	599	7	10000	3	1	0	3	0
117	600	7	10000	3	1	0	3	0
144	600	7	10000	3	1	0	3	0
178	601	7	10000	3	1	0	3	0
191	602	7	10000	3	1	0	3	0
193	603	7	10000	3	1	0	3	0
195	606	7	10000	3	1	0	3	0
232	607	7	10000	3	1	0	3	0
267	608	7	10000	3	1	0	3	0
270	609	7	10000	3	1	0	3	0
316	610	7	10000	3	1	0	3	0
371	611	7	10000	3	1	0	3	0
425	612	7	10000	3	1	0	3	0
445	613	7	10000	3	1	0	3	0
445	611	7	10000	3	1	0	3	0
436	612	7	10000	3	1	0	3	0
431	613	7	10000	3	1	0	3	0
420	614	7	10000	3	1	0	3	0
417	613	7	10000	3	1	0	3	0
405	614	7	10000	3	1	0	3	0
403	615	7	10000	3	1	0	3	0
419	616	7	10000	3	1	0	3	0
436	617	7	10000	3	1	0	3	0
501	618	7	10000	3	1	0	3	0
528	619	7	10000	3	1	0	3	0
533	620	7	10000	3	1	0	3	0
534	621	7	10000	3	1	0	3	0
583	622	7	10000	3	1	0	3	0
610	623	7	10000	3	1	0	3	0
625	624	7	10000	3	1	0	3	0
626	625	7	10000	3	1	0	3	0
688	626	7	10000	3	1	0	3	0
792	627	7	10000	3	1	0	3	0
819	628	7	10000	3	1	0	3	0
841	629	7	10000	3	1	0	3	0
883	630	7	10000	3	1	0	3	0
906	631	7	10000	3	1	0	3	0
911	632	7	10000	3	1	0	3	0
899	633	7	10000	3	1	0	3	0
883	634	7	10000	3	1	0	3	0
859	635	7	10000	3	1	0	3	0
828	636	7	10000	3	1	0	3	0
799	637	7	10000	3	1	0	3	0
771	638	7	10000	3	1	0	3	0
742	639	7	10000	3	1	0	3	0
712	640	7	10000	3	1	0	3	0
681	641	7	10000	3	1	0	3	0
651	642	7	10000	3	1	0	3	0
623	643	7	10000	3	1	0	3	0
595	644	7	10000	3	1	0	3	0
570	645	7	10000	3	1	0	3	0
545	646	7	10000	3	1	0	3	0
525	647	7	10000	3	1	0	3	0
511	648	7	10000	3	1	0	3	0
501	649	7	10000	3	1	0	3	0
489	650	7	10000	3	1	0	3	0
476	651	7	10000	3	1	0	3	0
464	652	7	10000	3	1	0	3	0
450	653	7	10000	3	1	0	3	0
437	654	7	10000	3	1	0	3	0
421	655	7	10000	3	1	0	3	0
405	656	7	10000	3	1	0	3	0
388	657	7	10000	3	1	0	3	0
377	658	7	10000	3	1	0	3	0
366	659	7	10000	3	1	0	3	0
353	660	7	10000	3	1	0	3	0
340	661	7	10000	3	1	0	3	0
331	662	7	10000	3	1	0	3	0
320	663	7	10000	3	1	0	3	0
313	664	7	10000	3	1	0	3	0
309	665	7	10000	3	1	0	3	0
304	666	7	10000	3	1	0	3	0
297	667	7	10000	3	1	0	3	0
287	668	7	10000	3	1	0	3	0
276	669	7	10000	3	1	0	3	0
264	670	7	10000	3	1	0	3	0
252	671	7	10000	3	1	0	3	0
241	672	7	10000	3	1	0	3	0
232	673	7	10000	3	1	0	3	0
225	674	7	10000	3	1	0	3	0
225	675	7	10000	3	1	0	3	0
226	676	7	10000	3	1	0	3	0
227	677	7	10000	3	1	0	3	0
222	678	7	10000	3	1	0	3	0
214	679	7	10000	3	1	0	3	0
211	680	7	10000	3	1	0	3	0
211	681	7	10000	3	1	0	3	0
213	682	7	10000	3	1	0	3	0
215	683	7	10000	3	1	0	3	0
217	684	7	10000	3	1	0	3	0
220	685	7	10000	3	1	0	3	0
223	686	7	10000	3	1	0	3	0
224	687	7	10000	3	1	0	3	0
223	688	7	10000	3	1	0	3	0
219	689	7	10000	3	1	0	3	0
213	690	7	10000	3	1	0	3	0
205	691	7	10000	3	1	0	3	0
200	692	7	10000	3	1	0	3	0
194	693	7	10000	3	1	0	3	0
189	694	7	10000	3	1	0	3	0
184	695	7	10000	3	1	0	3	0
178	696	7	10000	3	1	0	3	0
174	697	7	10000	3	1	0	3	0
174	698	7	10000	3	1	0	3	0
171	699	7	10000	3	1	0	3	0
165	700	7	10000	3	1	0	3	0
160	701	7	10000	3	1	0	3	0
156	702	7	10000	3	1	0	3	0
151	703	7	10000	3	1	0	3	0
144	704	7	10000	3	1	0	3	0
139	705	7	10000	3	1	0	3	0
137	706	7	10000	3	1	0	3	0
134	707	7	10000	3	1	0	3	0
128	708	7	10000	3	1	0	3	0
124	709	7	10000	3	1	0	3	0
124	710	7	10000	3	1	0	3	0
125	711	7	10000	3	1	0	3	0
120	712	7	10000	3	1	0	3	0
116	713	7	10000	3	1	0	3	0
111	714	7	10000	3	1	0	3	0
107	715	7	10000	3	1	0	3	0
104	716	7	10000	3	1	0	3	0
101	717	7	10000	3	1	0	3	0
99	718	7	10000	3	1	0	3	0
95	719	7	10000	3	1	0	3	0
93	720	7	10000	3	1	0	3	0
91	721	7	10000	3	1	0	3	0
87	722	7	10000	3	1	0	3	0
87	723	7	10000	3	1	0	3	0
87	724	7	10000	3	1	0	3	0
87	725	7	10000	3	1	0	3	0
86	726	7	10000	3	1	0	3	0
83	727	7	10000	3	1	0	3	0
82	728	7	10000	3	1	0	3	0
85	729	7	10000	3	1	0	3	0
88	730	7	10000	3	1	0	3	0
92	731	7	10000	3	1	0	3	0
92	732	7	10000	3	1	0	3	0
95	733	7	10000	3	1	0	3	0
98	734	7	10000	3	1	0	3	0
98	735	7	10000	3	1	0	3	0
94	736	7	10000	3	1	0	3	0
94	737	7	10000	3	1	0	3	0
95	738	7	10000	3	1	0	3	0
93	739	7	10000	3	1	0	3	0
89	740	7	10000	3	1	0	3	0
86	741	7	10000	3	1	0	3	0
83	742	7	10000	3	1	0	3	0
81	743	7	10000	3	1	0	3	0
79	744	7	10000	3	1	0	3	0
80	745	7	10000	3	1	0	3	0
81	746	7	10000	3	1	0	3	0
81	747	7	10000	3	1	0	3	0
79	748	7	10000	3	1	0	3	0
79	749	7	10000	3	1	0	3	0
80	750	7	10000	3	1	0	3	0
81	751	7	10000	3	1	0	3	0
83	752	7	10000	3	1	0	3	0
82	753	7	10000	3	1	0	3	0
80	754	7	10000	3	1	0	3	0
77	755	7	10000	3	1	0	3	0
75	756	7	10000	3	1	0	3	0
76	757	7	10000	3	1	0	3	0
77	758	7	10000	3	1	0	3	0
76	759	7	10000	3	1	0	3	0
75	760	7	10000	3	1	0	3	0
78	761	7	10000	3	1	0	3	0
80	762	7	10000	3	1	0	3	0
81	763	7	10000	3	1	0	3	0
92	764	7	10000	3	1	0	3	0
99	765	7	10000	3	1	0	3	0
98	766	7	10000	3	1	0	3	0
97	767	7	10000	3	1	0	3	0
93	768	7	10000	3	1	0	3	0
94	769	7	10000	3	1	0	3	0
100	770	7	10000	3	1	0	3	0
108	771	7	10000	3	1	0	3	0
117	772	7	10000	3	1	0	3	0
122	773	7	10000	3	1	0	3	0
126	774	7	10000	3	1	0	3	0
123	775	7	10000	3	1	0	3	0
119	776	7	10000	3	1	0	3	0
118	777	7	10000	3	1	0	3	0
117	778	7	10000	3	1	0	3	0
114	779	7	10000	3	1	0	3	0
109	780	7	10000	3	1	0	3	0
104	781	7	10000	3	1	0	3	0
100	782	7	10000	3	1	0	3	0
99	783	7	10000	3	1	0	3	0
100	784	7	10000	3	1	0	3	0
100	785	7	10000	3	1	0	3	0
96	786	7	10000	3	1	0	3	0
91	787	7	10000	3	1	0	3	0
88	788	7	10000	3	1	0	3	0
88	789	7	10000	3	1	0	3	0
87	790	7	10000	3	1	0	3	0
90	791	7	10000	3	1	0	3	0
92	792	7	10000	3	1	0	3	0
94	793	7	10000	3	1	0	3	0
99	794	7	10000	3	1	0	3	0
102	795	7	10000	3	1	0	3	0
102	796	7	10000	3	1	0	3	0
98	797	7	10000	3	1	0	3	0
95	798	7	10000	3	1	0	3	0
92	799	7	10000	3	1	0	3	0
89	800	7	10000	3	1	0	3	0
86	801	7	10000	3	1	0	3	0
84	802	7	10000	3	1	0	3	0
83	803	7	10000	3	1	0	3	0
81	804	7	10000	3	1	0	3	0
88	805	7	10000	3	1	0	3	0
96	806	7	10000	3	1	0	3	0
98	807	7	10000	3	1	0	3	0
94	808	7	10000	3	1	0	3	0
92	809	7	10000	3	1	0	3	0
88	810	7	10000	3	1	0	3	0
84	811	7	10000	3	1	0	3	0
81	812	7	10000	3	1	0	3	0
79	813	7	10000	3	1	0	3	0
75	814	7	10000	3	1	0	3	0
71	815	7	10000	3	1	0	3	0
69	816	7	10000	3	1	0	3	0
70	817	7	10000	3	1	0	3	0
69	818	7	10000	3	1	0	3	0
72	819	7	10000	3	1	0	3	0
77	820	7	10000	3	1	0	3	0
81	821	7	10000	3	1	0	3	0
80	822	7	10000	3	1	0	3	0
77	823	7	10000	3	1	0	3	0
74	824	7	10000	3	1	0	3	0
71	825	7	10000	3	1	0	3	0
74	826	7	10000	3	1	0	3	0
74	827	7	10000	3	1	0	3	0
75	828	7	10000	3	1	0	3	0
84	829	7	10000	3	1	0	3	0
93	830	7	10000	3	1	0	3	0
102	831	7	10000	3	1	0	3	0
108	832	7	10000	3	1	0	3	0
108	833	7	10000	3	1	0	3	0
105	834	7	10000	3	1	0	3	0
103	835	7	10000	3	1	0	3	0
102	836	7	10000	3	1	0	3	0
101	837	7	10000	3	1	0	3	0
99	838	7	10000	3	1	0	3	0
96	839	7	10000	3	1	0	3	0
93	840	7	10000	3	1	0	3	0
90	841	7	10000	3	1	0	3	0
86	842	7	10000	3	1	0	3	0
82	843	7	10000	3	1	0	3	0
79	844	7	10000	3	1	0	3	0
78	845	7	10000	3	1	0	3	0
76	846	7	10000	3	1	0	3	0
76	847	7	10000	3	1	0	3	0
73	848	7	10000	3	1	0	3	0
73	849	7	10000	3	1	0	3	0
72	850	7	10000	3	1	0	3	0
73	851	7	10000	3	1	0	3	0
76	852	7	10000	3	1	0	3	0
74	853	7	10000	3	1	0	3	0
75	854	7	10000	3	1	0	3	0
74	855	7	10000	3	1	0	3	0
70	856	7	10000	3	1	0	3	0
68	857	7	10000	3	1	0	3	0
67	858	7	10000	3	1	0	3	0
64	859	7	10000	3	1	0	3	0
64	860	7	10000	3	1	0	3	0
66	861	7	10000	3	1	0	3	0
67	862	7	10000	3	1	0	3	0
65	863	7	10000	3	1	0	3	0
64	864	7	10000	3	1	0	3	0
62	865	7	10000	3	1	0	3	0
60	866	7	10000	3	1	0	3	0
56	867	7	10000	3	1	0	3	0
56	868	7	10000	3	1	0	3	0
56	869	7	10000	3	1	0	3	0
55	870	7	10000	3	1	0	3	0
54	871	7	10000	3	1	0	3	0
52	872	7	10000	3	1	0	3	0
54	873	7	10000	3	1	0	3	0
56	874	7	10000	3	1	0	3	0
56	875	7	10000	3	1	0	3	0
56	876	7	10000	3	1	0	3	0
59	877	7	10000	3	1	0	3	0
61	878	7	10000	3	1	0	3	0
59	879	7	10000	3	1	0	3	0
57	880	7	10000	3	1	0	3	0
56	881	7	10000	3	1	0	3	0
55	882	7	10000	3	1	0	3	0
54	883	7	10000	3	1	0	3	0
59	884	7	10000	3	1	0	3	0
66	885	7	10000	3	1	0	3	0
70	886	7	10000	3	1	0	3	0
67	887	7	10000	3	1	0	3	0
70	888	7	10000	3	1	0	3	0
76	889	7	10000	3	1	0	3	0
80	890	7	10000	3	1	0	3	0
81	891	7	10000	3	1	0	3	0
79	892	7	10000	3	1	0	3	0
79	893	7	10000	3	1	0	3	0
80	894	7	10000	3	1	0	3	0
78	895	7	10000	3	1	0	3	0
75	896	7	10000	3	1	0	3	0
73	897	7	10000	3	1	0	3	0
75	898	7	10000	3	1	0	3	0
78	899	7	10000	3	1	0	3	0
83	900	7	10000	3	1	0	3	0
83	901	7	10000	3	1	0	3	0
80	902	7	10000	3	1	0	3	0
77	903	7	10000	3	1	0	3	0
74	904	7	10000	3	1	0	3	0
71	905	7	10000	3	1	0	3	0
74	906	7	10000	3	1	0	3	0
75	907	7	10000	3	1	0	3	0
71	908	7	10000	3	1	0	3	0
71	909	7	10000	3	1	0	3	0
71	910	7	10000	3	1	0	3	0
71	911	7	10000	3	1	0	3	0
71	912	7	10000	3	1	0	3	0
73	913	7	10000	3	1	0	3	0
75	914	7	10000	3	1	0	3	0
75	915	7	10000	3	1	0	3	0
72	916	7	10000	3	1	0	3	0
72	917	7	10000	3	1	0	3	0
70	918	7	10000	3	1	0	3	0
67	919	7	10000	3	1	0	3	0
66	920	7	10000	3	1	0	3	0
67	921	7	10000	3	1	0	3	0
65	922	7	10000	3	1	0	3	0
68	923	7	10000	3	1	0	3	0
71	924	7	10000	3	1	0	3	0
71	925	7	10000	3	1	0	3	0
69	926	7	10000	3	1	0	3	0
70	927	7	10000	3	1	0	3	0
70	928	7	10000	3	1	0	3	0
71	929	7	10000	3	1	0	3	0
70	930	7	10000	3	1	0	3	0
67	931	7	10000	3	1	0	3	0
65	932	7	10000	3	1	0	3	0
63	933	7	10000	3	1	0	3	0
62	934	7	10000	3	1	0	3	0
64	935	7	10000	3	1	0	3	0
63	936	7	10000	3	1	0	3	0
61	937	7	10000	3	1	0	3	0
62	938	7	10000	3	1	0	3	0
62	939	7	10000	3	1	0	3	0
63	940	7	10000	3	1	0	3	0
63	941	7	10000	3	1	0	3	0
69	942	7	10000	3	1	0	3	0
76	943	7	10000	3	1	0	3	0
82	944	7	10000	3	1	0	3	0
88	945	7	10000	3	1	0	3	0
92	946	7	10000	3	1	0	3	0
92	947	7	10000	3	1	0	3	0
88	948	7	10000	3	1	0	3	0
86	949	7	10000	3	1	0	3	0
86	950	7	10000	3	1	0	3	0
92	951	7	10000	3	1	0	3	0
94	952	7	10000	3	1	0	3	0
97	953	7	10000	3	1	0	3	0
102	954	7	10000	3	1	0	3	0
105	955	7	10000	3	1	0	3	0
102	956	7	10000	3	1	0	3	0
100	957	7	10000	3	1	0	3	0
104	958	7	10000	3	1	0	3	0
105	959	7	10000	3	1	0	3	0
101	960	7	10000	3	1	0	3	0
98	961	7	10000	3	1	0	3	0
97	962	7	10000	3	1	0	3	0
93	963	7	10000	3	1	0	3	0
91	964	7	10000	3	1	0	3	0
93	965	7	10000	3	1	0	3	0
95	966	7	10000	3	1	0	3	0
96	967	7	10000	3	1	0	3	0
98	968	7	10000	3	1	0	3	0
104	969	7	10000	3	1	0	3	0
109	970	7	10000	3	1	0	3	0
114	971	7	10000	3	1	0	3	0
115	972	7	10000	3	1	0	3	0
110	973	7	10000	3	1	0	3	0
105	974	7	10000	3	1	0	3	0
104	975	7	10000	3	1	0	3	0
105	976	7	10000	3	1	0	3	0
106	977	7	10000	3	1	0	3	0
105	978	7	10000	3	1	0	3	0
100	979	7	10000	3	1	0	3	0
99	980	7	10000	3	1	0	3	0
105	981	7	10000	3	1	0	3	0
112	982	7	10000	3	1	0	3	0
112	983	7	10000	3	1	0	3	0
108	984	7	10000	3	1	0	3	0
109	985	7	10000	3	1	0	3	0
112	986	7	10000	3	1	0	3	0
108	987	7	10000	3	1	0	3	0
103	988	7	10000	3	1	0	3	0
103	989	7	10000	3	1	0	3	0
102	990	7	10000	3	1	0	3	0
102	991	7	10000	3	1	0	3	0
103	992	7	10000	3	1	0	3	0
100	993	7	10000	3	1	0	3	0
96	994	7	10000	3	1	0	3	0
91	995	7	10000	3	1	0	3	0
88	996	7	10000	3	1	0	3	0
84	997	7	10000	3	1	0	3	0
82	998	7	10000	3	1	0	3	0
79	999	7	10000	3	1	0	3	0
78	1000	7	10000	3	1	0	3	0
21	1	7	10000	4	1	0	4	0
21	2	7	10000	4	1	0	4	0
20	3	7	10000	4	1	0	4	0
20	4	7	10000	4	1	0	4	0
19	5	7	10000	4	1	0	4	0
20	6	7	10000	4	1	0	4	0
20	7	7	10000	4	1	0	4	0
20	8	7	10000	4	1	0	4	0
19	9	7	10000	4	1	0	4	0
19	10	7	10000	4	1	0	4	0
19	20	7	10000	4	1	0	4	0
18	21	7	10000	4	1	0	4	0
18	22	7	10000	4	1	0	4	0
17	23	7	10000	4	1	0	4	0
18	24	7	10000	4	1	0	4	0
15	25	7	10000	4	1	0	4	0
15	26	7	10000	4	1	0	4	0
16	27	7	10000	4	1	0	4	0
17	28	7	10000	4	1	0	4	0
16	29	7	10000	4	1	0	4	0
17	30	7	10000	4	1	0	4	0
17	31	7	10000	4	1	0	4	0
15	29	7	10000	4	1	0	4	0
15	30	7	10000	4	1	0	4	0
14	31	7	10000	4	1	0	4	0
15	32	7	10000	4	1	0	4	0
14	33	7	10000	4	1	0	4	0
14	34	7	10000	4	1	0	4	0
14	35	7	10000	4	1	0	4	0
13	36	7	10000	4	1	0	4	0
14	35	7	10000	4	1	0	4	0
15	36	7	10000	4	1	0	4	0
17	37	7	10000	4	1	0	4	0
19	38	7	10000	4	1	0	4	0
20	39	7	10000	4	1	0	4	0
17	40	7	10000	4	1	0	4	0
18	43	7	10000	4	1	0	4	0
18	44	7	10000	4	1	0	4	0
19	45	7	10000	4	1	0	4	0
19	46	7	10000	4	1	0	4	0
20	47	7	10000	4	1	0	4	0
20	48	7	10000	4	1	0	4	0
19	49	7	10000	4	1	0	4	0
20	50	7	10000	4	1	0	4	0
19	50	7	10000	4	1	0	4	0
20	51	7	10000	4	1	0	4	0
20	52	7	10000	4	1	0	4	0
20	53	7	10000	4	1	0	4	0
19	54	7	10000	4	1	0	4	0
19	55	7	10000	4	1	0	4	0
18	56	7	10000	4	1	0	4	0
18	57	7	10000	4	1	0	4	0
18	56	7	10000	4	1	0	4	0
18	57	7	10000	4	1	0	4	0
18	58	7	10000	4	1	0	4	0
16	59	7	10000	4	1	0	4	0
17	60	7	10000	4	1	0	4	0
16	61	7	10000	4	1	0	4	0
16	60	7	10000	4	1	0	4	0
16	61	7	10000	4	1	0	4	0
15	62	7	10000	4	1	0	4	0
16	63	7	10000	4	1	0	4	0
14	67	7	10000	4	1	0	4	0
14	68	7	10000	4	1	0	4	0
13	69	7	10000	4	1	0	4	0
15	70	7	10000	4	1	0	4	0
14	71	7	10000	4	1	0	4	0
14	72	7	10000	4	1	0	4	0
13	71	7	10000	4	1	0	4	0
14	72	7	10000	4	1	0	4	0
13	73	7	10000	4	1	0	4	0
13	74	7	10000	4	1	0	4	0
13	78	7	10000	4	1	0	4	0
13	79	7	10000	4	1	0	4	0
14	80	7	10000	4	1	0	4	0
13	81	7	10000	4	1	0	4	0
14	82	7	10000	4	1	0	4	0
14	83	7	10000	4	1	0	4	0
14	84	7	10000	4	1	0	4	0
14	85	7	10000	4	1	0	4	0
15	82	7	10000	4	1	0	4	0
16	83	7	10000	4	1	0	4	0
17	84	7	10000	4	1	0	4	0
16	85	7	10000	4	1	0	4	0
16	87	7	10000	4	1	0	4	0
19	88	7	10000	4	1	0	4	0
20	89	7	10000	4	1	0	4	0
20	90	7	10000	4	1	0	4	0
19	93	7	10000	4	1	0	4	0
18	94	7	10000	4	1	0	4	0
18	95	7	10000	4	1	0	4	0
18	96	7	10000	4	1	0	4	0
18	97	7	10000	4	1	0	4	0
17	98	7	10000	4	1	0	4	0
18	100	7	10000	4	1	0	4	0
16	101	7	10000	4	1	0	4	0
16	102	7	10000	4	1	0	4	0
15	103	7	10000	4	1	0	4	0
15	104	7	10000	4	1	0	4	0
15	105	7	10000	4	1	0	4	0
16	106	7	10000	4	1	0	4	0
16	107	7	10000	4	1	0	4	0
15	105	7	10000	4	1	0	4	0
13	106	7	10000	4	1	0	4	0
14	107	7	10000	4	1	0	4	0
15	108	7	10000	4	1	0	4	0
15	110	7	10000	4	1	0	4	0
13	111	7	10000	4	1	0	4	0
14	112	7	10000	4	1	0	4	0
14	113	7	10000	4	1	0	4	0
17	114	7	10000	4	1	0	4	0
18	115	7	10000	4	1	0	4	0
18	116	7	10000	4	1	0	4	0
19	117	7	10000	4	1	0	4	0
20	118	7	10000	4	1	0	4	0
20	119	7	10000	4	1	0	4	0
20	120	7	10000	4	1	0	4	0
20	121	7	10000	4	1	0	4	0
20	121	7	10000	4	1	0	4	0
19	122	7	10000	4	1	0	4	0
18	123	7	10000	4	1	0	4	0
18	124	7	10000	4	1	0	4	0
17	122	7	10000	4	1	0	4	0
17	123	7	10000	4	1	0	4	0
17	125	7	10000	4	1	0	4	0
18	126	7	10000	4	1	0	4	0
17	127	7	10000	4	1	0	4	0
16	128	7	10000	4	1	0	4	0
15	129	7	10000	4	1	0	4	0
16	130	7	10000	4	1	0	4	0
16	131	7	10000	4	1	0	4	0
17	132	7	10000	4	1	0	4	0
16	133	7	10000	4	1	0	4	0
15	134	7	10000	4	1	0	4	0
15	135	7	10000	4	1	0	4	0
13	136	7	10000	4	1	0	4	0
13	137	7	10000	4	1	0	4	0
13	138	7	10000	4	1	0	4	0
13	139	7	10000	4	1	0	4	0
13	140	7	10000	4	1	0	4	0
13	141	7	10000	4	1	0	4	0
15	142	7	10000	4	1	0	4	0
15	143	7	10000	4	1	0	4	0
14	144	7	10000	4	1	0	4	0
14	145	7	10000	4	1	0	4	0
15	146	7	10000	4	1	0	4	0
14	147	7	10000	4	1	0	4	0
14	148	7	10000	4	1	0	4	0
14	149	7	10000	4	1	0	4	0
15	150	7	10000	4	1	0	4	0
17	151	7	10000	4	1	0	4	0
22	152	7	10000	4	1	0	4	0
27	153	7	10000	4	1	0	4	0
26	154	7	10000	4	1	0	4	0
28	155	7	10000	4	1	0	4	0
29	156	7	10000	4	1	0	4	0
31	157	7	10000	4	1	0	4	0
32	158	7	10000	4	1	0	4	0
31	159	7	10000	4	1	0	4	0
30	160	7	10000	4	1	0	4	0
30	161	7	10000	4	1	0	4	0
30	162	7	10000	4	1	0	4	0
30	163	7	10000	4	1	0	4	0
30	164	7	10000	4	1	0	4	0
29	165	7	10000	4	1	0	4	0
30	166	7	10000	4	1	0	4	0
28	167	7	10000	4	1	0	4	0
28	168	7	10000	4	1	0	4	0
26	169	7	10000	4	1	0	4	0
25	170	7	10000	4	1	0	4	0
24	171	7	10000	4	1	0	4	0
24	172	7	10000	4	1	0	4	0
24	173	7	10000	4	1	0	4	0
24	174	7	10000	4	1	0	4	0
23	175	7	10000	4	1	0	4	0
20	176	7	10000	4	1	0	4	0
20	177	7	10000	4	1	0	4	0
20	178	7	10000	4	1	0	4	0
20	179	7	10000	4	1	0	4	0
20	180	7	10000	4	1	0	4	0
20	181	7	10000	4	1	0	4	0
20	182	7	10000	4	1	0	4	0
20	183	7	10000	4	1	0	4	0
19	184	7	10000	4	1	0	4	0
19	185	7	10000	4	1	0	4	0
20	186	7	10000	4	1	0	4	0
20	187	7	10000	4	1	0	4	0
20	188	7	10000	4	1	0	4	0
19	189	7	10000	4	1	0	4	0
19	190	7	10000	4	1	0	4	0
19	191	7	10000	4	1	0	4	0
18	192	7	10000	4	1	0	4	0
18	193	7	10000	4	1	0	4	0
18	194	7	10000	4	1	0	4	0
19	195	7	10000	4	1	0	4	0
16	196	7	10000	4	1	0	4	0
16	197	7	10000	4	1	0	4	0
16	198	7	10000	4	1	0	4	0
15	199	7	10000	4	1	0	4	0
15	200	7	10000	4	1	0	4	0
15	201	7	10000	4	1	0	4	0
15	202	7	10000	4	1	0	4	0
14	203	7	10000	4	1	0	4	0
14	204	7	10000	4	1	0	4	0
13	205	7	10000	4	1	0	4	0
15	206	7	10000	4	1	0	4	0
15	207	7	10000	4	1	0	4	0
15	208	7	10000	4	1	0	4	0
15	209	7	10000	4	1	0	4	0
14	210	7	10000	4	1	0	4	0
14	211	7	10000	4	1	0	4	0
15	212	7	10000	4	1	0	4	0
16	213	7	10000	4	1	0	4	0
17	214	7	10000	4	1	0	4	0
17	215	7	10000	4	1	0	4	0
16	216	7	10000	4	1	0	4	0
17	217	7	10000	4	1	0	4	0
18	218	7	10000	4	1	0	4	0
19	219	7	10000	4	1	0	4	0
19	220	7	10000	4	1	0	4	0
18	221	7	10000	4	1	0	4	0
18	222	7	10000	4	1	0	4	0
17	223	7	10000	4	1	0	4	0
17	224	7	10000	4	1	0	4	0
17	225	7	10000	4	1	0	4	0
18	226	7	10000	4	1	0	4	0
18	227	7	10000	4	1	0	4	0
17	228	7	10000	4	1	0	4	0
17	229	7	10000	4	1	0	4	0
16	230	7	10000	4	1	0	4	0
15	231	7	10000	4	1	0	4	0
14	232	7	10000	4	1	0	4	0
14	233	7	10000	4	1	0	4	0
14	234	7	10000	4	1	0	4	0
14	235	7	10000	4	1	0	4	0
12	236	7	10000	4	1	0	4	0
12	237	7	10000	4	1	0	4	0
12	238	7	10000	4	1	0	4	0
12	239	7	10000	4	1	0	4	0
12	240	7	10000	4	1	0	4	0
12	241	7	10000	4	1	0	4	0
12	242	7	10000	4	1	0	4	0
13	243	7	10000	4	1	0	4	0
13	244	7	10000	4	1	0	4	0
12	245	7	10000	4	1	0	4	0
14	246	7	10000	4	1	0	4	0
14	247	7	10000	4	1	0	4	0
13	248	7	10000	4	1	0	4	0
12	249	7	10000	4	1	0	4	0
12	250	7	10000	4	1	0	4	0
12	251	7	10000	4	1	0	4	0
11	252	7	10000	4	1	0	4	0
11	253	7	10000	4	1	0	4	0
13	254	7	10000	4	1	0	4	0
13	255	7	10000	4	1	0	4	0
12	256	7	10000	4	1	0	4	0
12	257	7	10000	4	1	0	4	0
13	258	7	10000	4	1	0	4	0
14	259	7	10000	4	1	0	4	0
14	260	7	10000	4	1	0	4	0
14	261	7	10000	4	1	0	4	0
13	262	7	10000	4	1	0	4	0
13	263	7	10000	4	1	0	4	0
12	264	7	10000	4	1	0	4	0
12	265	7	10000	4	1	0	4	0
14	266	7	10000	4	1	0	4	0
13	267	7	10000	4	1	0	4	0
12	268	7	10000	4	1	0	4	0
12	269	7	10000	4	1	0	4	0
12	270	7	10000	4	1	0	4	0
12	271	7	10000	4	1	0	4	0
11	272	7	10000	4	1	0	4	0
12	273	7	10000	4	1	0	4	0
13	274	7	10000	4	1	0	4	0
13	275	7	10000	4	1	0	4	0
11	276	7	10000	4	1	0	4	0
11	277	7	10000	4	1	0	4	0
11	278	7	10000	4	1	0	4	0
12	279	7	10000	4	1	0	4	0
13	280	7	10000	4	1	0	4	0
12	281	7	10000	4	1	0	4	0
12	282	7	10000	4	1	0	4	0
12	283	7	10000	4	1	0	4	0
12	284	7	10000	4	1	0	4	0
12	285	7	10000	4	1	0	4	0
14	286	7	10000	4	1	0	4	0
13	287	7	10000	4	1	0	4	0
13	288	7	10000	4	1	0	4	0
13	289	7	10000	4	1	0	4	0
13	290	7	10000	4	1	0	4	0
12	291	7	10000	4	1	0	4	0
12	292	7	10000	4	1	0	4	0
12	293	7	10000	4	1	0	4	0
12	294	7	10000	4	1	0	4	0
12	295	7	10000	4	1	0	4	0
11	296	7	10000	4	1	0	4	0
10	297	7	10000	4	1	0	4	0
11	298	7	10000	4	1	0	4	0
11	299	7	10000	4	1	0	4	0
11	300	7	10000	4	1	0	4	0
11	301	7	10000	4	1	0	4	0
10	302	7	10000	4	1	0	4	0
9	303	7	10000	4	1	0	4	0
10	304	7	10000	4	1	0	4	0
9	305	7	10000	4	1	0	4	0
11	306	7	10000	4	1	0	4	0
10	307	7	10000	4	1	0	4	0
10	308	7	10000	4	1	0	4	0
10	309	7	10000	4	1	0	4	0
10	310	7	10000	4	1	0	4	0
9	311	7	10000	4	1	0	4	0
10	312	7	10000	4	1	0	4	0
10	313	7	10000	4	1	0	4	0
11	314	7	10000	4	1	0	4	0
13	315	7	10000	4	1	0	4	0
11	316	7	10000	4	1	0	4	0
11	317	7	10000	4	1	0	4	0
11	318	7	10000	4	1	0	4	0
11	319	7	10000	4	1	0	4	0
11	320	7	10000	4	1	0	4	0
11	321	7	10000	4	1	0	4	0
10	322	7	10000	4	1	0	4	0
10	323	7	10000	4	1	0	4	0
10	324	7	10000	4	1	0	4	0
9	325	7	10000	4	1	0	4	0
11	326	7	10000	4	1	0	4	0
11	327	7	10000	4	1	0	4	0
12	328	7	10000	4	1	0	4	0
10	329	7	10000	4	1	0	4	0
11	330	7	10000	4	1	0	4	0
11	331	7	10000	4	1	0	4	0
11	332	7	10000	4	1	0	4	0
12	333	7	10000	4	1	0	4	0
12	334	7	10000	4	1	0	4	0
14	335	7	10000	4	1	0	4	0
14	336	7	10000	4	1	0	4	0
13	337	7	10000	4	1	0	4	0
14	338	7	10000	4	1	0	4	0
13	339	7	10000	4	1	0	4	0
13	340	7	10000	4	1	0	4	0
14	341	7	10000	4	1	0	4	0
15	342	7	10000	4	1	0	4	0
16	343	7	10000	4	1	0	4	0
17	344	7	10000	4	1	0	4	0
17	345	7	10000	4	1	0	4	0
18	346	7	10000	4	1	0	4	0
17	347	7	10000	4	1	0	4	0
18	348	7	10000	4	1	0	4	0
17	349	7	10000	4	1	0	4	0
16	350	7	10000	4	1	0	4	0
16	350	7	10000	4	1	0	4	0
15	351	7	10000	4	1	0	4	0
16	353	7	10000	4	1	0	4	0
16	354	7	10000	4	1	0	4	0
16	355	7	10000	4	1	0	4	0
14	356	7	10000	4	1	0	4	0
14	357	7	10000	4	1	0	4	0
14	358	7	10000	4	1	0	4	0
13	359	7	10000	4	1	0	4	0
13	360	7	10000	4	1	0	4	0
14	361	7	10000	4	1	0	4	0
13	362	7	10000	4	1	0	4	0
12	363	7	10000	4	1	0	4	0
12	364	7	10000	4	1	0	4	0
12	365	7	10000	4	1	0	4	0
13	366	7	10000	4	1	0	4	0
14	367	7	10000	4	1	0	4	0
13	368	7	10000	4	1	0	4	0
12	369	7	10000	4	1	0	4	0
12	370	7	10000	4	1	0	4	0
11	371	7	10000	4	1	0	4	0
11	372	7	10000	4	1	0	4	0
11	373	7	10000	4	1	0	4	0
12	374	7	10000	4	1	0	4	0
12	375	7	10000	4	1	0	4	0
11	376	7	10000	4	1	0	4	0
11	377	7	10000	4	1	0	4	0
11	378	7	10000	4	1	0	4	0
11	379	7	10000	4	1	0	4	0
12	380	7	10000	4	1	0	4	0
12	381	7	10000	4	1	0	4	0
12	382	7	10000	4	1	0	4	0
11	383	7	10000	4	1	0	4	0
11	384	7	10000	4	1	0	4	0
10	385	7	10000	4	1	0	4	0
11	386	7	10000	4	1	0	4	0
11	387	7	10000	4	1	0	4	0
11	388	7	10000	4	1	0	4	0
11	389	7	10000	4	1	0	4	0
11	390	7	10000	4	1	0	4	0
10	391	7	10000	4	1	0	4	0
10	392	7	10000	4	1	0	4	0
10	393	7	10000	4	1	0	4	0
11	394	7	10000	4	1	0	4	0
11	395	7	10000	4	1	0	4	0
9	396	7	10000	4	1	0	4	0
9	397	7	10000	4	1	0	4	0
9	398	7	10000	4	1	0	4	0
10	399	7	10000	4	1	0	4	0
9	400	7	10000	4	1	0	4	0
10	400	7	10000	4	1	0	4	0
9	401	7	10000	4	1	0	4	0
10	403	7	10000	4	1	0	4	0
9	404	7	10000	4	1	0	4	0
11	405	7	10000	4	1	0	4	0
12	406	7	10000	4	1	0	4	0
13	407	7	10000	4	1	0	4	0
12	408	7	10000	4	1	0	4	0
11	409	7	10000	4	1	0	4	0
11	410	7	10000	4	1	0	4	0
11	410	7	10000	4	1	0	4	0
11	411	7	10000	4	1	0	4	0
12	413	7	10000	4	1	0	4	0
12	414	7	10000	4	1	0	4	0
12	415	7	10000	4	1	0	4	0
11	416	7	10000	4	1	0	4	0
10	417	7	10000	4	1	0	4	0
10	418	7	10000	4	1	0	4	0
12	419	7	10000	4	1	0	4	0
13	420	7	10000	4	1	0	4	0
13	420	7	10000	4	1	0	4	0
13	421	7	10000	4	1	0	4	0
13	423	7	10000	4	1	0	4	0
14	424	7	10000	4	1	0	4	0
15	425	7	10000	4	1	0	4	0
16	426	7	10000	4	1	0	4	0
16	427	7	10000	4	1	0	4	0
17	428	7	10000	4	1	0	4	0
19	429	7	10000	4	1	0	4	0
20	430	7	10000	4	1	0	4	0
19	430	7	10000	4	1	0	4	0
19	431	7	10000	4	1	0	4	0
20	433	7	10000	4	1	0	4	0
20	434	7	10000	4	1	0	4	0
21	435	7	10000	4	1	0	4	0
20	436	7	10000	4	1	0	4	0
19	437	7	10000	4	1	0	4	0
19	438	7	10000	4	1	0	4	0
19	439	7	10000	4	1	0	4	0
18	440	7	10000	4	1	0	4	0
17	440	7	10000	4	1	0	4	0
17	441	7	10000	4	1	0	4	0
16	443	7	10000	4	1	0	4	0
16	444	7	10000	4	1	0	4	0
15	445	7	10000	4	1	0	4	0
16	446	7	10000	4	1	0	4	0
16	447	7	10000	4	1	0	4	0
15	448	7	10000	4	1	0	4	0
14	449	7	10000	4	1	0	4	0
14	450	7	10000	4	1	0	4	0
13	450	7	10000	4	1	0	4	0
13	451	7	10000	4	1	0	4	0
13	453	7	10000	4	1	0	4	0
13	454	7	10000	4	1	0	4	0
13	455	7	10000	4	1	0	4	0
13	456	7	10000	4	1	0	4	0
11	457	7	10000	4	1	0	4	0
11	458	7	10000	4	1	0	4	0
12	459	7	10000	4	1	0	4	0
12	460	7	10000	4	1	0	4	0
11	460	7	10000	4	1	0	4	0
13	461	7	10000	4	1	0	4	0
13	463	7	10000	4	1	0	4	0
13	464	7	10000	4	1	0	4	0
14	465	7	10000	4	1	0	4	0
15	466	7	10000	4	1	0	4	0
16	467	7	10000	4	1	0	4	0
16	468	7	10000	4	1	0	4	0
17	469	7	10000	4	1	0	4	0
17	470	7	10000	4	1	0	4	0
17	470	7	10000	4	1	0	4	0
17	471	7	10000	4	1	0	4	0
17	473	7	10000	4	1	0	4	0
17	474	7	10000	4	1	0	4	0
17	475	7	10000	4	1	0	4	0
15	476	7	10000	4	1	0	4	0
14	477	7	10000	4	1	0	4	0
15	478	7	10000	4	1	0	4	0
17	479	7	10000	4	1	0	4	0
19	480	7	10000	4	1	0	4	0
21	480	7	10000	4	1	0	4	0
22	481	7	10000	4	1	0	4	0
23	486	7	10000	4	1	0	4	0
23	487	7	10000	4	1	0	4	0
23	488	7	10000	4	1	0	4	0
26	489	7	10000	4	1	0	4	0
30	490	7	10000	4	1	0	4	0
33	491	7	10000	4	1	0	4	0
34	491	7	10000	4	1	0	4	0
34	492	7	10000	4	1	0	4	0
33	493	7	10000	4	1	0	4	0
33	494	7	10000	4	1	0	4	0
33	499	7	10000	4	1	0	4	0
33	500	7	10000	4	1	0	4	0
32	501	7	10000	4	1	0	4	0
30	502	7	10000	4	1	0	4	0
29	503	7	10000	4	1	0	4	0
29	504	7	10000	4	1	0	4	0
29	505	7	10000	4	1	0	4	0
29	506	7	10000	4	1	0	4	0
29	503	7	10000	4	1	0	4	0
27	504	7	10000	4	1	0	4	0
27	505	7	10000	4	1	0	4	0
27	506	7	10000	4	1	0	4	0
27	508	7	10000	4	1	0	4	1
27	509	7	10000	4	1	0	4	1
29	510	7	10000	4	1	0	4	1
28	511	7	10000	4	1	0	4	1
27	512	7	10000	4	1	0	4	1
27	513	7	10000	4	1	0	4	1
27	515	7	10000	4	1	0	4	1
26	516	7	10000	4	1	0	4	1
26	517	7	10000	4	1	0	4	1
27	518	7	10000	4	1	0	4	1
26	519	7	10000	4	1	0	4	1
24	520	7	10000	4	1	0	4	1
22	519	7	10000	4	1	0	4	1
22	520	7	10000	4	1	0	4	1
22	521	7	10000	4	1	0	4	1
22	522	7	10000	4	1	0	4	1
21	526	7	10000	4	1	0	4	1
21	527	7	10000	4	1	0	4	1
20	528	7	10000	4	1	0	4	1
20	529	7	10000	4	1	0	4	1
18	530	7	10000	4	1	0	4	1
19	531	7	10000	4	1	0	4	1
20	532	7	10000	4	1	0	4	1
20	533	7	10000	4	1	0	4	1
20	530	7	10000	4	1	0	4	1
20	531	7	10000	4	1	0	4	1
20	532	7	10000	4	1	0	4	1
18	533	7	10000	4	1	0	4	1
18	538	7	10000	4	1	0	4	1
18	539	7	10000	4	1	0	4	1
19	540	7	10000	4	1	0	4	1
18	541	7	10000	4	1	0	4	1
17	542	7	10000	4	1	0	4	1
16	543	7	10000	4	1	0	4	1
15	544	7	10000	4	1	0	4	1
16	545	7	10000	4	1	0	4	1
16	542	7	10000	4	1	0	4	1
15	543	7	10000	4	1	0	4	1
15	544	7	10000	4	1	0	4	1
15	545	7	10000	4	1	0	4	1
14	548	7	10000	4	1	0	4	1
14	549	7	10000	4	1	0	4	1
16	550	7	10000	4	1	0	4	1
14	551	7	10000	4	1	0	4	1
15	552	7	10000	4	1	0	4	1
15	553	7	10000	4	1	0	4	1
14	554	7	10000	4	1	0	4	1
14	555	7	10000	4	1	0	4	1
14	556	7	10000	4	1	0	4	1
14	557	7	10000	4	1	0	4	1
14	558	7	10000	4	1	0	4	1
13	559	7	10000	4	1	0	4	1
13	559	7	10000	4	1	0	4	0
13	560	7	10000	4	1	0	4	0
13	561	7	10000	4	1	0	4	0
13	562	7	10000	4	1	0	4	0
12	565	7	10000	4	1	0	4	0
13	566	7	10000	4	1	0	4	0
13	567	7	10000	4	1	0	4	0
13	568	7	10000	4	1	0	4	0
13	569	7	10000	4	1	0	4	0
14	570	7	10000	4	1	0	4	0
15	570	7	10000	4	1	0	4	0
14	571	7	10000	4	1	0	4	0
14	572	7	10000	4	1	0	4	0
13	573	7	10000	4	1	0	4	0
13	574	7	10000	4	1	0	4	0
13	575	7	10000	4	1	0	4	0
13	577	7	10000	4	1	0	4	0
12	578	7	10000	4	1	0	4	0
13	579	7	10000	4	1	0	4	0
13	580	7	10000	4	1	0	4	0
11	581	7	10000	4	1	0	4	0
11	582	7	10000	4	1	0	4	0
12	581	7	10000	4	1	0	4	0
16	582	7	10000	4	1	0	4	0
16	583	7	10000	4	1	0	4	0
16	584	7	10000	4	1	0	4	0
15	588	7	10000	4	1	0	4	0
15	589	7	10000	4	1	0	4	0
14	590	7	10000	4	1	0	4	0
16	591	7	10000	4	1	0	4	0
17	592	7	10000	4	1	0	4	0
18	593	7	10000	4	1	0	4	0
20	594	7	10000	4	1	0	4	0
20	595	7	10000	4	1	0	4	0
20	592	7	10000	4	1	0	4	0
20	593	7	10000	4	1	0	4	0
20	594	7	10000	4	1	0	4	0
21	595	7	10000	4	1	0	4	0
22	598	7	10000	4	1	0	4	0
21	599	7	10000	4	1	0	4	0
20	600	7	10000	4	1	0	4	0
21	601	7	10000	4	1	0	4	0
25	602	7	10000	4	1	0	4	0
33	603	7	10000	4	1	0	4	0
41	601	7	10000	4	1	0	4	0
41	602	7	10000	4	1	0	4	0
40	603	7	10000	4	1	0	4	0
43	604	7	10000	4	1	0	4	0
44	605	7	10000	4	1	0	4	0
58	606	7	10000	4	1	0	4	0
74	607	7	10000	4	1	0	4	0
92	608	7	10000	4	1	0	4	0
97	609	7	10000	4	1	0	4	0
106	610	7	10000	4	1	0	4	0
137	610	7	10000	4	1	0	4	0
165	611	7	10000	4	1	0	4	0
170	613	7	10000	4	1	0	4	0
166	614	7	10000	4	1	0	4	0
162	615	7	10000	4	1	0	4	0
154	616	7	10000	4	1	0	4	0
148	617	7	10000	4	1	0	4	0
147	618	7	10000	4	1	0	4	0
144	619	7	10000	4	1	0	4	0
139	620	7	10000	4	1	0	4	0
140	620	7	10000	4	1	0	4	0
140	621	7	10000	4	1	0	4	0
136	623	7	10000	4	1	0	4	0
134	624	7	10000	4	1	0	4	0
132	625	7	10000	4	1	0	4	0
132	626	7	10000	4	1	0	4	0
140	627	7	10000	4	1	0	4	0
147	628	7	10000	4	1	0	4	0
143	629	7	10000	4	1	0	4	0
142	630	7	10000	4	1	0	4	0
140	630	7	10000	4	1	0	4	0
136	631	7	10000	4	1	0	4	0
131	633	7	10000	4	1	0	4	0
127	634	7	10000	4	1	0	4	0
125	635	7	10000	4	1	0	4	0
123	636	7	10000	4	1	0	4	0
120	637	7	10000	4	1	0	4	0
118	638	7	10000	4	1	0	4	0
114	639	7	10000	4	1	0	4	0
110	640	7	10000	4	1	0	4	0
107	640	7	10000	4	1	0	4	0
103	641	7	10000	4	1	0	4	0
98	643	7	10000	4	1	0	4	0
93	644	7	10000	4	1	0	4	0
89	645	7	10000	4	1	0	4	0
86	646	7	10000	4	1	0	4	0
83	647	7	10000	4	1	0	4	0
80	648	7	10000	4	1	0	4	0
76	649	7	10000	4	1	0	4	0
73	650	7	10000	4	1	0	4	0
71	650	7	10000	4	1	0	4	0
70	651	7	10000	4	1	0	4	0
71	653	7	10000	4	1	0	4	0
71	654	7	10000	4	1	0	4	0
71	655	7	10000	4	1	0	4	0
71	656	7	10000	4	1	0	4	0
69	657	7	10000	4	1	0	4	0
68	658	7	10000	4	1	0	4	0
68	659	7	10000	4	1	0	4	0
67	660	7	10000	4	1	0	4	0
68	660	7	10000	4	1	0	4	0
67	661	7	10000	4	1	0	4	0
65	663	7	10000	4	1	0	4	0
64	664	7	10000	4	1	0	4	0
62	665	7	10000	4	1	0	4	0
63	666	7	10000	4	1	0	4	0
63	667	7	10000	4	1	0	4	0
64	668	7	10000	4	1	0	4	0
65	669	7	10000	4	1	0	4	0
66	670	7	10000	4	1	0	4	0
65	670	7	10000	4	1	0	4	0
63	671	7	10000	4	1	0	4	0
62	673	7	10000	4	1	0	4	0
63	674	7	10000	4	1	0	4	0
62	675	7	10000	4	1	0	4	0
60	676	7	10000	4	1	0	4	0
59	677	7	10000	4	1	0	4	0
59	678	7	10000	4	1	0	4	0
58	679	7	10000	4	1	0	4	0
58	680	7	10000	4	1	0	4	0
57	680	7	10000	4	1	0	4	0
57	681	7	10000	4	1	0	4	0
56	683	7	10000	4	1	0	4	0
55	684	7	10000	4	1	0	4	0
53	685	7	10000	4	1	0	4	0
51	686	7	10000	4	1	0	4	0
50	687	7	10000	4	1	0	4	0
49	688	7	10000	4	1	0	4	0
49	689	7	10000	4	1	0	4	0
48	690	7	10000	4	1	0	4	0
49	690	7	10000	4	1	0	4	0
48	691	7	10000	4	1	0	4	0
48	693	7	10000	4	1	0	4	0
47	694	7	10000	4	1	0	4	0
45	695	7	10000	4	1	0	4	0
44	696	7	10000	4	1	0	4	0
43	697	7	10000	4	1	0	4	0
41	698	7	10000	4	1	0	4	0
40	699	7	10000	4	1	0	4	0
39	700	7	10000	4	1	0	4	0
37	700	7	10000	4	1	0	4	0
36	701	7	10000	4	1	0	4	0
35	703	7	10000	4	1	0	4	0
34	704	7	10000	4	1	0	4	0
32	705	7	10000	4	1	0	4	0
33	706	7	10000	4	1	0	4	0
34	707	7	10000	4	1	0	4	0
32	708	7	10000	4	1	0	4	0
31	709	7	10000	4	1	0	4	0
31	710	7	10000	4	1	0	4	0
29	710	7	10000	4	1	0	4	0
27	711	7	10000	4	1	0	4	0
27	713	7	10000	4	1	0	4	0
28	714	7	10000	4	1	0	4	0
27	714	7	10000	4	1	0	4	0
26	715	7	10000	4	1	0	4	0
24	716	7	10000	4	1	0	4	0
24	717	7	10000	4	1	0	4	0
24	719	7	10000	4	1	0	4	0
24	720	7	10000	4	1	0	4	0
25	720	7	10000	4	1	0	4	0
26	721	7	10000	4	1	0	4	0
27	722	7	10000	4	1	0	4	0
26	723	7	10000	4	1	0	4	0
26	724	7	10000	4	1	0	4	0
27	725	7	10000	4	1	0	4	0
27	726	7	10000	4	1	0	4	0
27	727	7	10000	4	1	0	4	0
25	728	7	10000	4	1	0	4	0
25	729	7	10000	4	1	0	4	0
24	730	7	10000	4	1	0	4	0
23	731	7	10000	4	1	0	4	0
23	732	7	10000	4	1	0	4	0
22	733	7	10000	4	1	0	4	0
21	734	7	10000	4	1	0	4	0
20	735	7	10000	4	1	0	4	0
18	736	7	10000	4	1	0	4	0
18	737	7	10000	4	1	0	4	0
18	738	7	10000	4	1	0	4	0
18	739	7	10000	4	1	0	4	0
18	740	7	10000	4	1	0	4	0
19	741	7	10000	4	1	0	4	0
20	742	7	10000	4	1	0	4	0
20	743	7	10000	4	1	0	4	0
20	744	7	10000	4	1	0	4	0
21	745	7	10000	4	1	0	4	0
21	746	7	10000	4	1	0	4	0
21	747	7	10000	4	1	0	4	0
22	748	7	10000	4	1	0	4	0
23	749	7	10000	4	1	0	4	0
24	750	7	10000	4	1	0	4	0
23	751	7	10000	4	1	0	4	0
23	752	7	10000	4	1	0	4	0
22	753	7	10000	4	1	0	4	0
22	754	7	10000	4	1	0	4	0
21	755	7	10000	4	1	0	4	0
20	756	7	10000	4	1	0	4	0
20	757	7	10000	4	1	0	4	0
20	758	7	10000	4	1	0	4	0
20	759	7	10000	4	1	0	4	0
19	760	7	10000	4	1	0	4	0
19	761	7	10000	4	1	0	4	0
20	762	7	10000	4	1	0	4	0
19	763	7	10000	4	1	0	4	0
19	764	7	10000	4	1	0	4	0
20	765	7	10000	4	1	0	4	0
21	766	7	10000	4	1	0	4	0
20	767	7	10000	4	1	0	4	0
20	768	7	10000	4	1	0	4	0
20	769	7	10000	4	1	0	4	0
19	770	7	10000	4	1	0	4	0
19	771	7	10000	4	1	0	4	0
18	772	7	10000	4	1	0	4	0
19	773	7	10000	4	1	0	4	0
19	774	7	10000	4	1	0	4	0
20	775	7	10000	4	1	0	4	0
18	776	7	10000	4	1	0	4	0
17	777	7	10000	4	1	0	4	0
17	778	7	10000	4	1	0	4	0
17	779	7	10000	4	1	0	4	0
16	780	7	10000	4	1	0	4	0
17	781	7	10000	4	1	0	4	0
16	782	7	10000	4	1	0	4	0
16	783	7	10000	4	1	0	4	0
17	784	7	10000	4	1	0	4	0
17	785	7	10000	4	1	0	4	0
17	786	7	10000	4	1	0	4	0
18	787	7	10000	4	1	0	4	0
17	788	7	10000	4	1	0	4	0
16	789	7	10000	4	1	0	4	0
16	790	7	10000	4	1	0	4	0
16	791	7	10000	4	1	0	4	0
17	792	7	10000	4	1	0	4	0
20	793	7	10000	4	1	0	4	0
24	794	7	10000	4	1	0	4	0
24	795	7	10000	4	1	0	4	0
23	796	7	10000	4	1	0	4	0
24	797	7	10000	4	1	0	4	0
23	798	7	10000	4	1	0	4	0
22	799	7	10000	4	1	0	4	0
21	800	7	10000	4	1	0	4	0
22	801	7	10000	4	1	0	4	0
22	802	7	10000	4	1	0	4	0
22	803	7	10000	4	1	0	4	0
22	804	7	10000	4	1	0	4	0
23	805	7	10000	4	1	0	4	0
24	806	7	10000	4	1	0	4	0
23	807	7	10000	4	1	0	4	0
22	808	7	10000	4	1	0	4	0
20	809	7	10000	4	1	0	4	0
20	810	7	10000	4	1	0	4	0
20	811	7	10000	4	1	0	4	0
19	812	7	10000	4	1	0	4	0
20	813	7	10000	4	1	0	4	0
20	814	7	10000	4	1	0	4	0
20	815	7	10000	4	1	0	4	0
19	816	7	10000	4	1	0	4	0
19	817	7	10000	4	1	0	4	0
19	818	7	10000	4	1	0	4	0
20	819	7	10000	4	1	0	4	0
21	820	7	10000	4	1	0	4	0
20	821	7	10000	4	1	0	4	0
19	822	7	10000	4	1	0	4	0
20	823	7	10000	4	1	0	4	0
22	824	7	10000	4	1	0	4	0
26	825	7	10000	4	1	0	4	0
29	826	7	10000	4	1	0	4	0
30	827	7	10000	4	1	0	4	0
30	828	7	10000	4	1	0	4	0
30	829	7	10000	4	1	0	4	0
29	830	7	10000	4	1	0	4	0
28	831	7	10000	4	1	0	4	0
27	832	7	10000	4	1	0	4	0
26	833	7	10000	4	1	0	4	0
26	834	7	10000	4	1	0	4	0
24	835	7	10000	4	1	0	4	0
23	836	7	10000	4	1	0	4	0
24	837	7	10000	4	1	0	4	0
25	838	7	10000	4	1	0	4	0
26	839	7	10000	4	1	0	4	0
26	840	7	10000	4	1	0	4	0
27	841	7	10000	4	1	0	4	0
28	842	7	10000	4	1	0	4	0
29	843	7	10000	4	1	0	4	0
27	844	7	10000	4	1	0	4	0
28	845	7	10000	4	1	0	4	0
28	846	7	10000	4	1	0	4	0
26	847	7	10000	4	1	0	4	0
25	848	7	10000	4	1	0	4	0
24	849	7	10000	4	1	0	4	0
25	850	7	10000	4	1	0	4	0
25	851	7	10000	4	1	0	4	0
25	852	7	10000	4	1	0	4	0
24	853	7	10000	4	1	0	4	0
23	854	7	10000	4	1	0	4	0
22	855	7	10000	4	1	0	4	0
21	856	7	10000	4	1	0	4	0
20	857	7	10000	4	1	0	4	0
20	858	7	10000	4	1	0	4	0
20	859	7	10000	4	1	0	4	0
19	860	7	10000	4	1	0	4	0
18	861	7	10000	4	1	0	4	0
18	862	7	10000	4	1	0	4	0
18	863	7	10000	4	1	0	4	0
18	864	7	10000	4	1	0	4	0
20	865	7	10000	4	1	0	4	0
21	866	7	10000	4	1	0	4	0
20	867	7	10000	4	1	0	4	0
19	868	7	10000	4	1	0	4	0
20	869	7	10000	4	1	0	4	0
21	870	7	10000	4	1	0	4	0
22	871	7	10000	4	1	0	4	0
23	872	7	10000	4	1	0	4	0
23	873	7	10000	4	1	0	4	0
21	874	7	10000	4	1	0	4	0
21	875	7	10000	4	1	0	4	0
19	876	7	10000	4	1	0	4	0
19	877	7	10000	4	1	0	4	0
19	878	7	10000	4	1	0	4	0
18	879	7	10000	4	1	0	4	0
17	880	7	10000	4	1	0	4	0
17	881	7	10000	4	1	0	4	0
17	882	7	10000	4	1	0	4	0
17	883	7	10000	4	1	0	4	0
17	884	7	10000	4	1	0	4	0
16	885	7	10000	4	1	0	4	0
17	886	7	10000	4	1	0	4	0
16	887	7	10000	4	1	0	4	0
16	888	7	10000	4	1	0	4	0
16	889	7	10000	4	1	0	4	0
16	890	7	10000	4	1	0	4	0
16	891	7	10000	4	1	0	4	0
17	892	7	10000	4	1	0	4	0
16	893	7	10000	4	1	0	4	0
16	894	7	10000	4	1	0	4	0
16	895	7	10000	4	1	0	4	0
15	896	7	10000	4	1	0	4	0
16	897	7	10000	4	1	0	4	0
16	898	7	10000	4	1	0	4	0
16	899	7	10000	4	1	0	4	0
15	900	7	10000	4	1	0	4	0
15	901	7	10000	4	1	0	4	0
15	902	7	10000	4	1	0	4	0
15	903	7	10000	4	1	0	4	0
14	904	7	10000	4	1	0	4	0
15	905	7	10000	4	1	0	4	0
15	906	7	10000	4	1	0	4	0
14	907	7	10000	4	1	0	4	0
14	908	7	10000	4	1	0	4	0
14	909	7	10000	4	1	0	4	0
13	910	7	10000	4	1	0	4	0
14	911	7	10000	4	1	0	4	0
14	912	7	10000	4	1	0	4	0
14	913	7	10000	4	1	0	4	0
14	914	7	10000	4	1	0	4	0
14	915	7	10000	4	1	0	4	0
12	916	7	10000	4	1	0	4	0
12	917	7	10000	4	1	0	4	0
13	918	7	10000	4	1	0	4	0
12	919	7	10000	4	1	0	4	0
13	920	7	10000	4	1	0	4	0
12	921	7	10000	4	1	0	4	0
12	922	7	10000	4	1	0	4	0
11	923	7	10000	4	1	0	4	0
11	924	7	10000	4	1	0	4	0
12	925	7	10000	4	1	0	4	0
13	926	7	10000	4	1	0	4	0
12	927	7	10000	4	1	0	4	0
13	928	7	10000	4	1	0	4	0
11	929	7	10000	4	1	0	4	0
11	930	7	10000	4	1	0	4	0
11	931	7	10000	4	1	0	4	0
10	932	7	10000	4	1	0	4	0
11	933	7	10000	4	1	0	4	0
12	934	7	10000	4	1	0	4	0
12	935	7	10000	4	1	0	4	0
11	936	7	10000	4	1	0	4	0
11	937	7	10000	4	1	0	4	0
11	938	7	10000	4	1	0	4	0
12	939	7	10000	4	1	0	4	0
11	940	7	10000	4	1	0	4	0
12	941	7	10000	4	1	0	4	0
12	942	7	10000	4	1	0	4	0
11	943	7	10000	4	1	0	4	0
11	944	7	10000	4	1	0	4	0
12	945	7	10000	4	1	0	4	0
13	946	7	10000	4	1	0	4	0
13	947	7	10000	4	1	0	4	0
13	948	7	10000	4	1	0	4	0
12	949	7	10000	4	1	0	4	0
13	950	7	10000	4	1	0	4	0
14	951	7	10000	4	1	0	4	0
15	952	7	10000	4	1	0	4	0
16	953	7	10000	4	1	0	4	0
17	954	7	10000	4	1	0	4	0
16	955	7	10000	4	1	0	4	0
13	956	7	10000	4	1	0	4	0
14	957	7	10000	4	1	0	4	0
15	958	7	10000	4	1	0	4	0
14	959	7	10000	4	1	0	4	0
14	960	7	10000	4	1	0	4	0
14	961	7	10000	4	1	0	4	0
14	962	7	10000	4	1	0	4	0
13	963	7	10000	4	1	0	4	0
13	964	7	10000	4	1	0	4	0
13	965	7	10000	4	1	0	4	0
14	966	7	10000	4	1	0	4	0
14	967	7	10000	4	1	0	4	0
13	968	7	10000	4	1	0	4	0
13	969	7	10000	4	1	0	4	0
14	970	7	10000	4	1	0	4	0
14	971	7	10000	4	1	0	4	0
13	972	7	10000	4	1	0	4	0
13	973	7	10000	4	1	0	4	0
14	974	7	10000	4	1	0	4	0
14	975	7	10000	4	1	0	4	0
13	976	7	10000	4	1	0	4	0
14	977	7	10000	4	1	0	4	0
13	978	7	10000	4	1	0	4	0
15	979	7	10000	4	1	0	4	0
14	980	7	10000	4	1	0	4	0
15	981	7	10000	4	1	0	4	0
15	982	7	10000	4	1	0	4	0
16	983	7	10000	4	1	0	4	0
16	984	7	10000	4	1	0	4	0
16	985	7	10000	4	1	0	4	0
18	986	7	10000	4	1	0	4	0
17	987	7	10000	4	1	0	4	0
16	988	7	10000	4	1	0	4	0
16	989	7	10000	4	1	0	4	0
17	990	7	10000	4	1	0	4	0
17	991	7	10000	4	1	0	4	0
18	992	7	10000	4	1	0	4	0
19	993	7	10000	4	1	0	4	0
19	994	7	10000	4	1	0	4	0
17	995	7	10000	4	1	0	4	0
16	996	7	10000	4	1	0	4	0
16	997	7	10000	4	1	0	4	0
16	998	7	10000	4	1	0	4	0
15	999	7	10000	4	1	0	4	0
16	1000	7	10000	4	1	0	4	0
14	1001	7	10000	4	1	0	4	0
19	2	7	10000	5	1	0	5	0
17	3	7	10000	5	1	0	5	0
17	4	7	10000	5	1	0	5	0
16	5	7	10000	5	1	0	5	0
18	6	7	10000	5	1	0	5	0
18	7	7	10000	5	1	0	5	0
17	8	7	10000	5	1	0	5	0
18	9	7	10000	5	1	0	5	0
19	10	7	10000	5	1	0	5	0
21	11	7	10000	5	1	0	5	0
21	12	7	10000	5	1	0	5	0
21	13	7	10000	5	1	0	5	0
22	14	7	10000	5	1	0	5	0
21	15	7	10000	5	1	0	5	0
19	16	7	10000	5	1	0	5	0
19	17	7	10000	5	1	0	5	0
18	18	7	10000	5	1	0	5	0
18	19	7	10000	5	1	0	5	0
19	20	7	10000	5	1	0	5	0
19	21	7	10000	5	1	0	5	0
18	22	7	10000	5	1	0	5	0
17	23	7	10000	5	1	0	5	0
16	24	7	10000	5	1	0	5	0
16	25	7	10000	5	1	0	5	0
18	26	7	10000	5	1	0	5	0
17	27	7	10000	5	1	0	5	0
18	28	7	10000	5	1	0	5	0
19	29	7	10000	5	1	0	5	0
21	30	7	10000	5	1	0	5	0
21	31	7	10000	5	1	0	5	0
20	32	7	10000	5	1	0	5	0
20	33	7	10000	5	1	0	5	0
20	34	7	10000	5	1	0	5	0
20	35	7	10000	5	1	0	5	0
18	36	7	10000	5	1	0	5	0
17	37	7	10000	5	1	0	5	0
17	38	7	10000	5	1	0	5	0
16	39	7	10000	5	1	0	5	0
16	40	7	10000	5	1	0	5	0
17	41	7	10000	5	1	0	5	0
17	42	7	10000	5	1	0	5	0
16	43	7	10000	5	1	0	5	0
15	44	7	10000	5	1	0	5	0
14	45	7	10000	5	1	0	5	0
16	46	7	10000	5	1	0	5	0
15	47	7	10000	5	1	0	5	0
15	48	7	10000	5	1	0	5	0
15	49	7	10000	5	1	0	5	0
15	50	7	10000	5	1	0	5	0
16	51	7	10000	5	1	0	5	0
17	52	7	10000	5	1	0	5	0
19	53	7	10000	5	1	0	5	0
20	54	7	10000	5	1	0	5	0
20	55	7	10000	5	1	0	5	0
19	56	7	10000	5	1	0	5	0
18	57	7	10000	5	1	0	5	0
18	58	7	10000	5	1	0	5	0
19	59	7	10000	5	1	0	5	0
18	60	7	10000	5	1	0	5	0
19	61	7	10000	5	1	0	5	0
20	62	7	10000	5	1	0	5	0
20	63	7	10000	5	1	0	5	0
19	64	7	10000	5	1	0	5	0
19	65	7	10000	5	1	0	5	0
20	66	7	10000	5	1	0	5	0
19	67	7	10000	5	1	0	5	0
18	68	7	10000	5	1	0	5	0
18	69	7	10000	5	1	0	5	0
18	70	7	10000	5	1	0	5	0
19	71	7	10000	5	1	0	5	0
19	72	7	10000	5	1	0	5	0
20	73	7	10000	5	1	0	5	0
21	74	7	10000	5	1	0	5	0
21	75	7	10000	5	1	0	5	0
19	76	7	10000	5	1	0	5	0
18	77	7	10000	5	1	0	5	0
18	78	7	10000	5	1	0	5	0
19	79	7	10000	5	1	0	5	0
19	80	7	10000	5	1	0	5	0
19	81	7	10000	5	1	0	5	0
20	82	7	10000	5	1	0	5	0
19	83	7	10000	5	1	0	5	0
20	84	7	10000	5	1	0	5	0
20	85	7	10000	5	1	0	5	0
21	86	7	10000	5	1	0	5	0
20	87	7	10000	5	1	0	5	0
20	88	7	10000	5	1	0	5	0
19	89	7	10000	5	1	0	5	0
18	90	7	10000	5	1	0	5	0
18	91	7	10000	5	1	0	5	0
18	91	7	10000	5	1	0	5	0
18	92	7	10000	5	1	0	5	0
17	94	7	10000	5	1	0	5	0
17	95	7	10000	5	1	0	5	0
15	96	7	10000	5	1	0	5	0
14	97	7	10000	5	1	0	5	0
15	98	7	10000	5	1	0	5	0
15	99	7	10000	5	1	0	5	0
14	100	7	10000	5	1	0	5	0
14	101	7	10000	5	1	0	5	0
13	101	7	10000	5	1	0	5	0
12	102	7	10000	5	1	0	5	0
12	104	7	10000	5	1	0	5	0
13	105	7	10000	5	1	0	5	0
13	106	7	10000	5	1	0	5	0
13	107	7	10000	5	1	0	5	0
13	108	7	10000	5	1	0	5	0
13	109	7	10000	5	1	0	5	0
14	110	7	10000	5	1	0	5	0
14	111	7	10000	5	1	0	5	0
16	111	7	10000	5	1	0	5	0
16	112	7	10000	5	1	0	5	0
17	114	7	10000	5	1	0	5	0
17	115	7	10000	5	1	0	5	0
15	116	7	10000	5	1	0	5	0
16	117	7	10000	5	1	0	5	0
16	118	7	10000	5	1	0	5	0
16	119	7	10000	5	1	0	5	0
15	120	7	10000	5	1	0	5	0
15	121	7	10000	5	1	0	5	0
16	121	7	10000	5	1	0	5	0
15	122	7	10000	5	1	0	5	0
15	124	7	10000	5	1	0	5	0
15	125	7	10000	5	1	0	5	0
18	126	7	10000	5	1	0	5	0
17	127	7	10000	5	1	0	5	0
17	128	7	10000	5	1	0	5	0
16	129	7	10000	5	1	0	5	0
15	130	7	10000	5	1	0	5	0
15	131	7	10000	5	1	0	5	0
14	131	7	10000	5	1	0	5	0
14	132	7	10000	5	1	0	5	0
15	134	7	10000	5	1	0	5	0
16	135	7	10000	5	1	0	5	0
15	136	7	10000	5	1	0	5	0
15	137	7	10000	5	1	0	5	0
15	138	7	10000	5	1	0	5	0
15	139	7	10000	5	1	0	5	0
15	140	7	10000	5	1	0	5	0
15	141	7	10000	5	1	0	5	0
15	141	7	10000	5	1	0	5	0
15	142	7	10000	5	1	0	5	0
15	144	7	10000	5	1	0	5	0
14	145	7	10000	5	1	0	5	0
15	146	7	10000	5	1	0	5	0
16	147	7	10000	5	1	0	5	0
15	148	7	10000	5	1	0	5	0
14	149	7	10000	5	1	0	5	0
14	150	7	10000	5	1	0	5	0
14	151	7	10000	5	1	0	5	0
13	151	7	10000	5	1	0	5	0
14	152	7	10000	5	1	0	5	0
15	154	7	10000	5	1	0	5	0
15	155	7	10000	5	1	0	5	0
13	156	7	10000	5	1	0	5	0
12	157	7	10000	5	1	0	5	0
12	158	7	10000	5	1	0	5	0
12	159	7	10000	5	1	0	5	0
13	160	7	10000	5	1	0	5	0
12	161	7	10000	5	1	0	5	0
12	161	7	10000	5	1	0	5	0
11	162	7	10000	5	1	0	5	0
11	164	7	10000	5	1	0	5	0
11	165	7	10000	5	1	0	5	0
12	166	7	10000	5	1	0	5	0
12	167	7	10000	5	1	0	5	0
11	168	7	10000	5	1	0	5	0
11	169	7	10000	5	1	0	5	0
11	170	7	10000	5	1	0	5	0
12	171	7	10000	5	1	0	5	0
12	171	7	10000	5	1	0	5	0
14	172	7	10000	5	1	0	5	0
15	174	7	10000	5	1	0	5	0
14	175	7	10000	5	1	0	5	0
12	176	7	10000	5	1	0	5	0
13	177	7	10000	5	1	0	5	0
14	178	7	10000	5	1	0	5	0
14	179	7	10000	5	1	0	5	0
14	180	7	10000	5	1	0	5	0
14	181	7	10000	5	1	0	5	0
13	181	7	10000	5	1	0	5	0
13	182	7	10000	5	1	0	5	0
13	184	7	10000	5	1	0	5	0
12	185	7	10000	5	1	0	5	0
13	186	7	10000	5	1	0	5	0
13	187	7	10000	5	1	0	5	0
12	188	7	10000	5	1	0	5	0
11	189	7	10000	5	1	0	5	0
12	190	7	10000	5	1	0	5	0
12	191	7	10000	5	1	0	5	0
11	191	7	10000	5	1	0	5	0
13	192	7	10000	5	1	0	5	0
14	194	7	10000	5	1	0	5	0
13	195	7	10000	5	1	0	5	0
11	196	7	10000	5	1	0	5	0
12	197	7	10000	5	1	0	5	0
12	198	7	10000	5	1	0	5	0
11	199	7	10000	5	1	0	5	0
11	200	7	10000	5	1	0	5	0
10	201	7	10000	5	1	0	5	0
10	201	7	10000	5	1	0	5	0
11	202	7	10000	5	1	0	5	0
10	204	7	10000	5	1	0	5	0
11	205	7	10000	5	1	0	5	0
12	206	7	10000	5	1	0	5	0
13	207	7	10000	5	1	0	5	0
14	208	7	10000	5	1	0	5	0
14	209	7	10000	5	1	0	5	0
15	210	7	10000	5	1	0	5	0
16	211	7	10000	5	1	0	5	0
16	211	7	10000	5	1	0	5	0
16	212	7	10000	5	1	0	5	0
15	214	7	10000	5	1	0	5	0
15	215	7	10000	5	1	0	5	0
14	216	7	10000	5	1	0	5	0
14	217	7	10000	5	1	0	5	0
14	218	7	10000	5	1	0	5	0
14	219	7	10000	5	1	0	5	0
15	220	7	10000	5	1	0	5	0
14	221	7	10000	5	1	0	5	0
14	221	7	10000	5	1	0	5	0
14	222	7	10000	5	1	0	5	0
13	224	7	10000	5	1	0	5	0
13	225	7	10000	5	1	0	5	0
16	226	7	10000	5	1	0	5	0
16	227	7	10000	5	1	0	5	0
15	228	7	10000	5	1	0	5	0
15	229	7	10000	5	1	0	5	0
14	230	7	10000	5	1	0	5	0
14	231	7	10000	5	1	0	5	0
13	231	7	10000	5	1	0	5	0
14	232	7	10000	5	1	0	5	0
14	234	7	10000	5	1	0	5	0
14	235	7	10000	5	1	0	5	0
12	236	7	10000	5	1	0	5	0
13	237	7	10000	5	1	0	5	0
13	238	7	10000	5	1	0	5	0
14	239	7	10000	5	1	0	5	0
14	240	7	10000	5	1	0	5	0
13	241	7	10000	5	1	0	5	0
14	241	7	10000	5	1	0	5	0
13	242	7	10000	5	1	0	5	0
13	244	7	10000	5	1	0	5	0
12	245	7	10000	5	1	0	5	0
14	246	7	10000	5	1	0	5	0
13	247	7	10000	5	1	0	5	0
13	248	7	10000	5	1	0	5	0
13	249	7	10000	5	1	0	5	0
13	250	7	10000	5	1	0	5	0
12	251	7	10000	5	1	0	5	0
12	251	7	10000	5	1	0	5	0
12	252	7	10000	5	1	0	5	0
12	254	7	10000	5	1	0	5	0
12	255	7	10000	5	1	0	5	0
11	256	7	10000	5	1	0	5	0
13	257	7	10000	5	1	0	5	0
14	258	7	10000	5	1	0	5	0
14	259	7	10000	5	1	0	5	0
14	260	7	10000	5	1	0	5	0
14	261	7	10000	5	1	0	5	0
16	261	7	10000	5	1	0	5	0
16	262	7	10000	5	1	0	5	0
16	264	7	10000	5	1	0	5	0
17	265	7	10000	5	1	0	5	0
17	266	7	10000	5	1	0	5	0
18	267	7	10000	5	1	0	5	0
19	268	7	10000	5	1	0	5	0
20	269	7	10000	5	1	0	5	0
21	270	7	10000	5	1	0	5	0
21	271	7	10000	5	1	0	5	0
22	271	7	10000	5	1	0	5	0
22	272	7	10000	5	1	0	5	0
22	274	7	10000	5	1	0	5	0
22	275	7	10000	5	1	0	5	0
20	276	7	10000	5	1	0	5	0
20	277	7	10000	5	1	0	5	0
20	278	7	10000	5	1	0	5	0
20	279	7	10000	5	1	0	5	0
20	280	7	10000	5	1	0	5	0
19	281	7	10000	5	1	0	5	0
19	281	7	10000	5	1	0	5	0
18	282	7	10000	5	1	0	5	0
17	284	7	10000	5	1	0	5	0
17	285	7	10000	5	1	0	5	0
20	286	7	10000	5	1	0	5	0
19	287	7	10000	5	1	0	5	0
20	288	7	10000	5	1	0	5	0
18	289	7	10000	5	1	0	5	0
19	290	7	10000	5	1	0	5	0
19	291	7	10000	5	1	0	5	0
18	291	7	10000	5	1	0	5	0
19	292	7	10000	5	1	0	5	0
18	294	7	10000	5	1	0	5	0
18	295	7	10000	5	1	0	5	0
15	296	7	10000	5	1	0	5	0
16	297	7	10000	5	1	0	5	0
15	298	7	10000	5	1	0	5	0
15	299	7	10000	5	1	0	5	0
16	300	7	10000	5	1	0	5	0
17	301	7	10000	5	1	0	5	0
17	301	7	10000	5	1	0	5	0
18	302	7	10000	5	1	0	5	0
17	304	7	10000	5	1	0	5	0
16	305	7	10000	5	1	0	5	0
17	306	7	10000	5	1	0	5	0
16	307	7	10000	5	1	0	5	0
16	308	7	10000	5	1	0	5	0
16	309	7	10000	5	1	0	5	0
15	310	7	10000	5	1	0	5	0
15	311	7	10000	5	1	0	5	0
14	311	7	10000	5	1	0	5	0
15	312	7	10000	5	1	0	5	0
15	314	7	10000	5	1	0	5	0
14	315	7	10000	5	1	0	5	0
13	316	7	10000	5	1	0	5	0
13	317	7	10000	5	1	0	5	0
13	318	7	10000	5	1	0	5	0
13	319	7	10000	5	1	0	5	0
13	320	7	10000	5	1	0	5	0
12	321	7	10000	5	1	0	5	0
12	321	7	10000	5	1	0	5	0
12	322	7	10000	5	1	0	5	0
12	324	7	10000	5	1	0	5	0
10	325	7	10000	5	1	0	5	0
12	326	7	10000	5	1	0	5	0
12	327	7	10000	5	1	0	5	0
11	328	7	10000	5	1	0	5	0
10	329	7	10000	5	1	0	5	0
10	330	7	10000	5	1	0	5	0
10	331	7	10000	5	1	0	5	0
10	331	7	10000	5	1	0	5	0
10	332	7	10000	5	1	0	5	0
10	334	7	10000	5	1	0	5	0
10	335	7	10000	5	1	0	5	0
8	336	7	10000	5	1	0	5	0
9	337	7	10000	5	1	0	5	0
9	338	7	10000	5	1	0	5	0
10	339	7	10000	5	1	0	5	0
10	340	7	10000	5	1	0	5	0
10	341	7	10000	5	1	0	5	0
11	341	7	10000	5	1	0	5	0
11	342	7	10000	5	1	0	5	0
11	344	7	10000	5	1	0	5	0
10	345	7	10000	5	1	0	5	0
12	346	7	10000	5	1	0	5	0
13	347	7	10000	5	1	0	5	0
13	348	7	10000	5	1	0	5	0
15	349	7	10000	5	1	0	5	0
16	350	7	10000	5	1	0	5	0
16	351	7	10000	5	1	0	5	0
17	351	7	10000	5	1	0	5	0
18	352	7	10000	5	1	0	5	0
18	354	7	10000	5	1	0	5	0
17	355	7	10000	5	1	0	5	0
15	356	7	10000	5	1	0	5	0
16	357	7	10000	5	1	0	5	0
16	358	7	10000	5	1	0	5	0
16	359	7	10000	5	1	0	5	0
17	360	7	10000	5	1	0	5	0
17	361	7	10000	5	1	0	5	0
17	361	7	10000	5	1	0	5	0
16	362	7	10000	5	1	0	5	0
16	364	7	10000	5	1	0	5	0
16	365	7	10000	5	1	0	5	0
18	366	7	10000	5	1	0	5	0
18	367	7	10000	5	1	0	5	0
17	368	7	10000	5	1	0	5	0
16	369	7	10000	5	1	0	5	0
16	370	7	10000	5	1	0	5	0
16	371	7	10000	5	1	0	5	0
15	371	7	10000	5	1	0	5	0
15	372	7	10000	5	1	0	5	0
15	374	7	10000	5	1	0	5	0
16	375	7	10000	5	1	0	5	0
15	376	7	10000	5	1	0	5	0
15	377	7	10000	5	1	0	5	0
16	378	7	10000	5	1	0	5	0
18	379	7	10000	5	1	0	5	0
20	380	7	10000	5	1	0	5	0
20	381	7	10000	5	1	0	5	0
22	381	7	10000	5	1	0	5	0
22	382	7	10000	5	1	0	5	0
22	384	7	10000	5	1	0	5	0
21	385	7	10000	5	1	0	5	0
23	386	7	10000	5	1	0	5	0
22	387	7	10000	5	1	0	5	0
20	388	7	10000	5	1	0	5	0
20	389	7	10000	5	1	0	5	0
21	390	7	10000	5	1	0	5	0
22	391	7	10000	5	1	0	5	0
25	391	7	10000	5	1	0	5	0
27	392	7	10000	5	1	0	5	0
29	394	7	10000	5	1	0	5	0
30	395	7	10000	5	1	0	5	0
28	396	7	10000	5	1	0	5	0
27	397	7	10000	5	1	0	5	0
27	398	7	10000	5	1	0	5	0
26	399	7	10000	5	1	0	5	0
25	400	7	10000	5	1	0	5	0
25	401	7	10000	5	1	0	5	0
25	401	7	10000	5	1	0	5	0
26	402	7	10000	5	1	0	5	0
26	404	7	10000	5	1	0	5	0
26	405	7	10000	5	1	0	5	0
28	406	7	10000	5	1	0	5	0
28	407	7	10000	5	1	0	5	0
28	408	7	10000	5	1	0	5	0
29	409	7	10000	5	1	0	5	0
29	410	7	10000	5	1	0	5	0
29	411	7	10000	5	1	0	5	0
28	411	7	10000	5	1	0	5	0
28	412	7	10000	5	1	0	5	0
27	414	7	10000	5	1	0	5	0
26	415	7	10000	5	1	0	5	0
24	416	7	10000	5	1	0	5	0
23	417	7	10000	5	1	0	5	0
22	418	7	10000	5	1	0	5	0
23	419	7	10000	5	1	0	5	0
23	420	7	10000	5	1	0	5	0
24	421	7	10000	5	1	0	5	0
26	421	7	10000	5	1	0	5	0
26	422	7	10000	5	1	0	5	0
26	424	7	10000	5	1	0	5	0
26	425	7	10000	5	1	0	5	0
28	426	7	10000	5	1	0	5	0
28	427	7	10000	5	1	0	5	0
27	428	7	10000	5	1	0	5	0
25	429	7	10000	5	1	0	5	0
26	430	7	10000	5	1	0	5	0
26	431	7	10000	5	1	0	5	0
27	431	7	10000	5	1	0	5	0
28	432	7	10000	5	1	0	5	0
28	434	7	10000	5	1	0	5	0
30	435	7	10000	5	1	0	5	0
28	436	7	10000	5	1	0	5	0
29	437	7	10000	5	1	0	5	0
30	438	7	10000	5	1	0	5	0
32	439	7	10000	5	1	0	5	0
32	440	7	10000	5	1	0	5	0
32	441	7	10000	5	1	0	5	0
33	441	7	10000	5	1	0	5	0
32	442	7	10000	5	1	0	5	0
32	444	7	10000	5	1	0	5	0
31	445	7	10000	5	1	0	5	0
32	446	7	10000	5	1	0	5	0
33	447	7	10000	5	1	0	5	0
33	448	7	10000	5	1	0	5	0
31	449	7	10000	5	1	0	5	0
30	450	7	10000	5	1	0	5	0
28	451	7	10000	5	1	0	5	0
28	451	7	10000	5	1	0	5	0
27	452	7	10000	5	1	0	5	0
26	454	7	10000	5	1	0	5	0
26	455	7	10000	5	1	0	5	0
25	456	7	10000	5	1	0	5	0
26	457	7	10000	5	1	0	5	0
27	458	7	10000	5	1	0	5	0
26	459	7	10000	5	1	0	5	0
25	460	7	10000	5	1	0	5	0
25	461	7	10000	5	1	0	5	0
24	461	7	10000	5	1	0	5	0
23	462	7	10000	5	1	0	5	0
22	464	7	10000	5	1	0	5	0
21	465	7	10000	5	1	0	5	0
23	466	7	10000	5	1	0	5	0
23	467	7	10000	5	1	0	5	0
22	468	7	10000	5	1	0	5	0
21	469	7	10000	5	1	0	5	0
20	470	7	10000	5	1	0	5	0
20	471	7	10000	5	1	0	5	0
20	471	7	10000	5	1	0	5	0
20	472	7	10000	5	1	0	5	0
20	474	7	10000	5	1	0	5	0
20	475	7	10000	5	1	0	5	0
19	476	7	10000	5	1	0	5	0
17	477	7	10000	5	1	0	5	0
17	478	7	10000	5	1	0	5	0
17	479	7	10000	5	1	0	5	0
16	480	7	10000	5	1	0	5	0
16	481	7	10000	5	1	0	5	0
15	481	7	10000	5	1	0	5	0
14	482	7	10000	5	1	0	5	0
14	484	7	10000	5	1	0	5	0
13	485	7	10000	5	1	0	5	0
14	486	7	10000	5	1	0	5	0
14	487	7	10000	5	1	0	5	0
13	488	7	10000	5	1	0	5	0
13	489	7	10000	5	1	0	5	0
12	490	7	10000	5	1	0	5	0
12	491	7	10000	5	1	0	5	0
11	491	7	10000	5	1	0	5	0
11	492	7	10000	5	1	0	5	0
12	494	7	10000	5	1	0	5	0
12	495	7	10000	5	1	0	5	0
11	496	7	10000	5	1	0	5	0
12	497	7	10000	5	1	0	5	0
12	498	7	10000	5	1	0	5	0
13	499	7	10000	5	1	0	5	0
14	500	7	10000	5	1	0	5	0
14	501	7	10000	5	1	0	5	0
14	502	7	10000	5	1	0	5	1
13	503	7	10000	5	1	0	5	1
12	504	7	10000	5	1	0	5	1
13	505	7	10000	5	1	0	5	1
15	506	7	10000	5	1	0	5	1
15	507	7	10000	5	1	0	5	1
14	508	7	10000	5	1	0	5	1
13	509	7	10000	5	1	0	5	1
13	510	7	10000	5	1	0	5	1
13	511	7	10000	5	1	0	5	1
13	511	7	10000	5	1	0	5	1
15	512	7	10000	5	1	0	5	1
17	514	7	10000	5	1	0	5	1
19	515	7	10000	5	1	0	5	1
18	516	7	10000	5	1	0	5	1
17	517	7	10000	5	1	0	5	1
17	518	7	10000	5	1	0	5	1
16	519	7	10000	5	1	0	5	1
17	520	7	10000	5	1	0	5	1
17	521	7	10000	5	1	0	5	1
17	521	7	10000	5	1	0	5	1
17	522	7	10000	5	1	0	5	1
16	524	7	10000	5	1	0	5	1
15	525	7	10000	5	1	0	5	1
17	526	7	10000	5	1	0	5	1
18	527	7	10000	5	1	0	5	1
17	528	7	10000	5	1	0	5	1
16	529	7	10000	5	1	0	5	1
16	530	7	10000	5	1	0	5	1
16	531	7	10000	5	1	0	5	1
15	531	7	10000	5	1	0	5	1
17	532	7	10000	5	1	0	5	1
17	534	7	10000	5	1	0	5	1
18	535	7	10000	5	1	0	5	1
17	536	7	10000	5	1	0	5	1
17	537	7	10000	5	1	0	5	1
17	538	7	10000	5	1	0	5	1
17	539	7	10000	5	1	0	5	1
17	540	7	10000	5	1	0	5	1
16	541	7	10000	5	1	0	5	1
17	541	7	10000	5	1	0	5	1
17	542	7	10000	5	1	0	5	1
15	544	7	10000	5	1	0	5	1
16	545	7	10000	5	1	0	5	1
20	546	7	10000	5	1	0	5	1
19	547	7	10000	5	1	0	5	1
18	548	7	10000	5	1	0	5	1
18	549	7	10000	5	1	0	5	1
17	550	7	10000	5	1	0	5	1
17	551	7	10000	5	1	0	5	1
16	551	7	10000	5	1	0	5	0
16	552	7	10000	5	1	0	5	0
17	554	7	10000	5	1	0	5	0
17	555	7	10000	5	1	0	5	0
16	556	7	10000	5	1	0	5	0
15	557	7	10000	5	1	0	5	0
15	558	7	10000	5	1	0	5	0
16	559	7	10000	5	1	0	5	0
16	560	7	10000	5	1	0	5	0
14	561	7	10000	5	1	0	5	0
15	561	7	10000	5	1	0	5	0
14	562	7	10000	5	1	0	5	0
13	564	7	10000	5	1	0	5	0
13	565	7	10000	5	1	0	5	0
14	566	7	10000	5	1	0	5	0
14	567	7	10000	5	1	0	5	0
15	568	7	10000	5	1	0	5	0
16	569	7	10000	5	1	0	5	0
15	570	7	10000	5	1	0	5	0
15	571	7	10000	5	1	0	5	0
16	571	7	10000	5	1	0	5	0
16	572	7	10000	5	1	0	5	0
16	574	7	10000	5	1	0	5	0
15	575	7	10000	5	1	0	5	0
16	576	7	10000	5	1	0	5	0
17	577	7	10000	5	1	0	5	0
19	578	7	10000	5	1	0	5	0
20	579	7	10000	5	1	0	5	0
19	580	7	10000	5	1	0	5	0
20	581	7	10000	5	1	0	5	0
20	581	7	10000	5	1	0	5	0
19	582	7	10000	5	1	0	5	0
19	584	7	10000	5	1	0	5	0
22	585	7	10000	5	1	0	5	0
28	586	7	10000	5	1	0	5	0
32	587	7	10000	5	1	0	5	0
33	588	7	10000	5	1	0	5	0
46	589	7	10000	5	1	0	5	0
62	590	7	10000	5	1	0	5	0
65	591	7	10000	5	1	0	5	0
64	591	7	10000	5	1	0	5	0
66	592	7	10000	5	1	0	5	0
74	594	7	10000	5	1	0	5	0
85	595	7	10000	5	1	0	5	0
91	596	7	10000	5	1	0	5	0
88	597	7	10000	5	1	0	5	0
88	598	7	10000	5	1	0	5	0
90	599	7	10000	5	1	0	5	0
88	600	7	10000	5	1	0	5	0
91	601	7	10000	5	1	0	5	0
97	601	7	10000	5	1	0	5	0
104	602	7	10000	5	1	0	5	0
107	604	7	10000	5	1	0	5	0
108	605	7	10000	5	1	0	5	0
106	606	7	10000	5	1	0	5	0
104	607	7	10000	5	1	0	5	0
102	608	7	10000	5	1	0	5	0
98	609	7	10000	5	1	0	5	0
94	610	7	10000	5	1	0	5	0
91	611	7	10000	5	1	0	5	0
87	611	7	10000	5	1	0	5	0
84	612	7	10000	5	1	0	5	0
81	614	7	10000	5	1	0	5	0
80	615	7	10000	5	1	0	5	0
82	616	7	10000	5	1	0	5	0
93	617	7	10000	5	1	0	5	0
100	618	7	10000	5	1	0	5	0
100	619	7	10000	5	1	0	5	0
117	620	7	10000	5	1	0	5	0
123	621	7	10000	5	1	0	5	0
138	621	7	10000	5	1	0	5	0
157	622	7	10000	5	1	0	5	0
164	624	7	10000	5	1	0	5	0
161	625	7	10000	5	1	0	5	0
162	626	7	10000	5	1	0	5	0
165	627	7	10000	5	1	0	5	0
164	628	7	10000	5	1	0	5	0
157	629	7	10000	5	1	0	5	0
152	630	7	10000	5	1	0	5	0
153	631	7	10000	5	1	0	5	0
150	631	7	10000	5	1	0	5	0
146	632	7	10000	5	1	0	5	0
142	634	7	10000	5	1	0	5	0
139	635	7	10000	5	1	0	5	0
131	636	7	10000	5	1	0	5	0
126	637	7	10000	5	1	0	5	0
121	638	7	10000	5	1	0	5	0
115	639	7	10000	5	1	0	5	0
110	640	7	10000	5	1	0	5	0
106	641	7	10000	5	1	0	5	0
103	641	7	10000	5	1	0	5	0
100	642	7	10000	5	1	0	5	0
96	644	7	10000	5	1	0	5	0
93	645	7	10000	5	1	0	5	0
93	646	7	10000	5	1	0	5	0
92	647	7	10000	5	1	0	5	0
91	648	7	10000	5	1	0	5	0
88	649	7	10000	5	1	0	5	0
85	650	7	10000	5	1	0	5	0
81	651	7	10000	5	1	0	5	0
78	651	7	10000	5	1	0	5	0
78	652	7	10000	5	1	0	5	0
79	654	7	10000	5	1	0	5	0
78	655	7	10000	5	1	0	5	0
76	656	7	10000	5	1	0	5	0
76	657	7	10000	5	1	0	5	0
77	658	7	10000	5	1	0	5	0
79	659	7	10000	5	1	0	5	0
79	660	7	10000	5	1	0	5	0
76	661	7	10000	5	1	0	5	0
74	661	7	10000	5	1	0	5	0
71	662	7	10000	5	1	0	5	0
70	664	7	10000	5	1	0	5	0
68	665	7	10000	5	1	0	5	0
68	666	7	10000	5	1	0	5	0
68	667	7	10000	5	1	0	5	0
65	668	7	10000	5	1	0	5	0
64	669	7	10000	5	1	0	5	0
65	670	7	10000	5	1	0	5	0
67	671	7	10000	5	1	0	5	0
70	671	7	10000	5	1	0	5	0
71	672	7	10000	5	1	0	5	0
72	674	7	10000	5	1	0	5	0
70	675	7	10000	5	1	0	5	0
67	676	7	10000	5	1	0	5	0
66	677	7	10000	5	1	0	5	0
64	678	7	10000	5	1	0	5	0
63	679	7	10000	5	1	0	5	0
62	680	7	10000	5	1	0	5	0
59	681	7	10000	5	1	0	5	0
57	681	7	10000	5	1	0	5	0
54	682	7	10000	5	1	0	5	0
52	684	7	10000	5	1	0	5	0
50	685	7	10000	5	1	0	5	0
50	686	7	10000	5	1	0	5	0
51	687	7	10000	5	1	0	5	0
51	688	7	10000	5	1	0	5	0
52	689	7	10000	5	1	0	5	0
52	690	7	10000	5	1	0	5	0
50	691	7	10000	5	1	0	5	0
47	691	7	10000	5	1	0	5	0
46	692	7	10000	5	1	0	5	0
44	694	7	10000	5	1	0	5	0
44	695	7	10000	5	1	0	5	0
42	696	7	10000	5	1	0	5	0
40	697	7	10000	5	1	0	5	0
39	698	7	10000	5	1	0	5	0
38	699	7	10000	5	1	0	5	0
38	700	7	10000	5	1	0	5	0
37	701	7	10000	5	1	0	5	0
37	701	7	10000	5	1	0	5	0
37	702	7	10000	5	1	0	5	0
36	704	7	10000	5	1	0	5	0
35	705	7	10000	5	1	0	5	0
36	706	7	10000	5	1	0	5	0
35	707	7	10000	5	1	0	5	0
33	708	7	10000	5	1	0	5	0
33	709	7	10000	5	1	0	5	0
32	710	7	10000	5	1	0	5	0
32	711	7	10000	5	1	0	5	0
33	711	7	10000	5	1	0	5	0
35	712	7	10000	5	1	0	5	0
35	714	7	10000	5	1	0	5	0
36	715	7	10000	5	1	0	5	0
34	716	7	10000	5	1	0	5	0
32	717	7	10000	5	1	0	5	0
32	718	7	10000	5	1	0	5	0
32	719	7	10000	5	1	0	5	0
31	720	7	10000	5	1	0	5	0
30	721	7	10000	5	1	0	5	0
30	721	7	10000	5	1	0	5	0
29	722	7	10000	5	1	0	5	0
29	724	7	10000	5	1	0	5	0
28	725	7	10000	5	1	0	5	0
29	726	7	10000	5	1	0	5	0
28	727	7	10000	5	1	0	5	0
27	728	7	10000	5	1	0	5	0
26	729	7	10000	5	1	0	5	0
26	730	7	10000	5	1	0	5	0
26	731	7	10000	5	1	0	5	0
26	731	7	10000	5	1	0	5	0
26	732	7	10000	5	1	0	5	0
26	734	7	10000	5	1	0	5	0
25	735	7	10000	5	1	0	5	0
23	736	7	10000	5	1	0	5	0
22	737	7	10000	5	1	0	5	0
22	738	7	10000	5	1	0	5	0
23	739	7	10000	5	1	0	5	0
23	740	7	10000	5	1	0	5	0
22	741	7	10000	5	1	0	5	0
22	741	7	10000	5	1	0	5	0
22	742	7	10000	5	1	0	5	0
23	744	7	10000	5	1	0	5	0
22	745	7	10000	5	1	0	5	0
23	746	7	10000	5	1	0	5	0
23	747	7	10000	5	1	0	5	0
22	748	7	10000	5	1	0	5	0
21	749	7	10000	5	1	0	5	0
20	750	7	10000	5	1	0	5	0
20	751	7	10000	5	1	0	5	0
20	751	7	10000	5	1	0	5	0
19	752	7	10000	5	1	0	5	0
18	754	7	10000	5	1	0	5	0
18	755	7	10000	5	1	0	5	0
17	756	7	10000	5	1	0	5	0
17	757	7	10000	5	1	0	5	0
17	758	7	10000	5	1	0	5	0
16	759	7	10000	5	1	0	5	0
16	760	7	10000	5	1	0	5	0
15	761	7	10000	5	1	0	5	0
15	761	7	10000	5	1	0	5	0
17	762	7	10000	5	1	0	5	0
19	764	7	10000	5	1	0	5	0
21	765	7	10000	5	1	0	5	0
23	766	7	10000	5	1	0	5	0
24	767	7	10000	5	1	0	5	0
23	768	7	10000	5	1	0	5	0
23	769	7	10000	5	1	0	5	0
22	770	7	10000	5	1	0	5	0
22	771	7	10000	5	1	0	5	0
22	771	7	10000	5	1	0	5	0
23	772	7	10000	5	1	0	5	0
23	774	7	10000	5	1	0	5	0
23	775	7	10000	5	1	0	5	0
21	776	7	10000	5	1	0	5	0
20	777	7	10000	5	1	0	5	0
21	778	7	10000	5	1	0	5	0
21	779	7	10000	5	1	0	5	0
20	780	7	10000	5	1	0	5	0
19	781	7	10000	5	1	0	5	0
20	781	7	10000	5	1	0	5	0
19	782	7	10000	5	1	0	5	0
19	784	7	10000	5	1	0	5	0
18	785	7	10000	5	1	0	5	0
20	786	7	10000	5	1	0	5	0
21	787	7	10000	5	1	0	5	0
22	788	7	10000	5	1	0	5	0
23	789	7	10000	5	1	0	5	0
25	790	7	10000	5	1	0	5	0
25	791	7	10000	5	1	0	5	0
25	791	7	10000	5	1	0	5	0
26	792	7	10000	5	1	0	5	0
27	794	7	10000	5	1	0	5	0
26	795	7	10000	5	1	0	5	0
25	796	7	10000	5	1	0	5	0
23	797	7	10000	5	1	0	5	0
