value	EMG	Stimulus	EMG_sensitivity	Total_Trial_Nr	practise	acq	probe_nr	Startle_Probe
26	2	10	10000	1	1	0	1	0
24	3	10	10000	1	1	0	1	0
24	4	10	10000	1	1	0	1	0
24	5	10	10000	1	1	0	1	0
23	6	10	10000	1	1	0	1	0
23	7	10	10000	1	1	0	1	0
23	8	10	10000	1	1	0	1	0
22	9	10	10000	1	1	0	1	0
23	10	10	10000	1	1	0	1	0
24	11	10	10000	1	1	0	1	0
23	12	10	10000	1	1	0	1	0
23	13	10	10000	1	1	0	1	0
22	14	10	10000	1	1	0	1	0
22	15	10	10000	1	1	0	1	0
23	16	10	10000	1	1	0	1	0
24	17	10	10000	1	1	0	1	0
23	18	10	10000	1	1	0	1	0
23	19	10	10000	1	1	0	1	0
22	20	10	10000	1	1	0	1	0
23	21	10	10000	1	1	0	1	0
23	21	10	10000	1	1	0	1	0
23	22	10	10000	1	1	0	1	0
23	24	10	10000	1	1	0	1	0
23	25	10	10000	1	1	0	1	0
22	26	10	10000	1	1	0	1	0
22	27	10	10000	1	1	0	1	0
21	28	10	10000	1	1	0	1	0
20	29	10	10000	1	1	0	1	0
21	30	10	10000	1	1	0	1	0
21	31	10	10000	1	1	0	1	0
20	31	10	10000	1	1	0	1	0
19	32	10	10000	1	1	0	1	0
20	34	10	10000	1	1	0	1	0
20	35	10	10000	1	1	0	1	0
19	36	10	10000	1	1	0	1	0
21	37	10	10000	1	1	0	1	0
21	38	10	10000	1	1	0	1	0
22	39	10	10000	1	1	0	1	0
21	40	10	10000	1	1	0	1	0
19	41	10	10000	1	1	0	1	0
18	41	10	10000	1	1	0	1	0
18	42	10	10000	1	1	0	1	0
19	44	10	10000	1	1	0	1	0
18	45	10	10000	1	1	0	1	0
20	46	10	10000	1	1	0	1	0
21	47	10	10000	1	1	0	1	0
22	48	10	10000	1	1	0	1	0
22	49	10	10000	1	1	0	1	0
23	50	10	10000	1	1	0	1	0
24	51	10	10000	1	1	0	1	0
25	51	10	10000	1	1	0	1	0
26	52	10	10000	1	1	0	1	0
27	54	10	10000	1	1	0	1	0
27	55	10	10000	1	1	0	1	0
26	56	10	10000	1	1	0	1	0
25	57	10	10000	1	1	0	1	0
26	58	10	10000	1	1	0	1	0
27	59	10	10000	1	1	0	1	0
24	60	10	10000	1	1	0	1	0
24	61	10	10000	1	1	0	1	0
25	61	10	10000	1	1	0	1	0
25	62	10	10000	1	1	0	1	0
25	64	10	10000	1	1	0	1	0
24	65	10	10000	1	1	0	1	0
24	66	10	10000	1	1	0	1	0
22	67	10	10000	1	1	0	1	0
21	68	10	10000	1	1	0	1	0
22	69	10	10000	1	1	0	1	0
23	70	10	10000	1	1	0	1	0
24	71	10	10000	1	1	0	1	0
23	71	10	10000	1	1	0	1	0
21	72	10	10000	1	1	0	1	0
21	74	10	10000	1	1	0	1	0
21	75	10	10000	1	1	0	1	0
22	76	10	10000	1	1	0	1	0
22	77	10	10000	1	1	0	1	0
22	78	10	10000	1	1	0	1	0
22	79	10	10000	1	1	0	1	0
20	80	10	10000	1	1	0	1	0
20	81	10	10000	1	1	0	1	0
19	81	10	10000	1	1	0	1	0
18	82	10	10000	1	1	0	1	0
19	84	10	10000	1	1	0	1	0
20	85	10	10000	1	1	0	1	0
21	86	10	10000	1	1	0	1	0
24	87	10	10000	1	1	0	1	0
25	88	10	10000	1	1	0	1	0
27	89	10	10000	1	1	0	1	0
29	90	10	10000	1	1	0	1	0
30	91	10	10000	1	1	0	1	0
31	91	10	10000	1	1	0	1	0
31	92	10	10000	1	1	0	1	0
30	94	10	10000	1	1	0	1	0
30	95	10	10000	1	1	0	1	0
30	96	10	10000	1	1	0	1	0
32	97	10	10000	1	1	0	1	0
38	98	10	10000	1	1	0	1	0
44	99	10	10000	1	1	0	1	0
51	100	10	10000	1	1	0	1	0
57	101	10	10000	1	1	0	1	0
62	101	10	10000	1	1	0	1	0
66	102	10	10000	1	1	0	1	0
71	104	10	10000	1	1	0	1	0
75	105	10	10000	1	1	0	1	0
78	106	10	10000	1	1	0	1	0
81	107	10	10000	1	1	0	1	0
87	108	10	10000	1	1	0	1	0
90	109	10	10000	1	1	0	1	0
91	110	10	10000	1	1	0	1	0
91	111	10	10000	1	1	0	1	0
91	111	10	10000	1	1	0	1	0
92	112	10	10000	1	1	0	1	0
94	114	10	10000	1	1	0	1	0
99	115	10	10000	1	1	0	1	0
105	116	10	10000	1	1	0	1	0
107	117	10	10000	1	1	0	1	0
106	118	10	10000	1	1	0	1	0
104	119	10	10000	1	1	0	1	0
100	120	10	10000	1	1	0	1	0
98	121	10	10000	1	1	0	1	0
97	121	10	10000	1	1	0	1	0
95	122	10	10000	1	1	0	1	0
95	124	10	10000	1	1	0	1	0
93	125	10	10000	1	1	0	1	0
90	126	10	10000	1	1	0	1	0
87	127	10	10000	1	1	0	1	0
85	128	10	10000	1	1	0	1	0
85	129	10	10000	1	1	0	1	0
87	130	10	10000	1	1	0	1	0
86	131	10	10000	1	1	0	1	0
85	131	10	10000	1	1	0	1	0
85	132	10	10000	1	1	0	1	0
83	134	10	10000	1	1	0	1	0
84	135	10	10000	1	1	0	1	0
85	136	10	10000	1	1	0	1	0
88	137	10	10000	1	1	0	1	0
92	138	10	10000	1	1	0	1	0
96	139	10	10000	1	1	0	1	0
98	140	10	10000	1	1	0	1	0
100	141	10	10000	1	1	0	1	0
103	141	10	10000	1	1	0	1	0
105	142	10	10000	1	1	0	1	0
107	144	10	10000	1	1	0	1	0
111	145	10	10000	1	1	0	1	0
115	146	10	10000	1	1	0	1	0
117	147	10	10000	1	1	0	1	0
119	148	10	10000	1	1	0	1	0
118	149	10	10000	1	1	0	1	0
120	150	10	10000	1	1	0	1	0
121	151	10	10000	1	1	0	1	0
117	151	10	10000	1	1	0	1	0
113	152	10	10000	1	1	0	1	0
110	154	10	10000	1	1	0	1	0
110	155	10	10000	1	1	0	1	0
112	156	10	10000	1	1	0	1	0
114	157	10	10000	1	1	0	1	0
116	158	10	10000	1	1	0	1	0
118	159	10	10000	1	1	0	1	0
118	160	10	10000	1	1	0	1	0
118	161	10	10000	1	1	0	1	0
120	161	10	10000	1	1	0	1	0
119	162	10	10000	1	1	0	1	0
119	164	10	10000	1	1	0	1	0
120	165	10	10000	1	1	0	1	0
118	166	10	10000	1	1	0	1	0
117	167	10	10000	1	1	0	1	0
115	168	10	10000	1	1	0	1	0
112	169	10	10000	1	1	0	1	0
111	170	10	10000	1	1	0	1	0
109	171	10	10000	1	1	0	1	0
107	171	10	10000	1	1	0	1	0
105	172	10	10000	1	1	0	1	0
103	174	10	10000	1	1	0	1	0
103	175	10	10000	1	1	0	1	0
102	176	10	10000	1	1	0	1	0
102	177	10	10000	1	1	0	1	0
101	178	10	10000	1	1	0	1	0
97	179	10	10000	1	1	0	1	0
92	180	10	10000	1	1	0	1	0
88	181	10	10000	1	1	0	1	0
85	181	10	10000	1	1	0	1	0
82	182	10	10000	1	1	0	1	0
79	184	10	10000	1	1	0	1	0
77	185	10	10000	1	1	0	1	0
75	186	10	10000	1	1	0	1	0
73	187	10	10000	1	1	0	1	0
73	188	10	10000	1	1	0	1	0
72	189	10	10000	1	1	0	1	0
75	190	10	10000	1	1	0	1	0
75	191	10	10000	1	1	0	1	0
72	191	10	10000	1	1	0	1	0
73	192	10	10000	1	1	0	1	0
76	194	10	10000	1	1	0	1	0
76	195	10	10000	1	1	0	1	0
76	196	10	10000	1	1	0	1	0
76	197	10	10000	1	1	0	1	0
74	198	10	10000	1	1	0	1	0
72	199	10	10000	1	1	0	1	0
69	200	10	10000	1	1	0	1	0
68	201	10	10000	1	1	0	1	0
68	201	10	10000	1	1	0	1	0
67	202	10	10000	1	1	0	1	0
64	204	10	10000	1	1	0	1	0
64	205	10	10000	1	1	0	1	0
65	206	10	10000	1	1	0	1	0
65	207	10	10000	1	1	0	1	0
65	208	10	10000	1	1	0	1	0
63	209	10	10000	1	1	0	1	0
62	210	10	10000	1	1	0	1	0
60	211	10	10000	1	1	0	1	0
58	211	10	10000	1	1	0	1	0
56	212	10	10000	1	1	0	1	0
55	214	10	10000	1	1	0	1	0
54	215	10	10000	1	1	0	1	0
52	216	10	10000	1	1	0	1	0
52	217	10	10000	1	1	0	1	0
52	218	10	10000	1	1	0	1	0
50	219	10	10000	1	1	0	1	0
49	220	10	10000	1	1	0	1	0
48	221	10	10000	1	1	0	1	0
47	221	10	10000	1	1	0	1	0
46	222	10	10000	1	1	0	1	0
45	224	10	10000	1	1	0	1	0
45	225	10	10000	1	1	0	1	0
47	226	10	10000	1	1	0	1	0
49	227	10	10000	1	1	0	1	0
52	228	10	10000	1	1	0	1	0
52	229	10	10000	1	1	0	1	0
51	230	10	10000	1	1	0	1	0
50	231	10	10000	1	1	0	1	0
49	231	10	10000	1	1	0	1	0
47	232	10	10000	1	1	0	1	0
46	234	10	10000	1	1	0	1	0
44	235	10	10000	1	1	0	1	0
44	236	10	10000	1	1	0	1	0
43	237	10	10000	1	1	0	1	0
45	238	10	10000	1	1	0	1	0
49	239	10	10000	1	1	0	1	0
48	240	10	10000	1	1	0	1	0
46	241	10	10000	1	1	0	1	0
44	241	10	10000	1	1	0	1	0
44	242	10	10000	1	1	0	1	0
42	244	10	10000	1	1	0	1	0
41	245	10	10000	1	1	0	1	0
39	246	10	10000	1	1	0	1	0
39	247	10	10000	1	1	0	1	0
38	248	10	10000	1	1	0	1	0
37	249	10	10000	1	1	0	1	0
37	250	10	10000	1	1	0	1	0
37	251	10	10000	1	1	0	1	0
38	251	10	10000	1	1	0	1	0
38	252	10	10000	1	1	0	1	0
37	254	10	10000	1	1	0	1	0
35	255	10	10000	1	1	0	1	0
34	256	10	10000	1	1	0	1	0
34	257	10	10000	1	1	0	1	0
34	258	10	10000	1	1	0	1	0
32	259	10	10000	1	1	0	1	0
31	260	10	10000	1	1	0	1	0
30	261	10	10000	1	1	0	1	0
28	261	10	10000	1	1	0	1	0
28	262	10	10000	1	1	0	1	0
29	264	10	10000	1	1	0	1	0
30	265	10	10000	1	1	0	1	0
29	266	10	10000	1	1	0	1	0
30	267	10	10000	1	1	0	1	0
31	268	10	10000	1	1	0	1	0
31	269	10	10000	1	1	0	1	0
31	270	10	10000	1	1	0	1	0
31	271	10	10000	1	1	0	1	0
30	271	10	10000	1	1	0	1	0
30	272	10	10000	1	1	0	1	0
28	274	10	10000	1	1	0	1	0
27	275	10	10000	1	1	0	1	0
26	276	10	10000	1	1	0	1	0
26	277	10	10000	1	1	0	1	0
28	278	10	10000	1	1	0	1	0
30	279	10	10000	1	1	0	1	0
27	280	10	10000	1	1	0	1	0
26	281	10	10000	1	1	0	1	0
26	281	10	10000	1	1	0	1	0
26	282	10	10000	1	1	0	1	0
26	284	10	10000	1	1	0	1	0
25	285	10	10000	1	1	0	1	0
25	286	10	10000	1	1	0	1	0
25	287	10	10000	1	1	0	1	0
25	288	10	10000	1	1	0	1	0
24	289	10	10000	1	1	0	1	0
25	290	10	10000	1	1	0	1	0
25	291	10	10000	1	1	0	1	0
24	291	10	10000	1	1	0	1	0
24	292	10	10000	1	1	0	1	0
25	294	10	10000	1	1	0	1	0
24	295	10	10000	1	1	0	1	0
25	296	10	10000	1	1	0	1	0
26	297	10	10000	1	1	0	1	0
28	298	10	10000	1	1	0	1	0
30	299	10	10000	1	1	0	1	0
29	300	10	10000	1	1	0	1	0
29	301	10	10000	1	1	0	1	0
29	301	10	10000	1	1	0	1	0
28	302	10	10000	1	1	0	1	0
27	304	10	10000	1	1	0	1	0
28	305	10	10000	1	1	0	1	0
28	306	10	10000	1	1	0	1	0
27	307	10	10000	1	1	0	1	0
28	308	10	10000	1	1	0	1	0
27	309	10	10000	1	1	0	1	0
27	310	10	10000	1	1	0	1	0
27	311	10	10000	1	1	0	1	0
26	311	10	10000	1	1	0	1	0
26	312	10	10000	1	1	0	1	0
30	314	10	10000	1	1	0	1	0
34	315	10	10000	1	1	0	1	0
34	316	10	10000	1	1	0	1	0
35	317	10	10000	1	1	0	1	0
38	318	10	10000	1	1	0	1	0
40	319	10	10000	1	1	0	1	0
38	320	10	10000	1	1	0	1	0
38	321	10	10000	1	1	0	1	0
42	321	10	10000	1	1	0	1	0
44	322	10	10000	1	1	0	1	0
46	324	10	10000	1	1	0	1	0
48	325	10	10000	1	1	0	1	0
50	326	10	10000	1	1	0	1	0
49	327	10	10000	1	1	0	1	0
47	328	10	10000	1	1	0	1	0
45	329	10	10000	1	1	0	1	0
45	330	10	10000	1	1	0	1	0
45	331	10	10000	1	1	0	1	0
47	331	10	10000	1	1	0	1	0
49	332	10	10000	1	1	0	1	0
50	334	10	10000	1	1	0	1	0
54	335	10	10000	1	1	0	1	0
55	336	10	10000	1	1	0	1	0
54	337	10	10000	1	1	0	1	0
57	338	10	10000	1	1	0	1	0
59	339	10	10000	1	1	0	1	0
59	340	10	10000	1	1	0	1	0
58	341	10	10000	1	1	0	1	0
56	341	10	10000	1	1	0	1	0
57	342	10	10000	1	1	0	1	0
57	344	10	10000	1	1	0	1	0
56	345	10	10000	1	1	0	1	0
56	346	10	10000	1	1	0	1	0
54	347	10	10000	1	1	0	1	0
52	348	10	10000	1	1	0	1	0
51	349	10	10000	1	1	0	1	0
51	350	10	10000	1	1	0	1	0
49	351	10	10000	1	1	0	1	0
48	351	10	10000	1	1	0	1	0
47	352	10	10000	1	1	0	1	0
47	354	10	10000	1	1	0	1	0
45	355	10	10000	1	1	0	1	0
43	356	10	10000	1	1	0	1	0
43	357	10	10000	1	1	0	1	0
43	358	10	10000	1	1	0	1	0
48	359	10	10000	1	1	0	1	0
53	360	10	10000	1	1	0	1	0
53	361	10	10000	1	1	0	1	0
52	361	10	10000	1	1	0	1	0
53	362	10	10000	1	1	0	1	0
55	364	10	10000	1	1	0	1	0
58	365	10	10000	1	1	0	1	0
59	366	10	10000	1	1	0	1	0
57	367	10	10000	1	1	0	1	0
55	368	10	10000	1	1	0	1	0
53	369	10	10000	1	1	0	1	0
54	370	10	10000	1	1	0	1	0
52	371	10	10000	1	1	0	1	0
49	371	10	10000	1	1	0	1	0
48	372	10	10000	1	1	0	1	0
46	374	10	10000	1	1	0	1	0
44	375	10	10000	1	1	0	1	0
44	376	10	10000	1	1	0	1	0
43	377	10	10000	1	1	0	1	0
42	378	10	10000	1	1	0	1	0
42	379	10	10000	1	1	0	1	0
40	380	10	10000	1	1	0	1	0
38	381	10	10000	1	1	0	1	0
45	381	10	10000	1	1	0	1	0
55	382	10	10000	1	1	0	1	0
57	384	10	10000	1	1	0	1	0
58	385	10	10000	1	1	0	1	0
65	386	10	10000	1	1	0	1	0
67	387	10	10000	1	1	0	1	0
68	388	10	10000	1	1	0	1	0
70	389	10	10000	1	1	0	1	0
71	390	10	10000	1	1	0	1	0
68	391	10	10000	1	1	0	1	0
66	391	10	10000	1	1	0	1	0
64	392	10	10000	1	1	0	1	0
64	394	10	10000	1	1	0	1	0
63	395	10	10000	1	1	0	1	0
60	396	10	10000	1	1	0	1	0
58	397	10	10000	1	1	0	1	0
58	398	10	10000	1	1	0	1	0
58	399	10	10000	1	1	0	1	0
56	400	10	10000	1	1	0	1	0
55	401	10	10000	1	1	0	1	0
56	401	10	10000	1	1	0	1	0
55	402	10	10000	1	1	0	1	0
54	404	10	10000	1	1	0	1	0
53	405	10	10000	1	1	0	1	0
56	406	10	10000	1	1	0	1	0
58	407	10	10000	1	1	0	1	0
56	408	10	10000	1	1	0	1	0
54	409	10	10000	1	1	0	1	0
53	410	10	10000	1	1	0	1	0
53	411	10	10000	1	1	0	1	0
52	411	10	10000	1	1	0	1	0
51	412	10	10000	1	1	0	1	0
49	414	10	10000	1	1	0	1	0
47	415	10	10000	1	1	0	1	0
45	416	10	10000	1	1	0	1	0
48	417	10	10000	1	1	0	1	0
53	418	10	10000	1	1	0	1	0
54	419	10	10000	1	1	0	1	0
56	420	10	10000	1	1	0	1	0
55	421	10	10000	1	1	0	1	0
55	421	10	10000	1	1	0	1	0
59	422	10	10000	1	1	0	1	0
60	424	10	10000	1	1	0	1	0
62	425	10	10000	1	1	0	1	0
64	426	10	10000	1	1	0	1	0
63	427	10	10000	1	1	0	1	0
63	428	10	10000	1	1	0	1	0
60	429	10	10000	1	1	0	1	0
59	430	10	10000	1	1	0	1	0
59	431	10	10000	1	1	0	1	0
58	431	10	10000	1	1	0	1	0
56	432	10	10000	1	1	0	1	0
54	434	10	10000	1	1	0	1	0
55	435	10	10000	1	1	0	1	0
61	436	10	10000	1	1	0	1	0
68	437	10	10000	1	1	0	1	0
69	438	10	10000	1	1	0	1	0
68	439	10	10000	1	1	0	1	0
71	440	10	10000	1	1	0	1	0
76	441	10	10000	1	1	0	1	0
81	441	10	10000	1	1	0	1	0
81	442	10	10000	1	1	0	1	0
80	444	10	10000	1	1	0	1	0
81	445	10	10000	1	1	0	1	0
83	446	10	10000	1	1	0	1	0
82	447	10	10000	1	1	0	1	0
79	448	10	10000	1	1	0	1	0
79	449	10	10000	1	1	0	1	0
81	450	10	10000	1	1	0	1	0
83	451	10	10000	1	1	0	1	0
83	451	10	10000	1	1	0	1	0
80	452	10	10000	1	1	0	1	0
80	454	10	10000	1	1	0	1	0
80	455	10	10000	1	1	0	1	0
79	456	10	10000	1	1	0	1	0
78	457	10	10000	1	1	0	1	0
77	458	10	10000	1	1	0	1	0
76	459	10	10000	1	1	0	1	0
74	460	10	10000	1	1	0	1	0
79	461	10	10000	1	1	0	1	0
87	461	10	10000	1	1	0	1	0
94	462	10	10000	1	1	0	1	0
100	464	10	10000	1	1	0	1	0
104	465	10	10000	1	1	0	1	0
104	466	10	10000	1	1	0	1	0
100	467	10	10000	1	1	0	1	0
96	468	10	10000	1	1	0	1	0
92	469	10	10000	1	1	0	1	0
92	470	10	10000	1	1	0	1	0
93	471	10	10000	1	1	0	1	0
90	471	10	10000	1	1	0	1	0
88	472	10	10000	1	1	0	1	0
85	474	10	10000	1	1	0	1	0
81	475	10	10000	1	1	0	1	0
79	476	10	10000	1	1	0	1	0
79	477	10	10000	1	1	0	1	0
84	478	10	10000	1	1	0	1	0
90	479	10	10000	1	1	0	1	0
92	480	10	10000	1	1	0	1	0
93	481	10	10000	1	1	0	1	0
96	481	10	10000	1	1	0	1	0
96	482	10	10000	1	1	0	1	0
100	484	10	10000	1	1	0	1	0
108	485	10	10000	1	1	0	1	0
117	486	10	10000	1	1	0	1	0
120	487	10	10000	1	1	0	1	0
117	488	10	10000	1	1	0	1	0
118	489	10	10000	1	1	0	1	0
122	490	10	10000	1	1	0	1	0
122	491	10	10000	1	1	0	1	0
116	491	10	10000	1	1	0	1	0
112	492	10	10000	1	1	0	1	0
108	494	10	10000	1	1	0	1	0
105	495	10	10000	1	1	0	1	0
101	496	10	10000	1	1	0	1	0
97	497	10	10000	1	1	0	1	0
92	498	10	10000	1	1	0	1	0
90	499	10	10000	1	1	0	1	0
85	500	10	10000	1	1	0	1	0
84	501	10	10000	1	1	0	1	0
84	558	10	10000	1	1	0	1	1
82	559	10	10000	1	1	0	1	1
81	560	10	10000	1	1	0	1	1
79	561	10	10000	1	1	0	1	1
77	562	10	10000	1	1	0	1	1
75	563	10	10000	1	1	0	1	1
73	564	10	10000	1	1	0	1	1
69	565	10	10000	1	1	0	1	1
69	566	10	10000	1	1	0	1	1
72	567	10	10000	1	1	0	1	1
75	568	10	10000	1	1	0	1	1
80	569	10	10000	1	1	0	1	1
86	570	10	10000	1	1	0	1	1
91	571	10	10000	1	1	0	1	1
92	572	10	10000	1	1	0	1	1
92	573	10	10000	1	1	0	1	1
90	574	10	10000	1	1	0	1	1
88	575	10	10000	1	1	0	1	1
83	576	10	10000	1	1	0	1	1
79	577	10	10000	1	1	0	1	1
76	578	10	10000	1	1	0	1	1
76	579	10	10000	1	1	0	1	1
77	580	10	10000	1	1	0	1	1
75	581	10	10000	1	1	0	1	1
77	582	10	10000	1	1	0	1	1
83	583	10	10000	1	1	0	1	1
88	584	10	10000	1	1	0	1	1
90	585	10	10000	1	1	0	1	1
92	586	10	10000	1	1	0	1	1
91	587	10	10000	1	1	0	1	1
87	588	10	10000	1	1	0	1	1
84	589	10	10000	1	1	0	1	1
83	590	10	10000	1	1	0	1	1
90	591	10	10000	1	1	0	1	1
99	592	10	10000	1	1	0	1	1
105	593	10	10000	1	1	0	1	1
109	594	10	10000	1	1	0	1	1
110	595	10	10000	1	1	0	1	1
107	596	10	10000	1	1	0	1	1
102	597	10	10000	1	1	0	1	1
99	598	10	10000	1	1	0	1	1
101	599	10	10000	1	1	0	1	1
99	600	10	10000	1	1	0	1	1
99	601	10	10000	1	1	0	1	1
97	602	10	10000	1	1	0	1	1
94	603	10	10000	1	1	0	1	1
95	604	10	10000	1	1	0	1	1
95	605	10	10000	1	1	0	1	1
93	606	10	10000	1	1	0	1	1
92	607	10	10000	1	1	0	1	1
92	608	10	10000	1	1	0	1	1
90	609	10	10000	1	1	0	1	1
87	610	10	10000	1	1	0	1	1
84	611	10	10000	1	1	0	1	1
81	612	10	10000	1	1	0	1	1
82	613	10	10000	1	1	0	1	1
87	614	10	10000	1	1	0	1	1
86	615	10	10000	1	1	0	1	1
83	567	10	10000	1	1	0	1	0
82	568	10	10000	1	1	0	1	0
84	569	10	10000	1	1	0	1	0
85	570	10	10000	1	1	0	1	0
87	571	10	10000	1	1	0	1	0
88	572	10	10000	1	1	0	1	0
90	573	10	10000	1	1	0	1	0
92	574	10	10000	1	1	0	1	0
91	575	10	10000	1	1	0	1	0
87	576	10	10000	1	1	0	1	0
84	570	10	10000	1	1	0	1	0
81	571	10	10000	1	1	0	1	0
80	572	10	10000	1	1	0	1	0
77	573	10	10000	1	1	0	1	0
75	574	10	10000	1	1	0	1	0
74	575	10	10000	1	1	0	1	0
71	576	10	10000	1	1	0	1	0
71	577	10	10000	1	1	0	1	0
73	578	10	10000	1	1	0	1	0
73	579	10	10000	1	1	0	1	0
70	580	10	10000	1	1	0	1	0
70	581	10	10000	1	1	0	1	0
73	582	10	10000	1	1	0	1	0
79	583	10	10000	1	1	0	1	0
80	584	10	10000	1	1	0	1	0
79	585	10	10000	1	1	0	1	0
84	586	10	10000	1	1	0	1	0
90	587	10	10000	1	1	0	1	0
92	588	10	10000	1	1	0	1	0
92	589	10	10000	1	1	0	1	0
91	590	10	10000	1	1	0	1	0
89	591	10	10000	1	1	0	1	0
88	591	10	10000	1	1	0	1	0
90	592	10	10000	1	1	0	1	0
87	594	10	10000	1	1	0	1	0
92	595	10	10000	1	1	0	1	0
98	596	10	10000	1	1	0	1	0
100	597	10	10000	1	1	0	1	0
96	598	10	10000	1	1	0	1	0
94	599	10	10000	1	1	0	1	0
92	600	10	10000	1	1	0	1	0
88	601	10	10000	1	1	0	1	0
86	601	10	10000	1	1	0	1	0
83	602	10	10000	1	1	0	1	0
81	604	10	10000	1	1	0	1	0
78	605	10	10000	1	1	0	1	0
77	606	10	10000	1	1	0	1	0
79	607	10	10000	1	1	0	1	0
78	608	10	10000	1	1	0	1	0
76	609	10	10000	1	1	0	1	0
78	610	10	10000	1	1	0	1	0
81	611	10	10000	1	1	0	1	0
82	611	10	10000	1	1	0	1	0
80	612	10	10000	1	1	0	1	0
78	614	10	10000	1	1	0	1	0
79	615	10	10000	1	1	0	1	0
79	616	10	10000	1	1	0	1	0
78	617	10	10000	1	1	0	1	0
80	618	10	10000	1	1	0	1	0
85	619	10	10000	1	1	0	1	0
86	620	10	10000	1	1	0	1	0
85	621	10	10000	1	1	0	1	0
84	621	10	10000	1	1	0	1	0
84	622	10	10000	1	1	0	1	0
81	624	10	10000	1	1	0	1	0
77	625	10	10000	1	1	0	1	0
75	626	10	10000	1	1	0	1	0
74	627	10	10000	1	1	0	1	0
71	628	10	10000	1	1	0	1	0
72	629	10	10000	1	1	0	1	0
79	630	10	10000	1	1	0	1	0
80	631	10	10000	1	1	0	1	0
77	631	10	10000	1	1	0	1	0
74	632	10	10000	1	1	0	1	0
75	634	10	10000	1	1	0	1	0
74	635	10	10000	1	1	0	1	0
72	636	10	10000	1	1	0	1	0
69	637	10	10000	1	1	0	1	0
70	638	10	10000	1	1	0	1	0
71	639	10	10000	1	1	0	1	0
70	640	10	10000	1	1	0	1	0
70	641	10	10000	1	1	0	1	0
71	641	10	10000	1	1	0	1	0
70	642	10	10000	1	1	0	1	0
70	644	10	10000	1	1	0	1	0
69	645	10	10000	1	1	0	1	0
67	646	10	10000	1	1	0	1	0
65	647	10	10000	1	1	0	1	0
65	648	10	10000	1	1	0	1	0
63	649	10	10000	1	1	0	1	0
64	650	10	10000	1	1	0	1	0
65	651	10	10000	1	1	0	1	0
65	651	10	10000	1	1	0	1	0
64	652	10	10000	1	1	0	1	0
61	654	10	10000	1	1	0	1	0
58	655	10	10000	1	1	0	1	0
56	656	10	10000	1	1	0	1	0
59	657	10	10000	1	1	0	1	0
75	658	10	10000	1	1	0	1	0
91	659	10	10000	1	1	0	1	0
92	660	10	10000	1	1	0	1	0
96	661	10	10000	1	1	0	1	0
111	661	10	10000	1	1	0	1	0
118	662	10	10000	1	1	0	1	0
119	664	10	10000	1	1	0	1	0
129	665	10	10000	1	1	0	1	0
143	666	10	10000	1	1	0	1	0
152	667	10	10000	1	1	0	1	0
155	668	10	10000	1	1	0	1	0
188	669	10	10000	1	1	0	1	0
210	670	10	10000	1	1	0	1	0
213	671	10	10000	1	1	0	1	0
234	671	10	10000	1	1	0	1	0
247	672	10	10000	1	1	0	1	0
272	674	10	10000	1	1	0	1	0
290	675	10	10000	1	1	0	1	0
286	676	10	10000	1	1	0	1	0
312	677	10	10000	1	1	0	1	0
345	678	10	10000	1	1	0	1	0
357	679	10	10000	1	1	0	1	0
355	680	10	10000	1	1	0	1	0
343	681	10	10000	1	1	0	1	0
336	681	10	10000	1	1	0	1	0
323	682	10	10000	1	1	0	1	0
315	684	10	10000	1	1	0	1	0
316	685	10	10000	1	1	0	1	0
307	686	10	10000	1	1	0	1	0
294	687	10	10000	1	1	0	1	0
280	688	10	10000	1	1	0	1	0
268	689	10	10000	1	1	0	1	0
257	690	10	10000	1	1	0	1	0
246	691	10	10000	1	1	0	1	0
238	691	10	10000	1	1	0	1	0
234	692	10	10000	1	1	0	1	0
228	694	10	10000	1	1	0	1	0
221	695	10	10000	1	1	0	1	0
213	696	10	10000	1	1	0	1	0
206	697	10	10000	1	1	0	1	0
197	698	10	10000	1	1	0	1	0
189	699	10	10000	1	1	0	1	0
180	700	10	10000	1	1	0	1	0
170	701	10	10000	1	1	0	1	0
163	701	10	10000	1	1	0	1	0
157	702	10	10000	1	1	0	1	0
153	704	10	10000	1	1	0	1	0
150	705	10	10000	1	1	0	1	0
147	706	10	10000	1	1	0	1	0
143	707	10	10000	1	1	0	1	0
142	708	10	10000	1	1	0	1	0
141	709	10	10000	1	1	0	1	0
143	710	10	10000	1	1	0	1	0
145	711	10	10000	1	1	0	1	0
146	711	10	10000	1	1	0	1	0
148	712	10	10000	1	1	0	1	0
150	714	10	10000	1	1	0	1	0
151	715	10	10000	1	1	0	1	0
152	716	10	10000	1	1	0	1	0
153	717	10	10000	1	1	0	1	0
154	718	10	10000	1	1	0	1	0
153	719	10	10000	1	1	0	1	0
151	720	10	10000	1	1	0	1	0
151	721	10	10000	1	1	0	1	0
153	721	10	10000	1	1	0	1	0
154	722	10	10000	1	1	0	1	0
154	724	10	10000	1	1	0	1	0
154	725	10	10000	1	1	0	1	0
153	726	10	10000	1	1	0	1	0
149	727	10	10000	1	1	0	1	0
147	728	10	10000	1	1	0	1	0
146	729	10	10000	1	1	0	1	0
145	730	10	10000	1	1	0	1	0
145	731	10	10000	1	1	0	1	0
143	731	10	10000	1	1	0	1	0
137	732	10	10000	1	1	0	1	0
132	734	10	10000	1	1	0	1	0
129	735	10	10000	1	1	0	1	0
127	736	10	10000	1	1	0	1	0
123	737	10	10000	1	1	0	1	0
125	738	10	10000	1	1	0	1	0
129	739	10	10000	1	1	0	1	0
126	740	10	10000	1	1	0	1	0
122	741	10	10000	1	1	0	1	0
121	741	10	10000	1	1	0	1	0
119	742	10	10000	1	1	0	1	0
117	744	10	10000	1	1	0	1	0
115	745	10	10000	1	1	0	1	0
112	746	10	10000	1	1	0	1	0
111	747	10	10000	1	1	0	1	0
114	748	10	10000	1	1	0	1	0
109	749	10	10000	1	1	0	1	0
108	750	10	10000	1	1	0	1	0
106	751	10	10000	1	1	0	1	0
107	751	10	10000	1	1	0	1	0
108	752	10	10000	1	1	0	1	0
108	754	10	10000	1	1	0	1	0
105	755	10	10000	1	1	0	1	0
102	756	10	10000	1	1	0	1	0
103	757	10	10000	1	1	0	1	0
100	758	10	10000	1	1	0	1	0
99	759	10	10000	1	1	0	1	0
95	760	10	10000	1	1	0	1	0
92	761	10	10000	1	1	0	1	0
92	761	10	10000	1	1	0	1	0
88	762	10	10000	1	1	0	1	0
91	764	10	10000	1	1	0	1	0
95	765	10	10000	1	1	0	1	0
95	766	10	10000	1	1	0	1	0
93	767	10	10000	1	1	0	1	0
94	768	10	10000	1	1	0	1	0
99	769	10	10000	1	1	0	1	0
107	770	10	10000	1	1	0	1	0
110	771	10	10000	1	1	0	1	0
108	771	10	10000	1	1	0	1	0
105	772	10	10000	1	1	0	1	0
100	774	10	10000	1	1	0	1	0
96	775	10	10000	1	1	0	1	0
101	776	10	10000	1	1	0	1	0
102	777	10	10000	1	1	0	1	0
105	778	10	10000	1	1	0	1	0
117	779	10	10000	1	1	0	1	0
118	780	10	10000	1	1	0	1	0
120	781	10	10000	1	1	0	1	0
124	781	10	10000	1	1	0	1	0
123	782	10	10000	1	1	0	1	0
126	784	10	10000	1	1	0	1	0
123	785	10	10000	1	1	0	1	0
123	786	10	10000	1	1	0	1	0
126	787	10	10000	1	1	0	1	0
127	788	10	10000	1	1	0	1	0
123	789	10	10000	1	1	0	1	0
125	790	10	10000	1	1	0	1	0
126	791	10	10000	1	1	0	1	0
122	791	10	10000	1	1	0	1	0
121	792	10	10000	1	1	0	1	0
117	794	10	10000	1	1	0	1	0
115	795	10	10000	1	1	0	1	0
122	796	10	10000	1	1	0	1	0
128	797	10	10000	1	1	0	1	0
129	798	10	10000	1	1	0	1	0
135	799	10	10000	1	1	0	1	0
136	800	10	10000	1	1	0	1	0
141	801	10	10000	1	1	0	1	0
156	801	10	10000	1	1	0	1	0
164	802	10	10000	1	1	0	1	0
161	804	10	10000	1	1	0	1	0
157	805	10	10000	1	1	0	1	0
160	806	10	10000	1	1	0	1	0
160	807	10	10000	1	1	0	1	0
153	808	10	10000	1	1	0	1	0
149	809	10	10000	1	1	0	1	0
151	810	10	10000	1	1	0	1	0
154	811	10	10000	1	1	0	1	0
157	811	10	10000	1	1	0	1	0
156	812	10	10000	1	1	0	1	0
152	814	10	10000	1	1	0	1	0
148	815	10	10000	1	1	0	1	0
145	816	10	10000	1	1	0	1	0
141	817	10	10000	1	1	0	1	0
138	818	10	10000	1	1	0	1	0
137	819	10	10000	1	1	0	1	0
130	820	10	10000	1	1	0	1	0
133	821	10	10000	1	1	0	1	0
145	821	10	10000	1	1	0	1	0
149	822	10	10000	1	1	0	1	0
145	824	10	10000	1	1	0	1	0
147	825	10	10000	1	1	0	1	0
149	826	10	10000	1	1	0	1	0
151	827	10	10000	1	1	0	1	0
151	828	10	10000	1	1	0	1	0
150	829	10	10000	1	1	0	1	0
158	830	10	10000	1	1	0	1	0
166	831	10	10000	1	1	0	1	0
162	831	10	10000	1	1	0	1	0
167	832	10	10000	1	1	0	1	0
176	834	10	10000	1	1	0	1	0
179	835	10	10000	1	1	0	1	0
178	836	10	10000	1	1	0	1	0
172	837	10	10000	1	1	0	1	0
165	838	10	10000	1	1	0	1	0
159	839	10	10000	1	1	0	1	0
152	840	10	10000	1	1	0	1	0
148	841	10	10000	1	1	0	1	0
142	841	10	10000	1	1	0	1	0
140	842	10	10000	1	1	0	1	0
137	844	10	10000	1	1	0	1	0
132	845	10	10000	1	1	0	1	0
128	846	10	10000	1	1	0	1	0
121	847	10	10000	1	1	0	1	0
116	848	10	10000	1	1	0	1	0
111	849	10	10000	1	1	0	1	0
113	850	10	10000	1	1	0	1	0
116	851	10	10000	1	1	0	1	0
113	851	10	10000	1	1	0	1	0
109	852	10	10000	1	1	0	1	0
108	854	10	10000	1	1	0	1	0
104	855	10	10000	1	1	0	1	0
104	856	10	10000	1	1	0	1	0
105	857	10	10000	1	1	0	1	0
101	858	10	10000	1	1	0	1	0
99	859	10	10000	1	1	0	1	0
95	860	10	10000	1	1	0	1	0
92	861	10	10000	1	1	0	1	0
92	861	10	10000	1	1	0	1	0
93	862	10	10000	1	1	0	1	0
93	864	10	10000	1	1	0	1	0
89	865	10	10000	1	1	0	1	0
87	866	10	10000	1	1	0	1	0
84	867	10	10000	1	1	0	1	0
80	868	10	10000	1	1	0	1	0
80	869	10	10000	1	1	0	1	0
81	870	10	10000	1	1	0	1	0
79	871	10	10000	1	1	0	1	0
76	871	10	10000	1	1	0	1	0
74	872	10	10000	1	1	0	1	0
70	874	10	10000	1	1	0	1	0
69	875	10	10000	1	1	0	1	0
67	876	10	10000	1	1	0	1	0
65	877	10	10000	1	1	0	1	0
64	878	10	10000	1	1	0	1	0
62	879	10	10000	1	1	0	1	0
59	880	10	10000	1	1	0	1	0
56	881	10	10000	1	1	0	1	0
55	881	10	10000	1	1	0	1	0
54	882	10	10000	1	1	0	1	0
55	884	10	10000	1	1	0	1	0
55	885	10	10000	1	1	0	1	0
53	886	10	10000	1	1	0	1	0
51	887	10	10000	1	1	0	1	0
50	888	10	10000	1	1	0	1	0
48	889	10	10000	1	1	0	1	0
47	890	10	10000	1	1	0	1	0
48	891	10	10000	1	1	0	1	0
49	891	10	10000	1	1	0	1	0
48	892	10	10000	1	1	0	1	0
48	894	10	10000	1	1	0	1	0
47	895	10	10000	1	1	0	1	0
46	896	10	10000	1	1	0	1	0
45	897	10	10000	1	1	0	1	0
44	898	10	10000	1	1	0	1	0
44	899	10	10000	1	1	0	1	0
42	900	10	10000	1	1	0	1	0
42	901	10	10000	1	1	0	1	0
43	901	10	10000	1	1	0	1	0
42	902	10	10000	1	1	0	1	0
42	904	10	10000	1	1	0	1	0
43	905	10	10000	1	1	0	1	0
42	906	10	10000	1	1	0	1	0
42	907	10	10000	1	1	0	1	0
42	908	10	10000	1	1	0	1	0
41	909	10	10000	1	1	0	1	0
41	910	10	10000	1	1	0	1	0
42	911	10	10000	1	1	0	1	0
44	911	10	10000	1	1	0	1	0
45	912	10	10000	1	1	0	1	0
45	914	10	10000	1	1	0	1	0
44	915	10	10000	1	1	0	1	0
45	916	10	10000	1	1	0	1	0
50	917	10	10000	1	1	0	1	0
57	918	10	10000	1	1	0	1	0
61	919	10	10000	1	1	0	1	0
61	920	10	10000	1	1	0	1	0
59	921	10	10000	1	1	0	1	0
60	921	10	10000	1	1	0	1	0
61	922	10	10000	1	1	0	1	0
62	924	10	10000	1	1	0	1	0
60	925	10	10000	1	1	0	1	0
59	926	10	10000	1	1	0	1	0
57	927	10	10000	1	1	0	1	0
57	928	10	10000	1	1	0	1	0
56	929	10	10000	1	1	0	1	0
61	930	10	10000	1	1	0	1	0
69	931	10	10000	1	1	0	1	0
76	931	10	10000	1	1	0	1	0
78	932	10	10000	1	1	0	1	0
75	934	10	10000	1	1	0	1	0
74	935	10	10000	1	1	0	1	0
78	936	10	10000	1	1	0	1	0
85	937	10	10000	1	1	0	1	0
86	938	10	10000	1	1	0	1	0
85	939	10	10000	1	1	0	1	0
86	940	10	10000	1	1	0	1	0
88	941	10	10000	1	1	0	1	0
88	941	10	10000	1	1	0	1	0
99	942	10	10000	1	1	0	1	0
112	944	10	10000	1	1	0	1	0
119	945	10	10000	1	1	0	1	0
116	946	10	10000	1	1	0	1	0
117	947	10	10000	1	1	0	1	0
128	948	10	10000	1	1	0	1	0
136	949	10	10000	1	1	0	1	0
138	950	10	10000	1	1	0	1	0
132	951	10	10000	1	1	0	1	0
127	951	10	10000	1	1	0	1	0
122	952	10	10000	1	1	0	1	0
118	954	10	10000	1	1	0	1	0
118	955	10	10000	1	1	0	1	0
119	956	10	10000	1	1	0	1	0
119	957	10	10000	1	1	0	1	0
116	958	10	10000	1	1	0	1	0
114	959	10	10000	1	1	0	1	0
115	960	10	10000	1	1	0	1	0
120	961	10	10000	1	1	0	1	0
125	961	10	10000	1	1	0	1	0
129	962	10	10000	1	1	0	1	0
137	964	10	10000	1	1	0	1	0
142	965	10	10000	1	1	0	1	0
138	966	10	10000	1	1	0	1	0
137	967	10	10000	1	1	0	1	0
141	968	10	10000	1	1	0	1	0
151	969	10	10000	1	1	0	1	0
163	970	10	10000	1	1	0	1	0
162	971	10	10000	1	1	0	1	0
157	971	10	10000	1	1	0	1	0
157	972	10	10000	1	1	0	1	0
154	974	10	10000	1	1	0	1	0
150	975	10	10000	1	1	0	1	0
148	976	10	10000	1	1	0	1	0
145	977	10	10000	1	1	0	1	0
142	978	10	10000	1	1	0	1	0
147	979	10	10000	1	1	0	1	0
161	980	10	10000	1	1	0	1	0
159	981	10	10000	1	1	0	1	0
165	981	10	10000	1	1	0	1	0
177	982	10	10000	1	1	0	1	0
184	984	10	10000	1	1	0	1	0
187	985	10	10000	1	1	0	1	0
181	986	10	10000	1	1	0	1	0
173	987	10	10000	1	1	0	1	0
167	988	10	10000	1	1	0	1	0
161	989	10	10000	1	1	0	1	0
159	990	10	10000	1	1	0	1	0
158	991	10	10000	1	1	0	1	0
151	991	10	10000	1	1	0	1	0
144	992	10	10000	1	1	0	1	0
138	994	10	10000	1	1	0	1	0
134	995	10	10000	1	1	0	1	0
129	996	10	10000	1	1	0	1	0
126	997	10	10000	1	1	0	1	0
124	998	10	10000	1	1	0	1	0
131	999	10	10000	1	1	0	1	0
136	1000	10	10000	1	1	0	1	0
132	1001	10	10000	1	1	0	1	0
33	1	10	10000	2	1	0	2	0
36	2	10	10000	2	1	0	2	0
37	3	10	10000	2	1	0	2	0
38	4	10	10000	2	1	0	2	0
40	5	10	10000	2	1	0	2	0
41	6	10	10000	2	1	0	2	0
41	7	10	10000	2	1	0	2	0
40	8	10	10000	2	1	0	2	0
39	9	10	10000	2	1	0	2	0
39	10	10	10000	2	1	0	2	0
38	11	10	10000	2	1	0	2	0
35	12	10	10000	2	1	0	2	0
34	13	10	10000	2	1	0	2	0
33	14	10	10000	2	1	0	2	0
33	15	10	10000	2	1	0	2	0
32	16	10	10000	2	1	0	2	0
31	17	10	10000	2	1	0	2	0
30	18	10	10000	2	1	0	2	0
29	19	10	10000	2	1	0	2	0
28	20	10	10000	2	1	0	2	0
28	20	10	10000	2	1	0	2	0
30	21	10	10000	2	1	0	2	0
28	23	10	10000	2	1	0	2	0
29	24	10	10000	2	1	0	2	0
32	25	10	10000	2	1	0	2	0
32	26	10	10000	2	1	0	2	0
32	27	10	10000	2	1	0	2	0
33	28	10	10000	2	1	0	2	0
32	29	10	10000	2	1	0	2	0
32	30	10	10000	2	1	0	2	0
32	30	10	10000	2	1	0	2	0
30	31	10	10000	2	1	0	2	0
31	33	10	10000	2	1	0	2	0
31	34	10	10000	2	1	0	2	0
32	35	10	10000	2	1	0	2	0
31	36	10	10000	2	1	0	2	0
32	37	10	10000	2	1	0	2	0
34	38	10	10000	2	1	0	2	0
34	39	10	10000	2	1	0	2	0
33	40	10	10000	2	1	0	2	0
32	40	10	10000	2	1	0	2	0
34	41	10	10000	2	1	0	2	0
34	43	10	10000	2	1	0	2	0
34	44	10	10000	2	1	0	2	0
34	45	10	10000	2	1	0	2	0
34	46	10	10000	2	1	0	2	0
32	47	10	10000	2	1	0	2	0
32	48	10	10000	2	1	0	2	0
32	49	10	10000	2	1	0	2	0
33	50	10	10000	2	1	0	2	0
33	50	10	10000	2	1	0	2	0
30	51	10	10000	2	1	0	2	0
30	53	10	10000	2	1	0	2	0
29	54	10	10000	2	1	0	2	0
28	55	10	10000	2	1	0	2	0
27	56	10	10000	2	1	0	2	0
27	57	10	10000	2	1	0	2	0
27	58	10	10000	2	1	0	2	0
28	59	10	10000	2	1	0	2	0
29	60	10	10000	2	1	0	2	0
28	60	10	10000	2	1	0	2	0
29	61	10	10000	2	1	0	2	0
28	63	10	10000	2	1	0	2	0
27	64	10	10000	2	1	0	2	0
28	65	10	10000	2	1	0	2	0
29	66	10	10000	2	1	0	2	0
28	67	10	10000	2	1	0	2	0
27	68	10	10000	2	1	0	2	0
28	69	10	10000	2	1	0	2	0
30	70	10	10000	2	1	0	2	0
31	70	10	10000	2	1	0	2	0
28	71	10	10000	2	1	0	2	0
27	73	10	10000	2	1	0	2	0
26	74	10	10000	2	1	0	2	0
26	75	10	10000	2	1	0	2	0
26	76	10	10000	2	1	0	2	0
25	77	10	10000	2	1	0	2	0
24	78	10	10000	2	1	0	2	0
24	79	10	10000	2	1	0	2	0
23	80	10	10000	2	1	0	2	0
22	80	10	10000	2	1	0	2	0
24	81	10	10000	2	1	0	2	0
23	83	10	10000	2	1	0	2	0
22	84	10	10000	2	1	0	2	0
21	85	10	10000	2	1	0	2	0
21	86	10	10000	2	1	0	2	0
20	87	10	10000	2	1	0	2	0
19	88	10	10000	2	1	0	2	0
20	89	10	10000	2	1	0	2	0
20	90	10	10000	2	1	0	2	0
19	90	10	10000	2	1	0	2	0
17	91	10	10000	2	1	0	2	0
17	93	10	10000	2	1	0	2	0
18	94	10	10000	2	1	0	2	0
20	95	10	10000	2	1	0	2	0
24	96	10	10000	2	1	0	2	0
31	97	10	10000	2	1	0	2	0
36	98	10	10000	2	1	0	2	0
37	99	10	10000	2	1	0	2	0
38	100	10	10000	2	1	0	2	0
43	100	10	10000	2	1	0	2	0
48	101	10	10000	2	1	0	2	0
49	103	10	10000	2	1	0	2	0
51	104	10	10000	2	1	0	2	0
50	105	10	10000	2	1	0	2	0
49	106	10	10000	2	1	0	2	0
54	107	10	10000	2	1	0	2	0
62	108	10	10000	2	1	0	2	0
71	109	10	10000	2	1	0	2	0
76	110	10	10000	2	1	0	2	0
75	110	10	10000	2	1	0	2	0
75	111	10	10000	2	1	0	2	0
80	113	10	10000	2	1	0	2	0
83	114	10	10000	2	1	0	2	0
84	115	10	10000	2	1	0	2	0
81	116	10	10000	2	1	0	2	0
79	117	10	10000	2	1	0	2	0
77	118	10	10000	2	1	0	2	0
73	119	10	10000	2	1	0	2	0
71	120	10	10000	2	1	0	2	0
70	120	10	10000	2	1	0	2	0
69	121	10	10000	2	1	0	2	0
67	123	10	10000	2	1	0	2	0
65	124	10	10000	2	1	0	2	0
65	125	10	10000	2	1	0	2	0
69	126	10	10000	2	1	0	2	0
74	127	10	10000	2	1	0	2	0
75	128	10	10000	2	1	0	2	0
76	129	10	10000	2	1	0	2	0
76	130	10	10000	2	1	0	2	0
74	130	10	10000	2	1	0	2	0
76	131	10	10000	2	1	0	2	0
81	133	10	10000	2	1	0	2	0
86	134	10	10000	2	1	0	2	0
91	135	10	10000	2	1	0	2	0
93	136	10	10000	2	1	0	2	0
92	137	10	10000	2	1	0	2	0
90	138	10	10000	2	1	0	2	0
87	139	10	10000	2	1	0	2	0
87	140	10	10000	2	1	0	2	0
86	140	10	10000	2	1	0	2	0
85	141	10	10000	2	1	0	2	0
84	143	10	10000	2	1	0	2	0
82	144	10	10000	2	1	0	2	0
81	145	10	10000	2	1	0	2	0
79	146	10	10000	2	1	0	2	0
77	147	10	10000	2	1	0	2	0
74	148	10	10000	2	1	0	2	0
72	149	10	10000	2	1	0	2	0
72	150	10	10000	2	1	0	2	0
73	150	10	10000	2	1	0	2	0
75	151	10	10000	2	1	0	2	0
78	153	10	10000	2	1	0	2	0
75	154	10	10000	2	1	0	2	0
73	155	10	10000	2	1	0	2	0
71	156	10	10000	2	1	0	2	0
68	157	10	10000	2	1	0	2	0
69	158	10	10000	2	1	0	2	0
67	159	10	10000	2	1	0	2	0
67	160	10	10000	2	1	0	2	0
70	160	10	10000	2	1	0	2	0
74	161	10	10000	2	1	0	2	0
71	163	10	10000	2	1	0	2	0
70	164	10	10000	2	1	0	2	0
71	165	10	10000	2	1	0	2	0
69	166	10	10000	2	1	0	2	0
68	167	10	10000	2	1	0	2	0
67	168	10	10000	2	1	0	2	0
66	169	10	10000	2	1	0	2	0
64	170	10	10000	2	1	0	2	0
64	170	10	10000	2	1	0	2	0
63	171	10	10000	2	1	0	2	0
65	173	10	10000	2	1	0	2	0
65	174	10	10000	2	1	0	2	0
63	175	10	10000	2	1	0	2	0
68	176	10	10000	2	1	0	2	0
75	177	10	10000	2	1	0	2	0
76	178	10	10000	2	1	0	2	0
76	179	10	10000	2	1	0	2	0
80	180	10	10000	2	1	0	2	0
82	180	10	10000	2	1	0	2	0
82	181	10	10000	2	1	0	2	0
79	183	10	10000	2	1	0	2	0
78	184	10	10000	2	1	0	2	0
76	185	10	10000	2	1	0	2	0
73	186	10	10000	2	1	0	2	0
69	187	10	10000	2	1	0	2	0
68	188	10	10000	2	1	0	2	0
69	189	10	10000	2	1	0	2	0
69	190	10	10000	2	1	0	2	0
68	190	10	10000	2	1	0	2	0
65	191	10	10000	2	1	0	2	0
64	193	10	10000	2	1	0	2	0
66	194	10	10000	2	1	0	2	0
66	195	10	10000	2	1	0	2	0
64	196	10	10000	2	1	0	2	0
63	197	10	10000	2	1	0	2	0
66	198	10	10000	2	1	0	2	0
71	199	10	10000	2	1	0	2	0
74	200	10	10000	2	1	0	2	0
72	200	10	10000	2	1	0	2	0
78	201	10	10000	2	1	0	2	0
83	203	10	10000	2	1	0	2	0
85	204	10	10000	2	1	0	2	0
82	205	10	10000	2	1	0	2	0
81	206	10	10000	2	1	0	2	0
79	207	10	10000	2	1	0	2	0
77	208	10	10000	2	1	0	2	0
79	209	10	10000	2	1	0	2	0
77	210	10	10000	2	1	0	2	0
74	210	10	10000	2	1	0	2	0
70	211	10	10000	2	1	0	2	0
68	213	10	10000	2	1	0	2	0
68	214	10	10000	2	1	0	2	0
67	215	10	10000	2	1	0	2	0
66	216	10	10000	2	1	0	2	0
67	217	10	10000	2	1	0	2	0
66	218	10	10000	2	1	0	2	0
65	219	10	10000	2	1	0	2	0
64	220	10	10000	2	1	0	2	0
64	220	10	10000	2	1	0	2	0
68	221	10	10000	2	1	0	2	0
66	223	10	10000	2	1	0	2	0
64	224	10	10000	2	1	0	2	0
67	225	10	10000	2	1	0	2	0
72	226	10	10000	2	1	0	2	0
73	227	10	10000	2	1	0	2	0
72	228	10	10000	2	1	0	2	0
76	229	10	10000	2	1	0	2	0
80	230	10	10000	2	1	0	2	0
80	230	10	10000	2	1	0	2	0
75	231	10	10000	2	1	0	2	0
72	233	10	10000	2	1	0	2	0
71	234	10	10000	2	1	0	2	0
71	235	10	10000	2	1	0	2	0
72	236	10	10000	2	1	0	2	0
73	237	10	10000	2	1	0	2	0
72	238	10	10000	2	1	0	2	0
71	239	10	10000	2	1	0	2	0
74	240	10	10000	2	1	0	2	0
75	240	10	10000	2	1	0	2	0
74	241	10	10000	2	1	0	2	0
72	243	10	10000	2	1	0	2	0
69	244	10	10000	2	1	0	2	0
69	245	10	10000	2	1	0	2	0
68	246	10	10000	2	1	0	2	0
70	247	10	10000	2	1	0	2	0
70	248	10	10000	2	1	0	2	0
70	249	10	10000	2	1	0	2	0
70	250	10	10000	2	1	0	2	0
69	250	10	10000	2	1	0	2	0
65	251	10	10000	2	1	0	2	0
63	253	10	10000	2	1	0	2	0
62	254	10	10000	2	1	0	2	0
69	255	10	10000	2	1	0	2	0
76	256	10	10000	2	1	0	2	0
78	257	10	10000	2	1	0	2	0
76	258	10	10000	2	1	0	2	0
73	259	10	10000	2	1	0	2	0
70	260	10	10000	2	1	0	2	0
69	260	10	10000	2	1	0	2	0
74	261	10	10000	2	1	0	2	0
73	263	10	10000	2	1	0	2	0
77	264	10	10000	2	1	0	2	0
84	265	10	10000	2	1	0	2	0
91	266	10	10000	2	1	0	2	0
94	266	10	10000	2	1	0	2	0
95	267	10	10000	2	1	0	2	0
96	269	10	10000	2	1	0	2	0
93	270	10	10000	2	1	0	2	0
91	270	10	10000	2	1	0	2	0
86	271	10	10000	2	1	0	2	0
83	273	10	10000	2	1	0	2	0
80	274	10	10000	2	1	0	2	0
79	275	10	10000	2	1	0	2	0
78	276	10	10000	2	1	0	2	0
75	277	10	10000	2	1	0	2	0
73	278	10	10000	2	1	0	2	0
72	279	10	10000	2	1	0	2	0
79	280	10	10000	2	1	0	2	0
85	280	10	10000	2	1	0	2	0
86	281	10	10000	2	1	0	2	0
85	283	10	10000	2	1	0	2	0
85	284	10	10000	2	1	0	2	0
85	285	10	10000	2	1	0	2	0
83	286	10	10000	2	1	0	2	0
83	286	10	10000	2	1	0	2	0
86	287	10	10000	2	1	0	2	0
85	289	10	10000	2	1	0	2	0
89	290	10	10000	2	1	0	2	0
93	290	10	10000	2	1	0	2	0
91	291	10	10000	2	1	0	2	0
90	293	10	10000	2	1	0	2	0
89	294	10	10000	2	1	0	2	0
85	295	10	10000	2	1	0	2	0
82	296	10	10000	2	1	0	2	0
80	296	10	10000	2	1	0	2	0
82	297	10	10000	2	1	0	2	0
82	298	10	10000	2	1	0	2	0
80	299	10	10000	2	1	0	2	0
76	300	10	10000	2	1	0	2	0
75	301	10	10000	2	1	0	2	0
74	302	10	10000	2	1	0	2	0
73	303	10	10000	2	1	0	2	0
75	304	10	10000	2	1	0	2	0
80	305	10	10000	2	1	0	2	0
82	306	10	10000	2	1	0	2	0
81	307	10	10000	2	1	0	2	0
84	308	10	10000	2	1	0	2	0
87	309	10	10000	2	1	0	2	0
86	310	10	10000	2	1	0	2	0
81	311	10	10000	2	1	0	2	0
80	312	10	10000	2	1	0	2	0
81	313	10	10000	2	1	0	2	0
82	314	10	10000	2	1	0	2	0
81	315	10	10000	2	1	0	2	0
80	316	10	10000	2	1	0	2	0
80	317	10	10000	2	1	0	2	0
78	318	10	10000	2	1	0	2	0
77	319	10	10000	2	1	0	2	0
75	320	10	10000	2	1	0	2	0
75	321	10	10000	2	1	0	2	0
72	322	10	10000	2	1	0	2	0
69	323	10	10000	2	1	0	2	0
67	324	10	10000	2	1	0	2	0
65	325	10	10000	2	1	0	2	0
64	326	10	10000	2	1	0	2	0
61	327	10	10000	2	1	0	2	0
59	328	10	10000	2	1	0	2	0
57	329	10	10000	2	1	0	2	0
56	330	10	10000	2	1	0	2	0
51	331	10	10000	2	1	0	2	0
49	332	10	10000	2	1	0	2	0
49	333	10	10000	2	1	0	2	0
48	334	10	10000	2	1	0	2	0
46	335	10	10000	2	1	0	2	0
44	336	10	10000	2	1	0	2	0
44	337	10	10000	2	1	0	2	0
42	338	10	10000	2	1	0	2	0
40	339	10	10000	2	1	0	2	0
39	340	10	10000	2	1	0	2	0
40	341	10	10000	2	1	0	2	0
39	342	10	10000	2	1	0	2	0
37	343	10	10000	2	1	0	2	0
36	344	10	10000	2	1	0	2	0
35	345	10	10000	2	1	0	2	0
34	346	10	10000	2	1	0	2	0
34	347	10	10000	2	1	0	2	0
33	348	10	10000	2	1	0	2	0
33	349	10	10000	2	1	0	2	0
34	350	10	10000	2	1	0	2	0
32	351	10	10000	2	1	0	2	0
33	352	10	10000	2	1	0	2	0
32	353	10	10000	2	1	0	2	0
34	354	10	10000	2	1	0	2	0
34	355	10	10000	2	1	0	2	0
36	356	10	10000	2	1	0	2	0
40	357	10	10000	2	1	0	2	0
43	358	10	10000	2	1	0	2	0
45	359	10	10000	2	1	0	2	0
45	360	10	10000	2	1	0	2	0
47	361	10	10000	2	1	0	2	0
47	362	10	10000	2	1	0	2	0
45	363	10	10000	2	1	0	2	0
44	364	10	10000	2	1	0	2	0
42	365	10	10000	2	1	0	2	0
42	366	10	10000	2	1	0	2	0
40	367	10	10000	2	1	0	2	0
39	368	10	10000	2	1	0	2	0
38	369	10	10000	2	1	0	2	0
39	370	10	10000	2	1	0	2	0
36	371	10	10000	2	1	0	2	0
36	372	10	10000	2	1	0	2	0
37	373	10	10000	2	1	0	2	0
35	374	10	10000	2	1	0	2	0
34	375	10	10000	2	1	0	2	0
34	376	10	10000	2	1	0	2	0
32	377	10	10000	2	1	0	2	0
31	378	10	10000	2	1	0	2	0
30	379	10	10000	2	1	0	2	0
28	380	10	10000	2	1	0	2	0
29	381	10	10000	2	1	0	2	0
30	382	10	10000	2	1	0	2	0
28	383	10	10000	2	1	0	2	0
28	384	10	10000	2	1	0	2	0
27	385	10	10000	2	1	0	2	0
27	386	10	10000	2	1	0	2	0
26	387	10	10000	2	1	0	2	0
26	388	10	10000	2	1	0	2	0
27	389	10	10000	2	1	0	2	0
27	390	10	10000	2	1	0	2	0
25	391	10	10000	2	1	0	2	0
25	392	10	10000	2	1	0	2	0
26	393	10	10000	2	1	0	2	0
28	394	10	10000	2	1	0	2	0
27	395	10	10000	2	1	0	2	0
26	396	10	10000	2	1	0	2	0
27	397	10	10000	2	1	0	2	0
26	398	10	10000	2	1	0	2	0
25	399	10	10000	2	1	0	2	0
25	400	10	10000	2	1	0	2	0
26	401	10	10000	2	1	0	2	0
25	402	10	10000	2	1	0	2	0
25	403	10	10000	2	1	0	2	0
26	404	10	10000	2	1	0	2	0
27	405	10	10000	2	1	0	2	0
27	406	10	10000	2	1	0	2	0
27	407	10	10000	2	1	0	2	0
28	408	10	10000	2	1	0	2	0
26	409	10	10000	2	1	0	2	0
26	410	10	10000	2	1	0	2	0
23	411	10	10000	2	1	0	2	0
22	412	10	10000	2	1	0	2	0
22	413	10	10000	2	1	0	2	0
21	414	10	10000	2	1	0	2	0
21	415	10	10000	2	1	0	2	0
21	416	10	10000	2	1	0	2	0
21	417	10	10000	2	1	0	2	0
20	418	10	10000	2	1	0	2	0
20	419	10	10000	2	1	0	2	0
19	420	10	10000	2	1	0	2	0
20	421	10	10000	2	1	0	2	0
21	422	10	10000	2	1	0	2	0
22	423	10	10000	2	1	0	2	0
21	424	10	10000	2	1	0	2	0
21	425	10	10000	2	1	0	2	0
20	426	10	10000	2	1	0	2	0
19	427	10	10000	2	1	0	2	0
19	428	10	10000	2	1	0	2	0
20	429	10	10000	2	1	0	2	0
20	430	10	10000	2	1	0	2	0
19	431	10	10000	2	1	0	2	0
20	432	10	10000	2	1	0	2	0
19	433	10	10000	2	1	0	2	0
19	434	10	10000	2	1	0	2	0
19	435	10	10000	2	1	0	2	0
20	436	10	10000	2	1	0	2	0
21	437	10	10000	2	1	0	2	0
20	438	10	10000	2	1	0	2	0
19	439	10	10000	2	1	0	2	0
19	440	10	10000	2	1	0	2	0
20	441	10	10000	2	1	0	2	0
20	442	10	10000	2	1	0	2	0
22	443	10	10000	2	1	0	2	0
21	444	10	10000	2	1	0	2	0
20	445	10	10000	2	1	0	2	0
20	446	10	10000	2	1	0	2	0
19	447	10	10000	2	1	0	2	0
20	448	10	10000	2	1	0	2	0
20	449	10	10000	2	1	0	2	0
22	450	10	10000	2	1	0	2	0
20	451	10	10000	2	1	0	2	0
20	452	10	10000	2	1	0	2	0
19	453	10	10000	2	1	0	2	0
19	454	10	10000	2	1	0	2	0
19	455	10	10000	2	1	0	2	0
20	456	10	10000	2	1	0	2	0
21	457	10	10000	2	1	0	2	0
21	458	10	10000	2	1	0	2	0
20	459	10	10000	2	1	0	2	0
19	460	10	10000	2	1	0	2	0
21	461	10	10000	2	1	0	2	0
20	462	10	10000	2	1	0	2	0
20	463	10	10000	2	1	0	2	0
20	464	10	10000	2	1	0	2	0
20	465	10	10000	2	1	0	2	0
20	466	10	10000	2	1	0	2	0
20	467	10	10000	2	1	0	2	0
21	468	10	10000	2	1	0	2	0
22	469	10	10000	2	1	0	2	0
22	470	10	10000	2	1	0	2	0
20	471	10	10000	2	1	0	2	0
21	472	10	10000	2	1	0	2	0
22	473	10	10000	2	1	0	2	0
24	474	10	10000	2	1	0	2	0
27	475	10	10000	2	1	0	2	0
29	476	10	10000	2	1	0	2	0
31	477	10	10000	2	1	0	2	0
29	478	10	10000	2	1	0	2	0
28	479	10	10000	2	1	0	2	0
27	480	10	10000	2	1	0	2	0
29	481	10	10000	2	1	0	2	0
28	482	10	10000	2	1	0	2	0
27	483	10	10000	2	1	0	2	0
26	484	10	10000	2	1	0	2	0
25	485	10	10000	2	1	0	2	0
26	486	10	10000	2	1	0	2	0
26	487	10	10000	2	1	0	2	0
25	488	10	10000	2	1	0	2	0
26	489	10	10000	2	1	0	2	0
30	490	10	10000	2	1	0	2	0
32	491	10	10000	2	1	0	2	0
34	492	10	10000	2	1	0	2	0
37	493	10	10000	2	1	0	2	0
38	494	10	10000	2	1	0	2	0
38	495	10	10000	2	1	0	2	0
36	496	10	10000	2	1	0	2	0
35	497	10	10000	2	1	0	2	0
34	498	10	10000	2	1	0	2	0
32	499	10	10000	2	1	0	2	0
31	500	10	10000	2	1	0	2	0
32	501	10	10000	2	1	0	2	0
30	502	10	10000	2	1	0	2	1
29	503	10	10000	2	1	0	2	1
29	504	10	10000	2	1	0	2	1
28	505	10	10000	2	1	0	2	1
27	506	10	10000	2	1	0	2	1
29	507	10	10000	2	1	0	2	1
29	508	10	10000	2	1	0	2	1
30	509	10	10000	2	1	0	2	1
31	510	10	10000	2	1	0	2	1
30	511	10	10000	2	1	0	2	1
30	512	10	10000	2	1	0	2	1
29	513	10	10000	2	1	0	2	1
29	514	10	10000	2	1	0	2	1
28	515	10	10000	2	1	0	2	1
28	516	10	10000	2	1	0	2	1
27	517	10	10000	2	1	0	2	1
27	518	10	10000	2	1	0	2	1
28	519	10	10000	2	1	0	2	1
29	520	10	10000	2	1	0	2	1
31	521	10	10000	2	1	0	2	1
31	522	10	10000	2	1	0	2	1
31	523	10	10000	2	1	0	2	1
30	524	10	10000	2	1	0	2	1
30	525	10	10000	2	1	0	2	1
30	526	10	10000	2	1	0	2	1
29	527	10	10000	2	1	0	2	1
28	528	10	10000	2	1	0	2	1
28	529	10	10000	2	1	0	2	1
28	530	10	10000	2	1	0	2	1
24	531	10	10000	2	1	0	2	1
24	532	10	10000	2	1	0	2	1
24	533	10	10000	2	1	0	2	1
22	534	10	10000	2	1	0	2	1
22	535	10	10000	2	1	0	2	1
25	536	10	10000	2	1	0	2	1
27	537	10	10000	2	1	0	2	1
28	538	10	10000	2	1	0	2	1
30	539	10	10000	2	1	0	2	1
29	540	10	10000	2	1	0	2	1
30	541	10	10000	2	1	0	2	1
30	542	10	10000	2	1	0	2	1
30	543	10	10000	2	1	0	2	1
30	544	10	10000	2	1	0	2	1
29	545	10	10000	2	1	0	2	1
30	546	10	10000	2	1	0	2	1
31	547	10	10000	2	1	0	2	1
31	548	10	10000	2	1	0	2	1
30	549	10	10000	2	1	0	2	1
32	550	10	10000	2	1	0	2	1
33	551	10	10000	2	1	0	2	1
34	552	10	10000	2	1	0	2	0
35	553	10	10000	2	1	0	2	0
35	554	10	10000	2	1	0	2	0
35	555	10	10000	2	1	0	2	0
34	556	10	10000	2	1	0	2	0
33	557	10	10000	2	1	0	2	0
32	558	10	10000	2	1	0	2	0
32	559	10	10000	2	1	0	2	0
31	560	10	10000	2	1	0	2	0
33	561	10	10000	2	1	0	2	0
32	562	10	10000	2	1	0	2	0
31	563	10	10000	2	1	0	2	0
29	564	10	10000	2	1	0	2	0
29	565	10	10000	2	1	0	2	0
27	566	10	10000	2	1	0	2	0
27	567	10	10000	2	1	0	2	0
28	568	10	10000	2	1	0	2	0
27	569	10	10000	2	1	0	2	0
27	570	10	10000	2	1	0	2	0
24	571	10	10000	2	1	0	2	0
24	572	10	10000	2	1	0	2	0
25	573	10	10000	2	1	0	2	0
26	574	10	10000	2	1	0	2	0
27	575	10	10000	2	1	0	2	0
26	576	10	10000	2	1	0	2	0
26	577	10	10000	2	1	0	2	0
26	578	10	10000	2	1	0	2	0
25	579	10	10000	2	1	0	2	0
24	580	10	10000	2	1	0	2	0
26	581	10	10000	2	1	0	2	0
25	582	10	10000	2	1	0	2	0
25	583	10	10000	2	1	0	2	0
24	584	10	10000	2	1	0	2	0
23	585	10	10000	2	1	0	2	0
22	586	10	10000	2	1	0	2	0
21	587	10	10000	2	1	0	2	0
21	588	10	10000	2	1	0	2	0
21	589	10	10000	2	1	0	2	0
22	590	10	10000	2	1	0	2	0
20	591	10	10000	2	1	0	2	0
20	592	10	10000	2	1	0	2	0
21	593	10	10000	2	1	0	2	0
24	594	10	10000	2	1	0	2	0
24	595	10	10000	2	1	0	2	0
26	596	10	10000	2	1	0	2	0
28	597	10	10000	2	1	0	2	0
26	598	10	10000	2	1	0	2	0
25	599	10	10000	2	1	0	2	0
25	600	10	10000	2	1	0	2	0
25	601	10	10000	2	1	0	2	0
27	602	10	10000	2	1	0	2	0
38	603	10	10000	2	1	0	2	0
44	604	10	10000	2	1	0	2	0
44	605	10	10000	2	1	0	2	0
58	606	10	10000	2	1	0	2	0
71	607	10	10000	2	1	0	2	0
73	608	10	10000	2	1	0	2	0
77	609	10	10000	2	1	0	2	0
75	610	10	10000	2	1	0	2	0
71	611	10	10000	2	1	0	2	0
68	612	10	10000	2	1	0	2	0
69	613	10	10000	2	1	0	2	0
68	614	10	10000	2	1	0	2	0
66	615	10	10000	2	1	0	2	0
71	616	10	10000	2	1	0	2	0
73	617	10	10000	2	1	0	2	0
75	618	10	10000	2	1	0	2	0
80	619	10	10000	2	1	0	2	0
92	620	10	10000	2	1	0	2	0
104	621	10	10000	2	1	0	2	0
103	622	10	10000	2	1	0	2	0
108	623	10	10000	2	1	0	2	0
107	624	10	10000	2	1	0	2	0
106	625	10	10000	2	1	0	2	0
102	626	10	10000	2	1	0	2	0
98	627	10	10000	2	1	0	2	0
97	628	10	10000	2	1	0	2	0
96	629	10	10000	2	1	0	2	0
93	630	10	10000	2	1	0	2	0
90	631	10	10000	2	1	0	2	0
89	632	10	10000	2	1	0	2	0
87	633	10	10000	2	1	0	2	0
85	634	10	10000	2	1	0	2	0
86	635	10	10000	2	1	0	2	0
86	636	10	10000	2	1	0	2	0
85	637	10	10000	2	1	0	2	0
82	638	10	10000	2	1	0	2	0
80	639	10	10000	2	1	0	2	0
78	640	10	10000	2	1	0	2	0
80	641	10	10000	2	1	0	2	0
79	642	10	10000	2	1	0	2	0
76	643	10	10000	2	1	0	2	0
74	644	10	10000	2	1	0	2	0
73	645	10	10000	2	1	0	2	0
71	646	10	10000	2	1	0	2	0
69	647	10	10000	2	1	0	2	0
66	648	10	10000	2	1	0	2	0
64	649	10	10000	2	1	0	2	0
64	650	10	10000	2	1	0	2	0
61	651	10	10000	2	1	0	2	0
61	652	10	10000	2	1	0	2	0
60	653	10	10000	2	1	0	2	0
59	654	10	10000	2	1	0	2	0
59	655	10	10000	2	1	0	2	0
60	656	10	10000	2	1	0	2	0
61	657	10	10000	2	1	0	2	0
62	658	10	10000	2	1	0	2	0
63	659	10	10000	2	1	0	2	0
63	660	10	10000	2	1	0	2	0
67	661	10	10000	2	1	0	2	0
68	662	10	10000	2	1	0	2	0
68	663	10	10000	2	1	0	2	0
68	664	10	10000	2	1	0	2	0
68	665	10	10000	2	1	0	2	0
68	666	10	10000	2	1	0	2	0
68	667	10	10000	2	1	0	2	0
66	668	10	10000	2	1	0	2	0
66	669	10	10000	2	1	0	2	0
67	670	10	10000	2	1	0	2	0
65	671	10	10000	2	1	0	2	0
66	672	10	10000	2	1	0	2	0
66	673	10	10000	2	1	0	2	0
67	674	10	10000	2	1	0	2	0
67	675	10	10000	2	1	0	2	0
66	676	10	10000	2	1	0	2	0
63	677	10	10000	2	1	0	2	0
60	678	10	10000	2	1	0	2	0
58	679	10	10000	2	1	0	2	0
56	680	10	10000	2	1	0	2	0
56	681	10	10000	2	1	0	2	0
54	682	10	10000	2	1	0	2	0
52	683	10	10000	2	1	0	2	0
51	684	10	10000	2	1	0	2	0
51	685	10	10000	2	1	0	2	0
49	686	10	10000	2	1	0	2	0
47	687	10	10000	2	1	0	2	0
46	688	10	10000	2	1	0	2	0
45	689	10	10000	2	1	0	2	0
44	690	10	10000	2	1	0	2	0
41	691	10	10000	2	1	0	2	0
40	692	10	10000	2	1	0	2	0
39	693	10	10000	2	1	0	2	0
38	694	10	10000	2	1	0	2	0
37	695	10	10000	2	1	0	2	0
37	696	10	10000	2	1	0	2	0
35	697	10	10000	2	1	0	2	0
33	698	10	10000	2	1	0	2	0
32	699	10	10000	2	1	0	2	0
30	700	10	10000	2	1	0	2	0
31	701	10	10000	2	1	0	2	0
30	702	10	10000	2	1	0	2	0
28	703	10	10000	2	1	0	2	0
27	704	10	10000	2	1	0	2	0
26	705	10	10000	2	1	0	2	0
26	706	10	10000	2	1	0	2	0
24	707	10	10000	2	1	0	2	0
24	708	10	10000	2	1	0	2	0
24	709	10	10000	2	1	0	2	0
23	710	10	10000	2	1	0	2	0
21	711	10	10000	2	1	0	2	0
22	712	10	10000	2	1	0	2	0
25	713	10	10000	2	1	0	2	0
27	714	10	10000	2	1	0	2	0
28	715	10	10000	2	1	0	2	0
31	716	10	10000	2	1	0	2	0
34	717	10	10000	2	1	0	2	0
35	718	10	10000	2	1	0	2	0
36	719	10	10000	2	1	0	2	0
34	720	10	10000	2	1	0	2	0
36	721	10	10000	2	1	0	2	0
35	722	10	10000	2	1	0	2	0
34	723	10	10000	2	1	0	2	0
32	724	10	10000	2	1	0	2	0
32	725	10	10000	2	1	0	2	0
31	726	10	10000	2	1	0	2	0
30	727	10	10000	2	1	0	2	0
31	728	10	10000	2	1	0	2	0
29	729	10	10000	2	1	0	2	0
29	730	10	10000	2	1	0	2	0
28	731	10	10000	2	1	0	2	0
28	732	10	10000	2	1	0	2	0
29	733	10	10000	2	1	0	2	0
31	734	10	10000	2	1	0	2	0
30	735	10	10000	2	1	0	2	0
29	736	10	10000	2	1	0	2	0
29	737	10	10000	2	1	0	2	0
27	738	10	10000	2	1	0	2	0
26	739	10	10000	2	1	0	2	0
24	740	10	10000	2	1	0	2	0
26	741	10	10000	2	1	0	2	0
26	742	10	10000	2	1	0	2	0
26	743	10	10000	2	1	0	2	0
24	744	10	10000	2	1	0	2	0
22	745	10	10000	2	1	0	2	0
22	746	10	10000	2	1	0	2	0
21	747	10	10000	2	1	0	2	0
22	748	10	10000	2	1	0	2	0
21	749	10	10000	2	1	0	2	0
21	750	10	10000	2	1	0	2	0
20	751	10	10000	2	1	0	2	0
21	752	10	10000	2	1	0	2	0
21	753	10	10000	2	1	0	2	0
22	754	10	10000	2	1	0	2	0
21	755	10	10000	2	1	0	2	0
20	756	10	10000	2	1	0	2	0
21	757	10	10000	2	1	0	2	0
20	758	10	10000	2	1	0	2	0
20	759	10	10000	2	1	0	2	0
20	760	10	10000	2	1	0	2	0
21	761	10	10000	2	1	0	2	0
21	762	10	10000	2	1	0	2	0
24	763	10	10000	2	1	0	2	0
24	764	10	10000	2	1	0	2	0
24	765	10	10000	2	1	0	2	0
25	766	10	10000	2	1	0	2	0
23	767	10	10000	2	1	0	2	0
23	768	10	10000	2	1	0	2	0
23	769	10	10000	2	1	0	2	0
23	770	10	10000	2	1	0	2	0
22	771	10	10000	2	1	0	2	0
23	772	10	10000	2	1	0	2	0
25	773	10	10000	2	1	0	2	0
25	774	10	10000	2	1	0	2	0
26	775	10	10000	2	1	0	2	0
26	776	10	10000	2	1	0	2	0
25	777	10	10000	2	1	0	2	0
24	778	10	10000	2	1	0	2	0
24	779	10	10000	2	1	0	2	0
24	780	10	10000	2	1	0	2	0
26	781	10	10000	2	1	0	2	0
25	782	10	10000	2	1	0	2	0
24	783	10	10000	2	1	0	2	0
24	784	10	10000	2	1	0	2	0
24	785	10	10000	2	1	0	2	0
24	786	10	10000	2	1	0	2	0
22	787	10	10000	2	1	0	2	0
22	788	10	10000	2	1	0	2	0
24	789	10	10000	2	1	0	2	0
23	790	10	10000	2	1	0	2	0
21	791	10	10000	2	1	0	2	0
22	792	10	10000	2	1	0	2	0
23	793	10	10000	2	1	0	2	0
23	794	10	10000	2	1	0	2	0
24	795	10	10000	2	1	0	2	0
25	796	10	10000	2	1	0	2	0
26	797	10	10000	2	1	0	2	0
25	798	10	10000	2	1	0	2	0
25	799	10	10000	2	1	0	2	0
25	800	10	10000	2	1	0	2	0
27	801	10	10000	2	1	0	2	0
27	802	10	10000	2	1	0	2	0
26	803	10	10000	2	1	0	2	0
26	804	10	10000	2	1	0	2	0
27	805	10	10000	2	1	0	2	0
29	806	10	10000	2	1	0	2	0
30	807	10	10000	2	1	0	2	0
32	808	10	10000	2	1	0	2	0
32	809	10	10000	2	1	0	2	0
32	810	10	10000	2	1	0	2	0
30	811	10	10000	2	1	0	2	0
30	812	10	10000	2	1	0	2	0
29	813	10	10000	2	1	0	2	0
28	814	10	10000	2	1	0	2	0
29	815	10	10000	2	1	0	2	0
32	816	10	10000	2	1	0	2	0
34	817	10	10000	2	1	0	2	0
33	818	10	10000	2	1	0	2	0
34	819	10	10000	2	1	0	2	0
36	820	10	10000	2	1	0	2	0
41	821	10	10000	2	1	0	2	0
40	822	10	10000	2	1	0	2	0
37	823	10	10000	2	1	0	2	0
37	824	10	10000	2	1	0	2	0
37	825	10	10000	2	1	0	2	0
39	826	10	10000	2	1	0	2	0
43	827	10	10000	2	1	0	2	0
44	828	10	10000	2	1	0	2	0
44	829	10	10000	2	1	0	2	0
45	830	10	10000	2	1	0	2	0
43	831	10	10000	2	1	0	2	0
43	832	10	10000	2	1	0	2	0
42	833	10	10000	2	1	0	2	0
45	834	10	10000	2	1	0	2	0
49	835	10	10000	2	1	0	2	0
51	836	10	10000	2	1	0	2	0
52	837	10	10000	2	1	0	2	0
50	838	10	10000	2	1	0	2	0
50	839	10	10000	2	1	0	2	0
49	840	10	10000	2	1	0	2	0
52	841	10	10000	2	1	0	2	0
55	842	10	10000	2	1	0	2	0
65	843	10	10000	2	1	0	2	0
76	844	10	10000	2	1	0	2	0
79	845	10	10000	2	1	0	2	0
80	846	10	10000	2	1	0	2	0
87	847	10	10000	2	1	0	2	0
100	848	10	10000	2	1	0	2	0
111	849	10	10000	2	1	0	2	0
113	850	10	10000	2	1	0	2	0
108	851	10	10000	2	1	0	2	0
104	852	10	10000	2	1	0	2	0
100	853	10	10000	2	1	0	2	0
96	854	10	10000	2	1	0	2	0
93	855	10	10000	2	1	0	2	0
91	856	10	10000	2	1	0	2	0
90	857	10	10000	2	1	0	2	0
86	858	10	10000	2	1	0	2	0
83	859	10	10000	2	1	0	2	0
78	860	10	10000	2	1	0	2	0
77	861	10	10000	2	1	0	2	0
75	862	10	10000	2	1	0	2	0
74	863	10	10000	2	1	0	2	0
73	864	10	10000	2	1	0	2	0
73	865	10	10000	2	1	0	2	0
71	866	10	10000	2	1	0	2	0
69	867	10	10000	2	1	0	2	0
67	868	10	10000	2	1	0	2	0
65	869	10	10000	2	1	0	2	0
63	870	10	10000	2	1	0	2	0
58	871	10	10000	2	1	0	2	0
56	872	10	10000	2	1	0	2	0
55	873	10	10000	2	1	0	2	0
54	874	10	10000	2	1	0	2	0
53	875	10	10000	2	1	0	2	0
52	876	10	10000	2	1	0	2	0
55	877	10	10000	2	1	0	2	0
58	878	10	10000	2	1	0	2	0
59	879	10	10000	2	1	0	2	0
57	880	10	10000	2	1	0	2	0
58	881	10	10000	2	1	0	2	0
60	882	10	10000	2	1	0	2	0
61	883	10	10000	2	1	0	2	0
61	884	10	10000	2	1	0	2	0
59	885	10	10000	2	1	0	2	0
56	886	10	10000	2	1	0	2	0
54	887	10	10000	2	1	0	2	0
54	888	10	10000	2	1	0	2	0
52	889	10	10000	2	1	0	2	0
51	890	10	10000	2	1	0	2	0
52	891	10	10000	2	1	0	2	0
53	892	10	10000	2	1	0	2	0
54	893	10	10000	2	1	0	2	0
54	894	10	10000	2	1	0	2	0
52	895	10	10000	2	1	0	2	0
50	896	10	10000	2	1	0	2	0
49	897	10	10000	2	1	0	2	0
47	898	10	10000	2	1	0	2	0
45	899	10	10000	2	1	0	2	0
43	900	10	10000	2	1	0	2	0
43	901	10	10000	2	1	0	2	0
41	902	10	10000	2	1	0	2	0
39	903	10	10000	2	1	0	2	0
38	904	10	10000	2	1	0	2	0
37	905	10	10000	2	1	0	2	0
37	906	10	10000	2	1	0	2	0
37	907	10	10000	2	1	0	2	0
36	908	10	10000	2	1	0	2	0
35	909	10	10000	2	1	0	2	0
34	910	10	10000	2	1	0	2	0
32	911	10	10000	2	1	0	2	0
31	912	10	10000	2	1	0	2	0
31	913	10	10000	2	1	0	2	0
30	914	10	10000	2	1	0	2	0
29	915	10	10000	2	1	0	2	0
28	916	10	10000	2	1	0	2	0
28	917	10	10000	2	1	0	2	0
25	918	10	10000	2	1	0	2	0
24	919	10	10000	2	1	0	2	0
25	920	10	10000	2	1	0	2	0
27	921	10	10000	2	1	0	2	0
28	922	10	10000	2	1	0	2	0
29	923	10	10000	2	1	0	2	0
27	924	10	10000	2	1	0	2	0
26	925	10	10000	2	1	0	2	0
26	926	10	10000	2	1	0	2	0
24	927	10	10000	2	1	0	2	0
24	928	10	10000	2	1	0	2	0
25	929	10	10000	2	1	0	2	0
28	930	10	10000	2	1	0	2	0
30	931	10	10000	2	1	0	2	0
33	932	10	10000	2	1	0	2	0
32	933	10	10000	2	1	0	2	0
34	934	10	10000	2	1	0	2	0
36	935	10	10000	2	1	0	2	0
37	936	10	10000	2	1	0	2	0
36	937	10	10000	2	1	0	2	0
35	938	10	10000	2	1	0	2	0
33	939	10	10000	2	1	0	2	0
32	940	10	10000	2	1	0	2	0
34	941	10	10000	2	1	0	2	0
32	942	10	10000	2	1	0	2	0
31	943	10	10000	2	1	0	2	0
29	944	10	10000	2	1	0	2	0
28	945	10	10000	2	1	0	2	0
28	946	10	10000	2	1	0	2	0
28	947	10	10000	2	1	0	2	0
27	948	10	10000	2	1	0	2	0
27	949	10	10000	2	1	0	2	0
26	950	10	10000	2	1	0	2	0
23	951	10	10000	2	1	0	2	0
23	952	10	10000	2	1	0	2	0
22	953	10	10000	2	1	0	2	0
22	954	10	10000	2	1	0	2	0
22	955	10	10000	2	1	0	2	0
21	956	10	10000	2	1	0	2	0
21	957	10	10000	2	1	0	2	0
21	958	10	10000	2	1	0	2	0
20	959	10	10000	2	1	0	2	0
19	960	10	10000	2	1	0	2	0
21	961	10	10000	2	1	0	2	0
21	962	10	10000	2	1	0	2	0
20	963	10	10000	2	1	0	2	0
20	964	10	10000	2	1	0	2	0
20	965	10	10000	2	1	0	2	0
21	966	10	10000	2	1	0	2	0
21	967	10	10000	2	1	0	2	0
22	968	10	10000	2	1	0	2	0
22	969	10	10000	2	1	0	2	0
22	970	10	10000	2	1	0	2	0
19	971	10	10000	2	1	0	2	0
19	972	10	10000	2	1	0	2	0
19	973	10	10000	2	1	0	2	0
21	974	10	10000	2	1	0	2	0
22	975	10	10000	2	1	0	2	0
22	976	10	10000	2	1	0	2	0
22	977	10	10000	2	1	0	2	0
21	978	10	10000	2	1	0	2	0
20	979	10	10000	2	1	0	2	0
20	980	10	10000	2	1	0	2	0
21	981	10	10000	2	1	0	2	0
20	982	10	10000	2	1	0	2	0
19	983	10	10000	2	1	0	2	0
19	984	10	10000	2	1	0	2	0
17	985	10	10000	2	1	0	2	0
17	986	10	10000	2	1	0	2	0
18	987	10	10000	2	1	0	2	0
17	988	10	10000	2	1	0	2	0
17	989	10	10000	2	1	0	2	0
17	990	10	10000	2	1	0	2	0
15	991	10	10000	2	1	0	2	0
17	992	10	10000	2	1	0	2	0
19	993	10	10000	2	1	0	2	0
19	994	10	10000	2	1	0	2	0
19	995	10	10000	2	1	0	2	0
19	996	10	10000	2	1	0	2	0
20	997	10	10000	2	1	0	2	0
19	998	10	10000	2	1	0	2	0
19	999	10	10000	2	1	0	2	0
20	1000	10	10000	2	1	0	2	0
21	1001	10	10000	2	1	0	2	0
16	2	1	10000	3	1	0	3	0
16	3	1	10000	3	1	0	3	0
15	4	1	10000	3	1	0	3	0
15	5	1	10000	3	1	0	3	0
15	6	1	10000	3	1	0	3	0
13	7	1	10000	3	1	0	3	0
12	8	1	10000	3	1	0	3	0
13	9	1	10000	3	1	0	3	0
13	10	1	10000	3	1	0	3	0
13	11	1	10000	3	1	0	3	0
13	12	1	10000	3	1	0	3	0
13	13	1	10000	3	1	0	3	0
13	14	1	10000	3	1	0	3	0
13	15	1	10000	3	1	0	3	0
12	16	1	10000	3	1	0	3	0
15	17	1	10000	3	1	0	3	0
15	18	1	10000	3	1	0	3	0
15	19	1	10000	3	1	0	3	0
14	20	1	10000	3	1	0	3	0
13	21	1	10000	3	1	0	3	0
14	21	1	10000	3	1	0	3	0
13	22	1	10000	3	1	0	3	0
13	24	1	10000	3	1	0	3	0
14	25	1	10000	3	1	0	3	0
14	26	1	10000	3	1	0	3	0
11	27	1	10000	3	1	0	3	0
11	28	1	10000	3	1	0	3	0
11	29	1	10000	3	1	0	3	0
12	30	1	10000	3	1	0	3	0
12	31	1	10000	3	1	0	3	0
13	31	1	10000	3	1	0	3	0
12	32	1	10000	3	1	0	3	0
12	34	1	10000	3	1	0	3	0
12	35	1	10000	3	1	0	3	0
11	36	1	10000	3	1	0	3	0
13	37	1	10000	3	1	0	3	0
13	38	1	10000	3	1	0	3	0
12	39	1	10000	3	1	0	3	0
11	40	1	10000	3	1	0	3	0
11	41	1	10000	3	1	0	3	0
11	41	1	10000	3	1	0	3	0
11	42	1	10000	3	1	0	3	0
11	44	1	10000	3	1	0	3	0
11	45	1	10000	3	1	0	3	0
12	46	1	10000	3	1	0	3	0
10	47	1	10000	3	1	0	3	0
11	48	1	10000	3	1	0	3	0
12	49	1	10000	3	1	0	3	0
12	50	1	10000	3	1	0	3	0
11	51	1	10000	3	1	0	3	0
11	51	1	10000	3	1	0	3	0
11	52	1	10000	3	1	0	3	0
11	54	1	10000	3	1	0	3	0
10	55	1	10000	3	1	0	3	0
9	56	1	10000	3	1	0	3	0
12	57	1	10000	3	1	0	3	0
12	58	1	10000	3	1	0	3	0
11	59	1	10000	3	1	0	3	0
11	60	1	10000	3	1	0	3	0
12	61	1	10000	3	1	0	3	0
12	61	1	10000	3	1	0	3	0
12	62	1	10000	3	1	0	3	0
13	64	1	10000	3	1	0	3	0
12	65	1	10000	3	1	0	3	0
12	66	1	10000	3	1	0	3	0
11	67	1	10000	3	1	0	3	0
10	68	1	10000	3	1	0	3	0
10	69	1	10000	3	1	0	3	0
11	70	1	10000	3	1	0	3	0
10	71	1	10000	3	1	0	3	0
10	71	1	10000	3	1	0	3	0
11	72	1	10000	3	1	0	3	0
10	74	1	10000	3	1	0	3	0
10	75	1	10000	3	1	0	3	0
10	76	1	10000	3	1	0	3	0
12	77	1	10000	3	1	0	3	0
12	78	1	10000	3	1	0	3	0
11	79	1	10000	3	1	0	3	0
11	80	1	10000	3	1	0	3	0
12	81	1	10000	3	1	0	3	0
12	81	1	10000	3	1	0	3	0
12	82	1	10000	3	1	0	3	0
12	84	1	10000	3	1	0	3	0
13	85	1	10000	3	1	0	3	0
13	86	1	10000	3	1	0	3	0
11	87	1	10000	3	1	0	3	0
12	88	1	10000	3	1	0	3	0
12	89	1	10000	3	1	0	3	0
12	90	1	10000	3	1	0	3	0
12	91	1	10000	3	1	0	3	0
12	91	1	10000	3	1	0	3	0
13	92	1	10000	3	1	0	3	0
12	94	1	10000	3	1	0	3	0
11	95	1	10000	3	1	0	3	0
11	96	1	10000	3	1	0	3	0
14	97	1	10000	3	1	0	3	0
14	98	1	10000	3	1	0	3	0
14	99	1	10000	3	1	0	3	0
15	100	1	10000	3	1	0	3	0
16	101	1	10000	3	1	0	3	0
18	101	1	10000	3	1	0	3	0
18	102	1	10000	3	1	0	3	0
19	104	1	10000	3	1	0	3	0
20	105	1	10000	3	1	0	3	0
20	106	1	10000	3	1	0	3	0
19	107	1	10000	3	1	0	3	0
20	108	1	10000	3	1	0	3	0
20	109	1	10000	3	1	0	3	0
23	110	1	10000	3	1	0	3	0
26	111	1	10000	3	1	0	3	0
28	111	1	10000	3	1	0	3	0
29	112	1	10000	3	1	0	3	0
29	114	1	10000	3	1	0	3	0
29	115	1	10000	3	1	0	3	0
29	116	1	10000	3	1	0	3	0
33	117	1	10000	3	1	0	3	0
35	118	1	10000	3	1	0	3	0
37	119	1	10000	3	1	0	3	0
39	120	1	10000	3	1	0	3	0
43	121	1	10000	3	1	0	3	0
44	121	1	10000	3	1	0	3	0
47	122	1	10000	3	1	0	3	0
50	124	1	10000	3	1	0	3	0
52	125	1	10000	3	1	0	3	0
54	126	1	10000	3	1	0	3	0
54	127	1	10000	3	1	0	3	0
56	128	1	10000	3	1	0	3	0
57	129	1	10000	3	1	0	3	0
58	130	1	10000	3	1	0	3	0
58	131	1	10000	3	1	0	3	0
56	131	1	10000	3	1	0	3	0
56	132	1	10000	3	1	0	3	0
56	134	1	10000	3	1	0	3	0
55	135	1	10000	3	1	0	3	0
54	136	1	10000	3	1	0	3	0
57	137	1	10000	3	1	0	3	0
55	138	1	10000	3	1	0	3	0
52	139	1	10000	3	1	0	3	0
50	140	1	10000	3	1	0	3	0
48	141	1	10000	3	1	0	3	0
47	141	1	10000	3	1	0	3	0
45	142	1	10000	3	1	0	3	0
45	144	1	10000	3	1	0	3	0
45	145	1	10000	3	1	0	3	0
45	146	1	10000	3	1	0	3	0
42	147	1	10000	3	1	0	3	0
43	148	1	10000	3	1	0	3	0
44	149	1	10000	3	1	0	3	0
45	150	1	10000	3	1	0	3	0
47	151	1	10000	3	1	0	3	0
48	151	1	10000	3	1	0	3	0
50	152	1	10000	3	1	0	3	0
51	154	1	10000	3	1	0	3	0
52	155	1	10000	3	1	0	3	0
52	156	1	10000	3	1	0	3	0
56	157	1	10000	3	1	0	3	0
57	158	1	10000	3	1	0	3	0
59	159	1	10000	3	1	0	3	0
60	160	1	10000	3	1	0	3	0
60	161	1	10000	3	1	0	3	0
61	161	1	10000	3	1	0	3	0
62	162	1	10000	3	1	0	3	0
62	164	1	10000	3	1	0	3	0
64	165	1	10000	3	1	0	3	0
66	166	1	10000	3	1	0	3	0
64	167	1	10000	3	1	0	3	0
65	168	1	10000	3	1	0	3	0
66	169	1	10000	3	1	0	3	0
66	170	1	10000	3	1	0	3	0
65	171	1	10000	3	1	0	3	0
66	171	1	10000	3	1	0	3	0
65	172	1	10000	3	1	0	3	0
64	174	1	10000	3	1	0	3	0
64	175	1	10000	3	1	0	3	0
63	176	1	10000	3	1	0	3	0
65	177	1	10000	3	1	0	3	0
63	178	1	10000	3	1	0	3	0
61	179	1	10000	3	1	0	3	0
58	180	1	10000	3	1	0	3	0
57	181	1	10000	3	1	0	3	0
55	181	1	10000	3	1	0	3	0
52	182	1	10000	3	1	0	3	0
52	184	1	10000	3	1	0	3	0
52	185	1	10000	3	1	0	3	0
51	186	1	10000	3	1	0	3	0
49	187	1	10000	3	1	0	3	0
49	188	1	10000	3	1	0	3	0
48	189	1	10000	3	1	0	3	0
48	190	1	10000	3	1	0	3	0
48	191	1	10000	3	1	0	3	0
48	191	1	10000	3	1	0	3	0
49	192	1	10000	3	1	0	3	0
48	194	1	10000	3	1	0	3	0
49	195	1	10000	3	1	0	3	0
50	196	1	10000	3	1	0	3	0
54	197	1	10000	3	1	0	3	0
55	198	1	10000	3	1	0	3	0
55	199	1	10000	3	1	0	3	0
55	200	1	10000	3	1	0	3	0
56	201	1	10000	3	1	0	3	0
56	201	1	10000	3	1	0	3	0
57	202	1	10000	3	1	0	3	0
60	204	1	10000	3	1	0	3	0
61	205	1	10000	3	1	0	3	0
61	206	1	10000	3	1	0	3	0
58	207	1	10000	3	1	0	3	0
57	208	1	10000	3	1	0	3	0
56	209	1	10000	3	1	0	3	0
55	210	1	10000	3	1	0	3	0
55	211	1	10000	3	1	0	3	0
55	211	1	10000	3	1	0	3	0
54	212	1	10000	3	1	0	3	0
53	214	1	10000	3	1	0	3	0
51	215	1	10000	3	1	0	3	0
49	216	1	10000	3	1	0	3	0
48	217	1	10000	3	1	0	3	0
47	218	1	10000	3	1	0	3	0
44	219	1	10000	3	1	0	3	0
42	220	1	10000	3	1	0	3	0
41	221	1	10000	3	1	0	3	0
40	221	1	10000	3	1	0	3	0
40	222	1	10000	3	1	0	3	0
38	224	1	10000	3	1	0	3	0
38	225	1	10000	3	1	0	3	0
37	226	1	10000	3	1	0	3	0
35	227	1	10000	3	1	0	3	0
35	228	1	10000	3	1	0	3	0
34	229	1	10000	3	1	0	3	0
34	230	1	10000	3	1	0	3	0
34	231	1	10000	3	1	0	3	0
35	231	1	10000	3	1	0	3	0
35	232	1	10000	3	1	0	3	0
34	234	1	10000	3	1	0	3	0
35	235	1	10000	3	1	0	3	0
37	236	1	10000	3	1	0	3	0
39	237	1	10000	3	1	0	3	0
39	238	1	10000	3	1	0	3	0
40	239	1	10000	3	1	0	3	0
39	240	1	10000	3	1	0	3	0
39	241	1	10000	3	1	0	3	0
38	241	1	10000	3	1	0	3	0
37	242	1	10000	3	1	0	3	0
37	244	1	10000	3	1	0	3	0
37	245	1	10000	3	1	0	3	0
38	246	1	10000	3	1	0	3	0
35	247	1	10000	3	1	0	3	0
35	248	1	10000	3	1	0	3	0
36	249	1	10000	3	1	0	3	0
35	250	1	10000	3	1	0	3	0
35	251	1	10000	3	1	0	3	0
35	251	1	10000	3	1	0	3	0
35	252	1	10000	3	1	0	3	0
33	254	1	10000	3	1	0	3	0
32	255	1	10000	3	1	0	3	0
31	256	1	10000	3	1	0	3	0
32	257	1	10000	3	1	0	3	0
32	258	1	10000	3	1	0	3	0
30	259	1	10000	3	1	0	3	0
30	260	1	10000	3	1	0	3	0
31	261	1	10000	3	1	0	3	0
31	261	1	10000	3	1	0	3	0
30	262	1	10000	3	1	0	3	0
30	264	1	10000	3	1	0	3	0
31	265	1	10000	3	1	0	3	0
31	266	1	10000	3	1	0	3	0
29	267	1	10000	3	1	0	3	0
29	268	1	10000	3	1	0	3	0
28	269	1	10000	3	1	0	3	0
27	270	1	10000	3	1	0	3	0
26	271	1	10000	3	1	0	3	0
25	271	1	10000	3	1	0	3	0
26	272	1	10000	3	1	0	3	0
25	274	1	10000	3	1	0	3	0
24	275	1	10000	3	1	0	3	0
23	276	1	10000	3	1	0	3	0
25	277	1	10000	3	1	0	3	0
24	278	1	10000	3	1	0	3	0
23	279	1	10000	3	1	0	3	0
23	280	1	10000	3	1	0	3	0
22	281	1	10000	3	1	0	3	0
21	281	1	10000	3	1	0	3	0
21	282	1	10000	3	1	0	3	0
21	284	1	10000	3	1	0	3	0
21	285	1	10000	3	1	0	3	0
20	286	1	10000	3	1	0	3	0
19	287	1	10000	3	1	0	3	0
18	288	1	10000	3	1	0	3	0
18	289	1	10000	3	1	0	3	0
19	290	1	10000	3	1	0	3	0
19	291	1	10000	3	1	0	3	0
19	291	1	10000	3	1	0	3	0
18	292	1	10000	3	1	0	3	0
18	294	1	10000	3	1	0	3	0
18	295	1	10000	3	1	0	3	0
18	296	1	10000	3	1	0	3	0
20	297	1	10000	3	1	0	3	0
19	298	1	10000	3	1	0	3	0
18	299	1	10000	3	1	0	3	0
18	300	1	10000	3	1	0	3	0
18	301	1	10000	3	1	0	3	0
17	301	1	10000	3	1	0	3	0
18	302	1	10000	3	1	0	3	0
17	304	1	10000	3	1	0	3	0
17	305	1	10000	3	1	0	3	0
18	306	1	10000	3	1	0	3	0
15	307	1	10000	3	1	0	3	0
15	308	1	10000	3	1	0	3	0
16	309	1	10000	3	1	0	3	0
16	310	1	10000	3	1	0	3	0
16	311	1	10000	3	1	0	3	0
16	311	1	10000	3	1	0	3	0
16	312	1	10000	3	1	0	3	0
15	314	1	10000	3	1	0	3	0
15	315	1	10000	3	1	0	3	0
14	316	1	10000	3	1	0	3	0
15	317	1	10000	3	1	0	3	0
15	318	1	10000	3	1	0	3	0
13	319	1	10000	3	1	0	3	0
13	320	1	10000	3	1	0	3	0
13	321	1	10000	3	1	0	3	0
13	321	1	10000	3	1	0	3	0
12	322	1	10000	3	1	0	3	0
13	324	1	10000	3	1	0	3	0
13	325	1	10000	3	1	0	3	0
13	326	1	10000	3	1	0	3	0
11	327	1	10000	3	1	0	3	0
11	328	1	10000	3	1	0	3	0
11	329	1	10000	3	1	0	3	0
11	330	1	10000	3	1	0	3	0
11	331	1	10000	3	1	0	3	0
12	331	1	10000	3	1	0	3	0
11	332	1	10000	3	1	0	3	0
10	334	1	10000	3	1	0	3	0
10	335	1	10000	3	1	0	3	0
9	336	1	10000	3	1	0	3	0
11	337	1	10000	3	1	0	3	0
11	338	1	10000	3	1	0	3	0
11	339	1	10000	3	1	0	3	0
10	340	1	10000	3	1	0	3	0
10	341	1	10000	3	1	0	3	0
10	341	1	10000	3	1	0	3	0
9	342	1	10000	3	1	0	3	0
10	344	1	10000	3	1	0	3	0
11	345	1	10000	3	1	0	3	0
11	346	1	10000	3	1	0	3	0
9	347	1	10000	3	1	0	3	0
9	348	1	10000	3	1	0	3	0
9	349	1	10000	3	1	0	3	0
10	350	1	10000	3	1	0	3	0
10	351	1	10000	3	1	0	3	0
10	351	1	10000	3	1	0	3	0
11	352	1	10000	3	1	0	3	0
9	354	1	10000	3	1	0	3	0
9	355	1	10000	3	1	0	3	0
10	356	1	10000	3	1	0	3	0
11	357	1	10000	3	1	0	3	0
12	358	1	10000	3	1	0	3	0
12	359	1	10000	3	1	0	3	0
11	360	1	10000	3	1	0	3	0
11	361	1	10000	3	1	0	3	0
11	361	1	10000	3	1	0	3	0
11	362	1	10000	3	1	0	3	0
12	364	1	10000	3	1	0	3	0
13	365	1	10000	3	1	0	3	0
13	366	1	10000	3	1	0	3	0
12	367	1	10000	3	1	0	3	0
12	368	1	10000	3	1	0	3	0
12	369	1	10000	3	1	0	3	0
13	370	1	10000	3	1	0	3	0
12	371	1	10000	3	1	0	3	0
11	371	1	10000	3	1	0	3	0
12	372	1	10000	3	1	0	3	0
11	374	1	10000	3	1	0	3	0
10	375	1	10000	3	1	0	3	0
10	376	1	10000	3	1	0	3	0
11	377	1	10000	3	1	0	3	0
11	378	1	10000	3	1	0	3	0
11	379	1	10000	3	1	0	3	0
11	380	1	10000	3	1	0	3	0
11	381	1	10000	3	1	0	3	0
10	381	1	10000	3	1	0	3	0
10	382	1	10000	3	1	0	3	0
11	384	1	10000	3	1	0	3	0
12	385	1	10000	3	1	0	3	0
13	386	1	10000	3	1	0	3	0
10	387	1	10000	3	1	0	3	0
11	388	1	10000	3	1	0	3	0
11	389	1	10000	3	1	0	3	0
11	390	1	10000	3	1	0	3	0
11	391	1	10000	3	1	0	3	0
12	391	1	10000	3	1	0	3	0
13	392	1	10000	3	1	0	3	0
12	394	1	10000	3	1	0	3	0
13	395	1	10000	3	1	0	3	0
12	396	1	10000	3	1	0	3	0
14	397	1	10000	3	1	0	3	0
14	398	1	10000	3	1	0	3	0
14	399	1	10000	3	1	0	3	0
13	400	1	10000	3	1	0	3	0
12	401	1	10000	3	1	0	3	0
14	401	1	10000	3	1	0	3	0
14	402	1	10000	3	1	0	3	0
14	404	1	10000	3	1	0	3	0
14	405	1	10000	3	1	0	3	0
15	406	1	10000	3	1	0	3	0
13	407	1	10000	3	1	0	3	0
14	408	1	10000	3	1	0	3	0
13	409	1	10000	3	1	0	3	0
14	410	1	10000	3	1	0	3	0
14	411	1	10000	3	1	0	3	0
14	411	1	10000	3	1	0	3	0
14	412	1	10000	3	1	0	3	0
13	414	1	10000	3	1	0	3	0
12	415	1	10000	3	1	0	3	0
12	416	1	10000	3	1	0	3	0
14	417	1	10000	3	1	0	3	0
13	418	1	10000	3	1	0	3	0
13	419	1	10000	3	1	0	3	0
12	420	1	10000	3	1	0	3	0
13	421	1	10000	3	1	0	3	0
13	421	1	10000	3	1	0	3	0
13	422	1	10000	3	1	0	3	0
13	424	1	10000	3	1	0	3	0
13	425	1	10000	3	1	0	3	0
13	426	1	10000	3	1	0	3	0
11	427	1	10000	3	1	0	3	0
11	428	1	10000	3	1	0	3	0
10	429	1	10000	3	1	0	3	0
11	430	1	10000	3	1	0	3	0
11	431	1	10000	3	1	0	3	0
11	431	1	10000	3	1	0	3	0
11	432	1	10000	3	1	0	3	0
11	434	1	10000	3	1	0	3	0
10	435	1	10000	3	1	0	3	0
10	436	1	10000	3	1	0	3	0
13	437	1	10000	3	1	0	3	0
13	438	1	10000	3	1	0	3	0
12	439	1	10000	3	1	0	3	0
13	440	1	10000	3	1	0	3	0
13	441	1	10000	3	1	0	3	0
12	441	1	10000	3	1	0	3	0
12	442	1	10000	3	1	0	3	0
12	444	1	10000	3	1	0	3	0
12	445	1	10000	3	1	0	3	0
12	446	1	10000	3	1	0	3	0
10	447	1	10000	3	1	0	3	0
11	448	1	10000	3	1	0	3	0
11	449	1	10000	3	1	0	3	0
11	450	1	10000	3	1	0	3	0
12	451	1	10000	3	1	0	3	0
12	451	1	10000	3	1	0	3	0
12	452	1	10000	3	1	0	3	0
11	454	1	10000	3	1	0	3	0
11	455	1	10000	3	1	0	3	0
11	456	1	10000	3	1	0	3	0
13	457	1	10000	3	1	0	3	0
13	458	1	10000	3	1	0	3	0
13	459	1	10000	3	1	0	3	0
13	460	1	10000	3	1	0	3	0
13	461	1	10000	3	1	0	3	0
14	461	1	10000	3	1	0	3	0
14	462	1	10000	3	1	0	3	0
13	464	1	10000	3	1	0	3	0
14	465	1	10000	3	1	0	3	0
14	466	1	10000	3	1	0	3	0
12	467	1	10000	3	1	0	3	0
12	468	1	10000	3	1	0	3	0
13	469	1	10000	3	1	0	3	0
12	470	1	10000	3	1	0	3	0
14	471	1	10000	3	1	0	3	0
16	471	1	10000	3	1	0	3	0
17	472	1	10000	3	1	0	3	0
19	474	1	10000	3	1	0	3	0
22	475	1	10000	3	1	0	3	0
23	476	1	10000	3	1	0	3	0
27	477	1	10000	3	1	0	3	0
28	478	1	10000	3	1	0	3	0
30	479	1	10000	3	1	0	3	0
32	480	1	10000	3	1	0	3	0
35	481	1	10000	3	1	0	3	0
41	481	1	10000	3	1	0	3	0
46	482	1	10000	3	1	0	3	0
51	484	1	10000	3	1	0	3	0
55	485	1	10000	3	1	0	3	0
59	486	1	10000	3	1	0	3	0
61	487	1	10000	3	1	0	3	0
64	488	1	10000	3	1	0	3	0
70	489	1	10000	3	1	0	3	0
76	490	1	10000	3	1	0	3	0
84	491	1	10000	3	1	0	3	0
93	491	1	10000	3	1	0	3	0
103	492	1	10000	3	1	0	3	0
110	494	1	10000	3	1	0	3	0
116	495	1	10000	3	1	0	3	0
122	496	1	10000	3	1	0	3	0
131	497	1	10000	3	1	0	3	0
138	498	1	10000	3	1	0	3	0
144	499	1	10000	3	1	0	3	0
152	500	1	10000	3	1	0	3	0
160	501	1	10000	3	1	0	3	0
167	502	1	10000	3	1	0	3	1
173	503	1	10000	3	1	0	3	1
177	504	1	10000	3	1	0	3	1
179	505	1	10000	3	1	0	3	1
182	506	1	10000	3	1	0	3	1
183	507	1	10000	3	1	0	3	1
186	508	1	10000	3	1	0	3	1
189	509	1	10000	3	1	0	3	1
192	510	1	10000	3	1	0	3	1
192	511	1	10000	3	1	0	3	1
193	511	1	10000	3	1	0	3	1
193	512	1	10000	3	1	0	3	1
192	514	1	10000	3	1	0	3	1
191	515	1	10000	3	1	0	3	1
190	516	1	10000	3	1	0	3	1
189	517	1	10000	3	1	0	3	1
186	518	1	10000	3	1	0	3	1
184	519	1	10000	3	1	0	3	1
181	520	1	10000	3	1	0	3	1
176	521	1	10000	3	1	0	3	1
171	521	1	10000	3	1	0	3	1
165	522	1	10000	3	1	0	3	1
160	524	1	10000	3	1	0	3	1
156	525	1	10000	3	1	0	3	1
150	526	1	10000	3	1	0	3	1
141	527	1	10000	3	1	0	3	1
135	528	1	10000	3	1	0	3	1
129	529	1	10000	3	1	0	3	1
124	530	1	10000	3	1	0	3	1
118	531	1	10000	3	1	0	3	1
114	531	1	10000	3	1	0	3	1
110	532	1	10000	3	1	0	3	1
106	534	1	10000	3	1	0	3	1
104	535	1	10000	3	1	0	3	1
104	536	1	10000	3	1	0	3	1
105	537	1	10000	3	1	0	3	1
106	538	1	10000	3	1	0	3	1
107	539	1	10000	3	1	0	3	1
107	540	1	10000	3	1	0	3	1
109	541	1	10000	3	1	0	3	1
111	541	1	10000	3	1	0	3	1
113	542	1	10000	3	1	0	3	1
116	544	1	10000	3	1	0	3	1
118	545	1	10000	3	1	0	3	1
122	546	1	10000	3	1	0	3	1
125	547	1	10000	3	1	0	3	1
130	548	1	10000	3	1	0	3	1
136	549	1	10000	3	1	0	3	1
141	550	1	10000	3	1	0	3	1
148	551	1	10000	3	1	0	3	1
155	551	1	10000	3	1	0	3	0
162	552	1	10000	3	1	0	3	0
167	554	1	10000	3	1	0	3	0
172	555	1	10000	3	1	0	3	0
176	556	1	10000	3	1	0	3	0
185	557	1	10000	3	1	0	3	0
189	558	1	10000	3	1	0	3	0
196	559	1	10000	3	1	0	3	0
202	560	1	10000	3	1	0	3	0
208	561	1	10000	3	1	0	3	0
213	561	1	10000	3	1	0	3	0
218	562	1	10000	3	1	0	3	0
224	564	1	10000	3	1	0	3	0
229	565	1	10000	3	1	0	3	0
232	566	1	10000	3	1	0	3	0
234	567	1	10000	3	1	0	3	0
237	568	1	10000	3	1	0	3	0
239	569	1	10000	3	1	0	3	0
242	570	1	10000	3	1	0	3	0
244	571	1	10000	3	1	0	3	0
243	571	1	10000	3	1	0	3	0
244	572	1	10000	3	1	0	3	0
243	574	1	10000	3	1	0	3	0
241	575	1	10000	3	1	0	3	0
241	576	1	10000	3	1	0	3	0
242	577	1	10000	3	1	0	3	0
240	578	1	10000	3	1	0	3	0
238	579	1	10000	3	1	0	3	0
236	580	1	10000	3	1	0	3	0
233	581	1	10000	3	1	0	3	0
229	581	1	10000	3	1	0	3	0
222	582	1	10000	3	1	0	3	0
216	584	1	10000	3	1	0	3	0
213	585	1	10000	3	1	0	3	0
210	586	1	10000	3	1	0	3	0
200	587	1	10000	3	1	0	3	0
196	588	1	10000	3	1	0	3	0
208	589	1	10000	3	1	0	3	0
263	590	1	10000	3	1	0	3	0
309	591	1	10000	3	1	0	3	0
310	591	1	10000	3	1	0	3	0
314	592	1	10000	3	1	0	3	0
324	594	1	10000	3	1	0	3	0
339	595	1	10000	3	1	0	3	0
331	596	1	10000	3	1	0	3	0
331	597	1	10000	3	1	0	3	0
342	598	1	10000	3	1	0	3	0
338	599	1	10000	3	1	0	3	0
328	600	1	10000	3	1	0	3	0
317	601	1	10000	3	1	0	3	0
325	601	1	10000	3	1	0	3	0
339	602	1	10000	3	1	0	3	0
332	604	1	10000	3	1	0	3	0
345	605	1	10000	3	1	0	3	0
366	606	1	10000	3	1	0	3	0
366	607	1	10000	3	1	0	3	0
356	608	1	10000	3	1	0	3	0
356	609	1	10000	3	1	0	3	0
342	610	1	10000	3	1	0	3	0
333	611	1	10000	3	1	0	3	0
320	611	1	10000	3	1	0	3	0
305	612	1	10000	3	1	0	3	0
290	614	1	10000	3	1	0	3	0
282	615	1	10000	3	1	0	3	0
278	616	1	10000	3	1	0	3	0
272	617	1	10000	3	1	0	3	0
273	618	1	10000	3	1	0	3	0
292	619	1	10000	3	1	0	3	0
323	620	1	10000	3	1	0	3	0
326	621	1	10000	3	1	0	3	0
327	621	1	10000	3	1	0	3	0
324	622	1	10000	3	1	0	3	0
314	624	1	10000	3	1	0	3	0
307	625	1	10000	3	1	0	3	0
318	626	1	10000	3	1	0	3	0
327	627	1	10000	3	1	0	3	0
329	628	1	10000	3	1	0	3	0
323	629	1	10000	3	1	0	3	0
312	630	1	10000	3	1	0	3	0
301	631	1	10000	3	1	0	3	0
290	631	1	10000	3	1	0	3	0
279	632	1	10000	3	1	0	3	0
265	634	1	10000	3	1	0	3	0
253	635	1	10000	3	1	0	3	0
240	636	1	10000	3	1	0	3	0
232	637	1	10000	3	1	0	3	0
221	638	1	10000	3	1	0	3	0
211	639	1	10000	3	1	0	3	0
203	640	1	10000	3	1	0	3	0
197	641	1	10000	3	1	0	3	0
190	641	1	10000	3	1	0	3	0
183	642	1	10000	3	1	0	3	0
177	644	1	10000	3	1	0	3	0
168	645	1	10000	3	1	0	3	0
162	646	1	10000	3	1	0	3	0
155	647	1	10000	3	1	0	3	0
152	648	1	10000	3	1	0	3	0
149	649	1	10000	3	1	0	3	0
148	650	1	10000	3	1	0	3	0
146	651	1	10000	3	1	0	3	0
144	651	1	10000	3	1	0	3	0
144	652	1	10000	3	1	0	3	0
144	654	1	10000	3	1	0	3	0
145	655	1	10000	3	1	0	3	0
146	656	1	10000	3	1	0	3	0
150	657	1	10000	3	1	0	3	0
151	658	1	10000	3	1	0	3	0
152	659	1	10000	3	1	0	3	0
153	660	1	10000	3	1	0	3	0
154	661	1	10000	3	1	0	3	0
155	661	1	10000	3	1	0	3	0
155	662	1	10000	3	1	0	3	0
156	664	1	10000	3	1	0	3	0
156	665	1	10000	3	1	0	3	0
154	666	1	10000	3	1	0	3	0
150	667	1	10000	3	1	0	3	0
148	668	1	10000	3	1	0	3	0
143	669	1	10000	3	1	0	3	0
139	670	1	10000	3	1	0	3	0
134	671	1	10000	3	1	0	3	0
130	671	1	10000	3	1	0	3	0
127	672	1	10000	3	1	0	3	0
121	674	1	10000	3	1	0	3	0
116	675	1	10000	3	1	0	3	0
111	676	1	10000	3	1	0	3	0
108	677	1	10000	3	1	0	3	0
103	678	1	10000	3	1	0	3	0
99	679	1	10000	3	1	0	3	0
93	680	1	10000	3	1	0	3	0
90	681	1	10000	3	1	0	3	0
87	681	1	10000	3	1	0	3	0
82	682	1	10000	3	1	0	3	0
81	684	1	10000	3	1	0	3	0
79	685	1	10000	3	1	0	3	0
78	686	1	10000	3	1	0	3	0
76	687	1	10000	3	1	0	3	0
75	688	1	10000	3	1	0	3	0
76	689	1	10000	3	1	0	3	0
76	690	1	10000	3	1	0	3	0
76	691	1	10000	3	1	0	3	0
75	691	1	10000	3	1	0	3	0
75	692	1	10000	3	1	0	3	0
74	694	1	10000	3	1	0	3	0
73	695	1	10000	3	1	0	3	0
72	696	1	10000	3	1	0	3	0
72	697	1	10000	3	1	0	3	0
69	698	1	10000	3	1	0	3	0
67	699	1	10000	3	1	0	3	0
66	700	1	10000	3	1	0	3	0
63	701	1	10000	3	1	0	3	0
62	701	1	10000	3	1	0	3	0
61	702	1	10000	3	1	0	3	0
61	704	1	10000	3	1	0	3	0
61	705	1	10000	3	1	0	3	0
62	706	1	10000	3	1	0	3	0
60	707	1	10000	3	1	0	3	0
62	708	1	10000	3	1	0	3	0
61	709	1	10000	3	1	0	3	0
62	710	1	10000	3	1	0	3	0
63	711	1	10000	3	1	0	3	0
62	711	1	10000	3	1	0	3	0
62	712	1	10000	3	1	0	3	0
60	714	1	10000	3	1	0	3	0
56	715	1	10000	3	1	0	3	0
54	716	1	10000	3	1	0	3	0
54	717	1	10000	3	1	0	3	0
52	718	1	10000	3	1	0	3	0
50	719	1	10000	3	1	0	3	0
48	720	1	10000	3	1	0	3	0
47	721	1	10000	3	1	0	3	0
45	721	1	10000	3	1	0	3	0
44	722	1	10000	3	1	0	3	0
42	724	1	10000	3	1	0	3	0
41	725	1	10000	3	1	0	3	0
40	726	1	10000	3	1	0	3	0
37	727	1	10000	3	1	0	3	0
35	728	1	10000	3	1	0	3	0
34	729	1	10000	3	1	0	3	0
33	730	1	10000	3	1	0	3	0
32	731	1	10000	3	1	0	3	0
31	731	1	10000	3	1	0	3	0
30	732	1	10000	3	1	0	3	0
28	734	1	10000	3	1	0	3	0
28	735	1	10000	3	1	0	3	0
27	736	1	10000	3	1	0	3	0
29	737	1	10000	3	1	0	3	0
28	738	1	10000	3	1	0	3	0
29	739	1	10000	3	1	0	3	0
29	740	1	10000	3	1	0	3	0
30	741	1	10000	3	1	0	3	0
31	741	1	10000	3	1	0	3	0
33	742	1	10000	3	1	0	3	0
32	744	1	10000	3	1	0	3	0
32	745	1	10000	3	1	0	3	0
32	746	1	10000	3	1	0	3	0
28	747	1	10000	3	1	0	3	0
28	748	1	10000	3	1	0	3	0
28	749	1	10000	3	1	0	3	0
28	750	1	10000	3	1	0	3	0
29	751	1	10000	3	1	0	3	0
28	751	1	10000	3	1	0	3	0
28	752	1	10000	3	1	0	3	0
28	754	1	10000	3	1	0	3	0
29	755	1	10000	3	1	0	3	0
30	756	1	10000	3	1	0	3	0
34	757	1	10000	3	1	0	3	0
36	758	1	10000	3	1	0	3	0
38	759	1	10000	3	1	0	3	0
40	760	1	10000	3	1	0	3	0
41	761	1	10000	3	1	0	3	0
40	761	1	10000	3	1	0	3	0
41	762	1	10000	3	1	0	3	0
41	764	1	10000	3	1	0	3	0
41	765	1	10000	3	1	0	3	0
41	766	1	10000	3	1	0	3	0
38	767	1	10000	3	1	0	3	0
38	768	1	10000	3	1	0	3	0
37	769	1	10000	3	1	0	3	0
37	770	1	10000	3	1	0	3	0
35	771	1	10000	3	1	0	3	0
34	771	1	10000	3	1	0	3	0
32	772	1	10000	3	1	0	3	0
32	774	1	10000	3	1	0	3	0
33	775	1	10000	3	1	0	3	0
32	776	1	10000	3	1	0	3	0
34	777	1	10000	3	1	0	3	0
34	778	1	10000	3	1	0	3	0
32	779	1	10000	3	1	0	3	0
32	780	1	10000	3	1	0	3	0
33	781	1	10000	3	1	0	3	0
33	781	1	10000	3	1	0	3	0
33	782	1	10000	3	1	0	3	0
34	784	1	10000	3	1	0	3	0
34	785	1	10000	3	1	0	3	0
33	786	1	10000	3	1	0	3	0
30	787	1	10000	3	1	0	3	0
30	788	1	10000	3	1	0	3	0
29	789	1	10000	3	1	0	3	0
29	790	1	10000	3	1	0	3	0
28	791	1	10000	3	1	0	3	0
28	791	1	10000	3	1	0	3	0
29	792	1	10000	3	1	0	3	0
28	794	1	10000	3	1	0	3	0
28	795	1	10000	3	1	0	3	0
28	796	1	10000	3	1	0	3	0
29	797	1	10000	3	1	0	3	0
29	798	1	10000	3	1	0	3	0
28	799	1	10000	3	1	0	3	0
28	800	1	10000	3	1	0	3	0
26	801	1	10000	3	1	0	3	0
25	801	1	10000	3	1	0	3	0
25	802	1	10000	3	1	0	3	0
24	804	1	10000	3	1	0	3	0
24	805	1	10000	3	1	0	3	0
25	806	1	10000	3	1	0	3	0
25	807	1	10000	3	1	0	3	0
25	808	1	10000	3	1	0	3	0
24	809	1	10000	3	1	0	3	0
26	810	1	10000	3	1	0	3	0
24	811	1	10000	3	1	0	3	0
24	811	1	10000	3	1	0	3	0
24	812	1	10000	3	1	0	3	0
23	814	1	10000	3	1	0	3	0
22	815	1	10000	3	1	0	3	0
21	816	1	10000	3	1	0	3	0
22	817	1	10000	3	1	0	3	0
21	818	1	10000	3	1	0	3	0
20	819	1	10000	3	1	0	3	0
20	820	1	10000	3	1	0	3	0
20	821	1	10000	3	1	0	3	0
19	821	1	10000	3	1	0	3	0
18	822	1	10000	3	1	0	3	0
19	824	1	10000	3	1	0	3	0
18	825	1	10000	3	1	0	3	0
18	826	1	10000	3	1	0	3	0
16	827	1	10000	3	1	0	3	0
16	828	1	10000	3	1	0	3	0
16	829	1	10000	3	1	0	3	0
16	830	1	10000	3	1	0	3	0
16	831	1	10000	3	1	0	3	0
16	831	1	10000	3	1	0	3	0
17	832	1	10000	3	1	0	3	0
18	834	1	10000	3	1	0	3	0
21	835	1	10000	3	1	0	3	0
25	836	1	10000	3	1	0	3	0
31	837	1	10000	3	1	0	3	0
33	838	1	10000	3	1	0	3	0
35	839	1	10000	3	1	0	3	0
35	840	1	10000	3	1	0	3	0
35	841	1	10000	3	1	0	3	0
37	841	1	10000	3	1	0	3	0
37	842	1	10000	3	1	0	3	0
39	844	1	10000	3	1	0	3	0
41	845	1	10000	3	1	0	3	0
42	846	1	10000	3	1	0	3	0
41	847	1	10000	3	1	0	3	0
43	848	1	10000	3	1	0	3	0
47	849	1	10000	3	1	0	3	0
52	850	1	10000	3	1	0	3	0
57	851	1	10000	3	1	0	3	0
60	851	1	10000	3	1	0	3	0
64	852	1	10000	3	1	0	3	0
67	854	1	10000	3	1	0	3	0
72	855	1	10000	3	1	0	3	0
78	856	1	10000	3	1	0	3	0
85	857	1	10000	3	1	0	3	0
90	858	1	10000	3	1	0	3	0
94	859	1	10000	3	1	0	3	0
99	860	1	10000	3	1	0	3	0
103	861	1	10000	3	1	0	3	0
109	861	1	10000	3	1	0	3	0
116	862	1	10000	3	1	0	3	0
123	864	1	10000	3	1	0	3	0
130	865	1	10000	3	1	0	3	0
137	866	1	10000	3	1	0	3	0
141	867	1	10000	3	1	0	3	0
145	868	1	10000	3	1	0	3	0
151	869	1	10000	3	1	0	3	0
155	870	1	10000	3	1	0	3	0
160	871	1	10000	3	1	0	3	0
164	871	1	10000	3	1	0	3	0
166	872	1	10000	3	1	0	3	0
169	874	1	10000	3	1	0	3	0
170	875	1	10000	3	1	0	3	0
171	876	1	10000	3	1	0	3	0
176	877	1	10000	3	1	0	3	0
175	878	1	10000	3	1	0	3	0
176	879	1	10000	3	1	0	3	0
176	880	1	10000	3	1	0	3	0
174	881	1	10000	3	1	0	3	0
172	881	1	10000	3	1	0	3	0
167	882	1	10000	3	1	0	3	0
165	884	1	10000	3	1	0	3	0
163	885	1	10000	3	1	0	3	0
159	886	1	10000	3	1	0	3	0
154	887	1	10000	3	1	0	3	0
153	888	1	10000	3	1	0	3	0
152	889	1	10000	3	1	0	3	0
150	890	1	10000	3	1	0	3	0
146	891	1	10000	3	1	0	3	0
142	891	1	10000	3	1	0	3	0
137	892	1	10000	3	1	0	3	0
130	894	1	10000	3	1	0	3	0
127	895	1	10000	3	1	0	3	0
123	896	1	10000	3	1	0	3	0
124	897	1	10000	3	1	0	3	0
122	898	1	10000	3	1	0	3	0
120	899	1	10000	3	1	0	3	0
118	900	1	10000	3	1	0	3	0
118	901	1	10000	3	1	0	3	0
118	901	1	10000	3	1	0	3	0
120	902	1	10000	3	1	0	3	0
122	904	1	10000	3	1	0	3	0
124	905	1	10000	3	1	0	3	0
129	906	1	10000	3	1	0	3	0
132	907	1	10000	3	1	0	3	0
138	908	1	10000	3	1	0	3	0
147	909	1	10000	3	1	0	3	0
152	910	1	10000	3	1	0	3	0
160	911	1	10000	3	1	0	3	0
168	911	1	10000	3	1	0	3	0
176	912	1	10000	3	1	0	3	0
183	914	1	10000	3	1	0	3	0
189	915	1	10000	3	1	0	3	0
196	916	1	10000	3	1	0	3	0
204	917	1	10000	3	1	0	3	0
210	918	1	10000	3	1	0	3	0
217	919	1	10000	3	1	0	3	0
224	920	1	10000	3	1	0	3	0
229	921	1	10000	3	1	0	3	0
236	921	1	10000	3	1	0	3	0
241	922	1	10000	3	1	0	3	0
247	924	1	10000	3	1	0	3	0
252	925	1	10000	3	1	0	3	0
258	926	1	10000	3	1	0	3	0
260	927	1	10000	3	1	0	3	0
264	928	1	10000	3	1	0	3	0
266	929	1	10000	3	1	0	3	0
267	930	1	10000	3	1	0	3	0
266	931	1	10000	3	1	0	3	0
265	931	1	10000	3	1	0	3	0
265	932	1	10000	3	1	0	3	0
263	934	1	10000	3	1	0	3	0
262	935	1	10000	3	1	0	3	0
261	936	1	10000	3	1	0	3	0
263	937	1	10000	3	1	0	3	0
261	938	1	10000	3	1	0	3	0
258	939	1	10000	3	1	0	3	0
255	940	1	10000	3	1	0	3	0
252	941	1	10000	3	1	0	3	0
247	941	1	10000	3	1	0	3	0
242	942	1	10000	3	1	0	3	0
239	944	1	10000	3	1	0	3	0
233	945	1	10000	3	1	0	3	0
228	946	1	10000	3	1	0	3	0
220	947	1	10000	3	1	0	3	0
214	948	1	10000	3	1	0	3	0
209	949	1	10000	3	1	0	3	0
203	950	1	10000	3	1	0	3	0
199	951	1	10000	3	1	0	3	0
194	951	1	10000	3	1	0	3	0
189	952	1	10000	3	1	0	3	0
183	954	1	10000	3	1	0	3	0
177	955	1	10000	3	1	0	3	0
172	956	1	10000	3	1	0	3	0
168	957	1	10000	3	1	0	3	0
163	958	1	10000	3	1	0	3	0
159	959	1	10000	3	1	0	3	0
153	960	1	10000	3	1	0	3	0
148	961	1	10000	3	1	0	3	0
143	961	1	10000	3	1	0	3	0
139	962	1	10000	3	1	0	3	0
136	964	1	10000	3	1	0	3	0
132	965	1	10000	3	1	0	3	0
129	966	1	10000	3	1	0	3	0
123	967	1	10000	3	1	0	3	0
118	968	1	10000	3	1	0	3	0
113	969	1	10000	3	1	0	3	0
109	970	1	10000	3	1	0	3	0
104	971	1	10000	3	1	0	3	0
100	971	1	10000	3	1	0	3	0
96	972	1	10000	3	1	0	3	0
91	974	1	10000	3	1	0	3	0
88	975	1	10000	3	1	0	3	0
84	976	1	10000	3	1	0	3	0
82	977	1	10000	3	1	0	3	0
78	978	1	10000	3	1	0	3	0
77	979	1	10000	3	1	0	3	0
74	980	1	10000	3	1	0	3	0
72	981	1	10000	3	1	0	3	0
70	981	1	10000	3	1	0	3	0
68	982	1	10000	3	1	0	3	0
66	984	1	10000	3	1	0	3	0
64	985	1	10000	3	1	0	3	0
61	986	1	10000	3	1	0	3	0
56	987	1	10000	3	1	0	3	0
55	988	1	10000	3	1	0	3	0
53	989	1	10000	3	1	0	3	0
52	990	1	10000	3	1	0	3	0
50	991	1	10000	3	1	0	3	0
48	991	1	10000	3	1	0	3	0
48	992	1	10000	3	1	0	3	0
48	994	1	10000	3	1	0	3	0
47	995	1	10000	3	1	0	3	0
46	996	1	10000	3	1	0	3	0
48	997	1	10000	3	1	0	3	0
46	998	1	10000	3	1	0	3	0
44	999	1	10000	3	1	0	3	0
42	1000	1	10000	3	1	0	3	0
41	1001	1	10000	3	1	0	3	0
128	2	0	10000	4	1	0	4	0
127	3	0	10000	4	1	0	4	0
128	4	0	10000	4	1	0	4	0
129	5	0	10000	4	1	0	4	0
127	6	0	10000	4	1	0	4	0
127	7	0	10000	4	1	0	4	0
128	8	0	10000	4	1	0	4	0
127	9	0	10000	4	1	0	4	0
126	10	0	10000	4	1	0	4	0
125	11	0	10000	4	1	0	4	0
123	12	0	10000	4	1	0	4	0
121	13	0	10000	4	1	0	4	0
120	14	0	10000	4	1	0	4	0
117	15	0	10000	4	1	0	4	0
118	16	0	10000	4	1	0	4	0
116	17	0	10000	4	1	0	4	0
114	18	0	10000	4	1	0	4	0
112	19	0	10000	4	1	0	4	0
109	20	0	10000	4	1	0	4	0
106	21	0	10000	4	1	0	4	0
103	22	0	10000	4	1	0	4	0
101	23	0	10000	4	1	0	4	0
98	24	0	10000	4	1	0	4	0
95	25	0	10000	4	1	0	4	0
90	26	0	10000	4	1	0	4	0
87	27	0	10000	4	1	0	4	0
85	28	0	10000	4	1	0	4	0
83	29	0	10000	4	1	0	4	0
82	30	0	10000	4	1	0	4	0
81	31	0	10000	4	1	0	4	0
80	32	0	10000	4	1	0	4	0
77	33	0	10000	4	1	0	4	0
75	34	0	10000	4	1	0	4	0
73	35	0	10000	4	1	0	4	0
72	36	0	10000	4	1	0	4	0
71	37	0	10000	4	1	0	4	0
68	38	0	10000	4	1	0	4	0
66	39	0	10000	4	1	0	4	0
64	40	0	10000	4	1	0	4	0
61	41	0	10000	4	1	0	4	0
58	42	0	10000	4	1	0	4	0
57	43	0	10000	4	1	0	4	0
54	44	0	10000	4	1	0	4	0
54	45	0	10000	4	1	0	4	0
50	46	0	10000	4	1	0	4	0
48	47	0	10000	4	1	0	4	0
46	48	0	10000	4	1	0	4	0
45	49	0	10000	4	1	0	4	0
44	50	0	10000	4	1	0	4	0
43	51	0	10000	4	1	0	4	0
42	52	0	10000	4	1	0	4	0
39	53	0	10000	4	1	0	4	0
37	54	0	10000	4	1	0	4	0
36	55	0	10000	4	1	0	4	0
37	56	0	10000	4	1	0	4	0
36	57	0	10000	4	1	0	4	0
35	58	0	10000	4	1	0	4	0
33	59	0	10000	4	1	0	4	0
32	60	0	10000	4	1	0	4	0
31	61	0	10000	4	1	0	4	0
29	62	0	10000	4	1	0	4	0
29	63	0	10000	4	1	0	4	0
28	64	0	10000	4	1	0	4	0
27	65	0	10000	4	1	0	4	0
25	66	0	10000	4	1	0	4	0
24	67	0	10000	4	1	0	4	0
23	68	0	10000	4	1	0	4	0
24	69	0	10000	4	1	0	4	0
23	70	0	10000	4	1	0	4	0
23	71	0	10000	4	1	0	4	0
23	72	0	10000	4	1	0	4	0
23	73	0	10000	4	1	0	4	0
23	74	0	10000	4	1	0	4	0
24	75	0	10000	4	1	0	4	0
26	76	0	10000	4	1	0	4	0
26	77	0	10000	4	1	0	4	0
26	78	0	10000	4	1	0	4	0
25	79	0	10000	4	1	0	4	0
25	80	0	10000	4	1	0	4	0
25	81	0	10000	4	1	0	4	0
26	82	0	10000	4	1	0	4	0
27	83	0	10000	4	1	0	4	0
28	84	0	10000	4	1	0	4	0
28	85	0	10000	4	1	0	4	0
25	86	0	10000	4	1	0	4	0
25	87	0	10000	4	1	0	4	0
25	88	0	10000	4	1	0	4	0
26	89	0	10000	4	1	0	4	0
26	90	0	10000	4	1	0	4	0
26	91	0	10000	4	1	0	4	0
27	92	0	10000	4	1	0	4	0
27	93	0	10000	4	1	0	4	0
26	94	0	10000	4	1	0	4	0
24	95	0	10000	4	1	0	4	0
25	96	0	10000	4	1	0	4	0
24	97	0	10000	4	1	0	4	0
23	98	0	10000	4	1	0	4	0
22	99	0	10000	4	1	0	4	0
23	100	0	10000	4	1	0	4	0
26	101	0	10000	4	1	0	4	0
27	102	0	10000	4	1	0	4	0
27	103	0	10000	4	1	0	4	0
27	104	0	10000	4	1	0	4	0
27	105	0	10000	4	1	0	4	0
24	106	0	10000	4	1	0	4	0
24	107	0	10000	4	1	0	4	0
22	108	0	10000	4	1	0	4	0
21	109	0	10000	4	1	0	4	0
22	110	0	10000	4	1	0	4	0
21	111	0	10000	4	1	0	4	0
20	112	0	10000	4	1	0	4	0
20	113	0	10000	4	1	0	4	0
19	114	0	10000	4	1	0	4	0
18	115	0	10000	4	1	0	4	0
19	116	0	10000	4	1	0	4	0
19	117	0	10000	4	1	0	4	0
19	118	0	10000	4	1	0	4	0
19	119	0	10000	4	1	0	4	0
19	120	0	10000	4	1	0	4	0
19	121	0	10000	4	1	0	4	0
21	122	0	10000	4	1	0	4	0
22	123	0	10000	4	1	0	4	0
23	124	0	10000	4	1	0	4	0
23	125	0	10000	4	1	0	4	0
20	126	0	10000	4	1	0	4	0
20	127	0	10000	4	1	0	4	0
20	128	0	10000	4	1	0	4	0
21	129	0	10000	4	1	0	4	0
22	130	0	10000	4	1	0	4	0
22	131	0	10000	4	1	0	4	0
22	132	0	10000	4	1	0	4	0
21	133	0	10000	4	1	0	4	0
21	134	0	10000	4	1	0	4	0
22	135	0	10000	4	1	0	4	0
23	136	0	10000	4	1	0	4	0
22	137	0	10000	4	1	0	4	0
21	138	0	10000	4	1	0	4	0
21	139	0	10000	4	1	0	4	0
22	140	0	10000	4	1	0	4	0
23	141	0	10000	4	1	0	4	0
23	142	0	10000	4	1	0	4	0
22	143	0	10000	4	1	0	4	0
23	144	0	10000	4	1	0	4	0
22	145	0	10000	4	1	0	4	0
19	146	0	10000	4	1	0	4	0
20	147	0	10000	4	1	0	4	0
20	148	0	10000	4	1	0	4	0
19	149	0	10000	4	1	0	4	0
19	150	0	10000	4	1	0	4	0
18	151	0	10000	4	1	0	4	0
19	152	0	10000	4	1	0	4	0
19	153	0	10000	4	1	0	4	0
20	154	0	10000	4	1	0	4	0
20	155	0	10000	4	1	0	4	0
21	156	0	10000	4	1	0	4	0
20	157	0	10000	4	1	0	4	0
20	158	0	10000	4	1	0	4	0
19	159	0	10000	4	1	0	4	0
20	160	0	10000	4	1	0	4	0
20	161	0	10000	4	1	0	4	0
20	162	0	10000	4	1	0	4	0
21	163	0	10000	4	1	0	4	0
22	164	0	10000	4	1	0	4	0
21	165	0	10000	4	1	0	4	0
20	166	0	10000	4	1	0	4	0
19	167	0	10000	4	1	0	4	0
19	168	0	10000	4	1	0	4	0
18	169	0	10000	4	1	0	4	0
19	170	0	10000	4	1	0	4	0
19	171	0	10000	4	1	0	4	0
19	172	0	10000	4	1	0	4	0
17	173	0	10000	4	1	0	4	0
17	174	0	10000	4	1	0	4	0
18	175	0	10000	4	1	0	4	0
19	176	0	10000	4	1	0	4	0
20	177	0	10000	4	1	0	4	0
20	178	0	10000	4	1	0	4	0
20	179	0	10000	4	1	0	4	0
20	180	0	10000	4	1	0	4	0
19	181	0	10000	4	1	0	4	0
18	182	0	10000	4	1	0	4	0
18	183	0	10000	4	1	0	4	0
19	184	0	10000	4	1	0	4	0
18	185	0	10000	4	1	0	4	0
17	186	0	10000	4	1	0	4	0
17	187	0	10000	4	1	0	4	0
17	188	0	10000	4	1	0	4	0
18	189	0	10000	4	1	0	4	0
17	190	0	10000	4	1	0	4	0
18	191	0	10000	4	1	0	4	0
19	192	0	10000	4	1	0	4	0
18	193	0	10000	4	1	0	4	0
18	194	0	10000	4	1	0	4	0
17	195	0	10000	4	1	0	4	0
20	196	0	10000	4	1	0	4	0
20	197	0	10000	4	1	0	4	0
21	198	0	10000	4	1	0	4	0
21	199	0	10000	4	1	0	4	0
21	200	0	10000	4	1	0	4	0
20	201	0	10000	4	1	0	4	0
20	202	0	10000	4	1	0	4	0
20	203	0	10000	4	1	0	4	0
20	204	0	10000	4	1	0	4	0
19	205	0	10000	4	1	0	4	0
18	206	0	10000	4	1	0	4	0
17	207	0	10000	4	1	0	4	0
20	208	0	10000	4	1	0	4	0
21	209	0	10000	4	1	0	4	0
24	210	0	10000	4	1	0	4	0
28	211	0	10000	4	1	0	4	0
32	212	0	10000	4	1	0	4	0
32	213	0	10000	4	1	0	4	0
31	214	0	10000	4	1	0	4	0
30	215	0	10000	4	1	0	4	0
30	216	0	10000	4	1	0	4	0
30	217	0	10000	4	1	0	4	0
29	218	0	10000	4	1	0	4	0
27	219	0	10000	4	1	0	4	0
27	220	0	10000	4	1	0	4	0
27	221	0	10000	4	1	0	4	0
28	222	0	10000	4	1	0	4	0
30	223	0	10000	4	1	0	4	0
32	224	0	10000	4	1	0	4	0
32	225	0	10000	4	1	0	4	0
32	226	0	10000	4	1	0	4	0
35	227	0	10000	4	1	0	4	0
35	228	0	10000	4	1	0	4	0
37	229	0	10000	4	1	0	4	0
38	230	0	10000	4	1	0	4	0
39	231	0	10000	4	1	0	4	0
43	232	0	10000	4	1	0	4	0
42	233	0	10000	4	1	0	4	0
41	234	0	10000	4	1	0	4	0
41	235	0	10000	4	1	0	4	0
42	236	0	10000	4	1	0	4	0
41	237	0	10000	4	1	0	4	0
42	238	0	10000	4	1	0	4	0
40	239	0	10000	4	1	0	4	0
38	240	0	10000	4	1	0	4	0
37	241	0	10000	4	1	0	4	0
35	242	0	10000	4	1	0	4	0
34	243	0	10000	4	1	0	4	0
34	244	0	10000	4	1	0	4	0
33	245	0	10000	4	1	0	4	0
31	246	0	10000	4	1	0	4	0
31	247	0	10000	4	1	0	4	0
32	248	0	10000	4	1	0	4	0
32	249	0	10000	4	1	0	4	0
32	250	0	10000	4	1	0	4	0
32	251	0	10000	4	1	0	4	0
32	252	0	10000	4	1	0	4	0
32	253	0	10000	4	1	0	4	0
31	254	0	10000	4	1	0	4	0
31	255	0	10000	4	1	0	4	0
36	256	0	10000	4	1	0	4	0
38	257	0	10000	4	1	0	4	0
40	258	0	10000	4	1	0	4	0
40	259	0	10000	4	1	0	4	0
41	260	0	10000	4	1	0	4	0
41	261	0	10000	4	1	0	4	0
40	262	0	10000	4	1	0	4	0
41	263	0	10000	4	1	0	4	0
42	264	0	10000	4	1	0	4	0
41	265	0	10000	4	1	0	4	0
39	266	0	10000	4	1	0	4	0
39	267	0	10000	4	1	0	4	0
40	268	0	10000	4	1	0	4	0
40	269	0	10000	4	1	0	4	0
40	270	0	10000	4	1	0	4	0
40	271	0	10000	4	1	0	4	0
40	272	0	10000	4	1	0	4	0
39	273	0	10000	4	1	0	4	0
36	274	0	10000	4	1	0	4	0
35	275	0	10000	4	1	0	4	0
36	276	0	10000	4	1	0	4	0
35	277	0	10000	4	1	0	4	0
34	278	0	10000	4	1	0	4	0
33	279	0	10000	4	1	0	4	0
31	280	0	10000	4	1	0	4	0
30	281	0	10000	4	1	0	4	0
29	282	0	10000	4	1	0	4	0
28	283	0	10000	4	1	0	4	0
28	284	0	10000	4	1	0	4	0
28	285	0	10000	4	1	0	4	0
26	286	0	10000	4	1	0	4	0
25	287	0	10000	4	1	0	4	0
25	288	0	10000	4	1	0	4	0
25	289	0	10000	4	1	0	4	0
24	290	0	10000	4	1	0	4	0
23	291	0	10000	4	1	0	4	0
22	292	0	10000	4	1	0	4	0
22	293	0	10000	4	1	0	4	0
22	294	0	10000	4	1	0	4	0
22	295	0	10000	4	1	0	4	0
25	296	0	10000	4	1	0	4	0
24	297	0	10000	4	1	0	4	0
23	298	0	10000	4	1	0	4	0
22	299	0	10000	4	1	0	4	0
23	300	0	10000	4	1	0	4	0
23	301	0	10000	4	1	0	4	0
22	302	0	10000	4	1	0	4	0
21	303	0	10000	4	1	0	4	0
21	304	0	10000	4	1	0	4	0
23	305	0	10000	4	1	0	4	0
21	306	0	10000	4	1	0	4	0
20	307	0	10000	4	1	0	4	0
21	308	0	10000	4	1	0	4	0
21	309	0	10000	4	1	0	4	0
20	310	0	10000	4	1	0	4	0
20	311	0	10000	4	1	0	4	0
20	312	0	10000	4	1	0	4	0
19	313	0	10000	4	1	0	4	0
20	314	0	10000	4	1	0	4	0
21	315	0	10000	4	1	0	4	0
23	316	0	10000	4	1	0	4	0
23	317	0	10000	4	1	0	4	0
23	318	0	10000	4	1	0	4	0
22	319	0	10000	4	1	0	4	0
23	320	0	10000	4	1	0	4	0
22	321	0	10000	4	1	0	4	0
22	322	0	10000	4	1	0	4	0
23	323	0	10000	4	1	0	4	0
23	324	0	10000	4	1	0	4	0
22	325	0	10000	4	1	0	4	0
21	326	0	10000	4	1	0	4	0
22	327	0	10000	4	1	0	4	0
23	328	0	10000	4	1	0	4	0
24	329	0	10000	4	1	0	4	0
25	330	0	10000	4	1	0	4	0
25	331	0	10000	4	1	0	4	0
25	332	0	10000	4	1	0	4	0
23	333	0	10000	4	1	0	4	0
22	334	0	10000	4	1	0	4	0
21	335	0	10000	4	1	0	4	0
22	336	0	10000	4	1	0	4	0
23	337	0	10000	4	1	0	4	0
22	338	0	10000	4	1	0	4	0
21	339	0	10000	4	1	0	4	0
21	340	0	10000	4	1	0	4	0
20	341	0	10000	4	1	0	4	0
19	342	0	10000	4	1	0	4	0
19	343	0	10000	4	1	0	4	0
18	344	0	10000	4	1	0	4	0
18	345	0	10000	4	1	0	4	0
16	346	0	10000	4	1	0	4	0
15	347	0	10000	4	1	0	4	0
15	348	0	10000	4	1	0	4	0
15	349	0	10000	4	1	0	4	0
15	350	0	10000	4	1	0	4	0
16	351	0	10000	4	1	0	4	0
17	352	0	10000	4	1	0	4	0
16	353	0	10000	4	1	0	4	0
16	354	0	10000	4	1	0	4	0
16	355	0	10000	4	1	0	4	0
17	356	0	10000	4	1	0	4	0
17	357	0	10000	4	1	0	4	0
16	358	0	10000	4	1	0	4	0
15	359	0	10000	4	1	0	4	0
15	360	0	10000	4	1	0	4	0
18	361	0	10000	4	1	0	4	0
19	362	0	10000	4	1	0	4	0
20	363	0	10000	4	1	0	4	0
20	364	0	10000	4	1	0	4	0
19	365	0	10000	4	1	0	4	0
16	366	0	10000	4	1	0	4	0
17	367	0	10000	4	1	0	4	0
18	368	0	10000	4	1	0	4	0
18	369	0	10000	4	1	0	4	0
17	370	0	10000	4	1	0	4	0
18	371	0	10000	4	1	0	4	0
20	372	0	10000	4	1	0	4	0
20	373	0	10000	4	1	0	4	0
20	374	0	10000	4	1	0	4	0
19	375	0	10000	4	1	0	4	0
20	376	0	10000	4	1	0	4	0
19	377	0	10000	4	1	0	4	0
19	378	0	10000	4	1	0	4	0
18	379	0	10000	4	1	0	4	0
18	380	0	10000	4	1	0	4	0
19	381	0	10000	4	1	0	4	0
19	382	0	10000	4	1	0	4	0
20	383	0	10000	4	1	0	4	0
20	384	0	10000	4	1	0	4	0
19	385	0	10000	4	1	0	4	0
16	386	0	10000	4	1	0	4	0
16	387	0	10000	4	1	0	4	0
16	388	0	10000	4	1	0	4	0
18	389	0	10000	4	1	0	4	0
20	390	0	10000	4	1	0	4	0
21	391	0	10000	4	1	0	4	0
20	392	0	10000	4	1	0	4	0
20	393	0	10000	4	1	0	4	0
19	394	0	10000	4	1	0	4	0
18	395	0	10000	4	1	0	4	0
20	396	0	10000	4	1	0	4	0
19	397	0	10000	4	1	0	4	0
18	398	0	10000	4	1	0	4	0
19	399	0	10000	4	1	0	4	0
20	400	0	10000	4	1	0	4	0
20	401	0	10000	4	1	0	4	0
20	402	0	10000	4	1	0	4	0
21	403	0	10000	4	1	0	4	0
21	404	0	10000	4	1	0	4	0
20	405	0	10000	4	1	0	4	0
17	406	0	10000	4	1	0	4	0
17	407	0	10000	4	1	0	4	0
17	408	0	10000	4	1	0	4	0
18	409	0	10000	4	1	0	4	0
19	410	0	10000	4	1	0	4	0
20	411	0	10000	4	1	0	4	0
19	412	0	10000	4	1	0	4	0
19	413	0	10000	4	1	0	4	0
18	414	0	10000	4	1	0	4	0
18	415	0	10000	4	1	0	4	0
20	416	0	10000	4	1	0	4	0
21	417	0	10000	4	1	0	4	0
22	418	0	10000	4	1	0	4	0
21	419	0	10000	4	1	0	4	0
21	420	0	10000	4	1	0	4	0
20	421	0	10000	4	1	0	4	0
20	422	0	10000	4	1	0	4	0
21	423	0	10000	4	1	0	4	0
21	424	0	10000	4	1	0	4	0
20	425	0	10000	4	1	0	4	0
18	426	0	10000	4	1	0	4	0
18	427	0	10000	4	1	0	4	0
18	428	0	10000	4	1	0	4	0
18	429	0	10000	4	1	0	4	0
17	430	0	10000	4	1	0	4	0
17	431	0	10000	4	1	0	4	0
17	432	0	10000	4	1	0	4	0
16	433	0	10000	4	1	0	4	0
15	434	0	10000	4	1	0	4	0
14	435	0	10000	4	1	0	4	0
17	436	0	10000	4	1	0	4	0
16	437	0	10000	4	1	0	4	0
15	438	0	10000	4	1	0	4	0
15	439	0	10000	4	1	0	4	0
14	440	0	10000	4	1	0	4	0
14	441	0	10000	4	1	0	4	0
15	442	0	10000	4	1	0	4	0
15	443	0	10000	4	1	0	4	0
17	444	0	10000	4	1	0	4	0
18	445	0	10000	4	1	0	4	0
16	446	0	10000	4	1	0	4	0
17	447	0	10000	4	1	0	4	0
17	448	0	10000	4	1	0	4	0
19	449	0	10000	4	1	0	4	0
19	450	0	10000	4	1	0	4	0
20	451	0	10000	4	1	0	4	0
21	452	0	10000	4	1	0	4	0
20	453	0	10000	4	1	0	4	0
20	454	0	10000	4	1	0	4	0
19	455	0	10000	4	1	0	4	0
20	456	0	10000	4	1	0	4	0
19	457	0	10000	4	1	0	4	0
19	458	0	10000	4	1	0	4	0
19	459	0	10000	4	1	0	4	0
20	460	0	10000	4	1	0	4	0
19	461	0	10000	4	1	0	4	0
18	462	0	10000	4	1	0	4	0
18	463	0	10000	4	1	0	4	0
18	464	0	10000	4	1	0	4	0
17	465	0	10000	4	1	0	4	0
15	466	0	10000	4	1	0	4	0
16	467	0	10000	4	1	0	4	0
16	468	0	10000	4	1	0	4	0
16	469	0	10000	4	1	0	4	0
15	470	0	10000	4	1	0	4	0
16	471	0	10000	4	1	0	4	0
15	472	0	10000	4	1	0	4	0
14	473	0	10000	4	1	0	4	0
14	474	0	10000	4	1	0	4	0
12	475	0	10000	4	1	0	4	0
14	476	0	10000	4	1	0	4	0
14	477	0	10000	4	1	0	4	0
12	478	0	10000	4	1	0	4	0
11	479	0	10000	4	1	0	4	0
12	480	0	10000	4	1	0	4	0
11	481	0	10000	4	1	0	4	0
11	482	0	10000	4	1	0	4	0
11	483	0	10000	4	1	0	4	0
12	484	0	10000	4	1	0	4	0
12	485	0	10000	4	1	0	4	0
11	486	0	10000	4	1	0	4	0
11	487	0	10000	4	1	0	4	0
12	488	0	10000	4	1	0	4	0
12	489	0	10000	4	1	0	4	0
11	490	0	10000	4	1	0	4	0
11	491	0	10000	4	1	0	4	0
12	492	0	10000	4	1	0	4	0
11	493	0	10000	4	1	0	4	0
11	494	0	10000	4	1	0	4	0
11	495	0	10000	4	1	0	4	0
12	496	0	10000	4	1	0	4	0
12	497	0	10000	4	1	0	4	0
11	498	0	10000	4	1	0	4	0
11	499	0	10000	4	1	0	4	0
11	500	0	10000	4	1	0	4	0
11	501	0	10000	4	1	0	4	0
10	502	0	10000	4	1	0	4	1
11	503	0	10000	4	1	0	4	1
11	504	0	10000	4	1	0	4	1
11	505	0	10000	4	1	0	4	1
10	506	0	10000	4	1	0	4	1
11	507	0	10000	4	1	0	4	1
13	508	0	10000	4	1	0	4	1
15	509	0	10000	4	1	0	4	1
13	510	0	10000	4	1	0	4	1
13	511	0	10000	4	1	0	4	1
13	512	0	10000	4	1	0	4	1
12	513	0	10000	4	1	0	4	1
12	514	0	10000	4	1	0	4	1
12	515	0	10000	4	1	0	4	1
14	516	0	10000	4	1	0	4	1
13	517	0	10000	4	1	0	4	1
13	518	0	10000	4	1	0	4	1
13	519	0	10000	4	1	0	4	1
13	520	0	10000	4	1	0	4	1
13	521	0	10000	4	1	0	4	1
14	522	0	10000	4	1	0	4	1
15	523	0	10000	4	1	0	4	1
16	524	0	10000	4	1	0	4	1
15	525	0	10000	4	1	0	4	1
13	526	0	10000	4	1	0	4	1
13	527	0	10000	4	1	0	4	1
13	528	0	10000	4	1	0	4	1
13	529	0	10000	4	1	0	4	1
13	530	0	10000	4	1	0	4	1
13	531	0	10000	4	1	0	4	1
13	532	0	10000	4	1	0	4	1
13	533	0	10000	4	1	0	4	1
13	534	0	10000	4	1	0	4	1
17	535	0	10000	4	1	0	4	1
19	536	0	10000	4	1	0	4	1
20	537	0	10000	4	1	0	4	1
21	538	0	10000	4	1	0	4	1
22	539	0	10000	4	1	0	4	1
23	540	0	10000	4	1	0	4	1
23	541	0	10000	4	1	0	4	1
21	542	0	10000	4	1	0	4	1
21	543	0	10000	4	1	0	4	1
22	544	0	10000	4	1	0	4	1
21	545	0	10000	4	1	0	4	1
19	546	0	10000	4	1	0	4	1
19	547	0	10000	4	1	0	4	1
18	548	0	10000	4	1	0	4	1
18	549	0	10000	4	1	0	4	1
19	550	0	10000	4	1	0	4	1
18	551	0	10000	4	1	0	4	1
19	552	0	10000	4	1	0	4	0
18	553	0	10000	4	1	0	4	0
16	554	0	10000	4	1	0	4	0
16	555	0	10000	4	1	0	4	0
18	556	0	10000	4	1	0	4	0
17	557	0	10000	4	1	0	4	0
16	558	0	10000	4	1	0	4	0
16	559	0	10000	4	1	0	4	0
15	560	0	10000	4	1	0	4	0
14	561	0	10000	4	1	0	4	0
14	562	0	10000	4	1	0	4	0
13	563	0	10000	4	1	0	4	0
14	564	0	10000	4	1	0	4	0
13	565	0	10000	4	1	0	4	0
12	566	0	10000	4	1	0	4	0
13	567	0	10000	4	1	0	4	0
13	568	0	10000	4	1	0	4	0
13	569	0	10000	4	1	0	4	0
13	570	0	10000	4	1	0	4	0
13	571	0	10000	4	1	0	4	0
13	572	0	10000	4	1	0	4	0
14	573	0	10000	4	1	0	4	0
12	574	0	10000	4	1	0	4	0
12	575	0	10000	4	1	0	4	0
15	576	0	10000	4	1	0	4	0
15	577	0	10000	4	1	0	4	0
15	578	0	10000	4	1	0	4	0
15	579	0	10000	4	1	0	4	0
15	580	0	10000	4	1	0	4	0
14	581	0	10000	4	1	0	4	0
14	582	0	10000	4	1	0	4	0
14	583	0	10000	4	1	0	4	0
13	584	0	10000	4	1	0	4	0
15	585	0	10000	4	1	0	4	0
14	586	0	10000	4	1	0	4	0
14	587	0	10000	4	1	0	4	0
14	588	0	10000	4	1	0	4	0
15	589	0	10000	4	1	0	4	0
14	590	0	10000	4	1	0	4	0
14	591	0	10000	4	1	0	4	0
15	592	0	10000	4	1	0	4	0
13	593	0	10000	4	1	0	4	0
19	594	0	10000	4	1	0	4	0
22	595	0	10000	4	1	0	4	0
36	596	0	10000	4	1	0	4	0
50	597	0	10000	4	1	0	4	0
51	598	0	10000	4	1	0	4	0
65	599	0	10000	4	1	0	4	0
87	600	0	10000	4	1	0	4	0
91	601	0	10000	4	1	0	4	0
90	602	0	10000	4	1	0	4	0
93	603	0	10000	4	1	0	4	0
140	604	0	10000	4	1	0	4	0
187	605	0	10000	4	1	0	4	0
190	606	0	10000	4	1	0	4	0
211	607	0	10000	4	1	0	4	0
218	608	0	10000	4	1	0	4	0
217	609	0	10000	4	1	0	4	0
242	610	0	10000	4	1	0	4	0
244	611	0	10000	4	1	0	4	0
265	612	0	10000	4	1	0	4	0
270	613	0	10000	4	1	0	4	0
261	614	0	10000	4	1	0	4	0
257	615	0	10000	4	1	0	4	0
257	616	0	10000	4	1	0	4	0
249	617	0	10000	4	1	0	4	0
238	618	0	10000	4	1	0	4	0
235	619	0	10000	4	1	0	4	0
256	620	0	10000	4	1	0	4	0
263	621	0	10000	4	1	0	4	0
255	622	0	10000	4	1	0	4	0
260	623	0	10000	4	1	0	4	0
263	624	0	10000	4	1	0	4	0
260	625	0	10000	4	1	0	4	0
253	626	0	10000	4	1	0	4	0
245	627	0	10000	4	1	0	4	0
236	628	0	10000	4	1	0	4	0
226	629	0	10000	4	1	0	4	0
218	630	0	10000	4	1	0	4	0
212	631	0	10000	4	1	0	4	0
209	632	0	10000	4	1	0	4	0
204	633	0	10000	4	1	0	4	0
199	634	0	10000	4	1	0	4	0
195	635	0	10000	4	1	0	4	0
193	636	0	10000	4	1	0	4	0
188	637	0	10000	4	1	0	4	0
182	638	0	10000	4	1	0	4	0
176	639	0	10000	4	1	0	4	0
170	640	0	10000	4	1	0	4	0
162	641	0	10000	4	1	0	4	0
154	642	0	10000	4	1	0	4	0
149	643	0	10000	4	1	0	4	0
143	644	0	10000	4	1	0	4	0
138	645	0	10000	4	1	0	4	0
133	646	0	10000	4	1	0	4	0
129	647	0	10000	4	1	0	4	0
127	648	0	10000	4	1	0	4	0
124	649	0	10000	4	1	0	4	0
121	650	0	10000	4	1	0	4	0
118	651	0	10000	4	1	0	4	0
115	652	0	10000	4	1	0	4	0
111	653	0	10000	4	1	0	4	0
109	654	0	10000	4	1	0	4	0
108	655	0	10000	4	1	0	4	0
109	656	0	10000	4	1	0	4	0
109	657	0	10000	4	1	0	4	0
109	658	0	10000	4	1	0	4	0
110	659	0	10000	4	1	0	4	0
109	660	0	10000	4	1	0	4	0
108	661	0	10000	4	1	0	4	0
107	662	0	10000	4	1	0	4	0
107	663	0	10000	4	1	0	4	0
106	664	0	10000	4	1	0	4	0
104	665	0	10000	4	1	0	4	0
102	666	0	10000	4	1	0	4	0
101	667	0	10000	4	1	0	4	0
97	668	0	10000	4	1	0	4	0
94	669	0	10000	4	1	0	4	0
92	670	0	10000	4	1	0	4	0
91	671	0	10000	4	1	0	4	0
92	672	0	10000	4	1	0	4	0
89	673	0	10000	4	1	0	4	0
88	674	0	10000	4	1	0	4	0
89	675	0	10000	4	1	0	4	0
91	676	0	10000	4	1	0	4	0
93	677	0	10000	4	1	0	4	0
95	678	0	10000	4	1	0	4	0
94	679	0	10000	4	1	0	4	0
92	680	0	10000	4	1	0	4	0
88	681	0	10000	4	1	0	4	0
85	682	0	10000	4	1	0	4	0
82	683	0	10000	4	1	0	4	0
80	684	0	10000	4	1	0	4	0
77	685	0	10000	4	1	0	4	0
76	686	0	10000	4	1	0	4	0
78	687	0	10000	4	1	0	4	0
80	688	0	10000	4	1	0	4	0
83	689	0	10000	4	1	0	4	0
90	690	0	10000	4	1	0	4	0
99	691	0	10000	4	1	0	4	0
109	692	0	10000	4	1	0	4	0
116	693	0	10000	4	1	0	4	0
122	694	0	10000	4	1	0	4	0
126	695	0	10000	4	1	0	4	0
130	696	0	10000	4	1	0	4	0
133	697	0	10000	4	1	0	4	0
137	698	0	10000	4	1	0	4	0
142	699	0	10000	4	1	0	4	0
150	700	0	10000	4	1	0	4	0
154	701	0	10000	4	1	0	4	0
158	702	0	10000	4	1	0	4	0
164	703	0	10000	4	1	0	4	0
170	704	0	10000	4	1	0	4	0
173	705	0	10000	4	1	0	4	0
173	706	0	10000	4	1	0	4	0
175	707	0	10000	4	1	0	4	0
175	708	0	10000	4	1	0	4	0
175	709	0	10000	4	1	0	4	0
175	710	0	10000	4	1	0	4	0
177	711	0	10000	4	1	0	4	0
177	712	0	10000	4	1	0	4	0
175	713	0	10000	4	1	0	4	0
171	714	0	10000	4	1	0	4	0
166	715	0	10000	4	1	0	4	0
162	716	0	10000	4	1	0	4	0
155	717	0	10000	4	1	0	4	0
148	718	0	10000	4	1	0	4	0
142	719	0	10000	4	1	0	4	0
136	720	0	10000	4	1	0	4	0
131	721	0	10000	4	1	0	4	0
127	722	0	10000	4	1	0	4	0
122	723	0	10000	4	1	0	4	0
117	724	0	10000	4	1	0	4	0
112	725	0	10000	4	1	0	4	0
107	726	0	10000	4	1	0	4	0
105	727	0	10000	4	1	0	4	0
104	728	0	10000	4	1	0	4	0
103	729	0	10000	4	1	0	4	0
104	730	0	10000	4	1	0	4	0
104	731	0	10000	4	1	0	4	0
106	732	0	10000	4	1	0	4	0
108	733	0	10000	4	1	0	4	0
110	734	0	10000	4	1	0	4	0
114	735	0	10000	4	1	0	4	0
120	736	0	10000	4	1	0	4	0
123	737	0	10000	4	1	0	4	0
128	738	0	10000	4	1	0	4	0
132	739	0	10000	4	1	0	4	0
136	740	0	10000	4	1	0	4	0
141	741	0	10000	4	1	0	4	0
146	742	0	10000	4	1	0	4	0
151	743	0	10000	4	1	0	4	0
156	744	0	10000	4	1	0	4	0
159	745	0	10000	4	1	0	4	0
161	746	0	10000	4	1	0	4	0
166	747	0	10000	4	1	0	4	0
170	748	0	10000	4	1	0	4	0
174	749	0	10000	4	1	0	4	0
178	750	0	10000	4	1	0	4	0
181	751	0	10000	4	1	0	4	0
183	752	0	10000	4	1	0	4	0
183	753	0	10000	4	1	0	4	0
183	754	0	10000	4	1	0	4	0
183	755	0	10000	4	1	0	4	0
186	756	0	10000	4	1	0	4	0
186	757	0	10000	4	1	0	4	0
186	758	0	10000	4	1	0	4	0
187	759	0	10000	4	1	0	4	0
188	760	0	10000	4	1	0	4	0
187	761	0	10000	4	1	0	4	0
187	762	0	10000	4	1	0	4	0
185	763	0	10000	4	1	0	4	0
182	764	0	10000	4	1	0	4	0
180	765	0	10000	4	1	0	4	0
176	766	0	10000	4	1	0	4	0
174	767	0	10000	4	1	0	4	0
173	768	0	10000	4	1	0	4	0
169	769	0	10000	4	1	0	4	0
164	770	0	10000	4	1	0	4	0
162	771	0	10000	4	1	0	4	0
158	772	0	10000	4	1	0	4	0
154	773	0	10000	4	1	0	4	0
151	774	0	10000	4	1	0	4	0
147	775	0	10000	4	1	0	4	0
144	776	0	10000	4	1	0	4	0
139	777	0	10000	4	1	0	4	0
134	778	0	10000	4	1	0	4	0
128	779	0	10000	4	1	0	4	0
125	780	0	10000	4	1	0	4	0
120	781	0	10000	4	1	0	4	0
118	782	0	10000	4	1	0	4	0
116	783	0	10000	4	1	0	4	0
113	784	0	10000	4	1	0	4	0
109	785	0	10000	4	1	0	4	0
105	786	0	10000	4	1	0	4	0
102	787	0	10000	4	1	0	4	0
98	788	0	10000	4	1	0	4	0
96	789	0	10000	4	1	0	4	0
93	790	0	10000	4	1	0	4	0
90	791	0	10000	4	1	0	4	0
87	792	0	10000	4	1	0	4	0
84	793	0	10000	4	1	0	4	0
80	794	0	10000	4	1	0	4	0
77	795	0	10000	4	1	0	4	0
77	796	0	10000	4	1	0	4	0
75	797	0	10000	4	1	0	4	0
72	798	0	10000	4	1	0	4	0
70	799	0	10000	4	1	0	4	0
70	800	0	10000	4	1	0	4	0
68	801	0	10000	4	1	0	4	0
65	802	0	10000	4	1	0	4	0
64	803	0	10000	4	1	0	4	0
60	804	0	10000	4	1	0	4	0
57	805	0	10000	4	1	0	4	0
54	806	0	10000	4	1	0	4	0
52	807	0	10000	4	1	0	4	0
50	808	0	10000	4	1	0	4	0
48	809	0	10000	4	1	0	4	0
46	810	0	10000	4	1	0	4	0
45	811	0	10000	4	1	0	4	0
44	812	0	10000	4	1	0	4	0
41	813	0	10000	4	1	0	4	0
41	814	0	10000	4	1	0	4	0
41	815	0	10000	4	1	0	4	0
41	816	0	10000	4	1	0	4	0
39	817	0	10000	4	1	0	4	0
38	818	0	10000	4	1	0	4	0
36	819	0	10000	4	1	0	4	0
34	820	0	10000	4	1	0	4	0
33	821	0	10000	4	1	0	4	0
34	822	0	10000	4	1	0	4	0
34	823	0	10000	4	1	0	4	0
35	824	0	10000	4	1	0	4	0
33	825	0	10000	4	1	0	4	0
32	826	0	10000	4	1	0	4	0
32	827	0	10000	4	1	0	4	0
32	828	0	10000	4	1	0	4	0
31	829	0	10000	4	1	0	4	0
31	830	0	10000	4	1	0	4	0
30	831	0	10000	4	1	0	4	0
30	832	0	10000	4	1	0	4	0
30	833	0	10000	4	1	0	4	0
29	834	0	10000	4	1	0	4	0
30	835	0	10000	4	1	0	4	0
31	836	0	10000	4	1	0	4	0
30	837	0	10000	4	1	0	4	0
29	838	0	10000	4	1	0	4	0
27	839	0	10000	4	1	0	4	0
26	840	0	10000	4	1	0	4	0
26	841	0	10000	4	1	0	4	0
25	842	0	10000	4	1	0	4	0
25	843	0	10000	4	1	0	4	0
25	844	0	10000	4	1	0	4	0
25	845	0	10000	4	1	0	4	0
22	846	0	10000	4	1	0	4	0
22	847	0	10000	4	1	0	4	0
22	848	0	10000	4	1	0	4	0
23	849	0	10000	4	1	0	4	0
24	850	0	10000	4	1	0	4	0
24	851	0	10000	4	1	0	4	0
23	852	0	10000	4	1	0	4	0
24	853	0	10000	4	1	0	4	0
24	854	0	10000	4	1	0	4	0
25	855	0	10000	4	1	0	4	0
27	856	0	10000	4	1	0	4	0
26	857	0	10000	4	1	0	4	0
25	858	0	10000	4	1	0	4	0
25	859	0	10000	4	1	0	4	0
25	860	0	10000	4	1	0	4	0
24	861	0	10000	4	1	0	4	0
22	862	0	10000	4	1	0	4	0
23	863	0	10000	4	1	0	4	0
23	864	0	10000	4	1	0	4	0
21	865	0	10000	4	1	0	4	0
19	866	0	10000	4	1	0	4	0
20	867	0	10000	4	1	0	4	0
19	868	0	10000	4	1	0	4	0
18	869	0	10000	4	1	0	4	0
18	870	0	10000	4	1	0	4	0
17	871	0	10000	4	1	0	4	0
18	872	0	10000	4	1	0	4	0
20	873	0	10000	4	1	0	4	0
20	874	0	10000	4	1	0	4	0
21	875	0	10000	4	1	0	4	0
22	876	0	10000	4	1	0	4	0
22	877	0	10000	4	1	0	4	0
22	878	0	10000	4	1	0	4	0
21	879	0	10000	4	1	0	4	0
21	880	0	10000	4	1	0	4	0
20	881	0	10000	4	1	0	4	0
20	882	0	10000	4	1	0	4	0
20	883	0	10000	4	1	0	4	0
20	884	0	10000	4	1	0	4	0
20	885	0	10000	4	1	0	4	0
18	886	0	10000	4	1	0	4	0
18	887	0	10000	4	1	0	4	0
18	888	0	10000	4	1	0	4	0
19	889	0	10000	4	1	0	4	0
20	890	0	10000	4	1	0	4	0
21	891	0	10000	4	1	0	4	0
20	892	0	10000	4	1	0	4	0
20	893	0	10000	4	1	0	4	0
20	894	0	10000	4	1	0	4	0
20	895	0	10000	4	1	0	4	0
22	896	0	10000	4	1	0	4	0
21	897	0	10000	4	1	0	4	0
20	898	0	10000	4	1	0	4	0
21	899	0	10000	4	1	0	4	0
20	900	0	10000	4	1	0	4	0
20	901	0	10000	4	1	0	4	0
22	902	0	10000	4	1	0	4	0
22	903	0	10000	4	1	0	4	0
22	904	0	10000	4	1	0	4	0
22	905	0	10000	4	1	0	4	0
19	906	0	10000	4	1	0	4	0
18	907	0	10000	4	1	0	4	0
19	908	0	10000	4	1	0	4	0
18	909	0	10000	4	1	0	4	0
17	910	0	10000	4	1	0	4	0
16	911	0	10000	4	1	0	4	0
16	912	0	10000	4	1	0	4	0
15	913	0	10000	4	1	0	4	0
15	914	0	10000	4	1	0	4	0
15	915	0	10000	4	1	0	4	0
16	916	0	10000	4	1	0	4	0
16	917	0	10000	4	1	0	4	0
15	918	0	10000	4	1	0	4	0
14	919	0	10000	4	1	0	4	0
13	920	0	10000	4	1	0	4	0
13	921	0	10000	4	1	0	4	0
13	922	0	10000	4	1	0	4	0
13	923	0	10000	4	1	0	4	0
14	924	0	10000	4	1	0	4	0
13	925	0	10000	4	1	0	4	0
12	926	0	10000	4	1	0	4	0
12	927	0	10000	4	1	0	4	0
12	928	0	10000	4	1	0	4	0
12	929	0	10000	4	1	0	4	0
12	930	0	10000	4	1	0	4	0
14	931	0	10000	4	1	0	4	0
14	932	0	10000	4	1	0	4	0
14	933	0	10000	4	1	0	4	0
14	934	0	10000	4	1	0	4	0
14	935	0	10000	4	1	0	4	0
16	936	0	10000	4	1	0	4	0
17	937	0	10000	4	1	0	4	0
16	938	0	10000	4	1	0	4	0
16	939	0	10000	4	1	0	4	0
17	940	0	10000	4	1	0	4	0
18	941	0	10000	4	1	0	4	0
19	942	0	10000	4	1	0	4	0
22	943	0	10000	4	1	0	4	0
24	944	0	10000	4	1	0	4	0
23	945	0	10000	4	1	0	4	0
21	946	0	10000	4	1	0	4	0
22	947	0	10000	4	1	0	4	0
22	948	0	10000	4	1	0	4	0
23	949	0	10000	4	1	0	4	0
22	950	0	10000	4	1	0	4	0
22	951	0	10000	4	1	0	4	0
21	952	0	10000	4	1	0	4	0
20	953	0	10000	4	1	0	4	0
20	954	0	10000	4	1	0	4	0
21	955	0	10000	4	1	0	4	0
22	956	0	10000	4	1	0	4	0
22	957	0	10000	4	1	0	4	0
21	958	0	10000	4	1	0	4	0
20	959	0	10000	4	1	0	4	0
20	960	0	10000	4	1	0	4	0
19	961	0	10000	4	1	0	4	0
18	962	0	10000	4	1	0	4	0
19	963	0	10000	4	1	0	4	0
19	964	0	10000	4	1	0	4	0
18	965	0	10000	4	1	0	4	0
17	966	0	10000	4	1	0	4	0
17	967	0	10000	4	1	0	4	0
16	968	0	10000	4	1	0	4	0
18	969	0	10000	4	1	0	4	0
17	970	0	10000	4	1	0	4	0
17	971	0	10000	4	1	0	4	0
18	972	0	10000	4	1	0	4	0
16	973	0	10000	4	1	0	4	0
16	974	0	10000	4	1	0	4	0
15	975	0	10000	4	1	0	4	0
17	976	0	10000	4	1	0	4	0
16	977	0	10000	4	1	0	4	0
15	978	0	10000	4	1	0	4	0
14	979	0	10000	4	1	0	4	0
14	980	0	10000	4	1	0	4	0
14	981	0	10000	4	1	0	4	0
15	982	0	10000	4	1	0	4	0
14	983	0	10000	4	1	0	4	0
15	984	0	10000	4	1	0	4	0
15	985	0	10000	4	1	0	4	0
14	986	0	10000	4	1	0	4	0
14	987	0	10000	4	1	0	4	0
13	988	0	10000	4	1	0	4	0
13	989	0	10000	4	1	0	4	0
14	990	0	10000	4	1	0	4	0
16	991	0	10000	4	1	0	4	0
19	992	0	10000	4	1	0	4	0
23	993	0	10000	4	1	0	4	0
28	994	0	10000	4	1	0	4	0
33	995	0	10000	4	1	0	4	0
38	996	0	10000	4	1	0	4	0
40	997	0	10000	4	1	0	4	0
41	998	0	10000	4	1	0	4	0
39	999	0	10000	4	1	0	4	0
39	1000	0	10000	4	1	0	4	0
40	1001	0	10000	4	1	0	4	0
11	2	1	10000	5	1	0	5	0
12	3	1	10000	5	1	0	5	0
12	4	1	10000	5	1	0	5	0
13	5	1	10000	5	1	0	5	0
12	6	1	10000	5	1	0	5	0
12	7	1	10000	5	1	0	5	0
12	8	1	10000	5	1	0	5	0
12	9	1	10000	5	1	0	5	0
12	10	1	10000	5	1	0	5	0
12	11	1	10000	5	1	0	5	0
12	12	1	10000	5	1	0	5	0
11	13	1	10000	5	1	0	5	0
11	14	1	10000	5	1	0	5	0
10	15	1	10000	5	1	0	5	0
12	16	1	10000	5	1	0	5	0
11	17	1	10000	5	1	0	5	0
11	18	1	10000	5	1	0	5	0
10	19	1	10000	5	1	0	5	0
11	20	1	10000	5	1	0	5	0
12	21	1	10000	5	1	0	5	0
12	22	1	10000	5	1	0	5	0
13	23	1	10000	5	1	0	5	0
13	24	1	10000	5	1	0	5	0
13	25	1	10000	5	1	0	5	0
11	26	1	10000	5	1	0	5	0
11	27	1	10000	5	1	0	5	0
11	28	1	10000	5	1	0	5	0
12	29	1	10000	5	1	0	5	0
11	30	1	10000	5	1	0	5	0
11	31	1	10000	5	1	0	5	0
13	32	1	10000	5	1	0	5	0
13	33	1	10000	5	1	0	5	0
13	34	1	10000	5	1	0	5	0
13	35	1	10000	5	1	0	5	0
15	36	1	10000	5	1	0	5	0
14	37	1	10000	5	1	0	5	0
13	38	1	10000	5	1	0	5	0
12	39	1	10000	5	1	0	5	0
12	40	1	10000	5	1	0	5	0
12	41	1	10000	5	1	0	5	0
12	42	1	10000	5	1	0	5	0
12	43	1	10000	5	1	0	5	0
13	44	1	10000	5	1	0	5	0
12	45	1	10000	5	1	0	5	0
10	46	1	10000	5	1	0	5	0
11	47	1	10000	5	1	0	5	0
10	48	1	10000	5	1	0	5	0
11	49	1	10000	5	1	0	5	0
11	50	1	10000	5	1	0	5	0
11	51	1	10000	5	1	0	5	0
11	52	1	10000	5	1	0	5	0
12	53	1	10000	5	1	0	5	0
12	54	1	10000	5	1	0	5	0
13	55	1	10000	5	1	0	5	0
14	56	1	10000	5	1	0	5	0
13	57	1	10000	5	1	0	5	0
13	58	1	10000	5	1	0	5	0
15	59	1	10000	5	1	0	5	0
16	60	1	10000	5	1	0	5	0
16	61	1	10000	5	1	0	5	0
14	62	1	10000	5	1	0	5	0
16	63	1	10000	5	1	0	5	0
17	64	1	10000	5	1	0	5	0
16	65	1	10000	5	1	0	5	0
14	66	1	10000	5	1	0	5	0
15	67	1	10000	5	1	0	5	0
15	68	1	10000	5	1	0	5	0
16	69	1	10000	5	1	0	5	0
17	70	1	10000	5	1	0	5	0
15	71	1	10000	5	1	0	5	0
15	72	1	10000	5	1	0	5	0
15	73	1	10000	5	1	0	5	0
14	74	1	10000	5	1	0	5	0
13	75	1	10000	5	1	0	5	0
15	76	1	10000	5	1	0	5	0
14	77	1	10000	5	1	0	5	0
14	78	1	10000	5	1	0	5	0
15	79	1	10000	5	1	0	5	0
15	80	1	10000	5	1	0	5	0
14	81	1	10000	5	1	0	5	0
14	82	1	10000	5	1	0	5	0
14	83	1	10000	5	1	0	5	0
15	84	1	10000	5	1	0	5	0
14	85	1	10000	5	1	0	5	0
13	86	1	10000	5	1	0	5	0
13	87	1	10000	5	1	0	5	0
13	88	1	10000	5	1	0	5	0
13	89	1	10000	5	1	0	5	0
13	90	1	10000	5	1	0	5	0
14	91	1	10000	5	1	0	5	0
15	92	1	10000	5	1	0	5	0
15	93	1	10000	5	1	0	5	0
13	94	1	10000	5	1	0	5	0
13	95	1	10000	5	1	0	5	0
16	96	1	10000	5	1	0	5	0
15	97	1	10000	5	1	0	5	0
14	98	1	10000	5	1	0	5	0
14	99	1	10000	5	1	0	5	0
13	100	1	10000	5	1	0	5	0
13	101	1	10000	5	1	0	5	0
13	102	1	10000	5	1	0	5	0
13	103	1	10000	5	1	0	5	0
12	104	1	10000	5	1	0	5	0
12	105	1	10000	5	1	0	5	0
11	106	1	10000	5	1	0	5	0
11	107	1	10000	5	1	0	5	0
11	108	1	10000	5	1	0	5	0
12	109	1	10000	5	1	0	5	0
12	110	1	10000	5	1	0	5	0
12	111	1	10000	5	1	0	5	0
12	112	1	10000	5	1	0	5	0
11	113	1	10000	5	1	0	5	0
12	114	1	10000	5	1	0	5	0
12	115	1	10000	5	1	0	5	0
14	116	1	10000	5	1	0	5	0
14	117	1	10000	5	1	0	5	0
14	118	1	10000	5	1	0	5	0
14	119	1	10000	5	1	0	5	0
13	120	1	10000	5	1	0	5	0
13	121	1	10000	5	1	0	5	0
13	122	1	10000	5	1	0	5	0
13	123	1	10000	5	1	0	5	0
14	124	1	10000	5	1	0	5	0
15	125	1	10000	5	1	0	5	0
14	126	1	10000	5	1	0	5	0
14	127	1	10000	5	1	0	5	0
17	128	1	10000	5	1	0	5	0
18	129	1	10000	5	1	0	5	0
19	130	1	10000	5	1	0	5	0
20	131	1	10000	5	1	0	5	0
19	132	1	10000	5	1	0	5	0
19	133	1	10000	5	1	0	5	0
19	134	1	10000	5	1	0	5	0
18	135	1	10000	5	1	0	5	0
20	136	1	10000	5	1	0	5	0
19	137	1	10000	5	1	0	5	0
18	138	1	10000	5	1	0	5	0
17	139	1	10000	5	1	0	5	0
18	140	1	10000	5	1	0	5	0
17	141	1	10000	5	1	0	5	0
16	142	1	10000	5	1	0	5	0
17	143	1	10000	5	1	0	5	0
17	144	1	10000	5	1	0	5	0
16	145	1	10000	5	1	0	5	0
14	146	1	10000	5	1	0	5	0
14	147	1	10000	5	1	0	5	0
13	148	1	10000	5	1	0	5	0
15	149	1	10000	5	1	0	5	0
15	150	1	10000	5	1	0	5	0
17	151	1	10000	5	1	0	5	0
22	152	1	10000	5	1	0	5	0
27	153	1	10000	5	1	0	5	0
31	154	1	10000	5	1	0	5	0
35	155	1	10000	5	1	0	5	0
40	156	1	10000	5	1	0	5	0
40	157	1	10000	5	1	0	5	0
42	158	1	10000	5	1	0	5	0
45	159	1	10000	5	1	0	5	0
47	160	1	10000	5	1	0	5	0
46	161	1	10000	5	1	0	5	0
46	162	1	10000	5	1	0	5	0
46	163	1	10000	5	1	0	5	0
45	164	1	10000	5	1	0	5	0
44	165	1	10000	5	1	0	5	0
41	166	1	10000	5	1	0	5	0
40	167	1	10000	5	1	0	5	0
42	168	1	10000	5	1	0	5	0
47	169	1	10000	5	1	0	5	0
50	170	1	10000	5	1	0	5	0
57	171	1	10000	5	1	0	5	0
64	172	1	10000	5	1	0	5	0
69	173	1	10000	5	1	0	5	0
71	174	1	10000	5	1	0	5	0
72	175	1	10000	5	1	0	5	0
75	176	1	10000	5	1	0	5	0
75	177	1	10000	5	1	0	5	0
78	178	1	10000	5	1	0	5	0
82	179	1	10000	5	1	0	5	0
85	180	1	10000	5	1	0	5	0
89	181	1	10000	5	1	0	5	0
93	182	1	10000	5	1	0	5	0
98	183	1	10000	5	1	0	5	0
99	184	1	10000	5	1	0	5	0
98	185	1	10000	5	1	0	5	0
96	186	1	10000	5	1	0	5	0
96	187	1	10000	5	1	0	5	0
97	188	1	10000	5	1	0	5	0
97	189	1	10000	5	1	0	5	0
95	190	1	10000	5	1	0	5	0
94	191	1	10000	5	1	0	5	0
95	192	1	10000	5	1	0	5	0
93	193	1	10000	5	1	0	5	0
89	194	1	10000	5	1	0	5	0
85	195	1	10000	5	1	0	5	0
83	196	1	10000	5	1	0	5	0
80	197	1	10000	5	1	0	5	0
80	198	1	10000	5	1	0	5	0
77	199	1	10000	5	1	0	5	0
75	200	1	10000	5	1	0	5	0
74	201	1	10000	5	1	0	5	0
70	202	1	10000	5	1	0	5	0
68	203	1	10000	5	1	0	5	0
67	204	1	10000	5	1	0	5	0
66	205	1	10000	5	1	0	5	0
65	206	1	10000	5	1	0	5	0
65	207	1	10000	5	1	0	5	0
63	208	1	10000	5	1	0	5	0
62	209	1	10000	5	1	0	5	0
66	210	1	10000	5	1	0	5	0
69	211	1	10000	5	1	0	5	0
73	212	1	10000	5	1	0	5	0
77	213	1	10000	5	1	0	5	0
79	214	1	10000	5	1	0	5	0
80	215	1	10000	5	1	0	5	0
82	216	1	10000	5	1	0	5	0
81	217	1	10000	5	1	0	5	0
81	218	1	10000	5	1	0	5	0
82	219	1	10000	5	1	0	5	0
84	220	1	10000	5	1	0	5	0
86	221	1	10000	5	1	0	5	0
86	222	1	10000	5	1	0	5	0
89	223	1	10000	5	1	0	5	0
93	224	1	10000	5	1	0	5	0
95	225	1	10000	5	1	0	5	0
96	226	1	10000	5	1	0	5	0
99	227	1	10000	5	1	0	5	0
102	228	1	10000	5	1	0	5	0
104	229	1	10000	5	1	0	5	0
108	230	1	10000	5	1	0	5	0
111	231	1	10000	5	1	0	5	0
115	232	1	10000	5	1	0	5	0
117	233	1	10000	5	1	0	5	0
119	234	1	10000	5	1	0	5	0
120	235	1	10000	5	1	0	5	0
123	236	1	10000	5	1	0	5	0
121	237	1	10000	5	1	0	5	0
121	238	1	10000	5	1	0	5	0
121	239	1	10000	5	1	0	5	0
121	240	1	10000	5	1	0	5	0
120	241	1	10000	5	1	0	5	0
121	242	1	10000	5	1	0	5	0
121	243	1	10000	5	1	0	5	0
121	244	1	10000	5	1	0	5	0
122	245	1	10000	5	1	0	5	0
119	246	1	10000	5	1	0	5	0
117	247	1	10000	5	1	0	5	0
115	248	1	10000	5	1	0	5	0
114	249	1	10000	5	1	0	5	0
112	250	1	10000	5	1	0	5	0
109	251	1	10000	5	1	0	5	0
108	252	1	10000	5	1	0	5	0
106	253	1	10000	5	1	0	5	0
104	254	1	10000	5	1	0	5	0
104	255	1	10000	5	1	0	5	0
104	256	1	10000	5	1	0	5	0
102	257	1	10000	5	1	0	5	0
100	258	1	10000	5	1	0	5	0
98	259	1	10000	5	1	0	5	0
96	260	1	10000	5	1	0	5	0
93	261	1	10000	5	1	0	5	0
90	262	1	10000	5	1	0	5	0
86	263	1	10000	5	1	0	5	0
83	264	1	10000	5	1	0	5	0
81	265	1	10000	5	1	0	5	0
74	266	1	10000	5	1	0	5	0
71	267	1	10000	5	1	0	5	0
70	268	1	10000	5	1	0	5	0
68	269	1	10000	5	1	0	5	0
66	270	1	10000	5	1	0	5	0
63	271	1	10000	5	1	0	5	0
61	272	1	10000	5	1	0	5	0
58	273	1	10000	5	1	0	5	0
56	274	1	10000	5	1	0	5	0
55	275	1	10000	5	1	0	5	0
54	276	1	10000	5	1	0	5	0
52	277	1	10000	5	1	0	5	0
50	278	1	10000	5	1	0	5	0
49	279	1	10000	5	1	0	5	0
47	280	1	10000	5	1	0	5	0
46	281	1	10000	5	1	0	5	0
44	282	1	10000	5	1	0	5	0
44	283	1	10000	5	1	0	5	0
43	284	1	10000	5	1	0	5	0
41	285	1	10000	5	1	0	5	0
39	286	1	10000	5	1	0	5	0
38	287	1	10000	5	1	0	5	0
36	288	1	10000	5	1	0	5	0
35	289	1	10000	5	1	0	5	0
34	290	1	10000	5	1	0	5	0
33	291	1	10000	5	1	0	5	0
32	292	1	10000	5	1	0	5	0
30	293	1	10000	5	1	0	5	0
29	294	1	10000	5	1	0	5	0
28	295	1	10000	5	1	0	5	0
30	296	1	10000	5	1	0	5	0
30	297	1	10000	5	1	0	5	0
28	298	1	10000	5	1	0	5	0
28	299	1	10000	5	1	0	5	0
28	300	1	10000	5	1	0	5	0
26	301	1	10000	5	1	0	5	0
25	302	1	10000	5	1	0	5	0
25	303	1	10000	5	1	0	5	0
26	304	1	10000	5	1	0	5	0
26	305	1	10000	5	1	0	5	0
25	306	1	10000	5	1	0	5	0
24	307	1	10000	5	1	0	5	0
24	308	1	10000	5	1	0	5	0
25	309	1	10000	5	1	0	5	0
24	310	1	10000	5	1	0	5	0
25	311	1	10000	5	1	0	5	0
25	312	1	10000	5	1	0	5	0
24	313	1	10000	5	1	0	5	0
24	314	1	10000	5	1	0	5	0
23	315	1	10000	5	1	0	5	0
25	316	1	10000	5	1	0	5	0
24	317	1	10000	5	1	0	5	0
24	318	1	10000	5	1	0	5	0
23	319	1	10000	5	1	0	5	0
23	320	1	10000	5	1	0	5	0
23	321	1	10000	5	1	0	5	0
21	322	1	10000	5	1	0	5	0
22	323	1	10000	5	1	0	5	0
23	324	1	10000	5	1	0	5	0
24	325	1	10000	5	1	0	5	0
23	326	1	10000	5	1	0	5	0
23	327	1	10000	5	1	0	5	0
23	328	1	10000	5	1	0	5	0
23	329	1	10000	5	1	0	5	0
22	330	1	10000	5	1	0	5	0
21	331	1	10000	5	1	0	5	0
21	332	1	10000	5	1	0	5	0
21	333	1	10000	5	1	0	5	0
20	334	1	10000	5	1	0	5	0
22	335	1	10000	5	1	0	5	0
22	336	1	10000	5	1	0	5	0
21	337	1	10000	5	1	0	5	0
22	338	1	10000	5	1	0	5	0
21	339	1	10000	5	1	0	5	0
21	340	1	10000	5	1	0	5	0
21	341	1	10000	5	1	0	5	0
20	342	1	10000	5	1	0	5	0
20	343	1	10000	5	1	0	5	0
21	344	1	10000	5	1	0	5	0
20	345	1	10000	5	1	0	5	0
18	346	1	10000	5	1	0	5	0
19	347	1	10000	5	1	0	5	0
19	348	1	10000	5	1	0	5	0
19	349	1	10000	5	1	0	5	0
19	350	1	10000	5	1	0	5	0
19	351	1	10000	5	1	0	5	0
19	352	1	10000	5	1	0	5	0
18	353	1	10000	5	1	0	5	0
16	354	1	10000	5	1	0	5	0
17	355	1	10000	5	1	0	5	0
19	356	1	10000	5	1	0	5	0
18	357	1	10000	5	1	0	5	0
17	358	1	10000	5	1	0	5	0
16	359	1	10000	5	1	0	5	0
16	360	1	10000	5	1	0	5	0
16	361	1	10000	5	1	0	5	0
15	362	1	10000	5	1	0	5	0
16	363	1	10000	5	1	0	5	0
18	364	1	10000	5	1	0	5	0
19	365	1	10000	5	1	0	5	0
17	366	1	10000	5	1	0	5	0
19	367	1	10000	5	1	0	5	0
19	368	1	10000	5	1	0	5	0
19	369	1	10000	5	1	0	5	0
20	370	1	10000	5	1	0	5	0
18	371	1	10000	5	1	0	5	0
19	372	1	10000	5	1	0	5	0
19	373	1	10000	5	1	0	5	0
18	374	1	10000	5	1	0	5	0
18	375	1	10000	5	1	0	5	0
20	376	1	10000	5	1	0	5	0
19	377	1	10000	5	1	0	5	0
19	378	1	10000	5	1	0	5	0
19	379	1	10000	5	1	0	5	0
20	380	1	10000	5	1	0	5	0
20	381	1	10000	5	1	0	5	0
19	382	1	10000	5	1	0	5	0
19	383	1	10000	5	1	0	5	0
19	384	1	10000	5	1	0	5	0
19	385	1	10000	5	1	0	5	0
17	386	1	10000	5	1	0	5	0
17	387	1	10000	5	1	0	5	0
17	388	1	10000	5	1	0	5	0
16	389	1	10000	5	1	0	5	0
16	390	1	10000	5	1	0	5	0
16	391	1	10000	5	1	0	5	0
16	392	1	10000	5	1	0	5	0
16	393	1	10000	5	1	0	5	0
17	394	1	10000	5	1	0	5	0
18	395	1	10000	5	1	0	5	0
22	396	1	10000	5	1	0	5	0
21	397	1	10000	5	1	0	5	0
22	398	1	10000	5	1	0	5	0
21	399	1	10000	5	1	0	5	0
20	400	1	10000	5	1	0	5	0
20	401	1	10000	5	1	0	5	0
22	402	1	10000	5	1	0	5	0
24	403	1	10000	5	1	0	5	0
24	404	1	10000	5	1	0	5	0
24	405	1	10000	5	1	0	5	0
22	406	1	10000	5	1	0	5	0
24	407	1	10000	5	1	0	5	0
26	408	1	10000	5	1	0	5	0
27	409	1	10000	5	1	0	5	0
28	410	1	10000	5	1	0	5	0
29	411	1	10000	5	1	0	5	0
29	412	1	10000	5	1	0	5	0
29	413	1	10000	5	1	0	5	0
31	414	1	10000	5	1	0	5	0
35	415	1	10000	5	1	0	5	0
42	416	1	10000	5	1	0	5	0
48	417	1	10000	5	1	0	5	0
54	418	1	10000	5	1	0	5	0
60	419	1	10000	5	1	0	5	0
65	420	1	10000	5	1	0	5	0
70	421	1	10000	5	1	0	5	0
77	422	1	10000	5	1	0	5	0
84	423	1	10000	5	1	0	5	0
90	424	1	10000	5	1	0	5	0
94	425	1	10000	5	1	0	5	0
96	426	1	10000	5	1	0	5	0
102	427	1	10000	5	1	0	5	0
107	428	1	10000	5	1	0	5	0
112	429	1	10000	5	1	0	5	0
116	430	1	10000	5	1	0	5	0
121	431	1	10000	5	1	0	5	0
127	432	1	10000	5	1	0	5	0
129	433	1	10000	5	1	0	5	0
133	434	1	10000	5	1	0	5	0
137	435	1	10000	5	1	0	5	0
143	436	1	10000	5	1	0	5	0
148	437	1	10000	5	1	0	5	0
151	438	1	10000	5	1	0	5	0
154	439	1	10000	5	1	0	5	0
158	440	1	10000	5	1	0	5	0
161	441	1	10000	5	1	0	5	0
164	442	1	10000	5	1	0	5	0
166	443	1	10000	5	1	0	5	0
167	444	1	10000	5	1	0	5	0
168	445	1	10000	5	1	0	5	0
167	446	1	10000	5	1	0	5	0
169	447	1	10000	5	1	0	5	0
168	448	1	10000	5	1	0	5	0
168	449	1	10000	5	1	0	5	0
166	450	1	10000	5	1	0	5	0
164	451	1	10000	5	1	0	5	0
162	452	1	10000	5	1	0	5	0
159	453	1	10000	5	1	0	5	0
155	454	1	10000	5	1	0	5	0
150	455	1	10000	5	1	0	5	0
146	456	1	10000	5	1	0	5	0
140	457	1	10000	5	1	0	5	0
135	458	1	10000	5	1	0	5	0
131	459	1	10000	5	1	0	5	0
127	460	1	10000	5	1	0	5	0
123	461	1	10000	5	1	0	5	0
119	462	1	10000	5	1	0	5	0
118	463	1	10000	5	1	0	5	0
118	464	1	10000	5	1	0	5	0
118	465	1	10000	5	1	0	5	0
117	466	1	10000	5	1	0	5	0
118	467	1	10000	5	1	0	5	0
121	468	1	10000	5	1	0	5	0
125	469	1	10000	5	1	0	5	0
128	470	1	10000	5	1	0	5	0
133	471	1	10000	5	1	0	5	0
139	472	1	10000	5	1	0	5	0
142	473	1	10000	5	1	0	5	0
146	474	1	10000	5	1	0	5	0
152	475	1	10000	5	1	0	5	0
157	476	1	10000	5	1	0	5	0
160	477	1	10000	5	1	0	5	0
163	478	1	10000	5	1	0	5	0
165	479	1	10000	5	1	0	5	0
169	480	1	10000	5	1	0	5	0
173	481	1	10000	5	1	0	5	0
176	482	1	10000	5	1	0	5	0
181	483	1	10000	5	1	0	5	0
186	484	1	10000	5	1	0	5	0
188	485	1	10000	5	1	0	5	0
188	486	1	10000	5	1	0	5	0
189	487	1	10000	5	1	0	5	0
191	488	1	10000	5	1	0	5	0
192	489	1	10000	5	1	0	5	0
192	490	1	10000	5	1	0	5	0
193	491	1	10000	5	1	0	5	0
195	492	1	10000	5	1	0	5	0
196	493	1	10000	5	1	0	5	0
195	494	1	10000	5	1	0	5	0
194	495	1	10000	5	1	0	5	0
194	496	1	10000	5	1	0	5	0
191	497	1	10000	5	1	0	5	0
187	498	1	10000	5	1	0	5	0
183	499	1	10000	5	1	0	5	0
179	500	1	10000	5	1	0	5	0
176	501	1	10000	5	1	0	5	0
170	501	1	10000	5	1	0	5	1
167	502	1	10000	5	1	0	5	1
164	504	1	10000	5	1	0	5	1
160	505	1	10000	5	1	0	5	1
154	506	1	10000	5	1	0	5	1
152	507	1	10000	5	1	0	5	1
147	508	1	10000	5	1	0	5	1
144	509	1	10000	5	1	0	5	1
141	510	1	10000	5	1	0	5	1
139	511	1	10000	5	1	0	5	1
136	512	1	10000	5	1	0	5	1
131	513	1	10000	5	1	0	5	1
127	514	1	10000	5	1	0	5	1
122	515	1	10000	5	1	0	5	1
119	516	1	10000	5	1	0	5	1
114	517	1	10000	5	1	0	5	1
110	518	1	10000	5	1	0	5	1
109	519	1	10000	5	1	0	5	1
107	520	1	10000	5	1	0	5	1
104	521	1	10000	5	1	0	5	1
103	522	1	10000	5	1	0	5	1
101	523	1	10000	5	1	0	5	1
100	524	1	10000	5	1	0	5	1
97	525	1	10000	5	1	0	5	1
92	526	1	10000	5	1	0	5	1
91	527	1	10000	5	1	0	5	1
89	528	1	10000	5	1	0	5	1
84	529	1	10000	5	1	0	5	1
81	530	1	10000	5	1	0	5	1
78	531	1	10000	5	1	0	5	1
74	532	1	10000	5	1	0	5	1
71	533	1	10000	5	1	0	5	1
68	534	1	10000	5	1	0	5	1
65	535	1	10000	5	1	0	5	1
64	536	1	10000	5	1	0	5	1
61	537	1	10000	5	1	0	5	1
58	538	1	10000	5	1	0	5	1
57	539	1	10000	5	1	0	5	1
55	540	1	10000	5	1	0	5	1
52	541	1	10000	5	1	0	5	1
50	542	1	10000	5	1	0	5	1
49	543	1	10000	5	1	0	5	1
48	544	1	10000	5	1	0	5	1
48	545	1	10000	5	1	0	5	1
44	546	1	10000	5	1	0	5	1
43	547	1	10000	5	1	0	5	1
42	548	1	10000	5	1	0	5	1
42	549	1	10000	5	1	0	5	1
41	550	1	10000	5	1	0	5	1
39	551	1	10000	5	1	0	5	1
38	552	1	10000	5	1	0	5	0
37	553	1	10000	5	1	0	5	0
36	554	1	10000	5	1	0	5	0
34	555	1	10000	5	1	0	5	0
34	556	1	10000	5	1	0	5	0
33	557	1	10000	5	1	0	5	0
32	558	1	10000	5	1	0	5	0
31	559	1	10000	5	1	0	5	0
30	560	1	10000	5	1	0	5	0
29	561	1	10000	5	1	0	5	0
28	562	1	10000	5	1	0	5	0
28	563	1	10000	5	1	0	5	0
27	564	1	10000	5	1	0	5	0
26	565	1	10000	5	1	0	5	0
24	566	1	10000	5	1	0	5	0
24	567	1	10000	5	1	0	5	0
24	568	1	10000	5	1	0	5	0
23	569	1	10000	5	1	0	5	0
24	570	1	10000	5	1	0	5	0
24	571	1	10000	5	1	0	5	0
23	572	1	10000	5	1	0	5	0
22	573	1	10000	5	1	0	5	0
21	574	1	10000	5	1	0	5	0
21	575	1	10000	5	1	0	5	0
23	576	1	10000	5	1	0	5	0
22	577	1	10000	5	1	0	5	0
21	578	1	10000	5	1	0	5	0
21	579	1	10000	5	1	0	5	0
21	580	1	10000	5	1	0	5	0
21	581	1	10000	5	1	0	5	0
21	582	1	10000	5	1	0	5	0
22	583	1	10000	5	1	0	5	0
21	584	1	10000	5	1	0	5	0
22	585	1	10000	5	1	0	5	0
22	586	1	10000	5	1	0	5	0
23	587	1	10000	5	1	0	5	0
26	588	1	10000	5	1	0	5	0
35	589	1	10000	5	1	0	5	0
37	590	1	10000	5	1	0	5	0
40	591	1	10000	5	1	0	5	0
44	592	1	10000	5	1	0	5	0
51	593	1	10000	5	1	0	5	0
68	594	1	10000	5	1	0	5	0
82	595	1	10000	5	1	0	5	0
83	596	1	10000	5	1	0	5	0
85	597	1	10000	5	1	0	5	0
92	598	1	10000	5	1	0	5	0
105	599	1	10000	5	1	0	5	0
107	600	1	10000	5	1	0	5	0
121	601	1	10000	5	1	0	5	0
144	602	1	10000	5	1	0	5	0
160	603	1	10000	5	1	0	5	0
161	604	1	10000	5	1	0	5	0
164	605	1	10000	5	1	0	5	0
167	606	1	10000	5	1	0	5	0
161	607	1	10000	5	1	0	5	0
156	608	1	10000	5	1	0	5	0
156	609	1	10000	5	1	0	5	0
150	610	1	10000	5	1	0	5	0
146	611	1	10000	5	1	0	5	0
156	612	1	10000	5	1	0	5	0
157	613	1	10000	5	1	0	5	0
153	614	1	10000	5	1	0	5	0
155	615	1	10000	5	1	0	5	0
159	616	1	10000	5	1	0	5	0
157	617	1	10000	5	1	0	5	0
159	618	1	10000	5	1	0	5	0
160	619	1	10000	5	1	0	5	0
160	620	1	10000	5	1	0	5	0
157	621	1	10000	5	1	0	5	0
153	622	1	10000	5	1	0	5	0
151	623	1	10000	5	1	0	5	0
149	624	1	10000	5	1	0	5	0
147	625	1	10000	5	1	0	5	0
145	626	1	10000	5	1	0	5	0
144	627	1	10000	5	1	0	5	0
143	628	1	10000	5	1	0	5	0
140	629	1	10000	5	1	0	5	0
137	630	1	10000	5	1	0	5	0
136	631	1	10000	5	1	0	5	0
133	632	1	10000	5	1	0	5	0
130	633	1	10000	5	1	0	5	0
125	634	1	10000	5	1	0	5	0
120	635	1	10000	5	1	0	5	0
116	636	1	10000	5	1	0	5	0
110	637	1	10000	5	1	0	5	0
105	638	1	10000	5	1	0	5	0
101	639	1	10000	5	1	0	5	0
98	640	1	10000	5	1	0	5	0
97	641	1	10000	5	1	0	5	0
94	642	1	10000	5	1	0	5	0
93	643	1	10000	5	1	0	5	0
94	644	1	10000	5	1	0	5	0
93	645	1	10000	5	1	0	5	0
92	646	1	10000	5	1	0	5	0
92	647	1	10000	5	1	0	5	0
92	648	1	10000	5	1	0	5	0
93	649	1	10000	5	1	0	5	0
94	650	1	10000	5	1	0	5	0
95	651	1	10000	5	1	0	5	0
97	652	1	10000	5	1	0	5	0
99	653	1	10000	5	1	0	5	0
100	654	1	10000	5	1	0	5	0
100	655	1	10000	5	1	0	5	0
102	656	1	10000	5	1	0	5	0
104	657	1	10000	5	1	0	5	0
104	658	1	10000	5	1	0	5	0
105	659	1	10000	5	1	0	5	0
106	660	1	10000	5	1	0	5	0
108	661	1	10000	5	1	0	5	0
110	662	1	10000	5	1	0	5	0
110	663	1	10000	5	1	0	5	0
110	664	1	10000	5	1	0	5	0
108	665	1	10000	5	1	0	5	0
105	666	1	10000	5	1	0	5	0
104	667	1	10000	5	1	0	5	0
103	668	1	10000	5	1	0	5	0
102	669	1	10000	5	1	0	5	0
102	670	1	10000	5	1	0	5	0
101	671	1	10000	5	1	0	5	0
97	672	1	10000	5	1	0	5	0
96	673	1	10000	5	1	0	5	0
93	674	1	10000	5	1	0	5	0
92	675	1	10000	5	1	0	5	0
92	676	1	10000	5	1	0	5	0
91	677	1	10000	5	1	0	5	0
90	678	1	10000	5	1	0	5	0
88	679	1	10000	5	1	0	5	0
86	680	1	10000	5	1	0	5	0
83	681	1	10000	5	1	0	5	0
81	682	1	10000	5	1	0	5	0
77	683	1	10000	5	1	0	5	0
74	684	1	10000	5	1	0	5	0
72	685	1	10000	5	1	0	5	0
68	686	1	10000	5	1	0	5	0
67	687	1	10000	5	1	0	5	0
66	688	1	10000	5	1	0	5	0
64	689	1	10000	5	1	0	5	0
62	690	1	10000	5	1	0	5	0
59	691	1	10000	5	1	0	5	0
57	692	1	10000	5	1	0	5	0
54	693	1	10000	5	1	0	5	0
53	694	1	10000	5	1	0	5	0
53	695	1	10000	5	1	0	5	0
52	696	1	10000	5	1	0	5	0
50	697	1	10000	5	1	0	5	0
