value	EMG	Stimulus	EMG_sensitivity	Total_Trial_Nr	practise	acq	probe_nr	Startle_Probe
26	1	10	10000	1	1	0	1	0
24	2	10	10000	1	1	0	1	0
23	3	10	10000	1	1	0	1	0
25	4	10	10000	1	1	0	1	0
24	5	10	10000	1	1	0	1	0
23	6	10	10000	1	1	0	1	0
22	7	10	10000	1	1	0	1	0
21	8	10	10000	1	1	0	1	0
20	9	10	10000	1	1	0	1	0
20	10	10	10000	1	1	0	1	0
20	11	10	10000	1	1	0	1	0
21	12	10	10000	1	1	0	1	0
22	13	10	10000	1	1	0	1	0
20	14	10	10000	1	1	0	1	0
20	15	10	10000	1	1	0	1	0
20	16	10	10000	1	1	0	1	0
19	17	10	10000	1	1	0	1	0
19	18	10	10000	1	1	0	1	0
19	19	10	10000	1	1	0	1	0
18	20	10	10000	1	1	0	1	0
19	21	10	10000	1	1	0	1	0
18	22	10	10000	1	1	0	1	0
18	23	10	10000	1	1	0	1	0
21	24	10	10000	1	1	0	1	0
20	25	10	10000	1	1	0	1	0
19	26	10	10000	1	1	0	1	0
19	27	10	10000	1	1	0	1	0
18	28	10	10000	1	1	0	1	0
20	29	10	10000	1	1	0	1	0
20	30	10	10000	1	1	0	1	0
19	31	10	10000	1	1	0	1	0
19	32	10	10000	1	1	0	1	0
19	33	10	10000	1	1	0	1	0
16	34	10	10000	1	1	0	1	0
16	35	10	10000	1	1	0	1	0
16	36	10	10000	1	1	0	1	0
15	37	10	10000	1	1	0	1	0
15	38	10	10000	1	1	0	1	0
14	39	10	10000	1	1	0	1	0
14	40	10	10000	1	1	0	1	0
13	41	10	10000	1	1	0	1	0
12	42	10	10000	1	1	0	1	0
11	43	10	10000	1	1	0	1	0
14	44	10	10000	1	1	0	1	0
14	45	10	10000	1	1	0	1	0
13	46	10	10000	1	1	0	1	0
13	47	10	10000	1	1	0	1	0
13	48	10	10000	1	1	0	1	0
14	49	10	10000	1	1	0	1	0
14	50	10	10000	1	1	0	1	0
16	51	10	10000	1	1	0	1	0
17	52	10	10000	1	1	0	1	0
18	53	10	10000	1	1	0	1	0
17	54	10	10000	1	1	0	1	0
17	55	10	10000	1	1	0	1	0
16	56	10	10000	1	1	0	1	0
16	57	10	10000	1	1	0	1	0
16	58	10	10000	1	1	0	1	0
16	59	10	10000	1	1	0	1	0
17	60	10	10000	1	1	0	1	0
17	61	10	10000	1	1	0	1	0
17	62	10	10000	1	1	0	1	0
15	63	10	10000	1	1	0	1	0
18	64	10	10000	1	1	0	1	0
18	65	10	10000	1	1	0	1	0
17	66	10	10000	1	1	0	1	0
15	67	10	10000	1	1	0	1	0
16	68	10	10000	1	1	0	1	0
15	69	10	10000	1	1	0	1	0
15	70	10	10000	1	1	0	1	0
17	71	10	10000	1	1	0	1	0
16	72	10	10000	1	1	0	1	0
16	73	10	10000	1	1	0	1	0
14	74	10	10000	1	1	0	1	0
14	75	10	10000	1	1	0	1	0
14	76	10	10000	1	1	0	1	0
14	77	10	10000	1	1	0	1	0
14	78	10	10000	1	1	0	1	0
14	79	10	10000	1	1	0	1	0
15	80	10	10000	1	1	0	1	0
14	81	10	10000	1	1	0	1	0
13	82	10	10000	1	1	0	1	0
12	83	10	10000	1	1	0	1	0
14	84	10	10000	1	1	0	1	0
14	85	10	10000	1	1	0	1	0
14	86	10	10000	1	1	0	1	0
13	87	10	10000	1	1	0	1	0
12	88	10	10000	1	1	0	1	0
14	89	10	10000	1	1	0	1	0
14	90	10	10000	1	1	0	1	0
15	91	10	10000	1	1	0	1	0
16	92	10	10000	1	1	0	1	0
18	93	10	10000	1	1	0	1	0
17	94	10	10000	1	1	0	1	0
19	95	10	10000	1	1	0	1	0
20	96	10	10000	1	1	0	1	0
20	97	10	10000	1	1	0	1	0
22	98	10	10000	1	1	0	1	0
24	99	10	10000	1	1	0	1	0
25	100	10	10000	1	1	0	1	0
25	101	10	10000	1	1	0	1	0
27	102	10	10000	1	1	0	1	0
31	103	10	10000	1	1	0	1	0
36	104	10	10000	1	1	0	1	0
38	105	10	10000	1	1	0	1	0
40	106	10	10000	1	1	0	1	0
44	107	10	10000	1	1	0	1	0
51	108	10	10000	1	1	0	1	0
59	109	10	10000	1	1	0	1	0
66	110	10	10000	1	1	0	1	0
75	111	10	10000	1	1	0	1	0
83	112	10	10000	1	1	0	1	0
90	113	10	10000	1	1	0	1	0
96	114	10	10000	1	1	0	1	0
103	115	10	10000	1	1	0	1	0
111	116	10	10000	1	1	0	1	0
119	117	10	10000	1	1	0	1	0
127	118	10	10000	1	1	0	1	0
134	119	10	10000	1	1	0	1	0
140	120	10	10000	1	1	0	1	0
147	121	10	10000	1	1	0	1	0
153	122	10	10000	1	1	0	1	0
157	123	10	10000	1	1	0	1	0
163	124	10	10000	1	1	0	1	0
164	125	10	10000	1	1	0	1	0
165	126	10	10000	1	1	0	1	0
167	127	10	10000	1	1	0	1	0
168	128	10	10000	1	1	0	1	0
169	129	10	10000	1	1	0	1	0
171	130	10	10000	1	1	0	1	0
171	131	10	10000	1	1	0	1	0
170	132	10	10000	1	1	0	1	0
170	133	10	10000	1	1	0	1	0
165	134	10	10000	1	1	0	1	0
165	135	10	10000	1	1	0	1	0
164	136	10	10000	1	1	0	1	0
162	137	10	10000	1	1	0	1	0
159	138	10	10000	1	1	0	1	0
154	139	10	10000	1	1	0	1	0
149	140	10	10000	1	1	0	1	0
144	141	10	10000	1	1	0	1	0
139	142	10	10000	1	1	0	1	0
134	143	10	10000	1	1	0	1	0
132	144	10	10000	1	1	0	1	0
127	145	10	10000	1	1	0	1	0
122	146	10	10000	1	1	0	1	0
119	147	10	10000	1	1	0	1	0
115	148	10	10000	1	1	0	1	0
110	149	10	10000	1	1	0	1	0
106	150	10	10000	1	1	0	1	0
104	151	10	10000	1	1	0	1	0
102	152	10	10000	1	1	0	1	0
100	153	10	10000	1	1	0	1	0
95	154	10	10000	1	1	0	1	0
93	155	10	10000	1	1	0	1	0
93	156	10	10000	1	1	0	1	0
93	157	10	10000	1	1	0	1	0
94	158	10	10000	1	1	0	1	0
96	159	10	10000	1	1	0	1	0
97	160	10	10000	1	1	0	1	0
98	161	10	10000	1	1	0	1	0
101	162	10	10000	1	1	0	1	0
100	163	10	10000	1	1	0	1	0
103	164	10	10000	1	1	0	1	0
105	165	10	10000	1	1	0	1	0
109	166	10	10000	1	1	0	1	0
114	167	10	10000	1	1	0	1	0
120	168	10	10000	1	1	0	1	0
125	169	10	10000	1	1	0	1	0
129	170	10	10000	1	1	0	1	0
134	171	10	10000	1	1	0	1	0
141	172	10	10000	1	1	0	1	0
149	173	10	10000	1	1	0	1	0
155	174	10	10000	1	1	0	1	0
162	175	10	10000	1	1	0	1	0
168	176	10	10000	1	1	0	1	0
173	177	10	10000	1	1	0	1	0
179	178	10	10000	1	1	0	1	0
186	179	10	10000	1	1	0	1	0
190	180	10	10000	1	1	0	1	0
193	181	10	10000	1	1	0	1	0
197	182	10	10000	1	1	0	1	0
201	183	10	10000	1	1	0	1	0
208	184	10	10000	1	1	0	1	0
211	185	10	10000	1	1	0	1	0
214	186	10	10000	1	1	0	1	0
218	187	10	10000	1	1	0	1	0
220	188	10	10000	1	1	0	1	0
223	189	10	10000	1	1	0	1	0
225	190	10	10000	1	1	0	1	0
226	191	10	10000	1	1	0	1	0
227	192	10	10000	1	1	0	1	0
229	193	10	10000	1	1	0	1	0
227	194	10	10000	1	1	0	1	0
227	195	10	10000	1	1	0	1	0
227	196	10	10000	1	1	0	1	0
226	197	10	10000	1	1	0	1	0
223	198	10	10000	1	1	0	1	0
220	199	10	10000	1	1	0	1	0
219	200	10	10000	1	1	0	1	0
217	201	10	10000	1	1	0	1	0
215	202	10	10000	1	1	0	1	0
213	203	10	10000	1	1	0	1	0
212	204	10	10000	1	1	0	1	0
208	205	10	10000	1	1	0	1	0
203	206	10	10000	1	1	0	1	0
198	207	10	10000	1	1	0	1	0
195	208	10	10000	1	1	0	1	0
191	209	10	10000	1	1	0	1	0
188	210	10	10000	1	1	0	1	0
187	211	10	10000	1	1	0	1	0
185	212	10	10000	1	1	0	1	0
183	213	10	10000	1	1	0	1	0
177	214	10	10000	1	1	0	1	0
174	215	10	10000	1	1	0	1	0
170	216	10	10000	1	1	0	1	0
167	217	10	10000	1	1	0	1	0
163	218	10	10000	1	1	0	1	0
158	219	10	10000	1	1	0	1	0
153	220	10	10000	1	1	0	1	0
146	221	10	10000	1	1	0	1	0
140	222	10	10000	1	1	0	1	0
134	223	10	10000	1	1	0	1	0
132	224	10	10000	1	1	0	1	0
127	225	10	10000	1	1	0	1	0
122	226	10	10000	1	1	0	1	0
117	227	10	10000	1	1	0	1	0
112	228	10	10000	1	1	0	1	0
108	229	10	10000	1	1	0	1	0
103	230	10	10000	1	1	0	1	0
100	231	10	10000	1	1	0	1	0
98	232	10	10000	1	1	0	1	0
97	233	10	10000	1	1	0	1	0
92	234	10	10000	1	1	0	1	0
90	235	10	10000	1	1	0	1	0
86	236	10	10000	1	1	0	1	0
82	237	10	10000	1	1	0	1	0
80	238	10	10000	1	1	0	1	0
77	239	10	10000	1	1	0	1	0
73	240	10	10000	1	1	0	1	0
70	241	10	10000	1	1	0	1	0
68	242	10	10000	1	1	0	1	0
65	243	10	10000	1	1	0	1	0
65	244	10	10000	1	1	0	1	0
61	245	10	10000	1	1	0	1	0
58	246	10	10000	1	1	0	1	0
56	247	10	10000	1	1	0	1	0
55	248	10	10000	1	1	0	1	0
54	249	10	10000	1	1	0	1	0
54	250	10	10000	1	1	0	1	0
52	251	10	10000	1	1	0	1	0
51	252	10	10000	1	1	0	1	0
50	253	10	10000	1	1	0	1	0
45	254	10	10000	1	1	0	1	0
44	255	10	10000	1	1	0	1	0
44	256	10	10000	1	1	0	1	0
43	257	10	10000	1	1	0	1	0
43	258	10	10000	1	1	0	1	0
42	259	10	10000	1	1	0	1	0
42	260	10	10000	1	1	0	1	0
40	261	10	10000	1	1	0	1	0
39	262	10	10000	1	1	0	1	0
40	263	10	10000	1	1	0	1	0
42	264	10	10000	1	1	0	1	0
42	265	10	10000	1	1	0	1	0
41	266	10	10000	1	1	0	1	0
39	267	10	10000	1	1	0	1	0
40	268	10	10000	1	1	0	1	0
38	269	10	10000	1	1	0	1	0
36	270	10	10000	1	1	0	1	0
35	271	10	10000	1	1	0	1	0
35	272	10	10000	1	1	0	1	0
34	273	10	10000	1	1	0	1	0
30	274	10	10000	1	1	0	1	0
29	275	10	10000	1	1	0	1	0
29	276	10	10000	1	1	0	1	0
31	277	10	10000	1	1	0	1	0
31	278	10	10000	1	1	0	1	0
31	279	10	10000	1	1	0	1	0
30	280	10	10000	1	1	0	1	0
29	281	10	10000	1	1	0	1	0
29	282	10	10000	1	1	0	1	0
29	283	10	10000	1	1	0	1	0
32	284	10	10000	1	1	0	1	0
32	285	10	10000	1	1	0	1	0
31	286	10	10000	1	1	0	1	0
31	287	10	10000	1	1	0	1	0
31	288	10	10000	1	1	0	1	0
29	289	10	10000	1	1	0	1	0
28	290	10	10000	1	1	0	1	0
27	291	10	10000	1	1	0	1	0
26	292	10	10000	1	1	0	1	0
27	293	10	10000	1	1	0	1	0
24	294	10	10000	1	1	0	1	0
22	295	10	10000	1	1	0	1	0
22	296	10	10000	1	1	0	1	0
23	297	10	10000	1	1	0	1	0
23	298	10	10000	1	1	0	1	0
24	299	10	10000	1	1	0	1	0
27	300	10	10000	1	1	0	1	0
27	301	10	10000	1	1	0	1	0
27	302	10	10000	1	1	0	1	0
26	303	10	10000	1	1	0	1	0
27	304	10	10000	1	1	0	1	0
26	305	10	10000	1	1	0	1	0
25	306	10	10000	1	1	0	1	0
25	307	10	10000	1	1	0	1	0
25	308	10	10000	1	1	0	1	0
26	309	10	10000	1	1	0	1	0
25	310	10	10000	1	1	0	1	0
25	311	10	10000	1	1	0	1	0
25	312	10	10000	1	1	0	1	0
24	313	10	10000	1	1	0	1	0
21	314	10	10000	1	1	0	1	0
22	315	10	10000	1	1	0	1	0
23	316	10	10000	1	1	0	1	0
24	317	10	10000	1	1	0	1	0
24	318	10	10000	1	1	0	1	0
24	319	10	10000	1	1	0	1	0
25	320	10	10000	1	1	0	1	0
23	321	10	10000	1	1	0	1	0
22	322	10	10000	1	1	0	1	0
22	323	10	10000	1	1	0	1	0
24	324	10	10000	1	1	0	1	0
24	325	10	10000	1	1	0	1	0
23	326	10	10000	1	1	0	1	0
22	327	10	10000	1	1	0	1	0
23	328	10	10000	1	1	0	1	0
22	329	10	10000	1	1	0	1	0
23	330	10	10000	1	1	0	1	0
24	331	10	10000	1	1	0	1	0
26	332	10	10000	1	1	0	1	0
26	333	10	10000	1	1	0	1	0
24	334	10	10000	1	1	0	1	0
25	335	10	10000	1	1	0	1	0
23	336	10	10000	1	1	0	1	0
23	337	10	10000	1	1	0	1	0
23	338	10	10000	1	1	0	1	0
23	339	10	10000	1	1	0	1	0
23	340	10	10000	1	1	0	1	0
25	341	10	10000	1	1	0	1	0
26	342	10	10000	1	1	0	1	0
26	343	10	10000	1	1	0	1	0
28	344	10	10000	1	1	0	1	0
27	345	10	10000	1	1	0	1	0
26	346	10	10000	1	1	0	1	0
24	347	10	10000	1	1	0	1	0
23	348	10	10000	1	1	0	1	0
22	349	10	10000	1	1	0	1	0
22	350	10	10000	1	1	0	1	0
21	351	10	10000	1	1	0	1	0
20	352	10	10000	1	1	0	1	0
20	353	10	10000	1	1	0	1	0
17	354	10	10000	1	1	0	1	0
17	355	10	10000	1	1	0	1	0
17	356	10	10000	1	1	0	1	0
17	357	10	10000	1	1	0	1	0
18	358	10	10000	1	1	0	1	0
19	359	10	10000	1	1	0	1	0
19	360	10	10000	1	1	0	1	0
18	361	10	10000	1	1	0	1	0
18	362	10	10000	1	1	0	1	0
17	363	10	10000	1	1	0	1	0
20	364	10	10000	1	1	0	1	0
18	365	10	10000	1	1	0	1	0
18	366	10	10000	1	1	0	1	0
18	367	10	10000	1	1	0	1	0
19	368	10	10000	1	1	0	1	0
19	369	10	10000	1	1	0	1	0
18	370	10	10000	1	1	0	1	0
18	371	10	10000	1	1	0	1	0
18	372	10	10000	1	1	0	1	0
19	373	10	10000	1	1	0	1	0
17	374	10	10000	1	1	0	1	0
18	375	10	10000	1	1	0	1	0
19	376	10	10000	1	1	0	1	0
19	377	10	10000	1	1	0	1	0
19	378	10	10000	1	1	0	1	0
19	379	10	10000	1	1	0	1	0
18	380	10	10000	1	1	0	1	0
17	381	10	10000	1	1	0	1	0
18	382	10	10000	1	1	0	1	0
17	383	10	10000	1	1	0	1	0
19	384	10	10000	1	1	0	1	0
19	385	10	10000	1	1	0	1	0
18	386	10	10000	1	1	0	1	0
17	387	10	10000	1	1	0	1	0
17	388	10	10000	1	1	0	1	0
16	389	10	10000	1	1	0	1	0
15	390	10	10000	1	1	0	1	0
15	391	10	10000	1	1	0	1	0
15	392	10	10000	1	1	0	1	0
15	393	10	10000	1	1	0	1	0
13	394	10	10000	1	1	0	1	0
13	395	10	10000	1	1	0	1	0
13	396	10	10000	1	1	0	1	0
15	397	10	10000	1	1	0	1	0
15	398	10	10000	1	1	0	1	0
17	399	10	10000	1	1	0	1	0
18	400	10	10000	1	1	0	1	0
17	401	10	10000	1	1	0	1	0
16	402	10	10000	1	1	0	1	0
16	403	10	10000	1	1	0	1	0
18	404	10	10000	1	1	0	1	0
17	405	10	10000	1	1	0	1	0
17	406	10	10000	1	1	0	1	0
16	407	10	10000	1	1	0	1	0
15	408	10	10000	1	1	0	1	0
15	409	10	10000	1	1	0	1	0
16	410	10	10000	1	1	0	1	0
18	411	10	10000	1	1	0	1	0
20	412	10	10000	1	1	0	1	0
22	413	10	10000	1	1	0	1	0
20	414	10	10000	1	1	0	1	0
23	415	10	10000	1	1	0	1	0
25	416	10	10000	1	1	0	1	0
25	417	10	10000	1	1	0	1	0
26	418	10	10000	1	1	0	1	0
26	419	10	10000	1	1	0	1	0
26	420	10	10000	1	1	0	1	0
27	421	10	10000	1	1	0	1	0
28	422	10	10000	1	1	0	1	0
31	423	10	10000	1	1	0	1	0
35	424	10	10000	1	1	0	1	0
37	425	10	10000	1	1	0	1	0
41	426	10	10000	1	1	0	1	0
42	427	10	10000	1	1	0	1	0
44	428	10	10000	1	1	0	1	0
46	429	10	10000	1	1	0	1	0
46	430	10	10000	1	1	0	1	0
47	431	10	10000	1	1	0	1	0
49	432	10	10000	1	1	0	1	0
49	433	10	10000	1	1	0	1	0
47	434	10	10000	1	1	0	1	0
49	435	10	10000	1	1	0	1	0
48	436	10	10000	1	1	0	1	0
46	437	10	10000	1	1	0	1	0
46	438	10	10000	1	1	0	1	0
44	439	10	10000	1	1	0	1	0
43	440	10	10000	1	1	0	1	0
42	441	10	10000	1	1	0	1	0
41	442	10	10000	1	1	0	1	0
39	443	10	10000	1	1	0	1	0
42	444	10	10000	1	1	0	1	0
42	445	10	10000	1	1	0	1	0
41	446	10	10000	1	1	0	1	0
39	447	10	10000	1	1	0	1	0
38	448	10	10000	1	1	0	1	0
36	449	10	10000	1	1	0	1	0
34	450	10	10000	1	1	0	1	0
33	451	10	10000	1	1	0	1	0
34	452	10	10000	1	1	0	1	0
35	453	10	10000	1	1	0	1	0
33	454	10	10000	1	1	0	1	0
32	455	10	10000	1	1	0	1	0
33	456	10	10000	1	1	0	1	0
33	457	10	10000	1	1	0	1	0
33	458	10	10000	1	1	0	1	0
33	459	10	10000	1	1	0	1	0
33	460	10	10000	1	1	0	1	0
33	461	10	10000	1	1	0	1	0
33	462	10	10000	1	1	0	1	0
32	463	10	10000	1	1	0	1	0
35	464	10	10000	1	1	0	1	0
35	465	10	10000	1	1	0	1	0
35	466	10	10000	1	1	0	1	0
35	467	10	10000	1	1	0	1	0
35	468	10	10000	1	1	0	1	0
36	469	10	10000	1	1	0	1	0
36	470	10	10000	1	1	0	1	0
36	471	10	10000	1	1	0	1	0
36	472	10	10000	1	1	0	1	0
36	473	10	10000	1	1	0	1	0
34	474	10	10000	1	1	0	1	0
34	475	10	10000	1	1	0	1	0
35	476	10	10000	1	1	0	1	0
34	477	10	10000	1	1	0	1	0
34	478	10	10000	1	1	0	1	0
34	479	10	10000	1	1	0	1	0
33	480	10	10000	1	1	0	1	0
33	481	10	10000	1	1	0	1	0
32	482	10	10000	1	1	0	1	0
30	483	10	10000	1	1	0	1	0
31	484	10	10000	1	1	0	1	0
29	485	10	10000	1	1	0	1	0
28	486	10	10000	1	1	0	1	0
27	487	10	10000	1	1	0	1	0
26	488	10	10000	1	1	0	1	0
25	489	10	10000	1	1	0	1	0
26	490	10	10000	1	1	0	1	0
27	491	10	10000	1	1	0	1	0
27	492	10	10000	1	1	0	1	0
26	493	10	10000	1	1	0	1	0
23	494	10	10000	1	1	0	1	0
24	495	10	10000	1	1	0	1	0
23	496	10	10000	1	1	0	1	0
23	497	10	10000	1	1	0	1	0
22	498	10	10000	1	1	0	1	0
21	499	10	10000	1	1	0	1	0
21	500	10	10000	1	1	0	1	0
20	543	10	10000	1	1	0	1	1
19	544	10	10000	1	1	0	1	1
19	545	10	10000	1	1	0	1	1
21	546	10	10000	1	1	0	1	1
20	547	10	10000	1	1	0	1	1
20	548	10	10000	1	1	0	1	1
18	549	10	10000	1	1	0	1	1
18	550	10	10000	1	1	0	1	1
17	551	10	10000	1	1	0	1	1
16	552	10	10000	1	1	0	1	1
17	553	10	10000	1	1	0	1	1
17	554	10	10000	1	1	0	1	1
17	555	10	10000	1	1	0	1	1
16	556	10	10000	1	1	0	1	1
15	557	10	10000	1	1	0	1	1
15	558	10	10000	1	1	0	1	1
17	559	10	10000	1	1	0	1	1
16	560	10	10000	1	1	0	1	1
15	561	10	10000	1	1	0	1	1
16	562	10	10000	1	1	0	1	1
15	563	10	10000	1	1	0	1	1
14	564	10	10000	1	1	0	1	1
15	565	10	10000	1	1	0	1	1
18	566	10	10000	1	1	0	1	1
17	567	10	10000	1	1	0	1	1
16	568	10	10000	1	1	0	1	1
15	569	10	10000	1	1	0	1	1
14	570	10	10000	1	1	0	1	1
14	571	10	10000	1	1	0	1	1
14	572	10	10000	1	1	0	1	1
14	573	10	10000	1	1	0	1	1
15	574	10	10000	1	1	0	1	1
14	575	10	10000	1	1	0	1	1
11	576	10	10000	1	1	0	1	1
12	577	10	10000	1	1	0	1	1
12	578	10	10000	1	1	0	1	1
12	579	10	10000	1	1	0	1	1
12	580	10	10000	1	1	0	1	1
12	581	10	10000	1	1	0	1	1
13	582	10	10000	1	1	0	1	1
12	583	10	10000	1	1	0	1	1
12	584	10	10000	1	1	0	1	1
12	585	10	10000	1	1	0	1	1
15	586	10	10000	1	1	0	1	1
14	547	10	10000	1	1	0	1	1
13	548	10	10000	1	1	0	1	1
13	549	10	10000	1	1	0	1	1
12	550	10	10000	1	1	0	1	1
12	549	10	10000	1	1	0	1	1
11	550	10	10000	1	1	0	1	1
13	551	10	10000	1	1	0	1	0
13	552	10	10000	1	1	0	1	0
14	553	10	10000	1	1	0	1	0
13	554	10	10000	1	1	0	1	0
14	555	10	10000	1	1	0	1	0
14	556	10	10000	1	1	0	1	0
14	557	10	10000	1	1	0	1	0
16	558	10	10000	1	1	0	1	0
16	559	10	10000	1	1	0	1	0
17	560	10	10000	1	1	0	1	0
17	561	10	10000	1	1	0	1	0
15	562	10	10000	1	1	0	1	0
15	563	10	10000	1	1	0	1	0
19	564	10	10000	1	1	0	1	0
18	565	10	10000	1	1	0	1	0
19	566	10	10000	1	1	0	1	0
18	567	10	10000	1	1	0	1	0
17	568	10	10000	1	1	0	1	0
17	569	10	10000	1	1	0	1	0
16	570	10	10000	1	1	0	1	0
17	571	10	10000	1	1	0	1	0
17	572	10	10000	1	1	0	1	0
17	573	10	10000	1	1	0	1	0
14	574	10	10000	1	1	0	1	0
14	575	10	10000	1	1	0	1	0
14	576	10	10000	1	1	0	1	0
14	577	10	10000	1	1	0	1	0
14	578	10	10000	1	1	0	1	0
14	579	10	10000	1	1	0	1	0
14	580	10	10000	1	1	0	1	0
13	581	10	10000	1	1	0	1	0
14	582	10	10000	1	1	0	1	0
12	583	10	10000	1	1	0	1	0
14	584	10	10000	1	1	0	1	0
14	585	10	10000	1	1	0	1	0
14	586	10	10000	1	1	0	1	0
15	587	10	10000	1	1	0	1	0
14	588	10	10000	1	1	0	1	0
14	589	10	10000	1	1	0	1	0
14	590	10	10000	1	1	0	1	0
14	591	10	10000	1	1	0	1	0
14	592	10	10000	1	1	0	1	0
14	593	10	10000	1	1	0	1	0
12	594	10	10000	1	1	0	1	0
13	595	10	10000	1	1	0	1	0
13	596	10	10000	1	1	0	1	0
13	597	10	10000	1	1	0	1	0
13	598	10	10000	1	1	0	1	0
14	599	10	10000	1	1	0	1	0
13	600	10	10000	1	1	0	1	0
12	601	10	10000	1	1	0	1	0
12	602	10	10000	1	1	0	1	0
12	603	10	10000	1	1	0	1	0
14	604	10	10000	1	1	0	1	0
15	605	10	10000	1	1	0	1	0
14	606	10	10000	1	1	0	1	0
13	607	10	10000	1	1	0	1	0
15	608	10	10000	1	1	0	1	0
14	609	10	10000	1	1	0	1	0
13	610	10	10000	1	1	0	1	0
14	611	10	10000	1	1	0	1	0
14	612	10	10000	1	1	0	1	0
14	613	10	10000	1	1	0	1	0
12	614	10	10000	1	1	0	1	0
12	615	10	10000	1	1	0	1	0
13	616	10	10000	1	1	0	1	0
14	617	10	10000	1	1	0	1	0
15	618	10	10000	1	1	0	1	0
16	619	10	10000	1	1	0	1	0
16	620	10	10000	1	1	0	1	0
15	621	10	10000	1	1	0	1	0
14	622	10	10000	1	1	0	1	0
14	623	10	10000	1	1	0	1	0
17	624	10	10000	1	1	0	1	0
16	625	10	10000	1	1	0	1	0
15	626	10	10000	1	1	0	1	0
18	627	10	10000	1	1	0	1	0
20	628	10	10000	1	1	0	1	0
25	629	10	10000	1	1	0	1	0
40	630	10	10000	1	1	0	1	0
57	631	10	10000	1	1	0	1	0
74	632	10	10000	1	1	0	1	0
89	633	10	10000	1	1	0	1	0
104	634	10	10000	1	1	0	1	0
116	635	10	10000	1	1	0	1	0
122	636	10	10000	1	1	0	1	0
141	637	10	10000	1	1	0	1	0
141	638	10	10000	1	1	0	1	0
157	639	10	10000	1	1	0	1	0
215	640	10	10000	1	1	0	1	0
257	641	10	10000	1	1	0	1	0
311	642	10	10000	1	1	0	1	0
362	643	10	10000	1	1	0	1	0
363	644	10	10000	1	1	0	1	0
378	645	10	10000	1	1	0	1	0
385	646	10	10000	1	1	0	1	0
373	647	10	10000	1	1	0	1	0
398	648	10	10000	1	1	0	1	0
438	649	10	10000	1	1	0	1	0
456	650	10	10000	1	1	0	1	0
471	651	10	10000	1	1	0	1	0
478	652	10	10000	1	1	0	1	0
490	653	10	10000	1	1	0	1	0
501	654	10	10000	1	1	0	1	0
505	655	10	10000	1	1	0	1	0
514	656	10	10000	1	1	0	1	0
560	657	10	10000	1	1	0	1	0
616	658	10	10000	1	1	0	1	0
659	659	10	10000	1	1	0	1	0
658	660	10	10000	1	1	0	1	0
696	661	10	10000	1	1	0	1	0
696	662	10	10000	1	1	0	1	0
669	663	10	10000	1	1	0	1	0
648	664	10	10000	1	1	0	1	0
627	665	10	10000	1	1	0	1	0
604	666	10	10000	1	1	0	1	0
596	667	10	10000	1	1	0	1	0
583	668	10	10000	1	1	0	1	0
558	669	10	10000	1	1	0	1	0
540	670	10	10000	1	1	0	1	0
531	671	10	10000	1	1	0	1	0
528	672	10	10000	1	1	0	1	0
526	673	10	10000	1	1	0	1	0
520	674	10	10000	1	1	0	1	0
516	675	10	10000	1	1	0	1	0
512	676	10	10000	1	1	0	1	0
507	677	10	10000	1	1	0	1	0
501	678	10	10000	1	1	0	1	0
493	679	10	10000	1	1	0	1	0
483	680	10	10000	1	1	0	1	0
473	681	10	10000	1	1	0	1	0
463	682	10	10000	1	1	0	1	0
459	683	10	10000	1	1	0	1	0
476	684	10	10000	1	1	0	1	0
478	685	10	10000	1	1	0	1	0
459	686	10	10000	1	1	0	1	0
438	687	10	10000	1	1	0	1	0
421	688	10	10000	1	1	0	1	0
407	689	10	10000	1	1	0	1	0
394	690	10	10000	1	1	0	1	0
381	691	10	10000	1	1	0	1	0
369	692	10	10000	1	1	0	1	0
356	693	10	10000	1	1	0	1	0
341	694	10	10000	1	1	0	1	0
330	695	10	10000	1	1	0	1	0
319	696	10	10000	1	1	0	1	0
305	697	10	10000	1	1	0	1	0
296	698	10	10000	1	1	0	1	0
290	699	10	10000	1	1	0	1	0
285	700	10	10000	1	1	0	1	0
278	701	10	10000	1	1	0	1	0
273	702	10	10000	1	1	0	1	0
268	703	10	10000	1	1	0	1	0
266	704	10	10000	1	1	0	1	0
261	705	10	10000	1	1	0	1	0
253	706	10	10000	1	1	0	1	0
245	707	10	10000	1	1	0	1	0
240	708	10	10000	1	1	0	1	0
236	709	10	10000	1	1	0	1	0
232	710	10	10000	1	1	0	1	0
228	711	10	10000	1	1	0	1	0
224	712	10	10000	1	1	0	1	0
222	713	10	10000	1	1	0	1	0
220	714	10	10000	1	1	0	1	0
221	715	10	10000	1	1	0	1	0
222	716	10	10000	1	1	0	1	0
224	717	10	10000	1	1	0	1	0
227	718	10	10000	1	1	0	1	0
231	719	10	10000	1	1	0	1	0
235	720	10	10000	1	1	0	1	0
235	721	10	10000	1	1	0	1	0
232	722	10	10000	1	1	0	1	0
227	723	10	10000	1	1	0	1	0
223	724	10	10000	1	1	0	1	0
214	725	10	10000	1	1	0	1	0
207	726	10	10000	1	1	0	1	0
201	727	10	10000	1	1	0	1	0
196	728	10	10000	1	1	0	1	0
192	729	10	10000	1	1	0	1	0
188	730	10	10000	1	1	0	1	0
187	731	10	10000	1	1	0	1	0
186	732	10	10000	1	1	0	1	0
184	733	10	10000	1	1	0	1	0
182	734	10	10000	1	1	0	1	0
184	735	10	10000	1	1	0	1	0
186	736	10	10000	1	1	0	1	0
187	737	10	10000	1	1	0	1	0
186	738	10	10000	1	1	0	1	0
188	739	10	10000	1	1	0	1	0
187	740	10	10000	1	1	0	1	0
185	741	10	10000	1	1	0	1	0
182	742	10	10000	1	1	0	1	0
178	743	10	10000	1	1	0	1	0
174	744	10	10000	1	1	0	1	0
167	745	10	10000	1	1	0	1	0
164	746	10	10000	1	1	0	1	0
161	747	10	10000	1	1	0	1	0
155	748	10	10000	1	1	0	1	0
149	749	10	10000	1	1	0	1	0
145	750	10	10000	1	1	0	1	0
141	751	10	10000	1	1	0	1	0
138	752	10	10000	1	1	0	1	0
136	753	10	10000	1	1	0	1	0
133	754	10	10000	1	1	0	1	0
131	755	10	10000	1	1	0	1	0
132	756	10	10000	1	1	0	1	0
132	757	10	10000	1	1	0	1	0
131	758	10	10000	1	1	0	1	0
129	759	10	10000	1	1	0	1	0
127	760	10	10000	1	1	0	1	0
123	761	10	10000	1	1	0	1	0
118	762	10	10000	1	1	0	1	0
113	763	10	10000	1	1	0	1	0
111	764	10	10000	1	1	0	1	0
106	765	10	10000	1	1	0	1	0
102	766	10	10000	1	1	0	1	0
98	767	10	10000	1	1	0	1	0
94	768	10	10000	1	1	0	1	0
91	769	10	10000	1	1	0	1	0
87	770	10	10000	1	1	0	1	0
84	771	10	10000	1	1	0	1	0
81	772	10	10000	1	1	0	1	0
78	773	10	10000	1	1	0	1	0
73	774	10	10000	1	1	0	1	0
73	775	10	10000	1	1	0	1	0
72	776	10	10000	1	1	0	1	0
71	777	10	10000	1	1	0	1	0
69	778	10	10000	1	1	0	1	0
66	779	10	10000	1	1	0	1	0
64	780	10	10000	1	1	0	1	0
61	781	10	10000	1	1	0	1	0
58	782	10	10000	1	1	0	1	0
55	783	10	10000	1	1	0	1	0
56	784	10	10000	1	1	0	1	0
55	785	10	10000	1	1	0	1	0
55	786	10	10000	1	1	0	1	0
57	787	10	10000	1	1	0	1	0
58	788	10	10000	1	1	0	1	0
59	789	10	10000	1	1	0	1	0
61	790	10	10000	1	1	0	1	0
62	791	10	10000	1	1	0	1	0
66	792	10	10000	1	1	0	1	0
67	793	10	10000	1	1	0	1	0
62	794	10	10000	1	1	0	1	0
62	795	10	10000	1	1	0	1	0
63	796	10	10000	1	1	0	1	0
63	797	10	10000	1	1	0	1	0
61	798	10	10000	1	1	0	1	0
59	799	10	10000	1	1	0	1	0
57	800	10	10000	1	1	0	1	0
55	801	10	10000	1	1	0	1	0
60	802	10	10000	1	1	0	1	0
59	803	10	10000	1	1	0	1	0
59	804	10	10000	1	1	0	1	0
56	805	10	10000	1	1	0	1	0
55	806	10	10000	1	1	0	1	0
53	807	10	10000	1	1	0	1	0
52	808	10	10000	1	1	0	1	0
50	809	10	10000	1	1	0	1	0
49	810	10	10000	1	1	0	1	0
48	811	10	10000	1	1	0	1	0
46	812	10	10000	1	1	0	1	0
44	813	10	10000	1	1	0	1	0
41	814	10	10000	1	1	0	1	0
40	815	10	10000	1	1	0	1	0
40	816	10	10000	1	1	0	1	0
40	817	10	10000	1	1	0	1	0
38	818	10	10000	1	1	0	1	0
36	819	10	10000	1	1	0	1	0
35	820	10	10000	1	1	0	1	0
35	821	10	10000	1	1	0	1	0
34	822	10	10000	1	1	0	1	0
34	823	10	10000	1	1	0	1	0
36	824	10	10000	1	1	0	1	0
38	825	10	10000	1	1	0	1	0
46	826	10	10000	1	1	0	1	0
56	827	10	10000	1	1	0	1	0
56	828	10	10000	1	1	0	1	0
54	829	10	10000	1	1	0	1	0
51	830	10	10000	1	1	0	1	0
51	831	10	10000	1	1	0	1	0
48	832	10	10000	1	1	0	1	0
49	833	10	10000	1	1	0	1	0
48	834	10	10000	1	1	0	1	0
49	835	10	10000	1	1	0	1	0
48	836	10	10000	1	1	0	1	0
49	837	10	10000	1	1	0	1	0
50	838	10	10000	1	1	0	1	0
50	839	10	10000	1	1	0	1	0
49	840	10	10000	1	1	0	1	0
47	841	10	10000	1	1	0	1	0
45	842	10	10000	1	1	0	1	0
43	843	10	10000	1	1	0	1	0
43	844	10	10000	1	1	0	1	0
43	845	10	10000	1	1	0	1	0
42	846	10	10000	1	1	0	1	0
41	847	10	10000	1	1	0	1	0
41	848	10	10000	1	1	0	1	0
41	849	10	10000	1	1	0	1	0
39	850	10	10000	1	1	0	1	0
39	851	10	10000	1	1	0	1	0
39	852	10	10000	1	1	0	1	0
38	853	10	10000	1	1	0	1	0
35	854	10	10000	1	1	0	1	0
34	855	10	10000	1	1	0	1	0
33	856	10	10000	1	1	0	1	0
33	857	10	10000	1	1	0	1	0
32	858	10	10000	1	1	0	1	0
30	859	10	10000	1	1	0	1	0
29	860	10	10000	1	1	0	1	0
28	861	10	10000	1	1	0	1	0
26	862	10	10000	1	1	0	1	0
25	863	10	10000	1	1	0	1	0
26	864	10	10000	1	1	0	1	0
26	865	10	10000	1	1	0	1	0
28	866	10	10000	1	1	0	1	0
29	867	10	10000	1	1	0	1	0
30	868	10	10000	1	1	0	1	0
30	869	10	10000	1	1	0	1	0
31	870	10	10000	1	1	0	1	0
32	871	10	10000	1	1	0	1	0
32	872	10	10000	1	1	0	1	0
31	873	10	10000	1	1	0	1	0
28	874	10	10000	1	1	0	1	0
28	875	10	10000	1	1	0	1	0
28	876	10	10000	1	1	0	1	0
27	877	10	10000	1	1	0	1	0
26	878	10	10000	1	1	0	1	0
25	879	10	10000	1	1	0	1	0
26	880	10	10000	1	1	0	1	0
26	881	10	10000	1	1	0	1	0
27	882	10	10000	1	1	0	1	0
29	883	10	10000	1	1	0	1	0
32	884	10	10000	1	1	0	1	0
29	885	10	10000	1	1	0	1	0
30	886	10	10000	1	1	0	1	0
30	887	10	10000	1	1	0	1	0
33	888	10	10000	1	1	0	1	0
34	889	10	10000	1	1	0	1	0
34	890	10	10000	1	1	0	1	0
35	891	10	10000	1	1	0	1	0
35	892	10	10000	1	1	0	1	0
34	893	10	10000	1	1	0	1	0
31	894	10	10000	1	1	0	1	0
32	895	10	10000	1	1	0	1	0
33	896	10	10000	1	1	0	1	0
33	897	10	10000	1	1	0	1	0
33	898	10	10000	1	1	0	1	0
32	899	10	10000	1	1	0	1	0
31	900	10	10000	1	1	0	1	0
30	901	10	10000	1	1	0	1	0
30	902	10	10000	1	1	0	1	0
29	903	10	10000	1	1	0	1	0
30	904	10	10000	1	1	0	1	0
28	905	10	10000	1	1	0	1	0
27	906	10	10000	1	1	0	1	0
26	907	10	10000	1	1	0	1	0
26	908	10	10000	1	1	0	1	0
26	909	10	10000	1	1	0	1	0
26	910	10	10000	1	1	0	1	0
26	911	10	10000	1	1	0	1	0
26	912	10	10000	1	1	0	1	0
26	913	10	10000	1	1	0	1	0
22	914	10	10000	1	1	0	1	0
22	915	10	10000	1	1	0	1	0
23	916	10	10000	1	1	0	1	0
25	917	10	10000	1	1	0	1	0
25	918	10	10000	1	1	0	1	0
24	919	10	10000	1	1	0	1	0
27	920	10	10000	1	1	0	1	0
33	921	10	10000	1	1	0	1	0
37	922	10	10000	1	1	0	1	0
36	923	10	10000	1	1	0	1	0
39	924	10	10000	1	1	0	1	0
44	925	10	10000	1	1	0	1	0
50	926	10	10000	1	1	0	1	0
53	927	10	10000	1	1	0	1	0
54	928	10	10000	1	1	0	1	0
54	929	10	10000	1	1	0	1	0
53	930	10	10000	1	1	0	1	0
51	931	10	10000	1	1	0	1	0
52	932	10	10000	1	1	0	1	0
59	933	10	10000	1	1	0	1	0
58	934	10	10000	1	1	0	1	0
58	935	10	10000	1	1	0	1	0
58	936	10	10000	1	1	0	1	0
59	937	10	10000	1	1	0	1	0
63	938	10	10000	1	1	0	1	0
69	939	10	10000	1	1	0	1	0
77	940	10	10000	1	1	0	1	0
83	941	10	10000	1	1	0	1	0
88	942	10	10000	1	1	0	1	0
94	943	10	10000	1	1	0	1	0
102	944	10	10000	1	1	0	1	0
106	945	10	10000	1	1	0	1	0
111	946	10	10000	1	1	0	1	0
120	947	10	10000	1	1	0	1	0
129	948	10	10000	1	1	0	1	0
140	949	10	10000	1	1	0	1	0
147	950	10	10000	1	1	0	1	0
149	951	10	10000	1	1	0	1	0
148	952	10	10000	1	1	0	1	0
149	953	10	10000	1	1	0	1	0
147	954	10	10000	1	1	0	1	0
146	955	10	10000	1	1	0	1	0
147	956	10	10000	1	1	0	1	0
148	957	10	10000	1	1	0	1	0
148	958	10	10000	1	1	0	1	0
146	959	10	10000	1	1	0	1	0
143	960	10	10000	1	1	0	1	0
140	961	10	10000	1	1	0	1	0
136	962	10	10000	1	1	0	1	0
133	963	10	10000	1	1	0	1	0
132	964	10	10000	1	1	0	1	0
130	965	10	10000	1	1	0	1	0
129	966	10	10000	1	1	0	1	0
128	967	10	10000	1	1	0	1	0
127	968	10	10000	1	1	0	1	0
124	969	10	10000	1	1	0	1	0
120	970	10	10000	1	1	0	1	0
116	971	10	10000	1	1	0	1	0
112	972	10	10000	1	1	0	1	0
110	973	10	10000	1	1	0	1	0
105	974	10	10000	1	1	0	1	0
103	975	10	10000	1	1	0	1	0
104	976	10	10000	1	1	0	1	0
106	977	10	10000	1	1	0	1	0
110	978	10	10000	1	1	0	1	0
109	979	10	10000	1	1	0	1	0
108	980	10	10000	1	1	0	1	0
106	981	10	10000	1	1	0	1	0
105	982	10	10000	1	1	0	1	0
106	983	10	10000	1	1	0	1	0
109	984	10	10000	1	1	0	1	0
107	985	10	10000	1	1	0	1	0
108	986	10	10000	1	1	0	1	0
114	987	10	10000	1	1	0	1	0
121	988	10	10000	1	1	0	1	0
127	989	10	10000	1	1	0	1	0
132	990	10	10000	1	1	0	1	0
138	991	10	10000	1	1	0	1	0
143	992	10	10000	1	1	0	1	0
148	993	10	10000	1	1	0	1	0
150	994	10	10000	1	1	0	1	0
153	995	10	10000	1	1	0	1	0
158	996	10	10000	1	1	0	1	0
164	997	10	10000	1	1	0	1	0
170	998	10	10000	1	1	0	1	0
175	999	10	10000	1	1	0	1	0
180	1000	10	10000	1	1	0	1	0
38	2	0	10000	2	1	0	2	0
36	3	0	10000	2	1	0	2	0
36	4	0	10000	2	1	0	2	0
36	5	0	10000	2	1	0	2	0
39	6	0	10000	2	1	0	2	0
39	7	0	10000	2	1	0	2	0
39	8	0	10000	2	1	0	2	0
36	9	0	10000	2	1	0	2	0
34	10	0	10000	2	1	0	2	0
33	11	0	10000	2	1	0	2	0
32	12	0	10000	2	1	0	2	0
32	13	0	10000	2	1	0	2	0
32	14	0	10000	2	1	0	2	0
32	15	0	10000	2	1	0	2	0
31	16	0	10000	2	1	0	2	0
30	17	0	10000	2	1	0	2	0
30	18	0	10000	2	1	0	2	0
30	19	0	10000	2	1	0	2	0
29	20	0	10000	2	1	0	2	0
29	21	0	10000	2	1	0	2	0
30	22	0	10000	2	1	0	2	0
31	23	0	10000	2	1	0	2	0
30	24	0	10000	2	1	0	2	0
30	25	0	10000	2	1	0	2	0
31	26	0	10000	2	1	0	2	0
30	27	0	10000	2	1	0	2	0
30	28	0	10000	2	1	0	2	0
29	29	0	10000	2	1	0	2	0
29	30	0	10000	2	1	0	2	0
30	31	0	10000	2	1	0	2	0
30	32	0	10000	2	1	0	2	0
30	33	0	10000	2	1	0	2	0
30	34	0	10000	2	1	0	2	0
30	35	0	10000	2	1	0	2	0
28	36	0	10000	2	1	0	2	0
26	37	0	10000	2	1	0	2	0
25	38	0	10000	2	1	0	2	0
25	39	0	10000	2	1	0	2	0
24	40	0	10000	2	1	0	2	0
23	41	0	10000	2	1	0	2	0
24	42	0	10000	2	1	0	2	0
23	43	0	10000	2	1	0	2	0
22	44	0	10000	2	1	0	2	0
22	45	0	10000	2	1	0	2	0
23	46	0	10000	2	1	0	2	0
23	47	0	10000	2	1	0	2	0
22	48	0	10000	2	1	0	2	0
21	49	0	10000	2	1	0	2	0
21	50	0	10000	2	1	0	2	0
21	51	0	10000	2	1	0	2	0
20	52	0	10000	2	1	0	2	0
21	53	0	10000	2	1	0	2	0
22	54	0	10000	2	1	0	2	0
24	55	0	10000	2	1	0	2	0
23	56	0	10000	2	1	0	2	0
23	57	0	10000	2	1	0	2	0
23	58	0	10000	2	1	0	2	0
23	59	0	10000	2	1	0	2	0
23	60	0	10000	2	1	0	2	0
22	61	0	10000	2	1	0	2	0
22	62	0	10000	2	1	0	2	0
22	63	0	10000	2	1	0	2	0
22	64	0	10000	2	1	0	2	0
22	65	0	10000	2	1	0	2	0
24	66	0	10000	2	1	0	2	0
23	67	0	10000	2	1	0	2	0
22	68	0	10000	2	1	0	2	0
21	69	0	10000	2	1	0	2	0
20	70	0	10000	2	1	0	2	0
21	71	0	10000	2	1	0	2	0
20	72	0	10000	2	1	0	2	0
20	73	0	10000	2	1	0	2	0
20	74	0	10000	2	1	0	2	0
21	75	0	10000	2	1	0	2	0
18	76	0	10000	2	1	0	2	0
18	77	0	10000	2	1	0	2	0
18	78	0	10000	2	1	0	2	0
18	79	0	10000	2	1	0	2	0
19	80	0	10000	2	1	0	2	0
19	81	0	10000	2	1	0	2	0
19	82	0	10000	2	1	0	2	0
19	83	0	10000	2	1	0	2	0
18	84	0	10000	2	1	0	2	0
17	85	0	10000	2	1	0	2	0
19	86	0	10000	2	1	0	2	0
18	87	0	10000	2	1	0	2	0
17	88	0	10000	2	1	0	2	0
17	89	0	10000	2	1	0	2	0
16	90	0	10000	2	1	0	2	0
15	91	0	10000	2	1	0	2	0
15	92	0	10000	2	1	0	2	0
16	93	0	10000	2	1	0	2	0
16	94	0	10000	2	1	0	2	0
17	95	0	10000	2	1	0	2	0
15	96	0	10000	2	1	0	2	0
15	97	0	10000	2	1	0	2	0
15	98	0	10000	2	1	0	2	0
15	99	0	10000	2	1	0	2	0
15	100	0	10000	2	1	0	2	0
15	101	0	10000	2	1	0	2	0
14	102	0	10000	2	1	0	2	0
13	103	0	10000	2	1	0	2	0
13	104	0	10000	2	1	0	2	0
12	105	0	10000	2	1	0	2	0
15	106	0	10000	2	1	0	2	0
16	107	0	10000	2	1	0	2	0
18	108	0	10000	2	1	0	2	0
18	109	0	10000	2	1	0	2	0
17	110	0	10000	2	1	0	2	0
18	111	0	10000	2	1	0	2	0
17	112	0	10000	2	1	0	2	0
18	113	0	10000	2	1	0	2	0
18	114	0	10000	2	1	0	2	0
20	115	0	10000	2	1	0	2	0
17	116	0	10000	2	1	0	2	0
16	117	0	10000	2	1	0	2	0
17	118	0	10000	2	1	0	2	0
17	119	0	10000	2	1	0	2	0
16	120	0	10000	2	1	0	2	0
16	121	0	10000	2	1	0	2	0
16	122	0	10000	2	1	0	2	0
15	123	0	10000	2	1	0	2	0
16	124	0	10000	2	1	0	2	0
15	125	0	10000	2	1	0	2	0
18	126	0	10000	2	1	0	2	0
18	127	0	10000	2	1	0	2	0
17	128	0	10000	2	1	0	2	0
16	129	0	10000	2	1	0	2	0
17	130	0	10000	2	1	0	2	0
17	131	0	10000	2	1	0	2	0
16	132	0	10000	2	1	0	2	0
17	133	0	10000	2	1	0	2	0
16	134	0	10000	2	1	0	2	0
16	135	0	10000	2	1	0	2	0
14	136	0	10000	2	1	0	2	0
13	137	0	10000	2	1	0	2	0
13	138	0	10000	2	1	0	2	0
14	139	0	10000	2	1	0	2	0
14	140	0	10000	2	1	0	2	0
15	141	0	10000	2	1	0	2	0
15	142	0	10000	2	1	0	2	0
14	143	0	10000	2	1	0	2	0
13	144	0	10000	2	1	0	2	0
13	145	0	10000	2	1	0	2	0
15	146	0	10000	2	1	0	2	0
16	147	0	10000	2	1	0	2	0
16	148	0	10000	2	1	0	2	0
16	149	0	10000	2	1	0	2	0
16	150	0	10000	2	1	0	2	0
15	151	0	10000	2	1	0	2	0
15	152	0	10000	2	1	0	2	0
17	153	0	10000	2	1	0	2	0
17	154	0	10000	2	1	0	2	0
17	155	0	10000	2	1	0	2	0
14	156	0	10000	2	1	0	2	0
14	157	0	10000	2	1	0	2	0
15	158	0	10000	2	1	0	2	0
16	159	0	10000	2	1	0	2	0
17	160	0	10000	2	1	0	2	0
19	161	0	10000	2	1	0	2	0
21	162	0	10000	2	1	0	2	0
24	163	0	10000	2	1	0	2	0
27	164	0	10000	2	1	0	2	0
29	165	0	10000	2	1	0	2	0
32	166	0	10000	2	1	0	2	0
32	167	0	10000	2	1	0	2	0
30	168	0	10000	2	1	0	2	0
30	169	0	10000	2	1	0	2	0
30	170	0	10000	2	1	0	2	0
30	171	0	10000	2	1	0	2	0
28	172	0	10000	2	1	0	2	0
30	173	0	10000	2	1	0	2	0
33	174	0	10000	2	1	0	2	0
36	175	0	10000	2	1	0	2	0
38	176	0	10000	2	1	0	2	0
43	177	0	10000	2	1	0	2	0
48	178	0	10000	2	1	0	2	0
54	179	0	10000	2	1	0	2	0
59	180	0	10000	2	1	0	2	0
64	181	0	10000	2	1	0	2	0
70	182	0	10000	2	1	0	2	0
76	183	0	10000	2	1	0	2	0
81	184	0	10000	2	1	0	2	0
85	185	0	10000	2	1	0	2	0
90	186	0	10000	2	1	0	2	0
92	187	0	10000	2	1	0	2	0
94	188	0	10000	2	1	0	2	0
97	189	0	10000	2	1	0	2	0
100	190	0	10000	2	1	0	2	0
104	191	0	10000	2	1	0	2	0
106	192	0	10000	2	1	0	2	0
107	193	0	10000	2	1	0	2	0
108	194	0	10000	2	1	0	2	0
111	195	0	10000	2	1	0	2	0
109	196	0	10000	2	1	0	2	0
110	197	0	10000	2	1	0	2	0
111	198	0	10000	2	1	0	2	0
110	199	0	10000	2	1	0	2	0
111	200	0	10000	2	1	0	2	0
110	201	0	10000	2	1	0	2	0
108	202	0	10000	2	1	0	2	0
105	203	0	10000	2	1	0	2	0
100	204	0	10000	2	1	0	2	0
95	205	0	10000	2	1	0	2	0
93	206	0	10000	2	1	0	2	0
90	207	0	10000	2	1	0	2	0
87	208	0	10000	2	1	0	2	0
85	209	0	10000	2	1	0	2	0
83	210	0	10000	2	1	0	2	0
81	211	0	10000	2	1	0	2	0
79	212	0	10000	2	1	0	2	0
78	213	0	10000	2	1	0	2	0
76	214	0	10000	2	1	0	2	0
76	215	0	10000	2	1	0	2	0
74	216	0	10000	2	1	0	2	0
76	217	0	10000	2	1	0	2	0
80	218	0	10000	2	1	0	2	0
81	219	0	10000	2	1	0	2	0
85	220	0	10000	2	1	0	2	0
92	221	0	10000	2	1	0	2	0
95	222	0	10000	2	1	0	2	0
99	223	0	10000	2	1	0	2	0
104	224	0	10000	2	1	0	2	0
106	225	0	10000	2	1	0	2	0
111	226	0	10000	2	1	0	2	0
114	227	0	10000	2	1	0	2	0
116	228	0	10000	2	1	0	2	0
117	229	0	10000	2	1	0	2	0
119	230	0	10000	2	1	0	2	0
120	231	0	10000	2	1	0	2	0
121	232	0	10000	2	1	0	2	0
123	233	0	10000	2	1	0	2	0
124	234	0	10000	2	1	0	2	0
126	235	0	10000	2	1	0	2	0
124	236	0	10000	2	1	0	2	0
124	237	0	10000	2	1	0	2	0
125	238	0	10000	2	1	0	2	0
125	239	0	10000	2	1	0	2	0
125	240	0	10000	2	1	0	2	0
124	241	0	10000	2	1	0	2	0
123	242	0	10000	2	1	0	2	0
122	243	0	10000	2	1	0	2	0
120	244	0	10000	2	1	0	2	0
119	245	0	10000	2	1	0	2	0
120	246	0	10000	2	1	0	2	0
119	247	0	10000	2	1	0	2	0
118	248	0	10000	2	1	0	2	0
117	249	0	10000	2	1	0	2	0
115	250	0	10000	2	1	0	2	0
114	251	0	10000	2	1	0	2	0
112	252	0	10000	2	1	0	2	0
112	253	0	10000	2	1	0	2	0
109	254	0	10000	2	1	0	2	0
108	255	0	10000	2	1	0	2	0
103	256	0	10000	2	1	0	2	0
101	257	0	10000	2	1	0	2	0
99	258	0	10000	2	1	0	2	0
97	259	0	10000	2	1	0	2	0
95	260	0	10000	2	1	0	2	0
93	261	0	10000	2	1	0	2	0
92	262	0	10000	2	1	0	2	0
88	263	0	10000	2	1	0	2	0
84	264	0	10000	2	1	0	2	0
82	265	0	10000	2	1	0	2	0
81	266	0	10000	2	1	0	2	0
79	267	0	10000	2	1	0	2	0
76	268	0	10000	2	1	0	2	0
72	269	0	10000	2	1	0	2	0
69	270	0	10000	2	1	0	2	0
68	271	0	10000	2	1	0	2	0
64	272	0	10000	2	1	0	2	0
63	273	0	10000	2	1	0	2	0
60	274	0	10000	2	1	0	2	0
58	275	0	10000	2	1	0	2	0
54	276	0	10000	2	1	0	2	0
52	277	0	10000	2	1	0	2	0
50	278	0	10000	2	1	0	2	0
48	279	0	10000	2	1	0	2	0
47	280	0	10000	2	1	0	2	0
45	281	0	10000	2	1	0	2	0
44	282	0	10000	2	1	0	2	0
42	283	0	10000	2	1	0	2	0
41	284	0	10000	2	1	0	2	0
40	285	0	10000	2	1	0	2	0
40	286	0	10000	2	1	0	2	0
39	287	0	10000	2	1	0	2	0
37	288	0	10000	2	1	0	2	0
35	289	0	10000	2	1	0	2	0
34	290	0	10000	2	1	0	2	0
33	291	0	10000	2	1	0	2	0
32	292	0	10000	2	1	0	2	0
31	293	0	10000	2	1	0	2	0
30	294	0	10000	2	1	0	2	0
30	295	0	10000	2	1	0	2	0
26	296	0	10000	2	1	0	2	0
26	297	0	10000	2	1	0	2	0
26	298	0	10000	2	1	0	2	0
25	299	0	10000	2	1	0	2	0
25	300	0	10000	2	1	0	2	0
24	301	0	10000	2	1	0	2	0
23	302	0	10000	2	1	0	2	0
23	303	0	10000	2	1	0	2	0
21	304	0	10000	2	1	0	2	0
20	305	0	10000	2	1	0	2	0
22	306	0	10000	2	1	0	2	0
21	307	0	10000	2	1	0	2	0
20	308	0	10000	2	1	0	2	0
20	309	0	10000	2	1	0	2	0
22	310	0	10000	2	1	0	2	0
23	311	0	10000	2	1	0	2	0
23	312	0	10000	2	1	0	2	0
22	313	0	10000	2	1	0	2	0
21	314	0	10000	2	1	0	2	0
22	315	0	10000	2	1	0	2	0
20	316	0	10000	2	1	0	2	0
19	317	0	10000	2	1	0	2	0
19	318	0	10000	2	1	0	2	0
19	319	0	10000	2	1	0	2	0
19	320	0	10000	2	1	0	2	0
18	321	0	10000	2	1	0	2	0
19	322	0	10000	2	1	0	2	0
20	323	0	10000	2	1	0	2	0
20	324	0	10000	2	1	0	2	0
20	325	0	10000	2	1	0	2	0
22	326	0	10000	2	1	0	2	0
21	327	0	10000	2	1	0	2	0
21	328	0	10000	2	1	0	2	0
20	329	0	10000	2	1	0	2	0
19	330	0	10000	2	1	0	2	0
19	331	0	10000	2	1	0	2	0
19	332	0	10000	2	1	0	2	0
19	333	0	10000	2	1	0	2	0
20	334	0	10000	2	1	0	2	0
20	335	0	10000	2	1	0	2	0
18	336	0	10000	2	1	0	2	0
17	337	0	10000	2	1	0	2	0
17	338	0	10000	2	1	0	2	0
18	339	0	10000	2	1	0	2	0
18	340	0	10000	2	1	0	2	0
18	341	0	10000	2	1	0	2	0
20	342	0	10000	2	1	0	2	0
20	343	0	10000	2	1	0	2	0
20	344	0	10000	2	1	0	2	0
19	345	0	10000	2	1	0	2	0
22	346	0	10000	2	1	0	2	0
23	347	0	10000	2	1	0	2	0
21	348	0	10000	2	1	0	2	0
20	349	0	10000	2	1	0	2	0
21	350	0	10000	2	1	0	2	0
19	351	0	10000	2	1	0	2	0
19	352	0	10000	2	1	0	2	0
20	353	0	10000	2	1	0	2	0
20	354	0	10000	2	1	0	2	0
20	355	0	10000	2	1	0	2	0
19	356	0	10000	2	1	0	2	0
18	357	0	10000	2	1	0	2	0
18	358	0	10000	2	1	0	2	0
18	359	0	10000	2	1	0	2	0
17	360	0	10000	2	1	0	2	0
17	361	0	10000	2	1	0	2	0
18	362	0	10000	2	1	0	2	0
17	363	0	10000	2	1	0	2	0
17	364	0	10000	2	1	0	2	0
17	365	0	10000	2	1	0	2	0
20	366	0	10000	2	1	0	2	0
19	367	0	10000	2	1	0	2	0
20	368	0	10000	2	1	0	2	0
19	369	0	10000	2	1	0	2	0
18	370	0	10000	2	1	0	2	0
18	371	0	10000	2	1	0	2	0
17	372	0	10000	2	1	0	2	0
17	373	0	10000	2	1	0	2	0
18	374	0	10000	2	1	0	2	0
18	375	0	10000	2	1	0	2	0
16	376	0	10000	2	1	0	2	0
16	377	0	10000	2	1	0	2	0
17	378	0	10000	2	1	0	2	0
16	379	0	10000	2	1	0	2	0
16	380	0	10000	2	1	0	2	0
16	381	0	10000	2	1	0	2	0
15	382	0	10000	2	1	0	2	0
14	383	0	10000	2	1	0	2	0
14	384	0	10000	2	1	0	2	0
14	385	0	10000	2	1	0	2	0
18	386	0	10000	2	1	0	2	0
17	387	0	10000	2	1	0	2	0
18	388	0	10000	2	1	0	2	0
18	389	0	10000	2	1	0	2	0
18	390	0	10000	2	1	0	2	0
19	391	0	10000	2	1	0	2	0
18	392	0	10000	2	1	0	2	0
17	393	0	10000	2	1	0	2	0
19	394	0	10000	2	1	0	2	0
19	395	0	10000	2	1	0	2	0
18	396	0	10000	2	1	0	2	0
19	397	0	10000	2	1	0	2	0
20	398	0	10000	2	1	0	2	0
21	399	0	10000	2	1	0	2	0
23	400	0	10000	2	1	0	2	0
24	401	0	10000	2	1	0	2	0
27	402	0	10000	2	1	0	2	0
29	403	0	10000	2	1	0	2	0
30	404	0	10000	2	1	0	2	0
29	405	0	10000	2	1	0	2	0
30	406	0	10000	2	1	0	2	0
31	407	0	10000	2	1	0	2	0
32	408	0	10000	2	1	0	2	0
31	409	0	10000	2	1	0	2	0
31	410	0	10000	2	1	0	2	0
30	411	0	10000	2	1	0	2	0
28	412	0	10000	2	1	0	2	0
29	413	0	10000	2	1	0	2	0
30	414	0	10000	2	1	0	2	0
32	415	0	10000	2	1	0	2	0
33	416	0	10000	2	1	0	2	0
35	417	0	10000	2	1	0	2	0
40	418	0	10000	2	1	0	2	0
43	419	0	10000	2	1	0	2	0
44	420	0	10000	2	1	0	2	0
45	421	0	10000	2	1	0	2	0
45	422	0	10000	2	1	0	2	0
43	423	0	10000	2	1	0	2	0
41	424	0	10000	2	1	0	2	0
39	425	0	10000	2	1	0	2	0
42	426	0	10000	2	1	0	2	0
45	427	0	10000	2	1	0	2	0
47	428	0	10000	2	1	0	2	0
48	429	0	10000	2	1	0	2	0
49	430	0	10000	2	1	0	2	0
48	431	0	10000	2	1	0	2	0
47	432	0	10000	2	1	0	2	0
45	433	0	10000	2	1	0	2	0
44	434	0	10000	2	1	0	2	0
45	435	0	10000	2	1	0	2	0
44	436	0	10000	2	1	0	2	0
43	437	0	10000	2	1	0	2	0
43	438	0	10000	2	1	0	2	0
42	439	0	10000	2	1	0	2	0
44	440	0	10000	2	1	0	2	0
47	441	0	10000	2	1	0	2	0
46	442	0	10000	2	1	0	2	0
46	443	0	10000	2	1	0	2	0
45	444	0	10000	2	1	0	2	0
43	445	0	10000	2	1	0	2	0
44	446	0	10000	2	1	0	2	0
43	447	0	10000	2	1	0	2	0
41	448	0	10000	2	1	0	2	0
40	449	0	10000	2	1	0	2	0
40	450	0	10000	2	1	0	2	0
41	451	0	10000	2	1	0	2	0
41	452	0	10000	2	1	0	2	0
43	453	0	10000	2	1	0	2	0
43	454	0	10000	2	1	0	2	0
44	455	0	10000	2	1	0	2	0
43	456	0	10000	2	1	0	2	0
43	457	0	10000	2	1	0	2	0
46	458	0	10000	2	1	0	2	0
47	459	0	10000	2	1	0	2	0
48	460	0	10000	2	1	0	2	0
48	461	0	10000	2	1	0	2	0
48	462	0	10000	2	1	0	2	0
46	463	0	10000	2	1	0	2	0
46	464	0	10000	2	1	0	2	0
45	465	0	10000	2	1	0	2	0
46	466	0	10000	2	1	0	2	0
46	467	0	10000	2	1	0	2	0
45	468	0	10000	2	1	0	2	0
43	469	0	10000	2	1	0	2	0
42	470	0	10000	2	1	0	2	0
40	471	0	10000	2	1	0	2	0
38	472	0	10000	2	1	0	2	0
38	473	0	10000	2	1	0	2	0
37	474	0	10000	2	1	0	2	0
37	475	0	10000	2	1	0	2	0
36	476	0	10000	2	1	0	2	0
36	477	0	10000	2	1	0	2	0
36	478	0	10000	2	1	0	2	0
36	479	0	10000	2	1	0	2	0
37	480	0	10000	2	1	0	2	0
37	481	0	10000	2	1	0	2	0
38	482	0	10000	2	1	0	2	0
37	483	0	10000	2	1	0	2	0
36	484	0	10000	2	1	0	2	0
35	485	0	10000	2	1	0	2	0
35	486	0	10000	2	1	0	2	0
34	487	0	10000	2	1	0	2	0
33	488	0	10000	2	1	0	2	0
32	489	0	10000	2	1	0	2	0
30	490	0	10000	2	1	0	2	0
31	491	0	10000	2	1	0	2	0
29	492	0	10000	2	1	0	2	0
29	493	0	10000	2	1	0	2	0
28	494	0	10000	2	1	0	2	0
28	495	0	10000	2	1	0	2	0
25	496	0	10000	2	1	0	2	0
24	497	0	10000	2	1	0	2	0
24	498	0	10000	2	1	0	2	0
23	499	0	10000	2	1	0	2	0
23	500	0	10000	2	1	0	2	0
22	501	0	10000	2	1	0	2	0
21	502	0	10000	2	1	0	2	1
21	503	0	10000	2	1	0	2	1
20	504	0	10000	2	1	0	2	1
19	505	0	10000	2	1	0	2	1
21	506	0	10000	2	1	0	2	1
21	507	0	10000	2	1	0	2	1
21	508	0	10000	2	1	0	2	1
21	509	0	10000	2	1	0	2	1
20	510	0	10000	2	1	0	2	1
19	511	0	10000	2	1	0	2	1
20	512	0	10000	2	1	0	2	1
20	513	0	10000	2	1	0	2	1
21	514	0	10000	2	1	0	2	1
21	515	0	10000	2	1	0	2	1
19	516	0	10000	2	1	0	2	1
18	517	0	10000	2	1	0	2	1
18	518	0	10000	2	1	0	2	1
18	519	0	10000	2	1	0	2	1
18	520	0	10000	2	1	0	2	1
17	521	0	10000	2	1	0	2	1
17	522	0	10000	2	1	0	2	1
17	523	0	10000	2	1	0	2	1
15	524	0	10000	2	1	0	2	1
14	525	0	10000	2	1	0	2	1
17	526	0	10000	2	1	0	2	1
17	527	0	10000	2	1	0	2	1
16	528	0	10000	2	1	0	2	1
16	529	0	10000	2	1	0	2	1
15	530	0	10000	2	1	0	2	1
14	531	0	10000	2	1	0	2	1
15	532	0	10000	2	1	0	2	1
14	533	0	10000	2	1	0	2	1
14	534	0	10000	2	1	0	2	1
15	535	0	10000	2	1	0	2	1
12	536	0	10000	2	1	0	2	1
12	537	0	10000	2	1	0	2	1
13	538	0	10000	2	1	0	2	1
12	539	0	10000	2	1	0	2	1
12	540	0	10000	2	1	0	2	1
12	541	0	10000	2	1	0	2	1
12	542	0	10000	2	1	0	2	1
11	543	0	10000	2	1	0	2	1
11	544	0	10000	2	1	0	2	1
10	545	0	10000	2	1	0	2	1
12	546	0	10000	2	1	0	2	1
12	547	0	10000	2	1	0	2	1
12	548	0	10000	2	1	0	2	1
12	549	0	10000	2	1	0	2	1
12	550	0	10000	2	1	0	2	1
11	551	0	10000	2	1	0	2	1
11	552	0	10000	2	1	0	2	0
11	553	0	10000	2	1	0	2	0
10	554	0	10000	2	1	0	2	0
11	555	0	10000	2	1	0	2	0
9	556	0	10000	2	1	0	2	0
8	557	0	10000	2	1	0	2	0
10	558	0	10000	2	1	0	2	0
9	559	0	10000	2	1	0	2	0
10	560	0	10000	2	1	0	2	0
10	561	0	10000	2	1	0	2	0
10	562	0	10000	2	1	0	2	0
9	563	0	10000	2	1	0	2	0
9	564	0	10000	2	1	0	2	0
9	565	0	10000	2	1	0	2	0
10	566	0	10000	2	1	0	2	0
11	567	0	10000	2	1	0	2	0
12	568	0	10000	2	1	0	2	0
13	569	0	10000	2	1	0	2	0
15	570	0	10000	2	1	0	2	0
16	571	0	10000	2	1	0	2	0
17	572	0	10000	2	1	0	2	0
18	573	0	10000	2	1	0	2	0
17	574	0	10000	2	1	0	2	0
17	575	0	10000	2	1	0	2	0
15	576	0	10000	2	1	0	2	0
14	577	0	10000	2	1	0	2	0
14	578	0	10000	2	1	0	2	0
17	579	0	10000	2	1	0	2	0
25	580	0	10000	2	1	0	2	0
34	581	0	10000	2	1	0	2	0
44	582	0	10000	2	1	0	2	0
46	583	0	10000	2	1	0	2	0
49	584	0	10000	2	1	0	2	0
56	585	0	10000	2	1	0	2	0
80	586	0	10000	2	1	0	2	0
101	587	0	10000	2	1	0	2	0
108	588	0	10000	2	1	0	2	0
131	589	0	10000	2	1	0	2	0
150	590	0	10000	2	1	0	2	0
146	591	0	10000	2	1	0	2	0
143	592	0	10000	2	1	0	2	0
149	593	0	10000	2	1	0	2	0
198	594	0	10000	2	1	0	2	0
233	595	0	10000	2	1	0	2	0
231	596	0	10000	2	1	0	2	0
244	597	0	10000	2	1	0	2	0
246	598	0	10000	2	1	0	2	0
271	599	0	10000	2	1	0	2	0
321	600	0	10000	2	1	0	2	0
373	601	0	10000	2	1	0	2	0
393	602	0	10000	2	1	0	2	0
415	603	0	10000	2	1	0	2	0
440	604	0	10000	2	1	0	2	0
432	605	0	10000	2	1	0	2	0
428	606	0	10000	2	1	0	2	0
441	607	0	10000	2	1	0	2	0
462	608	0	10000	2	1	0	2	0
462	609	0	10000	2	1	0	2	0
468	610	0	10000	2	1	0	2	0
449	611	0	10000	2	1	0	2	0
431	612	0	10000	2	1	0	2	0
422	613	0	10000	2	1	0	2	0
412	614	0	10000	2	1	0	2	0
417	615	0	10000	2	1	0	2	0
416	616	0	10000	2	1	0	2	0
439	617	0	10000	2	1	0	2	0
449	618	0	10000	2	1	0	2	0
480	619	0	10000	2	1	0	2	0
483	620	0	10000	2	1	0	2	0
470	621	0	10000	2	1	0	2	0
449	622	0	10000	2	1	0	2	0
429	623	0	10000	2	1	0	2	0
413	624	0	10000	2	1	0	2	0
403	625	0	10000	2	1	0	2	0
397	626	0	10000	2	1	0	2	0
391	627	0	10000	2	1	0	2	0
385	628	0	10000	2	1	0	2	0
379	629	0	10000	2	1	0	2	0
372	630	0	10000	2	1	0	2	0
365	631	0	10000	2	1	0	2	0
357	632	0	10000	2	1	0	2	0
349	633	0	10000	2	1	0	2	0
340	634	0	10000	2	1	0	2	0
330	635	0	10000	2	1	0	2	0
317	636	0	10000	2	1	0	2	0
305	637	0	10000	2	1	0	2	0
294	638	0	10000	2	1	0	2	0
281	639	0	10000	2	1	0	2	0
268	640	0	10000	2	1	0	2	0
258	641	0	10000	2	1	0	2	0
248	642	0	10000	2	1	0	2	0
238	643	0	10000	2	1	0	2	0
231	644	0	10000	2	1	0	2	0
225	645	0	10000	2	1	0	2	0
222	646	0	10000	2	1	0	2	0
218	647	0	10000	2	1	0	2	0
216	648	0	10000	2	1	0	2	0
216	649	0	10000	2	1	0	2	0
217	650	0	10000	2	1	0	2	0
220	651	0	10000	2	1	0	2	0
225	652	0	10000	2	1	0	2	0
229	653	0	10000	2	1	0	2	0
233	654	0	10000	2	1	0	2	0
238	655	0	10000	2	1	0	2	0
239	656	0	10000	2	1	0	2	0
239	657	0	10000	2	1	0	2	0
241	658	0	10000	2	1	0	2	0
241	659	0	10000	2	1	0	2	0
241	660	0	10000	2	1	0	2	0
240	661	0	10000	2	1	0	2	0
237	662	0	10000	2	1	0	2	0
233	663	0	10000	2	1	0	2	0
231	664	0	10000	2	1	0	2	0
226	665	0	10000	2	1	0	2	0
225	666	0	10000	2	1	0	2	0
223	667	0	10000	2	1	0	2	0
218	668	0	10000	2	1	0	2	0
213	669	0	10000	2	1	0	2	0
209	670	0	10000	2	1	0	2	0
203	671	0	10000	2	1	0	2	0
196	672	0	10000	2	1	0	2	0
191	673	0	10000	2	1	0	2	0
184	674	0	10000	2	1	0	2	0
177	675	0	10000	2	1	0	2	0
169	676	0	10000	2	1	0	2	0
162	677	0	10000	2	1	0	2	0
154	678	0	10000	2	1	0	2	0
148	679	0	10000	2	1	0	2	0
141	680	0	10000	2	1	0	2	0
136	681	0	10000	2	1	0	2	0
132	682	0	10000	2	1	0	2	0
128	683	0	10000	2	1	0	2	0
123	684	0	10000	2	1	0	2	0
118	685	0	10000	2	1	0	2	0
116	686	0	10000	2	1	0	2	0
115	687	0	10000	2	1	0	2	0
113	688	0	10000	2	1	0	2	0
109	689	0	10000	2	1	0	2	0
105	690	0	10000	2	1	0	2	0
102	691	0	10000	2	1	0	2	0
98	692	0	10000	2	1	0	2	0
94	693	0	10000	2	1	0	2	0
91	694	0	10000	2	1	0	2	0
89	695	0	10000	2	1	0	2	0
86	696	0	10000	2	1	0	2	0
86	697	0	10000	2	1	0	2	0
87	698	0	10000	2	1	0	2	0
87	699	0	10000	2	1	0	2	0
88	700	0	10000	2	1	0	2	0
88	701	0	10000	2	1	0	2	0
87	702	0	10000	2	1	0	2	0
86	703	0	10000	2	1	0	2	0
85	704	0	10000	2	1	0	2	0
83	705	0	10000	2	1	0	2	0
82	706	0	10000	2	1	0	2	0
80	707	0	10000	2	1	0	2	0
79	708	0	10000	2	1	0	2	0
76	709	0	10000	2	1	0	2	0
75	710	0	10000	2	1	0	2	0
73	711	0	10000	2	1	0	2	0
70	712	0	10000	2	1	0	2	0
68	713	0	10000	2	1	0	2	0
67	714	0	10000	2	1	0	2	0
65	715	0	10000	2	1	0	2	0
62	716	0	10000	2	1	0	2	0
61	717	0	10000	2	1	0	2	0
59	718	0	10000	2	1	0	2	0
58	719	0	10000	2	1	0	2	0
58	720	0	10000	2	1	0	2	0
57	721	0	10000	2	1	0	2	0
58	722	0	10000	2	1	0	2	0
56	723	0	10000	2	1	0	2	0
55	724	0	10000	2	1	0	2	0
53	725	0	10000	2	1	0	2	0
54	726	0	10000	2	1	0	2	0
54	727	0	10000	2	1	0	2	0
53	728	0	10000	2	1	0	2	0
52	729	0	10000	2	1	0	2	0
50	730	0	10000	2	1	0	2	0
48	731	0	10000	2	1	0	2	0
47	732	0	10000	2	1	0	2	0
45	733	0	10000	2	1	0	2	0
43	734	0	10000	2	1	0	2	0
42	735	0	10000	2	1	0	2	0
39	736	0	10000	2	1	0	2	0
37	737	0	10000	2	1	0	2	0
38	738	0	10000	2	1	0	2	0
38	739	0	10000	2	1	0	2	0
39	740	0	10000	2	1	0	2	0
40	741	0	10000	2	1	0	2	0
40	742	0	10000	2	1	0	2	0
39	743	0	10000	2	1	0	2	0
38	744	0	10000	2	1	0	2	0
36	745	0	10000	2	1	0	2	0
36	746	0	10000	2	1	0	2	0
35	747	0	10000	2	1	0	2	0
34	748	0	10000	2	1	0	2	0
33	749	0	10000	2	1	0	2	0
32	750	0	10000	2	1	0	2	0
31	751	0	10000	2	1	0	2	0
31	752	0	10000	2	1	0	2	0
31	753	0	10000	2	1	0	2	0
34	754	0	10000	2	1	0	2	0
37	755	0	10000	2	1	0	2	0
35	756	0	10000	2	1	0	2	0
33	757	0	10000	2	1	0	2	0
33	758	0	10000	2	1	0	2	0
31	759	0	10000	2	1	0	2	0
31	760	0	10000	2	1	0	2	0
32	761	0	10000	2	1	0	2	0
30	762	0	10000	2	1	0	2	0
30	763	0	10000	2	1	0	2	0
30	764	0	10000	2	1	0	2	0
28	765	0	10000	2	1	0	2	0
29	766	0	10000	2	1	0	2	0
29	767	0	10000	2	1	0	2	0
28	768	0	10000	2	1	0	2	0
26	769	0	10000	2	1	0	2	0
25	770	0	10000	2	1	0	2	0
24	771	0	10000	2	1	0	2	0
23	772	0	10000	2	1	0	2	0
23	773	0	10000	2	1	0	2	0
22	774	0	10000	2	1	0	2	0
22	775	0	10000	2	1	0	2	0
20	776	0	10000	2	1	0	2	0
20	777	0	10000	2	1	0	2	0
22	778	0	10000	2	1	0	2	0
22	779	0	10000	2	1	0	2	0
23	780	0	10000	2	1	0	2	0
26	781	0	10000	2	1	0	2	0
28	782	0	10000	2	1	0	2	0
28	783	0	10000	2	1	0	2	0
27	784	0	10000	2	1	0	2	0
27	785	0	10000	2	1	0	2	0
29	786	0	10000	2	1	0	2	0
33	787	0	10000	2	1	0	2	0
33	788	0	10000	2	1	0	2	0
33	789	0	10000	2	1	0	2	0
33	790	0	10000	2	1	0	2	0
35	791	0	10000	2	1	0	2	0
35	792	0	10000	2	1	0	2	0
34	793	0	10000	2	1	0	2	0
33	794	0	10000	2	1	0	2	0
33	795	0	10000	2	1	0	2	0
33	796	0	10000	2	1	0	2	0
33	797	0	10000	2	1	0	2	0
33	798	0	10000	2	1	0	2	0
33	799	0	10000	2	1	0	2	0
32	800	0	10000	2	1	0	2	0
31	801	0	10000	2	1	0	2	0
31	802	0	10000	2	1	0	2	0
29	803	0	10000	2	1	0	2	0
29	804	0	10000	2	1	0	2	0
27	805	0	10000	2	1	0	2	0
28	806	0	10000	2	1	0	2	0
30	807	0	10000	2	1	0	2	0
32	808	0	10000	2	1	0	2	0
31	809	0	10000	2	1	0	2	0
30	810	0	10000	2	1	0	2	0
28	811	0	10000	2	1	0	2	0
28	812	0	10000	2	1	0	2	0
29	813	0	10000	2	1	0	2	0
30	814	0	10000	2	1	0	2	0
31	815	0	10000	2	1	0	2	0
29	816	0	10000	2	1	0	2	0
28	817	0	10000	2	1	0	2	0
28	818	0	10000	2	1	0	2	0
28	819	0	10000	2	1	0	2	0
28	820	0	10000	2	1	0	2	0
28	821	0	10000	2	1	0	2	0
28	822	0	10000	2	1	0	2	0
27	823	0	10000	2	1	0	2	0
26	824	0	10000	2	1	0	2	0
25	825	0	10000	2	1	0	2	0
26	826	0	10000	2	1	0	2	0
25	827	0	10000	2	1	0	2	0
24	828	0	10000	2	1	0	2	0
23	829	0	10000	2	1	0	2	0
22	830	0	10000	2	1	0	2	0
21	831	0	10000	2	1	0	2	0
23	832	0	10000	2	1	0	2	0
26	833	0	10000	2	1	0	2	0
26	834	0	10000	2	1	0	2	0
27	835	0	10000	2	1	0	2	0
28	836	0	10000	2	1	0	2	0
28	837	0	10000	2	1	0	2	0
30	838	0	10000	2	1	0	2	0
30	839	0	10000	2	1	0	2	0
30	840	0	10000	2	1	0	2	0
30	841	0	10000	2	1	0	2	0
30	842	0	10000	2	1	0	2	0
28	843	0	10000	2	1	0	2	0
27	844	0	10000	2	1	0	2	0
25	845	0	10000	2	1	0	2	0
27	846	0	10000	2	1	0	2	0
26	847	0	10000	2	1	0	2	0
26	848	0	10000	2	1	0	2	0
26	849	0	10000	2	1	0	2	0
24	850	0	10000	2	1	0	2	0
24	851	0	10000	2	1	0	2	0
24	852	0	10000	2	1	0	2	0
23	853	0	10000	2	1	0	2	0
23	854	0	10000	2	1	0	2	0
23	855	0	10000	2	1	0	2	0
20	856	0	10000	2	1	0	2	0
19	857	0	10000	2	1	0	2	0
20	858	0	10000	2	1	0	2	0
19	859	0	10000	2	1	0	2	0
19	860	0	10000	2	1	0	2	0
18	861	0	10000	2	1	0	2	0
18	862	0	10000	2	1	0	2	0
18	863	0	10000	2	1	0	2	0
18	864	0	10000	2	1	0	2	0
19	865	0	10000	2	1	0	2	0
20	866	0	10000	2	1	0	2	0
20	867	0	10000	2	1	0	2	0
19	868	0	10000	2	1	0	2	0
18	869	0	10000	2	1	0	2	0
19	870	0	10000	2	1	0	2	0
20	871	0	10000	2	1	0	2	0
19	872	0	10000	2	1	0	2	0
20	873	0	10000	2	1	0	2	0
20	874	0	10000	2	1	0	2	0
21	875	0	10000	2	1	0	2	0
19	876	0	10000	2	1	0	2	0
18	877	0	10000	2	1	0	2	0
18	878	0	10000	2	1	0	2	0
19	879	0	10000	2	1	0	2	0
20	880	0	10000	2	1	0	2	0
20	881	0	10000	2	1	0	2	0
20	882	0	10000	2	1	0	2	0
20	883	0	10000	2	1	0	2	0
20	884	0	10000	2	1	0	2	0
19	885	0	10000	2	1	0	2	0
19	886	0	10000	2	1	0	2	0
20	887	0	10000	2	1	0	2	0
19	888	0	10000	2	1	0	2	0
18	889	0	10000	2	1	0	2	0
18	890	0	10000	2	1	0	2	0
18	891	0	10000	2	1	0	2	0
18	892	0	10000	2	1	0	2	0
19	893	0	10000	2	1	0	2	0
19	894	0	10000	2	1	0	2	0
19	895	0	10000	2	1	0	2	0
19	896	0	10000	2	1	0	2	0
17	897	0	10000	2	1	0	2	0
17	898	0	10000	2	1	0	2	0
19	899	0	10000	2	1	0	2	0
20	900	0	10000	2	1	0	2	0
21	901	0	10000	2	1	0	2	0
21	902	0	10000	2	1	0	2	0
20	903	0	10000	2	1	0	2	0
19	904	0	10000	2	1	0	2	0
20	905	0	10000	2	1	0	2	0
23	906	0	10000	2	1	0	2	0
23	907	0	10000	2	1	0	2	0
22	908	0	10000	2	1	0	2	0
22	909	0	10000	2	1	0	2	0
23	910	0	10000	2	1	0	2	0
24	911	0	10000	2	1	0	2	0
25	912	0	10000	2	1	0	2	0
27	913	0	10000	2	1	0	2	0
29	914	0	10000	2	1	0	2	0
31	915	0	10000	2	1	0	2	0
29	916	0	10000	2	1	0	2	0
27	917	0	10000	2	1	0	2	0
27	918	0	10000	2	1	0	2	0
26	919	0	10000	2	1	0	2	0
25	920	0	10000	2	1	0	2	0
25	921	0	10000	2	1	0	2	0
25	922	0	10000	2	1	0	2	0
24	923	0	10000	2	1	0	2	0
23	924	0	10000	2	1	0	2	0
22	925	0	10000	2	1	0	2	0
22	926	0	10000	2	1	0	2	0
23	927	0	10000	2	1	0	2	0
22	928	0	10000	2	1	0	2	0
23	929	0	10000	2	1	0	2	0
22	930	0	10000	2	1	0	2	0
22	931	0	10000	2	1	0	2	0
23	932	0	10000	2	1	0	2	0
24	933	0	10000	2	1	0	2	0
24	934	0	10000	2	1	0	2	0
24	935	0	10000	2	1	0	2	0
21	936	0	10000	2	1	0	2	0
21	937	0	10000	2	1	0	2	0
20	938	0	10000	2	1	0	2	0
20	939	0	10000	2	1	0	2	0
20	940	0	10000	2	1	0	2	0
19	941	0	10000	2	1	0	2	0
18	942	0	10000	2	1	0	2	0
19	943	0	10000	2	1	0	2	0
18	944	0	10000	2	1	0	2	0
17	945	0	10000	2	1	0	2	0
19	946	0	10000	2	1	0	2	0
18	947	0	10000	2	1	0	2	0
17	948	0	10000	2	1	0	2	0
17	949	0	10000	2	1	0	2	0
17	950	0	10000	2	1	0	2	0
16	951	0	10000	2	1	0	2	0
16	952	0	10000	2	1	0	2	0
15	953	0	10000	2	1	0	2	0
15	954	0	10000	2	1	0	2	0
16	955	0	10000	2	1	0	2	0
14	956	0	10000	2	1	0	2	0
13	957	0	10000	2	1	0	2	0
13	958	0	10000	2	1	0	2	0
13	959	0	10000	2	1	0	2	0
13	960	0	10000	2	1	0	2	0
13	961	0	10000	2	1	0	2	0
13	962	0	10000	2	1	0	2	0
13	963	0	10000	2	1	0	2	0
13	964	0	10000	2	1	0	2	0
12	965	0	10000	2	1	0	2	0
13	966	0	10000	2	1	0	2	0
14	967	0	10000	2	1	0	2	0
13	968	0	10000	2	1	0	2	0
12	969	0	10000	2	1	0	2	0
14	970	0	10000	2	1	0	2	0
16	971	0	10000	2	1	0	2	0
17	972	0	10000	2	1	0	2	0
16	973	0	10000	2	1	0	2	0
16	974	0	10000	2	1	0	2	0
18	975	0	10000	2	1	0	2	0
18	976	0	10000	2	1	0	2	0
18	977	0	10000	2	1	0	2	0
20	978	0	10000	2	1	0	2	0
19	979	0	10000	2	1	0	2	0
19	980	0	10000	2	1	0	2	0
20	981	0	10000	2	1	0	2	0
19	982	0	10000	2	1	0	2	0
19	983	0	10000	2	1	0	2	0
19	984	0	10000	2	1	0	2	0
17	985	0	10000	2	1	0	2	0
18	986	0	10000	2	1	0	2	0
19	987	0	10000	2	1	0	2	0
17	988	0	10000	2	1	0	2	0
16	989	0	10000	2	1	0	2	0
16	990	0	10000	2	1	0	2	0
15	991	0	10000	2	1	0	2	0
16	992	0	10000	2	1	0	2	0
17	993	0	10000	2	1	0	2	0
18	994	0	10000	2	1	0	2	0
18	995	0	10000	2	1	0	2	0
17	996	0	10000	2	1	0	2	0
16	997	0	10000	2	1	0	2	0
17	998	0	10000	2	1	0	2	0
17	999	0	10000	2	1	0	2	0
17	1000	0	10000	2	1	0	2	0
19	1001	0	10000	2	1	0	2	0
17	1	1	10000	3	1	0	3	0
16	2	1	10000	3	1	0	3	0
18	3	1	10000	3	1	0	3	0
18	4	1	10000	3	1	0	3	0
17	5	1	10000	3	1	0	3	0
16	6	1	10000	3	1	0	3	0
16	7	1	10000	3	1	0	3	0
15	8	1	10000	3	1	0	3	0
14	9	1	10000	3	1	0	3	0
15	10	1	10000	3	1	0	3	0
16	11	1	10000	3	1	0	3	0
16	12	1	10000	3	1	0	3	0
14	13	1	10000	3	1	0	3	0
14	14	1	10000	3	1	0	3	0
15	15	1	10000	3	1	0	3	0
15	16	1	10000	3	1	0	3	0
15	17	1	10000	3	1	0	3	0
15	18	1	10000	3	1	0	3	0
15	19	1	10000	3	1	0	3	0
15	20	1	10000	3	1	0	3	0
14	21	1	10000	3	1	0	3	0
13	22	1	10000	3	1	0	3	0
15	23	1	10000	3	1	0	3	0
14	24	1	10000	3	1	0	3	0
14	25	1	10000	3	1	0	3	0
13	26	1	10000	3	1	0	3	0
12	27	1	10000	3	1	0	3	0
13	28	1	10000	3	1	0	3	0
12	29	1	10000	3	1	0	3	0
13	30	1	10000	3	1	0	3	0
13	31	1	10000	3	1	0	3	0
13	32	1	10000	3	1	0	3	0
10	33	1	10000	3	1	0	3	0
10	34	1	10000	3	1	0	3	0
10	35	1	10000	3	1	0	3	0
10	36	1	10000	3	1	0	3	0
10	37	1	10000	3	1	0	3	0
11	38	1	10000	3	1	0	3	0
10	39	1	10000	3	1	0	3	0
9	40	1	10000	3	1	0	3	0
9	41	1	10000	3	1	0	3	0
10	42	1	10000	3	1	0	3	0
13	43	1	10000	3	1	0	3	0
15	44	1	10000	3	1	0	3	0
16	45	1	10000	3	1	0	3	0
15	46	1	10000	3	1	0	3	0
14	47	1	10000	3	1	0	3	0
16	48	1	10000	3	1	0	3	0
16	49	1	10000	3	1	0	3	0
16	50	1	10000	3	1	0	3	0
17	51	1	10000	3	1	0	3	0
16	52	1	10000	3	1	0	3	0
13	53	1	10000	3	1	0	3	0
13	54	1	10000	3	1	0	3	0
12	55	1	10000	3	1	0	3	0
12	56	1	10000	3	1	0	3	0
13	57	1	10000	3	1	0	3	0
13	58	1	10000	3	1	0	3	0
12	59	1	10000	3	1	0	3	0
12	60	1	10000	3	1	0	3	0
12	61	1	10000	3	1	0	3	0
11	62	1	10000	3	1	0	3	0
13	63	1	10000	3	1	0	3	0
14	64	1	10000	3	1	0	3	0
12	65	1	10000	3	1	0	3	0
13	66	1	10000	3	1	0	3	0
12	67	1	10000	3	1	0	3	0
12	68	1	10000	3	1	0	3	0
12	69	1	10000	3	1	0	3	0
12	70	1	10000	3	1	0	3	0
13	71	1	10000	3	1	0	3	0
14	72	1	10000	3	1	0	3	0
13	73	1	10000	3	1	0	3	0
12	74	1	10000	3	1	0	3	0
12	75	1	10000	3	1	0	3	0
12	76	1	10000	3	1	0	3	0
11	77	1	10000	3	1	0	3	0
11	78	1	10000	3	1	0	3	0
11	79	1	10000	3	1	0	3	0
10	80	1	10000	3	1	0	3	0
10	81	1	10000	3	1	0	3	0
9	82	1	10000	3	1	0	3	0
11	83	1	10000	3	1	0	3	0
12	84	1	10000	3	1	0	3	0
11	85	1	10000	3	1	0	3	0
10	86	1	10000	3	1	0	3	0
10	87	1	10000	3	1	0	3	0
10	88	1	10000	3	1	0	3	0
10	89	1	10000	3	1	0	3	0
9	90	1	10000	3	1	0	3	0
9	91	1	10000	3	1	0	3	0
11	92	1	10000	3	1	0	3	0
9	93	1	10000	3	1	0	3	0
9	94	1	10000	3	1	0	3	0
10	95	1	10000	3	1	0	3	0
9	96	1	10000	3	1	0	3	0
11	97	1	10000	3	1	0	3	0
12	98	1	10000	3	1	0	3	0
13	99	1	10000	3	1	0	3	0
13	100	1	10000	3	1	0	3	0
13	101	1	10000	3	1	0	3	0
12	102	1	10000	3	1	0	3	0
13	103	1	10000	3	1	0	3	0
14	104	1	10000	3	1	0	3	0
13	105	1	10000	3	1	0	3	0
13	106	1	10000	3	1	0	3	0
12	107	1	10000	3	1	0	3	0
13	108	1	10000	3	1	0	3	0
14	109	1	10000	3	1	0	3	0
15	110	1	10000	3	1	0	3	0
15	111	1	10000	3	1	0	3	0
15	112	1	10000	3	1	0	3	0
13	113	1	10000	3	1	0	3	0
13	114	1	10000	3	1	0	3	0
14	115	1	10000	3	1	0	3	0
14	116	1	10000	3	1	0	3	0
14	117	1	10000	3	1	0	3	0
16	118	1	10000	3	1	0	3	0
16	119	1	10000	3	1	0	3	0
15	120	1	10000	3	1	0	3	0
15	121	1	10000	3	1	0	3	0
14	122	1	10000	3	1	0	3	0
16	123	1	10000	3	1	0	3	0
16	124	1	10000	3	1	0	3	0
15	125	1	10000	3	1	0	3	0
14	126	1	10000	3	1	0	3	0
13	127	1	10000	3	1	0	3	0
13	128	1	10000	3	1	0	3	0
12	129	1	10000	3	1	0	3	0
13	130	1	10000	3	1	0	3	0
13	131	1	10000	3	1	0	3	0
14	132	1	10000	3	1	0	3	0
12	133	1	10000	3	1	0	3	0
12	134	1	10000	3	1	0	3	0
12	135	1	10000	3	1	0	3	0
11	136	1	10000	3	1	0	3	0
11	137	1	10000	3	1	0	3	0
11	138	1	10000	3	1	0	3	0
12	139	1	10000	3	1	0	3	0
11	140	1	10000	3	1	0	3	0
11	141	1	10000	3	1	0	3	0
12	142	1	10000	3	1	0	3	0
14	143	1	10000	3	1	0	3	0
18	144	1	10000	3	1	0	3	0
22	145	1	10000	3	1	0	3	0
26	146	1	10000	3	1	0	3	0
28	147	1	10000	3	1	0	3	0
28	148	1	10000	3	1	0	3	0
27	149	1	10000	3	1	0	3	0
27	150	1	10000	3	1	0	3	0
27	151	1	10000	3	1	0	3	0
27	152	1	10000	3	1	0	3	0
29	153	1	10000	3	1	0	3	0
32	154	1	10000	3	1	0	3	0
34	155	1	10000	3	1	0	3	0
37	156	1	10000	3	1	0	3	0
39	157	1	10000	3	1	0	3	0
45	158	1	10000	3	1	0	3	0
54	159	1	10000	3	1	0	3	0
62	160	1	10000	3	1	0	3	0
67	161	1	10000	3	1	0	3	0
66	162	1	10000	3	1	0	3	0
65	163	1	10000	3	1	0	3	0
64	164	1	10000	3	1	0	3	0
66	165	1	10000	3	1	0	3	0
68	166	1	10000	3	1	0	3	0
72	167	1	10000	3	1	0	3	0
75	168	1	10000	3	1	0	3	0
73	169	1	10000	3	1	0	3	0
72	170	1	10000	3	1	0	3	0
72	171	1	10000	3	1	0	3	0
75	172	1	10000	3	1	0	3	0
76	173	1	10000	3	1	0	3	0
78	174	1	10000	3	1	0	3	0
81	175	1	10000	3	1	0	3	0
82	176	1	10000	3	1	0	3	0
83	177	1	10000	3	1	0	3	0
82	178	1	10000	3	1	0	3	0
80	179	1	10000	3	1	0	3	0
77	180	1	10000	3	1	0	3	0
74	181	1	10000	3	1	0	3	0
71	182	1	10000	3	1	0	3	0
71	183	1	10000	3	1	0	3	0
72	184	1	10000	3	1	0	3	0
71	185	1	10000	3	1	0	3	0
71	186	1	10000	3	1	0	3	0
70	187	1	10000	3	1	0	3	0
69	188	1	10000	3	1	0	3	0
69	189	1	10000	3	1	0	3	0
68	190	1	10000	3	1	0	3	0
67	191	1	10000	3	1	0	3	0
67	192	1	10000	3	1	0	3	0
62	193	1	10000	3	1	0	3	0
59	194	1	10000	3	1	0	3	0
58	195	1	10000	3	1	0	3	0
56	196	1	10000	3	1	0	3	0
54	197	1	10000	3	1	0	3	0
54	198	1	10000	3	1	0	3	0
54	199	1	10000	3	1	0	3	0
52	200	1	10000	3	1	0	3	0
54	201	1	10000	3	1	0	3	0
55	202	1	10000	3	1	0	3	0
57	203	1	10000	3	1	0	3	0
56	204	1	10000	3	1	0	3	0
55	205	1	10000	3	1	0	3	0
55	206	1	10000	3	1	0	3	0
56	207	1	10000	3	1	0	3	0
56	208	1	10000	3	1	0	3	0
54	209	1	10000	3	1	0	3	0
52	210	1	10000	3	1	0	3	0
50	211	1	10000	3	1	0	3	0
50	212	1	10000	3	1	0	3	0
50	213	1	10000	3	1	0	3	0
52	214	1	10000	3	1	0	3	0
54	215	1	10000	3	1	0	3	0
52	216	1	10000	3	1	0	3	0
51	217	1	10000	3	1	0	3	0
49	218	1	10000	3	1	0	3	0
50	219	1	10000	3	1	0	3	0
52	220	1	10000	3	1	0	3	0
57	221	1	10000	3	1	0	3	0
65	222	1	10000	3	1	0	3	0
73	223	1	10000	3	1	0	3	0
75	224	1	10000	3	1	0	3	0
73	225	1	10000	3	1	0	3	0
69	226	1	10000	3	1	0	3	0
67	227	1	10000	3	1	0	3	0
67	228	1	10000	3	1	0	3	0
69	229	1	10000	3	1	0	3	0
73	230	1	10000	3	1	0	3	0
77	231	1	10000	3	1	0	3	0
83	232	1	10000	3	1	0	3	0
86	233	1	10000	3	1	0	3	0
89	234	1	10000	3	1	0	3	0
92	235	1	10000	3	1	0	3	0
95	236	1	10000	3	1	0	3	0
97	237	1	10000	3	1	0	3	0
98	238	1	10000	3	1	0	3	0
100	239	1	10000	3	1	0	3	0
100	240	1	10000	3	1	0	3	0
102	241	1	10000	3	1	0	3	0
105	242	1	10000	3	1	0	3	0
108	243	1	10000	3	1	0	3	0
110	244	1	10000	3	1	0	3	0
111	245	1	10000	3	1	0	3	0
112	246	1	10000	3	1	0	3	0
113	247	1	10000	3	1	0	3	0
114	248	1	10000	3	1	0	3	0
114	249	1	10000	3	1	0	3	0
114	250	1	10000	3	1	0	3	0
113	251	1	10000	3	1	0	3	0
112	252	1	10000	3	1	0	3	0
110	253	1	10000	3	1	0	3	0
109	254	1	10000	3	1	0	3	0
108	255	1	10000	3	1	0	3	0
109	256	1	10000	3	1	0	3	0
108	257	1	10000	3	1	0	3	0
107	258	1	10000	3	1	0	3	0
106	259	1	10000	3	1	0	3	0
103	260	1	10000	3	1	0	3	0
100	261	1	10000	3	1	0	3	0
97	262	1	10000	3	1	0	3	0
95	263	1	10000	3	1	0	3	0
94	264	1	10000	3	1	0	3	0
92	265	1	10000	3	1	0	3	0
90	266	1	10000	3	1	0	3	0
87	267	1	10000	3	1	0	3	0
84	268	1	10000	3	1	0	3	0
81	269	1	10000	3	1	0	3	0
79	270	1	10000	3	1	0	3	0
77	271	1	10000	3	1	0	3	0
74	272	1	10000	3	1	0	3	0
70	273	1	10000	3	1	0	3	0
67	274	1	10000	3	1	0	3	0
66	275	1	10000	3	1	0	3	0
63	276	1	10000	3	1	0	3	0
60	277	1	10000	3	1	0	3	0
58	278	1	10000	3	1	0	3	0
57	279	1	10000	3	1	0	3	0
55	280	1	10000	3	1	0	3	0
53	281	1	10000	3	1	0	3	0
50	282	1	10000	3	1	0	3	0
50	283	1	10000	3	1	0	3	0
49	284	1	10000	3	1	0	3	0
47	285	1	10000	3	1	0	3	0
46	286	1	10000	3	1	0	3	0
44	287	1	10000	3	1	0	3	0
43	288	1	10000	3	1	0	3	0
42	289	1	10000	3	1	0	3	0
42	290	1	10000	3	1	0	3	0
42	291	1	10000	3	1	0	3	0
41	292	1	10000	3	1	0	3	0
39	293	1	10000	3	1	0	3	0
37	294	1	10000	3	1	0	3	0
39	295	1	10000	3	1	0	3	0
38	296	1	10000	3	1	0	3	0
38	297	1	10000	3	1	0	3	0
38	298	1	10000	3	1	0	3	0
36	299	1	10000	3	1	0	3	0
36	300	1	10000	3	1	0	3	0
34	301	1	10000	3	1	0	3	0
32	302	1	10000	3	1	0	3	0
33	303	1	10000	3	1	0	3	0
32	304	1	10000	3	1	0	3	0
31	305	1	10000	3	1	0	3	0
30	306	1	10000	3	1	0	3	0
29	307	1	10000	3	1	0	3	0
29	308	1	10000	3	1	0	3	0
27	309	1	10000	3	1	0	3	0
27	310	1	10000	3	1	0	3	0
27	311	1	10000	3	1	0	3	0
28	312	1	10000	3	1	0	3	0
26	313	1	10000	3	1	0	3	0
25	314	1	10000	3	1	0	3	0
25	315	1	10000	3	1	0	3	0
24	316	1	10000	3	1	0	3	0
24	317	1	10000	3	1	0	3	0
25	318	1	10000	3	1	0	3	0
26	319	1	10000	3	1	0	3	0
26	320	1	10000	3	1	0	3	0
25	321	1	10000	3	1	0	3	0
24	322	1	10000	3	1	0	3	0
24	323	1	10000	3	1	0	3	0
24	324	1	10000	3	1	0	3	0
23	325	1	10000	3	1	0	3	0
22	326	1	10000	3	1	0	3	0
21	327	1	10000	3	1	0	3	0
21	328	1	10000	3	1	0	3	0
21	329	1	10000	3	1	0	3	0
21	330	1	10000	3	1	0	3	0
21	331	1	10000	3	1	0	3	0
20	332	1	10000	3	1	0	3	0
19	333	1	10000	3	1	0	3	0
17	334	1	10000	3	1	0	3	0
18	335	1	10000	3	1	0	3	0
18	336	1	10000	3	1	0	3	0
18	337	1	10000	3	1	0	3	0
17	338	1	10000	3	1	0	3	0
18	339	1	10000	3	1	0	3	0
18	340	1	10000	3	1	0	3	0
18	341	1	10000	3	1	0	3	0
20	342	1	10000	3	1	0	3	0
20	343	1	10000	3	1	0	3	0
20	344	1	10000	3	1	0	3	0
21	345	1	10000	3	1	0	3	0
20	346	1	10000	3	1	0	3	0
19	347	1	10000	3	1	0	3	0
19	348	1	10000	3	1	0	3	0
18	349	1	10000	3	1	0	3	0
17	350	1	10000	3	1	0	3	0
18	351	1	10000	3	1	0	3	0
18	352	1	10000	3	1	0	3	0
16	353	1	10000	3	1	0	3	0
16	354	1	10000	3	1	0	3	0
16	355	1	10000	3	1	0	3	0
15	356	1	10000	3	1	0	3	0
15	357	1	10000	3	1	0	3	0
14	358	1	10000	3	1	0	3	0
15	359	1	10000	3	1	0	3	0
14	360	1	10000	3	1	0	3	0
15	361	1	10000	3	1	0	3	0
15	362	1	10000	3	1	0	3	0
16	363	1	10000	3	1	0	3	0
17	364	1	10000	3	1	0	3	0
16	365	1	10000	3	1	0	3	0
16	366	1	10000	3	1	0	3	0
15	367	1	10000	3	1	0	3	0
14	368	1	10000	3	1	0	3	0
15	369	1	10000	3	1	0	3	0
15	370	1	10000	3	1	0	3	0
16	371	1	10000	3	1	0	3	0
17	372	1	10000	3	1	0	3	0
16	373	1	10000	3	1	0	3	0
15	374	1	10000	3	1	0	3	0
16	375	1	10000	3	1	0	3	0
15	376	1	10000	3	1	0	3	0
15	377	1	10000	3	1	0	3	0
15	378	1	10000	3	1	0	3	0
15	379	1	10000	3	1	0	3	0
16	380	1	10000	3	1	0	3	0
16	381	1	10000	3	1	0	3	0
17	382	1	10000	3	1	0	3	0
18	383	1	10000	3	1	0	3	0
19	384	1	10000	3	1	0	3	0
18	385	1	10000	3	1	0	3	0
18	386	1	10000	3	1	0	3	0
17	387	1	10000	3	1	0	3	0
16	388	1	10000	3	1	0	3	0
19	389	1	10000	3	1	0	3	0
19	390	1	10000	3	1	0	3	0
19	391	1	10000	3	1	0	3	0
21	392	1	10000	3	1	0	3	0
19	393	1	10000	3	1	0	3	0
18	394	1	10000	3	1	0	3	0
17	395	1	10000	3	1	0	3	0
16	396	1	10000	3	1	0	3	0
17	397	1	10000	3	1	0	3	0
16	398	1	10000	3	1	0	3	0
15	399	1	10000	3	1	0	3	0
15	400	1	10000	3	1	0	3	0
14	401	1	10000	3	1	0	3	0
13	402	1	10000	3	1	0	3	0
14	403	1	10000	3	1	0	3	0
15	404	1	10000	3	1	0	3	0
14	405	1	10000	3	1	0	3	0
13	406	1	10000	3	1	0	3	0
13	407	1	10000	3	1	0	3	0
13	408	1	10000	3	1	0	3	0
13	409	1	10000	3	1	0	3	0
13	410	1	10000	3	1	0	3	0
13	411	1	10000	3	1	0	3	0
13	412	1	10000	3	1	0	3	0
11	413	1	10000	3	1	0	3	0
10	414	1	10000	3	1	0	3	0
10	415	1	10000	3	1	0	3	0
12	416	1	10000	3	1	0	3	0
12	417	1	10000	3	1	0	3	0
12	418	1	10000	3	1	0	3	0
13	419	1	10000	3	1	0	3	0
14	420	1	10000	3	1	0	3	0
14	421	1	10000	3	1	0	3	0
14	422	1	10000	3	1	0	3	0
15	423	1	10000	3	1	0	3	0
16	424	1	10000	3	1	0	3	0
15	425	1	10000	3	1	0	3	0
15	426	1	10000	3	1	0	3	0
16	427	1	10000	3	1	0	3	0
16	428	1	10000	3	1	0	3	0
16	429	1	10000	3	1	0	3	0
17	430	1	10000	3	1	0	3	0
16	431	1	10000	3	1	0	3	0
16	432	1	10000	3	1	0	3	0
15	433	1	10000	3	1	0	3	0
12	434	1	10000	3	1	0	3	0
12	435	1	10000	3	1	0	3	0
13	436	1	10000	3	1	0	3	0
13	437	1	10000	3	1	0	3	0
13	438	1	10000	3	1	0	3	0
13	439	1	10000	3	1	0	3	0
12	440	1	10000	3	1	0	3	0
11	441	1	10000	3	1	0	3	0
11	442	1	10000	3	1	0	3	0
12	443	1	10000	3	1	0	3	0
14	444	1	10000	3	1	0	3	0
17	445	1	10000	3	1	0	3	0
17	446	1	10000	3	1	0	3	0
17	447	1	10000	3	1	0	3	0
17	448	1	10000	3	1	0	3	0
16	449	1	10000	3	1	0	3	0
16	450	1	10000	3	1	0	3	0
16	451	1	10000	3	1	0	3	0
16	452	1	10000	3	1	0	3	0
15	453	1	10000	3	1	0	3	0
15	454	1	10000	3	1	0	3	0
15	455	1	10000	3	1	0	3	0
14	456	1	10000	3	1	0	3	0
14	457	1	10000	3	1	0	3	0
13	458	1	10000	3	1	0	3	0
13	459	1	10000	3	1	0	3	0
13	460	1	10000	3	1	0	3	0
13	461	1	10000	3	1	0	3	0
12	462	1	10000	3	1	0	3	0
13	463	1	10000	3	1	0	3	0
15	464	1	10000	3	1	0	3	0
14	465	1	10000	3	1	0	3	0
13	466	1	10000	3	1	0	3	0
13	467	1	10000	3	1	0	3	0
13	468	1	10000	3	1	0	3	0
14	469	1	10000	3	1	0	3	0
14	470	1	10000	3	1	0	3	0
15	471	1	10000	3	1	0	3	0
18	472	1	10000	3	1	0	3	0
18	473	1	10000	3	1	0	3	0
18	474	1	10000	3	1	0	3	0
19	475	1	10000	3	1	0	3	0
19	476	1	10000	3	1	0	3	0
19	477	1	10000	3	1	0	3	0
17	478	1	10000	3	1	0	3	0
17	479	1	10000	3	1	0	3	0
17	480	1	10000	3	1	0	3	0
15	481	1	10000	3	1	0	3	0
15	482	1	10000	3	1	0	3	0
17	483	1	10000	3	1	0	3	0
16	484	1	10000	3	1	0	3	0
16	485	1	10000	3	1	0	3	0
16	486	1	10000	3	1	0	3	0
14	487	1	10000	3	1	0	3	0
14	488	1	10000	3	1	0	3	0
14	489	1	10000	3	1	0	3	0
14	490	1	10000	3	1	0	3	0
16	491	1	10000	3	1	0	3	0
18	492	1	10000	3	1	0	3	0
19	493	1	10000	3	1	0	3	0
19	494	1	10000	3	1	0	3	0
19	495	1	10000	3	1	0	3	0
19	496	1	10000	3	1	0	3	0
18	497	1	10000	3	1	0	3	0
17	498	1	10000	3	1	0	3	0
17	499	1	10000	3	1	0	3	0
16	500	1	10000	3	1	0	3	0
16	501	1	10000	3	1	0	3	1
15	502	1	10000	3	1	0	3	1
16	503	1	10000	3	1	0	3	1
16	504	1	10000	3	1	0	3	1
15	505	1	10000	3	1	0	3	1
14	506	1	10000	3	1	0	3	1
14	507	1	10000	3	1	0	3	1
15	508	1	10000	3	1	0	3	1
14	509	1	10000	3	1	0	3	1
15	510	1	10000	3	1	0	3	1
16	511	1	10000	3	1	0	3	1
17	512	1	10000	3	1	0	3	1
16	513	1	10000	3	1	0	3	1
15	514	1	10000	3	1	0	3	1
14	515	1	10000	3	1	0	3	1
14	516	1	10000	3	1	0	3	1
14	517	1	10000	3	1	0	3	1
14	518	1	10000	3	1	0	3	1
13	519	1	10000	3	1	0	3	1
13	520	1	10000	3	1	0	3	1
14	521	1	10000	3	1	0	3	1
12	522	1	10000	3	1	0	3	1
13	523	1	10000	3	1	0	3	1
14	524	1	10000	3	1	0	3	1
12	525	1	10000	3	1	0	3	1
12	526	1	10000	3	1	0	3	1
12	527	1	10000	3	1	0	3	1
12	528	1	10000	3	1	0	3	1
12	529	1	10000	3	1	0	3	1
13	530	1	10000	3	1	0	3	1
12	531	1	10000	3	1	0	3	1
12	532	1	10000	3	1	0	3	1
12	533	1	10000	3	1	0	3	1
10	534	1	10000	3	1	0	3	1
10	535	1	10000	3	1	0	3	1
13	536	1	10000	3	1	0	3	1
13	537	1	10000	3	1	0	3	1
14	538	1	10000	3	1	0	3	1
16	539	1	10000	3	1	0	3	1
17	540	1	10000	3	1	0	3	1
17	541	1	10000	3	1	0	3	1
16	542	1	10000	3	1	0	3	1
18	543	1	10000	3	1	0	3	1
19	544	1	10000	3	1	0	3	1
19	545	1	10000	3	1	0	3	1
19	546	1	10000	3	1	0	3	1
23	547	1	10000	3	1	0	3	1
27	548	1	10000	3	1	0	3	1
29	549	1	10000	3	1	0	3	1
31	550	1	10000	3	1	0	3	1
30	551	1	10000	3	1	0	3	0
31	552	1	10000	3	1	0	3	0
34	553	1	10000	3	1	0	3	0
44	554	1	10000	3	1	0	3	0
47	555	1	10000	3	1	0	3	0
49	556	1	10000	3	1	0	3	0
51	557	1	10000	3	1	0	3	0
58	558	1	10000	3	1	0	3	0
65	559	1	10000	3	1	0	3	0
66	560	1	10000	3	1	0	3	0
68	561	1	10000	3	1	0	3	0
70	562	1	10000	3	1	0	3	0
71	563	1	10000	3	1	0	3	0
77	564	1	10000	3	1	0	3	0
80	565	1	10000	3	1	0	3	0
80	566	1	10000	3	1	0	3	0
82	567	1	10000	3	1	0	3	0
80	568	1	10000	3	1	0	3	0
80	569	1	10000	3	1	0	3	0
88	570	1	10000	3	1	0	3	0
101	571	1	10000	3	1	0	3	0
101	572	1	10000	3	1	0	3	0
103	573	1	10000	3	1	0	3	0
104	574	1	10000	3	1	0	3	0
100	575	1	10000	3	1	0	3	0
97	576	1	10000	3	1	0	3	0
97	577	1	10000	3	1	0	3	0
99	578	1	10000	3	1	0	3	0
112	579	1	10000	3	1	0	3	0
144	580	1	10000	3	1	0	3	0
184	581	1	10000	3	1	0	3	0
188	582	1	10000	3	1	0	3	0
201	583	1	10000	3	1	0	3	0
197	584	1	10000	3	1	0	3	0
191	585	1	10000	3	1	0	3	0
201	586	1	10000	3	1	0	3	0
205	587	1	10000	3	1	0	3	0
198	588	1	10000	3	1	0	3	0
191	589	1	10000	3	1	0	3	0
186	590	1	10000	3	1	0	3	0
179	591	1	10000	3	1	0	3	0
173	592	1	10000	3	1	0	3	0
173	593	1	10000	3	1	0	3	0
169	594	1	10000	3	1	0	3	0
171	595	1	10000	3	1	0	3	0
179	596	1	10000	3	1	0	3	0
194	597	1	10000	3	1	0	3	0
198	598	1	10000	3	1	0	3	0
232	599	1	10000	3	1	0	3	0
276	600	1	10000	3	1	0	3	0
299	601	1	10000	3	1	0	3	0
326	602	1	10000	3	1	0	3	0
399	603	1	10000	3	1	0	3	0
400	604	1	10000	3	1	0	3	0
385	605	1	10000	3	1	0	3	0
372	606	1	10000	3	1	0	3	0
360	607	1	10000	3	1	0	3	0
350	608	1	10000	3	1	0	3	0
334	609	1	10000	3	1	0	3	0
322	610	1	10000	3	1	0	3	0
310	611	1	10000	3	1	0	3	0
299	612	1	10000	3	1	0	3	0
289	613	1	10000	3	1	0	3	0
288	614	1	10000	3	1	0	3	0
314	615	1	10000	3	1	0	3	0
321	616	1	10000	3	1	0	3	0
310	617	1	10000	3	1	0	3	0
304	618	1	10000	3	1	0	3	0
319	619	1	10000	3	1	0	3	0
327	620	1	10000	3	1	0	3	0
319	621	1	10000	3	1	0	3	0
331	622	1	10000	3	1	0	3	0
345	623	1	10000	3	1	0	3	0
351	624	1	10000	3	1	0	3	0
342	625	1	10000	3	1	0	3	0
327	626	1	10000	3	1	0	3	0
314	627	1	10000	3	1	0	3	0
300	628	1	10000	3	1	0	3	0
288	629	1	10000	3	1	0	3	0
278	630	1	10000	3	1	0	3	0
265	631	1	10000	3	1	0	3	0
256	632	1	10000	3	1	0	3	0
248	633	1	10000	3	1	0	3	0
239	634	1	10000	3	1	0	3	0
232	635	1	10000	3	1	0	3	0
225	636	1	10000	3	1	0	3	0
220	637	1	10000	3	1	0	3	0
216	638	1	10000	3	1	0	3	0
208	639	1	10000	3	1	0	3	0
200	640	1	10000	3	1	0	3	0
195	641	1	10000	3	1	0	3	0
193	642	1	10000	3	1	0	3	0
197	643	1	10000	3	1	0	3	0
201	644	1	10000	3	1	0	3	0
203	645	1	10000	3	1	0	3	0
206	646	1	10000	3	1	0	3	0
207	647	1	10000	3	1	0	3	0
210	648	1	10000	3	1	0	3	0
213	649	1	10000	3	1	0	3	0
218	650	1	10000	3	1	0	3	0
222	651	1	10000	3	1	0	3	0
226	652	1	10000	3	1	0	3	0
227	653	1	10000	3	1	0	3	0
229	654	1	10000	3	1	0	3	0
232	655	1	10000	3	1	0	3	0
235	656	1	10000	3	1	0	3	0
239	657	1	10000	3	1	0	3	0
242	658	1	10000	3	1	0	3	0
243	659	1	10000	3	1	0	3	0
242	660	1	10000	3	1	0	3	0
239	661	1	10000	3	1	0	3	0
236	662	1	10000	3	1	0	3	0
232	663	1	10000	3	1	0	3	0
228	664	1	10000	3	1	0	3	0
221	665	1	10000	3	1	0	3	0
215	666	1	10000	3	1	0	3	0
209	667	1	10000	3	1	0	3	0
203	668	1	10000	3	1	0	3	0
198	669	1	10000	3	1	0	3	0
194	670	1	10000	3	1	0	3	0
191	671	1	10000	3	1	0	3	0
186	672	1	10000	3	1	0	3	0
180	673	1	10000	3	1	0	3	0
175	674	1	10000	3	1	0	3	0
172	675	1	10000	3	1	0	3	0
167	676	1	10000	3	1	0	3	0
163	677	1	10000	3	1	0	3	0
155	678	1	10000	3	1	0	3	0
148	679	1	10000	3	1	0	3	0
143	680	1	10000	3	1	0	3	0
136	681	1	10000	3	1	0	3	0
129	682	1	10000	3	1	0	3	0
126	683	1	10000	3	1	0	3	0
123	684	1	10000	3	1	0	3	0
118	685	1	10000	3	1	0	3	0
114	686	1	10000	3	1	0	3	0
112	687	1	10000	3	1	0	3	0
108	688	1	10000	3	1	0	3	0
104	689	1	10000	3	1	0	3	0
101	690	1	10000	3	1	0	3	0
98	691	1	10000	3	1	0	3	0
97	692	1	10000	3	1	0	3	0
94	693	1	10000	3	1	0	3	0
91	694	1	10000	3	1	0	3	0
89	695	1	10000	3	1	0	3	0
87	696	1	10000	3	1	0	3	0
85	697	1	10000	3	1	0	3	0
83	698	1	10000	3	1	0	3	0
82	699	1	10000	3	1	0	3	0
85	700	1	10000	3	1	0	3	0
86	701	1	10000	3	1	0	3	0
85	702	1	10000	3	1	0	3	0
85	703	1	10000	3	1	0	3	0
86	704	1	10000	3	1	0	3	0
87	705	1	10000	3	1	0	3	0
86	706	1	10000	3	1	0	3	0
89	707	1	10000	3	1	0	3	0
93	708	1	10000	3	1	0	3	0
95	709	1	10000	3	1	0	3	0
92	710	1	10000	3	1	0	3	0
89	711	1	10000	3	1	0	3	0
86	712	1	10000	3	1	0	3	0
82	713	1	10000	3	1	0	3	0
79	714	1	10000	3	1	0	3	0
79	715	1	10000	3	1	0	3	0
76	716	1	10000	3	1	0	3	0
73	717	1	10000	3	1	0	3	0
70	718	1	10000	3	1	0	3	0
68	719	1	10000	3	1	0	3	0
66	720	1	10000	3	1	0	3	0
66	721	1	10000	3	1	0	3	0
63	722	1	10000	3	1	0	3	0
63	723	1	10000	3	1	0	3	0
66	724	1	10000	3	1	0	3	0
68	725	1	10000	3	1	0	3	0
70	726	1	10000	3	1	0	3	0
73	727	1	10000	3	1	0	3	0
85	728	1	10000	3	1	0	3	0
91	729	1	10000	3	1	0	3	0
88	730	1	10000	3	1	0	3	0
85	731	1	10000	3	1	0	3	0
82	732	1	10000	3	1	0	3	0
78	733	1	10000	3	1	0	3	0
76	734	1	10000	3	1	0	3	0
75	735	1	10000	3	1	0	3	0
73	736	1	10000	3	1	0	3	0
71	737	1	10000	3	1	0	3	0
69	738	1	10000	3	1	0	3	0
68	739	1	10000	3	1	0	3	0
67	740	1	10000	3	1	0	3	0
65	741	1	10000	3	1	0	3	0
61	742	1	10000	3	1	0	3	0
62	743	1	10000	3	1	0	3	0
67	744	1	10000	3	1	0	3	0
69	745	1	10000	3	1	0	3	0
70	746	1	10000	3	1	0	3	0
79	747	1	10000	3	1	0	3	0
86	748	1	10000	3	1	0	3	0
86	749	1	10000	3	1	0	3	0
84	750	1	10000	3	1	0	3	0
85	751	1	10000	3	1	0	3	0
88	752	1	10000	3	1	0	3	0
86	753	1	10000	3	1	0	3	0
85	754	1	10000	3	1	0	3	0
82	755	1	10000	3	1	0	3	0
79	756	1	10000	3	1	0	3	0
78	757	1	10000	3	1	0	3	0
76	758	1	10000	3	1	0	3	0
75	759	1	10000	3	1	0	3	0
73	760	1	10000	3	1	0	3	0
71	761	1	10000	3	1	0	3	0
70	762	1	10000	3	1	0	3	0
68	763	1	10000	3	1	0	3	0
68	764	1	10000	3	1	0	3	0
66	765	1	10000	3	1	0	3	0
67	766	1	10000	3	1	0	3	0
69	767	1	10000	3	1	0	3	0
72	768	1	10000	3	1	0	3	0
74	769	1	10000	3	1	0	3	0
75	770	1	10000	3	1	0	3	0
74	771	1	10000	3	1	0	3	0
72	772	1	10000	3	1	0	3	0
69	773	1	10000	3	1	0	3	0
65	774	1	10000	3	1	0	3	0
64	775	1	10000	3	1	0	3	0
63	776	1	10000	3	1	0	3	0
62	777	1	10000	3	1	0	3	0
59	778	1	10000	3	1	0	3	0
57	779	1	10000	3	1	0	3	0
55	780	1	10000	3	1	0	3	0
53	781	1	10000	3	1	0	3	0
52	782	1	10000	3	1	0	3	0
52	783	1	10000	3	1	0	3	0
54	784	1	10000	3	1	0	3	0
59	785	1	10000	3	1	0	3	0
64	786	1	10000	3	1	0	3	0
65	787	1	10000	3	1	0	3	0
63	788	1	10000	3	1	0	3	0
65	789	1	10000	3	1	0	3	0
65	790	1	10000	3	1	0	3	0
65	791	1	10000	3	1	0	3	0
64	792	1	10000	3	1	0	3	0
60	793	1	10000	3	1	0	3	0
57	794	1	10000	3	1	0	3	0
56	795	1	10000	3	1	0	3	0
56	796	1	10000	3	1	0	3	0
56	797	1	10000	3	1	0	3	0
53	798	1	10000	3	1	0	3	0
51	799	1	10000	3	1	0	3	0
49	800	1	10000	3	1	0	3	0
47	801	1	10000	3	1	0	3	0
44	802	1	10000	3	1	0	3	0
44	803	1	10000	3	1	0	3	0
44	804	1	10000	3	1	0	3	0
46	805	1	10000	3	1	0	3	0
50	806	1	10000	3	1	0	3	0
50	807	1	10000	3	1	0	3	0
52	808	1	10000	3	1	0	3	0
53	809	1	10000	3	1	0	3	0
51	810	1	10000	3	1	0	3	0
49	811	1	10000	3	1	0	3	0
48	812	1	10000	3	1	0	3	0
45	813	1	10000	3	1	0	3	0
42	814	1	10000	3	1	0	3	0
43	815	1	10000	3	1	0	3	0
42	816	1	10000	3	1	0	3	0
41	817	1	10000	3	1	0	3	0
41	818	1	10000	3	1	0	3	0
40	819	1	10000	3	1	0	3	0
40	820	1	10000	3	1	0	3	0
41	821	1	10000	3	1	0	3	0
41	822	1	10000	3	1	0	3	0
41	823	1	10000	3	1	0	3	0
42	824	1	10000	3	1	0	3	0
44	825	1	10000	3	1	0	3	0
48	826	1	10000	3	1	0	3	0
48	827	1	10000	3	1	0	3	0
46	828	1	10000	3	1	0	3	0
45	829	1	10000	3	1	0	3	0
45	830	1	10000	3	1	0	3	0
49	831	1	10000	3	1	0	3	0
52	832	1	10000	3	1	0	3	0
51	833	1	10000	3	1	0	3	0
52	834	1	10000	3	1	0	3	0
55	835	1	10000	3	1	0	3	0
56	836	1	10000	3	1	0	3	0
56	837	1	10000	3	1	0	3	0
56	838	1	10000	3	1	0	3	0
57	839	1	10000	3	1	0	3	0
55	840	1	10000	3	1	0	3	0
54	841	1	10000	3	1	0	3	0
53	842	1	10000	3	1	0	3	0
52	843	1	10000	3	1	0	3	0
51	844	1	10000	3	1	0	3	0
49	845	1	10000	3	1	0	3	0
49	846	1	10000	3	1	0	3	0
47	847	1	10000	3	1	0	3	0
47	848	1	10000	3	1	0	3	0
46	849	1	10000	3	1	0	3	0
45	850	1	10000	3	1	0	3	0
46	851	1	10000	3	1	0	3	0
46	852	1	10000	3	1	0	3	0
44	853	1	10000	3	1	0	3	0
40	854	1	10000	3	1	0	3	0
39	855	1	10000	3	1	0	3	0
39	856	1	10000	3	1	0	3	0
37	857	1	10000	3	1	0	3	0
35	858	1	10000	3	1	0	3	0
35	859	1	10000	3	1	0	3	0
33	860	1	10000	3	1	0	3	0
32	861	1	10000	3	1	0	3	0
33	862	1	10000	3	1	0	3	0
36	863	1	10000	3	1	0	3	0
38	864	1	10000	3	1	0	3	0
37	865	1	10000	3	1	0	3	0
39	866	1	10000	3	1	0	3	0
39	867	1	10000	3	1	0	3	0
39	868	1	10000	3	1	0	3	0
37	869	1	10000	3	1	0	3	0
39	870	1	10000	3	1	0	3	0
40	871	1	10000	3	1	0	3	0
39	872	1	10000	3	1	0	3	0
39	873	1	10000	3	1	0	3	0
40	874	1	10000	3	1	0	3	0
43	875	1	10000	3	1	0	3	0
43	876	1	10000	3	1	0	3	0
42	877	1	10000	3	1	0	3	0
44	878	1	10000	3	1	0	3	0
44	879	1	10000	3	1	0	3	0
47	880	1	10000	3	1	0	3	0
46	881	1	10000	3	1	0	3	0
44	882	1	10000	3	1	0	3	0
43	883	1	10000	3	1	0	3	0
42	884	1	10000	3	1	0	3	0
41	885	1	10000	3	1	0	3	0
43	886	1	10000	3	1	0	3	0
46	887	1	10000	3	1	0	3	0
51	888	1	10000	3	1	0	3	0
53	889	1	10000	3	1	0	3	0
54	890	1	10000	3	1	0	3	0
54	891	1	10000	3	1	0	3	0
55	892	1	10000	3	1	0	3	0
55	893	1	10000	3	1	0	3	0
58	894	1	10000	3	1	0	3	0
64	895	1	10000	3	1	0	3	0
69	896	1	10000	3	1	0	3	0
73	897	1	10000	3	1	0	3	0
75	898	1	10000	3	1	0	3	0
79	899	1	10000	3	1	0	3	0
83	900	1	10000	3	1	0	3	0
87	901	1	10000	3	1	0	3	0
89	902	1	10000	3	1	0	3	0
93	903	1	10000	3	1	0	3	0
98	904	1	10000	3	1	0	3	0
100	905	1	10000	3	1	0	3	0
103	906	1	10000	3	1	0	3	0
104	907	1	10000	3	1	0	3	0
108	908	1	10000	3	1	0	3	0
112	909	1	10000	3	1	0	3	0
115	910	1	10000	3	1	0	3	0
115	911	1	10000	3	1	0	3	0
116	912	1	10000	3	1	0	3	0
114	913	1	10000	3	1	0	3	0
112	914	1	10000	3	1	0	3	0
110	915	1	10000	3	1	0	3	0
109	916	1	10000	3	1	0	3	0
107	917	1	10000	3	1	0	3	0
105	918	1	10000	3	1	0	3	0
105	919	1	10000	3	1	0	3	0
104	920	1	10000	3	1	0	3	0
102	921	1	10000	3	1	0	3	0
100	922	1	10000	3	1	0	3	0
97	923	1	10000	3	1	0	3	0
95	924	1	10000	3	1	0	3	0
90	925	1	10000	3	1	0	3	0
88	926	1	10000	3	1	0	3	0
84	927	1	10000	3	1	0	3	0
81	928	1	10000	3	1	0	3	0
79	929	1	10000	3	1	0	3	0
77	930	1	10000	3	1	0	3	0
75	931	1	10000	3	1	0	3	0
74	932	1	10000	3	1	0	3	0
75	933	1	10000	3	1	0	3	0
73	934	1	10000	3	1	0	3	0
72	935	1	10000	3	1	0	3	0
71	936	1	10000	3	1	0	3	0
70	937	1	10000	3	1	0	3	0
71	938	1	10000	3	1	0	3	0
73	939	1	10000	3	1	0	3	0
74	940	1	10000	3	1	0	3	0
75	941	1	10000	3	1	0	3	0
77	942	1	10000	3	1	0	3	0
80	943	1	10000	3	1	0	3	0
84	944	1	10000	3	1	0	3	0
85	945	1	10000	3	1	0	3	0
87	946	1	10000	3	1	0	3	0
90	947	1	10000	3	1	0	3	0
92	948	1	10000	3	1	0	3	0
93	949	1	10000	3	1	0	3	0
96	950	1	10000	3	1	0	3	0
98	951	1	10000	3	1	0	3	0
99	952	1	10000	3	1	0	3	0
101	953	1	10000	3	1	0	3	0
100	954	1	10000	3	1	0	3	0
103	955	1	10000	3	1	0	3	0
105	956	1	10000	3	1	0	3	0
107	957	1	10000	3	1	0	3	0
109	958	1	10000	3	1	0	3	0
113	959	1	10000	3	1	0	3	0
113	960	1	10000	3	1	0	3	0
113	961	1	10000	3	1	0	3	0
113	962	1	10000	3	1	0	3	0
114	963	1	10000	3	1	0	3	0
116	964	1	10000	3	1	0	3	0
116	965	1	10000	3	1	0	3	0
114	966	1	10000	3	1	0	3	0
114	967	1	10000	3	1	0	3	0
115	968	1	10000	3	1	0	3	0
114	969	1	10000	3	1	0	3	0
115	970	1	10000	3	1	0	3	0
115	971	1	10000	3	1	0	3	0
116	972	1	10000	3	1	0	3	0
114	973	1	10000	3	1	0	3	0
112	974	1	10000	3	1	0	3	0
111	975	1	10000	3	1	0	3	0
109	976	1	10000	3	1	0	3	0
109	977	1	10000	3	1	0	3	0
110	978	1	10000	3	1	0	3	0
111	979	1	10000	3	1	0	3	0
112	980	1	10000	3	1	0	3	0
110	981	1	10000	3	1	0	3	0
108	982	1	10000	3	1	0	3	0
105	983	1	10000	3	1	0	3	0
103	984	1	10000	3	1	0	3	0
98	985	1	10000	3	1	0	3	0
95	986	1	10000	3	1	0	3	0
93	987	1	10000	3	1	0	3	0
93	988	1	10000	3	1	0	3	0
92	989	1	10000	3	1	0	3	0
91	990	1	10000	3	1	0	3	0
89	991	1	10000	3	1	0	3	0
88	992	1	10000	3	1	0	3	0
86	993	1	10000	3	1	0	3	0
83	994	1	10000	3	1	0	3	0
82	995	1	10000	3	1	0	3	0
80	996	1	10000	3	1	0	3	0
81	997	1	10000	3	1	0	3	0
79	998	1	10000	3	1	0	3	0
77	999	1	10000	3	1	0	3	0
76	1000	1	10000	3	1	0	3	0
8	2	0	10000	4	1	0	4	0
8	3	0	10000	4	1	0	4	0
8	4	0	10000	4	1	0	4	0
9	5	0	10000	4	1	0	4	0
8	6	0	10000	4	1	0	4	0
8	7	0	10000	4	1	0	4	0
8	8	0	10000	4	1	0	4	0
8	9	0	10000	4	1	0	4	0
10	10	0	10000	4	1	0	4	0
10	11	0	10000	4	1	0	4	0
10	12	0	10000	4	1	0	4	0
10	13	0	10000	4	1	0	4	0
10	14	0	10000	4	1	0	4	0
10	15	0	10000	4	1	0	4	0
11	16	0	10000	4	1	0	4	0
12	17	0	10000	4	1	0	4	0
12	18	0	10000	4	1	0	4	0
10	19	0	10000	4	1	0	4	0
9	20	0	10000	4	1	0	4	0
10	21	0	10000	4	1	0	4	0
11	22	0	10000	4	1	0	4	0
12	23	0	10000	4	1	0	4	0
12	24	0	10000	4	1	0	4	0
12	25	0	10000	4	1	0	4	0
10	26	0	10000	4	1	0	4	0
11	27	0	10000	4	1	0	4	0
11	28	0	10000	4	1	0	4	0
11	29	0	10000	4	1	0	4	0
12	30	0	10000	4	1	0	4	0
13	31	0	10000	4	1	0	4	0
12	32	0	10000	4	1	0	4	0
13	33	0	10000	4	1	0	4	0
14	34	0	10000	4	1	0	4	0
12	35	0	10000	4	1	0	4	0
12	36	0	10000	4	1	0	4	0
13	37	0	10000	4	1	0	4	0
14	38	0	10000	4	1	0	4	0
14	39	0	10000	4	1	0	4	0
12	40	0	10000	4	1	0	4	0
12	41	0	10000	4	1	0	4	0
12	42	0	10000	4	1	0	4	0
12	43	0	10000	4	1	0	4	0
12	44	0	10000	4	1	0	4	0
12	45	0	10000	4	1	0	4	0
12	46	0	10000	4	1	0	4	0
12	47	0	10000	4	1	0	4	0
11	48	0	10000	4	1	0	4	0
12	49	0	10000	4	1	0	4	0
13	50	0	10000	4	1	0	4	0
13	51	0	10000	4	1	0	4	0
12	52	0	10000	4	1	0	4	0
12	53	0	10000	4	1	0	4	0
11	54	0	10000	4	1	0	4	0
11	55	0	10000	4	1	0	4	0
11	56	0	10000	4	1	0	4	0
11	57	0	10000	4	1	0	4	0
12	58	0	10000	4	1	0	4	0
13	59	0	10000	4	1	0	4	0
12	60	0	10000	4	1	0	4	0
13	61	0	10000	4	1	0	4	0
13	62	0	10000	4	1	0	4	0
14	63	0	10000	4	1	0	4	0
15	64	0	10000	4	1	0	4	0
16	65	0	10000	4	1	0	4	0
17	66	0	10000	4	1	0	4	0
16	67	0	10000	4	1	0	4	0
16	68	0	10000	4	1	0	4	0
18	69	0	10000	4	1	0	4	0
19	70	0	10000	4	1	0	4	0
17	71	0	10000	4	1	0	4	0
18	72	0	10000	4	1	0	4	0
16	73	0	10000	4	1	0	4	0
15	74	0	10000	4	1	0	4	0
15	75	0	10000	4	1	0	4	0
15	76	0	10000	4	1	0	4	0
15	77	0	10000	4	1	0	4	0
16	78	0	10000	4	1	0	4	0
14	79	0	10000	4	1	0	4	0
12	80	0	10000	4	1	0	4	0
13	81	0	10000	4	1	0	4	0
13	82	0	10000	4	1	0	4	0
14	83	0	10000	4	1	0	4	0
14	84	0	10000	4	1	0	4	0
15	85	0	10000	4	1	0	4	0
15	86	0	10000	4	1	0	4	0
15	87	0	10000	4	1	0	4	0
14	88	0	10000	4	1	0	4	0
14	89	0	10000	4	1	0	4	0
15	90	0	10000	4	1	0	4	0
14	91	0	10000	4	1	0	4	0
14	92	0	10000	4	1	0	4	0
13	93	0	10000	4	1	0	4	0
15	94	0	10000	4	1	0	4	0
15	95	0	10000	4	1	0	4	0
15	96	0	10000	4	1	0	4	0
15	97	0	10000	4	1	0	4	0
15	98	0	10000	4	1	0	4	0
13	99	0	10000	4	1	0	4	0
13	100	0	10000	4	1	0	4	0
13	101	0	10000	4	1	0	4	0
13	102	0	10000	4	1	0	4	0
13	103	0	10000	4	1	0	4	0
13	104	0	10000	4	1	0	4	0
12	105	0	10000	4	1	0	4	0
13	106	0	10000	4	1	0	4	0
13	107	0	10000	4	1	0	4	0
13	108	0	10000	4	1	0	4	0
14	109	0	10000	4	1	0	4	0
15	110	0	10000	4	1	0	4	0
14	111	0	10000	4	1	0	4	0
14	112	0	10000	4	1	0	4	0
13	113	0	10000	4	1	0	4	0
14	114	0	10000	4	1	0	4	0
14	115	0	10000	4	1	0	4	0
15	116	0	10000	4	1	0	4	0
14	117	0	10000	4	1	0	4	0
14	118	0	10000	4	1	0	4	0
14	119	0	10000	4	1	0	4	0
12	120	0	10000	4	1	0	4	0
12	121	0	10000	4	1	0	4	0
12	122	0	10000	4	1	0	4	0
12	123	0	10000	4	1	0	4	0
11	124	0	10000	4	1	0	4	0
12	125	0	10000	4	1	0	4	0
10	126	0	10000	4	1	0	4	0
10	127	0	10000	4	1	0	4	0
10	128	0	10000	4	1	0	4	0
10	129	0	10000	4	1	0	4	0
11	130	0	10000	4	1	0	4	0
10	131	0	10000	4	1	0	4	0
10	132	0	10000	4	1	0	4	0
10	133	0	10000	4	1	0	4	0
11	134	0	10000	4	1	0	4	0
11	135	0	10000	4	1	0	4	0
11	136	0	10000	4	1	0	4	0
11	137	0	10000	4	1	0	4	0
11	138	0	10000	4	1	0	4	0
10	139	0	10000	4	1	0	4	0
9	140	0	10000	4	1	0	4	0
8	141	0	10000	4	1	0	4	0
9	142	0	10000	4	1	0	4	0
10	143	0	10000	4	1	0	4	0
9	144	0	10000	4	1	0	4	0
9	145	0	10000	4	1	0	4	0
9	146	0	10000	4	1	0	4	0
9	147	0	10000	4	1	0	4	0
8	148	0	10000	4	1	0	4	0
8	149	0	10000	4	1	0	4	0
9	150	0	10000	4	1	0	4	0
9	151	0	10000	4	1	0	4	0
9	152	0	10000	4	1	0	4	0
9	153	0	10000	4	1	0	4	0
9	154	0	10000	4	1	0	4	0
8	155	0	10000	4	1	0	4	0
9	156	0	10000	4	1	0	4	0
10	157	0	10000	4	1	0	4	0
10	158	0	10000	4	1	0	4	0
9	159	0	10000	4	1	0	4	0
9	160	0	10000	4	1	0	4	0
8	161	0	10000	4	1	0	4	0
8	162	0	10000	4	1	0	4	0
9	163	0	10000	4	1	0	4	0
8	164	0	10000	4	1	0	4	0
8	165	0	10000	4	1	0	4	0
8	166	0	10000	4	1	0	4	0
7	167	0	10000	4	1	0	4	0
6	168	0	10000	4	1	0	4	0
7	169	0	10000	4	1	0	4	0
9	170	0	10000	4	1	0	4	0
8	171	0	10000	4	1	0	4	0
8	172	0	10000	4	1	0	4	0
8	173	0	10000	4	1	0	4	0
8	174	0	10000	4	1	0	4	0
8	175	0	10000	4	1	0	4	0
8	176	0	10000	4	1	0	4	0
9	177	0	10000	4	1	0	4	0
9	178	0	10000	4	1	0	4	0
9	179	0	10000	4	1	0	4	0
8	180	0	10000	4	1	0	4	0
9	181	0	10000	4	1	0	4	0
9	182	0	10000	4	1	0	4	0
9	183	0	10000	4	1	0	4	0
9	184	0	10000	4	1	0	4	0
10	185	0	10000	4	1	0	4	0
9	186	0	10000	4	1	0	4	0
9	187	0	10000	4	1	0	4	0
8	188	0	10000	4	1	0	4	0
9	189	0	10000	4	1	0	4	0
11	190	0	10000	4	1	0	4	0
10	191	0	10000	4	1	0	4	0
9	192	0	10000	4	1	0	4	0
9	193	0	10000	4	1	0	4	0
9	194	0	10000	4	1	0	4	0
9	195	0	10000	4	1	0	4	0
9	196	0	10000	4	1	0	4	0
10	197	0	10000	4	1	0	4	0
10	198	0	10000	4	1	0	4	0
9	199	0	10000	4	1	0	4	0
8	200	0	10000	4	1	0	4	0
9	201	0	10000	4	1	0	4	0
8	202	0	10000	4	1	0	4	0
8	203	0	10000	4	1	0	4	0
9	204	0	10000	4	1	0	4	0
9	205	0	10000	4	1	0	4	0
9	206	0	10000	4	1	0	4	0
10	207	0	10000	4	1	0	4	0
8	208	0	10000	4	1	0	4	0
9	209	0	10000	4	1	0	4	0
11	210	0	10000	4	1	0	4	0
10	211	0	10000	4	1	0	4	0
10	212	0	10000	4	1	0	4	0
10	213	0	10000	4	1	0	4	0
9	214	0	10000	4	1	0	4	0
9	215	0	10000	4	1	0	4	0
8	216	0	10000	4	1	0	4	0
9	217	0	10000	4	1	0	4	0
9	218	0	10000	4	1	0	4	0
8	219	0	10000	4	1	0	4	0
7	220	0	10000	4	1	0	4	0
8	221	0	10000	4	1	0	4	0
8	222	0	10000	4	1	0	4	0
8	223	0	10000	4	1	0	4	0
8	224	0	10000	4	1	0	4	0
8	225	0	10000	4	1	0	4	0
8	226	0	10000	4	1	0	4	0
8	227	0	10000	4	1	0	4	0
8	228	0	10000	4	1	0	4	0
9	229	0	10000	4	1	0	4	0
10	230	0	10000	4	1	0	4	0
10	231	0	10000	4	1	0	4	0
9	231	0	10000	4	1	0	4	0
8	232	0	10000	4	1	0	4	0
8	234	0	10000	4	1	0	4	0
8	235	0	10000	4	1	0	4	0
9	236	0	10000	4	1	0	4	0
8	237	0	10000	4	1	0	4	0
10	238	0	10000	4	1	0	4	0
8	239	0	10000	4	1	0	4	0
8	240	0	10000	4	1	0	4	0
8	241	0	10000	4	1	0	4	0
8	241	0	10000	4	1	0	4	0
9	242	0	10000	4	1	0	4	0
8	244	0	10000	4	1	0	4	0
9	245	0	10000	4	1	0	4	0
8	246	0	10000	4	1	0	4	0
8	247	0	10000	4	1	0	4	0
8	248	0	10000	4	1	0	4	0
8	249	0	10000	4	1	0	4	0
9	250	0	10000	4	1	0	4	0
9	251	0	10000	4	1	0	4	0
9	251	0	10000	4	1	0	4	0
10	252	0	10000	4	1	0	4	0
11	254	0	10000	4	1	0	4	0
10	255	0	10000	4	1	0	4	0
10	256	0	10000	4	1	0	4	0
11	257	0	10000	4	1	0	4	0
11	258	0	10000	4	1	0	4	0
11	259	0	10000	4	1	0	4	0
9	260	0	10000	4	1	0	4	0
11	261	0	10000	4	1	0	4	0
12	261	0	10000	4	1	0	4	0
13	262	0	10000	4	1	0	4	0
13	264	0	10000	4	1	0	4	0
13	265	0	10000	4	1	0	4	0
13	266	0	10000	4	1	0	4	0
12	267	0	10000	4	1	0	4	0
11	268	0	10000	4	1	0	4	0
12	269	0	10000	4	1	0	4	0
13	270	0	10000	4	1	0	4	0
13	271	0	10000	4	1	0	4	0
12	271	0	10000	4	1	0	4	0
12	272	0	10000	4	1	0	4	0
12	274	0	10000	4	1	0	4	0
12	275	0	10000	4	1	0	4	0
13	276	0	10000	4	1	0	4	0
13	277	0	10000	4	1	0	4	0
15	278	0	10000	4	1	0	4	0
14	279	0	10000	4	1	0	4	0
13	280	0	10000	4	1	0	4	0
13	281	0	10000	4	1	0	4	0
14	281	0	10000	4	1	0	4	0
13	282	0	10000	4	1	0	4	0
13	284	0	10000	4	1	0	4	0
13	285	0	10000	4	1	0	4	0
14	286	0	10000	4	1	0	4	0
13	287	0	10000	4	1	0	4	0
12	288	0	10000	4	1	0	4	0
13	289	0	10000	4	1	0	4	0
13	290	0	10000	4	1	0	4	0
12	291	0	10000	4	1	0	4	0
12	291	0	10000	4	1	0	4	0
11	292	0	10000	4	1	0	4	0
11	294	0	10000	4	1	0	4	0
11	295	0	10000	4	1	0	4	0
10	296	0	10000	4	1	0	4	0
11	297	0	10000	4	1	0	4	0
13	298	0	10000	4	1	0	4	0
13	299	0	10000	4	1	0	4	0
12	300	0	10000	4	1	0	4	0
12	301	0	10000	4	1	0	4	0
12	301	0	10000	4	1	0	4	0
12	302	0	10000	4	1	0	4	0
12	304	0	10000	4	1	0	4	0
12	305	0	10000	4	1	0	4	0
13	306	0	10000	4	1	0	4	0
12	307	0	10000	4	1	0	4	0
11	308	0	10000	4	1	0	4	0
13	309	0	10000	4	1	0	4	0
15	310	0	10000	4	1	0	4	0
13	311	0	10000	4	1	0	4	0
13	311	0	10000	4	1	0	4	0
13	312	0	10000	4	1	0	4	0
13	314	0	10000	4	1	0	4	0
13	315	0	10000	4	1	0	4	0
14	316	0	10000	4	1	0	4	0
13	317	0	10000	4	1	0	4	0
14	318	0	10000	4	1	0	4	0
13	319	0	10000	4	1	0	4	0
11	320	0	10000	4	1	0	4	0
12	321	0	10000	4	1	0	4	0
13	321	0	10000	4	1	0	4	0
13	322	0	10000	4	1	0	4	0
12	324	0	10000	4	1	0	4	0
13	325	0	10000	4	1	0	4	0
13	326	0	10000	4	1	0	4	0
14	327	0	10000	4	1	0	4	0
13	328	0	10000	4	1	0	4	0
14	329	0	10000	4	1	0	4	0
15	330	0	10000	4	1	0	4	0
14	331	0	10000	4	1	0	4	0
13	331	0	10000	4	1	0	4	0
14	332	0	10000	4	1	0	4	0
12	334	0	10000	4	1	0	4	0
12	335	0	10000	4	1	0	4	0
12	336	0	10000	4	1	0	4	0
12	337	0	10000	4	1	0	4	0
12	338	0	10000	4	1	0	4	0
12	339	0	10000	4	1	0	4	0
9	340	0	10000	4	1	0	4	0
9	341	0	10000	4	1	0	4	0
10	341	0	10000	4	1	0	4	0
9	342	0	10000	4	1	0	4	0
10	344	0	10000	4	1	0	4	0
11	345	0	10000	4	1	0	4	0
12	346	0	10000	4	1	0	4	0
12	347	0	10000	4	1	0	4	0
11	348	0	10000	4	1	0	4	0
12	349	0	10000	4	1	0	4	0
13	350	0	10000	4	1	0	4	0
12	351	0	10000	4	1	0	4	0
12	351	0	10000	4	1	0	4	0
11	352	0	10000	4	1	0	4	0
12	354	0	10000	4	1	0	4	0
12	355	0	10000	4	1	0	4	0
12	356	0	10000	4	1	0	4	0
13	357	0	10000	4	1	0	4	0
13	358	0	10000	4	1	0	4	0
12	359	0	10000	4	1	0	4	0
11	360	0	10000	4	1	0	4	0
11	361	0	10000	4	1	0	4	0
11	361	0	10000	4	1	0	4	0
12	362	0	10000	4	1	0	4	0
11	364	0	10000	4	1	0	4	0
11	365	0	10000	4	1	0	4	0
11	366	0	10000	4	1	0	4	0
11	367	0	10000	4	1	0	4	0
10	368	0	10000	4	1	0	4	0
10	369	0	10000	4	1	0	4	0
12	370	0	10000	4	1	0	4	0
11	371	0	10000	4	1	0	4	0
11	371	0	10000	4	1	0	4	0
11	372	0	10000	4	1	0	4	0
13	374	0	10000	4	1	0	4	0
12	375	0	10000	4	1	0	4	0
11	376	0	10000	4	1	0	4	0
13	377	0	10000	4	1	0	4	0
13	378	0	10000	4	1	0	4	0
11	379	0	10000	4	1	0	4	0
11	380	0	10000	4	1	0	4	0
10	381	0	10000	4	1	0	4	0
10	381	0	10000	4	1	0	4	0
11	382	0	10000	4	1	0	4	0
10	384	0	10000	4	1	0	4	0
10	385	0	10000	4	1	0	4	0
11	386	0	10000	4	1	0	4	0
9	387	0	10000	4	1	0	4	0
9	388	0	10000	4	1	0	4	0
10	389	0	10000	4	1	0	4	0
11	390	0	10000	4	1	0	4	0
11	391	0	10000	4	1	0	4	0
11	391	0	10000	4	1	0	4	0
11	392	0	10000	4	1	0	4	0
11	394	0	10000	4	1	0	4	0
11	395	0	10000	4	1	0	4	0
11	396	0	10000	4	1	0	4	0
12	397	0	10000	4	1	0	4	0
15	398	0	10000	4	1	0	4	0
14	399	0	10000	4	1	0	4	0
12	400	0	10000	4	1	0	4	0
13	401	0	10000	4	1	0	4	0
13	401	0	10000	4	1	0	4	0
13	402	0	10000	4	1	0	4	0
13	404	0	10000	4	1	0	4	0
12	405	0	10000	4	1	0	4	0
13	406	0	10000	4	1	0	4	0
12	407	0	10000	4	1	0	4	0
11	408	0	10000	4	1	0	4	0
12	409	0	10000	4	1	0	4	0
13	410	0	10000	4	1	0	4	0
13	411	0	10000	4	1	0	4	0
12	411	0	10000	4	1	0	4	0
12	412	0	10000	4	1	0	4	0
11	414	0	10000	4	1	0	4	0
11	415	0	10000	4	1	0	4	0
10	416	0	10000	4	1	0	4	0
10	417	0	10000	4	1	0	4	0
11	418	0	10000	4	1	0	4	0
10	419	0	10000	4	1	0	4	0
8	420	0	10000	4	1	0	4	0
9	421	0	10000	4	1	0	4	0
9	421	0	10000	4	1	0	4	0
9	422	0	10000	4	1	0	4	0
10	424	0	10000	4	1	0	4	0
9	425	0	10000	4	1	0	4	0
9	426	0	10000	4	1	0	4	0
10	427	0	10000	4	1	0	4	0
9	428	0	10000	4	1	0	4	0
10	429	0	10000	4	1	0	4	0
12	430	0	10000	4	1	0	4	0
10	431	0	10000	4	1	0	4	0
10	431	0	10000	4	1	0	4	0
9	432	0	10000	4	1	0	4	0
9	434	0	10000	4	1	0	4	0
9	435	0	10000	4	1	0	4	0
9	436	0	10000	4	1	0	4	0
9	437	0	10000	4	1	0	4	0
10	438	0	10000	4	1	0	4	0
10	439	0	10000	4	1	0	4	0
9	440	0	10000	4	1	0	4	0
10	441	0	10000	4	1	0	4	0
10	441	0	10000	4	1	0	4	0
10	442	0	10000	4	1	0	4	0
10	444	0	10000	4	1	0	4	0
10	445	0	10000	4	1	0	4	0
10	446	0	10000	4	1	0	4	0
9	447	0	10000	4	1	0	4	0
9	448	0	10000	4	1	0	4	0
10	449	0	10000	4	1	0	4	0
11	450	0	10000	4	1	0	4	0
11	451	0	10000	4	1	0	4	0
10	451	0	10000	4	1	0	4	0
11	452	0	10000	4	1	0	4	0
11	454	0	10000	4	1	0	4	0
11	455	0	10000	4	1	0	4	0
11	456	0	10000	4	1	0	4	0
12	457	0	10000	4	1	0	4	0
12	458	0	10000	4	1	0	4	0
10	459	0	10000	4	1	0	4	0
9	460	0	10000	4	1	0	4	0
10	461	0	10000	4	1	0	4	0
10	461	0	10000	4	1	0	4	0
10	462	0	10000	4	1	0	4	0
10	464	0	10000	4	1	0	4	0
10	465	0	10000	4	1	0	4	0
10	466	0	10000	4	1	0	4	0
9	467	0	10000	4	1	0	4	0
10	468	0	10000	4	1	0	4	0
10	469	0	10000	4	1	0	4	0
11	470	0	10000	4	1	0	4	0
11	471	0	10000	4	1	0	4	0
10	471	0	10000	4	1	0	4	0
11	472	0	10000	4	1	0	4	0
11	474	0	10000	4	1	0	4	0
10	475	0	10000	4	1	0	4	0
10	476	0	10000	4	1	0	4	0
11	477	0	10000	4	1	0	4	0
11	478	0	10000	4	1	0	4	0
10	479	0	10000	4	1	0	4	0
8	480	0	10000	4	1	0	4	0
9	481	0	10000	4	1	0	4	0
9	481	0	10000	4	1	0	4	0
10	482	0	10000	4	1	0	4	0
9	484	0	10000	4	1	0	4	0
9	485	0	10000	4	1	0	4	0
9	486	0	10000	4	1	0	4	0
9	487	0	10000	4	1	0	4	0
10	488	0	10000	4	1	0	4	0
12	489	0	10000	4	1	0	4	0
15	490	0	10000	4	1	0	4	0
14	491	0	10000	4	1	0	4	0
14	491	0	10000	4	1	0	4	0
13	492	0	10000	4	1	0	4	0
13	494	0	10000	4	1	0	4	0
13	495	0	10000	4	1	0	4	0
13	496	0	10000	4	1	0	4	0
13	497	0	10000	4	1	0	4	0
13	498	0	10000	4	1	0	4	0
12	499	0	10000	4	1	0	4	0
10	500	0	10000	4	1	0	4	0
11	501	0	10000	4	1	0	4	0
11	502	0	10000	4	1	0	4	1
12	503	0	10000	4	1	0	4	1
11	504	0	10000	4	1	0	4	1
11	505	0	10000	4	1	0	4	1
11	506	0	10000	4	1	0	4	1
11	507	0	10000	4	1	0	4	1
10	508	0	10000	4	1	0	4	1
12	509	0	10000	4	1	0	4	1
13	510	0	10000	4	1	0	4	1
12	511	0	10000	4	1	0	4	1
12	511	0	10000	4	1	0	4	1
11	512	0	10000	4	1	0	4	1
12	514	0	10000	4	1	0	4	1
13	515	0	10000	4	1	0	4	1
12	516	0	10000	4	1	0	4	1
12	517	0	10000	4	1	0	4	1
13	518	0	10000	4	1	0	4	1
11	519	0	10000	4	1	0	4	1
9	520	0	10000	4	1	0	4	1
11	521	0	10000	4	1	0	4	1
10	521	0	10000	4	1	0	4	1
10	522	0	10000	4	1	0	4	1
10	524	0	10000	4	1	0	4	1
10	525	0	10000	4	1	0	4	1
10	526	0	10000	4	1	0	4	1
9	527	0	10000	4	1	0	4	1
9	528	0	10000	4	1	0	4	1
10	529	0	10000	4	1	0	4	1
12	530	0	10000	4	1	0	4	1
11	531	0	10000	4	1	0	4	1
11	531	0	10000	4	1	0	4	1
10	532	0	10000	4	1	0	4	1
10	534	0	10000	4	1	0	4	1
10	535	0	10000	4	1	0	4	1
10	536	0	10000	4	1	0	4	1
11	537	0	10000	4	1	0	4	1
11	538	0	10000	4	1	0	4	1
11	539	0	10000	4	1	0	4	1
8	540	0	10000	4	1	0	4	1
9	541	0	10000	4	1	0	4	1
9	541	0	10000	4	1	0	4	1
9	542	0	10000	4	1	0	4	1
9	544	0	10000	4	1	0	4	1
9	545	0	10000	4	1	0	4	1
9	546	0	10000	4	1	0	4	1
8	547	0	10000	4	1	0	4	1
8	548	0	10000	4	1	0	4	1
9	549	0	10000	4	1	0	4	1
11	550	0	10000	4	1	0	4	1
10	551	0	10000	4	1	0	4	1
10	551	0	10000	4	1	0	4	0
10	552	0	10000	4	1	0	4	0
9	554	0	10000	4	1	0	4	0
10	555	0	10000	4	1	0	4	0
10	556	0	10000	4	1	0	4	0
10	557	0	10000	4	1	0	4	0
10	558	0	10000	4	1	0	4	0
11	559	0	10000	4	1	0	4	0
8	560	0	10000	4	1	0	4	0
9	561	0	10000	4	1	0	4	0
10	561	0	10000	4	1	0	4	0
9	562	0	10000	4	1	0	4	0
9	564	0	10000	4	1	0	4	0
10	565	0	10000	4	1	0	4	0
9	566	0	10000	4	1	0	4	0
8	567	0	10000	4	1	0	4	0
8	568	0	10000	4	1	0	4	0
8	569	0	10000	4	1	0	4	0
10	570	0	10000	4	1	0	4	0
9	571	0	10000	4	1	0	4	0
9	571	0	10000	4	1	0	4	0
9	572	0	10000	4	1	0	4	0
8	574	0	10000	4	1	0	4	0
8	575	0	10000	4	1	0	4	0
8	576	0	10000	4	1	0	4	0
9	577	0	10000	4	1	0	4	0
8	578	0	10000	4	1	0	4	0
8	579	0	10000	4	1	0	4	0
7	580	0	10000	4	1	0	4	0
7	581	0	10000	4	1	0	4	0
7	581	0	10000	4	1	0	4	0
8	582	0	10000	4	1	0	4	0
7	584	0	10000	4	1	0	4	0
8	585	0	10000	4	1	0	4	0
9	586	0	10000	4	1	0	4	0
9	587	0	10000	4	1	0	4	0
11	588	0	10000	4	1	0	4	0
20	589	0	10000	4	1	0	4	0
32	590	0	10000	4	1	0	4	0
41	591	0	10000	4	1	0	4	0
47	591	0	10000	4	1	0	4	0
52	592	0	10000	4	1	0	4	0
51	594	0	10000	4	1	0	4	0
55	595	0	10000	4	1	0	4	0
58	596	0	10000	4	1	0	4	0
60	597	0	10000	4	1	0	4	0
69	598	0	10000	4	1	0	4	0
78	599	0	10000	4	1	0	4	0
90	600	0	10000	4	1	0	4	0
98	601	0	10000	4	1	0	4	0
126	601	0	10000	4	1	0	4	0
145	602	0	10000	4	1	0	4	0
147	604	0	10000	4	1	0	4	0
168	605	0	10000	4	1	0	4	0
198	606	0	10000	4	1	0	4	0
232	607	0	10000	4	1	0	4	0
255	608	0	10000	4	1	0	4	0
254	609	0	10000	4	1	0	4	0
251	610	0	10000	4	1	0	4	0
245	611	0	10000	4	1	0	4	0
243	611	0	10000	4	1	0	4	0
245	612	0	10000	4	1	0	4	0
238	614	0	10000	4	1	0	4	0
239	615	0	10000	4	1	0	4	0
233	616	0	10000	4	1	0	4	0
232	617	0	10000	4	1	0	4	0
233	618	0	10000	4	1	0	4	0
229	619	0	10000	4	1	0	4	0
222	620	0	10000	4	1	0	4	0
214	621	0	10000	4	1	0	4	0
208	621	0	10000	4	1	0	4	0
206	622	0	10000	4	1	0	4	0
199	624	0	10000	4	1	0	4	0
197	625	0	10000	4	1	0	4	0
197	626	0	10000	4	1	0	4	0
194	627	0	10000	4	1	0	4	0
190	628	0	10000	4	1	0	4	0
186	629	0	10000	4	1	0	4	0
183	630	0	10000	4	1	0	4	0
180	631	0	10000	4	1	0	4	0
177	631	0	10000	4	1	0	4	0
176	632	0	10000	4	1	0	4	0
175	634	0	10000	4	1	0	4	0
171	635	0	10000	4	1	0	4	0
167	636	0	10000	4	1	0	4	0
164	637	0	10000	4	1	0	4	0
159	638	0	10000	4	1	0	4	0
153	639	0	10000	4	1	0	4	0
145	640	0	10000	4	1	0	4	0
139	641	0	10000	4	1	0	4	0
133	641	0	10000	4	1	0	4	0
128	642	0	10000	4	1	0	4	0
123	644	0	10000	4	1	0	4	0
118	645	0	10000	4	1	0	4	0
114	646	0	10000	4	1	0	4	0
112	647	0	10000	4	1	0	4	0
108	648	0	10000	4	1	0	4	0
106	649	0	10000	4	1	0	4	0
105	650	0	10000	4	1	0	4	0
101	651	0	10000	4	1	0	4	0
97	651	0	10000	4	1	0	4	0
94	652	0	10000	4	1	0	4	0
92	654	0	10000	4	1	0	4	0
92	655	0	10000	4	1	0	4	0
94	656	0	10000	4	1	0	4	0
98	657	0	10000	4	1	0	4	0
103	658	0	10000	4	1	0	4	0
107	659	0	10000	4	1	0	4	0
109	660	0	10000	4	1	0	4	0
112	661	0	10000	4	1	0	4	0
115	661	0	10000	4	1	0	4	0
118	662	0	10000	4	1	0	4	0
120	664	0	10000	4	1	0	4	0
121	665	0	10000	4	1	0	4	0
121	666	0	10000	4	1	0	4	0
120	667	0	10000	4	1	0	4	0
119	668	0	10000	4	1	0	4	0
119	669	0	10000	4	1	0	4	0
121	670	0	10000	4	1	0	4	0
120	671	0	10000	4	1	0	4	0
118	671	0	10000	4	1	0	4	0
117	672	0	10000	4	1	0	4	0
117	674	0	10000	4	1	0	4	0
117	675	0	10000	4	1	0	4	0
116	676	0	10000	4	1	0	4	0
115	677	0	10000	4	1	0	4	0
113	678	0	10000	4	1	0	4	0
110	679	0	10000	4	1	0	4	0
106	680	0	10000	4	1	0	4	0
104	681	0	10000	4	1	0	4	0
102	681	0	10000	4	1	0	4	0
100	682	0	10000	4	1	0	4	0
97	684	0	10000	4	1	0	4	0
93	685	0	10000	4	1	0	4	0
89	686	0	10000	4	1	0	4	0
85	687	0	10000	4	1	0	4	0
80	688	0	10000	4	1	0	4	0
77	689	0	10000	4	1	0	4	0
76	690	0	10000	4	1	0	4	0
72	691	0	10000	4	1	0	4	0
68	691	0	10000	4	1	0	4	0
65	692	0	10000	4	1	0	4	0
64	694	0	10000	4	1	0	4	0
63	695	0	10000	4	1	0	4	0
61	696	0	10000	4	1	0	4	0
61	697	0	10000	4	1	0	4	0
60	698	0	10000	4	1	0	4	0
58	699	0	10000	4	1	0	4	0
56	700	0	10000	4	1	0	4	0
55	701	0	10000	4	1	0	4	0
53	701	0	10000	4	1	0	4	0
52	702	0	10000	4	1	0	4	0
52	704	0	10000	4	1	0	4	0
54	705	0	10000	4	1	0	4	0
56	706	0	10000	4	1	0	4	0
55	707	0	10000	4	1	0	4	0
53	708	0	10000	4	1	0	4	0
53	709	0	10000	4	1	0	4	0
55	710	0	10000	4	1	0	4	0
54	711	0	10000	4	1	0	4	0
53	711	0	10000	4	1	0	4	0
51	712	0	10000	4	1	0	4	0
49	714	0	10000	4	1	0	4	0
48	715	0	10000	4	1	0	4	0
47	716	0	10000	4	1	0	4	0
49	717	0	10000	4	1	0	4	0
49	718	0	10000	4	1	0	4	0
47	719	0	10000	4	1	0	4	0
44	720	0	10000	4	1	0	4	0
44	721	0	10000	4	1	0	4	0
43	721	0	10000	4	1	0	4	0
43	722	0	10000	4	1	0	4	0
42	724	0	10000	4	1	0	4	0
43	725	0	10000	4	1	0	4	0
42	726	0	10000	4	1	0	4	0
40	727	0	10000	4	1	0	4	0
40	728	0	10000	4	1	0	4	0
41	729	0	10000	4	1	0	4	0
41	730	0	10000	4	1	0	4	0
39	731	0	10000	4	1	0	4	0
38	731	0	10000	4	1	0	4	0
37	732	0	10000	4	1	0	4	0
36	734	0	10000	4	1	0	4	0
35	735	0	10000	4	1	0	4	0
34	736	0	10000	4	1	0	4	0
33	737	0	10000	4	1	0	4	0
33	738	0	10000	4	1	0	4	0
32	739	0	10000	4	1	0	4	0
31	740	0	10000	4	1	0	4	0
32	741	0	10000	4	1	0	4	0
32	741	0	10000	4	1	0	4	0
32	742	0	10000	4	1	0	4	0
33	744	0	10000	4	1	0	4	0
33	745	0	10000	4	1	0	4	0
34	746	0	10000	4	1	0	4	0
33	747	0	10000	4	1	0	4	0
32	748	0	10000	4	1	0	4	0
33	749	0	10000	4	1	0	4	0
38	750	0	10000	4	1	0	4	0
39	751	0	10000	4	1	0	4	0
39	751	0	10000	4	1	0	4	0
39	752	0	10000	4	1	0	4	0
39	754	0	10000	4	1	0	4	0
38	755	0	10000	4	1	0	4	0
37	756	0	10000	4	1	0	4	0
37	757	0	10000	4	1	0	4	0
37	758	0	10000	4	1	0	4	0
35	759	0	10000	4	1	0	4	0
33	760	0	10000	4	1	0	4	0
35	761	0	10000	4	1	0	4	0
38	761	0	10000	4	1	0	4	0
38	762	0	10000	4	1	0	4	0
36	764	0	10000	4	1	0	4	0
36	765	0	10000	4	1	0	4	0
33	766	0	10000	4	1	0	4	0
32	767	0	10000	4	1	0	4	0
31	768	0	10000	4	1	0	4	0
30	769	0	10000	4	1	0	4	0
31	770	0	10000	4	1	0	4	0
29	771	0	10000	4	1	0	4	0
28	771	0	10000	4	1	0	4	0
28	772	0	10000	4	1	0	4	0
27	774	0	10000	4	1	0	4	0
26	775	0	10000	4	1	0	4	0
25	776	0	10000	4	1	0	4	0
25	777	0	10000	4	1	0	4	0
25	778	0	10000	4	1	0	4	0
24	779	0	10000	4	1	0	4	0
22	780	0	10000	4	1	0	4	0
24	781	0	10000	4	1	0	4	0
28	781	0	10000	4	1	0	4	0
26	782	0	10000	4	1	0	4	0
25	784	0	10000	4	1	0	4	0
25	785	0	10000	4	1	0	4	0
24	786	0	10000	4	1	0	4	0
23	787	0	10000	4	1	0	4	0
24	788	0	10000	4	1	0	4	0
23	789	0	10000	4	1	0	4	0
24	790	0	10000	4	1	0	4	0
24	791	0	10000	4	1	0	4	0
22	791	0	10000	4	1	0	4	0
22	792	0	10000	4	1	0	4	0
22	794	0	10000	4	1	0	4	0
22	795	0	10000	4	1	0	4	0
22	796	0	10000	4	1	0	4	0
22	797	0	10000	4	1	0	4	0
22	798	0	10000	4	1	0	4	0
21	799	0	10000	4	1	0	4	0
20	800	0	10000	4	1	0	4	0
23	801	0	10000	4	1	0	4	0
27	801	0	10000	4	1	0	4	0
29	802	0	10000	4	1	0	4	0
27	804	0	10000	4	1	0	4	0
26	805	0	10000	4	1	0	4	0
25	806	0	10000	4	1	0	4	0
24	807	0	10000	4	1	0	4	0
24	808	0	10000	4	1	0	4	0
25	809	0	10000	4	1	0	4	0
28	810	0	10000	4	1	0	4	0
26	811	0	10000	4	1	0	4	0
26	811	0	10000	4	1	0	4	0
26	812	0	10000	4	1	0	4	0
25	814	0	10000	4	1	0	4	0
25	815	0	10000	4	1	0	4	0
27	816	0	10000	4	1	0	4	0
27	817	0	10000	4	1	0	4	0
29	818	0	10000	4	1	0	4	0
31	819	0	10000	4	1	0	4	0
32	820	0	10000	4	1	0	4	0
32	821	0	10000	4	1	0	4	0
32	821	0	10000	4	1	0	4	0
34	822	0	10000	4	1	0	4	0
33	824	0	10000	4	1	0	4	0
32	825	0	10000	4	1	0	4	0
32	826	0	10000	4	1	0	4	0
31	827	0	10000	4	1	0	4	0
30	828	0	10000	4	1	0	4	0
30	829	0	10000	4	1	0	4	0
30	830	0	10000	4	1	0	4	0
30	831	0	10000	4	1	0	4	0
30	831	0	10000	4	1	0	4	0
29	832	0	10000	4	1	0	4	0
27	834	0	10000	4	1	0	4	0
27	835	0	10000	4	1	0	4	0
26	836	0	10000	4	1	0	4	0
26	837	0	10000	4	1	0	4	0
26	838	0	10000	4	1	0	4	0
24	839	0	10000	4	1	0	4	0
22	840	0	10000	4	1	0	4	0
22	841	0	10000	4	1	0	4	0
24	841	0	10000	4	1	0	4	0
24	842	0	10000	4	1	0	4	0
25	844	0	10000	4	1	0	4	0
25	845	0	10000	4	1	0	4	0
25	846	0	10000	4	1	0	4	0
24	847	0	10000	4	1	0	4	0
23	848	0	10000	4	1	0	4	0
23	849	0	10000	4	1	0	4	0
25	850	0	10000	4	1	0	4	0
25	851	0	10000	4	1	0	4	0
25	851	0	10000	4	1	0	4	0
25	852	0	10000	4	1	0	4	0
26	854	0	10000	4	1	0	4	0
28	855	0	10000	4	1	0	4	0
29	856	0	10000	4	1	0	4	0
28	857	0	10000	4	1	0	4	0
29	858	0	10000	4	1	0	4	0
29	859	0	10000	4	1	0	4	0
27	860	0	10000	4	1	0	4	0
27	861	0	10000	4	1	0	4	0
28	861	0	10000	4	1	0	4	0
26	862	0	10000	4	1	0	4	0
26	864	0	10000	4	1	0	4	0
25	865	0	10000	4	1	0	4	0
24	866	0	10000	4	1	0	4	0
23	867	0	10000	4	1	0	4	0
23	868	0	10000	4	1	0	4	0
24	869	0	10000	4	1	0	4	0
29	870	0	10000	4	1	0	4	0
28	871	0	10000	4	1	0	4	0
29	871	0	10000	4	1	0	4	0
30	872	0	10000	4	1	0	4	0
29	874	0	10000	4	1	0	4	0
29	875	0	10000	4	1	0	4	0
30	876	0	10000	4	1	0	4	0
30	877	0	10000	4	1	0	4	0
31	878	0	10000	4	1	0	4	0
30	879	0	10000	4	1	0	4	0
28	880	0	10000	4	1	0	4	0
27	881	0	10000	4	1	0	4	0
27	881	0	10000	4	1	0	4	0
26	882	0	10000	4	1	0	4	0
25	884	0	10000	4	1	0	4	0
25	885	0	10000	4	1	0	4	0
24	886	0	10000	4	1	0	4	0
23	887	0	10000	4	1	0	4	0
22	888	0	10000	4	1	0	4	0
21	889	0	10000	4	1	0	4	0
23	890	0	10000	4	1	0	4	0
22	891	0	10000	4	1	0	4	0
21	891	0	10000	4	1	0	4	0
21	892	0	10000	4	1	0	4	0
21	894	0	10000	4	1	0	4	0
21	895	0	10000	4	1	0	4	0
20	896	0	10000	4	1	0	4	0
20	897	0	10000	4	1	0	4	0
20	898	0	10000	4	1	0	4	0
18	899	0	10000	4	1	0	4	0
16	900	0	10000	4	1	0	4	0
17	901	0	10000	4	1	0	4	0
16	901	0	10000	4	1	0	4	0
16	902	0	10000	4	1	0	4	0
16	904	0	10000	4	1	0	4	0
17	905	0	10000	4	1	0	4	0
17	906	0	10000	4	1	0	4	0
17	907	0	10000	4	1	0	4	0
18	908	0	10000	4	1	0	4	0
18	909	0	10000	4	1	0	4	0
19	910	0	10000	4	1	0	4	0
19	911	0	10000	4	1	0	4	0
18	911	0	10000	4	1	0	4	0
17	912	0	10000	4	1	0	4	0
17	914	0	10000	4	1	0	4	0
16	915	0	10000	4	1	0	4	0
16	916	0	10000	4	1	0	4	0
18	917	0	10000	4	1	0	4	0
19	918	0	10000	4	1	0	4	0
19	919	0	10000	4	1	0	4	0
17	920	0	10000	4	1	0	4	0
18	921	0	10000	4	1	0	4	0
19	921	0	10000	4	1	0	4	0
19	922	0	10000	4	1	0	4	0
19	924	0	10000	4	1	0	4	0
20	925	0	10000	4	1	0	4	0
20	926	0	10000	4	1	0	4	0
19	927	0	10000	4	1	0	4	0
20	928	0	10000	4	1	0	4	0
20	929	0	10000	4	1	0	4	0
20	930	0	10000	4	1	0	4	0
20	931	0	10000	4	1	0	4	0
21	931	0	10000	4	1	0	4	0
23	932	0	10000	4	1	0	4	0
23	934	0	10000	4	1	0	4	0
23	935	0	10000	4	1	0	4	0
23	936	0	10000	4	1	0	4	0
25	937	0	10000	4	1	0	4	0
28	938	0	10000	4	1	0	4	0
29	939	0	10000	4	1	0	4	0
26	940	0	10000	4	1	0	4	0
26	941	0	10000	4	1	0	4	0
25	941	0	10000	4	1	0	4	0
25	942	0	10000	4	1	0	4	0
24	944	0	10000	4	1	0	4	0
23	945	0	10000	4	1	0	4	0
23	946	0	10000	4	1	0	4	0
21	947	0	10000	4	1	0	4	0
20	948	0	10000	4	1	0	4	0
20	949	0	10000	4	1	0	4	0
20	950	0	10000	4	1	0	4	0
20	951	0	10000	4	1	0	4	0
19	951	0	10000	4	1	0	4	0
18	952	0	10000	4	1	0	4	0
18	954	0	10000	4	1	0	4	0
17	955	0	10000	4	1	0	4	0
16	956	0	10000	4	1	0	4	0
16	957	0	10000	4	1	0	4	0
17	958	0	10000	4	1	0	4	0
15	959	0	10000	4	1	0	4	0
13	960	0	10000	4	1	0	4	0
14	961	0	10000	4	1	0	4	0
14	961	0	10000	4	1	0	4	0
14	962	0	10000	4	1	0	4	0
14	964	0	10000	4	1	0	4	0
13	965	0	10000	4	1	0	4	0
12	966	0	10000	4	1	0	4	0
13	967	0	10000	4	1	0	4	0
11	968	0	10000	4	1	0	4	0
11	969	0	10000	4	1	0	4	0
13	970	0	10000	4	1	0	4	0
12	971	0	10000	4	1	0	4	0
11	971	0	10000	4	1	0	4	0
10	972	0	10000	4	1	0	4	0
11	974	0	10000	4	1	0	4	0
10	975	0	10000	4	1	0	4	0
10	976	0	10000	4	1	0	4	0
11	977	0	10000	4	1	0	4	0
12	978	0	10000	4	1	0	4	0
12	979	0	10000	4	1	0	4	0
10	980	0	10000	4	1	0	4	0
10	981	0	10000	4	1	0	4	0
10	981	0	10000	4	1	0	4	0
11	982	0	10000	4	1	0	4	0
11	984	0	10000	4	1	0	4	0
11	985	0	10000	4	1	0	4	0
11	986	0	10000	4	1	0	4	0
10	987	0	10000	4	1	0	4	0
9	988	0	10000	4	1	0	4	0
9	989	0	10000	4	1	0	4	0
11	990	0	10000	4	1	0	4	0
10	991	0	10000	4	1	0	4	0
12	991	0	10000	4	1	0	4	0
13	992	0	10000	4	1	0	4	0
13	994	0	10000	4	1	0	4	0
12	995	0	10000	4	1	0	4	0
12	996	0	10000	4	1	0	4	0
13	997	0	10000	4	1	0	4	0
15	998	0	10000	4	1	0	4	0
16	999	0	10000	4	1	0	4	0
14	1000	0	10000	4	1	0	4	0
15	1001	0	10000	4	1	0	4	0
38	1	0	10000	5	1	0	5	0
41	2	0	10000	5	1	0	5	0
41	3	0	10000	5	1	0	5	0
40	4	0	10000	5	1	0	5	0
39	5	0	10000	5	1	0	5	0
39	6	0	10000	5	1	0	5	0
37	7	0	10000	5	1	0	5	0
36	8	0	10000	5	1	0	5	0
36	9	0	10000	5	1	0	5	0
35	10	0	10000	5	1	0	5	0
35	11	0	10000	5	1	0	5	0
32	12	0	10000	5	1	0	5	0
31	13	0	10000	5	1	0	5	0
30	14	0	10000	5	1	0	5	0
29	15	0	10000	5	1	0	5	0
29	16	0	10000	5	1	0	5	0
29	17	0	10000	5	1	0	5	0
30	18	0	10000	5	1	0	5	0
30	19	0	10000	5	1	0	5	0
31	20	0	10000	5	1	0	5	0
30	21	0	10000	5	1	0	5	0
33	22	0	10000	5	1	0	5	0
33	23	0	10000	5	1	0	5	0
32	24	0	10000	5	1	0	5	0
31	25	0	10000	5	1	0	5	0
31	26	0	10000	5	1	0	5	0
30	27	0	10000	5	1	0	5	0
29	28	0	10000	5	1	0	5	0
28	29	0	10000	5	1	0	5	0
27	30	0	10000	5	1	0	5	0
27	31	0	10000	5	1	0	5	0
24	32	0	10000	5	1	0	5	0
23	33	0	10000	5	1	0	5	0
23	34	0	10000	5	1	0	5	0
22	35	0	10000	5	1	0	5	0
22	36	0	10000	5	1	0	5	0
21	37	0	10000	5	1	0	5	0
21	38	0	10000	5	1	0	5	0
20	39	0	10000	5	1	0	5	0
20	40	0	10000	5	1	0	5	0
19	41	0	10000	5	1	0	5	0
20	42	0	10000	5	1	0	5	0
22	43	0	10000	5	1	0	5	0
22	44	0	10000	5	1	0	5	0
23	45	0	10000	5	1	0	5	0
22	46	0	10000	5	1	0	5	0
22	47	0	10000	5	1	0	5	0
22	48	0	10000	5	1	0	5	0
22	49	0	10000	5	1	0	5	0
21	50	0	10000	5	1	0	5	0
22	51	0	10000	5	1	0	5	0
20	52	0	10000	5	1	0	5	0
19	53	0	10000	5	1	0	5	0
19	54	0	10000	5	1	0	5	0
18	55	0	10000	5	1	0	5	0
18	56	0	10000	5	1	0	5	0
18	57	0	10000	5	1	0	5	0
18	58	0	10000	5	1	0	5	0
18	59	0	10000	5	1	0	5	0
19	60	0	10000	5	1	0	5	0
19	61	0	10000	5	1	0	5	0
21	62	0	10000	5	1	0	5	0
23	63	0	10000	5	1	0	5	0
22	64	0	10000	5	1	0	5	0
22	65	0	10000	5	1	0	5	0
22	66	0	10000	5	1	0	5	0
21	67	0	10000	5	1	0	5	0
20	68	0	10000	5	1	0	5	0
20	69	0	10000	5	1	0	5	0
20	70	0	10000	5	1	0	5	0
20	71	0	10000	5	1	0	5	0
17	72	0	10000	5	1	0	5	0
16	73	0	10000	5	1	0	5	0
17	74	0	10000	5	1	0	5	0
16	75	0	10000	5	1	0	5	0
16	76	0	10000	5	1	0	5	0
15	77	0	10000	5	1	0	5	0
15	78	0	10000	5	1	0	5	0
14	79	0	10000	5	1	0	5	0
14	80	0	10000	5	1	0	5	0
14	81	0	10000	5	1	0	5	0
16	82	0	10000	5	1	0	5	0
15	83	0	10000	5	1	0	5	0
15	84	0	10000	5	1	0	5	0
15	85	0	10000	5	1	0	5	0
14	86	0	10000	5	1	0	5	0
13	87	0	10000	5	1	0	5	0
13	88	0	10000	5	1	0	5	0
13	89	0	10000	5	1	0	5	0
14	90	0	10000	5	1	0	5	0
14	91	0	10000	5	1	0	5	0
12	92	0	10000	5	1	0	5	0
12	93	0	10000	5	1	0	5	0
12	94	0	10000	5	1	0	5	0
12	95	0	10000	5	1	0	5	0
12	96	0	10000	5	1	0	5	0
12	97	0	10000	5	1	0	5	0
13	98	0	10000	5	1	0	5	0
12	99	0	10000	5	1	0	5	0
11	100	0	10000	5	1	0	5	0
10	101	0	10000	5	1	0	5	0
12	102	0	10000	5	1	0	5	0
13	103	0	10000	5	1	0	5	0
14	104	0	10000	5	1	0	5	0
13	105	0	10000	5	1	0	5	0
12	106	0	10000	5	1	0	5	0
13	107	0	10000	5	1	0	5	0
13	108	0	10000	5	1	0	5	0
15	109	0	10000	5	1	0	5	0
17	110	0	10000	5	1	0	5	0
17	111	0	10000	5	1	0	5	0
15	112	0	10000	5	1	0	5	0
14	113	0	10000	5	1	0	5	0
14	114	0	10000	5	1	0	5	0
14	115	0	10000	5	1	0	5	0
14	116	0	10000	5	1	0	5	0
13	117	0	10000	5	1	0	5	0
13	118	0	10000	5	1	0	5	0
13	119	0	10000	5	1	0	5	0
12	120	0	10000	5	1	0	5	0
11	121	0	10000	5	1	0	5	0
13	122	0	10000	5	1	0	5	0
12	123	0	10000	5	1	0	5	0
13	124	0	10000	5	1	0	5	0
13	125	0	10000	5	1	0	5	0
13	126	0	10000	5	1	0	5	0
13	127	0	10000	5	1	0	5	0
13	128	0	10000	5	1	0	5	0
13	129	0	10000	5	1	0	5	0
13	130	0	10000	5	1	0	5	0
14	131	0	10000	5	1	0	5	0
11	132	0	10000	5	1	0	5	0
11	133	0	10000	5	1	0	5	0
13	134	0	10000	5	1	0	5	0
12	135	0	10000	5	1	0	5	0
12	136	0	10000	5	1	0	5	0
12	137	0	10000	5	1	0	5	0
11	138	0	10000	5	1	0	5	0
11	139	0	10000	5	1	0	5	0
11	140	0	10000	5	1	0	5	0
10	141	0	10000	5	1	0	5	0
12	142	0	10000	5	1	0	5	0
12	143	0	10000	5	1	0	5	0
11	144	0	10000	5	1	0	5	0
11	145	0	10000	5	1	0	5	0
10	146	0	10000	5	1	0	5	0
10	147	0	10000	5	1	0	5	0
11	148	0	10000	5	1	0	5	0
10	149	0	10000	5	1	0	5	0
10	150	0	10000	5	1	0	5	0
11	151	0	10000	5	1	0	5	0
8	152	0	10000	5	1	0	5	0
8	153	0	10000	5	1	0	5	0
9	154	0	10000	5	1	0	5	0
8	155	0	10000	5	1	0	5	0
8	156	0	10000	5	1	0	5	0
9	157	0	10000	5	1	0	5	0
8	158	0	10000	5	1	0	5	0
8	159	0	10000	5	1	0	5	0
9	160	0	10000	5	1	0	5	0
8	161	0	10000	5	1	0	5	0
10	162	0	10000	5	1	0	5	0
10	163	0	10000	5	1	0	5	0
10	164	0	10000	5	1	0	5	0
10	165	0	10000	5	1	0	5	0
10	166	0	10000	5	1	0	5	0
9	167	0	10000	5	1	0	5	0
8	168	0	10000	5	1	0	5	0
9	169	0	10000	5	1	0	5	0
9	170	0	10000	5	1	0	5	0
10	171	0	10000	5	1	0	5	0
9	172	0	10000	5	1	0	5	0
9	173	0	10000	5	1	0	5	0
10	174	0	10000	5	1	0	5	0
12	175	0	10000	5	1	0	5	0
11	176	0	10000	5	1	0	5	0
11	177	0	10000	5	1	0	5	0
11	178	0	10000	5	1	0	5	0
13	179	0	10000	5	1	0	5	0
13	180	0	10000	5	1	0	5	0
12	181	0	10000	5	1	0	5	0
14	182	0	10000	5	1	0	5	0
14	183	0	10000	5	1	0	5	0
13	184	0	10000	5	1	0	5	0
13	185	0	10000	5	1	0	5	0
12	186	0	10000	5	1	0	5	0
11	187	0	10000	5	1	0	5	0
11	188	0	10000	5	1	0	5	0
12	189	0	10000	5	1	0	5	0
12	190	0	10000	5	1	0	5	0
13	191	0	10000	5	1	0	5	0
11	192	0	10000	5	1	0	5	0
10	193	0	10000	5	1	0	5	0
12	194	0	10000	5	1	0	5	0
13	195	0	10000	5	1	0	5	0
12	196	0	10000	5	1	0	5	0
13	197	0	10000	5	1	0	5	0
13	198	0	10000	5	1	0	5	0
11	199	0	10000	5	1	0	5	0
11	200	0	10000	5	1	0	5	0
11	201	0	10000	5	1	0	5	0
13	202	0	10000	5	1	0	5	0
13	203	0	10000	5	1	0	5	0
13	204	0	10000	5	1	0	5	0
12	205	0	10000	5	1	0	5	0
13	206	0	10000	5	1	0	5	0
14	207	0	10000	5	1	0	5	0
15	208	0	10000	5	1	0	5	0
15	209	0	10000	5	1	0	5	0
15	210	0	10000	5	1	0	5	0
15	211	0	10000	5	1	0	5	0
13	212	0	10000	5	1	0	5	0
13	213	0	10000	5	1	0	5	0
13	214	0	10000	5	1	0	5	0
13	215	0	10000	5	1	0	5	0
12	216	0	10000	5	1	0	5	0
12	217	0	10000	5	1	0	5	0
12	218	0	10000	5	1	0	5	0
11	219	0	10000	5	1	0	5	0
11	220	0	10000	5	1	0	5	0
10	221	0	10000	5	1	0	5	0
12	222	0	10000	5	1	0	5	0
13	223	0	10000	5	1	0	5	0
13	224	0	10000	5	1	0	5	0
12	225	0	10000	5	1	0	5	0
12	226	0	10000	5	1	0	5	0
12	227	0	10000	5	1	0	5	0
12	228	0	10000	5	1	0	5	0
12	229	0	10000	5	1	0	5	0
13	230	0	10000	5	1	0	5	0
13	231	0	10000	5	1	0	5	0
11	232	0	10000	5	1	0	5	0
11	233	0	10000	5	1	0	5	0
11	234	0	10000	5	1	0	5	0
10	235	0	10000	5	1	0	5	0
11	236	0	10000	5	1	0	5	0
10	237	0	10000	5	1	0	5	0
9	238	0	10000	5	1	0	5	0
10	239	0	10000	5	1	0	5	0
9	240	0	10000	5	1	0	5	0
8	241	0	10000	5	1	0	5	0
10	242	0	10000	5	1	0	5	0
10	243	0	10000	5	1	0	5	0
9	244	0	10000	5	1	0	5	0
9	245	0	10000	5	1	0	5	0
9	246	0	10000	5	1	0	5	0
9	247	0	10000	5	1	0	5	0
8	248	0	10000	5	1	0	5	0
8	249	0	10000	5	1	0	5	0
9	250	0	10000	5	1	0	5	0
11	251	0	10000	5	1	0	5	0
9	252	0	10000	5	1	0	5	0
9	253	0	10000	5	1	0	5	0
11	254	0	10000	5	1	0	5	0
11	255	0	10000	5	1	0	5	0
11	256	0	10000	5	1	0	5	0
11	257	0	10000	5	1	0	5	0
11	258	0	10000	5	1	0	5	0
10	259	0	10000	5	1	0	5	0
10	260	0	10000	5	1	0	5	0
10	261	0	10000	5	1	0	5	0
11	262	0	10000	5	1	0	5	0
12	263	0	10000	5	1	0	5	0
11	264	0	10000	5	1	0	5	0
11	265	0	10000	5	1	0	5	0
11	266	0	10000	5	1	0	5	0
11	267	0	10000	5	1	0	5	0
10	268	0	10000	5	1	0	5	0
11	269	0	10000	5	1	0	5	0
12	270	0	10000	5	1	0	5	0
11	271	0	10000	5	1	0	5	0
9	272	0	10000	5	1	0	5	0
9	273	0	10000	5	1	0	5	0
9	274	0	10000	5	1	0	5	0
9	275	0	10000	5	1	0	5	0
9	276	0	10000	5	1	0	5	0
10	277	0	10000	5	1	0	5	0
10	278	0	10000	5	1	0	5	0
11	279	0	10000	5	1	0	5	0
12	280	0	10000	5	1	0	5	0
10	281	0	10000	5	1	0	5	0
12	282	0	10000	5	1	0	5	0
12	283	0	10000	5	1	0	5	0
11	284	0	10000	5	1	0	5	0
10	285	0	10000	5	1	0	5	0
11	286	0	10000	5	1	0	5	0
10	287	0	10000	5	1	0	5	0
10	288	0	10000	5	1	0	5	0
11	289	0	10000	5	1	0	5	0
11	290	0	10000	5	1	0	5	0
11	291	0	10000	5	1	0	5	0
9	292	0	10000	5	1	0	5	0
8	293	0	10000	5	1	0	5	0
10	294	0	10000	5	1	0	5	0
10	295	0	10000	5	1	0	5	0
10	296	0	10000	5	1	0	5	0
11	297	0	10000	5	1	0	5	0
11	298	0	10000	5	1	0	5	0
10	299	0	10000	5	1	0	5	0
9	300	0	10000	5	1	0	5	0
9	301	0	10000	5	1	0	5	0
10	302	0	10000	5	1	0	5	0
11	303	0	10000	5	1	0	5	0
10	304	0	10000	5	1	0	5	0
10	305	0	10000	5	1	0	5	0
9	306	0	10000	5	1	0	5	0
10	307	0	10000	5	1	0	5	0
9	308	0	10000	5	1	0	5	0
9	309	0	10000	5	1	0	5	0
9	310	0	10000	5	1	0	5	0
10	311	0	10000	5	1	0	5	0
8	312	0	10000	5	1	0	5	0
9	313	0	10000	5	1	0	5	0
10	314	0	10000	5	1	0	5	0
11	315	0	10000	5	1	0	5	0
11	316	0	10000	5	1	0	5	0
11	317	0	10000	5	1	0	5	0
11	318	0	10000	5	1	0	5	0
11	319	0	10000	5	1	0	5	0
11	320	0	10000	5	1	0	5	0
11	321	0	10000	5	1	0	5	0
12	322	0	10000	5	1	0	5	0
12	323	0	10000	5	1	0	5	0
12	324	0	10000	5	1	0	5	0
11	325	0	10000	5	1	0	5	0
10	326	0	10000	5	1	0	5	0
11	327	0	10000	5	1	0	5	0
9	328	0	10000	5	1	0	5	0
10	329	0	10000	5	1	0	5	0
11	330	0	10000	5	1	0	5	0
10	331	0	10000	5	1	0	5	0
9	332	0	10000	5	1	0	5	0
8	333	0	10000	5	1	0	5	0
9	334	0	10000	5	1	0	5	0
9	335	0	10000	5	1	0	5	0
9	336	0	10000	5	1	0	5	0
9	337	0	10000	5	1	0	5	0
8	338	0	10000	5	1	0	5	0
9	339	0	10000	5	1	0	5	0
9	340	0	10000	5	1	0	5	0
10	341	0	10000	5	1	0	5	0
11	342	0	10000	5	1	0	5	0
11	343	0	10000	5	1	0	5	0
12	344	0	10000	5	1	0	5	0
12	345	0	10000	5	1	0	5	0
12	346	0	10000	5	1	0	5	0
11	347	0	10000	5	1	0	5	0
10	348	0	10000	5	1	0	5	0
12	349	0	10000	5	1	0	5	0
12	350	0	10000	5	1	0	5	0
12	351	0	10000	5	1	0	5	0
10	352	0	10000	5	1	0	5	0
9	353	0	10000	5	1	0	5	0
10	354	0	10000	5	1	0	5	0
10	355	0	10000	5	1	0	5	0
10	356	0	10000	5	1	0	5	0
10	357	0	10000	5	1	0	5	0
10	358	0	10000	5	1	0	5	0
10	359	0	10000	5	1	0	5	0
10	360	0	10000	5	1	0	5	0
9	361	0	10000	5	1	0	5	0
11	362	0	10000	5	1	0	5	0
11	363	0	10000	5	1	0	5	0
10	364	0	10000	5	1	0	5	0
11	365	0	10000	5	1	0	5	0
9	366	0	10000	5	1	0	5	0
10	367	0	10000	5	1	0	5	0
10	368	0	10000	5	1	0	5	0
9	369	0	10000	5	1	0	5	0
9	370	0	10000	5	1	0	5	0
10	371	0	10000	5	1	0	5	0
8	372	0	10000	5	1	0	5	0
7	373	0	10000	5	1	0	5	0
8	374	0	10000	5	1	0	5	0
8	375	0	10000	5	1	0	5	0
8	376	0	10000	5	1	0	5	0
9	377	0	10000	5	1	0	5	0
9	378	0	10000	5	1	0	5	0
9	379	0	10000	5	1	0	5	0
8	380	0	10000	5	1	0	5	0
8	381	0	10000	5	1	0	5	0
9	382	0	10000	5	1	0	5	0
10	383	0	10000	5	1	0	5	0
9	384	0	10000	5	1	0	5	0
9	385	0	10000	5	1	0	5	0
9	386	0	10000	5	1	0	5	0
8	387	0	10000	5	1	0	5	0
8	388	0	10000	5	1	0	5	0
8	389	0	10000	5	1	0	5	0
9	390	0	10000	5	1	0	5	0
9	391	0	10000	5	1	0	5	0
8	392	0	10000	5	1	0	5	0
7	393	0	10000	5	1	0	5	0
7	394	0	10000	5	1	0	5	0
7	395	0	10000	5	1	0	5	0
7	396	0	10000	5	1	0	5	0
7	397	0	10000	5	1	0	5	0
8	398	0	10000	5	1	0	5	0
8	399	0	10000	5	1	0	5	0
8	400	0	10000	5	1	0	5	0
8	401	0	10000	5	1	0	5	0
9	402	0	10000	5	1	0	5	0
10	403	0	10000	5	1	0	5	0
9	404	0	10000	5	1	0	5	0
9	405	0	10000	5	1	0	5	0
9	406	0	10000	5	1	0	5	0
9	407	0	10000	5	1	0	5	0
8	408	0	10000	5	1	0	5	0
10	409	0	10000	5	1	0	5	0
10	410	0	10000	5	1	0	5	0
10	411	0	10000	5	1	0	5	0
9	412	0	10000	5	1	0	5	0
8	413	0	10000	5	1	0	5	0
8	414	0	10000	5	1	0	5	0
8	415	0	10000	5	1	0	5	0
8	416	0	10000	5	1	0	5	0
8	417	0	10000	5	1	0	5	0
9	418	0	10000	5	1	0	5	0
8	419	0	10000	5	1	0	5	0
8	420	0	10000	5	1	0	5	0
7	421	0	10000	5	1	0	5	0
8	422	0	10000	5	1	0	5	0
9	423	0	10000	5	1	0	5	0
8	424	0	10000	5	1	0	5	0
9	425	0	10000	5	1	0	5	0
10	426	0	10000	5	1	0	5	0
10	427	0	10000	5	1	0	5	0
10	428	0	10000	5	1	0	5	0
11	429	0	10000	5	1	0	5	0
10	430	0	10000	5	1	0	5	0
11	431	0	10000	5	1	0	5	0
10	432	0	10000	5	1	0	5	0
10	433	0	10000	5	1	0	5	0
10	434	0	10000	5	1	0	5	0
12	435	0	10000	5	1	0	5	0
13	436	0	10000	5	1	0	5	0
13	437	0	10000	5	1	0	5	0
13	438	0	10000	5	1	0	5	0
13	439	0	10000	5	1	0	5	0
12	440	0	10000	5	1	0	5	0
11	441	0	10000	5	1	0	5	0
13	442	0	10000	5	1	0	5	0
13	443	0	10000	5	1	0	5	0
13	444	0	10000	5	1	0	5	0
13	445	0	10000	5	1	0	5	0
13	446	0	10000	5	1	0	5	0
12	447	0	10000	5	1	0	5	0
12	448	0	10000	5	1	0	5	0
12	449	0	10000	5	1	0	5	0
15	450	0	10000	5	1	0	5	0
18	451	0	10000	5	1	0	5	0
20	452	0	10000	5	1	0	5	0
21	453	0	10000	5	1	0	5	0
21	454	0	10000	5	1	0	5	0
21	455	0	10000	5	1	0	5	0
21	456	0	10000	5	1	0	5	0
23	457	0	10000	5	1	0	5	0
27	458	0	10000	5	1	0	5	0
30	459	0	10000	5	1	0	5	0
30	460	0	10000	5	1	0	5	0
29	461	0	10000	5	1	0	5	0
30	462	0	10000	5	1	0	5	0
30	463	0	10000	5	1	0	5	0
31	464	0	10000	5	1	0	5	0
33	465	0	10000	5	1	0	5	0
35	466	0	10000	5	1	0	5	0
40	467	0	10000	5	1	0	5	0
44	468	0	10000	5	1	0	5	0
47	469	0	10000	5	1	0	5	0
51	470	0	10000	5	1	0	5	0
56	471	0	10000	5	1	0	5	0
60	472	0	10000	5	1	0	5	0
65	473	0	10000	5	1	0	5	0
68	474	0	10000	5	1	0	5	0
69	475	0	10000	5	1	0	5	0
71	476	0	10000	5	1	0	5	0
74	477	0	10000	5	1	0	5	0
75	478	0	10000	5	1	0	5	0
76	479	0	10000	5	1	0	5	0
76	480	0	10000	5	1	0	5	0
73	481	0	10000	5	1	0	5	0
72	482	0	10000	5	1	0	5	0
69	483	0	10000	5	1	0	5	0
68	484	0	10000	5	1	0	5	0
67	485	0	10000	5	1	0	5	0
67	486	0	10000	5	1	0	5	0
66	487	0	10000	5	1	0	5	0
65	488	0	10000	5	1	0	5	0
62	489	0	10000	5	1	0	5	0
60	490	0	10000	5	1	0	5	0
58	491	0	10000	5	1	0	5	0
55	492	0	10000	5	1	0	5	0
55	493	0	10000	5	1	0	5	0
59	494	0	10000	5	1	0	5	0
59	495	0	10000	5	1	0	5	0
60	496	0	10000	5	1	0	5	0
62	497	0	10000	5	1	0	5	0
61	498	0	10000	5	1	0	5	0
61	499	0	10000	5	1	0	5	0
62	500	0	10000	5	1	0	5	0
62	501	0	10000	5	1	0	5	1
65	502	0	10000	5	1	0	5	1
67	503	0	10000	5	1	0	5	1
68	504	0	10000	5	1	0	5	1
68	505	0	10000	5	1	0	5	1
69	506	0	10000	5	1	0	5	1
71	507	0	10000	5	1	0	5	1
73	508	0	10000	5	1	0	5	1
73	509	0	10000	5	1	0	5	1
73	510	0	10000	5	1	0	5	1
75	511	0	10000	5	1	0	5	1
75	512	0	10000	5	1	0	5	1
77	513	0	10000	5	1	0	5	1
80	514	0	10000	5	1	0	5	1
82	515	0	10000	5	1	0	5	1
85	516	0	10000	5	1	0	5	1
86	517	0	10000	5	1	0	5	1
87	518	0	10000	5	1	0	5	1
86	519	0	10000	5	1	0	5	1
84	520	0	10000	5	1	0	5	1
83	521	0	10000	5	1	0	5	1
85	522	0	10000	5	1	0	5	1
85	523	0	10000	5	1	0	5	1
84	524	0	10000	5	1	0	5	1
83	525	0	10000	5	1	0	5	1
83	526	0	10000	5	1	0	5	1
81	527	0	10000	5	1	0	5	1
83	528	0	10000	5	1	0	5	1
84	529	0	10000	5	1	0	5	1
84	530	0	10000	5	1	0	5	1
82	531	0	10000	5	1	0	5	1
77	532	0	10000	5	1	0	5	1
74	533	0	10000	5	1	0	5	1
72	534	0	10000	5	1	0	5	1
70	535	0	10000	5	1	0	5	1
67	536	0	10000	5	1	0	5	1
65	537	0	10000	5	1	0	5	1
63	538	0	10000	5	1	0	5	1
61	539	0	10000	5	1	0	5	1
59	540	0	10000	5	1	0	5	1
58	541	0	10000	5	1	0	5	1
58	542	0	10000	5	1	0	5	1
56	543	0	10000	5	1	0	5	1
54	544	0	10000	5	1	0	5	1
52	545	0	10000	5	1	0	5	1
49	546	0	10000	5	1	0	5	1
48	547	0	10000	5	1	0	5	1
45	548	0	10000	5	1	0	5	1
44	549	0	10000	5	1	0	5	1
44	550	0	10000	5	1	0	5	1
44	551	0	10000	5	1	0	5	0
43	552	0	10000	5	1	0	5	0
41	553	0	10000	5	1	0	5	0
40	554	0	10000	5	1	0	5	0
39	555	0	10000	5	1	0	5	0
38	556	0	10000	5	1	0	5	0
36	557	0	10000	5	1	0	5	0
34	558	0	10000	5	1	0	5	0
33	559	0	10000	5	1	0	5	0
31	560	0	10000	5	1	0	5	0
30	561	0	10000	5	1	0	5	0
31	562	0	10000	5	1	0	5	0
31	563	0	10000	5	1	0	5	0
31	564	0	10000	5	1	0	5	0
29	565	0	10000	5	1	0	5	0
28	566	0	10000	5	1	0	5	0
28	567	0	10000	5	1	0	5	0
26	568	0	10000	5	1	0	5	0
26	569	0	10000	5	1	0	5	0
27	570	0	10000	5	1	0	5	0
28	571	0	10000	5	1	0	5	0
25	572	0	10000	5	1	0	5	0
25	573	0	10000	5	1	0	5	0
25	574	0	10000	5	1	0	5	0
25	575	0	10000	5	1	0	5	0
24	576	0	10000	5	1	0	5	0
24	577	0	10000	5	1	0	5	0
23	578	0	10000	5	1	0	5	0
24	579	0	10000	5	1	0	5	0
24	580	0	10000	5	1	0	5	0
24	581	0	10000	5	1	0	5	0
29	582	0	10000	5	1	0	5	0
32	583	0	10000	5	1	0	5	0
45	584	0	10000	5	1	0	5	0
60	585	0	10000	5	1	0	5	0
64	586	0	10000	5	1	0	5	0
63	587	0	10000	5	1	0	5	0
63	588	0	10000	5	1	0	5	0
75	589	0	10000	5	1	0	5	0
96	590	0	10000	5	1	0	5	0
100	591	0	10000	5	1	0	5	0
99	592	0	10000	5	1	0	5	0
116	593	0	10000	5	1	0	5	0
125	594	0	10000	5	1	0	5	0
155	595	0	10000	5	1	0	5	0
165	596	0	10000	5	1	0	5	0
164	597	0	10000	5	1	0	5	0
176	598	0	10000	5	1	0	5	0
219	599	0	10000	5	1	0	5	0
266	600	0	10000	5	1	0	5	0
276	601	0	10000	5	1	0	5	0
281	602	0	10000	5	1	0	5	0
314	603	0	10000	5	1	0	5	0
338	604	0	10000	5	1	0	5	0
335	605	0	10000	5	1	0	5	0
330	606	0	10000	5	1	0	5	0
321	607	0	10000	5	1	0	5	0
313	608	0	10000	5	1	0	5	0
340	609	0	10000	5	1	0	5	0
342	610	0	10000	5	1	0	5	0
368	611	0	10000	5	1	0	5	0
393	612	0	10000	5	1	0	5	0
402	613	0	10000	5	1	0	5	0
395	614	0	10000	5	1	0	5	0
380	615	0	10000	5	1	0	5	0
363	616	0	10000	5	1	0	5	0
348	617	0	10000	5	1	0	5	0
338	618	0	10000	5	1	0	5	0
347	619	0	10000	5	1	0	5	0
383	620	0	10000	5	1	0	5	0
438	621	0	10000	5	1	0	5	0
445	622	0	10000	5	1	0	5	0
439	623	0	10000	5	1	0	5	0
426	624	0	10000	5	1	0	5	0
427	625	0	10000	5	1	0	5	0
439	626	0	10000	5	1	0	5	0
447	627	0	10000	5	1	0	5	0
449	628	0	10000	5	1	0	5	0
442	629	0	10000	5	1	0	5	0
428	630	0	10000	5	1	0	5	0
409	631	0	10000	5	1	0	5	0
393	632	0	10000	5	1	0	5	0
379	633	0	10000	5	1	0	5	0
368	634	0	10000	5	1	0	5	0
359	635	0	10000	5	1	0	5	0
350	636	0	10000	5	1	0	5	0
341	637	0	10000	5	1	0	5	0
331	638	0	10000	5	1	0	5	0
321	639	0	10000	5	1	0	5	0
311	640	0	10000	5	1	0	5	0
301	641	0	10000	5	1	0	5	0
291	642	0	10000	5	1	0	5	0
282	643	0	10000	5	1	0	5	0
270	644	0	10000	5	1	0	5	0
259	645	0	10000	5	1	0	5	0
248	646	0	10000	5	1	0	5	0
236	647	0	10000	5	1	0	5	0
226	648	0	10000	5	1	0	5	0
218	649	0	10000	5	1	0	5	0
211	650	0	10000	5	1	0	5	0
204	651	0	10000	5	1	0	5	0
199	652	0	10000	5	1	0	5	0
194	653	0	10000	5	1	0	5	0
189	654	0	10000	5	1	0	5	0
188	655	0	10000	5	1	0	5	0
187	656	0	10000	5	1	0	5	0
185	657	0	10000	5	1	0	5	0
186	658	0	10000	5	1	0	5	0
186	659	0	10000	5	1	0	5	0
188	660	0	10000	5	1	0	5	0
188	661	0	10000	5	1	0	5	0
191	662	0	10000	5	1	0	5	0
194	663	0	10000	5	1	0	5	0
196	664	0	10000	5	1	0	5	0
197	665	0	10000	5	1	0	5	0
197	666	0	10000	5	1	0	5	0
196	667	0	10000	5	1	0	5	0
195	668	0	10000	5	1	0	5	0
195	669	0	10000	5	1	0	5	0
194	670	0	10000	5	1	0	5	0
195	671	0	10000	5	1	0	5	0
192	672	0	10000	5	1	0	5	0
187	673	0	10000	5	1	0	5	0
183	674	0	10000	5	1	0	5	0
179	675	0	10000	5	1	0	5	0
177	676	0	10000	5	1	0	5	0
173	677	0	10000	5	1	0	5	0
169	678	0	10000	5	1	0	5	0
165	679	0	10000	5	1	0	5	0
160	680	0	10000	5	1	0	5	0
155	681	0	10000	5	1	0	5	0
155	682	0	10000	5	1	0	5	0
153	683	0	10000	5	1	0	5	0
150	684	0	10000	5	1	0	5	0
147	685	0	10000	5	1	0	5	0
142	686	0	10000	5	1	0	5	0
137	687	0	10000	5	1	0	5	0
133	688	0	10000	5	1	0	5	0
127	689	0	10000	5	1	0	5	0
122	690	0	10000	5	1	0	5	0
118	691	0	10000	5	1	0	5	0
113	692	0	10000	5	1	0	5	0
107	693	0	10000	5	1	0	5	0
103	694	0	10000	5	1	0	5	0
98	695	0	10000	5	1	0	5	0
94	696	0	10000	5	1	0	5	0
90	697	0	10000	5	1	0	5	0
86	698	0	10000	5	1	0	5	0
82	699	0	10000	5	1	0	5	0
79	700	0	10000	5	1	0	5	0
75	701	0	10000	5	1	0	5	0
74	702	0	10000	5	1	0	5	0
72	703	0	10000	5	1	0	5	0
69	704	0	10000	5	1	0	5	0
66	705	0	10000	5	1	0	5	0
65	706	0	10000	5	1	0	5	0
64	707	0	10000	5	1	0	5	0
64	708	0	10000	5	1	0	5	0
64	709	0	10000	5	1	0	5	0
65	710	0	10000	5	1	0	5	0
66	711	0	10000	5	1	0	5	0
66	712	0	10000	5	1	0	5	0
67	713	0	10000	5	1	0	5	0
70	714	0	10000	5	1	0	5	0
71	715	0	10000	5	1	0	5	0
71	716	0	10000	5	1	0	5	0
70	717	0	10000	5	1	0	5	0
67	718	0	10000	5	1	0	5	0
64	719	0	10000	5	1	0	5	0
63	720	0	10000	5	1	0	5	0
61	721	0	10000	5	1	0	5	0
63	722	0	10000	5	1	0	5	0
68	723	0	10000	5	1	0	5	0
69	724	0	10000	5	1	0	5	0
68	725	0	10000	5	1	0	5	0
66	726	0	10000	5	1	0	5	0
64	727	0	10000	5	1	0	5	0
64	728	0	10000	5	1	0	5	0
66	729	0	10000	5	1	0	5	0
67	730	0	10000	5	1	0	5	0
70	731	0	10000	5	1	0	5	0
69	732	0	10000	5	1	0	5	0
68	733	0	10000	5	1	0	5	0
68	734	0	10000	5	1	0	5	0
67	735	0	10000	5	1	0	5	0
65	736	0	10000	5	1	0	5	0
65	737	0	10000	5	1	0	5	0
65	738	0	10000	5	1	0	5	0
63	739	0	10000	5	1	0	5	0
60	740	0	10000	5	1	0	5	0
58	741	0	10000	5	1	0	5	0
56	742	0	10000	5	1	0	5	0
56	743	0	10000	5	1	0	5	0
55	744	0	10000	5	1	0	5	0
55	745	0	10000	5	1	0	5	0
56	746	0	10000	5	1	0	5	0
58	747	0	10000	5	1	0	5	0
59	748	0	10000	5	1	0	5	0
60	749	0	10000	5	1	0	5	0
60	750	0	10000	5	1	0	5	0
60	751	0	10000	5	1	0	5	0
58	752	0	10000	5	1	0	5	0
56	753	0	10000	5	1	0	5	0
56	754	0	10000	5	1	0	5	0
56	755	0	10000	5	1	0	5	0
55	756	0	10000	5	1	0	5	0
