value	EMG	Stimulus	EMG_sensitivity	Total_Trial_Nr	practise	acq	probe_nr	Startle_Probe
17	2	7	10000	1	1	0	1	0
19	3	7	10000	1	1	0	1	0
21	4	7	10000	1	1	0	1	0
23	5	7	10000	1	1	0	1	0
24	6	7	10000	1	1	0	1	0
23	7	7	10000	1	1	0	1	0
22	8	7	10000	1	1	0	1	0
22	9	7	10000	1	1	0	1	0
22	10	7	10000	1	1	0	1	0
23	11	7	10000	1	1	0	1	0
22	12	7	10000	1	1	0	1	0
24	13	7	10000	1	1	0	1	0
27	14	7	10000	1	1	0	1	0
31	15	7	10000	1	1	0	1	0
35	16	7	10000	1	1	0	1	0
38	17	7	10000	1	1	0	1	0
42	18	7	10000	1	1	0	1	0
43	19	7	10000	1	1	0	1	0
45	20	7	10000	1	1	0	1	0
46	21	7	10000	1	1	0	1	0
49	21	7	10000	1	1	0	1	0
47	22	7	10000	1	1	0	1	0
44	24	7	10000	1	1	0	1	0
42	25	7	10000	1	1	0	1	0
41	26	7	10000	1	1	0	1	0
39	27	7	10000	1	1	0	1	0
38	28	7	10000	1	1	0	1	0
38	29	7	10000	1	1	0	1	0
38	30	7	10000	1	1	0	1	0
36	31	7	10000	1	1	0	1	0
32	31	7	10000	1	1	0	1	0
32	32	7	10000	1	1	0	1	0
32	34	7	10000	1	1	0	1	0
33	35	7	10000	1	1	0	1	0
33	36	7	10000	1	1	0	1	0
33	37	7	10000	1	1	0	1	0
32	38	7	10000	1	1	0	1	0
32	39	7	10000	1	1	0	1	0
32	40	7	10000	1	1	0	1	0
32	41	7	10000	1	1	0	1	0
34	41	7	10000	1	1	0	1	0
34	42	7	10000	1	1	0	1	0
35	44	7	10000	1	1	0	1	0
37	45	7	10000	1	1	0	1	0
38	46	7	10000	1	1	0	1	0
39	47	7	10000	1	1	0	1	0
39	48	7	10000	1	1	0	1	0
40	49	7	10000	1	1	0	1	0
41	50	7	10000	1	1	0	1	0
41	51	7	10000	1	1	0	1	0
38	51	7	10000	1	1	0	1	0
38	52	7	10000	1	1	0	1	0
37	54	7	10000	1	1	0	1	0
36	55	7	10000	1	1	0	1	0
36	56	7	10000	1	1	0	1	0
37	57	7	10000	1	1	0	1	0
37	58	7	10000	1	1	0	1	0
38	59	7	10000	1	1	0	1	0
37	60	7	10000	1	1	0	1	0
36	61	7	10000	1	1	0	1	0
38	61	7	10000	1	1	0	1	0
36	62	7	10000	1	1	0	1	0
35	64	7	10000	1	1	0	1	0
34	65	7	10000	1	1	0	1	0
33	66	7	10000	1	1	0	1	0
32	67	7	10000	1	1	0	1	0
30	68	7	10000	1	1	0	1	0
30	69	7	10000	1	1	0	1	0
29	70	7	10000	1	1	0	1	0
28	71	7	10000	1	1	0	1	0
26	71	7	10000	1	1	0	1	0
26	72	7	10000	1	1	0	1	0
26	74	7	10000	1	1	0	1	0
26	75	7	10000	1	1	0	1	0
25	76	7	10000	1	1	0	1	0
24	77	7	10000	1	1	0	1	0
24	78	7	10000	1	1	0	1	0
22	79	7	10000	1	1	0	1	0
22	80	7	10000	1	1	0	1	0
20	81	7	10000	1	1	0	1	0
24	81	7	10000	1	1	0	1	0
24	82	7	10000	1	1	0	1	0
23	84	7	10000	1	1	0	1	0
24	85	7	10000	1	1	0	1	0
22	86	7	10000	1	1	0	1	0
23	87	7	10000	1	1	0	1	0
23	88	7	10000	1	1	0	1	0
23	89	7	10000	1	1	0	1	0
22	90	7	10000	1	1	0	1	0
21	91	7	10000	1	1	0	1	0
19	91	7	10000	1	1	0	1	0
19	92	7	10000	1	1	0	1	0
20	94	7	10000	1	1	0	1	0
20	95	7	10000	1	1	0	1	0
20	96	7	10000	1	1	0	1	0
20	97	7	10000	1	1	0	1	0
20	98	7	10000	1	1	0	1	0
19	99	7	10000	1	1	0	1	0
18	100	7	10000	1	1	0	1	0
19	101	7	10000	1	1	0	1	0
22	101	7	10000	1	1	0	1	0
21	102	7	10000	1	1	0	1	0
20	104	7	10000	1	1	0	1	0
19	105	7	10000	1	1	0	1	0
20	106	7	10000	1	1	0	1	0
19	107	7	10000	1	1	0	1	0
18	108	7	10000	1	1	0	1	0
19	109	7	10000	1	1	0	1	0
18	110	7	10000	1	1	0	1	0
19	111	7	10000	1	1	0	1	0
16	111	7	10000	1	1	0	1	0
17	112	7	10000	1	1	0	1	0
17	114	7	10000	1	1	0	1	0
17	115	7	10000	1	1	0	1	0
16	116	7	10000	1	1	0	1	0
16	117	7	10000	1	1	0	1	0
17	118	7	10000	1	1	0	1	0
16	119	7	10000	1	1	0	1	0
15	120	7	10000	1	1	0	1	0
15	121	7	10000	1	1	0	1	0
17	121	7	10000	1	1	0	1	0
16	122	7	10000	1	1	0	1	0
16	124	7	10000	1	1	0	1	0
16	125	7	10000	1	1	0	1	0
16	126	7	10000	1	1	0	1	0
15	127	7	10000	1	1	0	1	0
15	128	7	10000	1	1	0	1	0
16	129	7	10000	1	1	0	1	0
15	130	7	10000	1	1	0	1	0
15	131	7	10000	1	1	0	1	0
13	131	7	10000	1	1	0	1	0
12	132	7	10000	1	1	0	1	0
13	134	7	10000	1	1	0	1	0
15	135	7	10000	1	1	0	1	0
14	136	7	10000	1	1	0	1	0
16	137	7	10000	1	1	0	1	0
17	138	7	10000	1	1	0	1	0
16	139	7	10000	1	1	0	1	0
15	140	7	10000	1	1	0	1	0
15	141	7	10000	1	1	0	1	0
16	141	7	10000	1	1	0	1	0
15	142	7	10000	1	1	0	1	0
15	144	7	10000	1	1	0	1	0
15	145	7	10000	1	1	0	1	0
14	146	7	10000	1	1	0	1	0
14	147	7	10000	1	1	0	1	0
14	148	7	10000	1	1	0	1	0
14	149	7	10000	1	1	0	1	0
14	150	7	10000	1	1	0	1	0
14	151	7	10000	1	1	0	1	0
11	151	7	10000	1	1	0	1	0
12	152	7	10000	1	1	0	1	0
12	154	7	10000	1	1	0	1	0
12	155	7	10000	1	1	0	1	0
11	156	7	10000	1	1	0	1	0
11	157	7	10000	1	1	0	1	0
11	158	7	10000	1	1	0	1	0
11	159	7	10000	1	1	0	1	0
10	160	7	10000	1	1	0	1	0
10	161	7	10000	1	1	0	1	0
12	161	7	10000	1	1	0	1	0
12	162	7	10000	1	1	0	1	0
11	164	7	10000	1	1	0	1	0
11	165	7	10000	1	1	0	1	0
11	166	7	10000	1	1	0	1	0
11	167	7	10000	1	1	0	1	0
10	168	7	10000	1	1	0	1	0
10	169	7	10000	1	1	0	1	0
11	170	7	10000	1	1	0	1	0
11	171	7	10000	1	1	0	1	0
9	171	7	10000	1	1	0	1	0
10	172	7	10000	1	1	0	1	0
10	174	7	10000	1	1	0	1	0
11	175	7	10000	1	1	0	1	0
11	176	7	10000	1	1	0	1	0
11	177	7	10000	1	1	0	1	0
12	178	7	10000	1	1	0	1	0
13	179	7	10000	1	1	0	1	0
11	180	7	10000	1	1	0	1	0
11	181	7	10000	1	1	0	1	0
13	181	7	10000	1	1	0	1	0
13	182	7	10000	1	1	0	1	0
13	184	7	10000	1	1	0	1	0
11	185	7	10000	1	1	0	1	0
11	186	7	10000	1	1	0	1	0
11	187	7	10000	1	1	0	1	0
10	188	7	10000	1	1	0	1	0
11	189	7	10000	1	1	0	1	0
11	190	7	10000	1	1	0	1	0
11	191	7	10000	1	1	0	1	0
10	191	7	10000	1	1	0	1	0
11	192	7	10000	1	1	0	1	0
11	194	7	10000	1	1	0	1	0
11	195	7	10000	1	1	0	1	0
10	196	7	10000	1	1	0	1	0
11	197	7	10000	1	1	0	1	0
11	198	7	10000	1	1	0	1	0
10	199	7	10000	1	1	0	1	0
10	200	7	10000	1	1	0	1	0
10	201	7	10000	1	1	0	1	0
12	201	7	10000	1	1	0	1	0
12	202	7	10000	1	1	0	1	0
12	204	7	10000	1	1	0	1	0
13	205	7	10000	1	1	0	1	0
11	206	7	10000	1	1	0	1	0
11	207	7	10000	1	1	0	1	0
11	208	7	10000	1	1	0	1	0
12	209	7	10000	1	1	0	1	0
12	210	7	10000	1	1	0	1	0
12	211	7	10000	1	1	0	1	0
11	211	7	10000	1	1	0	1	0
12	212	7	10000	1	1	0	1	0
11	214	7	10000	1	1	0	1	0
12	215	7	10000	1	1	0	1	0
12	216	7	10000	1	1	0	1	0
14	217	7	10000	1	1	0	1	0
15	218	7	10000	1	1	0	1	0
14	219	7	10000	1	1	0	1	0
13	220	7	10000	1	1	0	1	0
15	221	7	10000	1	1	0	1	0
17	221	7	10000	1	1	0	1	0
17	222	7	10000	1	1	0	1	0
17	224	7	10000	1	1	0	1	0
17	225	7	10000	1	1	0	1	0
16	226	7	10000	1	1	0	1	0
16	227	7	10000	1	1	0	1	0
15	228	7	10000	1	1	0	1	0
15	229	7	10000	1	1	0	1	0
15	230	7	10000	1	1	0	1	0
16	231	7	10000	1	1	0	1	0
13	231	7	10000	1	1	0	1	0
12	232	7	10000	1	1	0	1	0
12	234	7	10000	1	1	0	1	0
13	235	7	10000	1	1	0	1	0
12	236	7	10000	1	1	0	1	0
12	237	7	10000	1	1	0	1	0
12	238	7	10000	1	1	0	1	0
11	239	7	10000	1	1	0	1	0
11	240	7	10000	1	1	0	1	0
10	241	7	10000	1	1	0	1	0
13	241	7	10000	1	1	0	1	0
13	242	7	10000	1	1	0	1	0
12	244	7	10000	1	1	0	1	0
11	245	7	10000	1	1	0	1	0
11	246	7	10000	1	1	0	1	0
11	247	7	10000	1	1	0	1	0
10	248	7	10000	1	1	0	1	0
11	249	7	10000	1	1	0	1	0
11	250	7	10000	1	1	0	1	0
12	251	7	10000	1	1	0	1	0
10	251	7	10000	1	1	0	1	0
10	252	7	10000	1	1	0	1	0
11	254	7	10000	1	1	0	1	0
11	255	7	10000	1	1	0	1	0
11	256	7	10000	1	1	0	1	0
12	257	7	10000	1	1	0	1	0
12	258	7	10000	1	1	0	1	0
11	259	7	10000	1	1	0	1	0
11	260	7	10000	1	1	0	1	0
11	261	7	10000	1	1	0	1	0
13	261	7	10000	1	1	0	1	0
12	262	7	10000	1	1	0	1	0
12	264	7	10000	1	1	0	1	0
11	265	7	10000	1	1	0	1	0
11	266	7	10000	1	1	0	1	0
11	267	7	10000	1	1	0	1	0
12	268	7	10000	1	1	0	1	0
13	269	7	10000	1	1	0	1	0
14	270	7	10000	1	1	0	1	0
14	271	7	10000	1	1	0	1	0
11	271	7	10000	1	1	0	1	0
11	272	7	10000	1	1	0	1	0
11	274	7	10000	1	1	0	1	0
12	275	7	10000	1	1	0	1	0
11	276	7	10000	1	1	0	1	0
11	277	7	10000	1	1	0	1	0
11	278	7	10000	1	1	0	1	0
10	279	7	10000	1	1	0	1	0
10	280	7	10000	1	1	0	1	0
10	281	7	10000	1	1	0	1	0
11	281	7	10000	1	1	0	1	0
11	282	7	10000	1	1	0	1	0
11	284	7	10000	1	1	0	1	0
11	285	7	10000	1	1	0	1	0
10	286	7	10000	1	1	0	1	0
11	287	7	10000	1	1	0	1	0
10	288	7	10000	1	1	0	1	0
10	289	7	10000	1	1	0	1	0
11	290	7	10000	1	1	0	1	0
11	291	7	10000	1	1	0	1	0
8	291	7	10000	1	1	0	1	0
9	292	7	10000	1	1	0	1	0
10	294	7	10000	1	1	0	1	0
9	295	7	10000	1	1	0	1	0
10	296	7	10000	1	1	0	1	0
9	297	7	10000	1	1	0	1	0
9	298	7	10000	1	1	0	1	0
9	299	7	10000	1	1	0	1	0
8	300	7	10000	1	1	0	1	0
8	301	7	10000	1	1	0	1	0
11	301	7	10000	1	1	0	1	0
11	302	7	10000	1	1	0	1	0
11	304	7	10000	1	1	0	1	0
10	305	7	10000	1	1	0	1	0
10	306	7	10000	1	1	0	1	0
10	307	7	10000	1	1	0	1	0
9	308	7	10000	1	1	0	1	0
10	309	7	10000	1	1	0	1	0
10	310	7	10000	1	1	0	1	0
9	311	7	10000	1	1	0	1	0
8	311	7	10000	1	1	0	1	0
9	312	7	10000	1	1	0	1	0
9	314	7	10000	1	1	0	1	0
9	315	7	10000	1	1	0	1	0
8	316	7	10000	1	1	0	1	0
9	317	7	10000	1	1	0	1	0
9	318	7	10000	1	1	0	1	0
10	319	7	10000	1	1	0	1	0
10	320	7	10000	1	1	0	1	0
11	321	7	10000	1	1	0	1	0
13	321	7	10000	1	1	0	1	0
13	322	7	10000	1	1	0	1	0
12	324	7	10000	1	1	0	1	0
13	325	7	10000	1	1	0	1	0
13	326	7	10000	1	1	0	1	0
13	327	7	10000	1	1	0	1	0
12	328	7	10000	1	1	0	1	0
13	329	7	10000	1	1	0	1	0
13	330	7	10000	1	1	0	1	0
12	331	7	10000	1	1	0	1	0
11	331	7	10000	1	1	0	1	0
11	332	7	10000	1	1	0	1	0
10	334	7	10000	1	1	0	1	0
11	335	7	10000	1	1	0	1	0
11	336	7	10000	1	1	0	1	0
12	337	7	10000	1	1	0	1	0
13	338	7	10000	1	1	0	1	0
11	339	7	10000	1	1	0	1	0
10	340	7	10000	1	1	0	1	0
11	341	7	10000	1	1	0	1	0
13	341	7	10000	1	1	0	1	0
14	342	7	10000	1	1	0	1	0
12	344	7	10000	1	1	0	1	0
12	345	7	10000	1	1	0	1	0
12	346	7	10000	1	1	0	1	0
12	347	7	10000	1	1	0	1	0
11	348	7	10000	1	1	0	1	0
12	349	7	10000	1	1	0	1	0
12	350	7	10000	1	1	0	1	0
12	351	7	10000	1	1	0	1	0
9	351	7	10000	1	1	0	1	0
9	352	7	10000	1	1	0	1	0
10	354	7	10000	1	1	0	1	0
10	355	7	10000	1	1	0	1	0
10	356	7	10000	1	1	0	1	0
9	357	7	10000	1	1	0	1	0
9	358	7	10000	1	1	0	1	0
8	359	7	10000	1	1	0	1	0
8	360	7	10000	1	1	0	1	0
8	361	7	10000	1	1	0	1	0
9	361	7	10000	1	1	0	1	0
9	362	7	10000	1	1	0	1	0
9	364	7	10000	1	1	0	1	0
8	365	7	10000	1	1	0	1	0
8	366	7	10000	1	1	0	1	0
8	367	7	10000	1	1	0	1	0
8	368	7	10000	1	1	0	1	0
9	369	7	10000	1	1	0	1	0
8	370	7	10000	1	1	0	1	0
9	371	7	10000	1	1	0	1	0
8	371	7	10000	1	1	0	1	0
8	372	7	10000	1	1	0	1	0
9	374	7	10000	1	1	0	1	0
9	375	7	10000	1	1	0	1	0
8	376	7	10000	1	1	0	1	0
9	377	7	10000	1	1	0	1	0
9	378	7	10000	1	1	0	1	0
9	379	7	10000	1	1	0	1	0
8	380	7	10000	1	1	0	1	0
8	381	7	10000	1	1	0	1	0
10	381	7	10000	1	1	0	1	0
10	382	7	10000	1	1	0	1	0
11	384	7	10000	1	1	0	1	0
11	385	7	10000	1	1	0	1	0
11	386	7	10000	1	1	0	1	0
11	387	7	10000	1	1	0	1	0
10	388	7	10000	1	1	0	1	0
11	389	7	10000	1	1	0	1	0
12	390	7	10000	1	1	0	1	0
11	391	7	10000	1	1	0	1	0
9	391	7	10000	1	1	0	1	0
9	392	7	10000	1	1	0	1	0
9	394	7	10000	1	1	0	1	0
10	395	7	10000	1	1	0	1	0
9	396	7	10000	1	1	0	1	0
10	397	7	10000	1	1	0	1	0
10	398	7	10000	1	1	0	1	0
9	399	7	10000	1	1	0	1	0
10	400	7	10000	1	1	0	1	0
10	401	7	10000	1	1	0	1	0
11	401	7	10000	1	1	0	1	0
11	402	7	10000	1	1	0	1	0
11	404	7	10000	1	1	0	1	0
11	405	7	10000	1	1	0	1	0
11	406	7	10000	1	1	0	1	0
11	407	7	10000	1	1	0	1	0
11	408	7	10000	1	1	0	1	0
12	409	7	10000	1	1	0	1	0
14	410	7	10000	1	1	0	1	0
14	411	7	10000	1	1	0	1	0
11	411	7	10000	1	1	0	1	0
12	412	7	10000	1	1	0	1	0
12	414	7	10000	1	1	0	1	0
12	415	7	10000	1	1	0	1	0
13	416	7	10000	1	1	0	1	0
13	417	7	10000	1	1	0	1	0
13	418	7	10000	1	1	0	1	0
13	419	7	10000	1	1	0	1	0
12	420	7	10000	1	1	0	1	0
12	421	7	10000	1	1	0	1	0
14	421	7	10000	1	1	0	1	0
13	422	7	10000	1	1	0	1	0
13	424	7	10000	1	1	0	1	0
13	425	7	10000	1	1	0	1	0
12	426	7	10000	1	1	0	1	0
11	427	7	10000	1	1	0	1	0
10	428	7	10000	1	1	0	1	0
12	429	7	10000	1	1	0	1	0
12	430	7	10000	1	1	0	1	0
11	431	7	10000	1	1	0	1	0
10	431	7	10000	1	1	0	1	0
10	432	7	10000	1	1	0	1	0
10	434	7	10000	1	1	0	1	0
10	435	7	10000	1	1	0	1	0
10	436	7	10000	1	1	0	1	0
9	437	7	10000	1	1	0	1	0
9	438	7	10000	1	1	0	1	0
9	439	7	10000	1	1	0	1	0
8	440	7	10000	1	1	0	1	0
8	441	7	10000	1	1	0	1	0
10	441	7	10000	1	1	0	1	0
9	442	7	10000	1	1	0	1	0
9	444	7	10000	1	1	0	1	0
9	445	7	10000	1	1	0	1	0
9	446	7	10000	1	1	0	1	0
8	447	7	10000	1	1	0	1	0
8	448	7	10000	1	1	0	1	0
9	449	7	10000	1	1	0	1	0
10	450	7	10000	1	1	0	1	0
10	451	7	10000	1	1	0	1	0
8	451	7	10000	1	1	0	1	0
8	452	7	10000	1	1	0	1	0
8	454	7	10000	1	1	0	1	0
9	455	7	10000	1	1	0	1	0
9	456	7	10000	1	1	0	1	0
10	457	7	10000	1	1	0	1	0
12	458	7	10000	1	1	0	1	0
13	459	7	10000	1	1	0	1	0
14	460	7	10000	1	1	0	1	0
13	461	7	10000	1	1	0	1	0
15	461	7	10000	1	1	0	1	0
14	462	7	10000	1	1	0	1	0
15	464	7	10000	1	1	0	1	0
15	465	7	10000	1	1	0	1	0
15	466	7	10000	1	1	0	1	0
16	467	7	10000	1	1	0	1	0
15	468	7	10000	1	1	0	1	0
15	469	7	10000	1	1	0	1	0
15	470	7	10000	1	1	0	1	0
15	471	7	10000	1	1	0	1	0
13	471	7	10000	1	1	0	1	0
14	472	7	10000	1	1	0	1	0
14	474	7	10000	1	1	0	1	0
14	475	7	10000	1	1	0	1	0
13	476	7	10000	1	1	0	1	0
13	477	7	10000	1	1	0	1	0
13	478	7	10000	1	1	0	1	0
12	479	7	10000	1	1	0	1	0
12	480	7	10000	1	1	0	1	0
13	481	7	10000	1	1	0	1	0
15	481	7	10000	1	1	0	1	0
14	482	7	10000	1	1	0	1	0
14	484	7	10000	1	1	0	1	0
13	485	7	10000	1	1	0	1	0
12	486	7	10000	1	1	0	1	0
13	487	7	10000	1	1	0	1	0
13	488	7	10000	1	1	0	1	0
13	489	7	10000	1	1	0	1	0
13	490	7	10000	1	1	0	1	0
14	491	7	10000	1	1	0	1	0
12	491	7	10000	1	1	0	1	0
14	492	7	10000	1	1	0	1	0
15	494	7	10000	1	1	0	1	0
15	495	7	10000	1	1	0	1	0
15	496	7	10000	1	1	0	1	0
16	497	7	10000	1	1	0	1	0
16	498	7	10000	1	1	0	1	0
15	499	7	10000	1	1	0	1	0
14	500	7	10000	1	1	0	1	0
14	501	7	10000	1	1	0	1	0
16	543	7	10000	1	1	0	1	1
15	544	7	10000	1	1	0	1	1
16	545	7	10000	1	1	0	1	1
16	546	7	10000	1	1	0	1	1
15	547	7	10000	1	1	0	1	1
16	548	7	10000	1	1	0	1	1
17	549	7	10000	1	1	0	1	1
20	550	7	10000	1	1	0	1	1
21	551	7	10000	1	1	0	1	1
21	552	7	10000	1	1	0	1	1
19	553	7	10000	1	1	0	1	1
20	554	7	10000	1	1	0	1	1
22	555	7	10000	1	1	0	1	1
24	556	7	10000	1	1	0	1	1
24	557	7	10000	1	1	0	1	1
24	558	7	10000	1	1	0	1	1
24	559	7	10000	1	1	0	1	1
23	560	7	10000	1	1	0	1	1
22	561	7	10000	1	1	0	1	1
22	562	7	10000	1	1	0	1	1
25	563	7	10000	1	1	0	1	1
26	564	7	10000	1	1	0	1	1
29	565	7	10000	1	1	0	1	1
30	566	7	10000	1	1	0	1	1
30	567	7	10000	1	1	0	1	1
29	568	7	10000	1	1	0	1	1
29	569	7	10000	1	1	0	1	1
28	570	7	10000	1	1	0	1	1
28	571	7	10000	1	1	0	1	1
28	572	7	10000	1	1	0	1	1
26	573	7	10000	1	1	0	1	1
29	574	7	10000	1	1	0	1	1
30	575	7	10000	1	1	0	1	1
31	576	7	10000	1	1	0	1	1
32	577	7	10000	1	1	0	1	1
33	578	7	10000	1	1	0	1	1
32	579	7	10000	1	1	0	1	1
31	580	7	10000	1	1	0	1	1
29	581	7	10000	1	1	0	1	1
28	582	7	10000	1	1	0	1	1
28	583	7	10000	1	1	0	1	1
28	584	7	10000	1	1	0	1	1
27	585	7	10000	1	1	0	1	1
25	586	7	10000	1	1	0	1	1
25	550	7	10000	1	1	0	1	1
25	551	7	10000	1	1	0	1	1
23	552	7	10000	1	1	0	1	1
23	553	7	10000	1	1	0	1	1
23	554	7	10000	1	1	0	1	1
22	555	7	10000	1	1	0	1	1
20	552	7	10000	1	1	0	1	0
20	553	7	10000	1	1	0	1	0
20	554	7	10000	1	1	0	1	0
20	555	7	10000	1	1	0	1	0
20	556	7	10000	1	1	0	1	0
21	557	7	10000	1	1	0	1	0
20	558	7	10000	1	1	0	1	0
20	559	7	10000	1	1	0	1	0
19	560	7	10000	1	1	0	1	0
18	561	7	10000	1	1	0	1	0
20	562	7	10000	1	1	0	1	0
19	563	7	10000	1	1	0	1	0
18	564	7	10000	1	1	0	1	0
17	565	7	10000	1	1	0	1	0
18	566	7	10000	1	1	0	1	0
19	567	7	10000	1	1	0	1	0
17	568	7	10000	1	1	0	1	0
17	569	7	10000	1	1	0	1	0
16	570	7	10000	1	1	0	1	0
16	571	7	10000	1	1	0	1	0
15	571	7	10000	1	1	0	1	0
15	572	7	10000	1	1	0	1	0
15	574	7	10000	1	1	0	1	0
14	575	7	10000	1	1	0	1	0
14	576	7	10000	1	1	0	1	0
13	577	7	10000	1	1	0	1	0
14	578	7	10000	1	1	0	1	0
12	579	7	10000	1	1	0	1	0
13	580	7	10000	1	1	0	1	0
12	581	7	10000	1	1	0	1	0
14	581	7	10000	1	1	0	1	0
14	582	7	10000	1	1	0	1	0
14	584	7	10000	1	1	0	1	0
15	585	7	10000	1	1	0	1	0
15	586	7	10000	1	1	0	1	0
15	587	7	10000	1	1	0	1	0
15	588	7	10000	1	1	0	1	0
15	589	7	10000	1	1	0	1	0
15	590	7	10000	1	1	0	1	0
15	591	7	10000	1	1	0	1	0
12	591	7	10000	1	1	0	1	0
13	592	7	10000	1	1	0	1	0
13	594	7	10000	1	1	0	1	0
13	595	7	10000	1	1	0	1	0
14	596	7	10000	1	1	0	1	0
14	597	7	10000	1	1	0	1	0
15	598	7	10000	1	1	0	1	0
14	599	7	10000	1	1	0	1	0
13	600	7	10000	1	1	0	1	0
13	601	7	10000	1	1	0	1	0
15	601	7	10000	1	1	0	1	0
14	602	7	10000	1	1	0	1	0
14	604	7	10000	1	1	0	1	0
14	605	7	10000	1	1	0	1	0
14	606	7	10000	1	1	0	1	0
13	607	7	10000	1	1	0	1	0
12	608	7	10000	1	1	0	1	0
12	609	7	10000	1	1	0	1	0
12	610	7	10000	1	1	0	1	0
13	611	7	10000	1	1	0	1	0
11	611	7	10000	1	1	0	1	0
12	612	7	10000	1	1	0	1	0
13	614	7	10000	1	1	0	1	0
13	615	7	10000	1	1	0	1	0
13	616	7	10000	1	1	0	1	0
13	617	7	10000	1	1	0	1	0
13	618	7	10000	1	1	0	1	0
13	619	7	10000	1	1	0	1	0
11	620	7	10000	1	1	0	1	0
11	621	7	10000	1	1	0	1	0
13	621	7	10000	1	1	0	1	0
12	622	7	10000	1	1	0	1	0
11	624	7	10000	1	1	0	1	0
12	625	7	10000	1	1	0	1	0
12	626	7	10000	1	1	0	1	0
11	627	7	10000	1	1	0	1	0
11	628	7	10000	1	1	0	1	0
11	629	7	10000	1	1	0	1	0
12	630	7	10000	1	1	0	1	0
13	631	7	10000	1	1	0	1	0
13	631	7	10000	1	1	0	1	0
14	632	7	10000	1	1	0	1	0
14	634	7	10000	1	1	0	1	0
16	635	7	10000	1	1	0	1	0
20	636	7	10000	1	1	0	1	0
21	637	7	10000	1	1	0	1	0
42	638	7	10000	1	1	0	1	0
81	639	7	10000	1	1	0	1	0
102	640	7	10000	1	1	0	1	0
101	641	7	10000	1	1	0	1	0
110	641	7	10000	1	1	0	1	0
141	642	7	10000	1	1	0	1	0
182	644	7	10000	1	1	0	1	0
212	645	7	10000	1	1	0	1	0
299	646	7	10000	1	1	0	1	0
378	647	7	10000	1	1	0	1	0
394	648	7	10000	1	1	0	1	0
417	649	7	10000	1	1	0	1	0
459	650	7	10000	1	1	0	1	0
500	651	7	10000	1	1	0	1	0
537	651	7	10000	1	1	0	1	0
571	652	7	10000	1	1	0	1	0
564	654	7	10000	1	1	0	1	0
586	655	7	10000	1	1	0	1	0
644	656	7	10000	1	1	0	1	0
658	657	7	10000	1	1	0	1	0
636	658	7	10000	1	1	0	1	0
612	659	7	10000	1	1	0	1	0
609	660	7	10000	1	1	0	1	0
600	661	7	10000	1	1	0	1	0
627	661	7	10000	1	1	0	1	0
664	662	7	10000	1	1	0	1	0
676	664	7	10000	1	1	0	1	0
652	665	7	10000	1	1	0	1	0
642	666	7	10000	1	1	0	1	0
632	667	7	10000	1	1	0	1	0
637	668	7	10000	1	1	0	1	0
614	669	7	10000	1	1	0	1	0
605	670	7	10000	1	1	0	1	0
624	671	7	10000	1	1	0	1	0
662	671	7	10000	1	1	0	1	0
693	672	7	10000	1	1	0	1	0
706	684	7	10000	1	1	0	1	0
705	685	7	10000	1	1	0	1	0
689	686	7	10000	1	1	0	1	0
668	687	7	10000	1	1	0	1	0
648	688	7	10000	1	1	0	1	0
631	689	7	10000	1	1	0	1	0
612	690	7	10000	1	1	0	1	0
590	691	7	10000	1	1	0	1	0
565	692	7	10000	1	1	0	1	0
539	693	7	10000	1	1	0	1	0
514	694	7	10000	1	1	0	1	0
491	695	7	10000	1	1	0	1	0
470	693	7	10000	1	1	0	1	0
451	694	7	10000	1	1	0	1	0
437	695	7	10000	1	1	0	1	0
422	696	7	10000	1	1	0	1	0
407	697	7	10000	1	1	0	1	0
390	698	7	10000	1	1	0	1	0
373	699	7	10000	1	1	0	1	0
356	700	7	10000	1	1	0	1	0
341	703	7	10000	1	1	0	1	0
326	704	7	10000	1	1	0	1	0
315	705	7	10000	1	1	0	1	0
305	706	7	10000	1	1	0	1	0
297	707	7	10000	1	1	0	1	0
290	708	7	10000	1	1	0	1	0
285	709	7	10000	1	1	0	1	0
284	710	7	10000	1	1	0	1	0
288	711	7	10000	1	1	0	1	0
293	712	7	10000	1	1	0	1	0
295	713	7	10000	1	1	0	1	0
299	714	7	10000	1	1	0	1	0
300	709	7	10000	1	1	0	1	0
299	710	7	10000	1	1	0	1	0
300	711	7	10000	1	1	0	1	0
298	712	7	10000	1	1	0	1	0
292	713	7	10000	1	1	0	1	0
285	714	7	10000	1	1	0	1	0
278	713	7	10000	1	1	0	1	0
275	714	7	10000	1	1	0	1	0
273	715	7	10000	1	1	0	1	0
272	716	7	10000	1	1	0	1	0
271	719	7	10000	1	1	0	1	0
271	720	7	10000	1	1	0	1	0
272	721	7	10000	1	1	0	1	0
274	722	7	10000	1	1	0	1	0
277	723	7	10000	1	1	0	1	0
279	724	7	10000	1	1	0	1	0
282	725	7	10000	1	1	0	1	0
280	726	7	10000	1	1	0	1	0
276	727	7	10000	1	1	0	1	0
273	728	7	10000	1	1	0	1	0
268	729	7	10000	1	1	0	1	0
261	730	7	10000	1	1	0	1	0
253	730	7	10000	1	1	0	1	0
245	731	7	10000	1	1	0	1	0
234	732	7	10000	1	1	0	1	0
225	733	7	10000	1	1	0	1	0
214	736	7	10000	1	1	0	1	0
207	737	7	10000	1	1	0	1	0
201	738	7	10000	1	1	0	1	0
193	739	7	10000	1	1	0	1	0
185	740	7	10000	1	1	0	1	0
178	741	7	10000	1	1	0	1	0
173	741	7	10000	1	1	0	1	0
168	742	7	10000	1	1	0	1	0
163	743	7	10000	1	1	0	1	0
161	744	7	10000	1	1	0	1	0
159	745	7	10000	1	1	0	1	0
156	746	7	10000	1	1	0	1	0
154	748	7	10000	1	1	0	1	0
152	749	7	10000	1	1	0	1	0
153	750	7	10000	1	1	0	1	0
157	751	7	10000	1	1	0	1	0
160	752	7	10000	1	1	0	1	0
166	753	7	10000	1	1	0	1	0
173	753	7	10000	1	1	0	1	0
179	754	7	10000	1	1	0	1	0
184	755	7	10000	1	1	0	1	0
190	756	7	10000	1	1	0	1	0
197	757	7	10000	1	1	0	1	0
205	758	7	10000	1	1	0	1	0
210	759	7	10000	1	1	0	1	0
216	760	7	10000	1	1	0	1	0
221	761	7	10000	1	1	0	1	0
223	762	7	10000	1	1	0	1	0
223	763	7	10000	1	1	0	1	0
224	764	7	10000	1	1	0	1	0
224	764	7	10000	1	1	0	1	0
222	765	7	10000	1	1	0	1	0
220	766	7	10000	1	1	0	1	0
219	767	7	10000	1	1	0	1	0
219	769	7	10000	1	1	0	1	0
220	770	7	10000	1	1	0	1	0
223	771	7	10000	1	1	0	1	0
226	772	7	10000	1	1	0	1	0
231	773	7	10000	1	1	0	1	0
235	774	7	10000	1	1	0	1	0
237	776	7	10000	1	1	0	1	0
239	777	7	10000	1	1	0	1	0
241	778	7	10000	1	1	0	1	0
242	779	7	10000	1	1	0	1	0
241	780	7	10000	1	1	0	1	0
238	781	7	10000	1	1	0	1	0
235	780	7	10000	1	1	0	1	0
229	781	7	10000	1	1	0	1	0
222	782	7	10000	1	1	0	1	0
216	783	7	10000	1	1	0	1	0
211	787	7	10000	1	1	0	1	0
205	788	7	10000	1	1	0	1	0
199	789	7	10000	1	1	0	1	0
195	790	7	10000	1	1	0	1	0
190	791	7	10000	1	1	0	1	0
185	792	7	10000	1	1	0	1	0
180	793	7	10000	1	1	0	1	0
178	794	7	10000	1	1	0	1	0
175	791	7	10000	1	1	0	1	0
172	792	7	10000	1	1	0	1	0
165	793	7	10000	1	1	0	1	0
163	794	7	10000	1	1	0	1	0
160	798	7	10000	1	1	0	1	0
157	799	7	10000	1	1	0	1	0
154	800	7	10000	1	1	0	1	0
149	801	7	10000	1	1	0	1	0
144	802	7	10000	1	1	0	1	0
138	803	7	10000	1	1	0	1	0
131	800	7	10000	1	1	0	1	0
126	801	7	10000	1	1	0	1	0
122	802	7	10000	1	1	0	1	0
119	803	7	10000	1	1	0	1	0
114	804	7	10000	1	1	0	1	0
109	805	7	10000	1	1	0	1	0
105	806	7	10000	1	1	0	1	0
101	807	7	10000	1	1	0	1	0
96	808	7	10000	1	1	0	1	0
92	809	7	10000	1	1	0	1	0
89	810	7	10000	1	1	0	1	0
85	811	7	10000	1	1	0	1	0
81	812	7	10000	1	1	0	1	0
78	813	7	10000	1	1	0	1	0
75	814	7	10000	1	1	0	1	0
74	815	7	10000	1	1	0	1	0
73	816	7	10000	1	1	0	1	0
72	817	7	10000	1	1	0	1	0
70	818	7	10000	1	1	0	1	0
71	819	7	10000	1	1	0	1	0
72	820	7	10000	1	1	0	1	0
73	821	7	10000	1	1	0	1	0
78	822	7	10000	1	1	0	1	0
79	823	7	10000	1	1	0	1	0
80	824	7	10000	1	1	0	1	0
81	825	7	10000	1	1	0	1	0
81	826	7	10000	1	1	0	1	0
79	827	7	10000	1	1	0	1	0
75	828	7	10000	1	1	0	1	0
72	829	7	10000	1	1	0	1	0
70	830	7	10000	1	1	0	1	0
67	831	7	10000	1	1	0	1	0
62	832	7	10000	1	1	0	1	0
60	833	7	10000	1	1	0	1	0
58	834	7	10000	1	1	0	1	0
56	835	7	10000	1	1	0	1	0
54	836	7	10000	1	1	0	1	0
52	837	7	10000	1	1	0	1	0
52	838	7	10000	1	1	0	1	0
51	839	7	10000	1	1	0	1	0
52	840	7	10000	1	1	0	1	0
54	841	7	10000	1	1	0	1	0
56	842	7	10000	1	1	0	1	0
57	843	7	10000	1	1	0	1	0
57	844	7	10000	1	1	0	1	0
56	845	7	10000	1	1	0	1	0
53	846	7	10000	1	1	0	1	0
51	847	7	10000	1	1	0	1	0
49	848	7	10000	1	1	0	1	0
47	849	7	10000	1	1	0	1	0
45	850	7	10000	1	1	0	1	0
44	851	7	10000	1	1	0	1	0
42	852	7	10000	1	1	0	1	0
43	853	7	10000	1	1	0	1	0
44	854	7	10000	1	1	0	1	0
45	855	7	10000	1	1	0	1	0
44	856	7	10000	1	1	0	1	0
43	857	7	10000	1	1	0	1	0
43	858	7	10000	1	1	0	1	0
43	859	7	10000	1	1	0	1	0
43	860	7	10000	1	1	0	1	0
44	861	7	10000	1	1	0	1	0
45	862	7	10000	1	1	0	1	0
44	863	7	10000	1	1	0	1	0
44	864	7	10000	1	1	0	1	0
43	865	7	10000	1	1	0	1	0
44	866	7	10000	1	1	0	1	0
44	867	7	10000	1	1	0	1	0
42	868	7	10000	1	1	0	1	0
42	869	7	10000	1	1	0	1	0
43	870	7	10000	1	1	0	1	0
45	871	7	10000	1	1	0	1	0
45	872	7	10000	1	1	0	1	0
49	873	7	10000	1	1	0	1	0
52	874	7	10000	1	1	0	1	0
53	875	7	10000	1	1	0	1	0
53	876	7	10000	1	1	0	1	0
53	877	7	10000	1	1	0	1	0
51	878	7	10000	1	1	0	1	0
48	879	7	10000	1	1	0	1	0
47	880	7	10000	1	1	0	1	0
47	881	7	10000	1	1	0	1	0
50	882	7	10000	1	1	0	1	0
50	883	7	10000	1	1	0	1	0
51	884	7	10000	1	1	0	1	0
52	885	7	10000	1	1	0	1	0
51	886	7	10000	1	1	0	1	0
49	887	7	10000	1	1	0	1	0
49	888	7	10000	1	1	0	1	0
47	889	7	10000	1	1	0	1	0
47	890	7	10000	1	1	0	1	0
44	891	7	10000	1	1	0	1	0
41	892	7	10000	1	1	0	1	0
40	893	7	10000	1	1	0	1	0
39	894	7	10000	1	1	0	1	0
39	895	7	10000	1	1	0	1	0
37	896	7	10000	1	1	0	1	0
35	897	7	10000	1	1	0	1	0
34	898	7	10000	1	1	0	1	0
33	899	7	10000	1	1	0	1	0
32	900	7	10000	1	1	0	1	0
34	901	7	10000	1	1	0	1	0
37	902	7	10000	1	1	0	1	0
38	903	7	10000	1	1	0	1	0
38	904	7	10000	1	1	0	1	0
37	905	7	10000	1	1	0	1	0
38	906	7	10000	1	1	0	1	0
37	907	7	10000	1	1	0	1	0
35	908	7	10000	1	1	0	1	0
34	909	7	10000	1	1	0	1	0
33	910	7	10000	1	1	0	1	0
32	911	7	10000	1	1	0	1	0
30	912	7	10000	1	1	0	1	0
31	913	7	10000	1	1	0	1	0
31	914	7	10000	1	1	0	1	0
31	915	7	10000	1	1	0	1	0
31	916	7	10000	1	1	0	1	0
29	917	7	10000	1	1	0	1	0
29	918	7	10000	1	1	0	1	0
28	919	7	10000	1	1	0	1	0
28	920	7	10000	1	1	0	1	0
30	921	7	10000	1	1	0	1	0
34	922	7	10000	1	1	0	1	0
35	923	7	10000	1	1	0	1	0
35	924	7	10000	1	1	0	1	0
33	925	7	10000	1	1	0	1	0
34	926	7	10000	1	1	0	1	0
33	927	7	10000	1	1	0	1	0
32	928	7	10000	1	1	0	1	0
34	929	7	10000	1	1	0	1	0
33	930	7	10000	1	1	0	1	0
33	931	7	10000	1	1	0	1	0
32	932	7	10000	1	1	0	1	0
33	933	7	10000	1	1	0	1	0
33	934	7	10000	1	1	0	1	0
33	935	7	10000	1	1	0	1	0
32	936	7	10000	1	1	0	1	0
31	937	7	10000	1	1	0	1	0
30	938	7	10000	1	1	0	1	0
29	939	7	10000	1	1	0	1	0
29	940	7	10000	1	1	0	1	0
30	941	7	10000	1	1	0	1	0
34	942	7	10000	1	1	0	1	0
33	943	7	10000	1	1	0	1	0
32	944	7	10000	1	1	0	1	0
31	945	7	10000	1	1	0	1	0
30	946	7	10000	1	1	0	1	0
29	947	7	10000	1	1	0	1	0
27	948	7	10000	1	1	0	1	0
28	949	7	10000	1	1	0	1	0
27	950	7	10000	1	1	0	1	0
26	951	7	10000	1	1	0	1	0
23	952	7	10000	1	1	0	1	0
24	953	7	10000	1	1	0	1	0
25	954	7	10000	1	1	0	1	0
26	955	7	10000	1	1	0	1	0
25	956	7	10000	1	1	0	1	0
28	957	7	10000	1	1	0	1	0
31	958	7	10000	1	1	0	1	0
29	959	7	10000	1	1	0	1	0
28	960	7	10000	1	1	0	1	0
28	961	7	10000	1	1	0	1	0
30	962	7	10000	1	1	0	1	0
31	963	7	10000	1	1	0	1	0
31	964	7	10000	1	1	0	1	0
32	965	7	10000	1	1	0	1	0
33	966	7	10000	1	1	0	1	0
32	967	7	10000	1	1	0	1	0
32	968	7	10000	1	1	0	1	0
32	969	7	10000	1	1	0	1	0
32	970	7	10000	1	1	0	1	0
32	971	7	10000	1	1	0	1	0
29	972	7	10000	1	1	0	1	0
29	973	7	10000	1	1	0	1	0
28	974	7	10000	1	1	0	1	0
28	975	7	10000	1	1	0	1	0
29	976	7	10000	1	1	0	1	0
27	977	7	10000	1	1	0	1	0
27	978	7	10000	1	1	0	1	0
28	979	7	10000	1	1	0	1	0
27	980	7	10000	1	1	0	1	0
28	981	7	10000	1	1	0	1	0
30	982	7	10000	1	1	0	1	0
29	983	7	10000	1	1	0	1	0
27	984	7	10000	1	1	0	1	0
26	985	7	10000	1	1	0	1	0
26	986	7	10000	1	1	0	1	0
26	987	7	10000	1	1	0	1	0
25	988	7	10000	1	1	0	1	0
26	989	7	10000	1	1	0	1	0
25	990	7	10000	1	1	0	1	0
24	991	7	10000	1	1	0	1	0
22	992	7	10000	1	1	0	1	0
23	993	7	10000	1	1	0	1	0
24	994	7	10000	1	1	0	1	0
23	995	7	10000	1	1	0	1	0
22	996	7	10000	1	1	0	1	0
22	997	7	10000	1	1	0	1	0
22	998	7	10000	1	1	0	1	0
20	999	7	10000	1	1	0	1	0
21	1000	7	10000	1	1	0	1	0
22	1001	7	10000	1	1	0	1	0
14	2	0	10000	2	1	0	2	0
14	3	0	10000	2	1	0	2	0
13	4	0	10000	2	1	0	2	0
15	5	0	10000	2	1	0	2	0
15	6	0	10000	2	1	0	2	0
16	7	0	10000	2	1	0	2	0
16	8	0	10000	2	1	0	2	0
14	9	0	10000	2	1	0	2	0
13	10	0	10000	2	1	0	2	0
13	11	0	10000	2	1	0	2	0
13	12	0	10000	2	1	0	2	0
14	13	0	10000	2	1	0	2	0
13	14	0	10000	2	1	0	2	0
13	15	0	10000	2	1	0	2	0
13	16	0	10000	2	1	0	2	0
12	17	0	10000	2	1	0	2	0
11	18	0	10000	2	1	0	2	0
14	19	0	10000	2	1	0	2	0
14	20	0	10000	2	1	0	2	0
15	21	0	10000	2	1	0	2	0
15	22	0	10000	2	1	0	2	0
15	23	0	10000	2	1	0	2	0
15	24	0	10000	2	1	0	2	0
15	25	0	10000	2	1	0	2	0
16	26	0	10000	2	1	0	2	0
15	27	0	10000	2	1	0	2	0
15	28	0	10000	2	1	0	2	0
14	29	0	10000	2	1	0	2	0
13	30	0	10000	2	1	0	2	0
14	31	0	10000	2	1	0	2	0
14	32	0	10000	2	1	0	2	0
13	33	0	10000	2	1	0	2	0
13	34	0	10000	2	1	0	2	0
13	35	0	10000	2	1	0	2	0
14	36	0	10000	2	1	0	2	0
15	37	0	10000	2	1	0	2	0
14	38	0	10000	2	1	0	2	0
16	39	0	10000	2	1	0	2	0
16	40	0	10000	2	1	0	2	0
15	41	0	10000	2	1	0	2	0
16	42	0	10000	2	1	0	2	0
14	43	0	10000	2	1	0	2	0
14	44	0	10000	2	1	0	2	0
15	45	0	10000	2	1	0	2	0
16	46	0	10000	2	1	0	2	0
16	47	0	10000	2	1	0	2	0
17	48	0	10000	2	1	0	2	0
15	49	0	10000	2	1	0	2	0
18	50	0	10000	2	1	0	2	0
21	51	0	10000	2	1	0	2	0
24	52	0	10000	2	1	0	2	0
24	53	0	10000	2	1	0	2	0
24	54	0	10000	2	1	0	2	0
25	55	0	10000	2	1	0	2	0
24	56	0	10000	2	1	0	2	0
23	57	0	10000	2	1	0	2	0
23	58	0	10000	2	1	0	2	0
24	59	0	10000	2	1	0	2	0
25	60	0	10000	2	1	0	2	0
26	61	0	10000	2	1	0	2	0
29	62	0	10000	2	1	0	2	0
32	63	0	10000	2	1	0	2	0
35	64	0	10000	2	1	0	2	0
37	65	0	10000	2	1	0	2	0
41	66	0	10000	2	1	0	2	0
43	67	0	10000	2	1	0	2	0
43	68	0	10000	2	1	0	2	0
40	69	0	10000	2	1	0	2	0
38	70	0	10000	2	1	0	2	0
37	71	0	10000	2	1	0	2	0
36	72	0	10000	2	1	0	2	0
35	73	0	10000	2	1	0	2	0
34	74	0	10000	2	1	0	2	0
32	75	0	10000	2	1	0	2	0
32	76	0	10000	2	1	0	2	0
31	77	0	10000	2	1	0	2	0
30	78	0	10000	2	1	0	2	0
33	79	0	10000	2	1	0	2	0
32	80	0	10000	2	1	0	2	0
31	81	0	10000	2	1	0	2	0
30	82	0	10000	2	1	0	2	0
29	83	0	10000	2	1	0	2	0
30	84	0	10000	2	1	0	2	0
30	85	0	10000	2	1	0	2	0
31	86	0	10000	2	1	0	2	0
32	87	0	10000	2	1	0	2	0
33	88	0	10000	2	1	0	2	0
32	89	0	10000	2	1	0	2	0
33	90	0	10000	2	1	0	2	0
34	91	0	10000	2	1	0	2	0
35	92	0	10000	2	1	0	2	0
35	93	0	10000	2	1	0	2	0
33	94	0	10000	2	1	0	2	0
32	95	0	10000	2	1	0	2	0
31	96	0	10000	2	1	0	2	0
29	97	0	10000	2	1	0	2	0
29	98	0	10000	2	1	0	2	0
32	99	0	10000	2	1	0	2	0
33	100	0	10000	2	1	0	2	0
34	101	0	10000	2	1	0	2	0
35	102	0	10000	2	1	0	2	0
35	103	0	10000	2	1	0	2	0
35	104	0	10000	2	1	0	2	0
35	105	0	10000	2	1	0	2	0
34	106	0	10000	2	1	0	2	0
33	107	0	10000	2	1	0	2	0
32	108	0	10000	2	1	0	2	0
29	109	0	10000	2	1	0	2	0
29	110	0	10000	2	1	0	2	0
28	111	0	10000	2	1	0	2	0
28	112	0	10000	2	1	0	2	0
29	113	0	10000	2	1	0	2	0
30	114	0	10000	2	1	0	2	0
31	115	0	10000	2	1	0	2	0
29	116	0	10000	2	1	0	2	0
28	117	0	10000	2	1	0	2	0
27	118	0	10000	2	1	0	2	0
29	119	0	10000	2	1	0	2	0
30	120	0	10000	2	1	0	2	0
30	121	0	10000	2	1	0	2	0
30	122	0	10000	2	1	0	2	0
30	123	0	10000	2	1	0	2	0
29	124	0	10000	2	1	0	2	0
28	125	0	10000	2	1	0	2	0
29	126	0	10000	2	1	0	2	0
28	127	0	10000	2	1	0	2	0
28	128	0	10000	2	1	0	2	0
24	129	0	10000	2	1	0	2	0
23	130	0	10000	2	1	0	2	0
23	131	0	10000	2	1	0	2	0
23	132	0	10000	2	1	0	2	0
22	133	0	10000	2	1	0	2	0
23	134	0	10000	2	1	0	2	0
22	135	0	10000	2	1	0	2	0
22	136	0	10000	2	1	0	2	0
22	137	0	10000	2	1	0	2	0
20	138	0	10000	2	1	0	2	0
21	139	0	10000	2	1	0	2	0
21	140	0	10000	2	1	0	2	0
21	141	0	10000	2	1	0	2	0
20	142	0	10000	2	1	0	2	0
19	143	0	10000	2	1	0	2	0
19	144	0	10000	2	1	0	2	0
18	145	0	10000	2	1	0	2	0
18	146	0	10000	2	1	0	2	0
18	147	0	10000	2	1	0	2	0
18	148	0	10000	2	1	0	2	0
17	149	0	10000	2	1	0	2	0
16	150	0	10000	2	1	0	2	0
16	151	0	10000	2	1	0	2	0
16	152	0	10000	2	1	0	2	0
15	153	0	10000	2	1	0	2	0
15	154	0	10000	2	1	0	2	0
15	155	0	10000	2	1	0	2	0
14	156	0	10000	2	1	0	2	0
15	157	0	10000	2	1	0	2	0
14	158	0	10000	2	1	0	2	0
16	159	0	10000	2	1	0	2	0
15	160	0	10000	2	1	0	2	0
15	161	0	10000	2	1	0	2	0
15	162	0	10000	2	1	0	2	0
15	163	0	10000	2	1	0	2	0
15	164	0	10000	2	1	0	2	0
15	165	0	10000	2	1	0	2	0
15	166	0	10000	2	1	0	2	0
16	167	0	10000	2	1	0	2	0
16	168	0	10000	2	1	0	2	0
13	169	0	10000	2	1	0	2	0
13	170	0	10000	2	1	0	2	0
13	171	0	10000	2	1	0	2	0
13	172	0	10000	2	1	0	2	0
13	173	0	10000	2	1	0	2	0
12	174	0	10000	2	1	0	2	0
12	175	0	10000	2	1	0	2	0
11	176	0	10000	2	1	0	2	0
11	177	0	10000	2	1	0	2	0
10	178	0	10000	2	1	0	2	0
12	179	0	10000	2	1	0	2	0
12	180	0	10000	2	1	0	2	0
12	181	0	10000	2	1	0	2	0
12	182	0	10000	2	1	0	2	0
12	183	0	10000	2	1	0	2	0
11	184	0	10000	2	1	0	2	0
11	185	0	10000	2	1	0	2	0
11	186	0	10000	2	1	0	2	0
12	187	0	10000	2	1	0	2	0
13	188	0	10000	2	1	0	2	0
11	189	0	10000	2	1	0	2	0
11	190	0	10000	2	1	0	2	0
11	191	0	10000	2	1	0	2	0
11	192	0	10000	2	1	0	2	0
12	193	0	10000	2	1	0	2	0
12	194	0	10000	2	1	0	2	0
12	195	0	10000	2	1	0	2	0
13	196	0	10000	2	1	0	2	0
12	197	0	10000	2	1	0	2	0
12	198	0	10000	2	1	0	2	0
14	199	0	10000	2	1	0	2	0
15	200	0	10000	2	1	0	2	0
13	201	0	10000	2	1	0	2	0
12	202	0	10000	2	1	0	2	0
13	203	0	10000	2	1	0	2	0
12	204	0	10000	2	1	0	2	0
11	205	0	10000	2	1	0	2	0
12	206	0	10000	2	1	0	2	0
12	207	0	10000	2	1	0	2	0
12	208	0	10000	2	1	0	2	0
11	209	0	10000	2	1	0	2	0
9	210	0	10000	2	1	0	2	0
10	211	0	10000	2	1	0	2	0
10	212	0	10000	2	1	0	2	0
10	213	0	10000	2	1	0	2	0
9	214	0	10000	2	1	0	2	0
9	215	0	10000	2	1	0	2	0
10	216	0	10000	2	1	0	2	0
11	217	0	10000	2	1	0	2	0
10	218	0	10000	2	1	0	2	0
12	219	0	10000	2	1	0	2	0
11	220	0	10000	2	1	0	2	0
11	221	0	10000	2	1	0	2	0
12	222	0	10000	2	1	0	2	0
11	223	0	10000	2	1	0	2	0
12	224	0	10000	2	1	0	2	0
13	225	0	10000	2	1	0	2	0
14	226	0	10000	2	1	0	2	0
13	227	0	10000	2	1	0	2	0
13	228	0	10000	2	1	0	2	0
11	229	0	10000	2	1	0	2	0
13	230	0	10000	2	1	0	2	0
12	231	0	10000	2	1	0	2	0
13	232	0	10000	2	1	0	2	0
13	233	0	10000	2	1	0	2	0
13	234	0	10000	2	1	0	2	0
14	235	0	10000	2	1	0	2	0
14	236	0	10000	2	1	0	2	0
13	237	0	10000	2	1	0	2	0
12	238	0	10000	2	1	0	2	0
14	239	0	10000	2	1	0	2	0
14	240	0	10000	2	1	0	2	0
13	241	0	10000	2	1	0	2	0
13	242	0	10000	2	1	0	2	0
13	243	0	10000	2	1	0	2	0
13	244	0	10000	2	1	0	2	0
13	245	0	10000	2	1	0	2	0
13	246	0	10000	2	1	0	2	0
14	247	0	10000	2	1	0	2	0
14	248	0	10000	2	1	0	2	0
13	249	0	10000	2	1	0	2	0
12	250	0	10000	2	1	0	2	0
12	251	0	10000	2	1	0	2	0
13	252	0	10000	2	1	0	2	0
14	253	0	10000	2	1	0	2	0
14	254	0	10000	2	1	0	2	0
14	255	0	10000	2	1	0	2	0
14	256	0	10000	2	1	0	2	0
13	257	0	10000	2	1	0	2	0
12	258	0	10000	2	1	0	2	0
14	259	0	10000	2	1	0	2	0
14	260	0	10000	2	1	0	2	0
14	261	0	10000	2	1	0	2	0
13	262	0	10000	2	1	0	2	0
13	263	0	10000	2	1	0	2	0
15	264	0	10000	2	1	0	2	0
15	265	0	10000	2	1	0	2	0
15	266	0	10000	2	1	0	2	0
16	267	0	10000	2	1	0	2	0
16	268	0	10000	2	1	0	2	0
14	269	0	10000	2	1	0	2	0
13	270	0	10000	2	1	0	2	0
13	271	0	10000	2	1	0	2	0
13	272	0	10000	2	1	0	2	0
14	273	0	10000	2	1	0	2	0
13	274	0	10000	2	1	0	2	0
13	275	0	10000	2	1	0	2	0
12	276	0	10000	2	1	0	2	0
13	277	0	10000	2	1	0	2	0
12	278	0	10000	2	1	0	2	0
13	279	0	10000	2	1	0	2	0
13	280	0	10000	2	1	0	2	0
13	281	0	10000	2	1	0	2	0
12	282	0	10000	2	1	0	2	0
12	283	0	10000	2	1	0	2	0
13	284	0	10000	2	1	0	2	0
13	285	0	10000	2	1	0	2	0
14	286	0	10000	2	1	0	2	0
13	287	0	10000	2	1	0	2	0
14	288	0	10000	2	1	0	2	0
11	289	0	10000	2	1	0	2	0
11	290	0	10000	2	1	0	2	0
11	291	0	10000	2	1	0	2	0
11	292	0	10000	2	1	0	2	0
12	293	0	10000	2	1	0	2	0
11	294	0	10000	2	1	0	2	0
12	295	0	10000	2	1	0	2	0
12	296	0	10000	2	1	0	2	0
12	297	0	10000	2	1	0	2	0
12	298	0	10000	2	1	0	2	0
14	299	0	10000	2	1	0	2	0
13	300	0	10000	2	1	0	2	0
13	301	0	10000	2	1	0	2	0
13	302	0	10000	2	1	0	2	0
13	303	0	10000	2	1	0	2	0
12	304	0	10000	2	1	0	2	0
12	305	0	10000	2	1	0	2	0
13	306	0	10000	2	1	0	2	0
14	307	0	10000	2	1	0	2	0
14	308	0	10000	2	1	0	2	0
12	309	0	10000	2	1	0	2	0
12	310	0	10000	2	1	0	2	0
13	311	0	10000	2	1	0	2	0
11	312	0	10000	2	1	0	2	0
12	313	0	10000	2	1	0	2	0
11	314	0	10000	2	1	0	2	0
11	315	0	10000	2	1	0	2	0
11	316	0	10000	2	1	0	2	0
10	317	0	10000	2	1	0	2	0
9	318	0	10000	2	1	0	2	0
12	319	0	10000	2	1	0	2	0
11	320	0	10000	2	1	0	2	0
11	321	0	10000	2	1	0	2	0
11	322	0	10000	2	1	0	2	0
10	323	0	10000	2	1	0	2	0
11	324	0	10000	2	1	0	2	0
11	325	0	10000	2	1	0	2	0
12	326	0	10000	2	1	0	2	0
13	327	0	10000	2	1	0	2	0
13	328	0	10000	2	1	0	2	0
11	329	0	10000	2	1	0	2	0
11	330	0	10000	2	1	0	2	0
11	331	0	10000	2	1	0	2	0
12	332	0	10000	2	1	0	2	0
12	333	0	10000	2	1	0	2	0
14	334	0	10000	2	1	0	2	0
17	335	0	10000	2	1	0	2	0
21	336	0	10000	2	1	0	2	0
28	337	0	10000	2	1	0	2	0
31	338	0	10000	2	1	0	2	0
34	339	0	10000	2	1	0	2	0
34	340	0	10000	2	1	0	2	0
33	341	0	10000	2	1	0	2	0
32	342	0	10000	2	1	0	2	0
35	343	0	10000	2	1	0	2	0
44	344	0	10000	2	1	0	2	0
54	345	0	10000	2	1	0	2	0
56	346	0	10000	2	1	0	2	0
54	347	0	10000	2	1	0	2	0
53	348	0	10000	2	1	0	2	0
53	349	0	10000	2	1	0	2	0
59	350	0	10000	2	1	0	2	0
73	351	0	10000	2	1	0	2	0
118	352	0	10000	2	1	0	2	0
137	353	0	10000	2	1	0	2	0
139	354	0	10000	2	1	0	2	0
146	355	0	10000	2	1	0	2	0
155	356	0	10000	2	1	0	2	0
157	357	0	10000	2	1	0	2	0
177	358	0	10000	2	1	0	2	0
200	359	0	10000	2	1	0	2	0
200	360	0	10000	2	1	0	2	0
220	361	0	10000	2	1	0	2	0
237	362	0	10000	2	1	0	2	0
239	363	0	10000	2	1	0	2	0
234	364	0	10000	2	1	0	2	0
228	365	0	10000	2	1	0	2	0
224	366	0	10000	2	1	0	2	0
219	367	0	10000	2	1	0	2	0
219	368	0	10000	2	1	0	2	0
208	369	0	10000	2	1	0	2	0
210	370	0	10000	2	1	0	2	0
218	371	0	10000	2	1	0	2	0
225	372	0	10000	2	1	0	2	0
230	373	0	10000	2	1	0	2	0
236	374	0	10000	2	1	0	2	0
247	375	0	10000	2	1	0	2	0
240	376	0	10000	2	1	0	2	0
233	377	0	10000	2	1	0	2	0
228	378	0	10000	2	1	0	2	0
225	379	0	10000	2	1	0	2	0
219	380	0	10000	2	1	0	2	0
214	381	0	10000	2	1	0	2	0
206	382	0	10000	2	1	0	2	0
205	383	0	10000	2	1	0	2	0
203	384	0	10000	2	1	0	2	0
195	385	0	10000	2	1	0	2	0
191	386	0	10000	2	1	0	2	0
193	387	0	10000	2	1	0	2	0
188	388	0	10000	2	1	0	2	0
182	389	0	10000	2	1	0	2	0
175	390	0	10000	2	1	0	2	0
172	391	0	10000	2	1	0	2	0
173	392	0	10000	2	1	0	2	0
170	393	0	10000	2	1	0	2	0
163	394	0	10000	2	1	0	2	0
160	395	0	10000	2	1	0	2	0
153	396	0	10000	2	1	0	2	0
146	397	0	10000	2	1	0	2	0
140	398	0	10000	2	1	0	2	0
138	399	0	10000	2	1	0	2	0
142	400	0	10000	2	1	0	2	0
146	401	0	10000	2	1	0	2	0
148	402	0	10000	2	1	0	2	0
149	403	0	10000	2	1	0	2	0
147	404	0	10000	2	1	0	2	0
149	405	0	10000	2	1	0	2	0
153	406	0	10000	2	1	0	2	0
153	407	0	10000	2	1	0	2	0
152	408	0	10000	2	1	0	2	0
154	409	0	10000	2	1	0	2	0
161	410	0	10000	2	1	0	2	0
164	411	0	10000	2	1	0	2	0
162	412	0	10000	2	1	0	2	0
160	413	0	10000	2	1	0	2	0
156	414	0	10000	2	1	0	2	0
154	415	0	10000	2	1	0	2	0
151	416	0	10000	2	1	0	2	0
147	417	0	10000	2	1	0	2	0
147	418	0	10000	2	1	0	2	0
147	419	0	10000	2	1	0	2	0
151	420	0	10000	2	1	0	2	0
154	421	0	10000	2	1	0	2	0
157	422	0	10000	2	1	0	2	0
154	423	0	10000	2	1	0	2	0
151	424	0	10000	2	1	0	2	0
147	425	0	10000	2	1	0	2	0
146	426	0	10000	2	1	0	2	0
143	427	0	10000	2	1	0	2	0
141	428	0	10000	2	1	0	2	0
138	429	0	10000	2	1	0	2	0
136	430	0	10000	2	1	0	2	0
134	431	0	10000	2	1	0	2	0
132	432	0	10000	2	1	0	2	0
130	433	0	10000	2	1	0	2	0
126	434	0	10000	2	1	0	2	0
122	435	0	10000	2	1	0	2	0
118	436	0	10000	2	1	0	2	0
114	437	0	10000	2	1	0	2	0
112	438	0	10000	2	1	0	2	0
113	439	0	10000	2	1	0	2	0
110	440	0	10000	2	1	0	2	0
106	441	0	10000	2	1	0	2	0
103	442	0	10000	2	1	0	2	0
99	443	0	10000	2	1	0	2	0
95	444	0	10000	2	1	0	2	0
91	445	0	10000	2	1	0	2	0
90	446	0	10000	2	1	0	2	0
89	447	0	10000	2	1	0	2	0
87	448	0	10000	2	1	0	2	0
84	449	0	10000	2	1	0	2	0
85	450	0	10000	2	1	0	2	0
88	451	0	10000	2	1	0	2	0
91	452	0	10000	2	1	0	2	0
92	453	0	10000	2	1	0	2	0
92	454	0	10000	2	1	0	2	0
92	455	0	10000	2	1	0	2	0
89	456	0	10000	2	1	0	2	0
85	457	0	10000	2	1	0	2	0
82	458	0	10000	2	1	0	2	0
81	459	0	10000	2	1	0	2	0
79	460	0	10000	2	1	0	2	0
74	461	0	10000	2	1	0	2	0
71	462	0	10000	2	1	0	2	0
68	463	0	10000	2	1	0	2	0
66	464	0	10000	2	1	0	2	0
64	465	0	10000	2	1	0	2	0
62	466	0	10000	2	1	0	2	0
61	467	0	10000	2	1	0	2	0
60	468	0	10000	2	1	0	2	0
57	469	0	10000	2	1	0	2	0
56	470	0	10000	2	1	0	2	0
55	471	0	10000	2	1	0	2	0
53	472	0	10000	2	1	0	2	0
52	473	0	10000	2	1	0	2	0
49	474	0	10000	2	1	0	2	0
48	475	0	10000	2	1	0	2	0
46	476	0	10000	2	1	0	2	0
47	477	0	10000	2	1	0	2	0
48	478	0	10000	2	1	0	2	0
53	479	0	10000	2	1	0	2	0
56	480	0	10000	2	1	0	2	0
58	481	0	10000	2	1	0	2	0
58	482	0	10000	2	1	0	2	0
58	483	0	10000	2	1	0	2	0
59	484	0	10000	2	1	0	2	0
60	485	0	10000	2	1	0	2	0
63	486	0	10000	2	1	0	2	0
65	487	0	10000	2	1	0	2	0
67	488	0	10000	2	1	0	2	0
67	489	0	10000	2	1	0	2	0
68	490	0	10000	2	1	0	2	0
69	491	0	10000	2	1	0	2	0
70	492	0	10000	2	1	0	2	0
69	493	0	10000	2	1	0	2	0
69	494	0	10000	2	1	0	2	0
68	495	0	10000	2	1	0	2	0
67	496	0	10000	2	1	0	2	0
68	497	0	10000	2	1	0	2	0
68	498	0	10000	2	1	0	2	0
70	499	0	10000	2	1	0	2	0
70	500	0	10000	2	1	0	2	0
70	501	0	10000	2	1	0	2	0
70	501	0	10000	2	1	0	2	1
69	502	0	10000	2	1	0	2	1
69	504	0	10000	2	1	0	2	1
70	505	0	10000	2	1	0	2	1
71	506	0	10000	2	1	0	2	1
72	507	0	10000	2	1	0	2	1
71	508	0	10000	2	1	0	2	1
68	509	0	10000	2	1	0	2	1
68	510	0	10000	2	1	0	2	1
67	511	0	10000	2	1	0	2	1
67	512	0	10000	2	1	0	2	1
66	513	0	10000	2	1	0	2	1
65	514	0	10000	2	1	0	2	1
64	515	0	10000	2	1	0	2	1
62	516	0	10000	2	1	0	2	1
61	517	0	10000	2	1	0	2	1
60	518	0	10000	2	1	0	2	1
61	519	0	10000	2	1	0	2	1
63	520	0	10000	2	1	0	2	1
63	521	0	10000	2	1	0	2	1
65	522	0	10000	2	1	0	2	1
65	523	0	10000	2	1	0	2	1
65	524	0	10000	2	1	0	2	1
65	525	0	10000	2	1	0	2	1
65	526	0	10000	2	1	0	2	1
65	527	0	10000	2	1	0	2	1
65	528	0	10000	2	1	0	2	1
60	529	0	10000	2	1	0	2	1
58	530	0	10000	2	1	0	2	1
57	531	0	10000	2	1	0	2	1
56	532	0	10000	2	1	0	2	1
56	533	0	10000	2	1	0	2	1
54	534	0	10000	2	1	0	2	1
52	535	0	10000	2	1	0	2	1
51	536	0	10000	2	1	0	2	1
50	537	0	10000	2	1	0	2	1
48	538	0	10000	2	1	0	2	1
49	539	0	10000	2	1	0	2	1
47	540	0	10000	2	1	0	2	1
47	541	0	10000	2	1	0	2	1
46	542	0	10000	2	1	0	2	1
46	543	0	10000	2	1	0	2	1
45	544	0	10000	2	1	0	2	1
44	545	0	10000	2	1	0	2	1
44	546	0	10000	2	1	0	2	1
44	547	0	10000	2	1	0	2	1
43	548	0	10000	2	1	0	2	1
41	549	0	10000	2	1	0	2	1
39	550	0	10000	2	1	0	2	1
38	551	0	10000	2	1	0	2	1
38	552	0	10000	2	1	0	2	0
38	553	0	10000	2	1	0	2	0
37	554	0	10000	2	1	0	2	0
35	555	0	10000	2	1	0	2	0
35	556	0	10000	2	1	0	2	0
33	557	0	10000	2	1	0	2	0
31	558	0	10000	2	1	0	2	0
32	559	0	10000	2	1	0	2	0
31	560	0	10000	2	1	0	2	0
31	561	0	10000	2	1	0	2	0
32	562	0	10000	2	1	0	2	0
31	563	0	10000	2	1	0	2	0
31	564	0	10000	2	1	0	2	0
31	565	0	10000	2	1	0	2	0
30	566	0	10000	2	1	0	2	0
30	567	0	10000	2	1	0	2	0
29	568	0	10000	2	1	0	2	0
27	569	0	10000	2	1	0	2	0
27	570	0	10000	2	1	0	2	0
27	571	0	10000	2	1	0	2	0
27	572	0	10000	2	1	0	2	0
27	573	0	10000	2	1	0	2	0
26	574	0	10000	2	1	0	2	0
25	575	0	10000	2	1	0	2	0
23	576	0	10000	2	1	0	2	0
22	577	0	10000	2	1	0	2	0
22	578	0	10000	2	1	0	2	0
23	579	0	10000	2	1	0	2	0
22	580	0	10000	2	1	0	2	0
23	581	0	10000	2	1	0	2	0
24	582	0	10000	2	1	0	2	0
25	583	0	10000	2	1	0	2	0
24	584	0	10000	2	1	0	2	0
24	585	0	10000	2	1	0	2	0
25	586	0	10000	2	1	0	2	0
29	587	0	10000	2	1	0	2	0
43	588	0	10000	2	1	0	2	0
61	589	0	10000	2	1	0	2	0
71	590	0	10000	2	1	0	2	0
76	591	0	10000	2	1	0	2	0
89	592	0	10000	2	1	0	2	0
97	593	0	10000	2	1	0	2	0
114	594	0	10000	2	1	0	2	0
139	595	0	10000	2	1	0	2	0
151	596	0	10000	2	1	0	2	0
196	597	0	10000	2	1	0	2	0
246	598	0	10000	2	1	0	2	0
263	599	0	10000	2	1	0	2	0
277	600	0	10000	2	1	0	2	0
315	601	0	10000	2	1	0	2	0
326	602	0	10000	2	1	0	2	0
367	603	0	10000	2	1	0	2	0
461	604	0	10000	2	1	0	2	0
483	605	0	10000	2	1	0	2	0
489	606	0	10000	2	1	0	2	0
518	607	0	10000	2	1	0	2	0
538	608	0	10000	2	1	0	2	0
542	609	0	10000	2	1	0	2	0
546	610	0	10000	2	1	0	2	0
552	611	0	10000	2	1	0	2	0
554	612	0	10000	2	1	0	2	0
573	613	0	10000	2	1	0	2	0
596	614	0	10000	2	1	0	2	0
586	615	0	10000	2	1	0	2	0
632	616	0	10000	2	1	0	2	0
705	617	0	10000	2	1	0	2	0
706	618	0	10000	2	1	0	2	0
697	619	0	10000	2	1	0	2	0
695	620	0	10000	2	1	0	2	0
685	621	0	10000	2	1	0	2	0
684	622	0	10000	2	1	0	2	0
695	623	0	10000	2	1	0	2	0
693	624	0	10000	2	1	0	2	0
670	625	0	10000	2	1	0	2	0
640	626	0	10000	2	1	0	2	0
614	627	0	10000	2	1	0	2	0
592	628	0	10000	2	1	0	2	0
572	629	0	10000	2	1	0	2	0
558	630	0	10000	2	1	0	2	0
542	631	0	10000	2	1	0	2	0
525	632	0	10000	2	1	0	2	0
507	633	0	10000	2	1	0	2	0
488	634	0	10000	2	1	0	2	0
469	635	0	10000	2	1	0	2	0
449	636	0	10000	2	1	0	2	0
428	637	0	10000	2	1	0	2	0
410	638	0	10000	2	1	0	2	0
395	639	0	10000	2	1	0	2	0
381	640	0	10000	2	1	0	2	0
369	641	0	10000	2	1	0	2	0
357	642	0	10000	2	1	0	2	0
347	643	0	10000	2	1	0	2	0
338	644	0	10000	2	1	0	2	0
331	645	0	10000	2	1	0	2	0
327	646	0	10000	2	1	0	2	0
324	647	0	10000	2	1	0	2	0
322	648	0	10000	2	1	0	2	0
319	649	0	10000	2	1	0	2	0
320	650	0	10000	2	1	0	2	0
321	651	0	10000	2	1	0	2	0
324	652	0	10000	2	1	0	2	0
327	653	0	10000	2	1	0	2	0
331	654	0	10000	2	1	0	2	0
335	655	0	10000	2	1	0	2	0
339	656	0	10000	2	1	0	2	0
341	657	0	10000	2	1	0	2	0
344	658	0	10000	2	1	0	2	0
350	659	0	10000	2	1	0	2	0
352	660	0	10000	2	1	0	2	0
354	661	0	10000	2	1	0	2	0
355	662	0	10000	2	1	0	2	0
355	663	0	10000	2	1	0	2	0
354	664	0	10000	2	1	0	2	0
351	665	0	10000	2	1	0	2	0
349	666	0	10000	2	1	0	2	0
345	667	0	10000	2	1	0	2	0
341	668	0	10000	2	1	0	2	0
334	669	0	10000	2	1	0	2	0
330	670	0	10000	2	1	0	2	0
326	671	0	10000	2	1	0	2	0
321	672	0	10000	2	1	0	2	0
313	673	0	10000	2	1	0	2	0
306	674	0	10000	2	1	0	2	0
299	675	0	10000	2	1	0	2	0
292	676	0	10000	2	1	0	2	0
285	677	0	10000	2	1	0	2	0
277	678	0	10000	2	1	0	2	0
271	679	0	10000	2	1	0	2	0
260	680	0	10000	2	1	0	2	0
247	681	0	10000	2	1	0	2	0
238	682	0	10000	2	1	0	2	0
231	683	0	10000	2	1	0	2	0
227	684	0	10000	2	1	0	2	0
225	685	0	10000	2	1	0	2	0
222	686	0	10000	2	1	0	2	0
220	687	0	10000	2	1	0	2	0
220	688	0	10000	2	1	0	2	0
217	689	0	10000	2	1	0	2	0
218	690	0	10000	2	1	0	2	0
218	691	0	10000	2	1	0	2	0
218	692	0	10000	2	1	0	2	0
219	693	0	10000	2	1	0	2	0
221	694	0	10000	2	1	0	2	0
223	695	0	10000	2	1	0	2	0
225	696	0	10000	2	1	0	2	0
228	697	0	10000	2	1	0	2	0
231	698	0	10000	2	1	0	2	0
235	699	0	10000	2	1	0	2	0
237	700	0	10000	2	1	0	2	0
240	701	0	10000	2	1	0	2	0
242	702	0	10000	2	1	0	2	0
246	703	0	10000	2	1	0	2	0
249	704	0	10000	2	1	0	2	0
254	705	0	10000	2	1	0	2	0
259	706	0	10000	2	1	0	2	0
264	707	0	10000	2	1	0	2	0
270	708	0	10000	2	1	0	2	0
272	709	0	10000	2	1	0	2	0
275	710	0	10000	2	1	0	2	0
277	711	0	10000	2	1	0	2	0
277	712	0	10000	2	1	0	2	0
277	713	0	10000	2	1	0	2	0
277	714	0	10000	2	1	0	2	0
277	715	0	10000	2	1	0	2	0
275	716	0	10000	2	1	0	2	0
275	717	0	10000	2	1	0	2	0
273	718	0	10000	2	1	0	2	0
275	719	0	10000	2	1	0	2	0
273	720	0	10000	2	1	0	2	0
271	721	0	10000	2	1	0	2	0
270	722	0	10000	2	1	0	2	0
269	723	0	10000	2	1	0	2	0
268	724	0	10000	2	1	0	2	0
268	725	0	10000	2	1	0	2	0
268	726	0	10000	2	1	0	2	0
268	727	0	10000	2	1	0	2	0
267	728	0	10000	2	1	0	2	0
262	729	0	10000	2	1	0	2	0
258	730	0	10000	2	1	0	2	0
253	731	0	10000	2	1	0	2	0
247	732	0	10000	2	1	0	2	0
239	733	0	10000	2	1	0	2	0
233	734	0	10000	2	1	0	2	0
227	735	0	10000	2	1	0	2	0
219	736	0	10000	2	1	0	2	0
213	737	0	10000	2	1	0	2	0
205	738	0	10000	2	1	0	2	0
200	739	0	10000	2	1	0	2	0
194	740	0	10000	2	1	0	2	0
188	741	0	10000	2	1	0	2	0
182	742	0	10000	2	1	0	2	0
177	743	0	10000	2	1	0	2	0
173	744	0	10000	2	1	0	2	0
169	745	0	10000	2	1	0	2	0
164	746	0	10000	2	1	0	2	0
160	747	0	10000	2	1	0	2	0
155	748	0	10000	2	1	0	2	0
148	749	0	10000	2	1	0	2	0
142	750	0	10000	2	1	0	2	0
136	751	0	10000	2	1	0	2	0
130	752	0	10000	2	1	0	2	0
126	753	0	10000	2	1	0	2	0
120	754	0	10000	2	1	0	2	0
115	755	0	10000	2	1	0	2	0
110	756	0	10000	2	1	0	2	0
105	757	0	10000	2	1	0	2	0
102	758	0	10000	2	1	0	2	0
100	759	0	10000	2	1	0	2	0
96	760	0	10000	2	1	0	2	0
92	761	0	10000	2	1	0	2	0
88	762	0	10000	2	1	0	2	0
84	763	0	10000	2	1	0	2	0
80	764	0	10000	2	1	0	2	0
77	765	0	10000	2	1	0	2	0
76	766	0	10000	2	1	0	2	0
72	767	0	10000	2	1	0	2	0
70	768	0	10000	2	1	0	2	0
67	769	0	10000	2	1	0	2	0
66	770	0	10000	2	1	0	2	0
66	771	0	10000	2	1	0	2	0
65	772	0	10000	2	1	0	2	0
65	773	0	10000	2	1	0	2	0
64	774	0	10000	2	1	0	2	0
64	775	0	10000	2	1	0	2	0
63	776	0	10000	2	1	0	2	0
62	777	0	10000	2	1	0	2	0
62	778	0	10000	2	1	0	2	0
65	779	0	10000	2	1	0	2	0
63	780	0	10000	2	1	0	2	0
62	781	0	10000	2	1	0	2	0
60	782	0	10000	2	1	0	2	0
59	783	0	10000	2	1	0	2	0
56	784	0	10000	2	1	0	2	0
55	785	0	10000	2	1	0	2	0
54	786	0	10000	2	1	0	2	0
53	787	0	10000	2	1	0	2	0
52	788	0	10000	2	1	0	2	0
48	789	0	10000	2	1	0	2	0
47	790	0	10000	2	1	0	2	0
46	791	0	10000	2	1	0	2	0
47	792	0	10000	2	1	0	2	0
47	793	0	10000	2	1	0	2	0
48	794	0	10000	2	1	0	2	0
50	795	0	10000	2	1	0	2	0
50	796	0	10000	2	1	0	2	0
52	797	0	10000	2	1	0	2	0
53	798	0	10000	2	1	0	2	0
57	799	0	10000	2	1	0	2	0
57	800	0	10000	2	1	0	2	0
55	801	0	10000	2	1	0	2	0
52	802	0	10000	2	1	0	2	0
50	803	0	10000	2	1	0	2	0
48	804	0	10000	2	1	0	2	0
46	805	0	10000	2	1	0	2	0
44	806	0	10000	2	1	0	2	0
44	807	0	10000	2	1	0	2	0
44	808	0	10000	2	1	0	2	0
42	809	0	10000	2	1	0	2	0
41	810	0	10000	2	1	0	2	0
42	811	0	10000	2	1	0	2	0
42	812	0	10000	2	1	0	2	0
42	813	0	10000	2	1	0	2	0
40	814	0	10000	2	1	0	2	0
42	815	0	10000	2	1	0	2	0
41	816	0	10000	2	1	0	2	0
41	817	0	10000	2	1	0	2	0
40	818	0	10000	2	1	0	2	0
42	819	0	10000	2	1	0	2	0
41	820	0	10000	2	1	0	2	0
40	821	0	10000	2	1	0	2	0
38	822	0	10000	2	1	0	2	0
36	823	0	10000	2	1	0	2	0
34	824	0	10000	2	1	0	2	0
33	825	0	10000	2	1	0	2	0
33	826	0	10000	2	1	0	2	0
31	827	0	10000	2	1	0	2	0
31	828	0	10000	2	1	0	2	0
28	829	0	10000	2	1	0	2	0
29	830	0	10000	2	1	0	2	0
30	831	0	10000	2	1	0	2	0
30	832	0	10000	2	1	0	2	0
30	833	0	10000	2	1	0	2	0
30	834	0	10000	2	1	0	2	0
31	835	0	10000	2	1	0	2	0
32	836	0	10000	2	1	0	2	0
32	837	0	10000	2	1	0	2	0
32	838	0	10000	2	1	0	2	0
35	839	0	10000	2	1	0	2	0
35	840	0	10000	2	1	0	2	0
34	841	0	10000	2	1	0	2	0
33	842	0	10000	2	1	0	2	0
32	843	0	10000	2	1	0	2	0
32	844	0	10000	2	1	0	2	0
30	845	0	10000	2	1	0	2	0
30	846	0	10000	2	1	0	2	0
31	847	0	10000	2	1	0	2	0
29	848	0	10000	2	1	0	2	0
26	849	0	10000	2	1	0	2	0
27	850	0	10000	2	1	0	2	0
27	851	0	10000	2	1	0	2	0
27	852	0	10000	2	1	0	2	0
27	853	0	10000	2	1	0	2	0
26	854	0	10000	2	1	0	2	0
27	855	0	10000	2	1	0	2	0
25	856	0	10000	2	1	0	2	0
24	857	0	10000	2	1	0	2	0
24	858	0	10000	2	1	0	2	0
26	859	0	10000	2	1	0	2	0
27	860	0	10000	2	1	0	2	0
26	861	0	10000	2	1	0	2	0
24	862	0	10000	2	1	0	2	0
24	863	0	10000	2	1	0	2	0
23	864	0	10000	2	1	0	2	0
22	865	0	10000	2	1	0	2	0
22	866	0	10000	2	1	0	2	0
21	867	0	10000	2	1	0	2	0
21	868	0	10000	2	1	0	2	0
18	869	0	10000	2	1	0	2	0
18	870	0	10000	2	1	0	2	0
19	871	0	10000	2	1	0	2	0
20	872	0	10000	2	1	0	2	0
22	873	0	10000	2	1	0	2	0
23	874	0	10000	2	1	0	2	0
26	875	0	10000	2	1	0	2	0
27	876	0	10000	2	1	0	2	0
28	877	0	10000	2	1	0	2	0
30	878	0	10000	2	1	0	2	0
32	879	0	10000	2	1	0	2	0
32	880	0	10000	2	1	0	2	0
31	881	0	10000	2	1	0	2	0
29	882	0	10000	2	1	0	2	0
28	883	0	10000	2	1	0	2	0
27	884	0	10000	2	1	0	2	0
26	885	0	10000	2	1	0	2	0
26	886	0	10000	2	1	0	2	0
25	887	0	10000	2	1	0	2	0
25	888	0	10000	2	1	0	2	0
23	889	0	10000	2	1	0	2	0
22	890	0	10000	2	1	0	2	0
22	891	0	10000	2	1	0	2	0
22	892	0	10000	2	1	0	2	0
22	893	0	10000	2	1	0	2	0
22	894	0	10000	2	1	0	2	0
22	895	0	10000	2	1	0	2	0
21	896	0	10000	2	1	0	2	0
20	897	0	10000	2	1	0	2	0
20	898	0	10000	2	1	0	2	0
22	899	0	10000	2	1	0	2	0
22	900	0	10000	2	1	0	2	0
20	901	0	10000	2	1	0	2	0
20	902	0	10000	2	1	0	2	0
19	903	0	10000	2	1	0	2	0
19	904	0	10000	2	1	0	2	0
18	905	0	10000	2	1	0	2	0
18	906	0	10000	2	1	0	2	0
18	907	0	10000	2	1	0	2	0
17	908	0	10000	2	1	0	2	0
16	909	0	10000	2	1	0	2	0
16	910	0	10000	2	1	0	2	0
17	911	0	10000	2	1	0	2	0
18	912	0	10000	2	1	0	2	0
17	913	0	10000	2	1	0	2	0
17	914	0	10000	2	1	0	2	0
17	915	0	10000	2	1	0	2	0
16	916	0	10000	2	1	0	2	0
15	917	0	10000	2	1	0	2	0
15	918	0	10000	2	1	0	2	0
17	919	0	10000	2	1	0	2	0
17	920	0	10000	2	1	0	2	0
18	921	0	10000	2	1	0	2	0
18	922	0	10000	2	1	0	2	0
19	923	0	10000	2	1	0	2	0
18	924	0	10000	2	1	0	2	0
17	925	0	10000	2	1	0	2	0
17	926	0	10000	2	1	0	2	0
17	927	0	10000	2	1	0	2	0
19	928	0	10000	2	1	0	2	0
16	929	0	10000	2	1	0	2	0
15	930	0	10000	2	1	0	2	0
15	931	0	10000	2	1	0	2	0
15	932	0	10000	2	1	0	2	0
15	933	0	10000	2	1	0	2	0
15	934	0	10000	2	1	0	2	0
16	935	0	10000	2	1	0	2	0
16	936	0	10000	2	1	0	2	0
15	937	0	10000	2	1	0	2	0
15	938	0	10000	2	1	0	2	0
17	939	0	10000	2	1	0	2	0
16	940	0	10000	2	1	0	2	0
15	941	0	10000	2	1	0	2	0
14	942	0	10000	2	1	0	2	0
14	943	0	10000	2	1	0	2	0
14	944	0	10000	2	1	0	2	0
13	945	0	10000	2	1	0	2	0
13	946	0	10000	2	1	0	2	0
14	947	0	10000	2	1	0	2	0
14	948	0	10000	2	1	0	2	0
13	949	0	10000	2	1	0	2	0
13	950	0	10000	2	1	0	2	0
14	951	0	10000	2	1	0	2	0
14	952	0	10000	2	1	0	2	0
13	953	0	10000	2	1	0	2	0
14	954	0	10000	2	1	0	2	0
15	955	0	10000	2	1	0	2	0
15	956	0	10000	2	1	0	2	0
15	957	0	10000	2	1	0	2	0
15	958	0	10000	2	1	0	2	0
17	959	0	10000	2	1	0	2	0
18	960	0	10000	2	1	0	2	0
17	961	0	10000	2	1	0	2	0
17	962	0	10000	2	1	0	2	0
16	963	0	10000	2	1	0	2	0
15	964	0	10000	2	1	0	2	0
14	965	0	10000	2	1	0	2	0
14	966	0	10000	2	1	0	2	0
14	967	0	10000	2	1	0	2	0
14	968	0	10000	2	1	0	2	0
12	969	0	10000	2	1	0	2	0
14	970	0	10000	2	1	0	2	0
13	971	0	10000	2	1	0	2	0
13	972	0	10000	2	1	0	2	0
13	973	0	10000	2	1	0	2	0
13	974	0	10000	2	1	0	2	0
14	975	0	10000	2	1	0	2	0
15	976	0	10000	2	1	0	2	0
15	977	0	10000	2	1	0	2	0
16	978	0	10000	2	1	0	2	0
20	979	0	10000	2	1	0	2	0
21	980	0	10000	2	1	0	2	0
21	981	0	10000	2	1	0	2	0
20	982	0	10000	2	1	0	2	0
20	983	0	10000	2	1	0	2	0
19	984	0	10000	2	1	0	2	0
19	985	0	10000	2	1	0	2	0
19	986	0	10000	2	1	0	2	0
19	987	0	10000	2	1	0	2	0
18	988	0	10000	2	1	0	2	0
16	989	0	10000	2	1	0	2	0
15	990	0	10000	2	1	0	2	0
15	991	0	10000	2	1	0	2	0
15	992	0	10000	2	1	0	2	0
15	993	0	10000	2	1	0	2	0
14	994	0	10000	2	1	0	2	0
14	995	0	10000	2	1	0	2	0
14	996	0	10000	2	1	0	2	0
13	997	0	10000	2	1	0	2	0
13	998	0	10000	2	1	0	2	0
14	999	0	10000	2	1	0	2	0
14	1000	0	10000	2	1	0	2	0
14	1001	0	10000	2	1	0	2	0
15	2	7	10000	3	1	0	3	0
18	3	7	10000	3	1	0	3	0
17	4	7	10000	3	1	0	3	0
16	5	7	10000	3	1	0	3	0
16	6	7	10000	3	1	0	3	0
16	7	7	10000	3	1	0	3	0
15	8	7	10000	3	1	0	3	0
15	9	7	10000	3	1	0	3	0
15	10	7	10000	3	1	0	3	0
15	11	7	10000	3	1	0	3	0
16	12	7	10000	3	1	0	3	0
13	13	7	10000	3	1	0	3	0
14	14	7	10000	3	1	0	3	0
13	15	7	10000	3	1	0	3	0
14	16	7	10000	3	1	0	3	0
13	17	7	10000	3	1	0	3	0
13	18	7	10000	3	1	0	3	0
13	19	7	10000	3	1	0	3	0
12	20	7	10000	3	1	0	3	0
12	21	7	10000	3	1	0	3	0
12	21	7	10000	3	1	0	3	0
15	22	7	10000	3	1	0	3	0
16	24	7	10000	3	1	0	3	0
16	25	7	10000	3	1	0	3	0
15	26	7	10000	3	1	0	3	0
15	27	7	10000	3	1	0	3	0
15	28	7	10000	3	1	0	3	0
14	29	7	10000	3	1	0	3	0
14	30	7	10000	3	1	0	3	0
14	31	7	10000	3	1	0	3	0
15	31	7	10000	3	1	0	3	0
13	32	7	10000	3	1	0	3	0
12	34	7	10000	3	1	0	3	0
13	35	7	10000	3	1	0	3	0
12	36	7	10000	3	1	0	3	0
12	37	7	10000	3	1	0	3	0
12	38	7	10000	3	1	0	3	0
12	39	7	10000	3	1	0	3	0
12	40	7	10000	3	1	0	3	0
11	41	7	10000	3	1	0	3	0
12	41	7	10000	3	1	0	3	0
14	42	7	10000	3	1	0	3	0
14	44	7	10000	3	1	0	3	0
14	45	7	10000	3	1	0	3	0
14	46	7	10000	3	1	0	3	0
14	47	7	10000	3	1	0	3	0
15	48	7	10000	3	1	0	3	0
15	49	7	10000	3	1	0	3	0
15	50	7	10000	3	1	0	3	0
16	51	7	10000	3	1	0	3	0
17	51	7	10000	3	1	0	3	0
14	52	7	10000	3	1	0	3	0
15	54	7	10000	3	1	0	3	0
16	55	7	10000	3	1	0	3	0
16	56	7	10000	3	1	0	3	0
16	57	7	10000	3	1	0	3	0
18	58	7	10000	3	1	0	3	0
19	59	7	10000	3	1	0	3	0
20	60	7	10000	3	1	0	3	0
21	61	7	10000	3	1	0	3	0
22	61	7	10000	3	1	0	3	0
24	62	7	10000	3	1	0	3	0
24	64	7	10000	3	1	0	3	0
23	65	7	10000	3	1	0	3	0
23	66	7	10000	3	1	0	3	0
22	67	7	10000	3	1	0	3	0
22	68	7	10000	3	1	0	3	0
24	69	7	10000	3	1	0	3	0
25	70	7	10000	3	1	0	3	0
28	71	7	10000	3	1	0	3	0
30	71	7	10000	3	1	0	3	0
31	72	7	10000	3	1	0	3	0
35	74	7	10000	3	1	0	3	0
39	75	7	10000	3	1	0	3	0
43	76	7	10000	3	1	0	3	0
44	77	7	10000	3	1	0	3	0
44	78	7	10000	3	1	0	3	0
43	79	7	10000	3	1	0	3	0
41	80	7	10000	3	1	0	3	0
43	81	7	10000	3	1	0	3	0
43	81	7	10000	3	1	0	3	0
46	82	7	10000	3	1	0	3	0
47	84	7	10000	3	1	0	3	0
51	85	7	10000	3	1	0	3	0
51	86	7	10000	3	1	0	3	0
50	87	7	10000	3	1	0	3	0
47	88	7	10000	3	1	0	3	0
45	89	7	10000	3	1	0	3	0
44	90	7	10000	3	1	0	3	0
44	91	7	10000	3	1	0	3	0
42	91	7	10000	3	1	0	3	0
39	92	7	10000	3	1	0	3	0
37	94	7	10000	3	1	0	3	0
37	95	7	10000	3	1	0	3	0
36	96	7	10000	3	1	0	3	0
35	97	7	10000	3	1	0	3	0
34	98	7	10000	3	1	0	3	0
36	99	7	10000	3	1	0	3	0
37	100	7	10000	3	1	0	3	0
36	101	7	10000	3	1	0	3	0
37	101	7	10000	3	1	0	3	0
41	102	7	10000	3	1	0	3	0
43	104	7	10000	3	1	0	3	0
43	105	7	10000	3	1	0	3	0
42	106	7	10000	3	1	0	3	0
43	107	7	10000	3	1	0	3	0
42	108	7	10000	3	1	0	3	0
40	109	7	10000	3	1	0	3	0
42	110	7	10000	3	1	0	3	0
43	111	7	10000	3	1	0	3	0
44	111	7	10000	3	1	0	3	0
44	112	7	10000	3	1	0	3	0
44	114	7	10000	3	1	0	3	0
45	115	7	10000	3	1	0	3	0
47	116	7	10000	3	1	0	3	0
47	117	7	10000	3	1	0	3	0
47	118	7	10000	3	1	0	3	0
46	119	7	10000	3	1	0	3	0
46	120	7	10000	3	1	0	3	0
46	121	7	10000	3	1	0	3	0
46	121	7	10000	3	1	0	3	0
48	122	7	10000	3	1	0	3	0
48	124	7	10000	3	1	0	3	0
47	125	7	10000	3	1	0	3	0
46	126	7	10000	3	1	0	3	0
45	127	7	10000	3	1	0	3	0
44	128	7	10000	3	1	0	3	0
42	129	7	10000	3	1	0	3	0
41	130	7	10000	3	1	0	3	0
40	131	7	10000	3	1	0	3	0
39	131	7	10000	3	1	0	3	0
37	132	7	10000	3	1	0	3	0
36	134	7	10000	3	1	0	3	0
35	135	7	10000	3	1	0	3	0
34	136	7	10000	3	1	0	3	0
33	137	7	10000	3	1	0	3	0
32	138	7	10000	3	1	0	3	0
31	139	7	10000	3	1	0	3	0
30	140	7	10000	3	1	0	3	0
29	141	7	10000	3	1	0	3	0
30	141	7	10000	3	1	0	3	0
31	142	7	10000	3	1	0	3	0
29	144	7	10000	3	1	0	3	0
29	145	7	10000	3	1	0	3	0
27	146	7	10000	3	1	0	3	0
26	147	7	10000	3	1	0	3	0
25	148	7	10000	3	1	0	3	0
25	149	7	10000	3	1	0	3	0
26	150	7	10000	3	1	0	3	0
27	151	7	10000	3	1	0	3	0
27	151	7	10000	3	1	0	3	0
25	152	7	10000	3	1	0	3	0
23	154	7	10000	3	1	0	3	0
24	155	7	10000	3	1	0	3	0
23	156	7	10000	3	1	0	3	0
22	157	7	10000	3	1	0	3	0
22	158	7	10000	3	1	0	3	0
21	159	7	10000	3	1	0	3	0
20	160	7	10000	3	1	0	3	0
19	161	7	10000	3	1	0	3	0
20	161	7	10000	3	1	0	3	0
23	162	7	10000	3	1	0	3	0
23	164	7	10000	3	1	0	3	0
22	165	7	10000	3	1	0	3	0
22	166	7	10000	3	1	0	3	0
21	167	7	10000	3	1	0	3	0
20	168	7	10000	3	1	0	3	0
20	169	7	10000	3	1	0	3	0
20	170	7	10000	3	1	0	3	0
20	171	7	10000	3	1	0	3	0
20	171	7	10000	3	1	0	3	0
17	172	7	10000	3	1	0	3	0
17	174	7	10000	3	1	0	3	0
17	175	7	10000	3	1	0	3	0
17	176	7	10000	3	1	0	3	0
16	177	7	10000	3	1	0	3	0
16	178	7	10000	3	1	0	3	0
16	179	7	10000	3	1	0	3	0
15	180	7	10000	3	1	0	3	0
14	181	7	10000	3	1	0	3	0
14	181	7	10000	3	1	0	3	0
16	182	7	10000	3	1	0	3	0
16	184	7	10000	3	1	0	3	0
15	185	7	10000	3	1	0	3	0
15	186	7	10000	3	1	0	3	0
15	187	7	10000	3	1	0	3	0
16	188	7	10000	3	1	0	3	0
15	189	7	10000	3	1	0	3	0
16	190	7	10000	3	1	0	3	0
16	191	7	10000	3	1	0	3	0
16	191	7	10000	3	1	0	3	0
13	192	7	10000	3	1	0	3	0
13	194	7	10000	3	1	0	3	0
13	195	7	10000	3	1	0	3	0
13	196	7	10000	3	1	0	3	0
14	197	7	10000	3	1	0	3	0
13	198	7	10000	3	1	0	3	0
13	199	7	10000	3	1	0	3	0
12	200	7	10000	3	1	0	3	0
12	201	7	10000	3	1	0	3	0
11	201	7	10000	3	1	0	3	0
13	202	7	10000	3	1	0	3	0
13	204	7	10000	3	1	0	3	0
13	205	7	10000	3	1	0	3	0
12	206	7	10000	3	1	0	3	0
12	207	7	10000	3	1	0	3	0
12	208	7	10000	3	1	0	3	0
11	209	7	10000	3	1	0	3	0
11	210	7	10000	3	1	0	3	0
12	211	7	10000	3	1	0	3	0
11	211	7	10000	3	1	0	3	0
10	212	7	10000	3	1	0	3	0
10	214	7	10000	3	1	0	3	0
10	215	7	10000	3	1	0	3	0
11	216	7	10000	3	1	0	3	0
10	217	7	10000	3	1	0	3	0
11	218	7	10000	3	1	0	3	0
10	219	7	10000	3	1	0	3	0
9	220	7	10000	3	1	0	3	0
9	221	7	10000	3	1	0	3	0
9	221	7	10000	3	1	0	3	0
12	222	7	10000	3	1	0	3	0
12	224	7	10000	3	1	0	3	0
11	225	7	10000	3	1	0	3	0
12	226	7	10000	3	1	0	3	0
11	227	7	10000	3	1	0	3	0
10	228	7	10000	3	1	0	3	0
11	229	7	10000	3	1	0	3	0
13	230	7	10000	3	1	0	3	0
13	231	7	10000	3	1	0	3	0
12	231	7	10000	3	1	0	3	0
11	232	7	10000	3	1	0	3	0
11	234	7	10000	3	1	0	3	0
11	235	7	10000	3	1	0	3	0
11	236	7	10000	3	1	0	3	0
11	237	7	10000	3	1	0	3	0
11	238	7	10000	3	1	0	3	0
12	239	7	10000	3	1	0	3	0
11	240	7	10000	3	1	0	3	0
10	241	7	10000	3	1	0	3	0
10	241	7	10000	3	1	0	3	0
13	242	7	10000	3	1	0	3	0
12	244	7	10000	3	1	0	3	0
12	245	7	10000	3	1	0	3	0
13	246	7	10000	3	1	0	3	0
13	247	7	10000	3	1	0	3	0
12	248	7	10000	3	1	0	3	0
12	249	7	10000	3	1	0	3	0
12	250	7	10000	3	1	0	3	0
13	251	7	10000	3	1	0	3	0
12	251	7	10000	3	1	0	3	0
10	252	7	10000	3	1	0	3	0
10	254	7	10000	3	1	0	3	0
11	255	7	10000	3	1	0	3	0
12	256	7	10000	3	1	0	3	0
11	257	7	10000	3	1	0	3	0
11	258	7	10000	3	1	0	3	0
12	259	7	10000	3	1	0	3	0
12	260	7	10000	3	1	0	3	0
11	261	7	10000	3	1	0	3	0
11	261	7	10000	3	1	0	3	0
13	262	7	10000	3	1	0	3	0
13	264	7	10000	3	1	0	3	0
12	265	7	10000	3	1	0	3	0
12	266	7	10000	3	1	0	3	0
12	267	7	10000	3	1	0	3	0
13	268	7	10000	3	1	0	3	0
12	269	7	10000	3	1	0	3	0
12	270	7	10000	3	1	0	3	0
12	271	7	10000	3	1	0	3	0
12	271	7	10000	3	1	0	3	0
10	272	7	10000	3	1	0	3	0
11	274	7	10000	3	1	0	3	0
13	275	7	10000	3	1	0	3	0
13	276	7	10000	3	1	0	3	0
12	277	7	10000	3	1	0	3	0
12	278	7	10000	3	1	0	3	0
12	279	7	10000	3	1	0	3	0
12	280	7	10000	3	1	0	3	0
13	281	7	10000	3	1	0	3	0
12	281	7	10000	3	1	0	3	0
14	282	7	10000	3	1	0	3	0
13	284	7	10000	3	1	0	3	0
13	285	7	10000	3	1	0	3	0
12	286	7	10000	3	1	0	3	0
13	287	7	10000	3	1	0	3	0
13	288	7	10000	3	1	0	3	0
14	289	7	10000	3	1	0	3	0
13	290	7	10000	3	1	0	3	0
13	291	7	10000	3	1	0	3	0
13	291	7	10000	3	1	0	3	0
11	292	7	10000	3	1	0	3	0
12	294	7	10000	3	1	0	3	0
11	295	7	10000	3	1	0	3	0
11	296	7	10000	3	1	0	3	0
12	297	7	10000	3	1	0	3	0
13	298	7	10000	3	1	0	3	0
12	299	7	10000	3	1	0	3	0
12	300	7	10000	3	1	0	3	0
11	301	7	10000	3	1	0	3	0
12	301	7	10000	3	1	0	3	0
13	302	7	10000	3	1	0	3	0
13	304	7	10000	3	1	0	3	0
12	305	7	10000	3	1	0	3	0
12	306	7	10000	3	1	0	3	0
12	307	7	10000	3	1	0	3	0
12	308	7	10000	3	1	0	3	0
11	309	7	10000	3	1	0	3	0
13	310	7	10000	3	1	0	3	0
12	311	7	10000	3	1	0	3	0
12	311	7	10000	3	1	0	3	0
12	312	7	10000	3	1	0	3	0
13	314	7	10000	3	1	0	3	0
12	315	7	10000	3	1	0	3	0
13	316	7	10000	3	1	0	3	0
12	317	7	10000	3	1	0	3	0
12	318	7	10000	3	1	0	3	0
12	319	7	10000	3	1	0	3	0
12	320	7	10000	3	1	0	3	0
11	321	7	10000	3	1	0	3	0
11	321	7	10000	3	1	0	3	0
13	322	7	10000	3	1	0	3	0
12	324	7	10000	3	1	0	3	0
12	325	7	10000	3	1	0	3	0
12	326	7	10000	3	1	0	3	0
12	327	7	10000	3	1	0	3	0
12	328	7	10000	3	1	0	3	0
11	329	7	10000	3	1	0	3	0
12	330	7	10000	3	1	0	3	0
12	331	7	10000	3	1	0	3	0
11	331	7	10000	3	1	0	3	0
10	332	7	10000	3	1	0	3	0
10	334	7	10000	3	1	0	3	0
10	335	7	10000	3	1	0	3	0
11	336	7	10000	3	1	0	3	0
10	337	7	10000	3	1	0	3	0
10	338	7	10000	3	1	0	3	0
10	339	7	10000	3	1	0	3	0
10	340	7	10000	3	1	0	3	0
10	341	7	10000	3	1	0	3	0
10	341	7	10000	3	1	0	3	0
13	342	7	10000	3	1	0	3	0
14	344	7	10000	3	1	0	3	0
13	345	7	10000	3	1	0	3	0
12	346	7	10000	3	1	0	3	0
12	347	7	10000	3	1	0	3	0
12	348	7	10000	3	1	0	3	0
12	349	7	10000	3	1	0	3	0
13	350	7	10000	3	1	0	3	0
13	351	7	10000	3	1	0	3	0
13	351	7	10000	3	1	0	3	0
11	352	7	10000	3	1	0	3	0
11	354	7	10000	3	1	0	3	0
12	355	7	10000	3	1	0	3	0
13	356	7	10000	3	1	0	3	0
13	357	7	10000	3	1	0	3	0
13	358	7	10000	3	1	0	3	0
12	359	7	10000	3	1	0	3	0
12	360	7	10000	3	1	0	3	0
11	361	7	10000	3	1	0	3	0
11	361	7	10000	3	1	0	3	0
14	362	7	10000	3	1	0	3	0
13	364	7	10000	3	1	0	3	0
15	365	7	10000	3	1	0	3	0
13	366	7	10000	3	1	0	3	0
14	367	7	10000	3	1	0	3	0
15	368	7	10000	3	1	0	3	0
15	369	7	10000	3	1	0	3	0
15	370	7	10000	3	1	0	3	0
16	371	7	10000	3	1	0	3	0
16	371	7	10000	3	1	0	3	0
14	372	7	10000	3	1	0	3	0
13	374	7	10000	3	1	0	3	0
13	375	7	10000	3	1	0	3	0
13	376	7	10000	3	1	0	3	0
13	377	7	10000	3	1	0	3	0
13	378	7	10000	3	1	0	3	0
13	379	7	10000	3	1	0	3	0
12	380	7	10000	3	1	0	3	0
11	381	7	10000	3	1	0	3	0
11	381	7	10000	3	1	0	3	0
12	382	7	10000	3	1	0	3	0
12	384	7	10000	3	1	0	3	0
12	385	7	10000	3	1	0	3	0
14	386	7	10000	3	1	0	3	0
13	387	7	10000	3	1	0	3	0
13	388	7	10000	3	1	0	3	0
13	389	7	10000	3	1	0	3	0
12	390	7	10000	3	1	0	3	0
13	391	7	10000	3	1	0	3	0
14	391	7	10000	3	1	0	3	0
11	392	7	10000	3	1	0	3	0
13	394	7	10000	3	1	0	3	0
13	395	7	10000	3	1	0	3	0
14	396	7	10000	3	1	0	3	0
15	397	7	10000	3	1	0	3	0
15	398	7	10000	3	1	0	3	0
16	399	7	10000	3	1	0	3	0
14	400	7	10000	3	1	0	3	0
14	401	7	10000	3	1	0	3	0
13	401	7	10000	3	1	0	3	0
15	402	7	10000	3	1	0	3	0
15	404	7	10000	3	1	0	3	0
16	405	7	10000	3	1	0	3	0
17	406	7	10000	3	1	0	3	0
18	407	7	10000	3	1	0	3	0
18	408	7	10000	3	1	0	3	0
17	409	7	10000	3	1	0	3	0
18	410	7	10000	3	1	0	3	0
18	411	7	10000	3	1	0	3	0
18	411	7	10000	3	1	0	3	0
15	412	7	10000	3	1	0	3	0
15	414	7	10000	3	1	0	3	0
15	415	7	10000	3	1	0	3	0
15	416	7	10000	3	1	0	3	0
15	417	7	10000	3	1	0	3	0
14	418	7	10000	3	1	0	3	0
14	419	7	10000	3	1	0	3	0
14	420	7	10000	3	1	0	3	0
13	421	7	10000	3	1	0	3	0
13	421	7	10000	3	1	0	3	0
16	422	7	10000	3	1	0	3	0
15	424	7	10000	3	1	0	3	0
15	425	7	10000	3	1	0	3	0
15	426	7	10000	3	1	0	3	0
15	427	7	10000	3	1	0	3	0
15	428	7	10000	3	1	0	3	0
13	429	7	10000	3	1	0	3	0
14	430	7	10000	3	1	0	3	0
15	431	7	10000	3	1	0	3	0
15	431	7	10000	3	1	0	3	0
13	432	7	10000	3	1	0	3	0
13	434	7	10000	3	1	0	3	0
14	435	7	10000	3	1	0	3	0
15	436	7	10000	3	1	0	3	0
15	437	7	10000	3	1	0	3	0
15	438	7	10000	3	1	0	3	0
16	439	7	10000	3	1	0	3	0
16	440	7	10000	3	1	0	3	0
17	441	7	10000	3	1	0	3	0
15	441	7	10000	3	1	0	3	0
17	442	7	10000	3	1	0	3	0
18	444	7	10000	3	1	0	3	0
17	445	7	10000	3	1	0	3	0
16	446	7	10000	3	1	0	3	0
16	447	7	10000	3	1	0	3	0
16	448	7	10000	3	1	0	3	0
16	449	7	10000	3	1	0	3	0
16	450	7	10000	3	1	0	3	0
15	451	7	10000	3	1	0	3	0
16	451	7	10000	3	1	0	3	0
13	452	7	10000	3	1	0	3	0
14	454	7	10000	3	1	0	3	0
14	455	7	10000	3	1	0	3	0
13	456	7	10000	3	1	0	3	0
13	457	7	10000	3	1	0	3	0
14	458	7	10000	3	1	0	3	0
14	459	7	10000	3	1	0	3	0
14	460	7	10000	3	1	0	3	0
14	461	7	10000	3	1	0	3	0
14	461	7	10000	3	1	0	3	0
15	462	7	10000	3	1	0	3	0
15	464	7	10000	3	1	0	3	0
14	465	7	10000	3	1	0	3	0
14	466	7	10000	3	1	0	3	0
14	467	7	10000	3	1	0	3	0
17	468	7	10000	3	1	0	3	0
17	469	7	10000	3	1	0	3	0
18	470	7	10000	3	1	0	3	0
18	471	7	10000	3	1	0	3	0
18	471	7	10000	3	1	0	3	0
16	472	7	10000	3	1	0	3	0
16	474	7	10000	3	1	0	3	0
16	475	7	10000	3	1	0	3	0
16	476	7	10000	3	1	0	3	0
15	477	7	10000	3	1	0	3	0
15	478	7	10000	3	1	0	3	0
15	479	7	10000	3	1	0	3	0
14	480	7	10000	3	1	0	3	0
14	481	7	10000	3	1	0	3	0
15	481	7	10000	3	1	0	3	0
18	482	7	10000	3	1	0	3	0
18	484	7	10000	3	1	0	3	0
18	485	7	10000	3	1	0	3	0
17	486	7	10000	3	1	0	3	0
16	487	7	10000	3	1	0	3	0
17	488	7	10000	3	1	0	3	0
16	489	7	10000	3	1	0	3	0
15	490	7	10000	3	1	0	3	0
16	491	7	10000	3	1	0	3	0
16	491	7	10000	3	1	0	3	0
13	492	7	10000	3	1	0	3	0
14	494	7	10000	3	1	0	3	0
14	495	7	10000	3	1	0	3	0
15	496	7	10000	3	1	0	3	0
14	497	7	10000	3	1	0	3	0
14	498	7	10000	3	1	0	3	0
13	499	7	10000	3	1	0	3	0
12	500	7	10000	3	1	0	3	0
12	501	7	10000	3	1	0	3	0
12	502	7	10000	3	1	0	3	1
14	503	7	10000	3	1	0	3	1
13	504	7	10000	3	1	0	3	1
14	505	7	10000	3	1	0	3	1
13	506	7	10000	3	1	0	3	1
14	507	7	10000	3	1	0	3	1
14	508	7	10000	3	1	0	3	1
15	509	7	10000	3	1	0	3	1
16	510	7	10000	3	1	0	3	1
17	511	7	10000	3	1	0	3	1
16	511	7	10000	3	1	0	3	1
14	512	7	10000	3	1	0	3	1
15	514	7	10000	3	1	0	3	1
15	515	7	10000	3	1	0	3	1
15	516	7	10000	3	1	0	3	1
15	517	7	10000	3	1	0	3	1
14	518	7	10000	3	1	0	3	1
14	519	7	10000	3	1	0	3	1
13	520	7	10000	3	1	0	3	1
13	521	7	10000	3	1	0	3	1
13	521	7	10000	3	1	0	3	1
14	522	7	10000	3	1	0	3	1
13	524	7	10000	3	1	0	3	1
14	525	7	10000	3	1	0	3	1
13	526	7	10000	3	1	0	3	1
13	527	7	10000	3	1	0	3	1
13	528	7	10000	3	1	0	3	1
13	529	7	10000	3	1	0	3	1
14	530	7	10000	3	1	0	3	1
14	531	7	10000	3	1	0	3	1
14	531	7	10000	3	1	0	3	1
11	532	7	10000	3	1	0	3	1
12	534	7	10000	3	1	0	3	1
12	535	7	10000	3	1	0	3	1
12	536	7	10000	3	1	0	3	1
11	537	7	10000	3	1	0	3	1
12	538	7	10000	3	1	0	3	1
11	539	7	10000	3	1	0	3	1
10	540	7	10000	3	1	0	3	1
9	541	7	10000	3	1	0	3	1
10	541	7	10000	3	1	0	3	1
12	542	7	10000	3	1	0	3	1
12	544	7	10000	3	1	0	3	1
12	545	7	10000	3	1	0	3	1
12	546	7	10000	3	1	0	3	1
11	547	7	10000	3	1	0	3	1
11	548	7	10000	3	1	0	3	1
11	549	7	10000	3	1	0	3	1
11	550	7	10000	3	1	0	3	1
12	551	7	10000	3	1	0	3	1
12	551	7	10000	3	1	0	3	0
11	552	7	10000	3	1	0	3	0
12	554	7	10000	3	1	0	3	0
12	555	7	10000	3	1	0	3	0
13	556	7	10000	3	1	0	3	0
13	557	7	10000	3	1	0	3	0
13	558	7	10000	3	1	0	3	0
14	559	7	10000	3	1	0	3	0
12	560	7	10000	3	1	0	3	0
12	561	7	10000	3	1	0	3	0
11	561	7	10000	3	1	0	3	0
13	562	7	10000	3	1	0	3	0
12	564	7	10000	3	1	0	3	0
11	565	7	10000	3	1	0	3	0
12	566	7	10000	3	1	0	3	0
12	567	7	10000	3	1	0	3	0
11	568	7	10000	3	1	0	3	0
10	569	7	10000	3	1	0	3	0
12	570	7	10000	3	1	0	3	0
12	571	7	10000	3	1	0	3	0
12	571	7	10000	3	1	0	3	0
11	572	7	10000	3	1	0	3	0
12	574	7	10000	3	1	0	3	0
12	575	7	10000	3	1	0	3	0
13	576	7	10000	3	1	0	3	0
11	577	7	10000	3	1	0	3	0
11	578	7	10000	3	1	0	3	0
12	579	7	10000	3	1	0	3	0
13	580	7	10000	3	1	0	3	0
13	581	7	10000	3	1	0	3	0
12	581	7	10000	3	1	0	3	0
15	582	7	10000	3	1	0	3	0
14	584	7	10000	3	1	0	3	0
15	585	7	10000	3	1	0	3	0
15	586	7	10000	3	1	0	3	0
15	587	7	10000	3	1	0	3	0
16	588	7	10000	3	1	0	3	0
15	589	7	10000	3	1	0	3	0
16	590	7	10000	3	1	0	3	0
17	591	7	10000	3	1	0	3	0
18	591	7	10000	3	1	0	3	0
18	592	7	10000	3	1	0	3	0
18	594	7	10000	3	1	0	3	0
29	595	7	10000	3	1	0	3	0
45	596	7	10000	3	1	0	3	0
53	597	7	10000	3	1	0	3	0
57	598	7	10000	3	1	0	3	0
65	599	7	10000	3	1	0	3	0
88	600	7	10000	3	1	0	3	0
125	601	7	10000	3	1	0	3	0
145	601	7	10000	3	1	0	3	0
150	602	7	10000	3	1	0	3	0
151	604	7	10000	3	1	0	3	0
155	605	7	10000	3	1	0	3	0
158	606	7	10000	3	1	0	3	0
168	607	7	10000	3	1	0	3	0
176	608	7	10000	3	1	0	3	0
189	609	7	10000	3	1	0	3	0
191	610	7	10000	3	1	0	3	0
199	611	7	10000	3	1	0	3	0
214	611	7	10000	3	1	0	3	0
225	612	7	10000	3	1	0	3	0
220	614	7	10000	3	1	0	3	0
219	615	7	10000	3	1	0	3	0
226	616	7	10000	3	1	0	3	0
241	617	7	10000	3	1	0	3	0
255	618	7	10000	3	1	0	3	0
260	619	7	10000	3	1	0	3	0
253	620	7	10000	3	1	0	3	0
246	621	7	10000	3	1	0	3	0
242	621	7	10000	3	1	0	3	0
237	622	7	10000	3	1	0	3	0
230	624	7	10000	3	1	0	3	0
226	625	7	10000	3	1	0	3	0
221	626	7	10000	3	1	0	3	0
217	627	7	10000	3	1	0	3	0
215	628	7	10000	3	1	0	3	0
211	629	7	10000	3	1	0	3	0
208	630	7	10000	3	1	0	3	0
203	631	7	10000	3	1	0	3	0
197	631	7	10000	3	1	0	3	0
189	632	7	10000	3	1	0	3	0
182	634	7	10000	3	1	0	3	0
175	635	7	10000	3	1	0	3	0
167	636	7	10000	3	1	0	3	0
160	637	7	10000	3	1	0	3	0
154	638	7	10000	3	1	0	3	0
149	639	7	10000	3	1	0	3	0
145	640	7	10000	3	1	0	3	0
142	641	7	10000	3	1	0	3	0
142	641	7	10000	3	1	0	3	0
145	642	7	10000	3	1	0	3	0
147	644	7	10000	3	1	0	3	0
150	645	7	10000	3	1	0	3	0
153	646	7	10000	3	1	0	3	0
157	647	7	10000	3	1	0	3	0
161	648	7	10000	3	1	0	3	0
166	649	7	10000	3	1	0	3	0
172	650	7	10000	3	1	0	3	0
177	651	7	10000	3	1	0	3	0
182	651	7	10000	3	1	0	3	0
185	652	7	10000	3	1	0	3	0
192	654	7	10000	3	1	0	3	0
197	655	7	10000	3	1	0	3	0
204	656	7	10000	3	1	0	3	0
209	657	7	10000	3	1	0	3	0
215	658	7	10000	3	1	0	3	0
221	659	7	10000	3	1	0	3	0
224	660	7	10000	3	1	0	3	0
226	661	7	10000	3	1	0	3	0
226	661	7	10000	3	1	0	3	0
230	662	7	10000	3	1	0	3	0
229	664	7	10000	3	1	0	3	0
227	665	7	10000	3	1	0	3	0
225	666	7	10000	3	1	0	3	0
225	667	7	10000	3	1	0	3	0
225	668	7	10000	3	1	0	3	0
225	669	7	10000	3	1	0	3	0
225	670	7	10000	3	1	0	3	0
224	671	7	10000	3	1	0	3	0
218	671	7	10000	3	1	0	3	0
208	672	7	10000	3	1	0	3	0
198	674	7	10000	3	1	0	3	0
189	675	7	10000	3	1	0	3	0
182	676	7	10000	3	1	0	3	0
174	677	7	10000	3	1	0	3	0
167	678	7	10000	3	1	0	3	0
159	679	7	10000	3	1	0	3	0
153	680	7	10000	3	1	0	3	0
148	681	7	10000	3	1	0	3	0
145	681	7	10000	3	1	0	3	0
143	682	7	10000	3	1	0	3	0
139	684	7	10000	3	1	0	3	0
135	685	7	10000	3	1	0	3	0
130	686	7	10000	3	1	0	3	0
128	687	7	10000	3	1	0	3	0
125	688	7	10000	3	1	0	3	0
124	689	7	10000	3	1	0	3	0
124	690	7	10000	3	1	0	3	0
124	691	7	10000	3	1	0	3	0
125	691	7	10000	3	1	0	3	0
126	692	7	10000	3	1	0	3	0
127	694	7	10000	3	1	0	3	0
128	695	7	10000	3	1	0	3	0
128	696	7	10000	3	1	0	3	0
130	697	7	10000	3	1	0	3	0
131	698	7	10000	3	1	0	3	0
131	699	7	10000	3	1	0	3	0
131	700	7	10000	3	1	0	3	0
133	701	7	10000	3	1	0	3	0
134	701	7	10000	3	1	0	3	0
137	702	7	10000	3	1	0	3	0
138	704	7	10000	3	1	0	3	0
139	705	7	10000	3	1	0	3	0
140	706	7	10000	3	1	0	3	0
140	707	7	10000	3	1	0	3	0
141	708	7	10000	3	1	0	3	0
141	709	7	10000	3	1	0	3	0
142	710	7	10000	3	1	0	3	0
144	711	7	10000	3	1	0	3	0
144	711	7	10000	3	1	0	3	0
144	712	7	10000	3	1	0	3	0
146	714	7	10000	3	1	0	3	0
146	715	7	10000	3	1	0	3	0
146	716	7	10000	3	1	0	3	0
147	717	7	10000	3	1	0	3	0
147	718	7	10000	3	1	0	3	0
148	719	7	10000	3	1	0	3	0
145	720	7	10000	3	1	0	3	0
145	721	7	10000	3	1	0	3	0
142	721	7	10000	3	1	0	3	0
143	722	7	10000	3	1	0	3	0
141	724	7	10000	3	1	0	3	0
139	725	7	10000	3	1	0	3	0
135	726	7	10000	3	1	0	3	0
135	727	7	10000	3	1	0	3	0
133	728	7	10000	3	1	0	3	0
130	729	7	10000	3	1	0	3	0
130	730	7	10000	3	1	0	3	0
128	731	7	10000	3	1	0	3	0
126	731	7	10000	3	1	0	3	0
122	732	7	10000	3	1	0	3	0
120	734	7	10000	3	1	0	3	0
118	735	7	10000	3	1	0	3	0
116	736	7	10000	3	1	0	3	0
115	737	7	10000	3	1	0	3	0
112	738	7	10000	3	1	0	3	0
110	739	7	10000	3	1	0	3	0
107	740	7	10000	3	1	0	3	0
103	741	7	10000	3	1	0	3	0
100	741	7	10000	3	1	0	3	0
98	742	7	10000	3	1	0	3	0
94	744	7	10000	3	1	0	3	0
91	745	7	10000	3	1	0	3	0
88	755	7	10000	3	1	0	3	0
86	756	7	10000	3	1	0	3	0
83	757	7	10000	3	1	0	3	0
79	758	7	10000	3	1	0	3	0
77	759	7	10000	3	1	0	3	0
74	760	7	10000	3	1	0	3	0
71	761	7	10000	3	1	0	3	0
68	762	7	10000	3	1	0	3	0
66	763	7	10000	3	1	0	3	0
64	764	7	10000	3	1	0	3	0
63	763	7	10000	3	1	0	3	0
62	764	7	10000	3	1	0	3	0
61	765	7	10000	3	1	0	3	0
61	766	7	10000	3	1	0	3	0
59	767	7	10000	3	1	0	3	0
57	768	7	10000	3	1	0	3	0
55	769	7	10000	3	1	0	3	0
55	770	7	10000	3	1	0	3	0
53	771	7	10000	3	1	0	3	0
51	772	7	10000	3	1	0	3	0
50	770	7	10000	3	1	0	3	0
47	771	7	10000	3	1	0	3	0
46	772	7	10000	3	1	0	3	0
44	773	7	10000	3	1	0	3	0
44	774	7	10000	3	1	0	3	0
42	775	7	10000	3	1	0	3	0
41	777	7	10000	3	1	0	3	0
38	778	7	10000	3	1	0	3	0
37	779	7	10000	3	1	0	3	0
36	780	7	10000	3	1	0	3	0
36	781	7	10000	3	1	0	3	0
35	782	7	10000	3	1	0	3	0
35	783	7	10000	3	1	0	3	0
35	784	7	10000	3	1	0	3	0
34	782	7	10000	3	1	0	3	0
32	783	7	10000	3	1	0	3	0
32	784	7	10000	3	1	0	3	0
32	785	7	10000	3	1	0	3	0
31	790	7	10000	3	1	0	3	0
29	791	7	10000	3	1	0	3	0
28	792	7	10000	3	1	0	3	0
28	793	7	10000	3	1	0	3	0
28	794	7	10000	3	1	0	3	0
28	795	7	10000	3	1	0	3	0
28	796	7	10000	3	1	0	3	0
28	797	7	10000	3	1	0	3	0
27	794	7	10000	3	1	0	3	0
25	795	7	10000	3	1	0	3	0
25	796	7	10000	3	1	0	3	0
25	797	7	10000	3	1	0	3	0
26	800	7	10000	3	1	0	3	0
25	801	7	10000	3	1	0	3	0
25	802	7	10000	3	1	0	3	0
27	803	7	10000	3	1	0	3	0
26	804	7	10000	3	1	0	3	0
25	805	7	10000	3	1	0	3	0
26	806	7	10000	3	1	0	3	0
28	807	7	10000	3	1	0	3	0
27	808	7	10000	3	1	0	3	0
26	809	7	10000	3	1	0	3	0
26	810	7	10000	3	1	0	3	0
26	811	7	10000	3	1	0	3	0
26	811	7	10000	3	1	0	3	0
27	812	7	10000	3	1	0	3	0
28	813	7	10000	3	1	0	3	0
30	814	7	10000	3	1	0	3	0
30	817	7	10000	3	1	0	3	0
27	818	7	10000	3	1	0	3	0
27	819	7	10000	3	1	0	3	0
29	820	7	10000	3	1	0	3	0
31	821	7	10000	3	1	0	3	0
29	822	7	10000	3	1	0	3	0
29	823	7	10000	3	1	0	3	0
30	824	7	10000	3	1	0	3	0
30	822	7	10000	3	1	0	3	0
30	823	7	10000	3	1	0	3	0
31	824	7	10000	3	1	0	3	0
33	825	7	10000	3	1	0	3	0
32	829	7	10000	3	1	0	3	0
30	830	7	10000	3	1	0	3	0
30	831	7	10000	3	1	0	3	0
29	832	7	10000	3	1	0	3	0
28	833	7	10000	3	1	0	3	0
28	834	7	10000	3	1	0	3	0
28	835	7	10000	3	1	0	3	0
28	836	7	10000	3	1	0	3	0
27	833	7	10000	3	1	0	3	0
25	834	7	10000	3	1	0	3	0
25	835	7	10000	3	1	0	3	0
24	836	7	10000	3	1	0	3	0
23	839	7	10000	3	1	0	3	0
23	840	7	10000	3	1	0	3	0
23	841	7	10000	3	1	0	3	0
23	842	7	10000	3	1	0	3	0
22	844	7	10000	3	1	0	3	0
20	845	7	10000	3	1	0	3	0
20	846	7	10000	3	1	0	3	0
21	847	7	10000	3	1	0	3	0
21	848	7	10000	3	1	0	3	0
21	849	7	10000	3	1	0	3	0
20	851	7	10000	3	1	0	3	0
19	852	7	10000	3	1	0	3	0
19	853	7	10000	3	1	0	3	0
18	854	7	10000	3	1	0	3	0
19	855	7	10000	3	1	0	3	0
19	856	7	10000	3	1	0	3	0
19	857	7	10000	3	1	0	3	0
17	858	7	10000	3	1	0	3	0
17	857	7	10000	3	1	0	3	0
18	858	7	10000	3	1	0	3	0
18	859	7	10000	3	1	0	3	0
16	860	7	10000	3	1	0	3	0
18	861	7	10000	3	1	0	3	0
17	862	7	10000	3	1	0	3	0
18	862	7	10000	3	1	0	3	0
17	863	7	10000	3	1	0	3	0
17	864	7	10000	3	1	0	3	0
19	865	7	10000	3	1	0	3	0
19	868	7	10000	3	1	0	3	0
18	869	7	10000	3	1	0	3	0
19	870	7	10000	3	1	0	3	0
18	871	7	10000	3	1	0	3	0
18	872	7	10000	3	1	0	3	0
17	873	7	10000	3	1	0	3	0
18	873	7	10000	3	1	0	3	0
18	874	7	10000	3	1	0	3	0
17	875	7	10000	3	1	0	3	0
15	876	7	10000	3	1	0	3	0
15	879	7	10000	3	1	0	3	0
15	880	7	10000	3	1	0	3	0
15	881	7	10000	3	1	0	3	0
16	882	7	10000	3	1	0	3	0
15	883	7	10000	3	1	0	3	0
15	884	7	10000	3	1	0	3	0
14	885	7	10000	3	1	0	3	0
14	886	7	10000	3	1	0	3	0
16	882	7	10000	3	1	0	3	0
19	883	7	10000	3	1	0	3	0
18	884	7	10000	3	1	0	3	0
18	885	7	10000	3	1	0	3	0
18	886	7	10000	3	1	0	3	0
18	887	7	10000	3	1	0	3	0
17	888	7	10000	3	1	0	3	0
18	889	7	10000	3	1	0	3	0
20	890	7	10000	3	1	0	3	0
22	891	7	10000	3	1	0	3	0
24	892	7	10000	3	1	0	3	0
24	893	7	10000	3	1	0	3	0
26	894	7	10000	3	1	0	3	0
30	895	7	10000	3	1	0	3	0
33	896	7	10000	3	1	0	3	0
36	897	7	10000	3	1	0	3	0
38	898	7	10000	3	1	0	3	0
40	899	7	10000	3	1	0	3	0
40	900	7	10000	3	1	0	3	0
38	901	7	10000	3	1	0	3	0
38	902	7	10000	3	1	0	3	0
41	903	7	10000	3	1	0	3	0
39	904	7	10000	3	1	0	3	0
39	905	7	10000	3	1	0	3	0
37	906	7	10000	3	1	0	3	0
37	907	7	10000	3	1	0	3	0
36	908	7	10000	3	1	0	3	0
33	909	7	10000	3	1	0	3	0
33	910	7	10000	3	1	0	3	0
32	911	7	10000	3	1	0	3	0
32	912	7	10000	3	1	0	3	0
31	913	7	10000	3	1	0	3	0
30	914	7	10000	3	1	0	3	0
30	915	7	10000	3	1	0	3	0
29	916	7	10000	3	1	0	3	0
29	917	7	10000	3	1	0	3	0
29	918	7	10000	3	1	0	3	0
31	919	7	10000	3	1	0	3	0
32	920	7	10000	3	1	0	3	0
34	921	7	10000	3	1	0	3	0
35	922	7	10000	3	1	0	3	0
37	923	7	10000	3	1	0	3	0
36	924	7	10000	3	1	0	3	0
34	925	7	10000	3	1	0	3	0
33	926	7	10000	3	1	0	3	0
32	927	7	10000	3	1	0	3	0
30	928	7	10000	3	1	0	3	0
30	929	7	10000	3	1	0	3	0
31	930	7	10000	3	1	0	3	0
32	931	7	10000	3	1	0	3	0
32	932	7	10000	3	1	0	3	0
32	933	7	10000	3	1	0	3	0
34	934	7	10000	3	1	0	3	0
33	935	7	10000	3	1	0	3	0
33	936	7	10000	3	1	0	3	0
32	937	7	10000	3	1	0	3	0
32	938	7	10000	3	1	0	3	0
30	939	7	10000	3	1	0	3	0
29	940	7	10000	3	1	0	3	0
28	941	7	10000	3	1	0	3	0
27	942	7	10000	3	1	0	3	0
28	943	7	10000	3	1	0	3	0
27	944	7	10000	3	1	0	3	0
28	945	7	10000	3	1	0	3	0
27	946	7	10000	3	1	0	3	0
27	947	7	10000	3	1	0	3	0
26	948	7	10000	3	1	0	3	0
25	949	7	10000	3	1	0	3	0
25	950	7	10000	3	1	0	3	0
24	951	7	10000	3	1	0	3	0
24	952	7	10000	3	1	0	3	0
22	953	7	10000	3	1	0	3	0
23	954	7	10000	3	1	0	3	0
23	955	7	10000	3	1	0	3	0
22	956	7	10000	3	1	0	3	0
21	957	7	10000	3	1	0	3	0
21	958	7	10000	3	1	0	3	0
21	959	7	10000	3	1	0	3	0
20	960	7	10000	3	1	0	3	0
19	961	7	10000	3	1	0	3	0
19	962	7	10000	3	1	0	3	0
20	963	7	10000	3	1	0	3	0
19	964	7	10000	3	1	0	3	0
19	965	7	10000	3	1	0	3	0
18	966	7	10000	3	1	0	3	0
19	967	7	10000	3	1	0	3	0
18	968	7	10000	3	1	0	3	0
18	969	7	10000	3	1	0	3	0
19	970	7	10000	3	1	0	3	0
18	971	7	10000	3	1	0	3	0
18	972	7	10000	3	1	0	3	0
16	973	7	10000	3	1	0	3	0
17	974	7	10000	3	1	0	3	0
17	975	7	10000	3	1	0	3	0
18	976	7	10000	3	1	0	3	0
17	977	7	10000	3	1	0	3	0
17	978	7	10000	3	1	0	3	0
17	979	7	10000	3	1	0	3	0
16	980	7	10000	3	1	0	3	0
16	981	7	10000	3	1	0	3	0
15	982	7	10000	3	1	0	3	0
17	983	7	10000	3	1	0	3	0
17	984	7	10000	3	1	0	3	0
17	985	7	10000	3	1	0	3	0
16	986	7	10000	3	1	0	3	0
17	987	7	10000	3	1	0	3	0
16	988	7	10000	3	1	0	3	0
16	989	7	10000	3	1	0	3	0
16	990	7	10000	3	1	0	3	0
18	991	7	10000	3	1	0	3	0
18	992	7	10000	3	1	0	3	0
17	993	7	10000	3	1	0	3	0
16	994	7	10000	3	1	0	3	0
17	995	7	10000	3	1	0	3	0
16	996	7	10000	3	1	0	3	0
16	997	7	10000	3	1	0	3	0
15	998	7	10000	3	1	0	3	0
15	999	7	10000	3	1	0	3	0
15	1000	7	10000	3	1	0	3	0
14	1001	7	10000	3	1	0	3	0
11	2	0	10000	4	1	0	4	0
14	3	0	10000	4	1	0	4	0
14	4	0	10000	4	1	0	4	0
13	5	0	10000	4	1	0	4	0
13	6	0	10000	4	1	0	4	0
13	7	0	10000	4	1	0	4	0
12	8	0	10000	4	1	0	4	0
11	9	0	10000	4	1	0	4	0
12	10	0	10000	4	1	0	4	0
12	11	0	10000	4	1	0	4	0
12	12	0	10000	4	1	0	4	0
10	13	0	10000	4	1	0	4	0
10	14	0	10000	4	1	0	4	0
10	15	0	10000	4	1	0	4	0
10	16	0	10000	4	1	0	4	0
10	17	0	10000	4	1	0	4	0
10	18	0	10000	4	1	0	4	0
10	19	0	10000	4	1	0	4	0
10	20	0	10000	4	1	0	4	0
9	21	0	10000	4	1	0	4	0
9	22	0	10000	4	1	0	4	0
10	23	0	10000	4	1	0	4	0
10	24	0	10000	4	1	0	4	0
10	25	0	10000	4	1	0	4	0
9	26	0	10000	4	1	0	4	0
9	27	0	10000	4	1	0	4	0
10	28	0	10000	4	1	0	4	0
11	29	0	10000	4	1	0	4	0
12	30	0	10000	4	1	0	4	0
13	31	0	10000	4	1	0	4	0
14	32	0	10000	4	1	0	4	0
12	33	0	10000	4	1	0	4	0
12	34	0	10000	4	1	0	4	0
14	35	0	10000	4	1	0	4	0
14	36	0	10000	4	1	0	4	0
14	37	0	10000	4	1	0	4	0
14	38	0	10000	4	1	0	4	0
15	39	0	10000	4	1	0	4	0
14	40	0	10000	4	1	0	4	0
15	41	0	10000	4	1	0	4	0
13	42	0	10000	4	1	0	4	0
15	43	0	10000	4	1	0	4	0
15	44	0	10000	4	1	0	4	0
14	45	0	10000	4	1	0	4	0
13	46	0	10000	4	1	0	4	0
13	47	0	10000	4	1	0	4	0
13	48	0	10000	4	1	0	4	0
13	49	0	10000	4	1	0	4	0
14	50	0	10000	4	1	0	4	0
15	51	0	10000	4	1	0	4	0
15	52	0	10000	4	1	0	4	0
13	53	0	10000	4	1	0	4	0
13	54	0	10000	4	1	0	4	0
14	55	0	10000	4	1	0	4	0
14	56	0	10000	4	1	0	4	0
15	57	0	10000	4	1	0	4	0
15	58	0	10000	4	1	0	4	0
16	59	0	10000	4	1	0	4	0
16	60	0	10000	4	1	0	4	0
15	61	0	10000	4	1	0	4	0
15	62	0	10000	4	1	0	4	0
16	63	0	10000	4	1	0	4	0
16	64	0	10000	4	1	0	4	0
15	65	0	10000	4	1	0	4	0
15	66	0	10000	4	1	0	4	0
15	67	0	10000	4	1	0	4	0
16	68	0	10000	4	1	0	4	0
16	69	0	10000	4	1	0	4	0
17	70	0	10000	4	1	0	4	0
18	71	0	10000	4	1	0	4	0
17	72	0	10000	4	1	0	4	0
15	73	0	10000	4	1	0	4	0
15	74	0	10000	4	1	0	4	0
15	75	0	10000	4	1	0	4	0
14	76	0	10000	4	1	0	4	0
14	77	0	10000	4	1	0	4	0
15	78	0	10000	4	1	0	4	0
16	79	0	10000	4	1	0	4	0
15	80	0	10000	4	1	0	4	0
14	81	0	10000	4	1	0	4	0
14	82	0	10000	4	1	0	4	0
16	83	0	10000	4	1	0	4	0
16	84	0	10000	4	1	0	4	0
15	85	0	10000	4	1	0	4	0
15	86	0	10000	4	1	0	4	0
14	87	0	10000	4	1	0	4	0
13	88	0	10000	4	1	0	4	0
15	89	0	10000	4	1	0	4	0
16	90	0	10000	4	1	0	4	0
17	91	0	10000	4	1	0	4	0
17	92	0	10000	4	1	0	4	0
16	93	0	10000	4	1	0	4	0
16	94	0	10000	4	1	0	4	0
16	95	0	10000	4	1	0	4	0
16	96	0	10000	4	1	0	4	0
16	97	0	10000	4	1	0	4	0
15	98	0	10000	4	1	0	4	0
16	99	0	10000	4	1	0	4	0
15	100	0	10000	4	1	0	4	0
15	101	0	10000	4	1	0	4	0
14	102	0	10000	4	1	0	4	0
16	103	0	10000	4	1	0	4	0
17	104	0	10000	4	1	0	4	0
16	105	0	10000	4	1	0	4	0
17	106	0	10000	4	1	0	4	0
16	107	0	10000	4	1	0	4	0
16	108	0	10000	4	1	0	4	0
17	109	0	10000	4	1	0	4	0
19	110	0	10000	4	1	0	4	0
21	111	0	10000	4	1	0	4	0
24	112	0	10000	4	1	0	4	0
22	113	0	10000	4	1	0	4	0
23	114	0	10000	4	1	0	4	0
23	115	0	10000	4	1	0	4	0
23	116	0	10000	4	1	0	4	0
22	117	0	10000	4	1	0	4	0
22	118	0	10000	4	1	0	4	0
22	119	0	10000	4	1	0	4	0
23	120	0	10000	4	1	0	4	0
21	121	0	10000	4	1	0	4	0
22	122	0	10000	4	1	0	4	0
23	123	0	10000	4	1	0	4	0
22	124	0	10000	4	1	0	4	0
22	125	0	10000	4	1	0	4	0
24	126	0	10000	4	1	0	4	0
28	127	0	10000	4	1	0	4	0
31	128	0	10000	4	1	0	4	0
33	129	0	10000	4	1	0	4	0
34	130	0	10000	4	1	0	4	0
35	131	0	10000	4	1	0	4	0
35	132	0	10000	4	1	0	4	0
33	133	0	10000	4	1	0	4	0
33	134	0	10000	4	1	0	4	0
34	135	0	10000	4	1	0	4	0
34	136	0	10000	4	1	0	4	0
33	137	0	10000	4	1	0	4	0
34	138	0	10000	4	1	0	4	0
35	139	0	10000	4	1	0	4	0
37	140	0	10000	4	1	0	4	0
37	141	0	10000	4	1	0	4	0
35	142	0	10000	4	1	0	4	0
36	143	0	10000	4	1	0	4	0
37	144	0	10000	4	1	0	4	0
37	145	0	10000	4	1	0	4	0
36	146	0	10000	4	1	0	4	0
36	147	0	10000	4	1	0	4	0
34	148	0	10000	4	1	0	4	0
33	149	0	10000	4	1	0	4	0
32	150	0	10000	4	1	0	4	0
32	151	0	10000	4	1	0	4	0
32	152	0	10000	4	1	0	4	0
29	153	0	10000	4	1	0	4	0
30	154	0	10000	4	1	0	4	0
29	155	0	10000	4	1	0	4	0
29	156	0	10000	4	1	0	4	0
30	157	0	10000	4	1	0	4	0
30	158	0	10000	4	1	0	4	0
31	159	0	10000	4	1	0	4	0
30	160	0	10000	4	1	0	4	0
30	161	0	10000	4	1	0	4	0
31	162	0	10000	4	1	0	4	0
32	163	0	10000	4	1	0	4	0
32	164	0	10000	4	1	0	4	0
31	165	0	10000	4	1	0	4	0
30	166	0	10000	4	1	0	4	0
30	167	0	10000	4	1	0	4	0
31	168	0	10000	4	1	0	4	0
31	169	0	10000	4	1	0	4	0
32	170	0	10000	4	1	0	4	0
32	171	0	10000	4	1	0	4	0
33	172	0	10000	4	1	0	4	0
33	173	0	10000	4	1	0	4	0
33	174	0	10000	4	1	0	4	0
33	175	0	10000	4	1	0	4	0
33	176	0	10000	4	1	0	4	0
33	177	0	10000	4	1	0	4	0
32	178	0	10000	4	1	0	4	0
31	179	0	10000	4	1	0	4	0
30	180	0	10000	4	1	0	4	0
29	181	0	10000	4	1	0	4	0
28	182	0	10000	4	1	0	4	0
31	183	0	10000	4	1	0	4	0
30	184	0	10000	4	1	0	4	0
29	185	0	10000	4	1	0	4	0
27	186	0	10000	4	1	0	4	0
26	187	0	10000	4	1	0	4	0
26	188	0	10000	4	1	0	4	0
25	189	0	10000	4	1	0	4	0
25	190	0	10000	4	1	0	4	0
26	191	0	10000	4	1	0	4	0
26	192	0	10000	4	1	0	4	0
23	193	0	10000	4	1	0	4	0
24	194	0	10000	4	1	0	4	0
23	195	0	10000	4	1	0	4	0
23	196	0	10000	4	1	0	4	0
23	197	0	10000	4	1	0	4	0
22	198	0	10000	4	1	0	4	0
22	199	0	10000	4	1	0	4	0
20	200	0	10000	4	1	0	4	0
19	201	0	10000	4	1	0	4	0
18	202	0	10000	4	1	0	4	0
20	203	0	10000	4	1	0	4	0
20	204	0	10000	4	1	0	4	0
19	205	0	10000	4	1	0	4	0
18	206	0	10000	4	1	0	4	0
17	207	0	10000	4	1	0	4	0
17	208	0	10000	4	1	0	4	0
17	209	0	10000	4	1	0	4	0
17	210	0	10000	4	1	0	4	0
17	211	0	10000	4	1	0	4	0
17	212	0	10000	4	1	0	4	0
14	213	0	10000	4	1	0	4	0
14	214	0	10000	4	1	0	4	0
15	215	0	10000	4	1	0	4	0
14	216	0	10000	4	1	0	4	0
14	217	0	10000	4	1	0	4	0
14	218	0	10000	4	1	0	4	0
15	219	0	10000	4	1	0	4	0
14	220	0	10000	4	1	0	4	0
13	221	0	10000	4	1	0	4	0
13	222	0	10000	4	1	0	4	0
15	223	0	10000	4	1	0	4	0
14	224	0	10000	4	1	0	4	0
14	225	0	10000	4	1	0	4	0
14	226	0	10000	4	1	0	4	0
13	227	0	10000	4	1	0	4	0
12	228	0	10000	4	1	0	4	0
12	229	0	10000	4	1	0	4	0
13	230	0	10000	4	1	0	4	0
13	231	0	10000	4	1	0	4	0
12	232	0	10000	4	1	0	4	0
11	233	0	10000	4	1	0	4	0
11	234	0	10000	4	1	0	4	0
11	235	0	10000	4	1	0	4	0
12	236	0	10000	4	1	0	4	0
12	237	0	10000	4	1	0	4	0
13	238	0	10000	4	1	0	4	0
14	239	0	10000	4	1	0	4	0
14	240	0	10000	4	1	0	4	0
14	241	0	10000	4	1	0	4	0
12	242	0	10000	4	1	0	4	0
15	243	0	10000	4	1	0	4	0
15	244	0	10000	4	1	0	4	0
15	245	0	10000	4	1	0	4	0
14	246	0	10000	4	1	0	4	0
14	247	0	10000	4	1	0	4	0
13	248	0	10000	4	1	0	4	0
13	249	0	10000	4	1	0	4	0
14	250	0	10000	4	1	0	4	0
14	251	0	10000	4	1	0	4	0
15	252	0	10000	4	1	0	4	0
12	253	0	10000	4	1	0	4	0
13	254	0	10000	4	1	0	4	0
13	255	0	10000	4	1	0	4	0
13	256	0	10000	4	1	0	4	0
14	257	0	10000	4	1	0	4	0
13	258	0	10000	4	1	0	4	0
14	259	0	10000	4	1	0	4	0
14	260	0	10000	4	1	0	4	0
14	261	0	10000	4	1	0	4	0
15	262	0	10000	4	1	0	4	0
16	263	0	10000	4	1	0	4	0
17	264	0	10000	4	1	0	4	0
17	265	0	10000	4	1	0	4	0
16	266	0	10000	4	1	0	4	0
16	267	0	10000	4	1	0	4	0
15	268	0	10000	4	1	0	4	0
14	269	0	10000	4	1	0	4	0
15	270	0	10000	4	1	0	4	0
14	271	0	10000	4	1	0	4	0
14	272	0	10000	4	1	0	4	0
13	273	0	10000	4	1	0	4	0
12	274	0	10000	4	1	0	4	0
13	275	0	10000	4	1	0	4	0
13	276	0	10000	4	1	0	4	0
13	277	0	10000	4	1	0	4	0
13	278	0	10000	4	1	0	4	0
13	279	0	10000	4	1	0	4	0
12	280	0	10000	4	1	0	4	0
12	281	0	10000	4	1	0	4	0
11	282	0	10000	4	1	0	4	0
14	283	0	10000	4	1	0	4	0
13	284	0	10000	4	1	0	4	0
12	285	0	10000	4	1	0	4	0
12	286	0	10000	4	1	0	4	0
12	287	0	10000	4	1	0	4	0
12	288	0	10000	4	1	0	4	0
13	289	0	10000	4	1	0	4	0
14	290	0	10000	4	1	0	4	0
16	291	0	10000	4	1	0	4	0
17	292	0	10000	4	1	0	4	0
16	293	0	10000	4	1	0	4	0
16	294	0	10000	4	1	0	4	0
16	295	0	10000	4	1	0	4	0
18	296	0	10000	4	1	0	4	0
19	297	0	10000	4	1	0	4	0
20	298	0	10000	4	1	0	4	0
21	299	0	10000	4	1	0	4	0
19	300	0	10000	4	1	0	4	0
19	301	0	10000	4	1	0	4	0
19	302	0	10000	4	1	0	4	0
20	303	0	10000	4	1	0	4	0
19	304	0	10000	4	1	0	4	0
18	305	0	10000	4	1	0	4	0
18	306	0	10000	4	1	0	4	0
17	307	0	10000	4	1	0	4	0
16	308	0	10000	4	1	0	4	0
16	309	0	10000	4	1	0	4	0
16	310	0	10000	4	1	0	4	0
18	311	0	10000	4	1	0	4	0
19	312	0	10000	4	1	0	4	0
16	313	0	10000	4	1	0	4	0
17	314	0	10000	4	1	0	4	0
17	315	0	10000	4	1	0	4	0
17	316	0	10000	4	1	0	4	0
16	317	0	10000	4	1	0	4	0
17	318	0	10000	4	1	0	4	0
17	319	0	10000	4	1	0	4	0
17	320	0	10000	4	1	0	4	0
15	321	0	10000	4	1	0	4	0
14	322	0	10000	4	1	0	4	0
17	323	0	10000	4	1	0	4	0
16	324	0	10000	4	1	0	4	0
15	325	0	10000	4	1	0	4	0
15	326	0	10000	4	1	0	4	0
15	327	0	10000	4	1	0	4	0
16	328	0	10000	4	1	0	4	0
15	329	0	10000	4	1	0	4	0
15	330	0	10000	4	1	0	4	0
16	331	0	10000	4	1	0	4	0
16	332	0	10000	4	1	0	4	0
13	333	0	10000	4	1	0	4	0
13	334	0	10000	4	1	0	4	0
14	335	0	10000	4	1	0	4	0
13	336	0	10000	4	1	0	4	0
13	337	0	10000	4	1	0	4	0
14	338	0	10000	4	1	0	4	0
14	339	0	10000	4	1	0	4	0
13	340	0	10000	4	1	0	4	0
13	341	0	10000	4	1	0	4	0
11	342	0	10000	4	1	0	4	0
13	343	0	10000	4	1	0	4	0
13	344	0	10000	4	1	0	4	0
13	345	0	10000	4	1	0	4	0
12	346	0	10000	4	1	0	4	0
12	347	0	10000	4	1	0	4	0
12	348	0	10000	4	1	0	4	0
11	349	0	10000	4	1	0	4	0
11	350	0	10000	4	1	0	4	0
11	351	0	10000	4	1	0	4	0
11	352	0	10000	4	1	0	4	0
9	353	0	10000	4	1	0	4	0
9	354	0	10000	4	1	0	4	0
9	355	0	10000	4	1	0	4	0
9	356	0	10000	4	1	0	4	0
8	357	0	10000	4	1	0	4	0
9	358	0	10000	4	1	0	4	0
9	359	0	10000	4	1	0	4	0
9	360	0	10000	4	1	0	4	0
9	361	0	10000	4	1	0	4	0
10	362	0	10000	4	1	0	4	0
13	363	0	10000	4	1	0	4	0
13	364	0	10000	4	1	0	4	0
12	365	0	10000	4	1	0	4	0
13	366	0	10000	4	1	0	4	0
12	367	0	10000	4	1	0	4	0
12	368	0	10000	4	1	0	4	0
12	369	0	10000	4	1	0	4	0
12	370	0	10000	4	1	0	4	0
12	371	0	10000	4	1	0	4	0
12	372	0	10000	4	1	0	4	0
11	373	0	10000	4	1	0	4	0
11	374	0	10000	4	1	0	4	0
11	375	0	10000	4	1	0	4	0
12	376	0	10000	4	1	0	4	0
11	377	0	10000	4	1	0	4	0
12	378	0	10000	4	1	0	4	0
11	379	0	10000	4	1	0	4	0
11	380	0	10000	4	1	0	4	0
11	381	0	10000	4	1	0	4	0
11	382	0	10000	4	1	0	4	0
13	383	0	10000	4	1	0	4	0
12	384	0	10000	4	1	0	4	0
12	385	0	10000	4	1	0	4	0
12	386	0	10000	4	1	0	4	0
12	387	0	10000	4	1	0	4	0
12	388	0	10000	4	1	0	4	0
13	389	0	10000	4	1	0	4	0
14	390	0	10000	4	1	0	4	0
14	391	0	10000	4	1	0	4	0
14	392	0	10000	4	1	0	4	0
12	393	0	10000	4	1	0	4	0
13	394	0	10000	4	1	0	4	0
12	395	0	10000	4	1	0	4	0
13	396	0	10000	4	1	0	4	0
12	397	0	10000	4	1	0	4	0
11	398	0	10000	4	1	0	4	0
12	399	0	10000	4	1	0	4	0
11	400	0	10000	4	1	0	4	0
11	401	0	10000	4	1	0	4	0
11	402	0	10000	4	1	0	4	0
12	403	0	10000	4	1	0	4	0
12	404	0	10000	4	1	0	4	0
12	405	0	10000	4	1	0	4	0
11	406	0	10000	4	1	0	4	0
11	407	0	10000	4	1	0	4	0
12	408	0	10000	4	1	0	4	0
13	409	0	10000	4	1	0	4	0
14	410	0	10000	4	1	0	4	0
14	411	0	10000	4	1	0	4	0
15	412	0	10000	4	1	0	4	0
14	413	0	10000	4	1	0	4	0
17	414	0	10000	4	1	0	4	0
19	415	0	10000	4	1	0	4	0
22	416	0	10000	4	1	0	4	0
22	417	0	10000	4	1	0	4	0
21	418	0	10000	4	1	0	4	0
21	419	0	10000	4	1	0	4	0
21	420	0	10000	4	1	0	4	0
20	421	0	10000	4	1	0	4	0
19	422	0	10000	4	1	0	4	0
20	423	0	10000	4	1	0	4	0
20	424	0	10000	4	1	0	4	0
20	425	0	10000	4	1	0	4	0
22	426	0	10000	4	1	0	4	0
26	427	0	10000	4	1	0	4	0
30	428	0	10000	4	1	0	4	0
32	429	0	10000	4	1	0	4	0
34	430	0	10000	4	1	0	4	0
35	431	0	10000	4	1	0	4	0
35	432	0	10000	4	1	0	4	0
32	433	0	10000	4	1	0	4	0
33	434	0	10000	4	1	0	4	0
33	435	0	10000	4	1	0	4	0
32	436	0	10000	4	1	0	4	0
31	437	0	10000	4	1	0	4	0
30	438	0	10000	4	1	0	4	0
29	439	0	10000	4	1	0	4	0
28	440	0	10000	4	1	0	4	0
27	441	0	10000	4	1	0	4	0
25	442	0	10000	4	1	0	4	0
26	443	0	10000	4	1	0	4	0
26	444	0	10000	4	1	0	4	0
25	445	0	10000	4	1	0	4	0
24	446	0	10000	4	1	0	4	0
23	447	0	10000	4	1	0	4	0
23	448	0	10000	4	1	0	4	0
24	449	0	10000	4	1	0	4	0
25	450	0	10000	4	1	0	4	0
26	451	0	10000	4	1	0	4	0
28	452	0	10000	4	1	0	4	0
27	453	0	10000	4	1	0	4	0
28	454	0	10000	4	1	0	4	0
29	455	0	10000	4	1	0	4	0
29	456	0	10000	4	1	0	4	0
30	457	0	10000	4	1	0	4	0
30	458	0	10000	4	1	0	4	0
29	459	0	10000	4	1	0	4	0
29	460	0	10000	4	1	0	4	0
30	461	0	10000	4	1	0	4	0
31	462	0	10000	4	1	0	4	0
32	463	0	10000	4	1	0	4	0
32	464	0	10000	4	1	0	4	0
32	465	0	10000	4	1	0	4	0
32	466	0	10000	4	1	0	4	0
34	467	0	10000	4	1	0	4	0
35	468	0	10000	4	1	0	4	0
35	469	0	10000	4	1	0	4	0
37	470	0	10000	4	1	0	4	0
36	471	0	10000	4	1	0	4	0
38	472	0	10000	4	1	0	4	0
36	473	0	10000	4	1	0	4	0
35	474	0	10000	4	1	0	4	0
34	475	0	10000	4	1	0	4	0
34	476	0	10000	4	1	0	4	0
33	477	0	10000	4	1	0	4	0
33	478	0	10000	4	1	0	4	0
32	479	0	10000	4	1	0	4	0
31	480	0	10000	4	1	0	4	0
31	481	0	10000	4	1	0	4	0
29	482	0	10000	4	1	0	4	0
31	483	0	10000	4	1	0	4	0
30	484	0	10000	4	1	0	4	0
28	485	0	10000	4	1	0	4	0
28	486	0	10000	4	1	0	4	0
26	487	0	10000	4	1	0	4	0
25	488	0	10000	4	1	0	4	0
25	489	0	10000	4	1	0	4	0
25	490	0	10000	4	1	0	4	0
25	491	0	10000	4	1	0	4	0
24	492	0	10000	4	1	0	4	0
21	493	0	10000	4	1	0	4	0
21	494	0	10000	4	1	0	4	0
21	495	0	10000	4	1	0	4	0
20	496	0	10000	4	1	0	4	0
20	497	0	10000	4	1	0	4	0
19	498	0	10000	4	1	0	4	0
20	499	0	10000	4	1	0	4	0
19	500	0	10000	4	1	0	4	0
18	501	0	10000	4	1	0	4	0
17	502	0	10000	4	1	0	4	1
18	503	0	10000	4	1	0	4	1
18	504	0	10000	4	1	0	4	1
17	505	0	10000	4	1	0	4	1
17	506	0	10000	4	1	0	4	1
17	507	0	10000	4	1	0	4	1
16	508	0	10000	4	1	0	4	1
15	509	0	10000	4	1	0	4	1
16	510	0	10000	4	1	0	4	1
15	511	0	10000	4	1	0	4	1
15	512	0	10000	4	1	0	4	1
14	513	0	10000	4	1	0	4	1
13	514	0	10000	4	1	0	4	1
13	515	0	10000	4	1	0	4	1
13	516	0	10000	4	1	0	4	1
13	517	0	10000	4	1	0	4	1
13	518	0	10000	4	1	0	4	1
12	519	0	10000	4	1	0	4	1
13	520	0	10000	4	1	0	4	1
12	521	0	10000	4	1	0	4	1
14	522	0	10000	4	1	0	4	1
17	523	0	10000	4	1	0	4	1
16	524	0	10000	4	1	0	4	1
15	525	0	10000	4	1	0	4	1
15	526	0	10000	4	1	0	4	1
14	527	0	10000	4	1	0	4	1
14	528	0	10000	4	1	0	4	1
14	529	0	10000	4	1	0	4	1
14	530	0	10000	4	1	0	4	1
14	531	0	10000	4	1	0	4	1
14	532	0	10000	4	1	0	4	1
12	533	0	10000	4	1	0	4	1
12	534	0	10000	4	1	0	4	1
12	535	0	10000	4	1	0	4	1
13	536	0	10000	4	1	0	4	1
12	537	0	10000	4	1	0	4	1
13	538	0	10000	4	1	0	4	1
13	539	0	10000	4	1	0	4	1
13	540	0	10000	4	1	0	4	1
14	541	0	10000	4	1	0	4	1
14	542	0	10000	4	1	0	4	1
16	543	0	10000	4	1	0	4	1
16	544	0	10000	4	1	0	4	1
16	545	0	10000	4	1	0	4	1
15	546	0	10000	4	1	0	4	1
16	547	0	10000	4	1	0	4	1
17	548	0	10000	4	1	0	4	1
19	549	0	10000	4	1	0	4	1
19	550	0	10000	4	1	0	4	1
19	551	0	10000	4	1	0	4	1
19	552	0	10000	4	1	0	4	0
16	553	0	10000	4	1	0	4	0
17	554	0	10000	4	1	0	4	0
17	555	0	10000	4	1	0	4	0
17	556	0	10000	4	1	0	4	0
18	557	0	10000	4	1	0	4	0
17	558	0	10000	4	1	0	4	0
17	559	0	10000	4	1	0	4	0
16	560	0	10000	4	1	0	4	0
15	561	0	10000	4	1	0	4	0
15	562	0	10000	4	1	0	4	0
17	563	0	10000	4	1	0	4	0
16	564	0	10000	4	1	0	4	0
15	565	0	10000	4	1	0	4	0
15	566	0	10000	4	1	0	4	0
15	567	0	10000	4	1	0	4	0
15	568	0	10000	4	1	0	4	0
13	569	0	10000	4	1	0	4	0
14	570	0	10000	4	1	0	4	0
15	571	0	10000	4	1	0	4	0
14	572	0	10000	4	1	0	4	0
12	573	0	10000	4	1	0	4	0
12	574	0	10000	4	1	0	4	0
13	575	0	10000	4	1	0	4	0
14	576	0	10000	4	1	0	4	0
14	577	0	10000	4	1	0	4	0
14	578	0	10000	4	1	0	4	0
14	579	0	10000	4	1	0	4	0
14	580	0	10000	4	1	0	4	0
15	581	0	10000	4	1	0	4	0
15	582	0	10000	4	1	0	4	0
17	583	0	10000	4	1	0	4	0
19	584	0	10000	4	1	0	4	0
22	585	0	10000	4	1	0	4	0
25	586	0	10000	4	1	0	4	0
42	587	0	10000	4	1	0	4	0
75	588	0	10000	4	1	0	4	0
101	589	0	10000	4	1	0	4	0
114	590	0	10000	4	1	0	4	0
120	591	0	10000	4	1	0	4	0
131	592	0	10000	4	1	0	4	0
130	593	0	10000	4	1	0	4	0
154	594	0	10000	4	1	0	4	0
192	595	0	10000	4	1	0	4	0
221	596	0	10000	4	1	0	4	0
222	597	0	10000	4	1	0	4	0
222	598	0	10000	4	1	0	4	0
214	599	0	10000	4	1	0	4	0
214	600	0	10000	4	1	0	4	0
243	601	0	10000	4	1	0	4	0
294	602	0	10000	4	1	0	4	0
333	603	0	10000	4	1	0	4	0
340	604	0	10000	4	1	0	4	0
386	605	0	10000	4	1	0	4	0
467	606	0	10000	4	1	0	4	0
534	607	0	10000	4	1	0	4	0
603	608	0	10000	4	1	0	4	0
628	609	0	10000	4	1	0	4	0
617	610	0	10000	4	1	0	4	0
643	611	0	10000	4	1	0	4	0
674	612	0	10000	4	1	0	4	0
658	613	0	10000	4	1	0	4	0
637	614	0	10000	4	1	0	4	0
643	615	0	10000	4	1	0	4	0
639	616	0	10000	4	1	0	4	0
642	617	0	10000	4	1	0	4	0
667	618	0	10000	4	1	0	4	0
699	619	0	10000	4	1	0	4	0
709	620	0	10000	4	1	0	4	0
698	621	0	10000	4	1	0	4	0
682	622	0	10000	4	1	0	4	0
663	623	0	10000	4	1	0	4	0
634	624	0	10000	4	1	0	4	0
607	625	0	10000	4	1	0	4	0
584	626	0	10000	4	1	0	4	0
563	627	0	10000	4	1	0	4	0
544	628	0	10000	4	1	0	4	0
525	629	0	10000	4	1	0	4	0
508	630	0	10000	4	1	0	4	0
492	631	0	10000	4	1	0	4	0
478	632	0	10000	4	1	0	4	0
460	633	0	10000	4	1	0	4	0
445	634	0	10000	4	1	0	4	0
432	635	0	10000	4	1	0	4	0
419	636	0	10000	4	1	0	4	0
403	637	0	10000	4	1	0	4	0
388	638	0	10000	4	1	0	4	0
372	639	0	10000	4	1	0	4	0
355	640	0	10000	4	1	0	4	0
342	641	0	10000	4	1	0	4	0
333	642	0	10000	4	1	0	4	0
330	643	0	10000	4	1	0	4	0
328	644	0	10000	4	1	0	4	0
328	645	0	10000	4	1	0	4	0
330	646	0	10000	4	1	0	4	0
334	647	0	10000	4	1	0	4	0
340	648	0	10000	4	1	0	4	0
345	649	0	10000	4	1	0	4	0
348	650	0	10000	4	1	0	4	0
350	651	0	10000	4	1	0	4	0
350	652	0	10000	4	1	0	4	0
347	653	0	10000	4	1	0	4	0
347	654	0	10000	4	1	0	4	0
345	655	0	10000	4	1	0	4	0
342	656	0	10000	4	1	0	4	0
341	657	0	10000	4	1	0	4	0
339	658	0	10000	4	1	0	4	0
339	659	0	10000	4	1	0	4	0
340	660	0	10000	4	1	0	4	0
341	661	0	10000	4	1	0	4	0
344	662	0	10000	4	1	0	4	0
350	663	0	10000	4	1	0	4	0
352	664	0	10000	4	1	0	4	0
355	665	0	10000	4	1	0	4	0
357	666	0	10000	4	1	0	4	0
359	667	0	10000	4	1	0	4	0
360	668	0	10000	4	1	0	4	0
360	669	0	10000	4	1	0	4	0
359	670	0	10000	4	1	0	4	0
355	671	0	10000	4	1	0	4	0
348	672	0	10000	4	1	0	4	0
337	673	0	10000	4	1	0	4	0
325	674	0	10000	4	1	0	4	0
312	675	0	10000	4	1	0	4	0
298	676	0	10000	4	1	0	4	0
287	677	0	10000	4	1	0	4	0
279	678	0	10000	4	1	0	4	0
272	679	0	10000	4	1	0	4	0
265	680	0	10000	4	1	0	4	0
259	681	0	10000	4	1	0	4	0
253	682	0	10000	4	1	0	4	0
249	683	0	10000	4	1	0	4	0
243	684	0	10000	4	1	0	4	0
237	685	0	10000	4	1	0	4	0
233	686	0	10000	4	1	0	4	0
228	687	0	10000	4	1	0	4	0
225	688	0	10000	4	1	0	4	0
224	689	0	10000	4	1	0	4	0
225	690	0	10000	4	1	0	4	0
226	691	0	10000	4	1	0	4	0
227	692	0	10000	4	1	0	4	0
228	693	0	10000	4	1	0	4	0
233	694	0	10000	4	1	0	4	0
238	695	0	10000	4	1	0	4	0
245	696	0	10000	4	1	0	4	0
254	697	0	10000	4	1	0	4	0
262	698	0	10000	4	1	0	4	0
272	699	0	10000	4	1	0	4	0
279	700	0	10000	4	1	0	4	0
285	701	0	10000	4	1	0	4	0
289	702	0	10000	4	1	0	4	0
295	703	0	10000	4	1	0	4	0
296	704	0	10000	4	1	0	4	0
297	705	0	10000	4	1	0	4	0
296	706	0	10000	4	1	0	4	0
297	707	0	10000	4	1	0	4	0
295	708	0	10000	4	1	0	4	0
292	709	0	10000	4	1	0	4	0
290	710	0	10000	4	1	0	4	0
288	711	0	10000	4	1	0	4	0
288	712	0	10000	4	1	0	4	0
285	713	0	10000	4	1	0	4	0
286	714	0	10000	4	1	0	4	0
290	715	0	10000	4	1	0	4	0
292	716	0	10000	4	1	0	4	0
294	717	0	10000	4	1	0	4	0
297	718	0	10000	4	1	0	4	0
297	719	0	10000	4	1	0	4	0
297	720	0	10000	4	1	0	4	0
295	721	0	10000	4	1	0	4	0
292	722	0	10000	4	1	0	4	0
288	723	0	10000	4	1	0	4	0
282	724	0	10000	4	1	0	4	0
277	725	0	10000	4	1	0	4	0
271	726	0	10000	4	1	0	4	0
264	727	0	10000	4	1	0	4	0
258	728	0	10000	4	1	0	4	0
250	729	0	10000	4	1	0	4	0
243	730	0	10000	4	1	0	4	0
237	731	0	10000	4	1	0	4	0
231	732	0	10000	4	1	0	4	0
224	733	0	10000	4	1	0	4	0
218	734	0	10000	4	1	0	4	0
215	735	0	10000	4	1	0	4	0
213	736	0	10000	4	1	0	4	0
212	737	0	10000	4	1	0	4	0
211	738	0	10000	4	1	0	4	0
209	739	0	10000	4	1	0	4	0
205	740	0	10000	4	1	0	4	0
201	741	0	10000	4	1	0	4	0
195	742	0	10000	4	1	0	4	0
191	743	0	10000	4	1	0	4	0
185	744	0	10000	4	1	0	4	0
176	745	0	10000	4	1	0	4	0
169	746	0	10000	4	1	0	4	0
162	747	0	10000	4	1	0	4	0
155	748	0	10000	4	1	0	4	0
149	749	0	10000	4	1	0	4	0
145	750	0	10000	4	1	0	4	0
140	751	0	10000	4	1	0	4	0
135	752	0	10000	4	1	0	4	0
127	753	0	10000	4	1	0	4	0
122	754	0	10000	4	1	0	4	0
116	755	0	10000	4	1	0	4	0
112	756	0	10000	4	1	0	4	0
109	757	0	10000	4	1	0	4	0
105	758	0	10000	4	1	0	4	0
101	759	0	10000	4	1	0	4	0
98	760	0	10000	4	1	0	4	0
94	761	0	10000	4	1	0	4	0
90	762	0	10000	4	1	0	4	0
89	763	0	10000	4	1	0	4	0
86	764	0	10000	4	1	0	4	0
85	765	0	10000	4	1	0	4	0
82	766	0	10000	4	1	0	4	0
82	767	0	10000	4	1	0	4	0
82	768	0	10000	4	1	0	4	0
82	769	0	10000	4	1	0	4	0
84	770	0	10000	4	1	0	4	0
85	771	0	10000	4	1	0	4	0
86	772	0	10000	4	1	0	4	0
82	773	0	10000	4	1	0	4	0
80	774	0	10000	4	1	0	4	0
78	775	0	10000	4	1	0	4	0
75	776	0	10000	4	1	0	4	0
72	777	0	10000	4	1	0	4	0
69	778	0	10000	4	1	0	4	0
66	779	0	10000	4	1	0	4	0
62	780	0	10000	4	1	0	4	0
59	781	0	10000	4	1	0	4	0
57	782	0	10000	4	1	0	4	0
57	783	0	10000	4	1	0	4	0
57	784	0	10000	4	1	0	4	0
56	785	0	10000	4	1	0	4	0
57	786	0	10000	4	1	0	4	0
57	787	0	10000	4	1	0	4	0
58	788	0	10000	4	1	0	4	0
59	789	0	10000	4	1	0	4	0
61	790	0	10000	4	1	0	4	0
62	791	0	10000	4	1	0	4	0
62	792	0	10000	4	1	0	4	0
58	793	0	10000	4	1	0	4	0
57	794	0	10000	4	1	0	4	0
55	795	0	10000	4	1	0	4	0
53	796	0	10000	4	1	0	4	0
52	797	0	10000	4	1	0	4	0
50	798	0	10000	4	1	0	4	0
48	799	0	10000	4	1	0	4	0
46	800	0	10000	4	1	0	4	0
44	801	0	10000	4	1	0	4	0
44	802	0	10000	4	1	0	4	0
45	803	0	10000	4	1	0	4	0
45	804	0	10000	4	1	0	4	0
45	805	0	10000	4	1	0	4	0
46	806	0	10000	4	1	0	4	0
47	807	0	10000	4	1	0	4	0
50	808	0	10000	4	1	0	4	0
52	809	0	10000	4	1	0	4	0
55	810	0	10000	4	1	0	4	0
56	811	0	10000	4	1	0	4	0
57	812	0	10000	4	1	0	4	0
55	813	0	10000	4	1	0	4	0
55	814	0	10000	4	1	0	4	0
55	815	0	10000	4	1	0	4	0
52	816	0	10000	4	1	0	4	0
50	817	0	10000	4	1	0	4	0
48	818	0	10000	4	1	0	4	0
46	819	0	10000	4	1	0	4	0
44	820	0	10000	4	1	0	4	0
42	821	0	10000	4	1	0	4	0
41	822	0	10000	4	1	0	4	0
42	823	0	10000	4	1	0	4	0
41	824	0	10000	4	1	0	4	0
42	825	0	10000	4	1	0	4	0
44	826	0	10000	4	1	0	4	0
45	827	0	10000	4	1	0	4	0
47	828	0	10000	4	1	0	4	0
48	829	0	10000	4	1	0	4	0
49	830	0	10000	4	1	0	4	0
50	831	0	10000	4	1	0	4	0
50	832	0	10000	4	1	0	4	0
47	833	0	10000	4	1	0	4	0
46	834	0	10000	4	1	0	4	0
45	835	0	10000	4	1	0	4	0
44	836	0	10000	4	1	0	4	0
41	837	0	10000	4	1	0	4	0
41	838	0	10000	4	1	0	4	0
40	839	0	10000	4	1	0	4	0
37	840	0	10000	4	1	0	4	0
35	841	0	10000	4	1	0	4	0
35	842	0	10000	4	1	0	4	0
38	843	0	10000	4	1	0	4	0
38	844	0	10000	4	1	0	4	0
37	845	0	10000	4	1	0	4	0
39	846	0	10000	4	1	0	4	0
40	847	0	10000	4	1	0	4	0
40	848	0	10000	4	1	0	4	0
40	849	0	10000	4	1	0	4	0
42	850	0	10000	4	1	0	4	0
43	851	0	10000	4	1	0	4	0
42	852	0	10000	4	1	0	4	0
39	853	0	10000	4	1	0	4	0
37	854	0	10000	4	1	0	4	0
36	855	0	10000	4	1	0	4	0
35	856	0	10000	4	1	0	4	0
35	857	0	10000	4	1	0	4	0
34	858	0	10000	4	1	0	4	0
33	859	0	10000	4	1	0	4	0
33	860	0	10000	4	1	0	4	0
32	861	0	10000	4	1	0	4	0
31	862	0	10000	4	1	0	4	0
32	863	0	10000	4	1	0	4	0
32	864	0	10000	4	1	0	4	0
32	865	0	10000	4	1	0	4	0
31	866	0	10000	4	1	0	4	0
32	867	0	10000	4	1	0	4	0
32	868	0	10000	4	1	0	4	0
33	869	0	10000	4	1	0	4	0
36	870	0	10000	4	1	0	4	0
37	871	0	10000	4	1	0	4	0
36	872	0	10000	4	1	0	4	0
34	873	0	10000	4	1	0	4	0
33	874	0	10000	4	1	0	4	0
32	875	0	10000	4	1	0	4	0
32	876	0	10000	4	1	0	4	0
31	877	0	10000	4	1	0	4	0
31	878	0	10000	4	1	0	4	0
30	879	0	10000	4	1	0	4	0
29	880	0	10000	4	1	0	4	0
27	881	0	10000	4	1	0	4	0
26	882	0	10000	4	1	0	4	0
27	883	0	10000	4	1	0	4	0
26	884	0	10000	4	1	0	4	0
26	885	0	10000	4	1	0	4	0
27	886	0	10000	4	1	0	4	0
28	887	0	10000	4	1	0	4	0
30	888	0	10000	4	1	0	4	0
30	889	0	10000	4	1	0	4	0
30	890	0	10000	4	1	0	4	0
30	891	0	10000	4	1	0	4	0
29	892	0	10000	4	1	0	4	0
27	893	0	10000	4	1	0	4	0
28	894	0	10000	4	1	0	4	0
27	895	0	10000	4	1	0	4	0
27	896	0	10000	4	1	0	4	0
29	897	0	10000	4	1	0	4	0
29	898	0	10000	4	1	0	4	0
30	899	0	10000	4	1	0	4	0
29	900	0	10000	4	1	0	4	0
28	901	0	10000	4	1	0	4	0
28	902	0	10000	4	1	0	4	0
29	903	0	10000	4	1	0	4	0
28	904	0	10000	4	1	0	4	0
27	905	0	10000	4	1	0	4	0
29	906	0	10000	4	1	0	4	0
31	907	0	10000	4	1	0	4	0
33	908	0	10000	4	1	0	4	0
35	909	0	10000	4	1	0	4	0
36	910	0	10000	4	1	0	4	0
38	911	0	10000	4	1	0	4	0
39	912	0	10000	4	1	0	4	0
36	913	0	10000	4	1	0	4	0
36	914	0	10000	4	1	0	4	0
36	915	0	10000	4	1	0	4	0
34	916	0	10000	4	1	0	4	0
33	917	0	10000	4	1	0	4	0
32	918	0	10000	4	1	0	4	0
32	919	0	10000	4	1	0	4	0
30	920	0	10000	4	1	0	4	0
30	921	0	10000	4	1	0	4	0
28	922	0	10000	4	1	0	4	0
30	923	0	10000	4	1	0	4	0
28	924	0	10000	4	1	0	4	0
28	925	0	10000	4	1	0	4	0
28	926	0	10000	4	1	0	4	0
28	927	0	10000	4	1	0	4	0
27	928	0	10000	4	1	0	4	0
26	929	0	10000	4	1	0	4	0
26	930	0	10000	4	1	0	4	0
27	931	0	10000	4	1	0	4	0
27	932	0	10000	4	1	0	4	0
25	933	0	10000	4	1	0	4	0
25	934	0	10000	4	1	0	4	0
25	935	0	10000	4	1	0	4	0
25	936	0	10000	4	1	0	4	0
26	937	0	10000	4	1	0	4	0
27	938	0	10000	4	1	0	4	0
28	939	0	10000	4	1	0	4	0
28	940	0	10000	4	1	0	4	0
28	941	0	10000	4	1	0	4	0
27	942	0	10000	4	1	0	4	0
29	943	0	10000	4	1	0	4	0
29	944	0	10000	4	1	0	4	0
28	945	0	10000	4	1	0	4	0
28	946	0	10000	4	1	0	4	0
29	947	0	10000	4	1	0	4	0
29	948	0	10000	4	1	0	4	0
30	949	0	10000	4	1	0	4	0
31	950	0	10000	4	1	0	4	0
32	951	0	10000	4	1	0	4	0
32	952	0	10000	4	1	0	4	0
30	953	0	10000	4	1	0	4	0
30	954	0	10000	4	1	0	4	0
30	955	0	10000	4	1	0	4	0
29	956	0	10000	4	1	0	4	0
29	957	0	10000	4	1	0	4	0
28	958	0	10000	4	1	0	4	0
28	959	0	10000	4	1	0	4	0
27	960	0	10000	4	1	0	4	0
26	961	0	10000	4	1	0	4	0
25	962	0	10000	4	1	0	4	0
26	963	0	10000	4	1	0	4	0
25	964	0	10000	4	1	0	4	0
25	965	0	10000	4	1	0	4	0
25	966	0	10000	4	1	0	4	0
26	967	0	10000	4	1	0	4	0
27	968	0	10000	4	1	0	4	0
27	969	0	10000	4	1	0	4	0
28	970	0	10000	4	1	0	4	0
28	971	0	10000	4	1	0	4	0
27	972	0	10000	4	1	0	4	0
25	973	0	10000	4	1	0	4	0
24	974	0	10000	4	1	0	4	0
23	975	0	10000	4	1	0	4	0
23	976	0	10000	4	1	0	4	0
22	977	0	10000	4	1	0	4	0
21	978	0	10000	4	1	0	4	0
20	979	0	10000	4	1	0	4	0
20	980	0	10000	4	1	0	4	0
20	981	0	10000	4	1	0	4	0
19	982	0	10000	4	1	0	4	0
21	983	0	10000	4	1	0	4	0
20	984	0	10000	4	1	0	4	0
19	985	0	10000	4	1	0	4	0
19	986	0	10000	4	1	0	4	0
19	987	0	10000	4	1	0	4	0
19	988	0	10000	4	1	0	4	0
18	989	0	10000	4	1	0	4	0
19	990	0	10000	4	1	0	4	0
19	991	0	10000	4	1	0	4	0
18	992	0	10000	4	1	0	4	0
16	993	0	10000	4	1	0	4	0
18	994	0	10000	4	1	0	4	0
18	995	0	10000	4	1	0	4	0
18	996	0	10000	4	1	0	4	0
17	997	0	10000	4	1	0	4	0
17	998	0	10000	4	1	0	4	0
18	999	0	10000	4	1	0	4	0
18	1000	0	10000	4	1	0	4	0
18	1001	0	10000	4	1	0	4	0
19	1	0	10000	5	1	0	5	0
18	2	0	10000	5	1	0	5	0
18	3	0	10000	5	1	0	5	0
17	4	0	10000	5	1	0	5	0
17	5	0	10000	5	1	0	5	0
18	6	0	10000	5	1	0	5	0
18	7	0	10000	5	1	0	5	0
16	8	0	10000	5	1	0	5	0
18	9	0	10000	5	1	0	5	0
18	10	0	10000	5	1	0	5	0
18	11	0	10000	5	1	0	5	0
17	12	0	10000	5	1	0	5	0
16	13	0	10000	5	1	0	5	0
16	14	0	10000	5	1	0	5	0
15	15	0	10000	5	1	0	5	0
16	16	0	10000	5	1	0	5	0
16	17	0	10000	5	1	0	5	0
17	18	0	10000	5	1	0	5	0
15	19	0	10000	5	1	0	5	0
14	20	0	10000	5	1	0	5	0
14	20	0	10000	5	1	0	5	0
14	21	0	10000	5	1	0	5	0
15	23	0	10000	5	1	0	5	0
16	24	0	10000	5	1	0	5	0
16	25	0	10000	5	1	0	5	0
14	26	0	10000	5	1	0	5	0
15	27	0	10000	5	1	0	5	0
15	28	0	10000	5	1	0	5	0
18	29	0	10000	5	1	0	5	0
17	30	0	10000	5	1	0	5	0
17	30	0	10000	5	1	0	5	0
16	31	0	10000	5	1	0	5	0
16	33	0	10000	5	1	0	5	0
15	34	0	10000	5	1	0	5	0
16	35	0	10000	5	1	0	5	0
16	36	0	10000	5	1	0	5	0
16	37	0	10000	5	1	0	5	0
16	38	0	10000	5	1	0	5	0
14	39	0	10000	5	1	0	5	0
14	40	0	10000	5	1	0	5	0
14	40	0	10000	5	1	0	5	0
13	41	0	10000	5	1	0	5	0
13	43	0	10000	5	1	0	5	0
13	44	0	10000	5	1	0	5	0
14	45	0	10000	5	1	0	5	0
13	46	0	10000	5	1	0	5	0
12	47	0	10000	5	1	0	5	0
14	48	0	10000	5	1	0	5	0
17	49	0	10000	5	1	0	5	0
16	50	0	10000	5	1	0	5	0
16	50	0	10000	5	1	0	5	0
16	51	0	10000	5	1	0	5	0
17	53	0	10000	5	1	0	5	0
19	54	0	10000	5	1	0	5	0
20	55	0	10000	5	1	0	5	0
23	56	0	10000	5	1	0	5	0
22	57	0	10000	5	1	0	5	0
21	58	0	10000	5	1	0	5	0
20	59	0	10000	5	1	0	5	0
19	60	0	10000	5	1	0	5	0
20	60	0	10000	5	1	0	5	0
19	61	0	10000	5	1	0	5	0
19	63	0	10000	5	1	0	5	0
19	64	0	10000	5	1	0	5	0
19	65	0	10000	5	1	0	5	0
18	66	0	10000	5	1	0	5	0
17	67	0	10000	5	1	0	5	0
17	68	0	10000	5	1	0	5	0
19	69	0	10000	5	1	0	5	0
19	70	0	10000	5	1	0	5	0
19	70	0	10000	5	1	0	5	0
18	71	0	10000	5	1	0	5	0
17	73	0	10000	5	1	0	5	0
17	74	0	10000	5	1	0	5	0
17	75	0	10000	5	1	0	5	0
17	76	0	10000	5	1	0	5	0
18	77	0	10000	5	1	0	5	0
17	78	0	10000	5	1	0	5	0
14	79	0	10000	5	1	0	5	0
14	80	0	10000	5	1	0	5	0
14	80	0	10000	5	1	0	5	0
14	81	0	10000	5	1	0	5	0
13	83	0	10000	5	1	0	5	0
14	84	0	10000	5	1	0	5	0
16	85	0	10000	5	1	0	5	0
14	86	0	10000	5	1	0	5	0
14	87	0	10000	5	1	0	5	0
14	88	0	10000	5	1	0	5	0
16	89	0	10000	5	1	0	5	0
16	90	0	10000	5	1	0	5	0
14	90	0	10000	5	1	0	5	0
14	91	0	10000	5	1	0	5	0
14	93	0	10000	5	1	0	5	0
14	94	0	10000	5	1	0	5	0
14	95	0	10000	5	1	0	5	0
15	96	0	10000	5	1	0	5	0
17	97	0	10000	5	1	0	5	0
17	98	0	10000	5	1	0	5	0
15	99	0	10000	5	1	0	5	0
14	100	0	10000	5	1	0	5	0
15	100	0	10000	5	1	0	5	0
15	101	0	10000	5	1	0	5	0
14	103	0	10000	5	1	0	5	0
14	104	0	10000	5	1	0	5	0
14	105	0	10000	5	1	0	5	0
14	106	0	10000	5	1	0	5	0
13	107	0	10000	5	1	0	5	0
13	108	0	10000	5	1	0	5	0
15	109	0	10000	5	1	0	5	0
14	110	0	10000	5	1	0	5	0
13	110	0	10000	5	1	0	5	0
13	111	0	10000	5	1	0	5	0
12	113	0	10000	5	1	0	5	0
13	114	0	10000	5	1	0	5	0
12	115	0	10000	5	1	0	5	0
12	116	0	10000	5	1	0	5	0
14	117	0	10000	5	1	0	5	0
14	118	0	10000	5	1	0	5	0
11	119	0	10000	5	1	0	5	0
12	120	0	10000	5	1	0	5	0
13	120	0	10000	5	1	0	5	0
13	121	0	10000	5	1	0	5	0
13	123	0	10000	5	1	0	5	0
13	124	0	10000	5	1	0	5	0
14	125	0	10000	5	1	0	5	0
12	126	0	10000	5	1	0	5	0
12	127	0	10000	5	1	0	5	0
12	128	0	10000	5	1	0	5	0
13	129	0	10000	5	1	0	5	0
15	130	0	10000	5	1	0	5	0
14	130	0	10000	5	1	0	5	0
13	131	0	10000	5	1	0	5	0
12	133	0	10000	5	1	0	5	0
12	134	0	10000	5	1	0	5	0
12	135	0	10000	5	1	0	5	0
13	136	0	10000	5	1	0	5	0
14	137	0	10000	5	1	0	5	0
14	138	0	10000	5	1	0	5	0
12	139	0	10000	5	1	0	5	0
13	140	0	10000	5	1	0	5	0
13	140	0	10000	5	1	0	5	0
14	141	0	10000	5	1	0	5	0
15	143	0	10000	5	1	0	5	0
14	144	0	10000	5	1	0	5	0
14	145	0	10000	5	1	0	5	0
13	146	0	10000	5	1	0	5	0
13	147	0	10000	5	1	0	5	0
12	148	0	10000	5	1	0	5	0
14	149	0	10000	5	1	0	5	0
13	150	0	10000	5	1	0	5	0
14	150	0	10000	5	1	0	5	0
15	151	0	10000	5	1	0	5	0
16	153	0	10000	5	1	0	5	0
16	154	0	10000	5	1	0	5	0
16	155	0	10000	5	1	0	5	0
16	156	0	10000	5	1	0	5	0
16	157	0	10000	5	1	0	5	0
16	158	0	10000	5	1	0	5	0
15	159	0	10000	5	1	0	5	0
15	160	0	10000	5	1	0	5	0
16	160	0	10000	5	1	0	5	0
16	161	0	10000	5	1	0	5	0
16	163	0	10000	5	1	0	5	0
15	164	0	10000	5	1	0	5	0
16	165	0	10000	5	1	0	5	0
14	166	0	10000	5	1	0	5	0
14	167	0	10000	5	1	0	5	0
13	168	0	10000	5	1	0	5	0
15	169	0	10000	5	1	0	5	0
16	170	0	10000	5	1	0	5	0
15	170	0	10000	5	1	0	5	0
15	171	0	10000	5	1	0	5	0
15	173	0	10000	5	1	0	5	0
14	174	0	10000	5	1	0	5	0
14	175	0	10000	5	1	0	5	0
14	176	0	10000	5	1	0	5	0
14	177	0	10000	5	1	0	5	0
14	178	0	10000	5	1	0	5	0
14	179	0	10000	5	1	0	5	0
15	180	0	10000	5	1	0	5	0
14	180	0	10000	5	1	0	5	0
15	181	0	10000	5	1	0	5	0
15	183	0	10000	5	1	0	5	0
15	184	0	10000	5	1	0	5	0
15	185	0	10000	5	1	0	5	0
14	186	0	10000	5	1	0	5	0
13	187	0	10000	5	1	0	5	0
14	188	0	10000	5	1	0	5	0
16	189	0	10000	5	1	0	5	0
16	190	0	10000	5	1	0	5	0
17	190	0	10000	5	1	0	5	0
16	191	0	10000	5	1	0	5	0
16	193	0	10000	5	1	0	5	0
16	194	0	10000	5	1	0	5	0
16	195	0	10000	5	1	0	5	0
17	196	0	10000	5	1	0	5	0
16	197	0	10000	5	1	0	5	0
16	198	0	10000	5	1	0	5	0
15	199	0	10000	5	1	0	5	0
16	200	0	10000	5	1	0	5	0
17	200	0	10000	5	1	0	5	0
19	201	0	10000	5	1	0	5	0
19	203	0	10000	5	1	0	5	0
19	204	0	10000	5	1	0	5	0
20	205	0	10000	5	1	0	5	0
20	206	0	10000	5	1	0	5	0
21	207	0	10000	5	1	0	5	0
20	208	0	10000	5	1	0	5	0
23	209	0	10000	5	1	0	5	0
22	210	0	10000	5	1	0	5	0
21	210	0	10000	5	1	0	5	0
20	211	0	10000	5	1	0	5	0
20	213	0	10000	5	1	0	5	0
20	214	0	10000	5	1	0	5	0
20	215	0	10000	5	1	0	5	0
21	216	0	10000	5	1	0	5	0
22	217	0	10000	5	1	0	5	0
21	218	0	10000	5	1	0	5	0
19	219	0	10000	5	1	0	5	0
18	220	0	10000	5	1	0	5	0
18	220	0	10000	5	1	0	5	0
18	221	0	10000	5	1	0	5	0
17	223	0	10000	5	1	0	5	0
16	224	0	10000	5	1	0	5	0
17	225	0	10000	5	1	0	5	0
16	226	0	10000	5	1	0	5	0
15	227	0	10000	5	1	0	5	0
15	228	0	10000	5	1	0	5	0
18	229	0	10000	5	1	0	5	0
17	230	0	10000	5	1	0	5	0
17	230	0	10000	5	1	0	5	0
16	231	0	10000	5	1	0	5	0
16	233	0	10000	5	1	0	5	0
17	234	0	10000	5	1	0	5	0
18	235	0	10000	5	1	0	5	0
20	236	0	10000	5	1	0	5	0
21	237	0	10000	5	1	0	5	0
23	238	0	10000	5	1	0	5	0
21	239	0	10000	5	1	0	5	0
21	240	0	10000	5	1	0	5	0
22	240	0	10000	5	1	0	5	0
22	241	0	10000	5	1	0	5	0
23	243	0	10000	5	1	0	5	0
23	244	0	10000	5	1	0	5	0
26	245	0	10000	5	1	0	5	0
28	246	0	10000	5	1	0	5	0
28	247	0	10000	5	1	0	5	0
27	248	0	10000	5	1	0	5	0
30	249	0	10000	5	1	0	5	0
40	250	0	10000	5	1	0	5	0
52	250	0	10000	5	1	0	5	0
67	251	0	10000	5	1	0	5	0
92	253	0	10000	5	1	0	5	0
114	254	0	10000	5	1	0	5	0
114	255	0	10000	5	1	0	5	0
117	256	0	10000	5	1	0	5	0
132	257	0	10000	5	1	0	5	0
146	258	0	10000	5	1	0	5	0
145	259	0	10000	5	1	0	5	0
157	260	0	10000	5	1	0	5	0
170	260	0	10000	5	1	0	5	0
189	261	0	10000	5	1	0	5	0
204	263	0	10000	5	1	0	5	0
214	264	0	10000	5	1	0	5	0
220	265	0	10000	5	1	0	5	0
215	266	0	10000	5	1	0	5	0
208	267	0	10000	5	1	0	5	0
204	268	0	10000	5	1	0	5	0
205	269	0	10000	5	1	0	5	0
206	270	0	10000	5	1	0	5	0
210	270	0	10000	5	1	0	5	0
221	271	0	10000	5	1	0	5	0
233	273	0	10000	5	1	0	5	0
237	274	0	10000	5	1	0	5	0
232	275	0	10000	5	1	0	5	0
225	276	0	10000	5	1	0	5	0
225	277	0	10000	5	1	0	5	0
232	278	0	10000	5	1	0	5	0
229	279	0	10000	5	1	0	5	0
221	280	0	10000	5	1	0	5	0
218	280	0	10000	5	1	0	5	0
219	281	0	10000	5	1	0	5	0
223	283	0	10000	5	1	0	5	0
223	284	0	10000	5	1	0	5	0
214	285	0	10000	5	1	0	5	0
207	286	0	10000	5	1	0	5	0
200	287	0	10000	5	1	0	5	0
196	288	0	10000	5	1	0	5	0
189	289	0	10000	5	1	0	5	0
181	290	0	10000	5	1	0	5	0
178	290	0	10000	5	1	0	5	0
175	291	0	10000	5	1	0	5	0
169	293	0	10000	5	1	0	5	0
165	294	0	10000	5	1	0	5	0
168	295	0	10000	5	1	0	5	0
170	296	0	10000	5	1	0	5	0
167	297	0	10000	5	1	0	5	0
165	298	0	10000	5	1	0	5	0
160	299	0	10000	5	1	0	5	0
156	300	0	10000	5	1	0	5	0
150	300	0	10000	5	1	0	5	0
146	301	0	10000	5	1	0	5	0
142	303	0	10000	5	1	0	5	0
137	304	0	10000	5	1	0	5	0
138	305	0	10000	5	1	0	5	0
145	306	0	10000	5	1	0	5	0
151	307	0	10000	5	1	0	5	0
155	308	0	10000	5	1	0	5	0
161	309	0	10000	5	1	0	5	0
163	310	0	10000	5	1	0	5	0
164	310	0	10000	5	1	0	5	0
168	311	0	10000	5	1	0	5	0
171	313	0	10000	5	1	0	5	0
173	314	0	10000	5	1	0	5	0
174	315	0	10000	5	1	0	5	0
175	316	0	10000	5	1	0	5	0
176	317	0	10000	5	1	0	5	0
174	318	0	10000	5	1	0	5	0
171	319	0	10000	5	1	0	5	0
167	320	0	10000	5	1	0	5	0
162	320	0	10000	5	1	0	5	0
158	321	0	10000	5	1	0	5	0
153	323	0	10000	5	1	0	5	0
149	324	0	10000	5	1	0	5	0
146	325	0	10000	5	1	0	5	0
142	326	0	10000	5	1	0	5	0
139	327	0	10000	5	1	0	5	0
138	328	0	10000	5	1	0	5	0
139	329	0	10000	5	1	0	5	0
140	330	0	10000	5	1	0	5	0
143	330	0	10000	5	1	0	5	0
147	331	0	10000	5	1	0	5	0
152	333	0	10000	5	1	0	5	0
152	334	0	10000	5	1	0	5	0
151	335	0	10000	5	1	0	5	0
150	336	0	10000	5	1	0	5	0
148	337	0	10000	5	1	0	5	0
144	338	0	10000	5	1	0	5	0
137	339	0	10000	5	1	0	5	0
133	340	0	10000	5	1	0	5	0
130	340	0	10000	5	1	0	5	0
127	341	0	10000	5	1	0	5	0
125	343	0	10000	5	1	0	5	0
124	344	0	10000	5	1	0	5	0
123	345	0	10000	5	1	0	5	0
120	346	0	10000	5	1	0	5	0
116	347	0	10000	5	1	0	5	0
111	348	0	10000	5	1	0	5	0
110	349	0	10000	5	1	0	5	0
104	350	0	10000	5	1	0	5	0
101	350	0	10000	5	1	0	5	0
100	351	0	10000	5	1	0	5	0
99	353	0	10000	5	1	0	5	0
98	354	0	10000	5	1	0	5	0
96	355	0	10000	5	1	0	5	0
96	356	0	10000	5	1	0	5	0
93	357	0	10000	5	1	0	5	0
91	358	0	10000	5	1	0	5	0
89	359	0	10000	5	1	0	5	0
89	360	0	10000	5	1	0	5	0
90	360	0	10000	5	1	0	5	0
90	361	0	10000	5	1	0	5	0
89	363	0	10000	5	1	0	5	0
87	364	0	10000	5	1	0	5	0
84	365	0	10000	5	1	0	5	0
80	366	0	10000	5	1	0	5	0
76	367	0	10000	5	1	0	5	0
75	368	0	10000	5	1	0	5	0
77	369	0	10000	5	1	0	5	0
78	370	0	10000	5	1	0	5	0
78	370	0	10000	5	1	0	5	0
78	371	0	10000	5	1	0	5	0
78	373	0	10000	5	1	0	5	0
76	374	0	10000	5	1	0	5	0
74	375	0	10000	5	1	0	5	0
72	376	0	10000	5	1	0	5	0
71	377	0	10000	5	1	0	5	0
72	378	0	10000	5	1	0	5	0
71	379	0	10000	5	1	0	5	0
74	380	0	10000	5	1	0	5	0
76	380	0	10000	5	1	0	5	0
79	381	0	10000	5	1	0	5	0
80	383	0	10000	5	1	0	5	0
80	384	0	10000	5	1	0	5	0
81	385	0	10000	5	1	0	5	0
81	386	0	10000	5	1	0	5	0
80	387	0	10000	5	1	0	5	0
80	388	0	10000	5	1	0	5	0
82	389	0	10000	5	1	0	5	0
81	390	0	10000	5	1	0	5	0
79	390	0	10000	5	1	0	5	0
76	391	0	10000	5	1	0	5	0
74	393	0	10000	5	1	0	5	0
73	394	0	10000	5	1	0	5	0
71	395	0	10000	5	1	0	5	0
70	396	0	10000	5	1	0	5	0
70	397	0	10000	5	1	0	5	0
70	398	0	10000	5	1	0	5	0
68	399	0	10000	5	1	0	5	0
69	400	0	10000	5	1	0	5	0
70	400	0	10000	5	1	0	5	0
72	401	0	10000	5	1	0	5	0
74	403	0	10000	5	1	0	5	0
75	404	0	10000	5	1	0	5	0
76	405	0	10000	5	1	0	5	0
76	406	0	10000	5	1	0	5	0
76	407	0	10000	5	1	0	5	0
74	408	0	10000	5	1	0	5	0
74	409	0	10000	5	1	0	5	0
72	410	0	10000	5	1	0	5	0
69	410	0	10000	5	1	0	5	0
66	411	0	10000	5	1	0	5	0
63	413	0	10000	5	1	0	5	0
61	414	0	10000	5	1	0	5	0
59	415	0	10000	5	1	0	5	0
56	416	0	10000	5	1	0	5	0
55	417	0	10000	5	1	0	5	0
53	418	0	10000	5	1	0	5	0
50	419	0	10000	5	1	0	5	0
49	420	0	10000	5	1	0	5	0
49	420	0	10000	5	1	0	5	0
50	421	0	10000	5	1	0	5	0
51	423	0	10000	5	1	0	5	0
51	424	0	10000	5	1	0	5	0
50	425	0	10000	5	1	0	5	0
49	426	0	10000	5	1	0	5	0
48	427	0	10000	5	1	0	5	0
47	428	0	10000	5	1	0	5	0
47	429	0	10000	5	1	0	5	0
44	430	0	10000	5	1	0	5	0
42	430	0	10000	5	1	0	5	0
40	431	0	10000	5	1	0	5	0
39	433	0	10000	5	1	0	5	0
37	434	0	10000	5	1	0	5	0
36	435	0	10000	5	1	0	5	0
36	436	0	10000	5	1	0	5	0
35	437	0	10000	5	1	0	5	0
35	438	0	10000	5	1	0	5	0
33	439	0	10000	5	1	0	5	0
33	440	0	10000	5	1	0	5	0
33	440	0	10000	5	1	0	5	0
33	441	0	10000	5	1	0	5	0
33	443	0	10000	5	1	0	5	0
34	444	0	10000	5	1	0	5	0
34	445	0	10000	5	1	0	5	0
35	446	0	10000	5	1	0	5	0
35	447	0	10000	5	1	0	5	0
34	448	0	10000	5	1	0	5	0
35	449	0	10000	5	1	0	5	0
35	450	0	10000	5	1	0	5	0
32	450	0	10000	5	1	0	5	0
32	451	0	10000	5	1	0	5	0
31	453	0	10000	5	1	0	5	0
31	454	0	10000	5	1	0	5	0
30	455	0	10000	5	1	0	5	0
29	456	0	10000	5	1	0	5	0
29	457	0	10000	5	1	0	5	0
29	458	0	10000	5	1	0	5	0
27	459	0	10000	5	1	0	5	0
28	460	0	10000	5	1	0	5	0
29	460	0	10000	5	1	0	5	0
30	461	0	10000	5	1	0	5	0
30	463	0	10000	5	1	0	5	0
30	464	0	10000	5	1	0	5	0
30	465	0	10000	5	1	0	5	0
28	466	0	10000	5	1	0	5	0
26	467	0	10000	5	1	0	5	0
26	468	0	10000	5	1	0	5	0
28	469	0	10000	5	1	0	5	0
26	470	0	10000	5	1	0	5	0
26	470	0	10000	5	1	0	5	0
26	471	0	10000	5	1	0	5	0
28	473	0	10000	5	1	0	5	0
28	474	0	10000	5	1	0	5	0
28	475	0	10000	5	1	0	5	0
28	476	0	10000	5	1	0	5	0
27	477	0	10000	5	1	0	5	0
26	478	0	10000	5	1	0	5	0
24	479	0	10000	5	1	0	5	0
23	480	0	10000	5	1	0	5	0
24	480	0	10000	5	1	0	5	0
25	481	0	10000	5	1	0	5	0
27	483	0	10000	5	1	0	5	0
28	484	0	10000	5	1	0	5	0
29	485	0	10000	5	1	0	5	0
27	486	0	10000	5	1	0	5	0
26	487	0	10000	5	1	0	5	0
25	488	0	10000	5	1	0	5	0
26	489	0	10000	5	1	0	5	0
25	490	0	10000	5	1	0	5	0
24	490	0	10000	5	1	0	5	0
23	491	0	10000	5	1	0	5	0
22	493	0	10000	5	1	0	5	0
22	494	0	10000	5	1	0	5	0
20	495	0	10000	5	1	0	5	0
20	496	0	10000	5	1	0	5	0
20	497	0	10000	5	1	0	5	0
19	498	0	10000	5	1	0	5	0
17	499	0	10000	5	1	0	5	0
17	500	0	10000	5	1	0	5	0
16	500	0	10000	5	1	0	5	0
18	501	0	10000	5	1	0	5	0
17	503	0	10000	5	1	0	5	1
17	504	0	10000	5	1	0	5	1
18	505	0	10000	5	1	0	5	1
17	506	0	10000	5	1	0	5	1
17	507	0	10000	5	1	0	5	1
16	508	0	10000	5	1	0	5	1
18	509	0	10000	5	1	0	5	1
17	510	0	10000	5	1	0	5	1
16	510	0	10000	5	1	0	5	1
17	511	0	10000	5	1	0	5	1
17	513	0	10000	5	1	0	5	1
19	514	0	10000	5	1	0	5	1
19	515	0	10000	5	1	0	5	1
20	516	0	10000	5	1	0	5	1
22	517	0	10000	5	1	0	5	1
22	518	0	10000	5	1	0	5	1
19	519	0	10000	5	1	0	5	1
20	520	0	10000	5	1	0	5	1
19	520	0	10000	5	1	0	5	1
19	521	0	10000	5	1	0	5	1
19	523	0	10000	5	1	0	5	1
19	524	0	10000	5	1	0	5	1
20	525	0	10000	5	1	0	5	1
18	526	0	10000	5	1	0	5	1
18	527	0	10000	5	1	0	5	1
18	528	0	10000	5	1	0	5	1
21	529	0	10000	5	1	0	5	1
21	530	0	10000	5	1	0	5	1
22	530	0	10000	5	1	0	5	1
20	531	0	10000	5	1	0	5	1
19	533	0	10000	5	1	0	5	1
18	534	0	10000	5	1	0	5	1
18	535	0	10000	5	1	0	5	1
19	536	0	10000	5	1	0	5	1
19	537	0	10000	5	1	0	5	1
19	538	0	10000	5	1	0	5	1
17	539	0	10000	5	1	0	5	1
17	540	0	10000	5	1	0	5	1
17	540	0	10000	5	1	0	5	1
19	541	0	10000	5	1	0	5	1
20	543	0	10000	5	1	0	5	1
22	544	0	10000	5	1	0	5	1
23	545	0	10000	5	1	0	5	1
24	546	0	10000	5	1	0	5	1
25	547	0	10000	5	1	0	5	1
23	548	0	10000	5	1	0	5	1
25	549	0	10000	5	1	0	5	1
24	550	0	10000	5	1	0	5	1
23	550	0	10000	5	1	0	5	1
22	551	0	10000	5	1	0	5	1
20	553	0	10000	5	1	0	5	0
20	554	0	10000	5	1	0	5	0
19	555	0	10000	5	1	0	5	0
19	556	0	10000	5	1	0	5	0
19	557	0	10000	5	1	0	5	0
19	558	0	10000	5	1	0	5	0
16	559	0	10000	5	1	0	5	0
17	560	0	10000	5	1	0	5	0
16	560	0	10000	5	1	0	5	0
16	561	0	10000	5	1	0	5	0
15	563	0	10000	5	1	0	5	0
15	564	0	10000	5	1	0	5	0
17	565	0	10000	5	1	0	5	0
17	566	0	10000	5	1	0	5	0
16	567	0	10000	5	1	0	5	0
16	568	0	10000	5	1	0	5	0
17	569	0	10000	5	1	0	5	0
17	570	0	10000	5	1	0	5	0
18	570	0	10000	5	1	0	5	0
18	571	0	10000	5	1	0	5	0
18	573	0	10000	5	1	0	5	0
19	574	0	10000	5	1	0	5	0
19	575	0	10000	5	1	0	5	0
19	576	0	10000	5	1	0	5	0
18	577	0	10000	5	1	0	5	0
18	578	0	10000	5	1	0	5	0
17	579	0	10000	5	1	0	5	0
17	580	0	10000	5	1	0	5	0
17	580	0	10000	5	1	0	5	0
17	581	0	10000	5	1	0	5	0
17	583	0	10000	5	1	0	5	0
17	584	0	10000	5	1	0	5	0
18	585	0	10000	5	1	0	5	0
17	586	0	10000	5	1	0	5	0
16	587	0	10000	5	1	0	5	0
16	588	0	10000	5	1	0	5	0
19	589	0	10000	5	1	0	5	0
18	590	0	10000	5	1	0	5	0
19	590	0	10000	5	1	0	5	0
22	591	0	10000	5	1	0	5	0
22	593	0	10000	5	1	0	5	0
25	594	0	10000	5	1	0	5	0
27	595	0	10000	5	1	0	5	0
35	596	0	10000	5	1	0	5	0
38	597	0	10000	5	1	0	5	0
39	598	0	10000	5	1	0	5	0
56	599	0	10000	5	1	0	5	0
76	600	0	10000	5	1	0	5	0
85	600	0	10000	5	1	0	5	0
86	601	0	10000	5	1	0	5	0
96	603	0	10000	5	1	0	5	0
122	604	0	10000	5	1	0	5	0
129	605	0	10000	5	1	0	5	0
126	606	0	10000	5	1	0	5	0
130	607	0	10000	5	1	0	5	0
175	608	0	10000	5	1	0	5	0
224	609	0	10000	5	1	0	5	0
225	610	0	10000	5	1	0	5	0
226	610	0	10000	5	1	0	5	0
234	611	0	10000	5	1	0	5	0
231	613	0	10000	5	1	0	5	0
246	614	0	10000	5	1	0	5	0
268	615	0	10000	5	1	0	5	0
295	616	0	10000	5	1	0	5	0
312	617	0	10000	5	1	0	5	0
308	618	0	10000	5	1	0	5	0
320	619	0	10000	5	1	0	5	0
339	620	0	10000	5	1	0	5	0
335	620	0	10000	5	1	0	5	0
338	621	0	10000	5	1	0	5	0
349	623	0	10000	5	1	0	5	0
353	624	0	10000	5	1	0	5	0
347	625	0	10000	5	1	0	5	0
338	626	0	10000	5	1	0	5	0
325	627	0	10000	5	1	0	5	0
312	628	0	10000	5	1	0	5	0
300	629	0	10000	5	1	0	5	0
289	630	0	10000	5	1	0	5	0
278	630	0	10000	5	1	0	5	0
268	631	0	10000	5	1	0	5	0
257	633	0	10000	5	1	0	5	0
245	634	0	10000	5	1	0	5	0
233	635	0	10000	5	1	0	5	0
224	636	0	10000	5	1	0	5	0
215	637	0	10000	5	1	0	5	0
206	638	0	10000	5	1	0	5	0
196	639	0	10000	5	1	0	5	0
189	640	0	10000	5	1	0	5	0
181	640	0	10000	5	1	0	5	0
175	641	0	10000	5	1	0	5	0
170	643	0	10000	5	1	0	5	0
164	644	0	10000	5	1	0	5	0
163	645	0	10000	5	1	0	5	0
161	646	0	10000	5	1	0	5	0
163	647	0	10000	5	1	0	5	0
165	648	0	10000	5	1	0	5	0
169	649	0	10000	5	1	0	5	0
173	650	0	10000	5	1	0	5	0
177	650	0	10000	5	1	0	5	0
181	651	0	10000	5	1	0	5	0
186	653	0	10000	5	1	0	5	0
191	654	0	10000	5	1	0	5	0
196	655	0	10000	5	1	0	5	0
202	656	0	10000	5	1	0	5	0
207	657	0	10000	5	1	0	5	0
213	658	0	10000	5	1	0	5	0
215	659	0	10000	5	1	0	5	0
219	660	0	10000	5	1	0	5	0
223	660	0	10000	5	1	0	5	0
225	661	0	10000	5	1	0	5	0
227	663	0	10000	5	1	0	5	0
227	664	0	10000	5	1	0	5	0
229	665	0	10000	5	1	0	5	0
230	666	0	10000	5	1	0	5	0
231	667	0	10000	5	1	0	5	0
231	668	0	10000	5	1	0	5	0
232	669	0	10000	5	1	0	5	0
230	670	0	10000	5	1	0	5	0
228	670	0	10000	5	1	0	5	0
225	671	0	10000	5	1	0	5	0
220	673	0	10000	5	1	0	5	0
217	674	0	10000	5	1	0	5	0
214	675	0	10000	5	1	0	5	0
209	676	0	10000	5	1	0	5	0
202	677	0	10000	5	1	0	5	0
194	678	0	10000	5	1	0	5	0
184	679	0	10000	5	1	0	5	0
177	680	0	10000	5	1	0	5	0
173	680	0	10000	5	1	0	5	0
169	681	0	10000	5	1	0	5	0
164	683	0	10000	5	1	0	5	0
161	684	0	10000	5	1	0	5	0
157	685	0	10000	5	1	0	5	0
155	686	0	10000	5	1	0	5	0
154	687	0	10000	5	1	0	5	0
154	688	0	10000	5	1	0	5	0
157	689	0	10000	5	1	0	5	0
157	690	0	10000	5	1	0	5	0
158	690	0	10000	5	1	0	5	0
159	691	0	10000	5	1	0	5	0
160	693	0	10000	5	1	0	5	0
160	694	0	10000	5	1	0	5	0
162	695	0	10000	5	1	0	5	0
164	696	0	10000	5	1	0	5	0
167	697	0	10000	5	1	0	5	0
171	698	0	10000	5	1	0	5	0
170	699	0	10000	5	1	0	5	0
173	700	0	10000	5	1	0	5	0
176	700	0	10000	5	1	0	5	0
179	701	0	10000	5	1	0	5	0
181	703	0	10000	5	1	0	5	0
184	704	0	10000	5	1	0	5	0
186	705	0	10000	5	1	0	5	0
187	706	0	10000	5	1	0	5	0
188	707	0	10000	5	1	0	5	0
188	708	0	10000	5	1	0	5	0
190	709	0	10000	5	1	0	5	0
189	710	0	10000	5	1	0	5	0
190	710	0	10000	5	1	0	5	0
190	711	0	10000	5	1	0	5	0
190	713	0	10000	5	1	0	5	0
190	714	0	10000	5	1	0	5	0
189	715	0	10000	5	1	0	5	0
191	716	0	10000	5	1	0	5	0
193	717	0	10000	5	1	0	5	0
195	718	0	10000	5	1	0	5	0
193	719	0	10000	5	1	0	5	0
194	720	0	10000	5	1	0	5	0
195	720	0	10000	5	1	0	5	0
194	721	0	10000	5	1	0	5	0
193	723	0	10000	5	1	0	5	0
191	724	0	10000	5	1	0	5	0
189	725	0	10000	5	1	0	5	0
187	726	0	10000	5	1	0	5	0
183	727	0	10000	5	1	0	5	0
180	728	0	10000	5	1	0	5	0
180	729	0	10000	5	1	0	5	0
175	730	0	10000	5	1	0	5	0
172	730	0	10000	5	1	0	5	0
168	731	0	10000	5	1	0	5	0
164	733	0	10000	5	1	0	5	0
159	734	0	10000	5	1	0	5	0
155	735	0	10000	5	1	0	5	0
152	736	0	10000	5	1	0	5	0
149	737	0	10000	5	1	0	5	0
144	738	0	10000	5	1	0	5	0
137	739	0	10000	5	1	0	5	0
135	740	0	10000	5	1	0	5	0
132	740	0	10000	5	1	0	5	0
130	741	0	10000	5	1	0	5	0
127	743	0	10000	5	1	0	5	0
124	744	0	10000	5	1	0	5	0
119	745	0	10000	5	1	0	5	0
114	746	0	10000	5	1	0	5	0
108	747	0	10000	5	1	0	5	0
103	748	0	10000	5	1	0	5	0
101	749	0	10000	5	1	0	5	0
97	750	0	10000	5	1	0	5	0
92	750	0	10000	5	1	0	5	0
87	751	0	10000	5	1	0	5	0
83	753	0	10000	5	1	0	5	0
80	754	0	10000	5	1	0	5	0
76	755	0	10000	5	1	0	5	0
75	756	0	10000	5	1	0	5	0
72	757	0	10000	5	1	0	5	0
70	758	0	10000	5	1	0	5	0
65	759	0	10000	5	1	0	5	0
62	760	0	10000	5	1	0	5	0
60	760	0	10000	5	1	0	5	0
58	761	0	10000	5	1	0	5	0
56	763	0	10000	5	1	0	5	0
54	764	0	10000	5	1	0	5	0
52	765	0	10000	5	1	0	5	0
49	766	0	10000	5	1	0	5	0
47	767	0	10000	5	1	0	5	0
46	768	0	10000	5	1	0	5	0
48	769	0	10000	5	1	0	5	0
47	770	0	10000	5	1	0	5	0
47	770	0	10000	5	1	0	5	0
47	771	0	10000	5	1	0	5	0
48	773	0	10000	5	1	0	5	0
48	774	0	10000	5	1	0	5	0
47	775	0	10000	5	1	0	5	0
47	776	0	10000	5	1	0	5	0
45	777	0	10000	5	1	0	5	0
44	778	0	10000	5	1	0	5	0
41	779	0	10000	5	1	0	5	0
40	780	0	10000	5	1	0	5	0
40	780	0	10000	5	1	0	5	0
