value	EMG	Stimulus	EMG_sensitivity	Total_Trial_Nr	practise	acq	probe_nr	Startle_Probe
142	1	0	10000	1	1	0	1	0
162	2	0	10000	1	1	0	1	0
180	3	0	10000	1	1	0	1	0
177	4	0	10000	1	1	0	1	0
186	5	0	10000	1	1	0	1	0
195	6	0	10000	1	1	0	1	0
194	7	0	10000	1	1	0	1	0
191	8	0	10000	1	1	0	1	0
189	9	0	10000	1	1	0	1	0
185	10	0	10000	1	1	0	1	0
178	11	0	10000	1	1	0	1	0
172	12	0	10000	1	1	0	1	0
170	13	0	10000	1	1	0	1	0
167	14	0	10000	1	1	0	1	0
159	15	0	10000	1	1	0	1	0
153	16	0	10000	1	1	0	1	0
149	17	0	10000	1	1	0	1	0
148	18	0	10000	1	1	0	1	0
153	19	0	10000	1	1	0	1	0
157	20	0	10000	1	1	0	1	0
153	21	0	10000	1	1	0	1	0
153	22	0	10000	1	1	0	1	0
159	23	0	10000	1	1	0	1	0
158	24	0	10000	1	1	0	1	0
164	25	0	10000	1	1	0	1	0
193	26	0	10000	1	1	0	1	0
229	27	0	10000	1	1	0	1	0
230	28	0	10000	1	1	0	1	0
257	29	0	10000	1	1	0	1	0
297	30	0	10000	1	1	0	1	0
321	31	0	10000	1	1	0	1	0
327	32	0	10000	1	1	0	1	0
317	33	0	10000	1	1	0	1	0
303	34	0	10000	1	1	0	1	0
295	35	0	10000	1	1	0	1	0
286	36	0	10000	1	1	0	1	0
274	37	0	10000	1	1	0	1	0
262	38	0	10000	1	1	0	1	0
252	39	0	10000	1	1	0	1	0
243	40	0	10000	1	1	0	1	0
235	41	0	10000	1	1	0	1	0
227	42	0	10000	1	1	0	1	0
220	43	0	10000	1	1	0	1	0
211	44	0	10000	1	1	0	1	0
202	45	0	10000	1	1	0	1	0
193	46	0	10000	1	1	0	1	0
186	47	0	10000	1	1	0	1	0
180	48	0	10000	1	1	0	1	0
173	49	0	10000	1	1	0	1	0
166	50	0	10000	1	1	0	1	0
163	51	0	10000	1	1	0	1	0
161	52	0	10000	1	1	0	1	0
165	53	0	10000	1	1	0	1	0
164	54	0	10000	1	1	0	1	0
161	55	0	10000	1	1	0	1	0
163	56	0	10000	1	1	0	1	0
160	57	0	10000	1	1	0	1	0
154	58	0	10000	1	1	0	1	0
149	59	0	10000	1	1	0	1	0
144	60	0	10000	1	1	0	1	0
138	61	0	10000	1	1	0	1	0
137	62	0	10000	1	1	0	1	0
141	63	0	10000	1	1	0	1	0
146	64	0	10000	1	1	0	1	0
149	65	0	10000	1	1	0	1	0
147	66	0	10000	1	1	0	1	0
143	67	0	10000	1	1	0	1	0
142	68	0	10000	1	1	0	1	0
143	69	0	10000	1	1	0	1	0
148	70	0	10000	1	1	0	1	0
168	71	0	10000	1	1	0	1	0
191	72	0	10000	1	1	0	1	0
189	73	0	10000	1	1	0	1	0
196	74	0	10000	1	1	0	1	0
207	75	0	10000	1	1	0	1	0
208	76	0	10000	1	1	0	1	0
204	77	0	10000	1	1	0	1	0
197	78	0	10000	1	1	0	1	0
190	79	0	10000	1	1	0	1	0
184	80	0	10000	1	1	0	1	0
179	81	0	10000	1	1	0	1	0
173	82	0	10000	1	1	0	1	0
175	83	0	10000	1	1	0	1	0
177	84	0	10000	1	1	0	1	0
172	85	0	10000	1	1	0	1	0
166	86	0	10000	1	1	0	1	0
162	87	0	10000	1	1	0	1	0
157	88	0	10000	1	1	0	1	0
152	89	0	10000	1	1	0	1	0
152	90	0	10000	1	1	0	1	0
154	91	0	10000	1	1	0	1	0
152	92	0	10000	1	1	0	1	0
144	93	0	10000	1	1	0	1	0
139	94	0	10000	1	1	0	1	0
138	95	0	10000	1	1	0	1	0
137	96	0	10000	1	1	0	1	0
137	97	0	10000	1	1	0	1	0
157	98	0	10000	1	1	0	1	0
185	99	0	10000	1	1	0	1	0
192	100	0	10000	1	1	0	1	0
189	101	0	10000	1	1	0	1	0
203	102	0	10000	1	1	0	1	0
227	103	0	10000	1	1	0	1	0
239	104	0	10000	1	1	0	1	0
242	105	0	10000	1	1	0	1	0
243	106	0	10000	1	1	0	1	0
244	107	0	10000	1	1	0	1	0
238	108	0	10000	1	1	0	1	0
230	109	0	10000	1	1	0	1	0
222	110	0	10000	1	1	0	1	0
214	111	0	10000	1	1	0	1	0
207	112	0	10000	1	1	0	1	0
201	113	0	10000	1	1	0	1	0
202	114	0	10000	1	1	0	1	0
202	115	0	10000	1	1	0	1	0
204	116	0	10000	1	1	0	1	0
213	117	0	10000	1	1	0	1	0
213	118	0	10000	1	1	0	1	0
208	119	0	10000	1	1	0	1	0
206	120	0	10000	1	1	0	1	0
200	121	0	10000	1	1	0	1	0
195	122	0	10000	1	1	0	1	0
195	123	0	10000	1	1	0	1	0
206	124	0	10000	1	1	0	1	0
215	125	0	10000	1	1	0	1	0
215	126	0	10000	1	1	0	1	0
209	127	0	10000	1	1	0	1	0
211	128	0	10000	1	1	0	1	0
228	129	0	10000	1	1	0	1	0
234	130	0	10000	1	1	0	1	0
229	131	0	10000	1	1	0	1	0
224	132	0	10000	1	1	0	1	0
217	133	0	10000	1	1	0	1	0
214	134	0	10000	1	1	0	1	0
205	135	0	10000	1	1	0	1	0
209	136	0	10000	1	1	0	1	0
218	137	0	10000	1	1	0	1	0
212	138	0	10000	1	1	0	1	0
206	139	0	10000	1	1	0	1	0
199	140	0	10000	1	1	0	1	0
194	141	0	10000	1	1	0	1	0
193	142	0	10000	1	1	0	1	0
191	143	0	10000	1	1	0	1	0
184	144	0	10000	1	1	0	1	0
177	145	0	10000	1	1	0	1	0
172	146	0	10000	1	1	0	1	0
168	147	0	10000	1	1	0	1	0
173	148	0	10000	1	1	0	1	0
173	149	0	10000	1	1	0	1	0
168	150	0	10000	1	1	0	1	0
165	151	0	10000	1	1	0	1	0
161	152	0	10000	1	1	0	1	0
156	153	0	10000	1	1	0	1	0
152	154	0	10000	1	1	0	1	0
155	155	0	10000	1	1	0	1	0
158	156	0	10000	1	1	0	1	0
159	157	0	10000	1	1	0	1	0
160	158	0	10000	1	1	0	1	0
154	159	0	10000	1	1	0	1	0
151	160	0	10000	1	1	0	1	0
160	161	0	10000	1	1	0	1	0
158	162	0	10000	1	1	0	1	0
162	163	0	10000	1	1	0	1	0
174	164	0	10000	1	1	0	1	0
181	165	0	10000	1	1	0	1	0
178	166	0	10000	1	1	0	1	0
170	167	0	10000	1	1	0	1	0
163	168	0	10000	1	1	0	1	0
157	169	0	10000	1	1	0	1	0
151	170	0	10000	1	1	0	1	0
146	171	0	10000	1	1	0	1	0
142	172	0	10000	1	1	0	1	0
135	173	0	10000	1	1	0	1	0
132	174	0	10000	1	1	0	1	0
129	175	0	10000	1	1	0	1	0
127	176	0	10000	1	1	0	1	0
126	177	0	10000	1	1	0	1	0
122	178	0	10000	1	1	0	1	0
117	179	0	10000	1	1	0	1	0
114	180	0	10000	1	1	0	1	0
120	181	0	10000	1	1	0	1	0
118	182	0	10000	1	1	0	1	0
125	183	0	10000	1	1	0	1	0
130	184	0	10000	1	1	0	1	0
128	185	0	10000	1	1	0	1	0
136	186	0	10000	1	1	0	1	0
150	187	0	10000	1	1	0	1	0
148	188	0	10000	1	1	0	1	0
150	189	0	10000	1	1	0	1	0
154	190	0	10000	1	1	0	1	0
152	191	0	10000	1	1	0	1	0
151	192	0	10000	1	1	0	1	0
147	193	0	10000	1	1	0	1	0
150	194	0	10000	1	1	0	1	0
154	195	0	10000	1	1	0	1	0
153	196	0	10000	1	1	0	1	0
150	197	0	10000	1	1	0	1	0
145	198	0	10000	1	1	0	1	0
139	199	0	10000	1	1	0	1	0
132	200	0	10000	1	1	0	1	0
135	201	0	10000	1	1	0	1	0
139	202	0	10000	1	1	0	1	0
140	203	0	10000	1	1	0	1	0
139	204	0	10000	1	1	0	1	0
140	205	0	10000	1	1	0	1	0
136	206	0	10000	1	1	0	1	0
131	207	0	10000	1	1	0	1	0
130	208	0	10000	1	1	0	1	0
132	209	0	10000	1	1	0	1	0
129	210	0	10000	1	1	0	1	0
125	211	0	10000	1	1	0	1	0
121	212	0	10000	1	1	0	1	0
120	213	0	10000	1	1	0	1	0
122	214	0	10000	1	1	0	1	0
118	215	0	10000	1	1	0	1	0
116	216	0	10000	1	1	0	1	0
114	217	0	10000	1	1	0	1	0
112	218	0	10000	1	1	0	1	0
109	219	0	10000	1	1	0	1	0
106	220	0	10000	1	1	0	1	0
104	221	0	10000	1	1	0	1	0
105	222	0	10000	1	1	0	1	0
111	223	0	10000	1	1	0	1	0
113	224	0	10000	1	1	0	1	0
109	225	0	10000	1	1	0	1	0
108	226	0	10000	1	1	0	1	0
109	227	0	10000	1	1	0	1	0
111	228	0	10000	1	1	0	1	0
108	229	0	10000	1	1	0	1	0
106	230	0	10000	1	1	0	1	0
105	231	0	10000	1	1	0	1	0
103	232	0	10000	1	1	0	1	0
98	233	0	10000	1	1	0	1	0
97	234	0	10000	1	1	0	1	0
95	235	0	10000	1	1	0	1	0
92	236	0	10000	1	1	0	1	0
90	237	0	10000	1	1	0	1	0
87	238	0	10000	1	1	0	1	0
85	239	0	10000	1	1	0	1	0
81	240	0	10000	1	1	0	1	0
77	241	0	10000	1	1	0	1	0
74	242	0	10000	1	1	0	1	0
75	243	0	10000	1	1	0	1	0
74	244	0	10000	1	1	0	1	0
73	245	0	10000	1	1	0	1	0
74	246	0	10000	1	1	0	1	0
72	247	0	10000	1	1	0	1	0
72	248	0	10000	1	1	0	1	0
69	249	0	10000	1	1	0	1	0
68	250	0	10000	1	1	0	1	0
67	251	0	10000	1	1	0	1	0
66	252	0	10000	1	1	0	1	0
65	253	0	10000	1	1	0	1	0
70	254	0	10000	1	1	0	1	0
74	255	0	10000	1	1	0	1	0
72	256	0	10000	1	1	0	1	0
70	257	0	10000	1	1	0	1	0
67	258	0	10000	1	1	0	1	0
65	259	0	10000	1	1	0	1	0
65	260	0	10000	1	1	0	1	0
66	261	0	10000	1	1	0	1	0
65	262	0	10000	1	1	0	1	0
65	263	0	10000	1	1	0	1	0
65	264	0	10000	1	1	0	1	0
62	265	0	10000	1	1	0	1	0
60	266	0	10000	1	1	0	1	0
58	267	0	10000	1	1	0	1	0
56	268	0	10000	1	1	0	1	0
56	269	0	10000	1	1	0	1	0
54	270	0	10000	1	1	0	1	0
53	271	0	10000	1	1	0	1	0
53	272	0	10000	1	1	0	1	0
49	273	0	10000	1	1	0	1	0
50	274	0	10000	1	1	0	1	0
50	275	0	10000	1	1	0	1	0
48	276	0	10000	1	1	0	1	0
48	277	0	10000	1	1	0	1	0
49	278	0	10000	1	1	0	1	0
46	279	0	10000	1	1	0	1	0
45	280	0	10000	1	1	0	1	0
44	281	0	10000	1	1	0	1	0
44	282	0	10000	1	1	0	1	0
45	283	0	10000	1	1	0	1	0
44	284	0	10000	1	1	0	1	0
42	285	0	10000	1	1	0	1	0
41	286	0	10000	1	1	0	1	0
42	287	0	10000	1	1	0	1	0
44	288	0	10000	1	1	0	1	0
43	289	0	10000	1	1	0	1	0
42	290	0	10000	1	1	0	1	0
41	291	0	10000	1	1	0	1	0
40	292	0	10000	1	1	0	1	0
38	293	0	10000	1	1	0	1	0
38	294	0	10000	1	1	0	1	0
40	295	0	10000	1	1	0	1	0
42	296	0	10000	1	1	0	1	0
43	297	0	10000	1	1	0	1	0
42	298	0	10000	1	1	0	1	0
43	299	0	10000	1	1	0	1	0
42	300	0	10000	1	1	0	1	0
43	301	0	10000	1	1	0	1	0
42	302	0	10000	1	1	0	1	0
43	303	0	10000	1	1	0	1	0
44	304	0	10000	1	1	0	1	0
43	305	0	10000	1	1	0	1	0
41	306	0	10000	1	1	0	1	0
40	307	0	10000	1	1	0	1	0
40	308	0	10000	1	1	0	1	0
40	309	0	10000	1	1	0	1	0
38	310	0	10000	1	1	0	1	0
36	311	0	10000	1	1	0	1	0
36	312	0	10000	1	1	0	1	0
32	313	0	10000	1	1	0	1	0
32	314	0	10000	1	1	0	1	0
34	315	0	10000	1	1	0	1	0
34	316	0	10000	1	1	0	1	0
36	317	0	10000	1	1	0	1	0
43	318	0	10000	1	1	0	1	0
46	319	0	10000	1	1	0	1	0
48	320	0	10000	1	1	0	1	0
47	321	0	10000	1	1	0	1	0
44	322	0	10000	1	1	0	1	0
45	323	0	10000	1	1	0	1	0
45	324	0	10000	1	1	0	1	0
43	325	0	10000	1	1	0	1	0
44	326	0	10000	1	1	0	1	0
44	327	0	10000	1	1	0	1	0
45	328	0	10000	1	1	0	1	0
46	329	0	10000	1	1	0	1	0
48	330	0	10000	1	1	0	1	0
49	331	0	10000	1	1	0	1	0
50	332	0	10000	1	1	0	1	0
48	333	0	10000	1	1	0	1	0
47	334	0	10000	1	1	0	1	0
47	335	0	10000	1	1	0	1	0
47	336	0	10000	1	1	0	1	0
46	337	0	10000	1	1	0	1	0
46	338	0	10000	1	1	0	1	0
46	339	0	10000	1	1	0	1	0
45	340	0	10000	1	1	0	1	0
46	341	0	10000	1	1	0	1	0
46	342	0	10000	1	1	0	1	0
49	343	0	10000	1	1	0	1	0
48	344	0	10000	1	1	0	1	0
47	345	0	10000	1	1	0	1	0
47	346	0	10000	1	1	0	1	0
46	347	0	10000	1	1	0	1	0
44	348	0	10000	1	1	0	1	0
45	349	0	10000	1	1	0	1	0
45	350	0	10000	1	1	0	1	0
46	351	0	10000	1	1	0	1	0
49	352	0	10000	1	1	0	1	0
46	353	0	10000	1	1	0	1	0
44	354	0	10000	1	1	0	1	0
44	355	0	10000	1	1	0	1	0
42	356	0	10000	1	1	0	1	0
42	357	0	10000	1	1	0	1	0
42	358	0	10000	1	1	0	1	0
40	359	0	10000	1	1	0	1	0
38	360	0	10000	1	1	0	1	0
36	361	0	10000	1	1	0	1	0
34	362	0	10000	1	1	0	1	0
35	363	0	10000	1	1	0	1	0
34	364	0	10000	1	1	0	1	0
35	365	0	10000	1	1	0	1	0
35	366	0	10000	1	1	0	1	0
33	367	0	10000	1	1	0	1	0
35	368	0	10000	1	1	0	1	0
35	369	0	10000	1	1	0	1	0
36	370	0	10000	1	1	0	1	0
35	371	0	10000	1	1	0	1	0
34	372	0	10000	1	1	0	1	0
33	373	0	10000	1	1	0	1	0
33	374	0	10000	1	1	0	1	0
33	375	0	10000	1	1	0	1	0
35	376	0	10000	1	1	0	1	0
38	377	0	10000	1	1	0	1	0
39	378	0	10000	1	1	0	1	0
37	379	0	10000	1	1	0	1	0
35	380	0	10000	1	1	0	1	0
33	381	0	10000	1	1	0	1	0
34	382	0	10000	1	1	0	1	0
37	383	0	10000	1	1	0	1	0
38	384	0	10000	1	1	0	1	0
38	385	0	10000	1	1	0	1	0
37	386	0	10000	1	1	0	1	0
35	387	0	10000	1	1	0	1	0
34	388	0	10000	1	1	0	1	0
35	389	0	10000	1	1	0	1	0
35	390	0	10000	1	1	0	1	0
34	391	0	10000	1	1	0	1	0
34	392	0	10000	1	1	0	1	0
31	393	0	10000	1	1	0	1	0
32	394	0	10000	1	1	0	1	0
33	395	0	10000	1	1	0	1	0
33	396	0	10000	1	1	0	1	0
32	397	0	10000	1	1	0	1	0
32	398	0	10000	1	1	0	1	0
32	399	0	10000	1	1	0	1	0
32	400	0	10000	1	1	0	1	0
32	401	0	10000	1	1	0	1	0
31	402	0	10000	1	1	0	1	0
32	403	0	10000	1	1	0	1	0
31	404	0	10000	1	1	0	1	0
30	405	0	10000	1	1	0	1	0
31	406	0	10000	1	1	0	1	0
30	407	0	10000	1	1	0	1	0
31	408	0	10000	1	1	0	1	0
31	409	0	10000	1	1	0	1	0
31	410	0	10000	1	1	0	1	0
32	411	0	10000	1	1	0	1	0
34	412	0	10000	1	1	0	1	0
32	413	0	10000	1	1	0	1	0
33	414	0	10000	1	1	0	1	0
33	415	0	10000	1	1	0	1	0
35	416	0	10000	1	1	0	1	0
35	417	0	10000	1	1	0	1	0
33	418	0	10000	1	1	0	1	0
33	419	0	10000	1	1	0	1	0
32	420	0	10000	1	1	0	1	0
31	421	0	10000	1	1	0	1	0
31	422	0	10000	1	1	0	1	0
33	423	0	10000	1	1	0	1	0
33	424	0	10000	1	1	0	1	0
33	425	0	10000	1	1	0	1	0
32	426	0	10000	1	1	0	1	0
31	427	0	10000	1	1	0	1	0
31	428	0	10000	1	1	0	1	0
31	429	0	10000	1	1	0	1	0
36	430	0	10000	1	1	0	1	0
41	431	0	10000	1	1	0	1	0
42	432	0	10000	1	1	0	1	0
41	433	0	10000	1	1	0	1	0
40	434	0	10000	1	1	0	1	0
39	435	0	10000	1	1	0	1	0
38	436	0	10000	1	1	0	1	0
38	437	0	10000	1	1	0	1	0
38	438	0	10000	1	1	0	1	0
37	439	0	10000	1	1	0	1	0
37	440	0	10000	1	1	0	1	0
37	441	0	10000	1	1	0	1	0
38	442	0	10000	1	1	0	1	0
41	443	0	10000	1	1	0	1	0
40	444	0	10000	1	1	0	1	0
39	445	0	10000	1	1	0	1	0
38	446	0	10000	1	1	0	1	0
40	447	0	10000	1	1	0	1	0
40	448	0	10000	1	1	0	1	0
38	449	0	10000	1	1	0	1	0
37	450	0	10000	1	1	0	1	0
36	451	0	10000	1	1	0	1	0
35	452	0	10000	1	1	0	1	0
32	453	0	10000	1	1	0	1	0
31	454	0	10000	1	1	0	1	0
31	455	0	10000	1	1	0	1	0
30	456	0	10000	1	1	0	1	0
29	457	0	10000	1	1	0	1	0
29	458	0	10000	1	1	0	1	0
28	459	0	10000	1	1	0	1	0
28	460	0	10000	1	1	0	1	0
28	461	0	10000	1	1	0	1	0
26	462	0	10000	1	1	0	1	0
27	463	0	10000	1	1	0	1	0
26	464	0	10000	1	1	0	1	0
26	465	0	10000	1	1	0	1	0
28	466	0	10000	1	1	0	1	0
28	467	0	10000	1	1	0	1	0
28	468	0	10000	1	1	0	1	0
30	469	0	10000	1	1	0	1	0
30	470	0	10000	1	1	0	1	0
31	471	0	10000	1	1	0	1	0
32	472	0	10000	1	1	0	1	0
30	473	0	10000	1	1	0	1	0
29	474	0	10000	1	1	0	1	0
31	475	0	10000	1	1	0	1	0
31	476	0	10000	1	1	0	1	0
31	477	0	10000	1	1	0	1	0
31	478	0	10000	1	1	0	1	0
30	479	0	10000	1	1	0	1	0
29	480	0	10000	1	1	0	1	0
28	481	0	10000	1	1	0	1	0
28	482	0	10000	1	1	0	1	0
29	483	0	10000	1	1	0	1	0
30	484	0	10000	1	1	0	1	0
31	485	0	10000	1	1	0	1	0
30	486	0	10000	1	1	0	1	0
30	487	0	10000	1	1	0	1	0
29	488	0	10000	1	1	0	1	0
29	489	0	10000	1	1	0	1	0
31	490	0	10000	1	1	0	1	0
34	491	0	10000	1	1	0	1	0
35	492	0	10000	1	1	0	1	0
32	493	0	10000	1	1	0	1	0
32	494	0	10000	1	1	0	1	0
33	495	0	10000	1	1	0	1	0
36	496	0	10000	1	1	0	1	0
38	497	0	10000	1	1	0	1	0
41	498	0	10000	1	1	0	1	0
46	499	0	10000	1	1	0	1	0
47	500	0	10000	1	1	0	1	0
46	538	0	10000	1	1	0	1	1
44	539	0	10000	1	1	0	1	1
46	540	0	10000	1	1	0	1	1
46	541	0	10000	1	1	0	1	1
46	542	0	10000	1	1	0	1	1
45	543	0	10000	1	1	0	1	1
44	544	0	10000	1	1	0	1	1
44	545	0	10000	1	1	0	1	1
44	546	0	10000	1	1	0	1	1
43	547	0	10000	1	1	0	1	1
43	548	0	10000	1	1	0	1	1
43	549	0	10000	1	1	0	1	1
39	550	0	10000	1	1	0	1	1
38	551	0	10000	1	1	0	1	1
37	552	0	10000	1	1	0	1	1
36	553	0	10000	1	1	0	1	1
35	554	0	10000	1	1	0	1	1
35	555	0	10000	1	1	0	1	1
37	556	0	10000	1	1	0	1	1
37	557	0	10000	1	1	0	1	1
35	558	0	10000	1	1	0	1	1
34	559	0	10000	1	1	0	1	1
34	560	0	10000	1	1	0	1	1
33	561	0	10000	1	1	0	1	1
32	562	0	10000	1	1	0	1	1
31	563	0	10000	1	1	0	1	1
31	564	0	10000	1	1	0	1	1
32	565	0	10000	1	1	0	1	1
33	566	0	10000	1	1	0	1	1
33	567	0	10000	1	1	0	1	1
33	568	0	10000	1	1	0	1	1
32	569	0	10000	1	1	0	1	1
31	570	0	10000	1	1	0	1	1
32	571	0	10000	1	1	0	1	1
33	572	0	10000	1	1	0	1	1
32	573	0	10000	1	1	0	1	1
32	574	0	10000	1	1	0	1	1
31	575	0	10000	1	1	0	1	1
30	544	0	10000	1	1	0	1	1
30	545	0	10000	1	1	0	1	1
30	546	0	10000	1	1	0	1	1
31	547	0	10000	1	1	0	1	1
35	548	0	10000	1	1	0	1	1
35	549	0	10000	1	1	0	1	1
35	545	0	10000	1	1	0	1	1
34	546	0	10000	1	1	0	1	1
32	547	0	10000	1	1	0	1	1
31	548	0	10000	1	1	0	1	1
31	549	0	10000	1	1	0	1	1
30	550	0	10000	1	1	0	1	1
30	551	0	10000	1	1	0	1	0
31	552	0	10000	1	1	0	1	0
30	553	0	10000	1	1	0	1	0
29	554	0	10000	1	1	0	1	0
31	555	0	10000	1	1	0	1	0
31	556	0	10000	1	1	0	1	0
30	557	0	10000	1	1	0	1	0
30	558	0	10000	1	1	0	1	0
29	559	0	10000	1	1	0	1	0
28	560	0	10000	1	1	0	1	0
28	561	0	10000	1	1	0	1	0
30	562	0	10000	1	1	0	1	0
33	563	0	10000	1	1	0	1	0
33	564	0	10000	1	1	0	1	0
33	565	0	10000	1	1	0	1	0
34	566	0	10000	1	1	0	1	0
38	567	0	10000	1	1	0	1	0
40	568	0	10000	1	1	0	1	0
40	569	0	10000	1	1	0	1	0
43	570	0	10000	1	1	0	1	0
42	571	0	10000	1	1	0	1	0
41	572	0	10000	1	1	0	1	0
37	573	0	10000	1	1	0	1	0
35	574	0	10000	1	1	0	1	0
34	575	0	10000	1	1	0	1	0
34	576	0	10000	1	1	0	1	0
34	577	0	10000	1	1	0	1	0
33	578	0	10000	1	1	0	1	0
32	579	0	10000	1	1	0	1	0
32	580	0	10000	1	1	0	1	0
32	581	0	10000	1	1	0	1	0
31	582	0	10000	1	1	0	1	0
33	583	0	10000	1	1	0	1	0
32	584	0	10000	1	1	0	1	0
31	585	0	10000	1	1	0	1	0
32	586	0	10000	1	1	0	1	0
31	587	0	10000	1	1	0	1	0
30	588	0	10000	1	1	0	1	0
31	589	0	10000	1	1	0	1	0
30	590	0	10000	1	1	0	1	0
30	591	0	10000	1	1	0	1	0
31	592	0	10000	1	1	0	1	0
26	593	0	10000	1	1	0	1	0
26	594	0	10000	1	1	0	1	0
26	595	0	10000	1	1	0	1	0
26	596	0	10000	1	1	0	1	0
26	597	0	10000	1	1	0	1	0
27	598	0	10000	1	1	0	1	0
27	599	0	10000	1	1	0	1	0
27	600	0	10000	1	1	0	1	0
29	601	0	10000	1	1	0	1	0
29	602	0	10000	1	1	0	1	0
30	603	0	10000	1	1	0	1	0
29	604	0	10000	1	1	0	1	0
28	605	0	10000	1	1	0	1	0
27	606	0	10000	1	1	0	1	0
26	607	0	10000	1	1	0	1	0
27	608	0	10000	1	1	0	1	0
25	609	0	10000	1	1	0	1	0
26	610	0	10000	1	1	0	1	0
26	611	0	10000	1	1	0	1	0
27	612	0	10000	1	1	0	1	0
25	613	0	10000	1	1	0	1	0
24	614	0	10000	1	1	0	1	0
24	615	0	10000	1	1	0	1	0
24	616	0	10000	1	1	0	1	0
25	617	0	10000	1	1	0	1	0
25	618	0	10000	1	1	0	1	0
24	619	0	10000	1	1	0	1	0
24	620	0	10000	1	1	0	1	0
23	621	0	10000	1	1	0	1	0
23	622	0	10000	1	1	0	1	0
26	623	0	10000	1	1	0	1	0
29	624	0	10000	1	1	0	1	0
28	625	0	10000	1	1	0	1	0
30	626	0	10000	1	1	0	1	0
32	627	0	10000	1	1	0	1	0
33	628	0	10000	1	1	0	1	0
35	629	0	10000	1	1	0	1	0
34	630	0	10000	1	1	0	1	0
36	631	0	10000	1	1	0	1	0
41	632	0	10000	1	1	0	1	0
67	633	0	10000	1	1	0	1	0
96	634	0	10000	1	1	0	1	0
105	635	0	10000	1	1	0	1	0
102	636	0	10000	1	1	0	1	0
103	637	0	10000	1	1	0	1	0
111	638	0	10000	1	1	0	1	0
127	639	0	10000	1	1	0	1	0
135	640	0	10000	1	1	0	1	0
150	641	0	10000	1	1	0	1	0
163	642	0	10000	1	1	0	1	0
170	643	0	10000	1	1	0	1	0
212	644	0	10000	1	1	0	1	0
264	645	0	10000	1	1	0	1	0
261	646	0	10000	1	1	0	1	0
253	647	0	10000	1	1	0	1	0
260	648	0	10000	1	1	0	1	0
286	649	0	10000	1	1	0	1	0
298	650	0	10000	1	1	0	1	0
363	651	0	10000	1	1	0	1	0
454	652	0	10000	1	1	0	1	0
482	653	0	10000	1	1	0	1	0
526	654	0	10000	1	1	0	1	0
529	655	0	10000	1	1	0	1	0
559	656	0	10000	1	1	0	1	0
555	657	0	10000	1	1	0	1	0
594	658	0	10000	1	1	0	1	0
672	659	0	10000	1	1	0	1	0
728	660	0	10000	1	1	0	1	0
738	661	0	10000	1	1	0	1	0
729	662	0	10000	1	1	0	1	0
709	663	0	10000	1	1	0	1	0
747	664	0	10000	1	1	0	1	0
866	665	0	10000	1	1	0	1	0
895	666	0	10000	1	1	0	1	0
933	667	0	10000	1	1	0	1	0
961	668	0	10000	1	1	0	1	0
967	669	0	10000	1	1	0	1	0
988	670	0	10000	1	1	0	1	0
955	671	0	10000	1	1	0	1	0
949	672	0	10000	1	1	0	1	0
989	673	0	10000	1	1	0	1	0
1058	674	0	10000	1	1	0	1	0
1094	675	0	10000	1	1	0	1	0
1092	676	0	10000	1	1	0	1	0
1059	677	0	10000	1	1	0	1	0
1012	678	0	10000	1	1	0	1	0
977	679	0	10000	1	1	0	1	0
947	680	0	10000	1	1	0	1	0
922	681	0	10000	1	1	0	1	0
898	682	0	10000	1	1	0	1	0
879	683	0	10000	1	1	0	1	0
857	684	0	10000	1	1	0	1	0
835	685	0	10000	1	1	0	1	0
813	686	0	10000	1	1	0	1	0
791	687	0	10000	1	1	0	1	0
770	688	0	10000	1	1	0	1	0
750	689	0	10000	1	1	0	1	0
729	690	0	10000	1	1	0	1	0
710	691	0	10000	1	1	0	1	0
689	692	0	10000	1	1	0	1	0
664	693	0	10000	1	1	0	1	0
644	694	0	10000	1	1	0	1	0
628	695	0	10000	1	1	0	1	0
609	696	0	10000	1	1	0	1	0
586	697	0	10000	1	1	0	1	0
561	698	0	10000	1	1	0	1	0
537	699	0	10000	1	1	0	1	0
514	700	0	10000	1	1	0	1	0
491	701	0	10000	1	1	0	1	0
472	702	0	10000	1	1	0	1	0
455	703	0	10000	1	1	0	1	0
447	704	0	10000	1	1	0	1	0
456	705	0	10000	1	1	0	1	0
472	706	0	10000	1	1	0	1	0
480	707	0	10000	1	1	0	1	0
482	708	0	10000	1	1	0	1	0
486	709	0	10000	1	1	0	1	0
493	710	0	10000	1	1	0	1	0
498	711	0	10000	1	1	0	1	0
502	712	0	10000	1	1	0	1	0
501	713	0	10000	1	1	0	1	0
500	714	0	10000	1	1	0	1	0
492	715	0	10000	1	1	0	1	0
485	716	0	10000	1	1	0	1	0
487	717	0	10000	1	1	0	1	0
488	718	0	10000	1	1	0	1	0
488	719	0	10000	1	1	0	1	0
489	720	0	10000	1	1	0	1	0
497	721	0	10000	1	1	0	1	0
500	722	0	10000	1	1	0	1	0
500	723	0	10000	1	1	0	1	0
494	724	0	10000	1	1	0	1	0
495	725	0	10000	1	1	0	1	0
477	726	0	10000	1	1	0	1	0
465	727	0	10000	1	1	0	1	0
461	728	0	10000	1	1	0	1	0
442	729	0	10000	1	1	0	1	0
435	730	0	10000	1	1	0	1	0
434	731	0	10000	1	1	0	1	0
429	732	0	10000	1	1	0	1	0
418	733	0	10000	1	1	0	1	0
399	734	0	10000	1	1	0	1	0
382	735	0	10000	1	1	0	1	0
367	736	0	10000	1	1	0	1	0
356	737	0	10000	1	1	0	1	0
344	738	0	10000	1	1	0	1	0
329	739	0	10000	1	1	0	1	0
317	740	0	10000	1	1	0	1	0
305	741	0	10000	1	1	0	1	0
294	742	0	10000	1	1	0	1	0
288	743	0	10000	1	1	0	1	0
278	744	0	10000	1	1	0	1	0
268	745	0	10000	1	1	0	1	0
262	746	0	10000	1	1	0	1	0
257	747	0	10000	1	1	0	1	0
253	748	0	10000	1	1	0	1	0
251	749	0	10000	1	1	0	1	0
247	750	0	10000	1	1	0	1	0
244	751	0	10000	1	1	0	1	0
245	752	0	10000	1	1	0	1	0
242	753	0	10000	1	1	0	1	0
243	754	0	10000	1	1	0	1	0
244	755	0	10000	1	1	0	1	0
243	756	0	10000	1	1	0	1	0
243	757	0	10000	1	1	0	1	0
244	758	0	10000	1	1	0	1	0
245	759	0	10000	1	1	0	1	0
243	760	0	10000	1	1	0	1	0
235	761	0	10000	1	1	0	1	0
228	762	0	10000	1	1	0	1	0
226	763	0	10000	1	1	0	1	0
224	764	0	10000	1	1	0	1	0
222	765	0	10000	1	1	0	1	0
218	766	0	10000	1	1	0	1	0
213	767	0	10000	1	1	0	1	0
206	768	0	10000	1	1	0	1	0
200	769	0	10000	1	1	0	1	0
196	770	0	10000	1	1	0	1	0
193	771	0	10000	1	1	0	1	0
192	772	0	10000	1	1	0	1	0
188	773	0	10000	1	1	0	1	0
186	774	0	10000	1	1	0	1	0
186	775	0	10000	1	1	0	1	0
187	776	0	10000	1	1	0	1	0
188	777	0	10000	1	1	0	1	0
189	778	0	10000	1	1	0	1	0
188	779	0	10000	1	1	0	1	0
186	780	0	10000	1	1	0	1	0
183	781	0	10000	1	1	0	1	0
177	782	0	10000	1	1	0	1	0
175	783	0	10000	1	1	0	1	0
167	784	0	10000	1	1	0	1	0
160	785	0	10000	1	1	0	1	0
153	786	0	10000	1	1	0	1	0
146	787	0	10000	1	1	0	1	0
140	788	0	10000	1	1	0	1	0
137	789	0	10000	1	1	0	1	0
134	790	0	10000	1	1	0	1	0
131	791	0	10000	1	1	0	1	0
131	792	0	10000	1	1	0	1	0
132	793	0	10000	1	1	0	1	0
134	794	0	10000	1	1	0	1	0
137	795	0	10000	1	1	0	1	0
138	796	0	10000	1	1	0	1	0
137	797	0	10000	1	1	0	1	0
137	798	0	10000	1	1	0	1	0
137	799	0	10000	1	1	0	1	0
138	800	0	10000	1	1	0	1	0
138	801	0	10000	1	1	0	1	0
136	802	0	10000	1	1	0	1	0
135	803	0	10000	1	1	0	1	0
130	804	0	10000	1	1	0	1	0
126	805	0	10000	1	1	0	1	0
121	806	0	10000	1	1	0	1	0
116	807	0	10000	1	1	0	1	0
112	808	0	10000	1	1	0	1	0
107	809	0	10000	1	1	0	1	0
104	810	0	10000	1	1	0	1	0
102	811	0	10000	1	1	0	1	0
101	812	0	10000	1	1	0	1	0
98	813	0	10000	1	1	0	1	0
98	814	0	10000	1	1	0	1	0
99	815	0	10000	1	1	0	1	0
98	816	0	10000	1	1	0	1	0
100	817	0	10000	1	1	0	1	0
102	818	0	10000	1	1	0	1	0
101	819	0	10000	1	1	0	1	0
100	820	0	10000	1	1	0	1	0
98	821	0	10000	1	1	0	1	0
95	822	0	10000	1	1	0	1	0
97	823	0	10000	1	1	0	1	0
92	824	0	10000	1	1	0	1	0
89	825	0	10000	1	1	0	1	0
87	826	0	10000	1	1	0	1	0
85	827	0	10000	1	1	0	1	0
83	828	0	10000	1	1	0	1	0
80	829	0	10000	1	1	0	1	0
78	830	0	10000	1	1	0	1	0
76	831	0	10000	1	1	0	1	0
76	832	0	10000	1	1	0	1	0
74	833	0	10000	1	1	0	1	0
75	834	0	10000	1	1	0	1	0
77	835	0	10000	1	1	0	1	0
78	836	0	10000	1	1	0	1	0
78	837	0	10000	1	1	0	1	0
78	838	0	10000	1	1	0	1	0
77	839	0	10000	1	1	0	1	0
77	840	0	10000	1	1	0	1	0
74	841	0	10000	1	1	0	1	0
72	842	0	10000	1	1	0	1	0
71	843	0	10000	1	1	0	1	0
69	844	0	10000	1	1	0	1	0
68	845	0	10000	1	1	0	1	0
66	846	0	10000	1	1	0	1	0
66	847	0	10000	1	1	0	1	0
66	848	0	10000	1	1	0	1	0
63	849	0	10000	1	1	0	1	0
61	850	0	10000	1	1	0	1	0
60	851	0	10000	1	1	0	1	0
59	852	0	10000	1	1	0	1	0
55	853	0	10000	1	1	0	1	0
53	854	0	10000	1	1	0	1	0
52	855	0	10000	1	1	0	1	0
50	856	0	10000	1	1	0	1	0
49	857	0	10000	1	1	0	1	0
48	858	0	10000	1	1	0	1	0
50	859	0	10000	1	1	0	1	0
49	860	0	10000	1	1	0	1	0
49	861	0	10000	1	1	0	1	0
50	862	0	10000	1	1	0	1	0
52	863	0	10000	1	1	0	1	0
51	864	0	10000	1	1	0	1	0
52	865	0	10000	1	1	0	1	0
54	866	0	10000	1	1	0	1	0
56	867	0	10000	1	1	0	1	0
57	868	0	10000	1	1	0	1	0
58	869	0	10000	1	1	0	1	0
56	870	0	10000	1	1	0	1	0
54	871	0	10000	1	1	0	1	0
52	872	0	10000	1	1	0	1	0
48	873	0	10000	1	1	0	1	0
49	874	0	10000	1	1	0	1	0
50	875	0	10000	1	1	0	1	0
50	876	0	10000	1	1	0	1	0
49	877	0	10000	1	1	0	1	0
48	878	0	10000	1	1	0	1	0
48	879	0	10000	1	1	0	1	0
47	880	0	10000	1	1	0	1	0
45	881	0	10000	1	1	0	1	0
44	882	0	10000	1	1	0	1	0
45	883	0	10000	1	1	0	1	0
46	884	0	10000	1	1	0	1	0
48	885	0	10000	1	1	0	1	0
48	886	0	10000	1	1	0	1	0
50	887	0	10000	1	1	0	1	0
51	888	0	10000	1	1	0	1	0
53	889	0	10000	1	1	0	1	0
55	890	0	10000	1	1	0	1	0
55	891	0	10000	1	1	0	1	0
55	892	0	10000	1	1	0	1	0
51	893	0	10000	1	1	0	1	0
52	894	0	10000	1	1	0	1	0
53	895	0	10000	1	1	0	1	0
50	896	0	10000	1	1	0	1	0
53	897	0	10000	1	1	0	1	0
53	898	0	10000	1	1	0	1	0
52	899	0	10000	1	1	0	1	0
50	900	0	10000	1	1	0	1	0
48	901	0	10000	1	1	0	1	0
47	902	0	10000	1	1	0	1	0
49	903	0	10000	1	1	0	1	0
50	904	0	10000	1	1	0	1	0
50	905	0	10000	1	1	0	1	0
49	906	0	10000	1	1	0	1	0
49	907	0	10000	1	1	0	1	0
47	908	0	10000	1	1	0	1	0
47	909	0	10000	1	1	0	1	0
49	910	0	10000	1	1	0	1	0
50	911	0	10000	1	1	0	1	0
51	912	0	10000	1	1	0	1	0
51	913	0	10000	1	1	0	1	0
50	914	0	10000	1	1	0	1	0
48	915	0	10000	1	1	0	1	0
48	916	0	10000	1	1	0	1	0
48	917	0	10000	1	1	0	1	0
48	918	0	10000	1	1	0	1	0
48	919	0	10000	1	1	0	1	0
47	920	0	10000	1	1	0	1	0
46	921	0	10000	1	1	0	1	0
47	922	0	10000	1	1	0	1	0
50	923	0	10000	1	1	0	1	0
51	924	0	10000	1	1	0	1	0
53	925	0	10000	1	1	0	1	0
54	926	0	10000	1	1	0	1	0
55	927	0	10000	1	1	0	1	0
53	928	0	10000	1	1	0	1	0
51	929	0	10000	1	1	0	1	0
50	930	0	10000	1	1	0	1	0
49	931	0	10000	1	1	0	1	0
47	932	0	10000	1	1	0	1	0
46	933	0	10000	1	1	0	1	0
47	934	0	10000	1	1	0	1	0
47	935	0	10000	1	1	0	1	0
49	936	0	10000	1	1	0	1	0
52	937	0	10000	1	1	0	1	0
52	938	0	10000	1	1	0	1	0
51	939	0	10000	1	1	0	1	0
50	940	0	10000	1	1	0	1	0
47	941	0	10000	1	1	0	1	0
45	942	0	10000	1	1	0	1	0
46	943	0	10000	1	1	0	1	0
45	944	0	10000	1	1	0	1	0
47	945	0	10000	1	1	0	1	0
47	946	0	10000	1	1	0	1	0
44	947	0	10000	1	1	0	1	0
43	948	0	10000	1	1	0	1	0
41	949	0	10000	1	1	0	1	0
42	950	0	10000	1	1	0	1	0
41	951	0	10000	1	1	0	1	0
40	952	0	10000	1	1	0	1	0
39	953	0	10000	1	1	0	1	0
38	954	0	10000	1	1	0	1	0
39	955	0	10000	1	1	0	1	0
37	956	0	10000	1	1	0	1	0
36	957	0	10000	1	1	0	1	0
35	958	0	10000	1	1	0	1	0
35	959	0	10000	1	1	0	1	0
35	960	0	10000	1	1	0	1	0
36	961	0	10000	1	1	0	1	0
36	962	0	10000	1	1	0	1	0
36	963	0	10000	1	1	0	1	0
35	964	0	10000	1	1	0	1	0
34	965	0	10000	1	1	0	1	0
34	966	0	10000	1	1	0	1	0
34	967	0	10000	1	1	0	1	0
34	968	0	10000	1	1	0	1	0
32	969	0	10000	1	1	0	1	0
32	970	0	10000	1	1	0	1	0
31	971	0	10000	1	1	0	1	0
32	972	0	10000	1	1	0	1	0
33	973	0	10000	1	1	0	1	0
34	974	0	10000	1	1	0	1	0
36	975	0	10000	1	1	0	1	0
39	976	0	10000	1	1	0	1	0
40	977	0	10000	1	1	0	1	0
39	978	0	10000	1	1	0	1	0
38	979	0	10000	1	1	0	1	0
38	980	0	10000	1	1	0	1	0
35	981	0	10000	1	1	0	1	0
34	982	0	10000	1	1	0	1	0
37	983	0	10000	1	1	0	1	0
37	984	0	10000	1	1	0	1	0
37	985	0	10000	1	1	0	1	0
37	986	0	10000	1	1	0	1	0
36	987	0	10000	1	1	0	1	0
36	988	0	10000	1	1	0	1	0
37	989	0	10000	1	1	0	1	0
39	990	0	10000	1	1	0	1	0
39	991	0	10000	1	1	0	1	0
38	992	0	10000	1	1	0	1	0
35	993	0	10000	1	1	0	1	0
36	994	0	10000	1	1	0	1	0
37	995	0	10000	1	1	0	1	0
37	996	0	10000	1	1	0	1	0
38	997	0	10000	1	1	0	1	0
40	998	0	10000	1	1	0	1	0
43	999	0	10000	1	1	0	1	0
42	1000	0	10000	1	1	0	1	0
39	1	0	10000	2	1	0	2	0
38	2	0	10000	2	1	0	2	0
38	3	0	10000	2	1	0	2	0
39	4	0	10000	2	1	0	2	0
40	5	0	10000	2	1	0	2	0
38	6	0	10000	2	1	0	2	0
39	7	0	10000	2	1	0	2	0
37	8	0	10000	2	1	0	2	0
35	9	0	10000	2	1	0	2	0
35	10	0	10000	2	1	0	2	0
34	11	0	10000	2	1	0	2	0
32	12	0	10000	2	1	0	2	0
29	13	0	10000	2	1	0	2	0
29	14	0	10000	2	1	0	2	0
28	15	0	10000	2	1	0	2	0
28	16	0	10000	2	1	0	2	0
28	17	0	10000	2	1	0	2	0
29	18	0	10000	2	1	0	2	0
28	19	0	10000	2	1	0	2	0
27	20	0	10000	2	1	0	2	0
26	21	0	10000	2	1	0	2	0
25	22	0	10000	2	1	0	2	0
26	23	0	10000	2	1	0	2	0
25	24	0	10000	2	1	0	2	0
25	25	0	10000	2	1	0	2	0
24	26	0	10000	2	1	0	2	0
24	27	0	10000	2	1	0	2	0
25	28	0	10000	2	1	0	2	0
25	29	0	10000	2	1	0	2	0
26	30	0	10000	2	1	0	2	0
26	31	0	10000	2	1	0	2	0
27	32	0	10000	2	1	0	2	0
26	33	0	10000	2	1	0	2	0
26	34	0	10000	2	1	0	2	0
28	35	0	10000	2	1	0	2	0
28	36	0	10000	2	1	0	2	0
28	37	0	10000	2	1	0	2	0
28	38	0	10000	2	1	0	2	0
28	39	0	10000	2	1	0	2	0
28	40	0	10000	2	1	0	2	0
27	41	0	10000	2	1	0	2	0
26	42	0	10000	2	1	0	2	0
28	43	0	10000	2	1	0	2	0
28	44	0	10000	2	1	0	2	0
26	45	0	10000	2	1	0	2	0
25	46	0	10000	2	1	0	2	0
24	47	0	10000	2	1	0	2	0
24	48	0	10000	2	1	0	2	0
24	49	0	10000	2	1	0	2	0
24	50	0	10000	2	1	0	2	0
25	51	0	10000	2	1	0	2	0
26	52	0	10000	2	1	0	2	0
24	53	0	10000	2	1	0	2	0
24	54	0	10000	2	1	0	2	0
24	55	0	10000	2	1	0	2	0
23	56	0	10000	2	1	0	2	0
22	57	0	10000	2	1	0	2	0
22	58	0	10000	2	1	0	2	0
21	59	0	10000	2	1	0	2	0
20	60	0	10000	2	1	0	2	0
19	61	0	10000	2	1	0	2	0
19	62	0	10000	2	1	0	2	0
22	63	0	10000	2	1	0	2	0
22	64	0	10000	2	1	0	2	0
21	65	0	10000	2	1	0	2	0
21	66	0	10000	2	1	0	2	0
20	67	0	10000	2	1	0	2	0
21	68	0	10000	2	1	0	2	0
21	69	0	10000	2	1	0	2	0
21	70	0	10000	2	1	0	2	0
21	71	0	10000	2	1	0	2	0
20	72	0	10000	2	1	0	2	0
19	73	0	10000	2	1	0	2	0
20	74	0	10000	2	1	0	2	0
25	75	0	10000	2	1	0	2	0
25	76	0	10000	2	1	0	2	0
26	77	0	10000	2	1	0	2	0
27	78	0	10000	2	1	0	2	0
27	79	0	10000	2	1	0	2	0
26	80	0	10000	2	1	0	2	0
27	81	0	10000	2	1	0	2	0
28	82	0	10000	2	1	0	2	0
32	83	0	10000	2	1	0	2	0
33	84	0	10000	2	1	0	2	0
32	85	0	10000	2	1	0	2	0
30	86	0	10000	2	1	0	2	0
30	87	0	10000	2	1	0	2	0
28	88	0	10000	2	1	0	2	0
28	89	0	10000	2	1	0	2	0
29	90	0	10000	2	1	0	2	0
29	91	0	10000	2	1	0	2	0
29	92	0	10000	2	1	0	2	0
28	93	0	10000	2	1	0	2	0
30	94	0	10000	2	1	0	2	0
29	95	0	10000	2	1	0	2	0
31	96	0	10000	2	1	0	2	0
32	97	0	10000	2	1	0	2	0
32	98	0	10000	2	1	0	2	0
32	99	0	10000	2	1	0	2	0
31	100	0	10000	2	1	0	2	0
30	101	0	10000	2	1	0	2	0
30	102	0	10000	2	1	0	2	0
31	103	0	10000	2	1	0	2	0
29	104	0	10000	2	1	0	2	0
29	105	0	10000	2	1	0	2	0
29	106	0	10000	2	1	0	2	0
28	107	0	10000	2	1	0	2	0
27	108	0	10000	2	1	0	2	0
26	109	0	10000	2	1	0	2	0
26	110	0	10000	2	1	0	2	0
27	111	0	10000	2	1	0	2	0
28	112	0	10000	2	1	0	2	0
26	113	0	10000	2	1	0	2	0
26	114	0	10000	2	1	0	2	0
26	115	0	10000	2	1	0	2	0
25	116	0	10000	2	1	0	2	0
25	117	0	10000	2	1	0	2	0
26	118	0	10000	2	1	0	2	0
24	119	0	10000	2	1	0	2	0
23	120	0	10000	2	1	0	2	0
24	121	0	10000	2	1	0	2	0
22	122	0	10000	2	1	0	2	0
23	123	0	10000	2	1	0	2	0
23	124	0	10000	2	1	0	2	0
23	125	0	10000	2	1	0	2	0
24	126	0	10000	2	1	0	2	0
24	127	0	10000	2	1	0	2	0
24	128	0	10000	2	1	0	2	0
24	129	0	10000	2	1	0	2	0
24	130	0	10000	2	1	0	2	0
24	131	0	10000	2	1	0	2	0
24	132	0	10000	2	1	0	2	0
21	133	0	10000	2	1	0	2	0
21	134	0	10000	2	1	0	2	0
21	135	0	10000	2	1	0	2	0
21	136	0	10000	2	1	0	2	0
22	137	0	10000	2	1	0	2	0
22	138	0	10000	2	1	0	2	0
22	139	0	10000	2	1	0	2	0
20	140	0	10000	2	1	0	2	0
20	141	0	10000	2	1	0	2	0
20	142	0	10000	2	1	0	2	0
23	143	0	10000	2	1	0	2	0
22	144	0	10000	2	1	0	2	0
22	145	0	10000	2	1	0	2	0
22	146	0	10000	2	1	0	2	0
25	147	0	10000	2	1	0	2	0
26	148	0	10000	2	1	0	2	0
28	149	0	10000	2	1	0	2	0
28	150	0	10000	2	1	0	2	0
30	151	0	10000	2	1	0	2	0
31	152	0	10000	2	1	0	2	0
31	153	0	10000	2	1	0	2	0
32	154	0	10000	2	1	0	2	0
33	155	0	10000	2	1	0	2	0
34	156	0	10000	2	1	0	2	0
32	157	0	10000	2	1	0	2	0
34	158	0	10000	2	1	0	2	0
35	159	0	10000	2	1	0	2	0
35	160	0	10000	2	1	0	2	0
34	161	0	10000	2	1	0	2	0
34	162	0	10000	2	1	0	2	0
35	163	0	10000	2	1	0	2	0
34	164	0	10000	2	1	0	2	0
32	165	0	10000	2	1	0	2	0
32	166	0	10000	2	1	0	2	0
31	167	0	10000	2	1	0	2	0
30	168	0	10000	2	1	0	2	0
29	169	0	10000	2	1	0	2	0
29	170	0	10000	2	1	0	2	0
29	171	0	10000	2	1	0	2	0
29	172	0	10000	2	1	0	2	0
29	173	0	10000	2	1	0	2	0
29	174	0	10000	2	1	0	2	0
29	175	0	10000	2	1	0	2	0
30	176	0	10000	2	1	0	2	0
29	177	0	10000	2	1	0	2	0
28	178	0	10000	2	1	0	2	0
29	179	0	10000	2	1	0	2	0
29	180	0	10000	2	1	0	2	0
30	181	0	10000	2	1	0	2	0
31	182	0	10000	2	1	0	2	0
32	183	0	10000	2	1	0	2	0
34	184	0	10000	2	1	0	2	0
34	185	0	10000	2	1	0	2	0
34	186	0	10000	2	1	0	2	0
33	187	0	10000	2	1	0	2	0
32	188	0	10000	2	1	0	2	0
31	189	0	10000	2	1	0	2	0
32	190	0	10000	2	1	0	2	0
34	191	0	10000	2	1	0	2	0
34	192	0	10000	2	1	0	2	0
32	193	0	10000	2	1	0	2	0
33	194	0	10000	2	1	0	2	0
36	195	0	10000	2	1	0	2	0
36	196	0	10000	2	1	0	2	0
39	197	0	10000	2	1	0	2	0
40	198	0	10000	2	1	0	2	0
40	199	0	10000	2	1	0	2	0
39	200	0	10000	2	1	0	2	0
39	201	0	10000	2	1	0	2	0
38	202	0	10000	2	1	0	2	0
40	203	0	10000	2	1	0	2	0
39	204	0	10000	2	1	0	2	0
37	205	0	10000	2	1	0	2	0
38	206	0	10000	2	1	0	2	0
39	207	0	10000	2	1	0	2	0
38	208	0	10000	2	1	0	2	0
37	209	0	10000	2	1	0	2	0
37	210	0	10000	2	1	0	2	0
36	211	0	10000	2	1	0	2	0
35	212	0	10000	2	1	0	2	0
31	213	0	10000	2	1	0	2	0
31	214	0	10000	2	1	0	2	0
30	215	0	10000	2	1	0	2	0
30	216	0	10000	2	1	0	2	0
29	217	0	10000	2	1	0	2	0
29	218	0	10000	2	1	0	2	0
28	219	0	10000	2	1	0	2	0
26	220	0	10000	2	1	0	2	0
27	221	0	10000	2	1	0	2	0
25	222	0	10000	2	1	0	2	0
27	223	0	10000	2	1	0	2	0
26	224	0	10000	2	1	0	2	0
25	225	0	10000	2	1	0	2	0
24	226	0	10000	2	1	0	2	0
26	227	0	10000	2	1	0	2	0
27	228	0	10000	2	1	0	2	0
28	229	0	10000	2	1	0	2	0
28	230	0	10000	2	1	0	2	0
28	231	0	10000	2	1	0	2	0
29	232	0	10000	2	1	0	2	0
27	233	0	10000	2	1	0	2	0
26	234	0	10000	2	1	0	2	0
26	235	0	10000	2	1	0	2	0
27	236	0	10000	2	1	0	2	0
26	237	0	10000	2	1	0	2	0
26	238	0	10000	2	1	0	2	0
27	239	0	10000	2	1	0	2	0
25	240	0	10000	2	1	0	2	0
25	241	0	10000	2	1	0	2	0
24	242	0	10000	2	1	0	2	0
27	243	0	10000	2	1	0	2	0
26	244	0	10000	2	1	0	2	0
25	245	0	10000	2	1	0	2	0
28	246	0	10000	2	1	0	2	0
32	247	0	10000	2	1	0	2	0
36	248	0	10000	2	1	0	2	0
39	249	0	10000	2	1	0	2	0
39	250	0	10000	2	1	0	2	0
40	251	0	10000	2	1	0	2	0
43	252	0	10000	2	1	0	2	0
44	253	0	10000	2	1	0	2	0
45	254	0	10000	2	1	0	2	0
45	255	0	10000	2	1	0	2	0
45	256	0	10000	2	1	0	2	0
44	257	0	10000	2	1	0	2	0
44	258	0	10000	2	1	0	2	0
45	259	0	10000	2	1	0	2	0
46	260	0	10000	2	1	0	2	0
47	261	0	10000	2	1	0	2	0
49	262	0	10000	2	1	0	2	0
51	263	0	10000	2	1	0	2	0
51	264	0	10000	2	1	0	2	0
51	265	0	10000	2	1	0	2	0
51	266	0	10000	2	1	0	2	0
49	267	0	10000	2	1	0	2	0
49	268	0	10000	2	1	0	2	0
48	269	0	10000	2	1	0	2	0
51	270	0	10000	2	1	0	2	0
53	271	0	10000	2	1	0	2	0
51	272	0	10000	2	1	0	2	0
50	273	0	10000	2	1	0	2	0
49	274	0	10000	2	1	0	2	0
48	275	0	10000	2	1	0	2	0
50	276	0	10000	2	1	0	2	0
55	277	0	10000	2	1	0	2	0
53	278	0	10000	2	1	0	2	0
52	279	0	10000	2	1	0	2	0
52	280	0	10000	2	1	0	2	0
50	281	0	10000	2	1	0	2	0
48	282	0	10000	2	1	0	2	0
49	283	0	10000	2	1	0	2	0
48	284	0	10000	2	1	0	2	0
48	285	0	10000	2	1	0	2	0
49	286	0	10000	2	1	0	2	0
55	287	0	10000	2	1	0	2	0
54	288	0	10000	2	1	0	2	0
52	289	0	10000	2	1	0	2	0
56	290	0	10000	2	1	0	2	0
62	291	0	10000	2	1	0	2	0
61	292	0	10000	2	1	0	2	0
61	293	0	10000	2	1	0	2	0
61	294	0	10000	2	1	0	2	0
67	295	0	10000	2	1	0	2	0
76	296	0	10000	2	1	0	2	0
76	297	0	10000	2	1	0	2	0
79	298	0	10000	2	1	0	2	0
84	299	0	10000	2	1	0	2	0
82	300	0	10000	2	1	0	2	0
81	301	0	10000	2	1	0	2	0
96	302	0	10000	2	1	0	2	0
140	303	0	10000	2	1	0	2	0
178	304	0	10000	2	1	0	2	0
194	305	0	10000	2	1	0	2	0
204	306	0	10000	2	1	0	2	0
235	307	0	10000	2	1	0	2	0
252	308	0	10000	2	1	0	2	0
255	309	0	10000	2	1	0	2	0
249	310	0	10000	2	1	0	2	0
247	311	0	10000	2	1	0	2	0
250	312	0	10000	2	1	0	2	0
241	313	0	10000	2	1	0	2	0
235	314	0	10000	2	1	0	2	0
232	315	0	10000	2	1	0	2	0
231	316	0	10000	2	1	0	2	0
249	317	0	10000	2	1	0	2	0
276	318	0	10000	2	1	0	2	0
280	319	0	10000	2	1	0	2	0
279	320	0	10000	2	1	0	2	0
306	321	0	10000	2	1	0	2	0
331	322	0	10000	2	1	0	2	0
344	323	0	10000	2	1	0	2	0
344	324	0	10000	2	1	0	2	0
331	325	0	10000	2	1	0	2	0
318	326	0	10000	2	1	0	2	0
311	327	0	10000	2	1	0	2	0
305	328	0	10000	2	1	0	2	0
302	329	0	10000	2	1	0	2	0
301	330	0	10000	2	1	0	2	0
295	331	0	10000	2	1	0	2	0
293	332	0	10000	2	1	0	2	0
297	333	0	10000	2	1	0	2	0
298	334	0	10000	2	1	0	2	0
291	335	0	10000	2	1	0	2	0
282	336	0	10000	2	1	0	2	0
275	337	0	10000	2	1	0	2	0
266	338	0	10000	2	1	0	2	0
256	339	0	10000	2	1	0	2	0
246	340	0	10000	2	1	0	2	0
255	341	0	10000	2	1	0	2	0
261	342	0	10000	2	1	0	2	0
257	343	0	10000	2	1	0	2	0
248	344	0	10000	2	1	0	2	0
249	345	0	10000	2	1	0	2	0
249	346	0	10000	2	1	0	2	0
255	347	0	10000	2	1	0	2	0
256	348	0	10000	2	1	0	2	0
256	349	0	10000	2	1	0	2	0
260	350	0	10000	2	1	0	2	0
263	351	0	10000	2	1	0	2	0
264	352	0	10000	2	1	0	2	0
267	353	0	10000	2	1	0	2	0
269	354	0	10000	2	1	0	2	0
265	355	0	10000	2	1	0	2	0
257	356	0	10000	2	1	0	2	0
248	357	0	10000	2	1	0	2	0
237	358	0	10000	2	1	0	2	0
226	359	0	10000	2	1	0	2	0
216	360	0	10000	2	1	0	2	0
209	361	0	10000	2	1	0	2	0
201	362	0	10000	2	1	0	2	0
195	363	0	10000	2	1	0	2	0
189	364	0	10000	2	1	0	2	0
181	365	0	10000	2	1	0	2	0
173	366	0	10000	2	1	0	2	0
168	367	0	10000	2	1	0	2	0
162	368	0	10000	2	1	0	2	0
161	369	0	10000	2	1	0	2	0
159	370	0	10000	2	1	0	2	0
157	371	0	10000	2	1	0	2	0
152	372	0	10000	2	1	0	2	0
152	373	0	10000	2	1	0	2	0
158	374	0	10000	2	1	0	2	0
165	375	0	10000	2	1	0	2	0
170	376	0	10000	2	1	0	2	0
172	377	0	10000	2	1	0	2	0
173	378	0	10000	2	1	0	2	0
176	379	0	10000	2	1	0	2	0
182	380	0	10000	2	1	0	2	0
187	381	0	10000	2	1	0	2	0
192	382	0	10000	2	1	0	2	0
188	383	0	10000	2	1	0	2	0
180	384	0	10000	2	1	0	2	0
174	385	0	10000	2	1	0	2	0
174	386	0	10000	2	1	0	2	0
174	387	0	10000	2	1	0	2	0
174	388	0	10000	2	1	0	2	0
177	389	0	10000	2	1	0	2	0
180	390	0	10000	2	1	0	2	0
180	391	0	10000	2	1	0	2	0
176	392	0	10000	2	1	0	2	0
167	393	0	10000	2	1	0	2	0
162	394	0	10000	2	1	0	2	0
160	395	0	10000	2	1	0	2	0
161	396	0	10000	2	1	0	2	0
166	397	0	10000	2	1	0	2	0
166	398	0	10000	2	1	0	2	0
167	399	0	10000	2	1	0	2	0
166	400	0	10000	2	1	0	2	0
164	401	0	10000	2	1	0	2	0
158	402	0	10000	2	1	0	2	0
153	403	0	10000	2	1	0	2	0
149	404	0	10000	2	1	0	2	0
144	405	0	10000	2	1	0	2	0
138	406	0	10000	2	1	0	2	0
133	407	0	10000	2	1	0	2	0
128	408	0	10000	2	1	0	2	0
124	409	0	10000	2	1	0	2	0
123	410	0	10000	2	1	0	2	0
122	411	0	10000	2	1	0	2	0
122	412	0	10000	2	1	0	2	0
119	413	0	10000	2	1	0	2	0
116	414	0	10000	2	1	0	2	0
121	415	0	10000	2	1	0	2	0
122	416	0	10000	2	1	0	2	0
118	417	0	10000	2	1	0	2	0
117	418	0	10000	2	1	0	2	0
113	419	0	10000	2	1	0	2	0
109	420	0	10000	2	1	0	2	0
105	421	0	10000	2	1	0	2	0
101	422	0	10000	2	1	0	2	0
101	423	0	10000	2	1	0	2	0
100	424	0	10000	2	1	0	2	0
99	425	0	10000	2	1	0	2	0
97	426	0	10000	2	1	0	2	0
94	427	0	10000	2	1	0	2	0
95	428	0	10000	2	1	0	2	0
92	429	0	10000	2	1	0	2	0
89	430	0	10000	2	1	0	2	0
86	431	0	10000	2	1	0	2	0
83	432	0	10000	2	1	0	2	0
80	433	0	10000	2	1	0	2	0
82	434	0	10000	2	1	0	2	0
80	435	0	10000	2	1	0	2	0
78	436	0	10000	2	1	0	2	0
75	437	0	10000	2	1	0	2	0
74	438	0	10000	2	1	0	2	0
74	439	0	10000	2	1	0	2	0
73	440	0	10000	2	1	0	2	0
74	441	0	10000	2	1	0	2	0
74	442	0	10000	2	1	0	2	0
75	443	0	10000	2	1	0	2	0
72	444	0	10000	2	1	0	2	0
69	445	0	10000	2	1	0	2	0
67	446	0	10000	2	1	0	2	0
67	447	0	10000	2	1	0	2	0
68	448	0	10000	2	1	0	2	0
70	449	0	10000	2	1	0	2	0
73	450	0	10000	2	1	0	2	0
72	451	0	10000	2	1	0	2	0
71	452	0	10000	2	1	0	2	0
69	453	0	10000	2	1	0	2	0
67	454	0	10000	2	1	0	2	0
67	455	0	10000	2	1	0	2	0
65	456	0	10000	2	1	0	2	0
62	457	0	10000	2	1	0	2	0
59	458	0	10000	2	1	0	2	0
57	459	0	10000	2	1	0	2	0
54	460	0	10000	2	1	0	2	0
53	461	0	10000	2	1	0	2	0
53	462	0	10000	2	1	0	2	0
59	463	0	10000	2	1	0	2	0
62	464	0	10000	2	1	0	2	0
63	465	0	10000	2	1	0	2	0
62	466	0	10000	2	1	0	2	0
60	467	0	10000	2	1	0	2	0
57	468	0	10000	2	1	0	2	0
56	469	0	10000	2	1	0	2	0
56	470	0	10000	2	1	0	2	0
56	471	0	10000	2	1	0	2	0
55	472	0	10000	2	1	0	2	0
51	473	0	10000	2	1	0	2	0
50	474	0	10000	2	1	0	2	0
50	475	0	10000	2	1	0	2	0
50	476	0	10000	2	1	0	2	0
50	477	0	10000	2	1	0	2	0
49	478	0	10000	2	1	0	2	0
49	479	0	10000	2	1	0	2	0
50	480	0	10000	2	1	0	2	0
51	481	0	10000	2	1	0	2	0
52	482	0	10000	2	1	0	2	0
52	483	0	10000	2	1	0	2	0
50	484	0	10000	2	1	0	2	0
49	485	0	10000	2	1	0	2	0
47	486	0	10000	2	1	0	2	0
50	487	0	10000	2	1	0	2	0
53	488	0	10000	2	1	0	2	0
53	489	0	10000	2	1	0	2	0
56	490	0	10000	2	1	0	2	0
55	491	0	10000	2	1	0	2	0
53	492	0	10000	2	1	0	2	0
51	493	0	10000	2	1	0	2	0
49	494	0	10000	2	1	0	2	0
50	495	0	10000	2	1	0	2	0
51	496	0	10000	2	1	0	2	0
48	497	0	10000	2	1	0	2	0
47	498	0	10000	2	1	0	2	0
46	499	0	10000	2	1	0	2	0
44	500	0	10000	2	1	0	2	0
43	501	0	10000	2	1	0	2	1
43	502	0	10000	2	1	0	2	1
45	503	0	10000	2	1	0	2	1
44	504	0	10000	2	1	0	2	1
44	505	0	10000	2	1	0	2	1
42	506	0	10000	2	1	0	2	1
41	507	0	10000	2	1	0	2	1
39	508	0	10000	2	1	0	2	1
38	509	0	10000	2	1	0	2	1
37	510	0	10000	2	1	0	2	1
37	511	0	10000	2	1	0	2	1
38	512	0	10000	2	1	0	2	1
37	513	0	10000	2	1	0	2	1
38	514	0	10000	2	1	0	2	1
38	515	0	10000	2	1	0	2	1
36	516	0	10000	2	1	0	2	1
35	517	0	10000	2	1	0	2	1
34	518	0	10000	2	1	0	2	1
35	519	0	10000	2	1	0	2	1
35	520	0	10000	2	1	0	2	1
36	521	0	10000	2	1	0	2	1
38	522	0	10000	2	1	0	2	1
42	523	0	10000	2	1	0	2	1
43	524	0	10000	2	1	0	2	1
43	525	0	10000	2	1	0	2	1
45	526	0	10000	2	1	0	2	1
46	527	0	10000	2	1	0	2	1
46	528	0	10000	2	1	0	2	1
46	529	0	10000	2	1	0	2	1
46	530	0	10000	2	1	0	2	1
45	531	0	10000	2	1	0	2	1
43	532	0	10000	2	1	0	2	1
41	533	0	10000	2	1	0	2	1
39	534	0	10000	2	1	0	2	1
38	535	0	10000	2	1	0	2	1
39	536	0	10000	2	1	0	2	1
38	537	0	10000	2	1	0	2	1
38	538	0	10000	2	1	0	2	1
38	539	0	10000	2	1	0	2	1
35	540	0	10000	2	1	0	2	1
35	541	0	10000	2	1	0	2	1
34	542	0	10000	2	1	0	2	1
35	543	0	10000	2	1	0	2	1
33	544	0	10000	2	1	0	2	1
32	545	0	10000	2	1	0	2	1
33	546	0	10000	2	1	0	2	1
34	547	0	10000	2	1	0	2	1
35	548	0	10000	2	1	0	2	1
35	549	0	10000	2	1	0	2	1
40	550	0	10000	2	1	0	2	1
45	551	0	10000	2	1	0	2	0
45	552	0	10000	2	1	0	2	0
42	553	0	10000	2	1	0	2	0
43	554	0	10000	2	1	0	2	0
42	555	0	10000	2	1	0	2	0
42	556	0	10000	2	1	0	2	0
40	557	0	10000	2	1	0	2	0
41	558	0	10000	2	1	0	2	0
40	559	0	10000	2	1	0	2	0
39	560	0	10000	2	1	0	2	0
37	561	0	10000	2	1	0	2	0
36	562	0	10000	2	1	0	2	0
37	563	0	10000	2	1	0	2	0
35	564	0	10000	2	1	0	2	0
34	565	0	10000	2	1	0	2	0
32	566	0	10000	2	1	0	2	0
32	567	0	10000	2	1	0	2	0
32	568	0	10000	2	1	0	2	0
34	569	0	10000	2	1	0	2	0
39	570	0	10000	2	1	0	2	0
39	571	0	10000	2	1	0	2	0
37	572	0	10000	2	1	0	2	0
34	573	0	10000	2	1	0	2	0
33	574	0	10000	2	1	0	2	0
32	575	0	10000	2	1	0	2	0
32	576	0	10000	2	1	0	2	0
31	577	0	10000	2	1	0	2	0
30	578	0	10000	2	1	0	2	0
32	579	0	10000	2	1	0	2	0
41	580	0	10000	2	1	0	2	0
61	581	0	10000	2	1	0	2	0
77	582	0	10000	2	1	0	2	0
79	583	0	10000	2	1	0	2	0
94	584	0	10000	2	1	0	2	0
113	585	0	10000	2	1	0	2	0
117	586	0	10000	2	1	0	2	0
121	587	0	10000	2	1	0	2	0
155	588	0	10000	2	1	0	2	0
217	589	0	10000	2	1	0	2	0
232	590	0	10000	2	1	0	2	0
246	591	0	10000	2	1	0	2	0
285	592	0	10000	2	1	0	2	0
333	593	0	10000	2	1	0	2	0
344	594	0	10000	2	1	0	2	0
427	595	0	10000	2	1	0	2	0
580	596	0	10000	2	1	0	2	0
690	597	0	10000	2	1	0	2	0
702	598	0	10000	2	1	0	2	0
719	599	0	10000	2	1	0	2	0
712	600	0	10000	2	1	0	2	0
717	601	0	10000	2	1	0	2	0
719	602	0	10000	2	1	0	2	0
761	603	0	10000	2	1	0	2	0
788	604	0	10000	2	1	0	2	0
767	605	0	10000	2	1	0	2	0
774	606	0	10000	2	1	0	2	0
773	607	0	10000	2	1	0	2	0
901	608	0	10000	2	1	0	2	0
1007	609	0	10000	2	1	0	2	0
992	610	0	10000	2	1	0	2	0
963	611	0	10000	2	1	0	2	0
946	612	0	10000	2	1	0	2	0
969	613	0	10000	2	1	0	2	0
1007	614	0	10000	2	1	0	2	0
996	615	0	10000	2	1	0	2	0
1064	616	0	10000	2	1	0	2	0
1143	617	0	10000	2	1	0	2	0
1157	618	0	10000	2	1	0	2	0
1206	619	0	10000	2	1	0	2	0
1336	620	0	10000	2	1	0	2	0
1388	621	0	10000	2	1	0	2	0
1344	622	0	10000	2	1	0	2	0
1306	623	0	10000	2	1	0	2	0
1279	624	0	10000	2	1	0	2	0
1251	625	0	10000	2	1	0	2	0
1202	626	0	10000	2	1	0	2	0
1150	627	0	10000	2	1	0	2	0
1128	628	0	10000	2	1	0	2	0
1134	629	0	10000	2	1	0	2	0
1152	630	0	10000	2	1	0	2	0
1161	631	0	10000	2	1	0	2	0
1160	632	0	10000	2	1	0	2	0
1150	633	0	10000	2	1	0	2	0
1139	634	0	10000	2	1	0	2	0
1123	635	0	10000	2	1	0	2	0
1103	636	0	10000	2	1	0	2	0
1082	637	0	10000	2	1	0	2	0
1056	638	0	10000	2	1	0	2	0
1027	639	0	10000	2	1	0	2	0
1000	640	0	10000	2	1	0	2	0
968	641	0	10000	2	1	0	2	0
930	642	0	10000	2	1	0	2	0
894	643	0	10000	2	1	0	2	0
855	644	0	10000	2	1	0	2	0
821	645	0	10000	2	1	0	2	0
790	646	0	10000	2	1	0	2	0
756	647	0	10000	2	1	0	2	0
726	648	0	10000	2	1	0	2	0
702	649	0	10000	2	1	0	2	0
688	650	0	10000	2	1	0	2	0
679	651	0	10000	2	1	0	2	0
677	652	0	10000	2	1	0	2	0
680	653	0	10000	2	1	0	2	0
688	654	0	10000	2	1	0	2	0
694	655	0	10000	2	1	0	2	0
703	656	0	10000	2	1	0	2	0
711	657	0	10000	2	1	0	2	0
722	658	0	10000	2	1	0	2	0
736	659	0	10000	2	1	0	2	0
745	660	0	10000	2	1	0	2	0
755	661	0	10000	2	1	0	2	0
765	662	0	10000	2	1	0	2	0
777	663	0	10000	2	1	0	2	0
790	664	0	10000	2	1	0	2	0
801	665	0	10000	2	1	0	2	0
809	666	0	10000	2	1	0	2	0
815	667	0	10000	2	1	0	2	0
820	668	0	10000	2	1	0	2	0
825	669	0	10000	2	1	0	2	0
832	670	0	10000	2	1	0	2	0
838	671	0	10000	2	1	0	2	0
843	672	0	10000	2	1	0	2	0
846	673	0	10000	2	1	0	2	0
850	674	0	10000	2	1	0	2	0
852	675	0	10000	2	1	0	2	0
846	676	0	10000	2	1	0	2	0
834	677	0	10000	2	1	0	2	0
820	678	0	10000	2	1	0	2	0
804	679	0	10000	2	1	0	2	0
787	680	0	10000	2	1	0	2	0
769	681	0	10000	2	1	0	2	0
753	682	0	10000	2	1	0	2	0
732	683	0	10000	2	1	0	2	0
701	684	0	10000	2	1	0	2	0
669	685	0	10000	2	1	0	2	0
639	686	0	10000	2	1	0	2	0
610	687	0	10000	2	1	0	2	0
583	688	0	10000	2	1	0	2	0
559	689	0	10000	2	1	0	2	0
537	690	0	10000	2	1	0	2	0
515	691	0	10000	2	1	0	2	0
495	692	0	10000	2	1	0	2	0
475	693	0	10000	2	1	0	2	0
458	694	0	10000	2	1	0	2	0
443	695	0	10000	2	1	0	2	0
431	696	0	10000	2	1	0	2	0
419	697	0	10000	2	1	0	2	0
413	698	0	10000	2	1	0	2	0
411	699	0	10000	2	1	0	2	0
408	700	0	10000	2	1	0	2	0
406	701	0	10000	2	1	0	2	0
405	702	0	10000	2	1	0	2	0
407	703	0	10000	2	1	0	2	0
406	704	0	10000	2	1	0	2	0
407	705	0	10000	2	1	0	2	0
408	706	0	10000	2	1	0	2	0
410	707	0	10000	2	1	0	2	0
410	708	0	10000	2	1	0	2	0
410	709	0	10000	2	1	0	2	0
411	710	0	10000	2	1	0	2	0
410	711	0	10000	2	1	0	2	0
407	712	0	10000	2	1	0	2	0
400	713	0	10000	2	1	0	2	0
395	714	0	10000	2	1	0	2	0
391	715	0	10000	2	1	0	2	0
387	716	0	10000	2	1	0	2	0
384	717	0	10000	2	1	0	2	0
384	718	0	10000	2	1	0	2	0
385	719	0	10000	2	1	0	2	0
386	720	0	10000	2	1	0	2	0
385	721	0	10000	2	1	0	2	0
380	722	0	10000	2	1	0	2	0
379	723	0	10000	2	1	0	2	0
379	724	0	10000	2	1	0	2	0
386	725	0	10000	2	1	0	2	0
393	726	0	10000	2	1	0	2	0
395	727	0	10000	2	1	0	2	0
394	728	0	10000	2	1	0	2	0
392	729	0	10000	2	1	0	2	0
388	730	0	10000	2	1	0	2	0
381	731	0	10000	2	1	0	2	0
372	732	0	10000	2	1	0	2	0
359	733	0	10000	2	1	0	2	0
347	734	0	10000	2	1	0	2	0
333	735	0	10000	2	1	0	2	0
318	736	0	10000	2	1	0	2	0
303	737	0	10000	2	1	0	2	0
290	738	0	10000	2	1	0	2	0
280	739	0	10000	2	1	0	2	0
270	740	0	10000	2	1	0	2	0
261	741	0	10000	2	1	0	2	0
256	742	0	10000	2	1	0	2	0
253	743	0	10000	2	1	0	2	0
251	744	0	10000	2	1	0	2	0
246	745	0	10000	2	1	0	2	0
238	746	0	10000	2	1	0	2	0
232	747	0	10000	2	1	0	2	0
226	748	0	10000	2	1	0	2	0
221	749	0	10000	2	1	0	2	0
213	750	0	10000	2	1	0	2	0
204	751	0	10000	2	1	0	2	0
196	752	0	10000	2	1	0	2	0
187	753	0	10000	2	1	0	2	0
180	754	0	10000	2	1	0	2	0
173	755	0	10000	2	1	0	2	0
171	756	0	10000	2	1	0	2	0
167	757	0	10000	2	1	0	2	0
160	758	0	10000	2	1	0	2	0
154	759	0	10000	2	1	0	2	0
148	760	0	10000	2	1	0	2	0
142	761	0	10000	2	1	0	2	0
139	762	0	10000	2	1	0	2	0
140	763	0	10000	2	1	0	2	0
138	764	0	10000	2	1	0	2	0
136	765	0	10000	2	1	0	2	0
133	766	0	10000	2	1	0	2	0
127	767	0	10000	2	1	0	2	0
121	768	0	10000	2	1	0	2	0
116	769	0	10000	2	1	0	2	0
112	770	0	10000	2	1	0	2	0
107	771	0	10000	2	1	0	2	0
105	772	0	10000	2	1	0	2	0
102	773	0	10000	2	1	0	2	0
100	774	0	10000	2	1	0	2	0
97	775	0	10000	2	1	0	2	0
94	776	0	10000	2	1	0	2	0
92	777	0	10000	2	1	0	2	0
92	778	0	10000	2	1	0	2	0
90	779	0	10000	2	1	0	2	0
85	780	0	10000	2	1	0	2	0
82	781	0	10000	2	1	0	2	0
79	782	0	10000	2	1	0	2	0
77	783	0	10000	2	1	0	2	0
75	784	0	10000	2	1	0	2	0
74	785	0	10000	2	1	0	2	0
73	786	0	10000	2	1	0	2	0
73	787	0	10000	2	1	0	2	0
71	788	0	10000	2	1	0	2	0
68	789	0	10000	2	1	0	2	0
67	790	0	10000	2	1	0	2	0
65	791	0	10000	2	1	0	2	0
64	792	0	10000	2	1	0	2	0
61	793	0	10000	2	1	0	2	0
61	794	0	10000	2	1	0	2	0
61	795	0	10000	2	1	0	2	0
61	796	0	10000	2	1	0	2	0
59	797	0	10000	2	1	0	2	0
57	798	0	10000	2	1	0	2	0
57	799	0	10000	2	1	0	2	0
57	800	0	10000	2	1	0	2	0
59	801	0	10000	2	1	0	2	0
60	802	0	10000	2	1	0	2	0
62	803	0	10000	2	1	0	2	0
63	804	0	10000	2	1	0	2	0
61	805	0	10000	2	1	0	2	0
62	806	0	10000	2	1	0	2	0
64	807	0	10000	2	1	0	2	0
66	808	0	10000	2	1	0	2	0
68	809	0	10000	2	1	0	2	0
67	810	0	10000	2	1	0	2	0
67	811	0	10000	2	1	0	2	0
67	812	0	10000	2	1	0	2	0
66	813	0	10000	2	1	0	2	0
65	814	0	10000	2	1	0	2	0
64	815	0	10000	2	1	0	2	0
62	816	0	10000	2	1	0	2	0
60	817	0	10000	2	1	0	2	0
59	818	0	10000	2	1	0	2	0
58	819	0	10000	2	1	0	2	0
55	820	0	10000	2	1	0	2	0
52	821	0	10000	2	1	0	2	0
51	822	0	10000	2	1	0	2	0
53	823	0	10000	2	1	0	2	0
52	824	0	10000	2	1	0	2	0
53	825	0	10000	2	1	0	2	0
51	826	0	10000	2	1	0	2	0
49	827	0	10000	2	1	0	2	0
48	828	0	10000	2	1	0	2	0
46	829	0	10000	2	1	0	2	0
44	830	0	10000	2	1	0	2	0
44	831	0	10000	2	1	0	2	0
44	832	0	10000	2	1	0	2	0
44	833	0	10000	2	1	0	2	0
45	834	0	10000	2	1	0	2	0
45	835	0	10000	2	1	0	2	0
45	836	0	10000	2	1	0	2	0
47	837	0	10000	2	1	0	2	0
52	838	0	10000	2	1	0	2	0
53	839	0	10000	2	1	0	2	0
51	840	0	10000	2	1	0	2	0
52	841	0	10000	2	1	0	2	0
56	842	0	10000	2	1	0	2	0
60	843	0	10000	2	1	0	2	0
59	844	0	10000	2	1	0	2	0
57	845	0	10000	2	1	0	2	0
56	846	0	10000	2	1	0	2	0
54	847	0	10000	2	1	0	2	0
53	848	0	10000	2	1	0	2	0
55	849	0	10000	2	1	0	2	0
56	850	0	10000	2	1	0	2	0
55	851	0	10000	2	1	0	2	0
53	852	0	10000	2	1	0	2	0
50	853	0	10000	2	1	0	2	0
49	854	0	10000	2	1	0	2	0
51	855	0	10000	2	1	0	2	0
54	856	0	10000	2	1	0	2	0
53	857	0	10000	2	1	0	2	0
51	858	0	10000	2	1	0	2	0
49	859	0	10000	2	1	0	2	0
47	860	0	10000	2	1	0	2	0
45	861	0	10000	2	1	0	2	0
45	862	0	10000	2	1	0	2	0
48	863	0	10000	2	1	0	2	0
48	864	0	10000	2	1	0	2	0
51	865	0	10000	2	1	0	2	0
49	866	0	10000	2	1	0	2	0
48	867	0	10000	2	1	0	2	0
49	868	0	10000	2	1	0	2	0
46	869	0	10000	2	1	0	2	0
48	870	0	10000	2	1	0	2	0
50	871	0	10000	2	1	0	2	0
49	872	0	10000	2	1	0	2	0
46	873	0	10000	2	1	0	2	0
46	874	0	10000	2	1	0	2	0
44	875	0	10000	2	1	0	2	0
44	876	0	10000	2	1	0	2	0
44	877	0	10000	2	1	0	2	0
44	878	0	10000	2	1	0	2	0
44	879	0	10000	2	1	0	2	0
47	880	0	10000	2	1	0	2	0
46	881	0	10000	2	1	0	2	0
46	882	0	10000	2	1	0	2	0
48	883	0	10000	2	1	0	2	0
49	884	0	10000	2	1	0	2	0
52	885	0	10000	2	1	0	2	0
52	886	0	10000	2	1	0	2	0
52	887	0	10000	2	1	0	2	0
51	888	0	10000	2	1	0	2	0
49	889	0	10000	2	1	0	2	0
48	890	0	10000	2	1	0	2	0
47	891	0	10000	2	1	0	2	0
44	892	0	10000	2	1	0	2	0
43	893	0	10000	2	1	0	2	0
45	894	0	10000	2	1	0	2	0
45	895	0	10000	2	1	0	2	0
46	896	0	10000	2	1	0	2	0
45	897	0	10000	2	1	0	2	0
44	898	0	10000	2	1	0	2	0
44	899	0	10000	2	1	0	2	0
42	900	0	10000	2	1	0	2	0
39	901	0	10000	2	1	0	2	0
39	902	0	10000	2	1	0	2	0
42	903	0	10000	2	1	0	2	0
39	904	0	10000	2	1	0	2	0
38	905	0	10000	2	1	0	2	0
38	906	0	10000	2	1	0	2	0
39	907	0	10000	2	1	0	2	0
38	908	0	10000	2	1	0	2	0
37	909	0	10000	2	1	0	2	0
39	910	0	10000	2	1	0	2	0
40	911	0	10000	2	1	0	2	0
39	912	0	10000	2	1	0	2	0
37	913	0	10000	2	1	0	2	0
37	914	0	10000	2	1	0	2	0
38	915	0	10000	2	1	0	2	0
37	916	0	10000	2	1	0	2	0
37	917	0	10000	2	1	0	2	0
37	918	0	10000	2	1	0	2	0
37	919	0	10000	2	1	0	2	0
37	920	0	10000	2	1	0	2	0
35	921	0	10000	2	1	0	2	0
35	922	0	10000	2	1	0	2	0
37	923	0	10000	2	1	0	2	0
37	924	0	10000	2	1	0	2	0
35	925	0	10000	2	1	0	2	0
35	926	0	10000	2	1	0	2	0
35	927	0	10000	2	1	0	2	0
33	928	0	10000	2	1	0	2	0
32	929	0	10000	2	1	0	2	0
32	930	0	10000	2	1	0	2	0
32	931	0	10000	2	1	0	2	0
31	932	0	10000	2	1	0	2	0
28	933	0	10000	2	1	0	2	0
28	934	0	10000	2	1	0	2	0
29	935	0	10000	2	1	0	2	0
30	936	0	10000	2	1	0	2	0
32	937	0	10000	2	1	0	2	0
33	938	0	10000	2	1	0	2	0
32	939	0	10000	2	1	0	2	0
31	940	0	10000	2	1	0	2	0
30	941	0	10000	2	1	0	2	0
30	942	0	10000	2	1	0	2	0
30	943	0	10000	2	1	0	2	0
32	944	0	10000	2	1	0	2	0
32	945	0	10000	2	1	0	2	0
31	946	0	10000	2	1	0	2	0
30	947	0	10000	2	1	0	2	0
30	948	0	10000	2	1	0	2	0
29	949	0	10000	2	1	0	2	0
32	950	0	10000	2	1	0	2	0
33	951	0	10000	2	1	0	2	0
33	952	0	10000	2	1	0	2	0
33	953	0	10000	2	1	0	2	0
38	954	0	10000	2	1	0	2	0
38	955	0	10000	2	1	0	2	0
36	956	0	10000	2	1	0	2	0
35	957	0	10000	2	1	0	2	0
34	958	0	10000	2	1	0	2	0
34	959	0	10000	2	1	0	2	0
32	960	0	10000	2	1	0	2	0
31	961	0	10000	2	1	0	2	0
31	962	0	10000	2	1	0	2	0
34	963	0	10000	2	1	0	2	0
33	964	0	10000	2	1	0	2	0
33	965	0	10000	2	1	0	2	0
32	966	0	10000	2	1	0	2	0
32	967	0	10000	2	1	0	2	0
30	968	0	10000	2	1	0	2	0
29	969	0	10000	2	1	0	2	0
30	970	0	10000	2	1	0	2	0
29	971	0	10000	2	1	0	2	0
28	972	0	10000	2	1	0	2	0
25	973	0	10000	2	1	0	2	0
24	974	0	10000	2	1	0	2	0
25	975	0	10000	2	1	0	2	0
26	976	0	10000	2	1	0	2	0
25	977	0	10000	2	1	0	2	0
25	978	0	10000	2	1	0	2	0
25	979	0	10000	2	1	0	2	0
23	980	0	10000	2	1	0	2	0
23	981	0	10000	2	1	0	2	0
22	982	0	10000	2	1	0	2	0
26	983	0	10000	2	1	0	2	0
27	984	0	10000	2	1	0	2	0
29	985	0	10000	2	1	0	2	0
27	986	0	10000	2	1	0	2	0
27	987	0	10000	2	1	0	2	0
27	988	0	10000	2	1	0	2	0
26	989	0	10000	2	1	0	2	0
28	990	0	10000	2	1	0	2	0
31	991	0	10000	2	1	0	2	0
30	992	0	10000	2	1	0	2	0
28	993	0	10000	2	1	0	2	0
30	994	0	10000	2	1	0	2	0
29	995	0	10000	2	1	0	2	0
29	996	0	10000	2	1	0	2	0
31	997	0	10000	2	1	0	2	0
32	998	0	10000	2	1	0	2	0
32	999	0	10000	2	1	0	2	0
31	1000	0	10000	2	1	0	2	0
32	2	1	10000	3	1	0	3	0
33	3	1	10000	3	1	0	3	0
36	4	1	10000	3	1	0	3	0
35	5	1	10000	3	1	0	3	0
36	6	1	10000	3	1	0	3	0
34	7	1	10000	3	1	0	3	0
33	8	1	10000	3	1	0	3	0
32	9	1	10000	3	1	0	3	0
32	10	1	10000	3	1	0	3	0
33	11	1	10000	3	1	0	3	0
32	12	1	10000	3	1	0	3	0
34	13	1	10000	3	1	0	3	0
39	14	1	10000	3	1	0	3	0
42	15	1	10000	3	1	0	3	0
39	16	1	10000	3	1	0	3	0
39	17	1	10000	3	1	0	3	0
37	18	1	10000	3	1	0	3	0
36	19	1	10000	3	1	0	3	0
36	20	1	10000	3	1	0	3	0
38	21	1	10000	3	1	0	3	0
38	21	1	10000	3	1	0	3	0
37	22	1	10000	3	1	0	3	0
36	24	1	10000	3	1	0	3	0
36	25	1	10000	3	1	0	3	0
37	26	1	10000	3	1	0	3	0
35	27	1	10000	3	1	0	3	0
34	28	1	10000	3	1	0	3	0
33	29	1	10000	3	1	0	3	0
32	30	1	10000	3	1	0	3	0
33	31	1	10000	3	1	0	3	0
37	31	1	10000	3	1	0	3	0
42	32	1	10000	3	1	0	3	0
43	34	1	10000	3	1	0	3	0
42	35	1	10000	3	1	0	3	0
40	36	1	10000	3	1	0	3	0
42	37	1	10000	3	1	0	3	0
43	38	1	10000	3	1	0	3	0
43	39	1	10000	3	1	0	3	0
44	40	1	10000	3	1	0	3	0
47	41	1	10000	3	1	0	3	0
50	41	1	10000	3	1	0	3	0
51	42	1	10000	3	1	0	3	0
52	44	1	10000	3	1	0	3	0
54	45	1	10000	3	1	0	3	0
54	46	1	10000	3	1	0	3	0
55	47	1	10000	3	1	0	3	0
56	48	1	10000	3	1	0	3	0
63	49	1	10000	3	1	0	3	0
84	50	1	10000	3	1	0	3	0
100	51	1	10000	3	1	0	3	0
101	51	1	10000	3	1	0	3	0
102	52	1	10000	3	1	0	3	0
102	54	1	10000	3	1	0	3	0
114	55	1	10000	3	1	0	3	0
126	56	1	10000	3	1	0	3	0
125	57	1	10000	3	1	0	3	0
123	58	1	10000	3	1	0	3	0
127	59	1	10000	3	1	0	3	0
138	60	1	10000	3	1	0	3	0
153	61	1	10000	3	1	0	3	0
154	61	1	10000	3	1	0	3	0
158	62	1	10000	3	1	0	3	0
159	64	1	10000	3	1	0	3	0
172	65	1	10000	3	1	0	3	0
192	66	1	10000	3	1	0	3	0
205	67	1	10000	3	1	0	3	0
211	68	1	10000	3	1	0	3	0
207	69	1	10000	3	1	0	3	0
200	70	1	10000	3	1	0	3	0
215	71	1	10000	3	1	0	3	0
241	71	1	10000	3	1	0	3	0
252	72	1	10000	3	1	0	3	0
246	74	1	10000	3	1	0	3	0
249	75	1	10000	3	1	0	3	0
240	76	1	10000	3	1	0	3	0
230	77	1	10000	3	1	0	3	0
227	78	1	10000	3	1	0	3	0
226	79	1	10000	3	1	0	3	0
220	80	1	10000	3	1	0	3	0
212	81	1	10000	3	1	0	3	0
208	81	1	10000	3	1	0	3	0
205	82	1	10000	3	1	0	3	0
211	84	1	10000	3	1	0	3	0
233	85	1	10000	3	1	0	3	0
256	86	1	10000	3	1	0	3	0
255	87	1	10000	3	1	0	3	0
245	88	1	10000	3	1	0	3	0
240	89	1	10000	3	1	0	3	0
238	90	1	10000	3	1	0	3	0
234	91	1	10000	3	1	0	3	0
240	91	1	10000	3	1	0	3	0
235	92	1	10000	3	1	0	3	0
235	94	1	10000	3	1	0	3	0
226	95	1	10000	3	1	0	3	0
219	96	1	10000	3	1	0	3	0
214	97	1	10000	3	1	0	3	0
226	98	1	10000	3	1	0	3	0
248	99	1	10000	3	1	0	3	0
255	100	1	10000	3	1	0	3	0
247	101	1	10000	3	1	0	3	0
239	101	1	10000	3	1	0	3	0
232	102	1	10000	3	1	0	3	0
222	104	1	10000	3	1	0	3	0
217	105	1	10000	3	1	0	3	0
212	106	1	10000	3	1	0	3	0
213	107	1	10000	3	1	0	3	0
219	108	1	10000	3	1	0	3	0
225	109	1	10000	3	1	0	3	0
234	110	1	10000	3	1	0	3	0
241	111	1	10000	3	1	0	3	0
243	111	1	10000	3	1	0	3	0
240	112	1	10000	3	1	0	3	0
237	114	1	10000	3	1	0	3	0
235	115	1	10000	3	1	0	3	0
231	116	1	10000	3	1	0	3	0
229	117	1	10000	3	1	0	3	0
228	118	1	10000	3	1	0	3	0
227	119	1	10000	3	1	0	3	0
228	120	1	10000	3	1	0	3	0
230	121	1	10000	3	1	0	3	0
232	121	1	10000	3	1	0	3	0
234	122	1	10000	3	1	0	3	0
237	124	1	10000	3	1	0	3	0
241	125	1	10000	3	1	0	3	0
247	126	1	10000	3	1	0	3	0
252	127	1	10000	3	1	0	3	0
257	128	1	10000	3	1	0	3	0
261	129	1	10000	3	1	0	3	0
267	130	1	10000	3	1	0	3	0
273	131	1	10000	3	1	0	3	0
273	131	1	10000	3	1	0	3	0
273	132	1	10000	3	1	0	3	0
270	134	1	10000	3	1	0	3	0
266	135	1	10000	3	1	0	3	0
261	136	1	10000	3	1	0	3	0
258	137	1	10000	3	1	0	3	0
253	138	1	10000	3	1	0	3	0
249	139	1	10000	3	1	0	3	0
246	140	1	10000	3	1	0	3	0
244	141	1	10000	3	1	0	3	0
240	141	1	10000	3	1	0	3	0
236	142	1	10000	3	1	0	3	0
228	144	1	10000	3	1	0	3	0
220	145	1	10000	3	1	0	3	0
214	146	1	10000	3	1	0	3	0
205	147	1	10000	3	1	0	3	0
196	148	1	10000	3	1	0	3	0
189	149	1	10000	3	1	0	3	0
179	150	1	10000	3	1	0	3	0
172	151	1	10000	3	1	0	3	0
165	151	1	10000	3	1	0	3	0
161	152	1	10000	3	1	0	3	0
158	154	1	10000	3	1	0	3	0
159	155	1	10000	3	1	0	3	0
157	156	1	10000	3	1	0	3	0
159	157	1	10000	3	1	0	3	0
160	158	1	10000	3	1	0	3	0
160	159	1	10000	3	1	0	3	0
161	160	1	10000	3	1	0	3	0
160	161	1	10000	3	1	0	3	0
160	161	1	10000	3	1	0	3	0
161	162	1	10000	3	1	0	3	0
161	164	1	10000	3	1	0	3	0
163	165	1	10000	3	1	0	3	0
165	166	1	10000	3	1	0	3	0
166	167	1	10000	3	1	0	3	0
167	168	1	10000	3	1	0	3	0
169	169	1	10000	3	1	0	3	0
170	170	1	10000	3	1	0	3	0
170	171	1	10000	3	1	0	3	0
169	171	1	10000	3	1	0	3	0
167	172	1	10000	3	1	0	3	0
167	174	1	10000	3	1	0	3	0
166	175	1	10000	3	1	0	3	0
165	176	1	10000	3	1	0	3	0
165	177	1	10000	3	1	0	3	0
164	178	1	10000	3	1	0	3	0
165	179	1	10000	3	1	0	3	0
164	180	1	10000	3	1	0	3	0
163	181	1	10000	3	1	0	3	0
162	181	1	10000	3	1	0	3	0
158	182	1	10000	3	1	0	3	0
156	184	1	10000	3	1	0	3	0
154	185	1	10000	3	1	0	3	0
154	186	1	10000	3	1	0	3	0
151	187	1	10000	3	1	0	3	0
146	188	1	10000	3	1	0	3	0
143	189	1	10000	3	1	0	3	0
140	190	1	10000	3	1	0	3	0
140	191	1	10000	3	1	0	3	0
139	191	1	10000	3	1	0	3	0
134	192	1	10000	3	1	0	3	0
131	194	1	10000	3	1	0	3	0
130	195	1	10000	3	1	0	3	0
125	196	1	10000	3	1	0	3	0
124	197	1	10000	3	1	0	3	0
121	198	1	10000	3	1	0	3	0
119	199	1	10000	3	1	0	3	0
121	200	1	10000	3	1	0	3	0
121	201	1	10000	3	1	0	3	0
122	201	1	10000	3	1	0	3	0
119	202	1	10000	3	1	0	3	0
116	204	1	10000	3	1	0	3	0
115	205	1	10000	3	1	0	3	0
114	206	1	10000	3	1	0	3	0
111	207	1	10000	3	1	0	3	0
109	208	1	10000	3	1	0	3	0
106	209	1	10000	3	1	0	3	0
105	210	1	10000	3	1	0	3	0
104	211	1	10000	3	1	0	3	0
104	211	1	10000	3	1	0	3	0
102	212	1	10000	3	1	0	3	0
100	214	1	10000	3	1	0	3	0
98	215	1	10000	3	1	0	3	0
95	216	1	10000	3	1	0	3	0
94	217	1	10000	3	1	0	3	0
93	218	1	10000	3	1	0	3	0
91	219	1	10000	3	1	0	3	0
90	220	1	10000	3	1	0	3	0
92	221	1	10000	3	1	0	3	0
93	221	1	10000	3	1	0	3	0
94	222	1	10000	3	1	0	3	0
91	224	1	10000	3	1	0	3	0
90	225	1	10000	3	1	0	3	0
92	226	1	10000	3	1	0	3	0
88	227	1	10000	3	1	0	3	0
85	228	1	10000	3	1	0	3	0
83	229	1	10000	3	1	0	3	0
78	230	1	10000	3	1	0	3	0
77	231	1	10000	3	1	0	3	0
76	231	1	10000	3	1	0	3	0
76	232	1	10000	3	1	0	3	0
73	234	1	10000	3	1	0	3	0
71	235	1	10000	3	1	0	3	0
67	236	1	10000	3	1	0	3	0
64	237	1	10000	3	1	0	3	0
62	238	1	10000	3	1	0	3	0
60	239	1	10000	3	1	0	3	0
56	240	1	10000	3	1	0	3	0
56	241	1	10000	3	1	0	3	0
55	241	1	10000	3	1	0	3	0
53	242	1	10000	3	1	0	3	0
52	244	1	10000	3	1	0	3	0
50	245	1	10000	3	1	0	3	0
50	246	1	10000	3	1	0	3	0
48	247	1	10000	3	1	0	3	0
46	248	1	10000	3	1	0	3	0
44	249	1	10000	3	1	0	3	0
44	250	1	10000	3	1	0	3	0
43	251	1	10000	3	1	0	3	0
42	251	1	10000	3	1	0	3	0
44	252	1	10000	3	1	0	3	0
45	254	1	10000	3	1	0	3	0
44	255	1	10000	3	1	0	3	0
41	256	1	10000	3	1	0	3	0
41	257	1	10000	3	1	0	3	0
40	258	1	10000	3	1	0	3	0
39	259	1	10000	3	1	0	3	0
37	260	1	10000	3	1	0	3	0
37	261	1	10000	3	1	0	3	0
39	261	1	10000	3	1	0	3	0
38	262	1	10000	3	1	0	3	0
39	264	1	10000	3	1	0	3	0
40	265	1	10000	3	1	0	3	0
41	266	1	10000	3	1	0	3	0
39	267	1	10000	3	1	0	3	0
37	268	1	10000	3	1	0	3	0
38	269	1	10000	3	1	0	3	0
38	270	1	10000	3	1	0	3	0
40	271	1	10000	3	1	0	3	0
41	271	1	10000	3	1	0	3	0
40	272	1	10000	3	1	0	3	0
41	274	1	10000	3	1	0	3	0
40	275	1	10000	3	1	0	3	0
39	276	1	10000	3	1	0	3	0
41	277	1	10000	3	1	0	3	0
39	278	1	10000	3	1	0	3	0
39	279	1	10000	3	1	0	3	0
38	280	1	10000	3	1	0	3	0
36	281	1	10000	3	1	0	3	0
35	281	1	10000	3	1	0	3	0
32	282	1	10000	3	1	0	3	0
32	284	1	10000	3	1	0	3	0
33	285	1	10000	3	1	0	3	0
34	286	1	10000	3	1	0	3	0
33	287	1	10000	3	1	0	3	0
33	288	1	10000	3	1	0	3	0
32	289	1	10000	3	1	0	3	0
33	290	1	10000	3	1	0	3	0
33	291	1	10000	3	1	0	3	0
32	291	1	10000	3	1	0	3	0
32	292	1	10000	3	1	0	3	0
32	294	1	10000	3	1	0	3	0
32	295	1	10000	3	1	0	3	0
31	296	1	10000	3	1	0	3	0
31	297	1	10000	3	1	0	3	0
30	298	1	10000	3	1	0	3	0
30	299	1	10000	3	1	0	3	0
31	300	1	10000	3	1	0	3	0
31	301	1	10000	3	1	0	3	0
31	301	1	10000	3	1	0	3	0
30	302	1	10000	3	1	0	3	0
30	304	1	10000	3	1	0	3	0
29	305	1	10000	3	1	0	3	0
31	306	1	10000	3	1	0	3	0
30	307	1	10000	3	1	0	3	0
30	308	1	10000	3	1	0	3	0
29	309	1	10000	3	1	0	3	0
27	310	1	10000	3	1	0	3	0
27	311	1	10000	3	1	0	3	0
27	311	1	10000	3	1	0	3	0
26	312	1	10000	3	1	0	3	0
27	314	1	10000	3	1	0	3	0
29	315	1	10000	3	1	0	3	0
26	316	1	10000	3	1	0	3	0
27	317	1	10000	3	1	0	3	0
27	318	1	10000	3	1	0	3	0
28	319	1	10000	3	1	0	3	0
28	320	1	10000	3	1	0	3	0
29	321	1	10000	3	1	0	3	0
30	321	1	10000	3	1	0	3	0
30	322	1	10000	3	1	0	3	0
29	324	1	10000	3	1	0	3	0
29	325	1	10000	3	1	0	3	0
31	326	1	10000	3	1	0	3	0
30	327	1	10000	3	1	0	3	0
30	328	1	10000	3	1	0	3	0
30	329	1	10000	3	1	0	3	0
30	330	1	10000	3	1	0	3	0
32	331	1	10000	3	1	0	3	0
32	331	1	10000	3	1	0	3	0
32	332	1	10000	3	1	0	3	0
33	334	1	10000	3	1	0	3	0
32	335	1	10000	3	1	0	3	0
29	336	1	10000	3	1	0	3	0
28	337	1	10000	3	1	0	3	0
27	338	1	10000	3	1	0	3	0
28	339	1	10000	3	1	0	3	0
29	340	1	10000	3	1	0	3	0
28	341	1	10000	3	1	0	3	0
29	341	1	10000	3	1	0	3	0
28	342	1	10000	3	1	0	3	0
28	344	1	10000	3	1	0	3	0
27	345	1	10000	3	1	0	3	0
28	346	1	10000	3	1	0	3	0
26	347	1	10000	3	1	0	3	0
25	348	1	10000	3	1	0	3	0
26	349	1	10000	3	1	0	3	0
27	350	1	10000	3	1	0	3	0
28	351	1	10000	3	1	0	3	0
28	351	1	10000	3	1	0	3	0
27	352	1	10000	3	1	0	3	0
27	354	1	10000	3	1	0	3	0
27	355	1	10000	3	1	0	3	0
24	356	1	10000	3	1	0	3	0
23	357	1	10000	3	1	0	3	0
24	358	1	10000	3	1	0	3	0
24	359	1	10000	3	1	0	3	0
25	360	1	10000	3	1	0	3	0
25	361	1	10000	3	1	0	3	0
26	361	1	10000	3	1	0	3	0
25	362	1	10000	3	1	0	3	0
24	364	1	10000	3	1	0	3	0
24	365	1	10000	3	1	0	3	0
24	366	1	10000	3	1	0	3	0
23	367	1	10000	3	1	0	3	0
23	368	1	10000	3	1	0	3	0
23	369	1	10000	3	1	0	3	0
24	370	1	10000	3	1	0	3	0
27	371	1	10000	3	1	0	3	0
27	371	1	10000	3	1	0	3	0
29	372	1	10000	3	1	0	3	0
29	374	1	10000	3	1	0	3	0
27	375	1	10000	3	1	0	3	0
24	376	1	10000	3	1	0	3	0
25	377	1	10000	3	1	0	3	0
23	378	1	10000	3	1	0	3	0
24	379	1	10000	3	1	0	3	0
24	380	1	10000	3	1	0	3	0
26	381	1	10000	3	1	0	3	0
24	381	1	10000	3	1	0	3	0
24	382	1	10000	3	1	0	3	0
23	384	1	10000	3	1	0	3	0
23	385	1	10000	3	1	0	3	0
25	386	1	10000	3	1	0	3	0
23	387	1	10000	3	1	0	3	0
23	388	1	10000	3	1	0	3	0
23	389	1	10000	3	1	0	3	0
22	390	1	10000	3	1	0	3	0
22	391	1	10000	3	1	0	3	0
24	391	1	10000	3	1	0	3	0
24	392	1	10000	3	1	0	3	0
25	394	1	10000	3	1	0	3	0
25	395	1	10000	3	1	0	3	0
22	396	1	10000	3	1	0	3	0
22	397	1	10000	3	1	0	3	0
25	398	1	10000	3	1	0	3	0
28	399	1	10000	3	1	0	3	0
28	400	1	10000	3	1	0	3	0
28	401	1	10000	3	1	0	3	0
29	401	1	10000	3	1	0	3	0
29	402	1	10000	3	1	0	3	0
29	404	1	10000	3	1	0	3	0
29	405	1	10000	3	1	0	3	0
30	406	1	10000	3	1	0	3	0
28	407	1	10000	3	1	0	3	0
29	408	1	10000	3	1	0	3	0
31	409	1	10000	3	1	0	3	0
33	410	1	10000	3	1	0	3	0
33	411	1	10000	3	1	0	3	0
32	411	1	10000	3	1	0	3	0
32	412	1	10000	3	1	0	3	0
32	414	1	10000	3	1	0	3	0
31	415	1	10000	3	1	0	3	0
30	416	1	10000	3	1	0	3	0
32	417	1	10000	3	1	0	3	0
33	418	1	10000	3	1	0	3	0
36	419	1	10000	3	1	0	3	0
39	420	1	10000	3	1	0	3	0
44	421	1	10000	3	1	0	3	0
45	421	1	10000	3	1	0	3	0
45	422	1	10000	3	1	0	3	0
46	424	1	10000	3	1	0	3	0
50	425	1	10000	3	1	0	3	0
56	426	1	10000	3	1	0	3	0
57	427	1	10000	3	1	0	3	0
58	428	1	10000	3	1	0	3	0
59	429	1	10000	3	1	0	3	0
63	430	1	10000	3	1	0	3	0
68	431	1	10000	3	1	0	3	0
75	431	1	10000	3	1	0	3	0
78	432	1	10000	3	1	0	3	0
81	434	1	10000	3	1	0	3	0
85	435	1	10000	3	1	0	3	0
85	436	1	10000	3	1	0	3	0
88	437	1	10000	3	1	0	3	0
91	438	1	10000	3	1	0	3	0
92	439	1	10000	3	1	0	3	0
92	440	1	10000	3	1	0	3	0
94	441	1	10000	3	1	0	3	0
97	441	1	10000	3	1	0	3	0
100	442	1	10000	3	1	0	3	0
102	444	1	10000	3	1	0	3	0
105	445	1	10000	3	1	0	3	0
108	446	1	10000	3	1	0	3	0
104	447	1	10000	3	1	0	3	0
101	448	1	10000	3	1	0	3	0
97	449	1	10000	3	1	0	3	0
93	450	1	10000	3	1	0	3	0
89	451	1	10000	3	1	0	3	0
85	451	1	10000	3	1	0	3	0
84	452	1	10000	3	1	0	3	0
80	454	1	10000	3	1	0	3	0
80	455	1	10000	3	1	0	3	0
78	456	1	10000	3	1	0	3	0
80	457	1	10000	3	1	0	3	0
82	458	1	10000	3	1	0	3	0
85	459	1	10000	3	1	0	3	0
87	460	1	10000	3	1	0	3	0
88	461	1	10000	3	1	0	3	0
89	461	1	10000	3	1	0	3	0
90	462	1	10000	3	1	0	3	0
91	464	1	10000	3	1	0	3	0
94	465	1	10000	3	1	0	3	0
99	466	1	10000	3	1	0	3	0
99	467	1	10000	3	1	0	3	0
103	468	1	10000	3	1	0	3	0
107	469	1	10000	3	1	0	3	0
112	470	1	10000	3	1	0	3	0
116	471	1	10000	3	1	0	3	0
120	471	1	10000	3	1	0	3	0
121	472	1	10000	3	1	0	3	0
121	474	1	10000	3	1	0	3	0
122	475	1	10000	3	1	0	3	0
122	476	1	10000	3	1	0	3	0
124	477	1	10000	3	1	0	3	0
125	478	1	10000	3	1	0	3	0
125	479	1	10000	3	1	0	3	0
125	480	1	10000	3	1	0	3	0
126	481	1	10000	3	1	0	3	0
127	481	1	10000	3	1	0	3	0
125	482	1	10000	3	1	0	3	0
124	484	1	10000	3	1	0	3	0
123	485	1	10000	3	1	0	3	0
126	486	1	10000	3	1	0	3	0
128	487	1	10000	3	1	0	3	0
127	488	1	10000	3	1	0	3	0
127	489	1	10000	3	1	0	3	0
124	490	1	10000	3	1	0	3	0
123	491	1	10000	3	1	0	3	0
122	491	1	10000	3	1	0	3	0
121	492	1	10000	3	1	0	3	0
120	494	1	10000	3	1	0	3	0
116	495	1	10000	3	1	0	3	0
110	496	1	10000	3	1	0	3	0
107	497	1	10000	3	1	0	3	0
106	498	1	10000	3	1	0	3	0
105	499	1	10000	3	1	0	3	0
103	500	1	10000	3	1	0	3	0
101	501	1	10000	3	1	0	3	0
99	502	1	10000	3	1	0	3	1
95	503	1	10000	3	1	0	3	1
91	504	1	10000	3	1	0	3	1
88	505	1	10000	3	1	0	3	1
87	506	1	10000	3	1	0	3	1
84	507	1	10000	3	1	0	3	1
81	508	1	10000	3	1	0	3	1
79	509	1	10000	3	1	0	3	1
75	510	1	10000	3	1	0	3	1
73	511	1	10000	3	1	0	3	1
72	511	1	10000	3	1	0	3	1
69	512	1	10000	3	1	0	3	1
67	514	1	10000	3	1	0	3	1
65	515	1	10000	3	1	0	3	1
60	516	1	10000	3	1	0	3	1
60	517	1	10000	3	1	0	3	1
59	518	1	10000	3	1	0	3	1
58	519	1	10000	3	1	0	3	1
56	520	1	10000	3	1	0	3	1
54	521	1	10000	3	1	0	3	1
53	521	1	10000	3	1	0	3	1
51	522	1	10000	3	1	0	3	1
48	524	1	10000	3	1	0	3	1
47	525	1	10000	3	1	0	3	1
49	526	1	10000	3	1	0	3	1
47	527	1	10000	3	1	0	3	1
46	528	1	10000	3	1	0	3	1
47	529	1	10000	3	1	0	3	1
45	530	1	10000	3	1	0	3	1
44	531	1	10000	3	1	0	3	1
42	531	1	10000	3	1	0	3	1
41	532	1	10000	3	1	0	3	1
40	534	1	10000	3	1	0	3	1
39	535	1	10000	3	1	0	3	1
37	536	1	10000	3	1	0	3	1
38	537	1	10000	3	1	0	3	1
38	538	1	10000	3	1	0	3	1
39	539	1	10000	3	1	0	3	1
39	540	1	10000	3	1	0	3	1
38	541	1	10000	3	1	0	3	1
38	541	1	10000	3	1	0	3	1
35	542	1	10000	3	1	0	3	1
34	544	1	10000	3	1	0	3	1
34	545	1	10000	3	1	0	3	1
38	546	1	10000	3	1	0	3	1
38	547	1	10000	3	1	0	3	1
40	548	1	10000	3	1	0	3	1
39	549	1	10000	3	1	0	3	1
38	550	1	10000	3	1	0	3	1
36	551	1	10000	3	1	0	3	1
35	551	1	10000	3	1	0	3	0
35	552	1	10000	3	1	0	3	0
34	554	1	10000	3	1	0	3	0
34	555	1	10000	3	1	0	3	0
31	556	1	10000	3	1	0	3	0
32	557	1	10000	3	1	0	3	0
33	558	1	10000	3	1	0	3	0
35	559	1	10000	3	1	0	3	0
33	560	1	10000	3	1	0	3	0
32	561	1	10000	3	1	0	3	0
31	561	1	10000	3	1	0	3	0
30	562	1	10000	3	1	0	3	0
29	564	1	10000	3	1	0	3	0
29	565	1	10000	3	1	0	3	0
29	566	1	10000	3	1	0	3	0
28	567	1	10000	3	1	0	3	0
27	568	1	10000	3	1	0	3	0
28	569	1	10000	3	1	0	3	0
28	570	1	10000	3	1	0	3	0
29	571	1	10000	3	1	0	3	0
29	571	1	10000	3	1	0	3	0
30	572	1	10000	3	1	0	3	0
30	574	1	10000	3	1	0	3	0
29	575	1	10000	3	1	0	3	0
27	576	1	10000	3	1	0	3	0
30	577	1	10000	3	1	0	3	0
32	578	1	10000	3	1	0	3	0
37	579	1	10000	3	1	0	3	0
38	580	1	10000	3	1	0	3	0
45	581	1	10000	3	1	0	3	0
51	581	1	10000	3	1	0	3	0
78	582	1	10000	3	1	0	3	0
104	584	1	10000	3	1	0	3	0
134	585	1	10000	3	1	0	3	0
142	586	1	10000	3	1	0	3	0
145	587	1	10000	3	1	0	3	0
143	588	1	10000	3	1	0	3	0
146	589	1	10000	3	1	0	3	0
171	590	1	10000	3	1	0	3	0
244	591	1	10000	3	1	0	3	0
267	591	1	10000	3	1	0	3	0
280	592	1	10000	3	1	0	3	0
283	594	1	10000	3	1	0	3	0
291	595	1	10000	3	1	0	3	0
327	596	1	10000	3	1	0	3	0
430	597	1	10000	3	1	0	3	0
460	598	1	10000	3	1	0	3	0
446	599	1	10000	3	1	0	3	0
479	600	1	10000	3	1	0	3	0
537	601	1	10000	3	1	0	3	0
548	601	1	10000	3	1	0	3	0
575	602	1	10000	3	1	0	3	0
573	604	1	10000	3	1	0	3	0
592	605	1	10000	3	1	0	3	0
682	606	1	10000	3	1	0	3	0
759	607	1	10000	3	1	0	3	0
829	608	1	10000	3	1	0	3	0
876	609	1	10000	3	1	0	3	0
877	610	1	10000	3	1	0	3	0
880	611	1	10000	3	1	0	3	0
911	611	1	10000	3	1	0	3	0
895	612	1	10000	3	1	0	3	0
871	614	1	10000	3	1	0	3	0
854	615	1	10000	3	1	0	3	0
836	616	1	10000	3	1	0	3	0
877	617	1	10000	3	1	0	3	0
911	618	1	10000	3	1	0	3	0
889	619	1	10000	3	1	0	3	0
891	620	1	10000	3	1	0	3	0
874	621	1	10000	3	1	0	3	0
839	621	1	10000	3	1	0	3	0
803	622	1	10000	3	1	0	3	0
775	624	1	10000	3	1	0	3	0
756	625	1	10000	3	1	0	3	0
747	626	1	10000	3	1	0	3	0
739	627	1	10000	3	1	0	3	0
738	628	1	10000	3	1	0	3	0
738	629	1	10000	3	1	0	3	0
736	630	1	10000	3	1	0	3	0
732	631	1	10000	3	1	0	3	0
721	631	1	10000	3	1	0	3	0
708	632	1	10000	3	1	0	3	0
692	634	1	10000	3	1	0	3	0
674	635	1	10000	3	1	0	3	0
652	636	1	10000	3	1	0	3	0
631	637	1	10000	3	1	0	3	0
608	638	1	10000	3	1	0	3	0
585	639	1	10000	3	1	0	3	0
559	640	1	10000	3	1	0	3	0
533	641	1	10000	3	1	0	3	0
514	641	1	10000	3	1	0	3	0
495	642	1	10000	3	1	0	3	0
478	644	1	10000	3	1	0	3	0
464	645	1	10000	3	1	0	3	0
454	646	1	10000	3	1	0	3	0
446	647	1	10000	3	1	0	3	0
444	648	1	10000	3	1	0	3	0
446	649	1	10000	3	1	0	3	0
452	650	1	10000	3	1	0	3	0
460	651	1	10000	3	1	0	3	0
470	651	1	10000	3	1	0	3	0
482	652	1	10000	3	1	0	3	0
491	654	1	10000	3	1	0	3	0
500	655	1	10000	3	1	0	3	0
508	656	1	10000	3	1	0	3	0
518	657	1	10000	3	1	0	3	0
532	658	1	10000	3	1	0	3	0
546	659	1	10000	3	1	0	3	0
559	660	1	10000	3	1	0	3	0
569	661	1	10000	3	1	0	3	0
574	661	1	10000	3	1	0	3	0
577	662	1	10000	3	1	0	3	0
576	664	1	10000	3	1	0	3	0
574	665	1	10000	3	1	0	3	0
575	666	1	10000	3	1	0	3	0
573	667	1	10000	3	1	0	3	0
572	668	1	10000	3	1	0	3	0
575	669	1	10000	3	1	0	3	0
576	670	1	10000	3	1	0	3	0
577	671	1	10000	3	1	0	3	0
576	671	1	10000	3	1	0	3	0
574	672	1	10000	3	1	0	3	0
572	674	1	10000	3	1	0	3	0
566	675	1	10000	3	1	0	3	0
555	676	1	10000	3	1	0	3	0
546	677	1	10000	3	1	0	3	0
535	678	1	10000	3	1	0	3	0
524	679	1	10000	3	1	0	3	0
512	680	1	10000	3	1	0	3	0
496	681	1	10000	3	1	0	3	0
478	681	1	10000	3	1	0	3	0
458	682	1	10000	3	1	0	3	0
439	684	1	10000	3	1	0	3	0
421	685	1	10000	3	1	0	3	0
404	686	1	10000	3	1	0	3	0
385	687	1	10000	3	1	0	3	0
367	688	1	10000	3	1	0	3	0
349	689	1	10000	3	1	0	3	0
333	690	1	10000	3	1	0	3	0
320	691	1	10000	3	1	0	3	0
308	691	1	10000	3	1	0	3	0
299	692	1	10000	3	1	0	3	0
289	694	1	10000	3	1	0	3	0
277	695	1	10000	3	1	0	3	0
263	696	1	10000	3	1	0	3	0
254	697	1	10000	3	1	0	3	0
246	698	1	10000	3	1	0	3	0
240	699	1	10000	3	1	0	3	0
237	700	1	10000	3	1	0	3	0
235	701	1	10000	3	1	0	3	0
237	701	1	10000	3	1	0	3	0
239	702	1	10000	3	1	0	3	0
241	704	1	10000	3	1	0	3	0
241	705	1	10000	3	1	0	3	0
244	706	1	10000	3	1	0	3	0
242	707	1	10000	3	1	0	3	0
241	708	1	10000	3	1	0	3	0
241	709	1	10000	3	1	0	3	0
238	710	1	10000	3	1	0	3	0
235	711	1	10000	3	1	0	3	0
233	711	1	10000	3	1	0	3	0
231	712	1	10000	3	1	0	3	0
229	714	1	10000	3	1	0	3	0
226	715	1	10000	3	1	0	3	0
216	716	1	10000	3	1	0	3	0
211	717	1	10000	3	1	0	3	0
208	718	1	10000	3	1	0	3	0
206	719	1	10000	3	1	0	3	0
205	720	1	10000	3	1	0	3	0
205	721	1	10000	3	1	0	3	0
209	721	1	10000	3	1	0	3	0
213	722	1	10000	3	1	0	3	0
218	724	1	10000	3	1	0	3	0
223	725	1	10000	3	1	0	3	0
226	726	1	10000	3	1	0	3	0
226	727	1	10000	3	1	0	3	0
227	728	1	10000	3	1	0	3	0
225	729	1	10000	3	1	0	3	0
224	730	1	10000	3	1	0	3	0
220	731	1	10000	3	1	0	3	0
214	731	1	10000	3	1	0	3	0
211	732	1	10000	3	1	0	3	0
207	734	1	10000	3	1	0	3	0
202	735	1	10000	3	1	0	3	0
196	736	1	10000	3	1	0	3	0
193	737	1	10000	3	1	0	3	0
189	738	1	10000	3	1	0	3	0
185	739	1	10000	3	1	0	3	0
182	740	1	10000	3	1	0	3	0
181	741	1	10000	3	1	0	3	0
180	741	1	10000	3	1	0	3	0
178	742	1	10000	3	1	0	3	0
177	744	1	10000	3	1	0	3	0
179	745	1	10000	3	1	0	3	0
185	746	1	10000	3	1	0	3	0
185	747	1	10000	3	1	0	3	0
183	748	1	10000	3	1	0	3	0
180	749	1	10000	3	1	0	3	0
176	750	1	10000	3	1	0	3	0
171	751	1	10000	3	1	0	3	0
164	751	1	10000	3	1	0	3	0
157	752	1	10000	3	1	0	3	0
150	754	1	10000	3	1	0	3	0
145	755	1	10000	3	1	0	3	0
137	756	1	10000	3	1	0	3	0
133	757	1	10000	3	1	0	3	0
127	758	1	10000	3	1	0	3	0
122	759	1	10000	3	1	0	3	0
119	760	1	10000	3	1	0	3	0
116	761	1	10000	3	1	0	3	0
116	761	1	10000	3	1	0	3	0
114	762	1	10000	3	1	0	3	0
114	764	1	10000	3	1	0	3	0
115	765	1	10000	3	1	0	3	0
117	766	1	10000	3	1	0	3	0
117	767	1	10000	3	1	0	3	0
116	768	1	10000	3	1	0	3	0
112	769	1	10000	3	1	0	3	0
109	770	1	10000	3	1	0	3	0
105	771	1	10000	3	1	0	3	0
100	771	1	10000	3	1	0	3	0
97	772	1	10000	3	1	0	3	0
94	774	1	10000	3	1	0	3	0
91	775	1	10000	3	1	0	3	0
84	776	1	10000	3	1	0	3	0
81	777	1	10000	3	1	0	3	0
79	778	1	10000	3	1	0	3	0
76	779	1	10000	3	1	0	3	0
75	780	1	10000	3	1	0	3	0
75	781	1	10000	3	1	0	3	0
76	781	1	10000	3	1	0	3	0
76	782	1	10000	3	1	0	3	0
73	784	1	10000	3	1	0	3	0
71	785	1	10000	3	1	0	3	0
74	786	1	10000	3	1	0	3	0
75	787	1	10000	3	1	0	3	0
76	788	1	10000	3	1	0	3	0
75	789	1	10000	3	1	0	3	0
72	790	1	10000	3	1	0	3	0
69	791	1	10000	3	1	0	3	0
67	791	1	10000	3	1	0	3	0
65	792	1	10000	3	1	0	3	0
65	794	1	10000	3	1	0	3	0
65	795	1	10000	3	1	0	3	0
63	796	1	10000	3	1	0	3	0
62	797	1	10000	3	1	0	3	0
61	798	1	10000	3	1	0	3	0
59	799	1	10000	3	1	0	3	0
56	800	1	10000	3	1	0	3	0
56	801	1	10000	3	1	0	3	0
56	801	1	10000	3	1	0	3	0
54	802	1	10000	3	1	0	3	0
55	804	1	10000	3	1	0	3	0
56	805	1	10000	3	1	0	3	0
58	806	1	10000	3	1	0	3	0
59	807	1	10000	3	1	0	3	0
61	808	1	10000	3	1	0	3	0
62	809	1	10000	3	1	0	3	0
62	810	1	10000	3	1	0	3	0
61	811	1	10000	3	1	0	3	0
61	811	1	10000	3	1	0	3	0
64	812	1	10000	3	1	0	3	0
65	814	1	10000	3	1	0	3	0
66	815	1	10000	3	1	0	3	0
64	816	1	10000	3	1	0	3	0
63	817	1	10000	3	1	0	3	0
61	818	1	10000	3	1	0	3	0
60	819	1	10000	3	1	0	3	0
59	820	1	10000	3	1	0	3	0
56	821	1	10000	3	1	0	3	0
55	821	1	10000	3	1	0	3	0
53	822	1	10000	3	1	0	3	0
51	824	1	10000	3	1	0	3	0
50	825	1	10000	3	1	0	3	0
52	826	1	10000	3	1	0	3	0
49	827	1	10000	3	1	0	3	0
50	828	1	10000	3	1	0	3	0
53	829	1	10000	3	1	0	3	0
55	830	1	10000	3	1	0	3	0
54	831	1	10000	3	1	0	3	0
53	831	1	10000	3	1	0	3	0
54	832	1	10000	3	1	0	3	0
55	834	1	10000	3	1	0	3	0
57	835	1	10000	3	1	0	3	0
56	836	1	10000	3	1	0	3	0
55	837	1	10000	3	1	0	3	0
54	838	1	10000	3	1	0	3	0
53	839	1	10000	3	1	0	3	0
53	840	1	10000	3	1	0	3	0
53	841	1	10000	3	1	0	3	0
55	841	1	10000	3	1	0	3	0
53	842	1	10000	3	1	0	3	0
52	844	1	10000	3	1	0	3	0
51	845	1	10000	3	1	0	3	0
53	846	1	10000	3	1	0	3	0
54	847	1	10000	3	1	0	3	0
52	848	1	10000	3	1	0	3	0
50	849	1	10000	3	1	0	3	0
49	850	1	10000	3	1	0	3	0
47	851	1	10000	3	1	0	3	0
45	851	1	10000	3	1	0	3	0
45	852	1	10000	3	1	0	3	0
45	854	1	10000	3	1	0	3	0
44	855	1	10000	3	1	0	3	0
42	856	1	10000	3	1	0	3	0
43	857	1	10000	3	1	0	3	0
42	858	1	10000	3	1	0	3	0
44	859	1	10000	3	1	0	3	0
45	860	1	10000	3	1	0	3	0
43	861	1	10000	3	1	0	3	0
43	861	1	10000	3	1	0	3	0
44	862	1	10000	3	1	0	3	0
43	864	1	10000	3	1	0	3	0
41	865	1	10000	3	1	0	3	0
44	866	1	10000	3	1	0	3	0
42	867	1	10000	3	1	0	3	0
41	868	1	10000	3	1	0	3	0
41	869	1	10000	3	1	0	3	0
40	870	1	10000	3	1	0	3	0
38	871	1	10000	3	1	0	3	0
38	871	1	10000	3	1	0	3	0
37	872	1	10000	3	1	0	3	0
37	874	1	10000	3	1	0	3	0
38	875	1	10000	3	1	0	3	0
37	876	1	10000	3	1	0	3	0
38	877	1	10000	3	1	0	3	0
39	878	1	10000	3	1	0	3	0
39	879	1	10000	3	1	0	3	0
39	880	1	10000	3	1	0	3	0
38	881	1	10000	3	1	0	3	0
40	881	1	10000	3	1	0	3	0
41	882	1	10000	3	1	0	3	0
43	884	1	10000	3	1	0	3	0
43	885	1	10000	3	1	0	3	0
43	886	1	10000	3	1	0	3	0
43	887	1	10000	3	1	0	3	0
42	888	1	10000	3	1	0	3	0
42	889	1	10000	3	1	0	3	0
41	890	1	10000	3	1	0	3	0
41	891	1	10000	3	1	0	3	0
40	891	1	10000	3	1	0	3	0
40	892	1	10000	3	1	0	3	0
40	894	1	10000	3	1	0	3	0
40	895	1	10000	3	1	0	3	0
38	896	1	10000	3	1	0	3	0
41	897	1	10000	3	1	0	3	0
41	898	1	10000	3	1	0	3	0
44	899	1	10000	3	1	0	3	0
47	900	1	10000	3	1	0	3	0
49	901	1	10000	3	1	0	3	0
52	901	1	10000	3	1	0	3	0
51	902	1	10000	3	1	0	3	0
49	904	1	10000	3	1	0	3	0
51	905	1	10000	3	1	0	3	0
54	906	1	10000	3	1	0	3	0
51	907	1	10000	3	1	0	3	0
49	908	1	10000	3	1	0	3	0
47	909	1	10000	3	1	0	3	0
47	910	1	10000	3	1	0	3	0
50	911	1	10000	3	1	0	3	0
57	911	1	10000	3	1	0	3	0
65	912	1	10000	3	1	0	3	0
71	914	1	10000	3	1	0	3	0
75	915	1	10000	3	1	0	3	0
76	916	1	10000	3	1	0	3	0
77	917	1	10000	3	1	0	3	0
80	918	1	10000	3	1	0	3	0
83	919	1	10000	3	1	0	3	0
84	920	1	10000	3	1	0	3	0
84	921	1	10000	3	1	0	3	0
85	921	1	10000	3	1	0	3	0
84	922	1	10000	3	1	0	3	0
81	924	1	10000	3	1	0	3	0
78	925	1	10000	3	1	0	3	0
78	926	1	10000	3	1	0	3	0
75	927	1	10000	3	1	0	3	0
73	928	1	10000	3	1	0	3	0
72	929	1	10000	3	1	0	3	0
71	930	1	10000	3	1	0	3	0
69	931	1	10000	3	1	0	3	0
67	931	1	10000	3	1	0	3	0
64	932	1	10000	3	1	0	3	0
62	934	1	10000	3	1	0	3	0
60	935	1	10000	3	1	0	3	0
57	936	1	10000	3	1	0	3	0
56	937	1	10000	3	1	0	3	0
55	938	1	10000	3	1	0	3	0
53	939	1	10000	3	1	0	3	0
51	940	1	10000	3	1	0	3	0
51	941	1	10000	3	1	0	3	0
52	941	1	10000	3	1	0	3	0
55	942	1	10000	3	1	0	3	0
57	944	1	10000	3	1	0	3	0
59	945	1	10000	3	1	0	3	0
66	946	1	10000	3	1	0	3	0
68	947	1	10000	3	1	0	3	0
69	948	1	10000	3	1	0	3	0
71	949	1	10000	3	1	0	3	0
71	950	1	10000	3	1	0	3	0
70	951	1	10000	3	1	0	3	0
69	951	1	10000	3	1	0	3	0
68	952	1	10000	3	1	0	3	0
66	954	1	10000	3	1	0	3	0
63	955	1	10000	3	1	0	3	0
59	956	1	10000	3	1	0	3	0
57	957	1	10000	3	1	0	3	0
57	958	1	10000	3	1	0	3	0
60	959	1	10000	3	1	0	3	0
59	960	1	10000	3	1	0	3	0
60	961	1	10000	3	1	0	3	0
61	961	1	10000	3	1	0	3	0
61	962	1	10000	3	1	0	3	0
61	964	1	10000	3	1	0	3	0
60	965	1	10000	3	1	0	3	0
61	966	1	10000	3	1	0	3	0
60	967	1	10000	3	1	0	3	0
60	968	1	10000	3	1	0	3	0
61	969	1	10000	3	1	0	3	0
61	970	1	10000	3	1	0	3	0
58	971	1	10000	3	1	0	3	0
56	971	1	10000	3	1	0	3	0
55	972	1	10000	3	1	0	3	0
53	974	1	10000	3	1	0	3	0
51	975	1	10000	3	1	0	3	0
47	976	1	10000	3	1	0	3	0
47	977	1	10000	3	1	0	3	0
46	978	1	10000	3	1	0	3	0
47	979	1	10000	3	1	0	3	0
47	980	1	10000	3	1	0	3	0
44	981	1	10000	3	1	0	3	0
43	981	1	10000	3	1	0	3	0
41	982	1	10000	3	1	0	3	0
39	984	1	10000	3	1	0	3	0
40	985	1	10000	3	1	0	3	0
43	986	1	10000	3	1	0	3	0
44	987	1	10000	3	1	0	3	0
46	988	1	10000	3	1	0	3	0
45	989	1	10000	3	1	0	3	0
45	990	1	10000	3	1	0	3	0
44	991	1	10000	3	1	0	3	0
42	991	1	10000	3	1	0	3	0
42	992	1	10000	3	1	0	3	0
40	994	1	10000	3	1	0	3	0
40	995	1	10000	3	1	0	3	0
37	996	1	10000	3	1	0	3	0
36	997	1	10000	3	1	0	3	0
36	998	1	10000	3	1	0	3	0
38	999	1	10000	3	1	0	3	0
40	1000	1	10000	3	1	0	3	0
39	1001	1	10000	3	1	0	3	0
46	1	10	10000	4	1	0	4	0
46	2	10	10000	4	1	0	4	0
46	3	10	10000	4	1	0	4	0
45	4	10	10000	4	1	0	4	0
43	5	10	10000	4	1	0	4	0
41	6	10	10000	4	1	0	4	0
41	7	10	10000	4	1	0	4	0
39	8	10	10000	4	1	0	4	0
36	9	10	10000	4	1	0	4	0
37	10	10	10000	4	1	0	4	0
36	11	10	10000	4	1	0	4	0
35	12	10	10000	4	1	0	4	0
32	13	10	10000	4	1	0	4	0
32	14	10	10000	4	1	0	4	0
30	15	10	10000	4	1	0	4	0
29	16	10	10000	4	1	0	4	0
29	17	10	10000	4	1	0	4	0
27	18	10	10000	4	1	0	4	0
27	19	10	10000	4	1	0	4	0
27	20	10	10000	4	1	0	4	0
27	21	10	10000	4	1	0	4	0
26	22	10	10000	4	1	0	4	0
27	23	10	10000	4	1	0	4	0
26	24	10	10000	4	1	0	4	0
27	25	10	10000	4	1	0	4	0
26	26	10	10000	4	1	0	4	0
26	27	10	10000	4	1	0	4	0
27	28	10	10000	4	1	0	4	0
27	29	10	10000	4	1	0	4	0
26	30	10	10000	4	1	0	4	0
25	31	10	10000	4	1	0	4	0
26	32	10	10000	4	1	0	4	0
28	33	10	10000	4	1	0	4	0
29	34	10	10000	4	1	0	4	0
31	35	10	10000	4	1	0	4	0
32	36	10	10000	4	1	0	4	0
33	37	10	10000	4	1	0	4	0
32	38	10	10000	4	1	0	4	0
31	39	10	10000	4	1	0	4	0
29	40	10	10000	4	1	0	4	0
29	41	10	10000	4	1	0	4	0
27	42	10	10000	4	1	0	4	0
29	43	10	10000	4	1	0	4	0
31	44	10	10000	4	1	0	4	0
29	45	10	10000	4	1	0	4	0
28	46	10	10000	4	1	0	4	0
27	47	10	10000	4	1	0	4	0
26	48	10	10000	4	1	0	4	0
25	49	10	10000	4	1	0	4	0
25	50	10	10000	4	1	0	4	0
25	51	10	10000	4	1	0	4	0
24	52	10	10000	4	1	0	4	0
22	53	10	10000	4	1	0	4	0
20	54	10	10000	4	1	0	4	0
21	55	10	10000	4	1	0	4	0
23	56	10	10000	4	1	0	4	0
23	57	10	10000	4	1	0	4	0
23	58	10	10000	4	1	0	4	0
22	59	10	10000	4	1	0	4	0
23	60	10	10000	4	1	0	4	0
22	61	10	10000	4	1	0	4	0
23	62	10	10000	4	1	0	4	0
27	63	10	10000	4	1	0	4	0
27	64	10	10000	4	1	0	4	0
26	65	10	10000	4	1	0	4	0
26	66	10	10000	4	1	0	4	0
28	67	10	10000	4	1	0	4	0
29	68	10	10000	4	1	0	4	0
29	69	10	10000	4	1	0	4	0
29	70	10	10000	4	1	0	4	0
30	71	10	10000	4	1	0	4	0
30	72	10	10000	4	1	0	4	0
27	73	10	10000	4	1	0	4	0
27	74	10	10000	4	1	0	4	0
26	75	10	10000	4	1	0	4	0
25	76	10	10000	4	1	0	4	0
24	77	10	10000	4	1	0	4	0
25	78	10	10000	4	1	0	4	0
25	79	10	10000	4	1	0	4	0
25	80	10	10000	4	1	0	4	0
25	81	10	10000	4	1	0	4	0
26	82	10	10000	4	1	0	4	0
29	83	10	10000	4	1	0	4	0
31	84	10	10000	4	1	0	4	0
29	85	10	10000	4	1	0	4	0
29	86	10	10000	4	1	0	4	0
31	87	10	10000	4	1	0	4	0
32	88	10	10000	4	1	0	4	0
33	89	10	10000	4	1	0	4	0
33	90	10	10000	4	1	0	4	0
33	91	10	10000	4	1	0	4	0
34	92	10	10000	4	1	0	4	0
35	93	10	10000	4	1	0	4	0
41	94	10	10000	4	1	0	4	0
43	95	10	10000	4	1	0	4	0
43	96	10	10000	4	1	0	4	0
46	97	10	10000	4	1	0	4	0
49	98	10	10000	4	1	0	4	0
48	99	10	10000	4	1	0	4	0
46	100	10	10000	4	1	0	4	0
44	101	10	10000	4	1	0	4	0
42	102	10	10000	4	1	0	4	0
44	103	10	10000	4	1	0	4	0
43	104	10	10000	4	1	0	4	0
41	105	10	10000	4	1	0	4	0
40	106	10	10000	4	1	0	4	0
40	107	10	10000	4	1	0	4	0
38	108	10	10000	4	1	0	4	0
37	109	10	10000	4	1	0	4	0
36	110	10	10000	4	1	0	4	0
34	111	10	10000	4	1	0	4	0
34	112	10	10000	4	1	0	4	0
32	113	10	10000	4	1	0	4	0
31	114	10	10000	4	1	0	4	0
32	115	10	10000	4	1	0	4	0
32	116	10	10000	4	1	0	4	0
32	117	10	10000	4	1	0	4	0
33	118	10	10000	4	1	0	4	0
33	119	10	10000	4	1	0	4	0
32	120	10	10000	4	1	0	4	0
32	121	10	10000	4	1	0	4	0
31	122	10	10000	4	1	0	4	0
35	123	10	10000	4	1	0	4	0
36	124	10	10000	4	1	0	4	0
36	125	10	10000	4	1	0	4	0
36	126	10	10000	4	1	0	4	0
36	127	10	10000	4	1	0	4	0
36	128	10	10000	4	1	0	4	0
35	129	10	10000	4	1	0	4	0
34	130	10	10000	4	1	0	4	0
34	131	10	10000	4	1	0	4	0
35	132	10	10000	4	1	0	4	0
33	133	10	10000	4	1	0	4	0
32	134	10	10000	4	1	0	4	0
32	135	10	10000	4	1	0	4	0
31	136	10	10000	4	1	0	4	0
31	137	10	10000	4	1	0	4	0
30	138	10	10000	4	1	0	4	0
29	139	10	10000	4	1	0	4	0
29	140	10	10000	4	1	0	4	0
28	141	10	10000	4	1	0	4	0
28	142	10	10000	4	1	0	4	0
29	143	10	10000	4	1	0	4	0
29	144	10	10000	4	1	0	4	0
30	145	10	10000	4	1	0	4	0
30	146	10	10000	4	1	0	4	0
29	147	10	10000	4	1	0	4	0
29	148	10	10000	4	1	0	4	0
29	149	10	10000	4	1	0	4	0
29	150	10	10000	4	1	0	4	0
29	151	10	10000	4	1	0	4	0
30	152	10	10000	4	1	0	4	0
27	153	10	10000	4	1	0	4	0
26	154	10	10000	4	1	0	4	0
26	155	10	10000	4	1	0	4	0
26	156	10	10000	4	1	0	4	0
26	157	10	10000	4	1	0	4	0
26	158	10	10000	4	1	0	4	0
26	159	10	10000	4	1	0	4	0
26	160	10	10000	4	1	0	4	0
25	161	10	10000	4	1	0	4	0
24	162	10	10000	4	1	0	4	0
25	163	10	10000	4	1	0	4	0
24	164	10	10000	4	1	0	4	0
23	165	10	10000	4	1	0	4	0
23	166	10	10000	4	1	0	4	0
22	167	10	10000	4	1	0	4	0
21	168	10	10000	4	1	0	4	0
21	169	10	10000	4	1	0	4	0
22	170	10	10000	4	1	0	4	0
22	171	10	10000	4	1	0	4	0
23	172	10	10000	4	1	0	4	0
21	173	10	10000	4	1	0	4	0
21	174	10	10000	4	1	0	4	0
20	175	10	10000	4	1	0	4	0
20	176	10	10000	4	1	0	4	0
22	177	10	10000	4	1	0	4	0
23	178	10	10000	4	1	0	4	0
22	179	10	10000	4	1	0	4	0
21	180	10	10000	4	1	0	4	0
21	181	10	10000	4	1	0	4	0
21	182	10	10000	4	1	0	4	0
23	183	10	10000	4	1	0	4	0
22	184	10	10000	4	1	0	4	0
21	185	10	10000	4	1	0	4	0
21	186	10	10000	4	1	0	4	0
21	187	10	10000	4	1	0	4	0
21	188	10	10000	4	1	0	4	0
20	189	10	10000	4	1	0	4	0
20	190	10	10000	4	1	0	4	0
23	191	10	10000	4	1	0	4	0
27	192	10	10000	4	1	0	4	0
25	193	10	10000	4	1	0	4	0
27	194	10	10000	4	1	0	4	0
30	195	10	10000	4	1	0	4	0
30	196	10	10000	4	1	0	4	0
31	197	10	10000	4	1	0	4	0
33	198	10	10000	4	1	0	4	0
33	199	10	10000	4	1	0	4	0
31	200	10	10000	4	1	0	4	0
31	201	10	10000	4	1	0	4	0
30	202	10	10000	4	1	0	4	0
31	203	10	10000	4	1	0	4	0
31	204	10	10000	4	1	0	4	0
32	205	10	10000	4	1	0	4	0
30	206	10	10000	4	1	0	4	0
30	207	10	10000	4	1	0	4	0
29	208	10	10000	4	1	0	4	0
28	209	10	10000	4	1	0	4	0
28	210	10	10000	4	1	0	4	0
27	211	10	10000	4	1	0	4	0
29	212	10	10000	4	1	0	4	0
28	213	10	10000	4	1	0	4	0
27	214	10	10000	4	1	0	4	0
26	215	10	10000	4	1	0	4	0
26	216	10	10000	4	1	0	4	0
27	217	10	10000	4	1	0	4	0
26	218	10	10000	4	1	0	4	0
26	219	10	10000	4	1	0	4	0
25	220	10	10000	4	1	0	4	0
24	221	10	10000	4	1	0	4	0
25	222	10	10000	4	1	0	4	0
29	223	10	10000	4	1	0	4	0
32	224	10	10000	4	1	0	4	0
32	225	10	10000	4	1	0	4	0
31	226	10	10000	4	1	0	4	0
30	227	10	10000	4	1	0	4	0
31	228	10	10000	4	1	0	4	0
32	229	10	10000	4	1	0	4	0
31	230	10	10000	4	1	0	4	0
32	231	10	10000	4	1	0	4	0
32	232	10	10000	4	1	0	4	0
29	233	10	10000	4	1	0	4	0
29	234	10	10000	4	1	0	4	0
29	235	10	10000	4	1	0	4	0
28	236	10	10000	4	1	0	4	0
28	237	10	10000	4	1	0	4	0
30	238	10	10000	4	1	0	4	0
29	239	10	10000	4	1	0	4	0
28	240	10	10000	4	1	0	4	0
26	241	10	10000	4	1	0	4	0
24	242	10	10000	4	1	0	4	0
26	243	10	10000	4	1	0	4	0
26	244	10	10000	4	1	0	4	0
25	245	10	10000	4	1	0	4	0
26	246	10	10000	4	1	0	4	0
26	247	10	10000	4	1	0	4	0
26	248	10	10000	4	1	0	4	0
26	249	10	10000	4	1	0	4	0
28	250	10	10000	4	1	0	4	0
28	251	10	10000	4	1	0	4	0
28	252	10	10000	4	1	0	4	0
25	253	10	10000	4	1	0	4	0
26	254	10	10000	4	1	0	4	0
27	255	10	10000	4	1	0	4	0
28	256	10	10000	4	1	0	4	0
27	257	10	10000	4	1	0	4	0
26	258	10	10000	4	1	0	4	0
29	259	10	10000	4	1	0	4	0
28	260	10	10000	4	1	0	4	0
28	261	10	10000	4	1	0	4	0
28	262	10	10000	4	1	0	4	0
31	263	10	10000	4	1	0	4	0
31	264	10	10000	4	1	0	4	0
30	265	10	10000	4	1	0	4	0
31	266	10	10000	4	1	0	4	0
30	267	10	10000	4	1	0	4	0
29	268	10	10000	4	1	0	4	0
30	269	10	10000	4	1	0	4	0
30	270	10	10000	4	1	0	4	0
29	271	10	10000	4	1	0	4	0
29	272	10	10000	4	1	0	4	0
27	273	10	10000	4	1	0	4	0
26	274	10	10000	4	1	0	4	0
27	275	10	10000	4	1	0	4	0
26	276	10	10000	4	1	0	4	0
26	277	10	10000	4	1	0	4	0
26	278	10	10000	4	1	0	4	0
25	279	10	10000	4	1	0	4	0
23	280	10	10000	4	1	0	4	0
23	281	10	10000	4	1	0	4	0
23	282	10	10000	4	1	0	4	0
24	283	10	10000	4	1	0	4	0
24	284	10	10000	4	1	0	4	0
24	285	10	10000	4	1	0	4	0
25	286	10	10000	4	1	0	4	0
25	287	10	10000	4	1	0	4	0
24	288	10	10000	4	1	0	4	0
25	289	10	10000	4	1	0	4	0
26	290	10	10000	4	1	0	4	0
27	291	10	10000	4	1	0	4	0
28	292	10	10000	4	1	0	4	0
27	293	10	10000	4	1	0	4	0
28	294	10	10000	4	1	0	4	0
33	295	10	10000	4	1	0	4	0
36	296	10	10000	4	1	0	4	0
36	297	10	10000	4	1	0	4	0
38	298	10	10000	4	1	0	4	0
39	299	10	10000	4	1	0	4	0
38	300	10	10000	4	1	0	4	0
36	301	10	10000	4	1	0	4	0
35	302	10	10000	4	1	0	4	0
36	303	10	10000	4	1	0	4	0
34	304	10	10000	4	1	0	4	0
34	305	10	10000	4	1	0	4	0
33	306	10	10000	4	1	0	4	0
32	307	10	10000	4	1	0	4	0
32	308	10	10000	4	1	0	4	0
33	309	10	10000	4	1	0	4	0
33	310	10	10000	4	1	0	4	0
34	311	10	10000	4	1	0	4	0
34	312	10	10000	4	1	0	4	0
32	313	10	10000	4	1	0	4	0
31	314	10	10000	4	1	0	4	0
31	315	10	10000	4	1	0	4	0
29	316	10	10000	4	1	0	4	0
29	317	10	10000	4	1	0	4	0
31	318	10	10000	4	1	0	4	0
32	319	10	10000	4	1	0	4	0
31	320	10	10000	4	1	0	4	0
29	321	10	10000	4	1	0	4	0
28	322	10	10000	4	1	0	4	0
30	323	10	10000	4	1	0	4	0
29	324	10	10000	4	1	0	4	0
29	325	10	10000	4	1	0	4	0
29	326	10	10000	4	1	0	4	0
28	327	10	10000	4	1	0	4	0
28	328	10	10000	4	1	0	4	0
27	329	10	10000	4	1	0	4	0
28	330	10	10000	4	1	0	4	0
29	331	10	10000	4	1	0	4	0
31	332	10	10000	4	1	0	4	0
29	333	10	10000	4	1	0	4	0
30	334	10	10000	4	1	0	4	0
31	335	10	10000	4	1	0	4	0
31	336	10	10000	4	1	0	4	0
32	337	10	10000	4	1	0	4	0
33	338	10	10000	4	1	0	4	0
32	339	10	10000	4	1	0	4	0
31	340	10	10000	4	1	0	4	0
31	341	10	10000	4	1	0	4	0
29	342	10	10000	4	1	0	4	0
31	343	10	10000	4	1	0	4	0
32	344	10	10000	4	1	0	4	0
31	345	10	10000	4	1	0	4	0
30	346	10	10000	4	1	0	4	0
28	347	10	10000	4	1	0	4	0
28	348	10	10000	4	1	0	4	0
27	349	10	10000	4	1	0	4	0
28	350	10	10000	4	1	0	4	0
29	351	10	10000	4	1	0	4	0
29	352	10	10000	4	1	0	4	0
28	353	10	10000	4	1	0	4	0
27	354	10	10000	4	1	0	4	0
27	355	10	10000	4	1	0	4	0
27	356	10	10000	4	1	0	4	0
26	357	10	10000	4	1	0	4	0
25	358	10	10000	4	1	0	4	0
26	359	10	10000	4	1	0	4	0
25	360	10	10000	4	1	0	4	0
25	361	10	10000	4	1	0	4	0
24	362	10	10000	4	1	0	4	0
26	363	10	10000	4	1	0	4	0
30	364	10	10000	4	1	0	4	0
32	365	10	10000	4	1	0	4	0
30	366	10	10000	4	1	0	4	0
32	367	10	10000	4	1	0	4	0
35	368	10	10000	4	1	0	4	0
36	369	10	10000	4	1	0	4	0
35	370	10	10000	4	1	0	4	0
34	371	10	10000	4	1	0	4	0
33	372	10	10000	4	1	0	4	0
30	373	10	10000	4	1	0	4	0
29	374	10	10000	4	1	0	4	0
30	375	10	10000	4	1	0	4	0
29	376	10	10000	4	1	0	4	0
28	377	10	10000	4	1	0	4	0
27	378	10	10000	4	1	0	4	0
28	379	10	10000	4	1	0	4	0
28	380	10	10000	4	1	0	4	0
27	381	10	10000	4	1	0	4	0
26	382	10	10000	4	1	0	4	0
27	383	10	10000	4	1	0	4	0
26	384	10	10000	4	1	0	4	0
26	385	10	10000	4	1	0	4	0
26	386	10	10000	4	1	0	4	0
25	387	10	10000	4	1	0	4	0
25	388	10	10000	4	1	0	4	0
25	389	10	10000	4	1	0	4	0
25	390	10	10000	4	1	0	4	0
25	391	10	10000	4	1	0	4	0
25	392	10	10000	4	1	0	4	0
24	393	10	10000	4	1	0	4	0
25	394	10	10000	4	1	0	4	0
27	395	10	10000	4	1	0	4	0
27	396	10	10000	4	1	0	4	0
28	397	10	10000	4	1	0	4	0
27	398	10	10000	4	1	0	4	0
27	399	10	10000	4	1	0	4	0
25	400	10	10000	4	1	0	4	0
24	401	10	10000	4	1	0	4	0
25	402	10	10000	4	1	0	4	0
27	403	10	10000	4	1	0	4	0
26	404	10	10000	4	1	0	4	0
27	405	10	10000	4	1	0	4	0
26	406	10	10000	4	1	0	4	0
26	407	10	10000	4	1	0	4	0
25	408	10	10000	4	1	0	4	0
24	409	10	10000	4	1	0	4	0
24	410	10	10000	4	1	0	4	0
25	411	10	10000	4	1	0	4	0
25	412	10	10000	4	1	0	4	0
23	413	10	10000	4	1	0	4	0
22	414	10	10000	4	1	0	4	0
23	415	10	10000	4	1	0	4	0
22	416	10	10000	4	1	0	4	0
22	417	10	10000	4	1	0	4	0
21	418	10	10000	4	1	0	4	0
21	419	10	10000	4	1	0	4	0
22	420	10	10000	4	1	0	4	0
22	421	10	10000	4	1	0	4	0
21	422	10	10000	4	1	0	4	0
25	423	10	10000	4	1	0	4	0
25	424	10	10000	4	1	0	4	0
24	425	10	10000	4	1	0	4	0
24	426	10	10000	4	1	0	4	0
22	427	10	10000	4	1	0	4	0
23	428	10	10000	4	1	0	4	0
25	429	10	10000	4	1	0	4	0
25	430	10	10000	4	1	0	4	0
25	431	10	10000	4	1	0	4	0
26	432	10	10000	4	1	0	4	0
25	433	10	10000	4	1	0	4	0
24	434	10	10000	4	1	0	4	0
23	435	10	10000	4	1	0	4	0
24	436	10	10000	4	1	0	4	0
23	437	10	10000	4	1	0	4	0
23	438	10	10000	4	1	0	4	0
24	439	10	10000	4	1	0	4	0
23	440	10	10000	4	1	0	4	0
22	441	10	10000	4	1	0	4	0
23	442	10	10000	4	1	0	4	0
24	443	10	10000	4	1	0	4	0
24	444	10	10000	4	1	0	4	0
23	445	10	10000	4	1	0	4	0
22	446	10	10000	4	1	0	4	0
24	447	10	10000	4	1	0	4	0
25	448	10	10000	4	1	0	4	0
24	449	10	10000	4	1	0	4	0
24	450	10	10000	4	1	0	4	0
23	451	10	10000	4	1	0	4	0
26	452	10	10000	4	1	0	4	0
25	453	10	10000	4	1	0	4	0
25	454	10	10000	4	1	0	4	0
25	455	10	10000	4	1	0	4	0
26	456	10	10000	4	1	0	4	0
28	457	10	10000	4	1	0	4	0
27	458	10	10000	4	1	0	4	0
26	459	10	10000	4	1	0	4	0
25	460	10	10000	4	1	0	4	0
25	461	10	10000	4	1	0	4	0
24	462	10	10000	4	1	0	4	0
26	463	10	10000	4	1	0	4	0
26	464	10	10000	4	1	0	4	0
28	465	10	10000	4	1	0	4	0
30	466	10	10000	4	1	0	4	0
29	467	10	10000	4	1	0	4	0
32	468	10	10000	4	1	0	4	0
33	469	10	10000	4	1	0	4	0
32	470	10	10000	4	1	0	4	0
31	471	10	10000	4	1	0	4	0
31	472	10	10000	4	1	0	4	0
29	473	10	10000	4	1	0	4	0
29	474	10	10000	4	1	0	4	0
29	475	10	10000	4	1	0	4	0
29	476	10	10000	4	1	0	4	0
31	477	10	10000	4	1	0	4	0
32	478	10	10000	4	1	0	4	0
31	479	10	10000	4	1	0	4	0
29	480	10	10000	4	1	0	4	0
29	481	10	10000	4	1	0	4	0
29	482	10	10000	4	1	0	4	0
32	493	10	10000	4	1	0	4	0
32	494	10	10000	4	1	0	4	0
32	495	10	10000	4	1	0	4	0
31	496	10	10000	4	1	0	4	0
30	497	10	10000	4	1	0	4	0
30	498	10	10000	4	1	0	4	0
30	499	10	10000	4	1	0	4	0
29	500	10	10000	4	1	0	4	0
29	501	10	10000	4	1	0	4	0
29	502	10	10000	4	1	0	4	0
27	503	10	10000	4	1	0	4	0
28	504	10	10000	4	1	0	4	0
28	501	10	10000	4	1	0	4	0
28	502	10	10000	4	1	0	4	0
31	503	10	10000	4	1	0	4	0
34	504	10	10000	4	1	0	4	0
34	505	10	10000	4	1	0	4	0
36	506	10	10000	4	1	0	4	0
37	507	10	10000	4	1	0	4	0
35	508	10	10000	4	1	0	4	0
37	512	10	10000	4	1	0	4	1
35	513	10	10000	4	1	0	4	1
34	514	10	10000	4	1	0	4	1
33	515	10	10000	4	1	0	4	1
32	516	10	10000	4	1	0	4	1
32	517	10	10000	4	1	0	4	1
31	518	10	10000	4	1	0	4	1
31	519	10	10000	4	1	0	4	1
30	520	10	10000	4	1	0	4	1
30	521	10	10000	4	1	0	4	1
27	522	10	10000	4	1	0	4	1
26	523	10	10000	4	1	0	4	1
25	518	10	10000	4	1	0	4	1
25	519	10	10000	4	1	0	4	1
25	520	10	10000	4	1	0	4	1
25	521	10	10000	4	1	0	4	1
25	522	10	10000	4	1	0	4	1
26	523	10	10000	4	1	0	4	1
25	524	10	10000	4	1	0	4	1
23	525	10	10000	4	1	0	4	1
24	526	10	10000	4	1	0	4	1
25	527	10	10000	4	1	0	4	1
24	529	10	10000	4	1	0	4	1
24	530	10	10000	4	1	0	4	1
24	531	10	10000	4	1	0	4	1
24	532	10	10000	4	1	0	4	1
23	533	10	10000	4	1	0	4	1
23	534	10	10000	4	1	0	4	1
22	533	10	10000	4	1	0	4	1
22	534	10	10000	4	1	0	4	1
20	535	10	10000	4	1	0	4	1
20	536	10	10000	4	1	0	4	1
20	539	10	10000	4	1	0	4	1
20	540	10	10000	4	1	0	4	1
21	541	10	10000	4	1	0	4	1
21	542	10	10000	4	1	0	4	1
22	543	10	10000	4	1	0	4	1
22	544	10	10000	4	1	0	4	1
21	545	10	10000	4	1	0	4	1
20	546	10	10000	4	1	0	4	1
25	547	10	10000	4	1	0	4	1
26	548	10	10000	4	1	0	4	1
25	549	10	10000	4	1	0	4	1
27	550	10	10000	4	1	0	4	1
27	550	10	10000	4	1	0	4	1
28	551	10	10000	4	1	0	4	1
27	552	10	10000	4	1	0	4	1
27	553	10	10000	4	1	0	4	1
26	556	10	10000	4	1	0	4	0
26	557	10	10000	4	1	0	4	0
24	558	10	10000	4	1	0	4	0
24	559	10	10000	4	1	0	4	0
24	560	10	10000	4	1	0	4	0
25	561	10	10000	4	1	0	4	0
26	562	10	10000	4	1	0	4	0
26	563	10	10000	4	1	0	4	0
27	561	10	10000	4	1	0	4	0
25	562	10	10000	4	1	0	4	0
24	563	10	10000	4	1	0	4	0
23	564	10	10000	4	1	0	4	0
26	568	10	10000	4	1	0	4	0
27	569	10	10000	4	1	0	4	0
29	570	10	10000	4	1	0	4	0
28	571	10	10000	4	1	0	4	0
27	572	10	10000	4	1	0	4	0
27	573	10	10000	4	1	0	4	0
26	574	10	10000	4	1	0	4	0
26	575	10	10000	4	1	0	4	0
28	573	10	10000	4	1	0	4	0
30	574	10	10000	4	1	0	4	0
30	575	10	10000	4	1	0	4	0
32	576	10	10000	4	1	0	4	0
35	578	10	10000	4	1	0	4	0
38	579	10	10000	4	1	0	4	0
39	580	10	10000	4	1	0	4	0
46	581	10	10000	4	1	0	4	0
72	582	10	10000	4	1	0	4	0
98	583	10	10000	4	1	0	4	0
105	585	10	10000	4	1	0	4	0
137	586	10	10000	4	1	0	4	0
145	587	10	10000	4	1	0	4	0
178	588	10	10000	4	1	0	4	0
200	589	10	10000	4	1	0	4	0
216	590	10	10000	4	1	0	4	0
240	587	10	10000	4	1	0	4	0
235	588	10	10000	4	1	0	4	0
240	589	10	10000	4	1	0	4	0
308	590	10	10000	4	1	0	4	0
452	591	10	10000	4	1	0	4	0
508	592	10	10000	4	1	0	4	0
522	593	10	10000	4	1	0	4	0
585	594	10	10000	4	1	0	4	0
595	595	10	10000	4	1	0	4	0
672	596	10	10000	4	1	0	4	0
689	597	10	10000	4	1	0	4	0
717	598	10	10000	4	1	0	4	0
698	599	10	10000	4	1	0	4	0
696	600	10	10000	4	1	0	4	0
857	601	10	10000	4	1	0	4	0
1014	602	10	10000	4	1	0	4	0
1022	603	10	10000	4	1	0	4	0
1178	604	10	10000	4	1	0	4	0
1320	605	10	10000	4	1	0	4	0
1304	606	10	10000	4	1	0	4	0
1341	607	10	10000	4	1	0	4	0
1447	608	10	10000	4	1	0	4	0
1476	609	10	10000	4	1	0	4	0
1507	610	10	10000	4	1	0	4	0
1624	611	10	10000	4	1	0	4	0
1616	612	10	10000	4	1	0	4	0
1671	613	10	10000	4	1	0	4	0
1762	614	10	10000	4	1	0	4	0
1779	615	10	10000	4	1	0	4	0
1714	616	10	10000	4	1	0	4	0
1665	617	10	10000	4	1	0	4	0
1598	618	10	10000	4	1	0	4	0
1575	619	10	10000	4	1	0	4	0
1548	620	10	10000	4	1	0	4	0
1485	621	10	10000	4	1	0	4	0
1451	622	10	10000	4	1	0	4	0
1448	623	10	10000	4	1	0	4	0
1446	624	10	10000	4	1	0	4	0
1439	625	10	10000	4	1	0	4	0
1438	626	10	10000	4	1	0	4	0
1432	627	10	10000	4	1	0	4	0
1414	628	10	10000	4	1	0	4	0
1389	629	10	10000	4	1	0	4	0
1361	630	10	10000	4	1	0	4	0
1333	631	10	10000	4	1	0	4	0
1305	632	10	10000	4	1	0	4	0
1278	633	10	10000	4	1	0	4	0
1253	634	10	10000	4	1	0	4	0
1226	635	10	10000	4	1	0	4	0
1199	636	10	10000	4	1	0	4	0
1168	637	10	10000	4	1	0	4	0
1130	638	10	10000	4	1	0	4	0
1086	639	10	10000	4	1	0	4	0
1041	640	10	10000	4	1	0	4	0
998	641	10	10000	4	1	0	4	0
961	642	10	10000	4	1	0	4	0
922	643	10	10000	4	1	0	4	0
882	644	10	10000	4	1	0	4	0
852	645	10	10000	4	1	0	4	0
821	646	10	10000	4	1	0	4	0
798	647	10	10000	4	1	0	4	0
776	648	10	10000	4	1	0	4	0
774	649	10	10000	4	1	0	4	0
810	650	10	10000	4	1	0	4	0
846	651	10	10000	4	1	0	4	0
865	652	10	10000	4	1	0	4	0
874	653	10	10000	4	1	0	4	0
885	654	10	10000	4	1	0	4	0
887	655	10	10000	4	1	0	4	0
884	656	10	10000	4	1	0	4	0
878	657	10	10000	4	1	0	4	0
878	658	10	10000	4	1	0	4	0
879	659	10	10000	4	1	0	4	0
884	660	10	10000	4	1	0	4	0
891	661	10	10000	4	1	0	4	0
899	662	10	10000	4	1	0	4	0
908	663	10	10000	4	1	0	4	0
915	664	10	10000	4	1	0	4	0
922	665	10	10000	4	1	0	4	0
929	666	10	10000	4	1	0	4	0
936	667	10	10000	4	1	0	4	0
941	668	10	10000	4	1	0	4	0
942	669	10	10000	4	1	0	4	0
939	670	10	10000	4	1	0	4	0
935	671	10	10000	4	1	0	4	0
927	672	10	10000	4	1	0	4	0
913	673	10	10000	4	1	0	4	0
899	674	10	10000	4	1	0	4	0
882	675	10	10000	4	1	0	4	0
865	676	10	10000	4	1	0	4	0
849	677	10	10000	4	1	0	4	0
831	678	10	10000	4	1	0	4	0
813	679	10	10000	4	1	0	4	0
792	680	10	10000	4	1	0	4	0
772	681	10	10000	4	1	0	4	0
752	682	10	10000	4	1	0	4	0
735	683	10	10000	4	1	0	4	0
717	684	10	10000	4	1	0	4	0
699	685	10	10000	4	1	0	4	0
683	686	10	10000	4	1	0	4	0
666	687	10	10000	4	1	0	4	0
644	688	10	10000	4	1	0	4	0
618	689	10	10000	4	1	0	4	0
591	690	10	10000	4	1	0	4	0
564	691	10	10000	4	1	0	4	0
538	692	10	10000	4	1	0	4	0
512	693	10	10000	4	1	0	4	0
491	694	10	10000	4	1	0	4	0
474	695	10	10000	4	1	0	4	0
461	696	10	10000	4	1	0	4	0
450	697	10	10000	4	1	0	4	0
439	698	10	10000	4	1	0	4	0
431	699	10	10000	4	1	0	4	0
422	700	10	10000	4	1	0	4	0
416	701	10	10000	4	1	0	4	0
405	702	10	10000	4	1	0	4	0
397	703	10	10000	4	1	0	4	0
388	704	10	10000	4	1	0	4	0
378	705	10	10000	4	1	0	4	0
367	706	10	10000	4	1	0	4	0
357	707	10	10000	4	1	0	4	0
350	708	10	10000	4	1	0	4	0
346	709	10	10000	4	1	0	4	0
345	710	10	10000	4	1	0	4	0
344	711	10	10000	4	1	0	4	0
346	712	10	10000	4	1	0	4	0
347	713	10	10000	4	1	0	4	0
351	714	10	10000	4	1	0	4	0
353	715	10	10000	4	1	0	4	0
357	716	10	10000	4	1	0	4	0
361	717	10	10000	4	1	0	4	0
368	718	10	10000	4	1	0	4	0
372	719	10	10000	4	1	0	4	0
371	720	10	10000	4	1	0	4	0
369	721	10	10000	4	1	0	4	0
369	722	10	10000	4	1	0	4	0
369	723	10	10000	4	1	0	4	0
362	724	10	10000	4	1	0	4	0
355	725	10	10000	4	1	0	4	0
347	726	10	10000	4	1	0	4	0
341	727	10	10000	4	1	0	4	0
336	728	10	10000	4	1	0	4	0
328	729	10	10000	4	1	0	4	0
320	730	10	10000	4	1	0	4	0
313	731	10	10000	4	1	0	4	0
308	732	10	10000	4	1	0	4	0
305	733	10	10000	4	1	0	4	0
309	734	10	10000	4	1	0	4	0
318	735	10	10000	4	1	0	4	0
319	736	10	10000	4	1	0	4	0
310	737	10	10000	4	1	0	4	0
303	738	10	10000	4	1	0	4	0
300	739	10	10000	4	1	0	4	0
297	740	10	10000	4	1	0	4	0
290	741	10	10000	4	1	0	4	0
281	742	10	10000	4	1	0	4	0
273	743	10	10000	4	1	0	4	0
263	744	10	10000	4	1	0	4	0
252	745	10	10000	4	1	0	4	0
241	746	10	10000	4	1	0	4	0
232	747	10	10000	4	1	0	4	0
224	748	10	10000	4	1	0	4	0
214	749	10	10000	4	1	0	4	0
209	750	10	10000	4	1	0	4	0
206	751	10	10000	4	1	0	4	0
204	752	10	10000	4	1	0	4	0
199	753	10	10000	4	1	0	4	0
197	754	10	10000	4	1	0	4	0
196	755	10	10000	4	1	0	4	0
196	756	10	10000	4	1	0	4	0
193	757	10	10000	4	1	0	4	0
191	758	10	10000	4	1	0	4	0
189	759	10	10000	4	1	0	4	0
188	760	10	10000	4	1	0	4	0
187	761	10	10000	4	1	0	4	0
185	762	10	10000	4	1	0	4	0
180	763	10	10000	4	1	0	4	0
176	764	10	10000	4	1	0	4	0
173	765	10	10000	4	1	0	4	0
165	766	10	10000	4	1	0	4	0
158	767	10	10000	4	1	0	4	0
153	768	10	10000	4	1	0	4	0
147	769	10	10000	4	1	0	4	0
143	770	10	10000	4	1	0	4	0
138	771	10	10000	4	1	0	4	0
132	772	10	10000	4	1	0	4	0
126	773	10	10000	4	1	0	4	0
121	774	10	10000	4	1	0	4	0
118	775	10	10000	4	1	0	4	0
117	776	10	10000	4	1	0	4	0
116	777	10	10000	4	1	0	4	0
117	778	10	10000	4	1	0	4	0
115	779	10	10000	4	1	0	4	0
111	780	10	10000	4	1	0	4	0
108	781	10	10000	4	1	0	4	0
105	782	10	10000	4	1	0	4	0
103	783	10	10000	4	1	0	4	0
100	784	10	10000	4	1	0	4	0
96	785	10	10000	4	1	0	4	0
93	786	10	10000	4	1	0	4	0
95	787	10	10000	4	1	0	4	0
94	788	10	10000	4	1	0	4	0
92	789	10	10000	4	1	0	4	0
92	790	10	10000	4	1	0	4	0
92	791	10	10000	4	1	0	4	0
92	792	10	10000	4	1	0	4	0
90	793	10	10000	4	1	0	4	0
87	794	10	10000	4	1	0	4	0
86	795	10	10000	4	1	0	4	0
89	796	10	10000	4	1	0	4	0
92	797	10	10000	4	1	0	4	0
93	798	10	10000	4	1	0	4	0
97	799	10	10000	4	1	0	4	0
98	800	10	10000	4	1	0	4	0
94	801	10	10000	4	1	0	4	0
92	802	10	10000	4	1	0	4	0
92	803	10	10000	4	1	0	4	0
90	804	10	10000	4	1	0	4	0
89	805	10	10000	4	1	0	4	0
88	806	10	10000	4	1	0	4	0
92	807	10	10000	4	1	0	4	0
93	808	10	10000	4	1	0	4	0
90	809	10	10000	4	1	0	4	0
86	810	10	10000	4	1	0	4	0
83	811	10	10000	4	1	0	4	0
80	812	10	10000	4	1	0	4	0
77	813	10	10000	4	1	0	4	0
75	814	10	10000	4	1	0	4	0
72	815	10	10000	4	1	0	4	0
71	816	10	10000	4	1	0	4	0
73	817	10	10000	4	1	0	4	0
73	818	10	10000	4	1	0	4	0
71	819	10	10000	4	1	0	4	0
69	820	10	10000	4	1	0	4	0
68	821	10	10000	4	1	0	4	0
69	822	10	10000	4	1	0	4	0
71	823	10	10000	4	1	0	4	0
70	824	10	10000	4	1	0	4	0
69	825	10	10000	4	1	0	4	0
68	826	10	10000	4	1	0	4	0
69	827	10	10000	4	1	0	4	0
69	828	10	10000	4	1	0	4	0
69	829	10	10000	4	1	0	4	0
67	830	10	10000	4	1	0	4	0
66	831	10	10000	4	1	0	4	0
65	832	10	10000	4	1	0	4	0
63	833	10	10000	4	1	0	4	0
61	834	10	10000	4	1	0	4	0
59	835	10	10000	4	1	0	4	0
60	836	10	10000	4	1	0	4	0
60	837	10	10000	4	1	0	4	0
63	838	10	10000	4	1	0	4	0
70	839	10	10000	4	1	0	4	0
74	840	10	10000	4	1	0	4	0
77	841	10	10000	4	1	0	4	0
76	842	10	10000	4	1	0	4	0
75	843	10	10000	4	1	0	4	0
75	844	10	10000	4	1	0	4	0
75	845	10	10000	4	1	0	4	0
72	846	10	10000	4	1	0	4	0
71	847	10	10000	4	1	0	4	0
70	848	10	10000	4	1	0	4	0
67	849	10	10000	4	1	0	4	0
67	850	10	10000	4	1	0	4	0
67	851	10	10000	4	1	0	4	0
70	852	10	10000	4	1	0	4	0
74	853	10	10000	4	1	0	4	0
78	854	10	10000	4	1	0	4	0
80	855	10	10000	4	1	0	4	0
79	856	10	10000	4	1	0	4	0
78	857	10	10000	4	1	0	4	0
86	858	10	10000	4	1	0	4	0
87	859	10	10000	4	1	0	4	0
83	860	10	10000	4	1	0	4	0
83	861	10	10000	4	1	0	4	0
81	862	10	10000	4	1	0	4	0
79	863	10	10000	4	1	0	4	0
76	864	10	10000	4	1	0	4	0
74	865	10	10000	4	1	0	4	0
73	866	10	10000	4	1	0	4	0
75	867	10	10000	4	1	0	4	0
74	868	10	10000	4	1	0	4	0
72	869	10	10000	4	1	0	4	0
73	870	10	10000	4	1	0	4	0
74	871	10	10000	4	1	0	4	0
74	872	10	10000	4	1	0	4	0
70	873	10	10000	4	1	0	4	0
71	874	10	10000	4	1	0	4	0
76	875	10	10000	4	1	0	4	0
77	876	10	10000	4	1	0	4	0
78	877	10	10000	4	1	0	4	0
79	878	10	10000	4	1	0	4	0
88	879	10	10000	4	1	0	4	0
92	880	10	10000	4	1	0	4	0
100	881	10	10000	4	1	0	4	0
100	882	10	10000	4	1	0	4	0
103	883	10	10000	4	1	0	4	0
108	884	10	10000	4	1	0	4	0
113	885	10	10000	4	1	0	4	0
111	886	10	10000	4	1	0	4	0
107	887	10	10000	4	1	0	4	0
110	888	10	10000	4	1	0	4	0
115	889	10	10000	4	1	0	4	0
115	890	10	10000	4	1	0	4	0
112	891	10	10000	4	1	0	4	0
109	892	10	10000	4	1	0	4	0
105	893	10	10000	4	1	0	4	0
106	894	10	10000	4	1	0	4	0
108	895	10	10000	4	1	0	4	0
106	896	10	10000	4	1	0	4	0
106	897	10	10000	4	1	0	4	0
108	898	10	10000	4	1	0	4	0
112	899	10	10000	4	1	0	4	0
111	900	10	10000	4	1	0	4	0
108	901	10	10000	4	1	0	4	0
105	902	10	10000	4	1	0	4	0
116	903	10	10000	4	1	0	4	0
123	904	10	10000	4	1	0	4	0
123	905	10	10000	4	1	0	4	0
120	906	10	10000	4	1	0	4	0
117	907	10	10000	4	1	0	4	0
117	908	10	10000	4	1	0	4	0
115	909	10	10000	4	1	0	4	0
112	910	10	10000	4	1	0	4	0
108	911	10	10000	4	1	0	4	0
109	912	10	10000	4	1	0	4	0
107	913	10	10000	4	1	0	4	0
116	914	10	10000	4	1	0	4	0
117	915	10	10000	4	1	0	4	0
126	916	10	10000	4	1	0	4	0
127	917	10	10000	4	1	0	4	0
142	918	10	10000	4	1	0	4	0
148	919	10	10000	4	1	0	4	0
142	920	10	10000	4	1	0	4	0
143	921	10	10000	4	1	0	4	0
152	922	10	10000	4	1	0	4	0
169	923	10	10000	4	1	0	4	0
179	924	10	10000	4	1	0	4	0
179	925	10	10000	4	1	0	4	0
173	926	10	10000	4	1	0	4	0
169	927	10	10000	4	1	0	4	0
165	928	10	10000	4	1	0	4	0
168	929	10	10000	4	1	0	4	0
170	930	10	10000	4	1	0	4	0
170	931	10	10000	4	1	0	4	0
175	932	10	10000	4	1	0	4	0
172	933	10	10000	4	1	0	4	0
166	934	10	10000	4	1	0	4	0
170	935	10	10000	4	1	0	4	0
175	936	10	10000	4	1	0	4	0
174	937	10	10000	4	1	0	4	0
168	938	10	10000	4	1	0	4	0
164	939	10	10000	4	1	0	4	0
164	940	10	10000	4	1	0	4	0
167	941	10	10000	4	1	0	4	0
168	942	10	10000	4	1	0	4	0
167	943	10	10000	4	1	0	4	0
162	944	10	10000	4	1	0	4	0
155	945	10	10000	4	1	0	4	0
153	946	10	10000	4	1	0	4	0
152	947	10	10000	4	1	0	4	0
150	948	10	10000	4	1	0	4	0
155	949	10	10000	4	1	0	4	0
162	950	10	10000	4	1	0	4	0
163	951	10	10000	4	1	0	4	0
162	952	10	10000	4	1	0	4	0
156	953	10	10000	4	1	0	4	0
152	954	10	10000	4	1	0	4	0
150	955	10	10000	4	1	0	4	0
145	956	10	10000	4	1	0	4	0
142	957	10	10000	4	1	0	4	0
147	958	10	10000	4	1	0	4	0
156	959	10	10000	4	1	0	4	0
163	960	10	10000	4	1	0	4	0
167	961	10	10000	4	1	0	4	0
171	962	10	10000	4	1	0	4	0
176	963	10	10000	4	1	0	4	0
176	964	10	10000	4	1	0	4	0
173	965	10	10000	4	1	0	4	0
170	966	10	10000	4	1	0	4	0
165	967	10	10000	4	1	0	4	0
162	968	10	10000	4	1	0	4	0
160	969	10	10000	4	1	0	4	0
157	970	10	10000	4	1	0	4	0
155	971	10	10000	4	1	0	4	0
155	972	10	10000	4	1	0	4	0
153	973	10	10000	4	1	0	4	0
149	974	10	10000	4	1	0	4	0
144	975	10	10000	4	1	0	4	0
142	976	10	10000	4	1	0	4	0
143	977	10	10000	4	1	0	4	0
144	978	10	10000	4	1	0	4	0
140	979	10	10000	4	1	0	4	0
138	980	10	10000	4	1	0	4	0
135	981	10	10000	4	1	0	4	0
132	982	10	10000	4	1	0	4	0
132	983	10	10000	4	1	0	4	0
128	984	10	10000	4	1	0	4	0
122	985	10	10000	4	1	0	4	0
120	986	10	10000	4	1	0	4	0
121	987	10	10000	4	1	0	4	0
120	988	10	10000	4	1	0	4	0
116	989	10	10000	4	1	0	4	0
113	990	10	10000	4	1	0	4	0
110	991	10	10000	4	1	0	4	0
106	992	10	10000	4	1	0	4	0
102	993	10	10000	4	1	0	4	0
99	994	10	10000	4	1	0	4	0
96	995	10	10000	4	1	0	4	0
98	996	10	10000	4	1	0	4	0
97	997	10	10000	4	1	0	4	0
95	998	10	10000	4	1	0	4	0
95	999	10	10000	4	1	0	4	0
96	1000	10	10000	4	1	0	4	0
40	1	10	10000	5	1	0	5	0
40	2	10	10000	5	1	0	5	0
38	3	10	10000	5	1	0	5	0
41	4	10	10000	5	1	0	5	0
45	5	10	10000	5	1	0	5	0
45	6	10	10000	5	1	0	5	0
44	7	10	10000	5	1	0	5	0
42	8	10	10000	5	1	0	5	0
42	9	10	10000	5	1	0	5	0
42	10	10	10000	5	1	0	5	0
40	11	10	10000	5	1	0	5	0
39	12	10	10000	5	1	0	5	0
39	13	10	10000	5	1	0	5	0
40	14	10	10000	5	1	0	5	0
46	15	10	10000	5	1	0	5	0
52	16	10	10000	5	1	0	5	0
64	17	10	10000	5	1	0	5	0
69	18	10	10000	5	1	0	5	0
67	19	10	10000	5	1	0	5	0
66	20	10	10000	5	1	0	5	0
64	21	10	10000	5	1	0	5	0
62	22	10	10000	5	1	0	5	0
67	23	10	10000	5	1	0	5	0
80	24	10	10000	5	1	0	5	0
87	25	10	10000	5	1	0	5	0
96	26	10	10000	5	1	0	5	0
113	27	10	10000	5	1	0	5	0
122	28	10	10000	5	1	0	5	0
119	29	10	10000	5	1	0	5	0
125	30	10	10000	5	1	0	5	0
145	31	10	10000	5	1	0	5	0
164	32	10	10000	5	1	0	5	0
163	33	10	10000	5	1	0	5	0
173	34	10	10000	5	1	0	5	0
185	35	10	10000	5	1	0	5	0
193	36	10	10000	5	1	0	5	0
201	37	10	10000	5	1	0	5	0
209	38	10	10000	5	1	0	5	0
201	39	10	10000	5	1	0	5	0
192	40	10	10000	5	1	0	5	0
185	41	10	10000	5	1	0	5	0
180	42	10	10000	5	1	0	5	0
176	43	10	10000	5	1	0	5	0
174	44	10	10000	5	1	0	5	0
169	45	10	10000	5	1	0	5	0
162	46	10	10000	5	1	0	5	0
153	47	10	10000	5	1	0	5	0
146	48	10	10000	5	1	0	5	0
141	49	10	10000	5	1	0	5	0
144	50	10	10000	5	1	0	5	0
151	51	10	10000	5	1	0	5	0
153	52	10	10000	5	1	0	5	0
146	53	10	10000	5	1	0	5	0
140	54	10	10000	5	1	0	5	0
136	55	10	10000	5	1	0	5	0
133	56	10	10000	5	1	0	5	0
135	57	10	10000	5	1	0	5	0
131	58	10	10000	5	1	0	5	0
126	59	10	10000	5	1	0	5	0
125	60	10	10000	5	1	0	5	0
125	61	10	10000	5	1	0	5	0
123	62	10	10000	5	1	0	5	0
129	63	10	10000	5	1	0	5	0
149	64	10	10000	5	1	0	5	0
155	65	10	10000	5	1	0	5	0
162	66	10	10000	5	1	0	5	0
175	67	10	10000	5	1	0	5	0
189	68	10	10000	5	1	0	5	0
199	69	10	10000	5	1	0	5	0
205	70	10	10000	5	1	0	5	0
206	71	10	10000	5	1	0	5	0
203	72	10	10000	5	1	0	5	0
195	73	10	10000	5	1	0	5	0
192	74	10	10000	5	1	0	5	0
188	75	10	10000	5	1	0	5	0
189	76	10	10000	5	1	0	5	0
193	77	10	10000	5	1	0	5	0
192	78	10	10000	5	1	0	5	0
189	79	10	10000	5	1	0	5	0
184	80	10	10000	5	1	0	5	0
177	81	10	10000	5	1	0	5	0
174	82	10	10000	5	1	0	5	0
169	83	10	10000	5	1	0	5	0
164	84	10	10000	5	1	0	5	0
158	85	10	10000	5	1	0	5	0
156	86	10	10000	5	1	0	5	0
149	87	10	10000	5	1	0	5	0
143	88	10	10000	5	1	0	5	0
138	89	10	10000	5	1	0	5	0
135	90	10	10000	5	1	0	5	0
136	91	10	10000	5	1	0	5	0
133	92	10	10000	5	1	0	5	0
133	93	10	10000	5	1	0	5	0
131	94	10	10000	5	1	0	5	0
127	95	10	10000	5	1	0	5	0
128	96	10	10000	5	1	0	5	0
127	97	10	10000	5	1	0	5	0
130	98	10	10000	5	1	0	5	0
135	99	10	10000	5	1	0	5	0
143	100	10	10000	5	1	0	5	0
148	101	10	10000	5	1	0	5	0
143	102	10	10000	5	1	0	5	0
138	103	10	10000	5	1	0	5	0
137	104	10	10000	5	1	0	5	0
146	105	10	10000	5	1	0	5	0
145	106	10	10000	5	1	0	5	0
143	107	10	10000	5	1	0	5	0
148	108	10	10000	5	1	0	5	0
154	109	10	10000	5	1	0	5	0
154	110	10	10000	5	1	0	5	0
149	111	10	10000	5	1	0	5	0
147	112	10	10000	5	1	0	5	0
141	113	10	10000	5	1	0	5	0
142	114	10	10000	5	1	0	5	0
148	115	10	10000	5	1	0	5	0
143	116	10	10000	5	1	0	5	0
145	117	10	10000	5	1	0	5	0
146	118	10	10000	5	1	0	5	0
143	119	10	10000	5	1	0	5	0
138	120	10	10000	5	1	0	5	0
137	121	10	10000	5	1	0	5	0
135	122	10	10000	5	1	0	5	0
131	123	10	10000	5	1	0	5	0
131	124	10	10000	5	1	0	5	0
133	125	10	10000	5	1	0	5	0
130	126	10	10000	5	1	0	5	0
124	127	10	10000	5	1	0	5	0
121	128	10	10000	5	1	0	5	0
116	129	10	10000	5	1	0	5	0
114	130	10	10000	5	1	0	5	0
113	131	10	10000	5	1	0	5	0
116	132	10	10000	5	1	0	5	0
118	133	10	10000	5	1	0	5	0
117	134	10	10000	5	1	0	5	0
111	135	10	10000	5	1	0	5	0
107	136	10	10000	5	1	0	5	0
105	137	10	10000	5	1	0	5	0
102	138	10	10000	5	1	0	5	0
101	139	10	10000	5	1	0	5	0
98	140	10	10000	5	1	0	5	0
95	141	10	10000	5	1	0	5	0
95	142	10	10000	5	1	0	5	0
95	143	10	10000	5	1	0	5	0
93	144	10	10000	5	1	0	5	0
92	145	10	10000	5	1	0	5	0
90	146	10	10000	5	1	0	5	0
84	147	10	10000	5	1	0	5	0
81	148	10	10000	5	1	0	5	0
80	149	10	10000	5	1	0	5	0
79	150	10	10000	5	1	0	5	0
77	151	10	10000	5	1	0	5	0
77	152	10	10000	5	1	0	5	0
76	153	10	10000	5	1	0	5	0
82	154	10	10000	5	1	0	5	0
84	155	10	10000	5	1	0	5	0
83	156	10	10000	5	1	0	5	0
98	157	10	10000	5	1	0	5	0
112	158	10	10000	5	1	0	5	0
113	159	10	10000	5	1	0	5	0
121	160	10	10000	5	1	0	5	0
134	161	10	10000	5	1	0	5	0
145	162	10	10000	5	1	0	5	0
152	163	10	10000	5	1	0	5	0
150	164	10	10000	5	1	0	5	0
144	165	10	10000	5	1	0	5	0
143	166	10	10000	5	1	0	5	0
142	167	10	10000	5	1	0	5	0
140	168	10	10000	5	1	0	5	0
138	169	10	10000	5	1	0	5	0
134	170	10	10000	5	1	0	5	0
131	171	10	10000	5	1	0	5	0
129	172	10	10000	5	1	0	5	0
130	173	10	10000	5	1	0	5	0
129	174	10	10000	5	1	0	5	0
124	175	10	10000	5	1	0	5	0
121	176	10	10000	5	1	0	5	0
120	177	10	10000	5	1	0	5	0
115	178	10	10000	5	1	0	5	0
110	179	10	10000	5	1	0	5	0
109	180	10	10000	5	1	0	5	0
107	181	10	10000	5	1	0	5	0
107	182	10	10000	5	1	0	5	0
107	183	10	10000	5	1	0	5	0
105	184	10	10000	5	1	0	5	0
101	185	10	10000	5	1	0	5	0
97	186	10	10000	5	1	0	5	0
94	187	10	10000	5	1	0	5	0
91	188	10	10000	5	1	0	5	0
90	189	10	10000	5	1	0	5	0
89	190	10	10000	5	1	0	5	0
91	191	10	10000	5	1	0	5	0
91	192	10	10000	5	1	0	5	0
88	193	10	10000	5	1	0	5	0
90	194	10	10000	5	1	0	5	0
93	195	10	10000	5	1	0	5	0
93	196	10	10000	5	1	0	5	0
94	197	10	10000	5	1	0	5	0
97	198	10	10000	5	1	0	5	0
97	199	10	10000	5	1	0	5	0
96	200	10	10000	5	1	0	5	0
92	201	10	10000	5	1	0	5	0
88	202	10	10000	5	1	0	5	0
88	203	10	10000	5	1	0	5	0
89	204	10	10000	5	1	0	5	0
87	205	10	10000	5	1	0	5	0
86	206	10	10000	5	1	0	5	0
82	207	10	10000	5	1	0	5	0
79	208	10	10000	5	1	0	5	0
77	209	10	10000	5	1	0	5	0
78	210	10	10000	5	1	0	5	0
80	211	10	10000	5	1	0	5	0
79	212	10	10000	5	1	0	5	0
81	213	10	10000	5	1	0	5	0
81	214	10	10000	5	1	0	5	0
79	215	10	10000	5	1	0	5	0
79	216	10	10000	5	1	0	5	0
83	217	10	10000	5	1	0	5	0
83	218	10	10000	5	1	0	5	0
86	219	10	10000	5	1	0	5	0
89	220	10	10000	5	1	0	5	0
87	221	10	10000	5	1	0	5	0
86	222	10	10000	5	1	0	5	0
85	223	10	10000	5	1	0	5	0
82	224	10	10000	5	1	0	5	0
80	225	10	10000	5	1	0	5	0
81	226	10	10000	5	1	0	5	0
80	227	10	10000	5	1	0	5	0
80	228	10	10000	5	1	0	5	0
79	229	10	10000	5	1	0	5	0
76	230	10	10000	5	1	0	5	0
74	231	10	10000	5	1	0	5	0
72	232	10	10000	5	1	0	5	0
70	233	10	10000	5	1	0	5	0
69	234	10	10000	5	1	0	5	0
67	235	10	10000	5	1	0	5	0
66	236	10	10000	5	1	0	5	0
68	237	10	10000	5	1	0	5	0
69	238	10	10000	5	1	0	5	0
68	239	10	10000	5	1	0	5	0
67	240	10	10000	5	1	0	5	0
67	241	10	10000	5	1	0	5	0
67	242	10	10000	5	1	0	5	0
65	243	10	10000	5	1	0	5	0
64	244	10	10000	5	1	0	5	0
64	245	10	10000	5	1	0	5	0
65	246	10	10000	5	1	0	5	0
61	247	10	10000	5	1	0	5	0
59	248	10	10000	5	1	0	5	0
58	249	10	10000	5	1	0	5	0
58	250	10	10000	5	1	0	5	0
57	251	10	10000	5	1	0	5	0
58	252	10	10000	5	1	0	5	0
60	253	10	10000	5	1	0	5	0
63	254	10	10000	5	1	0	5	0
63	255	10	10000	5	1	0	5	0
62	256	10	10000	5	1	0	5	0
62	257	10	10000	5	1	0	5	0
61	258	10	10000	5	1	0	5	0
61	259	10	10000	5	1	0	5	0
59	260	10	10000	5	1	0	5	0
58	261	10	10000	5	1	0	5	0
60	262	10	10000	5	1	0	5	0
59	263	10	10000	5	1	0	5	0
59	264	10	10000	5	1	0	5	0
58	265	10	10000	5	1	0	5	0
56	266	10	10000	5	1	0	5	0
52	267	10	10000	5	1	0	5	0
51	268	10	10000	5	1	0	5	0
52	269	10	10000	5	1	0	5	0
51	270	10	10000	5	1	0	5	0
49	271	10	10000	5	1	0	5	0
48	272	10	10000	5	1	0	5	0
49	273	10	10000	5	1	0	5	0
48	274	10	10000	5	1	0	5	0
48	275	10	10000	5	1	0	5	0
48	276	10	10000	5	1	0	5	0
49	277	10	10000	5	1	0	5	0
49	278	10	10000	5	1	0	5	0
48	279	10	10000	5	1	0	5	0
46	280	10	10000	5	1	0	5	0
45	281	10	10000	5	1	0	5	0
45	282	10	10000	5	1	0	5	0
44	283	10	10000	5	1	0	5	0
42	284	10	10000	5	1	0	5	0
42	285	10	10000	5	1	0	5	0
41	286	10	10000	5	1	0	5	0
38	287	10	10000	5	1	0	5	0
37	288	10	10000	5	1	0	5	0
35	289	10	10000	5	1	0	5	0
35	290	10	10000	5	1	0	5	0
37	291	10	10000	5	1	0	5	0
37	292	10	10000	5	1	0	5	0
42	293	10	10000	5	1	0	5	0
44	294	10	10000	5	1	0	5	0
41	295	10	10000	5	1	0	5	0
40	296	10	10000	5	1	0	5	0
41	297	10	10000	5	1	0	5	0
41	298	10	10000	5	1	0	5	0
41	299	10	10000	5	1	0	5	0
41	300	10	10000	5	1	0	5	0
42	301	10	10000	5	1	0	5	0
46	302	10	10000	5	1	0	5	0
50	303	10	10000	5	1	0	5	0
57	304	10	10000	5	1	0	5	0
64	305	10	10000	5	1	0	5	0
70	306	10	10000	5	1	0	5	0
73	307	10	10000	5	1	0	5	0
73	308	10	10000	5	1	0	5	0
73	309	10	10000	5	1	0	5	0
77	310	10	10000	5	1	0	5	0
80	311	10	10000	5	1	0	5	0
83	312	10	10000	5	1	0	5	0
84	313	10	10000	5	1	0	5	0
84	314	10	10000	5	1	0	5	0
83	315	10	10000	5	1	0	5	0
81	316	10	10000	5	1	0	5	0
83	317	10	10000	5	1	0	5	0
85	318	10	10000	5	1	0	5	0
89	319	10	10000	5	1	0	5	0
93	320	10	10000	5	1	0	5	0
97	321	10	10000	5	1	0	5	0
100	322	10	10000	5	1	0	5	0
96	323	10	10000	5	1	0	5	0
92	324	10	10000	5	1	0	5	0
89	325	10	10000	5	1	0	5	0
87	326	10	10000	5	1	0	5	0
82	327	10	10000	5	1	0	5	0
80	328	10	10000	5	1	0	5	0
76	329	10	10000	5	1	0	5	0
75	330	10	10000	5	1	0	5	0
73	331	10	10000	5	1	0	5	0
70	332	10	10000	5	1	0	5	0
68	333	10	10000	5	1	0	5	0
66	334	10	10000	5	1	0	5	0
64	335	10	10000	5	1	0	5	0
62	336	10	10000	5	1	0	5	0
62	337	10	10000	5	1	0	5	0
60	338	10	10000	5	1	0	5	0
57	339	10	10000	5	1	0	5	0
56	340	10	10000	5	1	0	5	0
54	341	10	10000	5	1	0	5	0
52	342	10	10000	5	1	0	5	0
51	343	10	10000	5	1	0	5	0
49	344	10	10000	5	1	0	5	0
48	345	10	10000	5	1	0	5	0
47	346	10	10000	5	1	0	5	0
44	347	10	10000	5	1	0	5	0
41	348	10	10000	5	1	0	5	0
41	349	10	10000	5	1	0	5	0
40	350	10	10000	5	1	0	5	0
39	351	10	10000	5	1	0	5	0
39	352	10	10000	5	1	0	5	0
39	353	10	10000	5	1	0	5	0
41	354	10	10000	5	1	0	5	0
43	355	10	10000	5	1	0	5	0
44	356	10	10000	5	1	0	5	0
44	357	10	10000	5	1	0	5	0
44	358	10	10000	5	1	0	5	0
42	359	10	10000	5	1	0	5	0
40	360	10	10000	5	1	0	5	0
40	361	10	10000	5	1	0	5	0
42	362	10	10000	5	1	0	5	0
43	363	10	10000	5	1	0	5	0
43	364	10	10000	5	1	0	5	0
44	365	10	10000	5	1	0	5	0
44	366	10	10000	5	1	0	5	0
41	367	10	10000	5	1	0	5	0
41	368	10	10000	5	1	0	5	0
41	369	10	10000	5	1	0	5	0
40	370	10	10000	5	1	0	5	0
41	371	10	10000	5	1	0	5	0
42	372	10	10000	5	1	0	5	0
41	373	10	10000	5	1	0	5	0
40	374	10	10000	5	1	0	5	0
40	375	10	10000	5	1	0	5	0
39	376	10	10000	5	1	0	5	0
39	377	10	10000	5	1	0	5	0
40	378	10	10000	5	1	0	5	0
39	379	10	10000	5	1	0	5	0
38	380	10	10000	5	1	0	5	0
37	381	10	10000	5	1	0	5	0
38	382	10	10000	5	1	0	5	0
38	383	10	10000	5	1	0	5	0
39	384	10	10000	5	1	0	5	0
42	385	10	10000	5	1	0	5	0
44	386	10	10000	5	1	0	5	0
45	387	10	10000	5	1	0	5	0
44	388	10	10000	5	1	0	5	0
42	389	10	10000	5	1	0	5	0
41	390	10	10000	5	1	0	5	0
39	391	10	10000	5	1	0	5	0
38	392	10	10000	5	1	0	5	0
39	393	10	10000	5	1	0	5	0
38	394	10	10000	5	1	0	5	0
37	395	10	10000	5	1	0	5	0
36	396	10	10000	5	1	0	5	0
37	397	10	10000	5	1	0	5	0
37	398	10	10000	5	1	0	5	0
36	399	10	10000	5	1	0	5	0
34	400	10	10000	5	1	0	5	0
33	401	10	10000	5	1	0	5	0
32	402	10	10000	5	1	0	5	0
32	403	10	10000	5	1	0	5	0
31	404	10	10000	5	1	0	5	0
31	405	10	10000	5	1	0	5	0
31	406	10	10000	5	1	0	5	0
28	407	10	10000	5	1	0	5	0
28	408	10	10000	5	1	0	5	0
28	409	10	10000	5	1	0	5	0
28	410	10	10000	5	1	0	5	0
27	411	10	10000	5	1	0	5	0
27	412	10	10000	5	1	0	5	0
26	413	10	10000	5	1	0	5	0
25	414	10	10000	5	1	0	5	0
26	415	10	10000	5	1	0	5	0
30	416	10	10000	5	1	0	5	0
34	417	10	10000	5	1	0	5	0
34	418	10	10000	5	1	0	5	0
34	419	10	10000	5	1	0	5	0
35	420	10	10000	5	1	0	5	0
36	421	10	10000	5	1	0	5	0
36	422	10	10000	5	1	0	5	0
36	423	10	10000	5	1	0	5	0
35	424	10	10000	5	1	0	5	0
36	425	10	10000	5	1	0	5	0
35	426	10	10000	5	1	0	5	0
34	427	10	10000	5	1	0	5	0
32	428	10	10000	5	1	0	5	0
32	429	10	10000	5	1	0	5	0
33	430	10	10000	5	1	0	5	0
33	431	10	10000	5	1	0	5	0
34	432	10	10000	5	1	0	5	0
34	433	10	10000	5	1	0	5	0
32	434	10	10000	5	1	0	5	0
32	435	10	10000	5	1	0	5	0
32	436	10	10000	5	1	0	5	0
31	437	10	10000	5	1	0	5	0
31	438	10	10000	5	1	0	5	0
31	439	10	10000	5	1	0	5	0
32	440	10	10000	5	1	0	5	0
35	441	10	10000	5	1	0	5	0
36	442	10	10000	5	1	0	5	0
35	443	10	10000	5	1	0	5	0
35	444	10	10000	5	1	0	5	0
36	445	10	10000	5	1	0	5	0
35	446	10	10000	5	1	0	5	0
32	447	10	10000	5	1	0	5	0
31	448	10	10000	5	1	0	5	0
32	449	10	10000	5	1	0	5	0
32	450	10	10000	5	1	0	5	0
30	451	10	10000	5	1	0	5	0
29	452	10	10000	5	1	0	5	0
28	453	10	10000	5	1	0	5	0
27	454	10	10000	5	1	0	5	0
27	455	10	10000	5	1	0	5	0
27	456	10	10000	5	1	0	5	0
28	457	10	10000	5	1	0	5	0
29	458	10	10000	5	1	0	5	0
28	459	10	10000	5	1	0	5	0
28	460	10	10000	5	1	0	5	0
27	461	10	10000	5	1	0	5	0
26	462	10	10000	5	1	0	5	0
26	463	10	10000	5	1	0	5	0
27	464	10	10000	5	1	0	5	0
26	465	10	10000	5	1	0	5	0
26	466	10	10000	5	1	0	5	0
24	467	10	10000	5	1	0	5	0
23	468	10	10000	5	1	0	5	0
22	469	10	10000	5	1	0	5	0
23	470	10	10000	5	1	0	5	0
22	471	10	10000	5	1	0	5	0
21	472	10	10000	5	1	0	5	0
24	473	10	10000	5	1	0	5	0
23	474	10	10000	5	1	0	5	0
23	475	10	10000	5	1	0	5	0
23	476	10	10000	5	1	0	5	0
25	477	10	10000	5	1	0	5	0
26	478	10	10000	5	1	0	5	0
32	479	10	10000	5	1	0	5	0
36	480	10	10000	5	1	0	5	0
37	481	10	10000	5	1	0	5	0
37	482	10	10000	5	1	0	5	0
36	483	10	10000	5	1	0	5	0
38	484	10	10000	5	1	0	5	0
38	485	10	10000	5	1	0	5	0
38	486	10	10000	5	1	0	5	0
35	487	10	10000	5	1	0	5	0
35	488	10	10000	5	1	0	5	0
35	489	10	10000	5	1	0	5	0
34	490	10	10000	5	1	0	5	0
33	491	10	10000	5	1	0	5	0
34	492	10	10000	5	1	0	5	0
34	493	10	10000	5	1	0	5	0
34	494	10	10000	5	1	0	5	0
34	495	10	10000	5	1	0	5	0
32	496	10	10000	5	1	0	5	0
33	497	10	10000	5	1	0	5	0
32	498	10	10000	5	1	0	5	0
33	499	10	10000	5	1	0	5	0
35	500	10	10000	5	1	0	5	0
36	501	10	10000	5	1	0	5	1
35	502	10	10000	5	1	0	5	1
34	503	10	10000	5	1	0	5	1
37	504	10	10000	5	1	0	5	1
39	505	10	10000	5	1	0	5	1
43	506	10	10000	5	1	0	5	1
46	507	10	10000	5	1	0	5	1
49	508	10	10000	5	1	0	5	1
51	509	10	10000	5	1	0	5	1
53	510	10	10000	5	1	0	5	1
51	511	10	10000	5	1	0	5	1
50	512	10	10000	5	1	0	5	1
47	513	10	10000	5	1	0	5	1
45	514	10	10000	5	1	0	5	1
44	515	10	10000	5	1	0	5	1
44	516	10	10000	5	1	0	5	1
44	517	10	10000	5	1	0	5	1
44	518	10	10000	5	1	0	5	1
45	519	10	10000	5	1	0	5	1
49	520	10	10000	5	1	0	5	1
52	521	10	10000	5	1	0	5	1
53	522	10	10000	5	1	0	5	1
53	523	10	10000	5	1	0	5	1
51	524	10	10000	5	1	0	5	1
50	525	10	10000	5	1	0	5	1
49	526	10	10000	5	1	0	5	1
46	527	10	10000	5	1	0	5	1
44	528	10	10000	5	1	0	5	1
44	529	10	10000	5	1	0	5	1
43	530	10	10000	5	1	0	5	1
41	531	10	10000	5	1	0	5	1
40	532	10	10000	5	1	0	5	1
40	533	10	10000	5	1	0	5	1
40	534	10	10000	5	1	0	5	1
39	535	10	10000	5	1	0	5	1
39	536	10	10000	5	1	0	5	1
41	537	10	10000	5	1	0	5	1
41	538	10	10000	5	1	0	5	1
42	539	10	10000	5	1	0	5	1
42	540	10	10000	5	1	0	5	1
45	541	10	10000	5	1	0	5	1
47	542	10	10000	5	1	0	5	1
46	543	10	10000	5	1	0	5	1
47	544	10	10000	5	1	0	5	1
46	545	10	10000	5	1	0	5	1
45	546	10	10000	5	1	0	5	1
43	547	10	10000	5	1	0	5	1
43	548	10	10000	5	1	0	5	1
46	549	10	10000	5	1	0	5	1
48	550	10	10000	5	1	0	5	1
46	551	10	10000	5	1	0	5	0
45	552	10	10000	5	1	0	5	0
44	553	10	10000	5	1	0	5	0
42	554	10	10000	5	1	0	5	0
43	555	10	10000	5	1	0	5	0
45	556	10	10000	5	1	0	5	0
50	557	10	10000	5	1	0	5	0
52	558	10	10000	5	1	0	5	0
50	559	10	10000	5	1	0	5	0
48	560	10	10000	5	1	0	5	0
46	561	10	10000	5	1	0	5	0
46	562	10	10000	5	1	0	5	0
45	563	10	10000	5	1	0	5	0
49	564	10	10000	5	1	0	5	0
54	565	10	10000	5	1	0	5	0
56	566	10	10000	5	1	0	5	0
53	567	10	10000	5	1	0	5	0
52	568	10	10000	5	1	0	5	0
52	569	10	10000	5	1	0	5	0
51	570	10	10000	5	1	0	5	0
49	571	10	10000	5	1	0	5	0
48	572	10	10000	5	1	0	5	0
48	573	10	10000	5	1	0	5	0
46	574	10	10000	5	1	0	5	0
47	575	10	10000	5	1	0	5	0
55	576	10	10000	5	1	0	5	0
64	577	10	10000	5	1	0	5	0
67	578	10	10000	5	1	0	5	0
68	579	10	10000	5	1	0	5	0
69	580	10	10000	5	1	0	5	0
75	581	10	10000	5	1	0	5	0
81	582	10	10000	5	1	0	5	0
91	583	10	10000	5	1	0	5	0
98	584	10	10000	5	1	0	5	0
100	585	10	10000	5	1	0	5	0
107	586	10	10000	5	1	0	5	0
168	587	10	10000	5	1	0	5	0
253	588	10	10000	5	1	0	5	0
279	589	10	10000	5	1	0	5	0
286	590	10	10000	5	1	0	5	0
289	591	10	10000	5	1	0	5	0
324	592	10	10000	5	1	0	5	0
328	593	10	10000	5	1	0	5	0
389	594	10	10000	5	1	0	5	0
445	595	10	10000	5	1	0	5	0
455	596	10	10000	5	1	0	5	0
499	597	10	10000	5	1	0	5	0
507	598	10	10000	5	1	0	5	0
533	599	10	10000	5	1	0	5	0
551	600	10	10000	5	1	0	5	0
553	601	10	10000	5	1	0	5	0
535	602	10	10000	5	1	0	5	0
514	603	10	10000	5	1	0	5	0
492	604	10	10000	5	1	0	5	0
487	605	10	10000	5	1	0	5	0
512	606	10	10000	5	1	0	5	0
536	607	10	10000	5	1	0	5	0
612	608	10	10000	5	1	0	5	0
631	609	10	10000	5	1	0	5	0
695	610	10	10000	5	1	0	5	0
725	611	10	10000	5	1	0	5	0
874	612	10	10000	5	1	0	5	0
899	613	10	10000	5	1	0	5	0
947	614	10	10000	5	1	0	5	0
1032	615	10	10000	5	1	0	5	0
1069	616	10	10000	5	1	0	5	0
1086	617	10	10000	5	1	0	5	0
1122	618	10	10000	5	1	0	5	0
1103	619	10	10000	5	1	0	5	0
1130	620	10	10000	5	1	0	5	0
1136	621	10	10000	5	1	0	5	0
1094	622	10	10000	5	1	0	5	0
1071	623	10	10000	5	1	0	5	0
1041	624	10	10000	5	1	0	5	0
996	625	10	10000	5	1	0	5	0
978	626	10	10000	5	1	0	5	0
993	627	10	10000	5	1	0	5	0
1032	628	10	10000	5	1	0	5	0
1068	629	10	10000	5	1	0	5	0
1056	630	10	10000	5	1	0	5	0
1060	631	10	10000	5	1	0	5	0
1077	632	10	10000	5	1	0	5	0
1076	633	10	10000	5	1	0	5	0
1067	634	10	10000	5	1	0	5	0
1056	635	10	10000	5	1	0	5	0
1040	636	10	10000	5	1	0	5	0
1023	637	10	10000	5	1	0	5	0
1008	638	10	10000	5	1	0	5	0
1002	639	10	10000	5	1	0	5	0
1009	640	10	10000	5	1	0	5	0
1014	641	10	10000	5	1	0	5	0
999	642	10	10000	5	1	0	5	0
970	643	10	10000	5	1	0	5	0
942	644	10	10000	5	1	0	5	0
909	645	10	10000	5	1	0	5	0
871	646	10	10000	5	1	0	5	0
832	647	10	10000	5	1	0	5	0
828	648	10	10000	5	1	0	5	0
855	649	10	10000	5	1	0	5	0
875	650	10	10000	5	1	0	5	0
894	651	10	10000	5	1	0	5	0
910	652	10	10000	5	1	0	5	0
917	653	10	10000	5	1	0	5	0
921	654	10	10000	5	1	0	5	0
921	655	10	10000	5	1	0	5	0
914	656	10	10000	5	1	0	5	0
910	657	10	10000	5	1	0	5	0
906	658	10	10000	5	1	0	5	0
907	659	10	10000	5	1	0	5	0
915	660	10	10000	5	1	0	5	0
931	661	10	10000	5	1	0	5	0
950	662	10	10000	5	1	0	5	0
965	663	10	10000	5	1	0	5	0
974	664	10	10000	5	1	0	5	0
977	665	10	10000	5	1	0	5	0
977	666	10	10000	5	1	0	5	0
976	667	10	10000	5	1	0	5	0
980	668	10	10000	5	1	0	5	0
981	669	10	10000	5	1	0	5	0
988	670	10	10000	5	1	0	5	0
1007	671	10	10000	5	1	0	5	0
1025	672	10	10000	5	1	0	5	0
1032	673	10	10000	5	1	0	5	0
1027	674	10	10000	5	1	0	5	0
1016	675	10	10000	5	1	0	5	0
1006	676	10	10000	5	1	0	5	0
998	677	10	10000	5	1	0	5	0
997	678	10	10000	5	1	0	5	0
999	679	10	10000	5	1	0	5	0
