value	EMG	Stimulus	EMG_sensitivity	Total_Trial_Nr	practise	acq	probe_nr	Startle_Probe
33	1	10	10000	1	1	0	1	0
33	2	10	10000	1	1	0	1	0
32	3	10	10000	1	1	0	1	0
34	4	10	10000	1	1	0	1	0
34	5	10	10000	1	1	0	1	0
33	6	10	10000	1	1	0	1	0
35	7	10	10000	1	1	0	1	0
36	8	10	10000	1	1	0	1	0
36	9	10	10000	1	1	0	1	0
35	10	10	10000	1	1	0	1	0
34	11	10	10000	1	1	0	1	0
35	12	10	10000	1	1	0	1	0
35	13	10	10000	1	1	0	1	0
35	14	10	10000	1	1	0	1	0
36	15	10	10000	1	1	0	1	0
36	16	10	10000	1	1	0	1	0
35	17	10	10000	1	1	0	1	0
36	18	10	10000	1	1	0	1	0
36	19	10	10000	1	1	0	1	0
38	20	10	10000	1	1	0	1	0
36	21	10	10000	1	1	0	1	0
35	22	10	10000	1	1	0	1	0
34	23	10	10000	1	1	0	1	0
33	24	10	10000	1	1	0	1	0
32	25	10	10000	1	1	0	1	0
33	26	10	10000	1	1	0	1	0
34	27	10	10000	1	1	0	1	0
36	28	10	10000	1	1	0	1	0
36	29	10	10000	1	1	0	1	0
35	30	10	10000	1	1	0	1	0
36	31	10	10000	1	1	0	1	0
37	32	10	10000	1	1	0	1	0
37	33	10	10000	1	1	0	1	0
40	34	10	10000	1	1	0	1	0
38	35	10	10000	1	1	0	1	0
38	36	10	10000	1	1	0	1	0
37	37	10	10000	1	1	0	1	0
35	38	10	10000	1	1	0	1	0
35	39	10	10000	1	1	0	1	0
37	40	10	10000	1	1	0	1	0
37	41	10	10000	1	1	0	1	0
38	42	10	10000	1	1	0	1	0
37	43	10	10000	1	1	0	1	0
35	44	10	10000	1	1	0	1	0
36	45	10	10000	1	1	0	1	0
35	46	10	10000	1	1	0	1	0
35	47	10	10000	1	1	0	1	0
35	48	10	10000	1	1	0	1	0
34	49	10	10000	1	1	0	1	0
32	50	10	10000	1	1	0	1	0
35	51	10	10000	1	1	0	1	0
35	52	10	10000	1	1	0	1	0
36	53	10	10000	1	1	0	1	0
37	54	10	10000	1	1	0	1	0
36	55	10	10000	1	1	0	1	0
36	56	10	10000	1	1	0	1	0
36	57	10	10000	1	1	0	1	0
34	58	10	10000	1	1	0	1	0
34	59	10	10000	1	1	0	1	0
35	60	10	10000	1	1	0	1	0
34	61	10	10000	1	1	0	1	0
33	62	10	10000	1	1	0	1	0
33	63	10	10000	1	1	0	1	0
32	64	10	10000	1	1	0	1	0
33	65	10	10000	1	1	0	1	0
32	66	10	10000	1	1	0	1	0
36	67	10	10000	1	1	0	1	0
38	68	10	10000	1	1	0	1	0
41	69	10	10000	1	1	0	1	0
40	70	10	10000	1	1	0	1	0
42	71	10	10000	1	1	0	1	0
41	72	10	10000	1	1	0	1	0
40	73	10	10000	1	1	0	1	0
40	74	10	10000	1	1	0	1	0
40	75	10	10000	1	1	0	1	0
40	76	10	10000	1	1	0	1	0
39	77	10	10000	1	1	0	1	0
38	78	10	10000	1	1	0	1	0
37	79	10	10000	1	1	0	1	0
38	80	10	10000	1	1	0	1	0
37	81	10	10000	1	1	0	1	0
38	82	10	10000	1	1	0	1	0
37	83	10	10000	1	1	0	1	0
37	84	10	10000	1	1	0	1	0
40	85	10	10000	1	1	0	1	0
43	86	10	10000	1	1	0	1	0
46	87	10	10000	1	1	0	1	0
51	88	10	10000	1	1	0	1	0
54	89	10	10000	1	1	0	1	0
56	90	10	10000	1	1	0	1	0
58	91	10	10000	1	1	0	1	0
61	92	10	10000	1	1	0	1	0
64	93	10	10000	1	1	0	1	0
68	94	10	10000	1	1	0	1	0
71	95	10	10000	1	1	0	1	0
75	96	10	10000	1	1	0	1	0
79	97	10	10000	1	1	0	1	0
78	98	10	10000	1	1	0	1	0
79	99	10	10000	1	1	0	1	0
81	100	10	10000	1	1	0	1	0
80	101	10	10000	1	1	0	1	0
81	102	10	10000	1	1	0	1	0
83	103	10	10000	1	1	0	1	0
86	104	10	10000	1	1	0	1	0
84	105	10	10000	1	1	0	1	0
84	106	10	10000	1	1	0	1	0
86	107	10	10000	1	1	0	1	0
90	108	10	10000	1	1	0	1	0
89	109	10	10000	1	1	0	1	0
86	110	10	10000	1	1	0	1	0
84	111	10	10000	1	1	0	1	0
80	112	10	10000	1	1	0	1	0
80	113	10	10000	1	1	0	1	0
77	114	10	10000	1	1	0	1	0
76	115	10	10000	1	1	0	1	0
74	116	10	10000	1	1	0	1	0
71	117	10	10000	1	1	0	1	0
69	118	10	10000	1	1	0	1	0
71	119	10	10000	1	1	0	1	0
72	120	10	10000	1	1	0	1	0
70	121	10	10000	1	1	0	1	0
68	122	10	10000	1	1	0	1	0
67	123	10	10000	1	1	0	1	0
65	124	10	10000	1	1	0	1	0
63	125	10	10000	1	1	0	1	0
60	126	10	10000	1	1	0	1	0
58	127	10	10000	1	1	0	1	0
58	128	10	10000	1	1	0	1	0
56	129	10	10000	1	1	0	1	0
55	130	10	10000	1	1	0	1	0
54	131	10	10000	1	1	0	1	0
52	132	10	10000	1	1	0	1	0
51	133	10	10000	1	1	0	1	0
51	134	10	10000	1	1	0	1	0
49	135	10	10000	1	1	0	1	0
48	136	10	10000	1	1	0	1	0
46	137	10	10000	1	1	0	1	0
44	138	10	10000	1	1	0	1	0
43	139	10	10000	1	1	0	1	0
43	140	10	10000	1	1	0	1	0
43	141	10	10000	1	1	0	1	0
44	142	10	10000	1	1	0	1	0
44	143	10	10000	1	1	0	1	0
44	144	10	10000	1	1	0	1	0
44	145	10	10000	1	1	0	1	0
45	146	10	10000	1	1	0	1	0
45	147	10	10000	1	1	0	1	0
46	148	10	10000	1	1	0	1	0
46	149	10	10000	1	1	0	1	0
43	150	10	10000	1	1	0	1	0
43	151	10	10000	1	1	0	1	0
42	152	10	10000	1	1	0	1	0
45	153	10	10000	1	1	0	1	0
44	154	10	10000	1	1	0	1	0
46	155	10	10000	1	1	0	1	0
47	156	10	10000	1	1	0	1	0
48	157	10	10000	1	1	0	1	0
50	158	10	10000	1	1	0	1	0
51	159	10	10000	1	1	0	1	0
55	160	10	10000	1	1	0	1	0
53	161	10	10000	1	1	0	1	0
53	162	10	10000	1	1	0	1	0
50	163	10	10000	1	1	0	1	0
51	164	10	10000	1	1	0	1	0
53	165	10	10000	1	1	0	1	0
55	166	10	10000	1	1	0	1	0
60	167	10	10000	1	1	0	1	0
61	168	10	10000	1	1	0	1	0
62	169	10	10000	1	1	0	1	0
57	170	10	10000	1	1	0	1	0
59	171	10	10000	1	1	0	1	0
58	172	10	10000	1	1	0	1	0
60	173	10	10000	1	1	0	1	0
60	174	10	10000	1	1	0	1	0
59	175	10	10000	1	1	0	1	0
61	176	10	10000	1	1	0	1	0
61	177	10	10000	1	1	0	1	0
62	178	10	10000	1	1	0	1	0
59	179	10	10000	1	1	0	1	0
62	180	10	10000	1	1	0	1	0
62	181	10	10000	1	1	0	1	0
63	182	10	10000	1	1	0	1	0
62	183	10	10000	1	1	0	1	0
61	184	10	10000	1	1	0	1	0
64	185	10	10000	1	1	0	1	0
65	186	10	10000	1	1	0	1	0
68	187	10	10000	1	1	0	1	0
70	188	10	10000	1	1	0	1	0
72	189	10	10000	1	1	0	1	0
72	190	10	10000	1	1	0	1	0
75	191	10	10000	1	1	0	1	0
78	192	10	10000	1	1	0	1	0
80	193	10	10000	1	1	0	1	0
83	194	10	10000	1	1	0	1	0
83	195	10	10000	1	1	0	1	0
84	196	10	10000	1	1	0	1	0
84	197	10	10000	1	1	0	1	0
85	198	10	10000	1	1	0	1	0
86	199	10	10000	1	1	0	1	0
89	200	10	10000	1	1	0	1	0
90	201	10	10000	1	1	0	1	0
89	202	10	10000	1	1	0	1	0
91	203	10	10000	1	1	0	1	0
89	204	10	10000	1	1	0	1	0
90	205	10	10000	1	1	0	1	0
88	206	10	10000	1	1	0	1	0
89	207	10	10000	1	1	0	1	0
91	208	10	10000	1	1	0	1	0
90	209	10	10000	1	1	0	1	0
90	210	10	10000	1	1	0	1	0
90	211	10	10000	1	1	0	1	0
92	212	10	10000	1	1	0	1	0
89	213	10	10000	1	1	0	1	0
88	214	10	10000	1	1	0	1	0
84	215	10	10000	1	1	0	1	0
81	216	10	10000	1	1	0	1	0
77	217	10	10000	1	1	0	1	0
76	218	10	10000	1	1	0	1	0
77	219	10	10000	1	1	0	1	0
78	220	10	10000	1	1	0	1	0
77	221	10	10000	1	1	0	1	0
74	222	10	10000	1	1	0	1	0
73	223	10	10000	1	1	0	1	0
73	224	10	10000	1	1	0	1	0
71	225	10	10000	1	1	0	1	0
68	226	10	10000	1	1	0	1	0
65	227	10	10000	1	1	0	1	0
65	228	10	10000	1	1	0	1	0
63	229	10	10000	1	1	0	1	0
59	230	10	10000	1	1	0	1	0
58	231	10	10000	1	1	0	1	0
56	232	10	10000	1	1	0	1	0
55	233	10	10000	1	1	0	1	0
54	234	10	10000	1	1	0	1	0
54	235	10	10000	1	1	0	1	0
54	236	10	10000	1	1	0	1	0
51	237	10	10000	1	1	0	1	0
52	238	10	10000	1	1	0	1	0
52	239	10	10000	1	1	0	1	0
55	240	10	10000	1	1	0	1	0
55	241	10	10000	1	1	0	1	0
54	242	10	10000	1	1	0	1	0
52	243	10	10000	1	1	0	1	0
51	244	10	10000	1	1	0	1	0
53	245	10	10000	1	1	0	1	0
52	246	10	10000	1	1	0	1	0
52	247	10	10000	1	1	0	1	0
50	248	10	10000	1	1	0	1	0
49	249	10	10000	1	1	0	1	0
46	250	10	10000	1	1	0	1	0
45	251	10	10000	1	1	0	1	0
45	252	10	10000	1	1	0	1	0
44	253	10	10000	1	1	0	1	0
46	254	10	10000	1	1	0	1	0
46	255	10	10000	1	1	0	1	0
44	256	10	10000	1	1	0	1	0
42	257	10	10000	1	1	0	1	0
41	258	10	10000	1	1	0	1	0
42	259	10	10000	1	1	0	1	0
43	260	10	10000	1	1	0	1	0
43	261	10	10000	1	1	0	1	0
42	262	10	10000	1	1	0	1	0
41	263	10	10000	1	1	0	1	0
41	264	10	10000	1	1	0	1	0
40	265	10	10000	1	1	0	1	0
39	266	10	10000	1	1	0	1	0
37	267	10	10000	1	1	0	1	0
36	268	10	10000	1	1	0	1	0
37	269	10	10000	1	1	0	1	0
34	270	10	10000	1	1	0	1	0
34	271	10	10000	1	1	0	1	0
34	272	10	10000	1	1	0	1	0
34	273	10	10000	1	1	0	1	0
33	274	10	10000	1	1	0	1	0
36	275	10	10000	1	1	0	1	0
36	276	10	10000	1	1	0	1	0
36	277	10	10000	1	1	0	1	0
34	278	10	10000	1	1	0	1	0
34	279	10	10000	1	1	0	1	0
36	280	10	10000	1	1	0	1	0
34	281	10	10000	1	1	0	1	0
35	282	10	10000	1	1	0	1	0
37	283	10	10000	1	1	0	1	0
36	284	10	10000	1	1	0	1	0
35	285	10	10000	1	1	0	1	0
34	286	10	10000	1	1	0	1	0
34	287	10	10000	1	1	0	1	0
34	288	10	10000	1	1	0	1	0
36	289	10	10000	1	1	0	1	0
35	290	10	10000	1	1	0	1	0
35	291	10	10000	1	1	0	1	0
34	292	10	10000	1	1	0	1	0
36	293	10	10000	1	1	0	1	0
35	294	10	10000	1	1	0	1	0
34	295	10	10000	1	1	0	1	0
34	296	10	10000	1	1	0	1	0
33	297	10	10000	1	1	0	1	0
32	298	10	10000	1	1	0	1	0
32	299	10	10000	1	1	0	1	0
34	300	10	10000	1	1	0	1	0
34	301	10	10000	1	1	0	1	0
36	302	10	10000	1	1	0	1	0
36	303	10	10000	1	1	0	1	0
39	304	10	10000	1	1	0	1	0
39	305	10	10000	1	1	0	1	0
38	306	10	10000	1	1	0	1	0
38	307	10	10000	1	1	0	1	0
37	308	10	10000	1	1	0	1	0
36	309	10	10000	1	1	0	1	0
34	310	10	10000	1	1	0	1	0
34	311	10	10000	1	1	0	1	0
33	312	10	10000	1	1	0	1	0
32	313	10	10000	1	1	0	1	0
32	314	10	10000	1	1	0	1	0
32	315	10	10000	1	1	0	1	0
34	316	10	10000	1	1	0	1	0
32	317	10	10000	1	1	0	1	0
30	318	10	10000	1	1	0	1	0
30	319	10	10000	1	1	0	1	0
32	320	10	10000	1	1	0	1	0
32	321	10	10000	1	1	0	1	0
32	322	10	10000	1	1	0	1	0
31	323	10	10000	1	1	0	1	0
30	324	10	10000	1	1	0	1	0
29	325	10	10000	1	1	0	1	0
29	326	10	10000	1	1	0	1	0
32	327	10	10000	1	1	0	1	0
33	328	10	10000	1	1	0	1	0
37	329	10	10000	1	1	0	1	0
38	330	10	10000	1	1	0	1	0
41	331	10	10000	1	1	0	1	0
41	332	10	10000	1	1	0	1	0
41	333	10	10000	1	1	0	1	0
39	334	10	10000	1	1	0	1	0
40	335	10	10000	1	1	0	1	0
39	336	10	10000	1	1	0	1	0
37	337	10	10000	1	1	0	1	0
38	338	10	10000	1	1	0	1	0
38	339	10	10000	1	1	0	1	0
39	340	10	10000	1	1	0	1	0
38	341	10	10000	1	1	0	1	0
40	342	10	10000	1	1	0	1	0
42	343	10	10000	1	1	0	1	0
47	344	10	10000	1	1	0	1	0
46	345	10	10000	1	1	0	1	0
45	346	10	10000	1	1	0	1	0
44	347	10	10000	1	1	0	1	0
46	348	10	10000	1	1	0	1	0
46	349	10	10000	1	1	0	1	0
45	350	10	10000	1	1	0	1	0
44	351	10	10000	1	1	0	1	0
44	352	10	10000	1	1	0	1	0
43	353	10	10000	1	1	0	1	0
43	354	10	10000	1	1	0	1	0
43	355	10	10000	1	1	0	1	0
42	356	10	10000	1	1	0	1	0
41	357	10	10000	1	1	0	1	0
39	358	10	10000	1	1	0	1	0
39	359	10	10000	1	1	0	1	0
40	360	10	10000	1	1	0	1	0
40	361	10	10000	1	1	0	1	0
38	362	10	10000	1	1	0	1	0
39	363	10	10000	1	1	0	1	0
39	364	10	10000	1	1	0	1	0
39	365	10	10000	1	1	0	1	0
40	366	10	10000	1	1	0	1	0
39	367	10	10000	1	1	0	1	0
40	368	10	10000	1	1	0	1	0
39	369	10	10000	1	1	0	1	0
37	370	10	10000	1	1	0	1	0
36	371	10	10000	1	1	0	1	0
35	372	10	10000	1	1	0	1	0
35	373	10	10000	1	1	0	1	0
33	374	10	10000	1	1	0	1	0
34	375	10	10000	1	1	0	1	0
34	376	10	10000	1	1	0	1	0
32	377	10	10000	1	1	0	1	0
32	378	10	10000	1	1	0	1	0
30	379	10	10000	1	1	0	1	0
32	380	10	10000	1	1	0	1	0
31	381	10	10000	1	1	0	1	0
30	382	10	10000	1	1	0	1	0
29	383	10	10000	1	1	0	1	0
29	384	10	10000	1	1	0	1	0
29	385	10	10000	1	1	0	1	0
27	386	10	10000	1	1	0	1	0
27	387	10	10000	1	1	0	1	0
27	388	10	10000	1	1	0	1	0
28	389	10	10000	1	1	0	1	0
26	390	10	10000	1	1	0	1	0
25	391	10	10000	1	1	0	1	0
26	392	10	10000	1	1	0	1	0
26	393	10	10000	1	1	0	1	0
25	394	10	10000	1	1	0	1	0
27	395	10	10000	1	1	0	1	0
30	396	10	10000	1	1	0	1	0
29	397	10	10000	1	1	0	1	0
28	398	10	10000	1	1	0	1	0
31	399	10	10000	1	1	0	1	0
32	400	10	10000	1	1	0	1	0
31	401	10	10000	1	1	0	1	0
32	402	10	10000	1	1	0	1	0
32	403	10	10000	1	1	0	1	0
31	404	10	10000	1	1	0	1	0
30	405	10	10000	1	1	0	1	0
29	406	10	10000	1	1	0	1	0
29	407	10	10000	1	1	0	1	0
29	408	10	10000	1	1	0	1	0
31	409	10	10000	1	1	0	1	0
30	410	10	10000	1	1	0	1	0
28	411	10	10000	1	1	0	1	0
29	412	10	10000	1	1	0	1	0
30	413	10	10000	1	1	0	1	0
29	414	10	10000	1	1	0	1	0
29	415	10	10000	1	1	0	1	0
30	416	10	10000	1	1	0	1	0
31	417	10	10000	1	1	0	1	0
30	418	10	10000	1	1	0	1	0
30	419	10	10000	1	1	0	1	0
31	420	10	10000	1	1	0	1	0
33	421	10	10000	1	1	0	1	0
33	422	10	10000	1	1	0	1	0
33	423	10	10000	1	1	0	1	0
34	424	10	10000	1	1	0	1	0
33	425	10	10000	1	1	0	1	0
33	426	10	10000	1	1	0	1	0
34	427	10	10000	1	1	0	1	0
33	428	10	10000	1	1	0	1	0
33	429	10	10000	1	1	0	1	0
31	430	10	10000	1	1	0	1	0
30	431	10	10000	1	1	0	1	0
31	432	10	10000	1	1	0	1	0
31	433	10	10000	1	1	0	1	0
31	434	10	10000	1	1	0	1	0
31	435	10	10000	1	1	0	1	0
30	436	10	10000	1	1	0	1	0
29	437	10	10000	1	1	0	1	0
28	438	10	10000	1	1	0	1	0
27	439	10	10000	1	1	0	1	0
28	440	10	10000	1	1	0	1	0
27	441	10	10000	1	1	0	1	0
26	442	10	10000	1	1	0	1	0
27	443	10	10000	1	1	0	1	0
28	444	10	10000	1	1	0	1	0
26	445	10	10000	1	1	0	1	0
27	446	10	10000	1	1	0	1	0
29	447	10	10000	1	1	0	1	0
29	448	10	10000	1	1	0	1	0
30	449	10	10000	1	1	0	1	0
30	450	10	10000	1	1	0	1	0
30	451	10	10000	1	1	0	1	0
32	452	10	10000	1	1	0	1	0
34	453	10	10000	1	1	0	1	0
36	454	10	10000	1	1	0	1	0
35	455	10	10000	1	1	0	1	0
35	456	10	10000	1	1	0	1	0
34	457	10	10000	1	1	0	1	0
34	458	10	10000	1	1	0	1	0
33	459	10	10000	1	1	0	1	0
35	460	10	10000	1	1	0	1	0
34	461	10	10000	1	1	0	1	0
33	462	10	10000	1	1	0	1	0
32	463	10	10000	1	1	0	1	0
32	464	10	10000	1	1	0	1	0
32	465	10	10000	1	1	0	1	0
31	466	10	10000	1	1	0	1	0
31	467	10	10000	1	1	0	1	0
32	468	10	10000	1	1	0	1	0
33	469	10	10000	1	1	0	1	0
35	470	10	10000	1	1	0	1	0
41	471	10	10000	1	1	0	1	0
44	472	10	10000	1	1	0	1	0
46	473	10	10000	1	1	0	1	0
44	474	10	10000	1	1	0	1	0
44	475	10	10000	1	1	0	1	0
44	476	10	10000	1	1	0	1	0
44	477	10	10000	1	1	0	1	0
44	478	10	10000	1	1	0	1	0
44	479	10	10000	1	1	0	1	0
45	480	10	10000	1	1	0	1	0
44	481	10	10000	1	1	0	1	0
44	482	10	10000	1	1	0	1	0
43	483	10	10000	1	1	0	1	0
41	484	10	10000	1	1	0	1	0
40	485	10	10000	1	1	0	1	0
39	486	10	10000	1	1	0	1	0
40	487	10	10000	1	1	0	1	0
40	488	10	10000	1	1	0	1	0
40	489	10	10000	1	1	0	1	0
39	490	10	10000	1	1	0	1	0
37	491	10	10000	1	1	0	1	0
36	492	10	10000	1	1	0	1	0
36	493	10	10000	1	1	0	1	0
35	494	10	10000	1	1	0	1	0
35	495	10	10000	1	1	0	1	0
35	496	10	10000	1	1	0	1	0
36	497	10	10000	1	1	0	1	0
35	498	10	10000	1	1	0	1	0
34	499	10	10000	1	1	0	1	0
35	500	10	10000	1	1	0	1	0
37	553	10	10000	1	1	0	1	1
37	554	10	10000	1	1	0	1	1
36	555	10	10000	1	1	0	1	1
36	556	10	10000	1	1	0	1	1
35	557	10	10000	1	1	0	1	1
35	558	10	10000	1	1	0	1	1
35	559	10	10000	1	1	0	1	1
34	560	10	10000	1	1	0	1	1
35	561	10	10000	1	1	0	1	1
32	562	10	10000	1	1	0	1	1
32	563	10	10000	1	1	0	1	1
32	564	10	10000	1	1	0	1	1
33	565	10	10000	1	1	0	1	1
33	566	10	10000	1	1	0	1	1
33	567	10	10000	1	1	0	1	1
33	568	10	10000	1	1	0	1	1
32	569	10	10000	1	1	0	1	1
32	570	10	10000	1	1	0	1	1
31	571	10	10000	1	1	0	1	1
32	572	10	10000	1	1	0	1	1
33	573	10	10000	1	1	0	1	1
32	574	10	10000	1	1	0	1	1
34	575	10	10000	1	1	0	1	1
33	576	10	10000	1	1	0	1	1
33	577	10	10000	1	1	0	1	1
34	578	10	10000	1	1	0	1	1
34	579	10	10000	1	1	0	1	1
34	580	10	10000	1	1	0	1	1
34	581	10	10000	1	1	0	1	1
32	582	10	10000	1	1	0	1	1
34	583	10	10000	1	1	0	1	1
35	584	10	10000	1	1	0	1	1
37	585	10	10000	1	1	0	1	1
38	586	10	10000	1	1	0	1	1
40	587	10	10000	1	1	0	1	1
39	588	10	10000	1	1	0	1	1
39	589	10	10000	1	1	0	1	1
38	590	10	10000	1	1	0	1	1
36	591	10	10000	1	1	0	1	1
38	592	10	10000	1	1	0	1	1
38	593	10	10000	1	1	0	1	1
37	594	10	10000	1	1	0	1	1
36	595	10	10000	1	1	0	1	1
36	596	10	10000	1	1	0	1	1
38	597	10	10000	1	1	0	1	1
36	598	10	10000	1	1	0	1	1
35	599	10	10000	1	1	0	1	1
35	600	10	10000	1	1	0	1	1
36	601	10	10000	1	1	0	1	1
34	602	10	10000	1	1	0	1	1
33	603	10	10000	1	1	0	1	1
32	604	10	10000	1	1	0	1	1
33	605	10	10000	1	1	0	1	1
35	606	10	10000	1	1	0	1	1
37	557	10	10000	1	1	0	1	0
42	558	10	10000	1	1	0	1	0
42	559	10	10000	1	1	0	1	0
43	560	10	10000	1	1	0	1	0
43	559	10	10000	1	1	0	1	0
46	560	10	10000	1	1	0	1	0
47	561	10	10000	1	1	0	1	0
47	562	10	10000	1	1	0	1	0
45	563	10	10000	1	1	0	1	0
47	564	10	10000	1	1	0	1	0
45	565	10	10000	1	1	0	1	0
44	566	10	10000	1	1	0	1	0
44	567	10	10000	1	1	0	1	0
45	568	10	10000	1	1	0	1	0
44	569	10	10000	1	1	0	1	0
44	570	10	10000	1	1	0	1	0
42	571	10	10000	1	1	0	1	0
43	572	10	10000	1	1	0	1	0
42	573	10	10000	1	1	0	1	0
42	574	10	10000	1	1	0	1	0
44	575	10	10000	1	1	0	1	0
50	576	10	10000	1	1	0	1	0
54	577	10	10000	1	1	0	1	0
57	578	10	10000	1	1	0	1	0
55	579	10	10000	1	1	0	1	0
54	580	10	10000	1	1	0	1	0
55	581	10	10000	1	1	0	1	0
54	582	10	10000	1	1	0	1	0
55	583	10	10000	1	1	0	1	0
55	584	10	10000	1	1	0	1	0
55	585	10	10000	1	1	0	1	0
54	586	10	10000	1	1	0	1	0
56	587	10	10000	1	1	0	1	0
59	588	10	10000	1	1	0	1	0
63	589	10	10000	1	1	0	1	0
64	590	10	10000	1	1	0	1	0
65	591	10	10000	1	1	0	1	0
65	592	10	10000	1	1	0	1	0
63	593	10	10000	1	1	0	1	0
65	594	10	10000	1	1	0	1	0
68	595	10	10000	1	1	0	1	0
72	596	10	10000	1	1	0	1	0
75	597	10	10000	1	1	0	1	0
76	598	10	10000	1	1	0	1	0
75	599	10	10000	1	1	0	1	0
77	600	10	10000	1	1	0	1	0
80	601	10	10000	1	1	0	1	0
77	602	10	10000	1	1	0	1	0
77	603	10	10000	1	1	0	1	0
75	604	10	10000	1	1	0	1	0
76	605	10	10000	1	1	0	1	0
77	606	10	10000	1	1	0	1	0
74	607	10	10000	1	1	0	1	0
73	608	10	10000	1	1	0	1	0
71	609	10	10000	1	1	0	1	0
71	610	10	10000	1	1	0	1	0
70	611	10	10000	1	1	0	1	0
68	612	10	10000	1	1	0	1	0
67	613	10	10000	1	1	0	1	0
66	614	10	10000	1	1	0	1	0
66	615	10	10000	1	1	0	1	0
67	616	10	10000	1	1	0	1	0
64	617	10	10000	1	1	0	1	0
62	618	10	10000	1	1	0	1	0
60	619	10	10000	1	1	0	1	0
60	620	10	10000	1	1	0	1	0
59	621	10	10000	1	1	0	1	0
58	622	10	10000	1	1	0	1	0
56	623	10	10000	1	1	0	1	0
56	624	10	10000	1	1	0	1	0
54	625	10	10000	1	1	0	1	0
52	626	10	10000	1	1	0	1	0
51	627	10	10000	1	1	0	1	0
50	628	10	10000	1	1	0	1	0
50	629	10	10000	1	1	0	1	0
49	630	10	10000	1	1	0	1	0
46	631	10	10000	1	1	0	1	0
46	632	10	10000	1	1	0	1	0
45	633	10	10000	1	1	0	1	0
51	634	10	10000	1	1	0	1	0
59	635	10	10000	1	1	0	1	0
64	636	10	10000	1	1	0	1	0
76	637	10	10000	1	1	0	1	0
93	638	10	10000	1	1	0	1	0
94	639	10	10000	1	1	0	1	0
117	640	10	10000	1	1	0	1	0
138	641	10	10000	1	1	0	1	0
137	642	10	10000	1	1	0	1	0
152	643	10	10000	1	1	0	1	0
190	644	10	10000	1	1	0	1	0
214	645	10	10000	1	1	0	1	0
219	646	10	10000	1	1	0	1	0
240	647	10	10000	1	1	0	1	0
238	648	10	10000	1	1	0	1	0
242	649	10	10000	1	1	0	1	0
259	650	10	10000	1	1	0	1	0
283	651	10	10000	1	1	0	1	0
304	652	10	10000	1	1	0	1	0
299	653	10	10000	1	1	0	1	0
292	654	10	10000	1	1	0	1	0
285	655	10	10000	1	1	0	1	0
294	656	10	10000	1	1	0	1	0
297	657	10	10000	1	1	0	1	0
297	658	10	10000	1	1	0	1	0
328	659	10	10000	1	1	0	1	0
360	660	10	10000	1	1	0	1	0
373	661	10	10000	1	1	0	1	0
371	662	10	10000	1	1	0	1	0
402	663	10	10000	1	1	0	1	0
418	664	10	10000	1	1	0	1	0
450	665	10	10000	1	1	0	1	0
467	666	10	10000	1	1	0	1	0
458	667	10	10000	1	1	0	1	0
478	668	10	10000	1	1	0	1	0
583	669	10	10000	1	1	0	1	0
654	670	10	10000	1	1	0	1	0
647	671	10	10000	1	1	0	1	0
693	672	10	10000	1	1	0	1	0
757	673	10	10000	1	1	0	1	0
781	674	10	10000	1	1	0	1	0
788	675	10	10000	1	1	0	1	0
787	676	10	10000	1	1	0	1	0
776	677	10	10000	1	1	0	1	0
760	678	10	10000	1	1	0	1	0
734	679	10	10000	1	1	0	1	0
703	680	10	10000	1	1	0	1	0
680	681	10	10000	1	1	0	1	0
662	682	10	10000	1	1	0	1	0
649	683	10	10000	1	1	0	1	0
642	684	10	10000	1	1	0	1	0
638	685	10	10000	1	1	0	1	0
631	686	10	10000	1	1	0	1	0
613	687	10	10000	1	1	0	1	0
602	688	10	10000	1	1	0	1	0
594	689	10	10000	1	1	0	1	0
586	690	10	10000	1	1	0	1	0
574	691	10	10000	1	1	0	1	0
559	692	10	10000	1	1	0	1	0
546	693	10	10000	1	1	0	1	0
536	694	10	10000	1	1	0	1	0
519	695	10	10000	1	1	0	1	0
496	696	10	10000	1	1	0	1	0
479	697	10	10000	1	1	0	1	0
467	698	10	10000	1	1	0	1	0
454	699	10	10000	1	1	0	1	0
436	700	10	10000	1	1	0	1	0
417	701	10	10000	1	1	0	1	0
399	702	10	10000	1	1	0	1	0
381	703	10	10000	1	1	0	1	0
363	704	10	10000	1	1	0	1	0
350	705	10	10000	1	1	0	1	0
336	706	10	10000	1	1	0	1	0
325	707	10	10000	1	1	0	1	0
316	708	10	10000	1	1	0	1	0
305	709	10	10000	1	1	0	1	0
296	710	10	10000	1	1	0	1	0
291	711	10	10000	1	1	0	1	0
293	712	10	10000	1	1	0	1	0
290	713	10	10000	1	1	0	1	0
295	714	10	10000	1	1	0	1	0
299	715	10	10000	1	1	0	1	0
301	716	10	10000	1	1	0	1	0
302	717	10	10000	1	1	0	1	0
299	718	10	10000	1	1	0	1	0
297	719	10	10000	1	1	0	1	0
295	720	10	10000	1	1	0	1	0
294	721	10	10000	1	1	0	1	0
292	722	10	10000	1	1	0	1	0
291	723	10	10000	1	1	0	1	0
289	724	10	10000	1	1	0	1	0
288	725	10	10000	1	1	0	1	0
288	726	10	10000	1	1	0	1	0
285	727	10	10000	1	1	0	1	0
285	728	10	10000	1	1	0	1	0
285	729	10	10000	1	1	0	1	0
280	730	10	10000	1	1	0	1	0
277	731	10	10000	1	1	0	1	0
274	732	10	10000	1	1	0	1	0
272	733	10	10000	1	1	0	1	0
268	734	10	10000	1	1	0	1	0
265	735	10	10000	1	1	0	1	0
261	736	10	10000	1	1	0	1	0
256	737	10	10000	1	1	0	1	0
251	738	10	10000	1	1	0	1	0
245	739	10	10000	1	1	0	1	0
242	740	10	10000	1	1	0	1	0
238	741	10	10000	1	1	0	1	0
236	742	10	10000	1	1	0	1	0
232	743	10	10000	1	1	0	1	0
232	744	10	10000	1	1	0	1	0
230	745	10	10000	1	1	0	1	0
225	746	10	10000	1	1	0	1	0
219	747	10	10000	1	1	0	1	0
211	748	10	10000	1	1	0	1	0
205	749	10	10000	1	1	0	1	0
195	750	10	10000	1	1	0	1	0
186	751	10	10000	1	1	0	1	0
182	752	10	10000	1	1	0	1	0
177	753	10	10000	1	1	0	1	0
174	754	10	10000	1	1	0	1	0
170	755	10	10000	1	1	0	1	0
164	756	10	10000	1	1	0	1	0
159	757	10	10000	1	1	0	1	0
152	758	10	10000	1	1	0	1	0
145	759	10	10000	1	1	0	1	0
140	760	10	10000	1	1	0	1	0
136	761	10	10000	1	1	0	1	0
130	762	10	10000	1	1	0	1	0
125	763	10	10000	1	1	0	1	0
120	764	10	10000	1	1	0	1	0
115	765	10	10000	1	1	0	1	0
112	766	10	10000	1	1	0	1	0
107	767	10	10000	1	1	0	1	0
104	768	10	10000	1	1	0	1	0
100	769	10	10000	1	1	0	1	0
95	770	10	10000	1	1	0	1	0
91	771	10	10000	1	1	0	1	0
89	772	10	10000	1	1	0	1	0
89	773	10	10000	1	1	0	1	0
87	774	10	10000	1	1	0	1	0
87	775	10	10000	1	1	0	1	0
85	776	10	10000	1	1	0	1	0
83	777	10	10000	1	1	0	1	0
80	778	10	10000	1	1	0	1	0
76	779	10	10000	1	1	0	1	0
75	780	10	10000	1	1	0	1	0
73	781	10	10000	1	1	0	1	0
70	782	10	10000	1	1	0	1	0
69	783	10	10000	1	1	0	1	0
68	784	10	10000	1	1	0	1	0
66	785	10	10000	1	1	0	1	0
66	786	10	10000	1	1	0	1	0
66	787	10	10000	1	1	0	1	0
65	788	10	10000	1	1	0	1	0
68	789	10	10000	1	1	0	1	0
67	790	10	10000	1	1	0	1	0
68	791	10	10000	1	1	0	1	0
69	792	10	10000	1	1	0	1	0
68	793	10	10000	1	1	0	1	0
68	794	10	10000	1	1	0	1	0
68	795	10	10000	1	1	0	1	0
71	796	10	10000	1	1	0	1	0
69	797	10	10000	1	1	0	1	0
70	798	10	10000	1	1	0	1	0
70	799	10	10000	1	1	0	1	0
74	800	10	10000	1	1	0	1	0
75	801	10	10000	1	1	0	1	0
74	802	10	10000	1	1	0	1	0
76	803	10	10000	1	1	0	1	0
80	804	10	10000	1	1	0	1	0
84	805	10	10000	1	1	0	1	0
83	806	10	10000	1	1	0	1	0
79	807	10	10000	1	1	0	1	0
79	808	10	10000	1	1	0	1	0
78	809	10	10000	1	1	0	1	0
74	810	10	10000	1	1	0	1	0
71	811	10	10000	1	1	0	1	0
74	812	10	10000	1	1	0	1	0
73	813	10	10000	1	1	0	1	0
74	814	10	10000	1	1	0	1	0
71	815	10	10000	1	1	0	1	0
69	816	10	10000	1	1	0	1	0
73	817	10	10000	1	1	0	1	0
75	818	10	10000	1	1	0	1	0
73	819	10	10000	1	1	0	1	0
71	820	10	10000	1	1	0	1	0
71	821	10	10000	1	1	0	1	0
69	822	10	10000	1	1	0	1	0
68	823	10	10000	1	1	0	1	0
66	824	10	10000	1	1	0	1	0
66	825	10	10000	1	1	0	1	0
65	826	10	10000	1	1	0	1	0
64	827	10	10000	1	1	0	1	0
67	828	10	10000	1	1	0	1	0
68	829	10	10000	1	1	0	1	0
74	830	10	10000	1	1	0	1	0
77	831	10	10000	1	1	0	1	0
79	832	10	10000	1	1	0	1	0
76	833	10	10000	1	1	0	1	0
74	834	10	10000	1	1	0	1	0
74	835	10	10000	1	1	0	1	0
72	836	10	10000	1	1	0	1	0
69	837	10	10000	1	1	0	1	0
69	838	10	10000	1	1	0	1	0
68	839	10	10000	1	1	0	1	0
65	840	10	10000	1	1	0	1	0
65	841	10	10000	1	1	0	1	0
63	842	10	10000	1	1	0	1	0
62	843	10	10000	1	1	0	1	0
62	844	10	10000	1	1	0	1	0
60	845	10	10000	1	1	0	1	0
58	846	10	10000	1	1	0	1	0
60	847	10	10000	1	1	0	1	0
62	848	10	10000	1	1	0	1	0
62	849	10	10000	1	1	0	1	0
59	850	10	10000	1	1	0	1	0
57	851	10	10000	1	1	0	1	0
58	852	10	10000	1	1	0	1	0
65	853	10	10000	1	1	0	1	0
74	854	10	10000	1	1	0	1	0
86	855	10	10000	1	1	0	1	0
89	856	10	10000	1	1	0	1	0
87	857	10	10000	1	1	0	1	0
87	858	10	10000	1	1	0	1	0
92	859	10	10000	1	1	0	1	0
98	860	10	10000	1	1	0	1	0
102	861	10	10000	1	1	0	1	0
100	862	10	10000	1	1	0	1	0
97	863	10	10000	1	1	0	1	0
95	864	10	10000	1	1	0	1	0
99	865	10	10000	1	1	0	1	0
110	866	10	10000	1	1	0	1	0
119	867	10	10000	1	1	0	1	0
122	868	10	10000	1	1	0	1	0
123	869	10	10000	1	1	0	1	0
117	870	10	10000	1	1	0	1	0
112	871	10	10000	1	1	0	1	0
111	872	10	10000	1	1	0	1	0
111	873	10	10000	1	1	0	1	0
111	874	10	10000	1	1	0	1	0
108	875	10	10000	1	1	0	1	0
112	876	10	10000	1	1	0	1	0
113	877	10	10000	1	1	0	1	0
112	878	10	10000	1	1	0	1	0
106	879	10	10000	1	1	0	1	0
106	880	10	10000	1	1	0	1	0
105	881	10	10000	1	1	0	1	0
102	882	10	10000	1	1	0	1	0
98	883	10	10000	1	1	0	1	0
95	884	10	10000	1	1	0	1	0
92	885	10	10000	1	1	0	1	0
93	886	10	10000	1	1	0	1	0
95	887	10	10000	1	1	0	1	0
93	888	10	10000	1	1	0	1	0
95	889	10	10000	1	1	0	1	0
97	890	10	10000	1	1	0	1	0
96	891	10	10000	1	1	0	1	0
98	892	10	10000	1	1	0	1	0
98	893	10	10000	1	1	0	1	0
95	894	10	10000	1	1	0	1	0
95	895	10	10000	1	1	0	1	0
96	896	10	10000	1	1	0	1	0
94	897	10	10000	1	1	0	1	0
91	898	10	10000	1	1	0	1	0
89	899	10	10000	1	1	0	1	0
86	900	10	10000	1	1	0	1	0
84	901	10	10000	1	1	0	1	0
80	902	10	10000	1	1	0	1	0
80	903	10	10000	1	1	0	1	0
77	904	10	10000	1	1	0	1	0
75	905	10	10000	1	1	0	1	0
72	906	10	10000	1	1	0	1	0
69	907	10	10000	1	1	0	1	0
70	908	10	10000	1	1	0	1	0
71	909	10	10000	1	1	0	1	0
74	910	10	10000	1	1	0	1	0
73	911	10	10000	1	1	0	1	0
72	912	10	10000	1	1	0	1	0
69	913	10	10000	1	1	0	1	0
69	914	10	10000	1	1	0	1	0
68	915	10	10000	1	1	0	1	0
65	916	10	10000	1	1	0	1	0
66	917	10	10000	1	1	0	1	0
61	918	10	10000	1	1	0	1	0
60	919	10	10000	1	1	0	1	0
60	920	10	10000	1	1	0	1	0
60	921	10	10000	1	1	0	1	0
60	922	10	10000	1	1	0	1	0
67	923	10	10000	1	1	0	1	0
78	924	10	10000	1	1	0	1	0
85	925	10	10000	1	1	0	1	0
90	926	10	10000	1	1	0	1	0
89	927	10	10000	1	1	0	1	0
87	928	10	10000	1	1	0	1	0
87	929	10	10000	1	1	0	1	0
86	930	10	10000	1	1	0	1	0
83	931	10	10000	1	1	0	1	0
80	932	10	10000	1	1	0	1	0
79	933	10	10000	1	1	0	1	0
82	934	10	10000	1	1	0	1	0
79	935	10	10000	1	1	0	1	0
76	936	10	10000	1	1	0	1	0
74	937	10	10000	1	1	0	1	0
70	938	10	10000	1	1	0	1	0
68	939	10	10000	1	1	0	1	0
67	940	10	10000	1	1	0	1	0
68	941	10	10000	1	1	0	1	0
65	942	10	10000	1	1	0	1	0
65	943	10	10000	1	1	0	1	0
64	944	10	10000	1	1	0	1	0
66	945	10	10000	1	1	0	1	0
66	946	10	10000	1	1	0	1	0
63	947	10	10000	1	1	0	1	0
62	948	10	10000	1	1	0	1	0
61	949	10	10000	1	1	0	1	0
58	950	10	10000	1	1	0	1	0
57	951	10	10000	1	1	0	1	0
57	952	10	10000	1	1	0	1	0
56	953	10	10000	1	1	0	1	0
56	954	10	10000	1	1	0	1	0
54	955	10	10000	1	1	0	1	0
53	956	10	10000	1	1	0	1	0
53	957	10	10000	1	1	0	1	0
50	958	10	10000	1	1	0	1	0
52	959	10	10000	1	1	0	1	0
52	960	10	10000	1	1	0	1	0
54	961	10	10000	1	1	0	1	0
52	962	10	10000	1	1	0	1	0
52	963	10	10000	1	1	0	1	0
52	964	10	10000	1	1	0	1	0
51	965	10	10000	1	1	0	1	0
52	966	10	10000	1	1	0	1	0
53	967	10	10000	1	1	0	1	0
55	968	10	10000	1	1	0	1	0
58	969	10	10000	1	1	0	1	0
61	970	10	10000	1	1	0	1	0
61	971	10	10000	1	1	0	1	0
58	972	10	10000	1	1	0	1	0
56	973	10	10000	1	1	0	1	0
56	974	10	10000	1	1	0	1	0
54	975	10	10000	1	1	0	1	0
52	976	10	10000	1	1	0	1	0
54	977	10	10000	1	1	0	1	0
55	978	10	10000	1	1	0	1	0
53	979	10	10000	1	1	0	1	0
54	980	10	10000	1	1	0	1	0
53	981	10	10000	1	1	0	1	0
52	982	10	10000	1	1	0	1	0
54	983	10	10000	1	1	0	1	0
53	984	10	10000	1	1	0	1	0
51	985	10	10000	1	1	0	1	0
50	986	10	10000	1	1	0	1	0
49	987	10	10000	1	1	0	1	0
52	988	10	10000	1	1	0	1	0
57	989	10	10000	1	1	0	1	0
60	990	10	10000	1	1	0	1	0
63	991	10	10000	1	1	0	1	0
61	992	10	10000	1	1	0	1	0
61	993	10	10000	1	1	0	1	0
60	994	10	10000	1	1	0	1	0
58	995	10	10000	1	1	0	1	0
57	996	10	10000	1	1	0	1	0
55	997	10	10000	1	1	0	1	0
54	998	10	10000	1	1	0	1	0
52	999	10	10000	1	1	0	1	0
52	1000	10	10000	1	1	0	1	0
26	2	0	10000	2	1	0	2	0
26	3	0	10000	2	1	0	2	0
27	4	0	10000	2	1	0	2	0
25	5	0	10000	2	1	0	2	0
24	6	0	10000	2	1	0	2	0
25	7	0	10000	2	1	0	2	0
27	8	0	10000	2	1	0	2	0
27	9	0	10000	2	1	0	2	0
26	10	0	10000	2	1	0	2	0
25	11	0	10000	2	1	0	2	0
26	12	0	10000	2	1	0	2	0
25	13	0	10000	2	1	0	2	0
25	14	0	10000	2	1	0	2	0
25	15	0	10000	2	1	0	2	0
25	16	0	10000	2	1	0	2	0
24	17	0	10000	2	1	0	2	0
23	18	0	10000	2	1	0	2	0
23	19	0	10000	2	1	0	2	0
23	20	0	10000	2	1	0	2	0
24	21	0	10000	2	1	0	2	0
24	21	0	10000	2	1	0	2	0
24	22	0	10000	2	1	0	2	0
24	24	0	10000	2	1	0	2	0
23	25	0	10000	2	1	0	2	0
23	26	0	10000	2	1	0	2	0
22	27	0	10000	2	1	0	2	0
24	28	0	10000	2	1	0	2	0
24	29	0	10000	2	1	0	2	0
24	30	0	10000	2	1	0	2	0
23	31	0	10000	2	1	0	2	0
23	31	0	10000	2	1	0	2	0
22	32	0	10000	2	1	0	2	0
22	34	0	10000	2	1	0	2	0
23	35	0	10000	2	1	0	2	0
23	36	0	10000	2	1	0	2	0
24	37	0	10000	2	1	0	2	0
21	38	0	10000	2	1	0	2	0
22	39	0	10000	2	1	0	2	0
22	40	0	10000	2	1	0	2	0
22	41	0	10000	2	1	0	2	0
21	41	0	10000	2	1	0	2	0
22	42	0	10000	2	1	0	2	0
23	44	0	10000	2	1	0	2	0
23	45	0	10000	2	1	0	2	0
24	46	0	10000	2	1	0	2	0
24	47	0	10000	2	1	0	2	0
25	48	0	10000	2	1	0	2	0
26	49	0	10000	2	1	0	2	0
24	50	0	10000	2	1	0	2	0
23	51	0	10000	2	1	0	2	0
24	51	0	10000	2	1	0	2	0
23	52	0	10000	2	1	0	2	0
22	54	0	10000	2	1	0	2	0
24	55	0	10000	2	1	0	2	0
25	56	0	10000	2	1	0	2	0
25	57	0	10000	2	1	0	2	0
24	58	0	10000	2	1	0	2	0
25	59	0	10000	2	1	0	2	0
25	60	0	10000	2	1	0	2	0
28	61	0	10000	2	1	0	2	0
28	61	0	10000	2	1	0	2	0
28	62	0	10000	2	1	0	2	0
28	64	0	10000	2	1	0	2	0
27	65	0	10000	2	1	0	2	0
27	66	0	10000	2	1	0	2	0
26	67	0	10000	2	1	0	2	0
28	68	0	10000	2	1	0	2	0
28	69	0	10000	2	1	0	2	0
27	70	0	10000	2	1	0	2	0
26	71	0	10000	2	1	0	2	0
26	71	0	10000	2	1	0	2	0
26	72	0	10000	2	1	0	2	0
26	74	0	10000	2	1	0	2	0
27	75	0	10000	2	1	0	2	0
28	76	0	10000	2	1	0	2	0
28	77	0	10000	2	1	0	2	0
26	78	0	10000	2	1	0	2	0
26	79	0	10000	2	1	0	2	0
27	80	0	10000	2	1	0	2	0
26	81	0	10000	2	1	0	2	0
26	81	0	10000	2	1	0	2	0
26	82	0	10000	2	1	0	2	0
26	84	0	10000	2	1	0	2	0
26	85	0	10000	2	1	0	2	0
26	86	0	10000	2	1	0	2	0
26	87	0	10000	2	1	0	2	0
27	88	0	10000	2	1	0	2	0
27	89	0	10000	2	1	0	2	0
26	90	0	10000	2	1	0	2	0
26	91	0	10000	2	1	0	2	0
26	91	0	10000	2	1	0	2	0
26	92	0	10000	2	1	0	2	0
25	94	0	10000	2	1	0	2	0
27	95	0	10000	2	1	0	2	0
27	96	0	10000	2	1	0	2	0
26	97	0	10000	2	1	0	2	0
25	98	0	10000	2	1	0	2	0
25	99	0	10000	2	1	0	2	0
24	100	0	10000	2	1	0	2	0
26	101	0	10000	2	1	0	2	0
26	101	0	10000	2	1	0	2	0
28	102	0	10000	2	1	0	2	0
27	104	0	10000	2	1	0	2	0
26	105	0	10000	2	1	0	2	0
26	106	0	10000	2	1	0	2	0
25	107	0	10000	2	1	0	2	0
27	108	0	10000	2	1	0	2	0
27	109	0	10000	2	1	0	2	0
27	110	0	10000	2	1	0	2	0
28	111	0	10000	2	1	0	2	0
31	111	0	10000	2	1	0	2	0
29	112	0	10000	2	1	0	2	0
29	114	0	10000	2	1	0	2	0
31	115	0	10000	2	1	0	2	0
30	116	0	10000	2	1	0	2	0
29	117	0	10000	2	1	0	2	0
28	118	0	10000	2	1	0	2	0
27	119	0	10000	2	1	0	2	0
27	120	0	10000	2	1	0	2	0
27	121	0	10000	2	1	0	2	0
27	121	0	10000	2	1	0	2	0
27	122	0	10000	2	1	0	2	0
26	124	0	10000	2	1	0	2	0
26	125	0	10000	2	1	0	2	0
26	126	0	10000	2	1	0	2	0
27	127	0	10000	2	1	0	2	0
28	128	0	10000	2	1	0	2	0
28	129	0	10000	2	1	0	2	0
27	130	0	10000	2	1	0	2	0
26	131	0	10000	2	1	0	2	0
26	131	0	10000	2	1	0	2	0
25	132	0	10000	2	1	0	2	0
26	134	0	10000	2	1	0	2	0
26	135	0	10000	2	1	0	2	0
27	136	0	10000	2	1	0	2	0
26	137	0	10000	2	1	0	2	0
25	138	0	10000	2	1	0	2	0
25	139	0	10000	2	1	0	2	0
26	140	0	10000	2	1	0	2	0
26	141	0	10000	2	1	0	2	0
25	141	0	10000	2	1	0	2	0
26	142	0	10000	2	1	0	2	0
26	144	0	10000	2	1	0	2	0
25	145	0	10000	2	1	0	2	0
26	146	0	10000	2	1	0	2	0
26	147	0	10000	2	1	0	2	0
28	148	0	10000	2	1	0	2	0
27	149	0	10000	2	1	0	2	0
29	150	0	10000	2	1	0	2	0
29	151	0	10000	2	1	0	2	0
30	151	0	10000	2	1	0	2	0
29	152	0	10000	2	1	0	2	0
29	154	0	10000	2	1	0	2	0
30	155	0	10000	2	1	0	2	0
29	156	0	10000	2	1	0	2	0
29	157	0	10000	2	1	0	2	0
27	158	0	10000	2	1	0	2	0
27	159	0	10000	2	1	0	2	0
29	160	0	10000	2	1	0	2	0
28	161	0	10000	2	1	0	2	0
28	161	0	10000	2	1	0	2	0
28	162	0	10000	2	1	0	2	0
28	164	0	10000	2	1	0	2	0
26	165	0	10000	2	1	0	2	0
27	166	0	10000	2	1	0	2	0
26	167	0	10000	2	1	0	2	0
28	168	0	10000	2	1	0	2	0
27	169	0	10000	2	1	0	2	0
26	170	0	10000	2	1	0	2	0
25	171	0	10000	2	1	0	2	0
26	171	0	10000	2	1	0	2	0
26	172	0	10000	2	1	0	2	0
26	174	0	10000	2	1	0	2	0
27	175	0	10000	2	1	0	2	0
26	176	0	10000	2	1	0	2	0
27	177	0	10000	2	1	0	2	0
24	178	0	10000	2	1	0	2	0
26	179	0	10000	2	1	0	2	0
25	180	0	10000	2	1	0	2	0
25	181	0	10000	2	1	0	2	0
25	181	0	10000	2	1	0	2	0
26	182	0	10000	2	1	0	2	0
25	184	0	10000	2	1	0	2	0
26	185	0	10000	2	1	0	2	0
25	186	0	10000	2	1	0	2	0
25	187	0	10000	2	1	0	2	0
28	188	0	10000	2	1	0	2	0
27	189	0	10000	2	1	0	2	0
26	190	0	10000	2	1	0	2	0
26	191	0	10000	2	1	0	2	0
26	191	0	10000	2	1	0	2	0
25	192	0	10000	2	1	0	2	0
25	194	0	10000	2	1	0	2	0
26	195	0	10000	2	1	0	2	0
26	196	0	10000	2	1	0	2	0
27	197	0	10000	2	1	0	2	0
25	198	0	10000	2	1	0	2	0
24	199	0	10000	2	1	0	2	0
24	200	0	10000	2	1	0	2	0
24	201	0	10000	2	1	0	2	0
24	201	0	10000	2	1	0	2	0
25	202	0	10000	2	1	0	2	0
25	204	0	10000	2	1	0	2	0
24	205	0	10000	2	1	0	2	0
24	206	0	10000	2	1	0	2	0
24	207	0	10000	2	1	0	2	0
25	208	0	10000	2	1	0	2	0
26	209	0	10000	2	1	0	2	0
25	210	0	10000	2	1	0	2	0
24	211	0	10000	2	1	0	2	0
25	211	0	10000	2	1	0	2	0
24	212	0	10000	2	1	0	2	0
24	214	0	10000	2	1	0	2	0
24	215	0	10000	2	1	0	2	0
24	216	0	10000	2	1	0	2	0
25	217	0	10000	2	1	0	2	0
22	218	0	10000	2	1	0	2	0
23	219	0	10000	2	1	0	2	0
22	220	0	10000	2	1	0	2	0
23	221	0	10000	2	1	0	2	0
23	221	0	10000	2	1	0	2	0
25	222	0	10000	2	1	0	2	0
25	224	0	10000	2	1	0	2	0
24	225	0	10000	2	1	0	2	0
23	226	0	10000	2	1	0	2	0
24	227	0	10000	2	1	0	2	0
25	228	0	10000	2	1	0	2	0
25	229	0	10000	2	1	0	2	0
24	230	0	10000	2	1	0	2	0
25	231	0	10000	2	1	0	2	0
23	231	0	10000	2	1	0	2	0
23	232	0	10000	2	1	0	2	0
24	234	0	10000	2	1	0	2	0
23	235	0	10000	2	1	0	2	0
23	236	0	10000	2	1	0	2	0
23	237	0	10000	2	1	0	2	0
22	238	0	10000	2	1	0	2	0
22	239	0	10000	2	1	0	2	0
22	240	0	10000	2	1	0	2	0
24	241	0	10000	2	1	0	2	0
24	241	0	10000	2	1	0	2	0
24	242	0	10000	2	1	0	2	0
25	244	0	10000	2	1	0	2	0
24	245	0	10000	2	1	0	2	0
24	246	0	10000	2	1	0	2	0
23	247	0	10000	2	1	0	2	0
26	248	0	10000	2	1	0	2	0
24	249	0	10000	2	1	0	2	0
25	250	0	10000	2	1	0	2	0
24	251	0	10000	2	1	0	2	0
24	251	0	10000	2	1	0	2	0
23	252	0	10000	2	1	0	2	0
23	254	0	10000	2	1	0	2	0
23	255	0	10000	2	1	0	2	0
24	256	0	10000	2	1	0	2	0
24	257	0	10000	2	1	0	2	0
22	258	0	10000	2	1	0	2	0
22	259	0	10000	2	1	0	2	0
23	260	0	10000	2	1	0	2	0
24	261	0	10000	2	1	0	2	0
23	261	0	10000	2	1	0	2	0
24	262	0	10000	2	1	0	2	0
24	264	0	10000	2	1	0	2	0
24	265	0	10000	2	1	0	2	0
23	266	0	10000	2	1	0	2	0
23	267	0	10000	2	1	0	2	0
24	268	0	10000	2	1	0	2	0
25	269	0	10000	2	1	0	2	0
24	270	0	10000	2	1	0	2	0
25	271	0	10000	2	1	0	2	0
24	271	0	10000	2	1	0	2	0
23	272	0	10000	2	1	0	2	0
23	274	0	10000	2	1	0	2	0
23	275	0	10000	2	1	0	2	0
25	276	0	10000	2	1	0	2	0
25	277	0	10000	2	1	0	2	0
23	278	0	10000	2	1	0	2	0
24	279	0	10000	2	1	0	2	0
26	280	0	10000	2	1	0	2	0
25	281	0	10000	2	1	0	2	0
25	281	0	10000	2	1	0	2	0
26	282	0	10000	2	1	0	2	0
26	284	0	10000	2	1	0	2	0
25	285	0	10000	2	1	0	2	0
24	286	0	10000	2	1	0	2	0
23	287	0	10000	2	1	0	2	0
25	288	0	10000	2	1	0	2	0
26	289	0	10000	2	1	0	2	0
26	290	0	10000	2	1	0	2	0
25	291	0	10000	2	1	0	2	0
25	291	0	10000	2	1	0	2	0
25	292	0	10000	2	1	0	2	0
24	294	0	10000	2	1	0	2	0
26	295	0	10000	2	1	0	2	0
27	296	0	10000	2	1	0	2	0
26	297	0	10000	2	1	0	2	0
24	298	0	10000	2	1	0	2	0
25	299	0	10000	2	1	0	2	0
25	300	0	10000	2	1	0	2	0
27	301	0	10000	2	1	0	2	0
27	301	0	10000	2	1	0	2	0
27	302	0	10000	2	1	0	2	0
28	304	0	10000	2	1	0	2	0
28	305	0	10000	2	1	0	2	0
27	306	0	10000	2	1	0	2	0
27	307	0	10000	2	1	0	2	0
29	308	0	10000	2	1	0	2	0
29	309	0	10000	2	1	0	2	0
29	310	0	10000	2	1	0	2	0
30	311	0	10000	2	1	0	2	0
29	311	0	10000	2	1	0	2	0
29	312	0	10000	2	1	0	2	0
30	314	0	10000	2	1	0	2	0
30	315	0	10000	2	1	0	2	0
30	316	0	10000	2	1	0	2	0
30	317	0	10000	2	1	0	2	0
27	318	0	10000	2	1	0	2	0
28	319	0	10000	2	1	0	2	0
29	320	0	10000	2	1	0	2	0
28	321	0	10000	2	1	0	2	0
30	321	0	10000	2	1	0	2	0
31	322	0	10000	2	1	0	2	0
33	324	0	10000	2	1	0	2	0
34	325	0	10000	2	1	0	2	0
35	326	0	10000	2	1	0	2	0
34	327	0	10000	2	1	0	2	0
35	328	0	10000	2	1	0	2	0
35	329	0	10000	2	1	0	2	0
34	330	0	10000	2	1	0	2	0
33	331	0	10000	2	1	0	2	0
33	331	0	10000	2	1	0	2	0
32	332	0	10000	2	1	0	2	0
34	334	0	10000	2	1	0	2	0
33	335	0	10000	2	1	0	2	0
34	336	0	10000	2	1	0	2	0
34	337	0	10000	2	1	0	2	0
31	338	0	10000	2	1	0	2	0
32	339	0	10000	2	1	0	2	0
32	340	0	10000	2	1	0	2	0
31	341	0	10000	2	1	0	2	0
32	341	0	10000	2	1	0	2	0
31	342	0	10000	2	1	0	2	0
31	344	0	10000	2	1	0	2	0
31	345	0	10000	2	1	0	2	0
30	346	0	10000	2	1	0	2	0
30	347	0	10000	2	1	0	2	0
32	348	0	10000	2	1	0	2	0
32	349	0	10000	2	1	0	2	0
33	350	0	10000	2	1	0	2	0
33	351	0	10000	2	1	0	2	0
32	351	0	10000	2	1	0	2	0
32	352	0	10000	2	1	0	2	0
32	354	0	10000	2	1	0	2	0
31	355	0	10000	2	1	0	2	0
31	356	0	10000	2	1	0	2	0
31	357	0	10000	2	1	0	2	0
29	358	0	10000	2	1	0	2	0
30	359	0	10000	2	1	0	2	0
30	360	0	10000	2	1	0	2	0
31	361	0	10000	2	1	0	2	0
31	361	0	10000	2	1	0	2	0
30	362	0	10000	2	1	0	2	0
29	364	0	10000	2	1	0	2	0
28	365	0	10000	2	1	0	2	0
27	366	0	10000	2	1	0	2	0
27	367	0	10000	2	1	0	2	0
28	368	0	10000	2	1	0	2	0
28	369	0	10000	2	1	0	2	0
27	370	0	10000	2	1	0	2	0
27	371	0	10000	2	1	0	2	0
28	371	0	10000	2	1	0	2	0
31	372	0	10000	2	1	0	2	0
31	374	0	10000	2	1	0	2	0
31	375	0	10000	2	1	0	2	0
32	376	0	10000	2	1	0	2	0
33	377	0	10000	2	1	0	2	0
30	378	0	10000	2	1	0	2	0
30	379	0	10000	2	1	0	2	0
31	380	0	10000	2	1	0	2	0
30	381	0	10000	2	1	0	2	0
32	381	0	10000	2	1	0	2	0
32	382	0	10000	2	1	0	2	0
31	384	0	10000	2	1	0	2	0
31	385	0	10000	2	1	0	2	0
32	386	0	10000	2	1	0	2	0
30	387	0	10000	2	1	0	2	0
33	388	0	10000	2	1	0	2	0
32	389	0	10000	2	1	0	2	0
31	390	0	10000	2	1	0	2	0
30	391	0	10000	2	1	0	2	0
30	391	0	10000	2	1	0	2	0
29	392	0	10000	2	1	0	2	0
29	394	0	10000	2	1	0	2	0
29	395	0	10000	2	1	0	2	0
29	396	0	10000	2	1	0	2	0
29	397	0	10000	2	1	0	2	0
27	398	0	10000	2	1	0	2	0
27	399	0	10000	2	1	0	2	0
30	400	0	10000	2	1	0	2	0
30	401	0	10000	2	1	0	2	0
31	401	0	10000	2	1	0	2	0
31	402	0	10000	2	1	0	2	0
31	404	0	10000	2	1	0	2	0
29	405	0	10000	2	1	0	2	0
31	406	0	10000	2	1	0	2	0
31	407	0	10000	2	1	0	2	0
32	408	0	10000	2	1	0	2	0
32	409	0	10000	2	1	0	2	0
32	410	0	10000	2	1	0	2	0
31	411	0	10000	2	1	0	2	0
32	411	0	10000	2	1	0	2	0
32	412	0	10000	2	1	0	2	0
31	414	0	10000	2	1	0	2	0
31	415	0	10000	2	1	0	2	0
32	416	0	10000	2	1	0	2	0
31	417	0	10000	2	1	0	2	0
31	418	0	10000	2	1	0	2	0
31	419	0	10000	2	1	0	2	0
29	420	0	10000	2	1	0	2	0
31	421	0	10000	2	1	0	2	0
31	421	0	10000	2	1	0	2	0
31	422	0	10000	2	1	0	2	0
31	424	0	10000	2	1	0	2	0
30	425	0	10000	2	1	0	2	0
30	426	0	10000	2	1	0	2	0
30	427	0	10000	2	1	0	2	0
31	428	0	10000	2	1	0	2	0
32	429	0	10000	2	1	0	2	0
31	430	0	10000	2	1	0	2	0
31	431	0	10000	2	1	0	2	0
32	431	0	10000	2	1	0	2	0
32	432	0	10000	2	1	0	2	0
32	434	0	10000	2	1	0	2	0
33	435	0	10000	2	1	0	2	0
33	436	0	10000	2	1	0	2	0
32	437	0	10000	2	1	0	2	0
31	438	0	10000	2	1	0	2	0
31	439	0	10000	2	1	0	2	0
30	440	0	10000	2	1	0	2	0
30	441	0	10000	2	1	0	2	0
29	441	0	10000	2	1	0	2	0
30	442	0	10000	2	1	0	2	0
29	444	0	10000	2	1	0	2	0
28	445	0	10000	2	1	0	2	0
28	446	0	10000	2	1	0	2	0
27	447	0	10000	2	1	0	2	0
29	448	0	10000	2	1	0	2	0
28	449	0	10000	2	1	0	2	0
27	450	0	10000	2	1	0	2	0
27	451	0	10000	2	1	0	2	0
26	451	0	10000	2	1	0	2	0
26	452	0	10000	2	1	0	2	0
25	454	0	10000	2	1	0	2	0
26	455	0	10000	2	1	0	2	0
28	456	0	10000	2	1	0	2	0
29	457	0	10000	2	1	0	2	0
29	458	0	10000	2	1	0	2	0
28	459	0	10000	2	1	0	2	0
28	460	0	10000	2	1	0	2	0
28	461	0	10000	2	1	0	2	0
27	461	0	10000	2	1	0	2	0
28	462	0	10000	2	1	0	2	0
27	464	0	10000	2	1	0	2	0
27	465	0	10000	2	1	0	2	0
26	466	0	10000	2	1	0	2	0
25	467	0	10000	2	1	0	2	0
27	468	0	10000	2	1	0	2	0
28	469	0	10000	2	1	0	2	0
27	470	0	10000	2	1	0	2	0
27	471	0	10000	2	1	0	2	0
28	471	0	10000	2	1	0	2	0
29	472	0	10000	2	1	0	2	0
27	474	0	10000	2	1	0	2	0
27	475	0	10000	2	1	0	2	0
28	476	0	10000	2	1	0	2	0
28	477	0	10000	2	1	0	2	0
26	478	0	10000	2	1	0	2	0
26	479	0	10000	2	1	0	2	0
27	480	0	10000	2	1	0	2	0
30	481	0	10000	2	1	0	2	0
29	481	0	10000	2	1	0	2	0
29	482	0	10000	2	1	0	2	0
29	484	0	10000	2	1	0	2	0
28	485	0	10000	2	1	0	2	0
27	486	0	10000	2	1	0	2	0
28	487	0	10000	2	1	0	2	0
29	488	0	10000	2	1	0	2	0
28	489	0	10000	2	1	0	2	0
28	490	0	10000	2	1	0	2	0
27	491	0	10000	2	1	0	2	0
27	491	0	10000	2	1	0	2	0
28	492	0	10000	2	1	0	2	0
26	494	0	10000	2	1	0	2	0
28	495	0	10000	2	1	0	2	0
28	496	0	10000	2	1	0	2	0
29	497	0	10000	2	1	0	2	0
27	498	0	10000	2	1	0	2	0
26	499	0	10000	2	1	0	2	0
27	500	0	10000	2	1	0	2	0
26	501	0	10000	2	1	0	2	0
26	501	0	10000	2	1	0	2	1
28	502	0	10000	2	1	0	2	1
27	504	0	10000	2	1	0	2	1
27	505	0	10000	2	1	0	2	1
26	506	0	10000	2	1	0	2	1
26	507	0	10000	2	1	0	2	1
29	508	0	10000	2	1	0	2	1
27	509	0	10000	2	1	0	2	1
28	510	0	10000	2	1	0	2	1
26	511	0	10000	2	1	0	2	1
25	511	0	10000	2	1	0	2	1
25	512	0	10000	2	1	0	2	1
24	514	0	10000	2	1	0	2	1
24	515	0	10000	2	1	0	2	1
25	516	0	10000	2	1	0	2	1
25	517	0	10000	2	1	0	2	1
23	518	0	10000	2	1	0	2	1
25	519	0	10000	2	1	0	2	1
24	520	0	10000	2	1	0	2	1
25	521	0	10000	2	1	0	2	1
26	521	0	10000	2	1	0	2	1
26	522	0	10000	2	1	0	2	1
28	524	0	10000	2	1	0	2	1
29	525	0	10000	2	1	0	2	1
27	526	0	10000	2	1	0	2	1
28	527	0	10000	2	1	0	2	1
28	528	0	10000	2	1	0	2	1
28	529	0	10000	2	1	0	2	1
28	530	0	10000	2	1	0	2	1
26	531	0	10000	2	1	0	2	1
26	531	0	10000	2	1	0	2	1
26	532	0	10000	2	1	0	2	1
26	534	0	10000	2	1	0	2	1
26	535	0	10000	2	1	0	2	1
26	536	0	10000	2	1	0	2	1
26	537	0	10000	2	1	0	2	1
24	538	0	10000	2	1	0	2	1
25	539	0	10000	2	1	0	2	1
25	540	0	10000	2	1	0	2	1
26	541	0	10000	2	1	0	2	1
27	541	0	10000	2	1	0	2	1
28	542	0	10000	2	1	0	2	1
29	544	0	10000	2	1	0	2	1
27	545	0	10000	2	1	0	2	1
28	546	0	10000	2	1	0	2	1
28	547	0	10000	2	1	0	2	1
30	548	0	10000	2	1	0	2	1
31	549	0	10000	2	1	0	2	1
30	550	0	10000	2	1	0	2	1
29	551	0	10000	2	1	0	2	1
31	551	0	10000	2	1	0	2	0
30	552	0	10000	2	1	0	2	0
30	554	0	10000	2	1	0	2	0
30	555	0	10000	2	1	0	2	0
30	556	0	10000	2	1	0	2	0
31	557	0	10000	2	1	0	2	0
31	558	0	10000	2	1	0	2	0
32	559	0	10000	2	1	0	2	0
32	560	0	10000	2	1	0	2	0
34	561	0	10000	2	1	0	2	0
34	561	0	10000	2	1	0	2	0
36	562	0	10000	2	1	0	2	0
37	564	0	10000	2	1	0	2	0
35	565	0	10000	2	1	0	2	0
35	566	0	10000	2	1	0	2	0
34	567	0	10000	2	1	0	2	0
37	568	0	10000	2	1	0	2	0
37	569	0	10000	2	1	0	2	0
36	570	0	10000	2	1	0	2	0
34	571	0	10000	2	1	0	2	0
35	571	0	10000	2	1	0	2	0
33	572	0	10000	2	1	0	2	0
33	574	0	10000	2	1	0	2	0
33	575	0	10000	2	1	0	2	0
32	576	0	10000	2	1	0	2	0
32	577	0	10000	2	1	0	2	0
29	578	0	10000	2	1	0	2	0
30	579	0	10000	2	1	0	2	0
29	580	0	10000	2	1	0	2	0
30	581	0	10000	2	1	0	2	0
29	581	0	10000	2	1	0	2	0
28	582	0	10000	2	1	0	2	0
29	584	0	10000	2	1	0	2	0
27	585	0	10000	2	1	0	2	0
27	586	0	10000	2	1	0	2	0
26	587	0	10000	2	1	0	2	0
27	588	0	10000	2	1	0	2	0
26	589	0	10000	2	1	0	2	0
25	590	0	10000	2	1	0	2	0
26	591	0	10000	2	1	0	2	0
25	591	0	10000	2	1	0	2	0
25	592	0	10000	2	1	0	2	0
24	594	0	10000	2	1	0	2	0
25	595	0	10000	2	1	0	2	0
26	596	0	10000	2	1	0	2	0
28	597	0	10000	2	1	0	2	0
27	598	0	10000	2	1	0	2	0
29	599	0	10000	2	1	0	2	0
29	600	0	10000	2	1	0	2	0
30	601	0	10000	2	1	0	2	0
31	601	0	10000	2	1	0	2	0
32	602	0	10000	2	1	0	2	0
33	604	0	10000	2	1	0	2	0
32	605	0	10000	2	1	0	2	0
33	606	0	10000	2	1	0	2	0
33	607	0	10000	2	1	0	2	0
35	608	0	10000	2	1	0	2	0
36	609	0	10000	2	1	0	2	0
42	610	0	10000	2	1	0	2	0
46	611	0	10000	2	1	0	2	0
54	611	0	10000	2	1	0	2	0
63	612	0	10000	2	1	0	2	0
62	614	0	10000	2	1	0	2	0
68	615	0	10000	2	1	0	2	0
76	616	0	10000	2	1	0	2	0
78	617	0	10000	2	1	0	2	0
79	618	0	10000	2	1	0	2	0
81	619	0	10000	2	1	0	2	0
80	620	0	10000	2	1	0	2	0
81	621	0	10000	2	1	0	2	0
82	621	0	10000	2	1	0	2	0
86	622	0	10000	2	1	0	2	0
89	624	0	10000	2	1	0	2	0
91	625	0	10000	2	1	0	2	0
91	626	0	10000	2	1	0	2	0
90	627	0	10000	2	1	0	2	0
91	628	0	10000	2	1	0	2	0
89	629	0	10000	2	1	0	2	0
87	630	0	10000	2	1	0	2	0
83	631	0	10000	2	1	0	2	0
82	631	0	10000	2	1	0	2	0
79	632	0	10000	2	1	0	2	0
76	634	0	10000	2	1	0	2	0
75	635	0	10000	2	1	0	2	0
75	636	0	10000	2	1	0	2	0
73	637	0	10000	2	1	0	2	0
71	638	0	10000	2	1	0	2	0
68	639	0	10000	2	1	0	2	0
67	640	0	10000	2	1	0	2	0
67	641	0	10000	2	1	0	2	0
65	641	0	10000	2	1	0	2	0
65	642	0	10000	2	1	0	2	0
64	644	0	10000	2	1	0	2	0
65	645	0	10000	2	1	0	2	0
64	646	0	10000	2	1	0	2	0
61	647	0	10000	2	1	0	2	0
62	648	0	10000	2	1	0	2	0
61	649	0	10000	2	1	0	2	0
62	650	0	10000	2	1	0	2	0
63	651	0	10000	2	1	0	2	0
64	651	0	10000	2	1	0	2	0
62	652	0	10000	2	1	0	2	0
59	654	0	10000	2	1	0	2	0
58	655	0	10000	2	1	0	2	0
56	656	0	10000	2	1	0	2	0
56	657	0	10000	2	1	0	2	0
53	658	0	10000	2	1	0	2	0
51	659	0	10000	2	1	0	2	0
50	660	0	10000	2	1	0	2	0
48	661	0	10000	2	1	0	2	0
48	661	0	10000	2	1	0	2	0
47	662	0	10000	2	1	0	2	0
46	664	0	10000	2	1	0	2	0
44	665	0	10000	2	1	0	2	0
43	666	0	10000	2	1	0	2	0
42	667	0	10000	2	1	0	2	0
42	668	0	10000	2	1	0	2	0
42	669	0	10000	2	1	0	2	0
40	670	0	10000	2	1	0	2	0
39	671	0	10000	2	1	0	2	0
39	671	0	10000	2	1	0	2	0
38	672	0	10000	2	1	0	2	0
36	674	0	10000	2	1	0	2	0
39	675	0	10000	2	1	0	2	0
37	676	0	10000	2	1	0	2	0
38	677	0	10000	2	1	0	2	0
36	678	0	10000	2	1	0	2	0
35	679	0	10000	2	1	0	2	0
34	680	0	10000	2	1	0	2	0
35	681	0	10000	2	1	0	2	0
35	681	0	10000	2	1	0	2	0
33	682	0	10000	2	1	0	2	0
33	684	0	10000	2	1	0	2	0
33	685	0	10000	2	1	0	2	0
33	686	0	10000	2	1	0	2	0
32	687	0	10000	2	1	0	2	0
34	688	0	10000	2	1	0	2	0
33	689	0	10000	2	1	0	2	0
32	690	0	10000	2	1	0	2	0
32	691	0	10000	2	1	0	2	0
32	691	0	10000	2	1	0	2	0
31	692	0	10000	2	1	0	2	0
32	694	0	10000	2	1	0	2	0
33	695	0	10000	2	1	0	2	0
35	696	0	10000	2	1	0	2	0
36	697	0	10000	2	1	0	2	0
33	698	0	10000	2	1	0	2	0
32	699	0	10000	2	1	0	2	0
32	700	0	10000	2	1	0	2	0
32	701	0	10000	2	1	0	2	0
31	701	0	10000	2	1	0	2	0
32	702	0	10000	2	1	0	2	0
31	704	0	10000	2	1	0	2	0
31	705	0	10000	2	1	0	2	0
32	706	0	10000	2	1	0	2	0
31	707	0	10000	2	1	0	2	0
32	708	0	10000	2	1	0	2	0
33	709	0	10000	2	1	0	2	0
32	710	0	10000	2	1	0	2	0
31	711	0	10000	2	1	0	2	0
33	711	0	10000	2	1	0	2	0
31	712	0	10000	2	1	0	2	0
31	714	0	10000	2	1	0	2	0
32	715	0	10000	2	1	0	2	0
32	716	0	10000	2	1	0	2	0
32	717	0	10000	2	1	0	2	0
30	718	0	10000	2	1	0	2	0
30	719	0	10000	2	1	0	2	0
30	720	0	10000	2	1	0	2	0
31	721	0	10000	2	1	0	2	0
29	721	0	10000	2	1	0	2	0
29	722	0	10000	2	1	0	2	0
30	724	0	10000	2	1	0	2	0
28	725	0	10000	2	1	0	2	0
27	726	0	10000	2	1	0	2	0
27	727	0	10000	2	1	0	2	0
30	728	0	10000	2	1	0	2	0
29	729	0	10000	2	1	0	2	0
28	730	0	10000	2	1	0	2	0
28	731	0	10000	2	1	0	2	0
28	731	0	10000	2	1	0	2	0
27	732	0	10000	2	1	0	2	0
27	734	0	10000	2	1	0	2	0
29	735	0	10000	2	1	0	2	0
29	736	0	10000	2	1	0	2	0
29	737	0	10000	2	1	0	2	0
27	738	0	10000	2	1	0	2	0
27	739	0	10000	2	1	0	2	0
30	740	0	10000	2	1	0	2	0
31	741	0	10000	2	1	0	2	0
31	741	0	10000	2	1	0	2	0
32	742	0	10000	2	1	0	2	0
32	744	0	10000	2	1	0	2	0
30	745	0	10000	2	1	0	2	0
31	746	0	10000	2	1	0	2	0
30	747	0	10000	2	1	0	2	0
31	748	0	10000	2	1	0	2	0
31	749	0	10000	2	1	0	2	0
30	750	0	10000	2	1	0	2	0
32	751	0	10000	2	1	0	2	0
34	751	0	10000	2	1	0	2	0
37	752	0	10000	2	1	0	2	0
36	754	0	10000	2	1	0	2	0
36	755	0	10000	2	1	0	2	0
35	756	0	10000	2	1	0	2	0
36	757	0	10000	2	1	0	2	0
33	758	0	10000	2	1	0	2	0
33	759	0	10000	2	1	0	2	0
33	760	0	10000	2	1	0	2	0
33	761	0	10000	2	1	0	2	0
33	761	0	10000	2	1	0	2	0
32	762	0	10000	2	1	0	2	0
36	764	0	10000	2	1	0	2	0
37	765	0	10000	2	1	0	2	0
37	766	0	10000	2	1	0	2	0
36	767	0	10000	2	1	0	2	0
38	768	0	10000	2	1	0	2	0
38	769	0	10000	2	1	0	2	0
35	770	0	10000	2	1	0	2	0
34	771	0	10000	2	1	0	2	0
35	771	0	10000	2	1	0	2	0
33	772	0	10000	2	1	0	2	0
33	774	0	10000	2	1	0	2	0
34	775	0	10000	2	1	0	2	0
33	776	0	10000	2	1	0	2	0
33	777	0	10000	2	1	0	2	0
32	778	0	10000	2	1	0	2	0
32	779	0	10000	2	1	0	2	0
32	780	0	10000	2	1	0	2	0
34	781	0	10000	2	1	0	2	0
37	781	0	10000	2	1	0	2	0
35	782	0	10000	2	1	0	2	0
34	784	0	10000	2	1	0	2	0
34	785	0	10000	2	1	0	2	0
34	786	0	10000	2	1	0	2	0
34	787	0	10000	2	1	0	2	0
37	788	0	10000	2	1	0	2	0
36	789	0	10000	2	1	0	2	0
35	790	0	10000	2	1	0	2	0
34	791	0	10000	2	1	0	2	0
35	791	0	10000	2	1	0	2	0
34	792	0	10000	2	1	0	2	0
36	794	0	10000	2	1	0	2	0
36	795	0	10000	2	1	0	2	0
38	796	0	10000	2	1	0	2	0
38	797	0	10000	2	1	0	2	0
35	798	0	10000	2	1	0	2	0
34	799	0	10000	2	1	0	2	0
33	800	0	10000	2	1	0	2	0
33	801	0	10000	2	1	0	2	0
33	801	0	10000	2	1	0	2	0
32	802	0	10000	2	1	0	2	0
32	804	0	10000	2	1	0	2	0
32	805	0	10000	2	1	0	2	0
33	806	0	10000	2	1	0	2	0
31	807	0	10000	2	1	0	2	0
33	808	0	10000	2	1	0	2	0
33	809	0	10000	2	1	0	2	0
32	810	0	10000	2	1	0	2	0
32	811	0	10000	2	1	0	2	0
31	811	0	10000	2	1	0	2	0
30	812	0	10000	2	1	0	2	0
32	814	0	10000	2	1	0	2	0
32	815	0	10000	2	1	0	2	0
32	816	0	10000	2	1	0	2	0
32	817	0	10000	2	1	0	2	0
30	818	0	10000	2	1	0	2	0
30	819	0	10000	2	1	0	2	0
29	820	0	10000	2	1	0	2	0
31	821	0	10000	2	1	0	2	0
31	821	0	10000	2	1	0	2	0
30	822	0	10000	2	1	0	2	0
30	824	0	10000	2	1	0	2	0
29	825	0	10000	2	1	0	2	0
29	826	0	10000	2	1	0	2	0
27	827	0	10000	2	1	0	2	0
29	828	0	10000	2	1	0	2	0
29	829	0	10000	2	1	0	2	0
28	830	0	10000	2	1	0	2	0
28	831	0	10000	2	1	0	2	0
29	831	0	10000	2	1	0	2	0
29	832	0	10000	2	1	0	2	0
30	834	0	10000	2	1	0	2	0
30	835	0	10000	2	1	0	2	0
30	836	0	10000	2	1	0	2	0
30	837	0	10000	2	1	0	2	0
28	838	0	10000	2	1	0	2	0
27	839	0	10000	2	1	0	2	0
28	840	0	10000	2	1	0	2	0
27	841	0	10000	2	1	0	2	0
27	841	0	10000	2	1	0	2	0
28	842	0	10000	2	1	0	2	0
26	844	0	10000	2	1	0	2	0
26	845	0	10000	2	1	0	2	0
26	846	0	10000	2	1	0	2	0
25	847	0	10000	2	1	0	2	0
27	848	0	10000	2	1	0	2	0
27	849	0	10000	2	1	0	2	0
28	850	0	10000	2	1	0	2	0
30	851	0	10000	2	1	0	2	0
30	851	0	10000	2	1	0	2	0
29	852	0	10000	2	1	0	2	0
31	854	0	10000	2	1	0	2	0
32	855	0	10000	2	1	0	2	0
34	856	0	10000	2	1	0	2	0
35	857	0	10000	2	1	0	2	0
32	858	0	10000	2	1	0	2	0
32	859	0	10000	2	1	0	2	0
31	860	0	10000	2	1	0	2	0
32	861	0	10000	2	1	0	2	0
32	861	0	10000	2	1	0	2	0
32	862	0	10000	2	1	0	2	0
33	864	0	10000	2	1	0	2	0
33	865	0	10000	2	1	0	2	0
37	866	0	10000	2	1	0	2	0
37	867	0	10000	2	1	0	2	0
38	868	0	10000	2	1	0	2	0
38	869	0	10000	2	1	0	2	0
37	870	0	10000	2	1	0	2	0
35	871	0	10000	2	1	0	2	0
34	871	0	10000	2	1	0	2	0
33	872	0	10000	2	1	0	2	0
34	874	0	10000	2	1	0	2	0
35	875	0	10000	2	1	0	2	0
34	876	0	10000	2	1	0	2	0
33	877	0	10000	2	1	0	2	0
32	878	0	10000	2	1	0	2	0
31	879	0	10000	2	1	0	2	0
31	880	0	10000	2	1	0	2	0
34	881	0	10000	2	1	0	2	0
36	881	0	10000	2	1	0	2	0
36	882	0	10000	2	1	0	2	0
35	884	0	10000	2	1	0	2	0
36	885	0	10000	2	1	0	2	0
35	886	0	10000	2	1	0	2	0
34	887	0	10000	2	1	0	2	0
35	888	0	10000	2	1	0	2	0
36	889	0	10000	2	1	0	2	0
35	890	0	10000	2	1	0	2	0
35	891	0	10000	2	1	0	2	0
35	891	0	10000	2	1	0	2	0
34	892	0	10000	2	1	0	2	0
35	894	0	10000	2	1	0	2	0
35	895	0	10000	2	1	0	2	0
34	896	0	10000	2	1	0	2	0
33	897	0	10000	2	1	0	2	0
31	898	0	10000	2	1	0	2	0
30	899	0	10000	2	1	0	2	0
31	900	0	10000	2	1	0	2	0
30	901	0	10000	2	1	0	2	0
29	901	0	10000	2	1	0	2	0
29	902	0	10000	2	1	0	2	0
30	904	0	10000	2	1	0	2	0
29	905	0	10000	2	1	0	2	0
29	906	0	10000	2	1	0	2	0
27	907	0	10000	2	1	0	2	0
27	908	0	10000	2	1	0	2	0
28	909	0	10000	2	1	0	2	0
27	910	0	10000	2	1	0	2	0
30	911	0	10000	2	1	0	2	0
29	911	0	10000	2	1	0	2	0
29	912	0	10000	2	1	0	2	0
29	914	0	10000	2	1	0	2	0
32	915	0	10000	2	1	0	2	0
32	916	0	10000	2	1	0	2	0
35	917	0	10000	2	1	0	2	0
32	918	0	10000	2	1	0	2	0
31	919	0	10000	2	1	0	2	0
33	920	0	10000	2	1	0	2	0
33	921	0	10000	2	1	0	2	0
32	921	0	10000	2	1	0	2	0
32	922	0	10000	2	1	0	2	0
32	924	0	10000	2	1	0	2	0
32	925	0	10000	2	1	0	2	0
31	926	0	10000	2	1	0	2	0
30	927	0	10000	2	1	0	2	0
31	928	0	10000	2	1	0	2	0
31	929	0	10000	2	1	0	2	0
30	930	0	10000	2	1	0	2	0
30	931	0	10000	2	1	0	2	0
30	931	0	10000	2	1	0	2	0
29	932	0	10000	2	1	0	2	0
29	934	0	10000	2	1	0	2	0
29	935	0	10000	2	1	0	2	0
28	936	0	10000	2	1	0	2	0
29	937	0	10000	2	1	0	2	0
27	938	0	10000	2	1	0	2	0
26	939	0	10000	2	1	0	2	0
27	940	0	10000	2	1	0	2	0
26	941	0	10000	2	1	0	2	0
25	941	0	10000	2	1	0	2	0
26	942	0	10000	2	1	0	2	0
26	944	0	10000	2	1	0	2	0
25	945	0	10000	2	1	0	2	0
25	946	0	10000	2	1	0	2	0
25	947	0	10000	2	1	0	2	0
26	948	0	10000	2	1	0	2	0
29	949	0	10000	2	1	0	2	0
28	950	0	10000	2	1	0	2	0
29	951	0	10000	2	1	0	2	0
29	951	0	10000	2	1	0	2	0
28	952	0	10000	2	1	0	2	0
29	954	0	10000	2	1	0	2	0
30	955	0	10000	2	1	0	2	0
30	956	0	10000	2	1	0	2	0
34	957	0	10000	2	1	0	2	0
34	958	0	10000	2	1	0	2	0
33	959	0	10000	2	1	0	2	0
34	960	0	10000	2	1	0	2	0
35	961	0	10000	2	1	0	2	0
34	961	0	10000	2	1	0	2	0
33	962	0	10000	2	1	0	2	0
33	964	0	10000	2	1	0	2	0
33	965	0	10000	2	1	0	2	0
32	966	0	10000	2	1	0	2	0
31	967	0	10000	2	1	0	2	0
33	968	0	10000	2	1	0	2	0
32	969	0	10000	2	1	0	2	0
32	970	0	10000	2	1	0	2	0
32	971	0	10000	2	1	0	2	0
32	971	0	10000	2	1	0	2	0
32	972	0	10000	2	1	0	2	0
33	974	0	10000	2	1	0	2	0
32	975	0	10000	2	1	0	2	0
34	976	0	10000	2	1	0	2	0
35	977	0	10000	2	1	0	2	0
32	978	0	10000	2	1	0	2	0
30	979	0	10000	2	1	0	2	0
32	980	0	10000	2	1	0	2	0
31	981	0	10000	2	1	0	2	0
32	981	0	10000	2	1	0	2	0
31	982	0	10000	2	1	0	2	0
31	984	0	10000	2	1	0	2	0
32	985	0	10000	2	1	0	2	0
31	986	0	10000	2	1	0	2	0
30	987	0	10000	2	1	0	2	0
31	988	0	10000	2	1	0	2	0
31	989	0	10000	2	1	0	2	0
30	990	0	10000	2	1	0	2	0
30	991	0	10000	2	1	0	2	0
30	991	0	10000	2	1	0	2	0
30	992	0	10000	2	1	0	2	0
29	994	0	10000	2	1	0	2	0
29	995	0	10000	2	1	0	2	0
29	996	0	10000	2	1	0	2	0
28	997	0	10000	2	1	0	2	0
26	998	0	10000	2	1	0	2	0
26	999	0	10000	2	1	0	2	0
27	1000	0	10000	2	1	0	2	0
27	1001	0	10000	2	1	0	2	0
26	2	10	10000	3	1	0	3	0
26	3	10	10000	3	1	0	3	0
26	4	10	10000	3	1	0	3	0
26	5	10	10000	3	1	0	3	0
26	6	10	10000	3	1	0	3	0
26	7	10	10000	3	1	0	3	0
26	8	10	10000	3	1	0	3	0
27	9	10	10000	3	1	0	3	0
30	10	10	10000	3	1	0	3	0
28	11	10	10000	3	1	0	3	0
30	12	10	10000	3	1	0	3	0
30	13	10	10000	3	1	0	3	0
30	14	10	10000	3	1	0	3	0
31	15	10	10000	3	1	0	3	0
30	16	10	10000	3	1	0	3	0
31	17	10	10000	3	1	0	3	0
30	18	10	10000	3	1	0	3	0
29	19	10	10000	3	1	0	3	0
29	20	10	10000	3	1	0	3	0
29	21	10	10000	3	1	0	3	0
31	22	10	10000	3	1	0	3	0
30	23	10	10000	3	1	0	3	0
29	24	10	10000	3	1	0	3	0
29	25	10	10000	3	1	0	3	0
30	26	10	10000	3	1	0	3	0
29	27	10	10000	3	1	0	3	0
29	28	10	10000	3	1	0	3	0
28	29	10	10000	3	1	0	3	0
30	30	10	10000	3	1	0	3	0
29	31	10	10000	3	1	0	3	0
28	32	10	10000	3	1	0	3	0
29	33	10	10000	3	1	0	3	0
29	34	10	10000	3	1	0	3	0
29	35	10	10000	3	1	0	3	0
27	36	10	10000	3	1	0	3	0
28	37	10	10000	3	1	0	3	0
27	38	10	10000	3	1	0	3	0
26	39	10	10000	3	1	0	3	0
26	40	10	10000	3	1	0	3	0
26	41	10	10000	3	1	0	3	0
27	42	10	10000	3	1	0	3	0
27	43	10	10000	3	1	0	3	0
26	44	10	10000	3	1	0	3	0
25	45	10	10000	3	1	0	3	0
25	46	10	10000	3	1	0	3	0
25	47	10	10000	3	1	0	3	0
26	48	10	10000	3	1	0	3	0
25	49	10	10000	3	1	0	3	0
27	50	10	10000	3	1	0	3	0
26	51	10	10000	3	1	0	3	0
25	52	10	10000	3	1	0	3	0
27	53	10	10000	3	1	0	3	0
30	54	10	10000	3	1	0	3	0
29	55	10	10000	3	1	0	3	0
30	56	10	10000	3	1	0	3	0
31	57	10	10000	3	1	0	3	0
29	58	10	10000	3	1	0	3	0
29	59	10	10000	3	1	0	3	0
28	60	10	10000	3	1	0	3	0
29	61	10	10000	3	1	0	3	0
29	62	10	10000	3	1	0	3	0
29	63	10	10000	3	1	0	3	0
28	64	10	10000	3	1	0	3	0
28	65	10	10000	3	1	0	3	0
27	66	10	10000	3	1	0	3	0
27	67	10	10000	3	1	0	3	0
27	68	10	10000	3	1	0	3	0
27	69	10	10000	3	1	0	3	0
27	70	10	10000	3	1	0	3	0
26	71	10	10000	3	1	0	3	0
26	72	10	10000	3	1	0	3	0
25	73	10	10000	3	1	0	3	0
27	74	10	10000	3	1	0	3	0
26	75	10	10000	3	1	0	3	0
25	76	10	10000	3	1	0	3	0
26	77	10	10000	3	1	0	3	0
25	78	10	10000	3	1	0	3	0
24	79	10	10000	3	1	0	3	0
25	80	10	10000	3	1	0	3	0
26	81	10	10000	3	1	0	3	0
27	82	10	10000	3	1	0	3	0
27	83	10	10000	3	1	0	3	0
26	84	10	10000	3	1	0	3	0
29	85	10	10000	3	1	0	3	0
32	86	10	10000	3	1	0	3	0
37	87	10	10000	3	1	0	3	0
40	88	10	10000	3	1	0	3	0
41	89	10	10000	3	1	0	3	0
43	90	10	10000	3	1	0	3	0
41	91	10	10000	3	1	0	3	0
38	92	10	10000	3	1	0	3	0
38	93	10	10000	3	1	0	3	0
38	94	10	10000	3	1	0	3	0
39	95	10	10000	3	1	0	3	0
38	96	10	10000	3	1	0	3	0
41	97	10	10000	3	1	0	3	0
41	98	10	10000	3	1	0	3	0
41	99	10	10000	3	1	0	3	0
43	100	10	10000	3	1	0	3	0
44	101	10	10000	3	1	0	3	0
51	102	10	10000	3	1	0	3	0
54	103	10	10000	3	1	0	3	0
57	104	10	10000	3	1	0	3	0
60	105	10	10000	3	1	0	3	0
63	106	10	10000	3	1	0	3	0
66	107	10	10000	3	1	0	3	0
70	108	10	10000	3	1	0	3	0
75	109	10	10000	3	1	0	3	0
78	110	10	10000	3	1	0	3	0
77	111	10	10000	3	1	0	3	0
75	112	10	10000	3	1	0	3	0
71	113	10	10000	3	1	0	3	0
70	114	10	10000	3	1	0	3	0
68	115	10	10000	3	1	0	3	0
65	116	10	10000	3	1	0	3	0
63	117	10	10000	3	1	0	3	0
61	118	10	10000	3	1	0	3	0
59	119	10	10000	3	1	0	3	0
57	120	10	10000	3	1	0	3	0
57	121	10	10000	3	1	0	3	0
56	122	10	10000	3	1	0	3	0
55	123	10	10000	3	1	0	3	0
53	124	10	10000	3	1	0	3	0
54	125	10	10000	3	1	0	3	0
54	126	10	10000	3	1	0	3	0
54	127	10	10000	3	1	0	3	0
55	128	10	10000	3	1	0	3	0
55	129	10	10000	3	1	0	3	0
56	130	10	10000	3	1	0	3	0
54	131	10	10000	3	1	0	3	0
52	132	10	10000	3	1	0	3	0
53	133	10	10000	3	1	0	3	0
53	134	10	10000	3	1	0	3	0
54	135	10	10000	3	1	0	3	0
55	136	10	10000	3	1	0	3	0
57	137	10	10000	3	1	0	3	0
58	138	10	10000	3	1	0	3	0
59	139	10	10000	3	1	0	3	0
61	140	10	10000	3	1	0	3	0
62	141	10	10000	3	1	0	3	0
66	142	10	10000	3	1	0	3	0
68	143	10	10000	3	1	0	3	0
69	144	10	10000	3	1	0	3	0
70	145	10	10000	3	1	0	3	0
69	146	10	10000	3	1	0	3	0
68	147	10	10000	3	1	0	3	0
67	148	10	10000	3	1	0	3	0
64	149	10	10000	3	1	0	3	0
64	150	10	10000	3	1	0	3	0
61	151	10	10000	3	1	0	3	0
59	152	10	10000	3	1	0	3	0
58	153	10	10000	3	1	0	3	0
58	154	10	10000	3	1	0	3	0
57	155	10	10000	3	1	0	3	0
56	156	10	10000	3	1	0	3	0
57	157	10	10000	3	1	0	3	0
56	158	10	10000	3	1	0	3	0
56	159	10	10000	3	1	0	3	0
55	160	10	10000	3	1	0	3	0
54	161	10	10000	3	1	0	3	0
55	162	10	10000	3	1	0	3	0
54	163	10	10000	3	1	0	3	0
54	164	10	10000	3	1	0	3	0
52	165	10	10000	3	1	0	3	0
51	166	10	10000	3	1	0	3	0
52	167	10	10000	3	1	0	3	0
51	168	10	10000	3	1	0	3	0
52	169	10	10000	3	1	0	3	0
50	170	10	10000	3	1	0	3	0
48	171	10	10000	3	1	0	3	0
45	172	10	10000	3	1	0	3	0
44	173	10	10000	3	1	0	3	0
44	174	10	10000	3	1	0	3	0
42	175	10	10000	3	1	0	3	0
42	176	10	10000	3	1	0	3	0
41	177	10	10000	3	1	0	3	0
39	178	10	10000	3	1	0	3	0
39	179	10	10000	3	1	0	3	0
38	180	10	10000	3	1	0	3	0
38	181	10	10000	3	1	0	3	0
39	182	10	10000	3	1	0	3	0
38	183	10	10000	3	1	0	3	0
38	184	10	10000	3	1	0	3	0
36	185	10	10000	3	1	0	3	0
35	186	10	10000	3	1	0	3	0
36	187	10	10000	3	1	0	3	0
37	188	10	10000	3	1	0	3	0
36	189	10	10000	3	1	0	3	0
35	190	10	10000	3	1	0	3	0
33	191	10	10000	3	1	0	3	0
32	192	10	10000	3	1	0	3	0
32	193	10	10000	3	1	0	3	0
32	194	10	10000	3	1	0	3	0
32	195	10	10000	3	1	0	3	0
32	196	10	10000	3	1	0	3	0
32	197	10	10000	3	1	0	3	0
31	198	10	10000	3	1	0	3	0
30	199	10	10000	3	1	0	3	0
30	200	10	10000	3	1	0	3	0
30	201	10	10000	3	1	0	3	0
31	202	10	10000	3	1	0	3	0
31	203	10	10000	3	1	0	3	0
29	204	10	10000	3	1	0	3	0
31	205	10	10000	3	1	0	3	0
30	206	10	10000	3	1	0	3	0
29	207	10	10000	3	1	0	3	0
30	208	10	10000	3	1	0	3	0
29	209	10	10000	3	1	0	3	0
29	210	10	10000	3	1	0	3	0
28	211	10	10000	3	1	0	3	0
27	212	10	10000	3	1	0	3	0
26	213	10	10000	3	1	0	3	0
27	214	10	10000	3	1	0	3	0
27	215	10	10000	3	1	0	3	0
26	216	10	10000	3	1	0	3	0
26	217	10	10000	3	1	0	3	0
26	218	10	10000	3	1	0	3	0
25	219	10	10000	3	1	0	3	0
25	220	10	10000	3	1	0	3	0
25	221	10	10000	3	1	0	3	0
27	222	10	10000	3	1	0	3	0
26	223	10	10000	3	1	0	3	0
26	224	10	10000	3	1	0	3	0
26	225	10	10000	3	1	0	3	0
26	226	10	10000	3	1	0	3	0
26	227	10	10000	3	1	0	3	0
26	228	10	10000	3	1	0	3	0
27	229	10	10000	3	1	0	3	0
27	230	10	10000	3	1	0	3	0
28	231	10	10000	3	1	0	3	0
26	232	10	10000	3	1	0	3	0
25	233	10	10000	3	1	0	3	0
26	234	10	10000	3	1	0	3	0
27	235	10	10000	3	1	0	3	0
28	236	10	10000	3	1	0	3	0
27	237	10	10000	3	1	0	3	0
27	238	10	10000	3	1	0	3	0
27	239	10	10000	3	1	0	3	0
26	240	10	10000	3	1	0	3	0
25	241	10	10000	3	1	0	3	0
27	242	10	10000	3	1	0	3	0
27	243	10	10000	3	1	0	3	0
27	244	10	10000	3	1	0	3	0
29	245	10	10000	3	1	0	3	0
30	246	10	10000	3	1	0	3	0
30	247	10	10000	3	1	0	3	0
29	248	10	10000	3	1	0	3	0
30	249	10	10000	3	1	0	3	0
30	250	10	10000	3	1	0	3	0
28	251	10	10000	3	1	0	3	0
27	252	10	10000	3	1	0	3	0
26	253	10	10000	3	1	0	3	0
26	254	10	10000	3	1	0	3	0
27	255	10	10000	3	1	0	3	0
27	256	10	10000	3	1	0	3	0
26	257	10	10000	3	1	0	3	0
25	258	10	10000	3	1	0	3	0
26	259	10	10000	3	1	0	3	0
24	260	10	10000	3	1	0	3	0
24	261	10	10000	3	1	0	3	0
27	262	10	10000	3	1	0	3	0
27	263	10	10000	3	1	0	3	0
26	264	10	10000	3	1	0	3	0
26	265	10	10000	3	1	0	3	0
26	266	10	10000	3	1	0	3	0
25	267	10	10000	3	1	0	3	0
27	268	10	10000	3	1	0	3	0
26	269	10	10000	3	1	0	3	0
27	270	10	10000	3	1	0	3	0
26	271	10	10000	3	1	0	3	0
24	272	10	10000	3	1	0	3	0
24	273	10	10000	3	1	0	3	0
24	274	10	10000	3	1	0	3	0
25	275	10	10000	3	1	0	3	0
25	276	10	10000	3	1	0	3	0
25	277	10	10000	3	1	0	3	0
25	278	10	10000	3	1	0	3	0
26	279	10	10000	3	1	0	3	0
28	280	10	10000	3	1	0	3	0
28	281	10	10000	3	1	0	3	0
31	282	10	10000	3	1	0	3	0
31	283	10	10000	3	1	0	3	0
30	284	10	10000	3	1	0	3	0
29	285	10	10000	3	1	0	3	0
30	286	10	10000	3	1	0	3	0
29	287	10	10000	3	1	0	3	0
30	288	10	10000	3	1	0	3	0
31	289	10	10000	3	1	0	3	0
31	290	10	10000	3	1	0	3	0
31	291	10	10000	3	1	0	3	0
33	292	10	10000	3	1	0	3	0
32	293	10	10000	3	1	0	3	0
33	294	10	10000	3	1	0	3	0
32	295	10	10000	3	1	0	3	0
33	296	10	10000	3	1	0	3	0
34	297	10	10000	3	1	0	3	0
33	298	10	10000	3	1	0	3	0
34	299	10	10000	3	1	0	3	0
32	300	10	10000	3	1	0	3	0
32	301	10	10000	3	1	0	3	0
36	302	10	10000	3	1	0	3	0
34	303	10	10000	3	1	0	3	0
33	304	10	10000	3	1	0	3	0
32	305	10	10000	3	1	0	3	0
32	306	10	10000	3	1	0	3	0
32	307	10	10000	3	1	0	3	0
32	308	10	10000	3	1	0	3	0
32	309	10	10000	3	1	0	3	0
32	310	10	10000	3	1	0	3	0
32	311	10	10000	3	1	0	3	0
32	312	10	10000	3	1	0	3	0
33	313	10	10000	3	1	0	3	0
34	314	10	10000	3	1	0	3	0
34	315	10	10000	3	1	0	3	0
33	316	10	10000	3	1	0	3	0
33	317	10	10000	3	1	0	3	0
33	318	10	10000	3	1	0	3	0
32	319	10	10000	3	1	0	3	0
31	320	10	10000	3	1	0	3	0
30	321	10	10000	3	1	0	3	0
32	322	10	10000	3	1	0	3	0
30	323	10	10000	3	1	0	3	0
29	324	10	10000	3	1	0	3	0
30	325	10	10000	3	1	0	3	0
29	326	10	10000	3	1	0	3	0
30	327	10	10000	3	1	0	3	0
29	328	10	10000	3	1	0	3	0
29	329	10	10000	3	1	0	3	0
30	330	10	10000	3	1	0	3	0
29	331	10	10000	3	1	0	3	0
30	332	10	10000	3	1	0	3	0
30	333	10	10000	3	1	0	3	0
29	334	10	10000	3	1	0	3	0
29	335	10	10000	3	1	0	3	0
29	336	10	10000	3	1	0	3	0
29	337	10	10000	3	1	0	3	0
28	338	10	10000	3	1	0	3	0
28	339	10	10000	3	1	0	3	0
29	340	10	10000	3	1	0	3	0
28	341	10	10000	3	1	0	3	0
30	342	10	10000	3	1	0	3	0
29	343	10	10000	3	1	0	3	0
29	344	10	10000	3	1	0	3	0
28	345	10	10000	3	1	0	3	0
28	346	10	10000	3	1	0	3	0
28	347	10	10000	3	1	0	3	0
28	348	10	10000	3	1	0	3	0
29	349	10	10000	3	1	0	3	0
29	350	10	10000	3	1	0	3	0
29	351	10	10000	3	1	0	3	0
27	352	10	10000	3	1	0	3	0
28	353	10	10000	3	1	0	3	0
27	354	10	10000	3	1	0	3	0
29	355	10	10000	3	1	0	3	0
29	356	10	10000	3	1	0	3	0
28	357	10	10000	3	1	0	3	0
28	358	10	10000	3	1	0	3	0
26	359	10	10000	3	1	0	3	0
26	360	10	10000	3	1	0	3	0
26	361	10	10000	3	1	0	3	0
28	362	10	10000	3	1	0	3	0
28	363	10	10000	3	1	0	3	0
27	364	10	10000	3	1	0	3	0
29	365	10	10000	3	1	0	3	0
29	366	10	10000	3	1	0	3	0
29	367	10	10000	3	1	0	3	0
29	368	10	10000	3	1	0	3	0
29	369	10	10000	3	1	0	3	0
29	370	10	10000	3	1	0	3	0
28	371	10	10000	3	1	0	3	0
25	372	10	10000	3	1	0	3	0
27	373	10	10000	3	1	0	3	0
26	374	10	10000	3	1	0	3	0
26	375	10	10000	3	1	0	3	0
27	376	10	10000	3	1	0	3	0
26	377	10	10000	3	1	0	3	0
25	378	10	10000	3	1	0	3	0
25	379	10	10000	3	1	0	3	0
24	380	10	10000	3	1	0	3	0
25	381	10	10000	3	1	0	3	0
27	382	10	10000	3	1	0	3	0
27	383	10	10000	3	1	0	3	0
26	384	10	10000	3	1	0	3	0
25	385	10	10000	3	1	0	3	0
27	386	10	10000	3	1	0	3	0
25	387	10	10000	3	1	0	3	0
26	388	10	10000	3	1	0	3	0
26	389	10	10000	3	1	0	3	0
26	390	10	10000	3	1	0	3	0
25	391	10	10000	3	1	0	3	0
23	392	10	10000	3	1	0	3	0
25	393	10	10000	3	1	0	3	0
24	394	10	10000	3	1	0	3	0
24	395	10	10000	3	1	0	3	0
24	396	10	10000	3	1	0	3	0
24	397	10	10000	3	1	0	3	0
25	398	10	10000	3	1	0	3	0
24	399	10	10000	3	1	0	3	0
24	400	10	10000	3	1	0	3	0
23	401	10	10000	3	1	0	3	0
25	402	10	10000	3	1	0	3	0
24	403	10	10000	3	1	0	3	0
24	404	10	10000	3	1	0	3	0
24	405	10	10000	3	1	0	3	0
23	406	10	10000	3	1	0	3	0
23	407	10	10000	3	1	0	3	0
22	408	10	10000	3	1	0	3	0
23	409	10	10000	3	1	0	3	0
24	410	10	10000	3	1	0	3	0
23	411	10	10000	3	1	0	3	0
21	412	10	10000	3	1	0	3	0
22	413	10	10000	3	1	0	3	0
23	414	10	10000	3	1	0	3	0
22	415	10	10000	3	1	0	3	0
23	416	10	10000	3	1	0	3	0
24	417	10	10000	3	1	0	3	0
23	418	10	10000	3	1	0	3	0
24	419	10	10000	3	1	0	3	0
22	420	10	10000	3	1	0	3	0
22	421	10	10000	3	1	0	3	0
24	422	10	10000	3	1	0	3	0
23	423	10	10000	3	1	0	3	0
23	424	10	10000	3	1	0	3	0
23	425	10	10000	3	1	0	3	0
23	426	10	10000	3	1	0	3	0
24	427	10	10000	3	1	0	3	0
24	428	10	10000	3	1	0	3	0
23	429	10	10000	3	1	0	3	0
25	430	10	10000	3	1	0	3	0
25	431	10	10000	3	1	0	3	0
23	432	10	10000	3	1	0	3	0
23	433	10	10000	3	1	0	3	0
23	434	10	10000	3	1	0	3	0
23	435	10	10000	3	1	0	3	0
22	436	10	10000	3	1	0	3	0
23	437	10	10000	3	1	0	3	0
23	438	10	10000	3	1	0	3	0
23	439	10	10000	3	1	0	3	0
22	440	10	10000	3	1	0	3	0
23	441	10	10000	3	1	0	3	0
24	442	10	10000	3	1	0	3	0
24	443	10	10000	3	1	0	3	0
24	444	10	10000	3	1	0	3	0
25	445	10	10000	3	1	0	3	0
24	446	10	10000	3	1	0	3	0
25	447	10	10000	3	1	0	3	0
23	448	10	10000	3	1	0	3	0
24	449	10	10000	3	1	0	3	0
28	450	10	10000	3	1	0	3	0
27	451	10	10000	3	1	0	3	0
25	452	10	10000	3	1	0	3	0
25	453	10	10000	3	1	0	3	0
26	454	10	10000	3	1	0	3	0
25	455	10	10000	3	1	0	3	0
26	456	10	10000	3	1	0	3	0
26	457	10	10000	3	1	0	3	0
25	458	10	10000	3	1	0	3	0
25	459	10	10000	3	1	0	3	0
25	460	10	10000	3	1	0	3	0
25	461	10	10000	3	1	0	3	0
27	462	10	10000	3	1	0	3	0
26	463	10	10000	3	1	0	3	0
26	464	10	10000	3	1	0	3	0
25	465	10	10000	3	1	0	3	0
25	466	10	10000	3	1	0	3	0
25	467	10	10000	3	1	0	3	0
25	468	10	10000	3	1	0	3	0
25	469	10	10000	3	1	0	3	0
26	470	10	10000	3	1	0	3	0
25	471	10	10000	3	1	0	3	0
24	472	10	10000	3	1	0	3	0
24	473	10	10000	3	1	0	3	0
23	474	10	10000	3	1	0	3	0
23	475	10	10000	3	1	0	3	0
24	476	10	10000	3	1	0	3	0
23	477	10	10000	3	1	0	3	0
24	478	10	10000	3	1	0	3	0
23	479	10	10000	3	1	0	3	0
22	480	10	10000	3	1	0	3	0
22	481	10	10000	3	1	0	3	0
22	482	10	10000	3	1	0	3	0
24	483	10	10000	3	1	0	3	0
23	484	10	10000	3	1	0	3	0
23	485	10	10000	3	1	0	3	0
22	486	10	10000	3	1	0	3	0
24	487	10	10000	3	1	0	3	0
22	488	10	10000	3	1	0	3	0
24	489	10	10000	3	1	0	3	0
25	490	10	10000	3	1	0	3	0
23	491	10	10000	3	1	0	3	0
21	492	10	10000	3	1	0	3	0
23	493	10	10000	3	1	0	3	0
22	494	10	10000	3	1	0	3	0
22	495	10	10000	3	1	0	3	0
23	496	10	10000	3	1	0	3	0
24	497	10	10000	3	1	0	3	0
24	498	10	10000	3	1	0	3	0
24	499	10	10000	3	1	0	3	0
24	500	10	10000	3	1	0	3	0
23	501	10	10000	3	1	0	3	0
25	502	10	10000	3	1	0	3	1
24	503	10	10000	3	1	0	3	1
26	504	10	10000	3	1	0	3	1
25	505	10	10000	3	1	0	3	1
24	506	10	10000	3	1	0	3	1
24	507	10	10000	3	1	0	3	1
23	508	10	10000	3	1	0	3	1
23	509	10	10000	3	1	0	3	1
24	510	10	10000	3	1	0	3	1
23	511	10	10000	3	1	0	3	1
22	512	10	10000	3	1	0	3	1
22	513	10	10000	3	1	0	3	1
22	514	10	10000	3	1	0	3	1
23	515	10	10000	3	1	0	3	1
22	516	10	10000	3	1	0	3	1
24	517	10	10000	3	1	0	3	1
24	518	10	10000	3	1	0	3	1
23	519	10	10000	3	1	0	3	1
22	520	10	10000	3	1	0	3	1
23	521	10	10000	3	1	0	3	1
24	522	10	10000	3	1	0	3	1
22	523	10	10000	3	1	0	3	1
24	524	10	10000	3	1	0	3	1
23	525	10	10000	3	1	0	3	1
22	526	10	10000	3	1	0	3	1
23	527	10	10000	3	1	0	3	1
23	528	10	10000	3	1	0	3	1
23	529	10	10000	3	1	0	3	1
23	530	10	10000	3	1	0	3	1
24	531	10	10000	3	1	0	3	1
22	532	10	10000	3	1	0	3	1
23	533	10	10000	3	1	0	3	1
24	543	10	10000	3	1	0	3	1
23	544	10	10000	3	1	0	3	1
23	545	10	10000	3	1	0	3	1
24	546	10	10000	3	1	0	3	1
23	547	10	10000	3	1	0	3	1
23	548	10	10000	3	1	0	3	1
22	549	10	10000	3	1	0	3	1
23	550	10	10000	3	1	0	3	1
25	551	10	10000	3	1	0	3	1
26	552	10	10000	3	1	0	3	1
26	553	10	10000	3	1	0	3	1
25	554	10	10000	3	1	0	3	1
25	552	10	10000	3	1	0	3	1
25	553	10	10000	3	1	0	3	1
23	554	10	10000	3	1	0	3	1
25	555	10	10000	3	1	0	3	1
25	556	10	10000	3	1	0	3	1
25	557	10	10000	3	1	0	3	1
23	558	10	10000	3	1	0	3	1
24	559	10	10000	3	1	0	3	1
24	563	10	10000	3	1	0	3	0
25	564	10	10000	3	1	0	3	0
25	565	10	10000	3	1	0	3	0
25	566	10	10000	3	1	0	3	0
26	567	10	10000	3	1	0	3	0
24	568	10	10000	3	1	0	3	0
24	569	10	10000	3	1	0	3	0
24	570	10	10000	3	1	0	3	0
25	571	10	10000	3	1	0	3	0
24	572	10	10000	3	1	0	3	0
24	568	10	10000	3	1	0	3	0
23	569	10	10000	3	1	0	3	0
23	570	10	10000	3	1	0	3	0
24	571	10	10000	3	1	0	3	0
23	572	10	10000	3	1	0	3	0
24	573	10	10000	3	1	0	3	0
24	573	10	10000	3	1	0	3	0
24	574	10	10000	3	1	0	3	0
22	575	10	10000	3	1	0	3	0
23	576	10	10000	3	1	0	3	0
23	580	10	10000	3	1	0	3	0
23	581	10	10000	3	1	0	3	0
23	582	10	10000	3	1	0	3	0
23	583	10	10000	3	1	0	3	0
24	584	10	10000	3	1	0	3	0
24	585	10	10000	3	1	0	3	0
23	586	10	10000	3	1	0	3	0
23	587	10	10000	3	1	0	3	0
25	584	10	10000	3	1	0	3	0
25	585	10	10000	3	1	0	3	0
24	586	10	10000	3	1	0	3	0
23	587	10	10000	3	1	0	3	0
24	590	10	10000	3	1	0	3	0
25	591	10	10000	3	1	0	3	0
24	592	10	10000	3	1	0	3	0
25	593	10	10000	3	1	0	3	0
27	594	10	10000	3	1	0	3	0
31	595	10	10000	3	1	0	3	0
35	596	10	10000	3	1	0	3	0
42	597	10	10000	3	1	0	3	0
44	598	10	10000	3	1	0	3	0
44	599	10	10000	3	1	0	3	0
45	600	10	10000	3	1	0	3	0
49	601	10	10000	3	1	0	3	0
52	601	10	10000	3	1	0	3	0
55	602	10	10000	3	1	0	3	0
55	603	10	10000	3	1	0	3	0
57	604	10	10000	3	1	0	3	0
58	607	10	10000	3	1	0	3	0
68	608	10	10000	3	1	0	3	0
96	609	10	10000	3	1	0	3	0
127	610	10	10000	3	1	0	3	0
131	611	10	10000	3	1	0	3	0
140	612	10	10000	3	1	0	3	0
156	613	10	10000	3	1	0	3	0
181	614	10	10000	3	1	0	3	0
202	612	10	10000	3	1	0	3	0
207	613	10	10000	3	1	0	3	0
225	614	10	10000	3	1	0	3	0
251	615	10	10000	3	1	0	3	0
250	619	10	10000	3	1	0	3	0
250	620	10	10000	3	1	0	3	0
265	621	10	10000	3	1	0	3	0
277	622	10	10000	3	1	0	3	0
276	623	10	10000	3	1	0	3	0
271	624	10	10000	3	1	0	3	0
268	625	10	10000	3	1	0	3	0
264	626	10	10000	3	1	0	3	0
259	624	10	10000	3	1	0	3	0
253	625	10	10000	3	1	0	3	0
247	626	10	10000	3	1	0	3	0
243	627	10	10000	3	1	0	3	0
242	626	10	10000	3	1	0	3	0
236	627	10	10000	3	1	0	3	0
229	628	10	10000	3	1	0	3	0
223	629	10	10000	3	1	0	3	0
213	630	10	10000	3	1	0	3	0
204	631	10	10000	3	1	0	3	0
195	632	10	10000	3	1	0	3	0
187	633	10	10000	3	1	0	3	0
182	634	10	10000	3	1	0	3	0
178	635	10	10000	3	1	0	3	0
171	636	10	10000	3	1	0	3	0
167	637	10	10000	3	1	0	3	0
162	638	10	10000	3	1	0	3	0
155	639	10	10000	3	1	0	3	0
149	640	10	10000	3	1	0	3	0
145	641	10	10000	3	1	0	3	0
144	642	10	10000	3	1	0	3	0
140	643	10	10000	3	1	0	3	0
142	644	10	10000	3	1	0	3	0
141	645	10	10000	3	1	0	3	0
136	646	10	10000	3	1	0	3	0
131	647	10	10000	3	1	0	3	0
125	648	10	10000	3	1	0	3	0
122	649	10	10000	3	1	0	3	0
117	650	10	10000	3	1	0	3	0
114	651	10	10000	3	1	0	3	0
108	652	10	10000	3	1	0	3	0
105	653	10	10000	3	1	0	3	0
102	654	10	10000	3	1	0	3	0
99	655	10	10000	3	1	0	3	0
95	656	10	10000	3	1	0	3	0
92	657	10	10000	3	1	0	3	0
89	658	10	10000	3	1	0	3	0
84	659	10	10000	3	1	0	3	0
80	660	10	10000	3	1	0	3	0
79	661	10	10000	3	1	0	3	0
78	662	10	10000	3	1	0	3	0
74	663	10	10000	3	1	0	3	0
73	664	10	10000	3	1	0	3	0
70	665	10	10000	3	1	0	3	0
69	666	10	10000	3	1	0	3	0
67	667	10	10000	3	1	0	3	0
64	668	10	10000	3	1	0	3	0
63	669	10	10000	3	1	0	3	0
61	670	10	10000	3	1	0	3	0
60	671	10	10000	3	1	0	3	0
56	672	10	10000	3	1	0	3	0
56	673	10	10000	3	1	0	3	0
54	674	10	10000	3	1	0	3	0
54	675	10	10000	3	1	0	3	0
52	676	10	10000	3	1	0	3	0
51	677	10	10000	3	1	0	3	0
50	678	10	10000	3	1	0	3	0
48	679	10	10000	3	1	0	3	0
46	680	10	10000	3	1	0	3	0
45	681	10	10000	3	1	0	3	0
46	682	10	10000	3	1	0	3	0
44	683	10	10000	3	1	0	3	0
45	684	10	10000	3	1	0	3	0
44	685	10	10000	3	1	0	3	0
43	686	10	10000	3	1	0	3	0
43	687	10	10000	3	1	0	3	0
42	688	10	10000	3	1	0	3	0
41	689	10	10000	3	1	0	3	0
40	690	10	10000	3	1	0	3	0
40	691	10	10000	3	1	0	3	0
38	692	10	10000	3	1	0	3	0
38	693	10	10000	3	1	0	3	0
36	694	10	10000	3	1	0	3	0
37	695	10	10000	3	1	0	3	0
36	696	10	10000	3	1	0	3	0
36	697	10	10000	3	1	0	3	0
37	698	10	10000	3	1	0	3	0
35	699	10	10000	3	1	0	3	0
35	700	10	10000	3	1	0	3	0
33	701	10	10000	3	1	0	3	0
34	702	10	10000	3	1	0	3	0
34	703	10	10000	3	1	0	3	0
35	704	10	10000	3	1	0	3	0
33	705	10	10000	3	1	0	3	0
33	706	10	10000	3	1	0	3	0
33	707	10	10000	3	1	0	3	0
32	708	10	10000	3	1	0	3	0
32	709	10	10000	3	1	0	3	0
31	710	10	10000	3	1	0	3	0
31	711	10	10000	3	1	0	3	0
30	712	10	10000	3	1	0	3	0
31	713	10	10000	3	1	0	3	0
31	714	10	10000	3	1	0	3	0
32	715	10	10000	3	1	0	3	0
31	716	10	10000	3	1	0	3	0
31	717	10	10000	3	1	0	3	0
31	718	10	10000	3	1	0	3	0
30	719	10	10000	3	1	0	3	0
29	720	10	10000	3	1	0	3	0
29	721	10	10000	3	1	0	3	0
30	722	10	10000	3	1	0	3	0
30	723	10	10000	3	1	0	3	0
30	724	10	10000	3	1	0	3	0
30	725	10	10000	3	1	0	3	0
28	726	10	10000	3	1	0	3	0
30	727	10	10000	3	1	0	3	0
30	728	10	10000	3	1	0	3	0
31	729	10	10000	3	1	0	3	0
31	730	10	10000	3	1	0	3	0
32	731	10	10000	3	1	0	3	0
30	732	10	10000	3	1	0	3	0
29	733	10	10000	3	1	0	3	0
29	734	10	10000	3	1	0	3	0
30	735	10	10000	3	1	0	3	0
28	736	10	10000	3	1	0	3	0
29	737	10	10000	3	1	0	3	0
29	738	10	10000	3	1	0	3	0
27	739	10	10000	3	1	0	3	0
27	740	10	10000	3	1	0	3	0
27	741	10	10000	3	1	0	3	0
28	742	10	10000	3	1	0	3	0
28	743	10	10000	3	1	0	3	0
28	744	10	10000	3	1	0	3	0
27	745	10	10000	3	1	0	3	0
26	746	10	10000	3	1	0	3	0
26	747	10	10000	3	1	0	3	0
26	748	10	10000	3	1	0	3	0
27	749	10	10000	3	1	0	3	0
27	750	10	10000	3	1	0	3	0
27	751	10	10000	3	1	0	3	0
25	752	10	10000	3	1	0	3	0
25	753	10	10000	3	1	0	3	0
27	754	10	10000	3	1	0	3	0
26	755	10	10000	3	1	0	3	0
25	756	10	10000	3	1	0	3	0
26	757	10	10000	3	1	0	3	0
26	758	10	10000	3	1	0	3	0
25	759	10	10000	3	1	0	3	0
25	760	10	10000	3	1	0	3	0
25	761	10	10000	3	1	0	3	0
26	762	10	10000	3	1	0	3	0
26	763	10	10000	3	1	0	3	0
25	764	10	10000	3	1	0	3	0
25	765	10	10000	3	1	0	3	0
25	766	10	10000	3	1	0	3	0
25	767	10	10000	3	1	0	3	0
24	768	10	10000	3	1	0	3	0
25	769	10	10000	3	1	0	3	0
25	770	10	10000	3	1	0	3	0
25	771	10	10000	3	1	0	3	0
24	772	10	10000	3	1	0	3	0
25	773	10	10000	3	1	0	3	0
25	774	10	10000	3	1	0	3	0
25	775	10	10000	3	1	0	3	0
25	776	10	10000	3	1	0	3	0
23	777	10	10000	3	1	0	3	0
24	778	10	10000	3	1	0	3	0
23	779	10	10000	3	1	0	3	0
22	780	10	10000	3	1	0	3	0
23	781	10	10000	3	1	0	3	0
24	782	10	10000	3	1	0	3	0
24	783	10	10000	3	1	0	3	0
24	784	10	10000	3	1	0	3	0
24	785	10	10000	3	1	0	3	0
24	786	10	10000	3	1	0	3	0
23	787	10	10000	3	1	0	3	0
23	788	10	10000	3	1	0	3	0
24	789	10	10000	3	1	0	3	0
24	790	10	10000	3	1	0	3	0
24	791	10	10000	3	1	0	3	0
22	792	10	10000	3	1	0	3	0
22	793	10	10000	3	1	0	3	0
23	794	10	10000	3	1	0	3	0
24	795	10	10000	3	1	0	3	0
23	796	10	10000	3	1	0	3	0
23	797	10	10000	3	1	0	3	0
24	798	10	10000	3	1	0	3	0
24	799	10	10000	3	1	0	3	0
24	800	10	10000	3	1	0	3	0
23	801	10	10000	3	1	0	3	0
24	802	10	10000	3	1	0	3	0
24	803	10	10000	3	1	0	3	0
24	804	10	10000	3	1	0	3	0
23	805	10	10000	3	1	0	3	0
23	806	10	10000	3	1	0	3	0
23	807	10	10000	3	1	0	3	0
23	808	10	10000	3	1	0	3	0
25	809	10	10000	3	1	0	3	0
24	810	10	10000	3	1	0	3	0
25	811	10	10000	3	1	0	3	0
24	812	10	10000	3	1	0	3	0
23	813	10	10000	3	1	0	3	0
24	814	10	10000	3	1	0	3	0
24	815	10	10000	3	1	0	3	0
23	816	10	10000	3	1	0	3	0
24	817	10	10000	3	1	0	3	0
24	818	10	10000	3	1	0	3	0
23	819	10	10000	3	1	0	3	0
23	820	10	10000	3	1	0	3	0
24	821	10	10000	3	1	0	3	0
26	822	10	10000	3	1	0	3	0
24	823	10	10000	3	1	0	3	0
24	824	10	10000	3	1	0	3	0
23	825	10	10000	3	1	0	3	0
23	826	10	10000	3	1	0	3	0
25	827	10	10000	3	1	0	3	0
24	828	10	10000	3	1	0	3	0
26	829	10	10000	3	1	0	3	0
25	830	10	10000	3	1	0	3	0
26	831	10	10000	3	1	0	3	0
23	832	10	10000	3	1	0	3	0
24	833	10	10000	3	1	0	3	0
24	834	10	10000	3	1	0	3	0
24	835	10	10000	3	1	0	3	0
24	836	10	10000	3	1	0	3	0
23	837	10	10000	3	1	0	3	0
23	838	10	10000	3	1	0	3	0
24	839	10	10000	3	1	0	3	0
23	840	10	10000	3	1	0	3	0
23	841	10	10000	3	1	0	3	0
25	842	10	10000	3	1	0	3	0
26	843	10	10000	3	1	0	3	0
26	844	10	10000	3	1	0	3	0
25	845	10	10000	3	1	0	3	0
25	846	10	10000	3	1	0	3	0
25	847	10	10000	3	1	0	3	0
24	848	10	10000	3	1	0	3	0
27	849	10	10000	3	1	0	3	0
26	850	10	10000	3	1	0	3	0
27	851	10	10000	3	1	0	3	0
25	852	10	10000	3	1	0	3	0
24	853	10	10000	3	1	0	3	0
24	854	10	10000	3	1	0	3	0
25	855	10	10000	3	1	0	3	0
24	856	10	10000	3	1	0	3	0
24	857	10	10000	3	1	0	3	0
26	858	10	10000	3	1	0	3	0
25	859	10	10000	3	1	0	3	0
24	860	10	10000	3	1	0	3	0
24	861	10	10000	3	1	0	3	0
26	862	10	10000	3	1	0	3	0
26	863	10	10000	3	1	0	3	0
25	864	10	10000	3	1	0	3	0
24	865	10	10000	3	1	0	3	0
26	866	10	10000	3	1	0	3	0
24	867	10	10000	3	1	0	3	0
24	868	10	10000	3	1	0	3	0
25	869	10	10000	3	1	0	3	0
25	870	10	10000	3	1	0	3	0
26	871	10	10000	3	1	0	3	0
22	872	10	10000	3	1	0	3	0
23	873	10	10000	3	1	0	3	0
22	874	10	10000	3	1	0	3	0
23	875	10	10000	3	1	0	3	0
23	876	10	10000	3	1	0	3	0
22	877	10	10000	3	1	0	3	0
23	878	10	10000	3	1	0	3	0
22	879	10	10000	3	1	0	3	0
22	880	10	10000	3	1	0	3	0
23	881	10	10000	3	1	0	3	0
23	882	10	10000	3	1	0	3	0
24	883	10	10000	3	1	0	3	0
22	884	10	10000	3	1	0	3	0
22	885	10	10000	3	1	0	3	0
22	886	10	10000	3	1	0	3	0
21	887	10	10000	3	1	0	3	0
21	888	10	10000	3	1	0	3	0
21	889	10	10000	3	1	0	3	0
22	890	10	10000	3	1	0	3	0
23	891	10	10000	3	1	0	3	0
20	892	10	10000	3	1	0	3	0
22	893	10	10000	3	1	0	3	0
21	894	10	10000	3	1	0	3	0
22	895	10	10000	3	1	0	3	0
22	896	10	10000	3	1	0	3	0
23	897	10	10000	3	1	0	3	0
23	898	10	10000	3	1	0	3	0
22	899	10	10000	3	1	0	3	0
22	900	10	10000	3	1	0	3	0
22	901	10	10000	3	1	0	3	0
23	902	10	10000	3	1	0	3	0
24	903	10	10000	3	1	0	3	0
22	904	10	10000	3	1	0	3	0
22	905	10	10000	3	1	0	3	0
22	906	10	10000	3	1	0	3	0
21	907	10	10000	3	1	0	3	0
20	908	10	10000	3	1	0	3	0
22	909	10	10000	3	1	0	3	0
22	910	10	10000	3	1	0	3	0
23	911	10	10000	3	1	0	3	0
21	912	10	10000	3	1	0	3	0
21	913	10	10000	3	1	0	3	0
22	914	10	10000	3	1	0	3	0
22	915	10	10000	3	1	0	3	0
23	916	10	10000	3	1	0	3	0
23	917	10	10000	3	1	0	3	0
23	918	10	10000	3	1	0	3	0
23	919	10	10000	3	1	0	3	0
23	920	10	10000	3	1	0	3	0
22	921	10	10000	3	1	0	3	0
25	922	10	10000	3	1	0	3	0
24	923	10	10000	3	1	0	3	0
23	924	10	10000	3	1	0	3	0
22	925	10	10000	3	1	0	3	0
23	926	10	10000	3	1	0	3	0
23	927	10	10000	3	1	0	3	0
23	928	10	10000	3	1	0	3	0
23	929	10	10000	3	1	0	3	0
23	930	10	10000	3	1	0	3	0
24	931	10	10000	3	1	0	3	0
23	932	10	10000	3	1	0	3	0
23	933	10	10000	3	1	0	3	0
24	934	10	10000	3	1	0	3	0
25	935	10	10000	3	1	0	3	0
26	936	10	10000	3	1	0	3	0
26	937	10	10000	3	1	0	3	0
25	938	10	10000	3	1	0	3	0
26	939	10	10000	3	1	0	3	0
25	940	10	10000	3	1	0	3	0
25	941	10	10000	3	1	0	3	0
26	942	10	10000	3	1	0	3	0
28	943	10	10000	3	1	0	3	0
27	944	10	10000	3	1	0	3	0
27	945	10	10000	3	1	0	3	0
27	946	10	10000	3	1	0	3	0
27	947	10	10000	3	1	0	3	0
25	948	10	10000	3	1	0	3	0
26	949	10	10000	3	1	0	3	0
26	950	10	10000	3	1	0	3	0
26	951	10	10000	3	1	0	3	0
23	952	10	10000	3	1	0	3	0
23	953	10	10000	3	1	0	3	0
23	954	10	10000	3	1	0	3	0
24	955	10	10000	3	1	0	3	0
24	956	10	10000	3	1	0	3	0
23	957	10	10000	3	1	0	3	0
24	958	10	10000	3	1	0	3	0
22	959	10	10000	3	1	0	3	0
24	960	10	10000	3	1	0	3	0
23	961	10	10000	3	1	0	3	0
25	962	10	10000	3	1	0	3	0
24	963	10	10000	3	1	0	3	0
25	964	10	10000	3	1	0	3	0
24	965	10	10000	3	1	0	3	0
24	966	10	10000	3	1	0	3	0
25	967	10	10000	3	1	0	3	0
26	968	10	10000	3	1	0	3	0
26	969	10	10000	3	1	0	3	0
25	970	10	10000	3	1	0	3	0
26	971	10	10000	3	1	0	3	0
24	972	10	10000	3	1	0	3	0
23	973	10	10000	3	1	0	3	0
24	974	10	10000	3	1	0	3	0
24	975	10	10000	3	1	0	3	0
27	976	10	10000	3	1	0	3	0
28	977	10	10000	3	1	0	3	0
27	978	10	10000	3	1	0	3	0
27	979	10	10000	3	1	0	3	0
28	980	10	10000	3	1	0	3	0
28	981	10	10000	3	1	0	3	0
29	982	10	10000	3	1	0	3	0
27	983	10	10000	3	1	0	3	0
28	984	10	10000	3	1	0	3	0
28	985	10	10000	3	1	0	3	0
27	986	10	10000	3	1	0	3	0
27	987	10	10000	3	1	0	3	0
27	988	10	10000	3	1	0	3	0
27	989	10	10000	3	1	0	3	0
27	990	10	10000	3	1	0	3	0
26	991	10	10000	3	1	0	3	0
25	992	10	10000	3	1	0	3	0
26	993	10	10000	3	1	0	3	0
25	994	10	10000	3	1	0	3	0
25	995	10	10000	3	1	0	3	0
25	996	10	10000	3	1	0	3	0
26	997	10	10000	3	1	0	3	0
25	998	10	10000	3	1	0	3	0
24	999	10	10000	3	1	0	3	0
24	1000	10	10000	3	1	0	3	0
24	1001	10	10000	3	1	0	3	0
79	1	0	10000	4	1	0	4	0
80	2	0	10000	4	1	0	4	0
84	3	0	10000	4	1	0	4	0
86	4	0	10000	4	1	0	4	0
90	5	0	10000	4	1	0	4	0
92	6	0	10000	4	1	0	4	0
94	7	0	10000	4	1	0	4	0
99	8	0	10000	4	1	0	4	0
102	9	0	10000	4	1	0	4	0
102	10	0	10000	4	1	0	4	0
104	11	0	10000	4	1	0	4	0
103	12	0	10000	4	1	0	4	0
103	13	0	10000	4	1	0	4	0
103	14	0	10000	4	1	0	4	0
103	15	0	10000	4	1	0	4	0
105	16	0	10000	4	1	0	4	0
104	17	0	10000	4	1	0	4	0
104	18	0	10000	4	1	0	4	0
100	19	0	10000	4	1	0	4	0
98	20	0	10000	4	1	0	4	0
98	20	0	10000	4	1	0	4	0
96	21	0	10000	4	1	0	4	0
97	23	0	10000	4	1	0	4	0
97	24	0	10000	4	1	0	4	0
95	25	0	10000	4	1	0	4	0
96	26	0	10000	4	1	0	4	0
97	27	0	10000	4	1	0	4	0
98	28	0	10000	4	1	0	4	0
99	29	0	10000	4	1	0	4	0
97	30	0	10000	4	1	0	4	0
97	30	0	10000	4	1	0	4	0
93	31	0	10000	4	1	0	4	0
93	33	0	10000	4	1	0	4	0
93	34	0	10000	4	1	0	4	0
92	35	0	10000	4	1	0	4	0
92	36	0	10000	4	1	0	4	0
90	37	0	10000	4	1	0	4	0
86	38	0	10000	4	1	0	4	0
83	39	0	10000	4	1	0	4	0
81	40	0	10000	4	1	0	4	0
82	40	0	10000	4	1	0	4	0
82	41	0	10000	4	1	0	4	0
82	43	0	10000	4	1	0	4	0
83	44	0	10000	4	1	0	4	0
81	45	0	10000	4	1	0	4	0
80	46	0	10000	4	1	0	4	0
76	47	0	10000	4	1	0	4	0
74	48	0	10000	4	1	0	4	0
72	49	0	10000	4	1	0	4	0
69	50	0	10000	4	1	0	4	0
67	50	0	10000	4	1	0	4	0
64	51	0	10000	4	1	0	4	0
63	53	0	10000	4	1	0	4	0
61	54	0	10000	4	1	0	4	0
59	55	0	10000	4	1	0	4	0
58	56	0	10000	4	1	0	4	0
57	57	0	10000	4	1	0	4	0
55	58	0	10000	4	1	0	4	0
52	59	0	10000	4	1	0	4	0
53	60	0	10000	4	1	0	4	0
52	60	0	10000	4	1	0	4	0
51	61	0	10000	4	1	0	4	0
49	63	0	10000	4	1	0	4	0
49	64	0	10000	4	1	0	4	0
48	65	0	10000	4	1	0	4	0
47	66	0	10000	4	1	0	4	0
44	67	0	10000	4	1	0	4	0
44	68	0	10000	4	1	0	4	0
43	69	0	10000	4	1	0	4	0
42	70	0	10000	4	1	0	4	0
42	70	0	10000	4	1	0	4	0
40	71	0	10000	4	1	0	4	0
38	73	0	10000	4	1	0	4	0
38	74	0	10000	4	1	0	4	0
37	75	0	10000	4	1	0	4	0
38	76	0	10000	4	1	0	4	0
39	77	0	10000	4	1	0	4	0
38	78	0	10000	4	1	0	4	0
35	79	0	10000	4	1	0	4	0
35	80	0	10000	4	1	0	4	0
36	80	0	10000	4	1	0	4	0
36	81	0	10000	4	1	0	4	0
37	83	0	10000	4	1	0	4	0
36	84	0	10000	4	1	0	4	0
36	85	0	10000	4	1	0	4	0
34	86	0	10000	4	1	0	4	0
34	87	0	10000	4	1	0	4	0
33	88	0	10000	4	1	0	4	0
35	89	0	10000	4	1	0	4	0
34	90	0	10000	4	1	0	4	0
34	90	0	10000	4	1	0	4	0
33	91	0	10000	4	1	0	4	0
33	93	0	10000	4	1	0	4	0
32	94	0	10000	4	1	0	4	0
35	95	0	10000	4	1	0	4	0
37	96	0	10000	4	1	0	4	0
36	97	0	10000	4	1	0	4	0
39	98	0	10000	4	1	0	4	0
37	99	0	10000	4	1	0	4	0
39	100	0	10000	4	1	0	4	0
40	100	0	10000	4	1	0	4	0
39	101	0	10000	4	1	0	4	0
37	103	0	10000	4	1	0	4	0
37	104	0	10000	4	1	0	4	0
38	105	0	10000	4	1	0	4	0
37	106	0	10000	4	1	0	4	0
36	107	0	10000	4	1	0	4	0
37	108	0	10000	4	1	0	4	0
38	109	0	10000	4	1	0	4	0
37	110	0	10000	4	1	0	4	0
37	110	0	10000	4	1	0	4	0
35	111	0	10000	4	1	0	4	0
35	113	0	10000	4	1	0	4	0
35	114	0	10000	4	1	0	4	0
34	115	0	10000	4	1	0	4	0
36	116	0	10000	4	1	0	4	0
36	117	0	10000	4	1	0	4	0
39	118	0	10000	4	1	0	4	0
37	119	0	10000	4	1	0	4	0
36	120	0	10000	4	1	0	4	0
34	120	0	10000	4	1	0	4	0
37	121	0	10000	4	1	0	4	0
35	123	0	10000	4	1	0	4	0
35	124	0	10000	4	1	0	4	0
35	125	0	10000	4	1	0	4	0
35	126	0	10000	4	1	0	4	0
33	127	0	10000	4	1	0	4	0
34	128	0	10000	4	1	0	4	0
35	129	0	10000	4	1	0	4	0
35	130	0	10000	4	1	0	4	0
34	130	0	10000	4	1	0	4	0
32	131	0	10000	4	1	0	4	0
33	133	0	10000	4	1	0	4	0
33	134	0	10000	4	1	0	4	0
32	135	0	10000	4	1	0	4	0
33	136	0	10000	4	1	0	4	0
32	137	0	10000	4	1	0	4	0
32	138	0	10000	4	1	0	4	0
30	139	0	10000	4	1	0	4	0
29	140	0	10000	4	1	0	4	0
30	140	0	10000	4	1	0	4	0
30	141	0	10000	4	1	0	4	0
31	143	0	10000	4	1	0	4	0
32	144	0	10000	4	1	0	4	0
33	145	0	10000	4	1	0	4	0
34	146	0	10000	4	1	0	4	0
34	147	0	10000	4	1	0	4	0
34	148	0	10000	4	1	0	4	0
36	149	0	10000	4	1	0	4	0
35	150	0	10000	4	1	0	4	0
34	150	0	10000	4	1	0	4	0
34	151	0	10000	4	1	0	4	0
33	153	0	10000	4	1	0	4	0
33	154	0	10000	4	1	0	4	0
33	155	0	10000	4	1	0	4	0
34	156	0	10000	4	1	0	4	0
35	157	0	10000	4	1	0	4	0
36	158	0	10000	4	1	0	4	0
34	159	0	10000	4	1	0	4	0
34	160	0	10000	4	1	0	4	0
33	160	0	10000	4	1	0	4	0
33	161	0	10000	4	1	0	4	0
32	163	0	10000	4	1	0	4	0
32	164	0	10000	4	1	0	4	0
32	165	0	10000	4	1	0	4	0
32	166	0	10000	4	1	0	4	0
31	167	0	10000	4	1	0	4	0
30	168	0	10000	4	1	0	4	0
33	169	0	10000	4	1	0	4	0
33	170	0	10000	4	1	0	4	0
32	170	0	10000	4	1	0	4	0
32	171	0	10000	4	1	0	4	0
32	173	0	10000	4	1	0	4	0
31	174	0	10000	4	1	0	4	0
31	175	0	10000	4	1	0	4	0
31	176	0	10000	4	1	0	4	0
30	177	0	10000	4	1	0	4	0
30	178	0	10000	4	1	0	4	0
30	179	0	10000	4	1	0	4	0
29	180	0	10000	4	1	0	4	0
29	180	0	10000	4	1	0	4	0
30	181	0	10000	4	1	0	4	0
29	183	0	10000	4	1	0	4	0
28	184	0	10000	4	1	0	4	0
28	185	0	10000	4	1	0	4	0
28	186	0	10000	4	1	0	4	0
29	187	0	10000	4	1	0	4	0
29	188	0	10000	4	1	0	4	0
32	189	0	10000	4	1	0	4	0
33	190	0	10000	4	1	0	4	0
33	190	0	10000	4	1	0	4	0
34	191	0	10000	4	1	0	4	0
34	193	0	10000	4	1	0	4	0
35	194	0	10000	4	1	0	4	0
34	195	0	10000	4	1	0	4	0
35	196	0	10000	4	1	0	4	0
34	197	0	10000	4	1	0	4	0
35	198	0	10000	4	1	0	4	0
33	199	0	10000	4	1	0	4	0
32	200	0	10000	4	1	0	4	0
32	200	0	10000	4	1	0	4	0
32	201	0	10000	4	1	0	4	0
32	203	0	10000	4	1	0	4	0
32	204	0	10000	4	1	0	4	0
33	205	0	10000	4	1	0	4	0
32	206	0	10000	4	1	0	4	0
34	207	0	10000	4	1	0	4	0
34	208	0	10000	4	1	0	4	0
39	209	0	10000	4	1	0	4	0
40	210	0	10000	4	1	0	4	0
38	210	0	10000	4	1	0	4	0
36	211	0	10000	4	1	0	4	0
39	213	0	10000	4	1	0	4	0
38	214	0	10000	4	1	0	4	0
39	215	0	10000	4	1	0	4	0
41	216	0	10000	4	1	0	4	0
39	217	0	10000	4	1	0	4	0
39	218	0	10000	4	1	0	4	0
38	219	0	10000	4	1	0	4	0
42	220	0	10000	4	1	0	4	0
47	220	0	10000	4	1	0	4	0
50	221	0	10000	4	1	0	4	0
53	223	0	10000	4	1	0	4	0
53	224	0	10000	4	1	0	4	0
51	225	0	10000	4	1	0	4	0
49	226	0	10000	4	1	0	4	0
49	227	0	10000	4	1	0	4	0
50	228	0	10000	4	1	0	4	0
55	229	0	10000	4	1	0	4	0
56	230	0	10000	4	1	0	4	0
54	230	0	10000	4	1	0	4	0
52	231	0	10000	4	1	0	4	0
52	233	0	10000	4	1	0	4	0
51	234	0	10000	4	1	0	4	0
48	235	0	10000	4	1	0	4	0
48	236	0	10000	4	1	0	4	0
46	237	0	10000	4	1	0	4	0
45	238	0	10000	4	1	0	4	0
44	239	0	10000	4	1	0	4	0
46	240	0	10000	4	1	0	4	0
44	240	0	10000	4	1	0	4	0
44	241	0	10000	4	1	0	4	0
44	243	0	10000	4	1	0	4	0
42	244	0	10000	4	1	0	4	0
42	245	0	10000	4	1	0	4	0
41	246	0	10000	4	1	0	4	0
39	247	0	10000	4	1	0	4	0
38	248	0	10000	4	1	0	4	0
40	249	0	10000	4	1	0	4	0
40	250	0	10000	4	1	0	4	0
39	250	0	10000	4	1	0	4	0
37	251	0	10000	4	1	0	4	0
37	253	0	10000	4	1	0	4	0
36	254	0	10000	4	1	0	4	0
34	255	0	10000	4	1	0	4	0
36	256	0	10000	4	1	0	4	0
35	257	0	10000	4	1	0	4	0
36	258	0	10000	4	1	0	4	0
34	259	0	10000	4	1	0	4	0
35	260	0	10000	4	1	0	4	0
37	260	0	10000	4	1	0	4	0
38	261	0	10000	4	1	0	4	0
39	263	0	10000	4	1	0	4	0
40	264	0	10000	4	1	0	4	0
46	265	0	10000	4	1	0	4	0
51	266	0	10000	4	1	0	4	0
54	267	0	10000	4	1	0	4	0
56	268	0	10000	4	1	0	4	0
56	269	0	10000	4	1	0	4	0
55	270	0	10000	4	1	0	4	0
54	270	0	10000	4	1	0	4	0
53	271	0	10000	4	1	0	4	0
51	273	0	10000	4	1	0	4	0
50	274	0	10000	4	1	0	4	0
48	275	0	10000	4	1	0	4	0
48	276	0	10000	4	1	0	4	0
46	277	0	10000	4	1	0	4	0
45	278	0	10000	4	1	0	4	0
43	279	0	10000	4	1	0	4	0
42	280	0	10000	4	1	0	4	0
41	280	0	10000	4	1	0	4	0
41	281	0	10000	4	1	0	4	0
40	283	0	10000	4	1	0	4	0
40	284	0	10000	4	1	0	4	0
39	285	0	10000	4	1	0	4	0
38	286	0	10000	4	1	0	4	0
37	287	0	10000	4	1	0	4	0
37	288	0	10000	4	1	0	4	0
39	289	0	10000	4	1	0	4	0
38	290	0	10000	4	1	0	4	0
37	290	0	10000	4	1	0	4	0
39	291	0	10000	4	1	0	4	0
40	293	0	10000	4	1	0	4	0
40	294	0	10000	4	1	0	4	0
40	295	0	10000	4	1	0	4	0
41	296	0	10000	4	1	0	4	0
40	297	0	10000	4	1	0	4	0
40	298	0	10000	4	1	0	4	0
38	299	0	10000	4	1	0	4	0
37	300	0	10000	4	1	0	4	0
36	300	0	10000	4	1	0	4	0
36	301	0	10000	4	1	0	4	0
35	303	0	10000	4	1	0	4	0
36	304	0	10000	4	1	0	4	0
38	305	0	10000	4	1	0	4	0
37	306	0	10000	4	1	0	4	0
36	307	0	10000	4	1	0	4	0
38	308	0	10000	4	1	0	4	0
42	309	0	10000	4	1	0	4	0
42	310	0	10000	4	1	0	4	0
40	310	0	10000	4	1	0	4	0
40	311	0	10000	4	1	0	4	0
40	313	0	10000	4	1	0	4	0
39	314	0	10000	4	1	0	4	0
38	315	0	10000	4	1	0	4	0
38	316	0	10000	4	1	0	4	0
38	317	0	10000	4	1	0	4	0
38	318	0	10000	4	1	0	4	0
36	319	0	10000	4	1	0	4	0
35	320	0	10000	4	1	0	4	0
34	320	0	10000	4	1	0	4	0
35	321	0	10000	4	1	0	4	0
34	323	0	10000	4	1	0	4	0
33	324	0	10000	4	1	0	4	0
35	325	0	10000	4	1	0	4	0
34	326	0	10000	4	1	0	4	0
35	327	0	10000	4	1	0	4	0
33	328	0	10000	4	1	0	4	0
35	329	0	10000	4	1	0	4	0
34	330	0	10000	4	1	0	4	0
33	330	0	10000	4	1	0	4	0
33	331	0	10000	4	1	0	4	0
33	333	0	10000	4	1	0	4	0
34	334	0	10000	4	1	0	4	0
34	335	0	10000	4	1	0	4	0
34	336	0	10000	4	1	0	4	0
34	337	0	10000	4	1	0	4	0
34	338	0	10000	4	1	0	4	0
32	339	0	10000	4	1	0	4	0
32	340	0	10000	4	1	0	4	0
31	340	0	10000	4	1	0	4	0
31	341	0	10000	4	1	0	4	0
31	343	0	10000	4	1	0	4	0
31	344	0	10000	4	1	0	4	0
31	345	0	10000	4	1	0	4	0
31	346	0	10000	4	1	0	4	0
32	347	0	10000	4	1	0	4	0
34	348	0	10000	4	1	0	4	0
38	349	0	10000	4	1	0	4	0
39	350	0	10000	4	1	0	4	0
37	350	0	10000	4	1	0	4	0
37	351	0	10000	4	1	0	4	0
36	353	0	10000	4	1	0	4	0
39	354	0	10000	4	1	0	4	0
42	355	0	10000	4	1	0	4	0
43	356	0	10000	4	1	0	4	0
42	357	0	10000	4	1	0	4	0
42	358	0	10000	4	1	0	4	0
39	359	0	10000	4	1	0	4	0
38	360	0	10000	4	1	0	4	0
37	360	0	10000	4	1	0	4	0
36	361	0	10000	4	1	0	4	0
38	363	0	10000	4	1	0	4	0
39	364	0	10000	4	1	0	4	0
40	365	0	10000	4	1	0	4	0
42	366	0	10000	4	1	0	4	0
42	367	0	10000	4	1	0	4	0
42	368	0	10000	4	1	0	4	0
43	369	0	10000	4	1	0	4	0
42	370	0	10000	4	1	0	4	0
41	370	0	10000	4	1	0	4	0
40	371	0	10000	4	1	0	4	0
38	373	0	10000	4	1	0	4	0
39	374	0	10000	4	1	0	4	0
42	375	0	10000	4	1	0	4	0
43	376	0	10000	4	1	0	4	0
44	377	0	10000	4	1	0	4	0
44	378	0	10000	4	1	0	4	0
42	379	0	10000	4	1	0	4	0
41	380	0	10000	4	1	0	4	0
40	380	0	10000	4	1	0	4	0
39	381	0	10000	4	1	0	4	0
39	383	0	10000	4	1	0	4	0
39	384	0	10000	4	1	0	4	0
37	385	0	10000	4	1	0	4	0
37	386	0	10000	4	1	0	4	0
35	387	0	10000	4	1	0	4	0
34	388	0	10000	4	1	0	4	0
35	389	0	10000	4	1	0	4	0
36	390	0	10000	4	1	0	4	0
40	390	0	10000	4	1	0	4	0
39	391	0	10000	4	1	0	4	0
39	393	0	10000	4	1	0	4	0
41	394	0	10000	4	1	0	4	0
42	395	0	10000	4	1	0	4	0
42	396	0	10000	4	1	0	4	0
41	397	0	10000	4	1	0	4	0
40	398	0	10000	4	1	0	4	0
37	399	0	10000	4	1	0	4	0
36	400	0	10000	4	1	0	4	0
37	400	0	10000	4	1	0	4	0
37	401	0	10000	4	1	0	4	0
37	403	0	10000	4	1	0	4	0
37	404	0	10000	4	1	0	4	0
34	405	0	10000	4	1	0	4	0
34	406	0	10000	4	1	0	4	0
33	407	0	10000	4	1	0	4	0
33	408	0	10000	4	1	0	4	0
36	409	0	10000	4	1	0	4	0
35	410	0	10000	4	1	0	4	0
35	410	0	10000	4	1	0	4	0
34	411	0	10000	4	1	0	4	0
34	413	0	10000	4	1	0	4	0
33	414	0	10000	4	1	0	4	0
33	415	0	10000	4	1	0	4	0
34	416	0	10000	4	1	0	4	0
33	417	0	10000	4	1	0	4	0
34	418	0	10000	4	1	0	4	0
32	419	0	10000	4	1	0	4	0
31	420	0	10000	4	1	0	4	0
32	420	0	10000	4	1	0	4	0
31	421	0	10000	4	1	0	4	0
32	423	0	10000	4	1	0	4	0
32	424	0	10000	4	1	0	4	0
31	425	0	10000	4	1	0	4	0
30	426	0	10000	4	1	0	4	0
30	427	0	10000	4	1	0	4	0
29	428	0	10000	4	1	0	4	0
29	429	0	10000	4	1	0	4	0
30	430	0	10000	4	1	0	4	0
30	430	0	10000	4	1	0	4	0
30	431	0	10000	4	1	0	4	0
34	433	0	10000	4	1	0	4	0
34	434	0	10000	4	1	0	4	0
32	435	0	10000	4	1	0	4	0
35	436	0	10000	4	1	0	4	0
38	437	0	10000	4	1	0	4	0
38	438	0	10000	4	1	0	4	0
38	439	0	10000	4	1	0	4	0
40	440	0	10000	4	1	0	4	0
40	440	0	10000	4	1	0	4	0
39	441	0	10000	4	1	0	4	0
40	443	0	10000	4	1	0	4	0
41	444	0	10000	4	1	0	4	0
41	445	0	10000	4	1	0	4	0
41	446	0	10000	4	1	0	4	0
39	447	0	10000	4	1	0	4	0
38	448	0	10000	4	1	0	4	0
39	449	0	10000	4	1	0	4	0
39	450	0	10000	4	1	0	4	0
36	450	0	10000	4	1	0	4	0
36	451	0	10000	4	1	0	4	0
34	453	0	10000	4	1	0	4	0
34	454	0	10000	4	1	0	4	0
33	455	0	10000	4	1	0	4	0
34	456	0	10000	4	1	0	4	0
34	457	0	10000	4	1	0	4	0
35	458	0	10000	4	1	0	4	0
35	459	0	10000	4	1	0	4	0
36	460	0	10000	4	1	0	4	0
38	460	0	10000	4	1	0	4	0
37	461	0	10000	4	1	0	4	0
35	463	0	10000	4	1	0	4	0
34	464	0	10000	4	1	0	4	0
35	465	0	10000	4	1	0	4	0
33	466	0	10000	4	1	0	4	0
33	467	0	10000	4	1	0	4	0
32	468	0	10000	4	1	0	4	0
33	469	0	10000	4	1	0	4	0
34	470	0	10000	4	1	0	4	0
34	470	0	10000	4	1	0	4	0
36	471	0	10000	4	1	0	4	0
36	473	0	10000	4	1	0	4	0
35	474	0	10000	4	1	0	4	0
35	475	0	10000	4	1	0	4	0
37	476	0	10000	4	1	0	4	0
38	477	0	10000	4	1	0	4	0
37	478	0	10000	4	1	0	4	0
35	479	0	10000	4	1	0	4	0
38	480	0	10000	4	1	0	4	0
37	480	0	10000	4	1	0	4	0
37	481	0	10000	4	1	0	4	0
37	483	0	10000	4	1	0	4	0
35	484	0	10000	4	1	0	4	0
36	485	0	10000	4	1	0	4	0
35	486	0	10000	4	1	0	4	0
36	487	0	10000	4	1	0	4	0
40	488	0	10000	4	1	0	4	0
42	489	0	10000	4	1	0	4	0
43	490	0	10000	4	1	0	4	0
43	490	0	10000	4	1	0	4	0
44	491	0	10000	4	1	0	4	0
45	493	0	10000	4	1	0	4	0
47	494	0	10000	4	1	0	4	0
46	495	0	10000	4	1	0	4	0
45	496	0	10000	4	1	0	4	0
44	497	0	10000	4	1	0	4	0
44	498	0	10000	4	1	0	4	0
41	499	0	10000	4	1	0	4	0
40	500	0	10000	4	1	0	4	0
40	500	0	10000	4	1	0	4	0
40	501	0	10000	4	1	0	4	0
39	503	0	10000	4	1	0	4	1
39	504	0	10000	4	1	0	4	1
38	505	0	10000	4	1	0	4	1
37	506	0	10000	4	1	0	4	1
37	507	0	10000	4	1	0	4	1
36	508	0	10000	4	1	0	4	1
35	509	0	10000	4	1	0	4	1
36	510	0	10000	4	1	0	4	1
35	510	0	10000	4	1	0	4	1
33	511	0	10000	4	1	0	4	1
32	513	0	10000	4	1	0	4	1
33	514	0	10000	4	1	0	4	1
34	515	0	10000	4	1	0	4	1
35	516	0	10000	4	1	0	4	1
36	517	0	10000	4	1	0	4	1
38	518	0	10000	4	1	0	4	1
39	519	0	10000	4	1	0	4	1
42	520	0	10000	4	1	0	4	1
44	520	0	10000	4	1	0	4	1
43	521	0	10000	4	1	0	4	1
45	523	0	10000	4	1	0	4	1
44	524	0	10000	4	1	0	4	1
42	525	0	10000	4	1	0	4	1
41	526	0	10000	4	1	0	4	1
42	527	0	10000	4	1	0	4	1
40	528	0	10000	4	1	0	4	1
41	529	0	10000	4	1	0	4	1
42	530	0	10000	4	1	0	4	1
40	530	0	10000	4	1	0	4	1
39	531	0	10000	4	1	0	4	1
40	533	0	10000	4	1	0	4	1
40	534	0	10000	4	1	0	4	1
39	535	0	10000	4	1	0	4	1
39	536	0	10000	4	1	0	4	1
41	537	0	10000	4	1	0	4	1
42	538	0	10000	4	1	0	4	1
40	539	0	10000	4	1	0	4	1
40	540	0	10000	4	1	0	4	1
39	540	0	10000	4	1	0	4	1
37	541	0	10000	4	1	0	4	1
37	543	0	10000	4	1	0	4	1
37	544	0	10000	4	1	0	4	1
37	545	0	10000	4	1	0	4	1
35	546	0	10000	4	1	0	4	1
36	547	0	10000	4	1	0	4	1
36	548	0	10000	4	1	0	4	1
37	549	0	10000	4	1	0	4	1
36	550	0	10000	4	1	0	4	1
38	550	0	10000	4	1	0	4	1
38	551	0	10000	4	1	0	4	1
37	553	0	10000	4	1	0	4	0
36	554	0	10000	4	1	0	4	0
35	555	0	10000	4	1	0	4	0
36	556	0	10000	4	1	0	4	0
35	557	0	10000	4	1	0	4	0
36	558	0	10000	4	1	0	4	0
33	559	0	10000	4	1	0	4	0
33	560	0	10000	4	1	0	4	0
33	560	0	10000	4	1	0	4	0
34	561	0	10000	4	1	0	4	0
35	563	0	10000	4	1	0	4	0
36	564	0	10000	4	1	0	4	0
39	565	0	10000	4	1	0	4	0
39	566	0	10000	4	1	0	4	0
37	567	0	10000	4	1	0	4	0
36	568	0	10000	4	1	0	4	0
39	569	0	10000	4	1	0	4	0
37	570	0	10000	4	1	0	4	0
36	570	0	10000	4	1	0	4	0
35	571	0	10000	4	1	0	4	0
34	573	0	10000	4	1	0	4	0
36	574	0	10000	4	1	0	4	0
34	575	0	10000	4	1	0	4	0
35	576	0	10000	4	1	0	4	0
34	577	0	10000	4	1	0	4	0
35	578	0	10000	4	1	0	4	0
32	579	0	10000	4	1	0	4	0
31	580	0	10000	4	1	0	4	0
32	580	0	10000	4	1	0	4	0
31	581	0	10000	4	1	0	4	0
31	583	0	10000	4	1	0	4	0
30	584	0	10000	4	1	0	4	0
31	585	0	10000	4	1	0	4	0
31	586	0	10000	4	1	0	4	0
31	587	0	10000	4	1	0	4	0
30	588	0	10000	4	1	0	4	0
33	589	0	10000	4	1	0	4	0
32	590	0	10000	4	1	0	4	0
32	590	0	10000	4	1	0	4	0
32	591	0	10000	4	1	0	4	0
33	593	0	10000	4	1	0	4	0
32	594	0	10000	4	1	0	4	0
32	595	0	10000	4	1	0	4	0
32	596	0	10000	4	1	0	4	0
32	597	0	10000	4	1	0	4	0
32	598	0	10000	4	1	0	4	0
30	599	0	10000	4	1	0	4	0
31	600	0	10000	4	1	0	4	0
32	600	0	10000	4	1	0	4	0
31	601	0	10000	4	1	0	4	0
31	603	0	10000	4	1	0	4	0
32	604	0	10000	4	1	0	4	0
31	605	0	10000	4	1	0	4	0
32	606	0	10000	4	1	0	4	0
31	607	0	10000	4	1	0	4	0
32	608	0	10000	4	1	0	4	0
37	609	0	10000	4	1	0	4	0
44	610	0	10000	4	1	0	4	0
44	610	0	10000	4	1	0	4	0
44	611	0	10000	4	1	0	4	0
47	613	0	10000	4	1	0	4	0
46	614	0	10000	4	1	0	4	0
45	615	0	10000	4	1	0	4	0
43	616	0	10000	4	1	0	4	0
42	617	0	10000	4	1	0	4	0
43	618	0	10000	4	1	0	4	0
40	619	0	10000	4	1	0	4	0
39	620	0	10000	4	1	0	4	0
39	620	0	10000	4	1	0	4	0
38	621	0	10000	4	1	0	4	0
40	623	0	10000	4	1	0	4	0
39	624	0	10000	4	1	0	4	0
38	625	0	10000	4	1	0	4	0
38	626	0	10000	4	1	0	4	0
37	627	0	10000	4	1	0	4	0
36	628	0	10000	4	1	0	4	0
37	629	0	10000	4	1	0	4	0
37	630	0	10000	4	1	0	4	0
37	630	0	10000	4	1	0	4	0
37	631	0	10000	4	1	0	4	0
38	633	0	10000	4	1	0	4	0
40	634	0	10000	4	1	0	4	0
43	635	0	10000	4	1	0	4	0
43	636	0	10000	4	1	0	4	0
43	637	0	10000	4	1	0	4	0
42	638	0	10000	4	1	0	4	0
39	639	0	10000	4	1	0	4	0
38	640	0	10000	4	1	0	4	0
37	640	0	10000	4	1	0	4	0
40	641	0	10000	4	1	0	4	0
40	643	0	10000	4	1	0	4	0
39	644	0	10000	4	1	0	4	0
41	645	0	10000	4	1	0	4	0
40	646	0	10000	4	1	0	4	0
38	647	0	10000	4	1	0	4	0
37	648	0	10000	4	1	0	4	0
38	649	0	10000	4	1	0	4	0
37	650	0	10000	4	1	0	4	0
35	650	0	10000	4	1	0	4	0
35	651	0	10000	4	1	0	4	0
34	653	0	10000	4	1	0	4	0
32	654	0	10000	4	1	0	4	0
32	655	0	10000	4	1	0	4	0
32	656	0	10000	4	1	0	4	0
32	657	0	10000	4	1	0	4	0
34	658	0	10000	4	1	0	4	0
37	659	0	10000	4	1	0	4	0
39	660	0	10000	4	1	0	4	0
41	660	0	10000	4	1	0	4	0
41	661	0	10000	4	1	0	4	0
41	663	0	10000	4	1	0	4	0
39	664	0	10000	4	1	0	4	0
40	665	0	10000	4	1	0	4	0
38	666	0	10000	4	1	0	4	0
37	667	0	10000	4	1	0	4	0
35	668	0	10000	4	1	0	4	0
36	669	0	10000	4	1	0	4	0
35	670	0	10000	4	1	0	4	0
34	670	0	10000	4	1	0	4	0
34	671	0	10000	4	1	0	4	0
33	673	0	10000	4	1	0	4	0
32	674	0	10000	4	1	0	4	0
32	675	0	10000	4	1	0	4	0
32	676	0	10000	4	1	0	4	0
33	677	0	10000	4	1	0	4	0
32	678	0	10000	4	1	0	4	0
32	679	0	10000	4	1	0	4	0
32	680	0	10000	4	1	0	4	0
31	680	0	10000	4	1	0	4	0
30	681	0	10000	4	1	0	4	0
31	683	0	10000	4	1	0	4	0
28	684	0	10000	4	1	0	4	0
30	685	0	10000	4	1	0	4	0
30	686	0	10000	4	1	0	4	0
28	687	0	10000	4	1	0	4	0
28	688	0	10000	4	1	0	4	0
30	689	0	10000	4	1	0	4	0
30	690	0	10000	4	1	0	4	0
29	690	0	10000	4	1	0	4	0
29	691	0	10000	4	1	0	4	0
28	693	0	10000	4	1	0	4	0
28	694	0	10000	4	1	0	4	0
28	695	0	10000	4	1	0	4	0
28	696	0	10000	4	1	0	4	0
28	697	0	10000	4	1	0	4	0
28	698	0	10000	4	1	0	4	0
26	699	0	10000	4	1	0	4	0
27	700	0	10000	4	1	0	4	0
27	700	0	10000	4	1	0	4	0
28	701	0	10000	4	1	0	4	0
28	703	0	10000	4	1	0	4	0
29	704	0	10000	4	1	0	4	0
30	705	0	10000	4	1	0	4	0
29	706	0	10000	4	1	0	4	0
27	707	0	10000	4	1	0	4	0
29	708	0	10000	4	1	0	4	0
31	709	0	10000	4	1	0	4	0
32	710	0	10000	4	1	0	4	0
32	710	0	10000	4	1	0	4	0
31	711	0	10000	4	1	0	4	0
33	713	0	10000	4	1	0	4	0
33	714	0	10000	4	1	0	4	0
32	715	0	10000	4	1	0	4	0
31	716	0	10000	4	1	0	4	0
32	717	0	10000	4	1	0	4	0
33	718	0	10000	4	1	0	4	0
30	719	0	10000	4	1	0	4	0
31	720	0	10000	4	1	0	4	0
30	720	0	10000	4	1	0	4	0
30	721	0	10000	4	1	0	4	0
30	723	0	10000	4	1	0	4	0
29	724	0	10000	4	1	0	4	0
29	725	0	10000	4	1	0	4	0
30	726	0	10000	4	1	0	4	0
30	727	0	10000	4	1	0	4	0
30	728	0	10000	4	1	0	4	0
31	729	0	10000	4	1	0	4	0
34	730	0	10000	4	1	0	4	0
32	730	0	10000	4	1	0	4	0
33	731	0	10000	4	1	0	4	0
33	733	0	10000	4	1	0	4	0
33	734	0	10000	4	1	0	4	0
32	735	0	10000	4	1	0	4	0
32	736	0	10000	4	1	0	4	0
33	737	0	10000	4	1	0	4	0
32	738	0	10000	4	1	0	4	0
30	739	0	10000	4	1	0	4	0
29	740	0	10000	4	1	0	4	0
31	740	0	10000	4	1	0	4	0
31	741	0	10000	4	1	0	4	0
31	743	0	10000	4	1	0	4	0
31	744	0	10000	4	1	0	4	0
30	745	0	10000	4	1	0	4	0
29	746	0	10000	4	1	0	4	0
30	747	0	10000	4	1	0	4	0
30	748	0	10000	4	1	0	4	0
32	749	0	10000	4	1	0	4	0
32	750	0	10000	4	1	0	4	0
31	750	0	10000	4	1	0	4	0
31	751	0	10000	4	1	0	4	0
30	753	0	10000	4	1	0	4	0
31	754	0	10000	4	1	0	4	0
34	755	0	10000	4	1	0	4	0
37	756	0	10000	4	1	0	4	0
38	757	0	10000	4	1	0	4	0
38	758	0	10000	4	1	0	4	0
37	759	0	10000	4	1	0	4	0
36	760	0	10000	4	1	0	4	0
40	760	0	10000	4	1	0	4	0
40	761	0	10000	4	1	0	4	0
40	763	0	10000	4	1	0	4	0
39	764	0	10000	4	1	0	4	0
38	765	0	10000	4	1	0	4	0
37	766	0	10000	4	1	0	4	0
36	767	0	10000	4	1	0	4	0
35	768	0	10000	4	1	0	4	0
36	769	0	10000	4	1	0	4	0
35	770	0	10000	4	1	0	4	0
35	770	0	10000	4	1	0	4	0
33	771	0	10000	4	1	0	4	0
32	773	0	10000	4	1	0	4	0
33	774	0	10000	4	1	0	4	0
32	775	0	10000	4	1	0	4	0
32	776	0	10000	4	1	0	4	0
34	777	0	10000	4	1	0	4	0
33	778	0	10000	4	1	0	4	0
31	779	0	10000	4	1	0	4	0
30	780	0	10000	4	1	0	4	0
30	780	0	10000	4	1	0	4	0
30	781	0	10000	4	1	0	4	0
30	783	0	10000	4	1	0	4	0
30	784	0	10000	4	1	0	4	0
30	785	0	10000	4	1	0	4	0
29	786	0	10000	4	1	0	4	0
30	787	0	10000	4	1	0	4	0
28	788	0	10000	4	1	0	4	0
30	789	0	10000	4	1	0	4	0
29	790	0	10000	4	1	0	4	0
29	790	0	10000	4	1	0	4	0
28	791	0	10000	4	1	0	4	0
29	793	0	10000	4	1	0	4	0
29	794	0	10000	4	1	0	4	0
29	795	0	10000	4	1	0	4	0
29	796	0	10000	4	1	0	4	0
29	797	0	10000	4	1	0	4	0
31	798	0	10000	4	1	0	4	0
30	799	0	10000	4	1	0	4	0
28	800	0	10000	4	1	0	4	0
28	800	0	10000	4	1	0	4	0
28	801	0	10000	4	1	0	4	0
27	803	0	10000	4	1	0	4	0
27	804	0	10000	4	1	0	4	0
28	805	0	10000	4	1	0	4	0
30	806	0	10000	4	1	0	4	0
31	807	0	10000	4	1	0	4	0
32	808	0	10000	4	1	0	4	0
34	809	0	10000	4	1	0	4	0
36	810	0	10000	4	1	0	4	0
35	810	0	10000	4	1	0	4	0
33	811	0	10000	4	1	0	4	0
32	813	0	10000	4	1	0	4	0
32	814	0	10000	4	1	0	4	0
34	815	0	10000	4	1	0	4	0
33	816	0	10000	4	1	0	4	0
34	817	0	10000	4	1	0	4	0
33	818	0	10000	4	1	0	4	0
32	819	0	10000	4	1	0	4	0
31	820	0	10000	4	1	0	4	0
31	820	0	10000	4	1	0	4	0
31	821	0	10000	4	1	0	4	0
31	823	0	10000	4	1	0	4	0
30	824	0	10000	4	1	0	4	0
32	825	0	10000	4	1	0	4	0
31	826	0	10000	4	1	0	4	0
30	827	0	10000	4	1	0	4	0
29	828	0	10000	4	1	0	4	0
29	829	0	10000	4	1	0	4	0
30	830	0	10000	4	1	0	4	0
30	830	0	10000	4	1	0	4	0
29	831	0	10000	4	1	0	4	0
29	833	0	10000	4	1	0	4	0
30	834	0	10000	4	1	0	4	0
29	835	0	10000	4	1	0	4	0
28	836	0	10000	4	1	0	4	0
28	837	0	10000	4	1	0	4	0
29	838	0	10000	4	1	0	4	0
27	839	0	10000	4	1	0	4	0
27	840	0	10000	4	1	0	4	0
27	840	0	10000	4	1	0	4	0
28	841	0	10000	4	1	0	4	0
28	843	0	10000	4	1	0	4	0
31	844	0	10000	4	1	0	4	0
32	845	0	10000	4	1	0	4	0
35	846	0	10000	4	1	0	4	0
34	847	0	10000	4	1	0	4	0
36	848	0	10000	4	1	0	4	0
36	849	0	10000	4	1	0	4	0
39	850	0	10000	4	1	0	4	0
37	850	0	10000	4	1	0	4	0
37	851	0	10000	4	1	0	4	0
39	853	0	10000	4	1	0	4	0
39	854	0	10000	4	1	0	4	0
39	855	0	10000	4	1	0	4	0
38	856	0	10000	4	1	0	4	0
38	857	0	10000	4	1	0	4	0
37	858	0	10000	4	1	0	4	0
36	859	0	10000	4	1	0	4	0
35	860	0	10000	4	1	0	4	0
34	860	0	10000	4	1	0	4	0
34	861	0	10000	4	1	0	4	0
33	863	0	10000	4	1	0	4	0
34	864	0	10000	4	1	0	4	0
34	865	0	10000	4	1	0	4	0
32	866	0	10000	4	1	0	4	0
32	867	0	10000	4	1	0	4	0
33	868	0	10000	4	1	0	4	0
34	869	0	10000	4	1	0	4	0
37	870	0	10000	4	1	0	4	0
36	870	0	10000	4	1	0	4	0
35	871	0	10000	4	1	0	4	0
35	873	0	10000	4	1	0	4	0
34	874	0	10000	4	1	0	4	0
33	875	0	10000	4	1	0	4	0
34	876	0	10000	4	1	0	4	0
36	877	0	10000	4	1	0	4	0
37	878	0	10000	4	1	0	4	0
38	879	0	10000	4	1	0	4	0
39	880	0	10000	4	1	0	4	0
39	880	0	10000	4	1	0	4	0
40	881	0	10000	4	1	0	4	0
40	883	0	10000	4	1	0	4	0
40	884	0	10000	4	1	0	4	0
39	885	0	10000	4	1	0	4	0
38	886	0	10000	4	1	0	4	0
39	887	0	10000	4	1	0	4	0
37	888	0	10000	4	1	0	4	0
38	889	0	10000	4	1	0	4	0
38	890	0	10000	4	1	0	4	0
37	890	0	10000	4	1	0	4	0
36	891	0	10000	4	1	0	4	0
36	893	0	10000	4	1	0	4	0
35	894	0	10000	4	1	0	4	0
34	895	0	10000	4	1	0	4	0
35	896	0	10000	4	1	0	4	0
35	897	0	10000	4	1	0	4	0
35	898	0	10000	4	1	0	4	0
33	899	0	10000	4	1	0	4	0
32	900	0	10000	4	1	0	4	0
33	900	0	10000	4	1	0	4	0
33	901	0	10000	4	1	0	4	0
33	903	0	10000	4	1	0	4	0
32	904	0	10000	4	1	0	4	0
32	905	0	10000	4	1	0	4	0
32	906	0	10000	4	1	0	4	0
31	907	0	10000	4	1	0	4	0
33	908	0	10000	4	1	0	4	0
34	909	0	10000	4	1	0	4	0
34	910	0	10000	4	1	0	4	0
33	910	0	10000	4	1	0	4	0
34	911	0	10000	4	1	0	4	0
34	913	0	10000	4	1	0	4	0
36	914	0	10000	4	1	0	4	0
37	915	0	10000	4	1	0	4	0
37	916	0	10000	4	1	0	4	0
38	917	0	10000	4	1	0	4	0
38	918	0	10000	4	1	0	4	0
36	919	0	10000	4	1	0	4	0
34	920	0	10000	4	1	0	4	0
33	920	0	10000	4	1	0	4	0
33	921	0	10000	4	1	0	4	0
32	923	0	10000	4	1	0	4	0
32	924	0	10000	4	1	0	4	0
32	925	0	10000	4	1	0	4	0
32	926	0	10000	4	1	0	4	0
30	927	0	10000	4	1	0	4	0
29	928	0	10000	4	1	0	4	0
31	929	0	10000	4	1	0	4	0
33	930	0	10000	4	1	0	4	0
32	930	0	10000	4	1	0	4	0
32	931	0	10000	4	1	0	4	0
32	933	0	10000	4	1	0	4	0
33	934	0	10000	4	1	0	4	0
32	935	0	10000	4	1	0	4	0
33	936	0	10000	4	1	0	4	0
34	937	0	10000	4	1	0	4	0
33	938	0	10000	4	1	0	4	0
33	939	0	10000	4	1	0	4	0
31	940	0	10000	4	1	0	4	0
31	940	0	10000	4	1	0	4	0
31	941	0	10000	4	1	0	4	0
31	943	0	10000	4	1	0	4	0
31	944	0	10000	4	1	0	4	0
30	945	0	10000	4	1	0	4	0
31	946	0	10000	4	1	0	4	0
32	947	0	10000	4	1	0	4	0
31	948	0	10000	4	1	0	4	0
32	949	0	10000	4	1	0	4	0
33	950	0	10000	4	1	0	4	0
33	950	0	10000	4	1	0	4	0
32	951	0	10000	4	1	0	4	0
32	953	0	10000	4	1	0	4	0
36	954	0	10000	4	1	0	4	0
35	955	0	10000	4	1	0	4	0
35	956	0	10000	4	1	0	4	0
35	957	0	10000	4	1	0	4	0
37	958	0	10000	4	1	0	4	0
38	959	0	10000	4	1	0	4	0
40	960	0	10000	4	1	0	4	0
41	960	0	10000	4	1	0	4	0
40	961	0	10000	4	1	0	4	0
40	963	0	10000	4	1	0	4	0
38	964	0	10000	4	1	0	4	0
38	965	0	10000	4	1	0	4	0
36	966	0	10000	4	1	0	4	0
35	967	0	10000	4	1	0	4	0
34	968	0	10000	4	1	0	4	0
34	969	0	10000	4	1	0	4	0
35	970	0	10000	4	1	0	4	0
35	970	0	10000	4	1	0	4	0
33	971	0	10000	4	1	0	4	0
32	973	0	10000	4	1	0	4	0
32	974	0	10000	4	1	0	4	0
31	975	0	10000	4	1	0	4	0
32	976	0	10000	4	1	0	4	0
31	977	0	10000	4	1	0	4	0
31	978	0	10000	4	1	0	4	0
33	979	0	10000	4	1	0	4	0
32	980	0	10000	4	1	0	4	0
33	980	0	10000	4	1	0	4	0
32	981	0	10000	4	1	0	4	0
32	983	0	10000	4	1	0	4	0
32	984	0	10000	4	1	0	4	0
32	985	0	10000	4	1	0	4	0
32	986	0	10000	4	1	0	4	0
31	987	0	10000	4	1	0	4	0
31	988	0	10000	4	1	0	4	0
31	989	0	10000	4	1	0	4	0
31	990	0	10000	4	1	0	4	0
30	990	0	10000	4	1	0	4	0
31	991	0	10000	4	1	0	4	0
30	993	0	10000	4	1	0	4	0
30	994	0	10000	4	1	0	4	0
29	995	0	10000	4	1	0	4	0
30	996	0	10000	4	1	0	4	0
30	997	0	10000	4	1	0	4	0
29	998	0	10000	4	1	0	4	0
30	999	0	10000	4	1	0	4	0
31	1000	0	10000	4	1	0	4	0
31	1000	0	10000	4	1	0	4	0
30	1001	0	10000	4	1	0	4	0
27	2	0	10000	5	1	0	5	0
27	3	0	10000	5	1	0	5	0
28	4	0	10000	5	1	0	5	0
28	5	0	10000	5	1	0	5	0
25	6	0	10000	5	1	0	5	0
26	7	0	10000	5	1	0	5	0
26	8	0	10000	5	1	0	5	0
26	9	0	10000	5	1	0	5	0
26	10	0	10000	5	1	0	5	0
25	11	0	10000	5	1	0	5	0
25	12	0	10000	5	1	0	5	0
24	13	0	10000	5	1	0	5	0
26	14	0	10000	5	1	0	5	0
27	15	0	10000	5	1	0	5	0
28	16	0	10000	5	1	0	5	0
28	17	0	10000	5	1	0	5	0
28	18	0	10000	5	1	0	5	0
27	19	0	10000	5	1	0	5	0
29	20	0	10000	5	1	0	5	0
29	21	0	10000	5	1	0	5	0
29	22	0	10000	5	1	0	5	0
30	23	0	10000	5	1	0	5	0
30	24	0	10000	5	1	0	5	0
31	25	0	10000	5	1	0	5	0
29	26	0	10000	5	1	0	5	0
28	27	0	10000	5	1	0	5	0
28	28	0	10000	5	1	0	5	0
28	29	0	10000	5	1	0	5	0
28	30	0	10000	5	1	0	5	0
27	31	0	10000	5	1	0	5	0
29	32	0	10000	5	1	0	5	0
28	33	0	10000	5	1	0	5	0
27	34	0	10000	5	1	0	5	0
28	35	0	10000	5	1	0	5	0
29	36	0	10000	5	1	0	5	0
28	37	0	10000	5	1	0	5	0
29	38	0	10000	5	1	0	5	0
27	39	0	10000	5	1	0	5	0
28	40	0	10000	5	1	0	5	0
29	41	0	10000	5	1	0	5	0
29	42	0	10000	5	1	0	5	0
31	43	0	10000	5	1	0	5	0
31	44	0	10000	5	1	0	5	0
31	45	0	10000	5	1	0	5	0
29	46	0	10000	5	1	0	5	0
28	47	0	10000	5	1	0	5	0
27	48	0	10000	5	1	0	5	0
28	49	0	10000	5	1	0	5	0
28	50	0	10000	5	1	0	5	0
28	51	0	10000	5	1	0	5	0
32	52	0	10000	5	1	0	5	0
30	53	0	10000	5	1	0	5	0
30	54	0	10000	5	1	0	5	0
29	55	0	10000	5	1	0	5	0
31	56	0	10000	5	1	0	5	0
30	57	0	10000	5	1	0	5	0
30	58	0	10000	5	1	0	5	0
29	59	0	10000	5	1	0	5	0
29	60	0	10000	5	1	0	5	0
28	61	0	10000	5	1	0	5	0
27	62	0	10000	5	1	0	5	0
28	63	0	10000	5	1	0	5	0
30	64	0	10000	5	1	0	5	0
30	65	0	10000	5	1	0	5	0
27	66	0	10000	5	1	0	5	0
27	67	0	10000	5	1	0	5	0
27	68	0	10000	5	1	0	5	0
29	69	0	10000	5	1	0	5	0
29	70	0	10000	5	1	0	5	0
29	71	0	10000	5	1	0	5	0
30	72	0	10000	5	1	0	5	0
28	73	0	10000	5	1	0	5	0
28	74	0	10000	5	1	0	5	0
27	75	0	10000	5	1	0	5	0
29	76	0	10000	5	1	0	5	0
28	77	0	10000	5	1	0	5	0
29	78	0	10000	5	1	0	5	0
27	79	0	10000	5	1	0	5	0
27	80	0	10000	5	1	0	5	0
27	81	0	10000	5	1	0	5	0
27	82	0	10000	5	1	0	5	0
27	83	0	10000	5	1	0	5	0
27	84	0	10000	5	1	0	5	0
29	85	0	10000	5	1	0	5	0
26	86	0	10000	5	1	0	5	0
26	87	0	10000	5	1	0	5	0
25	88	0	10000	5	1	0	5	0
26	89	0	10000	5	1	0	5	0
26	90	0	10000	5	1	0	5	0
25	91	0	10000	5	1	0	5	0
26	92	0	10000	5	1	0	5	0
25	93	0	10000	5	1	0	5	0
25	94	0	10000	5	1	0	5	0
24	95	0	10000	5	1	0	5	0
25	96	0	10000	5	1	0	5	0
25	97	0	10000	5	1	0	5	0
25	98	0	10000	5	1	0	5	0
25	99	0	10000	5	1	0	5	0
24	100	0	10000	5	1	0	5	0
25	101	0	10000	5	1	0	5	0
25	102	0	10000	5	1	0	5	0
25	103	0	10000	5	1	0	5	0
25	104	0	10000	5	1	0	5	0
25	105	0	10000	5	1	0	5	0
24	106	0	10000	5	1	0	5	0
23	107	0	10000	5	1	0	5	0
24	108	0	10000	5	1	0	5	0
25	109	0	10000	5	1	0	5	0
25	110	0	10000	5	1	0	5	0
25	111	0	10000	5	1	0	5	0
27	112	0	10000	5	1	0	5	0
27	113	0	10000	5	1	0	5	0
26	114	0	10000	5	1	0	5	0
27	115	0	10000	5	1	0	5	0
27	116	0	10000	5	1	0	5	0
28	117	0	10000	5	1	0	5	0
27	118	0	10000	5	1	0	5	0
26	119	0	10000	5	1	0	5	0
27	120	0	10000	5	1	0	5	0
27	121	0	10000	5	1	0	5	0
28	122	0	10000	5	1	0	5	0
27	123	0	10000	5	1	0	5	0
28	124	0	10000	5	1	0	5	0
28	125	0	10000	5	1	0	5	0
27	126	0	10000	5	1	0	5	0
28	127	0	10000	5	1	0	5	0
28	128	0	10000	5	1	0	5	0
31	129	0	10000	5	1	0	5	0
31	130	0	10000	5	1	0	5	0
30	131	0	10000	5	1	0	5	0
29	132	0	10000	5	1	0	5	0
29	133	0	10000	5	1	0	5	0
28	134	0	10000	5	1	0	5	0
28	135	0	10000	5	1	0	5	0
29	136	0	10000	5	1	0	5	0
30	137	0	10000	5	1	0	5	0
29	138	0	10000	5	1	0	5	0
28	139	0	10000	5	1	0	5	0
28	140	0	10000	5	1	0	5	0
28	141	0	10000	5	1	0	5	0
26	142	0	10000	5	1	0	5	0
27	143	0	10000	5	1	0	5	0
27	144	0	10000	5	1	0	5	0
27	145	0	10000	5	1	0	5	0
25	146	0	10000	5	1	0	5	0
24	147	0	10000	5	1	0	5	0
25	148	0	10000	5	1	0	5	0
27	149	0	10000	5	1	0	5	0
28	150	0	10000	5	1	0	5	0
28	151	0	10000	5	1	0	5	0
29	152	0	10000	5	1	0	5	0
27	153	0	10000	5	1	0	5	0
26	154	0	10000	5	1	0	5	0
26	155	0	10000	5	1	0	5	0
27	156	0	10000	5	1	0	5	0
27	157	0	10000	5	1	0	5	0
26	158	0	10000	5	1	0	5	0
26	159	0	10000	5	1	0	5	0
25	160	0	10000	5	1	0	5	0
25	161	0	10000	5	1	0	5	0
25	162	0	10000	5	1	0	5	0
26	163	0	10000	5	1	0	5	0
24	164	0	10000	5	1	0	5	0
25	165	0	10000	5	1	0	5	0
26	166	0	10000	5	1	0	5	0
24	167	0	10000	5	1	0	5	0
26	168	0	10000	5	1	0	5	0
27	169	0	10000	5	1	0	5	0
27	170	0	10000	5	1	0	5	0
26	171	0	10000	5	1	0	5	0
26	172	0	10000	5	1	0	5	0
25	173	0	10000	5	1	0	5	0
25	174	0	10000	5	1	0	5	0
24	175	0	10000	5	1	0	5	0
25	176	0	10000	5	1	0	5	0
26	177	0	10000	5	1	0	5	0
25	178	0	10000	5	1	0	5	0
26	179	0	10000	5	1	0	5	0
27	180	0	10000	5	1	0	5	0
27	181	0	10000	5	1	0	5	0
27	182	0	10000	5	1	0	5	0
29	183	0	10000	5	1	0	5	0
28	184	0	10000	5	1	0	5	0
28	185	0	10000	5	1	0	5	0
26	186	0	10000	5	1	0	5	0
27	187	0	10000	5	1	0	5	0
28	188	0	10000	5	1	0	5	0
28	189	0	10000	5	1	0	5	0
28	190	0	10000	5	1	0	5	0
28	191	0	10000	5	1	0	5	0
29	192	0	10000	5	1	0	5	0
28	193	0	10000	5	1	0	5	0
28	194	0	10000	5	1	0	5	0
28	195	0	10000	5	1	0	5	0
30	196	0	10000	5	1	0	5	0
29	197	0	10000	5	1	0	5	0
28	198	0	10000	5	1	0	5	0
27	199	0	10000	5	1	0	5	0
28	200	0	10000	5	1	0	5	0
27	201	0	10000	5	1	0	5	0
27	202	0	10000	5	1	0	5	0
28	203	0	10000	5	1	0	5	0
28	204	0	10000	5	1	0	5	0
28	205	0	10000	5	1	0	5	0
26	206	0	10000	5	1	0	5	0
25	207	0	10000	5	1	0	5	0
26	208	0	10000	5	1	0	5	0
26	209	0	10000	5	1	0	5	0
25	210	0	10000	5	1	0	5	0
25	211	0	10000	5	1	0	5	0
27	212	0	10000	5	1	0	5	0
26	213	0	10000	5	1	0	5	0
25	214	0	10000	5	1	0	5	0
24	215	0	10000	5	1	0	5	0
26	216	0	10000	5	1	0	5	0
27	217	0	10000	5	1	0	5	0
27	218	0	10000	5	1	0	5	0
28	219	0	10000	5	1	0	5	0
28	220	0	10000	5	1	0	5	0
26	221	0	10000	5	1	0	5	0
26	222	0	10000	5	1	0	5	0
26	223	0	10000	5	1	0	5	0
27	224	0	10000	5	1	0	5	0
26	225	0	10000	5	1	0	5	0
25	226	0	10000	5	1	0	5	0
25	227	0	10000	5	1	0	5	0
25	228	0	10000	5	1	0	5	0
25	229	0	10000	5	1	0	5	0
26	230	0	10000	5	1	0	5	0
25	231	0	10000	5	1	0	5	0
25	232	0	10000	5	1	0	5	0
24	233	0	10000	5	1	0	5	0
25	234	0	10000	5	1	0	5	0
24	235	0	10000	5	1	0	5	0
26	236	0	10000	5	1	0	5	0
28	237	0	10000	5	1	0	5	0
27	238	0	10000	5	1	0	5	0
28	239	0	10000	5	1	0	5	0
28	240	0	10000	5	1	0	5	0
27	241	0	10000	5	1	0	5	0
28	242	0	10000	5	1	0	5	0
28	243	0	10000	5	1	0	5	0
29	244	0	10000	5	1	0	5	0
29	245	0	10000	5	1	0	5	0
28	246	0	10000	5	1	0	5	0
27	247	0	10000	5	1	0	5	0
28	248	0	10000	5	1	0	5	0
29	249	0	10000	5	1	0	5	0
31	250	0	10000	5	1	0	5	0
30	251	0	10000	5	1	0	5	0
30	252	0	10000	5	1	0	5	0
29	253	0	10000	5	1	0	5	0
31	254	0	10000	5	1	0	5	0
28	255	0	10000	5	1	0	5	0
29	256	0	10000	5	1	0	5	0
30	257	0	10000	5	1	0	5	0
29	258	0	10000	5	1	0	5	0
28	259	0	10000	5	1	0	5	0
30	260	0	10000	5	1	0	5	0
30	261	0	10000	5	1	0	5	0
29	262	0	10000	5	1	0	5	0
30	263	0	10000	5	1	0	5	0
30	264	0	10000	5	1	0	5	0
31	265	0	10000	5	1	0	5	0
31	266	0	10000	5	1	0	5	0
31	267	0	10000	5	1	0	5	0
32	268	0	10000	5	1	0	5	0
33	269	0	10000	5	1	0	5	0
32	270	0	10000	5	1	0	5	0
32	271	0	10000	5	1	0	5	0
32	272	0	10000	5	1	0	5	0
30	273	0	10000	5	1	0	5	0
30	274	0	10000	5	1	0	5	0
29	275	0	10000	5	1	0	5	0
31	276	0	10000	5	1	0	5	0
31	277	0	10000	5	1	0	5	0
31	278	0	10000	5	1	0	5	0
31	279	0	10000	5	1	0	5	0
31	280	0	10000	5	1	0	5	0
30	281	0	10000	5	1	0	5	0
30	282	0	10000	5	1	0	5	0
30	283	0	10000	5	1	0	5	0
29	284	0	10000	5	1	0	5	0
30	285	0	10000	5	1	0	5	0
28	286	0	10000	5	1	0	5	0
28	287	0	10000	5	1	0	5	0
27	288	0	10000	5	1	0	5	0
27	289	0	10000	5	1	0	5	0
27	290	0	10000	5	1	0	5	0
27	291	0	10000	5	1	0	5	0
27	292	0	10000	5	1	0	5	0
26	293	0	10000	5	1	0	5	0
26	294	0	10000	5	1	0	5	0
24	295	0	10000	5	1	0	5	0
27	296	0	10000	5	1	0	5	0
27	297	0	10000	5	1	0	5	0
29	298	0	10000	5	1	0	5	0
29	299	0	10000	5	1	0	5	0
28	300	0	10000	5	1	0	5	0
30	301	0	10000	5	1	0	5	0
28	302	0	10000	5	1	0	5	0
29	303	0	10000	5	1	0	5	0
30	304	0	10000	5	1	0	5	0
29	305	0	10000	5	1	0	5	0
29	306	0	10000	5	1	0	5	0
31	307	0	10000	5	1	0	5	0
32	308	0	10000	5	1	0	5	0
32	309	0	10000	5	1	0	5	0
32	310	0	10000	5	1	0	5	0
32	311	0	10000	5	1	0	5	0
31	312	0	10000	5	1	0	5	0
30	313	0	10000	5	1	0	5	0
32	314	0	10000	5	1	0	5	0
30	315	0	10000	5	1	0	5	0
31	316	0	10000	5	1	0	5	0
31	317	0	10000	5	1	0	5	0
31	318	0	10000	5	1	0	5	0
31	319	0	10000	5	1	0	5	0
30	320	0	10000	5	1	0	5	0
30	321	0	10000	5	1	0	5	0
30	322	0	10000	5	1	0	5	0
30	323	0	10000	5	1	0	5	0
30	324	0	10000	5	1	0	5	0
30	325	0	10000	5	1	0	5	0
28	326	0	10000	5	1	0	5	0
28	327	0	10000	5	1	0	5	0
29	328	0	10000	5	1	0	5	0
29	329	0	10000	5	1	0	5	0
29	330	0	10000	5	1	0	5	0
28	331	0	10000	5	1	0	5	0
29	332	0	10000	5	1	0	5	0
28	333	0	10000	5	1	0	5	0
28	334	0	10000	5	1	0	5	0
26	335	0	10000	5	1	0	5	0
27	336	0	10000	5	1	0	5	0
28	337	0	10000	5	1	0	5	0
27	338	0	10000	5	1	0	5	0
26	339	0	10000	5	1	0	5	0
27	340	0	10000	5	1	0	5	0
26	341	0	10000	5	1	0	5	0
25	342	0	10000	5	1	0	5	0
25	343	0	10000	5	1	0	5	0
26	344	0	10000	5	1	0	5	0
27	345	0	10000	5	1	0	5	0
24	346	0	10000	5	1	0	5	0
23	347	0	10000	5	1	0	5	0
24	348	0	10000	5	1	0	5	0
23	349	0	10000	5	1	0	5	0
23	350	0	10000	5	1	0	5	0
24	351	0	10000	5	1	0	5	0
24	352	0	10000	5	1	0	5	0
25	353	0	10000	5	1	0	5	0
24	354	0	10000	5	1	0	5	0
23	355	0	10000	5	1	0	5	0
24	356	0	10000	5	1	0	5	0
26	357	0	10000	5	1	0	5	0
24	358	0	10000	5	1	0	5	0
25	359	0	10000	5	1	0	5	0
28	360	0	10000	5	1	0	5	0
27	361	0	10000	5	1	0	5	0
27	362	0	10000	5	1	0	5	0
27	363	0	10000	5	1	0	5	0
28	364	0	10000	5	1	0	5	0
29	365	0	10000	5	1	0	5	0
30	366	0	10000	5	1	0	5	0
29	367	0	10000	5	1	0	5	0
30	368	0	10000	5	1	0	5	0
29	369	0	10000	5	1	0	5	0
31	370	0	10000	5	1	0	5	0
31	371	0	10000	5	1	0	5	0
31	372	0	10000	5	1	0	5	0
32	373	0	10000	5	1	0	5	0
31	374	0	10000	5	1	0	5	0
29	375	0	10000	5	1	0	5	0
30	376	0	10000	5	1	0	5	0
31	377	0	10000	5	1	0	5	0
30	378	0	10000	5	1	0	5	0
30	379	0	10000	5	1	0	5	0
30	380	0	10000	5	1	0	5	0
31	381	0	10000	5	1	0	5	0
31	382	0	10000	5	1	0	5	0
31	383	0	10000	5	1	0	5	0
32	384	0	10000	5	1	0	5	0
32	385	0	10000	5	1	0	5	0
29	386	0	10000	5	1	0	5	0
29	387	0	10000	5	1	0	5	0
28	388	0	10000	5	1	0	5	0
27	389	0	10000	5	1	0	5	0
27	390	0	10000	5	1	0	5	0
27	391	0	10000	5	1	0	5	0
27	392	0	10000	5	1	0	5	0
26	393	0	10000	5	1	0	5	0
27	394	0	10000	5	1	0	5	0
25	395	0	10000	5	1	0	5	0
27	396	0	10000	5	1	0	5	0
27	397	0	10000	5	1	0	5	0
27	398	0	10000	5	1	0	5	0
27	399	0	10000	5	1	0	5	0
27	400	0	10000	5	1	0	5	0
26	401	0	10000	5	1	0	5	0
26	402	0	10000	5	1	0	5	0
25	403	0	10000	5	1	0	5	0
25	404	0	10000	5	1	0	5	0
26	405	0	10000	5	1	0	5	0
25	406	0	10000	5	1	0	5	0
24	407	0	10000	5	1	0	5	0
25	408	0	10000	5	1	0	5	0
25	409	0	10000	5	1	0	5	0
25	410	0	10000	5	1	0	5	0
26	411	0	10000	5	1	0	5	0
27	412	0	10000	5	1	0	5	0
28	413	0	10000	5	1	0	5	0
28	414	0	10000	5	1	0	5	0
28	415	0	10000	5	1	0	5	0
31	416	0	10000	5	1	0	5	0
31	417	0	10000	5	1	0	5	0
30	418	0	10000	5	1	0	5	0
29	419	0	10000	5	1	0	5	0
28	420	0	10000	5	1	0	5	0
28	421	0	10000	5	1	0	5	0
29	422	0	10000	5	1	0	5	0
28	423	0	10000	5	1	0	5	0
28	424	0	10000	5	1	0	5	0
28	425	0	10000	5	1	0	5	0
27	426	0	10000	5	1	0	5	0
26	427	0	10000	5	1	0	5	0
26	428	0	10000	5	1	0	5	0
26	429	0	10000	5	1	0	5	0
25	430	0	10000	5	1	0	5	0
25	431	0	10000	5	1	0	5	0
26	432	0	10000	5	1	0	5	0
26	433	0	10000	5	1	0	5	0
27	434	0	10000	5	1	0	5	0
27	435	0	10000	5	1	0	5	0
27	436	0	10000	5	1	0	5	0
28	437	0	10000	5	1	0	5	0
28	438	0	10000	5	1	0	5	0
29	439	0	10000	5	1	0	5	0
29	440	0	10000	5	1	0	5	0
31	441	0	10000	5	1	0	5	0
32	442	0	10000	5	1	0	5	0
32	443	0	10000	5	1	0	5	0
33	444	0	10000	5	1	0	5	0
33	445	0	10000	5	1	0	5	0
32	446	0	10000	5	1	0	5	0
31	447	0	10000	5	1	0	5	0
32	448	0	10000	5	1	0	5	0
33	449	0	10000	5	1	0	5	0
33	450	0	10000	5	1	0	5	0
33	451	0	10000	5	1	0	5	0
32	452	0	10000	5	1	0	5	0
31	453	0	10000	5	1	0	5	0
31	454	0	10000	5	1	0	5	0
31	455	0	10000	5	1	0	5	0
32	456	0	10000	5	1	0	5	0
31	457	0	10000	5	1	0	5	0
31	458	0	10000	5	1	0	5	0
30	459	0	10000	5	1	0	5	0
29	460	0	10000	5	1	0	5	0
29	461	0	10000	5	1	0	5	0
30	462	0	10000	5	1	0	5	0
29	463	0	10000	5	1	0	5	0
29	464	0	10000	5	1	0	5	0
28	465	0	10000	5	1	0	5	0
27	466	0	10000	5	1	0	5	0
27	467	0	10000	5	1	0	5	0
27	468	0	10000	5	1	0	5	0
27	469	0	10000	5	1	0	5	0
28	470	0	10000	5	1	0	5	0
28	471	0	10000	5	1	0	5	0
28	472	0	10000	5	1	0	5	0
28	473	0	10000	5	1	0	5	0
27	474	0	10000	5	1	0	5	0
27	475	0	10000	5	1	0	5	0
29	476	0	10000	5	1	0	5	0
28	477	0	10000	5	1	0	5	0
29	478	0	10000	5	1	0	5	0
29	479	0	10000	5	1	0	5	0
29	480	0	10000	5	1	0	5	0
28	481	0	10000	5	1	0	5	0
28	482	0	10000	5	1	0	5	0
27	483	0	10000	5	1	0	5	0
29	484	0	10000	5	1	0	5	0
30	485	0	10000	5	1	0	5	0
29	486	0	10000	5	1	0	5	0
29	487	0	10000	5	1	0	5	0
29	488	0	10000	5	1	0	5	0
29	489	0	10000	5	1	0	5	0
28	490	0	10000	5	1	0	5	0
29	491	0	10000	5	1	0	5	0
29	492	0	10000	5	1	0	5	0
29	493	0	10000	5	1	0	5	0
28	494	0	10000	5	1	0	5	0
27	495	0	10000	5	1	0	5	0
30	496	0	10000	5	1	0	5	0
29	497	0	10000	5	1	0	5	0
29	498	0	10000	5	1	0	5	0
30	499	0	10000	5	1	0	5	0
29	500	0	10000	5	1	0	5	0
28	501	0	10000	5	1	0	5	0
29	501	0	10000	5	1	0	5	1
28	502	0	10000	5	1	0	5	1
29	504	0	10000	5	1	0	5	1
32	505	0	10000	5	1	0	5	1
30	506	0	10000	5	1	0	5	1
29	507	0	10000	5	1	0	5	1
28	508	0	10000	5	1	0	5	1
28	509	0	10000	5	1	0	5	1
29	510	0	10000	5	1	0	5	1
28	511	0	10000	5	1	0	5	1
27	512	0	10000	5	1	0	5	1
29	513	0	10000	5	1	0	5	1
28	514	0	10000	5	1	0	5	1
27	515	0	10000	5	1	0	5	1
27	516	0	10000	5	1	0	5	1
29	517	0	10000	5	1	0	5	1
28	518	0	10000	5	1	0	5	1
28	519	0	10000	5	1	0	5	1
28	520	0	10000	5	1	0	5	1
27	521	0	10000	5	1	0	5	1
27	521	0	10000	5	1	0	5	1
26	522	0	10000	5	1	0	5	1
26	524	0	10000	5	1	0	5	1
26	525	0	10000	5	1	0	5	1
25	526	0	10000	5	1	0	5	1
24	527	0	10000	5	1	0	5	1
25	528	0	10000	5	1	0	5	1
25	529	0	10000	5	1	0	5	1
25	530	0	10000	5	1	0	5	1
25	531	0	10000	5	1	0	5	1
26	531	0	10000	5	1	0	5	1
26	532	0	10000	5	1	0	5	1
28	534	0	10000	5	1	0	5	1
28	535	0	10000	5	1	0	5	1
30	536	0	10000	5	1	0	5	1
30	537	0	10000	5	1	0	5	1
29	538	0	10000	5	1	0	5	1
30	539	0	10000	5	1	0	5	1
29	540	0	10000	5	1	0	5	1
29	541	0	10000	5	1	0	5	1
29	541	0	10000	5	1	0	5	1
30	542	0	10000	5	1	0	5	1
30	544	0	10000	5	1	0	5	1
29	545	0	10000	5	1	0	5	1
28	546	0	10000	5	1	0	5	1
27	547	0	10000	5	1	0	5	1
28	548	0	10000	5	1	0	5	1
28	549	0	10000	5	1	0	5	1
28	550	0	10000	5	1	0	5	1
28	551	0	10000	5	1	0	5	1
28	551	0	10000	5	1	0	5	0
28	552	0	10000	5	1	0	5	0
27	554	0	10000	5	1	0	5	0
26	555	0	10000	5	1	0	5	0
27	556	0	10000	5	1	0	5	0
27	557	0	10000	5	1	0	5	0
26	558	0	10000	5	1	0	5	0
27	559	0	10000	5	1	0	5	0
26	560	0	10000	5	1	0	5	0
26	561	0	10000	5	1	0	5	0
26	561	0	10000	5	1	0	5	0
25	562	0	10000	5	1	0	5	0
26	564	0	10000	5	1	0	5	0
25	565	0	10000	5	1	0	5	0
25	566	0	10000	5	1	0	5	0
24	567	0	10000	5	1	0	5	0
23	568	0	10000	5	1	0	5	0
23	569	0	10000	5	1	0	5	0
24	570	0	10000	5	1	0	5	0
23	571	0	10000	5	1	0	5	0
23	571	0	10000	5	1	0	5	0
24	572	0	10000	5	1	0	5	0
24	574	0	10000	5	1	0	5	0
24	575	0	10000	5	1	0	5	0
25	576	0	10000	5	1	0	5	0
27	577	0	10000	5	1	0	5	0
26	578	0	10000	5	1	0	5	0
26	579	0	10000	5	1	0	5	0
26	580	0	10000	5	1	0	5	0
26	581	0	10000	5	1	0	5	0
24	581	0	10000	5	1	0	5	0
27	582	0	10000	5	1	0	5	0
26	584	0	10000	5	1	0	5	0
26	585	0	10000	5	1	0	5	0
25	586	0	10000	5	1	0	5	0
24	587	0	10000	5	1	0	5	0
26	588	0	10000	5	1	0	5	0
25	589	0	10000	5	1	0	5	0
26	590	0	10000	5	1	0	5	0
27	591	0	10000	5	1	0	5	0
27	591	0	10000	5	1	0	5	0
27	592	0	10000	5	1	0	5	0
29	594	0	10000	5	1	0	5	0
28	595	0	10000	5	1	0	5	0
28	596	0	10000	5	1	0	5	0
31	597	0	10000	5	1	0	5	0
31	598	0	10000	5	1	0	5	0
35	599	0	10000	5	1	0	5	0
46	600	0	10000	5	1	0	5	0
51	601	0	10000	5	1	0	5	0
71	601	0	10000	5	1	0	5	0
112	602	0	10000	5	1	0	5	0
142	604	0	10000	5	1	0	5	0
143	605	0	10000	5	1	0	5	0
154	606	0	10000	5	1	0	5	0
169	607	0	10000	5	1	0	5	0
183	608	0	10000	5	1	0	5	0
190	609	0	10000	5	1	0	5	0
187	610	0	10000	5	1	0	5	0
183	611	0	10000	5	1	0	5	0
179	611	0	10000	5	1	0	5	0
178	612	0	10000	5	1	0	5	0
181	614	0	10000	5	1	0	5	0
181	615	0	10000	5	1	0	5	0
177	616	0	10000	5	1	0	5	0
174	617	0	10000	5	1	0	5	0
171	618	0	10000	5	1	0	5	0
165	619	0	10000	5	1	0	5	0
158	620	0	10000	5	1	0	5	0
156	621	0	10000	5	1	0	5	0
149	621	0	10000	5	1	0	5	0
142	622	0	10000	5	1	0	5	0
138	624	0	10000	5	1	0	5	0
133	625	0	10000	5	1	0	5	0
127	626	0	10000	5	1	0	5	0
123	627	0	10000	5	1	0	5	0
120	628	0	10000	5	1	0	5	0
116	629	0	10000	5	1	0	5	0
116	630	0	10000	5	1	0	5	0
113	631	0	10000	5	1	0	5	0
110	631	0	10000	5	1	0	5	0
108	632	0	10000	5	1	0	5	0
105	634	0	10000	5	1	0	5	0
106	635	0	10000	5	1	0	5	0
104	636	0	10000	5	1	0	5	0
102	637	0	10000	5	1	0	5	0
97	638	0	10000	5	1	0	5	0
92	639	0	10000	5	1	0	5	0
90	640	0	10000	5	1	0	5	0
89	641	0	10000	5	1	0	5	0
85	641	0	10000	5	1	0	5	0
85	642	0	10000	5	1	0	5	0
83	644	0	10000	5	1	0	5	0
80	645	0	10000	5	1	0	5	0
78	646	0	10000	5	1	0	5	0
74	647	0	10000	5	1	0	5	0
71	648	0	10000	5	1	0	5	0
68	649	0	10000	5	1	0	5	0
67	650	0	10000	5	1	0	5	0
64	651	0	10000	5	1	0	5	0
62	651	0	10000	5	1	0	5	0
60	652	0	10000	5	1	0	5	0
58	654	0	10000	5	1	0	5	0
56	655	0	10000	5	1	0	5	0
56	656	0	10000	5	1	0	5	0
54	657	0	10000	5	1	0	5	0
53	658	0	10000	5	1	0	5	0
51	659	0	10000	5	1	0	5	0
49	660	0	10000	5	1	0	5	0
50	661	0	10000	5	1	0	5	0
48	661	0	10000	5	1	0	5	0
46	662	0	10000	5	1	0	5	0
45	664	0	10000	5	1	0	5	0
45	665	0	10000	5	1	0	5	0
44	666	0	10000	5	1	0	5	0
42	667	0	10000	5	1	0	5	0
42	668	0	10000	5	1	0	5	0
41	669	0	10000	5	1	0	5	0
41	670	0	10000	5	1	0	5	0
41	671	0	10000	5	1	0	5	0
40	671	0	10000	5	1	0	5	0
40	672	0	10000	5	1	0	5	0
39	674	0	10000	5	1	0	5	0
39	675	0	10000	5	1	0	5	0
37	676	0	10000	5	1	0	5	0
38	677	0	10000	5	1	0	5	0
38	678	0	10000	5	1	0	5	0
37	679	0	10000	5	1	0	5	0
37	680	0	10000	5	1	0	5	0
37	681	0	10000	5	1	0	5	0
37	681	0	10000	5	1	0	5	0
36	682	0	10000	5	1	0	5	0
36	684	0	10000	5	1	0	5	0
35	685	0	10000	5	1	0	5	0
36	686	0	10000	5	1	0	5	0
34	687	0	10000	5	1	0	5	0
34	688	0	10000	5	1	0	5	0
35	689	0	10000	5	1	0	5	0
34	690	0	10000	5	1	0	5	0
33	691	0	10000	5	1	0	5	0
33	691	0	10000	5	1	0	5	0
34	692	0	10000	5	1	0	5	0
32	694	0	10000	5	1	0	5	0
33	695	0	10000	5	1	0	5	0
33	696	0	10000	5	1	0	5	0
33	697	0	10000	5	1	0	5	0
33	698	0	10000	5	1	0	5	0
32	699	0	10000	5	1	0	5	0
31	700	0	10000	5	1	0	5	0
30	701	0	10000	5	1	0	5	0
30	701	0	10000	5	1	0	5	0
30	702	0	10000	5	1	0	5	0
30	704	0	10000	5	1	0	5	0
30	705	0	10000	5	1	0	5	0
29	706	0	10000	5	1	0	5	0
27	707	0	10000	5	1	0	5	0
29	708	0	10000	5	1	0	5	0
29	709	0	10000	5	1	0	5	0
29	710	0	10000	5	1	0	5	0
29	711	0	10000	5	1	0	5	0
32	711	0	10000	5	1	0	5	0
32	712	0	10000	5	1	0	5	0
31	714	0	10000	5	1	0	5	0
31	715	0	10000	5	1	0	5	0
31	716	0	10000	5	1	0	5	0
33	717	0	10000	5	1	0	5	0
32	718	0	10000	5	1	0	5	0
32	719	0	10000	5	1	0	5	0
32	720	0	10000	5	1	0	5	0
32	721	0	10000	5	1	0	5	0
30	721	0	10000	5	1	0	5	0
30	722	0	10000	5	1	0	5	0
29	724	0	10000	5	1	0	5	0
30	725	0	10000	5	1	0	5	0
29	726	0	10000	5	1	0	5	0
