value	EMG	Stimulus	EMG_sensitivity	Total_Trial_Nr	practise	acq	probe_nr	Startle_Probe
27	2	1	10000	1	1	0	1	0
27	3	1	10000	1	1	0	1	0
27	4	1	10000	1	1	0	1	0
27	5	1	10000	1	1	0	1	0
27	6	1	10000	1	1	0	1	0
28	7	1	10000	1	1	0	1	0
27	8	1	10000	1	1	0	1	0
27	9	1	10000	1	1	0	1	0
26	10	1	10000	1	1	0	1	0
28	11	1	10000	1	1	0	1	0
29	12	1	10000	1	1	0	1	0
30	13	1	10000	1	1	0	1	0
31	14	1	10000	1	1	0	1	0
30	15	1	10000	1	1	0	1	0
30	16	1	10000	1	1	0	1	0
28	17	1	10000	1	1	0	1	0
28	18	1	10000	1	1	0	1	0
28	19	1	10000	1	1	0	1	0
30	20	1	10000	1	1	0	1	0
30	21	1	10000	1	1	0	1	0
29	21	1	10000	1	1	0	1	0
28	22	1	10000	1	1	0	1	0
27	24	1	10000	1	1	0	1	0
26	25	1	10000	1	1	0	1	0
25	26	1	10000	1	1	0	1	0
25	27	1	10000	1	1	0	1	0
24	28	1	10000	1	1	0	1	0
25	29	1	10000	1	1	0	1	0
23	30	1	10000	1	1	0	1	0
26	31	1	10000	1	1	0	1	0
26	31	1	10000	1	1	0	1	0
27	32	1	10000	1	1	0	1	0
26	34	1	10000	1	1	0	1	0
25	35	1	10000	1	1	0	1	0
24	36	1	10000	1	1	0	1	0
23	37	1	10000	1	1	0	1	0
23	38	1	10000	1	1	0	1	0
22	39	1	10000	1	1	0	1	0
24	40	1	10000	1	1	0	1	0
23	41	1	10000	1	1	0	1	0
22	41	1	10000	1	1	0	1	0
21	42	1	10000	1	1	0	1	0
20	44	1	10000	1	1	0	1	0
20	45	1	10000	1	1	0	1	0
19	46	1	10000	1	1	0	1	0
20	47	1	10000	1	1	0	1	0
21	48	1	10000	1	1	0	1	0
20	49	1	10000	1	1	0	1	0
17	50	1	10000	1	1	0	1	0
18	51	1	10000	1	1	0	1	0
18	51	1	10000	1	1	0	1	0
18	52	1	10000	1	1	0	1	0
19	54	1	10000	1	1	0	1	0
19	55	1	10000	1	1	0	1	0
20	56	1	10000	1	1	0	1	0
20	57	1	10000	1	1	0	1	0
19	58	1	10000	1	1	0	1	0
19	59	1	10000	1	1	0	1	0
20	60	1	10000	1	1	0	1	0
20	61	1	10000	1	1	0	1	0
19	61	1	10000	1	1	0	1	0
19	62	1	10000	1	1	0	1	0
19	64	1	10000	1	1	0	1	0
18	65	1	10000	1	1	0	1	0
17	66	1	10000	1	1	0	1	0
18	67	1	10000	1	1	0	1	0
18	68	1	10000	1	1	0	1	0
18	69	1	10000	1	1	0	1	0
15	70	1	10000	1	1	0	1	0
16	71	1	10000	1	1	0	1	0
15	71	1	10000	1	1	0	1	0
15	72	1	10000	1	1	0	1	0
15	74	1	10000	1	1	0	1	0
14	75	1	10000	1	1	0	1	0
15	76	1	10000	1	1	0	1	0
14	77	1	10000	1	1	0	1	0
13	78	1	10000	1	1	0	1	0
13	79	1	10000	1	1	0	1	0
16	80	1	10000	1	1	0	1	0
15	81	1	10000	1	1	0	1	0
14	81	1	10000	1	1	0	1	0
14	82	1	10000	1	1	0	1	0
14	84	1	10000	1	1	0	1	0
15	85	1	10000	1	1	0	1	0
14	86	1	10000	1	1	0	1	0
14	87	1	10000	1	1	0	1	0
15	88	1	10000	1	1	0	1	0
15	89	1	10000	1	1	0	1	0
13	90	1	10000	1	1	0	1	0
12	91	1	10000	1	1	0	1	0
13	91	1	10000	1	1	0	1	0
12	92	1	10000	1	1	0	1	0
13	94	1	10000	1	1	0	1	0
13	95	1	10000	1	1	0	1	0
14	96	1	10000	1	1	0	1	0
14	97	1	10000	1	1	0	1	0
13	98	1	10000	1	1	0	1	0
13	99	1	10000	1	1	0	1	0
15	100	1	10000	1	1	0	1	0
14	101	1	10000	1	1	0	1	0
14	101	1	10000	1	1	0	1	0
13	102	1	10000	1	1	0	1	0
13	104	1	10000	1	1	0	1	0
13	105	1	10000	1	1	0	1	0
12	106	1	10000	1	1	0	1	0
14	107	1	10000	1	1	0	1	0
15	108	1	10000	1	1	0	1	0
15	109	1	10000	1	1	0	1	0
13	110	1	10000	1	1	0	1	0
13	111	1	10000	1	1	0	1	0
13	111	1	10000	1	1	0	1	0
13	112	1	10000	1	1	0	1	0
14	114	1	10000	1	1	0	1	0
13	115	1	10000	1	1	0	1	0
14	116	1	10000	1	1	0	1	0
13	117	1	10000	1	1	0	1	0
13	118	1	10000	1	1	0	1	0
12	119	1	10000	1	1	0	1	0
15	120	1	10000	1	1	0	1	0
15	121	1	10000	1	1	0	1	0
15	121	1	10000	1	1	0	1	0
15	122	1	10000	1	1	0	1	0
15	124	1	10000	1	1	0	1	0
17	125	1	10000	1	1	0	1	0
16	126	1	10000	1	1	0	1	0
17	127	1	10000	1	1	0	1	0
17	128	1	10000	1	1	0	1	0
17	129	1	10000	1	1	0	1	0
15	130	1	10000	1	1	0	1	0
16	131	1	10000	1	1	0	1	0
16	131	1	10000	1	1	0	1	0
16	132	1	10000	1	1	0	1	0
17	134	1	10000	1	1	0	1	0
17	135	1	10000	1	1	0	1	0
17	136	1	10000	1	1	0	1	0
17	137	1	10000	1	1	0	1	0
16	138	1	10000	1	1	0	1	0
16	139	1	10000	1	1	0	1	0
17	140	1	10000	1	1	0	1	0
17	141	1	10000	1	1	0	1	0
17	141	1	10000	1	1	0	1	0
16	142	1	10000	1	1	0	1	0
15	144	1	10000	1	1	0	1	0
15	145	1	10000	1	1	0	1	0
14	146	1	10000	1	1	0	1	0
14	147	1	10000	1	1	0	1	0
15	148	1	10000	1	1	0	1	0
14	149	1	10000	1	1	0	1	0
12	150	1	10000	1	1	0	1	0
12	151	1	10000	1	1	0	1	0
12	151	1	10000	1	1	0	1	0
13	152	1	10000	1	1	0	1	0
13	154	1	10000	1	1	0	1	0
13	155	1	10000	1	1	0	1	0
14	156	1	10000	1	1	0	1	0
13	157	1	10000	1	1	0	1	0
13	158	1	10000	1	1	0	1	0
12	159	1	10000	1	1	0	1	0
14	160	1	10000	1	1	0	1	0
14	161	1	10000	1	1	0	1	0
15	161	1	10000	1	1	0	1	0
15	162	1	10000	1	1	0	1	0
14	164	1	10000	1	1	0	1	0
14	165	1	10000	1	1	0	1	0
14	166	1	10000	1	1	0	1	0
14	167	1	10000	1	1	0	1	0
15	168	1	10000	1	1	0	1	0
15	169	1	10000	1	1	0	1	0
13	170	1	10000	1	1	0	1	0
13	171	1	10000	1	1	0	1	0
13	171	1	10000	1	1	0	1	0
15	172	1	10000	1	1	0	1	0
14	174	1	10000	1	1	0	1	0
14	175	1	10000	1	1	0	1	0
15	176	1	10000	1	1	0	1	0
13	177	1	10000	1	1	0	1	0
13	178	1	10000	1	1	0	1	0
13	179	1	10000	1	1	0	1	0
14	180	1	10000	1	1	0	1	0
14	181	1	10000	1	1	0	1	0
14	181	1	10000	1	1	0	1	0
13	182	1	10000	1	1	0	1	0
13	184	1	10000	1	1	0	1	0
13	185	1	10000	1	1	0	1	0
12	186	1	10000	1	1	0	1	0
13	187	1	10000	1	1	0	1	0
14	188	1	10000	1	1	0	1	0
14	189	1	10000	1	1	0	1	0
12	190	1	10000	1	1	0	1	0
12	191	1	10000	1	1	0	1	0
13	191	1	10000	1	1	0	1	0
13	192	1	10000	1	1	0	1	0
13	194	1	10000	1	1	0	1	0
13	195	1	10000	1	1	0	1	0
14	196	1	10000	1	1	0	1	0
13	197	1	10000	1	1	0	1	0
12	198	1	10000	1	1	0	1	0
12	199	1	10000	1	1	0	1	0
13	200	1	10000	1	1	0	1	0
13	201	1	10000	1	1	0	1	0
12	201	1	10000	1	1	0	1	0
12	202	1	10000	1	1	0	1	0
12	204	1	10000	1	1	0	1	0
12	205	1	10000	1	1	0	1	0
11	206	1	10000	1	1	0	1	0
12	207	1	10000	1	1	0	1	0
13	208	1	10000	1	1	0	1	0
13	209	1	10000	1	1	0	1	0
11	210	1	10000	1	1	0	1	0
10	211	1	10000	1	1	0	1	0
11	211	1	10000	1	1	0	1	0
12	212	1	10000	1	1	0	1	0
11	214	1	10000	1	1	0	1	0
11	215	1	10000	1	1	0	1	0
12	216	1	10000	1	1	0	1	0
11	217	1	10000	1	1	0	1	0
11	218	1	10000	1	1	0	1	0
11	219	1	10000	1	1	0	1	0
12	220	1	10000	1	1	0	1	0
13	221	1	10000	1	1	0	1	0
13	221	1	10000	1	1	0	1	0
12	222	1	10000	1	1	0	1	0
12	224	1	10000	1	1	0	1	0
12	225	1	10000	1	1	0	1	0
11	226	1	10000	1	1	0	1	0
11	227	1	10000	1	1	0	1	0
12	228	1	10000	1	1	0	1	0
12	229	1	10000	1	1	0	1	0
11	230	1	10000	1	1	0	1	0
11	231	1	10000	1	1	0	1	0
10	231	1	10000	1	1	0	1	0
12	232	1	10000	1	1	0	1	0
11	234	1	10000	1	1	0	1	0
11	235	1	10000	1	1	0	1	0
11	236	1	10000	1	1	0	1	0
10	237	1	10000	1	1	0	1	0
10	238	1	10000	1	1	0	1	0
10	239	1	10000	1	1	0	1	0
12	240	1	10000	1	1	0	1	0
13	241	1	10000	1	1	0	1	0
13	241	1	10000	1	1	0	1	0
13	242	1	10000	1	1	0	1	0
12	244	1	10000	1	1	0	1	0
11	245	1	10000	1	1	0	1	0
11	246	1	10000	1	1	0	1	0
12	247	1	10000	1	1	0	1	0
13	248	1	10000	1	1	0	1	0
13	249	1	10000	1	1	0	1	0
12	250	1	10000	1	1	0	1	0
11	251	1	10000	1	1	0	1	0
13	251	1	10000	1	1	0	1	0
13	252	1	10000	1	1	0	1	0
13	254	1	10000	1	1	0	1	0
14	255	1	10000	1	1	0	1	0
14	256	1	10000	1	1	0	1	0
14	257	1	10000	1	1	0	1	0
14	258	1	10000	1	1	0	1	0
13	259	1	10000	1	1	0	1	0
14	260	1	10000	1	1	0	1	0
14	261	1	10000	1	1	0	1	0
14	261	1	10000	1	1	0	1	0
14	262	1	10000	1	1	0	1	0
14	264	1	10000	1	1	0	1	0
14	265	1	10000	1	1	0	1	0
14	266	1	10000	1	1	0	1	0
15	267	1	10000	1	1	0	1	0
16	268	1	10000	1	1	0	1	0
16	269	1	10000	1	1	0	1	0
14	270	1	10000	1	1	0	1	0
13	271	1	10000	1	1	0	1	0
14	271	1	10000	1	1	0	1	0
13	272	1	10000	1	1	0	1	0
14	274	1	10000	1	1	0	1	0
14	275	1	10000	1	1	0	1	0
14	276	1	10000	1	1	0	1	0
13	277	1	10000	1	1	0	1	0
12	278	1	10000	1	1	0	1	0
12	279	1	10000	1	1	0	1	0
14	280	1	10000	1	1	0	1	0
14	281	1	10000	1	1	0	1	0
15	281	1	10000	1	1	0	1	0
15	282	1	10000	1	1	0	1	0
15	284	1	10000	1	1	0	1	0
14	285	1	10000	1	1	0	1	0
14	286	1	10000	1	1	0	1	0
15	287	1	10000	1	1	0	1	0
14	288	1	10000	1	1	0	1	0
15	289	1	10000	1	1	0	1	0
13	290	1	10000	1	1	0	1	0
12	291	1	10000	1	1	0	1	0
12	291	1	10000	1	1	0	1	0
12	292	1	10000	1	1	0	1	0
11	294	1	10000	1	1	0	1	0
12	295	1	10000	1	1	0	1	0
12	296	1	10000	1	1	0	1	0
12	297	1	10000	1	1	0	1	0
12	298	1	10000	1	1	0	1	0
11	299	1	10000	1	1	0	1	0
13	300	1	10000	1	1	0	1	0
14	301	1	10000	1	1	0	1	0
14	301	1	10000	1	1	0	1	0
14	302	1	10000	1	1	0	1	0
15	304	1	10000	1	1	0	1	0
14	305	1	10000	1	1	0	1	0
14	306	1	10000	1	1	0	1	0
15	307	1	10000	1	1	0	1	0
15	308	1	10000	1	1	0	1	0
15	309	1	10000	1	1	0	1	0
12	310	1	10000	1	1	0	1	0
13	311	1	10000	1	1	0	1	0
15	311	1	10000	1	1	0	1	0
15	312	1	10000	1	1	0	1	0
15	314	1	10000	1	1	0	1	0
15	315	1	10000	1	1	0	1	0
15	316	1	10000	1	1	0	1	0
14	317	1	10000	1	1	0	1	0
13	318	1	10000	1	1	0	1	0
12	319	1	10000	1	1	0	1	0
15	320	1	10000	1	1	0	1	0
15	321	1	10000	1	1	0	1	0
14	321	1	10000	1	1	0	1	0
13	322	1	10000	1	1	0	1	0
13	324	1	10000	1	1	0	1	0
12	325	1	10000	1	1	0	1	0
12	326	1	10000	1	1	0	1	0
13	327	1	10000	1	1	0	1	0
13	328	1	10000	1	1	0	1	0
14	329	1	10000	1	1	0	1	0
11	330	1	10000	1	1	0	1	0
11	331	1	10000	1	1	0	1	0
12	331	1	10000	1	1	0	1	0
12	332	1	10000	1	1	0	1	0
12	334	1	10000	1	1	0	1	0
12	335	1	10000	1	1	0	1	0
12	336	1	10000	1	1	0	1	0
12	337	1	10000	1	1	0	1	0
11	338	1	10000	1	1	0	1	0
10	339	1	10000	1	1	0	1	0
12	340	1	10000	1	1	0	1	0
13	341	1	10000	1	1	0	1	0
11	341	1	10000	1	1	0	1	0
11	342	1	10000	1	1	0	1	0
11	344	1	10000	1	1	0	1	0
10	345	1	10000	1	1	0	1	0
10	346	1	10000	1	1	0	1	0
11	347	1	10000	1	1	0	1	0
10	348	1	10000	1	1	0	1	0
11	349	1	10000	1	1	0	1	0
9	350	1	10000	1	1	0	1	0
9	351	1	10000	1	1	0	1	0
9	351	1	10000	1	1	0	1	0
10	352	1	10000	1	1	0	1	0
11	354	1	10000	1	1	0	1	0
11	355	1	10000	1	1	0	1	0
12	356	1	10000	1	1	0	1	0
12	357	1	10000	1	1	0	1	0
13	358	1	10000	1	1	0	1	0
12	359	1	10000	1	1	0	1	0
14	360	1	10000	1	1	0	1	0
15	361	1	10000	1	1	0	1	0
14	361	1	10000	1	1	0	1	0
14	362	1	10000	1	1	0	1	0
15	364	1	10000	1	1	0	1	0
14	365	1	10000	1	1	0	1	0
14	366	1	10000	1	1	0	1	0
15	367	1	10000	1	1	0	1	0
16	368	1	10000	1	1	0	1	0
17	369	1	10000	1	1	0	1	0
15	370	1	10000	1	1	0	1	0
15	371	1	10000	1	1	0	1	0
15	371	1	10000	1	1	0	1	0
15	372	1	10000	1	1	0	1	0
16	374	1	10000	1	1	0	1	0
16	375	1	10000	1	1	0	1	0
16	376	1	10000	1	1	0	1	0
14	377	1	10000	1	1	0	1	0
15	378	1	10000	1	1	0	1	0
14	379	1	10000	1	1	0	1	0
15	380	1	10000	1	1	0	1	0
16	381	1	10000	1	1	0	1	0
15	381	1	10000	1	1	0	1	0
15	382	1	10000	1	1	0	1	0
14	384	1	10000	1	1	0	1	0
14	385	1	10000	1	1	0	1	0
14	386	1	10000	1	1	0	1	0
15	387	1	10000	1	1	0	1	0
15	388	1	10000	1	1	0	1	0
14	389	1	10000	1	1	0	1	0
13	390	1	10000	1	1	0	1	0
13	391	1	10000	1	1	0	1	0
13	391	1	10000	1	1	0	1	0
13	392	1	10000	1	1	0	1	0
14	394	1	10000	1	1	0	1	0
14	395	1	10000	1	1	0	1	0
13	396	1	10000	1	1	0	1	0
13	397	1	10000	1	1	0	1	0
14	398	1	10000	1	1	0	1	0
13	399	1	10000	1	1	0	1	0
14	400	1	10000	1	1	0	1	0
15	401	1	10000	1	1	0	1	0
15	401	1	10000	1	1	0	1	0
14	402	1	10000	1	1	0	1	0
14	404	1	10000	1	1	0	1	0
14	405	1	10000	1	1	0	1	0
14	406	1	10000	1	1	0	1	0
14	407	1	10000	1	1	0	1	0
14	408	1	10000	1	1	0	1	0
15	409	1	10000	1	1	0	1	0
13	410	1	10000	1	1	0	1	0
12	411	1	10000	1	1	0	1	0
13	411	1	10000	1	1	0	1	0
13	412	1	10000	1	1	0	1	0
13	414	1	10000	1	1	0	1	0
14	415	1	10000	1	1	0	1	0
13	416	1	10000	1	1	0	1	0
13	417	1	10000	1	1	0	1	0
13	418	1	10000	1	1	0	1	0
11	419	1	10000	1	1	0	1	0
13	420	1	10000	1	1	0	1	0
13	421	1	10000	1	1	0	1	0
14	421	1	10000	1	1	0	1	0
13	422	1	10000	1	1	0	1	0
13	424	1	10000	1	1	0	1	0
13	425	1	10000	1	1	0	1	0
13	426	1	10000	1	1	0	1	0
14	427	1	10000	1	1	0	1	0
14	428	1	10000	1	1	0	1	0
15	429	1	10000	1	1	0	1	0
13	430	1	10000	1	1	0	1	0
12	431	1	10000	1	1	0	1	0
13	431	1	10000	1	1	0	1	0
13	432	1	10000	1	1	0	1	0
13	434	1	10000	1	1	0	1	0
13	435	1	10000	1	1	0	1	0
13	436	1	10000	1	1	0	1	0
13	437	1	10000	1	1	0	1	0
13	438	1	10000	1	1	0	1	0
12	439	1	10000	1	1	0	1	0
14	440	1	10000	1	1	0	1	0
14	441	1	10000	1	1	0	1	0
13	441	1	10000	1	1	0	1	0
13	442	1	10000	1	1	0	1	0
13	444	1	10000	1	1	0	1	0
12	445	1	10000	1	1	0	1	0
12	446	1	10000	1	1	0	1	0
12	447	1	10000	1	1	0	1	0
12	448	1	10000	1	1	0	1	0
14	449	1	10000	1	1	0	1	0
12	450	1	10000	1	1	0	1	0
10	451	1	10000	1	1	0	1	0
11	451	1	10000	1	1	0	1	0
11	452	1	10000	1	1	0	1	0
11	454	1	10000	1	1	0	1	0
11	455	1	10000	1	1	0	1	0
11	456	1	10000	1	1	0	1	0
11	457	1	10000	1	1	0	1	0
11	458	1	10000	1	1	0	1	0
10	459	1	10000	1	1	0	1	0
11	460	1	10000	1	1	0	1	0
12	461	1	10000	1	1	0	1	0
11	461	1	10000	1	1	0	1	0
11	462	1	10000	1	1	0	1	0
10	464	1	10000	1	1	0	1	0
11	465	1	10000	1	1	0	1	0
11	466	1	10000	1	1	0	1	0
11	467	1	10000	1	1	0	1	0
11	468	1	10000	1	1	0	1	0
12	469	1	10000	1	1	0	1	0
9	470	1	10000	1	1	0	1	0
9	471	1	10000	1	1	0	1	0
10	471	1	10000	1	1	0	1	0
10	472	1	10000	1	1	0	1	0
10	474	1	10000	1	1	0	1	0
10	475	1	10000	1	1	0	1	0
10	476	1	10000	1	1	0	1	0
10	477	1	10000	1	1	0	1	0
9	478	1	10000	1	1	0	1	0
9	479	1	10000	1	1	0	1	0
12	480	1	10000	1	1	0	1	0
13	481	1	10000	1	1	0	1	0
13	481	1	10000	1	1	0	1	0
13	482	1	10000	1	1	0	1	0
14	484	1	10000	1	1	0	1	0
13	485	1	10000	1	1	0	1	0
13	486	1	10000	1	1	0	1	0
13	487	1	10000	1	1	0	1	0
13	488	1	10000	1	1	0	1	0
14	489	1	10000	1	1	0	1	0
11	490	1	10000	1	1	0	1	0
12	491	1	10000	1	1	0	1	0
12	491	1	10000	1	1	0	1	0
12	492	1	10000	1	1	0	1	0
12	494	1	10000	1	1	0	1	0
12	495	1	10000	1	1	0	1	0
13	496	1	10000	1	1	0	1	0
13	497	1	10000	1	1	0	1	0
13	498	1	10000	1	1	0	1	0
12	499	1	10000	1	1	0	1	0
14	500	1	10000	1	1	0	1	0
14	501	1	10000	1	1	0	1	0
13	521	1	10000	1	1	0	1	1
13	522	1	10000	1	1	0	1	1
13	523	1	10000	1	1	0	1	1
13	524	1	10000	1	1	0	1	1
13	525	1	10000	1	1	0	1	1
13	526	1	10000	1	1	0	1	1
13	527	1	10000	1	1	0	1	1
14	528	1	10000	1	1	0	1	1
12	529	1	10000	1	1	0	1	1
12	530	1	10000	1	1	0	1	1
12	531	1	10000	1	1	0	1	1
12	532	1	10000	1	1	0	1	1
13	533	1	10000	1	1	0	1	1
13	534	1	10000	1	1	0	1	1
12	535	1	10000	1	1	0	1	1
12	536	1	10000	1	1	0	1	1
11	537	1	10000	1	1	0	1	1
11	538	1	10000	1	1	0	1	1
13	539	1	10000	1	1	0	1	1
14	540	1	10000	1	1	0	1	1
14	523	1	10000	1	1	0	1	1
15	524	1	10000	1	1	0	1	1
14	525	1	10000	1	1	0	1	1
13	526	1	10000	1	1	0	1	1
14	526	1	10000	1	1	0	1	1
14	527	1	10000	1	1	0	1	1
14	528	1	10000	1	1	0	1	1
16	529	1	10000	1	1	0	1	1
13	530	1	10000	1	1	0	1	1
13	531	1	10000	1	1	0	1	1
13	531	1	10000	1	1	0	1	1
13	532	1	10000	1	1	0	1	1
13	534	1	10000	1	1	0	1	1
13	535	1	10000	1	1	0	1	1
14	536	1	10000	1	1	0	1	1
13	537	1	10000	1	1	0	1	1
13	538	1	10000	1	1	0	1	1
12	539	1	10000	1	1	0	1	1
14	540	1	10000	1	1	0	1	1
13	541	1	10000	1	1	0	1	1
13	542	1	10000	1	1	0	1	1
13	543	1	10000	1	1	0	1	1
14	544	1	10000	1	1	0	1	1
15	545	1	10000	1	1	0	1	1
14	546	1	10000	1	1	0	1	1
15	547	1	10000	1	1	0	1	1
15	548	1	10000	1	1	0	1	1
16	549	1	10000	1	1	0	1	1
14	550	1	10000	1	1	0	1	1
14	551	1	10000	1	1	0	1	1
14	552	1	10000	1	1	0	1	0
14	553	1	10000	1	1	0	1	0
14	554	1	10000	1	1	0	1	0
14	555	1	10000	1	1	0	1	0
14	556	1	10000	1	1	0	1	0
14	557	1	10000	1	1	0	1	0
13	558	1	10000	1	1	0	1	0
12	559	1	10000	1	1	0	1	0
14	560	1	10000	1	1	0	1	0
14	561	1	10000	1	1	0	1	0
14	561	1	10000	1	1	0	1	0
14	562	1	10000	1	1	0	1	0
15	564	1	10000	1	1	0	1	0
15	565	1	10000	1	1	0	1	0
16	566	1	10000	1	1	0	1	0
17	567	1	10000	1	1	0	1	0
18	568	1	10000	1	1	0	1	0
19	569	1	10000	1	1	0	1	0
17	570	1	10000	1	1	0	1	0
17	571	1	10000	1	1	0	1	0
16	571	1	10000	1	1	0	1	0
16	572	1	10000	1	1	0	1	0
17	574	1	10000	1	1	0	1	0
16	575	1	10000	1	1	0	1	0
16	576	1	10000	1	1	0	1	0
16	577	1	10000	1	1	0	1	0
15	578	1	10000	1	1	0	1	0
14	579	1	10000	1	1	0	1	0
15	580	1	10000	1	1	0	1	0
15	581	1	10000	1	1	0	1	0
15	581	1	10000	1	1	0	1	0
14	582	1	10000	1	1	0	1	0
14	584	1	10000	1	1	0	1	0
14	585	1	10000	1	1	0	1	0
14	586	1	10000	1	1	0	1	0
15	587	1	10000	1	1	0	1	0
16	588	1	10000	1	1	0	1	0
17	589	1	10000	1	1	0	1	0
14	590	1	10000	1	1	0	1	0
13	591	1	10000	1	1	0	1	0
14	591	1	10000	1	1	0	1	0
14	592	1	10000	1	1	0	1	0
15	594	1	10000	1	1	0	1	0
13	595	1	10000	1	1	0	1	0
14	596	1	10000	1	1	0	1	0
14	597	1	10000	1	1	0	1	0
13	598	1	10000	1	1	0	1	0
12	599	1	10000	1	1	0	1	0
13	600	1	10000	1	1	0	1	0
14	601	1	10000	1	1	0	1	0
13	601	1	10000	1	1	0	1	0
13	602	1	10000	1	1	0	1	0
13	604	1	10000	1	1	0	1	0
12	605	1	10000	1	1	0	1	0
20	606	1	10000	1	1	0	1	0
51	607	1	10000	1	1	0	1	0
62	608	1	10000	1	1	0	1	0
73	609	1	10000	1	1	0	1	0
86	610	1	10000	1	1	0	1	0
85	611	1	10000	1	1	0	1	0
101	611	1	10000	1	1	0	1	0
102	612	1	10000	1	1	0	1	0
129	614	1	10000	1	1	0	1	0
180	615	1	10000	1	1	0	1	0
205	616	1	10000	1	1	0	1	0
211	617	1	10000	1	1	0	1	0
226	618	1	10000	1	1	0	1	0
269	619	1	10000	1	1	0	1	0
303	620	1	10000	1	1	0	1	0
311	621	1	10000	1	1	0	1	0
337	621	1	10000	1	1	0	1	0
329	622	1	10000	1	1	0	1	0
332	624	1	10000	1	1	0	1	0
335	625	1	10000	1	1	0	1	0
324	626	1	10000	1	1	0	1	0
314	627	1	10000	1	1	0	1	0
317	628	1	10000	1	1	0	1	0
340	629	1	10000	1	1	0	1	0
411	630	1	10000	1	1	0	1	0
477	631	1	10000	1	1	0	1	0
505	631	1	10000	1	1	0	1	0
602	632	1	10000	1	1	0	1	0
649	634	1	10000	1	1	0	1	0
645	635	1	10000	1	1	0	1	0
711	636	1	10000	1	1	0	1	0
727	637	1	10000	1	1	0	1	0
712	638	1	10000	1	1	0	1	0
687	639	1	10000	1	1	0	1	0
663	640	1	10000	1	1	0	1	0
694	641	1	10000	1	1	0	1	0
775	641	1	10000	1	1	0	1	0
846	642	1	10000	1	1	0	1	0
839	644	1	10000	1	1	0	1	0
847	645	1	10000	1	1	0	1	0
883	646	1	10000	1	1	0	1	0
915	647	1	10000	1	1	0	1	0
938	648	1	10000	1	1	0	1	0
942	649	1	10000	1	1	0	1	0
927	650	1	10000	1	1	0	1	0
893	651	1	10000	1	1	0	1	0
855	651	1	10000	1	1	0	1	0
822	652	1	10000	1	1	0	1	0
794	654	1	10000	1	1	0	1	0
771	655	1	10000	1	1	0	1	0
750	656	1	10000	1	1	0	1	0
724	657	1	10000	1	1	0	1	0
699	658	1	10000	1	1	0	1	0
673	659	1	10000	1	1	0	1	0
649	660	1	10000	1	1	0	1	0
626	661	1	10000	1	1	0	1	0
609	661	1	10000	1	1	0	1	0
600	662	1	10000	1	1	0	1	0
591	664	1	10000	1	1	0	1	0
579	665	1	10000	1	1	0	1	0
566	666	1	10000	1	1	0	1	0
554	667	1	10000	1	1	0	1	0
541	668	1	10000	1	1	0	1	0
528	669	1	10000	1	1	0	1	0
515	670	1	10000	1	1	0	1	0
501	671	1	10000	1	1	0	1	0
482	671	1	10000	1	1	0	1	0
463	672	1	10000	1	1	0	1	0
443	674	1	10000	1	1	0	1	0
423	675	1	10000	1	1	0	1	0
405	676	1	10000	1	1	0	1	0
388	677	1	10000	1	1	0	1	0
373	678	1	10000	1	1	0	1	0
361	679	1	10000	1	1	0	1	0
352	680	1	10000	1	1	0	1	0
341	681	1	10000	1	1	0	1	0
329	681	1	10000	1	1	0	1	0
317	682	1	10000	1	1	0	1	0
307	684	1	10000	1	1	0	1	0
298	685	1	10000	1	1	0	1	0
287	686	1	10000	1	1	0	1	0
281	687	1	10000	1	1	0	1	0
272	688	1	10000	1	1	0	1	0
262	689	1	10000	1	1	0	1	0
254	690	1	10000	1	1	0	1	0
249	691	1	10000	1	1	0	1	0
246	691	1	10000	1	1	0	1	0
242	692	1	10000	1	1	0	1	0
235	694	1	10000	1	1	0	1	0
225	695	1	10000	1	1	0	1	0
223	696	1	10000	1	1	0	1	0
235	697	1	10000	1	1	0	1	0
249	698	1	10000	1	1	0	1	0
247	699	1	10000	1	1	0	1	0
238	700	1	10000	1	1	0	1	0
230	701	1	10000	1	1	0	1	0
235	701	1	10000	1	1	0	1	0
280	702	1	10000	1	1	0	1	0
309	704	1	10000	1	1	0	1	0
298	705	1	10000	1	1	0	1	0
293	706	1	10000	1	1	0	1	0
285	707	1	10000	1	1	0	1	0
295	718	1	10000	1	1	0	1	0
316	719	1	10000	1	1	0	1	0
327	720	1	10000	1	1	0	1	0
323	721	1	10000	1	1	0	1	0
311	722	1	10000	1	1	0	1	0
299	723	1	10000	1	1	0	1	0
315	724	1	10000	1	1	0	1	0
349	725	1	10000	1	1	0	1	0
359	726	1	10000	1	1	0	1	0
350	727	1	10000	1	1	0	1	0
352	728	1	10000	1	1	0	1	0
349	729	1	10000	1	1	0	1	0
337	727	1	10000	1	1	0	1	0
330	728	1	10000	1	1	0	1	0
317	729	1	10000	1	1	0	1	0
307	730	1	10000	1	1	0	1	0
305	731	1	10000	1	1	0	1	0
312	732	1	10000	1	1	0	1	0
317	733	1	10000	1	1	0	1	0
312	734	1	10000	1	1	0	1	0
301	735	1	10000	1	1	0	1	0
293	736	1	10000	1	1	0	1	0
288	738	1	10000	1	1	0	1	0
280	739	1	10000	1	1	0	1	0
273	740	1	10000	1	1	0	1	0
265	741	1	10000	1	1	0	1	0
256	742	1	10000	1	1	0	1	0
249	743	1	10000	1	1	0	1	0
244	744	1	10000	1	1	0	1	0
237	745	1	10000	1	1	0	1	0
229	746	1	10000	1	1	0	1	0
220	747	1	10000	1	1	0	1	0
213	740	1	10000	1	1	0	1	0
210	741	1	10000	1	1	0	1	0
203	742	1	10000	1	1	0	1	0
194	743	1	10000	1	1	0	1	0
186	744	1	10000	1	1	0	1	0
179	745	1	10000	1	1	0	1	0
173	746	1	10000	1	1	0	1	0
168	747	1	10000	1	1	0	1	0
165	748	1	10000	1	1	0	1	0
161	749	1	10000	1	1	0	1	0
156	750	1	10000	1	1	0	1	0
152	751	1	10000	1	1	0	1	0
151	752	1	10000	1	1	0	1	0
150	753	1	10000	1	1	0	1	0
144	754	1	10000	1	1	0	1	0
140	755	1	10000	1	1	0	1	0
136	756	1	10000	1	1	0	1	0
131	757	1	10000	1	1	0	1	0
130	758	1	10000	1	1	0	1	0
128	759	1	10000	1	1	0	1	0
126	760	1	10000	1	1	0	1	0
122	761	1	10000	1	1	0	1	0
117	762	1	10000	1	1	0	1	0
113	763	1	10000	1	1	0	1	0
109	764	1	10000	1	1	0	1	0
106	765	1	10000	1	1	0	1	0
104	766	1	10000	1	1	0	1	0
105	767	1	10000	1	1	0	1	0
107	768	1	10000	1	1	0	1	0
107	769	1	10000	1	1	0	1	0
106	770	1	10000	1	1	0	1	0
105	771	1	10000	1	1	0	1	0
105	772	1	10000	1	1	0	1	0
105	773	1	10000	1	1	0	1	0
103	774	1	10000	1	1	0	1	0
101	775	1	10000	1	1	0	1	0
101	776	1	10000	1	1	0	1	0
99	777	1	10000	1	1	0	1	0
98	778	1	10000	1	1	0	1	0
95	779	1	10000	1	1	0	1	0
94	780	1	10000	1	1	0	1	0
92	781	1	10000	1	1	0	1	0
87	782	1	10000	1	1	0	1	0
84	783	1	10000	1	1	0	1	0
81	784	1	10000	1	1	0	1	0
80	785	1	10000	1	1	0	1	0
80	789	1	10000	1	1	0	1	0
79	790	1	10000	1	1	0	1	0
79	791	1	10000	1	1	0	1	0
79	792	1	10000	1	1	0	1	0
77	793	1	10000	1	1	0	1	0
76	794	1	10000	1	1	0	1	0
75	796	1	10000	1	1	0	1	0
74	797	1	10000	1	1	0	1	0
72	798	1	10000	1	1	0	1	0
71	799	1	10000	1	1	0	1	0
72	800	1	10000	1	1	0	1	0
72	801	1	10000	1	1	0	1	0
70	800	1	10000	1	1	0	1	0
70	801	1	10000	1	1	0	1	0
71	802	1	10000	1	1	0	1	0
69	803	1	10000	1	1	0	1	0
66	807	1	10000	1	1	0	1	0
63	808	1	10000	1	1	0	1	0
63	809	1	10000	1	1	0	1	0
73	810	1	10000	1	1	0	1	0
87	811	1	10000	1	1	0	1	0
92	812	1	10000	1	1	0	1	0
91	811	1	10000	1	1	0	1	0
97	812	1	10000	1	1	0	1	0
106	813	1	10000	1	1	0	1	0
108	814	1	10000	1	1	0	1	0
106	815	1	10000	1	1	0	1	0
103	816	1	10000	1	1	0	1	0
101	818	1	10000	1	1	0	1	0
100	819	1	10000	1	1	0	1	0
99	820	1	10000	1	1	0	1	0
95	821	1	10000	1	1	0	1	0
91	822	1	10000	1	1	0	1	0
87	823	1	10000	1	1	0	1	0
87	823	1	10000	1	1	0	1	0
86	824	1	10000	1	1	0	1	0
86	825	1	10000	1	1	0	1	0
83	826	1	10000	1	1	0	1	0
82	827	1	10000	1	1	0	1	0
79	828	1	10000	1	1	0	1	0
76	829	1	10000	1	1	0	1	0
76	830	1	10000	1	1	0	1	0
75	831	1	10000	1	1	0	1	0
77	832	1	10000	1	1	0	1	0
77	833	1	10000	1	1	0	1	0
78	834	1	10000	1	1	0	1	0
79	834	1	10000	1	1	0	1	0
78	835	1	10000	1	1	0	1	0
76	836	1	10000	1	1	0	1	0
73	837	1	10000	1	1	0	1	0
72	839	1	10000	1	1	0	1	0
72	840	1	10000	1	1	0	1	0
71	841	1	10000	1	1	0	1	0
70	842	1	10000	1	1	0	1	0
69	843	1	10000	1	1	0	1	0
67	844	1	10000	1	1	0	1	0
66	846	1	10000	1	1	0	1	0
65	847	1	10000	1	1	0	1	0
64	848	1	10000	1	1	0	1	0
62	849	1	10000	1	1	0	1	0
60	850	1	10000	1	1	0	1	0
59	851	1	10000	1	1	0	1	0
56	850	1	10000	1	1	0	1	0
55	851	1	10000	1	1	0	1	0
52	852	1	10000	1	1	0	1	0
58	853	1	10000	1	1	0	1	0
78	851	1	10000	1	1	0	1	0
96	852	1	10000	1	1	0	1	0
115	854	1	10000	1	1	0	1	0
127	855	1	10000	1	1	0	1	0
124	856	1	10000	1	1	0	1	0
128	857	1	10000	1	1	0	1	0
142	858	1	10000	1	1	0	1	0
159	859	1	10000	1	1	0	1	0
178	860	1	10000	1	1	0	1	0
195	861	1	10000	1	1	0	1	0
199	862	1	10000	1	1	0	1	0
194	863	1	10000	1	1	0	1	0
186	864	1	10000	1	1	0	1	0
177	865	1	10000	1	1	0	1	0
169	866	1	10000	1	1	0	1	0
163	867	1	10000	1	1	0	1	0
156	868	1	10000	1	1	0	1	0
152	869	1	10000	1	1	0	1	0
145	870	1	10000	1	1	0	1	0
139	871	1	10000	1	1	0	1	0
134	872	1	10000	1	1	0	1	0
128	873	1	10000	1	1	0	1	0
123	874	1	10000	1	1	0	1	0
117	875	1	10000	1	1	0	1	0
113	876	1	10000	1	1	0	1	0
110	877	1	10000	1	1	0	1	0
106	878	1	10000	1	1	0	1	0
104	879	1	10000	1	1	0	1	0
102	880	1	10000	1	1	0	1	0
102	881	1	10000	1	1	0	1	0
99	882	1	10000	1	1	0	1	0
95	883	1	10000	1	1	0	1	0
92	884	1	10000	1	1	0	1	0
88	885	1	10000	1	1	0	1	0
85	886	1	10000	1	1	0	1	0
86	887	1	10000	1	1	0	1	0
85	888	1	10000	1	1	0	1	0
82	889	1	10000	1	1	0	1	0
78	890	1	10000	1	1	0	1	0
76	891	1	10000	1	1	0	1	0
76	892	1	10000	1	1	0	1	0
75	893	1	10000	1	1	0	1	0
72	894	1	10000	1	1	0	1	0
68	895	1	10000	1	1	0	1	0
66	896	1	10000	1	1	0	1	0
63	897	1	10000	1	1	0	1	0
61	898	1	10000	1	1	0	1	0
60	899	1	10000	1	1	0	1	0
63	900	1	10000	1	1	0	1	0
69	901	1	10000	1	1	0	1	0
71	902	1	10000	1	1	0	1	0
70	903	1	10000	1	1	0	1	0
69	904	1	10000	1	1	0	1	0
70	905	1	10000	1	1	0	1	0
73	906	1	10000	1	1	0	1	0
77	907	1	10000	1	1	0	1	0
79	908	1	10000	1	1	0	1	0
80	909	1	10000	1	1	0	1	0
78	910	1	10000	1	1	0	1	0
74	911	1	10000	1	1	0	1	0
77	912	1	10000	1	1	0	1	0
79	913	1	10000	1	1	0	1	0
76	914	1	10000	1	1	0	1	0
74	915	1	10000	1	1	0	1	0
72	916	1	10000	1	1	0	1	0
69	917	1	10000	1	1	0	1	0
68	918	1	10000	1	1	0	1	0
66	919	1	10000	1	1	0	1	0
66	920	1	10000	1	1	0	1	0
67	921	1	10000	1	1	0	1	0
64	922	1	10000	1	1	0	1	0
63	923	1	10000	1	1	0	1	0
62	924	1	10000	1	1	0	1	0
60	925	1	10000	1	1	0	1	0
61	926	1	10000	1	1	0	1	0
63	927	1	10000	1	1	0	1	0
65	928	1	10000	1	1	0	1	0
66	929	1	10000	1	1	0	1	0
66	930	1	10000	1	1	0	1	0
63	931	1	10000	1	1	0	1	0
61	932	1	10000	1	1	0	1	0
59	933	1	10000	1	1	0	1	0
57	934	1	10000	1	1	0	1	0
57	935	1	10000	1	1	0	1	0
56	936	1	10000	1	1	0	1	0
54	937	1	10000	1	1	0	1	0
54	938	1	10000	1	1	0	1	0
53	939	1	10000	1	1	0	1	0
54	940	1	10000	1	1	0	1	0
56	941	1	10000	1	1	0	1	0
56	942	1	10000	1	1	0	1	0
55	943	1	10000	1	1	0	1	0
53	944	1	10000	1	1	0	1	0
51	945	1	10000	1	1	0	1	0
49	946	1	10000	1	1	0	1	0
47	947	1	10000	1	1	0	1	0
46	948	1	10000	1	1	0	1	0
44	949	1	10000	1	1	0	1	0
42	950	1	10000	1	1	0	1	0
39	951	1	10000	1	1	0	1	0
38	952	1	10000	1	1	0	1	0
39	953	1	10000	1	1	0	1	0
39	954	1	10000	1	1	0	1	0
39	955	1	10000	1	1	0	1	0
40	956	1	10000	1	1	0	1	0
46	957	1	10000	1	1	0	1	0
53	958	1	10000	1	1	0	1	0
52	959	1	10000	1	1	0	1	0
54	960	1	10000	1	1	0	1	0
56	961	1	10000	1	1	0	1	0
60	962	1	10000	1	1	0	1	0
60	963	1	10000	1	1	0	1	0
60	964	1	10000	1	1	0	1	0
59	965	1	10000	1	1	0	1	0
56	966	1	10000	1	1	0	1	0
54	967	1	10000	1	1	0	1	0
54	968	1	10000	1	1	0	1	0
54	969	1	10000	1	1	0	1	0
52	970	1	10000	1	1	0	1	0
49	971	1	10000	1	1	0	1	0
48	972	1	10000	1	1	0	1	0
46	973	1	10000	1	1	0	1	0
44	974	1	10000	1	1	0	1	0
44	975	1	10000	1	1	0	1	0
42	976	1	10000	1	1	0	1	0
40	977	1	10000	1	1	0	1	0
39	978	1	10000	1	1	0	1	0
37	979	1	10000	1	1	0	1	0
36	980	1	10000	1	1	0	1	0
36	981	1	10000	1	1	0	1	0
36	982	1	10000	1	1	0	1	0
36	983	1	10000	1	1	0	1	0
38	984	1	10000	1	1	0	1	0
44	985	1	10000	1	1	0	1	0
50	986	1	10000	1	1	0	1	0
51	987	1	10000	1	1	0	1	0
51	988	1	10000	1	1	0	1	0
52	989	1	10000	1	1	0	1	0
50	990	1	10000	1	1	0	1	0
48	991	1	10000	1	1	0	1	0
50	992	1	10000	1	1	0	1	0
49	993	1	10000	1	1	0	1	0
50	994	1	10000	1	1	0	1	0
49	995	1	10000	1	1	0	1	0
47	996	1	10000	1	1	0	1	0
45	997	1	10000	1	1	0	1	0
45	998	1	10000	1	1	0	1	0
44	999	1	10000	1	1	0	1	0
44	1000	1	10000	1	1	0	1	0
43	1001	1	10000	1	1	0	1	0
54	2	1	10000	2	1	0	2	0
53	3	1	10000	2	1	0	2	0
51	4	1	10000	2	1	0	2	0
49	5	1	10000	2	1	0	2	0
50	6	1	10000	2	1	0	2	0
50	7	1	10000	2	1	0	2	0
53	8	1	10000	2	1	0	2	0
56	9	1	10000	2	1	0	2	0
54	10	1	10000	2	1	0	2	0
54	11	1	10000	2	1	0	2	0
54	12	1	10000	2	1	0	2	0
54	13	1	10000	2	1	0	2	0
52	14	1	10000	2	1	0	2	0
52	15	1	10000	2	1	0	2	0
54	16	1	10000	2	1	0	2	0
57	17	1	10000	2	1	0	2	0
57	18	1	10000	2	1	0	2	0
55	19	1	10000	2	1	0	2	0
55	20	1	10000	2	1	0	2	0
55	21	1	10000	2	1	0	2	0
55	22	1	10000	2	1	0	2	0
55	23	1	10000	2	1	0	2	0
54	24	1	10000	2	1	0	2	0
52	25	1	10000	2	1	0	2	0
53	26	1	10000	2	1	0	2	0
52	27	1	10000	2	1	0	2	0
50	28	1	10000	2	1	0	2	0
49	29	1	10000	2	1	0	2	0
47	30	1	10000	2	1	0	2	0
45	31	1	10000	2	1	0	2	0
44	32	1	10000	2	1	0	2	0
44	33	1	10000	2	1	0	2	0
45	34	1	10000	2	1	0	2	0
44	35	1	10000	2	1	0	2	0
44	36	1	10000	2	1	0	2	0
44	37	1	10000	2	1	0	2	0
42	38	1	10000	2	1	0	2	0
42	39	1	10000	2	1	0	2	0
44	40	1	10000	2	1	0	2	0
44	41	1	10000	2	1	0	2	0
42	42	1	10000	2	1	0	2	0
41	43	1	10000	2	1	0	2	0
39	44	1	10000	2	1	0	2	0
37	45	1	10000	2	1	0	2	0
38	46	1	10000	2	1	0	2	0
37	47	1	10000	2	1	0	2	0
36	48	1	10000	2	1	0	2	0
36	49	1	10000	2	1	0	2	0
36	50	1	10000	2	1	0	2	0
34	51	1	10000	2	1	0	2	0
33	52	1	10000	2	1	0	2	0
33	53	1	10000	2	1	0	2	0
34	54	1	10000	2	1	0	2	0
34	55	1	10000	2	1	0	2	0
35	56	1	10000	2	1	0	2	0
39	57	1	10000	2	1	0	2	0
39	58	1	10000	2	1	0	2	0
38	59	1	10000	2	1	0	2	0
36	60	1	10000	2	1	0	2	0
35	61	1	10000	2	1	0	2	0
34	62	1	10000	2	1	0	2	0
34	63	1	10000	2	1	0	2	0
34	64	1	10000	2	1	0	2	0
38	65	1	10000	2	1	0	2	0
46	66	1	10000	2	1	0	2	0
48	67	1	10000	2	1	0	2	0
49	68	1	10000	2	1	0	2	0
54	69	1	10000	2	1	0	2	0
58	70	1	10000	2	1	0	2	0
60	71	1	10000	2	1	0	2	0
58	72	1	10000	2	1	0	2	0
58	73	1	10000	2	1	0	2	0
57	74	1	10000	2	1	0	2	0
59	75	1	10000	2	1	0	2	0
62	76	1	10000	2	1	0	2	0
65	77	1	10000	2	1	0	2	0
66	78	1	10000	2	1	0	2	0
68	79	1	10000	2	1	0	2	0
68	80	1	10000	2	1	0	2	0
66	81	1	10000	2	1	0	2	0
63	82	1	10000	2	1	0	2	0
61	83	1	10000	2	1	0	2	0
59	84	1	10000	2	1	0	2	0
59	85	1	10000	2	1	0	2	0
69	86	1	10000	2	1	0	2	0
85	87	1	10000	2	1	0	2	0
94	88	1	10000	2	1	0	2	0
92	89	1	10000	2	1	0	2	0
92	90	1	10000	2	1	0	2	0
99	91	1	10000	2	1	0	2	0
112	92	1	10000	2	1	0	2	0
127	93	1	10000	2	1	0	2	0
136	94	1	10000	2	1	0	2	0
138	95	1	10000	2	1	0	2	0
138	96	1	10000	2	1	0	2	0
134	97	1	10000	2	1	0	2	0
144	98	1	10000	2	1	0	2	0
157	99	1	10000	2	1	0	2	0
165	100	1	10000	2	1	0	2	0
171	101	1	10000	2	1	0	2	0
171	102	1	10000	2	1	0	2	0
166	103	1	10000	2	1	0	2	0
163	104	1	10000	2	1	0	2	0
189	105	1	10000	2	1	0	2	0
228	106	1	10000	2	1	0	2	0
236	107	1	10000	2	1	0	2	0
233	108	1	10000	2	1	0	2	0
242	109	1	10000	2	1	0	2	0
263	110	1	10000	2	1	0	2	0
284	111	1	10000	2	1	0	2	0
295	112	1	10000	2	1	0	2	0
299	113	1	10000	2	1	0	2	0
296	114	1	10000	2	1	0	2	0
285	115	1	10000	2	1	0	2	0
272	116	1	10000	2	1	0	2	0
262	117	1	10000	2	1	0	2	0
251	118	1	10000	2	1	0	2	0
247	119	1	10000	2	1	0	2	0
251	120	1	10000	2	1	0	2	0
254	121	1	10000	2	1	0	2	0
250	122	1	10000	2	1	0	2	0
240	123	1	10000	2	1	0	2	0
230	124	1	10000	2	1	0	2	0
224	125	1	10000	2	1	0	2	0
219	126	1	10000	2	1	0	2	0
211	127	1	10000	2	1	0	2	0
209	128	1	10000	2	1	0	2	0
209	129	1	10000	2	1	0	2	0
213	130	1	10000	2	1	0	2	0
223	131	1	10000	2	1	0	2	0
217	132	1	10000	2	1	0	2	0
210	133	1	10000	2	1	0	2	0
209	134	1	10000	2	1	0	2	0
205	135	1	10000	2	1	0	2	0
202	136	1	10000	2	1	0	2	0
194	137	1	10000	2	1	0	2	0
193	138	1	10000	2	1	0	2	0
191	139	1	10000	2	1	0	2	0
189	140	1	10000	2	1	0	2	0
182	141	1	10000	2	1	0	2	0
176	142	1	10000	2	1	0	2	0
174	143	1	10000	2	1	0	2	0
176	144	1	10000	2	1	0	2	0
176	145	1	10000	2	1	0	2	0
173	146	1	10000	2	1	0	2	0
172	147	1	10000	2	1	0	2	0
172	148	1	10000	2	1	0	2	0
165	149	1	10000	2	1	0	2	0
160	150	1	10000	2	1	0	2	0
159	151	1	10000	2	1	0	2	0
158	152	1	10000	2	1	0	2	0
169	153	1	10000	2	1	0	2	0
173	154	1	10000	2	1	0	2	0
174	155	1	10000	2	1	0	2	0
178	156	1	10000	2	1	0	2	0
178	157	1	10000	2	1	0	2	0
173	158	1	10000	2	1	0	2	0
175	159	1	10000	2	1	0	2	0
177	160	1	10000	2	1	0	2	0
182	161	1	10000	2	1	0	2	0
184	162	1	10000	2	1	0	2	0
178	163	1	10000	2	1	0	2	0
175	164	1	10000	2	1	0	2	0
172	165	1	10000	2	1	0	2	0
173	166	1	10000	2	1	0	2	0
175	167	1	10000	2	1	0	2	0
174	168	1	10000	2	1	0	2	0
167	169	1	10000	2	1	0	2	0
162	170	1	10000	2	1	0	2	0
157	171	1	10000	2	1	0	2	0
151	172	1	10000	2	1	0	2	0
147	173	1	10000	2	1	0	2	0
141	174	1	10000	2	1	0	2	0
136	175	1	10000	2	1	0	2	0
132	176	1	10000	2	1	0	2	0
130	177	1	10000	2	1	0	2	0
128	178	1	10000	2	1	0	2	0
125	179	1	10000	2	1	0	2	0
122	180	1	10000	2	1	0	2	0
120	181	1	10000	2	1	0	2	0
121	182	1	10000	2	1	0	2	0
121	183	1	10000	2	1	0	2	0
119	184	1	10000	2	1	0	2	0
119	185	1	10000	2	1	0	2	0
120	186	1	10000	2	1	0	2	0
120	187	1	10000	2	1	0	2	0
120	188	1	10000	2	1	0	2	0
118	189	1	10000	2	1	0	2	0
116	190	1	10000	2	1	0	2	0
113	191	1	10000	2	1	0	2	0
120	192	1	10000	2	1	0	2	0
129	193	1	10000	2	1	0	2	0
131	194	1	10000	2	1	0	2	0
128	195	1	10000	2	1	0	2	0
132	196	1	10000	2	1	0	2	0
138	197	1	10000	2	1	0	2	0
140	198	1	10000	2	1	0	2	0
140	199	1	10000	2	1	0	2	0
136	200	1	10000	2	1	0	2	0
132	201	1	10000	2	1	0	2	0
128	202	1	10000	2	1	0	2	0
123	203	1	10000	2	1	0	2	0
119	204	1	10000	2	1	0	2	0
116	205	1	10000	2	1	0	2	0
113	206	1	10000	2	1	0	2	0
110	207	1	10000	2	1	0	2	0
106	208	1	10000	2	1	0	2	0
105	209	1	10000	2	1	0	2	0
101	210	1	10000	2	1	0	2	0
97	211	1	10000	2	1	0	2	0
95	212	1	10000	2	1	0	2	0
94	213	1	10000	2	1	0	2	0
91	214	1	10000	2	1	0	2	0
88	215	1	10000	2	1	0	2	0
86	216	1	10000	2	1	0	2	0
81	217	1	10000	2	1	0	2	0
80	218	1	10000	2	1	0	2	0
80	219	1	10000	2	1	0	2	0
77	220	1	10000	2	1	0	2	0
74	221	1	10000	2	1	0	2	0
72	222	1	10000	2	1	0	2	0
70	223	1	10000	2	1	0	2	0
68	224	1	10000	2	1	0	2	0
66	225	1	10000	2	1	0	2	0
64	226	1	10000	2	1	0	2	0
63	227	1	10000	2	1	0	2	0
60	228	1	10000	2	1	0	2	0
57	229	1	10000	2	1	0	2	0
56	230	1	10000	2	1	0	2	0
56	231	1	10000	2	1	0	2	0
55	232	1	10000	2	1	0	2	0
54	233	1	10000	2	1	0	2	0
54	234	1	10000	2	1	0	2	0
54	235	1	10000	2	1	0	2	0
54	236	1	10000	2	1	0	2	0
53	237	1	10000	2	1	0	2	0
55	238	1	10000	2	1	0	2	0
56	239	1	10000	2	1	0	2	0
57	240	1	10000	2	1	0	2	0
60	241	1	10000	2	1	0	2	0
63	242	1	10000	2	1	0	2	0
62	243	1	10000	2	1	0	2	0
61	244	1	10000	2	1	0	2	0
60	245	1	10000	2	1	0	2	0
61	246	1	10000	2	1	0	2	0
61	247	1	10000	2	1	0	2	0
59	248	1	10000	2	1	0	2	0
57	249	1	10000	2	1	0	2	0
55	250	1	10000	2	1	0	2	0
54	251	1	10000	2	1	0	2	0
51	252	1	10000	2	1	0	2	0
50	253	1	10000	2	1	0	2	0
49	254	1	10000	2	1	0	2	0
49	255	1	10000	2	1	0	2	0
47	256	1	10000	2	1	0	2	0
45	257	1	10000	2	1	0	2	0
46	258	1	10000	2	1	0	2	0
48	259	1	10000	2	1	0	2	0
48	260	1	10000	2	1	0	2	0
48	261	1	10000	2	1	0	2	0
48	262	1	10000	2	1	0	2	0
49	263	1	10000	2	1	0	2	0
51	264	1	10000	2	1	0	2	0
50	265	1	10000	2	1	0	2	0
49	266	1	10000	2	1	0	2	0
50	267	1	10000	2	1	0	2	0
51	268	1	10000	2	1	0	2	0
51	269	1	10000	2	1	0	2	0
50	270	1	10000	2	1	0	2	0
48	271	1	10000	2	1	0	2	0
47	272	1	10000	2	1	0	2	0
47	273	1	10000	2	1	0	2	0
44	274	1	10000	2	1	0	2	0
44	275	1	10000	2	1	0	2	0
42	276	1	10000	2	1	0	2	0
40	277	1	10000	2	1	0	2	0
42	278	1	10000	2	1	0	2	0
43	279	1	10000	2	1	0	2	0
42	280	1	10000	2	1	0	2	0
42	281	1	10000	2	1	0	2	0
42	282	1	10000	2	1	0	2	0
40	283	1	10000	2	1	0	2	0
38	284	1	10000	2	1	0	2	0
37	285	1	10000	2	1	0	2	0
39	286	1	10000	2	1	0	2	0
43	287	1	10000	2	1	0	2	0
44	288	1	10000	2	1	0	2	0
42	289	1	10000	2	1	0	2	0
42	290	1	10000	2	1	0	2	0
44	291	1	10000	2	1	0	2	0
47	292	1	10000	2	1	0	2	0
49	293	1	10000	2	1	0	2	0
47	294	1	10000	2	1	0	2	0
49	295	1	10000	2	1	0	2	0
52	296	1	10000	2	1	0	2	0
56	297	1	10000	2	1	0	2	0
58	298	1	10000	2	1	0	2	0
57	299	1	10000	2	1	0	2	0
57	300	1	10000	2	1	0	2	0
57	301	1	10000	2	1	0	2	0
57	302	1	10000	2	1	0	2	0
55	303	1	10000	2	1	0	2	0
54	304	1	10000	2	1	0	2	0
53	305	1	10000	2	1	0	2	0
53	306	1	10000	2	1	0	2	0
53	307	1	10000	2	1	0	2	0
52	308	1	10000	2	1	0	2	0
51	309	1	10000	2	1	0	2	0
49	310	1	10000	2	1	0	2	0
47	311	1	10000	2	1	0	2	0
45	312	1	10000	2	1	0	2	0
44	313	1	10000	2	1	0	2	0
43	314	1	10000	2	1	0	2	0
42	315	1	10000	2	1	0	2	0
42	316	1	10000	2	1	0	2	0
44	317	1	10000	2	1	0	2	0
45	318	1	10000	2	1	0	2	0
45	319	1	10000	2	1	0	2	0
46	320	1	10000	2	1	0	2	0
46	321	1	10000	2	1	0	2	0
45	322	1	10000	2	1	0	2	0
43	323	1	10000	2	1	0	2	0
43	324	1	10000	2	1	0	2	0
50	325	1	10000	2	1	0	2	0
57	326	1	10000	2	1	0	2	0
59	327	1	10000	2	1	0	2	0
56	328	1	10000	2	1	0	2	0
54	329	1	10000	2	1	0	2	0
53	330	1	10000	2	1	0	2	0
51	331	1	10000	2	1	0	2	0
49	332	1	10000	2	1	0	2	0
47	333	1	10000	2	1	0	2	0
45	334	1	10000	2	1	0	2	0
45	335	1	10000	2	1	0	2	0
45	336	1	10000	2	1	0	2	0
45	337	1	10000	2	1	0	2	0
48	338	1	10000	2	1	0	2	0
50	339	1	10000	2	1	0	2	0
49	340	1	10000	2	1	0	2	0
48	341	1	10000	2	1	0	2	0
48	342	1	10000	2	1	0	2	0
46	343	1	10000	2	1	0	2	0
46	344	1	10000	2	1	0	2	0
46	345	1	10000	2	1	0	2	0
48	346	1	10000	2	1	0	2	0
48	347	1	10000	2	1	0	2	0
45	348	1	10000	2	1	0	2	0
44	349	1	10000	2	1	0	2	0
42	350	1	10000	2	1	0	2	0
41	351	1	10000	2	1	0	2	0
41	352	1	10000	2	1	0	2	0
40	353	1	10000	2	1	0	2	0
42	354	1	10000	2	1	0	2	0
44	355	1	10000	2	1	0	2	0
44	356	1	10000	2	1	0	2	0
45	357	1	10000	2	1	0	2	0
46	358	1	10000	2	1	0	2	0
51	359	1	10000	2	1	0	2	0
57	360	1	10000	2	1	0	2	0
60	361	1	10000	2	1	0	2	0
58	362	1	10000	2	1	0	2	0
60	363	1	10000	2	1	0	2	0
65	364	1	10000	2	1	0	2	0
65	365	1	10000	2	1	0	2	0
66	366	1	10000	2	1	0	2	0
67	367	1	10000	2	1	0	2	0
65	368	1	10000	2	1	0	2	0
64	369	1	10000	2	1	0	2	0
64	370	1	10000	2	1	0	2	0
62	371	1	10000	2	1	0	2	0
59	372	1	10000	2	1	0	2	0
56	373	1	10000	2	1	0	2	0
55	374	1	10000	2	1	0	2	0
54	375	1	10000	2	1	0	2	0
52	376	1	10000	2	1	0	2	0
49	377	1	10000	2	1	0	2	0
48	378	1	10000	2	1	0	2	0
48	379	1	10000	2	1	0	2	0
47	380	1	10000	2	1	0	2	0
46	381	1	10000	2	1	0	2	0
44	382	1	10000	2	1	0	2	0
43	383	1	10000	2	1	0	2	0
42	384	1	10000	2	1	0	2	0
40	385	1	10000	2	1	0	2	0
39	386	1	10000	2	1	0	2	0
40	387	1	10000	2	1	0	2	0
42	388	1	10000	2	1	0	2	0
45	389	1	10000	2	1	0	2	0
46	390	1	10000	2	1	0	2	0
44	391	1	10000	2	1	0	2	0
43	392	1	10000	2	1	0	2	0
42	393	1	10000	2	1	0	2	0
41	394	1	10000	2	1	0	2	0
41	395	1	10000	2	1	0	2	0
40	396	1	10000	2	1	0	2	0
40	397	1	10000	2	1	0	2	0
39	398	1	10000	2	1	0	2	0
37	399	1	10000	2	1	0	2	0
37	400	1	10000	2	1	0	2	0
38	401	1	10000	2	1	0	2	0
39	402	1	10000	2	1	0	2	0
38	403	1	10000	2	1	0	2	0
40	404	1	10000	2	1	0	2	0
40	405	1	10000	2	1	0	2	0
40	406	1	10000	2	1	0	2	0
41	407	1	10000	2	1	0	2	0
41	408	1	10000	2	1	0	2	0
41	409	1	10000	2	1	0	2	0
40	410	1	10000	2	1	0	2	0
38	411	1	10000	2	1	0	2	0
37	412	1	10000	2	1	0	2	0
36	413	1	10000	2	1	0	2	0
35	414	1	10000	2	1	0	2	0
35	415	1	10000	2	1	0	2	0
32	416	1	10000	2	1	0	2	0
31	417	1	10000	2	1	0	2	0
33	418	1	10000	2	1	0	2	0
33	419	1	10000	2	1	0	2	0
34	420	1	10000	2	1	0	2	0
35	421	1	10000	2	1	0	2	0
34	422	1	10000	2	1	0	2	0
34	423	1	10000	2	1	0	2	0
33	424	1	10000	2	1	0	2	0
33	425	1	10000	2	1	0	2	0
34	426	1	10000	2	1	0	2	0
34	427	1	10000	2	1	0	2	0
32	428	1	10000	2	1	0	2	0
31	429	1	10000	2	1	0	2	0
30	430	1	10000	2	1	0	2	0
31	431	1	10000	2	1	0	2	0
33	432	1	10000	2	1	0	2	0
35	433	1	10000	2	1	0	2	0
37	434	1	10000	2	1	0	2	0
39	435	1	10000	2	1	0	2	0
39	436	1	10000	2	1	0	2	0
38	437	1	10000	2	1	0	2	0
38	438	1	10000	2	1	0	2	0
36	439	1	10000	2	1	0	2	0
37	440	1	10000	2	1	0	2	0
39	441	1	10000	2	1	0	2	0
38	442	1	10000	2	1	0	2	0
37	443	1	10000	2	1	0	2	0
35	444	1	10000	2	1	0	2	0
34	445	1	10000	2	1	0	2	0
35	446	1	10000	2	1	0	2	0
37	447	1	10000	2	1	0	2	0
38	448	1	10000	2	1	0	2	0
38	449	1	10000	2	1	0	2	0
37	450	1	10000	2	1	0	2	0
36	451	1	10000	2	1	0	2	0
36	452	1	10000	2	1	0	2	0
34	453	1	10000	2	1	0	2	0
36	454	1	10000	2	1	0	2	0
39	455	1	10000	2	1	0	2	0
38	456	1	10000	2	1	0	2	0
37	457	1	10000	2	1	0	2	0
37	458	1	10000	2	1	0	2	0
35	459	1	10000	2	1	0	2	0
35	460	1	10000	2	1	0	2	0
35	461	1	10000	2	1	0	2	0
34	462	1	10000	2	1	0	2	0
32	463	1	10000	2	1	0	2	0
31	464	1	10000	2	1	0	2	0
29	465	1	10000	2	1	0	2	0
30	466	1	10000	2	1	0	2	0
30	467	1	10000	2	1	0	2	0
29	468	1	10000	2	1	0	2	0
28	469	1	10000	2	1	0	2	0
27	470	1	10000	2	1	0	2	0
27	471	1	10000	2	1	0	2	0
26	472	1	10000	2	1	0	2	0
25	473	1	10000	2	1	0	2	0
25	474	1	10000	2	1	0	2	0
26	475	1	10000	2	1	0	2	0
25	476	1	10000	2	1	0	2	0
27	477	1	10000	2	1	0	2	0
30	478	1	10000	2	1	0	2	0
28	479	1	10000	2	1	0	2	0
27	480	1	10000	2	1	0	2	0
28	481	1	10000	2	1	0	2	0
28	482	1	10000	2	1	0	2	0
28	483	1	10000	2	1	0	2	0
30	484	1	10000	2	1	0	2	0
30	485	1	10000	2	1	0	2	0
31	486	1	10000	2	1	0	2	0
31	487	1	10000	2	1	0	2	0
29	488	1	10000	2	1	0	2	0
29	489	1	10000	2	1	0	2	0
30	490	1	10000	2	1	0	2	0
31	491	1	10000	2	1	0	2	0
32	492	1	10000	2	1	0	2	0
32	493	1	10000	2	1	0	2	0
35	494	1	10000	2	1	0	2	0
36	495	1	10000	2	1	0	2	0
34	496	1	10000	2	1	0	2	0
34	497	1	10000	2	1	0	2	0
33	498	1	10000	2	1	0	2	0
33	499	1	10000	2	1	0	2	0
32	500	1	10000	2	1	0	2	0
32	501	1	10000	2	1	0	2	0
31	502	1	10000	2	1	0	2	1
30	503	1	10000	2	1	0	2	1
28	504	1	10000	2	1	0	2	1
26	505	1	10000	2	1	0	2	1
26	506	1	10000	2	1	0	2	1
27	507	1	10000	2	1	0	2	1
26	508	1	10000	2	1	0	2	1
26	509	1	10000	2	1	0	2	1
24	510	1	10000	2	1	0	2	1
24	511	1	10000	2	1	0	2	1
26	512	1	10000	2	1	0	2	1
26	513	1	10000	2	1	0	2	1
26	514	1	10000	2	1	0	2	1
26	515	1	10000	2	1	0	2	1
24	516	1	10000	2	1	0	2	1
22	517	1	10000	2	1	0	2	1
22	518	1	10000	2	1	0	2	1
24	519	1	10000	2	1	0	2	1
26	520	1	10000	2	1	0	2	1
27	521	1	10000	2	1	0	2	1
28	522	1	10000	2	1	0	2	1
26	523	1	10000	2	1	0	2	1
25	524	1	10000	2	1	0	2	1
25	525	1	10000	2	1	0	2	1
27	526	1	10000	2	1	0	2	1
32	527	1	10000	2	1	0	2	1
37	528	1	10000	2	1	0	2	1
38	529	1	10000	2	1	0	2	1
36	530	1	10000	2	1	0	2	1
35	531	1	10000	2	1	0	2	1
37	532	1	10000	2	1	0	2	1
36	533	1	10000	2	1	0	2	1
35	534	1	10000	2	1	0	2	1
34	535	1	10000	2	1	0	2	1
32	536	1	10000	2	1	0	2	1
31	537	1	10000	2	1	0	2	1
33	538	1	10000	2	1	0	2	1
32	539	1	10000	2	1	0	2	1
33	540	1	10000	2	1	0	2	1
35	541	1	10000	2	1	0	2	1
36	542	1	10000	2	1	0	2	1
36	543	1	10000	2	1	0	2	1
35	544	1	10000	2	1	0	2	1
34	545	1	10000	2	1	0	2	1
35	546	1	10000	2	1	0	2	1
36	547	1	10000	2	1	0	2	1
35	548	1	10000	2	1	0	2	1
34	549	1	10000	2	1	0	2	1
32	550	1	10000	2	1	0	2	1
31	551	1	10000	2	1	0	2	1
30	552	1	10000	2	1	0	2	0
30	553	1	10000	2	1	0	2	0
32	554	1	10000	2	1	0	2	0
33	555	1	10000	2	1	0	2	0
33	556	1	10000	2	1	0	2	0
30	557	1	10000	2	1	0	2	0
30	558	1	10000	2	1	0	2	0
29	559	1	10000	2	1	0	2	0
29	560	1	10000	2	1	0	2	0
27	561	1	10000	2	1	0	2	0
28	562	1	10000	2	1	0	2	0
27	563	1	10000	2	1	0	2	0
26	564	1	10000	2	1	0	2	0
26	565	1	10000	2	1	0	2	0
29	566	1	10000	2	1	0	2	0
29	567	1	10000	2	1	0	2	0
28	568	1	10000	2	1	0	2	0
28	569	1	10000	2	1	0	2	0
28	570	1	10000	2	1	0	2	0
29	571	1	10000	2	1	0	2	0
29	572	1	10000	2	1	0	2	0
28	573	1	10000	2	1	0	2	0
27	574	1	10000	2	1	0	2	0
28	575	1	10000	2	1	0	2	0
27	576	1	10000	2	1	0	2	0
25	577	1	10000	2	1	0	2	0
26	578	1	10000	2	1	0	2	0
32	579	1	10000	2	1	0	2	0
66	580	1	10000	2	1	0	2	0
77	581	1	10000	2	1	0	2	0
103	582	1	10000	2	1	0	2	0
116	583	1	10000	2	1	0	2	0
120	584	1	10000	2	1	0	2	0
158	585	1	10000	2	1	0	2	0
189	586	1	10000	2	1	0	2	0
217	587	1	10000	2	1	0	2	0
298	588	1	10000	2	1	0	2	0
383	589	1	10000	2	1	0	2	0
418	590	1	10000	2	1	0	2	0
413	591	1	10000	2	1	0	2	0
435	592	1	10000	2	1	0	2	0
470	593	1	10000	2	1	0	2	0
476	594	1	10000	2	1	0	2	0
473	595	1	10000	2	1	0	2	0
477	596	1	10000	2	1	0	2	0
467	597	1	10000	2	1	0	2	0
484	598	1	10000	2	1	0	2	0
467	599	1	10000	2	1	0	2	0
464	600	1	10000	2	1	0	2	0
473	601	1	10000	2	1	0	2	0
479	602	1	10000	2	1	0	2	0
507	603	1	10000	2	1	0	2	0
500	604	1	10000	2	1	0	2	0
531	605	1	10000	2	1	0	2	0
571	606	1	10000	2	1	0	2	0
553	607	1	10000	2	1	0	2	0
535	608	1	10000	2	1	0	2	0
570	609	1	10000	2	1	0	2	0
580	610	1	10000	2	1	0	2	0
560	611	1	10000	2	1	0	2	0
543	612	1	10000	2	1	0	2	0
572	613	1	10000	2	1	0	2	0
598	614	1	10000	2	1	0	2	0
584	615	1	10000	2	1	0	2	0
572	616	1	10000	2	1	0	2	0
555	617	1	10000	2	1	0	2	0
573	618	1	10000	2	1	0	2	0
569	619	1	10000	2	1	0	2	0
553	620	1	10000	2	1	0	2	0
541	621	1	10000	2	1	0	2	0
532	622	1	10000	2	1	0	2	0
517	623	1	10000	2	1	0	2	0
498	624	1	10000	2	1	0	2	0
481	625	1	10000	2	1	0	2	0
472	626	1	10000	2	1	0	2	0
468	627	1	10000	2	1	0	2	0
466	628	1	10000	2	1	0	2	0
467	629	1	10000	2	1	0	2	0
468	630	1	10000	2	1	0	2	0
471	631	1	10000	2	1	0	2	0
475	632	1	10000	2	1	0	2	0
479	633	1	10000	2	1	0	2	0
482	634	1	10000	2	1	0	2	0
484	635	1	10000	2	1	0	2	0
486	636	1	10000	2	1	0	2	0
485	637	1	10000	2	1	0	2	0
480	638	1	10000	2	1	0	2	0
475	639	1	10000	2	1	0	2	0
470	640	1	10000	2	1	0	2	0
461	641	1	10000	2	1	0	2	0
450	642	1	10000	2	1	0	2	0
441	643	1	10000	2	1	0	2	0
435	644	1	10000	2	1	0	2	0
426	645	1	10000	2	1	0	2	0
419	646	1	10000	2	1	0	2	0
405	647	1	10000	2	1	0	2	0
400	648	1	10000	2	1	0	2	0
389	649	1	10000	2	1	0	2	0
374	650	1	10000	2	1	0	2	0
363	651	1	10000	2	1	0	2	0
354	652	1	10000	2	1	0	2	0
348	653	1	10000	2	1	0	2	0
351	654	1	10000	2	1	0	2	0
356	655	1	10000	2	1	0	2	0
355	656	1	10000	2	1	0	2	0
353	657	1	10000	2	1	0	2	0
351	658	1	10000	2	1	0	2	0
347	659	1	10000	2	1	0	2	0
345	660	1	10000	2	1	0	2	0
345	661	1	10000	2	1	0	2	0
346	662	1	10000	2	1	0	2	0
346	663	1	10000	2	1	0	2	0
345	664	1	10000	2	1	0	2	0
347	665	1	10000	2	1	0	2	0
350	666	1	10000	2	1	0	2	0
341	667	1	10000	2	1	0	2	0
326	668	1	10000	2	1	0	2	0
323	669	1	10000	2	1	0	2	0
328	670	1	10000	2	1	0	2	0
333	671	1	10000	2	1	0	2	0
338	672	1	10000	2	1	0	2	0
338	673	1	10000	2	1	0	2	0
331	674	1	10000	2	1	0	2	0
326	675	1	10000	2	1	0	2	0
327	676	1	10000	2	1	0	2	0
334	677	1	10000	2	1	0	2	0
345	678	1	10000	2	1	0	2	0
352	679	1	10000	2	1	0	2	0
354	680	1	10000	2	1	0	2	0
346	681	1	10000	2	1	0	2	0
338	682	1	10000	2	1	0	2	0
326	683	1	10000	2	1	0	2	0
329	684	1	10000	2	1	0	2	0
366	685	1	10000	2	1	0	2	0
410	686	1	10000	2	1	0	2	0
416	687	1	10000	2	1	0	2	0
413	688	1	10000	2	1	0	2	0
439	689	1	10000	2	1	0	2	0
477	690	1	10000	2	1	0	2	0
507	691	1	10000	2	1	0	2	0
526	692	1	10000	2	1	0	2	0
539	693	1	10000	2	1	0	2	0
544	694	1	10000	2	1	0	2	0
538	695	1	10000	2	1	0	2	0
526	696	1	10000	2	1	0	2	0
503	697	1	10000	2	1	0	2	0
487	698	1	10000	2	1	0	2	0
466	699	1	10000	2	1	0	2	0
448	700	1	10000	2	1	0	2	0
431	701	1	10000	2	1	0	2	0
413	702	1	10000	2	1	0	2	0
401	703	1	10000	2	1	0	2	0
390	704	1	10000	2	1	0	2	0
375	705	1	10000	2	1	0	2	0
359	706	1	10000	2	1	0	2	0
345	707	1	10000	2	1	0	2	0
337	708	1	10000	2	1	0	2	0
331	709	1	10000	2	1	0	2	0
322	710	1	10000	2	1	0	2	0
315	711	1	10000	2	1	0	2	0
309	712	1	10000	2	1	0	2	0
304	713	1	10000	2	1	0	2	0
300	714	1	10000	2	1	0	2	0
298	715	1	10000	2	1	0	2	0
295	716	1	10000	2	1	0	2	0
289	717	1	10000	2	1	0	2	0
286	718	1	10000	2	1	0	2	0
285	719	1	10000	2	1	0	2	0
280	720	1	10000	2	1	0	2	0
273	721	1	10000	2	1	0	2	0
269	722	1	10000	2	1	0	2	0
271	723	1	10000	2	1	0	2	0
275	724	1	10000	2	1	0	2	0
282	725	1	10000	2	1	0	2	0
292	726	1	10000	2	1	0	2	0
292	727	1	10000	2	1	0	2	0
282	728	1	10000	2	1	0	2	0
273	729	1	10000	2	1	0	2	0
271	730	1	10000	2	1	0	2	0
269	731	1	10000	2	1	0	2	0
263	732	1	10000	2	1	0	2	0
253	733	1	10000	2	1	0	2	0
248	734	1	10000	2	1	0	2	0
246	735	1	10000	2	1	0	2	0
242	736	1	10000	2	1	0	2	0
235	737	1	10000	2	1	0	2	0
228	738	1	10000	2	1	0	2	0
219	739	1	10000	2	1	0	2	0
210	740	1	10000	2	1	0	2	0
201	741	1	10000	2	1	0	2	0
193	742	1	10000	2	1	0	2	0
184	743	1	10000	2	1	0	2	0
175	744	1	10000	2	1	0	2	0
167	745	1	10000	2	1	0	2	0
161	746	1	10000	2	1	0	2	0
157	747	1	10000	2	1	0	2	0
152	748	1	10000	2	1	0	2	0
155	749	1	10000	2	1	0	2	0
154	750	1	10000	2	1	0	2	0
149	751	1	10000	2	1	0	2	0
144	752	1	10000	2	1	0	2	0
145	753	1	10000	2	1	0	2	0
147	754	1	10000	2	1	0	2	0
149	755	1	10000	2	1	0	2	0
159	756	1	10000	2	1	0	2	0
181	757	1	10000	2	1	0	2	0
198	758	1	10000	2	1	0	2	0
194	759	1	10000	2	1	0	2	0
199	760	1	10000	2	1	0	2	0
213	761	1	10000	2	1	0	2	0
225	762	1	10000	2	1	0	2	0
227	763	1	10000	2	1	0	2	0
218	764	1	10000	2	1	0	2	0
211	765	1	10000	2	1	0	2	0
201	766	1	10000	2	1	0	2	0
198	767	1	10000	2	1	0	2	0
199	768	1	10000	2	1	0	2	0
199	769	1	10000	2	1	0	2	0
194	770	1	10000	2	1	0	2	0
188	771	1	10000	2	1	0	2	0
184	772	1	10000	2	1	0	2	0
181	773	1	10000	2	1	0	2	0
178	774	1	10000	2	1	0	2	0
176	775	1	10000	2	1	0	2	0
175	776	1	10000	2	1	0	2	0
171	777	1	10000	2	1	0	2	0
169	778	1	10000	2	1	0	2	0
170	779	1	10000	2	1	0	2	0
172	780	1	10000	2	1	0	2	0
169	781	1	10000	2	1	0	2	0
166	782	1	10000	2	1	0	2	0
162	783	1	10000	2	1	0	2	0
157	784	1	10000	2	1	0	2	0
151	785	1	10000	2	1	0	2	0
146	786	1	10000	2	1	0	2	0
145	787	1	10000	2	1	0	2	0
141	788	1	10000	2	1	0	2	0
137	789	1	10000	2	1	0	2	0
133	790	1	10000	2	1	0	2	0
128	791	1	10000	2	1	0	2	0
122	792	1	10000	2	1	0	2	0
120	793	1	10000	2	1	0	2	0
123	794	1	10000	2	1	0	2	0
125	795	1	10000	2	1	0	2	0
121	796	1	10000	2	1	0	2	0
116	797	1	10000	2	1	0	2	0
112	798	1	10000	2	1	0	2	0
108	799	1	10000	2	1	0	2	0
105	800	1	10000	2	1	0	2	0
101	801	1	10000	2	1	0	2	0
99	802	1	10000	2	1	0	2	0
94	803	1	10000	2	1	0	2	0
93	804	1	10000	2	1	0	2	0
97	805	1	10000	2	1	0	2	0
96	806	1	10000	2	1	0	2	0
98	807	1	10000	2	1	0	2	0
103	808	1	10000	2	1	0	2	0
103	809	1	10000	2	1	0	2	0
104	810	1	10000	2	1	0	2	0
110	811	1	10000	2	1	0	2	0
113	812	1	10000	2	1	0	2	0
111	813	1	10000	2	1	0	2	0
110	814	1	10000	2	1	0	2	0
112	815	1	10000	2	1	0	2	0
111	816	1	10000	2	1	0	2	0
107	817	1	10000	2	1	0	2	0
107	818	1	10000	2	1	0	2	0
104	819	1	10000	2	1	0	2	0
99	820	1	10000	2	1	0	2	0
99	821	1	10000	2	1	0	2	0
102	822	1	10000	2	1	0	2	0
105	823	1	10000	2	1	0	2	0
111	824	1	10000	2	1	0	2	0
113	825	1	10000	2	1	0	2	0
112	826	1	10000	2	1	0	2	0
111	827	1	10000	2	1	0	2	0
111	828	1	10000	2	1	0	2	0
108	829	1	10000	2	1	0	2	0
110	830	1	10000	2	1	0	2	0
117	831	1	10000	2	1	0	2	0
126	832	1	10000	2	1	0	2	0
136	833	1	10000	2	1	0	2	0
137	834	1	10000	2	1	0	2	0
133	835	1	10000	2	1	0	2	0
131	836	1	10000	2	1	0	2	0
124	837	1	10000	2	1	0	2	0
119	838	1	10000	2	1	0	2	0
118	839	1	10000	2	1	0	2	0
116	840	1	10000	2	1	0	2	0
116	841	1	10000	2	1	0	2	0
116	842	1	10000	2	1	0	2	0
111	843	1	10000	2	1	0	2	0
105	844	1	10000	2	1	0	2	0
102	845	1	10000	2	1	0	2	0
99	846	1	10000	2	1	0	2	0
97	847	1	10000	2	1	0	2	0
92	848	1	10000	2	1	0	2	0
89	849	1	10000	2	1	0	2	0
86	850	1	10000	2	1	0	2	0
84	851	1	10000	2	1	0	2	0
86	852	1	10000	2	1	0	2	0
92	853	1	10000	2	1	0	2	0
93	854	1	10000	2	1	0	2	0
90	855	1	10000	2	1	0	2	0
90	856	1	10000	2	1	0	2	0
89	857	1	10000	2	1	0	2	0
88	858	1	10000	2	1	0	2	0
86	859	1	10000	2	1	0	2	0
85	860	1	10000	2	1	0	2	0
88	861	1	10000	2	1	0	2	0
93	862	1	10000	2	1	0	2	0
94	863	1	10000	2	1	0	2	0
92	864	1	10000	2	1	0	2	0
92	865	1	10000	2	1	0	2	0
90	866	1	10000	2	1	0	2	0
90	867	1	10000	2	1	0	2	0
88	868	1	10000	2	1	0	2	0
84	869	1	10000	2	1	0	2	0
82	870	1	10000	2	1	0	2	0
81	871	1	10000	2	1	0	2	0
78	872	1	10000	2	1	0	2	0
76	873	1	10000	2	1	0	2	0
74	874	1	10000	2	1	0	2	0
72	875	1	10000	2	1	0	2	0
74	876	1	10000	2	1	0	2	0
74	877	1	10000	2	1	0	2	0
75	878	1	10000	2	1	0	2	0
77	879	1	10000	2	1	0	2	0
77	880	1	10000	2	1	0	2	0
80	881	1	10000	2	1	0	2	0
83	882	1	10000	2	1	0	2	0
86	883	1	10000	2	1	0	2	0
93	884	1	10000	2	1	0	2	0
95	885	1	10000	2	1	0	2	0
92	886	1	10000	2	1	0	2	0
91	887	1	10000	2	1	0	2	0
86	888	1	10000	2	1	0	2	0
87	889	1	10000	2	1	0	2	0
106	890	1	10000	2	1	0	2	0
114	891	1	10000	2	1	0	2	0
127	892	1	10000	2	1	0	2	0
160	893	1	10000	2	1	0	2	0
179	894	1	10000	2	1	0	2	0
176	895	1	10000	2	1	0	2	0
183	896	1	10000	2	1	0	2	0
198	897	1	10000	2	1	0	2	0
206	898	1	10000	2	1	0	2	0
202	899	1	10000	2	1	0	2	0
198	900	1	10000	2	1	0	2	0
195	901	1	10000	2	1	0	2	0
191	902	1	10000	2	1	0	2	0
184	903	1	10000	2	1	0	2	0
181	904	1	10000	2	1	0	2	0
185	905	1	10000	2	1	0	2	0
195	906	1	10000	2	1	0	2	0
212	907	1	10000	2	1	0	2	0
218	908	1	10000	2	1	0	2	0
212	909	1	10000	2	1	0	2	0
224	910	1	10000	2	1	0	2	0
244	911	1	10000	2	1	0	2	0
242	912	1	10000	2	1	0	2	0
240	913	1	10000	2	1	0	2	0
239	914	1	10000	2	1	0	2	0
231	915	1	10000	2	1	0	2	0
227	916	1	10000	2	1	0	2	0
221	917	1	10000	2	1	0	2	0
214	918	1	10000	2	1	0	2	0
208	919	1	10000	2	1	0	2	0
200	920	1	10000	2	1	0	2	0
196	921	1	10000	2	1	0	2	0
195	922	1	10000	2	1	0	2	0
193	923	1	10000	2	1	0	2	0
189	924	1	10000	2	1	0	2	0
182	925	1	10000	2	1	0	2	0
179	926	1	10000	2	1	0	2	0
177	927	1	10000	2	1	0	2	0
171	928	1	10000	2	1	0	2	0
165	929	1	10000	2	1	0	2	0
170	930	1	10000	2	1	0	2	0
176	931	1	10000	2	1	0	2	0
172	932	1	10000	2	1	0	2	0
168	933	1	10000	2	1	0	2	0
164	934	1	10000	2	1	0	2	0
161	935	1	10000	2	1	0	2	0
156	936	1	10000	2	1	0	2	0
149	937	1	10000	2	1	0	2	0
148	938	1	10000	2	1	0	2	0
146	939	1	10000	2	1	0	2	0
149	940	1	10000	2	1	0	2	0
162	941	1	10000	2	1	0	2	0
169	942	1	10000	2	1	0	2	0
175	943	1	10000	2	1	0	2	0
175	944	1	10000	2	1	0	2	0
197	945	1	10000	2	1	0	2	0
220	946	1	10000	2	1	0	2	0
219	947	1	10000	2	1	0	2	0
219	948	1	10000	2	1	0	2	0
226	949	1	10000	2	1	0	2	0
231	950	1	10000	2	1	0	2	0
226	951	1	10000	2	1	0	2	0
216	952	1	10000	2	1	0	2	0
206	953	1	10000	2	1	0	2	0
204	954	1	10000	2	1	0	2	0
200	955	1	10000	2	1	0	2	0
196	956	1	10000	2	1	0	2	0
196	957	1	10000	2	1	0	2	0
195	958	1	10000	2	1	0	2	0
193	959	1	10000	2	1	0	2	0
186	960	1	10000	2	1	0	2	0
179	961	1	10000	2	1	0	2	0
172	962	1	10000	2	1	0	2	0
166	963	1	10000	2	1	0	2	0
160	964	1	10000	2	1	0	2	0
152	965	1	10000	2	1	0	2	0
155	966	1	10000	2	1	0	2	0
167	967	1	10000	2	1	0	2	0
172	968	1	10000	2	1	0	2	0
170	969	1	10000	2	1	0	2	0
164	970	1	10000	2	1	0	2	0
159	971	1	10000	2	1	0	2	0
157	972	1	10000	2	1	0	2	0
155	973	1	10000	2	1	0	2	0
155	974	1	10000	2	1	0	2	0
157	975	1	10000	2	1	0	2	0
157	976	1	10000	2	1	0	2	0
152	977	1	10000	2	1	0	2	0
145	978	1	10000	2	1	0	2	0
140	979	1	10000	2	1	0	2	0
136	980	1	10000	2	1	0	2	0
131	981	1	10000	2	1	0	2	0
127	982	1	10000	2	1	0	2	0
124	983	1	10000	2	1	0	2	0
118	984	1	10000	2	1	0	2	0
115	985	1	10000	2	1	0	2	0
114	986	1	10000	2	1	0	2	0
117	987	1	10000	2	1	0	2	0
117	988	1	10000	2	1	0	2	0
117	989	1	10000	2	1	0	2	0
118	990	1	10000	2	1	0	2	0
120	991	1	10000	2	1	0	2	0
119	992	1	10000	2	1	0	2	0
115	993	1	10000	2	1	0	2	0
111	994	1	10000	2	1	0	2	0
106	995	1	10000	2	1	0	2	0
102	996	1	10000	2	1	0	2	0
96	997	1	10000	2	1	0	2	0
95	998	1	10000	2	1	0	2	0
96	999	1	10000	2	1	0	2	0
103	1000	1	10000	2	1	0	2	0
113	1001	1	10000	2	1	0	2	0
35	2	1	10000	3	1	0	3	0
34	3	1	10000	3	1	0	3	0
34	4	1	10000	3	1	0	3	0
35	5	1	10000	3	1	0	3	0
35	6	1	10000	3	1	0	3	0
34	7	1	10000	3	1	0	3	0
34	8	1	10000	3	1	0	3	0
32	9	1	10000	3	1	0	3	0
33	10	1	10000	3	1	0	3	0
32	11	1	10000	3	1	0	3	0
30	12	1	10000	3	1	0	3	0
32	13	1	10000	3	1	0	3	0
31	14	1	10000	3	1	0	3	0
30	15	1	10000	3	1	0	3	0
29	16	1	10000	3	1	0	3	0
28	17	1	10000	3	1	0	3	0
27	18	1	10000	3	1	0	3	0
26	19	1	10000	3	1	0	3	0
26	20	1	10000	3	1	0	3	0
26	21	1	10000	3	1	0	3	0
26	22	1	10000	3	1	0	3	0
24	23	1	10000	3	1	0	3	0
22	24	1	10000	3	1	0	3	0
22	25	1	10000	3	1	0	3	0
22	26	1	10000	3	1	0	3	0
21	27	1	10000	3	1	0	3	0
21	28	1	10000	3	1	0	3	0
21	29	1	10000	3	1	0	3	0
21	30	1	10000	3	1	0	3	0
21	31	1	10000	3	1	0	3	0
22	32	1	10000	3	1	0	3	0
25	33	1	10000	3	1	0	3	0
25	34	1	10000	3	1	0	3	0
25	35	1	10000	3	1	0	3	0
24	36	1	10000	3	1	0	3	0
23	37	1	10000	3	1	0	3	0
23	38	1	10000	3	1	0	3	0
23	39	1	10000	3	1	0	3	0
25	40	1	10000	3	1	0	3	0
25	41	1	10000	3	1	0	3	0
26	42	1	10000	3	1	0	3	0
24	43	1	10000	3	1	0	3	0
24	44	1	10000	3	1	0	3	0
23	45	1	10000	3	1	0	3	0
23	46	1	10000	3	1	0	3	0
22	47	1	10000	3	1	0	3	0
21	48	1	10000	3	1	0	3	0
21	49	1	10000	3	1	0	3	0
21	50	1	10000	3	1	0	3	0
20	51	1	10000	3	1	0	3	0
20	52	1	10000	3	1	0	3	0
23	53	1	10000	3	1	0	3	0
24	54	1	10000	3	1	0	3	0
23	55	1	10000	3	1	0	3	0
22	56	1	10000	3	1	0	3	0
21	57	1	10000	3	1	0	3	0
21	58	1	10000	3	1	0	3	0
21	59	1	10000	3	1	0	3	0
22	60	1	10000	3	1	0	3	0
21	61	1	10000	3	1	0	3	0
21	62	1	10000	3	1	0	3	0
20	63	1	10000	3	1	0	3	0
19	64	1	10000	3	1	0	3	0
18	65	1	10000	3	1	0	3	0
19	66	1	10000	3	1	0	3	0
18	67	1	10000	3	1	0	3	0
18	68	1	10000	3	1	0	3	0
17	69	1	10000	3	1	0	3	0
17	70	1	10000	3	1	0	3	0
16	71	1	10000	3	1	0	3	0
16	72	1	10000	3	1	0	3	0
18	73	1	10000	3	1	0	3	0
18	74	1	10000	3	1	0	3	0
18	75	1	10000	3	1	0	3	0
17	76	1	10000	3	1	0	3	0
17	77	1	10000	3	1	0	3	0
18	78	1	10000	3	1	0	3	0
20	79	1	10000	3	1	0	3	0
20	80	1	10000	3	1	0	3	0
20	81	1	10000	3	1	0	3	0
22	81	1	10000	3	1	0	3	0
20	82	1	10000	3	1	0	3	0
20	84	1	10000	3	1	0	3	0
21	85	1	10000	3	1	0	3	0
22	86	1	10000	3	1	0	3	0
23	87	1	10000	3	1	0	3	0
23	88	1	10000	3	1	0	3	0
22	89	1	10000	3	1	0	3	0
22	90	1	10000	3	1	0	3	0
20	91	1	10000	3	1	0	3	0
20	92	1	10000	3	1	0	3	0
22	93	1	10000	3	1	0	3	0
21	94	1	10000	3	1	0	3	0
20	95	1	10000	3	1	0	3	0
21	96	1	10000	3	1	0	3	0
22	97	1	10000	3	1	0	3	0
22	98	1	10000	3	1	0	3	0
23	99	1	10000	3	1	0	3	0
23	100	1	10000	3	1	0	3	0
23	101	1	10000	3	1	0	3	0
24	102	1	10000	3	1	0	3	0
22	103	1	10000	3	1	0	3	0
23	104	1	10000	3	1	0	3	0
23	105	1	10000	3	1	0	3	0
24	106	1	10000	3	1	0	3	0
26	107	1	10000	3	1	0	3	0
26	108	1	10000	3	1	0	3	0
27	109	1	10000	3	1	0	3	0
26	110	1	10000	3	1	0	3	0
24	111	1	10000	3	1	0	3	0
24	112	1	10000	3	1	0	3	0
25	113	1	10000	3	1	0	3	0
25	114	1	10000	3	1	0	3	0
24	115	1	10000	3	1	0	3	0
23	116	1	10000	3	1	0	3	0
22	117	1	10000	3	1	0	3	0
21	118	1	10000	3	1	0	3	0
20	119	1	10000	3	1	0	3	0
20	120	1	10000	3	1	0	3	0
20	121	1	10000	3	1	0	3	0
20	122	1	10000	3	1	0	3	0
17	123	1	10000	3	1	0	3	0
18	124	1	10000	3	1	0	3	0
18	125	1	10000	3	1	0	3	0
18	126	1	10000	3	1	0	3	0
19	127	1	10000	3	1	0	3	0
18	128	1	10000	3	1	0	3	0
18	129	1	10000	3	1	0	3	0
17	130	1	10000	3	1	0	3	0
17	131	1	10000	3	1	0	3	0
17	132	1	10000	3	1	0	3	0
21	133	1	10000	3	1	0	3	0
22	134	1	10000	3	1	0	3	0
22	135	1	10000	3	1	0	3	0
22	136	1	10000	3	1	0	3	0
22	137	1	10000	3	1	0	3	0
22	138	1	10000	3	1	0	3	0
24	139	1	10000	3	1	0	3	0
27	140	1	10000	3	1	0	3	0
28	141	1	10000	3	1	0	3	0
27	142	1	10000	3	1	0	3	0
25	143	1	10000	3	1	0	3	0
25	144	1	10000	3	1	0	3	0
25	145	1	10000	3	1	0	3	0
27	146	1	10000	3	1	0	3	0
28	147	1	10000	3	1	0	3	0
29	148	1	10000	3	1	0	3	0
29	149	1	10000	3	1	0	3	0
29	150	1	10000	3	1	0	3	0
27	151	1	10000	3	1	0	3	0
26	152	1	10000	3	1	0	3	0
28	153	1	10000	3	1	0	3	0
27	154	1	10000	3	1	0	3	0
26	155	1	10000	3	1	0	3	0
25	156	1	10000	3	1	0	3	0
24	157	1	10000	3	1	0	3	0
24	158	1	10000	3	1	0	3	0
23	159	1	10000	3	1	0	3	0
24	160	1	10000	3	1	0	3	0
25	161	1	10000	3	1	0	3	0
24	162	1	10000	3	1	0	3	0
21	163	1	10000	3	1	0	3	0
21	164	1	10000	3	1	0	3	0
20	165	1	10000	3	1	0	3	0
20	166	1	10000	3	1	0	3	0
20	167	1	10000	3	1	0	3	0
19	168	1	10000	3	1	0	3	0
19	169	1	10000	3	1	0	3	0
19	170	1	10000	3	1	0	3	0
18	171	1	10000	3	1	0	3	0
17	172	1	10000	3	1	0	3	0
19	173	1	10000	3	1	0	3	0
21	174	1	10000	3	1	0	3	0
21	175	1	10000	3	1	0	3	0
20	176	1	10000	3	1	0	3	0
21	177	1	10000	3	1	0	3	0
21	178	1	10000	3	1	0	3	0
20	179	1	10000	3	1	0	3	0
21	180	1	10000	3	1	0	3	0
22	181	1	10000	3	1	0	3	0
22	182	1	10000	3	1	0	3	0
20	183	1	10000	3	1	0	3	0
20	184	1	10000	3	1	0	3	0
20	185	1	10000	3	1	0	3	0
20	186	1	10000	3	1	0	3	0
20	187	1	10000	3	1	0	3	0
19	188	1	10000	3	1	0	3	0
20	189	1	10000	3	1	0	3	0
19	190	1	10000	3	1	0	3	0
18	191	1	10000	3	1	0	3	0
17	192	1	10000	3	1	0	3	0
18	193	1	10000	3	1	0	3	0
19	194	1	10000	3	1	0	3	0
18	195	1	10000	3	1	0	3	0
18	196	1	10000	3	1	0	3	0
18	197	1	10000	3	1	0	3	0
19	198	1	10000	3	1	0	3	0
17	199	1	10000	3	1	0	3	0
17	200	1	10000	3	1	0	3	0
18	201	1	10000	3	1	0	3	0
19	202	1	10000	3	1	0	3	0
17	203	1	10000	3	1	0	3	0
17	204	1	10000	3	1	0	3	0
18	205	1	10000	3	1	0	3	0
18	206	1	10000	3	1	0	3	0
19	207	1	10000	3	1	0	3	0
20	208	1	10000	3	1	0	3	0
20	209	1	10000	3	1	0	3	0
20	210	1	10000	3	1	0	3	0
19	211	1	10000	3	1	0	3	0
18	212	1	10000	3	1	0	3	0
20	213	1	10000	3	1	0	3	0
21	214	1	10000	3	1	0	3	0
23	215	1	10000	3	1	0	3	0
22	216	1	10000	3	1	0	3	0
21	217	1	10000	3	1	0	3	0
22	218	1	10000	3	1	0	3	0
20	219	1	10000	3	1	0	3	0
20	220	1	10000	3	1	0	3	0
20	221	1	10000	3	1	0	3	0
20	222	1	10000	3	1	0	3	0
18	223	1	10000	3	1	0	3	0
17	224	1	10000	3	1	0	3	0
18	225	1	10000	3	1	0	3	0
19	226	1	10000	3	1	0	3	0
20	227	1	10000	3	1	0	3	0
19	228	1	10000	3	1	0	3	0
19	229	1	10000	3	1	0	3	0
19	230	1	10000	3	1	0	3	0
18	231	1	10000	3	1	0	3	0
19	232	1	10000	3	1	0	3	0
20	233	1	10000	3	1	0	3	0
20	234	1	10000	3	1	0	3	0
20	235	1	10000	3	1	0	3	0
19	236	1	10000	3	1	0	3	0
18	237	1	10000	3	1	0	3	0
18	238	1	10000	3	1	0	3	0
17	239	1	10000	3	1	0	3	0
19	240	1	10000	3	1	0	3	0
21	241	1	10000	3	1	0	3	0
24	242	1	10000	3	1	0	3	0
22	243	1	10000	3	1	0	3	0
24	244	1	10000	3	1	0	3	0
27	245	1	10000	3	1	0	3	0
28	246	1	10000	3	1	0	3	0
28	247	1	10000	3	1	0	3	0
27	256	1	10000	3	1	0	3	0
27	257	1	10000	3	1	0	3	0
26	258	1	10000	3	1	0	3	0
25	259	1	10000	3	1	0	3	0
27	260	1	10000	3	1	0	3	0
31	261	1	10000	3	1	0	3	0
32	262	1	10000	3	1	0	3	0
33	263	1	10000	3	1	0	3	0
32	264	1	10000	3	1	0	3	0
31	265	1	10000	3	1	0	3	0
31	264	1	10000	3	1	0	3	0
32	265	1	10000	3	1	0	3	0
33	266	1	10000	3	1	0	3	0
34	267	1	10000	3	1	0	3	0
33	268	1	10000	3	1	0	3	0
31	269	1	10000	3	1	0	3	0
30	270	1	10000	3	1	0	3	0
29	271	1	10000	3	1	0	3	0
29	271	1	10000	3	1	0	3	0
28	272	1	10000	3	1	0	3	0
27	273	1	10000	3	1	0	3	0
27	274	1	10000	3	1	0	3	0
25	275	1	10000	3	1	0	3	0
24	276	1	10000	3	1	0	3	0
24	278	1	10000	3	1	0	3	0
24	279	1	10000	3	1	0	3	0
25	280	1	10000	3	1	0	3	0
26	281	1	10000	3	1	0	3	0
24	282	1	10000	3	1	0	3	0
23	283	1	10000	3	1	0	3	0
25	284	1	10000	3	1	0	3	0
25	285	1	10000	3	1	0	3	0
26	284	1	10000	3	1	0	3	0
26	285	1	10000	3	1	0	3	0
25	286	1	10000	3	1	0	3	0
23	287	1	10000	3	1	0	3	0
23	288	1	10000	3	1	0	3	0
25	289	1	10000	3	1	0	3	0
27	291	1	10000	3	1	0	3	0
26	292	1	10000	3	1	0	3	0
26	293	1	10000	3	1	0	3	0
27	294	1	10000	3	1	0	3	0
25	295	1	10000	3	1	0	3	0
24	296	1	10000	3	1	0	3	0
22	295	1	10000	3	1	0	3	0
24	296	1	10000	3	1	0	3	0
23	297	1	10000	3	1	0	3	0
22	298	1	10000	3	1	0	3	0
21	299	1	10000	3	1	0	3	0
21	300	1	10000	3	1	0	3	0
22	301	1	10000	3	1	0	3	0
22	302	1	10000	3	1	0	3	0
22	303	1	10000	3	1	0	3	0
23	304	1	10000	3	1	0	3	0
23	307	1	10000	3	1	0	3	0
21	308	1	10000	3	1	0	3	0
20	309	1	10000	3	1	0	3	0
20	310	1	10000	3	1	0	3	0
20	311	1	10000	3	1	0	3	0
20	312	1	10000	3	1	0	3	0
19	311	1	10000	3	1	0	3	0
20	312	1	10000	3	1	0	3	0
20	313	1	10000	3	1	0	3	0
18	314	1	10000	3	1	0	3	0
18	315	1	10000	3	1	0	3	0
18	316	1	10000	3	1	0	3	0
19	319	1	10000	3	1	0	3	0
18	320	1	10000	3	1	0	3	0
18	321	1	10000	3	1	0	3	0
17	322	1	10000	3	1	0	3	0
17	323	1	10000	3	1	0	3	0
16	324	1	10000	3	1	0	3	0
16	323	1	10000	3	1	0	3	0
17	324	1	10000	3	1	0	3	0
17	325	1	10000	3	1	0	3	0
15	326	1	10000	3	1	0	3	0
14	327	1	10000	3	1	0	3	0
14	328	1	10000	3	1	0	3	0
14	329	1	10000	3	1	0	3	0
14	330	1	10000	3	1	0	3	0
14	331	1	10000	3	1	0	3	0
14	332	1	10000	3	1	0	3	0
13	333	1	10000	3	1	0	3	0
13	334	1	10000	3	1	0	3	0
14	334	1	10000	3	1	0	3	0
17	335	1	10000	3	1	0	3	0
17	336	1	10000	3	1	0	3	0
19	337	1	10000	3	1	0	3	0
20	336	1	10000	3	1	0	3	0
20	337	1	10000	3	1	0	3	0
20	338	1	10000	3	1	0	3	0
20	339	1	10000	3	1	0	3	0
20	340	1	10000	3	1	0	3	0
20	341	1	10000	3	1	0	3	0
20	342	1	10000	3	1	0	3	0
19	343	1	10000	3	1	0	3	0
17	344	1	10000	3	1	0	3	0
17	345	1	10000	3	1	0	3	0
18	346	1	10000	3	1	0	3	0
17	347	1	10000	3	1	0	3	0
17	348	1	10000	3	1	0	3	0
18	349	1	10000	3	1	0	3	0
18	350	1	10000	3	1	0	3	0
17	351	1	10000	3	1	0	3	0
17	352	1	10000	3	1	0	3	0
18	353	1	10000	3	1	0	3	0
18	354	1	10000	3	1	0	3	0
18	355	1	10000	3	1	0	3	0
17	356	1	10000	3	1	0	3	0
16	357	1	10000	3	1	0	3	0
17	358	1	10000	3	1	0	3	0
17	359	1	10000	3	1	0	3	0
17	360	1	10000	3	1	0	3	0
17	361	1	10000	3	1	0	3	0
17	362	1	10000	3	1	0	3	0
17	363	1	10000	3	1	0	3	0
16	364	1	10000	3	1	0	3	0
17	365	1	10000	3	1	0	3	0
18	366	1	10000	3	1	0	3	0
17	367	1	10000	3	1	0	3	0
17	368	1	10000	3	1	0	3	0
17	369	1	10000	3	1	0	3	0
16	370	1	10000	3	1	0	3	0
16	371	1	10000	3	1	0	3	0
15	372	1	10000	3	1	0	3	0
16	373	1	10000	3	1	0	3	0
16	374	1	10000	3	1	0	3	0
17	375	1	10000	3	1	0	3	0
17	376	1	10000	3	1	0	3	0
18	377	1	10000	3	1	0	3	0
19	378	1	10000	3	1	0	3	0
20	379	1	10000	3	1	0	3	0
21	380	1	10000	3	1	0	3	0
21	381	1	10000	3	1	0	3	0
21	382	1	10000	3	1	0	3	0
20	383	1	10000	3	1	0	3	0
19	384	1	10000	3	1	0	3	0
20	385	1	10000	3	1	0	3	0
22	386	1	10000	3	1	0	3	0
22	387	1	10000	3	1	0	3	0
21	388	1	10000	3	1	0	3	0
21	389	1	10000	3	1	0	3	0
20	390	1	10000	3	1	0	3	0
20	391	1	10000	3	1	0	3	0
19	392	1	10000	3	1	0	3	0
21	393	1	10000	3	1	0	3	0
24	394	1	10000	3	1	0	3	0
23	395	1	10000	3	1	0	3	0
23	396	1	10000	3	1	0	3	0
24	397	1	10000	3	1	0	3	0
25	398	1	10000	3	1	0	3	0
28	399	1	10000	3	1	0	3	0
30	400	1	10000	3	1	0	3	0
30	401	1	10000	3	1	0	3	0
33	402	1	10000	3	1	0	3	0
34	403	1	10000	3	1	0	3	0
35	404	1	10000	3	1	0	3	0
37	405	1	10000	3	1	0	3	0
37	406	1	10000	3	1	0	3	0
36	407	1	10000	3	1	0	3	0
34	408	1	10000	3	1	0	3	0
33	409	1	10000	3	1	0	3	0
32	410	1	10000	3	1	0	3	0
32	411	1	10000	3	1	0	3	0
32	412	1	10000	3	1	0	3	0
32	413	1	10000	3	1	0	3	0
32	414	1	10000	3	1	0	3	0
32	415	1	10000	3	1	0	3	0
30	416	1	10000	3	1	0	3	0
30	417	1	10000	3	1	0	3	0
28	418	1	10000	3	1	0	3	0
27	419	1	10000	3	1	0	3	0
27	420	1	10000	3	1	0	3	0
26	421	1	10000	3	1	0	3	0
26	422	1	10000	3	1	0	3	0
25	423	1	10000	3	1	0	3	0
23	424	1	10000	3	1	0	3	0
25	425	1	10000	3	1	0	3	0
27	426	1	10000	3	1	0	3	0
29	427	1	10000	3	1	0	3	0
30	428	1	10000	3	1	0	3	0
30	429	1	10000	3	1	0	3	0
30	430	1	10000	3	1	0	3	0
29	431	1	10000	3	1	0	3	0
28	432	1	10000	3	1	0	3	0
29	433	1	10000	3	1	0	3	0
30	434	1	10000	3	1	0	3	0
28	435	1	10000	3	1	0	3	0
28	436	1	10000	3	1	0	3	0
29	437	1	10000	3	1	0	3	0
28	438	1	10000	3	1	0	3	0
29	439	1	10000	3	1	0	3	0
31	440	1	10000	3	1	0	3	0
31	441	1	10000	3	1	0	3	0
31	442	1	10000	3	1	0	3	0
28	443	1	10000	3	1	0	3	0
27	444	1	10000	3	1	0	3	0
26	445	1	10000	3	1	0	3	0
26	446	1	10000	3	1	0	3	0
25	447	1	10000	3	1	0	3	0
25	448	1	10000	3	1	0	3	0
26	449	1	10000	3	1	0	3	0
25	450	1	10000	3	1	0	3	0
25	451	1	10000	3	1	0	3	0
25	452	1	10000	3	1	0	3	0
25	453	1	10000	3	1	0	3	0
27	454	1	10000	3	1	0	3	0
25	455	1	10000	3	1	0	3	0
24	456	1	10000	3	1	0	3	0
24	457	1	10000	3	1	0	3	0
23	458	1	10000	3	1	0	3	0
23	459	1	10000	3	1	0	3	0
23	460	1	10000	3	1	0	3	0
22	461	1	10000	3	1	0	3	0
22	462	1	10000	3	1	0	3	0
21	463	1	10000	3	1	0	3	0
20	464	1	10000	3	1	0	3	0
20	465	1	10000	3	1	0	3	0
20	466	1	10000	3	1	0	3	0
19	467	1	10000	3	1	0	3	0
19	468	1	10000	3	1	0	3	0
19	469	1	10000	3	1	0	3	0
19	470	1	10000	3	1	0	3	0
18	471	1	10000	3	1	0	3	0
17	472	1	10000	3	1	0	3	0
20	473	1	10000	3	1	0	3	0
22	474	1	10000	3	1	0	3	0
20	475	1	10000	3	1	0	3	0
20	476	1	10000	3	1	0	3	0
20	477	1	10000	3	1	0	3	0
20	478	1	10000	3	1	0	3	0
20	479	1	10000	3	1	0	3	0
22	480	1	10000	3	1	0	3	0
26	481	1	10000	3	1	0	3	0
33	482	1	10000	3	1	0	3	0
37	483	1	10000	3	1	0	3	0
36	484	1	10000	3	1	0	3	0
37	485	1	10000	3	1	0	3	0
37	486	1	10000	3	1	0	3	0
37	487	1	10000	3	1	0	3	0
38	488	1	10000	3	1	0	3	0
39	489	1	10000	3	1	0	3	0
38	490	1	10000	3	1	0	3	0
38	491	1	10000	3	1	0	3	0
37	492	1	10000	3	1	0	3	0
38	493	1	10000	3	1	0	3	0
38	494	1	10000	3	1	0	3	0
36	495	1	10000	3	1	0	3	0
35	496	1	10000	3	1	0	3	0
35	497	1	10000	3	1	0	3	0
34	498	1	10000	3	1	0	3	0
35	499	1	10000	3	1	0	3	0
41	500	1	10000	3	1	0	3	0
41	501	1	10000	3	1	0	3	0
43	502	1	10000	3	1	0	3	1
44	503	1	10000	3	1	0	3	1
44	504	1	10000	3	1	0	3	1
49	505	1	10000	3	1	0	3	1
54	506	1	10000	3	1	0	3	1
63	507	1	10000	3	1	0	3	1
68	508	1	10000	3	1	0	3	1
73	509	1	10000	3	1	0	3	1
78	510	1	10000	3	1	0	3	1
80	511	1	10000	3	1	0	3	1
85	512	1	10000	3	1	0	3	1
88	513	1	10000	3	1	0	3	1
86	514	1	10000	3	1	0	3	1
84	515	1	10000	3	1	0	3	1
82	516	1	10000	3	1	0	3	1
88	517	1	10000	3	1	0	3	1
102	518	1	10000	3	1	0	3	1
141	519	1	10000	3	1	0	3	1
177	520	1	10000	3	1	0	3	1
182	521	1	10000	3	1	0	3	1
183	522	1	10000	3	1	0	3	1
196	523	1	10000	3	1	0	3	1
216	524	1	10000	3	1	0	3	1
240	525	1	10000	3	1	0	3	1
255	526	1	10000	3	1	0	3	1
252	527	1	10000	3	1	0	3	1
253	528	1	10000	3	1	0	3	1
245	529	1	10000	3	1	0	3	1
236	530	1	10000	3	1	0	3	1
233	531	1	10000	3	1	0	3	1
228	532	1	10000	3	1	0	3	1
220	533	1	10000	3	1	0	3	1
212	534	1	10000	3	1	0	3	1
203	535	1	10000	3	1	0	3	1
199	536	1	10000	3	1	0	3	1
211	537	1	10000	3	1	0	3	1
221	538	1	10000	3	1	0	3	1
220	539	1	10000	3	1	0	3	1
213	540	1	10000	3	1	0	3	1
220	541	1	10000	3	1	0	3	1
222	542	1	10000	3	1	0	3	1
215	543	1	10000	3	1	0	3	1
206	544	1	10000	3	1	0	3	1
197	545	1	10000	3	1	0	3	1
188	546	1	10000	3	1	0	3	1
180	547	1	10000	3	1	0	3	1
175	548	1	10000	3	1	0	3	1
169	549	1	10000	3	1	0	3	1
176	550	1	10000	3	1	0	3	1
184	551	1	10000	3	1	0	3	1
180	552	1	10000	3	1	0	3	0
174	553	1	10000	3	1	0	3	0
175	554	1	10000	3	1	0	3	0
183	555	1	10000	3	1	0	3	0
191	556	1	10000	3	1	0	3	0
190	557	1	10000	3	1	0	3	0
184	558	1	10000	3	1	0	3	0
177	559	1	10000	3	1	0	3	0
175	560	1	10000	3	1	0	3	0
169	561	1	10000	3	1	0	3	0
163	562	1	10000	3	1	0	3	0
157	563	1	10000	3	1	0	3	0
151	564	1	10000	3	1	0	3	0
148	565	1	10000	3	1	0	3	0
142	566	1	10000	3	1	0	3	0
141	567	1	10000	3	1	0	3	0
140	568	1	10000	3	1	0	3	0
135	569	1	10000	3	1	0	3	0
130	570	1	10000	3	1	0	3	0
126	571	1	10000	3	1	0	3	0
124	572	1	10000	3	1	0	3	0
121	573	1	10000	3	1	0	3	0
123	574	1	10000	3	1	0	3	0
125	575	1	10000	3	1	0	3	0
150	576	1	10000	3	1	0	3	0
153	577	1	10000	3	1	0	3	0
164	578	1	10000	3	1	0	3	0
181	579	1	10000	3	1	0	3	0
188	580	1	10000	3	1	0	3	0
196	581	1	10000	3	1	0	3	0
236	582	1	10000	3	1	0	3	0
258	583	1	10000	3	1	0	3	0
259	584	1	10000	3	1	0	3	0
262	585	1	10000	3	1	0	3	0
279	586	1	10000	3	1	0	3	0
277	587	1	10000	3	1	0	3	0
272	588	1	10000	3	1	0	3	0
269	589	1	10000	3	1	0	3	0
328	590	1	10000	3	1	0	3	0
433	591	1	10000	3	1	0	3	0
457	592	1	10000	3	1	0	3	0
461	593	1	10000	3	1	0	3	0
486	594	1	10000	3	1	0	3	0
505	595	1	10000	3	1	0	3	0
519	596	1	10000	3	1	0	3	0
513	597	1	10000	3	1	0	3	0
503	598	1	10000	3	1	0	3	0
552	599	1	10000	3	1	0	3	0
566	600	1	10000	3	1	0	3	0
586	601	1	10000	3	1	0	3	0
614	602	1	10000	3	1	0	3	0
637	603	1	10000	3	1	0	3	0
623	604	1	10000	3	1	0	3	0
618	605	1	10000	3	1	0	3	0
624	606	1	10000	3	1	0	3	0
609	607	1	10000	3	1	0	3	0
606	608	1	10000	3	1	0	3	0
581	609	1	10000	3	1	0	3	0
560	610	1	10000	3	1	0	3	0
541	611	1	10000	3	1	0	3	0
525	612	1	10000	3	1	0	3	0
504	613	1	10000	3	1	0	3	0
488	614	1	10000	3	1	0	3	0
478	615	1	10000	3	1	0	3	0
467	616	1	10000	3	1	0	3	0
451	617	1	10000	3	1	0	3	0
447	618	1	10000	3	1	0	3	0
436	619	1	10000	3	1	0	3	0
416	620	1	10000	3	1	0	3	0
405	621	1	10000	3	1	0	3	0
405	622	1	10000	3	1	0	3	0
398	623	1	10000	3	1	0	3	0
384	624	1	10000	3	1	0	3	0
370	625	1	10000	3	1	0	3	0
354	626	1	10000	3	1	0	3	0
340	627	1	10000	3	1	0	3	0
325	628	1	10000	3	1	0	3	0
312	629	1	10000	3	1	0	3	0
302	630	1	10000	3	1	0	3	0
293	631	1	10000	3	1	0	3	0
283	632	1	10000	3	1	0	3	0
276	633	1	10000	3	1	0	3	0
268	634	1	10000	3	1	0	3	0
257	635	1	10000	3	1	0	3	0
245	636	1	10000	3	1	0	3	0
234	637	1	10000	3	1	0	3	0
223	638	1	10000	3	1	0	3	0
214	639	1	10000	3	1	0	3	0
205	640	1	10000	3	1	0	3	0
197	641	1	10000	3	1	0	3	0
190	642	1	10000	3	1	0	3	0
181	643	1	10000	3	1	0	3	0
174	644	1	10000	3	1	0	3	0
167	645	1	10000	3	1	0	3	0
161	646	1	10000	3	1	0	3	0
156	647	1	10000	3	1	0	3	0
153	648	1	10000	3	1	0	3	0
153	649	1	10000	3	1	0	3	0
156	650	1	10000	3	1	0	3	0
161	651	1	10000	3	1	0	3	0
166	652	1	10000	3	1	0	3	0
173	653	1	10000	3	1	0	3	0
178	654	1	10000	3	1	0	3	0
182	655	1	10000	3	1	0	3	0
189	656	1	10000	3	1	0	3	0
193	657	1	10000	3	1	0	3	0
198	658	1	10000	3	1	0	3	0
201	659	1	10000	3	1	0	3	0
204	660	1	10000	3	1	0	3	0
206	661	1	10000	3	1	0	3	0
205	662	1	10000	3	1	0	3	0
203	663	1	10000	3	1	0	3	0
202	664	1	10000	3	1	0	3	0
202	665	1	10000	3	1	0	3	0
200	666	1	10000	3	1	0	3	0
198	667	1	10000	3	1	0	3	0
194	668	1	10000	3	1	0	3	0
192	669	1	10000	3	1	0	3	0
188	670	1	10000	3	1	0	3	0
184	671	1	10000	3	1	0	3	0
182	672	1	10000	3	1	0	3	0
182	673	1	10000	3	1	0	3	0
179	674	1	10000	3	1	0	3	0
172	675	1	10000	3	1	0	3	0
165	676	1	10000	3	1	0	3	0
158	677	1	10000	3	1	0	3	0
154	678	1	10000	3	1	0	3	0
153	679	1	10000	3	1	0	3	0
151	680	1	10000	3	1	0	3	0
149	681	1	10000	3	1	0	3	0
146	682	1	10000	3	1	0	3	0
143	683	1	10000	3	1	0	3	0
138	684	1	10000	3	1	0	3	0
137	685	1	10000	3	1	0	3	0
146	686	1	10000	3	1	0	3	0
149	687	1	10000	3	1	0	3	0
144	688	1	10000	3	1	0	3	0
140	689	1	10000	3	1	0	3	0
145	690	1	10000	3	1	0	3	0
160	691	1	10000	3	1	0	3	0
174	692	1	10000	3	1	0	3	0
172	693	1	10000	3	1	0	3	0
173	694	1	10000	3	1	0	3	0
172	695	1	10000	3	1	0	3	0
170	696	1	10000	3	1	0	3	0
166	697	1	10000	3	1	0	3	0
165	698	1	10000	3	1	0	3	0
163	699	1	10000	3	1	0	3	0
156	700	1	10000	3	1	0	3	0
152	701	1	10000	3	1	0	3	0
147	702	1	10000	3	1	0	3	0
140	703	1	10000	3	1	0	3	0
136	704	1	10000	3	1	0	3	0
136	705	1	10000	3	1	0	3	0
132	706	1	10000	3	1	0	3	0
130	707	1	10000	3	1	0	3	0
129	708	1	10000	3	1	0	3	0
124	709	1	10000	3	1	0	3	0
121	710	1	10000	3	1	0	3	0
117	711	1	10000	3	1	0	3	0
115	712	1	10000	3	1	0	3	0
115	713	1	10000	3	1	0	3	0
114	714	1	10000	3	1	0	3	0
115	715	1	10000	3	1	0	3	0
119	716	1	10000	3	1	0	3	0
123	717	1	10000	3	1	0	3	0
126	718	1	10000	3	1	0	3	0
128	719	1	10000	3	1	0	3	0
127	720	1	10000	3	1	0	3	0
122	721	1	10000	3	1	0	3	0
121	722	1	10000	3	1	0	3	0
121	723	1	10000	3	1	0	3	0
121	724	1	10000	3	1	0	3	0
118	725	1	10000	3	1	0	3	0
114	726	1	10000	3	1	0	3	0
110	727	1	10000	3	1	0	3	0
106	728	1	10000	3	1	0	3	0
106	729	1	10000	3	1	0	3	0
108	730	1	10000	3	1	0	3	0
106	731	1	10000	3	1	0	3	0
107	732	1	10000	3	1	0	3	0
108	733	1	10000	3	1	0	3	0
107	734	1	10000	3	1	0	3	0
103	735	1	10000	3	1	0	3	0
101	736	1	10000	3	1	0	3	0
97	737	1	10000	3	1	0	3	0
95	738	1	10000	3	1	0	3	0
98	739	1	10000	3	1	0	3	0
102	740	1	10000	3	1	0	3	0
106	741	1	10000	3	1	0	3	0
105	742	1	10000	3	1	0	3	0
100	743	1	10000	3	1	0	3	0
95	744	1	10000	3	1	0	3	0
91	745	1	10000	3	1	0	3	0
90	746	1	10000	3	1	0	3	0
90	747	1	10000	3	1	0	3	0
86	748	1	10000	3	1	0	3	0
83	749	1	10000	3	1	0	3	0
80	750	1	10000	3	1	0	3	0
77	751	1	10000	3	1	0	3	0
75	752	1	10000	3	1	0	3	0
75	753	1	10000	3	1	0	3	0
78	754	1	10000	3	1	0	3	0
81	755	1	10000	3	1	0	3	0
85	756	1	10000	3	1	0	3	0
84	757	1	10000	3	1	0	3	0
83	758	1	10000	3	1	0	3	0
82	759	1	10000	3	1	0	3	0
79	760	1	10000	3	1	0	3	0
76	761	1	10000	3	1	0	3	0
76	762	1	10000	3	1	0	3	0
78	763	1	10000	3	1	0	3	0
80	764	1	10000	3	1	0	3	0
80	765	1	10000	3	1	0	3	0
92	766	1	10000	3	1	0	3	0
104	767	1	10000	3	1	0	3	0
107	768	1	10000	3	1	0	3	0
104	769	1	10000	3	1	0	3	0
100	770	1	10000	3	1	0	3	0
96	771	1	10000	3	1	0	3	0
93	772	1	10000	3	1	0	3	0
98	773	1	10000	3	1	0	3	0
102	774	1	10000	3	1	0	3	0
101	775	1	10000	3	1	0	3	0
100	776	1	10000	3	1	0	3	0
102	777	1	10000	3	1	0	3	0
103	778	1	10000	3	1	0	3	0
106	779	1	10000	3	1	0	3	0
108	780	1	10000	3	1	0	3	0
108	781	1	10000	3	1	0	3	0
105	782	1	10000	3	1	0	3	0
101	783	1	10000	3	1	0	3	0
99	784	1	10000	3	1	0	3	0
95	785	1	10000	3	1	0	3	0
97	786	1	10000	3	1	0	3	0
104	787	1	10000	3	1	0	3	0
105	788	1	10000	3	1	0	3	0
100	789	1	10000	3	1	0	3	0
97	790	1	10000	3	1	0	3	0
94	791	1	10000	3	1	0	3	0
91	792	1	10000	3	1	0	3	0
89	793	1	10000	3	1	0	3	0
88	794	1	10000	3	1	0	3	0
85	795	1	10000	3	1	0	3	0
84	796	1	10000	3	1	0	3	0
84	797	1	10000	3	1	0	3	0
81	798	1	10000	3	1	0	3	0
82	799	1	10000	3	1	0	3	0
82	800	1	10000	3	1	0	3	0
82	801	1	10000	3	1	0	3	0
82	802	1	10000	3	1	0	3	0
83	803	1	10000	3	1	0	3	0
80	804	1	10000	3	1	0	3	0
81	805	1	10000	3	1	0	3	0
90	806	1	10000	3	1	0	3	0
97	807	1	10000	3	1	0	3	0
95	808	1	10000	3	1	0	3	0
92	809	1	10000	3	1	0	3	0
92	810	1	10000	3	1	0	3	0
97	811	1	10000	3	1	0	3	0
104	812	1	10000	3	1	0	3	0
109	813	1	10000	3	1	0	3	0
118	814	1	10000	3	1	0	3	0
118	815	1	10000	3	1	0	3	0
116	816	1	10000	3	1	0	3	0
118	817	1	10000	3	1	0	3	0
118	818	1	10000	3	1	0	3	0
115	819	1	10000	3	1	0	3	0
114	820	1	10000	3	1	0	3	0
112	821	1	10000	3	1	0	3	0
108	822	1	10000	3	1	0	3	0
104	823	1	10000	3	1	0	3	0
98	824	1	10000	3	1	0	3	0
96	825	1	10000	3	1	0	3	0
93	826	1	10000	3	1	0	3	0
91	827	1	10000	3	1	0	3	0
87	828	1	10000	3	1	0	3	0
84	829	1	10000	3	1	0	3	0
83	830	1	10000	3	1	0	3	0
85	831	1	10000	3	1	0	3	0
86	832	1	10000	3	1	0	3	0
85	833	1	10000	3	1	0	3	0
86	834	1	10000	3	1	0	3	0
84	835	1	10000	3	1	0	3	0
85	836	1	10000	3	1	0	3	0
94	837	1	10000	3	1	0	3	0
107	838	1	10000	3	1	0	3	0
112	839	1	10000	3	1	0	3	0
110	840	1	10000	3	1	0	3	0
114	841	1	10000	3	1	0	3	0
121	842	1	10000	3	1	0	3	0
124	843	1	10000	3	1	0	3	0
125	844	1	10000	3	1	0	3	0
132	845	1	10000	3	1	0	3	0
139	846	1	10000	3	1	0	3	0
138	847	1	10000	3	1	0	3	0
136	848	1	10000	3	1	0	3	0
142	849	1	10000	3	1	0	3	0
149	850	1	10000	3	1	0	3	0
152	851	1	10000	3	1	0	3	0
147	852	1	10000	3	1	0	3	0
144	853	1	10000	3	1	0	3	0
141	854	1	10000	3	1	0	3	0
138	855	1	10000	3	1	0	3	0
133	856	1	10000	3	1	0	3	0
130	857	1	10000	3	1	0	3	0
128	858	1	10000	3	1	0	3	0
126	859	1	10000	3	1	0	3	0
126	860	1	10000	3	1	0	3	0
129	861	1	10000	3	1	0	3	0
137	862	1	10000	3	1	0	3	0
138	863	1	10000	3	1	0	3	0
132	864	1	10000	3	1	0	3	0
136	865	1	10000	3	1	0	3	0
147	866	1	10000	3	1	0	3	0
157	867	1	10000	3	1	0	3	0
159	868	1	10000	3	1	0	3	0
160	869	1	10000	3	1	0	3	0
157	870	1	10000	3	1	0	3	0
151	871	1	10000	3	1	0	3	0
149	872	1	10000	3	1	0	3	0
144	873	1	10000	3	1	0	3	0
147	874	1	10000	3	1	0	3	0
147	875	1	10000	3	1	0	3	0
141	876	1	10000	3	1	0	3	0
139	877	1	10000	3	1	0	3	0
136	878	1	10000	3	1	0	3	0
133	879	1	10000	3	1	0	3	0
131	880	1	10000	3	1	0	3	0
126	881	1	10000	3	1	0	3	0
124	882	1	10000	3	1	0	3	0
128	883	1	10000	3	1	0	3	0
135	884	1	10000	3	1	0	3	0
139	885	1	10000	3	1	0	3	0
137	886	1	10000	3	1	0	3	0
132	887	1	10000	3	1	0	3	0
132	888	1	10000	3	1	0	3	0
128	889	1	10000	3	1	0	3	0
126	890	1	10000	3	1	0	3	0
125	891	1	10000	3	1	0	3	0
128	892	1	10000	3	1	0	3	0
128	893	1	10000	3	1	0	3	0
128	894	1	10000	3	1	0	3	0
125	895	1	10000	3	1	0	3	0
119	896	1	10000	3	1	0	3	0
119	897	1	10000	3	1	0	3	0
122	898	1	10000	3	1	0	3	0
122	899	1	10000	3	1	0	3	0
117	900	1	10000	3	1	0	3	0
119	901	1	10000	3	1	0	3	0
123	902	1	10000	3	1	0	3	0
120	903	1	10000	3	1	0	3	0
119	904	1	10000	3	1	0	3	0
122	905	1	10000	3	1	0	3	0
122	906	1	10000	3	1	0	3	0
121	907	1	10000	3	1	0	3	0
117	908	1	10000	3	1	0	3	0
118	909	1	10000	3	1	0	3	0
128	910	1	10000	3	1	0	3	0
134	911	1	10000	3	1	0	3	0
132	912	1	10000	3	1	0	3	0
134	913	1	10000	3	1	0	3	0
144	914	1	10000	3	1	0	3	0
154	915	1	10000	3	1	0	3	0
153	916	1	10000	3	1	0	3	0
150	917	1	10000	3	1	0	3	0
148	918	1	10000	3	1	0	3	0
144	919	1	10000	3	1	0	3	0
146	920	1	10000	3	1	0	3	0
152	921	1	10000	3	1	0	3	0
164	922	1	10000	3	1	0	3	0
174	923	1	10000	3	1	0	3	0
169	924	1	10000	3	1	0	3	0
163	925	1	10000	3	1	0	3	0
158	926	1	10000	3	1	0	3	0
175	927	1	10000	3	1	0	3	0
190	928	1	10000	3	1	0	3	0
186	929	1	10000	3	1	0	3	0
185	930	1	10000	3	1	0	3	0
190	931	1	10000	3	1	0	3	0
198	932	1	10000	3	1	0	3	0
195	933	1	10000	3	1	0	3	0
188	934	1	10000	3	1	0	3	0
184	935	1	10000	3	1	0	3	0
178	936	1	10000	3	1	0	3	0
173	937	1	10000	3	1	0	3	0
171	938	1	10000	3	1	0	3	0
175	939	1	10000	3	1	0	3	0
177	940	1	10000	3	1	0	3	0
174	941	1	10000	3	1	0	3	0
181	942	1	10000	3	1	0	3	0
176	943	1	10000	3	1	0	3	0
169	944	1	10000	3	1	0	3	0
171	945	1	10000	3	1	0	3	0
177	946	1	10000	3	1	0	3	0
178	947	1	10000	3	1	0	3	0
180	948	1	10000	3	1	0	3	0
176	949	1	10000	3	1	0	3	0
169	950	1	10000	3	1	0	3	0
162	951	1	10000	3	1	0	3	0
154	952	1	10000	3	1	0	3	0
153	953	1	10000	3	1	0	3	0
151	954	1	10000	3	1	0	3	0
150	955	1	10000	3	1	0	3	0
152	956	1	10000	3	1	0	3	0
159	957	1	10000	3	1	0	3	0
163	958	1	10000	3	1	0	3	0
181	959	1	10000	3	1	0	3	0
186	960	1	10000	3	1	0	3	0
184	961	1	10000	3	1	0	3	0
179	962	1	10000	3	1	0	3	0
180	963	1	10000	3	1	0	3	0
179	964	1	10000	3	1	0	3	0
174	965	1	10000	3	1	0	3	0
168	966	1	10000	3	1	0	3	0
163	967	1	10000	3	1	0	3	0
166	968	1	10000	3	1	0	3	0
171	969	1	10000	3	1	0	3	0
167	970	1	10000	3	1	0	3	0
163	971	1	10000	3	1	0	3	0
159	972	1	10000	3	1	0	3	0
178	973	1	10000	3	1	0	3	0
193	974	1	10000	3	1	0	3	0
204	975	1	10000	3	1	0	3	0
203	976	1	10000	3	1	0	3	0
204	977	1	10000	3	1	0	3	0
222	978	1	10000	3	1	0	3	0
234	979	1	10000	3	1	0	3	0
234	980	1	10000	3	1	0	3	0
226	981	1	10000	3	1	0	3	0
223	982	1	10000	3	1	0	3	0
222	983	1	10000	3	1	0	3	0
223	984	1	10000	3	1	0	3	0
218	985	1	10000	3	1	0	3	0
217	986	1	10000	3	1	0	3	0
210	987	1	10000	3	1	0	3	0
204	988	1	10000	3	1	0	3	0
197	989	1	10000	3	1	0	3	0
193	990	1	10000	3	1	0	3	0
186	991	1	10000	3	1	0	3	0
179	992	1	10000	3	1	0	3	0
179	993	1	10000	3	1	0	3	0
181	994	1	10000	3	1	0	3	0
176	995	1	10000	3	1	0	3	0
172	996	1	10000	3	1	0	3	0
178	997	1	10000	3	1	0	3	0
192	998	1	10000	3	1	0	3	0
195	999	1	10000	3	1	0	3	0
188	1000	1	10000	3	1	0	3	0
186	1001	1	10000	3	1	0	3	0
16	1	10	10000	4	1	0	4	0
17	2	10	10000	4	1	0	4	0
17	3	10	10000	4	1	0	4	0
16	4	10	10000	4	1	0	4	0
16	5	10	10000	4	1	0	4	0
16	6	10	10000	4	1	0	4	0
16	7	10	10000	4	1	0	4	0
16	8	10	10000	4	1	0	4	0
17	9	10	10000	4	1	0	4	0
17	10	10	10000	4	1	0	4	0
16	11	10	10000	4	1	0	4	0
14	12	10	10000	4	1	0	4	0
14	13	10	10000	4	1	0	4	0
15	14	10	10000	4	1	0	4	0
16	15	10	10000	4	1	0	4	0
15	16	10	10000	4	1	0	4	0
15	17	10	10000	4	1	0	4	0
16	18	10	10000	4	1	0	4	0
15	19	10	10000	4	1	0	4	0
16	20	10	10000	4	1	0	4	0
16	21	10	10000	4	1	0	4	0
17	22	10	10000	4	1	0	4	0
17	23	10	10000	4	1	0	4	0
17	24	10	10000	4	1	0	4	0
16	25	10	10000	4	1	0	4	0
18	26	10	10000	4	1	0	4	0
18	27	10	10000	4	1	0	4	0
19	28	10	10000	4	1	0	4	0
18	29	10	10000	4	1	0	4	0
18	30	10	10000	4	1	0	4	0
20	31	10	10000	4	1	0	4	0
20	32	10	10000	4	1	0	4	0
20	33	10	10000	4	1	0	4	0
19	34	10	10000	4	1	0	4	0
19	35	10	10000	4	1	0	4	0
19	36	10	10000	4	1	0	4	0
19	37	10	10000	4	1	0	4	0
19	38	10	10000	4	1	0	4	0
18	39	10	10000	4	1	0	4	0
18	40	10	10000	4	1	0	4	0
18	41	10	10000	4	1	0	4	0
21	42	10	10000	4	1	0	4	0
20	43	10	10000	4	1	0	4	0
20	44	10	10000	4	1	0	4	0
19	45	10	10000	4	1	0	4	0
18	46	10	10000	4	1	0	4	0
17	47	10	10000	4	1	0	4	0
18	48	10	10000	4	1	0	4	0
20	49	10	10000	4	1	0	4	0
22	50	10	10000	4	1	0	4	0
24	51	10	10000	4	1	0	4	0
25	52	10	10000	4	1	0	4	0
28	53	10	10000	4	1	0	4	0
31	54	10	10000	4	1	0	4	0
33	55	10	10000	4	1	0	4	0
33	56	10	10000	4	1	0	4	0
32	57	10	10000	4	1	0	4	0
32	58	10	10000	4	1	0	4	0
32	59	10	10000	4	1	0	4	0
33	60	10	10000	4	1	0	4	0
33	61	10	10000	4	1	0	4	0
34	62	10	10000	4	1	0	4	0
33	63	10	10000	4	1	0	4	0
32	64	10	10000	4	1	0	4	0
31	65	10	10000	4	1	0	4	0
32	66	10	10000	4	1	0	4	0
33	67	10	10000	4	1	0	4	0
35	68	10	10000	4	1	0	4	0
38	69	10	10000	4	1	0	4	0
42	70	10	10000	4	1	0	4	0
48	71	10	10000	4	1	0	4	0
53	72	10	10000	4	1	0	4	0
57	73	10	10000	4	1	0	4	0
61	74	10	10000	4	1	0	4	0
65	75	10	10000	4	1	0	4	0
69	76	10	10000	4	1	0	4	0
73	77	10	10000	4	1	0	4	0
78	78	10	10000	4	1	0	4	0
81	79	10	10000	4	1	0	4	0
85	80	10	10000	4	1	0	4	0
88	81	10	10000	4	1	0	4	0
92	82	10	10000	4	1	0	4	0
94	83	10	10000	4	1	0	4	0
95	84	10	10000	4	1	0	4	0
94	85	10	10000	4	1	0	4	0
95	86	10	10000	4	1	0	4	0
92	87	10	10000	4	1	0	4	0
90	88	10	10000	4	1	0	4	0
87	89	10	10000	4	1	0	4	0
83	90	10	10000	4	1	0	4	0
80	91	10	10000	4	1	0	4	0
76	92	10	10000	4	1	0	4	0
73	93	10	10000	4	1	0	4	0
70	94	10	10000	4	1	0	4	0
68	95	10	10000	4	1	0	4	0
67	96	10	10000	4	1	0	4	0
67	97	10	10000	4	1	0	4	0
68	98	10	10000	4	1	0	4	0
68	99	10	10000	4	1	0	4	0
67	100	10	10000	4	1	0	4	0
67	101	10	10000	4	1	0	4	0
70	102	10	10000	4	1	0	4	0
71	103	10	10000	4	1	0	4	0
73	104	10	10000	4	1	0	4	0
75	105	10	10000	4	1	0	4	0
78	106	10	10000	4	1	0	4	0
80	107	10	10000	4	1	0	4	0
84	108	10	10000	4	1	0	4	0
88	109	10	10000	4	1	0	4	0
92	110	10	10000	4	1	0	4	0
96	111	10	10000	4	1	0	4	0
99	112	10	10000	4	1	0	4	0
101	113	10	10000	4	1	0	4	0
103	114	10	10000	4	1	0	4	0
105	115	10	10000	4	1	0	4	0
107	116	10	10000	4	1	0	4	0
110	117	10	10000	4	1	0	4	0
112	118	10	10000	4	1	0	4	0
113	119	10	10000	4	1	0	4	0
112	120	10	10000	4	1	0	4	0
111	121	10	10000	4	1	0	4	0
113	122	10	10000	4	1	0	4	0
113	123	10	10000	4	1	0	4	0
113	124	10	10000	4	1	0	4	0
113	125	10	10000	4	1	0	4	0
111	126	10	10000	4	1	0	4	0
108	127	10	10000	4	1	0	4	0
105	128	10	10000	4	1	0	4	0
104	129	10	10000	4	1	0	4	0
102	130	10	10000	4	1	0	4	0
101	131	10	10000	4	1	0	4	0
98	132	10	10000	4	1	0	4	0
99	133	10	10000	4	1	0	4	0
99	134	10	10000	4	1	0	4	0
99	135	10	10000	4	1	0	4	0
98	136	10	10000	4	1	0	4	0
97	137	10	10000	4	1	0	4	0
96	138	10	10000	4	1	0	4	0
93	139	10	10000	4	1	0	4	0
92	140	10	10000	4	1	0	4	0
90	141	10	10000	4	1	0	4	0
89	142	10	10000	4	1	0	4	0
87	143	10	10000	4	1	0	4	0
84	144	10	10000	4	1	0	4	0
80	145	10	10000	4	1	0	4	0
78	146	10	10000	4	1	0	4	0
74	147	10	10000	4	1	0	4	0
70	148	10	10000	4	1	0	4	0
68	149	10	10000	4	1	0	4	0
67	150	10	10000	4	1	0	4	0
65	151	10	10000	4	1	0	4	0
61	152	10	10000	4	1	0	4	0
59	153	10	10000	4	1	0	4	0
58	154	10	10000	4	1	0	4	0
56	155	10	10000	4	1	0	4	0
54	156	10	10000	4	1	0	4	0
52	157	10	10000	4	1	0	4	0
50	158	10	10000	4	1	0	4	0
48	159	10	10000	4	1	0	4	0
46	160	10	10000	4	1	0	4	0
43	161	10	10000	4	1	0	4	0
44	162	10	10000	4	1	0	4	0
44	163	10	10000	4	1	0	4	0
42	164	10	10000	4	1	0	4	0
40	165	10	10000	4	1	0	4	0
38	166	10	10000	4	1	0	4	0
37	167	10	10000	4	1	0	4	0
36	168	10	10000	4	1	0	4	0
35	169	10	10000	4	1	0	4	0
34	170	10	10000	4	1	0	4	0
33	171	10	10000	4	1	0	4	0
31	172	10	10000	4	1	0	4	0
29	173	10	10000	4	1	0	4	0
29	174	10	10000	4	1	0	4	0
29	175	10	10000	4	1	0	4	0
30	176	10	10000	4	1	0	4	0
30	177	10	10000	4	1	0	4	0
29	178	10	10000	4	1	0	4	0
28	179	10	10000	4	1	0	4	0
28	180	10	10000	4	1	0	4	0
26	181	10	10000	4	1	0	4	0
27	182	10	10000	4	1	0	4	0
29	183	10	10000	4	1	0	4	0
26	184	10	10000	4	1	0	4	0
25	185	10	10000	4	1	0	4	0
25	186	10	10000	4	1	0	4	0
24	187	10	10000	4	1	0	4	0
23	188	10	10000	4	1	0	4	0
24	189	10	10000	4	1	0	4	0
23	190	10	10000	4	1	0	4	0
23	191	10	10000	4	1	0	4	0
22	192	10	10000	4	1	0	4	0
21	193	10	10000	4	1	0	4	0
22	194	10	10000	4	1	0	4	0
21	195	10	10000	4	1	0	4	0
21	196	10	10000	4	1	0	4	0
21	197	10	10000	4	1	0	4	0
20	198	10	10000	4	1	0	4	0
19	199	10	10000	4	1	0	4	0
20	200	10	10000	4	1	0	4	0
18	201	10	10000	4	1	0	4	0
19	202	10	10000	4	1	0	4	0
19	203	10	10000	4	1	0	4	0
19	204	10	10000	4	1	0	4	0
19	205	10	10000	4	1	0	4	0
19	206	10	10000	4	1	0	4	0
18	207	10	10000	4	1	0	4	0
17	208	10	10000	4	1	0	4	0
18	209	10	10000	4	1	0	4	0
18	210	10	10000	4	1	0	4	0
17	211	10	10000	4	1	0	4	0
16	212	10	10000	4	1	0	4	0
15	213	10	10000	4	1	0	4	0
16	214	10	10000	4	1	0	4	0
16	215	10	10000	4	1	0	4	0
16	216	10	10000	4	1	0	4	0
17	217	10	10000	4	1	0	4	0
16	218	10	10000	4	1	0	4	0
16	219	10	10000	4	1	0	4	0
16	220	10	10000	4	1	0	4	0
16	221	10	10000	4	1	0	4	0
17	222	10	10000	4	1	0	4	0
17	223	10	10000	4	1	0	4	0
16	224	10	10000	4	1	0	4	0
16	225	10	10000	4	1	0	4	0
17	226	10	10000	4	1	0	4	0
17	227	10	10000	4	1	0	4	0
16	228	10	10000	4	1	0	4	0
17	229	10	10000	4	1	0	4	0
17	230	10	10000	4	1	0	4	0
16	231	10	10000	4	1	0	4	0
14	232	10	10000	4	1	0	4	0
14	233	10	10000	4	1	0	4	0
14	234	10	10000	4	1	0	4	0
14	235	10	10000	4	1	0	4	0
14	236	10	10000	4	1	0	4	0
15	237	10	10000	4	1	0	4	0
13	238	10	10000	4	1	0	4	0
12	239	10	10000	4	1	0	4	0
13	240	10	10000	4	1	0	4	0
12	241	10	10000	4	1	0	4	0
14	242	10	10000	4	1	0	4	0
16	243	10	10000	4	1	0	4	0
16	244	10	10000	4	1	0	4	0
16	245	10	10000	4	1	0	4	0
16	246	10	10000	4	1	0	4	0
16	247	10	10000	4	1	0	4	0
17	248	10	10000	4	1	0	4	0
16	249	10	10000	4	1	0	4	0
16	250	10	10000	4	1	0	4	0
16	251	10	10000	4	1	0	4	0
14	252	10	10000	4	1	0	4	0
13	253	10	10000	4	1	0	4	0
14	254	10	10000	4	1	0	4	0
13	255	10	10000	4	1	0	4	0
13	256	10	10000	4	1	0	4	0
15	257	10	10000	4	1	0	4	0
14	258	10	10000	4	1	0	4	0
13	259	10	10000	4	1	0	4	0
13	260	10	10000	4	1	0	4	0
12	261	10	10000	4	1	0	4	0
13	262	10	10000	4	1	0	4	0
13	263	10	10000	4	1	0	4	0
13	264	10	10000	4	1	0	4	0
12	265	10	10000	4	1	0	4	0
14	266	10	10000	4	1	0	4	0
15	267	10	10000	4	1	0	4	0
14	268	10	10000	4	1	0	4	0
14	269	10	10000	4	1	0	4	0
15	270	10	10000	4	1	0	4	0
15	271	10	10000	4	1	0	4	0
13	272	10	10000	4	1	0	4	0
12	273	10	10000	4	1	0	4	0
13	274	10	10000	4	1	0	4	0
13	275	10	10000	4	1	0	4	0
12	276	10	10000	4	1	0	4	0
12	277	10	10000	4	1	0	4	0
12	278	10	10000	4	1	0	4	0
13	279	10	10000	4	1	0	4	0
13	280	10	10000	4	1	0	4	0
13	281	10	10000	4	1	0	4	0
14	282	10	10000	4	1	0	4	0
14	283	10	10000	4	1	0	4	0
14	284	10	10000	4	1	0	4	0
14	285	10	10000	4	1	0	4	0
14	286	10	10000	4	1	0	4	0
13	287	10	10000	4	1	0	4	0
14	288	10	10000	4	1	0	4	0
13	289	10	10000	4	1	0	4	0
13	290	10	10000	4	1	0	4	0
14	291	10	10000	4	1	0	4	0
12	292	10	10000	4	1	0	4	0
11	293	10	10000	4	1	0	4	0
13	294	10	10000	4	1	0	4	0
12	295	10	10000	4	1	0	4	0
12	296	10	10000	4	1	0	4	0
13	297	10	10000	4	1	0	4	0
12	298	10	10000	4	1	0	4	0
12	299	10	10000	4	1	0	4	0
12	300	10	10000	4	1	0	4	0
12	301	10	10000	4	1	0	4	0
14	302	10	10000	4	1	0	4	0
16	303	10	10000	4	1	0	4	0
18	304	10	10000	4	1	0	4	0
20	305	10	10000	4	1	0	4	0
21	306	10	10000	4	1	0	4	0
24	307	10	10000	4	1	0	4	0
26	308	10	10000	4	1	0	4	0
27	309	10	10000	4	1	0	4	0
27	310	10	10000	4	1	0	4	0
27	311	10	10000	4	1	0	4	0
25	312	10	10000	4	1	0	4	0
26	313	10	10000	4	1	0	4	0
27	314	10	10000	4	1	0	4	0
28	315	10	10000	4	1	0	4	0
28	316	10	10000	4	1	0	4	0
27	317	10	10000	4	1	0	4	0
26	318	10	10000	4	1	0	4	0
25	319	10	10000	4	1	0	4	0
25	320	10	10000	4	1	0	4	0
25	321	10	10000	4	1	0	4	0
27	322	10	10000	4	1	0	4	0
28	323	10	10000	4	1	0	4	0
27	324	10	10000	4	1	0	4	0
27	325	10	10000	4	1	0	4	0
25	326	10	10000	4	1	0	4	0
25	327	10	10000	4	1	0	4	0
27	328	10	10000	4	1	0	4	0
27	329	10	10000	4	1	0	4	0
30	330	10	10000	4	1	0	4	0
33	331	10	10000	4	1	0	4	0
32	332	10	10000	4	1	0	4	0
32	333	10	10000	4	1	0	4	0
32	334	10	10000	4	1	0	4	0
32	335	10	10000	4	1	0	4	0
32	336	10	10000	4	1	0	4	0
30	337	10	10000	4	1	0	4	0
30	338	10	10000	4	1	0	4	0
29	339	10	10000	4	1	0	4	0
28	340	10	10000	4	1	0	4	0
27	341	10	10000	4	1	0	4	0
27	342	10	10000	4	1	0	4	0
28	343	10	10000	4	1	0	4	0
27	344	10	10000	4	1	0	4	0
27	345	10	10000	4	1	0	4	0
27	346	10	10000	4	1	0	4	0
28	347	10	10000	4	1	0	4	0
29	348	10	10000	4	1	0	4	0
30	349	10	10000	4	1	0	4	0
31	350	10	10000	4	1	0	4	0
33	351	10	10000	4	1	0	4	0
33	352	10	10000	4	1	0	4	0
33	353	10	10000	4	1	0	4	0
34	354	10	10000	4	1	0	4	0
35	355	10	10000	4	1	0	4	0
34	356	10	10000	4	1	0	4	0
35	357	10	10000	4	1	0	4	0
34	358	10	10000	4	1	0	4	0
34	359	10	10000	4	1	0	4	0
35	360	10	10000	4	1	0	4	0
35	361	10	10000	4	1	0	4	0
36	362	10	10000	4	1	0	4	0
38	363	10	10000	4	1	0	4	0
38	364	10	10000	4	1	0	4	0
38	365	10	10000	4	1	0	4	0
38	366	10	10000	4	1	0	4	0
38	367	10	10000	4	1	0	4	0
40	368	10	10000	4	1	0	4	0
39	369	10	10000	4	1	0	4	0
38	370	10	10000	4	1	0	4	0
38	371	10	10000	4	1	0	4	0
36	372	10	10000	4	1	0	4	0
34	373	10	10000	4	1	0	4	0
34	374	10	10000	4	1	0	4	0
33	375	10	10000	4	1	0	4	0
32	376	10	10000	4	1	0	4	0
31	377	10	10000	4	1	0	4	0
31	378	10	10000	4	1	0	4	0
31	379	10	10000	4	1	0	4	0
32	380	10	10000	4	1	0	4	0
33	381	10	10000	4	1	0	4	0
35	382	10	10000	4	1	0	4	0
34	383	10	10000	4	1	0	4	0
34	384	10	10000	4	1	0	4	0
34	385	10	10000	4	1	0	4	0
33	386	10	10000	4	1	0	4	0
32	387	10	10000	4	1	0	4	0
32	388	10	10000	4	1	0	4	0
33	389	10	10000	4	1	0	4	0
33	390	10	10000	4	1	0	4	0
32	391	10	10000	4	1	0	4	0
31	392	10	10000	4	1	0	4	0
30	393	10	10000	4	1	0	4	0
29	394	10	10000	4	1	0	4	0
28	395	10	10000	4	1	0	4	0
28	396	10	10000	4	1	0	4	0
27	397	10	10000	4	1	0	4	0
26	398	10	10000	4	1	0	4	0
25	399	10	10000	4	1	0	4	0
24	400	10	10000	4	1	0	4	0
23	401	10	10000	4	1	0	4	0
25	402	10	10000	4	1	0	4	0
24	403	10	10000	4	1	0	4	0
24	404	10	10000	4	1	0	4	0
23	405	10	10000	4	1	0	4	0
22	406	10	10000	4	1	0	4	0
21	407	10	10000	4	1	0	4	0
20	408	10	10000	4	1	0	4	0
20	409	10	10000	4	1	0	4	0
20	410	10	10000	4	1	0	4	0
20	411	10	10000	4	1	0	4	0
18	412	10	10000	4	1	0	4	0
17	413	10	10000	4	1	0	4	0
17	414	10	10000	4	1	0	4	0
17	415	10	10000	4	1	0	4	0
18	416	10	10000	4	1	0	4	0
18	417	10	10000	4	1	0	4	0
17	418	10	10000	4	1	0	4	0
17	419	10	10000	4	1	0	4	0
15	420	10	10000	4	1	0	4	0
15	421	10	10000	4	1	0	4	0
16	422	10	10000	4	1	0	4	0
17	423	10	10000	4	1	0	4	0
15	424	10	10000	4	1	0	4	0
15	425	10	10000	4	1	0	4	0
14	426	10	10000	4	1	0	4	0
14	427	10	10000	4	1	0	4	0
14	428	10	10000	4	1	0	4	0
14	429	10	10000	4	1	0	4	0
15	430	10	10000	4	1	0	4	0
15	431	10	10000	4	1	0	4	0
14	432	10	10000	4	1	0	4	0
13	433	10	10000	4	1	0	4	0
13	434	10	10000	4	1	0	4	0
13	435	10	10000	4	1	0	4	0
14	436	10	10000	4	1	0	4	0
14	437	10	10000	4	1	0	4	0
13	438	10	10000	4	1	0	4	0
14	439	10	10000	4	1	0	4	0
13	440	10	10000	4	1	0	4	0
12	441	10	10000	4	1	0	4	0
13	442	10	10000	4	1	0	4	0
14	443	10	10000	4	1	0	4	0
13	444	10	10000	4	1	0	4	0
13	445	10	10000	4	1	0	4	0
13	446	10	10000	4	1	0	4	0
12	447	10	10000	4	1	0	4	0
12	448	10	10000	4	1	0	4	0
12	449	10	10000	4	1	0	4	0
12	450	10	10000	4	1	0	4	0
13	451	10	10000	4	1	0	4	0
12	452	10	10000	4	1	0	4	0
10	453	10	10000	4	1	0	4	0
11	454	10	10000	4	1	0	4	0
12	455	10	10000	4	1	0	4	0
13	456	10	10000	4	1	0	4	0
13	457	10	10000	4	1	0	4	0
14	458	10	10000	4	1	0	4	0
16	459	10	10000	4	1	0	4	0
16	460	10	10000	4	1	0	4	0
16	461	10	10000	4	1	0	4	0
17	462	10	10000	4	1	0	4	0
17	463	10	10000	4	1	0	4	0
17	464	10	10000	4	1	0	4	0
16	465	10	10000	4	1	0	4	0
16	466	10	10000	4	1	0	4	0
17	467	10	10000	4	1	0	4	0
18	468	10	10000	4	1	0	4	0
18	469	10	10000	4	1	0	4	0
18	470	10	10000	4	1	0	4	0
19	471	10	10000	4	1	0	4	0
17	472	10	10000	4	1	0	4	0
16	473	10	10000	4	1	0	4	0
17	474	10	10000	4	1	0	4	0
17	475	10	10000	4	1	0	4	0
18	476	10	10000	4	1	0	4	0
18	477	10	10000	4	1	0	4	0
17	478	10	10000	4	1	0	4	0
17	479	10	10000	4	1	0	4	0
16	480	10	10000	4	1	0	4	0
16	481	10	10000	4	1	0	4	0
18	482	10	10000	4	1	0	4	0
19	483	10	10000	4	1	0	4	0
18	484	10	10000	4	1	0	4	0
17	485	10	10000	4	1	0	4	0
17	486	10	10000	4	1	0	4	0
16	487	10	10000	4	1	0	4	0
16	488	10	10000	4	1	0	4	0
16	489	10	10000	4	1	0	4	0
16	490	10	10000	4	1	0	4	0
17	491	10	10000	4	1	0	4	0
16	492	10	10000	4	1	0	4	0
16	493	10	10000	4	1	0	4	0
15	494	10	10000	4	1	0	4	0
15	495	10	10000	4	1	0	4	0
15	496	10	10000	4	1	0	4	0
14	497	10	10000	4	1	0	4	0
14	498	10	10000	4	1	0	4	0
14	499	10	10000	4	1	0	4	0
14	500	10	10000	4	1	0	4	0
15	501	10	10000	4	1	0	4	1
17	502	10	10000	4	1	0	4	1
19	503	10	10000	4	1	0	4	1
18	504	10	10000	4	1	0	4	1
18	505	10	10000	4	1	0	4	1
17	506	10	10000	4	1	0	4	1
17	507	10	10000	4	1	0	4	1
17	508	10	10000	4	1	0	4	1
17	509	10	10000	4	1	0	4	1
17	510	10	10000	4	1	0	4	1
16	511	10	10000	4	1	0	4	1
15	512	10	10000	4	1	0	4	1
15	513	10	10000	4	1	0	4	1
14	514	10	10000	4	1	0	4	1
14	515	10	10000	4	1	0	4	1
14	516	10	10000	4	1	0	4	1
13	517	10	10000	4	1	0	4	1
13	518	10	10000	4	1	0	4	1
13	519	10	10000	4	1	0	4	1
13	520	10	10000	4	1	0	4	1
12	521	10	10000	4	1	0	4	1
13	522	10	10000	4	1	0	4	1
14	523	10	10000	4	1	0	4	1
13	524	10	10000	4	1	0	4	1
13	525	10	10000	4	1	0	4	1
13	526	10	10000	4	1	0	4	1
13	527	10	10000	4	1	0	4	1
12	528	10	10000	4	1	0	4	1
12	529	10	10000	4	1	0	4	1
13	530	10	10000	4	1	0	4	1
13	531	10	10000	4	1	0	4	1
12	532	10	10000	4	1	0	4	1
11	533	10	10000	4	1	0	4	1
11	534	10	10000	4	1	0	4	1
11	535	10	10000	4	1	0	4	1
11	536	10	10000	4	1	0	4	1
11	537	10	10000	4	1	0	4	1
12	538	10	10000	4	1	0	4	1
11	539	10	10000	4	1	0	4	1
12	540	10	10000	4	1	0	4	1
13	541	10	10000	4	1	0	4	1
15	542	10	10000	4	1	0	4	1
17	543	10	10000	4	1	0	4	1
18	544	10	10000	4	1	0	4	1
20	545	10	10000	4	1	0	4	1
22	546	10	10000	4	1	0	4	1
24	547	10	10000	4	1	0	4	1
25	548	10	10000	4	1	0	4	1
25	549	10	10000	4	1	0	4	1
25	550	10	10000	4	1	0	4	1
26	551	10	10000	4	1	0	4	0
25	552	10	10000	4	1	0	4	0
23	553	10	10000	4	1	0	4	0
22	554	10	10000	4	1	0	4	0
22	555	10	10000	4	1	0	4	0
22	556	10	10000	4	1	0	4	0
23	557	10	10000	4	1	0	4	0
22	558	10	10000	4	1	0	4	0
23	559	10	10000	4	1	0	4	0
23	560	10	10000	4	1	0	4	0
23	561	10	10000	4	1	0	4	0
24	562	10	10000	4	1	0	4	0
26	563	10	10000	4	1	0	4	0
27	564	10	10000	4	1	0	4	0
27	565	10	10000	4	1	0	4	0
28	566	10	10000	4	1	0	4	0
28	567	10	10000	4	1	0	4	0
27	568	10	10000	4	1	0	4	0
27	569	10	10000	4	1	0	4	0
28	570	10	10000	4	1	0	4	0
29	571	10	10000	4	1	0	4	0
29	572	10	10000	4	1	0	4	0
28	573	10	10000	4	1	0	4	0
29	574	10	10000	4	1	0	4	0
30	575	10	10000	4	1	0	4	0
30	576	10	10000	4	1	0	4	0
31	577	10	10000	4	1	0	4	0
31	578	10	10000	4	1	0	4	0
31	579	10	10000	4	1	0	4	0
32	580	10	10000	4	1	0	4	0
35	581	10	10000	4	1	0	4	0
60	582	10	10000	4	1	0	4	0
75	583	10	10000	4	1	0	4	0
87	584	10	10000	4	1	0	4	0
117	585	10	10000	4	1	0	4	0
150	586	10	10000	4	1	0	4	0
155	587	10	10000	4	1	0	4	0
169	588	10	10000	4	1	0	4	0
164	589	10	10000	4	1	0	4	0
162	590	10	10000	4	1	0	4	0
190	591	10	10000	4	1	0	4	0
207	592	10	10000	4	1	0	4	0
207	593	10	10000	4	1	0	4	0
210	594	10	10000	4	1	0	4	0
237	595	10	10000	4	1	0	4	0
243	596	10	10000	4	1	0	4	0
255	597	10	10000	4	1	0	4	0
250	598	10	10000	4	1	0	4	0
251	599	10	10000	4	1	0	4	0
261	600	10	10000	4	1	0	4	0
296	601	10	10000	4	1	0	4	0
303	602	10	10000	4	1	0	4	0
331	603	10	10000	4	1	0	4	0
374	604	10	10000	4	1	0	4	0
377	605	10	10000	4	1	0	4	0
366	606	10	10000	4	1	0	4	0
377	607	10	10000	4	1	0	4	0
403	608	10	10000	4	1	0	4	0
407	609	10	10000	4	1	0	4	0
428	610	10	10000	4	1	0	4	0
429	611	10	10000	4	1	0	4	0
441	612	10	10000	4	1	0	4	0
430	613	10	10000	4	1	0	4	0
455	614	10	10000	4	1	0	4	0
522	615	10	10000	4	1	0	4	0
546	616	10	10000	4	1	0	4	0
534	617	10	10000	4	1	0	4	0
552	618	10	10000	4	1	0	4	0
577	619	10	10000	4	1	0	4	0
591	620	10	10000	4	1	0	4	0
589	621	10	10000	4	1	0	4	0
570	622	10	10000	4	1	0	4	0
547	623	10	10000	4	1	0	4	0
528	624	10	10000	4	1	0	4	0
512	625	10	10000	4	1	0	4	0
500	626	10	10000	4	1	0	4	0
489	627	10	10000	4	1	0	4	0
477	628	10	10000	4	1	0	4	0
467	629	10	10000	4	1	0	4	0
458	630	10	10000	4	1	0	4	0
449	631	10	10000	4	1	0	4	0
437	632	10	10000	4	1	0	4	0
425	633	10	10000	4	1	0	4	0
415	634	10	10000	4	1	0	4	0
404	635	10	10000	4	1	0	4	0
394	636	10	10000	4	1	0	4	0
385	637	10	10000	4	1	0	4	0
376	638	10	10000	4	1	0	4	0
366	639	10	10000	4	1	0	4	0
357	640	10	10000	4	1	0	4	0
349	641	10	10000	4	1	0	4	0
342	642	10	10000	4	1	0	4	0
335	643	10	10000	4	1	0	4	0
325	644	10	10000	4	1	0	4	0
312	645	10	10000	4	1	0	4	0
298	646	10	10000	4	1	0	4	0
286	647	10	10000	4	1	0	4	0
273	648	10	10000	4	1	0	4	0
261	649	10	10000	4	1	0	4	0
252	650	10	10000	4	1	0	4	0
244	651	10	10000	4	1	0	4	0
237	652	10	10000	4	1	0	4	0
232	653	10	10000	4	1	0	4	0
229	654	10	10000	4	1	0	4	0
226	655	10	10000	4	1	0	4	0
223	656	10	10000	4	1	0	4	0
219	657	10	10000	4	1	0	4	0
216	658	10	10000	4	1	0	4	0
212	659	10	10000	4	1	0	4	0
210	660	10	10000	4	1	0	4	0
208	661	10	10000	4	1	0	4	0
205	662	10	10000	4	1	0	4	0
204	663	10	10000	4	1	0	4	0
202	664	10	10000	4	1	0	4	0
199	665	10	10000	4	1	0	4	0
196	666	10	10000	4	1	0	4	0
194	667	10	10000	4	1	0	4	0
191	668	10	10000	4	1	0	4	0
189	669	10	10000	4	1	0	4	0
189	670	10	10000	4	1	0	4	0
189	671	10	10000	4	1	0	4	0
189	672	10	10000	4	1	0	4	0
188	673	10	10000	4	1	0	4	0
189	674	10	10000	4	1	0	4	0
187	675	10	10000	4	1	0	4	0
185	676	10	10000	4	1	0	4	0
179	677	10	10000	4	1	0	4	0
174	678	10	10000	4	1	0	4	0
167	679	10	10000	4	1	0	4	0
163	680	10	10000	4	1	0	4	0
161	681	10	10000	4	1	0	4	0
157	682	10	10000	4	1	0	4	0
153	683	10	10000	4	1	0	4	0
146	684	10	10000	4	1	0	4	0
140	685	10	10000	4	1	0	4	0
134	686	10	10000	4	1	0	4	0
128	687	10	10000	4	1	0	4	0
125	688	10	10000	4	1	0	4	0
124	689	10	10000	4	1	0	4	0
123	690	10	10000	4	1	0	4	0
120	691	10	10000	4	1	0	4	0
116	692	10	10000	4	1	0	4	0
111	693	10	10000	4	1	0	4	0
107	694	10	10000	4	1	0	4	0
104	695	10	10000	4	1	0	4	0
100	696	10	10000	4	1	0	4	0
97	697	10	10000	4	1	0	4	0
95	698	10	10000	4	1	0	4	0
93	699	10	10000	4	1	0	4	0
91	700	10	10000	4	1	0	4	0
88	701	10	10000	4	1	0	4	0
87	702	10	10000	4	1	0	4	0
87	703	10	10000	4	1	0	4	0
85	704	10	10000	4	1	0	4	0
83	705	10	10000	4	1	0	4	0
85	706	10	10000	4	1	0	4	0
90	707	10	10000	4	1	0	4	0
95	708	10	10000	4	1	0	4	0
94	709	10	10000	4	1	0	4	0
92	710	10	10000	4	1	0	4	0
96	711	10	10000	4	1	0	4	0
104	712	10	10000	4	1	0	4	0
110	713	10	10000	4	1	0	4	0
109	714	10	10000	4	1	0	4	0
114	715	10	10000	4	1	0	4	0
117	716	10	10000	4	1	0	4	0
118	717	10	10000	4	1	0	4	0
115	718	10	10000	4	1	0	4	0
112	719	10	10000	4	1	0	4	0
109	720	10	10000	4	1	0	4	0
105	721	10	10000	4	1	0	4	0
102	722	10	10000	4	1	0	4	0
100	723	10	10000	4	1	0	4	0
100	724	10	10000	4	1	0	4	0
103	725	10	10000	4	1	0	4	0
104	726	10	10000	4	1	0	4	0
104	727	10	10000	4	1	0	4	0
101	728	10	10000	4	1	0	4	0
96	729	10	10000	4	1	0	4	0
95	730	10	10000	4	1	0	4	0
93	731	10	10000	4	1	0	4	0
89	732	10	10000	4	1	0	4	0
84	733	10	10000	4	1	0	4	0
84	734	10	10000	4	1	0	4	0
84	735	10	10000	4	1	0	4	0
83	736	10	10000	4	1	0	4	0
84	737	10	10000	4	1	0	4	0
85	738	10	10000	4	1	0	4	0
84	739	10	10000	4	1	0	4	0
81	740	10	10000	4	1	0	4	0
83	741	10	10000	4	1	0	4	0
87	742	10	10000	4	1	0	4	0
92	743	10	10000	4	1	0	4	0
95	744	10	10000	4	1	0	4	0
100	745	10	10000	4	1	0	4	0
103	746	10	10000	4	1	0	4	0
102	747	10	10000	4	1	0	4	0
98	748	10	10000	4	1	0	4	0
98	749	10	10000	4	1	0	4	0
100	750	10	10000	4	1	0	4	0
102	751	10	10000	4	1	0	4	0
100	752	10	10000	4	1	0	4	0
94	753	10	10000	4	1	0	4	0
91	754	10	10000	4	1	0	4	0
89	755	10	10000	4	1	0	4	0
86	756	10	10000	4	1	0	4	0
82	757	10	10000	4	1	0	4	0
80	758	10	10000	4	1	0	4	0
77	759	10	10000	4	1	0	4	0
75	760	10	10000	4	1	0	4	0
72	761	10	10000	4	1	0	4	0
69	762	10	10000	4	1	0	4	0
69	763	10	10000	4	1	0	4	0
67	764	10	10000	4	1	0	4	0
65	765	10	10000	4	1	0	4	0
64	766	10	10000	4	1	0	4	0
64	767	10	10000	4	1	0	4	0
64	768	10	10000	4	1	0	4	0
66	769	10	10000	4	1	0	4	0
68	770	10	10000	4	1	0	4	0
67	771	10	10000	4	1	0	4	0
67	772	10	10000	4	1	0	4	0
64	773	10	10000	4	1	0	4	0
62	774	10	10000	4	1	0	4	0
62	775	10	10000	4	1	0	4	0
63	776	10	10000	4	1	0	4	0
62	777	10	10000	4	1	0	4	0
72	778	10	10000	4	1	0	4	0
94	779	10	10000	4	1	0	4	0
108	780	10	10000	4	1	0	4	0
113	781	10	10000	4	1	0	4	0
113	782	10	10000	4	1	0	4	0
122	783	10	10000	4	1	0	4	0
132	784	10	10000	4	1	0	4	0
140	785	10	10000	4	1	0	4	0
142	786	10	10000	4	1	0	4	0
140	787	10	10000	4	1	0	4	0
137	788	10	10000	4	1	0	4	0
131	789	10	10000	4	1	0	4	0
126	790	10	10000	4	1	0	4	0
121	791	10	10000	4	1	0	4	0
116	792	10	10000	4	1	0	4	0
115	793	10	10000	4	1	0	4	0
116	794	10	10000	4	1	0	4	0
113	795	10	10000	4	1	0	4	0
115	796	10	10000	4	1	0	4	0
118	797	10	10000	4	1	0	4	0
121	798	10	10000	4	1	0	4	0
119	799	10	10000	4	1	0	4	0
114	800	10	10000	4	1	0	4	0
112	801	10	10000	4	1	0	4	0
111	802	10	10000	4	1	0	4	0
113	803	10	10000	4	1	0	4	0
113	804	10	10000	4	1	0	4	0
112	805	10	10000	4	1	0	4	0
108	806	10	10000	4	1	0	4	0
104	807	10	10000	4	1	0	4	0
107	808	10	10000	4	1	0	4	0
115	809	10	10000	4	1	0	4	0
120	810	10	10000	4	1	0	4	0
123	811	10	10000	4	1	0	4	0
128	812	10	10000	4	1	0	4	0
130	813	10	10000	4	1	0	4	0
132	814	10	10000	4	1	0	4	0
128	815	10	10000	4	1	0	4	0
136	816	10	10000	4	1	0	4	0
153	817	10	10000	4	1	0	4	0
172	818	10	10000	4	1	0	4	0
186	819	10	10000	4	1	0	4	0
193	820	10	10000	4	1	0	4	0
191	821	10	10000	4	1	0	4	0
183	822	10	10000	4	1	0	4	0
180	823	10	10000	4	1	0	4	0
175	824	10	10000	4	1	0	4	0
168	825	10	10000	4	1	0	4	0
162	826	10	10000	4	1	0	4	0
155	827	10	10000	4	1	0	4	0
149	828	10	10000	4	1	0	4	0
143	829	10	10000	4	1	0	4	0
140	830	10	10000	4	1	0	4	0
139	831	10	10000	4	1	0	4	0
139	832	10	10000	4	1	0	4	0
136	833	10	10000	4	1	0	4	0
135	834	10	10000	4	1	0	4	0
130	835	10	10000	4	1	0	4	0
124	836	10	10000	4	1	0	4	0
119	837	10	10000	4	1	0	4	0
115	838	10	10000	4	1	0	4	0
120	839	10	10000	4	1	0	4	0
128	840	10	10000	4	1	0	4	0
139	841	10	10000	4	1	0	4	0
150	842	10	10000	4	1	0	4	0
150	843	10	10000	4	1	0	4	0
148	844	10	10000	4	1	0	4	0
151	845	10	10000	4	1	0	4	0
155	846	10	10000	4	1	0	4	0
157	847	10	10000	4	1	0	4	0
157	848	10	10000	4	1	0	4	0
156	849	10	10000	4	1	0	4	0
153	850	10	10000	4	1	0	4	0
150	851	10	10000	4	1	0	4	0
146	852	10	10000	4	1	0	4	0
140	853	10	10000	4	1	0	4	0
138	854	10	10000	4	1	0	4	0
133	855	10	10000	4	1	0	4	0
128	856	10	10000	4	1	0	4	0
124	857	10	10000	4	1	0	4	0
120	858	10	10000	4	1	0	4	0
117	859	10	10000	4	1	0	4	0
114	860	10	10000	4	1	0	4	0
108	861	10	10000	4	1	0	4	0
107	862	10	10000	4	1	0	4	0
108	863	10	10000	4	1	0	4	0
110	864	10	10000	4	1	0	4	0
115	865	10	10000	4	1	0	4	0
116	866	10	10000	4	1	0	4	0
116	867	10	10000	4	1	0	4	0
114	868	10	10000	4	1	0	4	0
109	869	10	10000	4	1	0	4	0
107	870	10	10000	4	1	0	4	0
104	871	10	10000	4	1	0	4	0
100	872	10	10000	4	1	0	4	0
94	873	10	10000	4	1	0	4	0
92	874	10	10000	4	1	0	4	0
90	875	10	10000	4	1	0	4	0
89	876	10	10000	4	1	0	4	0
87	877	10	10000	4	1	0	4	0
86	878	10	10000	4	1	0	4	0
85	879	10	10000	4	1	0	4	0
82	880	10	10000	4	1	0	4	0
79	881	10	10000	4	1	0	4	0
77	882	10	10000	4	1	0	4	0
76	883	10	10000	4	1	0	4	0
72	884	10	10000	4	1	0	4	0
71	885	10	10000	4	1	0	4	0
70	886	10	10000	4	1	0	4	0
69	887	10	10000	4	1	0	4	0
66	888	10	10000	4	1	0	4	0
64	889	10	10000	4	1	0	4	0
62	890	10	10000	4	1	0	4	0
59	891	10	10000	4	1	0	4	0
57	892	10	10000	4	1	0	4	0
55	893	10	10000	4	1	0	4	0
56	894	10	10000	4	1	0	4	0
56	895	10	10000	4	1	0	4	0
56	896	10	10000	4	1	0	4	0
54	897	10	10000	4	1	0	4	0
52	898	10	10000	4	1	0	4	0
51	899	10	10000	4	1	0	4	0
48	900	10	10000	4	1	0	4	0
47	901	10	10000	4	1	0	4	0
46	902	10	10000	4	1	0	4	0
48	903	10	10000	4	1	0	4	0
46	904	10	10000	4	1	0	4	0
44	905	10	10000	4	1	0	4	0
44	906	10	10000	4	1	0	4	0
47	907	10	10000	4	1	0	4	0
49	908	10	10000	4	1	0	4	0
50	909	10	10000	4	1	0	4	0
53	910	10	10000	4	1	0	4	0
53	911	10	10000	4	1	0	4	0
57	912	10	10000	4	1	0	4	0
59	913	10	10000	4	1	0	4	0
59	914	10	10000	4	1	0	4	0
62	915	10	10000	4	1	0	4	0
64	916	10	10000	4	1	0	4	0
63	917	10	10000	4	1	0	4	0
60	918	10	10000	4	1	0	4	0
64	919	10	10000	4	1	0	4	0
72	920	10	10000	4	1	0	4	0
82	921	10	10000	4	1	0	4	0
86	922	10	10000	4	1	0	4	0
90	923	10	10000	4	1	0	4	0
93	924	10	10000	4	1	0	4	0
94	925	10	10000	4	1	0	4	0
92	926	10	10000	4	1	0	4	0
92	927	10	10000	4	1	0	4	0
91	928	10	10000	4	1	0	4	0
90	929	10	10000	4	1	0	4	0
92	930	10	10000	4	1	0	4	0
96	931	10	10000	4	1	0	4	0
97	932	10	10000	4	1	0	4	0
97	933	10	10000	4	1	0	4	0
96	934	10	10000	4	1	0	4	0
93	935	10	10000	4	1	0	4	0
90	936	10	10000	4	1	0	4	0
87	937	10	10000	4	1	0	4	0
88	938	10	10000	4	1	0	4	0
92	939	10	10000	4	1	0	4	0
94	940	10	10000	4	1	0	4	0
92	941	10	10000	4	1	0	4	0
88	942	10	10000	4	1	0	4	0
87	943	10	10000	4	1	0	4	0
83	944	10	10000	4	1	0	4	0
81	945	10	10000	4	1	0	4	0
79	946	10	10000	4	1	0	4	0
77	947	10	10000	4	1	0	4	0
74	948	10	10000	4	1	0	4	0
71	949	10	10000	4	1	0	4	0
70	950	10	10000	4	1	0	4	0
68	951	10	10000	4	1	0	4	0
66	952	10	10000	4	1	0	4	0
61	953	10	10000	4	1	0	4	0
61	954	10	10000	4	1	0	4	0
59	955	10	10000	4	1	0	4	0
58	956	10	10000	4	1	0	4	0
59	957	10	10000	4	1	0	4	0
60	958	10	10000	4	1	0	4	0
62	959	10	10000	4	1	0	4	0
61	960	10	10000	4	1	0	4	0
60	961	10	10000	4	1	0	4	0
60	962	10	10000	4	1	0	4	0
60	963	10	10000	4	1	0	4	0
61	964	10	10000	4	1	0	4	0
64	965	10	10000	4	1	0	4	0
69	966	10	10000	4	1	0	4	0
72	967	10	10000	4	1	0	4	0
75	968	10	10000	4	1	0	4	0
78	969	10	10000	4	1	0	4	0
79	970	10	10000	4	1	0	4	0
88	971	10	10000	4	1	0	4	0
93	972	10	10000	4	1	0	4	0
92	973	10	10000	4	1	0	4	0
94	974	10	10000	4	1	0	4	0
91	975	10	10000	4	1	0	4	0
90	976	10	10000	4	1	0	4	0
89	977	10	10000	4	1	0	4	0
86	978	10	10000	4	1	0	4	0
91	979	10	10000	4	1	0	4	0
96	980	10	10000	4	1	0	4	0
93	981	10	10000	4	1	0	4	0
96	982	10	10000	4	1	0	4	0
105	983	10	10000	4	1	0	4	0
114	984	10	10000	4	1	0	4	0
121	985	10	10000	4	1	0	4	0
122	986	10	10000	4	1	0	4	0
149	987	10	10000	4	1	0	4	0
177	988	10	10000	4	1	0	4	0
187	989	10	10000	4	1	0	4	0
183	990	10	10000	4	1	0	4	0
183	991	10	10000	4	1	0	4	0
183	992	10	10000	4	1	0	4	0
195	993	10	10000	4	1	0	4	0
226	994	10	10000	4	1	0	4	0
227	995	10	10000	4	1	0	4	0
246	996	10	10000	4	1	0	4	0
249	997	10	10000	4	1	0	4	0
238	998	10	10000	4	1	0	4	0
231	999	10	10000	4	1	0	4	0
225	1000	10	10000	4	1	0	4	0
18	1	0	10000	5	1	0	5	0
18	2	0	10000	5	1	0	5	0
17	3	0	10000	5	1	0	5	0
16	4	0	10000	5	1	0	5	0
16	5	0	10000	5	1	0	5	0
18	6	0	10000	5	1	0	5	0
17	7	0	10000	5	1	0	5	0
17	8	0	10000	5	1	0	5	0
16	9	0	10000	5	1	0	5	0
17	10	0	10000	5	1	0	5	0
16	11	0	10000	5	1	0	5	0
15	12	0	10000	5	1	0	5	0
17	13	0	10000	5	1	0	5	0
17	14	0	10000	5	1	0	5	0
17	15	0	10000	5	1	0	5	0
15	16	0	10000	5	1	0	5	0
15	17	0	10000	5	1	0	5	0
17	18	0	10000	5	1	0	5	0
18	19	0	10000	5	1	0	5	0
19	20	0	10000	5	1	0	5	0
19	21	0	10000	5	1	0	5	0
19	22	0	10000	5	1	0	5	0
19	23	0	10000	5	1	0	5	0
19	24	0	10000	5	1	0	5	0
19	25	0	10000	5	1	0	5	0
20	26	0	10000	5	1	0	5	0
20	27	0	10000	5	1	0	5	0
19	28	0	10000	5	1	0	5	0
19	29	0	10000	5	1	0	5	0
20	30	0	10000	5	1	0	5	0
19	31	0	10000	5	1	0	5	0
20	32	0	10000	5	1	0	5	0
21	33	0	10000	5	1	0	5	0
21	34	0	10000	5	1	0	5	0
20	35	0	10000	5	1	0	5	0
19	36	0	10000	5	1	0	5	0
20	37	0	10000	5	1	0	5	0
23	38	0	10000	5	1	0	5	0
24	39	0	10000	5	1	0	5	0
25	40	0	10000	5	1	0	5	0
24	41	0	10000	5	1	0	5	0
24	42	0	10000	5	1	0	5	0
23	43	0	10000	5	1	0	5	0
24	44	0	10000	5	1	0	5	0
23	45	0	10000	5	1	0	5	0
24	46	0	10000	5	1	0	5	0
24	47	0	10000	5	1	0	5	0
22	48	0	10000	5	1	0	5	0
21	49	0	10000	5	1	0	5	0
21	50	0	10000	5	1	0	5	0
20	51	0	10000	5	1	0	5	0
20	52	0	10000	5	1	0	5	0
20	53	0	10000	5	1	0	5	0
20	54	0	10000	5	1	0	5	0
20	55	0	10000	5	1	0	5	0
18	56	0	10000	5	1	0	5	0
18	57	0	10000	5	1	0	5	0
18	58	0	10000	5	1	0	5	0
18	59	0	10000	5	1	0	5	0
19	60	0	10000	5	1	0	5	0
19	61	0	10000	5	1	0	5	0
19	62	0	10000	5	1	0	5	0
18	63	0	10000	5	1	0	5	0
18	64	0	10000	5	1	0	5	0
18	65	0	10000	5	1	0	5	0
19	66	0	10000	5	1	0	5	0
19	67	0	10000	5	1	0	5	0
18	68	0	10000	5	1	0	5	0
17	69	0	10000	5	1	0	5	0
18	70	0	10000	5	1	0	5	0
17	71	0	10000	5	1	0	5	0
16	72	0	10000	5	1	0	5	0
16	73	0	10000	5	1	0	5	0
17	74	0	10000	5	1	0	5	0
17	75	0	10000	5	1	0	5	0
14	76	0	10000	5	1	0	5	0
15	77	0	10000	5	1	0	5	0
15	78	0	10000	5	1	0	5	0
15	79	0	10000	5	1	0	5	0
15	80	0	10000	5	1	0	5	0
16	81	0	10000	5	1	0	5	0
15	82	0	10000	5	1	0	5	0
15	83	0	10000	5	1	0	5	0
15	84	0	10000	5	1	0	5	0
15	85	0	10000	5	1	0	5	0
17	86	0	10000	5	1	0	5	0
16	87	0	10000	5	1	0	5	0
16	88	0	10000	5	1	0	5	0
15	89	0	10000	5	1	0	5	0
15	90	0	10000	5	1	0	5	0
15	91	0	10000	5	1	0	5	0
14	92	0	10000	5	1	0	5	0
15	93	0	10000	5	1	0	5	0
14	94	0	10000	5	1	0	5	0
14	95	0	10000	5	1	0	5	0
13	96	0	10000	5	1	0	5	0
13	97	0	10000	5	1	0	5	0
14	98	0	10000	5	1	0	5	0
13	99	0	10000	5	1	0	5	0
13	100	0	10000	5	1	0	5	0
14	101	0	10000	5	1	0	5	0
13	102	0	10000	5	1	0	5	0
12	103	0	10000	5	1	0	5	0
12	104	0	10000	5	1	0	5	0
12	105	0	10000	5	1	0	5	0
14	106	0	10000	5	1	0	5	0
14	107	0	10000	5	1	0	5	0
15	108	0	10000	5	1	0	5	0
14	109	0	10000	5	1	0	5	0
14	110	0	10000	5	1	0	5	0
14	111	0	10000	5	1	0	5	0
13	112	0	10000	5	1	0	5	0
15	113	0	10000	5	1	0	5	0
15	114	0	10000	5	1	0	5	0
15	115	0	10000	5	1	0	5	0
13	116	0	10000	5	1	0	5	0
14	117	0	10000	5	1	0	5	0
14	118	0	10000	5	1	0	5	0
14	119	0	10000	5	1	0	5	0
14	120	0	10000	5	1	0	5	0
14	121	0	10000	5	1	0	5	0
14	122	0	10000	5	1	0	5	0
13	123	0	10000	5	1	0	5	0
12	124	0	10000	5	1	0	5	0
13	125	0	10000	5	1	0	5	0
14	126	0	10000	5	1	0	5	0
15	127	0	10000	5	1	0	5	0
14	128	0	10000	5	1	0	5	0
14	129	0	10000	5	1	0	5	0
14	130	0	10000	5	1	0	5	0
15	131	0	10000	5	1	0	5	0
15	132	0	10000	5	1	0	5	0
15	133	0	10000	5	1	0	5	0
15	134	0	10000	5	1	0	5	0
16	135	0	10000	5	1	0	5	0
12	136	0	10000	5	1	0	5	0
13	137	0	10000	5	1	0	5	0
13	138	0	10000	5	1	0	5	0
13	139	0	10000	5	1	0	5	0
12	140	0	10000	5	1	0	5	0
13	141	0	10000	5	1	0	5	0
14	142	0	10000	5	1	0	5	0
14	143	0	10000	5	1	0	5	0
15	144	0	10000	5	1	0	5	0
15	145	0	10000	5	1	0	5	0
17	146	0	10000	5	1	0	5	0
16	147	0	10000	5	1	0	5	0
15	148	0	10000	5	1	0	5	0
15	149	0	10000	5	1	0	5	0
15	150	0	10000	5	1	0	5	0
15	151	0	10000	5	1	0	5	0
15	152	0	10000	5	1	0	5	0
14	153	0	10000	5	1	0	5	0
15	154	0	10000	5	1	0	5	0
15	155	0	10000	5	1	0	5	0
13	156	0	10000	5	1	0	5	0
13	157	0	10000	5	1	0	5	0
13	158	0	10000	5	1	0	5	0
13	159	0	10000	5	1	0	5	0
13	160	0	10000	5	1	0	5	0
13	161	0	10000	5	1	0	5	0
13	162	0	10000	5	1	0	5	0
13	163	0	10000	5	1	0	5	0
12	164	0	10000	5	1	0	5	0
12	165	0	10000	5	1	0	5	0
13	166	0	10000	5	1	0	5	0
13	167	0	10000	5	1	0	5	0
13	168	0	10000	5	1	0	5	0
13	169	0	10000	5	1	0	5	0
12	170	0	10000	5	1	0	5	0
12	171	0	10000	5	1	0	5	0
12	172	0	10000	5	1	0	5	0
13	173	0	10000	5	1	0	5	0
13	174	0	10000	5	1	0	5	0
13	175	0	10000	5	1	0	5	0
11	176	0	10000	5	1	0	5	0
11	177	0	10000	5	1	0	5	0
11	178	0	10000	5	1	0	5	0
12	179	0	10000	5	1	0	5	0
11	180	0	10000	5	1	0	5	0
12	181	0	10000	5	1	0	5	0
12	182	0	10000	5	1	0	5	0
12	183	0	10000	5	1	0	5	0
12	184	0	10000	5	1	0	5	0
12	185	0	10000	5	1	0	5	0
13	186	0	10000	5	1	0	5	0
14	187	0	10000	5	1	0	5	0
13	188	0	10000	5	1	0	5	0
13	189	0	10000	5	1	0	5	0
12	190	0	10000	5	1	0	5	0
12	191	0	10000	5	1	0	5	0
13	192	0	10000	5	1	0	5	0
13	193	0	10000	5	1	0	5	0
14	194	0	10000	5	1	0	5	0
13	195	0	10000	5	1	0	5	0
11	196	0	10000	5	1	0	5	0
12	197	0	10000	5	1	0	5	0
12	198	0	10000	5	1	0	5	0
12	199	0	10000	5	1	0	5	0
12	200	0	10000	5	1	0	5	0
11	201	0	10000	5	1	0	5	0
12	202	0	10000	5	1	0	5	0
11	203	0	10000	5	1	0	5	0
12	204	0	10000	5	1	0	5	0
12	205	0	10000	5	1	0	5	0
15	206	0	10000	5	1	0	5	0
14	207	0	10000	5	1	0	5	0
13	208	0	10000	5	1	0	5	0
13	209	0	10000	5	1	0	5	0
12	210	0	10000	5	1	0	5	0
12	211	0	10000	5	1	0	5	0
13	212	0	10000	5	1	0	5	0
14	213	0	10000	5	1	0	5	0
14	214	0	10000	5	1	0	5	0
15	215	0	10000	5	1	0	5	0
13	216	0	10000	5	1	0	5	0
13	217	0	10000	5	1	0	5	0
13	218	0	10000	5	1	0	5	0
13	219	0	10000	5	1	0	5	0
13	220	0	10000	5	1	0	5	0
13	221	0	10000	5	1	0	5	0
14	222	0	10000	5	1	0	5	0
14	223	0	10000	5	1	0	5	0
12	224	0	10000	5	1	0	5	0
12	225	0	10000	5	1	0	5	0
14	226	0	10000	5	1	0	5	0
13	227	0	10000	5	1	0	5	0
13	228	0	10000	5	1	0	5	0
12	229	0	10000	5	1	0	5	0
12	230	0	10000	5	1	0	5	0
12	231	0	10000	5	1	0	5	0
11	232	0	10000	5	1	0	5	0
13	233	0	10000	5	1	0	5	0
14	234	0	10000	5	1	0	5	0
15	235	0	10000	5	1	0	5	0
12	236	0	10000	5	1	0	5	0
13	237	0	10000	5	1	0	5	0
12	238	0	10000	5	1	0	5	0
13	239	0	10000	5	1	0	5	0
13	240	0	10000	5	1	0	5	0
13	241	0	10000	5	1	0	5	0
13	242	0	10000	5	1	0	5	0
13	243	0	10000	5	1	0	5	0
13	244	0	10000	5	1	0	5	0
13	245	0	10000	5	1	0	5	0
16	246	0	10000	5	1	0	5	0
14	247	0	10000	5	1	0	5	0
14	248	0	10000	5	1	0	5	0
13	249	0	10000	5	1	0	5	0
13	250	0	10000	5	1	0	5	0
13	251	0	10000	5	1	0	5	0
13	252	0	10000	5	1	0	5	0
14	253	0	10000	5	1	0	5	0
14	254	0	10000	5	1	0	5	0
14	255	0	10000	5	1	0	5	0
12	256	0	10000	5	1	0	5	0
13	257	0	10000	5	1	0	5	0
13	258	0	10000	5	1	0	5	0
13	259	0	10000	5	1	0	5	0
13	260	0	10000	5	1	0	5	0
13	261	0	10000	5	1	0	5	0
14	262	0	10000	5	1	0	5	0
14	263	0	10000	5	1	0	5	0
13	264	0	10000	5	1	0	5	0
13	265	0	10000	5	1	0	5	0
15	266	0	10000	5	1	0	5	0
14	267	0	10000	5	1	0	5	0
14	268	0	10000	5	1	0	5	0
14	269	0	10000	5	1	0	5	0
14	270	0	10000	5	1	0	5	0
15	271	0	10000	5	1	0	5	0
15	272	0	10000	5	1	0	5	0
15	273	0	10000	5	1	0	5	0
16	274	0	10000	5	1	0	5	0
16	275	0	10000	5	1	0	5	0
14	276	0	10000	5	1	0	5	0
14	277	0	10000	5	1	0	5	0
15	278	0	10000	5	1	0	5	0
14	279	0	10000	5	1	0	5	0
15	280	0	10000	5	1	0	5	0
14	281	0	10000	5	1	0	5	0
13	282	0	10000	5	1	0	5	0
14	283	0	10000	5	1	0	5	0
12	284	0	10000	5	1	0	5	0
12	285	0	10000	5	1	0	5	0
14	286	0	10000	5	1	0	5	0
14	287	0	10000	5	1	0	5	0
14	288	0	10000	5	1	0	5	0
14	289	0	10000	5	1	0	5	0
13	290	0	10000	5	1	0	5	0
12	291	0	10000	5	1	0	5	0
12	292	0	10000	5	1	0	5	0
13	293	0	10000	5	1	0	5	0
14	294	0	10000	5	1	0	5	0
14	295	0	10000	5	1	0	5	0
13	296	0	10000	5	1	0	5	0
13	297	0	10000	5	1	0	5	0
12	298	0	10000	5	1	0	5	0
13	299	0	10000	5	1	0	5	0
13	300	0	10000	5	1	0	5	0
12	301	0	10000	5	1	0	5	0
13	302	0	10000	5	1	0	5	0
12	303	0	10000	5	1	0	5	0
11	304	0	10000	5	1	0	5	0
11	305	0	10000	5	1	0	5	0
13	306	0	10000	5	1	0	5	0
12	307	0	10000	5	1	0	5	0
12	308	0	10000	5	1	0	5	0
12	309	0	10000	5	1	0	5	0
12	310	0	10000	5	1	0	5	0
11	311	0	10000	5	1	0	5	0
11	312	0	10000	5	1	0	5	0
13	313	0	10000	5	1	0	5	0
14	314	0	10000	5	1	0	5	0
13	315	0	10000	5	1	0	5	0
11	316	0	10000	5	1	0	5	0
13	317	0	10000	5	1	0	5	0
12	318	0	10000	5	1	0	5	0
12	319	0	10000	5	1	0	5	0
13	320	0	10000	5	1	0	5	0
13	321	0	10000	5	1	0	5	0
13	322	0	10000	5	1	0	5	0
13	323	0	10000	5	1	0	5	0
13	324	0	10000	5	1	0	5	0
13	325	0	10000	5	1	0	5	0
15	326	0	10000	5	1	0	5	0
14	327	0	10000	5	1	0	5	0
14	328	0	10000	5	1	0	5	0
13	329	0	10000	5	1	0	5	0
13	330	0	10000	5	1	0	5	0
14	331	0	10000	5	1	0	5	0
13	332	0	10000	5	1	0	5	0
14	333	0	10000	5	1	0	5	0
14	334	0	10000	5	1	0	5	0
14	335	0	10000	5	1	0	5	0
11	336	0	10000	5	1	0	5	0
13	337	0	10000	5	1	0	5	0
12	338	0	10000	5	1	0	5	0
12	339	0	10000	5	1	0	5	0
12	340	0	10000	5	1	0	5	0
12	341	0	10000	5	1	0	5	0
12	342	0	10000	5	1	0	5	0
11	343	0	10000	5	1	0	5	0
10	344	0	10000	5	1	0	5	0
10	345	0	10000	5	1	0	5	0
12	346	0	10000	5	1	0	5	0
12	347	0	10000	5	1	0	5	0
11	348	0	10000	5	1	0	5	0
11	349	0	10000	5	1	0	5	0
12	350	0	10000	5	1	0	5	0
14	351	0	10000	5	1	0	5	0
14	352	0	10000	5	1	0	5	0
15	353	0	10000	5	1	0	5	0
15	354	0	10000	5	1	0	5	0
15	355	0	10000	5	1	0	5	0
13	356	0	10000	5	1	0	5	0
15	357	0	10000	5	1	0	5	0
14	358	0	10000	5	1	0	5	0
14	359	0	10000	5	1	0	5	0
14	360	0	10000	5	1	0	5	0
14	361	0	10000	5	1	0	5	0
14	362	0	10000	5	1	0	5	0
13	363	0	10000	5	1	0	5	0
13	364	0	10000	5	1	0	5	0
12	365	0	10000	5	1	0	5	0
14	366	0	10000	5	1	0	5	0
13	367	0	10000	5	1	0	5	0
13	368	0	10000	5	1	0	5	0
13	369	0	10000	5	1	0	5	0
13	370	0	10000	5	1	0	5	0
13	371	0	10000	5	1	0	5	0
12	372	0	10000	5	1	0	5	0
13	373	0	10000	5	1	0	5	0
14	374	0	10000	5	1	0	5	0
13	375	0	10000	5	1	0	5	0
11	376	0	10000	5	1	0	5	0
11	377	0	10000	5	1	0	5	0
11	378	0	10000	5	1	0	5	0
12	379	0	10000	5	1	0	5	0
12	380	0	10000	5	1	0	5	0
11	381	0	10000	5	1	0	5	0
12	382	0	10000	5	1	0	5	0
11	383	0	10000	5	1	0	5	0
11	384	0	10000	5	1	0	5	0
11	385	0	10000	5	1	0	5	0
14	386	0	10000	5	1	0	5	0
14	387	0	10000	5	1	0	5	0
14	388	0	10000	5	1	0	5	0
13	389	0	10000	5	1	0	5	0
12	390	0	10000	5	1	0	5	0
13	391	0	10000	5	1	0	5	0
13	392	0	10000	5	1	0	5	0
13	393	0	10000	5	1	0	5	0
14	394	0	10000	5	1	0	5	0
13	395	0	10000	5	1	0	5	0
11	396	0	10000	5	1	0	5	0
13	397	0	10000	5	1	0	5	0
13	398	0	10000	5	1	0	5	0
13	399	0	10000	5	1	0	5	0
13	400	0	10000	5	1	0	5	0
13	401	0	10000	5	1	0	5	0
13	402	0	10000	5	1	0	5	0
12	403	0	10000	5	1	0	5	0
12	404	0	10000	5	1	0	5	0
11	405	0	10000	5	1	0	5	0
13	406	0	10000	5	1	0	5	0
13	407	0	10000	5	1	0	5	0
12	408	0	10000	5	1	0	5	0
12	409	0	10000	5	1	0	5	0
12	410	0	10000	5	1	0	5	0
13	411	0	10000	5	1	0	5	0
12	412	0	10000	5	1	0	5	0
12	413	0	10000	5	1	0	5	0
13	414	0	10000	5	1	0	5	0
13	415	0	10000	5	1	0	5	0
11	416	0	10000	5	1	0	5	0
10	417	0	10000	5	1	0	5	0
10	418	0	10000	5	1	0	5	0
11	419	0	10000	5	1	0	5	0
12	420	0	10000	5	1	0	5	0
12	421	0	10000	5	1	0	5	0
12	422	0	10000	5	1	0	5	0
13	423	0	10000	5	1	0	5	0
13	424	0	10000	5	1	0	5	0
12	425	0	10000	5	1	0	5	0
15	426	0	10000	5	1	0	5	0
16	427	0	10000	5	1	0	5	0
17	428	0	10000	5	1	0	5	0
17	429	0	10000	5	1	0	5	0
18	430	0	10000	5	1	0	5	0
18	431	0	10000	5	1	0	5	0
16	432	0	10000	5	1	0	5	0
17	433	0	10000	5	1	0	5	0
18	434	0	10000	5	1	0	5	0
19	435	0	10000	5	1	0	5	0
17	436	0	10000	5	1	0	5	0
18	437	0	10000	5	1	0	5	0
18	438	0	10000	5	1	0	5	0
17	439	0	10000	5	1	0	5	0
18	440	0	10000	5	1	0	5	0
18	441	0	10000	5	1	0	5	0
19	442	0	10000	5	1	0	5	0
19	443	0	10000	5	1	0	5	0
20	444	0	10000	5	1	0	5	0
21	445	0	10000	5	1	0	5	0
23	446	0	10000	5	1	0	5	0
23	447	0	10000	5	1	0	5	0
24	448	0	10000	5	1	0	5	0
22	449	0	10000	5	1	0	5	0
21	450	0	10000	5	1	0	5	0
22	451	0	10000	5	1	0	5	0
22	452	0	10000	5	1	0	5	0
23	453	0	10000	5	1	0	5	0
24	454	0	10000	5	1	0	5	0
26	455	0	10000	5	1	0	5	0
25	456	0	10000	5	1	0	5	0
25	457	0	10000	5	1	0	5	0
24	458	0	10000	5	1	0	5	0
24	459	0	10000	5	1	0	5	0
26	460	0	10000	5	1	0	5	0
28	461	0	10000	5	1	0	5	0
35	462	0	10000	5	1	0	5	0
40	463	0	10000	5	1	0	5	0
43	464	0	10000	5	1	0	5	0
48	465	0	10000	5	1	0	5	0
52	466	0	10000	5	1	0	5	0
50	467	0	10000	5	1	0	5	0
50	468	0	10000	5	1	0	5	0
49	469	0	10000	5	1	0	5	0
53	470	0	10000	5	1	0	5	0
57	471	0	10000	5	1	0	5	0
57	472	0	10000	5	1	0	5	0
56	473	0	10000	5	1	0	5	0
62	474	0	10000	5	1	0	5	0
78	475	0	10000	5	1	0	5	0
86	476	0	10000	5	1	0	5	0
93	477	0	10000	5	1	0	5	0
92	478	0	10000	5	1	0	5	0
103	479	0	10000	5	1	0	5	0
112	480	0	10000	5	1	0	5	0
113	481	0	10000	5	1	0	5	0
131	482	0	10000	5	1	0	5	0
155	483	0	10000	5	1	0	5	0
165	484	0	10000	5	1	0	5	0
159	485	0	10000	5	1	0	5	0
155	486	0	10000	5	1	0	5	0
152	487	0	10000	5	1	0	5	0
148	488	0	10000	5	1	0	5	0
151	489	0	10000	5	1	0	5	0
162	490	0	10000	5	1	0	5	0
162	491	0	10000	5	1	0	5	0
161	492	0	10000	5	1	0	5	0
158	493	0	10000	5	1	0	5	0
155	494	0	10000	5	1	0	5	0
154	495	0	10000	5	1	0	5	0
147	496	0	10000	5	1	0	5	0
142	497	0	10000	5	1	0	5	0
136	498	0	10000	5	1	0	5	0
137	499	0	10000	5	1	0	5	0
140	500	0	10000	5	1	0	5	0
140	501	0	10000	5	1	0	5	1
140	502	0	10000	5	1	0	5	1
140	503	0	10000	5	1	0	5	1
139	504	0	10000	5	1	0	5	1
140	505	0	10000	5	1	0	5	1
137	506	0	10000	5	1	0	5	1
131	507	0	10000	5	1	0	5	1
128	508	0	10000	5	1	0	5	1
132	509	0	10000	5	1	0	5	1
153	510	0	10000	5	1	0	5	1
168	511	0	10000	5	1	0	5	1
165	512	0	10000	5	1	0	5	1
161	513	0	10000	5	1	0	5	1
159	514	0	10000	5	1	0	5	1
158	515	0	10000	5	1	0	5	1
151	516	0	10000	5	1	0	5	1
147	517	0	10000	5	1	0	5	1
140	518	0	10000	5	1	0	5	1
138	519	0	10000	5	1	0	5	1
139	520	0	10000	5	1	0	5	1
139	521	0	10000	5	1	0	5	1
138	522	0	10000	5	1	0	5	1
132	523	0	10000	5	1	0	5	1
126	524	0	10000	5	1	0	5	1
121	525	0	10000	5	1	0	5	1
119	526	0	10000	5	1	0	5	1
118	527	0	10000	5	1	0	5	1
121	528	0	10000	5	1	0	5	1
125	529	0	10000	5	1	0	5	1
124	530	0	10000	5	1	0	5	1
118	531	0	10000	5	1	0	5	1
120	532	0	10000	5	1	0	5	1
130	533	0	10000	5	1	0	5	1
129	534	0	10000	5	1	0	5	1
131	535	0	10000	5	1	0	5	1
136	536	0	10000	5	1	0	5	1
142	537	0	10000	5	1	0	5	1
144	538	0	10000	5	1	0	5	1
144	539	0	10000	5	1	0	5	1
140	540	0	10000	5	1	0	5	1
136	541	0	10000	5	1	0	5	1
132	542	0	10000	5	1	0	5	1
128	543	0	10000	5	1	0	5	1
129	544	0	10000	5	1	0	5	1
131	545	0	10000	5	1	0	5	1
135	546	0	10000	5	1	0	5	1
131	547	0	10000	5	1	0	5	1
130	548	0	10000	5	1	0	5	1
126	549	0	10000	5	1	0	5	1
125	550	0	10000	5	1	0	5	1
120	551	0	10000	5	1	0	5	0
117	552	0	10000	5	1	0	5	0
122	553	0	10000	5	1	0	5	0
125	554	0	10000	5	1	0	5	0
126	555	0	10000	5	1	0	5	0
128	556	0	10000	5	1	0	5	0
131	557	0	10000	5	1	0	5	0
137	558	0	10000	5	1	0	5	0
140	559	0	10000	5	1	0	5	0
141	560	0	10000	5	1	0	5	0
141	561	0	10000	5	1	0	5	0
140	562	0	10000	5	1	0	5	0
140	563	0	10000	5	1	0	5	0
140	564	0	10000	5	1	0	5	0
139	565	0	10000	5	1	0	5	0
141	566	0	10000	5	1	0	5	0
143	567	0	10000	5	1	0	5	0
145	568	0	10000	5	1	0	5	0
146	569	0	10000	5	1	0	5	0
147	570	0	10000	5	1	0	5	0
148	571	0	10000	5	1	0	5	0
148	572	0	10000	5	1	0	5	0
149	573	0	10000	5	1	0	5	0
149	574	0	10000	5	1	0	5	0
147	575	0	10000	5	1	0	5	0
144	576	0	10000	5	1	0	5	0
143	577	0	10000	5	1	0	5	0
143	578	0	10000	5	1	0	5	0
145	579	0	10000	5	1	0	5	0
146	580	0	10000	5	1	0	5	0
158	581	0	10000	5	1	0	5	0
190	582	0	10000	5	1	0	5	0
198	583	0	10000	5	1	0	5	0
196	584	0	10000	5	1	0	5	0
201	585	0	10000	5	1	0	5	0
199	586	0	10000	5	1	0	5	0
218	587	0	10000	5	1	0	5	0
235	588	0	10000	5	1	0	5	0
233	589	0	10000	5	1	0	5	0
226	590	0	10000	5	1	0	5	0
241	591	0	10000	5	1	0	5	0
263	592	0	10000	5	1	0	5	0
304	593	0	10000	5	1	0	5	0
328	594	0	10000	5	1	0	5	0
372	595	0	10000	5	1	0	5	0
404	596	0	10000	5	1	0	5	0
406	597	0	10000	5	1	0	5	0
433	598	0	10000	5	1	0	5	0
417	599	0	10000	5	1	0	5	0
411	600	0	10000	5	1	0	5	0
403	601	0	10000	5	1	0	5	0
394	602	0	10000	5	1	0	5	0
402	603	0	10000	5	1	0	5	0
395	604	0	10000	5	1	0	5	0
386	605	0	10000	5	1	0	5	0
419	606	0	10000	5	1	0	5	0
475	607	0	10000	5	1	0	5	0
468	608	0	10000	5	1	0	5	0
447	609	0	10000	5	1	0	5	0
436	610	0	10000	5	1	0	5	0
470	611	0	10000	5	1	0	5	0
470	612	0	10000	5	1	0	5	0
465	613	0	10000	5	1	0	5	0
456	614	0	10000	5	1	0	5	0
447	615	0	10000	5	1	0	5	0
433	616	0	10000	5	1	0	5	0
431	617	0	10000	5	1	0	5	0
472	618	0	10000	5	1	0	5	0
561	619	0	10000	5	1	0	5	0
674	620	0	10000	5	1	0	5	0
736	621	0	10000	5	1	0	5	0
724	622	0	10000	5	1	0	5	0
757	623	0	10000	5	1	0	5	0
822	624	0	10000	5	1	0	5	0
864	625	0	10000	5	1	0	5	0
877	626	0	10000	5	1	0	5	0
863	627	0	10000	5	1	0	5	0
832	628	0	10000	5	1	0	5	0
796	629	0	10000	5	1	0	5	0
772	630	0	10000	5	1	0	5	0
752	631	0	10000	5	1	0	5	0
734	632	0	10000	5	1	0	5	0
719	633	0	10000	5	1	0	5	0
702	634	0	10000	5	1	0	5	0
686	635	0	10000	5	1	0	5	0
667	636	0	10000	5	1	0	5	0
650	637	0	10000	5	1	0	5	0
633	638	0	10000	5	1	0	5	0
616	639	0	10000	5	1	0	5	0
599	640	0	10000	5	1	0	5	0
582	641	0	10000	5	1	0	5	0
567	642	0	10000	5	1	0	5	0
551	643	0	10000	5	1	0	5	0
537	644	0	10000	5	1	0	5	0
524	645	0	10000	5	1	0	5	0
514	646	0	10000	5	1	0	5	0
500	647	0	10000	5	1	0	5	0
481	648	0	10000	5	1	0	5	0
462	649	0	10000	5	1	0	5	0
442	650	0	10000	5	1	0	5	0
422	651	0	10000	5	1	0	5	0
405	652	0	10000	5	1	0	5	0
392	653	0	10000	5	1	0	5	0
380	654	0	10000	5	1	0	5	0
370	655	0	10000	5	1	0	5	0
361	656	0	10000	5	1	0	5	0
356	657	0	10000	5	1	0	5	0
350	658	0	10000	5	1	0	5	0
347	659	0	10000	5	1	0	5	0
342	660	0	10000	5	1	0	5	0
338	661	0	10000	5	1	0	5	0
332	662	0	10000	5	1	0	5	0
325	663	0	10000	5	1	0	5	0
320	664	0	10000	5	1	0	5	0
313	665	0	10000	5	1	0	5	0
308	666	0	10000	5	1	0	5	0
302	667	0	10000	5	1	0	5	0
296	668	0	10000	5	1	0	5	0
292	669	0	10000	5	1	0	5	0
289	670	0	10000	5	1	0	5	0
286	671	0	10000	5	1	0	5	0
285	672	0	10000	5	1	0	5	0
285	673	0	10000	5	1	0	5	0
285	674	0	10000	5	1	0	5	0
285	675	0	10000	5	1	0	5	0
284	676	0	10000	5	1	0	5	0
283	677	0	10000	5	1	0	5	0
282	678	0	10000	5	1	0	5	0
278	679	0	10000	5	1	0	5	0
273	680	0	10000	5	1	0	5	0
268	681	0	10000	5	1	0	5	0
261	682	0	10000	5	1	0	5	0
251	683	0	10000	5	1	0	5	0
241	684	0	10000	5	1	0	5	0
230	685	0	10000	5	1	0	5	0
222	686	0	10000	5	1	0	5	0
215	687	0	10000	5	1	0	5	0
207	688	0	10000	5	1	0	5	0
199	689	0	10000	5	1	0	5	0
193	690	0	10000	5	1	0	5	0
185	690	0	10000	5	1	0	5	0
176	691	0	10000	5	1	0	5	0
170	693	0	10000	5	1	0	5	0
163	694	0	10000	5	1	0	5	0
158	695	0	10000	5	1	0	5	0
152	696	0	10000	5	1	0	5	0
148	697	0	10000	5	1	0	5	0
144	698	0	10000	5	1	0	5	0
141	699	0	10000	5	1	0	5	0
136	700	0	10000	5	1	0	5	0
132	700	0	10000	5	1	0	5	0
131	701	0	10000	5	1	0	5	0
131	703	0	10000	5	1	0	5	0
129	704	0	10000	5	1	0	5	0
124	705	0	10000	5	1	0	5	0
125	706	0	10000	5	1	0	5	0
127	707	0	10000	5	1	0	5	0
130	708	0	10000	5	1	0	5	0
133	709	0	10000	5	1	0	5	0
134	710	0	10000	5	1	0	5	0
132	710	0	10000	5	1	0	5	0
128	711	0	10000	5	1	0	5	0
123	713	0	10000	5	1	0	5	0
