value	EMG	Stimulus	EMG_sensitivity	Total_Trial_Nr	practise	acq	probe_nr	Startle_Probe
69	2	0	10000	1	1	0	1	0
70	3	0	10000	1	1	0	1	0
71	4	0	10000	1	1	0	1	0
72	5	0	10000	1	1	0	1	0
71	6	0	10000	1	1	0	1	0
70	7	0	10000	1	1	0	1	0
68	8	0	10000	1	1	0	1	0
67	9	0	10000	1	1	0	1	0
64	10	0	10000	1	1	0	1	0
61	11	0	10000	1	1	0	1	0
60	12	0	10000	1	1	0	1	0
58	13	0	10000	1	1	0	1	0
56	14	0	10000	1	1	0	1	0
56	15	0	10000	1	1	0	1	0
58	16	0	10000	1	1	0	1	0
61	17	0	10000	1	1	0	1	0
63	18	0	10000	1	1	0	1	0
67	19	0	10000	1	1	0	1	0
74	20	0	10000	1	1	0	1	0
77	21	0	10000	1	1	0	1	0
76	22	0	10000	1	1	0	1	0
80	23	0	10000	1	1	0	1	0
81	24	0	10000	1	1	0	1	0
78	25	0	10000	1	1	0	1	0
77	26	0	10000	1	1	0	1	0
76	27	0	10000	1	1	0	1	0
77	28	0	10000	1	1	0	1	0
77	29	0	10000	1	1	0	1	0
73	30	0	10000	1	1	0	1	0
69	31	0	10000	1	1	0	1	0
69	32	0	10000	1	1	0	1	0
70	33	0	10000	1	1	0	1	0
69	34	0	10000	1	1	0	1	0
68	35	0	10000	1	1	0	1	0
67	36	0	10000	1	1	0	1	0
65	37	0	10000	1	1	0	1	0
65	38	0	10000	1	1	0	1	0
62	39	0	10000	1	1	0	1	0
62	40	0	10000	1	1	0	1	0
62	41	0	10000	1	1	0	1	0
60	42	0	10000	1	1	0	1	0
58	43	0	10000	1	1	0	1	0
56	44	0	10000	1	1	0	1	0
55	45	0	10000	1	1	0	1	0
57	46	0	10000	1	1	0	1	0
56	47	0	10000	1	1	0	1	0
55	48	0	10000	1	1	0	1	0
54	49	0	10000	1	1	0	1	0
53	50	0	10000	1	1	0	1	0
51	51	0	10000	1	1	0	1	0
51	52	0	10000	1	1	0	1	0
51	53	0	10000	1	1	0	1	0
50	54	0	10000	1	1	0	1	0
50	55	0	10000	1	1	0	1	0
52	56	0	10000	1	1	0	1	0
54	57	0	10000	1	1	0	1	0
55	58	0	10000	1	1	0	1	0
53	59	0	10000	1	1	0	1	0
53	60	0	10000	1	1	0	1	0
54	61	0	10000	1	1	0	1	0
53	62	0	10000	1	1	0	1	0
53	63	0	10000	1	1	0	1	0
53	64	0	10000	1	1	0	1	0
52	65	0	10000	1	1	0	1	0
52	66	0	10000	1	1	0	1	0
50	67	0	10000	1	1	0	1	0
48	68	0	10000	1	1	0	1	0
49	69	0	10000	1	1	0	1	0
50	70	0	10000	1	1	0	1	0
48	71	0	10000	1	1	0	1	0
49	72	0	10000	1	1	0	1	0
49	73	0	10000	1	1	0	1	0
49	74	0	10000	1	1	0	1	0
49	75	0	10000	1	1	0	1	0
48	76	0	10000	1	1	0	1	0
48	77	0	10000	1	1	0	1	0
47	78	0	10000	1	1	0	1	0
46	79	0	10000	1	1	0	1	0
48	80	0	10000	1	1	0	1	0
49	81	0	10000	1	1	0	1	0
47	82	0	10000	1	1	0	1	0
46	83	0	10000	1	1	0	1	0
47	84	0	10000	1	1	0	1	0
48	85	0	10000	1	1	0	1	0
48	86	0	10000	1	1	0	1	0
50	87	0	10000	1	1	0	1	0
53	88	0	10000	1	1	0	1	0
52	89	0	10000	1	1	0	1	0
54	90	0	10000	1	1	0	1	0
52	91	0	10000	1	1	0	1	0
52	92	0	10000	1	1	0	1	0
50	93	0	10000	1	1	0	1	0
50	94	0	10000	1	1	0	1	0
50	95	0	10000	1	1	0	1	0
48	96	0	10000	1	1	0	1	0
49	97	0	10000	1	1	0	1	0
49	98	0	10000	1	1	0	1	0
50	99	0	10000	1	1	0	1	0
50	100	0	10000	1	1	0	1	0
51	101	0	10000	1	1	0	1	0
49	102	0	10000	1	1	0	1	0
48	103	0	10000	1	1	0	1	0
48	104	0	10000	1	1	0	1	0
49	105	0	10000	1	1	0	1	0
49	106	0	10000	1	1	0	1	0
49	107	0	10000	1	1	0	1	0
48	108	0	10000	1	1	0	1	0
48	109	0	10000	1	1	0	1	0
50	110	0	10000	1	1	0	1	0
49	111	0	10000	1	1	0	1	0
50	112	0	10000	1	1	0	1	0
53	113	0	10000	1	1	0	1	0
54	114	0	10000	1	1	0	1	0
52	115	0	10000	1	1	0	1	0
51	116	0	10000	1	1	0	1	0
50	117	0	10000	1	1	0	1	0
49	118	0	10000	1	1	0	1	0
48	119	0	10000	1	1	0	1	0
49	120	0	10000	1	1	0	1	0
53	121	0	10000	1	1	0	1	0
55	122	0	10000	1	1	0	1	0
53	123	0	10000	1	1	0	1	0
51	124	0	10000	1	1	0	1	0
53	125	0	10000	1	1	0	1	0
52	126	0	10000	1	1	0	1	0
53	127	0	10000	1	1	0	1	0
56	128	0	10000	1	1	0	1	0
58	129	0	10000	1	1	0	1	0
57	130	0	10000	1	1	0	1	0
56	131	0	10000	1	1	0	1	0
56	132	0	10000	1	1	0	1	0
59	133	0	10000	1	1	0	1	0
63	134	0	10000	1	1	0	1	0
64	135	0	10000	1	1	0	1	0
63	136	0	10000	1	1	0	1	0
63	137	0	10000	1	1	0	1	0
60	138	0	10000	1	1	0	1	0
58	139	0	10000	1	1	0	1	0
60	140	0	10000	1	1	0	1	0
63	141	0	10000	1	1	0	1	0
61	142	0	10000	1	1	0	1	0
61	143	0	10000	1	1	0	1	0
65	144	0	10000	1	1	0	1	0
68	145	0	10000	1	1	0	1	0
68	146	0	10000	1	1	0	1	0
67	147	0	10000	1	1	0	1	0
66	148	0	10000	1	1	0	1	0
65	149	0	10000	1	1	0	1	0
64	150	0	10000	1	1	0	1	0
65	151	0	10000	1	1	0	1	0
67	152	0	10000	1	1	0	1	0
67	153	0	10000	1	1	0	1	0
66	154	0	10000	1	1	0	1	0
64	155	0	10000	1	1	0	1	0
63	156	0	10000	1	1	0	1	0
65	157	0	10000	1	1	0	1	0
67	158	0	10000	1	1	0	1	0
65	159	0	10000	1	1	0	1	0
64	160	0	10000	1	1	0	1	0
66	161	0	10000	1	1	0	1	0
67	162	0	10000	1	1	0	1	0
66	163	0	10000	1	1	0	1	0
65	164	0	10000	1	1	0	1	0
63	165	0	10000	1	1	0	1	0
62	166	0	10000	1	1	0	1	0
65	167	0	10000	1	1	0	1	0
69	168	0	10000	1	1	0	1	0
68	169	0	10000	1	1	0	1	0
66	170	0	10000	1	1	0	1	0
62	171	0	10000	1	1	0	1	0
63	172	0	10000	1	1	0	1	0
64	173	0	10000	1	1	0	1	0
68	174	0	10000	1	1	0	1	0
73	175	0	10000	1	1	0	1	0
78	176	0	10000	1	1	0	1	0
80	177	0	10000	1	1	0	1	0
78	178	0	10000	1	1	0	1	0
75	179	0	10000	1	1	0	1	0
74	180	0	10000	1	1	0	1	0
75	181	0	10000	1	1	0	1	0
76	182	0	10000	1	1	0	1	0
79	183	0	10000	1	1	0	1	0
80	184	0	10000	1	1	0	1	0
81	185	0	10000	1	1	0	1	0
81	186	0	10000	1	1	0	1	0
80	187	0	10000	1	1	0	1	0
78	188	0	10000	1	1	0	1	0
75	189	0	10000	1	1	0	1	0
73	190	0	10000	1	1	0	1	0
70	191	0	10000	1	1	0	1	0
68	192	0	10000	1	1	0	1	0
68	193	0	10000	1	1	0	1	0
66	194	0	10000	1	1	0	1	0
65	195	0	10000	1	1	0	1	0
68	196	0	10000	1	1	0	1	0
71	197	0	10000	1	1	0	1	0
73	198	0	10000	1	1	0	1	0
73	199	0	10000	1	1	0	1	0
72	200	0	10000	1	1	0	1	0
72	201	0	10000	1	1	0	1	0
71	202	0	10000	1	1	0	1	0
69	203	0	10000	1	1	0	1	0
68	204	0	10000	1	1	0	1	0
68	205	0	10000	1	1	0	1	0
68	206	0	10000	1	1	0	1	0
66	207	0	10000	1	1	0	1	0
67	208	0	10000	1	1	0	1	0
74	209	0	10000	1	1	0	1	0
80	210	0	10000	1	1	0	1	0
81	211	0	10000	1	1	0	1	0
81	212	0	10000	1	1	0	1	0
80	213	0	10000	1	1	0	1	0
78	214	0	10000	1	1	0	1	0
76	215	0	10000	1	1	0	1	0
74	216	0	10000	1	1	0	1	0
74	217	0	10000	1	1	0	1	0
73	218	0	10000	1	1	0	1	0
71	219	0	10000	1	1	0	1	0
69	220	0	10000	1	1	0	1	0
68	221	0	10000	1	1	0	1	0
67	222	0	10000	1	1	0	1	0
67	223	0	10000	1	1	0	1	0
65	224	0	10000	1	1	0	1	0
64	225	0	10000	1	1	0	1	0
64	226	0	10000	1	1	0	1	0
67	227	0	10000	1	1	0	1	0
66	228	0	10000	1	1	0	1	0
66	229	0	10000	1	1	0	1	0
64	230	0	10000	1	1	0	1	0
61	231	0	10000	1	1	0	1	0
61	232	0	10000	1	1	0	1	0
62	233	0	10000	1	1	0	1	0
61	234	0	10000	1	1	0	1	0
59	235	0	10000	1	1	0	1	0
59	236	0	10000	1	1	0	1	0
60	237	0	10000	1	1	0	1	0
62	238	0	10000	1	1	0	1	0
63	239	0	10000	1	1	0	1	0
61	240	0	10000	1	1	0	1	0
61	241	0	10000	1	1	0	1	0
59	242	0	10000	1	1	0	1	0
57	243	0	10000	1	1	0	1	0
56	244	0	10000	1	1	0	1	0
55	245	0	10000	1	1	0	1	0
53	246	0	10000	1	1	0	1	0
51	247	0	10000	1	1	0	1	0
51	248	0	10000	1	1	0	1	0
52	249	0	10000	1	1	0	1	0
50	250	0	10000	1	1	0	1	0
47	251	0	10000	1	1	0	1	0
48	252	0	10000	1	1	0	1	0
51	253	0	10000	1	1	0	1	0
52	254	0	10000	1	1	0	1	0
51	255	0	10000	1	1	0	1	0
51	256	0	10000	1	1	0	1	0
50	257	0	10000	1	1	0	1	0
49	258	0	10000	1	1	0	1	0
49	259	0	10000	1	1	0	1	0
49	260	0	10000	1	1	0	1	0
50	261	0	10000	1	1	0	1	0
49	262	0	10000	1	1	0	1	0
47	263	0	10000	1	1	0	1	0
47	264	0	10000	1	1	0	1	0
50	265	0	10000	1	1	0	1	0
54	266	0	10000	1	1	0	1	0
58	267	0	10000	1	1	0	1	0
58	268	0	10000	1	1	0	1	0
57	269	0	10000	1	1	0	1	0
56	270	0	10000	1	1	0	1	0
55	271	0	10000	1	1	0	1	0
56	272	0	10000	1	1	0	1	0
60	273	0	10000	1	1	0	1	0
61	274	0	10000	1	1	0	1	0
61	275	0	10000	1	1	0	1	0
60	276	0	10000	1	1	0	1	0
63	277	0	10000	1	1	0	1	0
65	278	0	10000	1	1	0	1	0
62	279	0	10000	1	1	0	1	0
61	280	0	10000	1	1	0	1	0
61	281	0	10000	1	1	0	1	0
59	282	0	10000	1	1	0	1	0
56	283	0	10000	1	1	0	1	0
55	284	0	10000	1	1	0	1	0
55	285	0	10000	1	1	0	1	0
55	286	0	10000	1	1	0	1	0
56	287	0	10000	1	1	0	1	0
58	288	0	10000	1	1	0	1	0
58	289	0	10000	1	1	0	1	0
60	290	0	10000	1	1	0	1	0
61	291	0	10000	1	1	0	1	0
67	292	0	10000	1	1	0	1	0
67	293	0	10000	1	1	0	1	0
65	294	0	10000	1	1	0	1	0
65	295	0	10000	1	1	0	1	0
65	296	0	10000	1	1	0	1	0
68	297	0	10000	1	1	0	1	0
69	298	0	10000	1	1	0	1	0
68	299	0	10000	1	1	0	1	0
67	300	0	10000	1	1	0	1	0
68	301	0	10000	1	1	0	1	0
66	302	0	10000	1	1	0	1	0
67	303	0	10000	1	1	0	1	0
69	304	0	10000	1	1	0	1	0
70	305	0	10000	1	1	0	1	0
68	306	0	10000	1	1	0	1	0
67	307	0	10000	1	1	0	1	0
66	308	0	10000	1	1	0	1	0
65	309	0	10000	1	1	0	1	0
65	310	0	10000	1	1	0	1	0
61	311	0	10000	1	1	0	1	0
59	312	0	10000	1	1	0	1	0
60	313	0	10000	1	1	0	1	0
59	314	0	10000	1	1	0	1	0
57	315	0	10000	1	1	0	1	0
57	316	0	10000	1	1	0	1	0
58	317	0	10000	1	1	0	1	0
57	318	0	10000	1	1	0	1	0
55	319	0	10000	1	1	0	1	0
54	320	0	10000	1	1	0	1	0
55	321	0	10000	1	1	0	1	0
53	322	0	10000	1	1	0	1	0
52	323	0	10000	1	1	0	1	0
51	324	0	10000	1	1	0	1	0
50	325	0	10000	1	1	0	1	0
52	326	0	10000	1	1	0	1	0
57	327	0	10000	1	1	0	1	0
60	328	0	10000	1	1	0	1	0
62	329	0	10000	1	1	0	1	0
60	330	0	10000	1	1	0	1	0
58	331	0	10000	1	1	0	1	0
62	332	0	10000	1	1	0	1	0
69	333	0	10000	1	1	0	1	0
76	334	0	10000	1	1	0	1	0
76	335	0	10000	1	1	0	1	0
75	336	0	10000	1	1	0	1	0
74	337	0	10000	1	1	0	1	0
71	338	0	10000	1	1	0	1	0
69	339	0	10000	1	1	0	1	0
67	340	0	10000	1	1	0	1	0
71	341	0	10000	1	1	0	1	0
69	342	0	10000	1	1	0	1	0
66	343	0	10000	1	1	0	1	0
66	344	0	10000	1	1	0	1	0
67	345	0	10000	1	1	0	1	0
65	346	0	10000	1	1	0	1	0
64	347	0	10000	1	1	0	1	0
67	348	0	10000	1	1	0	1	0
71	349	0	10000	1	1	0	1	0
76	350	0	10000	1	1	0	1	0
83	351	0	10000	1	1	0	1	0
87	352	0	10000	1	1	0	1	0
85	353	0	10000	1	1	0	1	0
83	354	0	10000	1	1	0	1	0
83	355	0	10000	1	1	0	1	0
81	356	0	10000	1	1	0	1	0
79	357	0	10000	1	1	0	1	0
76	358	0	10000	1	1	0	1	0
75	359	0	10000	1	1	0	1	0
75	360	0	10000	1	1	0	1	0
77	361	0	10000	1	1	0	1	0
73	362	0	10000	1	1	0	1	0
71	363	0	10000	1	1	0	1	0
68	364	0	10000	1	1	0	1	0
66	365	0	10000	1	1	0	1	0
64	366	0	10000	1	1	0	1	0
64	367	0	10000	1	1	0	1	0
64	368	0	10000	1	1	0	1	0
64	369	0	10000	1	1	0	1	0
62	370	0	10000	1	1	0	1	0
59	371	0	10000	1	1	0	1	0
59	372	0	10000	1	1	0	1	0
58	373	0	10000	1	1	0	1	0
57	374	0	10000	1	1	0	1	0
56	375	0	10000	1	1	0	1	0
54	376	0	10000	1	1	0	1	0
53	377	0	10000	1	1	0	1	0
53	378	0	10000	1	1	0	1	0
51	379	0	10000	1	1	0	1	0
49	380	0	10000	1	1	0	1	0
51	381	0	10000	1	1	0	1	0
49	382	0	10000	1	1	0	1	0
48	383	0	10000	1	1	0	1	0
46	384	0	10000	1	1	0	1	0
46	385	0	10000	1	1	0	1	0
44	386	0	10000	1	1	0	1	0
43	387	0	10000	1	1	0	1	0
43	388	0	10000	1	1	0	1	0
43	389	0	10000	1	1	0	1	0
41	390	0	10000	1	1	0	1	0
41	391	0	10000	1	1	0	1	0
45	392	0	10000	1	1	0	1	0
46	393	0	10000	1	1	0	1	0
45	394	0	10000	1	1	0	1	0
45	395	0	10000	1	1	0	1	0
44	396	0	10000	1	1	0	1	0
44	397	0	10000	1	1	0	1	0
42	398	0	10000	1	1	0	1	0
41	399	0	10000	1	1	0	1	0
40	400	0	10000	1	1	0	1	0
42	401	0	10000	1	1	0	1	0
41	402	0	10000	1	1	0	1	0
41	403	0	10000	1	1	0	1	0
40	404	0	10000	1	1	0	1	0
39	405	0	10000	1	1	0	1	0
41	406	0	10000	1	1	0	1	0
42	407	0	10000	1	1	0	1	0
43	408	0	10000	1	1	0	1	0
44	409	0	10000	1	1	0	1	0
46	410	0	10000	1	1	0	1	0
47	411	0	10000	1	1	0	1	0
47	412	0	10000	1	1	0	1	0
46	413	0	10000	1	1	0	1	0
45	414	0	10000	1	1	0	1	0
47	415	0	10000	1	1	0	1	0
51	416	0	10000	1	1	0	1	0
52	417	0	10000	1	1	0	1	0
54	418	0	10000	1	1	0	1	0
58	419	0	10000	1	1	0	1	0
59	420	0	10000	1	1	0	1	0
59	421	0	10000	1	1	0	1	0
58	422	0	10000	1	1	0	1	0
59	423	0	10000	1	1	0	1	0
60	424	0	10000	1	1	0	1	0
58	425	0	10000	1	1	0	1	0
57	426	0	10000	1	1	0	1	0
58	427	0	10000	1	1	0	1	0
58	428	0	10000	1	1	0	1	0
62	429	0	10000	1	1	0	1	0
64	430	0	10000	1	1	0	1	0
60	431	0	10000	1	1	0	1	0
59	432	0	10000	1	1	0	1	0
57	433	0	10000	1	1	0	1	0
56	434	0	10000	1	1	0	1	0
56	435	0	10000	1	1	0	1	0
55	436	0	10000	1	1	0	1	0
55	437	0	10000	1	1	0	1	0
56	438	0	10000	1	1	0	1	0
56	439	0	10000	1	1	0	1	0
55	440	0	10000	1	1	0	1	0
56	441	0	10000	1	1	0	1	0
54	442	0	10000	1	1	0	1	0
53	443	0	10000	1	1	0	1	0
52	444	0	10000	1	1	0	1	0
51	445	0	10000	1	1	0	1	0
53	446	0	10000	1	1	0	1	0
55	447	0	10000	1	1	0	1	0
56	448	0	10000	1	1	0	1	0
56	449	0	10000	1	1	0	1	0
55	450	0	10000	1	1	0	1	0
52	451	0	10000	1	1	0	1	0
52	452	0	10000	1	1	0	1	0
51	453	0	10000	1	1	0	1	0
52	454	0	10000	1	1	0	1	0
54	455	0	10000	1	1	0	1	0
55	456	0	10000	1	1	0	1	0
54	457	0	10000	1	1	0	1	0
52	458	0	10000	1	1	0	1	0
50	459	0	10000	1	1	0	1	0
49	460	0	10000	1	1	0	1	0
51	461	0	10000	1	1	0	1	0
49	462	0	10000	1	1	0	1	0
49	463	0	10000	1	1	0	1	0
47	464	0	10000	1	1	0	1	0
47	465	0	10000	1	1	0	1	0
47	466	0	10000	1	1	0	1	0
44	467	0	10000	1	1	0	1	0
45	468	0	10000	1	1	0	1	0
44	469	0	10000	1	1	0	1	0
43	470	0	10000	1	1	0	1	0
41	471	0	10000	1	1	0	1	0
41	472	0	10000	1	1	0	1	0
40	473	0	10000	1	1	0	1	0
40	474	0	10000	1	1	0	1	0
41	475	0	10000	1	1	0	1	0
41	476	0	10000	1	1	0	1	0
42	477	0	10000	1	1	0	1	0
44	478	0	10000	1	1	0	1	0
43	479	0	10000	1	1	0	1	0
45	480	0	10000	1	1	0	1	0
47	481	0	10000	1	1	0	1	0
47	482	0	10000	1	1	0	1	0
51	483	0	10000	1	1	0	1	0
52	484	0	10000	1	1	0	1	0
50	485	0	10000	1	1	0	1	0
49	486	0	10000	1	1	0	1	0
49	487	0	10000	1	1	0	1	0
51	488	0	10000	1	1	0	1	0
55	489	0	10000	1	1	0	1	0
57	490	0	10000	1	1	0	1	0
56	491	0	10000	1	1	0	1	0
55	492	0	10000	1	1	0	1	0
54	493	0	10000	1	1	0	1	0
53	494	0	10000	1	1	0	1	0
52	495	0	10000	1	1	0	1	0
53	496	0	10000	1	1	0	1	0
53	497	0	10000	1	1	0	1	0
51	498	0	10000	1	1	0	1	0
51	499	0	10000	1	1	0	1	0
50	500	0	10000	1	1	0	1	0
53	501	0	10000	1	1	0	1	0
53	540	0	10000	1	1	0	1	1
56	541	0	10000	1	1	0	1	1
54	542	0	10000	1	1	0	1	1
58	543	0	10000	1	1	0	1	1
65	544	0	10000	1	1	0	1	1
69	545	0	10000	1	1	0	1	1
74	546	0	10000	1	1	0	1	1
75	547	0	10000	1	1	0	1	1
75	548	0	10000	1	1	0	1	1
71	549	0	10000	1	1	0	1	1
73	550	0	10000	1	1	0	1	1
74	551	0	10000	1	1	0	1	1
74	552	0	10000	1	1	0	1	1
75	553	0	10000	1	1	0	1	1
76	554	0	10000	1	1	0	1	1
77	555	0	10000	1	1	0	1	1
73	556	0	10000	1	1	0	1	1
72	557	0	10000	1	1	0	1	1
73	558	0	10000	1	1	0	1	1
74	559	0	10000	1	1	0	1	1
70	560	0	10000	1	1	0	1	1
69	561	0	10000	1	1	0	1	1
69	562	0	10000	1	1	0	1	1
70	563	0	10000	1	1	0	1	1
68	564	0	10000	1	1	0	1	1
65	565	0	10000	1	1	0	1	1
64	566	0	10000	1	1	0	1	1
62	567	0	10000	1	1	0	1	1
60	568	0	10000	1	1	0	1	1
57	569	0	10000	1	1	0	1	1
56	570	0	10000	1	1	0	1	1
55	571	0	10000	1	1	0	1	1
56	572	0	10000	1	1	0	1	1
57	573	0	10000	1	1	0	1	1
56	574	0	10000	1	1	0	1	1
55	575	0	10000	1	1	0	1	1
53	576	0	10000	1	1	0	1	1
51	577	0	10000	1	1	0	1	1
50	578	0	10000	1	1	0	1	1
50	579	0	10000	1	1	0	1	1
49	546	0	10000	1	1	0	1	1
48	547	0	10000	1	1	0	1	1
46	548	0	10000	1	1	0	1	1
47	549	0	10000	1	1	0	1	1
50	550	0	10000	1	1	0	1	1
49	551	0	10000	1	1	0	1	1
49	548	0	10000	1	1	0	1	1
51	549	0	10000	1	1	0	1	1
52	550	0	10000	1	1	0	1	1
51	551	0	10000	1	1	0	1	1
50	552	0	10000	1	1	0	1	0
51	553	0	10000	1	1	0	1	0
54	554	0	10000	1	1	0	1	0
59	555	0	10000	1	1	0	1	0
60	556	0	10000	1	1	0	1	0
61	557	0	10000	1	1	0	1	0
64	558	0	10000	1	1	0	1	0
67	559	0	10000	1	1	0	1	0
68	560	0	10000	1	1	0	1	0
68	561	0	10000	1	1	0	1	0
66	562	0	10000	1	1	0	1	0
64	563	0	10000	1	1	0	1	0
62	564	0	10000	1	1	0	1	0
61	565	0	10000	1	1	0	1	0
61	566	0	10000	1	1	0	1	0
59	567	0	10000	1	1	0	1	0
59	568	0	10000	1	1	0	1	0
58	569	0	10000	1	1	0	1	0
58	570	0	10000	1	1	0	1	0
55	571	0	10000	1	1	0	1	0
54	572	0	10000	1	1	0	1	0
54	573	0	10000	1	1	0	1	0
53	574	0	10000	1	1	0	1	0
52	575	0	10000	1	1	0	1	0
51	576	0	10000	1	1	0	1	0
50	577	0	10000	1	1	0	1	0
47	578	0	10000	1	1	0	1	0
46	579	0	10000	1	1	0	1	0
45	580	0	10000	1	1	0	1	0
47	581	0	10000	1	1	0	1	0
48	582	0	10000	1	1	0	1	0
49	583	0	10000	1	1	0	1	0
50	584	0	10000	1	1	0	1	0
50	585	0	10000	1	1	0	1	0
51	586	0	10000	1	1	0	1	0
50	587	0	10000	1	1	0	1	0
51	588	0	10000	1	1	0	1	0
49	589	0	10000	1	1	0	1	0
49	590	0	10000	1	1	0	1	0
47	591	0	10000	1	1	0	1	0
47	592	0	10000	1	1	0	1	0
49	593	0	10000	1	1	0	1	0
50	594	0	10000	1	1	0	1	0
51	595	0	10000	1	1	0	1	0
51	596	0	10000	1	1	0	1	0
51	597	0	10000	1	1	0	1	0
52	598	0	10000	1	1	0	1	0
53	599	0	10000	1	1	0	1	0
53	600	0	10000	1	1	0	1	0
54	601	0	10000	1	1	0	1	0
52	602	0	10000	1	1	0	1	0
51	603	0	10000	1	1	0	1	0
49	604	0	10000	1	1	0	1	0
51	605	0	10000	1	1	0	1	0
51	606	0	10000	1	1	0	1	0
52	607	0	10000	1	1	0	1	0
52	608	0	10000	1	1	0	1	0
51	609	0	10000	1	1	0	1	0
51	610	0	10000	1	1	0	1	0
50	611	0	10000	1	1	0	1	0
52	612	0	10000	1	1	0	1	0
55	613	0	10000	1	1	0	1	0
58	614	0	10000	1	1	0	1	0
60	615	0	10000	1	1	0	1	0
59	616	0	10000	1	1	0	1	0
58	617	0	10000	1	1	0	1	0
58	618	0	10000	1	1	0	1	0
59	619	0	10000	1	1	0	1	0
60	620	0	10000	1	1	0	1	0
60	621	0	10000	1	1	0	1	0
59	622	0	10000	1	1	0	1	0
57	623	0	10000	1	1	0	1	0
57	624	0	10000	1	1	0	1	0
59	625	0	10000	1	1	0	1	0
59	626	0	10000	1	1	0	1	0
58	627	0	10000	1	1	0	1	0
58	628	0	10000	1	1	0	1	0
58	629	0	10000	1	1	0	1	0
59	630	0	10000	1	1	0	1	0
60	631	0	10000	1	1	0	1	0
64	632	0	10000	1	1	0	1	0
66	633	0	10000	1	1	0	1	0
68	634	0	10000	1	1	0	1	0
82	635	0	10000	1	1	0	1	0
116	636	0	10000	1	1	0	1	0
132	637	0	10000	1	1	0	1	0
130	638	0	10000	1	1	0	1	0
134	639	0	10000	1	1	0	1	0
134	640	0	10000	1	1	0	1	0
147	641	0	10000	1	1	0	1	0
153	642	0	10000	1	1	0	1	0
176	643	0	10000	1	1	0	1	0
242	644	0	10000	1	1	0	1	0
266	645	0	10000	1	1	0	1	0
270	646	0	10000	1	1	0	1	0
301	647	0	10000	1	1	0	1	0
336	648	0	10000	1	1	0	1	0
368	649	0	10000	1	1	0	1	0
379	650	0	10000	1	1	0	1	0
374	651	0	10000	1	1	0	1	0
368	652	0	10000	1	1	0	1	0
361	653	0	10000	1	1	0	1	0
347	654	0	10000	1	1	0	1	0
347	655	0	10000	1	1	0	1	0
356	656	0	10000	1	1	0	1	0
346	657	0	10000	1	1	0	1	0
344	658	0	10000	1	1	0	1	0
365	659	0	10000	1	1	0	1	0
362	660	0	10000	1	1	0	1	0
386	661	0	10000	1	1	0	1	0
398	662	0	10000	1	1	0	1	0
394	663	0	10000	1	1	0	1	0
380	664	0	10000	1	1	0	1	0
370	665	0	10000	1	1	0	1	0
356	666	0	10000	1	1	0	1	0
340	667	0	10000	1	1	0	1	0
329	668	0	10000	1	1	0	1	0
315	669	0	10000	1	1	0	1	0
301	670	0	10000	1	1	0	1	0
290	671	0	10000	1	1	0	1	0
285	672	0	10000	1	1	0	1	0
281	673	0	10000	1	1	0	1	0
272	674	0	10000	1	1	0	1	0
260	675	0	10000	1	1	0	1	0
249	676	0	10000	1	1	0	1	0
238	677	0	10000	1	1	0	1	0
227	678	0	10000	1	1	0	1	0
217	679	0	10000	1	1	0	1	0
209	680	0	10000	1	1	0	1	0
202	681	0	10000	1	1	0	1	0
194	682	0	10000	1	1	0	1	0
186	683	0	10000	1	1	0	1	0
181	684	0	10000	1	1	0	1	0
177	685	0	10000	1	1	0	1	0
171	686	0	10000	1	1	0	1	0
165	687	0	10000	1	1	0	1	0
159	688	0	10000	1	1	0	1	0
156	689	0	10000	1	1	0	1	0
154	690	0	10000	1	1	0	1	0
148	691	0	10000	1	1	0	1	0
143	692	0	10000	1	1	0	1	0
141	693	0	10000	1	1	0	1	0
141	694	0	10000	1	1	0	1	0
141	695	0	10000	1	1	0	1	0
137	696	0	10000	1	1	0	1	0
132	697	0	10000	1	1	0	1	0
127	698	0	10000	1	1	0	1	0
125	699	0	10000	1	1	0	1	0
122	700	0	10000	1	1	0	1	0
120	701	0	10000	1	1	0	1	0
115	702	0	10000	1	1	0	1	0
111	703	0	10000	1	1	0	1	0
108	704	0	10000	1	1	0	1	0
104	705	0	10000	1	1	0	1	0
102	706	0	10000	1	1	0	1	0
104	707	0	10000	1	1	0	1	0
105	708	0	10000	1	1	0	1	0
105	709	0	10000	1	1	0	1	0
102	710	0	10000	1	1	0	1	0
98	711	0	10000	1	1	0	1	0
98	712	0	10000	1	1	0	1	0
96	713	0	10000	1	1	0	1	0
93	714	0	10000	1	1	0	1	0
90	715	0	10000	1	1	0	1	0
87	716	0	10000	1	1	0	1	0
85	717	0	10000	1	1	0	1	0
83	718	0	10000	1	1	0	1	0
80	719	0	10000	1	1	0	1	0
77	720	0	10000	1	1	0	1	0
77	721	0	10000	1	1	0	1	0
75	722	0	10000	1	1	0	1	0
74	723	0	10000	1	1	0	1	0
77	724	0	10000	1	1	0	1	0
85	725	0	10000	1	1	0	1	0
86	726	0	10000	1	1	0	1	0
86	727	0	10000	1	1	0	1	0
84	728	0	10000	1	1	0	1	0
81	729	0	10000	1	1	0	1	0
80	730	0	10000	1	1	0	1	0
80	731	0	10000	1	1	0	1	0
81	732	0	10000	1	1	0	1	0
84	733	0	10000	1	1	0	1	0
86	734	0	10000	1	1	0	1	0
87	735	0	10000	1	1	0	1	0
86	736	0	10000	1	1	0	1	0
84	737	0	10000	1	1	0	1	0
81	738	0	10000	1	1	0	1	0
78	739	0	10000	1	1	0	1	0
75	740	0	10000	1	1	0	1	0
76	741	0	10000	1	1	0	1	0
72	742	0	10000	1	1	0	1	0
70	743	0	10000	1	1	0	1	0
68	744	0	10000	1	1	0	1	0
67	745	0	10000	1	1	0	1	0
70	746	0	10000	1	1	0	1	0
73	747	0	10000	1	1	0	1	0
71	748	0	10000	1	1	0	1	0
69	749	0	10000	1	1	0	1	0
67	750	0	10000	1	1	0	1	0
63	751	0	10000	1	1	0	1	0
62	752	0	10000	1	1	0	1	0
61	753	0	10000	1	1	0	1	0
59	754	0	10000	1	1	0	1	0
58	755	0	10000	1	1	0	1	0
56	756	0	10000	1	1	0	1	0
56	757	0	10000	1	1	0	1	0
58	758	0	10000	1	1	0	1	0
59	759	0	10000	1	1	0	1	0
60	760	0	10000	1	1	0	1	0
64	761	0	10000	1	1	0	1	0
62	762	0	10000	1	1	0	1	0
61	763	0	10000	1	1	0	1	0
61	764	0	10000	1	1	0	1	0
59	765	0	10000	1	1	0	1	0
56	766	0	10000	1	1	0	1	0
55	767	0	10000	1	1	0	1	0
55	768	0	10000	1	1	0	1	0
57	769	0	10000	1	1	0	1	0
60	770	0	10000	1	1	0	1	0
61	771	0	10000	1	1	0	1	0
63	772	0	10000	1	1	0	1	0
63	773	0	10000	1	1	0	1	0
62	774	0	10000	1	1	0	1	0
61	775	0	10000	1	1	0	1	0
62	776	0	10000	1	1	0	1	0
63	777	0	10000	1	1	0	1	0
61	778	0	10000	1	1	0	1	0
58	779	0	10000	1	1	0	1	0
56	780	0	10000	1	1	0	1	0
58	781	0	10000	1	1	0	1	0
57	782	0	10000	1	1	0	1	0
58	783	0	10000	1	1	0	1	0
56	784	0	10000	1	1	0	1	0
55	785	0	10000	1	1	0	1	0
57	786	0	10000	1	1	0	1	0
58	787	0	10000	1	1	0	1	0
57	788	0	10000	1	1	0	1	0
58	789	0	10000	1	1	0	1	0
59	790	0	10000	1	1	0	1	0
60	791	0	10000	1	1	0	1	0
63	792	0	10000	1	1	0	1	0
63	793	0	10000	1	1	0	1	0
61	794	0	10000	1	1	0	1	0
60	795	0	10000	1	1	0	1	0
59	796	0	10000	1	1	0	1	0
57	797	0	10000	1	1	0	1	0
57	798	0	10000	1	1	0	1	0
54	799	0	10000	1	1	0	1	0
53	800	0	10000	1	1	0	1	0
54	801	0	10000	1	1	0	1	0
52	802	0	10000	1	1	0	1	0
50	803	0	10000	1	1	0	1	0
51	804	0	10000	1	1	0	1	0
53	805	0	10000	1	1	0	1	0
54	806	0	10000	1	1	0	1	0
53	807	0	10000	1	1	0	1	0
53	808	0	10000	1	1	0	1	0
52	809	0	10000	1	1	0	1	0
51	810	0	10000	1	1	0	1	0
49	811	0	10000	1	1	0	1	0
53	812	0	10000	1	1	0	1	0
58	813	0	10000	1	1	0	1	0
62	814	0	10000	1	1	0	1	0
68	815	0	10000	1	1	0	1	0
71	816	0	10000	1	1	0	1	0
71	817	0	10000	1	1	0	1	0
71	818	0	10000	1	1	0	1	0
74	819	0	10000	1	1	0	1	0
80	820	0	10000	1	1	0	1	0
83	821	0	10000	1	1	0	1	0
82	822	0	10000	1	1	0	1	0
82	823	0	10000	1	1	0	1	0
82	824	0	10000	1	1	0	1	0
81	825	0	10000	1	1	0	1	0
80	826	0	10000	1	1	0	1	0
77	827	0	10000	1	1	0	1	0
75	828	0	10000	1	1	0	1	0
73	829	0	10000	1	1	0	1	0
71	830	0	10000	1	1	0	1	0
67	831	0	10000	1	1	0	1	0
66	832	0	10000	1	1	0	1	0
63	833	0	10000	1	1	0	1	0
62	834	0	10000	1	1	0	1	0
61	835	0	10000	1	1	0	1	0
60	836	0	10000	1	1	0	1	0
59	837	0	10000	1	1	0	1	0
58	838	0	10000	1	1	0	1	0
56	839	0	10000	1	1	0	1	0
55	840	0	10000	1	1	0	1	0
59	841	0	10000	1	1	0	1	0
59	842	0	10000	1	1	0	1	0
59	843	0	10000	1	1	0	1	0
59	844	0	10000	1	1	0	1	0
58	845	0	10000	1	1	0	1	0
56	846	0	10000	1	1	0	1	0
55	847	0	10000	1	1	0	1	0
60	848	0	10000	1	1	0	1	0
65	849	0	10000	1	1	0	1	0
69	850	0	10000	1	1	0	1	0
68	851	0	10000	1	1	0	1	0
67	852	0	10000	1	1	0	1	0
65	853	0	10000	1	1	0	1	0
64	854	0	10000	1	1	0	1	0
61	855	0	10000	1	1	0	1	0
59	856	0	10000	1	1	0	1	0
58	857	0	10000	1	1	0	1	0
56	858	0	10000	1	1	0	1	0
55	859	0	10000	1	1	0	1	0
54	860	0	10000	1	1	0	1	0
55	861	0	10000	1	1	0	1	0
56	862	0	10000	1	1	0	1	0
59	863	0	10000	1	1	0	1	0
58	864	0	10000	1	1	0	1	0
57	865	0	10000	1	1	0	1	0
57	866	0	10000	1	1	0	1	0
57	867	0	10000	1	1	0	1	0
59	868	0	10000	1	1	0	1	0
62	869	0	10000	1	1	0	1	0
60	870	0	10000	1	1	0	1	0
56	871	0	10000	1	1	0	1	0
56	872	0	10000	1	1	0	1	0
54	873	0	10000	1	1	0	1	0
56	874	0	10000	1	1	0	1	0
56	875	0	10000	1	1	0	1	0
57	876	0	10000	1	1	0	1	0
61	877	0	10000	1	1	0	1	0
61	878	0	10000	1	1	0	1	0
62	879	0	10000	1	1	0	1	0
60	880	0	10000	1	1	0	1	0
62	881	0	10000	1	1	0	1	0
63	882	0	10000	1	1	0	1	0
62	883	0	10000	1	1	0	1	0
60	884	0	10000	1	1	0	1	0
58	885	0	10000	1	1	0	1	0
57	886	0	10000	1	1	0	1	0
54	887	0	10000	1	1	0	1	0
53	888	0	10000	1	1	0	1	0
55	889	0	10000	1	1	0	1	0
55	890	0	10000	1	1	0	1	0
53	891	0	10000	1	1	0	1	0
53	892	0	10000	1	1	0	1	0
51	893	0	10000	1	1	0	1	0
51	894	0	10000	1	1	0	1	0
51	895	0	10000	1	1	0	1	0
53	896	0	10000	1	1	0	1	0
54	897	0	10000	1	1	0	1	0
53	898	0	10000	1	1	0	1	0
53	899	0	10000	1	1	0	1	0
53	900	0	10000	1	1	0	1	0
54	901	0	10000	1	1	0	1	0
51	902	0	10000	1	1	0	1	0
52	903	0	10000	1	1	0	1	0
50	904	0	10000	1	1	0	1	0
49	905	0	10000	1	1	0	1	0
48	906	0	10000	1	1	0	1	0
46	907	0	10000	1	1	0	1	0
46	908	0	10000	1	1	0	1	0
46	909	0	10000	1	1	0	1	0
46	910	0	10000	1	1	0	1	0
45	911	0	10000	1	1	0	1	0
46	912	0	10000	1	1	0	1	0
45	913	0	10000	1	1	0	1	0
44	914	0	10000	1	1	0	1	0
43	915	0	10000	1	1	0	1	0
42	916	0	10000	1	1	0	1	0
42	917	0	10000	1	1	0	1	0
40	918	0	10000	1	1	0	1	0
40	919	0	10000	1	1	0	1	0
39	920	0	10000	1	1	0	1	0
40	921	0	10000	1	1	0	1	0
41	922	0	10000	1	1	0	1	0
41	923	0	10000	1	1	0	1	0
42	924	0	10000	1	1	0	1	0
44	925	0	10000	1	1	0	1	0
43	926	0	10000	1	1	0	1	0
47	927	0	10000	1	1	0	1	0
53	928	0	10000	1	1	0	1	0
54	929	0	10000	1	1	0	1	0
53	930	0	10000	1	1	0	1	0
50	931	0	10000	1	1	0	1	0
50	932	0	10000	1	1	0	1	0
49	933	0	10000	1	1	0	1	0
48	934	0	10000	1	1	0	1	0
47	935	0	10000	1	1	0	1	0
46	936	0	10000	1	1	0	1	0
46	937	0	10000	1	1	0	1	0
44	938	0	10000	1	1	0	1	0
44	939	0	10000	1	1	0	1	0
44	940	0	10000	1	1	0	1	0
44	941	0	10000	1	1	0	1	0
42	942	0	10000	1	1	0	1	0
42	943	0	10000	1	1	0	1	0
41	944	0	10000	1	1	0	1	0
41	945	0	10000	1	1	0	1	0
42	946	0	10000	1	1	0	1	0
41	947	0	10000	1	1	0	1	0
42	948	0	10000	1	1	0	1	0
44	949	0	10000	1	1	0	1	0
46	950	0	10000	1	1	0	1	0
44	951	0	10000	1	1	0	1	0
44	952	0	10000	1	1	0	1	0
44	953	0	10000	1	1	0	1	0
43	954	0	10000	1	1	0	1	0
42	955	0	10000	1	1	0	1	0
41	956	0	10000	1	1	0	1	0
43	957	0	10000	1	1	0	1	0
44	958	0	10000	1	1	0	1	0
54	959	0	10000	1	1	0	1	0
63	960	0	10000	1	1	0	1	0
66	961	0	10000	1	1	0	1	0
64	962	0	10000	1	1	0	1	0
66	963	0	10000	1	1	0	1	0
66	964	0	10000	1	1	0	1	0
67	965	0	10000	1	1	0	1	0
67	966	0	10000	1	1	0	1	0
68	967	0	10000	1	1	0	1	0
69	968	0	10000	1	1	0	1	0
67	969	0	10000	1	1	0	1	0
66	970	0	10000	1	1	0	1	0
63	971	0	10000	1	1	0	1	0
63	972	0	10000	1	1	0	1	0
62	973	0	10000	1	1	0	1	0
61	974	0	10000	1	1	0	1	0
61	975	0	10000	1	1	0	1	0
62	976	0	10000	1	1	0	1	0
63	977	0	10000	1	1	0	1	0
61	978	0	10000	1	1	0	1	0
60	979	0	10000	1	1	0	1	0
58	980	0	10000	1	1	0	1	0
58	981	0	10000	1	1	0	1	0
56	982	0	10000	1	1	0	1	0
55	983	0	10000	1	1	0	1	0
55	984	0	10000	1	1	0	1	0
58	985	0	10000	1	1	0	1	0
58	986	0	10000	1	1	0	1	0
58	987	0	10000	1	1	0	1	0
58	988	0	10000	1	1	0	1	0
56	989	0	10000	1	1	0	1	0
56	990	0	10000	1	1	0	1	0
55	991	0	10000	1	1	0	1	0
53	992	0	10000	1	1	0	1	0
53	993	0	10000	1	1	0	1	0
52	994	0	10000	1	1	0	1	0
51	995	0	10000	1	1	0	1	0
54	996	0	10000	1	1	0	1	0
55	997	0	10000	1	1	0	1	0
53	998	0	10000	1	1	0	1	0
52	999	0	10000	1	1	0	1	0
51	1000	0	10000	1	1	0	1	0
54	1001	0	10000	1	1	0	1	0
32	2	10	10000	2	1	0	2	0
33	3	10	10000	2	1	0	2	0
33	4	10	10000	2	1	0	2	0
33	5	10	10000	2	1	0	2	0
34	6	10	10000	2	1	0	2	0
32	7	10	10000	2	1	0	2	0
32	8	10	10000	2	1	0	2	0
33	9	10	10000	2	1	0	2	0
32	10	10	10000	2	1	0	2	0
33	11	10	10000	2	1	0	2	0
36	12	10	10000	2	1	0	2	0
34	13	10	10000	2	1	0	2	0
34	14	10	10000	2	1	0	2	0
33	15	10	10000	2	1	0	2	0
33	16	10	10000	2	1	0	2	0
34	17	10	10000	2	1	0	2	0
37	18	10	10000	2	1	0	2	0
37	19	10	10000	2	1	0	2	0
37	20	10	10000	2	1	0	2	0
36	21	10	10000	2	1	0	2	0
35	22	10	10000	2	1	0	2	0
36	23	10	10000	2	1	0	2	0
35	24	10	10000	2	1	0	2	0
34	25	10	10000	2	1	0	2	0
34	26	10	10000	2	1	0	2	0
34	27	10	10000	2	1	0	2	0
33	36	10	10000	2	1	0	2	0
32	37	10	10000	2	1	0	2	0
32	38	10	10000	2	1	0	2	0
32	39	10	10000	2	1	0	2	0
32	40	10	10000	2	1	0	2	0
30	41	10	10000	2	1	0	2	0
29	42	10	10000	2	1	0	2	0
30	43	10	10000	2	1	0	2	0
30	44	10	10000	2	1	0	2	0
29	45	10	10000	2	1	0	2	0
28	44	10	10000	2	1	0	2	0
29	45	10	10000	2	1	0	2	0
29	46	10	10000	2	1	0	2	0
30	47	10	10000	2	1	0	2	0
30	48	10	10000	2	1	0	2	0
32	49	10	10000	2	1	0	2	0
32	50	10	10000	2	1	0	2	0
33	51	10	10000	2	1	0	2	0
32	51	10	10000	2	1	0	2	0
32	52	10	10000	2	1	0	2	0
31	53	10	10000	2	1	0	2	0
31	54	10	10000	2	1	0	2	0
31	55	10	10000	2	1	0	2	0
32	56	10	10000	2	1	0	2	0
33	58	10	10000	2	1	0	2	0
31	59	10	10000	2	1	0	2	0
32	60	10	10000	2	1	0	2	0
32	61	10	10000	2	1	0	2	0
32	62	10	10000	2	1	0	2	0
32	63	10	10000	2	1	0	2	0
32	64	10	10000	2	1	0	2	0
32	65	10	10000	2	1	0	2	0
32	63	10	10000	2	1	0	2	0
32	64	10	10000	2	1	0	2	0
32	65	10	10000	2	1	0	2	0
33	66	10	10000	2	1	0	2	0
33	70	10	10000	2	1	0	2	0
32	71	10	10000	2	1	0	2	0
32	72	10	10000	2	1	0	2	0
32	73	10	10000	2	1	0	2	0
31	74	10	10000	2	1	0	2	0
31	75	10	10000	2	1	0	2	0
31	76	10	10000	2	1	0	2	0
32	77	10	10000	2	1	0	2	0
32	75	10	10000	2	1	0	2	0
31	76	10	10000	2	1	0	2	0
32	77	10	10000	2	1	0	2	0
34	78	10	10000	2	1	0	2	0
36	80	10	10000	2	1	0	2	0
38	81	10	10000	2	1	0	2	0
37	82	10	10000	2	1	0	2	0
37	83	10	10000	2	1	0	2	0
37	84	10	10000	2	1	0	2	0
36	85	10	10000	2	1	0	2	0
36	87	10	10000	2	1	0	2	0
38	88	10	10000	2	1	0	2	0
38	89	10	10000	2	1	0	2	0
38	90	10	10000	2	1	0	2	0
37	91	10	10000	2	1	0	2	0
37	92	10	10000	2	1	0	2	0
36	91	10	10000	2	1	0	2	0
35	92	10	10000	2	1	0	2	0
35	93	10	10000	2	1	0	2	0
35	94	10	10000	2	1	0	2	0
35	98	10	10000	2	1	0	2	0
33	99	10	10000	2	1	0	2	0
34	100	10	10000	2	1	0	2	0
33	101	10	10000	2	1	0	2	0
33	102	10	10000	2	1	0	2	0
33	103	10	10000	2	1	0	2	0
32	104	10	10000	2	1	0	2	0
33	105	10	10000	2	1	0	2	0
32	102	10	10000	2	1	0	2	0
32	103	10	10000	2	1	0	2	0
34	104	10	10000	2	1	0	2	0
38	105	10	10000	2	1	0	2	0
39	110	10	10000	2	1	0	2	0
38	111	10	10000	2	1	0	2	0
38	112	10	10000	2	1	0	2	0
37	113	10	10000	2	1	0	2	0
36	114	10	10000	2	1	0	2	0
37	115	10	10000	2	1	0	2	0
38	116	10	10000	2	1	0	2	0
39	117	10	10000	2	1	0	2	0
40	114	10	10000	2	1	0	2	0
37	115	10	10000	2	1	0	2	0
39	116	10	10000	2	1	0	2	0
38	117	10	10000	2	1	0	2	0
37	120	10	10000	2	1	0	2	0
36	121	10	10000	2	1	0	2	0
36	122	10	10000	2	1	0	2	0
35	123	10	10000	2	1	0	2	0
37	124	10	10000	2	1	0	2	0
35	125	10	10000	2	1	0	2	0
35	126	10	10000	2	1	0	2	0
37	127	10	10000	2	1	0	2	0
36	128	10	10000	2	1	0	2	0
35	129	10	10000	2	1	0	2	0
35	130	10	10000	2	1	0	2	0
34	131	10	10000	2	1	0	2	0
34	131	10	10000	2	1	0	2	0
33	132	10	10000	2	1	0	2	0
35	133	10	10000	2	1	0	2	0
37	134	10	10000	2	1	0	2	0
37	137	10	10000	2	1	0	2	0
36	138	10	10000	2	1	0	2	0
37	139	10	10000	2	1	0	2	0
37	140	10	10000	2	1	0	2	0
37	141	10	10000	2	1	0	2	0
36	142	10	10000	2	1	0	2	0
36	142	10	10000	2	1	0	2	0
34	143	10	10000	2	1	0	2	0
34	144	10	10000	2	1	0	2	0
33	145	10	10000	2	1	0	2	0
33	146	10	10000	2	1	0	2	0
36	147	10	10000	2	1	0	2	0
37	149	10	10000	2	1	0	2	0
37	150	10	10000	2	1	0	2	0
36	151	10	10000	2	1	0	2	0
38	152	10	10000	2	1	0	2	0
41	153	10	10000	2	1	0	2	0
39	154	10	10000	2	1	0	2	0
39	153	10	10000	2	1	0	2	0
39	154	10	10000	2	1	0	2	0
38	155	10	10000	2	1	0	2	0
35	156	10	10000	2	1	0	2	0
36	160	10	10000	2	1	0	2	0
36	161	10	10000	2	1	0	2	0
35	162	10	10000	2	1	0	2	0
35	163	10	10000	2	1	0	2	0
34	164	10	10000	2	1	0	2	0
35	165	10	10000	2	1	0	2	0
35	166	10	10000	2	1	0	2	0
34	167	10	10000	2	1	0	2	0
33	164	10	10000	2	1	0	2	0
35	165	10	10000	2	1	0	2	0
34	166	10	10000	2	1	0	2	0
35	167	10	10000	2	1	0	2	0
36	169	10	10000	2	1	0	2	0
37	170	10	10000	2	1	0	2	0
40	171	10	10000	2	1	0	2	0
39	172	10	10000	2	1	0	2	0
39	170	10	10000	2	1	0	2	0
39	171	10	10000	2	1	0	2	0
40	172	10	10000	2	1	0	2	0
39	173	10	10000	2	1	0	2	0
41	174	10	10000	2	1	0	2	0
41	175	10	10000	2	1	0	2	0
40	176	10	10000	2	1	0	2	0
40	177	10	10000	2	1	0	2	0
40	178	10	10000	2	1	0	2	0
39	179	10	10000	2	1	0	2	0
37	180	10	10000	2	1	0	2	0
37	181	10	10000	2	1	0	2	0
36	182	10	10000	2	1	0	2	0
39	183	10	10000	2	1	0	2	0
38	184	10	10000	2	1	0	2	0
37	185	10	10000	2	1	0	2	0
35	186	10	10000	2	1	0	2	0
35	187	10	10000	2	1	0	2	0
35	188	10	10000	2	1	0	2	0
34	189	10	10000	2	1	0	2	0
35	190	10	10000	2	1	0	2	0
35	191	10	10000	2	1	0	2	0
35	192	10	10000	2	1	0	2	0
33	193	10	10000	2	1	0	2	0
33	194	10	10000	2	1	0	2	0
32	195	10	10000	2	1	0	2	0
33	196	10	10000	2	1	0	2	0
35	197	10	10000	2	1	0	2	0
36	198	10	10000	2	1	0	2	0
38	199	10	10000	2	1	0	2	0
39	200	10	10000	2	1	0	2	0
42	201	10	10000	2	1	0	2	0
46	202	10	10000	2	1	0	2	0
50	203	10	10000	2	1	0	2	0
51	204	10	10000	2	1	0	2	0
49	205	10	10000	2	1	0	2	0
48	206	10	10000	2	1	0	2	0
47	207	10	10000	2	1	0	2	0
47	208	10	10000	2	1	0	2	0
47	209	10	10000	2	1	0	2	0
46	210	10	10000	2	1	0	2	0
46	211	10	10000	2	1	0	2	0
48	212	10	10000	2	1	0	2	0
46	213	10	10000	2	1	0	2	0
46	214	10	10000	2	1	0	2	0
46	215	10	10000	2	1	0	2	0
45	216	10	10000	2	1	0	2	0
44	217	10	10000	2	1	0	2	0
43	218	10	10000	2	1	0	2	0
43	219	10	10000	2	1	0	2	0
41	220	10	10000	2	1	0	2	0
40	221	10	10000	2	1	0	2	0
39	222	10	10000	2	1	0	2	0
39	223	10	10000	2	1	0	2	0
39	224	10	10000	2	1	0	2	0
38	225	10	10000	2	1	0	2	0
37	226	10	10000	2	1	0	2	0
38	227	10	10000	2	1	0	2	0
37	228	10	10000	2	1	0	2	0
36	229	10	10000	2	1	0	2	0
37	230	10	10000	2	1	0	2	0
37	231	10	10000	2	1	0	2	0
37	232	10	10000	2	1	0	2	0
34	233	10	10000	2	1	0	2	0
34	234	10	10000	2	1	0	2	0
33	235	10	10000	2	1	0	2	0
34	236	10	10000	2	1	0	2	0
33	237	10	10000	2	1	0	2	0
34	238	10	10000	2	1	0	2	0
34	239	10	10000	2	1	0	2	0
32	240	10	10000	2	1	0	2	0
32	241	10	10000	2	1	0	2	0
32	242	10	10000	2	1	0	2	0
33	243	10	10000	2	1	0	2	0
33	244	10	10000	2	1	0	2	0
32	245	10	10000	2	1	0	2	0
31	246	10	10000	2	1	0	2	0
32	247	10	10000	2	1	0	2	0
34	248	10	10000	2	1	0	2	0
36	249	10	10000	2	1	0	2	0
38	250	10	10000	2	1	0	2	0
39	251	10	10000	2	1	0	2	0
40	252	10	10000	2	1	0	2	0
37	253	10	10000	2	1	0	2	0
38	254	10	10000	2	1	0	2	0
38	255	10	10000	2	1	0	2	0
39	256	10	10000	2	1	0	2	0
39	257	10	10000	2	1	0	2	0
38	258	10	10000	2	1	0	2	0
39	259	10	10000	2	1	0	2	0
37	260	10	10000	2	1	0	2	0
36	261	10	10000	2	1	0	2	0
38	262	10	10000	2	1	0	2	0
42	263	10	10000	2	1	0	2	0
44	264	10	10000	2	1	0	2	0
44	265	10	10000	2	1	0	2	0
43	266	10	10000	2	1	0	2	0
43	267	10	10000	2	1	0	2	0
43	268	10	10000	2	1	0	2	0
42	269	10	10000	2	1	0	2	0
43	270	10	10000	2	1	0	2	0
42	271	10	10000	2	1	0	2	0
41	272	10	10000	2	1	0	2	0
38	273	10	10000	2	1	0	2	0
37	274	10	10000	2	1	0	2	0
38	275	10	10000	2	1	0	2	0
39	276	10	10000	2	1	0	2	0
39	277	10	10000	2	1	0	2	0
38	278	10	10000	2	1	0	2	0
38	279	10	10000	2	1	0	2	0
37	280	10	10000	2	1	0	2	0
36	281	10	10000	2	1	0	2	0
35	282	10	10000	2	1	0	2	0
36	283	10	10000	2	1	0	2	0
35	284	10	10000	2	1	0	2	0
34	285	10	10000	2	1	0	2	0
34	286	10	10000	2	1	0	2	0
34	287	10	10000	2	1	0	2	0
34	288	10	10000	2	1	0	2	0
33	289	10	10000	2	1	0	2	0
35	290	10	10000	2	1	0	2	0
35	291	10	10000	2	1	0	2	0
38	292	10	10000	2	1	0	2	0
36	293	10	10000	2	1	0	2	0
36	294	10	10000	2	1	0	2	0
37	295	10	10000	2	1	0	2	0
41	296	10	10000	2	1	0	2	0
44	297	10	10000	2	1	0	2	0
45	298	10	10000	2	1	0	2	0
45	299	10	10000	2	1	0	2	0
44	300	10	10000	2	1	0	2	0
44	301	10	10000	2	1	0	2	0
45	302	10	10000	2	1	0	2	0
45	303	10	10000	2	1	0	2	0
44	304	10	10000	2	1	0	2	0
43	305	10	10000	2	1	0	2	0
42	306	10	10000	2	1	0	2	0
42	307	10	10000	2	1	0	2	0
40	308	10	10000	2	1	0	2	0
39	309	10	10000	2	1	0	2	0
39	310	10	10000	2	1	0	2	0
39	311	10	10000	2	1	0	2	0
38	312	10	10000	2	1	0	2	0
37	313	10	10000	2	1	0	2	0
36	314	10	10000	2	1	0	2	0
36	315	10	10000	2	1	0	2	0
35	316	10	10000	2	1	0	2	0
35	317	10	10000	2	1	0	2	0
34	318	10	10000	2	1	0	2	0
34	319	10	10000	2	1	0	2	0
33	320	10	10000	2	1	0	2	0
34	321	10	10000	2	1	0	2	0
34	322	10	10000	2	1	0	2	0
36	323	10	10000	2	1	0	2	0
36	324	10	10000	2	1	0	2	0
35	325	10	10000	2	1	0	2	0
33	326	10	10000	2	1	0	2	0
33	327	10	10000	2	1	0	2	0
33	328	10	10000	2	1	0	2	0
34	329	10	10000	2	1	0	2	0
35	330	10	10000	2	1	0	2	0
35	331	10	10000	2	1	0	2	0
35	332	10	10000	2	1	0	2	0
32	333	10	10000	2	1	0	2	0
33	334	10	10000	2	1	0	2	0
35	335	10	10000	2	1	0	2	0
37	336	10	10000	2	1	0	2	0
37	337	10	10000	2	1	0	2	0
37	338	10	10000	2	1	0	2	0
38	339	10	10000	2	1	0	2	0
37	340	10	10000	2	1	0	2	0
38	341	10	10000	2	1	0	2	0
35	342	10	10000	2	1	0	2	0
37	343	10	10000	2	1	0	2	0
39	344	10	10000	2	1	0	2	0
37	345	10	10000	2	1	0	2	0
36	346	10	10000	2	1	0	2	0
35	347	10	10000	2	1	0	2	0
35	348	10	10000	2	1	0	2	0
34	349	10	10000	2	1	0	2	0
34	350	10	10000	2	1	0	2	0
33	351	10	10000	2	1	0	2	0
33	352	10	10000	2	1	0	2	0
31	353	10	10000	2	1	0	2	0
31	354	10	10000	2	1	0	2	0
31	355	10	10000	2	1	0	2	0
31	356	10	10000	2	1	0	2	0
32	357	10	10000	2	1	0	2	0
32	358	10	10000	2	1	0	2	0
32	359	10	10000	2	1	0	2	0
30	360	10	10000	2	1	0	2	0
30	361	10	10000	2	1	0	2	0
29	362	10	10000	2	1	0	2	0
31	363	10	10000	2	1	0	2	0
31	364	10	10000	2	1	0	2	0
30	365	10	10000	2	1	0	2	0
30	366	10	10000	2	1	0	2	0
30	367	10	10000	2	1	0	2	0
31	368	10	10000	2	1	0	2	0
33	369	10	10000	2	1	0	2	0
35	370	10	10000	2	1	0	2	0
36	371	10	10000	2	1	0	2	0
36	372	10	10000	2	1	0	2	0
33	373	10	10000	2	1	0	2	0
32	374	10	10000	2	1	0	2	0
33	375	10	10000	2	1	0	2	0
33	376	10	10000	2	1	0	2	0
34	377	10	10000	2	1	0	2	0
35	378	10	10000	2	1	0	2	0
35	379	10	10000	2	1	0	2	0
34	380	10	10000	2	1	0	2	0
36	381	10	10000	2	1	0	2	0
37	382	10	10000	2	1	0	2	0
38	383	10	10000	2	1	0	2	0
38	384	10	10000	2	1	0	2	0
37	385	10	10000	2	1	0	2	0
36	386	10	10000	2	1	0	2	0
35	387	10	10000	2	1	0	2	0
34	388	10	10000	2	1	0	2	0
34	389	10	10000	2	1	0	2	0
35	390	10	10000	2	1	0	2	0
35	391	10	10000	2	1	0	2	0
36	392	10	10000	2	1	0	2	0
33	393	10	10000	2	1	0	2	0
34	394	10	10000	2	1	0	2	0
34	395	10	10000	2	1	0	2	0
35	396	10	10000	2	1	0	2	0
35	397	10	10000	2	1	0	2	0
36	398	10	10000	2	1	0	2	0
36	399	10	10000	2	1	0	2	0
36	400	10	10000	2	1	0	2	0
36	401	10	10000	2	1	0	2	0
35	402	10	10000	2	1	0	2	0
37	403	10	10000	2	1	0	2	0
37	404	10	10000	2	1	0	2	0
35	405	10	10000	2	1	0	2	0
35	406	10	10000	2	1	0	2	0
34	407	10	10000	2	1	0	2	0
33	408	10	10000	2	1	0	2	0
33	409	10	10000	2	1	0	2	0
34	410	10	10000	2	1	0	2	0
34	411	10	10000	2	1	0	2	0
35	412	10	10000	2	1	0	2	0
33	413	10	10000	2	1	0	2	0
34	414	10	10000	2	1	0	2	0
38	415	10	10000	2	1	0	2	0
41	416	10	10000	2	1	0	2	0
41	417	10	10000	2	1	0	2	0
40	418	10	10000	2	1	0	2	0
42	419	10	10000	2	1	0	2	0
42	420	10	10000	2	1	0	2	0
43	421	10	10000	2	1	0	2	0
42	422	10	10000	2	1	0	2	0
43	423	10	10000	2	1	0	2	0
43	424	10	10000	2	1	0	2	0
42	425	10	10000	2	1	0	2	0
41	426	10	10000	2	1	0	2	0
39	427	10	10000	2	1	0	2	0
39	428	10	10000	2	1	0	2	0
38	429	10	10000	2	1	0	2	0
39	430	10	10000	2	1	0	2	0
42	431	10	10000	2	1	0	2	0
44	432	10	10000	2	1	0	2	0
42	433	10	10000	2	1	0	2	0
42	434	10	10000	2	1	0	2	0
44	435	10	10000	2	1	0	2	0
44	436	10	10000	2	1	0	2	0
46	437	10	10000	2	1	0	2	0
47	438	10	10000	2	1	0	2	0
46	439	10	10000	2	1	0	2	0
45	440	10	10000	2	1	0	2	0
44	441	10	10000	2	1	0	2	0
44	442	10	10000	2	1	0	2	0
45	443	10	10000	2	1	0	2	0
44	444	10	10000	2	1	0	2	0
43	445	10	10000	2	1	0	2	0
42	446	10	10000	2	1	0	2	0
41	447	10	10000	2	1	0	2	0
42	448	10	10000	2	1	0	2	0
43	449	10	10000	2	1	0	2	0
43	450	10	10000	2	1	0	2	0
43	451	10	10000	2	1	0	2	0
42	452	10	10000	2	1	0	2	0
39	453	10	10000	2	1	0	2	0
38	454	10	10000	2	1	0	2	0
39	455	10	10000	2	1	0	2	0
39	456	10	10000	2	1	0	2	0
38	457	10	10000	2	1	0	2	0
37	458	10	10000	2	1	0	2	0
37	459	10	10000	2	1	0	2	0
37	460	10	10000	2	1	0	2	0
37	461	10	10000	2	1	0	2	0
38	462	10	10000	2	1	0	2	0
40	463	10	10000	2	1	0	2	0
38	464	10	10000	2	1	0	2	0
37	465	10	10000	2	1	0	2	0
36	466	10	10000	2	1	0	2	0
36	467	10	10000	2	1	0	2	0
36	468	10	10000	2	1	0	2	0
37	469	10	10000	2	1	0	2	0
37	470	10	10000	2	1	0	2	0
37	471	10	10000	2	1	0	2	0
38	472	10	10000	2	1	0	2	0
37	473	10	10000	2	1	0	2	0
38	474	10	10000	2	1	0	2	0
38	475	10	10000	2	1	0	2	0
38	476	10	10000	2	1	0	2	0
40	477	10	10000	2	1	0	2	0
40	478	10	10000	2	1	0	2	0
39	479	10	10000	2	1	0	2	0
38	480	10	10000	2	1	0	2	0
37	481	10	10000	2	1	0	2	0
36	482	10	10000	2	1	0	2	0
39	483	10	10000	2	1	0	2	0
39	484	10	10000	2	1	0	2	0
38	485	10	10000	2	1	0	2	0
40	486	10	10000	2	1	0	2	0
40	487	10	10000	2	1	0	2	0
40	488	10	10000	2	1	0	2	0
39	489	10	10000	2	1	0	2	0
40	490	10	10000	2	1	0	2	0
41	491	10	10000	2	1	0	2	0
43	492	10	10000	2	1	0	2	0
42	493	10	10000	2	1	0	2	0
41	494	10	10000	2	1	0	2	0
42	495	10	10000	2	1	0	2	0
41	496	10	10000	2	1	0	2	0
42	497	10	10000	2	1	0	2	0
41	498	10	10000	2	1	0	2	0
41	499	10	10000	2	1	0	2	0
42	500	10	10000	2	1	0	2	0
44	501	10	10000	2	1	0	2	0
45	502	10	10000	2	1	0	2	1
48	503	10	10000	2	1	0	2	1
48	504	10	10000	2	1	0	2	1
47	505	10	10000	2	1	0	2	1
45	506	10	10000	2	1	0	2	1
45	507	10	10000	2	1	0	2	1
45	508	10	10000	2	1	0	2	1
44	509	10	10000	2	1	0	2	1
44	510	10	10000	2	1	0	2	1
44	511	10	10000	2	1	0	2	1
43	512	10	10000	2	1	0	2	1
41	513	10	10000	2	1	0	2	1
42	514	10	10000	2	1	0	2	1
45	515	10	10000	2	1	0	2	1
49	516	10	10000	2	1	0	2	1
51	517	10	10000	2	1	0	2	1
53	518	10	10000	2	1	0	2	1
52	519	10	10000	2	1	0	2	1
51	520	10	10000	2	1	0	2	1
49	521	10	10000	2	1	0	2	1
49	522	10	10000	2	1	0	2	1
52	523	10	10000	2	1	0	2	1
52	524	10	10000	2	1	0	2	1
50	525	10	10000	2	1	0	2	1
49	526	10	10000	2	1	0	2	1
48	527	10	10000	2	1	0	2	1
46	528	10	10000	2	1	0	2	1
45	529	10	10000	2	1	0	2	1
44	530	10	10000	2	1	0	2	1
44	531	10	10000	2	1	0	2	1
44	532	10	10000	2	1	0	2	1
41	533	10	10000	2	1	0	2	1
41	534	10	10000	2	1	0	2	1
41	535	10	10000	2	1	0	2	1
45	536	10	10000	2	1	0	2	1
47	537	10	10000	2	1	0	2	1
47	538	10	10000	2	1	0	2	1
46	539	10	10000	2	1	0	2	1
45	540	10	10000	2	1	0	2	1
43	541	10	10000	2	1	0	2	1
43	542	10	10000	2	1	0	2	1
46	543	10	10000	2	1	0	2	1
51	544	10	10000	2	1	0	2	1
53	545	10	10000	2	1	0	2	1
51	546	10	10000	2	1	0	2	1
51	547	10	10000	2	1	0	2	1
55	548	10	10000	2	1	0	2	1
59	549	10	10000	2	1	0	2	1
66	550	10	10000	2	1	0	2	1
71	551	10	10000	2	1	0	2	1
75	552	10	10000	2	1	0	2	0
76	553	10	10000	2	1	0	2	0
74	554	10	10000	2	1	0	2	0
73	555	10	10000	2	1	0	2	0
72	556	10	10000	2	1	0	2	0
73	557	10	10000	2	1	0	2	0
76	558	10	10000	2	1	0	2	0
81	559	10	10000	2	1	0	2	0
88	560	10	10000	2	1	0	2	0
92	561	10	10000	2	1	0	2	0
95	562	10	10000	2	1	0	2	0
96	563	10	10000	2	1	0	2	0
94	564	10	10000	2	1	0	2	0
93	565	10	10000	2	1	0	2	0
93	566	10	10000	2	1	0	2	0
98	567	10	10000	2	1	0	2	0
105	568	10	10000	2	1	0	2	0
107	569	10	10000	2	1	0	2	0
111	570	10	10000	2	1	0	2	0
116	571	10	10000	2	1	0	2	0
120	572	10	10000	2	1	0	2	0
119	573	10	10000	2	1	0	2	0
120	574	10	10000	2	1	0	2	0
116	575	10	10000	2	1	0	2	0
112	576	10	10000	2	1	0	2	0
108	577	10	10000	2	1	0	2	0
104	578	10	10000	2	1	0	2	0
100	579	10	10000	2	1	0	2	0
96	580	10	10000	2	1	0	2	0
93	581	10	10000	2	1	0	2	0
91	582	10	10000	2	1	0	2	0
91	583	10	10000	2	1	0	2	0
89	584	10	10000	2	1	0	2	0
89	585	10	10000	2	1	0	2	0
90	586	10	10000	2	1	0	2	0
92	587	10	10000	2	1	0	2	0
95	588	10	10000	2	1	0	2	0
97	589	10	10000	2	1	0	2	0
96	590	10	10000	2	1	0	2	0
99	591	10	10000	2	1	0	2	0
109	592	10	10000	2	1	0	2	0
114	593	10	10000	2	1	0	2	0
113	594	10	10000	2	1	0	2	0
111	595	10	10000	2	1	0	2	0
115	596	10	10000	2	1	0	2	0
145	597	10	10000	2	1	0	2	0
176	598	10	10000	2	1	0	2	0
188	599	10	10000	2	1	0	2	0
192	600	10	10000	2	1	0	2	0
186	601	10	10000	2	1	0	2	0
191	602	10	10000	2	1	0	2	0
192	603	10	10000	2	1	0	2	0
225	604	10	10000	2	1	0	2	0
237	605	10	10000	2	1	0	2	0
252	606	10	10000	2	1	0	2	0
256	607	10	10000	2	1	0	2	0
250	608	10	10000	2	1	0	2	0
241	609	10	10000	2	1	0	2	0
244	610	10	10000	2	1	0	2	0
240	611	10	10000	2	1	0	2	0
241	612	10	10000	2	1	0	2	0
236	613	10	10000	2	1	0	2	0
228	614	10	10000	2	1	0	2	0
223	615	10	10000	2	1	0	2	0
216	616	10	10000	2	1	0	2	0
215	617	10	10000	2	1	0	2	0
212	618	10	10000	2	1	0	2	0
209	619	10	10000	2	1	0	2	0
205	620	10	10000	2	1	0	2	0
208	621	10	10000	2	1	0	2	0
213	622	10	10000	2	1	0	2	0
217	623	10	10000	2	1	0	2	0
218	624	10	10000	2	1	0	2	0
221	625	10	10000	2	1	0	2	0
222	626	10	10000	2	1	0	2	0
223	627	10	10000	2	1	0	2	0
224	628	10	10000	2	1	0	2	0
223	629	10	10000	2	1	0	2	0
222	630	10	10000	2	1	0	2	0
220	631	10	10000	2	1	0	2	0
218	632	10	10000	2	1	0	2	0
213	633	10	10000	2	1	0	2	0
208	634	10	10000	2	1	0	2	0
202	635	10	10000	2	1	0	2	0
195	636	10	10000	2	1	0	2	0
187	637	10	10000	2	1	0	2	0
180	638	10	10000	2	1	0	2	0
174	639	10	10000	2	1	0	2	0
166	640	10	10000	2	1	0	2	0
160	641	10	10000	2	1	0	2	0
153	642	10	10000	2	1	0	2	0
149	643	10	10000	2	1	0	2	0
144	644	10	10000	2	1	0	2	0
138	645	10	10000	2	1	0	2	0
132	646	10	10000	2	1	0	2	0
127	647	10	10000	2	1	0	2	0
122	648	10	10000	2	1	0	2	0
117	649	10	10000	2	1	0	2	0
113	650	10	10000	2	1	0	2	0
111	651	10	10000	2	1	0	2	0
109	652	10	10000	2	1	0	2	0
107	653	10	10000	2	1	0	2	0
103	654	10	10000	2	1	0	2	0
100	655	10	10000	2	1	0	2	0
99	656	10	10000	2	1	0	2	0
98	657	10	10000	2	1	0	2	0
95	658	10	10000	2	1	0	2	0
95	659	10	10000	2	1	0	2	0
94	660	10	10000	2	1	0	2	0
91	661	10	10000	2	1	0	2	0
89	662	10	10000	2	1	0	2	0
92	663	10	10000	2	1	0	2	0
92	664	10	10000	2	1	0	2	0
93	665	10	10000	2	1	0	2	0
90	666	10	10000	2	1	0	2	0
87	667	10	10000	2	1	0	2	0
85	668	10	10000	2	1	0	2	0
84	669	10	10000	2	1	0	2	0
85	670	10	10000	2	1	0	2	0
85	671	10	10000	2	1	0	2	0
85	672	10	10000	2	1	0	2	0
80	673	10	10000	2	1	0	2	0
77	674	10	10000	2	1	0	2	0
75	675	10	10000	2	1	0	2	0
72	676	10	10000	2	1	0	2	0
70	677	10	10000	2	1	0	2	0
68	678	10	10000	2	1	0	2	0
66	679	10	10000	2	1	0	2	0
63	680	10	10000	2	1	0	2	0
61	681	10	10000	2	1	0	2	0
59	682	10	10000	2	1	0	2	0
59	683	10	10000	2	1	0	2	0
58	684	10	10000	2	1	0	2	0
56	685	10	10000	2	1	0	2	0
54	686	10	10000	2	1	0	2	0
53	687	10	10000	2	1	0	2	0
51	688	10	10000	2	1	0	2	0
52	689	10	10000	2	1	0	2	0
52	690	10	10000	2	1	0	2	0
51	691	10	10000	2	1	0	2	0
50	692	10	10000	2	1	0	2	0
47	693	10	10000	2	1	0	2	0
46	694	10	10000	2	1	0	2	0
47	695	10	10000	2	1	0	2	0
48	696	10	10000	2	1	0	2	0
47	697	10	10000	2	1	0	2	0
45	698	10	10000	2	1	0	2	0
45	699	10	10000	2	1	0	2	0
44	700	10	10000	2	1	0	2	0
42	701	10	10000	2	1	0	2	0
42	702	10	10000	2	1	0	2	0
43	703	10	10000	2	1	0	2	0
44	704	10	10000	2	1	0	2	0
43	705	10	10000	2	1	0	2	0
42	706	10	10000	2	1	0	2	0
43	707	10	10000	2	1	0	2	0
45	708	10	10000	2	1	0	2	0
44	709	10	10000	2	1	0	2	0
43	710	10	10000	2	1	0	2	0
42	711	10	10000	2	1	0	2	0
43	712	10	10000	2	1	0	2	0
42	713	10	10000	2	1	0	2	0
41	714	10	10000	2	1	0	2	0
41	715	10	10000	2	1	0	2	0
40	716	10	10000	2	1	0	2	0
39	717	10	10000	2	1	0	2	0
39	718	10	10000	2	1	0	2	0
38	719	10	10000	2	1	0	2	0
37	720	10	10000	2	1	0	2	0
37	721	10	10000	2	1	0	2	0
37	722	10	10000	2	1	0	2	0
40	723	10	10000	2	1	0	2	0
42	724	10	10000	2	1	0	2	0
41	725	10	10000	2	1	0	2	0
39	726	10	10000	2	1	0	2	0
39	727	10	10000	2	1	0	2	0
42	728	10	10000	2	1	0	2	0
47	729	10	10000	2	1	0	2	0
54	730	10	10000	2	1	0	2	0
57	731	10	10000	2	1	0	2	0
57	732	10	10000	2	1	0	2	0
54	733	10	10000	2	1	0	2	0
52	734	10	10000	2	1	0	2	0
52	735	10	10000	2	1	0	2	0
50	736	10	10000	2	1	0	2	0
50	737	10	10000	2	1	0	2	0
48	738	10	10000	2	1	0	2	0
47	739	10	10000	2	1	0	2	0
46	740	10	10000	2	1	0	2	0
46	741	10	10000	2	1	0	2	0
46	742	10	10000	2	1	0	2	0
50	743	10	10000	2	1	0	2	0
50	744	10	10000	2	1	0	2	0
49	745	10	10000	2	1	0	2	0
47	746	10	10000	2	1	0	2	0
47	747	10	10000	2	1	0	2	0
47	748	10	10000	2	1	0	2	0
48	749	10	10000	2	1	0	2	0
49	750	10	10000	2	1	0	2	0
49	751	10	10000	2	1	0	2	0
49	752	10	10000	2	1	0	2	0
48	753	10	10000	2	1	0	2	0
47	754	10	10000	2	1	0	2	0
47	755	10	10000	2	1	0	2	0
47	756	10	10000	2	1	0	2	0
49	757	10	10000	2	1	0	2	0
51	758	10	10000	2	1	0	2	0
49	759	10	10000	2	1	0	2	0
48	760	10	10000	2	1	0	2	0
47	761	10	10000	2	1	0	2	0
45	762	10	10000	2	1	0	2	0
48	763	10	10000	2	1	0	2	0
51	764	10	10000	2	1	0	2	0
51	765	10	10000	2	1	0	2	0
52	766	10	10000	2	1	0	2	0
52	767	10	10000	2	1	0	2	0
50	768	10	10000	2	1	0	2	0
49	769	10	10000	2	1	0	2	0
51	770	10	10000	2	1	0	2	0
54	771	10	10000	2	1	0	2	0
55	772	10	10000	2	1	0	2	0
54	773	10	10000	2	1	0	2	0
53	774	10	10000	2	1	0	2	0
54	775	10	10000	2	1	0	2	0
52	776	10	10000	2	1	0	2	0
51	777	10	10000	2	1	0	2	0
52	778	10	10000	2	1	0	2	0
53	779	10	10000	2	1	0	2	0
53	780	10	10000	2	1	0	2	0
50	781	10	10000	2	1	0	2	0
53	782	10	10000	2	1	0	2	0
56	783	10	10000	2	1	0	2	0
58	784	10	10000	2	1	0	2	0
62	785	10	10000	2	1	0	2	0
64	786	10	10000	2	1	0	2	0
63	787	10	10000	2	1	0	2	0
62	788	10	10000	2	1	0	2	0
59	789	10	10000	2	1	0	2	0
58	790	10	10000	2	1	0	2	0
58	791	10	10000	2	1	0	2	0
57	792	10	10000	2	1	0	2	0
54	793	10	10000	2	1	0	2	0
52	794	10	10000	2	1	0	2	0
52	795	10	10000	2	1	0	2	0
51	796	10	10000	2	1	0	2	0
51	797	10	10000	2	1	0	2	0
51	798	10	10000	2	1	0	2	0
50	799	10	10000	2	1	0	2	0
48	800	10	10000	2	1	0	2	0
47	801	10	10000	2	1	0	2	0
47	802	10	10000	2	1	0	2	0
50	803	10	10000	2	1	0	2	0
50	804	10	10000	2	1	0	2	0
49	805	10	10000	2	1	0	2	0
47	806	10	10000	2	1	0	2	0
47	807	10	10000	2	1	0	2	0
47	808	10	10000	2	1	0	2	0
46	809	10	10000	2	1	0	2	0
45	810	10	10000	2	1	0	2	0
44	811	10	10000	2	1	0	2	0
45	812	10	10000	2	1	0	2	0
42	813	10	10000	2	1	0	2	0
41	814	10	10000	2	1	0	2	0
40	815	10	10000	2	1	0	2	0
40	816	10	10000	2	1	0	2	0
41	817	10	10000	2	1	0	2	0
40	818	10	10000	2	1	0	2	0
39	819	10	10000	2	1	0	2	0
41	820	10	10000	2	1	0	2	0
42	821	10	10000	2	1	0	2	0
41	822	10	10000	2	1	0	2	0
43	823	10	10000	2	1	0	2	0
43	824	10	10000	2	1	0	2	0
42	825	10	10000	2	1	0	2	0
41	826	10	10000	2	1	0	2	0
41	827	10	10000	2	1	0	2	0
40	828	10	10000	2	1	0	2	0
40	829	10	10000	2	1	0	2	0
39	830	10	10000	2	1	0	2	0
40	831	10	10000	2	1	0	2	0
42	832	10	10000	2	1	0	2	0
40	833	10	10000	2	1	0	2	0
39	834	10	10000	2	1	0	2	0
39	835	10	10000	2	1	0	2	0
39	836	10	10000	2	1	0	2	0
40	837	10	10000	2	1	0	2	0
42	838	10	10000	2	1	0	2	0
41	839	10	10000	2	1	0	2	0
40	840	10	10000	2	1	0	2	0
40	841	10	10000	2	1	0	2	0
41	842	10	10000	2	1	0	2	0
42	843	10	10000	2	1	0	2	0
44	844	10	10000	2	1	0	2	0
44	845	10	10000	2	1	0	2	0
43	846	10	10000	2	1	0	2	0
42	847	10	10000	2	1	0	2	0
41	848	10	10000	2	1	0	2	0
42	849	10	10000	2	1	0	2	0
45	850	10	10000	2	1	0	2	0
45	851	10	10000	2	1	0	2	0
47	852	10	10000	2	1	0	2	0
46	853	10	10000	2	1	0	2	0
46	854	10	10000	2	1	0	2	0
45	855	10	10000	2	1	0	2	0
44	856	10	10000	2	1	0	2	0
44	857	10	10000	2	1	0	2	0
44	858	10	10000	2	1	0	2	0
44	859	10	10000	2	1	0	2	0
43	860	10	10000	2	1	0	2	0
42	861	10	10000	2	1	0	2	0
41	862	10	10000	2	1	0	2	0
43	863	10	10000	2	1	0	2	0
44	864	10	10000	2	1	0	2	0
45	865	10	10000	2	1	0	2	0
46	866	10	10000	2	1	0	2	0
44	867	10	10000	2	1	0	2	0
43	868	10	10000	2	1	0	2	0
44	869	10	10000	2	1	0	2	0
47	870	10	10000	2	1	0	2	0
50	871	10	10000	2	1	0	2	0
54	872	10	10000	2	1	0	2	0
51	873	10	10000	2	1	0	2	0
49	874	10	10000	2	1	0	2	0
48	875	10	10000	2	1	0	2	0
47	876	10	10000	2	1	0	2	0
47	877	10	10000	2	1	0	2	0
46	878	10	10000	2	1	0	2	0
47	879	10	10000	2	1	0	2	0
46	880	10	10000	2	1	0	2	0
46	881	10	10000	2	1	0	2	0
46	882	10	10000	2	1	0	2	0
47	883	10	10000	2	1	0	2	0
47	884	10	10000	2	1	0	2	0
46	885	10	10000	2	1	0	2	0
44	886	10	10000	2	1	0	2	0
44	887	10	10000	2	1	0	2	0
44	888	10	10000	2	1	0	2	0
45	889	10	10000	2	1	0	2	0
47	890	10	10000	2	1	0	2	0
47	891	10	10000	2	1	0	2	0
47	892	10	10000	2	1	0	2	0
45	893	10	10000	2	1	0	2	0
45	894	10	10000	2	1	0	2	0
45	895	10	10000	2	1	0	2	0
46	896	10	10000	2	1	0	2	0
48	897	10	10000	2	1	0	2	0
46	898	10	10000	2	1	0	2	0
46	899	10	10000	2	1	0	2	0
47	900	10	10000	2	1	0	2	0
48	901	10	10000	2	1	0	2	0
46	902	10	10000	2	1	0	2	0
47	903	10	10000	2	1	0	2	0
46	904	10	10000	2	1	0	2	0
45	905	10	10000	2	1	0	2	0
44	906	10	10000	2	1	0	2	0
43	907	10	10000	2	1	0	2	0
42	908	10	10000	2	1	0	2	0
41	909	10	10000	2	1	0	2	0
43	910	10	10000	2	1	0	2	0
44	911	10	10000	2	1	0	2	0
45	912	10	10000	2	1	0	2	0
43	913	10	10000	2	1	0	2	0
43	914	10	10000	2	1	0	2	0
41	915	10	10000	2	1	0	2	0
40	916	10	10000	2	1	0	2	0
41	917	10	10000	2	1	0	2	0
43	918	10	10000	2	1	0	2	0
45	919	10	10000	2	1	0	2	0
46	920	10	10000	2	1	0	2	0
45	921	10	10000	2	1	0	2	0
44	922	10	10000	2	1	0	2	0
45	923	10	10000	2	1	0	2	0
45	924	10	10000	2	1	0	2	0
46	925	10	10000	2	1	0	2	0
48	926	10	10000	2	1	0	2	0
50	927	10	10000	2	1	0	2	0
51	928	10	10000	2	1	0	2	0
52	929	10	10000	2	1	0	2	0
52	930	10	10000	2	1	0	2	0
52	931	10	10000	2	1	0	2	0
53	932	10	10000	2	1	0	2	0
56	933	10	10000	2	1	0	2	0
61	934	10	10000	2	1	0	2	0
62	935	10	10000	2	1	0	2	0
61	936	10	10000	2	1	0	2	0
60	937	10	10000	2	1	0	2	0
59	938	10	10000	2	1	0	2	0
60	939	10	10000	2	1	0	2	0
59	940	10	10000	2	1	0	2	0
57	941	10	10000	2	1	0	2	0
56	942	10	10000	2	1	0	2	0
56	943	10	10000	2	1	0	2	0
55	944	10	10000	2	1	0	2	0
56	945	10	10000	2	1	0	2	0
57	946	10	10000	2	1	0	2	0
57	947	10	10000	2	1	0	2	0
56	948	10	10000	2	1	0	2	0
54	949	10	10000	2	1	0	2	0
54	950	10	10000	2	1	0	2	0
53	951	10	10000	2	1	0	2	0
51	952	10	10000	2	1	0	2	0
51	953	10	10000	2	1	0	2	0
51	954	10	10000	2	1	0	2	0
51	955	10	10000	2	1	0	2	0
52	956	10	10000	2	1	0	2	0
55	957	10	10000	2	1	0	2	0
56	958	10	10000	2	1	0	2	0
56	959	10	10000	2	1	0	2	0
55	960	10	10000	2	1	0	2	0
55	961	10	10000	2	1	0	2	0
56	962	10	10000	2	1	0	2	0
59	963	10	10000	2	1	0	2	0
60	964	10	10000	2	1	0	2	0
60	965	10	10000	2	1	0	2	0
59	966	10	10000	2	1	0	2	0
58	967	10	10000	2	1	0	2	0
58	968	10	10000	2	1	0	2	0
55	969	10	10000	2	1	0	2	0
54	970	10	10000	2	1	0	2	0
55	971	10	10000	2	1	0	2	0
56	972	10	10000	2	1	0	2	0
53	973	10	10000	2	1	0	2	0
52	974	10	10000	2	1	0	2	0
56	975	10	10000	2	1	0	2	0
58	976	10	10000	2	1	0	2	0
60	977	10	10000	2	1	0	2	0
59	978	10	10000	2	1	0	2	0
57	979	10	10000	2	1	0	2	0
57	980	10	10000	2	1	0	2	0
56	981	10	10000	2	1	0	2	0
55	982	10	10000	2	1	0	2	0
55	983	10	10000	2	1	0	2	0
58	984	10	10000	2	1	0	2	0
57	985	10	10000	2	1	0	2	0
56	986	10	10000	2	1	0	2	0
58	987	10	10000	2	1	0	2	0
56	988	10	10000	2	1	0	2	0
55	989	10	10000	2	1	0	2	0
53	990	10	10000	2	1	0	2	0
54	991	10	10000	2	1	0	2	0
56	992	10	10000	2	1	0	2	0
56	993	10	10000	2	1	0	2	0
56	994	10	10000	2	1	0	2	0
54	995	10	10000	2	1	0	2	0
53	996	10	10000	2	1	0	2	0
52	997	10	10000	2	1	0	2	0
52	998	10	10000	2	1	0	2	0
53	999	10	10000	2	1	0	2	0
54	1000	10	10000	2	1	0	2	0
51	1001	10	10000	2	1	0	2	0
49	1	10	10000	3	1	0	3	0
49	2	10	10000	3	1	0	3	0
48	3	10	10000	3	1	0	3	0
47	4	10	10000	3	1	0	3	0
46	5	10	10000	3	1	0	3	0
44	6	10	10000	3	1	0	3	0
43	7	10	10000	3	1	0	3	0
43	8	10	10000	3	1	0	3	0
45	9	10	10000	3	1	0	3	0
44	10	10	10000	3	1	0	3	0
43	11	10	10000	3	1	0	3	0
42	12	10	10000	3	1	0	3	0
42	13	10	10000	3	1	0	3	0
42	14	10	10000	3	1	0	3	0
41	15	10	10000	3	1	0	3	0
41	16	10	10000	3	1	0	3	0
40	17	10	10000	3	1	0	3	0
40	18	10	10000	3	1	0	3	0
39	19	10	10000	3	1	0	3	0
41	20	10	10000	3	1	0	3	0
41	21	10	10000	3	1	0	3	0
41	22	10	10000	3	1	0	3	0
41	23	10	10000	3	1	0	3	0
43	24	10	10000	3	1	0	3	0
44	25	10	10000	3	1	0	3	0
42	26	10	10000	3	1	0	3	0
41	27	10	10000	3	1	0	3	0
39	28	10	10000	3	1	0	3	0
43	29	10	10000	3	1	0	3	0
44	30	10	10000	3	1	0	3	0
44	31	10	10000	3	1	0	3	0
44	32	10	10000	3	1	0	3	0
44	33	10	10000	3	1	0	3	0
43	34	10	10000	3	1	0	3	0
43	35	10	10000	3	1	0	3	0
44	36	10	10000	3	1	0	3	0
44	37	10	10000	3	1	0	3	0
44	38	10	10000	3	1	0	3	0
42	39	10	10000	3	1	0	3	0
42	40	10	10000	3	1	0	3	0
43	41	10	10000	3	1	0	3	0
42	42	10	10000	3	1	0	3	0
41	43	10	10000	3	1	0	3	0
42	44	10	10000	3	1	0	3	0
42	45	10	10000	3	1	0	3	0
41	46	10	10000	3	1	0	3	0
41	47	10	10000	3	1	0	3	0
40	48	10	10000	3	1	0	3	0
41	49	10	10000	3	1	0	3	0
40	50	10	10000	3	1	0	3	0
39	51	10	10000	3	1	0	3	0
41	52	10	10000	3	1	0	3	0
41	53	10	10000	3	1	0	3	0
40	54	10	10000	3	1	0	3	0
38	55	10	10000	3	1	0	3	0
39	56	10	10000	3	1	0	3	0
40	57	10	10000	3	1	0	3	0
41	58	10	10000	3	1	0	3	0
42	59	10	10000	3	1	0	3	0
44	60	10	10000	3	1	0	3	0
44	61	10	10000	3	1	0	3	0
43	62	10	10000	3	1	0	3	0
44	63	10	10000	3	1	0	3	0
47	64	10	10000	3	1	0	3	0
48	65	10	10000	3	1	0	3	0
46	66	10	10000	3	1	0	3	0
48	67	10	10000	3	1	0	3	0
51	68	10	10000	3	1	0	3	0
56	69	10	10000	3	1	0	3	0
56	70	10	10000	3	1	0	3	0
56	71	10	10000	3	1	0	3	0
55	72	10	10000	3	1	0	3	0
53	73	10	10000	3	1	0	3	0
51	74	10	10000	3	1	0	3	0
50	75	10	10000	3	1	0	3	0
50	76	10	10000	3	1	0	3	0
49	77	10	10000	3	1	0	3	0
49	78	10	10000	3	1	0	3	0
46	79	10	10000	3	1	0	3	0
48	80	10	10000	3	1	0	3	0
50	81	10	10000	3	1	0	3	0
51	82	10	10000	3	1	0	3	0
52	83	10	10000	3	1	0	3	0
51	84	10	10000	3	1	0	3	0
51	85	10	10000	3	1	0	3	0
50	86	10	10000	3	1	0	3	0
49	87	10	10000	3	1	0	3	0
50	88	10	10000	3	1	0	3	0
51	89	10	10000	3	1	0	3	0
49	90	10	10000	3	1	0	3	0
47	91	10	10000	3	1	0	3	0
45	92	10	10000	3	1	0	3	0
47	93	10	10000	3	1	0	3	0
49	94	10	10000	3	1	0	3	0
48	95	10	10000	3	1	0	3	0
47	96	10	10000	3	1	0	3	0
47	97	10	10000	3	1	0	3	0
49	98	10	10000	3	1	0	3	0
45	99	10	10000	3	1	0	3	0
44	100	10	10000	3	1	0	3	0
44	101	10	10000	3	1	0	3	0
44	102	10	10000	3	1	0	3	0
45	103	10	10000	3	1	0	3	0
44	104	10	10000	3	1	0	3	0
44	105	10	10000	3	1	0	3	0
46	106	10	10000	3	1	0	3	0
53	107	10	10000	3	1	0	3	0
57	108	10	10000	3	1	0	3	0
58	109	10	10000	3	1	0	3	0
57	110	10	10000	3	1	0	3	0
57	111	10	10000	3	1	0	3	0
56	112	10	10000	3	1	0	3	0
56	113	10	10000	3	1	0	3	0
54	114	10	10000	3	1	0	3	0
53	115	10	10000	3	1	0	3	0
52	116	10	10000	3	1	0	3	0
51	117	10	10000	3	1	0	3	0
50	118	10	10000	3	1	0	3	0
47	119	10	10000	3	1	0	3	0
45	120	10	10000	3	1	0	3	0
45	121	10	10000	3	1	0	3	0
44	122	10	10000	3	1	0	3	0
44	123	10	10000	3	1	0	3	0
43	124	10	10000	3	1	0	3	0
45	125	10	10000	3	1	0	3	0
45	126	10	10000	3	1	0	3	0
45	127	10	10000	3	1	0	3	0
44	128	10	10000	3	1	0	3	0
45	129	10	10000	3	1	0	3	0
45	130	10	10000	3	1	0	3	0
44	131	10	10000	3	1	0	3	0
42	132	10	10000	3	1	0	3	0
41	133	10	10000	3	1	0	3	0
42	134	10	10000	3	1	0	3	0
43	135	10	10000	3	1	0	3	0
43	136	10	10000	3	1	0	3	0
43	137	10	10000	3	1	0	3	0
43	138	10	10000	3	1	0	3	0
41	139	10	10000	3	1	0	3	0
41	140	10	10000	3	1	0	3	0
40	141	10	10000	3	1	0	3	0
40	142	10	10000	3	1	0	3	0
40	143	10	10000	3	1	0	3	0
39	144	10	10000	3	1	0	3	0
39	145	10	10000	3	1	0	3	0
38	146	10	10000	3	1	0	3	0
40	147	10	10000	3	1	0	3	0
41	148	10	10000	3	1	0	3	0
42	149	10	10000	3	1	0	3	0
41	150	10	10000	3	1	0	3	0
40	151	10	10000	3	1	0	3	0
41	152	10	10000	3	1	0	3	0
41	153	10	10000	3	1	0	3	0
41	154	10	10000	3	1	0	3	0
40	155	10	10000	3	1	0	3	0
41	156	10	10000	3	1	0	3	0
41	157	10	10000	3	1	0	3	0
43	158	10	10000	3	1	0	3	0
42	159	10	10000	3	1	0	3	0
41	160	10	10000	3	1	0	3	0
40	161	10	10000	3	1	0	3	0
40	162	10	10000	3	1	0	3	0
39	163	10	10000	3	1	0	3	0
39	164	10	10000	3	1	0	3	0
41	165	10	10000	3	1	0	3	0
42	166	10	10000	3	1	0	3	0
40	167	10	10000	3	1	0	3	0
39	168	10	10000	3	1	0	3	0
41	169	10	10000	3	1	0	3	0
42	170	10	10000	3	1	0	3	0
43	171	10	10000	3	1	0	3	0
42	172	10	10000	3	1	0	3	0
41	173	10	10000	3	1	0	3	0
40	174	10	10000	3	1	0	3	0
39	175	10	10000	3	1	0	3	0
39	176	10	10000	3	1	0	3	0
38	177	10	10000	3	1	0	3	0
38	178	10	10000	3	1	0	3	0
38	179	10	10000	3	1	0	3	0
42	180	10	10000	3	1	0	3	0
45	181	10	10000	3	1	0	3	0
47	182	10	10000	3	1	0	3	0
47	183	10	10000	3	1	0	3	0
46	184	10	10000	3	1	0	3	0
47	185	10	10000	3	1	0	3	0
48	186	10	10000	3	1	0	3	0
46	187	10	10000	3	1	0	3	0
44	188	10	10000	3	1	0	3	0
46	189	10	10000	3	1	0	3	0
45	190	10	10000	3	1	0	3	0
45	191	10	10000	3	1	0	3	0
46	192	10	10000	3	1	0	3	0
46	193	10	10000	3	1	0	3	0
47	194	10	10000	3	1	0	3	0
46	195	10	10000	3	1	0	3	0
47	196	10	10000	3	1	0	3	0
48	197	10	10000	3	1	0	3	0
50	198	10	10000	3	1	0	3	0
50	199	10	10000	3	1	0	3	0
51	200	10	10000	3	1	0	3	0
54	201	10	10000	3	1	0	3	0
57	202	10	10000	3	1	0	3	0
56	203	10	10000	3	1	0	3	0
55	204	10	10000	3	1	0	3	0
55	205	10	10000	3	1	0	3	0
55	206	10	10000	3	1	0	3	0
55	207	10	10000	3	1	0	3	0
55	208	10	10000	3	1	0	3	0
55	209	10	10000	3	1	0	3	0
54	210	10	10000	3	1	0	3	0
53	211	10	10000	3	1	0	3	0
52	212	10	10000	3	1	0	3	0
49	213	10	10000	3	1	0	3	0
48	214	10	10000	3	1	0	3	0
48	215	10	10000	3	1	0	3	0
49	216	10	10000	3	1	0	3	0
49	217	10	10000	3	1	0	3	0
48	218	10	10000	3	1	0	3	0
45	219	10	10000	3	1	0	3	0
45	220	10	10000	3	1	0	3	0
45	221	10	10000	3	1	0	3	0
44	222	10	10000	3	1	0	3	0
44	223	10	10000	3	1	0	3	0
43	224	10	10000	3	1	0	3	0
44	225	10	10000	3	1	0	3	0
44	226	10	10000	3	1	0	3	0
44	227	10	10000	3	1	0	3	0
43	228	10	10000	3	1	0	3	0
44	229	10	10000	3	1	0	3	0
43	230	10	10000	3	1	0	3	0
41	231	10	10000	3	1	0	3	0
41	232	10	10000	3	1	0	3	0
40	233	10	10000	3	1	0	3	0
39	234	10	10000	3	1	0	3	0
38	235	10	10000	3	1	0	3	0
39	236	10	10000	3	1	0	3	0
41	237	10	10000	3	1	0	3	0
40	238	10	10000	3	1	0	3	0
39	239	10	10000	3	1	0	3	0
41	240	10	10000	3	1	0	3	0
42	241	10	10000	3	1	0	3	0
45	242	10	10000	3	1	0	3	0
47	243	10	10000	3	1	0	3	0
46	244	10	10000	3	1	0	3	0
48	245	10	10000	3	1	0	3	0
50	246	10	10000	3	1	0	3	0
54	247	10	10000	3	1	0	3	0
55	248	10	10000	3	1	0	3	0
56	249	10	10000	3	1	0	3	0
53	250	10	10000	3	1	0	3	0
53	251	10	10000	3	1	0	3	0
51	252	10	10000	3	1	0	3	0
49	253	10	10000	3	1	0	3	0
47	254	10	10000	3	1	0	3	0
47	255	10	10000	3	1	0	3	0
48	256	10	10000	3	1	0	3	0
49	257	10	10000	3	1	0	3	0
48	258	10	10000	3	1	0	3	0
45	259	10	10000	3	1	0	3	0
46	260	10	10000	3	1	0	3	0
47	261	10	10000	3	1	0	3	0
47	262	10	10000	3	1	0	3	0
46	263	10	10000	3	1	0	3	0
45	264	10	10000	3	1	0	3	0
45	265	10	10000	3	1	0	3	0
46	266	10	10000	3	1	0	3	0
49	267	10	10000	3	1	0	3	0
53	268	10	10000	3	1	0	3	0
55	269	10	10000	3	1	0	3	0
54	270	10	10000	3	1	0	3	0
52	271	10	10000	3	1	0	3	0
52	272	10	10000	3	1	0	3	0
53	273	10	10000	3	1	0	3	0
53	274	10	10000	3	1	0	3	0
52	275	10	10000	3	1	0	3	0
51	276	10	10000	3	1	0	3	0
51	277	10	10000	3	1	0	3	0
49	278	10	10000	3	1	0	3	0
45	279	10	10000	3	1	0	3	0
45	280	10	10000	3	1	0	3	0
45	281	10	10000	3	1	0	3	0
45	282	10	10000	3	1	0	3	0
45	283	10	10000	3	1	0	3	0
45	284	10	10000	3	1	0	3	0
47	285	10	10000	3	1	0	3	0
45	286	10	10000	3	1	0	3	0
46	287	10	10000	3	1	0	3	0
49	288	10	10000	3	1	0	3	0
52	289	10	10000	3	1	0	3	0
51	290	10	10000	3	1	0	3	0
53	291	10	10000	3	1	0	3	0
53	292	10	10000	3	1	0	3	0
51	293	10	10000	3	1	0	3	0
51	294	10	10000	3	1	0	3	0
50	295	10	10000	3	1	0	3	0
49	296	10	10000	3	1	0	3	0
49	297	10	10000	3	1	0	3	0
47	298	10	10000	3	1	0	3	0
44	299	10	10000	3	1	0	3	0
44	300	10	10000	3	1	0	3	0
44	301	10	10000	3	1	0	3	0
45	302	10	10000	3	1	0	3	0
46	303	10	10000	3	1	0	3	0
47	304	10	10000	3	1	0	3	0
49	305	10	10000	3	1	0	3	0
48	306	10	10000	3	1	0	3	0
47	307	10	10000	3	1	0	3	0
49	308	10	10000	3	1	0	3	0
52	309	10	10000	3	1	0	3	0
52	310	10	10000	3	1	0	3	0
52	311	10	10000	3	1	0	3	0
51	312	10	10000	3	1	0	3	0
51	313	10	10000	3	1	0	3	0
49	314	10	10000	3	1	0	3	0
47	315	10	10000	3	1	0	3	0
47	316	10	10000	3	1	0	3	0
47	317	10	10000	3	1	0	3	0
46	318	10	10000	3	1	0	3	0
43	319	10	10000	3	1	0	3	0
44	320	10	10000	3	1	0	3	0
45	321	10	10000	3	1	0	3	0
45	322	10	10000	3	1	0	3	0
45	323	10	10000	3	1	0	3	0
44	324	10	10000	3	1	0	3	0
46	325	10	10000	3	1	0	3	0
48	326	10	10000	3	1	0	3	0
49	327	10	10000	3	1	0	3	0
51	328	10	10000	3	1	0	3	0
51	329	10	10000	3	1	0	3	0
50	330	10	10000	3	1	0	3	0
49	331	10	10000	3	1	0	3	0
48	332	10	10000	3	1	0	3	0
47	333	10	10000	3	1	0	3	0
47	334	10	10000	3	1	0	3	0
49	335	10	10000	3	1	0	3	0
56	336	10	10000	3	1	0	3	0
62	337	10	10000	3	1	0	3	0
61	338	10	10000	3	1	0	3	0
57	339	10	10000	3	1	0	3	0
59	340	10	10000	3	1	0	3	0
62	341	10	10000	3	1	0	3	0
64	342	10	10000	3	1	0	3	0
64	343	10	10000	3	1	0	3	0
64	344	10	10000	3	1	0	3	0
63	345	10	10000	3	1	0	3	0
60	346	10	10000	3	1	0	3	0
58	347	10	10000	3	1	0	3	0
57	348	10	10000	3	1	0	3	0
58	349	10	10000	3	1	0	3	0
61	350	10	10000	3	1	0	3	0
63	351	10	10000	3	1	0	3	0
62	352	10	10000	3	1	0	3	0
61	353	10	10000	3	1	0	3	0
59	354	10	10000	3	1	0	3	0
58	355	10	10000	3	1	0	3	0
59	356	10	10000	3	1	0	3	0
59	357	10	10000	3	1	0	3	0
61	358	10	10000	3	1	0	3	0
59	359	10	10000	3	1	0	3	0
59	360	10	10000	3	1	0	3	0
58	361	10	10000	3	1	0	3	0
58	362	10	10000	3	1	0	3	0
56	363	10	10000	3	1	0	3	0
54	364	10	10000	3	1	0	3	0
53	365	10	10000	3	1	0	3	0
51	366	10	10000	3	1	0	3	0
49	367	10	10000	3	1	0	3	0
48	368	10	10000	3	1	0	3	0
49	369	10	10000	3	1	0	3	0
48	370	10	10000	3	1	0	3	0
46	371	10	10000	3	1	0	3	0
49	372	10	10000	3	1	0	3	0
54	373	10	10000	3	1	0	3	0
56	374	10	10000	3	1	0	3	0
57	375	10	10000	3	1	0	3	0
57	376	10	10000	3	1	0	3	0
56	377	10	10000	3	1	0	3	0
56	378	10	10000	3	1	0	3	0
56	379	10	10000	3	1	0	3	0
55	380	10	10000	3	1	0	3	0
54	381	10	10000	3	1	0	3	0
54	382	10	10000	3	1	0	3	0
53	383	10	10000	3	1	0	3	0
52	384	10	10000	3	1	0	3	0
53	385	10	10000	3	1	0	3	0
53	386	10	10000	3	1	0	3	0
54	387	10	10000	3	1	0	3	0
53	388	10	10000	3	1	0	3	0
54	389	10	10000	3	1	0	3	0
52	390	10	10000	3	1	0	3	0
50	391	10	10000	3	1	0	3	0
48	392	10	10000	3	1	0	3	0
47	393	10	10000	3	1	0	3	0
45	394	10	10000	3	1	0	3	0
44	395	10	10000	3	1	0	3	0
44	396	10	10000	3	1	0	3	0
47	397	10	10000	3	1	0	3	0
49	398	10	10000	3	1	0	3	0
47	399	10	10000	3	1	0	3	0
46	400	10	10000	3	1	0	3	0
47	401	10	10000	3	1	0	3	0
52	402	10	10000	3	1	0	3	0
55	403	10	10000	3	1	0	3	0
53	404	10	10000	3	1	0	3	0
54	405	10	10000	3	1	0	3	0
54	406	10	10000	3	1	0	3	0
52	407	10	10000	3	1	0	3	0
51	408	10	10000	3	1	0	3	0
51	409	10	10000	3	1	0	3	0
49	410	10	10000	3	1	0	3	0
49	411	10	10000	3	1	0	3	0
47	412	10	10000	3	1	0	3	0
46	413	10	10000	3	1	0	3	0
45	414	10	10000	3	1	0	3	0
44	415	10	10000	3	1	0	3	0
44	416	10	10000	3	1	0	3	0
42	417	10	10000	3	1	0	3	0
42	418	10	10000	3	1	0	3	0
42	419	10	10000	3	1	0	3	0
40	420	10	10000	3	1	0	3	0
40	421	10	10000	3	1	0	3	0
40	422	10	10000	3	1	0	3	0
42	423	10	10000	3	1	0	3	0
43	424	10	10000	3	1	0	3	0
44	425	10	10000	3	1	0	3	0
42	426	10	10000	3	1	0	3	0
41	427	10	10000	3	1	0	3	0
44	428	10	10000	3	1	0	3	0
50	429	10	10000	3	1	0	3	0
52	430	10	10000	3	1	0	3	0
51	431	10	10000	3	1	0	3	0
49	432	10	10000	3	1	0	3	0
50	433	10	10000	3	1	0	3	0
50	434	10	10000	3	1	0	3	0
49	435	10	10000	3	1	0	3	0
50	436	10	10000	3	1	0	3	0
48	437	10	10000	3	1	0	3	0
47	438	10	10000	3	1	0	3	0
44	439	10	10000	3	1	0	3	0
44	440	10	10000	3	1	0	3	0
43	441	10	10000	3	1	0	3	0
43	442	10	10000	3	1	0	3	0
41	443	10	10000	3	1	0	3	0
41	444	10	10000	3	1	0	3	0
43	445	10	10000	3	1	0	3	0
42	446	10	10000	3	1	0	3	0
42	447	10	10000	3	1	0	3	0
44	448	10	10000	3	1	0	3	0
48	449	10	10000	3	1	0	3	0
50	450	10	10000	3	1	0	3	0
49	451	10	10000	3	1	0	3	0
48	452	10	10000	3	1	0	3	0
49	453	10	10000	3	1	0	3	0
48	454	10	10000	3	1	0	3	0
48	455	10	10000	3	1	0	3	0
48	456	10	10000	3	1	0	3	0
46	457	10	10000	3	1	0	3	0
45	458	10	10000	3	1	0	3	0
43	459	10	10000	3	1	0	3	0
42	460	10	10000	3	1	0	3	0
42	461	10	10000	3	1	0	3	0
43	462	10	10000	3	1	0	3	0
42	463	10	10000	3	1	0	3	0
41	464	10	10000	3	1	0	3	0
41	465	10	10000	3	1	0	3	0
41	466	10	10000	3	1	0	3	0
43	467	10	10000	3	1	0	3	0
44	468	10	10000	3	1	0	3	0
46	469	10	10000	3	1	0	3	0
46	470	10	10000	3	1	0	3	0
45	471	10	10000	3	1	0	3	0
45	472	10	10000	3	1	0	3	0
47	473	10	10000	3	1	0	3	0
47	474	10	10000	3	1	0	3	0
48	475	10	10000	3	1	0	3	0
48	476	10	10000	3	1	0	3	0
48	477	10	10000	3	1	0	3	0
48	478	10	10000	3	1	0	3	0
45	479	10	10000	3	1	0	3	0
44	480	10	10000	3	1	0	3	0
44	481	10	10000	3	1	0	3	0
44	482	10	10000	3	1	0	3	0
47	483	10	10000	3	1	0	3	0
51	484	10	10000	3	1	0	3	0
53	485	10	10000	3	1	0	3	0
51	486	10	10000	3	1	0	3	0
50	487	10	10000	3	1	0	3	0
50	488	10	10000	3	1	0	3	0
54	489	10	10000	3	1	0	3	0
56	490	10	10000	3	1	0	3	0
55	491	10	10000	3	1	0	3	0
54	492	10	10000	3	1	0	3	0
52	493	10	10000	3	1	0	3	0
50	494	10	10000	3	1	0	3	0
49	495	10	10000	3	1	0	3	0
49	496	10	10000	3	1	0	3	0
48	497	10	10000	3	1	0	3	0
47	498	10	10000	3	1	0	3	0
45	499	10	10000	3	1	0	3	0
46	500	10	10000	3	1	0	3	0
48	501	10	10000	3	1	0	3	1
49	502	10	10000	3	1	0	3	1
48	503	10	10000	3	1	0	3	1
48	504	10	10000	3	1	0	3	1
47	505	10	10000	3	1	0	3	1
46	506	10	10000	3	1	0	3	1
47	507	10	10000	3	1	0	3	1
46	508	10	10000	3	1	0	3	1
50	509	10	10000	3	1	0	3	1
56	510	10	10000	3	1	0	3	1
60	511	10	10000	3	1	0	3	1
60	512	10	10000	3	1	0	3	1
61	513	10	10000	3	1	0	3	1
59	514	10	10000	3	1	0	3	1
60	515	10	10000	3	1	0	3	1
62	516	10	10000	3	1	0	3	1
63	517	10	10000	3	1	0	3	1
64	518	10	10000	3	1	0	3	1
61	519	10	10000	3	1	0	3	1
60	520	10	10000	3	1	0	3	1
58	521	10	10000	3	1	0	3	1
57	522	10	10000	3	1	0	3	1
56	523	10	10000	3	1	0	3	1
55	524	10	10000	3	1	0	3	1
54	525	10	10000	3	1	0	3	1
52	526	10	10000	3	1	0	3	1
51	527	10	10000	3	1	0	3	1
49	528	10	10000	3	1	0	3	1
49	529	10	10000	3	1	0	3	1
50	530	10	10000	3	1	0	3	1
48	531	10	10000	3	1	0	3	1
47	532	10	10000	3	1	0	3	1
47	533	10	10000	3	1	0	3	1
46	534	10	10000	3	1	0	3	1
46	535	10	10000	3	1	0	3	1
45	536	10	10000	3	1	0	3	1
44	537	10	10000	3	1	0	3	1
44	538	10	10000	3	1	0	3	1
42	539	10	10000	3	1	0	3	1
41	540	10	10000	3	1	0	3	1
41	541	10	10000	3	1	0	3	1
41	542	10	10000	3	1	0	3	1
42	543	10	10000	3	1	0	3	1
44	544	10	10000	3	1	0	3	1
44	545	10	10000	3	1	0	3	1
43	546	10	10000	3	1	0	3	1
42	547	10	10000	3	1	0	3	1
44	548	10	10000	3	1	0	3	1
47	549	10	10000	3	1	0	3	1
46	550	10	10000	3	1	0	3	1
45	551	10	10000	3	1	0	3	0
44	552	10	10000	3	1	0	3	0
45	553	10	10000	3	1	0	3	0
45	554	10	10000	3	1	0	3	0
44	555	10	10000	3	1	0	3	0
44	556	10	10000	3	1	0	3	0
43	557	10	10000	3	1	0	3	0
43	558	10	10000	3	1	0	3	0
40	559	10	10000	3	1	0	3	0
39	560	10	10000	3	1	0	3	0
40	561	10	10000	3	1	0	3	0
41	562	10	10000	3	1	0	3	0
42	563	10	10000	3	1	0	3	0
42	564	10	10000	3	1	0	3	0
41	565	10	10000	3	1	0	3	0
41	566	10	10000	3	1	0	3	0
43	567	10	10000	3	1	0	3	0
41	568	10	10000	3	1	0	3	0
44	569	10	10000	3	1	0	3	0
43	570	10	10000	3	1	0	3	0
43	571	10	10000	3	1	0	3	0
44	572	10	10000	3	1	0	3	0
46	573	10	10000	3	1	0	3	0
45	574	10	10000	3	1	0	3	0
46	575	10	10000	3	1	0	3	0
47	576	10	10000	3	1	0	3	0
46	577	10	10000	3	1	0	3	0
50	578	10	10000	3	1	0	3	0
49	579	10	10000	3	1	0	3	0
49	580	10	10000	3	1	0	3	0
48	581	10	10000	3	1	0	3	0
47	582	10	10000	3	1	0	3	0
46	583	10	10000	3	1	0	3	0
45	584	10	10000	3	1	0	3	0
46	585	10	10000	3	1	0	3	0
46	586	10	10000	3	1	0	3	0
47	587	10	10000	3	1	0	3	0
48	588	10	10000	3	1	0	3	0
49	589	10	10000	3	1	0	3	0
49	590	10	10000	3	1	0	3	0
49	591	10	10000	3	1	0	3	0
51	592	10	10000	3	1	0	3	0
52	593	10	10000	3	1	0	3	0
57	594	10	10000	3	1	0	3	0
77	595	10	10000	3	1	0	3	0
89	596	10	10000	3	1	0	3	0
100	597	10	10000	3	1	0	3	0
128	598	10	10000	3	1	0	3	0
138	599	10	10000	3	1	0	3	0
132	600	10	10000	3	1	0	3	0
152	601	10	10000	3	1	0	3	0
161	602	10	10000	3	1	0	3	0
181	603	10	10000	3	1	0	3	0
179	604	10	10000	3	1	0	3	0
184	605	10	10000	3	1	0	3	0
188	606	10	10000	3	1	0	3	0
205	607	10	10000	3	1	0	3	0
227	608	10	10000	3	1	0	3	0
249	609	10	10000	3	1	0	3	0
258	610	10	10000	3	1	0	3	0
254	611	10	10000	3	1	0	3	0
250	612	10	10000	3	1	0	3	0
279	613	10	10000	3	1	0	3	0
300	614	10	10000	3	1	0	3	0
298	615	10	10000	3	1	0	3	0
303	616	10	10000	3	1	0	3	0
303	617	10	10000	3	1	0	3	0
305	618	10	10000	3	1	0	3	0
302	619	10	10000	3	1	0	3	0
296	620	10	10000	3	1	0	3	0
287	621	10	10000	3	1	0	3	0
275	622	10	10000	3	1	0	3	0
263	623	10	10000	3	1	0	3	0
255	624	10	10000	3	1	0	3	0
249	625	10	10000	3	1	0	3	0
245	626	10	10000	3	1	0	3	0
243	627	10	10000	3	1	0	3	0
240	628	10	10000	3	1	0	3	0
237	629	10	10000	3	1	0	3	0
233	630	10	10000	3	1	0	3	0
226	631	10	10000	3	1	0	3	0
220	632	10	10000	3	1	0	3	0
210	633	10	10000	3	1	0	3	0
202	634	10	10000	3	1	0	3	0
194	635	10	10000	3	1	0	3	0
186	636	10	10000	3	1	0	3	0
179	637	10	10000	3	1	0	3	0
175	638	10	10000	3	1	0	3	0
168	639	10	10000	3	1	0	3	0
162	640	10	10000	3	1	0	3	0
156	641	10	10000	3	1	0	3	0
150	642	10	10000	3	1	0	3	0
144	643	10	10000	3	1	0	3	0
141	644	10	10000	3	1	0	3	0
137	645	10	10000	3	1	0	3	0
131	646	10	10000	3	1	0	3	0
126	647	10	10000	3	1	0	3	0
121	648	10	10000	3	1	0	3	0
120	649	10	10000	3	1	0	3	0
116	650	10	10000	3	1	0	3	0
111	651	10	10000	3	1	0	3	0
111	652	10	10000	3	1	0	3	0
108	653	10	10000	3	1	0	3	0
106	654	10	10000	3	1	0	3	0
106	655	10	10000	3	1	0	3	0
107	656	10	10000	3	1	0	3	0
107	657	10	10000	3	1	0	3	0
107	658	10	10000	3	1	0	3	0
105	659	10	10000	3	1	0	3	0
106	660	10	10000	3	1	0	3	0
105	661	10	10000	3	1	0	3	0
102	662	10	10000	3	1	0	3	0
100	663	10	10000	3	1	0	3	0
98	664	10	10000	3	1	0	3	0
96	665	10	10000	3	1	0	3	0
93	666	10	10000	3	1	0	3	0
89	667	10	10000	3	1	0	3	0
87	668	10	10000	3	1	0	3	0
88	669	10	10000	3	1	0	3	0
86	670	10	10000	3	1	0	3	0
85	671	10	10000	3	1	0	3	0
82	672	10	10000	3	1	0	3	0
79	673	10	10000	3	1	0	3	0
77	674	10	10000	3	1	0	3	0
75	675	10	10000	3	1	0	3	0
73	676	10	10000	3	1	0	3	0
72	677	10	10000	3	1	0	3	0
70	678	10	10000	3	1	0	3	0
67	679	10	10000	3	1	0	3	0
65	680	10	10000	3	1	0	3	0
64	681	10	10000	3	1	0	3	0
63	682	10	10000	3	1	0	3	0
64	683	10	10000	3	1	0	3	0
63	684	10	10000	3	1	0	3	0
61	685	10	10000	3	1	0	3	0
60	686	10	10000	3	1	0	3	0
58	687	10	10000	3	1	0	3	0
58	688	10	10000	3	1	0	3	0
61	689	10	10000	3	1	0	3	0
59	690	10	10000	3	1	0	3	0
57	691	10	10000	3	1	0	3	0
56	692	10	10000	3	1	0	3	0
54	693	10	10000	3	1	0	3	0
54	694	10	10000	3	1	0	3	0
53	695	10	10000	3	1	0	3	0
53	696	10	10000	3	1	0	3	0
54	697	10	10000	3	1	0	3	0
55	698	10	10000	3	1	0	3	0
52	699	10	10000	3	1	0	3	0
50	700	10	10000	3	1	0	3	0
49	701	10	10000	3	1	0	3	0
48	702	10	10000	3	1	0	3	0
48	703	10	10000	3	1	0	3	0
47	704	10	10000	3	1	0	3	0
47	705	10	10000	3	1	0	3	0
49	706	10	10000	3	1	0	3	0
53	707	10	10000	3	1	0	3	0
56	708	10	10000	3	1	0	3	0
59	709	10	10000	3	1	0	3	0
57	710	10	10000	3	1	0	3	0
56	711	10	10000	3	1	0	3	0
54	712	10	10000	3	1	0	3	0
52	713	10	10000	3	1	0	3	0
51	714	10	10000	3	1	0	3	0
49	715	10	10000	3	1	0	3	0
48	716	10	10000	3	1	0	3	0
48	717	10	10000	3	1	0	3	0
49	718	10	10000	3	1	0	3	0
51	719	10	10000	3	1	0	3	0
54	720	10	10000	3	1	0	3	0
53	721	10	10000	3	1	0	3	0
52	722	10	10000	3	1	0	3	0
51	723	10	10000	3	1	0	3	0
50	724	10	10000	3	1	0	3	0
50	725	10	10000	3	1	0	3	0
50	726	10	10000	3	1	0	3	0
50	727	10	10000	3	1	0	3	0
49	728	10	10000	3	1	0	3	0
51	729	10	10000	3	1	0	3	0
53	730	10	10000	3	1	0	3	0
55	731	10	10000	3	1	0	3	0
55	732	10	10000	3	1	0	3	0
54	733	10	10000	3	1	0	3	0
53	734	10	10000	3	1	0	3	0
54	735	10	10000	3	1	0	3	0
55	736	10	10000	3	1	0	3	0
55	737	10	10000	3	1	0	3	0
55	738	10	10000	3	1	0	3	0
52	739	10	10000	3	1	0	3	0
53	740	10	10000	3	1	0	3	0
52	741	10	10000	3	1	0	3	0
52	742	10	10000	3	1	0	3	0
53	743	10	10000	3	1	0	3	0
52	744	10	10000	3	1	0	3	0
53	745	10	10000	3	1	0	3	0
52	746	10	10000	3	1	0	3	0
50	747	10	10000	3	1	0	3	0
49	748	10	10000	3	1	0	3	0
50	749	10	10000	3	1	0	3	0
52	750	10	10000	3	1	0	3	0
55	751	10	10000	3	1	0	3	0
55	752	10	10000	3	1	0	3	0
54	753	10	10000	3	1	0	3	0
55	754	10	10000	3	1	0	3	0
54	755	10	10000	3	1	0	3	0
57	756	10	10000	3	1	0	3	0
61	757	10	10000	3	1	0	3	0
64	758	10	10000	3	1	0	3	0
61	759	10	10000	3	1	0	3	0
60	760	10	10000	3	1	0	3	0
58	761	10	10000	3	1	0	3	0
57	762	10	10000	3	1	0	3	0
56	763	10	10000	3	1	0	3	0
57	764	10	10000	3	1	0	3	0
56	765	10	10000	3	1	0	3	0
56	766	10	10000	3	1	0	3	0
59	767	10	10000	3	1	0	3	0
60	768	10	10000	3	1	0	3	0
64	769	10	10000	3	1	0	3	0
62	770	10	10000	3	1	0	3	0
61	771	10	10000	3	1	0	3	0
59	772	10	10000	3	1	0	3	0
57	773	10	10000	3	1	0	3	0
57	774	10	10000	3	1	0	3	0
55	775	10	10000	3	1	0	3	0
54	776	10	10000	3	1	0	3	0
54	777	10	10000	3	1	0	3	0
52	778	10	10000	3	1	0	3	0
49	779	10	10000	3	1	0	3	0
48	780	10	10000	3	1	0	3	0
47	781	10	10000	3	1	0	3	0
47	782	10	10000	3	1	0	3	0
46	783	10	10000	3	1	0	3	0
45	784	10	10000	3	1	0	3	0
47	785	10	10000	3	1	0	3	0
49	786	10	10000	3	1	0	3	0
51	787	10	10000	3	1	0	3	0
51	788	10	10000	3	1	0	3	0
52	789	10	10000	3	1	0	3	0
51	790	10	10000	3	1	0	3	0
50	791	10	10000	3	1	0	3	0
51	792	10	10000	3	1	0	3	0
52	793	10	10000	3	1	0	3	0
54	794	10	10000	3	1	0	3	0
53	795	10	10000	3	1	0	3	0
52	796	10	10000	3	1	0	3	0
54	797	10	10000	3	1	0	3	0
56	798	10	10000	3	1	0	3	0
53	799	10	10000	3	1	0	3	0
52	800	10	10000	3	1	0	3	0
51	801	10	10000	3	1	0	3	0
51	802	10	10000	3	1	0	3	0
50	803	10	10000	3	1	0	3	0
52	804	10	10000	3	1	0	3	0
55	805	10	10000	3	1	0	3	0
53	806	10	10000	3	1	0	3	0
53	807	10	10000	3	1	0	3	0
56	808	10	10000	3	1	0	3	0
59	809	10	10000	3	1	0	3	0
60	810	10	10000	3	1	0	3	0
58	811	10	10000	3	1	0	3	0
57	812	10	10000	3	1	0	3	0
58	813	10	10000	3	1	0	3	0
61	814	10	10000	3	1	0	3	0
63	815	10	10000	3	1	0	3	0
62	816	10	10000	3	1	0	3	0
62	817	10	10000	3	1	0	3	0
59	818	10	10000	3	1	0	3	0
56	819	10	10000	3	1	0	3	0
55	820	10	10000	3	1	0	3	0
54	821	10	10000	3	1	0	3	0
52	822	10	10000	3	1	0	3	0
51	823	10	10000	3	1	0	3	0
51	824	10	10000	3	1	0	3	0
54	825	10	10000	3	1	0	3	0
55	826	10	10000	3	1	0	3	0
53	827	10	10000	3	1	0	3	0
54	828	10	10000	3	1	0	3	0
55	829	10	10000	3	1	0	3	0
53	830	10	10000	3	1	0	3	0
53	831	10	10000	3	1	0	3	0
50	832	10	10000	3	1	0	3	0
49	833	10	10000	3	1	0	3	0
49	834	10	10000	3	1	0	3	0
48	835	10	10000	3	1	0	3	0
47	836	10	10000	3	1	0	3	0
49	837	10	10000	3	1	0	3	0
49	838	10	10000	3	1	0	3	0
46	839	10	10000	3	1	0	3	0
46	840	10	10000	3	1	0	3	0
50	841	10	10000	3	1	0	3	0
53	842	10	10000	3	1	0	3	0
53	843	10	10000	3	1	0	3	0
53	844	10	10000	3	1	0	3	0
52	845	10	10000	3	1	0	3	0
51	846	10	10000	3	1	0	3	0
53	847	10	10000	3	1	0	3	0
56	848	10	10000	3	1	0	3	0
58	849	10	10000	3	1	0	3	0
57	850	10	10000	3	1	0	3	0
56	851	10	10000	3	1	0	3	0
57	852	10	10000	3	1	0	3	0
56	853	10	10000	3	1	0	3	0
55	854	10	10000	3	1	0	3	0
54	855	10	10000	3	1	0	3	0
53	856	10	10000	3	1	0	3	0
52	857	10	10000	3	1	0	3	0
51	858	10	10000	3	1	0	3	0
49	859	10	10000	3	1	0	3	0
52	860	10	10000	3	1	0	3	0
55	861	10	10000	3	1	0	3	0
55	862	10	10000	3	1	0	3	0
54	863	10	10000	3	1	0	3	0
55	864	10	10000	3	1	0	3	0
58	865	10	10000	3	1	0	3	0
58	866	10	10000	3	1	0	3	0
56	867	10	10000	3	1	0	3	0
57	868	10	10000	3	1	0	3	0
59	869	10	10000	3	1	0	3	0
57	870	10	10000	3	1	0	3	0
58	871	10	10000	3	1	0	3	0
58	872	10	10000	3	1	0	3	0
57	873	10	10000	3	1	0	3	0
55	874	10	10000	3	1	0	3	0
53	875	10	10000	3	1	0	3	0
52	876	10	10000	3	1	0	3	0
51	877	10	10000	3	1	0	3	0
50	878	10	10000	3	1	0	3	0
48	879	10	10000	3	1	0	3	0
46	880	10	10000	3	1	0	3	0
45	881	10	10000	3	1	0	3	0
46	882	10	10000	3	1	0	3	0
45	883	10	10000	3	1	0	3	0
45	884	10	10000	3	1	0	3	0
46	885	10	10000	3	1	0	3	0
45	886	10	10000	3	1	0	3	0
43	887	10	10000	3	1	0	3	0
42	888	10	10000	3	1	0	3	0
43	889	10	10000	3	1	0	3	0
42	890	10	10000	3	1	0	3	0
41	891	10	10000	3	1	0	3	0
40	892	10	10000	3	1	0	3	0
39	893	10	10000	3	1	0	3	0
40	894	10	10000	3	1	0	3	0
40	895	10	10000	3	1	0	3	0
45	896	10	10000	3	1	0	3	0
50	897	10	10000	3	1	0	3	0
49	898	10	10000	3	1	0	3	0
50	899	10	10000	3	1	0	3	0
52	900	10	10000	3	1	0	3	0
53	901	10	10000	3	1	0	3	0
53	902	10	10000	3	1	0	3	0
53	903	10	10000	3	1	0	3	0
53	904	10	10000	3	1	0	3	0
51	905	10	10000	3	1	0	3	0
50	906	10	10000	3	1	0	3	0
49	907	10	10000	3	1	0	3	0
47	908	10	10000	3	1	0	3	0
47	909	10	10000	3	1	0	3	0
47	910	10	10000	3	1	0	3	0
45	911	10	10000	3	1	0	3	0
44	912	10	10000	3	1	0	3	0
43	913	10	10000	3	1	0	3	0
42	914	10	10000	3	1	0	3	0
40	915	10	10000	3	1	0	3	0
42	916	10	10000	3	1	0	3	0
41	917	10	10000	3	1	0	3	0
42	918	10	10000	3	1	0	3	0
43	919	10	10000	3	1	0	3	0
46	920	10	10000	3	1	0	3	0
50	921	10	10000	3	1	0	3	0
51	922	10	10000	3	1	0	3	0
50	923	10	10000	3	1	0	3	0
49	924	10	10000	3	1	0	3	0
48	925	10	10000	3	1	0	3	0
47	926	10	10000	3	1	0	3	0
46	927	10	10000	3	1	0	3	0
45	928	10	10000	3	1	0	3	0
52	929	10	10000	3	1	0	3	0
59	930	10	10000	3	1	0	3	0
63	931	10	10000	3	1	0	3	0
61	932	10	10000	3	1	0	3	0
60	933	10	10000	3	1	0	3	0
60	934	10	10000	3	1	0	3	0
58	935	10	10000	3	1	0	3	0
57	936	10	10000	3	1	0	3	0
55	937	10	10000	3	1	0	3	0
55	938	10	10000	3	1	0	3	0
53	939	10	10000	3	1	0	3	0
53	940	10	10000	3	1	0	3	0
52	941	10	10000	3	1	0	3	0
51	942	10	10000	3	1	0	3	0
50	943	10	10000	3	1	0	3	0
50	944	10	10000	3	1	0	3	0
49	945	10	10000	3	1	0	3	0
48	946	10	10000	3	1	0	3	0
47	947	10	10000	3	1	0	3	0
46	948	10	10000	3	1	0	3	0
50	949	10	10000	3	1	0	3	0
52	950	10	10000	3	1	0	3	0
50	951	10	10000	3	1	0	3	0
49	952	10	10000	3	1	0	3	0
48	953	10	10000	3	1	0	3	0
46	954	10	10000	3	1	0	3	0
46	955	10	10000	3	1	0	3	0
47	956	10	10000	3	1	0	3	0
46	957	10	10000	3	1	0	3	0
46	958	10	10000	3	1	0	3	0
45	959	10	10000	3	1	0	3	0
47	960	10	10000	3	1	0	3	0
50	961	10	10000	3	1	0	3	0
50	962	10	10000	3	1	0	3	0
50	963	10	10000	3	1	0	3	0
49	964	10	10000	3	1	0	3	0
50	965	10	10000	3	1	0	3	0
51	966	10	10000	3	1	0	3	0
52	967	10	10000	3	1	0	3	0
51	968	10	10000	3	1	0	3	0
53	969	10	10000	3	1	0	3	0
52	970	10	10000	3	1	0	3	0
50	971	10	10000	3	1	0	3	0
50	972	10	10000	3	1	0	3	0
53	973	10	10000	3	1	0	3	0
52	974	10	10000	3	1	0	3	0
51	975	10	10000	3	1	0	3	0
50	976	10	10000	3	1	0	3	0
51	977	10	10000	3	1	0	3	0
50	978	10	10000	3	1	0	3	0
49	979	10	10000	3	1	0	3	0
48	980	10	10000	3	1	0	3	0
47	981	10	10000	3	1	0	3	0
49	982	10	10000	3	1	0	3	0
51	983	10	10000	3	1	0	3	0
51	984	10	10000	3	1	0	3	0
52	985	10	10000	3	1	0	3	0
50	986	10	10000	3	1	0	3	0
50	987	10	10000	3	1	0	3	0
50	988	10	10000	3	1	0	3	0
51	989	10	10000	3	1	0	3	0
52	990	10	10000	3	1	0	3	0
50	991	10	10000	3	1	0	3	0
50	992	10	10000	3	1	0	3	0
51	993	10	10000	3	1	0	3	0
50	994	10	10000	3	1	0	3	0
50	995	10	10000	3	1	0	3	0
49	996	10	10000	3	1	0	3	0
51	997	10	10000	3	1	0	3	0
55	998	10	10000	3	1	0	3	0
55	999	10	10000	3	1	0	3	0
54	1000	10	10000	3	1	0	3	0
39	1	10	10000	4	1	0	4	0
39	2	10	10000	4	1	0	4	0
37	3	10	10000	4	1	0	4	0
37	4	10	10000	4	1	0	4	0
37	5	10	10000	4	1	0	4	0
39	6	10	10000	4	1	0	4	0
37	7	10	10000	4	1	0	4	0
38	8	10	10000	4	1	0	4	0
40	9	10	10000	4	1	0	4	0
41	10	10	10000	4	1	0	4	0
40	11	10	10000	4	1	0	4	0
40	12	10	10000	4	1	0	4	0
40	13	10	10000	4	1	0	4	0
41	14	10	10000	4	1	0	4	0
41	15	10	10000	4	1	0	4	0
39	16	10	10000	4	1	0	4	0
39	17	10	10000	4	1	0	4	0
38	18	10	10000	4	1	0	4	0
36	19	10	10000	4	1	0	4	0
36	20	10	10000	4	1	0	4	0
36	20	10	10000	4	1	0	4	0
38	21	10	10000	4	1	0	4	0
37	23	10	10000	4	1	0	4	0
36	24	10	10000	4	1	0	4	0
35	25	10	10000	4	1	0	4	0
34	26	10	10000	4	1	0	4	0
33	27	10	10000	4	1	0	4	0
33	28	10	10000	4	1	0	4	0
33	29	10	10000	4	1	0	4	0
33	30	10	10000	4	1	0	4	0
32	30	10	10000	4	1	0	4	0
31	31	10	10000	4	1	0	4	0
32	33	10	10000	4	1	0	4	0
33	34	10	10000	4	1	0	4	0
32	35	10	10000	4	1	0	4	0
32	36	10	10000	4	1	0	4	0
33	37	10	10000	4	1	0	4	0
32	38	10	10000	4	1	0	4	0
33	39	10	10000	4	1	0	4	0
32	40	10	10000	4	1	0	4	0
33	40	10	10000	4	1	0	4	0
33	41	10	10000	4	1	0	4	0
33	43	10	10000	4	1	0	4	0
35	44	10	10000	4	1	0	4	0
37	45	10	10000	4	1	0	4	0
37	46	10	10000	4	1	0	4	0
38	47	10	10000	4	1	0	4	0
39	48	10	10000	4	1	0	4	0
40	49	10	10000	4	1	0	4	0
40	50	10	10000	4	1	0	4	0
40	50	10	10000	4	1	0	4	0
40	51	10	10000	4	1	0	4	0
42	53	10	10000	4	1	0	4	0
42	54	10	10000	4	1	0	4	0
41	55	10	10000	4	1	0	4	0
40	56	10	10000	4	1	0	4	0
39	57	10	10000	4	1	0	4	0
37	58	10	10000	4	1	0	4	0
36	59	10	10000	4	1	0	4	0
37	60	10	10000	4	1	0	4	0
39	60	10	10000	4	1	0	4	0
38	61	10	10000	4	1	0	4	0
37	63	10	10000	4	1	0	4	0
38	64	10	10000	4	1	0	4	0
38	65	10	10000	4	1	0	4	0
38	66	10	10000	4	1	0	4	0
37	67	10	10000	4	1	0	4	0
37	68	10	10000	4	1	0	4	0
37	69	10	10000	4	1	0	4	0
38	70	10	10000	4	1	0	4	0
37	70	10	10000	4	1	0	4	0
35	71	10	10000	4	1	0	4	0
35	73	10	10000	4	1	0	4	0
35	74	10	10000	4	1	0	4	0
34	75	10	10000	4	1	0	4	0
34	76	10	10000	4	1	0	4	0
35	77	10	10000	4	1	0	4	0
35	78	10	10000	4	1	0	4	0
34	79	10	10000	4	1	0	4	0
33	80	10	10000	4	1	0	4	0
35	80	10	10000	4	1	0	4	0
38	81	10	10000	4	1	0	4	0
38	83	10	10000	4	1	0	4	0
39	84	10	10000	4	1	0	4	0
40	85	10	10000	4	1	0	4	0
39	86	10	10000	4	1	0	4	0
37	87	10	10000	4	1	0	4	0
39	88	10	10000	4	1	0	4	0
41	89	10	10000	4	1	0	4	0
41	90	10	10000	4	1	0	4	0
39	90	10	10000	4	1	0	4	0
39	91	10	10000	4	1	0	4	0
40	93	10	10000	4	1	0	4	0
40	94	10	10000	4	1	0	4	0
39	95	10	10000	4	1	0	4	0
39	96	10	10000	4	1	0	4	0
39	97	10	10000	4	1	0	4	0
40	98	10	10000	4	1	0	4	0
39	99	10	10000	4	1	0	4	0
40	100	10	10000	4	1	0	4	0
44	100	10	10000	4	1	0	4	0
45	101	10	10000	4	1	0	4	0
46	103	10	10000	4	1	0	4	0
45	104	10	10000	4	1	0	4	0
44	105	10	10000	4	1	0	4	0
43	106	10	10000	4	1	0	4	0
42	107	10	10000	4	1	0	4	0
41	108	10	10000	4	1	0	4	0
41	109	10	10000	4	1	0	4	0
42	110	10	10000	4	1	0	4	0
43	110	10	10000	4	1	0	4	0
43	111	10	10000	4	1	0	4	0
43	113	10	10000	4	1	0	4	0
43	114	10	10000	4	1	0	4	0
43	115	10	10000	4	1	0	4	0
42	116	10	10000	4	1	0	4	0
41	117	10	10000	4	1	0	4	0
40	118	10	10000	4	1	0	4	0
39	119	10	10000	4	1	0	4	0
38	120	10	10000	4	1	0	4	0
38	120	10	10000	4	1	0	4	0
39	121	10	10000	4	1	0	4	0
37	123	10	10000	4	1	0	4	0
36	124	10	10000	4	1	0	4	0
36	125	10	10000	4	1	0	4	0
35	126	10	10000	4	1	0	4	0
34	127	10	10000	4	1	0	4	0
36	128	10	10000	4	1	0	4	0
37	129	10	10000	4	1	0	4	0
37	130	10	10000	4	1	0	4	0
37	130	10	10000	4	1	0	4	0
36	131	10	10000	4	1	0	4	0
36	133	10	10000	4	1	0	4	0
35	134	10	10000	4	1	0	4	0
35	135	10	10000	4	1	0	4	0
35	136	10	10000	4	1	0	4	0
37	137	10	10000	4	1	0	4	0
39	138	10	10000	4	1	0	4	0
39	139	10	10000	4	1	0	4	0
37	140	10	10000	4	1	0	4	0
39	140	10	10000	4	1	0	4	0
42	141	10	10000	4	1	0	4	0
40	143	10	10000	4	1	0	4	0
39	144	10	10000	4	1	0	4	0
38	145	10	10000	4	1	0	4	0
39	146	10	10000	4	1	0	4	0
38	147	10	10000	4	1	0	4	0
37	148	10	10000	4	1	0	4	0
38	149	10	10000	4	1	0	4	0
39	150	10	10000	4	1	0	4	0
39	150	10	10000	4	1	0	4	0
38	151	10	10000	4	1	0	4	0
38	153	10	10000	4	1	0	4	0
37	154	10	10000	4	1	0	4	0
36	155	10	10000	4	1	0	4	0
38	156	10	10000	4	1	0	4	0
36	157	10	10000	4	1	0	4	0
36	158	10	10000	4	1	0	4	0
36	159	10	10000	4	1	0	4	0
35	160	10	10000	4	1	0	4	0
36	160	10	10000	4	1	0	4	0
36	161	10	10000	4	1	0	4	0
35	163	10	10000	4	1	0	4	0
34	164	10	10000	4	1	0	4	0
33	165	10	10000	4	1	0	4	0
33	166	10	10000	4	1	0	4	0
32	167	10	10000	4	1	0	4	0
32	168	10	10000	4	1	0	4	0
32	169	10	10000	4	1	0	4	0
32	170	10	10000	4	1	0	4	0
31	170	10	10000	4	1	0	4	0
30	171	10	10000	4	1	0	4	0
32	173	10	10000	4	1	0	4	0
32	174	10	10000	4	1	0	4	0
31	175	10	10000	4	1	0	4	0
32	176	10	10000	4	1	0	4	0
31	177	10	10000	4	1	0	4	0
31	178	10	10000	4	1	0	4	0
32	179	10	10000	4	1	0	4	0
32	180	10	10000	4	1	0	4	0
33	180	10	10000	4	1	0	4	0
37	181	10	10000	4	1	0	4	0
39	183	10	10000	4	1	0	4	0
39	184	10	10000	4	1	0	4	0
38	185	10	10000	4	1	0	4	0
38	186	10	10000	4	1	0	4	0
38	187	10	10000	4	1	0	4	0
39	188	10	10000	4	1	0	4	0
42	189	10	10000	4	1	0	4	0
44	190	10	10000	4	1	0	4	0
43	190	10	10000	4	1	0	4	0
42	191	10	10000	4	1	0	4	0
42	193	10	10000	4	1	0	4	0
41	194	10	10000	4	1	0	4	0
40	195	10	10000	4	1	0	4	0
39	196	10	10000	4	1	0	4	0
39	197	10	10000	4	1	0	4	0
38	198	10	10000	4	1	0	4	0
37	199	10	10000	4	1	0	4	0
37	200	10	10000	4	1	0	4	0
38	200	10	10000	4	1	0	4	0
38	201	10	10000	4	1	0	4	0
37	203	10	10000	4	1	0	4	0
37	204	10	10000	4	1	0	4	0
36	205	10	10000	4	1	0	4	0
35	206	10	10000	4	1	0	4	0
37	207	10	10000	4	1	0	4	0
37	208	10	10000	4	1	0	4	0
38	209	10	10000	4	1	0	4	0
39	210	10	10000	4	1	0	4	0
37	210	10	10000	4	1	0	4	0
36	211	10	10000	4	1	0	4	0
36	213	10	10000	4	1	0	4	0
34	214	10	10000	4	1	0	4	0
34	215	10	10000	4	1	0	4	0
34	216	10	10000	4	1	0	4	0
33	217	10	10000	4	1	0	4	0
33	218	10	10000	4	1	0	4	0
34	219	10	10000	4	1	0	4	0
33	220	10	10000	4	1	0	4	0
33	220	10	10000	4	1	0	4	0
33	221	10	10000	4	1	0	4	0
33	223	10	10000	4	1	0	4	0
32	224	10	10000	4	1	0	4	0
32	225	10	10000	4	1	0	4	0
32	226	10	10000	4	1	0	4	0
33	227	10	10000	4	1	0	4	0
32	228	10	10000	4	1	0	4	0
33	229	10	10000	4	1	0	4	0
34	230	10	10000	4	1	0	4	0
33	230	10	10000	4	1	0	4	0
32	231	10	10000	4	1	0	4	0
32	233	10	10000	4	1	0	4	0
32	234	10	10000	4	1	0	4	0
33	235	10	10000	4	1	0	4	0
33	236	10	10000	4	1	0	4	0
32	237	10	10000	4	1	0	4	0
32	238	10	10000	4	1	0	4	0
31	239	10	10000	4	1	0	4	0
32	240	10	10000	4	1	0	4	0
37	240	10	10000	4	1	0	4	0
40	241	10	10000	4	1	0	4	0
39	243	10	10000	4	1	0	4	0
39	244	10	10000	4	1	0	4	0
38	245	10	10000	4	1	0	4	0
39	246	10	10000	4	1	0	4	0
40	247	10	10000	4	1	0	4	0
41	248	10	10000	4	1	0	4	0
39	249	10	10000	4	1	0	4	0
39	250	10	10000	4	1	0	4	0
37	250	10	10000	4	1	0	4	0
35	251	10	10000	4	1	0	4	0
35	253	10	10000	4	1	0	4	0
36	254	10	10000	4	1	0	4	0
36	255	10	10000	4	1	0	4	0
36	256	10	10000	4	1	0	4	0
37	257	10	10000	4	1	0	4	0
38	258	10	10000	4	1	0	4	0
37	259	10	10000	4	1	0	4	0
36	260	10	10000	4	1	0	4	0
37	260	10	10000	4	1	0	4	0
36	261	10	10000	4	1	0	4	0
36	263	10	10000	4	1	0	4	0
36	264	10	10000	4	1	0	4	0
34	265	10	10000	4	1	0	4	0
35	266	10	10000	4	1	0	4	0
35	267	10	10000	4	1	0	4	0
36	268	10	10000	4	1	0	4	0
38	269	10	10000	4	1	0	4	0
40	270	10	10000	4	1	0	4	0
39	270	10	10000	4	1	0	4	0
37	271	10	10000	4	1	0	4	0
38	273	10	10000	4	1	0	4	0
38	274	10	10000	4	1	0	4	0
41	275	10	10000	4	1	0	4	0
43	276	10	10000	4	1	0	4	0
44	277	10	10000	4	1	0	4	0
45	278	10	10000	4	1	0	4	0
46	279	10	10000	4	1	0	4	0
47	280	10	10000	4	1	0	4	0
50	280	10	10000	4	1	0	4	0
49	281	10	10000	4	1	0	4	0
48	283	10	10000	4	1	0	4	0
49	284	10	10000	4	1	0	4	0
49	285	10	10000	4	1	0	4	0
48	286	10	10000	4	1	0	4	0
46	287	10	10000	4	1	0	4	0
46	288	10	10000	4	1	0	4	0
48	289	10	10000	4	1	0	4	0
51	290	10	10000	4	1	0	4	0
51	290	10	10000	4	1	0	4	0
51	291	10	10000	4	1	0	4	0
49	293	10	10000	4	1	0	4	0
49	294	10	10000	4	1	0	4	0
48	295	10	10000	4	1	0	4	0
46	296	10	10000	4	1	0	4	0
45	297	10	10000	4	1	0	4	0
45	298	10	10000	4	1	0	4	0
44	299	10	10000	4	1	0	4	0
44	300	10	10000	4	1	0	4	0
44	300	10	10000	4	1	0	4	0
45	301	10	10000	4	1	0	4	0
48	303	10	10000	4	1	0	4	0
51	304	10	10000	4	1	0	4	0
50	305	10	10000	4	1	0	4	0
49	306	10	10000	4	1	0	4	0
48	307	10	10000	4	1	0	4	0
48	308	10	10000	4	1	0	4	0
48	309	10	10000	4	1	0	4	0
48	310	10	10000	4	1	0	4	0
46	310	10	10000	4	1	0	4	0
44	311	10	10000	4	1	0	4	0
44	313	10	10000	4	1	0	4	0
44	314	10	10000	4	1	0	4	0
45	315	10	10000	4	1	0	4	0
45	316	10	10000	4	1	0	4	0
45	317	10	10000	4	1	0	4	0
44	318	10	10000	4	1	0	4	0
43	319	10	10000	4	1	0	4	0
42	320	10	10000	4	1	0	4	0
43	320	10	10000	4	1	0	4	0
42	321	10	10000	4	1	0	4	0
41	323	10	10000	4	1	0	4	0
40	324	10	10000	4	1	0	4	0
39	325	10	10000	4	1	0	4	0
40	326	10	10000	4	1	0	4	0
41	327	10	10000	4	1	0	4	0
43	328	10	10000	4	1	0	4	0
45	329	10	10000	4	1	0	4	0
44	330	10	10000	4	1	0	4	0
44	330	10	10000	4	1	0	4	0
42	331	10	10000	4	1	0	4	0
41	333	10	10000	4	1	0	4	0
41	334	10	10000	4	1	0	4	0
42	335	10	10000	4	1	0	4	0
42	336	10	10000	4	1	0	4	0
42	337	10	10000	4	1	0	4	0
42	338	10	10000	4	1	0	4	0
42	339	10	10000	4	1	0	4	0
42	340	10	10000	4	1	0	4	0
43	340	10	10000	4	1	0	4	0
44	341	10	10000	4	1	0	4	0
44	343	10	10000	4	1	0	4	0
43	344	10	10000	4	1	0	4	0
43	345	10	10000	4	1	0	4	0
44	346	10	10000	4	1	0	4	0
43	347	10	10000	4	1	0	4	0
43	348	10	10000	4	1	0	4	0
43	349	10	10000	4	1	0	4	0
42	350	10	10000	4	1	0	4	0
41	350	10	10000	4	1	0	4	0
39	351	10	10000	4	1	0	4	0
39	353	10	10000	4	1	0	4	0
39	354	10	10000	4	1	0	4	0
39	355	10	10000	4	1	0	4	0
40	356	10	10000	4	1	0	4	0
41	357	10	10000	4	1	0	4	0
43	358	10	10000	4	1	0	4	0
43	359	10	10000	4	1	0	4	0
43	360	10	10000	4	1	0	4	0
45	360	10	10000	4	1	0	4	0
46	361	10	10000	4	1	0	4	0
47	363	10	10000	4	1	0	4	0
47	364	10	10000	4	1	0	4	0
49	365	10	10000	4	1	0	4	0
51	366	10	10000	4	1	0	4	0
49	367	10	10000	4	1	0	4	0
48	368	10	10000	4	1	0	4	0
48	369	10	10000	4	1	0	4	0
48	370	10	10000	4	1	0	4	0
49	370	10	10000	4	1	0	4	0
48	371	10	10000	4	1	0	4	0
48	373	10	10000	4	1	0	4	0
49	374	10	10000	4	1	0	4	0
52	375	10	10000	4	1	0	4	0
53	376	10	10000	4	1	0	4	0
54	377	10	10000	4	1	0	4	0
53	378	10	10000	4	1	0	4	0
50	379	10	10000	4	1	0	4	0
50	380	10	10000	4	1	0	4	0
50	380	10	10000	4	1	0	4	0
49	381	10	10000	4	1	0	4	0
49	383	10	10000	4	1	0	4	0
52	384	10	10000	4	1	0	4	0
55	385	10	10000	4	1	0	4	0
57	386	10	10000	4	1	0	4	0
55	387	10	10000	4	1	0	4	0
55	388	10	10000	4	1	0	4	0
56	389	10	10000	4	1	0	4	0
60	390	10	10000	4	1	0	4	0
60	390	10	10000	4	1	0	4	0
60	391	10	10000	4	1	0	4	0
61	393	10	10000	4	1	0	4	0
60	394	10	10000	4	1	0	4	0
59	395	10	10000	4	1	0	4	0
57	396	10	10000	4	1	0	4	0
56	397	10	10000	4	1	0	4	0
55	398	10	10000	4	1	0	4	0
53	399	10	10000	4	1	0	4	0
53	400	10	10000	4	1	0	4	0
53	400	10	10000	4	1	0	4	0
52	401	10	10000	4	1	0	4	0
51	403	10	10000	4	1	0	4	0
49	404	10	10000	4	1	0	4	0
47	405	10	10000	4	1	0	4	0
46	406	10	10000	4	1	0	4	0
45	407	10	10000	4	1	0	4	0
44	408	10	10000	4	1	0	4	0
44	409	10	10000	4	1	0	4	0
43	410	10	10000	4	1	0	4	0
41	410	10	10000	4	1	0	4	0
40	411	10	10000	4	1	0	4	0
40	413	10	10000	4	1	0	4	0
42	414	10	10000	4	1	0	4	0
45	415	10	10000	4	1	0	4	0
45	416	10	10000	4	1	0	4	0
45	417	10	10000	4	1	0	4	0
44	418	10	10000	4	1	0	4	0
42	419	10	10000	4	1	0	4	0
44	420	10	10000	4	1	0	4	0
48	420	10	10000	4	1	0	4	0
51	421	10	10000	4	1	0	4	0
51	423	10	10000	4	1	0	4	0
49	424	10	10000	4	1	0	4	0
50	425	10	10000	4	1	0	4	0
52	426	10	10000	4	1	0	4	0
54	427	10	10000	4	1	0	4	0
56	428	10	10000	4	1	0	4	0
61	429	10	10000	4	1	0	4	0
64	430	10	10000	4	1	0	4	0
63	430	10	10000	4	1	0	4	0
64	431	10	10000	4	1	0	4	0
66	433	10	10000	4	1	0	4	0
67	434	10	10000	4	1	0	4	0
65	435	10	10000	4	1	0	4	0
63	436	10	10000	4	1	0	4	0
64	437	10	10000	4	1	0	4	0
62	438	10	10000	4	1	0	4	0
60	439	10	10000	4	1	0	4	0
58	440	10	10000	4	1	0	4	0
58	440	10	10000	4	1	0	4	0
58	441	10	10000	4	1	0	4	0
56	443	10	10000	4	1	0	4	0
54	444	10	10000	4	1	0	4	0
54	445	10	10000	4	1	0	4	0
54	446	10	10000	4	1	0	4	0
55	447	10	10000	4	1	0	4	0
56	448	10	10000	4	1	0	4	0
56	449	10	10000	4	1	0	4	0
54	450	10	10000	4	1	0	4	0
52	450	10	10000	4	1	0	4	0
50	451	10	10000	4	1	0	4	0
49	453	10	10000	4	1	0	4	0
49	454	10	10000	4	1	0	4	0
47	455	10	10000	4	1	0	4	0
46	456	10	10000	4	1	0	4	0
47	457	10	10000	4	1	0	4	0
46	458	10	10000	4	1	0	4	0
44	459	10	10000	4	1	0	4	0
44	460	10	10000	4	1	0	4	0
44	460	10	10000	4	1	0	4	0
44	461	10	10000	4	1	0	4	0
44	463	10	10000	4	1	0	4	0
44	464	10	10000	4	1	0	4	0
44	465	10	10000	4	1	0	4	0
43	466	10	10000	4	1	0	4	0
42	467	10	10000	4	1	0	4	0
41	468	10	10000	4	1	0	4	0
41	469	10	10000	4	1	0	4	0
41	470	10	10000	4	1	0	4	0
41	470	10	10000	4	1	0	4	0
39	471	10	10000	4	1	0	4	0
39	473	10	10000	4	1	0	4	0
40	474	10	10000	4	1	0	4	0
39	475	10	10000	4	1	0	4	0
40	476	10	10000	4	1	0	4	0
41	477	10	10000	4	1	0	4	0
42	478	10	10000	4	1	0	4	0
41	479	10	10000	4	1	0	4	0
40	480	10	10000	4	1	0	4	0
40	480	10	10000	4	1	0	4	0
41	481	10	10000	4	1	0	4	0
40	483	10	10000	4	1	0	4	0
39	484	10	10000	4	1	0	4	0
39	485	10	10000	4	1	0	4	0
38	486	10	10000	4	1	0	4	0
37	487	10	10000	4	1	0	4	0
37	488	10	10000	4	1	0	4	0
36	489	10	10000	4	1	0	4	0
36	490	10	10000	4	1	0	4	0
35	490	10	10000	4	1	0	4	0
33	491	10	10000	4	1	0	4	0
32	493	10	10000	4	1	0	4	0
32	494	10	10000	4	1	0	4	0
32	495	10	10000	4	1	0	4	0
32	496	10	10000	4	1	0	4	0
34	497	10	10000	4	1	0	4	0
36	498	10	10000	4	1	0	4	0
36	499	10	10000	4	1	0	4	0
36	500	10	10000	4	1	0	4	0
36	500	10	10000	4	1	0	4	0
37	501	10	10000	4	1	0	4	0
36	503	10	10000	4	1	0	4	1
37	504	10	10000	4	1	0	4	1
41	505	10	10000	4	1	0	4	1
44	506	10	10000	4	1	0	4	1
46	507	10	10000	4	1	0	4	1
46	508	10	10000	4	1	0	4	1
45	509	10	10000	4	1	0	4	1
46	510	10	10000	4	1	0	4	1
46	510	10	10000	4	1	0	4	1
46	511	10	10000	4	1	0	4	1
46	513	10	10000	4	1	0	4	1
46	514	10	10000	4	1	0	4	1
46	515	10	10000	4	1	0	4	1
46	516	10	10000	4	1	0	4	1
46	517	10	10000	4	1	0	4	1
45	518	10	10000	4	1	0	4	1
44	519	10	10000	4	1	0	4	1
42	520	10	10000	4	1	0	4	1
42	520	10	10000	4	1	0	4	1
43	521	10	10000	4	1	0	4	1
41	523	10	10000	4	1	0	4	1
39	524	10	10000	4	1	0	4	1
40	525	10	10000	4	1	0	4	1
38	526	10	10000	4	1	0	4	1
37	527	10	10000	4	1	0	4	1
37	528	10	10000	4	1	0	4	1
37	529	10	10000	4	1	0	4	1
38	530	10	10000	4	1	0	4	1
36	530	10	10000	4	1	0	4	1
35	531	10	10000	4	1	0	4	1
35	533	10	10000	4	1	0	4	1
34	534	10	10000	4	1	0	4	1
34	535	10	10000	4	1	0	4	1
34	536	10	10000	4	1	0	4	1
33	537	10	10000	4	1	0	4	1
33	538	10	10000	4	1	0	4	1
33	539	10	10000	4	1	0	4	1
32	540	10	10000	4	1	0	4	1
32	540	10	10000	4	1	0	4	1
36	541	10	10000	4	1	0	4	1
34	543	10	10000	4	1	0	4	1
34	544	10	10000	4	1	0	4	1
35	545	10	10000	4	1	0	4	1
36	546	10	10000	4	1	0	4	1
36	547	10	10000	4	1	0	4	1
36	548	10	10000	4	1	0	4	1
35	549	10	10000	4	1	0	4	1
35	550	10	10000	4	1	0	4	1
34	550	10	10000	4	1	0	4	1
32	551	10	10000	4	1	0	4	1
32	553	10	10000	4	1	0	4	0
33	554	10	10000	4	1	0	4	0
34	555	10	10000	4	1	0	4	0
37	556	10	10000	4	1	0	4	0
38	557	10	10000	4	1	0	4	0
38	558	10	10000	4	1	0	4	0
38	559	10	10000	4	1	0	4	0
36	560	10	10000	4	1	0	4	0
37	560	10	10000	4	1	0	4	0
38	561	10	10000	4	1	0	4	0
39	563	10	10000	4	1	0	4	0
40	564	10	10000	4	1	0	4	0
39	565	10	10000	4	1	0	4	0
39	566	10	10000	4	1	0	4	0
39	567	10	10000	4	1	0	4	0
39	568	10	10000	4	1	0	4	0
39	569	10	10000	4	1	0	4	0
39	570	10	10000	4	1	0	4	0
38	570	10	10000	4	1	0	4	0
37	571	10	10000	4	1	0	4	0
38	573	10	10000	4	1	0	4	0
39	574	10	10000	4	1	0	4	0
38	575	10	10000	4	1	0	4	0
39	576	10	10000	4	1	0	4	0
38	577	10	10000	4	1	0	4	0
37	578	10	10000	4	1	0	4	0
36	579	10	10000	4	1	0	4	0
35	580	10	10000	4	1	0	4	0
35	580	10	10000	4	1	0	4	0
36	581	10	10000	4	1	0	4	0
36	583	10	10000	4	1	0	4	0
35	584	10	10000	4	1	0	4	0
35	585	10	10000	4	1	0	4	0
35	586	10	10000	4	1	0	4	0
36	587	10	10000	4	1	0	4	0
37	588	10	10000	4	1	0	4	0
36	589	10	10000	4	1	0	4	0
37	590	10	10000	4	1	0	4	0
36	590	10	10000	4	1	0	4	0
35	591	10	10000	4	1	0	4	0
36	593	10	10000	4	1	0	4	0
35	594	10	10000	4	1	0	4	0
36	595	10	10000	4	1	0	4	0
38	596	10	10000	4	1	0	4	0
38	597	10	10000	4	1	0	4	0
41	598	10	10000	4	1	0	4	0
41	599	10	10000	4	1	0	4	0
40	600	10	10000	4	1	0	4	0
41	600	10	10000	4	1	0	4	0
44	601	10	10000	4	1	0	4	0
43	603	10	10000	4	1	0	4	0
42	604	10	10000	4	1	0	4	0
41	605	10	10000	4	1	0	4	0
40	606	10	10000	4	1	0	4	0
39	607	10	10000	4	1	0	4	0
41	608	10	10000	4	1	0	4	0
50	609	10	10000	4	1	0	4	0
61	610	10	10000	4	1	0	4	0
64	610	10	10000	4	1	0	4	0
61	611	10	10000	4	1	0	4	0
63	613	10	10000	4	1	0	4	0
68	614	10	10000	4	1	0	4	0
76	615	10	10000	4	1	0	4	0
80	616	10	10000	4	1	0	4	0
78	617	10	10000	4	1	0	4	0
75	618	10	10000	4	1	0	4	0
74	619	10	10000	4	1	0	4	0
74	620	10	10000	4	1	0	4	0
73	620	10	10000	4	1	0	4	0
73	621	10	10000	4	1	0	4	0
70	623	10	10000	4	1	0	4	0
71	624	10	10000	4	1	0	4	0
69	625	10	10000	4	1	0	4	0
68	626	10	10000	4	1	0	4	0
68	627	10	10000	4	1	0	4	0
69	628	10	10000	4	1	0	4	0
70	629	10	10000	4	1	0	4	0
69	630	10	10000	4	1	0	4	0
66	630	10	10000	4	1	0	4	0
62	631	10	10000	4	1	0	4	0
61	633	10	10000	4	1	0	4	0
59	634	10	10000	4	1	0	4	0
57	635	10	10000	4	1	0	4	0
56	636	10	10000	4	1	0	4	0
55	637	10	10000	4	1	0	4	0
53	638	10	10000	4	1	0	4	0
52	639	10	10000	4	1	0	4	0
50	640	10	10000	4	1	0	4	0
49	640	10	10000	4	1	0	4	0
50	641	10	10000	4	1	0	4	0
49	643	10	10000	4	1	0	4	0
48	644	10	10000	4	1	0	4	0
46	645	10	10000	4	1	0	4	0
45	646	10	10000	4	1	0	4	0
45	647	10	10000	4	1	0	4	0
44	648	10	10000	4	1	0	4	0
44	649	10	10000	4	1	0	4	0
46	650	10	10000	4	1	0	4	0
47	650	10	10000	4	1	0	4	0
47	651	10	10000	4	1	0	4	0
46	653	10	10000	4	1	0	4	0
45	654	10	10000	4	1	0	4	0
45	655	10	10000	4	1	0	4	0
44	656	10	10000	4	1	0	4	0
43	657	10	10000	4	1	0	4	0
43	658	10	10000	4	1	0	4	0
42	659	10	10000	4	1	0	4	0
40	660	10	10000	4	1	0	4	0
41	660	10	10000	4	1	0	4	0
41	661	10	10000	4	1	0	4	0
40	663	10	10000	4	1	0	4	0
39	664	10	10000	4	1	0	4	0
37	665	10	10000	4	1	0	4	0
37	666	10	10000	4	1	0	4	0
36	667	10	10000	4	1	0	4	0
37	668	10	10000	4	1	0	4	0
39	669	10	10000	4	1	0	4	0
38	670	10	10000	4	1	0	4	0
37	670	10	10000	4	1	0	4	0
35	671	10	10000	4	1	0	4	0
35	673	10	10000	4	1	0	4	0
34	674	10	10000	4	1	0	4	0
33	675	10	10000	4	1	0	4	0
33	676	10	10000	4	1	0	4	0
32	677	10	10000	4	1	0	4	0
33	678	10	10000	4	1	0	4	0
31	679	10	10000	4	1	0	4	0
30	680	10	10000	4	1	0	4	0
32	680	10	10000	4	1	0	4	0
32	681	10	10000	4	1	0	4	0
31	683	10	10000	4	1	0	4	0
31	684	10	10000	4	1	0	4	0
31	685	10	10000	4	1	0	4	0
31	686	10	10000	4	1	0	4	0
30	687	10	10000	4	1	0	4	0
30	688	10	10000	4	1	0	4	0
30	689	10	10000	4	1	0	4	0
30	690	10	10000	4	1	0	4	0
29	690	10	10000	4	1	0	4	0
28	691	10	10000	4	1	0	4	0
31	693	10	10000	4	1	0	4	0
31	694	10	10000	4	1	0	4	0
32	695	10	10000	4	1	0	4	0
35	696	10	10000	4	1	0	4	0
34	697	10	10000	4	1	0	4	0
35	698	10	10000	4	1	0	4	0
33	699	10	10000	4	1	0	4	0
32	700	10	10000	4	1	0	4	0
33	700	10	10000	4	1	0	4	0
34	701	10	10000	4	1	0	4	0
34	703	10	10000	4	1	0	4	0
36	704	10	10000	4	1	0	4	0
37	705	10	10000	4	1	0	4	0
37	706	10	10000	4	1	0	4	0
37	707	10	10000	4	1	0	4	0
37	708	10	10000	4	1	0	4	0
37	709	10	10000	4	1	0	4	0
37	710	10	10000	4	1	0	4	0
35	710	10	10000	4	1	0	4	0
35	711	10	10000	4	1	0	4	0
37	713	10	10000	4	1	0	4	0
38	714	10	10000	4	1	0	4	0
40	715	10	10000	4	1	0	4	0
40	716	10	10000	4	1	0	4	0
42	717	10	10000	4	1	0	4	0
43	718	10	10000	4	1	0	4	0
41	719	10	10000	4	1	0	4	0
39	720	10	10000	4	1	0	4	0
39	720	10	10000	4	1	0	4	0
39	721	10	10000	4	1	0	4	0
38	723	10	10000	4	1	0	4	0
38	724	10	10000	4	1	0	4	0
37	725	10	10000	4	1	0	4	0
37	726	10	10000	4	1	0	4	0
37	727	10	10000	4	1	0	4	0
38	728	10	10000	4	1	0	4	0
39	729	10	10000	4	1	0	4	0
38	730	10	10000	4	1	0	4	0
37	730	10	10000	4	1	0	4	0
37	731	10	10000	4	1	0	4	0
37	733	10	10000	4	1	0	4	0
37	734	10	10000	4	1	0	4	0
39	735	10	10000	4	1	0	4	0
42	736	10	10000	4	1	0	4	0
44	737	10	10000	4	1	0	4	0
46	738	10	10000	4	1	0	4	0
46	739	10	10000	4	1	0	4	0
45	740	10	10000	4	1	0	4	0
45	740	10	10000	4	1	0	4	0
52	741	10	10000	4	1	0	4	0
55	743	10	10000	4	1	0	4	0
60	744	10	10000	4	1	0	4	0
66	745	10	10000	4	1	0	4	0
68	746	10	10000	4	1	0	4	0
68	747	10	10000	4	1	0	4	0
66	748	10	10000	4	1	0	4	0
65	749	10	10000	4	1	0	4	0
63	750	10	10000	4	1	0	4	0
60	750	10	10000	4	1	0	4	0
59	751	10	10000	4	1	0	4	0
59	753	10	10000	4	1	0	4	0
61	754	10	10000	4	1	0	4	0
63	755	10	10000	4	1	0	4	0
65	756	10	10000	4	1	0	4	0
64	757	10	10000	4	1	0	4	0
64	758	10	10000	4	1	0	4	0
61	759	10	10000	4	1	0	4	0
59	760	10	10000	4	1	0	4	0
58	760	10	10000	4	1	0	4	0
58	761	10	10000	4	1	0	4	0
57	763	10	10000	4	1	0	4	0
55	764	10	10000	4	1	0	4	0
55	765	10	10000	4	1	0	4	0
56	766	10	10000	4	1	0	4	0
55	767	10	10000	4	1	0	4	0
53	768	10	10000	4	1	0	4	0
54	769	10	10000	4	1	0	4	0
56	770	10	10000	4	1	0	4	0
54	770	10	10000	4	1	0	4	0
52	771	10	10000	4	1	0	4	0
51	773	10	10000	4	1	0	4	0
50	774	10	10000	4	1	0	4	0
49	775	10	10000	4	1	0	4	0
49	776	10	10000	4	1	0	4	0
50	777	10	10000	4	1	0	4	0
51	778	10	10000	4	1	0	4	0
50	779	10	10000	4	1	0	4	0
48	780	10	10000	4	1	0	4	0
48	780	10	10000	4	1	0	4	0
48	781	10	10000	4	1	0	4	0
48	783	10	10000	4	1	0	4	0
49	784	10	10000	4	1	0	4	0
47	785	10	10000	4	1	0	4	0
48	786	10	10000	4	1	0	4	0
49	787	10	10000	4	1	0	4	0
52	788	10	10000	4	1	0	4	0
55	789	10	10000	4	1	0	4	0
54	790	10	10000	4	1	0	4	0
52	790	10	10000	4	1	0	4	0
50	791	10	10000	4	1	0	4	0
49	793	10	10000	4	1	0	4	0
48	794	10	10000	4	1	0	4	0
48	795	10	10000	4	1	0	4	0
47	796	10	10000	4	1	0	4	0
48	797	10	10000	4	1	0	4	0
50	798	10	10000	4	1	0	4	0
51	799	10	10000	4	1	0	4	0
51	800	10	10000	4	1	0	4	0
50	800	10	10000	4	1	0	4	0
50	801	10	10000	4	1	0	4	0
50	803	10	10000	4	1	0	4	0
51	804	10	10000	4	1	0	4	0
51	805	10	10000	4	1	0	4	0
51	806	10	10000	4	1	0	4	0
49	807	10	10000	4	1	0	4	0
48	808	10	10000	4	1	0	4	0
49	809	10	10000	4	1	0	4	0
49	810	10	10000	4	1	0	4	0
48	810	10	10000	4	1	0	4	0
47	811	10	10000	4	1	0	4	0
48	813	10	10000	4	1	0	4	0
51	814	10	10000	4	1	0	4	0
52	815	10	10000	4	1	0	4	0
50	816	10	10000	4	1	0	4	0
50	817	10	10000	4	1	0	4	0
50	818	10	10000	4	1	0	4	0
49	819	10	10000	4	1	0	4	0
50	820	10	10000	4	1	0	4	0
53	820	10	10000	4	1	0	4	0
57	821	10	10000	4	1	0	4	0
56	823	10	10000	4	1	0	4	0
55	824	10	10000	4	1	0	4	0
53	825	10	10000	4	1	0	4	0
52	826	10	10000	4	1	0	4	0
51	827	10	10000	4	1	0	4	0
52	828	10	10000	4	1	0	4	0
53	829	10	10000	4	1	0	4	0
53	830	10	10000	4	1	0	4	0
53	830	10	10000	4	1	0	4	0
51	831	10	10000	4	1	0	4	0
52	833	10	10000	4	1	0	4	0
54	834	10	10000	4	1	0	4	0
53	835	10	10000	4	1	0	4	0
52	836	10	10000	4	1	0	4	0
53	837	10	10000	4	1	0	4	0
52	838	10	10000	4	1	0	4	0
51	839	10	10000	4	1	0	4	0
51	840	10	10000	4	1	0	4	0
50	840	10	10000	4	1	0	4	0
49	841	10	10000	4	1	0	4	0
49	843	10	10000	4	1	0	4	0
47	844	10	10000	4	1	0	4	0
45	845	10	10000	4	1	0	4	0
44	846	10	10000	4	1	0	4	0
43	847	10	10000	4	1	0	4	0
42	848	10	10000	4	1	0	4	0
42	849	10	10000	4	1	0	4	0
42	850	10	10000	4	1	0	4	0
42	850	10	10000	4	1	0	4	0
42	851	10	10000	4	1	0	4	0
41	853	10	10000	4	1	0	4	0
41	854	10	10000	4	1	0	4	0
41	855	10	10000	4	1	0	4	0
40	856	10	10000	4	1	0	4	0
41	857	10	10000	4	1	0	4	0
40	858	10	10000	4	1	0	4	0
38	859	10	10000	4	1	0	4	0
37	860	10	10000	4	1	0	4	0
37	860	10	10000	4	1	0	4	0
38	861	10	10000	4	1	0	4	0
37	863	10	10000	4	1	0	4	0
36	864	10	10000	4	1	0	4	0
37	865	10	10000	4	1	0	4	0
37	866	10	10000	4	1	0	4	0
36	867	10	10000	4	1	0	4	0
36	868	10	10000	4	1	0	4	0
35	869	10	10000	4	1	0	4	0
35	870	10	10000	4	1	0	4	0
36	870	10	10000	4	1	0	4	0
36	871	10	10000	4	1	0	4	0
37	873	10	10000	4	1	0	4	0
37	874	10	10000	4	1	0	4	0
37	875	10	10000	4	1	0	4	0
35	876	10	10000	4	1	0	4	0
35	877	10	10000	4	1	0	4	0
34	878	10	10000	4	1	0	4	0
33	879	10	10000	4	1	0	4	0
32	880	10	10000	4	1	0	4	0
33	880	10	10000	4	1	0	4	0
34	881	10	10000	4	1	0	4	0
34	883	10	10000	4	1	0	4	0
33	884	10	10000	4	1	0	4	0
32	885	10	10000	4	1	0	4	0
32	886	10	10000	4	1	0	4	0
31	887	10	10000	4	1	0	4	0
32	888	10	10000	4	1	0	4	0
37	889	10	10000	4	1	0	4	0
39	890	10	10000	4	1	0	4	0
40	890	10	10000	4	1	0	4	0
38	891	10	10000	4	1	0	4	0
40	893	10	10000	4	1	0	4	0
42	894	10	10000	4	1	0	4	0
45	895	10	10000	4	1	0	4	0
49	896	10	10000	4	1	0	4	0
50	897	10	10000	4	1	0	4	0
48	898	10	10000	4	1	0	4	0
49	899	10	10000	4	1	0	4	0
48	900	10	10000	4	1	0	4	0
51	900	10	10000	4	1	0	4	0
54	901	10	10000	4	1	0	4	0
52	903	10	10000	4	1	0	4	0
51	904	10	10000	4	1	0	4	0
51	905	10	10000	4	1	0	4	0
53	906	10	10000	4	1	0	4	0
53	907	10	10000	4	1	0	4	0
53	908	10	10000	4	1	0	4	0
51	909	10	10000	4	1	0	4	0
50	910	10	10000	4	1	0	4	0
49	910	10	10000	4	1	0	4	0
47	911	10	10000	4	1	0	4	0
47	913	10	10000	4	1	0	4	0
46	914	10	10000	4	1	0	4	0
46	915	10	10000	4	1	0	4	0
46	916	10	10000	4	1	0	4	0
47	917	10	10000	4	1	0	4	0
48	918	10	10000	4	1	0	4	0
49	919	10	10000	4	1	0	4	0
48	920	10	10000	4	1	0	4	0
49	920	10	10000	4	1	0	4	0
52	921	10	10000	4	1	0	4	0
50	923	10	10000	4	1	0	4	0
48	924	10	10000	4	1	0	4	0
47	925	10	10000	4	1	0	4	0
45	926	10	10000	4	1	0	4	0
44	927	10	10000	4	1	0	4	0
44	928	10	10000	4	1	0	4	0
43	929	10	10000	4	1	0	4	0
42	930	10	10000	4	1	0	4	0
40	930	10	10000	4	1	0	4	0
37	931	10	10000	4	1	0	4	0
38	933	10	10000	4	1	0	4	0
37	934	10	10000	4	1	0	4	0
36	935	10	10000	4	1	0	4	0
35	936	10	10000	4	1	0	4	0
35	937	10	10000	4	1	0	4	0
35	938	10	10000	4	1	0	4	0
34	939	10	10000	4	1	0	4	0
33	940	10	10000	4	1	0	4	0
36	940	10	10000	4	1	0	4	0
42	941	10	10000	4	1	0	4	0
41	943	10	10000	4	1	0	4	0
39	944	10	10000	4	1	0	4	0
39	945	10	10000	4	1	0	4	0
40	946	10	10000	4	1	0	4	0
41	947	10	10000	4	1	0	4	0
41	948	10	10000	4	1	0	4	0
40	949	10	10000	4	1	0	4	0
39	950	10	10000	4	1	0	4	0
39	950	10	10000	4	1	0	4	0
39	951	10	10000	4	1	0	4	0
38	953	10	10000	4	1	0	4	0
38	954	10	10000	4	1	0	4	0
37	955	10	10000	4	1	0	4	0
36	956	10	10000	4	1	0	4	0
36	957	10	10000	4	1	0	4	0
36	958	10	10000	4	1	0	4	0
36	959	10	10000	4	1	0	4	0
36	960	10	10000	4	1	0	4	0
36	960	10	10000	4	1	0	4	0
37	961	10	10000	4	1	0	4	0
35	963	10	10000	4	1	0	4	0
35	964	10	10000	4	1	0	4	0
35	965	10	10000	4	1	0	4	0
34	966	10	10000	4	1	0	4	0
35	967	10	10000	4	1	0	4	0
36	968	10	10000	4	1	0	4	0
36	969	10	10000	4	1	0	4	0
38	970	10	10000	4	1	0	4	0
39	970	10	10000	4	1	0	4	0
37	971	10	10000	4	1	0	4	0
37	973	10	10000	4	1	0	4	0
37	974	10	10000	4	1	0	4	0
38	975	10	10000	4	1	0	4	0
38	976	10	10000	4	1	0	4	0
37	977	10	10000	4	1	0	4	0
36	978	10	10000	4	1	0	4	0
37	979	10	10000	4	1	0	4	0
36	980	10	10000	4	1	0	4	0
39	980	10	10000	4	1	0	4	0
41	981	10	10000	4	1	0	4	0
42	983	10	10000	4	1	0	4	0
43	984	10	10000	4	1	0	4	0
43	985	10	10000	4	1	0	4	0
42	986	10	10000	4	1	0	4	0
41	987	10	10000	4	1	0	4	0
40	988	10	10000	4	1	0	4	0
40	989	10	10000	4	1	0	4	0
40	990	10	10000	4	1	0	4	0
39	990	10	10000	4	1	0	4	0
36	991	10	10000	4	1	0	4	0
38	993	10	10000	4	1	0	4	0
38	994	10	10000	4	1	0	4	0
39	995	10	10000	4	1	0	4	0
41	996	10	10000	4	1	0	4	0
42	997	10	10000	4	1	0	4	0
45	998	10	10000	4	1	0	4	0
44	999	10	10000	4	1	0	4	0
44	1000	10	10000	4	1	0	4	0
44	1000	10	10000	4	1	0	4	0
45	1001	10	10000	4	1	0	4	0
50	1	0	10000	5	1	0	5	0
50	2	0	10000	5	1	0	5	0
48	3	0	10000	5	1	0	5	0
47	4	0	10000	5	1	0	5	0
47	5	0	10000	5	1	0	5	0
49	6	0	10000	5	1	0	5	0
53	7	0	10000	5	1	0	5	0
53	8	0	10000	5	1	0	5	0
52	9	0	10000	5	1	0	5	0
51	10	0	10000	5	1	0	5	0
50	11	0	10000	5	1	0	5	0
48	12	0	10000	5	1	0	5	0
48	13	0	10000	5	1	0	5	0
49	14	0	10000	5	1	0	5	0
47	15	0	10000	5	1	0	5	0
47	16	0	10000	5	1	0	5	0
44	17	0	10000	5	1	0	5	0
45	18	0	10000	5	1	0	5	0
46	19	0	10000	5	1	0	5	0
46	20	0	10000	5	1	0	5	0
46	21	0	10000	5	1	0	5	0
51	22	0	10000	5	1	0	5	0
55	23	0	10000	5	1	0	5	0
58	24	0	10000	5	1	0	5	0
60	25	0	10000	5	1	0	5	0
61	26	0	10000	5	1	0	5	0
63	27	0	10000	5	1	0	5	0
62	28	0	10000	5	1	0	5	0
61	29	0	10000	5	1	0	5	0
62	30	0	10000	5	1	0	5	0
62	31	0	10000	5	1	0	5	0
63	32	0	10000	5	1	0	5	0
65	33	0	10000	5	1	0	5	0
64	34	0	10000	5	1	0	5	0
62	35	0	10000	5	1	0	5	0
62	36	0	10000	5	1	0	5	0
60	37	0	10000	5	1	0	5	0
63	38	0	10000	5	1	0	5	0
70	39	0	10000	5	1	0	5	0
74	40	0	10000	5	1	0	5	0
74	41	0	10000	5	1	0	5	0
72	42	0	10000	5	1	0	5	0
70	43	0	10000	5	1	0	5	0
69	44	0	10000	5	1	0	5	0
67	45	0	10000	5	1	0	5	0
65	46	0	10000	5	1	0	5	0
65	47	0	10000	5	1	0	5	0
68	48	0	10000	5	1	0	5	0
77	49	0	10000	5	1	0	5	0
87	50	0	10000	5	1	0	5	0
90	51	0	10000	5	1	0	5	0
90	52	0	10000	5	1	0	5	0
90	53	0	10000	5	1	0	5	0
87	54	0	10000	5	1	0	5	0
86	55	0	10000	5	1	0	5	0
85	56	0	10000	5	1	0	5	0
86	57	0	10000	5	1	0	5	0
85	58	0	10000	5	1	0	5	0
83	59	0	10000	5	1	0	5	0
82	60	0	10000	5	1	0	5	0
81	61	0	10000	5	1	0	5	0
80	62	0	10000	5	1	0	5	0
77	63	0	10000	5	1	0	5	0
73	64	0	10000	5	1	0	5	0
71	65	0	10000	5	1	0	5	0
69	66	0	10000	5	1	0	5	0
68	67	0	10000	5	1	0	5	0
70	68	0	10000	5	1	0	5	0
72	69	0	10000	5	1	0	5	0
72	70	0	10000	5	1	0	5	0
70	71	0	10000	5	1	0	5	0
69	72	0	10000	5	1	0	5	0
71	73	0	10000	5	1	0	5	0
77	74	0	10000	5	1	0	5	0
84	75	0	10000	5	1	0	5	0
88	76	0	10000	5	1	0	5	0
85	77	0	10000	5	1	0	5	0
82	78	0	10000	5	1	0	5	0
80	79	0	10000	5	1	0	5	0
78	80	0	10000	5	1	0	5	0
76	81	0	10000	5	1	0	5	0
74	82	0	10000	5	1	0	5	0
71	83	0	10000	5	1	0	5	0
69	84	0	10000	5	1	0	5	0
67	85	0	10000	5	1	0	5	0
66	86	0	10000	5	1	0	5	0
66	87	0	10000	5	1	0	5	0
66	88	0	10000	5	1	0	5	0
67	89	0	10000	5	1	0	5	0
67	90	0	10000	5	1	0	5	0
67	91	0	10000	5	1	0	5	0
66	92	0	10000	5	1	0	5	0
65	93	0	10000	5	1	0	5	0
66	94	0	10000	5	1	0	5	0
67	95	0	10000	5	1	0	5	0
67	96	0	10000	5	1	0	5	0
67	97	0	10000	5	1	0	5	0
70	98	0	10000	5	1	0	5	0
73	99	0	10000	5	1	0	5	0
77	100	0	10000	5	1	0	5	0
80	101	0	10000	5	1	0	5	0
81	102	0	10000	5	1	0	5	0
81	103	0	10000	5	1	0	5	0
78	104	0	10000	5	1	0	5	0
75	105	0	10000	5	1	0	5	0
73	106	0	10000	5	1	0	5	0
73	107	0	10000	5	1	0	5	0
70	108	0	10000	5	1	0	5	0
70	109	0	10000	5	1	0	5	0
70	110	0	10000	5	1	0	5	0
71	111	0	10000	5	1	0	5	0
69	112	0	10000	5	1	0	5	0
68	113	0	10000	5	1	0	5	0
68	114	0	10000	5	1	0	5	0
68	115	0	10000	5	1	0	5	0
68	116	0	10000	5	1	0	5	0
70	117	0	10000	5	1	0	5	0
72	118	0	10000	5	1	0	5	0
71	119	0	10000	5	1	0	5	0
70	120	0	10000	5	1	0	5	0
74	120	0	10000	5	1	0	5	0
77	121	0	10000	5	1	0	5	0
76	123	0	10000	5	1	0	5	0
73	124	0	10000	5	1	0	5	0
70	125	0	10000	5	1	0	5	0
71	126	0	10000	5	1	0	5	0
73	127	0	10000	5	1	0	5	0
74	128	0	10000	5	1	0	5	0
73	129	0	10000	5	1	0	5	0
71	130	0	10000	5	1	0	5	0
70	130	0	10000	5	1	0	5	0
69	131	0	10000	5	1	0	5	0
71	133	0	10000	5	1	0	5	0
74	134	0	10000	5	1	0	5	0
75	135	0	10000	5	1	0	5	0
77	136	0	10000	5	1	0	5	0
75	137	0	10000	5	1	0	5	0
73	138	0	10000	5	1	0	5	0
71	139	0	10000	5	1	0	5	0
70	140	0	10000	5	1	0	5	0
71	140	0	10000	5	1	0	5	0
69	141	0	10000	5	1	0	5	0
66	143	0	10000	5	1	0	5	0
64	144	0	10000	5	1	0	5	0
63	145	0	10000	5	1	0	5	0
61	146	0	10000	5	1	0	5	0
60	147	0	10000	5	1	0	5	0
59	148	0	10000	5	1	0	5	0
59	149	0	10000	5	1	0	5	0
58	150	0	10000	5	1	0	5	0
56	150	0	10000	5	1	0	5	0
54	151	0	10000	5	1	0	5	0
56	153	0	10000	5	1	0	5	0
56	154	0	10000	5	1	0	5	0
54	155	0	10000	5	1	0	5	0
53	156	0	10000	5	1	0	5	0
54	157	0	10000	5	1	0	5	0
56	158	0	10000	5	1	0	5	0
55	159	0	10000	5	1	0	5	0
54	160	0	10000	5	1	0	5	0
53	160	0	10000	5	1	0	5	0
52	161	0	10000	5	1	0	5	0
49	163	0	10000	5	1	0	5	0
48	164	0	10000	5	1	0	5	0
48	165	0	10000	5	1	0	5	0
48	166	0	10000	5	1	0	5	0
51	167	0	10000	5	1	0	5	0
53	168	0	10000	5	1	0	5	0
54	169	0	10000	5	1	0	5	0
54	170	0	10000	5	1	0	5	0
53	170	0	10000	5	1	0	5	0
56	171	0	10000	5	1	0	5	0
63	173	0	10000	5	1	0	5	0
65	174	0	10000	5	1	0	5	0
64	175	0	10000	5	1	0	5	0
61	176	0	10000	5	1	0	5	0
59	177	0	10000	5	1	0	5	0
60	178	0	10000	5	1	0	5	0
59	179	0	10000	5	1	0	5	0
60	180	0	10000	5	1	0	5	0
60	180	0	10000	5	1	0	5	0
59	181	0	10000	5	1	0	5	0
58	183	0	10000	5	1	0	5	0
57	184	0	10000	5	1	0	5	0
56	185	0	10000	5	1	0	5	0
55	186	0	10000	5	1	0	5	0
54	187	0	10000	5	1	0	5	0
52	188	0	10000	5	1	0	5	0
52	189	0	10000	5	1	0	5	0
51	190	0	10000	5	1	0	5	0
50	190	0	10000	5	1	0	5	0
50	191	0	10000	5	1	0	5	0
53	193	0	10000	5	1	0	5	0
56	194	0	10000	5	1	0	5	0
60	195	0	10000	5	1	0	5	0
58	196	0	10000	5	1	0	5	0
58	197	0	10000	5	1	0	5	0
60	198	0	10000	5	1	0	5	0
64	199	0	10000	5	1	0	5	0
70	200	0	10000	5	1	0	5	0
77	200	0	10000	5	1	0	5	0
77	201	0	10000	5	1	0	5	0
74	203	0	10000	5	1	0	5	0
70	204	0	10000	5	1	0	5	0
68	205	0	10000	5	1	0	5	0
67	206	0	10000	5	1	0	5	0
65	207	0	10000	5	1	0	5	0
63	208	0	10000	5	1	0	5	0
64	209	0	10000	5	1	0	5	0
68	210	0	10000	5	1	0	5	0
76	210	0	10000	5	1	0	5	0
80	211	0	10000	5	1	0	5	0
83	213	0	10000	5	1	0	5	0
84	214	0	10000	5	1	0	5	0
81	215	0	10000	5	1	0	5	0
78	216	0	10000	5	1	0	5	0
75	217	0	10000	5	1	0	5	0
75	218	0	10000	5	1	0	5	0
76	219	0	10000	5	1	0	5	0
75	220	0	10000	5	1	0	5	0
75	220	0	10000	5	1	0	5	0
72	221	0	10000	5	1	0	5	0
69	223	0	10000	5	1	0	5	0
67	224	0	10000	5	1	0	5	0
69	225	0	10000	5	1	0	5	0
73	226	0	10000	5	1	0	5	0
77	227	0	10000	5	1	0	5	0
77	228	0	10000	5	1	0	5	0
77	229	0	10000	5	1	0	5	0
75	230	0	10000	5	1	0	5	0
71	230	0	10000	5	1	0	5	0
70	231	0	10000	5	1	0	5	0
70	233	0	10000	5	1	0	5	0
73	234	0	10000	5	1	0	5	0
78	235	0	10000	5	1	0	5	0
82	236	0	10000	5	1	0	5	0
85	237	0	10000	5	1	0	5	0
85	238	0	10000	5	1	0	5	0
86	239	0	10000	5	1	0	5	0
84	240	0	10000	5	1	0	5	0
82	240	0	10000	5	1	0	5	0
83	241	0	10000	5	1	0	5	0
83	243	0	10000	5	1	0	5	0
82	244	0	10000	5	1	0	5	0
81	245	0	10000	5	1	0	5	0
82	246	0	10000	5	1	0	5	0
81	247	0	10000	5	1	0	5	0
81	248	0	10000	5	1	0	5	0
81	249	0	10000	5	1	0	5	0
78	250	0	10000	5	1	0	5	0
77	250	0	10000	5	1	0	5	0
76	251	0	10000	5	1	0	5	0
74	253	0	10000	5	1	0	5	0
74	254	0	10000	5	1	0	5	0
71	255	0	10000	5	1	0	5	0
68	256	0	10000	5	1	0	5	0
67	257	0	10000	5	1	0	5	0
69	258	0	10000	5	1	0	5	0
71	259	0	10000	5	1	0	5	0
72	260	0	10000	5	1	0	5	0
70	260	0	10000	5	1	0	5	0
74	261	0	10000	5	1	0	5	0
77	263	0	10000	5	1	0	5	0
80	264	0	10000	5	1	0	5	0
82	265	0	10000	5	1	0	5	0
82	266	0	10000	5	1	0	5	0
79	267	0	10000	5	1	0	5	0
78	268	0	10000	5	1	0	5	0
76	269	0	10000	5	1	0	5	0
76	270	0	10000	5	1	0	5	0
75	270	0	10000	5	1	0	5	0
73	271	0	10000	5	1	0	5	0
74	273	0	10000	5	1	0	5	0
73	274	0	10000	5	1	0	5	0
74	275	0	10000	5	1	0	5	0
73	276	0	10000	5	1	0	5	0
70	277	0	10000	5	1	0	5	0
68	278	0	10000	5	1	0	5	0
66	279	0	10000	5	1	0	5	0
65	280	0	10000	5	1	0	5	0
65	280	0	10000	5	1	0	5	0
64	281	0	10000	5	1	0	5	0
63	283	0	10000	5	1	0	5	0
64	284	0	10000	5	1	0	5	0
67	285	0	10000	5	1	0	5	0
65	286	0	10000	5	1	0	5	0
66	287	0	10000	5	1	0	5	0
68	288	0	10000	5	1	0	5	0
71	289	0	10000	5	1	0	5	0
70	290	0	10000	5	1	0	5	0
68	290	0	10000	5	1	0	5	0
65	291	0	10000	5	1	0	5	0
65	293	0	10000	5	1	0	5	0
66	294	0	10000	5	1	0	5	0
67	295	0	10000	5	1	0	5	0
65	296	0	10000	5	1	0	5	0
63	297	0	10000	5	1	0	5	0
61	298	0	10000	5	1	0	5	0
60	299	0	10000	5	1	0	5	0
61	300	0	10000	5	1	0	5	0
62	300	0	10000	5	1	0	5	0
61	301	0	10000	5	1	0	5	0
59	303	0	10000	5	1	0	5	0
57	304	0	10000	5	1	0	5	0
55	305	0	10000	5	1	0	5	0
55	306	0	10000	5	1	0	5	0
53	307	0	10000	5	1	0	5	0
52	308	0	10000	5	1	0	5	0
53	309	0	10000	5	1	0	5	0
52	310	0	10000	5	1	0	5	0
50	310	0	10000	5	1	0	5	0
49	311	0	10000	5	1	0	5	0
53	313	0	10000	5	1	0	5	0
56	314	0	10000	5	1	0	5	0
58	315	0	10000	5	1	0	5	0
58	316	0	10000	5	1	0	5	0
58	317	0	10000	5	1	0	5	0
55	318	0	10000	5	1	0	5	0
54	319	0	10000	5	1	0	5	0
53	320	0	10000	5	1	0	5	0
52	320	0	10000	5	1	0	5	0
51	321	0	10000	5	1	0	5	0
49	323	0	10000	5	1	0	5	0
48	324	0	10000	5	1	0	5	0
48	325	0	10000	5	1	0	5	0
48	326	0	10000	5	1	0	5	0
47	327	0	10000	5	1	0	5	0
47	328	0	10000	5	1	0	5	0
48	329	0	10000	5	1	0	5	0
47	330	0	10000	5	1	0	5	0
48	330	0	10000	5	1	0	5	0
49	331	0	10000	5	1	0	5	0
51	333	0	10000	5	1	0	5	0
50	334	0	10000	5	1	0	5	0
49	335	0	10000	5	1	0	5	0
48	336	0	10000	5	1	0	5	0
47	337	0	10000	5	1	0	5	0
46	338	0	10000	5	1	0	5	0
46	339	0	10000	5	1	0	5	0
46	340	0	10000	5	1	0	5	0
44	340	0	10000	5	1	0	5	0
44	341	0	10000	5	1	0	5	0
43	343	0	10000	5	1	0	5	0
41	344	0	10000	5	1	0	5	0
40	345	0	10000	5	1	0	5	0
40	346	0	10000	5	1	0	5	0
39	347	0	10000	5	1	0	5	0
38	348	0	10000	5	1	0	5	0
37	349	0	10000	5	1	0	5	0
36	350	0	10000	5	1	0	5	0
36	350	0	10000	5	1	0	5	0
36	351	0	10000	5	1	0	5	0
36	353	0	10000	5	1	0	5	0
39	354	0	10000	5	1	0	5	0
42	355	0	10000	5	1	0	5	0
45	356	0	10000	5	1	0	5	0
46	357	0	10000	5	1	0	5	0
45	358	0	10000	5	1	0	5	0
46	359	0	10000	5	1	0	5	0
48	360	0	10000	5	1	0	5	0
54	360	0	10000	5	1	0	5	0
62	361	0	10000	5	1	0	5	0
68	363	0	10000	5	1	0	5	0
69	364	0	10000	5	1	0	5	0
69	365	0	10000	5	1	0	5	0
74	366	0	10000	5	1	0	5	0
80	367	0	10000	5	1	0	5	0
80	368	0	10000	5	1	0	5	0
79	369	0	10000	5	1	0	5	0
76	370	0	10000	5	1	0	5	0
73	370	0	10000	5	1	0	5	0
70	371	0	10000	5	1	0	5	0
69	373	0	10000	5	1	0	5	0
69	374	0	10000	5	1	0	5	0
66	375	0	10000	5	1	0	5	0
64	376	0	10000	5	1	0	5	0
63	377	0	10000	5	1	0	5	0
64	378	0	10000	5	1	0	5	0
63	379	0	10000	5	1	0	5	0
61	380	0	10000	5	1	0	5	0
64	380	0	10000	5	1	0	5	0
68	381	0	10000	5	1	0	5	0
69	383	0	10000	5	1	0	5	0
68	384	0	10000	5	1	0	5	0
67	385	0	10000	5	1	0	5	0
65	386	0	10000	5	1	0	5	0
63	387	0	10000	5	1	0	5	0
62	388	0	10000	5	1	0	5	0
61	389	0	10000	5	1	0	5	0
62	390	0	10000	5	1	0	5	0
60	390	0	10000	5	1	0	5	0
59	391	0	10000	5	1	0	5	0
59	393	0	10000	5	1	0	5	0
59	394	0	10000	5	1	0	5	0
62	395	0	10000	5	1	0	5	0
66	396	0	10000	5	1	0	5	0
66	397	0	10000	5	1	0	5	0
65	398	0	10000	5	1	0	5	0
63	399	0	10000	5	1	0	5	0
61	400	0	10000	5	1	0	5	0
59	400	0	10000	5	1	0	5	0
58	401	0	10000	5	1	0	5	0
56	403	0	10000	5	1	0	5	0
54	404	0	10000	5	1	0	5	0
53	405	0	10000	5	1	0	5	0
52	406	0	10000	5	1	0	5	0
51	407	0	10000	5	1	0	5	0
49	408	0	10000	5	1	0	5	0
49	409	0	10000	5	1	0	5	0
50	410	0	10000	5	1	0	5	0
53	410	0	10000	5	1	0	5	0
54	411	0	10000	5	1	0	5	0
54	413	0	10000	5	1	0	5	0
55	414	0	10000	5	1	0	5	0
54	415	0	10000	5	1	0	5	0
54	416	0	10000	5	1	0	5	0
53	417	0	10000	5	1	0	5	0
53	418	0	10000	5	1	0	5	0
52	419	0	10000	5	1	0	5	0
52	420	0	10000	5	1	0	5	0
51	420	0	10000	5	1	0	5	0
52	421	0	10000	5	1	0	5	0
51	423	0	10000	5	1	0	5	0
49	424	0	10000	5	1	0	5	0
56	425	0	10000	5	1	0	5	0
63	426	0	10000	5	1	0	5	0
67	427	0	10000	5	1	0	5	0
67	428	0	10000	5	1	0	5	0
65	429	0	10000	5	1	0	5	0
63	430	0	10000	5	1	0	5	0
63	430	0	10000	5	1	0	5	0
61	431	0	10000	5	1	0	5	0
63	433	0	10000	5	1	0	5	0
64	434	0	10000	5	1	0	5	0
63	435	0	10000	5	1	0	5	0
62	436	0	10000	5	1	0	5	0
61	437	0	10000	5	1	0	5	0
58	438	0	10000	5	1	0	5	0
57	439	0	10000	5	1	0	5	0
55	440	0	10000	5	1	0	5	0
55	440	0	10000	5	1	0	5	0
58	441	0	10000	5	1	0	5	0
59	443	0	10000	5	1	0	5	0
59	444	0	10000	5	1	0	5	0
59	445	0	10000	5	1	0	5	0
57	446	0	10000	5	1	0	5	0
58	447	0	10000	5	1	0	5	0
59	448	0	10000	5	1	0	5	0
62	449	0	10000	5	1	0	5	0
63	450	0	10000	5	1	0	5	0
64	450	0	10000	5	1	0	5	0
68	451	0	10000	5	1	0	5	0
76	453	0	10000	5	1	0	5	0
81	454	0	10000	5	1	0	5	0
81	455	0	10000	5	1	0	5	0
77	456	0	10000	5	1	0	5	0
77	457	0	10000	5	1	0	5	0
79	458	0	10000	5	1	0	5	0
80	459	0	10000	5	1	0	5	0
80	460	0	10000	5	1	0	5	0
83	460	0	10000	5	1	0	5	0
84	461	0	10000	5	1	0	5	0
82	463	0	10000	5	1	0	5	0
79	464	0	10000	5	1	0	5	0
78	465	0	10000	5	1	0	5	0
77	466	0	10000	5	1	0	5	0
80	467	0	10000	5	1	0	5	0
81	468	0	10000	5	1	0	5	0
82	469	0	10000	5	1	0	5	0
81	470	0	10000	5	1	0	5	0
80	470	0	10000	5	1	0	5	0
79	471	0	10000	5	1	0	5	0
78	473	0	10000	5	1	0	5	0
79	474	0	10000	5	1	0	5	0
77	475	0	10000	5	1	0	5	0
78	476	0	10000	5	1	0	5	0
81	477	0	10000	5	1	0	5	0
85	478	0	10000	5	1	0	5	0
91	479	0	10000	5	1	0	5	0
92	480	0	10000	5	1	0	5	0
91	480	0	10000	5	1	0	5	0
89	481	0	10000	5	1	0	5	0
85	483	0	10000	5	1	0	5	0
81	484	0	10000	5	1	0	5	0
79	485	0	10000	5	1	0	5	0
77	486	0	10000	5	1	0	5	0
76	487	0	10000	5	1	0	5	0
77	488	0	10000	5	1	0	5	0
76	489	0	10000	5	1	0	5	0
74	490	0	10000	5	1	0	5	0
73	490	0	10000	5	1	0	5	0
70	491	0	10000	5	1	0	5	0
69	493	0	10000	5	1	0	5	0
68	494	0	10000	5	1	0	5	0
65	495	0	10000	5	1	0	5	0
66	496	0	10000	5	1	0	5	0
65	497	0	10000	5	1	0	5	0
63	498	0	10000	5	1	0	5	0
63	499	0	10000	5	1	0	5	0
68	500	0	10000	5	1	0	5	0
75	500	0	10000	5	1	0	5	0
75	501	0	10000	5	1	0	5	0
72	503	0	10000	5	1	0	5	1
69	504	0	10000	5	1	0	5	1
68	505	0	10000	5	1	0	5	1
66	506	0	10000	5	1	0	5	1
65	507	0	10000	5	1	0	5	1
63	508	0	10000	5	1	0	5	1
62	509	0	10000	5	1	0	5	1
62	510	0	10000	5	1	0	5	1
61	510	0	10000	5	1	0	5	1
59	511	0	10000	5	1	0	5	1
60	513	0	10000	5	1	0	5	1
60	514	0	10000	5	1	0	5	1
58	515	0	10000	5	1	0	5	1
57	516	0	10000	5	1	0	5	1
56	517	0	10000	5	1	0	5	1
55	518	0	10000	5	1	0	5	1
55	519	0	10000	5	1	0	5	1
54	520	0	10000	5	1	0	5	1
54	520	0	10000	5	1	0	5	1
56	521	0	10000	5	1	0	5	1
54	523	0	10000	5	1	0	5	1
52	524	0	10000	5	1	0	5	1
52	525	0	10000	5	1	0	5	1
53	526	0	10000	5	1	0	5	1
54	527	0	10000	5	1	0	5	1
53	528	0	10000	5	1	0	5	1
51	529	0	10000	5	1	0	5	1
51	530	0	10000	5	1	0	5	1
49	530	0	10000	5	1	0	5	1
46	531	0	10000	5	1	0	5	1
48	533	0	10000	5	1	0	5	1
49	534	0	10000	5	1	0	5	1
51	535	0	10000	5	1	0	5	1
52	536	0	10000	5	1	0	5	1
50	537	0	10000	5	1	0	5	1
49	538	0	10000	5	1	0	5	1
48	539	0	10000	5	1	0	5	1
46	540	0	10000	5	1	0	5	1
46	540	0	10000	5	1	0	5	1
46	541	0	10000	5	1	0	5	1
44	543	0	10000	5	1	0	5	1
42	544	0	10000	5	1	0	5	1
42	545	0	10000	5	1	0	5	1
43	546	0	10000	5	1	0	5	1
45	547	0	10000	5	1	0	5	1
45	548	0	10000	5	1	0	5	1
45	549	0	10000	5	1	0	5	1
48	550	0	10000	5	1	0	5	1
47	550	0	10000	5	1	0	5	1
46	551	0	10000	5	1	0	5	1
46	553	0	10000	5	1	0	5	0
46	554	0	10000	5	1	0	5	0
46	555	0	10000	5	1	0	5	0
49	556	0	10000	5	1	0	5	0
49	557	0	10000	5	1	0	5	0
49	558	0	10000	5	1	0	5	0
51	559	0	10000	5	1	0	5	0
54	560	0	10000	5	1	0	5	0
55	560	0	10000	5	1	0	5	0
55	561	0	10000	5	1	0	5	0
54	563	0	10000	5	1	0	5	0
53	564	0	10000	5	1	0	5	0
51	565	0	10000	5	1	0	5	0
50	566	0	10000	5	1	0	5	0
50	567	0	10000	5	1	0	5	0
49	568	0	10000	5	1	0	5	0
50	569	0	10000	5	1	0	5	0
51	570	0	10000	5	1	0	5	0
49	570	0	10000	5	1	0	5	0
51	571	0	10000	5	1	0	5	0
55	573	0	10000	5	1	0	5	0
57	574	0	10000	5	1	0	5	0
56	575	0	10000	5	1	0	5	0
56	576	0	10000	5	1	0	5	0
54	577	0	10000	5	1	0	5	0
53	578	0	10000	5	1	0	5	0
53	579	0	10000	5	1	0	5	0
53	580	0	10000	5	1	0	5	0
54	580	0	10000	5	1	0	5	0
55	581	0	10000	5	1	0	5	0
53	583	0	10000	5	1	0	5	0
52	584	0	10000	5	1	0	5	0
53	585	0	10000	5	1	0	5	0
55	586	0	10000	5	1	0	5	0
63	587	0	10000	5	1	0	5	0
67	588	0	10000	5	1	0	5	0
66	589	0	10000	5	1	0	5	0
64	590	0	10000	5	1	0	5	0
63	590	0	10000	5	1	0	5	0
64	591	0	10000	5	1	0	5	0
67	593	0	10000	5	1	0	5	0
79	594	0	10000	5	1	0	5	0
88	595	0	10000	5	1	0	5	0
91	596	0	10000	5	1	0	5	0
120	597	0	10000	5	1	0	5	0
164	598	0	10000	5	1	0	5	0
194	599	0	10000	5	1	0	5	0
197	600	0	10000	5	1	0	5	0
231	600	0	10000	5	1	0	5	0
258	601	0	10000	5	1	0	5	0
268	603	0	10000	5	1	0	5	0
268	604	0	10000	5	1	0	5	0
277	605	0	10000	5	1	0	5	0
282	606	0	10000	5	1	0	5	0
272	607	0	10000	5	1	0	5	0
271	608	0	10000	5	1	0	5	0
266	609	0	10000	5	1	0	5	0
278	610	0	10000	5	1	0	5	0
295	610	0	10000	5	1	0	5	0
297	611	0	10000	5	1	0	5	0
289	613	0	10000	5	1	0	5	0
279	614	0	10000	5	1	0	5	0
268	615	0	10000	5	1	0	5	0
258	616	0	10000	5	1	0	5	0
247	617	0	10000	5	1	0	5	0
239	618	0	10000	5	1	0	5	0
231	619	0	10000	5	1	0	5	0
224	620	0	10000	5	1	0	5	0
218	620	0	10000	5	1	0	5	0
211	621	0	10000	5	1	0	5	0
204	623	0	10000	5	1	0	5	0
197	624	0	10000	5	1	0	5	0
193	625	0	10000	5	1	0	5	0
190	626	0	10000	5	1	0	5	0
189	627	0	10000	5	1	0	5	0
186	628	0	10000	5	1	0	5	0
179	629	0	10000	5	1	0	5	0
172	630	0	10000	5	1	0	5	0
165	630	0	10000	5	1	0	5	0
159	631	0	10000	5	1	0	5	0
156	633	0	10000	5	1	0	5	0
154	634	0	10000	5	1	0	5	0
148	635	0	10000	5	1	0	5	0
142	636	0	10000	5	1	0	5	0
138	637	0	10000	5	1	0	5	0
134	638	0	10000	5	1	0	5	0
128	639	0	10000	5	1	0	5	0
124	640	0	10000	5	1	0	5	0
120	640	0	10000	5	1	0	5	0
116	641	0	10000	5	1	0	5	0
111	643	0	10000	5	1	0	5	0
108	644	0	10000	5	1	0	5	0
105	645	0	10000	5	1	0	5	0
101	646	0	10000	5	1	0	5	0
99	647	0	10000	5	1	0	5	0
95	648	0	10000	5	1	0	5	0
94	649	0	10000	5	1	0	5	0
92	650	0	10000	5	1	0	5	0
89	650	0	10000	5	1	0	5	0
86	651	0	10000	5	1	0	5	0
84	653	0	10000	5	1	0	5	0
87	654	0	10000	5	1	0	5	0
87	655	0	10000	5	1	0	5	0
87	656	0	10000	5	1	0	5	0
88	657	0	10000	5	1	0	5	0
89	658	0	10000	5	1	0	5	0
87	659	0	10000	5	1	0	5	0
85	660	0	10000	5	1	0	5	0
82	660	0	10000	5	1	0	5	0
86	661	0	10000	5	1	0	5	0
90	663	0	10000	5	1	0	5	0
92	664	0	10000	5	1	0	5	0
91	665	0	10000	5	1	0	5	0
88	666	0	10000	5	1	0	5	0
88	667	0	10000	5	1	0	5	0
89	668	0	10000	5	1	0	5	0
89	669	0	10000	5	1	0	5	0
88	670	0	10000	5	1	0	5	0
86	670	0	10000	5	1	0	5	0
83	671	0	10000	5	1	0	5	0
80	673	0	10000	5	1	0	5	0
79	674	0	10000	5	1	0	5	0
77	675	0	10000	5	1	0	5	0
74	676	0	10000	5	1	0	5	0
72	677	0	10000	5	1	0	5	0
69	678	0	10000	5	1	0	5	0
68	679	0	10000	5	1	0	5	0
66	680	0	10000	5	1	0	5	0
64	680	0	10000	5	1	0	5	0
62	681	0	10000	5	1	0	5	0
60	683	0	10000	5	1	0	5	0
56	684	0	10000	5	1	0	5	0
