value	EMG	Stimulus	EMG_sensitivity	Total_Trial_Nr	practise	acq	probe_nr	Startle_Probe
34	1	0	10000	1	1	0	1	0
33	2	0	10000	1	1	0	1	0
31	3	0	10000	1	1	0	1	0
31	4	0	10000	1	1	0	1	0
31	5	0	10000	1	1	0	1	0
32	6	0	10000	1	1	0	1	0
30	7	0	10000	1	1	0	1	0
30	8	0	10000	1	1	0	1	0
32	9	0	10000	1	1	0	1	0
33	10	0	10000	1	1	0	1	0
32	11	0	10000	1	1	0	1	0
32	12	0	10000	1	1	0	1	0
33	13	0	10000	1	1	0	1	0
32	14	0	10000	1	1	0	1	0
32	15	0	10000	1	1	0	1	0
32	16	0	10000	1	1	0	1	0
32	17	0	10000	1	1	0	1	0
33	18	0	10000	1	1	0	1	0
33	19	0	10000	1	1	0	1	0
31	20	0	10000	1	1	0	1	0
30	21	0	10000	1	1	0	1	0
32	22	0	10000	1	1	0	1	0
31	23	0	10000	1	1	0	1	0
30	24	0	10000	1	1	0	1	0
30	25	0	10000	1	1	0	1	0
29	26	0	10000	1	1	0	1	0
28	27	0	10000	1	1	0	1	0
27	28	0	10000	1	1	0	1	0
31	29	0	10000	1	1	0	1	0
34	30	0	10000	1	1	0	1	0
34	31	0	10000	1	1	0	1	0
33	32	0	10000	1	1	0	1	0
33	33	0	10000	1	1	0	1	0
35	34	0	10000	1	1	0	1	0
37	35	0	10000	1	1	0	1	0
39	36	0	10000	1	1	0	1	0
39	37	0	10000	1	1	0	1	0
38	38	0	10000	1	1	0	1	0
35	39	0	10000	1	1	0	1	0
33	40	0	10000	1	1	0	1	0
33	41	0	10000	1	1	0	1	0
33	42	0	10000	1	1	0	1	0
37	43	0	10000	1	1	0	1	0
37	44	0	10000	1	1	0	1	0
38	45	0	10000	1	1	0	1	0
38	46	0	10000	1	1	0	1	0
38	47	0	10000	1	1	0	1	0
36	48	0	10000	1	1	0	1	0
36	49	0	10000	1	1	0	1	0
36	50	0	10000	1	1	0	1	0
35	51	0	10000	1	1	0	1	0
37	52	0	10000	1	1	0	1	0
38	53	0	10000	1	1	0	1	0
37	54	0	10000	1	1	0	1	0
37	55	0	10000	1	1	0	1	0
38	56	0	10000	1	1	0	1	0
41	57	0	10000	1	1	0	1	0
42	58	0	10000	1	1	0	1	0
39	59	0	10000	1	1	0	1	0
37	60	0	10000	1	1	0	1	0
38	61	0	10000	1	1	0	1	0
39	62	0	10000	1	1	0	1	0
38	63	0	10000	1	1	0	1	0
38	64	0	10000	1	1	0	1	0
37	65	0	10000	1	1	0	1	0
36	66	0	10000	1	1	0	1	0
34	67	0	10000	1	1	0	1	0
33	68	0	10000	1	1	0	1	0
33	69	0	10000	1	1	0	1	0
33	70	0	10000	1	1	0	1	0
32	71	0	10000	1	1	0	1	0
32	72	0	10000	1	1	0	1	0
31	73	0	10000	1	1	0	1	0
30	74	0	10000	1	1	0	1	0
29	75	0	10000	1	1	0	1	0
29	76	0	10000	1	1	0	1	0
30	77	0	10000	1	1	0	1	0
30	78	0	10000	1	1	0	1	0
31	79	0	10000	1	1	0	1	0
32	80	0	10000	1	1	0	1	0
33	81	0	10000	1	1	0	1	0
34	82	0	10000	1	1	0	1	0
34	83	0	10000	1	1	0	1	0
34	84	0	10000	1	1	0	1	0
35	85	0	10000	1	1	0	1	0
36	86	0	10000	1	1	0	1	0
37	87	0	10000	1	1	0	1	0
37	88	0	10000	1	1	0	1	0
37	89	0	10000	1	1	0	1	0
37	90	0	10000	1	1	0	1	0
36	91	0	10000	1	1	0	1	0
35	92	0	10000	1	1	0	1	0
34	93	0	10000	1	1	0	1	0
36	94	0	10000	1	1	0	1	0
39	95	0	10000	1	1	0	1	0
40	96	0	10000	1	1	0	1	0
40	97	0	10000	1	1	0	1	0
39	98	0	10000	1	1	0	1	0
38	99	0	10000	1	1	0	1	0
37	100	0	10000	1	1	0	1	0
36	101	0	10000	1	1	0	1	0
35	102	0	10000	1	1	0	1	0
34	103	0	10000	1	1	0	1	0
35	104	0	10000	1	1	0	1	0
35	105	0	10000	1	1	0	1	0
35	106	0	10000	1	1	0	1	0
34	107	0	10000	1	1	0	1	0
33	108	0	10000	1	1	0	1	0
34	109	0	10000	1	1	0	1	0
36	110	0	10000	1	1	0	1	0
36	111	0	10000	1	1	0	1	0
37	112	0	10000	1	1	0	1	0
36	113	0	10000	1	1	0	1	0
35	114	0	10000	1	1	0	1	0
34	115	0	10000	1	1	0	1	0
32	116	0	10000	1	1	0	1	0
32	117	0	10000	1	1	0	1	0
32	118	0	10000	1	1	0	1	0
32	119	0	10000	1	1	0	1	0
31	120	0	10000	1	1	0	1	0
31	121	0	10000	1	1	0	1	0
32	122	0	10000	1	1	0	1	0
31	123	0	10000	1	1	0	1	0
32	124	0	10000	1	1	0	1	0
32	125	0	10000	1	1	0	1	0
30	126	0	10000	1	1	0	1	0
29	127	0	10000	1	1	0	1	0
27	128	0	10000	1	1	0	1	0
29	129	0	10000	1	1	0	1	0
30	130	0	10000	1	1	0	1	0
29	131	0	10000	1	1	0	1	0
27	132	0	10000	1	1	0	1	0
26	133	0	10000	1	1	0	1	0
25	134	0	10000	1	1	0	1	0
25	135	0	10000	1	1	0	1	0
25	136	0	10000	1	1	0	1	0
24	137	0	10000	1	1	0	1	0
24	138	0	10000	1	1	0	1	0
23	139	0	10000	1	1	0	1	0
21	140	0	10000	1	1	0	1	0
22	141	0	10000	1	1	0	1	0
22	142	0	10000	1	1	0	1	0
23	143	0	10000	1	1	0	1	0
24	144	0	10000	1	1	0	1	0
25	145	0	10000	1	1	0	1	0
25	146	0	10000	1	1	0	1	0
25	147	0	10000	1	1	0	1	0
25	148	0	10000	1	1	0	1	0
27	149	0	10000	1	1	0	1	0
27	150	0	10000	1	1	0	1	0
26	151	0	10000	1	1	0	1	0
25	152	0	10000	1	1	0	1	0
25	153	0	10000	1	1	0	1	0
25	154	0	10000	1	1	0	1	0
25	155	0	10000	1	1	0	1	0
26	156	0	10000	1	1	0	1	0
26	157	0	10000	1	1	0	1	0
27	158	0	10000	1	1	0	1	0
28	159	0	10000	1	1	0	1	0
27	160	0	10000	1	1	0	1	0
28	161	0	10000	1	1	0	1	0
29	162	0	10000	1	1	0	1	0
31	163	0	10000	1	1	0	1	0
31	164	0	10000	1	1	0	1	0
30	165	0	10000	1	1	0	1	0
32	166	0	10000	1	1	0	1	0
32	167	0	10000	1	1	0	1	0
31	168	0	10000	1	1	0	1	0
31	169	0	10000	1	1	0	1	0
32	170	0	10000	1	1	0	1	0
33	171	0	10000	1	1	0	1	0
35	172	0	10000	1	1	0	1	0
35	173	0	10000	1	1	0	1	0
34	174	0	10000	1	1	0	1	0
35	175	0	10000	1	1	0	1	0
37	176	0	10000	1	1	0	1	0
39	177	0	10000	1	1	0	1	0
41	178	0	10000	1	1	0	1	0
40	179	0	10000	1	1	0	1	0
40	180	0	10000	1	1	0	1	0
42	181	0	10000	1	1	0	1	0
41	182	0	10000	1	1	0	1	0
40	183	0	10000	1	1	0	1	0
38	184	0	10000	1	1	0	1	0
37	185	0	10000	1	1	0	1	0
35	186	0	10000	1	1	0	1	0
35	187	0	10000	1	1	0	1	0
34	188	0	10000	1	1	0	1	0
33	189	0	10000	1	1	0	1	0
33	190	0	10000	1	1	0	1	0
32	191	0	10000	1	1	0	1	0
31	192	0	10000	1	1	0	1	0
31	193	0	10000	1	1	0	1	0
30	194	0	10000	1	1	0	1	0
31	195	0	10000	1	1	0	1	0
32	196	0	10000	1	1	0	1	0
33	197	0	10000	1	1	0	1	0
34	198	0	10000	1	1	0	1	0
32	199	0	10000	1	1	0	1	0
31	200	0	10000	1	1	0	1	0
31	201	0	10000	1	1	0	1	0
32	202	0	10000	1	1	0	1	0
32	203	0	10000	1	1	0	1	0
32	204	0	10000	1	1	0	1	0
32	205	0	10000	1	1	0	1	0
31	206	0	10000	1	1	0	1	0
31	207	0	10000	1	1	0	1	0
31	208	0	10000	1	1	0	1	0
32	209	0	10000	1	1	0	1	0
33	210	0	10000	1	1	0	1	0
33	211	0	10000	1	1	0	1	0
33	212	0	10000	1	1	0	1	0
32	213	0	10000	1	1	0	1	0
32	214	0	10000	1	1	0	1	0
33	215	0	10000	1	1	0	1	0
33	216	0	10000	1	1	0	1	0
33	217	0	10000	1	1	0	1	0
33	218	0	10000	1	1	0	1	0
32	219	0	10000	1	1	0	1	0
32	220	0	10000	1	1	0	1	0
33	221	0	10000	1	1	0	1	0
33	222	0	10000	1	1	0	1	0
33	223	0	10000	1	1	0	1	0
33	224	0	10000	1	1	0	1	0
33	225	0	10000	1	1	0	1	0
33	226	0	10000	1	1	0	1	0
32	227	0	10000	1	1	0	1	0
30	228	0	10000	1	1	0	1	0
30	229	0	10000	1	1	0	1	0
31	230	0	10000	1	1	0	1	0
29	231	0	10000	1	1	0	1	0
29	232	0	10000	1	1	0	1	0
29	233	0	10000	1	1	0	1	0
29	234	0	10000	1	1	0	1	0
29	235	0	10000	1	1	0	1	0
29	236	0	10000	1	1	0	1	0
29	237	0	10000	1	1	0	1	0
30	238	0	10000	1	1	0	1	0
29	239	0	10000	1	1	0	1	0
28	240	0	10000	1	1	0	1	0
30	241	0	10000	1	1	0	1	0
30	242	0	10000	1	1	0	1	0
30	243	0	10000	1	1	0	1	0
29	244	0	10000	1	1	0	1	0
29	245	0	10000	1	1	0	1	0
29	246	0	10000	1	1	0	1	0
30	247	0	10000	1	1	0	1	0
31	248	0	10000	1	1	0	1	0
31	249	0	10000	1	1	0	1	0
32	250	0	10000	1	1	0	1	0
32	251	0	10000	1	1	0	1	0
30	252	0	10000	1	1	0	1	0
29	253	0	10000	1	1	0	1	0
28	254	0	10000	1	1	0	1	0
26	255	0	10000	1	1	0	1	0
26	256	0	10000	1	1	0	1	0
26	257	0	10000	1	1	0	1	0
25	258	0	10000	1	1	0	1	0
25	259	0	10000	1	1	0	1	0
23	260	0	10000	1	1	0	1	0
23	261	0	10000	1	1	0	1	0
23	262	0	10000	1	1	0	1	0
22	263	0	10000	1	1	0	1	0
22	264	0	10000	1	1	0	1	0
24	265	0	10000	1	1	0	1	0
25	266	0	10000	1	1	0	1	0
28	267	0	10000	1	1	0	1	0
31	268	0	10000	1	1	0	1	0
34	269	0	10000	1	1	0	1	0
34	270	0	10000	1	1	0	1	0
35	271	0	10000	1	1	0	1	0
34	272	0	10000	1	1	0	1	0
35	273	0	10000	1	1	0	1	0
37	274	0	10000	1	1	0	1	0
38	275	0	10000	1	1	0	1	0
38	276	0	10000	1	1	0	1	0
40	277	0	10000	1	1	0	1	0
43	278	0	10000	1	1	0	1	0
41	279	0	10000	1	1	0	1	0
38	280	0	10000	1	1	0	1	0
37	281	0	10000	1	1	0	1	0
36	282	0	10000	1	1	0	1	0
35	283	0	10000	1	1	0	1	0
35	284	0	10000	1	1	0	1	0
33	285	0	10000	1	1	0	1	0
33	286	0	10000	1	1	0	1	0
33	287	0	10000	1	1	0	1	0
32	288	0	10000	1	1	0	1	0
31	289	0	10000	1	1	0	1	0
33	290	0	10000	1	1	0	1	0
33	291	0	10000	1	1	0	1	0
35	292	0	10000	1	1	0	1	0
36	293	0	10000	1	1	0	1	0
33	294	0	10000	1	1	0	1	0
33	295	0	10000	1	1	0	1	0
33	296	0	10000	1	1	0	1	0
32	297	0	10000	1	1	0	1	0
33	298	0	10000	1	1	0	1	0
32	299	0	10000	1	1	0	1	0
30	300	0	10000	1	1	0	1	0
31	301	0	10000	1	1	0	1	0
32	302	0	10000	1	1	0	1	0
32	303	0	10000	1	1	0	1	0
31	304	0	10000	1	1	0	1	0
32	305	0	10000	1	1	0	1	0
30	306	0	10000	1	1	0	1	0
29	307	0	10000	1	1	0	1	0
30	308	0	10000	1	1	0	1	0
30	309	0	10000	1	1	0	1	0
31	310	0	10000	1	1	0	1	0
31	311	0	10000	1	1	0	1	0
31	312	0	10000	1	1	0	1	0
33	313	0	10000	1	1	0	1	0
35	314	0	10000	1	1	0	1	0
36	315	0	10000	1	1	0	1	0
35	316	0	10000	1	1	0	1	0
35	317	0	10000	1	1	0	1	0
34	318	0	10000	1	1	0	1	0
33	319	0	10000	1	1	0	1	0
33	320	0	10000	1	1	0	1	0
32	321	0	10000	1	1	0	1	0
32	322	0	10000	1	1	0	1	0
36	323	0	10000	1	1	0	1	0
37	324	0	10000	1	1	0	1	0
38	325	0	10000	1	1	0	1	0
37	326	0	10000	1	1	0	1	0
36	327	0	10000	1	1	0	1	0
36	328	0	10000	1	1	0	1	0
37	329	0	10000	1	1	0	1	0
38	330	0	10000	1	1	0	1	0
37	331	0	10000	1	1	0	1	0
38	332	0	10000	1	1	0	1	0
37	333	0	10000	1	1	0	1	0
37	334	0	10000	1	1	0	1	0
38	335	0	10000	1	1	0	1	0
38	336	0	10000	1	1	0	1	0
39	337	0	10000	1	1	0	1	0
38	338	0	10000	1	1	0	1	0
36	339	0	10000	1	1	0	1	0
35	340	0	10000	1	1	0	1	0
34	341	0	10000	1	1	0	1	0
33	342	0	10000	1	1	0	1	0
33	343	0	10000	1	1	0	1	0
34	344	0	10000	1	1	0	1	0
33	345	0	10000	1	1	0	1	0
36	346	0	10000	1	1	0	1	0
39	347	0	10000	1	1	0	1	0
37	348	0	10000	1	1	0	1	0
36	349	0	10000	1	1	0	1	0
38	350	0	10000	1	1	0	1	0
36	351	0	10000	1	1	0	1	0
35	352	0	10000	1	1	0	1	0
35	353	0	10000	1	1	0	1	0
33	354	0	10000	1	1	0	1	0
32	355	0	10000	1	1	0	1	0
32	356	0	10000	1	1	0	1	0
32	357	0	10000	1	1	0	1	0
32	358	0	10000	1	1	0	1	0
32	359	0	10000	1	1	0	1	0
31	360	0	10000	1	1	0	1	0
31	361	0	10000	1	1	0	1	0
32	362	0	10000	1	1	0	1	0
31	363	0	10000	1	1	0	1	0
31	364	0	10000	1	1	0	1	0
31	365	0	10000	1	1	0	1	0
31	366	0	10000	1	1	0	1	0
31	367	0	10000	1	1	0	1	0
30	368	0	10000	1	1	0	1	0
30	369	0	10000	1	1	0	1	0
31	370	0	10000	1	1	0	1	0
31	371	0	10000	1	1	0	1	0
31	372	0	10000	1	1	0	1	0
30	373	0	10000	1	1	0	1	0
30	374	0	10000	1	1	0	1	0
28	375	0	10000	1	1	0	1	0
27	376	0	10000	1	1	0	1	0
27	377	0	10000	1	1	0	1	0
27	378	0	10000	1	1	0	1	0
26	379	0	10000	1	1	0	1	0
26	380	0	10000	1	1	0	1	0
27	381	0	10000	1	1	0	1	0
26	382	0	10000	1	1	0	1	0
26	383	0	10000	1	1	0	1	0
24	384	0	10000	1	1	0	1	0
24	385	0	10000	1	1	0	1	0
25	386	0	10000	1	1	0	1	0
24	387	0	10000	1	1	0	1	0
23	388	0	10000	1	1	0	1	0
25	389	0	10000	1	1	0	1	0
24	390	0	10000	1	1	0	1	0
24	391	0	10000	1	1	0	1	0
26	392	0	10000	1	1	0	1	0
24	393	0	10000	1	1	0	1	0
26	394	0	10000	1	1	0	1	0
30	395	0	10000	1	1	0	1	0
31	396	0	10000	1	1	0	1	0
30	397	0	10000	1	1	0	1	0
31	398	0	10000	1	1	0	1	0
28	399	0	10000	1	1	0	1	0
28	400	0	10000	1	1	0	1	0
32	401	0	10000	1	1	0	1	0
35	402	0	10000	1	1	0	1	0
38	403	0	10000	1	1	0	1	0
42	404	0	10000	1	1	0	1	0
40	405	0	10000	1	1	0	1	0
38	406	0	10000	1	1	0	1	0
38	407	0	10000	1	1	0	1	0
36	408	0	10000	1	1	0	1	0
36	409	0	10000	1	1	0	1	0
38	410	0	10000	1	1	0	1	0
37	411	0	10000	1	1	0	1	0
37	412	0	10000	1	1	0	1	0
37	413	0	10000	1	1	0	1	0
36	414	0	10000	1	1	0	1	0
37	415	0	10000	1	1	0	1	0
38	416	0	10000	1	1	0	1	0
37	417	0	10000	1	1	0	1	0
36	418	0	10000	1	1	0	1	0
35	419	0	10000	1	1	0	1	0
31	420	0	10000	1	1	0	1	0
32	421	0	10000	1	1	0	1	0
31	422	0	10000	1	1	0	1	0
30	423	0	10000	1	1	0	1	0
30	424	0	10000	1	1	0	1	0
31	425	0	10000	1	1	0	1	0
30	426	0	10000	1	1	0	1	0
29	427	0	10000	1	1	0	1	0
28	428	0	10000	1	1	0	1	0
28	429	0	10000	1	1	0	1	0
28	430	0	10000	1	1	0	1	0
34	430	0	10000	1	1	0	1	0
39	431	0	10000	1	1	0	1	0
44	433	0	10000	1	1	0	1	0
46	434	0	10000	1	1	0	1	0
45	435	0	10000	1	1	0	1	0
48	436	0	10000	1	1	0	1	0
51	437	0	10000	1	1	0	1	0
52	438	0	10000	1	1	0	1	0
52	439	0	10000	1	1	0	1	0
50	440	0	10000	1	1	0	1	0
50	440	0	10000	1	1	0	1	0
49	441	0	10000	1	1	0	1	0
48	443	0	10000	1	1	0	1	0
47	444	0	10000	1	1	0	1	0
46	445	0	10000	1	1	0	1	0
44	446	0	10000	1	1	0	1	0
42	447	0	10000	1	1	0	1	0
40	448	0	10000	1	1	0	1	0
41	449	0	10000	1	1	0	1	0
39	450	0	10000	1	1	0	1	0
38	450	0	10000	1	1	0	1	0
40	451	0	10000	1	1	0	1	0
38	453	0	10000	1	1	0	1	0
38	454	0	10000	1	1	0	1	0
37	455	0	10000	1	1	0	1	0
35	456	0	10000	1	1	0	1	0
35	457	0	10000	1	1	0	1	0
35	458	0	10000	1	1	0	1	0
36	459	0	10000	1	1	0	1	0
43	460	0	10000	1	1	0	1	0
50	460	0	10000	1	1	0	1	0
53	461	0	10000	1	1	0	1	0
52	463	0	10000	1	1	0	1	0
52	464	0	10000	1	1	0	1	0
53	465	0	10000	1	1	0	1	0
54	466	0	10000	1	1	0	1	0
58	467	0	10000	1	1	0	1	0
60	468	0	10000	1	1	0	1	0
63	469	0	10000	1	1	0	1	0
65	470	0	10000	1	1	0	1	0
64	470	0	10000	1	1	0	1	0
62	471	0	10000	1	1	0	1	0
60	473	0	10000	1	1	0	1	0
57	474	0	10000	1	1	0	1	0
55	475	0	10000	1	1	0	1	0
55	476	0	10000	1	1	0	1	0
55	477	0	10000	1	1	0	1	0
54	478	0	10000	1	1	0	1	0
52	479	0	10000	1	1	0	1	0
51	480	0	10000	1	1	0	1	0
50	480	0	10000	1	1	0	1	0
49	481	0	10000	1	1	0	1	0
46	483	0	10000	1	1	0	1	0
46	484	0	10000	1	1	0	1	0
46	485	0	10000	1	1	0	1	0
44	486	0	10000	1	1	0	1	0
41	487	0	10000	1	1	0	1	0
40	488	0	10000	1	1	0	1	0
39	489	0	10000	1	1	0	1	0
40	490	0	10000	1	1	0	1	0
40	490	0	10000	1	1	0	1	0
41	491	0	10000	1	1	0	1	0
46	493	0	10000	1	1	0	1	0
49	494	0	10000	1	1	0	1	0
48	495	0	10000	1	1	0	1	0
48	496	0	10000	1	1	0	1	0
50	497	0	10000	1	1	0	1	0
51	498	0	10000	1	1	0	1	0
51	499	0	10000	1	1	0	1	0
51	500	0	10000	1	1	0	1	0
49	500	0	10000	1	1	0	1	0
48	501	0	10000	1	1	0	1	0
46	551	0	10000	1	1	0	1	1
46	552	0	10000	1	1	0	1	1
45	553	0	10000	1	1	0	1	1
44	554	0	10000	1	1	0	1	1
45	555	0	10000	1	1	0	1	1
43	556	0	10000	1	1	0	1	1
48	557	0	10000	1	1	0	1	1
49	558	0	10000	1	1	0	1	1
48	559	0	10000	1	1	0	1	1
47	560	0	10000	1	1	0	1	1
45	561	0	10000	1	1	0	1	1
45	562	0	10000	1	1	0	1	1
47	563	0	10000	1	1	0	1	1
46	564	0	10000	1	1	0	1	1
44	565	0	10000	1	1	0	1	1
45	566	0	10000	1	1	0	1	1
42	567	0	10000	1	1	0	1	1
40	568	0	10000	1	1	0	1	1
40	569	0	10000	1	1	0	1	1
39	570	0	10000	1	1	0	1	1
39	571	0	10000	1	1	0	1	1
38	572	0	10000	1	1	0	1	1
36	573	0	10000	1	1	0	1	1
36	574	0	10000	1	1	0	1	1
36	575	0	10000	1	1	0	1	1
35	576	0	10000	1	1	0	1	1
35	577	0	10000	1	1	0	1	1
35	578	0	10000	1	1	0	1	1
33	579	0	10000	1	1	0	1	1
32	580	0	10000	1	1	0	1	1
32	581	0	10000	1	1	0	1	1
31	582	0	10000	1	1	0	1	1
31	583	0	10000	1	1	0	1	1
30	584	0	10000	1	1	0	1	1
29	585	0	10000	1	1	0	1	1
28	586	0	10000	1	1	0	1	1
27	587	0	10000	1	1	0	1	1
26	588	0	10000	1	1	0	1	1
30	589	0	10000	1	1	0	1	1
34	590	0	10000	1	1	0	1	1
35	591	0	10000	1	1	0	1	1
33	592	0	10000	1	1	0	1	1
33	593	0	10000	1	1	0	1	1
32	594	0	10000	1	1	0	1	1
32	595	0	10000	1	1	0	1	1
30	596	0	10000	1	1	0	1	1
33	597	0	10000	1	1	0	1	1
36	598	0	10000	1	1	0	1	1
40	599	0	10000	1	1	0	1	1
40	600	0	10000	1	1	0	1	1
39	559	0	10000	1	1	0	1	0
38	560	0	10000	1	1	0	1	0
36	561	0	10000	1	1	0	1	0
38	562	0	10000	1	1	0	1	0
39	563	0	10000	1	1	0	1	0
37	564	0	10000	1	1	0	1	0
35	565	0	10000	1	1	0	1	0
33	566	0	10000	1	1	0	1	0
33	561	0	10000	1	1	0	1	0
33	562	0	10000	1	1	0	1	0
33	563	0	10000	1	1	0	1	0
31	564	0	10000	1	1	0	1	0
30	565	0	10000	1	1	0	1	0
30	566	0	10000	1	1	0	1	0
28	567	0	10000	1	1	0	1	0
27	568	0	10000	1	1	0	1	0
28	569	0	10000	1	1	0	1	0
27	570	0	10000	1	1	0	1	0
27	571	0	10000	1	1	0	1	0
27	572	0	10000	1	1	0	1	0
25	573	0	10000	1	1	0	1	0
26	574	0	10000	1	1	0	1	0
26	575	0	10000	1	1	0	1	0
26	576	0	10000	1	1	0	1	0
27	577	0	10000	1	1	0	1	0
28	578	0	10000	1	1	0	1	0
25	579	0	10000	1	1	0	1	0
26	580	0	10000	1	1	0	1	0
28	581	0	10000	1	1	0	1	0
29	582	0	10000	1	1	0	1	0
30	583	0	10000	1	1	0	1	0
30	584	0	10000	1	1	0	1	0
29	585	0	10000	1	1	0	1	0
28	586	0	10000	1	1	0	1	0
29	587	0	10000	1	1	0	1	0
29	588	0	10000	1	1	0	1	0
29	589	0	10000	1	1	0	1	0
31	590	0	10000	1	1	0	1	0
31	590	0	10000	1	1	0	1	0
30	591	0	10000	1	1	0	1	0
32	593	0	10000	1	1	0	1	0
32	594	0	10000	1	1	0	1	0
31	595	0	10000	1	1	0	1	0
32	596	0	10000	1	1	0	1	0
32	597	0	10000	1	1	0	1	0
33	598	0	10000	1	1	0	1	0
32	599	0	10000	1	1	0	1	0
29	600	0	10000	1	1	0	1	0
30	600	0	10000	1	1	0	1	0
32	601	0	10000	1	1	0	1	0
31	603	0	10000	1	1	0	1	0
30	604	0	10000	1	1	0	1	0
30	605	0	10000	1	1	0	1	0
28	606	0	10000	1	1	0	1	0
28	607	0	10000	1	1	0	1	0
28	608	0	10000	1	1	0	1	0
28	609	0	10000	1	1	0	1	0
29	610	0	10000	1	1	0	1	0
29	610	0	10000	1	1	0	1	0
29	611	0	10000	1	1	0	1	0
29	613	0	10000	1	1	0	1	0
29	614	0	10000	1	1	0	1	0
27	615	0	10000	1	1	0	1	0
27	616	0	10000	1	1	0	1	0
27	617	0	10000	1	1	0	1	0
27	618	0	10000	1	1	0	1	0
27	619	0	10000	1	1	0	1	0
27	620	0	10000	1	1	0	1	0
26	620	0	10000	1	1	0	1	0
26	621	0	10000	1	1	0	1	0
26	623	0	10000	1	1	0	1	0
25	624	0	10000	1	1	0	1	0
25	625	0	10000	1	1	0	1	0
25	626	0	10000	1	1	0	1	0
24	627	0	10000	1	1	0	1	0
23	628	0	10000	1	1	0	1	0
28	629	0	10000	1	1	0	1	0
30	630	0	10000	1	1	0	1	0
30	630	0	10000	1	1	0	1	0
29	631	0	10000	1	1	0	1	0
28	633	0	10000	1	1	0	1	0
29	634	0	10000	1	1	0	1	0
32	635	0	10000	1	1	0	1	0
36	636	0	10000	1	1	0	1	0
39	637	0	10000	1	1	0	1	0
40	638	0	10000	1	1	0	1	0
38	639	0	10000	1	1	0	1	0
35	640	0	10000	1	1	0	1	0
35	640	0	10000	1	1	0	1	0
33	641	0	10000	1	1	0	1	0
33	643	0	10000	1	1	0	1	0
34	644	0	10000	1	1	0	1	0
32	645	0	10000	1	1	0	1	0
32	646	0	10000	1	1	0	1	0
36	647	0	10000	1	1	0	1	0
37	648	0	10000	1	1	0	1	0
38	649	0	10000	1	1	0	1	0
39	650	0	10000	1	1	0	1	0
50	650	0	10000	1	1	0	1	0
63	651	0	10000	1	1	0	1	0
66	653	0	10000	1	1	0	1	0
77	654	0	10000	1	1	0	1	0
87	655	0	10000	1	1	0	1	0
97	656	0	10000	1	1	0	1	0
95	657	0	10000	1	1	0	1	0
96	658	0	10000	1	1	0	1	0
104	659	0	10000	1	1	0	1	0
105	660	0	10000	1	1	0	1	0
126	660	0	10000	1	1	0	1	0
146	661	0	10000	1	1	0	1	0
159	663	0	10000	1	1	0	1	0
170	664	0	10000	1	1	0	1	0
174	665	0	10000	1	1	0	1	0
168	666	0	10000	1	1	0	1	0
162	667	0	10000	1	1	0	1	0
156	668	0	10000	1	1	0	1	0
152	669	0	10000	1	1	0	1	0
148	670	0	10000	1	1	0	1	0
143	670	0	10000	1	1	0	1	0
136	671	0	10000	1	1	0	1	0
131	673	0	10000	1	1	0	1	0
130	674	0	10000	1	1	0	1	0
132	675	0	10000	1	1	0	1	0
131	676	0	10000	1	1	0	1	0
150	677	0	10000	1	1	0	1	0
185	678	0	10000	1	1	0	1	0
201	679	0	10000	1	1	0	1	0
201	680	0	10000	1	1	0	1	0
209	680	0	10000	1	1	0	1	0
207	681	0	10000	1	1	0	1	0
203	683	0	10000	1	1	0	1	0
194	684	0	10000	1	1	0	1	0
189	685	0	10000	1	1	0	1	0
190	686	0	10000	1	1	0	1	0
189	687	0	10000	1	1	0	1	0
185	688	0	10000	1	1	0	1	0
180	689	0	10000	1	1	0	1	0
173	690	0	10000	1	1	0	1	0
167	690	0	10000	1	1	0	1	0
164	691	0	10000	1	1	0	1	0
162	693	0	10000	1	1	0	1	0
160	694	0	10000	1	1	0	1	0
157	695	0	10000	1	1	0	1	0
152	696	0	10000	1	1	0	1	0
148	697	0	10000	1	1	0	1	0
143	698	0	10000	1	1	0	1	0
137	699	0	10000	1	1	0	1	0
132	700	0	10000	1	1	0	1	0
128	700	0	10000	1	1	0	1	0
124	701	0	10000	1	1	0	1	0
121	703	0	10000	1	1	0	1	0
120	704	0	10000	1	1	0	1	0
119	705	0	10000	1	1	0	1	0
116	706	0	10000	1	1	0	1	0
112	707	0	10000	1	1	0	1	0
109	708	0	10000	1	1	0	1	0
111	709	0	10000	1	1	0	1	0
113	710	0	10000	1	1	0	1	0
111	710	0	10000	1	1	0	1	0
111	711	0	10000	1	1	0	1	0
110	713	0	10000	1	1	0	1	0
108	714	0	10000	1	1	0	1	0
106	715	0	10000	1	1	0	1	0
105	716	0	10000	1	1	0	1	0
103	717	0	10000	1	1	0	1	0
100	718	0	10000	1	1	0	1	0
96	719	0	10000	1	1	0	1	0
91	720	0	10000	1	1	0	1	0
87	720	0	10000	1	1	0	1	0
83	721	0	10000	1	1	0	1	0
80	723	0	10000	1	1	0	1	0
77	724	0	10000	1	1	0	1	0
75	725	0	10000	1	1	0	1	0
72	726	0	10000	1	1	0	1	0
70	727	0	10000	1	1	0	1	0
68	728	0	10000	1	1	0	1	0
66	729	0	10000	1	1	0	1	0
64	730	0	10000	1	1	0	1	0
62	730	0	10000	1	1	0	1	0
59	731	0	10000	1	1	0	1	0
56	733	0	10000	1	1	0	1	0
55	734	0	10000	1	1	0	1	0
52	735	0	10000	1	1	0	1	0
52	736	0	10000	1	1	0	1	0
53	737	0	10000	1	1	0	1	0
54	738	0	10000	1	1	0	1	0
52	739	0	10000	1	1	0	1	0
51	740	0	10000	1	1	0	1	0
50	740	0	10000	1	1	0	1	0
50	741	0	10000	1	1	0	1	0
51	743	0	10000	1	1	0	1	0
51	744	0	10000	1	1	0	1	0
52	745	0	10000	1	1	0	1	0
52	746	0	10000	1	1	0	1	0
52	747	0	10000	1	1	0	1	0
53	748	0	10000	1	1	0	1	0
55	749	0	10000	1	1	0	1	0
57	750	0	10000	1	1	0	1	0
58	750	0	10000	1	1	0	1	0
58	751	0	10000	1	1	0	1	0
59	753	0	10000	1	1	0	1	0
59	754	0	10000	1	1	0	1	0
57	755	0	10000	1	1	0	1	0
55	756	0	10000	1	1	0	1	0
54	757	0	10000	1	1	0	1	0
52	758	0	10000	1	1	0	1	0
49	759	0	10000	1	1	0	1	0
46	760	0	10000	1	1	0	1	0
46	760	0	10000	1	1	0	1	0
44	761	0	10000	1	1	0	1	0
43	763	0	10000	1	1	0	1	0
43	764	0	10000	1	1	0	1	0
41	765	0	10000	1	1	0	1	0
42	766	0	10000	1	1	0	1	0
44	767	0	10000	1	1	0	1	0
46	768	0	10000	1	1	0	1	0
49	769	0	10000	1	1	0	1	0
53	770	0	10000	1	1	0	1	0
55	770	0	10000	1	1	0	1	0
55	771	0	10000	1	1	0	1	0
53	773	0	10000	1	1	0	1	0
51	774	0	10000	1	1	0	1	0
50	775	0	10000	1	1	0	1	0
49	776	0	10000	1	1	0	1	0
47	777	0	10000	1	1	0	1	0
48	778	0	10000	1	1	0	1	0
46	779	0	10000	1	1	0	1	0
46	780	0	10000	1	1	0	1	0
46	780	0	10000	1	1	0	1	0
46	781	0	10000	1	1	0	1	0
45	783	0	10000	1	1	0	1	0
43	784	0	10000	1	1	0	1	0
44	785	0	10000	1	1	0	1	0
44	786	0	10000	1	1	0	1	0
43	787	0	10000	1	1	0	1	0
42	788	0	10000	1	1	0	1	0
41	789	0	10000	1	1	0	1	0
43	790	0	10000	1	1	0	1	0
45	790	0	10000	1	1	0	1	0
45	791	0	10000	1	1	0	1	0
45	793	0	10000	1	1	0	1	0
47	794	0	10000	1	1	0	1	0
49	795	0	10000	1	1	0	1	0
48	796	0	10000	1	1	0	1	0
47	797	0	10000	1	1	0	1	0
47	798	0	10000	1	1	0	1	0
48	799	0	10000	1	1	0	1	0
48	800	0	10000	1	1	0	1	0
49	800	0	10000	1	1	0	1	0
49	801	0	10000	1	1	0	1	0
49	803	0	10000	1	1	0	1	0
47	804	0	10000	1	1	0	1	0
45	805	0	10000	1	1	0	1	0
44	806	0	10000	1	1	0	1	0
44	807	0	10000	1	1	0	1	0
43	808	0	10000	1	1	0	1	0
44	809	0	10000	1	1	0	1	0
45	810	0	10000	1	1	0	1	0
50	810	0	10000	1	1	0	1	0
60	811	0	10000	1	1	0	1	0
67	813	0	10000	1	1	0	1	0
70	814	0	10000	1	1	0	1	0
71	815	0	10000	1	1	0	1	0
69	816	0	10000	1	1	0	1	0
71	817	0	10000	1	1	0	1	0
74	818	0	10000	1	1	0	1	0
77	819	0	10000	1	1	0	1	0
78	820	0	10000	1	1	0	1	0
78	820	0	10000	1	1	0	1	0
77	821	0	10000	1	1	0	1	0
76	823	0	10000	1	1	0	1	0
75	824	0	10000	1	1	0	1	0
72	825	0	10000	1	1	0	1	0
71	826	0	10000	1	1	0	1	0
69	827	0	10000	1	1	0	1	0
67	828	0	10000	1	1	0	1	0
66	829	0	10000	1	1	0	1	0
65	830	0	10000	1	1	0	1	0
64	830	0	10000	1	1	0	1	0
63	831	0	10000	1	1	0	1	0
61	833	0	10000	1	1	0	1	0
59	834	0	10000	1	1	0	1	0
60	835	0	10000	1	1	0	1	0
64	836	0	10000	1	1	0	1	0
66	837	0	10000	1	1	0	1	0
66	838	0	10000	1	1	0	1	0
63	839	0	10000	1	1	0	1	0
63	840	0	10000	1	1	0	1	0
63	840	0	10000	1	1	0	1	0
62	841	0	10000	1	1	0	1	0
60	843	0	10000	1	1	0	1	0
58	844	0	10000	1	1	0	1	0
63	845	0	10000	1	1	0	1	0
65	846	0	10000	1	1	0	1	0
63	847	0	10000	1	1	0	1	0
60	848	0	10000	1	1	0	1	0
59	849	0	10000	1	1	0	1	0
61	850	0	10000	1	1	0	1	0
64	850	0	10000	1	1	0	1	0
66	851	0	10000	1	1	0	1	0
68	853	0	10000	1	1	0	1	0
66	854	0	10000	1	1	0	1	0
64	855	0	10000	1	1	0	1	0
62	856	0	10000	1	1	0	1	0
61	857	0	10000	1	1	0	1	0
61	858	0	10000	1	1	0	1	0
59	859	0	10000	1	1	0	1	0
56	860	0	10000	1	1	0	1	0
54	860	0	10000	1	1	0	1	0
53	861	0	10000	1	1	0	1	0
52	863	0	10000	1	1	0	1	0
52	864	0	10000	1	1	0	1	0
52	865	0	10000	1	1	0	1	0
53	866	0	10000	1	1	0	1	0
52	867	0	10000	1	1	0	1	0
50	868	0	10000	1	1	0	1	0
49	869	0	10000	1	1	0	1	0
48	870	0	10000	1	1	0	1	0
46	870	0	10000	1	1	0	1	0
44	871	0	10000	1	1	0	1	0
43	873	0	10000	1	1	0	1	0
41	874	0	10000	1	1	0	1	0
40	875	0	10000	1	1	0	1	0
39	876	0	10000	1	1	0	1	0
38	877	0	10000	1	1	0	1	0
40	878	0	10000	1	1	0	1	0
38	879	0	10000	1	1	0	1	0
36	880	0	10000	1	1	0	1	0
36	880	0	10000	1	1	0	1	0
35	881	0	10000	1	1	0	1	0
35	883	0	10000	1	1	0	1	0
36	884	0	10000	1	1	0	1	0
35	885	0	10000	1	1	0	1	0
34	886	0	10000	1	1	0	1	0
35	887	0	10000	1	1	0	1	0
35	888	0	10000	1	1	0	1	0
36	889	0	10000	1	1	0	1	0
36	890	0	10000	1	1	0	1	0
34	890	0	10000	1	1	0	1	0
33	891	0	10000	1	1	0	1	0
33	893	0	10000	1	1	0	1	0
32	894	0	10000	1	1	0	1	0
32	895	0	10000	1	1	0	1	0
32	896	0	10000	1	1	0	1	0
33	897	0	10000	1	1	0	1	0
34	898	0	10000	1	1	0	1	0
34	899	0	10000	1	1	0	1	0
34	900	0	10000	1	1	0	1	0
36	900	0	10000	1	1	0	1	0
38	901	0	10000	1	1	0	1	0
39	903	0	10000	1	1	0	1	0
40	904	0	10000	1	1	0	1	0
43	905	0	10000	1	1	0	1	0
42	906	0	10000	1	1	0	1	0
41	907	0	10000	1	1	0	1	0
42	908	0	10000	1	1	0	1	0
45	909	0	10000	1	1	0	1	0
48	910	0	10000	1	1	0	1	0
47	910	0	10000	1	1	0	1	0
47	911	0	10000	1	1	0	1	0
46	913	0	10000	1	1	0	1	0
44	914	0	10000	1	1	0	1	0
43	915	0	10000	1	1	0	1	0
41	916	0	10000	1	1	0	1	0
39	917	0	10000	1	1	0	1	0
39	918	0	10000	1	1	0	1	0
37	919	0	10000	1	1	0	1	0
38	920	0	10000	1	1	0	1	0
40	920	0	10000	1	1	0	1	0
40	921	0	10000	1	1	0	1	0
40	923	0	10000	1	1	0	1	0
41	924	0	10000	1	1	0	1	0
44	925	0	10000	1	1	0	1	0
42	926	0	10000	1	1	0	1	0
40	927	0	10000	1	1	0	1	0
39	928	0	10000	1	1	0	1	0
39	929	0	10000	1	1	0	1	0
39	930	0	10000	1	1	0	1	0
37	930	0	10000	1	1	0	1	0
36	931	0	10000	1	1	0	1	0
34	933	0	10000	1	1	0	1	0
36	934	0	10000	1	1	0	1	0
38	935	0	10000	1	1	0	1	0
41	936	0	10000	1	1	0	1	0
41	937	0	10000	1	1	0	1	0
42	938	0	10000	1	1	0	1	0
40	939	0	10000	1	1	0	1	0
40	940	0	10000	1	1	0	1	0
43	940	0	10000	1	1	0	1	0
45	941	0	10000	1	1	0	1	0
45	943	0	10000	1	1	0	1	0
45	944	0	10000	1	1	0	1	0
47	945	0	10000	1	1	0	1	0
49	946	0	10000	1	1	0	1	0
48	947	0	10000	1	1	0	1	0
47	948	0	10000	1	1	0	1	0
47	949	0	10000	1	1	0	1	0
46	950	0	10000	1	1	0	1	0
47	950	0	10000	1	1	0	1	0
51	951	0	10000	1	1	0	1	0
54	953	0	10000	1	1	0	1	0
54	954	0	10000	1	1	0	1	0
52	955	0	10000	1	1	0	1	0
51	956	0	10000	1	1	0	1	0
51	957	0	10000	1	1	0	1	0
51	958	0	10000	1	1	0	1	0
49	959	0	10000	1	1	0	1	0
52	960	0	10000	1	1	0	1	0
57	960	0	10000	1	1	0	1	0
59	961	0	10000	1	1	0	1	0
57	963	0	10000	1	1	0	1	0
58	964	0	10000	1	1	0	1	0
61	965	0	10000	1	1	0	1	0
67	966	0	10000	1	1	0	1	0
71	967	0	10000	1	1	0	1	0
72	968	0	10000	1	1	0	1	0
73	969	0	10000	1	1	0	1	0
71	970	0	10000	1	1	0	1	0
68	970	0	10000	1	1	0	1	0
66	971	0	10000	1	1	0	1	0
66	973	0	10000	1	1	0	1	0
66	974	0	10000	1	1	0	1	0
65	975	0	10000	1	1	0	1	0
63	976	0	10000	1	1	0	1	0
61	977	0	10000	1	1	0	1	0
60	978	0	10000	1	1	0	1	0
58	979	0	10000	1	1	0	1	0
56	980	0	10000	1	1	0	1	0
56	980	0	10000	1	1	0	1	0
54	981	0	10000	1	1	0	1	0
52	983	0	10000	1	1	0	1	0
50	984	0	10000	1	1	0	1	0
49	985	0	10000	1	1	0	1	0
50	986	0	10000	1	1	0	1	0
52	987	0	10000	1	1	0	1	0
53	988	0	10000	1	1	0	1	0
52	989	0	10000	1	1	0	1	0
51	990	0	10000	1	1	0	1	0
49	990	0	10000	1	1	0	1	0
50	991	0	10000	1	1	0	1	0
51	993	0	10000	1	1	0	1	0
51	994	0	10000	1	1	0	1	0
51	995	0	10000	1	1	0	1	0
52	996	0	10000	1	1	0	1	0
52	997	0	10000	1	1	0	1	0
51	998	0	10000	1	1	0	1	0
51	999	0	10000	1	1	0	1	0
50	1000	0	10000	1	1	0	1	0
50	1000	0	10000	1	1	0	1	0
49	1001	0	10000	1	1	0	1	0
50	1	7	10000	2	1	0	2	0
49	2	7	10000	2	1	0	2	0
47	3	7	10000	2	1	0	2	0
47	4	7	10000	2	1	0	2	0
48	5	7	10000	2	1	0	2	0
50	6	7	10000	2	1	0	2	0
51	7	7	10000	2	1	0	2	0
51	8	7	10000	2	1	0	2	0
52	9	7	10000	2	1	0	2	0
51	10	7	10000	2	1	0	2	0
50	11	7	10000	2	1	0	2	0
48	12	7	10000	2	1	0	2	0
47	13	7	10000	2	1	0	2	0
45	14	7	10000	2	1	0	2	0
44	15	7	10000	2	1	0	2	0
39	16	7	10000	2	1	0	2	0
38	17	7	10000	2	1	0	2	0
38	18	7	10000	2	1	0	2	0
38	19	7	10000	2	1	0	2	0
38	20	7	10000	2	1	0	2	0
37	21	7	10000	2	1	0	2	0
36	22	7	10000	2	1	0	2	0
34	23	7	10000	2	1	0	2	0
33	24	7	10000	2	1	0	2	0
31	25	7	10000	2	1	0	2	0
32	26	7	10000	2	1	0	2	0
32	27	7	10000	2	1	0	2	0
31	28	7	10000	2	1	0	2	0
30	29	7	10000	2	1	0	2	0
31	30	7	10000	2	1	0	2	0
30	31	7	10000	2	1	0	2	0
30	32	7	10000	2	1	0	2	0
31	33	7	10000	2	1	0	2	0
31	34	7	10000	2	1	0	2	0
30	35	7	10000	2	1	0	2	0
28	36	7	10000	2	1	0	2	0
28	37	7	10000	2	1	0	2	0
27	38	7	10000	2	1	0	2	0
26	39	7	10000	2	1	0	2	0
26	40	7	10000	2	1	0	2	0
26	41	7	10000	2	1	0	2	0
26	42	7	10000	2	1	0	2	0
26	43	7	10000	2	1	0	2	0
25	44	7	10000	2	1	0	2	0
26	45	7	10000	2	1	0	2	0
28	46	7	10000	2	1	0	2	0
26	47	7	10000	2	1	0	2	0
25	48	7	10000	2	1	0	2	0
24	49	7	10000	2	1	0	2	0
23	50	7	10000	2	1	0	2	0
24	51	7	10000	2	1	0	2	0
24	52	7	10000	2	1	0	2	0
25	53	7	10000	2	1	0	2	0
24	54	7	10000	2	1	0	2	0
24	55	7	10000	2	1	0	2	0
22	56	7	10000	2	1	0	2	0
24	57	7	10000	2	1	0	2	0
25	58	7	10000	2	1	0	2	0
25	59	7	10000	2	1	0	2	0
24	60	7	10000	2	1	0	2	0
23	61	7	10000	2	1	0	2	0
23	62	7	10000	2	1	0	2	0
22	63	7	10000	2	1	0	2	0
21	64	7	10000	2	1	0	2	0
21	65	7	10000	2	1	0	2	0
23	66	7	10000	2	1	0	2	0
22	67	7	10000	2	1	0	2	0
21	68	7	10000	2	1	0	2	0
22	69	7	10000	2	1	0	2	0
22	70	7	10000	2	1	0	2	0
21	71	7	10000	2	1	0	2	0
21	72	7	10000	2	1	0	2	0
22	73	7	10000	2	1	0	2	0
24	74	7	10000	2	1	0	2	0
25	75	7	10000	2	1	0	2	0
22	76	7	10000	2	1	0	2	0
22	77	7	10000	2	1	0	2	0
22	78	7	10000	2	1	0	2	0
23	79	7	10000	2	1	0	2	0
23	80	7	10000	2	1	0	2	0
23	81	7	10000	2	1	0	2	0
22	82	7	10000	2	1	0	2	0
21	83	7	10000	2	1	0	2	0
20	84	7	10000	2	1	0	2	0
21	85	7	10000	2	1	0	2	0
23	86	7	10000	2	1	0	2	0
22	87	7	10000	2	1	0	2	0
21	88	7	10000	2	1	0	2	0
20	89	7	10000	2	1	0	2	0
20	90	7	10000	2	1	0	2	0
19	91	7	10000	2	1	0	2	0
18	92	7	10000	2	1	0	2	0
19	93	7	10000	2	1	0	2	0
19	94	7	10000	2	1	0	2	0
18	95	7	10000	2	1	0	2	0
17	96	7	10000	2	1	0	2	0
17	97	7	10000	2	1	0	2	0
17	98	7	10000	2	1	0	2	0
17	99	7	10000	2	1	0	2	0
16	100	7	10000	2	1	0	2	0
15	101	7	10000	2	1	0	2	0
15	102	7	10000	2	1	0	2	0
14	103	7	10000	2	1	0	2	0
13	104	7	10000	2	1	0	2	0
13	105	7	10000	2	1	0	2	0
14	106	7	10000	2	1	0	2	0
13	107	7	10000	2	1	0	2	0
13	108	7	10000	2	1	0	2	0
15	109	7	10000	2	1	0	2	0
16	110	7	10000	2	1	0	2	0
17	111	7	10000	2	1	0	2	0
16	112	7	10000	2	1	0	2	0
16	113	7	10000	2	1	0	2	0
16	114	7	10000	2	1	0	2	0
16	115	7	10000	2	1	0	2	0
14	116	7	10000	2	1	0	2	0
16	117	7	10000	2	1	0	2	0
18	118	7	10000	2	1	0	2	0
17	119	7	10000	2	1	0	2	0
17	120	7	10000	2	1	0	2	0
19	121	7	10000	2	1	0	2	0
20	122	7	10000	2	1	0	2	0
19	123	7	10000	2	1	0	2	0
18	124	7	10000	2	1	0	2	0
18	125	7	10000	2	1	0	2	0
19	126	7	10000	2	1	0	2	0
18	127	7	10000	2	1	0	2	0
18	128	7	10000	2	1	0	2	0
17	129	7	10000	2	1	0	2	0
17	130	7	10000	2	1	0	2	0
18	131	7	10000	2	1	0	2	0
18	132	7	10000	2	1	0	2	0
20	133	7	10000	2	1	0	2	0
19	134	7	10000	2	1	0	2	0
18	135	7	10000	2	1	0	2	0
16	136	7	10000	2	1	0	2	0
17	137	7	10000	2	1	0	2	0
17	138	7	10000	2	1	0	2	0
18	139	7	10000	2	1	0	2	0
19	140	7	10000	2	1	0	2	0
19	141	7	10000	2	1	0	2	0
19	142	7	10000	2	1	0	2	0
17	143	7	10000	2	1	0	2	0
16	144	7	10000	2	1	0	2	0
15	145	7	10000	2	1	0	2	0
18	146	7	10000	2	1	0	2	0
19	147	7	10000	2	1	0	2	0
19	148	7	10000	2	1	0	2	0
20	149	7	10000	2	1	0	2	0
20	150	7	10000	2	1	0	2	0
19	151	7	10000	2	1	0	2	0
20	152	7	10000	2	1	0	2	0
21	153	7	10000	2	1	0	2	0
21	154	7	10000	2	1	0	2	0
20	155	7	10000	2	1	0	2	0
18	156	7	10000	2	1	0	2	0
18	157	7	10000	2	1	0	2	0
18	158	7	10000	2	1	0	2	0
18	159	7	10000	2	1	0	2	0
17	160	7	10000	2	1	0	2	0
17	161	7	10000	2	1	0	2	0
18	162	7	10000	2	1	0	2	0
18	163	7	10000	2	1	0	2	0
17	164	7	10000	2	1	0	2	0
18	165	7	10000	2	1	0	2	0
21	166	7	10000	2	1	0	2	0
20	167	7	10000	2	1	0	2	0
21	168	7	10000	2	1	0	2	0
22	169	7	10000	2	1	0	2	0
23	170	7	10000	2	1	0	2	0
25	171	7	10000	2	1	0	2	0
25	172	7	10000	2	1	0	2	0
25	173	7	10000	2	1	0	2	0
25	174	7	10000	2	1	0	2	0
24	175	7	10000	2	1	0	2	0
21	176	7	10000	2	1	0	2	0
22	177	7	10000	2	1	0	2	0
23	178	7	10000	2	1	0	2	0
23	179	7	10000	2	1	0	2	0
23	180	7	10000	2	1	0	2	0
23	181	7	10000	2	1	0	2	0
22	182	7	10000	2	1	0	2	0
22	183	7	10000	2	1	0	2	0
21	184	7	10000	2	1	0	2	0
21	185	7	10000	2	1	0	2	0
23	186	7	10000	2	1	0	2	0
22	187	7	10000	2	1	0	2	0
23	188	7	10000	2	1	0	2	0
22	189	7	10000	2	1	0	2	0
21	190	7	10000	2	1	0	2	0
22	191	7	10000	2	1	0	2	0
22	192	7	10000	2	1	0	2	0
24	193	7	10000	2	1	0	2	0
24	194	7	10000	2	1	0	2	0
23	195	7	10000	2	1	0	2	0
20	196	7	10000	2	1	0	2	0
20	197	7	10000	2	1	0	2	0
20	198	7	10000	2	1	0	2	0
22	199	7	10000	2	1	0	2	0
24	200	7	10000	2	1	0	2	0
23	201	7	10000	2	1	0	2	0
23	202	7	10000	2	1	0	2	0
22	203	7	10000	2	1	0	2	0
21	204	7	10000	2	1	0	2	0
21	205	7	10000	2	1	0	2	0
24	206	7	10000	2	1	0	2	0
24	207	7	10000	2	1	0	2	0
22	208	7	10000	2	1	0	2	0
23	209	7	10000	2	1	0	2	0
25	210	7	10000	2	1	0	2	0
29	211	7	10000	2	1	0	2	0
28	212	7	10000	2	1	0	2	0
28	213	7	10000	2	1	0	2	0
29	214	7	10000	2	1	0	2	0
31	215	7	10000	2	1	0	2	0
29	216	7	10000	2	1	0	2	0
30	217	7	10000	2	1	0	2	0
29	218	7	10000	2	1	0	2	0
28	219	7	10000	2	1	0	2	0
31	220	7	10000	2	1	0	2	0
32	221	7	10000	2	1	0	2	0
33	222	7	10000	2	1	0	2	0
33	223	7	10000	2	1	0	2	0
32	224	7	10000	2	1	0	2	0
31	225	7	10000	2	1	0	2	0
33	226	7	10000	2	1	0	2	0
33	227	7	10000	2	1	0	2	0
32	228	7	10000	2	1	0	2	0
30	229	7	10000	2	1	0	2	0
30	230	7	10000	2	1	0	2	0
30	231	7	10000	2	1	0	2	0
31	232	7	10000	2	1	0	2	0
30	233	7	10000	2	1	0	2	0
30	234	7	10000	2	1	0	2	0
29	235	7	10000	2	1	0	2	0
27	236	7	10000	2	1	0	2	0
28	237	7	10000	2	1	0	2	0
28	238	7	10000	2	1	0	2	0
28	239	7	10000	2	1	0	2	0
27	240	7	10000	2	1	0	2	0
28	241	7	10000	2	1	0	2	0
28	242	7	10000	2	1	0	2	0
26	243	7	10000	2	1	0	2	0
25	244	7	10000	2	1	0	2	0
25	245	7	10000	2	1	0	2	0
27	246	7	10000	2	1	0	2	0
28	247	7	10000	2	1	0	2	0
28	248	7	10000	2	1	0	2	0
27	249	7	10000	2	1	0	2	0
27	250	7	10000	2	1	0	2	0
26	251	7	10000	2	1	0	2	0
25	252	7	10000	2	1	0	2	0
25	253	7	10000	2	1	0	2	0
24	254	7	10000	2	1	0	2	0
23	255	7	10000	2	1	0	2	0
21	256	7	10000	2	1	0	2	0
20	257	7	10000	2	1	0	2	0
20	258	7	10000	2	1	0	2	0
20	259	7	10000	2	1	0	2	0
19	260	7	10000	2	1	0	2	0
19	261	7	10000	2	1	0	2	0
19	262	7	10000	2	1	0	2	0
18	263	7	10000	2	1	0	2	0
18	264	7	10000	2	1	0	2	0
18	265	7	10000	2	1	0	2	0
19	266	7	10000	2	1	0	2	0
20	267	7	10000	2	1	0	2	0
21	268	7	10000	2	1	0	2	0
20	269	7	10000	2	1	0	2	0
20	270	7	10000	2	1	0	2	0
20	271	7	10000	2	1	0	2	0
20	272	7	10000	2	1	0	2	0
21	273	7	10000	2	1	0	2	0
21	274	7	10000	2	1	0	2	0
20	275	7	10000	2	1	0	2	0
18	276	7	10000	2	1	0	2	0
18	277	7	10000	2	1	0	2	0
18	278	7	10000	2	1	0	2	0
18	279	7	10000	2	1	0	2	0
18	280	7	10000	2	1	0	2	0
18	281	7	10000	2	1	0	2	0
19	282	7	10000	2	1	0	2	0
18	283	7	10000	2	1	0	2	0
17	284	7	10000	2	1	0	2	0
16	285	7	10000	2	1	0	2	0
19	286	7	10000	2	1	0	2	0
18	287	7	10000	2	1	0	2	0
18	288	7	10000	2	1	0	2	0
17	289	7	10000	2	1	0	2	0
18	290	7	10000	2	1	0	2	0
17	291	7	10000	2	1	0	2	0
19	292	7	10000	2	1	0	2	0
20	293	7	10000	2	1	0	2	0
23	294	7	10000	2	1	0	2	0
24	295	7	10000	2	1	0	2	0
21	296	7	10000	2	1	0	2	0
21	297	7	10000	2	1	0	2	0
23	298	7	10000	2	1	0	2	0
25	299	7	10000	2	1	0	2	0
26	300	7	10000	2	1	0	2	0
26	301	7	10000	2	1	0	2	0
25	302	7	10000	2	1	0	2	0
24	303	7	10000	2	1	0	2	0
22	304	7	10000	2	1	0	2	0
21	305	7	10000	2	1	0	2	0
23	306	7	10000	2	1	0	2	0
22	307	7	10000	2	1	0	2	0
21	308	7	10000	2	1	0	2	0
21	309	7	10000	2	1	0	2	0
20	310	7	10000	2	1	0	2	0
19	311	7	10000	2	1	0	2	0
18	312	7	10000	2	1	0	2	0
19	313	7	10000	2	1	0	2	0
18	314	7	10000	2	1	0	2	0
18	315	7	10000	2	1	0	2	0
17	316	7	10000	2	1	0	2	0
19	317	7	10000	2	1	0	2	0
19	318	7	10000	2	1	0	2	0
20	319	7	10000	2	1	0	2	0
21	320	7	10000	2	1	0	2	0
21	321	7	10000	2	1	0	2	0
21	322	7	10000	2	1	0	2	0
21	323	7	10000	2	1	0	2	0
22	324	7	10000	2	1	0	2	0
24	325	7	10000	2	1	0	2	0
25	326	7	10000	2	1	0	2	0
25	327	7	10000	2	1	0	2	0
23	328	7	10000	2	1	0	2	0
23	329	7	10000	2	1	0	2	0
22	330	7	10000	2	1	0	2	0
22	331	7	10000	2	1	0	2	0
21	332	7	10000	2	1	0	2	0
22	333	7	10000	2	1	0	2	0
21	334	7	10000	2	1	0	2	0
21	335	7	10000	2	1	0	2	0
20	336	7	10000	2	1	0	2	0
22	337	7	10000	2	1	0	2	0
23	338	7	10000	2	1	0	2	0
24	339	7	10000	2	1	0	2	0
25	340	7	10000	2	1	0	2	0
26	341	7	10000	2	1	0	2	0
26	342	7	10000	2	1	0	2	0
25	343	7	10000	2	1	0	2	0
25	344	7	10000	2	1	0	2	0
26	345	7	10000	2	1	0	2	0
28	346	7	10000	2	1	0	2	0
27	347	7	10000	2	1	0	2	0
26	348	7	10000	2	1	0	2	0
26	349	7	10000	2	1	0	2	0
26	350	7	10000	2	1	0	2	0
26	351	7	10000	2	1	0	2	0
25	352	7	10000	2	1	0	2	0
25	353	7	10000	2	1	0	2	0
25	354	7	10000	2	1	0	2	0
24	355	7	10000	2	1	0	2	0
22	356	7	10000	2	1	0	2	0
22	357	7	10000	2	1	0	2	0
23	358	7	10000	2	1	0	2	0
22	359	7	10000	2	1	0	2	0
21	360	7	10000	2	1	0	2	0
22	361	7	10000	2	1	0	2	0
22	362	7	10000	2	1	0	2	0
21	363	7	10000	2	1	0	2	0
21	364	7	10000	2	1	0	2	0
22	365	7	10000	2	1	0	2	0
23	366	7	10000	2	1	0	2	0
21	367	7	10000	2	1	0	2	0
21	368	7	10000	2	1	0	2	0
21	369	7	10000	2	1	0	2	0
22	370	7	10000	2	1	0	2	0
20	371	7	10000	2	1	0	2	0
20	372	7	10000	2	1	0	2	0
20	373	7	10000	2	1	0	2	0
20	374	7	10000	2	1	0	2	0
21	375	7	10000	2	1	0	2	0
22	376	7	10000	2	1	0	2	0
24	377	7	10000	2	1	0	2	0
25	378	7	10000	2	1	0	2	0
25	379	7	10000	2	1	0	2	0
25	380	7	10000	2	1	0	2	0
24	381	7	10000	2	1	0	2	0
26	382	7	10000	2	1	0	2	0
26	383	7	10000	2	1	0	2	0
26	384	7	10000	2	1	0	2	0
26	385	7	10000	2	1	0	2	0
27	386	7	10000	2	1	0	2	0
26	387	7	10000	2	1	0	2	0
25	388	7	10000	2	1	0	2	0
25	389	7	10000	2	1	0	2	0
25	390	7	10000	2	1	0	2	0
24	391	7	10000	2	1	0	2	0
23	392	7	10000	2	1	0	2	0
23	393	7	10000	2	1	0	2	0
25	394	7	10000	2	1	0	2	0
26	395	7	10000	2	1	0	2	0
24	396	7	10000	2	1	0	2	0
24	397	7	10000	2	1	0	2	0
23	398	7	10000	2	1	0	2	0
24	399	7	10000	2	1	0	2	0
24	400	7	10000	2	1	0	2	0
24	401	7	10000	2	1	0	2	0
23	402	7	10000	2	1	0	2	0
22	403	7	10000	2	1	0	2	0
22	404	7	10000	2	1	0	2	0
22	405	7	10000	2	1	0	2	0
25	406	7	10000	2	1	0	2	0
24	407	7	10000	2	1	0	2	0
24	408	7	10000	2	1	0	2	0
23	409	7	10000	2	1	0	2	0
22	410	7	10000	2	1	0	2	0
21	411	7	10000	2	1	0	2	0
21	412	7	10000	2	1	0	2	0
21	413	7	10000	2	1	0	2	0
20	414	7	10000	2	1	0	2	0
20	415	7	10000	2	1	0	2	0
19	416	7	10000	2	1	0	2	0
20	417	7	10000	2	1	0	2	0
20	418	7	10000	2	1	0	2	0
20	419	7	10000	2	1	0	2	0
20	420	7	10000	2	1	0	2	0
19	421	7	10000	2	1	0	2	0
19	422	7	10000	2	1	0	2	0
17	423	7	10000	2	1	0	2	0
17	424	7	10000	2	1	0	2	0
16	425	7	10000	2	1	0	2	0
18	426	7	10000	2	1	0	2	0
19	427	7	10000	2	1	0	2	0
19	428	7	10000	2	1	0	2	0
19	429	7	10000	2	1	0	2	0
20	430	7	10000	2	1	0	2	0
19	431	7	10000	2	1	0	2	0
19	432	7	10000	2	1	0	2	0
19	433	7	10000	2	1	0	2	0
20	434	7	10000	2	1	0	2	0
20	444	7	10000	2	1	0	2	0
20	445	7	10000	2	1	0	2	0
20	446	7	10000	2	1	0	2	0
20	447	7	10000	2	1	0	2	0
20	448	7	10000	2	1	0	2	0
21	449	7	10000	2	1	0	2	0
21	450	7	10000	2	1	0	2	0
20	451	7	10000	2	1	0	2	0
20	452	7	10000	2	1	0	2	0
19	453	7	10000	2	1	0	2	0
19	452	7	10000	2	1	0	2	0
19	453	7	10000	2	1	0	2	0
18	454	7	10000	2	1	0	2	0
18	455	7	10000	2	1	0	2	0
18	456	7	10000	2	1	0	2	0
18	457	7	10000	2	1	0	2	0
19	458	7	10000	2	1	0	2	0
18	459	7	10000	2	1	0	2	0
18	460	7	10000	2	1	0	2	0
18	461	7	10000	2	1	0	2	0
18	459	7	10000	2	1	0	2	0
17	460	7	10000	2	1	0	2	0
20	461	7	10000	2	1	0	2	0
19	462	7	10000	2	1	0	2	0
19	463	7	10000	2	1	0	2	0
19	464	7	10000	2	1	0	2	0
19	466	7	10000	2	1	0	2	0
19	467	7	10000	2	1	0	2	0
17	468	7	10000	2	1	0	2	0
18	469	7	10000	2	1	0	2	0
18	470	7	10000	2	1	0	2	0
19	471	7	10000	2	1	0	2	0
20	472	7	10000	2	1	0	2	0
20	473	7	10000	2	1	0	2	0
19	474	7	10000	2	1	0	2	0
19	475	7	10000	2	1	0	2	0
19	476	7	10000	2	1	0	2	0
19	477	7	10000	2	1	0	2	0
18	479	7	10000	2	1	0	2	0
19	480	7	10000	2	1	0	2	0
19	481	7	10000	2	1	0	2	0
17	482	7	10000	2	1	0	2	0
18	483	7	10000	2	1	0	2	0
19	484	7	10000	2	1	0	2	0
19	485	7	10000	2	1	0	2	0
19	486	7	10000	2	1	0	2	0
18	484	7	10000	2	1	0	2	0
18	485	7	10000	2	1	0	2	0
17	486	7	10000	2	1	0	2	0
16	487	7	10000	2	1	0	2	0
16	489	7	10000	2	1	0	2	0
18	490	7	10000	2	1	0	2	0
17	491	7	10000	2	1	0	2	0
17	492	7	10000	2	1	0	2	0
18	493	7	10000	2	1	0	2	0
18	494	7	10000	2	1	0	2	0
18	496	7	10000	2	1	0	2	0
17	497	7	10000	2	1	0	2	0
18	498	7	10000	2	1	0	2	0
18	499	7	10000	2	1	0	2	0
17	500	7	10000	2	1	0	2	0
15	501	7	10000	2	1	0	2	0
16	500	7	10000	2	1	0	2	0
17	501	7	10000	2	1	0	2	0
19	502	7	10000	2	1	0	2	0
19	503	7	10000	2	1	0	2	0
20	507	7	10000	2	1	0	2	1
19	508	7	10000	2	1	0	2	1
18	509	7	10000	2	1	0	2	1
17	510	7	10000	2	1	0	2	1
16	511	7	10000	2	1	0	2	1
18	512	7	10000	2	1	0	2	1
17	513	7	10000	2	1	0	2	1
16	514	7	10000	2	1	0	2	1
16	511	7	10000	2	1	0	2	1
16	512	7	10000	2	1	0	2	1
15	513	7	10000	2	1	0	2	1
15	514	7	10000	2	1	0	2	1
16	519	7	10000	2	1	0	2	1
17	520	7	10000	2	1	0	2	1
17	521	7	10000	2	1	0	2	1
15	522	7	10000	2	1	0	2	1
15	523	7	10000	2	1	0	2	1
16	524	7	10000	2	1	0	2	1
17	525	7	10000	2	1	0	2	1
17	526	7	10000	2	1	0	2	1
16	523	7	10000	2	1	0	2	1
16	524	7	10000	2	1	0	2	1
15	525	7	10000	2	1	0	2	1
16	526	7	10000	2	1	0	2	1
17	529	7	10000	2	1	0	2	1
19	530	7	10000	2	1	0	2	1
18	531	7	10000	2	1	0	2	1
18	532	7	10000	2	1	0	2	1
17	533	7	10000	2	1	0	2	1
17	534	7	10000	2	1	0	2	1
16	535	7	10000	2	1	0	2	1
16	536	7	10000	2	1	0	2	1
18	537	7	10000	2	1	0	2	1
18	538	7	10000	2	1	0	2	1
18	539	7	10000	2	1	0	2	1
16	540	7	10000	2	1	0	2	1
16	539	7	10000	2	1	0	2	1
16	540	7	10000	2	1	0	2	1
17	541	7	10000	2	1	0	2	1
18	542	7	10000	2	1	0	2	1
17	546	7	10000	2	1	0	2	1
16	547	7	10000	2	1	0	2	1
16	548	7	10000	2	1	0	2	1
15	549	7	10000	2	1	0	2	1
15	550	7	10000	2	1	0	2	1
16	551	7	10000	2	1	0	2	1
15	551	7	10000	2	1	0	2	1
15	552	7	10000	2	1	0	2	1
15	553	7	10000	2	1	0	2	1
15	554	7	10000	2	1	0	2	1
16	555	7	10000	2	1	0	2	1
18	556	7	10000	2	1	0	2	1
20	552	7	10000	2	1	0	2	0
20	553	7	10000	2	1	0	2	0
20	555	7	10000	2	1	0	2	0
19	556	7	10000	2	1	0	2	0
19	557	7	10000	2	1	0	2	0
19	558	7	10000	2	1	0	2	0
20	559	7	10000	2	1	0	2	0
19	560	7	10000	2	1	0	2	0
20	561	7	10000	2	1	0	2	0
20	562	7	10000	2	1	0	2	0
19	563	7	10000	2	1	0	2	0
18	564	7	10000	2	1	0	2	0
19	565	7	10000	2	1	0	2	0
20	566	7	10000	2	1	0	2	0
20	567	7	10000	2	1	0	2	0
20	568	7	10000	2	1	0	2	0
19	569	7	10000	2	1	0	2	0
20	570	7	10000	2	1	0	2	0
21	571	7	10000	2	1	0	2	0
20	572	7	10000	2	1	0	2	0
20	573	7	10000	2	1	0	2	0
20	574	7	10000	2	1	0	2	0
20	575	7	10000	2	1	0	2	0
20	576	7	10000	2	1	0	2	0
22	577	7	10000	2	1	0	2	0
24	578	7	10000	2	1	0	2	0
26	579	7	10000	2	1	0	2	0
26	580	7	10000	2	1	0	2	0
25	581	7	10000	2	1	0	2	0
28	582	7	10000	2	1	0	2	0
30	583	7	10000	2	1	0	2	0
28	584	7	10000	2	1	0	2	0
30	585	7	10000	2	1	0	2	0
34	586	7	10000	2	1	0	2	0
38	587	7	10000	2	1	0	2	0
38	588	7	10000	2	1	0	2	0
38	589	7	10000	2	1	0	2	0
40	590	7	10000	2	1	0	2	0
41	591	7	10000	2	1	0	2	0
44	592	7	10000	2	1	0	2	0
48	593	7	10000	2	1	0	2	0
49	594	7	10000	2	1	0	2	0
48	595	7	10000	2	1	0	2	0
47	596	7	10000	2	1	0	2	0
50	597	7	10000	2	1	0	2	0
53	598	7	10000	2	1	0	2	0
53	599	7	10000	2	1	0	2	0
52	600	7	10000	2	1	0	2	0
52	601	7	10000	2	1	0	2	0
57	602	7	10000	2	1	0	2	0
58	603	7	10000	2	1	0	2	0
65	604	7	10000	2	1	0	2	0
66	605	7	10000	2	1	0	2	0
66	606	7	10000	2	1	0	2	0
64	607	7	10000	2	1	0	2	0
63	608	7	10000	2	1	0	2	0
63	609	7	10000	2	1	0	2	0
61	610	7	10000	2	1	0	2	0
60	611	7	10000	2	1	0	2	0
60	612	7	10000	2	1	0	2	0
61	613	7	10000	2	1	0	2	0
59	614	7	10000	2	1	0	2	0
59	615	7	10000	2	1	0	2	0
58	616	7	10000	2	1	0	2	0
58	617	7	10000	2	1	0	2	0
56	618	7	10000	2	1	0	2	0
55	619	7	10000	2	1	0	2	0
54	620	7	10000	2	1	0	2	0
58	621	7	10000	2	1	0	2	0
59	622	7	10000	2	1	0	2	0
64	623	7	10000	2	1	0	2	0
65	624	7	10000	2	1	0	2	0
64	625	7	10000	2	1	0	2	0
63	626	7	10000	2	1	0	2	0
61	627	7	10000	2	1	0	2	0
61	628	7	10000	2	1	0	2	0
59	629	7	10000	2	1	0	2	0
59	630	7	10000	2	1	0	2	0
61	631	7	10000	2	1	0	2	0
59	632	7	10000	2	1	0	2	0
59	633	7	10000	2	1	0	2	0
58	634	7	10000	2	1	0	2	0
55	635	7	10000	2	1	0	2	0
52	636	7	10000	2	1	0	2	0
52	637	7	10000	2	1	0	2	0
49	638	7	10000	2	1	0	2	0
48	639	7	10000	2	1	0	2	0
48	640	7	10000	2	1	0	2	0
48	641	7	10000	2	1	0	2	0
47	642	7	10000	2	1	0	2	0
48	643	7	10000	2	1	0	2	0
49	644	7	10000	2	1	0	2	0
49	645	7	10000	2	1	0	2	0
50	646	7	10000	2	1	0	2	0
47	647	7	10000	2	1	0	2	0
45	648	7	10000	2	1	0	2	0
43	649	7	10000	2	1	0	2	0
41	650	7	10000	2	1	0	2	0
40	651	7	10000	2	1	0	2	0
42	652	7	10000	2	1	0	2	0
43	653	7	10000	2	1	0	2	0
45	654	7	10000	2	1	0	2	0
44	655	7	10000	2	1	0	2	0
41	656	7	10000	2	1	0	2	0
41	657	7	10000	2	1	0	2	0
40	658	7	10000	2	1	0	2	0
37	659	7	10000	2	1	0	2	0
36	660	7	10000	2	1	0	2	0
36	661	7	10000	2	1	0	2	0
35	662	7	10000	2	1	0	2	0
33	663	7	10000	2	1	0	2	0
32	664	7	10000	2	1	0	2	0
31	665	7	10000	2	1	0	2	0
31	666	7	10000	2	1	0	2	0
30	667	7	10000	2	1	0	2	0
28	668	7	10000	2	1	0	2	0
28	669	7	10000	2	1	0	2	0
31	670	7	10000	2	1	0	2	0
30	671	7	10000	2	1	0	2	0
31	672	7	10000	2	1	0	2	0
31	673	7	10000	2	1	0	2	0
31	674	7	10000	2	1	0	2	0
33	675	7	10000	2	1	0	2	0
34	676	7	10000	2	1	0	2	0
34	677	7	10000	2	1	0	2	0
35	678	7	10000	2	1	0	2	0
36	679	7	10000	2	1	0	2	0
34	680	7	10000	2	1	0	2	0
34	681	7	10000	2	1	0	2	0
35	682	7	10000	2	1	0	2	0
35	683	7	10000	2	1	0	2	0
34	684	7	10000	2	1	0	2	0
34	685	7	10000	2	1	0	2	0
37	686	7	10000	2	1	0	2	0
38	687	7	10000	2	1	0	2	0
40	688	7	10000	2	1	0	2	0
38	689	7	10000	2	1	0	2	0
38	690	7	10000	2	1	0	2	0
37	691	7	10000	2	1	0	2	0
38	692	7	10000	2	1	0	2	0
38	693	7	10000	2	1	0	2	0
39	694	7	10000	2	1	0	2	0
37	695	7	10000	2	1	0	2	0
35	696	7	10000	2	1	0	2	0
36	697	7	10000	2	1	0	2	0
34	698	7	10000	2	1	0	2	0
34	699	7	10000	2	1	0	2	0
33	700	7	10000	2	1	0	2	0
32	701	7	10000	2	1	0	2	0
32	702	7	10000	2	1	0	2	0
32	703	7	10000	2	1	0	2	0
30	704	7	10000	2	1	0	2	0
30	705	7	10000	2	1	0	2	0
32	706	7	10000	2	1	0	2	0
30	707	7	10000	2	1	0	2	0
30	708	7	10000	2	1	0	2	0
29	709	7	10000	2	1	0	2	0
28	710	7	10000	2	1	0	2	0
27	711	7	10000	2	1	0	2	0
27	712	7	10000	2	1	0	2	0
27	713	7	10000	2	1	0	2	0
27	714	7	10000	2	1	0	2	0
28	715	7	10000	2	1	0	2	0
25	716	7	10000	2	1	0	2	0
25	717	7	10000	2	1	0	2	0
25	718	7	10000	2	1	0	2	0
24	719	7	10000	2	1	0	2	0
24	720	7	10000	2	1	0	2	0
24	721	7	10000	2	1	0	2	0
23	722	7	10000	2	1	0	2	0
22	723	7	10000	2	1	0	2	0
22	724	7	10000	2	1	0	2	0
22	725	7	10000	2	1	0	2	0
23	726	7	10000	2	1	0	2	0
23	727	7	10000	2	1	0	2	0
24	728	7	10000	2	1	0	2	0
23	729	7	10000	2	1	0	2	0
24	730	7	10000	2	1	0	2	0
22	731	7	10000	2	1	0	2	0
22	732	7	10000	2	1	0	2	0
25	733	7	10000	2	1	0	2	0
26	734	7	10000	2	1	0	2	0
25	735	7	10000	2	1	0	2	0
24	736	7	10000	2	1	0	2	0
23	737	7	10000	2	1	0	2	0
22	738	7	10000	2	1	0	2	0
22	739	7	10000	2	1	0	2	0
21	740	7	10000	2	1	0	2	0
21	741	7	10000	2	1	0	2	0
21	742	7	10000	2	1	0	2	0
22	743	7	10000	2	1	0	2	0
23	744	7	10000	2	1	0	2	0
23	745	7	10000	2	1	0	2	0
24	746	7	10000	2	1	0	2	0
23	747	7	10000	2	1	0	2	0
23	748	7	10000	2	1	0	2	0
23	749	7	10000	2	1	0	2	0
23	750	7	10000	2	1	0	2	0
23	751	7	10000	2	1	0	2	0
23	752	7	10000	2	1	0	2	0
23	753	7	10000	2	1	0	2	0
24	754	7	10000	2	1	0	2	0
23	755	7	10000	2	1	0	2	0
20	756	7	10000	2	1	0	2	0
22	757	7	10000	2	1	0	2	0
20	758	7	10000	2	1	0	2	0
20	759	7	10000	2	1	0	2	0
20	760	7	10000	2	1	0	2	0
20	761	7	10000	2	1	0	2	0
19	762	7	10000	2	1	0	2	0
19	763	7	10000	2	1	0	2	0
17	764	7	10000	2	1	0	2	0
18	765	7	10000	2	1	0	2	0
21	766	7	10000	2	1	0	2	0
19	767	7	10000	2	1	0	2	0
20	768	7	10000	2	1	0	2	0
20	769	7	10000	2	1	0	2	0
21	770	7	10000	2	1	0	2	0
20	771	7	10000	2	1	0	2	0
20	772	7	10000	2	1	0	2	0
20	773	7	10000	2	1	0	2	0
21	774	7	10000	2	1	0	2	0
21	775	7	10000	2	1	0	2	0
19	776	7	10000	2	1	0	2	0
20	777	7	10000	2	1	0	2	0
21	778	7	10000	2	1	0	2	0
21	779	7	10000	2	1	0	2	0
20	780	7	10000	2	1	0	2	0
22	781	7	10000	2	1	0	2	0
21	782	7	10000	2	1	0	2	0
20	783	7	10000	2	1	0	2	0
20	784	7	10000	2	1	0	2	0
20	785	7	10000	2	1	0	2	0
20	786	7	10000	2	1	0	2	0
21	787	7	10000	2	1	0	2	0
20	788	7	10000	2	1	0	2	0
20	789	7	10000	2	1	0	2	0
21	790	7	10000	2	1	0	2	0
24	791	7	10000	2	1	0	2	0
25	792	7	10000	2	1	0	2	0
25	793	7	10000	2	1	0	2	0
24	794	7	10000	2	1	0	2	0
24	795	7	10000	2	1	0	2	0
23	796	7	10000	2	1	0	2	0
23	797	7	10000	2	1	0	2	0
24	798	7	10000	2	1	0	2	0
24	799	7	10000	2	1	0	2	0
23	800	7	10000	2	1	0	2	0
24	801	7	10000	2	1	0	2	0
24	802	7	10000	2	1	0	2	0
23	803	7	10000	2	1	0	2	0
23	804	7	10000	2	1	0	2	0
23	805	7	10000	2	1	0	2	0
23	806	7	10000	2	1	0	2	0
23	807	7	10000	2	1	0	2	0
23	808	7	10000	2	1	0	2	0
22	809	7	10000	2	1	0	2	0
24	810	7	10000	2	1	0	2	0
25	811	7	10000	2	1	0	2	0
26	812	7	10000	2	1	0	2	0
26	813	7	10000	2	1	0	2	0
27	814	7	10000	2	1	0	2	0
28	815	7	10000	2	1	0	2	0
27	816	7	10000	2	1	0	2	0
29	817	7	10000	2	1	0	2	0
28	818	7	10000	2	1	0	2	0
29	819	7	10000	2	1	0	2	0
29	820	7	10000	2	1	0	2	0
30	821	7	10000	2	1	0	2	0
29	822	7	10000	2	1	0	2	0
28	823	7	10000	2	1	0	2	0
28	824	7	10000	2	1	0	2	0
30	825	7	10000	2	1	0	2	0
33	826	7	10000	2	1	0	2	0
33	827	7	10000	2	1	0	2	0
32	828	7	10000	2	1	0	2	0
30	829	7	10000	2	1	0	2	0
30	830	7	10000	2	1	0	2	0
29	831	7	10000	2	1	0	2	0
30	832	7	10000	2	1	0	2	0
30	833	7	10000	2	1	0	2	0
29	834	7	10000	2	1	0	2	0
28	835	7	10000	2	1	0	2	0
25	836	7	10000	2	1	0	2	0
26	837	7	10000	2	1	0	2	0
27	838	7	10000	2	1	0	2	0
25	839	7	10000	2	1	0	2	0
25	840	7	10000	2	1	0	2	0
24	841	7	10000	2	1	0	2	0
23	842	7	10000	2	1	0	2	0
22	843	7	10000	2	1	0	2	0
23	844	7	10000	2	1	0	2	0
24	845	7	10000	2	1	0	2	0
25	846	7	10000	2	1	0	2	0
25	847	7	10000	2	1	0	2	0
24	848	7	10000	2	1	0	2	0
25	849	7	10000	2	1	0	2	0
27	850	7	10000	2	1	0	2	0
27	851	7	10000	2	1	0	2	0
27	852	7	10000	2	1	0	2	0
27	853	7	10000	2	1	0	2	0
26	854	7	10000	2	1	0	2	0
25	855	7	10000	2	1	0	2	0
22	856	7	10000	2	1	0	2	0
22	857	7	10000	2	1	0	2	0
22	858	7	10000	2	1	0	2	0
22	859	7	10000	2	1	0	2	0
22	860	7	10000	2	1	0	2	0
22	861	7	10000	2	1	0	2	0
22	862	7	10000	2	1	0	2	0
20	863	7	10000	2	1	0	2	0
20	864	7	10000	2	1	0	2	0
20	865	7	10000	2	1	0	2	0
22	866	7	10000	2	1	0	2	0
22	867	7	10000	2	1	0	2	0
21	868	7	10000	2	1	0	2	0
20	869	7	10000	2	1	0	2	0
22	870	7	10000	2	1	0	2	0
23	871	7	10000	2	1	0	2	0
22	872	7	10000	2	1	0	2	0
21	873	7	10000	2	1	0	2	0
21	874	7	10000	2	1	0	2	0
20	875	7	10000	2	1	0	2	0
19	876	7	10000	2	1	0	2	0
19	877	7	10000	2	1	0	2	0
18	878	7	10000	2	1	0	2	0
19	879	7	10000	2	1	0	2	0
19	880	7	10000	2	1	0	2	0
20	881	7	10000	2	1	0	2	0
20	882	7	10000	2	1	0	2	0
20	883	7	10000	2	1	0	2	0
19	884	7	10000	2	1	0	2	0
19	885	7	10000	2	1	0	2	0
20	886	7	10000	2	1	0	2	0
20	887	7	10000	2	1	0	2	0
19	888	7	10000	2	1	0	2	0
19	889	7	10000	2	1	0	2	0
20	890	7	10000	2	1	0	2	0
21	891	7	10000	2	1	0	2	0
22	892	7	10000	2	1	0	2	0
21	893	7	10000	2	1	0	2	0
21	894	7	10000	2	1	0	2	0
20	895	7	10000	2	1	0	2	0
20	896	7	10000	2	1	0	2	0
23	897	7	10000	2	1	0	2	0
24	898	7	10000	2	1	0	2	0
24	899	7	10000	2	1	0	2	0
24	900	7	10000	2	1	0	2	0
23	901	7	10000	2	1	0	2	0
23	902	7	10000	2	1	0	2	0
23	903	7	10000	2	1	0	2	0
23	904	7	10000	2	1	0	2	0
24	905	7	10000	2	1	0	2	0
27	906	7	10000	2	1	0	2	0
28	907	7	10000	2	1	0	2	0
27	908	7	10000	2	1	0	2	0
26	909	7	10000	2	1	0	2	0
27	910	7	10000	2	1	0	2	0
27	911	7	10000	2	1	0	2	0
28	912	7	10000	2	1	0	2	0
27	913	7	10000	2	1	0	2	0
26	914	7	10000	2	1	0	2	0
26	915	7	10000	2	1	0	2	0
24	916	7	10000	2	1	0	2	0
24	917	7	10000	2	1	0	2	0
25	918	7	10000	2	1	0	2	0
24	919	7	10000	2	1	0	2	0
26	920	7	10000	2	1	0	2	0
27	921	7	10000	2	1	0	2	0
27	922	7	10000	2	1	0	2	0
27	923	7	10000	2	1	0	2	0
26	924	7	10000	2	1	0	2	0
27	925	7	10000	2	1	0	2	0
31	926	7	10000	2	1	0	2	0
31	927	7	10000	2	1	0	2	0
29	928	7	10000	2	1	0	2	0
29	929	7	10000	2	1	0	2	0
30	930	7	10000	2	1	0	2	0
30	931	7	10000	2	1	0	2	0
30	932	7	10000	2	1	0	2	0
30	933	7	10000	2	1	0	2	0
30	934	7	10000	2	1	0	2	0
31	935	7	10000	2	1	0	2	0
29	936	7	10000	2	1	0	2	0
30	937	7	10000	2	1	0	2	0
30	938	7	10000	2	1	0	2	0
30	939	7	10000	2	1	0	2	0
29	940	7	10000	2	1	0	2	0
28	941	7	10000	2	1	0	2	0
28	942	7	10000	2	1	0	2	0
28	943	7	10000	2	1	0	2	0
27	944	7	10000	2	1	0	2	0
27	945	7	10000	2	1	0	2	0
27	946	7	10000	2	1	0	2	0
25	947	7	10000	2	1	0	2	0
25	948	7	10000	2	1	0	2	0
25	949	7	10000	2	1	0	2	0
26	950	7	10000	2	1	0	2	0
27	951	7	10000	2	1	0	2	0
27	952	7	10000	2	1	0	2	0
28	953	7	10000	2	1	0	2	0
30	954	7	10000	2	1	0	2	0
29	955	7	10000	2	1	0	2	0
27	956	7	10000	2	1	0	2	0
29	957	7	10000	2	1	0	2	0
30	958	7	10000	2	1	0	2	0
30	959	7	10000	2	1	0	2	0
29	960	7	10000	2	1	0	2	0
29	961	7	10000	2	1	0	2	0
29	962	7	10000	2	1	0	2	0
29	963	7	10000	2	1	0	2	0
28	964	7	10000	2	1	0	2	0
28	965	7	10000	2	1	0	2	0
29	966	7	10000	2	1	0	2	0
28	967	7	10000	2	1	0	2	0
27	968	7	10000	2	1	0	2	0
26	969	7	10000	2	1	0	2	0
25	970	7	10000	2	1	0	2	0
25	971	7	10000	2	1	0	2	0
26	972	7	10000	2	1	0	2	0
26	973	7	10000	2	1	0	2	0
27	974	7	10000	2	1	0	2	0
25	975	7	10000	2	1	0	2	0
23	976	7	10000	2	1	0	2	0
24	977	7	10000	2	1	0	2	0
25	978	7	10000	2	1	0	2	0
27	979	7	10000	2	1	0	2	0
29	980	7	10000	2	1	0	2	0
29	981	7	10000	2	1	0	2	0
29	982	7	10000	2	1	0	2	0
29	983	7	10000	2	1	0	2	0
30	984	7	10000	2	1	0	2	0
29	985	7	10000	2	1	0	2	0
31	986	7	10000	2	1	0	2	0
31	987	7	10000	2	1	0	2	0
31	988	7	10000	2	1	0	2	0
31	989	7	10000	2	1	0	2	0
31	990	7	10000	2	1	0	2	0
30	991	7	10000	2	1	0	2	0
29	992	7	10000	2	1	0	2	0
28	993	7	10000	2	1	0	2	0
28	994	7	10000	2	1	0	2	0
28	995	7	10000	2	1	0	2	0
25	996	7	10000	2	1	0	2	0
25	997	7	10000	2	1	0	2	0
27	998	7	10000	2	1	0	2	0
26	999	7	10000	2	1	0	2	0
26	1000	7	10000	2	1	0	2	0
32	1	7	10000	3	1	0	3	0
32	2	7	10000	3	1	0	3	0
31	3	7	10000	3	1	0	3	0
31	4	7	10000	3	1	0	3	0
28	5	7	10000	3	1	0	3	0
28	6	7	10000	3	1	0	3	0
28	7	7	10000	3	1	0	3	0
26	8	7	10000	3	1	0	3	0
27	9	7	10000	3	1	0	3	0
27	10	7	10000	3	1	0	3	0
27	11	7	10000	3	1	0	3	0
26	12	7	10000	3	1	0	3	0
25	13	7	10000	3	1	0	3	0
24	14	7	10000	3	1	0	3	0
27	15	7	10000	3	1	0	3	0
26	16	7	10000	3	1	0	3	0
25	17	7	10000	3	1	0	3	0
25	18	7	10000	3	1	0	3	0
23	19	7	10000	3	1	0	3	0
24	20	7	10000	3	1	0	3	0
24	21	7	10000	3	1	0	3	0
24	22	7	10000	3	1	0	3	0
23	23	7	10000	3	1	0	3	0
24	24	7	10000	3	1	0	3	0
23	25	7	10000	3	1	0	3	0
23	26	7	10000	3	1	0	3	0
23	27	7	10000	3	1	0	3	0
24	28	7	10000	3	1	0	3	0
23	29	7	10000	3	1	0	3	0
23	30	7	10000	3	1	0	3	0
22	31	7	10000	3	1	0	3	0
23	32	7	10000	3	1	0	3	0
23	33	7	10000	3	1	0	3	0
21	34	7	10000	3	1	0	3	0
24	35	7	10000	3	1	0	3	0
24	36	7	10000	3	1	0	3	0
23	37	7	10000	3	1	0	3	0
21	38	7	10000	3	1	0	3	0
20	39	7	10000	3	1	0	3	0
21	40	7	10000	3	1	0	3	0
21	41	7	10000	3	1	0	3	0
23	42	7	10000	3	1	0	3	0
22	43	7	10000	3	1	0	3	0
22	44	7	10000	3	1	0	3	0
20	45	7	10000	3	1	0	3	0
19	46	7	10000	3	1	0	3	0
19	47	7	10000	3	1	0	3	0
20	48	7	10000	3	1	0	3	0
20	49	7	10000	3	1	0	3	0
20	50	7	10000	3	1	0	3	0
20	51	7	10000	3	1	0	3	0
19	52	7	10000	3	1	0	3	0
18	53	7	10000	3	1	0	3	0
18	54	7	10000	3	1	0	3	0
19	55	7	10000	3	1	0	3	0
18	56	7	10000	3	1	0	3	0
18	57	7	10000	3	1	0	3	0
18	58	7	10000	3	1	0	3	0
19	59	7	10000	3	1	0	3	0
18	60	7	10000	3	1	0	3	0
18	61	7	10000	3	1	0	3	0
17	62	7	10000	3	1	0	3	0
17	63	7	10000	3	1	0	3	0
19	64	7	10000	3	1	0	3	0
17	65	7	10000	3	1	0	3	0
17	66	7	10000	3	1	0	3	0
17	67	7	10000	3	1	0	3	0
17	68	7	10000	3	1	0	3	0
18	69	7	10000	3	1	0	3	0
18	70	7	10000	3	1	0	3	0
18	71	7	10000	3	1	0	3	0
18	72	7	10000	3	1	0	3	0
18	73	7	10000	3	1	0	3	0
17	74	7	10000	3	1	0	3	0
18	75	7	10000	3	1	0	3	0
18	76	7	10000	3	1	0	3	0
19	77	7	10000	3	1	0	3	0
20	78	7	10000	3	1	0	3	0
19	79	7	10000	3	1	0	3	0
19	80	7	10000	3	1	0	3	0
20	81	7	10000	3	1	0	3	0
21	82	7	10000	3	1	0	3	0
21	83	7	10000	3	1	0	3	0
22	84	7	10000	3	1	0	3	0
20	85	7	10000	3	1	0	3	0
19	86	7	10000	3	1	0	3	0
19	87	7	10000	3	1	0	3	0
19	88	7	10000	3	1	0	3	0
18	89	7	10000	3	1	0	3	0
18	90	7	10000	3	1	0	3	0
19	91	7	10000	3	1	0	3	0
19	92	7	10000	3	1	0	3	0
19	93	7	10000	3	1	0	3	0
19	94	7	10000	3	1	0	3	0
20	95	7	10000	3	1	0	3	0
20	96	7	10000	3	1	0	3	0
22	97	7	10000	3	1	0	3	0
21	98	7	10000	3	1	0	3	0
20	99	7	10000	3	1	0	3	0
20	100	7	10000	3	1	0	3	0
19	101	7	10000	3	1	0	3	0
19	102	7	10000	3	1	0	3	0
19	103	7	10000	3	1	0	3	0
19	104	7	10000	3	1	0	3	0
16	105	7	10000	3	1	0	3	0
16	106	7	10000	3	1	0	3	0
16	107	7	10000	3	1	0	3	0
17	108	7	10000	3	1	0	3	0
17	109	7	10000	3	1	0	3	0
17	110	7	10000	3	1	0	3	0
17	111	7	10000	3	1	0	3	0
16	112	7	10000	3	1	0	3	0
15	113	7	10000	3	1	0	3	0
15	114	7	10000	3	1	0	3	0
17	115	7	10000	3	1	0	3	0
16	116	7	10000	3	1	0	3	0
15	117	7	10000	3	1	0	3	0
15	118	7	10000	3	1	0	3	0
15	119	7	10000	3	1	0	3	0
16	120	7	10000	3	1	0	3	0
17	121	7	10000	3	1	0	3	0
17	122	7	10000	3	1	0	3	0
17	123	7	10000	3	1	0	3	0
17	124	7	10000	3	1	0	3	0
17	125	7	10000	3	1	0	3	0
17	126	7	10000	3	1	0	3	0
17	127	7	10000	3	1	0	3	0
17	128	7	10000	3	1	0	3	0
17	129	7	10000	3	1	0	3	0
17	130	7	10000	3	1	0	3	0
17	131	7	10000	3	1	0	3	0
16	132	7	10000	3	1	0	3	0
15	133	7	10000	3	1	0	3	0
15	134	7	10000	3	1	0	3	0
17	135	7	10000	3	1	0	3	0
16	136	7	10000	3	1	0	3	0
16	137	7	10000	3	1	0	3	0
15	138	7	10000	3	1	0	3	0
15	139	7	10000	3	1	0	3	0
15	140	7	10000	3	1	0	3	0
15	141	7	10000	3	1	0	3	0
15	142	7	10000	3	1	0	3	0
15	143	7	10000	3	1	0	3	0
15	144	7	10000	3	1	0	3	0
13	145	7	10000	3	1	0	3	0
13	146	7	10000	3	1	0	3	0
13	147	7	10000	3	1	0	3	0
13	148	7	10000	3	1	0	3	0
13	149	7	10000	3	1	0	3	0
13	150	7	10000	3	1	0	3	0
14	151	7	10000	3	1	0	3	0
15	152	7	10000	3	1	0	3	0
14	153	7	10000	3	1	0	3	0
13	154	7	10000	3	1	0	3	0
16	155	7	10000	3	1	0	3	0
18	156	7	10000	3	1	0	3	0
17	157	7	10000	3	1	0	3	0
16	158	7	10000	3	1	0	3	0
15	159	7	10000	3	1	0	3	0
15	160	7	10000	3	1	0	3	0
14	161	7	10000	3	1	0	3	0
15	162	7	10000	3	1	0	3	0
16	163	7	10000	3	1	0	3	0
17	164	7	10000	3	1	0	3	0
15	165	7	10000	3	1	0	3	0
15	166	7	10000	3	1	0	3	0
17	167	7	10000	3	1	0	3	0
19	168	7	10000	3	1	0	3	0
18	169	7	10000	3	1	0	3	0
17	170	7	10000	3	1	0	3	0
18	171	7	10000	3	1	0	3	0
17	172	7	10000	3	1	0	3	0
17	173	7	10000	3	1	0	3	0
17	174	7	10000	3	1	0	3	0
20	175	7	10000	3	1	0	3	0
20	176	7	10000	3	1	0	3	0
19	177	7	10000	3	1	0	3	0
18	178	7	10000	3	1	0	3	0
18	179	7	10000	3	1	0	3	0
18	180	7	10000	3	1	0	3	0
17	181	7	10000	3	1	0	3	0
18	182	7	10000	3	1	0	3	0
18	183	7	10000	3	1	0	3	0
18	184	7	10000	3	1	0	3	0
16	185	7	10000	3	1	0	3	0
17	186	7	10000	3	1	0	3	0
17	187	7	10000	3	1	0	3	0
17	188	7	10000	3	1	0	3	0
17	189	7	10000	3	1	0	3	0
16	190	7	10000	3	1	0	3	0
16	191	7	10000	3	1	0	3	0
16	192	7	10000	3	1	0	3	0
16	193	7	10000	3	1	0	3	0
14	194	7	10000	3	1	0	3	0
16	195	7	10000	3	1	0	3	0
18	196	7	10000	3	1	0	3	0
18	197	7	10000	3	1	0	3	0
18	198	7	10000	3	1	0	3	0
18	199	7	10000	3	1	0	3	0
17	200	7	10000	3	1	0	3	0
16	201	7	10000	3	1	0	3	0
16	202	7	10000	3	1	0	3	0
16	203	7	10000	3	1	0	3	0
16	204	7	10000	3	1	0	3	0
13	205	7	10000	3	1	0	3	0
15	206	7	10000	3	1	0	3	0
15	207	7	10000	3	1	0	3	0
17	208	7	10000	3	1	0	3	0
18	209	7	10000	3	1	0	3	0
17	210	7	10000	3	1	0	3	0
17	211	7	10000	3	1	0	3	0
16	212	7	10000	3	1	0	3	0
15	213	7	10000	3	1	0	3	0
15	214	7	10000	3	1	0	3	0
17	215	7	10000	3	1	0	3	0
17	216	7	10000	3	1	0	3	0
16	217	7	10000	3	1	0	3	0
16	218	7	10000	3	1	0	3	0
16	219	7	10000	3	1	0	3	0
16	220	7	10000	3	1	0	3	0
15	221	7	10000	3	1	0	3	0
16	222	7	10000	3	1	0	3	0
18	223	7	10000	3	1	0	3	0
20	224	7	10000	3	1	0	3	0
18	225	7	10000	3	1	0	3	0
18	226	7	10000	3	1	0	3	0
19	227	7	10000	3	1	0	3	0
19	228	7	10000	3	1	0	3	0
19	229	7	10000	3	1	0	3	0
18	230	7	10000	3	1	0	3	0
18	231	7	10000	3	1	0	3	0
18	232	7	10000	3	1	0	3	0
18	233	7	10000	3	1	0	3	0
18	234	7	10000	3	1	0	3	0
20	235	7	10000	3	1	0	3	0
20	236	7	10000	3	1	0	3	0
21	237	7	10000	3	1	0	3	0
23	238	7	10000	3	1	0	3	0
24	239	7	10000	3	1	0	3	0
27	240	7	10000	3	1	0	3	0
29	241	7	10000	3	1	0	3	0
31	242	7	10000	3	1	0	3	0
32	243	7	10000	3	1	0	3	0
32	244	7	10000	3	1	0	3	0
30	245	7	10000	3	1	0	3	0
30	246	7	10000	3	1	0	3	0
31	247	7	10000	3	1	0	3	0
31	248	7	10000	3	1	0	3	0
31	249	7	10000	3	1	0	3	0
30	250	7	10000	3	1	0	3	0
31	251	7	10000	3	1	0	3	0
31	252	7	10000	3	1	0	3	0
32	253	7	10000	3	1	0	3	0
33	254	7	10000	3	1	0	3	0
38	255	7	10000	3	1	0	3	0
42	256	7	10000	3	1	0	3	0
46	257	7	10000	3	1	0	3	0
50	258	7	10000	3	1	0	3	0
54	259	7	10000	3	1	0	3	0
56	260	7	10000	3	1	0	3	0
61	261	7	10000	3	1	0	3	0
66	262	7	10000	3	1	0	3	0
68	263	7	10000	3	1	0	3	0
68	264	7	10000	3	1	0	3	0
65	265	7	10000	3	1	0	3	0
63	266	7	10000	3	1	0	3	0
62	267	7	10000	3	1	0	3	0
61	268	7	10000	3	1	0	3	0
59	269	7	10000	3	1	0	3	0
60	270	7	10000	3	1	0	3	0
59	271	7	10000	3	1	0	3	0
57	272	7	10000	3	1	0	3	0
56	273	7	10000	3	1	0	3	0
53	274	7	10000	3	1	0	3	0
55	275	7	10000	3	1	0	3	0
56	276	7	10000	3	1	0	3	0
58	277	7	10000	3	1	0	3	0
60	278	7	10000	3	1	0	3	0
64	279	7	10000	3	1	0	3	0
67	280	7	10000	3	1	0	3	0
68	281	7	10000	3	1	0	3	0
71	282	7	10000	3	1	0	3	0
73	283	7	10000	3	1	0	3	0
73	284	7	10000	3	1	0	3	0
74	285	7	10000	3	1	0	3	0
76	286	7	10000	3	1	0	3	0
80	287	7	10000	3	1	0	3	0
83	288	7	10000	3	1	0	3	0
86	289	7	10000	3	1	0	3	0
90	290	7	10000	3	1	0	3	0
92	291	7	10000	3	1	0	3	0
94	292	7	10000	3	1	0	3	0
96	293	7	10000	3	1	0	3	0
97	294	7	10000	3	1	0	3	0
101	295	7	10000	3	1	0	3	0
103	296	7	10000	3	1	0	3	0
104	297	7	10000	3	1	0	3	0
103	298	7	10000	3	1	0	3	0
102	299	7	10000	3	1	0	3	0
99	300	7	10000	3	1	0	3	0
97	301	7	10000	3	1	0	3	0
93	302	7	10000	3	1	0	3	0
89	303	7	10000	3	1	0	3	0
87	304	7	10000	3	1	0	3	0
82	305	7	10000	3	1	0	3	0
80	306	7	10000	3	1	0	3	0
77	307	7	10000	3	1	0	3	0
73	308	7	10000	3	1	0	3	0
72	309	7	10000	3	1	0	3	0
68	310	7	10000	3	1	0	3	0
67	311	7	10000	3	1	0	3	0
65	312	7	10000	3	1	0	3	0
64	313	7	10000	3	1	0	3	0
63	314	7	10000	3	1	0	3	0
65	315	7	10000	3	1	0	3	0
64	316	7	10000	3	1	0	3	0
62	317	7	10000	3	1	0	3	0
60	318	7	10000	3	1	0	3	0
58	319	7	10000	3	1	0	3	0
57	320	7	10000	3	1	0	3	0
55	321	7	10000	3	1	0	3	0
53	322	7	10000	3	1	0	3	0
52	323	7	10000	3	1	0	3	0
51	324	7	10000	3	1	0	3	0
47	325	7	10000	3	1	0	3	0
45	326	7	10000	3	1	0	3	0
44	327	7	10000	3	1	0	3	0
42	328	7	10000	3	1	0	3	0
40	329	7	10000	3	1	0	3	0
40	330	7	10000	3	1	0	3	0
38	331	7	10000	3	1	0	3	0
37	332	7	10000	3	1	0	3	0
35	333	7	10000	3	1	0	3	0
34	334	7	10000	3	1	0	3	0
34	335	7	10000	3	1	0	3	0
33	336	7	10000	3	1	0	3	0
33	337	7	10000	3	1	0	3	0
32	338	7	10000	3	1	0	3	0
32	339	7	10000	3	1	0	3	0
31	340	7	10000	3	1	0	3	0
30	341	7	10000	3	1	0	3	0
30	342	7	10000	3	1	0	3	0
29	343	7	10000	3	1	0	3	0
28	344	7	10000	3	1	0	3	0
27	345	7	10000	3	1	0	3	0
29	346	7	10000	3	1	0	3	0
30	347	7	10000	3	1	0	3	0
30	348	7	10000	3	1	0	3	0
29	349	7	10000	3	1	0	3	0
28	350	7	10000	3	1	0	3	0
28	351	7	10000	3	1	0	3	0
28	352	7	10000	3	1	0	3	0
27	353	7	10000	3	1	0	3	0
26	354	7	10000	3	1	0	3	0
28	355	7	10000	3	1	0	3	0
27	356	7	10000	3	1	0	3	0
27	357	7	10000	3	1	0	3	0
26	358	7	10000	3	1	0	3	0
27	359	7	10000	3	1	0	3	0
27	360	7	10000	3	1	0	3	0
26	361	7	10000	3	1	0	3	0
26	362	7	10000	3	1	0	3	0
28	363	7	10000	3	1	0	3	0
29	364	7	10000	3	1	0	3	0
26	365	7	10000	3	1	0	3	0
26	366	7	10000	3	1	0	3	0
26	367	7	10000	3	1	0	3	0
26	368	7	10000	3	1	0	3	0
27	369	7	10000	3	1	0	3	0
28	370	7	10000	3	1	0	3	0
29	371	7	10000	3	1	0	3	0
28	372	7	10000	3	1	0	3	0
28	373	7	10000	3	1	0	3	0
26	374	7	10000	3	1	0	3	0
29	375	7	10000	3	1	0	3	0
28	376	7	10000	3	1	0	3	0
27	377	7	10000	3	1	0	3	0
26	378	7	10000	3	1	0	3	0
25	379	7	10000	3	1	0	3	0
25	380	7	10000	3	1	0	3	0
25	381	7	10000	3	1	0	3	0
26	382	7	10000	3	1	0	3	0
26	383	7	10000	3	1	0	3	0
25	384	7	10000	3	1	0	3	0
23	385	7	10000	3	1	0	3	0
23	386	7	10000	3	1	0	3	0
25	387	7	10000	3	1	0	3	0
26	388	7	10000	3	1	0	3	0
25	389	7	10000	3	1	0	3	0
26	390	7	10000	3	1	0	3	0
27	391	7	10000	3	1	0	3	0
26	392	7	10000	3	1	0	3	0
26	393	7	10000	3	1	0	3	0
24	394	7	10000	3	1	0	3	0
25	395	7	10000	3	1	0	3	0
26	396	7	10000	3	1	0	3	0
28	397	7	10000	3	1	0	3	0
30	398	7	10000	3	1	0	3	0
33	399	7	10000	3	1	0	3	0
38	400	7	10000	3	1	0	3	0
40	401	7	10000	3	1	0	3	0
42	402	7	10000	3	1	0	3	0
42	403	7	10000	3	1	0	3	0
42	404	7	10000	3	1	0	3	0
41	405	7	10000	3	1	0	3	0
42	406	7	10000	3	1	0	3	0
42	407	7	10000	3	1	0	3	0
47	408	7	10000	3	1	0	3	0
58	409	7	10000	3	1	0	3	0
68	410	7	10000	3	1	0	3	0
77	411	7	10000	3	1	0	3	0
82	412	7	10000	3	1	0	3	0
83	413	7	10000	3	1	0	3	0
85	414	7	10000	3	1	0	3	0
91	415	7	10000	3	1	0	3	0
96	416	7	10000	3	1	0	3	0
104	417	7	10000	3	1	0	3	0
114	418	7	10000	3	1	0	3	0
119	419	7	10000	3	1	0	3	0
125	420	7	10000	3	1	0	3	0
128	421	7	10000	3	1	0	3	0
130	422	7	10000	3	1	0	3	0
132	423	7	10000	3	1	0	3	0
134	424	7	10000	3	1	0	3	0
134	425	7	10000	3	1	0	3	0
139	426	7	10000	3	1	0	3	0
143	427	7	10000	3	1	0	3	0
145	428	7	10000	3	1	0	3	0
144	429	7	10000	3	1	0	3	0
142	430	7	10000	3	1	0	3	0
136	431	7	10000	3	1	0	3	0
130	432	7	10000	3	1	0	3	0
125	433	7	10000	3	1	0	3	0
119	434	7	10000	3	1	0	3	0
116	435	7	10000	3	1	0	3	0
112	436	7	10000	3	1	0	3	0
107	437	7	10000	3	1	0	3	0
105	438	7	10000	3	1	0	3	0
104	439	7	10000	3	1	0	3	0
102	440	7	10000	3	1	0	3	0
101	441	7	10000	3	1	0	3	0
104	442	7	10000	3	1	0	3	0
105	443	7	10000	3	1	0	3	0
107	444	7	10000	3	1	0	3	0
107	445	7	10000	3	1	0	3	0
109	446	7	10000	3	1	0	3	0
112	447	7	10000	3	1	0	3	0
116	448	7	10000	3	1	0	3	0
118	449	7	10000	3	1	0	3	0
121	450	7	10000	3	1	0	3	0
126	451	7	10000	3	1	0	3	0
128	452	7	10000	3	1	0	3	0
129	453	7	10000	3	1	0	3	0
131	454	7	10000	3	1	0	3	0
134	455	7	10000	3	1	0	3	0
137	456	7	10000	3	1	0	3	0
138	457	7	10000	3	1	0	3	0
138	458	7	10000	3	1	0	3	0
140	459	7	10000	3	1	0	3	0
142	460	7	10000	3	1	0	3	0
142	461	7	10000	3	1	0	3	0
142	462	7	10000	3	1	0	3	0
141	463	7	10000	3	1	0	3	0
138	464	7	10000	3	1	0	3	0
133	465	7	10000	3	1	0	3	0
134	466	7	10000	3	1	0	3	0
133	467	7	10000	3	1	0	3	0
134	468	7	10000	3	1	0	3	0
134	469	7	10000	3	1	0	3	0
133	470	7	10000	3	1	0	3	0
132	471	7	10000	3	1	0	3	0
131	472	7	10000	3	1	0	3	0
128	473	7	10000	3	1	0	3	0
125	474	7	10000	3	1	0	3	0
126	475	7	10000	3	1	0	3	0
123	476	7	10000	3	1	0	3	0
123	477	7	10000	3	1	0	3	0
122	478	7	10000	3	1	0	3	0
119	479	7	10000	3	1	0	3	0
118	480	7	10000	3	1	0	3	0
116	481	7	10000	3	1	0	3	0
113	482	7	10000	3	1	0	3	0
110	483	7	10000	3	1	0	3	0
107	484	7	10000	3	1	0	3	0
101	485	7	10000	3	1	0	3	0
96	486	7	10000	3	1	0	3	0
94	487	7	10000	3	1	0	3	0
92	488	7	10000	3	1	0	3	0
92	489	7	10000	3	1	0	3	0
91	490	7	10000	3	1	0	3	0
89	491	7	10000	3	1	0	3	0
86	492	7	10000	3	1	0	3	0
84	493	7	10000	3	1	0	3	0
80	494	7	10000	3	1	0	3	0
80	495	7	10000	3	1	0	3	0
77	496	7	10000	3	1	0	3	0
74	497	7	10000	3	1	0	3	0
71	498	7	10000	3	1	0	3	0
69	499	7	10000	3	1	0	3	0
66	500	7	10000	3	1	0	3	0
63	501	7	10000	3	1	0	3	1
62	502	7	10000	3	1	0	3	1
60	503	7	10000	3	1	0	3	1
58	504	7	10000	3	1	0	3	1
55	505	7	10000	3	1	0	3	1
53	506	7	10000	3	1	0	3	1
52	507	7	10000	3	1	0	3	1
52	508	7	10000	3	1	0	3	1
49	509	7	10000	3	1	0	3	1
48	510	7	10000	3	1	0	3	1
48	511	7	10000	3	1	0	3	1
45	512	7	10000	3	1	0	3	1
44	513	7	10000	3	1	0	3	1
42	514	7	10000	3	1	0	3	1
43	515	7	10000	3	1	0	3	1
43	516	7	10000	3	1	0	3	1
42	517	7	10000	3	1	0	3	1
40	518	7	10000	3	1	0	3	1
38	519	7	10000	3	1	0	3	1
38	520	7	10000	3	1	0	3	1
35	521	7	10000	3	1	0	3	1
35	522	7	10000	3	1	0	3	1
35	523	7	10000	3	1	0	3	1
34	524	7	10000	3	1	0	3	1
32	525	7	10000	3	1	0	3	1
32	526	7	10000	3	1	0	3	1
32	527	7	10000	3	1	0	3	1
33	528	7	10000	3	1	0	3	1
33	529	7	10000	3	1	0	3	1
32	530	7	10000	3	1	0	3	1
31	531	7	10000	3	1	0	3	1
30	532	7	10000	3	1	0	3	1
29	533	7	10000	3	1	0	3	1
28	534	7	10000	3	1	0	3	1
29	535	7	10000	3	1	0	3	1
28	536	7	10000	3	1	0	3	1
27	537	7	10000	3	1	0	3	1
27	538	7	10000	3	1	0	3	1
27	539	7	10000	3	1	0	3	1
28	540	7	10000	3	1	0	3	1
28	541	7	10000	3	1	0	3	1
27	542	7	10000	3	1	0	3	1
27	543	7	10000	3	1	0	3	1
28	544	7	10000	3	1	0	3	1
24	545	7	10000	3	1	0	3	1
24	546	7	10000	3	1	0	3	1
25	547	7	10000	3	1	0	3	1
25	548	7	10000	3	1	0	3	1
24	549	7	10000	3	1	0	3	1
26	550	7	10000	3	1	0	3	1
25	551	7	10000	3	1	0	3	0
23	552	7	10000	3	1	0	3	0
24	553	7	10000	3	1	0	3	0
22	554	7	10000	3	1	0	3	0
23	555	7	10000	3	1	0	3	0
24	556	7	10000	3	1	0	3	0
22	557	7	10000	3	1	0	3	0
22	558	7	10000	3	1	0	3	0
23	559	7	10000	3	1	0	3	0
22	560	7	10000	3	1	0	3	0
22	561	7	10000	3	1	0	3	0
23	562	7	10000	3	1	0	3	0
23	563	7	10000	3	1	0	3	0
23	564	7	10000	3	1	0	3	0
21	565	7	10000	3	1	0	3	0
20	566	7	10000	3	1	0	3	0
20	567	7	10000	3	1	0	3	0
21	568	7	10000	3	1	0	3	0
22	569	7	10000	3	1	0	3	0
22	570	7	10000	3	1	0	3	0
24	571	7	10000	3	1	0	3	0
24	572	7	10000	3	1	0	3	0
23	573	7	10000	3	1	0	3	0
23	574	7	10000	3	1	0	3	0
25	575	7	10000	3	1	0	3	0
25	576	7	10000	3	1	0	3	0
26	577	7	10000	3	1	0	3	0
24	578	7	10000	3	1	0	3	0
23	579	7	10000	3	1	0	3	0
22	580	7	10000	3	1	0	3	0
21	581	7	10000	3	1	0	3	0
21	582	7	10000	3	1	0	3	0
22	583	7	10000	3	1	0	3	0
23	584	7	10000	3	1	0	3	0
20	585	7	10000	3	1	0	3	0
22	586	7	10000	3	1	0	3	0
21	587	7	10000	3	1	0	3	0
25	588	7	10000	3	1	0	3	0
27	589	7	10000	3	1	0	3	0
29	590	7	10000	3	1	0	3	0
45	591	7	10000	3	1	0	3	0
79	592	7	10000	3	1	0	3	0
94	593	7	10000	3	1	0	3	0
93	594	7	10000	3	1	0	3	0
98	595	7	10000	3	1	0	3	0
111	596	7	10000	3	1	0	3	0
120	597	7	10000	3	1	0	3	0
129	598	7	10000	3	1	0	3	0
138	599	7	10000	3	1	0	3	0
203	600	7	10000	3	1	0	3	0
274	601	7	10000	3	1	0	3	0
285	602	7	10000	3	1	0	3	0
303	603	7	10000	3	1	0	3	0
333	604	7	10000	3	1	0	3	0
365	605	7	10000	3	1	0	3	0
406	606	7	10000	3	1	0	3	0
435	607	7	10000	3	1	0	3	0
472	608	7	10000	3	1	0	3	0
480	609	7	10000	3	1	0	3	0
507	610	7	10000	3	1	0	3	0
496	611	7	10000	3	1	0	3	0
480	612	7	10000	3	1	0	3	0
459	613	7	10000	3	1	0	3	0
447	614	7	10000	3	1	0	3	0
434	615	7	10000	3	1	0	3	0
447	616	7	10000	3	1	0	3	0
440	617	7	10000	3	1	0	3	0
466	618	7	10000	3	1	0	3	0
465	619	7	10000	3	1	0	3	0
486	620	7	10000	3	1	0	3	0
503	621	7	10000	3	1	0	3	0
507	622	7	10000	3	1	0	3	0
496	623	7	10000	3	1	0	3	0
489	624	7	10000	3	1	0	3	0
471	625	7	10000	3	1	0	3	0
454	626	7	10000	3	1	0	3	0
444	627	7	10000	3	1	0	3	0
433	628	7	10000	3	1	0	3	0
423	629	7	10000	3	1	0	3	0
411	630	7	10000	3	1	0	3	0
400	631	7	10000	3	1	0	3	0
389	632	7	10000	3	1	0	3	0
379	633	7	10000	3	1	0	3	0
365	634	7	10000	3	1	0	3	0
352	635	7	10000	3	1	0	3	0
336	636	7	10000	3	1	0	3	0
321	637	7	10000	3	1	0	3	0
307	638	7	10000	3	1	0	3	0
294	639	7	10000	3	1	0	3	0
284	640	7	10000	3	1	0	3	0
274	641	7	10000	3	1	0	3	0
266	642	7	10000	3	1	0	3	0
258	643	7	10000	3	1	0	3	0
249	644	7	10000	3	1	0	3	0
241	645	7	10000	3	1	0	3	0
235	646	7	10000	3	1	0	3	0
232	647	7	10000	3	1	0	3	0
231	648	7	10000	3	1	0	3	0
229	649	7	10000	3	1	0	3	0
229	650	7	10000	3	1	0	3	0
229	651	7	10000	3	1	0	3	0
228	652	7	10000	3	1	0	3	0
228	653	7	10000	3	1	0	3	0
227	654	7	10000	3	1	0	3	0
228	655	7	10000	3	1	0	3	0
224	656	7	10000	3	1	0	3	0
218	657	7	10000	3	1	0	3	0
210	658	7	10000	3	1	0	3	0
202	659	7	10000	3	1	0	3	0
197	660	7	10000	3	1	0	3	0
192	661	7	10000	3	1	0	3	0
186	662	7	10000	3	1	0	3	0
180	663	7	10000	3	1	0	3	0
179	664	7	10000	3	1	0	3	0
182	665	7	10000	3	1	0	3	0
187	666	7	10000	3	1	0	3	0
192	667	7	10000	3	1	0	3	0
196	668	7	10000	3	1	0	3	0
199	669	7	10000	3	1	0	3	0
197	670	7	10000	3	1	0	3	0
190	671	7	10000	3	1	0	3	0
183	672	7	10000	3	1	0	3	0
185	673	7	10000	3	1	0	3	0
195	674	7	10000	3	1	0	3	0
213	675	7	10000	3	1	0	3	0
227	676	7	10000	3	1	0	3	0
240	677	7	10000	3	1	0	3	0
249	678	7	10000	3	1	0	3	0
253	679	7	10000	3	1	0	3	0
257	680	7	10000	3	1	0	3	0
263	681	7	10000	3	1	0	3	0
273	682	7	10000	3	1	0	3	0
284	683	7	10000	3	1	0	3	0
294	684	7	10000	3	1	0	3	0
298	685	7	10000	3	1	0	3	0
304	686	7	10000	3	1	0	3	0
309	687	7	10000	3	1	0	3	0
312	688	7	10000	3	1	0	3	0
312	689	7	10000	3	1	0	3	0
310	690	7	10000	3	1	0	3	0
306	691	7	10000	3	1	0	3	0
300	692	7	10000	3	1	0	3	0
291	693	7	10000	3	1	0	3	0
282	694	7	10000	3	1	0	3	0
274	695	7	10000	3	1	0	3	0
262	696	7	10000	3	1	0	3	0
249	697	7	10000	3	1	0	3	0
238	698	7	10000	3	1	0	3	0
228	699	7	10000	3	1	0	3	0
219	700	7	10000	3	1	0	3	0
213	701	7	10000	3	1	0	3	0
208	702	7	10000	3	1	0	3	0
203	703	7	10000	3	1	0	3	0
200	704	7	10000	3	1	0	3	0
194	705	7	10000	3	1	0	3	0
192	706	7	10000	3	1	0	3	0
187	707	7	10000	3	1	0	3	0
184	708	7	10000	3	1	0	3	0
180	709	7	10000	3	1	0	3	0
178	710	7	10000	3	1	0	3	0
178	711	7	10000	3	1	0	3	0
177	712	7	10000	3	1	0	3	0
179	713	7	10000	3	1	0	3	0
180	714	7	10000	3	1	0	3	0
183	715	7	10000	3	1	0	3	0
185	716	7	10000	3	1	0	3	0
185	717	7	10000	3	1	0	3	0
185	718	7	10000	3	1	0	3	0
184	719	7	10000	3	1	0	3	0
182	720	7	10000	3	1	0	3	0
181	721	7	10000	3	1	0	3	0
180	722	7	10000	3	1	0	3	0
176	723	7	10000	3	1	0	3	0
172	724	7	10000	3	1	0	3	0
165	725	7	10000	3	1	0	3	0
162	726	7	10000	3	1	0	3	0
159	727	7	10000	3	1	0	3	0
157	728	7	10000	3	1	0	3	0
157	729	7	10000	3	1	0	3	0
156	730	7	10000	3	1	0	3	0
156	731	7	10000	3	1	0	3	0
154	732	7	10000	3	1	0	3	0
152	733	7	10000	3	1	0	3	0
152	734	7	10000	3	1	0	3	0
154	735	7	10000	3	1	0	3	0
153	736	7	10000	3	1	0	3	0
152	737	7	10000	3	1	0	3	0
149	738	7	10000	3	1	0	3	0
145	739	7	10000	3	1	0	3	0
141	740	7	10000	3	1	0	3	0
136	741	7	10000	3	1	0	3	0
130	742	7	10000	3	1	0	3	0
126	743	7	10000	3	1	0	3	0
122	744	7	10000	3	1	0	3	0
116	745	7	10000	3	1	0	3	0
112	746	7	10000	3	1	0	3	0
109	747	7	10000	3	1	0	3	0
107	748	7	10000	3	1	0	3	0
105	749	7	10000	3	1	0	3	0
104	750	7	10000	3	1	0	3	0
103	751	7	10000	3	1	0	3	0
101	752	7	10000	3	1	0	3	0
99	753	7	10000	3	1	0	3	0
97	754	7	10000	3	1	0	3	0
98	755	7	10000	3	1	0	3	0
96	756	7	10000	3	1	0	3	0
94	757	7	10000	3	1	0	3	0
92	758	7	10000	3	1	0	3	0
90	759	7	10000	3	1	0	3	0
87	760	7	10000	3	1	0	3	0
86	761	7	10000	3	1	0	3	0
83	762	7	10000	3	1	0	3	0
81	763	7	10000	3	1	0	3	0
78	764	7	10000	3	1	0	3	0
73	765	7	10000	3	1	0	3	0
73	766	7	10000	3	1	0	3	0
70	767	7	10000	3	1	0	3	0
69	768	7	10000	3	1	0	3	0
68	769	7	10000	3	1	0	3	0
67	770	7	10000	3	1	0	3	0
67	771	7	10000	3	1	0	3	0
66	772	7	10000	3	1	0	3	0
65	773	7	10000	3	1	0	3	0
65	774	7	10000	3	1	0	3	0
66	775	7	10000	3	1	0	3	0
64	776	7	10000	3	1	0	3	0
61	777	7	10000	3	1	0	3	0
61	778	7	10000	3	1	0	3	0
58	779	7	10000	3	1	0	3	0
56	780	7	10000	3	1	0	3	0
53	781	7	10000	3	1	0	3	0
52	782	7	10000	3	1	0	3	0
50	783	7	10000	3	1	0	3	0
48	784	7	10000	3	1	0	3	0
44	785	7	10000	3	1	0	3	0
43	786	7	10000	3	1	0	3	0
42	787	7	10000	3	1	0	3	0
41	788	7	10000	3	1	0	3	0
39	789	7	10000	3	1	0	3	0
39	790	7	10000	3	1	0	3	0
39	791	7	10000	3	1	0	3	0
37	792	7	10000	3	1	0	3	0
35	793	7	10000	3	1	0	3	0
36	794	7	10000	3	1	0	3	0
41	795	7	10000	3	1	0	3	0
42	796	7	10000	3	1	0	3	0
43	797	7	10000	3	1	0	3	0
40	798	7	10000	3	1	0	3	0
39	799	7	10000	3	1	0	3	0
38	800	7	10000	3	1	0	3	0
36	801	7	10000	3	1	0	3	0
35	802	7	10000	3	1	0	3	0
36	803	7	10000	3	1	0	3	0
35	804	7	10000	3	1	0	3	0
34	805	7	10000	3	1	0	3	0
33	806	7	10000	3	1	0	3	0
33	807	7	10000	3	1	0	3	0
32	808	7	10000	3	1	0	3	0
32	809	7	10000	3	1	0	3	0
32	810	7	10000	3	1	0	3	0
31	811	7	10000	3	1	0	3	0
30	812	7	10000	3	1	0	3	0
29	813	7	10000	3	1	0	3	0
30	814	7	10000	3	1	0	3	0
34	815	7	10000	3	1	0	3	0
34	816	7	10000	3	1	0	3	0
34	817	7	10000	3	1	0	3	0
36	818	7	10000	3	1	0	3	0
37	819	7	10000	3	1	0	3	0
35	820	7	10000	3	1	0	3	0
34	821	7	10000	3	1	0	3	0
35	822	7	10000	3	1	0	3	0
34	823	7	10000	3	1	0	3	0
35	824	7	10000	3	1	0	3	0
32	825	7	10000	3	1	0	3	0
31	826	7	10000	3	1	0	3	0
30	827	7	10000	3	1	0	3	0
29	828	7	10000	3	1	0	3	0
28	829	7	10000	3	1	0	3	0
27	830	7	10000	3	1	0	3	0
27	831	7	10000	3	1	0	3	0
24	832	7	10000	3	1	0	3	0
24	833	7	10000	3	1	0	3	0
23	834	7	10000	3	1	0	3	0
24	835	7	10000	3	1	0	3	0
24	836	7	10000	3	1	0	3	0
25	837	7	10000	3	1	0	3	0
27	838	7	10000	3	1	0	3	0
28	839	7	10000	3	1	0	3	0
28	840	7	10000	3	1	0	3	0
28	841	7	10000	3	1	0	3	0
29	842	7	10000	3	1	0	3	0
31	843	7	10000	3	1	0	3	0
30	844	7	10000	3	1	0	3	0
27	845	7	10000	3	1	0	3	0
27	846	7	10000	3	1	0	3	0
28	847	7	10000	3	1	0	3	0
30	848	7	10000	3	1	0	3	0
30	849	7	10000	3	1	0	3	0
31	850	7	10000	3	1	0	3	0
32	851	7	10000	3	1	0	3	0
32	852	7	10000	3	1	0	3	0
31	853	7	10000	3	1	0	3	0
28	854	7	10000	3	1	0	3	0
30	855	7	10000	3	1	0	3	0
30	856	7	10000	3	1	0	3	0
30	857	7	10000	3	1	0	3	0
29	858	7	10000	3	1	0	3	0
31	859	7	10000	3	1	0	3	0
34	860	7	10000	3	1	0	3	0
37	861	7	10000	3	1	0	3	0
39	862	7	10000	3	1	0	3	0
41	863	7	10000	3	1	0	3	0
41	864	7	10000	3	1	0	3	0
38	865	7	10000	3	1	0	3	0
37	866	7	10000	3	1	0	3	0
39	867	7	10000	3	1	0	3	0
40	868	7	10000	3	1	0	3	0
41	869	7	10000	3	1	0	3	0
41	870	7	10000	3	1	0	3	0
40	871	7	10000	3	1	0	3	0
38	872	7	10000	3	1	0	3	0
37	873	7	10000	3	1	0	3	0
38	874	7	10000	3	1	0	3	0
41	875	7	10000	3	1	0	3	0
39	876	7	10000	3	1	0	3	0
38	877	7	10000	3	1	0	3	0
37	878	7	10000	3	1	0	3	0
35	879	7	10000	3	1	0	3	0
33	880	7	10000	3	1	0	3	0
33	881	7	10000	3	1	0	3	0
33	882	7	10000	3	1	0	3	0
34	883	7	10000	3	1	0	3	0
36	884	7	10000	3	1	0	3	0
37	885	7	10000	3	1	0	3	0
39	886	7	10000	3	1	0	3	0
41	887	7	10000	3	1	0	3	0
43	888	7	10000	3	1	0	3	0
44	889	7	10000	3	1	0	3	0
45	890	7	10000	3	1	0	3	0
46	891	7	10000	3	1	0	3	0
45	892	7	10000	3	1	0	3	0
44	893	7	10000	3	1	0	3	0
43	894	7	10000	3	1	0	3	0
43	895	7	10000	3	1	0	3	0
42	896	7	10000	3	1	0	3	0
42	897	7	10000	3	1	0	3	0
40	898	7	10000	3	1	0	3	0
41	899	7	10000	3	1	0	3	0
40	900	7	10000	3	1	0	3	0
40	901	7	10000	3	1	0	3	0
42	902	7	10000	3	1	0	3	0
42	903	7	10000	3	1	0	3	0
44	904	7	10000	3	1	0	3	0
45	905	7	10000	3	1	0	3	0
47	906	7	10000	3	1	0	3	0
49	907	7	10000	3	1	0	3	0
51	908	7	10000	3	1	0	3	0
54	909	7	10000	3	1	0	3	0
56	910	7	10000	3	1	0	3	0
57	911	7	10000	3	1	0	3	0
55	912	7	10000	3	1	0	3	0
54	913	7	10000	3	1	0	3	0
51	914	7	10000	3	1	0	3	0
50	915	7	10000	3	1	0	3	0
49	916	7	10000	3	1	0	3	0
48	917	7	10000	3	1	0	3	0
46	918	7	10000	3	1	0	3	0
44	919	7	10000	3	1	0	3	0
44	920	7	10000	3	1	0	3	0
44	921	7	10000	3	1	0	3	0
45	922	7	10000	3	1	0	3	0
44	923	7	10000	3	1	0	3	0
43	924	7	10000	3	1	0	3	0
39	925	7	10000	3	1	0	3	0
39	926	7	10000	3	1	0	3	0
38	927	7	10000	3	1	0	3	0
38	928	7	10000	3	1	0	3	0
36	929	7	10000	3	1	0	3	0
36	930	7	10000	3	1	0	3	0
34	931	7	10000	3	1	0	3	0
33	932	7	10000	3	1	0	3	0
32	933	7	10000	3	1	0	3	0
30	934	7	10000	3	1	0	3	0
32	935	7	10000	3	1	0	3	0
31	936	7	10000	3	1	0	3	0
30	937	7	10000	3	1	0	3	0
29	938	7	10000	3	1	0	3	0
28	939	7	10000	3	1	0	3	0
28	940	7	10000	3	1	0	3	0
26	941	7	10000	3	1	0	3	0
27	942	7	10000	3	1	0	3	0
27	943	7	10000	3	1	0	3	0
29	944	7	10000	3	1	0	3	0
29	945	7	10000	3	1	0	3	0
29	946	7	10000	3	1	0	3	0
29	947	7	10000	3	1	0	3	0
27	948	7	10000	3	1	0	3	0
26	949	7	10000	3	1	0	3	0
26	950	7	10000	3	1	0	3	0
25	951	7	10000	3	1	0	3	0
23	952	7	10000	3	1	0	3	0
23	953	7	10000	3	1	0	3	0
25	954	7	10000	3	1	0	3	0
27	955	7	10000	3	1	0	3	0
26	956	7	10000	3	1	0	3	0
26	957	7	10000	3	1	0	3	0
24	958	7	10000	3	1	0	3	0
25	959	7	10000	3	1	0	3	0
25	960	7	10000	3	1	0	3	0
25	961	7	10000	3	1	0	3	0
26	962	7	10000	3	1	0	3	0
26	963	7	10000	3	1	0	3	0
26	964	7	10000	3	1	0	3	0
24	965	7	10000	3	1	0	3	0
23	966	7	10000	3	1	0	3	0
23	967	7	10000	3	1	0	3	0
23	968	7	10000	3	1	0	3	0
24	969	7	10000	3	1	0	3	0
24	970	7	10000	3	1	0	3	0
25	971	7	10000	3	1	0	3	0
23	972	7	10000	3	1	0	3	0
22	973	7	10000	3	1	0	3	0
23	974	7	10000	3	1	0	3	0
24	975	7	10000	3	1	0	3	0
25	976	7	10000	3	1	0	3	0
24	977	7	10000	3	1	0	3	0
23	978	7	10000	3	1	0	3	0
22	979	7	10000	3	1	0	3	0
22	980	7	10000	3	1	0	3	0
21	981	7	10000	3	1	0	3	0
21	982	7	10000	3	1	0	3	0
21	983	7	10000	3	1	0	3	0
22	984	7	10000	3	1	0	3	0
22	985	7	10000	3	1	0	3	0
22	986	7	10000	3	1	0	3	0
22	987	7	10000	3	1	0	3	0
22	988	7	10000	3	1	0	3	0
21	989	7	10000	3	1	0	3	0
21	990	7	10000	3	1	0	3	0
20	991	7	10000	3	1	0	3	0
20	992	7	10000	3	1	0	3	0
20	993	7	10000	3	1	0	3	0
20	994	7	10000	3	1	0	3	0
21	995	7	10000	3	1	0	3	0
20	996	7	10000	3	1	0	3	0
20	997	7	10000	3	1	0	3	0
20	998	7	10000	3	1	0	3	0
19	999	7	10000	3	1	0	3	0
18	1000	7	10000	3	1	0	3	0
17	2	0	10000	4	1	0	4	0
16	3	0	10000	4	1	0	4	0
15	4	0	10000	4	1	0	4	0
16	5	0	10000	4	1	0	4	0
16	6	0	10000	4	1	0	4	0
16	7	0	10000	4	1	0	4	0
15	8	0	10000	4	1	0	4	0
17	9	0	10000	4	1	0	4	0
17	10	0	10000	4	1	0	4	0
17	11	0	10000	4	1	0	4	0
17	12	0	10000	4	1	0	4	0
18	13	0	10000	4	1	0	4	0
18	14	0	10000	4	1	0	4	0
17	15	0	10000	4	1	0	4	0
16	16	0	10000	4	1	0	4	0
16	17	0	10000	4	1	0	4	0
17	18	0	10000	4	1	0	4	0
17	19	0	10000	4	1	0	4	0
17	20	0	10000	4	1	0	4	0
18	21	0	10000	4	1	0	4	0
19	22	0	10000	4	1	0	4	0
19	23	0	10000	4	1	0	4	0
19	24	0	10000	4	1	0	4	0
20	25	0	10000	4	1	0	4	0
20	26	0	10000	4	1	0	4	0
22	27	0	10000	4	1	0	4	0
22	28	0	10000	4	1	0	4	0
21	29	0	10000	4	1	0	4	0
22	30	0	10000	4	1	0	4	0
23	31	0	10000	4	1	0	4	0
25	32	0	10000	4	1	0	4	0
26	33	0	10000	4	1	0	4	0
26	34	0	10000	4	1	0	4	0
24	35	0	10000	4	1	0	4	0
23	36	0	10000	4	1	0	4	0
24	37	0	10000	4	1	0	4	0
26	38	0	10000	4	1	0	4	0
27	39	0	10000	4	1	0	4	0
26	40	0	10000	4	1	0	4	0
25	41	0	10000	4	1	0	4	0
25	42	0	10000	4	1	0	4	0
23	43	0	10000	4	1	0	4	0
22	44	0	10000	4	1	0	4	0
23	45	0	10000	4	1	0	4	0
23	46	0	10000	4	1	0	4	0
23	47	0	10000	4	1	0	4	0
23	48	0	10000	4	1	0	4	0
24	49	0	10000	4	1	0	4	0
26	50	0	10000	4	1	0	4	0
25	51	0	10000	4	1	0	4	0
25	52	0	10000	4	1	0	4	0
24	53	0	10000	4	1	0	4	0
25	54	0	10000	4	1	0	4	0
23	55	0	10000	4	1	0	4	0
23	56	0	10000	4	1	0	4	0
22	57	0	10000	4	1	0	4	0
21	58	0	10000	4	1	0	4	0
21	59	0	10000	4	1	0	4	0
21	60	0	10000	4	1	0	4	0
21	61	0	10000	4	1	0	4	0
20	62	0	10000	4	1	0	4	0
19	63	0	10000	4	1	0	4	0
17	64	0	10000	4	1	0	4	0
19	65	0	10000	4	1	0	4	0
20	66	0	10000	4	1	0	4	0
20	67	0	10000	4	1	0	4	0
20	68	0	10000	4	1	0	4	0
20	69	0	10000	4	1	0	4	0
18	70	0	10000	4	1	0	4	0
18	71	0	10000	4	1	0	4	0
19	72	0	10000	4	1	0	4	0
20	73	0	10000	4	1	0	4	0
21	74	0	10000	4	1	0	4	0
19	75	0	10000	4	1	0	4	0
18	76	0	10000	4	1	0	4	0
17	77	0	10000	4	1	0	4	0
18	78	0	10000	4	1	0	4	0
17	79	0	10000	4	1	0	4	0
16	80	0	10000	4	1	0	4	0
17	81	0	10000	4	1	0	4	0
18	82	0	10000	4	1	0	4	0
18	83	0	10000	4	1	0	4	0
18	84	0	10000	4	1	0	4	0
20	85	0	10000	4	1	0	4	0
22	86	0	10000	4	1	0	4	0
23	87	0	10000	4	1	0	4	0
22	88	0	10000	4	1	0	4	0
22	89	0	10000	4	1	0	4	0
22	90	0	10000	4	1	0	4	0
22	91	0	10000	4	1	0	4	0
23	92	0	10000	4	1	0	4	0
23	93	0	10000	4	1	0	4	0
23	94	0	10000	4	1	0	4	0
20	95	0	10000	4	1	0	4	0
20	96	0	10000	4	1	0	4	0
19	97	0	10000	4	1	0	4	0
21	98	0	10000	4	1	0	4	0
22	99	0	10000	4	1	0	4	0
23	100	0	10000	4	1	0	4	0
24	101	0	10000	4	1	0	4	0
23	102	0	10000	4	1	0	4	0
22	103	0	10000	4	1	0	4	0
22	104	0	10000	4	1	0	4	0
24	105	0	10000	4	1	0	4	0
26	106	0	10000	4	1	0	4	0
27	107	0	10000	4	1	0	4	0
27	108	0	10000	4	1	0	4	0
27	109	0	10000	4	1	0	4	0
29	110	0	10000	4	1	0	4	0
30	111	0	10000	4	1	0	4	0
29	112	0	10000	4	1	0	4	0
29	113	0	10000	4	1	0	4	0
30	114	0	10000	4	1	0	4	0
28	115	0	10000	4	1	0	4	0
26	116	0	10000	4	1	0	4	0
26	117	0	10000	4	1	0	4	0
24	118	0	10000	4	1	0	4	0
24	119	0	10000	4	1	0	4	0
23	120	0	10000	4	1	0	4	0
23	121	0	10000	4	1	0	4	0
23	122	0	10000	4	1	0	4	0
23	123	0	10000	4	1	0	4	0
22	124	0	10000	4	1	0	4	0
24	125	0	10000	4	1	0	4	0
26	126	0	10000	4	1	0	4	0
26	127	0	10000	4	1	0	4	0
27	128	0	10000	4	1	0	4	0
26	129	0	10000	4	1	0	4	0
26	130	0	10000	4	1	0	4	0
25	131	0	10000	4	1	0	4	0
27	132	0	10000	4	1	0	4	0
27	133	0	10000	4	1	0	4	0
27	134	0	10000	4	1	0	4	0
25	135	0	10000	4	1	0	4	0
25	136	0	10000	4	1	0	4	0
26	137	0	10000	4	1	0	4	0
26	138	0	10000	4	1	0	4	0
25	139	0	10000	4	1	0	4	0
26	140	0	10000	4	1	0	4	0
28	141	0	10000	4	1	0	4	0
26	142	0	10000	4	1	0	4	0
26	143	0	10000	4	1	0	4	0
26	144	0	10000	4	1	0	4	0
28	145	0	10000	4	1	0	4	0
28	146	0	10000	4	1	0	4	0
29	147	0	10000	4	1	0	4	0
27	148	0	10000	4	1	0	4	0
26	149	0	10000	4	1	0	4	0
27	150	0	10000	4	1	0	4	0
28	151	0	10000	4	1	0	4	0
28	152	0	10000	4	1	0	4	0
28	153	0	10000	4	1	0	4	0
27	154	0	10000	4	1	0	4	0
26	155	0	10000	4	1	0	4	0
25	156	0	10000	4	1	0	4	0
25	157	0	10000	4	1	0	4	0
24	158	0	10000	4	1	0	4	0
25	159	0	10000	4	1	0	4	0
26	160	0	10000	4	1	0	4	0
26	161	0	10000	4	1	0	4	0
25	162	0	10000	4	1	0	4	0
23	163	0	10000	4	1	0	4	0
23	164	0	10000	4	1	0	4	0
24	165	0	10000	4	1	0	4	0
23	166	0	10000	4	1	0	4	0
23	167	0	10000	4	1	0	4	0
23	168	0	10000	4	1	0	4	0
22	169	0	10000	4	1	0	4	0
21	170	0	10000	4	1	0	4	0
20	171	0	10000	4	1	0	4	0
20	172	0	10000	4	1	0	4	0
20	173	0	10000	4	1	0	4	0
21	174	0	10000	4	1	0	4	0
20	175	0	10000	4	1	0	4	0
19	176	0	10000	4	1	0	4	0
19	177	0	10000	4	1	0	4	0
19	178	0	10000	4	1	0	4	0
19	179	0	10000	4	1	0	4	0
20	180	0	10000	4	1	0	4	0
21	181	0	10000	4	1	0	4	0
20	182	0	10000	4	1	0	4	0
19	183	0	10000	4	1	0	4	0
19	184	0	10000	4	1	0	4	0
20	185	0	10000	4	1	0	4	0
20	186	0	10000	4	1	0	4	0
19	187	0	10000	4	1	0	4	0
19	188	0	10000	4	1	0	4	0
18	189	0	10000	4	1	0	4	0
17	190	0	10000	4	1	0	4	0
18	191	0	10000	4	1	0	4	0
18	192	0	10000	4	1	0	4	0
17	193	0	10000	4	1	0	4	0
17	194	0	10000	4	1	0	4	0
15	195	0	10000	4	1	0	4	0
14	196	0	10000	4	1	0	4	0
14	197	0	10000	4	1	0	4	0
15	198	0	10000	4	1	0	4	0
15	199	0	10000	4	1	0	4	0
17	200	0	10000	4	1	0	4	0
17	201	0	10000	4	1	0	4	0
17	202	0	10000	4	1	0	4	0
19	203	0	10000	4	1	0	4	0
20	204	0	10000	4	1	0	4	0
21	205	0	10000	4	1	0	4	0
21	206	0	10000	4	1	0	4	0
22	207	0	10000	4	1	0	4	0
23	208	0	10000	4	1	0	4	0
24	209	0	10000	4	1	0	4	0
23	210	0	10000	4	1	0	4	0
22	211	0	10000	4	1	0	4	0
24	212	0	10000	4	1	0	4	0
25	213	0	10000	4	1	0	4	0
26	214	0	10000	4	1	0	4	0
25	215	0	10000	4	1	0	4	0
24	216	0	10000	4	1	0	4	0
25	217	0	10000	4	1	0	4	0
25	218	0	10000	4	1	0	4	0
25	219	0	10000	4	1	0	4	0
24	220	0	10000	4	1	0	4	0
24	221	0	10000	4	1	0	4	0
23	222	0	10000	4	1	0	4	0
21	223	0	10000	4	1	0	4	0
21	224	0	10000	4	1	0	4	0
23	225	0	10000	4	1	0	4	0
24	226	0	10000	4	1	0	4	0
23	227	0	10000	4	1	0	4	0
22	228	0	10000	4	1	0	4	0
21	229	0	10000	4	1	0	4	0
21	230	0	10000	4	1	0	4	0
20	231	0	10000	4	1	0	4	0
20	232	0	10000	4	1	0	4	0
20	233	0	10000	4	1	0	4	0
20	234	0	10000	4	1	0	4	0
18	235	0	10000	4	1	0	4	0
17	236	0	10000	4	1	0	4	0
18	237	0	10000	4	1	0	4	0
19	238	0	10000	4	1	0	4	0
20	239	0	10000	4	1	0	4	0
19	240	0	10000	4	1	0	4	0
19	241	0	10000	4	1	0	4	0
19	242	0	10000	4	1	0	4	0
18	243	0	10000	4	1	0	4	0
20	244	0	10000	4	1	0	4	0
23	245	0	10000	4	1	0	4	0
24	246	0	10000	4	1	0	4	0
22	247	0	10000	4	1	0	4	0
21	248	0	10000	4	1	0	4	0
22	249	0	10000	4	1	0	4	0
24	250	0	10000	4	1	0	4	0
24	251	0	10000	4	1	0	4	0
26	252	0	10000	4	1	0	4	0
26	253	0	10000	4	1	0	4	0
27	254	0	10000	4	1	0	4	0
25	255	0	10000	4	1	0	4	0
24	256	0	10000	4	1	0	4	0
24	257	0	10000	4	1	0	4	0
24	258	0	10000	4	1	0	4	0
23	259	0	10000	4	1	0	4	0
24	260	0	10000	4	1	0	4	0
24	261	0	10000	4	1	0	4	0
23	262	0	10000	4	1	0	4	0
22	263	0	10000	4	1	0	4	0
23	264	0	10000	4	1	0	4	0
24	265	0	10000	4	1	0	4	0
25	266	0	10000	4	1	0	4	0
24	267	0	10000	4	1	0	4	0
22	268	0	10000	4	1	0	4	0
21	269	0	10000	4	1	0	4	0
22	270	0	10000	4	1	0	4	0
22	271	0	10000	4	1	0	4	0
22	272	0	10000	4	1	0	4	0
23	273	0	10000	4	1	0	4	0
24	274	0	10000	4	1	0	4	0
21	275	0	10000	4	1	0	4	0
21	276	0	10000	4	1	0	4	0
20	277	0	10000	4	1	0	4	0
20	278	0	10000	4	1	0	4	0
21	279	0	10000	4	1	0	4	0
22	280	0	10000	4	1	0	4	0
23	281	0	10000	4	1	0	4	0
22	282	0	10000	4	1	0	4	0
21	283	0	10000	4	1	0	4	0
20	284	0	10000	4	1	0	4	0
21	285	0	10000	4	1	0	4	0
22	286	0	10000	4	1	0	4	0
21	287	0	10000	4	1	0	4	0
21	288	0	10000	4	1	0	4	0
20	289	0	10000	4	1	0	4	0
20	290	0	10000	4	1	0	4	0
19	291	0	10000	4	1	0	4	0
20	292	0	10000	4	1	0	4	0
21	293	0	10000	4	1	0	4	0
21	294	0	10000	4	1	0	4	0
19	295	0	10000	4	1	0	4	0
19	296	0	10000	4	1	0	4	0
19	297	0	10000	4	1	0	4	0
18	298	0	10000	4	1	0	4	0
18	299	0	10000	4	1	0	4	0
19	300	0	10000	4	1	0	4	0
18	301	0	10000	4	1	0	4	0
17	302	0	10000	4	1	0	4	0
17	303	0	10000	4	1	0	4	0
16	304	0	10000	4	1	0	4	0
20	305	0	10000	4	1	0	4	0
21	306	0	10000	4	1	0	4	0
20	307	0	10000	4	1	0	4	0
19	308	0	10000	4	1	0	4	0
19	309	0	10000	4	1	0	4	0
18	310	0	10000	4	1	0	4	0
19	311	0	10000	4	1	0	4	0
20	312	0	10000	4	1	0	4	0
19	313	0	10000	4	1	0	4	0
20	314	0	10000	4	1	0	4	0
19	315	0	10000	4	1	0	4	0
19	316	0	10000	4	1	0	4	0
19	317	0	10000	4	1	0	4	0
19	318	0	10000	4	1	0	4	0
18	319	0	10000	4	1	0	4	0
18	320	0	10000	4	1	0	4	0
20	321	0	10000	4	1	0	4	0
22	322	0	10000	4	1	0	4	0
22	323	0	10000	4	1	0	4	0
22	324	0	10000	4	1	0	4	0
22	325	0	10000	4	1	0	4	0
23	326	0	10000	4	1	0	4	0
23	327	0	10000	4	1	0	4	0
24	328	0	10000	4	1	0	4	0
24	329	0	10000	4	1	0	4	0
23	330	0	10000	4	1	0	4	0
22	331	0	10000	4	1	0	4	0
22	332	0	10000	4	1	0	4	0
22	333	0	10000	4	1	0	4	0
21	334	0	10000	4	1	0	4	0
19	335	0	10000	4	1	0	4	0
19	336	0	10000	4	1	0	4	0
19	337	0	10000	4	1	0	4	0
18	338	0	10000	4	1	0	4	0
18	339	0	10000	4	1	0	4	0
18	340	0	10000	4	1	0	4	0
18	341	0	10000	4	1	0	4	0
17	342	0	10000	4	1	0	4	0
16	343	0	10000	4	1	0	4	0
16	344	0	10000	4	1	0	4	0
19	345	0	10000	4	1	0	4	0
19	346	0	10000	4	1	0	4	0
19	347	0	10000	4	1	0	4	0
19	348	0	10000	4	1	0	4	0
17	349	0	10000	4	1	0	4	0
17	350	0	10000	4	1	0	4	0
17	351	0	10000	4	1	0	4	0
17	352	0	10000	4	1	0	4	0
17	353	0	10000	4	1	0	4	0
18	354	0	10000	4	1	0	4	0
17	355	0	10000	4	1	0	4	0
16	356	0	10000	4	1	0	4	0
17	357	0	10000	4	1	0	4	0
17	358	0	10000	4	1	0	4	0
17	359	0	10000	4	1	0	4	0
18	360	0	10000	4	1	0	4	0
17	361	0	10000	4	1	0	4	0
17	362	0	10000	4	1	0	4	0
16	363	0	10000	4	1	0	4	0
15	364	0	10000	4	1	0	4	0
16	365	0	10000	4	1	0	4	0
17	366	0	10000	4	1	0	4	0
16	367	0	10000	4	1	0	4	0
17	368	0	10000	4	1	0	4	0
16	369	0	10000	4	1	0	4	0
17	370	0	10000	4	1	0	4	0
16	371	0	10000	4	1	0	4	0
17	372	0	10000	4	1	0	4	0
16	373	0	10000	4	1	0	4	0
17	374	0	10000	4	1	0	4	0
14	375	0	10000	4	1	0	4	0
14	376	0	10000	4	1	0	4	0
15	377	0	10000	4	1	0	4	0
15	378	0	10000	4	1	0	4	0
16	379	0	10000	4	1	0	4	0
16	380	0	10000	4	1	0	4	0
17	381	0	10000	4	1	0	4	0
16	382	0	10000	4	1	0	4	0
16	383	0	10000	4	1	0	4	0
16	384	0	10000	4	1	0	4	0
18	385	0	10000	4	1	0	4	0
19	386	0	10000	4	1	0	4	0
19	387	0	10000	4	1	0	4	0
18	388	0	10000	4	1	0	4	0
18	389	0	10000	4	1	0	4	0
18	390	0	10000	4	1	0	4	0
17	391	0	10000	4	1	0	4	0
18	392	0	10000	4	1	0	4	0
20	393	0	10000	4	1	0	4	0
19	394	0	10000	4	1	0	4	0
18	395	0	10000	4	1	0	4	0
17	396	0	10000	4	1	0	4	0
17	397	0	10000	4	1	0	4	0
17	398	0	10000	4	1	0	4	0
17	399	0	10000	4	1	0	4	0
18	400	0	10000	4	1	0	4	0
19	401	0	10000	4	1	0	4	0
18	402	0	10000	4	1	0	4	0
17	403	0	10000	4	1	0	4	0
16	404	0	10000	4	1	0	4	0
17	405	0	10000	4	1	0	4	0
17	406	0	10000	4	1	0	4	0
17	407	0	10000	4	1	0	4	0
16	408	0	10000	4	1	0	4	0
15	409	0	10000	4	1	0	4	0
15	410	0	10000	4	1	0	4	0
14	411	0	10000	4	1	0	4	0
14	412	0	10000	4	1	0	4	0
15	413	0	10000	4	1	0	4	0
16	414	0	10000	4	1	0	4	0
14	415	0	10000	4	1	0	4	0
14	416	0	10000	4	1	0	4	0
14	417	0	10000	4	1	0	4	0
13	418	0	10000	4	1	0	4	0
14	419	0	10000	4	1	0	4	0
13	420	0	10000	4	1	0	4	0
14	421	0	10000	4	1	0	4	0
15	422	0	10000	4	1	0	4	0
14	423	0	10000	4	1	0	4	0
14	424	0	10000	4	1	0	4	0
16	425	0	10000	4	1	0	4	0
16	426	0	10000	4	1	0	4	0
17	427	0	10000	4	1	0	4	0
17	428	0	10000	4	1	0	4	0
17	429	0	10000	4	1	0	4	0
17	430	0	10000	4	1	0	4	0
17	431	0	10000	4	1	0	4	0
18	432	0	10000	4	1	0	4	0
17	433	0	10000	4	1	0	4	0
17	434	0	10000	4	1	0	4	0
15	435	0	10000	4	1	0	4	0
14	436	0	10000	4	1	0	4	0
15	437	0	10000	4	1	0	4	0
16	438	0	10000	4	1	0	4	0
16	439	0	10000	4	1	0	4	0
15	440	0	10000	4	1	0	4	0
15	441	0	10000	4	1	0	4	0
16	442	0	10000	4	1	0	4	0
16	443	0	10000	4	1	0	4	0
15	444	0	10000	4	1	0	4	0
18	445	0	10000	4	1	0	4	0
18	446	0	10000	4	1	0	4	0
18	447	0	10000	4	1	0	4	0
19	448	0	10000	4	1	0	4	0
19	449	0	10000	4	1	0	4	0
19	450	0	10000	4	1	0	4	0
20	451	0	10000	4	1	0	4	0
23	452	0	10000	4	1	0	4	0
24	453	0	10000	4	1	0	4	0
24	454	0	10000	4	1	0	4	0
22	455	0	10000	4	1	0	4	0
21	456	0	10000	4	1	0	4	0
20	457	0	10000	4	1	0	4	0
20	458	0	10000	4	1	0	4	0
20	459	0	10000	4	1	0	4	0
19	460	0	10000	4	1	0	4	0
19	461	0	10000	4	1	0	4	0
18	462	0	10000	4	1	0	4	0
19	463	0	10000	4	1	0	4	0
19	464	0	10000	4	1	0	4	0
20	465	0	10000	4	1	0	4	0
20	466	0	10000	4	1	0	4	0
20	467	0	10000	4	1	0	4	0
20	468	0	10000	4	1	0	4	0
20	469	0	10000	4	1	0	4	0
20	470	0	10000	4	1	0	4	0
20	471	0	10000	4	1	0	4	0
19	472	0	10000	4	1	0	4	0
20	473	0	10000	4	1	0	4	0
21	474	0	10000	4	1	0	4	0
21	475	0	10000	4	1	0	4	0
23	476	0	10000	4	1	0	4	0
22	477	0	10000	4	1	0	4	0
25	478	0	10000	4	1	0	4	0
26	479	0	10000	4	1	0	4	0
26	480	0	10000	4	1	0	4	0
26	481	0	10000	4	1	0	4	0
25	482	0	10000	4	1	0	4	0
24	483	0	10000	4	1	0	4	0
24	484	0	10000	4	1	0	4	0
25	485	0	10000	4	1	0	4	0
25	486	0	10000	4	1	0	4	0
24	487	0	10000	4	1	0	4	0
23	488	0	10000	4	1	0	4	0
22	489	0	10000	4	1	0	4	0
21	490	0	10000	4	1	0	4	0
20	491	0	10000	4	1	0	4	0
22	492	0	10000	4	1	0	4	0
21	493	0	10000	4	1	0	4	0
22	494	0	10000	4	1	0	4	0
20	495	0	10000	4	1	0	4	0
19	496	0	10000	4	1	0	4	0
19	497	0	10000	4	1	0	4	0
18	498	0	10000	4	1	0	4	0
19	499	0	10000	4	1	0	4	0
18	500	0	10000	4	1	0	4	0
19	501	0	10000	4	1	0	4	0
18	501	0	10000	4	1	0	4	1
18	502	0	10000	4	1	0	4	1
18	504	0	10000	4	1	0	4	1
19	505	0	10000	4	1	0	4	1
19	506	0	10000	4	1	0	4	1
18	507	0	10000	4	1	0	4	1
17	508	0	10000	4	1	0	4	1
17	509	0	10000	4	1	0	4	1
16	510	0	10000	4	1	0	4	1
16	511	0	10000	4	1	0	4	1
17	512	0	10000	4	1	0	4	1
17	513	0	10000	4	1	0	4	1
19	514	0	10000	4	1	0	4	1
18	515	0	10000	4	1	0	4	1
17	516	0	10000	4	1	0	4	1
18	517	0	10000	4	1	0	4	1
18	518	0	10000	4	1	0	4	1
20	519	0	10000	4	1	0	4	1
20	520	0	10000	4	1	0	4	1
20	521	0	10000	4	1	0	4	1
20	522	0	10000	4	1	0	4	1
19	523	0	10000	4	1	0	4	1
19	524	0	10000	4	1	0	4	1
21	525	0	10000	4	1	0	4	1
20	526	0	10000	4	1	0	4	1
20	527	0	10000	4	1	0	4	1
20	528	0	10000	4	1	0	4	1
20	529	0	10000	4	1	0	4	1
19	530	0	10000	4	1	0	4	1
18	531	0	10000	4	1	0	4	1
19	532	0	10000	4	1	0	4	1
19	533	0	10000	4	1	0	4	1
19	534	0	10000	4	1	0	4	1
17	535	0	10000	4	1	0	4	1
17	536	0	10000	4	1	0	4	1
17	537	0	10000	4	1	0	4	1
17	538	0	10000	4	1	0	4	1
18	539	0	10000	4	1	0	4	1
18	540	0	10000	4	1	0	4	1
17	541	0	10000	4	1	0	4	1
17	542	0	10000	4	1	0	4	1
17	543	0	10000	4	1	0	4	1
15	544	0	10000	4	1	0	4	1
16	545	0	10000	4	1	0	4	1
17	546	0	10000	4	1	0	4	1
16	547	0	10000	4	1	0	4	1
15	548	0	10000	4	1	0	4	1
14	549	0	10000	4	1	0	4	1
14	550	0	10000	4	1	0	4	1
14	551	0	10000	4	1	0	4	1
15	552	0	10000	4	1	0	4	0
14	553	0	10000	4	1	0	4	0
16	554	0	10000	4	1	0	4	0
14	555	0	10000	4	1	0	4	0
13	556	0	10000	4	1	0	4	0
14	557	0	10000	4	1	0	4	0
14	558	0	10000	4	1	0	4	0
14	559	0	10000	4	1	0	4	0
15	560	0	10000	4	1	0	4	0
15	561	0	10000	4	1	0	4	0
14	562	0	10000	4	1	0	4	0
14	563	0	10000	4	1	0	4	0
13	564	0	10000	4	1	0	4	0
15	565	0	10000	4	1	0	4	0
15	566	0	10000	4	1	0	4	0
15	567	0	10000	4	1	0	4	0
14	568	0	10000	4	1	0	4	0
15	569	0	10000	4	1	0	4	0
14	570	0	10000	4	1	0	4	0
14	571	0	10000	4	1	0	4	0
14	572	0	10000	4	1	0	4	0
15	573	0	10000	4	1	0	4	0
15	574	0	10000	4	1	0	4	0
14	575	0	10000	4	1	0	4	0
15	576	0	10000	4	1	0	4	0
14	577	0	10000	4	1	0	4	0
15	578	0	10000	4	1	0	4	0
16	579	0	10000	4	1	0	4	0
17	580	0	10000	4	1	0	4	0
17	581	0	10000	4	1	0	4	0
17	582	0	10000	4	1	0	4	0
16	583	0	10000	4	1	0	4	0
15	584	0	10000	4	1	0	4	0
17	585	0	10000	4	1	0	4	0
17	586	0	10000	4	1	0	4	0
17	587	0	10000	4	1	0	4	0
17	588	0	10000	4	1	0	4	0
18	589	0	10000	4	1	0	4	0
21	590	0	10000	4	1	0	4	0
22	591	0	10000	4	1	0	4	0
24	592	0	10000	4	1	0	4	0
28	593	0	10000	4	1	0	4	0
38	594	0	10000	4	1	0	4	0
42	595	0	10000	4	1	0	4	0
43	596	0	10000	4	1	0	4	0
48	597	0	10000	4	1	0	4	0
68	598	0	10000	4	1	0	4	0
109	599	0	10000	4	1	0	4	0
127	600	0	10000	4	1	0	4	0
122	601	0	10000	4	1	0	4	0
127	602	0	10000	4	1	0	4	0
142	603	0	10000	4	1	0	4	0
166	604	0	10000	4	1	0	4	0
188	605	0	10000	4	1	0	4	0
191	606	0	10000	4	1	0	4	0
196	607	0	10000	4	1	0	4	0
190	608	0	10000	4	1	0	4	0
190	609	0	10000	4	1	0	4	0
189	610	0	10000	4	1	0	4	0
187	611	0	10000	4	1	0	4	0
187	612	0	10000	4	1	0	4	0
206	613	0	10000	4	1	0	4	0
220	614	0	10000	4	1	0	4	0
222	615	0	10000	4	1	0	4	0
217	616	0	10000	4	1	0	4	0
223	617	0	10000	4	1	0	4	0
229	618	0	10000	4	1	0	4	0
231	619	0	10000	4	1	0	4	0
230	620	0	10000	4	1	0	4	0
223	621	0	10000	4	1	0	4	0
213	622	0	10000	4	1	0	4	0
203	623	0	10000	4	1	0	4	0
197	624	0	10000	4	1	0	4	0
193	625	0	10000	4	1	0	4	0
189	626	0	10000	4	1	0	4	0
184	627	0	10000	4	1	0	4	0
178	628	0	10000	4	1	0	4	0
173	629	0	10000	4	1	0	4	0
167	630	0	10000	4	1	0	4	0
160	631	0	10000	4	1	0	4	0
153	632	0	10000	4	1	0	4	0
148	633	0	10000	4	1	0	4	0
140	634	0	10000	4	1	0	4	0
133	635	0	10000	4	1	0	4	0
128	636	0	10000	4	1	0	4	0
122	637	0	10000	4	1	0	4	0
117	638	0	10000	4	1	0	4	0
113	639	0	10000	4	1	0	4	0
107	640	0	10000	4	1	0	4	0
104	641	0	10000	4	1	0	4	0
101	642	0	10000	4	1	0	4	0
97	643	0	10000	4	1	0	4	0
95	644	0	10000	4	1	0	4	0
94	645	0	10000	4	1	0	4	0
92	646	0	10000	4	1	0	4	0
89	647	0	10000	4	1	0	4	0
87	648	0	10000	4	1	0	4	0
83	649	0	10000	4	1	0	4	0
82	650	0	10000	4	1	0	4	0
83	651	0	10000	4	1	0	4	0
82	652	0	10000	4	1	0	4	0
83	653	0	10000	4	1	0	4	0
82	654	0	10000	4	1	0	4	0
79	655	0	10000	4	1	0	4	0
77	656	0	10000	4	1	0	4	0
77	657	0	10000	4	1	0	4	0
76	658	0	10000	4	1	0	4	0
76	659	0	10000	4	1	0	4	0
76	660	0	10000	4	1	0	4	0
74	661	0	10000	4	1	0	4	0
72	662	0	10000	4	1	0	4	0
70	663	0	10000	4	1	0	4	0
66	664	0	10000	4	1	0	4	0
64	665	0	10000	4	1	0	4	0
63	666	0	10000	4	1	0	4	0
59	667	0	10000	4	1	0	4	0
57	668	0	10000	4	1	0	4	0
56	669	0	10000	4	1	0	4	0
54	670	0	10000	4	1	0	4	0
52	671	0	10000	4	1	0	4	0
51	672	0	10000	4	1	0	4	0
49	673	0	10000	4	1	0	4	0
48	674	0	10000	4	1	0	4	0
46	675	0	10000	4	1	0	4	0
44	676	0	10000	4	1	0	4	0
45	677	0	10000	4	1	0	4	0
45	678	0	10000	4	1	0	4	0
44	679	0	10000	4	1	0	4	0
42	680	0	10000	4	1	0	4	0
42	681	0	10000	4	1	0	4	0
42	682	0	10000	4	1	0	4	0
43	683	0	10000	4	1	0	4	0
42	684	0	10000	4	1	0	4	0
42	685	0	10000	4	1	0	4	0
43	686	0	10000	4	1	0	4	0
42	687	0	10000	4	1	0	4	0
40	688	0	10000	4	1	0	4	0
38	689	0	10000	4	1	0	4	0
39	690	0	10000	4	1	0	4	0
38	691	0	10000	4	1	0	4	0
38	692	0	10000	4	1	0	4	0
37	693	0	10000	4	1	0	4	0
36	694	0	10000	4	1	0	4	0
33	695	0	10000	4	1	0	4	0
33	696	0	10000	4	1	0	4	0
34	697	0	10000	4	1	0	4	0
34	698	0	10000	4	1	0	4	0
34	699	0	10000	4	1	0	4	0
33	700	0	10000	4	1	0	4	0
32	701	0	10000	4	1	0	4	0
31	702	0	10000	4	1	0	4	0
29	703	0	10000	4	1	0	4	0
28	704	0	10000	4	1	0	4	0
30	705	0	10000	4	1	0	4	0
31	706	0	10000	4	1	0	4	0
32	707	0	10000	4	1	0	4	0
33	708	0	10000	4	1	0	4	0
33	709	0	10000	4	1	0	4	0
33	710	0	10000	4	1	0	4	0
32	711	0	10000	4	1	0	4	0
32	712	0	10000	4	1	0	4	0
33	713	0	10000	4	1	0	4	0
32	714	0	10000	4	1	0	4	0
31	715	0	10000	4	1	0	4	0
33	716	0	10000	4	1	0	4	0
34	717	0	10000	4	1	0	4	0
32	718	0	10000	4	1	0	4	0
32	719	0	10000	4	1	0	4	0
31	720	0	10000	4	1	0	4	0
29	721	0	10000	4	1	0	4	0
28	722	0	10000	4	1	0	4	0
27	723	0	10000	4	1	0	4	0
27	724	0	10000	4	1	0	4	0
31	725	0	10000	4	1	0	4	0
32	726	0	10000	4	1	0	4	0
31	727	0	10000	4	1	0	4	0
29	728	0	10000	4	1	0	4	0
30	729	0	10000	4	1	0	4	0
29	730	0	10000	4	1	0	4	0
31	731	0	10000	4	1	0	4	0
32	732	0	10000	4	1	0	4	0
31	733	0	10000	4	1	0	4	0
31	734	0	10000	4	1	0	4	0
31	735	0	10000	4	1	0	4	0
32	736	0	10000	4	1	0	4	0
32	737	0	10000	4	1	0	4	0
32	738	0	10000	4	1	0	4	0
32	739	0	10000	4	1	0	4	0
32	740	0	10000	4	1	0	4	0
32	741	0	10000	4	1	0	4	0
32	742	0	10000	4	1	0	4	0
30	743	0	10000	4	1	0	4	0
30	744	0	10000	4	1	0	4	0
30	745	0	10000	4	1	0	4	0
31	746	0	10000	4	1	0	4	0
31	747	0	10000	4	1	0	4	0
30	748	0	10000	4	1	0	4	0
29	749	0	10000	4	1	0	4	0
29	750	0	10000	4	1	0	4	0
28	751	0	10000	4	1	0	4	0
29	752	0	10000	4	1	0	4	0
31	753	0	10000	4	1	0	4	0
30	754	0	10000	4	1	0	4	0
27	755	0	10000	4	1	0	4	0
28	756	0	10000	4	1	0	4	0
27	757	0	10000	4	1	0	4	0
28	758	0	10000	4	1	0	4	0
28	759	0	10000	4	1	0	4	0
29	760	0	10000	4	1	0	4	0
29	761	0	10000	4	1	0	4	0
29	762	0	10000	4	1	0	4	0
27	763	0	10000	4	1	0	4	0
27	764	0	10000	4	1	0	4	0
30	765	0	10000	4	1	0	4	0
31	766	0	10000	4	1	0	4	0
31	767	0	10000	4	1	0	4	0
31	768	0	10000	4	1	0	4	0
29	769	0	10000	4	1	0	4	0
31	770	0	10000	4	1	0	4	0
33	771	0	10000	4	1	0	4	0
32	772	0	10000	4	1	0	4	0
32	773	0	10000	4	1	0	4	0
33	774	0	10000	4	1	0	4	0
30	775	0	10000	4	1	0	4	0
29	776	0	10000	4	1	0	4	0
29	777	0	10000	4	1	0	4	0
27	778	0	10000	4	1	0	4	0
27	779	0	10000	4	1	0	4	0
28	780	0	10000	4	1	0	4	0
27	781	0	10000	4	1	0	4	0
27	782	0	10000	4	1	0	4	0
27	783	0	10000	4	1	0	4	0
25	784	0	10000	4	1	0	4	0
27	785	0	10000	4	1	0	4	0
29	786	0	10000	4	1	0	4	0
28	787	0	10000	4	1	0	4	0
27	788	0	10000	4	1	0	4	0
27	789	0	10000	4	1	0	4	0
26	790	0	10000	4	1	0	4	0
24	791	0	10000	4	1	0	4	0
26	792	0	10000	4	1	0	4	0
25	793	0	10000	4	1	0	4	0
25	794	0	10000	4	1	0	4	0
23	795	0	10000	4	1	0	4	0
22	796	0	10000	4	1	0	4	0
23	797	0	10000	4	1	0	4	0
25	798	0	10000	4	1	0	4	0
23	799	0	10000	4	1	0	4	0
23	800	0	10000	4	1	0	4	0
24	801	0	10000	4	1	0	4	0
22	802	0	10000	4	1	0	4	0
21	803	0	10000	4	1	0	4	0
20	804	0	10000	4	1	0	4	0
22	805	0	10000	4	1	0	4	0
23	806	0	10000	4	1	0	4	0
23	807	0	10000	4	1	0	4	0
22	808	0	10000	4	1	0	4	0
22	809	0	10000	4	1	0	4	0
24	810	0	10000	4	1	0	4	0
23	811	0	10000	4	1	0	4	0
23	812	0	10000	4	1	0	4	0
23	813	0	10000	4	1	0	4	0
22	814	0	10000	4	1	0	4	0
21	815	0	10000	4	1	0	4	0
21	816	0	10000	4	1	0	4	0
20	817	0	10000	4	1	0	4	0
21	818	0	10000	4	1	0	4	0
22	819	0	10000	4	1	0	4	0
20	820	0	10000	4	1	0	4	0
20	821	0	10000	4	1	0	4	0
20	822	0	10000	4	1	0	4	0
19	823	0	10000	4	1	0	4	0
19	824	0	10000	4	1	0	4	0
21	825	0	10000	4	1	0	4	0
20	826	0	10000	4	1	0	4	0
19	827	0	10000	4	1	0	4	0
19	828	0	10000	4	1	0	4	0
17	829	0	10000	4	1	0	4	0
17	830	0	10000	4	1	0	4	0
18	831	0	10000	4	1	0	4	0
17	832	0	10000	4	1	0	4	0
17	833	0	10000	4	1	0	4	0
18	834	0	10000	4	1	0	4	0
15	835	0	10000	4	1	0	4	0
15	836	0	10000	4	1	0	4	0
17	837	0	10000	4	1	0	4	0
16	838	0	10000	4	1	0	4	0
16	839	0	10000	4	1	0	4	0
17	840	0	10000	4	1	0	4	0
16	841	0	10000	4	1	0	4	0
15	842	0	10000	4	1	0	4	0
16	843	0	10000	4	1	0	4	0
15	844	0	10000	4	1	0	4	0
17	845	0	10000	4	1	0	4	0
17	846	0	10000	4	1	0	4	0
17	847	0	10000	4	1	0	4	0
17	848	0	10000	4	1	0	4	0
18	849	0	10000	4	1	0	4	0
17	850	0	10000	4	1	0	4	0
16	851	0	10000	4	1	0	4	0
18	852	0	10000	4	1	0	4	0
18	853	0	10000	4	1	0	4	0
18	854	0	10000	4	1	0	4	0
16	855	0	10000	4	1	0	4	0
15	856	0	10000	4	1	0	4	0
16	857	0	10000	4	1	0	4	0
17	858	0	10000	4	1	0	4	0
16	859	0	10000	4	1	0	4	0
17	860	0	10000	4	1	0	4	0
19	861	0	10000	4	1	0	4	0
17	862	0	10000	4	1	0	4	0
17	863	0	10000	4	1	0	4	0
20	864	0	10000	4	1	0	4	0
22	865	0	10000	4	1	0	4	0
22	866	0	10000	4	1	0	4	0
23	867	0	10000	4	1	0	4	0
22	868	0	10000	4	1	0	4	0
21	869	0	10000	4	1	0	4	0
21	870	0	10000	4	1	0	4	0
20	871	0	10000	4	1	0	4	0
19	872	0	10000	4	1	0	4	0
20	873	0	10000	4	1	0	4	0
19	874	0	10000	4	1	0	4	0
17	875	0	10000	4	1	0	4	0
17	876	0	10000	4	1	0	4	0
16	877	0	10000	4	1	0	4	0
17	878	0	10000	4	1	0	4	0
17	879	0	10000	4	1	0	4	0
16	880	0	10000	4	1	0	4	0
16	881	0	10000	4	1	0	4	0
16	882	0	10000	4	1	0	4	0
14	883	0	10000	4	1	0	4	0
13	884	0	10000	4	1	0	4	0
16	885	0	10000	4	1	0	4	0
15	886	0	10000	4	1	0	4	0
14	887	0	10000	4	1	0	4	0
15	888	0	10000	4	1	0	4	0
14	889	0	10000	4	1	0	4	0
17	890	0	10000	4	1	0	4	0
18	891	0	10000	4	1	0	4	0
17	892	0	10000	4	1	0	4	0
17	893	0	10000	4	1	0	4	0
18	894	0	10000	4	1	0	4	0
15	895	0	10000	4	1	0	4	0
15	896	0	10000	4	1	0	4	0
18	897	0	10000	4	1	0	4	0
19	898	0	10000	4	1	0	4	0
18	899	0	10000	4	1	0	4	0
19	900	0	10000	4	1	0	4	0
20	901	0	10000	4	1	0	4	0
19	902	0	10000	4	1	0	4	0
19	903	0	10000	4	1	0	4	0
18	904	0	10000	4	1	0	4	0
20	905	0	10000	4	1	0	4	0
21	906	0	10000	4	1	0	4	0
19	907	0	10000	4	1	0	4	0
19	908	0	10000	4	1	0	4	0
19	909	0	10000	4	1	0	4	0
18	910	0	10000	4	1	0	4	0
17	911	0	10000	4	1	0	4	0
18	912	0	10000	4	1	0	4	0
19	913	0	10000	4	1	0	4	0
19	914	0	10000	4	1	0	4	0
17	915	0	10000	4	1	0	4	0
17	916	0	10000	4	1	0	4	0
17	917	0	10000	4	1	0	4	0
18	918	0	10000	4	1	0	4	0
16	919	0	10000	4	1	0	4	0
16	920	0	10000	4	1	0	4	0
18	921	0	10000	4	1	0	4	0
18	922	0	10000	4	1	0	4	0
19	923	0	10000	4	1	0	4	0
20	924	0	10000	4	1	0	4	0
20	925	0	10000	4	1	0	4	0
21	926	0	10000	4	1	0	4	0
21	927	0	10000	4	1	0	4	0
20	928	0	10000	4	1	0	4	0
19	929	0	10000	4	1	0	4	0
19	930	0	10000	4	1	0	4	0
18	931	0	10000	4	1	0	4	0
18	932	0	10000	4	1	0	4	0
19	933	0	10000	4	1	0	4	0
18	934	0	10000	4	1	0	4	0
16	935	0	10000	4	1	0	4	0
17	936	0	10000	4	1	0	4	0
18	937	0	10000	4	1	0	4	0
18	938	0	10000	4	1	0	4	0
18	939	0	10000	4	1	0	4	0
17	940	0	10000	4	1	0	4	0
17	941	0	10000	4	1	0	4	0
19	942	0	10000	4	1	0	4	0
18	943	0	10000	4	1	0	4	0
18	944	0	10000	4	1	0	4	0
20	945	0	10000	4	1	0	4	0
19	946	0	10000	4	1	0	4	0
18	947	0	10000	4	1	0	4	0
18	948	0	10000	4	1	0	4	0
18	949	0	10000	4	1	0	4	0
17	950	0	10000	4	1	0	4	0
16	951	0	10000	4	1	0	4	0
16	952	0	10000	4	1	0	4	0
17	953	0	10000	4	1	0	4	0
19	954	0	10000	4	1	0	4	0
16	955	0	10000	4	1	0	4	0
16	956	0	10000	4	1	0	4	0
18	957	0	10000	4	1	0	4	0
17	958	0	10000	4	1	0	4	0
17	959	0	10000	4	1	0	4	0
17	960	0	10000	4	1	0	4	0
17	961	0	10000	4	1	0	4	0
16	962	0	10000	4	1	0	4	0
17	963	0	10000	4	1	0	4	0
16	964	0	10000	4	1	0	4	0
20	965	0	10000	4	1	0	4	0
22	966	0	10000	4	1	0	4	0
21	967	0	10000	4	1	0	4	0
20	968	0	10000	4	1	0	4	0
20	969	0	10000	4	1	0	4	0
21	970	0	10000	4	1	0	4	0
20	971	0	10000	4	1	0	4	0
22	972	0	10000	4	1	0	4	0
22	973	0	10000	4	1	0	4	0
23	974	0	10000	4	1	0	4	0
23	975	0	10000	4	1	0	4	0
22	976	0	10000	4	1	0	4	0
21	977	0	10000	4	1	0	4	0
22	978	0	10000	4	1	0	4	0
22	979	0	10000	4	1	0	4	0
24	980	0	10000	4	1	0	4	0
24	981	0	10000	4	1	0	4	0
23	982	0	10000	4	1	0	4	0
22	983	0	10000	4	1	0	4	0
23	984	0	10000	4	1	0	4	0
26	985	0	10000	4	1	0	4	0
26	986	0	10000	4	1	0	4	0
26	987	0	10000	4	1	0	4	0
25	988	0	10000	4	1	0	4	0
25	989	0	10000	4	1	0	4	0
26	990	0	10000	4	1	0	4	0
24	991	0	10000	4	1	0	4	0
24	992	0	10000	4	1	0	4	0
25	993	0	10000	4	1	0	4	0
26	994	0	10000	4	1	0	4	0
24	995	0	10000	4	1	0	4	0
24	996	0	10000	4	1	0	4	0
23	997	0	10000	4	1	0	4	0
23	998	0	10000	4	1	0	4	0
24	999	0	10000	4	1	0	4	0
23	1000	0	10000	4	1	0	4	0
25	1001	0	10000	4	1	0	4	0
67	2	7	10000	5	1	0	5	0
65	3	7	10000	5	1	0	5	0
62	4	7	10000	5	1	0	5	0
60	5	7	10000	5	1	0	5	0
58	6	7	10000	5	1	0	5	0
56	7	7	10000	5	1	0	5	0
52	8	7	10000	5	1	0	5	0
51	9	7	10000	5	1	0	5	0
50	10	7	10000	5	1	0	5	0
48	11	7	10000	5	1	0	5	0
46	12	7	10000	5	1	0	5	0
45	13	7	10000	5	1	0	5	0
45	14	7	10000	5	1	0	5	0
45	15	7	10000	5	1	0	5	0
46	16	7	10000	5	1	0	5	0
48	17	7	10000	5	1	0	5	0
53	18	7	10000	5	1	0	5	0
55	19	7	10000	5	1	0	5	0
56	20	7	10000	5	1	0	5	0
56	21	7	10000	5	1	0	5	0
54	22	7	10000	5	1	0	5	0
52	23	7	10000	5	1	0	5	0
50	24	7	10000	5	1	0	5	0
51	25	7	10000	5	1	0	5	0
52	26	7	10000	5	1	0	5	0
54	27	7	10000	5	1	0	5	0
53	28	7	10000	5	1	0	5	0
52	29	7	10000	5	1	0	5	0
52	30	7	10000	5	1	0	5	0
51	31	7	10000	5	1	0	5	0
50	32	7	10000	5	1	0	5	0
48	33	7	10000	5	1	0	5	0
49	34	7	10000	5	1	0	5	0
49	35	7	10000	5	1	0	5	0
49	36	7	10000	5	1	0	5	0
49	37	7	10000	5	1	0	5	0
50	38	7	10000	5	1	0	5	0
50	39	7	10000	5	1	0	5	0
52	40	7	10000	5	1	0	5	0
53	41	7	10000	5	1	0	5	0
52	42	7	10000	5	1	0	5	0
50	43	7	10000	5	1	0	5	0
47	44	7	10000	5	1	0	5	0
46	45	7	10000	5	1	0	5	0
46	46	7	10000	5	1	0	5	0
47	47	7	10000	5	1	0	5	0
44	48	7	10000	5	1	0	5	0
45	49	7	10000	5	1	0	5	0
46	50	7	10000	5	1	0	5	0
48	51	7	10000	5	1	0	5	0
47	52	7	10000	5	1	0	5	0
45	53	7	10000	5	1	0	5	0
44	54	7	10000	5	1	0	5	0
42	55	7	10000	5	1	0	5	0
40	56	7	10000	5	1	0	5	0
38	57	7	10000	5	1	0	5	0
40	58	7	10000	5	1	0	5	0
40	59	7	10000	5	1	0	5	0
39	60	7	10000	5	1	0	5	0
39	61	7	10000	5	1	0	5	0
38	62	7	10000	5	1	0	5	0
37	63	7	10000	5	1	0	5	0
37	64	7	10000	5	1	0	5	0
37	65	7	10000	5	1	0	5	0
38	66	7	10000	5	1	0	5	0
38	67	7	10000	5	1	0	5	0
35	68	7	10000	5	1	0	5	0
35	69	7	10000	5	1	0	5	0
36	70	7	10000	5	1	0	5	0
36	71	7	10000	5	1	0	5	0
36	72	7	10000	5	1	0	5	0
37	73	7	10000	5	1	0	5	0
36	74	7	10000	5	1	0	5	0
35	75	7	10000	5	1	0	5	0
35	76	7	10000	5	1	0	5	0
34	77	7	10000	5	1	0	5	0
34	78	7	10000	5	1	0	5	0
33	79	7	10000	5	1	0	5	0
32	80	7	10000	5	1	0	5	0
31	81	7	10000	5	1	0	5	0
30	82	7	10000	5	1	0	5	0
29	83	7	10000	5	1	0	5	0
29	84	7	10000	5	1	0	5	0
29	85	7	10000	5	1	0	5	0
29	86	7	10000	5	1	0	5	0
30	87	7	10000	5	1	0	5	0
27	88	7	10000	5	1	0	5	0
27	89	7	10000	5	1	0	5	0
26	90	7	10000	5	1	0	5	0
26	91	7	10000	5	1	0	5	0
25	92	7	10000	5	1	0	5	0
24	93	7	10000	5	1	0	5	0
24	94	7	10000	5	1	0	5	0
22	95	7	10000	5	1	0	5	0
22	96	7	10000	5	1	0	5	0
21	97	7	10000	5	1	0	5	0
24	98	7	10000	5	1	0	5	0
24	99	7	10000	5	1	0	5	0
23	100	7	10000	5	1	0	5	0
21	101	7	10000	5	1	0	5	0
21	102	7	10000	5	1	0	5	0
21	103	7	10000	5	1	0	5	0
20	104	7	10000	5	1	0	5	0
21	105	7	10000	5	1	0	5	0
21	106	7	10000	5	1	0	5	0
21	107	7	10000	5	1	0	5	0
18	108	7	10000	5	1	0	5	0
19	109	7	10000	5	1	0	5	0
19	110	7	10000	5	1	0	5	0
19	111	7	10000	5	1	0	5	0
19	112	7	10000	5	1	0	5	0
18	113	7	10000	5	1	0	5	0
18	114	7	10000	5	1	0	5	0
17	115	7	10000	5	1	0	5	0
16	116	7	10000	5	1	0	5	0
16	117	7	10000	5	1	0	5	0
17	118	7	10000	5	1	0	5	0
17	119	7	10000	5	1	0	5	0
16	120	7	10000	5	1	0	5	0
15	121	7	10000	5	1	0	5	0
15	122	7	10000	5	1	0	5	0
15	123	7	10000	5	1	0	5	0
16	124	7	10000	5	1	0	5	0
17	125	7	10000	5	1	0	5	0
16	126	7	10000	5	1	0	5	0
17	127	7	10000	5	1	0	5	0
14	128	7	10000	5	1	0	5	0
14	129	7	10000	5	1	0	5	0
14	130	7	10000	5	1	0	5	0
14	131	7	10000	5	1	0	5	0
14	132	7	10000	5	1	0	5	0
14	133	7	10000	5	1	0	5	0
14	134	7	10000	5	1	0	5	0
14	135	7	10000	5	1	0	5	0
14	136	7	10000	5	1	0	5	0
13	137	7	10000	5	1	0	5	0
15	138	7	10000	5	1	0	5	0
14	139	7	10000	5	1	0	5	0
14	140	7	10000	5	1	0	5	0
14	141	7	10000	5	1	0	5	0
14	142	7	10000	5	1	0	5	0
14	143	7	10000	5	1	0	5	0
13	144	7	10000	5	1	0	5	0
13	145	7	10000	5	1	0	5	0
13	146	7	10000	5	1	0	5	0
12	147	7	10000	5	1	0	5	0
11	148	7	10000	5	1	0	5	0
11	149	7	10000	5	1	0	5	0
12	150	7	10000	5	1	0	5	0
12	151	7	10000	5	1	0	5	0
13	152	7	10000	5	1	0	5	0
13	153	7	10000	5	1	0	5	0
13	154	7	10000	5	1	0	5	0
12	155	7	10000	5	1	0	5	0
11	156	7	10000	5	1	0	5	0
11	157	7	10000	5	1	0	5	0
13	158	7	10000	5	1	0	5	0
13	159	7	10000	5	1	0	5	0
13	160	7	10000	5	1	0	5	0
12	161	7	10000	5	1	0	5	0
12	162	7	10000	5	1	0	5	0
13	163	7	10000	5	1	0	5	0
13	164	7	10000	5	1	0	5	0
13	165	7	10000	5	1	0	5	0
13	166	7	10000	5	1	0	5	0
12	167	7	10000	5	1	0	5	0
11	168	7	10000	5	1	0	5	0
12	169	7	10000	5	1	0	5	0
12	170	7	10000	5	1	0	5	0
13	171	7	10000	5	1	0	5	0
14	172	7	10000	5	1	0	5	0
13	173	7	10000	5	1	0	5	0
13	174	7	10000	5	1	0	5	0
12	175	7	10000	5	1	0	5	0
12	176	7	10000	5	1	0	5	0
12	177	7	10000	5	1	0	5	0
14	178	7	10000	5	1	0	5	0
13	179	7	10000	5	1	0	5	0
13	180	7	10000	5	1	0	5	0
14	181	7	10000	5	1	0	5	0
14	182	7	10000	5	1	0	5	0
13	183	7	10000	5	1	0	5	0
13	184	7	10000	5	1	0	5	0
13	185	7	10000	5	1	0	5	0
13	186	7	10000	5	1	0	5	0
14	187	7	10000	5	1	0	5	0
12	188	7	10000	5	1	0	5	0
12	189	7	10000	5	1	0	5	0
13	190	7	10000	5	1	0	5	0
13	191	7	10000	5	1	0	5	0
13	192	7	10000	5	1	0	5	0
13	193	7	10000	5	1	0	5	0
13	194	7	10000	5	1	0	5	0
12	195	7	10000	5	1	0	5	0
12	196	7	10000	5	1	0	5	0
11	197	7	10000	5	1	0	5	0
13	198	7	10000	5	1	0	5	0
13	199	7	10000	5	1	0	5	0
14	200	7	10000	5	1	0	5	0
15	201	7	10000	5	1	0	5	0
16	202	7	10000	5	1	0	5	0
15	203	7	10000	5	1	0	5	0
14	204	7	10000	5	1	0	5	0
14	205	7	10000	5	1	0	5	0
14	206	7	10000	5	1	0	5	0
14	207	7	10000	5	1	0	5	0
12	208	7	10000	5	1	0	5	0
12	209	7	10000	5	1	0	5	0
12	210	7	10000	5	1	0	5	0
12	211	7	10000	5	1	0	5	0
13	212	7	10000	5	1	0	5	0
12	213	7	10000	5	1	0	5	0
14	214	7	10000	5	1	0	5	0
12	215	7	10000	5	1	0	5	0
12	216	7	10000	5	1	0	5	0
12	217	7	10000	5	1	0	5	0
13	218	7	10000	5	1	0	5	0
13	219	7	10000	5	1	0	5	0
13	220	7	10000	5	1	0	5	0
13	221	7	10000	5	1	0	5	0
13	222	7	10000	5	1	0	5	0
12	223	7	10000	5	1	0	5	0
12	224	7	10000	5	1	0	5	0
13	225	7	10000	5	1	0	5	0
15	226	7	10000	5	1	0	5	0
14	227	7	10000	5	1	0	5	0
13	228	7	10000	5	1	0	5	0
13	229	7	10000	5	1	0	5	0
12	230	7	10000	5	1	0	5	0
13	231	7	10000	5	1	0	5	0
13	232	7	10000	5	1	0	5	0
14	233	7	10000	5	1	0	5	0
13	234	7	10000	5	1	0	5	0
12	235	7	10000	5	1	0	5	0
12	236	7	10000	5	1	0	5	0
11	237	7	10000	5	1	0	5	0
14	238	7	10000	5	1	0	5	0
14	239	7	10000	5	1	0	5	0
13	240	7	10000	5	1	0	5	0
12	241	7	10000	5	1	0	5	0
13	242	7	10000	5	1	0	5	0
13	243	7	10000	5	1	0	5	0
13	244	7	10000	5	1	0	5	0
13	245	7	10000	5	1	0	5	0
14	246	7	10000	5	1	0	5	0
15	247	7	10000	5	1	0	5	0
12	248	7	10000	5	1	0	5	0
14	249	7	10000	5	1	0	5	0
15	250	7	10000	5	1	0	5	0
15	251	7	10000	5	1	0	5	0
16	252	7	10000	5	1	0	5	0
17	253	7	10000	5	1	0	5	0
16	254	7	10000	5	1	0	5	0
15	255	7	10000	5	1	0	5	0
16	256	7	10000	5	1	0	5	0
15	257	7	10000	5	1	0	5	0
17	258	7	10000	5	1	0	5	0
16	259	7	10000	5	1	0	5	0
16	260	7	10000	5	1	0	5	0
17	261	7	10000	5	1	0	5	0
18	262	7	10000	5	1	0	5	0
18	263	7	10000	5	1	0	5	0
18	264	7	10000	5	1	0	5	0
18	265	7	10000	5	1	0	5	0
18	266	7	10000	5	1	0	5	0
19	267	7	10000	5	1	0	5	0
19	268	7	10000	5	1	0	5	0
20	269	7	10000	5	1	0	5	0
20	270	7	10000	5	1	0	5	0
20	271	7	10000	5	1	0	5	0
20	272	7	10000	5	1	0	5	0
20	273	7	10000	5	1	0	5	0
20	274	7	10000	5	1	0	5	0
19	275	7	10000	5	1	0	5	0
18	276	7	10000	5	1	0	5	0
17	277	7	10000	5	1	0	5	0
19	278	7	10000	5	1	0	5	0
19	279	7	10000	5	1	0	5	0
20	280	7	10000	5	1	0	5	0
20	281	7	10000	5	1	0	5	0
19	282	7	10000	5	1	0	5	0
19	283	7	10000	5	1	0	5	0
17	284	7	10000	5	1	0	5	0
18	285	7	10000	5	1	0	5	0
18	286	7	10000	5	1	0	5	0
19	287	7	10000	5	1	0	5	0
17	288	7	10000	5	1	0	5	0
16	289	7	10000	5	1	0	5	0
16	290	7	10000	5	1	0	5	0
16	291	7	10000	5	1	0	5	0
17	292	7	10000	5	1	0	5	0
18	293	7	10000	5	1	0	5	0
20	294	7	10000	5	1	0	5	0
20	295	7	10000	5	1	0	5	0
19	296	7	10000	5	1	0	5	0
20	297	7	10000	5	1	0	5	0
23	298	7	10000	5	1	0	5	0
23	299	7	10000	5	1	0	5	0
22	300	7	10000	5	1	0	5	0
22	301	7	10000	5	1	0	5	0
21	302	7	10000	5	1	0	5	0
20	303	7	10000	5	1	0	5	0
20	304	7	10000	5	1	0	5	0
20	305	7	10000	5	1	0	5	0
20	306	7	10000	5	1	0	5	0
20	307	7	10000	5	1	0	5	0
18	308	7	10000	5	1	0	5	0
19	309	7	10000	5	1	0	5	0
20	310	7	10000	5	1	0	5	0
19	311	7	10000	5	1	0	5	0
19	312	7	10000	5	1	0	5	0
19	313	7	10000	5	1	0	5	0
20	314	7	10000	5	1	0	5	0
19	315	7	10000	5	1	0	5	0
19	316	7	10000	5	1	0	5	0
19	317	7	10000	5	1	0	5	0
20	318	7	10000	5	1	0	5	0
20	319	7	10000	5	1	0	5	0
20	320	7	10000	5	1	0	5	0
19	321	7	10000	5	1	0	5	0
18	322	7	10000	5	1	0	5	0
18	323	7	10000	5	1	0	5	0
17	324	7	10000	5	1	0	5	0
18	325	7	10000	5	1	0	5	0
18	326	7	10000	5	1	0	5	0
19	327	7	10000	5	1	0	5	0
17	328	7	10000	5	1	0	5	0
18	329	7	10000	5	1	0	5	0
19	330	7	10000	5	1	0	5	0
19	331	7	10000	5	1	0	5	0
19	332	7	10000	5	1	0	5	0
20	333	7	10000	5	1	0	5	0
20	334	7	10000	5	1	0	5	0
19	335	7	10000	5	1	0	5	0
18	336	7	10000	5	1	0	5	0
17	337	7	10000	5	1	0	5	0
19	338	7	10000	5	1	0	5	0
20	339	7	10000	5	1	0	5	0
20	340	7	10000	5	1	0	5	0
19	341	7	10000	5	1	0	5	0
18	342	7	10000	5	1	0	5	0
18	343	7	10000	5	1	0	5	0
18	344	7	10000	5	1	0	5	0
19	345	7	10000	5	1	0	5	0
19	346	7	10000	5	1	0	5	0
18	347	7	10000	5	1	0	5	0
17	348	7	10000	5	1	0	5	0
19	349	7	10000	5	1	0	5	0
19	350	7	10000	5	1	0	5	0
20	351	7	10000	5	1	0	5	0
19	352	7	10000	5	1	0	5	0
18	353	7	10000	5	1	0	5	0
18	354	7	10000	5	1	0	5	0
17	355	7	10000	5	1	0	5	0
16	356	7	10000	5	1	0	5	0
17	357	7	10000	5	1	0	5	0
21	358	7	10000	5	1	0	5	0
21	359	7	10000	5	1	0	5	0
20	360	7	10000	5	1	0	5	0
20	361	7	10000	5	1	0	5	0
19	362	7	10000	5	1	0	5	0
19	363	7	10000	5	1	0	5	0
19	364	7	10000	5	1	0	5	0
19	365	7	10000	5	1	0	5	0
19	366	7	10000	5	1	0	5	0
20	367	7	10000	5	1	0	5	0
17	368	7	10000	5	1	0	5	0
17	369	7	10000	5	1	0	5	0
17	370	7	10000	5	1	0	5	0
17	371	7	10000	5	1	0	5	0
18	372	7	10000	5	1	0	5	0
19	373	7	10000	5	1	0	5	0
20	374	7	10000	5	1	0	5	0
19	375	7	10000	5	1	0	5	0
19	376	7	10000	5	1	0	5	0
18	377	7	10000	5	1	0	5	0
20	378	7	10000	5	1	0	5	0
20	379	7	10000	5	1	0	5	0
20	380	7	10000	5	1	0	5	0
19	381	7	10000	5	1	0	5	0
19	382	7	10000	5	1	0	5	0
19	383	7	10000	5	1	0	5	0
19	384	7	10000	5	1	0	5	0
20	385	7	10000	5	1	0	5	0
21	386	7	10000	5	1	0	5	0
22	387	7	10000	5	1	0	5	0
20	388	7	10000	5	1	0	5	0
20	389	7	10000	5	1	0	5	0
22	390	7	10000	5	1	0	5	0
24	391	7	10000	5	1	0	5	0
26	392	7	10000	5	1	0	5	0
27	393	7	10000	5	1	0	5	0
27	394	7	10000	5	1	0	5	0
25	395	7	10000	5	1	0	5	0
26	396	7	10000	5	1	0	5	0
26	397	7	10000	5	1	0	5	0
26	398	7	10000	5	1	0	5	0
25	399	7	10000	5	1	0	5	0
25	400	7	10000	5	1	0	5	0
24	401	7	10000	5	1	0	5	0
24	402	7	10000	5	1	0	5	0
24	403	7	10000	5	1	0	5	0
23	404	7	10000	5	1	0	5	0
24	405	7	10000	5	1	0	5	0
24	406	7	10000	5	1	0	5	0
23	407	7	10000	5	1	0	5	0
20	408	7	10000	5	1	0	5	0
21	409	7	10000	5	1	0	5	0
21	410	7	10000	5	1	0	5	0
22	411	7	10000	5	1	0	5	0
21	412	7	10000	5	1	0	5	0
21	413	7	10000	5	1	0	5	0
21	414	7	10000	5	1	0	5	0
23	415	7	10000	5	1	0	5	0
23	416	7	10000	5	1	0	5	0
23	417	7	10000	5	1	0	5	0
24	418	7	10000	5	1	0	5	0
23	419	7	10000	5	1	0	5	0
23	420	7	10000	5	1	0	5	0
23	421	7	10000	5	1	0	5	0
23	422	7	10000	5	1	0	5	0
25	423	7	10000	5	1	0	5	0
26	424	7	10000	5	1	0	5	0
25	425	7	10000	5	1	0	5	0
25	426	7	10000	5	1	0	5	0
27	427	7	10000	5	1	0	5	0
25	428	7	10000	5	1	0	5	0
26	429	7	10000	5	1	0	5	0
26	430	7	10000	5	1	0	5	0
26	431	7	10000	5	1	0	5	0
25	432	7	10000	5	1	0	5	0
25	433	7	10000	5	1	0	5	0
24	434	7	10000	5	1	0	5	0
25	435	7	10000	5	1	0	5	0
24	436	7	10000	5	1	0	5	0
23	437	7	10000	5	1	0	5	0
25	438	7	10000	5	1	0	5	0
24	439	7	10000	5	1	0	5	0
23	440	7	10000	5	1	0	5	0
22	441	7	10000	5	1	0	5	0
22	442	7	10000	5	1	0	5	0
21	443	7	10000	5	1	0	5	0
20	444	7	10000	5	1	0	5	0
21	445	7	10000	5	1	0	5	0
20	446	7	10000	5	1	0	5	0
20	447	7	10000	5	1	0	5	0
20	448	7	10000	5	1	0	5	0
20	449	7	10000	5	1	0	5	0
20	450	7	10000	5	1	0	5	0
20	451	7	10000	5	1	0	5	0
19	452	7	10000	5	1	0	5	0
19	453	7	10000	5	1	0	5	0
18	454	7	10000	5	1	0	5	0
18	455	7	10000	5	1	0	5	0
17	456	7	10000	5	1	0	5	0
17	457	7	10000	5	1	0	5	0
18	458	7	10000	5	1	0	5	0
17	459	7	10000	5	1	0	5	0
16	460	7	10000	5	1	0	5	0
16	461	7	10000	5	1	0	5	0
15	462	7	10000	5	1	0	5	0
16	463	7	10000	5	1	0	5	0
14	464	7	10000	5	1	0	5	0
15	465	7	10000	5	1	0	5	0
16	466	7	10000	5	1	0	5	0
17	467	7	10000	5	1	0	5	0
14	468	7	10000	5	1	0	5	0
15	469	7	10000	5	1	0	5	0
18	470	7	10000	5	1	0	5	0
20	471	7	10000	5	1	0	5	0
22	472	7	10000	5	1	0	5	0
23	473	7	10000	5	1	0	5	0
23	474	7	10000	5	1	0	5	0
22	475	7	10000	5	1	0	5	0
22	476	7	10000	5	1	0	5	0
22	477	7	10000	5	1	0	5	0
23	478	7	10000	5	1	0	5	0
22	479	7	10000	5	1	0	5	0
21	480	7	10000	5	1	0	5	0
20	481	7	10000	5	1	0	5	0
20	482	7	10000	5	1	0	5	0
19	483	7	10000	5	1	0	5	0
19	484	7	10000	5	1	0	5	0
19	485	7	10000	5	1	0	5	0
20	486	7	10000	5	1	0	5	0
20	487	7	10000	5	1	0	5	0
18	488	7	10000	5	1	0	5	0
19	489	7	10000	5	1	0	5	0
19	490	7	10000	5	1	0	5	0
19	491	7	10000	5	1	0	5	0
20	492	7	10000	5	1	0	5	0
19	493	7	10000	5	1	0	5	0
19	494	7	10000	5	1	0	5	0
18	495	7	10000	5	1	0	5	0
18	496	7	10000	5	1	0	5	0
18	497	7	10000	5	1	0	5	0
20	498	7	10000	5	1	0	5	0
19	499	7	10000	5	1	0	5	0
18	500	7	10000	5	1	0	5	0
18	501	7	10000	5	1	0	5	0
19	502	7	10000	5	1	0	5	1
17	503	7	10000	5	1	0	5	1
17	504	7	10000	5	1	0	5	1
18	505	7	10000	5	1	0	5	1
17	506	7	10000	5	1	0	5	1
16	507	7	10000	5	1	0	5	1
14	508	7	10000	5	1	0	5	1
14	509	7	10000	5	1	0	5	1
14	510	7	10000	5	1	0	5	1
15	511	7	10000	5	1	0	5	1
14	512	7	10000	5	1	0	5	1
16	513	7	10000	5	1	0	5	1
18	514	7	10000	5	1	0	5	1
17	515	7	10000	5	1	0	5	1
16	516	7	10000	5	1	0	5	1
15	517	7	10000	5	1	0	5	1
18	518	7	10000	5	1	0	5	1
17	519	7	10000	5	1	0	5	1
17	520	7	10000	5	1	0	5	1
16	521	7	10000	5	1	0	5	1
17	522	7	10000	5	1	0	5	1
17	523	7	10000	5	1	0	5	1
17	524	7	10000	5	1	0	5	1
18	525	7	10000	5	1	0	5	1
19	526	7	10000	5	1	0	5	1
19	527	7	10000	5	1	0	5	1
17	528	7	10000	5	1	0	5	1
18	529	7	10000	5	1	0	5	1
18	530	7	10000	5	1	0	5	1
18	531	7	10000	5	1	0	5	1
19	532	7	10000	5	1	0	5	1
19	533	7	10000	5	1	0	5	1
20	534	7	10000	5	1	0	5	1
20	535	7	10000	5	1	0	5	1
20	536	7	10000	5	1	0	5	1
20	537	7	10000	5	1	0	5	1
21	538	7	10000	5	1	0	5	1
20	539	7	10000	5	1	0	5	1
20	540	7	10000	5	1	0	5	1
20	541	7	10000	5	1	0	5	1
20	542	7	10000	5	1	0	5	1
19	543	7	10000	5	1	0	5	1
19	544	7	10000	5	1	0	5	1
18	545	7	10000	5	1	0	5	1
18	546	7	10000	5	1	0	5	1
17	547	7	10000	5	1	0	5	1
16	548	7	10000	5	1	0	5	1
17	549	7	10000	5	1	0	5	1
17	550	7	10000	5	1	0	5	1
17	551	7	10000	5	1	0	5	1
17	552	7	10000	5	1	0	5	0
17	553	7	10000	5	1	0	5	0
18	554	7	10000	5	1	0	5	0
17	555	7	10000	5	1	0	5	0
17	556	7	10000	5	1	0	5	0
16	557	7	10000	5	1	0	5	0
18	558	7	10000	5	1	0	5	0
17	559	7	10000	5	1	0	5	0
16	560	7	10000	5	1	0	5	0
16	561	7	10000	5	1	0	5	0
16	562	7	10000	5	1	0	5	0
16	563	7	10000	5	1	0	5	0
15	564	7	10000	5	1	0	5	0
15	565	7	10000	5	1	0	5	0
15	566	7	10000	5	1	0	5	0
15	567	7	10000	5	1	0	5	0
14	568	7	10000	5	1	0	5	0
14	569	7	10000	5	1	0	5	0
14	570	7	10000	5	1	0	5	0
15	571	7	10000	5	1	0	5	0
15	572	7	10000	5	1	0	5	0
17	573	7	10000	5	1	0	5	0
18	574	7	10000	5	1	0	5	0
16	575	7	10000	5	1	0	5	0
16	576	7	10000	5	1	0	5	0
15	577	7	10000	5	1	0	5	0
16	578	7	10000	5	1	0	5	0
17	579	7	10000	5	1	0	5	0
16	580	7	10000	5	1	0	5	0
16	581	7	10000	5	1	0	5	0
16	582	7	10000	5	1	0	5	0
16	583	7	10000	5	1	0	5	0
16	584	7	10000	5	1	0	5	0
17	585	7	10000	5	1	0	5	0
17	586	7	10000	5	1	0	5	0
17	587	7	10000	5	1	0	5	0
14	588	7	10000	5	1	0	5	0
16	589	7	10000	5	1	0	5	0
19	590	7	10000	5	1	0	5	0
25	591	7	10000	5	1	0	5	0
32	592	7	10000	5	1	0	5	0
40	593	7	10000	5	1	0	5	0
44	594	7	10000	5	1	0	5	0
46	595	7	10000	5	1	0	5	0
52	596	7	10000	5	1	0	5	0
51	597	7	10000	5	1	0	5	0
51	598	7	10000	5	1	0	5	0
59	599	7	10000	5	1	0	5	0
79	600	7	10000	5	1	0	5	0
95	601	7	10000	5	1	0	5	0
99	602	7	10000	5	1	0	5	0
105	603	7	10000	5	1	0	5	0
121	604	7	10000	5	1	0	5	0
184	605	7	10000	5	1	0	5	0
244	606	7	10000	5	1	0	5	0
255	607	7	10000	5	1	0	5	0
300	608	7	10000	5	1	0	5	0
348	609	7	10000	5	1	0	5	0
385	610	7	10000	5	1	0	5	0
402	611	7	10000	5	1	0	5	0
402	612	7	10000	5	1	0	5	0
388	613	7	10000	5	1	0	5	0
397	614	7	10000	5	1	0	5	0
388	615	7	10000	5	1	0	5	0
390	616	7	10000	5	1	0	5	0
386	617	7	10000	5	1	0	5	0
379	618	7	10000	5	1	0	5	0
377	619	7	10000	5	1	0	5	0
372	620	7	10000	5	1	0	5	0
381	621	7	10000	5	1	0	5	0
386	622	7	10000	5	1	0	5	0
391	623	7	10000	5	1	0	5	0
390	624	7	10000	5	1	0	5	0
412	625	7	10000	5	1	0	5	0
407	626	7	10000	5	1	0	5	0
405	627	7	10000	5	1	0	5	0
398	628	7	10000	5	1	0	5	0
390	629	7	10000	5	1	0	5	0
383	630	7	10000	5	1	0	5	0
369	631	7	10000	5	1	0	5	0
353	632	7	10000	5	1	0	5	0
336	633	7	10000	5	1	0	5	0
322	634	7	10000	5	1	0	5	0
310	635	7	10000	5	1	0	5	0
298	636	7	10000	5	1	0	5	0
285	637	7	10000	5	1	0	5	0
273	638	7	10000	5	1	0	5	0
263	639	7	10000	5	1	0	5	0
255	640	7	10000	5	1	0	5	0
246	641	7	10000	5	1	0	5	0
240	642	7	10000	5	1	0	5	0
234	643	7	10000	5	1	0	5	0
227	644	7	10000	5	1	0	5	0
222	645	7	10000	5	1	0	5	0
216	646	7	10000	5	1	0	5	0
210	647	7	10000	5	1	0	5	0
201	648	7	10000	5	1	0	5	0
197	649	7	10000	5	1	0	5	0
192	650	7	10000	5	1	0	5	0
187	651	7	10000	5	1	0	5	0
182	652	7	10000	5	1	0	5	0
177	653	7	10000	5	1	0	5	0
173	654	7	10000	5	1	0	5	0
170	655	7	10000	5	1	0	5	0
168	656	7	10000	5	1	0	5	0
166	657	7	10000	5	1	0	5	0
166	658	7	10000	5	1	0	5	0
163	659	7	10000	5	1	0	5	0
159	660	7	10000	5	1	0	5	0
153	661	7	10000	5	1	0	5	0
148	662	7	10000	5	1	0	5	0
142	663	7	10000	5	1	0	5	0
137	664	7	10000	5	1	0	5	0
133	665	7	10000	5	1	0	5	0
128	666	7	10000	5	1	0	5	0
124	667	7	10000	5	1	0	5	0
116	668	7	10000	5	1	0	5	0
111	669	7	10000	5	1	0	5	0
109	670	7	10000	5	1	0	5	0
109	671	7	10000	5	1	0	5	0
109	672	7	10000	5	1	0	5	0
108	673	7	10000	5	1	0	5	0
107	674	7	10000	5	1	0	5	0
104	675	7	10000	5	1	0	5	0
102	676	7	10000	5	1	0	5	0
98	677	7	10000	5	1	0	5	0
98	678	7	10000	5	1	0	5	0
97	679	7	10000	5	1	0	5	0
97	680	7	10000	5	1	0	5	0
96	681	7	10000	5	1	0	5	0
96	682	7	10000	5	1	0	5	0
95	683	7	10000	5	1	0	5	0
93	684	7	10000	5	1	0	5	0
93	685	7	10000	5	1	0	5	0
92	686	7	10000	5	1	0	5	0
93	687	7	10000	5	1	0	5	0
94	688	7	10000	5	1	0	5	0
98	689	7	10000	5	1	0	5	0
101	690	7	10000	5	1	0	5	0
102	691	7	10000	5	1	0	5	0
103	692	7	10000	5	1	0	5	0
105	693	7	10000	5	1	0	5	0
108	694	7	10000	5	1	0	5	0
109	695	7	10000	5	1	0	5	0
110	696	7	10000	5	1	0	5	0
110	697	7	10000	5	1	0	5	0
111	698	7	10000	5	1	0	5	0
110	699	7	10000	5	1	0	5	0
107	700	7	10000	5	1	0	5	0
104	701	7	10000	5	1	0	5	0
102	702	7	10000	5	1	0	5	0
99	703	7	10000	5	1	0	5	0
96	704	7	10000	5	1	0	5	0
94	705	7	10000	5	1	0	5	0
93	706	7	10000	5	1	0	5	0
92	707	7	10000	5	1	0	5	0
90	708	7	10000	5	1	0	5	0
92	709	7	10000	5	1	0	5	0
94	710	7	10000	5	1	0	5	0
95	711	7	10000	5	1	0	5	0
94	712	7	10000	5	1	0	5	0
93	713	7	10000	5	1	0	5	0
90	714	7	10000	5	1	0	5	0
86	715	7	10000	5	1	0	5	0
82	716	7	10000	5	1	0	5	0
79	717	7	10000	5	1	0	5	0
78	718	7	10000	5	1	0	5	0
76	719	7	10000	5	1	0	5	0
75	720	7	10000	5	1	0	5	0
75	721	7	10000	5	1	0	5	0
72	722	7	10000	5	1	0	5	0
70	723	7	10000	5	1	0	5	0
67	724	7	10000	5	1	0	5	0
65	725	7	10000	5	1	0	5	0
62	726	7	10000	5	1	0	5	0
61	727	7	10000	5	1	0	5	0
57	728	7	10000	5	1	0	5	0
56	729	7	10000	5	1	0	5	0
55	730	7	10000	5	1	0	5	0
54	731	7	10000	5	1	0	5	0
54	732	7	10000	5	1	0	5	0
53	733	7	10000	5	1	0	5	0
52	734	7	10000	5	1	0	5	0
49	735	7	10000	5	1	0	5	0
47	736	7	10000	5	1	0	5	0
45	737	7	10000	5	1	0	5	0
47	738	7	10000	5	1	0	5	0
45	739	7	10000	5	1	0	5	0
43	740	7	10000	5	1	0	5	0
42	741	7	10000	5	1	0	5	0
40	742	7	10000	5	1	0	5	0
38	743	7	10000	5	1	0	5	0
36	744	7	10000	5	1	0	5	0
35	745	7	10000	5	1	0	5	0
35	746	7	10000	5	1	0	5	0
34	747	7	10000	5	1	0	5	0
31	748	7	10000	5	1	0	5	0
30	749	7	10000	5	1	0	5	0
32	750	7	10000	5	1	0	5	0
31	751	7	10000	5	1	0	5	0
30	752	7	10000	5	1	0	5	0
29	753	7	10000	5	1	0	5	0
29	754	7	10000	5	1	0	5	0
27	755	7	10000	5	1	0	5	0
27	756	7	10000	5	1	0	5	0
26	757	7	10000	5	1	0	5	0
28	758	7	10000	5	1	0	5	0
27	759	7	10000	5	1	0	5	0
26	760	7	10000	5	1	0	5	0
26	761	7	10000	5	1	0	5	0
28	762	7	10000	5	1	0	5	0
30	763	7	10000	5	1	0	5	0
30	764	7	10000	5	1	0	5	0
30	765	7	10000	5	1	0	5	0
30	766	7	10000	5	1	0	5	0
29	767	7	10000	5	1	0	5	0
26	768	7	10000	5	1	0	5	0
26	769	7	10000	5	1	0	5	0
27	770	7	10000	5	1	0	5	0
26	771	7	10000	5	1	0	5	0
27	772	7	10000	5	1	0	5	0
26	773	7	10000	5	1	0	5	0
25	774	7	10000	5	1	0	5	0
24	775	7	10000	5	1	0	5	0
24	776	7	10000	5	1	0	5	0
25	777	7	10000	5	1	0	5	0
28	778	7	10000	5	1	0	5	0
28	779	7	10000	5	1	0	5	0
27	780	7	10000	5	1	0	5	0
28	781	7	10000	5	1	0	5	0
29	782	7	10000	5	1	0	5	0
29	783	7	10000	5	1	0	5	0
28	784	7	10000	5	1	0	5	0
26	785	7	10000	5	1	0	5	0
27	786	7	10000	5	1	0	5	0
26	787	7	10000	5	1	0	5	0
23	788	7	10000	5	1	0	5	0
23	789	7	10000	5	1	0	5	0
24	790	7	10000	5	1	0	5	0
24	791	7	10000	5	1	0	5	0
25	792	7	10000	5	1	0	5	0
24	793	7	10000	5	1	0	5	0
24	794	7	10000	5	1	0	5	0
23	795	7	10000	5	1	0	5	0
22	796	7	10000	5	1	0	5	0
22	797	7	10000	5	1	0	5	0
25	798	7	10000	5	1	0	5	0
26	799	7	10000	5	1	0	5	0
