value	EMG	Stimulus	EMG_sensitivity	Total_Trial_Nr	practise	acq	probe_nr	Startle_Probe
20	1	10	10000	1	1	0	1	0
19	2	10	10000	1	1	0	1	0
18	3	10	10000	1	1	0	1	0
19	4	10	10000	1	1	0	1	0
18	5	10	10000	1	1	0	1	0
18	6	10	10000	1	1	0	1	0
18	7	10	10000	1	1	0	1	0
18	8	10	10000	1	1	0	1	0
18	9	10	10000	1	1	0	1	0
15	10	10	10000	1	1	0	1	0
15	11	10	10000	1	1	0	1	0
16	12	10	10000	1	1	0	1	0
19	13	10	10000	1	1	0	1	0
19	14	10	10000	1	1	0	1	0
18	15	10	10000	1	1	0	1	0
20	16	10	10000	1	1	0	1	0
20	17	10	10000	1	1	0	1	0
22	18	10	10000	1	1	0	1	0
22	19	10	10000	1	1	0	1	0
23	20	10	10000	1	1	0	1	0
23	21	10	10000	1	1	0	1	0
23	22	10	10000	1	1	0	1	0
21	23	10	10000	1	1	0	1	0
21	24	10	10000	1	1	0	1	0
20	25	10	10000	1	1	0	1	0
19	26	10	10000	1	1	0	1	0
19	27	10	10000	1	1	0	1	0
19	28	10	10000	1	1	0	1	0
19	29	10	10000	1	1	0	1	0
18	30	10	10000	1	1	0	1	0
18	31	10	10000	1	1	0	1	0
18	32	10	10000	1	1	0	1	0
18	33	10	10000	1	1	0	1	0
17	34	10	10000	1	1	0	1	0
17	35	10	10000	1	1	0	1	0
18	36	10	10000	1	1	0	1	0
17	37	10	10000	1	1	0	1	0
17	38	10	10000	1	1	0	1	0
15	39	10	10000	1	1	0	1	0
17	40	10	10000	1	1	0	1	0
18	41	10	10000	1	1	0	1	0
18	42	10	10000	1	1	0	1	0
18	43	10	10000	1	1	0	1	0
19	44	10	10000	1	1	0	1	0
17	45	10	10000	1	1	0	1	0
17	46	10	10000	1	1	0	1	0
18	47	10	10000	1	1	0	1	0
19	48	10	10000	1	1	0	1	0
20	49	10	10000	1	1	0	1	0
18	50	10	10000	1	1	0	1	0
18	51	10	10000	1	1	0	1	0
19	52	10	10000	1	1	0	1	0
19	53	10	10000	1	1	0	1	0
18	54	10	10000	1	1	0	1	0
18	55	10	10000	1	1	0	1	0
17	56	10	10000	1	1	0	1	0
16	57	10	10000	1	1	0	1	0
16	58	10	10000	1	1	0	1	0
15	59	10	10000	1	1	0	1	0
17	60	10	10000	1	1	0	1	0
17	61	10	10000	1	1	0	1	0
16	62	10	10000	1	1	0	1	0
16	63	10	10000	1	1	0	1	0
16	64	10	10000	1	1	0	1	0
16	65	10	10000	1	1	0	1	0
16	66	10	10000	1	1	0	1	0
16	67	10	10000	1	1	0	1	0
16	68	10	10000	1	1	0	1	0
16	69	10	10000	1	1	0	1	0
15	70	10	10000	1	1	0	1	0
16	71	10	10000	1	1	0	1	0
17	72	10	10000	1	1	0	1	0
17	73	10	10000	1	1	0	1	0
19	74	10	10000	1	1	0	1	0
21	75	10	10000	1	1	0	1	0
23	76	10	10000	1	1	0	1	0
22	77	10	10000	1	1	0	1	0
21	78	10	10000	1	1	0	1	0
19	79	10	10000	1	1	0	1	0
21	80	10	10000	1	1	0	1	0
22	81	10	10000	1	1	0	1	0
23	82	10	10000	1	1	0	1	0
22	83	10	10000	1	1	0	1	0
23	84	10	10000	1	1	0	1	0
23	85	10	10000	1	1	0	1	0
23	86	10	10000	1	1	0	1	0
25	87	10	10000	1	1	0	1	0
28	88	10	10000	1	1	0	1	0
31	89	10	10000	1	1	0	1	0
30	90	10	10000	1	1	0	1	0
33	91	10	10000	1	1	0	1	0
35	92	10	10000	1	1	0	1	0
36	93	10	10000	1	1	0	1	0
36	94	10	10000	1	1	0	1	0
36	95	10	10000	1	1	0	1	0
35	96	10	10000	1	1	0	1	0
33	97	10	10000	1	1	0	1	0
33	98	10	10000	1	1	0	1	0
31	99	10	10000	1	1	0	1	0
31	100	10	10000	1	1	0	1	0
31	101	10	10000	1	1	0	1	0
32	102	10	10000	1	1	0	1	0
32	103	10	10000	1	1	0	1	0
32	104	10	10000	1	1	0	1	0
32	105	10	10000	1	1	0	1	0
31	106	10	10000	1	1	0	1	0
32	107	10	10000	1	1	0	1	0
33	108	10	10000	1	1	0	1	0
34	109	10	10000	1	1	0	1	0
33	110	10	10000	1	1	0	1	0
33	111	10	10000	1	1	0	1	0
34	112	10	10000	1	1	0	1	0
34	113	10	10000	1	1	0	1	0
35	114	10	10000	1	1	0	1	0
35	115	10	10000	1	1	0	1	0
34	116	10	10000	1	1	0	1	0
32	117	10	10000	1	1	0	1	0
32	118	10	10000	1	1	0	1	0
30	119	10	10000	1	1	0	1	0
32	120	10	10000	1	1	0	1	0
32	121	10	10000	1	1	0	1	0
33	122	10	10000	1	1	0	1	0
36	123	10	10000	1	1	0	1	0
38	124	10	10000	1	1	0	1	0
40	125	10	10000	1	1	0	1	0
39	126	10	10000	1	1	0	1	0
39	127	10	10000	1	1	0	1	0
39	128	10	10000	1	1	0	1	0
40	129	10	10000	1	1	0	1	0
37	130	10	10000	1	1	0	1	0
36	131	10	10000	1	1	0	1	0
36	132	10	10000	1	1	0	1	0
34	133	10	10000	1	1	0	1	0
34	134	10	10000	1	1	0	1	0
35	135	10	10000	1	1	0	1	0
36	136	10	10000	1	1	0	1	0
35	137	10	10000	1	1	0	1	0
35	138	10	10000	1	1	0	1	0
35	139	10	10000	1	1	0	1	0
36	140	10	10000	1	1	0	1	0
35	141	10	10000	1	1	0	1	0
32	142	10	10000	1	1	0	1	0
31	143	10	10000	1	1	0	1	0
30	144	10	10000	1	1	0	1	0
29	145	10	10000	1	1	0	1	0
27	146	10	10000	1	1	0	1	0
27	147	10	10000	1	1	0	1	0
27	148	10	10000	1	1	0	1	0
27	149	10	10000	1	1	0	1	0
24	150	10	10000	1	1	0	1	0
24	151	10	10000	1	1	0	1	0
24	152	10	10000	1	1	0	1	0
24	153	10	10000	1	1	0	1	0
24	154	10	10000	1	1	0	1	0
24	155	10	10000	1	1	0	1	0
23	156	10	10000	1	1	0	1	0
22	157	10	10000	1	1	0	1	0
21	158	10	10000	1	1	0	1	0
20	159	10	10000	1	1	0	1	0
23	160	10	10000	1	1	0	1	0
23	161	10	10000	1	1	0	1	0
21	162	10	10000	1	1	0	1	0
21	163	10	10000	1	1	0	1	0
20	164	10	10000	1	1	0	1	0
19	165	10	10000	1	1	0	1	0
20	166	10	10000	1	1	0	1	0
19	167	10	10000	1	1	0	1	0
19	168	10	10000	1	1	0	1	0
20	169	10	10000	1	1	0	1	0
16	170	10	10000	1	1	0	1	0
15	171	10	10000	1	1	0	1	0
16	172	10	10000	1	1	0	1	0
15	173	10	10000	1	1	0	1	0
15	174	10	10000	1	1	0	1	0
17	175	10	10000	1	1	0	1	0
20	176	10	10000	1	1	0	1	0
21	177	10	10000	1	1	0	1	0
22	178	10	10000	1	1	0	1	0
24	179	10	10000	1	1	0	1	0
27	180	10	10000	1	1	0	1	0
28	181	10	10000	1	1	0	1	0
28	182	10	10000	1	1	0	1	0
28	183	10	10000	1	1	0	1	0
29	184	10	10000	1	1	0	1	0
31	185	10	10000	1	1	0	1	0
35	186	10	10000	1	1	0	1	0
36	187	10	10000	1	1	0	1	0
36	188	10	10000	1	1	0	1	0
36	189	10	10000	1	1	0	1	0
33	190	10	10000	1	1	0	1	0
35	191	10	10000	1	1	0	1	0
39	192	10	10000	1	1	0	1	0
45	193	10	10000	1	1	0	1	0
50	194	10	10000	1	1	0	1	0
55	195	10	10000	1	1	0	1	0
59	196	10	10000	1	1	0	1	0
60	197	10	10000	1	1	0	1	0
62	198	10	10000	1	1	0	1	0
63	199	10	10000	1	1	0	1	0
66	200	10	10000	1	1	0	1	0
65	201	10	10000	1	1	0	1	0
63	202	10	10000	1	1	0	1	0
61	203	10	10000	1	1	0	1	0
58	204	10	10000	1	1	0	1	0
57	205	10	10000	1	1	0	1	0
57	206	10	10000	1	1	0	1	0
56	207	10	10000	1	1	0	1	0
56	208	10	10000	1	1	0	1	0
56	209	10	10000	1	1	0	1	0
54	210	10	10000	1	1	0	1	0
54	211	10	10000	1	1	0	1	0
54	212	10	10000	1	1	0	1	0
53	213	10	10000	1	1	0	1	0
51	214	10	10000	1	1	0	1	0
49	215	10	10000	1	1	0	1	0
48	216	10	10000	1	1	0	1	0
46	217	10	10000	1	1	0	1	0
45	218	10	10000	1	1	0	1	0
44	219	10	10000	1	1	0	1	0
47	220	10	10000	1	1	0	1	0
46	221	10	10000	1	1	0	1	0
48	222	10	10000	1	1	0	1	0
50	223	10	10000	1	1	0	1	0
51	224	10	10000	1	1	0	1	0
53	225	10	10000	1	1	0	1	0
55	226	10	10000	1	1	0	1	0
57	227	10	10000	1	1	0	1	0
58	228	10	10000	1	1	0	1	0
60	229	10	10000	1	1	0	1	0
58	230	10	10000	1	1	0	1	0
61	231	10	10000	1	1	0	1	0
62	232	10	10000	1	1	0	1	0
64	233	10	10000	1	1	0	1	0
67	234	10	10000	1	1	0	1	0
70	235	10	10000	1	1	0	1	0
73	236	10	10000	1	1	0	1	0
73	237	10	10000	1	1	0	1	0
73	238	10	10000	1	1	0	1	0
73	239	10	10000	1	1	0	1	0
76	240	10	10000	1	1	0	1	0
74	241	10	10000	1	1	0	1	0
73	242	10	10000	1	1	0	1	0
71	243	10	10000	1	1	0	1	0
69	244	10	10000	1	1	0	1	0
68	245	10	10000	1	1	0	1	0
68	246	10	10000	1	1	0	1	0
68	247	10	10000	1	1	0	1	0
67	248	10	10000	1	1	0	1	0
67	249	10	10000	1	1	0	1	0
64	250	10	10000	1	1	0	1	0
64	251	10	10000	1	1	0	1	0
63	252	10	10000	1	1	0	1	0
63	253	10	10000	1	1	0	1	0
62	254	10	10000	1	1	0	1	0
60	255	10	10000	1	1	0	1	0
59	256	10	10000	1	1	0	1	0
58	257	10	10000	1	1	0	1	0
56	258	10	10000	1	1	0	1	0
54	259	10	10000	1	1	0	1	0
55	260	10	10000	1	1	0	1	0
52	261	10	10000	1	1	0	1	0
50	262	10	10000	1	1	0	1	0
47	263	10	10000	1	1	0	1	0
45	264	10	10000	1	1	0	1	0
44	265	10	10000	1	1	0	1	0
42	266	10	10000	1	1	0	1	0
41	267	10	10000	1	1	0	1	0
40	268	10	10000	1	1	0	1	0
39	269	10	10000	1	1	0	1	0
35	270	10	10000	1	1	0	1	0
35	271	10	10000	1	1	0	1	0
38	272	10	10000	1	1	0	1	0
38	273	10	10000	1	1	0	1	0
37	274	10	10000	1	1	0	1	0
35	275	10	10000	1	1	0	1	0
34	276	10	10000	1	1	0	1	0
33	277	10	10000	1	1	0	1	0
32	278	10	10000	1	1	0	1	0
31	279	10	10000	1	1	0	1	0
33	280	10	10000	1	1	0	1	0
32	281	10	10000	1	1	0	1	0
31	282	10	10000	1	1	0	1	0
30	283	10	10000	1	1	0	1	0
29	284	10	10000	1	1	0	1	0
29	285	10	10000	1	1	0	1	0
29	286	10	10000	1	1	0	1	0
30	287	10	10000	1	1	0	1	0
29	288	10	10000	1	1	0	1	0
29	289	10	10000	1	1	0	1	0
26	290	10	10000	1	1	0	1	0
26	291	10	10000	1	1	0	1	0
25	292	10	10000	1	1	0	1	0
25	293	10	10000	1	1	0	1	0
26	294	10	10000	1	1	0	1	0
24	295	10	10000	1	1	0	1	0
24	296	10	10000	1	1	0	1	0
24	297	10	10000	1	1	0	1	0
23	298	10	10000	1	1	0	1	0
22	299	10	10000	1	1	0	1	0
24	300	10	10000	1	1	0	1	0
24	301	10	10000	1	1	0	1	0
23	302	10	10000	1	1	0	1	0
22	303	10	10000	1	1	0	1	0
20	304	10	10000	1	1	0	1	0
20	305	10	10000	1	1	0	1	0
20	306	10	10000	1	1	0	1	0
19	307	10	10000	1	1	0	1	0
20	308	10	10000	1	1	0	1	0
21	309	10	10000	1	1	0	1	0
18	310	10	10000	1	1	0	1	0
19	311	10	10000	1	1	0	1	0
18	312	10	10000	1	1	0	1	0
18	313	10	10000	1	1	0	1	0
18	314	10	10000	1	1	0	1	0
17	315	10	10000	1	1	0	1	0
18	316	10	10000	1	1	0	1	0
17	317	10	10000	1	1	0	1	0
16	318	10	10000	1	1	0	1	0
15	319	10	10000	1	1	0	1	0
18	320	10	10000	1	1	0	1	0
18	321	10	10000	1	1	0	1	0
17	322	10	10000	1	1	0	1	0
17	323	10	10000	1	1	0	1	0
17	324	10	10000	1	1	0	1	0
17	325	10	10000	1	1	0	1	0
17	326	10	10000	1	1	0	1	0
17	327	10	10000	1	1	0	1	0
17	328	10	10000	1	1	0	1	0
17	329	10	10000	1	1	0	1	0
15	330	10	10000	1	1	0	1	0
15	331	10	10000	1	1	0	1	0
14	332	10	10000	1	1	0	1	0
14	333	10	10000	1	1	0	1	0
15	334	10	10000	1	1	0	1	0
14	335	10	10000	1	1	0	1	0
14	336	10	10000	1	1	0	1	0
13	337	10	10000	1	1	0	1	0
13	338	10	10000	1	1	0	1	0
13	339	10	10000	1	1	0	1	0
16	340	10	10000	1	1	0	1	0
15	341	10	10000	1	1	0	1	0
15	342	10	10000	1	1	0	1	0
14	343	10	10000	1	1	0	1	0
14	344	10	10000	1	1	0	1	0
15	345	10	10000	1	1	0	1	0
15	346	10	10000	1	1	0	1	0
15	347	10	10000	1	1	0	1	0
17	348	10	10000	1	1	0	1	0
16	349	10	10000	1	1	0	1	0
14	350	10	10000	1	1	0	1	0
14	351	10	10000	1	1	0	1	0
13	352	10	10000	1	1	0	1	0
13	353	10	10000	1	1	0	1	0
13	354	10	10000	1	1	0	1	0
13	355	10	10000	1	1	0	1	0
13	356	10	10000	1	1	0	1	0
13	357	10	10000	1	1	0	1	0
12	358	10	10000	1	1	0	1	0
12	359	10	10000	1	1	0	1	0
14	360	10	10000	1	1	0	1	0
15	361	10	10000	1	1	0	1	0
15	362	10	10000	1	1	0	1	0
15	363	10	10000	1	1	0	1	0
15	364	10	10000	1	1	0	1	0
15	365	10	10000	1	1	0	1	0
15	366	10	10000	1	1	0	1	0
16	367	10	10000	1	1	0	1	0
18	368	10	10000	1	1	0	1	0
18	369	10	10000	1	1	0	1	0
17	370	10	10000	1	1	0	1	0
16	371	10	10000	1	1	0	1	0
17	372	10	10000	1	1	0	1	0
17	373	10	10000	1	1	0	1	0
17	374	10	10000	1	1	0	1	0
16	375	10	10000	1	1	0	1	0
16	376	10	10000	1	1	0	1	0
16	377	10	10000	1	1	0	1	0
17	378	10	10000	1	1	0	1	0
16	379	10	10000	1	1	0	1	0
18	380	10	10000	1	1	0	1	0
18	381	10	10000	1	1	0	1	0
19	382	10	10000	1	1	0	1	0
20	383	10	10000	1	1	0	1	0
20	384	10	10000	1	1	0	1	0
23	385	10	10000	1	1	0	1	0
24	386	10	10000	1	1	0	1	0
25	387	10	10000	1	1	0	1	0
27	388	10	10000	1	1	0	1	0
28	389	10	10000	1	1	0	1	0
28	390	10	10000	1	1	0	1	0
30	391	10	10000	1	1	0	1	0
31	392	10	10000	1	1	0	1	0
30	393	10	10000	1	1	0	1	0
30	394	10	10000	1	1	0	1	0
29	395	10	10000	1	1	0	1	0
30	396	10	10000	1	1	0	1	0
28	397	10	10000	1	1	0	1	0
27	398	10	10000	1	1	0	1	0
27	399	10	10000	1	1	0	1	0
28	400	10	10000	1	1	0	1	0
29	401	10	10000	1	1	0	1	0
30	402	10	10000	1	1	0	1	0
32	403	10	10000	1	1	0	1	0
35	404	10	10000	1	1	0	1	0
40	405	10	10000	1	1	0	1	0
42	406	10	10000	1	1	0	1	0
47	407	10	10000	1	1	0	1	0
51	408	10	10000	1	1	0	1	0
55	409	10	10000	1	1	0	1	0
57	410	10	10000	1	1	0	1	0
60	411	10	10000	1	1	0	1	0
62	412	10	10000	1	1	0	1	0
63	413	10	10000	1	1	0	1	0
63	414	10	10000	1	1	0	1	0
63	415	10	10000	1	1	0	1	0
63	416	10	10000	1	1	0	1	0
61	417	10	10000	1	1	0	1	0
61	418	10	10000	1	1	0	1	0
62	419	10	10000	1	1	0	1	0
65	420	10	10000	1	1	0	1	0
65	421	10	10000	1	1	0	1	0
65	422	10	10000	1	1	0	1	0
62	423	10	10000	1	1	0	1	0
59	424	10	10000	1	1	0	1	0
58	425	10	10000	1	1	0	1	0
56	426	10	10000	1	1	0	1	0
54	427	10	10000	1	1	0	1	0
51	428	10	10000	1	1	0	1	0
50	429	10	10000	1	1	0	1	0
46	430	10	10000	1	1	0	1	0
45	431	10	10000	1	1	0	1	0
46	432	10	10000	1	1	0	1	0
48	433	10	10000	1	1	0	1	0
51	434	10	10000	1	1	0	1	0
55	435	10	10000	1	1	0	1	0
57	436	10	10000	1	1	0	1	0
58	437	10	10000	1	1	0	1	0
59	438	10	10000	1	1	0	1	0
60	439	10	10000	1	1	0	1	0
63	440	10	10000	1	1	0	1	0
64	441	10	10000	1	1	0	1	0
66	442	10	10000	1	1	0	1	0
66	443	10	10000	1	1	0	1	0
65	444	10	10000	1	1	0	1	0
67	445	10	10000	1	1	0	1	0
68	446	10	10000	1	1	0	1	0
69	447	10	10000	1	1	0	1	0
71	448	10	10000	1	1	0	1	0
71	449	10	10000	1	1	0	1	0
69	450	10	10000	1	1	0	1	0
68	451	10	10000	1	1	0	1	0
67	452	10	10000	1	1	0	1	0
64	453	10	10000	1	1	0	1	0
62	454	10	10000	1	1	0	1	0
59	455	10	10000	1	1	0	1	0
58	456	10	10000	1	1	0	1	0
56	457	10	10000	1	1	0	1	0
55	458	10	10000	1	1	0	1	0
56	459	10	10000	1	1	0	1	0
55	460	10	10000	1	1	0	1	0
54	461	10	10000	1	1	0	1	0
51	462	10	10000	1	1	0	1	0
48	463	10	10000	1	1	0	1	0
48	464	10	10000	1	1	0	1	0
49	465	10	10000	1	1	0	1	0
49	466	10	10000	1	1	0	1	0
49	467	10	10000	1	1	0	1	0
48	468	10	10000	1	1	0	1	0
47	469	10	10000	1	1	0	1	0
44	470	10	10000	1	1	0	1	0
43	471	10	10000	1	1	0	1	0
42	472	10	10000	1	1	0	1	0
41	473	10	10000	1	1	0	1	0
39	474	10	10000	1	1	0	1	0
38	475	10	10000	1	1	0	1	0
37	476	10	10000	1	1	0	1	0
36	477	10	10000	1	1	0	1	0
35	478	10	10000	1	1	0	1	0
34	479	10	10000	1	1	0	1	0
34	480	10	10000	1	1	0	1	0
34	481	10	10000	1	1	0	1	0
34	482	10	10000	1	1	0	1	0
33	483	10	10000	1	1	0	1	0
33	484	10	10000	1	1	0	1	0
34	485	10	10000	1	1	0	1	0
32	486	10	10000	1	1	0	1	0
32	487	10	10000	1	1	0	1	0
31	488	10	10000	1	1	0	1	0
30	489	10	10000	1	1	0	1	0
28	490	10	10000	1	1	0	1	0
27	491	10	10000	1	1	0	1	0
26	492	10	10000	1	1	0	1	0
26	493	10	10000	1	1	0	1	0
25	494	10	10000	1	1	0	1	0
24	495	10	10000	1	1	0	1	0
24	496	10	10000	1	1	0	1	0
22	497	10	10000	1	1	0	1	0
21	498	10	10000	1	1	0	1	0
20	499	10	10000	1	1	0	1	0
21	500	10	10000	1	1	0	1	0
20	548	10	10000	1	1	0	1	1
20	549	10	10000	1	1	0	1	1
19	550	10	10000	1	1	0	1	1
19	551	10	10000	1	1	0	1	1
18	552	10	10000	1	1	0	1	1
17	553	10	10000	1	1	0	1	1
18	554	10	10000	1	1	0	1	1
18	555	10	10000	1	1	0	1	1
19	556	10	10000	1	1	0	1	1
19	557	10	10000	1	1	0	1	1
19	558	10	10000	1	1	0	1	1
21	559	10	10000	1	1	0	1	1
22	560	10	10000	1	1	0	1	1
21	561	10	10000	1	1	0	1	1
21	562	10	10000	1	1	0	1	1
21	563	10	10000	1	1	0	1	1
20	564	10	10000	1	1	0	1	1
20	565	10	10000	1	1	0	1	1
20	566	10	10000	1	1	0	1	1
23	567	10	10000	1	1	0	1	1
24	568	10	10000	1	1	0	1	1
23	569	10	10000	1	1	0	1	1
23	570	10	10000	1	1	0	1	1
21	571	10	10000	1	1	0	1	1
22	572	10	10000	1	1	0	1	1
21	573	10	10000	1	1	0	1	1
21	574	10	10000	1	1	0	1	1
20	575	10	10000	1	1	0	1	1
20	576	10	10000	1	1	0	1	1
19	577	10	10000	1	1	0	1	1
18	578	10	10000	1	1	0	1	1
17	579	10	10000	1	1	0	1	1
17	580	10	10000	1	1	0	1	1
17	581	10	10000	1	1	0	1	1
16	582	10	10000	1	1	0	1	1
16	583	10	10000	1	1	0	1	1
16	584	10	10000	1	1	0	1	1
15	585	10	10000	1	1	0	1	1
17	586	10	10000	1	1	0	1	1
19	587	10	10000	1	1	0	1	1
19	588	10	10000	1	1	0	1	1
19	589	10	10000	1	1	0	1	1
20	590	10	10000	1	1	0	1	1
20	591	10	10000	1	1	0	1	1
20	592	10	10000	1	1	0	1	1
21	593	10	10000	1	1	0	1	1
23	594	10	10000	1	1	0	1	1
24	595	10	10000	1	1	0	1	1
24	555	10	10000	1	1	0	1	1
22	556	10	10000	1	1	0	1	1
23	557	10	10000	1	1	0	1	1
24	558	10	10000	1	1	0	1	1
24	559	10	10000	1	1	0	1	1
24	560	10	10000	1	1	0	1	1
22	561	10	10000	1	1	0	1	1
22	562	10	10000	1	1	0	1	1
21	557	10	10000	1	1	0	1	0
20	558	10	10000	1	1	0	1	0
19	559	10	10000	1	1	0	1	0
21	560	10	10000	1	1	0	1	0
22	561	10	10000	1	1	0	1	0
21	562	10	10000	1	1	0	1	0
20	563	10	10000	1	1	0	1	0
20	564	10	10000	1	1	0	1	0
19	565	10	10000	1	1	0	1	0
18	566	10	10000	1	1	0	1	0
19	567	10	10000	1	1	0	1	0
19	568	10	10000	1	1	0	1	0
19	569	10	10000	1	1	0	1	0
17	570	10	10000	1	1	0	1	0
16	571	10	10000	1	1	0	1	0
17	572	10	10000	1	1	0	1	0
17	573	10	10000	1	1	0	1	0
18	574	10	10000	1	1	0	1	0
19	575	10	10000	1	1	0	1	0
19	576	10	10000	1	1	0	1	0
18	577	10	10000	1	1	0	1	0
18	578	10	10000	1	1	0	1	0
18	579	10	10000	1	1	0	1	0
20	580	10	10000	1	1	0	1	0
20	581	10	10000	1	1	0	1	0
18	582	10	10000	1	1	0	1	0
18	583	10	10000	1	1	0	1	0
18	584	10	10000	1	1	0	1	0
18	585	10	10000	1	1	0	1	0
17	586	10	10000	1	1	0	1	0
18	587	10	10000	1	1	0	1	0
19	588	10	10000	1	1	0	1	0
21	589	10	10000	1	1	0	1	0
21	590	10	10000	1	1	0	1	0
22	591	10	10000	1	1	0	1	0
24	592	10	10000	1	1	0	1	0
24	593	10	10000	1	1	0	1	0
24	594	10	10000	1	1	0	1	0
25	595	10	10000	1	1	0	1	0
26	596	10	10000	1	1	0	1	0
26	597	10	10000	1	1	0	1	0
26	598	10	10000	1	1	0	1	0
26	599	10	10000	1	1	0	1	0
27	600	10	10000	1	1	0	1	0
27	601	10	10000	1	1	0	1	0
26	602	10	10000	1	1	0	1	0
24	603	10	10000	1	1	0	1	0
24	604	10	10000	1	1	0	1	0
22	605	10	10000	1	1	0	1	0
22	606	10	10000	1	1	0	1	0
22	607	10	10000	1	1	0	1	0
23	608	10	10000	1	1	0	1	0
24	609	10	10000	1	1	0	1	0
24	610	10	10000	1	1	0	1	0
24	611	10	10000	1	1	0	1	0
26	612	10	10000	1	1	0	1	0
28	613	10	10000	1	1	0	1	0
27	614	10	10000	1	1	0	1	0
28	615	10	10000	1	1	0	1	0
27	616	10	10000	1	1	0	1	0
27	617	10	10000	1	1	0	1	0
28	618	10	10000	1	1	0	1	0
27	619	10	10000	1	1	0	1	0
30	620	10	10000	1	1	0	1	0
31	621	10	10000	1	1	0	1	0
30	622	10	10000	1	1	0	1	0
29	623	10	10000	1	1	0	1	0
28	624	10	10000	1	1	0	1	0
29	625	10	10000	1	1	0	1	0
28	626	10	10000	1	1	0	1	0
29	627	10	10000	1	1	0	1	0
30	628	10	10000	1	1	0	1	0
31	629	10	10000	1	1	0	1	0
30	630	10	10000	1	1	0	1	0
29	631	10	10000	1	1	0	1	0
30	632	10	10000	1	1	0	1	0
31	633	10	10000	1	1	0	1	0
30	634	10	10000	1	1	0	1	0
31	635	10	10000	1	1	0	1	0
30	636	10	10000	1	1	0	1	0
30	637	10	10000	1	1	0	1	0
31	638	10	10000	1	1	0	1	0
32	639	10	10000	1	1	0	1	0
37	640	10	10000	1	1	0	1	0
41	641	10	10000	1	1	0	1	0
40	642	10	10000	1	1	0	1	0
39	643	10	10000	1	1	0	1	0
38	644	10	10000	1	1	0	1	0
40	645	10	10000	1	1	0	1	0
42	646	10	10000	1	1	0	1	0
44	647	10	10000	1	1	0	1	0
43	648	10	10000	1	1	0	1	0
45	649	10	10000	1	1	0	1	0
52	650	10	10000	1	1	0	1	0
63	651	10	10000	1	1	0	1	0
72	652	10	10000	1	1	0	1	0
75	653	10	10000	1	1	0	1	0
76	654	10	10000	1	1	0	1	0
81	655	10	10000	1	1	0	1	0
83	656	10	10000	1	1	0	1	0
104	657	10	10000	1	1	0	1	0
129	658	10	10000	1	1	0	1	0
137	659	10	10000	1	1	0	1	0
136	660	10	10000	1	1	0	1	0
138	661	10	10000	1	1	0	1	0
133	662	10	10000	1	1	0	1	0
130	663	10	10000	1	1	0	1	0
126	664	10	10000	1	1	0	1	0
129	665	10	10000	1	1	0	1	0
145	666	10	10000	1	1	0	1	0
162	667	10	10000	1	1	0	1	0
167	668	10	10000	1	1	0	1	0
186	669	10	10000	1	1	0	1	0
196	670	10	10000	1	1	0	1	0
196	671	10	10000	1	1	0	1	0
213	672	10	10000	1	1	0	1	0
227	673	10	10000	1	1	0	1	0
237	674	10	10000	1	1	0	1	0
245	675	10	10000	1	1	0	1	0
246	676	10	10000	1	1	0	1	0
244	677	10	10000	1	1	0	1	0
239	678	10	10000	1	1	0	1	0
231	679	10	10000	1	1	0	1	0
223	680	10	10000	1	1	0	1	0
214	681	10	10000	1	1	0	1	0
206	682	10	10000	1	1	0	1	0
197	683	10	10000	1	1	0	1	0
189	684	10	10000	1	1	0	1	0
186	685	10	10000	1	1	0	1	0
187	686	10	10000	1	1	0	1	0
188	687	10	10000	1	1	0	1	0
192	688	10	10000	1	1	0	1	0
195	689	10	10000	1	1	0	1	0
186	690	10	10000	1	1	0	1	0
182	691	10	10000	1	1	0	1	0
175	692	10	10000	1	1	0	1	0
168	693	10	10000	1	1	0	1	0
164	694	10	10000	1	1	0	1	0
158	695	10	10000	1	1	0	1	0
152	696	10	10000	1	1	0	1	0
148	697	10	10000	1	1	0	1	0
145	698	10	10000	1	1	0	1	0
140	699	10	10000	1	1	0	1	0
136	700	10	10000	1	1	0	1	0
133	701	10	10000	1	1	0	1	0
130	702	10	10000	1	1	0	1	0
128	703	10	10000	1	1	0	1	0
124	704	10	10000	1	1	0	1	0
119	705	10	10000	1	1	0	1	0
116	706	10	10000	1	1	0	1	0
112	707	10	10000	1	1	0	1	0
109	708	10	10000	1	1	0	1	0
109	709	10	10000	1	1	0	1	0
104	710	10	10000	1	1	0	1	0
101	711	10	10000	1	1	0	1	0
100	712	10	10000	1	1	0	1	0
99	713	10	10000	1	1	0	1	0
97	714	10	10000	1	1	0	1	0
95	715	10	10000	1	1	0	1	0
94	716	10	10000	1	1	0	1	0
92	717	10	10000	1	1	0	1	0
92	718	10	10000	1	1	0	1	0
90	719	10	10000	1	1	0	1	0
90	720	10	10000	1	1	0	1	0
90	721	10	10000	1	1	0	1	0
86	722	10	10000	1	1	0	1	0
83	723	10	10000	1	1	0	1	0
79	724	10	10000	1	1	0	1	0
76	725	10	10000	1	1	0	1	0
73	726	10	10000	1	1	0	1	0
70	727	10	10000	1	1	0	1	0
69	728	10	10000	1	1	0	1	0
68	729	10	10000	1	1	0	1	0
67	730	10	10000	1	1	0	1	0
65	731	10	10000	1	1	0	1	0
66	732	10	10000	1	1	0	1	0
68	733	10	10000	1	1	0	1	0
69	734	10	10000	1	1	0	1	0
69	735	10	10000	1	1	0	1	0
69	736	10	10000	1	1	0	1	0
69	737	10	10000	1	1	0	1	0
68	738	10	10000	1	1	0	1	0
66	739	10	10000	1	1	0	1	0
65	740	10	10000	1	1	0	1	0
64	741	10	10000	1	1	0	1	0
64	742	10	10000	1	1	0	1	0
67	743	10	10000	1	1	0	1	0
68	744	10	10000	1	1	0	1	0
68	745	10	10000	1	1	0	1	0
68	746	10	10000	1	1	0	1	0
68	747	10	10000	1	1	0	1	0
68	748	10	10000	1	1	0	1	0
67	749	10	10000	1	1	0	1	0
65	750	10	10000	1	1	0	1	0
66	751	10	10000	1	1	0	1	0
67	752	10	10000	1	1	0	1	0
65	753	10	10000	1	1	0	1	0
62	754	10	10000	1	1	0	1	0
60	755	10	10000	1	1	0	1	0
58	756	10	10000	1	1	0	1	0
55	757	10	10000	1	1	0	1	0
55	758	10	10000	1	1	0	1	0
56	759	10	10000	1	1	0	1	0
62	760	10	10000	1	1	0	1	0
67	761	10	10000	1	1	0	1	0
70	762	10	10000	1	1	0	1	0
73	763	10	10000	1	1	0	1	0
73	764	10	10000	1	1	0	1	0
73	765	10	10000	1	1	0	1	0
73	766	10	10000	1	1	0	1	0
74	767	10	10000	1	1	0	1	0
76	768	10	10000	1	1	0	1	0
78	769	10	10000	1	1	0	1	0
76	770	10	10000	1	1	0	1	0
76	771	10	10000	1	1	0	1	0
78	772	10	10000	1	1	0	1	0
80	773	10	10000	1	1	0	1	0
82	774	10	10000	1	1	0	1	0
82	775	10	10000	1	1	0	1	0
81	776	10	10000	1	1	0	1	0
80	777	10	10000	1	1	0	1	0
78	778	10	10000	1	1	0	1	0
76	779	10	10000	1	1	0	1	0
77	780	10	10000	1	1	0	1	0
76	781	10	10000	1	1	0	1	0
74	782	10	10000	1	1	0	1	0
73	783	10	10000	1	1	0	1	0
71	784	10	10000	1	1	0	1	0
69	785	10	10000	1	1	0	1	0
67	786	10	10000	1	1	0	1	0
65	787	10	10000	1	1	0	1	0
64	788	10	10000	1	1	0	1	0
62	789	10	10000	1	1	0	1	0
59	790	10	10000	1	1	0	1	0
56	791	10	10000	1	1	0	1	0
54	792	10	10000	1	1	0	1	0
52	793	10	10000	1	1	0	1	0
51	794	10	10000	1	1	0	1	0
51	795	10	10000	1	1	0	1	0
49	796	10	10000	1	1	0	1	0
49	797	10	10000	1	1	0	1	0
48	798	10	10000	1	1	0	1	0
46	799	10	10000	1	1	0	1	0
47	800	10	10000	1	1	0	1	0
46	801	10	10000	1	1	0	1	0
45	802	10	10000	1	1	0	1	0
44	803	10	10000	1	1	0	1	0
44	804	10	10000	1	1	0	1	0
46	805	10	10000	1	1	0	1	0
46	806	10	10000	1	1	0	1	0
44	807	10	10000	1	1	0	1	0
43	808	10	10000	1	1	0	1	0
43	809	10	10000	1	1	0	1	0
40	810	10	10000	1	1	0	1	0
38	811	10	10000	1	1	0	1	0
37	812	10	10000	1	1	0	1	0
36	813	10	10000	1	1	0	1	0
36	814	10	10000	1	1	0	1	0
35	815	10	10000	1	1	0	1	0
34	816	10	10000	1	1	0	1	0
34	817	10	10000	1	1	0	1	0
33	818	10	10000	1	1	0	1	0
33	819	10	10000	1	1	0	1	0
34	820	10	10000	1	1	0	1	0
34	821	10	10000	1	1	0	1	0
33	822	10	10000	1	1	0	1	0
34	823	10	10000	1	1	0	1	0
37	824	10	10000	1	1	0	1	0
39	825	10	10000	1	1	0	1	0
42	826	10	10000	1	1	0	1	0
42	827	10	10000	1	1	0	1	0
42	828	10	10000	1	1	0	1	0
42	829	10	10000	1	1	0	1	0
42	830	10	10000	1	1	0	1	0
42	831	10	10000	1	1	0	1	0
43	832	10	10000	1	1	0	1	0
43	833	10	10000	1	1	0	1	0
43	834	10	10000	1	1	0	1	0
41	835	10	10000	1	1	0	1	0
40	836	10	10000	1	1	0	1	0
39	837	10	10000	1	1	0	1	0
37	838	10	10000	1	1	0	1	0
36	839	10	10000	1	1	0	1	0
37	840	10	10000	1	1	0	1	0
38	841	10	10000	1	1	0	1	0
36	842	10	10000	1	1	0	1	0
36	843	10	10000	1	1	0	1	0
34	844	10	10000	1	1	0	1	0
33	845	10	10000	1	1	0	1	0
32	846	10	10000	1	1	0	1	0
31	847	10	10000	1	1	0	1	0
30	848	10	10000	1	1	0	1	0
30	849	10	10000	1	1	0	1	0
28	850	10	10000	1	1	0	1	0
29	851	10	10000	1	1	0	1	0
31	852	10	10000	1	1	0	1	0
34	853	10	10000	1	1	0	1	0
38	854	10	10000	1	1	0	1	0
36	855	10	10000	1	1	0	1	0
38	856	10	10000	1	1	0	1	0
40	857	10	10000	1	1	0	1	0
43	858	10	10000	1	1	0	1	0
43	859	10	10000	1	1	0	1	0
44	860	10	10000	1	1	0	1	0
43	861	10	10000	1	1	0	1	0
42	862	10	10000	1	1	0	1	0
45	863	10	10000	1	1	0	1	0
52	864	10	10000	1	1	0	1	0
57	865	10	10000	1	1	0	1	0
57	866	10	10000	1	1	0	1	0
56	867	10	10000	1	1	0	1	0
53	868	10	10000	1	1	0	1	0
53	869	10	10000	1	1	0	1	0
50	870	10	10000	1	1	0	1	0
48	871	10	10000	1	1	0	1	0
46	872	10	10000	1	1	0	1	0
45	873	10	10000	1	1	0	1	0
44	874	10	10000	1	1	0	1	0
42	875	10	10000	1	1	0	1	0
41	876	10	10000	1	1	0	1	0
39	877	10	10000	1	1	0	1	0
37	878	10	10000	1	1	0	1	0
35	879	10	10000	1	1	0	1	0
37	880	10	10000	1	1	0	1	0
39	881	10	10000	1	1	0	1	0
39	882	10	10000	1	1	0	1	0
38	883	10	10000	1	1	0	1	0
37	884	10	10000	1	1	0	1	0
36	885	10	10000	1	1	0	1	0
36	886	10	10000	1	1	0	1	0
35	887	10	10000	1	1	0	1	0
36	888	10	10000	1	1	0	1	0
37	889	10	10000	1	1	0	1	0
37	890	10	10000	1	1	0	1	0
37	891	10	10000	1	1	0	1	0
37	892	10	10000	1	1	0	1	0
36	893	10	10000	1	1	0	1	0
37	894	10	10000	1	1	0	1	0
37	895	10	10000	1	1	0	1	0
35	896	10	10000	1	1	0	1	0
34	897	10	10000	1	1	0	1	0
32	898	10	10000	1	1	0	1	0
31	899	10	10000	1	1	0	1	0
32	900	10	10000	1	1	0	1	0
32	901	10	10000	1	1	0	1	0
32	902	10	10000	1	1	0	1	0
32	903	10	10000	1	1	0	1	0
32	904	10	10000	1	1	0	1	0
32	905	10	10000	1	1	0	1	0
31	906	10	10000	1	1	0	1	0
30	907	10	10000	1	1	0	1	0
32	908	10	10000	1	1	0	1	0
34	909	10	10000	1	1	0	1	0
36	910	10	10000	1	1	0	1	0
37	911	10	10000	1	1	0	1	0
38	912	10	10000	1	1	0	1	0
37	913	10	10000	1	1	0	1	0
37	914	10	10000	1	1	0	1	0
35	915	10	10000	1	1	0	1	0
35	916	10	10000	1	1	0	1	0
34	917	10	10000	1	1	0	1	0
38	918	10	10000	1	1	0	1	0
42	919	10	10000	1	1	0	1	0
47	920	10	10000	1	1	0	1	0
50	921	10	10000	1	1	0	1	0
49	922	10	10000	1	1	0	1	0
47	923	10	10000	1	1	0	1	0
46	924	10	10000	1	1	0	1	0
46	925	10	10000	1	1	0	1	0
44	926	10	10000	1	1	0	1	0
43	927	10	10000	1	1	0	1	0
49	928	10	10000	1	1	0	1	0
54	929	10	10000	1	1	0	1	0
54	930	10	10000	1	1	0	1	0
53	931	10	10000	1	1	0	1	0
52	932	10	10000	1	1	0	1	0
51	933	10	10000	1	1	0	1	0
52	934	10	10000	1	1	0	1	0
52	935	10	10000	1	1	0	1	0
52	936	10	10000	1	1	0	1	0
50	937	10	10000	1	1	0	1	0
50	938	10	10000	1	1	0	1	0
48	939	10	10000	1	1	0	1	0
51	940	10	10000	1	1	0	1	0
51	941	10	10000	1	1	0	1	0
54	942	10	10000	1	1	0	1	0
57	943	10	10000	1	1	0	1	0
58	944	10	10000	1	1	0	1	0
57	945	10	10000	1	1	0	1	0
56	946	10	10000	1	1	0	1	0
57	947	10	10000	1	1	0	1	0
57	948	10	10000	1	1	0	1	0
57	949	10	10000	1	1	0	1	0
54	950	10	10000	1	1	0	1	0
51	951	10	10000	1	1	0	1	0
49	952	10	10000	1	1	0	1	0
48	953	10	10000	1	1	0	1	0
48	954	10	10000	1	1	0	1	0
46	955	10	10000	1	1	0	1	0
46	956	10	10000	1	1	0	1	0
44	957	10	10000	1	1	0	1	0
42	958	10	10000	1	1	0	1	0
41	959	10	10000	1	1	0	1	0
41	960	10	10000	1	1	0	1	0
42	961	10	10000	1	1	0	1	0
42	962	10	10000	1	1	0	1	0
40	963	10	10000	1	1	0	1	0
38	964	10	10000	1	1	0	1	0
37	965	10	10000	1	1	0	1	0
35	966	10	10000	1	1	0	1	0
34	967	10	10000	1	1	0	1	0
35	968	10	10000	1	1	0	1	0
38	969	10	10000	1	1	0	1	0
38	970	10	10000	1	1	0	1	0
37	971	10	10000	1	1	0	1	0
36	972	10	10000	1	1	0	1	0
34	973	10	10000	1	1	0	1	0
33	974	10	10000	1	1	0	1	0
33	975	10	10000	1	1	0	1	0
32	976	10	10000	1	1	0	1	0
32	977	10	10000	1	1	0	1	0
31	978	10	10000	1	1	0	1	0
31	979	10	10000	1	1	0	1	0
32	980	10	10000	1	1	0	1	0
34	981	10	10000	1	1	0	1	0
33	982	10	10000	1	1	0	1	0
33	983	10	10000	1	1	0	1	0
34	984	10	10000	1	1	0	1	0
34	985	10	10000	1	1	0	1	0
34	986	10	10000	1	1	0	1	0
36	987	10	10000	1	1	0	1	0
35	988	10	10000	1	1	0	1	0
35	989	10	10000	1	1	0	1	0
33	990	10	10000	1	1	0	1	0
32	991	10	10000	1	1	0	1	0
32	992	10	10000	1	1	0	1	0
30	993	10	10000	1	1	0	1	0
31	994	10	10000	1	1	0	1	0
31	995	10	10000	1	1	0	1	0
31	996	10	10000	1	1	0	1	0
30	997	10	10000	1	1	0	1	0
29	998	10	10000	1	1	0	1	0
28	999	10	10000	1	1	0	1	0
28	1000	10	10000	1	1	0	1	0
29	1	10	10000	2	1	0	2	0
30	2	10	10000	2	1	0	2	0
29	3	10	10000	2	1	0	2	0
29	4	10	10000	2	1	0	2	0
28	5	10	10000	2	1	0	2	0
25	6	10	10000	2	1	0	2	0
25	7	10	10000	2	1	0	2	0
25	8	10	10000	2	1	0	2	0
30	9	10	10000	2	1	0	2	0
30	10	10	10000	2	1	0	2	0
30	11	10	10000	2	1	0	2	0
29	12	10	10000	2	1	0	2	0
27	13	10	10000	2	1	0	2	0
26	14	10	10000	2	1	0	2	0
26	15	10	10000	2	1	0	2	0
26	16	10	10000	2	1	0	2	0
24	17	10	10000	2	1	0	2	0
24	18	10	10000	2	1	0	2	0
23	19	10	10000	2	1	0	2	0
22	20	10	10000	2	1	0	2	0
21	21	10	10000	2	1	0	2	0
20	22	10	10000	2	1	0	2	0
20	23	10	10000	2	1	0	2	0
21	24	10	10000	2	1	0	2	0
20	25	10	10000	2	1	0	2	0
20	26	10	10000	2	1	0	2	0
21	27	10	10000	2	1	0	2	0
21	28	10	10000	2	1	0	2	0
23	29	10	10000	2	1	0	2	0
23	30	10	10000	2	1	0	2	0
24	31	10	10000	2	1	0	2	0
25	32	10	10000	2	1	0	2	0
23	33	10	10000	2	1	0	2	0
22	34	10	10000	2	1	0	2	0
22	35	10	10000	2	1	0	2	0
23	36	10	10000	2	1	0	2	0
22	37	10	10000	2	1	0	2	0
22	38	10	10000	2	1	0	2	0
21	39	10	10000	2	1	0	2	0
23	40	10	10000	2	1	0	2	0
24	41	10	10000	2	1	0	2	0
23	42	10	10000	2	1	0	2	0
22	43	10	10000	2	1	0	2	0
22	44	10	10000	2	1	0	2	0
21	45	10	10000	2	1	0	2	0
20	46	10	10000	2	1	0	2	0
20	47	10	10000	2	1	0	2	0
21	48	10	10000	2	1	0	2	0
22	49	10	10000	2	1	0	2	0
21	50	10	10000	2	1	0	2	0
22	51	10	10000	2	1	0	2	0
23	52	10	10000	2	1	0	2	0
23	53	10	10000	2	1	0	2	0
22	54	10	10000	2	1	0	2	0
22	55	10	10000	2	1	0	2	0
23	56	10	10000	2	1	0	2	0
22	57	10	10000	2	1	0	2	0
21	58	10	10000	2	1	0	2	0
20	59	10	10000	2	1	0	2	0
21	60	10	10000	2	1	0	2	0
21	61	10	10000	2	1	0	2	0
22	62	10	10000	2	1	0	2	0
22	63	10	10000	2	1	0	2	0
23	64	10	10000	2	1	0	2	0
22	65	10	10000	2	1	0	2	0
20	66	10	10000	2	1	0	2	0
20	67	10	10000	2	1	0	2	0
20	68	10	10000	2	1	0	2	0
21	69	10	10000	2	1	0	2	0
22	70	10	10000	2	1	0	2	0
23	71	10	10000	2	1	0	2	0
24	72	10	10000	2	1	0	2	0
23	73	10	10000	2	1	0	2	0
23	74	10	10000	2	1	0	2	0
24	75	10	10000	2	1	0	2	0
25	76	10	10000	2	1	0	2	0
24	77	10	10000	2	1	0	2	0
23	78	10	10000	2	1	0	2	0
21	79	10	10000	2	1	0	2	0
20	80	10	10000	2	1	0	2	0
20	81	10	10000	2	1	0	2	0
19	82	10	10000	2	1	0	2	0
20	83	10	10000	2	1	0	2	0
19	84	10	10000	2	1	0	2	0
19	85	10	10000	2	1	0	2	0
18	86	10	10000	2	1	0	2	0
18	87	10	10000	2	1	0	2	0
17	88	10	10000	2	1	0	2	0
17	89	10	10000	2	1	0	2	0
16	90	10	10000	2	1	0	2	0
17	91	10	10000	2	1	0	2	0
17	92	10	10000	2	1	0	2	0
16	93	10	10000	2	1	0	2	0
16	94	10	10000	2	1	0	2	0
16	95	10	10000	2	1	0	2	0
17	96	10	10000	2	1	0	2	0
16	97	10	10000	2	1	0	2	0
15	98	10	10000	2	1	0	2	0
16	99	10	10000	2	1	0	2	0
18	100	10	10000	2	1	0	2	0
21	101	10	10000	2	1	0	2	0
20	102	10	10000	2	1	0	2	0
21	103	10	10000	2	1	0	2	0
20	104	10	10000	2	1	0	2	0
20	105	10	10000	2	1	0	2	0
20	106	10	10000	2	1	0	2	0
21	107	10	10000	2	1	0	2	0
24	108	10	10000	2	1	0	2	0
28	109	10	10000	2	1	0	2	0
28	110	10	10000	2	1	0	2	0
28	111	10	10000	2	1	0	2	0
28	112	10	10000	2	1	0	2	0
27	113	10	10000	2	1	0	2	0
28	114	10	10000	2	1	0	2	0
42	115	10	10000	2	1	0	2	0
63	116	10	10000	2	1	0	2	0
70	117	10	10000	2	1	0	2	0
68	118	10	10000	2	1	0	2	0
68	119	10	10000	2	1	0	2	0
79	120	10	10000	2	1	0	2	0
86	121	10	10000	2	1	0	2	0
90	122	10	10000	2	1	0	2	0
107	123	10	10000	2	1	0	2	0
127	124	10	10000	2	1	0	2	0
139	125	10	10000	2	1	0	2	0
136	126	10	10000	2	1	0	2	0
141	127	10	10000	2	1	0	2	0
140	128	10	10000	2	1	0	2	0
136	129	10	10000	2	1	0	2	0
131	130	10	10000	2	1	0	2	0
127	131	10	10000	2	1	0	2	0
129	132	10	10000	2	1	0	2	0
134	133	10	10000	2	1	0	2	0
131	134	10	10000	2	1	0	2	0
131	135	10	10000	2	1	0	2	0
142	136	10	10000	2	1	0	2	0
146	137	10	10000	2	1	0	2	0
148	138	10	10000	2	1	0	2	0
175	139	10	10000	2	1	0	2	0
209	140	10	10000	2	1	0	2	0
211	141	10	10000	2	1	0	2	0
222	142	10	10000	2	1	0	2	0
233	143	10	10000	2	1	0	2	0
234	144	10	10000	2	1	0	2	0
229	145	10	10000	2	1	0	2	0
238	146	10	10000	2	1	0	2	0
262	147	10	10000	2	1	0	2	0
258	148	10	10000	2	1	0	2	0
253	149	10	10000	2	1	0	2	0
262	150	10	10000	2	1	0	2	0
290	151	10	10000	2	1	0	2	0
317	152	10	10000	2	1	0	2	0
331	153	10	10000	2	1	0	2	0
338	154	10	10000	2	1	0	2	0
344	155	10	10000	2	1	0	2	0
349	156	10	10000	2	1	0	2	0
345	157	10	10000	2	1	0	2	0
333	158	10	10000	2	1	0	2	0
320	159	10	10000	2	1	0	2	0
308	160	10	10000	2	1	0	2	0
302	161	10	10000	2	1	0	2	0
300	162	10	10000	2	1	0	2	0
294	163	10	10000	2	1	0	2	0
293	164	10	10000	2	1	0	2	0
291	165	10	10000	2	1	0	2	0
290	166	10	10000	2	1	0	2	0
287	167	10	10000	2	1	0	2	0
291	168	10	10000	2	1	0	2	0
295	169	10	10000	2	1	0	2	0
290	170	10	10000	2	1	0	2	0
297	171	10	10000	2	1	0	2	0
303	172	10	10000	2	1	0	2	0
295	173	10	10000	2	1	0	2	0
301	174	10	10000	2	1	0	2	0
308	175	10	10000	2	1	0	2	0
311	176	10	10000	2	1	0	2	0
308	177	10	10000	2	1	0	2	0
297	178	10	10000	2	1	0	2	0
283	179	10	10000	2	1	0	2	0
272	180	10	10000	2	1	0	2	0
260	181	10	10000	2	1	0	2	0
249	182	10	10000	2	1	0	2	0
240	183	10	10000	2	1	0	2	0
234	184	10	10000	2	1	0	2	0
229	185	10	10000	2	1	0	2	0
220	186	10	10000	2	1	0	2	0
215	187	10	10000	2	1	0	2	0
208	188	10	10000	2	1	0	2	0
202	189	10	10000	2	1	0	2	0
196	190	10	10000	2	1	0	2	0
189	191	10	10000	2	1	0	2	0
181	192	10	10000	2	1	0	2	0
175	193	10	10000	2	1	0	2	0
171	194	10	10000	2	1	0	2	0
171	195	10	10000	2	1	0	2	0
171	196	10	10000	2	1	0	2	0
164	197	10	10000	2	1	0	2	0
155	198	10	10000	2	1	0	2	0
149	199	10	10000	2	1	0	2	0
146	200	10	10000	2	1	0	2	0
145	201	10	10000	2	1	0	2	0
144	202	10	10000	2	1	0	2	0
145	203	10	10000	2	1	0	2	0
145	204	10	10000	2	1	0	2	0
145	205	10	10000	2	1	0	2	0
140	206	10	10000	2	1	0	2	0
137	207	10	10000	2	1	0	2	0
133	208	10	10000	2	1	0	2	0
128	209	10	10000	2	1	0	2	0
123	210	10	10000	2	1	0	2	0
118	211	10	10000	2	1	0	2	0
115	212	10	10000	2	1	0	2	0
110	213	10	10000	2	1	0	2	0
105	214	10	10000	2	1	0	2	0
101	215	10	10000	2	1	0	2	0
100	216	10	10000	2	1	0	2	0
98	217	10	10000	2	1	0	2	0
95	218	10	10000	2	1	0	2	0
95	219	10	10000	2	1	0	2	0
96	220	10	10000	2	1	0	2	0
96	221	10	10000	2	1	0	2	0
96	222	10	10000	2	1	0	2	0
97	223	10	10000	2	1	0	2	0
97	224	10	10000	2	1	0	2	0
97	225	10	10000	2	1	0	2	0
96	226	10	10000	2	1	0	2	0
96	227	10	10000	2	1	0	2	0
97	228	10	10000	2	1	0	2	0
96	229	10	10000	2	1	0	2	0
95	230	10	10000	2	1	0	2	0
95	231	10	10000	2	1	0	2	0
94	232	10	10000	2	1	0	2	0
93	233	10	10000	2	1	0	2	0
93	234	10	10000	2	1	0	2	0
91	235	10	10000	2	1	0	2	0
92	236	10	10000	2	1	0	2	0
91	237	10	10000	2	1	0	2	0
89	238	10	10000	2	1	0	2	0
88	239	10	10000	2	1	0	2	0
86	240	10	10000	2	1	0	2	0
84	241	10	10000	2	1	0	2	0
84	242	10	10000	2	1	0	2	0
85	243	10	10000	2	1	0	2	0
87	244	10	10000	2	1	0	2	0
87	245	10	10000	2	1	0	2	0
85	246	10	10000	2	1	0	2	0
83	247	10	10000	2	1	0	2	0
83	248	10	10000	2	1	0	2	0
83	249	10	10000	2	1	0	2	0
82	250	10	10000	2	1	0	2	0
82	251	10	10000	2	1	0	2	0
81	252	10	10000	2	1	0	2	0
79	253	10	10000	2	1	0	2	0
77	254	10	10000	2	1	0	2	0
74	255	10	10000	2	1	0	2	0
73	256	10	10000	2	1	0	2	0
70	257	10	10000	2	1	0	2	0
68	258	10	10000	2	1	0	2	0
66	259	10	10000	2	1	0	2	0
65	260	10	10000	2	1	0	2	0
64	261	10	10000	2	1	0	2	0
63	262	10	10000	2	1	0	2	0
62	263	10	10000	2	1	0	2	0
60	264	10	10000	2	1	0	2	0
58	265	10	10000	2	1	0	2	0
57	266	10	10000	2	1	0	2	0
56	267	10	10000	2	1	0	2	0
55	268	10	10000	2	1	0	2	0
54	269	10	10000	2	1	0	2	0
53	270	10	10000	2	1	0	2	0
52	271	10	10000	2	1	0	2	0
50	272	10	10000	2	1	0	2	0
47	273	10	10000	2	1	0	2	0
44	274	10	10000	2	1	0	2	0
44	275	10	10000	2	1	0	2	0
45	276	10	10000	2	1	0	2	0
44	277	10	10000	2	1	0	2	0
44	278	10	10000	2	1	0	2	0
43	279	10	10000	2	1	0	2	0
42	280	10	10000	2	1	0	2	0
41	281	10	10000	2	1	0	2	0
40	282	10	10000	2	1	0	2	0
40	283	10	10000	2	1	0	2	0
39	284	10	10000	2	1	0	2	0
38	285	10	10000	2	1	0	2	0
35	286	10	10000	2	1	0	2	0
36	287	10	10000	2	1	0	2	0
39	288	10	10000	2	1	0	2	0
39	289	10	10000	2	1	0	2	0
38	290	10	10000	2	1	0	2	0
37	291	10	10000	2	1	0	2	0
36	292	10	10000	2	1	0	2	0
36	293	10	10000	2	1	0	2	0
40	294	10	10000	2	1	0	2	0
44	295	10	10000	2	1	0	2	0
47	296	10	10000	2	1	0	2	0
45	297	10	10000	2	1	0	2	0
44	298	10	10000	2	1	0	2	0
44	299	10	10000	2	1	0	2	0
42	300	10	10000	2	1	0	2	0
41	301	10	10000	2	1	0	2	0
39	302	10	10000	2	1	0	2	0
38	303	10	10000	2	1	0	2	0
38	304	10	10000	2	1	0	2	0
37	305	10	10000	2	1	0	2	0
33	306	10	10000	2	1	0	2	0
34	307	10	10000	2	1	0	2	0
35	308	10	10000	2	1	0	2	0
35	309	10	10000	2	1	0	2	0
34	310	10	10000	2	1	0	2	0
34	311	10	10000	2	1	0	2	0
34	312	10	10000	2	1	0	2	0
34	313	10	10000	2	1	0	2	0
34	314	10	10000	2	1	0	2	0
34	315	10	10000	2	1	0	2	0
35	316	10	10000	2	1	0	2	0
34	317	10	10000	2	1	0	2	0
32	318	10	10000	2	1	0	2	0
33	319	10	10000	2	1	0	2	0
33	320	10	10000	2	1	0	2	0
32	321	10	10000	2	1	0	2	0
32	322	10	10000	2	1	0	2	0
32	323	10	10000	2	1	0	2	0
34	324	10	10000	2	1	0	2	0
36	325	10	10000	2	1	0	2	0
33	326	10	10000	2	1	0	2	0
32	327	10	10000	2	1	0	2	0
32	328	10	10000	2	1	0	2	0
34	329	10	10000	2	1	0	2	0
35	330	10	10000	2	1	0	2	0
37	331	10	10000	2	1	0	2	0
37	332	10	10000	2	1	0	2	0
36	333	10	10000	2	1	0	2	0
35	334	10	10000	2	1	0	2	0
34	335	10	10000	2	1	0	2	0
35	336	10	10000	2	1	0	2	0
33	337	10	10000	2	1	0	2	0
34	338	10	10000	2	1	0	2	0
36	339	10	10000	2	1	0	2	0
37	340	10	10000	2	1	0	2	0
36	341	10	10000	2	1	0	2	0
36	342	10	10000	2	1	0	2	0
35	343	10	10000	2	1	0	2	0
34	344	10	10000	2	1	0	2	0
33	345	10	10000	2	1	0	2	0
30	346	10	10000	2	1	0	2	0
31	347	10	10000	2	1	0	2	0
30	348	10	10000	2	1	0	2	0
30	349	10	10000	2	1	0	2	0
31	350	10	10000	2	1	0	2	0
32	351	10	10000	2	1	0	2	0
32	352	10	10000	2	1	0	2	0
31	353	10	10000	2	1	0	2	0
31	354	10	10000	2	1	0	2	0
30	355	10	10000	2	1	0	2	0
33	356	10	10000	2	1	0	2	0
35	357	10	10000	2	1	0	2	0
37	358	10	10000	2	1	0	2	0
37	359	10	10000	2	1	0	2	0
35	360	10	10000	2	1	0	2	0
34	361	10	10000	2	1	0	2	0
34	362	10	10000	2	1	0	2	0
35	363	10	10000	2	1	0	2	0
34	364	10	10000	2	1	0	2	0
33	365	10	10000	2	1	0	2	0
30	366	10	10000	2	1	0	2	0
32	367	10	10000	2	1	0	2	0
33	368	10	10000	2	1	0	2	0
33	369	10	10000	2	1	0	2	0
32	370	10	10000	2	1	0	2	0
32	371	10	10000	2	1	0	2	0
31	372	10	10000	2	1	0	2	0
29	373	10	10000	2	1	0	2	0
28	374	10	10000	2	1	0	2	0
28	375	10	10000	2	1	0	2	0
31	376	10	10000	2	1	0	2	0
31	377	10	10000	2	1	0	2	0
31	378	10	10000	2	1	0	2	0
30	379	10	10000	2	1	0	2	0
28	380	10	10000	2	1	0	2	0
27	381	10	10000	2	1	0	2	0
27	382	10	10000	2	1	0	2	0
28	383	10	10000	2	1	0	2	0
28	384	10	10000	2	1	0	2	0
28	385	10	10000	2	1	0	2	0
25	386	10	10000	2	1	0	2	0
25	387	10	10000	2	1	0	2	0
25	388	10	10000	2	1	0	2	0
24	389	10	10000	2	1	0	2	0
24	390	10	10000	2	1	0	2	0
23	391	10	10000	2	1	0	2	0
23	392	10	10000	2	1	0	2	0
22	393	10	10000	2	1	0	2	0
21	394	10	10000	2	1	0	2	0
21	395	10	10000	2	1	0	2	0
25	396	10	10000	2	1	0	2	0
26	397	10	10000	2	1	0	2	0
26	398	10	10000	2	1	0	2	0
28	399	10	10000	2	1	0	2	0
27	400	10	10000	2	1	0	2	0
26	401	10	10000	2	1	0	2	0
26	402	10	10000	2	1	0	2	0
27	403	10	10000	2	1	0	2	0
27	404	10	10000	2	1	0	2	0
27	405	10	10000	2	1	0	2	0
26	406	10	10000	2	1	0	2	0
27	407	10	10000	2	1	0	2	0
26	408	10	10000	2	1	0	2	0
26	409	10	10000	2	1	0	2	0
27	410	10	10000	2	1	0	2	0
26	411	10	10000	2	1	0	2	0
26	412	10	10000	2	1	0	2	0
25	413	10	10000	2	1	0	2	0
24	414	10	10000	2	1	0	2	0
24	415	10	10000	2	1	0	2	0
28	416	10	10000	2	1	0	2	0
27	417	10	10000	2	1	0	2	0
27	418	10	10000	2	1	0	2	0
26	419	10	10000	2	1	0	2	0
25	420	10	10000	2	1	0	2	0
24	421	10	10000	2	1	0	2	0
24	422	10	10000	2	1	0	2	0
24	423	10	10000	2	1	0	2	0
24	424	10	10000	2	1	0	2	0
23	425	10	10000	2	1	0	2	0
21	426	10	10000	2	1	0	2	0
22	427	10	10000	2	1	0	2	0
22	428	10	10000	2	1	0	2	0
23	429	10	10000	2	1	0	2	0
22	430	10	10000	2	1	0	2	0
22	431	10	10000	2	1	0	2	0
21	432	10	10000	2	1	0	2	0
20	433	10	10000	2	1	0	2	0
19	434	10	10000	2	1	0	2	0
19	435	10	10000	2	1	0	2	0
21	436	10	10000	2	1	0	2	0
20	437	10	10000	2	1	0	2	0
20	438	10	10000	2	1	0	2	0
19	439	10	10000	2	1	0	2	0
20	440	10	10000	2	1	0	2	0
21	441	10	10000	2	1	0	2	0
21	442	10	10000	2	1	0	2	0
23	443	10	10000	2	1	0	2	0
25	444	10	10000	2	1	0	2	0
26	445	10	10000	2	1	0	2	0
23	446	10	10000	2	1	0	2	0
24	447	10	10000	2	1	0	2	0
26	448	10	10000	2	1	0	2	0
28	449	10	10000	2	1	0	2	0
29	450	10	10000	2	1	0	2	0
29	451	10	10000	2	1	0	2	0
32	452	10	10000	2	1	0	2	0
33	453	10	10000	2	1	0	2	0
31	454	10	10000	2	1	0	2	0
31	455	10	10000	2	1	0	2	0
31	456	10	10000	2	1	0	2	0
30	457	10	10000	2	1	0	2	0
29	458	10	10000	2	1	0	2	0
29	459	10	10000	2	1	0	2	0
27	460	10	10000	2	1	0	2	0
27	461	10	10000	2	1	0	2	0
25	462	10	10000	2	1	0	2	0
25	463	10	10000	2	1	0	2	0
25	464	10	10000	2	1	0	2	0
24	465	10	10000	2	1	0	2	0
22	466	10	10000	2	1	0	2	0
23	467	10	10000	2	1	0	2	0
24	468	10	10000	2	1	0	2	0
24	469	10	10000	2	1	0	2	0
25	470	10	10000	2	1	0	2	0
23	471	10	10000	2	1	0	2	0
23	472	10	10000	2	1	0	2	0
23	473	10	10000	2	1	0	2	0
22	474	10	10000	2	1	0	2	0
22	475	10	10000	2	1	0	2	0
24	476	10	10000	2	1	0	2	0
23	477	10	10000	2	1	0	2	0
22	478	10	10000	2	1	0	2	0
21	479	10	10000	2	1	0	2	0
21	480	10	10000	2	1	0	2	0
20	481	10	10000	2	1	0	2	0
20	482	10	10000	2	1	0	2	0
20	483	10	10000	2	1	0	2	0
21	484	10	10000	2	1	0	2	0
22	485	10	10000	2	1	0	2	0
21	486	10	10000	2	1	0	2	0
23	487	10	10000	2	1	0	2	0
24	488	10	10000	2	1	0	2	0
25	489	10	10000	2	1	0	2	0
24	490	10	10000	2	1	0	2	0
24	491	10	10000	2	1	0	2	0
26	492	10	10000	2	1	0	2	0
27	493	10	10000	2	1	0	2	0
25	494	10	10000	2	1	0	2	0
26	495	10	10000	2	1	0	2	0
29	496	10	10000	2	1	0	2	0
28	497	10	10000	2	1	0	2	0
27	498	10	10000	2	1	0	2	0
27	499	10	10000	2	1	0	2	0
26	500	10	10000	2	1	0	2	0
26	501	10	10000	2	1	0	2	1
28	502	10	10000	2	1	0	2	1
30	503	10	10000	2	1	0	2	1
33	504	10	10000	2	1	0	2	1
35	505	10	10000	2	1	0	2	1
33	506	10	10000	2	1	0	2	1
33	507	10	10000	2	1	0	2	1
32	508	10	10000	2	1	0	2	1
31	509	10	10000	2	1	0	2	1
31	510	10	10000	2	1	0	2	1
30	511	10	10000	2	1	0	2	1
30	512	10	10000	2	1	0	2	1
29	513	10	10000	2	1	0	2	1
27	514	10	10000	2	1	0	2	1
27	515	10	10000	2	1	0	2	1
30	516	10	10000	2	1	0	2	1
29	517	10	10000	2	1	0	2	1
27	518	10	10000	2	1	0	2	1
26	519	10	10000	2	1	0	2	1
25	520	10	10000	2	1	0	2	1
24	521	10	10000	2	1	0	2	1
23	522	10	10000	2	1	0	2	1
23	523	10	10000	2	1	0	2	1
23	524	10	10000	2	1	0	2	1
21	525	10	10000	2	1	0	2	1
20	526	10	10000	2	1	0	2	1
20	527	10	10000	2	1	0	2	1
20	528	10	10000	2	1	0	2	1
21	529	10	10000	2	1	0	2	1
22	530	10	10000	2	1	0	2	1
23	531	10	10000	2	1	0	2	1
25	532	10	10000	2	1	0	2	1
25	533	10	10000	2	1	0	2	1
24	534	10	10000	2	1	0	2	1
23	535	10	10000	2	1	0	2	1
25	536	10	10000	2	1	0	2	1
24	537	10	10000	2	1	0	2	1
23	538	10	10000	2	1	0	2	1
23	539	10	10000	2	1	0	2	1
24	540	10	10000	2	1	0	2	1
25	541	10	10000	2	1	0	2	1
23	542	10	10000	2	1	0	2	1
23	543	10	10000	2	1	0	2	1
23	544	10	10000	2	1	0	2	1
23	545	10	10000	2	1	0	2	1
20	546	10	10000	2	1	0	2	1
20	547	10	10000	2	1	0	2	1
20	548	10	10000	2	1	0	2	1
20	549	10	10000	2	1	0	2	1
20	550	10	10000	2	1	0	2	1
20	551	10	10000	2	1	0	2	0
19	552	10	10000	2	1	0	2	0
18	553	10	10000	2	1	0	2	0
17	554	10	10000	2	1	0	2	0
17	555	10	10000	2	1	0	2	0
18	556	10	10000	2	1	0	2	0
17	557	10	10000	2	1	0	2	0
17	558	10	10000	2	1	0	2	0
17	559	10	10000	2	1	0	2	0
16	560	10	10000	2	1	0	2	0
18	561	10	10000	2	1	0	2	0
18	562	10	10000	2	1	0	2	0
19	563	10	10000	2	1	0	2	0
21	564	10	10000	2	1	0	2	0
21	565	10	10000	2	1	0	2	0
21	566	10	10000	2	1	0	2	0
22	567	10	10000	2	1	0	2	0
22	568	10	10000	2	1	0	2	0
21	569	10	10000	2	1	0	2	0
21	570	10	10000	2	1	0	2	0
20	571	10	10000	2	1	0	2	0
19	572	10	10000	2	1	0	2	0
18	573	10	10000	2	1	0	2	0
18	574	10	10000	2	1	0	2	0
17	575	10	10000	2	1	0	2	0
18	576	10	10000	2	1	0	2	0
18	577	10	10000	2	1	0	2	0
18	578	10	10000	2	1	0	2	0
16	579	10	10000	2	1	0	2	0
17	580	10	10000	2	1	0	2	0
17	581	10	10000	2	1	0	2	0
16	582	10	10000	2	1	0	2	0
16	583	10	10000	2	1	0	2	0
17	584	10	10000	2	1	0	2	0
17	585	10	10000	2	1	0	2	0
14	586	10	10000	2	1	0	2	0
14	587	10	10000	2	1	0	2	0
17	588	10	10000	2	1	0	2	0
18	589	10	10000	2	1	0	2	0
21	590	10	10000	2	1	0	2	0
24	591	10	10000	2	1	0	2	0
23	592	10	10000	2	1	0	2	0
25	593	10	10000	2	1	0	2	0
30	594	10	10000	2	1	0	2	0
33	595	10	10000	2	1	0	2	0
38	596	10	10000	2	1	0	2	0
38	597	10	10000	2	1	0	2	0
38	598	10	10000	2	1	0	2	0
37	599	10	10000	2	1	0	2	0
37	600	10	10000	2	1	0	2	0
39	601	10	10000	2	1	0	2	0
40	602	10	10000	2	1	0	2	0
49	603	10	10000	2	1	0	2	0
62	604	10	10000	2	1	0	2	0
76	605	10	10000	2	1	0	2	0
75	606	10	10000	2	1	0	2	0
80	607	10	10000	2	1	0	2	0
80	608	10	10000	2	1	0	2	0
80	609	10	10000	2	1	0	2	0
83	610	10	10000	2	1	0	2	0
92	611	10	10000	2	1	0	2	0
94	612	10	10000	2	1	0	2	0
98	613	10	10000	2	1	0	2	0
99	614	10	10000	2	1	0	2	0
119	615	10	10000	2	1	0	2	0
145	616	10	10000	2	1	0	2	0
145	617	10	10000	2	1	0	2	0
141	618	10	10000	2	1	0	2	0
134	619	10	10000	2	1	0	2	0
129	620	10	10000	2	1	0	2	0
135	621	10	10000	2	1	0	2	0
152	622	10	10000	2	1	0	2	0
152	623	10	10000	2	1	0	2	0
161	624	10	10000	2	1	0	2	0
158	625	10	10000	2	1	0	2	0
156	626	10	10000	2	1	0	2	0
161	627	10	10000	2	1	0	2	0
156	628	10	10000	2	1	0	2	0
151	629	10	10000	2	1	0	2	0
156	630	10	10000	2	1	0	2	0
163	631	10	10000	2	1	0	2	0
161	632	10	10000	2	1	0	2	0
153	633	10	10000	2	1	0	2	0
155	634	10	10000	2	1	0	2	0
164	635	10	10000	2	1	0	2	0
169	636	10	10000	2	1	0	2	0
166	637	10	10000	2	1	0	2	0
160	638	10	10000	2	1	0	2	0
158	639	10	10000	2	1	0	2	0
156	640	10	10000	2	1	0	2	0
155	641	10	10000	2	1	0	2	0
152	642	10	10000	2	1	0	2	0
148	643	10	10000	2	1	0	2	0
143	644	10	10000	2	1	0	2	0
138	645	10	10000	2	1	0	2	0
130	646	10	10000	2	1	0	2	0
125	647	10	10000	2	1	0	2	0
119	648	10	10000	2	1	0	2	0
116	649	10	10000	2	1	0	2	0
113	650	10	10000	2	1	0	2	0
110	651	10	10000	2	1	0	2	0
107	652	10	10000	2	1	0	2	0
104	653	10	10000	2	1	0	2	0
103	654	10	10000	2	1	0	2	0
102	655	10	10000	2	1	0	2	0
102	656	10	10000	2	1	0	2	0
101	657	10	10000	2	1	0	2	0
100	658	10	10000	2	1	0	2	0
100	659	10	10000	2	1	0	2	0
100	660	10	10000	2	1	0	2	0
100	661	10	10000	2	1	0	2	0
100	662	10	10000	2	1	0	2	0
101	663	10	10000	2	1	0	2	0
103	664	10	10000	2	1	0	2	0
104	665	10	10000	2	1	0	2	0
103	666	10	10000	2	1	0	2	0
103	667	10	10000	2	1	0	2	0
103	668	10	10000	2	1	0	2	0
103	669	10	10000	2	1	0	2	0
101	670	10	10000	2	1	0	2	0
100	671	10	10000	2	1	0	2	0
100	672	10	10000	2	1	0	2	0
96	673	10	10000	2	1	0	2	0
92	674	10	10000	2	1	0	2	0
89	675	10	10000	2	1	0	2	0
88	676	10	10000	2	1	0	2	0
84	677	10	10000	2	1	0	2	0
81	678	10	10000	2	1	0	2	0
79	679	10	10000	2	1	0	2	0
75	680	10	10000	2	1	0	2	0
73	681	10	10000	2	1	0	2	0
70	682	10	10000	2	1	0	2	0
69	683	10	10000	2	1	0	2	0
68	684	10	10000	2	1	0	2	0
68	685	10	10000	2	1	0	2	0
66	686	10	10000	2	1	0	2	0
67	687	10	10000	2	1	0	2	0
68	688	10	10000	2	1	0	2	0
69	689	10	10000	2	1	0	2	0
70	690	10	10000	2	1	0	2	0
74	691	10	10000	2	1	0	2	0
79	692	10	10000	2	1	0	2	0
81	693	10	10000	2	1	0	2	0
84	694	10	10000	2	1	0	2	0
87	695	10	10000	2	1	0	2	0
93	696	10	10000	2	1	0	2	0
95	697	10	10000	2	1	0	2	0
97	698	10	10000	2	1	0	2	0
99	699	10	10000	2	1	0	2	0
101	700	10	10000	2	1	0	2	0
103	701	10	10000	2	1	0	2	0
104	702	10	10000	2	1	0	2	0
105	703	10	10000	2	1	0	2	0
107	704	10	10000	2	1	0	2	0
108	705	10	10000	2	1	0	2	0
107	706	10	10000	2	1	0	2	0
107	707	10	10000	2	1	0	2	0
108	708	10	10000	2	1	0	2	0
111	709	10	10000	2	1	0	2	0
113	710	10	10000	2	1	0	2	0
114	711	10	10000	2	1	0	2	0
115	712	10	10000	2	1	0	2	0
117	713	10	10000	2	1	0	2	0
120	714	10	10000	2	1	0	2	0
121	715	10	10000	2	1	0	2	0
123	716	10	10000	2	1	0	2	0
121	717	10	10000	2	1	0	2	0
119	718	10	10000	2	1	0	2	0
117	719	10	10000	2	1	0	2	0
116	720	10	10000	2	1	0	2	0
116	721	10	10000	2	1	0	2	0
114	722	10	10000	2	1	0	2	0
113	723	10	10000	2	1	0	2	0
110	724	10	10000	2	1	0	2	0
107	725	10	10000	2	1	0	2	0
103	726	10	10000	2	1	0	2	0
99	727	10	10000	2	1	0	2	0
96	728	10	10000	2	1	0	2	0
93	729	10	10000	2	1	0	2	0
90	730	10	10000	2	1	0	2	0
89	731	10	10000	2	1	0	2	0
90	732	10	10000	2	1	0	2	0
91	733	10	10000	2	1	0	2	0
93	734	10	10000	2	1	0	2	0
94	735	10	10000	2	1	0	2	0
93	736	10	10000	2	1	0	2	0
89	737	10	10000	2	1	0	2	0
86	738	10	10000	2	1	0	2	0
83	739	10	10000	2	1	0	2	0
80	740	10	10000	2	1	0	2	0
78	741	10	10000	2	1	0	2	0
74	742	10	10000	2	1	0	2	0
73	743	10	10000	2	1	0	2	0
70	744	10	10000	2	1	0	2	0
68	745	10	10000	2	1	0	2	0
64	746	10	10000	2	1	0	2	0
60	747	10	10000	2	1	0	2	0
58	748	10	10000	2	1	0	2	0
56	749	10	10000	2	1	0	2	0
55	750	10	10000	2	1	0	2	0
53	751	10	10000	2	1	0	2	0
52	752	10	10000	2	1	0	2	0
50	753	10	10000	2	1	0	2	0
48	754	10	10000	2	1	0	2	0
46	755	10	10000	2	1	0	2	0
47	756	10	10000	2	1	0	2	0
46	757	10	10000	2	1	0	2	0
45	758	10	10000	2	1	0	2	0
44	759	10	10000	2	1	0	2	0
43	760	10	10000	2	1	0	2	0
42	761	10	10000	2	1	0	2	0
40	762	10	10000	2	1	0	2	0
40	763	10	10000	2	1	0	2	0
38	764	10	10000	2	1	0	2	0
38	765	10	10000	2	1	0	2	0
37	766	10	10000	2	1	0	2	0
38	767	10	10000	2	1	0	2	0
39	768	10	10000	2	1	0	2	0
42	769	10	10000	2	1	0	2	0
43	770	10	10000	2	1	0	2	0
43	771	10	10000	2	1	0	2	0
43	772	10	10000	2	1	0	2	0
42	773	10	10000	2	1	0	2	0
41	774	10	10000	2	1	0	2	0
40	775	10	10000	2	1	0	2	0
43	776	10	10000	2	1	0	2	0
43	777	10	10000	2	1	0	2	0
44	778	10	10000	2	1	0	2	0
44	779	10	10000	2	1	0	2	0
44	780	10	10000	2	1	0	2	0
44	781	10	10000	2	1	0	2	0
46	782	10	10000	2	1	0	2	0
47	783	10	10000	2	1	0	2	0
47	784	10	10000	2	1	0	2	0
48	785	10	10000	2	1	0	2	0
46	786	10	10000	2	1	0	2	0
45	787	10	10000	2	1	0	2	0
44	788	10	10000	2	1	0	2	0
46	789	10	10000	2	1	0	2	0
48	790	10	10000	2	1	0	2	0
49	791	10	10000	2	1	0	2	0
49	792	10	10000	2	1	0	2	0
47	793	10	10000	2	1	0	2	0
45	794	10	10000	2	1	0	2	0
44	795	10	10000	2	1	0	2	0
45	796	10	10000	2	1	0	2	0
46	797	10	10000	2	1	0	2	0
44	798	10	10000	2	1	0	2	0
42	799	10	10000	2	1	0	2	0
43	800	10	10000	2	1	0	2	0
41	801	10	10000	2	1	0	2	0
40	802	10	10000	2	1	0	2	0
43	803	10	10000	2	1	0	2	0
43	804	10	10000	2	1	0	2	0
41	805	10	10000	2	1	0	2	0
37	806	10	10000	2	1	0	2	0
36	807	10	10000	2	1	0	2	0
35	808	10	10000	2	1	0	2	0
34	809	10	10000	2	1	0	2	0
34	810	10	10000	2	1	0	2	0
33	811	10	10000	2	1	0	2	0
33	812	10	10000	2	1	0	2	0
32	813	10	10000	2	1	0	2	0
30	814	10	10000	2	1	0	2	0
28	815	10	10000	2	1	0	2	0
31	816	10	10000	2	1	0	2	0
32	817	10	10000	2	1	0	2	0
31	818	10	10000	2	1	0	2	0
31	819	10	10000	2	1	0	2	0
32	820	10	10000	2	1	0	2	0
32	821	10	10000	2	1	0	2	0
34	822	10	10000	2	1	0	2	0
36	823	10	10000	2	1	0	2	0
36	824	10	10000	2	1	0	2	0
35	825	10	10000	2	1	0	2	0
32	826	10	10000	2	1	0	2	0
32	827	10	10000	2	1	0	2	0
31	828	10	10000	2	1	0	2	0
30	829	10	10000	2	1	0	2	0
29	830	10	10000	2	1	0	2	0
28	831	10	10000	2	1	0	2	0
27	832	10	10000	2	1	0	2	0
26	833	10	10000	2	1	0	2	0
26	834	10	10000	2	1	0	2	0
24	835	10	10000	2	1	0	2	0
25	836	10	10000	2	1	0	2	0
25	837	10	10000	2	1	0	2	0
23	838	10	10000	2	1	0	2	0
24	839	10	10000	2	1	0	2	0
25	840	10	10000	2	1	0	2	0
26	841	10	10000	2	1	0	2	0
26	842	10	10000	2	1	0	2	0
26	843	10	10000	2	1	0	2	0
26	844	10	10000	2	1	0	2	0
25	845	10	10000	2	1	0	2	0
22	846	10	10000	2	1	0	2	0
23	847	10	10000	2	1	0	2	0
24	848	10	10000	2	1	0	2	0
24	849	10	10000	2	1	0	2	0
24	850	10	10000	2	1	0	2	0
23	851	10	10000	2	1	0	2	0
22	852	10	10000	2	1	0	2	0
23	853	10	10000	2	1	0	2	0
23	854	10	10000	2	1	0	2	0
22	855	10	10000	2	1	0	2	0
23	856	10	10000	2	1	0	2	0
22	857	10	10000	2	1	0	2	0
22	858	10	10000	2	1	0	2	0
23	859	10	10000	2	1	0	2	0
23	860	10	10000	2	1	0	2	0
24	861	10	10000	2	1	0	2	0
23	862	10	10000	2	1	0	2	0
24	863	10	10000	2	1	0	2	0
23	864	10	10000	2	1	0	2	0
22	865	10	10000	2	1	0	2	0
21	866	10	10000	2	1	0	2	0
20	867	10	10000	2	1	0	2	0
20	868	10	10000	2	1	0	2	0
20	869	10	10000	2	1	0	2	0
20	870	10	10000	2	1	0	2	0
20	871	10	10000	2	1	0	2	0
20	872	10	10000	2	1	0	2	0
20	873	10	10000	2	1	0	2	0
22	874	10	10000	2	1	0	2	0
21	875	10	10000	2	1	0	2	0
22	876	10	10000	2	1	0	2	0
22	877	10	10000	2	1	0	2	0
21	878	10	10000	2	1	0	2	0
21	879	10	10000	2	1	0	2	0
21	880	10	10000	2	1	0	2	0
21	881	10	10000	2	1	0	2	0
20	882	10	10000	2	1	0	2	0
21	883	10	10000	2	1	0	2	0
20	884	10	10000	2	1	0	2	0
20	885	10	10000	2	1	0	2	0
17	886	10	10000	2	1	0	2	0
17	887	10	10000	2	1	0	2	0
17	888	10	10000	2	1	0	2	0
16	889	10	10000	2	1	0	2	0
16	890	10	10000	2	1	0	2	0
18	891	10	10000	2	1	0	2	0
17	892	10	10000	2	1	0	2	0
16	893	10	10000	2	1	0	2	0
16	894	10	10000	2	1	0	2	0
15	895	10	10000	2	1	0	2	0
17	896	10	10000	2	1	0	2	0
18	897	10	10000	2	1	0	2	0
17	898	10	10000	2	1	0	2	0
18	899	10	10000	2	1	0	2	0
19	900	10	10000	2	1	0	2	0
20	901	10	10000	2	1	0	2	0
22	902	10	10000	2	1	0	2	0
25	903	10	10000	2	1	0	2	0
26	904	10	10000	2	1	0	2	0
28	905	10	10000	2	1	0	2	0
25	906	10	10000	2	1	0	2	0
24	907	10	10000	2	1	0	2	0
24	908	10	10000	2	1	0	2	0
22	909	10	10000	2	1	0	2	0
22	910	10	10000	2	1	0	2	0
22	911	10	10000	2	1	0	2	0
22	912	10	10000	2	1	0	2	0
23	913	10	10000	2	1	0	2	0
24	914	10	10000	2	1	0	2	0
25	915	10	10000	2	1	0	2	0
26	916	10	10000	2	1	0	2	0
26	917	10	10000	2	1	0	2	0
27	918	10	10000	2	1	0	2	0
26	919	10	10000	2	1	0	2	0
26	920	10	10000	2	1	0	2	0
25	921	10	10000	2	1	0	2	0
24	922	10	10000	2	1	0	2	0
23	923	10	10000	2	1	0	2	0
23	924	10	10000	2	1	0	2	0
25	925	10	10000	2	1	0	2	0
23	926	10	10000	2	1	0	2	0
24	927	10	10000	2	1	0	2	0
25	928	10	10000	2	1	0	2	0
24	929	10	10000	2	1	0	2	0
23	930	10	10000	2	1	0	2	0
23	931	10	10000	2	1	0	2	0
23	932	10	10000	2	1	0	2	0
22	933	10	10000	2	1	0	2	0
22	934	10	10000	2	1	0	2	0
21	935	10	10000	2	1	0	2	0
24	936	10	10000	2	1	0	2	0
24	937	10	10000	2	1	0	2	0
23	938	10	10000	2	1	0	2	0
22	939	10	10000	2	1	0	2	0
21	940	10	10000	2	1	0	2	0
20	941	10	10000	2	1	0	2	0
20	942	10	10000	2	1	0	2	0
21	943	10	10000	2	1	0	2	0
21	944	10	10000	2	1	0	2	0
21	945	10	10000	2	1	0	2	0
19	946	10	10000	2	1	0	2	0
19	947	10	10000	2	1	0	2	0
20	948	10	10000	2	1	0	2	0
19	949	10	10000	2	1	0	2	0
19	950	10	10000	2	1	0	2	0
18	951	10	10000	2	1	0	2	0
19	952	10	10000	2	1	0	2	0
17	953	10	10000	2	1	0	2	0
17	954	10	10000	2	1	0	2	0
16	955	10	10000	2	1	0	2	0
18	956	10	10000	2	1	0	2	0
18	957	10	10000	2	1	0	2	0
18	958	10	10000	2	1	0	2	0
18	959	10	10000	2	1	0	2	0
19	960	10	10000	2	1	0	2	0
18	961	10	10000	2	1	0	2	0
19	962	10	10000	2	1	0	2	0
20	963	10	10000	2	1	0	2	0
20	964	10	10000	2	1	0	2	0
23	965	10	10000	2	1	0	2	0
22	966	10	10000	2	1	0	2	0
23	967	10	10000	2	1	0	2	0
23	968	10	10000	2	1	0	2	0
23	969	10	10000	2	1	0	2	0
23	970	10	10000	2	1	0	2	0
24	971	10	10000	2	1	0	2	0
27	972	10	10000	2	1	0	2	0
28	973	10	10000	2	1	0	2	0
28	974	10	10000	2	1	0	2	0
28	975	10	10000	2	1	0	2	0
30	976	10	10000	2	1	0	2	0
29	977	10	10000	2	1	0	2	0
30	978	10	10000	2	1	0	2	0
30	979	10	10000	2	1	0	2	0
28	980	10	10000	2	1	0	2	0
28	981	10	10000	2	1	0	2	0
28	982	10	10000	2	1	0	2	0
27	983	10	10000	2	1	0	2	0
27	984	10	10000	2	1	0	2	0
28	985	10	10000	2	1	0	2	0
27	986	10	10000	2	1	0	2	0
26	987	10	10000	2	1	0	2	0
27	988	10	10000	2	1	0	2	0
27	989	10	10000	2	1	0	2	0
28	990	10	10000	2	1	0	2	0
28	991	10	10000	2	1	0	2	0
28	992	10	10000	2	1	0	2	0
27	993	10	10000	2	1	0	2	0
27	994	10	10000	2	1	0	2	0
27	995	10	10000	2	1	0	2	0
29	996	10	10000	2	1	0	2	0
29	997	10	10000	2	1	0	2	0
28	998	10	10000	2	1	0	2	0
29	999	10	10000	2	1	0	2	0
29	1000	10	10000	2	1	0	2	0
15	1	0	10000	3	1	0	3	0
15	2	0	10000	3	1	0	3	0
17	3	0	10000	3	1	0	3	0
16	4	0	10000	3	1	0	3	0
16	5	0	10000	3	1	0	3	0
17	6	0	10000	3	1	0	3	0
17	7	0	10000	3	1	0	3	0
17	8	0	10000	3	1	0	3	0
16	9	0	10000	3	1	0	3	0
16	10	0	10000	3	1	0	3	0
15	11	0	10000	3	1	0	3	0
15	12	0	10000	3	1	0	3	0
14	13	0	10000	3	1	0	3	0
16	14	0	10000	3	1	0	3	0
18	15	0	10000	3	1	0	3	0
17	16	0	10000	3	1	0	3	0
16	17	0	10000	3	1	0	3	0
16	18	0	10000	3	1	0	3	0
17	19	0	10000	3	1	0	3	0
18	20	0	10000	3	1	0	3	0
19	21	0	10000	3	1	0	3	0
19	22	0	10000	3	1	0	3	0
20	23	0	10000	3	1	0	3	0
19	24	0	10000	3	1	0	3	0
18	25	0	10000	3	1	0	3	0
20	26	0	10000	3	1	0	3	0
19	27	0	10000	3	1	0	3	0
20	28	0	10000	3	1	0	3	0
20	29	0	10000	3	1	0	3	0
20	30	0	10000	3	1	0	3	0
20	31	0	10000	3	1	0	3	0
21	32	0	10000	3	1	0	3	0
20	33	0	10000	3	1	0	3	0
20	34	0	10000	3	1	0	3	0
21	35	0	10000	3	1	0	3	0
22	36	0	10000	3	1	0	3	0
23	37	0	10000	3	1	0	3	0
23	38	0	10000	3	1	0	3	0
24	39	0	10000	3	1	0	3	0
27	40	0	10000	3	1	0	3	0
28	41	0	10000	3	1	0	3	0
28	42	0	10000	3	1	0	3	0
28	43	0	10000	3	1	0	3	0
27	44	0	10000	3	1	0	3	0
25	45	0	10000	3	1	0	3	0
25	46	0	10000	3	1	0	3	0
25	47	0	10000	3	1	0	3	0
25	48	0	10000	3	1	0	3	0
24	49	0	10000	3	1	0	3	0
24	50	0	10000	3	1	0	3	0
23	51	0	10000	3	1	0	3	0
21	52	0	10000	3	1	0	3	0
20	53	0	10000	3	1	0	3	0
21	54	0	10000	3	1	0	3	0
22	55	0	10000	3	1	0	3	0
21	56	0	10000	3	1	0	3	0
22	57	0	10000	3	1	0	3	0
22	58	0	10000	3	1	0	3	0
22	59	0	10000	3	1	0	3	0
22	60	0	10000	3	1	0	3	0
22	61	0	10000	3	1	0	3	0
22	62	0	10000	3	1	0	3	0
22	63	0	10000	3	1	0	3	0
20	64	0	10000	3	1	0	3	0
18	65	0	10000	3	1	0	3	0
18	66	0	10000	3	1	0	3	0
18	67	0	10000	3	1	0	3	0
18	68	0	10000	3	1	0	3	0
18	69	0	10000	3	1	0	3	0
18	70	0	10000	3	1	0	3	0
17	71	0	10000	3	1	0	3	0
16	72	0	10000	3	1	0	3	0
15	73	0	10000	3	1	0	3	0
16	74	0	10000	3	1	0	3	0
17	75	0	10000	3	1	0	3	0
17	76	0	10000	3	1	0	3	0
19	77	0	10000	3	1	0	3	0
19	78	0	10000	3	1	0	3	0
19	79	0	10000	3	1	0	3	0
20	80	0	10000	3	1	0	3	0
18	81	0	10000	3	1	0	3	0
19	82	0	10000	3	1	0	3	0
20	83	0	10000	3	1	0	3	0
20	84	0	10000	3	1	0	3	0
18	85	0	10000	3	1	0	3	0
18	86	0	10000	3	1	0	3	0
18	87	0	10000	3	1	0	3	0
19	88	0	10000	3	1	0	3	0
18	89	0	10000	3	1	0	3	0
18	90	0	10000	3	1	0	3	0
19	91	0	10000	3	1	0	3	0
18	92	0	10000	3	1	0	3	0
18	93	0	10000	3	1	0	3	0
18	94	0	10000	3	1	0	3	0
20	95	0	10000	3	1	0	3	0
18	96	0	10000	3	1	0	3	0
19	97	0	10000	3	1	0	3	0
18	98	0	10000	3	1	0	3	0
18	99	0	10000	3	1	0	3	0
19	100	0	10000	3	1	0	3	0
22	101	0	10000	3	1	0	3	0
24	102	0	10000	3	1	0	3	0
25	103	0	10000	3	1	0	3	0
24	104	0	10000	3	1	0	3	0
23	105	0	10000	3	1	0	3	0
25	106	0	10000	3	1	0	3	0
27	107	0	10000	3	1	0	3	0
27	108	0	10000	3	1	0	3	0
26	109	0	10000	3	1	0	3	0
26	110	0	10000	3	1	0	3	0
25	111	0	10000	3	1	0	3	0
25	112	0	10000	3	1	0	3	0
25	113	0	10000	3	1	0	3	0
25	114	0	10000	3	1	0	3	0
26	115	0	10000	3	1	0	3	0
25	116	0	10000	3	1	0	3	0
25	117	0	10000	3	1	0	3	0
23	118	0	10000	3	1	0	3	0
24	119	0	10000	3	1	0	3	0
24	120	0	10000	3	1	0	3	0
23	121	0	10000	3	1	0	3	0
23	122	0	10000	3	1	0	3	0
24	123	0	10000	3	1	0	3	0
24	124	0	10000	3	1	0	3	0
22	125	0	10000	3	1	0	3	0
21	126	0	10000	3	1	0	3	0
21	127	0	10000	3	1	0	3	0
20	128	0	10000	3	1	0	3	0
20	129	0	10000	3	1	0	3	0
20	130	0	10000	3	1	0	3	0
19	131	0	10000	3	1	0	3	0
18	132	0	10000	3	1	0	3	0
17	133	0	10000	3	1	0	3	0
18	134	0	10000	3	1	0	3	0
19	135	0	10000	3	1	0	3	0
19	136	0	10000	3	1	0	3	0
20	137	0	10000	3	1	0	3	0
19	138	0	10000	3	1	0	3	0
19	139	0	10000	3	1	0	3	0
19	140	0	10000	3	1	0	3	0
19	141	0	10000	3	1	0	3	0
20	142	0	10000	3	1	0	3	0
19	143	0	10000	3	1	0	3	0
19	144	0	10000	3	1	0	3	0
19	145	0	10000	3	1	0	3	0
19	146	0	10000	3	1	0	3	0
19	147	0	10000	3	1	0	3	0
19	148	0	10000	3	1	0	3	0
20	149	0	10000	3	1	0	3	0
19	150	0	10000	3	1	0	3	0
20	151	0	10000	3	1	0	3	0
20	152	0	10000	3	1	0	3	0
21	153	0	10000	3	1	0	3	0
22	154	0	10000	3	1	0	3	0
26	155	0	10000	3	1	0	3	0
28	156	0	10000	3	1	0	3	0
29	157	0	10000	3	1	0	3	0
26	158	0	10000	3	1	0	3	0
26	159	0	10000	3	1	0	3	0
26	160	0	10000	3	1	0	3	0
24	161	0	10000	3	1	0	3	0
25	162	0	10000	3	1	0	3	0
26	163	0	10000	3	1	0	3	0
24	164	0	10000	3	1	0	3	0
22	165	0	10000	3	1	0	3	0
22	166	0	10000	3	1	0	3	0
22	167	0	10000	3	1	0	3	0
22	168	0	10000	3	1	0	3	0
21	169	0	10000	3	1	0	3	0
20	170	0	10000	3	1	0	3	0
20	171	0	10000	3	1	0	3	0
19	172	0	10000	3	1	0	3	0
18	173	0	10000	3	1	0	3	0
18	174	0	10000	3	1	0	3	0
19	175	0	10000	3	1	0	3	0
18	176	0	10000	3	1	0	3	0
18	177	0	10000	3	1	0	3	0
17	178	0	10000	3	1	0	3	0
17	179	0	10000	3	1	0	3	0
18	180	0	10000	3	1	0	3	0
17	181	0	10000	3	1	0	3	0
17	182	0	10000	3	1	0	3	0
18	183	0	10000	3	1	0	3	0
18	184	0	10000	3	1	0	3	0
17	185	0	10000	3	1	0	3	0
17	186	0	10000	3	1	0	3	0
17	187	0	10000	3	1	0	3	0
17	188	0	10000	3	1	0	3	0
18	189	0	10000	3	1	0	3	0
19	190	0	10000	3	1	0	3	0
20	191	0	10000	3	1	0	3	0
18	192	0	10000	3	1	0	3	0
18	193	0	10000	3	1	0	3	0
18	194	0	10000	3	1	0	3	0
20	195	0	10000	3	1	0	3	0
21	196	0	10000	3	1	0	3	0
22	197	0	10000	3	1	0	3	0
22	198	0	10000	3	1	0	3	0
22	199	0	10000	3	1	0	3	0
23	200	0	10000	3	1	0	3	0
22	200	0	10000	3	1	0	3	0
22	201	0	10000	3	1	0	3	0
22	203	0	10000	3	1	0	3	0
21	204	0	10000	3	1	0	3	0
20	205	0	10000	3	1	0	3	0
21	206	0	10000	3	1	0	3	0
20	207	0	10000	3	1	0	3	0
20	208	0	10000	3	1	0	3	0
19	209	0	10000	3	1	0	3	0
20	210	0	10000	3	1	0	3	0
22	210	0	10000	3	1	0	3	0
20	211	0	10000	3	1	0	3	0
20	213	0	10000	3	1	0	3	0
20	214	0	10000	3	1	0	3	0
20	215	0	10000	3	1	0	3	0
19	216	0	10000	3	1	0	3	0
19	217	0	10000	3	1	0	3	0
20	218	0	10000	3	1	0	3	0
20	219	0	10000	3	1	0	3	0
20	220	0	10000	3	1	0	3	0
21	220	0	10000	3	1	0	3	0
23	221	0	10000	3	1	0	3	0
25	223	0	10000	3	1	0	3	0
24	224	0	10000	3	1	0	3	0
22	225	0	10000	3	1	0	3	0
23	226	0	10000	3	1	0	3	0
23	227	0	10000	3	1	0	3	0
23	228	0	10000	3	1	0	3	0
21	229	0	10000	3	1	0	3	0
22	230	0	10000	3	1	0	3	0
22	230	0	10000	3	1	0	3	0
20	231	0	10000	3	1	0	3	0
20	233	0	10000	3	1	0	3	0
20	234	0	10000	3	1	0	3	0
21	235	0	10000	3	1	0	3	0
23	236	0	10000	3	1	0	3	0
24	237	0	10000	3	1	0	3	0
23	238	0	10000	3	1	0	3	0
23	239	0	10000	3	1	0	3	0
22	240	0	10000	3	1	0	3	0
22	240	0	10000	3	1	0	3	0
21	241	0	10000	3	1	0	3	0
21	243	0	10000	3	1	0	3	0
20	244	0	10000	3	1	0	3	0
18	245	0	10000	3	1	0	3	0
19	246	0	10000	3	1	0	3	0
20	247	0	10000	3	1	0	3	0
23	248	0	10000	3	1	0	3	0
22	249	0	10000	3	1	0	3	0
22	250	0	10000	3	1	0	3	0
23	250	0	10000	3	1	0	3	0
22	251	0	10000	3	1	0	3	0
22	253	0	10000	3	1	0	3	0
22	254	0	10000	3	1	0	3	0
23	255	0	10000	3	1	0	3	0
22	256	0	10000	3	1	0	3	0
21	257	0	10000	3	1	0	3	0
20	258	0	10000	3	1	0	3	0
20	259	0	10000	3	1	0	3	0
20	260	0	10000	3	1	0	3	0
20	260	0	10000	3	1	0	3	0
20	261	0	10000	3	1	0	3	0
20	263	0	10000	3	1	0	3	0
19	264	0	10000	3	1	0	3	0
17	265	0	10000	3	1	0	3	0
17	266	0	10000	3	1	0	3	0
17	267	0	10000	3	1	0	3	0
18	268	0	10000	3	1	0	3	0
17	269	0	10000	3	1	0	3	0
17	270	0	10000	3	1	0	3	0
18	270	0	10000	3	1	0	3	0
16	271	0	10000	3	1	0	3	0
16	273	0	10000	3	1	0	3	0
15	274	0	10000	3	1	0	3	0
18	275	0	10000	3	1	0	3	0
18	276	0	10000	3	1	0	3	0
18	277	0	10000	3	1	0	3	0
17	278	0	10000	3	1	0	3	0
17	279	0	10000	3	1	0	3	0
16	280	0	10000	3	1	0	3	0
16	280	0	10000	3	1	0	3	0
18	281	0	10000	3	1	0	3	0
19	283	0	10000	3	1	0	3	0
18	284	0	10000	3	1	0	3	0
17	285	0	10000	3	1	0	3	0
16	286	0	10000	3	1	0	3	0
16	287	0	10000	3	1	0	3	0
18	288	0	10000	3	1	0	3	0
17	289	0	10000	3	1	0	3	0
19	290	0	10000	3	1	0	3	0
21	290	0	10000	3	1	0	3	0
22	291	0	10000	3	1	0	3	0
21	293	0	10000	3	1	0	3	0
21	294	0	10000	3	1	0	3	0
22	295	0	10000	3	1	0	3	0
22	296	0	10000	3	1	0	3	0
22	297	0	10000	3	1	0	3	0
22	298	0	10000	3	1	0	3	0
21	299	0	10000	3	1	0	3	0
21	300	0	10000	3	1	0	3	0
20	300	0	10000	3	1	0	3	0
20	301	0	10000	3	1	0	3	0
21	303	0	10000	3	1	0	3	0
20	304	0	10000	3	1	0	3	0
18	305	0	10000	3	1	0	3	0
17	306	0	10000	3	1	0	3	0
17	307	0	10000	3	1	0	3	0
17	308	0	10000	3	1	0	3	0
17	309	0	10000	3	1	0	3	0
17	310	0	10000	3	1	0	3	0
17	310	0	10000	3	1	0	3	0
16	311	0	10000	3	1	0	3	0
16	313	0	10000	3	1	0	3	0
15	314	0	10000	3	1	0	3	0
16	315	0	10000	3	1	0	3	0
16	316	0	10000	3	1	0	3	0
15	317	0	10000	3	1	0	3	0
15	318	0	10000	3	1	0	3	0
17	319	0	10000	3	1	0	3	0
18	320	0	10000	3	1	0	3	0
17	320	0	10000	3	1	0	3	0
18	321	0	10000	3	1	0	3	0
19	323	0	10000	3	1	0	3	0
18	324	0	10000	3	1	0	3	0
17	325	0	10000	3	1	0	3	0
18	326	0	10000	3	1	0	3	0
19	327	0	10000	3	1	0	3	0
20	328	0	10000	3	1	0	3	0
22	329	0	10000	3	1	0	3	0
21	330	0	10000	3	1	0	3	0
23	330	0	10000	3	1	0	3	0
24	331	0	10000	3	1	0	3	0
24	333	0	10000	3	1	0	3	0
24	334	0	10000	3	1	0	3	0
27	335	0	10000	3	1	0	3	0
25	336	0	10000	3	1	0	3	0
25	337	0	10000	3	1	0	3	0
25	338	0	10000	3	1	0	3	0
24	339	0	10000	3	1	0	3	0
25	340	0	10000	3	1	0	3	0
26	340	0	10000	3	1	0	3	0
29	341	0	10000	3	1	0	3	0
28	343	0	10000	3	1	0	3	0
27	344	0	10000	3	1	0	3	0
25	345	0	10000	3	1	0	3	0
25	346	0	10000	3	1	0	3	0
26	347	0	10000	3	1	0	3	0
28	348	0	10000	3	1	0	3	0
29	349	0	10000	3	1	0	3	0
28	350	0	10000	3	1	0	3	0
28	350	0	10000	3	1	0	3	0
27	351	0	10000	3	1	0	3	0
25	353	0	10000	3	1	0	3	0
25	354	0	10000	3	1	0	3	0
26	355	0	10000	3	1	0	3	0
26	356	0	10000	3	1	0	3	0
26	357	0	10000	3	1	0	3	0
26	358	0	10000	3	1	0	3	0
26	359	0	10000	3	1	0	3	0
25	360	0	10000	3	1	0	3	0
24	360	0	10000	3	1	0	3	0
28	361	0	10000	3	1	0	3	0
30	363	0	10000	3	1	0	3	0
30	364	0	10000	3	1	0	3	0
28	365	0	10000	3	1	0	3	0
27	366	0	10000	3	1	0	3	0
26	367	0	10000	3	1	0	3	0
26	368	0	10000	3	1	0	3	0
26	369	0	10000	3	1	0	3	0
25	370	0	10000	3	1	0	3	0
25	370	0	10000	3	1	0	3	0
23	371	0	10000	3	1	0	3	0
22	373	0	10000	3	1	0	3	0
21	374	0	10000	3	1	0	3	0
24	375	0	10000	3	1	0	3	0
23	376	0	10000	3	1	0	3	0
24	377	0	10000	3	1	0	3	0
24	378	0	10000	3	1	0	3	0
25	379	0	10000	3	1	0	3	0
23	380	0	10000	3	1	0	3	0
23	380	0	10000	3	1	0	3	0
23	381	0	10000	3	1	0	3	0
23	383	0	10000	3	1	0	3	0
22	384	0	10000	3	1	0	3	0
20	385	0	10000	3	1	0	3	0
20	386	0	10000	3	1	0	3	0
20	387	0	10000	3	1	0	3	0
20	388	0	10000	3	1	0	3	0
19	389	0	10000	3	1	0	3	0
19	390	0	10000	3	1	0	3	0
20	390	0	10000	3	1	0	3	0
18	391	0	10000	3	1	0	3	0
18	393	0	10000	3	1	0	3	0
17	394	0	10000	3	1	0	3	0
19	395	0	10000	3	1	0	3	0
20	396	0	10000	3	1	0	3	0
21	397	0	10000	3	1	0	3	0
21	398	0	10000	3	1	0	3	0
22	399	0	10000	3	1	0	3	0
20	400	0	10000	3	1	0	3	0
20	400	0	10000	3	1	0	3	0
20	401	0	10000	3	1	0	3	0
19	403	0	10000	3	1	0	3	0
20	404	0	10000	3	1	0	3	0
20	405	0	10000	3	1	0	3	0
20	406	0	10000	3	1	0	3	0
21	407	0	10000	3	1	0	3	0
22	408	0	10000	3	1	0	3	0
22	409	0	10000	3	1	0	3	0
21	410	0	10000	3	1	0	3	0
22	410	0	10000	3	1	0	3	0
22	411	0	10000	3	1	0	3	0
21	413	0	10000	3	1	0	3	0
20	414	0	10000	3	1	0	3	0
22	415	0	10000	3	1	0	3	0
21	416	0	10000	3	1	0	3	0
20	417	0	10000	3	1	0	3	0
19	418	0	10000	3	1	0	3	0
19	419	0	10000	3	1	0	3	0
18	420	0	10000	3	1	0	3	0
17	420	0	10000	3	1	0	3	0
18	421	0	10000	3	1	0	3	0
19	423	0	10000	3	1	0	3	0
19	424	0	10000	3	1	0	3	0
16	425	0	10000	3	1	0	3	0
18	426	0	10000	3	1	0	3	0
20	427	0	10000	3	1	0	3	0
20	428	0	10000	3	1	0	3	0
20	429	0	10000	3	1	0	3	0
21	430	0	10000	3	1	0	3	0
23	430	0	10000	3	1	0	3	0
22	431	0	10000	3	1	0	3	0
21	433	0	10000	3	1	0	3	0
21	434	0	10000	3	1	0	3	0
24	435	0	10000	3	1	0	3	0
25	436	0	10000	3	1	0	3	0
25	437	0	10000	3	1	0	3	0
25	438	0	10000	3	1	0	3	0
25	439	0	10000	3	1	0	3	0
23	440	0	10000	3	1	0	3	0
22	440	0	10000	3	1	0	3	0
23	441	0	10000	3	1	0	3	0
23	443	0	10000	3	1	0	3	0
22	444	0	10000	3	1	0	3	0
20	445	0	10000	3	1	0	3	0
21	446	0	10000	3	1	0	3	0
22	447	0	10000	3	1	0	3	0
22	448	0	10000	3	1	0	3	0
21	449	0	10000	3	1	0	3	0
21	450	0	10000	3	1	0	3	0
21	450	0	10000	3	1	0	3	0
20	451	0	10000	3	1	0	3	0
20	453	0	10000	3	1	0	3	0
20	454	0	10000	3	1	0	3	0
22	455	0	10000	3	1	0	3	0
22	456	0	10000	3	1	0	3	0
21	457	0	10000	3	1	0	3	0
20	458	0	10000	3	1	0	3	0
20	459	0	10000	3	1	0	3	0
20	460	0	10000	3	1	0	3	0
20	460	0	10000	3	1	0	3	0
20	461	0	10000	3	1	0	3	0
19	463	0	10000	3	1	0	3	0
19	464	0	10000	3	1	0	3	0
16	465	0	10000	3	1	0	3	0
18	466	0	10000	3	1	0	3	0
18	467	0	10000	3	1	0	3	0
20	468	0	10000	3	1	0	3	0
21	469	0	10000	3	1	0	3	0
22	470	0	10000	3	1	0	3	0
22	470	0	10000	3	1	0	3	0
20	471	0	10000	3	1	0	3	0
20	473	0	10000	3	1	0	3	0
19	474	0	10000	3	1	0	3	0
20	475	0	10000	3	1	0	3	0
20	476	0	10000	3	1	0	3	0
20	477	0	10000	3	1	0	3	0
19	478	0	10000	3	1	0	3	0
20	479	0	10000	3	1	0	3	0
19	480	0	10000	3	1	0	3	0
20	480	0	10000	3	1	0	3	0
23	481	0	10000	3	1	0	3	0
23	483	0	10000	3	1	0	3	0
23	484	0	10000	3	1	0	3	0
21	485	0	10000	3	1	0	3	0
21	486	0	10000	3	1	0	3	0
21	487	0	10000	3	1	0	3	0
23	488	0	10000	3	1	0	3	0
23	489	0	10000	3	1	0	3	0
25	490	0	10000	3	1	0	3	0
24	490	0	10000	3	1	0	3	0
23	491	0	10000	3	1	0	3	0
24	493	0	10000	3	1	0	3	0
24	494	0	10000	3	1	0	3	0
27	495	0	10000	3	1	0	3	0
28	496	0	10000	3	1	0	3	0
27	497	0	10000	3	1	0	3	0
26	498	0	10000	3	1	0	3	0
26	499	0	10000	3	1	0	3	0
24	500	0	10000	3	1	0	3	0
24	500	0	10000	3	1	0	3	0
24	501	0	10000	3	1	0	3	0
23	503	0	10000	3	1	0	3	1
24	504	0	10000	3	1	0	3	1
22	505	0	10000	3	1	0	3	1
21	506	0	10000	3	1	0	3	1
22	507	0	10000	3	1	0	3	1
21	508	0	10000	3	1	0	3	1
21	509	0	10000	3	1	0	3	1
22	510	0	10000	3	1	0	3	1
21	510	0	10000	3	1	0	3	1
20	511	0	10000	3	1	0	3	1
19	513	0	10000	3	1	0	3	1
19	514	0	10000	3	1	0	3	1
22	515	0	10000	3	1	0	3	1
23	516	0	10000	3	1	0	3	1
23	517	0	10000	3	1	0	3	1
22	518	0	10000	3	1	0	3	1
23	519	0	10000	3	1	0	3	1
22	520	0	10000	3	1	0	3	1
22	520	0	10000	3	1	0	3	1
22	521	0	10000	3	1	0	3	1
23	523	0	10000	3	1	0	3	1
24	524	0	10000	3	1	0	3	1
21	525	0	10000	3	1	0	3	1
21	526	0	10000	3	1	0	3	1
23	527	0	10000	3	1	0	3	1
25	528	0	10000	3	1	0	3	1
26	529	0	10000	3	1	0	3	1
25	530	0	10000	3	1	0	3	1
25	530	0	10000	3	1	0	3	1
26	531	0	10000	3	1	0	3	1
27	533	0	10000	3	1	0	3	1
27	534	0	10000	3	1	0	3	1
30	535	0	10000	3	1	0	3	1
31	536	0	10000	3	1	0	3	1
31	537	0	10000	3	1	0	3	1
30	538	0	10000	3	1	0	3	1
32	539	0	10000	3	1	0	3	1
33	540	0	10000	3	1	0	3	1
32	540	0	10000	3	1	0	3	1
32	541	0	10000	3	1	0	3	1
31	543	0	10000	3	1	0	3	1
31	544	0	10000	3	1	0	3	1
28	545	0	10000	3	1	0	3	1
29	546	0	10000	3	1	0	3	1
29	547	0	10000	3	1	0	3	1
29	548	0	10000	3	1	0	3	1
28	549	0	10000	3	1	0	3	1
28	550	0	10000	3	1	0	3	1
28	550	0	10000	3	1	0	3	1
28	551	0	10000	3	1	0	3	1
27	553	0	10000	3	1	0	3	0
26	554	0	10000	3	1	0	3	0
28	555	0	10000	3	1	0	3	0
27	556	0	10000	3	1	0	3	0
27	557	0	10000	3	1	0	3	0
27	558	0	10000	3	1	0	3	0
28	559	0	10000	3	1	0	3	0
28	560	0	10000	3	1	0	3	0
29	560	0	10000	3	1	0	3	0
30	561	0	10000	3	1	0	3	0
30	563	0	10000	3	1	0	3	0
29	564	0	10000	3	1	0	3	0
26	565	0	10000	3	1	0	3	0
27	566	0	10000	3	1	0	3	0
27	567	0	10000	3	1	0	3	0
26	568	0	10000	3	1	0	3	0
25	569	0	10000	3	1	0	3	0
25	570	0	10000	3	1	0	3	0
25	570	0	10000	3	1	0	3	0
24	571	0	10000	3	1	0	3	0
24	573	0	10000	3	1	0	3	0
24	574	0	10000	3	1	0	3	0
25	575	0	10000	3	1	0	3	0
25	576	0	10000	3	1	0	3	0
23	577	0	10000	3	1	0	3	0
23	578	0	10000	3	1	0	3	0
25	579	0	10000	3	1	0	3	0
27	580	0	10000	3	1	0	3	0
29	580	0	10000	3	1	0	3	0
29	581	0	10000	3	1	0	3	0
28	583	0	10000	3	1	0	3	0
28	584	0	10000	3	1	0	3	0
25	585	0	10000	3	1	0	3	0
25	586	0	10000	3	1	0	3	0
25	587	0	10000	3	1	0	3	0
24	588	0	10000	3	1	0	3	0
23	589	0	10000	3	1	0	3	0
24	590	0	10000	3	1	0	3	0
26	590	0	10000	3	1	0	3	0
25	591	0	10000	3	1	0	3	0
25	593	0	10000	3	1	0	3	0
25	594	0	10000	3	1	0	3	0
29	595	0	10000	3	1	0	3	0
31	596	0	10000	3	1	0	3	0
34	597	0	10000	3	1	0	3	0
33	598	0	10000	3	1	0	3	0
38	599	0	10000	3	1	0	3	0
45	600	0	10000	3	1	0	3	0
54	600	0	10000	3	1	0	3	0
66	601	0	10000	3	1	0	3	0
70	603	0	10000	3	1	0	3	0
69	604	0	10000	3	1	0	3	0
73	605	0	10000	3	1	0	3	0
94	606	0	10000	3	1	0	3	0
108	607	0	10000	3	1	0	3	0
111	608	0	10000	3	1	0	3	0
106	609	0	10000	3	1	0	3	0
102	610	0	10000	3	1	0	3	0
103	610	0	10000	3	1	0	3	0
105	611	0	10000	3	1	0	3	0
108	613	0	10000	3	1	0	3	0
124	614	0	10000	3	1	0	3	0
129	615	0	10000	3	1	0	3	0
130	616	0	10000	3	1	0	3	0
128	617	0	10000	3	1	0	3	0
140	618	0	10000	3	1	0	3	0
155	619	0	10000	3	1	0	3	0
154	620	0	10000	3	1	0	3	0
152	620	0	10000	3	1	0	3	0
153	621	0	10000	3	1	0	3	0
156	623	0	10000	3	1	0	3	0
156	624	0	10000	3	1	0	3	0
156	625	0	10000	3	1	0	3	0
160	626	0	10000	3	1	0	3	0
160	627	0	10000	3	1	0	3	0
154	628	0	10000	3	1	0	3	0
147	629	0	10000	3	1	0	3	0
141	630	0	10000	3	1	0	3	0
138	630	0	10000	3	1	0	3	0
134	631	0	10000	3	1	0	3	0
132	633	0	10000	3	1	0	3	0
129	634	0	10000	3	1	0	3	0
127	635	0	10000	3	1	0	3	0
122	636	0	10000	3	1	0	3	0
118	637	0	10000	3	1	0	3	0
116	638	0	10000	3	1	0	3	0
114	639	0	10000	3	1	0	3	0
110	640	0	10000	3	1	0	3	0
106	640	0	10000	3	1	0	3	0
102	641	0	10000	3	1	0	3	0
98	643	0	10000	3	1	0	3	0
94	644	0	10000	3	1	0	3	0
88	645	0	10000	3	1	0	3	0
85	646	0	10000	3	1	0	3	0
81	647	0	10000	3	1	0	3	0
78	648	0	10000	3	1	0	3	0
75	649	0	10000	3	1	0	3	0
73	650	0	10000	3	1	0	3	0
72	650	0	10000	3	1	0	3	0
71	651	0	10000	3	1	0	3	0
69	653	0	10000	3	1	0	3	0
68	654	0	10000	3	1	0	3	0
69	655	0	10000	3	1	0	3	0
68	656	0	10000	3	1	0	3	0
66	657	0	10000	3	1	0	3	0
65	658	0	10000	3	1	0	3	0
64	659	0	10000	3	1	0	3	0
63	660	0	10000	3	1	0	3	0
63	660	0	10000	3	1	0	3	0
60	661	0	10000	3	1	0	3	0
59	663	0	10000	3	1	0	3	0
58	664	0	10000	3	1	0	3	0
57	665	0	10000	3	1	0	3	0
57	666	0	10000	3	1	0	3	0
56	667	0	10000	3	1	0	3	0
54	668	0	10000	3	1	0	3	0
52	669	0	10000	3	1	0	3	0
52	670	0	10000	3	1	0	3	0
50	670	0	10000	3	1	0	3	0
48	671	0	10000	3	1	0	3	0
46	673	0	10000	3	1	0	3	0
45	674	0	10000	3	1	0	3	0
48	675	0	10000	3	1	0	3	0
48	676	0	10000	3	1	0	3	0
46	677	0	10000	3	1	0	3	0
45	678	0	10000	3	1	0	3	0
43	679	0	10000	3	1	0	3	0
42	680	0	10000	3	1	0	3	0
40	680	0	10000	3	1	0	3	0
39	681	0	10000	3	1	0	3	0
38	683	0	10000	3	1	0	3	0
38	684	0	10000	3	1	0	3	0
36	685	0	10000	3	1	0	3	0
38	686	0	10000	3	1	0	3	0
40	687	0	10000	3	1	0	3	0
41	688	0	10000	3	1	0	3	0
42	689	0	10000	3	1	0	3	0
44	690	0	10000	3	1	0	3	0
43	690	0	10000	3	1	0	3	0
41	691	0	10000	3	1	0	3	0
42	693	0	10000	3	1	0	3	0
43	694	0	10000	3	1	0	3	0
47	695	0	10000	3	1	0	3	0
49	696	0	10000	3	1	0	3	0
52	697	0	10000	3	1	0	3	0
53	698	0	10000	3	1	0	3	0
52	699	0	10000	3	1	0	3	0
53	700	0	10000	3	1	0	3	0
52	700	0	10000	3	1	0	3	0
52	701	0	10000	3	1	0	3	0
52	703	0	10000	3	1	0	3	0
50	704	0	10000	3	1	0	3	0
47	705	0	10000	3	1	0	3	0
47	706	0	10000	3	1	0	3	0
47	707	0	10000	3	1	0	3	0
47	708	0	10000	3	1	0	3	0
47	709	0	10000	3	1	0	3	0
48	710	0	10000	3	1	0	3	0
49	710	0	10000	3	1	0	3	0
48	711	0	10000	3	1	0	3	0
46	713	0	10000	3	1	0	3	0
45	714	0	10000	3	1	0	3	0
48	715	0	10000	3	1	0	3	0
45	716	0	10000	3	1	0	3	0
46	717	0	10000	3	1	0	3	0
47	718	0	10000	3	1	0	3	0
46	719	0	10000	3	1	0	3	0
45	720	0	10000	3	1	0	3	0
43	720	0	10000	3	1	0	3	0
43	721	0	10000	3	1	0	3	0
43	723	0	10000	3	1	0	3	0
42	724	0	10000	3	1	0	3	0
38	725	0	10000	3	1	0	3	0
37	726	0	10000	3	1	0	3	0
37	727	0	10000	3	1	0	3	0
39	728	0	10000	3	1	0	3	0
41	729	0	10000	3	1	0	3	0
41	730	0	10000	3	1	0	3	0
41	730	0	10000	3	1	0	3	0
41	731	0	10000	3	1	0	3	0
38	733	0	10000	3	1	0	3	0
36	734	0	10000	3	1	0	3	0
38	735	0	10000	3	1	0	3	0
35	736	0	10000	3	1	0	3	0
34	737	0	10000	3	1	0	3	0
33	738	0	10000	3	1	0	3	0
33	739	0	10000	3	1	0	3	0
34	740	0	10000	3	1	0	3	0
32	740	0	10000	3	1	0	3	0
32	741	0	10000	3	1	0	3	0
32	743	0	10000	3	1	0	3	0
32	744	0	10000	3	1	0	3	0
29	745	0	10000	3	1	0	3	0
30	746	0	10000	3	1	0	3	0
30	747	0	10000	3	1	0	3	0
30	748	0	10000	3	1	0	3	0
31	749	0	10000	3	1	0	3	0
32	750	0	10000	3	1	0	3	0
32	750	0	10000	3	1	0	3	0
31	751	0	10000	3	1	0	3	0
31	753	0	10000	3	1	0	3	0
30	754	0	10000	3	1	0	3	0
31	755	0	10000	3	1	0	3	0
29	756	0	10000	3	1	0	3	0
28	757	0	10000	3	1	0	3	0
27	758	0	10000	3	1	0	3	0
28	759	0	10000	3	1	0	3	0
26	760	0	10000	3	1	0	3	0
26	760	0	10000	3	1	0	3	0
26	761	0	10000	3	1	0	3	0
26	763	0	10000	3	1	0	3	0
27	764	0	10000	3	1	0	3	0
25	765	0	10000	3	1	0	3	0
25	766	0	10000	3	1	0	3	0
24	767	0	10000	3	1	0	3	0
23	768	0	10000	3	1	0	3	0
24	769	0	10000	3	1	0	3	0
22	770	0	10000	3	1	0	3	0
21	770	0	10000	3	1	0	3	0
21	771	0	10000	3	1	0	3	0
20	773	0	10000	3	1	0	3	0
20	774	0	10000	3	1	0	3	0
22	775	0	10000	3	1	0	3	0
20	776	0	10000	3	1	0	3	0
20	777	0	10000	3	1	0	3	0
20	778	0	10000	3	1	0	3	0
21	779	0	10000	3	1	0	3	0
23	780	0	10000	3	1	0	3	0
24	780	0	10000	3	1	0	3	0
24	781	0	10000	3	1	0	3	0
23	783	0	10000	3	1	0	3	0
23	784	0	10000	3	1	0	3	0
20	785	0	10000	3	1	0	3	0
20	786	0	10000	3	1	0	3	0
20	787	0	10000	3	1	0	3	0
23	788	0	10000	3	1	0	3	0
25	789	0	10000	3	1	0	3	0
24	790	0	10000	3	1	0	3	0
24	790	0	10000	3	1	0	3	0
23	791	0	10000	3	1	0	3	0
22	793	0	10000	3	1	0	3	0
22	794	0	10000	3	1	0	3	0
23	795	0	10000	3	1	0	3	0
22	796	0	10000	3	1	0	3	0
22	797	0	10000	3	1	0	3	0
23	798	0	10000	3	1	0	3	0
23	799	0	10000	3	1	0	3	0
23	800	0	10000	3	1	0	3	0
25	800	0	10000	3	1	0	3	0
25	801	0	10000	3	1	0	3	0
25	803	0	10000	3	1	0	3	0
25	804	0	10000	3	1	0	3	0
21	805	0	10000	3	1	0	3	0
21	806	0	10000	3	1	0	3	0
21	807	0	10000	3	1	0	3	0
21	808	0	10000	3	1	0	3	0
21	809	0	10000	3	1	0	3	0
20	810	0	10000	3	1	0	3	0
20	810	0	10000	3	1	0	3	0
20	811	0	10000	3	1	0	3	0
19	813	0	10000	3	1	0	3	0
19	814	0	10000	3	1	0	3	0
20	815	0	10000	3	1	0	3	0
19	816	0	10000	3	1	0	3	0
19	817	0	10000	3	1	0	3	0
18	818	0	10000	3	1	0	3	0
18	819	0	10000	3	1	0	3	0
18	820	0	10000	3	1	0	3	0
17	820	0	10000	3	1	0	3	0
17	821	0	10000	3	1	0	3	0
17	823	0	10000	3	1	0	3	0
18	824	0	10000	3	1	0	3	0
18	825	0	10000	3	1	0	3	0
19	826	0	10000	3	1	0	3	0
18	827	0	10000	3	1	0	3	0
18	828	0	10000	3	1	0	3	0
17	829	0	10000	3	1	0	3	0
17	830	0	10000	3	1	0	3	0
18	830	0	10000	3	1	0	3	0
17	831	0	10000	3	1	0	3	0
17	833	0	10000	3	1	0	3	0
17	834	0	10000	3	1	0	3	0
19	835	0	10000	3	1	0	3	0
19	836	0	10000	3	1	0	3	0
19	837	0	10000	3	1	0	3	0
18	838	0	10000	3	1	0	3	0
18	839	0	10000	3	1	0	3	0
18	840	0	10000	3	1	0	3	0
18	840	0	10000	3	1	0	3	0
18	841	0	10000	3	1	0	3	0
18	843	0	10000	3	1	0	3	0
17	844	0	10000	3	1	0	3	0
15	845	0	10000	3	1	0	3	0
16	846	0	10000	3	1	0	3	0
14	847	0	10000	3	1	0	3	0
15	848	0	10000	3	1	0	3	0
16	849	0	10000	3	1	0	3	0
16	850	0	10000	3	1	0	3	0
16	850	0	10000	3	1	0	3	0
16	851	0	10000	3	1	0	3	0
16	853	0	10000	3	1	0	3	0
16	854	0	10000	3	1	0	3	0
18	855	0	10000	3	1	0	3	0
18	856	0	10000	3	1	0	3	0
20	857	0	10000	3	1	0	3	0
20	858	0	10000	3	1	0	3	0
20	859	0	10000	3	1	0	3	0
19	860	0	10000	3	1	0	3	0
18	860	0	10000	3	1	0	3	0
19	861	0	10000	3	1	0	3	0
20	863	0	10000	3	1	0	3	0
20	864	0	10000	3	1	0	3	0
18	865	0	10000	3	1	0	3	0
18	866	0	10000	3	1	0	3	0
16	867	0	10000	3	1	0	3	0
17	868	0	10000	3	1	0	3	0
17	869	0	10000	3	1	0	3	0
17	870	0	10000	3	1	0	3	0
16	870	0	10000	3	1	0	3	0
16	871	0	10000	3	1	0	3	0
15	873	0	10000	3	1	0	3	0
16	874	0	10000	3	1	0	3	0
18	875	0	10000	3	1	0	3	0
17	876	0	10000	3	1	0	3	0
17	877	0	10000	3	1	0	3	0
17	878	0	10000	3	1	0	3	0
16	879	0	10000	3	1	0	3	0
16	880	0	10000	3	1	0	3	0
17	880	0	10000	3	1	0	3	0
20	881	0	10000	3	1	0	3	0
23	883	0	10000	3	1	0	3	0
23	884	0	10000	3	1	0	3	0
20	885	0	10000	3	1	0	3	0
21	886	0	10000	3	1	0	3	0
21	887	0	10000	3	1	0	3	0
22	888	0	10000	3	1	0	3	0
23	889	0	10000	3	1	0	3	0
24	890	0	10000	3	1	0	3	0
25	890	0	10000	3	1	0	3	0
28	891	0	10000	3	1	0	3	0
28	893	0	10000	3	1	0	3	0
27	894	0	10000	3	1	0	3	0
29	895	0	10000	3	1	0	3	0
29	896	0	10000	3	1	0	3	0
30	897	0	10000	3	1	0	3	0
30	898	0	10000	3	1	0	3	0
29	899	0	10000	3	1	0	3	0
29	900	0	10000	3	1	0	3	0
27	900	0	10000	3	1	0	3	0
28	901	0	10000	3	1	0	3	0
29	903	0	10000	3	1	0	3	0
28	904	0	10000	3	1	0	3	0
27	905	0	10000	3	1	0	3	0
28	906	0	10000	3	1	0	3	0
29	907	0	10000	3	1	0	3	0
29	908	0	10000	3	1	0	3	0
28	909	0	10000	3	1	0	3	0
28	910	0	10000	3	1	0	3	0
27	910	0	10000	3	1	0	3	0
26	911	0	10000	3	1	0	3	0
25	913	0	10000	3	1	0	3	0
24	914	0	10000	3	1	0	3	0
25	915	0	10000	3	1	0	3	0
25	916	0	10000	3	1	0	3	0
24	917	0	10000	3	1	0	3	0
23	918	0	10000	3	1	0	3	0
22	919	0	10000	3	1	0	3	0
23	920	0	10000	3	1	0	3	0
22	920	0	10000	3	1	0	3	0
22	921	0	10000	3	1	0	3	0
22	923	0	10000	3	1	0	3	0
22	924	0	10000	3	1	0	3	0
19	925	0	10000	3	1	0	3	0
20	926	0	10000	3	1	0	3	0
22	927	0	10000	3	1	0	3	0
23	928	0	10000	3	1	0	3	0
24	929	0	10000	3	1	0	3	0
24	930	0	10000	3	1	0	3	0
23	930	0	10000	3	1	0	3	0
22	931	0	10000	3	1	0	3	0
22	933	0	10000	3	1	0	3	0
21	934	0	10000	3	1	0	3	0
23	935	0	10000	3	1	0	3	0
21	936	0	10000	3	1	0	3	0
22	937	0	10000	3	1	0	3	0
20	938	0	10000	3	1	0	3	0
20	939	0	10000	3	1	0	3	0
20	940	0	10000	3	1	0	3	0
19	940	0	10000	3	1	0	3	0
20	941	0	10000	3	1	0	3	0
21	943	0	10000	3	1	0	3	0
20	944	0	10000	3	1	0	3	0
18	945	0	10000	3	1	0	3	0
19	946	0	10000	3	1	0	3	0
18	947	0	10000	3	1	0	3	0
19	948	0	10000	3	1	0	3	0
18	949	0	10000	3	1	0	3	0
18	950	0	10000	3	1	0	3	0
18	950	0	10000	3	1	0	3	0
17	951	0	10000	3	1	0	3	0
17	953	0	10000	3	1	0	3	0
17	954	0	10000	3	1	0	3	0
18	955	0	10000	3	1	0	3	0
17	956	0	10000	3	1	0	3	0
17	957	0	10000	3	1	0	3	0
16	958	0	10000	3	1	0	3	0
15	959	0	10000	3	1	0	3	0
16	960	0	10000	3	1	0	3	0
15	960	0	10000	3	1	0	3	0
17	961	0	10000	3	1	0	3	0
20	963	0	10000	3	1	0	3	0
20	964	0	10000	3	1	0	3	0
18	965	0	10000	3	1	0	3	0
19	966	0	10000	3	1	0	3	0
20	967	0	10000	3	1	0	3	0
20	968	0	10000	3	1	0	3	0
19	969	0	10000	3	1	0	3	0
20	970	0	10000	3	1	0	3	0
20	970	0	10000	3	1	0	3	0
21	971	0	10000	3	1	0	3	0
21	973	0	10000	3	1	0	3	0
20	974	0	10000	3	1	0	3	0
22	975	0	10000	3	1	0	3	0
22	976	0	10000	3	1	0	3	0
21	977	0	10000	3	1	0	3	0
20	978	0	10000	3	1	0	3	0
20	979	0	10000	3	1	0	3	0
19	980	0	10000	3	1	0	3	0
18	980	0	10000	3	1	0	3	0
19	981	0	10000	3	1	0	3	0
19	983	0	10000	3	1	0	3	0
18	984	0	10000	3	1	0	3	0
17	985	0	10000	3	1	0	3	0
16	986	0	10000	3	1	0	3	0
17	987	0	10000	3	1	0	3	0
17	988	0	10000	3	1	0	3	0
17	989	0	10000	3	1	0	3	0
19	990	0	10000	3	1	0	3	0
19	990	0	10000	3	1	0	3	0
18	991	0	10000	3	1	0	3	0
17	993	0	10000	3	1	0	3	0
18	994	0	10000	3	1	0	3	0
18	995	0	10000	3	1	0	3	0
18	996	0	10000	3	1	0	3	0
19	997	0	10000	3	1	0	3	0
20	998	0	10000	3	1	0	3	0
21	999	0	10000	3	1	0	3	0
24	1000	0	10000	3	1	0	3	0
25	1000	0	10000	3	1	0	3	0
24	1001	0	10000	3	1	0	3	0
18	1	1	10000	4	1	0	4	0
16	2	1	10000	4	1	0	4	0
16	3	1	10000	4	1	0	4	0
17	4	1	10000	4	1	0	4	0
19	5	1	10000	4	1	0	4	0
18	6	1	10000	4	1	0	4	0
18	7	1	10000	4	1	0	4	0
18	8	1	10000	4	1	0	4	0
19	9	1	10000	4	1	0	4	0
19	10	1	10000	4	1	0	4	0
20	11	1	10000	4	1	0	4	0
20	12	1	10000	4	1	0	4	0
20	13	1	10000	4	1	0	4	0
19	14	1	10000	4	1	0	4	0
19	15	1	10000	4	1	0	4	0
19	16	1	10000	4	1	0	4	0
18	17	1	10000	4	1	0	4	0
19	18	1	10000	4	1	0	4	0
18	19	1	10000	4	1	0	4	0
18	20	1	10000	4	1	0	4	0
18	20	1	10000	4	1	0	4	0
17	21	1	10000	4	1	0	4	0
17	23	1	10000	4	1	0	4	0
17	24	1	10000	4	1	0	4	0
16	25	1	10000	4	1	0	4	0
17	26	1	10000	4	1	0	4	0
18	27	1	10000	4	1	0	4	0
17	28	1	10000	4	1	0	4	0
18	29	1	10000	4	1	0	4	0
19	30	1	10000	4	1	0	4	0
20	30	1	10000	4	1	0	4	0
24	31	1	10000	4	1	0	4	0
23	33	1	10000	4	1	0	4	0
22	34	1	10000	4	1	0	4	0
22	35	1	10000	4	1	0	4	0
21	36	1	10000	4	1	0	4	0
22	37	1	10000	4	1	0	4	0
23	38	1	10000	4	1	0	4	0
23	39	1	10000	4	1	0	4	0
23	40	1	10000	4	1	0	4	0
21	40	1	10000	4	1	0	4	0
21	41	1	10000	4	1	0	4	0
24	43	1	10000	4	1	0	4	0
24	44	1	10000	4	1	0	4	0
24	45	1	10000	4	1	0	4	0
24	46	1	10000	4	1	0	4	0
26	47	1	10000	4	1	0	4	0
28	48	1	10000	4	1	0	4	0
29	49	1	10000	4	1	0	4	0
28	50	1	10000	4	1	0	4	0
28	50	1	10000	4	1	0	4	0
30	51	1	10000	4	1	0	4	0
30	53	1	10000	4	1	0	4	0
32	54	1	10000	4	1	0	4	0
36	55	1	10000	4	1	0	4	0
39	56	1	10000	4	1	0	4	0
41	57	1	10000	4	1	0	4	0
41	58	1	10000	4	1	0	4	0
40	59	1	10000	4	1	0	4	0
39	60	1	10000	4	1	0	4	0
41	60	1	10000	4	1	0	4	0
40	61	1	10000	4	1	0	4	0
40	63	1	10000	4	1	0	4	0
42	64	1	10000	4	1	0	4	0
42	65	1	10000	4	1	0	4	0
43	66	1	10000	4	1	0	4	0
44	67	1	10000	4	1	0	4	0
45	68	1	10000	4	1	0	4	0
46	69	1	10000	4	1	0	4	0
45	70	1	10000	4	1	0	4	0
45	70	1	10000	4	1	0	4	0
47	71	1	10000	4	1	0	4	0
44	73	1	10000	4	1	0	4	0
43	74	1	10000	4	1	0	4	0
42	75	1	10000	4	1	0	4	0
42	76	1	10000	4	1	0	4	0
41	77	1	10000	4	1	0	4	0
41	78	1	10000	4	1	0	4	0
42	79	1	10000	4	1	0	4	0
42	80	1	10000	4	1	0	4	0
40	80	1	10000	4	1	0	4	0
40	81	1	10000	4	1	0	4	0
42	83	1	10000	4	1	0	4	0
44	84	1	10000	4	1	0	4	0
43	85	1	10000	4	1	0	4	0
42	86	1	10000	4	1	0	4	0
40	87	1	10000	4	1	0	4	0
42	88	1	10000	4	1	0	4	0
44	89	1	10000	4	1	0	4	0
45	90	1	10000	4	1	0	4	0
47	90	1	10000	4	1	0	4	0
50	91	1	10000	4	1	0	4	0
49	93	1	10000	4	1	0	4	0
50	94	1	10000	4	1	0	4	0
52	95	1	10000	4	1	0	4	0
53	96	1	10000	4	1	0	4	0
52	97	1	10000	4	1	0	4	0
51	98	1	10000	4	1	0	4	0
49	99	1	10000	4	1	0	4	0
49	100	1	10000	4	1	0	4	0
51	100	1	10000	4	1	0	4	0
51	101	1	10000	4	1	0	4	0
50	103	1	10000	4	1	0	4	0
49	104	1	10000	4	1	0	4	0
49	105	1	10000	4	1	0	4	0
48	106	1	10000	4	1	0	4	0
46	107	1	10000	4	1	0	4	0
45	108	1	10000	4	1	0	4	0
44	109	1	10000	4	1	0	4	0
43	110	1	10000	4	1	0	4	0
42	110	1	10000	4	1	0	4	0
42	111	1	10000	4	1	0	4	0
40	113	1	10000	4	1	0	4	0
39	114	1	10000	4	1	0	4	0
40	115	1	10000	4	1	0	4	0
41	116	1	10000	4	1	0	4	0
40	117	1	10000	4	1	0	4	0
39	118	1	10000	4	1	0	4	0
37	119	1	10000	4	1	0	4	0
37	120	1	10000	4	1	0	4	0
35	120	1	10000	4	1	0	4	0
32	121	1	10000	4	1	0	4	0
32	123	1	10000	4	1	0	4	0
32	124	1	10000	4	1	0	4	0
33	125	1	10000	4	1	0	4	0
35	126	1	10000	4	1	0	4	0
36	127	1	10000	4	1	0	4	0
37	128	1	10000	4	1	0	4	0
37	129	1	10000	4	1	0	4	0
35	130	1	10000	4	1	0	4	0
34	130	1	10000	4	1	0	4	0
34	131	1	10000	4	1	0	4	0
34	133	1	10000	4	1	0	4	0
34	134	1	10000	4	1	0	4	0
34	135	1	10000	4	1	0	4	0
33	136	1	10000	4	1	0	4	0
32	137	1	10000	4	1	0	4	0
31	138	1	10000	4	1	0	4	0
30	139	1	10000	4	1	0	4	0
30	140	1	10000	4	1	0	4	0
28	140	1	10000	4	1	0	4	0
26	141	1	10000	4	1	0	4	0
27	143	1	10000	4	1	0	4	0
27	144	1	10000	4	1	0	4	0
27	145	1	10000	4	1	0	4	0
27	146	1	10000	4	1	0	4	0
25	147	1	10000	4	1	0	4	0
25	148	1	10000	4	1	0	4	0
24	149	1	10000	4	1	0	4	0
22	150	1	10000	4	1	0	4	0
22	150	1	10000	4	1	0	4	0
23	151	1	10000	4	1	0	4	0
22	153	1	10000	4	1	0	4	0
21	154	1	10000	4	1	0	4	0
20	155	1	10000	4	1	0	4	0
20	156	1	10000	4	1	0	4	0
19	157	1	10000	4	1	0	4	0
19	158	1	10000	4	1	0	4	0
19	159	1	10000	4	1	0	4	0
20	160	1	10000	4	1	0	4	0
20	160	1	10000	4	1	0	4	0
19	161	1	10000	4	1	0	4	0
20	163	1	10000	4	1	0	4	0
20	164	1	10000	4	1	0	4	0
20	165	1	10000	4	1	0	4	0
20	166	1	10000	4	1	0	4	0
20	167	1	10000	4	1	0	4	0
19	168	1	10000	4	1	0	4	0
19	169	1	10000	4	1	0	4	0
18	170	1	10000	4	1	0	4	0
18	170	1	10000	4	1	0	4	0
20	171	1	10000	4	1	0	4	0
21	173	1	10000	4	1	0	4	0
20	174	1	10000	4	1	0	4	0
20	175	1	10000	4	1	0	4	0
20	176	1	10000	4	1	0	4	0
19	177	1	10000	4	1	0	4	0
20	178	1	10000	4	1	0	4	0
23	179	1	10000	4	1	0	4	0
26	180	1	10000	4	1	0	4	0
26	180	1	10000	4	1	0	4	0
24	181	1	10000	4	1	0	4	0
25	183	1	10000	4	1	0	4	0
23	184	1	10000	4	1	0	4	0
22	185	1	10000	4	1	0	4	0
23	186	1	10000	4	1	0	4	0
23	187	1	10000	4	1	0	4	0
23	188	1	10000	4	1	0	4	0
23	189	1	10000	4	1	0	4	0
22	190	1	10000	4	1	0	4	0
22	190	1	10000	4	1	0	4	0
23	191	1	10000	4	1	0	4	0
22	193	1	10000	4	1	0	4	0
21	194	1	10000	4	1	0	4	0
21	195	1	10000	4	1	0	4	0
21	196	1	10000	4	1	0	4	0
22	197	1	10000	4	1	0	4	0
23	198	1	10000	4	1	0	4	0
24	199	1	10000	4	1	0	4	0
24	200	1	10000	4	1	0	4	0
22	200	1	10000	4	1	0	4	0
20	201	1	10000	4	1	0	4	0
21	203	1	10000	4	1	0	4	0
20	204	1	10000	4	1	0	4	0
20	205	1	10000	4	1	0	4	0
20	206	1	10000	4	1	0	4	0
20	207	1	10000	4	1	0	4	0
19	208	1	10000	4	1	0	4	0
18	209	1	10000	4	1	0	4	0
16	210	1	10000	4	1	0	4	0
17	210	1	10000	4	1	0	4	0
19	211	1	10000	4	1	0	4	0
17	213	1	10000	4	1	0	4	0
17	214	1	10000	4	1	0	4	0
16	215	1	10000	4	1	0	4	0
16	216	1	10000	4	1	0	4	0
16	217	1	10000	4	1	0	4	0
15	218	1	10000	4	1	0	4	0
17	219	1	10000	4	1	0	4	0
18	220	1	10000	4	1	0	4	0
16	220	1	10000	4	1	0	4	0
15	221	1	10000	4	1	0	4	0
17	223	1	10000	4	1	0	4	0
17	224	1	10000	4	1	0	4	0
18	225	1	10000	4	1	0	4	0
17	226	1	10000	4	1	0	4	0
17	227	1	10000	4	1	0	4	0
16	228	1	10000	4	1	0	4	0
16	229	1	10000	4	1	0	4	0
15	230	1	10000	4	1	0	4	0
15	230	1	10000	4	1	0	4	0
17	231	1	10000	4	1	0	4	0
16	233	1	10000	4	1	0	4	0
15	234	1	10000	4	1	0	4	0
14	235	1	10000	4	1	0	4	0
14	236	1	10000	4	1	0	4	0
14	237	1	10000	4	1	0	4	0
13	238	1	10000	4	1	0	4	0
13	239	1	10000	4	1	0	4	0
15	240	1	10000	4	1	0	4	0
13	240	1	10000	4	1	0	4	0
13	241	1	10000	4	1	0	4	0
14	243	1	10000	4	1	0	4	0
13	244	1	10000	4	1	0	4	0
13	245	1	10000	4	1	0	4	0
13	246	1	10000	4	1	0	4	0
13	247	1	10000	4	1	0	4	0
13	248	1	10000	4	1	0	4	0
13	249	1	10000	4	1	0	4	0
12	250	1	10000	4	1	0	4	0
12	250	1	10000	4	1	0	4	0
14	251	1	10000	4	1	0	4	0
13	253	1	10000	4	1	0	4	0
13	254	1	10000	4	1	0	4	0
13	255	1	10000	4	1	0	4	0
13	256	1	10000	4	1	0	4	0
14	257	1	10000	4	1	0	4	0
15	258	1	10000	4	1	0	4	0
17	259	1	10000	4	1	0	4	0
17	260	1	10000	4	1	0	4	0
16	260	1	10000	4	1	0	4	0
14	261	1	10000	4	1	0	4	0
15	263	1	10000	4	1	0	4	0
15	264	1	10000	4	1	0	4	0
16	265	1	10000	4	1	0	4	0
16	266	1	10000	4	1	0	4	0
16	267	1	10000	4	1	0	4	0
18	268	1	10000	4	1	0	4	0
19	269	1	10000	4	1	0	4	0
18	270	1	10000	4	1	0	4	0
19	270	1	10000	4	1	0	4	0
20	271	1	10000	4	1	0	4	0
19	273	1	10000	4	1	0	4	0
19	274	1	10000	4	1	0	4	0
18	275	1	10000	4	1	0	4	0
17	276	1	10000	4	1	0	4	0
18	277	1	10000	4	1	0	4	0
17	278	1	10000	4	1	0	4	0
17	279	1	10000	4	1	0	4	0
17	280	1	10000	4	1	0	4	0
15	280	1	10000	4	1	0	4	0
14	281	1	10000	4	1	0	4	0
16	283	1	10000	4	1	0	4	0
15	284	1	10000	4	1	0	4	0
16	285	1	10000	4	1	0	4	0
16	286	1	10000	4	1	0	4	0
16	287	1	10000	4	1	0	4	0
15	288	1	10000	4	1	0	4	0
15	289	1	10000	4	1	0	4	0
15	290	1	10000	4	1	0	4	0
16	290	1	10000	4	1	0	4	0
20	291	1	10000	4	1	0	4	0
22	293	1	10000	4	1	0	4	0
24	294	1	10000	4	1	0	4	0
23	295	1	10000	4	1	0	4	0
22	296	1	10000	4	1	0	4	0
21	297	1	10000	4	1	0	4	0
21	298	1	10000	4	1	0	4	0
21	299	1	10000	4	1	0	4	0
22	300	1	10000	4	1	0	4	0
21	300	1	10000	4	1	0	4	0
20	301	1	10000	4	1	0	4	0
21	303	1	10000	4	1	0	4	0
24	304	1	10000	4	1	0	4	0
24	305	1	10000	4	1	0	4	0
23	306	1	10000	4	1	0	4	0
24	307	1	10000	4	1	0	4	0
26	308	1	10000	4	1	0	4	0
29	309	1	10000	4	1	0	4	0
29	310	1	10000	4	1	0	4	0
30	310	1	10000	4	1	0	4	0
32	311	1	10000	4	1	0	4	0
30	313	1	10000	4	1	0	4	0
30	314	1	10000	4	1	0	4	0
28	315	1	10000	4	1	0	4	0
27	316	1	10000	4	1	0	4	0
27	317	1	10000	4	1	0	4	0
26	318	1	10000	4	1	0	4	0
27	319	1	10000	4	1	0	4	0
29	320	1	10000	4	1	0	4	0
32	320	1	10000	4	1	0	4	0
32	321	1	10000	4	1	0	4	0
34	323	1	10000	4	1	0	4	0
35	324	1	10000	4	1	0	4	0
33	325	1	10000	4	1	0	4	0
32	326	1	10000	4	1	0	4	0
32	327	1	10000	4	1	0	4	0
30	328	1	10000	4	1	0	4	0
29	329	1	10000	4	1	0	4	0
29	330	1	10000	4	1	0	4	0
31	330	1	10000	4	1	0	4	0
30	331	1	10000	4	1	0	4	0
29	333	1	10000	4	1	0	4	0
29	334	1	10000	4	1	0	4	0
29	335	1	10000	4	1	0	4	0
32	336	1	10000	4	1	0	4	0
34	337	1	10000	4	1	0	4	0
32	338	1	10000	4	1	0	4	0
32	339	1	10000	4	1	0	4	0
32	340	1	10000	4	1	0	4	0
32	340	1	10000	4	1	0	4	0
30	341	1	10000	4	1	0	4	0
29	343	1	10000	4	1	0	4	0
29	344	1	10000	4	1	0	4	0
28	345	1	10000	4	1	0	4	0
27	346	1	10000	4	1	0	4	0
27	347	1	10000	4	1	0	4	0
29	348	1	10000	4	1	0	4	0
28	349	1	10000	4	1	0	4	0
29	350	1	10000	4	1	0	4	0
32	350	1	10000	4	1	0	4	0
34	351	1	10000	4	1	0	4	0
33	353	1	10000	4	1	0	4	0
32	354	1	10000	4	1	0	4	0
31	355	1	10000	4	1	0	4	0
29	356	1	10000	4	1	0	4	0
28	357	1	10000	4	1	0	4	0
27	358	1	10000	4	1	0	4	0
27	359	1	10000	4	1	0	4	0
28	360	1	10000	4	1	0	4	0
26	360	1	10000	4	1	0	4	0
24	361	1	10000	4	1	0	4	0
24	363	1	10000	4	1	0	4	0
23	364	1	10000	4	1	0	4	0
23	365	1	10000	4	1	0	4	0
22	366	1	10000	4	1	0	4	0
23	367	1	10000	4	1	0	4	0
23	368	1	10000	4	1	0	4	0
21	369	1	10000	4	1	0	4	0
20	370	1	10000	4	1	0	4	0
20	370	1	10000	4	1	0	4	0
21	371	1	10000	4	1	0	4	0
20	373	1	10000	4	1	0	4	0
19	374	1	10000	4	1	0	4	0
18	375	1	10000	4	1	0	4	0
19	376	1	10000	4	1	0	4	0
18	377	1	10000	4	1	0	4	0
18	378	1	10000	4	1	0	4	0
19	379	1	10000	4	1	0	4	0
18	380	1	10000	4	1	0	4	0
18	380	1	10000	4	1	0	4	0
16	381	1	10000	4	1	0	4	0
17	383	1	10000	4	1	0	4	0
16	384	1	10000	4	1	0	4	0
17	385	1	10000	4	1	0	4	0
17	386	1	10000	4	1	0	4	0
17	387	1	10000	4	1	0	4	0
18	388	1	10000	4	1	0	4	0
17	389	1	10000	4	1	0	4	0
17	390	1	10000	4	1	0	4	0
18	390	1	10000	4	1	0	4	0
18	391	1	10000	4	1	0	4	0
17	393	1	10000	4	1	0	4	0
17	394	1	10000	4	1	0	4	0
16	395	1	10000	4	1	0	4	0
17	396	1	10000	4	1	0	4	0
18	397	1	10000	4	1	0	4	0
17	398	1	10000	4	1	0	4	0
17	399	1	10000	4	1	0	4	0
18	400	1	10000	4	1	0	4	0
19	400	1	10000	4	1	0	4	0
17	401	1	10000	4	1	0	4	0
20	403	1	10000	4	1	0	4	0
23	404	1	10000	4	1	0	4	0
27	405	1	10000	4	1	0	4	0
29	406	1	10000	4	1	0	4	0
29	407	1	10000	4	1	0	4	0
30	408	1	10000	4	1	0	4	0
28	409	1	10000	4	1	0	4	0
28	410	1	10000	4	1	0	4	0
28	410	1	10000	4	1	0	4	0
29	411	1	10000	4	1	0	4	0
29	413	1	10000	4	1	0	4	0
28	414	1	10000	4	1	0	4	0
26	415	1	10000	4	1	0	4	0
25	416	1	10000	4	1	0	4	0
25	417	1	10000	4	1	0	4	0
23	418	1	10000	4	1	0	4	0
24	419	1	10000	4	1	0	4	0
23	420	1	10000	4	1	0	4	0
24	420	1	10000	4	1	0	4	0
26	421	1	10000	4	1	0	4	0
27	423	1	10000	4	1	0	4	0
28	424	1	10000	4	1	0	4	0
28	425	1	10000	4	1	0	4	0
28	426	1	10000	4	1	0	4	0
27	427	1	10000	4	1	0	4	0
29	428	1	10000	4	1	0	4	0
29	429	1	10000	4	1	0	4	0
28	430	1	10000	4	1	0	4	0
29	430	1	10000	4	1	0	4	0
32	431	1	10000	4	1	0	4	0
32	433	1	10000	4	1	0	4	0
31	434	1	10000	4	1	0	4	0
32	435	1	10000	4	1	0	4	0
33	436	1	10000	4	1	0	4	0
31	437	1	10000	4	1	0	4	0
31	438	1	10000	4	1	0	4	0
31	439	1	10000	4	1	0	4	0
32	440	1	10000	4	1	0	4	0
33	440	1	10000	4	1	0	4	0
32	441	1	10000	4	1	0	4	0
32	443	1	10000	4	1	0	4	0
31	444	1	10000	4	1	0	4	0
33	445	1	10000	4	1	0	4	0
32	446	1	10000	4	1	0	4	0
32	447	1	10000	4	1	0	4	0
33	448	1	10000	4	1	0	4	0
32	449	1	10000	4	1	0	4	0
31	450	1	10000	4	1	0	4	0
31	450	1	10000	4	1	0	4	0
31	451	1	10000	4	1	0	4	0
31	453	1	10000	4	1	0	4	0
30	454	1	10000	4	1	0	4	0
29	455	1	10000	4	1	0	4	0
30	456	1	10000	4	1	0	4	0
30	457	1	10000	4	1	0	4	0
29	458	1	10000	4	1	0	4	0
30	459	1	10000	4	1	0	4	0
29	460	1	10000	4	1	0	4	0
28	460	1	10000	4	1	0	4	0
25	461	1	10000	4	1	0	4	0
24	463	1	10000	4	1	0	4	0
24	464	1	10000	4	1	0	4	0
25	465	1	10000	4	1	0	4	0
23	466	1	10000	4	1	0	4	0
23	467	1	10000	4	1	0	4	0
24	468	1	10000	4	1	0	4	0
22	469	1	10000	4	1	0	4	0
22	470	1	10000	4	1	0	4	0
22	470	1	10000	4	1	0	4	0
23	471	1	10000	4	1	0	4	0
22	473	1	10000	4	1	0	4	0
22	474	1	10000	4	1	0	4	0
21	475	1	10000	4	1	0	4	0
21	476	1	10000	4	1	0	4	0
22	477	1	10000	4	1	0	4	0
23	478	1	10000	4	1	0	4	0
24	479	1	10000	4	1	0	4	0
24	480	1	10000	4	1	0	4	0
23	480	1	10000	4	1	0	4	0
22	481	1	10000	4	1	0	4	0
23	483	1	10000	4	1	0	4	0
26	484	1	10000	4	1	0	4	0
26	485	1	10000	4	1	0	4	0
25	486	1	10000	4	1	0	4	0
24	487	1	10000	4	1	0	4	0
23	488	1	10000	4	1	0	4	0
22	489	1	10000	4	1	0	4	0
22	490	1	10000	4	1	0	4	0
23	490	1	10000	4	1	0	4	0
25	491	1	10000	4	1	0	4	0
24	493	1	10000	4	1	0	4	0
23	494	1	10000	4	1	0	4	0
22	495	1	10000	4	1	0	4	0
23	496	1	10000	4	1	0	4	0
23	497	1	10000	4	1	0	4	0
23	498	1	10000	4	1	0	4	0
25	499	1	10000	4	1	0	4	0
25	500	1	10000	4	1	0	4	0
24	500	1	10000	4	1	0	4	0
23	501	1	10000	4	1	0	4	0
23	503	1	10000	4	1	0	4	1
24	504	1	10000	4	1	0	4	1
24	505	1	10000	4	1	0	4	1
23	506	1	10000	4	1	0	4	1
22	507	1	10000	4	1	0	4	1
23	508	1	10000	4	1	0	4	1
21	509	1	10000	4	1	0	4	1
20	510	1	10000	4	1	0	4	1
20	510	1	10000	4	1	0	4	1
21	511	1	10000	4	1	0	4	1
20	513	1	10000	4	1	0	4	1
19	514	1	10000	4	1	0	4	1
19	515	1	10000	4	1	0	4	1
19	516	1	10000	4	1	0	4	1
20	517	1	10000	4	1	0	4	1
20	518	1	10000	4	1	0	4	1
21	519	1	10000	4	1	0	4	1
21	520	1	10000	4	1	0	4	1
20	520	1	10000	4	1	0	4	1
20	521	1	10000	4	1	0	4	1
18	523	1	10000	4	1	0	4	1
18	524	1	10000	4	1	0	4	1
19	525	1	10000	4	1	0	4	1
17	526	1	10000	4	1	0	4	1
17	527	1	10000	4	1	0	4	1
18	528	1	10000	4	1	0	4	1
20	529	1	10000	4	1	0	4	1
23	530	1	10000	4	1	0	4	1
24	530	1	10000	4	1	0	4	1
26	531	1	10000	4	1	0	4	1
25	533	1	10000	4	1	0	4	1
24	534	1	10000	4	1	0	4	1
23	535	1	10000	4	1	0	4	1
22	536	1	10000	4	1	0	4	1
22	537	1	10000	4	1	0	4	1
20	538	1	10000	4	1	0	4	1
21	539	1	10000	4	1	0	4	1
20	540	1	10000	4	1	0	4	1
20	540	1	10000	4	1	0	4	1
18	541	1	10000	4	1	0	4	1
18	543	1	10000	4	1	0	4	1
19	544	1	10000	4	1	0	4	1
20	545	1	10000	4	1	0	4	1
19	546	1	10000	4	1	0	4	1
19	547	1	10000	4	1	0	4	1
21	548	1	10000	4	1	0	4	1
20	549	1	10000	4	1	0	4	1
20	550	1	10000	4	1	0	4	1
22	550	1	10000	4	1	0	4	1
25	551	1	10000	4	1	0	4	1
23	553	1	10000	4	1	0	4	0
22	554	1	10000	4	1	0	4	0
21	555	1	10000	4	1	0	4	0
21	556	1	10000	4	1	0	4	0
21	557	1	10000	4	1	0	4	0
20	558	1	10000	4	1	0	4	0
21	559	1	10000	4	1	0	4	0
20	560	1	10000	4	1	0	4	0
20	560	1	10000	4	1	0	4	0
18	561	1	10000	4	1	0	4	0
17	563	1	10000	4	1	0	4	0
17	564	1	10000	4	1	0	4	0
17	565	1	10000	4	1	0	4	0
16	566	1	10000	4	1	0	4	0
16	567	1	10000	4	1	0	4	0
17	568	1	10000	4	1	0	4	0
16	569	1	10000	4	1	0	4	0
18	570	1	10000	4	1	0	4	0
20	570	1	10000	4	1	0	4	0
24	571	1	10000	4	1	0	4	0
27	573	1	10000	4	1	0	4	0
30	574	1	10000	4	1	0	4	0
29	575	1	10000	4	1	0	4	0
29	576	1	10000	4	1	0	4	0
29	577	1	10000	4	1	0	4	0
28	578	1	10000	4	1	0	4	0
29	579	1	10000	4	1	0	4	0
31	580	1	10000	4	1	0	4	0
32	580	1	10000	4	1	0	4	0
32	581	1	10000	4	1	0	4	0
37	583	1	10000	4	1	0	4	0
40	584	1	10000	4	1	0	4	0
39	585	1	10000	4	1	0	4	0
37	586	1	10000	4	1	0	4	0
36	587	1	10000	4	1	0	4	0
35	588	1	10000	4	1	0	4	0
32	589	1	10000	4	1	0	4	0
33	590	1	10000	4	1	0	4	0
34	590	1	10000	4	1	0	4	0
35	591	1	10000	4	1	0	4	0
35	593	1	10000	4	1	0	4	0
35	594	1	10000	4	1	0	4	0
35	595	1	10000	4	1	0	4	0
34	596	1	10000	4	1	0	4	0
37	597	1	10000	4	1	0	4	0
40	598	1	10000	4	1	0	4	0
40	599	1	10000	4	1	0	4	0
43	600	1	10000	4	1	0	4	0
51	600	1	10000	4	1	0	4	0
61	601	1	10000	4	1	0	4	0
67	603	1	10000	4	1	0	4	0
67	604	1	10000	4	1	0	4	0
70	605	1	10000	4	1	0	4	0
71	606	1	10000	4	1	0	4	0
80	607	1	10000	4	1	0	4	0
89	608	1	10000	4	1	0	4	0
92	609	1	10000	4	1	0	4	0
95	610	1	10000	4	1	0	4	0
94	610	1	10000	4	1	0	4	0
95	611	1	10000	4	1	0	4	0
92	613	1	10000	4	1	0	4	0
93	614	1	10000	4	1	0	4	0
96	615	1	10000	4	1	0	4	0
102	616	1	10000	4	1	0	4	0
106	617	1	10000	4	1	0	4	0
114	618	1	10000	4	1	0	4	0
122	619	1	10000	4	1	0	4	0
125	620	1	10000	4	1	0	4	0
129	620	1	10000	4	1	0	4	0
130	621	1	10000	4	1	0	4	0
133	623	1	10000	4	1	0	4	0
132	624	1	10000	4	1	0	4	0
128	625	1	10000	4	1	0	4	0
122	626	1	10000	4	1	0	4	0
118	627	1	10000	4	1	0	4	0
116	628	1	10000	4	1	0	4	0
115	629	1	10000	4	1	0	4	0
111	630	1	10000	4	1	0	4	0
108	630	1	10000	4	1	0	4	0
108	631	1	10000	4	1	0	4	0
105	633	1	10000	4	1	0	4	0
103	634	1	10000	4	1	0	4	0
99	635	1	10000	4	1	0	4	0
96	636	1	10000	4	1	0	4	0
92	637	1	10000	4	1	0	4	0
88	638	1	10000	4	1	0	4	0
85	639	1	10000	4	1	0	4	0
81	640	1	10000	4	1	0	4	0
79	640	1	10000	4	1	0	4	0
73	641	1	10000	4	1	0	4	0
71	643	1	10000	4	1	0	4	0
68	644	1	10000	4	1	0	4	0
67	645	1	10000	4	1	0	4	0
65	646	1	10000	4	1	0	4	0
62	647	1	10000	4	1	0	4	0
61	648	1	10000	4	1	0	4	0
58	649	1	10000	4	1	0	4	0
56	650	1	10000	4	1	0	4	0
54	650	1	10000	4	1	0	4	0
54	651	1	10000	4	1	0	4	0
52	653	1	10000	4	1	0	4	0
49	654	1	10000	4	1	0	4	0
47	655	1	10000	4	1	0	4	0
46	656	1	10000	4	1	0	4	0
44	657	1	10000	4	1	0	4	0
41	658	1	10000	4	1	0	4	0
42	659	1	10000	4	1	0	4	0
42	660	1	10000	4	1	0	4	0
43	660	1	10000	4	1	0	4	0
42	661	1	10000	4	1	0	4	0
42	663	1	10000	4	1	0	4	0
41	664	1	10000	4	1	0	4	0
40	665	1	10000	4	1	0	4	0
38	666	1	10000	4	1	0	4	0
38	667	1	10000	4	1	0	4	0
39	668	1	10000	4	1	0	4	0
39	669	1	10000	4	1	0	4	0
39	670	1	10000	4	1	0	4	0
38	670	1	10000	4	1	0	4	0
39	671	1	10000	4	1	0	4	0
38	673	1	10000	4	1	0	4	0
36	674	1	10000	4	1	0	4	0
34	675	1	10000	4	1	0	4	0
33	676	1	10000	4	1	0	4	0
31	677	1	10000	4	1	0	4	0
31	678	1	10000	4	1	0	4	0
32	679	1	10000	4	1	0	4	0
32	680	1	10000	4	1	0	4	0
31	680	1	10000	4	1	0	4	0
29	681	1	10000	4	1	0	4	0
28	692	1	10000	4	1	0	4	0
28	693	1	10000	4	1	0	4	0
27	694	1	10000	4	1	0	4	0
27	695	1	10000	4	1	0	4	0
28	696	1	10000	4	1	0	4	0
27	697	1	10000	4	1	0	4	0
26	698	1	10000	4	1	0	4	0
26	699	1	10000	4	1	0	4	0
26	700	1	10000	4	1	0	4	0
29	701	1	10000	4	1	0	4	0
30	700	1	10000	4	1	0	4	0
27	701	1	10000	4	1	0	4	0
27	702	1	10000	4	1	0	4	0
25	703	1	10000	4	1	0	4	0
25	704	1	10000	4	1	0	4	0
23	705	1	10000	4	1	0	4	0
23	706	1	10000	4	1	0	4	0
23	707	1	10000	4	1	0	4	0
22	708	1	10000	4	1	0	4	0
20	709	1	10000	4	1	0	4	0
20	711	1	10000	4	1	0	4	0
20	712	1	10000	4	1	0	4	0
20	713	1	10000	4	1	0	4	0
19	714	1	10000	4	1	0	4	0
19	715	1	10000	4	1	0	4	0
18	716	1	10000	4	1	0	4	0
18	717	1	10000	4	1	0	4	0
18	718	1	10000	4	1	0	4	0
17	719	1	10000	4	1	0	4	0
19	720	1	10000	4	1	0	4	0
19	717	1	10000	4	1	0	4	0
18	718	1	10000	4	1	0	4	0
17	719	1	10000	4	1	0	4	0
18	720	1	10000	4	1	0	4	0
17	721	1	10000	4	1	0	4	0
17	722	1	10000	4	1	0	4	0
20	721	1	10000	4	1	0	4	0
23	722	1	10000	4	1	0	4	0
24	723	1	10000	4	1	0	4	0
22	724	1	10000	4	1	0	4	0
22	728	1	10000	4	1	0	4	0
23	729	1	10000	4	1	0	4	0
23	730	1	10000	4	1	0	4	0
22	731	1	10000	4	1	0	4	0
22	732	1	10000	4	1	0	4	0
22	733	1	10000	4	1	0	4	0
22	732	1	10000	4	1	0	4	0
25	733	1	10000	4	1	0	4	0
27	734	1	10000	4	1	0	4	0
29	735	1	10000	4	1	0	4	0
29	736	1	10000	4	1	0	4	0
32	737	1	10000	4	1	0	4	0
33	739	1	10000	4	1	0	4	0
35	740	1	10000	4	1	0	4	0
34	741	1	10000	4	1	0	4	0
32	742	1	10000	4	1	0	4	0
32	743	1	10000	4	1	0	4	0
33	744	1	10000	4	1	0	4	0
32	743	1	10000	4	1	0	4	0
30	744	1	10000	4	1	0	4	0
31	745	1	10000	4	1	0	4	0
31	746	1	10000	4	1	0	4	0
31	749	1	10000	4	1	0	4	0
30	750	1	10000	4	1	0	4	0
30	751	1	10000	4	1	0	4	0
30	752	1	10000	4	1	0	4	0
31	753	1	10000	4	1	0	4	0
31	754	1	10000	4	1	0	4	0
30	755	1	10000	4	1	0	4	0
32	756	1	10000	4	1	0	4	0
32	757	1	10000	4	1	0	4	0
31	758	1	10000	4	1	0	4	0
31	759	1	10000	4	1	0	4	0
31	760	1	10000	4	1	0	4	0
31	760	1	10000	4	1	0	4	0
32	761	1	10000	4	1	0	4	0
34	762	1	10000	4	1	0	4	0
34	763	1	10000	4	1	0	4	0
34	766	1	10000	4	1	0	4	0
31	767	1	10000	4	1	0	4	0
30	768	1	10000	4	1	0	4	0
31	769	1	10000	4	1	0	4	0
31	770	1	10000	4	1	0	4	0
32	771	1	10000	4	1	0	4	0
34	772	1	10000	4	1	0	4	0
35	773	1	10000	4	1	0	4	0
33	771	1	10000	4	1	0	4	0
33	772	1	10000	4	1	0	4	0
32	773	1	10000	4	1	0	4	0
33	774	1	10000	4	1	0	4	0
32	778	1	10000	4	1	0	4	0
32	779	1	10000	4	1	0	4	0
33	780	1	10000	4	1	0	4	0
33	781	1	10000	4	1	0	4	0
33	782	1	10000	4	1	0	4	0
32	783	1	10000	4	1	0	4	0
31	784	1	10000	4	1	0	4	0
31	785	1	10000	4	1	0	4	0
30	781	1	10000	4	1	0	4	0
28	782	1	10000	4	1	0	4	0
29	783	1	10000	4	1	0	4	0
29	784	1	10000	4	1	0	4	0
28	785	1	10000	4	1	0	4	0
30	786	1	10000	4	1	0	4	0
35	787	1	10000	4	1	0	4	0
40	788	1	10000	4	1	0	4	0
41	789	1	10000	4	1	0	4	0
40	790	1	10000	4	1	0	4	0
42	791	1	10000	4	1	0	4	0
46	792	1	10000	4	1	0	4	0
46	793	1	10000	4	1	0	4	0
44	794	1	10000	4	1	0	4	0
43	795	1	10000	4	1	0	4	0
42	796	1	10000	4	1	0	4	0
41	797	1	10000	4	1	0	4	0
40	798	1	10000	4	1	0	4	0
40	799	1	10000	4	1	0	4	0
39	800	1	10000	4	1	0	4	0
37	801	1	10000	4	1	0	4	0
34	802	1	10000	4	1	0	4	0
32	803	1	10000	4	1	0	4	0
33	804	1	10000	4	1	0	4	0
32	805	1	10000	4	1	0	4	0
33	806	1	10000	4	1	0	4	0
36	807	1	10000	4	1	0	4	0
35	808	1	10000	4	1	0	4	0
32	809	1	10000	4	1	0	4	0
31	810	1	10000	4	1	0	4	0
32	811	1	10000	4	1	0	4	0
34	812	1	10000	4	1	0	4	0
33	813	1	10000	4	1	0	4	0
34	814	1	10000	4	1	0	4	0
35	815	1	10000	4	1	0	4	0
38	816	1	10000	4	1	0	4	0
37	817	1	10000	4	1	0	4	0
37	818	1	10000	4	1	0	4	0
36	819	1	10000	4	1	0	4	0
35	820	1	10000	4	1	0	4	0
34	821	1	10000	4	1	0	4	0
31	822	1	10000	4	1	0	4	0
30	823	1	10000	4	1	0	4	0
30	824	1	10000	4	1	0	4	0
28	825	1	10000	4	1	0	4	0
27	826	1	10000	4	1	0	4	0
27	827	1	10000	4	1	0	4	0
27	828	1	10000	4	1	0	4	0
26	829	1	10000	4	1	0	4	0
25	830	1	10000	4	1	0	4	0
24	831	1	10000	4	1	0	4	0
27	832	1	10000	4	1	0	4	0
30	833	1	10000	4	1	0	4	0
32	834	1	10000	4	1	0	4	0
32	835	1	10000	4	1	0	4	0
31	836	1	10000	4	1	0	4	0
31	837	1	10000	4	1	0	4	0
30	838	1	10000	4	1	0	4	0
30	839	1	10000	4	1	0	4	0
30	840	1	10000	4	1	0	4	0
30	841	1	10000	4	1	0	4	0
28	842	1	10000	4	1	0	4	0
28	843	1	10000	4	1	0	4	0
29	844	1	10000	4	1	0	4	0
29	845	1	10000	4	1	0	4	0
29	846	1	10000	4	1	0	4	0
30	847	1	10000	4	1	0	4	0
29	848	1	10000	4	1	0	4	0
27	849	1	10000	4	1	0	4	0
26	850	1	10000	4	1	0	4	0
25	851	1	10000	4	1	0	4	0
26	852	1	10000	4	1	0	4	0
25	853	1	10000	4	1	0	4	0
24	854	1	10000	4	1	0	4	0
23	855	1	10000	4	1	0	4	0
24	856	1	10000	4	1	0	4	0
26	857	1	10000	4	1	0	4	0
28	858	1	10000	4	1	0	4	0
29	859	1	10000	4	1	0	4	0
30	860	1	10000	4	1	0	4	0
30	861	1	10000	4	1	0	4	0
26	862	1	10000	4	1	0	4	0
27	863	1	10000	4	1	0	4	0
26	864	1	10000	4	1	0	4	0
26	865	1	10000	4	1	0	4	0
25	866	1	10000	4	1	0	4	0
26	867	1	10000	4	1	0	4	0
28	868	1	10000	4	1	0	4	0
27	869	1	10000	4	1	0	4	0
28	870	1	10000	4	1	0	4	0
28	871	1	10000	4	1	0	4	0
29	872	1	10000	4	1	0	4	0
28	873	1	10000	4	1	0	4	0
26	874	1	10000	4	1	0	4	0
26	875	1	10000	4	1	0	4	0
25	876	1	10000	4	1	0	4	0
25	877	1	10000	4	1	0	4	0
26	878	1	10000	4	1	0	4	0
26	879	1	10000	4	1	0	4	0
25	880	1	10000	4	1	0	4	0
25	881	1	10000	4	1	0	4	0
22	882	1	10000	4	1	0	4	0
21	883	1	10000	4	1	0	4	0
20	884	1	10000	4	1	0	4	0
21	885	1	10000	4	1	0	4	0
22	886	1	10000	4	1	0	4	0
23	887	1	10000	4	1	0	4	0
23	888	1	10000	4	1	0	4	0
21	889	1	10000	4	1	0	4	0
21	890	1	10000	4	1	0	4	0
22	891	1	10000	4	1	0	4	0
24	892	1	10000	4	1	0	4	0
26	893	1	10000	4	1	0	4	0
30	894	1	10000	4	1	0	4	0
33	895	1	10000	4	1	0	4	0
33	896	1	10000	4	1	0	4	0
33	897	1	10000	4	1	0	4	0
32	898	1	10000	4	1	0	4	0
32	899	1	10000	4	1	0	4	0
33	900	1	10000	4	1	0	4	0
34	901	1	10000	4	1	0	4	0
32	902	1	10000	4	1	0	4	0
32	903	1	10000	4	1	0	4	0
32	904	1	10000	4	1	0	4	0
31	905	1	10000	4	1	0	4	0
30	906	1	10000	4	1	0	4	0
29	907	1	10000	4	1	0	4	0
28	908	1	10000	4	1	0	4	0
28	909	1	10000	4	1	0	4	0
26	910	1	10000	4	1	0	4	0
25	911	1	10000	4	1	0	4	0
25	912	1	10000	4	1	0	4	0
24	913	1	10000	4	1	0	4	0
23	914	1	10000	4	1	0	4	0
22	915	1	10000	4	1	0	4	0
22	916	1	10000	4	1	0	4	0
22	917	1	10000	4	1	0	4	0
22	918	1	10000	4	1	0	4	0
22	919	1	10000	4	1	0	4	0
21	920	1	10000	4	1	0	4	0
21	921	1	10000	4	1	0	4	0
18	922	1	10000	4	1	0	4	0
19	923	1	10000	4	1	0	4	0
20	924	1	10000	4	1	0	4	0
19	925	1	10000	4	1	0	4	0
18	926	1	10000	4	1	0	4	0
18	927	1	10000	4	1	0	4	0
17	928	1	10000	4	1	0	4	0
17	929	1	10000	4	1	0	4	0
16	930	1	10000	4	1	0	4	0
15	931	1	10000	4	1	0	4	0
17	932	1	10000	4	1	0	4	0
18	933	1	10000	4	1	0	4	0
20	934	1	10000	4	1	0	4	0
22	935	1	10000	4	1	0	4	0
21	936	1	10000	4	1	0	4	0
21	937	1	10000	4	1	0	4	0
21	938	1	10000	4	1	0	4	0
23	939	1	10000	4	1	0	4	0
25	940	1	10000	4	1	0	4	0
25	941	1	10000	4	1	0	4	0
23	942	1	10000	4	1	0	4	0
23	943	1	10000	4	1	0	4	0
22	944	1	10000	4	1	0	4	0
21	945	1	10000	4	1	0	4	0
21	946	1	10000	4	1	0	4	0
20	947	1	10000	4	1	0	4	0
20	948	1	10000	4	1	0	4	0
20	949	1	10000	4	1	0	4	0
19	950	1	10000	4	1	0	4	0
18	951	1	10000	4	1	0	4	0
20	952	1	10000	4	1	0	4	0
20	953	1	10000	4	1	0	4	0
21	954	1	10000	4	1	0	4	0
21	955	1	10000	4	1	0	4	0
21	956	1	10000	4	1	0	4	0
20	957	1	10000	4	1	0	4	0
21	958	1	10000	4	1	0	4	0
21	959	1	10000	4	1	0	4	0
20	960	1	10000	4	1	0	4	0
21	961	1	10000	4	1	0	4	0
18	962	1	10000	4	1	0	4	0
19	963	1	10000	4	1	0	4	0
19	964	1	10000	4	1	0	4	0
20	965	1	10000	4	1	0	4	0
20	966	1	10000	4	1	0	4	0
24	967	1	10000	4	1	0	4	0
26	968	1	10000	4	1	0	4	0
26	969	1	10000	4	1	0	4	0
25	970	1	10000	4	1	0	4	0
25	971	1	10000	4	1	0	4	0
29	972	1	10000	4	1	0	4	0
29	973	1	10000	4	1	0	4	0
28	974	1	10000	4	1	0	4	0
28	975	1	10000	4	1	0	4	0
26	976	1	10000	4	1	0	4	0
25	977	1	10000	4	1	0	4	0
24	978	1	10000	4	1	0	4	0
24	979	1	10000	4	1	0	4	0
24	980	1	10000	4	1	0	4	0
24	981	1	10000	4	1	0	4	0
22	982	1	10000	4	1	0	4	0
22	983	1	10000	4	1	0	4	0
22	984	1	10000	4	1	0	4	0
23	985	1	10000	4	1	0	4	0
23	986	1	10000	4	1	0	4	0
24	987	1	10000	4	1	0	4	0
26	988	1	10000	4	1	0	4	0
25	989	1	10000	4	1	0	4	0
25	990	1	10000	4	1	0	4	0
24	991	1	10000	4	1	0	4	0
27	992	1	10000	4	1	0	4	0
26	993	1	10000	4	1	0	4	0
27	994	1	10000	4	1	0	4	0
29	995	1	10000	4	1	0	4	0
30	996	1	10000	4	1	0	4	0
29	997	1	10000	4	1	0	4	0
29	998	1	10000	4	1	0	4	0
30	999	1	10000	4	1	0	4	0
31	1000	1	10000	4	1	0	4	0
40	2	1	10000	5	1	0	5	0
39	3	1	10000	5	1	0	5	0
38	4	1	10000	5	1	0	5	0
39	5	1	10000	5	1	0	5	0
39	6	1	10000	5	1	0	5	0
39	7	1	10000	5	1	0	5	0
38	8	1	10000	5	1	0	5	0
38	9	1	10000	5	1	0	5	0
38	10	1	10000	5	1	0	5	0
36	11	1	10000	5	1	0	5	0
35	12	1	10000	5	1	0	5	0
35	13	1	10000	5	1	0	5	0
33	14	1	10000	5	1	0	5	0
32	15	1	10000	5	1	0	5	0
33	16	1	10000	5	1	0	5	0
34	17	1	10000	5	1	0	5	0
32	18	1	10000	5	1	0	5	0
30	19	1	10000	5	1	0	5	0
30	20	1	10000	5	1	0	5	0
33	21	1	10000	5	1	0	5	0
35	22	1	10000	5	1	0	5	0
35	23	1	10000	5	1	0	5	0
34	24	1	10000	5	1	0	5	0
33	25	1	10000	5	1	0	5	0
32	26	1	10000	5	1	0	5	0
31	27	1	10000	5	1	0	5	0
30	28	1	10000	5	1	0	5	0
30	29	1	10000	5	1	0	5	0
30	30	1	10000	5	1	0	5	0
27	31	1	10000	5	1	0	5	0
26	32	1	10000	5	1	0	5	0
27	33	1	10000	5	1	0	5	0
28	34	1	10000	5	1	0	5	0
29	35	1	10000	5	1	0	5	0
31	36	1	10000	5	1	0	5	0
33	37	1	10000	5	1	0	5	0
34	38	1	10000	5	1	0	5	0
36	39	1	10000	5	1	0	5	0
38	40	1	10000	5	1	0	5	0
39	41	1	10000	5	1	0	5	0
39	42	1	10000	5	1	0	5	0
39	43	1	10000	5	1	0	5	0
39	44	1	10000	5	1	0	5	0
37	45	1	10000	5	1	0	5	0
36	46	1	10000	5	1	0	5	0
37	47	1	10000	5	1	0	5	0
36	48	1	10000	5	1	0	5	0
37	49	1	10000	5	1	0	5	0
36	50	1	10000	5	1	0	5	0
34	51	1	10000	5	1	0	5	0
32	52	1	10000	5	1	0	5	0
31	53	1	10000	5	1	0	5	0
31	54	1	10000	5	1	0	5	0
32	55	1	10000	5	1	0	5	0
33	56	1	10000	5	1	0	5	0
32	57	1	10000	5	1	0	5	0
32	58	1	10000	5	1	0	5	0
30	59	1	10000	5	1	0	5	0
29	60	1	10000	5	1	0	5	0
28	61	1	10000	5	1	0	5	0
28	62	1	10000	5	1	0	5	0
27	63	1	10000	5	1	0	5	0
28	64	1	10000	5	1	0	5	0
29	65	1	10000	5	1	0	5	0
28	66	1	10000	5	1	0	5	0
28	67	1	10000	5	1	0	5	0
26	68	1	10000	5	1	0	5	0
29	69	1	10000	5	1	0	5	0
31	70	1	10000	5	1	0	5	0
30	71	1	10000	5	1	0	5	0
30	72	1	10000	5	1	0	5	0
30	73	1	10000	5	1	0	5	0
31	74	1	10000	5	1	0	5	0
30	75	1	10000	5	1	0	5	0
29	76	1	10000	5	1	0	5	0
31	77	1	10000	5	1	0	5	0
33	78	1	10000	5	1	0	5	0
34	79	1	10000	5	1	0	5	0
36	80	1	10000	5	1	0	5	0
36	81	1	10000	5	1	0	5	0
35	82	1	10000	5	1	0	5	0
35	83	1	10000	5	1	0	5	0
34	84	1	10000	5	1	0	5	0
35	85	1	10000	5	1	0	5	0
37	86	1	10000	5	1	0	5	0
40	87	1	10000	5	1	0	5	0
42	88	1	10000	5	1	0	5	0
46	89	1	10000	5	1	0	5	0
49	90	1	10000	5	1	0	5	0
47	91	1	10000	5	1	0	5	0
46	92	1	10000	5	1	0	5	0
46	93	1	10000	5	1	0	5	0
45	94	1	10000	5	1	0	5	0
44	95	1	10000	5	1	0	5	0
44	96	1	10000	5	1	0	5	0
43	97	1	10000	5	1	0	5	0
42	98	1	10000	5	1	0	5	0
41	99	1	10000	5	1	0	5	0
41	100	1	10000	5	1	0	5	0
40	101	1	10000	5	1	0	5	0
40	102	1	10000	5	1	0	5	0
39	103	1	10000	5	1	0	5	0
38	104	1	10000	5	1	0	5	0
37	105	1	10000	5	1	0	5	0
35	106	1	10000	5	1	0	5	0
35	107	1	10000	5	1	0	5	0
33	108	1	10000	5	1	0	5	0
35	109	1	10000	5	1	0	5	0
35	110	1	10000	5	1	0	5	0
34	111	1	10000	5	1	0	5	0
34	112	1	10000	5	1	0	5	0
33	113	1	10000	5	1	0	5	0
32	114	1	10000	5	1	0	5	0
33	115	1	10000	5	1	0	5	0
34	116	1	10000	5	1	0	5	0
32	117	1	10000	5	1	0	5	0
32	118	1	10000	5	1	0	5	0
31	119	1	10000	5	1	0	5	0
32	120	1	10000	5	1	0	5	0
32	121	1	10000	5	1	0	5	0
32	122	1	10000	5	1	0	5	0
33	123	1	10000	5	1	0	5	0
34	124	1	10000	5	1	0	5	0
33	125	1	10000	5	1	0	5	0
31	126	1	10000	5	1	0	5	0
30	127	1	10000	5	1	0	5	0
28	128	1	10000	5	1	0	5	0
29	129	1	10000	5	1	0	5	0
28	130	1	10000	5	1	0	5	0
28	131	1	10000	5	1	0	5	0
27	132	1	10000	5	1	0	5	0
26	133	1	10000	5	1	0	5	0
24	134	1	10000	5	1	0	5	0
24	135	1	10000	5	1	0	5	0
25	136	1	10000	5	1	0	5	0
25	137	1	10000	5	1	0	5	0
24	138	1	10000	5	1	0	5	0
22	139	1	10000	5	1	0	5	0
21	140	1	10000	5	1	0	5	0
21	141	1	10000	5	1	0	5	0
22	142	1	10000	5	1	0	5	0
21	143	1	10000	5	1	0	5	0
24	144	1	10000	5	1	0	5	0
27	145	1	10000	5	1	0	5	0
27	146	1	10000	5	1	0	5	0
27	147	1	10000	5	1	0	5	0
26	148	1	10000	5	1	0	5	0
27	149	1	10000	5	1	0	5	0
26	150	1	10000	5	1	0	5	0
27	151	1	10000	5	1	0	5	0
28	152	1	10000	5	1	0	5	0
29	153	1	10000	5	1	0	5	0
28	154	1	10000	5	1	0	5	0
27	155	1	10000	5	1	0	5	0
29	156	1	10000	5	1	0	5	0
29	157	1	10000	5	1	0	5	0
29	158	1	10000	5	1	0	5	0
26	159	1	10000	5	1	0	5	0
25	160	1	10000	5	1	0	5	0
26	161	1	10000	5	1	0	5	0
26	162	1	10000	5	1	0	5	0
26	163	1	10000	5	1	0	5	0
26	164	1	10000	5	1	0	5	0
26	165	1	10000	5	1	0	5	0
26	166	1	10000	5	1	0	5	0
28	167	1	10000	5	1	0	5	0
26	168	1	10000	5	1	0	5	0
28	169	1	10000	5	1	0	5	0
30	170	1	10000	5	1	0	5	0
29	171	1	10000	5	1	0	5	0
28	172	1	10000	5	1	0	5	0
28	173	1	10000	5	1	0	5	0
27	174	1	10000	5	1	0	5	0
26	175	1	10000	5	1	0	5	0
27	176	1	10000	5	1	0	5	0
29	177	1	10000	5	1	0	5	0
31	178	1	10000	5	1	0	5	0
31	179	1	10000	5	1	0	5	0
30	180	1	10000	5	1	0	5	0
29	181	1	10000	5	1	0	5	0
28	182	1	10000	5	1	0	5	0
28	183	1	10000	5	1	0	5	0
29	184	1	10000	5	1	0	5	0
29	185	1	10000	5	1	0	5	0
28	186	1	10000	5	1	0	5	0
28	187	1	10000	5	1	0	5	0
28	188	1	10000	5	1	0	5	0
30	189	1	10000	5	1	0	5	0
29	190	1	10000	5	1	0	5	0
29	191	1	10000	5	1	0	5	0
28	192	1	10000	5	1	0	5	0
30	193	1	10000	5	1	0	5	0
31	194	1	10000	5	1	0	5	0
32	195	1	10000	5	1	0	5	0
32	196	1	10000	5	1	0	5	0
31	197	1	10000	5	1	0	5	0
29	198	1	10000	5	1	0	5	0
27	199	1	10000	5	1	0	5	0
29	200	1	10000	5	1	0	5	0
32	201	1	10000	5	1	0	5	0
34	202	1	10000	5	1	0	5	0
33	203	1	10000	5	1	0	5	0
33	204	1	10000	5	1	0	5	0
31	205	1	10000	5	1	0	5	0
29	206	1	10000	5	1	0	5	0
29	207	1	10000	5	1	0	5	0
29	208	1	10000	5	1	0	5	0
29	209	1	10000	5	1	0	5	0
28	210	1	10000	5	1	0	5	0
29	211	1	10000	5	1	0	5	0
30	212	1	10000	5	1	0	5	0
32	213	1	10000	5	1	0	5	0
33	214	1	10000	5	1	0	5	0
33	215	1	10000	5	1	0	5	0
35	216	1	10000	5	1	0	5	0
36	217	1	10000	5	1	0	5	0
37	218	1	10000	5	1	0	5	0
34	219	1	10000	5	1	0	5	0
34	220	1	10000	5	1	0	5	0
34	221	1	10000	5	1	0	5	0
34	222	1	10000	5	1	0	5	0
34	223	1	10000	5	1	0	5	0
33	224	1	10000	5	1	0	5	0
33	225	1	10000	5	1	0	5	0
31	226	1	10000	5	1	0	5	0
31	227	1	10000	5	1	0	5	0
29	228	1	10000	5	1	0	5	0
31	229	1	10000	5	1	0	5	0
30	230	1	10000	5	1	0	5	0
30	231	1	10000	5	1	0	5	0
29	232	1	10000	5	1	0	5	0
29	233	1	10000	5	1	0	5	0
30	234	1	10000	5	1	0	5	0
31	235	1	10000	5	1	0	5	0
31	236	1	10000	5	1	0	5	0
31	237	1	10000	5	1	0	5	0
30	238	1	10000	5	1	0	5	0
29	239	1	10000	5	1	0	5	0
30	240	1	10000	5	1	0	5	0
31	241	1	10000	5	1	0	5	0
29	242	1	10000	5	1	0	5	0
28	243	1	10000	5	1	0	5	0
28	244	1	10000	5	1	0	5	0
29	245	1	10000	5	1	0	5	0
28	246	1	10000	5	1	0	5	0
27	247	1	10000	5	1	0	5	0
26	248	1	10000	5	1	0	5	0
27	249	1	10000	5	1	0	5	0
27	250	1	10000	5	1	0	5	0
29	251	1	10000	5	1	0	5	0
28	252	1	10000	5	1	0	5	0
28	253	1	10000	5	1	0	5	0
29	254	1	10000	5	1	0	5	0
29	255	1	10000	5	1	0	5	0
29	256	1	10000	5	1	0	5	0
29	257	1	10000	5	1	0	5	0
29	258	1	10000	5	1	0	5	0
27	259	1	10000	5	1	0	5	0
27	260	1	10000	5	1	0	5	0
28	261	1	10000	5	1	0	5	0
28	262	1	10000	5	1	0	5	0
28	263	1	10000	5	1	0	5	0
28	264	1	10000	5	1	0	5	0
28	265	1	10000	5	1	0	5	0
28	266	1	10000	5	1	0	5	0
29	267	1	10000	5	1	0	5	0
28	268	1	10000	5	1	0	5	0
31	269	1	10000	5	1	0	5	0
30	270	1	10000	5	1	0	5	0
29	271	1	10000	5	1	0	5	0
28	272	1	10000	5	1	0	5	0
27	273	1	10000	5	1	0	5	0
26	274	1	10000	5	1	0	5	0
25	275	1	10000	5	1	0	5	0
25	276	1	10000	5	1	0	5	0
26	277	1	10000	5	1	0	5	0
27	278	1	10000	5	1	0	5	0
25	279	1	10000	5	1	0	5	0
25	280	1	10000	5	1	0	5	0
24	281	1	10000	5	1	0	5	0
23	282	1	10000	5	1	0	5	0
24	283	1	10000	5	1	0	5	0
24	284	1	10000	5	1	0	5	0
24	285	1	10000	5	1	0	5	0
23	286	1	10000	5	1	0	5	0
23	287	1	10000	5	1	0	5	0
23	288	1	10000	5	1	0	5	0
25	289	1	10000	5	1	0	5	0
24	290	1	10000	5	1	0	5	0
23	291	1	10000	5	1	0	5	0
24	292	1	10000	5	1	0	5	0
27	293	1	10000	5	1	0	5	0
28	294	1	10000	5	1	0	5	0
28	295	1	10000	5	1	0	5	0
28	296	1	10000	5	1	0	5	0
28	297	1	10000	5	1	0	5	0
27	298	1	10000	5	1	0	5	0
24	299	1	10000	5	1	0	5	0
24	300	1	10000	5	1	0	5	0
25	301	1	10000	5	1	0	5	0
26	302	1	10000	5	1	0	5	0
26	303	1	10000	5	1	0	5	0
28	304	1	10000	5	1	0	5	0
32	305	1	10000	5	1	0	5	0
33	306	1	10000	5	1	0	5	0
32	307	1	10000	5	1	0	5	0
32	308	1	10000	5	1	0	5	0
36	309	1	10000	5	1	0	5	0
37	310	1	10000	5	1	0	5	0
36	311	1	10000	5	1	0	5	0
35	312	1	10000	5	1	0	5	0
35	313	1	10000	5	1	0	5	0
34	314	1	10000	5	1	0	5	0
33	315	1	10000	5	1	0	5	0
35	316	1	10000	5	1	0	5	0
35	317	1	10000	5	1	0	5	0
34	318	1	10000	5	1	0	5	0
30	319	1	10000	5	1	0	5	0
31	320	1	10000	5	1	0	5	0
32	321	1	10000	5	1	0	5	0
32	322	1	10000	5	1	0	5	0
30	323	1	10000	5	1	0	5	0
29	324	1	10000	5	1	0	5	0
29	325	1	10000	5	1	0	5	0
30	326	1	10000	5	1	0	5	0
32	327	1	10000	5	1	0	5	0
34	328	1	10000	5	1	0	5	0
36	329	1	10000	5	1	0	5	0
35	330	1	10000	5	1	0	5	0
33	331	1	10000	5	1	0	5	0
31	332	1	10000	5	1	0	5	0
30	333	1	10000	5	1	0	5	0
29	334	1	10000	5	1	0	5	0
28	335	1	10000	5	1	0	5	0
28	336	1	10000	5	1	0	5	0
28	337	1	10000	5	1	0	5	0
28	338	1	10000	5	1	0	5	0
25	339	1	10000	5	1	0	5	0
25	340	1	10000	5	1	0	5	0
25	341	1	10000	5	1	0	5	0
23	342	1	10000	5	1	0	5	0
23	343	1	10000	5	1	0	5	0
22	344	1	10000	5	1	0	5	0
21	345	1	10000	5	1	0	5	0
21	346	1	10000	5	1	0	5	0
21	347	1	10000	5	1	0	5	0
21	348	1	10000	5	1	0	5	0
22	349	1	10000	5	1	0	5	0
22	350	1	10000	5	1	0	5	0
23	351	1	10000	5	1	0	5	0
24	352	1	10000	5	1	0	5	0
26	353	1	10000	5	1	0	5	0
26	354	1	10000	5	1	0	5	0
26	355	1	10000	5	1	0	5	0
26	356	1	10000	5	1	0	5	0
25	357	1	10000	5	1	0	5	0
26	358	1	10000	5	1	0	5	0
24	359	1	10000	5	1	0	5	0
24	360	1	10000	5	1	0	5	0
25	361	1	10000	5	1	0	5	0
24	362	1	10000	5	1	0	5	0
23	363	1	10000	5	1	0	5	0
24	364	1	10000	5	1	0	5	0
26	365	1	10000	5	1	0	5	0
26	366	1	10000	5	1	0	5	0
29	367	1	10000	5	1	0	5	0
32	368	1	10000	5	1	0	5	0
36	369	1	10000	5	1	0	5	0
36	370	1	10000	5	1	0	5	0
35	371	1	10000	5	1	0	5	0
35	372	1	10000	5	1	0	5	0
37	373	1	10000	5	1	0	5	0
40	374	1	10000	5	1	0	5	0
42	375	1	10000	5	1	0	5	0
41	376	1	10000	5	1	0	5	0
40	377	1	10000	5	1	0	5	0
41	378	1	10000	5	1	0	5	0
39	379	1	10000	5	1	0	5	0
39	380	1	10000	5	1	0	5	0
38	381	1	10000	5	1	0	5	0
37	382	1	10000	5	1	0	5	0
35	383	1	10000	5	1	0	5	0
34	384	1	10000	5	1	0	5	0
34	385	1	10000	5	1	0	5	0
32	386	1	10000	5	1	0	5	0
32	387	1	10000	5	1	0	5	0
32	388	1	10000	5	1	0	5	0
33	389	1	10000	5	1	0	5	0
33	390	1	10000	5	1	0	5	0
33	391	1	10000	5	1	0	5	0
32	392	1	10000	5	1	0	5	0
31	393	1	10000	5	1	0	5	0
30	394	1	10000	5	1	0	5	0
31	395	1	10000	5	1	0	5	0
32	396	1	10000	5	1	0	5	0
34	397	1	10000	5	1	0	5	0
36	398	1	10000	5	1	0	5	0
34	399	1	10000	5	1	0	5	0
35	400	1	10000	5	1	0	5	0
38	401	1	10000	5	1	0	5	0
40	402	1	10000	5	1	0	5	0
40	403	1	10000	5	1	0	5	0
39	404	1	10000	5	1	0	5	0
40	405	1	10000	5	1	0	5	0
38	406	1	10000	5	1	0	5	0
37	407	1	10000	5	1	0	5	0
37	408	1	10000	5	1	0	5	0
38	409	1	10000	5	1	0	5	0
37	410	1	10000	5	1	0	5	0
37	411	1	10000	5	1	0	5	0
35	412	1	10000	5	1	0	5	0
35	413	1	10000	5	1	0	5	0
34	414	1	10000	5	1	0	5	0
34	415	1	10000	5	1	0	5	0
33	416	1	10000	5	1	0	5	0
32	417	1	10000	5	1	0	5	0
32	418	1	10000	5	1	0	5	0
30	419	1	10000	5	1	0	5	0
30	420	1	10000	5	1	0	5	0
31	421	1	10000	5	1	0	5	0
29	422	1	10000	5	1	0	5	0
29	423	1	10000	5	1	0	5	0
29	424	1	10000	5	1	0	5	0
30	425	1	10000	5	1	0	5	0
30	426	1	10000	5	1	0	5	0
31	427	1	10000	5	1	0	5	0
31	428	1	10000	5	1	0	5	0
32	429	1	10000	5	1	0	5	0
31	430	1	10000	5	1	0	5	0
30	431	1	10000	5	1	0	5	0
29	432	1	10000	5	1	0	5	0
30	433	1	10000	5	1	0	5	0
31	434	1	10000	5	1	0	5	0
32	435	1	10000	5	1	0	5	0
34	436	1	10000	5	1	0	5	0
35	437	1	10000	5	1	0	5	0
36	438	1	10000	5	1	0	5	0
32	439	1	10000	5	1	0	5	0
31	440	1	10000	5	1	0	5	0
30	441	1	10000	5	1	0	5	0
29	442	1	10000	5	1	0	5	0
28	443	1	10000	5	1	0	5	0
28	444	1	10000	5	1	0	5	0
27	445	1	10000	5	1	0	5	0
26	446	1	10000	5	1	0	5	0
25	447	1	10000	5	1	0	5	0
26	448	1	10000	5	1	0	5	0
28	449	1	10000	5	1	0	5	0
28	450	1	10000	5	1	0	5	0
28	451	1	10000	5	1	0	5	0
27	452	1	10000	5	1	0	5	0
26	453	1	10000	5	1	0	5	0
24	454	1	10000	5	1	0	5	0
25	455	1	10000	5	1	0	5	0
24	456	1	10000	5	1	0	5	0
26	457	1	10000	5	1	0	5	0
27	458	1	10000	5	1	0	5	0
24	459	1	10000	5	1	0	5	0
26	460	1	10000	5	1	0	5	0
28	461	1	10000	5	1	0	5	0
30	462	1	10000	5	1	0	5	0
31	463	1	10000	5	1	0	5	0
32	464	1	10000	5	1	0	5	0
32	465	1	10000	5	1	0	5	0
31	466	1	10000	5	1	0	5	0
30	467	1	10000	5	1	0	5	0
29	468	1	10000	5	1	0	5	0
31	469	1	10000	5	1	0	5	0
31	470	1	10000	5	1	0	5	0
30	471	1	10000	5	1	0	5	0
30	472	1	10000	5	1	0	5	0
29	473	1	10000	5	1	0	5	0
28	474	1	10000	5	1	0	5	0
30	475	1	10000	5	1	0	5	0
32	476	1	10000	5	1	0	5	0
32	477	1	10000	5	1	0	5	0
33	478	1	10000	5	1	0	5	0
31	479	1	10000	5	1	0	5	0
31	480	1	10000	5	1	0	5	0
31	481	1	10000	5	1	0	5	0
32	482	1	10000	5	1	0	5	0
33	483	1	10000	5	1	0	5	0
33	484	1	10000	5	1	0	5	0
33	485	1	10000	5	1	0	5	0
32	486	1	10000	5	1	0	5	0
32	487	1	10000	5	1	0	5	0
32	488	1	10000	5	1	0	5	0
33	489	1	10000	5	1	0	5	0
32	490	1	10000	5	1	0	5	0
30	491	1	10000	5	1	0	5	0
29	492	1	10000	5	1	0	5	0
27	493	1	10000	5	1	0	5	0
27	494	1	10000	5	1	0	5	0
26	495	1	10000	5	1	0	5	0
26	496	1	10000	5	1	0	5	0
25	497	1	10000	5	1	0	5	0
25	498	1	10000	5	1	0	5	0
22	499	1	10000	5	1	0	5	0
22	500	1	10000	5	1	0	5	0
22	501	1	10000	5	1	0	5	0
23	502	1	10000	5	1	0	5	1
25	503	1	10000	5	1	0	5	1
26	504	1	10000	5	1	0	5	1
27	505	1	10000	5	1	0	5	1
26	506	1	10000	5	1	0	5	1
26	507	1	10000	5	1	0	5	1
24	508	1	10000	5	1	0	5	1
25	509	1	10000	5	1	0	5	1
25	510	1	10000	5	1	0	5	1
24	511	1	10000	5	1	0	5	1
24	512	1	10000	5	1	0	5	1
23	513	1	10000	5	1	0	5	1
24	514	1	10000	5	1	0	5	1
24	515	1	10000	5	1	0	5	1
24	516	1	10000	5	1	0	5	1
24	517	1	10000	5	1	0	5	1
23	518	1	10000	5	1	0	5	1
22	519	1	10000	5	1	0	5	1
22	520	1	10000	5	1	0	5	1
23	521	1	10000	5	1	0	5	1
24	522	1	10000	5	1	0	5	1
26	523	1	10000	5	1	0	5	1
26	524	1	10000	5	1	0	5	1
25	525	1	10000	5	1	0	5	1
24	526	1	10000	5	1	0	5	1
25	527	1	10000	5	1	0	5	1
24	528	1	10000	5	1	0	5	1
25	529	1	10000	5	1	0	5	1
24	530	1	10000	5	1	0	5	1
23	531	1	10000	5	1	0	5	1
23	532	1	10000	5	1	0	5	1
21	533	1	10000	5	1	0	5	1
21	534	1	10000	5	1	0	5	1
21	535	1	10000	5	1	0	5	1
20	536	1	10000	5	1	0	5	1
20	537	1	10000	5	1	0	5	1
20	538	1	10000	5	1	0	5	1
18	539	1	10000	5	1	0	5	1
18	540	1	10000	5	1	0	5	1
18	541	1	10000	5	1	0	5	1
18	542	1	10000	5	1	0	5	1
18	543	1	10000	5	1	0	5	1
18	544	1	10000	5	1	0	5	1
20	545	1	10000	5	1	0	5	1
22	546	1	10000	5	1	0	5	1
22	547	1	10000	5	1	0	5	1
21	548	1	10000	5	1	0	5	1
24	549	1	10000	5	1	0	5	1
24	550	1	10000	5	1	0	5	1
23	551	1	10000	5	1	0	5	1
23	552	1	10000	5	1	0	5	0
22	553	1	10000	5	1	0	5	0
23	554	1	10000	5	1	0	5	0
23	555	1	10000	5	1	0	5	0
22	556	1	10000	5	1	0	5	0
23	557	1	10000	5	1	0	5	0
24	558	1	10000	5	1	0	5	0
21	559	1	10000	5	1	0	5	0
20	560	1	10000	5	1	0	5	0
20	561	1	10000	5	1	0	5	0
20	562	1	10000	5	1	0	5	0
20	563	1	10000	5	1	0	5	0
20	564	1	10000	5	1	0	5	0
20	565	1	10000	5	1	0	5	0
19	566	1	10000	5	1	0	5	0
19	567	1	10000	5	1	0	5	0
19	568	1	10000	5	1	0	5	0
21	569	1	10000	5	1	0	5	0
20	570	1	10000	5	1	0	5	0
20	571	1	10000	5	1	0	5	0
19	572	1	10000	5	1	0	5	0
19	573	1	10000	5	1	0	5	0
20	574	1	10000	5	1	0	5	0
19	575	1	10000	5	1	0	5	0
20	584	1	10000	5	1	0	5	0
21	585	1	10000	5	1	0	5	0
23	586	1	10000	5	1	0	5	0
21	587	1	10000	5	1	0	5	0
21	588	1	10000	5	1	0	5	0
21	589	1	10000	5	1	0	5	0
20	590	1	10000	5	1	0	5	0
21	591	1	10000	5	1	0	5	0
21	592	1	10000	5	1	0	5	0
21	593	1	10000	5	1	0	5	0
21	592	1	10000	5	1	0	5	0
24	593	1	10000	5	1	0	5	0
27	594	1	10000	5	1	0	5	0
31	595	1	10000	5	1	0	5	0
31	596	1	10000	5	1	0	5	0
30	597	1	10000	5	1	0	5	0
31	598	1	10000	5	1	0	5	0
30	599	1	10000	5	1	0	5	0
29	599	1	10000	5	1	0	5	0
30	600	1	10000	5	1	0	5	0
32	601	1	10000	5	1	0	5	0
33	602	1	10000	5	1	0	5	0
34	603	1	10000	5	1	0	5	0
32	604	1	10000	5	1	0	5	0
37	605	1	10000	5	1	0	5	0
41	606	1	10000	5	1	0	5	0
42	606	1	10000	5	1	0	5	0
42	607	1	10000	5	1	0	5	0
48	608	1	10000	5	1	0	5	0
55	609	1	10000	5	1	0	5	0
55	610	1	10000	5	1	0	5	0
55	611	1	10000	5	1	0	5	0
54	611	1	10000	5	1	0	5	0
56	612	1	10000	5	1	0	5	0
56	613	1	10000	5	1	0	5	0
58	614	1	10000	5	1	0	5	0
61	615	1	10000	5	1	0	5	0
62	616	1	10000	5	1	0	5	0
62	619	1	10000	5	1	0	5	0
64	620	1	10000	5	1	0	5	0
68	621	1	10000	5	1	0	5	0
73	622	1	10000	5	1	0	5	0
76	623	1	10000	5	1	0	5	0
73	624	1	10000	5	1	0	5	0
73	623	1	10000	5	1	0	5	0
77	624	1	10000	5	1	0	5	0
82	625	1	10000	5	1	0	5	0
83	626	1	10000	5	1	0	5	0
81	627	1	10000	5	1	0	5	0
78	628	1	10000	5	1	0	5	0
75	630	1	10000	5	1	0	5	0
72	631	1	10000	5	1	0	5	0
71	632	1	10000	5	1	0	5	0
74	633	1	10000	5	1	0	5	0
72	634	1	10000	5	1	0	5	0
70	635	1	10000	5	1	0	5	0
70	634	1	10000	5	1	0	5	0
68	635	1	10000	5	1	0	5	0
66	636	1	10000	5	1	0	5	0
63	637	1	10000	5	1	0	5	0
62	640	1	10000	5	1	0	5	0
63	641	1	10000	5	1	0	5	0
62	642	1	10000	5	1	0	5	0
59	643	1	10000	5	1	0	5	0
56	644	1	10000	5	1	0	5	0
55	645	1	10000	5	1	0	5	0
53	646	1	10000	5	1	0	5	0
50	647	1	10000	5	1	0	5	0
48	648	1	10000	5	1	0	5	0
48	649	1	10000	5	1	0	5	0
47	650	1	10000	5	1	0	5	0
44	651	1	10000	5	1	0	5	0
42	648	1	10000	5	1	0	5	0
44	649	1	10000	5	1	0	5	0
41	650	1	10000	5	1	0	5	0
40	651	1	10000	5	1	0	5	0
37	652	1	10000	5	1	0	5	0
36	653	1	10000	5	1	0	5	0
34	654	1	10000	5	1	0	5	0
33	655	1	10000	5	1	0	5	0
32	656	1	10000	5	1	0	5	0
32	657	1	10000	5	1	0	5	0
32	658	1	10000	5	1	0	5	0
29	659	1	10000	5	1	0	5	0
29	660	1	10000	5	1	0	5	0
29	661	1	10000	5	1	0	5	0
28	662	1	10000	5	1	0	5	0
27	663	1	10000	5	1	0	5	0
26	664	1	10000	5	1	0	5	0
26	665	1	10000	5	1	0	5	0
25	666	1	10000	5	1	0	5	0
23	667	1	10000	5	1	0	5	0
22	668	1	10000	5	1	0	5	0
24	669	1	10000	5	1	0	5	0
23	670	1	10000	5	1	0	5	0
22	671	1	10000	5	1	0	5	0
21	672	1	10000	5	1	0	5	0
20	673	1	10000	5	1	0	5	0
20	674	1	10000	5	1	0	5	0
20	675	1	10000	5	1	0	5	0
20	676	1	10000	5	1	0	5	0
21	677	1	10000	5	1	0	5	0
24	678	1	10000	5	1	0	5	0
24	679	1	10000	5	1	0	5	0
23	680	1	10000	5	1	0	5	0
24	681	1	10000	5	1	0	5	0
25	682	1	10000	5	1	0	5	0
26	683	1	10000	5	1	0	5	0
25	684	1	10000	5	1	0	5	0
25	685	1	10000	5	1	0	5	0
24	686	1	10000	5	1	0	5	0
22	687	1	10000	5	1	0	5	0
23	688	1	10000	5	1	0	5	0
29	689	1	10000	5	1	0	5	0
32	690	1	10000	5	1	0	5	0
33	691	1	10000	5	1	0	5	0
35	692	1	10000	5	1	0	5	0
36	693	1	10000	5	1	0	5	0
37	694	1	10000	5	1	0	5	0
35	695	1	10000	5	1	0	5	0
35	696	1	10000	5	1	0	5	0
35	697	1	10000	5	1	0	5	0
36	698	1	10000	5	1	0	5	0
34	699	1	10000	5	1	0	5	0
34	700	1	10000	5	1	0	5	0
34	701	1	10000	5	1	0	5	0
34	702	1	10000	5	1	0	5	0
34	703	1	10000	5	1	0	5	0
36	704	1	10000	5	1	0	5	0
37	705	1	10000	5	1	0	5	0
38	706	1	10000	5	1	0	5	0
36	707	1	10000	5	1	0	5	0
35	708	1	10000	5	1	0	5	0
36	709	1	10000	5	1	0	5	0
35	710	1	10000	5	1	0	5	0
33	711	1	10000	5	1	0	5	0
32	712	1	10000	5	1	0	5	0
31	713	1	10000	5	1	0	5	0
31	714	1	10000	5	1	0	5	0
30	715	1	10000	5	1	0	5	0
29	716	1	10000	5	1	0	5	0
29	717	1	10000	5	1	0	5	0
29	718	1	10000	5	1	0	5	0
27	719	1	10000	5	1	0	5	0
27	720	1	10000	5	1	0	5	0
28	721	1	10000	5	1	0	5	0
28	722	1	10000	5	1	0	5	0
27	723	1	10000	5	1	0	5	0
26	724	1	10000	5	1	0	5	0
25	725	1	10000	5	1	0	5	0
