value	EMG	Stimulus	EMG_sensitivity	Total_Trial_Nr	practise	acq	probe_nr	Startle_Probe
28	2	0	10000	1	1	0	1	0
31	3	0	10000	1	1	0	1	0
30	4	0	10000	1	1	0	1	0
31	5	0	10000	1	1	0	1	0
32	6	0	10000	1	1	0	1	0
32	7	0	10000	1	1	0	1	0
32	8	0	10000	1	1	0	1	0
32	9	0	10000	1	1	0	1	0
32	10	0	10000	1	1	0	1	0
31	11	0	10000	1	1	0	1	0
30	12	0	10000	1	1	0	1	0
29	13	0	10000	1	1	0	1	0
30	14	0	10000	1	1	0	1	0
30	15	0	10000	1	1	0	1	0
30	16	0	10000	1	1	0	1	0
30	17	0	10000	1	1	0	1	0
29	18	0	10000	1	1	0	1	0
29	19	0	10000	1	1	0	1	0
28	20	0	10000	1	1	0	1	0
28	21	0	10000	1	1	0	1	0
28	22	0	10000	1	1	0	1	0
28	23	0	10000	1	1	0	1	0
27	24	0	10000	1	1	0	1	0
27	25	0	10000	1	1	0	1	0
29	26	0	10000	1	1	0	1	0
29	27	0	10000	1	1	0	1	0
30	28	0	10000	1	1	0	1	0
31	29	0	10000	1	1	0	1	0
29	30	0	10000	1	1	0	1	0
29	31	0	10000	1	1	0	1	0
28	32	0	10000	1	1	0	1	0
27	33	0	10000	1	1	0	1	0
28	34	0	10000	1	1	0	1	0
28	35	0	10000	1	1	0	1	0
30	36	0	10000	1	1	0	1	0
33	37	0	10000	1	1	0	1	0
32	38	0	10000	1	1	0	1	0
31	39	0	10000	1	1	0	1	0
31	40	0	10000	1	1	0	1	0
30	41	0	10000	1	1	0	1	0
29	42	0	10000	1	1	0	1	0
30	43	0	10000	1	1	0	1	0
27	44	0	10000	1	1	0	1	0
25	45	0	10000	1	1	0	1	0
25	46	0	10000	1	1	0	1	0
26	47	0	10000	1	1	0	1	0
25	48	0	10000	1	1	0	1	0
27	49	0	10000	1	1	0	1	0
27	50	0	10000	1	1	0	1	0
25	51	0	10000	1	1	0	1	0
26	52	0	10000	1	1	0	1	0
26	53	0	10000	1	1	0	1	0
27	54	0	10000	1	1	0	1	0
27	55	0	10000	1	1	0	1	0
25	56	0	10000	1	1	0	1	0
25	57	0	10000	1	1	0	1	0
26	58	0	10000	1	1	0	1	0
25	59	0	10000	1	1	0	1	0
24	60	0	10000	1	1	0	1	0
24	61	0	10000	1	1	0	1	0
24	62	0	10000	1	1	0	1	0
25	63	0	10000	1	1	0	1	0
22	64	0	10000	1	1	0	1	0
21	65	0	10000	1	1	0	1	0
23	66	0	10000	1	1	0	1	0
26	67	0	10000	1	1	0	1	0
25	68	0	10000	1	1	0	1	0
25	69	0	10000	1	1	0	1	0
25	70	0	10000	1	1	0	1	0
23	71	0	10000	1	1	0	1	0
22	72	0	10000	1	1	0	1	0
24	73	0	10000	1	1	0	1	0
28	74	0	10000	1	1	0	1	0
30	75	0	10000	1	1	0	1	0
30	76	0	10000	1	1	0	1	0
30	77	0	10000	1	1	0	1	0
30	78	0	10000	1	1	0	1	0
29	79	0	10000	1	1	0	1	0
28	80	0	10000	1	1	0	1	0
26	81	0	10000	1	1	0	1	0
27	82	0	10000	1	1	0	1	0
27	83	0	10000	1	1	0	1	0
25	84	0	10000	1	1	0	1	0
26	85	0	10000	1	1	0	1	0
25	86	0	10000	1	1	0	1	0
24	87	0	10000	1	1	0	1	0
24	88	0	10000	1	1	0	1	0
23	89	0	10000	1	1	0	1	0
21	90	0	10000	1	1	0	1	0
22	91	0	10000	1	1	0	1	0
20	92	0	10000	1	1	0	1	0
20	93	0	10000	1	1	0	1	0
22	94	0	10000	1	1	0	1	0
21	95	0	10000	1	1	0	1	0
21	96	0	10000	1	1	0	1	0
21	97	0	10000	1	1	0	1	0
20	98	0	10000	1	1	0	1	0
21	99	0	10000	1	1	0	1	0
22	100	0	10000	1	1	0	1	0
23	101	0	10000	1	1	0	1	0
24	102	0	10000	1	1	0	1	0
23	103	0	10000	1	1	0	1	0
21	104	0	10000	1	1	0	1	0
20	105	0	10000	1	1	0	1	0
20	106	0	10000	1	1	0	1	0
20	107	0	10000	1	1	0	1	0
20	108	0	10000	1	1	0	1	0
20	109	0	10000	1	1	0	1	0
19	110	0	10000	1	1	0	1	0
18	111	0	10000	1	1	0	1	0
18	112	0	10000	1	1	0	1	0
20	113	0	10000	1	1	0	1	0
23	114	0	10000	1	1	0	1	0
25	115	0	10000	1	1	0	1	0
27	116	0	10000	1	1	0	1	0
27	117	0	10000	1	1	0	1	0
28	118	0	10000	1	1	0	1	0
27	119	0	10000	1	1	0	1	0
26	120	0	10000	1	1	0	1	0
27	121	0	10000	1	1	0	1	0
27	122	0	10000	1	1	0	1	0
28	123	0	10000	1	1	0	1	0
26	124	0	10000	1	1	0	1	0
26	125	0	10000	1	1	0	1	0
26	126	0	10000	1	1	0	1	0
25	127	0	10000	1	1	0	1	0
26	128	0	10000	1	1	0	1	0
26	129	0	10000	1	1	0	1	0
26	130	0	10000	1	1	0	1	0
25	131	0	10000	1	1	0	1	0
25	132	0	10000	1	1	0	1	0
23	133	0	10000	1	1	0	1	0
24	134	0	10000	1	1	0	1	0
24	135	0	10000	1	1	0	1	0
25	136	0	10000	1	1	0	1	0
24	137	0	10000	1	1	0	1	0
23	138	0	10000	1	1	0	1	0
22	139	0	10000	1	1	0	1	0
23	140	0	10000	1	1	0	1	0
24	141	0	10000	1	1	0	1	0
25	142	0	10000	1	1	0	1	0
25	143	0	10000	1	1	0	1	0
23	144	0	10000	1	1	0	1	0
23	145	0	10000	1	1	0	1	0
26	146	0	10000	1	1	0	1	0
27	147	0	10000	1	1	0	1	0
27	148	0	10000	1	1	0	1	0
26	149	0	10000	1	1	0	1	0
26	150	0	10000	1	1	0	1	0
27	151	0	10000	1	1	0	1	0
28	152	0	10000	1	1	0	1	0
27	153	0	10000	1	1	0	1	0
28	154	0	10000	1	1	0	1	0
28	155	0	10000	1	1	0	1	0
28	156	0	10000	1	1	0	1	0
29	157	0	10000	1	1	0	1	0
29	158	0	10000	1	1	0	1	0
27	159	0	10000	1	1	0	1	0
27	160	0	10000	1	1	0	1	0
26	161	0	10000	1	1	0	1	0
26	162	0	10000	1	1	0	1	0
26	163	0	10000	1	1	0	1	0
24	164	0	10000	1	1	0	1	0
23	165	0	10000	1	1	0	1	0
24	166	0	10000	1	1	0	1	0
24	167	0	10000	1	1	0	1	0
25	168	0	10000	1	1	0	1	0
26	169	0	10000	1	1	0	1	0
28	170	0	10000	1	1	0	1	0
26	171	0	10000	1	1	0	1	0
26	172	0	10000	1	1	0	1	0
25	173	0	10000	1	1	0	1	0
25	174	0	10000	1	1	0	1	0
25	175	0	10000	1	1	0	1	0
25	176	0	10000	1	1	0	1	0
24	177	0	10000	1	1	0	1	0
23	178	0	10000	1	1	0	1	0
23	179	0	10000	1	1	0	1	0
22	180	0	10000	1	1	0	1	0
22	181	0	10000	1	1	0	1	0
24	182	0	10000	1	1	0	1	0
24	183	0	10000	1	1	0	1	0
22	184	0	10000	1	1	0	1	0
24	185	0	10000	1	1	0	1	0
24	186	0	10000	1	1	0	1	0
25	187	0	10000	1	1	0	1	0
25	188	0	10000	1	1	0	1	0
24	189	0	10000	1	1	0	1	0
25	190	0	10000	1	1	0	1	0
25	191	0	10000	1	1	0	1	0
24	192	0	10000	1	1	0	1	0
25	193	0	10000	1	1	0	1	0
26	194	0	10000	1	1	0	1	0
27	195	0	10000	1	1	0	1	0
26	196	0	10000	1	1	0	1	0
26	197	0	10000	1	1	0	1	0
24	198	0	10000	1	1	0	1	0
24	199	0	10000	1	1	0	1	0
23	200	0	10000	1	1	0	1	0
23	201	0	10000	1	1	0	1	0
23	202	0	10000	1	1	0	1	0
24	203	0	10000	1	1	0	1	0
21	204	0	10000	1	1	0	1	0
20	205	0	10000	1	1	0	1	0
22	206	0	10000	1	1	0	1	0
21	207	0	10000	1	1	0	1	0
21	208	0	10000	1	1	0	1	0
20	209	0	10000	1	1	0	1	0
21	210	0	10000	1	1	0	1	0
21	211	0	10000	1	1	0	1	0
22	212	0	10000	1	1	0	1	0
24	213	0	10000	1	1	0	1	0
26	214	0	10000	1	1	0	1	0
26	215	0	10000	1	1	0	1	0
28	216	0	10000	1	1	0	1	0
31	217	0	10000	1	1	0	1	0
34	218	0	10000	1	1	0	1	0
36	219	0	10000	1	1	0	1	0
37	220	0	10000	1	1	0	1	0
36	221	0	10000	1	1	0	1	0
35	222	0	10000	1	1	0	1	0
35	223	0	10000	1	1	0	1	0
33	224	0	10000	1	1	0	1	0
32	225	0	10000	1	1	0	1	0
31	226	0	10000	1	1	0	1	0
30	227	0	10000	1	1	0	1	0
30	228	0	10000	1	1	0	1	0
29	229	0	10000	1	1	0	1	0
29	230	0	10000	1	1	0	1	0
28	231	0	10000	1	1	0	1	0
27	232	0	10000	1	1	0	1	0
26	233	0	10000	1	1	0	1	0
27	234	0	10000	1	1	0	1	0
26	235	0	10000	1	1	0	1	0
25	236	0	10000	1	1	0	1	0
26	237	0	10000	1	1	0	1	0
25	238	0	10000	1	1	0	1	0
24	239	0	10000	1	1	0	1	0
25	240	0	10000	1	1	0	1	0
24	241	0	10000	1	1	0	1	0
25	242	0	10000	1	1	0	1	0
26	243	0	10000	1	1	0	1	0
25	244	0	10000	1	1	0	1	0
24	245	0	10000	1	1	0	1	0
24	246	0	10000	1	1	0	1	0
24	247	0	10000	1	1	0	1	0
26	248	0	10000	1	1	0	1	0
28	249	0	10000	1	1	0	1	0
28	250	0	10000	1	1	0	1	0
27	251	0	10000	1	1	0	1	0
26	252	0	10000	1	1	0	1	0
25	253	0	10000	1	1	0	1	0
26	254	0	10000	1	1	0	1	0
26	255	0	10000	1	1	0	1	0
25	256	0	10000	1	1	0	1	0
24	257	0	10000	1	1	0	1	0
24	258	0	10000	1	1	0	1	0
24	259	0	10000	1	1	0	1	0
24	260	0	10000	1	1	0	1	0
25	261	0	10000	1	1	0	1	0
24	262	0	10000	1	1	0	1	0
24	263	0	10000	1	1	0	1	0
23	264	0	10000	1	1	0	1	0
23	265	0	10000	1	1	0	1	0
22	266	0	10000	1	1	0	1	0
23	267	0	10000	1	1	0	1	0
23	268	0	10000	1	1	0	1	0
23	269	0	10000	1	1	0	1	0
22	270	0	10000	1	1	0	1	0
21	271	0	10000	1	1	0	1	0
20	272	0	10000	1	1	0	1	0
19	273	0	10000	1	1	0	1	0
21	274	0	10000	1	1	0	1	0
21	275	0	10000	1	1	0	1	0
20	276	0	10000	1	1	0	1	0
19	277	0	10000	1	1	0	1	0
18	278	0	10000	1	1	0	1	0
21	279	0	10000	1	1	0	1	0
20	280	0	10000	1	1	0	1	0
21	281	0	10000	1	1	0	1	0
21	282	0	10000	1	1	0	1	0
22	283	0	10000	1	1	0	1	0
20	284	0	10000	1	1	0	1	0
20	285	0	10000	1	1	0	1	0
19	286	0	10000	1	1	0	1	0
19	287	0	10000	1	1	0	1	0
19	288	0	10000	1	1	0	1	0
19	289	0	10000	1	1	0	1	0
19	290	0	10000	1	1	0	1	0
19	291	0	10000	1	1	0	1	0
18	292	0	10000	1	1	0	1	0
17	293	0	10000	1	1	0	1	0
19	294	0	10000	1	1	0	1	0
19	295	0	10000	1	1	0	1	0
19	296	0	10000	1	1	0	1	0
20	297	0	10000	1	1	0	1	0
20	298	0	10000	1	1	0	1	0
19	299	0	10000	1	1	0	1	0
20	300	0	10000	1	1	0	1	0
19	301	0	10000	1	1	0	1	0
20	302	0	10000	1	1	0	1	0
22	303	0	10000	1	1	0	1	0
20	304	0	10000	1	1	0	1	0
19	305	0	10000	1	1	0	1	0
19	306	0	10000	1	1	0	1	0
20	307	0	10000	1	1	0	1	0
22	308	0	10000	1	1	0	1	0
22	309	0	10000	1	1	0	1	0
20	310	0	10000	1	1	0	1	0
20	311	0	10000	1	1	0	1	0
19	312	0	10000	1	1	0	1	0
18	313	0	10000	1	1	0	1	0
21	314	0	10000	1	1	0	1	0
22	315	0	10000	1	1	0	1	0
21	316	0	10000	1	1	0	1	0
21	317	0	10000	1	1	0	1	0
20	318	0	10000	1	1	0	1	0
20	319	0	10000	1	1	0	1	0
20	320	0	10000	1	1	0	1	0
19	321	0	10000	1	1	0	1	0
19	322	0	10000	1	1	0	1	0
19	323	0	10000	1	1	0	1	0
17	324	0	10000	1	1	0	1	0
16	325	0	10000	1	1	0	1	0
16	326	0	10000	1	1	0	1	0
17	327	0	10000	1	1	0	1	0
18	328	0	10000	1	1	0	1	0
18	329	0	10000	1	1	0	1	0
19	330	0	10000	1	1	0	1	0
19	331	0	10000	1	1	0	1	0
18	332	0	10000	1	1	0	1	0
17	333	0	10000	1	1	0	1	0
18	334	0	10000	1	1	0	1	0
18	335	0	10000	1	1	0	1	0
17	336	0	10000	1	1	0	1	0
19	337	0	10000	1	1	0	1	0
19	338	0	10000	1	1	0	1	0
20	339	0	10000	1	1	0	1	0
21	340	0	10000	1	1	0	1	0
22	341	0	10000	1	1	0	1	0
22	342	0	10000	1	1	0	1	0
24	343	0	10000	1	1	0	1	0
25	344	0	10000	1	1	0	1	0
27	345	0	10000	1	1	0	1	0
26	346	0	10000	1	1	0	1	0
27	347	0	10000	1	1	0	1	0
27	348	0	10000	1	1	0	1	0
26	349	0	10000	1	1	0	1	0
26	350	0	10000	1	1	0	1	0
25	351	0	10000	1	1	0	1	0
25	352	0	10000	1	1	0	1	0
23	353	0	10000	1	1	0	1	0
24	354	0	10000	1	1	0	1	0
24	355	0	10000	1	1	0	1	0
23	356	0	10000	1	1	0	1	0
23	357	0	10000	1	1	0	1	0
23	358	0	10000	1	1	0	1	0
23	359	0	10000	1	1	0	1	0
22	360	0	10000	1	1	0	1	0
23	361	0	10000	1	1	0	1	0
22	362	0	10000	1	1	0	1	0
23	363	0	10000	1	1	0	1	0
21	364	0	10000	1	1	0	1	0
20	365	0	10000	1	1	0	1	0
20	366	0	10000	1	1	0	1	0
21	367	0	10000	1	1	0	1	0
24	368	0	10000	1	1	0	1	0
25	369	0	10000	1	1	0	1	0
25	370	0	10000	1	1	0	1	0
27	371	0	10000	1	1	0	1	0
28	372	0	10000	1	1	0	1	0
28	373	0	10000	1	1	0	1	0
31	374	0	10000	1	1	0	1	0
32	375	0	10000	1	1	0	1	0
34	376	0	10000	1	1	0	1	0
35	377	0	10000	1	1	0	1	0
36	378	0	10000	1	1	0	1	0
36	379	0	10000	1	1	0	1	0
36	380	0	10000	1	1	0	1	0
37	381	0	10000	1	1	0	1	0
37	382	0	10000	1	1	0	1	0
37	383	0	10000	1	1	0	1	0
35	384	0	10000	1	1	0	1	0
35	385	0	10000	1	1	0	1	0
34	386	0	10000	1	1	0	1	0
34	387	0	10000	1	1	0	1	0
34	388	0	10000	1	1	0	1	0
34	389	0	10000	1	1	0	1	0
33	390	0	10000	1	1	0	1	0
33	391	0	10000	1	1	0	1	0
33	392	0	10000	1	1	0	1	0
35	393	0	10000	1	1	0	1	0
40	394	0	10000	1	1	0	1	0
41	395	0	10000	1	1	0	1	0
41	396	0	10000	1	1	0	1	0
42	397	0	10000	1	1	0	1	0
40	398	0	10000	1	1	0	1	0
40	399	0	10000	1	1	0	1	0
38	400	0	10000	1	1	0	1	0
37	401	0	10000	1	1	0	1	0
37	402	0	10000	1	1	0	1	0
36	403	0	10000	1	1	0	1	0
33	404	0	10000	1	1	0	1	0
31	405	0	10000	1	1	0	1	0
32	406	0	10000	1	1	0	1	0
30	407	0	10000	1	1	0	1	0
29	408	0	10000	1	1	0	1	0
28	409	0	10000	1	1	0	1	0
27	410	0	10000	1	1	0	1	0
28	411	0	10000	1	1	0	1	0
27	412	0	10000	1	1	0	1	0
27	413	0	10000	1	1	0	1	0
28	414	0	10000	1	1	0	1	0
29	415	0	10000	1	1	0	1	0
27	416	0	10000	1	1	0	1	0
27	417	0	10000	1	1	0	1	0
26	418	0	10000	1	1	0	1	0
27	419	0	10000	1	1	0	1	0
26	420	0	10000	1	1	0	1	0
25	421	0	10000	1	1	0	1	0
25	422	0	10000	1	1	0	1	0
26	423	0	10000	1	1	0	1	0
24	424	0	10000	1	1	0	1	0
23	425	0	10000	1	1	0	1	0
23	426	0	10000	1	1	0	1	0
22	427	0	10000	1	1	0	1	0
22	428	0	10000	1	1	0	1	0
21	429	0	10000	1	1	0	1	0
21	430	0	10000	1	1	0	1	0
23	431	0	10000	1	1	0	1	0
23	432	0	10000	1	1	0	1	0
24	433	0	10000	1	1	0	1	0
26	434	0	10000	1	1	0	1	0
27	435	0	10000	1	1	0	1	0
28	436	0	10000	1	1	0	1	0
28	437	0	10000	1	1	0	1	0
28	438	0	10000	1	1	0	1	0
26	439	0	10000	1	1	0	1	0
26	440	0	10000	1	1	0	1	0
25	441	0	10000	1	1	0	1	0
27	442	0	10000	1	1	0	1	0
28	443	0	10000	1	1	0	1	0
26	444	0	10000	1	1	0	1	0
24	445	0	10000	1	1	0	1	0
25	446	0	10000	1	1	0	1	0
24	447	0	10000	1	1	0	1	0
25	448	0	10000	1	1	0	1	0
24	449	0	10000	1	1	0	1	0
25	450	0	10000	1	1	0	1	0
24	451	0	10000	1	1	0	1	0
24	452	0	10000	1	1	0	1	0
25	453	0	10000	1	1	0	1	0
31	454	0	10000	1	1	0	1	0
37	455	0	10000	1	1	0	1	0
42	456	0	10000	1	1	0	1	0
43	457	0	10000	1	1	0	1	0
44	458	0	10000	1	1	0	1	0
43	459	0	10000	1	1	0	1	0
42	460	0	10000	1	1	0	1	0
46	461	0	10000	1	1	0	1	0
51	462	0	10000	1	1	0	1	0
54	463	0	10000	1	1	0	1	0
58	464	0	10000	1	1	0	1	0
62	465	0	10000	1	1	0	1	0
68	466	0	10000	1	1	0	1	0
70	467	0	10000	1	1	0	1	0
70	468	0	10000	1	1	0	1	0
72	469	0	10000	1	1	0	1	0
71	470	0	10000	1	1	0	1	0
71	471	0	10000	1	1	0	1	0
69	472	0	10000	1	1	0	1	0
67	473	0	10000	1	1	0	1	0
69	474	0	10000	1	1	0	1	0
68	475	0	10000	1	1	0	1	0
67	476	0	10000	1	1	0	1	0
74	477	0	10000	1	1	0	1	0
79	478	0	10000	1	1	0	1	0
93	479	0	10000	1	1	0	1	0
102	480	0	10000	1	1	0	1	0
108	481	0	10000	1	1	0	1	0
130	482	0	10000	1	1	0	1	0
139	483	0	10000	1	1	0	1	0
140	484	0	10000	1	1	0	1	0
150	485	0	10000	1	1	0	1	0
152	486	0	10000	1	1	0	1	0
148	487	0	10000	1	1	0	1	0
159	488	0	10000	1	1	0	1	0
161	489	0	10000	1	1	0	1	0
173	490	0	10000	1	1	0	1	0
190	491	0	10000	1	1	0	1	0
194	492	0	10000	1	1	0	1	0
201	493	0	10000	1	1	0	1	0
203	494	0	10000	1	1	0	1	0
204	495	0	10000	1	1	0	1	0
214	496	0	10000	1	1	0	1	0
214	497	0	10000	1	1	0	1	0
219	498	0	10000	1	1	0	1	0
218	499	0	10000	1	1	0	1	0
212	500	0	10000	1	1	0	1	0
223	501	0	10000	1	1	0	1	0
247	530	0	10000	1	1	0	1	1
260	531	0	10000	1	1	0	1	1
252	532	0	10000	1	1	0	1	1
245	533	0	10000	1	1	0	1	1
238	534	0	10000	1	1	0	1	1
228	535	0	10000	1	1	0	1	1
218	536	0	10000	1	1	0	1	1
209	537	0	10000	1	1	0	1	1
202	538	0	10000	1	1	0	1	1
203	539	0	10000	1	1	0	1	1
220	540	0	10000	1	1	0	1	1
226	541	0	10000	1	1	0	1	1
227	542	0	10000	1	1	0	1	1
236	543	0	10000	1	1	0	1	1
229	544	0	10000	1	1	0	1	1
233	545	0	10000	1	1	0	1	1
231	546	0	10000	1	1	0	1	1
233	547	0	10000	1	1	0	1	1
240	548	0	10000	1	1	0	1	1
267	549	0	10000	1	1	0	1	1
265	550	0	10000	1	1	0	1	1
267	551	0	10000	1	1	0	1	1
280	552	0	10000	1	1	0	1	1
285	553	0	10000	1	1	0	1	1
277	554	0	10000	1	1	0	1	1
270	555	0	10000	1	1	0	1	1
267	556	0	10000	1	1	0	1	1
258	557	0	10000	1	1	0	1	1
259	558	0	10000	1	1	0	1	1
266	559	0	10000	1	1	0	1	1
265	532	0	10000	1	1	0	1	1
253	533	0	10000	1	1	0	1	1
245	534	0	10000	1	1	0	1	1
243	535	0	10000	1	1	0	1	1
236	536	0	10000	1	1	0	1	1
238	537	0	10000	1	1	0	1	1
231	538	0	10000	1	1	0	1	1
223	539	0	10000	1	1	0	1	1
218	540	0	10000	1	1	0	1	1
215	541	0	10000	1	1	0	1	1
211	542	0	10000	1	1	0	1	1
208	543	0	10000	1	1	0	1	1
199	544	0	10000	1	1	0	1	1
192	545	0	10000	1	1	0	1	1
189	546	0	10000	1	1	0	1	1
181	547	0	10000	1	1	0	1	1
174	548	0	10000	1	1	0	1	1
166	549	0	10000	1	1	0	1	1
161	550	0	10000	1	1	0	1	1
154	551	0	10000	1	1	0	1	1
151	552	0	10000	1	1	0	1	0
147	553	0	10000	1	1	0	1	0
145	554	0	10000	1	1	0	1	0
149	555	0	10000	1	1	0	1	0
151	556	0	10000	1	1	0	1	0
147	557	0	10000	1	1	0	1	0
150	558	0	10000	1	1	0	1	0
152	559	0	10000	1	1	0	1	0
148	560	0	10000	1	1	0	1	0
146	561	0	10000	1	1	0	1	0
144	562	0	10000	1	1	0	1	0
139	563	0	10000	1	1	0	1	0
131	564	0	10000	1	1	0	1	0
126	565	0	10000	1	1	0	1	0
125	566	0	10000	1	1	0	1	0
121	567	0	10000	1	1	0	1	0
118	568	0	10000	1	1	0	1	0
114	569	0	10000	1	1	0	1	0
115	570	0	10000	1	1	0	1	0
116	571	0	10000	1	1	0	1	0
114	572	0	10000	1	1	0	1	0
113	573	0	10000	1	1	0	1	0
115	574	0	10000	1	1	0	1	0
116	575	0	10000	1	1	0	1	0
114	576	0	10000	1	1	0	1	0
109	577	0	10000	1	1	0	1	0
105	578	0	10000	1	1	0	1	0
102	579	0	10000	1	1	0	1	0
101	580	0	10000	1	1	0	1	0
100	581	0	10000	1	1	0	1	0
96	582	0	10000	1	1	0	1	0
92	583	0	10000	1	1	0	1	0
87	584	0	10000	1	1	0	1	0
82	585	0	10000	1	1	0	1	0
80	586	0	10000	1	1	0	1	0
79	587	0	10000	1	1	0	1	0
77	588	0	10000	1	1	0	1	0
74	589	0	10000	1	1	0	1	0
73	590	0	10000	1	1	0	1	0
71	591	0	10000	1	1	0	1	0
67	592	0	10000	1	1	0	1	0
66	593	0	10000	1	1	0	1	0
69	594	0	10000	1	1	0	1	0
70	595	0	10000	1	1	0	1	0
73	596	0	10000	1	1	0	1	0
75	597	0	10000	1	1	0	1	0
76	598	0	10000	1	1	0	1	0
75	599	0	10000	1	1	0	1	0
73	600	0	10000	1	1	0	1	0
71	601	0	10000	1	1	0	1	0
68	602	0	10000	1	1	0	1	0
67	603	0	10000	1	1	0	1	0
64	604	0	10000	1	1	0	1	0
61	605	0	10000	1	1	0	1	0
61	606	0	10000	1	1	0	1	0
58	607	0	10000	1	1	0	1	0
58	608	0	10000	1	1	0	1	0
60	609	0	10000	1	1	0	1	0
62	610	0	10000	1	1	0	1	0
63	611	0	10000	1	1	0	1	0
65	612	0	10000	1	1	0	1	0
65	613	0	10000	1	1	0	1	0
69	614	0	10000	1	1	0	1	0
71	615	0	10000	1	1	0	1	0
69	616	0	10000	1	1	0	1	0
67	617	0	10000	1	1	0	1	0
65	618	0	10000	1	1	0	1	0
63	619	0	10000	1	1	0	1	0
61	620	0	10000	1	1	0	1	0
60	621	0	10000	1	1	0	1	0
62	622	0	10000	1	1	0	1	0
66	623	0	10000	1	1	0	1	0
67	624	0	10000	1	1	0	1	0
66	625	0	10000	1	1	0	1	0
74	626	0	10000	1	1	0	1	0
79	627	0	10000	1	1	0	1	0
79	628	0	10000	1	1	0	1	0
78	629	0	10000	1	1	0	1	0
86	630	0	10000	1	1	0	1	0
88	631	0	10000	1	1	0	1	0
94	632	0	10000	1	1	0	1	0
108	633	0	10000	1	1	0	1	0
136	634	0	10000	1	1	0	1	0
134	635	0	10000	1	1	0	1	0
137	636	0	10000	1	1	0	1	0
160	637	0	10000	1	1	0	1	0
169	638	0	10000	1	1	0	1	0
191	639	0	10000	1	1	0	1	0
208	640	0	10000	1	1	0	1	0
207	641	0	10000	1	1	0	1	0
206	642	0	10000	1	1	0	1	0
212	643	0	10000	1	1	0	1	0
210	644	0	10000	1	1	0	1	0
213	645	0	10000	1	1	0	1	0
212	646	0	10000	1	1	0	1	0
214	647	0	10000	1	1	0	1	0
241	648	0	10000	1	1	0	1	0
247	649	0	10000	1	1	0	1	0
246	650	0	10000	1	1	0	1	0
243	651	0	10000	1	1	0	1	0
258	652	0	10000	1	1	0	1	0
276	653	0	10000	1	1	0	1	0
308	654	0	10000	1	1	0	1	0
342	655	0	10000	1	1	0	1	0
361	656	0	10000	1	1	0	1	0
369	657	0	10000	1	1	0	1	0
368	658	0	10000	1	1	0	1	0
355	659	0	10000	1	1	0	1	0
340	660	0	10000	1	1	0	1	0
334	661	0	10000	1	1	0	1	0
328	662	0	10000	1	1	0	1	0
340	663	0	10000	1	1	0	1	0
346	664	0	10000	1	1	0	1	0
341	665	0	10000	1	1	0	1	0
330	666	0	10000	1	1	0	1	0
335	667	0	10000	1	1	0	1	0
357	668	0	10000	1	1	0	1	0
478	669	0	10000	1	1	0	1	0
587	670	0	10000	1	1	0	1	0
624	671	0	10000	1	1	0	1	0
617	672	0	10000	1	1	0	1	0
652	673	0	10000	1	1	0	1	0
691	674	0	10000	1	1	0	1	0
719	675	0	10000	1	1	0	1	0
734	676	0	10000	1	1	0	1	0
731	677	0	10000	1	1	0	1	0
714	678	0	10000	1	1	0	1	0
685	679	0	10000	1	1	0	1	0
654	680	0	10000	1	1	0	1	0
626	681	0	10000	1	1	0	1	0
600	682	0	10000	1	1	0	1	0
580	683	0	10000	1	1	0	1	0
559	684	0	10000	1	1	0	1	0
537	685	0	10000	1	1	0	1	0
516	686	0	10000	1	1	0	1	0
494	687	0	10000	1	1	0	1	0
474	688	0	10000	1	1	0	1	0
454	689	0	10000	1	1	0	1	0
435	690	0	10000	1	1	0	1	0
417	691	0	10000	1	1	0	1	0
399	692	0	10000	1	1	0	1	0
382	693	0	10000	1	1	0	1	0
365	694	0	10000	1	1	0	1	0
349	695	0	10000	1	1	0	1	0
334	696	0	10000	1	1	0	1	0
320	697	0	10000	1	1	0	1	0
308	698	0	10000	1	1	0	1	0
295	699	0	10000	1	1	0	1	0
285	700	0	10000	1	1	0	1	0
276	701	0	10000	1	1	0	1	0
269	702	0	10000	1	1	0	1	0
267	703	0	10000	1	1	0	1	0
261	704	0	10000	1	1	0	1	0
260	705	0	10000	1	1	0	1	0
263	706	0	10000	1	1	0	1	0
263	707	0	10000	1	1	0	1	0
263	708	0	10000	1	1	0	1	0
259	709	0	10000	1	1	0	1	0
251	710	0	10000	1	1	0	1	0
243	711	0	10000	1	1	0	1	0
235	712	0	10000	1	1	0	1	0
224	713	0	10000	1	1	0	1	0
216	714	0	10000	1	1	0	1	0
208	715	0	10000	1	1	0	1	0
199	716	0	10000	1	1	0	1	0
195	717	0	10000	1	1	0	1	0
193	718	0	10000	1	1	0	1	0
191	719	0	10000	1	1	0	1	0
192	720	0	10000	1	1	0	1	0
195	721	0	10000	1	1	0	1	0
194	722	0	10000	1	1	0	1	0
192	723	0	10000	1	1	0	1	0
187	724	0	10000	1	1	0	1	0
179	725	0	10000	1	1	0	1	0
175	726	0	10000	1	1	0	1	0
171	727	0	10000	1	1	0	1	0
168	728	0	10000	1	1	0	1	0
166	729	0	10000	1	1	0	1	0
167	730	0	10000	1	1	0	1	0
167	731	0	10000	1	1	0	1	0
167	732	0	10000	1	1	0	1	0
165	733	0	10000	1	1	0	1	0
163	734	0	10000	1	1	0	1	0
161	735	0	10000	1	1	0	1	0
155	736	0	10000	1	1	0	1	0
149	737	0	10000	1	1	0	1	0
142	738	0	10000	1	1	0	1	0
140	739	0	10000	1	1	0	1	0
142	740	0	10000	1	1	0	1	0
142	741	0	10000	1	1	0	1	0
144	742	0	10000	1	1	0	1	0
148	743	0	10000	1	1	0	1	0
150	744	0	10000	1	1	0	1	0
154	745	0	10000	1	1	0	1	0
160	746	0	10000	1	1	0	1	0
165	747	0	10000	1	1	0	1	0
170	748	0	10000	1	1	0	1	0
174	749	0	10000	1	1	0	1	0
176	750	0	10000	1	1	0	1	0
180	751	0	10000	1	1	0	1	0
182	752	0	10000	1	1	0	1	0
182	753	0	10000	1	1	0	1	0
185	754	0	10000	1	1	0	1	0
188	755	0	10000	1	1	0	1	0
189	756	0	10000	1	1	0	1	0
191	757	0	10000	1	1	0	1	0
191	758	0	10000	1	1	0	1	0
190	759	0	10000	1	1	0	1	0
189	760	0	10000	1	1	0	1	0
188	761	0	10000	1	1	0	1	0
184	762	0	10000	1	1	0	1	0
179	763	0	10000	1	1	0	1	0
172	764	0	10000	1	1	0	1	0
165	765	0	10000	1	1	0	1	0
160	766	0	10000	1	1	0	1	0
153	767	0	10000	1	1	0	1	0
148	768	0	10000	1	1	0	1	0
142	769	0	10000	1	1	0	1	0
137	770	0	10000	1	1	0	1	0
131	771	0	10000	1	1	0	1	0
128	772	0	10000	1	1	0	1	0
126	773	0	10000	1	1	0	1	0
126	774	0	10000	1	1	0	1	0
128	775	0	10000	1	1	0	1	0
128	776	0	10000	1	1	0	1	0
127	777	0	10000	1	1	0	1	0
126	778	0	10000	1	1	0	1	0
126	779	0	10000	1	1	0	1	0
125	780	0	10000	1	1	0	1	0
126	781	0	10000	1	1	0	1	0
127	782	0	10000	1	1	0	1	0
125	783	0	10000	1	1	0	1	0
119	784	0	10000	1	1	0	1	0
114	785	0	10000	1	1	0	1	0
111	786	0	10000	1	1	0	1	0
110	787	0	10000	1	1	0	1	0
109	788	0	10000	1	1	0	1	0
106	789	0	10000	1	1	0	1	0
103	790	0	10000	1	1	0	1	0
97	791	0	10000	1	1	0	1	0
93	792	0	10000	1	1	0	1	0
90	793	0	10000	1	1	0	1	0
90	794	0	10000	1	1	0	1	0
88	795	0	10000	1	1	0	1	0
88	796	0	10000	1	1	0	1	0
87	797	0	10000	1	1	0	1	0
85	798	0	10000	1	1	0	1	0
85	799	0	10000	1	1	0	1	0
83	800	0	10000	1	1	0	1	0
79	801	0	10000	1	1	0	1	0
76	802	0	10000	1	1	0	1	0
76	803	0	10000	1	1	0	1	0
74	804	0	10000	1	1	0	1	0
74	805	0	10000	1	1	0	1	0
76	806	0	10000	1	1	0	1	0
77	807	0	10000	1	1	0	1	0
80	808	0	10000	1	1	0	1	0
83	809	0	10000	1	1	0	1	0
82	810	0	10000	1	1	0	1	0
81	811	0	10000	1	1	0	1	0
79	812	0	10000	1	1	0	1	0
76	813	0	10000	1	1	0	1	0
76	814	0	10000	1	1	0	1	0
77	815	0	10000	1	1	0	1	0
74	816	0	10000	1	1	0	1	0
72	817	0	10000	1	1	0	1	0
71	818	0	10000	1	1	0	1	0
72	819	0	10000	1	1	0	1	0
74	820	0	10000	1	1	0	1	0
73	821	0	10000	1	1	0	1	0
70	822	0	10000	1	1	0	1	0
68	823	0	10000	1	1	0	1	0
67	824	0	10000	1	1	0	1	0
65	825	0	10000	1	1	0	1	0
66	826	0	10000	1	1	0	1	0
67	827	0	10000	1	1	0	1	0
65	828	0	10000	1	1	0	1	0
63	829	0	10000	1	1	0	1	0
64	830	0	10000	1	1	0	1	0
63	831	0	10000	1	1	0	1	0
60	832	0	10000	1	1	0	1	0
58	833	0	10000	1	1	0	1	0
58	834	0	10000	1	1	0	1	0
59	835	0	10000	1	1	0	1	0
58	836	0	10000	1	1	0	1	0
56	837	0	10000	1	1	0	1	0
54	838	0	10000	1	1	0	1	0
52	839	0	10000	1	1	0	1	0
52	840	0	10000	1	1	0	1	0
53	841	0	10000	1	1	0	1	0
54	842	0	10000	1	1	0	1	0
55	843	0	10000	1	1	0	1	0
52	844	0	10000	1	1	0	1	0
51	845	0	10000	1	1	0	1	0
51	846	0	10000	1	1	0	1	0
53	847	0	10000	1	1	0	1	0
54	848	0	10000	1	1	0	1	0
54	849	0	10000	1	1	0	1	0
54	850	0	10000	1	1	0	1	0
51	851	0	10000	1	1	0	1	0
50	852	0	10000	1	1	0	1	0
49	853	0	10000	1	1	0	1	0
48	854	0	10000	1	1	0	1	0
50	855	0	10000	1	1	0	1	0
48	856	0	10000	1	1	0	1	0
46	857	0	10000	1	1	0	1	0
46	858	0	10000	1	1	0	1	0
45	859	0	10000	1	1	0	1	0
44	860	0	10000	1	1	0	1	0
43	861	0	10000	1	1	0	1	0
43	862	0	10000	1	1	0	1	0
42	863	0	10000	1	1	0	1	0
39	864	0	10000	1	1	0	1	0
39	865	0	10000	1	1	0	1	0
41	866	0	10000	1	1	0	1	0
42	867	0	10000	1	1	0	1	0
45	868	0	10000	1	1	0	1	0
48	869	0	10000	1	1	0	1	0
48	870	0	10000	1	1	0	1	0
48	871	0	10000	1	1	0	1	0
47	872	0	10000	1	1	0	1	0
45	873	0	10000	1	1	0	1	0
44	874	0	10000	1	1	0	1	0
44	875	0	10000	1	1	0	1	0
44	876	0	10000	1	1	0	1	0
44	877	0	10000	1	1	0	1	0
44	878	0	10000	1	1	0	1	0
46	879	0	10000	1	1	0	1	0
46	880	0	10000	1	1	0	1	0
44	881	0	10000	1	1	0	1	0
42	882	0	10000	1	1	0	1	0
42	883	0	10000	1	1	0	1	0
40	884	0	10000	1	1	0	1	0
39	885	0	10000	1	1	0	1	0
42	886	0	10000	1	1	0	1	0
43	887	0	10000	1	1	0	1	0
44	888	0	10000	1	1	0	1	0
45	889	0	10000	1	1	0	1	0
46	890	0	10000	1	1	0	1	0
46	891	0	10000	1	1	0	1	0
44	892	0	10000	1	1	0	1	0
42	893	0	10000	1	1	0	1	0
42	894	0	10000	1	1	0	1	0
43	895	0	10000	1	1	0	1	0
43	896	0	10000	1	1	0	1	0
44	897	0	10000	1	1	0	1	0
44	898	0	10000	1	1	0	1	0
44	899	0	10000	1	1	0	1	0
42	900	0	10000	1	1	0	1	0
41	901	0	10000	1	1	0	1	0
41	902	0	10000	1	1	0	1	0
42	903	0	10000	1	1	0	1	0
42	904	0	10000	1	1	0	1	0
40	905	0	10000	1	1	0	1	0
42	906	0	10000	1	1	0	1	0
43	907	0	10000	1	1	0	1	0
46	908	0	10000	1	1	0	1	0
46	909	0	10000	1	1	0	1	0
44	910	0	10000	1	1	0	1	0
44	911	0	10000	1	1	0	1	0
45	912	0	10000	1	1	0	1	0
45	913	0	10000	1	1	0	1	0
45	914	0	10000	1	1	0	1	0
48	915	0	10000	1	1	0	1	0
47	916	0	10000	1	1	0	1	0
48	917	0	10000	1	1	0	1	0
50	918	0	10000	1	1	0	1	0
49	919	0	10000	1	1	0	1	0
47	920	0	10000	1	1	0	1	0
47	921	0	10000	1	1	0	1	0
45	922	0	10000	1	1	0	1	0
44	923	0	10000	1	1	0	1	0
43	924	0	10000	1	1	0	1	0
41	925	0	10000	1	1	0	1	0
41	926	0	10000	1	1	0	1	0
42	927	0	10000	1	1	0	1	0
42	928	0	10000	1	1	0	1	0
43	929	0	10000	1	1	0	1	0
43	930	0	10000	1	1	0	1	0
42	931	0	10000	1	1	0	1	0
40	932	0	10000	1	1	0	1	0
39	933	0	10000	1	1	0	1	0
39	934	0	10000	1	1	0	1	0
38	935	0	10000	1	1	0	1	0
38	936	0	10000	1	1	0	1	0
37	937	0	10000	1	1	0	1	0
35	938	0	10000	1	1	0	1	0
35	939	0	10000	1	1	0	1	0
34	940	0	10000	1	1	0	1	0
35	941	0	10000	1	1	0	1	0
34	942	0	10000	1	1	0	1	0
36	943	0	10000	1	1	0	1	0
41	944	0	10000	1	1	0	1	0
43	945	0	10000	1	1	0	1	0
44	946	0	10000	1	1	0	1	0
44	947	0	10000	1	1	0	1	0
43	948	0	10000	1	1	0	1	0
43	949	0	10000	1	1	0	1	0
44	950	0	10000	1	1	0	1	0
43	951	0	10000	1	1	0	1	0
41	952	0	10000	1	1	0	1	0
39	953	0	10000	1	1	0	1	0
42	954	0	10000	1	1	0	1	0
44	955	0	10000	1	1	0	1	0
44	956	0	10000	1	1	0	1	0
44	957	0	10000	1	1	0	1	0
43	958	0	10000	1	1	0	1	0
42	959	0	10000	1	1	0	1	0
41	960	0	10000	1	1	0	1	0
40	961	0	10000	1	1	0	1	0
39	962	0	10000	1	1	0	1	0
40	963	0	10000	1	1	0	1	0
39	964	0	10000	1	1	0	1	0
39	965	0	10000	1	1	0	1	0
41	966	0	10000	1	1	0	1	0
43	967	0	10000	1	1	0	1	0
45	968	0	10000	1	1	0	1	0
44	969	0	10000	1	1	0	1	0
44	970	0	10000	1	1	0	1	0
42	971	0	10000	1	1	0	1	0
41	972	0	10000	1	1	0	1	0
39	973	0	10000	1	1	0	1	0
40	974	0	10000	1	1	0	1	0
41	975	0	10000	1	1	0	1	0
39	976	0	10000	1	1	0	1	0
37	977	0	10000	1	1	0	1	0
36	978	0	10000	1	1	0	1	0
35	979	0	10000	1	1	0	1	0
34	980	0	10000	1	1	0	1	0
33	981	0	10000	1	1	0	1	0
33	982	0	10000	1	1	0	1	0
32	983	0	10000	1	1	0	1	0
30	984	0	10000	1	1	0	1	0
29	985	0	10000	1	1	0	1	0
32	986	0	10000	1	1	0	1	0
32	987	0	10000	1	1	0	1	0
31	988	0	10000	1	1	0	1	0
30	989	0	10000	1	1	0	1	0
30	990	0	10000	1	1	0	1	0
29	991	0	10000	1	1	0	1	0
28	992	0	10000	1	1	0	1	0
27	993	0	10000	1	1	0	1	0
27	994	0	10000	1	1	0	1	0
27	995	0	10000	1	1	0	1	0
27	996	0	10000	1	1	0	1	0
26	997	0	10000	1	1	0	1	0
25	998	0	10000	1	1	0	1	0
25	999	0	10000	1	1	0	1	0
24	1000	0	10000	1	1	0	1	0
24	1001	0	10000	1	1	0	1	0
18	2	0	10000	2	1	0	2	0
20	3	0	10000	2	1	0	2	0
20	4	0	10000	2	1	0	2	0
20	5	0	10000	2	1	0	2	0
19	6	0	10000	2	1	0	2	0
19	7	0	10000	2	1	0	2	0
18	8	0	10000	2	1	0	2	0
17	9	0	10000	2	1	0	2	0
17	10	0	10000	2	1	0	2	0
19	11	0	10000	2	1	0	2	0
20	12	0	10000	2	1	0	2	0
19	13	0	10000	2	1	0	2	0
18	14	0	10000	2	1	0	2	0
18	15	0	10000	2	1	0	2	0
18	16	0	10000	2	1	0	2	0
17	17	0	10000	2	1	0	2	0
17	18	0	10000	2	1	0	2	0
17	19	0	10000	2	1	0	2	0
17	20	0	10000	2	1	0	2	0
15	21	0	10000	2	1	0	2	0
15	22	0	10000	2	1	0	2	0
16	23	0	10000	2	1	0	2	0
16	24	0	10000	2	1	0	2	0
17	25	0	10000	2	1	0	2	0
17	26	0	10000	2	1	0	2	0
17	27	0	10000	2	1	0	2	0
16	28	0	10000	2	1	0	2	0
16	29	0	10000	2	1	0	2	0
15	30	0	10000	2	1	0	2	0
17	31	0	10000	2	1	0	2	0
17	32	0	10000	2	1	0	2	0
17	33	0	10000	2	1	0	2	0
17	34	0	10000	2	1	0	2	0
19	35	0	10000	2	1	0	2	0
20	36	0	10000	2	1	0	2	0
20	37	0	10000	2	1	0	2	0
21	38	0	10000	2	1	0	2	0
22	39	0	10000	2	1	0	2	0
22	40	0	10000	2	1	0	2	0
20	41	0	10000	2	1	0	2	0
20	42	0	10000	2	1	0	2	0
20	43	0	10000	2	1	0	2	0
20	44	0	10000	2	1	0	2	0
20	45	0	10000	2	1	0	2	0
19	46	0	10000	2	1	0	2	0
20	47	0	10000	2	1	0	2	0
19	48	0	10000	2	1	0	2	0
19	49	0	10000	2	1	0	2	0
20	50	0	10000	2	1	0	2	0
21	51	0	10000	2	1	0	2	0
21	52	0	10000	2	1	0	2	0
21	53	0	10000	2	1	0	2	0
20	54	0	10000	2	1	0	2	0
20	55	0	10000	2	1	0	2	0
20	56	0	10000	2	1	0	2	0
20	57	0	10000	2	1	0	2	0
20	58	0	10000	2	1	0	2	0
20	59	0	10000	2	1	0	2	0
20	60	0	10000	2	1	0	2	0
19	61	0	10000	2	1	0	2	0
17	62	0	10000	2	1	0	2	0
18	63	0	10000	2	1	0	2	0
18	64	0	10000	2	1	0	2	0
17	65	0	10000	2	1	0	2	0
18	66	0	10000	2	1	0	2	0
18	67	0	10000	2	1	0	2	0
18	68	0	10000	2	1	0	2	0
19	69	0	10000	2	1	0	2	0
17	70	0	10000	2	1	0	2	0
18	71	0	10000	2	1	0	2	0
19	72	0	10000	2	1	0	2	0
18	73	0	10000	2	1	0	2	0
17	74	0	10000	2	1	0	2	0
17	75	0	10000	2	1	0	2	0
16	76	0	10000	2	1	0	2	0
17	77	0	10000	2	1	0	2	0
20	78	0	10000	2	1	0	2	0
20	79	0	10000	2	1	0	2	0
20	80	0	10000	2	1	0	2	0
19	81	0	10000	2	1	0	2	0
19	82	0	10000	2	1	0	2	0
19	83	0	10000	2	1	0	2	0
19	84	0	10000	2	1	0	2	0
18	85	0	10000	2	1	0	2	0
18	86	0	10000	2	1	0	2	0
18	87	0	10000	2	1	0	2	0
18	88	0	10000	2	1	0	2	0
18	89	0	10000	2	1	0	2	0
18	90	0	10000	2	1	0	2	0
19	91	0	10000	2	1	0	2	0
18	92	0	10000	2	1	0	2	0
18	93	0	10000	2	1	0	2	0
18	94	0	10000	2	1	0	2	0
17	95	0	10000	2	1	0	2	0
17	96	0	10000	2	1	0	2	0
18	97	0	10000	2	1	0	2	0
18	98	0	10000	2	1	0	2	0
19	99	0	10000	2	1	0	2	0
19	100	0	10000	2	1	0	2	0
18	101	0	10000	2	1	0	2	0
19	102	0	10000	2	1	0	2	0
19	103	0	10000	2	1	0	2	0
18	104	0	10000	2	1	0	2	0
20	105	0	10000	2	1	0	2	0
19	106	0	10000	2	1	0	2	0
18	107	0	10000	2	1	0	2	0
18	108	0	10000	2	1	0	2	0
18	109	0	10000	2	1	0	2	0
17	110	0	10000	2	1	0	2	0
18	111	0	10000	2	1	0	2	0
18	112	0	10000	2	1	0	2	0
18	113	0	10000	2	1	0	2	0
17	114	0	10000	2	1	0	2	0
17	115	0	10000	2	1	0	2	0
17	116	0	10000	2	1	0	2	0
16	117	0	10000	2	1	0	2	0
17	118	0	10000	2	1	0	2	0
18	119	0	10000	2	1	0	2	0
20	120	0	10000	2	1	0	2	0
20	121	0	10000	2	1	0	2	0
19	122	0	10000	2	1	0	2	0
20	123	0	10000	2	1	0	2	0
20	124	0	10000	2	1	0	2	0
20	125	0	10000	2	1	0	2	0
21	126	0	10000	2	1	0	2	0
24	127	0	10000	2	1	0	2	0
26	128	0	10000	2	1	0	2	0
26	129	0	10000	2	1	0	2	0
24	130	0	10000	2	1	0	2	0
25	131	0	10000	2	1	0	2	0
26	132	0	10000	2	1	0	2	0
24	133	0	10000	2	1	0	2	0
24	134	0	10000	2	1	0	2	0
26	135	0	10000	2	1	0	2	0
26	136	0	10000	2	1	0	2	0
25	137	0	10000	2	1	0	2	0
25	138	0	10000	2	1	0	2	0
25	139	0	10000	2	1	0	2	0
25	140	0	10000	2	1	0	2	0
23	141	0	10000	2	1	0	2	0
23	142	0	10000	2	1	0	2	0
23	143	0	10000	2	1	0	2	0
22	144	0	10000	2	1	0	2	0
22	145	0	10000	2	1	0	2	0
22	146	0	10000	2	1	0	2	0
22	147	0	10000	2	1	0	2	0
22	148	0	10000	2	1	0	2	0
21	149	0	10000	2	1	0	2	0
20	150	0	10000	2	1	0	2	0
23	151	0	10000	2	1	0	2	0
23	152	0	10000	2	1	0	2	0
21	153	0	10000	2	1	0	2	0
21	154	0	10000	2	1	0	2	0
20	155	0	10000	2	1	0	2	0
20	156	0	10000	2	1	0	2	0
21	157	0	10000	2	1	0	2	0
21	158	0	10000	2	1	0	2	0
22	159	0	10000	2	1	0	2	0
22	160	0	10000	2	1	0	2	0
20	161	0	10000	2	1	0	2	0
20	162	0	10000	2	1	0	2	0
22	163	0	10000	2	1	0	2	0
22	164	0	10000	2	1	0	2	0
22	165	0	10000	2	1	0	2	0
23	166	0	10000	2	1	0	2	0
22	167	0	10000	2	1	0	2	0
21	168	0	10000	2	1	0	2	0
22	169	0	10000	2	1	0	2	0
22	170	0	10000	2	1	0	2	0
24	171	0	10000	2	1	0	2	0
26	172	0	10000	2	1	0	2	0
24	173	0	10000	2	1	0	2	0
23	174	0	10000	2	1	0	2	0
23	175	0	10000	2	1	0	2	0
22	176	0	10000	2	1	0	2	0
21	177	0	10000	2	1	0	2	0
22	178	0	10000	2	1	0	2	0
21	179	0	10000	2	1	0	2	0
20	180	0	10000	2	1	0	2	0
20	181	0	10000	2	1	0	2	0
18	182	0	10000	2	1	0	2	0
19	183	0	10000	2	1	0	2	0
19	184	0	10000	2	1	0	2	0
18	185	0	10000	2	1	0	2	0
18	186	0	10000	2	1	0	2	0
19	187	0	10000	2	1	0	2	0
18	188	0	10000	2	1	0	2	0
17	189	0	10000	2	1	0	2	0
17	190	0	10000	2	1	0	2	0
18	191	0	10000	2	1	0	2	0
19	192	0	10000	2	1	0	2	0
19	193	0	10000	2	1	0	2	0
19	194	0	10000	2	1	0	2	0
18	195	0	10000	2	1	0	2	0
18	196	0	10000	2	1	0	2	0
18	197	0	10000	2	1	0	2	0
18	198	0	10000	2	1	0	2	0
17	199	0	10000	2	1	0	2	0
18	200	0	10000	2	1	0	2	0
16	201	0	10000	2	1	0	2	0
16	202	0	10000	2	1	0	2	0
16	203	0	10000	2	1	0	2	0
15	204	0	10000	2	1	0	2	0
14	205	0	10000	2	1	0	2	0
15	206	0	10000	2	1	0	2	0
15	207	0	10000	2	1	0	2	0
14	208	0	10000	2	1	0	2	0
14	209	0	10000	2	1	0	2	0
14	210	0	10000	2	1	0	2	0
15	211	0	10000	2	1	0	2	0
16	212	0	10000	2	1	0	2	0
15	213	0	10000	2	1	0	2	0
15	214	0	10000	2	1	0	2	0
15	215	0	10000	2	1	0	2	0
15	216	0	10000	2	1	0	2	0
15	217	0	10000	2	1	0	2	0
15	218	0	10000	2	1	0	2	0
17	219	0	10000	2	1	0	2	0
17	220	0	10000	2	1	0	2	0
16	221	0	10000	2	1	0	2	0
15	222	0	10000	2	1	0	2	0
16	223	0	10000	2	1	0	2	0
16	224	0	10000	2	1	0	2	0
16	225	0	10000	2	1	0	2	0
15	226	0	10000	2	1	0	2	0
16	227	0	10000	2	1	0	2	0
15	228	0	10000	2	1	0	2	0
14	229	0	10000	2	1	0	2	0
13	230	0	10000	2	1	0	2	0
15	231	0	10000	2	1	0	2	0
15	232	0	10000	2	1	0	2	0
15	233	0	10000	2	1	0	2	0
16	234	0	10000	2	1	0	2	0
16	235	0	10000	2	1	0	2	0
16	236	0	10000	2	1	0	2	0
16	237	0	10000	2	1	0	2	0
16	238	0	10000	2	1	0	2	0
15	239	0	10000	2	1	0	2	0
16	240	0	10000	2	1	0	2	0
15	241	0	10000	2	1	0	2	0
14	242	0	10000	2	1	0	2	0
14	243	0	10000	2	1	0	2	0
13	244	0	10000	2	1	0	2	0
14	245	0	10000	2	1	0	2	0
14	246	0	10000	2	1	0	2	0
14	247	0	10000	2	1	0	2	0
13	248	0	10000	2	1	0	2	0
13	249	0	10000	2	1	0	2	0
14	250	0	10000	2	1	0	2	0
16	251	0	10000	2	1	0	2	0
15	252	0	10000	2	1	0	2	0
14	253	0	10000	2	1	0	2	0
15	254	0	10000	2	1	0	2	0
14	255	0	10000	2	1	0	2	0
14	256	0	10000	2	1	0	2	0
14	257	0	10000	2	1	0	2	0
14	258	0	10000	2	1	0	2	0
13	259	0	10000	2	1	0	2	0
14	260	0	10000	2	1	0	2	0
12	261	0	10000	2	1	0	2	0
11	262	0	10000	2	1	0	2	0
13	263	0	10000	2	1	0	2	0
14	264	0	10000	2	1	0	2	0
15	265	0	10000	2	1	0	2	0
17	266	0	10000	2	1	0	2	0
17	267	0	10000	2	1	0	2	0
18	268	0	10000	2	1	0	2	0
19	269	0	10000	2	1	0	2	0
17	270	0	10000	2	1	0	2	0
19	271	0	10000	2	1	0	2	0
20	272	0	10000	2	1	0	2	0
20	273	0	10000	2	1	0	2	0
19	274	0	10000	2	1	0	2	0
19	275	0	10000	2	1	0	2	0
18	276	0	10000	2	1	0	2	0
17	277	0	10000	2	1	0	2	0
17	278	0	10000	2	1	0	2	0
17	279	0	10000	2	1	0	2	0
18	280	0	10000	2	1	0	2	0
18	281	0	10000	2	1	0	2	0
16	282	0	10000	2	1	0	2	0
17	283	0	10000	2	1	0	2	0
17	284	0	10000	2	1	0	2	0
16	285	0	10000	2	1	0	2	0
16	286	0	10000	2	1	0	2	0
16	287	0	10000	2	1	0	2	0
16	288	0	10000	2	1	0	2	0
16	289	0	10000	2	1	0	2	0
16	290	0	10000	2	1	0	2	0
17	291	0	10000	2	1	0	2	0
18	292	0	10000	2	1	0	2	0
17	293	0	10000	2	1	0	2	0
17	294	0	10000	2	1	0	2	0
18	295	0	10000	2	1	0	2	0
18	296	0	10000	2	1	0	2	0
18	297	0	10000	2	1	0	2	0
18	298	0	10000	2	1	0	2	0
18	299	0	10000	2	1	0	2	0
18	300	0	10000	2	1	0	2	0
17	301	0	10000	2	1	0	2	0
17	302	0	10000	2	1	0	2	0
16	303	0	10000	2	1	0	2	0
16	304	0	10000	2	1	0	2	0
15	305	0	10000	2	1	0	2	0
17	306	0	10000	2	1	0	2	0
17	307	0	10000	2	1	0	2	0
16	308	0	10000	2	1	0	2	0
17	309	0	10000	2	1	0	2	0
17	310	0	10000	2	1	0	2	0
20	311	0	10000	2	1	0	2	0
22	312	0	10000	2	1	0	2	0
21	313	0	10000	2	1	0	2	0
22	314	0	10000	2	1	0	2	0
21	315	0	10000	2	1	0	2	0
22	316	0	10000	2	1	0	2	0
20	317	0	10000	2	1	0	2	0
20	318	0	10000	2	1	0	2	0
20	319	0	10000	2	1	0	2	0
20	320	0	10000	2	1	0	2	0
19	321	0	10000	2	1	0	2	0
18	322	0	10000	2	1	0	2	0
18	323	0	10000	2	1	0	2	0
18	324	0	10000	2	1	0	2	0
19	325	0	10000	2	1	0	2	0
19	326	0	10000	2	1	0	2	0
19	327	0	10000	2	1	0	2	0
18	328	0	10000	2	1	0	2	0
19	329	0	10000	2	1	0	2	0
20	330	0	10000	2	1	0	2	0
25	331	0	10000	2	1	0	2	0
30	332	0	10000	2	1	0	2	0
32	333	0	10000	2	1	0	2	0
34	334	0	10000	2	1	0	2	0
36	335	0	10000	2	1	0	2	0
35	336	0	10000	2	1	0	2	0
38	337	0	10000	2	1	0	2	0
42	338	0	10000	2	1	0	2	0
44	339	0	10000	2	1	0	2	0
44	340	0	10000	2	1	0	2	0
44	341	0	10000	2	1	0	2	0
44	342	0	10000	2	1	0	2	0
49	343	0	10000	2	1	0	2	0
54	344	0	10000	2	1	0	2	0
56	345	0	10000	2	1	0	2	0
55	346	0	10000	2	1	0	2	0
56	347	0	10000	2	1	0	2	0
57	348	0	10000	2	1	0	2	0
57	349	0	10000	2	1	0	2	0
58	350	0	10000	2	1	0	2	0
62	351	0	10000	2	1	0	2	0
66	352	0	10000	2	1	0	2	0
67	353	0	10000	2	1	0	2	0
69	354	0	10000	2	1	0	2	0
69	355	0	10000	2	1	0	2	0
70	356	0	10000	2	1	0	2	0
74	357	0	10000	2	1	0	2	0
79	358	0	10000	2	1	0	2	0
81	359	0	10000	2	1	0	2	0
87	360	0	10000	2	1	0	2	0
87	361	0	10000	2	1	0	2	0
86	362	0	10000	2	1	0	2	0
88	363	0	10000	2	1	0	2	0
88	364	0	10000	2	1	0	2	0
89	365	0	10000	2	1	0	2	0
92	366	0	10000	2	1	0	2	0
93	367	0	10000	2	1	0	2	0
94	368	0	10000	2	1	0	2	0
95	369	0	10000	2	1	0	2	0
94	370	0	10000	2	1	0	2	0
96	371	0	10000	2	1	0	2	0
99	372	0	10000	2	1	0	2	0
99	373	0	10000	2	1	0	2	0
96	374	0	10000	2	1	0	2	0
92	375	0	10000	2	1	0	2	0
91	376	0	10000	2	1	0	2	0
90	377	0	10000	2	1	0	2	0
90	378	0	10000	2	1	0	2	0
89	379	0	10000	2	1	0	2	0
91	380	0	10000	2	1	0	2	0
89	381	0	10000	2	1	0	2	0
89	382	0	10000	2	1	0	2	0
88	383	0	10000	2	1	0	2	0
86	384	0	10000	2	1	0	2	0
84	385	0	10000	2	1	0	2	0
82	386	0	10000	2	1	0	2	0
79	387	0	10000	2	1	0	2	0
75	388	0	10000	2	1	0	2	0
72	389	0	10000	2	1	0	2	0
68	390	0	10000	2	1	0	2	0
68	391	0	10000	2	1	0	2	0
66	392	0	10000	2	1	0	2	0
62	393	0	10000	2	1	0	2	0
60	394	0	10000	2	1	0	2	0
60	395	0	10000	2	1	0	2	0
58	396	0	10000	2	1	0	2	0
56	397	0	10000	2	1	0	2	0
55	398	0	10000	2	1	0	2	0
54	399	0	10000	2	1	0	2	0
53	400	0	10000	2	1	0	2	0
50	401	0	10000	2	1	0	2	0
48	402	0	10000	2	1	0	2	0
46	403	0	10000	2	1	0	2	0
44	404	0	10000	2	1	0	2	0
44	405	0	10000	2	1	0	2	0
42	406	0	10000	2	1	0	2	0
41	407	0	10000	2	1	0	2	0
39	408	0	10000	2	1	0	2	0
40	409	0	10000	2	1	0	2	0
41	410	0	10000	2	1	0	2	0
43	411	0	10000	2	1	0	2	0
44	412	0	10000	2	1	0	2	0
44	413	0	10000	2	1	0	2	0
41	414	0	10000	2	1	0	2	0
41	415	0	10000	2	1	0	2	0
40	416	0	10000	2	1	0	2	0
40	417	0	10000	2	1	0	2	0
39	418	0	10000	2	1	0	2	0
37	419	0	10000	2	1	0	2	0
37	420	0	10000	2	1	0	2	0
34	421	0	10000	2	1	0	2	0
33	422	0	10000	2	1	0	2	0
35	423	0	10000	2	1	0	2	0
36	424	0	10000	2	1	0	2	0
38	425	0	10000	2	1	0	2	0
41	426	0	10000	2	1	0	2	0
44	427	0	10000	2	1	0	2	0
45	428	0	10000	2	1	0	2	0
47	429	0	10000	2	1	0	2	0
49	430	0	10000	2	1	0	2	0
52	431	0	10000	2	1	0	2	0
52	432	0	10000	2	1	0	2	0
53	433	0	10000	2	1	0	2	0
53	434	0	10000	2	1	0	2	0
54	435	0	10000	2	1	0	2	0
55	436	0	10000	2	1	0	2	0
54	437	0	10000	2	1	0	2	0
52	438	0	10000	2	1	0	2	0
54	439	0	10000	2	1	0	2	0
56	440	0	10000	2	1	0	2	0
56	441	0	10000	2	1	0	2	0
58	442	0	10000	2	1	0	2	0
60	443	0	10000	2	1	0	2	0
60	444	0	10000	2	1	0	2	0
62	445	0	10000	2	1	0	2	0
64	446	0	10000	2	1	0	2	0
65	447	0	10000	2	1	0	2	0
66	448	0	10000	2	1	0	2	0
67	449	0	10000	2	1	0	2	0
68	450	0	10000	2	1	0	2	0
71	451	0	10000	2	1	0	2	0
75	452	0	10000	2	1	0	2	0
79	453	0	10000	2	1	0	2	0
83	454	0	10000	2	1	0	2	0
87	455	0	10000	2	1	0	2	0
92	456	0	10000	2	1	0	2	0
97	457	0	10000	2	1	0	2	0
101	458	0	10000	2	1	0	2	0
106	459	0	10000	2	1	0	2	0
111	460	0	10000	2	1	0	2	0
113	461	0	10000	2	1	0	2	0
116	462	0	10000	2	1	0	2	0
120	463	0	10000	2	1	0	2	0
123	464	0	10000	2	1	0	2	0
126	465	0	10000	2	1	0	2	0
130	466	0	10000	2	1	0	2	0
131	467	0	10000	2	1	0	2	0
133	468	0	10000	2	1	0	2	0
137	469	0	10000	2	1	0	2	0
138	470	0	10000	2	1	0	2	0
138	471	0	10000	2	1	0	2	0
139	472	0	10000	2	1	0	2	0
136	473	0	10000	2	1	0	2	0
135	474	0	10000	2	1	0	2	0
134	475	0	10000	2	1	0	2	0
132	476	0	10000	2	1	0	2	0
129	477	0	10000	2	1	0	2	0
129	478	0	10000	2	1	0	2	0
131	479	0	10000	2	1	0	2	0
134	480	0	10000	2	1	0	2	0
134	481	0	10000	2	1	0	2	0
134	482	0	10000	2	1	0	2	0
134	483	0	10000	2	1	0	2	0
132	484	0	10000	2	1	0	2	0
131	485	0	10000	2	1	0	2	0
129	486	0	10000	2	1	0	2	0
124	487	0	10000	2	1	0	2	0
119	488	0	10000	2	1	0	2	0
115	489	0	10000	2	1	0	2	0
110	490	0	10000	2	1	0	2	0
108	491	0	10000	2	1	0	2	0
106	492	0	10000	2	1	0	2	0
102	493	0	10000	2	1	0	2	0
99	494	0	10000	2	1	0	2	0
98	495	0	10000	2	1	0	2	0
98	496	0	10000	2	1	0	2	0
95	497	0	10000	2	1	0	2	0
92	498	0	10000	2	1	0	2	0
88	499	0	10000	2	1	0	2	0
86	500	0	10000	2	1	0	2	0
80	501	0	10000	2	1	0	2	0
78	502	0	10000	2	1	0	2	1
75	503	0	10000	2	1	0	2	1
72	504	0	10000	2	1	0	2	1
69	505	0	10000	2	1	0	2	1
68	506	0	10000	2	1	0	2	1
67	507	0	10000	2	1	0	2	1
66	508	0	10000	2	1	0	2	1
63	509	0	10000	2	1	0	2	1
60	510	0	10000	2	1	0	2	1
58	511	0	10000	2	1	0	2	1
58	512	0	10000	2	1	0	2	1
56	513	0	10000	2	1	0	2	1
55	514	0	10000	2	1	0	2	1
54	515	0	10000	2	1	0	2	1
51	516	0	10000	2	1	0	2	1
49	517	0	10000	2	1	0	2	1
48	518	0	10000	2	1	0	2	1
49	519	0	10000	2	1	0	2	1
50	520	0	10000	2	1	0	2	1
48	521	0	10000	2	1	0	2	1
46	522	0	10000	2	1	0	2	1
46	523	0	10000	2	1	0	2	1
46	524	0	10000	2	1	0	2	1
44	525	0	10000	2	1	0	2	1
44	526	0	10000	2	1	0	2	1
43	527	0	10000	2	1	0	2	1
41	528	0	10000	2	1	0	2	1
39	529	0	10000	2	1	0	2	1
38	530	0	10000	2	1	0	2	1
37	531	0	10000	2	1	0	2	1
38	532	0	10000	2	1	0	2	1
38	533	0	10000	2	1	0	2	1
37	534	0	10000	2	1	0	2	1
36	535	0	10000	2	1	0	2	1
36	536	0	10000	2	1	0	2	1
36	537	0	10000	2	1	0	2	1
34	538	0	10000	2	1	0	2	1
34	539	0	10000	2	1	0	2	1
33	540	0	10000	2	1	0	2	1
31	541	0	10000	2	1	0	2	1
29	542	0	10000	2	1	0	2	1
29	543	0	10000	2	1	0	2	1
28	544	0	10000	2	1	0	2	1
27	545	0	10000	2	1	0	2	1
27	546	0	10000	2	1	0	2	1
26	547	0	10000	2	1	0	2	1
25	548	0	10000	2	1	0	2	1
23	549	0	10000	2	1	0	2	1
23	550	0	10000	2	1	0	2	1
24	551	0	10000	2	1	0	2	1
25	552	0	10000	2	1	0	2	0
26	553	0	10000	2	1	0	2	0
26	554	0	10000	2	1	0	2	0
24	555	0	10000	2	1	0	2	0
25	556	0	10000	2	1	0	2	0
25	557	0	10000	2	1	0	2	0
25	558	0	10000	2	1	0	2	0
26	559	0	10000	2	1	0	2	0
28	560	0	10000	2	1	0	2	0
26	561	0	10000	2	1	0	2	0
26	562	0	10000	2	1	0	2	0
28	563	0	10000	2	1	0	2	0
26	564	0	10000	2	1	0	2	0
26	565	0	10000	2	1	0	2	0
25	566	0	10000	2	1	0	2	0
24	567	0	10000	2	1	0	2	0
25	568	0	10000	2	1	0	2	0
27	569	0	10000	2	1	0	2	0
29	570	0	10000	2	1	0	2	0
32	571	0	10000	2	1	0	2	0
34	572	0	10000	2	1	0	2	0
35	573	0	10000	2	1	0	2	0
37	574	0	10000	2	1	0	2	0
39	575	0	10000	2	1	0	2	0
40	576	0	10000	2	1	0	2	0
39	577	0	10000	2	1	0	2	0
37	578	0	10000	2	1	0	2	0
37	579	0	10000	2	1	0	2	0
37	580	0	10000	2	1	0	2	0
42	581	0	10000	2	1	0	2	0
46	582	0	10000	2	1	0	2	0
54	583	0	10000	2	1	0	2	0
68	584	0	10000	2	1	0	2	0
69	585	0	10000	2	1	0	2	0
78	586	0	10000	2	1	0	2	0
92	587	0	10000	2	1	0	2	0
94	588	0	10000	2	1	0	2	0
95	589	0	10000	2	1	0	2	0
125	590	0	10000	2	1	0	2	0
173	591	0	10000	2	1	0	2	0
205	592	0	10000	2	1	0	2	0
220	593	0	10000	2	1	0	2	0
250	594	0	10000	2	1	0	2	0
260	595	0	10000	2	1	0	2	0
272	596	0	10000	2	1	0	2	0
290	597	0	10000	2	1	0	2	0
300	598	0	10000	2	1	0	2	0
295	599	0	10000	2	1	0	2	0
296	600	0	10000	2	1	0	2	0
314	601	0	10000	2	1	0	2	0
371	602	0	10000	2	1	0	2	0
406	603	0	10000	2	1	0	2	0
412	604	0	10000	2	1	0	2	0
461	605	0	10000	2	1	0	2	0
531	606	0	10000	2	1	0	2	0
558	607	0	10000	2	1	0	2	0
566	608	0	10000	2	1	0	2	0
580	609	0	10000	2	1	0	2	0
572	610	0	10000	2	1	0	2	0
594	611	0	10000	2	1	0	2	0
586	612	0	10000	2	1	0	2	0
597	613	0	10000	2	1	0	2	0
596	614	0	10000	2	1	0	2	0
578	615	0	10000	2	1	0	2	0
574	616	0	10000	2	1	0	2	0
585	617	0	10000	2	1	0	2	0
613	618	0	10000	2	1	0	2	0
659	619	0	10000	2	1	0	2	0
648	620	0	10000	2	1	0	2	0
655	621	0	10000	2	1	0	2	0
655	622	0	10000	2	1	0	2	0
633	623	0	10000	2	1	0	2	0
635	624	0	10000	2	1	0	2	0
656	625	0	10000	2	1	0	2	0
672	626	0	10000	2	1	0	2	0
667	627	0	10000	2	1	0	2	0
643	628	0	10000	2	1	0	2	0
614	629	0	10000	2	1	0	2	0
588	630	0	10000	2	1	0	2	0
568	631	0	10000	2	1	0	2	0
557	632	0	10000	2	1	0	2	0
549	633	0	10000	2	1	0	2	0
537	634	0	10000	2	1	0	2	0
518	635	0	10000	2	1	0	2	0
502	636	0	10000	2	1	0	2	0
483	637	0	10000	2	1	0	2	0
466	638	0	10000	2	1	0	2	0
452	639	0	10000	2	1	0	2	0
443	640	0	10000	2	1	0	2	0
437	641	0	10000	2	1	0	2	0
434	642	0	10000	2	1	0	2	0
431	643	0	10000	2	1	0	2	0
430	644	0	10000	2	1	0	2	0
431	645	0	10000	2	1	0	2	0
427	646	0	10000	2	1	0	2	0
422	647	0	10000	2	1	0	2	0
416	648	0	10000	2	1	0	2	0
404	649	0	10000	2	1	0	2	0
392	650	0	10000	2	1	0	2	0
382	651	0	10000	2	1	0	2	0
369	652	0	10000	2	1	0	2	0
355	653	0	10000	2	1	0	2	0
341	654	0	10000	2	1	0	2	0
325	655	0	10000	2	1	0	2	0
312	656	0	10000	2	1	0	2	0
302	657	0	10000	2	1	0	2	0
295	658	0	10000	2	1	0	2	0
290	659	0	10000	2	1	0	2	0
285	660	0	10000	2	1	0	2	0
277	661	0	10000	2	1	0	2	0
271	662	0	10000	2	1	0	2	0
264	663	0	10000	2	1	0	2	0
255	664	0	10000	2	1	0	2	0
247	665	0	10000	2	1	0	2	0
240	666	0	10000	2	1	0	2	0
235	667	0	10000	2	1	0	2	0
231	668	0	10000	2	1	0	2	0
228	669	0	10000	2	1	0	2	0
226	670	0	10000	2	1	0	2	0
229	671	0	10000	2	1	0	2	0
236	672	0	10000	2	1	0	2	0
241	673	0	10000	2	1	0	2	0
247	674	0	10000	2	1	0	2	0
254	675	0	10000	2	1	0	2	0
261	676	0	10000	2	1	0	2	0
266	677	0	10000	2	1	0	2	0
271	678	0	10000	2	1	0	2	0
275	679	0	10000	2	1	0	2	0
274	680	0	10000	2	1	0	2	0
272	681	0	10000	2	1	0	2	0
269	682	0	10000	2	1	0	2	0
266	683	0	10000	2	1	0	2	0
265	684	0	10000	2	1	0	2	0
264	685	0	10000	2	1	0	2	0
262	686	0	10000	2	1	0	2	0
261	687	0	10000	2	1	0	2	0
258	688	0	10000	2	1	0	2	0
253	689	0	10000	2	1	0	2	0
250	690	0	10000	2	1	0	2	0
250	691	0	10000	2	1	0	2	0
250	692	0	10000	2	1	0	2	0
247	693	0	10000	2	1	0	2	0
246	694	0	10000	2	1	0	2	0
244	695	0	10000	2	1	0	2	0
242	696	0	10000	2	1	0	2	0
240	697	0	10000	2	1	0	2	0
237	698	0	10000	2	1	0	2	0
233	699	0	10000	2	1	0	2	0
226	700	0	10000	2	1	0	2	0
215	701	0	10000	2	1	0	2	0
212	702	0	10000	2	1	0	2	0
213	703	0	10000	2	1	0	2	0
217	704	0	10000	2	1	0	2	0
226	705	0	10000	2	1	0	2	0
237	706	0	10000	2	1	0	2	0
248	707	0	10000	2	1	0	2	0
261	708	0	10000	2	1	0	2	0
274	709	0	10000	2	1	0	2	0
285	710	0	10000	2	1	0	2	0
297	711	0	10000	2	1	0	2	0
308	712	0	10000	2	1	0	2	0
312	713	0	10000	2	1	0	2	0
315	714	0	10000	2	1	0	2	0
315	715	0	10000	2	1	0	2	0
310	716	0	10000	2	1	0	2	0
302	717	0	10000	2	1	0	2	0
294	718	0	10000	2	1	0	2	0
285	719	0	10000	2	1	0	2	0
275	720	0	10000	2	1	0	2	0
264	721	0	10000	2	1	0	2	0
251	722	0	10000	2	1	0	2	0
241	723	0	10000	2	1	0	2	0
232	724	0	10000	2	1	0	2	0
224	725	0	10000	2	1	0	2	0
216	726	0	10000	2	1	0	2	0
210	727	0	10000	2	1	0	2	0
205	728	0	10000	2	1	0	2	0
198	729	0	10000	2	1	0	2	0
191	730	0	10000	2	1	0	2	0
187	731	0	10000	2	1	0	2	0
181	732	0	10000	2	1	0	2	0
178	733	0	10000	2	1	0	2	0
174	734	0	10000	2	1	0	2	0
170	735	0	10000	2	1	0	2	0
165	736	0	10000	2	1	0	2	0
159	737	0	10000	2	1	0	2	0
154	738	0	10000	2	1	0	2	0
152	739	0	10000	2	1	0	2	0
149	740	0	10000	2	1	0	2	0
144	741	0	10000	2	1	0	2	0
144	742	0	10000	2	1	0	2	0
143	743	0	10000	2	1	0	2	0
143	744	0	10000	2	1	0	2	0
143	745	0	10000	2	1	0	2	0
141	746	0	10000	2	1	0	2	0
138	747	0	10000	2	1	0	2	0
135	748	0	10000	2	1	0	2	0
130	749	0	10000	2	1	0	2	0
126	750	0	10000	2	1	0	2	0
123	751	0	10000	2	1	0	2	0
119	752	0	10000	2	1	0	2	0
113	753	0	10000	2	1	0	2	0
109	754	0	10000	2	1	0	2	0
104	755	0	10000	2	1	0	2	0
100	756	0	10000	2	1	0	2	0
96	757	0	10000	2	1	0	2	0
92	758	0	10000	2	1	0	2	0
89	759	0	10000	2	1	0	2	0
88	760	0	10000	2	1	0	2	0
85	761	0	10000	2	1	0	2	0
83	762	0	10000	2	1	0	2	0
80	763	0	10000	2	1	0	2	0
77	764	0	10000	2	1	0	2	0
74	765	0	10000	2	1	0	2	0
71	766	0	10000	2	1	0	2	0
68	767	0	10000	2	1	0	2	0
65	768	0	10000	2	1	0	2	0
63	769	0	10000	2	1	0	2	0
61	770	0	10000	2	1	0	2	0
60	771	0	10000	2	1	0	2	0
59	772	0	10000	2	1	0	2	0
57	773	0	10000	2	1	0	2	0
55	774	0	10000	2	1	0	2	0
55	775	0	10000	2	1	0	2	0
55	776	0	10000	2	1	0	2	0
53	777	0	10000	2	1	0	2	0
51	778	0	10000	2	1	0	2	0
51	779	0	10000	2	1	0	2	0
49	780	0	10000	2	1	0	2	0
46	781	0	10000	2	1	0	2	0
44	782	0	10000	2	1	0	2	0
45	783	0	10000	2	1	0	2	0
45	784	0	10000	2	1	0	2	0
43	785	0	10000	2	1	0	2	0
43	786	0	10000	2	1	0	2	0
44	787	0	10000	2	1	0	2	0
44	788	0	10000	2	1	0	2	0
42	789	0	10000	2	1	0	2	0
39	790	0	10000	2	1	0	2	0
39	791	0	10000	2	1	0	2	0
38	792	0	10000	2	1	0	2	0
37	793	0	10000	2	1	0	2	0
36	794	0	10000	2	1	0	2	0
35	795	0	10000	2	1	0	2	0
35	796	0	10000	2	1	0	2	0
33	797	0	10000	2	1	0	2	0
32	798	0	10000	2	1	0	2	0
32	799	0	10000	2	1	0	2	0
32	800	0	10000	2	1	0	2	0
31	801	0	10000	2	1	0	2	0
29	802	0	10000	2	1	0	2	0
29	803	0	10000	2	1	0	2	0
28	804	0	10000	2	1	0	2	0
29	805	0	10000	2	1	0	2	0
29	806	0	10000	2	1	0	2	0
29	807	0	10000	2	1	0	2	0
29	808	0	10000	2	1	0	2	0
29	809	0	10000	2	1	0	2	0
27	810	0	10000	2	1	0	2	0
29	811	0	10000	2	1	0	2	0
32	812	0	10000	2	1	0	2	0
34	813	0	10000	2	1	0	2	0
35	814	0	10000	2	1	0	2	0
34	815	0	10000	2	1	0	2	0
34	816	0	10000	2	1	0	2	0
33	817	0	10000	2	1	0	2	0
32	818	0	10000	2	1	0	2	0
32	819	0	10000	2	1	0	2	0
33	820	0	10000	2	1	0	2	0
32	821	0	10000	2	1	0	2	0
31	822	0	10000	2	1	0	2	0
30	823	0	10000	2	1	0	2	0
31	824	0	10000	2	1	0	2	0
29	825	0	10000	2	1	0	2	0
29	826	0	10000	2	1	0	2	0
29	827	0	10000	2	1	0	2	0
27	828	0	10000	2	1	0	2	0
26	829	0	10000	2	1	0	2	0
27	830	0	10000	2	1	0	2	0
27	831	0	10000	2	1	0	2	0
28	832	0	10000	2	1	0	2	0
28	833	0	10000	2	1	0	2	0
26	834	0	10000	2	1	0	2	0
25	835	0	10000	2	1	0	2	0
25	836	0	10000	2	1	0	2	0
24	837	0	10000	2	1	0	2	0
23	838	0	10000	2	1	0	2	0
24	839	0	10000	2	1	0	2	0
24	840	0	10000	2	1	0	2	0
23	841	0	10000	2	1	0	2	0
23	842	0	10000	2	1	0	2	0
24	843	0	10000	2	1	0	2	0
24	844	0	10000	2	1	0	2	0
26	845	0	10000	2	1	0	2	0
26	846	0	10000	2	1	0	2	0
25	847	0	10000	2	1	0	2	0
25	848	0	10000	2	1	0	2	0
24	849	0	10000	2	1	0	2	0
23	850	0	10000	2	1	0	2	0
24	851	0	10000	2	1	0	2	0
24	852	0	10000	2	1	0	2	0
24	853	0	10000	2	1	0	2	0
25	854	0	10000	2	1	0	2	0
24	855	0	10000	2	1	0	2	0
23	856	0	10000	2	1	0	2	0
24	857	0	10000	2	1	0	2	0
23	858	0	10000	2	1	0	2	0
22	859	0	10000	2	1	0	2	0
23	860	0	10000	2	1	0	2	0
22	861	0	10000	2	1	0	2	0
20	862	0	10000	2	1	0	2	0
20	863	0	10000	2	1	0	2	0
20	864	0	10000	2	1	0	2	0
20	865	0	10000	2	1	0	2	0
20	866	0	10000	2	1	0	2	0
20	867	0	10000	2	1	0	2	0
20	868	0	10000	2	1	0	2	0
19	869	0	10000	2	1	0	2	0
18	870	0	10000	2	1	0	2	0
18	871	0	10000	2	1	0	2	0
19	872	0	10000	2	1	0	2	0
18	873	0	10000	2	1	0	2	0
18	874	0	10000	2	1	0	2	0
18	875	0	10000	2	1	0	2	0
19	876	0	10000	2	1	0	2	0
21	877	0	10000	2	1	0	2	0
22	878	0	10000	2	1	0	2	0
27	879	0	10000	2	1	0	2	0
32	880	0	10000	2	1	0	2	0
32	881	0	10000	2	1	0	2	0
30	882	0	10000	2	1	0	2	0
29	883	0	10000	2	1	0	2	0
29	884	0	10000	2	1	0	2	0
28	885	0	10000	2	1	0	2	0
27	886	0	10000	2	1	0	2	0
28	887	0	10000	2	1	0	2	0
29	888	0	10000	2	1	0	2	0
27	889	0	10000	2	1	0	2	0
26	890	0	10000	2	1	0	2	0
26	891	0	10000	2	1	0	2	0
26	892	0	10000	2	1	0	2	0
25	893	0	10000	2	1	0	2	0
24	894	0	10000	2	1	0	2	0
24	895	0	10000	2	1	0	2	0
24	896	0	10000	2	1	0	2	0
27	897	0	10000	2	1	0	2	0
28	898	0	10000	2	1	0	2	0
28	899	0	10000	2	1	0	2	0
28	900	0	10000	2	1	0	2	0
25	901	0	10000	2	1	0	2	0
24	902	0	10000	2	1	0	2	0
24	903	0	10000	2	1	0	2	0
23	904	0	10000	2	1	0	2	0
23	905	0	10000	2	1	0	2	0
23	906	0	10000	2	1	0	2	0
24	907	0	10000	2	1	0	2	0
25	908	0	10000	2	1	0	2	0
26	909	0	10000	2	1	0	2	0
25	910	0	10000	2	1	0	2	0
27	911	0	10000	2	1	0	2	0
27	912	0	10000	2	1	0	2	0
26	913	0	10000	2	1	0	2	0
24	914	0	10000	2	1	0	2	0
24	915	0	10000	2	1	0	2	0
24	916	0	10000	2	1	0	2	0
24	917	0	10000	2	1	0	2	0
25	918	0	10000	2	1	0	2	0
26	919	0	10000	2	1	0	2	0
29	920	0	10000	2	1	0	2	0
29	921	0	10000	2	1	0	2	0
31	922	0	10000	2	1	0	2	0
36	923	0	10000	2	1	0	2	0
41	924	0	10000	2	1	0	2	0
43	925	0	10000	2	1	0	2	0
45	926	0	10000	2	1	0	2	0
44	927	0	10000	2	1	0	2	0
41	928	0	10000	2	1	0	2	0
39	929	0	10000	2	1	0	2	0
38	930	0	10000	2	1	0	2	0
38	931	0	10000	2	1	0	2	0
38	932	0	10000	2	1	0	2	0
37	933	0	10000	2	1	0	2	0
36	934	0	10000	2	1	0	2	0
38	935	0	10000	2	1	0	2	0
43	936	0	10000	2	1	0	2	0
44	937	0	10000	2	1	0	2	0
43	938	0	10000	2	1	0	2	0
44	939	0	10000	2	1	0	2	0
43	940	0	10000	2	1	0	2	0
41	941	0	10000	2	1	0	2	0
38	942	0	10000	2	1	0	2	0
40	943	0	10000	2	1	0	2	0
41	944	0	10000	2	1	0	2	0
41	945	0	10000	2	1	0	2	0
43	946	0	10000	2	1	0	2	0
46	947	0	10000	2	1	0	2	0
48	948	0	10000	2	1	0	2	0
47	949	0	10000	2	1	0	2	0
46	950	0	10000	2	1	0	2	0
47	951	0	10000	2	1	0	2	0
46	952	0	10000	2	1	0	2	0
44	953	0	10000	2	1	0	2	0
43	954	0	10000	2	1	0	2	0
42	955	0	10000	2	1	0	2	0
41	956	0	10000	2	1	0	2	0
39	957	0	10000	2	1	0	2	0
37	958	0	10000	2	1	0	2	0
37	959	0	10000	2	1	0	2	0
36	960	0	10000	2	1	0	2	0
35	961	0	10000	2	1	0	2	0
33	962	0	10000	2	1	0	2	0
33	963	0	10000	2	1	0	2	0
36	964	0	10000	2	1	0	2	0
40	965	0	10000	2	1	0	2	0
41	966	0	10000	2	1	0	2	0
41	967	0	10000	2	1	0	2	0
42	968	0	10000	2	1	0	2	0
41	969	0	10000	2	1	0	2	0
42	970	0	10000	2	1	0	2	0
44	971	0	10000	2	1	0	2	0
44	972	0	10000	2	1	0	2	0
42	973	0	10000	2	1	0	2	0
40	974	0	10000	2	1	0	2	0
40	975	0	10000	2	1	0	2	0
39	976	0	10000	2	1	0	2	0
37	977	0	10000	2	1	0	2	0
36	978	0	10000	2	1	0	2	0
36	979	0	10000	2	1	0	2	0
36	980	0	10000	2	1	0	2	0
35	981	0	10000	2	1	0	2	0
34	982	0	10000	2	1	0	2	0
36	983	0	10000	2	1	0	2	0
37	984	0	10000	2	1	0	2	0
38	985	0	10000	2	1	0	2	0
39	986	0	10000	2	1	0	2	0
40	987	0	10000	2	1	0	2	0
40	988	0	10000	2	1	0	2	0
37	989	0	10000	2	1	0	2	0
36	990	0	10000	2	1	0	2	0
36	991	0	10000	2	1	0	2	0
36	992	0	10000	2	1	0	2	0
34	993	0	10000	2	1	0	2	0
33	994	0	10000	2	1	0	2	0
32	995	0	10000	2	1	0	2	0
31	996	0	10000	2	1	0	2	0
31	997	0	10000	2	1	0	2	0
32	998	0	10000	2	1	0	2	0
31	999	0	10000	2	1	0	2	0
31	1000	0	10000	2	1	0	2	0
29	1001	0	10000	2	1	0	2	0
26	1	1	10000	3	1	0	3	0
28	2	1	10000	3	1	0	3	0
29	3	1	10000	3	1	0	3	0
30	4	1	10000	3	1	0	3	0
30	5	1	10000	3	1	0	3	0
29	6	1	10000	3	1	0	3	0
27	7	1	10000	3	1	0	3	0
26	8	1	10000	3	1	0	3	0
27	9	1	10000	3	1	0	3	0
27	10	1	10000	3	1	0	3	0
26	11	1	10000	3	1	0	3	0
26	12	1	10000	3	1	0	3	0
27	13	1	10000	3	1	0	3	0
28	14	1	10000	3	1	0	3	0
28	15	1	10000	3	1	0	3	0
28	16	1	10000	3	1	0	3	0
29	17	1	10000	3	1	0	3	0
29	18	1	10000	3	1	0	3	0
27	19	1	10000	3	1	0	3	0
26	20	1	10000	3	1	0	3	0
26	21	1	10000	3	1	0	3	0
26	22	1	10000	3	1	0	3	0
28	23	1	10000	3	1	0	3	0
30	24	1	10000	3	1	0	3	0
33	25	1	10000	3	1	0	3	0
34	26	1	10000	3	1	0	3	0
33	27	1	10000	3	1	0	3	0
33	28	1	10000	3	1	0	3	0
33	29	1	10000	3	1	0	3	0
33	30	1	10000	3	1	0	3	0
32	31	1	10000	3	1	0	3	0
29	32	1	10000	3	1	0	3	0
31	33	1	10000	3	1	0	3	0
34	34	1	10000	3	1	0	3	0
35	35	1	10000	3	1	0	3	0
39	36	1	10000	3	1	0	3	0
42	37	1	10000	3	1	0	3	0
44	38	1	10000	3	1	0	3	0
44	39	1	10000	3	1	0	3	0
46	40	1	10000	3	1	0	3	0
47	41	1	10000	3	1	0	3	0
48	42	1	10000	3	1	0	3	0
50	43	1	10000	3	1	0	3	0
49	44	1	10000	3	1	0	3	0
47	45	1	10000	3	1	0	3	0
45	46	1	10000	3	1	0	3	0
43	47	1	10000	3	1	0	3	0
41	48	1	10000	3	1	0	3	0
41	49	1	10000	3	1	0	3	0
40	50	1	10000	3	1	0	3	0
40	51	1	10000	3	1	0	3	0
38	52	1	10000	3	1	0	3	0
38	53	1	10000	3	1	0	3	0
38	54	1	10000	3	1	0	3	0
39	55	1	10000	3	1	0	3	0
42	56	1	10000	3	1	0	3	0
44	57	1	10000	3	1	0	3	0
45	58	1	10000	3	1	0	3	0
46	59	1	10000	3	1	0	3	0
47	60	1	10000	3	1	0	3	0
48	61	1	10000	3	1	0	3	0
50	62	1	10000	3	1	0	3	0
51	63	1	10000	3	1	0	3	0
50	64	1	10000	3	1	0	3	0
50	65	1	10000	3	1	0	3	0
50	66	1	10000	3	1	0	3	0
48	67	1	10000	3	1	0	3	0
48	68	1	10000	3	1	0	3	0
50	69	1	10000	3	1	0	3	0
51	70	1	10000	3	1	0	3	0
50	71	1	10000	3	1	0	3	0
50	72	1	10000	3	1	0	3	0
49	73	1	10000	3	1	0	3	0
47	74	1	10000	3	1	0	3	0
46	75	1	10000	3	1	0	3	0
47	76	1	10000	3	1	0	3	0
47	77	1	10000	3	1	0	3	0
47	78	1	10000	3	1	0	3	0
46	79	1	10000	3	1	0	3	0
46	80	1	10000	3	1	0	3	0
47	81	1	10000	3	1	0	3	0
48	82	1	10000	3	1	0	3	0
46	83	1	10000	3	1	0	3	0
45	84	1	10000	3	1	0	3	0
45	85	1	10000	3	1	0	3	0
44	86	1	10000	3	1	0	3	0
43	87	1	10000	3	1	0	3	0
44	88	1	10000	3	1	0	3	0
45	89	1	10000	3	1	0	3	0
44	90	1	10000	3	1	0	3	0
43	91	1	10000	3	1	0	3	0
42	92	1	10000	3	1	0	3	0
41	93	1	10000	3	1	0	3	0
43	94	1	10000	3	1	0	3	0
43	95	1	10000	3	1	0	3	0
45	96	1	10000	3	1	0	3	0
44	97	1	10000	3	1	0	3	0
43	98	1	10000	3	1	0	3	0
40	99	1	10000	3	1	0	3	0
39	100	1	10000	3	1	0	3	0
38	101	1	10000	3	1	0	3	0
38	102	1	10000	3	1	0	3	0
40	103	1	10000	3	1	0	3	0
39	104	1	10000	3	1	0	3	0
38	105	1	10000	3	1	0	3	0
38	106	1	10000	3	1	0	3	0
36	107	1	10000	3	1	0	3	0
34	108	1	10000	3	1	0	3	0
34	109	1	10000	3	1	0	3	0
33	110	1	10000	3	1	0	3	0
32	111	1	10000	3	1	0	3	0
31	112	1	10000	3	1	0	3	0
31	113	1	10000	3	1	0	3	0
30	114	1	10000	3	1	0	3	0
31	115	1	10000	3	1	0	3	0
30	116	1	10000	3	1	0	3	0
33	117	1	10000	3	1	0	3	0
34	118	1	10000	3	1	0	3	0
32	119	1	10000	3	1	0	3	0
31	120	1	10000	3	1	0	3	0
30	121	1	10000	3	1	0	3	0
30	122	1	10000	3	1	0	3	0
29	123	1	10000	3	1	0	3	0
28	124	1	10000	3	1	0	3	0
27	125	1	10000	3	1	0	3	0
28	126	1	10000	3	1	0	3	0
27	127	1	10000	3	1	0	3	0
26	128	1	10000	3	1	0	3	0
27	129	1	10000	3	1	0	3	0
27	130	1	10000	3	1	0	3	0
25	131	1	10000	3	1	0	3	0
24	132	1	10000	3	1	0	3	0
24	133	1	10000	3	1	0	3	0
22	134	1	10000	3	1	0	3	0
22	135	1	10000	3	1	0	3	0
23	136	1	10000	3	1	0	3	0
23	137	1	10000	3	1	0	3	0
24	138	1	10000	3	1	0	3	0
24	139	1	10000	3	1	0	3	0
22	140	1	10000	3	1	0	3	0
23	141	1	10000	3	1	0	3	0
25	142	1	10000	3	1	0	3	0
24	143	1	10000	3	1	0	3	0
24	144	1	10000	3	1	0	3	0
25	145	1	10000	3	1	0	3	0
23	146	1	10000	3	1	0	3	0
25	147	1	10000	3	1	0	3	0
28	148	1	10000	3	1	0	3	0
30	149	1	10000	3	1	0	3	0
32	150	1	10000	3	1	0	3	0
31	151	1	10000	3	1	0	3	0
31	152	1	10000	3	1	0	3	0
30	153	1	10000	3	1	0	3	0
30	154	1	10000	3	1	0	3	0
30	155	1	10000	3	1	0	3	0
29	156	1	10000	3	1	0	3	0
30	157	1	10000	3	1	0	3	0
30	158	1	10000	3	1	0	3	0
27	159	1	10000	3	1	0	3	0
27	160	1	10000	3	1	0	3	0
30	161	1	10000	3	1	0	3	0
32	162	1	10000	3	1	0	3	0
32	163	1	10000	3	1	0	3	0
32	164	1	10000	3	1	0	3	0
31	165	1	10000	3	1	0	3	0
30	166	1	10000	3	1	0	3	0
28	167	1	10000	3	1	0	3	0
28	168	1	10000	3	1	0	3	0
28	169	1	10000	3	1	0	3	0
28	170	1	10000	3	1	0	3	0
27	171	1	10000	3	1	0	3	0
27	172	1	10000	3	1	0	3	0
27	173	1	10000	3	1	0	3	0
28	174	1	10000	3	1	0	3	0
30	175	1	10000	3	1	0	3	0
30	176	1	10000	3	1	0	3	0
29	177	1	10000	3	1	0	3	0
29	178	1	10000	3	1	0	3	0
27	179	1	10000	3	1	0	3	0
26	180	1	10000	3	1	0	3	0
26	181	1	10000	3	1	0	3	0
28	182	1	10000	3	1	0	3	0
27	183	1	10000	3	1	0	3	0
27	184	1	10000	3	1	0	3	0
27	185	1	10000	3	1	0	3	0
27	186	1	10000	3	1	0	3	0
29	187	1	10000	3	1	0	3	0
29	188	1	10000	3	1	0	3	0
30	189	1	10000	3	1	0	3	0
30	190	1	10000	3	1	0	3	0
30	191	1	10000	3	1	0	3	0
31	192	1	10000	3	1	0	3	0
32	193	1	10000	3	1	0	3	0
34	194	1	10000	3	1	0	3	0
33	195	1	10000	3	1	0	3	0
33	196	1	10000	3	1	0	3	0
33	197	1	10000	3	1	0	3	0
33	198	1	10000	3	1	0	3	0
30	199	1	10000	3	1	0	3	0
29	200	1	10000	3	1	0	3	0
29	201	1	10000	3	1	0	3	0
29	202	1	10000	3	1	0	3	0
28	203	1	10000	3	1	0	3	0
28	204	1	10000	3	1	0	3	0
27	205	1	10000	3	1	0	3	0
28	206	1	10000	3	1	0	3	0
27	207	1	10000	3	1	0	3	0
26	208	1	10000	3	1	0	3	0
28	209	1	10000	3	1	0	3	0
26	210	1	10000	3	1	0	3	0
26	211	1	10000	3	1	0	3	0
26	212	1	10000	3	1	0	3	0
24	213	1	10000	3	1	0	3	0
24	214	1	10000	3	1	0	3	0
24	215	1	10000	3	1	0	3	0
23	216	1	10000	3	1	0	3	0
23	217	1	10000	3	1	0	3	0
23	218	1	10000	3	1	0	3	0
20	219	1	10000	3	1	0	3	0
20	220	1	10000	3	1	0	3	0
22	221	1	10000	3	1	0	3	0
21	222	1	10000	3	1	0	3	0
22	223	1	10000	3	1	0	3	0
23	224	1	10000	3	1	0	3	0
22	225	1	10000	3	1	0	3	0
21	226	1	10000	3	1	0	3	0
20	227	1	10000	3	1	0	3	0
20	228	1	10000	3	1	0	3	0
22	229	1	10000	3	1	0	3	0
22	230	1	10000	3	1	0	3	0
20	231	1	10000	3	1	0	3	0
20	232	1	10000	3	1	0	3	0
19	233	1	10000	3	1	0	3	0
19	234	1	10000	3	1	0	3	0
19	235	1	10000	3	1	0	3	0
20	236	1	10000	3	1	0	3	0
20	237	1	10000	3	1	0	3	0
21	238	1	10000	3	1	0	3	0
18	239	1	10000	3	1	0	3	0
18	240	1	10000	3	1	0	3	0
18	241	1	10000	3	1	0	3	0
19	242	1	10000	3	1	0	3	0
18	243	1	10000	3	1	0	3	0
18	244	1	10000	3	1	0	3	0
19	245	1	10000	3	1	0	3	0
21	246	1	10000	3	1	0	3	0
25	247	1	10000	3	1	0	3	0
27	248	1	10000	3	1	0	3	0
30	249	1	10000	3	1	0	3	0
29	250	1	10000	3	1	0	3	0
29	251	1	10000	3	1	0	3	0
29	252	1	10000	3	1	0	3	0
31	253	1	10000	3	1	0	3	0
31	254	1	10000	3	1	0	3	0
30	255	1	10000	3	1	0	3	0
29	256	1	10000	3	1	0	3	0
29	257	1	10000	3	1	0	3	0
30	258	1	10000	3	1	0	3	0
27	259	1	10000	3	1	0	3	0
26	260	1	10000	3	1	0	3	0
27	261	1	10000	3	1	0	3	0
27	262	1	10000	3	1	0	3	0
29	263	1	10000	3	1	0	3	0
31	264	1	10000	3	1	0	3	0
34	265	1	10000	3	1	0	3	0
36	266	1	10000	3	1	0	3	0
36	267	1	10000	3	1	0	3	0
34	268	1	10000	3	1	0	3	0
34	269	1	10000	3	1	0	3	0
34	270	1	10000	3	1	0	3	0
32	271	1	10000	3	1	0	3	0
32	272	1	10000	3	1	0	3	0
32	273	1	10000	3	1	0	3	0
33	274	1	10000	3	1	0	3	0
32	275	1	10000	3	1	0	3	0
32	276	1	10000	3	1	0	3	0
32	277	1	10000	3	1	0	3	0
32	278	1	10000	3	1	0	3	0
29	279	1	10000	3	1	0	3	0
28	280	1	10000	3	1	0	3	0
27	281	1	10000	3	1	0	3	0
26	282	1	10000	3	1	0	3	0
25	283	1	10000	3	1	0	3	0
25	284	1	10000	3	1	0	3	0
28	285	1	10000	3	1	0	3	0
29	286	1	10000	3	1	0	3	0
28	287	1	10000	3	1	0	3	0
26	288	1	10000	3	1	0	3	0
27	289	1	10000	3	1	0	3	0
26	290	1	10000	3	1	0	3	0
25	291	1	10000	3	1	0	3	0
24	292	1	10000	3	1	0	3	0
24	293	1	10000	3	1	0	3	0
23	294	1	10000	3	1	0	3	0
24	295	1	10000	3	1	0	3	0
28	296	1	10000	3	1	0	3	0
30	297	1	10000	3	1	0	3	0
31	298	1	10000	3	1	0	3	0
30	299	1	10000	3	1	0	3	0
30	300	1	10000	3	1	0	3	0
32	301	1	10000	3	1	0	3	0
34	302	1	10000	3	1	0	3	0
35	303	1	10000	3	1	0	3	0
37	304	1	10000	3	1	0	3	0
38	305	1	10000	3	1	0	3	0
37	306	1	10000	3	1	0	3	0
34	307	1	10000	3	1	0	3	0
33	308	1	10000	3	1	0	3	0
36	309	1	10000	3	1	0	3	0
34	310	1	10000	3	1	0	3	0
33	311	1	10000	3	1	0	3	0
32	312	1	10000	3	1	0	3	0
32	313	1	10000	3	1	0	3	0
35	314	1	10000	3	1	0	3	0
35	315	1	10000	3	1	0	3	0
35	316	1	10000	3	1	0	3	0
36	317	1	10000	3	1	0	3	0
37	318	1	10000	3	1	0	3	0
35	319	1	10000	3	1	0	3	0
38	320	1	10000	3	1	0	3	0
39	321	1	10000	3	1	0	3	0
42	322	1	10000	3	1	0	3	0
42	323	1	10000	3	1	0	3	0
41	324	1	10000	3	1	0	3	0
40	325	1	10000	3	1	0	3	0
38	326	1	10000	3	1	0	3	0
37	327	1	10000	3	1	0	3	0
41	328	1	10000	3	1	0	3	0
49	329	1	10000	3	1	0	3	0
58	330	1	10000	3	1	0	3	0
68	331	1	10000	3	1	0	3	0
67	332	1	10000	3	1	0	3	0
65	333	1	10000	3	1	0	3	0
76	334	1	10000	3	1	0	3	0
110	335	1	10000	3	1	0	3	0
118	336	1	10000	3	1	0	3	0
127	337	1	10000	3	1	0	3	0
126	338	1	10000	3	1	0	3	0
126	339	1	10000	3	1	0	3	0
142	340	1	10000	3	1	0	3	0
143	341	1	10000	3	1	0	3	0
146	342	1	10000	3	1	0	3	0
142	343	1	10000	3	1	0	3	0
136	344	1	10000	3	1	0	3	0
134	345	1	10000	3	1	0	3	0
131	346	1	10000	3	1	0	3	0
136	347	1	10000	3	1	0	3	0
138	348	1	10000	3	1	0	3	0
138	349	1	10000	3	1	0	3	0
141	350	1	10000	3	1	0	3	0
141	351	1	10000	3	1	0	3	0
143	352	1	10000	3	1	0	3	0
163	353	1	10000	3	1	0	3	0
166	354	1	10000	3	1	0	3	0
185	355	1	10000	3	1	0	3	0
187	356	1	10000	3	1	0	3	0
180	357	1	10000	3	1	0	3	0
175	358	1	10000	3	1	0	3	0
175	359	1	10000	3	1	0	3	0
178	360	1	10000	3	1	0	3	0
199	361	1	10000	3	1	0	3	0
212	362	1	10000	3	1	0	3	0
209	363	1	10000	3	1	0	3	0
205	364	1	10000	3	1	0	3	0
199	365	1	10000	3	1	0	3	0
199	366	1	10000	3	1	0	3	0
200	367	1	10000	3	1	0	3	0
192	368	1	10000	3	1	0	3	0
190	369	1	10000	3	1	0	3	0
184	370	1	10000	3	1	0	3	0
177	371	1	10000	3	1	0	3	0
182	372	1	10000	3	1	0	3	0
198	373	1	10000	3	1	0	3	0
212	374	1	10000	3	1	0	3	0
208	375	1	10000	3	1	0	3	0
205	376	1	10000	3	1	0	3	0
204	377	1	10000	3	1	0	3	0
203	378	1	10000	3	1	0	3	0
197	379	1	10000	3	1	0	3	0
194	380	1	10000	3	1	0	3	0
188	381	1	10000	3	1	0	3	0
185	382	1	10000	3	1	0	3	0
180	383	1	10000	3	1	0	3	0
183	384	1	10000	3	1	0	3	0
187	385	1	10000	3	1	0	3	0
182	386	1	10000	3	1	0	3	0
183	387	1	10000	3	1	0	3	0
193	388	1	10000	3	1	0	3	0
190	389	1	10000	3	1	0	3	0
183	390	1	10000	3	1	0	3	0
177	391	1	10000	3	1	0	3	0
176	392	1	10000	3	1	0	3	0
170	393	1	10000	3	1	0	3	0
167	394	1	10000	3	1	0	3	0
163	395	1	10000	3	1	0	3	0
160	396	1	10000	3	1	0	3	0
158	397	1	10000	3	1	0	3	0
155	398	1	10000	3	1	0	3	0
152	399	1	10000	3	1	0	3	0
147	400	1	10000	3	1	0	3	0
145	401	1	10000	3	1	0	3	0
143	402	1	10000	3	1	0	3	0
143	403	1	10000	3	1	0	3	0
144	404	1	10000	3	1	0	3	0
141	405	1	10000	3	1	0	3	0
138	406	1	10000	3	1	0	3	0
144	407	1	10000	3	1	0	3	0
155	408	1	10000	3	1	0	3	0
155	409	1	10000	3	1	0	3	0
150	410	1	10000	3	1	0	3	0
150	411	1	10000	3	1	0	3	0
153	412	1	10000	3	1	0	3	0
155	413	1	10000	3	1	0	3	0
156	414	1	10000	3	1	0	3	0
158	415	1	10000	3	1	0	3	0
159	416	1	10000	3	1	0	3	0
154	417	1	10000	3	1	0	3	0
147	418	1	10000	3	1	0	3	0
140	419	1	10000	3	1	0	3	0
137	420	1	10000	3	1	0	3	0
135	421	1	10000	3	1	0	3	0
132	422	1	10000	3	1	0	3	0
131	423	1	10000	3	1	0	3	0
130	424	1	10000	3	1	0	3	0
131	425	1	10000	3	1	0	3	0
132	426	1	10000	3	1	0	3	0
132	427	1	10000	3	1	0	3	0
129	428	1	10000	3	1	0	3	0
129	429	1	10000	3	1	0	3	0
129	430	1	10000	3	1	0	3	0
128	431	1	10000	3	1	0	3	0
125	432	1	10000	3	1	0	3	0
124	433	1	10000	3	1	0	3	0
122	434	1	10000	3	1	0	3	0
118	435	1	10000	3	1	0	3	0
116	436	1	10000	3	1	0	3	0
116	437	1	10000	3	1	0	3	0
115	438	1	10000	3	1	0	3	0
112	439	1	10000	3	1	0	3	0
110	440	1	10000	3	1	0	3	0
109	441	1	10000	3	1	0	3	0
109	442	1	10000	3	1	0	3	0
108	443	1	10000	3	1	0	3	0
107	444	1	10000	3	1	0	3	0
107	445	1	10000	3	1	0	3	0
106	446	1	10000	3	1	0	3	0
107	447	1	10000	3	1	0	3	0
112	448	1	10000	3	1	0	3	0
117	449	1	10000	3	1	0	3	0
118	450	1	10000	3	1	0	3	0
118	451	1	10000	3	1	0	3	0
117	452	1	10000	3	1	0	3	0
116	453	1	10000	3	1	0	3	0
115	454	1	10000	3	1	0	3	0
113	455	1	10000	3	1	0	3	0
110	456	1	10000	3	1	0	3	0
106	457	1	10000	3	1	0	3	0
103	458	1	10000	3	1	0	3	0
97	459	1	10000	3	1	0	3	0
95	460	1	10000	3	1	0	3	0
94	461	1	10000	3	1	0	3	0
93	462	1	10000	3	1	0	3	0
95	463	1	10000	3	1	0	3	0
98	464	1	10000	3	1	0	3	0
99	465	1	10000	3	1	0	3	0
100	466	1	10000	3	1	0	3	0
103	467	1	10000	3	1	0	3	0
103	468	1	10000	3	1	0	3	0
106	469	1	10000	3	1	0	3	0
105	470	1	10000	3	1	0	3	0
101	471	1	10000	3	1	0	3	0
97	472	1	10000	3	1	0	3	0
95	473	1	10000	3	1	0	3	0
91	474	1	10000	3	1	0	3	0
87	475	1	10000	3	1	0	3	0
87	476	1	10000	3	1	0	3	0
86	477	1	10000	3	1	0	3	0
83	478	1	10000	3	1	0	3	0
79	479	1	10000	3	1	0	3	0
76	480	1	10000	3	1	0	3	0
75	481	1	10000	3	1	0	3	0
74	482	1	10000	3	1	0	3	0
73	483	1	10000	3	1	0	3	0
73	484	1	10000	3	1	0	3	0
72	485	1	10000	3	1	0	3	0
70	486	1	10000	3	1	0	3	0
70	487	1	10000	3	1	0	3	0
68	488	1	10000	3	1	0	3	0
70	489	1	10000	3	1	0	3	0
69	490	1	10000	3	1	0	3	0
69	491	1	10000	3	1	0	3	0
67	492	1	10000	3	1	0	3	0
64	493	1	10000	3	1	0	3	0
63	494	1	10000	3	1	0	3	0
64	495	1	10000	3	1	0	3	0
65	496	1	10000	3	1	0	3	0
68	497	1	10000	3	1	0	3	0
71	498	1	10000	3	1	0	3	0
70	499	1	10000	3	1	0	3	0
74	500	1	10000	3	1	0	3	0
76	501	1	10000	3	1	0	3	1
78	502	1	10000	3	1	0	3	1
80	503	1	10000	3	1	0	3	1
80	504	1	10000	3	1	0	3	1
80	505	1	10000	3	1	0	3	1
80	506	1	10000	3	1	0	3	1
80	507	1	10000	3	1	0	3	1
79	508	1	10000	3	1	0	3	1
81	509	1	10000	3	1	0	3	1
80	510	1	10000	3	1	0	3	1
78	511	1	10000	3	1	0	3	1
75	512	1	10000	3	1	0	3	1
73	513	1	10000	3	1	0	3	1
74	514	1	10000	3	1	0	3	1
74	515	1	10000	3	1	0	3	1
73	516	1	10000	3	1	0	3	1
73	517	1	10000	3	1	0	3	1
71	518	1	10000	3	1	0	3	1
68	519	1	10000	3	1	0	3	1
67	520	1	10000	3	1	0	3	1
64	521	1	10000	3	1	0	3	1
63	522	1	10000	3	1	0	3	1
63	523	1	10000	3	1	0	3	1
61	524	1	10000	3	1	0	3	1
61	525	1	10000	3	1	0	3	1
62	526	1	10000	3	1	0	3	1
62	527	1	10000	3	1	0	3	1
61	528	1	10000	3	1	0	3	1
62	529	1	10000	3	1	0	3	1
59	530	1	10000	3	1	0	3	1
58	531	1	10000	3	1	0	3	1
57	532	1	10000	3	1	0	3	1
55	533	1	10000	3	1	0	3	1
54	534	1	10000	3	1	0	3	1
52	535	1	10000	3	1	0	3	1
51	536	1	10000	3	1	0	3	1
50	537	1	10000	3	1	0	3	1
50	538	1	10000	3	1	0	3	1
48	539	1	10000	3	1	0	3	1
47	540	1	10000	3	1	0	3	1
45	541	1	10000	3	1	0	3	1
44	542	1	10000	3	1	0	3	1
44	543	1	10000	3	1	0	3	1
44	544	1	10000	3	1	0	3	1
42	545	1	10000	3	1	0	3	1
42	546	1	10000	3	1	0	3	1
40	547	1	10000	3	1	0	3	1
38	548	1	10000	3	1	0	3	1
39	549	1	10000	3	1	0	3	1
38	550	1	10000	3	1	0	3	1
37	551	1	10000	3	1	0	3	0
37	552	1	10000	3	1	0	3	0
36	553	1	10000	3	1	0	3	0
36	554	1	10000	3	1	0	3	0
36	555	1	10000	3	1	0	3	0
35	556	1	10000	3	1	0	3	0
33	557	1	10000	3	1	0	3	0
34	558	1	10000	3	1	0	3	0
32	559	1	10000	3	1	0	3	0
31	560	1	10000	3	1	0	3	0
32	561	1	10000	3	1	0	3	0
31	562	1	10000	3	1	0	3	0
30	563	1	10000	3	1	0	3	0
29	564	1	10000	3	1	0	3	0
28	565	1	10000	3	1	0	3	0
27	566	1	10000	3	1	0	3	0
27	567	1	10000	3	1	0	3	0
28	568	1	10000	3	1	0	3	0
29	569	1	10000	3	1	0	3	0
29	570	1	10000	3	1	0	3	0
28	571	1	10000	3	1	0	3	0
31	572	1	10000	3	1	0	3	0
34	573	1	10000	3	1	0	3	0
37	574	1	10000	3	1	0	3	0
42	575	1	10000	3	1	0	3	0
46	576	1	10000	3	1	0	3	0
45	577	1	10000	3	1	0	3	0
45	578	1	10000	3	1	0	3	0
43	579	1	10000	3	1	0	3	0
41	580	1	10000	3	1	0	3	0
40	581	1	10000	3	1	0	3	0
41	582	1	10000	3	1	0	3	0
45	583	1	10000	3	1	0	3	0
44	584	1	10000	3	1	0	3	0
46	585	1	10000	3	1	0	3	0
44	586	1	10000	3	1	0	3	0
44	587	1	10000	3	1	0	3	0
50	588	1	10000	3	1	0	3	0
66	589	1	10000	3	1	0	3	0
82	590	1	10000	3	1	0	3	0
86	591	1	10000	3	1	0	3	0
94	592	1	10000	3	1	0	3	0
104	593	1	10000	3	1	0	3	0
104	594	1	10000	3	1	0	3	0
112	595	1	10000	3	1	0	3	0
138	596	1	10000	3	1	0	3	0
177	597	1	10000	3	1	0	3	0
193	598	1	10000	3	1	0	3	0
187	599	1	10000	3	1	0	3	0
188	600	1	10000	3	1	0	3	0
193	601	1	10000	3	1	0	3	0
202	602	1	10000	3	1	0	3	0
204	603	1	10000	3	1	0	3	0
228	604	1	10000	3	1	0	3	0
245	605	1	10000	3	1	0	3	0
276	606	1	10000	3	1	0	3	0
308	607	1	10000	3	1	0	3	0
306	608	1	10000	3	1	0	3	0
328	609	1	10000	3	1	0	3	0
373	610	1	10000	3	1	0	3	0
399	611	1	10000	3	1	0	3	0
412	612	1	10000	3	1	0	3	0
404	613	1	10000	3	1	0	3	0
420	614	1	10000	3	1	0	3	0
422	615	1	10000	3	1	0	3	0
414	616	1	10000	3	1	0	3	0
429	617	1	10000	3	1	0	3	0
458	618	1	10000	3	1	0	3	0
483	619	1	10000	3	1	0	3	0
486	620	1	10000	3	1	0	3	0
520	621	1	10000	3	1	0	3	0
551	622	1	10000	3	1	0	3	0
555	623	1	10000	3	1	0	3	0
534	624	1	10000	3	1	0	3	0
526	625	1	10000	3	1	0	3	0
541	626	1	10000	3	1	0	3	0
566	627	1	10000	3	1	0	3	0
586	628	1	10000	3	1	0	3	0
594	629	1	10000	3	1	0	3	0
585	630	1	10000	3	1	0	3	0
570	631	1	10000	3	1	0	3	0
556	632	1	10000	3	1	0	3	0
540	633	1	10000	3	1	0	3	0
517	634	1	10000	3	1	0	3	0
494	635	1	10000	3	1	0	3	0
473	636	1	10000	3	1	0	3	0
456	637	1	10000	3	1	0	3	0
439	638	1	10000	3	1	0	3	0
423	639	1	10000	3	1	0	3	0
411	640	1	10000	3	1	0	3	0
398	641	1	10000	3	1	0	3	0
386	642	1	10000	3	1	0	3	0
372	643	1	10000	3	1	0	3	0
357	644	1	10000	3	1	0	3	0
345	645	1	10000	3	1	0	3	0
331	646	1	10000	3	1	0	3	0
316	647	1	10000	3	1	0	3	0
302	648	1	10000	3	1	0	3	0
292	649	1	10000	3	1	0	3	0
283	650	1	10000	3	1	0	3	0
279	651	1	10000	3	1	0	3	0
277	652	1	10000	3	1	0	3	0
274	653	1	10000	3	1	0	3	0
269	654	1	10000	3	1	0	3	0
260	655	1	10000	3	1	0	3	0
248	656	1	10000	3	1	0	3	0
239	657	1	10000	3	1	0	3	0
234	658	1	10000	3	1	0	3	0
227	659	1	10000	3	1	0	3	0
224	660	1	10000	3	1	0	3	0
222	661	1	10000	3	1	0	3	0
218	662	1	10000	3	1	0	3	0
213	663	1	10000	3	1	0	3	0
205	664	1	10000	3	1	0	3	0
197	665	1	10000	3	1	0	3	0
187	666	1	10000	3	1	0	3	0
180	667	1	10000	3	1	0	3	0
173	668	1	10000	3	1	0	3	0
172	669	1	10000	3	1	0	3	0
171	670	1	10000	3	1	0	3	0
170	671	1	10000	3	1	0	3	0
168	672	1	10000	3	1	0	3	0
167	673	1	10000	3	1	0	3	0
165	674	1	10000	3	1	0	3	0
167	675	1	10000	3	1	0	3	0
169	676	1	10000	3	1	0	3	0
172	677	1	10000	3	1	0	3	0
176	678	1	10000	3	1	0	3	0
178	679	1	10000	3	1	0	3	0
183	680	1	10000	3	1	0	3	0
187	681	1	10000	3	1	0	3	0
188	682	1	10000	3	1	0	3	0
189	683	1	10000	3	1	0	3	0
191	684	1	10000	3	1	0	3	0
192	685	1	10000	3	1	0	3	0
192	686	1	10000	3	1	0	3	0
193	687	1	10000	3	1	0	3	0
192	688	1	10000	3	1	0	3	0
194	689	1	10000	3	1	0	3	0
195	690	1	10000	3	1	0	3	0
195	691	1	10000	3	1	0	3	0
194	692	1	10000	3	1	0	3	0
192	693	1	10000	3	1	0	3	0
188	694	1	10000	3	1	0	3	0
186	695	1	10000	3	1	0	3	0
185	696	1	10000	3	1	0	3	0
182	697	1	10000	3	1	0	3	0
180	698	1	10000	3	1	0	3	0
177	699	1	10000	3	1	0	3	0
175	700	1	10000	3	1	0	3	0
170	701	1	10000	3	1	0	3	0
164	702	1	10000	3	1	0	3	0
159	703	1	10000	3	1	0	3	0
158	704	1	10000	3	1	0	3	0
157	705	1	10000	3	1	0	3	0
161	706	1	10000	3	1	0	3	0
167	707	1	10000	3	1	0	3	0
176	708	1	10000	3	1	0	3	0
188	709	1	10000	3	1	0	3	0
198	710	1	10000	3	1	0	3	0
206	711	1	10000	3	1	0	3	0
213	712	1	10000	3	1	0	3	0
216	713	1	10000	3	1	0	3	0
217	714	1	10000	3	1	0	3	0
217	715	1	10000	3	1	0	3	0
216	716	1	10000	3	1	0	3	0
212	717	1	10000	3	1	0	3	0
210	718	1	10000	3	1	0	3	0
202	719	1	10000	3	1	0	3	0
196	720	1	10000	3	1	0	3	0
188	721	1	10000	3	1	0	3	0
181	722	1	10000	3	1	0	3	0
172	723	1	10000	3	1	0	3	0
164	724	1	10000	3	1	0	3	0
158	725	1	10000	3	1	0	3	0
150	726	1	10000	3	1	0	3	0
144	727	1	10000	3	1	0	3	0
140	728	1	10000	3	1	0	3	0
140	729	1	10000	3	1	0	3	0
139	730	1	10000	3	1	0	3	0
138	731	1	10000	3	1	0	3	0
134	732	1	10000	3	1	0	3	0
131	733	1	10000	3	1	0	3	0
128	734	1	10000	3	1	0	3	0
124	735	1	10000	3	1	0	3	0
121	736	1	10000	3	1	0	3	0
116	737	1	10000	3	1	0	3	0
112	738	1	10000	3	1	0	3	0
106	739	1	10000	3	1	0	3	0
101	740	1	10000	3	1	0	3	0
97	741	1	10000	3	1	0	3	0
93	742	1	10000	3	1	0	3	0
90	743	1	10000	3	1	0	3	0
87	744	1	10000	3	1	0	3	0
84	745	1	10000	3	1	0	3	0
81	746	1	10000	3	1	0	3	0
81	747	1	10000	3	1	0	3	0
79	748	1	10000	3	1	0	3	0
80	749	1	10000	3	1	0	3	0
79	750	1	10000	3	1	0	3	0
75	751	1	10000	3	1	0	3	0
73	752	1	10000	3	1	0	3	0
71	753	1	10000	3	1	0	3	0
69	754	1	10000	3	1	0	3	0
67	755	1	10000	3	1	0	3	0
67	756	1	10000	3	1	0	3	0
64	757	1	10000	3	1	0	3	0
62	758	1	10000	3	1	0	3	0
58	759	1	10000	3	1	0	3	0
56	760	1	10000	3	1	0	3	0
54	761	1	10000	3	1	0	3	0
53	762	1	10000	3	1	0	3	0
53	763	1	10000	3	1	0	3	0
52	764	1	10000	3	1	0	3	0
51	765	1	10000	3	1	0	3	0
48	766	1	10000	3	1	0	3	0
46	767	1	10000	3	1	0	3	0
45	768	1	10000	3	1	0	3	0
45	769	1	10000	3	1	0	3	0
44	770	1	10000	3	1	0	3	0
43	771	1	10000	3	1	0	3	0
42	772	1	10000	3	1	0	3	0
41	773	1	10000	3	1	0	3	0
40	774	1	10000	3	1	0	3	0
39	775	1	10000	3	1	0	3	0
40	776	1	10000	3	1	0	3	0
43	777	1	10000	3	1	0	3	0
43	778	1	10000	3	1	0	3	0
39	779	1	10000	3	1	0	3	0
39	780	1	10000	3	1	0	3	0
40	781	1	10000	3	1	0	3	0
41	782	1	10000	3	1	0	3	0
43	783	1	10000	3	1	0	3	0
44	784	1	10000	3	1	0	3	0
43	785	1	10000	3	1	0	3	0
41	786	1	10000	3	1	0	3	0
39	787	1	10000	3	1	0	3	0
38	788	1	10000	3	1	0	3	0
39	789	1	10000	3	1	0	3	0
39	790	1	10000	3	1	0	3	0
38	791	1	10000	3	1	0	3	0
36	792	1	10000	3	1	0	3	0
35	793	1	10000	3	1	0	3	0
35	794	1	10000	3	1	0	3	0
34	795	1	10000	3	1	0	3	0
35	796	1	10000	3	1	0	3	0
34	797	1	10000	3	1	0	3	0
35	798	1	10000	3	1	0	3	0
35	799	1	10000	3	1	0	3	0
37	800	1	10000	3	1	0	3	0
38	801	1	10000	3	1	0	3	0
36	802	1	10000	3	1	0	3	0
34	803	1	10000	3	1	0	3	0
34	804	1	10000	3	1	0	3	0
32	805	1	10000	3	1	0	3	0
34	806	1	10000	3	1	0	3	0
36	807	1	10000	3	1	0	3	0
36	808	1	10000	3	1	0	3	0
38	809	1	10000	3	1	0	3	0
40	810	1	10000	3	1	0	3	0
40	811	1	10000	3	1	0	3	0
41	812	1	10000	3	1	0	3	0
40	813	1	10000	3	1	0	3	0
38	814	1	10000	3	1	0	3	0
38	815	1	10000	3	1	0	3	0
38	816	1	10000	3	1	0	3	0
38	817	1	10000	3	1	0	3	0
39	818	1	10000	3	1	0	3	0
37	819	1	10000	3	1	0	3	0
37	820	1	10000	3	1	0	3	0
36	821	1	10000	3	1	0	3	0
36	822	1	10000	3	1	0	3	0
36	823	1	10000	3	1	0	3	0
35	824	1	10000	3	1	0	3	0
34	825	1	10000	3	1	0	3	0
32	826	1	10000	3	1	0	3	0
32	827	1	10000	3	1	0	3	0
31	828	1	10000	3	1	0	3	0
32	829	1	10000	3	1	0	3	0
32	830	1	10000	3	1	0	3	0
31	831	1	10000	3	1	0	3	0
29	832	1	10000	3	1	0	3	0
28	833	1	10000	3	1	0	3	0
27	834	1	10000	3	1	0	3	0
27	835	1	10000	3	1	0	3	0
29	836	1	10000	3	1	0	3	0
32	837	1	10000	3	1	0	3	0
34	838	1	10000	3	1	0	3	0
32	839	1	10000	3	1	0	3	0
32	840	1	10000	3	1	0	3	0
33	841	1	10000	3	1	0	3	0
34	842	1	10000	3	1	0	3	0
33	843	1	10000	3	1	0	3	0
32	844	1	10000	3	1	0	3	0
32	845	1	10000	3	1	0	3	0
30	846	1	10000	3	1	0	3	0
30	847	1	10000	3	1	0	3	0
30	848	1	10000	3	1	0	3	0
32	849	1	10000	3	1	0	3	0
31	850	1	10000	3	1	0	3	0
30	851	1	10000	3	1	0	3	0
29	852	1	10000	3	1	0	3	0
28	853	1	10000	3	1	0	3	0
27	854	1	10000	3	1	0	3	0
27	855	1	10000	3	1	0	3	0
30	856	1	10000	3	1	0	3	0
31	857	1	10000	3	1	0	3	0
30	858	1	10000	3	1	0	3	0
28	859	1	10000	3	1	0	3	0
29	860	1	10000	3	1	0	3	0
31	861	1	10000	3	1	0	3	0
31	862	1	10000	3	1	0	3	0
31	863	1	10000	3	1	0	3	0
32	864	1	10000	3	1	0	3	0
35	865	1	10000	3	1	0	3	0
37	866	1	10000	3	1	0	3	0
37	867	1	10000	3	1	0	3	0
37	868	1	10000	3	1	0	3	0
38	869	1	10000	3	1	0	3	0
38	870	1	10000	3	1	0	3	0
40	871	1	10000	3	1	0	3	0
39	872	1	10000	3	1	0	3	0
39	873	1	10000	3	1	0	3	0
39	874	1	10000	3	1	0	3	0
38	875	1	10000	3	1	0	3	0
41	876	1	10000	3	1	0	3	0
44	877	1	10000	3	1	0	3	0
45	878	1	10000	3	1	0	3	0
44	879	1	10000	3	1	0	3	0
43	880	1	10000	3	1	0	3	0
42	881	1	10000	3	1	0	3	0
41	882	1	10000	3	1	0	3	0
41	883	1	10000	3	1	0	3	0
39	884	1	10000	3	1	0	3	0
38	885	1	10000	3	1	0	3	0
37	886	1	10000	3	1	0	3	0
36	887	1	10000	3	1	0	3	0
34	888	1	10000	3	1	0	3	0
36	889	1	10000	3	1	0	3	0
35	890	1	10000	3	1	0	3	0
33	891	1	10000	3	1	0	3	0
33	892	1	10000	3	1	0	3	0
31	893	1	10000	3	1	0	3	0
31	894	1	10000	3	1	0	3	0
32	895	1	10000	3	1	0	3	0
32	896	1	10000	3	1	0	3	0
32	897	1	10000	3	1	0	3	0
32	898	1	10000	3	1	0	3	0
30	899	1	10000	3	1	0	3	0
28	900	1	10000	3	1	0	3	0
27	901	1	10000	3	1	0	3	0
28	902	1	10000	3	1	0	3	0
29	903	1	10000	3	1	0	3	0
30	904	1	10000	3	1	0	3	0
31	905	1	10000	3	1	0	3	0
31	906	1	10000	3	1	0	3	0
30	907	1	10000	3	1	0	3	0
28	908	1	10000	3	1	0	3	0
29	909	1	10000	3	1	0	3	0
29	910	1	10000	3	1	0	3	0
31	911	1	10000	3	1	0	3	0
32	912	1	10000	3	1	0	3	0
35	913	1	10000	3	1	0	3	0
34	914	1	10000	3	1	0	3	0
34	915	1	10000	3	1	0	3	0
34	916	1	10000	3	1	0	3	0
35	917	1	10000	3	1	0	3	0
37	918	1	10000	3	1	0	3	0
36	919	1	10000	3	1	0	3	0
38	920	1	10000	3	1	0	3	0
36	921	1	10000	3	1	0	3	0
35	922	1	10000	3	1	0	3	0
35	923	1	10000	3	1	0	3	0
34	924	1	10000	3	1	0	3	0
34	925	1	10000	3	1	0	3	0
33	926	1	10000	3	1	0	3	0
33	927	1	10000	3	1	0	3	0
34	928	1	10000	3	1	0	3	0
38	929	1	10000	3	1	0	3	0
40	930	1	10000	3	1	0	3	0
42	931	1	10000	3	1	0	3	0
41	932	1	10000	3	1	0	3	0
40	933	1	10000	3	1	0	3	0
38	934	1	10000	3	1	0	3	0
37	935	1	10000	3	1	0	3	0
37	936	1	10000	3	1	0	3	0
36	937	1	10000	3	1	0	3	0
36	938	1	10000	3	1	0	3	0
34	939	1	10000	3	1	0	3	0
37	940	1	10000	3	1	0	3	0
40	941	1	10000	3	1	0	3	0
43	942	1	10000	3	1	0	3	0
46	943	1	10000	3	1	0	3	0
49	944	1	10000	3	1	0	3	0
52	945	1	10000	3	1	0	3	0
56	946	1	10000	3	1	0	3	0
59	947	1	10000	3	1	0	3	0
62	948	1	10000	3	1	0	3	0
69	949	1	10000	3	1	0	3	0
76	950	1	10000	3	1	0	3	0
82	951	1	10000	3	1	0	3	0
86	952	1	10000	3	1	0	3	0
89	953	1	10000	3	1	0	3	0
94	954	1	10000	3	1	0	3	0
97	955	1	10000	3	1	0	3	0
99	956	1	10000	3	1	0	3	0
98	957	1	10000	3	1	0	3	0
98	958	1	10000	3	1	0	3	0
94	959	1	10000	3	1	0	3	0
92	960	1	10000	3	1	0	3	0
92	961	1	10000	3	1	0	3	0
91	962	1	10000	3	1	0	3	0
90	963	1	10000	3	1	0	3	0
89	964	1	10000	3	1	0	3	0
88	965	1	10000	3	1	0	3	0
83	966	1	10000	3	1	0	3	0
81	967	1	10000	3	1	0	3	0
78	968	1	10000	3	1	0	3	0
76	969	1	10000	3	1	0	3	0
73	970	1	10000	3	1	0	3	0
69	971	1	10000	3	1	0	3	0
66	972	1	10000	3	1	0	3	0
65	973	1	10000	3	1	0	3	0
66	974	1	10000	3	1	0	3	0
66	975	1	10000	3	1	0	3	0
66	976	1	10000	3	1	0	3	0
67	977	1	10000	3	1	0	3	0
65	978	1	10000	3	1	0	3	0
61	979	1	10000	3	1	0	3	0
59	980	1	10000	3	1	0	3	0
57	981	1	10000	3	1	0	3	0
58	982	1	10000	3	1	0	3	0
59	983	1	10000	3	1	0	3	0
59	984	1	10000	3	1	0	3	0
60	985	1	10000	3	1	0	3	0
62	986	1	10000	3	1	0	3	0
62	987	1	10000	3	1	0	3	0
65	988	1	10000	3	1	0	3	0
71	989	1	10000	3	1	0	3	0
76	990	1	10000	3	1	0	3	0
81	991	1	10000	3	1	0	3	0
85	992	1	10000	3	1	0	3	0
90	993	1	10000	3	1	0	3	0
98	994	1	10000	3	1	0	3	0
100	995	1	10000	3	1	0	3	0
100	996	1	10000	3	1	0	3	0
100	997	1	10000	3	1	0	3	0
99	998	1	10000	3	1	0	3	0
96	999	1	10000	3	1	0	3	0
96	1000	1	10000	3	1	0	3	0
18	1	0	10000	4	1	0	4	0
18	2	0	10000	4	1	0	4	0
16	3	0	10000	4	1	0	4	0
17	4	0	10000	4	1	0	4	0
17	5	0	10000	4	1	0	4	0
18	6	0	10000	4	1	0	4	0
20	7	0	10000	4	1	0	4	0
19	8	0	10000	4	1	0	4	0
19	9	0	10000	4	1	0	4	0
18	10	0	10000	4	1	0	4	0
19	11	0	10000	4	1	0	4	0
18	12	0	10000	4	1	0	4	0
20	13	0	10000	4	1	0	4	0
21	14	0	10000	4	1	0	4	0
21	15	0	10000	4	1	0	4	0
23	16	0	10000	4	1	0	4	0
22	17	0	10000	4	1	0	4	0
22	18	0	10000	4	1	0	4	0
21	19	0	10000	4	1	0	4	0
21	20	0	10000	4	1	0	4	0
20	21	0	10000	4	1	0	4	0
21	22	0	10000	4	1	0	4	0
19	23	0	10000	4	1	0	4	0
17	24	0	10000	4	1	0	4	0
18	25	0	10000	4	1	0	4	0
18	26	0	10000	4	1	0	4	0
19	27	0	10000	4	1	0	4	0
18	28	0	10000	4	1	0	4	0
19	29	0	10000	4	1	0	4	0
20	30	0	10000	4	1	0	4	0
20	31	0	10000	4	1	0	4	0
20	32	0	10000	4	1	0	4	0
19	33	0	10000	4	1	0	4	0
20	34	0	10000	4	1	0	4	0
20	35	0	10000	4	1	0	4	0
20	36	0	10000	4	1	0	4	0
19	37	0	10000	4	1	0	4	0
19	38	0	10000	4	1	0	4	0
19	39	0	10000	4	1	0	4	0
20	40	0	10000	4	1	0	4	0
20	41	0	10000	4	1	0	4	0
20	42	0	10000	4	1	0	4	0
20	43	0	10000	4	1	0	4	0
20	44	0	10000	4	1	0	4	0
20	45	0	10000	4	1	0	4	0
19	46	0	10000	4	1	0	4	0
19	47	0	10000	4	1	0	4	0
20	48	0	10000	4	1	0	4	0
21	49	0	10000	4	1	0	4	0
20	50	0	10000	4	1	0	4	0
19	51	0	10000	4	1	0	4	0
19	52	0	10000	4	1	0	4	0
19	53	0	10000	4	1	0	4	0
20	54	0	10000	4	1	0	4	0
19	55	0	10000	4	1	0	4	0
19	56	0	10000	4	1	0	4	0
20	57	0	10000	4	1	0	4	0
20	58	0	10000	4	1	0	4	0
21	59	0	10000	4	1	0	4	0
20	60	0	10000	4	1	0	4	0
20	61	0	10000	4	1	0	4	0
20	62	0	10000	4	1	0	4	0
20	63	0	10000	4	1	0	4	0
19	64	0	10000	4	1	0	4	0
19	65	0	10000	4	1	0	4	0
20	66	0	10000	4	1	0	4	0
21	67	0	10000	4	1	0	4	0
20	68	0	10000	4	1	0	4	0
20	69	0	10000	4	1	0	4	0
19	70	0	10000	4	1	0	4	0
20	71	0	10000	4	1	0	4	0
20	72	0	10000	4	1	0	4	0
20	73	0	10000	4	1	0	4	0
22	74	0	10000	4	1	0	4	0
22	75	0	10000	4	1	0	4	0
24	76	0	10000	4	1	0	4	0
25	77	0	10000	4	1	0	4	0
27	78	0	10000	4	1	0	4	0
29	79	0	10000	4	1	0	4	0
31	80	0	10000	4	1	0	4	0
31	81	0	10000	4	1	0	4	0
32	82	0	10000	4	1	0	4	0
31	83	0	10000	4	1	0	4	0
28	84	0	10000	4	1	0	4	0
28	85	0	10000	4	1	0	4	0
28	86	0	10000	4	1	0	4	0
27	87	0	10000	4	1	0	4	0
27	88	0	10000	4	1	0	4	0
26	89	0	10000	4	1	0	4	0
23	90	0	10000	4	1	0	4	0
23	91	0	10000	4	1	0	4	0
22	92	0	10000	4	1	0	4	0
23	93	0	10000	4	1	0	4	0
25	94	0	10000	4	1	0	4	0
24	95	0	10000	4	1	0	4	0
22	96	0	10000	4	1	0	4	0
23	97	0	10000	4	1	0	4	0
24	98	0	10000	4	1	0	4	0
23	99	0	10000	4	1	0	4	0
23	100	0	10000	4	1	0	4	0
23	101	0	10000	4	1	0	4	0
24	102	0	10000	4	1	0	4	0
23	103	0	10000	4	1	0	4	0
21	104	0	10000	4	1	0	4	0
22	105	0	10000	4	1	0	4	0
23	106	0	10000	4	1	0	4	0
22	107	0	10000	4	1	0	4	0
23	108	0	10000	4	1	0	4	0
22	109	0	10000	4	1	0	4	0
22	110	0	10000	4	1	0	4	0
20	111	0	10000	4	1	0	4	0
21	112	0	10000	4	1	0	4	0
22	113	0	10000	4	1	0	4	0
25	114	0	10000	4	1	0	4	0
24	115	0	10000	4	1	0	4	0
23	116	0	10000	4	1	0	4	0
23	117	0	10000	4	1	0	4	0
25	118	0	10000	4	1	0	4	0
24	119	0	10000	4	1	0	4	0
25	120	0	10000	4	1	0	4	0
28	121	0	10000	4	1	0	4	0
29	122	0	10000	4	1	0	4	0
28	123	0	10000	4	1	0	4	0
26	124	0	10000	4	1	0	4	0
27	125	0	10000	4	1	0	4	0
26	126	0	10000	4	1	0	4	0
26	127	0	10000	4	1	0	4	0
25	128	0	10000	4	1	0	4	0
26	129	0	10000	4	1	0	4	0
25	130	0	10000	4	1	0	4	0
24	131	0	10000	4	1	0	4	0
24	132	0	10000	4	1	0	4	0
23	133	0	10000	4	1	0	4	0
26	134	0	10000	4	1	0	4	0
26	135	0	10000	4	1	0	4	0
26	136	0	10000	4	1	0	4	0
24	137	0	10000	4	1	0	4	0
25	138	0	10000	4	1	0	4	0
24	139	0	10000	4	1	0	4	0
24	140	0	10000	4	1	0	4	0
24	141	0	10000	4	1	0	4	0
24	142	0	10000	4	1	0	4	0
23	143	0	10000	4	1	0	4	0
21	144	0	10000	4	1	0	4	0
22	145	0	10000	4	1	0	4	0
22	146	0	10000	4	1	0	4	0
22	147	0	10000	4	1	0	4	0
22	148	0	10000	4	1	0	4	0
22	149	0	10000	4	1	0	4	0
21	150	0	10000	4	1	0	4	0
20	151	0	10000	4	1	0	4	0
19	152	0	10000	4	1	0	4	0
20	153	0	10000	4	1	0	4	0
20	154	0	10000	4	1	0	4	0
20	155	0	10000	4	1	0	4	0
21	156	0	10000	4	1	0	4	0
20	157	0	10000	4	1	0	4	0
22	158	0	10000	4	1	0	4	0
23	159	0	10000	4	1	0	4	0
22	160	0	10000	4	1	0	4	0
22	161	0	10000	4	1	0	4	0
24	162	0	10000	4	1	0	4	0
22	163	0	10000	4	1	0	4	0
21	164	0	10000	4	1	0	4	0
23	165	0	10000	4	1	0	4	0
21	166	0	10000	4	1	0	4	0
21	167	0	10000	4	1	0	4	0
24	168	0	10000	4	1	0	4	0
23	169	0	10000	4	1	0	4	0
22	170	0	10000	4	1	0	4	0
23	171	0	10000	4	1	0	4	0
21	172	0	10000	4	1	0	4	0
22	173	0	10000	4	1	0	4	0
23	174	0	10000	4	1	0	4	0
22	175	0	10000	4	1	0	4	0
22	176	0	10000	4	1	0	4	0
22	177	0	10000	4	1	0	4	0
21	178	0	10000	4	1	0	4	0
20	179	0	10000	4	1	0	4	0
21	180	0	10000	4	1	0	4	0
20	181	0	10000	4	1	0	4	0
21	182	0	10000	4	1	0	4	0
20	183	0	10000	4	1	0	4	0
18	184	0	10000	4	1	0	4	0
18	185	0	10000	4	1	0	4	0
19	186	0	10000	4	1	0	4	0
20	187	0	10000	4	1	0	4	0
20	188	0	10000	4	1	0	4	0
20	189	0	10000	4	1	0	4	0
19	190	0	10000	4	1	0	4	0
19	191	0	10000	4	1	0	4	0
18	192	0	10000	4	1	0	4	0
18	193	0	10000	4	1	0	4	0
19	194	0	10000	4	1	0	4	0
18	195	0	10000	4	1	0	4	0
17	196	0	10000	4	1	0	4	0
17	197	0	10000	4	1	0	4	0
17	198	0	10000	4	1	0	4	0
16	199	0	10000	4	1	0	4	0
16	200	0	10000	4	1	0	4	0
17	201	0	10000	4	1	0	4	0
17	202	0	10000	4	1	0	4	0
16	203	0	10000	4	1	0	4	0
15	204	0	10000	4	1	0	4	0
18	205	0	10000	4	1	0	4	0
19	206	0	10000	4	1	0	4	0
19	207	0	10000	4	1	0	4	0
18	208	0	10000	4	1	0	4	0
17	209	0	10000	4	1	0	4	0
18	210	0	10000	4	1	0	4	0
17	211	0	10000	4	1	0	4	0
16	212	0	10000	4	1	0	4	0
17	213	0	10000	4	1	0	4	0
18	214	0	10000	4	1	0	4	0
16	215	0	10000	4	1	0	4	0
17	216	0	10000	4	1	0	4	0
18	217	0	10000	4	1	0	4	0
18	218	0	10000	4	1	0	4	0
18	219	0	10000	4	1	0	4	0
18	220	0	10000	4	1	0	4	0
18	221	0	10000	4	1	0	4	0
19	222	0	10000	4	1	0	4	0
17	223	0	10000	4	1	0	4	0
15	224	0	10000	4	1	0	4	0
17	225	0	10000	4	1	0	4	0
17	226	0	10000	4	1	0	4	0
18	227	0	10000	4	1	0	4	0
17	228	0	10000	4	1	0	4	0
17	229	0	10000	4	1	0	4	0
16	230	0	10000	4	1	0	4	0
16	231	0	10000	4	1	0	4	0
17	232	0	10000	4	1	0	4	0
19	233	0	10000	4	1	0	4	0
20	234	0	10000	4	1	0	4	0
19	235	0	10000	4	1	0	4	0
18	236	0	10000	4	1	0	4	0
17	237	0	10000	4	1	0	4	0
18	238	0	10000	4	1	0	4	0
17	239	0	10000	4	1	0	4	0
16	240	0	10000	4	1	0	4	0
17	241	0	10000	4	1	0	4	0
17	242	0	10000	4	1	0	4	0
16	243	0	10000	4	1	0	4	0
15	244	0	10000	4	1	0	4	0
16	245	0	10000	4	1	0	4	0
17	246	0	10000	4	1	0	4	0
18	247	0	10000	4	1	0	4	0
16	248	0	10000	4	1	0	4	0
16	249	0	10000	4	1	0	4	0
17	250	0	10000	4	1	0	4	0
16	251	0	10000	4	1	0	4	0
16	252	0	10000	4	1	0	4	0
19	253	0	10000	4	1	0	4	0
19	254	0	10000	4	1	0	4	0
19	255	0	10000	4	1	0	4	0
18	256	0	10000	4	1	0	4	0
17	257	0	10000	4	1	0	4	0
18	258	0	10000	4	1	0	4	0
17	259	0	10000	4	1	0	4	0
17	260	0	10000	4	1	0	4	0
17	261	0	10000	4	1	0	4	0
18	262	0	10000	4	1	0	4	0
17	263	0	10000	4	1	0	4	0
16	264	0	10000	4	1	0	4	0
16	265	0	10000	4	1	0	4	0
16	266	0	10000	4	1	0	4	0
15	267	0	10000	4	1	0	4	0
14	268	0	10000	4	1	0	4	0
15	269	0	10000	4	1	0	4	0
16	270	0	10000	4	1	0	4	0
17	271	0	10000	4	1	0	4	0
19	272	0	10000	4	1	0	4	0
20	273	0	10000	4	1	0	4	0
21	274	0	10000	4	1	0	4	0
20	275	0	10000	4	1	0	4	0
21	276	0	10000	4	1	0	4	0
20	277	0	10000	4	1	0	4	0
20	278	0	10000	4	1	0	4	0
19	279	0	10000	4	1	0	4	0
20	280	0	10000	4	1	0	4	0
20	281	0	10000	4	1	0	4	0
20	282	0	10000	4	1	0	4	0
19	283	0	10000	4	1	0	4	0
18	284	0	10000	4	1	0	4	0
18	285	0	10000	4	1	0	4	0
18	286	0	10000	4	1	0	4	0
18	287	0	10000	4	1	0	4	0
18	288	0	10000	4	1	0	4	0
18	289	0	10000	4	1	0	4	0
19	290	0	10000	4	1	0	4	0
20	291	0	10000	4	1	0	4	0
21	292	0	10000	4	1	0	4	0
22	293	0	10000	4	1	0	4	0
23	294	0	10000	4	1	0	4	0
22	295	0	10000	4	1	0	4	0
21	296	0	10000	4	1	0	4	0
20	297	0	10000	4	1	0	4	0
20	298	0	10000	4	1	0	4	0
19	299	0	10000	4	1	0	4	0
20	300	0	10000	4	1	0	4	0
20	301	0	10000	4	1	0	4	0
20	302	0	10000	4	1	0	4	0
18	303	0	10000	4	1	0	4	0
17	304	0	10000	4	1	0	4	0
17	305	0	10000	4	1	0	4	0
19	306	0	10000	4	1	0	4	0
19	307	0	10000	4	1	0	4	0
20	308	0	10000	4	1	0	4	0
21	309	0	10000	4	1	0	4	0
20	310	0	10000	4	1	0	4	0
20	311	0	10000	4	1	0	4	0
20	312	0	10000	4	1	0	4	0
19	313	0	10000	4	1	0	4	0
20	314	0	10000	4	1	0	4	0
20	315	0	10000	4	1	0	4	0
20	316	0	10000	4	1	0	4	0
21	317	0	10000	4	1	0	4	0
20	318	0	10000	4	1	0	4	0
20	319	0	10000	4	1	0	4	0
21	320	0	10000	4	1	0	4	0
20	321	0	10000	4	1	0	4	0
20	322	0	10000	4	1	0	4	0
20	323	0	10000	4	1	0	4	0
18	324	0	10000	4	1	0	4	0
18	325	0	10000	4	1	0	4	0
19	326	0	10000	4	1	0	4	0
18	327	0	10000	4	1	0	4	0
17	328	0	10000	4	1	0	4	0
19	329	0	10000	4	1	0	4	0
18	330	0	10000	4	1	0	4	0
18	331	0	10000	4	1	0	4	0
18	332	0	10000	4	1	0	4	0
18	333	0	10000	4	1	0	4	0
19	334	0	10000	4	1	0	4	0
18	335	0	10000	4	1	0	4	0
18	336	0	10000	4	1	0	4	0
19	337	0	10000	4	1	0	4	0
20	338	0	10000	4	1	0	4	0
20	339	0	10000	4	1	0	4	0
20	340	0	10000	4	1	0	4	0
21	341	0	10000	4	1	0	4	0
21	342	0	10000	4	1	0	4	0
20	343	0	10000	4	1	0	4	0
20	344	0	10000	4	1	0	4	0
19	345	0	10000	4	1	0	4	0
20	346	0	10000	4	1	0	4	0
21	347	0	10000	4	1	0	4	0
21	348	0	10000	4	1	0	4	0
20	349	0	10000	4	1	0	4	0
20	350	0	10000	4	1	0	4	0
20	351	0	10000	4	1	0	4	0
20	352	0	10000	4	1	0	4	0
21	353	0	10000	4	1	0	4	0
21	354	0	10000	4	1	0	4	0
20	355	0	10000	4	1	0	4	0
20	356	0	10000	4	1	0	4	0
20	357	0	10000	4	1	0	4	0
20	358	0	10000	4	1	0	4	0
19	359	0	10000	4	1	0	4	0
19	360	0	10000	4	1	0	4	0
18	361	0	10000	4	1	0	4	0
19	362	0	10000	4	1	0	4	0
19	363	0	10000	4	1	0	4	0
17	364	0	10000	4	1	0	4	0
18	365	0	10000	4	1	0	4	0
17	366	0	10000	4	1	0	4	0
18	367	0	10000	4	1	0	4	0
18	368	0	10000	4	1	0	4	0
18	369	0	10000	4	1	0	4	0
18	370	0	10000	4	1	0	4	0
17	371	0	10000	4	1	0	4	0
17	372	0	10000	4	1	0	4	0
18	373	0	10000	4	1	0	4	0
19	374	0	10000	4	1	0	4	0
20	375	0	10000	4	1	0	4	0
18	376	0	10000	4	1	0	4	0
19	377	0	10000	4	1	0	4	0
21	378	0	10000	4	1	0	4	0
20	379	0	10000	4	1	0	4	0
20	380	0	10000	4	1	0	4	0
20	381	0	10000	4	1	0	4	0
20	382	0	10000	4	1	0	4	0
19	383	0	10000	4	1	0	4	0
17	384	0	10000	4	1	0	4	0
17	385	0	10000	4	1	0	4	0
18	386	0	10000	4	1	0	4	0
18	387	0	10000	4	1	0	4	0
17	388	0	10000	4	1	0	4	0
18	389	0	10000	4	1	0	4	0
17	390	0	10000	4	1	0	4	0
17	391	0	10000	4	1	0	4	0
16	392	0	10000	4	1	0	4	0
17	393	0	10000	4	1	0	4	0
18	394	0	10000	4	1	0	4	0
19	395	0	10000	4	1	0	4	0
20	396	0	10000	4	1	0	4	0
20	397	0	10000	4	1	0	4	0
20	398	0	10000	4	1	0	4	0
19	399	0	10000	4	1	0	4	0
20	400	0	10000	4	1	0	4	0
22	401	0	10000	4	1	0	4	0
22	402	0	10000	4	1	0	4	0
21	403	0	10000	4	1	0	4	0
21	404	0	10000	4	1	0	4	0
23	405	0	10000	4	1	0	4	0
22	406	0	10000	4	1	0	4	0
22	407	0	10000	4	1	0	4	0
22	408	0	10000	4	1	0	4	0
21	409	0	10000	4	1	0	4	0
21	410	0	10000	4	1	0	4	0
21	411	0	10000	4	1	0	4	0
20	412	0	10000	4	1	0	4	0
20	413	0	10000	4	1	0	4	0
20	414	0	10000	4	1	0	4	0
19	415	0	10000	4	1	0	4	0
18	416	0	10000	4	1	0	4	0
18	417	0	10000	4	1	0	4	0
17	418	0	10000	4	1	0	4	0
18	419	0	10000	4	1	0	4	0
18	420	0	10000	4	1	0	4	0
17	421	0	10000	4	1	0	4	0
18	422	0	10000	4	1	0	4	0
17	423	0	10000	4	1	0	4	0
15	424	0	10000	4	1	0	4	0
17	425	0	10000	4	1	0	4	0
17	426	0	10000	4	1	0	4	0
17	427	0	10000	4	1	0	4	0
17	428	0	10000	4	1	0	4	0
16	429	0	10000	4	1	0	4	0
16	430	0	10000	4	1	0	4	0
15	431	0	10000	4	1	0	4	0
16	432	0	10000	4	1	0	4	0
18	433	0	10000	4	1	0	4	0
18	434	0	10000	4	1	0	4	0
17	435	0	10000	4	1	0	4	0
17	436	0	10000	4	1	0	4	0
16	437	0	10000	4	1	0	4	0
16	438	0	10000	4	1	0	4	0
16	439	0	10000	4	1	0	4	0
18	440	0	10000	4	1	0	4	0
18	441	0	10000	4	1	0	4	0
20	442	0	10000	4	1	0	4	0
19	443	0	10000	4	1	0	4	0
17	444	0	10000	4	1	0	4	0
17	445	0	10000	4	1	0	4	0
17	446	0	10000	4	1	0	4	0
17	447	0	10000	4	1	0	4	0
16	448	0	10000	4	1	0	4	0
17	449	0	10000	4	1	0	4	0
16	450	0	10000	4	1	0	4	0
16	451	0	10000	4	1	0	4	0
15	452	0	10000	4	1	0	4	0
16	453	0	10000	4	1	0	4	0
17	454	0	10000	4	1	0	4	0
17	455	0	10000	4	1	0	4	0
16	456	0	10000	4	1	0	4	0
18	457	0	10000	4	1	0	4	0
18	458	0	10000	4	1	0	4	0
18	459	0	10000	4	1	0	4	0
20	460	0	10000	4	1	0	4	0
21	461	0	10000	4	1	0	4	0
23	462	0	10000	4	1	0	4	0
22	463	0	10000	4	1	0	4	0
20	464	0	10000	4	1	0	4	0
21	465	0	10000	4	1	0	4	0
21	466	0	10000	4	1	0	4	0
22	467	0	10000	4	1	0	4	0
21	468	0	10000	4	1	0	4	0
21	469	0	10000	4	1	0	4	0
21	470	0	10000	4	1	0	4	0
21	471	0	10000	4	1	0	4	0
20	472	0	10000	4	1	0	4	0
20	473	0	10000	4	1	0	4	0
20	474	0	10000	4	1	0	4	0
20	475	0	10000	4	1	0	4	0
20	476	0	10000	4	1	0	4	0
18	477	0	10000	4	1	0	4	0
18	478	0	10000	4	1	0	4	0
17	479	0	10000	4	1	0	4	0
17	480	0	10000	4	1	0	4	0
18	481	0	10000	4	1	0	4	0
19	482	0	10000	4	1	0	4	0
20	483	0	10000	4	1	0	4	0
19	484	0	10000	4	1	0	4	0
20	485	0	10000	4	1	0	4	0
19	486	0	10000	4	1	0	4	0
20	487	0	10000	4	1	0	4	0
19	488	0	10000	4	1	0	4	0
19	489	0	10000	4	1	0	4	0
19	490	0	10000	4	1	0	4	0
18	491	0	10000	4	1	0	4	0
17	492	0	10000	4	1	0	4	0
18	493	0	10000	4	1	0	4	0
19	494	0	10000	4	1	0	4	0
18	495	0	10000	4	1	0	4	0
18	496	0	10000	4	1	0	4	0
17	497	0	10000	4	1	0	4	0
16	498	0	10000	4	1	0	4	0
16	499	0	10000	4	1	0	4	0
16	500	0	10000	4	1	0	4	0
17	501	0	10000	4	1	0	4	1
17	502	0	10000	4	1	0	4	1
16	503	0	10000	4	1	0	4	1
14	504	0	10000	4	1	0	4	1
15	505	0	10000	4	1	0	4	1
14	506	0	10000	4	1	0	4	1
16	507	0	10000	4	1	0	4	1
17	508	0	10000	4	1	0	4	1
16	509	0	10000	4	1	0	4	1
15	510	0	10000	4	1	0	4	1
15	511	0	10000	4	1	0	4	1
14	512	0	10000	4	1	0	4	1
15	513	0	10000	4	1	0	4	1
17	514	0	10000	4	1	0	4	1
17	515	0	10000	4	1	0	4	1
16	516	0	10000	4	1	0	4	1
15	517	0	10000	4	1	0	4	1
15	518	0	10000	4	1	0	4	1
15	519	0	10000	4	1	0	4	1
15	520	0	10000	4	1	0	4	1
14	521	0	10000	4	1	0	4	1
15	522	0	10000	4	1	0	4	1
16	523	0	10000	4	1	0	4	1
14	524	0	10000	4	1	0	4	1
14	525	0	10000	4	1	0	4	1
15	526	0	10000	4	1	0	4	1
16	527	0	10000	4	1	0	4	1
16	528	0	10000	4	1	0	4	1
15	529	0	10000	4	1	0	4	1
15	530	0	10000	4	1	0	4	1
14	531	0	10000	4	1	0	4	1
14	532	0	10000	4	1	0	4	1
14	533	0	10000	4	1	0	4	1
16	534	0	10000	4	1	0	4	1
18	535	0	10000	4	1	0	4	1
19	536	0	10000	4	1	0	4	1
20	537	0	10000	4	1	0	4	1
21	538	0	10000	4	1	0	4	1
20	539	0	10000	4	1	0	4	1
20	540	0	10000	4	1	0	4	1
20	541	0	10000	4	1	0	4	1
20	542	0	10000	4	1	0	4	1
18	543	0	10000	4	1	0	4	1
17	544	0	10000	4	1	0	4	1
19	545	0	10000	4	1	0	4	1
20	546	0	10000	4	1	0	4	1
20	547	0	10000	4	1	0	4	1
19	548	0	10000	4	1	0	4	1
20	549	0	10000	4	1	0	4	1
19	550	0	10000	4	1	0	4	1
20	551	0	10000	4	1	0	4	0
20	552	0	10000	4	1	0	4	0
21	553	0	10000	4	1	0	4	0
23	554	0	10000	4	1	0	4	0
23	555	0	10000	4	1	0	4	0
23	556	0	10000	4	1	0	4	0
23	557	0	10000	4	1	0	4	0
24	558	0	10000	4	1	0	4	0
25	559	0	10000	4	1	0	4	0
26	560	0	10000	4	1	0	4	0
27	561	0	10000	4	1	0	4	0
28	562	0	10000	4	1	0	4	0
26	563	0	10000	4	1	0	4	0
24	564	0	10000	4	1	0	4	0
24	565	0	10000	4	1	0	4	0
24	566	0	10000	4	1	0	4	0
24	567	0	10000	4	1	0	4	0
24	568	0	10000	4	1	0	4	0
25	569	0	10000	4	1	0	4	0
26	570	0	10000	4	1	0	4	0
27	571	0	10000	4	1	0	4	0
29	572	0	10000	4	1	0	4	0
29	573	0	10000	4	1	0	4	0
32	574	0	10000	4	1	0	4	0
32	575	0	10000	4	1	0	4	0
33	576	0	10000	4	1	0	4	0
33	577	0	10000	4	1	0	4	0
33	578	0	10000	4	1	0	4	0
32	579	0	10000	4	1	0	4	0
36	580	0	10000	4	1	0	4	0
44	581	0	10000	4	1	0	4	0
45	582	0	10000	4	1	0	4	0
46	583	0	10000	4	1	0	4	0
52	584	0	10000	4	1	0	4	0
51	585	0	10000	4	1	0	4	0
59	586	0	10000	4	1	0	4	0
87	587	0	10000	4	1	0	4	0
117	588	0	10000	4	1	0	4	0
167	589	0	10000	4	1	0	4	0
193	590	0	10000	4	1	0	4	0
195	591	0	10000	4	1	0	4	0
227	592	0	10000	4	1	0	4	0
270	593	0	10000	4	1	0	4	0
301	594	0	10000	4	1	0	4	0
382	595	0	10000	4	1	0	4	0
438	596	0	10000	4	1	0	4	0
441	597	0	10000	4	1	0	4	0
426	598	0	10000	4	1	0	4	0
468	599	0	10000	4	1	0	4	0
527	600	0	10000	4	1	0	4	0
520	601	0	10000	4	1	0	4	0
501	602	0	10000	4	1	0	4	0
508	603	0	10000	4	1	0	4	0
546	604	0	10000	4	1	0	4	0
577	605	0	10000	4	1	0	4	0
570	606	0	10000	4	1	0	4	0
552	607	0	10000	4	1	0	4	0
563	608	0	10000	4	1	0	4	0
620	609	0	10000	4	1	0	4	0
653	610	0	10000	4	1	0	4	0
646	611	0	10000	4	1	0	4	0
686	612	0	10000	4	1	0	4	0
720	613	0	10000	4	1	0	4	0
723	614	0	10000	4	1	0	4	0
723	615	0	10000	4	1	0	4	0
705	616	0	10000	4	1	0	4	0
694	617	0	10000	4	1	0	4	0
706	618	0	10000	4	1	0	4	0
681	619	0	10000	4	1	0	4	0
660	620	0	10000	4	1	0	4	0
670	621	0	10000	4	1	0	4	0
661	622	0	10000	4	1	0	4	0
661	623	0	10000	4	1	0	4	0
657	624	0	10000	4	1	0	4	0
633	625	0	10000	4	1	0	4	0
619	626	0	10000	4	1	0	4	0
601	627	0	10000	4	1	0	4	0
575	628	0	10000	4	1	0	4	0
553	629	0	10000	4	1	0	4	0
534	630	0	10000	4	1	0	4	0
512	631	0	10000	4	1	0	4	0
510	632	0	10000	4	1	0	4	0
570	633	0	10000	4	1	0	4	0
623	634	0	10000	4	1	0	4	0
662	635	0	10000	4	1	0	4	0
695	636	0	10000	4	1	0	4	0
675	637	0	10000	4	1	0	4	0
664	638	0	10000	4	1	0	4	0
680	639	0	10000	4	1	0	4	0
687	640	0	10000	4	1	0	4	0
665	641	0	10000	4	1	0	4	0
638	642	0	10000	4	1	0	4	0
619	643	0	10000	4	1	0	4	0
610	644	0	10000	4	1	0	4	0
600	645	0	10000	4	1	0	4	0
579	646	0	10000	4	1	0	4	0
554	647	0	10000	4	1	0	4	0
532	648	0	10000	4	1	0	4	0
513	649	0	10000	4	1	0	4	0
497	650	0	10000	4	1	0	4	0
485	651	0	10000	4	1	0	4	0
472	652	0	10000	4	1	0	4	0
463	653	0	10000	4	1	0	4	0
455	654	0	10000	4	1	0	4	0
442	655	0	10000	4	1	0	4	0
430	656	0	10000	4	1	0	4	0
417	657	0	10000	4	1	0	4	0
402	658	0	10000	4	1	0	4	0
392	659	0	10000	4	1	0	4	0
382	660	0	10000	4	1	0	4	0
371	661	0	10000	4	1	0	4	0
364	662	0	10000	4	1	0	4	0
353	663	0	10000	4	1	0	4	0
341	664	0	10000	4	1	0	4	0
333	665	0	10000	4	1	0	4	0
322	666	0	10000	4	1	0	4	0
320	667	0	10000	4	1	0	4	0
322	668	0	10000	4	1	0	4	0
327	669	0	10000	4	1	0	4	0
333	670	0	10000	4	1	0	4	0
337	671	0	10000	4	1	0	4	0
336	672	0	10000	4	1	0	4	0
331	673	0	10000	4	1	0	4	0
327	674	0	10000	4	1	0	4	0
322	675	0	10000	4	1	0	4	0
321	676	0	10000	4	1	0	4	0
320	677	0	10000	4	1	0	4	0
312	678	0	10000	4	1	0	4	0
302	679	0	10000	4	1	0	4	0
292	680	0	10000	4	1	0	4	0
283	681	0	10000	4	1	0	4	0
273	682	0	10000	4	1	0	4	0
264	683	0	10000	4	1	0	4	0
255	684	0	10000	4	1	0	4	0
249	685	0	10000	4	1	0	4	0
245	686	0	10000	4	1	0	4	0
242	687	0	10000	4	1	0	4	0
241	688	0	10000	4	1	0	4	0
242	689	0	10000	4	1	0	4	0
242	690	0	10000	4	1	0	4	0
243	691	0	10000	4	1	0	4	0
243	692	0	10000	4	1	0	4	0
246	693	0	10000	4	1	0	4	0
248	694	0	10000	4	1	0	4	0
247	695	0	10000	4	1	0	4	0
247	696	0	10000	4	1	0	4	0
244	697	0	10000	4	1	0	4	0
239	698	0	10000	4	1	0	4	0
233	699	0	10000	4	1	0	4	0
226	700	0	10000	4	1	0	4	0
219	701	0	10000	4	1	0	4	0
212	702	0	10000	4	1	0	4	0
205	703	0	10000	4	1	0	4	0
195	704	0	10000	4	1	0	4	0
190	705	0	10000	4	1	0	4	0
185	706	0	10000	4	1	0	4	0
181	707	0	10000	4	1	0	4	0
178	708	0	10000	4	1	0	4	0
178	709	0	10000	4	1	0	4	0
176	710	0	10000	4	1	0	4	0
175	711	0	10000	4	1	0	4	0
174	712	0	10000	4	1	0	4	0
172	713	0	10000	4	1	0	4	0
169	714	0	10000	4	1	0	4	0
162	715	0	10000	4	1	0	4	0
161	716	0	10000	4	1	0	4	0
166	717	0	10000	4	1	0	4	0
173	718	0	10000	4	1	0	4	0
185	719	0	10000	4	1	0	4	0
199	720	0	10000	4	1	0	4	0
214	721	0	10000	4	1	0	4	0
231	722	0	10000	4	1	0	4	0
247	723	0	10000	4	1	0	4	0
259	724	0	10000	4	1	0	4	0
272	725	0	10000	4	1	0	4	0
281	726	0	10000	4	1	0	4	0
287	727	0	10000	4	1	0	4	0
289	728	0	10000	4	1	0	4	0
290	729	0	10000	4	1	0	4	0
286	730	0	10000	4	1	0	4	0
277	731	0	10000	4	1	0	4	0
268	732	0	10000	4	1	0	4	0
258	733	0	10000	4	1	0	4	0
246	734	0	10000	4	1	0	4	0
235	735	0	10000	4	1	0	4	0
225	736	0	10000	4	1	0	4	0
214	737	0	10000	4	1	0	4	0
207	738	0	10000	4	1	0	4	0
200	739	0	10000	4	1	0	4	0
192	740	0	10000	4	1	0	4	0
189	741	0	10000	4	1	0	4	0
186	742	0	10000	4	1	0	4	0
181	743	0	10000	4	1	0	4	0
176	744	0	10000	4	1	0	4	0
173	745	0	10000	4	1	0	4	0
164	746	0	10000	4	1	0	4	0
157	747	0	10000	4	1	0	4	0
152	748	0	10000	4	1	0	4	0
144	749	0	10000	4	1	0	4	0
138	750	0	10000	4	1	0	4	0
133	751	0	10000	4	1	0	4	0
126	752	0	10000	4	1	0	4	0
121	753	0	10000	4	1	0	4	0
118	754	0	10000	4	1	0	4	0
112	755	0	10000	4	1	0	4	0
109	756	0	10000	4	1	0	4	0
106	757	0	10000	4	1	0	4	0
104	758	0	10000	4	1	0	4	0
103	759	0	10000	4	1	0	4	0
104	760	0	10000	4	1	0	4	0
103	761	0	10000	4	1	0	4	0
103	762	0	10000	4	1	0	4	0
102	763	0	10000	4	1	0	4	0
98	764	0	10000	4	1	0	4	0
95	765	0	10000	4	1	0	4	0
92	766	0	10000	4	1	0	4	0
89	767	0	10000	4	1	0	4	0
87	768	0	10000	4	1	0	4	0
84	769	0	10000	4	1	0	4	0
82	770	0	10000	4	1	0	4	0
82	771	0	10000	4	1	0	4	0
81	772	0	10000	4	1	0	4	0
83	773	0	10000	4	1	0	4	0
86	774	0	10000	4	1	0	4	0
85	775	0	10000	4	1	0	4	0
85	776	0	10000	4	1	0	4	0
82	777	0	10000	4	1	0	4	0
78	778	0	10000	4	1	0	4	0
75	779	0	10000	4	1	0	4	0
72	780	0	10000	4	1	0	4	0
71	781	0	10000	4	1	0	4	0
69	782	0	10000	4	1	0	4	0
66	783	0	10000	4	1	0	4	0
61	784	0	10000	4	1	0	4	0
61	785	0	10000	4	1	0	4	0
60	786	0	10000	4	1	0	4	0
59	787	0	10000	4	1	0	4	0
61	788	0	10000	4	1	0	4	0
62	789	0	10000	4	1	0	4	0
62	790	0	10000	4	1	0	4	0
63	791	0	10000	4	1	0	4	0
64	792	0	10000	4	1	0	4	0
66	793	0	10000	4	1	0	4	0
66	794	0	10000	4	1	0	4	0
65	795	0	10000	4	1	0	4	0
62	796	0	10000	4	1	0	4	0
60	797	0	10000	4	1	0	4	0
58	798	0	10000	4	1	0	4	0
55	799	0	10000	4	1	0	4	0
53	800	0	10000	4	1	0	4	0
52	801	0	10000	4	1	0	4	0
50	802	0	10000	4	1	0	4	0
48	803	0	10000	4	1	0	4	0
45	804	0	10000	4	1	0	4	0
46	805	0	10000	4	1	0	4	0
46	806	0	10000	4	1	0	4	0
45	807	0	10000	4	1	0	4	0
43	808	0	10000	4	1	0	4	0
42	809	0	10000	4	1	0	4	0
41	810	0	10000	4	1	0	4	0
41	811	0	10000	4	1	0	4	0
41	812	0	10000	4	1	0	4	0
43	813	0	10000	4	1	0	4	0
45	814	0	10000	4	1	0	4	0
45	815	0	10000	4	1	0	4	0
44	816	0	10000	4	1	0	4	0
43	817	0	10000	4	1	0	4	0
42	818	0	10000	4	1	0	4	0
40	819	0	10000	4	1	0	4	0
38	820	0	10000	4	1	0	4	0
39	821	0	10000	4	1	0	4	0
38	822	0	10000	4	1	0	4	0
36	823	0	10000	4	1	0	4	0
35	824	0	10000	4	1	0	4	0
35	825	0	10000	4	1	0	4	0
34	826	0	10000	4	1	0	4	0
35	827	0	10000	4	1	0	4	0
35	828	0	10000	4	1	0	4	0
39	829	0	10000	4	1	0	4	0
43	830	0	10000	4	1	0	4	0
43	831	0	10000	4	1	0	4	0
44	832	0	10000	4	1	0	4	0
46	833	0	10000	4	1	0	4	0
46	834	0	10000	4	1	0	4	0
45	835	0	10000	4	1	0	4	0
44	836	0	10000	4	1	0	4	0
42	837	0	10000	4	1	0	4	0
40	838	0	10000	4	1	0	4	0
39	839	0	10000	4	1	0	4	0
39	840	0	10000	4	1	0	4	0
39	841	0	10000	4	1	0	4	0
41	842	0	10000	4	1	0	4	0
41	843	0	10000	4	1	0	4	0
38	844	0	10000	4	1	0	4	0
38	845	0	10000	4	1	0	4	0
36	846	0	10000	4	1	0	4	0
35	847	0	10000	4	1	0	4	0
35	848	0	10000	4	1	0	4	0
34	849	0	10000	4	1	0	4	0
33	850	0	10000	4	1	0	4	0
36	851	0	10000	4	1	0	4	0
38	852	0	10000	4	1	0	4	0
40	853	0	10000	4	1	0	4	0
43	854	0	10000	4	1	0	4	0
42	855	0	10000	4	1	0	4	0
40	856	0	10000	4	1	0	4	0
39	857	0	10000	4	1	0	4	0
40	858	0	10000	4	1	0	4	0
40	859	0	10000	4	1	0	4	0
40	860	0	10000	4	1	0	4	0
40	861	0	10000	4	1	0	4	0
41	862	0	10000	4	1	0	4	0
39	863	0	10000	4	1	0	4	0
36	864	0	10000	4	1	0	4	0
35	865	0	10000	4	1	0	4	0
34	866	0	10000	4	1	0	4	0
34	867	0	10000	4	1	0	4	0
33	868	0	10000	4	1	0	4	0
32	869	0	10000	4	1	0	4	0
33	870	0	10000	4	1	0	4	0
33	871	0	10000	4	1	0	4	0
33	872	0	10000	4	1	0	4	0
33	873	0	10000	4	1	0	4	0
34	874	0	10000	4	1	0	4	0
33	875	0	10000	4	1	0	4	0
32	876	0	10000	4	1	0	4	0
31	877	0	10000	4	1	0	4	0
33	878	0	10000	4	1	0	4	0
34	879	0	10000	4	1	0	4	0
36	880	0	10000	4	1	0	4	0
36	881	0	10000	4	1	0	4	0
37	882	0	10000	4	1	0	4	0
36	883	0	10000	4	1	0	4	0
35	884	0	10000	4	1	0	4	0
37	885	0	10000	4	1	0	4	0
38	886	0	10000	4	1	0	4	0
39	887	0	10000	4	1	0	4	0
40	888	0	10000	4	1	0	4	0
41	889	0	10000	4	1	0	4	0
40	890	0	10000	4	1	0	4	0
41	891	0	10000	4	1	0	4	0
42	892	0	10000	4	1	0	4	0
43	893	0	10000	4	1	0	4	0
44	894	0	10000	4	1	0	4	0
44	895	0	10000	4	1	0	4	0
43	896	0	10000	4	1	0	4	0
44	897	0	10000	4	1	0	4	0
43	898	0	10000	4	1	0	4	0
43	899	0	10000	4	1	0	4	0
42	900	0	10000	4	1	0	4	0
42	901	0	10000	4	1	0	4	0
44	902	0	10000	4	1	0	4	0
44	903	0	10000	4	1	0	4	0
43	904	0	10000	4	1	0	4	0
44	905	0	10000	4	1	0	4	0
43	906	0	10000	4	1	0	4	0
43	907	0	10000	4	1	0	4	0
42	908	0	10000	4	1	0	4	0
44	909	0	10000	4	1	0	4	0
47	910	0	10000	4	1	0	4	0
49	911	0	10000	4	1	0	4	0
49	912	0	10000	4	1	0	4	0
49	913	0	10000	4	1	0	4	0
50	914	0	10000	4	1	0	4	0
48	915	0	10000	4	1	0	4	0
44	916	0	10000	4	1	0	4	0
44	917	0	10000	4	1	0	4	0
45	918	0	10000	4	1	0	4	0
44	919	0	10000	4	1	0	4	0
45	920	0	10000	4	1	0	4	0
48	921	0	10000	4	1	0	4	0
48	922	0	10000	4	1	0	4	0
46	923	0	10000	4	1	0	4	0
44	924	0	10000	4	1	0	4	0
44	925	0	10000	4	1	0	4	0
44	926	0	10000	4	1	0	4	0
43	927	0	10000	4	1	0	4	0
43	928	0	10000	4	1	0	4	0
41	929	0	10000	4	1	0	4	0
39	930	0	10000	4	1	0	4	0
37	931	0	10000	4	1	0	4	0
35	932	0	10000	4	1	0	4	0
36	933	0	10000	4	1	0	4	0
40	934	0	10000	4	1	0	4	0
42	935	0	10000	4	1	0	4	0
42	936	0	10000	4	1	0	4	0
42	937	0	10000	4	1	0	4	0
41	938	0	10000	4	1	0	4	0
42	939	0	10000	4	1	0	4	0
42	940	0	10000	4	1	0	4	0
42	941	0	10000	4	1	0	4	0
42	942	0	10000	4	1	0	4	0
41	943	0	10000	4	1	0	4	0
39	944	0	10000	4	1	0	4	0
38	945	0	10000	4	1	0	4	0
38	946	0	10000	4	1	0	4	0
37	947	0	10000	4	1	0	4	0
35	948	0	10000	4	1	0	4	0
35	949	0	10000	4	1	0	4	0
36	950	0	10000	4	1	0	4	0
35	951	0	10000	4	1	0	4	0
35	952	0	10000	4	1	0	4	0
34	953	0	10000	4	1	0	4	0
35	954	0	10000	4	1	0	4	0
34	955	0	10000	4	1	0	4	0
33	956	0	10000	4	1	0	4	0
32	957	0	10000	4	1	0	4	0
30	958	0	10000	4	1	0	4	0
29	959	0	10000	4	1	0	4	0
29	960	0	10000	4	1	0	4	0
29	961	0	10000	4	1	0	4	0
29	962	0	10000	4	1	0	4	0
27	963	0	10000	4	1	0	4	0
28	964	0	10000	4	1	0	4	0
28	965	0	10000	4	1	0	4	0
27	966	0	10000	4	1	0	4	0
26	967	0	10000	4	1	0	4	0
26	968	0	10000	4	1	0	4	0
27	969	0	10000	4	1	0	4	0
26	970	0	10000	4	1	0	4	0
26	971	0	10000	4	1	0	4	0
25	972	0	10000	4	1	0	4	0
25	973	0	10000	4	1	0	4	0
26	974	0	10000	4	1	0	4	0
24	975	0	10000	4	1	0	4	0
23	976	0	10000	4	1	0	4	0
23	977	0	10000	4	1	0	4	0
25	978	0	10000	4	1	0	4	0
25	979	0	10000	4	1	0	4	0
25	980	0	10000	4	1	0	4	0
25	981	0	10000	4	1	0	4	0
25	982	0	10000	4	1	0	4	0
24	983	0	10000	4	1	0	4	0
21	984	0	10000	4	1	0	4	0
22	985	0	10000	4	1	0	4	0
22	986	0	10000	4	1	0	4	0
22	987	0	10000	4	1	0	4	0
23	988	0	10000	4	1	0	4	0
25	989	0	10000	4	1	0	4	0
25	990	0	10000	4	1	0	4	0
24	991	0	10000	4	1	0	4	0
23	992	0	10000	4	1	0	4	0
23	993	0	10000	4	1	0	4	0
25	994	0	10000	4	1	0	4	0
24	995	0	10000	4	1	0	4	0
23	996	0	10000	4	1	0	4	0
24	997	0	10000	4	1	0	4	0
22	998	0	10000	4	1	0	4	0
23	999	0	10000	4	1	0	4	0
25	1000	0	10000	4	1	0	4	0
61	1	10	10000	5	1	0	5	0
57	2	10	10000	5	1	0	5	0
58	3	10	10000	5	1	0	5	0
55	4	10	10000	5	1	0	5	0
54	5	10	10000	5	1	0	5	0
53	6	10	10000	5	1	0	5	0
50	7	10	10000	5	1	0	5	0
49	8	10	10000	5	1	0	5	0
51	9	10	10000	5	1	0	5	0
51	10	10	10000	5	1	0	5	0
51	11	10	10000	5	1	0	5	0
52	12	10	10000	5	1	0	5	0
49	13	10	10000	5	1	0	5	0
47	14	10	10000	5	1	0	5	0
45	15	10	10000	5	1	0	5	0
44	16	10	10000	5	1	0	5	0
42	17	10	10000	5	1	0	5	0
41	18	10	10000	5	1	0	5	0
40	19	10	10000	5	1	0	5	0
39	20	10	10000	5	1	0	5	0
39	21	10	10000	5	1	0	5	0
35	22	10	10000	5	1	0	5	0
34	23	10	10000	5	1	0	5	0
35	24	10	10000	5	1	0	5	0
34	25	10	10000	5	1	0	5	0
33	26	10	10000	5	1	0	5	0
33	27	10	10000	5	1	0	5	0
31	28	10	10000	5	1	0	5	0
29	29	10	10000	5	1	0	5	0
28	30	10	10000	5	1	0	5	0
27	31	10	10000	5	1	0	5	0
28	32	10	10000	5	1	0	5	0
27	33	10	10000	5	1	0	5	0
26	34	10	10000	5	1	0	5	0
27	35	10	10000	5	1	0	5	0
28	36	10	10000	5	1	0	5	0
29	37	10	10000	5	1	0	5	0
32	38	10	10000	5	1	0	5	0
36	39	10	10000	5	1	0	5	0
37	40	10	10000	5	1	0	5	0
38	41	10	10000	5	1	0	5	0
36	42	10	10000	5	1	0	5	0
35	43	10	10000	5	1	0	5	0
35	44	10	10000	5	1	0	5	0
38	45	10	10000	5	1	0	5	0
39	46	10	10000	5	1	0	5	0
40	47	10	10000	5	1	0	5	0
43	48	10	10000	5	1	0	5	0
44	49	10	10000	5	1	0	5	0
44	50	10	10000	5	1	0	5	0
45	51	10	10000	5	1	0	5	0
46	52	10	10000	5	1	0	5	0
44	53	10	10000	5	1	0	5	0
43	54	10	10000	5	1	0	5	0
41	55	10	10000	5	1	0	5	0
40	56	10	10000	5	1	0	5	0
40	57	10	10000	5	1	0	5	0
39	58	10	10000	5	1	0	5	0
38	59	10	10000	5	1	0	5	0
38	60	10	10000	5	1	0	5	0
37	61	10	10000	5	1	0	5	0
35	62	10	10000	5	1	0	5	0
36	63	10	10000	5	1	0	5	0
36	64	10	10000	5	1	0	5	0
35	65	10	10000	5	1	0	5	0
35	66	10	10000	5	1	0	5	0
34	67	10	10000	5	1	0	5	0
33	68	10	10000	5	1	0	5	0
32	69	10	10000	5	1	0	5	0
30	70	10	10000	5	1	0	5	0
29	71	10	10000	5	1	0	5	0
30	72	10	10000	5	1	0	5	0
29	73	10	10000	5	1	0	5	0
27	74	10	10000	5	1	0	5	0
27	75	10	10000	5	1	0	5	0
27	76	10	10000	5	1	0	5	0
28	77	10	10000	5	1	0	5	0
28	78	10	10000	5	1	0	5	0
31	79	10	10000	5	1	0	5	0
32	80	10	10000	5	1	0	5	0
32	81	10	10000	5	1	0	5	0
30	82	10	10000	5	1	0	5	0
30	83	10	10000	5	1	0	5	0
30	84	10	10000	5	1	0	5	0
30	85	10	10000	5	1	0	5	0
30	86	10	10000	5	1	0	5	0
30	87	10	10000	5	1	0	5	0
30	88	10	10000	5	1	0	5	0
28	89	10	10000	5	1	0	5	0
28	90	10	10000	5	1	0	5	0
29	91	10	10000	5	1	0	5	0
29	92	10	10000	5	1	0	5	0
30	93	10	10000	5	1	0	5	0
29	94	10	10000	5	1	0	5	0
28	95	10	10000	5	1	0	5	0
26	96	10	10000	5	1	0	5	0
27	97	10	10000	5	1	0	5	0
26	98	10	10000	5	1	0	5	0
27	99	10	10000	5	1	0	5	0
29	100	10	10000	5	1	0	5	0
26	101	10	10000	5	1	0	5	0
25	102	10	10000	5	1	0	5	0
25	103	10	10000	5	1	0	5	0
24	104	10	10000	5	1	0	5	0
24	105	10	10000	5	1	0	5	0
25	106	10	10000	5	1	0	5	0
26	107	10	10000	5	1	0	5	0
27	108	10	10000	5	1	0	5	0
28	109	10	10000	5	1	0	5	0
29	110	10	10000	5	1	0	5	0
31	111	10	10000	5	1	0	5	0
32	112	10	10000	5	1	0	5	0
31	113	10	10000	5	1	0	5	0
30	114	10	10000	5	1	0	5	0
29	115	10	10000	5	1	0	5	0
28	116	10	10000	5	1	0	5	0
27	117	10	10000	5	1	0	5	0
26	118	10	10000	5	1	0	5	0
27	119	10	10000	5	1	0	5	0
26	120	10	10000	5	1	0	5	0
25	121	10	10000	5	1	0	5	0
22	122	10	10000	5	1	0	5	0
22	123	10	10000	5	1	0	5	0
22	124	10	10000	5	1	0	5	0
22	125	10	10000	5	1	0	5	0
21	126	10	10000	5	1	0	5	0
21	127	10	10000	5	1	0	5	0
20	128	10	10000	5	1	0	5	0
19	129	10	10000	5	1	0	5	0
20	130	10	10000	5	1	0	5	0
20	131	10	10000	5	1	0	5	0
22	132	10	10000	5	1	0	5	0
21	133	10	10000	5	1	0	5	0
20	134	10	10000	5	1	0	5	0
20	135	10	10000	5	1	0	5	0
20	136	10	10000	5	1	0	5	0
21	137	10	10000	5	1	0	5	0
21	138	10	10000	5	1	0	5	0
21	139	10	10000	5	1	0	5	0
21	140	10	10000	5	1	0	5	0
21	141	10	10000	5	1	0	5	0
20	142	10	10000	5	1	0	5	0
20	143	10	10000	5	1	0	5	0
20	144	10	10000	5	1	0	5	0
20	145	10	10000	5	1	0	5	0
22	146	10	10000	5	1	0	5	0
23	147	10	10000	5	1	0	5	0
24	148	10	10000	5	1	0	5	0
26	149	10	10000	5	1	0	5	0
26	150	10	10000	5	1	0	5	0
25	151	10	10000	5	1	0	5	0
27	152	10	10000	5	1	0	5	0
25	153	10	10000	5	1	0	5	0
24	154	10	10000	5	1	0	5	0
25	155	10	10000	5	1	0	5	0
25	156	10	10000	5	1	0	5	0
24	157	10	10000	5	1	0	5	0
24	158	10	10000	5	1	0	5	0
26	159	10	10000	5	1	0	5	0
27	160	10	10000	5	1	0	5	0
27	161	10	10000	5	1	0	5	0
25	162	10	10000	5	1	0	5	0
27	163	10	10000	5	1	0	5	0
29	164	10	10000	5	1	0	5	0
30	165	10	10000	5	1	0	5	0
29	166	10	10000	5	1	0	5	0
29	167	10	10000	5	1	0	5	0
27	168	10	10000	5	1	0	5	0
27	169	10	10000	5	1	0	5	0
26	170	10	10000	5	1	0	5	0
26	171	10	10000	5	1	0	5	0
28	172	10	10000	5	1	0	5	0
27	173	10	10000	5	1	0	5	0
26	174	10	10000	5	1	0	5	0
26	175	10	10000	5	1	0	5	0
25	176	10	10000	5	1	0	5	0
24	177	10	10000	5	1	0	5	0
23	178	10	10000	5	1	0	5	0
23	179	10	10000	5	1	0	5	0
23	180	10	10000	5	1	0	5	0
24	181	10	10000	5	1	0	5	0
25	182	10	10000	5	1	0	5	0
27	183	10	10000	5	1	0	5	0
26	184	10	10000	5	1	0	5	0
28	185	10	10000	5	1	0	5	0
27	186	10	10000	5	1	0	5	0
28	187	10	10000	5	1	0	5	0
30	188	10	10000	5	1	0	5	0
29	189	10	10000	5	1	0	5	0
29	190	10	10000	5	1	0	5	0
30	191	10	10000	5	1	0	5	0
31	192	10	10000	5	1	0	5	0
30	193	10	10000	5	1	0	5	0
30	194	10	10000	5	1	0	5	0
28	195	10	10000	5	1	0	5	0
28	196	10	10000	5	1	0	5	0
27	197	10	10000	5	1	0	5	0
27	198	10	10000	5	1	0	5	0
28	199	10	10000	5	1	0	5	0
30	200	10	10000	5	1	0	5	0
29	201	10	10000	5	1	0	5	0
27	202	10	10000	5	1	0	5	0
28	203	10	10000	5	1	0	5	0
28	204	10	10000	5	1	0	5	0
30	205	10	10000	5	1	0	5	0
32	206	10	10000	5	1	0	5	0
32	207	10	10000	5	1	0	5	0
31	208	10	10000	5	1	0	5	0
31	209	10	10000	5	1	0	5	0
30	210	10	10000	5	1	0	5	0
30	211	10	10000	5	1	0	5	0
32	212	10	10000	5	1	0	5	0
30	213	10	10000	5	1	0	5	0
28	214	10	10000	5	1	0	5	0
27	215	10	10000	5	1	0	5	0
26	216	10	10000	5	1	0	5	0
25	217	10	10000	5	1	0	5	0
24	218	10	10000	5	1	0	5	0
24	219	10	10000	5	1	0	5	0
24	220	10	10000	5	1	0	5	0
23	221	10	10000	5	1	0	5	0
21	222	10	10000	5	1	0	5	0
21	223	10	10000	5	1	0	5	0
21	224	10	10000	5	1	0	5	0
22	225	10	10000	5	1	0	5	0
22	226	10	10000	5	1	0	5	0
23	227	10	10000	5	1	0	5	0
22	228	10	10000	5	1	0	5	0
22	229	10	10000	5	1	0	5	0
20	230	10	10000	5	1	0	5	0
21	231	10	10000	5	1	0	5	0
22	232	10	10000	5	1	0	5	0
23	233	10	10000	5	1	0	5	0
23	234	10	10000	5	1	0	5	0
24	235	10	10000	5	1	0	5	0
25	236	10	10000	5	1	0	5	0
24	237	10	10000	5	1	0	5	0
23	238	10	10000	5	1	0	5	0
24	239	10	10000	5	1	0	5	0
25	240	10	10000	5	1	0	5	0
25	241	10	10000	5	1	0	5	0
25	242	10	10000	5	1	0	5	0
26	243	10	10000	5	1	0	5	0
25	244	10	10000	5	1	0	5	0
26	245	10	10000	5	1	0	5	0
25	246	10	10000	5	1	0	5	0
24	247	10	10000	5	1	0	5	0
24	248	10	10000	5	1	0	5	0
24	249	10	10000	5	1	0	5	0
22	250	10	10000	5	1	0	5	0
24	251	10	10000	5	1	0	5	0
25	252	10	10000	5	1	0	5	0
25	253	10	10000	5	1	0	5	0
24	254	10	10000	5	1	0	5	0
24	255	10	10000	5	1	0	5	0
24	256	10	10000	5	1	0	5	0
23	257	10	10000	5	1	0	5	0
23	258	10	10000	5	1	0	5	0
23	259	10	10000	5	1	0	5	0
24	260	10	10000	5	1	0	5	0
22	261	10	10000	5	1	0	5	0
20	262	10	10000	5	1	0	5	0
20	263	10	10000	5	1	0	5	0
21	264	10	10000	5	1	0	5	0
21	265	10	10000	5	1	0	5	0
21	266	10	10000	5	1	0	5	0
21	267	10	10000	5	1	0	5	0
20	268	10	10000	5	1	0	5	0
19	269	10	10000	5	1	0	5	0
18	270	10	10000	5	1	0	5	0
19	271	10	10000	5	1	0	5	0
21	272	10	10000	5	1	0	5	0
20	273	10	10000	5	1	0	5	0
20	274	10	10000	5	1	0	5	0
20	275	10	10000	5	1	0	5	0
22	276	10	10000	5	1	0	5	0
20	277	10	10000	5	1	0	5	0
21	278	10	10000	5	1	0	5	0
21	279	10	10000	5	1	0	5	0
20	280	10	10000	5	1	0	5	0
20	281	10	10000	5	1	0	5	0
18	282	10	10000	5	1	0	5	0
20	283	10	10000	5	1	0	5	0
25	284	10	10000	5	1	0	5	0
30	285	10	10000	5	1	0	5	0
34	286	10	10000	5	1	0	5	0
38	287	10	10000	5	1	0	5	0
40	288	10	10000	5	1	0	5	0
40	289	10	10000	5	1	0	5	0
41	290	10	10000	5	1	0	5	0
42	291	10	10000	5	1	0	5	0
42	292	10	10000	5	1	0	5	0
42	293	10	10000	5	1	0	5	0
42	294	10	10000	5	1	0	5	0
41	295	10	10000	5	1	0	5	0
42	296	10	10000	5	1	0	5	0
43	297	10	10000	5	1	0	5	0
43	298	10	10000	5	1	0	5	0
45	299	10	10000	5	1	0	5	0
47	300	10	10000	5	1	0	5	0
47	301	10	10000	5	1	0	5	0
45	302	10	10000	5	1	0	5	0
46	303	10	10000	5	1	0	5	0
44	304	10	10000	5	1	0	5	0
43	305	10	10000	5	1	0	5	0
41	306	10	10000	5	1	0	5	0
40	307	10	10000	5	1	0	5	0
41	308	10	10000	5	1	0	5	0
40	309	10	10000	5	1	0	5	0
40	310	10	10000	5	1	0	5	0
38	311	10	10000	5	1	0	5	0
39	312	10	10000	5	1	0	5	0
38	313	10	10000	5	1	0	5	0
37	314	10	10000	5	1	0	5	0
35	315	10	10000	5	1	0	5	0
34	316	10	10000	5	1	0	5	0
34	317	10	10000	5	1	0	5	0
36	318	10	10000	5	1	0	5	0
39	319	10	10000	5	1	0	5	0
41	320	10	10000	5	1	0	5	0
44	321	10	10000	5	1	0	5	0
46	322	10	10000	5	1	0	5	0
50	323	10	10000	5	1	0	5	0
53	324	10	10000	5	1	0	5	0
55	325	10	10000	5	1	0	5	0
55	326	10	10000	5	1	0	5	0
55	327	10	10000	5	1	0	5	0
57	328	10	10000	5	1	0	5	0
56	329	10	10000	5	1	0	5	0
56	330	10	10000	5	1	0	5	0
57	331	10	10000	5	1	0	5	0
60	332	10	10000	5	1	0	5	0
63	333	10	10000	5	1	0	5	0
64	334	10	10000	5	1	0	5	0
65	335	10	10000	5	1	0	5	0
65	336	10	10000	5	1	0	5	0
65	337	10	10000	5	1	0	5	0
63	338	10	10000	5	1	0	5	0
61	339	10	10000	5	1	0	5	0
61	340	10	10000	5	1	0	5	0
59	341	10	10000	5	1	0	5	0
55	342	10	10000	5	1	0	5	0
54	343	10	10000	5	1	0	5	0
53	344	10	10000	5	1	0	5	0
51	345	10	10000	5	1	0	5	0
50	346	10	10000	5	1	0	5	0
49	347	10	10000	5	1	0	5	0
47	348	10	10000	5	1	0	5	0
45	349	10	10000	5	1	0	5	0
46	350	10	10000	5	1	0	5	0
46	351	10	10000	5	1	0	5	0
48	352	10	10000	5	1	0	5	0
49	353	10	10000	5	1	0	5	0
48	354	10	10000	5	1	0	5	0
47	355	10	10000	5	1	0	5	0
46	356	10	10000	5	1	0	5	0
45	357	10	10000	5	1	0	5	0
44	358	10	10000	5	1	0	5	0
43	359	10	10000	5	1	0	5	0
44	360	10	10000	5	1	0	5	0
44	361	10	10000	5	1	0	5	0
41	362	10	10000	5	1	0	5	0
40	363	10	10000	5	1	0	5	0
39	364	10	10000	5	1	0	5	0
40	365	10	10000	5	1	0	5	0
41	366	10	10000	5	1	0	5	0
40	367	10	10000	5	1	0	5	0
40	368	10	10000	5	1	0	5	0
37	369	10	10000	5	1	0	5	0
37	370	10	10000	5	1	0	5	0
35	371	10	10000	5	1	0	5	0
36	372	10	10000	5	1	0	5	0
35	373	10	10000	5	1	0	5	0
33	374	10	10000	5	1	0	5	0
32	375	10	10000	5	1	0	5	0
32	376	10	10000	5	1	0	5	0
30	377	10	10000	5	1	0	5	0
30	378	10	10000	5	1	0	5	0
31	379	10	10000	5	1	0	5	0
30	380	10	10000	5	1	0	5	0
28	381	10	10000	5	1	0	5	0
27	382	10	10000	5	1	0	5	0
26	383	10	10000	5	1	0	5	0
27	384	10	10000	5	1	0	5	0
30	385	10	10000	5	1	0	5	0
30	386	10	10000	5	1	0	5	0
29	387	10	10000	5	1	0	5	0
29	388	10	10000	5	1	0	5	0
28	389	10	10000	5	1	0	5	0
27	390	10	10000	5	1	0	5	0
28	391	10	10000	5	1	0	5	0
31	392	10	10000	5	1	0	5	0
30	393	10	10000	5	1	0	5	0
30	394	10	10000	5	1	0	5	0
28	395	10	10000	5	1	0	5	0
29	396	10	10000	5	1	0	5	0
28	397	10	10000	5	1	0	5	0
28	398	10	10000	5	1	0	5	0
28	399	10	10000	5	1	0	5	0
30	400	10	10000	5	1	0	5	0
32	401	10	10000	5	1	0	5	0
30	402	10	10000	5	1	0	5	0
30	403	10	10000	5	1	0	5	0
30	404	10	10000	5	1	0	5	0
32	405	10	10000	5	1	0	5	0
33	406	10	10000	5	1	0	5	0
33	407	10	10000	5	1	0	5	0
33	408	10	10000	5	1	0	5	0
32	409	10	10000	5	1	0	5	0
32	410	10	10000	5	1	0	5	0
31	411	10	10000	5	1	0	5	0
33	412	10	10000	5	1	0	5	0
32	413	10	10000	5	1	0	5	0
30	414	10	10000	5	1	0	5	0
29	415	10	10000	5	1	0	5	0
29	416	10	10000	5	1	0	5	0
30	417	10	10000	5	1	0	5	0
29	418	10	10000	5	1	0	5	0
28	419	10	10000	5	1	0	5	0
27	420	10	10000	5	1	0	5	0
26	421	10	10000	5	1	0	5	0
25	422	10	10000	5	1	0	5	0
24	423	10	10000	5	1	0	5	0
24	424	10	10000	5	1	0	5	0
25	425	10	10000	5	1	0	5	0
23	426	10	10000	5	1	0	5	0
22	427	10	10000	5	1	0	5	0
23	428	10	10000	5	1	0	5	0
22	429	10	10000	5	1	0	5	0
22	430	10	10000	5	1	0	5	0
24	431	10	10000	5	1	0	5	0
25	432	10	10000	5	1	0	5	0
24	433	10	10000	5	1	0	5	0
23	434	10	10000	5	1	0	5	0
24	435	10	10000	5	1	0	5	0
27	436	10	10000	5	1	0	5	0
28	437	10	10000	5	1	0	5	0
26	438	10	10000	5	1	0	5	0
27	439	10	10000	5	1	0	5	0
29	440	10	10000	5	1	0	5	0
28	441	10	10000	5	1	0	5	0
26	442	10	10000	5	1	0	5	0
26	443	10	10000	5	1	0	5	0
26	444	10	10000	5	1	0	5	0
25	445	10	10000	5	1	0	5	0
25	446	10	10000	5	1	0	5	0
26	447	10	10000	5	1	0	5	0
28	448	10	10000	5	1	0	5	0
27	449	10	10000	5	1	0	5	0
26	450	10	10000	5	1	0	5	0
29	451	10	10000	5	1	0	5	0
32	452	10	10000	5	1	0	5	0
33	453	10	10000	5	1	0	5	0
32	454	10	10000	5	1	0	5	0
32	455	10	10000	5	1	0	5	0
30	456	10	10000	5	1	0	5	0
30	457	10	10000	5	1	0	5	0
30	458	10	10000	5	1	0	5	0
29	459	10	10000	5	1	0	5	0
29	460	10	10000	5	1	0	5	0
28	461	10	10000	5	1	0	5	0
26	462	10	10000	5	1	0	5	0
26	463	10	10000	5	1	0	5	0
26	464	10	10000	5	1	0	5	0
25	465	10	10000	5	1	0	5	0
24	466	10	10000	5	1	0	5	0
24	467	10	10000	5	1	0	5	0
23	468	10	10000	5	1	0	5	0
22	469	10	10000	5	1	0	5	0
24	470	10	10000	5	1	0	5	0
23	471	10	10000	5	1	0	5	0
24	472	10	10000	5	1	0	5	0
23	473	10	10000	5	1	0	5	0
21	474	10	10000	5	1	0	5	0
21	475	10	10000	5	1	0	5	0
23	476	10	10000	5	1	0	5	0
22	477	10	10000	5	1	0	5	0
22	478	10	10000	5	1	0	5	0
23	479	10	10000	5	1	0	5	0
25	480	10	10000	5	1	0	5	0
26	481	10	10000	5	1	0	5	0
27	482	10	10000	5	1	0	5	0
28	483	10	10000	5	1	0	5	0
27	484	10	10000	5	1	0	5	0
28	485	10	10000	5	1	0	5	0
28	486	10	10000	5	1	0	5	0
30	487	10	10000	5	1	0	5	0
33	488	10	10000	5	1	0	5	0
32	489	10	10000	5	1	0	5	0
31	490	10	10000	5	1	0	5	0
32	491	10	10000	5	1	0	5	0
32	492	10	10000	5	1	0	5	0
31	493	10	10000	5	1	0	5	0
30	494	10	10000	5	1	0	5	0
29	495	10	10000	5	1	0	5	0
30	496	10	10000	5	1	0	5	0
29	497	10	10000	5	1	0	5	0
28	498	10	10000	5	1	0	5	0
29	499	10	10000	5	1	0	5	0
30	500	10	10000	5	1	0	5	0
30	501	10	10000	5	1	0	5	1
29	502	10	10000	5	1	0	5	1
30	503	10	10000	5	1	0	5	1
30	504	10	10000	5	1	0	5	1
30	505	10	10000	5	1	0	5	1
30	506	10	10000	5	1	0	5	1
31	507	10	10000	5	1	0	5	1
32	508	10	10000	5	1	0	5	1
30	509	10	10000	5	1	0	5	1
29	510	10	10000	5	1	0	5	1
28	511	10	10000	5	1	0	5	1
29	512	10	10000	5	1	0	5	1
28	513	10	10000	5	1	0	5	1
27	514	10	10000	5	1	0	5	1
26	515	10	10000	5	1	0	5	1
25	516	10	10000	5	1	0	5	1
25	517	10	10000	5	1	0	5	1
24	518	10	10000	5	1	0	5	1
25	519	10	10000	5	1	0	5	1
25	520	10	10000	5	1	0	5	1
24	521	10	10000	5	1	0	5	1
22	522	10	10000	5	1	0	5	1
22	523	10	10000	5	1	0	5	1
21	524	10	10000	5	1	0	5	1
22	525	10	10000	5	1	0	5	1
21	526	10	10000	5	1	0	5	1
21	527	10	10000	5	1	0	5	1
21	528	10	10000	5	1	0	5	1
22	529	10	10000	5	1	0	5	1
22	530	10	10000	5	1	0	5	1
22	531	10	10000	5	1	0	5	1
23	532	10	10000	5	1	0	5	1
22	533	10	10000	5	1	0	5	1
22	534	10	10000	5	1	0	5	1
21	535	10	10000	5	1	0	5	1
21	536	10	10000	5	1	0	5	1
22	537	10	10000	5	1	0	5	1
22	538	10	10000	5	1	0	5	1
22	539	10	10000	5	1	0	5	1
22	540	10	10000	5	1	0	5	1
23	541	10	10000	5	1	0	5	1
21	542	10	10000	5	1	0	5	1
22	543	10	10000	5	1	0	5	1
22	544	10	10000	5	1	0	5	1
24	545	10	10000	5	1	0	5	1
28	546	10	10000	5	1	0	5	1
28	547	10	10000	5	1	0	5	1
28	548	10	10000	5	1	0	5	1
27	549	10	10000	5	1	0	5	1
25	550	10	10000	5	1	0	5	1
24	551	10	10000	5	1	0	5	0
28	552	10	10000	5	1	0	5	0
26	553	10	10000	5	1	0	5	0
25	554	10	10000	5	1	0	5	0
25	555	10	10000	5	1	0	5	0
24	556	10	10000	5	1	0	5	0
23	557	10	10000	5	1	0	5	0
23	558	10	10000	5	1	0	5	0
23	559	10	10000	5	1	0	5	0
23	560	10	10000	5	1	0	5	0
23	561	10	10000	5	1	0	5	0
20	562	10	10000	5	1	0	5	0
20	563	10	10000	5	1	0	5	0
20	564	10	10000	5	1	0	5	0
20	565	10	10000	5	1	0	5	0
19	566	10	10000	5	1	0	5	0
19	567	10	10000	5	1	0	5	0
19	568	10	10000	5	1	0	5	0
19	569	10	10000	5	1	0	5	0
20	570	10	10000	5	1	0	5	0
21	571	10	10000	5	1	0	5	0
24	572	10	10000	5	1	0	5	0
25	573	10	10000	5	1	0	5	0
23	574	10	10000	5	1	0	5	0
22	575	10	10000	5	1	0	5	0
23	576	10	10000	5	1	0	5	0
23	577	10	10000	5	1	0	5	0
23	578	10	10000	5	1	0	5	0
24	579	10	10000	5	1	0	5	0
25	580	10	10000	5	1	0	5	0
25	581	10	10000	5	1	0	5	0
23	582	10	10000	5	1	0	5	0
25	583	10	10000	5	1	0	5	0
25	584	10	10000	5	1	0	5	0
25	585	10	10000	5	1	0	5	0
26	586	10	10000	5	1	0	5	0
28	587	10	10000	5	1	0	5	0
30	588	10	10000	5	1	0	5	0
32	589	10	10000	5	1	0	5	0
34	590	10	10000	5	1	0	5	0
45	591	10	10000	5	1	0	5	0
57	592	10	10000	5	1	0	5	0
64	593	10	10000	5	1	0	5	0
67	594	10	10000	5	1	0	5	0
71	595	10	10000	5	1	0	5	0
71	596	10	10000	5	1	0	5	0
86	597	10	10000	5	1	0	5	0
108	598	10	10000	5	1	0	5	0
110	599	10	10000	5	1	0	5	0
135	600	10	10000	5	1	0	5	0
190	601	10	10000	5	1	0	5	0
195	602	10	10000	5	1	0	5	0
226	603	10	10000	5	1	0	5	0
233	604	10	10000	5	1	0	5	0
245	605	10	10000	5	1	0	5	0
246	606	10	10000	5	1	0	5	0
277	607	10	10000	5	1	0	5	0
300	608	10	10000	5	1	0	5	0
295	609	10	10000	5	1	0	5	0
288	610	10	10000	5	1	0	5	0
297	611	10	10000	5	1	0	5	0
297	612	10	10000	5	1	0	5	0
312	613	10	10000	5	1	0	5	0
346	614	10	10000	5	1	0	5	0
345	615	10	10000	5	1	0	5	0
366	616	10	10000	5	1	0	5	0
394	617	10	10000	5	1	0	5	0
414	618	10	10000	5	1	0	5	0
429	619	10	10000	5	1	0	5	0
440	620	10	10000	5	1	0	5	0
432	621	10	10000	5	1	0	5	0
419	622	10	10000	5	1	0	5	0
426	623	10	10000	5	1	0	5	0
463	624	10	10000	5	1	0	5	0
500	625	10	10000	5	1	0	5	0
496	626	10	10000	5	1	0	5	0
501	627	10	10000	5	1	0	5	0
517	628	10	10000	5	1	0	5	0
529	629	10	10000	5	1	0	5	0
533	630	10	10000	5	1	0	5	0
514	631	10	10000	5	1	0	5	0
507	632	10	10000	5	1	0	5	0
497	633	10	10000	5	1	0	5	0
487	634	10	10000	5	1	0	5	0
481	635	10	10000	5	1	0	5	0
466	636	10	10000	5	1	0	5	0
446	637	10	10000	5	1	0	5	0
427	638	10	10000	5	1	0	5	0
413	639	10	10000	5	1	0	5	0
401	640	10	10000	5	1	0	5	0
389	641	10	10000	5	1	0	5	0
375	642	10	10000	5	1	0	5	0
363	643	10	10000	5	1	0	5	0
353	644	10	10000	5	1	0	5	0
345	645	10	10000	5	1	0	5	0
336	646	10	10000	5	1	0	5	0
327	647	10	10000	5	1	0	5	0
321	648	10	10000	5	1	0	5	0
313	649	10	10000	5	1	0	5	0
303	650	10	10000	5	1	0	5	0
291	651	10	10000	5	1	0	5	0
283	652	10	10000	5	1	0	5	0
276	653	10	10000	5	1	0	5	0
274	654	10	10000	5	1	0	5	0
272	655	10	10000	5	1	0	5	0
264	656	10	10000	5	1	0	5	0
253	657	10	10000	5	1	0	5	0
243	658	10	10000	5	1	0	5	0
232	659	10	10000	5	1	0	5	0
224	660	10	10000	5	1	0	5	0
215	661	10	10000	5	1	0	5	0
208	662	10	10000	5	1	0	5	0
203	663	10	10000	5	1	0	5	0
198	664	10	10000	5	1	0	5	0
193	665	10	10000	5	1	0	5	0
188	666	10	10000	5	1	0	5	0
185	667	10	10000	5	1	0	5	0
182	668	10	10000	5	1	0	5	0
180	669	10	10000	5	1	0	5	0
178	670	10	10000	5	1	0	5	0
176	671	10	10000	5	1	0	5	0
177	672	10	10000	5	1	0	5	0
177	673	10	10000	5	1	0	5	0
178	674	10	10000	5	1	0	5	0
180	675	10	10000	5	1	0	5	0
184	676	10	10000	5	1	0	5	0
189	677	10	10000	5	1	0	5	0
193	678	10	10000	5	1	0	5	0
197	679	10	10000	5	1	0	5	0
200	680	10	10000	5	1	0	5	0
200	681	10	10000	5	1	0	5	0
199	682	10	10000	5	1	0	5	0
200	683	10	10000	5	1	0	5	0
201	684	10	10000	5	1	0	5	0
202	685	10	10000	5	1	0	5	0
201	686	10	10000	5	1	0	5	0
199	687	10	10000	5	1	0	5	0
197	688	10	10000	5	1	0	5	0
195	689	10	10000	5	1	0	5	0
192	690	10	10000	5	1	0	5	0
190	691	10	10000	5	1	0	5	0
191	692	10	10000	5	1	0	5	0
191	693	10	10000	5	1	0	5	0
191	694	10	10000	5	1	0	5	0
191	695	10	10000	5	1	0	5	0
188	696	10	10000	5	1	0	5	0
186	697	10	10000	5	1	0	5	0
183	698	10	10000	5	1	0	5	0
178	699	10	10000	5	1	0	5	0
171	700	10	10000	5	1	0	5	0
166	701	10	10000	5	1	0	5	0
164	702	10	10000	5	1	0	5	0
166	703	10	10000	5	1	0	5	0
171	704	10	10000	5	1	0	5	0
180	705	10	10000	5	1	0	5	0
189	706	10	10000	5	1	0	5	0
198	707	10	10000	5	1	0	5	0
206	708	10	10000	5	1	0	5	0
213	709	10	10000	5	1	0	5	0
219	710	10	10000	5	1	0	5	0
224	711	10	10000	5	1	0	5	0
229	712	10	10000	5	1	0	5	0
229	713	10	10000	5	1	0	5	0
227	714	10	10000	5	1	0	5	0
225	715	10	10000	5	1	0	5	0
220	716	10	10000	5	1	0	5	0
213	717	10	10000	5	1	0	5	0
205	718	10	10000	5	1	0	5	0
200	719	10	10000	5	1	0	5	0
194	720	10	10000	5	1	0	5	0
186	721	10	10000	5	1	0	5	0
179	722	10	10000	5	1	0	5	0
173	723	10	10000	5	1	0	5	0
166	724	10	10000	5	1	0	5	0
163	725	10	10000	5	1	0	5	0
159	726	10	10000	5	1	0	5	0
154	727	10	10000	5	1	0	5	0
151	728	10	10000	5	1	0	5	0
147	729	10	10000	5	1	0	5	0
142	730	10	10000	5	1	0	5	0
138	731	10	10000	5	1	0	5	0
136	732	10	10000	5	1	0	5	0
130	733	10	10000	5	1	0	5	0
125	734	10	10000	5	1	0	5	0
119	735	10	10000	5	1	0	5	0
115	736	10	10000	5	1	0	5	0
113	737	10	10000	5	1	0	5	0
110	738	10	10000	5	1	0	5	0
106	739	10	10000	5	1	0	5	0
104	740	10	10000	5	1	0	5	0
99	741	10	10000	5	1	0	5	0
94	742	10	10000	5	1	0	5	0
92	743	10	10000	5	1	0	5	0
90	744	10	10000	5	1	0	5	0
88	745	10	10000	5	1	0	5	0
