value	EMG	Stimulus	EMG_sensitivity	Total_Trial_Nr	practise	acq	probe_nr	Startle_Probe
28	2	7	10000	1	1	0	1	0
28	3	7	10000	1	1	0	1	0
27	4	7	10000	1	1	0	1	0
24	5	7	10000	1	1	0	1	0
24	6	7	10000	1	1	0	1	0
23	7	7	10000	1	1	0	1	0
22	8	7	10000	1	1	0	1	0
22	9	7	10000	1	1	0	1	0
22	10	7	10000	1	1	0	1	0
21	11	7	10000	1	1	0	1	0
21	12	7	10000	1	1	0	1	0
21	13	7	10000	1	1	0	1	0
21	14	7	10000	1	1	0	1	0
24	15	7	10000	1	1	0	1	0
22	16	7	10000	1	1	0	1	0
23	17	7	10000	1	1	0	1	0
23	18	7	10000	1	1	0	1	0
22	19	7	10000	1	1	0	1	0
22	20	7	10000	1	1	0	1	0
20	21	7	10000	1	1	0	1	0
21	22	7	10000	1	1	0	1	0
21	23	7	10000	1	1	0	1	0
21	24	7	10000	1	1	0	1	0
20	25	7	10000	1	1	0	1	0
20	26	7	10000	1	1	0	1	0
21	27	7	10000	1	1	0	1	0
23	28	7	10000	1	1	0	1	0
23	29	7	10000	1	1	0	1	0
25	30	7	10000	1	1	0	1	0
27	31	7	10000	1	1	0	1	0
27	32	7	10000	1	1	0	1	0
26	33	7	10000	1	1	0	1	0
26	34	7	10000	1	1	0	1	0
29	35	7	10000	1	1	0	1	0
30	36	7	10000	1	1	0	1	0
32	37	7	10000	1	1	0	1	0
32	38	7	10000	1	1	0	1	0
30	39	7	10000	1	1	0	1	0
29	40	7	10000	1	1	0	1	0
28	41	7	10000	1	1	0	1	0
27	42	7	10000	1	1	0	1	0
28	43	7	10000	1	1	0	1	0
29	44	7	10000	1	1	0	1	0
26	45	7	10000	1	1	0	1	0
26	46	7	10000	1	1	0	1	0
27	47	7	10000	1	1	0	1	0
30	48	7	10000	1	1	0	1	0
33	49	7	10000	1	1	0	1	0
33	50	7	10000	1	1	0	1	0
33	51	7	10000	1	1	0	1	0
32	52	7	10000	1	1	0	1	0
30	53	7	10000	1	1	0	1	0
29	54	7	10000	1	1	0	1	0
31	55	7	10000	1	1	0	1	0
31	56	7	10000	1	1	0	1	0
32	57	7	10000	1	1	0	1	0
31	58	7	10000	1	1	0	1	0
30	59	7	10000	1	1	0	1	0
29	60	7	10000	1	1	0	1	0
28	61	7	10000	1	1	0	1	0
28	62	7	10000	1	1	0	1	0
27	63	7	10000	1	1	0	1	0
27	64	7	10000	1	1	0	1	0
25	65	7	10000	1	1	0	1	0
25	66	7	10000	1	1	0	1	0
24	67	7	10000	1	1	0	1	0
23	68	7	10000	1	1	0	1	0
23	69	7	10000	1	1	0	1	0
24	70	7	10000	1	1	0	1	0
24	71	7	10000	1	1	0	1	0
23	72	7	10000	1	1	0	1	0
22	73	7	10000	1	1	0	1	0
23	74	7	10000	1	1	0	1	0
25	75	7	10000	1	1	0	1	0
24	76	7	10000	1	1	0	1	0
24	77	7	10000	1	1	0	1	0
24	78	7	10000	1	1	0	1	0
25	79	7	10000	1	1	0	1	0
25	80	7	10000	1	1	0	1	0
23	81	7	10000	1	1	0	1	0
24	82	7	10000	1	1	0	1	0
25	83	7	10000	1	1	0	1	0
25	84	7	10000	1	1	0	1	0
24	85	7	10000	1	1	0	1	0
27	86	7	10000	1	1	0	1	0
29	87	7	10000	1	1	0	1	0
30	88	7	10000	1	1	0	1	0
32	89	7	10000	1	1	0	1	0
33	90	7	10000	1	1	0	1	0
36	91	7	10000	1	1	0	1	0
37	92	7	10000	1	1	0	1	0
39	93	7	10000	1	1	0	1	0
37	94	7	10000	1	1	0	1	0
38	95	7	10000	1	1	0	1	0
37	96	7	10000	1	1	0	1	0
36	97	7	10000	1	1	0	1	0
35	98	7	10000	1	1	0	1	0
33	99	7	10000	1	1	0	1	0
32	100	7	10000	1	1	0	1	0
31	101	7	10000	1	1	0	1	0
31	102	7	10000	1	1	0	1	0
30	103	7	10000	1	1	0	1	0
31	104	7	10000	1	1	0	1	0
28	105	7	10000	1	1	0	1	0
28	106	7	10000	1	1	0	1	0
27	107	7	10000	1	1	0	1	0
27	108	7	10000	1	1	0	1	0
28	109	7	10000	1	1	0	1	0
30	110	7	10000	1	1	0	1	0
29	111	7	10000	1	1	0	1	0
29	112	7	10000	1	1	0	1	0
29	113	7	10000	1	1	0	1	0
28	114	7	10000	1	1	0	1	0
30	115	7	10000	1	1	0	1	0
29	116	7	10000	1	1	0	1	0
27	117	7	10000	1	1	0	1	0
27	118	7	10000	1	1	0	1	0
26	119	7	10000	1	1	0	1	0
25	120	7	10000	1	1	0	1	0
24	121	7	10000	1	1	0	1	0
25	122	7	10000	1	1	0	1	0
25	123	7	10000	1	1	0	1	0
25	124	7	10000	1	1	0	1	0
24	125	7	10000	1	1	0	1	0
24	126	7	10000	1	1	0	1	0
24	127	7	10000	1	1	0	1	0
25	128	7	10000	1	1	0	1	0
26	129	7	10000	1	1	0	1	0
25	130	7	10000	1	1	0	1	0
24	131	7	10000	1	1	0	1	0
24	132	7	10000	1	1	0	1	0
24	133	7	10000	1	1	0	1	0
24	134	7	10000	1	1	0	1	0
26	135	7	10000	1	1	0	1	0
25	136	7	10000	1	1	0	1	0
24	137	7	10000	1	1	0	1	0
23	138	7	10000	1	1	0	1	0
23	139	7	10000	1	1	0	1	0
23	140	7	10000	1	1	0	1	0
20	141	7	10000	1	1	0	1	0
21	142	7	10000	1	1	0	1	0
20	143	7	10000	1	1	0	1	0
22	144	7	10000	1	1	0	1	0
20	145	7	10000	1	1	0	1	0
20	146	7	10000	1	1	0	1	0
20	147	7	10000	1	1	0	1	0
20	148	7	10000	1	1	0	1	0
20	149	7	10000	1	1	0	1	0
20	150	7	10000	1	1	0	1	0
20	151	7	10000	1	1	0	1	0
19	152	7	10000	1	1	0	1	0
19	153	7	10000	1	1	0	1	0
20	154	7	10000	1	1	0	1	0
21	155	7	10000	1	1	0	1	0
21	156	7	10000	1	1	0	1	0
22	157	7	10000	1	1	0	1	0
25	158	7	10000	1	1	0	1	0
24	159	7	10000	1	1	0	1	0
25	160	7	10000	1	1	0	1	0
25	161	7	10000	1	1	0	1	0
28	162	7	10000	1	1	0	1	0
30	163	7	10000	1	1	0	1	0
34	164	7	10000	1	1	0	1	0
35	165	7	10000	1	1	0	1	0
38	166	7	10000	1	1	0	1	0
40	167	7	10000	1	1	0	1	0
44	168	7	10000	1	1	0	1	0
45	169	7	10000	1	1	0	1	0
48	170	7	10000	1	1	0	1	0
54	171	7	10000	1	1	0	1	0
58	172	7	10000	1	1	0	1	0
63	173	7	10000	1	1	0	1	0
63	174	7	10000	1	1	0	1	0
67	175	7	10000	1	1	0	1	0
64	176	7	10000	1	1	0	1	0
64	177	7	10000	1	1	0	1	0
64	178	7	10000	1	1	0	1	0
62	179	7	10000	1	1	0	1	0
59	180	7	10000	1	1	0	1	0
57	181	7	10000	1	1	0	1	0
58	182	7	10000	1	1	0	1	0
58	183	7	10000	1	1	0	1	0
60	184	7	10000	1	1	0	1	0
59	185	7	10000	1	1	0	1	0
59	186	7	10000	1	1	0	1	0
58	187	7	10000	1	1	0	1	0
60	188	7	10000	1	1	0	1	0
66	189	7	10000	1	1	0	1	0
71	190	7	10000	1	1	0	1	0
77	191	7	10000	1	1	0	1	0
81	192	7	10000	1	1	0	1	0
87	193	7	10000	1	1	0	1	0
90	194	7	10000	1	1	0	1	0
95	195	7	10000	1	1	0	1	0
99	196	7	10000	1	1	0	1	0
100	197	7	10000	1	1	0	1	0
103	198	7	10000	1	1	0	1	0
104	199	7	10000	1	1	0	1	0
104	200	7	10000	1	1	0	1	0
103	201	7	10000	1	1	0	1	0
101	202	7	10000	1	1	0	1	0
99	203	7	10000	1	1	0	1	0
98	204	7	10000	1	1	0	1	0
97	205	7	10000	1	1	0	1	0
97	206	7	10000	1	1	0	1	0
94	207	7	10000	1	1	0	1	0
92	208	7	10000	1	1	0	1	0
89	209	7	10000	1	1	0	1	0
86	210	7	10000	1	1	0	1	0
83	211	7	10000	1	1	0	1	0
79	212	7	10000	1	1	0	1	0
74	213	7	10000	1	1	0	1	0
71	214	7	10000	1	1	0	1	0
70	215	7	10000	1	1	0	1	0
67	216	7	10000	1	1	0	1	0
65	217	7	10000	1	1	0	1	0
62	218	7	10000	1	1	0	1	0
63	219	7	10000	1	1	0	1	0
63	220	7	10000	1	1	0	1	0
64	221	7	10000	1	1	0	1	0
66	222	7	10000	1	1	0	1	0
68	223	7	10000	1	1	0	1	0
69	224	7	10000	1	1	0	1	0
67	225	7	10000	1	1	0	1	0
70	226	7	10000	1	1	0	1	0
72	227	7	10000	1	1	0	1	0
78	228	7	10000	1	1	0	1	0
84	229	7	10000	1	1	0	1	0
91	230	7	10000	1	1	0	1	0
99	231	7	10000	1	1	0	1	0
101	232	7	10000	1	1	0	1	0
103	233	7	10000	1	1	0	1	0
105	234	7	10000	1	1	0	1	0
112	235	7	10000	1	1	0	1	0
116	236	7	10000	1	1	0	1	0
117	237	7	10000	1	1	0	1	0
118	238	7	10000	1	1	0	1	0
118	239	7	10000	1	1	0	1	0
119	240	7	10000	1	1	0	1	0
121	241	7	10000	1	1	0	1	0
124	242	7	10000	1	1	0	1	0
124	243	7	10000	1	1	0	1	0
125	244	7	10000	1	1	0	1	0
124	245	7	10000	1	1	0	1	0
125	246	7	10000	1	1	0	1	0
126	247	7	10000	1	1	0	1	0
124	248	7	10000	1	1	0	1	0
121	249	7	10000	1	1	0	1	0
119	250	7	10000	1	1	0	1	0
118	251	7	10000	1	1	0	1	0
116	252	7	10000	1	1	0	1	0
115	253	7	10000	1	1	0	1	0
113	254	7	10000	1	1	0	1	0
113	255	7	10000	1	1	0	1	0
110	256	7	10000	1	1	0	1	0
107	257	7	10000	1	1	0	1	0
104	258	7	10000	1	1	0	1	0
103	259	7	10000	1	1	0	1	0
99	260	7	10000	1	1	0	1	0
96	261	7	10000	1	1	0	1	0
94	262	7	10000	1	1	0	1	0
93	263	7	10000	1	1	0	1	0
92	264	7	10000	1	1	0	1	0
88	265	7	10000	1	1	0	1	0
87	266	7	10000	1	1	0	1	0
83	267	7	10000	1	1	0	1	0
80	268	7	10000	1	1	0	1	0
79	269	7	10000	1	1	0	1	0
79	270	7	10000	1	1	0	1	0
78	271	7	10000	1	1	0	1	0
75	272	7	10000	1	1	0	1	0
74	273	7	10000	1	1	0	1	0
72	274	7	10000	1	1	0	1	0
71	275	7	10000	1	1	0	1	0
68	276	7	10000	1	1	0	1	0
65	277	7	10000	1	1	0	1	0
62	278	7	10000	1	1	0	1	0
60	279	7	10000	1	1	0	1	0
60	280	7	10000	1	1	0	1	0
57	281	7	10000	1	1	0	1	0
56	282	7	10000	1	1	0	1	0
56	283	7	10000	1	1	0	1	0
55	284	7	10000	1	1	0	1	0
51	285	7	10000	1	1	0	1	0
49	286	7	10000	1	1	0	1	0
48	287	7	10000	1	1	0	1	0
46	288	7	10000	1	1	0	1	0
45	289	7	10000	1	1	0	1	0
44	290	7	10000	1	1	0	1	0
43	291	7	10000	1	1	0	1	0
41	292	7	10000	1	1	0	1	0
38	293	7	10000	1	1	0	1	0
37	294	7	10000	1	1	0	1	0
38	295	7	10000	1	1	0	1	0
36	296	7	10000	1	1	0	1	0
36	297	7	10000	1	1	0	1	0
35	298	7	10000	1	1	0	1	0
34	299	7	10000	1	1	0	1	0
34	300	7	10000	1	1	0	1	0
33	301	7	10000	1	1	0	1	0
33	302	7	10000	1	1	0	1	0
33	303	7	10000	1	1	0	1	0
33	304	7	10000	1	1	0	1	0
32	305	7	10000	1	1	0	1	0
34	306	7	10000	1	1	0	1	0
34	307	7	10000	1	1	0	1	0
34	308	7	10000	1	1	0	1	0
33	309	7	10000	1	1	0	1	0
33	310	7	10000	1	1	0	1	0
33	311	7	10000	1	1	0	1	0
32	312	7	10000	1	1	0	1	0
30	313	7	10000	1	1	0	1	0
30	314	7	10000	1	1	0	1	0
32	315	7	10000	1	1	0	1	0
31	316	7	10000	1	1	0	1	0
30	317	7	10000	1	1	0	1	0
29	318	7	10000	1	1	0	1	0
29	319	7	10000	1	1	0	1	0
29	320	7	10000	1	1	0	1	0
29	321	7	10000	1	1	0	1	0
29	322	7	10000	1	1	0	1	0
29	323	7	10000	1	1	0	1	0
29	324	7	10000	1	1	0	1	0
26	325	7	10000	1	1	0	1	0
25	326	7	10000	1	1	0	1	0
24	327	7	10000	1	1	0	1	0
24	328	7	10000	1	1	0	1	0
24	329	7	10000	1	1	0	1	0
24	330	7	10000	1	1	0	1	0
24	331	7	10000	1	1	0	1	0
23	332	7	10000	1	1	0	1	0
21	333	7	10000	1	1	0	1	0
21	334	7	10000	1	1	0	1	0
23	335	7	10000	1	1	0	1	0
23	336	7	10000	1	1	0	1	0
22	337	7	10000	1	1	0	1	0
21	338	7	10000	1	1	0	1	0
20	339	7	10000	1	1	0	1	0
20	340	7	10000	1	1	0	1	0
19	341	7	10000	1	1	0	1	0
20	342	7	10000	1	1	0	1	0
21	343	7	10000	1	1	0	1	0
23	344	7	10000	1	1	0	1	0
23	345	7	10000	1	1	0	1	0
23	346	7	10000	1	1	0	1	0
22	347	7	10000	1	1	0	1	0
22	348	7	10000	1	1	0	1	0
20	349	7	10000	1	1	0	1	0
21	350	7	10000	1	1	0	1	0
21	351	7	10000	1	1	0	1	0
19	352	7	10000	1	1	0	1	0
20	353	7	10000	1	1	0	1	0
20	354	7	10000	1	1	0	1	0
23	355	7	10000	1	1	0	1	0
26	356	7	10000	1	1	0	1	0
30	357	7	10000	1	1	0	1	0
33	358	7	10000	1	1	0	1	0
35	359	7	10000	1	1	0	1	0
36	360	7	10000	1	1	0	1	0
37	361	7	10000	1	1	0	1	0
39	362	7	10000	1	1	0	1	0
41	363	7	10000	1	1	0	1	0
43	364	7	10000	1	1	0	1	0
39	365	7	10000	1	1	0	1	0
42	366	7	10000	1	1	0	1	0
44	367	7	10000	1	1	0	1	0
45	368	7	10000	1	1	0	1	0
44	369	7	10000	1	1	0	1	0
43	370	7	10000	1	1	0	1	0
43	371	7	10000	1	1	0	1	0
42	372	7	10000	1	1	0	1	0
40	373	7	10000	1	1	0	1	0
40	374	7	10000	1	1	0	1	0
42	375	7	10000	1	1	0	1	0
41	376	7	10000	1	1	0	1	0
40	377	7	10000	1	1	0	1	0
39	378	7	10000	1	1	0	1	0
40	379	7	10000	1	1	0	1	0
42	380	7	10000	1	1	0	1	0
44	381	7	10000	1	1	0	1	0
46	382	7	10000	1	1	0	1	0
46	383	7	10000	1	1	0	1	0
47	384	7	10000	1	1	0	1	0
44	385	7	10000	1	1	0	1	0
44	386	7	10000	1	1	0	1	0
44	387	7	10000	1	1	0	1	0
42	388	7	10000	1	1	0	1	0
42	389	7	10000	1	1	0	1	0
41	390	7	10000	1	1	0	1	0
40	391	7	10000	1	1	0	1	0
40	392	7	10000	1	1	0	1	0
40	393	7	10000	1	1	0	1	0
39	394	7	10000	1	1	0	1	0
39	395	7	10000	1	1	0	1	0
38	396	7	10000	1	1	0	1	0
37	397	7	10000	1	1	0	1	0
36	398	7	10000	1	1	0	1	0
36	399	7	10000	1	1	0	1	0
36	400	7	10000	1	1	0	1	0
34	401	7	10000	1	1	0	1	0
34	402	7	10000	1	1	0	1	0
33	403	7	10000	1	1	0	1	0
34	404	7	10000	1	1	0	1	0
33	405	7	10000	1	1	0	1	0
34	406	7	10000	1	1	0	1	0
35	407	7	10000	1	1	0	1	0
33	408	7	10000	1	1	0	1	0
33	409	7	10000	1	1	0	1	0
32	410	7	10000	1	1	0	1	0
32	411	7	10000	1	1	0	1	0
32	412	7	10000	1	1	0	1	0
32	413	7	10000	1	1	0	1	0
33	414	7	10000	1	1	0	1	0
36	415	7	10000	1	1	0	1	0
36	416	7	10000	1	1	0	1	0
36	417	7	10000	1	1	0	1	0
36	418	7	10000	1	1	0	1	0
35	419	7	10000	1	1	0	1	0
34	420	7	10000	1	1	0	1	0
34	421	7	10000	1	1	0	1	0
34	422	7	10000	1	1	0	1	0
34	423	7	10000	1	1	0	1	0
33	424	7	10000	1	1	0	1	0
31	425	7	10000	1	1	0	1	0
33	426	7	10000	1	1	0	1	0
32	427	7	10000	1	1	0	1	0
32	428	7	10000	1	1	0	1	0
31	429	7	10000	1	1	0	1	0
29	430	7	10000	1	1	0	1	0
29	431	7	10000	1	1	0	1	0
27	432	7	10000	1	1	0	1	0
25	433	7	10000	1	1	0	1	0
24	434	7	10000	1	1	0	1	0
26	435	7	10000	1	1	0	1	0
25	436	7	10000	1	1	0	1	0
24	437	7	10000	1	1	0	1	0
24	438	7	10000	1	1	0	1	0
23	439	7	10000	1	1	0	1	0
22	440	7	10000	1	1	0	1	0
22	441	7	10000	1	1	0	1	0
22	442	7	10000	1	1	0	1	0
22	443	7	10000	1	1	0	1	0
23	444	7	10000	1	1	0	1	0
21	445	7	10000	1	1	0	1	0
20	446	7	10000	1	1	0	1	0
20	447	7	10000	1	1	0	1	0
20	448	7	10000	1	1	0	1	0
20	449	7	10000	1	1	0	1	0
18	450	7	10000	1	1	0	1	0
18	451	7	10000	1	1	0	1	0
18	452	7	10000	1	1	0	1	0
17	453	7	10000	1	1	0	1	0
16	454	7	10000	1	1	0	1	0
18	455	7	10000	1	1	0	1	0
18	456	7	10000	1	1	0	1	0
17	457	7	10000	1	1	0	1	0
18	458	7	10000	1	1	0	1	0
18	459	7	10000	1	1	0	1	0
17	460	7	10000	1	1	0	1	0
17	461	7	10000	1	1	0	1	0
17	462	7	10000	1	1	0	1	0
18	463	7	10000	1	1	0	1	0
19	464	7	10000	1	1	0	1	0
17	465	7	10000	1	1	0	1	0
19	466	7	10000	1	1	0	1	0
19	467	7	10000	1	1	0	1	0
20	468	7	10000	1	1	0	1	0
21	469	7	10000	1	1	0	1	0
24	470	7	10000	1	1	0	1	0
25	471	7	10000	1	1	0	1	0
24	472	7	10000	1	1	0	1	0
24	473	7	10000	1	1	0	1	0
25	474	7	10000	1	1	0	1	0
28	475	7	10000	1	1	0	1	0
29	476	7	10000	1	1	0	1	0
29	477	7	10000	1	1	0	1	0
28	478	7	10000	1	1	0	1	0
27	479	7	10000	1	1	0	1	0
27	480	7	10000	1	1	0	1	0
27	481	7	10000	1	1	0	1	0
28	482	7	10000	1	1	0	1	0
27	483	7	10000	1	1	0	1	0
27	484	7	10000	1	1	0	1	0
25	485	7	10000	1	1	0	1	0
25	486	7	10000	1	1	0	1	0
25	487	7	10000	1	1	0	1	0
25	488	7	10000	1	1	0	1	0
24	489	7	10000	1	1	0	1	0
24	490	7	10000	1	1	0	1	0
25	491	7	10000	1	1	0	1	0
24	492	7	10000	1	1	0	1	0
25	493	7	10000	1	1	0	1	0
26	494	7	10000	1	1	0	1	0
27	495	7	10000	1	1	0	1	0
27	496	7	10000	1	1	0	1	0
26	497	7	10000	1	1	0	1	0
26	498	7	10000	1	1	0	1	0
27	499	7	10000	1	1	0	1	0
26	500	7	10000	1	1	0	1	0
28	501	7	10000	1	1	0	1	0
31	576	7	10000	1	1	0	1	1
30	577	7	10000	1	1	0	1	1
31	578	7	10000	1	1	0	1	1
30	579	7	10000	1	1	0	1	1
29	580	7	10000	1	1	0	1	1
29	581	7	10000	1	1	0	1	1
31	582	7	10000	1	1	0	1	1
32	583	7	10000	1	1	0	1	1
31	584	7	10000	1	1	0	1	1
31	585	7	10000	1	1	0	1	1
30	586	7	10000	1	1	0	1	1
30	587	7	10000	1	1	0	1	1
29	588	7	10000	1	1	0	1	1
32	589	7	10000	1	1	0	1	1
29	590	7	10000	1	1	0	1	1
28	591	7	10000	1	1	0	1	1
27	592	7	10000	1	1	0	1	1
26	593	7	10000	1	1	0	1	1
26	594	7	10000	1	1	0	1	1
25	595	7	10000	1	1	0	1	1
27	596	7	10000	1	1	0	1	1
25	597	7	10000	1	1	0	1	1
26	598	7	10000	1	1	0	1	1
23	599	7	10000	1	1	0	1	1
23	600	7	10000	1	1	0	1	1
24	601	7	10000	1	1	0	1	1
25	602	7	10000	1	1	0	1	1
26	603	7	10000	1	1	0	1	1
26	604	7	10000	1	1	0	1	1
25	605	7	10000	1	1	0	1	1
24	606	7	10000	1	1	0	1	1
24	607	7	10000	1	1	0	1	1
24	608	7	10000	1	1	0	1	1
27	609	7	10000	1	1	0	1	1
27	610	7	10000	1	1	0	1	1
25	611	7	10000	1	1	0	1	1
24	612	7	10000	1	1	0	1	1
25	613	7	10000	1	1	0	1	1
26	614	7	10000	1	1	0	1	1
26	615	7	10000	1	1	0	1	1
27	616	7	10000	1	1	0	1	1
29	617	7	10000	1	1	0	1	1
30	618	7	10000	1	1	0	1	1
26	619	7	10000	1	1	0	1	1
26	620	7	10000	1	1	0	1	1
26	621	7	10000	1	1	0	1	1
25	622	7	10000	1	1	0	1	1
25	623	7	10000	1	1	0	1	1
25	624	7	10000	1	1	0	1	1
24	625	7	10000	1	1	0	1	1
23	626	7	10000	1	1	0	1	1
23	627	7	10000	1	1	0	1	1
21	628	7	10000	1	1	0	1	1
23	629	7	10000	1	1	0	1	1
22	630	7	10000	1	1	0	1	1
22	631	7	10000	1	1	0	1	1
22	632	7	10000	1	1	0	1	1
22	633	7	10000	1	1	0	1	1
23	634	7	10000	1	1	0	1	1
22	635	7	10000	1	1	0	1	1
22	636	7	10000	1	1	0	1	1
22	637	7	10000	1	1	0	1	1
23	638	7	10000	1	1	0	1	1
21	639	7	10000	1	1	0	1	1
23	640	7	10000	1	1	0	1	1
25	641	7	10000	1	1	0	1	1
25	642	7	10000	1	1	0	1	1
24	643	7	10000	1	1	0	1	1
24	644	7	10000	1	1	0	1	1
26	645	7	10000	1	1	0	1	1
28	646	7	10000	1	1	0	1	1
32	647	7	10000	1	1	0	1	1
35	648	7	10000	1	1	0	1	1
41	649	7	10000	1	1	0	1	1
45	650	7	10000	1	1	0	1	1
48	651	7	10000	1	1	0	1	1
48	587	7	10000	1	1	0	1	0
46	588	7	10000	1	1	0	1	0
46	589	7	10000	1	1	0	1	0
47	590	7	10000	1	1	0	1	0
49	591	7	10000	1	1	0	1	0
48	592	7	10000	1	1	0	1	0
47	593	7	10000	1	1	0	1	0
46	594	7	10000	1	1	0	1	0
47	595	7	10000	1	1	0	1	0
49	596	7	10000	1	1	0	1	0
50	588	7	10000	1	1	0	1	0
50	589	7	10000	1	1	0	1	0
50	590	7	10000	1	1	0	1	0
52	591	7	10000	1	1	0	1	0
52	592	7	10000	1	1	0	1	0
51	593	7	10000	1	1	0	1	0
52	594	7	10000	1	1	0	1	0
54	595	7	10000	1	1	0	1	0
52	596	7	10000	1	1	0	1	0
50	597	7	10000	1	1	0	1	0
47	598	7	10000	1	1	0	1	0
46	599	7	10000	1	1	0	1	0
44	600	7	10000	1	1	0	1	0
43	601	7	10000	1	1	0	1	0
45	602	7	10000	1	1	0	1	0
44	603	7	10000	1	1	0	1	0
44	604	7	10000	1	1	0	1	0
43	605	7	10000	1	1	0	1	0
43	606	7	10000	1	1	0	1	0
40	607	7	10000	1	1	0	1	0
39	608	7	10000	1	1	0	1	0
38	609	7	10000	1	1	0	1	0
38	610	7	10000	1	1	0	1	0
38	611	7	10000	1	1	0	1	0
37	612	7	10000	1	1	0	1	0
37	613	7	10000	1	1	0	1	0
35	614	7	10000	1	1	0	1	0
37	615	7	10000	1	1	0	1	0
38	616	7	10000	1	1	0	1	0
37	617	7	10000	1	1	0	1	0
37	618	7	10000	1	1	0	1	0
37	619	7	10000	1	1	0	1	0
39	620	7	10000	1	1	0	1	0
39	621	7	10000	1	1	0	1	0
41	622	7	10000	1	1	0	1	0
42	623	7	10000	1	1	0	1	0
43	624	7	10000	1	1	0	1	0
40	625	7	10000	1	1	0	1	0
40	626	7	10000	1	1	0	1	0
42	627	7	10000	1	1	0	1	0
42	628	7	10000	1	1	0	1	0
43	629	7	10000	1	1	0	1	0
44	630	7	10000	1	1	0	1	0
44	631	7	10000	1	1	0	1	0
44	632	7	10000	1	1	0	1	0
43	633	7	10000	1	1	0	1	0
44	634	7	10000	1	1	0	1	0
46	635	7	10000	1	1	0	1	0
46	636	7	10000	1	1	0	1	0
45	637	7	10000	1	1	0	1	0
45	638	7	10000	1	1	0	1	0
44	639	7	10000	1	1	0	1	0
43	640	7	10000	1	1	0	1	0
44	641	7	10000	1	1	0	1	0
43	642	7	10000	1	1	0	1	0
43	643	7	10000	1	1	0	1	0
41	644	7	10000	1	1	0	1	0
38	645	7	10000	1	1	0	1	0
39	646	7	10000	1	1	0	1	0
39	647	7	10000	1	1	0	1	0
39	648	7	10000	1	1	0	1	0
37	649	7	10000	1	1	0	1	0
36	650	7	10000	1	1	0	1	0
36	651	7	10000	1	1	0	1	0
37	652	7	10000	1	1	0	1	0
37	653	7	10000	1	1	0	1	0
36	654	7	10000	1	1	0	1	0
39	655	7	10000	1	1	0	1	0
38	656	7	10000	1	1	0	1	0
38	657	7	10000	1	1	0	1	0
38	658	7	10000	1	1	0	1	0
37	659	7	10000	1	1	0	1	0
35	660	7	10000	1	1	0	1	0
35	661	7	10000	1	1	0	1	0
35	662	7	10000	1	1	0	1	0
35	663	7	10000	1	1	0	1	0
36	664	7	10000	1	1	0	1	0
35	665	7	10000	1	1	0	1	0
35	666	7	10000	1	1	0	1	0
36	667	7	10000	1	1	0	1	0
37	668	7	10000	1	1	0	1	0
37	669	7	10000	1	1	0	1	0
39	670	7	10000	1	1	0	1	0
41	671	7	10000	1	1	0	1	0
40	672	7	10000	1	1	0	1	0
40	673	7	10000	1	1	0	1	0
42	674	7	10000	1	1	0	1	0
48	675	7	10000	1	1	0	1	0
49	676	7	10000	1	1	0	1	0
53	677	7	10000	1	1	0	1	0
64	678	7	10000	1	1	0	1	0
68	679	7	10000	1	1	0	1	0
66	680	7	10000	1	1	0	1	0
66	681	7	10000	1	1	0	1	0
76	682	7	10000	1	1	0	1	0
135	683	7	10000	1	1	0	1	0
194	684	7	10000	1	1	0	1	0
201	685	7	10000	1	1	0	1	0
210	686	7	10000	1	1	0	1	0
211	687	7	10000	1	1	0	1	0
207	688	7	10000	1	1	0	1	0
199	689	7	10000	1	1	0	1	0
193	690	7	10000	1	1	0	1	0
194	691	7	10000	1	1	0	1	0
209	692	7	10000	1	1	0	1	0
229	693	7	10000	1	1	0	1	0
245	694	7	10000	1	1	0	1	0
264	695	7	10000	1	1	0	1	0
279	696	7	10000	1	1	0	1	0
285	697	7	10000	1	1	0	1	0
286	698	7	10000	1	1	0	1	0
283	699	7	10000	1	1	0	1	0
273	700	7	10000	1	1	0	1	0
263	701	7	10000	1	1	0	1	0
253	702	7	10000	1	1	0	1	0
245	703	7	10000	1	1	0	1	0
236	704	7	10000	1	1	0	1	0
228	705	7	10000	1	1	0	1	0
224	706	7	10000	1	1	0	1	0
220	707	7	10000	1	1	0	1	0
217	708	7	10000	1	1	0	1	0
217	709	7	10000	1	1	0	1	0
215	710	7	10000	1	1	0	1	0
210	711	7	10000	1	1	0	1	0
204	712	7	10000	1	1	0	1	0
201	713	7	10000	1	1	0	1	0
202	714	7	10000	1	1	0	1	0
202	715	7	10000	1	1	0	1	0
203	716	7	10000	1	1	0	1	0
202	717	7	10000	1	1	0	1	0
198	718	7	10000	1	1	0	1	0
193	719	7	10000	1	1	0	1	0
188	720	7	10000	1	1	0	1	0
179	721	7	10000	1	1	0	1	0
173	722	7	10000	1	1	0	1	0
167	723	7	10000	1	1	0	1	0
162	724	7	10000	1	1	0	1	0
154	725	7	10000	1	1	0	1	0
147	726	7	10000	1	1	0	1	0
141	727	7	10000	1	1	0	1	0
136	728	7	10000	1	1	0	1	0
132	729	7	10000	1	1	0	1	0
127	730	7	10000	1	1	0	1	0
125	731	7	10000	1	1	0	1	0
122	732	7	10000	1	1	0	1	0
118	733	7	10000	1	1	0	1	0
114	734	7	10000	1	1	0	1	0
114	735	7	10000	1	1	0	1	0
112	736	7	10000	1	1	0	1	0
108	737	7	10000	1	1	0	1	0
106	738	7	10000	1	1	0	1	0
105	739	7	10000	1	1	0	1	0
103	740	7	10000	1	1	0	1	0
103	741	7	10000	1	1	0	1	0
103	742	7	10000	1	1	0	1	0
102	743	7	10000	1	1	0	1	0
103	744	7	10000	1	1	0	1	0
101	745	7	10000	1	1	0	1	0
100	746	7	10000	1	1	0	1	0
100	747	7	10000	1	1	0	1	0
99	748	7	10000	1	1	0	1	0
99	749	7	10000	1	1	0	1	0
99	750	7	10000	1	1	0	1	0
98	751	7	10000	1	1	0	1	0
97	752	7	10000	1	1	0	1	0
96	753	7	10000	1	1	0	1	0
94	754	7	10000	1	1	0	1	0
93	755	7	10000	1	1	0	1	0
90	756	7	10000	1	1	0	1	0
87	757	7	10000	1	1	0	1	0
86	758	7	10000	1	1	0	1	0
86	759	7	10000	1	1	0	1	0
87	760	7	10000	1	1	0	1	0
88	761	7	10000	1	1	0	1	0
89	762	7	10000	1	1	0	1	0
90	763	7	10000	1	1	0	1	0
93	764	7	10000	1	1	0	1	0
92	765	7	10000	1	1	0	1	0
91	766	7	10000	1	1	0	1	0
91	767	7	10000	1	1	0	1	0
90	768	7	10000	1	1	0	1	0
90	769	7	10000	1	1	0	1	0
91	770	7	10000	1	1	0	1	0
91	771	7	10000	1	1	0	1	0
92	772	7	10000	1	1	0	1	0
91	773	7	10000	1	1	0	1	0
91	774	7	10000	1	1	0	1	0
91	775	7	10000	1	1	0	1	0
89	776	7	10000	1	1	0	1	0
85	777	7	10000	1	1	0	1	0
82	778	7	10000	1	1	0	1	0
80	779	7	10000	1	1	0	1	0
79	780	7	10000	1	1	0	1	0
78	781	7	10000	1	1	0	1	0
78	782	7	10000	1	1	0	1	0
76	783	7	10000	1	1	0	1	0
74	784	7	10000	1	1	0	1	0
70	785	7	10000	1	1	0	1	0
67	786	7	10000	1	1	0	1	0
65	787	7	10000	1	1	0	1	0
63	788	7	10000	1	1	0	1	0
63	789	7	10000	1	1	0	1	0
64	790	7	10000	1	1	0	1	0
66	791	7	10000	1	1	0	1	0
67	792	7	10000	1	1	0	1	0
66	793	7	10000	1	1	0	1	0
67	794	7	10000	1	1	0	1	0
72	795	7	10000	1	1	0	1	0
74	796	7	10000	1	1	0	1	0
73	797	7	10000	1	1	0	1	0
73	798	7	10000	1	1	0	1	0
72	799	7	10000	1	1	0	1	0
70	800	7	10000	1	1	0	1	0
69	801	7	10000	1	1	0	1	0
69	802	7	10000	1	1	0	1	0
70	803	7	10000	1	1	0	1	0
71	804	7	10000	1	1	0	1	0
70	805	7	10000	1	1	0	1	0
70	806	7	10000	1	1	0	1	0
70	807	7	10000	1	1	0	1	0
69	808	7	10000	1	1	0	1	0
70	809	7	10000	1	1	0	1	0
72	810	7	10000	1	1	0	1	0
74	811	7	10000	1	1	0	1	0
75	812	7	10000	1	1	0	1	0
76	813	7	10000	1	1	0	1	0
77	814	7	10000	1	1	0	1	0
80	815	7	10000	1	1	0	1	0
82	816	7	10000	1	1	0	1	0
81	817	7	10000	1	1	0	1	0
77	818	7	10000	1	1	0	1	0
75	819	7	10000	1	1	0	1	0
74	820	7	10000	1	1	0	1	0
73	821	7	10000	1	1	0	1	0
75	822	7	10000	1	1	0	1	0
78	823	7	10000	1	1	0	1	0
79	824	7	10000	1	1	0	1	0
76	825	7	10000	1	1	0	1	0
73	826	7	10000	1	1	0	1	0
71	827	7	10000	1	1	0	1	0
70	828	7	10000	1	1	0	1	0
72	829	7	10000	1	1	0	1	0
72	830	7	10000	1	1	0	1	0
73	831	7	10000	1	1	0	1	0
70	832	7	10000	1	1	0	1	0
69	833	7	10000	1	1	0	1	0
70	834	7	10000	1	1	0	1	0
73	835	7	10000	1	1	0	1	0
75	836	7	10000	1	1	0	1	0
77	837	7	10000	1	1	0	1	0
79	838	7	10000	1	1	0	1	0
79	839	7	10000	1	1	0	1	0
78	840	7	10000	1	1	0	1	0
77	841	7	10000	1	1	0	1	0
74	842	7	10000	1	1	0	1	0
73	843	7	10000	1	1	0	1	0
71	844	7	10000	1	1	0	1	0
68	845	7	10000	1	1	0	1	0
66	846	7	10000	1	1	0	1	0
63	847	7	10000	1	1	0	1	0
63	848	7	10000	1	1	0	1	0
62	849	7	10000	1	1	0	1	0
62	850	7	10000	1	1	0	1	0
62	851	7	10000	1	1	0	1	0
61	852	7	10000	1	1	0	1	0
61	853	7	10000	1	1	0	1	0
60	854	7	10000	1	1	0	1	0
61	855	7	10000	1	1	0	1	0
59	856	7	10000	1	1	0	1	0
58	857	7	10000	1	1	0	1	0
61	858	7	10000	1	1	0	1	0
65	859	7	10000	1	1	0	1	0
64	860	7	10000	1	1	0	1	0
70	861	7	10000	1	1	0	1	0
78	862	7	10000	1	1	0	1	0
77	863	7	10000	1	1	0	1	0
76	864	7	10000	1	1	0	1	0
73	865	7	10000	1	1	0	1	0
71	866	7	10000	1	1	0	1	0
69	867	7	10000	1	1	0	1	0
69	868	7	10000	1	1	0	1	0
71	869	7	10000	1	1	0	1	0
68	870	7	10000	1	1	0	1	0
67	871	7	10000	1	1	0	1	0
73	872	7	10000	1	1	0	1	0
84	873	7	10000	1	1	0	1	0
90	874	7	10000	1	1	0	1	0
89	875	7	10000	1	1	0	1	0
93	876	7	10000	1	1	0	1	0
99	877	7	10000	1	1	0	1	0
107	878	7	10000	1	1	0	1	0
116	879	7	10000	1	1	0	1	0
121	880	7	10000	1	1	0	1	0
120	881	7	10000	1	1	0	1	0
116	882	7	10000	1	1	0	1	0
112	883	7	10000	1	1	0	1	0
108	884	7	10000	1	1	0	1	0
104	885	7	10000	1	1	0	1	0
106	886	7	10000	1	1	0	1	0
110	887	7	10000	1	1	0	1	0
112	888	7	10000	1	1	0	1	0
112	889	7	10000	1	1	0	1	0
111	890	7	10000	1	1	0	1	0
107	891	7	10000	1	1	0	1	0
106	892	7	10000	1	1	0	1	0
105	893	7	10000	1	1	0	1	0
102	894	7	10000	1	1	0	1	0
102	895	7	10000	1	1	0	1	0
100	896	7	10000	1	1	0	1	0
97	897	7	10000	1	1	0	1	0
99	898	7	10000	1	1	0	1	0
99	899	7	10000	1	1	0	1	0
96	900	7	10000	1	1	0	1	0
93	901	7	10000	1	1	0	1	0
92	902	7	10000	1	1	0	1	0
93	903	7	10000	1	1	0	1	0
95	904	7	10000	1	1	0	1	0
90	905	7	10000	1	1	0	1	0
88	906	7	10000	1	1	0	1	0
88	907	7	10000	1	1	0	1	0
89	908	7	10000	1	1	0	1	0
86	909	7	10000	1	1	0	1	0
84	910	7	10000	1	1	0	1	0
81	911	7	10000	1	1	0	1	0
79	912	7	10000	1	1	0	1	0
80	913	7	10000	1	1	0	1	0
76	914	7	10000	1	1	0	1	0
76	915	7	10000	1	1	0	1	0
77	916	7	10000	1	1	0	1	0
75	917	7	10000	1	1	0	1	0
76	918	7	10000	1	1	0	1	0
78	919	7	10000	1	1	0	1	0
78	920	7	10000	1	1	0	1	0
78	921	7	10000	1	1	0	1	0
76	922	7	10000	1	1	0	1	0
78	923	7	10000	1	1	0	1	0
80	924	7	10000	1	1	0	1	0
80	925	7	10000	1	1	0	1	0
77	926	7	10000	1	1	0	1	0
78	927	7	10000	1	1	0	1	0
80	928	7	10000	1	1	0	1	0
81	929	7	10000	1	1	0	1	0
83	930	7	10000	1	1	0	1	0
83	931	7	10000	1	1	0	1	0
86	932	7	10000	1	1	0	1	0
93	933	7	10000	1	1	0	1	0
92	934	7	10000	1	1	0	1	0
96	935	7	10000	1	1	0	1	0
95	936	7	10000	1	1	0	1	0
93	937	7	10000	1	1	0	1	0
91	938	7	10000	1	1	0	1	0
97	939	7	10000	1	1	0	1	0
108	940	7	10000	1	1	0	1	0
117	941	7	10000	1	1	0	1	0
118	942	7	10000	1	1	0	1	0
118	943	7	10000	1	1	0	1	0
120	944	7	10000	1	1	0	1	0
116	945	7	10000	1	1	0	1	0
119	946	7	10000	1	1	0	1	0
132	947	7	10000	1	1	0	1	0
131	948	7	10000	1	1	0	1	0
130	949	7	10000	1	1	0	1	0
130	950	7	10000	1	1	0	1	0
131	951	7	10000	1	1	0	1	0
132	952	7	10000	1	1	0	1	0
128	953	7	10000	1	1	0	1	0
121	954	7	10000	1	1	0	1	0
119	955	7	10000	1	1	0	1	0
115	956	7	10000	1	1	0	1	0
116	957	7	10000	1	1	0	1	0
122	958	7	10000	1	1	0	1	0
126	959	7	10000	1	1	0	1	0
122	960	7	10000	1	1	0	1	0
125	961	7	10000	1	1	0	1	0
133	962	7	10000	1	1	0	1	0
138	963	7	10000	1	1	0	1	0
136	964	7	10000	1	1	0	1	0
129	965	7	10000	1	1	0	1	0
124	966	7	10000	1	1	0	1	0
124	967	7	10000	1	1	0	1	0
122	968	7	10000	1	1	0	1	0
117	969	7	10000	1	1	0	1	0
114	970	7	10000	1	1	0	1	0
111	971	7	10000	1	1	0	1	0
106	972	7	10000	1	1	0	1	0
101	973	7	10000	1	1	0	1	0
98	974	7	10000	1	1	0	1	0
98	975	7	10000	1	1	0	1	0
98	976	7	10000	1	1	0	1	0
98	977	7	10000	1	1	0	1	0
97	978	7	10000	1	1	0	1	0
97	979	7	10000	1	1	0	1	0
100	980	7	10000	1	1	0	1	0
100	981	7	10000	1	1	0	1	0
96	982	7	10000	1	1	0	1	0
93	983	7	10000	1	1	0	1	0
97	984	7	10000	1	1	0	1	0
96	985	7	10000	1	1	0	1	0
92	986	7	10000	1	1	0	1	0
91	987	7	10000	1	1	0	1	0
90	988	7	10000	1	1	0	1	0
88	989	7	10000	1	1	0	1	0
87	990	7	10000	1	1	0	1	0
85	991	7	10000	1	1	0	1	0
82	992	7	10000	1	1	0	1	0
81	993	7	10000	1	1	0	1	0
78	994	7	10000	1	1	0	1	0
80	995	7	10000	1	1	0	1	0
80	996	7	10000	1	1	0	1	0
81	997	7	10000	1	1	0	1	0
79	998	7	10000	1	1	0	1	0
82	999	7	10000	1	1	0	1	0
85	1000	7	10000	1	1	0	1	0
83	1001	7	10000	1	1	0	1	0
138	2	0	10000	2	1	0	2	0
132	3	0	10000	2	1	0	2	0
128	4	0	10000	2	1	0	2	0
125	5	0	10000	2	1	0	2	0
123	6	0	10000	2	1	0	2	0
118	7	0	10000	2	1	0	2	0
115	8	0	10000	2	1	0	2	0
113	9	0	10000	2	1	0	2	0
111	10	0	10000	2	1	0	2	0
110	11	0	10000	2	1	0	2	0
111	12	0	10000	2	1	0	2	0
112	13	0	10000	2	1	0	2	0
114	14	0	10000	2	1	0	2	0
117	15	0	10000	2	1	0	2	0
121	16	0	10000	2	1	0	2	0
125	17	0	10000	2	1	0	2	0
125	18	0	10000	2	1	0	2	0
126	19	0	10000	2	1	0	2	0
125	20	0	10000	2	1	0	2	0
125	21	0	10000	2	1	0	2	0
126	22	0	10000	2	1	0	2	0
128	23	0	10000	2	1	0	2	0
133	24	0	10000	2	1	0	2	0
139	25	0	10000	2	1	0	2	0
146	26	0	10000	2	1	0	2	0
150	27	0	10000	2	1	0	2	0
155	28	0	10000	2	1	0	2	0
160	29	0	10000	2	1	0	2	0
165	30	0	10000	2	1	0	2	0
171	31	0	10000	2	1	0	2	0
176	32	0	10000	2	1	0	2	0
182	33	0	10000	2	1	0	2	0
184	34	0	10000	2	1	0	2	0
189	35	0	10000	2	1	0	2	0
192	36	0	10000	2	1	0	2	0
196	37	0	10000	2	1	0	2	0
200	38	0	10000	2	1	0	2	0
205	39	0	10000	2	1	0	2	0
210	40	0	10000	2	1	0	2	0
216	41	0	10000	2	1	0	2	0
222	42	0	10000	2	1	0	2	0
227	43	0	10000	2	1	0	2	0
231	44	0	10000	2	1	0	2	0
238	45	0	10000	2	1	0	2	0
243	46	0	10000	2	1	0	2	0
248	47	0	10000	2	1	0	2	0
253	48	0	10000	2	1	0	2	0
258	49	0	10000	2	1	0	2	0
262	50	0	10000	2	1	0	2	0
265	51	0	10000	2	1	0	2	0
265	52	0	10000	2	1	0	2	0
265	53	0	10000	2	1	0	2	0
264	54	0	10000	2	1	0	2	0
262	55	0	10000	2	1	0	2	0
260	56	0	10000	2	1	0	2	0
261	57	0	10000	2	1	0	2	0
259	58	0	10000	2	1	0	2	0
259	59	0	10000	2	1	0	2	0
260	60	0	10000	2	1	0	2	0
262	61	0	10000	2	1	0	2	0
262	62	0	10000	2	1	0	2	0
262	63	0	10000	2	1	0	2	0
263	64	0	10000	2	1	0	2	0
262	65	0	10000	2	1	0	2	0
263	66	0	10000	2	1	0	2	0
263	67	0	10000	2	1	0	2	0
264	68	0	10000	2	1	0	2	0
262	69	0	10000	2	1	0	2	0
262	70	0	10000	2	1	0	2	0
261	71	0	10000	2	1	0	2	0
258	72	0	10000	2	1	0	2	0
255	73	0	10000	2	1	0	2	0
251	74	0	10000	2	1	0	2	0
249	75	0	10000	2	1	0	2	0
246	76	0	10000	2	1	0	2	0
246	77	0	10000	2	1	0	2	0
245	78	0	10000	2	1	0	2	0
241	79	0	10000	2	1	0	2	0
239	80	0	10000	2	1	0	2	0
236	81	0	10000	2	1	0	2	0
233	82	0	10000	2	1	0	2	0
229	83	0	10000	2	1	0	2	0
224	84	0	10000	2	1	0	2	0
220	85	0	10000	2	1	0	2	0
217	86	0	10000	2	1	0	2	0
212	87	0	10000	2	1	0	2	0
207	88	0	10000	2	1	0	2	0
203	89	0	10000	2	1	0	2	0
198	90	0	10000	2	1	0	2	0
194	91	0	10000	2	1	0	2	0
190	92	0	10000	2	1	0	2	0
186	93	0	10000	2	1	0	2	0
182	94	0	10000	2	1	0	2	0
177	95	0	10000	2	1	0	2	0
171	96	0	10000	2	1	0	2	0
166	97	0	10000	2	1	0	2	0
160	98	0	10000	2	1	0	2	0
155	99	0	10000	2	1	0	2	0
149	100	0	10000	2	1	0	2	0
143	101	0	10000	2	1	0	2	0
137	102	0	10000	2	1	0	2	0
132	103	0	10000	2	1	0	2	0
128	104	0	10000	2	1	0	2	0
124	105	0	10000	2	1	0	2	0
122	106	0	10000	2	1	0	2	0
115	107	0	10000	2	1	0	2	0
110	108	0	10000	2	1	0	2	0
105	109	0	10000	2	1	0	2	0
101	110	0	10000	2	1	0	2	0
97	111	0	10000	2	1	0	2	0
93	112	0	10000	2	1	0	2	0
91	113	0	10000	2	1	0	2	0
86	114	0	10000	2	1	0	2	0
82	115	0	10000	2	1	0	2	0
79	116	0	10000	2	1	0	2	0
80	117	0	10000	2	1	0	2	0
77	118	0	10000	2	1	0	2	0
74	119	0	10000	2	1	0	2	0
72	120	0	10000	2	1	0	2	0
69	121	0	10000	2	1	0	2	0
69	122	0	10000	2	1	0	2	0
67	123	0	10000	2	1	0	2	0
66	124	0	10000	2	1	0	2	0
63	125	0	10000	2	1	0	2	0
61	126	0	10000	2	1	0	2	0
58	127	0	10000	2	1	0	2	0
56	128	0	10000	2	1	0	2	0
54	129	0	10000	2	1	0	2	0
52	130	0	10000	2	1	0	2	0
51	131	0	10000	2	1	0	2	0
51	132	0	10000	2	1	0	2	0
50	133	0	10000	2	1	0	2	0
50	134	0	10000	2	1	0	2	0
49	135	0	10000	2	1	0	2	0
48	136	0	10000	2	1	0	2	0
49	137	0	10000	2	1	0	2	0
50	138	0	10000	2	1	0	2	0
50	139	0	10000	2	1	0	2	0
51	140	0	10000	2	1	0	2	0
52	141	0	10000	2	1	0	2	0
52	142	0	10000	2	1	0	2	0
52	143	0	10000	2	1	0	2	0
51	144	0	10000	2	1	0	2	0
50	145	0	10000	2	1	0	2	0
49	146	0	10000	2	1	0	2	0
45	147	0	10000	2	1	0	2	0
44	148	0	10000	2	1	0	2	0
43	149	0	10000	2	1	0	2	0
42	150	0	10000	2	1	0	2	0
41	151	0	10000	2	1	0	2	0
41	152	0	10000	2	1	0	2	0
41	153	0	10000	2	1	0	2	0
41	154	0	10000	2	1	0	2	0
41	155	0	10000	2	1	0	2	0
41	156	0	10000	2	1	0	2	0
44	157	0	10000	2	1	0	2	0
46	158	0	10000	2	1	0	2	0
47	159	0	10000	2	1	0	2	0
51	160	0	10000	2	1	0	2	0
54	161	0	10000	2	1	0	2	0
56	162	0	10000	2	1	0	2	0
57	163	0	10000	2	1	0	2	0
56	164	0	10000	2	1	0	2	0
54	165	0	10000	2	1	0	2	0
53	166	0	10000	2	1	0	2	0
50	167	0	10000	2	1	0	2	0
48	168	0	10000	2	1	0	2	0
48	169	0	10000	2	1	0	2	0
49	170	0	10000	2	1	0	2	0
50	171	0	10000	2	1	0	2	0
52	172	0	10000	2	1	0	2	0
51	173	0	10000	2	1	0	2	0
50	174	0	10000	2	1	0	2	0
50	175	0	10000	2	1	0	2	0
50	176	0	10000	2	1	0	2	0
49	177	0	10000	2	1	0	2	0
48	178	0	10000	2	1	0	2	0
46	179	0	10000	2	1	0	2	0
46	180	0	10000	2	1	0	2	0
47	181	0	10000	2	1	0	2	0
50	182	0	10000	2	1	0	2	0
52	183	0	10000	2	1	0	2	0
52	184	0	10000	2	1	0	2	0
52	185	0	10000	2	1	0	2	0
53	186	0	10000	2	1	0	2	0
51	187	0	10000	2	1	0	2	0
50	188	0	10000	2	1	0	2	0
49	189	0	10000	2	1	0	2	0
49	190	0	10000	2	1	0	2	0
49	191	0	10000	2	1	0	2	0
48	192	0	10000	2	1	0	2	0
48	193	0	10000	2	1	0	2	0
47	194	0	10000	2	1	0	2	0
45	195	0	10000	2	1	0	2	0
44	196	0	10000	2	1	0	2	0
46	197	0	10000	2	1	0	2	0
45	198	0	10000	2	1	0	2	0
46	199	0	10000	2	1	0	2	0
49	200	0	10000	2	1	0	2	0
53	201	0	10000	2	1	0	2	0
57	202	0	10000	2	1	0	2	0
61	203	0	10000	2	1	0	2	0
66	204	0	10000	2	1	0	2	0
70	205	0	10000	2	1	0	2	0
73	206	0	10000	2	1	0	2	0
73	207	0	10000	2	1	0	2	0
71	208	0	10000	2	1	0	2	0
71	209	0	10000	2	1	0	2	0
70	210	0	10000	2	1	0	2	0
71	211	0	10000	2	1	0	2	0
70	212	0	10000	2	1	0	2	0
71	213	0	10000	2	1	0	2	0
72	214	0	10000	2	1	0	2	0
76	215	0	10000	2	1	0	2	0
79	216	0	10000	2	1	0	2	0
84	217	0	10000	2	1	0	2	0
91	218	0	10000	2	1	0	2	0
94	219	0	10000	2	1	0	2	0
98	220	0	10000	2	1	0	2	0
102	221	0	10000	2	1	0	2	0
105	222	0	10000	2	1	0	2	0
107	223	0	10000	2	1	0	2	0
109	224	0	10000	2	1	0	2	0
113	225	0	10000	2	1	0	2	0
116	226	0	10000	2	1	0	2	0
116	227	0	10000	2	1	0	2	0
115	228	0	10000	2	1	0	2	0
113	229	0	10000	2	1	0	2	0
110	230	0	10000	2	1	0	2	0
105	231	0	10000	2	1	0	2	0
101	232	0	10000	2	1	0	2	0
98	233	0	10000	2	1	0	2	0
94	234	0	10000	2	1	0	2	0
92	235	0	10000	2	1	0	2	0
90	236	0	10000	2	1	0	2	0
89	237	0	10000	2	1	0	2	0
88	238	0	10000	2	1	0	2	0
86	239	0	10000	2	1	0	2	0
83	240	0	10000	2	1	0	2	0
80	241	0	10000	2	1	0	2	0
78	242	0	10000	2	1	0	2	0
76	243	0	10000	2	1	0	2	0
75	244	0	10000	2	1	0	2	0
75	245	0	10000	2	1	0	2	0
76	246	0	10000	2	1	0	2	0
75	247	0	10000	2	1	0	2	0
73	248	0	10000	2	1	0	2	0
71	249	0	10000	2	1	0	2	0
69	250	0	10000	2	1	0	2	0
67	251	0	10000	2	1	0	2	0
64	252	0	10000	2	1	0	2	0
62	253	0	10000	2	1	0	2	0
58	254	0	10000	2	1	0	2	0
56	255	0	10000	2	1	0	2	0
56	256	0	10000	2	1	0	2	0
56	257	0	10000	2	1	0	2	0
56	258	0	10000	2	1	0	2	0
57	259	0	10000	2	1	0	2	0
57	260	0	10000	2	1	0	2	0
56	261	0	10000	2	1	0	2	0
56	262	0	10000	2	1	0	2	0
55	263	0	10000	2	1	0	2	0
54	264	0	10000	2	1	0	2	0
53	265	0	10000	2	1	0	2	0
55	266	0	10000	2	1	0	2	0
56	267	0	10000	2	1	0	2	0
56	268	0	10000	2	1	0	2	0
56	269	0	10000	2	1	0	2	0
56	270	0	10000	2	1	0	2	0
57	271	0	10000	2	1	0	2	0
56	272	0	10000	2	1	0	2	0
55	273	0	10000	2	1	0	2	0
54	274	0	10000	2	1	0	2	0
52	275	0	10000	2	1	0	2	0
51	276	0	10000	2	1	0	2	0
52	277	0	10000	2	1	0	2	0
52	278	0	10000	2	1	0	2	0
51	279	0	10000	2	1	0	2	0
50	280	0	10000	2	1	0	2	0
48	281	0	10000	2	1	0	2	0
46	282	0	10000	2	1	0	2	0
45	283	0	10000	2	1	0	2	0
44	284	0	10000	2	1	0	2	0
44	285	0	10000	2	1	0	2	0
47	286	0	10000	2	1	0	2	0
46	287	0	10000	2	1	0	2	0
45	288	0	10000	2	1	0	2	0
44	289	0	10000	2	1	0	2	0
43	290	0	10000	2	1	0	2	0
42	291	0	10000	2	1	0	2	0
41	292	0	10000	2	1	0	2	0
39	293	0	10000	2	1	0	2	0
37	294	0	10000	2	1	0	2	0
36	295	0	10000	2	1	0	2	0
34	296	0	10000	2	1	0	2	0
35	297	0	10000	2	1	0	2	0
36	298	0	10000	2	1	0	2	0
34	299	0	10000	2	1	0	2	0
32	300	0	10000	2	1	0	2	0
31	301	0	10000	2	1	0	2	0
32	302	0	10000	2	1	0	2	0
31	303	0	10000	2	1	0	2	0
31	304	0	10000	2	1	0	2	0
32	305	0	10000	2	1	0	2	0
33	306	0	10000	2	1	0	2	0
33	307	0	10000	2	1	0	2	0
32	308	0	10000	2	1	0	2	0
32	309	0	10000	2	1	0	2	0
33	310	0	10000	2	1	0	2	0
34	311	0	10000	2	1	0	2	0
34	312	0	10000	2	1	0	2	0
35	313	0	10000	2	1	0	2	0
33	314	0	10000	2	1	0	2	0
32	315	0	10000	2	1	0	2	0
31	316	0	10000	2	1	0	2	0
31	317	0	10000	2	1	0	2	0
32	318	0	10000	2	1	0	2	0
31	319	0	10000	2	1	0	2	0
32	320	0	10000	2	1	0	2	0
32	321	0	10000	2	1	0	2	0
32	322	0	10000	2	1	0	2	0
31	323	0	10000	2	1	0	2	0
31	324	0	10000	2	1	0	2	0
31	325	0	10000	2	1	0	2	0
30	326	0	10000	2	1	0	2	0
29	327	0	10000	2	1	0	2	0
27	328	0	10000	2	1	0	2	0
26	329	0	10000	2	1	0	2	0
26	330	0	10000	2	1	0	2	0
26	331	0	10000	2	1	0	2	0
26	332	0	10000	2	1	0	2	0
27	333	0	10000	2	1	0	2	0
27	334	0	10000	2	1	0	2	0
28	335	0	10000	2	1	0	2	0
27	336	0	10000	2	1	0	2	0
28	337	0	10000	2	1	0	2	0
27	338	0	10000	2	1	0	2	0
27	339	0	10000	2	1	0	2	0
27	340	0	10000	2	1	0	2	0
26	341	0	10000	2	1	0	2	0
27	342	0	10000	2	1	0	2	0
28	343	0	10000	2	1	0	2	0
28	344	0	10000	2	1	0	2	0
27	345	0	10000	2	1	0	2	0
28	346	0	10000	2	1	0	2	0
26	347	0	10000	2	1	0	2	0
24	348	0	10000	2	1	0	2	0
23	349	0	10000	2	1	0	2	0
24	350	0	10000	2	1	0	2	0
24	351	0	10000	2	1	0	2	0
24	352	0	10000	2	1	0	2	0
24	353	0	10000	2	1	0	2	0
23	354	0	10000	2	1	0	2	0
23	355	0	10000	2	1	0	2	0
22	356	0	10000	2	1	0	2	0
23	357	0	10000	2	1	0	2	0
25	358	0	10000	2	1	0	2	0
24	359	0	10000	2	1	0	2	0
23	360	0	10000	2	1	0	2	0
22	361	0	10000	2	1	0	2	0
20	362	0	10000	2	1	0	2	0
20	363	0	10000	2	1	0	2	0
19	364	0	10000	2	1	0	2	0
19	365	0	10000	2	1	0	2	0
19	366	0	10000	2	1	0	2	0
19	367	0	10000	2	1	0	2	0
18	368	0	10000	2	1	0	2	0
20	369	0	10000	2	1	0	2	0
22	370	0	10000	2	1	0	2	0
24	371	0	10000	2	1	0	2	0
25	372	0	10000	2	1	0	2	0
24	373	0	10000	2	1	0	2	0
23	374	0	10000	2	1	0	2	0
22	375	0	10000	2	1	0	2	0
22	376	0	10000	2	1	0	2	0
22	377	0	10000	2	1	0	2	0
23	378	0	10000	2	1	0	2	0
23	379	0	10000	2	1	0	2	0
23	380	0	10000	2	1	0	2	0
22	381	0	10000	2	1	0	2	0
23	382	0	10000	2	1	0	2	0
23	383	0	10000	2	1	0	2	0
24	384	0	10000	2	1	0	2	0
25	385	0	10000	2	1	0	2	0
25	386	0	10000	2	1	0	2	0
23	387	0	10000	2	1	0	2	0
21	388	0	10000	2	1	0	2	0
21	389	0	10000	2	1	0	2	0
20	390	0	10000	2	1	0	2	0
20	391	0	10000	2	1	0	2	0
20	392	0	10000	2	1	0	2	0
20	393	0	10000	2	1	0	2	0
20	394	0	10000	2	1	0	2	0
21	395	0	10000	2	1	0	2	0
22	396	0	10000	2	1	0	2	0
24	397	0	10000	2	1	0	2	0
26	398	0	10000	2	1	0	2	0
26	399	0	10000	2	1	0	2	0
27	400	0	10000	2	1	0	2	0
26	401	0	10000	2	1	0	2	0
25	402	0	10000	2	1	0	2	0
24	403	0	10000	2	1	0	2	0
23	404	0	10000	2	1	0	2	0
23	405	0	10000	2	1	0	2	0
24	406	0	10000	2	1	0	2	0
22	407	0	10000	2	1	0	2	0
20	408	0	10000	2	1	0	2	0
20	409	0	10000	2	1	0	2	0
19	410	0	10000	2	1	0	2	0
20	411	0	10000	2	1	0	2	0
22	412	0	10000	2	1	0	2	0
23	413	0	10000	2	1	0	2	0
23	414	0	10000	2	1	0	2	0
22	415	0	10000	2	1	0	2	0
21	416	0	10000	2	1	0	2	0
21	417	0	10000	2	1	0	2	0
21	418	0	10000	2	1	0	2	0
21	419	0	10000	2	1	0	2	0
22	420	0	10000	2	1	0	2	0
23	421	0	10000	2	1	0	2	0
24	422	0	10000	2	1	0	2	0
24	423	0	10000	2	1	0	2	0
22	424	0	10000	2	1	0	2	0
22	425	0	10000	2	1	0	2	0
23	426	0	10000	2	1	0	2	0
22	427	0	10000	2	1	0	2	0
20	428	0	10000	2	1	0	2	0
21	429	0	10000	2	1	0	2	0
22	430	0	10000	2	1	0	2	0
23	431	0	10000	2	1	0	2	0
23	432	0	10000	2	1	0	2	0
23	433	0	10000	2	1	0	2	0
22	434	0	10000	2	1	0	2	0
22	435	0	10000	2	1	0	2	0
21	436	0	10000	2	1	0	2	0
21	437	0	10000	2	1	0	2	0
22	438	0	10000	2	1	0	2	0
21	439	0	10000	2	1	0	2	0
20	440	0	10000	2	1	0	2	0
20	441	0	10000	2	1	0	2	0
19	442	0	10000	2	1	0	2	0
19	443	0	10000	2	1	0	2	0
18	444	0	10000	2	1	0	2	0
18	445	0	10000	2	1	0	2	0
19	446	0	10000	2	1	0	2	0
17	447	0	10000	2	1	0	2	0
16	448	0	10000	2	1	0	2	0
16	449	0	10000	2	1	0	2	0
16	450	0	10000	2	1	0	2	0
17	451	0	10000	2	1	0	2	0
19	452	0	10000	2	1	0	2	0
21	453	0	10000	2	1	0	2	0
21	454	0	10000	2	1	0	2	0
22	455	0	10000	2	1	0	2	0
24	456	0	10000	2	1	0	2	0
25	457	0	10000	2	1	0	2	0
26	458	0	10000	2	1	0	2	0
25	459	0	10000	2	1	0	2	0
26	460	0	10000	2	1	0	2	0
24	461	0	10000	2	1	0	2	0
24	462	0	10000	2	1	0	2	0
25	463	0	10000	2	1	0	2	0
27	464	0	10000	2	1	0	2	0
30	465	0	10000	2	1	0	2	0
32	466	0	10000	2	1	0	2	0
32	467	0	10000	2	1	0	2	0
30	468	0	10000	2	1	0	2	0
30	469	0	10000	2	1	0	2	0
29	470	0	10000	2	1	0	2	0
32	471	0	10000	2	1	0	2	0
34	472	0	10000	2	1	0	2	0
37	473	0	10000	2	1	0	2	0
40	474	0	10000	2	1	0	2	0
41	475	0	10000	2	1	0	2	0
44	476	0	10000	2	1	0	2	0
45	477	0	10000	2	1	0	2	0
46	478	0	10000	2	1	0	2	0
44	479	0	10000	2	1	0	2	0
44	480	0	10000	2	1	0	2	0
44	481	0	10000	2	1	0	2	0
45	482	0	10000	2	1	0	2	0
48	483	0	10000	2	1	0	2	0
49	484	0	10000	2	1	0	2	0
51	485	0	10000	2	1	0	2	0
52	486	0	10000	2	1	0	2	0
50	487	0	10000	2	1	0	2	0
48	488	0	10000	2	1	0	2	0
47	489	0	10000	2	1	0	2	0
45	490	0	10000	2	1	0	2	0
45	491	0	10000	2	1	0	2	0
46	492	0	10000	2	1	0	2	0
45	493	0	10000	2	1	0	2	0
44	494	0	10000	2	1	0	2	0
41	495	0	10000	2	1	0	2	0
39	496	0	10000	2	1	0	2	0
37	497	0	10000	2	1	0	2	0
38	498	0	10000	2	1	0	2	0
38	499	0	10000	2	1	0	2	0
37	500	0	10000	2	1	0	2	0
37	501	0	10000	2	1	0	2	0
37	501	0	10000	2	1	0	2	1
36	502	0	10000	2	1	0	2	1
35	504	0	10000	2	1	0	2	1
36	505	0	10000	2	1	0	2	1
40	506	0	10000	2	1	0	2	1
44	507	0	10000	2	1	0	2	1
44	508	0	10000	2	1	0	2	1
49	509	0	10000	2	1	0	2	1
53	510	0	10000	2	1	0	2	1
58	511	0	10000	2	1	0	2	1
61	512	0	10000	2	1	0	2	1
63	513	0	10000	2	1	0	2	1
65	514	0	10000	2	1	0	2	1
64	515	0	10000	2	1	0	2	1
62	516	0	10000	2	1	0	2	1
59	517	0	10000	2	1	0	2	1
58	518	0	10000	2	1	0	2	1
55	519	0	10000	2	1	0	2	1
53	520	0	10000	2	1	0	2	1
51	521	0	10000	2	1	0	2	1
50	522	0	10000	2	1	0	2	1
52	523	0	10000	2	1	0	2	1
53	524	0	10000	2	1	0	2	1
53	525	0	10000	2	1	0	2	1
53	526	0	10000	2	1	0	2	1
51	527	0	10000	2	1	0	2	1
49	528	0	10000	2	1	0	2	1
49	529	0	10000	2	1	0	2	1
49	530	0	10000	2	1	0	2	1
47	531	0	10000	2	1	0	2	1
45	532	0	10000	2	1	0	2	1
44	533	0	10000	2	1	0	2	1
42	534	0	10000	2	1	0	2	1
40	535	0	10000	2	1	0	2	1
38	536	0	10000	2	1	0	2	1
38	537	0	10000	2	1	0	2	1
39	538	0	10000	2	1	0	2	1
39	539	0	10000	2	1	0	2	1
39	540	0	10000	2	1	0	2	1
38	541	0	10000	2	1	0	2	1
37	542	0	10000	2	1	0	2	1
37	543	0	10000	2	1	0	2	1
39	544	0	10000	2	1	0	2	1
37	545	0	10000	2	1	0	2	1
36	546	0	10000	2	1	0	2	1
34	547	0	10000	2	1	0	2	1
32	548	0	10000	2	1	0	2	1
32	549	0	10000	2	1	0	2	1
32	550	0	10000	2	1	0	2	1
34	551	0	10000	2	1	0	2	1
33	552	0	10000	2	1	0	2	0
35	553	0	10000	2	1	0	2	0
37	554	0	10000	2	1	0	2	0
39	555	0	10000	2	1	0	2	0
40	556	0	10000	2	1	0	2	0
44	557	0	10000	2	1	0	2	0
49	558	0	10000	2	1	0	2	0
50	559	0	10000	2	1	0	2	0
51	560	0	10000	2	1	0	2	0
51	561	0	10000	2	1	0	2	0
51	562	0	10000	2	1	0	2	0
51	563	0	10000	2	1	0	2	0
51	564	0	10000	2	1	0	2	0
53	565	0	10000	2	1	0	2	0
54	566	0	10000	2	1	0	2	0
55	567	0	10000	2	1	0	2	0
53	568	0	10000	2	1	0	2	0
55	569	0	10000	2	1	0	2	0
55	570	0	10000	2	1	0	2	0
55	571	0	10000	2	1	0	2	0
55	572	0	10000	2	1	0	2	0
54	573	0	10000	2	1	0	2	0
55	574	0	10000	2	1	0	2	0
55	575	0	10000	2	1	0	2	0
55	576	0	10000	2	1	0	2	0
55	577	0	10000	2	1	0	2	0
55	578	0	10000	2	1	0	2	0
54	579	0	10000	2	1	0	2	0
51	580	0	10000	2	1	0	2	0
50	581	0	10000	2	1	0	2	0
51	582	0	10000	2	1	0	2	0
50	583	0	10000	2	1	0	2	0
49	584	0	10000	2	1	0	2	0
48	585	0	10000	2	1	0	2	0
47	586	0	10000	2	1	0	2	0
45	587	0	10000	2	1	0	2	0
44	588	0	10000	2	1	0	2	0
45	589	0	10000	2	1	0	2	0
48	590	0	10000	2	1	0	2	0
49	591	0	10000	2	1	0	2	0
52	592	0	10000	2	1	0	2	0
55	593	0	10000	2	1	0	2	0
54	594	0	10000	2	1	0	2	0
54	595	0	10000	2	1	0	2	0
52	596	0	10000	2	1	0	2	0
55	597	0	10000	2	1	0	2	0
61	598	0	10000	2	1	0	2	0
63	599	0	10000	2	1	0	2	0
68	600	0	10000	2	1	0	2	0
68	601	0	10000	2	1	0	2	0
69	602	0	10000	2	1	0	2	0
76	603	0	10000	2	1	0	2	0
108	604	0	10000	2	1	0	2	0
166	605	0	10000	2	1	0	2	0
185	606	0	10000	2	1	0	2	0
182	607	0	10000	2	1	0	2	0
189	608	0	10000	2	1	0	2	0
193	609	0	10000	2	1	0	2	0
191	610	0	10000	2	1	0	2	0
200	611	0	10000	2	1	0	2	0
214	612	0	10000	2	1	0	2	0
221	613	0	10000	2	1	0	2	0
213	614	0	10000	2	1	0	2	0
204	615	0	10000	2	1	0	2	0
199	616	0	10000	2	1	0	2	0
201	617	0	10000	2	1	0	2	0
212	618	0	10000	2	1	0	2	0
219	619	0	10000	2	1	0	2	0
223	620	0	10000	2	1	0	2	0
223	621	0	10000	2	1	0	2	0
220	622	0	10000	2	1	0	2	0
214	623	0	10000	2	1	0	2	0
206	624	0	10000	2	1	0	2	0
199	625	0	10000	2	1	0	2	0
192	626	0	10000	2	1	0	2	0
187	627	0	10000	2	1	0	2	0
179	628	0	10000	2	1	0	2	0
172	629	0	10000	2	1	0	2	0
168	630	0	10000	2	1	0	2	0
167	631	0	10000	2	1	0	2	0
168	632	0	10000	2	1	0	2	0
167	633	0	10000	2	1	0	2	0
167	634	0	10000	2	1	0	2	0
165	635	0	10000	2	1	0	2	0
162	636	0	10000	2	1	0	2	0
157	637	0	10000	2	1	0	2	0
153	638	0	10000	2	1	0	2	0
147	639	0	10000	2	1	0	2	0
140	640	0	10000	2	1	0	2	0
134	641	0	10000	2	1	0	2	0
129	642	0	10000	2	1	0	2	0
122	643	0	10000	2	1	0	2	0
116	644	0	10000	2	1	0	2	0
112	645	0	10000	2	1	0	2	0
107	646	0	10000	2	1	0	2	0
103	647	0	10000	2	1	0	2	0
97	648	0	10000	2	1	0	2	0
94	649	0	10000	2	1	0	2	0
90	650	0	10000	2	1	0	2	0
86	651	0	10000	2	1	0	2	0
82	652	0	10000	2	1	0	2	0
79	653	0	10000	2	1	0	2	0
77	654	0	10000	2	1	0	2	0
75	655	0	10000	2	1	0	2	0
71	656	0	10000	2	1	0	2	0
68	657	0	10000	2	1	0	2	0
68	658	0	10000	2	1	0	2	0
64	659	0	10000	2	1	0	2	0
62	660	0	10000	2	1	0	2	0
59	661	0	10000	2	1	0	2	0
57	662	0	10000	2	1	0	2	0
57	663	0	10000	2	1	0	2	0
56	664	0	10000	2	1	0	2	0
56	665	0	10000	2	1	0	2	0
55	666	0	10000	2	1	0	2	0
53	667	0	10000	2	1	0	2	0
48	668	0	10000	2	1	0	2	0
47	669	0	10000	2	1	0	2	0
46	670	0	10000	2	1	0	2	0
44	671	0	10000	2	1	0	2	0
44	672	0	10000	2	1	0	2	0
42	673	0	10000	2	1	0	2	0
41	674	0	10000	2	1	0	2	0
38	675	0	10000	2	1	0	2	0
36	676	0	10000	2	1	0	2	0
36	677	0	10000	2	1	0	2	0
37	678	0	10000	2	1	0	2	0
35	679	0	10000	2	1	0	2	0
33	680	0	10000	2	1	0	2	0
33	681	0	10000	2	1	0	2	0
32	682	0	10000	2	1	0	2	0
31	683	0	10000	2	1	0	2	0
31	684	0	10000	2	1	0	2	0
31	685	0	10000	2	1	0	2	0
31	686	0	10000	2	1	0	2	0
30	687	0	10000	2	1	0	2	0
28	688	0	10000	2	1	0	2	0
28	689	0	10000	2	1	0	2	0
28	690	0	10000	2	1	0	2	0
30	691	0	10000	2	1	0	2	0
28	692	0	10000	2	1	0	2	0
28	693	0	10000	2	1	0	2	0
27	694	0	10000	2	1	0	2	0
26	695	0	10000	2	1	0	2	0
26	696	0	10000	2	1	0	2	0
26	697	0	10000	2	1	0	2	0
27	698	0	10000	2	1	0	2	0
26	699	0	10000	2	1	0	2	0
25	700	0	10000	2	1	0	2	0
24	701	0	10000	2	1	0	2	0
23	702	0	10000	2	1	0	2	0
22	703	0	10000	2	1	0	2	0
20	704	0	10000	2	1	0	2	0
20	705	0	10000	2	1	0	2	0
20	706	0	10000	2	1	0	2	0
20	707	0	10000	2	1	0	2	0
18	708	0	10000	2	1	0	2	0
18	709	0	10000	2	1	0	2	0
19	710	0	10000	2	1	0	2	0
20	711	0	10000	2	1	0	2	0
20	712	0	10000	2	1	0	2	0
20	713	0	10000	2	1	0	2	0
20	714	0	10000	2	1	0	2	0
19	715	0	10000	2	1	0	2	0
20	716	0	10000	2	1	0	2	0
20	717	0	10000	2	1	0	2	0
23	718	0	10000	2	1	0	2	0
24	719	0	10000	2	1	0	2	0
24	720	0	10000	2	1	0	2	0
22	721	0	10000	2	1	0	2	0
21	722	0	10000	2	1	0	2	0
22	723	0	10000	2	1	0	2	0
21	724	0	10000	2	1	0	2	0
21	725	0	10000	2	1	0	2	0
21	726	0	10000	2	1	0	2	0
22	727	0	10000	2	1	0	2	0
20	728	0	10000	2	1	0	2	0
21	729	0	10000	2	1	0	2	0
23	730	0	10000	2	1	0	2	0
22	731	0	10000	2	1	0	2	0
21	732	0	10000	2	1	0	2	0
21	733	0	10000	2	1	0	2	0
21	734	0	10000	2	1	0	2	0
20	735	0	10000	2	1	0	2	0
20	736	0	10000	2	1	0	2	0
20	737	0	10000	2	1	0	2	0
21	738	0	10000	2	1	0	2	0
21	739	0	10000	2	1	0	2	0
20	740	0	10000	2	1	0	2	0
20	741	0	10000	2	1	0	2	0
19	742	0	10000	2	1	0	2	0
19	743	0	10000	2	1	0	2	0
21	744	0	10000	2	1	0	2	0
22	745	0	10000	2	1	0	2	0
22	746	0	10000	2	1	0	2	0
22	747	0	10000	2	1	0	2	0
19	748	0	10000	2	1	0	2	0
18	749	0	10000	2	1	0	2	0
19	750	0	10000	2	1	0	2	0
19	751	0	10000	2	1	0	2	0
18	752	0	10000	2	1	0	2	0
19	753	0	10000	2	1	0	2	0
20	754	0	10000	2	1	0	2	0
19	755	0	10000	2	1	0	2	0
20	756	0	10000	2	1	0	2	0
20	757	0	10000	2	1	0	2	0
22	758	0	10000	2	1	0	2	0
20	759	0	10000	2	1	0	2	0
20	760	0	10000	2	1	0	2	0
20	761	0	10000	2	1	0	2	0
20	762	0	10000	2	1	0	2	0
19	763	0	10000	2	1	0	2	0
18	764	0	10000	2	1	0	2	0
19	765	0	10000	2	1	0	2	0
19	766	0	10000	2	1	0	2	0
19	767	0	10000	2	1	0	2	0
16	768	0	10000	2	1	0	2	0
16	769	0	10000	2	1	0	2	0
16	770	0	10000	2	1	0	2	0
16	771	0	10000	2	1	0	2	0
16	772	0	10000	2	1	0	2	0
17	773	0	10000	2	1	0	2	0
19	774	0	10000	2	1	0	2	0
23	775	0	10000	2	1	0	2	0
29	776	0	10000	2	1	0	2	0
34	777	0	10000	2	1	0	2	0
40	778	0	10000	2	1	0	2	0
43	779	0	10000	2	1	0	2	0
43	780	0	10000	2	1	0	2	0
42	781	0	10000	2	1	0	2	0
42	782	0	10000	2	1	0	2	0
41	783	0	10000	2	1	0	2	0
41	784	0	10000	2	1	0	2	0
42	785	0	10000	2	1	0	2	0
44	786	0	10000	2	1	0	2	0
45	787	0	10000	2	1	0	2	0
42	788	0	10000	2	1	0	2	0
42	789	0	10000	2	1	0	2	0
44	790	0	10000	2	1	0	2	0
47	791	0	10000	2	1	0	2	0
48	792	0	10000	2	1	0	2	0
48	793	0	10000	2	1	0	2	0
46	794	0	10000	2	1	0	2	0
44	795	0	10000	2	1	0	2	0
45	796	0	10000	2	1	0	2	0
46	797	0	10000	2	1	0	2	0
50	798	0	10000	2	1	0	2	0
51	799	0	10000	2	1	0	2	0
50	800	0	10000	2	1	0	2	0
48	801	0	10000	2	1	0	2	0
45	802	0	10000	2	1	0	2	0
44	803	0	10000	2	1	0	2	0
45	804	0	10000	2	1	0	2	0
48	805	0	10000	2	1	0	2	0
52	806	0	10000	2	1	0	2	0
54	807	0	10000	2	1	0	2	0
54	808	0	10000	2	1	0	2	0
54	809	0	10000	2	1	0	2	0
53	810	0	10000	2	1	0	2	0
52	811	0	10000	2	1	0	2	0
50	812	0	10000	2	1	0	2	0
48	813	0	10000	2	1	0	2	0
48	814	0	10000	2	1	0	2	0
46	815	0	10000	2	1	0	2	0
44	816	0	10000	2	1	0	2	0
43	817	0	10000	2	1	0	2	0
44	818	0	10000	2	1	0	2	0
44	819	0	10000	2	1	0	2	0
44	820	0	10000	2	1	0	2	0
45	821	0	10000	2	1	0	2	0
44	822	0	10000	2	1	0	2	0
43	823	0	10000	2	1	0	2	0
42	824	0	10000	2	1	0	2	0
43	825	0	10000	2	1	0	2	0
42	826	0	10000	2	1	0	2	0
40	827	0	10000	2	1	0	2	0
36	828	0	10000	2	1	0	2	0
35	829	0	10000	2	1	0	2	0
35	830	0	10000	2	1	0	2	0
36	831	0	10000	2	1	0	2	0
39	832	0	10000	2	1	0	2	0
41	833	0	10000	2	1	0	2	0
43	834	0	10000	2	1	0	2	0
45	835	0	10000	2	1	0	2	0
45	836	0	10000	2	1	0	2	0
45	837	0	10000	2	1	0	2	0
48	838	0	10000	2	1	0	2	0
47	839	0	10000	2	1	0	2	0
47	840	0	10000	2	1	0	2	0
50	841	0	10000	2	1	0	2	0
53	842	0	10000	2	1	0	2	0
50	843	0	10000	2	1	0	2	0
48	844	0	10000	2	1	0	2	0
47	845	0	10000	2	1	0	2	0
49	846	0	10000	2	1	0	2	0
49	847	0	10000	2	1	0	2	0
47	848	0	10000	2	1	0	2	0
51	849	0	10000	2	1	0	2	0
49	850	0	10000	2	1	0	2	0
50	851	0	10000	2	1	0	2	0
51	852	0	10000	2	1	0	2	0
51	853	0	10000	2	1	0	2	0
52	854	0	10000	2	1	0	2	0
49	855	0	10000	2	1	0	2	0
48	856	0	10000	2	1	0	2	0
45	857	0	10000	2	1	0	2	0
47	858	0	10000	2	1	0	2	0
46	859	0	10000	2	1	0	2	0
47	860	0	10000	2	1	0	2	0
47	861	0	10000	2	1	0	2	0
49	862	0	10000	2	1	0	2	0
51	863	0	10000	2	1	0	2	0
50	864	0	10000	2	1	0	2	0
50	865	0	10000	2	1	0	2	0
48	866	0	10000	2	1	0	2	0
46	867	0	10000	2	1	0	2	0
43	868	0	10000	2	1	0	2	0
43	869	0	10000	2	1	0	2	0
46	870	0	10000	2	1	0	2	0
48	871	0	10000	2	1	0	2	0
48	872	0	10000	2	1	0	2	0
47	873	0	10000	2	1	0	2	0
48	874	0	10000	2	1	0	2	0
50	875	0	10000	2	1	0	2	0
51	876	0	10000	2	1	0	2	0
49	877	0	10000	2	1	0	2	0
50	878	0	10000	2	1	0	2	0
47	879	0	10000	2	1	0	2	0
44	880	0	10000	2	1	0	2	0
44	881	0	10000	2	1	0	2	0
42	882	0	10000	2	1	0	2	0
40	883	0	10000	2	1	0	2	0
38	884	0	10000	2	1	0	2	0
37	885	0	10000	2	1	0	2	0
37	886	0	10000	2	1	0	2	0
36	887	0	10000	2	1	0	2	0
33	888	0	10000	2	1	0	2	0
32	889	0	10000	2	1	0	2	0
33	890	0	10000	2	1	0	2	0
33	891	0	10000	2	1	0	2	0
32	892	0	10000	2	1	0	2	0
32	893	0	10000	2	1	0	2	0
31	894	0	10000	2	1	0	2	0
29	895	0	10000	2	1	0	2	0
28	896	0	10000	2	1	0	2	0
26	897	0	10000	2	1	0	2	0
29	898	0	10000	2	1	0	2	0
27	899	0	10000	2	1	0	2	0
26	900	0	10000	2	1	0	2	0
26	901	0	10000	2	1	0	2	0
26	902	0	10000	2	1	0	2	0
25	903	0	10000	2	1	0	2	0
24	904	0	10000	2	1	0	2	0
25	905	0	10000	2	1	0	2	0
25	906	0	10000	2	1	0	2	0
29	907	0	10000	2	1	0	2	0
32	908	0	10000	2	1	0	2	0
35	909	0	10000	2	1	0	2	0
34	910	0	10000	2	1	0	2	0
33	911	0	10000	2	1	0	2	0
33	912	0	10000	2	1	0	2	0
32	913	0	10000	2	1	0	2	0
32	914	0	10000	2	1	0	2	0
32	915	0	10000	2	1	0	2	0
33	916	0	10000	2	1	0	2	0
34	917	0	10000	2	1	0	2	0
37	918	0	10000	2	1	0	2	0
37	919	0	10000	2	1	0	2	0
37	920	0	10000	2	1	0	2	0
36	921	0	10000	2	1	0	2	0
34	922	0	10000	2	1	0	2	0
33	923	0	10000	2	1	0	2	0
32	924	0	10000	2	1	0	2	0
33	925	0	10000	2	1	0	2	0
35	926	0	10000	2	1	0	2	0
34	927	0	10000	2	1	0	2	0
31	928	0	10000	2	1	0	2	0
30	929	0	10000	2	1	0	2	0
29	930	0	10000	2	1	0	2	0
29	931	0	10000	2	1	0	2	0
28	932	0	10000	2	1	0	2	0
27	933	0	10000	2	1	0	2	0
27	934	0	10000	2	1	0	2	0
25	935	0	10000	2	1	0	2	0
25	936	0	10000	2	1	0	2	0
25	937	0	10000	2	1	0	2	0
28	938	0	10000	2	1	0	2	0
28	939	0	10000	2	1	0	2	0
27	940	0	10000	2	1	0	2	0
28	941	0	10000	2	1	0	2	0
31	942	0	10000	2	1	0	2	0
34	943	0	10000	2	1	0	2	0
36	944	0	10000	2	1	0	2	0
38	945	0	10000	2	1	0	2	0
39	946	0	10000	2	1	0	2	0
39	947	0	10000	2	1	0	2	0
37	948	0	10000	2	1	0	2	0
36	949	0	10000	2	1	0	2	0
34	950	0	10000	2	1	0	2	0
34	951	0	10000	2	1	0	2	0
32	952	0	10000	2	1	0	2	0
31	953	0	10000	2	1	0	2	0
30	954	0	10000	2	1	0	2	0
29	955	0	10000	2	1	0	2	0
29	956	0	10000	2	1	0	2	0
29	957	0	10000	2	1	0	2	0
31	958	0	10000	2	1	0	2	0
30	959	0	10000	2	1	0	2	0
31	960	0	10000	2	1	0	2	0
30	961	0	10000	2	1	0	2	0
29	962	0	10000	2	1	0	2	0
28	963	0	10000	2	1	0	2	0
27	964	0	10000	2	1	0	2	0
27	965	0	10000	2	1	0	2	0
26	966	0	10000	2	1	0	2	0
26	967	0	10000	2	1	0	2	0
23	968	0	10000	2	1	0	2	0
24	969	0	10000	2	1	0	2	0
23	970	0	10000	2	1	0	2	0
24	971	0	10000	2	1	0	2	0
24	972	0	10000	2	1	0	2	0
23	973	0	10000	2	1	0	2	0
22	974	0	10000	2	1	0	2	0
20	975	0	10000	2	1	0	2	0
20	976	0	10000	2	1	0	2	0
19	977	0	10000	2	1	0	2	0
20	978	0	10000	2	1	0	2	0
19	979	0	10000	2	1	0	2	0
18	980	0	10000	2	1	0	2	0
18	981	0	10000	2	1	0	2	0
19	982	0	10000	2	1	0	2	0
20	983	0	10000	2	1	0	2	0
22	984	0	10000	2	1	0	2	0
22	985	0	10000	2	1	0	2	0
22	986	0	10000	2	1	0	2	0
22	987	0	10000	2	1	0	2	0
26	988	0	10000	2	1	0	2	0
37	989	0	10000	2	1	0	2	0
50	990	0	10000	2	1	0	2	0
61	991	0	10000	2	1	0	2	0
71	992	0	10000	2	1	0	2	0
76	993	0	10000	2	1	0	2	0
74	994	0	10000	2	1	0	2	0
71	995	0	10000	2	1	0	2	0
74	996	0	10000	2	1	0	2	0
80	997	0	10000	2	1	0	2	0
90	998	0	10000	2	1	0	2	0
95	999	0	10000	2	1	0	2	0
99	1000	0	10000	2	1	0	2	0
100	1001	0	10000	2	1	0	2	0
272	2	7	10000	3	1	0	3	0
275	3	7	10000	3	1	0	3	0
279	4	7	10000	3	1	0	3	0
282	5	7	10000	3	1	0	3	0
286	6	7	10000	3	1	0	3	0
290	7	7	10000	3	1	0	3	0
293	8	7	10000	3	1	0	3	0
297	9	7	10000	3	1	0	3	0
297	10	7	10000	3	1	0	3	0
297	11	7	10000	3	1	0	3	0
295	12	7	10000	3	1	0	3	0
289	13	7	10000	3	1	0	3	0
284	14	7	10000	3	1	0	3	0
283	15	7	10000	3	1	0	3	0
282	16	7	10000	3	1	0	3	0
281	17	7	10000	3	1	0	3	0
277	18	7	10000	3	1	0	3	0
274	19	7	10000	3	1	0	3	0
269	20	7	10000	3	1	0	3	0
262	21	7	10000	3	1	0	3	0
256	21	7	10000	3	1	0	3	0
250	22	7	10000	3	1	0	3	0
245	24	7	10000	3	1	0	3	0
239	25	7	10000	3	1	0	3	0
232	26	7	10000	3	1	0	3	0
222	27	7	10000	3	1	0	3	0
211	28	7	10000	3	1	0	3	0
201	29	7	10000	3	1	0	3	0
192	30	7	10000	3	1	0	3	0
185	31	7	10000	3	1	0	3	0
178	31	7	10000	3	1	0	3	0
171	32	7	10000	3	1	0	3	0
164	34	7	10000	3	1	0	3	0
157	35	7	10000	3	1	0	3	0
151	36	7	10000	3	1	0	3	0
147	37	7	10000	3	1	0	3	0
142	38	7	10000	3	1	0	3	0
138	39	7	10000	3	1	0	3	0
134	40	7	10000	3	1	0	3	0
128	41	7	10000	3	1	0	3	0
124	41	7	10000	3	1	0	3	0
121	42	7	10000	3	1	0	3	0
119	44	7	10000	3	1	0	3	0
116	45	7	10000	3	1	0	3	0
112	46	7	10000	3	1	0	3	0
112	47	7	10000	3	1	0	3	0
112	48	7	10000	3	1	0	3	0
109	49	7	10000	3	1	0	3	0
107	50	7	10000	3	1	0	3	0
107	51	7	10000	3	1	0	3	0
108	51	7	10000	3	1	0	3	0
108	52	7	10000	3	1	0	3	0
107	54	7	10000	3	1	0	3	0
106	55	7	10000	3	1	0	3	0
105	56	7	10000	3	1	0	3	0
105	57	7	10000	3	1	0	3	0
106	58	7	10000	3	1	0	3	0
107	59	7	10000	3	1	0	3	0
106	60	7	10000	3	1	0	3	0
105	61	7	10000	3	1	0	3	0
104	61	7	10000	3	1	0	3	0
105	62	7	10000	3	1	0	3	0
108	64	7	10000	3	1	0	3	0
108	65	7	10000	3	1	0	3	0
109	66	7	10000	3	1	0	3	0
109	67	7	10000	3	1	0	3	0
109	68	7	10000	3	1	0	3	0
107	69	7	10000	3	1	0	3	0
107	70	7	10000	3	1	0	3	0
107	71	7	10000	3	1	0	3	0
107	71	7	10000	3	1	0	3	0
105	72	7	10000	3	1	0	3	0
103	74	7	10000	3	1	0	3	0
104	75	7	10000	3	1	0	3	0
104	76	7	10000	3	1	0	3	0
106	77	7	10000	3	1	0	3	0
107	78	7	10000	3	1	0	3	0
106	79	7	10000	3	1	0	3	0
105	80	7	10000	3	1	0	3	0
103	81	7	10000	3	1	0	3	0
100	81	7	10000	3	1	0	3	0
98	82	7	10000	3	1	0	3	0
95	84	7	10000	3	1	0	3	0
91	85	7	10000	3	1	0	3	0
89	86	7	10000	3	1	0	3	0
86	87	7	10000	3	1	0	3	0
85	88	7	10000	3	1	0	3	0
86	89	7	10000	3	1	0	3	0
88	90	7	10000	3	1	0	3	0
89	91	7	10000	3	1	0	3	0
90	91	7	10000	3	1	0	3	0
88	92	7	10000	3	1	0	3	0
86	94	7	10000	3	1	0	3	0
84	95	7	10000	3	1	0	3	0
85	96	7	10000	3	1	0	3	0
84	97	7	10000	3	1	0	3	0
81	98	7	10000	3	1	0	3	0
78	99	7	10000	3	1	0	3	0
75	100	7	10000	3	1	0	3	0
72	101	7	10000	3	1	0	3	0
68	101	7	10000	3	1	0	3	0
67	102	7	10000	3	1	0	3	0
66	104	7	10000	3	1	0	3	0
63	105	7	10000	3	1	0	3	0
61	106	7	10000	3	1	0	3	0
60	107	7	10000	3	1	0	3	0
58	108	7	10000	3	1	0	3	0
56	109	7	10000	3	1	0	3	0
55	110	7	10000	3	1	0	3	0
52	111	7	10000	3	1	0	3	0
52	111	7	10000	3	1	0	3	0
53	112	7	10000	3	1	0	3	0
53	114	7	10000	3	1	0	3	0
53	115	7	10000	3	1	0	3	0
53	116	7	10000	3	1	0	3	0
52	117	7	10000	3	1	0	3	0
51	118	7	10000	3	1	0	3	0
50	119	7	10000	3	1	0	3	0
47	120	7	10000	3	1	0	3	0
45	121	7	10000	3	1	0	3	0
43	121	7	10000	3	1	0	3	0
42	122	7	10000	3	1	0	3	0
42	124	7	10000	3	1	0	3	0
42	125	7	10000	3	1	0	3	0
41	126	7	10000	3	1	0	3	0
40	127	7	10000	3	1	0	3	0
39	128	7	10000	3	1	0	3	0
38	129	7	10000	3	1	0	3	0
37	130	7	10000	3	1	0	3	0
37	131	7	10000	3	1	0	3	0
36	131	7	10000	3	1	0	3	0
34	132	7	10000	3	1	0	3	0
33	134	7	10000	3	1	0	3	0
33	135	7	10000	3	1	0	3	0
32	136	7	10000	3	1	0	3	0
31	137	7	10000	3	1	0	3	0
32	138	7	10000	3	1	0	3	0
32	139	7	10000	3	1	0	3	0
33	140	7	10000	3	1	0	3	0
32	141	7	10000	3	1	0	3	0
31	141	7	10000	3	1	0	3	0
31	142	7	10000	3	1	0	3	0
32	144	7	10000	3	1	0	3	0
31	145	7	10000	3	1	0	3	0
30	146	7	10000	3	1	0	3	0
28	147	7	10000	3	1	0	3	0
27	148	7	10000	3	1	0	3	0
27	149	7	10000	3	1	0	3	0
28	150	7	10000	3	1	0	3	0
28	151	7	10000	3	1	0	3	0
27	151	7	10000	3	1	0	3	0
26	152	7	10000	3	1	0	3	0
23	154	7	10000	3	1	0	3	0
23	155	7	10000	3	1	0	3	0
23	156	7	10000	3	1	0	3	0
22	157	7	10000	3	1	0	3	0
22	158	7	10000	3	1	0	3	0
22	159	7	10000	3	1	0	3	0
22	160	7	10000	3	1	0	3	0
20	161	7	10000	3	1	0	3	0
19	161	7	10000	3	1	0	3	0
19	162	7	10000	3	1	0	3	0
22	164	7	10000	3	1	0	3	0
22	165	7	10000	3	1	0	3	0
22	166	7	10000	3	1	0	3	0
22	167	7	10000	3	1	0	3	0
21	168	7	10000	3	1	0	3	0
20	169	7	10000	3	1	0	3	0
20	170	7	10000	3	1	0	3	0
20	171	7	10000	3	1	0	3	0
20	171	7	10000	3	1	0	3	0
20	172	7	10000	3	1	0	3	0
20	174	7	10000	3	1	0	3	0
21	175	7	10000	3	1	0	3	0
20	176	7	10000	3	1	0	3	0
21	177	7	10000	3	1	0	3	0
21	178	7	10000	3	1	0	3	0
23	179	7	10000	3	1	0	3	0
25	180	7	10000	3	1	0	3	0
24	181	7	10000	3	1	0	3	0
23	181	7	10000	3	1	0	3	0
22	182	7	10000	3	1	0	3	0
24	184	7	10000	3	1	0	3	0
23	185	7	10000	3	1	0	3	0
22	186	7	10000	3	1	0	3	0
23	187	7	10000	3	1	0	3	0
25	188	7	10000	3	1	0	3	0
26	189	7	10000	3	1	0	3	0
26	190	7	10000	3	1	0	3	0
26	191	7	10000	3	1	0	3	0
25	191	7	10000	3	1	0	3	0
26	192	7	10000	3	1	0	3	0
25	194	7	10000	3	1	0	3	0
25	195	7	10000	3	1	0	3	0
24	196	7	10000	3	1	0	3	0
24	197	7	10000	3	1	0	3	0
24	198	7	10000	3	1	0	3	0
25	199	7	10000	3	1	0	3	0
27	200	7	10000	3	1	0	3	0
30	201	7	10000	3	1	0	3	0
34	201	7	10000	3	1	0	3	0
39	202	7	10000	3	1	0	3	0
46	204	7	10000	3	1	0	3	0
49	205	7	10000	3	1	0	3	0
51	206	7	10000	3	1	0	3	0
51	207	7	10000	3	1	0	3	0
52	208	7	10000	3	1	0	3	0
51	209	7	10000	3	1	0	3	0
50	210	7	10000	3	1	0	3	0
51	211	7	10000	3	1	0	3	0
50	211	7	10000	3	1	0	3	0
47	212	7	10000	3	1	0	3	0
44	214	7	10000	3	1	0	3	0
44	215	7	10000	3	1	0	3	0
45	216	7	10000	3	1	0	3	0
46	217	7	10000	3	1	0	3	0
45	218	7	10000	3	1	0	3	0
45	219	7	10000	3	1	0	3	0
44	220	7	10000	3	1	0	3	0
42	221	7	10000	3	1	0	3	0
41	221	7	10000	3	1	0	3	0
41	222	7	10000	3	1	0	3	0
42	224	7	10000	3	1	0	3	0
43	225	7	10000	3	1	0	3	0
43	226	7	10000	3	1	0	3	0
40	227	7	10000	3	1	0	3	0
38	228	7	10000	3	1	0	3	0
38	229	7	10000	3	1	0	3	0
38	230	7	10000	3	1	0	3	0
40	231	7	10000	3	1	0	3	0
43	231	7	10000	3	1	0	3	0
45	232	7	10000	3	1	0	3	0
45	234	7	10000	3	1	0	3	0
46	235	7	10000	3	1	0	3	0
47	236	7	10000	3	1	0	3	0
47	237	7	10000	3	1	0	3	0
47	238	7	10000	3	1	0	3	0
47	239	7	10000	3	1	0	3	0
47	240	7	10000	3	1	0	3	0
46	241	7	10000	3	1	0	3	0
46	241	7	10000	3	1	0	3	0
47	242	7	10000	3	1	0	3	0
48	244	7	10000	3	1	0	3	0
47	245	7	10000	3	1	0	3	0
48	246	7	10000	3	1	0	3	0
48	247	7	10000	3	1	0	3	0
47	248	7	10000	3	1	0	3	0
45	249	7	10000	3	1	0	3	0
43	250	7	10000	3	1	0	3	0
43	251	7	10000	3	1	0	3	0
44	251	7	10000	3	1	0	3	0
46	252	7	10000	3	1	0	3	0
46	254	7	10000	3	1	0	3	0
46	255	7	10000	3	1	0	3	0
46	256	7	10000	3	1	0	3	0
45	257	7	10000	3	1	0	3	0
45	258	7	10000	3	1	0	3	0
44	259	7	10000	3	1	0	3	0
43	260	7	10000	3	1	0	3	0
41	261	7	10000	3	1	0	3	0
39	261	7	10000	3	1	0	3	0
39	262	7	10000	3	1	0	3	0
41	264	7	10000	3	1	0	3	0
40	265	7	10000	3	1	0	3	0
38	266	7	10000	3	1	0	3	0
36	267	7	10000	3	1	0	3	0
36	268	7	10000	3	1	0	3	0
36	269	7	10000	3	1	0	3	0
36	270	7	10000	3	1	0	3	0
35	271	7	10000	3	1	0	3	0
35	271	7	10000	3	1	0	3	0
33	272	7	10000	3	1	0	3	0
31	274	7	10000	3	1	0	3	0
32	275	7	10000	3	1	0	3	0
31	276	7	10000	3	1	0	3	0
30	277	7	10000	3	1	0	3	0
28	278	7	10000	3	1	0	3	0
28	279	7	10000	3	1	0	3	0
28	280	7	10000	3	1	0	3	0
25	281	7	10000	3	1	0	3	0
25	281	7	10000	3	1	0	3	0
23	282	7	10000	3	1	0	3	0
25	284	7	10000	3	1	0	3	0
24	285	7	10000	3	1	0	3	0
24	286	7	10000	3	1	0	3	0
22	287	7	10000	3	1	0	3	0
22	288	7	10000	3	1	0	3	0
22	289	7	10000	3	1	0	3	0
21	290	7	10000	3	1	0	3	0
20	291	7	10000	3	1	0	3	0
20	291	7	10000	3	1	0	3	0
19	292	7	10000	3	1	0	3	0
17	294	7	10000	3	1	0	3	0
16	295	7	10000	3	1	0	3	0
18	296	7	10000	3	1	0	3	0
17	297	7	10000	3	1	0	3	0
17	298	7	10000	3	1	0	3	0
18	299	7	10000	3	1	0	3	0
18	300	7	10000	3	1	0	3	0
17	301	7	10000	3	1	0	3	0
16	301	7	10000	3	1	0	3	0
17	302	7	10000	3	1	0	3	0
18	304	7	10000	3	1	0	3	0
16	305	7	10000	3	1	0	3	0
15	306	7	10000	3	1	0	3	0
14	307	7	10000	3	1	0	3	0
14	308	7	10000	3	1	0	3	0
13	309	7	10000	3	1	0	3	0
14	310	7	10000	3	1	0	3	0
14	311	7	10000	3	1	0	3	0
14	311	7	10000	3	1	0	3	0
14	312	7	10000	3	1	0	3	0
12	314	7	10000	3	1	0	3	0
14	315	7	10000	3	1	0	3	0
15	316	7	10000	3	1	0	3	0
15	317	7	10000	3	1	0	3	0
15	318	7	10000	3	1	0	3	0
15	319	7	10000	3	1	0	3	0
15	320	7	10000	3	1	0	3	0
14	321	7	10000	3	1	0	3	0
13	321	7	10000	3	1	0	3	0
14	322	7	10000	3	1	0	3	0
18	324	7	10000	3	1	0	3	0
19	325	7	10000	3	1	0	3	0
20	326	7	10000	3	1	0	3	0
20	327	7	10000	3	1	0	3	0
20	328	7	10000	3	1	0	3	0
21	329	7	10000	3	1	0	3	0
21	330	7	10000	3	1	0	3	0
24	331	7	10000	3	1	0	3	0
23	331	7	10000	3	1	0	3	0
22	332	7	10000	3	1	0	3	0
19	334	7	10000	3	1	0	3	0
19	335	7	10000	3	1	0	3	0
20	336	7	10000	3	1	0	3	0
19	337	7	10000	3	1	0	3	0
19	338	7	10000	3	1	0	3	0
18	339	7	10000	3	1	0	3	0
18	340	7	10000	3	1	0	3	0
18	341	7	10000	3	1	0	3	0
18	341	7	10000	3	1	0	3	0
18	342	7	10000	3	1	0	3	0
21	344	7	10000	3	1	0	3	0
21	345	7	10000	3	1	0	3	0
19	346	7	10000	3	1	0	3	0
19	347	7	10000	3	1	0	3	0
18	348	7	10000	3	1	0	3	0
18	349	7	10000	3	1	0	3	0
17	350	7	10000	3	1	0	3	0
19	351	7	10000	3	1	0	3	0
20	351	7	10000	3	1	0	3	0
21	352	7	10000	3	1	0	3	0
19	354	7	10000	3	1	0	3	0
19	355	7	10000	3	1	0	3	0
19	356	7	10000	3	1	0	3	0
19	357	7	10000	3	1	0	3	0
19	358	7	10000	3	1	0	3	0
20	359	7	10000	3	1	0	3	0
20	360	7	10000	3	1	0	3	0
19	361	7	10000	3	1	0	3	0
18	361	7	10000	3	1	0	3	0
18	362	7	10000	3	1	0	3	0
19	364	7	10000	3	1	0	3	0
19	365	7	10000	3	1	0	3	0
18	366	7	10000	3	1	0	3	0
17	367	7	10000	3	1	0	3	0
17	368	7	10000	3	1	0	3	0
16	369	7	10000	3	1	0	3	0
15	370	7	10000	3	1	0	3	0
16	371	7	10000	3	1	0	3	0
19	371	7	10000	3	1	0	3	0
20	372	7	10000	3	1	0	3	0
17	374	7	10000	3	1	0	3	0
17	375	7	10000	3	1	0	3	0
18	376	7	10000	3	1	0	3	0
20	377	7	10000	3	1	0	3	0
20	378	7	10000	3	1	0	3	0
22	379	7	10000	3	1	0	3	0
23	380	7	10000	3	1	0	3	0
22	381	7	10000	3	1	0	3	0
21	381	7	10000	3	1	0	3	0
20	382	7	10000	3	1	0	3	0
22	384	7	10000	3	1	0	3	0
23	385	7	10000	3	1	0	3	0
25	386	7	10000	3	1	0	3	0
26	387	7	10000	3	1	0	3	0
26	388	7	10000	3	1	0	3	0
26	389	7	10000	3	1	0	3	0
25	390	7	10000	3	1	0	3	0
25	391	7	10000	3	1	0	3	0
25	391	7	10000	3	1	0	3	0
24	392	7	10000	3	1	0	3	0
22	394	7	10000	3	1	0	3	0
21	395	7	10000	3	1	0	3	0
20	396	7	10000	3	1	0	3	0
20	397	7	10000	3	1	0	3	0
20	398	7	10000	3	1	0	3	0
21	399	7	10000	3	1	0	3	0
21	400	7	10000	3	1	0	3	0
20	401	7	10000	3	1	0	3	0
20	401	7	10000	3	1	0	3	0
19	402	7	10000	3	1	0	3	0
21	404	7	10000	3	1	0	3	0
20	405	7	10000	3	1	0	3	0
20	406	7	10000	3	1	0	3	0
20	407	7	10000	3	1	0	3	0
21	408	7	10000	3	1	0	3	0
22	409	7	10000	3	1	0	3	0
22	410	7	10000	3	1	0	3	0
23	411	7	10000	3	1	0	3	0
22	411	7	10000	3	1	0	3	0
23	412	7	10000	3	1	0	3	0
22	414	7	10000	3	1	0	3	0
22	415	7	10000	3	1	0	3	0
21	416	7	10000	3	1	0	3	0
21	417	7	10000	3	1	0	3	0
21	418	7	10000	3	1	0	3	0
21	419	7	10000	3	1	0	3	0
21	420	7	10000	3	1	0	3	0
21	421	7	10000	3	1	0	3	0
22	421	7	10000	3	1	0	3	0
21	422	7	10000	3	1	0	3	0
22	424	7	10000	3	1	0	3	0
21	425	7	10000	3	1	0	3	0
20	426	7	10000	3	1	0	3	0
19	427	7	10000	3	1	0	3	0
18	428	7	10000	3	1	0	3	0
18	429	7	10000	3	1	0	3	0
17	430	7	10000	3	1	0	3	0
17	431	7	10000	3	1	0	3	0
17	431	7	10000	3	1	0	3	0
17	432	7	10000	3	1	0	3	0
14	434	7	10000	3	1	0	3	0
14	435	7	10000	3	1	0	3	0
14	436	7	10000	3	1	0	3	0
15	437	7	10000	3	1	0	3	0
15	438	7	10000	3	1	0	3	0
15	439	7	10000	3	1	0	3	0
15	440	7	10000	3	1	0	3	0
14	441	7	10000	3	1	0	3	0
13	441	7	10000	3	1	0	3	0
12	442	7	10000	3	1	0	3	0
14	444	7	10000	3	1	0	3	0
14	445	7	10000	3	1	0	3	0
13	446	7	10000	3	1	0	3	0
13	447	7	10000	3	1	0	3	0
13	448	7	10000	3	1	0	3	0
12	449	7	10000	3	1	0	3	0
12	450	7	10000	3	1	0	3	0
13	451	7	10000	3	1	0	3	0
12	451	7	10000	3	1	0	3	0
12	452	7	10000	3	1	0	3	0
11	454	7	10000	3	1	0	3	0
11	455	7	10000	3	1	0	3	0
12	456	7	10000	3	1	0	3	0
12	457	7	10000	3	1	0	3	0
12	458	7	10000	3	1	0	3	0
12	459	7	10000	3	1	0	3	0
13	460	7	10000	3	1	0	3	0
13	461	7	10000	3	1	0	3	0
13	461	7	10000	3	1	0	3	0
13	462	7	10000	3	1	0	3	0
16	464	7	10000	3	1	0	3	0
17	465	7	10000	3	1	0	3	0
18	466	7	10000	3	1	0	3	0
19	467	7	10000	3	1	0	3	0
19	468	7	10000	3	1	0	3	0
17	469	7	10000	3	1	0	3	0
18	470	7	10000	3	1	0	3	0
20	471	7	10000	3	1	0	3	0
20	471	7	10000	3	1	0	3	0
21	472	7	10000	3	1	0	3	0
20	474	7	10000	3	1	0	3	0
20	475	7	10000	3	1	0	3	0
20	476	7	10000	3	1	0	3	0
20	477	7	10000	3	1	0	3	0
21	478	7	10000	3	1	0	3	0
22	479	7	10000	3	1	0	3	0
22	480	7	10000	3	1	0	3	0
21	481	7	10000	3	1	0	3	0
20	481	7	10000	3	1	0	3	0
19	482	7	10000	3	1	0	3	0
21	484	7	10000	3	1	0	3	0
21	485	7	10000	3	1	0	3	0
20	486	7	10000	3	1	0	3	0
20	487	7	10000	3	1	0	3	0
20	488	7	10000	3	1	0	3	0
21	489	7	10000	3	1	0	3	0
21	490	7	10000	3	1	0	3	0
20	491	7	10000	3	1	0	3	0
21	491	7	10000	3	1	0	3	0
21	492	7	10000	3	1	0	3	0
18	494	7	10000	3	1	0	3	0
18	495	7	10000	3	1	0	3	0
19	496	7	10000	3	1	0	3	0
20	497	7	10000	3	1	0	3	0
22	498	7	10000	3	1	0	3	0
24	499	7	10000	3	1	0	3	0
24	500	7	10000	3	1	0	3	0
23	501	7	10000	3	1	0	3	0
24	502	7	10000	3	1	0	3	1
23	503	7	10000	3	1	0	3	1
25	504	7	10000	3	1	0	3	1
26	505	7	10000	3	1	0	3	1
27	506	7	10000	3	1	0	3	1
29	507	7	10000	3	1	0	3	1
30	508	7	10000	3	1	0	3	1
32	509	7	10000	3	1	0	3	1
31	510	7	10000	3	1	0	3	1
31	511	7	10000	3	1	0	3	1
30	511	7	10000	3	1	0	3	1
30	512	7	10000	3	1	0	3	1
28	514	7	10000	3	1	0	3	1
30	515	7	10000	3	1	0	3	1
30	516	7	10000	3	1	0	3	1
31	517	7	10000	3	1	0	3	1
29	518	7	10000	3	1	0	3	1
29	519	7	10000	3	1	0	3	1
29	520	7	10000	3	1	0	3	1
28	521	7	10000	3	1	0	3	1
28	521	7	10000	3	1	0	3	1
29	522	7	10000	3	1	0	3	1
32	524	7	10000	3	1	0	3	1
30	525	7	10000	3	1	0	3	1
28	526	7	10000	3	1	0	3	1
28	527	7	10000	3	1	0	3	1
27	528	7	10000	3	1	0	3	1
27	529	7	10000	3	1	0	3	1
25	530	7	10000	3	1	0	3	1
26	531	7	10000	3	1	0	3	1
26	531	7	10000	3	1	0	3	1
27	532	7	10000	3	1	0	3	1
24	534	7	10000	3	1	0	3	1
24	535	7	10000	3	1	0	3	1
25	536	7	10000	3	1	0	3	1
25	537	7	10000	3	1	0	3	1
26	538	7	10000	3	1	0	3	1
28	539	7	10000	3	1	0	3	1
30	540	7	10000	3	1	0	3	1
29	541	7	10000	3	1	0	3	1
28	541	7	10000	3	1	0	3	1
27	542	7	10000	3	1	0	3	1
29	544	7	10000	3	1	0	3	1
30	545	7	10000	3	1	0	3	1
31	546	7	10000	3	1	0	3	1
30	547	7	10000	3	1	0	3	1
29	548	7	10000	3	1	0	3	1
31	549	7	10000	3	1	0	3	1
32	550	7	10000	3	1	0	3	1
33	551	7	10000	3	1	0	3	1
33	551	7	10000	3	1	0	3	0
33	552	7	10000	3	1	0	3	0
33	554	7	10000	3	1	0	3	0
34	555	7	10000	3	1	0	3	0
35	556	7	10000	3	1	0	3	0
35	557	7	10000	3	1	0	3	0
34	558	7	10000	3	1	0	3	0
34	559	7	10000	3	1	0	3	0
34	560	7	10000	3	1	0	3	0
33	561	7	10000	3	1	0	3	0
31	561	7	10000	3	1	0	3	0
31	562	7	10000	3	1	0	3	0
32	564	7	10000	3	1	0	3	0
31	565	7	10000	3	1	0	3	0
30	566	7	10000	3	1	0	3	0
29	567	7	10000	3	1	0	3	0
28	568	7	10000	3	1	0	3	0
26	569	7	10000	3	1	0	3	0
25	570	7	10000	3	1	0	3	0
25	571	7	10000	3	1	0	3	0
26	571	7	10000	3	1	0	3	0
27	572	7	10000	3	1	0	3	0
24	574	7	10000	3	1	0	3	0
23	575	7	10000	3	1	0	3	0
23	576	7	10000	3	1	0	3	0
23	577	7	10000	3	1	0	3	0
22	578	7	10000	3	1	0	3	0
23	579	7	10000	3	1	0	3	0
24	580	7	10000	3	1	0	3	0
23	581	7	10000	3	1	0	3	0
21	581	7	10000	3	1	0	3	0
20	582	7	10000	3	1	0	3	0
22	584	7	10000	3	1	0	3	0
21	585	7	10000	3	1	0	3	0
20	586	7	10000	3	1	0	3	0
20	587	7	10000	3	1	0	3	0
19	588	7	10000	3	1	0	3	0
19	589	7	10000	3	1	0	3	0
18	590	7	10000	3	1	0	3	0
19	591	7	10000	3	1	0	3	0
19	591	7	10000	3	1	0	3	0
22	592	7	10000	3	1	0	3	0
20	594	7	10000	3	1	0	3	0
24	595	7	10000	3	1	0	3	0
30	596	7	10000	3	1	0	3	0
30	597	7	10000	3	1	0	3	0
32	598	7	10000	3	1	0	3	0
33	599	7	10000	3	1	0	3	0
33	600	7	10000	3	1	0	3	0
36	601	7	10000	3	1	0	3	0
39	601	7	10000	3	1	0	3	0
50	602	7	10000	3	1	0	3	0
65	604	7	10000	3	1	0	3	0
73	605	7	10000	3	1	0	3	0
85	606	7	10000	3	1	0	3	0
99	607	7	10000	3	1	0	3	0
107	608	7	10000	3	1	0	3	0
108	609	7	10000	3	1	0	3	0
114	610	7	10000	3	1	0	3	0
157	611	7	10000	3	1	0	3	0
190	611	7	10000	3	1	0	3	0
189	612	7	10000	3	1	0	3	0
198	614	7	10000	3	1	0	3	0
203	615	7	10000	3	1	0	3	0
196	616	7	10000	3	1	0	3	0
196	617	7	10000	3	1	0	3	0
215	618	7	10000	3	1	0	3	0
248	619	7	10000	3	1	0	3	0
260	620	7	10000	3	1	0	3	0
278	621	7	10000	3	1	0	3	0
309	621	7	10000	3	1	0	3	0
305	622	7	10000	3	1	0	3	0
320	624	7	10000	3	1	0	3	0
343	625	7	10000	3	1	0	3	0
363	626	7	10000	3	1	0	3	0
375	627	7	10000	3	1	0	3	0
377	628	7	10000	3	1	0	3	0
370	629	7	10000	3	1	0	3	0
353	630	7	10000	3	1	0	3	0
341	631	7	10000	3	1	0	3	0
331	631	7	10000	3	1	0	3	0
319	632	7	10000	3	1	0	3	0
313	634	7	10000	3	1	0	3	0
319	635	7	10000	3	1	0	3	0
327	636	7	10000	3	1	0	3	0
326	637	7	10000	3	1	0	3	0
323	638	7	10000	3	1	0	3	0
321	639	7	10000	3	1	0	3	0
317	640	7	10000	3	1	0	3	0
312	641	7	10000	3	1	0	3	0
307	641	7	10000	3	1	0	3	0
301	642	7	10000	3	1	0	3	0
294	644	7	10000	3	1	0	3	0
285	645	7	10000	3	1	0	3	0
276	646	7	10000	3	1	0	3	0
266	647	7	10000	3	1	0	3	0
258	648	7	10000	3	1	0	3	0
247	649	7	10000	3	1	0	3	0
236	650	7	10000	3	1	0	3	0
227	651	7	10000	3	1	0	3	0
218	651	7	10000	3	1	0	3	0
210	652	7	10000	3	1	0	3	0
201	654	7	10000	3	1	0	3	0
195	655	7	10000	3	1	0	3	0
190	656	7	10000	3	1	0	3	0
186	657	7	10000	3	1	0	3	0
181	658	7	10000	3	1	0	3	0
177	659	7	10000	3	1	0	3	0
174	660	7	10000	3	1	0	3	0
173	661	7	10000	3	1	0	3	0
173	661	7	10000	3	1	0	3	0
171	662	7	10000	3	1	0	3	0
171	664	7	10000	3	1	0	3	0
170	665	7	10000	3	1	0	3	0
168	666	7	10000	3	1	0	3	0
165	667	7	10000	3	1	0	3	0
164	668	7	10000	3	1	0	3	0
165	669	7	10000	3	1	0	3	0
166	670	7	10000	3	1	0	3	0
169	671	7	10000	3	1	0	3	0
172	671	7	10000	3	1	0	3	0
176	672	7	10000	3	1	0	3	0
177	674	7	10000	3	1	0	3	0
179	675	7	10000	3	1	0	3	0
179	676	7	10000	3	1	0	3	0
177	677	7	10000	3	1	0	3	0
175	678	7	10000	3	1	0	3	0
171	679	7	10000	3	1	0	3	0
167	680	7	10000	3	1	0	3	0
164	681	7	10000	3	1	0	3	0
163	681	7	10000	3	1	0	3	0
163	682	7	10000	3	1	0	3	0
164	684	7	10000	3	1	0	3	0
164	685	7	10000	3	1	0	3	0
164	686	7	10000	3	1	0	3	0
162	687	7	10000	3	1	0	3	0
162	688	7	10000	3	1	0	3	0
163	689	7	10000	3	1	0	3	0
162	690	7	10000	3	1	0	3	0
161	691	7	10000	3	1	0	3	0
158	691	7	10000	3	1	0	3	0
155	692	7	10000	3	1	0	3	0
150	694	7	10000	3	1	0	3	0
146	695	7	10000	3	1	0	3	0
143	696	7	10000	3	1	0	3	0
139	697	7	10000	3	1	0	3	0
134	698	7	10000	3	1	0	3	0
130	699	7	10000	3	1	0	3	0
126	700	7	10000	3	1	0	3	0
120	701	7	10000	3	1	0	3	0
115	701	7	10000	3	1	0	3	0
110	702	7	10000	3	1	0	3	0
107	704	7	10000	3	1	0	3	0
104	705	7	10000	3	1	0	3	0
102	706	7	10000	3	1	0	3	0
98	707	7	10000	3	1	0	3	0
93	708	7	10000	3	1	0	3	0
89	709	7	10000	3	1	0	3	0
86	710	7	10000	3	1	0	3	0
85	711	7	10000	3	1	0	3	0
85	711	7	10000	3	1	0	3	0
88	712	7	10000	3	1	0	3	0
88	714	7	10000	3	1	0	3	0
90	715	7	10000	3	1	0	3	0
91	716	7	10000	3	1	0	3	0
92	717	7	10000	3	1	0	3	0
92	718	7	10000	3	1	0	3	0
92	719	7	10000	3	1	0	3	0
94	720	7	10000	3	1	0	3	0
96	721	7	10000	3	1	0	3	0
98	721	7	10000	3	1	0	3	0
98	722	7	10000	3	1	0	3	0
100	724	7	10000	3	1	0	3	0
102	725	7	10000	3	1	0	3	0
102	726	7	10000	3	1	0	3	0
103	727	7	10000	3	1	0	3	0
104	728	7	10000	3	1	0	3	0
104	729	7	10000	3	1	0	3	0
104	730	7	10000	3	1	0	3	0
104	731	7	10000	3	1	0	3	0
103	731	7	10000	3	1	0	3	0
103	732	7	10000	3	1	0	3	0
99	734	7	10000	3	1	0	3	0
99	735	7	10000	3	1	0	3	0
98	736	7	10000	3	1	0	3	0
98	737	7	10000	3	1	0	3	0
98	738	7	10000	3	1	0	3	0
97	739	7	10000	3	1	0	3	0
96	740	7	10000	3	1	0	3	0
94	741	7	10000	3	1	0	3	0
92	741	7	10000	3	1	0	3	0
89	742	7	10000	3	1	0	3	0
88	744	7	10000	3	1	0	3	0
84	745	7	10000	3	1	0	3	0
81	746	7	10000	3	1	0	3	0
80	747	7	10000	3	1	0	3	0
79	748	7	10000	3	1	0	3	0
78	749	7	10000	3	1	0	3	0
77	750	7	10000	3	1	0	3	0
78	751	7	10000	3	1	0	3	0
78	751	7	10000	3	1	0	3	0
78	752	7	10000	3	1	0	3	0
73	754	7	10000	3	1	0	3	0
71	755	7	10000	3	1	0	3	0
68	756	7	10000	3	1	0	3	0
65	757	7	10000	3	1	0	3	0
63	758	7	10000	3	1	0	3	0
62	759	7	10000	3	1	0	3	0
62	760	7	10000	3	1	0	3	0
62	761	7	10000	3	1	0	3	0
63	761	7	10000	3	1	0	3	0
63	762	7	10000	3	1	0	3	0
64	764	7	10000	3	1	0	3	0
61	765	7	10000	3	1	0	3	0
58	766	7	10000	3	1	0	3	0
55	767	7	10000	3	1	0	3	0
53	768	7	10000	3	1	0	3	0
52	769	7	10000	3	1	0	3	0
52	770	7	10000	3	1	0	3	0
51	771	7	10000	3	1	0	3	0
51	771	7	10000	3	1	0	3	0
50	772	7	10000	3	1	0	3	0
46	774	7	10000	3	1	0	3	0
47	775	7	10000	3	1	0	3	0
49	776	7	10000	3	1	0	3	0
50	777	7	10000	3	1	0	3	0
49	778	7	10000	3	1	0	3	0
48	779	7	10000	3	1	0	3	0
48	780	7	10000	3	1	0	3	0
47	781	7	10000	3	1	0	3	0
45	781	7	10000	3	1	0	3	0
43	782	7	10000	3	1	0	3	0
45	784	7	10000	3	1	0	3	0
44	785	7	10000	3	1	0	3	0
44	786	7	10000	3	1	0	3	0
43	787	7	10000	3	1	0	3	0
42	788	7	10000	3	1	0	3	0
42	789	7	10000	3	1	0	3	0
41	790	7	10000	3	1	0	3	0
41	791	7	10000	3	1	0	3	0
42	791	7	10000	3	1	0	3	0
41	792	7	10000	3	1	0	3	0
39	794	7	10000	3	1	0	3	0
37	795	7	10000	3	1	0	3	0
36	796	7	10000	3	1	0	3	0
35	797	7	10000	3	1	0	3	0
35	798	7	10000	3	1	0	3	0
33	799	7	10000	3	1	0	3	0
32	800	7	10000	3	1	0	3	0
32	801	7	10000	3	1	0	3	0
31	801	7	10000	3	1	0	3	0
30	802	7	10000	3	1	0	3	0
31	804	7	10000	3	1	0	3	0
31	805	7	10000	3	1	0	3	0
29	806	7	10000	3	1	0	3	0
27	807	7	10000	3	1	0	3	0
27	808	7	10000	3	1	0	3	0
25	809	7	10000	3	1	0	3	0
24	810	7	10000	3	1	0	3	0
24	811	7	10000	3	1	0	3	0
24	811	7	10000	3	1	0	3	0
24	812	7	10000	3	1	0	3	0
22	814	7	10000	3	1	0	3	0
22	815	7	10000	3	1	0	3	0
21	816	7	10000	3	1	0	3	0
22	817	7	10000	3	1	0	3	0
24	818	7	10000	3	1	0	3	0
25	819	7	10000	3	1	0	3	0
26	820	7	10000	3	1	0	3	0
26	821	7	10000	3	1	0	3	0
26	821	7	10000	3	1	0	3	0
27	822	7	10000	3	1	0	3	0
29	824	7	10000	3	1	0	3	0
30	825	7	10000	3	1	0	3	0
31	826	7	10000	3	1	0	3	0
32	827	7	10000	3	1	0	3	0
35	828	7	10000	3	1	0	3	0
36	829	7	10000	3	1	0	3	0
35	830	7	10000	3	1	0	3	0
37	831	7	10000	3	1	0	3	0
36	831	7	10000	3	1	0	3	0
36	832	7	10000	3	1	0	3	0
35	834	7	10000	3	1	0	3	0
34	835	7	10000	3	1	0	3	0
34	836	7	10000	3	1	0	3	0
33	837	7	10000	3	1	0	3	0
33	838	7	10000	3	1	0	3	0
32	839	7	10000	3	1	0	3	0
32	840	7	10000	3	1	0	3	0
32	841	7	10000	3	1	0	3	0
35	841	7	10000	3	1	0	3	0
38	842	7	10000	3	1	0	3	0
40	844	7	10000	3	1	0	3	0
41	845	7	10000	3	1	0	3	0
39	846	7	10000	3	1	0	3	0
37	847	7	10000	3	1	0	3	0
36	848	7	10000	3	1	0	3	0
34	849	7	10000	3	1	0	3	0
34	850	7	10000	3	1	0	3	0
34	851	7	10000	3	1	0	3	0
34	851	7	10000	3	1	0	3	0
34	852	7	10000	3	1	0	3	0
30	854	7	10000	3	1	0	3	0
29	855	7	10000	3	1	0	3	0
28	856	7	10000	3	1	0	3	0
28	857	7	10000	3	1	0	3	0
27	858	7	10000	3	1	0	3	0
26	859	7	10000	3	1	0	3	0
26	860	7	10000	3	1	0	3	0
25	861	7	10000	3	1	0	3	0
25	861	7	10000	3	1	0	3	0
24	862	7	10000	3	1	0	3	0
27	864	7	10000	3	1	0	3	0
27	865	7	10000	3	1	0	3	0
25	866	7	10000	3	1	0	3	0
25	867	7	10000	3	1	0	3	0
24	868	7	10000	3	1	0	3	0
24	869	7	10000	3	1	0	3	0
22	870	7	10000	3	1	0	3	0
22	871	7	10000	3	1	0	3	0
21	871	7	10000	3	1	0	3	0
22	872	7	10000	3	1	0	3	0
19	874	7	10000	3	1	0	3	0
19	875	7	10000	3	1	0	3	0
19	876	7	10000	3	1	0	3	0
18	877	7	10000	3	1	0	3	0
19	878	7	10000	3	1	0	3	0
18	879	7	10000	3	1	0	3	0
17	880	7	10000	3	1	0	3	0
16	881	7	10000	3	1	0	3	0
16	881	7	10000	3	1	0	3	0
16	882	7	10000	3	1	0	3	0
18	884	7	10000	3	1	0	3	0
20	885	7	10000	3	1	0	3	0
19	886	7	10000	3	1	0	3	0
18	887	7	10000	3	1	0	3	0
17	888	7	10000	3	1	0	3	0
17	889	7	10000	3	1	0	3	0
16	890	7	10000	3	1	0	3	0
17	891	7	10000	3	1	0	3	0
20	891	7	10000	3	1	0	3	0
19	892	7	10000	3	1	0	3	0
17	894	7	10000	3	1	0	3	0
18	895	7	10000	3	1	0	3	0
19	896	7	10000	3	1	0	3	0
19	897	7	10000	3	1	0	3	0
20	898	7	10000	3	1	0	3	0
21	899	7	10000	3	1	0	3	0
20	900	7	10000	3	1	0	3	0
20	901	7	10000	3	1	0	3	0
21	901	7	10000	3	1	0	3	0
23	902	7	10000	3	1	0	3	0
25	904	7	10000	3	1	0	3	0
25	905	7	10000	3	1	0	3	0
24	906	7	10000	3	1	0	3	0
23	907	7	10000	3	1	0	3	0
24	908	7	10000	3	1	0	3	0
24	909	7	10000	3	1	0	3	0
25	910	7	10000	3	1	0	3	0
26	911	7	10000	3	1	0	3	0
27	911	7	10000	3	1	0	3	0
27	912	7	10000	3	1	0	3	0
25	914	7	10000	3	1	0	3	0
23	915	7	10000	3	1	0	3	0
23	916	7	10000	3	1	0	3	0
23	917	7	10000	3	1	0	3	0
23	918	7	10000	3	1	0	3	0
23	919	7	10000	3	1	0	3	0
23	920	7	10000	3	1	0	3	0
23	921	7	10000	3	1	0	3	0
24	921	7	10000	3	1	0	3	0
24	922	7	10000	3	1	0	3	0
25	924	7	10000	3	1	0	3	0
25	925	7	10000	3	1	0	3	0
24	926	7	10000	3	1	0	3	0
24	927	7	10000	3	1	0	3	0
22	928	7	10000	3	1	0	3	0
22	929	7	10000	3	1	0	3	0
22	930	7	10000	3	1	0	3	0
22	931	7	10000	3	1	0	3	0
22	931	7	10000	3	1	0	3	0
22	932	7	10000	3	1	0	3	0
21	934	7	10000	3	1	0	3	0
20	935	7	10000	3	1	0	3	0
20	936	7	10000	3	1	0	3	0
21	937	7	10000	3	1	0	3	0
21	938	7	10000	3	1	0	3	0
21	939	7	10000	3	1	0	3	0
21	940	7	10000	3	1	0	3	0
21	941	7	10000	3	1	0	3	0
20	941	7	10000	3	1	0	3	0
19	942	7	10000	3	1	0	3	0
20	944	7	10000	3	1	0	3	0
20	945	7	10000	3	1	0	3	0
20	946	7	10000	3	1	0	3	0
20	947	7	10000	3	1	0	3	0
19	948	7	10000	3	1	0	3	0
18	949	7	10000	3	1	0	3	0
18	950	7	10000	3	1	0	3	0
18	951	7	10000	3	1	0	3	0
19	951	7	10000	3	1	0	3	0
19	952	7	10000	3	1	0	3	0
18	954	7	10000	3	1	0	3	0
17	955	7	10000	3	1	0	3	0
16	956	7	10000	3	1	0	3	0
17	957	7	10000	3	1	0	3	0
16	958	7	10000	3	1	0	3	0
16	959	7	10000	3	1	0	3	0
16	960	7	10000	3	1	0	3	0
16	961	7	10000	3	1	0	3	0
17	961	7	10000	3	1	0	3	0
17	962	7	10000	3	1	0	3	0
19	964	7	10000	3	1	0	3	0
20	965	7	10000	3	1	0	3	0
20	966	7	10000	3	1	0	3	0
20	967	7	10000	3	1	0	3	0
21	968	7	10000	3	1	0	3	0
21	969	7	10000	3	1	0	3	0
20	970	7	10000	3	1	0	3	0
21	971	7	10000	3	1	0	3	0
20	971	7	10000	3	1	0	3	0
21	972	7	10000	3	1	0	3	0
18	974	7	10000	3	1	0	3	0
18	975	7	10000	3	1	0	3	0
18	976	7	10000	3	1	0	3	0
20	977	7	10000	3	1	0	3	0
20	978	7	10000	3	1	0	3	0
20	979	7	10000	3	1	0	3	0
19	980	7	10000	3	1	0	3	0
18	981	7	10000	3	1	0	3	0
18	981	7	10000	3	1	0	3	0
17	982	7	10000	3	1	0	3	0
19	984	7	10000	3	1	0	3	0
20	985	7	10000	3	1	0	3	0
19	986	7	10000	3	1	0	3	0
19	987	7	10000	3	1	0	3	0
18	988	7	10000	3	1	0	3	0
17	989	7	10000	3	1	0	3	0
17	990	7	10000	3	1	0	3	0
17	991	7	10000	3	1	0	3	0
16	991	7	10000	3	1	0	3	0
17	992	7	10000	3	1	0	3	0
16	994	7	10000	3	1	0	3	0
15	995	7	10000	3	1	0	3	0
15	996	7	10000	3	1	0	3	0
15	997	7	10000	3	1	0	3	0
15	998	7	10000	3	1	0	3	0
14	999	7	10000	3	1	0	3	0
14	1000	7	10000	3	1	0	3	0
14	1001	7	10000	3	1	0	3	0
32	1	7	10000	4	1	0	4	0
32	2	7	10000	4	1	0	4	0
32	3	7	10000	4	1	0	4	0
31	4	7	10000	4	1	0	4	0
30	5	7	10000	4	1	0	4	0
29	6	7	10000	4	1	0	4	0
28	7	7	10000	4	1	0	4	0
28	8	7	10000	4	1	0	4	0
28	9	7	10000	4	1	0	4	0
29	10	7	10000	4	1	0	4	0
30	11	7	10000	4	1	0	4	0
31	12	7	10000	4	1	0	4	0
32	13	7	10000	4	1	0	4	0
34	14	7	10000	4	1	0	4	0
36	15	7	10000	4	1	0	4	0
36	16	7	10000	4	1	0	4	0
36	17	7	10000	4	1	0	4	0
37	18	7	10000	4	1	0	4	0
37	19	7	10000	4	1	0	4	0
35	20	7	10000	4	1	0	4	0
35	20	7	10000	4	1	0	4	0
35	21	7	10000	4	1	0	4	0
34	23	7	10000	4	1	0	4	0
32	24	7	10000	4	1	0	4	0
31	25	7	10000	4	1	0	4	0
32	26	7	10000	4	1	0	4	0
33	27	7	10000	4	1	0	4	0
32	28	7	10000	4	1	0	4	0
31	29	7	10000	4	1	0	4	0
31	30	7	10000	4	1	0	4	0
31	30	7	10000	4	1	0	4	0
32	31	7	10000	4	1	0	4	0
33	33	7	10000	4	1	0	4	0
34	34	7	10000	4	1	0	4	0
34	35	7	10000	4	1	0	4	0
33	36	7	10000	4	1	0	4	0
32	37	7	10000	4	1	0	4	0
32	38	7	10000	4	1	0	4	0
31	39	7	10000	4	1	0	4	0
31	40	7	10000	4	1	0	4	0
32	40	7	10000	4	1	0	4	0
32	41	7	10000	4	1	0	4	0
30	43	7	10000	4	1	0	4	0
27	44	7	10000	4	1	0	4	0
26	45	7	10000	4	1	0	4	0
25	46	7	10000	4	1	0	4	0
25	47	7	10000	4	1	0	4	0
24	48	7	10000	4	1	0	4	0
23	49	7	10000	4	1	0	4	0
24	50	7	10000	4	1	0	4	0
22	50	7	10000	4	1	0	4	0
21	51	7	10000	4	1	0	4	0
22	53	7	10000	4	1	0	4	0
26	54	7	10000	4	1	0	4	0
26	55	7	10000	4	1	0	4	0
26	56	7	10000	4	1	0	4	0
27	57	7	10000	4	1	0	4	0
28	58	7	10000	4	1	0	4	0
29	59	7	10000	4	1	0	4	0
28	60	7	10000	4	1	0	4	0
29	60	7	10000	4	1	0	4	0
28	61	7	10000	4	1	0	4	0
29	63	7	10000	4	1	0	4	0
28	64	7	10000	4	1	0	4	0
27	65	7	10000	4	1	0	4	0
27	66	7	10000	4	1	0	4	0
28	67	7	10000	4	1	0	4	0
27	68	7	10000	4	1	0	4	0
27	69	7	10000	4	1	0	4	0
28	70	7	10000	4	1	0	4	0
27	70	7	10000	4	1	0	4	0
26	71	7	10000	4	1	0	4	0
27	73	7	10000	4	1	0	4	0
29	74	7	10000	4	1	0	4	0
30	75	7	10000	4	1	0	4	0
31	76	7	10000	4	1	0	4	0
33	77	7	10000	4	1	0	4	0
36	78	7	10000	4	1	0	4	0
39	79	7	10000	4	1	0	4	0
41	80	7	10000	4	1	0	4	0
44	80	7	10000	4	1	0	4	0
44	81	7	10000	4	1	0	4	0
44	83	7	10000	4	1	0	4	0
41	84	7	10000	4	1	0	4	0
42	85	7	10000	4	1	0	4	0
41	86	7	10000	4	1	0	4	0
41	87	7	10000	4	1	0	4	0
41	88	7	10000	4	1	0	4	0
43	89	7	10000	4	1	0	4	0
43	90	7	10000	4	1	0	4	0
41	90	7	10000	4	1	0	4	0
42	91	7	10000	4	1	0	4	0
44	93	7	10000	4	1	0	4	0
49	94	7	10000	4	1	0	4	0
52	95	7	10000	4	1	0	4	0
56	96	7	10000	4	1	0	4	0
59	97	7	10000	4	1	0	4	0
60	98	7	10000	4	1	0	4	0
61	99	7	10000	4	1	0	4	0
60	100	7	10000	4	1	0	4	0
61	100	7	10000	4	1	0	4	0
61	101	7	10000	4	1	0	4	0
61	103	7	10000	4	1	0	4	0
59	104	7	10000	4	1	0	4	0
59	105	7	10000	4	1	0	4	0
59	106	7	10000	4	1	0	4	0
59	107	7	10000	4	1	0	4	0
57	108	7	10000	4	1	0	4	0
55	109	7	10000	4	1	0	4	0
54	110	7	10000	4	1	0	4	0
52	110	7	10000	4	1	0	4	0
49	111	7	10000	4	1	0	4	0
49	113	7	10000	4	1	0	4	0
50	114	7	10000	4	1	0	4	0
50	115	7	10000	4	1	0	4	0
49	116	7	10000	4	1	0	4	0
46	117	7	10000	4	1	0	4	0
45	118	7	10000	4	1	0	4	0
43	119	7	10000	4	1	0	4	0
42	120	7	10000	4	1	0	4	0
41	120	7	10000	4	1	0	4	0
43	121	7	10000	4	1	0	4	0
44	123	7	10000	4	1	0	4	0
44	124	7	10000	4	1	0	4	0
48	125	7	10000	4	1	0	4	0
49	126	7	10000	4	1	0	4	0
48	127	7	10000	4	1	0	4	0
47	128	7	10000	4	1	0	4	0
48	129	7	10000	4	1	0	4	0
49	130	7	10000	4	1	0	4	0
47	130	7	10000	4	1	0	4	0
47	131	7	10000	4	1	0	4	0
47	133	7	10000	4	1	0	4	0
51	134	7	10000	4	1	0	4	0
52	135	7	10000	4	1	0	4	0
53	136	7	10000	4	1	0	4	0
53	137	7	10000	4	1	0	4	0
55	138	7	10000	4	1	0	4	0
60	139	7	10000	4	1	0	4	0
63	140	7	10000	4	1	0	4	0
67	140	7	10000	4	1	0	4	0
66	141	7	10000	4	1	0	4	0
65	143	7	10000	4	1	0	4	0
63	144	7	10000	4	1	0	4	0
62	145	7	10000	4	1	0	4	0
68	146	7	10000	4	1	0	4	0
71	147	7	10000	4	1	0	4	0
74	148	7	10000	4	1	0	4	0
77	149	7	10000	4	1	0	4	0
75	150	7	10000	4	1	0	4	0
73	150	7	10000	4	1	0	4	0
78	151	7	10000	4	1	0	4	0
85	153	7	10000	4	1	0	4	0
102	154	7	10000	4	1	0	4	0
126	155	7	10000	4	1	0	4	0
143	156	7	10000	4	1	0	4	0
143	157	7	10000	4	1	0	4	0
152	158	7	10000	4	1	0	4	0
186	159	7	10000	4	1	0	4	0
191	160	7	10000	4	1	0	4	0
208	160	7	10000	4	1	0	4	0
222	161	7	10000	4	1	0	4	0
234	163	7	10000	4	1	0	4	0
242	164	7	10000	4	1	0	4	0
238	165	7	10000	4	1	0	4	0
251	166	7	10000	4	1	0	4	0
255	167	7	10000	4	1	0	4	0
245	168	7	10000	4	1	0	4	0
248	169	7	10000	4	1	0	4	0
266	170	7	10000	4	1	0	4	0
272	170	7	10000	4	1	0	4	0
264	171	7	10000	4	1	0	4	0
267	173	7	10000	4	1	0	4	0
285	174	7	10000	4	1	0	4	0
289	175	7	10000	4	1	0	4	0
280	176	7	10000	4	1	0	4	0
276	177	7	10000	4	1	0	4	0
277	178	7	10000	4	1	0	4	0
273	179	7	10000	4	1	0	4	0
262	180	7	10000	4	1	0	4	0
252	180	7	10000	4	1	0	4	0
249	181	7	10000	4	1	0	4	0
257	183	7	10000	4	1	0	4	0
266	184	7	10000	4	1	0	4	0
285	185	7	10000	4	1	0	4	0
305	186	7	10000	4	1	0	4	0
315	187	7	10000	4	1	0	4	0
316	188	7	10000	4	1	0	4	0
309	189	7	10000	4	1	0	4	0
303	190	7	10000	4	1	0	4	0
294	190	7	10000	4	1	0	4	0
290	191	7	10000	4	1	0	4	0
291	193	7	10000	4	1	0	4	0
286	194	7	10000	4	1	0	4	0
281	195	7	10000	4	1	0	4	0
275	196	7	10000	4	1	0	4	0
273	197	7	10000	4	1	0	4	0
268	198	7	10000	4	1	0	4	0
266	199	7	10000	4	1	0	4	0
264	200	7	10000	4	1	0	4	0
257	200	7	10000	4	1	0	4	0
246	201	7	10000	4	1	0	4	0
238	203	7	10000	4	1	0	4	0
229	204	7	10000	4	1	0	4	0
224	205	7	10000	4	1	0	4	0
220	206	7	10000	4	1	0	4	0
217	207	7	10000	4	1	0	4	0
217	208	7	10000	4	1	0	4	0
218	209	7	10000	4	1	0	4	0
219	210	7	10000	4	1	0	4	0
218	210	7	10000	4	1	0	4	0
215	211	7	10000	4	1	0	4	0
213	213	7	10000	4	1	0	4	0
212	214	7	10000	4	1	0	4	0
208	215	7	10000	4	1	0	4	0
202	216	7	10000	4	1	0	4	0
194	217	7	10000	4	1	0	4	0
185	218	7	10000	4	1	0	4	0
177	219	7	10000	4	1	0	4	0
169	220	7	10000	4	1	0	4	0
162	220	7	10000	4	1	0	4	0
156	221	7	10000	4	1	0	4	0
152	223	7	10000	4	1	0	4	0
147	224	7	10000	4	1	0	4	0
147	225	7	10000	4	1	0	4	0
145	226	7	10000	4	1	0	4	0
143	227	7	10000	4	1	0	4	0
144	228	7	10000	4	1	0	4	0
147	229	7	10000	4	1	0	4	0
152	230	7	10000	4	1	0	4	0
157	230	7	10000	4	1	0	4	0
162	231	7	10000	4	1	0	4	0
167	233	7	10000	4	1	0	4	0
174	234	7	10000	4	1	0	4	0
180	235	7	10000	4	1	0	4	0
187	236	7	10000	4	1	0	4	0
194	237	7	10000	4	1	0	4	0
201	238	7	10000	4	1	0	4	0
213	239	7	10000	4	1	0	4	0
222	240	7	10000	4	1	0	4	0
231	240	7	10000	4	1	0	4	0
238	241	7	10000	4	1	0	4	0
246	243	7	10000	4	1	0	4	0
251	244	7	10000	4	1	0	4	0
257	245	7	10000	4	1	0	4	0
261	246	7	10000	4	1	0	4	0
266	247	7	10000	4	1	0	4	0
270	248	7	10000	4	1	0	4	0
273	249	7	10000	4	1	0	4	0
277	250	7	10000	4	1	0	4	0
278	250	7	10000	4	1	0	4	0
279	251	7	10000	4	1	0	4	0
280	253	7	10000	4	1	0	4	0
282	254	7	10000	4	1	0	4	0
280	255	7	10000	4	1	0	4	0
277	256	7	10000	4	1	0	4	0
274	257	7	10000	4	1	0	4	0
271	258	7	10000	4	1	0	4	0
268	259	7	10000	4	1	0	4	0
265	260	7	10000	4	1	0	4	0
262	260	7	10000	4	1	0	4	0
257	261	7	10000	4	1	0	4	0
252	263	7	10000	4	1	0	4	0
246	264	7	10000	4	1	0	4	0
242	265	7	10000	4	1	0	4	0
236	266	7	10000	4	1	0	4	0
231	267	7	10000	4	1	0	4	0
226	268	7	10000	4	1	0	4	0
222	269	7	10000	4	1	0	4	0
219	270	7	10000	4	1	0	4	0
213	270	7	10000	4	1	0	4	0
207	271	7	10000	4	1	0	4	0
201	273	7	10000	4	1	0	4	0
195	274	7	10000	4	1	0	4	0
189	275	7	10000	4	1	0	4	0
182	276	7	10000	4	1	0	4	0
176	277	7	10000	4	1	0	4	0
169	278	7	10000	4	1	0	4	0
164	279	7	10000	4	1	0	4	0
158	280	7	10000	4	1	0	4	0
152	280	7	10000	4	1	0	4	0
146	281	7	10000	4	1	0	4	0
140	283	7	10000	4	1	0	4	0
132	284	7	10000	4	1	0	4	0
126	285	7	10000	4	1	0	4	0
121	286	7	10000	4	1	0	4	0
116	287	7	10000	4	1	0	4	0
111	288	7	10000	4	1	0	4	0
106	289	7	10000	4	1	0	4	0
102	290	7	10000	4	1	0	4	0
97	290	7	10000	4	1	0	4	0
93	291	7	10000	4	1	0	4	0
90	293	7	10000	4	1	0	4	0
89	294	7	10000	4	1	0	4	0
84	295	7	10000	4	1	0	4	0
80	296	7	10000	4	1	0	4	0
77	297	7	10000	4	1	0	4	0
75	298	7	10000	4	1	0	4	0
73	299	7	10000	4	1	0	4	0
70	300	7	10000	4	1	0	4	0
70	300	7	10000	4	1	0	4	0
70	301	7	10000	4	1	0	4	0
70	303	7	10000	4	1	0	4	0
68	304	7	10000	4	1	0	4	0
69	305	7	10000	4	1	0	4	0
69	306	7	10000	4	1	0	4	0
68	307	7	10000	4	1	0	4	0
66	308	7	10000	4	1	0	4	0
64	309	7	10000	4	1	0	4	0
64	310	7	10000	4	1	0	4	0
63	310	7	10000	4	1	0	4	0
63	311	7	10000	4	1	0	4	0
63	313	7	10000	4	1	0	4	0
65	314	7	10000	4	1	0	4	0
63	315	7	10000	4	1	0	4	0
61	316	7	10000	4	1	0	4	0
62	317	7	10000	4	1	0	4	0
59	318	7	10000	4	1	0	4	0
56	319	7	10000	4	1	0	4	0
56	320	7	10000	4	1	0	4	0
55	320	7	10000	4	1	0	4	0
55	321	7	10000	4	1	0	4	0
56	323	7	10000	4	1	0	4	0
55	324	7	10000	4	1	0	4	0
55	325	7	10000	4	1	0	4	0
55	326	7	10000	4	1	0	4	0
56	327	7	10000	4	1	0	4	0
55	328	7	10000	4	1	0	4	0
54	329	7	10000	4	1	0	4	0
53	330	7	10000	4	1	0	4	0
52	330	7	10000	4	1	0	4	0
50	331	7	10000	4	1	0	4	0
50	333	7	10000	4	1	0	4	0
54	334	7	10000	4	1	0	4	0
56	335	7	10000	4	1	0	4	0
57	336	7	10000	4	1	0	4	0
57	337	7	10000	4	1	0	4	0
58	338	7	10000	4	1	0	4	0
58	339	7	10000	4	1	0	4	0
58	340	7	10000	4	1	0	4	0
58	340	7	10000	4	1	0	4	0
56	341	7	10000	4	1	0	4	0
55	343	7	10000	4	1	0	4	0
51	344	7	10000	4	1	0	4	0
51	345	7	10000	4	1	0	4	0
52	346	7	10000	4	1	0	4	0
51	347	7	10000	4	1	0	4	0
52	348	7	10000	4	1	0	4	0
50	349	7	10000	4	1	0	4	0
51	350	7	10000	4	1	0	4	0
50	350	7	10000	4	1	0	4	0
49	351	7	10000	4	1	0	4	0
48	353	7	10000	4	1	0	4	0
52	354	7	10000	4	1	0	4	0
53	355	7	10000	4	1	0	4	0
52	356	7	10000	4	1	0	4	0
50	357	7	10000	4	1	0	4	0
47	358	7	10000	4	1	0	4	0
46	359	7	10000	4	1	0	4	0
43	360	7	10000	4	1	0	4	0
44	360	7	10000	4	1	0	4	0
44	361	7	10000	4	1	0	4	0
42	363	7	10000	4	1	0	4	0
40	364	7	10000	4	1	0	4	0
39	365	7	10000	4	1	0	4	0
37	366	7	10000	4	1	0	4	0
38	367	7	10000	4	1	0	4	0
40	368	7	10000	4	1	0	4	0
40	369	7	10000	4	1	0	4	0
38	370	7	10000	4	1	0	4	0
36	370	7	10000	4	1	0	4	0
35	371	7	10000	4	1	0	4	0
34	373	7	10000	4	1	0	4	0
35	374	7	10000	4	1	0	4	0
33	375	7	10000	4	1	0	4	0
33	376	7	10000	4	1	0	4	0
32	377	7	10000	4	1	0	4	0
31	378	7	10000	4	1	0	4	0
30	379	7	10000	4	1	0	4	0
29	380	7	10000	4	1	0	4	0
28	380	7	10000	4	1	0	4	0
29	381	7	10000	4	1	0	4	0
30	383	7	10000	4	1	0	4	0
28	384	7	10000	4	1	0	4	0
28	385	7	10000	4	1	0	4	0
27	386	7	10000	4	1	0	4	0
28	387	7	10000	4	1	0	4	0
26	388	7	10000	4	1	0	4	0
25	389	7	10000	4	1	0	4	0
26	390	7	10000	4	1	0	4	0
24	390	7	10000	4	1	0	4	0
24	391	7	10000	4	1	0	4	0
26	393	7	10000	4	1	0	4	0
31	394	7	10000	4	1	0	4	0
31	395	7	10000	4	1	0	4	0
30	396	7	10000	4	1	0	4	0
30	397	7	10000	4	1	0	4	0
30	398	7	10000	4	1	0	4	0
29	399	7	10000	4	1	0	4	0
28	400	7	10000	4	1	0	4	0
28	400	7	10000	4	1	0	4	0
27	401	7	10000	4	1	0	4	0
27	403	7	10000	4	1	0	4	0
26	404	7	10000	4	1	0	4	0
25	405	7	10000	4	1	0	4	0
26	406	7	10000	4	1	0	4	0
26	407	7	10000	4	1	0	4	0
26	408	7	10000	4	1	0	4	0
26	409	7	10000	4	1	0	4	0
28	410	7	10000	4	1	0	4	0
29	410	7	10000	4	1	0	4	0
27	411	7	10000	4	1	0	4	0
25	413	7	10000	4	1	0	4	0
27	414	7	10000	4	1	0	4	0
28	415	7	10000	4	1	0	4	0
29	416	7	10000	4	1	0	4	0
28	417	7	10000	4	1	0	4	0
28	418	7	10000	4	1	0	4	0
28	419	7	10000	4	1	0	4	0
26	420	7	10000	4	1	0	4	0
27	420	7	10000	4	1	0	4	0
26	421	7	10000	4	1	0	4	0
27	423	7	10000	4	1	0	4	0
26	424	7	10000	4	1	0	4	0
26	425	7	10000	4	1	0	4	0
25	426	7	10000	4	1	0	4	0
26	427	7	10000	4	1	0	4	0
25	428	7	10000	4	1	0	4	0
26	429	7	10000	4	1	0	4	0
25	430	7	10000	4	1	0	4	0
23	430	7	10000	4	1	0	4	0
25	431	7	10000	4	1	0	4	0
22	433	7	10000	4	1	0	4	0
24	434	7	10000	4	1	0	4	0
24	435	7	10000	4	1	0	4	0
25	436	7	10000	4	1	0	4	0
25	437	7	10000	4	1	0	4	0
25	438	7	10000	4	1	0	4	0
25	439	7	10000	4	1	0	4	0
23	440	7	10000	4	1	0	4	0
23	440	7	10000	4	1	0	4	0
24	441	7	10000	4	1	0	4	0
24	443	7	10000	4	1	0	4	0
20	444	7	10000	4	1	0	4	0
20	445	7	10000	4	1	0	4	0
22	446	7	10000	4	1	0	4	0
21	447	7	10000	4	1	0	4	0
21	448	7	10000	4	1	0	4	0
21	449	7	10000	4	1	0	4	0
20	450	7	10000	4	1	0	4	0
19	450	7	10000	4	1	0	4	0
18	451	7	10000	4	1	0	4	0
18	453	7	10000	4	1	0	4	0
19	454	7	10000	4	1	0	4	0
18	455	7	10000	4	1	0	4	0
17	456	7	10000	4	1	0	4	0
17	457	7	10000	4	1	0	4	0
17	458	7	10000	4	1	0	4	0
17	459	7	10000	4	1	0	4	0
18	460	7	10000	4	1	0	4	0
19	460	7	10000	4	1	0	4	0
20	461	7	10000	4	1	0	4	0
20	463	7	10000	4	1	0	4	0
18	464	7	10000	4	1	0	4	0
19	465	7	10000	4	1	0	4	0
20	466	7	10000	4	1	0	4	0
20	467	7	10000	4	1	0	4	0
20	468	7	10000	4	1	0	4	0
19	469	7	10000	4	1	0	4	0
19	470	7	10000	4	1	0	4	0
19	470	7	10000	4	1	0	4	0
17	471	7	10000	4	1	0	4	0
17	473	7	10000	4	1	0	4	0
21	474	7	10000	4	1	0	4	0
20	475	7	10000	4	1	0	4	0
19	476	7	10000	4	1	0	4	0
17	477	7	10000	4	1	0	4	0
18	478	7	10000	4	1	0	4	0
17	479	7	10000	4	1	0	4	0
16	480	7	10000	4	1	0	4	0
19	480	7	10000	4	1	0	4	0
20	481	7	10000	4	1	0	4	0
22	483	7	10000	4	1	0	4	0
20	484	7	10000	4	1	0	4	0
20	485	7	10000	4	1	0	4	0
20	486	7	10000	4	1	0	4	0
20	487	7	10000	4	1	0	4	0
21	488	7	10000	4	1	0	4	0
20	489	7	10000	4	1	0	4	0
21	490	7	10000	4	1	0	4	0
20	490	7	10000	4	1	0	4	0
20	491	7	10000	4	1	0	4	0
20	493	7	10000	4	1	0	4	0
23	494	7	10000	4	1	0	4	0
23	495	7	10000	4	1	0	4	0
22	496	7	10000	4	1	0	4	0
21	497	7	10000	4	1	0	4	0
20	498	7	10000	4	1	0	4	0
21	499	7	10000	4	1	0	4	0
20	500	7	10000	4	1	0	4	0
20	500	7	10000	4	1	0	4	0
20	501	7	10000	4	1	0	4	0
20	503	7	10000	4	1	0	4	1
19	504	7	10000	4	1	0	4	1
19	505	7	10000	4	1	0	4	1
19	506	7	10000	4	1	0	4	1
19	507	7	10000	4	1	0	4	1
19	508	7	10000	4	1	0	4	1
20	509	7	10000	4	1	0	4	1
20	510	7	10000	4	1	0	4	1
20	510	7	10000	4	1	0	4	1
20	511	7	10000	4	1	0	4	1
19	513	7	10000	4	1	0	4	1
20	514	7	10000	4	1	0	4	1
20	515	7	10000	4	1	0	4	1
20	516	7	10000	4	1	0	4	1
19	517	7	10000	4	1	0	4	1
19	518	7	10000	4	1	0	4	1
18	519	7	10000	4	1	0	4	1
18	520	7	10000	4	1	0	4	1
18	520	7	10000	4	1	0	4	1
19	521	7	10000	4	1	0	4	1
20	523	7	10000	4	1	0	4	1
17	524	7	10000	4	1	0	4	1
16	525	7	10000	4	1	0	4	1
16	526	7	10000	4	1	0	4	1
16	527	7	10000	4	1	0	4	1
17	528	7	10000	4	1	0	4	1
16	529	7	10000	4	1	0	4	1
17	530	7	10000	4	1	0	4	1
16	530	7	10000	4	1	0	4	1
16	531	7	10000	4	1	0	4	1
16	533	7	10000	4	1	0	4	1
19	534	7	10000	4	1	0	4	1
18	535	7	10000	4	1	0	4	1
17	536	7	10000	4	1	0	4	1
17	537	7	10000	4	1	0	4	1
16	538	7	10000	4	1	0	4	1
16	539	7	10000	4	1	0	4	1
16	540	7	10000	4	1	0	4	1
18	540	7	10000	4	1	0	4	1
19	541	7	10000	4	1	0	4	1
18	543	7	10000	4	1	0	4	1
17	544	7	10000	4	1	0	4	1
16	545	7	10000	4	1	0	4	1
15	546	7	10000	4	1	0	4	1
15	547	7	10000	4	1	0	4	1
16	548	7	10000	4	1	0	4	1
16	549	7	10000	4	1	0	4	1
16	550	7	10000	4	1	0	4	1
16	550	7	10000	4	1	0	4	1
17	551	7	10000	4	1	0	4	1
22	553	7	10000	4	1	0	4	0
31	554	7	10000	4	1	0	4	0
37	555	7	10000	4	1	0	4	0
42	556	7	10000	4	1	0	4	0
44	557	7	10000	4	1	0	4	0
46	558	7	10000	4	1	0	4	0
43	559	7	10000	4	1	0	4	0
41	560	7	10000	4	1	0	4	0
42	560	7	10000	4	1	0	4	0
43	561	7	10000	4	1	0	4	0
41	563	7	10000	4	1	0	4	0
39	564	7	10000	4	1	0	4	0
40	565	7	10000	4	1	0	4	0
40	566	7	10000	4	1	0	4	0
42	567	7	10000	4	1	0	4	0
44	568	7	10000	4	1	0	4	0
47	569	7	10000	4	1	0	4	0
49	570	7	10000	4	1	0	4	0
49	570	7	10000	4	1	0	4	0
54	571	7	10000	4	1	0	4	0
55	573	7	10000	4	1	0	4	0
57	574	7	10000	4	1	0	4	0
58	575	7	10000	4	1	0	4	0
57	576	7	10000	4	1	0	4	0
56	577	7	10000	4	1	0	4	0
55	578	7	10000	4	1	0	4	0
55	579	7	10000	4	1	0	4	0
51	580	7	10000	4	1	0	4	0
52	580	7	10000	4	1	0	4	0
51	581	7	10000	4	1	0	4	0
50	583	7	10000	4	1	0	4	0
46	584	7	10000	4	1	0	4	0
44	585	7	10000	4	1	0	4	0
44	586	7	10000	4	1	0	4	0
42	587	7	10000	4	1	0	4	0
41	588	7	10000	4	1	0	4	0
40	589	7	10000	4	1	0	4	0
39	590	7	10000	4	1	0	4	0
39	590	7	10000	4	1	0	4	0
38	591	7	10000	4	1	0	4	0
37	593	7	10000	4	1	0	4	0
38	594	7	10000	4	1	0	4	0
38	595	7	10000	4	1	0	4	0
38	596	7	10000	4	1	0	4	0
37	597	7	10000	4	1	0	4	0
39	598	7	10000	4	1	0	4	0
42	599	7	10000	4	1	0	4	0
44	600	7	10000	4	1	0	4	0
44	600	7	10000	4	1	0	4	0
44	601	7	10000	4	1	0	4	0
43	603	7	10000	4	1	0	4	0
45	604	7	10000	4	1	0	4	0
56	605	7	10000	4	1	0	4	0
56	606	7	10000	4	1	0	4	0
63	607	7	10000	4	1	0	4	0
76	608	7	10000	4	1	0	4	0
86	609	7	10000	4	1	0	4	0
90	610	7	10000	4	1	0	4	0
89	610	7	10000	4	1	0	4	0
86	611	7	10000	4	1	0	4	0
86	613	7	10000	4	1	0	4	0
91	614	7	10000	4	1	0	4	0
92	615	7	10000	4	1	0	4	0
90	616	7	10000	4	1	0	4	0
89	617	7	10000	4	1	0	4	0
89	618	7	10000	4	1	0	4	0
87	619	7	10000	4	1	0	4	0
93	620	7	10000	4	1	0	4	0
103	620	7	10000	4	1	0	4	0
119	621	7	10000	4	1	0	4	0
138	623	7	10000	4	1	0	4	0
145	624	7	10000	4	1	0	4	0
154	625	7	10000	4	1	0	4	0
159	626	7	10000	4	1	0	4	0
156	627	7	10000	4	1	0	4	0
167	628	7	10000	4	1	0	4	0
190	629	7	10000	4	1	0	4	0
195	630	7	10000	4	1	0	4	0
196	630	7	10000	4	1	0	4	0
205	631	7	10000	4	1	0	4	0
211	633	7	10000	4	1	0	4	0
213	634	7	10000	4	1	0	4	0
209	635	7	10000	4	1	0	4	0
205	636	7	10000	4	1	0	4	0
204	637	7	10000	4	1	0	4	0
203	638	7	10000	4	1	0	4	0
196	639	7	10000	4	1	0	4	0
188	640	7	10000	4	1	0	4	0
181	640	7	10000	4	1	0	4	0
174	641	7	10000	4	1	0	4	0
166	643	7	10000	4	1	0	4	0
157	644	7	10000	4	1	0	4	0
152	645	7	10000	4	1	0	4	0
149	646	7	10000	4	1	0	4	0
147	647	7	10000	4	1	0	4	0
142	648	7	10000	4	1	0	4	0
140	649	7	10000	4	1	0	4	0
137	650	7	10000	4	1	0	4	0
133	650	7	10000	4	1	0	4	0
128	651	7	10000	4	1	0	4	0
125	653	7	10000	4	1	0	4	0
123	654	7	10000	4	1	0	4	0
120	655	7	10000	4	1	0	4	0
116	656	7	10000	4	1	0	4	0
112	657	7	10000	4	1	0	4	0
108	658	7	10000	4	1	0	4	0
104	659	7	10000	4	1	0	4	0
100	660	7	10000	4	1	0	4	0
97	660	7	10000	4	1	0	4	0
94	661	7	10000	4	1	0	4	0
92	663	7	10000	4	1	0	4	0
86	664	7	10000	4	1	0	4	0
84	665	7	10000	4	1	0	4	0
84	666	7	10000	4	1	0	4	0
85	667	7	10000	4	1	0	4	0
85	668	7	10000	4	1	0	4	0
85	669	7	10000	4	1	0	4	0
88	670	7	10000	4	1	0	4	0
89	670	7	10000	4	1	0	4	0
89	671	7	10000	4	1	0	4	0
90	673	7	10000	4	1	0	4	0
92	674	7	10000	4	1	0	4	0
94	675	7	10000	4	1	0	4	0
94	676	7	10000	4	1	0	4	0
95	677	7	10000	4	1	0	4	0
92	678	7	10000	4	1	0	4	0
92	679	7	10000	4	1	0	4	0
91	680	7	10000	4	1	0	4	0
89	680	7	10000	4	1	0	4	0
87	681	7	10000	4	1	0	4	0
86	683	7	10000	4	1	0	4	0
82	684	7	10000	4	1	0	4	0
79	685	7	10000	4	1	0	4	0
78	686	7	10000	4	1	0	4	0
78	687	7	10000	4	1	0	4	0
80	688	7	10000	4	1	0	4	0
81	689	7	10000	4	1	0	4	0
81	690	7	10000	4	1	0	4	0
79	690	7	10000	4	1	0	4	0
75	691	7	10000	4	1	0	4	0
72	693	7	10000	4	1	0	4	0
70	694	7	10000	4	1	0	4	0
68	695	7	10000	4	1	0	4	0
65	696	7	10000	4	1	0	4	0
63	697	7	10000	4	1	0	4	0
61	698	7	10000	4	1	0	4	0
58	699	7	10000	4	1	0	4	0
56	700	7	10000	4	1	0	4	0
56	700	7	10000	4	1	0	4	0
54	701	7	10000	4	1	0	4	0
54	703	7	10000	4	1	0	4	0
53	704	7	10000	4	1	0	4	0
52	705	7	10000	4	1	0	4	0
49	706	7	10000	4	1	0	4	0
48	707	7	10000	4	1	0	4	0
48	708	7	10000	4	1	0	4	0
48	709	7	10000	4	1	0	4	0
48	710	7	10000	4	1	0	4	0
46	710	7	10000	4	1	0	4	0
45	711	7	10000	4	1	0	4	0
43	713	7	10000	4	1	0	4	0
44	714	7	10000	4	1	0	4	0
44	715	7	10000	4	1	0	4	0
43	716	7	10000	4	1	0	4	0
43	717	7	10000	4	1	0	4	0
42	718	7	10000	4	1	0	4	0
44	719	7	10000	4	1	0	4	0
44	720	7	10000	4	1	0	4	0
43	720	7	10000	4	1	0	4	0
42	721	7	10000	4	1	0	4	0
42	723	7	10000	4	1	0	4	0
40	724	7	10000	4	1	0	4	0
39	725	7	10000	4	1	0	4	0
40	726	7	10000	4	1	0	4	0
38	727	7	10000	4	1	0	4	0
37	728	7	10000	4	1	0	4	0
36	729	7	10000	4	1	0	4	0
35	730	7	10000	4	1	0	4	0
34	730	7	10000	4	1	0	4	0
34	731	7	10000	4	1	0	4	0
34	733	7	10000	4	1	0	4	0
35	734	7	10000	4	1	0	4	0
33	735	7	10000	4	1	0	4	0
31	736	7	10000	4	1	0	4	0
31	737	7	10000	4	1	0	4	0
30	738	7	10000	4	1	0	4	0
30	739	7	10000	4	1	0	4	0
31	740	7	10000	4	1	0	4	0
32	740	7	10000	4	1	0	4	0
35	741	7	10000	4	1	0	4	0
37	743	7	10000	4	1	0	4	0
36	744	7	10000	4	1	0	4	0
35	745	7	10000	4	1	0	4	0
36	746	7	10000	4	1	0	4	0
39	747	7	10000	4	1	0	4	0
38	748	7	10000	4	1	0	4	0
37	749	7	10000	4	1	0	4	0
37	750	7	10000	4	1	0	4	0
36	750	7	10000	4	1	0	4	0
34	751	7	10000	4	1	0	4	0
33	753	7	10000	4	1	0	4	0
34	754	7	10000	4	1	0	4	0
34	755	7	10000	4	1	0	4	0
34	756	7	10000	4	1	0	4	0
34	757	7	10000	4	1	0	4	0
33	758	7	10000	4	1	0	4	0
32	759	7	10000	4	1	0	4	0
32	760	7	10000	4	1	0	4	0
34	760	7	10000	4	1	0	4	0
34	761	7	10000	4	1	0	4	0
32	763	7	10000	4	1	0	4	0
30	764	7	10000	4	1	0	4	0
30	765	7	10000	4	1	0	4	0
31	766	7	10000	4	1	0	4	0
31	767	7	10000	4	1	0	4	0
31	768	7	10000	4	1	0	4	0
29	769	7	10000	4	1	0	4	0
29	770	7	10000	4	1	0	4	0
29	770	7	10000	4	1	0	4	0
28	771	7	10000	4	1	0	4	0
26	773	7	10000	4	1	0	4	0
29	774	7	10000	4	1	0	4	0
29	775	7	10000	4	1	0	4	0
29	776	7	10000	4	1	0	4	0
30	777	7	10000	4	1	0	4	0
29	778	7	10000	4	1	0	4	0
30	779	7	10000	4	1	0	4	0
31	780	7	10000	4	1	0	4	0
33	780	7	10000	4	1	0	4	0
35	781	7	10000	4	1	0	4	0
34	783	7	10000	4	1	0	4	0
32	784	7	10000	4	1	0	4	0
31	785	7	10000	4	1	0	4	0
31	786	7	10000	4	1	0	4	0
30	787	7	10000	4	1	0	4	0
29	788	7	10000	4	1	0	4	0
28	789	7	10000	4	1	0	4	0
27	790	7	10000	4	1	0	4	0
25	790	7	10000	4	1	0	4	0
24	791	7	10000	4	1	0	4	0
24	793	7	10000	4	1	0	4	0
25	794	7	10000	4	1	0	4	0
25	795	7	10000	4	1	0	4	0
26	796	7	10000	4	1	0	4	0
29	797	7	10000	4	1	0	4	0
32	798	7	10000	4	1	0	4	0
33	799	7	10000	4	1	0	4	0
35	800	7	10000	4	1	0	4	0
36	800	7	10000	4	1	0	4	0
39	801	7	10000	4	1	0	4	0
41	803	7	10000	4	1	0	4	0
38	804	7	10000	4	1	0	4	0
35	805	7	10000	4	1	0	4	0
35	806	7	10000	4	1	0	4	0
34	807	7	10000	4	1	0	4	0
33	808	7	10000	4	1	0	4	0
32	809	7	10000	4	1	0	4	0
32	810	7	10000	4	1	0	4	0
31	810	7	10000	4	1	0	4	0
29	811	7	10000	4	1	0	4	0
29	813	7	10000	4	1	0	4	0
31	814	7	10000	4	1	0	4	0
31	815	7	10000	4	1	0	4	0
29	816	7	10000	4	1	0	4	0
29	817	7	10000	4	1	0	4	0
28	818	7	10000	4	1	0	4	0
27	819	7	10000	4	1	0	4	0
26	820	7	10000	4	1	0	4	0
26	820	7	10000	4	1	0	4	0
26	821	7	10000	4	1	0	4	0
26	823	7	10000	4	1	0	4	0
26	824	7	10000	4	1	0	4	0
25	825	7	10000	4	1	0	4	0
25	826	7	10000	4	1	0	4	0
24	827	7	10000	4	1	0	4	0
24	828	7	10000	4	1	0	4	0
22	829	7	10000	4	1	0	4	0
22	830	7	10000	4	1	0	4	0
21	830	7	10000	4	1	0	4	0
20	831	7	10000	4	1	0	4	0
19	833	7	10000	4	1	0	4	0
20	834	7	10000	4	1	0	4	0
20	835	7	10000	4	1	0	4	0
19	836	7	10000	4	1	0	4	0
18	837	7	10000	4	1	0	4	0
19	838	7	10000	4	1	0	4	0
17	839	7	10000	4	1	0	4	0
17	840	7	10000	4	1	0	4	0
17	840	7	10000	4	1	0	4	0
17	841	7	10000	4	1	0	4	0
17	843	7	10000	4	1	0	4	0
15	844	7	10000	4	1	0	4	0
14	845	7	10000	4	1	0	4	0
14	846	7	10000	4	1	0	4	0
15	847	7	10000	4	1	0	4	0
16	848	7	10000	4	1	0	4	0
16	849	7	10000	4	1	0	4	0
16	850	7	10000	4	1	0	4	0
15	850	7	10000	4	1	0	4	0
16	851	7	10000	4	1	0	4	0
15	853	7	10000	4	1	0	4	0
16	854	7	10000	4	1	0	4	0
17	855	7	10000	4	1	0	4	0
17	856	7	10000	4	1	0	4	0
17	857	7	10000	4	1	0	4	0
16	858	7	10000	4	1	0	4	0
17	859	7	10000	4	1	0	4	0
15	860	7	10000	4	1	0	4	0
15	860	7	10000	4	1	0	4	0
16	861	7	10000	4	1	0	4	0
18	863	7	10000	4	1	0	4	0
17	864	7	10000	4	1	0	4	0
16	865	7	10000	4	1	0	4	0
17	866	7	10000	4	1	0	4	0
16	867	7	10000	4	1	0	4	0
16	868	7	10000	4	1	0	4	0
16	869	7	10000	4	1	0	4	0
15	870	7	10000	4	1	0	4	0
14	870	7	10000	4	1	0	4	0
13	871	7	10000	4	1	0	4	0
13	873	7	10000	4	1	0	4	0
14	874	7	10000	4	1	0	4	0
14	875	7	10000	4	1	0	4	0
14	876	7	10000	4	1	0	4	0
14	877	7	10000	4	1	0	4	0
14	878	7	10000	4	1	0	4	0
14	879	7	10000	4	1	0	4	0
14	880	7	10000	4	1	0	4	0
13	880	7	10000	4	1	0	4	0
14	881	7	10000	4	1	0	4	0
14	883	7	10000	4	1	0	4	0
12	884	7	10000	4	1	0	4	0
12	885	7	10000	4	1	0	4	0
13	886	7	10000	4	1	0	4	0
14	887	7	10000	4	1	0	4	0
14	888	7	10000	4	1	0	4	0
14	889	7	10000	4	1	0	4	0
13	890	7	10000	4	1	0	4	0
13	890	7	10000	4	1	0	4	0
13	891	7	10000	4	1	0	4	0
12	893	7	10000	4	1	0	4	0
14	894	7	10000	4	1	0	4	0
15	895	7	10000	4	1	0	4	0
15	896	7	10000	4	1	0	4	0
14	897	7	10000	4	1	0	4	0
13	898	7	10000	4	1	0	4	0
13	899	7	10000	4	1	0	4	0
13	900	7	10000	4	1	0	4	0
14	900	7	10000	4	1	0	4	0
13	901	7	10000	4	1	0	4	0
14	903	7	10000	4	1	0	4	0
13	904	7	10000	4	1	0	4	0
14	905	7	10000	4	1	0	4	0
14	906	7	10000	4	1	0	4	0
15	907	7	10000	4	1	0	4	0
16	908	7	10000	4	1	0	4	0
15	909	7	10000	4	1	0	4	0
15	910	7	10000	4	1	0	4	0
14	910	7	10000	4	1	0	4	0
14	911	7	10000	4	1	0	4	0
13	913	7	10000	4	1	0	4	0
15	914	7	10000	4	1	0	4	0
17	915	7	10000	4	1	0	4	0
16	916	7	10000	4	1	0	4	0
17	917	7	10000	4	1	0	4	0
15	918	7	10000	4	1	0	4	0
15	919	7	10000	4	1	0	4	0
15	920	7	10000	4	1	0	4	0
15	920	7	10000	4	1	0	4	0
16	921	7	10000	4	1	0	4	0
16	923	7	10000	4	1	0	4	0
15	924	7	10000	4	1	0	4	0
13	925	7	10000	4	1	0	4	0
13	926	7	10000	4	1	0	4	0
14	927	7	10000	4	1	0	4	0
14	928	7	10000	4	1	0	4	0
15	929	7	10000	4	1	0	4	0
15	930	7	10000	4	1	0	4	0
14	930	7	10000	4	1	0	4	0
13	931	7	10000	4	1	0	4	0
14	933	7	10000	4	1	0	4	0
16	934	7	10000	4	1	0	4	0
17	935	7	10000	4	1	0	4	0
17	936	7	10000	4	1	0	4	0
16	937	7	10000	4	1	0	4	0
15	938	7	10000	4	1	0	4	0
14	939	7	10000	4	1	0	4	0
15	940	7	10000	4	1	0	4	0
15	940	7	10000	4	1	0	4	0
16	941	7	10000	4	1	0	4	0
19	943	7	10000	4	1	0	4	0
17	944	7	10000	4	1	0	4	0
16	945	7	10000	4	1	0	4	0
16	946	7	10000	4	1	0	4	0
16	947	7	10000	4	1	0	4	0
17	948	7	10000	4	1	0	4	0
16	949	7	10000	4	1	0	4	0
17	950	7	10000	4	1	0	4	0
17	950	7	10000	4	1	0	4	0
17	951	7	10000	4	1	0	4	0
16	953	7	10000	4	1	0	4	0
17	954	7	10000	4	1	0	4	0
18	955	7	10000	4	1	0	4	0
17	956	7	10000	4	1	0	4	0
16	957	7	10000	4	1	0	4	0
16	958	7	10000	4	1	0	4	0
16	959	7	10000	4	1	0	4	0
15	960	7	10000	4	1	0	4	0
16	960	7	10000	4	1	0	4	0
17	961	7	10000	4	1	0	4	0
18	963	7	10000	4	1	0	4	0
17	964	7	10000	4	1	0	4	0
15	965	7	10000	4	1	0	4	0
16	966	7	10000	4	1	0	4	0
18	967	7	10000	4	1	0	4	0
20	968	7	10000	4	1	0	4	0
23	969	7	10000	4	1	0	4	0
26	970	7	10000	4	1	0	4	0
29	970	7	10000	4	1	0	4	0
27	971	7	10000	4	1	0	4	0
27	973	7	10000	4	1	0	4	0
29	974	7	10000	4	1	0	4	0
32	975	7	10000	4	1	0	4	0
33	976	7	10000	4	1	0	4	0
34	977	7	10000	4	1	0	4	0
33	978	7	10000	4	1	0	4	0
32	979	7	10000	4	1	0	4	0
32	980	7	10000	4	1	0	4	0
32	980	7	10000	4	1	0	4	0
33	981	7	10000	4	1	0	4	0
32	983	7	10000	4	1	0	4	0
30	984	7	10000	4	1	0	4	0
29	985	7	10000	4	1	0	4	0
30	986	7	10000	4	1	0	4	0
29	987	7	10000	4	1	0	4	0
29	988	7	10000	4	1	0	4	0
29	989	7	10000	4	1	0	4	0
28	990	7	10000	4	1	0	4	0
27	990	7	10000	4	1	0	4	0
26	991	7	10000	4	1	0	4	0
25	993	7	10000	4	1	0	4	0
25	994	7	10000	4	1	0	4	0
26	995	7	10000	4	1	0	4	0
25	996	7	10000	4	1	0	4	0
24	997	7	10000	4	1	0	4	0
23	998	7	10000	4	1	0	4	0
23	999	7	10000	4	1	0	4	0
23	1000	7	10000	4	1	0	4	0
23	1000	7	10000	4	1	0	4	0
22	1001	7	10000	4	1	0	4	0
28	1	0	10000	5	1	0	5	0
31	2	0	10000	5	1	0	5	0
31	3	0	10000	5	1	0	5	0
37	4	0	10000	5	1	0	5	0
39	5	0	10000	5	1	0	5	0
39	6	0	10000	5	1	0	5	0
40	7	0	10000	5	1	0	5	0
46	8	0	10000	5	1	0	5	0
47	9	0	10000	5	1	0	5	0
63	10	0	10000	5	1	0	5	0
89	11	0	10000	5	1	0	5	0
102	12	0	10000	5	1	0	5	0
102	13	0	10000	5	1	0	5	0
104	14	0	10000	5	1	0	5	0
112	15	0	10000	5	1	0	5	0
124	16	0	10000	5	1	0	5	0
126	17	0	10000	5	1	0	5	0
146	18	0	10000	5	1	0	5	0
161	19	0	10000	5	1	0	5	0
165	20	0	10000	5	1	0	5	0
179	21	0	10000	5	1	0	5	0
194	22	0	10000	5	1	0	5	0
201	23	0	10000	5	1	0	5	0
200	24	0	10000	5	1	0	5	0
193	25	0	10000	5	1	0	5	0
186	26	0	10000	5	1	0	5	0
200	27	0	10000	5	1	0	5	0
198	28	0	10000	5	1	0	5	0
196	29	0	10000	5	1	0	5	0
198	30	0	10000	5	1	0	5	0
206	31	0	10000	5	1	0	5	0
201	32	0	10000	5	1	0	5	0
204	33	0	10000	5	1	0	5	0
226	34	0	10000	5	1	0	5	0
241	35	0	10000	5	1	0	5	0
235	36	0	10000	5	1	0	5	0
226	37	0	10000	5	1	0	5	0
218	38	0	10000	5	1	0	5	0
213	39	0	10000	5	1	0	5	0
207	40	0	10000	5	1	0	5	0
204	41	0	10000	5	1	0	5	0
199	42	0	10000	5	1	0	5	0
204	43	0	10000	5	1	0	5	0
213	44	0	10000	5	1	0	5	0
215	45	0	10000	5	1	0	5	0
220	46	0	10000	5	1	0	5	0
226	47	0	10000	5	1	0	5	0
236	48	0	10000	5	1	0	5	0
234	49	0	10000	5	1	0	5	0
225	50	0	10000	5	1	0	5	0
219	51	0	10000	5	1	0	5	0
221	52	0	10000	5	1	0	5	0
223	53	0	10000	5	1	0	5	0
215	54	0	10000	5	1	0	5	0
209	55	0	10000	5	1	0	5	0
203	56	0	10000	5	1	0	5	0
197	57	0	10000	5	1	0	5	0
193	58	0	10000	5	1	0	5	0
191	59	0	10000	5	1	0	5	0
192	60	0	10000	5	1	0	5	0
194	61	0	10000	5	1	0	5	0
197	62	0	10000	5	1	0	5	0
196	63	0	10000	5	1	0	5	0
193	64	0	10000	5	1	0	5	0
188	65	0	10000	5	1	0	5	0
184	66	0	10000	5	1	0	5	0
184	67	0	10000	5	1	0	5	0
180	68	0	10000	5	1	0	5	0
177	69	0	10000	5	1	0	5	0
174	70	0	10000	5	1	0	5	0
170	71	0	10000	5	1	0	5	0
164	72	0	10000	5	1	0	5	0
158	73	0	10000	5	1	0	5	0
154	74	0	10000	5	1	0	5	0
148	75	0	10000	5	1	0	5	0
142	76	0	10000	5	1	0	5	0
135	77	0	10000	5	1	0	5	0
133	78	0	10000	5	1	0	5	0
134	79	0	10000	5	1	0	5	0
134	80	0	10000	5	1	0	5	0
132	81	0	10000	5	1	0	5	0
131	82	0	10000	5	1	0	5	0
131	83	0	10000	5	1	0	5	0
134	84	0	10000	5	1	0	5	0
140	85	0	10000	5	1	0	5	0
145	86	0	10000	5	1	0	5	0
150	87	0	10000	5	1	0	5	0
155	88	0	10000	5	1	0	5	0
159	89	0	10000	5	1	0	5	0
167	90	0	10000	5	1	0	5	0
177	91	0	10000	5	1	0	5	0
182	92	0	10000	5	1	0	5	0
188	93	0	10000	5	1	0	5	0
194	94	0	10000	5	1	0	5	0
200	95	0	10000	5	1	0	5	0
203	96	0	10000	5	1	0	5	0
206	97	0	10000	5	1	0	5	0
208	98	0	10000	5	1	0	5	0
211	99	0	10000	5	1	0	5	0
212	100	0	10000	5	1	0	5	0
213	101	0	10000	5	1	0	5	0
220	102	0	10000	5	1	0	5	0
225	103	0	10000	5	1	0	5	0
230	104	0	10000	5	1	0	5	0
234	105	0	10000	5	1	0	5	0
237	106	0	10000	5	1	0	5	0
239	107	0	10000	5	1	0	5	0
236	108	0	10000	5	1	0	5	0
232	109	0	10000	5	1	0	5	0
228	110	0	10000	5	1	0	5	0
226	111	0	10000	5	1	0	5	0
223	112	0	10000	5	1	0	5	0
220	113	0	10000	5	1	0	5	0
217	114	0	10000	5	1	0	5	0
213	115	0	10000	5	1	0	5	0
209	116	0	10000	5	1	0	5	0
204	117	0	10000	5	1	0	5	0
199	118	0	10000	5	1	0	5	0
194	119	0	10000	5	1	0	5	0
188	120	0	10000	5	1	0	5	0
180	121	0	10000	5	1	0	5	0
174	122	0	10000	5	1	0	5	0
169	123	0	10000	5	1	0	5	0
163	124	0	10000	5	1	0	5	0
156	125	0	10000	5	1	0	5	0
149	126	0	10000	5	1	0	5	0
143	127	0	10000	5	1	0	5	0
136	128	0	10000	5	1	0	5	0
131	129	0	10000	5	1	0	5	0
128	130	0	10000	5	1	0	5	0
127	131	0	10000	5	1	0	5	0
122	132	0	10000	5	1	0	5	0
116	133	0	10000	5	1	0	5	0
111	134	0	10000	5	1	0	5	0
107	135	0	10000	5	1	0	5	0
103	136	0	10000	5	1	0	5	0
99	137	0	10000	5	1	0	5	0
95	138	0	10000	5	1	0	5	0
91	139	0	10000	5	1	0	5	0
89	140	0	10000	5	1	0	5	0
86	141	0	10000	5	1	0	5	0
86	142	0	10000	5	1	0	5	0
86	143	0	10000	5	1	0	5	0
84	144	0	10000	5	1	0	5	0
82	145	0	10000	5	1	0	5	0
81	146	0	10000	5	1	0	5	0
80	147	0	10000	5	1	0	5	0
78	148	0	10000	5	1	0	5	0
76	149	0	10000	5	1	0	5	0
75	150	0	10000	5	1	0	5	0
75	151	0	10000	5	1	0	5	0
72	152	0	10000	5	1	0	5	0
69	153	0	10000	5	1	0	5	0
68	154	0	10000	5	1	0	5	0
67	155	0	10000	5	1	0	5	0
66	156	0	10000	5	1	0	5	0
67	157	0	10000	5	1	0	5	0
68	158	0	10000	5	1	0	5	0
68	159	0	10000	5	1	0	5	0
70	160	0	10000	5	1	0	5	0
68	161	0	10000	5	1	0	5	0
67	162	0	10000	5	1	0	5	0
64	163	0	10000	5	1	0	5	0
62	164	0	10000	5	1	0	5	0
62	165	0	10000	5	1	0	5	0
62	166	0	10000	5	1	0	5	0
62	167	0	10000	5	1	0	5	0
61	168	0	10000	5	1	0	5	0
61	169	0	10000	5	1	0	5	0
61	170	0	10000	5	1	0	5	0
61	171	0	10000	5	1	0	5	0
59	172	0	10000	5	1	0	5	0
56	173	0	10000	5	1	0	5	0
54	174	0	10000	5	1	0	5	0
53	175	0	10000	5	1	0	5	0
51	176	0	10000	5	1	0	5	0
51	177	0	10000	5	1	0	5	0
52	178	0	10000	5	1	0	5	0
53	179	0	10000	5	1	0	5	0
55	180	0	10000	5	1	0	5	0
56	181	0	10000	5	1	0	5	0
57	182	0	10000	5	1	0	5	0
58	183	0	10000	5	1	0	5	0
59	184	0	10000	5	1	0	5	0
59	185	0	10000	5	1	0	5	0
59	186	0	10000	5	1	0	5	0
59	187	0	10000	5	1	0	5	0
57	188	0	10000	5	1	0	5	0
55	189	0	10000	5	1	0	5	0
53	190	0	10000	5	1	0	5	0
54	191	0	10000	5	1	0	5	0
52	192	0	10000	5	1	0	5	0
50	193	0	10000	5	1	0	5	0
49	194	0	10000	5	1	0	5	0
49	195	0	10000	5	1	0	5	0
49	196	0	10000	5	1	0	5	0
49	197	0	10000	5	1	0	5	0
50	198	0	10000	5	1	0	5	0
50	199	0	10000	5	1	0	5	0
50	200	0	10000	5	1	0	5	0
47	201	0	10000	5	1	0	5	0
47	202	0	10000	5	1	0	5	0
45	203	0	10000	5	1	0	5	0
44	204	0	10000	5	1	0	5	0
43	205	0	10000	5	1	0	5	0
42	206	0	10000	5	1	0	5	0
41	207	0	10000	5	1	0	5	0
38	208	0	10000	5	1	0	5	0
36	209	0	10000	5	1	0	5	0
35	210	0	10000	5	1	0	5	0
36	211	0	10000	5	1	0	5	0
36	212	0	10000	5	1	0	5	0
35	213	0	10000	5	1	0	5	0
34	214	0	10000	5	1	0	5	0
32	215	0	10000	5	1	0	5	0
32	216	0	10000	5	1	0	5	0
30	217	0	10000	5	1	0	5	0
30	218	0	10000	5	1	0	5	0
31	219	0	10000	5	1	0	5	0
32	220	0	10000	5	1	0	5	0
32	221	0	10000	5	1	0	5	0
33	222	0	10000	5	1	0	5	0
34	223	0	10000	5	1	0	5	0
34	224	0	10000	5	1	0	5	0
35	225	0	10000	5	1	0	5	0
35	226	0	10000	5	1	0	5	0
34	227	0	10000	5	1	0	5	0
33	228	0	10000	5	1	0	5	0
32	229	0	10000	5	1	0	5	0
31	230	0	10000	5	1	0	5	0
33	231	0	10000	5	1	0	5	0
32	232	0	10000	5	1	0	5	0
30	233	0	10000	5	1	0	5	0
29	234	0	10000	5	1	0	5	0
28	235	0	10000	5	1	0	5	0
27	236	0	10000	5	1	0	5	0
26	237	0	10000	5	1	0	5	0
26	238	0	10000	5	1	0	5	0
28	239	0	10000	5	1	0	5	0
30	240	0	10000	5	1	0	5	0
30	241	0	10000	5	1	0	5	0
31	242	0	10000	5	1	0	5	0
30	243	0	10000	5	1	0	5	0
29	244	0	10000	5	1	0	5	0
28	245	0	10000	5	1	0	5	0
29	246	0	10000	5	1	0	5	0
30	247	0	10000	5	1	0	5	0
30	248	0	10000	5	1	0	5	0
29	249	0	10000	5	1	0	5	0
27	250	0	10000	5	1	0	5	0
29	251	0	10000	5	1	0	5	0
27	252	0	10000	5	1	0	5	0
26	253	0	10000	5	1	0	5	0
25	254	0	10000	5	1	0	5	0
25	255	0	10000	5	1	0	5	0
24	256	0	10000	5	1	0	5	0
24	257	0	10000	5	1	0	5	0
24	258	0	10000	5	1	0	5	0
24	259	0	10000	5	1	0	5	0
26	260	0	10000	5	1	0	5	0
25	261	0	10000	5	1	0	5	0
25	262	0	10000	5	1	0	5	0
25	263	0	10000	5	1	0	5	0
24	264	0	10000	5	1	0	5	0
25	265	0	10000	5	1	0	5	0
26	266	0	10000	5	1	0	5	0
26	267	0	10000	5	1	0	5	0
24	268	0	10000	5	1	0	5	0
23	269	0	10000	5	1	0	5	0
22	270	0	10000	5	1	0	5	0
25	271	0	10000	5	1	0	5	0
24	272	0	10000	5	1	0	5	0
23	273	0	10000	5	1	0	5	0
23	274	0	10000	5	1	0	5	0
22	275	0	10000	5	1	0	5	0
20	276	0	10000	5	1	0	5	0
21	277	0	10000	5	1	0	5	0
23	278	0	10000	5	1	0	5	0
24	279	0	10000	5	1	0	5	0
24	280	0	10000	5	1	0	5	0
24	281	0	10000	5	1	0	5	0
25	282	0	10000	5	1	0	5	0
25	283	0	10000	5	1	0	5	0
25	284	0	10000	5	1	0	5	0
25	285	0	10000	5	1	0	5	0
26	286	0	10000	5	1	0	5	0
25	287	0	10000	5	1	0	5	0
25	288	0	10000	5	1	0	5	0
25	289	0	10000	5	1	0	5	0
24	290	0	10000	5	1	0	5	0
26	291	0	10000	5	1	0	5	0
26	292	0	10000	5	1	0	5	0
25	293	0	10000	5	1	0	5	0
24	294	0	10000	5	1	0	5	0
23	295	0	10000	5	1	0	5	0
22	296	0	10000	5	1	0	5	0
21	297	0	10000	5	1	0	5	0
22	298	0	10000	5	1	0	5	0
21	299	0	10000	5	1	0	5	0
22	300	0	10000	5	1	0	5	0
19	301	0	10000	5	1	0	5	0
20	302	0	10000	5	1	0	5	0
20	303	0	10000	5	1	0	5	0
21	304	0	10000	5	1	0	5	0
21	305	0	10000	5	1	0	5	0
21	306	0	10000	5	1	0	5	0
20	307	0	10000	5	1	0	5	0
20	308	0	10000	5	1	0	5	0
19	309	0	10000	5	1	0	5	0
19	310	0	10000	5	1	0	5	0
22	311	0	10000	5	1	0	5	0
21	312	0	10000	5	1	0	5	0
21	313	0	10000	5	1	0	5	0
22	314	0	10000	5	1	0	5	0
21	315	0	10000	5	1	0	5	0
22	316	0	10000	5	1	0	5	0
23	317	0	10000	5	1	0	5	0
24	318	0	10000	5	1	0	5	0
24	319	0	10000	5	1	0	5	0
23	320	0	10000	5	1	0	5	0
20	321	0	10000	5	1	0	5	0
20	322	0	10000	5	1	0	5	0
20	323	0	10000	5	1	0	5	0
20	324	0	10000	5	1	0	5	0
19	325	0	10000	5	1	0	5	0
19	326	0	10000	5	1	0	5	0
20	327	0	10000	5	1	0	5	0
19	328	0	10000	5	1	0	5	0
17	329	0	10000	5	1	0	5	0
18	330	0	10000	5	1	0	5	0
19	331	0	10000	5	1	0	5	0
19	332	0	10000	5	1	0	5	0
20	333	0	10000	5	1	0	5	0
20	334	0	10000	5	1	0	5	0
19	335	0	10000	5	1	0	5	0
18	336	0	10000	5	1	0	5	0
18	337	0	10000	5	1	0	5	0
17	338	0	10000	5	1	0	5	0
17	339	0	10000	5	1	0	5	0
19	340	0	10000	5	1	0	5	0
17	341	0	10000	5	1	0	5	0
17	342	0	10000	5	1	0	5	0
18	343	0	10000	5	1	0	5	0
20	344	0	10000	5	1	0	5	0
24	345	0	10000	5	1	0	5	0
27	346	0	10000	5	1	0	5	0
30	347	0	10000	5	1	0	5	0
29	348	0	10000	5	1	0	5	0
27	349	0	10000	5	1	0	5	0
25	350	0	10000	5	1	0	5	0
27	351	0	10000	5	1	0	5	0
26	352	0	10000	5	1	0	5	0
24	353	0	10000	5	1	0	5	0
23	354	0	10000	5	1	0	5	0
22	355	0	10000	5	1	0	5	0
21	356	0	10000	5	1	0	5	0
20	357	0	10000	5	1	0	5	0
20	358	0	10000	5	1	0	5	0
20	359	0	10000	5	1	0	5	0
20	360	0	10000	5	1	0	5	0
18	361	0	10000	5	1	0	5	0
17	362	0	10000	5	1	0	5	0
17	363	0	10000	5	1	0	5	0
18	364	0	10000	5	1	0	5	0
19	365	0	10000	5	1	0	5	0
20	366	0	10000	5	1	0	5	0
22	367	0	10000	5	1	0	5	0
22	368	0	10000	5	1	0	5	0
22	369	0	10000	5	1	0	5	0
20	370	0	10000	5	1	0	5	0
22	371	0	10000	5	1	0	5	0
22	372	0	10000	5	1	0	5	0
22	373	0	10000	5	1	0	5	0
22	374	0	10000	5	1	0	5	0
22	375	0	10000	5	1	0	5	0
22	376	0	10000	5	1	0	5	0
20	377	0	10000	5	1	0	5	0
20	378	0	10000	5	1	0	5	0
20	379	0	10000	5	1	0	5	0
20	380	0	10000	5	1	0	5	0
18	381	0	10000	5	1	0	5	0
18	382	0	10000	5	1	0	5	0
18	383	0	10000	5	1	0	5	0
18	384	0	10000	5	1	0	5	0
18	385	0	10000	5	1	0	5	0
18	386	0	10000	5	1	0	5	0
18	387	0	10000	5	1	0	5	0
17	388	0	10000	5	1	0	5	0
18	389	0	10000	5	1	0	5	0
21	390	0	10000	5	1	0	5	0
27	391	0	10000	5	1	0	5	0
29	392	0	10000	5	1	0	5	0
30	393	0	10000	5	1	0	5	0
29	394	0	10000	5	1	0	5	0
27	395	0	10000	5	1	0	5	0
26	396	0	10000	5	1	0	5	0
25	397	0	10000	5	1	0	5	0
25	398	0	10000	5	1	0	5	0
25	399	0	10000	5	1	0	5	0
25	400	0	10000	5	1	0	5	0
22	401	0	10000	5	1	0	5	0
21	402	0	10000	5	1	0	5	0
21	403	0	10000	5	1	0	5	0
21	404	0	10000	5	1	0	5	0
20	405	0	10000	5	1	0	5	0
20	406	0	10000	5	1	0	5	0
21	407	0	10000	5	1	0	5	0
20	408	0	10000	5	1	0	5	0
20	409	0	10000	5	1	0	5	0
21	410	0	10000	5	1	0	5	0
24	411	0	10000	5	1	0	5	0
23	412	0	10000	5	1	0	5	0
21	413	0	10000	5	1	0	5	0
21	414	0	10000	5	1	0	5	0
20	415	0	10000	5	1	0	5	0
19	416	0	10000	5	1	0	5	0
19	417	0	10000	5	1	0	5	0
20	418	0	10000	5	1	0	5	0
19	419	0	10000	5	1	0	5	0
19	420	0	10000	5	1	0	5	0
17	421	0	10000	5	1	0	5	0
16	422	0	10000	5	1	0	5	0
18	423	0	10000	5	1	0	5	0
18	424	0	10000	5	1	0	5	0
19	425	0	10000	5	1	0	5	0
20	426	0	10000	5	1	0	5	0
20	427	0	10000	5	1	0	5	0
21	428	0	10000	5	1	0	5	0
20	429	0	10000	5	1	0	5	0
20	430	0	10000	5	1	0	5	0
21	431	0	10000	5	1	0	5	0
21	432	0	10000	5	1	0	5	0
20	433	0	10000	5	1	0	5	0
19	434	0	10000	5	1	0	5	0
19	435	0	10000	5	1	0	5	0
18	436	0	10000	5	1	0	5	0
18	437	0	10000	5	1	0	5	0
19	438	0	10000	5	1	0	5	0
20	439	0	10000	5	1	0	5	0
21	440	0	10000	5	1	0	5	0
18	441	0	10000	5	1	0	5	0
19	442	0	10000	5	1	0	5	0
18	443	0	10000	5	1	0	5	0
18	444	0	10000	5	1	0	5	0
18	445	0	10000	5	1	0	5	0
18	446	0	10000	5	1	0	5	0
19	447	0	10000	5	1	0	5	0
18	448	0	10000	5	1	0	5	0
17	449	0	10000	5	1	0	5	0
17	450	0	10000	5	1	0	5	0
19	451	0	10000	5	1	0	5	0
18	452	0	10000	5	1	0	5	0
18	453	0	10000	5	1	0	5	0
17	454	0	10000	5	1	0	5	0
17	455	0	10000	5	1	0	5	0
18	456	0	10000	5	1	0	5	0
17	457	0	10000	5	1	0	5	0
17	458	0	10000	5	1	0	5	0
18	459	0	10000	5	1	0	5	0
19	460	0	10000	5	1	0	5	0
16	461	0	10000	5	1	0	5	0
17	462	0	10000	5	1	0	5	0
17	463	0	10000	5	1	0	5	0
18	464	0	10000	5	1	0	5	0
18	465	0	10000	5	1	0	5	0
18	466	0	10000	5	1	0	5	0
18	467	0	10000	5	1	0	5	0
17	468	0	10000	5	1	0	5	0
16	469	0	10000	5	1	0	5	0
17	470	0	10000	5	1	0	5	0
18	471	0	10000	5	1	0	5	0
18	472	0	10000	5	1	0	5	0
17	473	0	10000	5	1	0	5	0
17	474	0	10000	5	1	0	5	0
16	475	0	10000	5	1	0	5	0
15	476	0	10000	5	1	0	5	0
15	477	0	10000	5	1	0	5	0
16	478	0	10000	5	1	0	5	0
16	479	0	10000	5	1	0	5	0
16	480	0	10000	5	1	0	5	0
14	481	0	10000	5	1	0	5	0
14	482	0	10000	5	1	0	5	0
14	483	0	10000	5	1	0	5	0
14	484	0	10000	5	1	0	5	0
14	485	0	10000	5	1	0	5	0
16	486	0	10000	5	1	0	5	0
16	487	0	10000	5	1	0	5	0
16	488	0	10000	5	1	0	5	0
17	489	0	10000	5	1	0	5	0
18	490	0	10000	5	1	0	5	0
22	491	0	10000	5	1	0	5	0
23	492	0	10000	5	1	0	5	0
22	493	0	10000	5	1	0	5	0
21	494	0	10000	5	1	0	5	0
20	495	0	10000	5	1	0	5	0
20	496	0	10000	5	1	0	5	0
20	497	0	10000	5	1	0	5	0
23	498	0	10000	5	1	0	5	0
24	499	0	10000	5	1	0	5	0
24	500	0	10000	5	1	0	5	0
22	501	0	10000	5	1	0	5	1
24	502	0	10000	5	1	0	5	1
23	503	0	10000	5	1	0	5	1
23	504	0	10000	5	1	0	5	1
24	505	0	10000	5	1	0	5	1
23	506	0	10000	5	1	0	5	1
22	507	0	10000	5	1	0	5	1
21	508	0	10000	5	1	0	5	1
21	509	0	10000	5	1	0	5	1
21	510	0	10000	5	1	0	5	1
22	511	0	10000	5	1	0	5	1
22	512	0	10000	5	1	0	5	1
20	513	0	10000	5	1	0	5	1
20	514	0	10000	5	1	0	5	1
20	515	0	10000	5	1	0	5	1
20	516	0	10000	5	1	0	5	1
19	517	0	10000	5	1	0	5	1
19	518	0	10000	5	1	0	5	1
20	519	0	10000	5	1	0	5	1
19	520	0	10000	5	1	0	5	1
17	521	0	10000	5	1	0	5	1
17	522	0	10000	5	1	0	5	1
16	523	0	10000	5	1	0	5	1
16	524	0	10000	5	1	0	5	1
16	525	0	10000	5	1	0	5	1
17	526	0	10000	5	1	0	5	1
16	527	0	10000	5	1	0	5	1
14	528	0	10000	5	1	0	5	1
15	529	0	10000	5	1	0	5	1
18	530	0	10000	5	1	0	5	1
26	531	0	10000	5	1	0	5	1
32	532	0	10000	5	1	0	5	1
37	533	0	10000	5	1	0	5	1
43	534	0	10000	5	1	0	5	1
51	535	0	10000	5	1	0	5	1
57	536	0	10000	5	1	0	5	1
59	537	0	10000	5	1	0	5	1
58	538	0	10000	5	1	0	5	1
62	539	0	10000	5	1	0	5	1
72	540	0	10000	5	1	0	5	1
80	541	0	10000	5	1	0	5	1
90	542	0	10000	5	1	0	5	1
97	543	0	10000	5	1	0	5	1
104	544	0	10000	5	1	0	5	1
105	545	0	10000	5	1	0	5	1
104	546	0	10000	5	1	0	5	1
111	547	0	10000	5	1	0	5	1
118	548	0	10000	5	1	0	5	1
122	549	0	10000	5	1	0	5	1
117	550	0	10000	5	1	0	5	1
115	551	0	10000	5	1	0	5	0
113	552	0	10000	5	1	0	5	0
113	553	0	10000	5	1	0	5	0
111	554	0	10000	5	1	0	5	0
108	555	0	10000	5	1	0	5	0
108	556	0	10000	5	1	0	5	0
109	557	0	10000	5	1	0	5	0
111	558	0	10000	5	1	0	5	0
113	559	0	10000	5	1	0	5	0
113	560	0	10000	5	1	0	5	0
108	561	0	10000	5	1	0	5	0
103	562	0	10000	5	1	0	5	0
103	563	0	10000	5	1	0	5	0
109	564	0	10000	5	1	0	5	0
112	565	0	10000	5	1	0	5	0
111	566	0	10000	5	1	0	5	0
108	567	0	10000	5	1	0	5	0
104	568	0	10000	5	1	0	5	0
99	569	0	10000	5	1	0	5	0
96	570	0	10000	5	1	0	5	0
95	571	0	10000	5	1	0	5	0
91	572	0	10000	5	1	0	5	0
89	573	0	10000	5	1	0	5	0
87	574	0	10000	5	1	0	5	0
86	575	0	10000	5	1	0	5	0
83	576	0	10000	5	1	0	5	0
80	577	0	10000	5	1	0	5	0
76	578	0	10000	5	1	0	5	0
73	579	0	10000	5	1	0	5	0
70	580	0	10000	5	1	0	5	0
66	581	0	10000	5	1	0	5	0
64	582	0	10000	5	1	0	5	0
62	583	0	10000	5	1	0	5	0
61	584	0	10000	5	1	0	5	0
59	585	0	10000	5	1	0	5	0
61	586	0	10000	5	1	0	5	0
67	587	0	10000	5	1	0	5	0
68	588	0	10000	5	1	0	5	0
79	589	0	10000	5	1	0	5	0
95	590	0	10000	5	1	0	5	0
111	591	0	10000	5	1	0	5	0
116	592	0	10000	5	1	0	5	0
112	593	0	10000	5	1	0	5	0
117	594	0	10000	5	1	0	5	0
133	595	0	10000	5	1	0	5	0
153	596	0	10000	5	1	0	5	0
159	597	0	10000	5	1	0	5	0
155	598	0	10000	5	1	0	5	0
151	599	0	10000	5	1	0	5	0
147	600	0	10000	5	1	0	5	0
142	601	0	10000	5	1	0	5	0
139	602	0	10000	5	1	0	5	0
147	603	0	10000	5	1	0	5	0
164	604	0	10000	5	1	0	5	0
166	605	0	10000	5	1	0	5	0
159	606	0	10000	5	1	0	5	0
163	607	0	10000	5	1	0	5	0
178	608	0	10000	5	1	0	5	0
187	609	0	10000	5	1	0	5	0
189	610	0	10000	5	1	0	5	0
189	611	0	10000	5	1	0	5	0
181	612	0	10000	5	1	0	5	0
175	613	0	10000	5	1	0	5	0
169	614	0	10000	5	1	0	5	0
164	615	0	10000	5	1	0	5	0
157	616	0	10000	5	1	0	5	0
161	617	0	10000	5	1	0	5	0
170	618	0	10000	5	1	0	5	0
169	619	0	10000	5	1	0	5	0
165	620	0	10000	5	1	0	5	0
158	621	0	10000	5	1	0	5	0
153	622	0	10000	5	1	0	5	0
150	623	0	10000	5	1	0	5	0
148	624	0	10000	5	1	0	5	0
146	625	0	10000	5	1	0	5	0
143	626	0	10000	5	1	0	5	0
145	627	0	10000	5	1	0	5	0
144	628	0	10000	5	1	0	5	0
145	629	0	10000	5	1	0	5	0
145	630	0	10000	5	1	0	5	0
143	631	0	10000	5	1	0	5	0
137	632	0	10000	5	1	0	5	0
137	633	0	10000	5	1	0	5	0
137	634	0	10000	5	1	0	5	0
137	635	0	10000	5	1	0	5	0
138	636	0	10000	5	1	0	5	0
134	637	0	10000	5	1	0	5	0
133	638	0	10000	5	1	0	5	0
132	639	0	10000	5	1	0	5	0
134	640	0	10000	5	1	0	5	0
133	641	0	10000	5	1	0	5	0
129	642	0	10000	5	1	0	5	0
128	643	0	10000	5	1	0	5	0
128	644	0	10000	5	1	0	5	0
126	645	0	10000	5	1	0	5	0
122	646	0	10000	5	1	0	5	0
120	647	0	10000	5	1	0	5	0
119	648	0	10000	5	1	0	5	0
122	649	0	10000	5	1	0	5	0
125	650	0	10000	5	1	0	5	0
126	651	0	10000	5	1	0	5	0
123	652	0	10000	5	1	0	5	0
118	653	0	10000	5	1	0	5	0
113	654	0	10000	5	1	0	5	0
108	655	0	10000	5	1	0	5	0
107	656	0	10000	5	1	0	5	0
107	657	0	10000	5	1	0	5	0
109	658	0	10000	5	1	0	5	0
109	659	0	10000	5	1	0	5	0
111	660	0	10000	5	1	0	5	0
105	661	0	10000	5	1	0	5	0
103	662	0	10000	5	1	0	5	0
101	663	0	10000	5	1	0	5	0
96	664	0	10000	5	1	0	5	0
94	665	0	10000	5	1	0	5	0
98	666	0	10000	5	1	0	5	0
106	667	0	10000	5	1	0	5	0
112	668	0	10000	5	1	0	5	0
114	669	0	10000	5	1	0	5	0
111	670	0	10000	5	1	0	5	0
110	671	0	10000	5	1	0	5	0
110	672	0	10000	5	1	0	5	0
107	673	0	10000	5	1	0	5	0
105	674	0	10000	5	1	0	5	0
110	675	0	10000	5	1	0	5	0
114	676	0	10000	5	1	0	5	0
118	677	0	10000	5	1	0	5	0
116	678	0	10000	5	1	0	5	0
112	679	0	10000	5	1	0	5	0
112	680	0	10000	5	1	0	5	0
108	681	0	10000	5	1	0	5	0
104	682	0	10000	5	1	0	5	0
102	683	0	10000	5	1	0	5	0
103	684	0	10000	5	1	0	5	0
104	685	0	10000	5	1	0	5	0
108	686	0	10000	5	1	0	5	0
110	687	0	10000	5	1	0	5	0
109	688	0	10000	5	1	0	5	0
106	689	0	10000	5	1	0	5	0
101	690	0	10000	5	1	0	5	0
100	691	0	10000	5	1	0	5	0
95	692	0	10000	5	1	0	5	0
90	693	0	10000	5	1	0	5	0
86	694	0	10000	5	1	0	5	0
83	695	0	10000	5	1	0	5	0
80	696	0	10000	5	1	0	5	0
78	697	0	10000	5	1	0	5	0
76	698	0	10000	5	1	0	5	0
72	699	0	10000	5	1	0	5	0
71	700	0	10000	5	1	0	5	0
68	701	0	10000	5	1	0	5	0
66	702	0	10000	5	1	0	5	0
64	703	0	10000	5	1	0	5	0
63	704	0	10000	5	1	0	5	0
62	705	0	10000	5	1	0	5	0
61	706	0	10000	5	1	0	5	0
58	707	0	10000	5	1	0	5	0
56	708	0	10000	5	1	0	5	0
55	709	0	10000	5	1	0	5	0
53	710	0	10000	5	1	0	5	0
54	711	0	10000	5	1	0	5	0
54	712	0	10000	5	1	0	5	0
52	713	0	10000	5	1	0	5	0
50	714	0	10000	5	1	0	5	0
48	715	0	10000	5	1	0	5	0
47	716	0	10000	5	1	0	5	0
46	717	0	10000	5	1	0	5	0
46	718	0	10000	5	1	0	5	0
48	719	0	10000	5	1	0	5	0
47	720	0	10000	5	1	0	5	0
43	721	0	10000	5	1	0	5	0
42	722	0	10000	5	1	0	5	0
41	723	0	10000	5	1	0	5	0
41	724	0	10000	5	1	0	5	0
41	725	0	10000	5	1	0	5	0
43	726	0	10000	5	1	0	5	0
44	727	0	10000	5	1	0	5	0
46	728	0	10000	5	1	0	5	0
46	729	0	10000	5	1	0	5	0
45	730	0	10000	5	1	0	5	0
46	731	0	10000	5	1	0	5	0
46	732	0	10000	5	1	0	5	0
45	733	0	10000	5	1	0	5	0
44	734	0	10000	5	1	0	5	0
43	735	0	10000	5	1	0	5	0
44	736	0	10000	5	1	0	5	0
45	737	0	10000	5	1	0	5	0
45	738	0	10000	5	1	0	5	0
45	739	0	10000	5	1	0	5	0
46	740	0	10000	5	1	0	5	0
44	741	0	10000	5	1	0	5	0
45	742	0	10000	5	1	0	5	0
45	743	0	10000	5	1	0	5	0
47	744	0	10000	5	1	0	5	0
49	745	0	10000	5	1	0	5	0
50	746	0	10000	5	1	0	5	0
53	747	0	10000	5	1	0	5	0
53	748	0	10000	5	1	0	5	0
54	749	0	10000	5	1	0	5	0
52	750	0	10000	5	1	0	5	0
54	751	0	10000	5	1	0	5	0
52	752	0	10000	5	1	0	5	0
53	753	0	10000	5	1	0	5	0
56	754	0	10000	5	1	0	5	0
55	755	0	10000	5	1	0	5	0
54	756	0	10000	5	1	0	5	0
53	757	0	10000	5	1	0	5	0
52	758	0	10000	5	1	0	5	0
51	759	0	10000	5	1	0	5	0
49	760	0	10000	5	1	0	5	0
47	761	0	10000	5	1	0	5	0
45	762	0	10000	5	1	0	5	0
46	763	0	10000	5	1	0	5	0
46	764	0	10000	5	1	0	5	0
45	765	0	10000	5	1	0	5	0
43	766	0	10000	5	1	0	5	0
41	767	0	10000	5	1	0	5	0
41	768	0	10000	5	1	0	5	0
39	769	0	10000	5	1	0	5	0
37	770	0	10000	5	1	0	5	0
38	771	0	10000	5	1	0	5	0
36	772	0	10000	5	1	0	5	0
35	773	0	10000	5	1	0	5	0
34	774	0	10000	5	1	0	5	0
34	775	0	10000	5	1	0	5	0
32	776	0	10000	5	1	0	5	0
31	777	0	10000	5	1	0	5	0
30	778	0	10000	5	1	0	5	0
