value	EMG	Stimulus	EMG_sensitivity	Total_Trial_Nr	practise	acq	probe_nr	Startle_Probe
23	2	0	10000	1	1	0	1	0
24	3	0	10000	1	1	0	1	0
23	4	0	10000	1	1	0	1	0
24	5	0	10000	1	1	0	1	0
24	6	0	10000	1	1	0	1	0
22	7	0	10000	1	1	0	1	0
21	8	0	10000	1	1	0	1	0
21	9	0	10000	1	1	0	1	0
22	10	0	10000	1	1	0	1	0
22	11	0	10000	1	1	0	1	0
22	12	0	10000	1	1	0	1	0
23	13	0	10000	1	1	0	1	0
22	14	0	10000	1	1	0	1	0
21	15	0	10000	1	1	0	1	0
21	16	0	10000	1	1	0	1	0
21	17	0	10000	1	1	0	1	0
23	18	0	10000	1	1	0	1	0
22	19	0	10000	1	1	0	1	0
22	20	0	10000	1	1	0	1	0
22	21	0	10000	1	1	0	1	0
20	22	0	10000	1	1	0	1	0
21	23	0	10000	1	1	0	1	0
21	24	0	10000	1	1	0	1	0
22	25	0	10000	1	1	0	1	0
22	26	0	10000	1	1	0	1	0
21	27	0	10000	1	1	0	1	0
20	28	0	10000	1	1	0	1	0
20	29	0	10000	1	1	0	1	0
21	30	0	10000	1	1	0	1	0
21	31	0	10000	1	1	0	1	0
21	32	0	10000	1	1	0	1	0
21	33	0	10000	1	1	0	1	0
22	34	0	10000	1	1	0	1	0
22	35	0	10000	1	1	0	1	0
21	36	0	10000	1	1	0	1	0
23	37	0	10000	1	1	0	1	0
22	38	0	10000	1	1	0	1	0
21	39	0	10000	1	1	0	1	0
21	40	0	10000	1	1	0	1	0
23	41	0	10000	1	1	0	1	0
22	42	0	10000	1	1	0	1	0
21	43	0	10000	1	1	0	1	0
21	44	0	10000	1	1	0	1	0
21	45	0	10000	1	1	0	1	0
21	46	0	10000	1	1	0	1	0
21	47	0	10000	1	1	0	1	0
20	48	0	10000	1	1	0	1	0
20	49	0	10000	1	1	0	1	0
20	50	0	10000	1	1	0	1	0
22	51	0	10000	1	1	0	1	0
21	52	0	10000	1	1	0	1	0
22	53	0	10000	1	1	0	1	0
22	54	0	10000	1	1	0	1	0
21	55	0	10000	1	1	0	1	0
20	56	0	10000	1	1	0	1	0
21	57	0	10000	1	1	0	1	0
23	58	0	10000	1	1	0	1	0
23	59	0	10000	1	1	0	1	0
24	60	0	10000	1	1	0	1	0
24	61	0	10000	1	1	0	1	0
23	62	0	10000	1	1	0	1	0
24	63	0	10000	1	1	0	1	0
24	64	0	10000	1	1	0	1	0
25	65	0	10000	1	1	0	1	0
25	66	0	10000	1	1	0	1	0
24	67	0	10000	1	1	0	1	0
23	68	0	10000	1	1	0	1	0
24	69	0	10000	1	1	0	1	0
23	70	0	10000	1	1	0	1	0
22	71	0	10000	1	1	0	1	0
23	72	0	10000	1	1	0	1	0
23	73	0	10000	1	1	0	1	0
24	74	0	10000	1	1	0	1	0
23	75	0	10000	1	1	0	1	0
23	76	0	10000	1	1	0	1	0
25	77	0	10000	1	1	0	1	0
25	78	0	10000	1	1	0	1	0
26	79	0	10000	1	1	0	1	0
26	80	0	10000	1	1	0	1	0
24	81	0	10000	1	1	0	1	0
24	82	0	10000	1	1	0	1	0
25	83	0	10000	1	1	0	1	0
25	84	0	10000	1	1	0	1	0
26	85	0	10000	1	1	0	1	0
26	86	0	10000	1	1	0	1	0
26	87	0	10000	1	1	0	1	0
25	88	0	10000	1	1	0	1	0
25	89	0	10000	1	1	0	1	0
24	90	0	10000	1	1	0	1	0
24	91	0	10000	1	1	0	1	0
24	92	0	10000	1	1	0	1	0
25	93	0	10000	1	1	0	1	0
23	94	0	10000	1	1	0	1	0
22	95	0	10000	1	1	0	1	0
23	96	0	10000	1	1	0	1	0
23	97	0	10000	1	1	0	1	0
25	98	0	10000	1	1	0	1	0
25	99	0	10000	1	1	0	1	0
24	100	0	10000	1	1	0	1	0
25	101	0	10000	1	1	0	1	0
24	101	0	10000	1	1	0	1	0
24	102	0	10000	1	1	0	1	0
23	104	0	10000	1	1	0	1	0
23	105	0	10000	1	1	0	1	0
24	106	0	10000	1	1	0	1	0
23	107	0	10000	1	1	0	1	0
21	108	0	10000	1	1	0	1	0
22	109	0	10000	1	1	0	1	0
22	110	0	10000	1	1	0	1	0
22	111	0	10000	1	1	0	1	0
22	111	0	10000	1	1	0	1	0
21	112	0	10000	1	1	0	1	0
22	114	0	10000	1	1	0	1	0
23	115	0	10000	1	1	0	1	0
22	116	0	10000	1	1	0	1	0
24	117	0	10000	1	1	0	1	0
24	118	0	10000	1	1	0	1	0
22	119	0	10000	1	1	0	1	0
23	120	0	10000	1	1	0	1	0
23	121	0	10000	1	1	0	1	0
22	121	0	10000	1	1	0	1	0
22	122	0	10000	1	1	0	1	0
22	124	0	10000	1	1	0	1	0
23	125	0	10000	1	1	0	1	0
22	126	0	10000	1	1	0	1	0
22	127	0	10000	1	1	0	1	0
21	128	0	10000	1	1	0	1	0
22	129	0	10000	1	1	0	1	0
22	130	0	10000	1	1	0	1	0
22	131	0	10000	1	1	0	1	0
21	131	0	10000	1	1	0	1	0
21	132	0	10000	1	1	0	1	0
22	134	0	10000	1	1	0	1	0
21	135	0	10000	1	1	0	1	0
22	136	0	10000	1	1	0	1	0
23	137	0	10000	1	1	0	1	0
24	138	0	10000	1	1	0	1	0
24	139	0	10000	1	1	0	1	0
24	140	0	10000	1	1	0	1	0
24	141	0	10000	1	1	0	1	0
23	141	0	10000	1	1	0	1	0
22	142	0	10000	1	1	0	1	0
23	144	0	10000	1	1	0	1	0
23	145	0	10000	1	1	0	1	0
23	146	0	10000	1	1	0	1	0
23	147	0	10000	1	1	0	1	0
21	148	0	10000	1	1	0	1	0
22	149	0	10000	1	1	0	1	0
21	150	0	10000	1	1	0	1	0
22	151	0	10000	1	1	0	1	0
22	151	0	10000	1	1	0	1	0
21	152	0	10000	1	1	0	1	0
22	154	0	10000	1	1	0	1	0
22	155	0	10000	1	1	0	1	0
21	156	0	10000	1	1	0	1	0
21	157	0	10000	1	1	0	1	0
24	158	0	10000	1	1	0	1	0
23	159	0	10000	1	1	0	1	0
22	160	0	10000	1	1	0	1	0
22	161	0	10000	1	1	0	1	0
22	161	0	10000	1	1	0	1	0
21	162	0	10000	1	1	0	1	0
20	164	0	10000	1	1	0	1	0
21	165	0	10000	1	1	0	1	0
22	166	0	10000	1	1	0	1	0
23	167	0	10000	1	1	0	1	0
22	168	0	10000	1	1	0	1	0
21	169	0	10000	1	1	0	1	0
20	170	0	10000	1	1	0	1	0
20	171	0	10000	1	1	0	1	0
21	171	0	10000	1	1	0	1	0
20	172	0	10000	1	1	0	1	0
20	174	0	10000	1	1	0	1	0
22	175	0	10000	1	1	0	1	0
21	176	0	10000	1	1	0	1	0
21	177	0	10000	1	1	0	1	0
22	178	0	10000	1	1	0	1	0
22	179	0	10000	1	1	0	1	0
24	180	0	10000	1	1	0	1	0
24	181	0	10000	1	1	0	1	0
25	181	0	10000	1	1	0	1	0
23	182	0	10000	1	1	0	1	0
23	184	0	10000	1	1	0	1	0
24	185	0	10000	1	1	0	1	0
24	186	0	10000	1	1	0	1	0
23	187	0	10000	1	1	0	1	0
21	188	0	10000	1	1	0	1	0
23	189	0	10000	1	1	0	1	0
23	190	0	10000	1	1	0	1	0
23	191	0	10000	1	1	0	1	0
24	191	0	10000	1	1	0	1	0
23	192	0	10000	1	1	0	1	0
23	194	0	10000	1	1	0	1	0
23	195	0	10000	1	1	0	1	0
23	196	0	10000	1	1	0	1	0
26	197	0	10000	1	1	0	1	0
30	198	0	10000	1	1	0	1	0
29	199	0	10000	1	1	0	1	0
29	200	0	10000	1	1	0	1	0
28	201	0	10000	1	1	0	1	0
28	201	0	10000	1	1	0	1	0
28	202	0	10000	1	1	0	1	0
27	204	0	10000	1	1	0	1	0
26	205	0	10000	1	1	0	1	0
27	206	0	10000	1	1	0	1	0
26	207	0	10000	1	1	0	1	0
25	208	0	10000	1	1	0	1	0
24	209	0	10000	1	1	0	1	0
24	210	0	10000	1	1	0	1	0
26	211	0	10000	1	1	0	1	0
25	211	0	10000	1	1	0	1	0
25	212	0	10000	1	1	0	1	0
24	214	0	10000	1	1	0	1	0
24	215	0	10000	1	1	0	1	0
24	216	0	10000	1	1	0	1	0
23	217	0	10000	1	1	0	1	0
24	218	0	10000	1	1	0	1	0
22	219	0	10000	1	1	0	1	0
23	220	0	10000	1	1	0	1	0
23	221	0	10000	1	1	0	1	0
24	221	0	10000	1	1	0	1	0
25	222	0	10000	1	1	0	1	0
27	224	0	10000	1	1	0	1	0
26	225	0	10000	1	1	0	1	0
26	226	0	10000	1	1	0	1	0
25	227	0	10000	1	1	0	1	0
24	228	0	10000	1	1	0	1	0
24	229	0	10000	1	1	0	1	0
24	230	0	10000	1	1	0	1	0
24	231	0	10000	1	1	0	1	0
24	231	0	10000	1	1	0	1	0
24	232	0	10000	1	1	0	1	0
24	234	0	10000	1	1	0	1	0
25	235	0	10000	1	1	0	1	0
25	236	0	10000	1	1	0	1	0
24	237	0	10000	1	1	0	1	0
26	238	0	10000	1	1	0	1	0
25	239	0	10000	1	1	0	1	0
25	240	0	10000	1	1	0	1	0
25	241	0	10000	1	1	0	1	0
25	241	0	10000	1	1	0	1	0
24	242	0	10000	1	1	0	1	0
24	244	0	10000	1	1	0	1	0
25	245	0	10000	1	1	0	1	0
24	246	0	10000	1	1	0	1	0
23	247	0	10000	1	1	0	1	0
22	248	0	10000	1	1	0	1	0
21	249	0	10000	1	1	0	1	0
21	250	0	10000	1	1	0	1	0
23	251	0	10000	1	1	0	1	0
25	251	0	10000	1	1	0	1	0
26	252	0	10000	1	1	0	1	0
28	254	0	10000	1	1	0	1	0
26	255	0	10000	1	1	0	1	0
27	256	0	10000	1	1	0	1	0
27	257	0	10000	1	1	0	1	0
29	258	0	10000	1	1	0	1	0
29	259	0	10000	1	1	0	1	0
28	260	0	10000	1	1	0	1	0
28	261	0	10000	1	1	0	1	0
27	261	0	10000	1	1	0	1	0
26	262	0	10000	1	1	0	1	0
25	264	0	10000	1	1	0	1	0
26	265	0	10000	1	1	0	1	0
26	266	0	10000	1	1	0	1	0
26	267	0	10000	1	1	0	1	0
24	268	0	10000	1	1	0	1	0
24	269	0	10000	1	1	0	1	0
25	270	0	10000	1	1	0	1	0
25	271	0	10000	1	1	0	1	0
25	271	0	10000	1	1	0	1	0
24	272	0	10000	1	1	0	1	0
24	274	0	10000	1	1	0	1	0
26	275	0	10000	1	1	0	1	0
25	276	0	10000	1	1	0	1	0
25	277	0	10000	1	1	0	1	0
27	278	0	10000	1	1	0	1	0
26	279	0	10000	1	1	0	1	0
26	280	0	10000	1	1	0	1	0
25	281	0	10000	1	1	0	1	0
26	281	0	10000	1	1	0	1	0
25	282	0	10000	1	1	0	1	0
23	284	0	10000	1	1	0	1	0
24	285	0	10000	1	1	0	1	0
25	286	0	10000	1	1	0	1	0
24	287	0	10000	1	1	0	1	0
22	288	0	10000	1	1	0	1	0
23	289	0	10000	1	1	0	1	0
22	290	0	10000	1	1	0	1	0
23	291	0	10000	1	1	0	1	0
23	291	0	10000	1	1	0	1	0
22	292	0	10000	1	1	0	1	0
22	294	0	10000	1	1	0	1	0
21	295	0	10000	1	1	0	1	0
22	296	0	10000	1	1	0	1	0
21	297	0	10000	1	1	0	1	0
23	298	0	10000	1	1	0	1	0
24	299	0	10000	1	1	0	1	0
23	300	0	10000	1	1	0	1	0
23	301	0	10000	1	1	0	1	0
23	301	0	10000	1	1	0	1	0
23	302	0	10000	1	1	0	1	0
22	304	0	10000	1	1	0	1	0
24	305	0	10000	1	1	0	1	0
27	306	0	10000	1	1	0	1	0
27	307	0	10000	1	1	0	1	0
25	308	0	10000	1	1	0	1	0
25	309	0	10000	1	1	0	1	0
27	310	0	10000	1	1	0	1	0
26	311	0	10000	1	1	0	1	0
28	311	0	10000	1	1	0	1	0
32	312	0	10000	1	1	0	1	0
34	314	0	10000	1	1	0	1	0
38	315	0	10000	1	1	0	1	0
44	316	0	10000	1	1	0	1	0
48	317	0	10000	1	1	0	1	0
54	318	0	10000	1	1	0	1	0
52	319	0	10000	1	1	0	1	0
51	320	0	10000	1	1	0	1	0
54	321	0	10000	1	1	0	1	0
57	321	0	10000	1	1	0	1	0
57	322	0	10000	1	1	0	1	0
56	324	0	10000	1	1	0	1	0
59	325	0	10000	1	1	0	1	0
58	326	0	10000	1	1	0	1	0
60	327	0	10000	1	1	0	1	0
60	328	0	10000	1	1	0	1	0
62	329	0	10000	1	1	0	1	0
68	330	0	10000	1	1	0	1	0
77	331	0	10000	1	1	0	1	0
81	331	0	10000	1	1	0	1	0
82	332	0	10000	1	1	0	1	0
80	334	0	10000	1	1	0	1	0
79	335	0	10000	1	1	0	1	0
77	336	0	10000	1	1	0	1	0
76	337	0	10000	1	1	0	1	0
75	338	0	10000	1	1	0	1	0
72	339	0	10000	1	1	0	1	0
72	340	0	10000	1	1	0	1	0
77	341	0	10000	1	1	0	1	0
78	341	0	10000	1	1	0	1	0
81	342	0	10000	1	1	0	1	0
87	344	0	10000	1	1	0	1	0
91	345	0	10000	1	1	0	1	0
93	346	0	10000	1	1	0	1	0
100	347	0	10000	1	1	0	1	0
101	348	0	10000	1	1	0	1	0
98	349	0	10000	1	1	0	1	0
96	350	0	10000	1	1	0	1	0
100	351	0	10000	1	1	0	1	0
101	351	0	10000	1	1	0	1	0
99	352	0	10000	1	1	0	1	0
96	354	0	10000	1	1	0	1	0
92	355	0	10000	1	1	0	1	0
88	356	0	10000	1	1	0	1	0
85	357	0	10000	1	1	0	1	0
86	358	0	10000	1	1	0	1	0
82	359	0	10000	1	1	0	1	0
79	360	0	10000	1	1	0	1	0
78	361	0	10000	1	1	0	1	0
76	361	0	10000	1	1	0	1	0
75	362	0	10000	1	1	0	1	0
75	364	0	10000	1	1	0	1	0
83	365	0	10000	1	1	0	1	0
86	366	0	10000	1	1	0	1	0
87	367	0	10000	1	1	0	1	0
82	368	0	10000	1	1	0	1	0
80	369	0	10000	1	1	0	1	0
78	370	0	10000	1	1	0	1	0
82	371	0	10000	1	1	0	1	0
81	371	0	10000	1	1	0	1	0
82	372	0	10000	1	1	0	1	0
84	374	0	10000	1	1	0	1	0
80	375	0	10000	1	1	0	1	0
78	376	0	10000	1	1	0	1	0
77	377	0	10000	1	1	0	1	0
76	378	0	10000	1	1	0	1	0
74	379	0	10000	1	1	0	1	0
72	380	0	10000	1	1	0	1	0
70	381	0	10000	1	1	0	1	0
69	381	0	10000	1	1	0	1	0
67	382	0	10000	1	1	0	1	0
65	384	0	10000	1	1	0	1	0
66	385	0	10000	1	1	0	1	0
64	386	0	10000	1	1	0	1	0
65	387	0	10000	1	1	0	1	0
63	388	0	10000	1	1	0	1	0
62	389	0	10000	1	1	0	1	0
63	390	0	10000	1	1	0	1	0
65	391	0	10000	1	1	0	1	0
65	391	0	10000	1	1	0	1	0
65	392	0	10000	1	1	0	1	0
68	394	0	10000	1	1	0	1	0
70	395	0	10000	1	1	0	1	0
70	396	0	10000	1	1	0	1	0
73	397	0	10000	1	1	0	1	0
77	398	0	10000	1	1	0	1	0
76	399	0	10000	1	1	0	1	0
73	400	0	10000	1	1	0	1	0
76	401	0	10000	1	1	0	1	0
78	401	0	10000	1	1	0	1	0
78	402	0	10000	1	1	0	1	0
81	404	0	10000	1	1	0	1	0
85	405	0	10000	1	1	0	1	0
89	406	0	10000	1	1	0	1	0
91	407	0	10000	1	1	0	1	0
94	408	0	10000	1	1	0	1	0
97	409	0	10000	1	1	0	1	0
96	410	0	10000	1	1	0	1	0
98	411	0	10000	1	1	0	1	0
98	411	0	10000	1	1	0	1	0
97	412	0	10000	1	1	0	1	0
97	414	0	10000	1	1	0	1	0
95	415	0	10000	1	1	0	1	0
94	416	0	10000	1	1	0	1	0
92	417	0	10000	1	1	0	1	0
95	418	0	10000	1	1	0	1	0
96	419	0	10000	1	1	0	1	0
96	420	0	10000	1	1	0	1	0
96	421	0	10000	1	1	0	1	0
98	421	0	10000	1	1	0	1	0
98	422	0	10000	1	1	0	1	0
97	424	0	10000	1	1	0	1	0
100	425	0	10000	1	1	0	1	0
102	426	0	10000	1	1	0	1	0
103	427	0	10000	1	1	0	1	0
103	428	0	10000	1	1	0	1	0
105	429	0	10000	1	1	0	1	0
108	430	0	10000	1	1	0	1	0
108	431	0	10000	1	1	0	1	0
110	431	0	10000	1	1	0	1	0
113	432	0	10000	1	1	0	1	0
112	434	0	10000	1	1	0	1	0
113	435	0	10000	1	1	0	1	0
114	436	0	10000	1	1	0	1	0
116	437	0	10000	1	1	0	1	0
117	438	0	10000	1	1	0	1	0
117	439	0	10000	1	1	0	1	0
119	440	0	10000	1	1	0	1	0
118	441	0	10000	1	1	0	1	0
118	441	0	10000	1	1	0	1	0
120	442	0	10000	1	1	0	1	0
123	444	0	10000	1	1	0	1	0
124	445	0	10000	1	1	0	1	0
127	446	0	10000	1	1	0	1	0
127	447	0	10000	1	1	0	1	0
126	448	0	10000	1	1	0	1	0
128	449	0	10000	1	1	0	1	0
131	450	0	10000	1	1	0	1	0
133	451	0	10000	1	1	0	1	0
133	451	0	10000	1	1	0	1	0
134	452	0	10000	1	1	0	1	0
136	454	0	10000	1	1	0	1	0
132	455	0	10000	1	1	0	1	0
131	456	0	10000	1	1	0	1	0
131	457	0	10000	1	1	0	1	0
131	458	0	10000	1	1	0	1	0
127	459	0	10000	1	1	0	1	0
124	460	0	10000	1	1	0	1	0
121	461	0	10000	1	1	0	1	0
117	461	0	10000	1	1	0	1	0
112	462	0	10000	1	1	0	1	0
109	464	0	10000	1	1	0	1	0
106	465	0	10000	1	1	0	1	0
104	466	0	10000	1	1	0	1	0
104	467	0	10000	1	1	0	1	0
102	468	0	10000	1	1	0	1	0
99	469	0	10000	1	1	0	1	0
97	470	0	10000	1	1	0	1	0
96	471	0	10000	1	1	0	1	0
93	471	0	10000	1	1	0	1	0
91	472	0	10000	1	1	0	1	0
88	474	0	10000	1	1	0	1	0
83	475	0	10000	1	1	0	1	0
81	476	0	10000	1	1	0	1	0
78	477	0	10000	1	1	0	1	0
76	478	0	10000	1	1	0	1	0
73	479	0	10000	1	1	0	1	0
71	480	0	10000	1	1	0	1	0
68	481	0	10000	1	1	0	1	0
65	481	0	10000	1	1	0	1	0
64	482	0	10000	1	1	0	1	0
61	484	0	10000	1	1	0	1	0
59	485	0	10000	1	1	0	1	0
58	486	0	10000	1	1	0	1	0
56	487	0	10000	1	1	0	1	0
53	487	0	10000	1	1	0	1	0
51	488	0	10000	1	1	0	1	0
52	489	0	10000	1	1	0	1	0
52	490	0	10000	1	1	0	1	0
50	491	0	10000	1	1	0	1	0
50	492	0	10000	1	1	0	1	0
52	493	0	10000	1	1	0	1	0
50	494	0	10000	1	1	0	1	0
50	495	0	10000	1	1	0	1	0
52	496	0	10000	1	1	0	1	0
53	497	0	10000	1	1	0	1	0
53	498	0	10000	1	1	0	1	0
53	499	0	10000	1	1	0	1	0
54	500	0	10000	1	1	0	1	0
54	521	0	10000	1	1	0	1	1
55	522	0	10000	1	1	0	1	1
56	523	0	10000	1	1	0	1	1
56	524	0	10000	1	1	0	1	1
57	525	0	10000	1	1	0	1	1
59	526	0	10000	1	1	0	1	1
59	527	0	10000	1	1	0	1	1
59	528	0	10000	1	1	0	1	1
61	529	0	10000	1	1	0	1	1
64	530	0	10000	1	1	0	1	1
64	531	0	10000	1	1	0	1	1
65	532	0	10000	1	1	0	1	1
68	533	0	10000	1	1	0	1	1
66	534	0	10000	1	1	0	1	1
66	535	0	10000	1	1	0	1	1
65	536	0	10000	1	1	0	1	1
68	537	0	10000	1	1	0	1	1
67	538	0	10000	1	1	0	1	1
66	539	0	10000	1	1	0	1	1
67	540	0	10000	1	1	0	1	1
68	541	0	10000	1	1	0	1	1
70	542	0	10000	1	1	0	1	1
72	525	0	10000	1	1	0	1	1
73	526	0	10000	1	1	0	1	1
72	527	0	10000	1	1	0	1	1
69	528	0	10000	1	1	0	1	1
67	527	0	10000	1	1	0	1	1
66	528	0	10000	1	1	0	1	1
64	529	0	10000	1	1	0	1	1
66	530	0	10000	1	1	0	1	1
68	531	0	10000	1	1	0	1	1
68	532	0	10000	1	1	0	1	1
69	533	0	10000	1	1	0	1	1
70	534	0	10000	1	1	0	1	1
70	535	0	10000	1	1	0	1	1
70	536	0	10000	1	1	0	1	1
71	537	0	10000	1	1	0	1	1
72	538	0	10000	1	1	0	1	1
72	539	0	10000	1	1	0	1	1
71	540	0	10000	1	1	0	1	1
72	541	0	10000	1	1	0	1	1
69	542	0	10000	1	1	0	1	1
66	543	0	10000	1	1	0	1	1
68	544	0	10000	1	1	0	1	1
69	545	0	10000	1	1	0	1	1
68	546	0	10000	1	1	0	1	1
66	547	0	10000	1	1	0	1	1
69	548	0	10000	1	1	0	1	1
67	549	0	10000	1	1	0	1	1
65	550	0	10000	1	1	0	1	1
64	551	0	10000	1	1	0	1	0
63	552	0	10000	1	1	0	1	0
60	553	0	10000	1	1	0	1	0
58	554	0	10000	1	1	0	1	0
57	555	0	10000	1	1	0	1	0
54	556	0	10000	1	1	0	1	0
54	557	0	10000	1	1	0	1	0
53	558	0	10000	1	1	0	1	0
52	559	0	10000	1	1	0	1	0
53	560	0	10000	1	1	0	1	0
54	561	0	10000	1	1	0	1	0
56	562	0	10000	1	1	0	1	0
56	563	0	10000	1	1	0	1	0
55	564	0	10000	1	1	0	1	0
56	565	0	10000	1	1	0	1	0
53	566	0	10000	1	1	0	1	0
50	567	0	10000	1	1	0	1	0
50	568	0	10000	1	1	0	1	0
50	569	0	10000	1	1	0	1	0
50	570	0	10000	1	1	0	1	0
49	571	0	10000	1	1	0	1	0
50	572	0	10000	1	1	0	1	0
49	573	0	10000	1	1	0	1	0
46	574	0	10000	1	1	0	1	0
45	575	0	10000	1	1	0	1	0
46	576	0	10000	1	1	0	1	0
46	577	0	10000	1	1	0	1	0
44	578	0	10000	1	1	0	1	0
45	579	0	10000	1	1	0	1	0
44	580	0	10000	1	1	0	1	0
42	581	0	10000	1	1	0	1	0
42	582	0	10000	1	1	0	1	0
41	583	0	10000	1	1	0	1	0
40	584	0	10000	1	1	0	1	0
38	585	0	10000	1	1	0	1	0
38	586	0	10000	1	1	0	1	0
36	587	0	10000	1	1	0	1	0
35	588	0	10000	1	1	0	1	0
35	589	0	10000	1	1	0	1	0
36	590	0	10000	1	1	0	1	0
34	591	0	10000	1	1	0	1	0
34	592	0	10000	1	1	0	1	0
34	593	0	10000	1	1	0	1	0
32	594	0	10000	1	1	0	1	0
30	595	0	10000	1	1	0	1	0
31	596	0	10000	1	1	0	1	0
32	597	0	10000	1	1	0	1	0
31	598	0	10000	1	1	0	1	0
30	599	0	10000	1	1	0	1	0
31	600	0	10000	1	1	0	1	0
29	601	0	10000	1	1	0	1	0
28	602	0	10000	1	1	0	1	0
28	603	0	10000	1	1	0	1	0
28	604	0	10000	1	1	0	1	0
29	605	0	10000	1	1	0	1	0
29	606	0	10000	1	1	0	1	0
27	607	0	10000	1	1	0	1	0
27	608	0	10000	1	1	0	1	0
26	609	0	10000	1	1	0	1	0
28	610	0	10000	1	1	0	1	0
28	611	0	10000	1	1	0	1	0
27	612	0	10000	1	1	0	1	0
28	613	0	10000	1	1	0	1	0
30	614	0	10000	1	1	0	1	0
30	615	0	10000	1	1	0	1	0
30	616	0	10000	1	1	0	1	0
31	617	0	10000	1	1	0	1	0
32	618	0	10000	1	1	0	1	0
39	619	0	10000	1	1	0	1	0
45	620	0	10000	1	1	0	1	0
49	621	0	10000	1	1	0	1	0
52	622	0	10000	1	1	0	1	0
61	623	0	10000	1	1	0	1	0
74	624	0	10000	1	1	0	1	0
79	625	0	10000	1	1	0	1	0
80	626	0	10000	1	1	0	1	0
82	627	0	10000	1	1	0	1	0
98	628	0	10000	1	1	0	1	0
108	629	0	10000	1	1	0	1	0
134	630	0	10000	1	1	0	1	0
164	631	0	10000	1	1	0	1	0
169	632	0	10000	1	1	0	1	0
182	633	0	10000	1	1	0	1	0
201	634	0	10000	1	1	0	1	0
201	635	0	10000	1	1	0	1	0
201	636	0	10000	1	1	0	1	0
194	637	0	10000	1	1	0	1	0
195	638	0	10000	1	1	0	1	0
191	639	0	10000	1	1	0	1	0
192	640	0	10000	1	1	0	1	0
193	641	0	10000	1	1	0	1	0
223	642	0	10000	1	1	0	1	0
254	643	0	10000	1	1	0	1	0
276	644	0	10000	1	1	0	1	0
285	645	0	10000	1	1	0	1	0
289	646	0	10000	1	1	0	1	0
315	647	0	10000	1	1	0	1	0
323	648	0	10000	1	1	0	1	0
328	649	0	10000	1	1	0	1	0
344	650	0	10000	1	1	0	1	0
345	651	0	10000	1	1	0	1	0
343	652	0	10000	1	1	0	1	0
337	653	0	10000	1	1	0	1	0
323	654	0	10000	1	1	0	1	0
308	655	0	10000	1	1	0	1	0
299	656	0	10000	1	1	0	1	0
300	657	0	10000	1	1	0	1	0
302	658	0	10000	1	1	0	1	0
311	659	0	10000	1	1	0	1	0
321	660	0	10000	1	1	0	1	0
333	661	0	10000	1	1	0	1	0
350	662	0	10000	1	1	0	1	0
363	663	0	10000	1	1	0	1	0
367	664	0	10000	1	1	0	1	0
363	665	0	10000	1	1	0	1	0
360	666	0	10000	1	1	0	1	0
356	667	0	10000	1	1	0	1	0
350	668	0	10000	1	1	0	1	0
344	669	0	10000	1	1	0	1	0
337	670	0	10000	1	1	0	1	0
331	671	0	10000	1	1	0	1	0
327	672	0	10000	1	1	0	1	0
324	673	0	10000	1	1	0	1	0
317	674	0	10000	1	1	0	1	0
312	675	0	10000	1	1	0	1	0
305	676	0	10000	1	1	0	1	0
295	677	0	10000	1	1	0	1	0
283	678	0	10000	1	1	0	1	0
272	679	0	10000	1	1	0	1	0
272	680	0	10000	1	1	0	1	0
271	681	0	10000	1	1	0	1	0
266	682	0	10000	1	1	0	1	0
272	683	0	10000	1	1	0	1	0
279	684	0	10000	1	1	0	1	0
282	685	0	10000	1	1	0	1	0
284	686	0	10000	1	1	0	1	0
286	687	0	10000	1	1	0	1	0
289	688	0	10000	1	1	0	1	0
285	689	0	10000	1	1	0	1	0
280	690	0	10000	1	1	0	1	0
279	691	0	10000	1	1	0	1	0
279	692	0	10000	1	1	0	1	0
282	693	0	10000	1	1	0	1	0
285	694	0	10000	1	1	0	1	0
287	695	0	10000	1	1	0	1	0
291	696	0	10000	1	1	0	1	0
296	697	0	10000	1	1	0	1	0
303	698	0	10000	1	1	0	1	0
309	699	0	10000	1	1	0	1	0
312	700	0	10000	1	1	0	1	0
319	701	0	10000	1	1	0	1	0
328	702	0	10000	1	1	0	1	0
336	703	0	10000	1	1	0	1	0
346	704	0	10000	1	1	0	1	0
357	705	0	10000	1	1	0	1	0
369	706	0	10000	1	1	0	1	0
378	707	0	10000	1	1	0	1	0
387	708	0	10000	1	1	0	1	0
398	709	0	10000	1	1	0	1	0
410	710	0	10000	1	1	0	1	0
418	711	0	10000	1	1	0	1	0
427	712	0	10000	1	1	0	1	0
436	713	0	10000	1	1	0	1	0
442	714	0	10000	1	1	0	1	0
454	715	0	10000	1	1	0	1	0
463	716	0	10000	1	1	0	1	0
471	717	0	10000	1	1	0	1	0
477	718	0	10000	1	1	0	1	0
483	719	0	10000	1	1	0	1	0
487	720	0	10000	1	1	0	1	0
489	721	0	10000	1	1	0	1	0
492	722	0	10000	1	1	0	1	0
498	723	0	10000	1	1	0	1	0
499	724	0	10000	1	1	0	1	0
499	725	0	10000	1	1	0	1	0
501	726	0	10000	1	1	0	1	0
499	727	0	10000	1	1	0	1	0
494	728	0	10000	1	1	0	1	0
491	729	0	10000	1	1	0	1	0
488	730	0	10000	1	1	0	1	0
483	731	0	10000	1	1	0	1	0
476	732	0	10000	1	1	0	1	0
472	733	0	10000	1	1	0	1	0
465	734	0	10000	1	1	0	1	0
456	735	0	10000	1	1	0	1	0
449	736	0	10000	1	1	0	1	0
443	737	0	10000	1	1	0	1	0
433	738	0	10000	1	1	0	1	0
423	739	0	10000	1	1	0	1	0
416	740	0	10000	1	1	0	1	0
407	741	0	10000	1	1	0	1	0
394	742	0	10000	1	1	0	1	0
381	743	0	10000	1	1	0	1	0
369	744	0	10000	1	1	0	1	0
357	745	0	10000	1	1	0	1	0
344	746	0	10000	1	1	0	1	0
332	747	0	10000	1	1	0	1	0
321	748	0	10000	1	1	0	1	0
308	749	0	10000	1	1	0	1	0
295	750	0	10000	1	1	0	1	0
281	751	0	10000	1	1	0	1	0
271	752	0	10000	1	1	0	1	0
260	753	0	10000	1	1	0	1	0
249	754	0	10000	1	1	0	1	0
240	755	0	10000	1	1	0	1	0
233	756	0	10000	1	1	0	1	0
226	757	0	10000	1	1	0	1	0
218	758	0	10000	1	1	0	1	0
212	759	0	10000	1	1	0	1	0
204	760	0	10000	1	1	0	1	0
197	761	0	10000	1	1	0	1	0
192	762	0	10000	1	1	0	1	0
189	763	0	10000	1	1	0	1	0
184	764	0	10000	1	1	0	1	0
181	765	0	10000	1	1	0	1	0
180	766	0	10000	1	1	0	1	0
174	767	0	10000	1	1	0	1	0
171	768	0	10000	1	1	0	1	0
170	769	0	10000	1	1	0	1	0
170	770	0	10000	1	1	0	1	0
169	771	0	10000	1	1	0	1	0
168	772	0	10000	1	1	0	1	0
169	773	0	10000	1	1	0	1	0
169	774	0	10000	1	1	0	1	0
166	775	0	10000	1	1	0	1	0
167	776	0	10000	1	1	0	1	0
169	777	0	10000	1	1	0	1	0
167	778	0	10000	1	1	0	1	0
165	779	0	10000	1	1	0	1	0
165	780	0	10000	1	1	0	1	0
163	781	0	10000	1	1	0	1	0
162	782	0	10000	1	1	0	1	0
161	783	0	10000	1	1	0	1	0
160	784	0	10000	1	1	0	1	0
159	785	0	10000	1	1	0	1	0
157	786	0	10000	1	1	0	1	0
156	787	0	10000	1	1	0	1	0
155	788	0	10000	1	1	0	1	0
155	789	0	10000	1	1	0	1	0
159	790	0	10000	1	1	0	1	0
158	791	0	10000	1	1	0	1	0
157	792	0	10000	1	1	0	1	0
159	793	0	10000	1	1	0	1	0
160	794	0	10000	1	1	0	1	0
160	795	0	10000	1	1	0	1	0
160	796	0	10000	1	1	0	1	0
164	797	0	10000	1	1	0	1	0
163	798	0	10000	1	1	0	1	0
161	799	0	10000	1	1	0	1	0
161	800	0	10000	1	1	0	1	0
162	801	0	10000	1	1	0	1	0
160	802	0	10000	1	1	0	1	0
158	803	0	10000	1	1	0	1	0
160	804	0	10000	1	1	0	1	0
157	805	0	10000	1	1	0	1	0
157	806	0	10000	1	1	0	1	0
153	807	0	10000	1	1	0	1	0
153	808	0	10000	1	1	0	1	0
152	809	0	10000	1	1	0	1	0
153	810	0	10000	1	1	0	1	0
155	811	0	10000	1	1	0	1	0
155	812	0	10000	1	1	0	1	0
155	813	0	10000	1	1	0	1	0
157	814	0	10000	1	1	0	1	0
158	815	0	10000	1	1	0	1	0
158	816	0	10000	1	1	0	1	0
159	817	0	10000	1	1	0	1	0
160	818	0	10000	1	1	0	1	0
159	819	0	10000	1	1	0	1	0
157	820	0	10000	1	1	0	1	0
157	821	0	10000	1	1	0	1	0
157	822	0	10000	1	1	0	1	0
155	823	0	10000	1	1	0	1	0
154	824	0	10000	1	1	0	1	0
156	825	0	10000	1	1	0	1	0
153	826	0	10000	1	1	0	1	0
149	827	0	10000	1	1	0	1	0
149	828	0	10000	1	1	0	1	0
149	829	0	10000	1	1	0	1	0
150	830	0	10000	1	1	0	1	0
149	831	0	10000	1	1	0	1	0
152	832	0	10000	1	1	0	1	0
152	833	0	10000	1	1	0	1	0
152	834	0	10000	1	1	0	1	0
153	835	0	10000	1	1	0	1	0
152	836	0	10000	1	1	0	1	0
152	837	0	10000	1	1	0	1	0
151	838	0	10000	1	1	0	1	0
150	839	0	10000	1	1	0	1	0
147	840	0	10000	1	1	0	1	0
144	841	0	10000	1	1	0	1	0
143	842	0	10000	1	1	0	1	0
141	843	0	10000	1	1	0	1	0
139	844	0	10000	1	1	0	1	0
138	845	0	10000	1	1	0	1	0
137	846	0	10000	1	1	0	1	0
131	847	0	10000	1	1	0	1	0
129	848	0	10000	1	1	0	1	0
129	849	0	10000	1	1	0	1	0
127	850	0	10000	1	1	0	1	0
124	851	0	10000	1	1	0	1	0
125	852	0	10000	1	1	0	1	0
126	853	0	10000	1	1	0	1	0
125	854	0	10000	1	1	0	1	0
123	855	0	10000	1	1	0	1	0
124	856	0	10000	1	1	0	1	0
124	857	0	10000	1	1	0	1	0
120	858	0	10000	1	1	0	1	0
116	859	0	10000	1	1	0	1	0
113	860	0	10000	1	1	0	1	0
108	861	0	10000	1	1	0	1	0
106	862	0	10000	1	1	0	1	0
104	863	0	10000	1	1	0	1	0
101	864	0	10000	1	1	0	1	0
99	865	0	10000	1	1	0	1	0
98	866	0	10000	1	1	0	1	0
93	867	0	10000	1	1	0	1	0
91	868	0	10000	1	1	0	1	0
88	869	0	10000	1	1	0	1	0
86	870	0	10000	1	1	0	1	0
82	871	0	10000	1	1	0	1	0
80	872	0	10000	1	1	0	1	0
80	873	0	10000	1	1	0	1	0
80	874	0	10000	1	1	0	1	0
80	875	0	10000	1	1	0	1	0
80	876	0	10000	1	1	0	1	0
81	877	0	10000	1	1	0	1	0
78	878	0	10000	1	1	0	1	0
75	879	0	10000	1	1	0	1	0
73	880	0	10000	1	1	0	1	0
71	881	0	10000	1	1	0	1	0
68	882	0	10000	1	1	0	1	0
65	883	0	10000	1	1	0	1	0
64	884	0	10000	1	1	0	1	0
61	885	0	10000	1	1	0	1	0
60	886	0	10000	1	1	0	1	0
57	887	0	10000	1	1	0	1	0
56	888	0	10000	1	1	0	1	0
55	889	0	10000	1	1	0	1	0
54	890	0	10000	1	1	0	1	0
54	891	0	10000	1	1	0	1	0
53	892	0	10000	1	1	0	1	0
52	893	0	10000	1	1	0	1	0
52	894	0	10000	1	1	0	1	0
49	895	0	10000	1	1	0	1	0
48	896	0	10000	1	1	0	1	0
48	897	0	10000	1	1	0	1	0
46	898	0	10000	1	1	0	1	0
44	899	0	10000	1	1	0	1	0
43	900	0	10000	1	1	0	1	0
42	901	0	10000	1	1	0	1	0
41	902	0	10000	1	1	0	1	0
40	903	0	10000	1	1	0	1	0
39	904	0	10000	1	1	0	1	0
41	905	0	10000	1	1	0	1	0
42	906	0	10000	1	1	0	1	0
40	907	0	10000	1	1	0	1	0
40	908	0	10000	1	1	0	1	0
38	909	0	10000	1	1	0	1	0
39	910	0	10000	1	1	0	1	0
40	911	0	10000	1	1	0	1	0
40	912	0	10000	1	1	0	1	0
39	913	0	10000	1	1	0	1	0
37	914	0	10000	1	1	0	1	0
38	915	0	10000	1	1	0	1	0
36	916	0	10000	1	1	0	1	0
37	917	0	10000	1	1	0	1	0
37	918	0	10000	1	1	0	1	0
35	919	0	10000	1	1	0	1	0
35	920	0	10000	1	1	0	1	0
35	921	0	10000	1	1	0	1	0
34	922	0	10000	1	1	0	1	0
33	923	0	10000	1	1	0	1	0
32	924	0	10000	1	1	0	1	0
34	925	0	10000	1	1	0	1	0
34	926	0	10000	1	1	0	1	0
34	927	0	10000	1	1	0	1	0
33	928	0	10000	1	1	0	1	0
34	929	0	10000	1	1	0	1	0
32	930	0	10000	1	1	0	1	0
32	931	0	10000	1	1	0	1	0
33	932	0	10000	1	1	0	1	0
32	933	0	10000	1	1	0	1	0
32	934	0	10000	1	1	0	1	0
31	935	0	10000	1	1	0	1	0
30	936	0	10000	1	1	0	1	0
32	937	0	10000	1	1	0	1	0
31	938	0	10000	1	1	0	1	0
29	939	0	10000	1	1	0	1	0
29	940	0	10000	1	1	0	1	0
29	941	0	10000	1	1	0	1	0
28	942	0	10000	1	1	0	1	0
28	943	0	10000	1	1	0	1	0
31	944	0	10000	1	1	0	1	0
33	945	0	10000	1	1	0	1	0
32	946	0	10000	1	1	0	1	0
31	947	0	10000	1	1	0	1	0
32	948	0	10000	1	1	0	1	0
32	949	0	10000	1	1	0	1	0
32	950	0	10000	1	1	0	1	0
33	951	0	10000	1	1	0	1	0
32	952	0	10000	1	1	0	1	0
33	953	0	10000	1	1	0	1	0
31	954	0	10000	1	1	0	1	0
32	955	0	10000	1	1	0	1	0
31	956	0	10000	1	1	0	1	0
34	957	0	10000	1	1	0	1	0
37	958	0	10000	1	1	0	1	0
39	959	0	10000	1	1	0	1	0
37	960	0	10000	1	1	0	1	0
37	961	0	10000	1	1	0	1	0
36	962	0	10000	1	1	0	1	0
35	963	0	10000	1	1	0	1	0
35	964	0	10000	1	1	0	1	0
35	965	0	10000	1	1	0	1	0
36	966	0	10000	1	1	0	1	0
34	967	0	10000	1	1	0	1	0
36	968	0	10000	1	1	0	1	0
37	969	0	10000	1	1	0	1	0
36	970	0	10000	1	1	0	1	0
35	971	0	10000	1	1	0	1	0
34	972	0	10000	1	1	0	1	0
35	973	0	10000	1	1	0	1	0
35	974	0	10000	1	1	0	1	0
34	975	0	10000	1	1	0	1	0
32	976	0	10000	1	1	0	1	0
34	977	0	10000	1	1	0	1	0
34	978	0	10000	1	1	0	1	0
35	979	0	10000	1	1	0	1	0
34	980	0	10000	1	1	0	1	0
36	981	0	10000	1	1	0	1	0
40	982	0	10000	1	1	0	1	0
40	983	0	10000	1	1	0	1	0
40	984	0	10000	1	1	0	1	0
39	985	0	10000	1	1	0	1	0
38	986	0	10000	1	1	0	1	0
35	987	0	10000	1	1	0	1	0
35	988	0	10000	1	1	0	1	0
35	989	0	10000	1	1	0	1	0
36	990	0	10000	1	1	0	1	0
35	991	0	10000	1	1	0	1	0
34	992	0	10000	1	1	0	1	0
34	993	0	10000	1	1	0	1	0
34	994	0	10000	1	1	0	1	0
33	995	0	10000	1	1	0	1	0
33	996	0	10000	1	1	0	1	0
34	997	0	10000	1	1	0	1	0
32	998	0	10000	1	1	0	1	0
33	999	0	10000	1	1	0	1	0
34	1000	0	10000	1	1	0	1	0
22	1	10	10000	2	1	0	2	0
23	2	10	10000	2	1	0	2	0
22	3	10	10000	2	1	0	2	0
22	4	10	10000	2	1	0	2	0
22	5	10	10000	2	1	0	2	0
21	6	10	10000	2	1	0	2	0
21	7	10	10000	2	1	0	2	0
21	8	10	10000	2	1	0	2	0
21	9	10	10000	2	1	0	2	0
23	10	10	10000	2	1	0	2	0
21	11	10	10000	2	1	0	2	0
21	12	10	10000	2	1	0	2	0
21	13	10	10000	2	1	0	2	0
21	14	10	10000	2	1	0	2	0
22	15	10	10000	2	1	0	2	0
22	16	10	10000	2	1	0	2	0
21	17	10	10000	2	1	0	2	0
21	18	10	10000	2	1	0	2	0
21	19	10	10000	2	1	0	2	0
20	20	10	10000	2	1	0	2	0
20	20	10	10000	2	1	0	2	0
22	21	10	10000	2	1	0	2	0
23	23	10	10000	2	1	0	2	0
22	24	10	10000	2	1	0	2	0
23	25	10	10000	2	1	0	2	0
22	26	10	10000	2	1	0	2	0
22	27	10	10000	2	1	0	2	0
23	28	10	10000	2	1	0	2	0
23	29	10	10000	2	1	0	2	0
23	30	10	10000	2	1	0	2	0
21	30	10	10000	2	1	0	2	0
20	31	10	10000	2	1	0	2	0
20	33	10	10000	2	1	0	2	0
21	34	10	10000	2	1	0	2	0
20	35	10	10000	2	1	0	2	0
21	36	10	10000	2	1	0	2	0
22	37	10	10000	2	1	0	2	0
22	38	10	10000	2	1	0	2	0
21	39	10	10000	2	1	0	2	0
21	40	10	10000	2	1	0	2	0
23	40	10	10000	2	1	0	2	0
23	41	10	10000	2	1	0	2	0
23	43	10	10000	2	1	0	2	0
23	44	10	10000	2	1	0	2	0
23	45	10	10000	2	1	0	2	0
22	46	10	10000	2	1	0	2	0
22	47	10	10000	2	1	0	2	0
22	48	10	10000	2	1	0	2	0
23	49	10	10000	2	1	0	2	0
23	50	10	10000	2	1	0	2	0
20	50	10	10000	2	1	0	2	0
20	51	10	10000	2	1	0	2	0
21	53	10	10000	2	1	0	2	0
21	54	10	10000	2	1	0	2	0
20	55	10	10000	2	1	0	2	0
21	56	10	10000	2	1	0	2	0
21	57	10	10000	2	1	0	2	0
22	58	10	10000	2	1	0	2	0
21	59	10	10000	2	1	0	2	0
20	60	10	10000	2	1	0	2	0
22	60	10	10000	2	1	0	2	0
23	61	10	10000	2	1	0	2	0
21	63	10	10000	2	1	0	2	0
22	64	10	10000	2	1	0	2	0
21	65	10	10000	2	1	0	2	0
21	66	10	10000	2	1	0	2	0
20	67	10	10000	2	1	0	2	0
22	68	10	10000	2	1	0	2	0
22	69	10	10000	2	1	0	2	0
21	70	10	10000	2	1	0	2	0
20	70	10	10000	2	1	0	2	0
20	71	10	10000	2	1	0	2	0
20	73	10	10000	2	1	0	2	0
22	74	10	10000	2	1	0	2	0
21	75	10	10000	2	1	0	2	0
21	76	10	10000	2	1	0	2	0
22	77	10	10000	2	1	0	2	0
21	78	10	10000	2	1	0	2	0
22	79	10	10000	2	1	0	2	0
23	80	10	10000	2	1	0	2	0
24	80	10	10000	2	1	0	2	0
25	81	10	10000	2	1	0	2	0
25	83	10	10000	2	1	0	2	0
26	84	10	10000	2	1	0	2	0
25	85	10	10000	2	1	0	2	0
26	86	10	10000	2	1	0	2	0
27	87	10	10000	2	1	0	2	0
26	88	10	10000	2	1	0	2	0
30	89	10	10000	2	1	0	2	0
35	90	10	10000	2	1	0	2	0
34	90	10	10000	2	1	0	2	0
35	91	10	10000	2	1	0	2	0
39	93	10	10000	2	1	0	2	0
42	94	10	10000	2	1	0	2	0
45	95	10	10000	2	1	0	2	0
50	96	10	10000	2	1	0	2	0
56	97	10	10000	2	1	0	2	0
59	98	10	10000	2	1	0	2	0
65	99	10	10000	2	1	0	2	0
71	100	10	10000	2	1	0	2	0
75	100	10	10000	2	1	0	2	0
80	101	10	10000	2	1	0	2	0
85	103	10	10000	2	1	0	2	0
86	104	10	10000	2	1	0	2	0
86	105	10	10000	2	1	0	2	0
88	106	10	10000	2	1	0	2	0
88	107	10	10000	2	1	0	2	0
86	108	10	10000	2	1	0	2	0
86	109	10	10000	2	1	0	2	0
85	110	10	10000	2	1	0	2	0
81	110	10	10000	2	1	0	2	0
80	111	10	10000	2	1	0	2	0
79	113	10	10000	2	1	0	2	0
78	114	10	10000	2	1	0	2	0
74	115	10	10000	2	1	0	2	0
72	116	10	10000	2	1	0	2	0
73	117	10	10000	2	1	0	2	0
72	118	10	10000	2	1	0	2	0
69	119	10	10000	2	1	0	2	0
69	120	10	10000	2	1	0	2	0
74	120	10	10000	2	1	0	2	0
76	121	10	10000	2	1	0	2	0
77	123	10	10000	2	1	0	2	0
79	124	10	10000	2	1	0	2	0
83	125	10	10000	2	1	0	2	0
84	126	10	10000	2	1	0	2	0
86	127	10	10000	2	1	0	2	0
89	128	10	10000	2	1	0	2	0
89	129	10	10000	2	1	0	2	0
89	130	10	10000	2	1	0	2	0
90	130	10	10000	2	1	0	2	0
89	131	10	10000	2	1	0	2	0
90	133	10	10000	2	1	0	2	0
92	134	10	10000	2	1	0	2	0
92	135	10	10000	2	1	0	2	0
92	136	10	10000	2	1	0	2	0
93	137	10	10000	2	1	0	2	0
93	138	10	10000	2	1	0	2	0
91	139	10	10000	2	1	0	2	0
89	140	10	10000	2	1	0	2	0
90	140	10	10000	2	1	0	2	0
87	141	10	10000	2	1	0	2	0
84	143	10	10000	2	1	0	2	0
84	144	10	10000	2	1	0	2	0
83	145	10	10000	2	1	0	2	0
83	146	10	10000	2	1	0	2	0
85	147	10	10000	2	1	0	2	0
84	148	10	10000	2	1	0	2	0
83	149	10	10000	2	1	0	2	0
82	150	10	10000	2	1	0	2	0
81	150	10	10000	2	1	0	2	0
78	151	10	10000	2	1	0	2	0
76	153	10	10000	2	1	0	2	0
77	154	10	10000	2	1	0	2	0
74	155	10	10000	2	1	0	2	0
71	156	10	10000	2	1	0	2	0
71	157	10	10000	2	1	0	2	0
70	158	10	10000	2	1	0	2	0
67	159	10	10000	2	1	0	2	0
66	160	10	10000	2	1	0	2	0
66	160	10	10000	2	1	0	2	0
63	161	10	10000	2	1	0	2	0
60	163	10	10000	2	1	0	2	0
60	164	10	10000	2	1	0	2	0
57	165	10	10000	2	1	0	2	0
55	166	10	10000	2	1	0	2	0
55	167	10	10000	2	1	0	2	0
53	168	10	10000	2	1	0	2	0
51	169	10	10000	2	1	0	2	0
51	170	10	10000	2	1	0	2	0
49	170	10	10000	2	1	0	2	0
46	171	10	10000	2	1	0	2	0
45	173	10	10000	2	1	0	2	0
44	174	10	10000	2	1	0	2	0
43	175	10	10000	2	1	0	2	0
43	176	10	10000	2	1	0	2	0
42	177	10	10000	2	1	0	2	0
40	178	10	10000	2	1	0	2	0
38	179	10	10000	2	1	0	2	0
38	180	10	10000	2	1	0	2	0
40	180	10	10000	2	1	0	2	0
39	181	10	10000	2	1	0	2	0
38	183	10	10000	2	1	0	2	0
39	184	10	10000	2	1	0	2	0
37	185	10	10000	2	1	0	2	0
36	186	10	10000	2	1	0	2	0
36	187	10	10000	2	1	0	2	0
35	188	10	10000	2	1	0	2	0
34	189	10	10000	2	1	0	2	0
34	190	10	10000	2	1	0	2	0
33	190	10	10000	2	1	0	2	0
32	191	10	10000	2	1	0	2	0
31	193	10	10000	2	1	0	2	0
31	194	10	10000	2	1	0	2	0
31	195	10	10000	2	1	0	2	0
30	196	10	10000	2	1	0	2	0
31	197	10	10000	2	1	0	2	0
29	198	10	10000	2	1	0	2	0
29	199	10	10000	2	1	0	2	0
29	200	10	10000	2	1	0	2	0
29	200	10	10000	2	1	0	2	0
30	201	10	10000	2	1	0	2	0
29	203	10	10000	2	1	0	2	0
29	204	10	10000	2	1	0	2	0
28	205	10	10000	2	1	0	2	0
27	206	10	10000	2	1	0	2	0
26	207	10	10000	2	1	0	2	0
27	208	10	10000	2	1	0	2	0
27	209	10	10000	2	1	0	2	0
27	210	10	10000	2	1	0	2	0
26	210	10	10000	2	1	0	2	0
24	211	10	10000	2	1	0	2	0
24	213	10	10000	2	1	0	2	0
25	214	10	10000	2	1	0	2	0
25	215	10	10000	2	1	0	2	0
24	216	10	10000	2	1	0	2	0
24	217	10	10000	2	1	0	2	0
24	218	10	10000	2	1	0	2	0
25	219	10	10000	2	1	0	2	0
24	220	10	10000	2	1	0	2	0
26	220	10	10000	2	1	0	2	0
26	221	10	10000	2	1	0	2	0
26	223	10	10000	2	1	0	2	0
26	224	10	10000	2	1	0	2	0
25	225	10	10000	2	1	0	2	0
24	226	10	10000	2	1	0	2	0
25	227	10	10000	2	1	0	2	0
24	228	10	10000	2	1	0	2	0
25	229	10	10000	2	1	0	2	0
25	230	10	10000	2	1	0	2	0
25	230	10	10000	2	1	0	2	0
24	231	10	10000	2	1	0	2	0
25	233	10	10000	2	1	0	2	0
25	234	10	10000	2	1	0	2	0
27	235	10	10000	2	1	0	2	0
27	236	10	10000	2	1	0	2	0
27	237	10	10000	2	1	0	2	0
26	238	10	10000	2	1	0	2	0
25	239	10	10000	2	1	0	2	0
25	240	10	10000	2	1	0	2	0
26	240	10	10000	2	1	0	2	0
27	241	10	10000	2	1	0	2	0
27	243	10	10000	2	1	0	2	0
26	244	10	10000	2	1	0	2	0
26	245	10	10000	2	1	0	2	0
26	246	10	10000	2	1	0	2	0
26	247	10	10000	2	1	0	2	0
26	248	10	10000	2	1	0	2	0
26	249	10	10000	2	1	0	2	0
26	250	10	10000	2	1	0	2	0
26	250	10	10000	2	1	0	2	0
25	251	10	10000	2	1	0	2	0
26	253	10	10000	2	1	0	2	0
26	254	10	10000	2	1	0	2	0
26	255	10	10000	2	1	0	2	0
25	256	10	10000	2	1	0	2	0
26	257	10	10000	2	1	0	2	0
24	258	10	10000	2	1	0	2	0
23	259	10	10000	2	1	0	2	0
23	260	10	10000	2	1	0	2	0
23	260	10	10000	2	1	0	2	0
24	261	10	10000	2	1	0	2	0
23	263	10	10000	2	1	0	2	0
23	264	10	10000	2	1	0	2	0
22	265	10	10000	2	1	0	2	0
22	266	10	10000	2	1	0	2	0
22	267	10	10000	2	1	0	2	0
22	268	10	10000	2	1	0	2	0
23	269	10	10000	2	1	0	2	0
25	270	10	10000	2	1	0	2	0
23	270	10	10000	2	1	0	2	0
21	271	10	10000	2	1	0	2	0
22	273	10	10000	2	1	0	2	0
22	274	10	10000	2	1	0	2	0
23	275	10	10000	2	1	0	2	0
22	276	10	10000	2	1	0	2	0
22	277	10	10000	2	1	0	2	0
23	278	10	10000	2	1	0	2	0
22	279	10	10000	2	1	0	2	0
21	280	10	10000	2	1	0	2	0
23	280	10	10000	2	1	0	2	0
25	281	10	10000	2	1	0	2	0
24	283	10	10000	2	1	0	2	0
24	284	10	10000	2	1	0	2	0
25	285	10	10000	2	1	0	2	0
26	286	10	10000	2	1	0	2	0
25	287	10	10000	2	1	0	2	0
26	288	10	10000	2	1	0	2	0
26	289	10	10000	2	1	0	2	0
26	290	10	10000	2	1	0	2	0
25	290	10	10000	2	1	0	2	0
24	291	10	10000	2	1	0	2	0
24	293	10	10000	2	1	0	2	0
25	294	10	10000	2	1	0	2	0
23	295	10	10000	2	1	0	2	0
23	296	10	10000	2	1	0	2	0
24	297	10	10000	2	1	0	2	0
23	298	10	10000	2	1	0	2	0
22	299	10	10000	2	1	0	2	0
23	300	10	10000	2	1	0	2	0
23	300	10	10000	2	1	0	2	0
24	301	10	10000	2	1	0	2	0
24	303	10	10000	2	1	0	2	0
23	304	10	10000	2	1	0	2	0
23	305	10	10000	2	1	0	2	0
22	306	10	10000	2	1	0	2	0
22	307	10	10000	2	1	0	2	0
24	308	10	10000	2	1	0	2	0
25	309	10	10000	2	1	0	2	0
29	310	10	10000	2	1	0	2	0
28	310	10	10000	2	1	0	2	0
27	311	10	10000	2	1	0	2	0
30	313	10	10000	2	1	0	2	0
30	314	10	10000	2	1	0	2	0
29	315	10	10000	2	1	0	2	0
31	316	10	10000	2	1	0	2	0
31	317	10	10000	2	1	0	2	0
31	318	10	10000	2	1	0	2	0
30	319	10	10000	2	1	0	2	0
30	320	10	10000	2	1	0	2	0
30	320	10	10000	2	1	0	2	0
30	321	10	10000	2	1	0	2	0
30	323	10	10000	2	1	0	2	0
29	324	10	10000	2	1	0	2	0
29	325	10	10000	2	1	0	2	0
29	326	10	10000	2	1	0	2	0
28	327	10	10000	2	1	0	2	0
30	328	10	10000	2	1	0	2	0
31	329	10	10000	2	1	0	2	0
30	330	10	10000	2	1	0	2	0
31	330	10	10000	2	1	0	2	0
32	331	10	10000	2	1	0	2	0
32	333	10	10000	2	1	0	2	0
32	334	10	10000	2	1	0	2	0
33	335	10	10000	2	1	0	2	0
33	336	10	10000	2	1	0	2	0
33	337	10	10000	2	1	0	2	0
32	338	10	10000	2	1	0	2	0
32	339	10	10000	2	1	0	2	0
31	340	10	10000	2	1	0	2	0
32	340	10	10000	2	1	0	2	0
33	341	10	10000	2	1	0	2	0
31	343	10	10000	2	1	0	2	0
32	344	10	10000	2	1	0	2	0
33	345	10	10000	2	1	0	2	0
32	346	10	10000	2	1	0	2	0
32	347	10	10000	2	1	0	2	0
33	348	10	10000	2	1	0	2	0
33	349	10	10000	2	1	0	2	0
32	350	10	10000	2	1	0	2	0
32	350	10	10000	2	1	0	2	0
30	351	10	10000	2	1	0	2	0
31	353	10	10000	2	1	0	2	0
30	354	10	10000	2	1	0	2	0
31	355	10	10000	2	1	0	2	0
31	356	10	10000	2	1	0	2	0
29	357	10	10000	2	1	0	2	0
29	358	10	10000	2	1	0	2	0
27	359	10	10000	2	1	0	2	0
27	360	10	10000	2	1	0	2	0
28	360	10	10000	2	1	0	2	0
27	361	10	10000	2	1	0	2	0
28	363	10	10000	2	1	0	2	0
27	364	10	10000	2	1	0	2	0
27	365	10	10000	2	1	0	2	0
26	366	10	10000	2	1	0	2	0
26	367	10	10000	2	1	0	2	0
26	368	10	10000	2	1	0	2	0
26	369	10	10000	2	1	0	2	0
26	370	10	10000	2	1	0	2	0
25	370	10	10000	2	1	0	2	0
24	371	10	10000	2	1	0	2	0
25	373	10	10000	2	1	0	2	0
25	374	10	10000	2	1	0	2	0
26	375	10	10000	2	1	0	2	0
26	376	10	10000	2	1	0	2	0
26	377	10	10000	2	1	0	2	0
25	378	10	10000	2	1	0	2	0
24	379	10	10000	2	1	0	2	0
24	380	10	10000	2	1	0	2	0
25	380	10	10000	2	1	0	2	0
25	381	10	10000	2	1	0	2	0
27	383	10	10000	2	1	0	2	0
26	384	10	10000	2	1	0	2	0
26	385	10	10000	2	1	0	2	0
25	386	10	10000	2	1	0	2	0
25	387	10	10000	2	1	0	2	0
25	388	10	10000	2	1	0	2	0
25	389	10	10000	2	1	0	2	0
25	390	10	10000	2	1	0	2	0
25	390	10	10000	2	1	0	2	0
23	391	10	10000	2	1	0	2	0
24	393	10	10000	2	1	0	2	0
23	394	10	10000	2	1	0	2	0
23	395	10	10000	2	1	0	2	0
24	396	10	10000	2	1	0	2	0
23	397	10	10000	2	1	0	2	0
22	398	10	10000	2	1	0	2	0
23	399	10	10000	2	1	0	2	0
23	400	10	10000	2	1	0	2	0
23	400	10	10000	2	1	0	2	0
24	401	10	10000	2	1	0	2	0
24	403	10	10000	2	1	0	2	0
24	404	10	10000	2	1	0	2	0
24	405	10	10000	2	1	0	2	0
24	406	10	10000	2	1	0	2	0
24	407	10	10000	2	1	0	2	0
23	408	10	10000	2	1	0	2	0
23	409	10	10000	2	1	0	2	0
25	410	10	10000	2	1	0	2	0
23	410	10	10000	2	1	0	2	0
23	411	10	10000	2	1	0	2	0
23	413	10	10000	2	1	0	2	0
22	414	10	10000	2	1	0	2	0
23	415	10	10000	2	1	0	2	0
23	416	10	10000	2	1	0	2	0
23	417	10	10000	2	1	0	2	0
22	418	10	10000	2	1	0	2	0
22	419	10	10000	2	1	0	2	0
22	420	10	10000	2	1	0	2	0
22	420	10	10000	2	1	0	2	0
24	421	10	10000	2	1	0	2	0
23	423	10	10000	2	1	0	2	0
23	424	10	10000	2	1	0	2	0
24	425	10	10000	2	1	0	2	0
24	426	10	10000	2	1	0	2	0
23	427	10	10000	2	1	0	2	0
23	428	10	10000	2	1	0	2	0
23	429	10	10000	2	1	0	2	0
24	430	10	10000	2	1	0	2	0
23	430	10	10000	2	1	0	2	0
20	431	10	10000	2	1	0	2	0
21	433	10	10000	2	1	0	2	0
21	434	10	10000	2	1	0	2	0
22	435	10	10000	2	1	0	2	0
23	436	10	10000	2	1	0	2	0
21	437	10	10000	2	1	0	2	0
21	438	10	10000	2	1	0	2	0
21	439	10	10000	2	1	0	2	0
20	440	10	10000	2	1	0	2	0
21	440	10	10000	2	1	0	2	0
21	441	10	10000	2	1	0	2	0
21	443	10	10000	2	1	0	2	0
23	444	10	10000	2	1	0	2	0
22	445	10	10000	2	1	0	2	0
22	446	10	10000	2	1	0	2	0
22	447	10	10000	2	1	0	2	0
22	448	10	10000	2	1	0	2	0
23	449	10	10000	2	1	0	2	0
24	450	10	10000	2	1	0	2	0
24	450	10	10000	2	1	0	2	0
23	451	10	10000	2	1	0	2	0
24	453	10	10000	2	1	0	2	0
23	454	10	10000	2	1	0	2	0
23	455	10	10000	2	1	0	2	0
23	456	10	10000	2	1	0	2	0
23	457	10	10000	2	1	0	2	0
24	458	10	10000	2	1	0	2	0
23	459	10	10000	2	1	0	2	0
24	460	10	10000	2	1	0	2	0
25	460	10	10000	2	1	0	2	0
26	461	10	10000	2	1	0	2	0
26	463	10	10000	2	1	0	2	0
25	464	10	10000	2	1	0	2	0
25	465	10	10000	2	1	0	2	0
24	466	10	10000	2	1	0	2	0
24	467	10	10000	2	1	0	2	0
23	468	10	10000	2	1	0	2	0
24	469	10	10000	2	1	0	2	0
23	470	10	10000	2	1	0	2	0
22	470	10	10000	2	1	0	2	0
20	471	10	10000	2	1	0	2	0
20	473	10	10000	2	1	0	2	0
21	474	10	10000	2	1	0	2	0
20	475	10	10000	2	1	0	2	0
21	476	10	10000	2	1	0	2	0
21	477	10	10000	2	1	0	2	0
20	478	10	10000	2	1	0	2	0
21	479	10	10000	2	1	0	2	0
20	480	10	10000	2	1	0	2	0
20	480	10	10000	2	1	0	2	0
23	481	10	10000	2	1	0	2	0
22	483	10	10000	2	1	0	2	0
22	484	10	10000	2	1	0	2	0
21	485	10	10000	2	1	0	2	0
22	486	10	10000	2	1	0	2	0
23	487	10	10000	2	1	0	2	0
22	488	10	10000	2	1	0	2	0
23	489	10	10000	2	1	0	2	0
23	490	10	10000	2	1	0	2	0
22	490	10	10000	2	1	0	2	0
21	491	10	10000	2	1	0	2	0
20	493	10	10000	2	1	0	2	0
21	494	10	10000	2	1	0	2	0
22	495	10	10000	2	1	0	2	0
21	496	10	10000	2	1	0	2	0
21	497	10	10000	2	1	0	2	0
21	498	10	10000	2	1	0	2	0
21	499	10	10000	2	1	0	2	0
21	500	10	10000	2	1	0	2	0
21	500	10	10000	2	1	0	2	0
23	501	10	10000	2	1	0	2	0
22	503	10	10000	2	1	0	2	1
20	504	10	10000	2	1	0	2	1
20	505	10	10000	2	1	0	2	1
20	506	10	10000	2	1	0	2	1
20	507	10	10000	2	1	0	2	1
20	508	10	10000	2	1	0	2	1
22	509	10	10000	2	1	0	2	1
22	510	10	10000	2	1	0	2	1
22	510	10	10000	2	1	0	2	1
20	511	10	10000	2	1	0	2	1
21	513	10	10000	2	1	0	2	1
20	514	10	10000	2	1	0	2	1
21	515	10	10000	2	1	0	2	1
20	516	10	10000	2	1	0	2	1
21	517	10	10000	2	1	0	2	1
21	518	10	10000	2	1	0	2	1
20	519	10	10000	2	1	0	2	1
19	520	10	10000	2	1	0	2	1
20	520	10	10000	2	1	0	2	1
21	521	10	10000	2	1	0	2	1
21	523	10	10000	2	1	0	2	1
22	524	10	10000	2	1	0	2	1
22	525	10	10000	2	1	0	2	1
21	526	10	10000	2	1	0	2	1
20	527	10	10000	2	1	0	2	1
20	528	10	10000	2	1	0	2	1
21	529	10	10000	2	1	0	2	1
22	530	10	10000	2	1	0	2	1
20	530	10	10000	2	1	0	2	1
20	531	10	10000	2	1	0	2	1
20	533	10	10000	2	1	0	2	1
20	534	10	10000	2	1	0	2	1
20	535	10	10000	2	1	0	2	1
20	536	10	10000	2	1	0	2	1
19	537	10	10000	2	1	0	2	1
20	538	10	10000	2	1	0	2	1
20	539	10	10000	2	1	0	2	1
19	540	10	10000	2	1	0	2	1
20	540	10	10000	2	1	0	2	1
21	541	10	10000	2	1	0	2	1
21	543	10	10000	2	1	0	2	1
22	544	10	10000	2	1	0	2	1
22	545	10	10000	2	1	0	2	1
22	546	10	10000	2	1	0	2	1
21	547	10	10000	2	1	0	2	1
21	548	10	10000	2	1	0	2	1
22	549	10	10000	2	1	0	2	1
22	550	10	10000	2	1	0	2	1
20	550	10	10000	2	1	0	2	1
20	551	10	10000	2	1	0	2	1
20	553	10	10000	2	1	0	2	0
21	554	10	10000	2	1	0	2	0
21	555	10	10000	2	1	0	2	0
21	556	10	10000	2	1	0	2	0
21	557	10	10000	2	1	0	2	0
22	558	10	10000	2	1	0	2	0
21	559	10	10000	2	1	0	2	0
21	560	10	10000	2	1	0	2	0
21	560	10	10000	2	1	0	2	0
23	561	10	10000	2	1	0	2	0
21	563	10	10000	2	1	0	2	0
20	564	10	10000	2	1	0	2	0
21	565	10	10000	2	1	0	2	0
21	566	10	10000	2	1	0	2	0
21	567	10	10000	2	1	0	2	0
22	568	10	10000	2	1	0	2	0
22	569	10	10000	2	1	0	2	0
23	570	10	10000	2	1	0	2	0
22	570	10	10000	2	1	0	2	0
22	571	10	10000	2	1	0	2	0
22	573	10	10000	2	1	0	2	0
21	574	10	10000	2	1	0	2	0
23	575	10	10000	2	1	0	2	0
23	576	10	10000	2	1	0	2	0
22	577	10	10000	2	1	0	2	0
22	578	10	10000	2	1	0	2	0
21	579	10	10000	2	1	0	2	0
20	580	10	10000	2	1	0	2	0
22	580	10	10000	2	1	0	2	0
24	581	10	10000	2	1	0	2	0
23	583	10	10000	2	1	0	2	0
24	584	10	10000	2	1	0	2	0
25	585	10	10000	2	1	0	2	0
25	586	10	10000	2	1	0	2	0
25	587	10	10000	2	1	0	2	0
25	588	10	10000	2	1	0	2	0
26	589	10	10000	2	1	0	2	0
27	590	10	10000	2	1	0	2	0
33	590	10	10000	2	1	0	2	0
42	591	10	10000	2	1	0	2	0
45	593	10	10000	2	1	0	2	0
45	594	10	10000	2	1	0	2	0
45	595	10	10000	2	1	0	2	0
44	596	10	10000	2	1	0	2	0
49	597	10	10000	2	1	0	2	0
83	598	10	10000	2	1	0	2	0
126	599	10	10000	2	1	0	2	0
164	600	10	10000	2	1	0	2	0
194	600	10	10000	2	1	0	2	0
201	601	10	10000	2	1	0	2	0
206	603	10	10000	2	1	0	2	0
230	604	10	10000	2	1	0	2	0
229	605	10	10000	2	1	0	2	0
252	606	10	10000	2	1	0	2	0
268	607	10	10000	2	1	0	2	0
265	608	10	10000	2	1	0	2	0
294	609	10	10000	2	1	0	2	0
352	610	10	10000	2	1	0	2	0
372	610	10	10000	2	1	0	2	0
425	611	10	10000	2	1	0	2	0
513	613	10	10000	2	1	0	2	0
550	614	10	10000	2	1	0	2	0
556	615	10	10000	2	1	0	2	0
576	616	10	10000	2	1	0	2	0
559	617	10	10000	2	1	0	2	0
564	618	10	10000	2	1	0	2	0
570	619	10	10000	2	1	0	2	0
554	620	10	10000	2	1	0	2	0
550	620	10	10000	2	1	0	2	0
547	621	10	10000	2	1	0	2	0
541	623	10	10000	2	1	0	2	0
569	624	10	10000	2	1	0	2	0
583	625	10	10000	2	1	0	2	0
566	626	10	10000	2	1	0	2	0
552	627	10	10000	2	1	0	2	0
551	628	10	10000	2	1	0	2	0
555	629	10	10000	2	1	0	2	0
547	630	10	10000	2	1	0	2	0
526	630	10	10000	2	1	0	2	0
517	631	10	10000	2	1	0	2	0
520	633	10	10000	2	1	0	2	0
536	634	10	10000	2	1	0	2	0
556	635	10	10000	2	1	0	2	0
569	636	10	10000	2	1	0	2	0
577	637	10	10000	2	1	0	2	0
589	638	10	10000	2	1	0	2	0
596	639	10	10000	2	1	0	2	0
603	640	10	10000	2	1	0	2	0
611	640	10	10000	2	1	0	2	0
615	641	10	10000	2	1	0	2	0
613	643	10	10000	2	1	0	2	0
608	644	10	10000	2	1	0	2	0
604	645	10	10000	2	1	0	2	0
598	646	10	10000	2	1	0	2	0
590	647	10	10000	2	1	0	2	0
587	648	10	10000	2	1	0	2	0
585	649	10	10000	2	1	0	2	0
589	650	10	10000	2	1	0	2	0
598	650	10	10000	2	1	0	2	0
591	651	10	10000	2	1	0	2	0
594	653	10	10000	2	1	0	2	0
592	654	10	10000	2	1	0	2	0
577	655	10	10000	2	1	0	2	0
560	656	10	10000	2	1	0	2	0
541	657	10	10000	2	1	0	2	0
521	658	10	10000	2	1	0	2	0
498	659	10	10000	2	1	0	2	0
477	660	10	10000	2	1	0	2	0
458	660	10	10000	2	1	0	2	0
439	661	10	10000	2	1	0	2	0
422	663	10	10000	2	1	0	2	0
407	664	10	10000	2	1	0	2	0
393	665	10	10000	2	1	0	2	0
385	666	10	10000	2	1	0	2	0
379	667	10	10000	2	1	0	2	0
374	668	10	10000	2	1	0	2	0
375	669	10	10000	2	1	0	2	0
380	670	10	10000	2	1	0	2	0
384	670	10	10000	2	1	0	2	0
392	671	10	10000	2	1	0	2	0
403	673	10	10000	2	1	0	2	0
413	674	10	10000	2	1	0	2	0
425	675	10	10000	2	1	0	2	0
441	676	10	10000	2	1	0	2	0
458	677	10	10000	2	1	0	2	0
477	678	10	10000	2	1	0	2	0
500	679	10	10000	2	1	0	2	0
523	680	10	10000	2	1	0	2	0
543	680	10	10000	2	1	0	2	0
566	681	10	10000	2	1	0	2	0
587	683	10	10000	2	1	0	2	0
607	684	10	10000	2	1	0	2	0
625	685	10	10000	2	1	0	2	0
646	686	10	10000	2	1	0	2	0
666	687	10	10000	2	1	0	2	0
686	688	10	10000	2	1	0	2	0
707	689	10	10000	2	1	0	2	0
727	690	10	10000	2	1	0	2	0
745	690	10	10000	2	1	0	2	0
763	691	10	10000	2	1	0	2	0
782	693	10	10000	2	1	0	2	0
796	694	10	10000	2	1	0	2	0
812	695	10	10000	2	1	0	2	0
827	696	10	10000	2	1	0	2	0
841	697	10	10000	2	1	0	2	0
852	698	10	10000	2	1	0	2	0
864	699	10	10000	2	1	0	2	0
873	700	10	10000	2	1	0	2	0
879	700	10	10000	2	1	0	2	0
886	701	10	10000	2	1	0	2	0
886	703	10	10000	2	1	0	2	0
883	704	10	10000	2	1	0	2	0
879	705	10	10000	2	1	0	2	0
874	706	10	10000	2	1	0	2	0
867	707	10	10000	2	1	0	2	0
855	708	10	10000	2	1	0	2	0
847	709	10	10000	2	1	0	2	0
838	710	10	10000	2	1	0	2	0
824	710	10	10000	2	1	0	2	0
811	711	10	10000	2	1	0	2	0
799	713	10	10000	2	1	0	2	0
784	714	10	10000	2	1	0	2	0
771	715	10	10000	2	1	0	2	0
757	716	10	10000	2	1	0	2	0
742	717	10	10000	2	1	0	2	0
727	718	10	10000	2	1	0	2	0
711	719	10	10000	2	1	0	2	0
693	720	10	10000	2	1	0	2	0
672	720	10	10000	2	1	0	2	0
654	721	10	10000	2	1	0	2	0
632	723	10	10000	2	1	0	2	0
607	724	10	10000	2	1	0	2	0
583	725	10	10000	2	1	0	2	0
559	726	10	10000	2	1	0	2	0
534	727	10	10000	2	1	0	2	0
509	728	10	10000	2	1	0	2	0
487	729	10	10000	2	1	0	2	0
466	730	10	10000	2	1	0	2	0
448	730	10	10000	2	1	0	2	0
428	731	10	10000	2	1	0	2	0
411	733	10	10000	2	1	0	2	0
398	734	10	10000	2	1	0	2	0
383	735	10	10000	2	1	0	2	0
369	736	10	10000	2	1	0	2	0
358	737	10	10000	2	1	0	2	0
349	738	10	10000	2	1	0	2	0
337	739	10	10000	2	1	0	2	0
327	740	10	10000	2	1	0	2	0
322	740	10	10000	2	1	0	2	0
317	741	10	10000	2	1	0	2	0
313	743	10	10000	2	1	0	2	0
312	744	10	10000	2	1	0	2	0
313	745	10	10000	2	1	0	2	0
314	746	10	10000	2	1	0	2	0
316	747	10	10000	2	1	0	2	0
320	748	10	10000	2	1	0	2	0
320	749	10	10000	2	1	0	2	0
322	750	10	10000	2	1	0	2	0
325	750	10	10000	2	1	0	2	0
323	751	10	10000	2	1	0	2	0
323	753	10	10000	2	1	0	2	0
325	754	10	10000	2	1	0	2	0
324	755	10	10000	2	1	0	2	0
322	756	10	10000	2	1	0	2	0
321	757	10	10000	2	1	0	2	0
323	758	10	10000	2	1	0	2	0
320	759	10	10000	2	1	0	2	0
320	760	10	10000	2	1	0	2	0
324	760	10	10000	2	1	0	2	0
326	761	10	10000	2	1	0	2	0
328	763	10	10000	2	1	0	2	0
332	764	10	10000	2	1	0	2	0
335	765	10	10000	2	1	0	2	0
339	766	10	10000	2	1	0	2	0
342	767	10	10000	2	1	0	2	0
344	768	10	10000	2	1	0	2	0
346	778	10	10000	2	1	0	2	0
348	779	10	10000	2	1	0	2	0
348	780	10	10000	2	1	0	2	0
345	781	10	10000	2	1	0	2	0
344	782	10	10000	2	1	0	2	0
344	783	10	10000	2	1	0	2	0
340	784	10	10000	2	1	0	2	0
337	785	10	10000	2	1	0	2	0
335	786	10	10000	2	1	0	2	0
334	787	10	10000	2	1	0	2	0
330	788	10	10000	2	1	0	2	0
326	789	10	10000	2	1	0	2	0
325	787	10	10000	2	1	0	2	0
324	788	10	10000	2	1	0	2	0
321	789	10	10000	2	1	0	2	0
321	790	10	10000	2	1	0	2	0
321	791	10	10000	2	1	0	2	0
320	792	10	10000	2	1	0	2	0
321	793	10	10000	2	1	0	2	0
321	794	10	10000	2	1	0	2	0
320	792	10	10000	2	1	0	2	0
317	793	10	10000	2	1	0	2	0
314	794	10	10000	2	1	0	2	0
307	795	10	10000	2	1	0	2	0
302	796	10	10000	2	1	0	2	0
298	797	10	10000	2	1	0	2	0
294	802	10	10000	2	1	0	2	0
287	803	10	10000	2	1	0	2	0
281	804	10	10000	2	1	0	2	0
277	805	10	10000	2	1	0	2	0
268	806	10	10000	2	1	0	2	0
260	807	10	10000	2	1	0	2	0
256	808	10	10000	2	1	0	2	0
251	809	10	10000	2	1	0	2	0
245	810	10	10000	2	1	0	2	0
243	811	10	10000	2	1	0	2	0
237	808	10	10000	2	1	0	2	0
235	809	10	10000	2	1	0	2	0
234	810	10	10000	2	1	0	2	0
232	811	10	10000	2	1	0	2	0
230	812	10	10000	2	1	0	2	0
226	813	10	10000	2	1	0	2	0
223	812	10	10000	2	1	0	2	0
216	813	10	10000	2	1	0	2	0
210	814	10	10000	2	1	0	2	0
206	815	10	10000	2	1	0	2	0
200	818	10	10000	2	1	0	2	0
193	819	10	10000	2	1	0	2	0
188	820	10	10000	2	1	0	2	0
183	821	10	10000	2	1	0	2	0
175	822	10	10000	2	1	0	2	0
170	823	10	10000	2	1	0	2	0
166	824	10	10000	2	1	0	2	0
162	825	10	10000	2	1	0	2	0
156	826	10	10000	2	1	0	2	0
154	827	10	10000	2	1	0	2	0
153	828	10	10000	2	1	0	2	0
150	829	10	10000	2	1	0	2	0
149	829	10	10000	2	1	0	2	0
148	830	10	10000	2	1	0	2	0
145	831	10	10000	2	1	0	2	0
143	832	10	10000	2	1	0	2	0
139	835	10	10000	2	1	0	2	0
132	836	10	10000	2	1	0	2	0
129	837	10	10000	2	1	0	2	0
126	838	10	10000	2	1	0	2	0
121	839	10	10000	2	1	0	2	0
117	840	10	10000	2	1	0	2	0
113	840	10	10000	2	1	0	2	0
108	841	10	10000	2	1	0	2	0
104	842	10	10000	2	1	0	2	0
101	843	10	10000	2	1	0	2	0
100	844	10	10000	2	1	0	2	0
99	845	10	10000	2	1	0	2	0
98	847	10	10000	2	1	0	2	0
100	848	10	10000	2	1	0	2	0
97	849	10	10000	2	1	0	2	0
93	850	10	10000	2	1	0	2	0
89	851	10	10000	2	1	0	2	0
86	852	10	10000	2	1	0	2	0
84	852	10	10000	2	1	0	2	0
84	853	10	10000	2	1	0	2	0
87	854	10	10000	2	1	0	2	0
85	855	10	10000	2	1	0	2	0
85	853	10	10000	2	1	0	2	0
86	854	10	10000	2	1	0	2	0
82	855	10	10000	2	1	0	2	0
79	856	10	10000	2	1	0	2	0
76	857	10	10000	2	1	0	2	0
74	858	10	10000	2	1	0	2	0
71	859	10	10000	2	1	0	2	0
69	860	10	10000	2	1	0	2	0
66	861	10	10000	2	1	0	2	0
66	862	10	10000	2	1	0	2	0
63	863	10	10000	2	1	0	2	0
61	864	10	10000	2	1	0	2	0
59	865	10	10000	2	1	0	2	0
58	866	10	10000	2	1	0	2	0
55	867	10	10000	2	1	0	2	0
57	868	10	10000	2	1	0	2	0
61	869	10	10000	2	1	0	2	0
60	870	10	10000	2	1	0	2	0
62	871	10	10000	2	1	0	2	0
63	872	10	10000	2	1	0	2	0
66	873	10	10000	2	1	0	2	0
68	874	10	10000	2	1	0	2	0
67	875	10	10000	2	1	0	2	0
66	876	10	10000	2	1	0	2	0
64	877	10	10000	2	1	0	2	0
62	878	10	10000	2	1	0	2	0
60	879	10	10000	2	1	0	2	0
58	880	10	10000	2	1	0	2	0
57	881	10	10000	2	1	0	2	0
59	882	10	10000	2	1	0	2	0
57	883	10	10000	2	1	0	2	0
56	884	10	10000	2	1	0	2	0
55	885	10	10000	2	1	0	2	0
55	886	10	10000	2	1	0	2	0
54	887	10	10000	2	1	0	2	0
53	888	10	10000	2	1	0	2	0
54	889	10	10000	2	1	0	2	0
53	890	10	10000	2	1	0	2	0
53	891	10	10000	2	1	0	2	0
51	892	10	10000	2	1	0	2	0
55	893	10	10000	2	1	0	2	0
59	894	10	10000	2	1	0	2	0
67	895	10	10000	2	1	0	2	0
67	896	10	10000	2	1	0	2	0
71	897	10	10000	2	1	0	2	0
77	898	10	10000	2	1	0	2	0
80	899	10	10000	2	1	0	2	0
84	900	10	10000	2	1	0	2	0
83	901	10	10000	2	1	0	2	0
82	902	10	10000	2	1	0	2	0
80	903	10	10000	2	1	0	2	0
81	904	10	10000	2	1	0	2	0
79	905	10	10000	2	1	0	2	0
76	906	10	10000	2	1	0	2	0
74	907	10	10000	2	1	0	2	0
74	908	10	10000	2	1	0	2	0
72	909	10	10000	2	1	0	2	0
71	910	10	10000	2	1	0	2	0
70	911	10	10000	2	1	0	2	0
70	912	10	10000	2	1	0	2	0
74	913	10	10000	2	1	0	2	0
74	914	10	10000	2	1	0	2	0
72	915	10	10000	2	1	0	2	0
70	916	10	10000	2	1	0	2	0
70	917	10	10000	2	1	0	2	0
68	918	10	10000	2	1	0	2	0
67	919	10	10000	2	1	0	2	0
64	920	10	10000	2	1	0	2	0
64	921	10	10000	2	1	0	2	0
66	922	10	10000	2	1	0	2	0
63	923	10	10000	2	1	0	2	0
63	924	10	10000	2	1	0	2	0
60	925	10	10000	2	1	0	2	0
57	926	10	10000	2	1	0	2	0
57	927	10	10000	2	1	0	2	0
55	928	10	10000	2	1	0	2	0
53	929	10	10000	2	1	0	2	0
54	930	10	10000	2	1	0	2	0
52	931	10	10000	2	1	0	2	0
48	932	10	10000	2	1	0	2	0
48	933	10	10000	2	1	0	2	0
53	934	10	10000	2	1	0	2	0
60	935	10	10000	2	1	0	2	0
60	936	10	10000	2	1	0	2	0
58	937	10	10000	2	1	0	2	0
56	938	10	10000	2	1	0	2	0
54	939	10	10000	2	1	0	2	0
54	940	10	10000	2	1	0	2	0
52	941	10	10000	2	1	0	2	0
52	942	10	10000	2	1	0	2	0
53	943	10	10000	2	1	0	2	0
50	944	10	10000	2	1	0	2	0
49	945	10	10000	2	1	0	2	0
50	946	10	10000	2	1	0	2	0
56	947	10	10000	2	1	0	2	0
56	948	10	10000	2	1	0	2	0
61	949	10	10000	2	1	0	2	0
66	950	10	10000	2	1	0	2	0
65	951	10	10000	2	1	0	2	0
59	952	10	10000	2	1	0	2	0
58	953	10	10000	2	1	0	2	0
57	954	10	10000	2	1	0	2	0
57	955	10	10000	2	1	0	2	0
55	956	10	10000	2	1	0	2	0
54	957	10	10000	2	1	0	2	0
54	958	10	10000	2	1	0	2	0
53	959	10	10000	2	1	0	2	0
52	960	10	10000	2	1	0	2	0
50	961	10	10000	2	1	0	2	0
51	962	10	10000	2	1	0	2	0
49	963	10	10000	2	1	0	2	0
47	964	10	10000	2	1	0	2	0
45	965	10	10000	2	1	0	2	0
45	966	10	10000	2	1	0	2	0
46	967	10	10000	2	1	0	2	0
44	968	10	10000	2	1	0	2	0
44	969	10	10000	2	1	0	2	0
43	970	10	10000	2	1	0	2	0
41	971	10	10000	2	1	0	2	0
38	972	10	10000	2	1	0	2	0
38	973	10	10000	2	1	0	2	0
39	974	10	10000	2	1	0	2	0
44	975	10	10000	2	1	0	2	0
48	976	10	10000	2	1	0	2	0
50	977	10	10000	2	1	0	2	0
52	978	10	10000	2	1	0	2	0
49	979	10	10000	2	1	0	2	0
49	980	10	10000	2	1	0	2	0
51	981	10	10000	2	1	0	2	0
52	982	10	10000	2	1	0	2	0
52	983	10	10000	2	1	0	2	0
50	984	10	10000	2	1	0	2	0
49	985	10	10000	2	1	0	2	0
48	986	10	10000	2	1	0	2	0
48	987	10	10000	2	1	0	2	0
50	988	10	10000	2	1	0	2	0
53	989	10	10000	2	1	0	2	0
53	990	10	10000	2	1	0	2	0
56	991	10	10000	2	1	0	2	0
57	992	10	10000	2	1	0	2	0
60	993	10	10000	2	1	0	2	0
67	994	10	10000	2	1	0	2	0
73	995	10	10000	2	1	0	2	0
77	996	10	10000	2	1	0	2	0
81	997	10	10000	2	1	0	2	0
87	998	10	10000	2	1	0	2	0
92	999	10	10000	2	1	0	2	0
94	1000	10	10000	2	1	0	2	0
61	1	1	10000	3	1	0	3	0
65	2	1	10000	3	1	0	3	0
66	3	1	10000	3	1	0	3	0
69	4	1	10000	3	1	0	3	0
74	5	1	10000	3	1	0	3	0
78	6	1	10000	3	1	0	3	0
84	7	1	10000	3	1	0	3	0
89	8	1	10000	3	1	0	3	0
89	9	1	10000	3	1	0	3	0
93	10	1	10000	3	1	0	3	0
95	11	1	10000	3	1	0	3	0
95	12	1	10000	3	1	0	3	0
96	13	1	10000	3	1	0	3	0
100	14	1	10000	3	1	0	3	0
102	15	1	10000	3	1	0	3	0
104	16	1	10000	3	1	0	3	0
109	17	1	10000	3	1	0	3	0
113	18	1	10000	3	1	0	3	0
115	19	1	10000	3	1	0	3	0
119	20	1	10000	3	1	0	3	0
122	21	1	10000	3	1	0	3	0
125	22	1	10000	3	1	0	3	0
129	23	1	10000	3	1	0	3	0
132	24	1	10000	3	1	0	3	0
133	25	1	10000	3	1	0	3	0
136	26	1	10000	3	1	0	3	0
138	27	1	10000	3	1	0	3	0
139	28	1	10000	3	1	0	3	0
141	29	1	10000	3	1	0	3	0
143	30	1	10000	3	1	0	3	0
143	31	1	10000	3	1	0	3	0
147	32	1	10000	3	1	0	3	0
148	33	1	10000	3	1	0	3	0
148	34	1	10000	3	1	0	3	0
148	35	1	10000	3	1	0	3	0
150	36	1	10000	3	1	0	3	0
149	37	1	10000	3	1	0	3	0
151	38	1	10000	3	1	0	3	0
152	39	1	10000	3	1	0	3	0
151	40	1	10000	3	1	0	3	0
151	41	1	10000	3	1	0	3	0
152	42	1	10000	3	1	0	3	0
152	43	1	10000	3	1	0	3	0
148	44	1	10000	3	1	0	3	0
146	45	1	10000	3	1	0	3	0
142	46	1	10000	3	1	0	3	0
136	47	1	10000	3	1	0	3	0
133	48	1	10000	3	1	0	3	0
130	49	1	10000	3	1	0	3	0
127	50	1	10000	3	1	0	3	0
125	51	1	10000	3	1	0	3	0
122	52	1	10000	3	1	0	3	0
116	53	1	10000	3	1	0	3	0
112	54	1	10000	3	1	0	3	0
109	55	1	10000	3	1	0	3	0
105	56	1	10000	3	1	0	3	0
101	57	1	10000	3	1	0	3	0
98	58	1	10000	3	1	0	3	0
94	59	1	10000	3	1	0	3	0
92	60	1	10000	3	1	0	3	0
89	61	1	10000	3	1	0	3	0
86	62	1	10000	3	1	0	3	0
84	63	1	10000	3	1	0	3	0
81	64	1	10000	3	1	0	3	0
79	65	1	10000	3	1	0	3	0
76	66	1	10000	3	1	0	3	0
72	67	1	10000	3	1	0	3	0
70	68	1	10000	3	1	0	3	0
69	69	1	10000	3	1	0	3	0
66	70	1	10000	3	1	0	3	0
65	71	1	10000	3	1	0	3	0
63	72	1	10000	3	1	0	3	0
60	73	1	10000	3	1	0	3	0
60	74	1	10000	3	1	0	3	0
61	75	1	10000	3	1	0	3	0
61	76	1	10000	3	1	0	3	0
62	77	1	10000	3	1	0	3	0
64	78	1	10000	3	1	0	3	0
63	79	1	10000	3	1	0	3	0
62	80	1	10000	3	1	0	3	0
63	81	1	10000	3	1	0	3	0
61	82	1	10000	3	1	0	3	0
61	83	1	10000	3	1	0	3	0
62	84	1	10000	3	1	0	3	0
61	85	1	10000	3	1	0	3	0
62	86	1	10000	3	1	0	3	0
65	87	1	10000	3	1	0	3	0
64	88	1	10000	3	1	0	3	0
61	89	1	10000	3	1	0	3	0
63	90	1	10000	3	1	0	3	0
62	91	1	10000	3	1	0	3	0
59	92	1	10000	3	1	0	3	0
56	93	1	10000	3	1	0	3	0
57	94	1	10000	3	1	0	3	0
57	95	1	10000	3	1	0	3	0
61	96	1	10000	3	1	0	3	0
62	97	1	10000	3	1	0	3	0
62	98	1	10000	3	1	0	3	0
65	99	1	10000	3	1	0	3	0
67	100	1	10000	3	1	0	3	0
67	101	1	10000	3	1	0	3	0
69	102	1	10000	3	1	0	3	0
72	103	1	10000	3	1	0	3	0
72	104	1	10000	3	1	0	3	0
71	105	1	10000	3	1	0	3	0
73	106	1	10000	3	1	0	3	0
73	107	1	10000	3	1	0	3	0
73	108	1	10000	3	1	0	3	0
75	109	1	10000	3	1	0	3	0
75	110	1	10000	3	1	0	3	0
75	111	1	10000	3	1	0	3	0
76	112	1	10000	3	1	0	3	0
73	113	1	10000	3	1	0	3	0
72	114	1	10000	3	1	0	3	0
74	115	1	10000	3	1	0	3	0
72	116	1	10000	3	1	0	3	0
69	117	1	10000	3	1	0	3	0
70	118	1	10000	3	1	0	3	0
68	119	1	10000	3	1	0	3	0
67	120	1	10000	3	1	0	3	0
67	121	1	10000	3	1	0	3	0
67	122	1	10000	3	1	0	3	0
68	123	1	10000	3	1	0	3	0
70	124	1	10000	3	1	0	3	0
70	125	1	10000	3	1	0	3	0
69	126	1	10000	3	1	0	3	0
70	127	1	10000	3	1	0	3	0
70	128	1	10000	3	1	0	3	0
70	129	1	10000	3	1	0	3	0
69	130	1	10000	3	1	0	3	0
70	131	1	10000	3	1	0	3	0
67	132	1	10000	3	1	0	3	0
62	133	1	10000	3	1	0	3	0
64	134	1	10000	3	1	0	3	0
63	135	1	10000	3	1	0	3	0
62	136	1	10000	3	1	0	3	0
65	137	1	10000	3	1	0	3	0
64	138	1	10000	3	1	0	3	0
62	139	1	10000	3	1	0	3	0
62	140	1	10000	3	1	0	3	0
60	141	1	10000	3	1	0	3	0
61	142	1	10000	3	1	0	3	0
65	143	1	10000	3	1	0	3	0
64	144	1	10000	3	1	0	3	0
63	145	1	10000	3	1	0	3	0
63	146	1	10000	3	1	0	3	0
61	147	1	10000	3	1	0	3	0
57	148	1	10000	3	1	0	3	0
58	149	1	10000	3	1	0	3	0
56	150	1	10000	3	1	0	3	0
54	151	1	10000	3	1	0	3	0
53	152	1	10000	3	1	0	3	0
50	153	1	10000	3	1	0	3	0
49	154	1	10000	3	1	0	3	0
47	155	1	10000	3	1	0	3	0
45	156	1	10000	3	1	0	3	0
44	157	1	10000	3	1	0	3	0
44	158	1	10000	3	1	0	3	0
43	159	1	10000	3	1	0	3	0
41	160	1	10000	3	1	0	3	0
40	161	1	10000	3	1	0	3	0
39	162	1	10000	3	1	0	3	0
39	163	1	10000	3	1	0	3	0
39	164	1	10000	3	1	0	3	0
41	165	1	10000	3	1	0	3	0
39	166	1	10000	3	1	0	3	0
37	167	1	10000	3	1	0	3	0
37	168	1	10000	3	1	0	3	0
37	169	1	10000	3	1	0	3	0
36	170	1	10000	3	1	0	3	0
38	171	1	10000	3	1	0	3	0
36	172	1	10000	3	1	0	3	0
33	173	1	10000	3	1	0	3	0
34	174	1	10000	3	1	0	3	0
34	175	1	10000	3	1	0	3	0
33	176	1	10000	3	1	0	3	0
34	177	1	10000	3	1	0	3	0
33	178	1	10000	3	1	0	3	0
33	179	1	10000	3	1	0	3	0
33	180	1	10000	3	1	0	3	0
32	181	1	10000	3	1	0	3	0
32	182	1	10000	3	1	0	3	0
33	183	1	10000	3	1	0	3	0
32	184	1	10000	3	1	0	3	0
31	185	1	10000	3	1	0	3	0
30	186	1	10000	3	1	0	3	0
30	187	1	10000	3	1	0	3	0
30	188	1	10000	3	1	0	3	0
29	189	1	10000	3	1	0	3	0
30	190	1	10000	3	1	0	3	0
30	191	1	10000	3	1	0	3	0
28	192	1	10000	3	1	0	3	0
27	193	1	10000	3	1	0	3	0
26	194	1	10000	3	1	0	3	0
28	195	1	10000	3	1	0	3	0
31	196	1	10000	3	1	0	3	0
30	197	1	10000	3	1	0	3	0
29	198	1	10000	3	1	0	3	0
29	199	1	10000	3	1	0	3	0
28	200	1	10000	3	1	0	3	0
28	201	1	10000	3	1	0	3	0
27	202	1	10000	3	1	0	3	0
29	203	1	10000	3	1	0	3	0
29	204	1	10000	3	1	0	3	0
29	205	1	10000	3	1	0	3	0
28	206	1	10000	3	1	0	3	0
28	207	1	10000	3	1	0	3	0
27	208	1	10000	3	1	0	3	0
28	209	1	10000	3	1	0	3	0
27	210	1	10000	3	1	0	3	0
27	211	1	10000	3	1	0	3	0
27	212	1	10000	3	1	0	3	0
25	213	1	10000	3	1	0	3	0
26	214	1	10000	3	1	0	3	0
27	215	1	10000	3	1	0	3	0
26	216	1	10000	3	1	0	3	0
26	217	1	10000	3	1	0	3	0
26	218	1	10000	3	1	0	3	0
25	219	1	10000	3	1	0	3	0
24	220	1	10000	3	1	0	3	0
24	221	1	10000	3	1	0	3	0
25	222	1	10000	3	1	0	3	0
28	223	1	10000	3	1	0	3	0
27	224	1	10000	3	1	0	3	0
27	225	1	10000	3	1	0	3	0
25	226	1	10000	3	1	0	3	0
25	227	1	10000	3	1	0	3	0
24	228	1	10000	3	1	0	3	0
23	229	1	10000	3	1	0	3	0
26	230	1	10000	3	1	0	3	0
27	231	1	10000	3	1	0	3	0
25	232	1	10000	3	1	0	3	0
24	233	1	10000	3	1	0	3	0
24	234	1	10000	3	1	0	3	0
23	235	1	10000	3	1	0	3	0
24	236	1	10000	3	1	0	3	0
24	237	1	10000	3	1	0	3	0
24	238	1	10000	3	1	0	3	0
24	239	1	10000	3	1	0	3	0
23	240	1	10000	3	1	0	3	0
22	241	1	10000	3	1	0	3	0
22	242	1	10000	3	1	0	3	0
24	243	1	10000	3	1	0	3	0
24	244	1	10000	3	1	0	3	0
23	245	1	10000	3	1	0	3	0
23	246	1	10000	3	1	0	3	0
23	247	1	10000	3	1	0	3	0
24	248	1	10000	3	1	0	3	0
23	249	1	10000	3	1	0	3	0
25	250	1	10000	3	1	0	3	0
25	251	1	10000	3	1	0	3	0
25	252	1	10000	3	1	0	3	0
24	253	1	10000	3	1	0	3	0
24	254	1	10000	3	1	0	3	0
25	255	1	10000	3	1	0	3	0
25	256	1	10000	3	1	0	3	0
24	257	1	10000	3	1	0	3	0
25	258	1	10000	3	1	0	3	0
25	259	1	10000	3	1	0	3	0
26	260	1	10000	3	1	0	3	0
24	261	1	10000	3	1	0	3	0
25	262	1	10000	3	1	0	3	0
26	263	1	10000	3	1	0	3	0
25	264	1	10000	3	1	0	3	0
25	265	1	10000	3	1	0	3	0
24	266	1	10000	3	1	0	3	0
24	267	1	10000	3	1	0	3	0
24	268	1	10000	3	1	0	3	0
23	269	1	10000	3	1	0	3	0
25	270	1	10000	3	1	0	3	0
25	271	1	10000	3	1	0	3	0
25	272	1	10000	3	1	0	3	0
22	273	1	10000	3	1	0	3	0
23	274	1	10000	3	1	0	3	0
24	275	1	10000	3	1	0	3	0
24	276	1	10000	3	1	0	3	0
25	277	1	10000	3	1	0	3	0
24	278	1	10000	3	1	0	3	0
24	279	1	10000	3	1	0	3	0
23	280	1	10000	3	1	0	3	0
22	281	1	10000	3	1	0	3	0
22	282	1	10000	3	1	0	3	0
23	283	1	10000	3	1	0	3	0
23	284	1	10000	3	1	0	3	0
23	285	1	10000	3	1	0	3	0
23	286	1	10000	3	1	0	3	0
24	287	1	10000	3	1	0	3	0
24	288	1	10000	3	1	0	3	0
23	289	1	10000	3	1	0	3	0
24	290	1	10000	3	1	0	3	0
26	291	1	10000	3	1	0	3	0
25	292	1	10000	3	1	0	3	0
24	293	1	10000	3	1	0	3	0
26	294	1	10000	3	1	0	3	0
27	295	1	10000	3	1	0	3	0
26	296	1	10000	3	1	0	3	0
25	297	1	10000	3	1	0	3	0
25	298	1	10000	3	1	0	3	0
26	299	1	10000	3	1	0	3	0
24	300	1	10000	3	1	0	3	0
23	301	1	10000	3	1	0	3	0
25	302	1	10000	3	1	0	3	0
27	303	1	10000	3	1	0	3	0
26	304	1	10000	3	1	0	3	0
27	305	1	10000	3	1	0	3	0
27	306	1	10000	3	1	0	3	0
27	307	1	10000	3	1	0	3	0
26	308	1	10000	3	1	0	3	0
25	309	1	10000	3	1	0	3	0
26	310	1	10000	3	1	0	3	0
27	311	1	10000	3	1	0	3	0
25	312	1	10000	3	1	0	3	0
23	313	1	10000	3	1	0	3	0
24	314	1	10000	3	1	0	3	0
25	315	1	10000	3	1	0	3	0
24	316	1	10000	3	1	0	3	0
24	317	1	10000	3	1	0	3	0
24	318	1	10000	3	1	0	3	0
24	319	1	10000	3	1	0	3	0
22	320	1	10000	3	1	0	3	0
21	321	1	10000	3	1	0	3	0
23	322	1	10000	3	1	0	3	0
24	323	1	10000	3	1	0	3	0
23	324	1	10000	3	1	0	3	0
22	325	1	10000	3	1	0	3	0
21	326	1	10000	3	1	0	3	0
22	327	1	10000	3	1	0	3	0
22	328	1	10000	3	1	0	3	0
21	329	1	10000	3	1	0	3	0
23	330	1	10000	3	1	0	3	0
23	331	1	10000	3	1	0	3	0
23	332	1	10000	3	1	0	3	0
21	333	1	10000	3	1	0	3	0
21	334	1	10000	3	1	0	3	0
22	335	1	10000	3	1	0	3	0
22	336	1	10000	3	1	0	3	0
21	337	1	10000	3	1	0	3	0
22	338	1	10000	3	1	0	3	0
22	339	1	10000	3	1	0	3	0
21	340	1	10000	3	1	0	3	0
20	341	1	10000	3	1	0	3	0
20	342	1	10000	3	1	0	3	0
22	343	1	10000	3	1	0	3	0
22	344	1	10000	3	1	0	3	0
21	345	1	10000	3	1	0	3	0
22	346	1	10000	3	1	0	3	0
21	347	1	10000	3	1	0	3	0
20	348	1	10000	3	1	0	3	0
21	349	1	10000	3	1	0	3	0
23	350	1	10000	3	1	0	3	0
23	351	1	10000	3	1	0	3	0
23	352	1	10000	3	1	0	3	0
22	353	1	10000	3	1	0	3	0
25	354	1	10000	3	1	0	3	0
24	355	1	10000	3	1	0	3	0
24	356	1	10000	3	1	0	3	0
24	357	1	10000	3	1	0	3	0
27	358	1	10000	3	1	0	3	0
26	359	1	10000	3	1	0	3	0
25	360	1	10000	3	1	0	3	0
24	361	1	10000	3	1	0	3	0
24	362	1	10000	3	1	0	3	0
24	363	1	10000	3	1	0	3	0
25	364	1	10000	3	1	0	3	0
25	365	1	10000	3	1	0	3	0
24	366	1	10000	3	1	0	3	0
24	367	1	10000	3	1	0	3	0
25	368	1	10000	3	1	0	3	0
24	369	1	10000	3	1	0	3	0
25	370	1	10000	3	1	0	3	0
26	371	1	10000	3	1	0	3	0
25	372	1	10000	3	1	0	3	0
24	373	1	10000	3	1	0	3	0
24	374	1	10000	3	1	0	3	0
23	375	1	10000	3	1	0	3	0
23	376	1	10000	3	1	0	3	0
23	377	1	10000	3	1	0	3	0
24	378	1	10000	3	1	0	3	0
25	379	1	10000	3	1	0	3	0
24	380	1	10000	3	1	0	3	0
25	381	1	10000	3	1	0	3	0
23	382	1	10000	3	1	0	3	0
25	383	1	10000	3	1	0	3	0
26	384	1	10000	3	1	0	3	0
26	385	1	10000	3	1	0	3	0
27	386	1	10000	3	1	0	3	0
28	387	1	10000	3	1	0	3	0
27	388	1	10000	3	1	0	3	0
29	389	1	10000	3	1	0	3	0
29	390	1	10000	3	1	0	3	0
28	391	1	10000	3	1	0	3	0
28	392	1	10000	3	1	0	3	0
25	393	1	10000	3	1	0	3	0
26	394	1	10000	3	1	0	3	0
27	395	1	10000	3	1	0	3	0
28	396	1	10000	3	1	0	3	0
30	397	1	10000	3	1	0	3	0
30	398	1	10000	3	1	0	3	0
29	399	1	10000	3	1	0	3	0
28	400	1	10000	3	1	0	3	0
27	401	1	10000	3	1	0	3	0
27	402	1	10000	3	1	0	3	0
29	403	1	10000	3	1	0	3	0
29	404	1	10000	3	1	0	3	0
28	405	1	10000	3	1	0	3	0
28	406	1	10000	3	1	0	3	0
28	407	1	10000	3	1	0	3	0
28	408	1	10000	3	1	0	3	0
28	409	1	10000	3	1	0	3	0
28	410	1	10000	3	1	0	3	0
27	411	1	10000	3	1	0	3	0
28	412	1	10000	3	1	0	3	0
25	413	1	10000	3	1	0	3	0
27	414	1	10000	3	1	0	3	0
28	415	1	10000	3	1	0	3	0
28	416	1	10000	3	1	0	3	0
28	417	1	10000	3	1	0	3	0
27	418	1	10000	3	1	0	3	0
27	419	1	10000	3	1	0	3	0
26	420	1	10000	3	1	0	3	0
26	421	1	10000	3	1	0	3	0
26	422	1	10000	3	1	0	3	0
28	423	1	10000	3	1	0	3	0
29	424	1	10000	3	1	0	3	0
27	425	1	10000	3	1	0	3	0
27	426	1	10000	3	1	0	3	0
27	427	1	10000	3	1	0	3	0
26	428	1	10000	3	1	0	3	0
24	429	1	10000	3	1	0	3	0
26	430	1	10000	3	1	0	3	0
26	431	1	10000	3	1	0	3	0
26	432	1	10000	3	1	0	3	0
23	433	1	10000	3	1	0	3	0
23	434	1	10000	3	1	0	3	0
23	435	1	10000	3	1	0	3	0
23	436	1	10000	3	1	0	3	0
23	437	1	10000	3	1	0	3	0
25	438	1	10000	3	1	0	3	0
24	439	1	10000	3	1	0	3	0
24	440	1	10000	3	1	0	3	0
22	441	1	10000	3	1	0	3	0
23	442	1	10000	3	1	0	3	0
24	443	1	10000	3	1	0	3	0
24	444	1	10000	3	1	0	3	0
24	445	1	10000	3	1	0	3	0
23	446	1	10000	3	1	0	3	0
23	447	1	10000	3	1	0	3	0
23	448	1	10000	3	1	0	3	0
23	449	1	10000	3	1	0	3	0
23	450	1	10000	3	1	0	3	0
24	451	1	10000	3	1	0	3	0
23	452	1	10000	3	1	0	3	0
22	453	1	10000	3	1	0	3	0
21	454	1	10000	3	1	0	3	0
22	455	1	10000	3	1	0	3	0
22	456	1	10000	3	1	0	3	0
23	457	1	10000	3	1	0	3	0
23	458	1	10000	3	1	0	3	0
25	459	1	10000	3	1	0	3	0
26	460	1	10000	3	1	0	3	0
26	461	1	10000	3	1	0	3	0
29	462	1	10000	3	1	0	3	0
34	463	1	10000	3	1	0	3	0
33	464	1	10000	3	1	0	3	0
33	465	1	10000	3	1	0	3	0
33	466	1	10000	3	1	0	3	0
33	467	1	10000	3	1	0	3	0
33	468	1	10000	3	1	0	3	0
35	469	1	10000	3	1	0	3	0
35	470	1	10000	3	1	0	3	0
35	471	1	10000	3	1	0	3	0
34	472	1	10000	3	1	0	3	0
32	473	1	10000	3	1	0	3	0
32	474	1	10000	3	1	0	3	0
33	475	1	10000	3	1	0	3	0
33	476	1	10000	3	1	0	3	0
34	477	1	10000	3	1	0	3	0
37	478	1	10000	3	1	0	3	0
38	479	1	10000	3	1	0	3	0
38	480	1	10000	3	1	0	3	0
39	481	1	10000	3	1	0	3	0
40	482	1	10000	3	1	0	3	0
40	483	1	10000	3	1	0	3	0
39	484	1	10000	3	1	0	3	0
39	485	1	10000	3	1	0	3	0
38	486	1	10000	3	1	0	3	0
38	487	1	10000	3	1	0	3	0
38	488	1	10000	3	1	0	3	0
36	489	1	10000	3	1	0	3	0
36	490	1	10000	3	1	0	3	0
35	491	1	10000	3	1	0	3	0
35	492	1	10000	3	1	0	3	0
32	493	1	10000	3	1	0	3	0
32	494	1	10000	3	1	0	3	0
33	495	1	10000	3	1	0	3	0
34	496	1	10000	3	1	0	3	0
35	497	1	10000	3	1	0	3	0
38	498	1	10000	3	1	0	3	0
40	499	1	10000	3	1	0	3	0
40	500	1	10000	3	1	0	3	0
41	501	1	10000	3	1	0	3	1
43	502	1	10000	3	1	0	3	1
44	503	1	10000	3	1	0	3	1
43	504	1	10000	3	1	0	3	1
43	505	1	10000	3	1	0	3	1
41	506	1	10000	3	1	0	3	1
42	507	1	10000	3	1	0	3	1
42	508	1	10000	3	1	0	3	1
41	509	1	10000	3	1	0	3	1
43	510	1	10000	3	1	0	3	1
43	511	1	10000	3	1	0	3	1
42	512	1	10000	3	1	0	3	1
38	513	1	10000	3	1	0	3	1
40	514	1	10000	3	1	0	3	1
40	515	1	10000	3	1	0	3	1
40	516	1	10000	3	1	0	3	1
42	517	1	10000	3	1	0	3	1
42	518	1	10000	3	1	0	3	1
40	519	1	10000	3	1	0	3	1
41	520	1	10000	3	1	0	3	1
39	521	1	10000	3	1	0	3	1
38	522	1	10000	3	1	0	3	1
40	523	1	10000	3	1	0	3	1
39	524	1	10000	3	1	0	3	1
38	525	1	10000	3	1	0	3	1
38	526	1	10000	3	1	0	3	1
38	527	1	10000	3	1	0	3	1
37	528	1	10000	3	1	0	3	1
38	529	1	10000	3	1	0	3	1
38	530	1	10000	3	1	0	3	1
37	531	1	10000	3	1	0	3	1
36	532	1	10000	3	1	0	3	1
34	533	1	10000	3	1	0	3	1
33	534	1	10000	3	1	0	3	1
33	535	1	10000	3	1	0	3	1
33	536	1	10000	3	1	0	3	1
32	537	1	10000	3	1	0	3	1
31	538	1	10000	3	1	0	3	1
31	539	1	10000	3	1	0	3	1
30	540	1	10000	3	1	0	3	1
29	541	1	10000	3	1	0	3	1
30	542	1	10000	3	1	0	3	1
31	543	1	10000	3	1	0	3	1
29	544	1	10000	3	1	0	3	1
31	545	1	10000	3	1	0	3	1
28	546	1	10000	3	1	0	3	1
27	547	1	10000	3	1	0	3	1
28	548	1	10000	3	1	0	3	1
26	549	1	10000	3	1	0	3	1
26	550	1	10000	3	1	0	3	1
27	551	1	10000	3	1	0	3	0
26	552	1	10000	3	1	0	3	0
24	553	1	10000	3	1	0	3	0
23	554	1	10000	3	1	0	3	0
23	555	1	10000	3	1	0	3	0
24	556	1	10000	3	1	0	3	0
24	557	1	10000	3	1	0	3	0
24	558	1	10000	3	1	0	3	0
24	559	1	10000	3	1	0	3	0
23	560	1	10000	3	1	0	3	0
23	561	1	10000	3	1	0	3	0
22	562	1	10000	3	1	0	3	0
24	563	1	10000	3	1	0	3	0
24	564	1	10000	3	1	0	3	0
25	565	1	10000	3	1	0	3	0
26	566	1	10000	3	1	0	3	0
26	567	1	10000	3	1	0	3	0
26	568	1	10000	3	1	0	3	0
25	569	1	10000	3	1	0	3	0
27	570	1	10000	3	1	0	3	0
27	571	1	10000	3	1	0	3	0
26	572	1	10000	3	1	0	3	0
24	573	1	10000	3	1	0	3	0
24	574	1	10000	3	1	0	3	0
23	575	1	10000	3	1	0	3	0
25	576	1	10000	3	1	0	3	0
25	577	1	10000	3	1	0	3	0
25	578	1	10000	3	1	0	3	0
25	579	1	10000	3	1	0	3	0
27	580	1	10000	3	1	0	3	0
25	581	1	10000	3	1	0	3	0
25	582	1	10000	3	1	0	3	0
29	583	1	10000	3	1	0	3	0
33	584	1	10000	3	1	0	3	0
43	585	1	10000	3	1	0	3	0
48	586	1	10000	3	1	0	3	0
49	587	1	10000	3	1	0	3	0
61	588	1	10000	3	1	0	3	0
64	589	1	10000	3	1	0	3	0
67	590	1	10000	3	1	0	3	0
81	591	1	10000	3	1	0	3	0
102	592	1	10000	3	1	0	3	0
120	593	1	10000	3	1	0	3	0
140	594	1	10000	3	1	0	3	0
146	595	1	10000	3	1	0	3	0
147	596	1	10000	3	1	0	3	0
144	597	1	10000	3	1	0	3	0
150	598	1	10000	3	1	0	3	0
175	599	1	10000	3	1	0	3	0
203	600	1	10000	3	1	0	3	0
211	601	1	10000	3	1	0	3	0
222	602	1	10000	3	1	0	3	0
250	603	1	10000	3	1	0	3	0
245	604	1	10000	3	1	0	3	0
235	605	1	10000	3	1	0	3	0
251	606	1	10000	3	1	0	3	0
290	607	1	10000	3	1	0	3	0
306	608	1	10000	3	1	0	3	0
301	609	1	10000	3	1	0	3	0
296	610	1	10000	3	1	0	3	0
320	611	1	10000	3	1	0	3	0
321	612	1	10000	3	1	0	3	0
333	613	1	10000	3	1	0	3	0
355	614	1	10000	3	1	0	3	0
350	615	1	10000	3	1	0	3	0
356	616	1	10000	3	1	0	3	0
354	617	1	10000	3	1	0	3	0
344	618	1	10000	3	1	0	3	0
338	619	1	10000	3	1	0	3	0
325	620	1	10000	3	1	0	3	0
342	621	1	10000	3	1	0	3	0
373	622	1	10000	3	1	0	3	0
379	623	1	10000	3	1	0	3	0
399	624	1	10000	3	1	0	3	0
391	625	1	10000	3	1	0	3	0
387	626	1	10000	3	1	0	3	0
399	627	1	10000	3	1	0	3	0
413	628	1	10000	3	1	0	3	0
417	629	1	10000	3	1	0	3	0
421	630	1	10000	3	1	0	3	0
424	631	1	10000	3	1	0	3	0
436	632	1	10000	3	1	0	3	0
455	633	1	10000	3	1	0	3	0
480	634	1	10000	3	1	0	3	0
502	635	1	10000	3	1	0	3	0
519	636	1	10000	3	1	0	3	0
528	637	1	10000	3	1	0	3	0
536	638	1	10000	3	1	0	3	0
541	639	1	10000	3	1	0	3	0
543	640	1	10000	3	1	0	3	0
549	641	1	10000	3	1	0	3	0
547	642	1	10000	3	1	0	3	0
537	643	1	10000	3	1	0	3	0
525	644	1	10000	3	1	0	3	0
514	645	1	10000	3	1	0	3	0
502	646	1	10000	3	1	0	3	0
490	647	1	10000	3	1	0	3	0
478	648	1	10000	3	1	0	3	0
465	649	1	10000	3	1	0	3	0
453	650	1	10000	3	1	0	3	0
441	651	1	10000	3	1	0	3	0
427	652	1	10000	3	1	0	3	0
408	653	1	10000	3	1	0	3	0
392	654	1	10000	3	1	0	3	0
375	655	1	10000	3	1	0	3	0
358	656	1	10000	3	1	0	3	0
342	657	1	10000	3	1	0	3	0
329	658	1	10000	3	1	0	3	0
317	659	1	10000	3	1	0	3	0
303	660	1	10000	3	1	0	3	0
297	661	1	10000	3	1	0	3	0
292	662	1	10000	3	1	0	3	0
292	663	1	10000	3	1	0	3	0
295	664	1	10000	3	1	0	3	0
300	665	1	10000	3	1	0	3	0
307	666	1	10000	3	1	0	3	0
315	667	1	10000	3	1	0	3	0
327	668	1	10000	3	1	0	3	0
340	669	1	10000	3	1	0	3	0
356	670	1	10000	3	1	0	3	0
375	671	1	10000	3	1	0	3	0
394	672	1	10000	3	1	0	3	0
411	673	1	10000	3	1	0	3	0
431	674	1	10000	3	1	0	3	0
450	675	1	10000	3	1	0	3	0
469	676	1	10000	3	1	0	3	0
493	677	1	10000	3	1	0	3	0
518	678	1	10000	3	1	0	3	0
542	679	1	10000	3	1	0	3	0
567	680	1	10000	3	1	0	3	0
591	681	1	10000	3	1	0	3	0
613	682	1	10000	3	1	0	3	0
639	683	1	10000	3	1	0	3	0
662	684	1	10000	3	1	0	3	0
683	685	1	10000	3	1	0	3	0
703	686	1	10000	3	1	0	3	0
723	687	1	10000	3	1	0	3	0
743	688	1	10000	3	1	0	3	0
765	689	1	10000	3	1	0	3	0
785	690	1	10000	3	1	0	3	0
802	691	1	10000	3	1	0	3	0
818	692	1	10000	3	1	0	3	0
833	693	1	10000	3	1	0	3	0
847	694	1	10000	3	1	0	3	0
858	695	1	10000	3	1	0	3	0
869	696	1	10000	3	1	0	3	0
875	697	1	10000	3	1	0	3	0
877	698	1	10000	3	1	0	3	0
880	699	1	10000	3	1	0	3	0
878	700	1	10000	3	1	0	3	0
875	701	1	10000	3	1	0	3	0
872	702	1	10000	3	1	0	3	0
869	703	1	10000	3	1	0	3	0
860	704	1	10000	3	1	0	3	0
852	705	1	10000	3	1	0	3	0
845	706	1	10000	3	1	0	3	0
835	707	1	10000	3	1	0	3	0
826	708	1	10000	3	1	0	3	0
817	709	1	10000	3	1	0	3	0
805	710	1	10000	3	1	0	3	0
793	711	1	10000	3	1	0	3	0
783	712	1	10000	3	1	0	3	0
767	713	1	10000	3	1	0	3	0
753	714	1	10000	3	1	0	3	0
738	715	1	10000	3	1	0	3	0
717	716	1	10000	3	1	0	3	0
694	717	1	10000	3	1	0	3	0
670	718	1	10000	3	1	0	3	0
645	719	1	10000	3	1	0	3	0
619	720	1	10000	3	1	0	3	0
594	721	1	10000	3	1	0	3	0
567	722	1	10000	3	1	0	3	0
544	723	1	10000	3	1	0	3	0
519	724	1	10000	3	1	0	3	0
498	725	1	10000	3	1	0	3	0
478	726	1	10000	3	1	0	3	0
458	727	1	10000	3	1	0	3	0
441	728	1	10000	3	1	0	3	0
428	729	1	10000	3	1	0	3	0
416	730	1	10000	3	1	0	3	0
405	731	1	10000	3	1	0	3	0
397	732	1	10000	3	1	0	3	0
387	733	1	10000	3	1	0	3	0
379	734	1	10000	3	1	0	3	0
374	735	1	10000	3	1	0	3	0
370	736	1	10000	3	1	0	3	0
365	737	1	10000	3	1	0	3	0
363	738	1	10000	3	1	0	3	0
361	739	1	10000	3	1	0	3	0
359	740	1	10000	3	1	0	3	0
360	741	1	10000	3	1	0	3	0
363	742	1	10000	3	1	0	3	0
366	743	1	10000	3	1	0	3	0
367	744	1	10000	3	1	0	3	0
369	745	1	10000	3	1	0	3	0
369	746	1	10000	3	1	0	3	0
369	747	1	10000	3	1	0	3	0
370	748	1	10000	3	1	0	3	0
369	749	1	10000	3	1	0	3	0
369	750	1	10000	3	1	0	3	0
370	751	1	10000	3	1	0	3	0
370	752	1	10000	3	1	0	3	0
367	753	1	10000	3	1	0	3	0
367	754	1	10000	3	1	0	3	0
367	755	1	10000	3	1	0	3	0
366	756	1	10000	3	1	0	3	0
368	757	1	10000	3	1	0	3	0
367	758	1	10000	3	1	0	3	0
367	759	1	10000	3	1	0	3	0
368	760	1	10000	3	1	0	3	0
367	761	1	10000	3	1	0	3	0
365	762	1	10000	3	1	0	3	0
367	763	1	10000	3	1	0	3	0
366	764	1	10000	3	1	0	3	0
365	765	1	10000	3	1	0	3	0
364	766	1	10000	3	1	0	3	0
363	767	1	10000	3	1	0	3	0
361	768	1	10000	3	1	0	3	0
358	769	1	10000	3	1	0	3	0
358	770	1	10000	3	1	0	3	0
356	771	1	10000	3	1	0	3	0
352	772	1	10000	3	1	0	3	0
348	773	1	10000	3	1	0	3	0
343	774	1	10000	3	1	0	3	0
339	775	1	10000	3	1	0	3	0
339	776	1	10000	3	1	0	3	0
337	777	1	10000	3	1	0	3	0
334	778	1	10000	3	1	0	3	0
334	779	1	10000	3	1	0	3	0
330	780	1	10000	3	1	0	3	0
327	781	1	10000	3	1	0	3	0
326	782	1	10000	3	1	0	3	0
325	783	1	10000	3	1	0	3	0
321	784	1	10000	3	1	0	3	0
315	785	1	10000	3	1	0	3	0
310	786	1	10000	3	1	0	3	0
307	787	1	10000	3	1	0	3	0
306	788	1	10000	3	1	0	3	0
303	789	1	10000	3	1	0	3	0
301	790	1	10000	3	1	0	3	0
298	791	1	10000	3	1	0	3	0
293	792	1	10000	3	1	0	3	0
285	793	1	10000	3	1	0	3	0
281	794	1	10000	3	1	0	3	0
276	795	1	10000	3	1	0	3	0
270	796	1	10000	3	1	0	3	0
265	797	1	10000	3	1	0	3	0
261	798	1	10000	3	1	0	3	0
256	799	1	10000	3	1	0	3	0
252	800	1	10000	3	1	0	3	0
250	801	1	10000	3	1	0	3	0
245	802	1	10000	3	1	0	3	0
244	803	1	10000	3	1	0	3	0
242	804	1	10000	3	1	0	3	0
237	805	1	10000	3	1	0	3	0
233	806	1	10000	3	1	0	3	0
229	807	1	10000	3	1	0	3	0
224	808	1	10000	3	1	0	3	0
218	809	1	10000	3	1	0	3	0
214	810	1	10000	3	1	0	3	0
208	811	1	10000	3	1	0	3	0
200	812	1	10000	3	1	0	3	0
193	813	1	10000	3	1	0	3	0
188	814	1	10000	3	1	0	3	0
183	815	1	10000	3	1	0	3	0
180	816	1	10000	3	1	0	3	0
176	817	1	10000	3	1	0	3	0
173	818	1	10000	3	1	0	3	0
170	819	1	10000	3	1	0	3	0
166	820	1	10000	3	1	0	3	0
160	821	1	10000	3	1	0	3	0
155	822	1	10000	3	1	0	3	0
153	823	1	10000	3	1	0	3	0
147	824	1	10000	3	1	0	3	0
143	825	1	10000	3	1	0	3	0
141	826	1	10000	3	1	0	3	0
138	827	1	10000	3	1	0	3	0
135	828	1	10000	3	1	0	3	0
134	829	1	10000	3	1	0	3	0
132	830	1	10000	3	1	0	3	0
127	831	1	10000	3	1	0	3	0
125	832	1	10000	3	1	0	3	0
117	833	1	10000	3	1	0	3	0
112	834	1	10000	3	1	0	3	0
111	835	1	10000	3	1	0	3	0
107	836	1	10000	3	1	0	3	0
102	837	1	10000	3	1	0	3	0
100	838	1	10000	3	1	0	3	0
95	839	1	10000	3	1	0	3	0
91	840	1	10000	3	1	0	3	0
89	841	1	10000	3	1	0	3	0
85	842	1	10000	3	1	0	3	0
83	843	1	10000	3	1	0	3	0
80	844	1	10000	3	1	0	3	0
79	845	1	10000	3	1	0	3	0
78	846	1	10000	3	1	0	3	0
75	847	1	10000	3	1	0	3	0
74	848	1	10000	3	1	0	3	0
70	849	1	10000	3	1	0	3	0
69	850	1	10000	3	1	0	3	0
71	851	1	10000	3	1	0	3	0
70	852	1	10000	3	1	0	3	0
66	853	1	10000	3	1	0	3	0
64	854	1	10000	3	1	0	3	0
62	855	1	10000	3	1	0	3	0
60	856	1	10000	3	1	0	3	0
63	857	1	10000	3	1	0	3	0
62	858	1	10000	3	1	0	3	0
62	859	1	10000	3	1	0	3	0
60	860	1	10000	3	1	0	3	0
59	861	1	10000	3	1	0	3	0
56	862	1	10000	3	1	0	3	0
59	863	1	10000	3	1	0	3	0
58	864	1	10000	3	1	0	3	0
57	865	1	10000	3	1	0	3	0
56	866	1	10000	3	1	0	3	0
56	867	1	10000	3	1	0	3	0
55	868	1	10000	3	1	0	3	0
53	869	1	10000	3	1	0	3	0
52	870	1	10000	3	1	0	3	0
50	871	1	10000	3	1	0	3	0
50	872	1	10000	3	1	0	3	0
47	873	1	10000	3	1	0	3	0
45	874	1	10000	3	1	0	3	0
44	875	1	10000	3	1	0	3	0
44	876	1	10000	3	1	0	3	0
42	877	1	10000	3	1	0	3	0
41	878	1	10000	3	1	0	3	0
41	879	1	10000	3	1	0	3	0
39	880	1	10000	3	1	0	3	0
40	881	1	10000	3	1	0	3	0
37	882	1	10000	3	1	0	3	0
43	883	1	10000	3	1	0	3	0
46	884	1	10000	3	1	0	3	0
45	885	1	10000	3	1	0	3	0
45	886	1	10000	3	1	0	3	0
44	887	1	10000	3	1	0	3	0
43	888	1	10000	3	1	0	3	0
43	889	1	10000	3	1	0	3	0
42	890	1	10000	3	1	0	3	0
41	891	1	10000	3	1	0	3	0
41	892	1	10000	3	1	0	3	0
42	893	1	10000	3	1	0	3	0
42	894	1	10000	3	1	0	3	0
41	895	1	10000	3	1	0	3	0
40	896	1	10000	3	1	0	3	0
41	897	1	10000	3	1	0	3	0
42	898	1	10000	3	1	0	3	0
41	899	1	10000	3	1	0	3	0
40	900	1	10000	3	1	0	3	0
41	901	1	10000	3	1	0	3	0
39	902	1	10000	3	1	0	3	0
42	903	1	10000	3	1	0	3	0
41	904	1	10000	3	1	0	3	0
41	905	1	10000	3	1	0	3	0
41	906	1	10000	3	1	0	3	0
40	907	1	10000	3	1	0	3	0
40	908	1	10000	3	1	0	3	0
41	909	1	10000	3	1	0	3	0
40	910	1	10000	3	1	0	3	0
40	911	1	10000	3	1	0	3	0
39	912	1	10000	3	1	0	3	0
36	913	1	10000	3	1	0	3	0
37	914	1	10000	3	1	0	3	0
41	915	1	10000	3	1	0	3	0
44	916	1	10000	3	1	0	3	0
43	917	1	10000	3	1	0	3	0
42	918	1	10000	3	1	0	3	0
44	919	1	10000	3	1	0	3	0
45	920	1	10000	3	1	0	3	0
44	921	1	10000	3	1	0	3	0
42	922	1	10000	3	1	0	3	0
43	923	1	10000	3	1	0	3	0
43	924	1	10000	3	1	0	3	0
40	925	1	10000	3	1	0	3	0
39	926	1	10000	3	1	0	3	0
39	927	1	10000	3	1	0	3	0
39	928	1	10000	3	1	0	3	0
37	929	1	10000	3	1	0	3	0
37	930	1	10000	3	1	0	3	0
39	931	1	10000	3	1	0	3	0
38	932	1	10000	3	1	0	3	0
38	933	1	10000	3	1	0	3	0
39	934	1	10000	3	1	0	3	0
39	935	1	10000	3	1	0	3	0
39	936	1	10000	3	1	0	3	0
40	937	1	10000	3	1	0	3	0
41	938	1	10000	3	1	0	3	0
42	939	1	10000	3	1	0	3	0
41	940	1	10000	3	1	0	3	0
41	941	1	10000	3	1	0	3	0
43	942	1	10000	3	1	0	3	0
46	943	1	10000	3	1	0	3	0
47	944	1	10000	3	1	0	3	0
47	945	1	10000	3	1	0	3	0
48	946	1	10000	3	1	0	3	0
48	947	1	10000	3	1	0	3	0
47	948	1	10000	3	1	0	3	0
47	949	1	10000	3	1	0	3	0
48	950	1	10000	3	1	0	3	0
47	951	1	10000	3	1	0	3	0
46	952	1	10000	3	1	0	3	0
45	953	1	10000	3	1	0	3	0
44	954	1	10000	3	1	0	3	0
43	955	1	10000	3	1	0	3	0
43	956	1	10000	3	1	0	3	0
44	957	1	10000	3	1	0	3	0
45	958	1	10000	3	1	0	3	0
45	959	1	10000	3	1	0	3	0
46	960	1	10000	3	1	0	3	0
47	961	1	10000	3	1	0	3	0
46	962	1	10000	3	1	0	3	0
48	963	1	10000	3	1	0	3	0
48	964	1	10000	3	1	0	3	0
46	965	1	10000	3	1	0	3	0
44	966	1	10000	3	1	0	3	0
44	967	1	10000	3	1	0	3	0
43	968	1	10000	3	1	0	3	0
44	969	1	10000	3	1	0	3	0
44	970	1	10000	3	1	0	3	0
46	971	1	10000	3	1	0	3	0
46	972	1	10000	3	1	0	3	0
43	973	1	10000	3	1	0	3	0
42	974	1	10000	3	1	0	3	0
42	975	1	10000	3	1	0	3	0
41	976	1	10000	3	1	0	3	0
41	977	1	10000	3	1	0	3	0
40	978	1	10000	3	1	0	3	0
39	979	1	10000	3	1	0	3	0
41	980	1	10000	3	1	0	3	0
42	981	1	10000	3	1	0	3	0
41	982	1	10000	3	1	0	3	0
43	983	1	10000	3	1	0	3	0
43	984	1	10000	3	1	0	3	0
43	985	1	10000	3	1	0	3	0
41	986	1	10000	3	1	0	3	0
39	987	1	10000	3	1	0	3	0
39	988	1	10000	3	1	0	3	0
38	989	1	10000	3	1	0	3	0
38	990	1	10000	3	1	0	3	0
37	991	1	10000	3	1	0	3	0
36	992	1	10000	3	1	0	3	0
34	993	1	10000	3	1	0	3	0
34	994	1	10000	3	1	0	3	0
33	995	1	10000	3	1	0	3	0
33	996	1	10000	3	1	0	3	0
33	997	1	10000	3	1	0	3	0
33	998	1	10000	3	1	0	3	0
33	999	1	10000	3	1	0	3	0
33	1000	1	10000	3	1	0	3	0
34	1	0	10000	4	1	0	4	0
33	2	0	10000	4	1	0	4	0
31	3	0	10000	4	1	0	4	0
31	4	0	10000	4	1	0	4	0
31	5	0	10000	4	1	0	4	0
31	6	0	10000	4	1	0	4	0
30	7	0	10000	4	1	0	4	0
32	8	0	10000	4	1	0	4	0
32	9	0	10000	4	1	0	4	0
31	10	0	10000	4	1	0	4	0
31	11	0	10000	4	1	0	4	0
30	12	0	10000	4	1	0	4	0
32	13	0	10000	4	1	0	4	0
31	14	0	10000	4	1	0	4	0
31	15	0	10000	4	1	0	4	0
30	16	0	10000	4	1	0	4	0
31	17	0	10000	4	1	0	4	0
30	18	0	10000	4	1	0	4	0
29	19	0	10000	4	1	0	4	0
29	20	0	10000	4	1	0	4	0
28	21	0	10000	4	1	0	4	0
28	22	0	10000	4	1	0	4	0
26	23	0	10000	4	1	0	4	0
26	24	0	10000	4	1	0	4	0
26	25	0	10000	4	1	0	4	0
28	26	0	10000	4	1	0	4	0
28	27	0	10000	4	1	0	4	0
28	28	0	10000	4	1	0	4	0
30	29	0	10000	4	1	0	4	0
28	30	0	10000	4	1	0	4	0
28	31	0	10000	4	1	0	4	0
28	32	0	10000	4	1	0	4	0
30	33	0	10000	4	1	0	4	0
30	34	0	10000	4	1	0	4	0
31	35	0	10000	4	1	0	4	0
31	36	0	10000	4	1	0	4	0
32	37	0	10000	4	1	0	4	0
32	38	0	10000	4	1	0	4	0
32	39	0	10000	4	1	0	4	0
32	40	0	10000	4	1	0	4	0
33	41	0	10000	4	1	0	4	0
32	42	0	10000	4	1	0	4	0
31	43	0	10000	4	1	0	4	0
32	44	0	10000	4	1	0	4	0
31	45	0	10000	4	1	0	4	0
31	46	0	10000	4	1	0	4	0
32	47	0	10000	4	1	0	4	0
31	48	0	10000	4	1	0	4	0
32	49	0	10000	4	1	0	4	0
32	50	0	10000	4	1	0	4	0
31	51	0	10000	4	1	0	4	0
32	52	0	10000	4	1	0	4	0
33	53	0	10000	4	1	0	4	0
32	54	0	10000	4	1	0	4	0
32	55	0	10000	4	1	0	4	0
31	56	0	10000	4	1	0	4	0
30	57	0	10000	4	1	0	4	0
30	58	0	10000	4	1	0	4	0
30	59	0	10000	4	1	0	4	0
30	60	0	10000	4	1	0	4	0
31	61	0	10000	4	1	0	4	0
31	62	0	10000	4	1	0	4	0
28	63	0	10000	4	1	0	4	0
29	64	0	10000	4	1	0	4	0
29	65	0	10000	4	1	0	4	0
29	66	0	10000	4	1	0	4	0
30	67	0	10000	4	1	0	4	0
30	68	0	10000	4	1	0	4	0
29	69	0	10000	4	1	0	4	0
29	70	0	10000	4	1	0	4	0
30	71	0	10000	4	1	0	4	0
29	72	0	10000	4	1	0	4	0
31	73	0	10000	4	1	0	4	0
32	74	0	10000	4	1	0	4	0
31	75	0	10000	4	1	0	4	0
31	76	0	10000	4	1	0	4	0
31	77	0	10000	4	1	0	4	0
30	78	0	10000	4	1	0	4	0
31	79	0	10000	4	1	0	4	0
30	80	0	10000	4	1	0	4	0
30	81	0	10000	4	1	0	4	0
30	82	0	10000	4	1	0	4	0
29	83	0	10000	4	1	0	4	0
28	84	0	10000	4	1	0	4	0
28	85	0	10000	4	1	0	4	0
29	86	0	10000	4	1	0	4	0
29	87	0	10000	4	1	0	4	0
29	88	0	10000	4	1	0	4	0
29	89	0	10000	4	1	0	4	0
27	90	0	10000	4	1	0	4	0
28	91	0	10000	4	1	0	4	0
29	92	0	10000	4	1	0	4	0
30	93	0	10000	4	1	0	4	0
29	94	0	10000	4	1	0	4	0
29	95	0	10000	4	1	0	4	0
28	96	0	10000	4	1	0	4	0
28	97	0	10000	4	1	0	4	0
27	98	0	10000	4	1	0	4	0
27	99	0	10000	4	1	0	4	0
28	100	0	10000	4	1	0	4	0
29	101	0	10000	4	1	0	4	0
28	102	0	10000	4	1	0	4	0
27	103	0	10000	4	1	0	4	0
27	104	0	10000	4	1	0	4	0
27	105	0	10000	4	1	0	4	0
27	106	0	10000	4	1	0	4	0
27	107	0	10000	4	1	0	4	0
26	108	0	10000	4	1	0	4	0
28	109	0	10000	4	1	0	4	0
28	110	0	10000	4	1	0	4	0
27	111	0	10000	4	1	0	4	0
27	112	0	10000	4	1	0	4	0
28	113	0	10000	4	1	0	4	0
28	114	0	10000	4	1	0	4	0
28	115	0	10000	4	1	0	4	0
28	116	0	10000	4	1	0	4	0
28	117	0	10000	4	1	0	4	0
28	118	0	10000	4	1	0	4	0
27	119	0	10000	4	1	0	4	0
28	120	0	10000	4	1	0	4	0
28	121	0	10000	4	1	0	4	0
29	122	0	10000	4	1	0	4	0
26	123	0	10000	4	1	0	4	0
28	124	0	10000	4	1	0	4	0
28	125	0	10000	4	1	0	4	0
28	126	0	10000	4	1	0	4	0
27	127	0	10000	4	1	0	4	0
27	128	0	10000	4	1	0	4	0
26	129	0	10000	4	1	0	4	0
27	130	0	10000	4	1	0	4	0
26	131	0	10000	4	1	0	4	0
25	132	0	10000	4	1	0	4	0
27	133	0	10000	4	1	0	4	0
26	134	0	10000	4	1	0	4	0
26	135	0	10000	4	1	0	4	0
25	136	0	10000	4	1	0	4	0
25	137	0	10000	4	1	0	4	0
24	138	0	10000	4	1	0	4	0
24	139	0	10000	4	1	0	4	0
25	140	0	10000	4	1	0	4	0
25	141	0	10000	4	1	0	4	0
25	142	0	10000	4	1	0	4	0
23	143	0	10000	4	1	0	4	0
23	144	0	10000	4	1	0	4	0
24	145	0	10000	4	1	0	4	0
24	146	0	10000	4	1	0	4	0
24	147	0	10000	4	1	0	4	0
23	148	0	10000	4	1	0	4	0
24	149	0	10000	4	1	0	4	0
23	150	0	10000	4	1	0	4	0
22	151	0	10000	4	1	0	4	0
23	152	0	10000	4	1	0	4	0
24	153	0	10000	4	1	0	4	0
24	154	0	10000	4	1	0	4	0
23	155	0	10000	4	1	0	4	0
23	156	0	10000	4	1	0	4	0
23	157	0	10000	4	1	0	4	0
22	158	0	10000	4	1	0	4	0
22	159	0	10000	4	1	0	4	0
23	160	0	10000	4	1	0	4	0
23	161	0	10000	4	1	0	4	0
23	162	0	10000	4	1	0	4	0
21	163	0	10000	4	1	0	4	0
21	164	0	10000	4	1	0	4	0
21	165	0	10000	4	1	0	4	0
22	166	0	10000	4	1	0	4	0
21	167	0	10000	4	1	0	4	0
22	168	0	10000	4	1	0	4	0
21	169	0	10000	4	1	0	4	0
21	170	0	10000	4	1	0	4	0
20	171	0	10000	4	1	0	4	0
20	172	0	10000	4	1	0	4	0
22	173	0	10000	4	1	0	4	0
21	174	0	10000	4	1	0	4	0
20	175	0	10000	4	1	0	4	0
21	176	0	10000	4	1	0	4	0
20	177	0	10000	4	1	0	4	0
20	178	0	10000	4	1	0	4	0
20	179	0	10000	4	1	0	4	0
20	180	0	10000	4	1	0	4	0
20	181	0	10000	4	1	0	4	0
21	182	0	10000	4	1	0	4	0
18	183	0	10000	4	1	0	4	0
19	184	0	10000	4	1	0	4	0
18	185	0	10000	4	1	0	4	0
19	186	0	10000	4	1	0	4	0
20	187	0	10000	4	1	0	4	0
20	188	0	10000	4	1	0	4	0
20	189	0	10000	4	1	0	4	0
19	190	0	10000	4	1	0	4	0
19	191	0	10000	4	1	0	4	0
19	192	0	10000	4	1	0	4	0
21	193	0	10000	4	1	0	4	0
20	194	0	10000	4	1	0	4	0
20	195	0	10000	4	1	0	4	0
21	196	0	10000	4	1	0	4	0
21	197	0	10000	4	1	0	4	0
21	198	0	10000	4	1	0	4	0
20	199	0	10000	4	1	0	4	0
26	200	0	10000	4	1	0	4	0
28	201	0	10000	4	1	0	4	0
30	202	0	10000	4	1	0	4	0
32	203	0	10000	4	1	0	4	0
34	204	0	10000	4	1	0	4	0
37	205	0	10000	4	1	0	4	0
42	206	0	10000	4	1	0	4	0
42	207	0	10000	4	1	0	4	0
41	208	0	10000	4	1	0	4	0
41	209	0	10000	4	1	0	4	0
44	210	0	10000	4	1	0	4	0
45	211	0	10000	4	1	0	4	0
44	212	0	10000	4	1	0	4	0
45	213	0	10000	4	1	0	4	0
44	214	0	10000	4	1	0	4	0
45	215	0	10000	4	1	0	4	0
45	216	0	10000	4	1	0	4	0
46	217	0	10000	4	1	0	4	0
49	218	0	10000	4	1	0	4	0
50	219	0	10000	4	1	0	4	0
51	220	0	10000	4	1	0	4	0
54	221	0	10000	4	1	0	4	0
54	222	0	10000	4	1	0	4	0
51	223	0	10000	4	1	0	4	0
53	224	0	10000	4	1	0	4	0
53	225	0	10000	4	1	0	4	0
54	226	0	10000	4	1	0	4	0
56	227	0	10000	4	1	0	4	0
56	228	0	10000	4	1	0	4	0
56	229	0	10000	4	1	0	4	0
55	230	0	10000	4	1	0	4	0
53	231	0	10000	4	1	0	4	0
50	232	0	10000	4	1	0	4	0
51	233	0	10000	4	1	0	4	0
49	234	0	10000	4	1	0	4	0
47	235	0	10000	4	1	0	4	0
46	236	0	10000	4	1	0	4	0
44	237	0	10000	4	1	0	4	0
44	238	0	10000	4	1	0	4	0
42	239	0	10000	4	1	0	4	0
44	240	0	10000	4	1	0	4	0
44	241	0	10000	4	1	0	4	0
44	242	0	10000	4	1	0	4	0
44	243	0	10000	4	1	0	4	0
47	244	0	10000	4	1	0	4	0
48	245	0	10000	4	1	0	4	0
51	246	0	10000	4	1	0	4	0
52	247	0	10000	4	1	0	4	0
51	248	0	10000	4	1	0	4	0
52	249	0	10000	4	1	0	4	0
50	250	0	10000	4	1	0	4	0
50	251	0	10000	4	1	0	4	0
51	252	0	10000	4	1	0	4	0
54	253	0	10000	4	1	0	4	0
54	254	0	10000	4	1	0	4	0
54	255	0	10000	4	1	0	4	0
52	256	0	10000	4	1	0	4	0
51	257	0	10000	4	1	0	4	0
52	258	0	10000	4	1	0	4	0
50	259	0	10000	4	1	0	4	0
49	260	0	10000	4	1	0	4	0
50	261	0	10000	4	1	0	4	0
51	262	0	10000	4	1	0	4	0
49	263	0	10000	4	1	0	4	0
51	264	0	10000	4	1	0	4	0
50	265	0	10000	4	1	0	4	0
51	266	0	10000	4	1	0	4	0
53	267	0	10000	4	1	0	4	0
51	268	0	10000	4	1	0	4	0
51	269	0	10000	4	1	0	4	0
51	270	0	10000	4	1	0	4	0
50	271	0	10000	4	1	0	4	0
50	272	0	10000	4	1	0	4	0
53	273	0	10000	4	1	0	4	0
51	274	0	10000	4	1	0	4	0
50	275	0	10000	4	1	0	4	0
49	276	0	10000	4	1	0	4	0
47	277	0	10000	4	1	0	4	0
46	278	0	10000	4	1	0	4	0
45	279	0	10000	4	1	0	4	0
44	280	0	10000	4	1	0	4	0
44	281	0	10000	4	1	0	4	0
43	282	0	10000	4	1	0	4	0
40	283	0	10000	4	1	0	4	0
39	284	0	10000	4	1	0	4	0
38	285	0	10000	4	1	0	4	0
38	286	0	10000	4	1	0	4	0
37	287	0	10000	4	1	0	4	0
36	288	0	10000	4	1	0	4	0
37	289	0	10000	4	1	0	4	0
35	290	0	10000	4	1	0	4	0
35	291	0	10000	4	1	0	4	0
33	292	0	10000	4	1	0	4	0
36	293	0	10000	4	1	0	4	0
35	294	0	10000	4	1	0	4	0
34	295	0	10000	4	1	0	4	0
33	296	0	10000	4	1	0	4	0
33	297	0	10000	4	1	0	4	0
33	298	0	10000	4	1	0	4	0
32	299	0	10000	4	1	0	4	0
32	300	0	10000	4	1	0	4	0
31	301	0	10000	4	1	0	4	0
32	302	0	10000	4	1	0	4	0
30	303	0	10000	4	1	0	4	0
29	304	0	10000	4	1	0	4	0
30	305	0	10000	4	1	0	4	0
31	306	0	10000	4	1	0	4	0
31	307	0	10000	4	1	0	4	0
33	308	0	10000	4	1	0	4	0
34	309	0	10000	4	1	0	4	0
33	310	0	10000	4	1	0	4	0
32	311	0	10000	4	1	0	4	0
32	312	0	10000	4	1	0	4	0
35	313	0	10000	4	1	0	4	0
34	314	0	10000	4	1	0	4	0
32	315	0	10000	4	1	0	4	0
33	316	0	10000	4	1	0	4	0
32	317	0	10000	4	1	0	4	0
31	318	0	10000	4	1	0	4	0
31	319	0	10000	4	1	0	4	0
30	320	0	10000	4	1	0	4	0
30	321	0	10000	4	1	0	4	0
30	322	0	10000	4	1	0	4	0
30	323	0	10000	4	1	0	4	0
34	324	0	10000	4	1	0	4	0
36	325	0	10000	4	1	0	4	0
39	326	0	10000	4	1	0	4	0
39	327	0	10000	4	1	0	4	0
40	328	0	10000	4	1	0	4	0
40	329	0	10000	4	1	0	4	0
40	330	0	10000	4	1	0	4	0
40	331	0	10000	4	1	0	4	0
42	332	0	10000	4	1	0	4	0
44	333	0	10000	4	1	0	4	0
43	334	0	10000	4	1	0	4	0
41	335	0	10000	4	1	0	4	0
40	336	0	10000	4	1	0	4	0
40	337	0	10000	4	1	0	4	0
39	338	0	10000	4	1	0	4	0
38	339	0	10000	4	1	0	4	0
40	340	0	10000	4	1	0	4	0
41	341	0	10000	4	1	0	4	0
44	342	0	10000	4	1	0	4	0
44	343	0	10000	4	1	0	4	0
43	344	0	10000	4	1	0	4	0
41	345	0	10000	4	1	0	4	0
41	346	0	10000	4	1	0	4	0
42	347	0	10000	4	1	0	4	0
41	348	0	10000	4	1	0	4	0
40	349	0	10000	4	1	0	4	0
38	350	0	10000	4	1	0	4	0
40	351	0	10000	4	1	0	4	0
40	352	0	10000	4	1	0	4	0
40	353	0	10000	4	1	0	4	0
39	354	0	10000	4	1	0	4	0
39	355	0	10000	4	1	0	4	0
40	356	0	10000	4	1	0	4	0
39	357	0	10000	4	1	0	4	0
38	358	0	10000	4	1	0	4	0
38	359	0	10000	4	1	0	4	0
41	360	0	10000	4	1	0	4	0
44	361	0	10000	4	1	0	4	0
46	362	0	10000	4	1	0	4	0
45	363	0	10000	4	1	0	4	0
45	364	0	10000	4	1	0	4	0
44	365	0	10000	4	1	0	4	0
45	366	0	10000	4	1	0	4	0
44	367	0	10000	4	1	0	4	0
42	368	0	10000	4	1	0	4	0
42	369	0	10000	4	1	0	4	0
41	370	0	10000	4	1	0	4	0
40	371	0	10000	4	1	0	4	0
39	372	0	10000	4	1	0	4	0
40	373	0	10000	4	1	0	4	0
38	374	0	10000	4	1	0	4	0
37	375	0	10000	4	1	0	4	0
36	376	0	10000	4	1	0	4	0
34	377	0	10000	4	1	0	4	0
34	378	0	10000	4	1	0	4	0
33	379	0	10000	4	1	0	4	0
34	380	0	10000	4	1	0	4	0
33	381	0	10000	4	1	0	4	0
33	382	0	10000	4	1	0	4	0
32	383	0	10000	4	1	0	4	0
31	384	0	10000	4	1	0	4	0
31	385	0	10000	4	1	0	4	0
32	386	0	10000	4	1	0	4	0
31	387	0	10000	4	1	0	4	0
30	388	0	10000	4	1	0	4	0
29	389	0	10000	4	1	0	4	0
29	390	0	10000	4	1	0	4	0
28	391	0	10000	4	1	0	4	0
26	392	0	10000	4	1	0	4	0
29	393	0	10000	4	1	0	4	0
28	394	0	10000	4	1	0	4	0
27	395	0	10000	4	1	0	4	0
28	396	0	10000	4	1	0	4	0
27	397	0	10000	4	1	0	4	0
26	398	0	10000	4	1	0	4	0
25	399	0	10000	4	1	0	4	0
26	400	0	10000	4	1	0	4	0
27	401	0	10000	4	1	0	4	0
26	402	0	10000	4	1	0	4	0
23	403	0	10000	4	1	0	4	0
22	404	0	10000	4	1	0	4	0
23	405	0	10000	4	1	0	4	0
23	406	0	10000	4	1	0	4	0
23	407	0	10000	4	1	0	4	0
23	408	0	10000	4	1	0	4	0
23	409	0	10000	4	1	0	4	0
23	410	0	10000	4	1	0	4	0
23	411	0	10000	4	1	0	4	0
23	412	0	10000	4	1	0	4	0
25	413	0	10000	4	1	0	4	0
26	414	0	10000	4	1	0	4	0
24	415	0	10000	4	1	0	4	0
25	416	0	10000	4	1	0	4	0
27	417	0	10000	4	1	0	4	0
25	418	0	10000	4	1	0	4	0
25	419	0	10000	4	1	0	4	0
26	420	0	10000	4	1	0	4	0
26	421	0	10000	4	1	0	4	0
26	422	0	10000	4	1	0	4	0
24	423	0	10000	4	1	0	4	0
24	424	0	10000	4	1	0	4	0
24	425	0	10000	4	1	0	4	0
24	426	0	10000	4	1	0	4	0
23	427	0	10000	4	1	0	4	0
22	428	0	10000	4	1	0	4	0
24	429	0	10000	4	1	0	4	0
23	430	0	10000	4	1	0	4	0
22	431	0	10000	4	1	0	4	0
22	432	0	10000	4	1	0	4	0
24	433	0	10000	4	1	0	4	0
23	434	0	10000	4	1	0	4	0
23	435	0	10000	4	1	0	4	0
22	436	0	10000	4	1	0	4	0
22	437	0	10000	4	1	0	4	0
21	438	0	10000	4	1	0	4	0
20	439	0	10000	4	1	0	4	0
21	440	0	10000	4	1	0	4	0
21	441	0	10000	4	1	0	4	0
23	442	0	10000	4	1	0	4	0
21	443	0	10000	4	1	0	4	0
21	444	0	10000	4	1	0	4	0
21	445	0	10000	4	1	0	4	0
22	446	0	10000	4	1	0	4	0
22	447	0	10000	4	1	0	4	0
23	448	0	10000	4	1	0	4	0
24	449	0	10000	4	1	0	4	0
25	450	0	10000	4	1	0	4	0
26	451	0	10000	4	1	0	4	0
28	452	0	10000	4	1	0	4	0
31	453	0	10000	4	1	0	4	0
30	454	0	10000	4	1	0	4	0
29	455	0	10000	4	1	0	4	0
29	456	0	10000	4	1	0	4	0
28	457	0	10000	4	1	0	4	0
28	458	0	10000	4	1	0	4	0
27	459	0	10000	4	1	0	4	0
26	460	0	10000	4	1	0	4	0
27	461	0	10000	4	1	0	4	0
27	462	0	10000	4	1	0	4	0
24	463	0	10000	4	1	0	4	0
24	464	0	10000	4	1	0	4	0
24	465	0	10000	4	1	0	4	0
23	466	0	10000	4	1	0	4	0
24	467	0	10000	4	1	0	4	0
23	468	0	10000	4	1	0	4	0
23	469	0	10000	4	1	0	4	0
23	470	0	10000	4	1	0	4	0
22	471	0	10000	4	1	0	4	0
21	472	0	10000	4	1	0	4	0
24	473	0	10000	4	1	0	4	0
23	474	0	10000	4	1	0	4	0
24	475	0	10000	4	1	0	4	0
23	476	0	10000	4	1	0	4	0
22	477	0	10000	4	1	0	4	0
22	478	0	10000	4	1	0	4	0
22	479	0	10000	4	1	0	4	0
21	480	0	10000	4	1	0	4	0
21	481	0	10000	4	1	0	4	0
22	482	0	10000	4	1	0	4	0
22	483	0	10000	4	1	0	4	0
21	484	0	10000	4	1	0	4	0
21	485	0	10000	4	1	0	4	0
22	486	0	10000	4	1	0	4	0
21	487	0	10000	4	1	0	4	0
21	488	0	10000	4	1	0	4	0
20	489	0	10000	4	1	0	4	0
20	490	0	10000	4	1	0	4	0
21	491	0	10000	4	1	0	4	0
22	492	0	10000	4	1	0	4	0
26	493	0	10000	4	1	0	4	0
30	494	0	10000	4	1	0	4	0
29	495	0	10000	4	1	0	4	0
27	496	0	10000	4	1	0	4	0
27	497	0	10000	4	1	0	4	0
27	498	0	10000	4	1	0	4	0
27	499	0	10000	4	1	0	4	0
27	500	0	10000	4	1	0	4	0
27	501	0	10000	4	1	0	4	1
28	502	0	10000	4	1	0	4	1
26	503	0	10000	4	1	0	4	1
25	504	0	10000	4	1	0	4	1
25	505	0	10000	4	1	0	4	1
25	506	0	10000	4	1	0	4	1
27	507	0	10000	4	1	0	4	1
28	508	0	10000	4	1	0	4	1
29	509	0	10000	4	1	0	4	1
29	510	0	10000	4	1	0	4	1
28	511	0	10000	4	1	0	4	1
30	512	0	10000	4	1	0	4	1
34	513	0	10000	4	1	0	4	1
36	514	0	10000	4	1	0	4	1
39	515	0	10000	4	1	0	4	1
40	516	0	10000	4	1	0	4	1
38	517	0	10000	4	1	0	4	1
38	518	0	10000	4	1	0	4	1
37	519	0	10000	4	1	0	4	1
37	520	0	10000	4	1	0	4	1
37	521	0	10000	4	1	0	4	1
35	522	0	10000	4	1	0	4	1
34	523	0	10000	4	1	0	4	1
35	524	0	10000	4	1	0	4	1
34	525	0	10000	4	1	0	4	1
34	526	0	10000	4	1	0	4	1
33	527	0	10000	4	1	0	4	1
34	528	0	10000	4	1	0	4	1
33	529	0	10000	4	1	0	4	1
35	530	0	10000	4	1	0	4	1
38	531	0	10000	4	1	0	4	1
37	532	0	10000	4	1	0	4	1
38	533	0	10000	4	1	0	4	1
37	534	0	10000	4	1	0	4	1
38	535	0	10000	4	1	0	4	1
39	536	0	10000	4	1	0	4	1
41	537	0	10000	4	1	0	4	1
43	538	0	10000	4	1	0	4	1
42	539	0	10000	4	1	0	4	1
43	540	0	10000	4	1	0	4	1
45	541	0	10000	4	1	0	4	1
51	542	0	10000	4	1	0	4	1
54	543	0	10000	4	1	0	4	1
56	544	0	10000	4	1	0	4	1
60	545	0	10000	4	1	0	4	1
62	546	0	10000	4	1	0	4	1
61	547	0	10000	4	1	0	4	1
60	548	0	10000	4	1	0	4	1
59	549	0	10000	4	1	0	4	1
56	550	0	10000	4	1	0	4	1
56	551	0	10000	4	1	0	4	0
56	552	0	10000	4	1	0	4	0
56	553	0	10000	4	1	0	4	0
56	554	0	10000	4	1	0	4	0
53	555	0	10000	4	1	0	4	0
52	556	0	10000	4	1	0	4	0
50	557	0	10000	4	1	0	4	0
48	558	0	10000	4	1	0	4	0
47	559	0	10000	4	1	0	4	0
45	560	0	10000	4	1	0	4	0
44	561	0	10000	4	1	0	4	0
45	562	0	10000	4	1	0	4	0
41	563	0	10000	4	1	0	4	0
40	564	0	10000	4	1	0	4	0
40	565	0	10000	4	1	0	4	0
40	566	0	10000	4	1	0	4	0
39	567	0	10000	4	1	0	4	0
39	568	0	10000	4	1	0	4	0
39	569	0	10000	4	1	0	4	0
38	570	0	10000	4	1	0	4	0
37	571	0	10000	4	1	0	4	0
36	572	0	10000	4	1	0	4	0
36	573	0	10000	4	1	0	4	0
37	574	0	10000	4	1	0	4	0
36	575	0	10000	4	1	0	4	0
36	576	0	10000	4	1	0	4	0
36	577	0	10000	4	1	0	4	0
35	578	0	10000	4	1	0	4	0
34	579	0	10000	4	1	0	4	0
35	580	0	10000	4	1	0	4	0
34	581	0	10000	4	1	0	4	0
33	582	0	10000	4	1	0	4	0
32	583	0	10000	4	1	0	4	0
31	584	0	10000	4	1	0	4	0
31	585	0	10000	4	1	0	4	0
31	586	0	10000	4	1	0	4	0
30	587	0	10000	4	1	0	4	0
29	588	0	10000	4	1	0	4	0
29	589	0	10000	4	1	0	4	0
27	590	0	10000	4	1	0	4	0
28	591	0	10000	4	1	0	4	0
28	592	0	10000	4	1	0	4	0
28	593	0	10000	4	1	0	4	0
28	594	0	10000	4	1	0	4	0
27	595	0	10000	4	1	0	4	0
27	596	0	10000	4	1	0	4	0
26	597	0	10000	4	1	0	4	0
26	598	0	10000	4	1	0	4	0
27	599	0	10000	4	1	0	4	0
27	600	0	10000	4	1	0	4	0
28	601	0	10000	4	1	0	4	0
28	602	0	10000	4	1	0	4	0
27	603	0	10000	4	1	0	4	0
27	604	0	10000	4	1	0	4	0
27	605	0	10000	4	1	0	4	0
29	606	0	10000	4	1	0	4	0
32	607	0	10000	4	1	0	4	0
32	608	0	10000	4	1	0	4	0
31	609	0	10000	4	1	0	4	0
31	610	0	10000	4	1	0	4	0
34	611	0	10000	4	1	0	4	0
42	612	0	10000	4	1	0	4	0
46	613	0	10000	4	1	0	4	0
44	614	0	10000	4	1	0	4	0
52	615	0	10000	4	1	0	4	0
65	616	0	10000	4	1	0	4	0
80	617	0	10000	4	1	0	4	0
116	618	0	10000	4	1	0	4	0
134	619	0	10000	4	1	0	4	0
134	620	0	10000	4	1	0	4	0
134	621	0	10000	4	1	0	4	0
134	622	0	10000	4	1	0	4	0
144	623	0	10000	4	1	0	4	0
152	624	0	10000	4	1	0	4	0
152	625	0	10000	4	1	0	4	0
166	626	0	10000	4	1	0	4	0
178	627	0	10000	4	1	0	4	0
190	628	0	10000	4	1	0	4	0
196	629	0	10000	4	1	0	4	0
195	630	0	10000	4	1	0	4	0
191	631	0	10000	4	1	0	4	0
183	632	0	10000	4	1	0	4	0
179	633	0	10000	4	1	0	4	0
191	634	0	10000	4	1	0	4	0
218	635	0	10000	4	1	0	4	0
222	636	0	10000	4	1	0	4	0
221	637	0	10000	4	1	0	4	0
223	638	0	10000	4	1	0	4	0
217	639	0	10000	4	1	0	4	0
211	640	0	10000	4	1	0	4	0
211	641	0	10000	4	1	0	4	0
221	642	0	10000	4	1	0	4	0
226	643	0	10000	4	1	0	4	0
223	644	0	10000	4	1	0	4	0
218	645	0	10000	4	1	0	4	0
212	646	0	10000	4	1	0	4	0
203	647	0	10000	4	1	0	4	0
196	648	0	10000	4	1	0	4	0
192	649	0	10000	4	1	0	4	0
185	650	0	10000	4	1	0	4	0
182	651	0	10000	4	1	0	4	0
178	652	0	10000	4	1	0	4	0
179	653	0	10000	4	1	0	4	0
180	654	0	10000	4	1	0	4	0
178	655	0	10000	4	1	0	4	0
176	656	0	10000	4	1	0	4	0
174	657	0	10000	4	1	0	4	0
170	658	0	10000	4	1	0	4	0
167	659	0	10000	4	1	0	4	0
167	660	0	10000	4	1	0	4	0
168	661	0	10000	4	1	0	4	0
172	662	0	10000	4	1	0	4	0
174	663	0	10000	4	1	0	4	0
178	664	0	10000	4	1	0	4	0
183	665	0	10000	4	1	0	4	0
186	666	0	10000	4	1	0	4	0
184	667	0	10000	4	1	0	4	0
184	668	0	10000	4	1	0	4	0
181	669	0	10000	4	1	0	4	0
173	670	0	10000	4	1	0	4	0
165	671	0	10000	4	1	0	4	0
162	672	0	10000	4	1	0	4	0
161	673	0	10000	4	1	0	4	0
157	674	0	10000	4	1	0	4	0
152	675	0	10000	4	1	0	4	0
146	676	0	10000	4	1	0	4	0
140	677	0	10000	4	1	0	4	0
136	678	0	10000	4	1	0	4	0
134	679	0	10000	4	1	0	4	0
131	680	0	10000	4	1	0	4	0
131	681	0	10000	4	1	0	4	0
134	682	0	10000	4	1	0	4	0
134	683	0	10000	4	1	0	4	0
136	684	0	10000	4	1	0	4	0
140	685	0	10000	4	1	0	4	0
140	686	0	10000	4	1	0	4	0
142	687	0	10000	4	1	0	4	0
144	688	0	10000	4	1	0	4	0
143	689	0	10000	4	1	0	4	0
142	690	0	10000	4	1	0	4	0
141	691	0	10000	4	1	0	4	0
138	692	0	10000	4	1	0	4	0
140	693	0	10000	4	1	0	4	0
144	694	0	10000	4	1	0	4	0
147	695	0	10000	4	1	0	4	0
154	696	0	10000	4	1	0	4	0
171	697	0	10000	4	1	0	4	0
181	698	0	10000	4	1	0	4	0
183	699	0	10000	4	1	0	4	0
186	700	0	10000	4	1	0	4	0
188	701	0	10000	4	1	0	4	0
192	702	0	10000	4	1	0	4	0
196	703	0	10000	4	1	0	4	0
199	704	0	10000	4	1	0	4	0
202	705	0	10000	4	1	0	4	0
205	706	0	10000	4	1	0	4	0
205	707	0	10000	4	1	0	4	0
206	708	0	10000	4	1	0	4	0
208	709	0	10000	4	1	0	4	0
206	710	0	10000	4	1	0	4	0
207	711	0	10000	4	1	0	4	0
208	712	0	10000	4	1	0	4	0
209	713	0	10000	4	1	0	4	0
210	714	0	10000	4	1	0	4	0
209	715	0	10000	4	1	0	4	0
207	716	0	10000	4	1	0	4	0
205	717	0	10000	4	1	0	4	0
205	718	0	10000	4	1	0	4	0
202	719	0	10000	4	1	0	4	0
201	720	0	10000	4	1	0	4	0
199	721	0	10000	4	1	0	4	0
194	722	0	10000	4	1	0	4	0
188	723	0	10000	4	1	0	4	0
184	724	0	10000	4	1	0	4	0
178	725	0	10000	4	1	0	4	0
173	726	0	10000	4	1	0	4	0
168	727	0	10000	4	1	0	4	0
162	728	0	10000	4	1	0	4	0
157	729	0	10000	4	1	0	4	0
151	730	0	10000	4	1	0	4	0
145	731	0	10000	4	1	0	4	0
138	732	0	10000	4	1	0	4	0
135	733	0	10000	4	1	0	4	0
129	734	0	10000	4	1	0	4	0
125	735	0	10000	4	1	0	4	0
121	736	0	10000	4	1	0	4	0
116	737	0	10000	4	1	0	4	0
112	738	0	10000	4	1	0	4	0
109	739	0	10000	4	1	0	4	0
104	740	0	10000	4	1	0	4	0
101	741	0	10000	4	1	0	4	0
98	742	0	10000	4	1	0	4	0
93	743	0	10000	4	1	0	4	0
89	744	0	10000	4	1	0	4	0
87	745	0	10000	4	1	0	4	0
87	746	0	10000	4	1	0	4	0
87	747	0	10000	4	1	0	4	0
86	748	0	10000	4	1	0	4	0
86	749	0	10000	4	1	0	4	0
84	750	0	10000	4	1	0	4	0
82	751	0	10000	4	1	0	4	0
83	752	0	10000	4	1	0	4	0
83	753	0	10000	4	1	0	4	0
82	754	0	10000	4	1	0	4	0
82	755	0	10000	4	1	0	4	0
78	756	0	10000	4	1	0	4	0
75	757	0	10000	4	1	0	4	0
74	758	0	10000	4	1	0	4	0
71	759	0	10000	4	1	0	4	0
70	760	0	10000	4	1	0	4	0
71	761	0	10000	4	1	0	4	0
70	762	0	10000	4	1	0	4	0
67	763	0	10000	4	1	0	4	0
67	764	0	10000	4	1	0	4	0
66	765	0	10000	4	1	0	4	0
67	766	0	10000	4	1	0	4	0
68	767	0	10000	4	1	0	4	0
67	768	0	10000	4	1	0	4	0
67	769	0	10000	4	1	0	4	0
69	770	0	10000	4	1	0	4	0
70	771	0	10000	4	1	0	4	0
71	772	0	10000	4	1	0	4	0
74	773	0	10000	4	1	0	4	0
73	774	0	10000	4	1	0	4	0
69	775	0	10000	4	1	0	4	0
67	776	0	10000	4	1	0	4	0
64	777	0	10000	4	1	0	4	0
62	778	0	10000	4	1	0	4	0
62	779	0	10000	4	1	0	4	0
61	780	0	10000	4	1	0	4	0
62	781	0	10000	4	1	0	4	0
67	782	0	10000	4	1	0	4	0
65	783	0	10000	4	1	0	4	0
66	784	0	10000	4	1	0	4	0
71	785	0	10000	4	1	0	4	0
73	786	0	10000	4	1	0	4	0
75	787	0	10000	4	1	0	4	0
78	788	0	10000	4	1	0	4	0
76	789	0	10000	4	1	0	4	0
74	790	0	10000	4	1	0	4	0
78	791	0	10000	4	1	0	4	0
85	792	0	10000	4	1	0	4	0
91	793	0	10000	4	1	0	4	0
92	794	0	10000	4	1	0	4	0
88	795	0	10000	4	1	0	4	0
87	796	0	10000	4	1	0	4	0
89	797	0	10000	4	1	0	4	0
96	798	0	10000	4	1	0	4	0
98	799	0	10000	4	1	0	4	0
95	800	0	10000	4	1	0	4	0
95	801	0	10000	4	1	0	4	0
95	802	0	10000	4	1	0	4	0
93	803	0	10000	4	1	0	4	0
97	804	0	10000	4	1	0	4	0
107	805	0	10000	4	1	0	4	0
115	806	0	10000	4	1	0	4	0
117	807	0	10000	4	1	0	4	0
116	808	0	10000	4	1	0	4	0
122	809	0	10000	4	1	0	4	0
123	810	0	10000	4	1	0	4	0
125	811	0	10000	4	1	0	4	0
129	812	0	10000	4	1	0	4	0
139	813	0	10000	4	1	0	4	0
148	814	0	10000	4	1	0	4	0
153	815	0	10000	4	1	0	4	0
153	816	0	10000	4	1	0	4	0
155	817	0	10000	4	1	0	4	0
155	818	0	10000	4	1	0	4	0
150	819	0	10000	4	1	0	4	0
144	820	0	10000	4	1	0	4	0
139	821	0	10000	4	1	0	4	0
139	822	0	10000	4	1	0	4	0
143	823	0	10000	4	1	0	4	0
152	824	0	10000	4	1	0	4	0
162	825	0	10000	4	1	0	4	0
171	826	0	10000	4	1	0	4	0
181	827	0	10000	4	1	0	4	0
187	828	0	10000	4	1	0	4	0
190	829	0	10000	4	1	0	4	0
189	830	0	10000	4	1	0	4	0
186	831	0	10000	4	1	0	4	0
189	832	0	10000	4	1	0	4	0
196	833	0	10000	4	1	0	4	0
206	834	0	10000	4	1	0	4	0
219	835	0	10000	4	1	0	4	0
229	836	0	10000	4	1	0	4	0
227	837	0	10000	4	1	0	4	0
225	838	0	10000	4	1	0	4	0
219	839	0	10000	4	1	0	4	0
209	840	0	10000	4	1	0	4	0
201	841	0	10000	4	1	0	4	0
195	842	0	10000	4	1	0	4	0
191	843	0	10000	4	1	0	4	0
188	844	0	10000	4	1	0	4	0
187	845	0	10000	4	1	0	4	0
193	846	0	10000	4	1	0	4	0
211	847	0	10000	4	1	0	4	0
225	848	0	10000	4	1	0	4	0
236	849	0	10000	4	1	0	4	0
241	850	0	10000	4	1	0	4	0
233	851	0	10000	4	1	0	4	0
223	852	0	10000	4	1	0	4	0
215	853	0	10000	4	1	0	4	0
210	854	0	10000	4	1	0	4	0
205	855	0	10000	4	1	0	4	0
197	856	0	10000	4	1	0	4	0
188	857	0	10000	4	1	0	4	0
180	858	0	10000	4	1	0	4	0
179	859	0	10000	4	1	0	4	0
179	860	0	10000	4	1	0	4	0
174	861	0	10000	4	1	0	4	0
167	862	0	10000	4	1	0	4	0
159	863	0	10000	4	1	0	4	0
153	864	0	10000	4	1	0	4	0
152	865	0	10000	4	1	0	4	0
150	866	0	10000	4	1	0	4	0
146	867	0	10000	4	1	0	4	0
143	868	0	10000	4	1	0	4	0
138	869	0	10000	4	1	0	4	0
132	870	0	10000	4	1	0	4	0
130	871	0	10000	4	1	0	4	0
124	872	0	10000	4	1	0	4	0
122	873	0	10000	4	1	0	4	0
123	874	0	10000	4	1	0	4	0
121	875	0	10000	4	1	0	4	0
118	876	0	10000	4	1	0	4	0
114	877	0	10000	4	1	0	4	0
111	878	0	10000	4	1	0	4	0
109	879	0	10000	4	1	0	4	0
105	880	0	10000	4	1	0	4	0
106	881	0	10000	4	1	0	4	0
109	882	0	10000	4	1	0	4	0
108	883	0	10000	4	1	0	4	0
108	884	0	10000	4	1	0	4	0
111	885	0	10000	4	1	0	4	0
113	886	0	10000	4	1	0	4	0
119	887	0	10000	4	1	0	4	0
127	888	0	10000	4	1	0	4	0
131	889	0	10000	4	1	0	4	0
139	890	0	10000	4	1	0	4	0
147	891	0	10000	4	1	0	4	0
152	892	0	10000	4	1	0	4	0
163	893	0	10000	4	1	0	4	0
172	894	0	10000	4	1	0	4	0
179	895	0	10000	4	1	0	4	0
189	896	0	10000	4	1	0	4	0
200	897	0	10000	4	1	0	4	0
209	898	0	10000	4	1	0	4	0
223	899	0	10000	4	1	0	4	0
235	900	0	10000	4	1	0	4	0
241	901	0	10000	4	1	0	4	0
246	902	0	10000	4	1	0	4	0
250	903	0	10000	4	1	0	4	0
253	904	0	10000	4	1	0	4	0
258	905	0	10000	4	1	0	4	0
263	906	0	10000	4	1	0	4	0
265	907	0	10000	4	1	0	4	0
269	908	0	10000	4	1	0	4	0
275	909	0	10000	4	1	0	4	0
278	910	0	10000	4	1	0	4	0
283	911	0	10000	4	1	0	4	0
288	912	0	10000	4	1	0	4	0
292	913	0	10000	4	1	0	4	0
299	914	0	10000	4	1	0	4	0
303	915	0	10000	4	1	0	4	0
307	916	0	10000	4	1	0	4	0
310	917	0	10000	4	1	0	4	0
312	918	0	10000	4	1	0	4	0
308	919	0	10000	4	1	0	4	0
303	920	0	10000	4	1	0	4	0
298	921	0	10000	4	1	0	4	0
294	922	0	10000	4	1	0	4	0
291	923	0	10000	4	1	0	4	0
289	924	0	10000	4	1	0	4	0
289	925	0	10000	4	1	0	4	0
289	926	0	10000	4	1	0	4	0
287	927	0	10000	4	1	0	4	0
283	928	0	10000	4	1	0	4	0
280	929	0	10000	4	1	0	4	0
276	930	0	10000	4	1	0	4	0
270	931	0	10000	4	1	0	4	0
264	932	0	10000	4	1	0	4	0
260	933	0	10000	4	1	0	4	0
253	934	0	10000	4	1	0	4	0
249	935	0	10000	4	1	0	4	0
244	936	0	10000	4	1	0	4	0
237	937	0	10000	4	1	0	4	0
234	938	0	10000	4	1	0	4	0
228	939	0	10000	4	1	0	4	0
223	940	0	10000	4	1	0	4	0
220	941	0	10000	4	1	0	4	0
213	942	0	10000	4	1	0	4	0
203	943	0	10000	4	1	0	4	0
195	944	0	10000	4	1	0	4	0
189	945	0	10000	4	1	0	4	0
183	946	0	10000	4	1	0	4	0
179	947	0	10000	4	1	0	4	0
175	948	0	10000	4	1	0	4	0
170	949	0	10000	4	1	0	4	0
163	950	0	10000	4	1	0	4	0
158	951	0	10000	4	1	0	4	0
153	952	0	10000	4	1	0	4	0
151	953	0	10000	4	1	0	4	0
150	954	0	10000	4	1	0	4	0
148	955	0	10000	4	1	0	4	0
149	956	0	10000	4	1	0	4	0
150	957	0	10000	4	1	0	4	0
151	958	0	10000	4	1	0	4	0
152	959	0	10000	4	1	0	4	0
152	960	0	10000	4	1	0	4	0
150	961	0	10000	4	1	0	4	0
150	962	0	10000	4	1	0	4	0
148	963	0	10000	4	1	0	4	0
144	964	0	10000	4	1	0	4	0
145	965	0	10000	4	1	0	4	0
143	966	0	10000	4	1	0	4	0
140	967	0	10000	4	1	0	4	0
140	968	0	10000	4	1	0	4	0
139	969	0	10000	4	1	0	4	0
139	970	0	10000	4	1	0	4	0
137	971	0	10000	4	1	0	4	0
132	972	0	10000	4	1	0	4	0
130	973	0	10000	4	1	0	4	0
128	974	0	10000	4	1	0	4	0
123	975	0	10000	4	1	0	4	0
118	976	0	10000	4	1	0	4	0
113	977	0	10000	4	1	0	4	0
109	978	0	10000	4	1	0	4	0
105	979	0	10000	4	1	0	4	0
101	980	0	10000	4	1	0	4	0
98	981	0	10000	4	1	0	4	0
96	982	0	10000	4	1	0	4	0
92	983	0	10000	4	1	0	4	0
90	984	0	10000	4	1	0	4	0
87	985	0	10000	4	1	0	4	0
83	986	0	10000	4	1	0	4	0
81	987	0	10000	4	1	0	4	0
78	988	0	10000	4	1	0	4	0
75	989	0	10000	4	1	0	4	0
74	990	0	10000	4	1	0	4	0
71	991	0	10000	4	1	0	4	0
69	992	0	10000	4	1	0	4	0
71	993	0	10000	4	1	0	4	0
72	994	0	10000	4	1	0	4	0
72	995	0	10000	4	1	0	4	0
75	996	0	10000	4	1	0	4	0
77	997	0	10000	4	1	0	4	0
79	998	0	10000	4	1	0	4	0
81	999	0	10000	4	1	0	4	0
82	1000	0	10000	4	1	0	4	0
22	2	0	10000	5	1	0	5	0
22	3	0	10000	5	1	0	5	0
21	4	0	10000	5	1	0	5	0
21	5	0	10000	5	1	0	5	0
21	6	0	10000	5	1	0	5	0
21	7	0	10000	5	1	0	5	0
21	8	0	10000	5	1	0	5	0
21	9	0	10000	5	1	0	5	0
20	10	0	10000	5	1	0	5	0
20	11	0	10000	5	1	0	5	0
18	12	0	10000	5	1	0	5	0
19	13	0	10000	5	1	0	5	0
19	14	0	10000	5	1	0	5	0
20	15	0	10000	5	1	0	5	0
20	16	0	10000	5	1	0	5	0
20	17	0	10000	5	1	0	5	0
20	18	0	10000	5	1	0	5	0
19	19	0	10000	5	1	0	5	0
18	20	0	10000	5	1	0	5	0
20	21	0	10000	5	1	0	5	0
20	22	0	10000	5	1	0	5	0
21	23	0	10000	5	1	0	5	0
21	24	0	10000	5	1	0	5	0
20	25	0	10000	5	1	0	5	0
21	26	0	10000	5	1	0	5	0
20	27	0	10000	5	1	0	5	0
20	28	0	10000	5	1	0	5	0
20	29	0	10000	5	1	0	5	0
20	30	0	10000	5	1	0	5	0
19	31	0	10000	5	1	0	5	0
18	32	0	10000	5	1	0	5	0
20	33	0	10000	5	1	0	5	0
20	34	0	10000	5	1	0	5	0
20	35	0	10000	5	1	0	5	0
20	36	0	10000	5	1	0	5	0
20	37	0	10000	5	1	0	5	0
20	38	0	10000	5	1	0	5	0
19	39	0	10000	5	1	0	5	0
19	40	0	10000	5	1	0	5	0
20	41	0	10000	5	1	0	5	0
23	42	0	10000	5	1	0	5	0
22	43	0	10000	5	1	0	5	0
21	44	0	10000	5	1	0	5	0
21	45	0	10000	5	1	0	5	0
21	46	0	10000	5	1	0	5	0
21	47	0	10000	5	1	0	5	0
20	48	0	10000	5	1	0	5	0
21	49	0	10000	5	1	0	5	0
21	50	0	10000	5	1	0	5	0
20	51	0	10000	5	1	0	5	0
19	52	0	10000	5	1	0	5	0
20	53	0	10000	5	1	0	5	0
19	54	0	10000	5	1	0	5	0
19	55	0	10000	5	1	0	5	0
20	56	0	10000	5	1	0	5	0
21	57	0	10000	5	1	0	5	0
21	58	0	10000	5	1	0	5	0
20	59	0	10000	5	1	0	5	0
19	60	0	10000	5	1	0	5	0
20	61	0	10000	5	1	0	5	0
22	62	0	10000	5	1	0	5	0
21	63	0	10000	5	1	0	5	0
21	64	0	10000	5	1	0	5	0
20	65	0	10000	5	1	0	5	0
20	66	0	10000	5	1	0	5	0
20	67	0	10000	5	1	0	5	0
20	68	0	10000	5	1	0	5	0
20	69	0	10000	5	1	0	5	0
20	70	0	10000	5	1	0	5	0
21	71	0	10000	5	1	0	5	0
20	72	0	10000	5	1	0	5	0
20	73	0	10000	5	1	0	5	0
20	74	0	10000	5	1	0	5	0
22	75	0	10000	5	1	0	5	0
21	76	0	10000	5	1	0	5	0
22	77	0	10000	5	1	0	5	0
21	78	0	10000	5	1	0	5	0
20	79	0	10000	5	1	0	5	0
20	80	0	10000	5	1	0	5	0
23	81	0	10000	5	1	0	5	0
24	82	0	10000	5	1	0	5	0
24	83	0	10000	5	1	0	5	0
24	84	0	10000	5	1	0	5	0
24	85	0	10000	5	1	0	5	0
23	86	0	10000	5	1	0	5	0
22	87	0	10000	5	1	0	5	0
24	88	0	10000	5	1	0	5	0
24	89	0	10000	5	1	0	5	0
24	90	0	10000	5	1	0	5	0
23	91	0	10000	5	1	0	5	0
22	92	0	10000	5	1	0	5	0
23	93	0	10000	5	1	0	5	0
22	94	0	10000	5	1	0	5	0
22	95	0	10000	5	1	0	5	0
22	96	0	10000	5	1	0	5	0
22	97	0	10000	5	1	0	5	0
22	98	0	10000	5	1	0	5	0
22	99	0	10000	5	1	0	5	0
21	100	0	10000	5	1	0	5	0
23	101	0	10000	5	1	0	5	0
23	102	0	10000	5	1	0	5	0
22	103	0	10000	5	1	0	5	0
22	104	0	10000	5	1	0	5	0
21	105	0	10000	5	1	0	5	0
21	106	0	10000	5	1	0	5	0
22	107	0	10000	5	1	0	5	0
21	108	0	10000	5	1	0	5	0
21	109	0	10000	5	1	0	5	0
21	110	0	10000	5	1	0	5	0
20	111	0	10000	5	1	0	5	0
20	112	0	10000	5	1	0	5	0
20	113	0	10000	5	1	0	5	0
19	114	0	10000	5	1	0	5	0
20	115	0	10000	5	1	0	5	0
21	116	0	10000	5	1	0	5	0
20	117	0	10000	5	1	0	5	0
20	118	0	10000	5	1	0	5	0
20	119	0	10000	5	1	0	5	0
20	120	0	10000	5	1	0	5	0
20	121	0	10000	5	1	0	5	0
22	122	0	10000	5	1	0	5	0
20	123	0	10000	5	1	0	5	0
20	124	0	10000	5	1	0	5	0
20	125	0	10000	5	1	0	5	0
20	126	0	10000	5	1	0	5	0
19	127	0	10000	5	1	0	5	0
20	128	0	10000	5	1	0	5	0
19	129	0	10000	5	1	0	5	0
20	130	0	10000	5	1	0	5	0
19	131	0	10000	5	1	0	5	0
17	132	0	10000	5	1	0	5	0
18	133	0	10000	5	1	0	5	0
18	134	0	10000	5	1	0	5	0
20	135	0	10000	5	1	0	5	0
19	136	0	10000	5	1	0	5	0
19	137	0	10000	5	1	0	5	0
18	138	0	10000	5	1	0	5	0
18	139	0	10000	5	1	0	5	0
18	140	0	10000	5	1	0	5	0
19	141	0	10000	5	1	0	5	0
20	142	0	10000	5	1	0	5	0
19	143	0	10000	5	1	0	5	0
19	144	0	10000	5	1	0	5	0
19	145	0	10000	5	1	0	5	0
19	146	0	10000	5	1	0	5	0
19	147	0	10000	5	1	0	5	0
19	148	0	10000	5	1	0	5	0
20	149	0	10000	5	1	0	5	0
20	150	0	10000	5	1	0	5	0
20	151	0	10000	5	1	0	5	0
19	152	0	10000	5	1	0	5	0
19	153	0	10000	5	1	0	5	0
19	154	0	10000	5	1	0	5	0
20	155	0	10000	5	1	0	5	0
20	156	0	10000	5	1	0	5	0
20	157	0	10000	5	1	0	5	0
19	158	0	10000	5	1	0	5	0
19	159	0	10000	5	1	0	5	0
19	160	0	10000	5	1	0	5	0
20	161	0	10000	5	1	0	5	0
21	162	0	10000	5	1	0	5	0
21	163	0	10000	5	1	0	5	0
20	164	0	10000	5	1	0	5	0
20	165	0	10000	5	1	0	5	0
20	166	0	10000	5	1	0	5	0
20	167	0	10000	5	1	0	5	0
20	168	0	10000	5	1	0	5	0
20	169	0	10000	5	1	0	5	0
20	170	0	10000	5	1	0	5	0
20	171	0	10000	5	1	0	5	0
18	172	0	10000	5	1	0	5	0
18	173	0	10000	5	1	0	5	0
19	174	0	10000	5	1	0	5	0
20	175	0	10000	5	1	0	5	0
20	176	0	10000	5	1	0	5	0
20	177	0	10000	5	1	0	5	0
20	178	0	10000	5	1	0	5	0
20	179	0	10000	5	1	0	5	0
19	180	0	10000	5	1	0	5	0
19	181	0	10000	5	1	0	5	0
21	182	0	10000	5	1	0	5	0
20	183	0	10000	5	1	0	5	0
21	184	0	10000	5	1	0	5	0
21	185	0	10000	5	1	0	5	0
21	186	0	10000	5	1	0	5	0
21	187	0	10000	5	1	0	5	0
21	188	0	10000	5	1	0	5	0
21	189	0	10000	5	1	0	5	0
21	190	0	10000	5	1	0	5	0
20	191	0	10000	5	1	0	5	0
20	192	0	10000	5	1	0	5	0
20	193	0	10000	5	1	0	5	0
21	194	0	10000	5	1	0	5	0
20	195	0	10000	5	1	0	5	0
20	196	0	10000	5	1	0	5	0
21	197	0	10000	5	1	0	5	0
20	198	0	10000	5	1	0	5	0
20	199	0	10000	5	1	0	5	0
20	200	0	10000	5	1	0	5	0
21	201	0	10000	5	1	0	5	0
22	202	0	10000	5	1	0	5	0
21	203	0	10000	5	1	0	5	0
20	204	0	10000	5	1	0	5	0
20	205	0	10000	5	1	0	5	0
20	206	0	10000	5	1	0	5	0
20	207	0	10000	5	1	0	5	0
20	208	0	10000	5	1	0	5	0
21	209	0	10000	5	1	0	5	0
21	210	0	10000	5	1	0	5	0
20	211	0	10000	5	1	0	5	0
19	212	0	10000	5	1	0	5	0
19	213	0	10000	5	1	0	5	0
20	214	0	10000	5	1	0	5	0
20	215	0	10000	5	1	0	5	0
19	216	0	10000	5	1	0	5	0
20	217	0	10000	5	1	0	5	0
19	218	0	10000	5	1	0	5	0
18	219	0	10000	5	1	0	5	0
19	220	0	10000	5	1	0	5	0
19	221	0	10000	5	1	0	5	0
21	222	0	10000	5	1	0	5	0
20	223	0	10000	5	1	0	5	0
20	224	0	10000	5	1	0	5	0
21	225	0	10000	5	1	0	5	0
20	226	0	10000	5	1	0	5	0
21	227	0	10000	5	1	0	5	0
22	228	0	10000	5	1	0	5	0
22	229	0	10000	5	1	0	5	0
21	230	0	10000	5	1	0	5	0
21	231	0	10000	5	1	0	5	0
20	232	0	10000	5	1	0	5	0
21	233	0	10000	5	1	0	5	0
22	234	0	10000	5	1	0	5	0
22	235	0	10000	5	1	0	5	0
22	236	0	10000	5	1	0	5	0
22	237	0	10000	5	1	0	5	0
21	238	0	10000	5	1	0	5	0
21	239	0	10000	5	1	0	5	0
20	240	0	10000	5	1	0	5	0
21	241	0	10000	5	1	0	5	0
22	242	0	10000	5	1	0	5	0
22	243	0	10000	5	1	0	5	0
23	244	0	10000	5	1	0	5	0
23	245	0	10000	5	1	0	5	0
23	246	0	10000	5	1	0	5	0
22	247	0	10000	5	1	0	5	0
22	248	0	10000	5	1	0	5	0
23	249	0	10000	5	1	0	5	0
24	250	0	10000	5	1	0	5	0
23	251	0	10000	5	1	0	5	0
22	252	0	10000	5	1	0	5	0
21	253	0	10000	5	1	0	5	0
20	254	0	10000	5	1	0	5	0
22	255	0	10000	5	1	0	5	0
20	256	0	10000	5	1	0	5	0
20	257	0	10000	5	1	0	5	0
22	258	0	10000	5	1	0	5	0
21	259	0	10000	5	1	0	5	0
20	260	0	10000	5	1	0	5	0
21	261	0	10000	5	1	0	5	0
22	262	0	10000	5	1	0	5	0
22	263	0	10000	5	1	0	5	0
22	264	0	10000	5	1	0	5	0
21	265	0	10000	5	1	0	5	0
22	266	0	10000	5	1	0	5	0
22	267	0	10000	5	1	0	5	0
21	268	0	10000	5	1	0	5	0
23	269	0	10000	5	1	0	5	0
23	270	0	10000	5	1	0	5	0
23	271	0	10000	5	1	0	5	0
21	272	0	10000	5	1	0	5	0
21	273	0	10000	5	1	0	5	0
22	274	0	10000	5	1	0	5	0
22	275	0	10000	5	1	0	5	0
21	276	0	10000	5	1	0	5	0
21	277	0	10000	5	1	0	5	0
21	278	0	10000	5	1	0	5	0
21	279	0	10000	5	1	0	5	0
21	280	0	10000	5	1	0	5	0
22	281	0	10000	5	1	0	5	0
24	282	0	10000	5	1	0	5	0
24	283	0	10000	5	1	0	5	0
24	284	0	10000	5	1	0	5	0
23	285	0	10000	5	1	0	5	0
23	286	0	10000	5	1	0	5	0
24	287	0	10000	5	1	0	5	0
23	288	0	10000	5	1	0	5	0
23	289	0	10000	5	1	0	5	0
24	290	0	10000	5	1	0	5	0
22	291	0	10000	5	1	0	5	0
21	292	0	10000	5	1	0	5	0
21	293	0	10000	5	1	0	5	0
21	294	0	10000	5	1	0	5	0
21	295	0	10000	5	1	0	5	0
21	296	0	10000	5	1	0	5	0
21	297	0	10000	5	1	0	5	0
22	298	0	10000	5	1	0	5	0
20	299	0	10000	5	1	0	5	0
21	300	0	10000	5	1	0	5	0
21	301	0	10000	5	1	0	5	0
23	302	0	10000	5	1	0	5	0
23	303	0	10000	5	1	0	5	0
23	304	0	10000	5	1	0	5	0
22	305	0	10000	5	1	0	5	0
21	306	0	10000	5	1	0	5	0
21	307	0	10000	5	1	0	5	0
21	308	0	10000	5	1	0	5	0
22	309	0	10000	5	1	0	5	0
22	310	0	10000	5	1	0	5	0
21	311	0	10000	5	1	0	5	0
21	312	0	10000	5	1	0	5	0
21	313	0	10000	5	1	0	5	0
21	314	0	10000	5	1	0	5	0
21	315	0	10000	5	1	0	5	0
21	316	0	10000	5	1	0	5	0
21	317	0	10000	5	1	0	5	0
20	318	0	10000	5	1	0	5	0
20	319	0	10000	5	1	0	5	0
18	320	0	10000	5	1	0	5	0
20	321	0	10000	5	1	0	5	0
22	322	0	10000	5	1	0	5	0
20	323	0	10000	5	1	0	5	0
20	324	0	10000	5	1	0	5	0
20	325	0	10000	5	1	0	5	0
20	326	0	10000	5	1	0	5	0
20	327	0	10000	5	1	0	5	0
20	328	0	10000	5	1	0	5	0
20	329	0	10000	5	1	0	5	0
20	330	0	10000	5	1	0	5	0
20	331	0	10000	5	1	0	5	0
19	332	0	10000	5	1	0	5	0
20	333	0	10000	5	1	0	5	0
19	334	0	10000	5	1	0	5	0
20	335	0	10000	5	1	0	5	0
19	336	0	10000	5	1	0	5	0
19	337	0	10000	5	1	0	5	0
20	338	0	10000	5	1	0	5	0
19	339	0	10000	5	1	0	5	0
18	340	0	10000	5	1	0	5	0
19	341	0	10000	5	1	0	5	0
20	342	0	10000	5	1	0	5	0
20	343	0	10000	5	1	0	5	0
21	344	0	10000	5	1	0	5	0
20	345	0	10000	5	1	0	5	0
20	346	0	10000	5	1	0	5	0
20	347	0	10000	5	1	0	5	0
20	348	0	10000	5	1	0	5	0
20	349	0	10000	5	1	0	5	0
20	350	0	10000	5	1	0	5	0
19	351	0	10000	5	1	0	5	0
19	352	0	10000	5	1	0	5	0
18	353	0	10000	5	1	0	5	0
19	354	0	10000	5	1	0	5	0
20	355	0	10000	5	1	0	5	0
20	356	0	10000	5	1	0	5	0
20	357	0	10000	5	1	0	5	0
19	358	0	10000	5	1	0	5	0
20	359	0	10000	5	1	0	5	0
19	360	0	10000	5	1	0	5	0
19	361	0	10000	5	1	0	5	0
20	362	0	10000	5	1	0	5	0
20	363	0	10000	5	1	0	5	0
19	364	0	10000	5	1	0	5	0
20	365	0	10000	5	1	0	5	0
20	366	0	10000	5	1	0	5	0
19	367	0	10000	5	1	0	5	0
21	368	0	10000	5	1	0	5	0
20	369	0	10000	5	1	0	5	0
21	370	0	10000	5	1	0	5	0
21	371	0	10000	5	1	0	5	0
20	372	0	10000	5	1	0	5	0
21	373	0	10000	5	1	0	5	0
21	374	0	10000	5	1	0	5	0
22	375	0	10000	5	1	0	5	0
22	376	0	10000	5	1	0	5	0
22	377	0	10000	5	1	0	5	0
20	378	0	10000	5	1	0	5	0
22	379	0	10000	5	1	0	5	0
21	380	0	10000	5	1	0	5	0
21	381	0	10000	5	1	0	5	0
22	382	0	10000	5	1	0	5	0
22	383	0	10000	5	1	0	5	0
23	384	0	10000	5	1	0	5	0
22	385	0	10000	5	1	0	5	0
22	386	0	10000	5	1	0	5	0
22	387	0	10000	5	1	0	5	0
22	388	0	10000	5	1	0	5	0
23	389	0	10000	5	1	0	5	0
24	390	0	10000	5	1	0	5	0
24	391	0	10000	5	1	0	5	0
22	392	0	10000	5	1	0	5	0
23	393	0	10000	5	1	0	5	0
23	394	0	10000	5	1	0	5	0
24	395	0	10000	5	1	0	5	0
23	396	0	10000	5	1	0	5	0
23	397	0	10000	5	1	0	5	0
22	398	0	10000	5	1	0	5	0
21	399	0	10000	5	1	0	5	0
20	400	0	10000	5	1	0	5	0
20	401	0	10000	5	1	0	5	0
22	402	0	10000	5	1	0	5	0
22	403	0	10000	5	1	0	5	0
21	404	0	10000	5	1	0	5	0
20	405	0	10000	5	1	0	5	0
20	406	0	10000	5	1	0	5	0
20	407	0	10000	5	1	0	5	0
21	408	0	10000	5	1	0	5	0
20	409	0	10000	5	1	0	5	0
20	410	0	10000	5	1	0	5	0
20	411	0	10000	5	1	0	5	0
19	412	0	10000	5	1	0	5	0
20	413	0	10000	5	1	0	5	0
21	414	0	10000	5	1	0	5	0
20	415	0	10000	5	1	0	5	0
19	416	0	10000	5	1	0	5	0
20	417	0	10000	5	1	0	5	0
20	418	0	10000	5	1	0	5	0
20	419	0	10000	5	1	0	5	0
20	420	0	10000	5	1	0	5	0
19	421	0	10000	5	1	0	5	0
21	422	0	10000	5	1	0	5	0
20	423	0	10000	5	1	0	5	0
20	424	0	10000	5	1	0	5	0
21	425	0	10000	5	1	0	5	0
21	426	0	10000	5	1	0	5	0
20	427	0	10000	5	1	0	5	0
21	428	0	10000	5	1	0	5	0
21	429	0	10000	5	1	0	5	0
22	430	0	10000	5	1	0	5	0
20	431	0	10000	5	1	0	5	0
19	432	0	10000	5	1	0	5	0
19	433	0	10000	5	1	0	5	0
20	434	0	10000	5	1	0	5	0
20	435	0	10000	5	1	0	5	0
19	436	0	10000	5	1	0	5	0
20	437	0	10000	5	1	0	5	0
20	438	0	10000	5	1	0	5	0
20	439	0	10000	5	1	0	5	0
20	440	0	10000	5	1	0	5	0
20	441	0	10000	5	1	0	5	0
20	442	0	10000	5	1	0	5	0
20	443	0	10000	5	1	0	5	0
20	444	0	10000	5	1	0	5	0
21	445	0	10000	5	1	0	5	0
22	446	0	10000	5	1	0	5	0
21	447	0	10000	5	1	0	5	0
20	448	0	10000	5	1	0	5	0
23	449	0	10000	5	1	0	5	0
22	450	0	10000	5	1	0	5	0
20	451	0	10000	5	1	0	5	0
19	452	0	10000	5	1	0	5	0
20	453	0	10000	5	1	0	5	0
19	454	0	10000	5	1	0	5	0
20	455	0	10000	5	1	0	5	0
19	456	0	10000	5	1	0	5	0
20	457	0	10000	5	1	0	5	0
19	458	0	10000	5	1	0	5	0
19	459	0	10000	5	1	0	5	0
18	460	0	10000	5	1	0	5	0
19	461	0	10000	5	1	0	5	0
20	462	0	10000	5	1	0	5	0
20	463	0	10000	5	1	0	5	0
19	464	0	10000	5	1	0	5	0
20	465	0	10000	5	1	0	5	0
20	466	0	10000	5	1	0	5	0
20	467	0	10000	5	1	0	5	0
20	468	0	10000	5	1	0	5	0
20	469	0	10000	5	1	0	5	0
20	470	0	10000	5	1	0	5	0
21	471	0	10000	5	1	0	5	0
20	472	0	10000	5	1	0	5	0
20	473	0	10000	5	1	0	5	0
20	474	0	10000	5	1	0	5	0
21	475	0	10000	5	1	0	5	0
21	476	0	10000	5	1	0	5	0
20	477	0	10000	5	1	0	5	0
20	478	0	10000	5	1	0	5	0
20	479	0	10000	5	1	0	5	0
19	480	0	10000	5	1	0	5	0
20	481	0	10000	5	1	0	5	0
21	482	0	10000	5	1	0	5	0
21	483	0	10000	5	1	0	5	0
22	484	0	10000	5	1	0	5	0
20	485	0	10000	5	1	0	5	0
20	486	0	10000	5	1	0	5	0
20	487	0	10000	5	1	0	5	0
20	488	0	10000	5	1	0	5	0
20	489	0	10000	5	1	0	5	0
20	490	0	10000	5	1	0	5	0
20	491	0	10000	5	1	0	5	0
18	492	0	10000	5	1	0	5	0
19	493	0	10000	5	1	0	5	0
20	494	0	10000	5	1	0	5	0
20	495	0	10000	5	1	0	5	0
20	496	0	10000	5	1	0	5	0
19	497	0	10000	5	1	0	5	0
20	498	0	10000	5	1	0	5	0
18	499	0	10000	5	1	0	5	0
18	500	0	10000	5	1	0	5	0
19	501	0	10000	5	1	0	5	0
20	502	0	10000	5	1	0	5	1
20	503	0	10000	5	1	0	5	1
20	504	0	10000	5	1	0	5	1
19	505	0	10000	5	1	0	5	1
19	506	0	10000	5	1	0	5	1
19	507	0	10000	5	1	0	5	1
19	508	0	10000	5	1	0	5	1
20	509	0	10000	5	1	0	5	1
21	510	0	10000	5	1	0	5	1
21	511	0	10000	5	1	0	5	1
19	512	0	10000	5	1	0	5	1
20	513	0	10000	5	1	0	5	1
20	514	0	10000	5	1	0	5	1
20	515	0	10000	5	1	0	5	1
20	516	0	10000	5	1	0	5	1
20	517	0	10000	5	1	0	5	1
21	518	0	10000	5	1	0	5	1
20	519	0	10000	5	1	0	5	1
20	520	0	10000	5	1	0	5	1
20	521	0	10000	5	1	0	5	1
21	522	0	10000	5	1	0	5	1
20	523	0	10000	5	1	0	5	1
20	524	0	10000	5	1	0	5	1
20	525	0	10000	5	1	0	5	1
20	526	0	10000	5	1	0	5	1
21	527	0	10000	5	1	0	5	1
20	528	0	10000	5	1	0	5	1
20	529	0	10000	5	1	0	5	1
21	530	0	10000	5	1	0	5	1
20	531	0	10000	5	1	0	5	1
20	532	0	10000	5	1	0	5	1
20	533	0	10000	5	1	0	5	1
20	534	0	10000	5	1	0	5	1
21	535	0	10000	5	1	0	5	1
21	536	0	10000	5	1	0	5	1
21	537	0	10000	5	1	0	5	1
22	538	0	10000	5	1	0	5	1
20	539	0	10000	5	1	0	5	1
20	540	0	10000	5	1	0	5	1
20	541	0	10000	5	1	0	5	1
22	542	0	10000	5	1	0	5	1
20	543	0	10000	5	1	0	5	1
20	544	0	10000	5	1	0	5	1
20	545	0	10000	5	1	0	5	1
20	546	0	10000	5	1	0	5	1
20	547	0	10000	5	1	0	5	1
20	548	0	10000	5	1	0	5	1
21	549	0	10000	5	1	0	5	1
22	550	0	10000	5	1	0	5	1
21	551	0	10000	5	1	0	5	1
20	552	0	10000	5	1	0	5	0
20	553	0	10000	5	1	0	5	0
20	554	0	10000	5	1	0	5	0
20	555	0	10000	5	1	0	5	0
21	556	0	10000	5	1	0	5	0
21	557	0	10000	5	1	0	5	0
21	558	0	10000	5	1	0	5	0
20	559	0	10000	5	1	0	5	0
21	560	0	10000	5	1	0	5	0
21	561	0	10000	5	1	0	5	0
22	562	0	10000	5	1	0	5	0
22	563	0	10000	5	1	0	5	0
21	564	0	10000	5	1	0	5	0
22	565	0	10000	5	1	0	5	0
21	566	0	10000	5	1	0	5	0
21	567	0	10000	5	1	0	5	0
20	568	0	10000	5	1	0	5	0
20	569	0	10000	5	1	0	5	0
20	570	0	10000	5	1	0	5	0
21	571	0	10000	5	1	0	5	0
20	572	0	10000	5	1	0	5	0
22	573	0	10000	5	1	0	5	0
21	574	0	10000	5	1	0	5	0
23	575	0	10000	5	1	0	5	0
23	576	0	10000	5	1	0	5	0
23	577	0	10000	5	1	0	5	0
24	578	0	10000	5	1	0	5	0
23	579	0	10000	5	1	0	5	0
22	580	0	10000	5	1	0	5	0
22	581	0	10000	5	1	0	5	0
22	582	0	10000	5	1	0	5	0
23	583	0	10000	5	1	0	5	0
23	584	0	10000	5	1	0	5	0
23	585	0	10000	5	1	0	5	0
22	586	0	10000	5	1	0	5	0
21	587	0	10000	5	1	0	5	0
21	588	0	10000	5	1	0	5	0
21	589	0	10000	5	1	0	5	0
21	590	0	10000	5	1	0	5	0
22	591	0	10000	5	1	0	5	0
21	592	0	10000	5	1	0	5	0
22	593	0	10000	5	1	0	5	0
25	594	0	10000	5	1	0	5	0
28	595	0	10000	5	1	0	5	0
33	596	0	10000	5	1	0	5	0
35	597	0	10000	5	1	0	5	0
38	598	0	10000	5	1	0	5	0
40	599	0	10000	5	1	0	5	0
40	600	0	10000	5	1	0	5	0
39	601	0	10000	5	1	0	5	0
46	602	0	10000	5	1	0	5	0
48	603	0	10000	5	1	0	5	0
48	604	0	10000	5	1	0	5	0
46	605	0	10000	5	1	0	5	0
49	606	0	10000	5	1	0	5	0
57	607	0	10000	5	1	0	5	0
61	608	0	10000	5	1	0	5	0
61	609	0	10000	5	1	0	5	0
75	610	0	10000	5	1	0	5	0
102	611	0	10000	5	1	0	5	0
112	612	0	10000	5	1	0	5	0
113	613	0	10000	5	1	0	5	0
113	614	0	10000	5	1	0	5	0
123	615	0	10000	5	1	0	5	0
147	616	0	10000	5	1	0	5	0
167	617	0	10000	5	1	0	5	0
182	618	0	10000	5	1	0	5	0
200	619	0	10000	5	1	0	5	0
197	620	0	10000	5	1	0	5	0
208	621	0	10000	5	1	0	5	0
232	622	0	10000	5	1	0	5	0
238	623	0	10000	5	1	0	5	0
230	624	0	10000	5	1	0	5	0
219	625	0	10000	5	1	0	5	0
218	626	0	10000	5	1	0	5	0
223	627	0	10000	5	1	0	5	0
214	628	0	10000	5	1	0	5	0
206	629	0	10000	5	1	0	5	0
218	630	0	10000	5	1	0	5	0
250	631	0	10000	5	1	0	5	0
285	632	0	10000	5	1	0	5	0
310	633	0	10000	5	1	0	5	0
307	634	0	10000	5	1	0	5	0
312	635	0	10000	5	1	0	5	0
318	636	0	10000	5	1	0	5	0
312	637	0	10000	5	1	0	5	0
327	638	0	10000	5	1	0	5	0
339	639	0	10000	5	1	0	5	0
332	640	0	10000	5	1	0	5	0
326	641	0	10000	5	1	0	5	0
321	642	0	10000	5	1	0	5	0
308	643	0	10000	5	1	0	5	0
299	644	0	10000	5	1	0	5	0
298	645	0	10000	5	1	0	5	0
301	646	0	10000	5	1	0	5	0
303	647	0	10000	5	1	0	5	0
307	648	0	10000	5	1	0	5	0
311	649	0	10000	5	1	0	5	0
310	650	0	10000	5	1	0	5	0
309	651	0	10000	5	1	0	5	0
306	652	0	10000	5	1	0	5	0
301	653	0	10000	5	1	0	5	0
299	654	0	10000	5	1	0	5	0
294	655	0	10000	5	1	0	5	0
286	656	0	10000	5	1	0	5	0
281	657	0	10000	5	1	0	5	0
273	658	0	10000	5	1	0	5	0
263	659	0	10000	5	1	0	5	0
254	660	0	10000	5	1	0	5	0
243	661	0	10000	5	1	0	5	0
239	662	0	10000	5	1	0	5	0
233	663	0	10000	5	1	0	5	0
224	664	0	10000	5	1	0	5	0
213	665	0	10000	5	1	0	5	0
204	666	0	10000	5	1	0	5	0
198	667	0	10000	5	1	0	5	0
195	668	0	10000	5	1	0	5	0
196	669	0	10000	5	1	0	5	0
201	670	0	10000	5	1	0	5	0
206	671	0	10000	5	1	0	5	0
213	672	0	10000	5	1	0	5	0
222	673	0	10000	5	1	0	5	0
230	674	0	10000	5	1	0	5	0
239	675	0	10000	5	1	0	5	0
249	676	0	10000	5	1	0	5	0
257	677	0	10000	5	1	0	5	0
265	678	0	10000	5	1	0	5	0
273	679	0	10000	5	1	0	5	0
277	680	0	10000	5	1	0	5	0
284	681	0	10000	5	1	0	5	0
293	682	0	10000	5	1	0	5	0
300	683	0	10000	5	1	0	5	0
312	684	0	10000	5	1	0	5	0
323	685	0	10000	5	1	0	5	0
332	686	0	10000	5	1	0	5	0
340	687	0	10000	5	1	0	5	0
347	688	0	10000	5	1	0	5	0
356	689	0	10000	5	1	0	5	0
365	690	0	10000	5	1	0	5	0
376	691	0	10000	5	1	0	5	0
384	692	0	10000	5	1	0	5	0
396	693	0	10000	5	1	0	5	0
406	694	0	10000	5	1	0	5	0
415	695	0	10000	5	1	0	5	0
423	696	0	10000	5	1	0	5	0
429	697	0	10000	5	1	0	5	0
433	698	0	10000	5	1	0	5	0
434	699	0	10000	5	1	0	5	0
434	700	0	10000	5	1	0	5	0
433	701	0	10000	5	1	0	5	0
434	702	0	10000	5	1	0	5	0
431	703	0	10000	5	1	0	5	0
428	704	0	10000	5	1	0	5	0
425	705	0	10000	5	1	0	5	0
420	706	0	10000	5	1	0	5	0
416	707	0	10000	5	1	0	5	0
412	708	0	10000	5	1	0	5	0
407	709	0	10000	5	1	0	5	0
403	710	0	10000	5	1	0	5	0
398	711	0	10000	5	1	0	5	0
388	712	0	10000	5	1	0	5	0
381	713	0	10000	5	1	0	5	0
374	714	0	10000	5	1	0	5	0
366	715	0	10000	5	1	0	5	0
359	716	0	10000	5	1	0	5	0
351	717	0	10000	5	1	0	5	0
341	718	0	10000	5	1	0	5	0
331	719	0	10000	5	1	0	5	0
319	720	0	10000	5	1	0	5	0
305	721	0	10000	5	1	0	5	0
294	722	0	10000	5	1	0	5	0
282	723	0	10000	5	1	0	5	0
269	724	0	10000	5	1	0	5	0
256	725	0	10000	5	1	0	5	0
245	726	0	10000	5	1	0	5	0
234	727	0	10000	5	1	0	5	0
224	728	0	10000	5	1	0	5	0
215	729	0	10000	5	1	0	5	0
