value	EMG	Stimulus	EMG_sensitivity	Total_Trial_Nr	practise	acq	probe_nr	Startle_Probe
24	2	7	10000	1	1	0	1	0
24	3	7	10000	1	1	0	1	0
24	4	7	10000	1	1	0	1	0
24	5	7	10000	1	1	0	1	0
27	6	7	10000	1	1	0	1	0
30	7	7	10000	1	1	0	1	0
30	8	7	10000	1	1	0	1	0
28	9	7	10000	1	1	0	1	0
27	10	7	10000	1	1	0	1	0
26	11	7	10000	1	1	0	1	0
27	12	7	10000	1	1	0	1	0
29	13	7	10000	1	1	0	1	0
29	14	7	10000	1	1	0	1	0
29	15	7	10000	1	1	0	1	0
26	16	7	10000	1	1	0	1	0
25	17	7	10000	1	1	0	1	0
25	18	7	10000	1	1	0	1	0
25	19	7	10000	1	1	0	1	0
24	20	7	10000	1	1	0	1	0
23	21	7	10000	1	1	0	1	0
24	22	7	10000	1	1	0	1	0
24	23	7	10000	1	1	0	1	0
26	24	7	10000	1	1	0	1	0
26	25	7	10000	1	1	0	1	0
26	26	7	10000	1	1	0	1	0
25	27	7	10000	1	1	0	1	0
24	28	7	10000	1	1	0	1	0
23	29	7	10000	1	1	0	1	0
22	30	7	10000	1	1	0	1	0
21	31	7	10000	1	1	0	1	0
20	32	7	10000	1	1	0	1	0
20	33	7	10000	1	1	0	1	0
22	34	7	10000	1	1	0	1	0
22	35	7	10000	1	1	0	1	0
20	36	7	10000	1	1	0	1	0
20	37	7	10000	1	1	0	1	0
20	38	7	10000	1	1	0	1	0
20	39	7	10000	1	1	0	1	0
20	40	7	10000	1	1	0	1	0
20	41	7	10000	1	1	0	1	0
21	42	7	10000	1	1	0	1	0
20	43	7	10000	1	1	0	1	0
19	44	7	10000	1	1	0	1	0
20	45	7	10000	1	1	0	1	0
21	46	7	10000	1	1	0	1	0
23	47	7	10000	1	1	0	1	0
23	48	7	10000	1	1	0	1	0
22	49	7	10000	1	1	0	1	0
21	50	7	10000	1	1	0	1	0
21	51	7	10000	1	1	0	1	0
20	52	7	10000	1	1	0	1	0
20	53	7	10000	1	1	0	1	0
21	54	7	10000	1	1	0	1	0
20	55	7	10000	1	1	0	1	0
20	56	7	10000	1	1	0	1	0
21	57	7	10000	1	1	0	1	0
22	58	7	10000	1	1	0	1	0
22	59	7	10000	1	1	0	1	0
22	60	7	10000	1	1	0	1	0
22	61	7	10000	1	1	0	1	0
22	62	7	10000	1	1	0	1	0
22	63	7	10000	1	1	0	1	0
22	64	7	10000	1	1	0	1	0
21	65	7	10000	1	1	0	1	0
23	66	7	10000	1	1	0	1	0
22	67	7	10000	1	1	0	1	0
21	68	7	10000	1	1	0	1	0
21	69	7	10000	1	1	0	1	0
20	70	7	10000	1	1	0	1	0
21	71	7	10000	1	1	0	1	0
22	72	7	10000	1	1	0	1	0
23	73	7	10000	1	1	0	1	0
23	74	7	10000	1	1	0	1	0
22	75	7	10000	1	1	0	1	0
21	76	7	10000	1	1	0	1	0
20	77	7	10000	1	1	0	1	0
20	78	7	10000	1	1	0	1	0
20	79	7	10000	1	1	0	1	0
20	80	7	10000	1	1	0	1	0
20	81	7	10000	1	1	0	1	0
20	82	7	10000	1	1	0	1	0
20	83	7	10000	1	1	0	1	0
19	84	7	10000	1	1	0	1	0
19	85	7	10000	1	1	0	1	0
20	86	7	10000	1	1	0	1	0
20	87	7	10000	1	1	0	1	0
20	88	7	10000	1	1	0	1	0
22	89	7	10000	1	1	0	1	0
23	90	7	10000	1	1	0	1	0
23	91	7	10000	1	1	0	1	0
24	92	7	10000	1	1	0	1	0
24	93	7	10000	1	1	0	1	0
24	94	7	10000	1	1	0	1	0
25	95	7	10000	1	1	0	1	0
24	96	7	10000	1	1	0	1	0
22	97	7	10000	1	1	0	1	0
22	98	7	10000	1	1	0	1	0
21	99	7	10000	1	1	0	1	0
21	100	7	10000	1	1	0	1	0
21	101	7	10000	1	1	0	1	0
20	102	7	10000	1	1	0	1	0
19	103	7	10000	1	1	0	1	0
18	104	7	10000	1	1	0	1	0
18	105	7	10000	1	1	0	1	0
20	106	7	10000	1	1	0	1	0
20	107	7	10000	1	1	0	1	0
19	108	7	10000	1	1	0	1	0
19	109	7	10000	1	1	0	1	0
20	110	7	10000	1	1	0	1	0
21	111	7	10000	1	1	0	1	0
22	112	7	10000	1	1	0	1	0
23	113	7	10000	1	1	0	1	0
23	114	7	10000	1	1	0	1	0
23	115	7	10000	1	1	0	1	0
21	116	7	10000	1	1	0	1	0
20	117	7	10000	1	1	0	1	0
20	118	7	10000	1	1	0	1	0
20	119	7	10000	1	1	0	1	0
19	120	7	10000	1	1	0	1	0
19	121	7	10000	1	1	0	1	0
19	122	7	10000	1	1	0	1	0
18	123	7	10000	1	1	0	1	0
18	124	7	10000	1	1	0	1	0
16	125	7	10000	1	1	0	1	0
18	126	7	10000	1	1	0	1	0
19	127	7	10000	1	1	0	1	0
17	128	7	10000	1	1	0	1	0
17	129	7	10000	1	1	0	1	0
18	130	7	10000	1	1	0	1	0
18	131	7	10000	1	1	0	1	0
19	132	7	10000	1	1	0	1	0
19	133	7	10000	1	1	0	1	0
19	134	7	10000	1	1	0	1	0
20	135	7	10000	1	1	0	1	0
18	136	7	10000	1	1	0	1	0
18	137	7	10000	1	1	0	1	0
19	138	7	10000	1	1	0	1	0
18	139	7	10000	1	1	0	1	0
18	140	7	10000	1	1	0	1	0
18	141	7	10000	1	1	0	1	0
19	142	7	10000	1	1	0	1	0
18	143	7	10000	1	1	0	1	0
17	144	7	10000	1	1	0	1	0
17	145	7	10000	1	1	0	1	0
19	146	7	10000	1	1	0	1	0
19	147	7	10000	1	1	0	1	0
19	148	7	10000	1	1	0	1	0
18	149	7	10000	1	1	0	1	0
18	150	7	10000	1	1	0	1	0
19	151	7	10000	1	1	0	1	0
19	152	7	10000	1	1	0	1	0
19	153	7	10000	1	1	0	1	0
20	154	7	10000	1	1	0	1	0
21	155	7	10000	1	1	0	1	0
20	156	7	10000	1	1	0	1	0
21	157	7	10000	1	1	0	1	0
22	158	7	10000	1	1	0	1	0
23	159	7	10000	1	1	0	1	0
23	160	7	10000	1	1	0	1	0
23	161	7	10000	1	1	0	1	0
23	162	7	10000	1	1	0	1	0
22	163	7	10000	1	1	0	1	0
22	164	7	10000	1	1	0	1	0
22	165	7	10000	1	1	0	1	0
22	166	7	10000	1	1	0	1	0
22	167	7	10000	1	1	0	1	0
22	168	7	10000	1	1	0	1	0
20	169	7	10000	1	1	0	1	0
20	170	7	10000	1	1	0	1	0
20	171	7	10000	1	1	0	1	0
19	172	7	10000	1	1	0	1	0
18	173	7	10000	1	1	0	1	0
19	174	7	10000	1	1	0	1	0
20	175	7	10000	1	1	0	1	0
19	176	7	10000	1	1	0	1	0
18	177	7	10000	1	1	0	1	0
18	178	7	10000	1	1	0	1	0
19	179	7	10000	1	1	0	1	0
20	180	7	10000	1	1	0	1	0
20	181	7	10000	1	1	0	1	0
19	182	7	10000	1	1	0	1	0
19	183	7	10000	1	1	0	1	0
18	184	7	10000	1	1	0	1	0
17	185	7	10000	1	1	0	1	0
18	186	7	10000	1	1	0	1	0
19	187	7	10000	1	1	0	1	0
18	188	7	10000	1	1	0	1	0
19	189	7	10000	1	1	0	1	0
18	190	7	10000	1	1	0	1	0
18	191	7	10000	1	1	0	1	0
17	192	7	10000	1	1	0	1	0
18	193	7	10000	1	1	0	1	0
19	194	7	10000	1	1	0	1	0
19	195	7	10000	1	1	0	1	0
18	196	7	10000	1	1	0	1	0
17	197	7	10000	1	1	0	1	0
17	198	7	10000	1	1	0	1	0
18	199	7	10000	1	1	0	1	0
18	200	7	10000	1	1	0	1	0
19	201	7	10000	1	1	0	1	0
19	202	7	10000	1	1	0	1	0
19	203	7	10000	1	1	0	1	0
18	204	7	10000	1	1	0	1	0
17	205	7	10000	1	1	0	1	0
19	206	7	10000	1	1	0	1	0
18	207	7	10000	1	1	0	1	0
18	208	7	10000	1	1	0	1	0
19	209	7	10000	1	1	0	1	0
17	210	7	10000	1	1	0	1	0
17	211	7	10000	1	1	0	1	0
17	212	7	10000	1	1	0	1	0
17	213	7	10000	1	1	0	1	0
17	214	7	10000	1	1	0	1	0
18	215	7	10000	1	1	0	1	0
16	216	7	10000	1	1	0	1	0
16	217	7	10000	1	1	0	1	0
16	218	7	10000	1	1	0	1	0
16	219	7	10000	1	1	0	1	0
15	220	7	10000	1	1	0	1	0
15	221	7	10000	1	1	0	1	0
16	222	7	10000	1	1	0	1	0
17	223	7	10000	1	1	0	1	0
18	224	7	10000	1	1	0	1	0
22	225	7	10000	1	1	0	1	0
29	226	7	10000	1	1	0	1	0
35	227	7	10000	1	1	0	1	0
38	228	7	10000	1	1	0	1	0
42	229	7	10000	1	1	0	1	0
45	230	7	10000	1	1	0	1	0
46	231	7	10000	1	1	0	1	0
45	232	7	10000	1	1	0	1	0
43	233	7	10000	1	1	0	1	0
42	234	7	10000	1	1	0	1	0
41	235	7	10000	1	1	0	1	0
38	236	7	10000	1	1	0	1	0
37	237	7	10000	1	1	0	1	0
36	238	7	10000	1	1	0	1	0
35	239	7	10000	1	1	0	1	0
33	240	7	10000	1	1	0	1	0
32	241	7	10000	1	1	0	1	0
32	242	7	10000	1	1	0	1	0
32	243	7	10000	1	1	0	1	0
34	244	7	10000	1	1	0	1	0
35	245	7	10000	1	1	0	1	0
39	246	7	10000	1	1	0	1	0
46	247	7	10000	1	1	0	1	0
51	248	7	10000	1	1	0	1	0
58	249	7	10000	1	1	0	1	0
63	250	7	10000	1	1	0	1	0
65	251	7	10000	1	1	0	1	0
66	252	7	10000	1	1	0	1	0
67	253	7	10000	1	1	0	1	0
67	254	7	10000	1	1	0	1	0
67	255	7	10000	1	1	0	1	0
65	256	7	10000	1	1	0	1	0
62	257	7	10000	1	1	0	1	0
61	258	7	10000	1	1	0	1	0
60	259	7	10000	1	1	0	1	0
59	260	7	10000	1	1	0	1	0
56	261	7	10000	1	1	0	1	0
56	262	7	10000	1	1	0	1	0
56	263	7	10000	1	1	0	1	0
57	264	7	10000	1	1	0	1	0
60	265	7	10000	1	1	0	1	0
65	266	7	10000	1	1	0	1	0
68	267	7	10000	1	1	0	1	0
69	268	7	10000	1	1	0	1	0
70	269	7	10000	1	1	0	1	0
72	270	7	10000	1	1	0	1	0
72	271	7	10000	1	1	0	1	0
72	272	7	10000	1	1	0	1	0
73	273	7	10000	1	1	0	1	0
73	274	7	10000	1	1	0	1	0
75	275	7	10000	1	1	0	1	0
74	276	7	10000	1	1	0	1	0
74	277	7	10000	1	1	0	1	0
74	278	7	10000	1	1	0	1	0
74	279	7	10000	1	1	0	1	0
73	280	7	10000	1	1	0	1	0
73	281	7	10000	1	1	0	1	0
73	282	7	10000	1	1	0	1	0
73	283	7	10000	1	1	0	1	0
73	284	7	10000	1	1	0	1	0
73	285	7	10000	1	1	0	1	0
74	286	7	10000	1	1	0	1	0
75	287	7	10000	1	1	0	1	0
75	288	7	10000	1	1	0	1	0
73	289	7	10000	1	1	0	1	0
70	290	7	10000	1	1	0	1	0
69	291	7	10000	1	1	0	1	0
66	292	7	10000	1	1	0	1	0
63	293	7	10000	1	1	0	1	0
61	294	7	10000	1	1	0	1	0
59	295	7	10000	1	1	0	1	0
57	296	7	10000	1	1	0	1	0
58	297	7	10000	1	1	0	1	0
58	298	7	10000	1	1	0	1	0
57	299	7	10000	1	1	0	1	0
55	300	7	10000	1	1	0	1	0
53	301	7	10000	1	1	0	1	0
51	302	7	10000	1	1	0	1	0
49	303	7	10000	1	1	0	1	0
47	304	7	10000	1	1	0	1	0
44	305	7	10000	1	1	0	1	0
45	306	7	10000	1	1	0	1	0
45	307	7	10000	1	1	0	1	0
45	308	7	10000	1	1	0	1	0
45	309	7	10000	1	1	0	1	0
45	310	7	10000	1	1	0	1	0
45	311	7	10000	1	1	0	1	0
45	312	7	10000	1	1	0	1	0
45	313	7	10000	1	1	0	1	0
43	314	7	10000	1	1	0	1	0
42	315	7	10000	1	1	0	1	0
40	316	7	10000	1	1	0	1	0
39	317	7	10000	1	1	0	1	0
38	318	7	10000	1	1	0	1	0
38	319	7	10000	1	1	0	1	0
37	320	7	10000	1	1	0	1	0
35	321	7	10000	1	1	0	1	0
34	322	7	10000	1	1	0	1	0
33	323	7	10000	1	1	0	1	0
31	324	7	10000	1	1	0	1	0
28	325	7	10000	1	1	0	1	0
30	326	7	10000	1	1	0	1	0
29	327	7	10000	1	1	0	1	0
28	328	7	10000	1	1	0	1	0
27	329	7	10000	1	1	0	1	0
26	330	7	10000	1	1	0	1	0
25	331	7	10000	1	1	0	1	0
24	332	7	10000	1	1	0	1	0
24	333	7	10000	1	1	0	1	0
23	334	7	10000	1	1	0	1	0
23	335	7	10000	1	1	0	1	0
22	336	7	10000	1	1	0	1	0
21	337	7	10000	1	1	0	1	0
21	338	7	10000	1	1	0	1	0
22	339	7	10000	1	1	0	1	0
23	340	7	10000	1	1	0	1	0
22	341	7	10000	1	1	0	1	0
22	342	7	10000	1	1	0	1	0
21	343	7	10000	1	1	0	1	0
20	344	7	10000	1	1	0	1	0
21	345	7	10000	1	1	0	1	0
22	346	7	10000	1	1	0	1	0
22	347	7	10000	1	1	0	1	0
21	348	7	10000	1	1	0	1	0
20	349	7	10000	1	1	0	1	0
20	350	7	10000	1	1	0	1	0
21	351	7	10000	1	1	0	1	0
22	352	7	10000	1	1	0	1	0
22	353	7	10000	1	1	0	1	0
22	354	7	10000	1	1	0	1	0
22	355	7	10000	1	1	0	1	0
20	356	7	10000	1	1	0	1	0
19	357	7	10000	1	1	0	1	0
20	358	7	10000	1	1	0	1	0
19	359	7	10000	1	1	0	1	0
19	360	7	10000	1	1	0	1	0
20	361	7	10000	1	1	0	1	0
20	362	7	10000	1	1	0	1	0
20	363	7	10000	1	1	0	1	0
20	364	7	10000	1	1	0	1	0
20	365	7	10000	1	1	0	1	0
20	366	7	10000	1	1	0	1	0
21	367	7	10000	1	1	0	1	0
20	368	7	10000	1	1	0	1	0
19	369	7	10000	1	1	0	1	0
20	370	7	10000	1	1	0	1	0
19	371	7	10000	1	1	0	1	0
19	372	7	10000	1	1	0	1	0
20	373	7	10000	1	1	0	1	0
20	374	7	10000	1	1	0	1	0
20	375	7	10000	1	1	0	1	0
19	376	7	10000	1	1	0	1	0
18	377	7	10000	1	1	0	1	0
19	378	7	10000	1	1	0	1	0
20	379	7	10000	1	1	0	1	0
21	380	7	10000	1	1	0	1	0
22	381	7	10000	1	1	0	1	0
24	382	7	10000	1	1	0	1	0
24	383	7	10000	1	1	0	1	0
22	384	7	10000	1	1	0	1	0
22	385	7	10000	1	1	0	1	0
24	386	7	10000	1	1	0	1	0
25	387	7	10000	1	1	0	1	0
26	388	7	10000	1	1	0	1	0
26	389	7	10000	1	1	0	1	0
26	390	7	10000	1	1	0	1	0
26	391	7	10000	1	1	0	1	0
25	392	7	10000	1	1	0	1	0
26	393	7	10000	1	1	0	1	0
26	394	7	10000	1	1	0	1	0
27	395	7	10000	1	1	0	1	0
25	396	7	10000	1	1	0	1	0
26	397	7	10000	1	1	0	1	0
29	398	7	10000	1	1	0	1	0
31	399	7	10000	1	1	0	1	0
32	400	7	10000	1	1	0	1	0
32	401	7	10000	1	1	0	1	0
32	402	7	10000	1	1	0	1	0
31	403	7	10000	1	1	0	1	0
35	404	7	10000	1	1	0	1	0
40	405	7	10000	1	1	0	1	0
47	406	7	10000	1	1	0	1	0
54	407	7	10000	1	1	0	1	0
60	408	7	10000	1	1	0	1	0
62	409	7	10000	1	1	0	1	0
64	410	7	10000	1	1	0	1	0
62	411	7	10000	1	1	0	1	0
64	412	7	10000	1	1	0	1	0
70	413	7	10000	1	1	0	1	0
74	414	7	10000	1	1	0	1	0
77	415	7	10000	1	1	0	1	0
75	416	7	10000	1	1	0	1	0
71	417	7	10000	1	1	0	1	0
69	418	7	10000	1	1	0	1	0
69	419	7	10000	1	1	0	1	0
72	420	7	10000	1	1	0	1	0
71	421	7	10000	1	1	0	1	0
70	422	7	10000	1	1	0	1	0
69	423	7	10000	1	1	0	1	0
69	424	7	10000	1	1	0	1	0
71	425	7	10000	1	1	0	1	0
75	426	7	10000	1	1	0	1	0
80	427	7	10000	1	1	0	1	0
85	428	7	10000	1	1	0	1	0
90	429	7	10000	1	1	0	1	0
93	430	7	10000	1	1	0	1	0
97	431	7	10000	1	1	0	1	0
102	432	7	10000	1	1	0	1	0
106	433	7	10000	1	1	0	1	0
108	434	7	10000	1	1	0	1	0
109	435	7	10000	1	1	0	1	0
108	436	7	10000	1	1	0	1	0
107	437	7	10000	1	1	0	1	0
106	438	7	10000	1	1	0	1	0
103	439	7	10000	1	1	0	1	0
98	440	7	10000	1	1	0	1	0
96	441	7	10000	1	1	0	1	0
94	442	7	10000	1	1	0	1	0
93	443	7	10000	1	1	0	1	0
91	444	7	10000	1	1	0	1	0
88	445	7	10000	1	1	0	1	0
87	446	7	10000	1	1	0	1	0
85	447	7	10000	1	1	0	1	0
85	448	7	10000	1	1	0	1	0
86	449	7	10000	1	1	0	1	0
86	450	7	10000	1	1	0	1	0
84	451	7	10000	1	1	0	1	0
84	452	7	10000	1	1	0	1	0
84	453	7	10000	1	1	0	1	0
84	454	7	10000	1	1	0	1	0
84	455	7	10000	1	1	0	1	0
83	456	7	10000	1	1	0	1	0
85	457	7	10000	1	1	0	1	0
88	458	7	10000	1	1	0	1	0
87	459	7	10000	1	1	0	1	0
86	460	7	10000	1	1	0	1	0
87	461	7	10000	1	1	0	1	0
88	462	7	10000	1	1	0	1	0
88	463	7	10000	1	1	0	1	0
87	464	7	10000	1	1	0	1	0
87	465	7	10000	1	1	0	1	0
89	466	7	10000	1	1	0	1	0
91	467	7	10000	1	1	0	1	0
90	468	7	10000	1	1	0	1	0
89	469	7	10000	1	1	0	1	0
88	470	7	10000	1	1	0	1	0
86	471	7	10000	1	1	0	1	0
83	472	7	10000	1	1	0	1	0
81	473	7	10000	1	1	0	1	0
80	474	7	10000	1	1	0	1	0
80	475	7	10000	1	1	0	1	0
77	476	7	10000	1	1	0	1	0
76	477	7	10000	1	1	0	1	0
76	478	7	10000	1	1	0	1	0
76	479	7	10000	1	1	0	1	0
75	480	7	10000	1	1	0	1	0
73	481	7	10000	1	1	0	1	0
71	482	7	10000	1	1	0	1	0
70	483	7	10000	1	1	0	1	0
68	484	7	10000	1	1	0	1	0
67	485	7	10000	1	1	0	1	0
68	486	7	10000	1	1	0	1	0
69	487	7	10000	1	1	0	1	0
68	488	7	10000	1	1	0	1	0
67	489	7	10000	1	1	0	1	0
68	490	7	10000	1	1	0	1	0
68	491	7	10000	1	1	0	1	0
68	492	7	10000	1	1	0	1	0
67	493	7	10000	1	1	0	1	0
65	494	7	10000	1	1	0	1	0
62	495	7	10000	1	1	0	1	0
60	496	7	10000	1	1	0	1	0
58	497	7	10000	1	1	0	1	0
57	498	7	10000	1	1	0	1	0
56	499	7	10000	1	1	0	1	0
53	500	7	10000	1	1	0	1	0
52	501	7	10000	1	1	0	1	0
50	547	7	10000	1	1	0	1	1
47	548	7	10000	1	1	0	1	1
44	549	7	10000	1	1	0	1	1
43	550	7	10000	1	1	0	1	1
42	551	7	10000	1	1	0	1	1
41	552	7	10000	1	1	0	1	1
39	553	7	10000	1	1	0	1	1
37	554	7	10000	1	1	0	1	1
35	555	7	10000	1	1	0	1	1
34	556	7	10000	1	1	0	1	1
34	557	7	10000	1	1	0	1	1
33	558	7	10000	1	1	0	1	1
33	559	7	10000	1	1	0	1	1
33	560	7	10000	1	1	0	1	1
31	561	7	10000	1	1	0	1	1
30	562	7	10000	1	1	0	1	1
30	563	7	10000	1	1	0	1	1
30	564	7	10000	1	1	0	1	1
30	565	7	10000	1	1	0	1	1
29	566	7	10000	1	1	0	1	1
28	567	7	10000	1	1	0	1	1
27	568	7	10000	1	1	0	1	1
26	569	7	10000	1	1	0	1	1
27	570	7	10000	1	1	0	1	1
28	571	7	10000	1	1	0	1	1
29	572	7	10000	1	1	0	1	1
29	573	7	10000	1	1	0	1	1
27	574	7	10000	1	1	0	1	1
27	575	7	10000	1	1	0	1	1
28	576	7	10000	1	1	0	1	1
27	577	7	10000	1	1	0	1	1
26	578	7	10000	1	1	0	1	1
26	579	7	10000	1	1	0	1	1
26	580	7	10000	1	1	0	1	1
25	581	7	10000	1	1	0	1	1
26	582	7	10000	1	1	0	1	1
27	583	7	10000	1	1	0	1	1
28	584	7	10000	1	1	0	1	1
27	585	7	10000	1	1	0	1	1
27	586	7	10000	1	1	0	1	1
27	587	7	10000	1	1	0	1	1
27	588	7	10000	1	1	0	1	1
25	589	7	10000	1	1	0	1	1
24	590	7	10000	1	1	0	1	1
25	591	7	10000	1	1	0	1	1
25	592	7	10000	1	1	0	1	1
25	550	7	10000	1	1	0	1	1
24	551	7	10000	1	1	0	1	1
23	552	7	10000	1	1	0	1	1
22	553	7	10000	1	1	0	1	1
21	552	7	10000	1	1	0	1	0
21	553	7	10000	1	1	0	1	0
22	554	7	10000	1	1	0	1	0
23	555	7	10000	1	1	0	1	0
23	556	7	10000	1	1	0	1	0
23	557	7	10000	1	1	0	1	0
26	558	7	10000	1	1	0	1	0
28	559	7	10000	1	1	0	1	0
31	560	7	10000	1	1	0	1	0
35	561	7	10000	1	1	0	1	0
42	562	7	10000	1	1	0	1	0
49	563	7	10000	1	1	0	1	0
52	564	7	10000	1	1	0	1	0
50	565	7	10000	1	1	0	1	0
51	566	7	10000	1	1	0	1	0
51	567	7	10000	1	1	0	1	0
54	568	7	10000	1	1	0	1	0
58	569	7	10000	1	1	0	1	0
60	570	7	10000	1	1	0	1	0
62	571	7	10000	1	1	0	1	0
62	572	7	10000	1	1	0	1	0
62	573	7	10000	1	1	0	1	0
61	574	7	10000	1	1	0	1	0
60	575	7	10000	1	1	0	1	0
60	576	7	10000	1	1	0	1	0
63	577	7	10000	1	1	0	1	0
66	578	7	10000	1	1	0	1	0
70	579	7	10000	1	1	0	1	0
74	580	7	10000	1	1	0	1	0
79	581	7	10000	1	1	0	1	0
81	582	7	10000	1	1	0	1	0
83	583	7	10000	1	1	0	1	0
86	584	7	10000	1	1	0	1	0
86	585	7	10000	1	1	0	1	0
88	586	7	10000	1	1	0	1	0
89	587	7	10000	1	1	0	1	0
86	588	7	10000	1	1	0	1	0
86	589	7	10000	1	1	0	1	0
83	590	7	10000	1	1	0	1	0
80	591	7	10000	1	1	0	1	0
76	592	7	10000	1	1	0	1	0
73	593	7	10000	1	1	0	1	0
70	594	7	10000	1	1	0	1	0
68	595	7	10000	1	1	0	1	0
63	596	7	10000	1	1	0	1	0
62	597	7	10000	1	1	0	1	0
63	598	7	10000	1	1	0	1	0
65	599	7	10000	1	1	0	1	0
67	600	7	10000	1	1	0	1	0
69	601	7	10000	1	1	0	1	0
70	602	7	10000	1	1	0	1	0
70	603	7	10000	1	1	0	1	0
70	604	7	10000	1	1	0	1	0
70	605	7	10000	1	1	0	1	0
73	606	7	10000	1	1	0	1	0
75	607	7	10000	1	1	0	1	0
74	608	7	10000	1	1	0	1	0
73	609	7	10000	1	1	0	1	0
74	610	7	10000	1	1	0	1	0
72	611	7	10000	1	1	0	1	0
70	612	7	10000	1	1	0	1	0
69	613	7	10000	1	1	0	1	0
68	614	7	10000	1	1	0	1	0
67	615	7	10000	1	1	0	1	0
66	616	7	10000	1	1	0	1	0
66	617	7	10000	1	1	0	1	0
68	618	7	10000	1	1	0	1	0
70	619	7	10000	1	1	0	1	0
72	620	7	10000	1	1	0	1	0
72	621	7	10000	1	1	0	1	0
70	622	7	10000	1	1	0	1	0
67	623	7	10000	1	1	0	1	0
64	624	7	10000	1	1	0	1	0
61	625	7	10000	1	1	0	1	0
60	626	7	10000	1	1	0	1	0
58	627	7	10000	1	1	0	1	0
57	628	7	10000	1	1	0	1	0
56	629	7	10000	1	1	0	1	0
53	630	7	10000	1	1	0	1	0
51	631	7	10000	1	1	0	1	0
49	632	7	10000	1	1	0	1	0
46	633	7	10000	1	1	0	1	0
45	634	7	10000	1	1	0	1	0
44	635	7	10000	1	1	0	1	0
41	636	7	10000	1	1	0	1	0
39	637	7	10000	1	1	0	1	0
38	638	7	10000	1	1	0	1	0
36	639	7	10000	1	1	0	1	0
35	640	7	10000	1	1	0	1	0
34	641	7	10000	1	1	0	1	0
33	642	7	10000	1	1	0	1	0
31	643	7	10000	1	1	0	1	0
31	644	7	10000	1	1	0	1	0
33	645	7	10000	1	1	0	1	0
38	646	7	10000	1	1	0	1	0
40	647	7	10000	1	1	0	1	0
40	648	7	10000	1	1	0	1	0
42	649	7	10000	1	1	0	1	0
45	650	7	10000	1	1	0	1	0
47	651	7	10000	1	1	0	1	0
45	652	7	10000	1	1	0	1	0
53	653	7	10000	1	1	0	1	0
90	654	7	10000	1	1	0	1	0
132	655	7	10000	1	1	0	1	0
138	656	7	10000	1	1	0	1	0
140	657	7	10000	1	1	0	1	0
144	658	7	10000	1	1	0	1	0
141	659	7	10000	1	1	0	1	0
139	660	7	10000	1	1	0	1	0
136	661	7	10000	1	1	0	1	0
138	662	7	10000	1	1	0	1	0
139	663	7	10000	1	1	0	1	0
146	664	7	10000	1	1	0	1	0
159	665	7	10000	1	1	0	1	0
164	666	7	10000	1	1	0	1	0
196	667	7	10000	1	1	0	1	0
230	668	7	10000	1	1	0	1	0
252	669	7	10000	1	1	0	1	0
267	673	7	10000	1	1	0	1	0
279	674	7	10000	1	1	0	1	0
285	675	7	10000	1	1	0	1	0
286	676	7	10000	1	1	0	1	0
282	677	7	10000	1	1	0	1	0
271	678	7	10000	1	1	0	1	0
257	680	7	10000	1	1	0	1	0
249	681	7	10000	1	1	0	1	0
247	682	7	10000	1	1	0	1	0
247	683	7	10000	1	1	0	1	0
248	684	7	10000	1	1	0	1	0
247	685	7	10000	1	1	0	1	0
245	685	7	10000	1	1	0	1	0
246	686	7	10000	1	1	0	1	0
248	687	7	10000	1	1	0	1	0
247	688	7	10000	1	1	0	1	0
246	690	7	10000	1	1	0	1	0
239	691	7	10000	1	1	0	1	0
233	692	7	10000	1	1	0	1	0
228	693	7	10000	1	1	0	1	0
222	694	7	10000	1	1	0	1	0
219	695	7	10000	1	1	0	1	0
215	696	7	10000	1	1	0	1	0
211	697	7	10000	1	1	0	1	0
205	698	7	10000	1	1	0	1	0
198	699	7	10000	1	1	0	1	0
189	700	7	10000	1	1	0	1	0
183	701	7	10000	1	1	0	1	0
181	701	7	10000	1	1	0	1	0
180	702	7	10000	1	1	0	1	0
178	703	7	10000	1	1	0	1	0
176	704	7	10000	1	1	0	1	0
174	705	7	10000	1	1	0	1	0
171	706	7	10000	1	1	0	1	0
167	708	7	10000	1	1	0	1	0
162	709	7	10000	1	1	0	1	0
157	710	7	10000	1	1	0	1	0
153	711	7	10000	1	1	0	1	0
149	712	7	10000	1	1	0	1	0
146	713	7	10000	1	1	0	1	0
144	713	7	10000	1	1	0	1	0
142	714	7	10000	1	1	0	1	0
140	715	7	10000	1	1	0	1	0
139	716	7	10000	1	1	0	1	0
139	719	7	10000	1	1	0	1	0
137	720	7	10000	1	1	0	1	0
134	721	7	10000	1	1	0	1	0
133	722	7	10000	1	1	0	1	0
133	723	7	10000	1	1	0	1	0
131	724	7	10000	1	1	0	1	0
130	725	7	10000	1	1	0	1	0
130	726	7	10000	1	1	0	1	0
127	724	7	10000	1	1	0	1	0
124	725	7	10000	1	1	0	1	0
121	726	7	10000	1	1	0	1	0
115	727	7	10000	1	1	0	1	0
112	729	7	10000	1	1	0	1	0
109	730	7	10000	1	1	0	1	0
103	731	7	10000	1	1	0	1	0
99	732	7	10000	1	1	0	1	0
95	733	7	10000	1	1	0	1	0
91	734	7	10000	1	1	0	1	0
87	736	7	10000	1	1	0	1	0
84	737	7	10000	1	1	0	1	0
81	738	7	10000	1	1	0	1	0
79	739	7	10000	1	1	0	1	0
74	740	7	10000	1	1	0	1	0
69	741	7	10000	1	1	0	1	0
67	740	7	10000	1	1	0	1	0
65	741	7	10000	1	1	0	1	0
63	742	7	10000	1	1	0	1	0
61	743	7	10000	1	1	0	1	0
59	746	7	10000	1	1	0	1	0
56	747	7	10000	1	1	0	1	0
54	748	7	10000	1	1	0	1	0
52	749	7	10000	1	1	0	1	0
52	750	7	10000	1	1	0	1	0
55	751	7	10000	1	1	0	1	0
55	751	7	10000	1	1	0	1	0
54	752	7	10000	1	1	0	1	0
52	753	7	10000	1	1	0	1	0
50	754	7	10000	1	1	0	1	0
49	755	7	10000	1	1	0	1	0
48	756	7	10000	1	1	0	1	0
47	758	7	10000	1	1	0	1	0
47	759	7	10000	1	1	0	1	0
45	760	7	10000	1	1	0	1	0
44	761	7	10000	1	1	0	1	0
44	762	7	10000	1	1	0	1	0
43	763	7	10000	1	1	0	1	0
41	760	7	10000	1	1	0	1	0
40	761	7	10000	1	1	0	1	0
40	762	7	10000	1	1	0	1	0
40	763	7	10000	1	1	0	1	0
41	764	7	10000	1	1	0	1	0
41	765	7	10000	1	1	0	1	0
42	766	7	10000	1	1	0	1	0
43	767	7	10000	1	1	0	1	0
42	768	7	10000	1	1	0	1	0
41	769	7	10000	1	1	0	1	0
42	770	7	10000	1	1	0	1	0
44	771	7	10000	1	1	0	1	0
46	772	7	10000	1	1	0	1	0
47	773	7	10000	1	1	0	1	0
49	774	7	10000	1	1	0	1	0
51	775	7	10000	1	1	0	1	0
51	776	7	10000	1	1	0	1	0
51	777	7	10000	1	1	0	1	0
50	778	7	10000	1	1	0	1	0
49	779	7	10000	1	1	0	1	0
47	780	7	10000	1	1	0	1	0
46	781	7	10000	1	1	0	1	0
44	782	7	10000	1	1	0	1	0
42	783	7	10000	1	1	0	1	0
40	784	7	10000	1	1	0	1	0
39	785	7	10000	1	1	0	1	0
39	786	7	10000	1	1	0	1	0
38	787	7	10000	1	1	0	1	0
36	788	7	10000	1	1	0	1	0
35	789	7	10000	1	1	0	1	0
33	790	7	10000	1	1	0	1	0
33	791	7	10000	1	1	0	1	0
34	792	7	10000	1	1	0	1	0
33	793	7	10000	1	1	0	1	0
33	794	7	10000	1	1	0	1	0
33	795	7	10000	1	1	0	1	0
31	796	7	10000	1	1	0	1	0
29	797	7	10000	1	1	0	1	0
28	798	7	10000	1	1	0	1	0
27	799	7	10000	1	1	0	1	0
26	800	7	10000	1	1	0	1	0
26	801	7	10000	1	1	0	1	0
25	802	7	10000	1	1	0	1	0
25	803	7	10000	1	1	0	1	0
25	804	7	10000	1	1	0	1	0
26	805	7	10000	1	1	0	1	0
29	806	7	10000	1	1	0	1	0
30	807	7	10000	1	1	0	1	0
32	808	7	10000	1	1	0	1	0
32	809	7	10000	1	1	0	1	0
31	810	7	10000	1	1	0	1	0
31	811	7	10000	1	1	0	1	0
31	812	7	10000	1	1	0	1	0
31	813	7	10000	1	1	0	1	0
32	814	7	10000	1	1	0	1	0
31	815	7	10000	1	1	0	1	0
29	816	7	10000	1	1	0	1	0
30	817	7	10000	1	1	0	1	0
30	818	7	10000	1	1	0	1	0
29	819	7	10000	1	1	0	1	0
28	820	7	10000	1	1	0	1	0
27	821	7	10000	1	1	0	1	0
27	822	7	10000	1	1	0	1	0
28	823	7	10000	1	1	0	1	0
28	824	7	10000	1	1	0	1	0
26	825	7	10000	1	1	0	1	0
26	826	7	10000	1	1	0	1	0
27	827	7	10000	1	1	0	1	0
26	828	7	10000	1	1	0	1	0
26	829	7	10000	1	1	0	1	0
25	830	7	10000	1	1	0	1	0
25	831	7	10000	1	1	0	1	0
25	832	7	10000	1	1	0	1	0
24	833	7	10000	1	1	0	1	0
23	834	7	10000	1	1	0	1	0
23	835	7	10000	1	1	0	1	0
20	836	7	10000	1	1	0	1	0
19	837	7	10000	1	1	0	1	0
19	838	7	10000	1	1	0	1	0
19	839	7	10000	1	1	0	1	0
19	840	7	10000	1	1	0	1	0
20	841	7	10000	1	1	0	1	0
19	842	7	10000	1	1	0	1	0
20	843	7	10000	1	1	0	1	0
21	844	7	10000	1	1	0	1	0
21	845	7	10000	1	1	0	1	0
23	846	7	10000	1	1	0	1	0
26	847	7	10000	1	1	0	1	0
25	848	7	10000	1	1	0	1	0
24	849	7	10000	1	1	0	1	0
26	850	7	10000	1	1	0	1	0
27	851	7	10000	1	1	0	1	0
28	852	7	10000	1	1	0	1	0
30	853	7	10000	1	1	0	1	0
31	854	7	10000	1	1	0	1	0
30	855	7	10000	1	1	0	1	0
28	856	7	10000	1	1	0	1	0
27	857	7	10000	1	1	0	1	0
28	858	7	10000	1	1	0	1	0
28	859	7	10000	1	1	0	1	0
28	860	7	10000	1	1	0	1	0
28	861	7	10000	1	1	0	1	0
27	862	7	10000	1	1	0	1	0
25	863	7	10000	1	1	0	1	0
24	864	7	10000	1	1	0	1	0
23	865	7	10000	1	1	0	1	0
24	866	7	10000	1	1	0	1	0
24	867	7	10000	1	1	0	1	0
23	868	7	10000	1	1	0	1	0
22	869	7	10000	1	1	0	1	0
22	870	7	10000	1	1	0	1	0
22	871	7	10000	1	1	0	1	0
23	872	7	10000	1	1	0	1	0
22	873	7	10000	1	1	0	1	0
21	874	7	10000	1	1	0	1	0
21	875	7	10000	1	1	0	1	0
20	876	7	10000	1	1	0	1	0
18	877	7	10000	1	1	0	1	0
19	878	7	10000	1	1	0	1	0
20	879	7	10000	1	1	0	1	0
22	880	7	10000	1	1	0	1	0
23	881	7	10000	1	1	0	1	0
23	882	7	10000	1	1	0	1	0
21	883	7	10000	1	1	0	1	0
20	884	7	10000	1	1	0	1	0
20	885	7	10000	1	1	0	1	0
20	886	7	10000	1	1	0	1	0
22	887	7	10000	1	1	0	1	0
23	888	7	10000	1	1	0	1	0
24	889	7	10000	1	1	0	1	0
24	890	7	10000	1	1	0	1	0
24	891	7	10000	1	1	0	1	0
23	892	7	10000	1	1	0	1	0
23	893	7	10000	1	1	0	1	0
22	894	7	10000	1	1	0	1	0
22	895	7	10000	1	1	0	1	0
21	896	7	10000	1	1	0	1	0
21	897	7	10000	1	1	0	1	0
21	898	7	10000	1	1	0	1	0
21	899	7	10000	1	1	0	1	0
24	900	7	10000	1	1	0	1	0
25	901	7	10000	1	1	0	1	0
25	902	7	10000	1	1	0	1	0
24	903	7	10000	1	1	0	1	0
23	904	7	10000	1	1	0	1	0
22	905	7	10000	1	1	0	1	0
23	906	7	10000	1	1	0	1	0
23	907	7	10000	1	1	0	1	0
22	908	7	10000	1	1	0	1	0
23	909	7	10000	1	1	0	1	0
22	910	7	10000	1	1	0	1	0
22	911	7	10000	1	1	0	1	0
21	912	7	10000	1	1	0	1	0
21	913	7	10000	1	1	0	1	0
22	914	7	10000	1	1	0	1	0
23	915	7	10000	1	1	0	1	0
20	916	7	10000	1	1	0	1	0
20	917	7	10000	1	1	0	1	0
20	918	7	10000	1	1	0	1	0
22	919	7	10000	1	1	0	1	0
22	920	7	10000	1	1	0	1	0
21	921	7	10000	1	1	0	1	0
20	922	7	10000	1	1	0	1	0
21	923	7	10000	1	1	0	1	0
22	924	7	10000	1	1	0	1	0
22	925	7	10000	1	1	0	1	0
23	926	7	10000	1	1	0	1	0
22	927	7	10000	1	1	0	1	0
23	928	7	10000	1	1	0	1	0
24	929	7	10000	1	1	0	1	0
23	930	7	10000	1	1	0	1	0
24	931	7	10000	1	1	0	1	0
28	932	7	10000	1	1	0	1	0
33	933	7	10000	1	1	0	1	0
36	934	7	10000	1	1	0	1	0
39	935	7	10000	1	1	0	1	0
38	936	7	10000	1	1	0	1	0
35	937	7	10000	1	1	0	1	0
34	938	7	10000	1	1	0	1	0
33	939	7	10000	1	1	0	1	0
33	940	7	10000	1	1	0	1	0
32	941	7	10000	1	1	0	1	0
32	942	7	10000	1	1	0	1	0
31	943	7	10000	1	1	0	1	0
29	944	7	10000	1	1	0	1	0
27	945	7	10000	1	1	0	1	0
28	946	7	10000	1	1	0	1	0
28	947	7	10000	1	1	0	1	0
28	948	7	10000	1	1	0	1	0
28	949	7	10000	1	1	0	1	0
28	950	7	10000	1	1	0	1	0
27	951	7	10000	1	1	0	1	0
26	952	7	10000	1	1	0	1	0
25	953	7	10000	1	1	0	1	0
26	954	7	10000	1	1	0	1	0
28	955	7	10000	1	1	0	1	0
27	956	7	10000	1	1	0	1	0
26	957	7	10000	1	1	0	1	0
28	958	7	10000	1	1	0	1	0
27	959	7	10000	1	1	0	1	0
26	960	7	10000	1	1	0	1	0
25	961	7	10000	1	1	0	1	0
25	962	7	10000	1	1	0	1	0
24	963	7	10000	1	1	0	1	0
23	964	7	10000	1	1	0	1	0
23	965	7	10000	1	1	0	1	0
24	966	7	10000	1	1	0	1	0
25	967	7	10000	1	1	0	1	0
25	968	7	10000	1	1	0	1	0
24	969	7	10000	1	1	0	1	0
24	970	7	10000	1	1	0	1	0
23	971	7	10000	1	1	0	1	0
23	972	7	10000	1	1	0	1	0
22	973	7	10000	1	1	0	1	0
24	974	7	10000	1	1	0	1	0
25	975	7	10000	1	1	0	1	0
24	976	7	10000	1	1	0	1	0
23	977	7	10000	1	1	0	1	0
26	978	7	10000	1	1	0	1	0
28	979	7	10000	1	1	0	1	0
29	980	7	10000	1	1	0	1	0
30	981	7	10000	1	1	0	1	0
30	982	7	10000	1	1	0	1	0
29	983	7	10000	1	1	0	1	0
28	984	7	10000	1	1	0	1	0
28	985	7	10000	1	1	0	1	0
29	986	7	10000	1	1	0	1	0
29	987	7	10000	1	1	0	1	0
28	988	7	10000	1	1	0	1	0
27	989	7	10000	1	1	0	1	0
26	990	7	10000	1	1	0	1	0
27	991	7	10000	1	1	0	1	0
26	992	7	10000	1	1	0	1	0
27	993	7	10000	1	1	0	1	0
27	994	7	10000	1	1	0	1	0
27	995	7	10000	1	1	0	1	0
27	996	7	10000	1	1	0	1	0
26	997	7	10000	1	1	0	1	0
26	998	7	10000	1	1	0	1	0
27	999	7	10000	1	1	0	1	0
26	1000	7	10000	1	1	0	1	0
24	1001	7	10000	1	1	0	1	0
25	1	7	10000	2	1	0	2	0
24	2	7	10000	2	1	0	2	0
25	3	7	10000	2	1	0	2	0
25	4	7	10000	2	1	0	2	0
24	5	7	10000	2	1	0	2	0
24	6	7	10000	2	1	0	2	0
24	7	7	10000	2	1	0	2	0
24	8	7	10000	2	1	0	2	0
23	9	7	10000	2	1	0	2	0
23	10	7	10000	2	1	0	2	0
23	11	7	10000	2	1	0	2	0
22	12	7	10000	2	1	0	2	0
21	13	7	10000	2	1	0	2	0
20	14	7	10000	2	1	0	2	0
21	15	7	10000	2	1	0	2	0
21	16	7	10000	2	1	0	2	0
20	17	7	10000	2	1	0	2	0
20	18	7	10000	2	1	0	2	0
20	19	7	10000	2	1	0	2	0
19	20	7	10000	2	1	0	2	0
18	21	7	10000	2	1	0	2	0
19	22	7	10000	2	1	0	2	0
21	23	7	10000	2	1	0	2	0
25	24	7	10000	2	1	0	2	0
30	25	7	10000	2	1	0	2	0
37	26	7	10000	2	1	0	2	0
45	27	7	10000	2	1	0	2	0
52	28	7	10000	2	1	0	2	0
56	29	7	10000	2	1	0	2	0
58	30	7	10000	2	1	0	2	0
58	31	7	10000	2	1	0	2	0
56	32	7	10000	2	1	0	2	0
55	33	7	10000	2	1	0	2	0
54	34	7	10000	2	1	0	2	0
52	35	7	10000	2	1	0	2	0
50	36	7	10000	2	1	0	2	0
50	37	7	10000	2	1	0	2	0
56	38	7	10000	2	1	0	2	0
66	39	7	10000	2	1	0	2	0
75	40	7	10000	2	1	0	2	0
85	41	7	10000	2	1	0	2	0
96	42	7	10000	2	1	0	2	0
107	43	7	10000	2	1	0	2	0
116	44	7	10000	2	1	0	2	0
123	45	7	10000	2	1	0	2	0
127	46	7	10000	2	1	0	2	0
131	47	7	10000	2	1	0	2	0
134	48	7	10000	2	1	0	2	0
136	49	7	10000	2	1	0	2	0
135	50	7	10000	2	1	0	2	0
134	51	7	10000	2	1	0	2	0
135	52	7	10000	2	1	0	2	0
140	53	7	10000	2	1	0	2	0
145	54	7	10000	2	1	0	2	0
152	55	7	10000	2	1	0	2	0
159	56	7	10000	2	1	0	2	0
164	57	7	10000	2	1	0	2	0
169	58	7	10000	2	1	0	2	0
173	59	7	10000	2	1	0	2	0
172	60	7	10000	2	1	0	2	0
168	61	7	10000	2	1	0	2	0
164	62	7	10000	2	1	0	2	0
158	63	7	10000	2	1	0	2	0
151	64	7	10000	2	1	0	2	0
144	65	7	10000	2	1	0	2	0
140	66	7	10000	2	1	0	2	0
137	67	7	10000	2	1	0	2	0
136	68	7	10000	2	1	0	2	0
135	69	7	10000	2	1	0	2	0
137	70	7	10000	2	1	0	2	0
139	71	7	10000	2	1	0	2	0
139	72	7	10000	2	1	0	2	0
141	73	7	10000	2	1	0	2	0
143	74	7	10000	2	1	0	2	0
147	75	7	10000	2	1	0	2	0
151	76	7	10000	2	1	0	2	0
155	77	7	10000	2	1	0	2	0
160	78	7	10000	2	1	0	2	0
164	79	7	10000	2	1	0	2	0
168	80	7	10000	2	1	0	2	0
172	81	7	10000	2	1	0	2	0
177	82	7	10000	2	1	0	2	0
182	83	7	10000	2	1	0	2	0
187	84	7	10000	2	1	0	2	0
190	85	7	10000	2	1	0	2	0
193	86	7	10000	2	1	0	2	0
194	87	7	10000	2	1	0	2	0
195	88	7	10000	2	1	0	2	0
193	89	7	10000	2	1	0	2	0
193	90	7	10000	2	1	0	2	0
193	91	7	10000	2	1	0	2	0
190	92	7	10000	2	1	0	2	0
188	93	7	10000	2	1	0	2	0
186	94	7	10000	2	1	0	2	0
183	95	7	10000	2	1	0	2	0
180	96	7	10000	2	1	0	2	0
179	97	7	10000	2	1	0	2	0
177	98	7	10000	2	1	0	2	0
176	99	7	10000	2	1	0	2	0
176	100	7	10000	2	1	0	2	0
174	101	7	10000	2	1	0	2	0
173	102	7	10000	2	1	0	2	0
173	103	7	10000	2	1	0	2	0
171	104	7	10000	2	1	0	2	0
168	105	7	10000	2	1	0	2	0
166	106	7	10000	2	1	0	2	0
164	107	7	10000	2	1	0	2	0
159	108	7	10000	2	1	0	2	0
153	109	7	10000	2	1	0	2	0
149	110	7	10000	2	1	0	2	0
146	111	7	10000	2	1	0	2	0
140	112	7	10000	2	1	0	2	0
135	113	7	10000	2	1	0	2	0
130	114	7	10000	2	1	0	2	0
126	115	7	10000	2	1	0	2	0
122	116	7	10000	2	1	0	2	0
120	117	7	10000	2	1	0	2	0
118	118	7	10000	2	1	0	2	0
115	119	7	10000	2	1	0	2	0
111	120	7	10000	2	1	0	2	0
106	121	7	10000	2	1	0	2	0
104	122	7	10000	2	1	0	2	0
103	123	7	10000	2	1	0	2	0
102	124	7	10000	2	1	0	2	0
99	125	7	10000	2	1	0	2	0
96	126	7	10000	2	1	0	2	0
92	127	7	10000	2	1	0	2	0
87	128	7	10000	2	1	0	2	0
83	129	7	10000	2	1	0	2	0
80	130	7	10000	2	1	0	2	0
77	131	7	10000	2	1	0	2	0
75	132	7	10000	2	1	0	2	0
72	133	7	10000	2	1	0	2	0
69	134	7	10000	2	1	0	2	0
68	135	7	10000	2	1	0	2	0
64	136	7	10000	2	1	0	2	0
61	137	7	10000	2	1	0	2	0
62	138	7	10000	2	1	0	2	0
60	139	7	10000	2	1	0	2	0
56	140	7	10000	2	1	0	2	0
54	141	7	10000	2	1	0	2	0
52	142	7	10000	2	1	0	2	0
50	143	7	10000	2	1	0	2	0
49	144	7	10000	2	1	0	2	0
47	145	7	10000	2	1	0	2	0
46	146	7	10000	2	1	0	2	0
45	147	7	10000	2	1	0	2	0
45	148	7	10000	2	1	0	2	0
44	149	7	10000	2	1	0	2	0
43	150	7	10000	2	1	0	2	0
42	151	7	10000	2	1	0	2	0
41	152	7	10000	2	1	0	2	0
40	153	7	10000	2	1	0	2	0
38	154	7	10000	2	1	0	2	0
37	155	7	10000	2	1	0	2	0
36	156	7	10000	2	1	0	2	0
35	157	7	10000	2	1	0	2	0
34	158	7	10000	2	1	0	2	0
33	159	7	10000	2	1	0	2	0
31	160	7	10000	2	1	0	2	0
30	161	7	10000	2	1	0	2	0
30	162	7	10000	2	1	0	2	0
31	163	7	10000	2	1	0	2	0
33	164	7	10000	2	1	0	2	0
34	165	7	10000	2	1	0	2	0
34	166	7	10000	2	1	0	2	0
33	167	7	10000	2	1	0	2	0
32	168	7	10000	2	1	0	2	0
32	169	7	10000	2	1	0	2	0
34	170	7	10000	2	1	0	2	0
35	171	7	10000	2	1	0	2	0
35	172	7	10000	2	1	0	2	0
35	173	7	10000	2	1	0	2	0
32	174	7	10000	2	1	0	2	0
33	175	7	10000	2	1	0	2	0
34	176	7	10000	2	1	0	2	0
33	177	7	10000	2	1	0	2	0
34	178	7	10000	2	1	0	2	0
38	179	7	10000	2	1	0	2	0
40	180	7	10000	2	1	0	2	0
44	181	7	10000	2	1	0	2	0
50	182	7	10000	2	1	0	2	0
56	183	7	10000	2	1	0	2	0
61	184	7	10000	2	1	0	2	0
63	185	7	10000	2	1	0	2	0
62	186	7	10000	2	1	0	2	0
60	187	7	10000	2	1	0	2	0
57	188	7	10000	2	1	0	2	0
56	189	7	10000	2	1	0	2	0
55	190	7	10000	2	1	0	2	0
55	191	7	10000	2	1	0	2	0
56	192	7	10000	2	1	0	2	0
57	193	7	10000	2	1	0	2	0
62	194	7	10000	2	1	0	2	0
70	195	7	10000	2	1	0	2	0
78	196	7	10000	2	1	0	2	0
89	197	7	10000	2	1	0	2	0
100	198	7	10000	2	1	0	2	0
113	199	7	10000	2	1	0	2	0
123	200	7	10000	2	1	0	2	0
132	201	7	10000	2	1	0	2	0
142	202	7	10000	2	1	0	2	0
150	203	7	10000	2	1	0	2	0
157	204	7	10000	2	1	0	2	0
165	205	7	10000	2	1	0	2	0
174	206	7	10000	2	1	0	2	0
182	207	7	10000	2	1	0	2	0
189	208	7	10000	2	1	0	2	0
194	209	7	10000	2	1	0	2	0
198	210	7	10000	2	1	0	2	0
202	211	7	10000	2	1	0	2	0
201	212	7	10000	2	1	0	2	0
198	213	7	10000	2	1	0	2	0
193	214	7	10000	2	1	0	2	0
187	215	7	10000	2	1	0	2	0
182	216	7	10000	2	1	0	2	0
176	217	7	10000	2	1	0	2	0
169	218	7	10000	2	1	0	2	0
164	219	7	10000	2	1	0	2	0
157	220	7	10000	2	1	0	2	0
150	221	7	10000	2	1	0	2	0
145	222	7	10000	2	1	0	2	0
140	223	7	10000	2	1	0	2	0
134	224	7	10000	2	1	0	2	0
131	225	7	10000	2	1	0	2	0
131	226	7	10000	2	1	0	2	0
133	227	7	10000	2	1	0	2	0
137	228	7	10000	2	1	0	2	0
141	229	7	10000	2	1	0	2	0
148	230	7	10000	2	1	0	2	0
155	231	7	10000	2	1	0	2	0
161	232	7	10000	2	1	0	2	0
166	233	7	10000	2	1	0	2	0
171	234	7	10000	2	1	0	2	0
178	235	7	10000	2	1	0	2	0
185	236	7	10000	2	1	0	2	0
191	237	7	10000	2	1	0	2	0
197	238	7	10000	2	1	0	2	0
203	239	7	10000	2	1	0	2	0
209	240	7	10000	2	1	0	2	0
214	241	7	10000	2	1	0	2	0
220	242	7	10000	2	1	0	2	0
224	243	7	10000	2	1	0	2	0
227	244	7	10000	2	1	0	2	0
231	245	7	10000	2	1	0	2	0
233	246	7	10000	2	1	0	2	0
237	247	7	10000	2	1	0	2	0
239	248	7	10000	2	1	0	2	0
242	249	7	10000	2	1	0	2	0
244	250	7	10000	2	1	0	2	0
247	251	7	10000	2	1	0	2	0
248	252	7	10000	2	1	0	2	0
247	253	7	10000	2	1	0	2	0
245	254	7	10000	2	1	0	2	0
244	255	7	10000	2	1	0	2	0
240	256	7	10000	2	1	0	2	0
238	257	7	10000	2	1	0	2	0
238	258	7	10000	2	1	0	2	0
237	259	7	10000	2	1	0	2	0
235	260	7	10000	2	1	0	2	0
232	261	7	10000	2	1	0	2	0
229	262	7	10000	2	1	0	2	0
225	263	7	10000	2	1	0	2	0
222	264	7	10000	2	1	0	2	0
218	265	7	10000	2	1	0	2	0
214	266	7	10000	2	1	0	2	0
211	267	7	10000	2	1	0	2	0
207	268	7	10000	2	1	0	2	0
204	269	7	10000	2	1	0	2	0
201	270	7	10000	2	1	0	2	0
196	271	7	10000	2	1	0	2	0
190	272	7	10000	2	1	0	2	0
186	273	7	10000	2	1	0	2	0
182	274	7	10000	2	1	0	2	0
177	275	7	10000	2	1	0	2	0
173	276	7	10000	2	1	0	2	0
169	277	7	10000	2	1	0	2	0
166	278	7	10000	2	1	0	2	0
164	279	7	10000	2	1	0	2	0
162	280	7	10000	2	1	0	2	0
159	281	7	10000	2	1	0	2	0
158	282	7	10000	2	1	0	2	0
154	283	7	10000	2	1	0	2	0
149	284	7	10000	2	1	0	2	0
145	285	7	10000	2	1	0	2	0
140	286	7	10000	2	1	0	2	0
136	287	7	10000	2	1	0	2	0
131	288	7	10000	2	1	0	2	0
127	289	7	10000	2	1	0	2	0
124	290	7	10000	2	1	0	2	0
118	291	7	10000	2	1	0	2	0
113	292	7	10000	2	1	0	2	0
108	293	7	10000	2	1	0	2	0
103	294	7	10000	2	1	0	2	0
99	295	7	10000	2	1	0	2	0
95	296	7	10000	2	1	0	2	0
91	297	7	10000	2	1	0	2	0
89	298	7	10000	2	1	0	2	0
88	299	7	10000	2	1	0	2	0
85	300	7	10000	2	1	0	2	0
81	301	7	10000	2	1	0	2	0
79	302	7	10000	2	1	0	2	0
76	303	7	10000	2	1	0	2	0
73	304	7	10000	2	1	0	2	0
70	305	7	10000	2	1	0	2	0
67	306	7	10000	2	1	0	2	0
65	307	7	10000	2	1	0	2	0
61	308	7	10000	2	1	0	2	0
59	309	7	10000	2	1	0	2	0
57	310	7	10000	2	1	0	2	0
56	311	7	10000	2	1	0	2	0
55	312	7	10000	2	1	0	2	0
53	313	7	10000	2	1	0	2	0
51	314	7	10000	2	1	0	2	0
49	315	7	10000	2	1	0	2	0
47	316	7	10000	2	1	0	2	0
46	317	7	10000	2	1	0	2	0
47	318	7	10000	2	1	0	2	0
47	319	7	10000	2	1	0	2	0
46	320	7	10000	2	1	0	2	0
45	321	7	10000	2	1	0	2	0
45	322	7	10000	2	1	0	2	0
44	323	7	10000	2	1	0	2	0
43	324	7	10000	2	1	0	2	0
42	325	7	10000	2	1	0	2	0
42	326	7	10000	2	1	0	2	0
41	327	7	10000	2	1	0	2	0
41	328	7	10000	2	1	0	2	0
38	329	7	10000	2	1	0	2	0
38	330	7	10000	2	1	0	2	0
39	331	7	10000	2	1	0	2	0
37	332	7	10000	2	1	0	2	0
38	333	7	10000	2	1	0	2	0
38	334	7	10000	2	1	0	2	0
36	335	7	10000	2	1	0	2	0
34	336	7	10000	2	1	0	2	0
35	337	7	10000	2	1	0	2	0
33	338	7	10000	2	1	0	2	0
33	339	7	10000	2	1	0	2	0
31	340	7	10000	2	1	0	2	0
29	341	7	10000	2	1	0	2	0
29	342	7	10000	2	1	0	2	0
28	343	7	10000	2	1	0	2	0
28	344	7	10000	2	1	0	2	0
29	345	7	10000	2	1	0	2	0
29	346	7	10000	2	1	0	2	0
28	347	7	10000	2	1	0	2	0
27	348	7	10000	2	1	0	2	0
27	349	7	10000	2	1	0	2	0
28	350	7	10000	2	1	0	2	0
29	351	7	10000	2	1	0	2	0
27	352	7	10000	2	1	0	2	0
26	353	7	10000	2	1	0	2	0
25	354	7	10000	2	1	0	2	0
24	355	7	10000	2	1	0	2	0
23	356	7	10000	2	1	0	2	0
23	357	7	10000	2	1	0	2	0
25	358	7	10000	2	1	0	2	0
26	359	7	10000	2	1	0	2	0
24	360	7	10000	2	1	0	2	0
23	361	7	10000	2	1	0	2	0
23	362	7	10000	2	1	0	2	0
23	363	7	10000	2	1	0	2	0
24	364	7	10000	2	1	0	2	0
23	365	7	10000	2	1	0	2	0
23	366	7	10000	2	1	0	2	0
22	367	7	10000	2	1	0	2	0
21	368	7	10000	2	1	0	2	0
20	369	7	10000	2	1	0	2	0
20	370	7	10000	2	1	0	2	0
20	371	7	10000	2	1	0	2	0
21	372	7	10000	2	1	0	2	0
21	373	7	10000	2	1	0	2	0
21	374	7	10000	2	1	0	2	0
21	375	7	10000	2	1	0	2	0
20	376	7	10000	2	1	0	2	0
21	377	7	10000	2	1	0	2	0
24	378	7	10000	2	1	0	2	0
25	379	7	10000	2	1	0	2	0
24	380	7	10000	2	1	0	2	0
24	381	7	10000	2	1	0	2	0
23	382	7	10000	2	1	0	2	0
23	383	7	10000	2	1	0	2	0
23	384	7	10000	2	1	0	2	0
22	385	7	10000	2	1	0	2	0
21	386	7	10000	2	1	0	2	0
21	387	7	10000	2	1	0	2	0
20	388	7	10000	2	1	0	2	0
20	389	7	10000	2	1	0	2	0
24	390	7	10000	2	1	0	2	0
26	391	7	10000	2	1	0	2	0
27	392	7	10000	2	1	0	2	0
26	393	7	10000	2	1	0	2	0
25	394	7	10000	2	1	0	2	0
24	395	7	10000	2	1	0	2	0
23	396	7	10000	2	1	0	2	0
23	397	7	10000	2	1	0	2	0
22	398	7	10000	2	1	0	2	0
23	399	7	10000	2	1	0	2	0
21	400	7	10000	2	1	0	2	0
20	401	7	10000	2	1	0	2	0
20	402	7	10000	2	1	0	2	0
20	403	7	10000	2	1	0	2	0
19	404	7	10000	2	1	0	2	0
19	405	7	10000	2	1	0	2	0
20	406	7	10000	2	1	0	2	0
20	407	7	10000	2	1	0	2	0
19	408	7	10000	2	1	0	2	0
19	409	7	10000	2	1	0	2	0
21	410	7	10000	2	1	0	2	0
22	411	7	10000	2	1	0	2	0
23	412	7	10000	2	1	0	2	0
23	413	7	10000	2	1	0	2	0
22	414	7	10000	2	1	0	2	0
22	415	7	10000	2	1	0	2	0
22	416	7	10000	2	1	0	2	0
22	417	7	10000	2	1	0	2	0
21	418	7	10000	2	1	0	2	0
20	419	7	10000	2	1	0	2	0
19	420	7	10000	2	1	0	2	0
18	421	7	10000	2	1	0	2	0
17	422	7	10000	2	1	0	2	0
18	423	7	10000	2	1	0	2	0
19	424	7	10000	2	1	0	2	0
19	425	7	10000	2	1	0	2	0
18	426	7	10000	2	1	0	2	0
18	427	7	10000	2	1	0	2	0
18	428	7	10000	2	1	0	2	0
17	429	7	10000	2	1	0	2	0
19	430	7	10000	2	1	0	2	0
20	431	7	10000	2	1	0	2	0
19	432	7	10000	2	1	0	2	0
18	433	7	10000	2	1	0	2	0
18	434	7	10000	2	1	0	2	0
18	435	7	10000	2	1	0	2	0
17	436	7	10000	2	1	0	2	0
17	437	7	10000	2	1	0	2	0
17	438	7	10000	2	1	0	2	0
18	439	7	10000	2	1	0	2	0
17	440	7	10000	2	1	0	2	0
16	441	7	10000	2	1	0	2	0
16	442	7	10000	2	1	0	2	0
16	443	7	10000	2	1	0	2	0
17	444	7	10000	2	1	0	2	0
18	445	7	10000	2	1	0	2	0
18	446	7	10000	2	1	0	2	0
16	447	7	10000	2	1	0	2	0
17	448	7	10000	2	1	0	2	0
15	449	7	10000	2	1	0	2	0
16	450	7	10000	2	1	0	2	0
18	451	7	10000	2	1	0	2	0
16	452	7	10000	2	1	0	2	0
16	453	7	10000	2	1	0	2	0
16	454	7	10000	2	1	0	2	0
16	455	7	10000	2	1	0	2	0
15	456	7	10000	2	1	0	2	0
16	457	7	10000	2	1	0	2	0
17	458	7	10000	2	1	0	2	0
18	459	7	10000	2	1	0	2	0
19	460	7	10000	2	1	0	2	0
19	461	7	10000	2	1	0	2	0
21	462	7	10000	2	1	0	2	0
23	463	7	10000	2	1	0	2	0
23	464	7	10000	2	1	0	2	0
24	465	7	10000	2	1	0	2	0
26	466	7	10000	2	1	0	2	0
26	467	7	10000	2	1	0	2	0
25	468	7	10000	2	1	0	2	0
25	469	7	10000	2	1	0	2	0
26	470	7	10000	2	1	0	2	0
27	471	7	10000	2	1	0	2	0
25	472	7	10000	2	1	0	2	0
24	473	7	10000	2	1	0	2	0
23	474	7	10000	2	1	0	2	0
22	475	7	10000	2	1	0	2	0
21	476	7	10000	2	1	0	2	0
20	477	7	10000	2	1	0	2	0
20	478	7	10000	2	1	0	2	0
20	479	7	10000	2	1	0	2	0
19	480	7	10000	2	1	0	2	0
18	481	7	10000	2	1	0	2	0
18	482	7	10000	2	1	0	2	0
20	483	7	10000	2	1	0	2	0
21	484	7	10000	2	1	0	2	0
22	485	7	10000	2	1	0	2	0
22	486	7	10000	2	1	0	2	0
21	487	7	10000	2	1	0	2	0
21	488	7	10000	2	1	0	2	0
21	489	7	10000	2	1	0	2	0
22	490	7	10000	2	1	0	2	0
22	491	7	10000	2	1	0	2	0
21	492	7	10000	2	1	0	2	0
20	493	7	10000	2	1	0	2	0
20	494	7	10000	2	1	0	2	0
20	495	7	10000	2	1	0	2	0
20	496	7	10000	2	1	0	2	0
19	497	7	10000	2	1	0	2	0
19	498	7	10000	2	1	0	2	0
18	499	7	10000	2	1	0	2	0
17	500	7	10000	2	1	0	2	0
15	501	7	10000	2	1	0	2	1
17	502	7	10000	2	1	0	2	1
18	503	7	10000	2	1	0	2	1
20	504	7	10000	2	1	0	2	1
21	505	7	10000	2	1	0	2	1
22	506	7	10000	2	1	0	2	1
21	507	7	10000	2	1	0	2	1
20	508	7	10000	2	1	0	2	1
19	509	7	10000	2	1	0	2	1
21	510	7	10000	2	1	0	2	1
22	511	7	10000	2	1	0	2	1
22	512	7	10000	2	1	0	2	1
22	513	7	10000	2	1	0	2	1
20	514	7	10000	2	1	0	2	1
20	515	7	10000	2	1	0	2	1
20	516	7	10000	2	1	0	2	1
20	517	7	10000	2	1	0	2	1
20	518	7	10000	2	1	0	2	1
20	519	7	10000	2	1	0	2	1
18	520	7	10000	2	1	0	2	1
17	521	7	10000	2	1	0	2	1
18	522	7	10000	2	1	0	2	1
17	523	7	10000	2	1	0	2	1
18	524	7	10000	2	1	0	2	1
17	525	7	10000	2	1	0	2	1
17	526	7	10000	2	1	0	2	1
17	527	7	10000	2	1	0	2	1
16	528	7	10000	2	1	0	2	1
15	529	7	10000	2	1	0	2	1
16	530	7	10000	2	1	0	2	1
16	531	7	10000	2	1	0	2	1
16	532	7	10000	2	1	0	2	1
17	533	7	10000	2	1	0	2	1
17	534	7	10000	2	1	0	2	1
17	535	7	10000	2	1	0	2	1
17	536	7	10000	2	1	0	2	1
16	537	7	10000	2	1	0	2	1
18	538	7	10000	2	1	0	2	1
18	539	7	10000	2	1	0	2	1
17	540	7	10000	2	1	0	2	1
16	541	7	10000	2	1	0	2	1
16	542	7	10000	2	1	0	2	1
16	543	7	10000	2	1	0	2	1
16	544	7	10000	2	1	0	2	1
15	545	7	10000	2	1	0	2	1
15	546	7	10000	2	1	0	2	1
15	547	7	10000	2	1	0	2	1
15	548	7	10000	2	1	0	2	1
14	549	7	10000	2	1	0	2	1
17	550	7	10000	2	1	0	2	1
19	551	7	10000	2	1	0	2	0
18	552	7	10000	2	1	0	2	0
18	553	7	10000	2	1	0	2	0
17	554	7	10000	2	1	0	2	0
18	555	7	10000	2	1	0	2	0
17	556	7	10000	2	1	0	2	0
17	557	7	10000	2	1	0	2	0
17	558	7	10000	2	1	0	2	0
16	559	7	10000	2	1	0	2	0
15	560	7	10000	2	1	0	2	0
14	561	7	10000	2	1	0	2	0
15	562	7	10000	2	1	0	2	0
14	563	7	10000	2	1	0	2	0
15	564	7	10000	2	1	0	2	0
15	565	7	10000	2	1	0	2	0
15	566	7	10000	2	1	0	2	0
15	567	7	10000	2	1	0	2	0
15	568	7	10000	2	1	0	2	0
13	569	7	10000	2	1	0	2	0
14	570	7	10000	2	1	0	2	0
15	571	7	10000	2	1	0	2	0
13	572	7	10000	2	1	0	2	0
14	573	7	10000	2	1	0	2	0
15	574	7	10000	2	1	0	2	0
14	575	7	10000	2	1	0	2	0
14	576	7	10000	2	1	0	2	0
14	577	7	10000	2	1	0	2	0
15	578	7	10000	2	1	0	2	0
17	579	7	10000	2	1	0	2	0
15	580	7	10000	2	1	0	2	0
14	581	7	10000	2	1	0	2	0
14	582	7	10000	2	1	0	2	0
14	583	7	10000	2	1	0	2	0
13	584	7	10000	2	1	0	2	0
14	585	7	10000	2	1	0	2	0
14	586	7	10000	2	1	0	2	0
13	587	7	10000	2	1	0	2	0
13	588	7	10000	2	1	0	2	0
12	589	7	10000	2	1	0	2	0
13	590	7	10000	2	1	0	2	0
13	591	7	10000	2	1	0	2	0
13	592	7	10000	2	1	0	2	0
14	593	7	10000	2	1	0	2	0
15	594	7	10000	2	1	0	2	0
16	595	7	10000	2	1	0	2	0
16	596	7	10000	2	1	0	2	0
20	597	7	10000	2	1	0	2	0
28	598	7	10000	2	1	0	2	0
33	599	7	10000	2	1	0	2	0
37	600	7	10000	2	1	0	2	0
54	601	7	10000	2	1	0	2	0
76	602	7	10000	2	1	0	2	0
89	603	7	10000	2	1	0	2	0
119	604	7	10000	2	1	0	2	0
156	605	7	10000	2	1	0	2	0
172	606	7	10000	2	1	0	2	0
172	607	7	10000	2	1	0	2	0
184	608	7	10000	2	1	0	2	0
194	609	7	10000	2	1	0	2	0
213	610	7	10000	2	1	0	2	0
256	611	7	10000	2	1	0	2	0
262	612	7	10000	2	1	0	2	0
254	613	7	10000	2	1	0	2	0
260	614	7	10000	2	1	0	2	0
273	615	7	10000	2	1	0	2	0
269	616	7	10000	2	1	0	2	0
272	617	7	10000	2	1	0	2	0
269	618	7	10000	2	1	0	2	0
277	619	7	10000	2	1	0	2	0
281	620	7	10000	2	1	0	2	0
284	621	7	10000	2	1	0	2	0
288	622	7	10000	2	1	0	2	0
284	623	7	10000	2	1	0	2	0
273	624	7	10000	2	1	0	2	0
265	625	7	10000	2	1	0	2	0
262	626	7	10000	2	1	0	2	0
259	627	7	10000	2	1	0	2	0
254	628	7	10000	2	1	0	2	0
251	629	7	10000	2	1	0	2	0
250	630	7	10000	2	1	0	2	0
250	631	7	10000	2	1	0	2	0
248	632	7	10000	2	1	0	2	0
246	633	7	10000	2	1	0	2	0
245	634	7	10000	2	1	0	2	0
241	635	7	10000	2	1	0	2	0
238	636	7	10000	2	1	0	2	0
235	637	7	10000	2	1	0	2	0
232	638	7	10000	2	1	0	2	0
228	639	7	10000	2	1	0	2	0
223	640	7	10000	2	1	0	2	0
217	641	7	10000	2	1	0	2	0
212	642	7	10000	2	1	0	2	0
207	643	7	10000	2	1	0	2	0
201	644	7	10000	2	1	0	2	0
195	645	7	10000	2	1	0	2	0
188	646	7	10000	2	1	0	2	0
180	647	7	10000	2	1	0	2	0
173	648	7	10000	2	1	0	2	0
170	649	7	10000	2	1	0	2	0
169	650	7	10000	2	1	0	2	0
166	651	7	10000	2	1	0	2	0
164	652	7	10000	2	1	0	2	0
161	653	7	10000	2	1	0	2	0
158	654	7	10000	2	1	0	2	0
156	655	7	10000	2	1	0	2	0
152	656	7	10000	2	1	0	2	0
147	657	7	10000	2	1	0	2	0
142	658	7	10000	2	1	0	2	0
137	659	7	10000	2	1	0	2	0
131	660	7	10000	2	1	0	2	0
127	661	7	10000	2	1	0	2	0
121	662	7	10000	2	1	0	2	0
117	663	7	10000	2	1	0	2	0
114	664	7	10000	2	1	0	2	0
113	665	7	10000	2	1	0	2	0
114	666	7	10000	2	1	0	2	0
118	667	7	10000	2	1	0	2	0
121	668	7	10000	2	1	0	2	0
123	669	7	10000	2	1	0	2	0
127	670	7	10000	2	1	0	2	0
129	671	7	10000	2	1	0	2	0
128	672	7	10000	2	1	0	2	0
129	673	7	10000	2	1	0	2	0
129	674	7	10000	2	1	0	2	0
129	675	7	10000	2	1	0	2	0
127	676	7	10000	2	1	0	2	0
127	677	7	10000	2	1	0	2	0
127	678	7	10000	2	1	0	2	0
128	679	7	10000	2	1	0	2	0
127	680	7	10000	2	1	0	2	0
127	681	7	10000	2	1	0	2	0
128	682	7	10000	2	1	0	2	0
129	683	7	10000	2	1	0	2	0
129	684	7	10000	2	1	0	2	0
129	685	7	10000	2	1	0	2	0
125	686	7	10000	2	1	0	2	0
120	687	7	10000	2	1	0	2	0
117	688	7	10000	2	1	0	2	0
111	689	7	10000	2	1	0	2	0
108	690	7	10000	2	1	0	2	0
104	691	7	10000	2	1	0	2	0
99	692	7	10000	2	1	0	2	0
94	693	7	10000	2	1	0	2	0
89	694	7	10000	2	1	0	2	0
85	695	7	10000	2	1	0	2	0
81	696	7	10000	2	1	0	2	0
79	697	7	10000	2	1	0	2	0
77	698	7	10000	2	1	0	2	0
75	699	7	10000	2	1	0	2	0
72	700	7	10000	2	1	0	2	0
68	701	7	10000	2	1	0	2	0
65	702	7	10000	2	1	0	2	0
62	703	7	10000	2	1	0	2	0
60	704	7	10000	2	1	0	2	0
57	705	7	10000	2	1	0	2	0
56	706	7	10000	2	1	0	2	0
55	707	7	10000	2	1	0	2	0
55	708	7	10000	2	1	0	2	0
54	709	7	10000	2	1	0	2	0
56	710	7	10000	2	1	0	2	0
59	711	7	10000	2	1	0	2	0
61	712	7	10000	2	1	0	2	0
63	713	7	10000	2	1	0	2	0
64	714	7	10000	2	1	0	2	0
65	715	7	10000	2	1	0	2	0
63	716	7	10000	2	1	0	2	0
61	717	7	10000	2	1	0	2	0
60	718	7	10000	2	1	0	2	0
58	719	7	10000	2	1	0	2	0
56	720	7	10000	2	1	0	2	0
55	721	7	10000	2	1	0	2	0
54	722	7	10000	2	1	0	2	0
53	723	7	10000	2	1	0	2	0
51	724	7	10000	2	1	0	2	0
49	725	7	10000	2	1	0	2	0
49	726	7	10000	2	1	0	2	0
48	727	7	10000	2	1	0	2	0
47	728	7	10000	2	1	0	2	0
46	729	7	10000	2	1	0	2	0
46	730	7	10000	2	1	0	2	0
47	731	7	10000	2	1	0	2	0
48	732	7	10000	2	1	0	2	0
46	733	7	10000	2	1	0	2	0
46	734	7	10000	2	1	0	2	0
47	735	7	10000	2	1	0	2	0
47	736	7	10000	2	1	0	2	0
47	737	7	10000	2	1	0	2	0
47	738	7	10000	2	1	0	2	0
46	739	7	10000	2	1	0	2	0
43	740	7	10000	2	1	0	2	0
40	741	7	10000	2	1	0	2	0
40	742	7	10000	2	1	0	2	0
39	743	7	10000	2	1	0	2	0
38	744	7	10000	2	1	0	2	0
37	745	7	10000	2	1	0	2	0
36	746	7	10000	2	1	0	2	0
36	747	7	10000	2	1	0	2	0
36	748	7	10000	2	1	0	2	0
37	749	7	10000	2	1	0	2	0
39	750	7	10000	2	1	0	2	0
42	751	7	10000	2	1	0	2	0
43	752	7	10000	2	1	0	2	0
44	753	7	10000	2	1	0	2	0
44	754	7	10000	2	1	0	2	0
43	755	7	10000	2	1	0	2	0
43	756	7	10000	2	1	0	2	0
43	757	7	10000	2	1	0	2	0
43	758	7	10000	2	1	0	2	0
42	759	7	10000	2	1	0	2	0
38	760	7	10000	2	1	0	2	0
36	761	7	10000	2	1	0	2	0
36	762	7	10000	2	1	0	2	0
34	763	7	10000	2	1	0	2	0
35	764	7	10000	2	1	0	2	0
33	765	7	10000	2	1	0	2	0
32	766	7	10000	2	1	0	2	0
32	767	7	10000	2	1	0	2	0
29	768	7	10000	2	1	0	2	0
28	769	7	10000	2	1	0	2	0
29	770	7	10000	2	1	0	2	0
29	771	7	10000	2	1	0	2	0
28	772	7	10000	2	1	0	2	0
28	773	7	10000	2	1	0	2	0
26	774	7	10000	2	1	0	2	0
25	775	7	10000	2	1	0	2	0
24	776	7	10000	2	1	0	2	0
24	777	7	10000	2	1	0	2	0
24	778	7	10000	2	1	0	2	0
25	779	7	10000	2	1	0	2	0
24	780	7	10000	2	1	0	2	0
23	781	7	10000	2	1	0	2	0
25	782	7	10000	2	1	0	2	0
27	783	7	10000	2	1	0	2	0
27	784	7	10000	2	1	0	2	0
27	785	7	10000	2	1	0	2	0
27	786	7	10000	2	1	0	2	0
27	787	7	10000	2	1	0	2	0
26	788	7	10000	2	1	0	2	0
26	789	7	10000	2	1	0	2	0
29	790	7	10000	2	1	0	2	0
31	791	7	10000	2	1	0	2	0
31	792	7	10000	2	1	0	2	0
31	793	7	10000	2	1	0	2	0
30	794	7	10000	2	1	0	2	0
30	795	7	10000	2	1	0	2	0
29	796	7	10000	2	1	0	2	0
29	797	7	10000	2	1	0	2	0
29	798	7	10000	2	1	0	2	0
29	799	7	10000	2	1	0	2	0
26	800	7	10000	2	1	0	2	0
25	801	7	10000	2	1	0	2	0
27	802	7	10000	2	1	0	2	0
27	803	7	10000	2	1	0	2	0
27	804	7	10000	2	1	0	2	0
27	805	7	10000	2	1	0	2	0
25	806	7	10000	2	1	0	2	0
25	807	7	10000	2	1	0	2	0
25	808	7	10000	2	1	0	2	0
22	809	7	10000	2	1	0	2	0
23	810	7	10000	2	1	0	2	0
23	811	7	10000	2	1	0	2	0
22	812	7	10000	2	1	0	2	0
21	813	7	10000	2	1	0	2	0
20	814	7	10000	2	1	0	2	0
20	815	7	10000	2	1	0	2	0
21	816	7	10000	2	1	0	2	0
23	817	7	10000	2	1	0	2	0
25	818	7	10000	2	1	0	2	0
25	819	7	10000	2	1	0	2	0
25	820	7	10000	2	1	0	2	0
24	821	7	10000	2	1	0	2	0
24	822	7	10000	2	1	0	2	0
24	823	7	10000	2	1	0	2	0
24	824	7	10000	2	1	0	2	0
26	825	7	10000	2	1	0	2	0
27	826	7	10000	2	1	0	2	0
26	827	7	10000	2	1	0	2	0
25	828	7	10000	2	1	0	2	0
24	829	7	10000	2	1	0	2	0
24	830	7	10000	2	1	0	2	0
26	831	7	10000	2	1	0	2	0
26	832	7	10000	2	1	0	2	0
27	833	7	10000	2	1	0	2	0
28	834	7	10000	2	1	0	2	0
28	835	7	10000	2	1	0	2	0
29	836	7	10000	2	1	0	2	0
28	837	7	10000	2	1	0	2	0
27	838	7	10000	2	1	0	2	0
27	839	7	10000	2	1	0	2	0
26	840	7	10000	2	1	0	2	0
23	841	7	10000	2	1	0	2	0
23	842	7	10000	2	1	0	2	0
24	843	7	10000	2	1	0	2	0
25	844	7	10000	2	1	0	2	0
26	845	7	10000	2	1	0	2	0
27	846	7	10000	2	1	0	2	0
25	847	7	10000	2	1	0	2	0
24	848	7	10000	2	1	0	2	0
23	849	7	10000	2	1	0	2	0
23	850	7	10000	2	1	0	2	0
23	851	7	10000	2	1	0	2	0
24	852	7	10000	2	1	0	2	0
23	853	7	10000	2	1	0	2	0
22	854	7	10000	2	1	0	2	0
22	855	7	10000	2	1	0	2	0
22	856	7	10000	2	1	0	2	0
23	857	7	10000	2	1	0	2	0
23	858	7	10000	2	1	0	2	0
23	859	7	10000	2	1	0	2	0
21	860	7	10000	2	1	0	2	0
20	861	7	10000	2	1	0	2	0
20	862	7	10000	2	1	0	2	0
19	863	7	10000	2	1	0	2	0
18	864	7	10000	2	1	0	2	0
17	865	7	10000	2	1	0	2	0
17	866	7	10000	2	1	0	2	0
17	867	7	10000	2	1	0	2	0
15	868	7	10000	2	1	0	2	0
14	869	7	10000	2	1	0	2	0
16	870	7	10000	2	1	0	2	0
16	871	7	10000	2	1	0	2	0
15	872	7	10000	2	1	0	2	0
14	873	7	10000	2	1	0	2	0
14	874	7	10000	2	1	0	2	0
14	875	7	10000	2	1	0	2	0
13	876	7	10000	2	1	0	2	0
14	877	7	10000	2	1	0	2	0
15	878	7	10000	2	1	0	2	0
15	879	7	10000	2	1	0	2	0
14	880	7	10000	2	1	0	2	0
13	881	7	10000	2	1	0	2	0
13	882	7	10000	2	1	0	2	0
14	883	7	10000	2	1	0	2	0
17	884	7	10000	2	1	0	2	0
18	885	7	10000	2	1	0	2	0
20	886	7	10000	2	1	0	2	0
20	887	7	10000	2	1	0	2	0
20	888	7	10000	2	1	0	2	0
20	889	7	10000	2	1	0	2	0
22	890	7	10000	2	1	0	2	0
23	891	7	10000	2	1	0	2	0
25	892	7	10000	2	1	0	2	0
25	893	7	10000	2	1	0	2	0
25	894	7	10000	2	1	0	2	0
24	895	7	10000	2	1	0	2	0
24	896	7	10000	2	1	0	2	0
23	897	7	10000	2	1	0	2	0
23	898	7	10000	2	1	0	2	0
24	899	7	10000	2	1	0	2	0
22	900	7	10000	2	1	0	2	0
20	901	7	10000	2	1	0	2	0
20	902	7	10000	2	1	0	2	0
20	903	7	10000	2	1	0	2	0
21	904	7	10000	2	1	0	2	0
21	905	7	10000	2	1	0	2	0
20	906	7	10000	2	1	0	2	0
20	907	7	10000	2	1	0	2	0
19	908	7	10000	2	1	0	2	0
18	909	7	10000	2	1	0	2	0
20	910	7	10000	2	1	0	2	0
19	911	7	10000	2	1	0	2	0
18	912	7	10000	2	1	0	2	0
17	913	7	10000	2	1	0	2	0
17	914	7	10000	2	1	0	2	0
16	915	7	10000	2	1	0	2	0
16	916	7	10000	2	1	0	2	0
15	917	7	10000	2	1	0	2	0
15	918	7	10000	2	1	0	2	0
16	919	7	10000	2	1	0	2	0
14	920	7	10000	2	1	0	2	0
13	921	7	10000	2	1	0	2	0
13	922	7	10000	2	1	0	2	0
13	923	7	10000	2	1	0	2	0
13	924	7	10000	2	1	0	2	0
13	925	7	10000	2	1	0	2	0
12	926	7	10000	2	1	0	2	0
12	927	7	10000	2	1	0	2	0
14	928	7	10000	2	1	0	2	0
14	929	7	10000	2	1	0	2	0
17	930	7	10000	2	1	0	2	0
20	931	7	10000	2	1	0	2	0
20	932	7	10000	2	1	0	2	0
19	933	7	10000	2	1	0	2	0
20	934	7	10000	2	1	0	2	0
22	935	7	10000	2	1	0	2	0
23	936	7	10000	2	1	0	2	0
23	937	7	10000	2	1	0	2	0
23	938	7	10000	2	1	0	2	0
24	939	7	10000	2	1	0	2	0
22	940	7	10000	2	1	0	2	0
21	941	7	10000	2	1	0	2	0
22	942	7	10000	2	1	0	2	0
21	943	7	10000	2	1	0	2	0
20	944	7	10000	2	1	0	2	0
20	945	7	10000	2	1	0	2	0
21	946	7	10000	2	1	0	2	0
21	947	7	10000	2	1	0	2	0
20	948	7	10000	2	1	0	2	0
19	949	7	10000	2	1	0	2	0
20	950	7	10000	2	1	0	2	0
20	951	7	10000	2	1	0	2	0
20	952	7	10000	2	1	0	2	0
20	953	7	10000	2	1	0	2	0
20	954	7	10000	2	1	0	2	0
21	955	7	10000	2	1	0	2	0
24	956	7	10000	2	1	0	2	0
30	957	7	10000	2	1	0	2	0
35	958	7	10000	2	1	0	2	0
43	959	7	10000	2	1	0	2	0
49	960	7	10000	2	1	0	2	0
56	961	7	10000	2	1	0	2	0
61	962	7	10000	2	1	0	2	0
63	963	7	10000	2	1	0	2	0
60	964	7	10000	2	1	0	2	0
60	965	7	10000	2	1	0	2	0
61	966	7	10000	2	1	0	2	0
62	967	7	10000	2	1	0	2	0
63	968	7	10000	2	1	0	2	0
62	969	7	10000	2	1	0	2	0
63	970	7	10000	2	1	0	2	0
67	971	7	10000	2	1	0	2	0
71	972	7	10000	2	1	0	2	0
76	973	7	10000	2	1	0	2	0
85	974	7	10000	2	1	0	2	0
93	975	7	10000	2	1	0	2	0
102	976	7	10000	2	1	0	2	0
110	977	7	10000	2	1	0	2	0
119	978	7	10000	2	1	0	2	0
130	979	7	10000	2	1	0	2	0
140	980	7	10000	2	1	0	2	0
153	981	7	10000	2	1	0	2	0
164	982	7	10000	2	1	0	2	0
176	983	7	10000	2	1	0	2	0
184	984	7	10000	2	1	0	2	0
188	985	7	10000	2	1	0	2	0
189	986	7	10000	2	1	0	2	0
191	987	7	10000	2	1	0	2	0
193	988	7	10000	2	1	0	2	0
196	989	7	10000	2	1	0	2	0
202	990	7	10000	2	1	0	2	0
210	991	7	10000	2	1	0	2	0
218	992	7	10000	2	1	0	2	0
226	993	7	10000	2	1	0	2	0
232	994	7	10000	2	1	0	2	0
234	995	7	10000	2	1	0	2	0
232	996	7	10000	2	1	0	2	0
228	997	7	10000	2	1	0	2	0
223	998	7	10000	2	1	0	2	0
216	999	7	10000	2	1	0	2	0
205	1000	7	10000	2	1	0	2	0
12	2	0	10000	3	1	0	3	0
13	3	0	10000	3	1	0	3	0
13	4	0	10000	3	1	0	3	0
14	5	0	10000	3	1	0	3	0
15	6	0	10000	3	1	0	3	0
12	7	0	10000	3	1	0	3	0
12	8	0	10000	3	1	0	3	0
13	9	0	10000	3	1	0	3	0
13	10	0	10000	3	1	0	3	0
12	11	0	10000	3	1	0	3	0
13	12	0	10000	3	1	0	3	0
14	13	0	10000	3	1	0	3	0
13	14	0	10000	3	1	0	3	0
12	15	0	10000	3	1	0	3	0
13	16	0	10000	3	1	0	3	0
16	17	0	10000	3	1	0	3	0
17	18	0	10000	3	1	0	3	0
17	19	0	10000	3	1	0	3	0
17	20	0	10000	3	1	0	3	0
19	21	0	10000	3	1	0	3	0
20	22	0	10000	3	1	0	3	0
20	23	0	10000	3	1	0	3	0
21	24	0	10000	3	1	0	3	0
22	25	0	10000	3	1	0	3	0
22	26	0	10000	3	1	0	3	0
20	27	0	10000	3	1	0	3	0
21	28	0	10000	3	1	0	3	0
21	29	0	10000	3	1	0	3	0
20	30	0	10000	3	1	0	3	0
20	31	0	10000	3	1	0	3	0
20	32	0	10000	3	1	0	3	0
20	33	0	10000	3	1	0	3	0
19	34	0	10000	3	1	0	3	0
20	35	0	10000	3	1	0	3	0
19	36	0	10000	3	1	0	3	0
20	37	0	10000	3	1	0	3	0
20	38	0	10000	3	1	0	3	0
19	39	0	10000	3	1	0	3	0
18	40	0	10000	3	1	0	3	0
19	41	0	10000	3	1	0	3	0
18	42	0	10000	3	1	0	3	0
16	43	0	10000	3	1	0	3	0
17	44	0	10000	3	1	0	3	0
17	45	0	10000	3	1	0	3	0
18	46	0	10000	3	1	0	3	0
17	47	0	10000	3	1	0	3	0
17	48	0	10000	3	1	0	3	0
19	49	0	10000	3	1	0	3	0
19	50	0	10000	3	1	0	3	0
17	51	0	10000	3	1	0	3	0
19	52	0	10000	3	1	0	3	0
21	53	0	10000	3	1	0	3	0
22	54	0	10000	3	1	0	3	0
23	55	0	10000	3	1	0	3	0
23	56	0	10000	3	1	0	3	0
25	57	0	10000	3	1	0	3	0
24	58	0	10000	3	1	0	3	0
24	59	0	10000	3	1	0	3	0
23	60	0	10000	3	1	0	3	0
23	61	0	10000	3	1	0	3	0
23	62	0	10000	3	1	0	3	0
22	63	0	10000	3	1	0	3	0
22	64	0	10000	3	1	0	3	0
21	65	0	10000	3	1	0	3	0
20	66	0	10000	3	1	0	3	0
18	67	0	10000	3	1	0	3	0
18	68	0	10000	3	1	0	3	0
18	69	0	10000	3	1	0	3	0
19	70	0	10000	3	1	0	3	0
20	71	0	10000	3	1	0	3	0
24	72	0	10000	3	1	0	3	0
26	73	0	10000	3	1	0	3	0
24	74	0	10000	3	1	0	3	0
23	75	0	10000	3	1	0	3	0
23	76	0	10000	3	1	0	3	0
24	77	0	10000	3	1	0	3	0
24	78	0	10000	3	1	0	3	0
26	79	0	10000	3	1	0	3	0
26	80	0	10000	3	1	0	3	0
26	81	0	10000	3	1	0	3	0
26	82	0	10000	3	1	0	3	0
25	83	0	10000	3	1	0	3	0
25	84	0	10000	3	1	0	3	0
26	85	0	10000	3	1	0	3	0
26	86	0	10000	3	1	0	3	0
23	87	0	10000	3	1	0	3	0
24	88	0	10000	3	1	0	3	0
23	89	0	10000	3	1	0	3	0
22	90	0	10000	3	1	0	3	0
22	91	0	10000	3	1	0	3	0
21	92	0	10000	3	1	0	3	0
21	93	0	10000	3	1	0	3	0
20	94	0	10000	3	1	0	3	0
19	95	0	10000	3	1	0	3	0
19	96	0	10000	3	1	0	3	0
21	97	0	10000	3	1	0	3	0
20	98	0	10000	3	1	0	3	0
20	99	0	10000	3	1	0	3	0
20	100	0	10000	3	1	0	3	0
21	101	0	10000	3	1	0	3	0
20	102	0	10000	3	1	0	3	0
19	103	0	10000	3	1	0	3	0
20	104	0	10000	3	1	0	3	0
20	105	0	10000	3	1	0	3	0
20	106	0	10000	3	1	0	3	0
18	107	0	10000	3	1	0	3	0
18	108	0	10000	3	1	0	3	0
18	109	0	10000	3	1	0	3	0
19	110	0	10000	3	1	0	3	0
18	111	0	10000	3	1	0	3	0
17	112	0	10000	3	1	0	3	0
17	113	0	10000	3	1	0	3	0
16	114	0	10000	3	1	0	3	0
15	115	0	10000	3	1	0	3	0
15	116	0	10000	3	1	0	3	0
18	117	0	10000	3	1	0	3	0
17	118	0	10000	3	1	0	3	0
17	119	0	10000	3	1	0	3	0
17	120	0	10000	3	1	0	3	0
16	121	0	10000	3	1	0	3	0
16	122	0	10000	3	1	0	3	0
17	123	0	10000	3	1	0	3	0
18	124	0	10000	3	1	0	3	0
18	125	0	10000	3	1	0	3	0
18	126	0	10000	3	1	0	3	0
15	127	0	10000	3	1	0	3	0
15	128	0	10000	3	1	0	3	0
14	129	0	10000	3	1	0	3	0
14	130	0	10000	3	1	0	3	0
14	131	0	10000	3	1	0	3	0
15	132	0	10000	3	1	0	3	0
16	133	0	10000	3	1	0	3	0
15	134	0	10000	3	1	0	3	0
15	135	0	10000	3	1	0	3	0
14	136	0	10000	3	1	0	3	0
16	137	0	10000	3	1	0	3	0
16	138	0	10000	3	1	0	3	0
15	139	0	10000	3	1	0	3	0
14	140	0	10000	3	1	0	3	0
14	141	0	10000	3	1	0	3	0
13	142	0	10000	3	1	0	3	0
13	143	0	10000	3	1	0	3	0
13	144	0	10000	3	1	0	3	0
13	145	0	10000	3	1	0	3	0
14	146	0	10000	3	1	0	3	0
12	147	0	10000	3	1	0	3	0
12	148	0	10000	3	1	0	3	0
12	149	0	10000	3	1	0	3	0
12	150	0	10000	3	1	0	3	0
11	151	0	10000	3	1	0	3	0
11	152	0	10000	3	1	0	3	0
11	153	0	10000	3	1	0	3	0
9	154	0	10000	3	1	0	3	0
10	155	0	10000	3	1	0	3	0
11	156	0	10000	3	1	0	3	0
13	157	0	10000	3	1	0	3	0
14	158	0	10000	3	1	0	3	0
13	159	0	10000	3	1	0	3	0
13	160	0	10000	3	1	0	3	0
15	161	0	10000	3	1	0	3	0
15	162	0	10000	3	1	0	3	0
14	163	0	10000	3	1	0	3	0
15	164	0	10000	3	1	0	3	0
16	165	0	10000	3	1	0	3	0
16	166	0	10000	3	1	0	3	0
15	167	0	10000	3	1	0	3	0
15	168	0	10000	3	1	0	3	0
14	169	0	10000	3	1	0	3	0
14	170	0	10000	3	1	0	3	0
14	171	0	10000	3	1	0	3	0
15	172	0	10000	3	1	0	3	0
16	173	0	10000	3	1	0	3	0
17	174	0	10000	3	1	0	3	0
17	175	0	10000	3	1	0	3	0
17	176	0	10000	3	1	0	3	0
19	177	0	10000	3	1	0	3	0
18	178	0	10000	3	1	0	3	0
18	179	0	10000	3	1	0	3	0
18	180	0	10000	3	1	0	3	0
19	181	0	10000	3	1	0	3	0
20	182	0	10000	3	1	0	3	0
21	183	0	10000	3	1	0	3	0
22	184	0	10000	3	1	0	3	0
23	185	0	10000	3	1	0	3	0
23	186	0	10000	3	1	0	3	0
20	187	0	10000	3	1	0	3	0
20	188	0	10000	3	1	0	3	0
20	189	0	10000	3	1	0	3	0
20	190	0	10000	3	1	0	3	0
19	191	0	10000	3	1	0	3	0
19	192	0	10000	3	1	0	3	0
20	193	0	10000	3	1	0	3	0
18	194	0	10000	3	1	0	3	0
18	195	0	10000	3	1	0	3	0
19	196	0	10000	3	1	0	3	0
19	197	0	10000	3	1	0	3	0
18	198	0	10000	3	1	0	3	0
18	199	0	10000	3	1	0	3	0
18	200	0	10000	3	1	0	3	0
19	201	0	10000	3	1	0	3	0
19	202	0	10000	3	1	0	3	0
18	203	0	10000	3	1	0	3	0
18	204	0	10000	3	1	0	3	0
18	205	0	10000	3	1	0	3	0
19	206	0	10000	3	1	0	3	0
19	207	0	10000	3	1	0	3	0
20	208	0	10000	3	1	0	3	0
21	209	0	10000	3	1	0	3	0
23	210	0	10000	3	1	0	3	0
24	211	0	10000	3	1	0	3	0
23	212	0	10000	3	1	0	3	0
23	213	0	10000	3	1	0	3	0
22	214	0	10000	3	1	0	3	0
21	215	0	10000	3	1	0	3	0
21	216	0	10000	3	1	0	3	0
23	217	0	10000	3	1	0	3	0
21	218	0	10000	3	1	0	3	0
21	219	0	10000	3	1	0	3	0
21	220	0	10000	3	1	0	3	0
22	221	0	10000	3	1	0	3	0
22	222	0	10000	3	1	0	3	0
22	223	0	10000	3	1	0	3	0
21	224	0	10000	3	1	0	3	0
21	225	0	10000	3	1	0	3	0
20	226	0	10000	3	1	0	3	0
19	227	0	10000	3	1	0	3	0
18	228	0	10000	3	1	0	3	0
19	229	0	10000	3	1	0	3	0
19	230	0	10000	3	1	0	3	0
20	231	0	10000	3	1	0	3	0
18	232	0	10000	3	1	0	3	0
18	233	0	10000	3	1	0	3	0
18	234	0	10000	3	1	0	3	0
17	235	0	10000	3	1	0	3	0
17	236	0	10000	3	1	0	3	0
19	237	0	10000	3	1	0	3	0
18	238	0	10000	3	1	0	3	0
17	239	0	10000	3	1	0	3	0
17	240	0	10000	3	1	0	3	0
17	241	0	10000	3	1	0	3	0
17	242	0	10000	3	1	0	3	0
17	243	0	10000	3	1	0	3	0
17	244	0	10000	3	1	0	3	0
17	245	0	10000	3	1	0	3	0
17	246	0	10000	3	1	0	3	0
16	247	0	10000	3	1	0	3	0
16	248	0	10000	3	1	0	3	0
17	249	0	10000	3	1	0	3	0
17	250	0	10000	3	1	0	3	0
16	251	0	10000	3	1	0	3	0
17	252	0	10000	3	1	0	3	0
18	253	0	10000	3	1	0	3	0
17	254	0	10000	3	1	0	3	0
16	255	0	10000	3	1	0	3	0
15	256	0	10000	3	1	0	3	0
16	257	0	10000	3	1	0	3	0
15	258	0	10000	3	1	0	3	0
14	259	0	10000	3	1	0	3	0
14	260	0	10000	3	1	0	3	0
14	261	0	10000	3	1	0	3	0
13	262	0	10000	3	1	0	3	0
13	263	0	10000	3	1	0	3	0
14	264	0	10000	3	1	0	3	0
14	265	0	10000	3	1	0	3	0
14	266	0	10000	3	1	0	3	0
12	267	0	10000	3	1	0	3	0
12	268	0	10000	3	1	0	3	0
14	269	0	10000	3	1	0	3	0
15	270	0	10000	3	1	0	3	0
15	271	0	10000	3	1	0	3	0
15	272	0	10000	3	1	0	3	0
14	273	0	10000	3	1	0	3	0
14	274	0	10000	3	1	0	3	0
14	275	0	10000	3	1	0	3	0
13	276	0	10000	3	1	0	3	0
14	277	0	10000	3	1	0	3	0
14	278	0	10000	3	1	0	3	0
13	279	0	10000	3	1	0	3	0
14	280	0	10000	3	1	0	3	0
13	281	0	10000	3	1	0	3	0
13	282	0	10000	3	1	0	3	0
12	283	0	10000	3	1	0	3	0
13	284	0	10000	3	1	0	3	0
13	285	0	10000	3	1	0	3	0
13	286	0	10000	3	1	0	3	0
10	287	0	10000	3	1	0	3	0
10	288	0	10000	3	1	0	3	0
10	289	0	10000	3	1	0	3	0
10	290	0	10000	3	1	0	3	0
10	291	0	10000	3	1	0	3	0
11	292	0	10000	3	1	0	3	0
11	293	0	10000	3	1	0	3	0
10	294	0	10000	3	1	0	3	0
11	295	0	10000	3	1	0	3	0
13	296	0	10000	3	1	0	3	0
17	297	0	10000	3	1	0	3	0
16	298	0	10000	3	1	0	3	0
15	299	0	10000	3	1	0	3	0
16	300	0	10000	3	1	0	3	0
16	301	0	10000	3	1	0	3	0
15	302	0	10000	3	1	0	3	0
15	303	0	10000	3	1	0	3	0
17	304	0	10000	3	1	0	3	0
19	305	0	10000	3	1	0	3	0
20	306	0	10000	3	1	0	3	0
18	307	0	10000	3	1	0	3	0
18	308	0	10000	3	1	0	3	0
17	309	0	10000	3	1	0	3	0
19	310	0	10000	3	1	0	3	0
17	311	0	10000	3	1	0	3	0
16	312	0	10000	3	1	0	3	0
18	313	0	10000	3	1	0	3	0
17	314	0	10000	3	1	0	3	0
16	315	0	10000	3	1	0	3	0
17	316	0	10000	3	1	0	3	0
18	317	0	10000	3	1	0	3	0
18	318	0	10000	3	1	0	3	0
18	319	0	10000	3	1	0	3	0
18	320	0	10000	3	1	0	3	0
18	321	0	10000	3	1	0	3	0
19	322	0	10000	3	1	0	3	0
18	323	0	10000	3	1	0	3	0
18	324	0	10000	3	1	0	3	0
17	325	0	10000	3	1	0	3	0
17	326	0	10000	3	1	0	3	0
14	327	0	10000	3	1	0	3	0
16	328	0	10000	3	1	0	3	0
16	329	0	10000	3	1	0	3	0
17	330	0	10000	3	1	0	3	0
19	331	0	10000	3	1	0	3	0
19	332	0	10000	3	1	0	3	0
18	333	0	10000	3	1	0	3	0
18	334	0	10000	3	1	0	3	0
18	335	0	10000	3	1	0	3	0
17	336	0	10000	3	1	0	3	0
19	337	0	10000	3	1	0	3	0
19	338	0	10000	3	1	0	3	0
19	339	0	10000	3	1	0	3	0
19	340	0	10000	3	1	0	3	0
20	341	0	10000	3	1	0	3	0
21	342	0	10000	3	1	0	3	0
22	343	0	10000	3	1	0	3	0
22	344	0	10000	3	1	0	3	0
23	345	0	10000	3	1	0	3	0
22	346	0	10000	3	1	0	3	0
20	347	0	10000	3	1	0	3	0
20	348	0	10000	3	1	0	3	0
19	349	0	10000	3	1	0	3	0
20	350	0	10000	3	1	0	3	0
20	351	0	10000	3	1	0	3	0
18	352	0	10000	3	1	0	3	0
18	353	0	10000	3	1	0	3	0
17	354	0	10000	3	1	0	3	0
16	355	0	10000	3	1	0	3	0
15	356	0	10000	3	1	0	3	0
18	357	0	10000	3	1	0	3	0
18	358	0	10000	3	1	0	3	0
19	359	0	10000	3	1	0	3	0
20	360	0	10000	3	1	0	3	0
22	361	0	10000	3	1	0	3	0
22	362	0	10000	3	1	0	3	0
22	363	0	10000	3	1	0	3	0
22	364	0	10000	3	1	0	3	0
22	365	0	10000	3	1	0	3	0
23	366	0	10000	3	1	0	3	0
21	367	0	10000	3	1	0	3	0
23	368	0	10000	3	1	0	3	0
25	369	0	10000	3	1	0	3	0
25	370	0	10000	3	1	0	3	0
26	371	0	10000	3	1	0	3	0
26	372	0	10000	3	1	0	3	0
25	373	0	10000	3	1	0	3	0
24	374	0	10000	3	1	0	3	0
23	375	0	10000	3	1	0	3	0
23	376	0	10000	3	1	0	3	0
24	377	0	10000	3	1	0	3	0
23	378	0	10000	3	1	0	3	0
21	379	0	10000	3	1	0	3	0
21	380	0	10000	3	1	0	3	0
21	381	0	10000	3	1	0	3	0
20	382	0	10000	3	1	0	3	0
20	383	0	10000	3	1	0	3	0
21	384	0	10000	3	1	0	3	0
21	385	0	10000	3	1	0	3	0
22	386	0	10000	3	1	0	3	0
21	387	0	10000	3	1	0	3	0
21	388	0	10000	3	1	0	3	0
22	389	0	10000	3	1	0	3	0
22	390	0	10000	3	1	0	3	0
23	391	0	10000	3	1	0	3	0
23	392	0	10000	3	1	0	3	0
22	393	0	10000	3	1	0	3	0
21	394	0	10000	3	1	0	3	0
21	395	0	10000	3	1	0	3	0
21	396	0	10000	3	1	0	3	0
24	397	0	10000	3	1	0	3	0
25	398	0	10000	3	1	0	3	0
25	399	0	10000	3	1	0	3	0
25	400	0	10000	3	1	0	3	0
26	401	0	10000	3	1	0	3	0
25	402	0	10000	3	1	0	3	0
25	403	0	10000	3	1	0	3	0
26	404	0	10000	3	1	0	3	0
26	405	0	10000	3	1	0	3	0
25	406	0	10000	3	1	0	3	0
24	407	0	10000	3	1	0	3	0
23	408	0	10000	3	1	0	3	0
22	409	0	10000	3	1	0	3	0
23	410	0	10000	3	1	0	3	0
23	411	0	10000	3	1	0	3	0
22	412	0	10000	3	1	0	3	0
21	413	0	10000	3	1	0	3	0
20	414	0	10000	3	1	0	3	0
19	415	0	10000	3	1	0	3	0
18	416	0	10000	3	1	0	3	0
20	417	0	10000	3	1	0	3	0
18	418	0	10000	3	1	0	3	0
18	419	0	10000	3	1	0	3	0
17	420	0	10000	3	1	0	3	0
16	421	0	10000	3	1	0	3	0
18	422	0	10000	3	1	0	3	0
18	423	0	10000	3	1	0	3	0
19	424	0	10000	3	1	0	3	0
19	425	0	10000	3	1	0	3	0
20	426	0	10000	3	1	0	3	0
19	427	0	10000	3	1	0	3	0
20	428	0	10000	3	1	0	3	0
20	429	0	10000	3	1	0	3	0
21	430	0	10000	3	1	0	3	0
20	431	0	10000	3	1	0	3	0
21	432	0	10000	3	1	0	3	0
23	433	0	10000	3	1	0	3	0
21	434	0	10000	3	1	0	3	0
20	435	0	10000	3	1	0	3	0
20	436	0	10000	3	1	0	3	0
20	437	0	10000	3	1	0	3	0
20	438	0	10000	3	1	0	3	0
19	439	0	10000	3	1	0	3	0
18	440	0	10000	3	1	0	3	0
17	441	0	10000	3	1	0	3	0
17	442	0	10000	3	1	0	3	0
19	443	0	10000	3	1	0	3	0
19	444	0	10000	3	1	0	3	0
19	445	0	10000	3	1	0	3	0
19	446	0	10000	3	1	0	3	0
18	447	0	10000	3	1	0	3	0
18	448	0	10000	3	1	0	3	0
17	449	0	10000	3	1	0	3	0
16	450	0	10000	3	1	0	3	0
16	451	0	10000	3	1	0	3	0
16	452	0	10000	3	1	0	3	0
16	453	0	10000	3	1	0	3	0
16	454	0	10000	3	1	0	3	0
15	455	0	10000	3	1	0	3	0
16	456	0	10000	3	1	0	3	0
18	457	0	10000	3	1	0	3	0
17	458	0	10000	3	1	0	3	0
18	459	0	10000	3	1	0	3	0
17	460	0	10000	3	1	0	3	0
16	461	0	10000	3	1	0	3	0
16	462	0	10000	3	1	0	3	0
15	463	0	10000	3	1	0	3	0
16	464	0	10000	3	1	0	3	0
16	465	0	10000	3	1	0	3	0
16	466	0	10000	3	1	0	3	0
13	467	0	10000	3	1	0	3	0
14	468	0	10000	3	1	0	3	0
13	469	0	10000	3	1	0	3	0
14	470	0	10000	3	1	0	3	0
15	471	0	10000	3	1	0	3	0
14	472	0	10000	3	1	0	3	0
14	473	0	10000	3	1	0	3	0
13	474	0	10000	3	1	0	3	0
13	475	0	10000	3	1	0	3	0
13	476	0	10000	3	1	0	3	0
15	477	0	10000	3	1	0	3	0
14	478	0	10000	3	1	0	3	0
13	479	0	10000	3	1	0	3	0
13	480	0	10000	3	1	0	3	0
12	481	0	10000	3	1	0	3	0
13	482	0	10000	3	1	0	3	0
13	483	0	10000	3	1	0	3	0
13	484	0	10000	3	1	0	3	0
13	485	0	10000	3	1	0	3	0
13	486	0	10000	3	1	0	3	0
10	487	0	10000	3	1	0	3	0
10	488	0	10000	3	1	0	3	0
11	489	0	10000	3	1	0	3	0
12	490	0	10000	3	1	0	3	0
11	491	0	10000	3	1	0	3	0
11	492	0	10000	3	1	0	3	0
11	493	0	10000	3	1	0	3	0
10	494	0	10000	3	1	0	3	0
10	495	0	10000	3	1	0	3	0
9	496	0	10000	3	1	0	3	0
11	497	0	10000	3	1	0	3	0
10	498	0	10000	3	1	0	3	0
10	499	0	10000	3	1	0	3	0
10	500	0	10000	3	1	0	3	0
11	501	0	10000	3	1	0	3	0
11	501	0	10000	3	1	0	3	1
12	502	0	10000	3	1	0	3	1
12	504	0	10000	3	1	0	3	1
12	505	0	10000	3	1	0	3	1
14	506	0	10000	3	1	0	3	1
13	507	0	10000	3	1	0	3	1
14	508	0	10000	3	1	0	3	1
15	509	0	10000	3	1	0	3	1
14	510	0	10000	3	1	0	3	1
15	511	0	10000	3	1	0	3	1
16	512	0	10000	3	1	0	3	1
15	513	0	10000	3	1	0	3	1
14	514	0	10000	3	1	0	3	1
14	515	0	10000	3	1	0	3	1
14	516	0	10000	3	1	0	3	1
17	517	0	10000	3	1	0	3	1
16	518	0	10000	3	1	0	3	1
18	519	0	10000	3	1	0	3	1
18	520	0	10000	3	1	0	3	1
19	521	0	10000	3	1	0	3	1
18	522	0	10000	3	1	0	3	1
18	523	0	10000	3	1	0	3	1
19	524	0	10000	3	1	0	3	1
20	525	0	10000	3	1	0	3	1
20	526	0	10000	3	1	0	3	1
17	527	0	10000	3	1	0	3	1
17	528	0	10000	3	1	0	3	1
17	529	0	10000	3	1	0	3	1
18	530	0	10000	3	1	0	3	1
17	531	0	10000	3	1	0	3	1
17	532	0	10000	3	1	0	3	1
17	533	0	10000	3	1	0	3	1
16	534	0	10000	3	1	0	3	1
15	535	0	10000	3	1	0	3	1
15	536	0	10000	3	1	0	3	1
16	537	0	10000	3	1	0	3	1
16	538	0	10000	3	1	0	3	1
16	539	0	10000	3	1	0	3	1
16	540	0	10000	3	1	0	3	1
16	541	0	10000	3	1	0	3	1
17	542	0	10000	3	1	0	3	1
18	543	0	10000	3	1	0	3	1
20	544	0	10000	3	1	0	3	1
20	545	0	10000	3	1	0	3	1
20	546	0	10000	3	1	0	3	1
18	547	0	10000	3	1	0	3	1
18	548	0	10000	3	1	0	3	1
19	549	0	10000	3	1	0	3	1
20	550	0	10000	3	1	0	3	1
19	551	0	10000	3	1	0	3	1
20	552	0	10000	3	1	0	3	0
20	553	0	10000	3	1	0	3	0
18	554	0	10000	3	1	0	3	0
18	555	0	10000	3	1	0	3	0
18	556	0	10000	3	1	0	3	0
20	557	0	10000	3	1	0	3	0
19	558	0	10000	3	1	0	3	0
18	559	0	10000	3	1	0	3	0
17	560	0	10000	3	1	0	3	0
16	561	0	10000	3	1	0	3	0
16	562	0	10000	3	1	0	3	0
16	563	0	10000	3	1	0	3	0
17	564	0	10000	3	1	0	3	0
17	565	0	10000	3	1	0	3	0
17	566	0	10000	3	1	0	3	0
16	567	0	10000	3	1	0	3	0
15	568	0	10000	3	1	0	3	0
15	569	0	10000	3	1	0	3	0
15	570	0	10000	3	1	0	3	0
16	571	0	10000	3	1	0	3	0
15	572	0	10000	3	1	0	3	0
15	573	0	10000	3	1	0	3	0
14	574	0	10000	3	1	0	3	0
13	575	0	10000	3	1	0	3	0
13	576	0	10000	3	1	0	3	0
15	577	0	10000	3	1	0	3	0
15	578	0	10000	3	1	0	3	0
15	579	0	10000	3	1	0	3	0
13	580	0	10000	3	1	0	3	0
13	581	0	10000	3	1	0	3	0
15	582	0	10000	3	1	0	3	0
14	583	0	10000	3	1	0	3	0
15	584	0	10000	3	1	0	3	0
16	585	0	10000	3	1	0	3	0
15	586	0	10000	3	1	0	3	0
13	587	0	10000	3	1	0	3	0
13	588	0	10000	3	1	0	3	0
14	589	0	10000	3	1	0	3	0
16	590	0	10000	3	1	0	3	0
16	591	0	10000	3	1	0	3	0
17	592	0	10000	3	1	0	3	0
24	593	0	10000	3	1	0	3	0
38	594	0	10000	3	1	0	3	0
50	595	0	10000	3	1	0	3	0
54	596	0	10000	3	1	0	3	0
56	597	0	10000	3	1	0	3	0
74	598	0	10000	3	1	0	3	0
137	599	0	10000	3	1	0	3	0
216	600	0	10000	3	1	0	3	0
243	601	0	10000	3	1	0	3	0
256	602	0	10000	3	1	0	3	0
282	603	0	10000	3	1	0	3	0
287	604	0	10000	3	1	0	3	0
281	605	0	10000	3	1	0	3	0
297	606	0	10000	3	1	0	3	0
326	607	0	10000	3	1	0	3	0
335	608	0	10000	3	1	0	3	0
342	609	0	10000	3	1	0	3	0
359	610	0	10000	3	1	0	3	0
375	611	0	10000	3	1	0	3	0
382	612	0	10000	3	1	0	3	0
372	613	0	10000	3	1	0	3	0
375	614	0	10000	3	1	0	3	0
366	615	0	10000	3	1	0	3	0
373	616	0	10000	3	1	0	3	0
373	617	0	10000	3	1	0	3	0
358	618	0	10000	3	1	0	3	0
351	619	0	10000	3	1	0	3	0
375	620	0	10000	3	1	0	3	0
455	621	0	10000	3	1	0	3	0
469	622	0	10000	3	1	0	3	0
471	623	0	10000	3	1	0	3	0
474	624	0	10000	3	1	0	3	0
483	625	0	10000	3	1	0	3	0
495	626	0	10000	3	1	0	3	0
486	627	0	10000	3	1	0	3	0
466	628	0	10000	3	1	0	3	0
451	629	0	10000	3	1	0	3	0
440	630	0	10000	3	1	0	3	0
431	631	0	10000	3	1	0	3	0
425	632	0	10000	3	1	0	3	0
419	633	0	10000	3	1	0	3	0
412	634	0	10000	3	1	0	3	0
406	635	0	10000	3	1	0	3	0
401	636	0	10000	3	1	0	3	0
394	637	0	10000	3	1	0	3	0
382	638	0	10000	3	1	0	3	0
368	639	0	10000	3	1	0	3	0
352	640	0	10000	3	1	0	3	0
337	641	0	10000	3	1	0	3	0
325	642	0	10000	3	1	0	3	0
315	643	0	10000	3	1	0	3	0
309	644	0	10000	3	1	0	3	0
304	645	0	10000	3	1	0	3	0
301	646	0	10000	3	1	0	3	0
295	647	0	10000	3	1	0	3	0
286	648	0	10000	3	1	0	3	0
276	649	0	10000	3	1	0	3	0
265	650	0	10000	3	1	0	3	0
253	651	0	10000	3	1	0	3	0
241	652	0	10000	3	1	0	3	0
235	653	0	10000	3	1	0	3	0
232	654	0	10000	3	1	0	3	0
233	655	0	10000	3	1	0	3	0
238	656	0	10000	3	1	0	3	0
246	657	0	10000	3	1	0	3	0
249	658	0	10000	3	1	0	3	0
248	659	0	10000	3	1	0	3	0
247	660	0	10000	3	1	0	3	0
245	661	0	10000	3	1	0	3	0
241	662	0	10000	3	1	0	3	0
237	663	0	10000	3	1	0	3	0
233	664	0	10000	3	1	0	3	0
227	665	0	10000	3	1	0	3	0
225	666	0	10000	3	1	0	3	0
220	667	0	10000	3	1	0	3	0
217	668	0	10000	3	1	0	3	0
216	669	0	10000	3	1	0	3	0
213	670	0	10000	3	1	0	3	0
211	671	0	10000	3	1	0	3	0
212	672	0	10000	3	1	0	3	0
213	673	0	10000	3	1	0	3	0
212	674	0	10000	3	1	0	3	0
212	675	0	10000	3	1	0	3	0
211	676	0	10000	3	1	0	3	0
211	677	0	10000	3	1	0	3	0
209	678	0	10000	3	1	0	3	0
206	679	0	10000	3	1	0	3	0
204	680	0	10000	3	1	0	3	0
201	681	0	10000	3	1	0	3	0
197	682	0	10000	3	1	0	3	0
191	683	0	10000	3	1	0	3	0
185	684	0	10000	3	1	0	3	0
178	685	0	10000	3	1	0	3	0
169	686	0	10000	3	1	0	3	0
160	687	0	10000	3	1	0	3	0
156	688	0	10000	3	1	0	3	0
152	689	0	10000	3	1	0	3	0
147	690	0	10000	3	1	0	3	0
143	691	0	10000	3	1	0	3	0
138	692	0	10000	3	1	0	3	0
133	693	0	10000	3	1	0	3	0
127	694	0	10000	3	1	0	3	0
121	695	0	10000	3	1	0	3	0
116	696	0	10000	3	1	0	3	0
112	697	0	10000	3	1	0	3	0
107	698	0	10000	3	1	0	3	0
104	699	0	10000	3	1	0	3	0
98	700	0	10000	3	1	0	3	0
94	701	0	10000	3	1	0	3	0
92	702	0	10000	3	1	0	3	0
89	703	0	10000	3	1	0	3	0
89	704	0	10000	3	1	0	3	0
90	705	0	10000	3	1	0	3	0
90	706	0	10000	3	1	0	3	0
88	707	0	10000	3	1	0	3	0
91	708	0	10000	3	1	0	3	0
91	709	0	10000	3	1	0	3	0
92	710	0	10000	3	1	0	3	0
92	711	0	10000	3	1	0	3	0
90	712	0	10000	3	1	0	3	0
90	713	0	10000	3	1	0	3	0
89	714	0	10000	3	1	0	3	0
86	715	0	10000	3	1	0	3	0
82	716	0	10000	3	1	0	3	0
80	717	0	10000	3	1	0	3	0
78	718	0	10000	3	1	0	3	0
75	719	0	10000	3	1	0	3	0
72	720	0	10000	3	1	0	3	0
68	721	0	10000	3	1	0	3	0
66	722	0	10000	3	1	0	3	0
63	723	0	10000	3	1	0	3	0
62	724	0	10000	3	1	0	3	0
61	725	0	10000	3	1	0	3	0
62	726	0	10000	3	1	0	3	0
61	727	0	10000	3	1	0	3	0
62	728	0	10000	3	1	0	3	0
64	729	0	10000	3	1	0	3	0
66	730	0	10000	3	1	0	3	0
67	731	0	10000	3	1	0	3	0
69	732	0	10000	3	1	0	3	0
69	733	0	10000	3	1	0	3	0
67	734	0	10000	3	1	0	3	0
64	735	0	10000	3	1	0	3	0
62	736	0	10000	3	1	0	3	0
61	737	0	10000	3	1	0	3	0
58	738	0	10000	3	1	0	3	0
56	739	0	10000	3	1	0	3	0
55	740	0	10000	3	1	0	3	0
53	741	0	10000	3	1	0	3	0
51	742	0	10000	3	1	0	3	0
51	743	0	10000	3	1	0	3	0
51	744	0	10000	3	1	0	3	0
51	745	0	10000	3	1	0	3	0
52	746	0	10000	3	1	0	3	0
49	747	0	10000	3	1	0	3	0
50	748	0	10000	3	1	0	3	0
50	749	0	10000	3	1	0	3	0
51	750	0	10000	3	1	0	3	0
49	751	0	10000	3	1	0	3	0
48	752	0	10000	3	1	0	3	0
46	753	0	10000	3	1	0	3	0
44	754	0	10000	3	1	0	3	0
42	755	0	10000	3	1	0	3	0
41	756	0	10000	3	1	0	3	0
40	757	0	10000	3	1	0	3	0
39	758	0	10000	3	1	0	3	0
37	759	0	10000	3	1	0	3	0
35	760	0	10000	3	1	0	3	0
33	761	0	10000	3	1	0	3	0
32	762	0	10000	3	1	0	3	0
32	763	0	10000	3	1	0	3	0
33	764	0	10000	3	1	0	3	0
33	765	0	10000	3	1	0	3	0
34	766	0	10000	3	1	0	3	0
36	767	0	10000	3	1	0	3	0
40	768	0	10000	3	1	0	3	0
43	769	0	10000	3	1	0	3	0
44	770	0	10000	3	1	0	3	0
46	771	0	10000	3	1	0	3	0
46	772	0	10000	3	1	0	3	0
44	773	0	10000	3	1	0	3	0
43	774	0	10000	3	1	0	3	0
43	775	0	10000	3	1	0	3	0
42	776	0	10000	3	1	0	3	0
44	777	0	10000	3	1	0	3	0
43	778	0	10000	3	1	0	3	0
42	779	0	10000	3	1	0	3	0
41	780	0	10000	3	1	0	3	0
40	781	0	10000	3	1	0	3	0
38	782	0	10000	3	1	0	3	0
36	783	0	10000	3	1	0	3	0
36	784	0	10000	3	1	0	3	0
34	785	0	10000	3	1	0	3	0
34	786	0	10000	3	1	0	3	0
32	787	0	10000	3	1	0	3	0
33	788	0	10000	3	1	0	3	0
34	789	0	10000	3	1	0	3	0
35	790	0	10000	3	1	0	3	0
35	791	0	10000	3	1	0	3	0
35	792	0	10000	3	1	0	3	0
34	793	0	10000	3	1	0	3	0
34	794	0	10000	3	1	0	3	0
34	795	0	10000	3	1	0	3	0
33	796	0	10000	3	1	0	3	0
36	797	0	10000	3	1	0	3	0
36	798	0	10000	3	1	0	3	0
35	799	0	10000	3	1	0	3	0
34	800	0	10000	3	1	0	3	0
33	801	0	10000	3	1	0	3	0
34	802	0	10000	3	1	0	3	0
33	803	0	10000	3	1	0	3	0
35	804	0	10000	3	1	0	3	0
37	805	0	10000	3	1	0	3	0
38	806	0	10000	3	1	0	3	0
37	807	0	10000	3	1	0	3	0
38	808	0	10000	3	1	0	3	0
38	809	0	10000	3	1	0	3	0
40	810	0	10000	3	1	0	3	0
40	811	0	10000	3	1	0	3	0
40	812	0	10000	3	1	0	3	0
40	813	0	10000	3	1	0	3	0
39	814	0	10000	3	1	0	3	0
36	815	0	10000	3	1	0	3	0
35	816	0	10000	3	1	0	3	0
37	817	0	10000	3	1	0	3	0
37	818	0	10000	3	1	0	3	0
36	819	0	10000	3	1	0	3	0
33	820	0	10000	3	1	0	3	0
33	821	0	10000	3	1	0	3	0
35	822	0	10000	3	1	0	3	0
33	823	0	10000	3	1	0	3	0
33	824	0	10000	3	1	0	3	0
33	825	0	10000	3	1	0	3	0
34	826	0	10000	3	1	0	3	0
34	827	0	10000	3	1	0	3	0
36	828	0	10000	3	1	0	3	0
36	829	0	10000	3	1	0	3	0
36	830	0	10000	3	1	0	3	0
35	831	0	10000	3	1	0	3	0
35	832	0	10000	3	1	0	3	0
35	833	0	10000	3	1	0	3	0
34	834	0	10000	3	1	0	3	0
35	835	0	10000	3	1	0	3	0
35	836	0	10000	3	1	0	3	0
38	837	0	10000	3	1	0	3	0
36	838	0	10000	3	1	0	3	0
35	839	0	10000	3	1	0	3	0
35	840	0	10000	3	1	0	3	0
33	841	0	10000	3	1	0	3	0
32	842	0	10000	3	1	0	3	0
31	843	0	10000	3	1	0	3	0
31	844	0	10000	3	1	0	3	0
29	845	0	10000	3	1	0	3	0
29	846	0	10000	3	1	0	3	0
27	847	0	10000	3	1	0	3	0
28	848	0	10000	3	1	0	3	0
28	849	0	10000	3	1	0	3	0
26	850	0	10000	3	1	0	3	0
26	851	0	10000	3	1	0	3	0
26	852	0	10000	3	1	0	3	0
27	853	0	10000	3	1	0	3	0
27	854	0	10000	3	1	0	3	0
26	855	0	10000	3	1	0	3	0
27	856	0	10000	3	1	0	3	0
31	857	0	10000	3	1	0	3	0
31	858	0	10000	3	1	0	3	0
32	859	0	10000	3	1	0	3	0
33	860	0	10000	3	1	0	3	0
33	861	0	10000	3	1	0	3	0
32	862	0	10000	3	1	0	3	0
32	863	0	10000	3	1	0	3	0
32	864	0	10000	3	1	0	3	0
32	865	0	10000	3	1	0	3	0
32	866	0	10000	3	1	0	3	0
30	867	0	10000	3	1	0	3	0
29	868	0	10000	3	1	0	3	0
28	869	0	10000	3	1	0	3	0
27	870	0	10000	3	1	0	3	0
26	871	0	10000	3	1	0	3	0
25	872	0	10000	3	1	0	3	0
24	873	0	10000	3	1	0	3	0
22	874	0	10000	3	1	0	3	0
21	875	0	10000	3	1	0	3	0
21	876	0	10000	3	1	0	3	0
24	877	0	10000	3	1	0	3	0
26	878	0	10000	3	1	0	3	0
26	879	0	10000	3	1	0	3	0
26	880	0	10000	3	1	0	3	0
26	881	0	10000	3	1	0	3	0
25	882	0	10000	3	1	0	3	0
25	883	0	10000	3	1	0	3	0
26	884	0	10000	3	1	0	3	0
27	885	0	10000	3	1	0	3	0
28	886	0	10000	3	1	0	3	0
25	887	0	10000	3	1	0	3	0
26	888	0	10000	3	1	0	3	0
25	889	0	10000	3	1	0	3	0
26	890	0	10000	3	1	0	3	0
26	891	0	10000	3	1	0	3	0
25	892	0	10000	3	1	0	3	0
25	893	0	10000	3	1	0	3	0
24	894	0	10000	3	1	0	3	0
23	895	0	10000	3	1	0	3	0
22	896	0	10000	3	1	0	3	0
24	897	0	10000	3	1	0	3	0
24	898	0	10000	3	1	0	3	0
22	899	0	10000	3	1	0	3	0
24	900	0	10000	3	1	0	3	0
25	901	0	10000	3	1	0	3	0
26	902	0	10000	3	1	0	3	0
25	903	0	10000	3	1	0	3	0
26	904	0	10000	3	1	0	3	0
27	905	0	10000	3	1	0	3	0
27	906	0	10000	3	1	0	3	0
24	907	0	10000	3	1	0	3	0
23	908	0	10000	3	1	0	3	0
23	909	0	10000	3	1	0	3	0
23	910	0	10000	3	1	0	3	0
23	911	0	10000	3	1	0	3	0
24	912	0	10000	3	1	0	3	0
23	913	0	10000	3	1	0	3	0
22	914	0	10000	3	1	0	3	0
21	915	0	10000	3	1	0	3	0
21	916	0	10000	3	1	0	3	0
22	917	0	10000	3	1	0	3	0
21	918	0	10000	3	1	0	3	0
20	919	0	10000	3	1	0	3	0
19	920	0	10000	3	1	0	3	0
19	921	0	10000	3	1	0	3	0
19	922	0	10000	3	1	0	3	0
18	923	0	10000	3	1	0	3	0
19	924	0	10000	3	1	0	3	0
20	925	0	10000	3	1	0	3	0
20	926	0	10000	3	1	0	3	0
18	927	0	10000	3	1	0	3	0
19	928	0	10000	3	1	0	3	0
19	929	0	10000	3	1	0	3	0
19	930	0	10000	3	1	0	3	0
19	931	0	10000	3	1	0	3	0
19	932	0	10000	3	1	0	3	0
19	933	0	10000	3	1	0	3	0
17	934	0	10000	3	1	0	3	0
17	935	0	10000	3	1	0	3	0
20	936	0	10000	3	1	0	3	0
22	937	0	10000	3	1	0	3	0
24	938	0	10000	3	1	0	3	0
25	939	0	10000	3	1	0	3	0
26	940	0	10000	3	1	0	3	0
28	941	0	10000	3	1	0	3	0
30	942	0	10000	3	1	0	3	0
28	943	0	10000	3	1	0	3	0
28	944	0	10000	3	1	0	3	0
28	945	0	10000	3	1	0	3	0
28	946	0	10000	3	1	0	3	0
26	947	0	10000	3	1	0	3	0
29	948	0	10000	3	1	0	3	0
30	949	0	10000	3	1	0	3	0
30	950	0	10000	3	1	0	3	0
31	951	0	10000	3	1	0	3	0
30	952	0	10000	3	1	0	3	0
30	953	0	10000	3	1	0	3	0
29	954	0	10000	3	1	0	3	0
27	955	0	10000	3	1	0	3	0
26	956	0	10000	3	1	0	3	0
27	957	0	10000	3	1	0	3	0
26	958	0	10000	3	1	0	3	0
25	959	0	10000	3	1	0	3	0
25	960	0	10000	3	1	0	3	0
24	961	0	10000	3	1	0	3	0
24	962	0	10000	3	1	0	3	0
23	963	0	10000	3	1	0	3	0
22	964	0	10000	3	1	0	3	0
23	965	0	10000	3	1	0	3	0
22	966	0	10000	3	1	0	3	0
20	967	0	10000	3	1	0	3	0
19	968	0	10000	3	1	0	3	0
19	969	0	10000	3	1	0	3	0
19	970	0	10000	3	1	0	3	0
18	971	0	10000	3	1	0	3	0
19	972	0	10000	3	1	0	3	0
20	973	0	10000	3	1	0	3	0
20	974	0	10000	3	1	0	3	0
19	975	0	10000	3	1	0	3	0
20	976	0	10000	3	1	0	3	0
23	977	0	10000	3	1	0	3	0
21	978	0	10000	3	1	0	3	0
20	979	0	10000	3	1	0	3	0
20	980	0	10000	3	1	0	3	0
19	981	0	10000	3	1	0	3	0
19	982	0	10000	3	1	0	3	0
18	983	0	10000	3	1	0	3	0
19	984	0	10000	3	1	0	3	0
19	985	0	10000	3	1	0	3	0
19	986	0	10000	3	1	0	3	0
18	987	0	10000	3	1	0	3	0
19	988	0	10000	3	1	0	3	0
20	989	0	10000	3	1	0	3	0
21	990	0	10000	3	1	0	3	0
21	991	0	10000	3	1	0	3	0
22	992	0	10000	3	1	0	3	0
21	993	0	10000	3	1	0	3	0
20	994	0	10000	3	1	0	3	0
19	995	0	10000	3	1	0	3	0
19	996	0	10000	3	1	0	3	0
20	997	0	10000	3	1	0	3	0
19	998	0	10000	3	1	0	3	0
18	999	0	10000	3	1	0	3	0
18	1000	0	10000	3	1	0	3	0
19	1001	0	10000	3	1	0	3	0
17	2	0	10000	4	1	0	4	0
16	3	0	10000	4	1	0	4	0
16	4	0	10000	4	1	0	4	0
16	5	0	10000	4	1	0	4	0
16	6	0	10000	4	1	0	4	0
16	7	0	10000	4	1	0	4	0
18	8	0	10000	4	1	0	4	0
18	9	0	10000	4	1	0	4	0
17	10	0	10000	4	1	0	4	0
17	11	0	10000	4	1	0	4	0
17	12	0	10000	4	1	0	4	0
19	13	0	10000	4	1	0	4	0
20	14	0	10000	4	1	0	4	0
19	15	0	10000	4	1	0	4	0
20	16	0	10000	4	1	0	4	0
20	17	0	10000	4	1	0	4	0
18	18	0	10000	4	1	0	4	0
18	19	0	10000	4	1	0	4	0
17	20	0	10000	4	1	0	4	0
17	21	0	10000	4	1	0	4	0
18	21	0	10000	4	1	0	4	0
18	22	0	10000	4	1	0	4	0
18	24	0	10000	4	1	0	4	0
18	25	0	10000	4	1	0	4	0
18	26	0	10000	4	1	0	4	0
17	27	0	10000	4	1	0	4	0
19	28	0	10000	4	1	0	4	0
18	29	0	10000	4	1	0	4	0
18	30	0	10000	4	1	0	4	0
18	31	0	10000	4	1	0	4	0
16	31	0	10000	4	1	0	4	0
16	32	0	10000	4	1	0	4	0
16	34	0	10000	4	1	0	4	0
16	35	0	10000	4	1	0	4	0
16	36	0	10000	4	1	0	4	0
17	37	0	10000	4	1	0	4	0
14	38	0	10000	4	1	0	4	0
13	39	0	10000	4	1	0	4	0
14	40	0	10000	4	1	0	4	0
14	41	0	10000	4	1	0	4	0
14	41	0	10000	4	1	0	4	0
14	42	0	10000	4	1	0	4	0
14	44	0	10000	4	1	0	4	0
13	45	0	10000	4	1	0	4	0
13	46	0	10000	4	1	0	4	0
12	47	0	10000	4	1	0	4	0
14	48	0	10000	4	1	0	4	0
14	49	0	10000	4	1	0	4	0
15	50	0	10000	4	1	0	4	0
15	51	0	10000	4	1	0	4	0
17	51	0	10000	4	1	0	4	0
17	52	0	10000	4	1	0	4	0
15	54	0	10000	4	1	0	4	0
17	55	0	10000	4	1	0	4	0
16	56	0	10000	4	1	0	4	0
16	57	0	10000	4	1	0	4	0
14	58	0	10000	4	1	0	4	0
14	59	0	10000	4	1	0	4	0
14	60	0	10000	4	1	0	4	0
14	61	0	10000	4	1	0	4	0
14	61	0	10000	4	1	0	4	0
13	62	0	10000	4	1	0	4	0
15	64	0	10000	4	1	0	4	0
15	65	0	10000	4	1	0	4	0
15	66	0	10000	4	1	0	4	0
13	67	0	10000	4	1	0	4	0
15	68	0	10000	4	1	0	4	0
15	69	0	10000	4	1	0	4	0
14	70	0	10000	4	1	0	4	0
15	71	0	10000	4	1	0	4	0
16	71	0	10000	4	1	0	4	0
15	72	0	10000	4	1	0	4	0
16	74	0	10000	4	1	0	4	0
17	75	0	10000	4	1	0	4	0
16	76	0	10000	4	1	0	4	0
17	77	0	10000	4	1	0	4	0
16	78	0	10000	4	1	0	4	0
15	79	0	10000	4	1	0	4	0
16	80	0	10000	4	1	0	4	0
15	81	0	10000	4	1	0	4	0
15	81	0	10000	4	1	0	4	0
15	82	0	10000	4	1	0	4	0
15	84	0	10000	4	1	0	4	0
14	85	0	10000	4	1	0	4	0
13	86	0	10000	4	1	0	4	0
13	87	0	10000	4	1	0	4	0
14	88	0	10000	4	1	0	4	0
14	89	0	10000	4	1	0	4	0
14	90	0	10000	4	1	0	4	0
13	91	0	10000	4	1	0	4	0
14	91	0	10000	4	1	0	4	0
14	92	0	10000	4	1	0	4	0
14	94	0	10000	4	1	0	4	0
14	95	0	10000	4	1	0	4	0
14	96	0	10000	4	1	0	4	0
14	97	0	10000	4	1	0	4	0
12	98	0	10000	4	1	0	4	0
11	99	0	10000	4	1	0	4	0
11	100	0	10000	4	1	0	4	0
11	101	0	10000	4	1	0	4	0
11	101	0	10000	4	1	0	4	0
12	102	0	10000	4	1	0	4	0
13	104	0	10000	4	1	0	4	0
12	105	0	10000	4	1	0	4	0
12	106	0	10000	4	1	0	4	0
12	107	0	10000	4	1	0	4	0
12	108	0	10000	4	1	0	4	0
13	109	0	10000	4	1	0	4	0
15	110	0	10000	4	1	0	4	0
14	111	0	10000	4	1	0	4	0
14	111	0	10000	4	1	0	4	0
14	112	0	10000	4	1	0	4	0
12	114	0	10000	4	1	0	4	0
13	115	0	10000	4	1	0	4	0
14	116	0	10000	4	1	0	4	0
14	117	0	10000	4	1	0	4	0
11	118	0	10000	4	1	0	4	0
11	119	0	10000	4	1	0	4	0
11	120	0	10000	4	1	0	4	0
11	121	0	10000	4	1	0	4	0
11	121	0	10000	4	1	0	4	0
11	122	0	10000	4	1	0	4	0
11	124	0	10000	4	1	0	4	0
11	125	0	10000	4	1	0	4	0
11	126	0	10000	4	1	0	4	0
11	127	0	10000	4	1	0	4	0
12	128	0	10000	4	1	0	4	0
12	129	0	10000	4	1	0	4	0
12	130	0	10000	4	1	0	4	0
13	131	0	10000	4	1	0	4	0
13	131	0	10000	4	1	0	4	0
12	132	0	10000	4	1	0	4	0
11	134	0	10000	4	1	0	4	0
12	135	0	10000	4	1	0	4	0
14	136	0	10000	4	1	0	4	0
17	137	0	10000	4	1	0	4	0
17	138	0	10000	4	1	0	4	0
17	139	0	10000	4	1	0	4	0
17	140	0	10000	4	1	0	4	0
16	141	0	10000	4	1	0	4	0
16	141	0	10000	4	1	0	4	0
16	142	0	10000	4	1	0	4	0
18	144	0	10000	4	1	0	4	0
18	145	0	10000	4	1	0	4	0
18	146	0	10000	4	1	0	4	0
17	147	0	10000	4	1	0	4	0
19	148	0	10000	4	1	0	4	0
18	149	0	10000	4	1	0	4	0
18	150	0	10000	4	1	0	4	0
18	151	0	10000	4	1	0	4	0
17	151	0	10000	4	1	0	4	0
17	152	0	10000	4	1	0	4	0
17	154	0	10000	4	1	0	4	0
16	155	0	10000	4	1	0	4	0
16	156	0	10000	4	1	0	4	0
16	157	0	10000	4	1	0	4	0
14	158	0	10000	4	1	0	4	0
13	159	0	10000	4	1	0	4	0
14	160	0	10000	4	1	0	4	0
14	161	0	10000	4	1	0	4	0
14	161	0	10000	4	1	0	4	0
13	162	0	10000	4	1	0	4	0
13	164	0	10000	4	1	0	4	0
12	165	0	10000	4	1	0	4	0
12	166	0	10000	4	1	0	4	0
13	167	0	10000	4	1	0	4	0
15	168	0	10000	4	1	0	4	0
15	169	0	10000	4	1	0	4	0
14	170	0	10000	4	1	0	4	0
14	171	0	10000	4	1	0	4	0
14	171	0	10000	4	1	0	4	0
15	172	0	10000	4	1	0	4	0
16	174	0	10000	4	1	0	4	0
18	175	0	10000	4	1	0	4	0
18	176	0	10000	4	1	0	4	0
18	177	0	10000	4	1	0	4	0
17	178	0	10000	4	1	0	4	0
17	179	0	10000	4	1	0	4	0
18	180	0	10000	4	1	0	4	0
18	181	0	10000	4	1	0	4	0
17	181	0	10000	4	1	0	4	0
17	182	0	10000	4	1	0	4	0
17	184	0	10000	4	1	0	4	0
16	185	0	10000	4	1	0	4	0
15	186	0	10000	4	1	0	4	0
14	187	0	10000	4	1	0	4	0
15	188	0	10000	4	1	0	4	0
15	189	0	10000	4	1	0	4	0
14	190	0	10000	4	1	0	4	0
14	191	0	10000	4	1	0	4	0
14	191	0	10000	4	1	0	4	0
14	192	0	10000	4	1	0	4	0
14	194	0	10000	4	1	0	4	0
15	195	0	10000	4	1	0	4	0
14	196	0	10000	4	1	0	4	0
14	197	0	10000	4	1	0	4	0
12	198	0	10000	4	1	0	4	0
12	199	0	10000	4	1	0	4	0
11	200	0	10000	4	1	0	4	0
11	201	0	10000	4	1	0	4	0
11	201	0	10000	4	1	0	4	0
12	202	0	10000	4	1	0	4	0
13	204	0	10000	4	1	0	4	0
12	205	0	10000	4	1	0	4	0
12	206	0	10000	4	1	0	4	0
13	207	0	10000	4	1	0	4	0
14	208	0	10000	4	1	0	4	0
14	209	0	10000	4	1	0	4	0
14	210	0	10000	4	1	0	4	0
14	211	0	10000	4	1	0	4	0
14	211	0	10000	4	1	0	4	0
13	212	0	10000	4	1	0	4	0
13	214	0	10000	4	1	0	4	0
13	215	0	10000	4	1	0	4	0
14	216	0	10000	4	1	0	4	0
14	217	0	10000	4	1	0	4	0
12	218	0	10000	4	1	0	4	0
11	219	0	10000	4	1	0	4	0
12	220	0	10000	4	1	0	4	0
13	221	0	10000	4	1	0	4	0
13	221	0	10000	4	1	0	4	0
13	222	0	10000	4	1	0	4	0
14	224	0	10000	4	1	0	4	0
12	225	0	10000	4	1	0	4	0
13	226	0	10000	4	1	0	4	0
13	227	0	10000	4	1	0	4	0
13	228	0	10000	4	1	0	4	0
13	229	0	10000	4	1	0	4	0
13	230	0	10000	4	1	0	4	0
13	231	0	10000	4	1	0	4	0
14	231	0	10000	4	1	0	4	0
14	232	0	10000	4	1	0	4	0
15	234	0	10000	4	1	0	4	0
15	235	0	10000	4	1	0	4	0
15	236	0	10000	4	1	0	4	0
15	237	0	10000	4	1	0	4	0
13	238	0	10000	4	1	0	4	0
12	239	0	10000	4	1	0	4	0
12	240	0	10000	4	1	0	4	0
13	241	0	10000	4	1	0	4	0
14	241	0	10000	4	1	0	4	0
14	242	0	10000	4	1	0	4	0
16	244	0	10000	4	1	0	4	0
16	245	0	10000	4	1	0	4	0
16	246	0	10000	4	1	0	4	0
16	247	0	10000	4	1	0	4	0
17	248	0	10000	4	1	0	4	0
16	249	0	10000	4	1	0	4	0
15	250	0	10000	4	1	0	4	0
15	251	0	10000	4	1	0	4	0
14	251	0	10000	4	1	0	4	0
14	252	0	10000	4	1	0	4	0
14	254	0	10000	4	1	0	4	0
14	255	0	10000	4	1	0	4	0
14	256	0	10000	4	1	0	4	0
14	257	0	10000	4	1	0	4	0
13	258	0	10000	4	1	0	4	0
14	259	0	10000	4	1	0	4	0
14	260	0	10000	4	1	0	4	0
14	261	0	10000	4	1	0	4	0
15	261	0	10000	4	1	0	4	0
14	262	0	10000	4	1	0	4	0
14	264	0	10000	4	1	0	4	0
16	265	0	10000	4	1	0	4	0
16	266	0	10000	4	1	0	4	0
16	267	0	10000	4	1	0	4	0
19	268	0	10000	4	1	0	4	0
19	269	0	10000	4	1	0	4	0
18	270	0	10000	4	1	0	4	0
18	271	0	10000	4	1	0	4	0
18	271	0	10000	4	1	0	4	0
18	272	0	10000	4	1	0	4	0
18	274	0	10000	4	1	0	4	0
19	275	0	10000	4	1	0	4	0
20	276	0	10000	4	1	0	4	0
20	277	0	10000	4	1	0	4	0
18	278	0	10000	4	1	0	4	0
18	279	0	10000	4	1	0	4	0
19	280	0	10000	4	1	0	4	0
18	281	0	10000	4	1	0	4	0
18	281	0	10000	4	1	0	4	0
19	282	0	10000	4	1	0	4	0
21	284	0	10000	4	1	0	4	0
20	285	0	10000	4	1	0	4	0
19	286	0	10000	4	1	0	4	0
19	287	0	10000	4	1	0	4	0
22	288	0	10000	4	1	0	4	0
23	289	0	10000	4	1	0	4	0
24	290	0	10000	4	1	0	4	0
24	291	0	10000	4	1	0	4	0
24	291	0	10000	4	1	0	4	0
24	292	0	10000	4	1	0	4	0
25	294	0	10000	4	1	0	4	0
25	295	0	10000	4	1	0	4	0
25	296	0	10000	4	1	0	4	0
25	297	0	10000	4	1	0	4	0
23	298	0	10000	4	1	0	4	0
22	299	0	10000	4	1	0	4	0
23	300	0	10000	4	1	0	4	0
24	301	0	10000	4	1	0	4	0
24	301	0	10000	4	1	0	4	0
25	302	0	10000	4	1	0	4	0
24	304	0	10000	4	1	0	4	0
23	305	0	10000	4	1	0	4	0
21	306	0	10000	4	1	0	4	0
21	307	0	10000	4	1	0	4	0
22	308	0	10000	4	1	0	4	0
22	309	0	10000	4	1	0	4	0
21	310	0	10000	4	1	0	4	0
20	311	0	10000	4	1	0	4	0
20	311	0	10000	4	1	0	4	0
20	312	0	10000	4	1	0	4	0
21	314	0	10000	4	1	0	4	0
21	315	0	10000	4	1	0	4	0
21	316	0	10000	4	1	0	4	0
20	317	0	10000	4	1	0	4	0
19	318	0	10000	4	1	0	4	0
18	319	0	10000	4	1	0	4	0
17	320	0	10000	4	1	0	4	0
18	321	0	10000	4	1	0	4	0
17	321	0	10000	4	1	0	4	0
17	322	0	10000	4	1	0	4	0
17	324	0	10000	4	1	0	4	0
16	325	0	10000	4	1	0	4	0
15	326	0	10000	4	1	0	4	0
15	327	0	10000	4	1	0	4	0
16	328	0	10000	4	1	0	4	0
16	329	0	10000	4	1	0	4	0
17	330	0	10000	4	1	0	4	0
17	331	0	10000	4	1	0	4	0
18	331	0	10000	4	1	0	4	0
18	332	0	10000	4	1	0	4	0
17	334	0	10000	4	1	0	4	0
18	335	0	10000	4	1	0	4	0
18	336	0	10000	4	1	0	4	0
18	337	0	10000	4	1	0	4	0
16	338	0	10000	4	1	0	4	0
15	339	0	10000	4	1	0	4	0
14	340	0	10000	4	1	0	4	0
15	341	0	10000	4	1	0	4	0
14	341	0	10000	4	1	0	4	0
14	342	0	10000	4	1	0	4	0
14	344	0	10000	4	1	0	4	0
15	345	0	10000	4	1	0	4	0
16	346	0	10000	4	1	0	4	0
17	347	0	10000	4	1	0	4	0
17	348	0	10000	4	1	0	4	0
17	349	0	10000	4	1	0	4	0
17	350	0	10000	4	1	0	4	0
16	351	0	10000	4	1	0	4	0
16	351	0	10000	4	1	0	4	0
16	352	0	10000	4	1	0	4	0
15	354	0	10000	4	1	0	4	0
15	355	0	10000	4	1	0	4	0
16	356	0	10000	4	1	0	4	0
16	357	0	10000	4	1	0	4	0
15	358	0	10000	4	1	0	4	0
14	359	0	10000	4	1	0	4	0
15	360	0	10000	4	1	0	4	0
16	361	0	10000	4	1	0	4	0
17	361	0	10000	4	1	0	4	0
17	362	0	10000	4	1	0	4	0
17	364	0	10000	4	1	0	4	0
16	365	0	10000	4	1	0	4	0
15	366	0	10000	4	1	0	4	0
14	367	0	10000	4	1	0	4	0
17	368	0	10000	4	1	0	4	0
19	369	0	10000	4	1	0	4	0
20	370	0	10000	4	1	0	4	0
20	371	0	10000	4	1	0	4	0
20	371	0	10000	4	1	0	4	0
22	372	0	10000	4	1	0	4	0
22	374	0	10000	4	1	0	4	0
22	375	0	10000	4	1	0	4	0
22	376	0	10000	4	1	0	4	0
22	377	0	10000	4	1	0	4	0
21	378	0	10000	4	1	0	4	0
22	379	0	10000	4	1	0	4	0
21	380	0	10000	4	1	0	4	0
20	381	0	10000	4	1	0	4	0
20	381	0	10000	4	1	0	4	0
20	382	0	10000	4	1	0	4	0
21	384	0	10000	4	1	0	4	0
21	385	0	10000	4	1	0	4	0
20	386	0	10000	4	1	0	4	0
19	387	0	10000	4	1	0	4	0
20	388	0	10000	4	1	0	4	0
20	389	0	10000	4	1	0	4	0
21	390	0	10000	4	1	0	4	0
20	391	0	10000	4	1	0	4	0
20	391	0	10000	4	1	0	4	0
21	392	0	10000	4	1	0	4	0
21	394	0	10000	4	1	0	4	0
20	395	0	10000	4	1	0	4	0
20	396	0	10000	4	1	0	4	0
21	397	0	10000	4	1	0	4	0
19	398	0	10000	4	1	0	4	0
20	399	0	10000	4	1	0	4	0
20	400	0	10000	4	1	0	4	0
19	401	0	10000	4	1	0	4	0
19	401	0	10000	4	1	0	4	0
19	402	0	10000	4	1	0	4	0
19	404	0	10000	4	1	0	4	0
19	405	0	10000	4	1	0	4	0
20	406	0	10000	4	1	0	4	0
18	407	0	10000	4	1	0	4	0
19	408	0	10000	4	1	0	4	0
19	409	0	10000	4	1	0	4	0
18	410	0	10000	4	1	0	4	0
17	411	0	10000	4	1	0	4	0
17	411	0	10000	4	1	0	4	0
16	412	0	10000	4	1	0	4	0
17	414	0	10000	4	1	0	4	0
16	415	0	10000	4	1	0	4	0
16	416	0	10000	4	1	0	4	0
17	417	0	10000	4	1	0	4	0
15	418	0	10000	4	1	0	4	0
15	419	0	10000	4	1	0	4	0
16	420	0	10000	4	1	0	4	0
17	421	0	10000	4	1	0	4	0
17	421	0	10000	4	1	0	4	0
18	422	0	10000	4	1	0	4	0
17	424	0	10000	4	1	0	4	0
16	425	0	10000	4	1	0	4	0
16	426	0	10000	4	1	0	4	0
16	427	0	10000	4	1	0	4	0
18	428	0	10000	4	1	0	4	0
18	429	0	10000	4	1	0	4	0
17	430	0	10000	4	1	0	4	0
16	431	0	10000	4	1	0	4	0
16	431	0	10000	4	1	0	4	0
15	432	0	10000	4	1	0	4	0
14	434	0	10000	4	1	0	4	0
14	435	0	10000	4	1	0	4	0
14	436	0	10000	4	1	0	4	0
14	437	0	10000	4	1	0	4	0
11	438	0	10000	4	1	0	4	0
11	439	0	10000	4	1	0	4	0
11	440	0	10000	4	1	0	4	0
11	441	0	10000	4	1	0	4	0
12	441	0	10000	4	1	0	4	0
12	442	0	10000	4	1	0	4	0
12	444	0	10000	4	1	0	4	0
13	445	0	10000	4	1	0	4	0
16	446	0	10000	4	1	0	4	0
15	447	0	10000	4	1	0	4	0
17	448	0	10000	4	1	0	4	0
18	449	0	10000	4	1	0	4	0
17	450	0	10000	4	1	0	4	0
16	451	0	10000	4	1	0	4	0
16	451	0	10000	4	1	0	4	0
16	452	0	10000	4	1	0	4	0
16	454	0	10000	4	1	0	4	0
17	455	0	10000	4	1	0	4	0
17	456	0	10000	4	1	0	4	0
16	457	0	10000	4	1	0	4	0
16	458	0	10000	4	1	0	4	0
15	459	0	10000	4	1	0	4	0
15	460	0	10000	4	1	0	4	0
15	461	0	10000	4	1	0	4	0
15	461	0	10000	4	1	0	4	0
15	462	0	10000	4	1	0	4	0
15	464	0	10000	4	1	0	4	0
13	465	0	10000	4	1	0	4	0
13	466	0	10000	4	1	0	4	0
12	467	0	10000	4	1	0	4	0
13	468	0	10000	4	1	0	4	0
14	469	0	10000	4	1	0	4	0
14	470	0	10000	4	1	0	4	0
15	471	0	10000	4	1	0	4	0
17	471	0	10000	4	1	0	4	0
18	472	0	10000	4	1	0	4	0
20	474	0	10000	4	1	0	4	0
20	475	0	10000	4	1	0	4	0
20	476	0	10000	4	1	0	4	0
20	477	0	10000	4	1	0	4	0
17	478	0	10000	4	1	0	4	0
16	479	0	10000	4	1	0	4	0
16	480	0	10000	4	1	0	4	0
17	481	0	10000	4	1	0	4	0
18	481	0	10000	4	1	0	4	0
20	482	0	10000	4	1	0	4	0
20	484	0	10000	4	1	0	4	0
20	485	0	10000	4	1	0	4	0
20	486	0	10000	4	1	0	4	0
22	487	0	10000	4	1	0	4	0
23	488	0	10000	4	1	0	4	0
22	489	0	10000	4	1	0	4	0
23	490	0	10000	4	1	0	4	0
23	491	0	10000	4	1	0	4	0
23	491	0	10000	4	1	0	4	0
23	492	0	10000	4	1	0	4	0
21	494	0	10000	4	1	0	4	0
20	495	0	10000	4	1	0	4	0
21	496	0	10000	4	1	0	4	0
20	497	0	10000	4	1	0	4	0
18	498	0	10000	4	1	0	4	0
18	499	0	10000	4	1	0	4	0
18	500	0	10000	4	1	0	4	0
17	501	0	10000	4	1	0	4	0
17	502	0	10000	4	1	0	4	1
16	503	0	10000	4	1	0	4	1
16	504	0	10000	4	1	0	4	1
15	505	0	10000	4	1	0	4	1
14	506	0	10000	4	1	0	4	1
13	507	0	10000	4	1	0	4	1
16	508	0	10000	4	1	0	4	1
17	509	0	10000	4	1	0	4	1
19	510	0	10000	4	1	0	4	1
20	511	0	10000	4	1	0	4	1
19	511	0	10000	4	1	0	4	1
18	512	0	10000	4	1	0	4	1
19	514	0	10000	4	1	0	4	1
19	515	0	10000	4	1	0	4	1
18	516	0	10000	4	1	0	4	1
18	517	0	10000	4	1	0	4	1
15	518	0	10000	4	1	0	4	1
15	519	0	10000	4	1	0	4	1
15	520	0	10000	4	1	0	4	1
15	521	0	10000	4	1	0	4	1
17	521	0	10000	4	1	0	4	1
18	522	0	10000	4	1	0	4	1
19	524	0	10000	4	1	0	4	1
21	525	0	10000	4	1	0	4	1
23	526	0	10000	4	1	0	4	1
24	527	0	10000	4	1	0	4	1
26	528	0	10000	4	1	0	4	1
25	529	0	10000	4	1	0	4	1
25	530	0	10000	4	1	0	4	1
25	531	0	10000	4	1	0	4	1
23	531	0	10000	4	1	0	4	1
22	532	0	10000	4	1	0	4	1
21	534	0	10000	4	1	0	4	1
21	535	0	10000	4	1	0	4	1
21	536	0	10000	4	1	0	4	1
23	537	0	10000	4	1	0	4	1
21	538	0	10000	4	1	0	4	1
20	539	0	10000	4	1	0	4	1
21	540	0	10000	4	1	0	4	1
22	541	0	10000	4	1	0	4	1
21	541	0	10000	4	1	0	4	1
21	542	0	10000	4	1	0	4	1
20	544	0	10000	4	1	0	4	1
20	545	0	10000	4	1	0	4	1
20	546	0	10000	4	1	0	4	1
20	547	0	10000	4	1	0	4	1
21	548	0	10000	4	1	0	4	1
22	549	0	10000	4	1	0	4	1
23	550	0	10000	4	1	0	4	1
23	551	0	10000	4	1	0	4	1
23	551	0	10000	4	1	0	4	0
22	552	0	10000	4	1	0	4	0
21	554	0	10000	4	1	0	4	0
21	555	0	10000	4	1	0	4	0
21	556	0	10000	4	1	0	4	0
21	557	0	10000	4	1	0	4	0
19	558	0	10000	4	1	0	4	0
18	559	0	10000	4	1	0	4	0
19	560	0	10000	4	1	0	4	0
19	561	0	10000	4	1	0	4	0
20	561	0	10000	4	1	0	4	0
21	562	0	10000	4	1	0	4	0
21	564	0	10000	4	1	0	4	0
22	565	0	10000	4	1	0	4	0
22	566	0	10000	4	1	0	4	0
20	567	0	10000	4	1	0	4	0
22	568	0	10000	4	1	0	4	0
23	569	0	10000	4	1	0	4	0
22	570	0	10000	4	1	0	4	0
20	571	0	10000	4	1	0	4	0
20	571	0	10000	4	1	0	4	0
20	572	0	10000	4	1	0	4	0
19	574	0	10000	4	1	0	4	0
20	575	0	10000	4	1	0	4	0
21	576	0	10000	4	1	0	4	0
21	577	0	10000	4	1	0	4	0
20	578	0	10000	4	1	0	4	0
20	579	0	10000	4	1	0	4	0
20	580	0	10000	4	1	0	4	0
21	581	0	10000	4	1	0	4	0
21	581	0	10000	4	1	0	4	0
20	582	0	10000	4	1	0	4	0
20	584	0	10000	4	1	0	4	0
19	585	0	10000	4	1	0	4	0
19	586	0	10000	4	1	0	4	0
18	587	0	10000	4	1	0	4	0
20	588	0	10000	4	1	0	4	0
20	589	0	10000	4	1	0	4	0
21	590	0	10000	4	1	0	4	0
23	591	0	10000	4	1	0	4	0
24	591	0	10000	4	1	0	4	0
25	592	0	10000	4	1	0	4	0
29	594	0	10000	4	1	0	4	0
48	595	0	10000	4	1	0	4	0
64	596	0	10000	4	1	0	4	0
88	597	0	10000	4	1	0	4	0
172	598	0	10000	4	1	0	4	0
290	599	0	10000	4	1	0	4	0
330	600	0	10000	4	1	0	4	0
391	601	0	10000	4	1	0	4	0
485	601	0	10000	4	1	0	4	0
524	602	0	10000	4	1	0	4	0
530	604	0	10000	4	1	0	4	0
528	605	0	10000	4	1	0	4	0
585	606	0	10000	4	1	0	4	0
615	607	0	10000	4	1	0	4	0
605	608	0	10000	4	1	0	4	0
632	609	0	10000	4	1	0	4	0
648	610	0	10000	4	1	0	4	0
631	611	0	10000	4	1	0	4	0
679	611	0	10000	4	1	0	4	0
733	612	0	10000	4	1	0	4	0
732	614	0	10000	4	1	0	4	0
755	615	0	10000	4	1	0	4	0
857	616	0	10000	4	1	0	4	0
937	617	0	10000	4	1	0	4	0
916	618	0	10000	4	1	0	4	0
890	619	0	10000	4	1	0	4	0
914	620	0	10000	4	1	0	4	0
1003	621	0	10000	4	1	0	4	0
994	621	0	10000	4	1	0	4	0
1023	622	0	10000	4	1	0	4	0
1007	624	0	10000	4	1	0	4	0
996	625	0	10000	4	1	0	4	0
1011	626	0	10000	4	1	0	4	0
1028	627	0	10000	4	1	0	4	0
1019	628	0	10000	4	1	0	4	0
978	629	0	10000	4	1	0	4	0
941	630	0	10000	4	1	0	4	0
920	631	0	10000	4	1	0	4	0
908	631	0	10000	4	1	0	4	0
893	632	0	10000	4	1	0	4	0
872	634	0	10000	4	1	0	4	0
849	635	0	10000	4	1	0	4	0
827	636	0	10000	4	1	0	4	0
810	637	0	10000	4	1	0	4	0
796	638	0	10000	4	1	0	4	0
790	639	0	10000	4	1	0	4	0
788	640	0	10000	4	1	0	4	0
790	641	0	10000	4	1	0	4	0
795	641	0	10000	4	1	0	4	0
797	642	0	10000	4	1	0	4	0
796	644	0	10000	4	1	0	4	0
792	645	0	10000	4	1	0	4	0
783	646	0	10000	4	1	0	4	0
771	647	0	10000	4	1	0	4	0
758	648	0	10000	4	1	0	4	0
740	649	0	10000	4	1	0	4	0
722	650	0	10000	4	1	0	4	0
701	651	0	10000	4	1	0	4	0
675	651	0	10000	4	1	0	4	0
644	652	0	10000	4	1	0	4	0
618	654	0	10000	4	1	0	4	0
598	655	0	10000	4	1	0	4	0
584	656	0	10000	4	1	0	4	0
576	657	0	10000	4	1	0	4	0
570	658	0	10000	4	1	0	4	0
569	659	0	10000	4	1	0	4	0
570	660	0	10000	4	1	0	4	0
570	661	0	10000	4	1	0	4	0
570	661	0	10000	4	1	0	4	0
569	662	0	10000	4	1	0	4	0
569	664	0	10000	4	1	0	4	0
569	665	0	10000	4	1	0	4	0
572	666	0	10000	4	1	0	4	0
575	667	0	10000	4	1	0	4	0
582	668	0	10000	4	1	0	4	0
590	669	0	10000	4	1	0	4	0
597	670	0	10000	4	1	0	4	0
606	671	0	10000	4	1	0	4	0
615	671	0	10000	4	1	0	4	0
623	672	0	10000	4	1	0	4	0
628	674	0	10000	4	1	0	4	0
630	675	0	10000	4	1	0	4	0
631	676	0	10000	4	1	0	4	0
631	677	0	10000	4	1	0	4	0
626	678	0	10000	4	1	0	4	0
622	679	0	10000	4	1	0	4	0
621	680	0	10000	4	1	0	4	0
615	681	0	10000	4	1	0	4	0
607	681	0	10000	4	1	0	4	0
596	682	0	10000	4	1	0	4	0
581	684	0	10000	4	1	0	4	0
563	685	0	10000	4	1	0	4	0
544	686	0	10000	4	1	0	4	0
523	687	0	10000	4	1	0	4	0
506	688	0	10000	4	1	0	4	0
485	689	0	10000	4	1	0	4	0
466	690	0	10000	4	1	0	4	0
448	691	0	10000	4	1	0	4	0
433	691	0	10000	4	1	0	4	0
416	692	0	10000	4	1	0	4	0
400	694	0	10000	4	1	0	4	0
385	695	0	10000	4	1	0	4	0
371	696	0	10000	4	1	0	4	0
357	697	0	10000	4	1	0	4	0
343	698	0	10000	4	1	0	4	0
330	699	0	10000	4	1	0	4	0
316	700	0	10000	4	1	0	4	0
302	701	0	10000	4	1	0	4	0
290	701	0	10000	4	1	0	4	0
280	702	0	10000	4	1	0	4	0
272	704	0	10000	4	1	0	4	0
265	705	0	10000	4	1	0	4	0
260	706	0	10000	4	1	0	4	0
254	707	0	10000	4	1	0	4	0
249	708	0	10000	4	1	0	4	0
245	709	0	10000	4	1	0	4	0
241	710	0	10000	4	1	0	4	0
236	711	0	10000	4	1	0	4	0
231	711	0	10000	4	1	0	4	0
224	712	0	10000	4	1	0	4	0
217	714	0	10000	4	1	0	4	0
210	715	0	10000	4	1	0	4	0
203	716	0	10000	4	1	0	4	0
197	717	0	10000	4	1	0	4	0
190	718	0	10000	4	1	0	4	0
183	719	0	10000	4	1	0	4	0
178	720	0	10000	4	1	0	4	0
176	721	0	10000	4	1	0	4	0
174	721	0	10000	4	1	0	4	0
173	722	0	10000	4	1	0	4	0
172	724	0	10000	4	1	0	4	0
172	725	0	10000	4	1	0	4	0
172	726	0	10000	4	1	0	4	0
170	727	0	10000	4	1	0	4	0
170	728	0	10000	4	1	0	4	0
169	729	0	10000	4	1	0	4	0
167	730	0	10000	4	1	0	4	0
165	731	0	10000	4	1	0	4	0
161	731	0	10000	4	1	0	4	0
158	732	0	10000	4	1	0	4	0
153	734	0	10000	4	1	0	4	0
149	735	0	10000	4	1	0	4	0
145	736	0	10000	4	1	0	4	0
141	737	0	10000	4	1	0	4	0
135	738	0	10000	4	1	0	4	0
132	739	0	10000	4	1	0	4	0
129	740	0	10000	4	1	0	4	0
126	741	0	10000	4	1	0	4	0
124	741	0	10000	4	1	0	4	0
124	742	0	10000	4	1	0	4	0
124	744	0	10000	4	1	0	4	0
124	745	0	10000	4	1	0	4	0
125	746	0	10000	4	1	0	4	0
125	747	0	10000	4	1	0	4	0
128	748	0	10000	4	1	0	4	0
128	749	0	10000	4	1	0	4	0
126	750	0	10000	4	1	0	4	0
122	751	0	10000	4	1	0	4	0
119	751	0	10000	4	1	0	4	0
116	752	0	10000	4	1	0	4	0
111	754	0	10000	4	1	0	4	0
107	755	0	10000	4	1	0	4	0
103	756	0	10000	4	1	0	4	0
98	757	0	10000	4	1	0	4	0
93	758	0	10000	4	1	0	4	0
90	759	0	10000	4	1	0	4	0
87	760	0	10000	4	1	0	4	0
84	761	0	10000	4	1	0	4	0
83	761	0	10000	4	1	0	4	0
83	762	0	10000	4	1	0	4	0
85	764	0	10000	4	1	0	4	0
85	765	0	10000	4	1	0	4	0
84	766	0	10000	4	1	0	4	0
85	767	0	10000	4	1	0	4	0
89	768	0	10000	4	1	0	4	0
91	769	0	10000	4	1	0	4	0
92	770	0	10000	4	1	0	4	0
92	771	0	10000	4	1	0	4	0
91	771	0	10000	4	1	0	4	0
89	772	0	10000	4	1	0	4	0
87	774	0	10000	4	1	0	4	0
84	775	0	10000	4	1	0	4	0
81	776	0	10000	4	1	0	4	0
79	777	0	10000	4	1	0	4	0
74	778	0	10000	4	1	0	4	0
72	779	0	10000	4	1	0	4	0
70	780	0	10000	4	1	0	4	0
68	781	0	10000	4	1	0	4	0
68	781	0	10000	4	1	0	4	0
67	782	0	10000	4	1	0	4	0
68	784	0	10000	4	1	0	4	0
68	785	0	10000	4	1	0	4	0
68	786	0	10000	4	1	0	4	0
68	787	0	10000	4	1	0	4	0
71	788	0	10000	4	1	0	4	0
71	789	0	10000	4	1	0	4	0
71	790	0	10000	4	1	0	4	0
69	791	0	10000	4	1	0	4	0
66	791	0	10000	4	1	0	4	0
64	792	0	10000	4	1	0	4	0
65	794	0	10000	4	1	0	4	0
63	795	0	10000	4	1	0	4	0
63	796	0	10000	4	1	0	4	0
64	797	0	10000	4	1	0	4	0
61	798	0	10000	4	1	0	4	0
59	799	0	10000	4	1	0	4	0
57	800	0	10000	4	1	0	4	0
56	801	0	10000	4	1	0	4	0
54	801	0	10000	4	1	0	4	0
52	802	0	10000	4	1	0	4	0
50	804	0	10000	4	1	0	4	0
48	805	0	10000	4	1	0	4	0
47	806	0	10000	4	1	0	4	0
47	807	0	10000	4	1	0	4	0
50	808	0	10000	4	1	0	4	0
50	809	0	10000	4	1	0	4	0
49	810	0	10000	4	1	0	4	0
48	811	0	10000	4	1	0	4	0
47	811	0	10000	4	1	0	4	0
47	812	0	10000	4	1	0	4	0
46	814	0	10000	4	1	0	4	0
46	815	0	10000	4	1	0	4	0
48	816	0	10000	4	1	0	4	0
48	817	0	10000	4	1	0	4	0
47	818	0	10000	4	1	0	4	0
46	819	0	10000	4	1	0	4	0
44	820	0	10000	4	1	0	4	0
43	821	0	10000	4	1	0	4	0
43	821	0	10000	4	1	0	4	0
43	822	0	10000	4	1	0	4	0
43	824	0	10000	4	1	0	4	0
43	825	0	10000	4	1	0	4	0
44	826	0	10000	4	1	0	4	0
44	827	0	10000	4	1	0	4	0
45	828	0	10000	4	1	0	4	0
44	829	0	10000	4	1	0	4	0
41	830	0	10000	4	1	0	4	0
39	831	0	10000	4	1	0	4	0
40	831	0	10000	4	1	0	4	0
38	832	0	10000	4	1	0	4	0
37	834	0	10000	4	1	0	4	0
36	835	0	10000	4	1	0	4	0
35	836	0	10000	4	1	0	4	0
35	837	0	10000	4	1	0	4	0
35	838	0	10000	4	1	0	4	0
33	839	0	10000	4	1	0	4	0
33	840	0	10000	4	1	0	4	0
32	841	0	10000	4	1	0	4	0
31	841	0	10000	4	1	0	4	0
29	842	0	10000	4	1	0	4	0
29	844	0	10000	4	1	0	4	0
28	845	0	10000	4	1	0	4	0
27	846	0	10000	4	1	0	4	0
27	847	0	10000	4	1	0	4	0
28	848	0	10000	4	1	0	4	0
29	849	0	10000	4	1	0	4	0
28	850	0	10000	4	1	0	4	0
27	851	0	10000	4	1	0	4	0
28	851	0	10000	4	1	0	4	0
29	852	0	10000	4	1	0	4	0
31	854	0	10000	4	1	0	4	0
33	855	0	10000	4	1	0	4	0
36	856	0	10000	4	1	0	4	0
38	857	0	10000	4	1	0	4	0
38	858	0	10000	4	1	0	4	0
38	859	0	10000	4	1	0	4	0
39	860	0	10000	4	1	0	4	0
38	861	0	10000	4	1	0	4	0
36	861	0	10000	4	1	0	4	0
36	862	0	10000	4	1	0	4	0
38	864	0	10000	4	1	0	4	0
37	865	0	10000	4	1	0	4	0
36	866	0	10000	4	1	0	4	0
36	867	0	10000	4	1	0	4	0
36	868	0	10000	4	1	0	4	0
36	869	0	10000	4	1	0	4	0
37	870	0	10000	4	1	0	4	0
35	871	0	10000	4	1	0	4	0
33	871	0	10000	4	1	0	4	0
33	872	0	10000	4	1	0	4	0
31	874	0	10000	4	1	0	4	0
29	875	0	10000	4	1	0	4	0
29	876	0	10000	4	1	0	4	0
28	877	0	10000	4	1	0	4	0
26	878	0	10000	4	1	0	4	0
25	879	0	10000	4	1	0	4	0
25	880	0	10000	4	1	0	4	0
24	881	0	10000	4	1	0	4	0
25	881	0	10000	4	1	0	4	0
23	882	0	10000	4	1	0	4	0
23	884	0	10000	4	1	0	4	0
22	885	0	10000	4	1	0	4	0
22	886	0	10000	4	1	0	4	0
22	887	0	10000	4	1	0	4	0
23	888	0	10000	4	1	0	4	0
23	889	0	10000	4	1	0	4	0
22	890	0	10000	4	1	0	4	0
21	891	0	10000	4	1	0	4	0
20	891	0	10000	4	1	0	4	0
21	892	0	10000	4	1	0	4	0
22	894	0	10000	4	1	0	4	0
24	895	0	10000	4	1	0	4	0
26	896	0	10000	4	1	0	4	0
26	897	0	10000	4	1	0	4	0
24	898	0	10000	4	1	0	4	0
25	899	0	10000	4	1	0	4	0
24	900	0	10000	4	1	0	4	0
23	901	0	10000	4	1	0	4	0
23	901	0	10000	4	1	0	4	0
22	902	0	10000	4	1	0	4	0
23	904	0	10000	4	1	0	4	0
24	905	0	10000	4	1	0	4	0
23	906	0	10000	4	1	0	4	0
24	907	0	10000	4	1	0	4	0
28	908	0	10000	4	1	0	4	0
28	909	0	10000	4	1	0	4	0
28	910	0	10000	4	1	0	4	0
28	911	0	10000	4	1	0	4	0
26	911	0	10000	4	1	0	4	0
26	912	0	10000	4	1	0	4	0
26	914	0	10000	4	1	0	4	0
26	915	0	10000	4	1	0	4	0
25	916	0	10000	4	1	0	4	0
25	917	0	10000	4	1	0	4	0
25	918	0	10000	4	1	0	4	0
29	919	0	10000	4	1	0	4	0
36	920	0	10000	4	1	0	4	0
44	921	0	10000	4	1	0	4	0
53	921	0	10000	4	1	0	4	0
60	922	0	10000	4	1	0	4	0
68	924	0	10000	4	1	0	4	0
74	925	0	10000	4	1	0	4	0
75	926	0	10000	4	1	0	4	0
71	927	0	10000	4	1	0	4	0
72	928	0	10000	4	1	0	4	0
75	929	0	10000	4	1	0	4	0
75	930	0	10000	4	1	0	4	0
73	931	0	10000	4	1	0	4	0
72	931	0	10000	4	1	0	4	0
68	932	0	10000	4	1	0	4	0
70	934	0	10000	4	1	0	4	0
78	935	0	10000	4	1	0	4	0
90	936	0	10000	4	1	0	4	0
100	937	0	10000	4	1	0	4	0
108	938	0	10000	4	1	0	4	0
119	939	0	10000	4	1	0	4	0
134	940	0	10000	4	1	0	4	0
147	941	0	10000	4	1	0	4	0
159	941	0	10000	4	1	0	4	0
170	942	0	10000	4	1	0	4	0
178	944	0	10000	4	1	0	4	0
187	945	0	10000	4	1	0	4	0
201	946	0	10000	4	1	0	4	0
218	947	0	10000	4	1	0	4	0
239	948	0	10000	4	1	0	4	0
260	949	0	10000	4	1	0	4	0
277	950	0	10000	4	1	0	4	0
285	951	0	10000	4	1	0	4	0
280	951	0	10000	4	1	0	4	0
281	952	0	10000	4	1	0	4	0
293	954	0	10000	4	1	0	4	0
311	955	0	10000	4	1	0	4	0
330	956	0	10000	4	1	0	4	0
328	957	0	10000	4	1	0	4	0
315	958	0	10000	4	1	0	4	0
304	959	0	10000	4	1	0	4	0
290	960	0	10000	4	1	0	4	0
277	961	0	10000	4	1	0	4	0
267	961	0	10000	4	1	0	4	0
258	962	0	10000	4	1	0	4	0
252	964	0	10000	4	1	0	4	0
251	965	0	10000	4	1	0	4	0
252	966	0	10000	4	1	0	4	0
249	967	0	10000	4	1	0	4	0
253	968	0	10000	4	1	0	4	0
254	969	0	10000	4	1	0	4	0
249	970	0	10000	4	1	0	4	0
241	971	0	10000	4	1	0	4	0
234	971	0	10000	4	1	0	4	0
224	972	0	10000	4	1	0	4	0
214	974	0	10000	4	1	0	4	0
213	975	0	10000	4	1	0	4	0
229	976	0	10000	4	1	0	4	0
253	977	0	10000	4	1	0	4	0
250	978	0	10000	4	1	0	4	0
260	979	0	10000	4	1	0	4	0
265	980	0	10000	4	1	0	4	0
261	981	0	10000	4	1	0	4	0
255	981	0	10000	4	1	0	4	0
256	982	0	10000	4	1	0	4	0
263	984	0	10000	4	1	0	4	0
261	985	0	10000	4	1	0	4	0
251	986	0	10000	4	1	0	4	0
241	987	0	10000	4	1	0	4	0
235	988	0	10000	4	1	0	4	0
228	989	0	10000	4	1	0	4	0
220	990	0	10000	4	1	0	4	0
211	991	0	10000	4	1	0	4	0
202	991	0	10000	4	1	0	4	0
196	992	0	10000	4	1	0	4	0
194	994	0	10000	4	1	0	4	0
193	995	0	10000	4	1	0	4	0
190	996	0	10000	4	1	0	4	0
185	997	0	10000	4	1	0	4	0
183	998	0	10000	4	1	0	4	0
184	999	0	10000	4	1	0	4	0
186	1000	0	10000	4	1	0	4	0
183	1001	0	10000	4	1	0	4	0
57	2	7	10000	5	1	0	5	0
55	3	7	10000	5	1	0	5	0
53	4	7	10000	5	1	0	5	0
51	5	7	10000	5	1	0	5	0
50	6	7	10000	5	1	0	5	0
49	7	7	10000	5	1	0	5	0
49	8	7	10000	5	1	0	5	0
50	9	7	10000	5	1	0	5	0
50	10	7	10000	5	1	0	5	0
47	11	7	10000	5	1	0	5	0
48	12	7	10000	5	1	0	5	0
48	13	7	10000	5	1	0	5	0
49	14	7	10000	5	1	0	5	0
50	15	7	10000	5	1	0	5	0
50	16	7	10000	5	1	0	5	0
51	17	7	10000	5	1	0	5	0
52	18	7	10000	5	1	0	5	0
52	19	7	10000	5	1	0	5	0
50	20	7	10000	5	1	0	5	0
53	21	7	10000	5	1	0	5	0
53	21	7	10000	5	1	0	5	0
50	22	7	10000	5	1	0	5	0
49	24	7	10000	5	1	0	5	0
46	25	7	10000	5	1	0	5	0
44	26	7	10000	5	1	0	5	0
42	27	7	10000	5	1	0	5	0
40	28	7	10000	5	1	0	5	0
39	29	7	10000	5	1	0	5	0
38	30	7	10000	5	1	0	5	0
36	31	7	10000	5	1	0	5	0
37	31	7	10000	5	1	0	5	0
38	32	7	10000	5	1	0	5	0
38	34	7	10000	5	1	0	5	0
38	35	7	10000	5	1	0	5	0
37	36	7	10000	5	1	0	5	0
36	37	7	10000	5	1	0	5	0
34	38	7	10000	5	1	0	5	0
33	39	7	10000	5	1	0	5	0
31	40	7	10000	5	1	0	5	0
32	41	7	10000	5	1	0	5	0
33	41	7	10000	5	1	0	5	0
32	42	7	10000	5	1	0	5	0
30	44	7	10000	5	1	0	5	0
29	45	7	10000	5	1	0	5	0
28	46	7	10000	5	1	0	5	0
27	47	7	10000	5	1	0	5	0
26	48	7	10000	5	1	0	5	0
26	49	7	10000	5	1	0	5	0
25	50	7	10000	5	1	0	5	0
24	51	7	10000	5	1	0	5	0
26	51	7	10000	5	1	0	5	0
28	52	7	10000	5	1	0	5	0
29	54	7	10000	5	1	0	5	0
29	55	7	10000	5	1	0	5	0
28	56	7	10000	5	1	0	5	0
27	57	7	10000	5	1	0	5	0
27	58	7	10000	5	1	0	5	0
28	59	7	10000	5	1	0	5	0
27	60	7	10000	5	1	0	5	0
28	61	7	10000	5	1	0	5	0
29	61	7	10000	5	1	0	5	0
26	62	7	10000	5	1	0	5	0
25	64	7	10000	5	1	0	5	0
25	65	7	10000	5	1	0	5	0
24	66	7	10000	5	1	0	5	0
23	67	7	10000	5	1	0	5	0
23	68	7	10000	5	1	0	5	0
22	69	7	10000	5	1	0	5	0
22	70	7	10000	5	1	0	5	0
21	71	7	10000	5	1	0	5	0
21	71	7	10000	5	1	0	5	0
23	72	7	10000	5	1	0	5	0
24	74	7	10000	5	1	0	5	0
23	75	7	10000	5	1	0	5	0
23	76	7	10000	5	1	0	5	0
23	77	7	10000	5	1	0	5	0
22	78	7	10000	5	1	0	5	0
21	79	7	10000	5	1	0	5	0
21	80	7	10000	5	1	0	5	0
21	81	7	10000	5	1	0	5	0
21	81	7	10000	5	1	0	5	0
20	82	7	10000	5	1	0	5	0
18	84	7	10000	5	1	0	5	0
17	85	7	10000	5	1	0	5	0
18	86	7	10000	5	1	0	5	0
17	87	7	10000	5	1	0	5	0
17	88	7	10000	5	1	0	5	0
17	89	7	10000	5	1	0	5	0
18	90	7	10000	5	1	0	5	0
16	91	7	10000	5	1	0	5	0
16	91	7	10000	5	1	0	5	0
16	92	7	10000	5	1	0	5	0
17	94	7	10000	5	1	0	5	0
17	95	7	10000	5	1	0	5	0
17	96	7	10000	5	1	0	5	0
17	97	7	10000	5	1	0	5	0
17	98	7	10000	5	1	0	5	0
17	99	7	10000	5	1	0	5	0
18	100	7	10000	5	1	0	5	0
20	101	7	10000	5	1	0	5	0
24	101	7	10000	5	1	0	5	0
31	102	7	10000	5	1	0	5	0
38	104	7	10000	5	1	0	5	0
48	105	7	10000	5	1	0	5	0
61	106	7	10000	5	1	0	5	0
71	107	7	10000	5	1	0	5	0
81	108	7	10000	5	1	0	5	0
86	109	7	10000	5	1	0	5	0
85	110	7	10000	5	1	0	5	0
84	111	7	10000	5	1	0	5	0
87	111	7	10000	5	1	0	5	0
93	112	7	10000	5	1	0	5	0
96	114	7	10000	5	1	0	5	0
99	115	7	10000	5	1	0	5	0
100	116	7	10000	5	1	0	5	0
99	117	7	10000	5	1	0	5	0
95	118	7	10000	5	1	0	5	0
92	119	7	10000	5	1	0	5	0
92	120	7	10000	5	1	0	5	0
96	121	7	10000	5	1	0	5	0
102	121	7	10000	5	1	0	5	0
110	122	7	10000	5	1	0	5	0
120	124	7	10000	5	1	0	5	0
132	125	7	10000	5	1	0	5	0
142	126	7	10000	5	1	0	5	0
151	127	7	10000	5	1	0	5	0
158	128	7	10000	5	1	0	5	0
165	129	7	10000	5	1	0	5	0
172	130	7	10000	5	1	0	5	0
174	131	7	10000	5	1	0	5	0
174	131	7	10000	5	1	0	5	0
174	132	7	10000	5	1	0	5	0
174	134	7	10000	5	1	0	5	0
175	135	7	10000	5	1	0	5	0
176	136	7	10000	5	1	0	5	0
177	137	7	10000	5	1	0	5	0
178	138	7	10000	5	1	0	5	0
177	139	7	10000	5	1	0	5	0
177	140	7	10000	5	1	0	5	0
180	141	7	10000	5	1	0	5	0
180	141	7	10000	5	1	0	5	0
178	142	7	10000	5	1	0	5	0
175	144	7	10000	5	1	0	5	0
170	145	7	10000	5	1	0	5	0
165	146	7	10000	5	1	0	5	0
158	147	7	10000	5	1	0	5	0
151	148	7	10000	5	1	0	5	0
145	149	7	10000	5	1	0	5	0
141	150	7	10000	5	1	0	5	0
136	151	7	10000	5	1	0	5	0
133	151	7	10000	5	1	0	5	0
134	152	7	10000	5	1	0	5	0
136	154	7	10000	5	1	0	5	0
141	155	7	10000	5	1	0	5	0
146	156	7	10000	5	1	0	5	0
151	157	7	10000	5	1	0	5	0
154	158	7	10000	5	1	0	5	0
160	159	7	10000	5	1	0	5	0
166	160	7	10000	5	1	0	5	0
173	161	7	10000	5	1	0	5	0
178	161	7	10000	5	1	0	5	0
180	162	7	10000	5	1	0	5	0
184	164	7	10000	5	1	0	5	0
189	165	7	10000	5	1	0	5	0
193	166	7	10000	5	1	0	5	0
196	167	7	10000	5	1	0	5	0
200	168	7	10000	5	1	0	5	0
203	169	7	10000	5	1	0	5	0
206	170	7	10000	5	1	0	5	0
206	171	7	10000	5	1	0	5	0
204	171	7	10000	5	1	0	5	0
205	172	7	10000	5	1	0	5	0
205	174	7	10000	5	1	0	5	0
204	175	7	10000	5	1	0	5	0
202	176	7	10000	5	1	0	5	0
200	177	7	10000	5	1	0	5	0
197	178	7	10000	5	1	0	5	0
196	179	7	10000	5	1	0	5	0
194	180	7	10000	5	1	0	5	0
194	181	7	10000	5	1	0	5	0
194	181	7	10000	5	1	0	5	0
193	182	7	10000	5	1	0	5	0
192	184	7	10000	5	1	0	5	0
191	185	7	10000	5	1	0	5	0
188	186	7	10000	5	1	0	5	0
185	187	7	10000	5	1	0	5	0
183	188	7	10000	5	1	0	5	0
179	189	7	10000	5	1	0	5	0
176	190	7	10000	5	1	0	5	0
169	191	7	10000	5	1	0	5	0
164	191	7	10000	5	1	0	5	0
159	192	7	10000	5	1	0	5	0
154	194	7	10000	5	1	0	5	0
147	195	7	10000	5	1	0	5	0
142	196	7	10000	5	1	0	5	0
139	197	7	10000	5	1	0	5	0
135	198	7	10000	5	1	0	5	0
130	199	7	10000	5	1	0	5	0
126	200	7	10000	5	1	0	5	0
123	201	7	10000	5	1	0	5	0
119	201	7	10000	5	1	0	5	0
116	202	7	10000	5	1	0	5	0
114	204	7	10000	5	1	0	5	0
111	205	7	10000	5	1	0	5	0
108	206	7	10000	5	1	0	5	0
105	207	7	10000	5	1	0	5	0
101	208	7	10000	5	1	0	5	0
98	209	7	10000	5	1	0	5	0
94	210	7	10000	5	1	0	5	0
88	211	7	10000	5	1	0	5	0
84	211	7	10000	5	1	0	5	0
81	212	7	10000	5	1	0	5	0
78	214	7	10000	5	1	0	5	0
76	215	7	10000	5	1	0	5	0
73	216	7	10000	5	1	0	5	0
71	217	7	10000	5	1	0	5	0
68	218	7	10000	5	1	0	5	0
65	219	7	10000	5	1	0	5	0
62	220	7	10000	5	1	0	5	0
61	221	7	10000	5	1	0	5	0
58	221	7	10000	5	1	0	5	0
57	222	7	10000	5	1	0	5	0
54	224	7	10000	5	1	0	5	0
51	225	7	10000	5	1	0	5	0
50	226	7	10000	5	1	0	5	0
47	227	7	10000	5	1	0	5	0
45	228	7	10000	5	1	0	5	0
44	229	7	10000	5	1	0	5	0
42	230	7	10000	5	1	0	5	0
40	231	7	10000	5	1	0	5	0
37	231	7	10000	5	1	0	5	0
36	232	7	10000	5	1	0	5	0
35	234	7	10000	5	1	0	5	0
35	235	7	10000	5	1	0	5	0
33	236	7	10000	5	1	0	5	0
34	237	7	10000	5	1	0	5	0
35	238	7	10000	5	1	0	5	0
35	239	7	10000	5	1	0	5	0
33	240	7	10000	5	1	0	5	0
34	241	7	10000	5	1	0	5	0
32	241	7	10000	5	1	0	5	0
31	242	7	10000	5	1	0	5	0
30	244	7	10000	5	1	0	5	0
29	245	7	10000	5	1	0	5	0
28	246	7	10000	5	1	0	5	0
28	247	7	10000	5	1	0	5	0
28	248	7	10000	5	1	0	5	0
30	249	7	10000	5	1	0	5	0
31	250	7	10000	5	1	0	5	0
31	251	7	10000	5	1	0	5	0
31	251	7	10000	5	1	0	5	0
31	252	7	10000	5	1	0	5	0
32	254	7	10000	5	1	0	5	0
32	255	7	10000	5	1	0	5	0
33	256	7	10000	5	1	0	5	0
32	257	7	10000	5	1	0	5	0
32	258	7	10000	5	1	0	5	0
30	259	7	10000	5	1	0	5	0
29	260	7	10000	5	1	0	5	0
31	261	7	10000	5	1	0	5	0
30	261	7	10000	5	1	0	5	0
29	262	7	10000	5	1	0	5	0
28	264	7	10000	5	1	0	5	0
26	265	7	10000	5	1	0	5	0
26	266	7	10000	5	1	0	5	0
26	267	7	10000	5	1	0	5	0
25	268	7	10000	5	1	0	5	0
24	269	7	10000	5	1	0	5	0
24	270	7	10000	5	1	0	5	0
21	271	7	10000	5	1	0	5	0
20	271	7	10000	5	1	0	5	0
21	272	7	10000	5	1	0	5	0
21	274	7	10000	5	1	0	5	0
21	275	7	10000	5	1	0	5	0
22	276	7	10000	5	1	0	5	0
23	277	7	10000	5	1	0	5	0
23	278	7	10000	5	1	0	5	0
22	279	7	10000	5	1	0	5	0
22	280	7	10000	5	1	0	5	0
23	281	7	10000	5	1	0	5	0
23	281	7	10000	5	1	0	5	0
23	282	7	10000	5	1	0	5	0
22	284	7	10000	5	1	0	5	0
21	285	7	10000	5	1	0	5	0
22	286	7	10000	5	1	0	5	0
23	287	7	10000	5	1	0	5	0
25	288	7	10000	5	1	0	5	0
26	289	7	10000	5	1	0	5	0
26	290	7	10000	5	1	0	5	0
24	291	7	10000	5	1	0	5	0
23	291	7	10000	5	1	0	5	0
23	292	7	10000	5	1	0	5	0
23	294	7	10000	5	1	0	5	0
22	295	7	10000	5	1	0	5	0
21	296	7	10000	5	1	0	5	0
20	297	7	10000	5	1	0	5	0
20	298	7	10000	5	1	0	5	0
20	299	7	10000	5	1	0	5	0
20	300	7	10000	5	1	0	5	0
21	301	7	10000	5	1	0	5	0
23	301	7	10000	5	1	0	5	0
22	302	7	10000	5	1	0	5	0
21	304	7	10000	5	1	0	5	0
21	305	7	10000	5	1	0	5	0
20	306	7	10000	5	1	0	5	0
20	307	7	10000	5	1	0	5	0
20	308	7	10000	5	1	0	5	0
18	309	7	10000	5	1	0	5	0
18	310	7	10000	5	1	0	5	0
18	311	7	10000	5	1	0	5	0
18	311	7	10000	5	1	0	5	0
19	312	7	10000	5	1	0	5	0
20	314	7	10000	5	1	0	5	0
20	315	7	10000	5	1	0	5	0
19	316	7	10000	5	1	0	5	0
19	317	7	10000	5	1	0	5	0
20	318	7	10000	5	1	0	5	0
21	319	7	10000	5	1	0	5	0
23	320	7	10000	5	1	0	5	0
26	321	7	10000	5	1	0	5	0
27	321	7	10000	5	1	0	5	0
27	322	7	10000	5	1	0	5	0
30	324	7	10000	5	1	0	5	0
33	325	7	10000	5	1	0	5	0
35	326	7	10000	5	1	0	5	0
36	327	7	10000	5	1	0	5	0
38	328	7	10000	5	1	0	5	0
39	329	7	10000	5	1	0	5	0
37	330	7	10000	5	1	0	5	0
36	331	7	10000	5	1	0	5	0
36	331	7	10000	5	1	0	5	0
37	332	7	10000	5	1	0	5	0
40	334	7	10000	5	1	0	5	0
42	335	7	10000	5	1	0	5	0
44	336	7	10000	5	1	0	5	0
45	337	7	10000	5	1	0	5	0
45	338	7	10000	5	1	0	5	0
43	339	7	10000	5	1	0	5	0
42	340	7	10000	5	1	0	5	0
41	341	7	10000	5	1	0	5	0
40	341	7	10000	5	1	0	5	0
39	342	7	10000	5	1	0	5	0
38	344	7	10000	5	1	0	5	0
37	345	7	10000	5	1	0	5	0
38	346	7	10000	5	1	0	5	0
36	347	7	10000	5	1	0	5	0
35	348	7	10000	5	1	0	5	0
34	349	7	10000	5	1	0	5	0
33	350	7	10000	5	1	0	5	0
31	351	7	10000	5	1	0	5	0
30	351	7	10000	5	1	0	5	0
29	352	7	10000	5	1	0	5	0
28	354	7	10000	5	1	0	5	0
28	355	7	10000	5	1	0	5	0
26	356	7	10000	5	1	0	5	0
25	357	7	10000	5	1	0	5	0
24	358	7	10000	5	1	0	5	0
23	359	7	10000	5	1	0	5	0
22	360	7	10000	5	1	0	5	0
24	361	7	10000	5	1	0	5	0
24	361	7	10000	5	1	0	5	0
25	362	7	10000	5	1	0	5	0
27	364	7	10000	5	1	0	5	0
28	365	7	10000	5	1	0	5	0
28	366	7	10000	5	1	0	5	0
29	367	7	10000	5	1	0	5	0
29	368	7	10000	5	1	0	5	0
29	369	7	10000	5	1	0	5	0
29	370	7	10000	5	1	0	5	0
26	371	7	10000	5	1	0	5	0
26	371	7	10000	5	1	0	5	0
26	372	7	10000	5	1	0	5	0
26	374	7	10000	5	1	0	5	0
27	375	7	10000	5	1	0	5	0
28	376	7	10000	5	1	0	5	0
29	377	7	10000	5	1	0	5	0
30	378	7	10000	5	1	0	5	0
29	379	7	10000	5	1	0	5	0
28	380	7	10000	5	1	0	5	0
29	381	7	10000	5	1	0	5	0
28	381	7	10000	5	1	0	5	0
26	382	7	10000	5	1	0	5	0
26	384	7	10000	5	1	0	5	0
24	385	7	10000	5	1	0	5	0
24	386	7	10000	5	1	0	5	0
24	387	7	10000	5	1	0	5	0
23	388	7	10000	5	1	0	5	0
23	389	7	10000	5	1	0	5	0
23	390	7	10000	5	1	0	5	0
21	391	7	10000	5	1	0	5	0
22	391	7	10000	5	1	0	5	0
24	392	7	10000	5	1	0	5	0
23	394	7	10000	5	1	0	5	0
23	395	7	10000	5	1	0	5	0
25	396	7	10000	5	1	0	5	0
27	397	7	10000	5	1	0	5	0
28	398	7	10000	5	1	0	5	0
28	399	7	10000	5	1	0	5	0
28	400	7	10000	5	1	0	5	0
29	401	7	10000	5	1	0	5	0
30	401	7	10000	5	1	0	5	0
29	402	7	10000	5	1	0	5	0
28	404	7	10000	5	1	0	5	0
27	405	7	10000	5	1	0	5	0
26	406	7	10000	5	1	0	5	0
25	407	7	10000	5	1	0	5	0
24	408	7	10000	5	1	0	5	0
24	409	7	10000	5	1	0	5	0
24	410	7	10000	5	1	0	5	0
23	411	7	10000	5	1	0	5	0
21	411	7	10000	5	1	0	5	0
21	412	7	10000	5	1	0	5	0
22	414	7	10000	5	1	0	5	0
22	415	7	10000	5	1	0	5	0
21	416	7	10000	5	1	0	5	0
21	417	7	10000	5	1	0	5	0
20	418	7	10000	5	1	0	5	0
20	419	7	10000	5	1	0	5	0
19	420	7	10000	5	1	0	5	0
19	421	7	10000	5	1	0	5	0
20	421	7	10000	5	1	0	5	0
19	422	7	10000	5	1	0	5	0
18	424	7	10000	5	1	0	5	0
18	425	7	10000	5	1	0	5	0
17	426	7	10000	5	1	0	5	0
16	427	7	10000	5	1	0	5	0
17	428	7	10000	5	1	0	5	0
17	429	7	10000	5	1	0	5	0
16	430	7	10000	5	1	0	5	0
15	431	7	10000	5	1	0	5	0
14	431	7	10000	5	1	0	5	0
14	432	7	10000	5	1	0	5	0
14	434	7	10000	5	1	0	5	0
14	435	7	10000	5	1	0	5	0
14	436	7	10000	5	1	0	5	0
15	437	7	10000	5	1	0	5	0
14	438	7	10000	5	1	0	5	0
13	439	7	10000	5	1	0	5	0
13	440	7	10000	5	1	0	5	0
14	441	7	10000	5	1	0	5	0
14	441	7	10000	5	1	0	5	0
13	442	7	10000	5	1	0	5	0
13	444	7	10000	5	1	0	5	0
15	445	7	10000	5	1	0	5	0
17	446	7	10000	5	1	0	5	0
22	447	7	10000	5	1	0	5	0
28	448	7	10000	5	1	0	5	0
35	449	7	10000	5	1	0	5	0
40	450	7	10000	5	1	0	5	0
45	451	7	10000	5	1	0	5	0
49	451	7	10000	5	1	0	5	0
50	452	7	10000	5	1	0	5	0
49	454	7	10000	5	1	0	5	0
50	455	7	10000	5	1	0	5	0
50	456	7	10000	5	1	0	5	0
50	457	7	10000	5	1	0	5	0
50	458	7	10000	5	1	0	5	0
49	459	7	10000	5	1	0	5	0
48	460	7	10000	5	1	0	5	0
48	461	7	10000	5	1	0	5	0
47	461	7	10000	5	1	0	5	0
48	462	7	10000	5	1	0	5	0
53	464	7	10000	5	1	0	5	0
57	465	7	10000	5	1	0	5	0
62	466	7	10000	5	1	0	5	0
66	467	7	10000	5	1	0	5	0
72	468	7	10000	5	1	0	5	0
80	469	7	10000	5	1	0	5	0
85	470	7	10000	5	1	0	5	0
87	471	7	10000	5	1	0	5	0
90	471	7	10000	5	1	0	5	0
92	472	7	10000	5	1	0	5	0
93	474	7	10000	5	1	0	5	0
95	475	7	10000	5	1	0	5	0
94	476	7	10000	5	1	0	5	0
92	477	7	10000	5	1	0	5	0
88	478	7	10000	5	1	0	5	0
85	479	7	10000	5	1	0	5	0
80	480	7	10000	5	1	0	5	0
79	481	7	10000	5	1	0	5	0
76	481	7	10000	5	1	0	5	0
73	482	7	10000	5	1	0	5	0
71	484	7	10000	5	1	0	5	0
70	485	7	10000	5	1	0	5	0
70	486	7	10000	5	1	0	5	0
71	487	7	10000	5	1	0	5	0
73	488	7	10000	5	1	0	5	0
75	489	7	10000	5	1	0	5	0
77	490	7	10000	5	1	0	5	0
77	491	7	10000	5	1	0	5	0
78	491	7	10000	5	1	0	5	0
79	492	7	10000	5	1	0	5	0
79	494	7	10000	5	1	0	5	0
80	495	7	10000	5	1	0	5	0
80	496	7	10000	5	1	0	5	0
79	497	7	10000	5	1	0	5	0
76	498	7	10000	5	1	0	5	0
75	499	7	10000	5	1	0	5	0
75	500	7	10000	5	1	0	5	0
78	501	7	10000	5	1	0	5	0
79	501	7	10000	5	1	0	5	1
80	502	7	10000	5	1	0	5	1
82	504	7	10000	5	1	0	5	1
83	505	7	10000	5	1	0	5	1
82	506	7	10000	5	1	0	5	1
81	507	7	10000	5	1	0	5	1
80	508	7	10000	5	1	0	5	1
79	509	7	10000	5	1	0	5	1
79	510	7	10000	5	1	0	5	1
76	511	7	10000	5	1	0	5	1
76	511	7	10000	5	1	0	5	1
76	512	7	10000	5	1	0	5	1
75	514	7	10000	5	1	0	5	1
74	515	7	10000	5	1	0	5	1
74	516	7	10000	5	1	0	5	1
72	517	7	10000	5	1	0	5	1
69	518	7	10000	5	1	0	5	1
67	519	7	10000	5	1	0	5	1
63	520	7	10000	5	1	0	5	1
62	521	7	10000	5	1	0	5	1
61	521	7	10000	5	1	0	5	1
59	522	7	10000	5	1	0	5	1
57	524	7	10000	5	1	0	5	1
57	525	7	10000	5	1	0	5	1
58	526	7	10000	5	1	0	5	1
58	527	7	10000	5	1	0	5	1
59	528	7	10000	5	1	0	5	1
61	529	7	10000	5	1	0	5	1
64	530	7	10000	5	1	0	5	1
63	531	7	10000	5	1	0	5	1
62	531	7	10000	5	1	0	5	1
59	532	7	10000	5	1	0	5	1
57	534	7	10000	5	1	0	5	1
56	535	7	10000	5	1	0	5	1
56	536	7	10000	5	1	0	5	1
54	537	7	10000	5	1	0	5	1
52	538	7	10000	5	1	0	5	1
49	539	7	10000	5	1	0	5	1
47	540	7	10000	5	1	0	5	1
48	541	7	10000	5	1	0	5	1
46	541	7	10000	5	1	0	5	1
44	542	7	10000	5	1	0	5	1
43	544	7	10000	5	1	0	5	1
43	545	7	10000	5	1	0	5	1
41	546	7	10000	5	1	0	5	1
39	547	7	10000	5	1	0	5	1
39	548	7	10000	5	1	0	5	1
37	549	7	10000	5	1	0	5	1
36	550	7	10000	5	1	0	5	1
33	551	7	10000	5	1	0	5	1
31	551	7	10000	5	1	0	5	0
31	552	7	10000	5	1	0	5	0
30	554	7	10000	5	1	0	5	0
29	555	7	10000	5	1	0	5	0
29	556	7	10000	5	1	0	5	0
29	557	7	10000	5	1	0	5	0
27	558	7	10000	5	1	0	5	0
25	559	7	10000	5	1	0	5	0
25	560	7	10000	5	1	0	5	0
25	561	7	10000	5	1	0	5	0
24	561	7	10000	5	1	0	5	0
23	562	7	10000	5	1	0	5	0
22	564	7	10000	5	1	0	5	0
22	565	7	10000	5	1	0	5	0
22	566	7	10000	5	1	0	5	0
21	567	7	10000	5	1	0	5	0
21	568	7	10000	5	1	0	5	0
21	569	7	10000	5	1	0	5	0
21	570	7	10000	5	1	0	5	0
19	571	7	10000	5	1	0	5	0
19	571	7	10000	5	1	0	5	0
19	572	7	10000	5	1	0	5	0
20	574	7	10000	5	1	0	5	0
20	575	7	10000	5	1	0	5	0
20	576	7	10000	5	1	0	5	0
20	577	7	10000	5	1	0	5	0
20	578	7	10000	5	1	0	5	0
19	579	7	10000	5	1	0	5	0
18	580	7	10000	5	1	0	5	0
19	581	7	10000	5	1	0	5	0
20	581	7	10000	5	1	0	5	0
21	582	7	10000	5	1	0	5	0
20	584	7	10000	5	1	0	5	0
21	585	7	10000	5	1	0	5	0
22	586	7	10000	5	1	0	5	0
22	587	7	10000	5	1	0	5	0
22	588	7	10000	5	1	0	5	0
23	589	7	10000	5	1	0	5	0
23	590	7	10000	5	1	0	5	0
20	591	7	10000	5	1	0	5	0
20	591	7	10000	5	1	0	5	0
19	592	7	10000	5	1	0	5	0
20	594	7	10000	5	1	0	5	0
20	595	7	10000	5	1	0	5	0
22	596	7	10000	5	1	0	5	0
25	597	7	10000	5	1	0	5	0
26	598	7	10000	5	1	0	5	0
28	599	7	10000	5	1	0	5	0
31	600	7	10000	5	1	0	5	0
43	601	7	10000	5	1	0	5	0
58	601	7	10000	5	1	0	5	0
80	602	7	10000	5	1	0	5	0
101	604	7	10000	5	1	0	5	0
116	605	7	10000	5	1	0	5	0
118	606	7	10000	5	1	0	5	0
114	607	7	10000	5	1	0	5	0
116	608	7	10000	5	1	0	5	0
118	609	7	10000	5	1	0	5	0
151	610	7	10000	5	1	0	5	0
171	611	7	10000	5	1	0	5	0
184	611	7	10000	5	1	0	5	0
226	612	7	10000	5	1	0	5	0
269	614	7	10000	5	1	0	5	0
287	615	7	10000	5	1	0	5	0
292	616	7	10000	5	1	0	5	0
298	617	7	10000	5	1	0	5	0
304	618	7	10000	5	1	0	5	0
329	619	7	10000	5	1	0	5	0
325	620	7	10000	5	1	0	5	0
346	621	7	10000	5	1	0	5	0
383	621	7	10000	5	1	0	5	0
381	622	7	10000	5	1	0	5	0
405	624	7	10000	5	1	0	5	0
398	625	7	10000	5	1	0	5	0
381	626	7	10000	5	1	0	5	0
369	627	7	10000	5	1	0	5	0
358	628	7	10000	5	1	0	5	0
353	629	7	10000	5	1	0	5	0
356	630	7	10000	5	1	0	5	0
342	631	7	10000	5	1	0	5	0
330	631	7	10000	5	1	0	5	0
319	632	7	10000	5	1	0	5	0
304	634	7	10000	5	1	0	5	0
292	635	7	10000	5	1	0	5	0
283	636	7	10000	5	1	0	5	0
276	637	7	10000	5	1	0	5	0
271	638	7	10000	5	1	0	5	0
266	639	7	10000	5	1	0	5	0
261	640	7	10000	5	1	0	5	0
259	641	7	10000	5	1	0	5	0
255	641	7	10000	5	1	0	5	0
252	642	7	10000	5	1	0	5	0
248	644	7	10000	5	1	0	5	0
244	645	7	10000	5	1	0	5	0
239	646	7	10000	5	1	0	5	0
233	647	7	10000	5	1	0	5	0
226	648	7	10000	5	1	0	5	0
218	649	7	10000	5	1	0	5	0
210	650	7	10000	5	1	0	5	0
199	651	7	10000	5	1	0	5	0
192	651	7	10000	5	1	0	5	0
187	652	7	10000	5	1	0	5	0
181	654	7	10000	5	1	0	5	0
176	655	7	10000	5	1	0	5	0
172	656	7	10000	5	1	0	5	0
168	657	7	10000	5	1	0	5	0
164	658	7	10000	5	1	0	5	0
160	659	7	10000	5	1	0	5	0
156	660	7	10000	5	1	0	5	0
153	661	7	10000	5	1	0	5	0
151	661	7	10000	5	1	0	5	0
149	662	7	10000	5	1	0	5	0
149	664	7	10000	5	1	0	5	0
151	665	7	10000	5	1	0	5	0
153	666	7	10000	5	1	0	5	0
156	667	7	10000	5	1	0	5	0
158	668	7	10000	5	1	0	5	0
158	669	7	10000	5	1	0	5	0
157	670	7	10000	5	1	0	5	0
155	671	7	10000	5	1	0	5	0
154	671	7	10000	5	1	0	5	0
156	672	7	10000	5	1	0	5	0
160	674	7	10000	5	1	0	5	0
161	675	7	10000	5	1	0	5	0
162	676	7	10000	5	1	0	5	0
164	677	7	10000	5	1	0	5	0
165	678	7	10000	5	1	0	5	0
166	679	7	10000	5	1	0	5	0
169	680	7	10000	5	1	0	5	0
172	681	7	10000	5	1	0	5	0
175	681	7	10000	5	1	0	5	0
177	682	7	10000	5	1	0	5	0
178	684	7	10000	5	1	0	5	0
178	685	7	10000	5	1	0	5	0
178	686	7	10000	5	1	0	5	0
174	687	7	10000	5	1	0	5	0
171	688	7	10000	5	1	0	5	0
167	689	7	10000	5	1	0	5	0
163	690	7	10000	5	1	0	5	0
155	691	7	10000	5	1	0	5	0
149	691	7	10000	5	1	0	5	0
142	692	7	10000	5	1	0	5	0
136	694	7	10000	5	1	0	5	0
131	695	7	10000	5	1	0	5	0
126	696	7	10000	5	1	0	5	0
121	697	7	10000	5	1	0	5	0
116	698	7	10000	5	1	0	5	0
110	699	7	10000	5	1	0	5	0
105	700	7	10000	5	1	0	5	0
102	701	7	10000	5	1	0	5	0
99	701	7	10000	5	1	0	5	0
97	702	7	10000	5	1	0	5	0
95	704	7	10000	5	1	0	5	0
92	705	7	10000	5	1	0	5	0
88	714	7	10000	5	1	0	5	0
84	715	7	10000	5	1	0	5	0
81	716	7	10000	5	1	0	5	0
80	717	7	10000	5	1	0	5	0
81	718	7	10000	5	1	0	5	0
80	719	7	10000	5	1	0	5	0
81	720	7	10000	5	1	0	5	0
82	721	7	10000	5	1	0	5	0
85	722	7	10000	5	1	0	5	0
87	723	7	10000	5	1	0	5	0
88	722	7	10000	5	1	0	5	0
90	723	7	10000	5	1	0	5	0
92	724	7	10000	5	1	0	5	0
92	725	7	10000	5	1	0	5	0
92	726	7	10000	5	1	0	5	0
93	727	7	10000	5	1	0	5	0
93	728	7	10000	5	1	0	5	0
92	729	7	10000	5	1	0	5	0
88	729	7	10000	5	1	0	5	0
85	730	7	10000	5	1	0	5	0
83	731	7	10000	5	1	0	5	0
82	732	7	10000	5	1	0	5	0
83	733	7	10000	5	1	0	5	0
85	734	7	10000	5	1	0	5	0
87	735	7	10000	5	1	0	5	0
86	736	7	10000	5	1	0	5	0
86	736	7	10000	5	1	0	5	0
86	737	7	10000	5	1	0	5	0
86	738	7	10000	5	1	0	5	0
87	739	7	10000	5	1	0	5	0
88	740	7	10000	5	1	0	5	0
89	741	7	10000	5	1	0	5	0
91	741	7	10000	5	1	0	5	0
92	742	7	10000	5	1	0	5	0
91	743	7	10000	5	1	0	5	0
90	744	7	10000	5	1	0	5	0
88	745	7	10000	5	1	0	5	0
84	746	7	10000	5	1	0	5	0
80	748	7	10000	5	1	0	5	0
78	749	7	10000	5	1	0	5	0
75	750	7	10000	5	1	0	5	0
72	751	7	10000	5	1	0	5	0
70	752	7	10000	5	1	0	5	0
68	753	7	10000	5	1	0	5	0
67	753	7	10000	5	1	0	5	0
65	754	7	10000	5	1	0	5	0
64	755	7	10000	5	1	0	5	0
66	756	7	10000	5	1	0	5	0
67	757	7	10000	5	1	0	5	0
67	758	7	10000	5	1	0	5	0
66	759	7	10000	5	1	0	5	0
64	760	7	10000	5	1	0	5	0
62	761	7	10000	5	1	0	5	0
61	762	7	10000	5	1	0	5	0
59	763	7	10000	5	1	0	5	0
59	764	7	10000	5	1	0	5	0
59	764	7	10000	5	1	0	5	0
57	765	7	10000	5	1	0	5	0
57	766	7	10000	5	1	0	5	0
55	767	7	10000	5	1	0	5	0
52	770	7	10000	5	1	0	5	0
50	771	7	10000	5	1	0	5	0
49	772	7	10000	5	1	0	5	0
47	773	7	10000	5	1	0	5	0
46	774	7	10000	5	1	0	5	0
45	775	7	10000	5	1	0	5	0
45	776	7	10000	5	1	0	5	0
46	777	7	10000	5	1	0	5	0
47	778	7	10000	5	1	0	5	0
48	779	7	10000	5	1	0	5	0
48	780	7	10000	5	1	0	5	0
48	781	7	10000	5	1	0	5	0
47	781	7	10000	5	1	0	5	0
44	782	7	10000	5	1	0	5	0
42	783	7	10000	5	1	0	5	0
44	784	7	10000	5	1	0	5	0
44	785	7	10000	5	1	0	5	0
44	786	7	10000	5	1	0	5	0
