value	EMG	Stimulus	EMG_sensitivity	Total_Trial_Nr	practise	acq	probe_nr	Startle_Probe
126	1	7	10000	1	1	0	1	0
122	2	7	10000	1	1	0	1	0
119	3	7	10000	1	1	0	1	0
118	4	7	10000	1	1	0	1	0
116	5	7	10000	1	1	0	1	0
112	6	7	10000	1	1	0	1	0
107	7	7	10000	1	1	0	1	0
103	8	7	10000	1	1	0	1	0
99	9	7	10000	1	1	0	1	0
95	10	7	10000	1	1	0	1	0
90	11	7	10000	1	1	0	1	0
87	12	7	10000	1	1	0	1	0
83	13	7	10000	1	1	0	1	0
80	14	7	10000	1	1	0	1	0
79	15	7	10000	1	1	0	1	0
77	16	7	10000	1	1	0	1	0
74	17	7	10000	1	1	0	1	0
71	18	7	10000	1	1	0	1	0
69	19	7	10000	1	1	0	1	0
67	20	7	10000	1	1	0	1	0
66	20	7	10000	1	1	0	1	0
65	21	7	10000	1	1	0	1	0
67	23	7	10000	1	1	0	1	0
70	24	7	10000	1	1	0	1	0
70	25	7	10000	1	1	0	1	0
68	26	7	10000	1	1	0	1	0
69	27	7	10000	1	1	0	1	0
69	28	7	10000	1	1	0	1	0
69	29	7	10000	1	1	0	1	0
71	30	7	10000	1	1	0	1	0
72	30	7	10000	1	1	0	1	0
72	31	7	10000	1	1	0	1	0
70	33	7	10000	1	1	0	1	0
68	34	7	10000	1	1	0	1	0
66	35	7	10000	1	1	0	1	0
63	36	7	10000	1	1	0	1	0
63	37	7	10000	1	1	0	1	0
62	38	7	10000	1	1	0	1	0
60	39	7	10000	1	1	0	1	0
59	40	7	10000	1	1	0	1	0
59	40	7	10000	1	1	0	1	0
57	41	7	10000	1	1	0	1	0
55	43	7	10000	1	1	0	1	0
54	44	7	10000	1	1	0	1	0
51	45	7	10000	1	1	0	1	0
50	46	7	10000	1	1	0	1	0
49	47	7	10000	1	1	0	1	0
47	48	7	10000	1	1	0	1	0
46	49	7	10000	1	1	0	1	0
45	50	7	10000	1	1	0	1	0
42	50	7	10000	1	1	0	1	0
40	51	7	10000	1	1	0	1	0
39	53	7	10000	1	1	0	1	0
38	54	7	10000	1	1	0	1	0
36	55	7	10000	1	1	0	1	0
36	56	7	10000	1	1	0	1	0
35	57	7	10000	1	1	0	1	0
38	58	7	10000	1	1	0	1	0
39	59	7	10000	1	1	0	1	0
40	60	7	10000	1	1	0	1	0
42	60	7	10000	1	1	0	1	0
42	61	7	10000	1	1	0	1	0
43	63	7	10000	1	1	0	1	0
46	64	7	10000	1	1	0	1	0
49	65	7	10000	1	1	0	1	0
46	66	7	10000	1	1	0	1	0
44	67	7	10000	1	1	0	1	0
45	68	7	10000	1	1	0	1	0
49	69	7	10000	1	1	0	1	0
54	70	7	10000	1	1	0	1	0
57	70	7	10000	1	1	0	1	0
59	71	7	10000	1	1	0	1	0
58	73	7	10000	1	1	0	1	0
57	74	7	10000	1	1	0	1	0
56	75	7	10000	1	1	0	1	0
54	76	7	10000	1	1	0	1	0
52	77	7	10000	1	1	0	1	0
50	78	7	10000	1	1	0	1	0
50	79	7	10000	1	1	0	1	0
48	80	7	10000	1	1	0	1	0
48	80	7	10000	1	1	0	1	0
46	81	7	10000	1	1	0	1	0
44	83	7	10000	1	1	0	1	0
43	84	7	10000	1	1	0	1	0
42	85	7	10000	1	1	0	1	0
40	86	7	10000	1	1	0	1	0
39	87	7	10000	1	1	0	1	0
37	88	7	10000	1	1	0	1	0
36	89	7	10000	1	1	0	1	0
36	90	7	10000	1	1	0	1	0
33	90	7	10000	1	1	0	1	0
32	91	7	10000	1	1	0	1	0
33	93	7	10000	1	1	0	1	0
32	94	7	10000	1	1	0	1	0
32	95	7	10000	1	1	0	1	0
31	96	7	10000	1	1	0	1	0
30	97	7	10000	1	1	0	1	0
31	98	7	10000	1	1	0	1	0
30	99	7	10000	1	1	0	1	0
29	100	7	10000	1	1	0	1	0
33	100	7	10000	1	1	0	1	0
36	101	7	10000	1	1	0	1	0
38	103	7	10000	1	1	0	1	0
40	104	7	10000	1	1	0	1	0
46	105	7	10000	1	1	0	1	0
52	106	7	10000	1	1	0	1	0
57	107	7	10000	1	1	0	1	0
61	108	7	10000	1	1	0	1	0
63	109	7	10000	1	1	0	1	0
64	110	7	10000	1	1	0	1	0
60	110	7	10000	1	1	0	1	0
57	111	7	10000	1	1	0	1	0
56	113	7	10000	1	1	0	1	0
54	114	7	10000	1	1	0	1	0
52	115	7	10000	1	1	0	1	0
50	116	7	10000	1	1	0	1	0
49	117	7	10000	1	1	0	1	0
47	118	7	10000	1	1	0	1	0
45	119	7	10000	1	1	0	1	0
43	120	7	10000	1	1	0	1	0
43	120	7	10000	1	1	0	1	0
42	121	7	10000	1	1	0	1	0
41	123	7	10000	1	1	0	1	0
43	124	7	10000	1	1	0	1	0
46	125	7	10000	1	1	0	1	0
46	126	7	10000	1	1	0	1	0
46	127	7	10000	1	1	0	1	0
47	128	7	10000	1	1	0	1	0
47	129	7	10000	1	1	0	1	0
45	130	7	10000	1	1	0	1	0
44	130	7	10000	1	1	0	1	0
45	131	7	10000	1	1	0	1	0
46	133	7	10000	1	1	0	1	0
47	134	7	10000	1	1	0	1	0
47	135	7	10000	1	1	0	1	0
48	136	7	10000	1	1	0	1	0
51	137	7	10000	1	1	0	1	0
52	138	7	10000	1	1	0	1	0
50	139	7	10000	1	1	0	1	0
48	140	7	10000	1	1	0	1	0
49	140	7	10000	1	1	0	1	0
49	141	7	10000	1	1	0	1	0
50	143	7	10000	1	1	0	1	0
48	144	7	10000	1	1	0	1	0
47	145	7	10000	1	1	0	1	0
50	146	7	10000	1	1	0	1	0
53	147	7	10000	1	1	0	1	0
56	148	7	10000	1	1	0	1	0
58	149	7	10000	1	1	0	1	0
61	150	7	10000	1	1	0	1	0
61	150	7	10000	1	1	0	1	0
64	151	7	10000	1	1	0	1	0
65	153	7	10000	1	1	0	1	0
66	154	7	10000	1	1	0	1	0
66	155	7	10000	1	1	0	1	0
63	156	7	10000	1	1	0	1	0
61	157	7	10000	1	1	0	1	0
58	158	7	10000	1	1	0	1	0
57	159	7	10000	1	1	0	1	0
56	160	7	10000	1	1	0	1	0
55	160	7	10000	1	1	0	1	0
53	161	7	10000	1	1	0	1	0
50	163	7	10000	1	1	0	1	0
48	164	7	10000	1	1	0	1	0
46	165	7	10000	1	1	0	1	0
45	166	7	10000	1	1	0	1	0
44	167	7	10000	1	1	0	1	0
44	168	7	10000	1	1	0	1	0
42	169	7	10000	1	1	0	1	0
41	170	7	10000	1	1	0	1	0
42	170	7	10000	1	1	0	1	0
43	171	7	10000	1	1	0	1	0
43	173	7	10000	1	1	0	1	0
43	174	7	10000	1	1	0	1	0
44	175	7	10000	1	1	0	1	0
45	176	7	10000	1	1	0	1	0
44	177	7	10000	1	1	0	1	0
44	178	7	10000	1	1	0	1	0
44	179	7	10000	1	1	0	1	0
42	180	7	10000	1	1	0	1	0
43	180	7	10000	1	1	0	1	0
44	181	7	10000	1	1	0	1	0
41	183	7	10000	1	1	0	1	0
39	184	7	10000	1	1	0	1	0
38	185	7	10000	1	1	0	1	0
36	186	7	10000	1	1	0	1	0
35	187	7	10000	1	1	0	1	0
34	188	7	10000	1	1	0	1	0
33	189	7	10000	1	1	0	1	0
32	190	7	10000	1	1	0	1	0
30	190	7	10000	1	1	0	1	0
29	191	7	10000	1	1	0	1	0
30	193	7	10000	1	1	0	1	0
30	194	7	10000	1	1	0	1	0
32	195	7	10000	1	1	0	1	0
34	196	7	10000	1	1	0	1	0
32	197	7	10000	1	1	0	1	0
32	198	7	10000	1	1	0	1	0
31	199	7	10000	1	1	0	1	0
31	200	7	10000	1	1	0	1	0
32	200	7	10000	1	1	0	1	0
32	201	7	10000	1	1	0	1	0
33	203	7	10000	1	1	0	1	0
34	204	7	10000	1	1	0	1	0
33	205	7	10000	1	1	0	1	0
34	206	7	10000	1	1	0	1	0
34	207	7	10000	1	1	0	1	0
34	208	7	10000	1	1	0	1	0
35	209	7	10000	1	1	0	1	0
35	210	7	10000	1	1	0	1	0
32	210	7	10000	1	1	0	1	0
30	211	7	10000	1	1	0	1	0
30	213	7	10000	1	1	0	1	0
30	214	7	10000	1	1	0	1	0
29	215	7	10000	1	1	0	1	0
29	216	7	10000	1	1	0	1	0
29	217	7	10000	1	1	0	1	0
28	218	7	10000	1	1	0	1	0
27	219	7	10000	1	1	0	1	0
27	220	7	10000	1	1	0	1	0
29	220	7	10000	1	1	0	1	0
29	221	7	10000	1	1	0	1	0
29	223	7	10000	1	1	0	1	0
29	224	7	10000	1	1	0	1	0
27	225	7	10000	1	1	0	1	0
27	226	7	10000	1	1	0	1	0
26	227	7	10000	1	1	0	1	0
26	228	7	10000	1	1	0	1	0
27	229	7	10000	1	1	0	1	0
28	230	7	10000	1	1	0	1	0
27	230	7	10000	1	1	0	1	0
28	231	7	10000	1	1	0	1	0
30	233	7	10000	1	1	0	1	0
31	234	7	10000	1	1	0	1	0
31	235	7	10000	1	1	0	1	0
32	236	7	10000	1	1	0	1	0
34	237	7	10000	1	1	0	1	0
34	238	7	10000	1	1	0	1	0
34	239	7	10000	1	1	0	1	0
33	240	7	10000	1	1	0	1	0
35	240	7	10000	1	1	0	1	0
37	241	7	10000	1	1	0	1	0
38	243	7	10000	1	1	0	1	0
37	244	7	10000	1	1	0	1	0
36	245	7	10000	1	1	0	1	0
35	246	7	10000	1	1	0	1	0
34	247	7	10000	1	1	0	1	0
33	248	7	10000	1	1	0	1	0
32	249	7	10000	1	1	0	1	0
31	250	7	10000	1	1	0	1	0
29	250	7	10000	1	1	0	1	0
27	251	7	10000	1	1	0	1	0
27	253	7	10000	1	1	0	1	0
26	254	7	10000	1	1	0	1	0
26	255	7	10000	1	1	0	1	0
25	256	7	10000	1	1	0	1	0
25	257	7	10000	1	1	0	1	0
24	258	7	10000	1	1	0	1	0
23	259	7	10000	1	1	0	1	0
24	260	7	10000	1	1	0	1	0
26	260	7	10000	1	1	0	1	0
26	261	7	10000	1	1	0	1	0
25	263	7	10000	1	1	0	1	0
24	264	7	10000	1	1	0	1	0
24	265	7	10000	1	1	0	1	0
26	266	7	10000	1	1	0	1	0
25	267	7	10000	1	1	0	1	0
24	268	7	10000	1	1	0	1	0
24	269	7	10000	1	1	0	1	0
27	270	7	10000	1	1	0	1	0
27	270	7	10000	1	1	0	1	0
28	271	7	10000	1	1	0	1	0
32	273	7	10000	1	1	0	1	0
36	274	7	10000	1	1	0	1	0
38	275	7	10000	1	1	0	1	0
38	276	7	10000	1	1	0	1	0
39	277	7	10000	1	1	0	1	0
37	278	7	10000	1	1	0	1	0
36	279	7	10000	1	1	0	1	0
37	280	7	10000	1	1	0	1	0
40	280	7	10000	1	1	0	1	0
41	281	7	10000	1	1	0	1	0
40	283	7	10000	1	1	0	1	0
39	284	7	10000	1	1	0	1	0
40	285	7	10000	1	1	0	1	0
40	286	7	10000	1	1	0	1	0
40	287	7	10000	1	1	0	1	0
40	288	7	10000	1	1	0	1	0
38	289	7	10000	1	1	0	1	0
38	290	7	10000	1	1	0	1	0
36	290	7	10000	1	1	0	1	0
34	291	7	10000	1	1	0	1	0
34	293	7	10000	1	1	0	1	0
34	294	7	10000	1	1	0	1	0
33	295	7	10000	1	1	0	1	0
32	296	7	10000	1	1	0	1	0
31	297	7	10000	1	1	0	1	0
30	298	7	10000	1	1	0	1	0
30	299	7	10000	1	1	0	1	0
29	300	7	10000	1	1	0	1	0
31	300	7	10000	1	1	0	1	0
33	301	7	10000	1	1	0	1	0
33	303	7	10000	1	1	0	1	0
33	304	7	10000	1	1	0	1	0
33	305	7	10000	1	1	0	1	0
33	306	7	10000	1	1	0	1	0
32	307	7	10000	1	1	0	1	0
32	308	7	10000	1	1	0	1	0
34	309	7	10000	1	1	0	1	0
34	310	7	10000	1	1	0	1	0
32	310	7	10000	1	1	0	1	0
30	311	7	10000	1	1	0	1	0
29	313	7	10000	1	1	0	1	0
28	314	7	10000	1	1	0	1	0
28	315	7	10000	1	1	0	1	0
28	316	7	10000	1	1	0	1	0
29	317	7	10000	1	1	0	1	0
31	318	7	10000	1	1	0	1	0
31	319	7	10000	1	1	0	1	0
29	320	7	10000	1	1	0	1	0
30	320	7	10000	1	1	0	1	0
30	321	7	10000	1	1	0	1	0
30	323	7	10000	1	1	0	1	0
33	324	7	10000	1	1	0	1	0
32	325	7	10000	1	1	0	1	0
31	326	7	10000	1	1	0	1	0
30	327	7	10000	1	1	0	1	0
29	328	7	10000	1	1	0	1	0
29	329	7	10000	1	1	0	1	0
30	330	7	10000	1	1	0	1	0
28	330	7	10000	1	1	0	1	0
27	331	7	10000	1	1	0	1	0
26	333	7	10000	1	1	0	1	0
26	334	7	10000	1	1	0	1	0
26	335	7	10000	1	1	0	1	0
25	336	7	10000	1	1	0	1	0
26	337	7	10000	1	1	0	1	0
26	338	7	10000	1	1	0	1	0
25	339	7	10000	1	1	0	1	0
24	340	7	10000	1	1	0	1	0
24	340	7	10000	1	1	0	1	0
24	341	7	10000	1	1	0	1	0
23	343	7	10000	1	1	0	1	0
22	344	7	10000	1	1	0	1	0
22	345	7	10000	1	1	0	1	0
21	346	7	10000	1	1	0	1	0
21	347	7	10000	1	1	0	1	0
25	348	7	10000	1	1	0	1	0
26	349	7	10000	1	1	0	1	0
25	350	7	10000	1	1	0	1	0
23	350	7	10000	1	1	0	1	0
23	351	7	10000	1	1	0	1	0
21	353	7	10000	1	1	0	1	0
21	354	7	10000	1	1	0	1	0
20	355	7	10000	1	1	0	1	0
20	356	7	10000	1	1	0	1	0
20	357	7	10000	1	1	0	1	0
19	358	7	10000	1	1	0	1	0
19	359	7	10000	1	1	0	1	0
19	360	7	10000	1	1	0	1	0
20	360	7	10000	1	1	0	1	0
20	361	7	10000	1	1	0	1	0
21	363	7	10000	1	1	0	1	0
19	364	7	10000	1	1	0	1	0
20	365	7	10000	1	1	0	1	0
21	366	7	10000	1	1	0	1	0
22	367	7	10000	1	1	0	1	0
22	368	7	10000	1	1	0	1	0
23	369	7	10000	1	1	0	1	0
23	370	7	10000	1	1	0	1	0
24	370	7	10000	1	1	0	1	0
27	371	7	10000	1	1	0	1	0
32	373	7	10000	1	1	0	1	0
35	374	7	10000	1	1	0	1	0
38	375	7	10000	1	1	0	1	0
39	376	7	10000	1	1	0	1	0
39	377	7	10000	1	1	0	1	0
39	378	7	10000	1	1	0	1	0
37	379	7	10000	1	1	0	1	0
37	380	7	10000	1	1	0	1	0
39	380	7	10000	1	1	0	1	0
38	381	7	10000	1	1	0	1	0
37	383	7	10000	1	1	0	1	0
36	384	7	10000	1	1	0	1	0
34	385	7	10000	1	1	0	1	0
34	386	7	10000	1	1	0	1	0
33	387	7	10000	1	1	0	1	0
34	388	7	10000	1	1	0	1	0
33	389	7	10000	1	1	0	1	0
32	390	7	10000	1	1	0	1	0
31	390	7	10000	1	1	0	1	0
29	391	7	10000	1	1	0	1	0
30	393	7	10000	1	1	0	1	0
32	394	7	10000	1	1	0	1	0
31	395	7	10000	1	1	0	1	0
31	396	7	10000	1	1	0	1	0
31	397	7	10000	1	1	0	1	0
30	398	7	10000	1	1	0	1	0
29	399	7	10000	1	1	0	1	0
28	400	7	10000	1	1	0	1	0
29	400	7	10000	1	1	0	1	0
30	401	7	10000	1	1	0	1	0
29	403	7	10000	1	1	0	1	0
28	404	7	10000	1	1	0	1	0
27	405	7	10000	1	1	0	1	0
26	406	7	10000	1	1	0	1	0
25	407	7	10000	1	1	0	1	0
26	408	7	10000	1	1	0	1	0
26	409	7	10000	1	1	0	1	0
25	410	7	10000	1	1	0	1	0
24	410	7	10000	1	1	0	1	0
26	411	7	10000	1	1	0	1	0
29	413	7	10000	1	1	0	1	0
31	414	7	10000	1	1	0	1	0
31	415	7	10000	1	1	0	1	0
32	416	7	10000	1	1	0	1	0
31	417	7	10000	1	1	0	1	0
31	418	7	10000	1	1	0	1	0
31	419	7	10000	1	1	0	1	0
34	420	7	10000	1	1	0	1	0
42	420	7	10000	1	1	0	1	0
48	421	7	10000	1	1	0	1	0
52	423	7	10000	1	1	0	1	0
55	424	7	10000	1	1	0	1	0
54	425	7	10000	1	1	0	1	0
52	426	7	10000	1	1	0	1	0
51	427	7	10000	1	1	0	1	0
48	428	7	10000	1	1	0	1	0
48	429	7	10000	1	1	0	1	0
48	430	7	10000	1	1	0	1	0
48	430	7	10000	1	1	0	1	0
50	431	7	10000	1	1	0	1	0
56	433	7	10000	1	1	0	1	0
64	434	7	10000	1	1	0	1	0
73	435	7	10000	1	1	0	1	0
77	436	7	10000	1	1	0	1	0
74	437	7	10000	1	1	0	1	0
72	438	7	10000	1	1	0	1	0
71	439	7	10000	1	1	0	1	0
73	440	7	10000	1	1	0	1	0
77	440	7	10000	1	1	0	1	0
74	441	7	10000	1	1	0	1	0
77	443	7	10000	1	1	0	1	0
85	444	7	10000	1	1	0	1	0
93	445	7	10000	1	1	0	1	0
99	446	7	10000	1	1	0	1	0
101	447	7	10000	1	1	0	1	0
98	448	7	10000	1	1	0	1	0
97	449	7	10000	1	1	0	1	0
103	450	7	10000	1	1	0	1	0
111	450	7	10000	1	1	0	1	0
122	451	7	10000	1	1	0	1	0
132	453	7	10000	1	1	0	1	0
138	454	7	10000	1	1	0	1	0
138	455	7	10000	1	1	0	1	0
132	456	7	10000	1	1	0	1	0
128	457	7	10000	1	1	0	1	0
123	458	7	10000	1	1	0	1	0
122	459	7	10000	1	1	0	1	0
124	460	7	10000	1	1	0	1	0
130	460	7	10000	1	1	0	1	0
134	461	7	10000	1	1	0	1	0
132	463	7	10000	1	1	0	1	0
130	464	7	10000	1	1	0	1	0
127	465	7	10000	1	1	0	1	0
125	466	7	10000	1	1	0	1	0
124	467	7	10000	1	1	0	1	0
125	468	7	10000	1	1	0	1	0
126	469	7	10000	1	1	0	1	0
123	470	7	10000	1	1	0	1	0
116	470	7	10000	1	1	0	1	0
111	471	7	10000	1	1	0	1	0
106	473	7	10000	1	1	0	1	0
103	474	7	10000	1	1	0	1	0
104	475	7	10000	1	1	0	1	0
112	476	7	10000	1	1	0	1	0
116	477	7	10000	1	1	0	1	0
112	478	7	10000	1	1	0	1	0
107	479	7	10000	1	1	0	1	0
103	480	7	10000	1	1	0	1	0
99	480	7	10000	1	1	0	1	0
95	481	7	10000	1	1	0	1	0
95	483	7	10000	1	1	0	1	0
97	484	7	10000	1	1	0	1	0
99	485	7	10000	1	1	0	1	0
99	486	7	10000	1	1	0	1	0
98	487	7	10000	1	1	0	1	0
96	488	7	10000	1	1	0	1	0
93	489	7	10000	1	1	0	1	0
90	490	7	10000	1	1	0	1	0
90	490	7	10000	1	1	0	1	0
86	491	7	10000	1	1	0	1	0
87	493	7	10000	1	1	0	1	0
91	494	7	10000	1	1	0	1	0
93	495	7	10000	1	1	0	1	0
95	496	7	10000	1	1	0	1	0
96	497	7	10000	1	1	0	1	0
95	498	7	10000	1	1	0	1	0
95	499	7	10000	1	1	0	1	0
93	500	7	10000	1	1	0	1	0
92	500	7	10000	1	1	0	1	0
90	501	7	10000	1	1	0	1	0
86	549	7	10000	1	1	0	1	1
84	550	7	10000	1	1	0	1	1
80	551	7	10000	1	1	0	1	1
77	552	7	10000	1	1	0	1	1
78	553	7	10000	1	1	0	1	1
80	554	7	10000	1	1	0	1	1
84	555	7	10000	1	1	0	1	1
88	556	7	10000	1	1	0	1	1
92	557	7	10000	1	1	0	1	1
98	558	7	10000	1	1	0	1	1
101	559	7	10000	1	1	0	1	1
103	560	7	10000	1	1	0	1	1
106	561	7	10000	1	1	0	1	1
112	562	7	10000	1	1	0	1	1
117	563	7	10000	1	1	0	1	1
121	564	7	10000	1	1	0	1	1
119	565	7	10000	1	1	0	1	1
113	566	7	10000	1	1	0	1	1
112	567	7	10000	1	1	0	1	1
113	568	7	10000	1	1	0	1	1
115	569	7	10000	1	1	0	1	1
117	570	7	10000	1	1	0	1	1
117	571	7	10000	1	1	0	1	1
118	572	7	10000	1	1	0	1	1
122	573	7	10000	1	1	0	1	1
127	574	7	10000	1	1	0	1	1
129	575	7	10000	1	1	0	1	1
133	576	7	10000	1	1	0	1	1
132	577	7	10000	1	1	0	1	1
131	578	7	10000	1	1	0	1	1
130	579	7	10000	1	1	0	1	1
128	580	7	10000	1	1	0	1	1
127	581	7	10000	1	1	0	1	1
126	582	7	10000	1	1	0	1	1
124	583	7	10000	1	1	0	1	1
121	584	7	10000	1	1	0	1	1
116	585	7	10000	1	1	0	1	1
113	586	7	10000	1	1	0	1	1
112	587	7	10000	1	1	0	1	1
111	588	7	10000	1	1	0	1	1
109	589	7	10000	1	1	0	1	1
106	590	7	10000	1	1	0	1	1
100	591	7	10000	1	1	0	1	1
97	592	7	10000	1	1	0	1	1
93	593	7	10000	1	1	0	1	1
90	594	7	10000	1	1	0	1	1
87	595	7	10000	1	1	0	1	1
87	596	7	10000	1	1	0	1	1
87	556	7	10000	1	1	0	1	1
87	557	7	10000	1	1	0	1	1
87	558	7	10000	1	1	0	1	1
83	559	7	10000	1	1	0	1	1
81	560	7	10000	1	1	0	1	1
82	561	7	10000	1	1	0	1	1
85	557	7	10000	1	1	0	1	0
89	558	7	10000	1	1	0	1	0
90	559	7	10000	1	1	0	1	0
90	560	7	10000	1	1	0	1	0
90	561	7	10000	1	1	0	1	0
88	562	7	10000	1	1	0	1	0
83	563	7	10000	1	1	0	1	0
80	564	7	10000	1	1	0	1	0
76	565	7	10000	1	1	0	1	0
73	566	7	10000	1	1	0	1	0
71	567	7	10000	1	1	0	1	0
68	568	7	10000	1	1	0	1	0
67	569	7	10000	1	1	0	1	0
64	570	7	10000	1	1	0	1	0
61	571	7	10000	1	1	0	1	0
59	572	7	10000	1	1	0	1	0
57	573	7	10000	1	1	0	1	0
56	574	7	10000	1	1	0	1	0
55	575	7	10000	1	1	0	1	0
55	576	7	10000	1	1	0	1	0
57	577	7	10000	1	1	0	1	0
59	578	7	10000	1	1	0	1	0
58	579	7	10000	1	1	0	1	0
57	580	7	10000	1	1	0	1	0
57	581	7	10000	1	1	0	1	0
57	582	7	10000	1	1	0	1	0
58	583	7	10000	1	1	0	1	0
60	584	7	10000	1	1	0	1	0
60	585	7	10000	1	1	0	1	0
60	586	7	10000	1	1	0	1	0
59	587	7	10000	1	1	0	1	0
63	588	7	10000	1	1	0	1	0
96	589	7	10000	1	1	0	1	0
124	590	7	10000	1	1	0	1	0
122	590	7	10000	1	1	0	1	0
125	591	7	10000	1	1	0	1	0
136	593	7	10000	1	1	0	1	0
141	594	7	10000	1	1	0	1	0
139	595	7	10000	1	1	0	1	0
148	596	7	10000	1	1	0	1	0
152	597	7	10000	1	1	0	1	0
156	598	7	10000	1	1	0	1	0
168	599	7	10000	1	1	0	1	0
169	600	7	10000	1	1	0	1	0
166	600	7	10000	1	1	0	1	0
182	601	7	10000	1	1	0	1	0
199	603	7	10000	1	1	0	1	0
213	604	7	10000	1	1	0	1	0
228	605	7	10000	1	1	0	1	0
244	606	7	10000	1	1	0	1	0
245	607	7	10000	1	1	0	1	0
246	608	7	10000	1	1	0	1	0
241	609	7	10000	1	1	0	1	0
232	610	7	10000	1	1	0	1	0
229	610	7	10000	1	1	0	1	0
233	611	7	10000	1	1	0	1	0
255	613	7	10000	1	1	0	1	0
272	614	7	10000	1	1	0	1	0
273	615	7	10000	1	1	0	1	0
266	616	7	10000	1	1	0	1	0
254	617	7	10000	1	1	0	1	0
247	618	7	10000	1	1	0	1	0
241	619	7	10000	1	1	0	1	0
233	620	7	10000	1	1	0	1	0
227	620	7	10000	1	1	0	1	0
227	621	7	10000	1	1	0	1	0
222	623	7	10000	1	1	0	1	0
215	624	7	10000	1	1	0	1	0
206	625	7	10000	1	1	0	1	0
196	626	7	10000	1	1	0	1	0
189	627	7	10000	1	1	0	1	0
182	628	7	10000	1	1	0	1	0
173	629	7	10000	1	1	0	1	0
169	630	7	10000	1	1	0	1	0
162	630	7	10000	1	1	0	1	0
155	631	7	10000	1	1	0	1	0
150	633	7	10000	1	1	0	1	0
144	634	7	10000	1	1	0	1	0
144	635	7	10000	1	1	0	1	0
146	636	7	10000	1	1	0	1	0
141	637	7	10000	1	1	0	1	0
142	638	7	10000	1	1	0	1	0
141	639	7	10000	1	1	0	1	0
143	640	7	10000	1	1	0	1	0
145	640	7	10000	1	1	0	1	0
147	641	7	10000	1	1	0	1	0
159	643	7	10000	1	1	0	1	0
159	644	7	10000	1	1	0	1	0
154	645	7	10000	1	1	0	1	0
149	646	7	10000	1	1	0	1	0
149	647	7	10000	1	1	0	1	0
145	648	7	10000	1	1	0	1	0
145	649	7	10000	1	1	0	1	0
141	650	7	10000	1	1	0	1	0
139	650	7	10000	1	1	0	1	0
136	651	7	10000	1	1	0	1	0
151	653	7	10000	1	1	0	1	0
171	654	7	10000	1	1	0	1	0
173	655	7	10000	1	1	0	1	0
168	656	7	10000	1	1	0	1	0
165	657	7	10000	1	1	0	1	0
170	658	7	10000	1	1	0	1	0
175	659	7	10000	1	1	0	1	0
175	660	7	10000	1	1	0	1	0
172	660	7	10000	1	1	0	1	0
187	661	7	10000	1	1	0	1	0
192	663	7	10000	1	1	0	1	0
200	664	7	10000	1	1	0	1	0
223	665	7	10000	1	1	0	1	0
232	666	7	10000	1	1	0	1	0
239	667	7	10000	1	1	0	1	0
235	668	7	10000	1	1	0	1	0
231	669	7	10000	1	1	0	1	0
228	670	7	10000	1	1	0	1	0
247	670	7	10000	1	1	0	1	0
271	671	7	10000	1	1	0	1	0
285	673	7	10000	1	1	0	1	0
287	674	7	10000	1	1	0	1	0
283	675	7	10000	1	1	0	1	0
274	676	7	10000	1	1	0	1	0
265	677	7	10000	1	1	0	1	0
254	678	7	10000	1	1	0	1	0
243	679	7	10000	1	1	0	1	0
232	680	7	10000	1	1	0	1	0
228	680	7	10000	1	1	0	1	0
223	681	7	10000	1	1	0	1	0
216	683	7	10000	1	1	0	1	0
213	684	7	10000	1	1	0	1	0
207	685	7	10000	1	1	0	1	0
203	686	7	10000	1	1	0	1	0
197	687	7	10000	1	1	0	1	0
190	688	7	10000	1	1	0	1	0
185	689	7	10000	1	1	0	1	0
177	690	7	10000	1	1	0	1	0
168	690	7	10000	1	1	0	1	0
161	691	7	10000	1	1	0	1	0
157	693	7	10000	1	1	0	1	0
153	694	7	10000	1	1	0	1	0
151	695	7	10000	1	1	0	1	0
150	696	7	10000	1	1	0	1	0
149	697	7	10000	1	1	0	1	0
149	698	7	10000	1	1	0	1	0
147	699	7	10000	1	1	0	1	0
147	700	7	10000	1	1	0	1	0
146	700	7	10000	1	1	0	1	0
147	701	7	10000	1	1	0	1	0
148	703	7	10000	1	1	0	1	0
153	704	7	10000	1	1	0	1	0
161	705	7	10000	1	1	0	1	0
161	706	7	10000	1	1	0	1	0
156	707	7	10000	1	1	0	1	0
153	708	7	10000	1	1	0	1	0
153	709	7	10000	1	1	0	1	0
154	710	7	10000	1	1	0	1	0
154	710	7	10000	1	1	0	1	0
157	711	7	10000	1	1	0	1	0
163	713	7	10000	1	1	0	1	0
166	714	7	10000	1	1	0	1	0
165	715	7	10000	1	1	0	1	0
159	716	7	10000	1	1	0	1	0
154	717	7	10000	1	1	0	1	0
151	718	7	10000	1	1	0	1	0
147	719	7	10000	1	1	0	1	0
143	720	7	10000	1	1	0	1	0
138	720	7	10000	1	1	0	1	0
134	721	7	10000	1	1	0	1	0
128	723	7	10000	1	1	0	1	0
124	724	7	10000	1	1	0	1	0
120	725	7	10000	1	1	0	1	0
116	726	7	10000	1	1	0	1	0
116	727	7	10000	1	1	0	1	0
115	728	7	10000	1	1	0	1	0
112	729	7	10000	1	1	0	1	0
108	730	7	10000	1	1	0	1	0
104	730	7	10000	1	1	0	1	0
101	731	7	10000	1	1	0	1	0
99	733	7	10000	1	1	0	1	0
96	734	7	10000	1	1	0	1	0
93	735	7	10000	1	1	0	1	0
91	736	7	10000	1	1	0	1	0
88	737	7	10000	1	1	0	1	0
84	738	7	10000	1	1	0	1	0
82	739	7	10000	1	1	0	1	0
79	740	7	10000	1	1	0	1	0
79	740	7	10000	1	1	0	1	0
80	741	7	10000	1	1	0	1	0
80	743	7	10000	1	1	0	1	0
81	744	7	10000	1	1	0	1	0
82	745	7	10000	1	1	0	1	0
84	746	7	10000	1	1	0	1	0
85	747	7	10000	1	1	0	1	0
85	748	7	10000	1	1	0	1	0
86	749	7	10000	1	1	0	1	0
86	750	7	10000	1	1	0	1	0
82	750	7	10000	1	1	0	1	0
79	751	7	10000	1	1	0	1	0
79	753	7	10000	1	1	0	1	0
80	754	7	10000	1	1	0	1	0
78	755	7	10000	1	1	0	1	0
76	756	7	10000	1	1	0	1	0
73	757	7	10000	1	1	0	1	0
73	758	7	10000	1	1	0	1	0
76	759	7	10000	1	1	0	1	0
80	760	7	10000	1	1	0	1	0
85	760	7	10000	1	1	0	1	0
90	761	7	10000	1	1	0	1	0
92	763	7	10000	1	1	0	1	0
94	764	7	10000	1	1	0	1	0
95	765	7	10000	1	1	0	1	0
97	766	7	10000	1	1	0	1	0
95	767	7	10000	1	1	0	1	0
93	768	7	10000	1	1	0	1	0
92	769	7	10000	1	1	0	1	0
92	770	7	10000	1	1	0	1	0
91	770	7	10000	1	1	0	1	0
90	771	7	10000	1	1	0	1	0
89	773	7	10000	1	1	0	1	0
88	774	7	10000	1	1	0	1	0
87	775	7	10000	1	1	0	1	0
84	776	7	10000	1	1	0	1	0
80	777	7	10000	1	1	0	1	0
79	778	7	10000	1	1	0	1	0
75	779	7	10000	1	1	0	1	0
71	780	7	10000	1	1	0	1	0
69	780	7	10000	1	1	0	1	0
68	781	7	10000	1	1	0	1	0
65	783	7	10000	1	1	0	1	0
62	784	7	10000	1	1	0	1	0
60	785	7	10000	1	1	0	1	0
59	786	7	10000	1	1	0	1	0
57	787	7	10000	1	1	0	1	0
57	788	7	10000	1	1	0	1	0
56	789	7	10000	1	1	0	1	0
54	790	7	10000	1	1	0	1	0
52	790	7	10000	1	1	0	1	0
50	791	7	10000	1	1	0	1	0
48	793	7	10000	1	1	0	1	0
47	794	7	10000	1	1	0	1	0
46	795	7	10000	1	1	0	1	0
46	796	7	10000	1	1	0	1	0
48	797	7	10000	1	1	0	1	0
47	798	7	10000	1	1	0	1	0
48	799	7	10000	1	1	0	1	0
50	800	7	10000	1	1	0	1	0
52	800	7	10000	1	1	0	1	0
52	801	7	10000	1	1	0	1	0
50	803	7	10000	1	1	0	1	0
47	804	7	10000	1	1	0	1	0
45	805	7	10000	1	1	0	1	0
44	806	7	10000	1	1	0	1	0
45	807	7	10000	1	1	0	1	0
47	808	7	10000	1	1	0	1	0
50	809	7	10000	1	1	0	1	0
53	810	7	10000	1	1	0	1	0
55	810	7	10000	1	1	0	1	0
55	811	7	10000	1	1	0	1	0
53	813	7	10000	1	1	0	1	0
50	814	7	10000	1	1	0	1	0
49	815	7	10000	1	1	0	1	0
47	816	7	10000	1	1	0	1	0
47	817	7	10000	1	1	0	1	0
45	818	7	10000	1	1	0	1	0
44	819	7	10000	1	1	0	1	0
42	820	7	10000	1	1	0	1	0
41	820	7	10000	1	1	0	1	0
42	821	7	10000	1	1	0	1	0
41	823	7	10000	1	1	0	1	0
40	824	7	10000	1	1	0	1	0
39	825	7	10000	1	1	0	1	0
39	826	7	10000	1	1	0	1	0
39	827	7	10000	1	1	0	1	0
40	828	7	10000	1	1	0	1	0
40	829	7	10000	1	1	0	1	0
39	830	7	10000	1	1	0	1	0
38	830	7	10000	1	1	0	1	0
36	831	7	10000	1	1	0	1	0
35	833	7	10000	1	1	0	1	0
34	834	7	10000	1	1	0	1	0
33	835	7	10000	1	1	0	1	0
32	836	7	10000	1	1	0	1	0
33	837	7	10000	1	1	0	1	0
34	838	7	10000	1	1	0	1	0
33	839	7	10000	1	1	0	1	0
32	840	7	10000	1	1	0	1	0
34	840	7	10000	1	1	0	1	0
38	841	7	10000	1	1	0	1	0
36	843	7	10000	1	1	0	1	0
35	844	7	10000	1	1	0	1	0
36	845	7	10000	1	1	0	1	0
34	846	7	10000	1	1	0	1	0
33	847	7	10000	1	1	0	1	0
33	848	7	10000	1	1	0	1	0
33	849	7	10000	1	1	0	1	0
33	850	7	10000	1	1	0	1	0
32	850	7	10000	1	1	0	1	0
31	851	7	10000	1	1	0	1	0
31	853	7	10000	1	1	0	1	0
31	854	7	10000	1	1	0	1	0
30	855	7	10000	1	1	0	1	0
29	856	7	10000	1	1	0	1	0
28	857	7	10000	1	1	0	1	0
26	858	7	10000	1	1	0	1	0
25	859	7	10000	1	1	0	1	0
25	860	7	10000	1	1	0	1	0
30	860	7	10000	1	1	0	1	0
33	861	7	10000	1	1	0	1	0
31	863	7	10000	1	1	0	1	0
32	864	7	10000	1	1	0	1	0
35	865	7	10000	1	1	0	1	0
37	866	7	10000	1	1	0	1	0
37	867	7	10000	1	1	0	1	0
40	868	7	10000	1	1	0	1	0
42	869	7	10000	1	1	0	1	0
43	870	7	10000	1	1	0	1	0
42	870	7	10000	1	1	0	1	0
43	871	7	10000	1	1	0	1	0
47	873	7	10000	1	1	0	1	0
50	874	7	10000	1	1	0	1	0
51	875	7	10000	1	1	0	1	0
51	876	7	10000	1	1	0	1	0
51	877	7	10000	1	1	0	1	0
50	878	7	10000	1	1	0	1	0
49	879	7	10000	1	1	0	1	0
48	880	7	10000	1	1	0	1	0
47	880	7	10000	1	1	0	1	0
46	881	7	10000	1	1	0	1	0
45	883	7	10000	1	1	0	1	0
48	884	7	10000	1	1	0	1	0
48	885	7	10000	1	1	0	1	0
48	886	7	10000	1	1	0	1	0
48	887	7	10000	1	1	0	1	0
47	888	7	10000	1	1	0	1	0
48	889	7	10000	1	1	0	1	0
50	890	7	10000	1	1	0	1	0
49	890	7	10000	1	1	0	1	0
47	891	7	10000	1	1	0	1	0
46	893	7	10000	1	1	0	1	0
44	894	7	10000	1	1	0	1	0
44	895	7	10000	1	1	0	1	0
42	896	7	10000	1	1	0	1	0
41	897	7	10000	1	1	0	1	0
40	898	7	10000	1	1	0	1	0
39	899	7	10000	1	1	0	1	0
37	900	7	10000	1	1	0	1	0
37	900	7	10000	1	1	0	1	0
36	901	7	10000	1	1	0	1	0
35	903	7	10000	1	1	0	1	0
35	904	7	10000	1	1	0	1	0
35	905	7	10000	1	1	0	1	0
35	906	7	10000	1	1	0	1	0
36	907	7	10000	1	1	0	1	0
36	908	7	10000	1	1	0	1	0
36	909	7	10000	1	1	0	1	0
35	910	7	10000	1	1	0	1	0
33	910	7	10000	1	1	0	1	0
32	911	7	10000	1	1	0	1	0
33	913	7	10000	1	1	0	1	0
38	914	7	10000	1	1	0	1	0
42	915	7	10000	1	1	0	1	0
45	916	7	10000	1	1	0	1	0
49	917	7	10000	1	1	0	1	0
50	918	7	10000	1	1	0	1	0
48	919	7	10000	1	1	0	1	0
46	920	7	10000	1	1	0	1	0
44	920	7	10000	1	1	0	1	0
47	921	7	10000	1	1	0	1	0
48	923	7	10000	1	1	0	1	0
46	924	7	10000	1	1	0	1	0
45	925	7	10000	1	1	0	1	0
46	926	7	10000	1	1	0	1	0
48	927	7	10000	1	1	0	1	0
50	928	7	10000	1	1	0	1	0
50	929	7	10000	1	1	0	1	0
50	930	7	10000	1	1	0	1	0
47	930	7	10000	1	1	0	1	0
44	931	7	10000	1	1	0	1	0
46	933	7	10000	1	1	0	1	0
48	934	7	10000	1	1	0	1	0
48	935	7	10000	1	1	0	1	0
47	936	7	10000	1	1	0	1	0
46	937	7	10000	1	1	0	1	0
44	938	7	10000	1	1	0	1	0
43	939	7	10000	1	1	0	1	0
42	940	7	10000	1	1	0	1	0
43	940	7	10000	1	1	0	1	0
42	941	7	10000	1	1	0	1	0
40	943	7	10000	1	1	0	1	0
38	944	7	10000	1	1	0	1	0
37	945	7	10000	1	1	0	1	0
36	946	7	10000	1	1	0	1	0
34	947	7	10000	1	1	0	1	0
34	948	7	10000	1	1	0	1	0
33	949	7	10000	1	1	0	1	0
33	950	7	10000	1	1	0	1	0
32	950	7	10000	1	1	0	1	0
31	951	7	10000	1	1	0	1	0
33	953	7	10000	1	1	0	1	0
34	954	7	10000	1	1	0	1	0
35	955	7	10000	1	1	0	1	0
33	956	7	10000	1	1	0	1	0
32	957	7	10000	1	1	0	1	0
33	958	7	10000	1	1	0	1	0
34	959	7	10000	1	1	0	1	0
34	960	7	10000	1	1	0	1	0
35	960	7	10000	1	1	0	1	0
36	961	7	10000	1	1	0	1	0
34	963	7	10000	1	1	0	1	0
33	964	7	10000	1	1	0	1	0
31	965	7	10000	1	1	0	1	0
30	966	7	10000	1	1	0	1	0
29	967	7	10000	1	1	0	1	0
30	968	7	10000	1	1	0	1	0
31	969	7	10000	1	1	0	1	0
33	970	7	10000	1	1	0	1	0
33	970	7	10000	1	1	0	1	0
31	971	7	10000	1	1	0	1	0
32	973	7	10000	1	1	0	1	0
32	974	7	10000	1	1	0	1	0
31	975	7	10000	1	1	0	1	0
30	976	7	10000	1	1	0	1	0
29	977	7	10000	1	1	0	1	0
29	978	7	10000	1	1	0	1	0
30	979	7	10000	1	1	0	1	0
30	980	7	10000	1	1	0	1	0
30	980	7	10000	1	1	0	1	0
31	981	7	10000	1	1	0	1	0
31	983	7	10000	1	1	0	1	0
32	984	7	10000	1	1	0	1	0
33	985	7	10000	1	1	0	1	0
34	986	7	10000	1	1	0	1	0
36	987	7	10000	1	1	0	1	0
36	988	7	10000	1	1	0	1	0
36	989	7	10000	1	1	0	1	0
39	990	7	10000	1	1	0	1	0
41	990	7	10000	1	1	0	1	0
41	991	7	10000	1	1	0	1	0
42	993	7	10000	1	1	0	1	0
43	994	7	10000	1	1	0	1	0
44	995	7	10000	1	1	0	1	0
43	996	7	10000	1	1	0	1	0
42	997	7	10000	1	1	0	1	0
42	998	7	10000	1	1	0	1	0
40	999	7	10000	1	1	0	1	0
39	1000	7	10000	1	1	0	1	0
39	1000	7	10000	1	1	0	1	0
41	1001	7	10000	1	1	0	1	0
27	1	0	10000	2	1	0	2	0
26	2	0	10000	2	1	0	2	0
26	3	0	10000	2	1	0	2	0
25	4	0	10000	2	1	0	2	0
28	5	0	10000	2	1	0	2	0
29	6	0	10000	2	1	0	2	0
28	7	0	10000	2	1	0	2	0
27	8	0	10000	2	1	0	2	0
26	9	0	10000	2	1	0	2	0
26	10	0	10000	2	1	0	2	0
25	11	0	10000	2	1	0	2	0
26	12	0	10000	2	1	0	2	0
27	13	0	10000	2	1	0	2	0
25	14	0	10000	2	1	0	2	0
25	15	0	10000	2	1	0	2	0
30	16	0	10000	2	1	0	2	0
31	17	0	10000	2	1	0	2	0
31	18	0	10000	2	1	0	2	0
31	19	0	10000	2	1	0	2	0
29	20	0	10000	2	1	0	2	0
28	21	0	10000	2	1	0	2	0
28	22	0	10000	2	1	0	2	0
27	23	0	10000	2	1	0	2	0
27	24	0	10000	2	1	0	2	0
32	25	0	10000	2	1	0	2	0
32	26	0	10000	2	1	0	2	0
31	27	0	10000	2	1	0	2	0
31	28	0	10000	2	1	0	2	0
32	29	0	10000	2	1	0	2	0
34	30	0	10000	2	1	0	2	0
34	31	0	10000	2	1	0	2	0
36	32	0	10000	2	1	0	2	0
36	33	0	10000	2	1	0	2	0
36	34	0	10000	2	1	0	2	0
34	35	0	10000	2	1	0	2	0
34	36	0	10000	2	1	0	2	0
33	37	0	10000	2	1	0	2	0
33	38	0	10000	2	1	0	2	0
34	39	0	10000	2	1	0	2	0
35	40	0	10000	2	1	0	2	0
36	41	0	10000	2	1	0	2	0
35	42	0	10000	2	1	0	2	0
34	43	0	10000	2	1	0	2	0
33	44	0	10000	2	1	0	2	0
33	45	0	10000	2	1	0	2	0
32	46	0	10000	2	1	0	2	0
32	47	0	10000	2	1	0	2	0
30	48	0	10000	2	1	0	2	0
31	49	0	10000	2	1	0	2	0
35	50	0	10000	2	1	0	2	0
38	51	0	10000	2	1	0	2	0
38	52	0	10000	2	1	0	2	0
37	53	0	10000	2	1	0	2	0
37	54	0	10000	2	1	0	2	0
35	55	0	10000	2	1	0	2	0
35	56	0	10000	2	1	0	2	0
33	57	0	10000	2	1	0	2	0
33	58	0	10000	2	1	0	2	0
33	59	0	10000	2	1	0	2	0
34	60	0	10000	2	1	0	2	0
35	61	0	10000	2	1	0	2	0
36	62	0	10000	2	1	0	2	0
37	63	0	10000	2	1	0	2	0
38	64	0	10000	2	1	0	2	0
39	65	0	10000	2	1	0	2	0
37	66	0	10000	2	1	0	2	0
37	67	0	10000	2	1	0	2	0
36	68	0	10000	2	1	0	2	0
36	69	0	10000	2	1	0	2	0
34	70	0	10000	2	1	0	2	0
34	71	0	10000	2	1	0	2	0
35	72	0	10000	2	1	0	2	0
34	73	0	10000	2	1	0	2	0
33	74	0	10000	2	1	0	2	0
31	75	0	10000	2	1	0	2	0
31	76	0	10000	2	1	0	2	0
30	77	0	10000	2	1	0	2	0
29	78	0	10000	2	1	0	2	0
27	79	0	10000	2	1	0	2	0
26	80	0	10000	2	1	0	2	0
27	81	0	10000	2	1	0	2	0
27	82	0	10000	2	1	0	2	0
27	83	0	10000	2	1	0	2	0
26	84	0	10000	2	1	0	2	0
27	85	0	10000	2	1	0	2	0
27	86	0	10000	2	1	0	2	0
26	87	0	10000	2	1	0	2	0
26	88	0	10000	2	1	0	2	0
27	89	0	10000	2	1	0	2	0
28	90	0	10000	2	1	0	2	0
28	91	0	10000	2	1	0	2	0
29	92	0	10000	2	1	0	2	0
28	93	0	10000	2	1	0	2	0
30	94	0	10000	2	1	0	2	0
29	95	0	10000	2	1	0	2	0
28	96	0	10000	2	1	0	2	0
29	97	0	10000	2	1	0	2	0
29	98	0	10000	2	1	0	2	0
30	99	0	10000	2	1	0	2	0
29	100	0	10000	2	1	0	2	0
28	101	0	10000	2	1	0	2	0
27	102	0	10000	2	1	0	2	0
26	103	0	10000	2	1	0	2	0
26	104	0	10000	2	1	0	2	0
28	105	0	10000	2	1	0	2	0
28	106	0	10000	2	1	0	2	0
28	107	0	10000	2	1	0	2	0
28	108	0	10000	2	1	0	2	0
27	109	0	10000	2	1	0	2	0
29	110	0	10000	2	1	0	2	0
29	111	0	10000	2	1	0	2	0
30	112	0	10000	2	1	0	2	0
31	113	0	10000	2	1	0	2	0
33	114	0	10000	2	1	0	2	0
32	115	0	10000	2	1	0	2	0
32	116	0	10000	2	1	0	2	0
31	117	0	10000	2	1	0	2	0
32	118	0	10000	2	1	0	2	0
34	119	0	10000	2	1	0	2	0
34	120	0	10000	2	1	0	2	0
34	121	0	10000	2	1	0	2	0
34	122	0	10000	2	1	0	2	0
33	123	0	10000	2	1	0	2	0
32	124	0	10000	2	1	0	2	0
35	125	0	10000	2	1	0	2	0
33	126	0	10000	2	1	0	2	0
32	127	0	10000	2	1	0	2	0
33	128	0	10000	2	1	0	2	0
32	129	0	10000	2	1	0	2	0
32	130	0	10000	2	1	0	2	0
30	131	0	10000	2	1	0	2	0
30	132	0	10000	2	1	0	2	0
30	133	0	10000	2	1	0	2	0
29	134	0	10000	2	1	0	2	0
26	135	0	10000	2	1	0	2	0
27	136	0	10000	2	1	0	2	0
25	137	0	10000	2	1	0	2	0
25	138	0	10000	2	1	0	2	0
25	139	0	10000	2	1	0	2	0
23	140	0	10000	2	1	0	2	0
23	141	0	10000	2	1	0	2	0
23	142	0	10000	2	1	0	2	0
24	143	0	10000	2	1	0	2	0
23	144	0	10000	2	1	0	2	0
25	145	0	10000	2	1	0	2	0
23	146	0	10000	2	1	0	2	0
23	147	0	10000	2	1	0	2	0
25	148	0	10000	2	1	0	2	0
28	149	0	10000	2	1	0	2	0
29	150	0	10000	2	1	0	2	0
27	151	0	10000	2	1	0	2	0
29	152	0	10000	2	1	0	2	0
33	153	0	10000	2	1	0	2	0
34	154	0	10000	2	1	0	2	0
32	155	0	10000	2	1	0	2	0
32	156	0	10000	2	1	0	2	0
32	157	0	10000	2	1	0	2	0
30	158	0	10000	2	1	0	2	0
30	159	0	10000	2	1	0	2	0
32	160	0	10000	2	1	0	2	0
34	161	0	10000	2	1	0	2	0
34	162	0	10000	2	1	0	2	0
34	163	0	10000	2	1	0	2	0
34	164	0	10000	2	1	0	2	0
33	165	0	10000	2	1	0	2	0
32	166	0	10000	2	1	0	2	0
32	167	0	10000	2	1	0	2	0
33	168	0	10000	2	1	0	2	0
32	169	0	10000	2	1	0	2	0
32	170	0	10000	2	1	0	2	0
31	171	0	10000	2	1	0	2	0
30	172	0	10000	2	1	0	2	0
29	173	0	10000	2	1	0	2	0
28	174	0	10000	2	1	0	2	0
25	175	0	10000	2	1	0	2	0
27	176	0	10000	2	1	0	2	0
31	177	0	10000	2	1	0	2	0
34	178	0	10000	2	1	0	2	0
34	179	0	10000	2	1	0	2	0
32	180	0	10000	2	1	0	2	0
32	181	0	10000	2	1	0	2	0
30	182	0	10000	2	1	0	2	0
29	183	0	10000	2	1	0	2	0
28	184	0	10000	2	1	0	2	0
30	185	0	10000	2	1	0	2	0
29	186	0	10000	2	1	0	2	0
29	187	0	10000	2	1	0	2	0
28	188	0	10000	2	1	0	2	0
27	189	0	10000	2	1	0	2	0
26	190	0	10000	2	1	0	2	0
27	191	0	10000	2	1	0	2	0
27	192	0	10000	2	1	0	2	0
27	193	0	10000	2	1	0	2	0
30	194	0	10000	2	1	0	2	0
31	195	0	10000	2	1	0	2	0
34	196	0	10000	2	1	0	2	0
35	197	0	10000	2	1	0	2	0
36	198	0	10000	2	1	0	2	0
36	199	0	10000	2	1	0	2	0
35	200	0	10000	2	1	0	2	0
35	201	0	10000	2	1	0	2	0
36	202	0	10000	2	1	0	2	0
36	203	0	10000	2	1	0	2	0
34	204	0	10000	2	1	0	2	0
36	205	0	10000	2	1	0	2	0
37	206	0	10000	2	1	0	2	0
43	207	0	10000	2	1	0	2	0
51	208	0	10000	2	1	0	2	0
53	209	0	10000	2	1	0	2	0
53	210	0	10000	2	1	0	2	0
58	211	0	10000	2	1	0	2	0
72	212	0	10000	2	1	0	2	0
77	213	0	10000	2	1	0	2	0
78	214	0	10000	2	1	0	2	0
88	215	0	10000	2	1	0	2	0
92	216	0	10000	2	1	0	2	0
107	217	0	10000	2	1	0	2	0
109	218	0	10000	2	1	0	2	0
106	219	0	10000	2	1	0	2	0
108	220	0	10000	2	1	0	2	0
130	221	0	10000	2	1	0	2	0
163	222	0	10000	2	1	0	2	0
180	223	0	10000	2	1	0	2	0
181	224	0	10000	2	1	0	2	0
193	225	0	10000	2	1	0	2	0
203	226	0	10000	2	1	0	2	0
198	227	0	10000	2	1	0	2	0
193	228	0	10000	2	1	0	2	0
189	229	0	10000	2	1	0	2	0
182	230	0	10000	2	1	0	2	0
174	231	0	10000	2	1	0	2	0
178	232	0	10000	2	1	0	2	0
192	233	0	10000	2	1	0	2	0
192	234	0	10000	2	1	0	2	0
190	235	0	10000	2	1	0	2	0
189	236	0	10000	2	1	0	2	0
194	237	0	10000	2	1	0	2	0
198	238	0	10000	2	1	0	2	0
193	239	0	10000	2	1	0	2	0
190	240	0	10000	2	1	0	2	0
186	241	0	10000	2	1	0	2	0
189	242	0	10000	2	1	0	2	0
188	243	0	10000	2	1	0	2	0
179	244	0	10000	2	1	0	2	0
177	245	0	10000	2	1	0	2	0
171	246	0	10000	2	1	0	2	0
163	247	0	10000	2	1	0	2	0
163	248	0	10000	2	1	0	2	0
163	249	0	10000	2	1	0	2	0
159	250	0	10000	2	1	0	2	0
152	251	0	10000	2	1	0	2	0
148	252	0	10000	2	1	0	2	0
144	253	0	10000	2	1	0	2	0
138	254	0	10000	2	1	0	2	0
132	255	0	10000	2	1	0	2	0
132	256	0	10000	2	1	0	2	0
131	257	0	10000	2	1	0	2	0
126	258	0	10000	2	1	0	2	0
121	259	0	10000	2	1	0	2	0
120	260	0	10000	2	1	0	2	0
120	261	0	10000	2	1	0	2	0
115	262	0	10000	2	1	0	2	0
109	263	0	10000	2	1	0	2	0
106	264	0	10000	2	1	0	2	0
110	265	0	10000	2	1	0	2	0
108	266	0	10000	2	1	0	2	0
103	267	0	10000	2	1	0	2	0
100	268	0	10000	2	1	0	2	0
95	269	0	10000	2	1	0	2	0
91	270	0	10000	2	1	0	2	0
87	271	0	10000	2	1	0	2	0
85	272	0	10000	2	1	0	2	0
87	273	0	10000	2	1	0	2	0
84	274	0	10000	2	1	0	2	0
80	275	0	10000	2	1	0	2	0
78	276	0	10000	2	1	0	2	0
79	277	0	10000	2	1	0	2	0
80	278	0	10000	2	1	0	2	0
80	279	0	10000	2	1	0	2	0
77	280	0	10000	2	1	0	2	0
75	281	0	10000	2	1	0	2	0
72	282	0	10000	2	1	0	2	0
68	283	0	10000	2	1	0	2	0
68	284	0	10000	2	1	0	2	0
68	285	0	10000	2	1	0	2	0
66	286	0	10000	2	1	0	2	0
68	287	0	10000	2	1	0	2	0
70	288	0	10000	2	1	0	2	0
74	289	0	10000	2	1	0	2	0
76	290	0	10000	2	1	0	2	0
78	291	0	10000	2	1	0	2	0
81	292	0	10000	2	1	0	2	0
82	293	0	10000	2	1	0	2	0
85	294	0	10000	2	1	0	2	0
85	295	0	10000	2	1	0	2	0
88	296	0	10000	2	1	0	2	0
91	297	0	10000	2	1	0	2	0
94	298	0	10000	2	1	0	2	0
94	299	0	10000	2	1	0	2	0
94	300	0	10000	2	1	0	2	0
95	301	0	10000	2	1	0	2	0
97	302	0	10000	2	1	0	2	0
102	303	0	10000	2	1	0	2	0
105	304	0	10000	2	1	0	2	0
106	305	0	10000	2	1	0	2	0
104	306	0	10000	2	1	0	2	0
102	307	0	10000	2	1	0	2	0
100	308	0	10000	2	1	0	2	0
97	309	0	10000	2	1	0	2	0
96	310	0	10000	2	1	0	2	0
95	311	0	10000	2	1	0	2	0
97	312	0	10000	2	1	0	2	0
97	313	0	10000	2	1	0	2	0
96	314	0	10000	2	1	0	2	0
93	315	0	10000	2	1	0	2	0
90	316	0	10000	2	1	0	2	0
86	317	0	10000	2	1	0	2	0
83	318	0	10000	2	1	0	2	0
80	319	0	10000	2	1	0	2	0
76	320	0	10000	2	1	0	2	0
74	321	0	10000	2	1	0	2	0
73	322	0	10000	2	1	0	2	0
72	323	0	10000	2	1	0	2	0
71	324	0	10000	2	1	0	2	0
70	325	0	10000	2	1	0	2	0
68	326	0	10000	2	1	0	2	0
66	327	0	10000	2	1	0	2	0
63	328	0	10000	2	1	0	2	0
60	329	0	10000	2	1	0	2	0
57	330	0	10000	2	1	0	2	0
56	331	0	10000	2	1	0	2	0
55	332	0	10000	2	1	0	2	0
54	333	0	10000	2	1	0	2	0
53	334	0	10000	2	1	0	2	0
49	335	0	10000	2	1	0	2	0
49	336	0	10000	2	1	0	2	0
49	337	0	10000	2	1	0	2	0
48	338	0	10000	2	1	0	2	0
47	339	0	10000	2	1	0	2	0
47	340	0	10000	2	1	0	2	0
47	341	0	10000	2	1	0	2	0
44	342	0	10000	2	1	0	2	0
44	343	0	10000	2	1	0	2	0
43	344	0	10000	2	1	0	2	0
45	345	0	10000	2	1	0	2	0
44	346	0	10000	2	1	0	2	0
42	347	0	10000	2	1	0	2	0
40	348	0	10000	2	1	0	2	0
40	349	0	10000	2	1	0	2	0
39	350	0	10000	2	1	0	2	0
38	351	0	10000	2	1	0	2	0
37	352	0	10000	2	1	0	2	0
37	353	0	10000	2	1	0	2	0
37	354	0	10000	2	1	0	2	0
33	355	0	10000	2	1	0	2	0
33	356	0	10000	2	1	0	2	0
32	357	0	10000	2	1	0	2	0
35	358	0	10000	2	1	0	2	0
40	359	0	10000	2	1	0	2	0
43	360	0	10000	2	1	0	2	0
45	361	0	10000	2	1	0	2	0
47	362	0	10000	2	1	0	2	0
48	363	0	10000	2	1	0	2	0
48	364	0	10000	2	1	0	2	0
49	365	0	10000	2	1	0	2	0
47	366	0	10000	2	1	0	2	0
45	367	0	10000	2	1	0	2	0
45	368	0	10000	2	1	0	2	0
43	369	0	10000	2	1	0	2	0
42	370	0	10000	2	1	0	2	0
41	371	0	10000	2	1	0	2	0
41	372	0	10000	2	1	0	2	0
42	373	0	10000	2	1	0	2	0
42	374	0	10000	2	1	0	2	0
40	375	0	10000	2	1	0	2	0
40	376	0	10000	2	1	0	2	0
40	377	0	10000	2	1	0	2	0
40	378	0	10000	2	1	0	2	0
40	379	0	10000	2	1	0	2	0
38	380	0	10000	2	1	0	2	0
36	381	0	10000	2	1	0	2	0
34	382	0	10000	2	1	0	2	0
33	383	0	10000	2	1	0	2	0
34	384	0	10000	2	1	0	2	0
38	385	0	10000	2	1	0	2	0
39	386	0	10000	2	1	0	2	0
40	387	0	10000	2	1	0	2	0
40	388	0	10000	2	1	0	2	0
39	389	0	10000	2	1	0	2	0
39	390	0	10000	2	1	0	2	0
37	391	0	10000	2	1	0	2	0
36	392	0	10000	2	1	0	2	0
36	393	0	10000	2	1	0	2	0
33	394	0	10000	2	1	0	2	0
31	395	0	10000	2	1	0	2	0
31	396	0	10000	2	1	0	2	0
32	397	0	10000	2	1	0	2	0
34	398	0	10000	2	1	0	2	0
36	399	0	10000	2	1	0	2	0
35	400	0	10000	2	1	0	2	0
38	401	0	10000	2	1	0	2	0
39	402	0	10000	2	1	0	2	0
40	403	0	10000	2	1	0	2	0
42	404	0	10000	2	1	0	2	0
45	405	0	10000	2	1	0	2	0
46	406	0	10000	2	1	0	2	0
47	407	0	10000	2	1	0	2	0
45	408	0	10000	2	1	0	2	0
44	409	0	10000	2	1	0	2	0
42	410	0	10000	2	1	0	2	0
40	411	0	10000	2	1	0	2	0
40	412	0	10000	2	1	0	2	0
39	413	0	10000	2	1	0	2	0
38	414	0	10000	2	1	0	2	0
36	415	0	10000	2	1	0	2	0
35	416	0	10000	2	1	0	2	0
36	417	0	10000	2	1	0	2	0
39	418	0	10000	2	1	0	2	0
39	419	0	10000	2	1	0	2	0
38	420	0	10000	2	1	0	2	0
38	421	0	10000	2	1	0	2	0
35	422	0	10000	2	1	0	2	0
34	423	0	10000	2	1	0	2	0
34	424	0	10000	2	1	0	2	0
38	425	0	10000	2	1	0	2	0
41	426	0	10000	2	1	0	2	0
42	427	0	10000	2	1	0	2	0
41	428	0	10000	2	1	0	2	0
40	429	0	10000	2	1	0	2	0
40	430	0	10000	2	1	0	2	0
40	431	0	10000	2	1	0	2	0
42	432	0	10000	2	1	0	2	0
43	433	0	10000	2	1	0	2	0
45	434	0	10000	2	1	0	2	0
45	435	0	10000	2	1	0	2	0
46	436	0	10000	2	1	0	2	0
46	437	0	10000	2	1	0	2	0
44	438	0	10000	2	1	0	2	0
42	439	0	10000	2	1	0	2	0
42	440	0	10000	2	1	0	2	0
41	441	0	10000	2	1	0	2	0
39	442	0	10000	2	1	0	2	0
37	443	0	10000	2	1	0	2	0
36	444	0	10000	2	1	0	2	0
36	445	0	10000	2	1	0	2	0
36	446	0	10000	2	1	0	2	0
34	447	0	10000	2	1	0	2	0
32	448	0	10000	2	1	0	2	0
32	449	0	10000	2	1	0	2	0
31	450	0	10000	2	1	0	2	0
31	451	0	10000	2	1	0	2	0
32	452	0	10000	2	1	0	2	0
34	453	0	10000	2	1	0	2	0
36	454	0	10000	2	1	0	2	0
36	455	0	10000	2	1	0	2	0
38	456	0	10000	2	1	0	2	0
38	457	0	10000	2	1	0	2	0
37	458	0	10000	2	1	0	2	0
37	459	0	10000	2	1	0	2	0
40	460	0	10000	2	1	0	2	0
40	461	0	10000	2	1	0	2	0
39	462	0	10000	2	1	0	2	0
38	463	0	10000	2	1	0	2	0
39	464	0	10000	2	1	0	2	0
41	465	0	10000	2	1	0	2	0
39	466	0	10000	2	1	0	2	0
40	467	0	10000	2	1	0	2	0
39	468	0	10000	2	1	0	2	0
37	469	0	10000	2	1	0	2	0
35	470	0	10000	2	1	0	2	0
36	471	0	10000	2	1	0	2	0
36	472	0	10000	2	1	0	2	0
37	473	0	10000	2	1	0	2	0
39	474	0	10000	2	1	0	2	0
38	475	0	10000	2	1	0	2	0
40	476	0	10000	2	1	0	2	0
42	477	0	10000	2	1	0	2	0
44	478	0	10000	2	1	0	2	0
44	479	0	10000	2	1	0	2	0
43	480	0	10000	2	1	0	2	0
41	481	0	10000	2	1	0	2	0
39	482	0	10000	2	1	0	2	0
39	483	0	10000	2	1	0	2	0
38	484	0	10000	2	1	0	2	0
41	485	0	10000	2	1	0	2	0
40	486	0	10000	2	1	0	2	0
40	487	0	10000	2	1	0	2	0
39	488	0	10000	2	1	0	2	0
37	489	0	10000	2	1	0	2	0
36	490	0	10000	2	1	0	2	0
34	491	0	10000	2	1	0	2	0
34	492	0	10000	2	1	0	2	0
33	493	0	10000	2	1	0	2	0
33	494	0	10000	2	1	0	2	0
31	495	0	10000	2	1	0	2	0
30	496	0	10000	2	1	0	2	0
29	497	0	10000	2	1	0	2	0
30	498	0	10000	2	1	0	2	0
33	499	0	10000	2	1	0	2	0
34	500	0	10000	2	1	0	2	0
34	501	0	10000	2	1	0	2	1
34	502	0	10000	2	1	0	2	1
35	503	0	10000	2	1	0	2	1
37	504	0	10000	2	1	0	2	1
39	505	0	10000	2	1	0	2	1
39	506	0	10000	2	1	0	2	1
38	507	0	10000	2	1	0	2	1
36	508	0	10000	2	1	0	2	1
35	509	0	10000	2	1	0	2	1
36	510	0	10000	2	1	0	2	1
39	511	0	10000	2	1	0	2	1
39	512	0	10000	2	1	0	2	1
39	513	0	10000	2	1	0	2	1
38	514	0	10000	2	1	0	2	1
35	515	0	10000	2	1	0	2	1
37	516	0	10000	2	1	0	2	1
39	517	0	10000	2	1	0	2	1
38	518	0	10000	2	1	0	2	1
38	519	0	10000	2	1	0	2	1
38	520	0	10000	2	1	0	2	1
39	521	0	10000	2	1	0	2	1
39	522	0	10000	2	1	0	2	1
39	523	0	10000	2	1	0	2	1
40	524	0	10000	2	1	0	2	1
42	525	0	10000	2	1	0	2	1
41	526	0	10000	2	1	0	2	1
41	527	0	10000	2	1	0	2	1
40	528	0	10000	2	1	0	2	1
40	529	0	10000	2	1	0	2	1
39	530	0	10000	2	1	0	2	1
37	531	0	10000	2	1	0	2	1
36	532	0	10000	2	1	0	2	1
37	533	0	10000	2	1	0	2	1
37	534	0	10000	2	1	0	2	1
34	535	0	10000	2	1	0	2	1
32	536	0	10000	2	1	0	2	1
32	537	0	10000	2	1	0	2	1
33	538	0	10000	2	1	0	2	1
32	539	0	10000	2	1	0	2	1
32	540	0	10000	2	1	0	2	1
34	541	0	10000	2	1	0	2	1
32	542	0	10000	2	1	0	2	1
31	543	0	10000	2	1	0	2	1
29	544	0	10000	2	1	0	2	1
30	545	0	10000	2	1	0	2	1
29	546	0	10000	2	1	0	2	1
27	547	0	10000	2	1	0	2	1
27	548	0	10000	2	1	0	2	1
27	549	0	10000	2	1	0	2	1
26	550	0	10000	2	1	0	2	1
24	551	0	10000	2	1	0	2	0
24	552	0	10000	2	1	0	2	0
23	553	0	10000	2	1	0	2	0
23	554	0	10000	2	1	0	2	0
20	555	0	10000	2	1	0	2	0
22	556	0	10000	2	1	0	2	0
25	557	0	10000	2	1	0	2	0
30	558	0	10000	2	1	0	2	0
32	559	0	10000	2	1	0	2	0
31	560	0	10000	2	1	0	2	0
30	561	0	10000	2	1	0	2	0
31	562	0	10000	2	1	0	2	0
33	563	0	10000	2	1	0	2	0
35	564	0	10000	2	1	0	2	0
38	565	0	10000	2	1	0	2	0
38	566	0	10000	2	1	0	2	0
36	567	0	10000	2	1	0	2	0
35	568	0	10000	2	1	0	2	0
35	569	0	10000	2	1	0	2	0
35	570	0	10000	2	1	0	2	0
35	571	0	10000	2	1	0	2	0
34	572	0	10000	2	1	0	2	0
35	573	0	10000	2	1	0	2	0
35	574	0	10000	2	1	0	2	0
33	575	0	10000	2	1	0	2	0
32	576	0	10000	2	1	0	2	0
32	577	0	10000	2	1	0	2	0
31	578	0	10000	2	1	0	2	0
31	579	0	10000	2	1	0	2	0
30	580	0	10000	2	1	0	2	0
29	581	0	10000	2	1	0	2	0
29	582	0	10000	2	1	0	2	0
31	583	0	10000	2	1	0	2	0
36	584	0	10000	2	1	0	2	0
41	585	0	10000	2	1	0	2	0
41	586	0	10000	2	1	0	2	0
49	587	0	10000	2	1	0	2	0
54	588	0	10000	2	1	0	2	0
54	589	0	10000	2	1	0	2	0
59	590	0	10000	2	1	0	2	0
80	591	0	10000	2	1	0	2	0
117	592	0	10000	2	1	0	2	0
162	593	0	10000	2	1	0	2	0
206	594	0	10000	2	1	0	2	0
206	595	0	10000	2	1	0	2	0
220	596	0	10000	2	1	0	2	0
234	597	0	10000	2	1	0	2	0
237	598	0	10000	2	1	0	2	0
233	599	0	10000	2	1	0	2	0
241	600	0	10000	2	1	0	2	0
281	601	0	10000	2	1	0	2	0
334	602	0	10000	2	1	0	2	0
336	603	0	10000	2	1	0	2	0
370	604	0	10000	2	1	0	2	0
427	605	0	10000	2	1	0	2	0
498	606	0	10000	2	1	0	2	0
552	607	0	10000	2	1	0	2	0
635	608	0	10000	2	1	0	2	0
641	609	0	10000	2	1	0	2	0
733	610	0	10000	2	1	0	2	0
791	611	0	10000	2	1	0	2	0
872	612	0	10000	2	1	0	2	0
892	613	0	10000	2	1	0	2	0
890	614	0	10000	2	1	0	2	0
953	615	0	10000	2	1	0	2	0
1044	616	0	10000	2	1	0	2	0
1079	617	0	10000	2	1	0	2	0
1051	618	0	10000	2	1	0	2	0
1021	619	0	10000	2	1	0	2	0
1044	620	0	10000	2	1	0	2	0
1048	621	0	10000	2	1	0	2	0
1093	622	0	10000	2	1	0	2	0
1142	623	0	10000	2	1	0	2	0
1159	624	0	10000	2	1	0	2	0
1121	625	0	10000	2	1	0	2	0
1081	626	0	10000	2	1	0	2	0
1052	627	0	10000	2	1	0	2	0
1019	628	0	10000	2	1	0	2	0
976	629	0	10000	2	1	0	2	0
935	630	0	10000	2	1	0	2	0
900	631	0	10000	2	1	0	2	0
870	632	0	10000	2	1	0	2	0
843	633	0	10000	2	1	0	2	0
818	634	0	10000	2	1	0	2	0
794	635	0	10000	2	1	0	2	0
776	636	0	10000	2	1	0	2	0
759	637	0	10000	2	1	0	2	0
744	638	0	10000	2	1	0	2	0
722	639	0	10000	2	1	0	2	0
701	640	0	10000	2	1	0	2	0
762	641	0	10000	2	1	0	2	0
868	642	0	10000	2	1	0	2	0
910	643	0	10000	2	1	0	2	0
897	644	0	10000	2	1	0	2	0
916	645	0	10000	2	1	0	2	0
918	646	0	10000	2	1	0	2	0
909	647	0	10000	2	1	0	2	0
919	648	0	10000	2	1	0	2	0
930	649	0	10000	2	1	0	2	0
963	650	0	10000	2	1	0	2	0
974	651	0	10000	2	1	0	2	0
938	652	0	10000	2	1	0	2	0
900	653	0	10000	2	1	0	2	0
875	654	0	10000	2	1	0	2	0
868	655	0	10000	2	1	0	2	0
852	656	0	10000	2	1	0	2	0
817	657	0	10000	2	1	0	2	0
787	658	0	10000	2	1	0	2	0
753	659	0	10000	2	1	0	2	0
720	660	0	10000	2	1	0	2	0
689	661	0	10000	2	1	0	2	0
657	662	0	10000	2	1	0	2	0
626	663	0	10000	2	1	0	2	0
597	664	0	10000	2	1	0	2	0
573	665	0	10000	2	1	0	2	0
547	666	0	10000	2	1	0	2	0
523	667	0	10000	2	1	0	2	0
500	668	0	10000	2	1	0	2	0
479	669	0	10000	2	1	0	2	0
460	670	0	10000	2	1	0	2	0
445	671	0	10000	2	1	0	2	0
433	672	0	10000	2	1	0	2	0
422	673	0	10000	2	1	0	2	0
417	674	0	10000	2	1	0	2	0
413	675	0	10000	2	1	0	2	0
412	676	0	10000	2	1	0	2	0
414	677	0	10000	2	1	0	2	0
416	678	0	10000	2	1	0	2	0
417	679	0	10000	2	1	0	2	0
417	680	0	10000	2	1	0	2	0
416	681	0	10000	2	1	0	2	0
413	682	0	10000	2	1	0	2	0
414	683	0	10000	2	1	0	2	0
417	684	0	10000	2	1	0	2	0
420	685	0	10000	2	1	0	2	0
418	686	0	10000	2	1	0	2	0
413	687	0	10000	2	1	0	2	0
407	688	0	10000	2	1	0	2	0
403	689	0	10000	2	1	0	2	0
397	690	0	10000	2	1	0	2	0
391	691	0	10000	2	1	0	2	0
386	692	0	10000	2	1	0	2	0
381	693	0	10000	2	1	0	2	0
376	694	0	10000	2	1	0	2	0
368	695	0	10000	2	1	0	2	0
363	696	0	10000	2	1	0	2	0
358	697	0	10000	2	1	0	2	0
354	698	0	10000	2	1	0	2	0
348	699	0	10000	2	1	0	2	0
341	700	0	10000	2	1	0	2	0
336	701	0	10000	2	1	0	2	0
327	702	0	10000	2	1	0	2	0
319	703	0	10000	2	1	0	2	0
310	704	0	10000	2	1	0	2	0
304	705	0	10000	2	1	0	2	0
293	706	0	10000	2	1	0	2	0
279	707	0	10000	2	1	0	2	0
267	708	0	10000	2	1	0	2	0
257	709	0	10000	2	1	0	2	0
245	710	0	10000	2	1	0	2	0
236	711	0	10000	2	1	0	2	0
231	712	0	10000	2	1	0	2	0
227	713	0	10000	2	1	0	2	0
220	714	0	10000	2	1	0	2	0
217	715	0	10000	2	1	0	2	0
221	716	0	10000	2	1	0	2	0
224	717	0	10000	2	1	0	2	0
225	718	0	10000	2	1	0	2	0
225	719	0	10000	2	1	0	2	0
225	720	0	10000	2	1	0	2	0
225	721	0	10000	2	1	0	2	0
222	722	0	10000	2	1	0	2	0
221	723	0	10000	2	1	0	2	0
218	724	0	10000	2	1	0	2	0
219	725	0	10000	2	1	0	2	0
217	726	0	10000	2	1	0	2	0
217	727	0	10000	2	1	0	2	0
215	728	0	10000	2	1	0	2	0
211	729	0	10000	2	1	0	2	0
206	730	0	10000	2	1	0	2	0
204	731	0	10000	2	1	0	2	0
203	732	0	10000	2	1	0	2	0
201	733	0	10000	2	1	0	2	0
193	734	0	10000	2	1	0	2	0
184	735	0	10000	2	1	0	2	0
183	736	0	10000	2	1	0	2	0
186	737	0	10000	2	1	0	2	0
187	738	0	10000	2	1	0	2	0
183	739	0	10000	2	1	0	2	0
177	740	0	10000	2	1	0	2	0
175	741	0	10000	2	1	0	2	0
177	742	0	10000	2	1	0	2	0
183	743	0	10000	2	1	0	2	0
189	744	0	10000	2	1	0	2	0
194	745	0	10000	2	1	0	2	0
194	746	0	10000	2	1	0	2	0
190	747	0	10000	2	1	0	2	0
185	748	0	10000	2	1	0	2	0
179	749	0	10000	2	1	0	2	0
179	750	0	10000	2	1	0	2	0
184	751	0	10000	2	1	0	2	0
188	752	0	10000	2	1	0	2	0
192	753	0	10000	2	1	0	2	0
192	754	0	10000	2	1	0	2	0
189	755	0	10000	2	1	0	2	0
184	756	0	10000	2	1	0	2	0
177	757	0	10000	2	1	0	2	0
170	758	0	10000	2	1	0	2	0
165	759	0	10000	2	1	0	2	0
162	760	0	10000	2	1	0	2	0
161	761	0	10000	2	1	0	2	0
157	762	0	10000	2	1	0	2	0
150	763	0	10000	2	1	0	2	0
146	764	0	10000	2	1	0	2	0
146	765	0	10000	2	1	0	2	0
145	766	0	10000	2	1	0	2	0
147	767	0	10000	2	1	0	2	0
147	768	0	10000	2	1	0	2	0
145	769	0	10000	2	1	0	2	0
141	770	0	10000	2	1	0	2	0
137	771	0	10000	2	1	0	2	0
132	772	0	10000	2	1	0	2	0
137	773	0	10000	2	1	0	2	0
142	774	0	10000	2	1	0	2	0
136	775	0	10000	2	1	0	2	0
134	776	0	10000	2	1	0	2	0
130	777	0	10000	2	1	0	2	0
136	778	0	10000	2	1	0	2	0
140	779	0	10000	2	1	0	2	0
140	780	0	10000	2	1	0	2	0
146	781	0	10000	2	1	0	2	0
150	782	0	10000	2	1	0	2	0
147	783	0	10000	2	1	0	2	0
142	784	0	10000	2	1	0	2	0
141	785	0	10000	2	1	0	2	0
141	786	0	10000	2	1	0	2	0
138	787	0	10000	2	1	0	2	0
132	788	0	10000	2	1	0	2	0
127	789	0	10000	2	1	0	2	0
123	790	0	10000	2	1	0	2	0
121	791	0	10000	2	1	0	2	0
119	792	0	10000	2	1	0	2	0
113	793	0	10000	2	1	0	2	0
110	794	0	10000	2	1	0	2	0
105	795	0	10000	2	1	0	2	0
102	796	0	10000	2	1	0	2	0
105	797	0	10000	2	1	0	2	0
112	798	0	10000	2	1	0	2	0
111	799	0	10000	2	1	0	2	0
108	800	0	10000	2	1	0	2	0
106	801	0	10000	2	1	0	2	0
104	802	0	10000	2	1	0	2	0
104	803	0	10000	2	1	0	2	0
99	804	0	10000	2	1	0	2	0
103	805	0	10000	2	1	0	2	0
109	806	0	10000	2	1	0	2	0
115	807	0	10000	2	1	0	2	0
114	808	0	10000	2	1	0	2	0
110	809	0	10000	2	1	0	2	0
107	810	0	10000	2	1	0	2	0
103	811	0	10000	2	1	0	2	0
100	812	0	10000	2	1	0	2	0
101	813	0	10000	2	1	0	2	0
104	814	0	10000	2	1	0	2	0
101	815	0	10000	2	1	0	2	0
98	816	0	10000	2	1	0	2	0
95	817	0	10000	2	1	0	2	0
92	818	0	10000	2	1	0	2	0
92	819	0	10000	2	1	0	2	0
95	820	0	10000	2	1	0	2	0
97	821	0	10000	2	1	0	2	0
101	822	0	10000	2	1	0	2	0
113	823	0	10000	2	1	0	2	0
119	824	0	10000	2	1	0	2	0
119	825	0	10000	2	1	0	2	0
116	826	0	10000	2	1	0	2	0
117	827	0	10000	2	1	0	2	0
116	828	0	10000	2	1	0	2	0
114	829	0	10000	2	1	0	2	0
110	830	0	10000	2	1	0	2	0
105	831	0	10000	2	1	0	2	0
101	832	0	10000	2	1	0	2	0
99	833	0	10000	2	1	0	2	0
95	834	0	10000	2	1	0	2	0
92	835	0	10000	2	1	0	2	0
99	836	0	10000	2	1	0	2	0
105	837	0	10000	2	1	0	2	0
105	838	0	10000	2	1	0	2	0
102	839	0	10000	2	1	0	2	0
102	840	0	10000	2	1	0	2	0
107	841	0	10000	2	1	0	2	0
111	842	0	10000	2	1	0	2	0
113	843	0	10000	2	1	0	2	0
110	844	0	10000	2	1	0	2	0
111	845	0	10000	2	1	0	2	0
114	846	0	10000	2	1	0	2	0
111	847	0	10000	2	1	0	2	0
109	848	0	10000	2	1	0	2	0
113	849	0	10000	2	1	0	2	0
116	850	0	10000	2	1	0	2	0
116	851	0	10000	2	1	0	2	0
115	852	0	10000	2	1	0	2	0
112	853	0	10000	2	1	0	2	0
112	854	0	10000	2	1	0	2	0
117	855	0	10000	2	1	0	2	0
126	856	0	10000	2	1	0	2	0
127	857	0	10000	2	1	0	2	0
124	858	0	10000	2	1	0	2	0
124	859	0	10000	2	1	0	2	0
125	860	0	10000	2	1	0	2	0
124	861	0	10000	2	1	0	2	0
121	862	0	10000	2	1	0	2	0
116	863	0	10000	2	1	0	2	0
111	864	0	10000	2	1	0	2	0
109	865	0	10000	2	1	0	2	0
108	866	0	10000	2	1	0	2	0
104	867	0	10000	2	1	0	2	0
102	868	0	10000	2	1	0	2	0
107	869	0	10000	2	1	0	2	0
112	870	0	10000	2	1	0	2	0
111	871	0	10000	2	1	0	2	0
107	872	0	10000	2	1	0	2	0
105	873	0	10000	2	1	0	2	0
104	874	0	10000	2	1	0	2	0
101	875	0	10000	2	1	0	2	0
98	876	0	10000	2	1	0	2	0
95	877	0	10000	2	1	0	2	0
95	878	0	10000	2	1	0	2	0
93	879	0	10000	2	1	0	2	0
95	880	0	10000	2	1	0	2	0
108	881	0	10000	2	1	0	2	0
123	882	0	10000	2	1	0	2	0
124	883	0	10000	2	1	0	2	0
128	884	0	10000	2	1	0	2	0
138	885	0	10000	2	1	0	2	0
150	886	0	10000	2	1	0	2	0
162	887	0	10000	2	1	0	2	0
168	888	0	10000	2	1	0	2	0
171	889	0	10000	2	1	0	2	0
169	890	0	10000	2	1	0	2	0
165	891	0	10000	2	1	0	2	0
166	892	0	10000	2	1	0	2	0
163	893	0	10000	2	1	0	2	0
159	894	0	10000	2	1	0	2	0
157	895	0	10000	2	1	0	2	0
154	896	0	10000	2	1	0	2	0
148	897	0	10000	2	1	0	2	0
144	898	0	10000	2	1	0	2	0
142	899	0	10000	2	1	0	2	0
140	900	0	10000	2	1	0	2	0
137	901	0	10000	2	1	0	2	0
130	902	0	10000	2	1	0	2	0
126	903	0	10000	2	1	0	2	0
125	904	0	10000	2	1	0	2	0
125	905	0	10000	2	1	0	2	0
125	906	0	10000	2	1	0	2	0
124	907	0	10000	2	1	0	2	0
123	908	0	10000	2	1	0	2	0
124	909	0	10000	2	1	0	2	0
122	910	0	10000	2	1	0	2	0
122	911	0	10000	2	1	0	2	0
123	912	0	10000	2	1	0	2	0
118	913	0	10000	2	1	0	2	0
116	914	0	10000	2	1	0	2	0
112	915	0	10000	2	1	0	2	0
107	916	0	10000	2	1	0	2	0
106	917	0	10000	2	1	0	2	0
107	918	0	10000	2	1	0	2	0
103	919	0	10000	2	1	0	2	0
102	920	0	10000	2	1	0	2	0
100	921	0	10000	2	1	0	2	0
96	922	0	10000	2	1	0	2	0
93	923	0	10000	2	1	0	2	0
95	924	0	10000	2	1	0	2	0
98	925	0	10000	2	1	0	2	0
95	926	0	10000	2	1	0	2	0
94	927	0	10000	2	1	0	2	0
97	928	0	10000	2	1	0	2	0
100	929	0	10000	2	1	0	2	0
98	930	0	10000	2	1	0	2	0
94	931	0	10000	2	1	0	2	0
92	932	0	10000	2	1	0	2	0
88	933	0	10000	2	1	0	2	0
85	934	0	10000	2	1	0	2	0
82	935	0	10000	2	1	0	2	0
80	936	0	10000	2	1	0	2	0
77	937	0	10000	2	1	0	2	0
76	938	0	10000	2	1	0	2	0
76	939	0	10000	2	1	0	2	0
74	940	0	10000	2	1	0	2	0
71	941	0	10000	2	1	0	2	0
68	942	0	10000	2	1	0	2	0
64	943	0	10000	2	1	0	2	0
62	944	0	10000	2	1	0	2	0
65	945	0	10000	2	1	0	2	0
68	946	0	10000	2	1	0	2	0
67	947	0	10000	2	1	0	2	0
66	948	0	10000	2	1	0	2	0
63	949	0	10000	2	1	0	2	0
61	950	0	10000	2	1	0	2	0
62	951	0	10000	2	1	0	2	0
66	952	0	10000	2	1	0	2	0
71	953	0	10000	2	1	0	2	0
75	954	0	10000	2	1	0	2	0
73	955	0	10000	2	1	0	2	0
71	956	0	10000	2	1	0	2	0
71	957	0	10000	2	1	0	2	0
75	958	0	10000	2	1	0	2	0
75	959	0	10000	2	1	0	2	0
76	960	0	10000	2	1	0	2	0
77	961	0	10000	2	1	0	2	0
74	962	0	10000	2	1	0	2	0
77	963	0	10000	2	1	0	2	0
76	964	0	10000	2	1	0	2	0
76	965	0	10000	2	1	0	2	0
79	966	0	10000	2	1	0	2	0
86	967	0	10000	2	1	0	2	0
85	968	0	10000	2	1	0	2	0
84	969	0	10000	2	1	0	2	0
83	970	0	10000	2	1	0	2	0
93	971	0	10000	2	1	0	2	0
111	972	0	10000	2	1	0	2	0
114	973	0	10000	2	1	0	2	0
114	974	0	10000	2	1	0	2	0
116	975	0	10000	2	1	0	2	0
128	976	0	10000	2	1	0	2	0
133	977	0	10000	2	1	0	2	0
144	978	0	10000	2	1	0	2	0
152	979	0	10000	2	1	0	2	0
157	980	0	10000	2	1	0	2	0
157	981	0	10000	2	1	0	2	0
169	982	0	10000	2	1	0	2	0
193	983	0	10000	2	1	0	2	0
197	984	0	10000	2	1	0	2	0
195	985	0	10000	2	1	0	2	0
192	986	0	10000	2	1	0	2	0
187	987	0	10000	2	1	0	2	0
187	988	0	10000	2	1	0	2	0
187	989	0	10000	2	1	0	2	0
179	990	0	10000	2	1	0	2	0
172	991	0	10000	2	1	0	2	0
167	992	0	10000	2	1	0	2	0
174	993	0	10000	2	1	0	2	0
197	994	0	10000	2	1	0	2	0
206	995	0	10000	2	1	0	2	0
203	996	0	10000	2	1	0	2	0
213	997	0	10000	2	1	0	2	0
216	998	0	10000	2	1	0	2	0
213	999	0	10000	2	1	0	2	0
206	1000	0	10000	2	1	0	2	0
28	2	7	10000	3	1	0	3	0
27	3	7	10000	3	1	0	3	0
26	4	7	10000	3	1	0	3	0
26	5	7	10000	3	1	0	3	0
30	6	7	10000	3	1	0	3	0
36	7	7	10000	3	1	0	3	0
42	8	7	10000	3	1	0	3	0
41	9	7	10000	3	1	0	3	0
41	10	7	10000	3	1	0	3	0
40	11	7	10000	3	1	0	3	0
39	12	7	10000	3	1	0	3	0
40	13	7	10000	3	1	0	3	0
42	14	7	10000	3	1	0	3	0
43	15	7	10000	3	1	0	3	0
44	16	7	10000	3	1	0	3	0
44	17	7	10000	3	1	0	3	0
44	18	7	10000	3	1	0	3	0
43	19	7	10000	3	1	0	3	0
44	20	7	10000	3	1	0	3	0
45	21	7	10000	3	1	0	3	0
43	22	7	10000	3	1	0	3	0
42	23	7	10000	3	1	0	3	0
41	24	7	10000	3	1	0	3	0
41	25	7	10000	3	1	0	3	0
38	26	7	10000	3	1	0	3	0
38	27	7	10000	3	1	0	3	0
37	28	7	10000	3	1	0	3	0
36	29	7	10000	3	1	0	3	0
34	30	7	10000	3	1	0	3	0
32	31	7	10000	3	1	0	3	0
32	32	7	10000	3	1	0	3	0
33	33	7	10000	3	1	0	3	0
34	34	7	10000	3	1	0	3	0
32	35	7	10000	3	1	0	3	0
32	36	7	10000	3	1	0	3	0
34	37	7	10000	3	1	0	3	0
39	38	7	10000	3	1	0	3	0
47	39	7	10000	3	1	0	3	0
54	40	7	10000	3	1	0	3	0
64	41	7	10000	3	1	0	3	0
72	42	7	10000	3	1	0	3	0
76	43	7	10000	3	1	0	3	0
76	44	7	10000	3	1	0	3	0
82	45	7	10000	3	1	0	3	0
87	46	7	10000	3	1	0	3	0
91	47	7	10000	3	1	0	3	0
91	48	7	10000	3	1	0	3	0
92	49	7	10000	3	1	0	3	0
96	50	7	10000	3	1	0	3	0
95	51	7	10000	3	1	0	3	0
94	52	7	10000	3	1	0	3	0
93	53	7	10000	3	1	0	3	0
92	54	7	10000	3	1	0	3	0
88	55	7	10000	3	1	0	3	0
86	56	7	10000	3	1	0	3	0
88	57	7	10000	3	1	0	3	0
92	58	7	10000	3	1	0	3	0
96	59	7	10000	3	1	0	3	0
100	60	7	10000	3	1	0	3	0
106	61	7	10000	3	1	0	3	0
109	62	7	10000	3	1	0	3	0
112	63	7	10000	3	1	0	3	0
109	64	7	10000	3	1	0	3	0
105	65	7	10000	3	1	0	3	0
101	66	7	10000	3	1	0	3	0
102	67	7	10000	3	1	0	3	0
107	68	7	10000	3	1	0	3	0
114	69	7	10000	3	1	0	3	0
116	70	7	10000	3	1	0	3	0
114	71	7	10000	3	1	0	3	0
110	72	7	10000	3	1	0	3	0
107	73	7	10000	3	1	0	3	0
103	74	7	10000	3	1	0	3	0
104	75	7	10000	3	1	0	3	0
108	76	7	10000	3	1	0	3	0
113	77	7	10000	3	1	0	3	0
117	78	7	10000	3	1	0	3	0
117	79	7	10000	3	1	0	3	0
114	80	7	10000	3	1	0	3	0
112	81	7	10000	3	1	0	3	0
113	82	7	10000	3	1	0	3	0
114	83	7	10000	3	1	0	3	0
110	84	7	10000	3	1	0	3	0
105	85	7	10000	3	1	0	3	0
101	86	7	10000	3	1	0	3	0
96	87	7	10000	3	1	0	3	0
94	88	7	10000	3	1	0	3	0
91	89	7	10000	3	1	0	3	0
87	90	7	10000	3	1	0	3	0
83	91	7	10000	3	1	0	3	0
82	92	7	10000	3	1	0	3	0
78	93	7	10000	3	1	0	3	0
78	94	7	10000	3	1	0	3	0
77	95	7	10000	3	1	0	3	0
75	96	7	10000	3	1	0	3	0
72	97	7	10000	3	1	0	3	0
72	98	7	10000	3	1	0	3	0
72	99	7	10000	3	1	0	3	0
73	100	7	10000	3	1	0	3	0
73	101	7	10000	3	1	0	3	0
72	102	7	10000	3	1	0	3	0
74	103	7	10000	3	1	0	3	0
77	104	7	10000	3	1	0	3	0
77	105	7	10000	3	1	0	3	0
77	106	7	10000	3	1	0	3	0
74	107	7	10000	3	1	0	3	0
73	108	7	10000	3	1	0	3	0
71	109	7	10000	3	1	0	3	0
69	110	7	10000	3	1	0	3	0
66	111	7	10000	3	1	0	3	0
65	112	7	10000	3	1	0	3	0
62	113	7	10000	3	1	0	3	0
62	114	7	10000	3	1	0	3	0
63	115	7	10000	3	1	0	3	0
64	116	7	10000	3	1	0	3	0
65	117	7	10000	3	1	0	3	0
62	118	7	10000	3	1	0	3	0
62	119	7	10000	3	1	0	3	0
64	120	7	10000	3	1	0	3	0
67	121	7	10000	3	1	0	3	0
69	122	7	10000	3	1	0	3	0
72	123	7	10000	3	1	0	3	0
75	124	7	10000	3	1	0	3	0
76	125	7	10000	3	1	0	3	0
78	126	7	10000	3	1	0	3	0
77	127	7	10000	3	1	0	3	0
74	128	7	10000	3	1	0	3	0
73	129	7	10000	3	1	0	3	0
69	130	7	10000	3	1	0	3	0
67	131	7	10000	3	1	0	3	0
71	132	7	10000	3	1	0	3	0
77	133	7	10000	3	1	0	3	0
82	134	7	10000	3	1	0	3	0
84	135	7	10000	3	1	0	3	0
86	136	7	10000	3	1	0	3	0
86	137	7	10000	3	1	0	3	0
85	138	7	10000	3	1	0	3	0
85	139	7	10000	3	1	0	3	0
88	140	7	10000	3	1	0	3	0
90	141	7	10000	3	1	0	3	0
87	142	7	10000	3	1	0	3	0
86	143	7	10000	3	1	0	3	0
85	144	7	10000	3	1	0	3	0
84	145	7	10000	3	1	0	3	0
83	146	7	10000	3	1	0	3	0
80	147	7	10000	3	1	0	3	0
77	148	7	10000	3	1	0	3	0
73	149	7	10000	3	1	0	3	0
73	150	7	10000	3	1	0	3	0
77	151	7	10000	3	1	0	3	0
79	152	7	10000	3	1	0	3	0
77	153	7	10000	3	1	0	3	0
81	154	7	10000	3	1	0	3	0
86	155	7	10000	3	1	0	3	0
91	156	7	10000	3	1	0	3	0
92	157	7	10000	3	1	0	3	0
91	158	7	10000	3	1	0	3	0
92	159	7	10000	3	1	0	3	0
91	160	7	10000	3	1	0	3	0
90	161	7	10000	3	1	0	3	0
89	162	7	10000	3	1	0	3	0
84	163	7	10000	3	1	0	3	0
80	164	7	10000	3	1	0	3	0
77	165	7	10000	3	1	0	3	0
74	166	7	10000	3	1	0	3	0
72	167	7	10000	3	1	0	3	0
71	168	7	10000	3	1	0	3	0
72	169	7	10000	3	1	0	3	0
72	170	7	10000	3	1	0	3	0
67	171	7	10000	3	1	0	3	0
65	172	7	10000	3	1	0	3	0
63	173	7	10000	3	1	0	3	0
60	174	7	10000	3	1	0	3	0
58	175	7	10000	3	1	0	3	0
57	176	7	10000	3	1	0	3	0
56	177	7	10000	3	1	0	3	0
57	178	7	10000	3	1	0	3	0
59	179	7	10000	3	1	0	3	0
60	180	7	10000	3	1	0	3	0
62	181	7	10000	3	1	0	3	0
61	182	7	10000	3	1	0	3	0
59	183	7	10000	3	1	0	3	0
58	184	7	10000	3	1	0	3	0
56	185	7	10000	3	1	0	3	0
54	186	7	10000	3	1	0	3	0
54	187	7	10000	3	1	0	3	0
54	188	7	10000	3	1	0	3	0
54	189	7	10000	3	1	0	3	0
54	190	7	10000	3	1	0	3	0
53	191	7	10000	3	1	0	3	0
53	192	7	10000	3	1	0	3	0
51	193	7	10000	3	1	0	3	0
51	194	7	10000	3	1	0	3	0
53	195	7	10000	3	1	0	3	0
51	196	7	10000	3	1	0	3	0
51	197	7	10000	3	1	0	3	0
52	198	7	10000	3	1	0	3	0
50	199	7	10000	3	1	0	3	0
49	200	7	10000	3	1	0	3	0
50	201	7	10000	3	1	0	3	0
48	202	7	10000	3	1	0	3	0
47	203	7	10000	3	1	0	3	0
48	204	7	10000	3	1	0	3	0
47	205	7	10000	3	1	0	3	0
46	206	7	10000	3	1	0	3	0
44	207	7	10000	3	1	0	3	0
44	208	7	10000	3	1	0	3	0
43	209	7	10000	3	1	0	3	0
43	210	7	10000	3	1	0	3	0
43	211	7	10000	3	1	0	3	0
44	212	7	10000	3	1	0	3	0
44	213	7	10000	3	1	0	3	0
44	214	7	10000	3	1	0	3	0
44	215	7	10000	3	1	0	3	0
42	216	7	10000	3	1	0	3	0
43	217	7	10000	3	1	0	3	0
46	218	7	10000	3	1	0	3	0
50	219	7	10000	3	1	0	3	0
52	220	7	10000	3	1	0	3	0
52	221	7	10000	3	1	0	3	0
50	222	7	10000	3	1	0	3	0
48	223	7	10000	3	1	0	3	0
46	224	7	10000	3	1	0	3	0
44	225	7	10000	3	1	0	3	0
42	226	7	10000	3	1	0	3	0
41	227	7	10000	3	1	0	3	0
40	228	7	10000	3	1	0	3	0
40	229	7	10000	3	1	0	3	0
38	230	7	10000	3	1	0	3	0
38	231	7	10000	3	1	0	3	0
38	232	7	10000	3	1	0	3	0
38	233	7	10000	3	1	0	3	0
42	234	7	10000	3	1	0	3	0
46	235	7	10000	3	1	0	3	0
49	236	7	10000	3	1	0	3	0
49	237	7	10000	3	1	0	3	0
46	238	7	10000	3	1	0	3	0
44	239	7	10000	3	1	0	3	0
44	240	7	10000	3	1	0	3	0
45	241	7	10000	3	1	0	3	0
49	242	7	10000	3	1	0	3	0
53	243	7	10000	3	1	0	3	0
51	244	7	10000	3	1	0	3	0
49	245	7	10000	3	1	0	3	0
48	246	7	10000	3	1	0	3	0
45	247	7	10000	3	1	0	3	0
48	248	7	10000	3	1	0	3	0
54	249	7	10000	3	1	0	3	0
57	250	7	10000	3	1	0	3	0
57	251	7	10000	3	1	0	3	0
57	252	7	10000	3	1	0	3	0
57	253	7	10000	3	1	0	3	0
57	254	7	10000	3	1	0	3	0
55	255	7	10000	3	1	0	3	0
54	256	7	10000	3	1	0	3	0
55	257	7	10000	3	1	0	3	0
55	258	7	10000	3	1	0	3	0
55	259	7	10000	3	1	0	3	0
57	260	7	10000	3	1	0	3	0
59	261	7	10000	3	1	0	3	0
56	262	7	10000	3	1	0	3	0
54	263	7	10000	3	1	0	3	0
53	264	7	10000	3	1	0	3	0
50	265	7	10000	3	1	0	3	0
48	266	7	10000	3	1	0	3	0
46	267	7	10000	3	1	0	3	0
45	268	7	10000	3	1	0	3	0
45	269	7	10000	3	1	0	3	0
43	270	7	10000	3	1	0	3	0
41	271	7	10000	3	1	0	3	0
40	272	7	10000	3	1	0	3	0
38	273	7	10000	3	1	0	3	0
38	274	7	10000	3	1	0	3	0
42	275	7	10000	3	1	0	3	0
43	276	7	10000	3	1	0	3	0
42	277	7	10000	3	1	0	3	0
40	278	7	10000	3	1	0	3	0
38	279	7	10000	3	1	0	3	0
37	280	7	10000	3	1	0	3	0
38	281	7	10000	3	1	0	3	0
37	282	7	10000	3	1	0	3	0
38	283	7	10000	3	1	0	3	0
39	284	7	10000	3	1	0	3	0
39	285	7	10000	3	1	0	3	0
40	286	7	10000	3	1	0	3	0
40	287	7	10000	3	1	0	3	0
40	288	7	10000	3	1	0	3	0
39	289	7	10000	3	1	0	3	0
38	290	7	10000	3	1	0	3	0
37	291	7	10000	3	1	0	3	0
37	292	7	10000	3	1	0	3	0
36	293	7	10000	3	1	0	3	0
35	294	7	10000	3	1	0	3	0
33	295	7	10000	3	1	0	3	0
32	296	7	10000	3	1	0	3	0
32	297	7	10000	3	1	0	3	0
30	298	7	10000	3	1	0	3	0
29	299	7	10000	3	1	0	3	0
28	300	7	10000	3	1	0	3	0
28	301	7	10000	3	1	0	3	0
27	302	7	10000	3	1	0	3	0
26	303	7	10000	3	1	0	3	0
25	304	7	10000	3	1	0	3	0
25	305	7	10000	3	1	0	3	0
25	306	7	10000	3	1	0	3	0
23	307	7	10000	3	1	0	3	0
23	308	7	10000	3	1	0	3	0
23	309	7	10000	3	1	0	3	0
23	310	7	10000	3	1	0	3	0
21	311	7	10000	3	1	0	3	0
23	312	7	10000	3	1	0	3	0
29	313	7	10000	3	1	0	3	0
33	314	7	10000	3	1	0	3	0
32	315	7	10000	3	1	0	3	0
34	316	7	10000	3	1	0	3	0
37	317	7	10000	3	1	0	3	0
38	318	7	10000	3	1	0	3	0
39	319	7	10000	3	1	0	3	0
41	320	7	10000	3	1	0	3	0
42	321	7	10000	3	1	0	3	0
41	322	7	10000	3	1	0	3	0
42	323	7	10000	3	1	0	3	0
41	324	7	10000	3	1	0	3	0
40	325	7	10000	3	1	0	3	0
40	326	7	10000	3	1	0	3	0
39	327	7	10000	3	1	0	3	0
39	328	7	10000	3	1	0	3	0
41	329	7	10000	3	1	0	3	0
43	330	7	10000	3	1	0	3	0
41	331	7	10000	3	1	0	3	0
40	332	7	10000	3	1	0	3	0
39	333	7	10000	3	1	0	3	0
38	334	7	10000	3	1	0	3	0
37	335	7	10000	3	1	0	3	0
36	336	7	10000	3	1	0	3	0
36	337	7	10000	3	1	0	3	0
35	338	7	10000	3	1	0	3	0
35	339	7	10000	3	1	0	3	0
34	340	7	10000	3	1	0	3	0
36	341	7	10000	3	1	0	3	0
34	342	7	10000	3	1	0	3	0
32	343	7	10000	3	1	0	3	0
32	344	7	10000	3	1	0	3	0
32	345	7	10000	3	1	0	3	0
33	346	7	10000	3	1	0	3	0
33	347	7	10000	3	1	0	3	0
33	348	7	10000	3	1	0	3	0
32	349	7	10000	3	1	0	3	0
31	350	7	10000	3	1	0	3	0
29	351	7	10000	3	1	0	3	0
30	352	7	10000	3	1	0	3	0
29	353	7	10000	3	1	0	3	0
28	354	7	10000	3	1	0	3	0
30	355	7	10000	3	1	0	3	0
33	356	7	10000	3	1	0	3	0
37	357	7	10000	3	1	0	3	0
37	358	7	10000	3	1	0	3	0
39	359	7	10000	3	1	0	3	0
41	360	7	10000	3	1	0	3	0
43	361	7	10000	3	1	0	3	0
42	362	7	10000	3	1	0	3	0
43	363	7	10000	3	1	0	3	0
43	364	7	10000	3	1	0	3	0
41	365	7	10000	3	1	0	3	0
40	366	7	10000	3	1	0	3	0
37	367	7	10000	3	1	0	3	0
39	368	7	10000	3	1	0	3	0
40	369	7	10000	3	1	0	3	0
37	370	7	10000	3	1	0	3	0
35	371	7	10000	3	1	0	3	0
34	372	7	10000	3	1	0	3	0
35	373	7	10000	3	1	0	3	0
36	374	7	10000	3	1	0	3	0
37	375	7	10000	3	1	0	3	0
36	376	7	10000	3	1	0	3	0
36	377	7	10000	3	1	0	3	0
34	378	7	10000	3	1	0	3	0
32	379	7	10000	3	1	0	3	0
33	380	7	10000	3	1	0	3	0
35	381	7	10000	3	1	0	3	0
36	382	7	10000	3	1	0	3	0
38	383	7	10000	3	1	0	3	0
38	384	7	10000	3	1	0	3	0
36	385	7	10000	3	1	0	3	0
36	386	7	10000	3	1	0	3	0
36	387	7	10000	3	1	0	3	0
38	388	7	10000	3	1	0	3	0
38	389	7	10000	3	1	0	3	0
38	390	7	10000	3	1	0	3	0
36	391	7	10000	3	1	0	3	0
35	392	7	10000	3	1	0	3	0
35	393	7	10000	3	1	0	3	0
37	394	7	10000	3	1	0	3	0
36	395	7	10000	3	1	0	3	0
36	396	7	10000	3	1	0	3	0
37	397	7	10000	3	1	0	3	0
36	398	7	10000	3	1	0	3	0
36	399	7	10000	3	1	0	3	0
36	400	7	10000	3	1	0	3	0
38	401	7	10000	3	1	0	3	0
37	402	7	10000	3	1	0	3	0
37	403	7	10000	3	1	0	3	0
37	404	7	10000	3	1	0	3	0
36	405	7	10000	3	1	0	3	0
36	406	7	10000	3	1	0	3	0
34	407	7	10000	3	1	0	3	0
35	408	7	10000	3	1	0	3	0
34	409	7	10000	3	1	0	3	0
34	410	7	10000	3	1	0	3	0
34	411	7	10000	3	1	0	3	0
35	412	7	10000	3	1	0	3	0
34	413	7	10000	3	1	0	3	0
34	414	7	10000	3	1	0	3	0
33	415	7	10000	3	1	0	3	0
32	416	7	10000	3	1	0	3	0
32	417	7	10000	3	1	0	3	0
34	418	7	10000	3	1	0	3	0
37	419	7	10000	3	1	0	3	0
39	420	7	10000	3	1	0	3	0
42	421	7	10000	3	1	0	3	0
42	422	7	10000	3	1	0	3	0
42	423	7	10000	3	1	0	3	0
42	424	7	10000	3	1	0	3	0
43	425	7	10000	3	1	0	3	0
41	426	7	10000	3	1	0	3	0
39	427	7	10000	3	1	0	3	0
39	428	7	10000	3	1	0	3	0
39	429	7	10000	3	1	0	3	0
38	430	7	10000	3	1	0	3	0
36	431	7	10000	3	1	0	3	0
37	432	7	10000	3	1	0	3	0
39	433	7	10000	3	1	0	3	0
39	434	7	10000	3	1	0	3	0
38	435	7	10000	3	1	0	3	0
37	436	7	10000	3	1	0	3	0
36	437	7	10000	3	1	0	3	0
34	438	7	10000	3	1	0	3	0
33	439	7	10000	3	1	0	3	0
33	440	7	10000	3	1	0	3	0
36	441	7	10000	3	1	0	3	0
37	442	7	10000	3	1	0	3	0
35	443	7	10000	3	1	0	3	0
34	444	7	10000	3	1	0	3	0
32	445	7	10000	3	1	0	3	0
32	446	7	10000	3	1	0	3	0
31	447	7	10000	3	1	0	3	0
30	448	7	10000	3	1	0	3	0
30	449	7	10000	3	1	0	3	0
30	450	7	10000	3	1	0	3	0
27	451	7	10000	3	1	0	3	0
26	452	7	10000	3	1	0	3	0
26	453	7	10000	3	1	0	3	0
27	454	7	10000	3	1	0	3	0
27	455	7	10000	3	1	0	3	0
28	456	7	10000	3	1	0	3	0
27	457	7	10000	3	1	0	3	0
30	458	7	10000	3	1	0	3	0
35	459	7	10000	3	1	0	3	0
38	460	7	10000	3	1	0	3	0
44	461	7	10000	3	1	0	3	0
48	462	7	10000	3	1	0	3	0
52	463	7	10000	3	1	0	3	0
55	464	7	10000	3	1	0	3	0
59	465	7	10000	3	1	0	3	0
64	466	7	10000	3	1	0	3	0
66	467	7	10000	3	1	0	3	0
68	468	7	10000	3	1	0	3	0
70	469	7	10000	3	1	0	3	0
73	470	7	10000	3	1	0	3	0
70	471	7	10000	3	1	0	3	0
71	472	7	10000	3	1	0	3	0
72	473	7	10000	3	1	0	3	0
73	474	7	10000	3	1	0	3	0
75	475	7	10000	3	1	0	3	0
74	476	7	10000	3	1	0	3	0
73	477	7	10000	3	1	0	3	0
73	478	7	10000	3	1	0	3	0
72	479	7	10000	3	1	0	3	0
72	480	7	10000	3	1	0	3	0
73	481	7	10000	3	1	0	3	0
71	482	7	10000	3	1	0	3	0
70	483	7	10000	3	1	0	3	0
72	484	7	10000	3	1	0	3	0
73	485	7	10000	3	1	0	3	0
74	486	7	10000	3	1	0	3	0
73	487	7	10000	3	1	0	3	0
70	488	7	10000	3	1	0	3	0
70	489	7	10000	3	1	0	3	0
69	490	7	10000	3	1	0	3	0
66	491	7	10000	3	1	0	3	0
65	492	7	10000	3	1	0	3	0
62	493	7	10000	3	1	0	3	0
59	494	7	10000	3	1	0	3	0
59	495	7	10000	3	1	0	3	0
59	496	7	10000	3	1	0	3	0
57	497	7	10000	3	1	0	3	0
56	498	7	10000	3	1	0	3	0
55	499	7	10000	3	1	0	3	0
53	500	7	10000	3	1	0	3	0
55	501	7	10000	3	1	0	3	0
56	502	7	10000	3	1	0	3	1
61	503	7	10000	3	1	0	3	1
64	504	7	10000	3	1	0	3	1
69	505	7	10000	3	1	0	3	1
73	506	7	10000	3	1	0	3	1
74	507	7	10000	3	1	0	3	1
75	508	7	10000	3	1	0	3	1
75	509	7	10000	3	1	0	3	1
75	510	7	10000	3	1	0	3	1
73	511	7	10000	3	1	0	3	1
74	512	7	10000	3	1	0	3	1
77	513	7	10000	3	1	0	3	1
80	514	7	10000	3	1	0	3	1
83	515	7	10000	3	1	0	3	1
86	516	7	10000	3	1	0	3	1
91	517	7	10000	3	1	0	3	1
90	518	7	10000	3	1	0	3	1
87	519	7	10000	3	1	0	3	1
85	520	7	10000	3	1	0	3	1
86	521	7	10000	3	1	0	3	1
84	522	7	10000	3	1	0	3	1
84	523	7	10000	3	1	0	3	1
85	524	7	10000	3	1	0	3	1
87	525	7	10000	3	1	0	3	1
89	526	7	10000	3	1	0	3	1
90	527	7	10000	3	1	0	3	1
91	528	7	10000	3	1	0	3	1
91	529	7	10000	3	1	0	3	1
90	530	7	10000	3	1	0	3	1
87	531	7	10000	3	1	0	3	1
85	532	7	10000	3	1	0	3	1
83	533	7	10000	3	1	0	3	1
81	534	7	10000	3	1	0	3	1
79	535	7	10000	3	1	0	3	1
77	536	7	10000	3	1	0	3	1
77	537	7	10000	3	1	0	3	1
79	538	7	10000	3	1	0	3	1
80	539	7	10000	3	1	0	3	1
80	540	7	10000	3	1	0	3	1
79	541	7	10000	3	1	0	3	1
75	542	7	10000	3	1	0	3	1
71	543	7	10000	3	1	0	3	1
68	544	7	10000	3	1	0	3	1
68	545	7	10000	3	1	0	3	1
65	546	7	10000	3	1	0	3	1
63	547	7	10000	3	1	0	3	1
63	548	7	10000	3	1	0	3	1
61	549	7	10000	3	1	0	3	1
59	550	7	10000	3	1	0	3	1
56	551	7	10000	3	1	0	3	1
54	552	7	10000	3	1	0	3	0
52	553	7	10000	3	1	0	3	0
50	554	7	10000	3	1	0	3	0
48	555	7	10000	3	1	0	3	0
47	556	7	10000	3	1	0	3	0
49	557	7	10000	3	1	0	3	0
49	558	7	10000	3	1	0	3	0
51	559	7	10000	3	1	0	3	0
51	560	7	10000	3	1	0	3	0
53	561	7	10000	3	1	0	3	0
50	562	7	10000	3	1	0	3	0
51	563	7	10000	3	1	0	3	0
52	564	7	10000	3	1	0	3	0
52	565	7	10000	3	1	0	3	0
50	566	7	10000	3	1	0	3	0
48	567	7	10000	3	1	0	3	0
47	568	7	10000	3	1	0	3	0
46	569	7	10000	3	1	0	3	0
46	570	7	10000	3	1	0	3	0
44	571	7	10000	3	1	0	3	0
43	572	7	10000	3	1	0	3	0
43	573	7	10000	3	1	0	3	0
42	574	7	10000	3	1	0	3	0
41	575	7	10000	3	1	0	3	0
39	576	7	10000	3	1	0	3	0
39	577	7	10000	3	1	0	3	0
37	578	7	10000	3	1	0	3	0
39	579	7	10000	3	1	0	3	0
40	580	7	10000	3	1	0	3	0
41	581	7	10000	3	1	0	3	0
42	582	7	10000	3	1	0	3	0
41	583	7	10000	3	1	0	3	0
41	584	7	10000	3	1	0	3	0
47	585	7	10000	3	1	0	3	0
56	586	7	10000	3	1	0	3	0
58	587	7	10000	3	1	0	3	0
59	588	7	10000	3	1	0	3	0
80	589	7	10000	3	1	0	3	0
100	590	7	10000	3	1	0	3	0
139	591	7	10000	3	1	0	3	0
196	592	7	10000	3	1	0	3	0
252	593	7	10000	3	1	0	3	0
248	594	7	10000	3	1	0	3	0
272	595	7	10000	3	1	0	3	0
292	596	7	10000	3	1	0	3	0
297	597	7	10000	3	1	0	3	0
337	598	7	10000	3	1	0	3	0
368	599	7	10000	3	1	0	3	0
355	600	7	10000	3	1	0	3	0
352	601	7	10000	3	1	0	3	0
345	602	7	10000	3	1	0	3	0
349	603	7	10000	3	1	0	3	0
371	604	7	10000	3	1	0	3	0
424	605	7	10000	3	1	0	3	0
451	606	7	10000	3	1	0	3	0
534	607	7	10000	3	1	0	3	0
560	608	7	10000	3	1	0	3	0
559	609	7	10000	3	1	0	3	0
617	610	7	10000	3	1	0	3	0
719	611	7	10000	3	1	0	3	0
747	612	7	10000	3	1	0	3	0
829	613	7	10000	3	1	0	3	0
836	614	7	10000	3	1	0	3	0
964	615	7	10000	3	1	0	3	0
1056	616	7	10000	3	1	0	3	0
1047	617	7	10000	3	1	0	3	0
1020	618	7	10000	3	1	0	3	0
997	619	7	10000	3	1	0	3	0
1043	620	7	10000	3	1	0	3	0
1134	621	7	10000	3	1	0	3	0
1122	622	7	10000	3	1	0	3	0
1127	623	7	10000	3	1	0	3	0
1133	624	7	10000	3	1	0	3	0
1130	625	7	10000	3	1	0	3	0
1119	626	7	10000	3	1	0	3	0
1103	627	7	10000	3	1	0	3	0
1084	628	7	10000	3	1	0	3	0
1062	629	7	10000	3	1	0	3	0
1041	630	7	10000	3	1	0	3	0
1021	631	7	10000	3	1	0	3	0
1001	632	7	10000	3	1	0	3	0
979	633	7	10000	3	1	0	3	0
963	634	7	10000	3	1	0	3	0
993	635	7	10000	3	1	0	3	0
997	636	7	10000	3	1	0	3	0
964	637	7	10000	3	1	0	3	0
1010	638	7	10000	3	1	0	3	0
1052	639	7	10000	3	1	0	3	0
1069	640	7	10000	3	1	0	3	0
1060	641	7	10000	3	1	0	3	0
1035	642	7	10000	3	1	0	3	0
1013	643	7	10000	3	1	0	3	0
993	644	7	10000	3	1	0	3	0
963	645	7	10000	3	1	0	3	0
927	646	7	10000	3	1	0	3	0
908	647	7	10000	3	1	0	3	0
975	648	7	10000	3	1	0	3	0
1000	649	7	10000	3	1	0	3	0
990	650	7	10000	3	1	0	3	0
981	651	7	10000	3	1	0	3	0
960	652	7	10000	3	1	0	3	0
961	653	7	10000	3	1	0	3	0
950	654	7	10000	3	1	0	3	0
923	655	7	10000	3	1	0	3	0
887	656	7	10000	3	1	0	3	0
852	657	7	10000	3	1	0	3	0
817	658	7	10000	3	1	0	3	0
783	659	7	10000	3	1	0	3	0
752	660	7	10000	3	1	0	3	0
724	661	7	10000	3	1	0	3	0
696	662	7	10000	3	1	0	3	0
668	663	7	10000	3	1	0	3	0
640	664	7	10000	3	1	0	3	0
612	665	7	10000	3	1	0	3	0
586	666	7	10000	3	1	0	3	0
563	667	7	10000	3	1	0	3	0
548	668	7	10000	3	1	0	3	0
536	669	7	10000	3	1	0	3	0
524	670	7	10000	3	1	0	3	0
517	671	7	10000	3	1	0	3	0
522	672	7	10000	3	1	0	3	0
530	673	7	10000	3	1	0	3	0
540	674	7	10000	3	1	0	3	0
551	675	7	10000	3	1	0	3	0
566	676	7	10000	3	1	0	3	0
582	677	7	10000	3	1	0	3	0
595	678	7	10000	3	1	0	3	0
608	679	7	10000	3	1	0	3	0
619	680	7	10000	3	1	0	3	0
632	681	7	10000	3	1	0	3	0
642	682	7	10000	3	1	0	3	0
649	683	7	10000	3	1	0	3	0
658	684	7	10000	3	1	0	3	0
668	685	7	10000	3	1	0	3	0
679	686	7	10000	3	1	0	3	0
688	687	7	10000	3	1	0	3	0
700	688	7	10000	3	1	0	3	0
711	689	7	10000	3	1	0	3	0
725	690	7	10000	3	1	0	3	0
739	691	7	10000	3	1	0	3	0
755	692	7	10000	3	1	0	3	0
770	693	7	10000	3	1	0	3	0
782	694	7	10000	3	1	0	3	0
791	695	7	10000	3	1	0	3	0
799	696	7	10000	3	1	0	3	0
804	697	7	10000	3	1	0	3	0
806	698	7	10000	3	1	0	3	0
806	699	7	10000	3	1	0	3	0
804	700	7	10000	3	1	0	3	0
797	701	7	10000	3	1	0	3	0
781	702	7	10000	3	1	0	3	0
760	703	7	10000	3	1	0	3	0
736	704	7	10000	3	1	0	3	0
712	705	7	10000	3	1	0	3	0
689	706	7	10000	3	1	0	3	0
666	707	7	10000	3	1	0	3	0
641	708	7	10000	3	1	0	3	0
615	709	7	10000	3	1	0	3	0
590	710	7	10000	3	1	0	3	0
566	711	7	10000	3	1	0	3	0
546	712	7	10000	3	1	0	3	0
528	713	7	10000	3	1	0	3	0
514	714	7	10000	3	1	0	3	0
501	715	7	10000	3	1	0	3	0
487	716	7	10000	3	1	0	3	0
470	717	7	10000	3	1	0	3	0
450	718	7	10000	3	1	0	3	0
430	719	7	10000	3	1	0	3	0
410	720	7	10000	3	1	0	3	0
398	721	7	10000	3	1	0	3	0
387	722	7	10000	3	1	0	3	0
378	723	7	10000	3	1	0	3	0
370	724	7	10000	3	1	0	3	0
364	725	7	10000	3	1	0	3	0
361	726	7	10000	3	1	0	3	0
358	727	7	10000	3	1	0	3	0
354	728	7	10000	3	1	0	3	0
340	729	7	10000	3	1	0	3	0
327	730	7	10000	3	1	0	3	0
314	731	7	10000	3	1	0	3	0
314	732	7	10000	3	1	0	3	0
319	733	7	10000	3	1	0	3	0
321	734	7	10000	3	1	0	3	0
320	735	7	10000	3	1	0	3	0
317	736	7	10000	3	1	0	3	0
313	737	7	10000	3	1	0	3	0
309	738	7	10000	3	1	0	3	0
305	739	7	10000	3	1	0	3	0
310	740	7	10000	3	1	0	3	0
325	741	7	10000	3	1	0	3	0
334	742	7	10000	3	1	0	3	0
336	743	7	10000	3	1	0	3	0
338	744	7	10000	3	1	0	3	0
343	745	7	10000	3	1	0	3	0
348	746	7	10000	3	1	0	3	0
355	747	7	10000	3	1	0	3	0
361	748	7	10000	3	1	0	3	0
366	749	7	10000	3	1	0	3	0
370	750	7	10000	3	1	0	3	0
372	751	7	10000	3	1	0	3	0
370	752	7	10000	3	1	0	3	0
358	753	7	10000	3	1	0	3	0
344	754	7	10000	3	1	0	3	0
335	755	7	10000	3	1	0	3	0
326	756	7	10000	3	1	0	3	0
321	757	7	10000	3	1	0	3	0
317	758	7	10000	3	1	0	3	0
313	759	7	10000	3	1	0	3	0
311	760	7	10000	3	1	0	3	0
312	761	7	10000	3	1	0	3	0
313	762	7	10000	3	1	0	3	0
316	763	7	10000	3	1	0	3	0
316	764	7	10000	3	1	0	3	0
313	765	7	10000	3	1	0	3	0
306	766	7	10000	3	1	0	3	0
302	767	7	10000	3	1	0	3	0
300	768	7	10000	3	1	0	3	0
300	769	7	10000	3	1	0	3	0
297	770	7	10000	3	1	0	3	0
291	771	7	10000	3	1	0	3	0
289	772	7	10000	3	1	0	3	0
279	773	7	10000	3	1	0	3	0
273	774	7	10000	3	1	0	3	0
266	775	7	10000	3	1	0	3	0
255	776	7	10000	3	1	0	3	0
253	777	7	10000	3	1	0	3	0
254	778	7	10000	3	1	0	3	0
257	779	7	10000	3	1	0	3	0
252	780	7	10000	3	1	0	3	0
253	781	7	10000	3	1	0	3	0
259	782	7	10000	3	1	0	3	0
252	783	7	10000	3	1	0	3	0
249	784	7	10000	3	1	0	3	0
259	785	7	10000	3	1	0	3	0
271	786	7	10000	3	1	0	3	0
283	787	7	10000	3	1	0	3	0
290	788	7	10000	3	1	0	3	0
289	789	7	10000	3	1	0	3	0
282	790	7	10000	3	1	0	3	0
272	791	7	10000	3	1	0	3	0
263	792	7	10000	3	1	0	3	0
254	793	7	10000	3	1	0	3	0
243	794	7	10000	3	1	0	3	0
235	795	7	10000	3	1	0	3	0
235	796	7	10000	3	1	0	3	0
241	797	7	10000	3	1	0	3	0
240	798	7	10000	3	1	0	3	0
233	799	7	10000	3	1	0	3	0
226	800	7	10000	3	1	0	3	0
227	801	7	10000	3	1	0	3	0
231	802	7	10000	3	1	0	3	0
234	803	7	10000	3	1	0	3	0
233	804	7	10000	3	1	0	3	0
227	805	7	10000	3	1	0	3	0
216	806	7	10000	3	1	0	3	0
209	807	7	10000	3	1	0	3	0
202	808	7	10000	3	1	0	3	0
198	809	7	10000	3	1	0	3	0
193	810	7	10000	3	1	0	3	0
185	811	7	10000	3	1	0	3	0
180	812	7	10000	3	1	0	3	0
174	813	7	10000	3	1	0	3	0
168	814	7	10000	3	1	0	3	0
163	815	7	10000	3	1	0	3	0
161	816	7	10000	3	1	0	3	0
157	817	7	10000	3	1	0	3	0
154	818	7	10000	3	1	0	3	0
152	819	7	10000	3	1	0	3	0
146	820	7	10000	3	1	0	3	0
144	821	7	10000	3	1	0	3	0
140	822	7	10000	3	1	0	3	0
138	823	7	10000	3	1	0	3	0
138	824	7	10000	3	1	0	3	0
136	825	7	10000	3	1	0	3	0
142	826	7	10000	3	1	0	3	0
158	827	7	10000	3	1	0	3	0
163	828	7	10000	3	1	0	3	0
157	829	7	10000	3	1	0	3	0
153	830	7	10000	3	1	0	3	0
152	831	7	10000	3	1	0	3	0
153	832	7	10000	3	1	0	3	0
154	833	7	10000	3	1	0	3	0
152	834	7	10000	3	1	0	3	0
152	835	7	10000	3	1	0	3	0
155	836	7	10000	3	1	0	3	0
152	837	7	10000	3	1	0	3	0
146	838	7	10000	3	1	0	3	0
141	839	7	10000	3	1	0	3	0
141	840	7	10000	3	1	0	3	0
152	841	7	10000	3	1	0	3	0
163	842	7	10000	3	1	0	3	0
164	843	7	10000	3	1	0	3	0
159	844	7	10000	3	1	0	3	0
155	845	7	10000	3	1	0	3	0
154	846	7	10000	3	1	0	3	0
150	847	7	10000	3	1	0	3	0
145	848	7	10000	3	1	0	3	0
142	849	7	10000	3	1	0	3	0
140	850	7	10000	3	1	0	3	0
133	851	7	10000	3	1	0	3	0
128	852	7	10000	3	1	0	3	0
122	853	7	10000	3	1	0	3	0
117	854	7	10000	3	1	0	3	0
114	855	7	10000	3	1	0	3	0
110	856	7	10000	3	1	0	3	0
105	857	7	10000	3	1	0	3	0
103	858	7	10000	3	1	0	3	0
102	859	7	10000	3	1	0	3	0
102	860	7	10000	3	1	0	3	0
103	861	7	10000	3	1	0	3	0
100	862	7	10000	3	1	0	3	0
100	863	7	10000	3	1	0	3	0
101	864	7	10000	3	1	0	3	0
105	865	7	10000	3	1	0	3	0
104	866	7	10000	3	1	0	3	0
110	867	7	10000	3	1	0	3	0
120	868	7	10000	3	1	0	3	0
129	869	7	10000	3	1	0	3	0
132	870	7	10000	3	1	0	3	0
128	871	7	10000	3	1	0	3	0
124	872	7	10000	3	1	0	3	0
125	873	7	10000	3	1	0	3	0
130	874	7	10000	3	1	0	3	0
130	875	7	10000	3	1	0	3	0
128	876	7	10000	3	1	0	3	0
124	877	7	10000	3	1	0	3	0
122	878	7	10000	3	1	0	3	0
119	879	7	10000	3	1	0	3	0
125	880	7	10000	3	1	0	3	0
136	881	7	10000	3	1	0	3	0
140	882	7	10000	3	1	0	3	0
137	883	7	10000	3	1	0	3	0
134	884	7	10000	3	1	0	3	0
131	885	7	10000	3	1	0	3	0
135	886	7	10000	3	1	0	3	0
146	887	7	10000	3	1	0	3	0
158	888	7	10000	3	1	0	3	0
164	889	7	10000	3	1	0	3	0
161	890	7	10000	3	1	0	3	0
152	891	7	10000	3	1	0	3	0
148	892	7	10000	3	1	0	3	0
147	893	7	10000	3	1	0	3	0
150	894	7	10000	3	1	0	3	0
150	895	7	10000	3	1	0	3	0
153	896	7	10000	3	1	0	3	0
155	897	7	10000	3	1	0	3	0
149	898	7	10000	3	1	0	3	0
144	899	7	10000	3	1	0	3	0
147	900	7	10000	3	1	0	3	0
155	901	7	10000	3	1	0	3	0
156	902	7	10000	3	1	0	3	0
152	903	7	10000	3	1	0	3	0
158	904	7	10000	3	1	0	3	0
172	905	7	10000	3	1	0	3	0
183	906	7	10000	3	1	0	3	0
188	907	7	10000	3	1	0	3	0
187	908	7	10000	3	1	0	3	0
179	909	7	10000	3	1	0	3	0
175	910	7	10000	3	1	0	3	0
171	911	7	10000	3	1	0	3	0
167	912	7	10000	3	1	0	3	0
163	913	7	10000	3	1	0	3	0
160	914	7	10000	3	1	0	3	0
163	915	7	10000	3	1	0	3	0
170	916	7	10000	3	1	0	3	0
173	917	7	10000	3	1	0	3	0
176	918	7	10000	3	1	0	3	0
182	919	7	10000	3	1	0	3	0
189	920	7	10000	3	1	0	3	0
185	921	7	10000	3	1	0	3	0
189	922	7	10000	3	1	0	3	0
200	923	7	10000	3	1	0	3	0
206	924	7	10000	3	1	0	3	0
208	925	7	10000	3	1	0	3	0
201	926	7	10000	3	1	0	3	0
192	927	7	10000	3	1	0	3	0
184	928	7	10000	3	1	0	3	0
180	929	7	10000	3	1	0	3	0
176	930	7	10000	3	1	0	3	0
167	931	7	10000	3	1	0	3	0
162	932	7	10000	3	1	0	3	0
160	933	7	10000	3	1	0	3	0
160	934	7	10000	3	1	0	3	0
162	935	7	10000	3	1	0	3	0
162	936	7	10000	3	1	0	3	0
159	937	7	10000	3	1	0	3	0
153	938	7	10000	3	1	0	3	0
149	939	7	10000	3	1	0	3	0
143	940	7	10000	3	1	0	3	0
139	941	7	10000	3	1	0	3	0
136	942	7	10000	3	1	0	3	0
140	943	7	10000	3	1	0	3	0
143	944	7	10000	3	1	0	3	0
140	945	7	10000	3	1	0	3	0
150	946	7	10000	3	1	0	3	0
162	947	7	10000	3	1	0	3	0
164	948	7	10000	3	1	0	3	0
158	949	7	10000	3	1	0	3	0
152	950	7	10000	3	1	0	3	0
144	951	7	10000	3	1	0	3	0
149	952	7	10000	3	1	0	3	0
155	953	7	10000	3	1	0	3	0
151	954	7	10000	3	1	0	3	0
151	955	7	10000	3	1	0	3	0
147	956	7	10000	3	1	0	3	0
149	957	7	10000	3	1	0	3	0
153	958	7	10000	3	1	0	3	0
160	959	7	10000	3	1	0	3	0
168	960	7	10000	3	1	0	3	0
178	961	7	10000	3	1	0	3	0
186	962	7	10000	3	1	0	3	0
194	963	7	10000	3	1	0	3	0
196	964	7	10000	3	1	0	3	0
189	965	7	10000	3	1	0	3	0
181	966	7	10000	3	1	0	3	0
175	967	7	10000	3	1	0	3	0
170	968	7	10000	3	1	0	3	0
165	969	7	10000	3	1	0	3	0
159	970	7	10000	3	1	0	3	0
153	971	7	10000	3	1	0	3	0
148	972	7	10000	3	1	0	3	0
143	973	7	10000	3	1	0	3	0
140	974	7	10000	3	1	0	3	0
136	975	7	10000	3	1	0	3	0
131	976	7	10000	3	1	0	3	0
126	977	7	10000	3	1	0	3	0
121	978	7	10000	3	1	0	3	0
121	979	7	10000	3	1	0	3	0
130	980	7	10000	3	1	0	3	0
144	981	7	10000	3	1	0	3	0
140	982	7	10000	3	1	0	3	0
149	983	7	10000	3	1	0	3	0
151	984	7	10000	3	1	0	3	0
164	985	7	10000	3	1	0	3	0
193	986	7	10000	3	1	0	3	0
215	987	7	10000	3	1	0	3	0
214	988	7	10000	3	1	0	3	0
206	989	7	10000	3	1	0	3	0
204	990	7	10000	3	1	0	3	0
208	991	7	10000	3	1	0	3	0
203	992	7	10000	3	1	0	3	0
201	993	7	10000	3	1	0	3	0
208	994	7	10000	3	1	0	3	0
229	995	7	10000	3	1	0	3	0
246	996	7	10000	3	1	0	3	0
243	997	7	10000	3	1	0	3	0
255	998	7	10000	3	1	0	3	0
275	999	7	10000	3	1	0	3	0
287	1000	7	10000	3	1	0	3	0
285	1001	7	10000	3	1	0	3	0
53	1	0	10000	4	1	0	4	0
52	2	0	10000	4	1	0	4	0
50	3	0	10000	4	1	0	4	0
51	4	0	10000	4	1	0	4	0
51	5	0	10000	4	1	0	4	0
51	6	0	10000	4	1	0	4	0
49	7	0	10000	4	1	0	4	0
49	8	0	10000	4	1	0	4	0
53	9	0	10000	4	1	0	4	0
56	10	0	10000	4	1	0	4	0
57	11	0	10000	4	1	0	4	0
56	12	0	10000	4	1	0	4	0
54	13	0	10000	4	1	0	4	0
54	14	0	10000	4	1	0	4	0
55	15	0	10000	4	1	0	4	0
53	16	0	10000	4	1	0	4	0
50	17	0	10000	4	1	0	4	0
51	18	0	10000	4	1	0	4	0
52	19	0	10000	4	1	0	4	0
53	20	0	10000	4	1	0	4	0
52	21	0	10000	4	1	0	4	0
51	22	0	10000	4	1	0	4	0
50	23	0	10000	4	1	0	4	0
49	24	0	10000	4	1	0	4	0
47	25	0	10000	4	1	0	4	0
46	26	0	10000	4	1	0	4	0
45	27	0	10000	4	1	0	4	0
47	28	0	10000	4	1	0	4	0
59	29	0	10000	4	1	0	4	0
71	30	0	10000	4	1	0	4	0
76	31	0	10000	4	1	0	4	0
76	32	0	10000	4	1	0	4	0
79	33	0	10000	4	1	0	4	0
85	34	0	10000	4	1	0	4	0
86	35	0	10000	4	1	0	4	0
84	36	0	10000	4	1	0	4	0
82	37	0	10000	4	1	0	4	0
81	38	0	10000	4	1	0	4	0
87	39	0	10000	4	1	0	4	0
93	40	0	10000	4	1	0	4	0
96	41	0	10000	4	1	0	4	0
96	42	0	10000	4	1	0	4	0
97	43	0	10000	4	1	0	4	0
93	44	0	10000	4	1	0	4	0
90	45	0	10000	4	1	0	4	0
90	46	0	10000	4	1	0	4	0
90	47	0	10000	4	1	0	4	0
91	48	0	10000	4	1	0	4	0
88	49	0	10000	4	1	0	4	0
85	50	0	10000	4	1	0	4	0
84	51	0	10000	4	1	0	4	0
83	52	0	10000	4	1	0	4	0
80	53	0	10000	4	1	0	4	0
77	54	0	10000	4	1	0	4	0
74	55	0	10000	4	1	0	4	0
71	56	0	10000	4	1	0	4	0
69	57	0	10000	4	1	0	4	0
67	58	0	10000	4	1	0	4	0
66	59	0	10000	4	1	0	4	0
65	60	0	10000	4	1	0	4	0
61	61	0	10000	4	1	0	4	0
62	62	0	10000	4	1	0	4	0
63	63	0	10000	4	1	0	4	0
69	64	0	10000	4	1	0	4	0
77	65	0	10000	4	1	0	4	0
81	66	0	10000	4	1	0	4	0
82	67	0	10000	4	1	0	4	0
81	68	0	10000	4	1	0	4	0
79	69	0	10000	4	1	0	4	0
82	70	0	10000	4	1	0	4	0
89	71	0	10000	4	1	0	4	0
90	72	0	10000	4	1	0	4	0
92	73	0	10000	4	1	0	4	0
93	74	0	10000	4	1	0	4	0
93	75	0	10000	4	1	0	4	0
92	76	0	10000	4	1	0	4	0
89	77	0	10000	4	1	0	4	0
87	78	0	10000	4	1	0	4	0
85	79	0	10000	4	1	0	4	0
83	80	0	10000	4	1	0	4	0
79	81	0	10000	4	1	0	4	0
76	82	0	10000	4	1	0	4	0
77	83	0	10000	4	1	0	4	0
78	84	0	10000	4	1	0	4	0
79	85	0	10000	4	1	0	4	0
76	86	0	10000	4	1	0	4	0
76	87	0	10000	4	1	0	4	0
75	88	0	10000	4	1	0	4	0
72	89	0	10000	4	1	0	4	0
71	90	0	10000	4	1	0	4	0
71	91	0	10000	4	1	0	4	0
68	92	0	10000	4	1	0	4	0
66	93	0	10000	4	1	0	4	0
64	94	0	10000	4	1	0	4	0
63	95	0	10000	4	1	0	4	0
60	96	0	10000	4	1	0	4	0
60	97	0	10000	4	1	0	4	0
60	98	0	10000	4	1	0	4	0
60	99	0	10000	4	1	0	4	0
58	100	0	10000	4	1	0	4	0
56	101	0	10000	4	1	0	4	0
59	102	0	10000	4	1	0	4	0
58	103	0	10000	4	1	0	4	0
57	104	0	10000	4	1	0	4	0
56	105	0	10000	4	1	0	4	0
58	106	0	10000	4	1	0	4	0
60	107	0	10000	4	1	0	4	0
58	108	0	10000	4	1	0	4	0
58	109	0	10000	4	1	0	4	0
60	110	0	10000	4	1	0	4	0
62	111	0	10000	4	1	0	4	0
62	112	0	10000	4	1	0	4	0
63	113	0	10000	4	1	0	4	0
62	114	0	10000	4	1	0	4	0
59	115	0	10000	4	1	0	4	0
57	116	0	10000	4	1	0	4	0
55	117	0	10000	4	1	0	4	0
55	118	0	10000	4	1	0	4	0
54	119	0	10000	4	1	0	4	0
54	120	0	10000	4	1	0	4	0
52	121	0	10000	4	1	0	4	0
52	122	0	10000	4	1	0	4	0
50	123	0	10000	4	1	0	4	0
49	124	0	10000	4	1	0	4	0
51	125	0	10000	4	1	0	4	0
53	126	0	10000	4	1	0	4	0
52	127	0	10000	4	1	0	4	0
50	128	0	10000	4	1	0	4	0
50	129	0	10000	4	1	0	4	0
54	130	0	10000	4	1	0	4	0
56	131	0	10000	4	1	0	4	0
55	132	0	10000	4	1	0	4	0
53	133	0	10000	4	1	0	4	0
52	134	0	10000	4	1	0	4	0
52	135	0	10000	4	1	0	4	0
51	136	0	10000	4	1	0	4	0
48	137	0	10000	4	1	0	4	0
49	138	0	10000	4	1	0	4	0
49	139	0	10000	4	1	0	4	0
48	140	0	10000	4	1	0	4	0
47	141	0	10000	4	1	0	4	0
48	142	0	10000	4	1	0	4	0
51	143	0	10000	4	1	0	4	0
52	144	0	10000	4	1	0	4	0
51	145	0	10000	4	1	0	4	0
53	146	0	10000	4	1	0	4	0
53	147	0	10000	4	1	0	4	0
51	148	0	10000	4	1	0	4	0
49	149	0	10000	4	1	0	4	0
47	150	0	10000	4	1	0	4	0
47	151	0	10000	4	1	0	4	0
45	152	0	10000	4	1	0	4	0
44	153	0	10000	4	1	0	4	0
47	154	0	10000	4	1	0	4	0
49	155	0	10000	4	1	0	4	0
48	156	0	10000	4	1	0	4	0
48	157	0	10000	4	1	0	4	0
49	158	0	10000	4	1	0	4	0
49	159	0	10000	4	1	0	4	0
49	160	0	10000	4	1	0	4	0
49	161	0	10000	4	1	0	4	0
52	162	0	10000	4	1	0	4	0
57	163	0	10000	4	1	0	4	0
64	164	0	10000	4	1	0	4	0
66	165	0	10000	4	1	0	4	0
65	166	0	10000	4	1	0	4	0
62	167	0	10000	4	1	0	4	0
59	168	0	10000	4	1	0	4	0
57	169	0	10000	4	1	0	4	0
56	170	0	10000	4	1	0	4	0
58	171	0	10000	4	1	0	4	0
57	172	0	10000	4	1	0	4	0
55	173	0	10000	4	1	0	4	0
55	174	0	10000	4	1	0	4	0
57	175	0	10000	4	1	0	4	0
56	176	0	10000	4	1	0	4	0
56	177	0	10000	4	1	0	4	0
57	178	0	10000	4	1	0	4	0
58	179	0	10000	4	1	0	4	0
56	180	0	10000	4	1	0	4	0
55	181	0	10000	4	1	0	4	0
56	182	0	10000	4	1	0	4	0
56	183	0	10000	4	1	0	4	0
55	184	0	10000	4	1	0	4	0
54	185	0	10000	4	1	0	4	0
52	186	0	10000	4	1	0	4	0
50	187	0	10000	4	1	0	4	0
50	188	0	10000	4	1	0	4	0
51	189	0	10000	4	1	0	4	0
52	190	0	10000	4	1	0	4	0
55	191	0	10000	4	1	0	4	0
55	192	0	10000	4	1	0	4	0
53	193	0	10000	4	1	0	4	0
53	194	0	10000	4	1	0	4	0
54	195	0	10000	4	1	0	4	0
53	196	0	10000	4	1	0	4	0
54	197	0	10000	4	1	0	4	0
56	198	0	10000	4	1	0	4	0
57	199	0	10000	4	1	0	4	0
63	200	0	10000	4	1	0	4	0
64	201	0	10000	4	1	0	4	0
63	202	0	10000	4	1	0	4	0
68	203	0	10000	4	1	0	4	0
71	204	0	10000	4	1	0	4	0
74	205	0	10000	4	1	0	4	0
74	206	0	10000	4	1	0	4	0
74	207	0	10000	4	1	0	4	0
70	208	0	10000	4	1	0	4	0
68	209	0	10000	4	1	0	4	0
67	210	0	10000	4	1	0	4	0
68	211	0	10000	4	1	0	4	0
66	212	0	10000	4	1	0	4	0
63	213	0	10000	4	1	0	4	0
63	214	0	10000	4	1	0	4	0
65	215	0	10000	4	1	0	4	0
66	216	0	10000	4	1	0	4	0
66	217	0	10000	4	1	0	4	0
64	218	0	10000	4	1	0	4	0
61	219	0	10000	4	1	0	4	0
59	220	0	10000	4	1	0	4	0
55	221	0	10000	4	1	0	4	0
53	222	0	10000	4	1	0	4	0
52	223	0	10000	4	1	0	4	0
49	224	0	10000	4	1	0	4	0
47	225	0	10000	4	1	0	4	0
45	226	0	10000	4	1	0	4	0
46	227	0	10000	4	1	0	4	0
44	228	0	10000	4	1	0	4	0
42	229	0	10000	4	1	0	4	0
41	230	0	10000	4	1	0	4	0
42	231	0	10000	4	1	0	4	0
40	232	0	10000	4	1	0	4	0
38	233	0	10000	4	1	0	4	0
37	234	0	10000	4	1	0	4	0
36	235	0	10000	4	1	0	4	0
34	236	0	10000	4	1	0	4	0
32	237	0	10000	4	1	0	4	0
32	238	0	10000	4	1	0	4	0
33	239	0	10000	4	1	0	4	0
39	240	0	10000	4	1	0	4	0
38	241	0	10000	4	1	0	4	0
41	242	0	10000	4	1	0	4	0
48	243	0	10000	4	1	0	4	0
54	244	0	10000	4	1	0	4	0
57	245	0	10000	4	1	0	4	0
55	246	0	10000	4	1	0	4	0
56	247	0	10000	4	1	0	4	0
61	248	0	10000	4	1	0	4	0
63	249	0	10000	4	1	0	4	0
62	250	0	10000	4	1	0	4	0
63	251	0	10000	4	1	0	4	0
61	252	0	10000	4	1	0	4	0
61	253	0	10000	4	1	0	4	0
58	254	0	10000	4	1	0	4	0
56	255	0	10000	4	1	0	4	0
54	256	0	10000	4	1	0	4	0
53	257	0	10000	4	1	0	4	0
51	258	0	10000	4	1	0	4	0
50	259	0	10000	4	1	0	4	0
47	260	0	10000	4	1	0	4	0
44	261	0	10000	4	1	0	4	0
43	262	0	10000	4	1	0	4	0
41	263	0	10000	4	1	0	4	0
41	264	0	10000	4	1	0	4	0
41	265	0	10000	4	1	0	4	0
41	266	0	10000	4	1	0	4	0
42	267	0	10000	4	1	0	4	0
42	268	0	10000	4	1	0	4	0
43	269	0	10000	4	1	0	4	0
44	270	0	10000	4	1	0	4	0
46	271	0	10000	4	1	0	4	0
45	272	0	10000	4	1	0	4	0
43	273	0	10000	4	1	0	4	0
42	274	0	10000	4	1	0	4	0
40	275	0	10000	4	1	0	4	0
39	276	0	10000	4	1	0	4	0
37	277	0	10000	4	1	0	4	0
38	278	0	10000	4	1	0	4	0
41	279	0	10000	4	1	0	4	0
42	280	0	10000	4	1	0	4	0
38	281	0	10000	4	1	0	4	0
37	282	0	10000	4	1	0	4	0
38	283	0	10000	4	1	0	4	0
38	284	0	10000	4	1	0	4	0
37	285	0	10000	4	1	0	4	0
37	286	0	10000	4	1	0	4	0
37	287	0	10000	4	1	0	4	0
35	288	0	10000	4	1	0	4	0
35	289	0	10000	4	1	0	4	0
34	290	0	10000	4	1	0	4	0
34	291	0	10000	4	1	0	4	0
32	292	0	10000	4	1	0	4	0
32	293	0	10000	4	1	0	4	0
33	294	0	10000	4	1	0	4	0
36	295	0	10000	4	1	0	4	0
38	296	0	10000	4	1	0	4	0
38	297	0	10000	4	1	0	4	0
38	298	0	10000	4	1	0	4	0
40	299	0	10000	4	1	0	4	0
41	300	0	10000	4	1	0	4	0
39	301	0	10000	4	1	0	4	0
39	302	0	10000	4	1	0	4	0
45	303	0	10000	4	1	0	4	0
47	304	0	10000	4	1	0	4	0
45	305	0	10000	4	1	0	4	0
44	306	0	10000	4	1	0	4	0
43	307	0	10000	4	1	0	4	0
42	308	0	10000	4	1	0	4	0
40	309	0	10000	4	1	0	4	0
38	310	0	10000	4	1	0	4	0
39	311	0	10000	4	1	0	4	0
38	312	0	10000	4	1	0	4	0
42	313	0	10000	4	1	0	4	0
46	314	0	10000	4	1	0	4	0
48	315	0	10000	4	1	0	4	0
47	316	0	10000	4	1	0	4	0
46	317	0	10000	4	1	0	4	0
48	318	0	10000	4	1	0	4	0
46	319	0	10000	4	1	0	4	0
45	320	0	10000	4	1	0	4	0
45	321	0	10000	4	1	0	4	0
47	322	0	10000	4	1	0	4	0
49	323	0	10000	4	1	0	4	0
49	324	0	10000	4	1	0	4	0
48	325	0	10000	4	1	0	4	0
47	326	0	10000	4	1	0	4	0
47	327	0	10000	4	1	0	4	0
50	328	0	10000	4	1	0	4	0
54	329	0	10000	4	1	0	4	0
54	330	0	10000	4	1	0	4	0
54	331	0	10000	4	1	0	4	0
52	332	0	10000	4	1	0	4	0
50	333	0	10000	4	1	0	4	0
48	334	0	10000	4	1	0	4	0
46	335	0	10000	4	1	0	4	0
44	336	0	10000	4	1	0	4	0
42	337	0	10000	4	1	0	4	0
41	338	0	10000	4	1	0	4	0
40	339	0	10000	4	1	0	4	0
39	340	0	10000	4	1	0	4	0
36	341	0	10000	4	1	0	4	0
34	342	0	10000	4	1	0	4	0
33	343	0	10000	4	1	0	4	0
32	344	0	10000	4	1	0	4	0
32	345	0	10000	4	1	0	4	0
32	346	0	10000	4	1	0	4	0
32	347	0	10000	4	1	0	4	0
33	348	0	10000	4	1	0	4	0
34	349	0	10000	4	1	0	4	0
32	350	0	10000	4	1	0	4	0
33	351	0	10000	4	1	0	4	0
32	352	0	10000	4	1	0	4	0
35	353	0	10000	4	1	0	4	0
42	354	0	10000	4	1	0	4	0
44	355	0	10000	4	1	0	4	0
43	356	0	10000	4	1	0	4	0
45	357	0	10000	4	1	0	4	0
47	358	0	10000	4	1	0	4	0
45	359	0	10000	4	1	0	4	0
45	360	0	10000	4	1	0	4	0
43	361	0	10000	4	1	0	4	0
45	362	0	10000	4	1	0	4	0
46	363	0	10000	4	1	0	4	0
46	364	0	10000	4	1	0	4	0
48	365	0	10000	4	1	0	4	0
48	366	0	10000	4	1	0	4	0
47	367	0	10000	4	1	0	4	0
46	368	0	10000	4	1	0	4	0
46	369	0	10000	4	1	0	4	0
44	370	0	10000	4	1	0	4	0
45	371	0	10000	4	1	0	4	0
47	372	0	10000	4	1	0	4	0
47	373	0	10000	4	1	0	4	0
48	374	0	10000	4	1	0	4	0
46	375	0	10000	4	1	0	4	0
44	376	0	10000	4	1	0	4	0
44	377	0	10000	4	1	0	4	0
44	378	0	10000	4	1	0	4	0
45	379	0	10000	4	1	0	4	0
45	380	0	10000	4	1	0	4	0
43	381	0	10000	4	1	0	4	0
42	382	0	10000	4	1	0	4	0
43	383	0	10000	4	1	0	4	0
42	384	0	10000	4	1	0	4	0
43	385	0	10000	4	1	0	4	0
44	386	0	10000	4	1	0	4	0
47	387	0	10000	4	1	0	4	0
50	388	0	10000	4	1	0	4	0
50	389	0	10000	4	1	0	4	0
48	390	0	10000	4	1	0	4	0
51	391	0	10000	4	1	0	4	0
51	392	0	10000	4	1	0	4	0
51	393	0	10000	4	1	0	4	0
49	394	0	10000	4	1	0	4	0
48	395	0	10000	4	1	0	4	0
47	396	0	10000	4	1	0	4	0
47	397	0	10000	4	1	0	4	0
46	398	0	10000	4	1	0	4	0
48	399	0	10000	4	1	0	4	0
51	400	0	10000	4	1	0	4	0
47	401	0	10000	4	1	0	4	0
46	402	0	10000	4	1	0	4	0
48	403	0	10000	4	1	0	4	0
49	404	0	10000	4	1	0	4	0
52	405	0	10000	4	1	0	4	0
55	406	0	10000	4	1	0	4	0
57	407	0	10000	4	1	0	4	0
59	408	0	10000	4	1	0	4	0
58	409	0	10000	4	1	0	4	0
55	410	0	10000	4	1	0	4	0
57	411	0	10000	4	1	0	4	0
58	412	0	10000	4	1	0	4	0
58	413	0	10000	4	1	0	4	0
60	414	0	10000	4	1	0	4	0
63	415	0	10000	4	1	0	4	0
63	416	0	10000	4	1	0	4	0
64	417	0	10000	4	1	0	4	0
71	418	0	10000	4	1	0	4	0
75	419	0	10000	4	1	0	4	0
73	420	0	10000	4	1	0	4	0
71	421	0	10000	4	1	0	4	0
69	422	0	10000	4	1	0	4	0
70	423	0	10000	4	1	0	4	0
73	424	0	10000	4	1	0	4	0
75	425	0	10000	4	1	0	4	0
75	426	0	10000	4	1	0	4	0
74	427	0	10000	4	1	0	4	0
74	428	0	10000	4	1	0	4	0
73	429	0	10000	4	1	0	4	0
69	430	0	10000	4	1	0	4	0
68	431	0	10000	4	1	0	4	0
65	432	0	10000	4	1	0	4	0
63	433	0	10000	4	1	0	4	0
61	434	0	10000	4	1	0	4	0
59	435	0	10000	4	1	0	4	0
57	436	0	10000	4	1	0	4	0
55	437	0	10000	4	1	0	4	0
56	438	0	10000	4	1	0	4	0
59	439	0	10000	4	1	0	4	0
60	440	0	10000	4	1	0	4	0
56	441	0	10000	4	1	0	4	0
58	442	0	10000	4	1	0	4	0
61	443	0	10000	4	1	0	4	0
59	444	0	10000	4	1	0	4	0
59	445	0	10000	4	1	0	4	0
60	446	0	10000	4	1	0	4	0
58	447	0	10000	4	1	0	4	0
55	448	0	10000	4	1	0	4	0
53	449	0	10000	4	1	0	4	0
51	450	0	10000	4	1	0	4	0
52	451	0	10000	4	1	0	4	0
53	452	0	10000	4	1	0	4	0
52	453	0	10000	4	1	0	4	0
50	454	0	10000	4	1	0	4	0
48	455	0	10000	4	1	0	4	0
47	456	0	10000	4	1	0	4	0
48	457	0	10000	4	1	0	4	0
48	458	0	10000	4	1	0	4	0
47	459	0	10000	4	1	0	4	0
46	460	0	10000	4	1	0	4	0
43	461	0	10000	4	1	0	4	0
43	462	0	10000	4	1	0	4	0
44	463	0	10000	4	1	0	4	0
44	464	0	10000	4	1	0	4	0
45	465	0	10000	4	1	0	4	0
45	466	0	10000	4	1	0	4	0
44	467	0	10000	4	1	0	4	0
43	468	0	10000	4	1	0	4	0
43	469	0	10000	4	1	0	4	0
43	470	0	10000	4	1	0	4	0
44	471	0	10000	4	1	0	4	0
44	472	0	10000	4	1	0	4	0
44	473	0	10000	4	1	0	4	0
45	474	0	10000	4	1	0	4	0
46	475	0	10000	4	1	0	4	0
51	476	0	10000	4	1	0	4	0
57	477	0	10000	4	1	0	4	0
63	478	0	10000	4	1	0	4	0
65	479	0	10000	4	1	0	4	0
66	480	0	10000	4	1	0	4	0
64	481	0	10000	4	1	0	4	0
63	482	0	10000	4	1	0	4	0
60	483	0	10000	4	1	0	4	0
59	484	0	10000	4	1	0	4	0
58	485	0	10000	4	1	0	4	0
57	486	0	10000	4	1	0	4	0
56	487	0	10000	4	1	0	4	0
53	488	0	10000	4	1	0	4	0
52	489	0	10000	4	1	0	4	0
50	490	0	10000	4	1	0	4	0
51	491	0	10000	4	1	0	4	0
49	492	0	10000	4	1	0	4	0
47	493	0	10000	4	1	0	4	0
46	494	0	10000	4	1	0	4	0
47	495	0	10000	4	1	0	4	0
49	496	0	10000	4	1	0	4	0
50	497	0	10000	4	1	0	4	0
55	498	0	10000	4	1	0	4	0
57	499	0	10000	4	1	0	4	0
56	500	0	10000	4	1	0	4	0
53	501	0	10000	4	1	0	4	1
53	502	0	10000	4	1	0	4	1
58	503	0	10000	4	1	0	4	1
58	504	0	10000	4	1	0	4	1
60	505	0	10000	4	1	0	4	1
66	506	0	10000	4	1	0	4	1
70	507	0	10000	4	1	0	4	1
71	508	0	10000	4	1	0	4	1
69	509	0	10000	4	1	0	4	1
67	510	0	10000	4	1	0	4	1
67	511	0	10000	4	1	0	4	1
63	512	0	10000	4	1	0	4	1
62	513	0	10000	4	1	0	4	1
63	514	0	10000	4	1	0	4	1
62	515	0	10000	4	1	0	4	1
59	516	0	10000	4	1	0	4	1
56	517	0	10000	4	1	0	4	1
55	518	0	10000	4	1	0	4	1
55	519	0	10000	4	1	0	4	1
57	520	0	10000	4	1	0	4	1
56	521	0	10000	4	1	0	4	1
55	522	0	10000	4	1	0	4	1
56	523	0	10000	4	1	0	4	1
56	524	0	10000	4	1	0	4	1
55	525	0	10000	4	1	0	4	1
55	526	0	10000	4	1	0	4	1
54	527	0	10000	4	1	0	4	1
52	528	0	10000	4	1	0	4	1
50	529	0	10000	4	1	0	4	1
48	530	0	10000	4	1	0	4	1
51	531	0	10000	4	1	0	4	1
54	532	0	10000	4	1	0	4	1
53	533	0	10000	4	1	0	4	1
54	534	0	10000	4	1	0	4	1
57	535	0	10000	4	1	0	4	1
60	536	0	10000	4	1	0	4	1
63	537	0	10000	4	1	0	4	1
64	538	0	10000	4	1	0	4	1
62	539	0	10000	4	1	0	4	1
59	540	0	10000	4	1	0	4	1
56	541	0	10000	4	1	0	4	1
56	542	0	10000	4	1	0	4	1
55	543	0	10000	4	1	0	4	1
52	544	0	10000	4	1	0	4	1
53	545	0	10000	4	1	0	4	1
52	546	0	10000	4	1	0	4	1
53	547	0	10000	4	1	0	4	1
54	548	0	10000	4	1	0	4	1
53	549	0	10000	4	1	0	4	1
51	550	0	10000	4	1	0	4	1
53	551	0	10000	4	1	0	4	0
51	552	0	10000	4	1	0	4	0
49	553	0	10000	4	1	0	4	0
47	554	0	10000	4	1	0	4	0
45	555	0	10000	4	1	0	4	0
44	556	0	10000	4	1	0	4	0
47	557	0	10000	4	1	0	4	0
52	558	0	10000	4	1	0	4	0
53	559	0	10000	4	1	0	4	0
52	560	0	10000	4	1	0	4	0
49	561	0	10000	4	1	0	4	0
47	562	0	10000	4	1	0	4	0
45	563	0	10000	4	1	0	4	0
48	564	0	10000	4	1	0	4	0
53	565	0	10000	4	1	0	4	0
56	566	0	10000	4	1	0	4	0
57	567	0	10000	4	1	0	4	0
56	568	0	10000	4	1	0	4	0
56	569	0	10000	4	1	0	4	0
56	570	0	10000	4	1	0	4	0
60	571	0	10000	4	1	0	4	0
58	572	0	10000	4	1	0	4	0
56	573	0	10000	4	1	0	4	0
54	574	0	10000	4	1	0	4	0
54	575	0	10000	4	1	0	4	0
55	576	0	10000	4	1	0	4	0
54	577	0	10000	4	1	0	4	0
54	578	0	10000	4	1	0	4	0
55	579	0	10000	4	1	0	4	0
53	580	0	10000	4	1	0	4	0
57	581	0	10000	4	1	0	4	0
72	582	0	10000	4	1	0	4	0
76	583	0	10000	4	1	0	4	0
88	584	0	10000	4	1	0	4	0
115	585	0	10000	4	1	0	4	0
125	586	0	10000	4	1	0	4	0
178	587	0	10000	4	1	0	4	0
230	588	0	10000	4	1	0	4	0
225	589	0	10000	4	1	0	4	0
236	590	0	10000	4	1	0	4	0
284	591	0	10000	4	1	0	4	0
305	592	0	10000	4	1	0	4	0
346	593	0	10000	4	1	0	4	0
377	594	0	10000	4	1	0	4	0
390	595	0	10000	4	1	0	4	0
396	596	0	10000	4	1	0	4	0
419	597	0	10000	4	1	0	4	0
461	598	0	10000	4	1	0	4	0
461	599	0	10000	4	1	0	4	0
506	600	0	10000	4	1	0	4	0
607	601	0	10000	4	1	0	4	0
661	602	0	10000	4	1	0	4	0
646	603	0	10000	4	1	0	4	0
635	604	0	10000	4	1	0	4	0
672	605	0	10000	4	1	0	4	0
706	606	0	10000	4	1	0	4	0
787	607	0	10000	4	1	0	4	0
871	608	0	10000	4	1	0	4	0
898	609	0	10000	4	1	0	4	0
874	610	0	10000	4	1	0	4	0
855	611	0	10000	4	1	0	4	0
854	612	0	10000	4	1	0	4	0
891	613	0	10000	4	1	0	4	0
888	614	0	10000	4	1	0	4	0
926	615	0	10000	4	1	0	4	0
905	616	0	10000	4	1	0	4	0
924	617	0	10000	4	1	0	4	0
903	618	0	10000	4	1	0	4	0
866	619	0	10000	4	1	0	4	0
844	620	0	10000	4	1	0	4	0
813	621	0	10000	4	1	0	4	0
775	622	0	10000	4	1	0	4	0
746	623	0	10000	4	1	0	4	0
728	624	0	10000	4	1	0	4	0
711	625	0	10000	4	1	0	4	0
695	626	0	10000	4	1	0	4	0
681	627	0	10000	4	1	0	4	0
667	628	0	10000	4	1	0	4	0
652	629	0	10000	4	1	0	4	0
636	630	0	10000	4	1	0	4	0
622	631	0	10000	4	1	0	4	0
608	632	0	10000	4	1	0	4	0
592	633	0	10000	4	1	0	4	0
575	634	0	10000	4	1	0	4	0
561	635	0	10000	4	1	0	4	0
544	636	0	10000	4	1	0	4	0
533	637	0	10000	4	1	0	4	0
526	638	0	10000	4	1	0	4	0
511	639	0	10000	4	1	0	4	0
501	640	0	10000	4	1	0	4	0
491	641	0	10000	4	1	0	4	0
472	642	0	10000	4	1	0	4	0
458	643	0	10000	4	1	0	4	0
450	644	0	10000	4	1	0	4	0
442	645	0	10000	4	1	0	4	0
427	646	0	10000	4	1	0	4	0
408	647	0	10000	4	1	0	4	0
389	648	0	10000	4	1	0	4	0
374	649	0	10000	4	1	0	4	0
364	650	0	10000	4	1	0	4	0
358	651	0	10000	4	1	0	4	0
350	652	0	10000	4	1	0	4	0
344	653	0	10000	4	1	0	4	0
342	654	0	10000	4	1	0	4	0
340	655	0	10000	4	1	0	4	0
341	656	0	10000	4	1	0	4	0
342	657	0	10000	4	1	0	4	0
344	658	0	10000	4	1	0	4	0
343	659	0	10000	4	1	0	4	0
344	660	0	10000	4	1	0	4	0
344	661	0	10000	4	1	0	4	0
348	662	0	10000	4	1	0	4	0
354	663	0	10000	4	1	0	4	0
361	664	0	10000	4	1	0	4	0
369	665	0	10000	4	1	0	4	0
379	666	0	10000	4	1	0	4	0
388	667	0	10000	4	1	0	4	0
395	668	0	10000	4	1	0	4	0
403	669	0	10000	4	1	0	4	0
409	670	0	10000	4	1	0	4	0
415	670	0	10000	4	1	0	4	0
417	671	0	10000	4	1	0	4	0
416	673	0	10000	4	1	0	4	0
412	674	0	10000	4	1	0	4	0
407	675	0	10000	4	1	0	4	0
398	676	0	10000	4	1	0	4	0
392	677	0	10000	4	1	0	4	0
383	678	0	10000	4	1	0	4	0
373	679	0	10000	4	1	0	4	0
361	680	0	10000	4	1	0	4	0
347	680	0	10000	4	1	0	4	0
336	681	0	10000	4	1	0	4	0
327	683	0	10000	4	1	0	4	0
319	684	0	10000	4	1	0	4	0
312	685	0	10000	4	1	0	4	0
306	686	0	10000	4	1	0	4	0
303	687	0	10000	4	1	0	4	0
299	688	0	10000	4	1	0	4	0
299	689	0	10000	4	1	0	4	0
297	690	0	10000	4	1	0	4	0
294	690	0	10000	4	1	0	4	0
282	691	0	10000	4	1	0	4	0
270	693	0	10000	4	1	0	4	0
260	694	0	10000	4	1	0	4	0
252	695	0	10000	4	1	0	4	0
246	696	0	10000	4	1	0	4	0
241	697	0	10000	4	1	0	4	0
235	698	0	10000	4	1	0	4	0
232	699	0	10000	4	1	0	4	0
248	700	0	10000	4	1	0	4	0
257	700	0	10000	4	1	0	4	0
250	701	0	10000	4	1	0	4	0
255	703	0	10000	4	1	0	4	0
264	704	0	10000	4	1	0	4	0
274	705	0	10000	4	1	0	4	0
282	706	0	10000	4	1	0	4	0
283	707	0	10000	4	1	0	4	0
272	708	0	10000	4	1	0	4	0
261	709	0	10000	4	1	0	4	0
251	710	0	10000	4	1	0	4	0
244	710	0	10000	4	1	0	4	0
234	711	0	10000	4	1	0	4	0
232	713	0	10000	4	1	0	4	0
237	714	0	10000	4	1	0	4	0
244	715	0	10000	4	1	0	4	0
250	716	0	10000	4	1	0	4	0
249	717	0	10000	4	1	0	4	0
241	718	0	10000	4	1	0	4	0
234	719	0	10000	4	1	0	4	0
228	720	0	10000	4	1	0	4	0
224	720	0	10000	4	1	0	4	0
226	721	0	10000	4	1	0	4	0
228	723	0	10000	4	1	0	4	0
224	724	0	10000	4	1	0	4	0
217	725	0	10000	4	1	0	4	0
211	726	0	10000	4	1	0	4	0
202	727	0	10000	4	1	0	4	0
194	728	0	10000	4	1	0	4	0
188	729	0	10000	4	1	0	4	0
183	730	0	10000	4	1	0	4	0
181	730	0	10000	4	1	0	4	0
176	731	0	10000	4	1	0	4	0
170	733	0	10000	4	1	0	4	0
167	734	0	10000	4	1	0	4	0
164	735	0	10000	4	1	0	4	0
165	736	0	10000	4	1	0	4	0
160	737	0	10000	4	1	0	4	0
155	738	0	10000	4	1	0	4	0
154	739	0	10000	4	1	0	4	0
161	740	0	10000	4	1	0	4	0
170	740	0	10000	4	1	0	4	0
178	741	0	10000	4	1	0	4	0
185	743	0	10000	4	1	0	4	0
189	744	0	10000	4	1	0	4	0
185	745	0	10000	4	1	0	4	0
178	746	0	10000	4	1	0	4	0
171	747	0	10000	4	1	0	4	0
166	748	0	10000	4	1	0	4	0
162	749	0	10000	4	1	0	4	0
158	750	0	10000	4	1	0	4	0
153	750	0	10000	4	1	0	4	0
147	751	0	10000	4	1	0	4	0
144	753	0	10000	4	1	0	4	0
140	754	0	10000	4	1	0	4	0
135	755	0	10000	4	1	0	4	0
131	756	0	10000	4	1	0	4	0
130	757	0	10000	4	1	0	4	0
133	758	0	10000	4	1	0	4	0
141	759	0	10000	4	1	0	4	0
142	760	0	10000	4	1	0	4	0
151	760	0	10000	4	1	0	4	0
165	761	0	10000	4	1	0	4	0
176	763	0	10000	4	1	0	4	0
176	764	0	10000	4	1	0	4	0
171	765	0	10000	4	1	0	4	0
164	766	0	10000	4	1	0	4	0
162	767	0	10000	4	1	0	4	0
159	768	0	10000	4	1	0	4	0
156	769	0	10000	4	1	0	4	0
153	770	0	10000	4	1	0	4	0
152	770	0	10000	4	1	0	4	0
148	771	0	10000	4	1	0	4	0
144	773	0	10000	4	1	0	4	0
138	774	0	10000	4	1	0	4	0
132	775	0	10000	4	1	0	4	0
128	776	0	10000	4	1	0	4	0
124	777	0	10000	4	1	0	4	0
126	778	0	10000	4	1	0	4	0
125	779	0	10000	4	1	0	4	0
124	780	0	10000	4	1	0	4	0
125	780	0	10000	4	1	0	4	0
123	781	0	10000	4	1	0	4	0
122	783	0	10000	4	1	0	4	0
122	784	0	10000	4	1	0	4	0
125	785	0	10000	4	1	0	4	0
129	786	0	10000	4	1	0	4	0
130	787	0	10000	4	1	0	4	0
125	788	0	10000	4	1	0	4	0
122	789	0	10000	4	1	0	4	0
123	790	0	10000	4	1	0	4	0
133	790	0	10000	4	1	0	4	0
137	791	0	10000	4	1	0	4	0
132	793	0	10000	4	1	0	4	0
131	794	0	10000	4	1	0	4	0
132	795	0	10000	4	1	0	4	0
133	796	0	10000	4	1	0	4	0
132	797	0	10000	4	1	0	4	0
131	798	0	10000	4	1	0	4	0
131	799	0	10000	4	1	0	4	0
132	800	0	10000	4	1	0	4	0
131	800	0	10000	4	1	0	4	0
129	801	0	10000	4	1	0	4	0
129	803	0	10000	4	1	0	4	0
128	804	0	10000	4	1	0	4	0
125	805	0	10000	4	1	0	4	0
125	806	0	10000	4	1	0	4	0
124	807	0	10000	4	1	0	4	0
126	808	0	10000	4	1	0	4	0
133	809	0	10000	4	1	0	4	0
137	810	0	10000	4	1	0	4	0
138	810	0	10000	4	1	0	4	0
134	811	0	10000	4	1	0	4	0
129	813	0	10000	4	1	0	4	0
124	814	0	10000	4	1	0	4	0
123	815	0	10000	4	1	0	4	0
119	816	0	10000	4	1	0	4	0
118	817	0	10000	4	1	0	4	0
122	818	0	10000	4	1	0	4	0
126	819	0	10000	4	1	0	4	0
130	820	0	10000	4	1	0	4	0
128	820	0	10000	4	1	0	4	0
124	821	0	10000	4	1	0	4	0
124	823	0	10000	4	1	0	4	0
124	824	0	10000	4	1	0	4	0
120	825	0	10000	4	1	0	4	0
116	826	0	10000	4	1	0	4	0
113	827	0	10000	4	1	0	4	0
110	828	0	10000	4	1	0	4	0
105	829	0	10000	4	1	0	4	0
103	830	0	10000	4	1	0	4	0
106	830	0	10000	4	1	0	4	0
106	831	0	10000	4	1	0	4	0
103	833	0	10000	4	1	0	4	0
101	834	0	10000	4	1	0	4	0
100	835	0	10000	4	1	0	4	0
100	836	0	10000	4	1	0	4	0
102	837	0	10000	4	1	0	4	0
100	838	0	10000	4	1	0	4	0
105	839	0	10000	4	1	0	4	0
110	840	0	10000	4	1	0	4	0
107	840	0	10000	4	1	0	4	0
104	841	0	10000	4	1	0	4	0
101	843	0	10000	4	1	0	4	0
101	844	0	10000	4	1	0	4	0
106	845	0	10000	4	1	0	4	0
112	846	0	10000	4	1	0	4	0
115	847	0	10000	4	1	0	4	0
110	848	0	10000	4	1	0	4	0
106	849	0	10000	4	1	0	4	0
102	850	0	10000	4	1	0	4	0
100	850	0	10000	4	1	0	4	0
101	851	0	10000	4	1	0	4	0
106	853	0	10000	4	1	0	4	0
110	854	0	10000	4	1	0	4	0
106	855	0	10000	4	1	0	4	0
103	856	0	10000	4	1	0	4	0
100	857	0	10000	4	1	0	4	0
96	858	0	10000	4	1	0	4	0
93	859	0	10000	4	1	0	4	0
91	860	0	10000	4	1	0	4	0
90	860	0	10000	4	1	0	4	0
87	861	0	10000	4	1	0	4	0
85	863	0	10000	4	1	0	4	0
89	864	0	10000	4	1	0	4	0
92	865	0	10000	4	1	0	4	0
91	866	0	10000	4	1	0	4	0
88	867	0	10000	4	1	0	4	0
85	868	0	10000	4	1	0	4	0
86	869	0	10000	4	1	0	4	0
89	870	0	10000	4	1	0	4	0
93	870	0	10000	4	1	0	4	0
93	871	0	10000	4	1	0	4	0
90	873	0	10000	4	1	0	4	0
88	874	0	10000	4	1	0	4	0
83	875	0	10000	4	1	0	4	0
82	876	0	10000	4	1	0	4	0
82	877	0	10000	4	1	0	4	0
81	878	0	10000	4	1	0	4	0
78	879	0	10000	4	1	0	4	0
77	880	0	10000	4	1	0	4	0
73	880	0	10000	4	1	0	4	0
74	881	0	10000	4	1	0	4	0
78	883	0	10000	4	1	0	4	0
81	884	0	10000	4	1	0	4	0
87	885	0	10000	4	1	0	4	0
93	886	0	10000	4	1	0	4	0
97	887	0	10000	4	1	0	4	0
94	888	0	10000	4	1	0	4	0
95	889	0	10000	4	1	0	4	0
94	890	0	10000	4	1	0	4	0
96	890	0	10000	4	1	0	4	0
96	891	0	10000	4	1	0	4	0
92	893	0	10000	4	1	0	4	0
92	894	0	10000	4	1	0	4	0
91	895	0	10000	4	1	0	4	0
91	896	0	10000	4	1	0	4	0
92	897	0	10000	4	1	0	4	0
94	898	0	10000	4	1	0	4	0
108	899	0	10000	4	1	0	4	0
114	900	0	10000	4	1	0	4	0
113	900	0	10000	4	1	0	4	0
126	901	0	10000	4	1	0	4	0
141	903	0	10000	4	1	0	4	0
143	904	0	10000	4	1	0	4	0
139	905	0	10000	4	1	0	4	0
137	906	0	10000	4	1	0	4	0
131	907	0	10000	4	1	0	4	0
127	908	0	10000	4	1	0	4	0
125	909	0	10000	4	1	0	4	0
126	910	0	10000	4	1	0	4	0
125	910	0	10000	4	1	0	4	0
120	911	0	10000	4	1	0	4	0
116	913	0	10000	4	1	0	4	0
110	914	0	10000	4	1	0	4	0
105	915	0	10000	4	1	0	4	0
101	916	0	10000	4	1	0	4	0
98	917	0	10000	4	1	0	4	0
99	918	0	10000	4	1	0	4	0
103	919	0	10000	4	1	0	4	0
102	920	0	10000	4	1	0	4	0
97	920	0	10000	4	1	0	4	0
94	921	0	10000	4	1	0	4	0
92	923	0	10000	4	1	0	4	0
98	924	0	10000	4	1	0	4	0
104	925	0	10000	4	1	0	4	0
102	926	0	10000	4	1	0	4	0
100	927	0	10000	4	1	0	4	0
100	928	0	10000	4	1	0	4	0
104	929	0	10000	4	1	0	4	0
107	930	0	10000	4	1	0	4	0
107	930	0	10000	4	1	0	4	0
103	931	0	10000	4	1	0	4	0
98	933	0	10000	4	1	0	4	0
95	934	0	10000	4	1	0	4	0
91	935	0	10000	4	1	0	4	0
88	936	0	10000	4	1	0	4	0
85	937	0	10000	4	1	0	4	0
82	938	0	10000	4	1	0	4	0
80	939	0	10000	4	1	0	4	0
78	940	0	10000	4	1	0	4	0
76	940	0	10000	4	1	0	4	0
73	941	0	10000	4	1	0	4	0
75	943	0	10000	4	1	0	4	0
83	944	0	10000	4	1	0	4	0
87	945	0	10000	4	1	0	4	0
85	946	0	10000	4	1	0	4	0
86	947	0	10000	4	1	0	4	0
89	948	0	10000	4	1	0	4	0
89	949	0	10000	4	1	0	4	0
88	950	0	10000	4	1	0	4	0
95	950	0	10000	4	1	0	4	0
98	951	0	10000	4	1	0	4	0
100	953	0	10000	4	1	0	4	0
103	954	0	10000	4	1	0	4	0
107	955	0	10000	4	1	0	4	0
110	956	0	10000	4	1	0	4	0
110	957	0	10000	4	1	0	4	0
106	958	0	10000	4	1	0	4	0
102	959	0	10000	4	1	0	4	0
102	960	0	10000	4	1	0	4	0
101	960	0	10000	4	1	0	4	0
105	961	0	10000	4	1	0	4	0
117	963	0	10000	4	1	0	4	0
122	964	0	10000	4	1	0	4	0
121	965	0	10000	4	1	0	4	0
128	966	0	10000	4	1	0	4	0
135	967	0	10000	4	1	0	4	0
137	968	0	10000	4	1	0	4	0
134	969	0	10000	4	1	0	4	0
144	970	0	10000	4	1	0	4	0
153	970	0	10000	4	1	0	4	0
153	971	0	10000	4	1	0	4	0
151	973	0	10000	4	1	0	4	0
155	974	0	10000	4	1	0	4	0
156	975	0	10000	4	1	0	4	0
155	976	0	10000	4	1	0	4	0
159	977	0	10000	4	1	0	4	0
160	978	0	10000	4	1	0	4	0
154	979	0	10000	4	1	0	4	0
150	980	0	10000	4	1	0	4	0
143	980	0	10000	4	1	0	4	0
136	981	0	10000	4	1	0	4	0
132	983	0	10000	4	1	0	4	0
133	984	0	10000	4	1	0	4	0
136	985	0	10000	4	1	0	4	0
132	986	0	10000	4	1	0	4	0
129	987	0	10000	4	1	0	4	0
123	988	0	10000	4	1	0	4	0
123	989	0	10000	4	1	0	4	0
121	990	0	10000	4	1	0	4	0
117	990	0	10000	4	1	0	4	0
116	991	0	10000	4	1	0	4	0
116	993	0	10000	4	1	0	4	0
112	994	0	10000	4	1	0	4	0
112	995	0	10000	4	1	0	4	0
110	996	0	10000	4	1	0	4	0
107	997	0	10000	4	1	0	4	0
111	998	0	10000	4	1	0	4	0
110	999	0	10000	4	1	0	4	0
118	1000	0	10000	4	1	0	4	0
119	1000	0	10000	4	1	0	4	0
115	1001	0	10000	4	1	0	4	0
65	2	7	10000	5	1	0	5	0
65	3	7	10000	5	1	0	5	0
65	4	7	10000	5	1	0	5	0
64	5	7	10000	5	1	0	5	0
63	6	7	10000	5	1	0	5	0
65	7	7	10000	5	1	0	5	0
64	8	7	10000	5	1	0	5	0
62	9	7	10000	5	1	0	5	0
61	10	7	10000	5	1	0	5	0
59	11	7	10000	5	1	0	5	0
57	12	7	10000	5	1	0	5	0
58	13	7	10000	5	1	0	5	0
58	14	7	10000	5	1	0	5	0
63	15	7	10000	5	1	0	5	0
68	16	7	10000	5	1	0	5	0
67	17	7	10000	5	1	0	5	0
70	18	7	10000	5	1	0	5	0
76	19	7	10000	5	1	0	5	0
79	20	7	10000	5	1	0	5	0
81	21	7	10000	5	1	0	5	0
84	22	7	10000	5	1	0	5	0
85	23	7	10000	5	1	0	5	0
84	24	7	10000	5	1	0	5	0
83	25	7	10000	5	1	0	5	0
80	26	7	10000	5	1	0	5	0
77	27	7	10000	5	1	0	5	0
75	28	7	10000	5	1	0	5	0
76	29	7	10000	5	1	0	5	0
80	30	7	10000	5	1	0	5	0
81	31	7	10000	5	1	0	5	0
81	32	7	10000	5	1	0	5	0
79	33	7	10000	5	1	0	5	0
80	34	7	10000	5	1	0	5	0
85	35	7	10000	5	1	0	5	0
90	36	7	10000	5	1	0	5	0
92	37	7	10000	5	1	0	5	0
90	38	7	10000	5	1	0	5	0
87	39	7	10000	5	1	0	5	0
85	40	7	10000	5	1	0	5	0
84	41	7	10000	5	1	0	5	0
81	42	7	10000	5	1	0	5	0
78	43	7	10000	5	1	0	5	0
77	44	7	10000	5	1	0	5	0
74	45	7	10000	5	1	0	5	0
73	46	7	10000	5	1	0	5	0
70	47	7	10000	5	1	0	5	0
67	48	7	10000	5	1	0	5	0
65	49	7	10000	5	1	0	5	0
63	50	7	10000	5	1	0	5	0
60	51	7	10000	5	1	0	5	0
59	52	7	10000	5	1	0	5	0
56	53	7	10000	5	1	0	5	0
54	54	7	10000	5	1	0	5	0
52	55	7	10000	5	1	0	5	0
53	56	7	10000	5	1	0	5	0
53	57	7	10000	5	1	0	5	0
52	58	7	10000	5	1	0	5	0
51	59	7	10000	5	1	0	5	0
54	60	7	10000	5	1	0	5	0
56	61	7	10000	5	1	0	5	0
55	62	7	10000	5	1	0	5	0
55	63	7	10000	5	1	0	5	0
54	64	7	10000	5	1	0	5	0
53	65	7	10000	5	1	0	5	0
50	66	7	10000	5	1	0	5	0
52	67	7	10000	5	1	0	5	0
56	68	7	10000	5	1	0	5	0
57	69	7	10000	5	1	0	5	0
56	70	7	10000	5	1	0	5	0
58	71	7	10000	5	1	0	5	0
58	72	7	10000	5	1	0	5	0
56	73	7	10000	5	1	0	5	0
55	74	7	10000	5	1	0	5	0
57	75	7	10000	5	1	0	5	0
58	76	7	10000	5	1	0	5	0
57	77	7	10000	5	1	0	5	0
56	78	7	10000	5	1	0	5	0
54	79	7	10000	5	1	0	5	0
53	80	7	10000	5	1	0	5	0
55	81	7	10000	5	1	0	5	0
56	82	7	10000	5	1	0	5	0
59	83	7	10000	5	1	0	5	0
61	84	7	10000	5	1	0	5	0
62	85	7	10000	5	1	0	5	0
59	86	7	10000	5	1	0	5	0
57	87	7	10000	5	1	0	5	0
56	88	7	10000	5	1	0	5	0
55	89	7	10000	5	1	0	5	0
53	90	7	10000	5	1	0	5	0
53	91	7	10000	5	1	0	5	0
54	92	7	10000	5	1	0	5	0
53	93	7	10000	5	1	0	5	0
52	94	7	10000	5	1	0	5	0
49	95	7	10000	5	1	0	5	0
50	96	7	10000	5	1	0	5	0
50	97	7	10000	5	1	0	5	0
51	98	7	10000	5	1	0	5	0
48	99	7	10000	5	1	0	5	0
47	100	7	10000	5	1	0	5	0
50	101	7	10000	5	1	0	5	0
56	102	7	10000	5	1	0	5	0
61	103	7	10000	5	1	0	5	0
63	104	7	10000	5	1	0	5	0
60	105	7	10000	5	1	0	5	0
58	106	7	10000	5	1	0	5	0
57	107	7	10000	5	1	0	5	0
58	108	7	10000	5	1	0	5	0
58	109	7	10000	5	1	0	5	0
60	110	7	10000	5	1	0	5	0
65	111	7	10000	5	1	0	5	0
66	112	7	10000	5	1	0	5	0
63	113	7	10000	5	1	0	5	0
63	114	7	10000	5	1	0	5	0
66	115	7	10000	5	1	0	5	0
68	116	7	10000	5	1	0	5	0
67	117	7	10000	5	1	0	5	0
67	118	7	10000	5	1	0	5	0
69	119	7	10000	5	1	0	5	0
73	120	7	10000	5	1	0	5	0
76	121	7	10000	5	1	0	5	0
77	122	7	10000	5	1	0	5	0
77	123	7	10000	5	1	0	5	0
77	124	7	10000	5	1	0	5	0
76	125	7	10000	5	1	0	5	0
72	126	7	10000	5	1	0	5	0
69	127	7	10000	5	1	0	5	0
69	128	7	10000	5	1	0	5	0
70	129	7	10000	5	1	0	5	0
69	130	7	10000	5	1	0	5	0
69	131	7	10000	5	1	0	5	0
68	132	7	10000	5	1	0	5	0
67	133	7	10000	5	1	0	5	0
67	134	7	10000	5	1	0	5	0
65	135	7	10000	5	1	0	5	0
66	136	7	10000	5	1	0	5	0
68	137	7	10000	5	1	0	5	0
67	138	7	10000	5	1	0	5	0
64	139	7	10000	5	1	0	5	0
61	140	7	10000	5	1	0	5	0
60	141	7	10000	5	1	0	5	0
60	142	7	10000	5	1	0	5	0
63	143	7	10000	5	1	0	5	0
62	144	7	10000	5	1	0	5	0
62	145	7	10000	5	1	0	5	0
59	146	7	10000	5	1	0	5	0
58	147	7	10000	5	1	0	5	0
60	148	7	10000	5	1	0	5	0
61	149	7	10000	5	1	0	5	0
60	150	7	10000	5	1	0	5	0
58	151	7	10000	5	1	0	5	0
59	152	7	10000	5	1	0	5	0
60	153	7	10000	5	1	0	5	0
62	154	7	10000	5	1	0	5	0
63	155	7	10000	5	1	0	5	0
62	156	7	10000	5	1	0	5	0
62	157	7	10000	5	1	0	5	0
62	158	7	10000	5	1	0	5	0
63	159	7	10000	5	1	0	5	0
64	160	7	10000	5	1	0	5	0
69	161	7	10000	5	1	0	5	0
74	162	7	10000	5	1	0	5	0
78	163	7	10000	5	1	0	5	0
82	164	7	10000	5	1	0	5	0
84	165	7	10000	5	1	0	5	0
80	166	7	10000	5	1	0	5	0
80	167	7	10000	5	1	0	5	0
85	168	7	10000	5	1	0	5	0
85	169	7	10000	5	1	0	5	0
83	170	7	10000	5	1	0	5	0
82	171	7	10000	5	1	0	5	0
81	172	7	10000	5	1	0	5	0
80	173	7	10000	5	1	0	5	0
80	174	7	10000	5	1	0	5	0
79	175	7	10000	5	1	0	5	0
79	176	7	10000	5	1	0	5	0
76	177	7	10000	5	1	0	5	0
73	178	7	10000	5	1	0	5	0
71	179	7	10000	5	1	0	5	0
68	180	7	10000	5	1	0	5	0
66	181	7	10000	5	1	0	5	0
65	182	7	10000	5	1	0	5	0
62	183	7	10000	5	1	0	5	0
61	184	7	10000	5	1	0	5	0
58	185	7	10000	5	1	0	5	0
55	186	7	10000	5	1	0	5	0
53	187	7	10000	5	1	0	5	0
52	188	7	10000	5	1	0	5	0
50	189	7	10000	5	1	0	5	0
48	190	7	10000	5	1	0	5	0
46	191	7	10000	5	1	0	5	0
45	192	7	10000	5	1	0	5	0
44	193	7	10000	5	1	0	5	0
43	194	7	10000	5	1	0	5	0
41	195	7	10000	5	1	0	5	0
42	196	7	10000	5	1	0	5	0
41	197	7	10000	5	1	0	5	0
39	198	7	10000	5	1	0	5	0
38	199	7	10000	5	1	0	5	0
38	200	7	10000	5	1	0	5	0
37	201	7	10000	5	1	0	5	0
41	202	7	10000	5	1	0	5	0
47	203	7	10000	5	1	0	5	0
52	204	7	10000	5	1	0	5	0
57	205	7	10000	5	1	0	5	0
59	206	7	10000	5	1	0	5	0
60	207	7	10000	5	1	0	5	0
61	208	7	10000	5	1	0	5	0
62	209	7	10000	5	1	0	5	0
64	210	7	10000	5	1	0	5	0
61	211	7	10000	5	1	0	5	0
59	212	7	10000	5	1	0	5	0
57	213	7	10000	5	1	0	5	0
56	214	7	10000	5	1	0	5	0
54	215	7	10000	5	1	0	5	0
57	216	7	10000	5	1	0	5	0
63	217	7	10000	5	1	0	5	0
62	218	7	10000	5	1	0	5	0
60	219	7	10000	5	1	0	5	0
58	220	7	10000	5	1	0	5	0
59	221	7	10000	5	1	0	5	0
61	222	7	10000	5	1	0	5	0
63	223	7	10000	5	1	0	5	0
66	224	7	10000	5	1	0	5	0
67	225	7	10000	5	1	0	5	0
65	226	7	10000	5	1	0	5	0
65	227	7	10000	5	1	0	5	0
65	228	7	10000	5	1	0	5	0
68	229	7	10000	5	1	0	5	0
68	230	7	10000	5	1	0	5	0
68	231	7	10000	5	1	0	5	0
65	232	7	10000	5	1	0	5	0
63	233	7	10000	5	1	0	5	0
60	234	7	10000	5	1	0	5	0
58	235	7	10000	5	1	0	5	0
57	236	7	10000	5	1	0	5	0
56	237	7	10000	5	1	0	5	0
54	238	7	10000	5	1	0	5	0
52	239	7	10000	5	1	0	5	0
50	240	7	10000	5	1	0	5	0
52	241	7	10000	5	1	0	5	0
52	242	7	10000	5	1	0	5	0
53	243	7	10000	5	1	0	5	0
55	244	7	10000	5	1	0	5	0
53	245	7	10000	5	1	0	5	0
50	246	7	10000	5	1	0	5	0
49	247	7	10000	5	1	0	5	0
50	248	7	10000	5	1	0	5	0
52	249	7	10000	5	1	0	5	0
56	250	7	10000	5	1	0	5	0
57	251	7	10000	5	1	0	5	0
56	252	7	10000	5	1	0	5	0
54	253	7	10000	5	1	0	5	0
52	254	7	10000	5	1	0	5	0
50	255	7	10000	5	1	0	5	0
49	256	7	10000	5	1	0	5	0
49	257	7	10000	5	1	0	5	0
48	258	7	10000	5	1	0	5	0
47	259	7	10000	5	1	0	5	0
46	260	7	10000	5	1	0	5	0
47	261	7	10000	5	1	0	5	0
52	262	7	10000	5	1	0	5	0
57	263	7	10000	5	1	0	5	0
57	264	7	10000	5	1	0	5	0
59	265	7	10000	5	1	0	5	0
60	266	7	10000	5	1	0	5	0
60	267	7	10000	5	1	0	5	0
60	268	7	10000	5	1	0	5	0
60	269	7	10000	5	1	0	5	0
60	270	7	10000	5	1	0	5	0
60	271	7	10000	5	1	0	5	0
60	272	7	10000	5	1	0	5	0
58	273	7	10000	5	1	0	5	0
58	274	7	10000	5	1	0	5	0
58	275	7	10000	5	1	0	5	0
57	276	7	10000	5	1	0	5	0
57	277	7	10000	5	1	0	5	0
55	278	7	10000	5	1	0	5	0
52	279	7	10000	5	1	0	5	0
50	280	7	10000	5	1	0	5	0
48	281	7	10000	5	1	0	5	0
46	282	7	10000	5	1	0	5	0
45	283	7	10000	5	1	0	5	0
45	284	7	10000	5	1	0	5	0
45	285	7	10000	5	1	0	5	0
44	286	7	10000	5	1	0	5	0
41	287	7	10000	5	1	0	5	0
41	288	7	10000	5	1	0	5	0
41	289	7	10000	5	1	0	5	0
40	290	7	10000	5	1	0	5	0
38	291	7	10000	5	1	0	5	0
38	292	7	10000	5	1	0	5	0
41	293	7	10000	5	1	0	5	0
45	294	7	10000	5	1	0	5	0
47	295	7	10000	5	1	0	5	0
52	296	7	10000	5	1	0	5	0
56	297	7	10000	5	1	0	5	0
56	298	7	10000	5	1	0	5	0
55	299	7	10000	5	1	0	5	0
57	300	7	10000	5	1	0	5	0
56	301	7	10000	5	1	0	5	0
55	302	7	10000	5	1	0	5	0
54	303	7	10000	5	1	0	5	0
54	304	7	10000	5	1	0	5	0
58	305	7	10000	5	1	0	5	0
60	306	7	10000	5	1	0	5	0
63	307	7	10000	5	1	0	5	0
65	308	7	10000	5	1	0	5	0
64	309	7	10000	5	1	0	5	0
63	310	7	10000	5	1	0	5	0
62	311	7	10000	5	1	0	5	0
61	312	7	10000	5	1	0	5	0
62	313	7	10000	5	1	0	5	0
62	314	7	10000	5	1	0	5	0
60	315	7	10000	5	1	0	5	0
58	316	7	10000	5	1	0	5	0
58	317	7	10000	5	1	0	5	0
57	318	7	10000	5	1	0	5	0
56	319	7	10000	5	1	0	5	0
55	320	7	10000	5	1	0	5	0
53	321	7	10000	5	1	0	5	0
50	322	7	10000	5	1	0	5	0
48	323	7	10000	5	1	0	5	0
46	324	7	10000	5	1	0	5	0
46	325	7	10000	5	1	0	5	0
44	326	7	10000	5	1	0	5	0
44	327	7	10000	5	1	0	5	0
45	328	7	10000	5	1	0	5	0
48	329	7	10000	5	1	0	5	0
50	330	7	10000	5	1	0	5	0
51	331	7	10000	5	1	0	5	0
50	332	7	10000	5	1	0	5	0
48	333	7	10000	5	1	0	5	0
49	334	7	10000	5	1	0	5	0
46	335	7	10000	5	1	0	5	0
46	336	7	10000	5	1	0	5	0
46	337	7	10000	5	1	0	5	0
47	338	7	10000	5	1	0	5	0
51	339	7	10000	5	1	0	5	0
56	340	7	10000	5	1	0	5	0
58	341	7	10000	5	1	0	5	0
58	342	7	10000	5	1	0	5	0
57	343	7	10000	5	1	0	5	0
56	344	7	10000	5	1	0	5	0
56	345	7	10000	5	1	0	5	0
53	346	7	10000	5	1	0	5	0
52	347	7	10000	5	1	0	5	0
53	348	7	10000	5	1	0	5	0
50	349	7	10000	5	1	0	5	0
49	350	7	10000	5	1	0	5	0
48	351	7	10000	5	1	0	5	0
47	352	7	10000	5	1	0	5	0
47	353	7	10000	5	1	0	5	0
49	354	7	10000	5	1	0	5	0
51	355	7	10000	5	1	0	5	0
52	356	7	10000	5	1	0	5	0
50	357	7	10000	5	1	0	5	0
49	358	7	10000	5	1	0	5	0
46	359	7	10000	5	1	0	5	0
47	360	7	10000	5	1	0	5	0
46	361	7	10000	5	1	0	5	0
46	362	7	10000	5	1	0	5	0
47	363	7	10000	5	1	0	5	0
48	364	7	10000	5	1	0	5	0
49	365	7	10000	5	1	0	5	0
46	366	7	10000	5	1	0	5	0
44	367	7	10000	5	1	0	5	0
44	368	7	10000	5	1	0	5	0
44	369	7	10000	5	1	0	5	0
42	370	7	10000	5	1	0	5	0
40	371	7	10000	5	1	0	5	0
38	372	7	10000	5	1	0	5	0
36	373	7	10000	5	1	0	5	0
35	374	7	10000	5	1	0	5	0
33	375	7	10000	5	1	0	5	0
33	376	7	10000	5	1	0	5	0
36	377	7	10000	5	1	0	5	0
40	378	7	10000	5	1	0	5	0
40	379	7	10000	5	1	0	5	0
40	380	7	10000	5	1	0	5	0
41	381	7	10000	5	1	0	5	0
40	382	7	10000	5	1	0	5	0
40	383	7	10000	5	1	0	5	0
41	384	7	10000	5	1	0	5	0
41	385	7	10000	5	1	0	5	0
39	386	7	10000	5	1	0	5	0
39	387	7	10000	5	1	0	5	0
41	388	7	10000	5	1	0	5	0
42	389	7	10000	5	1	0	5	0
43	390	7	10000	5	1	0	5	0
43	391	7	10000	5	1	0	5	0
42	392	7	10000	5	1	0	5	0
42	393	7	10000	5	1	0	5	0
42	394	7	10000	5	1	0	5	0
41	395	7	10000	5	1	0	5	0
42	396	7	10000	5	1	0	5	0
41	397	7	10000	5	1	0	5	0
41	398	7	10000	5	1	0	5	0
41	399	7	10000	5	1	0	5	0
43	400	7	10000	5	1	0	5	0
44	401	7	10000	5	1	0	5	0
44	402	7	10000	5	1	0	5	0
44	403	7	10000	5	1	0	5	0
42	404	7	10000	5	1	0	5	0
42	405	7	10000	5	1	0	5	0
39	406	7	10000	5	1	0	5	0
38	407	7	10000	5	1	0	5	0
37	408	7	10000	5	1	0	5	0
36	409	7	10000	5	1	0	5	0
37	410	7	10000	5	1	0	5	0
35	411	7	10000	5	1	0	5	0
34	412	7	10000	5	1	0	5	0
34	413	7	10000	5	1	0	5	0
33	414	7	10000	5	1	0	5	0
34	415	7	10000	5	1	0	5	0
35	416	7	10000	5	1	0	5	0
38	417	7	10000	5	1	0	5	0
39	418	7	10000	5	1	0	5	0
38	419	7	10000	5	1	0	5	0
36	420	7	10000	5	1	0	5	0
34	421	7	10000	5	1	0	5	0
36	422	7	10000	5	1	0	5	0
40	423	7	10000	5	1	0	5	0
42	424	7	10000	5	1	0	5	0
42	425	7	10000	5	1	0	5	0
41	426	7	10000	5	1	0	5	0
40	427	7	10000	5	1	0	5	0
40	428	7	10000	5	1	0	5	0
41	429	7	10000	5	1	0	5	0
42	430	7	10000	5	1	0	5	0
42	431	7	10000	5	1	0	5	0
41	432	7	10000	5	1	0	5	0
43	433	7	10000	5	1	0	5	0
43	434	7	10000	5	1	0	5	0
42	435	7	10000	5	1	0	5	0
45	436	7	10000	5	1	0	5	0
49	437	7	10000	5	1	0	5	0
52	438	7	10000	5	1	0	5	0
55	439	7	10000	5	1	0	5	0
55	440	7	10000	5	1	0	5	0
53	441	7	10000	5	1	0	5	0
51	442	7	10000	5	1	0	5	0
49	443	7	10000	5	1	0	5	0
50	444	7	10000	5	1	0	5	0
51	445	7	10000	5	1	0	5	0
51	446	7	10000	5	1	0	5	0
51	447	7	10000	5	1	0	5	0
51	448	7	10000	5	1	0	5	0
49	449	7	10000	5	1	0	5	0
49	450	7	10000	5	1	0	5	0
47	451	7	10000	5	1	0	5	0
45	452	7	10000	5	1	0	5	0
45	453	7	10000	5	1	0	5	0
44	454	7	10000	5	1	0	5	0
44	455	7	10000	5	1	0	5	0
45	456	7	10000	5	1	0	5	0
46	457	7	10000	5	1	0	5	0
46	458	7	10000	5	1	0	5	0
48	459	7	10000	5	1	0	5	0
52	460	7	10000	5	1	0	5	0
54	461	7	10000	5	1	0	5	0
52	462	7	10000	5	1	0	5	0
51	463	7	10000	5	1	0	5	0
52	464	7	10000	5	1	0	5	0
50	465	7	10000	5	1	0	5	0
51	466	7	10000	5	1	0	5	0
54	467	7	10000	5	1	0	5	0
58	468	7	10000	5	1	0	5	0
62	469	7	10000	5	1	0	5	0
62	470	7	10000	5	1	0	5	0
59	471	7	10000	5	1	0	5	0
58	472	7	10000	5	1	0	5	0
58	473	7	10000	5	1	0	5	0
57	474	7	10000	5	1	0	5	0
56	475	7	10000	5	1	0	5	0
54	476	7	10000	5	1	0	5	0
53	477	7	10000	5	1	0	5	0
51	478	7	10000	5	1	0	5	0
50	479	7	10000	5	1	0	5	0
51	480	7	10000	5	1	0	5	0
50	481	7	10000	5	1	0	5	0
50	482	7	10000	5	1	0	5	0
49	483	7	10000	5	1	0	5	0
48	484	7	10000	5	1	0	5	0
49	485	7	10000	5	1	0	5	0
52	486	7	10000	5	1	0	5	0
55	487	7	10000	5	1	0	5	0
57	488	7	10000	5	1	0	5	0
59	489	7	10000	5	1	0	5	0
59	490	7	10000	5	1	0	5	0
59	491	7	10000	5	1	0	5	0
58	492	7	10000	5	1	0	5	0
57	493	7	10000	5	1	0	5	0
57	494	7	10000	5	1	0	5	0
56	495	7	10000	5	1	0	5	0
56	496	7	10000	5	1	0	5	0
57	497	7	10000	5	1	0	5	0
58	498	7	10000	5	1	0	5	0
57	499	7	10000	5	1	0	5	0
55	500	7	10000	5	1	0	5	0
53	501	7	10000	5	1	0	5	0
52	502	7	10000	5	1	0	5	1
56	503	7	10000	5	1	0	5	1
56	504	7	10000	5	1	0	5	1
56	505	7	10000	5	1	0	5	1
56	506	7	10000	5	1	0	5	1
57	507	7	10000	5	1	0	5	1
60	508	7	10000	5	1	0	5	1
63	509	7	10000	5	1	0	5	1
61	510	7	10000	5	1	0	5	1
59	511	7	10000	5	1	0	5	1
59	512	7	10000	5	1	0	5	1
57	513	7	10000	5	1	0	5	1
55	514	7	10000	5	1	0	5	1
55	515	7	10000	5	1	0	5	1
56	516	7	10000	5	1	0	5	1
59	517	7	10000	5	1	0	5	1
60	518	7	10000	5	1	0	5	1
60	519	7	10000	5	1	0	5	1
59	520	7	10000	5	1	0	5	1
57	521	7	10000	5	1	0	5	1
57	522	7	10000	5	1	0	5	1
60	523	7	10000	5	1	0	5	1
63	524	7	10000	5	1	0	5	1
66	525	7	10000	5	1	0	5	1
66	526	7	10000	5	1	0	5	1
64	527	7	10000	5	1	0	5	1
62	528	7	10000	5	1	0	5	1
60	529	7	10000	5	1	0	5	1
58	530	7	10000	5	1	0	5	1
58	531	7	10000	5	1	0	5	1
57	532	7	10000	5	1	0	5	1
55	533	7	10000	5	1	0	5	1
56	534	7	10000	5	1	0	5	1
55	535	7	10000	5	1	0	5	1
57	536	7	10000	5	1	0	5	1
58	537	7	10000	5	1	0	5	1
56	538	7	10000	5	1	0	5	1
56	539	7	10000	5	1	0	5	1
56	540	7	10000	5	1	0	5	1
57	541	7	10000	5	1	0	5	1
58	542	7	10000	5	1	0	5	1
59	543	7	10000	5	1	0	5	1
58	544	7	10000	5	1	0	5	1
62	545	7	10000	5	1	0	5	1
61	546	7	10000	5	1	0	5	1
59	547	7	10000	5	1	0	5	1
60	548	7	10000	5	1	0	5	1
59	549	7	10000	5	1	0	5	1
58	550	7	10000	5	1	0	5	1
58	551	7	10000	5	1	0	5	1
57	552	7	10000	5	1	0	5	0
57	553	7	10000	5	1	0	5	0
56	554	7	10000	5	1	0	5	0
54	555	7	10000	5	1	0	5	0
53	556	7	10000	5	1	0	5	0
53	557	7	10000	5	1	0	5	0
51	558	7	10000	5	1	0	5	0
51	559	7	10000	5	1	0	5	0
53	560	7	10000	5	1	0	5	0
51	561	7	10000	5	1	0	5	0
49	562	7	10000	5	1	0	5	0
47	563	7	10000	5	1	0	5	0
47	564	7	10000	5	1	0	5	0
49	565	7	10000	5	1	0	5	0
50	566	7	10000	5	1	0	5	0
50	567	7	10000	5	1	0	5	0
53	568	7	10000	5	1	0	5	0
53	569	7	10000	5	1	0	5	0
51	570	7	10000	5	1	0	5	0
51	571	7	10000	5	1	0	5	0
52	572	7	10000	5	1	0	5	0
51	573	7	10000	5	1	0	5	0
49	574	7	10000	5	1	0	5	0
46	575	7	10000	5	1	0	5	0
47	576	7	10000	5	1	0	5	0
46	577	7	10000	5	1	0	5	0
44	578	7	10000	5	1	0	5	0
44	579	7	10000	5	1	0	5	0
44	580	7	10000	5	1	0	5	0
44	581	7	10000	5	1	0	5	0
44	582	7	10000	5	1	0	5	0
43	583	7	10000	5	1	0	5	0
45	584	7	10000	5	1	0	5	0
45	585	7	10000	5	1	0	5	0
44	586	7	10000	5	1	0	5	0
45	587	7	10000	5	1	0	5	0
47	588	7	10000	5	1	0	5	0
48	589	7	10000	5	1	0	5	0
52	590	7	10000	5	1	0	5	0
73	591	7	10000	5	1	0	5	0
151	592	7	10000	5	1	0	5	0
201	593	7	10000	5	1	0	5	0
216	594	7	10000	5	1	0	5	0
218	595	7	10000	5	1	0	5	0
226	596	7	10000	5	1	0	5	0
250	597	7	10000	5	1	0	5	0
288	598	7	10000	5	1	0	5	0
332	599	7	10000	5	1	0	5	0
349	600	7	10000	5	1	0	5	0
341	601	7	10000	5	1	0	5	0
337	602	7	10000	5	1	0	5	0
349	603	7	10000	5	1	0	5	0
345	604	7	10000	5	1	0	5	0
399	605	7	10000	5	1	0	5	0
409	606	7	10000	5	1	0	5	0
434	607	7	10000	5	1	0	5	0
475	608	7	10000	5	1	0	5	0
500	609	7	10000	5	1	0	5	0
487	610	7	10000	5	1	0	5	0
466	611	7	10000	5	1	0	5	0
449	612	7	10000	5	1	0	5	0
443	613	7	10000	5	1	0	5	0
450	614	7	10000	5	1	0	5	0
472	615	7	10000	5	1	0	5	0
468	616	7	10000	5	1	0	5	0
458	617	7	10000	5	1	0	5	0
462	618	7	10000	5	1	0	5	0
483	619	7	10000	5	1	0	5	0
508	620	7	10000	5	1	0	5	0
495	621	7	10000	5	1	0	5	0
498	622	7	10000	5	1	0	5	0
531	623	7	10000	5	1	0	5	0
557	624	7	10000	5	1	0	5	0
560	625	7	10000	5	1	0	5	0
546	626	7	10000	5	1	0	5	0
522	627	7	10000	5	1	0	5	0
502	628	7	10000	5	1	0	5	0
483	629	7	10000	5	1	0	5	0
464	630	7	10000	5	1	0	5	0
442	631	7	10000	5	1	0	5	0
422	632	7	10000	5	1	0	5	0
403	633	7	10000	5	1	0	5	0
383	634	7	10000	5	1	0	5	0
367	635	7	10000	5	1	0	5	0
352	636	7	10000	5	1	0	5	0
338	637	7	10000	5	1	0	5	0
322	638	7	10000	5	1	0	5	0
309	639	7	10000	5	1	0	5	0
301	640	7	10000	5	1	0	5	0
294	641	7	10000	5	1	0	5	0
286	642	7	10000	5	1	0	5	0
275	643	7	10000	5	1	0	5	0
267	644	7	10000	5	1	0	5	0
255	645	7	10000	5	1	0	5	0
248	646	7	10000	5	1	0	5	0
241	647	7	10000	5	1	0	5	0
237	648	7	10000	5	1	0	5	0
235	649	7	10000	5	1	0	5	0
228	650	7	10000	5	1	0	5	0
218	651	7	10000	5	1	0	5	0
209	652	7	10000	5	1	0	5	0
203	653	7	10000	5	1	0	5	0
198	654	7	10000	5	1	0	5	0
193	655	7	10000	5	1	0	5	0
187	656	7	10000	5	1	0	5	0
181	657	7	10000	5	1	0	5	0
175	658	7	10000	5	1	0	5	0
169	659	7	10000	5	1	0	5	0
165	660	7	10000	5	1	0	5	0
163	661	7	10000	5	1	0	5	0
160	662	7	10000	5	1	0	5	0
156	663	7	10000	5	1	0	5	0
153	664	7	10000	5	1	0	5	0
152	665	7	10000	5	1	0	5	0
149	666	7	10000	5	1	0	5	0
146	667	7	10000	5	1	0	5	0
145	668	7	10000	5	1	0	5	0
145	669	7	10000	5	1	0	5	0
146	670	7	10000	5	1	0	5	0
146	671	7	10000	5	1	0	5	0
144	672	7	10000	5	1	0	5	0
141	673	7	10000	5	1	0	5	0
140	674	7	10000	5	1	0	5	0
137	675	7	10000	5	1	0	5	0
136	676	7	10000	5	1	0	5	0
131	677	7	10000	5	1	0	5	0
127	678	7	10000	5	1	0	5	0
120	679	7	10000	5	1	0	5	0
116	680	7	10000	5	1	0	5	0
113	681	7	10000	5	1	0	5	0
109	682	7	10000	5	1	0	5	0
106	683	7	10000	5	1	0	5	0
105	684	7	10000	5	1	0	5	0
104	685	7	10000	5	1	0	5	0
101	686	7	10000	5	1	0	5	0
97	687	7	10000	5	1	0	5	0
93	688	7	10000	5	1	0	5	0
90	689	7	10000	5	1	0	5	0
87	690	7	10000	5	1	0	5	0
82	691	7	10000	5	1	0	5	0
80	692	7	10000	5	1	0	5	0
80	693	7	10000	5	1	0	5	0
79	694	7	10000	5	1	0	5	0
77	695	7	10000	5	1	0	5	0
77	696	7	10000	5	1	0	5	0
79	697	7	10000	5	1	0	5	0
79	698	7	10000	5	1	0	5	0
79	699	7	10000	5	1	0	5	0
79	700	7	10000	5	1	0	5	0
77	701	7	10000	5	1	0	5	0
74	702	7	10000	5	1	0	5	0
72	703	7	10000	5	1	0	5	0
71	704	7	10000	5	1	0	5	0
69	705	7	10000	5	1	0	5	0
67	706	7	10000	5	1	0	5	0
68	707	7	10000	5	1	0	5	0
69	708	7	10000	5	1	0	5	0
67	709	7	10000	5	1	0	5	0
65	710	7	10000	5	1	0	5	0
65	711	7	10000	5	1	0	5	0
70	712	7	10000	5	1	0	5	0
77	713	7	10000	5	1	0	5	0
80	714	7	10000	5	1	0	5	0
78	715	7	10000	5	1	0	5	0
79	716	7	10000	5	1	0	5	0
80	717	7	10000	5	1	0	5	0
84	718	7	10000	5	1	0	5	0
89	719	7	10000	5	1	0	5	0
92	720	7	10000	5	1	0	5	0
96	721	7	10000	5	1	0	5	0
98	722	7	10000	5	1	0	5	0
98	723	7	10000	5	1	0	5	0
96	724	7	10000	5	1	0	5	0
93	725	7	10000	5	1	0	5	0
88	726	7	10000	5	1	0	5	0
83	727	7	10000	5	1	0	5	0
80	728	7	10000	5	1	0	5	0
78	729	7	10000	5	1	0	5	0
77	730	7	10000	5	1	0	5	0
78	731	7	10000	5	1	0	5	0
80	732	7	10000	5	1	0	5	0
82	733	7	10000	5	1	0	5	0
84	734	7	10000	5	1	0	5	0
83	735	7	10000	5	1	0	5	0
82	736	7	10000	5	1	0	5	0
80	737	7	10000	5	1	0	5	0
78	738	7	10000	5	1	0	5	0
77	739	7	10000	5	1	0	5	0
78	740	7	10000	5	1	0	5	0
78	741	7	10000	5	1	0	5	0
78	742	7	10000	5	1	0	5	0
78	743	7	10000	5	1	0	5	0
77	744	7	10000	5	1	0	5	0
78	745	7	10000	5	1	0	5	0
75	746	7	10000	5	1	0	5	0
72	747	7	10000	5	1	0	5	0
71	748	7	10000	5	1	0	5	0
74	749	7	10000	5	1	0	5	0
80	750	7	10000	5	1	0	5	0
80	751	7	10000	5	1	0	5	0
80	752	7	10000	5	1	0	5	0
81	753	7	10000	5	1	0	5	0
