value	EMG	Stimulus	EMG_sensitivity	Total_Trial_Nr	practise	acq	probe_nr	Startle_Probe
105	1	0	10000	1	1	0	1	0
103	2	0	10000	1	1	0	1	0
104	3	0	10000	1	1	0	1	0
106	4	0	10000	1	1	0	1	0
108	5	0	10000	1	1	0	1	0
107	6	0	10000	1	1	0	1	0
106	7	0	10000	1	1	0	1	0
109	8	0	10000	1	1	0	1	0
111	9	0	10000	1	1	0	1	0
115	10	0	10000	1	1	0	1	0
112	11	0	10000	1	1	0	1	0
111	12	0	10000	1	1	0	1	0
112	13	0	10000	1	1	0	1	0
110	14	0	10000	1	1	0	1	0
109	15	0	10000	1	1	0	1	0
104	16	0	10000	1	1	0	1	0
104	17	0	10000	1	1	0	1	0
102	18	0	10000	1	1	0	1	0
101	19	0	10000	1	1	0	1	0
98	20	0	10000	1	1	0	1	0
95	20	0	10000	1	1	0	1	0
95	21	0	10000	1	1	0	1	0
94	23	0	10000	1	1	0	1	0
94	24	0	10000	1	1	0	1	0
91	25	0	10000	1	1	0	1	0
89	26	0	10000	1	1	0	1	0
86	27	0	10000	1	1	0	1	0
85	28	0	10000	1	1	0	1	0
84	29	0	10000	1	1	0	1	0
80	30	0	10000	1	1	0	1	0
77	30	0	10000	1	1	0	1	0
75	31	0	10000	1	1	0	1	0
71	33	0	10000	1	1	0	1	0
69	34	0	10000	1	1	0	1	0
67	35	0	10000	1	1	0	1	0
64	36	0	10000	1	1	0	1	0
64	37	0	10000	1	1	0	1	0
62	38	0	10000	1	1	0	1	0
60	39	0	10000	1	1	0	1	0
58	40	0	10000	1	1	0	1	0
59	40	0	10000	1	1	0	1	0
60	41	0	10000	1	1	0	1	0
60	43	0	10000	1	1	0	1	0
58	44	0	10000	1	1	0	1	0
58	45	0	10000	1	1	0	1	0
59	46	0	10000	1	1	0	1	0
58	47	0	10000	1	1	0	1	0
58	48	0	10000	1	1	0	1	0
56	49	0	10000	1	1	0	1	0
57	50	0	10000	1	1	0	1	0
57	50	0	10000	1	1	0	1	0
58	51	0	10000	1	1	0	1	0
58	53	0	10000	1	1	0	1	0
55	54	0	10000	1	1	0	1	0
54	55	0	10000	1	1	0	1	0
54	56	0	10000	1	1	0	1	0
55	57	0	10000	1	1	0	1	0
53	58	0	10000	1	1	0	1	0
52	59	0	10000	1	1	0	1	0
50	60	0	10000	1	1	0	1	0
49	60	0	10000	1	1	0	1	0
48	61	0	10000	1	1	0	1	0
47	63	0	10000	1	1	0	1	0
46	64	0	10000	1	1	0	1	0
46	65	0	10000	1	1	0	1	0
46	66	0	10000	1	1	0	1	0
44	67	0	10000	1	1	0	1	0
42	68	0	10000	1	1	0	1	0
42	69	0	10000	1	1	0	1	0
41	70	0	10000	1	1	0	1	0
39	70	0	10000	1	1	0	1	0
39	71	0	10000	1	1	0	1	0
41	73	0	10000	1	1	0	1	0
39	74	0	10000	1	1	0	1	0
38	75	0	10000	1	1	0	1	0
36	76	0	10000	1	1	0	1	0
37	77	0	10000	1	1	0	1	0
37	78	0	10000	1	1	0	1	0
35	79	0	10000	1	1	0	1	0
33	80	0	10000	1	1	0	1	0
32	80	0	10000	1	1	0	1	0
35	81	0	10000	1	1	0	1	0
35	83	0	10000	1	1	0	1	0
35	84	0	10000	1	1	0	1	0
36	85	0	10000	1	1	0	1	0
37	86	0	10000	1	1	0	1	0
38	87	0	10000	1	1	0	1	0
37	88	0	10000	1	1	0	1	0
36	89	0	10000	1	1	0	1	0
35	90	0	10000	1	1	0	1	0
38	90	0	10000	1	1	0	1	0
42	91	0	10000	1	1	0	1	0
44	93	0	10000	1	1	0	1	0
45	94	0	10000	1	1	0	1	0
47	95	0	10000	1	1	0	1	0
52	96	0	10000	1	1	0	1	0
57	97	0	10000	1	1	0	1	0
58	98	0	10000	1	1	0	1	0
60	99	0	10000	1	1	0	1	0
61	100	0	10000	1	1	0	1	0
66	100	0	10000	1	1	0	1	0
69	101	0	10000	1	1	0	1	0
69	103	0	10000	1	1	0	1	0
71	104	0	10000	1	1	0	1	0
73	105	0	10000	1	1	0	1	0
76	106	0	10000	1	1	0	1	0
76	107	0	10000	1	1	0	1	0
78	108	0	10000	1	1	0	1	0
77	109	0	10000	1	1	0	1	0
80	110	0	10000	1	1	0	1	0
84	110	0	10000	1	1	0	1	0
84	111	0	10000	1	1	0	1	0
85	113	0	10000	1	1	0	1	0
87	114	0	10000	1	1	0	1	0
91	115	0	10000	1	1	0	1	0
96	116	0	10000	1	1	0	1	0
102	117	0	10000	1	1	0	1	0
107	118	0	10000	1	1	0	1	0
115	119	0	10000	1	1	0	1	0
122	120	0	10000	1	1	0	1	0
122	120	0	10000	1	1	0	1	0
119	121	0	10000	1	1	0	1	0
117	123	0	10000	1	1	0	1	0
116	124	0	10000	1	1	0	1	0
115	125	0	10000	1	1	0	1	0
114	126	0	10000	1	1	0	1	0
112	127	0	10000	1	1	0	1	0
117	128	0	10000	1	1	0	1	0
124	129	0	10000	1	1	0	1	0
130	130	0	10000	1	1	0	1	0
134	130	0	10000	1	1	0	1	0
138	131	0	10000	1	1	0	1	0
137	133	0	10000	1	1	0	1	0
131	134	0	10000	1	1	0	1	0
128	135	0	10000	1	1	0	1	0
134	136	0	10000	1	1	0	1	0
160	137	0	10000	1	1	0	1	0
169	138	0	10000	1	1	0	1	0
162	139	0	10000	1	1	0	1	0
159	140	0	10000	1	1	0	1	0
159	140	0	10000	1	1	0	1	0
162	141	0	10000	1	1	0	1	0
165	143	0	10000	1	1	0	1	0
164	144	0	10000	1	1	0	1	0
160	145	0	10000	1	1	0	1	0
162	146	0	10000	1	1	0	1	0
168	147	0	10000	1	1	0	1	0
178	148	0	10000	1	1	0	1	0
176	149	0	10000	1	1	0	1	0
183	150	0	10000	1	1	0	1	0
186	150	0	10000	1	1	0	1	0
185	151	0	10000	1	1	0	1	0
192	153	0	10000	1	1	0	1	0
198	154	0	10000	1	1	0	1	0
194	155	0	10000	1	1	0	1	0
187	156	0	10000	1	1	0	1	0
184	157	0	10000	1	1	0	1	0
188	158	0	10000	1	1	0	1	0
186	159	0	10000	1	1	0	1	0
182	160	0	10000	1	1	0	1	0
182	160	0	10000	1	1	0	1	0
184	161	0	10000	1	1	0	1	0
177	163	0	10000	1	1	0	1	0
174	164	0	10000	1	1	0	1	0
173	165	0	10000	1	1	0	1	0
178	166	0	10000	1	1	0	1	0
191	167	0	10000	1	1	0	1	0
201	168	0	10000	1	1	0	1	0
205	169	0	10000	1	1	0	1	0
198	170	0	10000	1	1	0	1	0
191	170	0	10000	1	1	0	1	0
182	171	0	10000	1	1	0	1	0
175	173	0	10000	1	1	0	1	0
167	174	0	10000	1	1	0	1	0
162	175	0	10000	1	1	0	1	0
157	176	0	10000	1	1	0	1	0
154	177	0	10000	1	1	0	1	0
153	178	0	10000	1	1	0	1	0
148	179	0	10000	1	1	0	1	0
141	180	0	10000	1	1	0	1	0
136	180	0	10000	1	1	0	1	0
138	181	0	10000	1	1	0	1	0
136	183	0	10000	1	1	0	1	0
131	184	0	10000	1	1	0	1	0
127	185	0	10000	1	1	0	1	0
122	186	0	10000	1	1	0	1	0
116	187	0	10000	1	1	0	1	0
115	188	0	10000	1	1	0	1	0
114	189	0	10000	1	1	0	1	0
111	190	0	10000	1	1	0	1	0
108	190	0	10000	1	1	0	1	0
104	191	0	10000	1	1	0	1	0
101	193	0	10000	1	1	0	1	0
97	194	0	10000	1	1	0	1	0
97	195	0	10000	1	1	0	1	0
99	196	0	10000	1	1	0	1	0
104	197	0	10000	1	1	0	1	0
106	198	0	10000	1	1	0	1	0
107	199	0	10000	1	1	0	1	0
110	200	0	10000	1	1	0	1	0
109	200	0	10000	1	1	0	1	0
110	201	0	10000	1	1	0	1	0
112	203	0	10000	1	1	0	1	0
114	204	0	10000	1	1	0	1	0
115	205	0	10000	1	1	0	1	0
114	206	0	10000	1	1	0	1	0
113	207	0	10000	1	1	0	1	0
115	208	0	10000	1	1	0	1	0
118	209	0	10000	1	1	0	1	0
123	210	0	10000	1	1	0	1	0
125	210	0	10000	1	1	0	1	0
128	211	0	10000	1	1	0	1	0
133	213	0	10000	1	1	0	1	0
137	214	0	10000	1	1	0	1	0
139	215	0	10000	1	1	0	1	0
138	216	0	10000	1	1	0	1	0
140	217	0	10000	1	1	0	1	0
142	218	0	10000	1	1	0	1	0
143	219	0	10000	1	1	0	1	0
142	220	0	10000	1	1	0	1	0
143	220	0	10000	1	1	0	1	0
147	221	0	10000	1	1	0	1	0
151	223	0	10000	1	1	0	1	0
155	224	0	10000	1	1	0	1	0
157	225	0	10000	1	1	0	1	0
158	226	0	10000	1	1	0	1	0
159	227	0	10000	1	1	0	1	0
160	228	0	10000	1	1	0	1	0
161	229	0	10000	1	1	0	1	0
159	230	0	10000	1	1	0	1	0
160	230	0	10000	1	1	0	1	0
161	231	0	10000	1	1	0	1	0
164	233	0	10000	1	1	0	1	0
165	234	0	10000	1	1	0	1	0
162	235	0	10000	1	1	0	1	0
160	236	0	10000	1	1	0	1	0
161	237	0	10000	1	1	0	1	0
158	238	0	10000	1	1	0	1	0
154	239	0	10000	1	1	0	1	0
150	240	0	10000	1	1	0	1	0
147	240	0	10000	1	1	0	1	0
144	241	0	10000	1	1	0	1	0
142	243	0	10000	1	1	0	1	0
138	244	0	10000	1	1	0	1	0
132	245	0	10000	1	1	0	1	0
129	246	0	10000	1	1	0	1	0
124	247	0	10000	1	1	0	1	0
121	248	0	10000	1	1	0	1	0
116	249	0	10000	1	1	0	1	0
113	250	0	10000	1	1	0	1	0
110	250	0	10000	1	1	0	1	0
107	251	0	10000	1	1	0	1	0
105	253	0	10000	1	1	0	1	0
101	254	0	10000	1	1	0	1	0
96	255	0	10000	1	1	0	1	0
93	256	0	10000	1	1	0	1	0
90	257	0	10000	1	1	0	1	0
86	258	0	10000	1	1	0	1	0
86	259	0	10000	1	1	0	1	0
83	260	0	10000	1	1	0	1	0
80	260	0	10000	1	1	0	1	0
76	261	0	10000	1	1	0	1	0
73	263	0	10000	1	1	0	1	0
73	264	0	10000	1	1	0	1	0
71	265	0	10000	1	1	0	1	0
68	266	0	10000	1	1	0	1	0
63	267	0	10000	1	1	0	1	0
62	268	0	10000	1	1	0	1	0
63	269	0	10000	1	1	0	1	0
62	270	0	10000	1	1	0	1	0
61	270	0	10000	1	1	0	1	0
60	271	0	10000	1	1	0	1	0
61	273	0	10000	1	1	0	1	0
61	274	0	10000	1	1	0	1	0
59	275	0	10000	1	1	0	1	0
57	276	0	10000	1	1	0	1	0
57	277	0	10000	1	1	0	1	0
58	278	0	10000	1	1	0	1	0
58	279	0	10000	1	1	0	1	0
58	280	0	10000	1	1	0	1	0
57	280	0	10000	1	1	0	1	0
57	281	0	10000	1	1	0	1	0
61	283	0	10000	1	1	0	1	0
62	284	0	10000	1	1	0	1	0
62	285	0	10000	1	1	0	1	0
62	286	0	10000	1	1	0	1	0
60	287	0	10000	1	1	0	1	0
62	288	0	10000	1	1	0	1	0
61	289	0	10000	1	1	0	1	0
59	290	0	10000	1	1	0	1	0
58	290	0	10000	1	1	0	1	0
58	291	0	10000	1	1	0	1	0
60	293	0	10000	1	1	0	1	0
59	294	0	10000	1	1	0	1	0
58	295	0	10000	1	1	0	1	0
59	296	0	10000	1	1	0	1	0
62	297	0	10000	1	1	0	1	0
64	298	0	10000	1	1	0	1	0
64	299	0	10000	1	1	0	1	0
63	300	0	10000	1	1	0	1	0
62	300	0	10000	1	1	0	1	0
64	301	0	10000	1	1	0	1	0
65	303	0	10000	1	1	0	1	0
64	304	0	10000	1	1	0	1	0
63	305	0	10000	1	1	0	1	0
62	306	0	10000	1	1	0	1	0
61	307	0	10000	1	1	0	1	0
61	308	0	10000	1	1	0	1	0
60	309	0	10000	1	1	0	1	0
58	310	0	10000	1	1	0	1	0
55	310	0	10000	1	1	0	1	0
55	311	0	10000	1	1	0	1	0
55	313	0	10000	1	1	0	1	0
52	314	0	10000	1	1	0	1	0
49	315	0	10000	1	1	0	1	0
48	316	0	10000	1	1	0	1	0
51	317	0	10000	1	1	0	1	0
49	318	0	10000	1	1	0	1	0
48	319	0	10000	1	1	0	1	0
47	320	0	10000	1	1	0	1	0
46	320	0	10000	1	1	0	1	0
48	321	0	10000	1	1	0	1	0
47	323	0	10000	1	1	0	1	0
44	324	0	10000	1	1	0	1	0
44	325	0	10000	1	1	0	1	0
43	326	0	10000	1	1	0	1	0
41	327	0	10000	1	1	0	1	0
40	328	0	10000	1	1	0	1	0
39	329	0	10000	1	1	0	1	0
37	330	0	10000	1	1	0	1	0
37	330	0	10000	1	1	0	1	0
38	331	0	10000	1	1	0	1	0
36	333	0	10000	1	1	0	1	0
34	334	0	10000	1	1	0	1	0
33	335	0	10000	1	1	0	1	0
33	336	0	10000	1	1	0	1	0
35	337	0	10000	1	1	0	1	0
34	338	0	10000	1	1	0	1	0
33	339	0	10000	1	1	0	1	0
31	340	0	10000	1	1	0	1	0
33	340	0	10000	1	1	0	1	0
33	341	0	10000	1	1	0	1	0
31	343	0	10000	1	1	0	1	0
31	344	0	10000	1	1	0	1	0
30	345	0	10000	1	1	0	1	0
31	346	0	10000	1	1	0	1	0
28	347	0	10000	1	1	0	1	0
28	348	0	10000	1	1	0	1	0
27	349	0	10000	1	1	0	1	0
27	350	0	10000	1	1	0	1	0
28	350	0	10000	1	1	0	1	0
27	351	0	10000	1	1	0	1	0
27	353	0	10000	1	1	0	1	0
25	354	0	10000	1	1	0	1	0
25	355	0	10000	1	1	0	1	0
25	356	0	10000	1	1	0	1	0
27	357	0	10000	1	1	0	1	0
25	358	0	10000	1	1	0	1	0
24	359	0	10000	1	1	0	1	0
25	360	0	10000	1	1	0	1	0
24	360	0	10000	1	1	0	1	0
24	361	0	10000	1	1	0	1	0
22	363	0	10000	1	1	0	1	0
22	364	0	10000	1	1	0	1	0
24	365	0	10000	1	1	0	1	0
24	366	0	10000	1	1	0	1	0
22	367	0	10000	1	1	0	1	0
21	368	0	10000	1	1	0	1	0
21	369	0	10000	1	1	0	1	0
23	370	0	10000	1	1	0	1	0
22	370	0	10000	1	1	0	1	0
22	371	0	10000	1	1	0	1	0
21	373	0	10000	1	1	0	1	0
20	374	0	10000	1	1	0	1	0
22	375	0	10000	1	1	0	1	0
21	376	0	10000	1	1	0	1	0
22	377	0	10000	1	1	0	1	0
23	378	0	10000	1	1	0	1	0
21	379	0	10000	1	1	0	1	0
21	380	0	10000	1	1	0	1	0
22	380	0	10000	1	1	0	1	0
21	381	0	10000	1	1	0	1	0
20	383	0	10000	1	1	0	1	0
21	384	0	10000	1	1	0	1	0
22	385	0	10000	1	1	0	1	0
21	386	0	10000	1	1	0	1	0
20	387	0	10000	1	1	0	1	0
20	388	0	10000	1	1	0	1	0
21	389	0	10000	1	1	0	1	0
21	390	0	10000	1	1	0	1	0
22	390	0	10000	1	1	0	1	0
21	391	0	10000	1	1	0	1	0
22	393	0	10000	1	1	0	1	0
22	394	0	10000	1	1	0	1	0
22	395	0	10000	1	1	0	1	0
21	396	0	10000	1	1	0	1	0
22	397	0	10000	1	1	0	1	0
21	398	0	10000	1	1	0	1	0
22	399	0	10000	1	1	0	1	0
23	400	0	10000	1	1	0	1	0
22	400	0	10000	1	1	0	1	0
21	401	0	10000	1	1	0	1	0
21	403	0	10000	1	1	0	1	0
22	404	0	10000	1	1	0	1	0
23	405	0	10000	1	1	0	1	0
23	406	0	10000	1	1	0	1	0
21	407	0	10000	1	1	0	1	0
22	408	0	10000	1	1	0	1	0
22	409	0	10000	1	1	0	1	0
23	410	0	10000	1	1	0	1	0
22	410	0	10000	1	1	0	1	0
21	411	0	10000	1	1	0	1	0
22	413	0	10000	1	1	0	1	0
22	414	0	10000	1	1	0	1	0
22	415	0	10000	1	1	0	1	0
22	416	0	10000	1	1	0	1	0
24	417	0	10000	1	1	0	1	0
25	418	0	10000	1	1	0	1	0
24	419	0	10000	1	1	0	1	0
24	420	0	10000	1	1	0	1	0
24	420	0	10000	1	1	0	1	0
23	421	0	10000	1	1	0	1	0
23	423	0	10000	1	1	0	1	0
25	424	0	10000	1	1	0	1	0
24	425	0	10000	1	1	0	1	0
24	426	0	10000	1	1	0	1	0
23	427	0	10000	1	1	0	1	0
22	428	0	10000	1	1	0	1	0
23	429	0	10000	1	1	0	1	0
23	430	0	10000	1	1	0	1	0
23	430	0	10000	1	1	0	1	0
22	431	0	10000	1	1	0	1	0
24	433	0	10000	1	1	0	1	0
23	434	0	10000	1	1	0	1	0
21	435	0	10000	1	1	0	1	0
20	436	0	10000	1	1	0	1	0
23	437	0	10000	1	1	0	1	0
23	438	0	10000	1	1	0	1	0
23	439	0	10000	1	1	0	1	0
22	440	0	10000	1	1	0	1	0
22	440	0	10000	1	1	0	1	0
22	441	0	10000	1	1	0	1	0
24	443	0	10000	1	1	0	1	0
24	444	0	10000	1	1	0	1	0
24	445	0	10000	1	1	0	1	0
23	446	0	10000	1	1	0	1	0
23	447	0	10000	1	1	0	1	0
23	448	0	10000	1	1	0	1	0
24	449	0	10000	1	1	0	1	0
23	450	0	10000	1	1	0	1	0
23	450	0	10000	1	1	0	1	0
23	451	0	10000	1	1	0	1	0
23	453	0	10000	1	1	0	1	0
24	454	0	10000	1	1	0	1	0
24	455	0	10000	1	1	0	1	0
25	456	0	10000	1	1	0	1	0
26	457	0	10000	1	1	0	1	0
25	458	0	10000	1	1	0	1	0
24	459	0	10000	1	1	0	1	0
23	460	0	10000	1	1	0	1	0
24	460	0	10000	1	1	0	1	0
24	461	0	10000	1	1	0	1	0
23	463	0	10000	1	1	0	1	0
24	464	0	10000	1	1	0	1	0
23	465	0	10000	1	1	0	1	0
23	466	0	10000	1	1	0	1	0
23	467	0	10000	1	1	0	1	0
22	468	0	10000	1	1	0	1	0
21	469	0	10000	1	1	0	1	0
21	470	0	10000	1	1	0	1	0
22	470	0	10000	1	1	0	1	0
22	471	0	10000	1	1	0	1	0
23	473	0	10000	1	1	0	1	0
22	474	0	10000	1	1	0	1	0
22	475	0	10000	1	1	0	1	0
23	476	0	10000	1	1	0	1	0
24	477	0	10000	1	1	0	1	0
24	478	0	10000	1	1	0	1	0
25	479	0	10000	1	1	0	1	0
25	480	0	10000	1	1	0	1	0
26	480	0	10000	1	1	0	1	0
26	481	0	10000	1	1	0	1	0
25	483	0	10000	1	1	0	1	0
26	484	0	10000	1	1	0	1	0
26	485	0	10000	1	1	0	1	0
27	486	0	10000	1	1	0	1	0
25	487	0	10000	1	1	0	1	0
25	488	0	10000	1	1	0	1	0
27	489	0	10000	1	1	0	1	0
27	490	0	10000	1	1	0	1	0
27	490	0	10000	1	1	0	1	0
27	491	0	10000	1	1	0	1	0
27	493	0	10000	1	1	0	1	0
27	494	0	10000	1	1	0	1	0
27	495	0	10000	1	1	0	1	0
26	496	0	10000	1	1	0	1	0
28	497	0	10000	1	1	0	1	0
28	498	0	10000	1	1	0	1	0
28	499	0	10000	1	1	0	1	0
28	500	0	10000	1	1	0	1	0
28	500	0	10000	1	1	0	1	0
27	501	0	10000	1	1	0	1	0
26	547	0	10000	1	1	0	1	1
26	548	0	10000	1	1	0	1	1
26	549	0	10000	1	1	0	1	1
26	550	0	10000	1	1	0	1	1
25	551	0	10000	1	1	0	1	1
24	552	0	10000	1	1	0	1	1
25	553	0	10000	1	1	0	1	1
26	554	0	10000	1	1	0	1	1
25	555	0	10000	1	1	0	1	1
25	556	0	10000	1	1	0	1	1
25	557	0	10000	1	1	0	1	1
24	558	0	10000	1	1	0	1	1
24	559	0	10000	1	1	0	1	1
25	560	0	10000	1	1	0	1	1
26	561	0	10000	1	1	0	1	1
26	562	0	10000	1	1	0	1	1
26	563	0	10000	1	1	0	1	1
25	564	0	10000	1	1	0	1	1
25	565	0	10000	1	1	0	1	1
25	566	0	10000	1	1	0	1	1
24	567	0	10000	1	1	0	1	1
24	568	0	10000	1	1	0	1	1
25	569	0	10000	1	1	0	1	1
25	570	0	10000	1	1	0	1	1
22	571	0	10000	1	1	0	1	1
21	572	0	10000	1	1	0	1	1
23	573	0	10000	1	1	0	1	1
23	574	0	10000	1	1	0	1	1
23	575	0	10000	1	1	0	1	1
23	576	0	10000	1	1	0	1	1
23	577	0	10000	1	1	0	1	1
22	578	0	10000	1	1	0	1	1
22	579	0	10000	1	1	0	1	1
22	580	0	10000	1	1	0	1	1
24	581	0	10000	1	1	0	1	1
24	582	0	10000	1	1	0	1	1
25	583	0	10000	1	1	0	1	1
23	584	0	10000	1	1	0	1	1
23	585	0	10000	1	1	0	1	1
22	586	0	10000	1	1	0	1	1
21	587	0	10000	1	1	0	1	1
24	588	0	10000	1	1	0	1	1
23	589	0	10000	1	1	0	1	1
22	590	0	10000	1	1	0	1	1
21	591	0	10000	1	1	0	1	1
22	592	0	10000	1	1	0	1	1
22	554	0	10000	1	1	0	1	1
22	555	0	10000	1	1	0	1	1
22	556	0	10000	1	1	0	1	1
22	557	0	10000	1	1	0	1	1
24	558	0	10000	1	1	0	1	1
22	559	0	10000	1	1	0	1	1
22	560	0	10000	1	1	0	1	1
24	561	0	10000	1	1	0	1	1
24	557	0	10000	1	1	0	1	0
25	558	0	10000	1	1	0	1	0
25	559	0	10000	1	1	0	1	0
24	560	0	10000	1	1	0	1	0
23	561	0	10000	1	1	0	1	0
24	562	0	10000	1	1	0	1	0
24	563	0	10000	1	1	0	1	0
24	564	0	10000	1	1	0	1	0
25	565	0	10000	1	1	0	1	0
25	566	0	10000	1	1	0	1	0
23	567	0	10000	1	1	0	1	0
23	568	0	10000	1	1	0	1	0
23	569	0	10000	1	1	0	1	0
23	570	0	10000	1	1	0	1	0
23	571	0	10000	1	1	0	1	0
24	572	0	10000	1	1	0	1	0
24	573	0	10000	1	1	0	1	0
23	574	0	10000	1	1	0	1	0
22	575	0	10000	1	1	0	1	0
23	576	0	10000	1	1	0	1	0
24	577	0	10000	1	1	0	1	0
24	578	0	10000	1	1	0	1	0
24	579	0	10000	1	1	0	1	0
24	580	0	10000	1	1	0	1	0
24	580	0	10000	1	1	0	1	0
25	581	0	10000	1	1	0	1	0
25	583	0	10000	1	1	0	1	0
25	584	0	10000	1	1	0	1	0
25	585	0	10000	1	1	0	1	0
25	586	0	10000	1	1	0	1	0
24	587	0	10000	1	1	0	1	0
24	588	0	10000	1	1	0	1	0
24	589	0	10000	1	1	0	1	0
24	590	0	10000	1	1	0	1	0
24	590	0	10000	1	1	0	1	0
25	591	0	10000	1	1	0	1	0
24	593	0	10000	1	1	0	1	0
24	594	0	10000	1	1	0	1	0
23	595	0	10000	1	1	0	1	0
23	596	0	10000	1	1	0	1	0
25	597	0	10000	1	1	0	1	0
24	598	0	10000	1	1	0	1	0
25	599	0	10000	1	1	0	1	0
23	600	0	10000	1	1	0	1	0
25	600	0	10000	1	1	0	1	0
25	601	0	10000	1	1	0	1	0
24	603	0	10000	1	1	0	1	0
23	604	0	10000	1	1	0	1	0
24	605	0	10000	1	1	0	1	0
24	606	0	10000	1	1	0	1	0
22	607	0	10000	1	1	0	1	0
23	608	0	10000	1	1	0	1	0
21	609	0	10000	1	1	0	1	0
22	610	0	10000	1	1	0	1	0
23	610	0	10000	1	1	0	1	0
23	611	0	10000	1	1	0	1	0
23	613	0	10000	1	1	0	1	0
22	614	0	10000	1	1	0	1	0
22	615	0	10000	1	1	0	1	0
23	616	0	10000	1	1	0	1	0
25	617	0	10000	1	1	0	1	0
23	618	0	10000	1	1	0	1	0
23	619	0	10000	1	1	0	1	0
23	620	0	10000	1	1	0	1	0
23	620	0	10000	1	1	0	1	0
23	621	0	10000	1	1	0	1	0
23	623	0	10000	1	1	0	1	0
24	624	0	10000	1	1	0	1	0
24	625	0	10000	1	1	0	1	0
24	626	0	10000	1	1	0	1	0
23	627	0	10000	1	1	0	1	0
23	628	0	10000	1	1	0	1	0
23	629	0	10000	1	1	0	1	0
24	630	0	10000	1	1	0	1	0
24	630	0	10000	1	1	0	1	0
24	631	0	10000	1	1	0	1	0
24	633	0	10000	1	1	0	1	0
24	634	0	10000	1	1	0	1	0
24	635	0	10000	1	1	0	1	0
24	636	0	10000	1	1	0	1	0
25	637	0	10000	1	1	0	1	0
24	638	0	10000	1	1	0	1	0
24	639	0	10000	1	1	0	1	0
24	640	0	10000	1	1	0	1	0
24	640	0	10000	1	1	0	1	0
24	641	0	10000	1	1	0	1	0
23	643	0	10000	1	1	0	1	0
23	644	0	10000	1	1	0	1	0
25	645	0	10000	1	1	0	1	0
25	646	0	10000	1	1	0	1	0
22	647	0	10000	1	1	0	1	0
23	648	0	10000	1	1	0	1	0
23	649	0	10000	1	1	0	1	0
24	650	0	10000	1	1	0	1	0
25	650	0	10000	1	1	0	1	0
23	651	0	10000	1	1	0	1	0
24	653	0	10000	1	1	0	1	0
24	654	0	10000	1	1	0	1	0
24	655	0	10000	1	1	0	1	0
23	656	0	10000	1	1	0	1	0
25	657	0	10000	1	1	0	1	0
25	658	0	10000	1	1	0	1	0
28	659	0	10000	1	1	0	1	0
30	660	0	10000	1	1	0	1	0
29	660	0	10000	1	1	0	1	0
28	661	0	10000	1	1	0	1	0
27	663	0	10000	1	1	0	1	0
28	664	0	10000	1	1	0	1	0
29	665	0	10000	1	1	0	1	0
28	666	0	10000	1	1	0	1	0
25	667	0	10000	1	1	0	1	0
25	668	0	10000	1	1	0	1	0
29	669	0	10000	1	1	0	1	0
31	670	0	10000	1	1	0	1	0
31	670	0	10000	1	1	0	1	0
30	671	0	10000	1	1	0	1	0
31	673	0	10000	1	1	0	1	0
30	674	0	10000	1	1	0	1	0
34	675	0	10000	1	1	0	1	0
39	676	0	10000	1	1	0	1	0
44	677	0	10000	1	1	0	1	0
45	678	0	10000	1	1	0	1	0
46	679	0	10000	1	1	0	1	0
45	680	0	10000	1	1	0	1	0
44	680	0	10000	1	1	0	1	0
44	681	0	10000	1	1	0	1	0
42	683	0	10000	1	1	0	1	0
42	684	0	10000	1	1	0	1	0
42	685	0	10000	1	1	0	1	0
40	686	0	10000	1	1	0	1	0
38	687	0	10000	1	1	0	1	0
39	688	0	10000	1	1	0	1	0
39	689	0	10000	1	1	0	1	0
38	690	0	10000	1	1	0	1	0
36	690	0	10000	1	1	0	1	0
36	691	0	10000	1	1	0	1	0
37	693	0	10000	1	1	0	1	0
36	694	0	10000	1	1	0	1	0
35	695	0	10000	1	1	0	1	0
34	696	0	10000	1	1	0	1	0
35	697	0	10000	1	1	0	1	0
35	698	0	10000	1	1	0	1	0
34	699	0	10000	1	1	0	1	0
33	700	0	10000	1	1	0	1	0
31	700	0	10000	1	1	0	1	0
31	701	0	10000	1	1	0	1	0
31	703	0	10000	1	1	0	1	0
30	704	0	10000	1	1	0	1	0
30	705	0	10000	1	1	0	1	0
30	706	0	10000	1	1	0	1	0
28	707	0	10000	1	1	0	1	0
28	708	0	10000	1	1	0	1	0
28	709	0	10000	1	1	0	1	0
27	710	0	10000	1	1	0	1	0
27	710	0	10000	1	1	0	1	0
28	711	0	10000	1	1	0	1	0
28	713	0	10000	1	1	0	1	0
28	714	0	10000	1	1	0	1	0
28	715	0	10000	1	1	0	1	0
28	716	0	10000	1	1	0	1	0
29	717	0	10000	1	1	0	1	0
29	718	0	10000	1	1	0	1	0
28	719	0	10000	1	1	0	1	0
28	720	0	10000	1	1	0	1	0
27	720	0	10000	1	1	0	1	0
28	721	0	10000	1	1	0	1	0
28	723	0	10000	1	1	0	1	0
29	724	0	10000	1	1	0	1	0
29	725	0	10000	1	1	0	1	0
29	726	0	10000	1	1	0	1	0
26	727	0	10000	1	1	0	1	0
27	728	0	10000	1	1	0	1	0
27	729	0	10000	1	1	0	1	0
27	730	0	10000	1	1	0	1	0
27	730	0	10000	1	1	0	1	0
27	731	0	10000	1	1	0	1	0
27	733	0	10000	1	1	0	1	0
27	734	0	10000	1	1	0	1	0
26	735	0	10000	1	1	0	1	0
26	736	0	10000	1	1	0	1	0
28	737	0	10000	1	1	0	1	0
26	738	0	10000	1	1	0	1	0
25	739	0	10000	1	1	0	1	0
25	740	0	10000	1	1	0	1	0
26	740	0	10000	1	1	0	1	0
25	741	0	10000	1	1	0	1	0
26	743	0	10000	1	1	0	1	0
25	744	0	10000	1	1	0	1	0
25	745	0	10000	1	1	0	1	0
26	746	0	10000	1	1	0	1	0
24	747	0	10000	1	1	0	1	0
23	748	0	10000	1	1	0	1	0
24	749	0	10000	1	1	0	1	0
24	750	0	10000	1	1	0	1	0
24	750	0	10000	1	1	0	1	0
23	751	0	10000	1	1	0	1	0
23	753	0	10000	1	1	0	1	0
23	754	0	10000	1	1	0	1	0
23	755	0	10000	1	1	0	1	0
24	756	0	10000	1	1	0	1	0
25	757	0	10000	1	1	0	1	0
24	758	0	10000	1	1	0	1	0
23	759	0	10000	1	1	0	1	0
23	760	0	10000	1	1	0	1	0
25	760	0	10000	1	1	0	1	0
24	761	0	10000	1	1	0	1	0
23	763	0	10000	1	1	0	1	0
23	764	0	10000	1	1	0	1	0
24	765	0	10000	1	1	0	1	0
24	766	0	10000	1	1	0	1	0
22	767	0	10000	1	1	0	1	0
21	768	0	10000	1	1	0	1	0
21	769	0	10000	1	1	0	1	0
22	770	0	10000	1	1	0	1	0
22	770	0	10000	1	1	0	1	0
22	771	0	10000	1	1	0	1	0
21	773	0	10000	1	1	0	1	0
20	774	0	10000	1	1	0	1	0
20	775	0	10000	1	1	0	1	0
20	776	0	10000	1	1	0	1	0
22	777	0	10000	1	1	0	1	0
21	778	0	10000	1	1	0	1	0
21	779	0	10000	1	1	0	1	0
21	780	0	10000	1	1	0	1	0
21	780	0	10000	1	1	0	1	0
21	781	0	10000	1	1	0	1	0
21	783	0	10000	1	1	0	1	0
21	784	0	10000	1	1	0	1	0
23	785	0	10000	1	1	0	1	0
23	786	0	10000	1	1	0	1	0
20	787	0	10000	1	1	0	1	0
20	788	0	10000	1	1	0	1	0
21	789	0	10000	1	1	0	1	0
21	790	0	10000	1	1	0	1	0
22	790	0	10000	1	1	0	1	0
23	791	0	10000	1	1	0	1	0
23	793	0	10000	1	1	0	1	0
22	794	0	10000	1	1	0	1	0
24	795	0	10000	1	1	0	1	0
22	796	0	10000	1	1	0	1	0
24	797	0	10000	1	1	0	1	0
23	798	0	10000	1	1	0	1	0
24	799	0	10000	1	1	0	1	0
24	800	0	10000	1	1	0	1	0
24	800	0	10000	1	1	0	1	0
24	801	0	10000	1	1	0	1	0
25	803	0	10000	1	1	0	1	0
25	804	0	10000	1	1	0	1	0
25	805	0	10000	1	1	0	1	0
25	806	0	10000	1	1	0	1	0
24	807	0	10000	1	1	0	1	0
25	808	0	10000	1	1	0	1	0
25	809	0	10000	1	1	0	1	0
25	810	0	10000	1	1	0	1	0
25	810	0	10000	1	1	0	1	0
24	811	0	10000	1	1	0	1	0
24	813	0	10000	1	1	0	1	0
24	814	0	10000	1	1	0	1	0
24	815	0	10000	1	1	0	1	0
24	816	0	10000	1	1	0	1	0
25	817	0	10000	1	1	0	1	0
25	818	0	10000	1	1	0	1	0
26	819	0	10000	1	1	0	1	0
25	820	0	10000	1	1	0	1	0
24	820	0	10000	1	1	0	1	0
23	821	0	10000	1	1	0	1	0
23	823	0	10000	1	1	0	1	0
24	824	0	10000	1	1	0	1	0
24	825	0	10000	1	1	0	1	0
23	826	0	10000	1	1	0	1	0
22	827	0	10000	1	1	0	1	0
23	828	0	10000	1	1	0	1	0
23	829	0	10000	1	1	0	1	0
24	830	0	10000	1	1	0	1	0
24	830	0	10000	1	1	0	1	0
26	831	0	10000	1	1	0	1	0
26	833	0	10000	1	1	0	1	0
24	834	0	10000	1	1	0	1	0
25	835	0	10000	1	1	0	1	0
23	836	0	10000	1	1	0	1	0
24	837	0	10000	1	1	0	1	0
25	838	0	10000	1	1	0	1	0
24	839	0	10000	1	1	0	1	0
24	840	0	10000	1	1	0	1	0
23	840	0	10000	1	1	0	1	0
22	841	0	10000	1	1	0	1	0
23	843	0	10000	1	1	0	1	0
23	844	0	10000	1	1	0	1	0
24	845	0	10000	1	1	0	1	0
24	846	0	10000	1	1	0	1	0
23	847	0	10000	1	1	0	1	0
23	848	0	10000	1	1	0	1	0
23	849	0	10000	1	1	0	1	0
23	850	0	10000	1	1	0	1	0
22	850	0	10000	1	1	0	1	0
23	851	0	10000	1	1	0	1	0
24	853	0	10000	1	1	0	1	0
24	854	0	10000	1	1	0	1	0
24	855	0	10000	1	1	0	1	0
24	856	0	10000	1	1	0	1	0
26	857	0	10000	1	1	0	1	0
25	858	0	10000	1	1	0	1	0
24	859	0	10000	1	1	0	1	0
23	860	0	10000	1	1	0	1	0
22	860	0	10000	1	1	0	1	0
24	861	0	10000	1	1	0	1	0
23	863	0	10000	1	1	0	1	0
24	864	0	10000	1	1	0	1	0
23	865	0	10000	1	1	0	1	0
23	866	0	10000	1	1	0	1	0
21	867	0	10000	1	1	0	1	0
21	868	0	10000	1	1	0	1	0
21	869	0	10000	1	1	0	1	0
21	870	0	10000	1	1	0	1	0
21	870	0	10000	1	1	0	1	0
23	871	0	10000	1	1	0	1	0
23	873	0	10000	1	1	0	1	0
23	874	0	10000	1	1	0	1	0
22	875	0	10000	1	1	0	1	0
22	876	0	10000	1	1	0	1	0
25	877	0	10000	1	1	0	1	0
25	878	0	10000	1	1	0	1	0
24	879	0	10000	1	1	0	1	0
23	880	0	10000	1	1	0	1	0
24	880	0	10000	1	1	0	1	0
24	881	0	10000	1	1	0	1	0
23	883	0	10000	1	1	0	1	0
23	884	0	10000	1	1	0	1	0
23	885	0	10000	1	1	0	1	0
23	886	0	10000	1	1	0	1	0
22	887	0	10000	1	1	0	1	0
22	888	0	10000	1	1	0	1	0
21	889	0	10000	1	1	0	1	0
20	890	0	10000	1	1	0	1	0
22	890	0	10000	1	1	0	1	0
22	891	0	10000	1	1	0	1	0
22	893	0	10000	1	1	0	1	0
22	894	0	10000	1	1	0	1	0
21	895	0	10000	1	1	0	1	0
22	896	0	10000	1	1	0	1	0
24	897	0	10000	1	1	0	1	0
24	898	0	10000	1	1	0	1	0
23	899	0	10000	1	1	0	1	0
23	900	0	10000	1	1	0	1	0
24	900	0	10000	1	1	0	1	0
24	901	0	10000	1	1	0	1	0
23	903	0	10000	1	1	0	1	0
22	904	0	10000	1	1	0	1	0
22	905	0	10000	1	1	0	1	0
24	906	0	10000	1	1	0	1	0
21	907	0	10000	1	1	0	1	0
21	908	0	10000	1	1	0	1	0
22	909	0	10000	1	1	0	1	0
22	910	0	10000	1	1	0	1	0
22	910	0	10000	1	1	0	1	0
21	911	0	10000	1	1	0	1	0
21	913	0	10000	1	1	0	1	0
21	914	0	10000	1	1	0	1	0
21	915	0	10000	1	1	0	1	0
22	916	0	10000	1	1	0	1	0
23	917	0	10000	1	1	0	1	0
23	918	0	10000	1	1	0	1	0
22	919	0	10000	1	1	0	1	0
23	920	0	10000	1	1	0	1	0
24	920	0	10000	1	1	0	1	0
22	921	0	10000	1	1	0	1	0
22	923	0	10000	1	1	0	1	0
23	924	0	10000	1	1	0	1	0
23	925	0	10000	1	1	0	1	0
23	926	0	10000	1	1	0	1	0
21	927	0	10000	1	1	0	1	0
21	928	0	10000	1	1	0	1	0
21	929	0	10000	1	1	0	1	0
22	930	0	10000	1	1	0	1	0
22	930	0	10000	1	1	0	1	0
21	931	0	10000	1	1	0	1	0
22	933	0	10000	1	1	0	1	0
21	934	0	10000	1	1	0	1	0
21	935	0	10000	1	1	0	1	0
21	936	0	10000	1	1	0	1	0
21	937	0	10000	1	1	0	1	0
21	938	0	10000	1	1	0	1	0
21	939	0	10000	1	1	0	1	0
21	940	0	10000	1	1	0	1	0
20	940	0	10000	1	1	0	1	0
20	941	0	10000	1	1	0	1	0
19	943	0	10000	1	1	0	1	0
20	944	0	10000	1	1	0	1	0
20	945	0	10000	1	1	0	1	0
21	946	0	10000	1	1	0	1	0
19	947	0	10000	1	1	0	1	0
19	948	0	10000	1	1	0	1	0
20	949	0	10000	1	1	0	1	0
20	950	0	10000	1	1	0	1	0
20	950	0	10000	1	1	0	1	0
21	951	0	10000	1	1	0	1	0
22	953	0	10000	1	1	0	1	0
21	954	0	10000	1	1	0	1	0
21	955	0	10000	1	1	0	1	0
20	956	0	10000	1	1	0	1	0
21	957	0	10000	1	1	0	1	0
21	958	0	10000	1	1	0	1	0
22	959	0	10000	1	1	0	1	0
21	960	0	10000	1	1	0	1	0
20	960	0	10000	1	1	0	1	0
20	961	0	10000	1	1	0	1	0
20	963	0	10000	1	1	0	1	0
22	964	0	10000	1	1	0	1	0
22	965	0	10000	1	1	0	1	0
21	966	0	10000	1	1	0	1	0
20	967	0	10000	1	1	0	1	0
20	968	0	10000	1	1	0	1	0
20	969	0	10000	1	1	0	1	0
21	970	0	10000	1	1	0	1	0
20	970	0	10000	1	1	0	1	0
21	971	0	10000	1	1	0	1	0
23	973	0	10000	1	1	0	1	0
22	974	0	10000	1	1	0	1	0
21	975	0	10000	1	1	0	1	0
21	976	0	10000	1	1	0	1	0
21	977	0	10000	1	1	0	1	0
22	978	0	10000	1	1	0	1	0
22	979	0	10000	1	1	0	1	0
21	980	0	10000	1	1	0	1	0
21	980	0	10000	1	1	0	1	0
21	981	0	10000	1	1	0	1	0
21	983	0	10000	1	1	0	1	0
22	984	0	10000	1	1	0	1	0
21	985	0	10000	1	1	0	1	0
20	986	0	10000	1	1	0	1	0
19	987	0	10000	1	1	0	1	0
20	988	0	10000	1	1	0	1	0
21	989	0	10000	1	1	0	1	0
21	990	0	10000	1	1	0	1	0
21	990	0	10000	1	1	0	1	0
21	991	0	10000	1	1	0	1	0
22	993	0	10000	1	1	0	1	0
21	994	0	10000	1	1	0	1	0
21	995	0	10000	1	1	0	1	0
20	996	0	10000	1	1	0	1	0
21	997	0	10000	1	1	0	1	0
22	998	0	10000	1	1	0	1	0
21	999	0	10000	1	1	0	1	0
21	1000	0	10000	1	1	0	1	0
21	1000	0	10000	1	1	0	1	0
21	1001	0	10000	1	1	0	1	0
48	1	7	10000	2	1	0	2	0
49	2	7	10000	2	1	0	2	0
53	3	7	10000	2	1	0	2	0
59	4	7	10000	2	1	0	2	0
62	5	7	10000	2	1	0	2	0
64	6	7	10000	2	1	0	2	0
68	7	7	10000	2	1	0	2	0
75	8	7	10000	2	1	0	2	0
83	9	7	10000	2	1	0	2	0
89	10	7	10000	2	1	0	2	0
94	11	7	10000	2	1	0	2	0
102	12	7	10000	2	1	0	2	0
110	13	7	10000	2	1	0	2	0
120	14	7	10000	2	1	0	2	0
128	15	7	10000	2	1	0	2	0
135	16	7	10000	2	1	0	2	0
141	17	7	10000	2	1	0	2	0
147	18	7	10000	2	1	0	2	0
157	19	7	10000	2	1	0	2	0
164	20	7	10000	2	1	0	2	0
170	21	7	10000	2	1	0	2	0
176	22	7	10000	2	1	0	2	0
183	23	7	10000	2	1	0	2	0
189	24	7	10000	2	1	0	2	0
193	25	7	10000	2	1	0	2	0
196	26	7	10000	2	1	0	2	0
198	27	7	10000	2	1	0	2	0
203	28	7	10000	2	1	0	2	0
208	29	7	10000	2	1	0	2	0
209	30	7	10000	2	1	0	2	0
208	31	7	10000	2	1	0	2	0
208	32	7	10000	2	1	0	2	0
208	33	7	10000	2	1	0	2	0
209	34	7	10000	2	1	0	2	0
208	35	7	10000	2	1	0	2	0
206	36	7	10000	2	1	0	2	0
202	37	7	10000	2	1	0	2	0
197	38	7	10000	2	1	0	2	0
194	39	7	10000	2	1	0	2	0
188	40	7	10000	2	1	0	2	0
181	41	7	10000	2	1	0	2	0
173	42	7	10000	2	1	0	2	0
166	43	7	10000	2	1	0	2	0
159	44	7	10000	2	1	0	2	0
153	45	7	10000	2	1	0	2	0
152	46	7	10000	2	1	0	2	0
151	47	7	10000	2	1	0	2	0
155	48	7	10000	2	1	0	2	0
155	49	7	10000	2	1	0	2	0
156	50	7	10000	2	1	0	2	0
161	51	7	10000	2	1	0	2	0
166	52	7	10000	2	1	0	2	0
171	53	7	10000	2	1	0	2	0
175	54	7	10000	2	1	0	2	0
181	55	7	10000	2	1	0	2	0
190	56	7	10000	2	1	0	2	0
198	57	7	10000	2	1	0	2	0
204	58	7	10000	2	1	0	2	0
209	59	7	10000	2	1	0	2	0
216	60	7	10000	2	1	0	2	0
225	61	7	10000	2	1	0	2	0
232	62	7	10000	2	1	0	2	0
240	63	7	10000	2	1	0	2	0
247	64	7	10000	2	1	0	2	0
250	65	7	10000	2	1	0	2	0
257	66	7	10000	2	1	0	2	0
262	67	7	10000	2	1	0	2	0
267	68	7	10000	2	1	0	2	0
270	69	7	10000	2	1	0	2	0
271	70	7	10000	2	1	0	2	0
275	71	7	10000	2	1	0	2	0
279	72	7	10000	2	1	0	2	0
282	73	7	10000	2	1	0	2	0
283	74	7	10000	2	1	0	2	0
283	75	7	10000	2	1	0	2	0
282	76	7	10000	2	1	0	2	0
282	77	7	10000	2	1	0	2	0
280	78	7	10000	2	1	0	2	0
277	79	7	10000	2	1	0	2	0
273	80	7	10000	2	1	0	2	0
271	81	7	10000	2	1	0	2	0
269	82	7	10000	2	1	0	2	0
267	83	7	10000	2	1	0	2	0
264	84	7	10000	2	1	0	2	0
258	85	7	10000	2	1	0	2	0
253	86	7	10000	2	1	0	2	0
249	87	7	10000	2	1	0	2	0
247	88	7	10000	2	1	0	2	0
242	89	7	10000	2	1	0	2	0
235	90	7	10000	2	1	0	2	0
229	91	7	10000	2	1	0	2	0
224	92	7	10000	2	1	0	2	0
219	93	7	10000	2	1	0	2	0
215	94	7	10000	2	1	0	2	0
208	95	7	10000	2	1	0	2	0
203	96	7	10000	2	1	0	2	0
199	97	7	10000	2	1	0	2	0
194	98	7	10000	2	1	0	2	0
189	99	7	10000	2	1	0	2	0
181	100	7	10000	2	1	0	2	0
175	101	7	10000	2	1	0	2	0
170	102	7	10000	2	1	0	2	0
165	103	7	10000	2	1	0	2	0
161	104	7	10000	2	1	0	2	0
155	105	7	10000	2	1	0	2	0
149	106	7	10000	2	1	0	2	0
144	107	7	10000	2	1	0	2	0
141	108	7	10000	2	1	0	2	0
138	109	7	10000	2	1	0	2	0
131	110	7	10000	2	1	0	2	0
126	111	7	10000	2	1	0	2	0
122	112	7	10000	2	1	0	2	0
117	113	7	10000	2	1	0	2	0
114	114	7	10000	2	1	0	2	0
111	115	7	10000	2	1	0	2	0
107	116	7	10000	2	1	0	2	0
103	117	7	10000	2	1	0	2	0
97	118	7	10000	2	1	0	2	0
92	119	7	10000	2	1	0	2	0
89	120	7	10000	2	1	0	2	0
88	121	7	10000	2	1	0	2	0
85	122	7	10000	2	1	0	2	0
82	123	7	10000	2	1	0	2	0
80	124	7	10000	2	1	0	2	0
78	125	7	10000	2	1	0	2	0
75	126	7	10000	2	1	0	2	0
72	127	7	10000	2	1	0	2	0
71	128	7	10000	2	1	0	2	0
68	129	7	10000	2	1	0	2	0
66	130	7	10000	2	1	0	2	0
66	131	7	10000	2	1	0	2	0
64	132	7	10000	2	1	0	2	0
61	133	7	10000	2	1	0	2	0
58	134	7	10000	2	1	0	2	0
56	135	7	10000	2	1	0	2	0
55	136	7	10000	2	1	0	2	0
54	137	7	10000	2	1	0	2	0
50	138	7	10000	2	1	0	2	0
48	139	7	10000	2	1	0	2	0
47	140	7	10000	2	1	0	2	0
48	141	7	10000	2	1	0	2	0
48	142	7	10000	2	1	0	2	0
46	143	7	10000	2	1	0	2	0
45	144	7	10000	2	1	0	2	0
43	145	7	10000	2	1	0	2	0
42	146	7	10000	2	1	0	2	0
43	147	7	10000	2	1	0	2	0
43	148	7	10000	2	1	0	2	0
41	149	7	10000	2	1	0	2	0
39	150	7	10000	2	1	0	2	0
39	151	7	10000	2	1	0	2	0
40	152	7	10000	2	1	0	2	0
38	153	7	10000	2	1	0	2	0
37	154	7	10000	2	1	0	2	0
37	155	7	10000	2	1	0	2	0
36	156	7	10000	2	1	0	2	0
38	157	7	10000	2	1	0	2	0
36	158	7	10000	2	1	0	2	0
35	159	7	10000	2	1	0	2	0
34	160	7	10000	2	1	0	2	0
36	161	7	10000	2	1	0	2	0
36	162	7	10000	2	1	0	2	0
34	163	7	10000	2	1	0	2	0
34	164	7	10000	2	1	0	2	0
32	165	7	10000	2	1	0	2	0
31	166	7	10000	2	1	0	2	0
32	167	7	10000	2	1	0	2	0
32	168	7	10000	2	1	0	2	0
31	169	7	10000	2	1	0	2	0
30	170	7	10000	2	1	0	2	0
31	171	7	10000	2	1	0	2	0
33	172	7	10000	2	1	0	2	0
32	173	7	10000	2	1	0	2	0
31	174	7	10000	2	1	0	2	0
30	175	7	10000	2	1	0	2	0
30	176	7	10000	2	1	0	2	0
32	177	7	10000	2	1	0	2	0
30	178	7	10000	2	1	0	2	0
29	179	7	10000	2	1	0	2	0
29	180	7	10000	2	1	0	2	0
28	181	7	10000	2	1	0	2	0
29	182	7	10000	2	1	0	2	0
29	183	7	10000	2	1	0	2	0
28	184	7	10000	2	1	0	2	0
26	185	7	10000	2	1	0	2	0
26	186	7	10000	2	1	0	2	0
28	187	7	10000	2	1	0	2	0
30	188	7	10000	2	1	0	2	0
30	189	7	10000	2	1	0	2	0
29	190	7	10000	2	1	0	2	0
28	191	7	10000	2	1	0	2	0
30	192	7	10000	2	1	0	2	0
30	193	7	10000	2	1	0	2	0
29	194	7	10000	2	1	0	2	0
28	195	7	10000	2	1	0	2	0
28	196	7	10000	2	1	0	2	0
29	197	7	10000	2	1	0	2	0
28	198	7	10000	2	1	0	2	0
27	199	7	10000	2	1	0	2	0
27	200	7	10000	2	1	0	2	0
27	201	7	10000	2	1	0	2	0
28	202	7	10000	2	1	0	2	0
29	203	7	10000	2	1	0	2	0
29	204	7	10000	2	1	0	2	0
26	205	7	10000	2	1	0	2	0
25	206	7	10000	2	1	0	2	0
26	207	7	10000	2	1	0	2	0
29	208	7	10000	2	1	0	2	0
28	209	7	10000	2	1	0	2	0
27	210	7	10000	2	1	0	2	0
26	211	7	10000	2	1	0	2	0
27	212	7	10000	2	1	0	2	0
29	213	7	10000	2	1	0	2	0
28	214	7	10000	2	1	0	2	0
27	215	7	10000	2	1	0	2	0
26	216	7	10000	2	1	0	2	0
27	217	7	10000	2	1	0	2	0
28	218	7	10000	2	1	0	2	0
26	219	7	10000	2	1	0	2	0
26	220	7	10000	2	1	0	2	0
25	221	7	10000	2	1	0	2	0
26	222	7	10000	2	1	0	2	0
26	223	7	10000	2	1	0	2	0
27	224	7	10000	2	1	0	2	0
25	225	7	10000	2	1	0	2	0
24	226	7	10000	2	1	0	2	0
23	227	7	10000	2	1	0	2	0
27	228	7	10000	2	1	0	2	0
27	229	7	10000	2	1	0	2	0
26	230	7	10000	2	1	0	2	0
24	231	7	10000	2	1	0	2	0
24	232	7	10000	2	1	0	2	0
26	233	7	10000	2	1	0	2	0
25	234	7	10000	2	1	0	2	0
25	235	7	10000	2	1	0	2	0
24	236	7	10000	2	1	0	2	0
24	237	7	10000	2	1	0	2	0
24	238	7	10000	2	1	0	2	0
24	239	7	10000	2	1	0	2	0
24	240	7	10000	2	1	0	2	0
24	241	7	10000	2	1	0	2	0
26	242	7	10000	2	1	0	2	0
27	243	7	10000	2	1	0	2	0
31	244	7	10000	2	1	0	2	0
34	245	7	10000	2	1	0	2	0
37	246	7	10000	2	1	0	2	0
40	247	7	10000	2	1	0	2	0
40	248	7	10000	2	1	0	2	0
39	249	7	10000	2	1	0	2	0
37	250	7	10000	2	1	0	2	0
36	251	7	10000	2	1	0	2	0
38	252	7	10000	2	1	0	2	0
40	253	7	10000	2	1	0	2	0
43	254	7	10000	2	1	0	2	0
50	255	7	10000	2	1	0	2	0
60	256	7	10000	2	1	0	2	0
71	257	7	10000	2	1	0	2	0
79	258	7	10000	2	1	0	2	0
86	259	7	10000	2	1	0	2	0
96	260	7	10000	2	1	0	2	0
105	261	7	10000	2	1	0	2	0
115	262	7	10000	2	1	0	2	0
123	263	7	10000	2	1	0	2	0
130	264	7	10000	2	1	0	2	0
140	265	7	10000	2	1	0	2	0
149	266	7	10000	2	1	0	2	0
157	267	7	10000	2	1	0	2	0
167	268	7	10000	2	1	0	2	0
173	269	7	10000	2	1	0	2	0
180	270	7	10000	2	1	0	2	0
188	271	7	10000	2	1	0	2	0
194	272	7	10000	2	1	0	2	0
199	273	7	10000	2	1	0	2	0
199	274	7	10000	2	1	0	2	0
202	275	7	10000	2	1	0	2	0
204	276	7	10000	2	1	0	2	0
206	277	7	10000	2	1	0	2	0
203	278	7	10000	2	1	0	2	0
199	279	7	10000	2	1	0	2	0
196	280	7	10000	2	1	0	2	0
193	281	7	10000	2	1	0	2	0
189	282	7	10000	2	1	0	2	0
183	283	7	10000	2	1	0	2	0
176	284	7	10000	2	1	0	2	0
167	285	7	10000	2	1	0	2	0
160	286	7	10000	2	1	0	2	0
154	287	7	10000	2	1	0	2	0
150	288	7	10000	2	1	0	2	0
148	289	7	10000	2	1	0	2	0
146	290	7	10000	2	1	0	2	0
143	291	7	10000	2	1	0	2	0
142	292	7	10000	2	1	0	2	0
142	293	7	10000	2	1	0	2	0
144	294	7	10000	2	1	0	2	0
150	295	7	10000	2	1	0	2	0
154	296	7	10000	2	1	0	2	0
158	297	7	10000	2	1	0	2	0
162	298	7	10000	2	1	0	2	0
170	299	7	10000	2	1	0	2	0
178	300	7	10000	2	1	0	2	0
185	301	7	10000	2	1	0	2	0
191	302	7	10000	2	1	0	2	0
196	303	7	10000	2	1	0	2	0
202	304	7	10000	2	1	0	2	0
210	305	7	10000	2	1	0	2	0
214	306	7	10000	2	1	0	2	0
218	307	7	10000	2	1	0	2	0
225	308	7	10000	2	1	0	2	0
229	309	7	10000	2	1	0	2	0
235	310	7	10000	2	1	0	2	0
237	311	7	10000	2	1	0	2	0
240	312	7	10000	2	1	0	2	0
243	313	7	10000	2	1	0	2	0
245	314	7	10000	2	1	0	2	0
251	315	7	10000	2	1	0	2	0
253	316	7	10000	2	1	0	2	0
255	317	7	10000	2	1	0	2	0
255	318	7	10000	2	1	0	2	0
255	319	7	10000	2	1	0	2	0
257	320	7	10000	2	1	0	2	0
256	321	7	10000	2	1	0	2	0
254	322	7	10000	2	1	0	2	0
252	323	7	10000	2	1	0	2	0
249	324	7	10000	2	1	0	2	0
248	325	7	10000	2	1	0	2	0
245	326	7	10000	2	1	0	2	0
241	327	7	10000	2	1	0	2	0
239	328	7	10000	2	1	0	2	0
235	329	7	10000	2	1	0	2	0
233	330	7	10000	2	1	0	2	0
228	331	7	10000	2	1	0	2	0
223	332	7	10000	2	1	0	2	0
218	333	7	10000	2	1	0	2	0
212	334	7	10000	2	1	0	2	0
208	335	7	10000	2	1	0	2	0
207	336	7	10000	2	1	0	2	0
201	337	7	10000	2	1	0	2	0
194	338	7	10000	2	1	0	2	0
190	339	7	10000	2	1	0	2	0
187	340	7	10000	2	1	0	2	0
183	341	7	10000	2	1	0	2	0
177	342	7	10000	2	1	0	2	0
171	343	7	10000	2	1	0	2	0
165	344	7	10000	2	1	0	2	0
159	345	7	10000	2	1	0	2	0
156	346	7	10000	2	1	0	2	0
151	347	7	10000	2	1	0	2	0
148	348	7	10000	2	1	0	2	0
143	349	7	10000	2	1	0	2	0
139	350	7	10000	2	1	0	2	0
136	351	7	10000	2	1	0	2	0
131	352	7	10000	2	1	0	2	0
125	353	7	10000	2	1	0	2	0
119	354	7	10000	2	1	0	2	0
115	355	7	10000	2	1	0	2	0
112	356	7	10000	2	1	0	2	0
108	357	7	10000	2	1	0	2	0
102	358	7	10000	2	1	0	2	0
98	359	7	10000	2	1	0	2	0
95	360	7	10000	2	1	0	2	0
95	361	7	10000	2	1	0	2	0
92	362	7	10000	2	1	0	2	0
88	363	7	10000	2	1	0	2	0
85	364	7	10000	2	1	0	2	0
80	365	7	10000	2	1	0	2	0
78	366	7	10000	2	1	0	2	0
76	367	7	10000	2	1	0	2	0
74	368	7	10000	2	1	0	2	0
72	369	7	10000	2	1	0	2	0
70	370	7	10000	2	1	0	2	0
68	371	7	10000	2	1	0	2	0
65	372	7	10000	2	1	0	2	0
64	373	7	10000	2	1	0	2	0
60	374	7	10000	2	1	0	2	0
58	375	7	10000	2	1	0	2	0
59	376	7	10000	2	1	0	2	0
59	377	7	10000	2	1	0	2	0
56	378	7	10000	2	1	0	2	0
56	379	7	10000	2	1	0	2	0
54	380	7	10000	2	1	0	2	0
56	381	7	10000	2	1	0	2	0
59	382	7	10000	2	1	0	2	0
57	383	7	10000	2	1	0	2	0
56	384	7	10000	2	1	0	2	0
54	385	7	10000	2	1	0	2	0
52	386	7	10000	2	1	0	2	0
50	387	7	10000	2	1	0	2	0
53	388	7	10000	2	1	0	2	0
53	389	7	10000	2	1	0	2	0
52	390	7	10000	2	1	0	2	0
50	391	7	10000	2	1	0	2	0
51	392	7	10000	2	1	0	2	0
51	393	7	10000	2	1	0	2	0
51	394	7	10000	2	1	0	2	0
53	395	7	10000	2	1	0	2	0
56	396	7	10000	2	1	0	2	0
59	397	7	10000	2	1	0	2	0
59	398	7	10000	2	1	0	2	0
61	399	7	10000	2	1	0	2	0
63	400	7	10000	2	1	0	2	0
65	401	7	10000	2	1	0	2	0
66	402	7	10000	2	1	0	2	0
66	403	7	10000	2	1	0	2	0
67	404	7	10000	2	1	0	2	0
66	405	7	10000	2	1	0	2	0
65	406	7	10000	2	1	0	2	0
68	407	7	10000	2	1	0	2	0
69	408	7	10000	2	1	0	2	0
66	409	7	10000	2	1	0	2	0
63	410	7	10000	2	1	0	2	0
61	411	7	10000	2	1	0	2	0
59	412	7	10000	2	1	0	2	0
58	413	7	10000	2	1	0	2	0
58	414	7	10000	2	1	0	2	0
59	415	7	10000	2	1	0	2	0
60	416	7	10000	2	1	0	2	0
59	417	7	10000	2	1	0	2	0
57	418	7	10000	2	1	0	2	0
59	419	7	10000	2	1	0	2	0
61	420	7	10000	2	1	0	2	0
64	421	7	10000	2	1	0	2	0
65	422	7	10000	2	1	0	2	0
65	423	7	10000	2	1	0	2	0
68	424	7	10000	2	1	0	2	0
70	425	7	10000	2	1	0	2	0
70	426	7	10000	2	1	0	2	0
71	427	7	10000	2	1	0	2	0
73	428	7	10000	2	1	0	2	0
74	429	7	10000	2	1	0	2	0
76	430	7	10000	2	1	0	2	0
79	431	7	10000	2	1	0	2	0
78	432	7	10000	2	1	0	2	0
77	433	7	10000	2	1	0	2	0
79	434	7	10000	2	1	0	2	0
81	435	7	10000	2	1	0	2	0
82	436	7	10000	2	1	0	2	0
83	437	7	10000	2	1	0	2	0
78	438	7	10000	2	1	0	2	0
79	439	7	10000	2	1	0	2	0
79	440	7	10000	2	1	0	2	0
80	441	7	10000	2	1	0	2	0
80	442	7	10000	2	1	0	2	0
77	443	7	10000	2	1	0	2	0
77	444	7	10000	2	1	0	2	0
77	445	7	10000	2	1	0	2	0
78	446	7	10000	2	1	0	2	0
78	447	7	10000	2	1	0	2	0
76	448	7	10000	2	1	0	2	0
74	449	7	10000	2	1	0	2	0
74	450	7	10000	2	1	0	2	0
72	451	7	10000	2	1	0	2	0
72	452	7	10000	2	1	0	2	0
69	453	7	10000	2	1	0	2	0
67	454	7	10000	2	1	0	2	0
68	455	7	10000	2	1	0	2	0
69	456	7	10000	2	1	0	2	0
69	457	7	10000	2	1	0	2	0
65	458	7	10000	2	1	0	2	0
63	459	7	10000	2	1	0	2	0
63	460	7	10000	2	1	0	2	0
63	461	7	10000	2	1	0	2	0
61	462	7	10000	2	1	0	2	0
60	463	7	10000	2	1	0	2	0
58	464	7	10000	2	1	0	2	0
57	465	7	10000	2	1	0	2	0
56	466	7	10000	2	1	0	2	0
56	467	7	10000	2	1	0	2	0
57	468	7	10000	2	1	0	2	0
54	469	7	10000	2	1	0	2	0
54	470	7	10000	2	1	0	2	0
53	471	7	10000	2	1	0	2	0
51	472	7	10000	2	1	0	2	0
49	473	7	10000	2	1	0	2	0
50	474	7	10000	2	1	0	2	0
48	475	7	10000	2	1	0	2	0
47	476	7	10000	2	1	0	2	0
48	477	7	10000	2	1	0	2	0
45	478	7	10000	2	1	0	2	0
44	479	7	10000	2	1	0	2	0
44	480	7	10000	2	1	0	2	0
44	481	7	10000	2	1	0	2	0
44	482	7	10000	2	1	0	2	0
44	483	7	10000	2	1	0	2	0
44	484	7	10000	2	1	0	2	0
42	485	7	10000	2	1	0	2	0
42	486	7	10000	2	1	0	2	0
41	487	7	10000	2	1	0	2	0
42	488	7	10000	2	1	0	2	0
40	489	7	10000	2	1	0	2	0
40	490	7	10000	2	1	0	2	0
40	491	7	10000	2	1	0	2	0
40	492	7	10000	2	1	0	2	0
39	493	7	10000	2	1	0	2	0
39	494	7	10000	2	1	0	2	0
39	495	7	10000	2	1	0	2	0
38	496	7	10000	2	1	0	2	0
37	497	7	10000	2	1	0	2	0
35	498	7	10000	2	1	0	2	0
36	499	7	10000	2	1	0	2	0
35	500	7	10000	2	1	0	2	0
35	501	7	10000	2	1	0	2	1
34	502	7	10000	2	1	0	2	1
34	503	7	10000	2	1	0	2	1
34	504	7	10000	2	1	0	2	1
33	505	7	10000	2	1	0	2	1
33	506	7	10000	2	1	0	2	1
32	507	7	10000	2	1	0	2	1
33	508	7	10000	2	1	0	2	1
33	509	7	10000	2	1	0	2	1
32	510	7	10000	2	1	0	2	1
32	511	7	10000	2	1	0	2	1
30	512	7	10000	2	1	0	2	1
30	513	7	10000	2	1	0	2	1
30	514	7	10000	2	1	0	2	1
29	515	7	10000	2	1	0	2	1
29	516	7	10000	2	1	0	2	1
28	517	7	10000	2	1	0	2	1
25	518	7	10000	2	1	0	2	1
27	519	7	10000	2	1	0	2	1
30	520	7	10000	2	1	0	2	1
30	521	7	10000	2	1	0	2	1
31	522	7	10000	2	1	0	2	1
32	523	7	10000	2	1	0	2	1
32	524	7	10000	2	1	0	2	1
32	525	7	10000	2	1	0	2	1
32	526	7	10000	2	1	0	2	1
31	527	7	10000	2	1	0	2	1
32	528	7	10000	2	1	0	2	1
32	529	7	10000	2	1	0	2	1
33	530	7	10000	2	1	0	2	1
33	531	7	10000	2	1	0	2	1
33	532	7	10000	2	1	0	2	1
35	533	7	10000	2	1	0	2	1
36	534	7	10000	2	1	0	2	1
41	535	7	10000	2	1	0	2	1
43	536	7	10000	2	1	0	2	1
46	537	7	10000	2	1	0	2	1
47	538	7	10000	2	1	0	2	1
51	539	7	10000	2	1	0	2	1
56	540	7	10000	2	1	0	2	1
59	541	7	10000	2	1	0	2	1
61	542	7	10000	2	1	0	2	1
62	543	7	10000	2	1	0	2	1
61	544	7	10000	2	1	0	2	1
62	545	7	10000	2	1	0	2	1
62	546	7	10000	2	1	0	2	1
61	547	7	10000	2	1	0	2	1
62	548	7	10000	2	1	0	2	1
61	549	7	10000	2	1	0	2	1
61	550	7	10000	2	1	0	2	1
59	551	7	10000	2	1	0	2	0
58	552	7	10000	2	1	0	2	0
56	553	7	10000	2	1	0	2	0
56	554	7	10000	2	1	0	2	0
56	555	7	10000	2	1	0	2	0
56	556	7	10000	2	1	0	2	0
54	557	7	10000	2	1	0	2	0
50	558	7	10000	2	1	0	2	0
51	559	7	10000	2	1	0	2	0
50	560	7	10000	2	1	0	2	0
51	561	7	10000	2	1	0	2	0
55	562	7	10000	2	1	0	2	0
61	563	7	10000	2	1	0	2	0
64	564	7	10000	2	1	0	2	0
66	565	7	10000	2	1	0	2	0
65	566	7	10000	2	1	0	2	0
66	567	7	10000	2	1	0	2	0
69	568	7	10000	2	1	0	2	0
70	569	7	10000	2	1	0	2	0
70	570	7	10000	2	1	0	2	0
70	571	7	10000	2	1	0	2	0
73	572	7	10000	2	1	0	2	0
75	573	7	10000	2	1	0	2	0
75	574	7	10000	2	1	0	2	0
76	575	7	10000	2	1	0	2	0
74	576	7	10000	2	1	0	2	0
73	577	7	10000	2	1	0	2	0
72	578	7	10000	2	1	0	2	0
72	579	7	10000	2	1	0	2	0
72	580	7	10000	2	1	0	2	0
69	581	7	10000	2	1	0	2	0
70	582	7	10000	2	1	0	2	0
69	583	7	10000	2	1	0	2	0
69	584	7	10000	2	1	0	2	0
68	585	7	10000	2	1	0	2	0
65	586	7	10000	2	1	0	2	0
63	587	7	10000	2	1	0	2	0
65	588	7	10000	2	1	0	2	0
64	589	7	10000	2	1	0	2	0
63	590	7	10000	2	1	0	2	0
61	591	7	10000	2	1	0	2	0
60	592	7	10000	2	1	0	2	0
57	593	7	10000	2	1	0	2	0
56	594	7	10000	2	1	0	2	0
56	595	7	10000	2	1	0	2	0
55	596	7	10000	2	1	0	2	0
55	597	7	10000	2	1	0	2	0
55	598	7	10000	2	1	0	2	0
53	599	7	10000	2	1	0	2	0
53	600	7	10000	2	1	0	2	0
52	601	7	10000	2	1	0	2	0
50	602	7	10000	2	1	0	2	0
48	603	7	10000	2	1	0	2	0
47	604	7	10000	2	1	0	2	0
45	605	7	10000	2	1	0	2	0
44	606	7	10000	2	1	0	2	0
44	607	7	10000	2	1	0	2	0
48	608	7	10000	2	1	0	2	0
49	609	7	10000	2	1	0	2	0
49	610	7	10000	2	1	0	2	0
48	611	7	10000	2	1	0	2	0
48	612	7	10000	2	1	0	2	0
49	613	7	10000	2	1	0	2	0
49	614	7	10000	2	1	0	2	0
50	615	7	10000	2	1	0	2	0
49	616	7	10000	2	1	0	2	0
48	617	7	10000	2	1	0	2	0
44	618	7	10000	2	1	0	2	0
44	619	7	10000	2	1	0	2	0
42	620	7	10000	2	1	0	2	0
42	621	7	10000	2	1	0	2	0
41	622	7	10000	2	1	0	2	0
45	623	7	10000	2	1	0	2	0
48	624	7	10000	2	1	0	2	0
48	625	7	10000	2	1	0	2	0
47	626	7	10000	2	1	0	2	0
47	627	7	10000	2	1	0	2	0
48	628	7	10000	2	1	0	2	0
48	629	7	10000	2	1	0	2	0
46	630	7	10000	2	1	0	2	0
46	631	7	10000	2	1	0	2	0
47	632	7	10000	2	1	0	2	0
46	633	7	10000	2	1	0	2	0
44	634	7	10000	2	1	0	2	0
43	635	7	10000	2	1	0	2	0
42	636	7	10000	2	1	0	2	0
43	637	7	10000	2	1	0	2	0
41	638	7	10000	2	1	0	2	0
40	639	7	10000	2	1	0	2	0
38	640	7	10000	2	1	0	2	0
37	641	7	10000	2	1	0	2	0
37	642	7	10000	2	1	0	2	0
37	643	7	10000	2	1	0	2	0
36	644	7	10000	2	1	0	2	0
34	645	7	10000	2	1	0	2	0
32	646	7	10000	2	1	0	2	0
32	647	7	10000	2	1	0	2	0
34	648	7	10000	2	1	0	2	0
34	649	7	10000	2	1	0	2	0
33	650	7	10000	2	1	0	2	0
31	651	7	10000	2	1	0	2	0
32	652	7	10000	2	1	0	2	0
32	653	7	10000	2	1	0	2	0
31	654	7	10000	2	1	0	2	0
31	655	7	10000	2	1	0	2	0
30	656	7	10000	2	1	0	2	0
29	657	7	10000	2	1	0	2	0
28	658	7	10000	2	1	0	2	0
28	659	7	10000	2	1	0	2	0
28	660	7	10000	2	1	0	2	0
28	661	7	10000	2	1	0	2	0
28	662	7	10000	2	1	0	2	0
29	663	7	10000	2	1	0	2	0
28	664	7	10000	2	1	0	2	0
28	665	7	10000	2	1	0	2	0
27	666	7	10000	2	1	0	2	0
26	667	7	10000	2	1	0	2	0
29	668	7	10000	2	1	0	2	0
28	669	7	10000	2	1	0	2	0
27	670	7	10000	2	1	0	2	0
25	671	7	10000	2	1	0	2	0
26	672	7	10000	2	1	0	2	0
27	673	7	10000	2	1	0	2	0
26	674	7	10000	2	1	0	2	0
27	675	7	10000	2	1	0	2	0
28	676	7	10000	2	1	0	2	0
30	677	7	10000	2	1	0	2	0
28	678	7	10000	2	1	0	2	0
27	679	7	10000	2	1	0	2	0
28	680	7	10000	2	1	0	2	0
27	681	7	10000	2	1	0	2	0
27	682	7	10000	2	1	0	2	0
28	683	7	10000	2	1	0	2	0
29	684	7	10000	2	1	0	2	0
27	685	7	10000	2	1	0	2	0
26	686	7	10000	2	1	0	2	0
25	687	7	10000	2	1	0	2	0
27	688	7	10000	2	1	0	2	0
27	689	7	10000	2	1	0	2	0
27	690	7	10000	2	1	0	2	0
26	691	7	10000	2	1	0	2	0
27	692	7	10000	2	1	0	2	0
27	693	7	10000	2	1	0	2	0
26	694	7	10000	2	1	0	2	0
28	695	7	10000	2	1	0	2	0
26	696	7	10000	2	1	0	2	0
26	697	7	10000	2	1	0	2	0
25	698	7	10000	2	1	0	2	0
25	699	7	10000	2	1	0	2	0
25	700	7	10000	2	1	0	2	0
26	701	7	10000	2	1	0	2	0
26	702	7	10000	2	1	0	2	0
26	703	7	10000	2	1	0	2	0
28	704	7	10000	2	1	0	2	0
26	705	7	10000	2	1	0	2	0
25	706	7	10000	2	1	0	2	0
24	707	7	10000	2	1	0	2	0
26	708	7	10000	2	1	0	2	0
27	709	7	10000	2	1	0	2	0
27	710	7	10000	2	1	0	2	0
26	711	7	10000	2	1	0	2	0
26	712	7	10000	2	1	0	2	0
26	713	7	10000	2	1	0	2	0
26	714	7	10000	2	1	0	2	0
26	715	7	10000	2	1	0	2	0
26	716	7	10000	2	1	0	2	0
25	717	7	10000	2	1	0	2	0
23	718	7	10000	2	1	0	2	0
24	719	7	10000	2	1	0	2	0
24	720	7	10000	2	1	0	2	0
25	721	7	10000	2	1	0	2	0
24	722	7	10000	2	1	0	2	0
24	723	7	10000	2	1	0	2	0
25	724	7	10000	2	1	0	2	0
24	725	7	10000	2	1	0	2	0
24	726	7	10000	2	1	0	2	0
23	727	7	10000	2	1	0	2	0
24	728	7	10000	2	1	0	2	0
25	729	7	10000	2	1	0	2	0
24	730	7	10000	2	1	0	2	0
24	731	7	10000	2	1	0	2	0
23	732	7	10000	2	1	0	2	0
22	733	7	10000	2	1	0	2	0
23	734	7	10000	2	1	0	2	0
26	735	7	10000	2	1	0	2	0
26	736	7	10000	2	1	0	2	0
25	737	7	10000	2	1	0	2	0
23	738	7	10000	2	1	0	2	0
23	739	7	10000	2	1	0	2	0
23	740	7	10000	2	1	0	2	0
23	741	7	10000	2	1	0	2	0
22	742	7	10000	2	1	0	2	0
21	743	7	10000	2	1	0	2	0
23	744	7	10000	2	1	0	2	0
24	745	7	10000	2	1	0	2	0
24	746	7	10000	2	1	0	2	0
24	747	7	10000	2	1	0	2	0
24	748	7	10000	2	1	0	2	0
25	749	7	10000	2	1	0	2	0
28	750	7	10000	2	1	0	2	0
28	751	7	10000	2	1	0	2	0
30	752	7	10000	2	1	0	2	0
31	753	7	10000	2	1	0	2	0
31	754	7	10000	2	1	0	2	0
35	755	7	10000	2	1	0	2	0
35	756	7	10000	2	1	0	2	0
34	757	7	10000	2	1	0	2	0
31	758	7	10000	2	1	0	2	0
32	759	7	10000	2	1	0	2	0
33	760	7	10000	2	1	0	2	0
32	761	7	10000	2	1	0	2	0
32	762	7	10000	2	1	0	2	0
30	763	7	10000	2	1	0	2	0
30	764	7	10000	2	1	0	2	0
30	765	7	10000	2	1	0	2	0
29	766	7	10000	2	1	0	2	0
29	767	7	10000	2	1	0	2	0
30	768	7	10000	2	1	0	2	0
30	769	7	10000	2	1	0	2	0
29	770	7	10000	2	1	0	2	0
29	771	7	10000	2	1	0	2	0
28	772	7	10000	2	1	0	2	0
29	773	7	10000	2	1	0	2	0
29	774	7	10000	2	1	0	2	0
29	775	7	10000	2	1	0	2	0
29	776	7	10000	2	1	0	2	0
30	777	7	10000	2	1	0	2	0
28	778	7	10000	2	1	0	2	0
30	779	7	10000	2	1	0	2	0
29	780	7	10000	2	1	0	2	0
29	781	7	10000	2	1	0	2	0
30	782	7	10000	2	1	0	2	0
30	783	7	10000	2	1	0	2	0
32	784	7	10000	2	1	0	2	0
30	785	7	10000	2	1	0	2	0
29	786	7	10000	2	1	0	2	0
31	787	7	10000	2	1	0	2	0
32	788	7	10000	2	1	0	2	0
31	789	7	10000	2	1	0	2	0
31	790	7	10000	2	1	0	2	0
30	791	7	10000	2	1	0	2	0
30	792	7	10000	2	1	0	2	0
31	793	7	10000	2	1	0	2	0
31	794	7	10000	2	1	0	2	0
31	795	7	10000	2	1	0	2	0
31	796	7	10000	2	1	0	2	0
31	797	7	10000	2	1	0	2	0
30	798	7	10000	2	1	0	2	0
30	799	7	10000	2	1	0	2	0
30	800	7	10000	2	1	0	2	0
29	801	7	10000	2	1	0	2	0
30	802	7	10000	2	1	0	2	0
29	803	7	10000	2	1	0	2	0
29	804	7	10000	2	1	0	2	0
28	805	7	10000	2	1	0	2	0
29	806	7	10000	2	1	0	2	0
28	807	7	10000	2	1	0	2	0
30	808	7	10000	2	1	0	2	0
29	809	7	10000	2	1	0	2	0
29	810	7	10000	2	1	0	2	0
29	811	7	10000	2	1	0	2	0
29	812	7	10000	2	1	0	2	0
29	813	7	10000	2	1	0	2	0
28	814	7	10000	2	1	0	2	0
29	815	7	10000	2	1	0	2	0
29	816	7	10000	2	1	0	2	0
28	817	7	10000	2	1	0	2	0
26	818	7	10000	2	1	0	2	0
26	819	7	10000	2	1	0	2	0
26	820	7	10000	2	1	0	2	0
27	821	7	10000	2	1	0	2	0
27	822	7	10000	2	1	0	2	0
26	823	7	10000	2	1	0	2	0
26	824	7	10000	2	1	0	2	0
26	825	7	10000	2	1	0	2	0
26	826	7	10000	2	1	0	2	0
26	827	7	10000	2	1	0	2	0
27	828	7	10000	2	1	0	2	0
26	829	7	10000	2	1	0	2	0
27	830	7	10000	2	1	0	2	0
27	831	7	10000	2	1	0	2	0
26	832	7	10000	2	1	0	2	0
28	833	7	10000	2	1	0	2	0
26	834	7	10000	2	1	0	2	0
26	835	7	10000	2	1	0	2	0
27	836	7	10000	2	1	0	2	0
26	837	7	10000	2	1	0	2	0
25	838	7	10000	2	1	0	2	0
25	839	7	10000	2	1	0	2	0
24	840	7	10000	2	1	0	2	0
25	841	7	10000	2	1	0	2	0
25	842	7	10000	2	1	0	2	0
25	843	7	10000	2	1	0	2	0
24	844	7	10000	2	1	0	2	0
23	845	7	10000	2	1	0	2	0
23	846	7	10000	2	1	0	2	0
24	847	7	10000	2	1	0	2	0
25	848	7	10000	2	1	0	2	0
24	849	7	10000	2	1	0	2	0
23	850	7	10000	2	1	0	2	0
23	851	7	10000	2	1	0	2	0
25	852	7	10000	2	1	0	2	0
25	853	7	10000	2	1	0	2	0
24	854	7	10000	2	1	0	2	0
25	855	7	10000	2	1	0	2	0
26	856	7	10000	2	1	0	2	0
26	857	7	10000	2	1	0	2	0
24	858	7	10000	2	1	0	2	0
24	859	7	10000	2	1	0	2	0
23	860	7	10000	2	1	0	2	0
23	861	7	10000	2	1	0	2	0
24	862	7	10000	2	1	0	2	0
24	863	7	10000	2	1	0	2	0
25	864	7	10000	2	1	0	2	0
23	865	7	10000	2	1	0	2	0
21	866	7	10000	2	1	0	2	0
24	867	7	10000	2	1	0	2	0
25	868	7	10000	2	1	0	2	0
25	869	7	10000	2	1	0	2	0
24	870	7	10000	2	1	0	2	0
23	871	7	10000	2	1	0	2	0
23	872	7	10000	2	1	0	2	0
24	873	7	10000	2	1	0	2	0
24	874	7	10000	2	1	0	2	0
23	875	7	10000	2	1	0	2	0
24	876	7	10000	2	1	0	2	0
24	877	7	10000	2	1	0	2	0
21	878	7	10000	2	1	0	2	0
23	879	7	10000	2	1	0	2	0
22	880	7	10000	2	1	0	2	0
23	881	7	10000	2	1	0	2	0
24	882	7	10000	2	1	0	2	0
24	883	7	10000	2	1	0	2	0
23	884	7	10000	2	1	0	2	0
23	885	7	10000	2	1	0	2	0
21	886	7	10000	2	1	0	2	0
21	887	7	10000	2	1	0	2	0
24	888	7	10000	2	1	0	2	0
23	889	7	10000	2	1	0	2	0
22	890	7	10000	2	1	0	2	0
21	891	7	10000	2	1	0	2	0
22	892	7	10000	2	1	0	2	0
23	893	7	10000	2	1	0	2	0
22	894	7	10000	2	1	0	2	0
23	895	7	10000	2	1	0	2	0
22	896	7	10000	2	1	0	2	0
22	897	7	10000	2	1	0	2	0
22	898	7	10000	2	1	0	2	0
21	899	7	10000	2	1	0	2	0
21	900	7	10000	2	1	0	2	0
21	901	7	10000	2	1	0	2	0
20	902	7	10000	2	1	0	2	0
23	903	7	10000	2	1	0	2	0
24	904	7	10000	2	1	0	2	0
22	905	7	10000	2	1	0	2	0
21	906	7	10000	2	1	0	2	0
22	907	7	10000	2	1	0	2	0
23	908	7	10000	2	1	0	2	0
23	909	7	10000	2	1	0	2	0
23	910	7	10000	2	1	0	2	0
23	911	7	10000	2	1	0	2	0
23	912	7	10000	2	1	0	2	0
23	913	7	10000	2	1	0	2	0
24	914	7	10000	2	1	0	2	0
24	915	7	10000	2	1	0	2	0
23	916	7	10000	2	1	0	2	0
23	917	7	10000	2	1	0	2	0
22	918	7	10000	2	1	0	2	0
23	919	7	10000	2	1	0	2	0
23	920	7	10000	2	1	0	2	0
23	921	7	10000	2	1	0	2	0
24	922	7	10000	2	1	0	2	0
23	923	7	10000	2	1	0	2	0
25	924	7	10000	2	1	0	2	0
24	925	7	10000	2	1	0	2	0
22	926	7	10000	2	1	0	2	0
21	927	7	10000	2	1	0	2	0
24	928	7	10000	2	1	0	2	0
24	929	7	10000	2	1	0	2	0
24	930	7	10000	2	1	0	2	0
23	931	7	10000	2	1	0	2	0
21	932	7	10000	2	1	0	2	0
21	933	7	10000	2	1	0	2	0
23	934	7	10000	2	1	0	2	0
24	935	7	10000	2	1	0	2	0
24	936	7	10000	2	1	0	2	0
23	937	7	10000	2	1	0	2	0
22	938	7	10000	2	1	0	2	0
23	939	7	10000	2	1	0	2	0
23	940	7	10000	2	1	0	2	0
24	941	7	10000	2	1	0	2	0
24	942	7	10000	2	1	0	2	0
23	943	7	10000	2	1	0	2	0
25	944	7	10000	2	1	0	2	0
24	945	7	10000	2	1	0	2	0
23	946	7	10000	2	1	0	2	0
22	947	7	10000	2	1	0	2	0
23	948	7	10000	2	1	0	2	0
22	949	7	10000	2	1	0	2	0
23	950	7	10000	2	1	0	2	0
23	951	7	10000	2	1	0	2	0
22	952	7	10000	2	1	0	2	0
23	953	7	10000	2	1	0	2	0
23	954	7	10000	2	1	0	2	0
24	955	7	10000	2	1	0	2	0
24	956	7	10000	2	1	0	2	0
24	957	7	10000	2	1	0	2	0
21	958	7	10000	2	1	0	2	0
23	959	7	10000	2	1	0	2	0
23	960	7	10000	2	1	0	2	0
23	961	7	10000	2	1	0	2	0
22	962	7	10000	2	1	0	2	0
21	963	7	10000	2	1	0	2	0
22	964	7	10000	2	1	0	2	0
23	965	7	10000	2	1	0	2	0
22	966	7	10000	2	1	0	2	0
21	967	7	10000	2	1	0	2	0
23	968	7	10000	2	1	0	2	0
22	969	7	10000	2	1	0	2	0
23	970	7	10000	2	1	0	2	0
23	971	7	10000	2	1	0	2	0
21	972	7	10000	2	1	0	2	0
20	973	7	10000	2	1	0	2	0
20	974	7	10000	2	1	0	2	0
22	975	7	10000	2	1	0	2	0
22	976	7	10000	2	1	0	2	0
22	977	7	10000	2	1	0	2	0
20	978	7	10000	2	1	0	2	0
20	979	7	10000	2	1	0	2	0
21	980	7	10000	2	1	0	2	0
21	981	7	10000	2	1	0	2	0
21	982	7	10000	2	1	0	2	0
20	983	7	10000	2	1	0	2	0
20	984	7	10000	2	1	0	2	0
20	985	7	10000	2	1	0	2	0
20	986	7	10000	2	1	0	2	0
20	987	7	10000	2	1	0	2	0
21	988	7	10000	2	1	0	2	0
20	989	7	10000	2	1	0	2	0
21	990	7	10000	2	1	0	2	0
21	991	7	10000	2	1	0	2	0
21	992	7	10000	2	1	0	2	0
21	993	7	10000	2	1	0	2	0
20	994	7	10000	2	1	0	2	0
20	995	7	10000	2	1	0	2	0
20	996	7	10000	2	1	0	2	0
20	997	7	10000	2	1	0	2	0
19	998	7	10000	2	1	0	2	0
19	999	7	10000	2	1	0	2	0
20	1000	7	10000	2	1	0	2	0
54	2	7	10000	3	1	0	3	0
54	3	7	10000	3	1	0	3	0
56	4	7	10000	3	1	0	3	0
59	5	7	10000	3	1	0	3	0
60	6	7	10000	3	1	0	3	0
62	7	7	10000	3	1	0	3	0
60	8	7	10000	3	1	0	3	0
63	9	7	10000	3	1	0	3	0
66	10	7	10000	3	1	0	3	0
66	11	7	10000	3	1	0	3	0
68	12	7	10000	3	1	0	3	0
66	13	7	10000	3	1	0	3	0
66	14	7	10000	3	1	0	3	0
67	15	7	10000	3	1	0	3	0
68	16	7	10000	3	1	0	3	0
70	17	7	10000	3	1	0	3	0
70	18	7	10000	3	1	0	3	0
67	19	7	10000	3	1	0	3	0
67	20	7	10000	3	1	0	3	0
66	21	7	10000	3	1	0	3	0
67	21	7	10000	3	1	0	3	0
69	22	7	10000	3	1	0	3	0
67	24	7	10000	3	1	0	3	0
65	25	7	10000	3	1	0	3	0
64	26	7	10000	3	1	0	3	0
63	27	7	10000	3	1	0	3	0
63	28	7	10000	3	1	0	3	0
63	29	7	10000	3	1	0	3	0
61	30	7	10000	3	1	0	3	0
59	31	7	10000	3	1	0	3	0
58	31	7	10000	3	1	0	3	0
57	32	7	10000	3	1	0	3	0
58	34	7	10000	3	1	0	3	0
56	35	7	10000	3	1	0	3	0
54	36	7	10000	3	1	0	3	0
54	37	7	10000	3	1	0	3	0
54	38	7	10000	3	1	0	3	0
52	39	7	10000	3	1	0	3	0
51	40	7	10000	3	1	0	3	0
50	41	7	10000	3	1	0	3	0
50	41	7	10000	3	1	0	3	0
50	42	7	10000	3	1	0	3	0
50	44	7	10000	3	1	0	3	0
50	45	7	10000	3	1	0	3	0
49	46	7	10000	3	1	0	3	0
47	47	7	10000	3	1	0	3	0
45	48	7	10000	3	1	0	3	0
46	49	7	10000	3	1	0	3	0
45	50	7	10000	3	1	0	3	0
44	51	7	10000	3	1	0	3	0
44	51	7	10000	3	1	0	3	0
43	52	7	10000	3	1	0	3	0
43	54	7	10000	3	1	0	3	0
43	55	7	10000	3	1	0	3	0
42	56	7	10000	3	1	0	3	0
42	57	7	10000	3	1	0	3	0
43	58	7	10000	3	1	0	3	0
40	59	7	10000	3	1	0	3	0
39	60	7	10000	3	1	0	3	0
37	61	7	10000	3	1	0	3	0
36	61	7	10000	3	1	0	3	0
38	62	7	10000	3	1	0	3	0
36	64	7	10000	3	1	0	3	0
36	65	7	10000	3	1	0	3	0
36	66	7	10000	3	1	0	3	0
34	67	7	10000	3	1	0	3	0
34	68	7	10000	3	1	0	3	0
37	69	7	10000	3	1	0	3	0
36	70	7	10000	3	1	0	3	0
34	71	7	10000	3	1	0	3	0
32	71	7	10000	3	1	0	3	0
31	72	7	10000	3	1	0	3	0
32	74	7	10000	3	1	0	3	0
32	75	7	10000	3	1	0	3	0
32	76	7	10000	3	1	0	3	0
30	77	7	10000	3	1	0	3	0
30	78	7	10000	3	1	0	3	0
29	79	7	10000	3	1	0	3	0
29	80	7	10000	3	1	0	3	0
29	81	7	10000	3	1	0	3	0
30	81	7	10000	3	1	0	3	0
30	82	7	10000	3	1	0	3	0
30	84	7	10000	3	1	0	3	0
30	85	7	10000	3	1	0	3	0
29	86	7	10000	3	1	0	3	0
29	87	7	10000	3	1	0	3	0
27	88	7	10000	3	1	0	3	0
28	89	7	10000	3	1	0	3	0
28	90	7	10000	3	1	0	3	0
28	91	7	10000	3	1	0	3	0
27	91	7	10000	3	1	0	3	0
26	92	7	10000	3	1	0	3	0
25	94	7	10000	3	1	0	3	0
25	95	7	10000	3	1	0	3	0
26	96	7	10000	3	1	0	3	0
28	97	7	10000	3	1	0	3	0
27	98	7	10000	3	1	0	3	0
24	99	7	10000	3	1	0	3	0
25	100	7	10000	3	1	0	3	0
25	101	7	10000	3	1	0	3	0
25	101	7	10000	3	1	0	3	0
26	102	7	10000	3	1	0	3	0
25	104	7	10000	3	1	0	3	0
25	105	7	10000	3	1	0	3	0
26	106	7	10000	3	1	0	3	0
25	107	7	10000	3	1	0	3	0
26	108	7	10000	3	1	0	3	0
28	109	7	10000	3	1	0	3	0
26	110	7	10000	3	1	0	3	0
25	111	7	10000	3	1	0	3	0
25	111	7	10000	3	1	0	3	0
25	112	7	10000	3	1	0	3	0
24	114	7	10000	3	1	0	3	0
24	115	7	10000	3	1	0	3	0
25	116	7	10000	3	1	0	3	0
24	117	7	10000	3	1	0	3	0
25	118	7	10000	3	1	0	3	0
23	119	7	10000	3	1	0	3	0
23	120	7	10000	3	1	0	3	0
23	121	7	10000	3	1	0	3	0
22	121	7	10000	3	1	0	3	0
22	122	7	10000	3	1	0	3	0
24	124	7	10000	3	1	0	3	0
25	125	7	10000	3	1	0	3	0
24	126	7	10000	3	1	0	3	0
24	127	7	10000	3	1	0	3	0
23	128	7	10000	3	1	0	3	0
24	129	7	10000	3	1	0	3	0
26	130	7	10000	3	1	0	3	0
25	131	7	10000	3	1	0	3	0
24	131	7	10000	3	1	0	3	0
23	132	7	10000	3	1	0	3	0
23	134	7	10000	3	1	0	3	0
24	135	7	10000	3	1	0	3	0
25	136	7	10000	3	1	0	3	0
24	137	7	10000	3	1	0	3	0
24	138	7	10000	3	1	0	3	0
21	139	7	10000	3	1	0	3	0
22	140	7	10000	3	1	0	3	0
23	141	7	10000	3	1	0	3	0
23	141	7	10000	3	1	0	3	0
23	142	7	10000	3	1	0	3	0
22	144	7	10000	3	1	0	3	0
22	145	7	10000	3	1	0	3	0
23	146	7	10000	3	1	0	3	0
23	147	7	10000	3	1	0	3	0
22	148	7	10000	3	1	0	3	0
23	149	7	10000	3	1	0	3	0
22	150	7	10000	3	1	0	3	0
22	151	7	10000	3	1	0	3	0
24	151	7	10000	3	1	0	3	0
23	152	7	10000	3	1	0	3	0
24	154	7	10000	3	1	0	3	0
24	155	7	10000	3	1	0	3	0
24	156	7	10000	3	1	0	3	0
24	157	7	10000	3	1	0	3	0
26	158	7	10000	3	1	0	3	0
24	159	7	10000	3	1	0	3	0
23	160	7	10000	3	1	0	3	0
23	161	7	10000	3	1	0	3	0
24	161	7	10000	3	1	0	3	0
25	162	7	10000	3	1	0	3	0
25	164	7	10000	3	1	0	3	0
24	165	7	10000	3	1	0	3	0
23	166	7	10000	3	1	0	3	0
22	167	7	10000	3	1	0	3	0
22	168	7	10000	3	1	0	3	0
24	169	7	10000	3	1	0	3	0
25	170	7	10000	3	1	0	3	0
25	171	7	10000	3	1	0	3	0
23	171	7	10000	3	1	0	3	0
23	172	7	10000	3	1	0	3	0
25	174	7	10000	3	1	0	3	0
25	175	7	10000	3	1	0	3	0
25	176	7	10000	3	1	0	3	0
25	177	7	10000	3	1	0	3	0
25	178	7	10000	3	1	0	3	0
23	179	7	10000	3	1	0	3	0
24	180	7	10000	3	1	0	3	0
25	181	7	10000	3	1	0	3	0
26	181	7	10000	3	1	0	3	0
26	182	7	10000	3	1	0	3	0
26	184	7	10000	3	1	0	3	0
27	185	7	10000	3	1	0	3	0
26	186	7	10000	3	1	0	3	0
27	187	7	10000	3	1	0	3	0
25	188	7	10000	3	1	0	3	0
27	189	7	10000	3	1	0	3	0
26	190	7	10000	3	1	0	3	0
27	191	7	10000	3	1	0	3	0
27	191	7	10000	3	1	0	3	0
25	192	7	10000	3	1	0	3	0
24	194	7	10000	3	1	0	3	0
24	195	7	10000	3	1	0	3	0
24	196	7	10000	3	1	0	3	0
25	197	7	10000	3	1	0	3	0
25	198	7	10000	3	1	0	3	0
23	199	7	10000	3	1	0	3	0
22	200	7	10000	3	1	0	3	0
21	201	7	10000	3	1	0	3	0
22	201	7	10000	3	1	0	3	0
21	202	7	10000	3	1	0	3	0
22	204	7	10000	3	1	0	3	0
22	205	7	10000	3	1	0	3	0
21	206	7	10000	3	1	0	3	0
21	207	7	10000	3	1	0	3	0
23	208	7	10000	3	1	0	3	0
24	209	7	10000	3	1	0	3	0
23	210	7	10000	3	1	0	3	0
22	211	7	10000	3	1	0	3	0
22	211	7	10000	3	1	0	3	0
23	212	7	10000	3	1	0	3	0
23	214	7	10000	3	1	0	3	0
23	215	7	10000	3	1	0	3	0
23	216	7	10000	3	1	0	3	0
24	217	7	10000	3	1	0	3	0
24	218	7	10000	3	1	0	3	0
24	219	7	10000	3	1	0	3	0
23	220	7	10000	3	1	0	3	0
23	221	7	10000	3	1	0	3	0
23	221	7	10000	3	1	0	3	0
23	222	7	10000	3	1	0	3	0
24	224	7	10000	3	1	0	3	0
25	225	7	10000	3	1	0	3	0
25	226	7	10000	3	1	0	3	0
23	227	7	10000	3	1	0	3	0
22	228	7	10000	3	1	0	3	0
25	229	7	10000	3	1	0	3	0
25	230	7	10000	3	1	0	3	0
24	231	7	10000	3	1	0	3	0
24	231	7	10000	3	1	0	3	0
23	232	7	10000	3	1	0	3	0
22	234	7	10000	3	1	0	3	0
24	235	7	10000	3	1	0	3	0
24	236	7	10000	3	1	0	3	0
24	237	7	10000	3	1	0	3	0
26	238	7	10000	3	1	0	3	0
26	239	7	10000	3	1	0	3	0
26	240	7	10000	3	1	0	3	0
25	241	7	10000	3	1	0	3	0
27	241	7	10000	3	1	0	3	0
29	242	7	10000	3	1	0	3	0
30	244	7	10000	3	1	0	3	0
30	245	7	10000	3	1	0	3	0
30	246	7	10000	3	1	0	3	0
30	247	7	10000	3	1	0	3	0
29	248	7	10000	3	1	0	3	0
29	249	7	10000	3	1	0	3	0
30	250	7	10000	3	1	0	3	0
30	251	7	10000	3	1	0	3	0
29	251	7	10000	3	1	0	3	0
29	252	7	10000	3	1	0	3	0
32	254	7	10000	3	1	0	3	0
34	255	7	10000	3	1	0	3	0
37	256	7	10000	3	1	0	3	0
39	257	7	10000	3	1	0	3	0
40	258	7	10000	3	1	0	3	0
41	259	7	10000	3	1	0	3	0
44	260	7	10000	3	1	0	3	0
45	261	7	10000	3	1	0	3	0
47	261	7	10000	3	1	0	3	0
45	262	7	10000	3	1	0	3	0
46	264	7	10000	3	1	0	3	0
50	265	7	10000	3	1	0	3	0
51	266	7	10000	3	1	0	3	0
53	267	7	10000	3	1	0	3	0
53	268	7	10000	3	1	0	3	0
52	269	7	10000	3	1	0	3	0
52	270	7	10000	3	1	0	3	0
51	271	7	10000	3	1	0	3	0
49	271	7	10000	3	1	0	3	0
47	272	7	10000	3	1	0	3	0
48	274	7	10000	3	1	0	3	0
48	275	7	10000	3	1	0	3	0
46	276	7	10000	3	1	0	3	0
44	277	7	10000	3	1	0	3	0
44	278	7	10000	3	1	0	3	0
42	279	7	10000	3	1	0	3	0
45	280	7	10000	3	1	0	3	0
45	281	7	10000	3	1	0	3	0
46	281	7	10000	3	1	0	3	0
46	282	7	10000	3	1	0	3	0
45	284	7	10000	3	1	0	3	0
49	285	7	10000	3	1	0	3	0
51	286	7	10000	3	1	0	3	0
50	287	7	10000	3	1	0	3	0
49	288	7	10000	3	1	0	3	0
51	289	7	10000	3	1	0	3	0
52	290	7	10000	3	1	0	3	0
54	291	7	10000	3	1	0	3	0
54	291	7	10000	3	1	0	3	0
54	292	7	10000	3	1	0	3	0
53	294	7	10000	3	1	0	3	0
52	295	7	10000	3	1	0	3	0
53	296	7	10000	3	1	0	3	0
55	297	7	10000	3	1	0	3	0
55	298	7	10000	3	1	0	3	0
53	299	7	10000	3	1	0	3	0
54	300	7	10000	3	1	0	3	0
54	301	7	10000	3	1	0	3	0
55	301	7	10000	3	1	0	3	0
55	302	7	10000	3	1	0	3	0
53	304	7	10000	3	1	0	3	0
51	305	7	10000	3	1	0	3	0
50	306	7	10000	3	1	0	3	0
48	307	7	10000	3	1	0	3	0
49	308	7	10000	3	1	0	3	0
50	309	7	10000	3	1	0	3	0
49	310	7	10000	3	1	0	3	0
48	311	7	10000	3	1	0	3	0
47	311	7	10000	3	1	0	3	0
47	312	7	10000	3	1	0	3	0
47	314	7	10000	3	1	0	3	0
45	315	7	10000	3	1	0	3	0
44	316	7	10000	3	1	0	3	0
43	317	7	10000	3	1	0	3	0
44	318	7	10000	3	1	0	3	0
42	319	7	10000	3	1	0	3	0
41	320	7	10000	3	1	0	3	0
40	321	7	10000	3	1	0	3	0
38	321	7	10000	3	1	0	3	0
37	322	7	10000	3	1	0	3	0
39	324	7	10000	3	1	0	3	0
40	325	7	10000	3	1	0	3	0
37	326	7	10000	3	1	0	3	0
36	327	7	10000	3	1	0	3	0
34	328	7	10000	3	1	0	3	0
35	329	7	10000	3	1	0	3	0
35	330	7	10000	3	1	0	3	0
35	331	7	10000	3	1	0	3	0
33	331	7	10000	3	1	0	3	0
32	332	7	10000	3	1	0	3	0
32	334	7	10000	3	1	0	3	0
32	335	7	10000	3	1	0	3	0
32	336	7	10000	3	1	0	3	0
32	337	7	10000	3	1	0	3	0
31	338	7	10000	3	1	0	3	0
29	339	7	10000	3	1	0	3	0
29	340	7	10000	3	1	0	3	0
29	341	7	10000	3	1	0	3	0
29	341	7	10000	3	1	0	3	0
29	342	7	10000	3	1	0	3	0
28	344	7	10000	3	1	0	3	0
27	345	7	10000	3	1	0	3	0
27	346	7	10000	3	1	0	3	0
27	347	7	10000	3	1	0	3	0
27	348	7	10000	3	1	0	3	0
27	349	7	10000	3	1	0	3	0
27	350	7	10000	3	1	0	3	0
27	351	7	10000	3	1	0	3	0
28	351	7	10000	3	1	0	3	0
27	352	7	10000	3	1	0	3	0
28	354	7	10000	3	1	0	3	0
28	355	7	10000	3	1	0	3	0
27	356	7	10000	3	1	0	3	0
28	357	7	10000	3	1	0	3	0
29	358	7	10000	3	1	0	3	0
26	359	7	10000	3	1	0	3	0
25	360	7	10000	3	1	0	3	0
26	361	7	10000	3	1	0	3	0
26	361	7	10000	3	1	0	3	0
27	362	7	10000	3	1	0	3	0
26	364	7	10000	3	1	0	3	0
26	365	7	10000	3	1	0	3	0
25	366	7	10000	3	1	0	3	0
24	367	7	10000	3	1	0	3	0
23	368	7	10000	3	1	0	3	0
26	369	7	10000	3	1	0	3	0
26	370	7	10000	3	1	0	3	0
25	371	7	10000	3	1	0	3	0
25	371	7	10000	3	1	0	3	0
24	372	7	10000	3	1	0	3	0
25	374	7	10000	3	1	0	3	0
24	375	7	10000	3	1	0	3	0
25	376	7	10000	3	1	0	3	0
24	377	7	10000	3	1	0	3	0
24	378	7	10000	3	1	0	3	0
22	379	7	10000	3	1	0	3	0
24	380	7	10000	3	1	0	3	0
23	381	7	10000	3	1	0	3	0
24	381	7	10000	3	1	0	3	0
23	382	7	10000	3	1	0	3	0
24	384	7	10000	3	1	0	3	0
25	385	7	10000	3	1	0	3	0
24	386	7	10000	3	1	0	3	0
24	387	7	10000	3	1	0	3	0
23	388	7	10000	3	1	0	3	0
26	389	7	10000	3	1	0	3	0
26	390	7	10000	3	1	0	3	0
26	391	7	10000	3	1	0	3	0
25	391	7	10000	3	1	0	3	0
24	392	7	10000	3	1	0	3	0
23	394	7	10000	3	1	0	3	0
22	395	7	10000	3	1	0	3	0
22	396	7	10000	3	1	0	3	0
24	397	7	10000	3	1	0	3	0
25	398	7	10000	3	1	0	3	0
22	399	7	10000	3	1	0	3	0
22	400	7	10000	3	1	0	3	0
23	401	7	10000	3	1	0	3	0
24	401	7	10000	3	1	0	3	0
23	402	7	10000	3	1	0	3	0
24	404	7	10000	3	1	0	3	0
23	405	7	10000	3	1	0	3	0
23	406	7	10000	3	1	0	3	0
23	407	7	10000	3	1	0	3	0
24	408	7	10000	3	1	0	3	0
25	409	7	10000	3	1	0	3	0
25	410	7	10000	3	1	0	3	0
24	411	7	10000	3	1	0	3	0
25	411	7	10000	3	1	0	3	0
25	412	7	10000	3	1	0	3	0
25	414	7	10000	3	1	0	3	0
24	415	7	10000	3	1	0	3	0
25	416	7	10000	3	1	0	3	0
25	417	7	10000	3	1	0	3	0
25	418	7	10000	3	1	0	3	0
25	419	7	10000	3	1	0	3	0
24	420	7	10000	3	1	0	3	0
24	421	7	10000	3	1	0	3	0
23	421	7	10000	3	1	0	3	0
24	422	7	10000	3	1	0	3	0
24	424	7	10000	3	1	0	3	0
26	425	7	10000	3	1	0	3	0
25	426	7	10000	3	1	0	3	0
25	427	7	10000	3	1	0	3	0
24	428	7	10000	3	1	0	3	0
25	429	7	10000	3	1	0	3	0
26	430	7	10000	3	1	0	3	0
26	431	7	10000	3	1	0	3	0
25	431	7	10000	3	1	0	3	0
24	432	7	10000	3	1	0	3	0
24	434	7	10000	3	1	0	3	0
23	435	7	10000	3	1	0	3	0
26	436	7	10000	3	1	0	3	0
26	437	7	10000	3	1	0	3	0
26	438	7	10000	3	1	0	3	0
23	439	7	10000	3	1	0	3	0
23	440	7	10000	3	1	0	3	0
25	441	7	10000	3	1	0	3	0
25	441	7	10000	3	1	0	3	0
25	442	7	10000	3	1	0	3	0
25	444	7	10000	3	1	0	3	0
24	445	7	10000	3	1	0	3	0
24	446	7	10000	3	1	0	3	0
25	447	7	10000	3	1	0	3	0
24	448	7	10000	3	1	0	3	0
25	449	7	10000	3	1	0	3	0
26	450	7	10000	3	1	0	3	0
26	451	7	10000	3	1	0	3	0
26	451	7	10000	3	1	0	3	0
26	452	7	10000	3	1	0	3	0
26	454	7	10000	3	1	0	3	0
26	455	7	10000	3	1	0	3	0
25	456	7	10000	3	1	0	3	0
26	457	7	10000	3	1	0	3	0
27	458	7	10000	3	1	0	3	0
24	459	7	10000	3	1	0	3	0
24	460	7	10000	3	1	0	3	0
24	461	7	10000	3	1	0	3	0
24	461	7	10000	3	1	0	3	0
25	462	7	10000	3	1	0	3	0
24	464	7	10000	3	1	0	3	0
25	465	7	10000	3	1	0	3	0
23	466	7	10000	3	1	0	3	0
22	467	7	10000	3	1	0	3	0
22	468	7	10000	3	1	0	3	0
25	469	7	10000	3	1	0	3	0
25	470	7	10000	3	1	0	3	0
25	471	7	10000	3	1	0	3	0
24	471	7	10000	3	1	0	3	0
24	472	7	10000	3	1	0	3	0
24	474	7	10000	3	1	0	3	0
25	475	7	10000	3	1	0	3	0
25	476	7	10000	3	1	0	3	0
25	477	7	10000	3	1	0	3	0
26	478	7	10000	3	1	0	3	0
24	479	7	10000	3	1	0	3	0
24	480	7	10000	3	1	0	3	0
25	481	7	10000	3	1	0	3	0
25	481	7	10000	3	1	0	3	0
25	482	7	10000	3	1	0	3	0
26	484	7	10000	3	1	0	3	0
26	485	7	10000	3	1	0	3	0
26	486	7	10000	3	1	0	3	0
26	487	7	10000	3	1	0	3	0
25	488	7	10000	3	1	0	3	0
27	489	7	10000	3	1	0	3	0
28	490	7	10000	3	1	0	3	0
27	491	7	10000	3	1	0	3	0
26	491	7	10000	3	1	0	3	0
26	492	7	10000	3	1	0	3	0
25	494	7	10000	3	1	0	3	0
24	495	7	10000	3	1	0	3	0
25	496	7	10000	3	1	0	3	0
26	497	7	10000	3	1	0	3	0
26	498	7	10000	3	1	0	3	0
24	499	7	10000	3	1	0	3	0
23	500	7	10000	3	1	0	3	0
23	501	7	10000	3	1	0	3	0
24	502	7	10000	3	1	0	3	1
24	503	7	10000	3	1	0	3	1
24	504	7	10000	3	1	0	3	1
24	505	7	10000	3	1	0	3	1
24	506	7	10000	3	1	0	3	1
24	507	7	10000	3	1	0	3	1
24	508	7	10000	3	1	0	3	1
25	509	7	10000	3	1	0	3	1
25	510	7	10000	3	1	0	3	1
25	511	7	10000	3	1	0	3	1
25	511	7	10000	3	1	0	3	1
26	512	7	10000	3	1	0	3	1
25	514	7	10000	3	1	0	3	1
25	515	7	10000	3	1	0	3	1
25	516	7	10000	3	1	0	3	1
25	517	7	10000	3	1	0	3	1
25	518	7	10000	3	1	0	3	1
23	519	7	10000	3	1	0	3	1
23	520	7	10000	3	1	0	3	1
24	521	7	10000	3	1	0	3	1
24	521	7	10000	3	1	0	3	1
25	522	7	10000	3	1	0	3	1
28	524	7	10000	3	1	0	3	1
29	525	7	10000	3	1	0	3	1
28	526	7	10000	3	1	0	3	1
26	527	7	10000	3	1	0	3	1
24	528	7	10000	3	1	0	3	1
26	529	7	10000	3	1	0	3	1
28	530	7	10000	3	1	0	3	1
27	531	7	10000	3	1	0	3	1
26	531	7	10000	3	1	0	3	1
25	532	7	10000	3	1	0	3	1
24	534	7	10000	3	1	0	3	1
25	535	7	10000	3	1	0	3	1
26	536	7	10000	3	1	0	3	1
25	537	7	10000	3	1	0	3	1
25	538	7	10000	3	1	0	3	1
23	539	7	10000	3	1	0	3	1
23	540	7	10000	3	1	0	3	1
25	541	7	10000	3	1	0	3	1
25	541	7	10000	3	1	0	3	1
24	542	7	10000	3	1	0	3	1
23	544	7	10000	3	1	0	3	1
22	545	7	10000	3	1	0	3	1
23	546	7	10000	3	1	0	3	1
24	547	7	10000	3	1	0	3	1
23	548	7	10000	3	1	0	3	1
24	549	7	10000	3	1	0	3	1
23	550	7	10000	3	1	0	3	1
22	551	7	10000	3	1	0	3	1
23	551	7	10000	3	1	0	3	0
23	552	7	10000	3	1	0	3	0
23	554	7	10000	3	1	0	3	0
22	555	7	10000	3	1	0	3	0
22	556	7	10000	3	1	0	3	0
23	557	7	10000	3	1	0	3	0
24	558	7	10000	3	1	0	3	0
22	559	7	10000	3	1	0	3	0
20	560	7	10000	3	1	0	3	0
20	561	7	10000	3	1	0	3	0
20	561	7	10000	3	1	0	3	0
21	562	7	10000	3	1	0	3	0
22	564	7	10000	3	1	0	3	0
22	565	7	10000	3	1	0	3	0
22	566	7	10000	3	1	0	3	0
23	567	7	10000	3	1	0	3	0
22	568	7	10000	3	1	0	3	0
24	569	7	10000	3	1	0	3	0
24	570	7	10000	3	1	0	3	0
23	571	7	10000	3	1	0	3	0
22	571	7	10000	3	1	0	3	0
22	572	7	10000	3	1	0	3	0
23	574	7	10000	3	1	0	3	0
22	575	7	10000	3	1	0	3	0
23	576	7	10000	3	1	0	3	0
24	577	7	10000	3	1	0	3	0
25	578	7	10000	3	1	0	3	0
24	579	7	10000	3	1	0	3	0
24	580	7	10000	3	1	0	3	0
23	581	7	10000	3	1	0	3	0
23	581	7	10000	3	1	0	3	0
23	582	7	10000	3	1	0	3	0
23	584	7	10000	3	1	0	3	0
24	585	7	10000	3	1	0	3	0
24	586	7	10000	3	1	0	3	0
23	587	7	10000	3	1	0	3	0
23	588	7	10000	3	1	0	3	0
24	589	7	10000	3	1	0	3	0
24	590	7	10000	3	1	0	3	0
24	591	7	10000	3	1	0	3	0
25	591	7	10000	3	1	0	3	0
25	592	7	10000	3	1	0	3	0
25	594	7	10000	3	1	0	3	0
25	595	7	10000	3	1	0	3	0
26	596	7	10000	3	1	0	3	0
26	597	7	10000	3	1	0	3	0
26	598	7	10000	3	1	0	3	0
25	599	7	10000	3	1	0	3	0
25	600	7	10000	3	1	0	3	0
27	601	7	10000	3	1	0	3	0
29	601	7	10000	3	1	0	3	0
29	602	7	10000	3	1	0	3	0
28	604	7	10000	3	1	0	3	0
27	605	7	10000	3	1	0	3	0
26	606	7	10000	3	1	0	3	0
28	607	7	10000	3	1	0	3	0
27	608	7	10000	3	1	0	3	0
30	609	7	10000	3	1	0	3	0
32	610	7	10000	3	1	0	3	0
32	611	7	10000	3	1	0	3	0
32	611	7	10000	3	1	0	3	0
32	612	7	10000	3	1	0	3	0
32	614	7	10000	3	1	0	3	0
34	615	7	10000	3	1	0	3	0
36	616	7	10000	3	1	0	3	0
37	617	7	10000	3	1	0	3	0
37	618	7	10000	3	1	0	3	0
33	619	7	10000	3	1	0	3	0
33	620	7	10000	3	1	0	3	0
32	621	7	10000	3	1	0	3	0
32	621	7	10000	3	1	0	3	0
31	622	7	10000	3	1	0	3	0
32	624	7	10000	3	1	0	3	0
32	625	7	10000	3	1	0	3	0
32	626	7	10000	3	1	0	3	0
30	627	7	10000	3	1	0	3	0
28	628	7	10000	3	1	0	3	0
30	629	7	10000	3	1	0	3	0
32	630	7	10000	3	1	0	3	0
31	631	7	10000	3	1	0	3	0
29	631	7	10000	3	1	0	3	0
28	632	7	10000	3	1	0	3	0
27	645	7	10000	3	1	0	3	0
29	646	7	10000	3	1	0	3	0
29	647	7	10000	3	1	0	3	0
29	648	7	10000	3	1	0	3	0
27	649	7	10000	3	1	0	3	0
25	650	7	10000	3	1	0	3	0
25	651	7	10000	3	1	0	3	0
27	652	7	10000	3	1	0	3	0
27	653	7	10000	3	1	0	3	0
26	654	7	10000	3	1	0	3	0
27	655	7	10000	3	1	0	3	0
27	656	7	10000	3	1	0	3	0
27	653	7	10000	3	1	0	3	0
27	654	7	10000	3	1	0	3	0
26	655	7	10000	3	1	0	3	0
26	656	7	10000	3	1	0	3	0
27	657	7	10000	3	1	0	3	0
26	658	7	10000	3	1	0	3	0
26	659	7	10000	3	1	0	3	0
26	660	7	10000	3	1	0	3	0
26	661	7	10000	3	1	0	3	0
26	662	7	10000	3	1	0	3	0
27	664	7	10000	3	1	0	3	0
27	665	7	10000	3	1	0	3	0
27	666	7	10000	3	1	0	3	0
26	667	7	10000	3	1	0	3	0
25	668	7	10000	3	1	0	3	0
26	669	7	10000	3	1	0	3	0
26	670	7	10000	3	1	0	3	0
26	671	7	10000	3	1	0	3	0
26	672	7	10000	3	1	0	3	0
26	673	7	10000	3	1	0	3	0
25	669	7	10000	3	1	0	3	0
23	670	7	10000	3	1	0	3	0
24	671	7	10000	3	1	0	3	0
27	672	7	10000	3	1	0	3	0
27	673	7	10000	3	1	0	3	0
26	674	7	10000	3	1	0	3	0
26	674	7	10000	3	1	0	3	0
26	675	7	10000	3	1	0	3	0
27	676	7	10000	3	1	0	3	0
27	677	7	10000	3	1	0	3	0
27	679	7	10000	3	1	0	3	0
27	680	7	10000	3	1	0	3	0
27	681	7	10000	3	1	0	3	0
26	682	7	10000	3	1	0	3	0
26	683	7	10000	3	1	0	3	0
26	684	7	10000	3	1	0	3	0
27	686	7	10000	3	1	0	3	0
26	687	7	10000	3	1	0	3	0
26	688	7	10000	3	1	0	3	0
27	689	7	10000	3	1	0	3	0
27	690	7	10000	3	1	0	3	0
27	691	7	10000	3	1	0	3	0
24	690	7	10000	3	1	0	3	0
26	691	7	10000	3	1	0	3	0
27	692	7	10000	3	1	0	3	0
27	693	7	10000	3	1	0	3	0
26	697	7	10000	3	1	0	3	0
25	698	7	10000	3	1	0	3	0
25	699	7	10000	3	1	0	3	0
25	700	7	10000	3	1	0	3	0
27	701	7	10000	3	1	0	3	0
26	702	7	10000	3	1	0	3	0
26	701	7	10000	3	1	0	3	0
23	702	7	10000	3	1	0	3	0
22	703	7	10000	3	1	0	3	0
22	704	7	10000	3	1	0	3	0
23	705	7	10000	3	1	0	3	0
23	706	7	10000	3	1	0	3	0
22	708	7	10000	3	1	0	3	0
22	709	7	10000	3	1	0	3	0
23	710	7	10000	3	1	0	3	0
23	711	7	10000	3	1	0	3	0
23	712	7	10000	3	1	0	3	0
24	713	7	10000	3	1	0	3	0
24	713	7	10000	3	1	0	3	0
24	714	7	10000	3	1	0	3	0
24	715	7	10000	3	1	0	3	0
24	716	7	10000	3	1	0	3	0
23	719	7	10000	3	1	0	3	0
22	720	7	10000	3	1	0	3	0
22	721	7	10000	3	1	0	3	0
21	722	7	10000	3	1	0	3	0
23	723	7	10000	3	1	0	3	0
21	724	7	10000	3	1	0	3	0
21	725	7	10000	3	1	0	3	0
21	726	7	10000	3	1	0	3	0
22	723	7	10000	3	1	0	3	0
22	724	7	10000	3	1	0	3	0
23	725	7	10000	3	1	0	3	0
24	726	7	10000	3	1	0	3	0
22	729	7	10000	3	1	0	3	0
22	730	7	10000	3	1	0	3	0
21	731	7	10000	3	1	0	3	0
23	732	7	10000	3	1	0	3	0
25	734	7	10000	3	1	0	3	0
24	735	7	10000	3	1	0	3	0
22	736	7	10000	3	1	0	3	0
22	737	7	10000	3	1	0	3	0
21	738	7	10000	3	1	0	3	0
22	739	7	10000	3	1	0	3	0
23	736	7	10000	3	1	0	3	0
23	737	7	10000	3	1	0	3	0
22	738	7	10000	3	1	0	3	0
21	739	7	10000	3	1	0	3	0
21	740	7	10000	3	1	0	3	0
21	741	7	10000	3	1	0	3	0
22	742	7	10000	3	1	0	3	0
22	743	7	10000	3	1	0	3	0
22	744	7	10000	3	1	0	3	0
22	745	7	10000	3	1	0	3	0
23	746	7	10000	3	1	0	3	0
22	747	7	10000	3	1	0	3	0
21	748	7	10000	3	1	0	3	0
22	749	7	10000	3	1	0	3	0
21	750	7	10000	3	1	0	3	0
23	751	7	10000	3	1	0	3	0
23	752	7	10000	3	1	0	3	0
23	753	7	10000	3	1	0	3	0
22	754	7	10000	3	1	0	3	0
22	755	7	10000	3	1	0	3	0
22	756	7	10000	3	1	0	3	0
24	757	7	10000	3	1	0	3	0
24	758	7	10000	3	1	0	3	0
22	759	7	10000	3	1	0	3	0
21	760	7	10000	3	1	0	3	0
21	761	7	10000	3	1	0	3	0
21	762	7	10000	3	1	0	3	0
23	763	7	10000	3	1	0	3	0
22	764	7	10000	3	1	0	3	0
23	765	7	10000	3	1	0	3	0
23	766	7	10000	3	1	0	3	0
23	767	7	10000	3	1	0	3	0
22	768	7	10000	3	1	0	3	0
25	769	7	10000	3	1	0	3	0
25	770	7	10000	3	1	0	3	0
23	771	7	10000	3	1	0	3	0
22	772	7	10000	3	1	0	3	0
23	773	7	10000	3	1	0	3	0
24	774	7	10000	3	1	0	3	0
23	775	7	10000	3	1	0	3	0
24	776	7	10000	3	1	0	3	0
23	777	7	10000	3	1	0	3	0
24	778	7	10000	3	1	0	3	0
23	779	7	10000	3	1	0	3	0
23	780	7	10000	3	1	0	3	0
23	781	7	10000	3	1	0	3	0
23	782	7	10000	3	1	0	3	0
22	783	7	10000	3	1	0	3	0
23	784	7	10000	3	1	0	3	0
24	785	7	10000	3	1	0	3	0
24	786	7	10000	3	1	0	3	0
24	787	7	10000	3	1	0	3	0
24	788	7	10000	3	1	0	3	0
26	789	7	10000	3	1	0	3	0
26	790	7	10000	3	1	0	3	0
25	791	7	10000	3	1	0	3	0
25	792	7	10000	3	1	0	3	0
25	793	7	10000	3	1	0	3	0
24	794	7	10000	3	1	0	3	0
24	795	7	10000	3	1	0	3	0
25	796	7	10000	3	1	0	3	0
25	797	7	10000	3	1	0	3	0
26	798	7	10000	3	1	0	3	0
24	799	7	10000	3	1	0	3	0
24	800	7	10000	3	1	0	3	0
25	801	7	10000	3	1	0	3	0
25	802	7	10000	3	1	0	3	0
25	803	7	10000	3	1	0	3	0
24	804	7	10000	3	1	0	3	0
24	805	7	10000	3	1	0	3	0
23	806	7	10000	3	1	0	3	0
24	807	7	10000	3	1	0	3	0
23	808	7	10000	3	1	0	3	0
25	809	7	10000	3	1	0	3	0
25	810	7	10000	3	1	0	3	0
23	811	7	10000	3	1	0	3	0
23	812	7	10000	3	1	0	3	0
25	813	7	10000	3	1	0	3	0
23	814	7	10000	3	1	0	3	0
23	815	7	10000	3	1	0	3	0
25	816	7	10000	3	1	0	3	0
25	817	7	10000	3	1	0	3	0
26	818	7	10000	3	1	0	3	0
25	819	7	10000	3	1	0	3	0
24	820	7	10000	3	1	0	3	0
24	821	7	10000	3	1	0	3	0
27	822	7	10000	3	1	0	3	0
32	823	7	10000	3	1	0	3	0
37	824	7	10000	3	1	0	3	0
38	825	7	10000	3	1	0	3	0
38	826	7	10000	3	1	0	3	0
39	827	7	10000	3	1	0	3	0
39	828	7	10000	3	1	0	3	0
44	829	7	10000	3	1	0	3	0
46	830	7	10000	3	1	0	3	0
44	831	7	10000	3	1	0	3	0
46	832	7	10000	3	1	0	3	0
48	833	7	10000	3	1	0	3	0
48	834	7	10000	3	1	0	3	0
50	835	7	10000	3	1	0	3	0
49	836	7	10000	3	1	0	3	0
48	837	7	10000	3	1	0	3	0
47	838	7	10000	3	1	0	3	0
44	839	7	10000	3	1	0	3	0
46	840	7	10000	3	1	0	3	0
45	841	7	10000	3	1	0	3	0
53	842	7	10000	3	1	0	3	0
64	843	7	10000	3	1	0	3	0
66	844	7	10000	3	1	0	3	0
71	845	7	10000	3	1	0	3	0
71	846	7	10000	3	1	0	3	0
70	847	7	10000	3	1	0	3	0
68	848	7	10000	3	1	0	3	0
74	849	7	10000	3	1	0	3	0
77	850	7	10000	3	1	0	3	0
76	851	7	10000	3	1	0	3	0
74	852	7	10000	3	1	0	3	0
73	853	7	10000	3	1	0	3	0
76	854	7	10000	3	1	0	3	0
86	855	7	10000	3	1	0	3	0
91	856	7	10000	3	1	0	3	0
92	857	7	10000	3	1	0	3	0
97	858	7	10000	3	1	0	3	0
104	859	7	10000	3	1	0	3	0
104	860	7	10000	3	1	0	3	0
104	861	7	10000	3	1	0	3	0
101	862	7	10000	3	1	0	3	0
98	863	7	10000	3	1	0	3	0
98	864	7	10000	3	1	0	3	0
102	865	7	10000	3	1	0	3	0
100	866	7	10000	3	1	0	3	0
100	867	7	10000	3	1	0	3	0
108	868	7	10000	3	1	0	3	0
115	869	7	10000	3	1	0	3	0
117	870	7	10000	3	1	0	3	0
124	871	7	10000	3	1	0	3	0
127	872	7	10000	3	1	0	3	0
136	873	7	10000	3	1	0	3	0
157	874	7	10000	3	1	0	3	0
160	875	7	10000	3	1	0	3	0
158	876	7	10000	3	1	0	3	0
165	877	7	10000	3	1	0	3	0
174	878	7	10000	3	1	0	3	0
171	879	7	10000	3	1	0	3	0
166	880	7	10000	3	1	0	3	0
161	881	7	10000	3	1	0	3	0
156	882	7	10000	3	1	0	3	0
156	883	7	10000	3	1	0	3	0
153	884	7	10000	3	1	0	3	0
155	885	7	10000	3	1	0	3	0
150	886	7	10000	3	1	0	3	0
144	887	7	10000	3	1	0	3	0
137	888	7	10000	3	1	0	3	0
134	889	7	10000	3	1	0	3	0
129	890	7	10000	3	1	0	3	0
124	891	7	10000	3	1	0	3	0
122	892	7	10000	3	1	0	3	0
121	893	7	10000	3	1	0	3	0
116	894	7	10000	3	1	0	3	0
117	895	7	10000	3	1	0	3	0
134	896	7	10000	3	1	0	3	0
148	897	7	10000	3	1	0	3	0
149	898	7	10000	3	1	0	3	0
145	899	7	10000	3	1	0	3	0
152	900	7	10000	3	1	0	3	0
160	901	7	10000	3	1	0	3	0
165	902	7	10000	3	1	0	3	0
165	903	7	10000	3	1	0	3	0
168	904	7	10000	3	1	0	3	0
164	905	7	10000	3	1	0	3	0
157	906	7	10000	3	1	0	3	0
152	907	7	10000	3	1	0	3	0
147	908	7	10000	3	1	0	3	0
144	909	7	10000	3	1	0	3	0
142	910	7	10000	3	1	0	3	0
141	911	7	10000	3	1	0	3	0
140	912	7	10000	3	1	0	3	0
137	913	7	10000	3	1	0	3	0
134	914	7	10000	3	1	0	3	0
129	915	7	10000	3	1	0	3	0
126	916	7	10000	3	1	0	3	0
121	917	7	10000	3	1	0	3	0
117	918	7	10000	3	1	0	3	0
110	919	7	10000	3	1	0	3	0
106	920	7	10000	3	1	0	3	0
106	921	7	10000	3	1	0	3	0
102	922	7	10000	3	1	0	3	0
99	923	7	10000	3	1	0	3	0
98	924	7	10000	3	1	0	3	0
96	925	7	10000	3	1	0	3	0
99	926	7	10000	3	1	0	3	0
102	927	7	10000	3	1	0	3	0
102	928	7	10000	3	1	0	3	0
100	929	7	10000	3	1	0	3	0
97	930	7	10000	3	1	0	3	0
99	931	7	10000	3	1	0	3	0
100	932	7	10000	3	1	0	3	0
103	933	7	10000	3	1	0	3	0
109	934	7	10000	3	1	0	3	0
111	935	7	10000	3	1	0	3	0
111	936	7	10000	3	1	0	3	0
114	937	7	10000	3	1	0	3	0
116	938	7	10000	3	1	0	3	0
114	939	7	10000	3	1	0	3	0
110	940	7	10000	3	1	0	3	0
106	941	7	10000	3	1	0	3	0
105	942	7	10000	3	1	0	3	0
104	943	7	10000	3	1	0	3	0
103	944	7	10000	3	1	0	3	0
100	945	7	10000	3	1	0	3	0
95	946	7	10000	3	1	0	3	0
92	947	7	10000	3	1	0	3	0
90	948	7	10000	3	1	0	3	0
91	949	7	10000	3	1	0	3	0
91	950	7	10000	3	1	0	3	0
92	951	7	10000	3	1	0	3	0
90	952	7	10000	3	1	0	3	0
90	953	7	10000	3	1	0	3	0
90	954	7	10000	3	1	0	3	0
90	955	7	10000	3	1	0	3	0
90	956	7	10000	3	1	0	3	0
89	957	7	10000	3	1	0	3	0
86	958	7	10000	3	1	0	3	0
81	959	7	10000	3	1	0	3	0
80	960	7	10000	3	1	0	3	0
77	961	7	10000	3	1	0	3	0
75	962	7	10000	3	1	0	3	0
73	963	7	10000	3	1	0	3	0
72	964	7	10000	3	1	0	3	0
70	965	7	10000	3	1	0	3	0
67	966	7	10000	3	1	0	3	0
65	967	7	10000	3	1	0	3	0
63	968	7	10000	3	1	0	3	0
63	969	7	10000	3	1	0	3	0
62	970	7	10000	3	1	0	3	0
59	971	7	10000	3	1	0	3	0
56	972	7	10000	3	1	0	3	0
54	973	7	10000	3	1	0	3	0
53	974	7	10000	3	1	0	3	0
52	975	7	10000	3	1	0	3	0
52	976	7	10000	3	1	0	3	0
50	977	7	10000	3	1	0	3	0
50	978	7	10000	3	1	0	3	0
49	979	7	10000	3	1	0	3	0
47	980	7	10000	3	1	0	3	0
46	981	7	10000	3	1	0	3	0
45	982	7	10000	3	1	0	3	0
43	983	7	10000	3	1	0	3	0
42	984	7	10000	3	1	0	3	0
41	985	7	10000	3	1	0	3	0
41	986	7	10000	3	1	0	3	0
39	987	7	10000	3	1	0	3	0
39	988	7	10000	3	1	0	3	0
41	989	7	10000	3	1	0	3	0
41	990	7	10000	3	1	0	3	0
40	991	7	10000	3	1	0	3	0
38	992	7	10000	3	1	0	3	0
38	993	7	10000	3	1	0	3	0
37	994	7	10000	3	1	0	3	0
37	995	7	10000	3	1	0	3	0
38	996	7	10000	3	1	0	3	0
38	997	7	10000	3	1	0	3	0
37	998	7	10000	3	1	0	3	0
36	999	7	10000	3	1	0	3	0
37	1000	7	10000	3	1	0	3	0
39	1001	7	10000	3	1	0	3	0
23	2	0	10000	4	1	0	4	0
24	3	0	10000	4	1	0	4	0
23	4	0	10000	4	1	0	4	0
22	5	0	10000	4	1	0	4	0
23	6	0	10000	4	1	0	4	0
21	7	0	10000	4	1	0	4	0
22	8	0	10000	4	1	0	4	0
24	9	0	10000	4	1	0	4	0
24	10	0	10000	4	1	0	4	0
22	11	0	10000	4	1	0	4	0
21	12	0	10000	4	1	0	4	0
21	13	0	10000	4	1	0	4	0
23	14	0	10000	4	1	0	4	0
23	15	0	10000	4	1	0	4	0
24	16	0	10000	4	1	0	4	0
23	17	0	10000	4	1	0	4	0
22	18	0	10000	4	1	0	4	0
23	19	0	10000	4	1	0	4	0
22	20	0	10000	4	1	0	4	0
23	21	0	10000	4	1	0	4	0
24	22	0	10000	4	1	0	4	0
23	23	0	10000	4	1	0	4	0
21	24	0	10000	4	1	0	4	0
21	25	0	10000	4	1	0	4	0
22	26	0	10000	4	1	0	4	0
22	27	0	10000	4	1	0	4	0
23	28	0	10000	4	1	0	4	0
23	29	0	10000	4	1	0	4	0
24	30	0	10000	4	1	0	4	0
24	31	0	10000	4	1	0	4	0
23	32	0	10000	4	1	0	4	0
23	33	0	10000	4	1	0	4	0
23	34	0	10000	4	1	0	4	0
22	35	0	10000	4	1	0	4	0
21	36	0	10000	4	1	0	4	0
22	37	0	10000	4	1	0	4	0
22	38	0	10000	4	1	0	4	0
22	39	0	10000	4	1	0	4	0
22	40	0	10000	4	1	0	4	0
22	41	0	10000	4	1	0	4	0
22	42	0	10000	4	1	0	4	0
23	43	0	10000	4	1	0	4	0
24	44	0	10000	4	1	0	4	0
23	45	0	10000	4	1	0	4	0
23	46	0	10000	4	1	0	4	0
21	47	0	10000	4	1	0	4	0
21	48	0	10000	4	1	0	4	0
22	49	0	10000	4	1	0	4	0
23	50	0	10000	4	1	0	4	0
22	51	0	10000	4	1	0	4	0
20	52	0	10000	4	1	0	4	0
20	53	0	10000	4	1	0	4	0
20	54	0	10000	4	1	0	4	0
20	55	0	10000	4	1	0	4	0
21	56	0	10000	4	1	0	4	0
21	57	0	10000	4	1	0	4	0
21	58	0	10000	4	1	0	4	0
21	59	0	10000	4	1	0	4	0
21	60	0	10000	4	1	0	4	0
22	61	0	10000	4	1	0	4	0
23	62	0	10000	4	1	0	4	0
23	63	0	10000	4	1	0	4	0
24	64	0	10000	4	1	0	4	0
23	65	0	10000	4	1	0	4	0
23	66	0	10000	4	1	0	4	0
23	67	0	10000	4	1	0	4	0
24	68	0	10000	4	1	0	4	0
24	69	0	10000	4	1	0	4	0
24	70	0	10000	4	1	0	4	0
23	71	0	10000	4	1	0	4	0
22	72	0	10000	4	1	0	4	0
23	73	0	10000	4	1	0	4	0
23	74	0	10000	4	1	0	4	0
23	75	0	10000	4	1	0	4	0
22	76	0	10000	4	1	0	4	0
22	77	0	10000	4	1	0	4	0
22	78	0	10000	4	1	0	4	0
21	79	0	10000	4	1	0	4	0
22	80	0	10000	4	1	0	4	0
22	81	0	10000	4	1	0	4	0
23	82	0	10000	4	1	0	4	0
22	83	0	10000	4	1	0	4	0
21	84	0	10000	4	1	0	4	0
21	85	0	10000	4	1	0	4	0
23	86	0	10000	4	1	0	4	0
22	87	0	10000	4	1	0	4	0
22	88	0	10000	4	1	0	4	0
22	89	0	10000	4	1	0	4	0
22	90	0	10000	4	1	0	4	0
22	91	0	10000	4	1	0	4	0
22	92	0	10000	4	1	0	4	0
21	93	0	10000	4	1	0	4	0
20	94	0	10000	4	1	0	4	0
21	95	0	10000	4	1	0	4	0
21	96	0	10000	4	1	0	4	0
22	97	0	10000	4	1	0	4	0
22	98	0	10000	4	1	0	4	0
21	99	0	10000	4	1	0	4	0
21	100	0	10000	4	1	0	4	0
21	101	0	10000	4	1	0	4	0
23	102	0	10000	4	1	0	4	0
23	103	0	10000	4	1	0	4	0
24	104	0	10000	4	1	0	4	0
23	105	0	10000	4	1	0	4	0
23	106	0	10000	4	1	0	4	0
22	107	0	10000	4	1	0	4	0
23	108	0	10000	4	1	0	4	0
24	109	0	10000	4	1	0	4	0
25	110	0	10000	4	1	0	4	0
24	111	0	10000	4	1	0	4	0
22	112	0	10000	4	1	0	4	0
22	113	0	10000	4	1	0	4	0
22	114	0	10000	4	1	0	4	0
23	115	0	10000	4	1	0	4	0
23	116	0	10000	4	1	0	4	0
24	117	0	10000	4	1	0	4	0
24	118	0	10000	4	1	0	4	0
23	119	0	10000	4	1	0	4	0
23	120	0	10000	4	1	0	4	0
25	121	0	10000	4	1	0	4	0
26	122	0	10000	4	1	0	4	0
26	123	0	10000	4	1	0	4	0
24	124	0	10000	4	1	0	4	0
24	125	0	10000	4	1	0	4	0
25	126	0	10000	4	1	0	4	0
25	127	0	10000	4	1	0	4	0
24	128	0	10000	4	1	0	4	0
25	129	0	10000	4	1	0	4	0
24	130	0	10000	4	1	0	4	0
23	131	0	10000	4	1	0	4	0
22	132	0	10000	4	1	0	4	0
24	133	0	10000	4	1	0	4	0
23	134	0	10000	4	1	0	4	0
24	135	0	10000	4	1	0	4	0
23	136	0	10000	4	1	0	4	0
23	137	0	10000	4	1	0	4	0
23	138	0	10000	4	1	0	4	0
23	139	0	10000	4	1	0	4	0
22	140	0	10000	4	1	0	4	0
23	141	0	10000	4	1	0	4	0
24	142	0	10000	4	1	0	4	0
23	143	0	10000	4	1	0	4	0
24	144	0	10000	4	1	0	4	0
25	145	0	10000	4	1	0	4	0
24	146	0	10000	4	1	0	4	0
24	147	0	10000	4	1	0	4	0
23	148	0	10000	4	1	0	4	0
23	149	0	10000	4	1	0	4	0
23	150	0	10000	4	1	0	4	0
23	151	0	10000	4	1	0	4	0
22	152	0	10000	4	1	0	4	0
22	153	0	10000	4	1	0	4	0
22	154	0	10000	4	1	0	4	0
22	155	0	10000	4	1	0	4	0
22	156	0	10000	4	1	0	4	0
23	157	0	10000	4	1	0	4	0
23	158	0	10000	4	1	0	4	0
22	159	0	10000	4	1	0	4	0
21	160	0	10000	4	1	0	4	0
21	161	0	10000	4	1	0	4	0
23	162	0	10000	4	1	0	4	0
24	163	0	10000	4	1	0	4	0
23	164	0	10000	4	1	0	4	0
23	165	0	10000	4	1	0	4	0
23	166	0	10000	4	1	0	4	0
22	167	0	10000	4	1	0	4	0
22	168	0	10000	4	1	0	4	0
24	169	0	10000	4	1	0	4	0
24	170	0	10000	4	1	0	4	0
23	171	0	10000	4	1	0	4	0
24	172	0	10000	4	1	0	4	0
24	173	0	10000	4	1	0	4	0
24	174	0	10000	4	1	0	4	0
27	175	0	10000	4	1	0	4	0
26	176	0	10000	4	1	0	4	0
25	177	0	10000	4	1	0	4	0
24	178	0	10000	4	1	0	4	0
23	179	0	10000	4	1	0	4	0
23	180	0	10000	4	1	0	4	0
25	181	0	10000	4	1	0	4	0
26	182	0	10000	4	1	0	4	0
26	183	0	10000	4	1	0	4	0
25	184	0	10000	4	1	0	4	0
25	185	0	10000	4	1	0	4	0
25	186	0	10000	4	1	0	4	0
27	187	0	10000	4	1	0	4	0
27	188	0	10000	4	1	0	4	0
27	189	0	10000	4	1	0	4	0
27	190	0	10000	4	1	0	4	0
26	191	0	10000	4	1	0	4	0
25	192	0	10000	4	1	0	4	0
25	193	0	10000	4	1	0	4	0
25	194	0	10000	4	1	0	4	0
25	195	0	10000	4	1	0	4	0
24	196	0	10000	4	1	0	4	0
24	197	0	10000	4	1	0	4	0
24	198	0	10000	4	1	0	4	0
25	199	0	10000	4	1	0	4	0
24	200	0	10000	4	1	0	4	0
24	201	0	10000	4	1	0	4	0
24	202	0	10000	4	1	0	4	0
24	203	0	10000	4	1	0	4	0
24	204	0	10000	4	1	0	4	0
24	205	0	10000	4	1	0	4	0
24	206	0	10000	4	1	0	4	0
24	207	0	10000	4	1	0	4	0
23	208	0	10000	4	1	0	4	0
23	209	0	10000	4	1	0	4	0
23	210	0	10000	4	1	0	4	0
23	211	0	10000	4	1	0	4	0
23	212	0	10000	4	1	0	4	0
21	213	0	10000	4	1	0	4	0
22	214	0	10000	4	1	0	4	0
22	215	0	10000	4	1	0	4	0
22	216	0	10000	4	1	0	4	0
24	217	0	10000	4	1	0	4	0
23	218	0	10000	4	1	0	4	0
22	219	0	10000	4	1	0	4	0
21	220	0	10000	4	1	0	4	0
21	221	0	10000	4	1	0	4	0
23	222	0	10000	4	1	0	4	0
23	223	0	10000	4	1	0	4	0
22	224	0	10000	4	1	0	4	0
22	225	0	10000	4	1	0	4	0
22	226	0	10000	4	1	0	4	0
22	227	0	10000	4	1	0	4	0
22	228	0	10000	4	1	0	4	0
23	229	0	10000	4	1	0	4	0
23	230	0	10000	4	1	0	4	0
22	231	0	10000	4	1	0	4	0
21	232	0	10000	4	1	0	4	0
21	233	0	10000	4	1	0	4	0
22	234	0	10000	4	1	0	4	0
24	235	0	10000	4	1	0	4	0
24	236	0	10000	4	1	0	4	0
25	237	0	10000	4	1	0	4	0
24	238	0	10000	4	1	0	4	0
23	239	0	10000	4	1	0	4	0
22	240	0	10000	4	1	0	4	0
25	241	0	10000	4	1	0	4	0
25	242	0	10000	4	1	0	4	0
25	243	0	10000	4	1	0	4	0
24	244	0	10000	4	1	0	4	0
23	245	0	10000	4	1	0	4	0
25	246	0	10000	4	1	0	4	0
24	247	0	10000	4	1	0	4	0
24	248	0	10000	4	1	0	4	0
26	249	0	10000	4	1	0	4	0
25	250	0	10000	4	1	0	4	0
23	251	0	10000	4	1	0	4	0
24	252	0	10000	4	1	0	4	0
25	253	0	10000	4	1	0	4	0
24	254	0	10000	4	1	0	4	0
24	255	0	10000	4	1	0	4	0
22	256	0	10000	4	1	0	4	0
22	257	0	10000	4	1	0	4	0
22	258	0	10000	4	1	0	4	0
22	259	0	10000	4	1	0	4	0
21	260	0	10000	4	1	0	4	0
23	261	0	10000	4	1	0	4	0
23	262	0	10000	4	1	0	4	0
22	263	0	10000	4	1	0	4	0
23	264	0	10000	4	1	0	4	0
23	265	0	10000	4	1	0	4	0
23	266	0	10000	4	1	0	4	0
23	267	0	10000	4	1	0	4	0
24	268	0	10000	4	1	0	4	0
25	269	0	10000	4	1	0	4	0
26	270	0	10000	4	1	0	4	0
25	271	0	10000	4	1	0	4	0
24	272	0	10000	4	1	0	4	0
25	273	0	10000	4	1	0	4	0
25	274	0	10000	4	1	0	4	0
26	275	0	10000	4	1	0	4	0
26	276	0	10000	4	1	0	4	0
27	277	0	10000	4	1	0	4	0
26	278	0	10000	4	1	0	4	0
26	279	0	10000	4	1	0	4	0
25	280	0	10000	4	1	0	4	0
25	281	0	10000	4	1	0	4	0
26	282	0	10000	4	1	0	4	0
27	283	0	10000	4	1	0	4	0
26	284	0	10000	4	1	0	4	0
25	285	0	10000	4	1	0	4	0
24	286	0	10000	4	1	0	4	0
24	287	0	10000	4	1	0	4	0
24	288	0	10000	4	1	0	4	0
27	289	0	10000	4	1	0	4	0
26	290	0	10000	4	1	0	4	0
24	291	0	10000	4	1	0	4	0
24	292	0	10000	4	1	0	4	0
24	293	0	10000	4	1	0	4	0
24	294	0	10000	4	1	0	4	0
26	295	0	10000	4	1	0	4	0
25	296	0	10000	4	1	0	4	0
24	297	0	10000	4	1	0	4	0
24	298	0	10000	4	1	0	4	0
22	299	0	10000	4	1	0	4	0
22	300	0	10000	4	1	0	4	0
24	301	0	10000	4	1	0	4	0
25	302	0	10000	4	1	0	4	0
24	303	0	10000	4	1	0	4	0
24	304	0	10000	4	1	0	4	0
24	305	0	10000	4	1	0	4	0
25	306	0	10000	4	1	0	4	0
25	307	0	10000	4	1	0	4	0
24	308	0	10000	4	1	0	4	0
25	309	0	10000	4	1	0	4	0
24	310	0	10000	4	1	0	4	0
23	311	0	10000	4	1	0	4	0
24	312	0	10000	4	1	0	4	0
24	313	0	10000	4	1	0	4	0
25	314	0	10000	4	1	0	4	0
24	315	0	10000	4	1	0	4	0
23	316	0	10000	4	1	0	4	0
24	317	0	10000	4	1	0	4	0
24	318	0	10000	4	1	0	4	0
23	319	0	10000	4	1	0	4	0
23	320	0	10000	4	1	0	4	0
24	321	0	10000	4	1	0	4	0
24	322	0	10000	4	1	0	4	0
24	323	0	10000	4	1	0	4	0
24	324	0	10000	4	1	0	4	0
24	325	0	10000	4	1	0	4	0
25	326	0	10000	4	1	0	4	0
23	327	0	10000	4	1	0	4	0
23	328	0	10000	4	1	0	4	0
23	329	0	10000	4	1	0	4	0
25	330	0	10000	4	1	0	4	0
23	331	0	10000	4	1	0	4	0
23	332	0	10000	4	1	0	4	0
21	333	0	10000	4	1	0	4	0
20	334	0	10000	4	1	0	4	0
22	335	0	10000	4	1	0	4	0
23	336	0	10000	4	1	0	4	0
22	337	0	10000	4	1	0	4	0
23	338	0	10000	4	1	0	4	0
22	339	0	10000	4	1	0	4	0
21	340	0	10000	4	1	0	4	0
23	341	0	10000	4	1	0	4	0
25	342	0	10000	4	1	0	4	0
24	343	0	10000	4	1	0	4	0
25	344	0	10000	4	1	0	4	0
24	345	0	10000	4	1	0	4	0
24	346	0	10000	4	1	0	4	0
24	347	0	10000	4	1	0	4	0
25	348	0	10000	4	1	0	4	0
24	349	0	10000	4	1	0	4	0
25	350	0	10000	4	1	0	4	0
24	351	0	10000	4	1	0	4	0
22	352	0	10000	4	1	0	4	0
23	353	0	10000	4	1	0	4	0
24	354	0	10000	4	1	0	4	0
23	355	0	10000	4	1	0	4	0
23	356	0	10000	4	1	0	4	0
23	357	0	10000	4	1	0	4	0
22	358	0	10000	4	1	0	4	0
22	359	0	10000	4	1	0	4	0
23	360	0	10000	4	1	0	4	0
23	361	0	10000	4	1	0	4	0
24	362	0	10000	4	1	0	4	0
23	363	0	10000	4	1	0	4	0
22	364	0	10000	4	1	0	4	0
23	365	0	10000	4	1	0	4	0
24	366	0	10000	4	1	0	4	0
23	367	0	10000	4	1	0	4	0
24	368	0	10000	4	1	0	4	0
25	369	0	10000	4	1	0	4	0
25	370	0	10000	4	1	0	4	0
24	371	0	10000	4	1	0	4	0
24	372	0	10000	4	1	0	4	0
23	373	0	10000	4	1	0	4	0
23	374	0	10000	4	1	0	4	0
24	375	0	10000	4	1	0	4	0
23	376	0	10000	4	1	0	4	0
24	377	0	10000	4	1	0	4	0
26	378	0	10000	4	1	0	4	0
25	379	0	10000	4	1	0	4	0
23	380	0	10000	4	1	0	4	0
24	381	0	10000	4	1	0	4	0
25	382	0	10000	4	1	0	4	0
25	383	0	10000	4	1	0	4	0
25	384	0	10000	4	1	0	4	0
24	385	0	10000	4	1	0	4	0
23	386	0	10000	4	1	0	4	0
22	387	0	10000	4	1	0	4	0
22	388	0	10000	4	1	0	4	0
23	389	0	10000	4	1	0	4	0
23	390	0	10000	4	1	0	4	0
23	391	0	10000	4	1	0	4	0
22	392	0	10000	4	1	0	4	0
22	393	0	10000	4	1	0	4	0
23	394	0	10000	4	1	0	4	0
24	395	0	10000	4	1	0	4	0
23	396	0	10000	4	1	0	4	0
23	397	0	10000	4	1	0	4	0
23	398	0	10000	4	1	0	4	0
22	399	0	10000	4	1	0	4	0
22	400	0	10000	4	1	0	4	0
23	401	0	10000	4	1	0	4	0
24	402	0	10000	4	1	0	4	0
24	403	0	10000	4	1	0	4	0
23	404	0	10000	4	1	0	4	0
22	405	0	10000	4	1	0	4	0
22	406	0	10000	4	1	0	4	0
22	407	0	10000	4	1	0	4	0
23	408	0	10000	4	1	0	4	0
23	409	0	10000	4	1	0	4	0
22	410	0	10000	4	1	0	4	0
21	411	0	10000	4	1	0	4	0
21	412	0	10000	4	1	0	4	0
23	413	0	10000	4	1	0	4	0
23	414	0	10000	4	1	0	4	0
24	415	0	10000	4	1	0	4	0
23	416	0	10000	4	1	0	4	0
21	417	0	10000	4	1	0	4	0
22	418	0	10000	4	1	0	4	0
22	419	0	10000	4	1	0	4	0
23	420	0	10000	4	1	0	4	0
24	421	0	10000	4	1	0	4	0
24	422	0	10000	4	1	0	4	0
23	423	0	10000	4	1	0	4	0
23	424	0	10000	4	1	0	4	0
24	425	0	10000	4	1	0	4	0
23	426	0	10000	4	1	0	4	0
23	427	0	10000	4	1	0	4	0
23	428	0	10000	4	1	0	4	0
22	429	0	10000	4	1	0	4	0
23	430	0	10000	4	1	0	4	0
22	431	0	10000	4	1	0	4	0
22	432	0	10000	4	1	0	4	0
21	433	0	10000	4	1	0	4	0
21	434	0	10000	4	1	0	4	0
21	435	0	10000	4	1	0	4	0
21	436	0	10000	4	1	0	4	0
22	437	0	10000	4	1	0	4	0
22	438	0	10000	4	1	0	4	0
22	439	0	10000	4	1	0	4	0
21	440	0	10000	4	1	0	4	0
21	441	0	10000	4	1	0	4	0
23	441	0	10000	4	1	0	4	0
23	442	0	10000	4	1	0	4	0
22	444	0	10000	4	1	0	4	0
22	445	0	10000	4	1	0	4	0
21	446	0	10000	4	1	0	4	0
20	447	0	10000	4	1	0	4	0
21	448	0	10000	4	1	0	4	0
23	449	0	10000	4	1	0	4	0
23	450	0	10000	4	1	0	4	0
23	451	0	10000	4	1	0	4	0
22	452	0	10000	4	1	0	4	0
22	453	0	10000	4	1	0	4	0
22	454	0	10000	4	1	0	4	0
24	455	0	10000	4	1	0	4	0
23	456	0	10000	4	1	0	4	0
23	457	0	10000	4	1	0	4	0
22	458	0	10000	4	1	0	4	0
21	459	0	10000	4	1	0	4	0
20	460	0	10000	4	1	0	4	0
23	461	0	10000	4	1	0	4	0
23	462	0	10000	4	1	0	4	0
23	463	0	10000	4	1	0	4	0
23	464	0	10000	4	1	0	4	0
23	465	0	10000	4	1	0	4	0
23	466	0	10000	4	1	0	4	0
24	467	0	10000	4	1	0	4	0
23	468	0	10000	4	1	0	4	0
23	469	0	10000	4	1	0	4	0
23	470	0	10000	4	1	0	4	0
23	471	0	10000	4	1	0	4	0
23	472	0	10000	4	1	0	4	0
24	473	0	10000	4	1	0	4	0
24	474	0	10000	4	1	0	4	0
24	475	0	10000	4	1	0	4	0
23	476	0	10000	4	1	0	4	0
23	477	0	10000	4	1	0	4	0
22	478	0	10000	4	1	0	4	0
23	479	0	10000	4	1	0	4	0
23	480	0	10000	4	1	0	4	0
24	481	0	10000	4	1	0	4	0
25	482	0	10000	4	1	0	4	0
25	483	0	10000	4	1	0	4	0
25	484	0	10000	4	1	0	4	0
25	485	0	10000	4	1	0	4	0
25	486	0	10000	4	1	0	4	0
24	487	0	10000	4	1	0	4	0
23	488	0	10000	4	1	0	4	0
24	489	0	10000	4	1	0	4	0
24	490	0	10000	4	1	0	4	0
23	491	0	10000	4	1	0	4	0
23	492	0	10000	4	1	0	4	0
22	493	0	10000	4	1	0	4	0
21	494	0	10000	4	1	0	4	0
22	495	0	10000	4	1	0	4	0
23	496	0	10000	4	1	0	4	0
24	497	0	10000	4	1	0	4	0
25	498	0	10000	4	1	0	4	0
23	499	0	10000	4	1	0	4	0
22	500	0	10000	4	1	0	4	0
24	501	0	10000	4	1	0	4	0
25	502	0	10000	4	1	0	4	1
25	503	0	10000	4	1	0	4	1
26	504	0	10000	4	1	0	4	1
24	505	0	10000	4	1	0	4	1
22	506	0	10000	4	1	0	4	1
22	507	0	10000	4	1	0	4	1
23	508	0	10000	4	1	0	4	1
24	509	0	10000	4	1	0	4	1
24	510	0	10000	4	1	0	4	1
23	511	0	10000	4	1	0	4	1
21	512	0	10000	4	1	0	4	1
20	513	0	10000	4	1	0	4	1
23	514	0	10000	4	1	0	4	1
23	515	0	10000	4	1	0	4	1
24	516	0	10000	4	1	0	4	1
24	517	0	10000	4	1	0	4	1
24	518	0	10000	4	1	0	4	1
24	519	0	10000	4	1	0	4	1
25	520	0	10000	4	1	0	4	1
27	521	0	10000	4	1	0	4	1
27	522	0	10000	4	1	0	4	1
26	523	0	10000	4	1	0	4	1
25	524	0	10000	4	1	0	4	1
25	525	0	10000	4	1	0	4	1
27	526	0	10000	4	1	0	4	1
26	527	0	10000	4	1	0	4	1
27	528	0	10000	4	1	0	4	1
28	529	0	10000	4	1	0	4	1
27	530	0	10000	4	1	0	4	1
26	531	0	10000	4	1	0	4	1
26	532	0	10000	4	1	0	4	1
27	533	0	10000	4	1	0	4	1
26	534	0	10000	4	1	0	4	1
25	535	0	10000	4	1	0	4	1
24	536	0	10000	4	1	0	4	1
24	537	0	10000	4	1	0	4	1
27	538	0	10000	4	1	0	4	1
31	539	0	10000	4	1	0	4	1
30	540	0	10000	4	1	0	4	1
30	541	0	10000	4	1	0	4	1
31	541	0	10000	4	1	0	4	1
31	542	0	10000	4	1	0	4	1
34	544	0	10000	4	1	0	4	1
38	545	0	10000	4	1	0	4	1
40	546	0	10000	4	1	0	4	1
41	547	0	10000	4	1	0	4	1
40	548	0	10000	4	1	0	4	1
40	549	0	10000	4	1	0	4	1
39	550	0	10000	4	1	0	4	1
38	551	0	10000	4	1	0	4	1
39	552	0	10000	4	1	0	4	0
39	553	0	10000	4	1	0	4	0
41	554	0	10000	4	1	0	4	0
41	555	0	10000	4	1	0	4	0
41	556	0	10000	4	1	0	4	0
43	557	0	10000	4	1	0	4	0
44	558	0	10000	4	1	0	4	0
45	559	0	10000	4	1	0	4	0
46	560	0	10000	4	1	0	4	0
52	561	0	10000	4	1	0	4	0
63	562	0	10000	4	1	0	4	0
68	563	0	10000	4	1	0	4	0
69	564	0	10000	4	1	0	4	0
68	565	0	10000	4	1	0	4	0
70	566	0	10000	4	1	0	4	0
76	567	0	10000	4	1	0	4	0
84	568	0	10000	4	1	0	4	0
86	569	0	10000	4	1	0	4	0
95	570	0	10000	4	1	0	4	0
95	571	0	10000	4	1	0	4	0
92	572	0	10000	4	1	0	4	0
92	573	0	10000	4	1	0	4	0
91	574	0	10000	4	1	0	4	0
88	575	0	10000	4	1	0	4	0
86	576	0	10000	4	1	0	4	0
85	577	0	10000	4	1	0	4	0
82	578	0	10000	4	1	0	4	0
80	579	0	10000	4	1	0	4	0
85	580	0	10000	4	1	0	4	0
92	581	0	10000	4	1	0	4	0
97	581	0	10000	4	1	0	4	0
101	582	0	10000	4	1	0	4	0
102	584	0	10000	4	1	0	4	0
108	585	0	10000	4	1	0	4	0
114	586	0	10000	4	1	0	4	0
112	587	0	10000	4	1	0	4	0
114	588	0	10000	4	1	0	4	0
117	589	0	10000	4	1	0	4	0
117	590	0	10000	4	1	0	4	0
111	591	0	10000	4	1	0	4	0
107	592	0	10000	4	1	0	4	0
106	593	0	10000	4	1	0	4	0
107	594	0	10000	4	1	0	4	0
107	595	0	10000	4	1	0	4	0
104	596	0	10000	4	1	0	4	0
103	597	0	10000	4	1	0	4	0
99	598	0	10000	4	1	0	4	0
94	599	0	10000	4	1	0	4	0
91	600	0	10000	4	1	0	4	0
88	601	0	10000	4	1	0	4	0
87	601	0	10000	4	1	0	4	0
87	602	0	10000	4	1	0	4	0
84	604	0	10000	4	1	0	4	0
80	605	0	10000	4	1	0	4	0
78	606	0	10000	4	1	0	4	0
76	607	0	10000	4	1	0	4	0
77	608	0	10000	4	1	0	4	0
78	609	0	10000	4	1	0	4	0
78	610	0	10000	4	1	0	4	0
79	611	0	10000	4	1	0	4	0
78	612	0	10000	4	1	0	4	0
77	613	0	10000	4	1	0	4	0
76	614	0	10000	4	1	0	4	0
72	615	0	10000	4	1	0	4	0
70	616	0	10000	4	1	0	4	0
69	617	0	10000	4	1	0	4	0
67	618	0	10000	4	1	0	4	0
67	619	0	10000	4	1	0	4	0
68	620	0	10000	4	1	0	4	0
68	621	0	10000	4	1	0	4	0
71	622	0	10000	4	1	0	4	0
73	623	0	10000	4	1	0	4	0
74	624	0	10000	4	1	0	4	0
74	625	0	10000	4	1	0	4	0
74	626	0	10000	4	1	0	4	0
71	627	0	10000	4	1	0	4	0
68	628	0	10000	4	1	0	4	0
70	629	0	10000	4	1	0	4	0
72	630	0	10000	4	1	0	4	0
72	631	0	10000	4	1	0	4	0
72	632	0	10000	4	1	0	4	0
72	633	0	10000	4	1	0	4	0
75	634	0	10000	4	1	0	4	0
78	635	0	10000	4	1	0	4	0
80	636	0	10000	4	1	0	4	0
81	637	0	10000	4	1	0	4	0
83	638	0	10000	4	1	0	4	0
81	639	0	10000	4	1	0	4	0
82	640	0	10000	4	1	0	4	0
86	641	0	10000	4	1	0	4	0
90	641	0	10000	4	1	0	4	0
93	642	0	10000	4	1	0	4	0
94	644	0	10000	4	1	0	4	0
93	645	0	10000	4	1	0	4	0
95	646	0	10000	4	1	0	4	0
97	647	0	10000	4	1	0	4	0
99	648	0	10000	4	1	0	4	0
101	649	0	10000	4	1	0	4	0
102	650	0	10000	4	1	0	4	0
98	651	0	10000	4	1	0	4	0
98	651	0	10000	4	1	0	4	0
99	652	0	10000	4	1	0	4	0
100	654	0	10000	4	1	0	4	0
102	655	0	10000	4	1	0	4	0
102	656	0	10000	4	1	0	4	0
100	657	0	10000	4	1	0	4	0
100	658	0	10000	4	1	0	4	0
104	659	0	10000	4	1	0	4	0
106	660	0	10000	4	1	0	4	0
110	661	0	10000	4	1	0	4	0
113	662	0	10000	4	1	0	4	0
110	663	0	10000	4	1	0	4	0
111	664	0	10000	4	1	0	4	0
111	665	0	10000	4	1	0	4	0
110	666	0	10000	4	1	0	4	0
109	667	0	10000	4	1	0	4	0
106	668	0	10000	4	1	0	4	0
102	669	0	10000	4	1	0	4	0
100	670	0	10000	4	1	0	4	0
96	671	0	10000	4	1	0	4	0
92	671	0	10000	4	1	0	4	0
91	672	0	10000	4	1	0	4	0
87	674	0	10000	4	1	0	4	0
84	675	0	10000	4	1	0	4	0
82	676	0	10000	4	1	0	4	0
80	677	0	10000	4	1	0	4	0
78	678	0	10000	4	1	0	4	0
77	679	0	10000	4	1	0	4	0
75	680	0	10000	4	1	0	4	0
72	681	0	10000	4	1	0	4	0
72	682	0	10000	4	1	0	4	0
71	683	0	10000	4	1	0	4	0
69	684	0	10000	4	1	0	4	0
68	685	0	10000	4	1	0	4	0
66	686	0	10000	4	1	0	4	0
65	687	0	10000	4	1	0	4	0
62	688	0	10000	4	1	0	4	0
60	689	0	10000	4	1	0	4	0
58	690	0	10000	4	1	0	4	0
55	691	0	10000	4	1	0	4	0
54	692	0	10000	4	1	0	4	0
56	693	0	10000	4	1	0	4	0
55	694	0	10000	4	1	0	4	0
53	695	0	10000	4	1	0	4	0
51	696	0	10000	4	1	0	4	0
49	697	0	10000	4	1	0	4	0
47	698	0	10000	4	1	0	4	0
47	699	0	10000	4	1	0	4	0
46	700	0	10000	4	1	0	4	0
45	701	0	10000	4	1	0	4	0
44	702	0	10000	4	1	0	4	0
42	703	0	10000	4	1	0	4	0
42	704	0	10000	4	1	0	4	0
43	705	0	10000	4	1	0	4	0
43	706	0	10000	4	1	0	4	0
42	707	0	10000	4	1	0	4	0
41	708	0	10000	4	1	0	4	0
42	709	0	10000	4	1	0	4	0
43	710	0	10000	4	1	0	4	0
43	711	0	10000	4	1	0	4	0
41	712	0	10000	4	1	0	4	0
41	713	0	10000	4	1	0	4	0
40	714	0	10000	4	1	0	4	0
39	715	0	10000	4	1	0	4	0
41	716	0	10000	4	1	0	4	0
43	717	0	10000	4	1	0	4	0
42	718	0	10000	4	1	0	4	0
41	719	0	10000	4	1	0	4	0
38	720	0	10000	4	1	0	4	0
38	721	0	10000	4	1	0	4	0
39	722	0	10000	4	1	0	4	0
39	723	0	10000	4	1	0	4	0
38	724	0	10000	4	1	0	4	0
36	725	0	10000	4	1	0	4	0
34	726	0	10000	4	1	0	4	0
34	727	0	10000	4	1	0	4	0
33	728	0	10000	4	1	0	4	0
37	729	0	10000	4	1	0	4	0
37	730	0	10000	4	1	0	4	0
36	731	0	10000	4	1	0	4	0
36	732	0	10000	4	1	0	4	0
35	733	0	10000	4	1	0	4	0
37	734	0	10000	4	1	0	4	0
40	735	0	10000	4	1	0	4	0
41	736	0	10000	4	1	0	4	0
39	737	0	10000	4	1	0	4	0
38	738	0	10000	4	1	0	4	0
36	739	0	10000	4	1	0	4	0
35	740	0	10000	4	1	0	4	0
38	741	0	10000	4	1	0	4	0
38	742	0	10000	4	1	0	4	0
36	743	0	10000	4	1	0	4	0
34	744	0	10000	4	1	0	4	0
33	745	0	10000	4	1	0	4	0
33	746	0	10000	4	1	0	4	0
35	747	0	10000	4	1	0	4	0
36	748	0	10000	4	1	0	4	0
35	749	0	10000	4	1	0	4	0
37	750	0	10000	4	1	0	4	0
34	751	0	10000	4	1	0	4	0
34	752	0	10000	4	1	0	4	0
38	753	0	10000	4	1	0	4	0
38	754	0	10000	4	1	0	4	0
37	755	0	10000	4	1	0	4	0
37	756	0	10000	4	1	0	4	0
36	757	0	10000	4	1	0	4	0
34	758	0	10000	4	1	0	4	0
37	759	0	10000	4	1	0	4	0
35	760	0	10000	4	1	0	4	0
35	761	0	10000	4	1	0	4	0
34	762	0	10000	4	1	0	4	0
33	763	0	10000	4	1	0	4	0
33	764	0	10000	4	1	0	4	0
34	765	0	10000	4	1	0	4	0
33	766	0	10000	4	1	0	4	0
32	767	0	10000	4	1	0	4	0
31	768	0	10000	4	1	0	4	0
30	769	0	10000	4	1	0	4	0
31	770	0	10000	4	1	0	4	0
32	771	0	10000	4	1	0	4	0
30	772	0	10000	4	1	0	4	0
29	773	0	10000	4	1	0	4	0
28	774	0	10000	4	1	0	4	0
28	775	0	10000	4	1	0	4	0
28	776	0	10000	4	1	0	4	0
30	777	0	10000	4	1	0	4	0
29	778	0	10000	4	1	0	4	0
29	779	0	10000	4	1	0	4	0
27	780	0	10000	4	1	0	4	0
28	781	0	10000	4	1	0	4	0
28	781	0	10000	4	1	0	4	0
28	782	0	10000	4	1	0	4	0
27	784	0	10000	4	1	0	4	0
26	785	0	10000	4	1	0	4	0
26	786	0	10000	4	1	0	4	0
25	787	0	10000	4	1	0	4	0
25	788	0	10000	4	1	0	4	0
27	789	0	10000	4	1	0	4	0
28	790	0	10000	4	1	0	4	0
25	791	0	10000	4	1	0	4	0
24	792	0	10000	4	1	0	4	0
24	793	0	10000	4	1	0	4	0
24	794	0	10000	4	1	0	4	0
27	795	0	10000	4	1	0	4	0
27	796	0	10000	4	1	0	4	0
26	797	0	10000	4	1	0	4	0
25	798	0	10000	4	1	0	4	0
25	799	0	10000	4	1	0	4	0
24	800	0	10000	4	1	0	4	0
26	801	0	10000	4	1	0	4	0
27	802	0	10000	4	1	0	4	0
26	803	0	10000	4	1	0	4	0
25	804	0	10000	4	1	0	4	0
25	805	0	10000	4	1	0	4	0
30	806	0	10000	4	1	0	4	0
33	807	0	10000	4	1	0	4	0
34	808	0	10000	4	1	0	4	0
36	809	0	10000	4	1	0	4	0
38	810	0	10000	4	1	0	4	0
37	811	0	10000	4	1	0	4	0
38	812	0	10000	4	1	0	4	0
38	813	0	10000	4	1	0	4	0
39	814	0	10000	4	1	0	4	0
40	815	0	10000	4	1	0	4	0
40	816	0	10000	4	1	0	4	0
39	817	0	10000	4	1	0	4	0
38	818	0	10000	4	1	0	4	0
39	819	0	10000	4	1	0	4	0
38	820	0	10000	4	1	0	4	0
38	821	0	10000	4	1	0	4	0
37	822	0	10000	4	1	0	4	0
36	823	0	10000	4	1	0	4	0
39	824	0	10000	4	1	0	4	0
42	825	0	10000	4	1	0	4	0
44	826	0	10000	4	1	0	4	0
47	827	0	10000	4	1	0	4	0
52	828	0	10000	4	1	0	4	0
50	829	0	10000	4	1	0	4	0
54	830	0	10000	4	1	0	4	0
56	831	0	10000	4	1	0	4	0
54	832	0	10000	4	1	0	4	0
53	833	0	10000	4	1	0	4	0
51	834	0	10000	4	1	0	4	0
55	835	0	10000	4	1	0	4	0
58	836	0	10000	4	1	0	4	0
72	837	0	10000	4	1	0	4	0
83	838	0	10000	4	1	0	4	0
83	839	0	10000	4	1	0	4	0
87	840	0	10000	4	1	0	4	0
96	841	0	10000	4	1	0	4	0
100	841	0	10000	4	1	0	4	0
97	842	0	10000	4	1	0	4	0
99	844	0	10000	4	1	0	4	0
103	845	0	10000	4	1	0	4	0
104	846	0	10000	4	1	0	4	0
110	847	0	10000	4	1	0	4	0
132	848	0	10000	4	1	0	4	0
146	849	0	10000	4	1	0	4	0
151	850	0	10000	4	1	0	4	0
155	851	0	10000	4	1	0	4	0
154	852	0	10000	4	1	0	4	0
158	853	0	10000	4	1	0	4	0
173	854	0	10000	4	1	0	4	0
173	855	0	10000	4	1	0	4	0
176	856	0	10000	4	1	0	4	0
176	857	0	10000	4	1	0	4	0
173	858	0	10000	4	1	0	4	0
168	859	0	10000	4	1	0	4	0
167	860	0	10000	4	1	0	4	0
164	861	0	10000	4	1	0	4	0
157	862	0	10000	4	1	0	4	0
153	863	0	10000	4	1	0	4	0
150	864	0	10000	4	1	0	4	0
150	865	0	10000	4	1	0	4	0
145	866	0	10000	4	1	0	4	0
146	867	0	10000	4	1	0	4	0
148	868	0	10000	4	1	0	4	0
144	869	0	10000	4	1	0	4	0
144	870	0	10000	4	1	0	4	0
140	871	0	10000	4	1	0	4	0
141	872	0	10000	4	1	0	4	0
142	873	0	10000	4	1	0	4	0
138	874	0	10000	4	1	0	4	0
136	875	0	10000	4	1	0	4	0
130	876	0	10000	4	1	0	4	0
127	877	0	10000	4	1	0	4	0
123	878	0	10000	4	1	0	4	0
118	879	0	10000	4	1	0	4	0
113	880	0	10000	4	1	0	4	0
109	881	0	10000	4	1	0	4	0
105	882	0	10000	4	1	0	4	0
105	883	0	10000	4	1	0	4	0
109	884	0	10000	4	1	0	4	0
110	885	0	10000	4	1	0	4	0
109	886	0	10000	4	1	0	4	0
107	887	0	10000	4	1	0	4	0
104	888	0	10000	4	1	0	4	0
104	889	0	10000	4	1	0	4	0
109	890	0	10000	4	1	0	4	0
114	891	0	10000	4	1	0	4	0
111	892	0	10000	4	1	0	4	0
118	893	0	10000	4	1	0	4	0
127	894	0	10000	4	1	0	4	0
132	895	0	10000	4	1	0	4	0
128	896	0	10000	4	1	0	4	0
123	897	0	10000	4	1	0	4	0
123	898	0	10000	4	1	0	4	0
127	899	0	10000	4	1	0	4	0
123	900	0	10000	4	1	0	4	0
124	901	0	10000	4	1	0	4	0
131	902	0	10000	4	1	0	4	0
127	903	0	10000	4	1	0	4	0
126	904	0	10000	4	1	0	4	0
131	905	0	10000	4	1	0	4	0
138	906	0	10000	4	1	0	4	0
140	907	0	10000	4	1	0	4	0
136	908	0	10000	4	1	0	4	0
131	909	0	10000	4	1	0	4	0
128	910	0	10000	4	1	0	4	0
124	911	0	10000	4	1	0	4	0
120	912	0	10000	4	1	0	4	0
120	913	0	10000	4	1	0	4	0
115	914	0	10000	4	1	0	4	0
112	915	0	10000	4	1	0	4	0
114	916	0	10000	4	1	0	4	0
118	917	0	10000	4	1	0	4	0
120	918	0	10000	4	1	0	4	0
122	919	0	10000	4	1	0	4	0
117	920	0	10000	4	1	0	4	0
113	921	0	10000	4	1	0	4	0
111	922	0	10000	4	1	0	4	0
110	923	0	10000	4	1	0	4	0
109	924	0	10000	4	1	0	4	0
106	925	0	10000	4	1	0	4	0
102	926	0	10000	4	1	0	4	0
101	927	0	10000	4	1	0	4	0
101	928	0	10000	4	1	0	4	0
99	929	0	10000	4	1	0	4	0
102	930	0	10000	4	1	0	4	0
101	931	0	10000	4	1	0	4	0
99	931	0	10000	4	1	0	4	0
100	932	0	10000	4	1	0	4	0
100	934	0	10000	4	1	0	4	0
102	935	0	10000	4	1	0	4	0
102	936	0	10000	4	1	0	4	0
98	937	0	10000	4	1	0	4	0
95	938	0	10000	4	1	0	4	0
92	939	0	10000	4	1	0	4	0
90	940	0	10000	4	1	0	4	0
88	941	0	10000	4	1	0	4	0
84	942	0	10000	4	1	0	4	0
80	943	0	10000	4	1	0	4	0
78	944	0	10000	4	1	0	4	0
79	945	0	10000	4	1	0	4	0
80	946	0	10000	4	1	0	4	0
82	947	0	10000	4	1	0	4	0
84	948	0	10000	4	1	0	4	0
82	949	0	10000	4	1	0	4	0
79	950	0	10000	4	1	0	4	0
79	951	0	10000	4	1	0	4	0
79	952	0	10000	4	1	0	4	0
79	953	0	10000	4	1	0	4	0
80	954	0	10000	4	1	0	4	0
78	955	0	10000	4	1	0	4	0
78	956	0	10000	4	1	0	4	0
77	957	0	10000	4	1	0	4	0
75	958	0	10000	4	1	0	4	0
74	959	0	10000	4	1	0	4	0
72	960	0	10000	4	1	0	4	0
71	961	0	10000	4	1	0	4	0
70	962	0	10000	4	1	0	4	0
70	963	0	10000	4	1	0	4	0
70	964	0	10000	4	1	0	4	0
73	965	0	10000	4	1	0	4	0
73	966	0	10000	4	1	0	4	0
71	967	0	10000	4	1	0	4	0
73	968	0	10000	4	1	0	4	0
74	969	0	10000	4	1	0	4	0
74	970	0	10000	4	1	0	4	0
73	971	0	10000	4	1	0	4	0
71	972	0	10000	4	1	0	4	0
68	973	0	10000	4	1	0	4	0
68	974	0	10000	4	1	0	4	0
68	975	0	10000	4	1	0	4	0
67	976	0	10000	4	1	0	4	0
65	977	0	10000	4	1	0	4	0
65	978	0	10000	4	1	0	4	0
62	979	0	10000	4	1	0	4	0
60	980	0	10000	4	1	0	4	0
62	981	0	10000	4	1	0	4	0
62	982	0	10000	4	1	0	4	0
62	983	0	10000	4	1	0	4	0
62	984	0	10000	4	1	0	4	0
59	985	0	10000	4	1	0	4	0
58	986	0	10000	4	1	0	4	0
58	987	0	10000	4	1	0	4	0
59	988	0	10000	4	1	0	4	0
58	989	0	10000	4	1	0	4	0
57	990	0	10000	4	1	0	4	0
54	991	0	10000	4	1	0	4	0
53	992	0	10000	4	1	0	4	0
53	993	0	10000	4	1	0	4	0
52	994	0	10000	4	1	0	4	0
53	995	0	10000	4	1	0	4	0
52	996	0	10000	4	1	0	4	0
50	997	0	10000	4	1	0	4	0
50	998	0	10000	4	1	0	4	0
52	999	0	10000	4	1	0	4	0
53	1000	0	10000	4	1	0	4	0
56	1001	0	10000	4	1	0	4	0
23	1	0	10000	5	1	0	5	0
24	2	0	10000	5	1	0	5	0
24	3	0	10000	5	1	0	5	0
26	4	0	10000	5	1	0	5	0
25	5	0	10000	5	1	0	5	0
25	6	0	10000	5	1	0	5	0
25	7	0	10000	5	1	0	5	0
25	8	0	10000	5	1	0	5	0
25	9	0	10000	5	1	0	5	0
26	10	0	10000	5	1	0	5	0
27	11	0	10000	5	1	0	5	0
26	12	0	10000	5	1	0	5	0
25	13	0	10000	5	1	0	5	0
24	14	0	10000	5	1	0	5	0
25	15	0	10000	5	1	0	5	0
26	16	0	10000	5	1	0	5	0
26	17	0	10000	5	1	0	5	0
26	18	0	10000	5	1	0	5	0
26	19	0	10000	5	1	0	5	0
26	20	0	10000	5	1	0	5	0
25	21	0	10000	5	1	0	5	0
26	22	0	10000	5	1	0	5	0
27	23	0	10000	5	1	0	5	0
26	24	0	10000	5	1	0	5	0
26	25	0	10000	5	1	0	5	0
25	26	0	10000	5	1	0	5	0
24	27	0	10000	5	1	0	5	0
23	28	0	10000	5	1	0	5	0
25	29	0	10000	5	1	0	5	0
27	30	0	10000	5	1	0	5	0
26	31	0	10000	5	1	0	5	0
24	32	0	10000	5	1	0	5	0
24	33	0	10000	5	1	0	5	0
23	34	0	10000	5	1	0	5	0
24	35	0	10000	5	1	0	5	0
26	36	0	10000	5	1	0	5	0
25	37	0	10000	5	1	0	5	0
24	38	0	10000	5	1	0	5	0
24	39	0	10000	5	1	0	5	0
23	40	0	10000	5	1	0	5	0
24	41	0	10000	5	1	0	5	0
27	42	0	10000	5	1	0	5	0
28	43	0	10000	5	1	0	5	0
26	44	0	10000	5	1	0	5	0
26	45	0	10000	5	1	0	5	0
26	46	0	10000	5	1	0	5	0
26	47	0	10000	5	1	0	5	0
28	48	0	10000	5	1	0	5	0
30	49	0	10000	5	1	0	5	0
29	50	0	10000	5	1	0	5	0
30	51	0	10000	5	1	0	5	0
30	52	0	10000	5	1	0	5	0
31	53	0	10000	5	1	0	5	0
31	54	0	10000	5	1	0	5	0
31	55	0	10000	5	1	0	5	0
32	56	0	10000	5	1	0	5	0
32	57	0	10000	5	1	0	5	0
31	58	0	10000	5	1	0	5	0
29	59	0	10000	5	1	0	5	0
29	60	0	10000	5	1	0	5	0
30	61	0	10000	5	1	0	5	0
32	62	0	10000	5	1	0	5	0
32	63	0	10000	5	1	0	5	0
32	64	0	10000	5	1	0	5	0
30	65	0	10000	5	1	0	5	0
29	66	0	10000	5	1	0	5	0
31	67	0	10000	5	1	0	5	0
30	68	0	10000	5	1	0	5	0
30	69	0	10000	5	1	0	5	0
30	70	0	10000	5	1	0	5	0
29	71	0	10000	5	1	0	5	0
27	72	0	10000	5	1	0	5	0
27	73	0	10000	5	1	0	5	0
27	74	0	10000	5	1	0	5	0
27	75	0	10000	5	1	0	5	0
28	76	0	10000	5	1	0	5	0
27	77	0	10000	5	1	0	5	0
27	78	0	10000	5	1	0	5	0
27	79	0	10000	5	1	0	5	0
27	80	0	10000	5	1	0	5	0
27	81	0	10000	5	1	0	5	0
28	82	0	10000	5	1	0	5	0
29	83	0	10000	5	1	0	5	0
29	84	0	10000	5	1	0	5	0
29	85	0	10000	5	1	0	5	0
29	86	0	10000	5	1	0	5	0
28	87	0	10000	5	1	0	5	0
28	88	0	10000	5	1	0	5	0
27	89	0	10000	5	1	0	5	0
26	90	0	10000	5	1	0	5	0
26	91	0	10000	5	1	0	5	0
26	92	0	10000	5	1	0	5	0
24	93	0	10000	5	1	0	5	0
24	94	0	10000	5	1	0	5	0
26	95	0	10000	5	1	0	5	0
26	96	0	10000	5	1	0	5	0
26	97	0	10000	5	1	0	5	0
27	98	0	10000	5	1	0	5	0
27	99	0	10000	5	1	0	5	0
26	100	0	10000	5	1	0	5	0
26	101	0	10000	5	1	0	5	0
26	102	0	10000	5	1	0	5	0
26	103	0	10000	5	1	0	5	0
27	104	0	10000	5	1	0	5	0
26	105	0	10000	5	1	0	5	0
25	106	0	10000	5	1	0	5	0
27	107	0	10000	5	1	0	5	0
27	108	0	10000	5	1	0	5	0
27	109	0	10000	5	1	0	5	0
28	110	0	10000	5	1	0	5	0
27	111	0	10000	5	1	0	5	0
27	112	0	10000	5	1	0	5	0
26	113	0	10000	5	1	0	5	0
26	114	0	10000	5	1	0	5	0
26	115	0	10000	5	1	0	5	0
26	116	0	10000	5	1	0	5	0
26	117	0	10000	5	1	0	5	0
28	118	0	10000	5	1	0	5	0
28	119	0	10000	5	1	0	5	0
27	120	0	10000	5	1	0	5	0
26	121	0	10000	5	1	0	5	0
27	122	0	10000	5	1	0	5	0
27	123	0	10000	5	1	0	5	0
27	124	0	10000	5	1	0	5	0
27	125	0	10000	5	1	0	5	0
27	126	0	10000	5	1	0	5	0
26	127	0	10000	5	1	0	5	0
26	128	0	10000	5	1	0	5	0
25	129	0	10000	5	1	0	5	0
26	130	0	10000	5	1	0	5	0
28	131	0	10000	5	1	0	5	0
27	132	0	10000	5	1	0	5	0
25	133	0	10000	5	1	0	5	0
25	134	0	10000	5	1	0	5	0
25	135	0	10000	5	1	0	5	0
25	136	0	10000	5	1	0	5	0
26	137	0	10000	5	1	0	5	0
26	138	0	10000	5	1	0	5	0
26	139	0	10000	5	1	0	5	0
26	140	0	10000	5	1	0	5	0
25	141	0	10000	5	1	0	5	0
25	142	0	10000	5	1	0	5	0
27	143	0	10000	5	1	0	5	0
28	144	0	10000	5	1	0	5	0
26	145	0	10000	5	1	0	5	0
25	146	0	10000	5	1	0	5	0
25	147	0	10000	5	1	0	5	0
24	148	0	10000	5	1	0	5	0
25	149	0	10000	5	1	0	5	0
27	150	0	10000	5	1	0	5	0
26	151	0	10000	5	1	0	5	0
24	152	0	10000	5	1	0	5	0
23	153	0	10000	5	1	0	5	0
23	154	0	10000	5	1	0	5	0
23	155	0	10000	5	1	0	5	0
25	156	0	10000	5	1	0	5	0
25	157	0	10000	5	1	0	5	0
25	158	0	10000	5	1	0	5	0
25	159	0	10000	5	1	0	5	0
24	160	0	10000	5	1	0	5	0
24	161	0	10000	5	1	0	5	0
24	162	0	10000	5	1	0	5	0
26	163	0	10000	5	1	0	5	0
25	164	0	10000	5	1	0	5	0
24	165	0	10000	5	1	0	5	0
23	166	0	10000	5	1	0	5	0
23	167	0	10000	5	1	0	5	0
22	168	0	10000	5	1	0	5	0
24	169	0	10000	5	1	0	5	0
24	170	0	10000	5	1	0	5	0
25	171	0	10000	5	1	0	5	0
23	172	0	10000	5	1	0	5	0
21	173	0	10000	5	1	0	5	0
22	174	0	10000	5	1	0	5	0
24	175	0	10000	5	1	0	5	0
23	176	0	10000	5	1	0	5	0
23	177	0	10000	5	1	0	5	0
24	178	0	10000	5	1	0	5	0
22	179	0	10000	5	1	0	5	0
21	180	0	10000	5	1	0	5	0
22	181	0	10000	5	1	0	5	0
24	182	0	10000	5	1	0	5	0
24	183	0	10000	5	1	0	5	0
24	184	0	10000	5	1	0	5	0
22	185	0	10000	5	1	0	5	0
22	186	0	10000	5	1	0	5	0
23	187	0	10000	5	1	0	5	0
24	188	0	10000	5	1	0	5	0
24	189	0	10000	5	1	0	5	0
24	190	0	10000	5	1	0	5	0
24	191	0	10000	5	1	0	5	0
22	192	0	10000	5	1	0	5	0
22	193	0	10000	5	1	0	5	0
24	194	0	10000	5	1	0	5	0
23	195	0	10000	5	1	0	5	0
23	196	0	10000	5	1	0	5	0
22	197	0	10000	5	1	0	5	0
22	198	0	10000	5	1	0	5	0
21	199	0	10000	5	1	0	5	0
21	200	0	10000	5	1	0	5	0
21	201	0	10000	5	1	0	5	0
22	202	0	10000	5	1	0	5	0
23	203	0	10000	5	1	0	5	0
22	204	0	10000	5	1	0	5	0
22	205	0	10000	5	1	0	5	0
23	206	0	10000	5	1	0	5	0
23	207	0	10000	5	1	0	5	0
23	208	0	10000	5	1	0	5	0
23	209	0	10000	5	1	0	5	0
22	210	0	10000	5	1	0	5	0
23	211	0	10000	5	1	0	5	0
22	212	0	10000	5	1	0	5	0
22	213	0	10000	5	1	0	5	0
23	214	0	10000	5	1	0	5	0
23	215	0	10000	5	1	0	5	0
22	216	0	10000	5	1	0	5	0
22	217	0	10000	5	1	0	5	0
22	218	0	10000	5	1	0	5	0
23	219	0	10000	5	1	0	5	0
22	220	0	10000	5	1	0	5	0
23	221	0	10000	5	1	0	5	0
23	222	0	10000	5	1	0	5	0
23	223	0	10000	5	1	0	5	0
24	224	0	10000	5	1	0	5	0
24	225	0	10000	5	1	0	5	0
23	226	0	10000	5	1	0	5	0
25	227	0	10000	5	1	0	5	0
24	228	0	10000	5	1	0	5	0
24	229	0	10000	5	1	0	5	0
24	230	0	10000	5	1	0	5	0
24	231	0	10000	5	1	0	5	0
23	232	0	10000	5	1	0	5	0
22	233	0	10000	5	1	0	5	0
22	234	0	10000	5	1	0	5	0
21	235	0	10000	5	1	0	5	0
22	236	0	10000	5	1	0	5	0
22	237	0	10000	5	1	0	5	0
24	238	0	10000	5	1	0	5	0
23	239	0	10000	5	1	0	5	0
24	240	0	10000	5	1	0	5	0
23	241	0	10000	5	1	0	5	0
23	242	0	10000	5	1	0	5	0
25	243	0	10000	5	1	0	5	0
25	244	0	10000	5	1	0	5	0
24	245	0	10000	5	1	0	5	0
24	246	0	10000	5	1	0	5	0
23	247	0	10000	5	1	0	5	0
22	248	0	10000	5	1	0	5	0
22	249	0	10000	5	1	0	5	0
24	250	0	10000	5	1	0	5	0
25	251	0	10000	5	1	0	5	0
24	252	0	10000	5	1	0	5	0
22	253	0	10000	5	1	0	5	0
22	254	0	10000	5	1	0	5	0
23	255	0	10000	5	1	0	5	0
23	256	0	10000	5	1	0	5	0
25	257	0	10000	5	1	0	5	0
25	258	0	10000	5	1	0	5	0
24	259	0	10000	5	1	0	5	0
22	260	0	10000	5	1	0	5	0
22	261	0	10000	5	1	0	5	0
23	262	0	10000	5	1	0	5	0
25	263	0	10000	5	1	0	5	0
25	264	0	10000	5	1	0	5	0
24	265	0	10000	5	1	0	5	0
23	266	0	10000	5	1	0	5	0
23	267	0	10000	5	1	0	5	0
23	268	0	10000	5	1	0	5	0
24	269	0	10000	5	1	0	5	0
25	270	0	10000	5	1	0	5	0
26	271	0	10000	5	1	0	5	0
23	272	0	10000	5	1	0	5	0
22	273	0	10000	5	1	0	5	0
22	274	0	10000	5	1	0	5	0
23	275	0	10000	5	1	0	5	0
24	276	0	10000	5	1	0	5	0
24	277	0	10000	5	1	0	5	0
24	278	0	10000	5	1	0	5	0
24	279	0	10000	5	1	0	5	0
24	280	0	10000	5	1	0	5	0
23	281	0	10000	5	1	0	5	0
25	282	0	10000	5	1	0	5	0
26	283	0	10000	5	1	0	5	0
25	284	0	10000	5	1	0	5	0
24	285	0	10000	5	1	0	5	0
23	286	0	10000	5	1	0	5	0
23	287	0	10000	5	1	0	5	0
25	288	0	10000	5	1	0	5	0
25	289	0	10000	5	1	0	5	0
25	290	0	10000	5	1	0	5	0
25	291	0	10000	5	1	0	5	0
23	292	0	10000	5	1	0	5	0
23	293	0	10000	5	1	0	5	0
25	294	0	10000	5	1	0	5	0
25	295	0	10000	5	1	0	5	0
25	296	0	10000	5	1	0	5	0
24	297	0	10000	5	1	0	5	0
24	298	0	10000	5	1	0	5	0
24	299	0	10000	5	1	0	5	0
24	300	0	10000	5	1	0	5	0
26	301	0	10000	5	1	0	5	0
25	302	0	10000	5	1	0	5	0
26	303	0	10000	5	1	0	5	0
26	304	0	10000	5	1	0	5	0
24	305	0	10000	5	1	0	5	0
24	306	0	10000	5	1	0	5	0
26	307	0	10000	5	1	0	5	0
24	308	0	10000	5	1	0	5	0
25	309	0	10000	5	1	0	5	0
25	310	0	10000	5	1	0	5	0
25	311	0	10000	5	1	0	5	0
23	312	0	10000	5	1	0	5	0
26	313	0	10000	5	1	0	5	0
25	314	0	10000	5	1	0	5	0
26	315	0	10000	5	1	0	5	0
25	316	0	10000	5	1	0	5	0
25	317	0	10000	5	1	0	5	0
25	318	0	10000	5	1	0	5	0
25	319	0	10000	5	1	0	5	0
25	320	0	10000	5	1	0	5	0
24	321	0	10000	5	1	0	5	0
26	322	0	10000	5	1	0	5	0
26	323	0	10000	5	1	0	5	0
27	324	0	10000	5	1	0	5	0
26	325	0	10000	5	1	0	5	0
27	326	0	10000	5	1	0	5	0
27	327	0	10000	5	1	0	5	0
27	328	0	10000	5	1	0	5	0
27	329	0	10000	5	1	0	5	0
26	330	0	10000	5	1	0	5	0
27	331	0	10000	5	1	0	5	0
27	332	0	10000	5	1	0	5	0
25	333	0	10000	5	1	0	5	0
25	334	0	10000	5	1	0	5	0
24	335	0	10000	5	1	0	5	0
24	336	0	10000	5	1	0	5	0
24	337	0	10000	5	1	0	5	0
26	338	0	10000	5	1	0	5	0
25	339	0	10000	5	1	0	5	0
25	340	0	10000	5	1	0	5	0
25	341	0	10000	5	1	0	5	0
25	342	0	10000	5	1	0	5	0
25	343	0	10000	5	1	0	5	0
25	344	0	10000	5	1	0	5	0
25	345	0	10000	5	1	0	5	0
25	346	0	10000	5	1	0	5	0
24	347	0	10000	5	1	0	5	0
23	348	0	10000	5	1	0	5	0
23	349	0	10000	5	1	0	5	0
24	350	0	10000	5	1	0	5	0
26	351	0	10000	5	1	0	5	0
24	352	0	10000	5	1	0	5	0
24	353	0	10000	5	1	0	5	0
23	354	0	10000	5	1	0	5	0
22	355	0	10000	5	1	0	5	0
22	356	0	10000	5	1	0	5	0
25	357	0	10000	5	1	0	5	0
25	358	0	10000	5	1	0	5	0
25	359	0	10000	5	1	0	5	0
24	360	0	10000	5	1	0	5	0
23	361	0	10000	5	1	0	5	0
24	362	0	10000	5	1	0	5	0
26	363	0	10000	5	1	0	5	0
26	364	0	10000	5	1	0	5	0
25	365	0	10000	5	1	0	5	0
24	366	0	10000	5	1	0	5	0
23	367	0	10000	5	1	0	5	0
23	368	0	10000	5	1	0	5	0
24	369	0	10000	5	1	0	5	0
25	370	0	10000	5	1	0	5	0
25	371	0	10000	5	1	0	5	0
24	372	0	10000	5	1	0	5	0
23	373	0	10000	5	1	0	5	0
23	374	0	10000	5	1	0	5	0
23	375	0	10000	5	1	0	5	0
24	376	0	10000	5	1	0	5	0
24	377	0	10000	5	1	0	5	0
26	378	0	10000	5	1	0	5	0
24	379	0	10000	5	1	0	5	0
24	380	0	10000	5	1	0	5	0
23	381	0	10000	5	1	0	5	0
25	382	0	10000	5	1	0	5	0
25	383	0	10000	5	1	0	5	0
26	384	0	10000	5	1	0	5	0
25	385	0	10000	5	1	0	5	0
25	386	0	10000	5	1	0	5	0
24	387	0	10000	5	1	0	5	0
25	388	0	10000	5	1	0	5	0
26	389	0	10000	5	1	0	5	0
26	390	0	10000	5	1	0	5	0
27	391	0	10000	5	1	0	5	0
25	392	0	10000	5	1	0	5	0
24	393	0	10000	5	1	0	5	0
25	394	0	10000	5	1	0	5	0
26	395	0	10000	5	1	0	5	0
25	396	0	10000	5	1	0	5	0
26	397	0	10000	5	1	0	5	0
25	398	0	10000	5	1	0	5	0
24	399	0	10000	5	1	0	5	0
24	400	0	10000	5	1	0	5	0
24	401	0	10000	5	1	0	5	0
25	402	0	10000	5	1	0	5	0
26	403	0	10000	5	1	0	5	0
25	404	0	10000	5	1	0	5	0
23	405	0	10000	5	1	0	5	0
23	406	0	10000	5	1	0	5	0
24	407	0	10000	5	1	0	5	0
24	408	0	10000	5	1	0	5	0
25	409	0	10000	5	1	0	5	0
25	410	0	10000	5	1	0	5	0
25	411	0	10000	5	1	0	5	0
25	412	0	10000	5	1	0	5	0
24	413	0	10000	5	1	0	5	0
25	414	0	10000	5	1	0	5	0
24	415	0	10000	5	1	0	5	0
24	416	0	10000	5	1	0	5	0
23	417	0	10000	5	1	0	5	0
24	418	0	10000	5	1	0	5	0
23	419	0	10000	5	1	0	5	0
24	420	0	10000	5	1	0	5	0
25	421	0	10000	5	1	0	5	0
25	422	0	10000	5	1	0	5	0
24	423	0	10000	5	1	0	5	0
24	424	0	10000	5	1	0	5	0
24	425	0	10000	5	1	0	5	0
23	426	0	10000	5	1	0	5	0
24	427	0	10000	5	1	0	5	0
24	428	0	10000	5	1	0	5	0
24	429	0	10000	5	1	0	5	0
23	430	0	10000	5	1	0	5	0
24	431	0	10000	5	1	0	5	0
23	432	0	10000	5	1	0	5	0
23	433	0	10000	5	1	0	5	0
23	434	0	10000	5	1	0	5	0
24	435	0	10000	5	1	0	5	0
23	436	0	10000	5	1	0	5	0
22	437	0	10000	5	1	0	5	0
22	438	0	10000	5	1	0	5	0
23	439	0	10000	5	1	0	5	0
24	440	0	10000	5	1	0	5	0
23	441	0	10000	5	1	0	5	0
24	442	0	10000	5	1	0	5	0
24	443	0	10000	5	1	0	5	0
24	444	0	10000	5	1	0	5	0
24	445	0	10000	5	1	0	5	0
25	446	0	10000	5	1	0	5	0
24	447	0	10000	5	1	0	5	0
24	448	0	10000	5	1	0	5	0
23	449	0	10000	5	1	0	5	0
23	450	0	10000	5	1	0	5	0
23	451	0	10000	5	1	0	5	0
23	452	0	10000	5	1	0	5	0
22	453	0	10000	5	1	0	5	0
23	454	0	10000	5	1	0	5	0
22	455	0	10000	5	1	0	5	0
21	456	0	10000	5	1	0	5	0
22	457	0	10000	5	1	0	5	0
24	458	0	10000	5	1	0	5	0
23	459	0	10000	5	1	0	5	0
23	460	0	10000	5	1	0	5	0
22	461	0	10000	5	1	0	5	0
23	462	0	10000	5	1	0	5	0
22	463	0	10000	5	1	0	5	0
23	464	0	10000	5	1	0	5	0
23	465	0	10000	5	1	0	5	0
23	466	0	10000	5	1	0	5	0
23	467	0	10000	5	1	0	5	0
23	468	0	10000	5	1	0	5	0
22	469	0	10000	5	1	0	5	0
22	470	0	10000	5	1	0	5	0
24	471	0	10000	5	1	0	5	0
22	472	0	10000	5	1	0	5	0
22	473	0	10000	5	1	0	5	0
22	474	0	10000	5	1	0	5	0
22	475	0	10000	5	1	0	5	0
23	476	0	10000	5	1	0	5	0
24	477	0	10000	5	1	0	5	0
25	478	0	10000	5	1	0	5	0
24	479	0	10000	5	1	0	5	0
24	480	0	10000	5	1	0	5	0
24	481	0	10000	5	1	0	5	0
25	482	0	10000	5	1	0	5	0
26	483	0	10000	5	1	0	5	0
26	484	0	10000	5	1	0	5	0
25	485	0	10000	5	1	0	5	0
25	486	0	10000	5	1	0	5	0
24	487	0	10000	5	1	0	5	0
23	488	0	10000	5	1	0	5	0
23	489	0	10000	5	1	0	5	0
25	490	0	10000	5	1	0	5	0
25	491	0	10000	5	1	0	5	0
25	492	0	10000	5	1	0	5	0
25	493	0	10000	5	1	0	5	0
25	494	0	10000	5	1	0	5	0
26	495	0	10000	5	1	0	5	0
26	496	0	10000	5	1	0	5	0
27	497	0	10000	5	1	0	5	0
27	498	0	10000	5	1	0	5	0
25	499	0	10000	5	1	0	5	0
24	500	0	10000	5	1	0	5	0
23	501	0	10000	5	1	0	5	1
24	502	0	10000	5	1	0	5	1
26	503	0	10000	5	1	0	5	1
26	504	0	10000	5	1	0	5	1
25	505	0	10000	5	1	0	5	1
23	506	0	10000	5	1	0	5	1
23	507	0	10000	5	1	0	5	1
22	508	0	10000	5	1	0	5	1
23	509	0	10000	5	1	0	5	1
24	510	0	10000	5	1	0	5	1
24	511	0	10000	5	1	0	5	1
22	512	0	10000	5	1	0	5	1
21	513	0	10000	5	1	0	5	1
21	514	0	10000	5	1	0	5	1
22	515	0	10000	5	1	0	5	1
23	516	0	10000	5	1	0	5	1
23	517	0	10000	5	1	0	5	1
23	518	0	10000	5	1	0	5	1
23	519	0	10000	5	1	0	5	1
23	520	0	10000	5	1	0	5	1
24	521	0	10000	5	1	0	5	1
25	522	0	10000	5	1	0	5	1
25	523	0	10000	5	1	0	5	1
25	524	0	10000	5	1	0	5	1
25	525	0	10000	5	1	0	5	1
24	526	0	10000	5	1	0	5	1
24	527	0	10000	5	1	0	5	1
24	528	0	10000	5	1	0	5	1
25	529	0	10000	5	1	0	5	1
25	530	0	10000	5	1	0	5	1
25	531	0	10000	5	1	0	5	1
24	532	0	10000	5	1	0	5	1
23	533	0	10000	5	1	0	5	1
24	534	0	10000	5	1	0	5	1
26	535	0	10000	5	1	0	5	1
25	536	0	10000	5	1	0	5	1
24	537	0	10000	5	1	0	5	1
25	538	0	10000	5	1	0	5	1
23	539	0	10000	5	1	0	5	1
23	540	0	10000	5	1	0	5	1
24	541	0	10000	5	1	0	5	1
25	542	0	10000	5	1	0	5	1
25	543	0	10000	5	1	0	5	1
25	544	0	10000	5	1	0	5	1
24	545	0	10000	5	1	0	5	1
23	546	0	10000	5	1	0	5	1
24	547	0	10000	5	1	0	5	1
25	548	0	10000	5	1	0	5	1
24	549	0	10000	5	1	0	5	1
24	550	0	10000	5	1	0	5	1
25	551	0	10000	5	1	0	5	0
23	552	0	10000	5	1	0	5	0
22	553	0	10000	5	1	0	5	0
24	554	0	10000	5	1	0	5	0
23	555	0	10000	5	1	0	5	0
24	556	0	10000	5	1	0	5	0
25	557	0	10000	5	1	0	5	0
24	558	0	10000	5	1	0	5	0
24	559	0	10000	5	1	0	5	0
25	560	0	10000	5	1	0	5	0
25	561	0	10000	5	1	0	5	0
26	562	0	10000	5	1	0	5	0
25	563	0	10000	5	1	0	5	0
24	564	0	10000	5	1	0	5	0
23	565	0	10000	5	1	0	5	0
23	566	0	10000	5	1	0	5	0
24	567	0	10000	5	1	0	5	0
24	568	0	10000	5	1	0	5	0
24	569	0	10000	5	1	0	5	0
23	570	0	10000	5	1	0	5	0
23	571	0	10000	5	1	0	5	0
22	572	0	10000	5	1	0	5	0
22	573	0	10000	5	1	0	5	0
23	574	0	10000	5	1	0	5	0
23	575	0	10000	5	1	0	5	0
22	576	0	10000	5	1	0	5	0
22	577	0	10000	5	1	0	5	0
22	578	0	10000	5	1	0	5	0
22	579	0	10000	5	1	0	5	0
21	580	0	10000	5	1	0	5	0
21	581	0	10000	5	1	0	5	0
23	582	0	10000	5	1	0	5	0
22	583	0	10000	5	1	0	5	0
22	584	0	10000	5	1	0	5	0
23	585	0	10000	5	1	0	5	0
24	586	0	10000	5	1	0	5	0
24	587	0	10000	5	1	0	5	0
23	588	0	10000	5	1	0	5	0
23	589	0	10000	5	1	0	5	0
23	590	0	10000	5	1	0	5	0
24	591	0	10000	5	1	0	5	0
23	592	0	10000	5	1	0	5	0
23	593	0	10000	5	1	0	5	0
23	594	0	10000	5	1	0	5	0
22	595	0	10000	5	1	0	5	0
21	596	0	10000	5	1	0	5	0
21	597	0	10000	5	1	0	5	0
23	598	0	10000	5	1	0	5	0
23	599	0	10000	5	1	0	5	0
23	600	0	10000	5	1	0	5	0
22	601	0	10000	5	1	0	5	0
23	602	0	10000	5	1	0	5	0
23	603	0	10000	5	1	0	5	0
24	604	0	10000	5	1	0	5	0
26	605	0	10000	5	1	0	5	0
25	606	0	10000	5	1	0	5	0
25	607	0	10000	5	1	0	5	0
24	608	0	10000	5	1	0	5	0
25	609	0	10000	5	1	0	5	0
25	610	0	10000	5	1	0	5	0
26	611	0	10000	5	1	0	5	0
24	612	0	10000	5	1	0	5	0
24	613	0	10000	5	1	0	5	0
23	614	0	10000	5	1	0	5	0
23	615	0	10000	5	1	0	5	0
23	616	0	10000	5	1	0	5	0
25	617	0	10000	5	1	0	5	0
28	618	0	10000	5	1	0	5	0
26	619	0	10000	5	1	0	5	0
25	620	0	10000	5	1	0	5	0
24	621	0	10000	5	1	0	5	0
25	622	0	10000	5	1	0	5	0
25	623	0	10000	5	1	0	5	0
26	624	0	10000	5	1	0	5	0
25	625	0	10000	5	1	0	5	0
25	626	0	10000	5	1	0	5	0
25	627	0	10000	5	1	0	5	0
25	628	0	10000	5	1	0	5	0
26	629	0	10000	5	1	0	5	0
27	630	0	10000	5	1	0	5	0
27	631	0	10000	5	1	0	5	0
26	632	0	10000	5	1	0	5	0
25	633	0	10000	5	1	0	5	0
25	634	0	10000	5	1	0	5	0
25	635	0	10000	5	1	0	5	0
26	636	0	10000	5	1	0	5	0
26	637	0	10000	5	1	0	5	0
26	638	0	10000	5	1	0	5	0
25	639	0	10000	5	1	0	5	0
25	640	0	10000	5	1	0	5	0
24	641	0	10000	5	1	0	5	0
26	642	0	10000	5	1	0	5	0
28	643	0	10000	5	1	0	5	0
28	644	0	10000	5	1	0	5	0
26	645	0	10000	5	1	0	5	0
26	646	0	10000	5	1	0	5	0
24	647	0	10000	5	1	0	5	0
23	648	0	10000	5	1	0	5	0
25	649	0	10000	5	1	0	5	0
25	650	0	10000	5	1	0	5	0
25	651	0	10000	5	1	0	5	0
24	652	0	10000	5	1	0	5	0
23	653	0	10000	5	1	0	5	0
23	654	0	10000	5	1	0	5	0
25	655	0	10000	5	1	0	5	0
25	656	0	10000	5	1	0	5	0
24	657	0	10000	5	1	0	5	0
24	658	0	10000	5	1	0	5	0
23	659	0	10000	5	1	0	5	0
23	660	0	10000	5	1	0	5	0
23	661	0	10000	5	1	0	5	0
26	662	0	10000	5	1	0	5	0
25	663	0	10000	5	1	0	5	0
25	664	0	10000	5	1	0	5	0
25	665	0	10000	5	1	0	5	0
23	666	0	10000	5	1	0	5	0
23	667	0	10000	5	1	0	5	0
24	668	0	10000	5	1	0	5	0
25	669	0	10000	5	1	0	5	0
25	670	0	10000	5	1	0	5	0
24	671	0	10000	5	1	0	5	0
22	672	0	10000	5	1	0	5	0
23	673	0	10000	5	1	0	5	0
23	674	0	10000	5	1	0	5	0
24	675	0	10000	5	1	0	5	0
24	676	0	10000	5	1	0	5	0
24	677	0	10000	5	1	0	5	0
23	678	0	10000	5	1	0	5	0
22	679	0	10000	5	1	0	5	0
22	680	0	10000	5	1	0	5	0
24	681	0	10000	5	1	0	5	0
25	682	0	10000	5	1	0	5	0
26	683	0	10000	5	1	0	5	0
25	684	0	10000	5	1	0	5	0
25	685	0	10000	5	1	0	5	0
26	686	0	10000	5	1	0	5	0
26	687	0	10000	5	1	0	5	0
25	688	0	10000	5	1	0	5	0
26	689	0	10000	5	1	0	5	0
24	690	0	10000	5	1	0	5	0
24	691	0	10000	5	1	0	5	0
23	692	0	10000	5	1	0	5	0
22	693	0	10000	5	1	0	5	0
23	694	0	10000	5	1	0	5	0
23	695	0	10000	5	1	0	5	0
22	696	0	10000	5	1	0	5	0
21	697	0	10000	5	1	0	5	0
21	698	0	10000	5	1	0	5	0
21	699	0	10000	5	1	0	5	0
22	700	0	10000	5	1	0	5	0
22	701	0	10000	5	1	0	5	0
23	702	0	10000	5	1	0	5	0
23	703	0	10000	5	1	0	5	0
21	704	0	10000	5	1	0	5	0
22	705	0	10000	5	1	0	5	0
24	706	0	10000	5	1	0	5	0
23	707	0	10000	5	1	0	5	0
24	708	0	10000	5	1	0	5	0
24	709	0	10000	5	1	0	5	0
24	710	0	10000	5	1	0	5	0
25	711	0	10000	5	1	0	5	0
24	712	0	10000	5	1	0	5	0
23	713	0	10000	5	1	0	5	0
23	714	0	10000	5	1	0	5	0
22	715	0	10000	5	1	0	5	0
22	716	0	10000	5	1	0	5	0
21	717	0	10000	5	1	0	5	0
22	718	0	10000	5	1	0	5	0
22	719	0	10000	5	1	0	5	0
22	720	0	10000	5	1	0	5	0
21	721	0	10000	5	1	0	5	0
21	722	0	10000	5	1	0	5	0
22	723	0	10000	5	1	0	5	0
21	724	0	10000	5	1	0	5	0
22	725	0	10000	5	1	0	5	0
23	726	0	10000	5	1	0	5	0
22	727	0	10000	5	1	0	5	0
20	728	0	10000	5	1	0	5	0
21	729	0	10000	5	1	0	5	0
21	730	0	10000	5	1	0	5	0
21	731	0	10000	5	1	0	5	0
21	732	0	10000	5	1	0	5	0
20	733	0	10000	5	1	0	5	0
20	734	0	10000	5	1	0	5	0
21	735	0	10000	5	1	0	5	0
20	736	0	10000	5	1	0	5	0
21	737	0	10000	5	1	0	5	0
22	738	0	10000	5	1	0	5	0
22	739	0	10000	5	1	0	5	0
22	740	0	10000	5	1	0	5	0
21	741	0	10000	5	1	0	5	0
22	742	0	10000	5	1	0	5	0
22	743	0	10000	5	1	0	5	0
23	744	0	10000	5	1	0	5	0
22	745	0	10000	5	1	0	5	0
22	746	0	10000	5	1	0	5	0
21	747	0	10000	5	1	0	5	0
21	748	0	10000	5	1	0	5	0
20	749	0	10000	5	1	0	5	0
21	750	0	10000	5	1	0	5	0
23	751	0	10000	5	1	0	5	0
22	752	0	10000	5	1	0	5	0
21	753	0	10000	5	1	0	5	0
20	754	0	10000	5	1	0	5	0
20	755	0	10000	5	1	0	5	0
21	756	0	10000	5	1	0	5	0
22	757	0	10000	5	1	0	5	0
21	758	0	10000	5	1	0	5	0
22	759	0	10000	5	1	0	5	0
22	760	0	10000	5	1	0	5	0
21	761	0	10000	5	1	0	5	0
23	762	0	10000	5	1	0	5	0
24	763	0	10000	5	1	0	5	0
24	764	0	10000	5	1	0	5	0
23	765	0	10000	5	1	0	5	0
23	766	0	10000	5	1	0	5	0
22	767	0	10000	5	1	0	5	0
22	768	0	10000	5	1	0	5	0
23	769	0	10000	5	1	0	5	0
24	770	0	10000	5	1	0	5	0
25	771	0	10000	5	1	0	5	0
23	772	0	10000	5	1	0	5	0
21	773	0	10000	5	1	0	5	0
21	774	0	10000	5	1	0	5	0
21	775	0	10000	5	1	0	5	0
23	776	0	10000	5	1	0	5	0
23	777	0	10000	5	1	0	5	0
23	778	0	10000	5	1	0	5	0
23	779	0	10000	5	1	0	5	0
23	780	0	10000	5	1	0	5	0
22	781	0	10000	5	1	0	5	0
24	782	0	10000	5	1	0	5	0
25	783	0	10000	5	1	0	5	0
25	784	0	10000	5	1	0	5	0
25	785	0	10000	5	1	0	5	0
24	786	0	10000	5	1	0	5	0
24	787	0	10000	5	1	0	5	0
24	788	0	10000	5	1	0	5	0
26	789	0	10000	5	1	0	5	0
26	790	0	10000	5	1	0	5	0
26	791	0	10000	5	1	0	5	0
24	792	0	10000	5	1	0	5	0
23	793	0	10000	5	1	0	5	0
