value	EMG	Stimulus	EMG_sensitivity	Total_Trial_Nr	practise	acq	probe_nr	Startle_Probe
125	1	1	10000	1	1	0	1	0
122	2	1	10000	1	1	0	1	0
118	3	1	10000	1	1	0	1	0
116	4	1	10000	1	1	0	1	0
112	5	1	10000	1	1	0	1	0
107	6	1	10000	1	1	0	1	0
104	7	1	10000	1	1	0	1	0
101	8	1	10000	1	1	0	1	0
97	9	1	10000	1	1	0	1	0
93	10	1	10000	1	1	0	1	0
89	11	1	10000	1	1	0	1	0
86	12	1	10000	1	1	0	1	0
82	13	1	10000	1	1	0	1	0
78	14	1	10000	1	1	0	1	0
75	15	1	10000	1	1	0	1	0
74	16	1	10000	1	1	0	1	0
71	17	1	10000	1	1	0	1	0
68	18	1	10000	1	1	0	1	0
65	19	1	10000	1	1	0	1	0
62	20	1	10000	1	1	0	1	0
59	21	1	10000	1	1	0	1	0
57	22	1	10000	1	1	0	1	0
55	23	1	10000	1	1	0	1	0
53	24	1	10000	1	1	0	1	0
52	25	1	10000	1	1	0	1	0
49	26	1	10000	1	1	0	1	0
48	27	1	10000	1	1	0	1	0
48	28	1	10000	1	1	0	1	0
46	29	1	10000	1	1	0	1	0
44	30	1	10000	1	1	0	1	0
43	31	1	10000	1	1	0	1	0
42	32	1	10000	1	1	0	1	0
40	33	1	10000	1	1	0	1	0
39	34	1	10000	1	1	0	1	0
40	35	1	10000	1	1	0	1	0
42	36	1	10000	1	1	0	1	0
41	37	1	10000	1	1	0	1	0
39	38	1	10000	1	1	0	1	0
37	39	1	10000	1	1	0	1	0
36	40	1	10000	1	1	0	1	0
34	41	1	10000	1	1	0	1	0
33	42	1	10000	1	1	0	1	0
32	43	1	10000	1	1	0	1	0
32	44	1	10000	1	1	0	1	0
33	45	1	10000	1	1	0	1	0
30	46	1	10000	1	1	0	1	0
29	47	1	10000	1	1	0	1	0
29	48	1	10000	1	1	0	1	0
29	49	1	10000	1	1	0	1	0
29	50	1	10000	1	1	0	1	0
28	51	1	10000	1	1	0	1	0
27	52	1	10000	1	1	0	1	0
27	53	1	10000	1	1	0	1	0
27	54	1	10000	1	1	0	1	0
27	55	1	10000	1	1	0	1	0
28	56	1	10000	1	1	0	1	0
27	57	1	10000	1	1	0	1	0
27	58	1	10000	1	1	0	1	0
26	59	1	10000	1	1	0	1	0
25	60	1	10000	1	1	0	1	0
26	61	1	10000	1	1	0	1	0
26	62	1	10000	1	1	0	1	0
26	63	1	10000	1	1	0	1	0
26	64	1	10000	1	1	0	1	0
27	65	1	10000	1	1	0	1	0
25	66	1	10000	1	1	0	1	0
24	67	1	10000	1	1	0	1	0
23	68	1	10000	1	1	0	1	0
23	69	1	10000	1	1	0	1	0
22	70	1	10000	1	1	0	1	0
21	71	1	10000	1	1	0	1	0
21	72	1	10000	1	1	0	1	0
20	73	1	10000	1	1	0	1	0
18	74	1	10000	1	1	0	1	0
18	75	1	10000	1	1	0	1	0
19	76	1	10000	1	1	0	1	0
19	77	1	10000	1	1	0	1	0
19	78	1	10000	1	1	0	1	0
18	79	1	10000	1	1	0	1	0
19	80	1	10000	1	1	0	1	0
18	81	1	10000	1	1	0	1	0
18	82	1	10000	1	1	0	1	0
20	83	1	10000	1	1	0	1	0
21	84	1	10000	1	1	0	1	0
23	85	1	10000	1	1	0	1	0
22	86	1	10000	1	1	0	1	0
21	87	1	10000	1	1	0	1	0
20	88	1	10000	1	1	0	1	0
20	89	1	10000	1	1	0	1	0
20	90	1	10000	1	1	0	1	0
20	91	1	10000	1	1	0	1	0
21	92	1	10000	1	1	0	1	0
20	93	1	10000	1	1	0	1	0
20	94	1	10000	1	1	0	1	0
19	95	1	10000	1	1	0	1	0
20	96	1	10000	1	1	0	1	0
21	97	1	10000	1	1	0	1	0
21	98	1	10000	1	1	0	1	0
21	99	1	10000	1	1	0	1	0
21	100	1	10000	1	1	0	1	0
21	101	1	10000	1	1	0	1	0
22	102	1	10000	1	1	0	1	0
23	103	1	10000	1	1	0	1	0
22	104	1	10000	1	1	0	1	0
23	105	1	10000	1	1	0	1	0
22	106	1	10000	1	1	0	1	0
21	107	1	10000	1	1	0	1	0
21	108	1	10000	1	1	0	1	0
20	109	1	10000	1	1	0	1	0
20	110	1	10000	1	1	0	1	0
21	111	1	10000	1	1	0	1	0
21	112	1	10000	1	1	0	1	0
21	113	1	10000	1	1	0	1	0
21	114	1	10000	1	1	0	1	0
20	115	1	10000	1	1	0	1	0
22	116	1	10000	1	1	0	1	0
22	117	1	10000	1	1	0	1	0
20	118	1	10000	1	1	0	1	0
19	119	1	10000	1	1	0	1	0
20	120	1	10000	1	1	0	1	0
18	121	1	10000	1	1	0	1	0
19	122	1	10000	1	1	0	1	0
19	123	1	10000	1	1	0	1	0
19	124	1	10000	1	1	0	1	0
19	125	1	10000	1	1	0	1	0
17	126	1	10000	1	1	0	1	0
16	127	1	10000	1	1	0	1	0
17	128	1	10000	1	1	0	1	0
17	129	1	10000	1	1	0	1	0
17	130	1	10000	1	1	0	1	0
18	131	1	10000	1	1	0	1	0
18	132	1	10000	1	1	0	1	0
16	133	1	10000	1	1	0	1	0
16	134	1	10000	1	1	0	1	0
15	135	1	10000	1	1	0	1	0
18	136	1	10000	1	1	0	1	0
17	137	1	10000	1	1	0	1	0
17	138	1	10000	1	1	0	1	0
16	139	1	10000	1	1	0	1	0
15	140	1	10000	1	1	0	1	0
15	141	1	10000	1	1	0	1	0
15	142	1	10000	1	1	0	1	0
16	143	1	10000	1	1	0	1	0
17	144	1	10000	1	1	0	1	0
18	145	1	10000	1	1	0	1	0
16	146	1	10000	1	1	0	1	0
16	147	1	10000	1	1	0	1	0
16	148	1	10000	1	1	0	1	0
16	149	1	10000	1	1	0	1	0
17	150	1	10000	1	1	0	1	0
18	151	1	10000	1	1	0	1	0
18	152	1	10000	1	1	0	1	0
18	153	1	10000	1	1	0	1	0
17	154	1	10000	1	1	0	1	0
16	155	1	10000	1	1	0	1	0
18	156	1	10000	1	1	0	1	0
17	157	1	10000	1	1	0	1	0
17	158	1	10000	1	1	0	1	0
16	159	1	10000	1	1	0	1	0
14	160	1	10000	1	1	0	1	0
15	161	1	10000	1	1	0	1	0
14	162	1	10000	1	1	0	1	0
14	163	1	10000	1	1	0	1	0
14	164	1	10000	1	1	0	1	0
15	165	1	10000	1	1	0	1	0
13	166	1	10000	1	1	0	1	0
12	167	1	10000	1	1	0	1	0
13	168	1	10000	1	1	0	1	0
13	169	1	10000	1	1	0	1	0
12	170	1	10000	1	1	0	1	0
12	171	1	10000	1	1	0	1	0
14	172	1	10000	1	1	0	1	0
15	173	1	10000	1	1	0	1	0
16	174	1	10000	1	1	0	1	0
15	175	1	10000	1	1	0	1	0
18	176	1	10000	1	1	0	1	0
19	177	1	10000	1	1	0	1	0
19	178	1	10000	1	1	0	1	0
19	179	1	10000	1	1	0	1	0
20	180	1	10000	1	1	0	1	0
22	181	1	10000	1	1	0	1	0
26	182	1	10000	1	1	0	1	0
31	183	1	10000	1	1	0	1	0
34	184	1	10000	1	1	0	1	0
38	185	1	10000	1	1	0	1	0
39	186	1	10000	1	1	0	1	0
39	187	1	10000	1	1	0	1	0
41	188	1	10000	1	1	0	1	0
44	189	1	10000	1	1	0	1	0
44	190	1	10000	1	1	0	1	0
44	191	1	10000	1	1	0	1	0
46	192	1	10000	1	1	0	1	0
47	193	1	10000	1	1	0	1	0
49	194	1	10000	1	1	0	1	0
50	195	1	10000	1	1	0	1	0
54	196	1	10000	1	1	0	1	0
55	197	1	10000	1	1	0	1	0
55	198	1	10000	1	1	0	1	0
55	199	1	10000	1	1	0	1	0
54	200	1	10000	1	1	0	1	0
52	201	1	10000	1	1	0	1	0
49	202	1	10000	1	1	0	1	0
48	203	1	10000	1	1	0	1	0
47	204	1	10000	1	1	0	1	0
46	205	1	10000	1	1	0	1	0
45	206	1	10000	1	1	0	1	0
46	207	1	10000	1	1	0	1	0
47	208	1	10000	1	1	0	1	0
48	209	1	10000	1	1	0	1	0
48	210	1	10000	1	1	0	1	0
48	211	1	10000	1	1	0	1	0
49	212	1	10000	1	1	0	1	0
50	213	1	10000	1	1	0	1	0
51	214	1	10000	1	1	0	1	0
49	215	1	10000	1	1	0	1	0
50	216	1	10000	1	1	0	1	0
49	217	1	10000	1	1	0	1	0
48	218	1	10000	1	1	0	1	0
49	219	1	10000	1	1	0	1	0
49	220	1	10000	1	1	0	1	0
51	221	1	10000	1	1	0	1	0
53	222	1	10000	1	1	0	1	0
52	223	1	10000	1	1	0	1	0
53	224	1	10000	1	1	0	1	0
53	225	1	10000	1	1	0	1	0
50	226	1	10000	1	1	0	1	0
48	227	1	10000	1	1	0	1	0
49	228	1	10000	1	1	0	1	0
48	229	1	10000	1	1	0	1	0
50	230	1	10000	1	1	0	1	0
51	231	1	10000	1	1	0	1	0
51	232	1	10000	1	1	0	1	0
50	233	1	10000	1	1	0	1	0
51	234	1	10000	1	1	0	1	0
51	235	1	10000	1	1	0	1	0
54	236	1	10000	1	1	0	1	0
55	237	1	10000	1	1	0	1	0
56	238	1	10000	1	1	0	1	0
59	239	1	10000	1	1	0	1	0
62	240	1	10000	1	1	0	1	0
66	241	1	10000	1	1	0	1	0
69	242	1	10000	1	1	0	1	0
73	243	1	10000	1	1	0	1	0
75	244	1	10000	1	1	0	1	0
75	245	1	10000	1	1	0	1	0
74	246	1	10000	1	1	0	1	0
73	247	1	10000	1	1	0	1	0
71	248	1	10000	1	1	0	1	0
71	249	1	10000	1	1	0	1	0
71	250	1	10000	1	1	0	1	0
71	251	1	10000	1	1	0	1	0
70	252	1	10000	1	1	0	1	0
68	253	1	10000	1	1	0	1	0
66	254	1	10000	1	1	0	1	0
64	255	1	10000	1	1	0	1	0
63	256	1	10000	1	1	0	1	0
60	257	1	10000	1	1	0	1	0
59	258	1	10000	1	1	0	1	0
56	259	1	10000	1	1	0	1	0
54	260	1	10000	1	1	0	1	0
52	261	1	10000	1	1	0	1	0
50	262	1	10000	1	1	0	1	0
48	263	1	10000	1	1	0	1	0
48	264	1	10000	1	1	0	1	0
48	265	1	10000	1	1	0	1	0
45	266	1	10000	1	1	0	1	0
45	267	1	10000	1	1	0	1	0
45	268	1	10000	1	1	0	1	0
45	269	1	10000	1	1	0	1	0
45	270	1	10000	1	1	0	1	0
44	271	1	10000	1	1	0	1	0
43	272	1	10000	1	1	0	1	0
42	273	1	10000	1	1	0	1	0
40	274	1	10000	1	1	0	1	0
39	275	1	10000	1	1	0	1	0
41	276	1	10000	1	1	0	1	0
42	277	1	10000	1	1	0	1	0
41	278	1	10000	1	1	0	1	0
41	279	1	10000	1	1	0	1	0
39	280	1	10000	1	1	0	1	0
38	281	1	10000	1	1	0	1	0
38	282	1	10000	1	1	0	1	0
39	283	1	10000	1	1	0	1	0
41	284	1	10000	1	1	0	1	0
44	285	1	10000	1	1	0	1	0
43	286	1	10000	1	1	0	1	0
44	287	1	10000	1	1	0	1	0
46	288	1	10000	1	1	0	1	0
46	289	1	10000	1	1	0	1	0
46	290	1	10000	1	1	0	1	0
45	291	1	10000	1	1	0	1	0
44	292	1	10000	1	1	0	1	0
43	293	1	10000	1	1	0	1	0
43	294	1	10000	1	1	0	1	0
42	295	1	10000	1	1	0	1	0
44	296	1	10000	1	1	0	1	0
47	297	1	10000	1	1	0	1	0
47	298	1	10000	1	1	0	1	0
48	299	1	10000	1	1	0	1	0
47	300	1	10000	1	1	0	1	0
46	301	1	10000	1	1	0	1	0
46	302	1	10000	1	1	0	1	0
48	303	1	10000	1	1	0	1	0
46	304	1	10000	1	1	0	1	0
47	305	1	10000	1	1	0	1	0
46	306	1	10000	1	1	0	1	0
46	307	1	10000	1	1	0	1	0
46	308	1	10000	1	1	0	1	0
46	309	1	10000	1	1	0	1	0
44	310	1	10000	1	1	0	1	0
45	311	1	10000	1	1	0	1	0
45	312	1	10000	1	1	0	1	0
43	313	1	10000	1	1	0	1	0
42	314	1	10000	1	1	0	1	0
41	315	1	10000	1	1	0	1	0
41	316	1	10000	1	1	0	1	0
40	317	1	10000	1	1	0	1	0
38	318	1	10000	1	1	0	1	0
36	319	1	10000	1	1	0	1	0
35	320	1	10000	1	1	0	1	0
34	321	1	10000	1	1	0	1	0
32	322	1	10000	1	1	0	1	0
32	323	1	10000	1	1	0	1	0
34	324	1	10000	1	1	0	1	0
35	325	1	10000	1	1	0	1	0
32	326	1	10000	1	1	0	1	0
30	327	1	10000	1	1	0	1	0
29	328	1	10000	1	1	0	1	0
29	329	1	10000	1	1	0	1	0
28	330	1	10000	1	1	0	1	0
26	331	1	10000	1	1	0	1	0
25	332	1	10000	1	1	0	1	0
24	333	1	10000	1	1	0	1	0
24	334	1	10000	1	1	0	1	0
24	335	1	10000	1	1	0	1	0
28	336	1	10000	1	1	0	1	0
27	337	1	10000	1	1	0	1	0
26	338	1	10000	1	1	0	1	0
26	339	1	10000	1	1	0	1	0
26	340	1	10000	1	1	0	1	0
28	341	1	10000	1	1	0	1	0
30	342	1	10000	1	1	0	1	0
29	343	1	10000	1	1	0	1	0
28	344	1	10000	1	1	0	1	0
29	345	1	10000	1	1	0	1	0
26	346	1	10000	1	1	0	1	0
27	347	1	10000	1	1	0	1	0
31	348	1	10000	1	1	0	1	0
35	349	1	10000	1	1	0	1	0
40	350	1	10000	1	1	0	1	0
45	351	1	10000	1	1	0	1	0
50	352	1	10000	1	1	0	1	0
55	353	1	10000	1	1	0	1	0
64	354	1	10000	1	1	0	1	0
73	355	1	10000	1	1	0	1	0
86	356	1	10000	1	1	0	1	0
98	357	1	10000	1	1	0	1	0
109	358	1	10000	1	1	0	1	0
121	359	1	10000	1	1	0	1	0
131	360	1	10000	1	1	0	1	0
138	361	1	10000	1	1	0	1	0
145	362	1	10000	1	1	0	1	0
153	363	1	10000	1	1	0	1	0
161	364	1	10000	1	1	0	1	0
172	365	1	10000	1	1	0	1	0
179	366	1	10000	1	1	0	1	0
186	367	1	10000	1	1	0	1	0
194	368	1	10000	1	1	0	1	0
200	369	1	10000	1	1	0	1	0
204	370	1	10000	1	1	0	1	0
210	371	1	10000	1	1	0	1	0
214	372	1	10000	1	1	0	1	0
217	373	1	10000	1	1	0	1	0
221	374	1	10000	1	1	0	1	0
226	375	1	10000	1	1	0	1	0
233	376	1	10000	1	1	0	1	0
237	377	1	10000	1	1	0	1	0
241	378	1	10000	1	1	0	1	0
242	379	1	10000	1	1	0	1	0
241	380	1	10000	1	1	0	1	0
239	381	1	10000	1	1	0	1	0
235	382	1	10000	1	1	0	1	0
234	383	1	10000	1	1	0	1	0
232	384	1	10000	1	1	0	1	0
230	385	1	10000	1	1	0	1	0
226	386	1	10000	1	1	0	1	0
224	387	1	10000	1	1	0	1	0
222	388	1	10000	1	1	0	1	0
219	389	1	10000	1	1	0	1	0
214	390	1	10000	1	1	0	1	0
206	391	1	10000	1	1	0	1	0
197	392	1	10000	1	1	0	1	0
188	393	1	10000	1	1	0	1	0
178	394	1	10000	1	1	0	1	0
171	395	1	10000	1	1	0	1	0
167	396	1	10000	1	1	0	1	0
161	397	1	10000	1	1	0	1	0
156	398	1	10000	1	1	0	1	0
155	399	1	10000	1	1	0	1	0
155	400	1	10000	1	1	0	1	0
154	401	1	10000	1	1	0	1	0
155	402	1	10000	1	1	0	1	0
156	403	1	10000	1	1	0	1	0
157	404	1	10000	1	1	0	1	0
161	405	1	10000	1	1	0	1	0
161	406	1	10000	1	1	0	1	0
164	407	1	10000	1	1	0	1	0
169	408	1	10000	1	1	0	1	0
175	409	1	10000	1	1	0	1	0
183	410	1	10000	1	1	0	1	0
192	411	1	10000	1	1	0	1	0
201	412	1	10000	1	1	0	1	0
208	413	1	10000	1	1	0	1	0
216	414	1	10000	1	1	0	1	0
222	415	1	10000	1	1	0	1	0
232	416	1	10000	1	1	0	1	0
240	417	1	10000	1	1	0	1	0
246	418	1	10000	1	1	0	1	0
253	419	1	10000	1	1	0	1	0
261	420	1	10000	1	1	0	1	0
268	421	1	10000	1	1	0	1	0
274	422	1	10000	1	1	0	1	0
283	423	1	10000	1	1	0	1	0
288	424	1	10000	1	1	0	1	0
294	425	1	10000	1	1	0	1	0
297	426	1	10000	1	1	0	1	0
300	427	1	10000	1	1	0	1	0
304	428	1	10000	1	1	0	1	0
308	429	1	10000	1	1	0	1	0
309	430	1	10000	1	1	0	1	0
308	431	1	10000	1	1	0	1	0
308	432	1	10000	1	1	0	1	0
307	433	1	10000	1	1	0	1	0
309	434	1	10000	1	1	0	1	0
309	435	1	10000	1	1	0	1	0
310	436	1	10000	1	1	0	1	0
308	437	1	10000	1	1	0	1	0
306	438	1	10000	1	1	0	1	0
302	439	1	10000	1	1	0	1	0
298	440	1	10000	1	1	0	1	0
297	441	1	10000	1	1	0	1	0
292	442	1	10000	1	1	0	1	0
288	443	1	10000	1	1	0	1	0
286	444	1	10000	1	1	0	1	0
281	445	1	10000	1	1	0	1	0
273	446	1	10000	1	1	0	1	0
267	447	1	10000	1	1	0	1	0
261	448	1	10000	1	1	0	1	0
255	449	1	10000	1	1	0	1	0
250	450	1	10000	1	1	0	1	0
243	451	1	10000	1	1	0	1	0
237	452	1	10000	1	1	0	1	0
231	453	1	10000	1	1	0	1	0
222	454	1	10000	1	1	0	1	0
215	455	1	10000	1	1	0	1	0
212	456	1	10000	1	1	0	1	0
206	457	1	10000	1	1	0	1	0
199	458	1	10000	1	1	0	1	0
193	459	1	10000	1	1	0	1	0
187	460	1	10000	1	1	0	1	0
180	461	1	10000	1	1	0	1	0
172	462	1	10000	1	1	0	1	0
165	463	1	10000	1	1	0	1	0
158	464	1	10000	1	1	0	1	0
152	465	1	10000	1	1	0	1	0
144	466	1	10000	1	1	0	1	0
139	467	1	10000	1	1	0	1	0
136	468	1	10000	1	1	0	1	0
131	469	1	10000	1	1	0	1	0
128	470	1	10000	1	1	0	1	0
125	471	1	10000	1	1	0	1	0
120	472	1	10000	1	1	0	1	0
116	473	1	10000	1	1	0	1	0
113	474	1	10000	1	1	0	1	0
109	475	1	10000	1	1	0	1	0
107	476	1	10000	1	1	0	1	0
104	477	1	10000	1	1	0	1	0
99	478	1	10000	1	1	0	1	0
96	479	1	10000	1	1	0	1	0
93	480	1	10000	1	1	0	1	0
90	481	1	10000	1	1	0	1	0
87	482	1	10000	1	1	0	1	0
85	483	1	10000	1	1	0	1	0
81	484	1	10000	1	1	0	1	0
79	485	1	10000	1	1	0	1	0
74	486	1	10000	1	1	0	1	0
70	487	1	10000	1	1	0	1	0
68	488	1	10000	1	1	0	1	0
65	489	1	10000	1	1	0	1	0
62	490	1	10000	1	1	0	1	0
60	491	1	10000	1	1	0	1	0
58	492	1	10000	1	1	0	1	0
55	493	1	10000	1	1	0	1	0
52	494	1	10000	1	1	0	1	0
50	495	1	10000	1	1	0	1	0
50	496	1	10000	1	1	0	1	0
49	497	1	10000	1	1	0	1	0
47	498	1	10000	1	1	0	1	0
45	499	1	10000	1	1	0	1	0
43	500	1	10000	1	1	0	1	0
42	538	1	10000	1	1	0	1	1
39	539	1	10000	1	1	0	1	1
40	540	1	10000	1	1	0	1	1
41	541	1	10000	1	1	0	1	1
41	542	1	10000	1	1	0	1	1
40	543	1	10000	1	1	0	1	1
41	544	1	10000	1	1	0	1	1
40	545	1	10000	1	1	0	1	1
40	546	1	10000	1	1	0	1	1
39	547	1	10000	1	1	0	1	1
37	548	1	10000	1	1	0	1	1
37	549	1	10000	1	1	0	1	1
36	550	1	10000	1	1	0	1	1
34	551	1	10000	1	1	0	1	1
32	552	1	10000	1	1	0	1	1
34	553	1	10000	1	1	0	1	1
33	554	1	10000	1	1	0	1	1
32	555	1	10000	1	1	0	1	1
32	556	1	10000	1	1	0	1	1
30	557	1	10000	1	1	0	1	1
30	558	1	10000	1	1	0	1	1
29	559	1	10000	1	1	0	1	1
28	560	1	10000	1	1	0	1	1
27	561	1	10000	1	1	0	1	1
27	562	1	10000	1	1	0	1	1
25	563	1	10000	1	1	0	1	1
24	564	1	10000	1	1	0	1	1
24	565	1	10000	1	1	0	1	1
23	566	1	10000	1	1	0	1	1
22	567	1	10000	1	1	0	1	1
23	568	1	10000	1	1	0	1	1
23	569	1	10000	1	1	0	1	1
22	570	1	10000	1	1	0	1	1
23	571	1	10000	1	1	0	1	1
24	572	1	10000	1	1	0	1	1
25	573	1	10000	1	1	0	1	1
25	574	1	10000	1	1	0	1	1
24	575	1	10000	1	1	0	1	1
24	543	1	10000	1	1	0	1	1
24	544	1	10000	1	1	0	1	1
23	545	1	10000	1	1	0	1	1
22	546	1	10000	1	1	0	1	1
24	547	1	10000	1	1	0	1	1
26	548	1	10000	1	1	0	1	1
28	545	1	10000	1	1	0	1	1
28	546	1	10000	1	1	0	1	1
28	547	1	10000	1	1	0	1	1
29	548	1	10000	1	1	0	1	1
28	549	1	10000	1	1	0	1	1
27	550	1	10000	1	1	0	1	1
26	551	1	10000	1	1	0	1	0
26	552	1	10000	1	1	0	1	0
26	553	1	10000	1	1	0	1	0
26	554	1	10000	1	1	0	1	0
26	555	1	10000	1	1	0	1	0
27	556	1	10000	1	1	0	1	0
26	557	1	10000	1	1	0	1	0
25	558	1	10000	1	1	0	1	0
24	559	1	10000	1	1	0	1	0
23	560	1	10000	1	1	0	1	0
22	561	1	10000	1	1	0	1	0
20	562	1	10000	1	1	0	1	0
21	563	1	10000	1	1	0	1	0
21	564	1	10000	1	1	0	1	0
22	565	1	10000	1	1	0	1	0
22	566	1	10000	1	1	0	1	0
23	567	1	10000	1	1	0	1	0
23	568	1	10000	1	1	0	1	0
23	569	1	10000	1	1	0	1	0
23	570	1	10000	1	1	0	1	0
22	571	1	10000	1	1	0	1	0
23	572	1	10000	1	1	0	1	0
22	573	1	10000	1	1	0	1	0
21	574	1	10000	1	1	0	1	0
20	575	1	10000	1	1	0	1	0
22	576	1	10000	1	1	0	1	0
22	577	1	10000	1	1	0	1	0
22	578	1	10000	1	1	0	1	0
23	579	1	10000	1	1	0	1	0
22	580	1	10000	1	1	0	1	0
22	581	1	10000	1	1	0	1	0
22	582	1	10000	1	1	0	1	0
23	583	1	10000	1	1	0	1	0
24	584	1	10000	1	1	0	1	0
24	585	1	10000	1	1	0	1	0
21	586	1	10000	1	1	0	1	0
20	587	1	10000	1	1	0	1	0
20	588	1	10000	1	1	0	1	0
20	589	1	10000	1	1	0	1	0
19	590	1	10000	1	1	0	1	0
21	591	1	10000	1	1	0	1	0
22	592	1	10000	1	1	0	1	0
22	593	1	10000	1	1	0	1	0
22	594	1	10000	1	1	0	1	0
21	595	1	10000	1	1	0	1	0
22	596	1	10000	1	1	0	1	0
22	597	1	10000	1	1	0	1	0
21	598	1	10000	1	1	0	1	0
21	599	1	10000	1	1	0	1	0
21	600	1	10000	1	1	0	1	0
23	601	1	10000	1	1	0	1	0
23	602	1	10000	1	1	0	1	0
23	603	1	10000	1	1	0	1	0
23	604	1	10000	1	1	0	1	0
24	605	1	10000	1	1	0	1	0
21	606	1	10000	1	1	0	1	0
20	607	1	10000	1	1	0	1	0
19	608	1	10000	1	1	0	1	0
19	609	1	10000	1	1	0	1	0
19	610	1	10000	1	1	0	1	0
20	611	1	10000	1	1	0	1	0
20	612	1	10000	1	1	0	1	0
18	613	1	10000	1	1	0	1	0
18	614	1	10000	1	1	0	1	0
18	615	1	10000	1	1	0	1	0
20	616	1	10000	1	1	0	1	0
20	617	1	10000	1	1	0	1	0
19	618	1	10000	1	1	0	1	0
20	619	1	10000	1	1	0	1	0
21	620	1	10000	1	1	0	1	0
21	621	1	10000	1	1	0	1	0
20	622	1	10000	1	1	0	1	0
21	623	1	10000	1	1	0	1	0
22	624	1	10000	1	1	0	1	0
23	625	1	10000	1	1	0	1	0
20	626	1	10000	1	1	0	1	0
25	627	1	10000	1	1	0	1	0
31	628	1	10000	1	1	0	1	0
32	629	1	10000	1	1	0	1	0
37	630	1	10000	1	1	0	1	0
40	631	1	10000	1	1	0	1	0
46	632	1	10000	1	1	0	1	0
50	633	1	10000	1	1	0	1	0
63	634	1	10000	1	1	0	1	0
68	635	1	10000	1	1	0	1	0
69	636	1	10000	1	1	0	1	0
75	637	1	10000	1	1	0	1	0
87	638	1	10000	1	1	0	1	0
86	639	1	10000	1	1	0	1	0
87	640	1	10000	1	1	0	1	0
90	641	1	10000	1	1	0	1	0
89	642	1	10000	1	1	0	1	0
90	643	1	10000	1	1	0	1	0
102	644	1	10000	1	1	0	1	0
105	645	1	10000	1	1	0	1	0
111	646	1	10000	1	1	0	1	0
133	647	1	10000	1	1	0	1	0
171	648	1	10000	1	1	0	1	0
209	649	1	10000	1	1	0	1	0
240	650	1	10000	1	1	0	1	0
242	651	1	10000	1	1	0	1	0
236	652	1	10000	1	1	0	1	0
234	653	1	10000	1	1	0	1	0
234	654	1	10000	1	1	0	1	0
254	655	1	10000	1	1	0	1	0
288	656	1	10000	1	1	0	1	0
297	657	1	10000	1	1	0	1	0
348	658	1	10000	1	1	0	1	0
415	659	1	10000	1	1	0	1	0
467	660	1	10000	1	1	0	1	0
541	661	1	10000	1	1	0	1	0
597	662	1	10000	1	1	0	1	0
587	663	1	10000	1	1	0	1	0
632	664	1	10000	1	1	0	1	0
745	665	1	10000	1	1	0	1	0
840	666	1	10000	1	1	0	1	0
866	667	1	10000	1	1	0	1	0
873	668	1	10000	1	1	0	1	0
872	669	1	10000	1	1	0	1	0
876	670	1	10000	1	1	0	1	0
887	671	1	10000	1	1	0	1	0
887	672	1	10000	1	1	0	1	0
866	673	1	10000	1	1	0	1	0
840	674	1	10000	1	1	0	1	0
815	675	1	10000	1	1	0	1	0
783	676	1	10000	1	1	0	1	0
750	677	1	10000	1	1	0	1	0
732	678	1	10000	1	1	0	1	0
731	679	1	10000	1	1	0	1	0
713	680	1	10000	1	1	0	1	0
681	681	1	10000	1	1	0	1	0
649	682	1	10000	1	1	0	1	0
620	683	1	10000	1	1	0	1	0
594	684	1	10000	1	1	0	1	0
571	685	1	10000	1	1	0	1	0
548	686	1	10000	1	1	0	1	0
530	687	1	10000	1	1	0	1	0
514	688	1	10000	1	1	0	1	0
497	689	1	10000	1	1	0	1	0
476	690	1	10000	1	1	0	1	0
459	691	1	10000	1	1	0	1	0
452	692	1	10000	1	1	0	1	0
435	693	1	10000	1	1	0	1	0
417	694	1	10000	1	1	0	1	0
415	695	1	10000	1	1	0	1	0
422	696	1	10000	1	1	0	1	0
411	697	1	10000	1	1	0	1	0
410	698	1	10000	1	1	0	1	0
402	699	1	10000	1	1	0	1	0
388	700	1	10000	1	1	0	1	0
378	701	1	10000	1	1	0	1	0
368	702	1	10000	1	1	0	1	0
361	703	1	10000	1	1	0	1	0
354	704	1	10000	1	1	0	1	0
344	705	1	10000	1	1	0	1	0
329	706	1	10000	1	1	0	1	0
314	707	1	10000	1	1	0	1	0
301	708	1	10000	1	1	0	1	0
290	709	1	10000	1	1	0	1	0
280	710	1	10000	1	1	0	1	0
268	711	1	10000	1	1	0	1	0
256	712	1	10000	1	1	0	1	0
246	713	1	10000	1	1	0	1	0
234	714	1	10000	1	1	0	1	0
223	715	1	10000	1	1	0	1	0
218	716	1	10000	1	1	0	1	0
209	717	1	10000	1	1	0	1	0
199	718	1	10000	1	1	0	1	0
190	719	1	10000	1	1	0	1	0
184	720	1	10000	1	1	0	1	0
178	721	1	10000	1	1	0	1	0
171	722	1	10000	1	1	0	1	0
164	723	1	10000	1	1	0	1	0
158	724	1	10000	1	1	0	1	0
153	725	1	10000	1	1	0	1	0
147	726	1	10000	1	1	0	1	0
147	727	1	10000	1	1	0	1	0
148	728	1	10000	1	1	0	1	0
149	729	1	10000	1	1	0	1	0
149	730	1	10000	1	1	0	1	0
149	731	1	10000	1	1	0	1	0
148	732	1	10000	1	1	0	1	0
145	733	1	10000	1	1	0	1	0
139	734	1	10000	1	1	0	1	0
135	735	1	10000	1	1	0	1	0
137	736	1	10000	1	1	0	1	0
140	737	1	10000	1	1	0	1	0
140	738	1	10000	1	1	0	1	0
140	739	1	10000	1	1	0	1	0
140	740	1	10000	1	1	0	1	0
137	741	1	10000	1	1	0	1	0
134	742	1	10000	1	1	0	1	0
131	743	1	10000	1	1	0	1	0
129	744	1	10000	1	1	0	1	0
125	745	1	10000	1	1	0	1	0
118	746	1	10000	1	1	0	1	0
114	747	1	10000	1	1	0	1	0
111	748	1	10000	1	1	0	1	0
108	749	1	10000	1	1	0	1	0
105	750	1	10000	1	1	0	1	0
102	751	1	10000	1	1	0	1	0
99	752	1	10000	1	1	0	1	0
97	753	1	10000	1	1	0	1	0
97	754	1	10000	1	1	0	1	0
97	755	1	10000	1	1	0	1	0
102	756	1	10000	1	1	0	1	0
106	757	1	10000	1	1	0	1	0
108	758	1	10000	1	1	0	1	0
112	759	1	10000	1	1	0	1	0
112	760	1	10000	1	1	0	1	0
114	761	1	10000	1	1	0	1	0
114	762	1	10000	1	1	0	1	0
114	763	1	10000	1	1	0	1	0
112	764	1	10000	1	1	0	1	0
108	765	1	10000	1	1	0	1	0
101	766	1	10000	1	1	0	1	0
97	767	1	10000	1	1	0	1	0
93	768	1	10000	1	1	0	1	0
90	769	1	10000	1	1	0	1	0
87	770	1	10000	1	1	0	1	0
83	771	1	10000	1	1	0	1	0
79	772	1	10000	1	1	0	1	0
76	773	1	10000	1	1	0	1	0
75	774	1	10000	1	1	0	1	0
73	775	1	10000	1	1	0	1	0
77	776	1	10000	1	1	0	1	0
77	777	1	10000	1	1	0	1	0
76	778	1	10000	1	1	0	1	0
76	779	1	10000	1	1	0	1	0
75	780	1	10000	1	1	0	1	0
73	781	1	10000	1	1	0	1	0
70	782	1	10000	1	1	0	1	0
69	783	1	10000	1	1	0	1	0
68	784	1	10000	1	1	0	1	0
68	785	1	10000	1	1	0	1	0
66	786	1	10000	1	1	0	1	0
66	787	1	10000	1	1	0	1	0
65	788	1	10000	1	1	0	1	0
64	789	1	10000	1	1	0	1	0
64	790	1	10000	1	1	0	1	0
64	791	1	10000	1	1	0	1	0
65	792	1	10000	1	1	0	1	0
64	793	1	10000	1	1	0	1	0
62	794	1	10000	1	1	0	1	0
61	795	1	10000	1	1	0	1	0
62	796	1	10000	1	1	0	1	0
61	797	1	10000	1	1	0	1	0
59	798	1	10000	1	1	0	1	0
57	799	1	10000	1	1	0	1	0
55	800	1	10000	1	1	0	1	0
53	801	1	10000	1	1	0	1	0
52	802	1	10000	1	1	0	1	0
53	803	1	10000	1	1	0	1	0
53	804	1	10000	1	1	0	1	0
53	805	1	10000	1	1	0	1	0
51	806	1	10000	1	1	0	1	0
54	807	1	10000	1	1	0	1	0
56	808	1	10000	1	1	0	1	0
59	809	1	10000	1	1	0	1	0
61	810	1	10000	1	1	0	1	0
62	811	1	10000	1	1	0	1	0
61	812	1	10000	1	1	0	1	0
59	813	1	10000	1	1	0	1	0
56	814	1	10000	1	1	0	1	0
53	815	1	10000	1	1	0	1	0
54	816	1	10000	1	1	0	1	0
51	817	1	10000	1	1	0	1	0
49	818	1	10000	1	1	0	1	0
46	819	1	10000	1	1	0	1	0
45	820	1	10000	1	1	0	1	0
44	821	1	10000	1	1	0	1	0
43	822	1	10000	1	1	0	1	0
41	823	1	10000	1	1	0	1	0
41	824	1	10000	1	1	0	1	0
41	825	1	10000	1	1	0	1	0
40	826	1	10000	1	1	0	1	0
42	827	1	10000	1	1	0	1	0
47	828	1	10000	1	1	0	1	0
54	829	1	10000	1	1	0	1	0
59	830	1	10000	1	1	0	1	0
62	831	1	10000	1	1	0	1	0
64	832	1	10000	1	1	0	1	0
63	833	1	10000	1	1	0	1	0
61	834	1	10000	1	1	0	1	0
61	835	1	10000	1	1	0	1	0
64	836	1	10000	1	1	0	1	0
63	837	1	10000	1	1	0	1	0
60	838	1	10000	1	1	0	1	0
59	839	1	10000	1	1	0	1	0
57	840	1	10000	1	1	0	1	0
54	841	1	10000	1	1	0	1	0
52	842	1	10000	1	1	0	1	0
50	843	1	10000	1	1	0	1	0
49	844	1	10000	1	1	0	1	0
50	845	1	10000	1	1	0	1	0
50	846	1	10000	1	1	0	1	0
50	847	1	10000	1	1	0	1	0
49	848	1	10000	1	1	0	1	0
48	849	1	10000	1	1	0	1	0
47	850	1	10000	1	1	0	1	0
45	851	1	10000	1	1	0	1	0
44	852	1	10000	1	1	0	1	0
42	853	1	10000	1	1	0	1	0
40	854	1	10000	1	1	0	1	0
39	855	1	10000	1	1	0	1	0
42	856	1	10000	1	1	0	1	0
44	857	1	10000	1	1	0	1	0
45	858	1	10000	1	1	0	1	0
48	859	1	10000	1	1	0	1	0
51	860	1	10000	1	1	0	1	0
55	861	1	10000	1	1	0	1	0
59	862	1	10000	1	1	0	1	0
60	863	1	10000	1	1	0	1	0
60	864	1	10000	1	1	0	1	0
58	865	1	10000	1	1	0	1	0
54	866	1	10000	1	1	0	1	0
53	867	1	10000	1	1	0	1	0
51	868	1	10000	1	1	0	1	0
50	869	1	10000	1	1	0	1	0
49	870	1	10000	1	1	0	1	0
50	871	1	10000	1	1	0	1	0
50	872	1	10000	1	1	0	1	0
50	873	1	10000	1	1	0	1	0
51	874	1	10000	1	1	0	1	0
54	875	1	10000	1	1	0	1	0
58	876	1	10000	1	1	0	1	0
60	877	1	10000	1	1	0	1	0
60	878	1	10000	1	1	0	1	0
61	879	1	10000	1	1	0	1	0
61	880	1	10000	1	1	0	1	0
61	881	1	10000	1	1	0	1	0
59	882	1	10000	1	1	0	1	0
57	883	1	10000	1	1	0	1	0
56	884	1	10000	1	1	0	1	0
56	885	1	10000	1	1	0	1	0
54	886	1	10000	1	1	0	1	0
52	887	1	10000	1	1	0	1	0
50	888	1	10000	1	1	0	1	0
49	889	1	10000	1	1	0	1	0
48	890	1	10000	1	1	0	1	0
47	891	1	10000	1	1	0	1	0
46	892	1	10000	1	1	0	1	0
44	893	1	10000	1	1	0	1	0
44	894	1	10000	1	1	0	1	0
44	895	1	10000	1	1	0	1	0
45	896	1	10000	1	1	0	1	0
45	897	1	10000	1	1	0	1	0
45	898	1	10000	1	1	0	1	0
46	899	1	10000	1	1	0	1	0
49	900	1	10000	1	1	0	1	0
51	901	1	10000	1	1	0	1	0
52	902	1	10000	1	1	0	1	0
52	903	1	10000	1	1	0	1	0
51	904	1	10000	1	1	0	1	0
52	905	1	10000	1	1	0	1	0
53	906	1	10000	1	1	0	1	0
53	907	1	10000	1	1	0	1	0
55	908	1	10000	1	1	0	1	0
59	909	1	10000	1	1	0	1	0
59	910	1	10000	1	1	0	1	0
57	911	1	10000	1	1	0	1	0
57	912	1	10000	1	1	0	1	0
56	913	1	10000	1	1	0	1	0
53	914	1	10000	1	1	0	1	0
51	915	1	10000	1	1	0	1	0
50	916	1	10000	1	1	0	1	0
49	917	1	10000	1	1	0	1	0
48	918	1	10000	1	1	0	1	0
50	919	1	10000	1	1	0	1	0
52	920	1	10000	1	1	0	1	0
55	921	1	10000	1	1	0	1	0
57	922	1	10000	1	1	0	1	0
59	923	1	10000	1	1	0	1	0
60	924	1	10000	1	1	0	1	0
61	925	1	10000	1	1	0	1	0
59	926	1	10000	1	1	0	1	0
58	927	1	10000	1	1	0	1	0
57	928	1	10000	1	1	0	1	0
55	929	1	10000	1	1	0	1	0
53	930	1	10000	1	1	0	1	0
52	931	1	10000	1	1	0	1	0
52	932	1	10000	1	1	0	1	0
51	933	1	10000	1	1	0	1	0
49	934	1	10000	1	1	0	1	0
47	935	1	10000	1	1	0	1	0
48	936	1	10000	1	1	0	1	0
46	937	1	10000	1	1	0	1	0
45	938	1	10000	1	1	0	1	0
45	939	1	10000	1	1	0	1	0
46	940	1	10000	1	1	0	1	0
46	941	1	10000	1	1	0	1	0
43	942	1	10000	1	1	0	1	0
44	943	1	10000	1	1	0	1	0
46	944	1	10000	1	1	0	1	0
51	945	1	10000	1	1	0	1	0
51	946	1	10000	1	1	0	1	0
54	947	1	10000	1	1	0	1	0
58	948	1	10000	1	1	0	1	0
61	949	1	10000	1	1	0	1	0
65	950	1	10000	1	1	0	1	0
71	951	1	10000	1	1	0	1	0
76	952	1	10000	1	1	0	1	0
77	953	1	10000	1	1	0	1	0
78	954	1	10000	1	1	0	1	0
77	955	1	10000	1	1	0	1	0
78	956	1	10000	1	1	0	1	0
76	957	1	10000	1	1	0	1	0
74	958	1	10000	1	1	0	1	0
76	959	1	10000	1	1	0	1	0
78	960	1	10000	1	1	0	1	0
82	961	1	10000	1	1	0	1	0
86	962	1	10000	1	1	0	1	0
92	963	1	10000	1	1	0	1	0
96	964	1	10000	1	1	0	1	0
103	965	1	10000	1	1	0	1	0
108	966	1	10000	1	1	0	1	0
114	967	1	10000	1	1	0	1	0
120	968	1	10000	1	1	0	1	0
126	969	1	10000	1	1	0	1	0
131	970	1	10000	1	1	0	1	0
134	971	1	10000	1	1	0	1	0
137	972	1	10000	1	1	0	1	0
136	973	1	10000	1	1	0	1	0
132	974	1	10000	1	1	0	1	0
127	975	1	10000	1	1	0	1	0
126	976	1	10000	1	1	0	1	0
120	977	1	10000	1	1	0	1	0
116	978	1	10000	1	1	0	1	0
113	979	1	10000	1	1	0	1	0
112	980	1	10000	1	1	0	1	0
111	981	1	10000	1	1	0	1	0
107	982	1	10000	1	1	0	1	0
103	983	1	10000	1	1	0	1	0
99	984	1	10000	1	1	0	1	0
95	985	1	10000	1	1	0	1	0
91	986	1	10000	1	1	0	1	0
90	987	1	10000	1	1	0	1	0
89	988	1	10000	1	1	0	1	0
88	989	1	10000	1	1	0	1	0
88	990	1	10000	1	1	0	1	0
87	991	1	10000	1	1	0	1	0
87	992	1	10000	1	1	0	1	0
85	993	1	10000	1	1	0	1	0
86	994	1	10000	1	1	0	1	0
88	995	1	10000	1	1	0	1	0
93	996	1	10000	1	1	0	1	0
95	997	1	10000	1	1	0	1	0
98	998	1	10000	1	1	0	1	0
100	999	1	10000	1	1	0	1	0
102	1000	1	10000	1	1	0	1	0
88	2	0	10000	2	1	0	2	0
87	3	0	10000	2	1	0	2	0
86	4	0	10000	2	1	0	2	0
84	5	0	10000	2	1	0	2	0
80	6	0	10000	2	1	0	2	0
76	7	0	10000	2	1	0	2	0
75	8	0	10000	2	1	0	2	0
72	9	0	10000	2	1	0	2	0
68	10	0	10000	2	1	0	2	0
65	11	0	10000	2	1	0	2	0
63	12	0	10000	2	1	0	2	0
60	13	0	10000	2	1	0	2	0
58	14	0	10000	2	1	0	2	0
57	15	0	10000	2	1	0	2	0
57	16	0	10000	2	1	0	2	0
56	17	0	10000	2	1	0	2	0
54	18	0	10000	2	1	0	2	0
54	19	0	10000	2	1	0	2	0
54	20	0	10000	2	1	0	2	0
55	21	0	10000	2	1	0	2	0
56	22	0	10000	2	1	0	2	0
56	23	0	10000	2	1	0	2	0
56	24	0	10000	2	1	0	2	0
56	25	0	10000	2	1	0	2	0
56	26	0	10000	2	1	0	2	0
56	27	0	10000	2	1	0	2	0
59	28	0	10000	2	1	0	2	0
60	29	0	10000	2	1	0	2	0
61	30	0	10000	2	1	0	2	0
61	31	0	10000	2	1	0	2	0
60	32	0	10000	2	1	0	2	0
59	33	0	10000	2	1	0	2	0
58	34	0	10000	2	1	0	2	0
59	35	0	10000	2	1	0	2	0
58	36	0	10000	2	1	0	2	0
58	37	0	10000	2	1	0	2	0
56	38	0	10000	2	1	0	2	0
57	39	0	10000	2	1	0	2	0
58	40	0	10000	2	1	0	2	0
59	41	0	10000	2	1	0	2	0
60	42	0	10000	2	1	0	2	0
60	43	0	10000	2	1	0	2	0
60	44	0	10000	2	1	0	2	0
61	45	0	10000	2	1	0	2	0
62	46	0	10000	2	1	0	2	0
61	47	0	10000	2	1	0	2	0
64	48	0	10000	2	1	0	2	0
63	49	0	10000	2	1	0	2	0
62	50	0	10000	2	1	0	2	0
61	51	0	10000	2	1	0	2	0
60	52	0	10000	2	1	0	2	0
59	53	0	10000	2	1	0	2	0
58	54	0	10000	2	1	0	2	0
59	55	0	10000	2	1	0	2	0
61	56	0	10000	2	1	0	2	0
60	57	0	10000	2	1	0	2	0
56	58	0	10000	2	1	0	2	0
54	59	0	10000	2	1	0	2	0
52	60	0	10000	2	1	0	2	0
51	61	0	10000	2	1	0	2	0
51	62	0	10000	2	1	0	2	0
52	63	0	10000	2	1	0	2	0
51	64	0	10000	2	1	0	2	0
49	65	0	10000	2	1	0	2	0
48	66	0	10000	2	1	0	2	0
46	67	0	10000	2	1	0	2	0
47	68	0	10000	2	1	0	2	0
47	69	0	10000	2	1	0	2	0
46	70	0	10000	2	1	0	2	0
44	71	0	10000	2	1	0	2	0
43	72	0	10000	2	1	0	2	0
41	73	0	10000	2	1	0	2	0
39	74	0	10000	2	1	0	2	0
38	75	0	10000	2	1	0	2	0
38	76	0	10000	2	1	0	2	0
38	77	0	10000	2	1	0	2	0
34	78	0	10000	2	1	0	2	0
34	79	0	10000	2	1	0	2	0
34	80	0	10000	2	1	0	2	0
34	81	0	10000	2	1	0	2	0
33	82	0	10000	2	1	0	2	0
32	83	0	10000	2	1	0	2	0
33	84	0	10000	2	1	0	2	0
33	85	0	10000	2	1	0	2	0
32	86	0	10000	2	1	0	2	0
32	87	0	10000	2	1	0	2	0
35	88	0	10000	2	1	0	2	0
35	89	0	10000	2	1	0	2	0
35	90	0	10000	2	1	0	2	0
35	91	0	10000	2	1	0	2	0
34	92	0	10000	2	1	0	2	0
34	93	0	10000	2	1	0	2	0
33	94	0	10000	2	1	0	2	0
32	95	0	10000	2	1	0	2	0
32	96	0	10000	2	1	0	2	0
31	97	0	10000	2	1	0	2	0
28	98	0	10000	2	1	0	2	0
27	99	0	10000	2	1	0	2	0
27	100	0	10000	2	1	0	2	0
26	101	0	10000	2	1	0	2	0
25	102	0	10000	2	1	0	2	0
26	103	0	10000	2	1	0	2	0
27	104	0	10000	2	1	0	2	0
27	105	0	10000	2	1	0	2	0
28	106	0	10000	2	1	0	2	0
27	107	0	10000	2	1	0	2	0
29	108	0	10000	2	1	0	2	0
28	109	0	10000	2	1	0	2	0
27	110	0	10000	2	1	0	2	0
26	111	0	10000	2	1	0	2	0
26	112	0	10000	2	1	0	2	0
25	113	0	10000	2	1	0	2	0
24	114	0	10000	2	1	0	2	0
25	115	0	10000	2	1	0	2	0
27	116	0	10000	2	1	0	2	0
29	117	0	10000	2	1	0	2	0
26	118	0	10000	2	1	0	2	0
25	119	0	10000	2	1	0	2	0
25	120	0	10000	2	1	0	2	0
25	121	0	10000	2	1	0	2	0
25	122	0	10000	2	1	0	2	0
24	123	0	10000	2	1	0	2	0
24	124	0	10000	2	1	0	2	0
23	125	0	10000	2	1	0	2	0
25	126	0	10000	2	1	0	2	0
27	127	0	10000	2	1	0	2	0
31	128	0	10000	2	1	0	2	0
33	129	0	10000	2	1	0	2	0
34	130	0	10000	2	1	0	2	0
32	131	0	10000	2	1	0	2	0
32	132	0	10000	2	1	0	2	0
33	133	0	10000	2	1	0	2	0
32	134	0	10000	2	1	0	2	0
33	135	0	10000	2	1	0	2	0
35	136	0	10000	2	1	0	2	0
36	137	0	10000	2	1	0	2	0
36	138	0	10000	2	1	0	2	0
41	139	0	10000	2	1	0	2	0
45	140	0	10000	2	1	0	2	0
47	141	0	10000	2	1	0	2	0
45	142	0	10000	2	1	0	2	0
44	143	0	10000	2	1	0	2	0
46	144	0	10000	2	1	0	2	0
46	145	0	10000	2	1	0	2	0
45	146	0	10000	2	1	0	2	0
43	147	0	10000	2	1	0	2	0
44	148	0	10000	2	1	0	2	0
44	149	0	10000	2	1	0	2	0
42	150	0	10000	2	1	0	2	0
41	151	0	10000	2	1	0	2	0
42	152	0	10000	2	1	0	2	0
41	153	0	10000	2	1	0	2	0
41	154	0	10000	2	1	0	2	0
40	155	0	10000	2	1	0	2	0
41	156	0	10000	2	1	0	2	0
40	157	0	10000	2	1	0	2	0
36	158	0	10000	2	1	0	2	0
35	159	0	10000	2	1	0	2	0
34	160	0	10000	2	1	0	2	0
33	161	0	10000	2	1	0	2	0
32	162	0	10000	2	1	0	2	0
31	163	0	10000	2	1	0	2	0
30	164	0	10000	2	1	0	2	0
28	165	0	10000	2	1	0	2	0
27	166	0	10000	2	1	0	2	0
27	167	0	10000	2	1	0	2	0
29	168	0	10000	2	1	0	2	0
29	169	0	10000	2	1	0	2	0
28	170	0	10000	2	1	0	2	0
27	171	0	10000	2	1	0	2	0
26	172	0	10000	2	1	0	2	0
26	173	0	10000	2	1	0	2	0
27	174	0	10000	2	1	0	2	0
28	175	0	10000	2	1	0	2	0
28	176	0	10000	2	1	0	2	0
27	177	0	10000	2	1	0	2	0
25	178	0	10000	2	1	0	2	0
26	179	0	10000	2	1	0	2	0
28	180	0	10000	2	1	0	2	0
30	181	0	10000	2	1	0	2	0
31	182	0	10000	2	1	0	2	0
32	183	0	10000	2	1	0	2	0
35	184	0	10000	2	1	0	2	0
36	185	0	10000	2	1	0	2	0
35	186	0	10000	2	1	0	2	0
35	187	0	10000	2	1	0	2	0
37	188	0	10000	2	1	0	2	0
35	189	0	10000	2	1	0	2	0
34	190	0	10000	2	1	0	2	0
34	191	0	10000	2	1	0	2	0
36	192	0	10000	2	1	0	2	0
37	193	0	10000	2	1	0	2	0
35	194	0	10000	2	1	0	2	0
34	195	0	10000	2	1	0	2	0
35	196	0	10000	2	1	0	2	0
34	197	0	10000	2	1	0	2	0
33	198	0	10000	2	1	0	2	0
33	199	0	10000	2	1	0	2	0
32	200	0	10000	2	1	0	2	0
35	201	0	10000	2	1	0	2	0
37	202	0	10000	2	1	0	2	0
38	203	0	10000	2	1	0	2	0
38	204	0	10000	2	1	0	2	0
38	205	0	10000	2	1	0	2	0
36	206	0	10000	2	1	0	2	0
35	207	0	10000	2	1	0	2	0
35	208	0	10000	2	1	0	2	0
34	209	0	10000	2	1	0	2	0
33	210	0	10000	2	1	0	2	0
32	211	0	10000	2	1	0	2	0
32	212	0	10000	2	1	0	2	0
32	213	0	10000	2	1	0	2	0
32	214	0	10000	2	1	0	2	0
32	215	0	10000	2	1	0	2	0
31	216	0	10000	2	1	0	2	0
30	217	0	10000	2	1	0	2	0
28	218	0	10000	2	1	0	2	0
28	219	0	10000	2	1	0	2	0
27	220	0	10000	2	1	0	2	0
27	221	0	10000	2	1	0	2	0
27	222	0	10000	2	1	0	2	0
26	223	0	10000	2	1	0	2	0
25	224	0	10000	2	1	0	2	0
24	225	0	10000	2	1	0	2	0
23	226	0	10000	2	1	0	2	0
22	227	0	10000	2	1	0	2	0
24	228	0	10000	2	1	0	2	0
24	229	0	10000	2	1	0	2	0
22	230	0	10000	2	1	0	2	0
21	231	0	10000	2	1	0	2	0
21	232	0	10000	2	1	0	2	0
20	233	0	10000	2	1	0	2	0
20	234	0	10000	2	1	0	2	0
21	235	0	10000	2	1	0	2	0
22	236	0	10000	2	1	0	2	0
22	237	0	10000	2	1	0	2	0
20	238	0	10000	2	1	0	2	0
20	239	0	10000	2	1	0	2	0
22	240	0	10000	2	1	0	2	0
23	241	0	10000	2	1	0	2	0
23	242	0	10000	2	1	0	2	0
23	243	0	10000	2	1	0	2	0
24	244	0	10000	2	1	0	2	0
23	245	0	10000	2	1	0	2	0
22	246	0	10000	2	1	0	2	0
21	247	0	10000	2	1	0	2	0
22	248	0	10000	2	1	0	2	0
21	249	0	10000	2	1	0	2	0
21	250	0	10000	2	1	0	2	0
22	251	0	10000	2	1	0	2	0
22	252	0	10000	2	1	0	2	0
22	253	0	10000	2	1	0	2	0
21	254	0	10000	2	1	0	2	0
22	255	0	10000	2	1	0	2	0
23	256	0	10000	2	1	0	2	0
22	257	0	10000	2	1	0	2	0
19	258	0	10000	2	1	0	2	0
20	259	0	10000	2	1	0	2	0
20	260	0	10000	2	1	0	2	0
20	261	0	10000	2	1	0	2	0
20	262	0	10000	2	1	0	2	0
20	263	0	10000	2	1	0	2	0
20	264	0	10000	2	1	0	2	0
18	265	0	10000	2	1	0	2	0
19	266	0	10000	2	1	0	2	0
20	267	0	10000	2	1	0	2	0
25	268	0	10000	2	1	0	2	0
24	269	0	10000	2	1	0	2	0
24	270	0	10000	2	1	0	2	0
25	271	0	10000	2	1	0	2	0
25	272	0	10000	2	1	0	2	0
25	273	0	10000	2	1	0	2	0
25	274	0	10000	2	1	0	2	0
26	275	0	10000	2	1	0	2	0
29	276	0	10000	2	1	0	2	0
31	277	0	10000	2	1	0	2	0
31	278	0	10000	2	1	0	2	0
34	279	0	10000	2	1	0	2	0
35	280	0	10000	2	1	0	2	0
35	281	0	10000	2	1	0	2	0
36	282	0	10000	2	1	0	2	0
37	283	0	10000	2	1	0	2	0
38	284	0	10000	2	1	0	2	0
38	285	0	10000	2	1	0	2	0
38	286	0	10000	2	1	0	2	0
39	287	0	10000	2	1	0	2	0
42	288	0	10000	2	1	0	2	0
43	289	0	10000	2	1	0	2	0
42	290	0	10000	2	1	0	2	0
43	291	0	10000	2	1	0	2	0
44	292	0	10000	2	1	0	2	0
44	293	0	10000	2	1	0	2	0
43	294	0	10000	2	1	0	2	0
42	295	0	10000	2	1	0	2	0
41	296	0	10000	2	1	0	2	0
41	297	0	10000	2	1	0	2	0
39	298	0	10000	2	1	0	2	0
39	299	0	10000	2	1	0	2	0
39	300	0	10000	2	1	0	2	0
39	301	0	10000	2	1	0	2	0
38	302	0	10000	2	1	0	2	0
39	303	0	10000	2	1	0	2	0
38	304	0	10000	2	1	0	2	0
36	305	0	10000	2	1	0	2	0
37	306	0	10000	2	1	0	2	0
39	307	0	10000	2	1	0	2	0
43	308	0	10000	2	1	0	2	0
41	309	0	10000	2	1	0	2	0
40	310	0	10000	2	1	0	2	0
37	311	0	10000	2	1	0	2	0
37	312	0	10000	2	1	0	2	0
37	313	0	10000	2	1	0	2	0
36	314	0	10000	2	1	0	2	0
36	315	0	10000	2	1	0	2	0
36	316	0	10000	2	1	0	2	0
37	317	0	10000	2	1	0	2	0
37	318	0	10000	2	1	0	2	0
38	319	0	10000	2	1	0	2	0
39	320	0	10000	2	1	0	2	0
41	321	0	10000	2	1	0	2	0
43	322	0	10000	2	1	0	2	0
43	323	0	10000	2	1	0	2	0
44	324	0	10000	2	1	0	2	0
42	325	0	10000	2	1	0	2	0
41	326	0	10000	2	1	0	2	0
40	327	0	10000	2	1	0	2	0
41	328	0	10000	2	1	0	2	0
39	329	0	10000	2	1	0	2	0
40	330	0	10000	2	1	0	2	0
41	331	0	10000	2	1	0	2	0
42	332	0	10000	2	1	0	2	0
41	333	0	10000	2	1	0	2	0
41	334	0	10000	2	1	0	2	0
42	335	0	10000	2	1	0	2	0
41	336	0	10000	2	1	0	2	0
40	337	0	10000	2	1	0	2	0
36	338	0	10000	2	1	0	2	0
36	339	0	10000	2	1	0	2	0
36	340	0	10000	2	1	0	2	0
35	341	0	10000	2	1	0	2	0
36	342	0	10000	2	1	0	2	0
34	343	0	10000	2	1	0	2	0
33	344	0	10000	2	1	0	2	0
32	345	0	10000	2	1	0	2	0
31	346	0	10000	2	1	0	2	0
32	347	0	10000	2	1	0	2	0
33	348	0	10000	2	1	0	2	0
31	349	0	10000	2	1	0	2	0
31	350	0	10000	2	1	0	2	0
30	351	0	10000	2	1	0	2	0
28	352	0	10000	2	1	0	2	0
28	353	0	10000	2	1	0	2	0
28	354	0	10000	2	1	0	2	0
28	355	0	10000	2	1	0	2	0
28	356	0	10000	2	1	0	2	0
30	357	0	10000	2	1	0	2	0
26	358	0	10000	2	1	0	2	0
27	359	0	10000	2	1	0	2	0
27	360	0	10000	2	1	0	2	0
28	361	0	10000	2	1	0	2	0
26	362	0	10000	2	1	0	2	0
27	363	0	10000	2	1	0	2	0
27	364	0	10000	2	1	0	2	0
29	365	0	10000	2	1	0	2	0
31	366	0	10000	2	1	0	2	0
31	367	0	10000	2	1	0	2	0
35	368	0	10000	2	1	0	2	0
38	369	0	10000	2	1	0	2	0
40	370	0	10000	2	1	0	2	0
38	371	0	10000	2	1	0	2	0
40	372	0	10000	2	1	0	2	0
39	373	0	10000	2	1	0	2	0
38	374	0	10000	2	1	0	2	0
37	375	0	10000	2	1	0	2	0
36	376	0	10000	2	1	0	2	0
34	377	0	10000	2	1	0	2	0
32	378	0	10000	2	1	0	2	0
32	379	0	10000	2	1	0	2	0
31	380	0	10000	2	1	0	2	0
31	381	0	10000	2	1	0	2	0
30	382	0	10000	2	1	0	2	0
30	383	0	10000	2	1	0	2	0
31	384	0	10000	2	1	0	2	0
32	385	0	10000	2	1	0	2	0
31	386	0	10000	2	1	0	2	0
31	387	0	10000	2	1	0	2	0
31	388	0	10000	2	1	0	2	0
32	389	0	10000	2	1	0	2	0
31	390	0	10000	2	1	0	2	0
30	391	0	10000	2	1	0	2	0
29	392	0	10000	2	1	0	2	0
30	393	0	10000	2	1	0	2	0
29	394	0	10000	2	1	0	2	0
28	395	0	10000	2	1	0	2	0
29	396	0	10000	2	1	0	2	0
29	397	0	10000	2	1	0	2	0
26	398	0	10000	2	1	0	2	0
26	399	0	10000	2	1	0	2	0
26	400	0	10000	2	1	0	2	0
26	401	0	10000	2	1	0	2	0
25	402	0	10000	2	1	0	2	0
24	403	0	10000	2	1	0	2	0
24	404	0	10000	2	1	0	2	0
25	405	0	10000	2	1	0	2	0
25	406	0	10000	2	1	0	2	0
25	407	0	10000	2	1	0	2	0
27	408	0	10000	2	1	0	2	0
26	409	0	10000	2	1	0	2	0
27	410	0	10000	2	1	0	2	0
29	411	0	10000	2	1	0	2	0
31	412	0	10000	2	1	0	2	0
30	413	0	10000	2	1	0	2	0
30	414	0	10000	2	1	0	2	0
30	415	0	10000	2	1	0	2	0
30	416	0	10000	2	1	0	2	0
33	417	0	10000	2	1	0	2	0
32	418	0	10000	2	1	0	2	0
32	419	0	10000	2	1	0	2	0
33	420	0	10000	2	1	0	2	0
33	421	0	10000	2	1	0	2	0
33	422	0	10000	2	1	0	2	0
34	423	0	10000	2	1	0	2	0
35	424	0	10000	2	1	0	2	0
34	425	0	10000	2	1	0	2	0
35	426	0	10000	2	1	0	2	0
35	427	0	10000	2	1	0	2	0
37	428	0	10000	2	1	0	2	0
35	429	0	10000	2	1	0	2	0
34	430	0	10000	2	1	0	2	0
32	431	0	10000	2	1	0	2	0
34	432	0	10000	2	1	0	2	0
36	433	0	10000	2	1	0	2	0
39	434	0	10000	2	1	0	2	0
44	435	0	10000	2	1	0	2	0
46	436	0	10000	2	1	0	2	0
48	437	0	10000	2	1	0	2	0
48	438	0	10000	2	1	0	2	0
47	439	0	10000	2	1	0	2	0
48	440	0	10000	2	1	0	2	0
50	441	0	10000	2	1	0	2	0
50	442	0	10000	2	1	0	2	0
49	443	0	10000	2	1	0	2	0
51	444	0	10000	2	1	0	2	0
50	445	0	10000	2	1	0	2	0
49	446	0	10000	2	1	0	2	0
48	447	0	10000	2	1	0	2	0
49	448	0	10000	2	1	0	2	0
48	449	0	10000	2	1	0	2	0
47	450	0	10000	2	1	0	2	0
44	451	0	10000	2	1	0	2	0
43	452	0	10000	2	1	0	2	0
43	453	0	10000	2	1	0	2	0
43	454	0	10000	2	1	0	2	0
43	455	0	10000	2	1	0	2	0
44	456	0	10000	2	1	0	2	0
43	457	0	10000	2	1	0	2	0
39	458	0	10000	2	1	0	2	0
39	459	0	10000	2	1	0	2	0
37	460	0	10000	2	1	0	2	0
39	461	0	10000	2	1	0	2	0
42	462	0	10000	2	1	0	2	0
43	463	0	10000	2	1	0	2	0
45	464	0	10000	2	1	0	2	0
49	465	0	10000	2	1	0	2	0
50	466	0	10000	2	1	0	2	0
50	467	0	10000	2	1	0	2	0
54	468	0	10000	2	1	0	2	0
55	469	0	10000	2	1	0	2	0
57	470	0	10000	2	1	0	2	0
59	471	0	10000	2	1	0	2	0
59	472	0	10000	2	1	0	2	0
60	473	0	10000	2	1	0	2	0
62	474	0	10000	2	1	0	2	0
62	475	0	10000	2	1	0	2	0
62	476	0	10000	2	1	0	2	0
61	477	0	10000	2	1	0	2	0
58	478	0	10000	2	1	0	2	0
57	479	0	10000	2	1	0	2	0
58	480	0	10000	2	1	0	2	0
57	481	0	10000	2	1	0	2	0
57	482	0	10000	2	1	0	2	0
56	483	0	10000	2	1	0	2	0
54	484	0	10000	2	1	0	2	0
53	485	0	10000	2	1	0	2	0
54	486	0	10000	2	1	0	2	0
55	487	0	10000	2	1	0	2	0
57	488	0	10000	2	1	0	2	0
57	489	0	10000	2	1	0	2	0
54	490	0	10000	2	1	0	2	0
54	491	0	10000	2	1	0	2	0
54	492	0	10000	2	1	0	2	0
53	493	0	10000	2	1	0	2	0
52	494	0	10000	2	1	0	2	0
54	495	0	10000	2	1	0	2	0
53	496	0	10000	2	1	0	2	0
52	497	0	10000	2	1	0	2	0
49	498	0	10000	2	1	0	2	0
47	499	0	10000	2	1	0	2	0
46	500	0	10000	2	1	0	2	0
47	501	0	10000	2	1	0	2	0
47	502	0	10000	2	1	0	2	1
48	503	0	10000	2	1	0	2	1
49	504	0	10000	2	1	0	2	1
47	505	0	10000	2	1	0	2	1
46	506	0	10000	2	1	0	2	1
46	507	0	10000	2	1	0	2	1
46	508	0	10000	2	1	0	2	1
44	509	0	10000	2	1	0	2	1
44	510	0	10000	2	1	0	2	1
42	511	0	10000	2	1	0	2	1
41	512	0	10000	2	1	0	2	1
40	513	0	10000	2	1	0	2	1
37	514	0	10000	2	1	0	2	1
36	515	0	10000	2	1	0	2	1
36	516	0	10000	2	1	0	2	1
36	517	0	10000	2	1	0	2	1
33	518	0	10000	2	1	0	2	1
33	519	0	10000	2	1	0	2	1
34	520	0	10000	2	1	0	2	1
36	521	0	10000	2	1	0	2	1
38	522	0	10000	2	1	0	2	1
38	523	0	10000	2	1	0	2	1
38	524	0	10000	2	1	0	2	1
38	525	0	10000	2	1	0	2	1
35	526	0	10000	2	1	0	2	1
36	527	0	10000	2	1	0	2	1
39	528	0	10000	2	1	0	2	1
38	529	0	10000	2	1	0	2	1
35	530	0	10000	2	1	0	2	1
34	531	0	10000	2	1	0	2	1
33	532	0	10000	2	1	0	2	1
33	533	0	10000	2	1	0	2	1
32	534	0	10000	2	1	0	2	1
33	535	0	10000	2	1	0	2	1
32	536	0	10000	2	1	0	2	1
32	537	0	10000	2	1	0	2	1
30	538	0	10000	2	1	0	2	1
30	539	0	10000	2	1	0	2	1
30	540	0	10000	2	1	0	2	1
29	541	0	10000	2	1	0	2	1
27	542	0	10000	2	1	0	2	1
28	543	0	10000	2	1	0	2	1
28	544	0	10000	2	1	0	2	1
27	545	0	10000	2	1	0	2	1
28	546	0	10000	2	1	0	2	1
28	547	0	10000	2	1	0	2	1
29	548	0	10000	2	1	0	2	1
29	549	0	10000	2	1	0	2	1
27	550	0	10000	2	1	0	2	1
27	551	0	10000	2	1	0	2	1
26	552	0	10000	2	1	0	2	0
25	553	0	10000	2	1	0	2	0
24	554	0	10000	2	1	0	2	0
25	555	0	10000	2	1	0	2	0
25	556	0	10000	2	1	0	2	0
26	557	0	10000	2	1	0	2	0
24	558	0	10000	2	1	0	2	0
25	559	0	10000	2	1	0	2	0
24	560	0	10000	2	1	0	2	0
25	561	0	10000	2	1	0	2	0
23	562	0	10000	2	1	0	2	0
22	563	0	10000	2	1	0	2	0
23	564	0	10000	2	1	0	2	0
22	565	0	10000	2	1	0	2	0
21	566	0	10000	2	1	0	2	0
21	567	0	10000	2	1	0	2	0
22	568	0	10000	2	1	0	2	0
22	569	0	10000	2	1	0	2	0
22	570	0	10000	2	1	0	2	0
20	571	0	10000	2	1	0	2	0
20	572	0	10000	2	1	0	2	0
22	573	0	10000	2	1	0	2	0
22	574	0	10000	2	1	0	2	0
22	575	0	10000	2	1	0	2	0
23	576	0	10000	2	1	0	2	0
25	577	0	10000	2	1	0	2	0
28	578	0	10000	2	1	0	2	0
32	579	0	10000	2	1	0	2	0
32	580	0	10000	2	1	0	2	0
31	581	0	10000	2	1	0	2	0
32	582	0	10000	2	1	0	2	0
37	583	0	10000	2	1	0	2	0
43	584	0	10000	2	1	0	2	0
45	585	0	10000	2	1	0	2	0
51	586	0	10000	2	1	0	2	0
63	587	0	10000	2	1	0	2	0
71	588	0	10000	2	1	0	2	0
71	589	0	10000	2	1	0	2	0
69	590	0	10000	2	1	0	2	0
70	591	0	10000	2	1	0	2	0
71	592	0	10000	2	1	0	2	0
73	593	0	10000	2	1	0	2	0
85	594	0	10000	2	1	0	2	0
87	595	0	10000	2	1	0	2	0
101	596	0	10000	2	1	0	2	0
110	597	0	10000	2	1	0	2	0
109	598	0	10000	2	1	0	2	0
106	599	0	10000	2	1	0	2	0
104	600	0	10000	2	1	0	2	0
103	601	0	10000	2	1	0	2	0
99	602	0	10000	2	1	0	2	0
101	603	0	10000	2	1	0	2	0
110	604	0	10000	2	1	0	2	0
122	605	0	10000	2	1	0	2	0
130	606	0	10000	2	1	0	2	0
145	607	0	10000	2	1	0	2	0
146	608	0	10000	2	1	0	2	0
156	609	0	10000	2	1	0	2	0
173	610	0	10000	2	1	0	2	0
176	611	0	10000	2	1	0	2	0
171	612	0	10000	2	1	0	2	0
174	613	0	10000	2	1	0	2	0
190	614	0	10000	2	1	0	2	0
199	615	0	10000	2	1	0	2	0
207	616	0	10000	2	1	0	2	0
249	617	0	10000	2	1	0	2	0
297	618	0	10000	2	1	0	2	0
309	619	0	10000	2	1	0	2	0
302	620	0	10000	2	1	0	2	0
310	621	0	10000	2	1	0	2	0
322	622	0	10000	2	1	0	2	0
328	623	0	10000	2	1	0	2	0
324	624	0	10000	2	1	0	2	0
320	625	0	10000	2	1	0	2	0
310	626	0	10000	2	1	0	2	0
297	627	0	10000	2	1	0	2	0
287	628	0	10000	2	1	0	2	0
274	629	0	10000	2	1	0	2	0
262	630	0	10000	2	1	0	2	0
250	631	0	10000	2	1	0	2	0
240	632	0	10000	2	1	0	2	0
233	633	0	10000	2	1	0	2	0
223	634	0	10000	2	1	0	2	0
214	635	0	10000	2	1	0	2	0
208	636	0	10000	2	1	0	2	0
204	637	0	10000	2	1	0	2	0
195	638	0	10000	2	1	0	2	0
188	639	0	10000	2	1	0	2	0
181	640	0	10000	2	1	0	2	0
176	641	0	10000	2	1	0	2	0
171	642	0	10000	2	1	0	2	0
164	643	0	10000	2	1	0	2	0
157	644	0	10000	2	1	0	2	0
151	645	0	10000	2	1	0	2	0
143	646	0	10000	2	1	0	2	0
138	647	0	10000	2	1	0	2	0
134	648	0	10000	2	1	0	2	0
130	649	0	10000	2	1	0	2	0
125	650	0	10000	2	1	0	2	0
120	651	0	10000	2	1	0	2	0
119	652	0	10000	2	1	0	2	0
116	653	0	10000	2	1	0	2	0
112	654	0	10000	2	1	0	2	0
110	655	0	10000	2	1	0	2	0
112	656	0	10000	2	1	0	2	0
113	657	0	10000	2	1	0	2	0
111	658	0	10000	2	1	0	2	0
112	659	0	10000	2	1	0	2	0
112	660	0	10000	2	1	0	2	0
111	661	0	10000	2	1	0	2	0
109	662	0	10000	2	1	0	2	0
107	663	0	10000	2	1	0	2	0
105	664	0	10000	2	1	0	2	0
102	665	0	10000	2	1	0	2	0
100	666	0	10000	2	1	0	2	0
98	667	0	10000	2	1	0	2	0
98	668	0	10000	2	1	0	2	0
96	669	0	10000	2	1	0	2	0
94	670	0	10000	2	1	0	2	0
92	671	0	10000	2	1	0	2	0
89	672	0	10000	2	1	0	2	0
86	673	0	10000	2	1	0	2	0
84	674	0	10000	2	1	0	2	0
84	675	0	10000	2	1	0	2	0
83	676	0	10000	2	1	0	2	0
81	677	0	10000	2	1	0	2	0
79	678	0	10000	2	1	0	2	0
76	679	0	10000	2	1	0	2	0
73	680	0	10000	2	1	0	2	0
72	681	0	10000	2	1	0	2	0
70	682	0	10000	2	1	0	2	0
68	683	0	10000	2	1	0	2	0
68	684	0	10000	2	1	0	2	0
64	685	0	10000	2	1	0	2	0
61	686	0	10000	2	1	0	2	0
59	687	0	10000	2	1	0	2	0
58	688	0	10000	2	1	0	2	0
55	689	0	10000	2	1	0	2	0
53	690	0	10000	2	1	0	2	0
50	691	0	10000	2	1	0	2	0
48	692	0	10000	2	1	0	2	0
46	693	0	10000	2	1	0	2	0
44	694	0	10000	2	1	0	2	0
43	695	0	10000	2	1	0	2	0
42	696	0	10000	2	1	0	2	0
42	697	0	10000	2	1	0	2	0
39	698	0	10000	2	1	0	2	0
41	699	0	10000	2	1	0	2	0
39	700	0	10000	2	1	0	2	0
38	701	0	10000	2	1	0	2	0
38	702	0	10000	2	1	0	2	0
37	703	0	10000	2	1	0	2	0
37	704	0	10000	2	1	0	2	0
36	705	0	10000	2	1	0	2	0
36	706	0	10000	2	1	0	2	0
35	707	0	10000	2	1	0	2	0
36	708	0	10000	2	1	0	2	0
35	709	0	10000	2	1	0	2	0
36	710	0	10000	2	1	0	2	0
35	711	0	10000	2	1	0	2	0
34	712	0	10000	2	1	0	2	0
33	713	0	10000	2	1	0	2	0
33	714	0	10000	2	1	0	2	0
34	715	0	10000	2	1	0	2	0
36	716	0	10000	2	1	0	2	0
36	717	0	10000	2	1	0	2	0
35	718	0	10000	2	1	0	2	0
36	719	0	10000	2	1	0	2	0
38	720	0	10000	2	1	0	2	0
39	721	0	10000	2	1	0	2	0
40	722	0	10000	2	1	0	2	0
42	723	0	10000	2	1	0	2	0
42	724	0	10000	2	1	0	2	0
41	725	0	10000	2	1	0	2	0
40	726	0	10000	2	1	0	2	0
39	727	0	10000	2	1	0	2	0
39	728	0	10000	2	1	0	2	0
38	729	0	10000	2	1	0	2	0
37	730	0	10000	2	1	0	2	0
36	731	0	10000	2	1	0	2	0
35	732	0	10000	2	1	0	2	0
34	733	0	10000	2	1	0	2	0
32	734	0	10000	2	1	0	2	0
32	735	0	10000	2	1	0	2	0
32	736	0	10000	2	1	0	2	0
31	737	0	10000	2	1	0	2	0
28	738	0	10000	2	1	0	2	0
28	739	0	10000	2	1	0	2	0
27	740	0	10000	2	1	0	2	0
27	741	0	10000	2	1	0	2	0
26	742	0	10000	2	1	0	2	0
25	743	0	10000	2	1	0	2	0
24	744	0	10000	2	1	0	2	0
24	745	0	10000	2	1	0	2	0
23	746	0	10000	2	1	0	2	0
23	747	0	10000	2	1	0	2	0
24	748	0	10000	2	1	0	2	0
23	749	0	10000	2	1	0	2	0
22	750	0	10000	2	1	0	2	0
21	751	0	10000	2	1	0	2	0
21	752	0	10000	2	1	0	2	0
21	753	0	10000	2	1	0	2	0
20	754	0	10000	2	1	0	2	0
21	755	0	10000	2	1	0	2	0
21	756	0	10000	2	1	0	2	0
20	757	0	10000	2	1	0	2	0
18	758	0	10000	2	1	0	2	0
18	759	0	10000	2	1	0	2	0
19	760	0	10000	2	1	0	2	0
20	761	0	10000	2	1	0	2	0
20	762	0	10000	2	1	0	2	0
20	763	0	10000	2	1	0	2	0
20	764	0	10000	2	1	0	2	0
20	765	0	10000	2	1	0	2	0
20	766	0	10000	2	1	0	2	0
22	767	0	10000	2	1	0	2	0
26	768	0	10000	2	1	0	2	0
27	769	0	10000	2	1	0	2	0
29	770	0	10000	2	1	0	2	0
30	771	0	10000	2	1	0	2	0
31	772	0	10000	2	1	0	2	0
31	773	0	10000	2	1	0	2	0
30	774	0	10000	2	1	0	2	0
31	775	0	10000	2	1	0	2	0
32	776	0	10000	2	1	0	2	0
32	777	0	10000	2	1	0	2	0
30	778	0	10000	2	1	0	2	0
30	779	0	10000	2	1	0	2	0
30	780	0	10000	2	1	0	2	0
31	781	0	10000	2	1	0	2	0
30	782	0	10000	2	1	0	2	0
31	783	0	10000	2	1	0	2	0
30	784	0	10000	2	1	0	2	0
30	785	0	10000	2	1	0	2	0
31	786	0	10000	2	1	0	2	0
32	787	0	10000	2	1	0	2	0
33	788	0	10000	2	1	0	2	0
32	789	0	10000	2	1	0	2	0
32	790	0	10000	2	1	0	2	0
31	791	0	10000	2	1	0	2	0
30	792	0	10000	2	1	0	2	0
30	793	0	10000	2	1	0	2	0
30	794	0	10000	2	1	0	2	0
33	795	0	10000	2	1	0	2	0
34	796	0	10000	2	1	0	2	0
33	797	0	10000	2	1	0	2	0
31	798	0	10000	2	1	0	2	0
30	799	0	10000	2	1	0	2	0
30	800	0	10000	2	1	0	2	0
31	801	0	10000	2	1	0	2	0
30	802	0	10000	2	1	0	2	0
29	803	0	10000	2	1	0	2	0
29	804	0	10000	2	1	0	2	0
27	805	0	10000	2	1	0	2	0
26	806	0	10000	2	1	0	2	0
25	807	0	10000	2	1	0	2	0
27	808	0	10000	2	1	0	2	0
25	809	0	10000	2	1	0	2	0
24	810	0	10000	2	1	0	2	0
23	811	0	10000	2	1	0	2	0
22	812	0	10000	2	1	0	2	0
22	813	0	10000	2	1	0	2	0
21	814	0	10000	2	1	0	2	0
21	815	0	10000	2	1	0	2	0
22	816	0	10000	2	1	0	2	0
22	817	0	10000	2	1	0	2	0
21	818	0	10000	2	1	0	2	0
23	819	0	10000	2	1	0	2	0
23	820	0	10000	2	1	0	2	0
22	821	0	10000	2	1	0	2	0
23	822	0	10000	2	1	0	2	0
25	823	0	10000	2	1	0	2	0
27	824	0	10000	2	1	0	2	0
29	825	0	10000	2	1	0	2	0
30	826	0	10000	2	1	0	2	0
33	827	0	10000	2	1	0	2	0
41	828	0	10000	2	1	0	2	0
46	829	0	10000	2	1	0	2	0
50	830	0	10000	2	1	0	2	0
55	831	0	10000	2	1	0	2	0
61	832	0	10000	2	1	0	2	0
66	833	0	10000	2	1	0	2	0
70	834	0	10000	2	1	0	2	0
75	835	0	10000	2	1	0	2	0
79	836	0	10000	2	1	0	2	0
81	837	0	10000	2	1	0	2	0
80	838	0	10000	2	1	0	2	0
80	839	0	10000	2	1	0	2	0
79	840	0	10000	2	1	0	2	0
78	841	0	10000	2	1	0	2	0
76	842	0	10000	2	1	0	2	0
76	843	0	10000	2	1	0	2	0
76	844	0	10000	2	1	0	2	0
72	845	0	10000	2	1	0	2	0
69	846	0	10000	2	1	0	2	0
69	847	0	10000	2	1	0	2	0
73	848	0	10000	2	1	0	2	0
75	849	0	10000	2	1	0	2	0
77	850	0	10000	2	1	0	2	0
78	851	0	10000	2	1	0	2	0
81	852	0	10000	2	1	0	2	0
84	853	0	10000	2	1	0	2	0
85	854	0	10000	2	1	0	2	0
87	855	0	10000	2	1	0	2	0
89	856	0	10000	2	1	0	2	0
90	857	0	10000	2	1	0	2	0
89	858	0	10000	2	1	0	2	0
90	859	0	10000	2	1	0	2	0
89	860	0	10000	2	1	0	2	0
88	861	0	10000	2	1	0	2	0
86	862	0	10000	2	1	0	2	0
83	863	0	10000	2	1	0	2	0
81	864	0	10000	2	1	0	2	0
81	865	0	10000	2	1	0	2	0
80	866	0	10000	2	1	0	2	0
79	867	0	10000	2	1	0	2	0
80	868	0	10000	2	1	0	2	0
79	869	0	10000	2	1	0	2	0
78	870	0	10000	2	1	0	2	0
78	871	0	10000	2	1	0	2	0
77	872	0	10000	2	1	0	2	0
74	873	0	10000	2	1	0	2	0
71	874	0	10000	2	1	0	2	0
69	875	0	10000	2	1	0	2	0
67	876	0	10000	2	1	0	2	0
64	877	0	10000	2	1	0	2	0
60	878	0	10000	2	1	0	2	0
59	879	0	10000	2	1	0	2	0
57	880	0	10000	2	1	0	2	0
55	881	0	10000	2	1	0	2	0
53	882	0	10000	2	1	0	2	0
51	883	0	10000	2	1	0	2	0
50	884	0	10000	2	1	0	2	0
47	885	0	10000	2	1	0	2	0
45	886	0	10000	2	1	0	2	0
44	887	0	10000	2	1	0	2	0
46	888	0	10000	2	1	0	2	0
46	889	0	10000	2	1	0	2	0
47	890	0	10000	2	1	0	2	0
49	891	0	10000	2	1	0	2	0
54	892	0	10000	2	1	0	2	0
60	893	0	10000	2	1	0	2	0
63	894	0	10000	2	1	0	2	0
68	895	0	10000	2	1	0	2	0
71	896	0	10000	2	1	0	2	0
72	897	0	10000	2	1	0	2	0
71	898	0	10000	2	1	0	2	0
71	899	0	10000	2	1	0	2	0
71	900	0	10000	2	1	0	2	0
71	901	0	10000	2	1	0	2	0
70	902	0	10000	2	1	0	2	0
69	903	0	10000	2	1	0	2	0
69	904	0	10000	2	1	0	2	0
68	905	0	10000	2	1	0	2	0
65	906	0	10000	2	1	0	2	0
62	907	0	10000	2	1	0	2	0
61	908	0	10000	2	1	0	2	0
60	909	0	10000	2	1	0	2	0
58	910	0	10000	2	1	0	2	0
57	911	0	10000	2	1	0	2	0
56	912	0	10000	2	1	0	2	0
56	913	0	10000	2	1	0	2	0
52	914	0	10000	2	1	0	2	0
51	915	0	10000	2	1	0	2	0
51	916	0	10000	2	1	0	2	0
51	917	0	10000	2	1	0	2	0
49	918	0	10000	2	1	0	2	0
49	919	0	10000	2	1	0	2	0
48	920	0	10000	2	1	0	2	0
48	921	0	10000	2	1	0	2	0
47	922	0	10000	2	1	0	2	0
46	923	0	10000	2	1	0	2	0
46	924	0	10000	2	1	0	2	0
45	925	0	10000	2	1	0	2	0
44	926	0	10000	2	1	0	2	0
46	927	0	10000	2	1	0	2	0
49	928	0	10000	2	1	0	2	0
48	929	0	10000	2	1	0	2	0
46	930	0	10000	2	1	0	2	0
44	931	0	10000	2	1	0	2	0
44	932	0	10000	2	1	0	2	0
43	933	0	10000	2	1	0	2	0
43	934	0	10000	2	1	0	2	0
44	935	0	10000	2	1	0	2	0
45	936	0	10000	2	1	0	2	0
45	937	0	10000	2	1	0	2	0
44	938	0	10000	2	1	0	2	0
44	939	0	10000	2	1	0	2	0
43	940	0	10000	2	1	0	2	0
42	941	0	10000	2	1	0	2	0
40	942	0	10000	2	1	0	2	0
39	943	0	10000	2	1	0	2	0
40	944	0	10000	2	1	0	2	0
39	945	0	10000	2	1	0	2	0
38	946	0	10000	2	1	0	2	0
38	947	0	10000	2	1	0	2	0
39	948	0	10000	2	1	0	2	0
37	949	0	10000	2	1	0	2	0
36	950	0	10000	2	1	0	2	0
37	951	0	10000	2	1	0	2	0
41	952	0	10000	2	1	0	2	0
43	953	0	10000	2	1	0	2	0
45	954	0	10000	2	1	0	2	0
49	955	0	10000	2	1	0	2	0
52	956	0	10000	2	1	0	2	0
54	957	0	10000	2	1	0	2	0
54	958	0	10000	2	1	0	2	0
56	959	0	10000	2	1	0	2	0
57	960	0	10000	2	1	0	2	0
59	961	0	10000	2	1	0	2	0
61	962	0	10000	2	1	0	2	0
62	963	0	10000	2	1	0	2	0
61	964	0	10000	2	1	0	2	0
59	965	0	10000	2	1	0	2	0
56	966	0	10000	2	1	0	2	0
55	967	0	10000	2	1	0	2	0
55	968	0	10000	2	1	0	2	0
53	969	0	10000	2	1	0	2	0
54	970	0	10000	2	1	0	2	0
55	971	0	10000	2	1	0	2	0
54	972	0	10000	2	1	0	2	0
53	973	0	10000	2	1	0	2	0
51	974	0	10000	2	1	0	2	0
50	975	0	10000	2	1	0	2	0
52	976	0	10000	2	1	0	2	0
56	977	0	10000	2	1	0	2	0
53	978	0	10000	2	1	0	2	0
52	979	0	10000	2	1	0	2	0
53	980	0	10000	2	1	0	2	0
54	981	0	10000	2	1	0	2	0
56	982	0	10000	2	1	0	2	0
57	983	0	10000	2	1	0	2	0
59	984	0	10000	2	1	0	2	0
58	985	0	10000	2	1	0	2	0
58	986	0	10000	2	1	0	2	0
57	987	0	10000	2	1	0	2	0
57	988	0	10000	2	1	0	2	0
56	989	0	10000	2	1	0	2	0
56	990	0	10000	2	1	0	2	0
56	991	0	10000	2	1	0	2	0
54	992	0	10000	2	1	0	2	0
53	993	0	10000	2	1	0	2	0
55	994	0	10000	2	1	0	2	0
59	995	0	10000	2	1	0	2	0
63	996	0	10000	2	1	0	2	0
67	997	0	10000	2	1	0	2	0
70	998	0	10000	2	1	0	2	0
73	999	0	10000	2	1	0	2	0
75	1000	0	10000	2	1	0	2	0
75	1001	0	10000	2	1	0	2	0
115	1	10	10000	3	1	0	3	0
118	2	10	10000	3	1	0	3	0
119	3	10	10000	3	1	0	3	0
120	4	10	10000	3	1	0	3	0
122	5	10	10000	3	1	0	3	0
119	6	10	10000	3	1	0	3	0
120	7	10	10000	3	1	0	3	0
120	8	10	10000	3	1	0	3	0
119	9	10	10000	3	1	0	3	0
119	10	10	10000	3	1	0	3	0
122	11	10	10000	3	1	0	3	0
123	12	10	10000	3	1	0	3	0
123	13	10	10000	3	1	0	3	0
123	14	10	10000	3	1	0	3	0
123	15	10	10000	3	1	0	3	0
126	16	10	10000	3	1	0	3	0
126	17	10	10000	3	1	0	3	0
124	18	10	10000	3	1	0	3	0
123	19	10	10000	3	1	0	3	0
123	20	10	10000	3	1	0	3	0
122	20	10	10000	3	1	0	3	0
122	21	10	10000	3	1	0	3	0
122	23	10	10000	3	1	0	3	0
119	24	10	10000	3	1	0	3	0
118	25	10	10000	3	1	0	3	0
116	26	10	10000	3	1	0	3	0
115	27	10	10000	3	1	0	3	0
115	28	10	10000	3	1	0	3	0
115	29	10	10000	3	1	0	3	0
113	30	10	10000	3	1	0	3	0
113	30	10	10000	3	1	0	3	0
113	31	10	10000	3	1	0	3	0
111	33	10	10000	3	1	0	3	0
108	34	10	10000	3	1	0	3	0
105	35	10	10000	3	1	0	3	0
104	36	10	10000	3	1	0	3	0
100	37	10	10000	3	1	0	3	0
98	38	10	10000	3	1	0	3	0
93	39	10	10000	3	1	0	3	0
91	40	10	10000	3	1	0	3	0
90	40	10	10000	3	1	0	3	0
86	41	10	10000	3	1	0	3	0
84	43	10	10000	3	1	0	3	0
83	44	10	10000	3	1	0	3	0
80	45	10	10000	3	1	0	3	0
75	46	10	10000	3	1	0	3	0
72	47	10	10000	3	1	0	3	0
69	48	10	10000	3	1	0	3	0
68	49	10	10000	3	1	0	3	0
67	50	10	10000	3	1	0	3	0
65	50	10	10000	3	1	0	3	0
63	51	10	10000	3	1	0	3	0
61	53	10	10000	3	1	0	3	0
57	54	10	10000	3	1	0	3	0
55	55	10	10000	3	1	0	3	0
56	56	10	10000	3	1	0	3	0
54	57	10	10000	3	1	0	3	0
53	58	10	10000	3	1	0	3	0
54	59	10	10000	3	1	0	3	0
53	60	10	10000	3	1	0	3	0
52	60	10	10000	3	1	0	3	0
52	61	10	10000	3	1	0	3	0
50	63	10	10000	3	1	0	3	0
49	64	10	10000	3	1	0	3	0
49	65	10	10000	3	1	0	3	0
44	66	10	10000	3	1	0	3	0
44	67	10	10000	3	1	0	3	0
44	68	10	10000	3	1	0	3	0
44	69	10	10000	3	1	0	3	0
43	70	10	10000	3	1	0	3	0
44	70	10	10000	3	1	0	3	0
42	71	10	10000	3	1	0	3	0
40	73	10	10000	3	1	0	3	0
38	74	10	10000	3	1	0	3	0
37	75	10	10000	3	1	0	3	0
39	76	10	10000	3	1	0	3	0
39	77	10	10000	3	1	0	3	0
37	78	10	10000	3	1	0	3	0
36	79	10	10000	3	1	0	3	0
35	80	10	10000	3	1	0	3	0
34	80	10	10000	3	1	0	3	0
34	81	10	10000	3	1	0	3	0
34	83	10	10000	3	1	0	3	0
33	84	10	10000	3	1	0	3	0
32	85	10	10000	3	1	0	3	0
30	86	10	10000	3	1	0	3	0
29	87	10	10000	3	1	0	3	0
28	88	10	10000	3	1	0	3	0
28	89	10	10000	3	1	0	3	0
26	90	10	10000	3	1	0	3	0
25	90	10	10000	3	1	0	3	0
25	91	10	10000	3	1	0	3	0
24	93	10	10000	3	1	0	3	0
23	94	10	10000	3	1	0	3	0
25	95	10	10000	3	1	0	3	0
29	96	10	10000	3	1	0	3	0
31	97	10	10000	3	1	0	3	0
32	98	10	10000	3	1	0	3	0
31	99	10	10000	3	1	0	3	0
32	100	10	10000	3	1	0	3	0
33	100	10	10000	3	1	0	3	0
33	101	10	10000	3	1	0	3	0
35	103	10	10000	3	1	0	3	0
38	104	10	10000	3	1	0	3	0
40	105	10	10000	3	1	0	3	0
39	106	10	10000	3	1	0	3	0
40	107	10	10000	3	1	0	3	0
38	108	10	10000	3	1	0	3	0
37	109	10	10000	3	1	0	3	0
36	110	10	10000	3	1	0	3	0
34	110	10	10000	3	1	0	3	0
33	111	10	10000	3	1	0	3	0
32	113	10	10000	3	1	0	3	0
30	114	10	10000	3	1	0	3	0
29	115	10	10000	3	1	0	3	0
30	116	10	10000	3	1	0	3	0
28	117	10	10000	3	1	0	3	0
27	118	10	10000	3	1	0	3	0
27	119	10	10000	3	1	0	3	0
28	120	10	10000	3	1	0	3	0
28	120	10	10000	3	1	0	3	0
28	121	10	10000	3	1	0	3	0
27	123	10	10000	3	1	0	3	0
27	124	10	10000	3	1	0	3	0
28	125	10	10000	3	1	0	3	0
26	126	10	10000	3	1	0	3	0
26	127	10	10000	3	1	0	3	0
25	128	10	10000	3	1	0	3	0
24	129	10	10000	3	1	0	3	0
24	130	10	10000	3	1	0	3	0
26	130	10	10000	3	1	0	3	0
26	131	10	10000	3	1	0	3	0
26	133	10	10000	3	1	0	3	0
27	134	10	10000	3	1	0	3	0
26	135	10	10000	3	1	0	3	0
28	136	10	10000	3	1	0	3	0
27	137	10	10000	3	1	0	3	0
25	138	10	10000	3	1	0	3	0
24	139	10	10000	3	1	0	3	0
23	140	10	10000	3	1	0	3	0
22	140	10	10000	3	1	0	3	0
21	141	10	10000	3	1	0	3	0
22	143	10	10000	3	1	0	3	0
21	144	10	10000	3	1	0	3	0
21	145	10	10000	3	1	0	3	0
19	146	10	10000	3	1	0	3	0
19	147	10	10000	3	1	0	3	0
20	148	10	10000	3	1	0	3	0
21	149	10	10000	3	1	0	3	0
21	150	10	10000	3	1	0	3	0
21	150	10	10000	3	1	0	3	0
21	151	10	10000	3	1	0	3	0
19	153	10	10000	3	1	0	3	0
19	154	10	10000	3	1	0	3	0
18	155	10	10000	3	1	0	3	0
20	156	10	10000	3	1	0	3	0
19	157	10	10000	3	1	0	3	0
19	158	10	10000	3	1	0	3	0
18	159	10	10000	3	1	0	3	0
18	160	10	10000	3	1	0	3	0
19	160	10	10000	3	1	0	3	0
19	161	10	10000	3	1	0	3	0
20	163	10	10000	3	1	0	3	0
21	164	10	10000	3	1	0	3	0
21	165	10	10000	3	1	0	3	0
19	166	10	10000	3	1	0	3	0
19	167	10	10000	3	1	0	3	0
18	168	10	10000	3	1	0	3	0
18	169	10	10000	3	1	0	3	0
18	170	10	10000	3	1	0	3	0
18	170	10	10000	3	1	0	3	0
17	171	10	10000	3	1	0	3	0
17	173	10	10000	3	1	0	3	0
16	174	10	10000	3	1	0	3	0
15	175	10	10000	3	1	0	3	0
19	176	10	10000	3	1	0	3	0
19	177	10	10000	3	1	0	3	0
20	178	10	10000	3	1	0	3	0
20	179	10	10000	3	1	0	3	0
20	180	10	10000	3	1	0	3	0
19	180	10	10000	3	1	0	3	0
20	181	10	10000	3	1	0	3	0
22	183	10	10000	3	1	0	3	0
24	184	10	10000	3	1	0	3	0
24	185	10	10000	3	1	0	3	0
21	186	10	10000	3	1	0	3	0
22	187	10	10000	3	1	0	3	0
23	188	10	10000	3	1	0	3	0
23	189	10	10000	3	1	0	3	0
25	190	10	10000	3	1	0	3	0
25	190	10	10000	3	1	0	3	0
25	191	10	10000	3	1	0	3	0
23	193	10	10000	3	1	0	3	0
23	194	10	10000	3	1	0	3	0
22	195	10	10000	3	1	0	3	0
24	196	10	10000	3	1	0	3	0
23	197	10	10000	3	1	0	3	0
23	198	10	10000	3	1	0	3	0
23	199	10	10000	3	1	0	3	0
24	200	10	10000	3	1	0	3	0
24	200	10	10000	3	1	0	3	0
23	201	10	10000	3	1	0	3	0
25	203	10	10000	3	1	0	3	0
25	204	10	10000	3	1	0	3	0
27	205	10	10000	3	1	0	3	0
25	206	10	10000	3	1	0	3	0
24	207	10	10000	3	1	0	3	0
24	208	10	10000	3	1	0	3	0
25	209	10	10000	3	1	0	3	0
25	210	10	10000	3	1	0	3	0
24	210	10	10000	3	1	0	3	0
23	211	10	10000	3	1	0	3	0
22	213	10	10000	3	1	0	3	0
21	214	10	10000	3	1	0	3	0
20	215	10	10000	3	1	0	3	0
21	216	10	10000	3	1	0	3	0
20	217	10	10000	3	1	0	3	0
19	218	10	10000	3	1	0	3	0
19	219	10	10000	3	1	0	3	0
19	220	10	10000	3	1	0	3	0
19	220	10	10000	3	1	0	3	0
19	221	10	10000	3	1	0	3	0
19	223	10	10000	3	1	0	3	0
19	224	10	10000	3	1	0	3	0
19	225	10	10000	3	1	0	3	0
17	226	10	10000	3	1	0	3	0
19	227	10	10000	3	1	0	3	0
20	228	10	10000	3	1	0	3	0
21	229	10	10000	3	1	0	3	0
21	230	10	10000	3	1	0	3	0
21	230	10	10000	3	1	0	3	0
20	231	10	10000	3	1	0	3	0
20	233	10	10000	3	1	0	3	0
19	234	10	10000	3	1	0	3	0
18	235	10	10000	3	1	0	3	0
19	236	10	10000	3	1	0	3	0
18	237	10	10000	3	1	0	3	0
18	238	10	10000	3	1	0	3	0
18	239	10	10000	3	1	0	3	0
17	240	10	10000	3	1	0	3	0
17	240	10	10000	3	1	0	3	0
16	241	10	10000	3	1	0	3	0
17	243	10	10000	3	1	0	3	0
18	244	10	10000	3	1	0	3	0
19	245	10	10000	3	1	0	3	0
16	246	10	10000	3	1	0	3	0
18	247	10	10000	3	1	0	3	0
20	248	10	10000	3	1	0	3	0
19	249	10	10000	3	1	0	3	0
19	250	10	10000	3	1	0	3	0
19	250	10	10000	3	1	0	3	0
19	251	10	10000	3	1	0	3	0
18	253	10	10000	3	1	0	3	0
18	254	10	10000	3	1	0	3	0
17	255	10	10000	3	1	0	3	0
19	256	10	10000	3	1	0	3	0
19	257	10	10000	3	1	0	3	0
18	258	10	10000	3	1	0	3	0
17	259	10	10000	3	1	0	3	0
17	260	10	10000	3	1	0	3	0
19	260	10	10000	3	1	0	3	0
22	261	10	10000	3	1	0	3	0
29	263	10	10000	3	1	0	3	0
36	264	10	10000	3	1	0	3	0
42	265	10	10000	3	1	0	3	0
45	266	10	10000	3	1	0	3	0
48	267	10	10000	3	1	0	3	0
51	268	10	10000	3	1	0	3	0
54	269	10	10000	3	1	0	3	0
56	270	10	10000	3	1	0	3	0
58	270	10	10000	3	1	0	3	0
60	271	10	10000	3	1	0	3	0
60	273	10	10000	3	1	0	3	0
60	274	10	10000	3	1	0	3	0
60	275	10	10000	3	1	0	3	0
60	276	10	10000	3	1	0	3	0
57	277	10	10000	3	1	0	3	0
55	278	10	10000	3	1	0	3	0
53	279	10	10000	3	1	0	3	0
52	280	10	10000	3	1	0	3	0
49	280	10	10000	3	1	0	3	0
47	281	10	10000	3	1	0	3	0
45	283	10	10000	3	1	0	3	0
44	284	10	10000	3	1	0	3	0
44	285	10	10000	3	1	0	3	0
43	286	10	10000	3	1	0	3	0
43	287	10	10000	3	1	0	3	0
44	288	10	10000	3	1	0	3	0
45	289	10	10000	3	1	0	3	0
45	290	10	10000	3	1	0	3	0
47	290	10	10000	3	1	0	3	0
48	291	10	10000	3	1	0	3	0
48	293	10	10000	3	1	0	3	0
49	294	10	10000	3	1	0	3	0
50	295	10	10000	3	1	0	3	0
52	296	10	10000	3	1	0	3	0
52	297	10	10000	3	1	0	3	0
50	298	10	10000	3	1	0	3	0
48	299	10	10000	3	1	0	3	0
48	300	10	10000	3	1	0	3	0
48	300	10	10000	3	1	0	3	0
49	301	10	10000	3	1	0	3	0
50	303	10	10000	3	1	0	3	0
53	304	10	10000	3	1	0	3	0
56	305	10	10000	3	1	0	3	0
55	306	10	10000	3	1	0	3	0
56	307	10	10000	3	1	0	3	0
56	308	10	10000	3	1	0	3	0
56	309	10	10000	3	1	0	3	0
57	310	10	10000	3	1	0	3	0
58	310	10	10000	3	1	0	3	0
60	311	10	10000	3	1	0	3	0
60	313	10	10000	3	1	0	3	0
59	314	10	10000	3	1	0	3	0
58	315	10	10000	3	1	0	3	0
60	316	10	10000	3	1	0	3	0
59	317	10	10000	3	1	0	3	0
57	318	10	10000	3	1	0	3	0
56	319	10	10000	3	1	0	3	0
55	320	10	10000	3	1	0	3	0
53	320	10	10000	3	1	0	3	0
52	321	10	10000	3	1	0	3	0
52	323	10	10000	3	1	0	3	0
52	324	10	10000	3	1	0	3	0
52	325	10	10000	3	1	0	3	0
49	326	10	10000	3	1	0	3	0
48	327	10	10000	3	1	0	3	0
49	328	10	10000	3	1	0	3	0
49	329	10	10000	3	1	0	3	0
49	330	10	10000	3	1	0	3	0
49	330	10	10000	3	1	0	3	0
49	331	10	10000	3	1	0	3	0
46	333	10	10000	3	1	0	3	0
44	334	10	10000	3	1	0	3	0
43	335	10	10000	3	1	0	3	0
43	336	10	10000	3	1	0	3	0
41	337	10	10000	3	1	0	3	0
39	338	10	10000	3	1	0	3	0
37	339	10	10000	3	1	0	3	0
35	340	10	10000	3	1	0	3	0
34	340	10	10000	3	1	0	3	0
32	341	10	10000	3	1	0	3	0
32	343	10	10000	3	1	0	3	0
32	344	10	10000	3	1	0	3	0
33	345	10	10000	3	1	0	3	0
31	346	10	10000	3	1	0	3	0
32	347	10	10000	3	1	0	3	0
31	348	10	10000	3	1	0	3	0
31	349	10	10000	3	1	0	3	0
30	350	10	10000	3	1	0	3	0
29	350	10	10000	3	1	0	3	0
30	351	10	10000	3	1	0	3	0
31	353	10	10000	3	1	0	3	0
31	354	10	10000	3	1	0	3	0
33	355	10	10000	3	1	0	3	0
38	356	10	10000	3	1	0	3	0
39	357	10	10000	3	1	0	3	0
41	358	10	10000	3	1	0	3	0
42	359	10	10000	3	1	0	3	0
44	360	10	10000	3	1	0	3	0
45	360	10	10000	3	1	0	3	0
46	361	10	10000	3	1	0	3	0
47	363	10	10000	3	1	0	3	0
50	364	10	10000	3	1	0	3	0
51	365	10	10000	3	1	0	3	0
51	366	10	10000	3	1	0	3	0
53	367	10	10000	3	1	0	3	0
57	368	10	10000	3	1	0	3	0
60	369	10	10000	3	1	0	3	0
62	370	10	10000	3	1	0	3	0
65	370	10	10000	3	1	0	3	0
68	371	10	10000	3	1	0	3	0
71	373	10	10000	3	1	0	3	0
75	374	10	10000	3	1	0	3	0
77	375	10	10000	3	1	0	3	0
80	376	10	10000	3	1	0	3	0
81	377	10	10000	3	1	0	3	0
82	378	10	10000	3	1	0	3	0
84	379	10	10000	3	1	0	3	0
86	380	10	10000	3	1	0	3	0
88	380	10	10000	3	1	0	3	0
89	381	10	10000	3	1	0	3	0
92	383	10	10000	3	1	0	3	0
94	384	10	10000	3	1	0	3	0
96	385	10	10000	3	1	0	3	0
94	386	10	10000	3	1	0	3	0
94	387	10	10000	3	1	0	3	0
91	388	10	10000	3	1	0	3	0
87	389	10	10000	3	1	0	3	0
85	390	10	10000	3	1	0	3	0
82	390	10	10000	3	1	0	3	0
80	391	10	10000	3	1	0	3	0
76	393	10	10000	3	1	0	3	0
74	394	10	10000	3	1	0	3	0
74	395	10	10000	3	1	0	3	0
77	396	10	10000	3	1	0	3	0
79	397	10	10000	3	1	0	3	0
80	398	10	10000	3	1	0	3	0
79	399	10	10000	3	1	0	3	0
80	400	10	10000	3	1	0	3	0
80	400	10	10000	3	1	0	3	0
81	401	10	10000	3	1	0	3	0
83	403	10	10000	3	1	0	3	0
84	404	10	10000	3	1	0	3	0
86	405	10	10000	3	1	0	3	0
86	406	10	10000	3	1	0	3	0
88	407	10	10000	3	1	0	3	0
90	408	10	10000	3	1	0	3	0
92	409	10	10000	3	1	0	3	0
95	410	10	10000	3	1	0	3	0
97	410	10	10000	3	1	0	3	0
100	411	10	10000	3	1	0	3	0
101	413	10	10000	3	1	0	3	0
102	414	10	10000	3	1	0	3	0
103	415	10	10000	3	1	0	3	0
107	416	10	10000	3	1	0	3	0
107	417	10	10000	3	1	0	3	0
108	418	10	10000	3	1	0	3	0
110	419	10	10000	3	1	0	3	0
114	420	10	10000	3	1	0	3	0
117	420	10	10000	3	1	0	3	0
119	421	10	10000	3	1	0	3	0
120	423	10	10000	3	1	0	3	0
120	424	10	10000	3	1	0	3	0
118	425	10	10000	3	1	0	3	0
114	426	10	10000	3	1	0	3	0
113	427	10	10000	3	1	0	3	0
111	428	10	10000	3	1	0	3	0
108	429	10	10000	3	1	0	3	0
107	430	10	10000	3	1	0	3	0
104	430	10	10000	3	1	0	3	0
101	431	10	10000	3	1	0	3	0
97	433	10	10000	3	1	0	3	0
93	434	10	10000	3	1	0	3	0
89	435	10	10000	3	1	0	3	0
87	436	10	10000	3	1	0	3	0
83	437	10	10000	3	1	0	3	0
80	438	10	10000	3	1	0	3	0
76	439	10	10000	3	1	0	3	0
73	440	10	10000	3	1	0	3	0
71	440	10	10000	3	1	0	3	0
70	441	10	10000	3	1	0	3	0
70	443	10	10000	3	1	0	3	0
69	444	10	10000	3	1	0	3	0
70	445	10	10000	3	1	0	3	0
68	446	10	10000	3	1	0	3	0
68	447	10	10000	3	1	0	3	0
66	448	10	10000	3	1	0	3	0
63	449	10	10000	3	1	0	3	0
61	450	10	10000	3	1	0	3	0
61	450	10	10000	3	1	0	3	0
61	451	10	10000	3	1	0	3	0
59	453	10	10000	3	1	0	3	0
59	454	10	10000	3	1	0	3	0
61	455	10	10000	3	1	0	3	0
63	456	10	10000	3	1	0	3	0
61	457	10	10000	3	1	0	3	0
58	458	10	10000	3	1	0	3	0
55	459	10	10000	3	1	0	3	0
53	460	10	10000	3	1	0	3	0
52	460	10	10000	3	1	0	3	0
51	461	10	10000	3	1	0	3	0
51	463	10	10000	3	1	0	3	0
50	464	10	10000	3	1	0	3	0
49	465	10	10000	3	1	0	3	0
45	466	10	10000	3	1	0	3	0
44	467	10	10000	3	1	0	3	0
43	468	10	10000	3	1	0	3	0
41	469	10	10000	3	1	0	3	0
40	470	10	10000	3	1	0	3	0
38	470	10	10000	3	1	0	3	0
37	471	10	10000	3	1	0	3	0
37	473	10	10000	3	1	0	3	0
36	474	10	10000	3	1	0	3	0
36	475	10	10000	3	1	0	3	0
39	476	10	10000	3	1	0	3	0
39	477	10	10000	3	1	0	3	0
38	478	10	10000	3	1	0	3	0
36	479	10	10000	3	1	0	3	0
35	480	10	10000	3	1	0	3	0
33	480	10	10000	3	1	0	3	0
32	481	10	10000	3	1	0	3	0
32	483	10	10000	3	1	0	3	0
32	484	10	10000	3	1	0	3	0
32	485	10	10000	3	1	0	3	0
29	486	10	10000	3	1	0	3	0
28	487	10	10000	3	1	0	3	0
28	488	10	10000	3	1	0	3	0
27	489	10	10000	3	1	0	3	0
26	490	10	10000	3	1	0	3	0
25	490	10	10000	3	1	0	3	0
25	491	10	10000	3	1	0	3	0
23	493	10	10000	3	1	0	3	0
22	494	10	10000	3	1	0	3	0
20	495	10	10000	3	1	0	3	0
22	496	10	10000	3	1	0	3	0
22	497	10	10000	3	1	0	3	0
21	498	10	10000	3	1	0	3	0
20	499	10	10000	3	1	0	3	0
20	500	10	10000	3	1	0	3	0
20	500	10	10000	3	1	0	3	0
20	501	10	10000	3	1	0	3	0
21	503	10	10000	3	1	0	3	1
22	504	10	10000	3	1	0	3	1
23	505	10	10000	3	1	0	3	1
20	506	10	10000	3	1	0	3	1
21	507	10	10000	3	1	0	3	1
20	508	10	10000	3	1	0	3	1
20	509	10	10000	3	1	0	3	1
20	510	10	10000	3	1	0	3	1
20	510	10	10000	3	1	0	3	1
20	511	10	10000	3	1	0	3	1
18	513	10	10000	3	1	0	3	1
18	514	10	10000	3	1	0	3	1
18	515	10	10000	3	1	0	3	1
19	516	10	10000	3	1	0	3	1
18	517	10	10000	3	1	0	3	1
18	518	10	10000	3	1	0	3	1
17	519	10	10000	3	1	0	3	1
17	520	10	10000	3	1	0	3	1
19	520	10	10000	3	1	0	3	1
18	521	10	10000	3	1	0	3	1
18	523	10	10000	3	1	0	3	1
18	524	10	10000	3	1	0	3	1
18	525	10	10000	3	1	0	3	1
16	526	10	10000	3	1	0	3	1
15	527	10	10000	3	1	0	3	1
15	528	10	10000	3	1	0	3	1
17	529	10	10000	3	1	0	3	1
16	530	10	10000	3	1	0	3	1
16	530	10	10000	3	1	0	3	1
16	531	10	10000	3	1	0	3	1
15	533	10	10000	3	1	0	3	1
14	534	10	10000	3	1	0	3	1
14	535	10	10000	3	1	0	3	1
17	536	10	10000	3	1	0	3	1
16	537	10	10000	3	1	0	3	1
16	538	10	10000	3	1	0	3	1
16	539	10	10000	3	1	0	3	1
14	540	10	10000	3	1	0	3	1
15	540	10	10000	3	1	0	3	1
14	541	10	10000	3	1	0	3	1
14	543	10	10000	3	1	0	3	1
14	544	10	10000	3	1	0	3	1
15	545	10	10000	3	1	0	3	1
12	546	10	10000	3	1	0	3	1
12	547	10	10000	3	1	0	3	1
12	548	10	10000	3	1	0	3	1
12	549	10	10000	3	1	0	3	1
11	550	10	10000	3	1	0	3	1
12	550	10	10000	3	1	0	3	1
13	551	10	10000	3	1	0	3	1
13	553	10	10000	3	1	0	3	0
13	554	10	10000	3	1	0	3	0
12	555	10	10000	3	1	0	3	0
14	556	10	10000	3	1	0	3	0
13	557	10	10000	3	1	0	3	0
13	558	10	10000	3	1	0	3	0
16	559	10	10000	3	1	0	3	0
20	560	10	10000	3	1	0	3	0
24	560	10	10000	3	1	0	3	0
26	561	10	10000	3	1	0	3	0
29	563	10	10000	3	1	0	3	0
31	564	10	10000	3	1	0	3	0
32	565	10	10000	3	1	0	3	0
30	566	10	10000	3	1	0	3	0
32	567	10	10000	3	1	0	3	0
34	568	10	10000	3	1	0	3	0
36	569	10	10000	3	1	0	3	0
37	570	10	10000	3	1	0	3	0
38	570	10	10000	3	1	0	3	0
39	571	10	10000	3	1	0	3	0
38	573	10	10000	3	1	0	3	0
36	574	10	10000	3	1	0	3	0
34	575	10	10000	3	1	0	3	0
35	576	10	10000	3	1	0	3	0
34	577	10	10000	3	1	0	3	0
34	578	10	10000	3	1	0	3	0
34	579	10	10000	3	1	0	3	0
33	580	10	10000	3	1	0	3	0
32	580	10	10000	3	1	0	3	0
31	581	10	10000	3	1	0	3	0
41	583	10	10000	3	1	0	3	0
48	584	10	10000	3	1	0	3	0
49	585	10	10000	3	1	0	3	0
51	586	10	10000	3	1	0	3	0
65	587	10	10000	3	1	0	3	0
68	588	10	10000	3	1	0	3	0
83	589	10	10000	3	1	0	3	0
104	590	10	10000	3	1	0	3	0
147	590	10	10000	3	1	0	3	0
174	591	10	10000	3	1	0	3	0
183	593	10	10000	3	1	0	3	0
196	594	10	10000	3	1	0	3	0
207	595	10	10000	3	1	0	3	0
215	596	10	10000	3	1	0	3	0
228	597	10	10000	3	1	0	3	0
235	598	10	10000	3	1	0	3	0
245	599	10	10000	3	1	0	3	0
261	600	10	10000	3	1	0	3	0
272	600	10	10000	3	1	0	3	0
312	601	10	10000	3	1	0	3	0
340	603	10	10000	3	1	0	3	0
338	604	10	10000	3	1	0	3	0
327	605	10	10000	3	1	0	3	0
311	606	10	10000	3	1	0	3	0
333	607	10	10000	3	1	0	3	0
378	608	10	10000	3	1	0	3	0
419	609	10	10000	3	1	0	3	0
445	610	10	10000	3	1	0	3	0
490	610	10	10000	3	1	0	3	0
510	611	10	10000	3	1	0	3	0
532	613	10	10000	3	1	0	3	0
614	614	10	10000	3	1	0	3	0
646	615	10	10000	3	1	0	3	0
673	616	10	10000	3	1	0	3	0
756	617	10	10000	3	1	0	3	0
836	618	10	10000	3	1	0	3	0
890	619	10	10000	3	1	0	3	0
932	620	10	10000	3	1	0	3	0
969	620	10	10000	3	1	0	3	0
996	621	10	10000	3	1	0	3	0
998	623	10	10000	3	1	0	3	0
976	624	10	10000	3	1	0	3	0
943	625	10	10000	3	1	0	3	0
899	626	10	10000	3	1	0	3	0
858	627	10	10000	3	1	0	3	0
818	628	10	10000	3	1	0	3	0
783	629	10	10000	3	1	0	3	0
747	630	10	10000	3	1	0	3	0
712	630	10	10000	3	1	0	3	0
679	631	10	10000	3	1	0	3	0
649	633	10	10000	3	1	0	3	0
624	634	10	10000	3	1	0	3	0
601	635	10	10000	3	1	0	3	0
581	636	10	10000	3	1	0	3	0
566	637	10	10000	3	1	0	3	0
557	638	10	10000	3	1	0	3	0
549	639	10	10000	3	1	0	3	0
542	640	10	10000	3	1	0	3	0
530	640	10	10000	3	1	0	3	0
508	641	10	10000	3	1	0	3	0
495	643	10	10000	3	1	0	3	0
491	644	10	10000	3	1	0	3	0
488	645	10	10000	3	1	0	3	0
475	646	10	10000	3	1	0	3	0
457	647	10	10000	3	1	0	3	0
438	648	10	10000	3	1	0	3	0
420	649	10	10000	3	1	0	3	0
408	650	10	10000	3	1	0	3	0
393	650	10	10000	3	1	0	3	0
379	651	10	10000	3	1	0	3	0
365	653	10	10000	3	1	0	3	0
350	654	10	10000	3	1	0	3	0
334	655	10	10000	3	1	0	3	0
323	656	10	10000	3	1	0	3	0
309	657	10	10000	3	1	0	3	0
295	658	10	10000	3	1	0	3	0
283	659	10	10000	3	1	0	3	0
272	660	10	10000	3	1	0	3	0
263	660	10	10000	3	1	0	3	0
251	661	10	10000	3	1	0	3	0
242	663	10	10000	3	1	0	3	0
237	664	10	10000	3	1	0	3	0
235	665	10	10000	3	1	0	3	0
234	666	10	10000	3	1	0	3	0
235	667	10	10000	3	1	0	3	0
237	668	10	10000	3	1	0	3	0
242	669	10	10000	3	1	0	3	0
247	670	10	10000	3	1	0	3	0
252	670	10	10000	3	1	0	3	0
257	671	10	10000	3	1	0	3	0
261	673	10	10000	3	1	0	3	0
264	674	10	10000	3	1	0	3	0
262	675	10	10000	3	1	0	3	0
258	676	10	10000	3	1	0	3	0
248	677	10	10000	3	1	0	3	0
237	678	10	10000	3	1	0	3	0
225	679	10	10000	3	1	0	3	0
215	680	10	10000	3	1	0	3	0
207	680	10	10000	3	1	0	3	0
198	681	10	10000	3	1	0	3	0
192	683	10	10000	3	1	0	3	0
184	684	10	10000	3	1	0	3	0
176	685	10	10000	3	1	0	3	0
166	686	10	10000	3	1	0	3	0
160	687	10	10000	3	1	0	3	0
157	688	10	10000	3	1	0	3	0
155	689	10	10000	3	1	0	3	0
153	690	10	10000	3	1	0	3	0
152	690	10	10000	3	1	0	3	0
151	691	10	10000	3	1	0	3	0
147	693	10	10000	3	1	0	3	0
142	694	10	10000	3	1	0	3	0
136	695	10	10000	3	1	0	3	0
134	696	10	10000	3	1	0	3	0
134	707	10	10000	3	1	0	3	0
135	708	10	10000	3	1	0	3	0
135	709	10	10000	3	1	0	3	0
138	710	10	10000	3	1	0	3	0
142	711	10	10000	3	1	0	3	0
148	712	10	10000	3	1	0	3	0
152	713	10	10000	3	1	0	3	0
153	714	10	10000	3	1	0	3	0
152	715	10	10000	3	1	0	3	0
145	716	10	10000	3	1	0	3	0
141	717	10	10000	3	1	0	3	0
135	718	10	10000	3	1	0	3	0
130	716	10	10000	3	1	0	3	0
125	717	10	10000	3	1	0	3	0
119	718	10	10000	3	1	0	3	0
114	719	10	10000	3	1	0	3	0
110	720	10	10000	3	1	0	3	0
106	721	10	10000	3	1	0	3	0
104	722	10	10000	3	1	0	3	0
106	723	10	10000	3	1	0	3	0
107	724	10	10000	3	1	0	3	0
110	725	10	10000	3	1	0	3	0
114	727	10	10000	3	1	0	3	0
118	728	10	10000	3	1	0	3	0
121	729	10	10000	3	1	0	3	0
124	730	10	10000	3	1	0	3	0
127	731	10	10000	3	1	0	3	0
129	732	10	10000	3	1	0	3	0
129	733	10	10000	3	1	0	3	0
125	734	10	10000	3	1	0	3	0
121	735	10	10000	3	1	0	3	0
116	736	10	10000	3	1	0	3	0
112	732	10	10000	3	1	0	3	0
107	733	10	10000	3	1	0	3	0
104	734	10	10000	3	1	0	3	0
101	735	10	10000	3	1	0	3	0
99	736	10	10000	3	1	0	3	0
97	737	10	10000	3	1	0	3	0
92	738	10	10000	3	1	0	3	0
91	739	10	10000	3	1	0	3	0
87	740	10	10000	3	1	0	3	0
88	741	10	10000	3	1	0	3	0
91	742	10	10000	3	1	0	3	0
96	743	10	10000	3	1	0	3	0
98	743	10	10000	3	1	0	3	0
98	744	10	10000	3	1	0	3	0
99	745	10	10000	3	1	0	3	0
97	746	10	10000	3	1	0	3	0
93	748	10	10000	3	1	0	3	0
90	749	10	10000	3	1	0	3	0
88	750	10	10000	3	1	0	3	0
88	751	10	10000	3	1	0	3	0
88	752	10	10000	3	1	0	3	0
88	753	10	10000	3	1	0	3	0
88	755	10	10000	3	1	0	3	0
88	756	10	10000	3	1	0	3	0
87	757	10	10000	3	1	0	3	0
86	758	10	10000	3	1	0	3	0
85	759	10	10000	3	1	0	3	0
85	760	10	10000	3	1	0	3	0
81	759	10	10000	3	1	0	3	0
79	760	10	10000	3	1	0	3	0
78	761	10	10000	3	1	0	3	0
77	762	10	10000	3	1	0	3	0
75	766	10	10000	3	1	0	3	0
73	767	10	10000	3	1	0	3	0
73	768	10	10000	3	1	0	3	0
70	769	10	10000	3	1	0	3	0
68	770	10	10000	3	1	0	3	0
63	771	10	10000	3	1	0	3	0
61	770	10	10000	3	1	0	3	0
59	771	10	10000	3	1	0	3	0
59	772	10	10000	3	1	0	3	0
59	773	10	10000	3	1	0	3	0
59	774	10	10000	3	1	0	3	0
61	775	10	10000	3	1	0	3	0
63	777	10	10000	3	1	0	3	0
64	778	10	10000	3	1	0	3	0
62	779	10	10000	3	1	0	3	0
62	780	10	10000	3	1	0	3	0
60	781	10	10000	3	1	0	3	0
58	782	10	10000	3	1	0	3	0
57	782	10	10000	3	1	0	3	0
59	783	10	10000	3	1	0	3	0
63	784	10	10000	3	1	0	3	0
67	785	10	10000	3	1	0	3	0
68	786	10	10000	3	1	0	3	0
70	787	10	10000	3	1	0	3	0
74	788	10	10000	3	1	0	3	0
71	789	10	10000	3	1	0	3	0
74	790	10	10000	3	1	0	3	0
79	791	10	10000	3	1	0	3	0
80	792	10	10000	3	1	0	3	0
77	793	10	10000	3	1	0	3	0
75	793	10	10000	3	1	0	3	0
72	794	10	10000	3	1	0	3	0
70	795	10	10000	3	1	0	3	0
68	796	10	10000	3	1	0	3	0
66	798	10	10000	3	1	0	3	0
65	799	10	10000	3	1	0	3	0
63	800	10	10000	3	1	0	3	0
62	801	10	10000	3	1	0	3	0
62	802	10	10000	3	1	0	3	0
64	803	10	10000	3	1	0	3	0
67	805	10	10000	3	1	0	3	0
69	806	10	10000	3	1	0	3	0
71	807	10	10000	3	1	0	3	0
72	808	10	10000	3	1	0	3	0
72	809	10	10000	3	1	0	3	0
70	810	10	10000	3	1	0	3	0
69	809	10	10000	3	1	0	3	0
69	810	10	10000	3	1	0	3	0
72	811	10	10000	3	1	0	3	0
79	812	10	10000	3	1	0	3	0
86	816	10	10000	3	1	0	3	0
87	817	10	10000	3	1	0	3	0
84	818	10	10000	3	1	0	3	0
85	819	10	10000	3	1	0	3	0
87	820	10	10000	3	1	0	3	0
92	821	10	10000	3	1	0	3	0
96	817	10	10000	3	1	0	3	0
99	818	10	10000	3	1	0	3	0
102	819	10	10000	3	1	0	3	0
104	820	10	10000	3	1	0	3	0
106	821	10	10000	3	1	0	3	0
107	822	10	10000	3	1	0	3	0
106	823	10	10000	3	1	0	3	0
103	824	10	10000	3	1	0	3	0
99	825	10	10000	3	1	0	3	0
92	826	10	10000	3	1	0	3	0
90	827	10	10000	3	1	0	3	0
89	828	10	10000	3	1	0	3	0
89	829	10	10000	3	1	0	3	0
88	830	10	10000	3	1	0	3	0
84	831	10	10000	3	1	0	3	0
82	832	10	10000	3	1	0	3	0
78	833	10	10000	3	1	0	3	0
74	834	10	10000	3	1	0	3	0
73	835	10	10000	3	1	0	3	0
72	836	10	10000	3	1	0	3	0
70	837	10	10000	3	1	0	3	0
69	838	10	10000	3	1	0	3	0
66	839	10	10000	3	1	0	3	0
63	840	10	10000	3	1	0	3	0
62	841	10	10000	3	1	0	3	0
62	842	10	10000	3	1	0	3	0
67	843	10	10000	3	1	0	3	0
68	844	10	10000	3	1	0	3	0
67	845	10	10000	3	1	0	3	0
62	846	10	10000	3	1	0	3	0
64	847	10	10000	3	1	0	3	0
62	848	10	10000	3	1	0	3	0
61	849	10	10000	3	1	0	3	0
60	850	10	10000	3	1	0	3	0
60	851	10	10000	3	1	0	3	0
60	852	10	10000	3	1	0	3	0
62	853	10	10000	3	1	0	3	0
62	854	10	10000	3	1	0	3	0
60	855	10	10000	3	1	0	3	0
63	856	10	10000	3	1	0	3	0
62	857	10	10000	3	1	0	3	0
60	858	10	10000	3	1	0	3	0
59	859	10	10000	3	1	0	3	0
58	860	10	10000	3	1	0	3	0
58	861	10	10000	3	1	0	3	0
56	862	10	10000	3	1	0	3	0
58	863	10	10000	3	1	0	3	0
57	864	10	10000	3	1	0	3	0
57	865	10	10000	3	1	0	3	0
54	866	10	10000	3	1	0	3	0
53	867	10	10000	3	1	0	3	0
51	868	10	10000	3	1	0	3	0
50	869	10	10000	3	1	0	3	0
50	870	10	10000	3	1	0	3	0
53	871	10	10000	3	1	0	3	0
56	872	10	10000	3	1	0	3	0
57	873	10	10000	3	1	0	3	0
57	874	10	10000	3	1	0	3	0
56	875	10	10000	3	1	0	3	0
56	876	10	10000	3	1	0	3	0
54	877	10	10000	3	1	0	3	0
52	878	10	10000	3	1	0	3	0
51	879	10	10000	3	1	0	3	0
50	880	10	10000	3	1	0	3	0
51	881	10	10000	3	1	0	3	0
51	882	10	10000	3	1	0	3	0
52	883	10	10000	3	1	0	3	0
50	884	10	10000	3	1	0	3	0
49	885	10	10000	3	1	0	3	0
45	886	10	10000	3	1	0	3	0
45	887	10	10000	3	1	0	3	0
46	888	10	10000	3	1	0	3	0
50	889	10	10000	3	1	0	3	0
51	890	10	10000	3	1	0	3	0
54	891	10	10000	3	1	0	3	0
56	892	10	10000	3	1	0	3	0
56	893	10	10000	3	1	0	3	0
55	894	10	10000	3	1	0	3	0
53	895	10	10000	3	1	0	3	0
54	896	10	10000	3	1	0	3	0
54	897	10	10000	3	1	0	3	0
53	898	10	10000	3	1	0	3	0
52	899	10	10000	3	1	0	3	0
51	900	10	10000	3	1	0	3	0
51	901	10	10000	3	1	0	3	0
52	902	10	10000	3	1	0	3	0
54	903	10	10000	3	1	0	3	0
56	904	10	10000	3	1	0	3	0
55	905	10	10000	3	1	0	3	0
51	906	10	10000	3	1	0	3	0
50	907	10	10000	3	1	0	3	0
51	908	10	10000	3	1	0	3	0
53	909	10	10000	3	1	0	3	0
54	910	10	10000	3	1	0	3	0
53	911	10	10000	3	1	0	3	0
54	912	10	10000	3	1	0	3	0
55	913	10	10000	3	1	0	3	0
53	914	10	10000	3	1	0	3	0
51	915	10	10000	3	1	0	3	0
51	916	10	10000	3	1	0	3	0
49	917	10	10000	3	1	0	3	0
49	918	10	10000	3	1	0	3	0
50	919	10	10000	3	1	0	3	0
51	920	10	10000	3	1	0	3	0
53	921	10	10000	3	1	0	3	0
54	922	10	10000	3	1	0	3	0
52	923	10	10000	3	1	0	3	0
50	924	10	10000	3	1	0	3	0
49	925	10	10000	3	1	0	3	0
45	926	10	10000	3	1	0	3	0
44	927	10	10000	3	1	0	3	0
44	928	10	10000	3	1	0	3	0
43	929	10	10000	3	1	0	3	0
44	930	10	10000	3	1	0	3	0
45	931	10	10000	3	1	0	3	0
45	932	10	10000	3	1	0	3	0
43	933	10	10000	3	1	0	3	0
42	934	10	10000	3	1	0	3	0
40	935	10	10000	3	1	0	3	0
40	936	10	10000	3	1	0	3	0
39	937	10	10000	3	1	0	3	0
37	938	10	10000	3	1	0	3	0
37	939	10	10000	3	1	0	3	0
36	940	10	10000	3	1	0	3	0
36	941	10	10000	3	1	0	3	0
35	942	10	10000	3	1	0	3	0
39	943	10	10000	3	1	0	3	0
43	944	10	10000	3	1	0	3	0
45	945	10	10000	3	1	0	3	0
47	946	10	10000	3	1	0	3	0
51	947	10	10000	3	1	0	3	0
52	948	10	10000	3	1	0	3	0
52	949	10	10000	3	1	0	3	0
50	950	10	10000	3	1	0	3	0
49	951	10	10000	3	1	0	3	0
49	952	10	10000	3	1	0	3	0
47	953	10	10000	3	1	0	3	0
44	954	10	10000	3	1	0	3	0
44	955	10	10000	3	1	0	3	0
45	956	10	10000	3	1	0	3	0
46	957	10	10000	3	1	0	3	0
48	958	10	10000	3	1	0	3	0
47	959	10	10000	3	1	0	3	0
48	960	10	10000	3	1	0	3	0
48	961	10	10000	3	1	0	3	0
48	962	10	10000	3	1	0	3	0
50	963	10	10000	3	1	0	3	0
51	964	10	10000	3	1	0	3	0
49	965	10	10000	3	1	0	3	0
45	966	10	10000	3	1	0	3	0
47	967	10	10000	3	1	0	3	0
45	968	10	10000	3	1	0	3	0
46	969	10	10000	3	1	0	3	0
48	970	10	10000	3	1	0	3	0
48	971	10	10000	3	1	0	3	0
49	972	10	10000	3	1	0	3	0
48	973	10	10000	3	1	0	3	0
46	974	10	10000	3	1	0	3	0
45	975	10	10000	3	1	0	3	0
48	976	10	10000	3	1	0	3	0
46	977	10	10000	3	1	0	3	0
44	978	10	10000	3	1	0	3	0
44	979	10	10000	3	1	0	3	0
42	980	10	10000	3	1	0	3	0
41	981	10	10000	3	1	0	3	0
40	982	10	10000	3	1	0	3	0
39	983	10	10000	3	1	0	3	0
38	984	10	10000	3	1	0	3	0
37	985	10	10000	3	1	0	3	0
32	986	10	10000	3	1	0	3	0
32	987	10	10000	3	1	0	3	0
34	988	10	10000	3	1	0	3	0
35	989	10	10000	3	1	0	3	0
38	990	10	10000	3	1	0	3	0
43	991	10	10000	3	1	0	3	0
45	992	10	10000	3	1	0	3	0
48	993	10	10000	3	1	0	3	0
52	994	10	10000	3	1	0	3	0
55	995	10	10000	3	1	0	3	0
58	996	10	10000	3	1	0	3	0
62	997	10	10000	3	1	0	3	0
64	998	10	10000	3	1	0	3	0
65	999	10	10000	3	1	0	3	0
67	1000	10	10000	3	1	0	3	0
20	2	10	10000	4	1	0	4	0
21	3	10	10000	4	1	0	4	0
20	4	10	10000	4	1	0	4	0
20	5	10	10000	4	1	0	4	0
20	6	10	10000	4	1	0	4	0
20	7	10	10000	4	1	0	4	0
19	8	10	10000	4	1	0	4	0
20	9	10	10000	4	1	0	4	0
21	10	10	10000	4	1	0	4	0
20	11	10	10000	4	1	0	4	0
22	12	10	10000	4	1	0	4	0
21	13	10	10000	4	1	0	4	0
20	14	10	10000	4	1	0	4	0
21	15	10	10000	4	1	0	4	0
21	16	10	10000	4	1	0	4	0
20	17	10	10000	4	1	0	4	0
20	18	10	10000	4	1	0	4	0
20	19	10	10000	4	1	0	4	0
20	20	10	10000	4	1	0	4	0
22	21	10	10000	4	1	0	4	0
21	22	10	10000	4	1	0	4	0
23	23	10	10000	4	1	0	4	0
27	24	10	10000	4	1	0	4	0
30	25	10	10000	4	1	0	4	0
32	26	10	10000	4	1	0	4	0
33	27	10	10000	4	1	0	4	0
34	28	10	10000	4	1	0	4	0
34	29	10	10000	4	1	0	4	0
35	30	10	10000	4	1	0	4	0
35	31	10	10000	4	1	0	4	0
38	32	10	10000	4	1	0	4	0
39	33	10	10000	4	1	0	4	0
39	34	10	10000	4	1	0	4	0
38	35	10	10000	4	1	0	4	0
37	36	10	10000	4	1	0	4	0
35	37	10	10000	4	1	0	4	0
34	38	10	10000	4	1	0	4	0
35	39	10	10000	4	1	0	4	0
35	40	10	10000	4	1	0	4	0
34	41	10	10000	4	1	0	4	0
32	42	10	10000	4	1	0	4	0
31	43	10	10000	4	1	0	4	0
31	44	10	10000	4	1	0	4	0
33	45	10	10000	4	1	0	4	0
35	46	10	10000	4	1	0	4	0
36	47	10	10000	4	1	0	4	0
38	48	10	10000	4	1	0	4	0
38	49	10	10000	4	1	0	4	0
38	50	10	10000	4	1	0	4	0
39	51	10	10000	4	1	0	4	0
41	52	10	10000	4	1	0	4	0
41	53	10	10000	4	1	0	4	0
40	54	10	10000	4	1	0	4	0
40	55	10	10000	4	1	0	4	0
39	56	10	10000	4	1	0	4	0
39	57	10	10000	4	1	0	4	0
39	58	10	10000	4	1	0	4	0
40	59	10	10000	4	1	0	4	0
39	60	10	10000	4	1	0	4	0
41	61	10	10000	4	1	0	4	0
41	62	10	10000	4	1	0	4	0
46	63	10	10000	4	1	0	4	0
54	64	10	10000	4	1	0	4	0
60	65	10	10000	4	1	0	4	0
68	66	10	10000	4	1	0	4	0
76	67	10	10000	4	1	0	4	0
84	68	10	10000	4	1	0	4	0
91	69	10	10000	4	1	0	4	0
96	70	10	10000	4	1	0	4	0
99	71	10	10000	4	1	0	4	0
104	72	10	10000	4	1	0	4	0
105	73	10	10000	4	1	0	4	0
107	74	10	10000	4	1	0	4	0
111	75	10	10000	4	1	0	4	0
112	76	10	10000	4	1	0	4	0
111	77	10	10000	4	1	0	4	0
108	78	10	10000	4	1	0	4	0
105	79	10	10000	4	1	0	4	0
101	80	10	10000	4	1	0	4	0
97	81	10	10000	4	1	0	4	0
91	82	10	10000	4	1	0	4	0
87	83	10	10000	4	1	0	4	0
85	84	10	10000	4	1	0	4	0
84	85	10	10000	4	1	0	4	0
84	86	10	10000	4	1	0	4	0
85	87	10	10000	4	1	0	4	0
87	88	10	10000	4	1	0	4	0
89	89	10	10000	4	1	0	4	0
91	90	10	10000	4	1	0	4	0
92	91	10	10000	4	1	0	4	0
95	92	10	10000	4	1	0	4	0
98	93	10	10000	4	1	0	4	0
99	94	10	10000	4	1	0	4	0
100	95	10	10000	4	1	0	4	0
101	96	10	10000	4	1	0	4	0
101	97	10	10000	4	1	0	4	0
101	98	10	10000	4	1	0	4	0
104	99	10	10000	4	1	0	4	0
104	100	10	10000	4	1	0	4	0
104	101	10	10000	4	1	0	4	0
101	102	10	10000	4	1	0	4	0
100	103	10	10000	4	1	0	4	0
99	104	10	10000	4	1	0	4	0
99	105	10	10000	4	1	0	4	0
97	106	10	10000	4	1	0	4	0
94	107	10	10000	4	1	0	4	0
92	108	10	10000	4	1	0	4	0
88	109	10	10000	4	1	0	4	0
85	110	10	10000	4	1	0	4	0
84	111	10	10000	4	1	0	4	0
85	112	10	10000	4	1	0	4	0
83	113	10	10000	4	1	0	4	0
81	114	10	10000	4	1	0	4	0
77	115	10	10000	4	1	0	4	0
73	116	10	10000	4	1	0	4	0
71	117	10	10000	4	1	0	4	0
68	118	10	10000	4	1	0	4	0
66	119	10	10000	4	1	0	4	0
64	120	10	10000	4	1	0	4	0
62	121	10	10000	4	1	0	4	0
58	122	10	10000	4	1	0	4	0
56	123	10	10000	4	1	0	4	0
55	124	10	10000	4	1	0	4	0
53	125	10	10000	4	1	0	4	0
52	126	10	10000	4	1	0	4	0
50	127	10	10000	4	1	0	4	0
49	128	10	10000	4	1	0	4	0
47	129	10	10000	4	1	0	4	0
44	130	10	10000	4	1	0	4	0
43	131	10	10000	4	1	0	4	0
45	132	10	10000	4	1	0	4	0
45	133	10	10000	4	1	0	4	0
44	134	10	10000	4	1	0	4	0
44	135	10	10000	4	1	0	4	0
42	136	10	10000	4	1	0	4	0
40	137	10	10000	4	1	0	4	0
38	138	10	10000	4	1	0	4	0
37	139	10	10000	4	1	0	4	0
37	140	10	10000	4	1	0	4	0
39	141	10	10000	4	1	0	4	0
36	142	10	10000	4	1	0	4	0
36	143	10	10000	4	1	0	4	0
37	144	10	10000	4	1	0	4	0
37	145	10	10000	4	1	0	4	0
36	146	10	10000	4	1	0	4	0
35	147	10	10000	4	1	0	4	0
34	148	10	10000	4	1	0	4	0
33	149	10	10000	4	1	0	4	0
32	150	10	10000	4	1	0	4	0
31	151	10	10000	4	1	0	4	0
32	152	10	10000	4	1	0	4	0
32	153	10	10000	4	1	0	4	0
31	154	10	10000	4	1	0	4	0
32	155	10	10000	4	1	0	4	0
34	156	10	10000	4	1	0	4	0
34	157	10	10000	4	1	0	4	0
34	158	10	10000	4	1	0	4	0
35	159	10	10000	4	1	0	4	0
36	160	10	10000	4	1	0	4	0
38	161	10	10000	4	1	0	4	0
36	162	10	10000	4	1	0	4	0
35	163	10	10000	4	1	0	4	0
33	164	10	10000	4	1	0	4	0
33	165	10	10000	4	1	0	4	0
35	166	10	10000	4	1	0	4	0
36	167	10	10000	4	1	0	4	0
37	168	10	10000	4	1	0	4	0
35	169	10	10000	4	1	0	4	0
34	170	10	10000	4	1	0	4	0
32	171	10	10000	4	1	0	4	0
33	172	10	10000	4	1	0	4	0
31	173	10	10000	4	1	0	4	0
30	174	10	10000	4	1	0	4	0
29	175	10	10000	4	1	0	4	0
29	176	10	10000	4	1	0	4	0
29	177	10	10000	4	1	0	4	0
27	178	10	10000	4	1	0	4	0
26	179	10	10000	4	1	0	4	0
26	180	10	10000	4	1	0	4	0
26	181	10	10000	4	1	0	4	0
22	182	10	10000	4	1	0	4	0
22	183	10	10000	4	1	0	4	0
21	184	10	10000	4	1	0	4	0
21	185	10	10000	4	1	0	4	0
21	186	10	10000	4	1	0	4	0
20	187	10	10000	4	1	0	4	0
20	188	10	10000	4	1	0	4	0
19	189	10	10000	4	1	0	4	0
18	190	10	10000	4	1	0	4	0
17	191	10	10000	4	1	0	4	0
20	192	10	10000	4	1	0	4	0
20	193	10	10000	4	1	0	4	0
20	194	10	10000	4	1	0	4	0
20	195	10	10000	4	1	0	4	0
20	196	10	10000	4	1	0	4	0
20	197	10	10000	4	1	0	4	0
20	198	10	10000	4	1	0	4	0
22	199	10	10000	4	1	0	4	0
22	200	10	10000	4	1	0	4	0
22	201	10	10000	4	1	0	4	0
20	202	10	10000	4	1	0	4	0
19	203	10	10000	4	1	0	4	0
19	204	10	10000	4	1	0	4	0
19	205	10	10000	4	1	0	4	0
18	206	10	10000	4	1	0	4	0
19	207	10	10000	4	1	0	4	0
19	208	10	10000	4	1	0	4	0
18	209	10	10000	4	1	0	4	0
17	210	10	10000	4	1	0	4	0
17	211	10	10000	4	1	0	4	0
20	212	10	10000	4	1	0	4	0
21	213	10	10000	4	1	0	4	0
21	214	10	10000	4	1	0	4	0
21	215	10	10000	4	1	0	4	0
22	216	10	10000	4	1	0	4	0
23	217	10	10000	4	1	0	4	0
22	218	10	10000	4	1	0	4	0
25	219	10	10000	4	1	0	4	0
26	220	10	10000	4	1	0	4	0
25	221	10	10000	4	1	0	4	0
23	222	10	10000	4	1	0	4	0
23	223	10	10000	4	1	0	4	0
23	224	10	10000	4	1	0	4	0
22	225	10	10000	4	1	0	4	0
23	226	10	10000	4	1	0	4	0
24	227	10	10000	4	1	0	4	0
27	228	10	10000	4	1	0	4	0
27	229	10	10000	4	1	0	4	0
27	230	10	10000	4	1	0	4	0
27	231	10	10000	4	1	0	4	0
30	232	10	10000	4	1	0	4	0
31	233	10	10000	4	1	0	4	0
32	234	10	10000	4	1	0	4	0
31	235	10	10000	4	1	0	4	0
30	236	10	10000	4	1	0	4	0
30	237	10	10000	4	1	0	4	0
29	238	10	10000	4	1	0	4	0
30	239	10	10000	4	1	0	4	0
31	240	10	10000	4	1	0	4	0
32	241	10	10000	4	1	0	4	0
32	242	10	10000	4	1	0	4	0
37	243	10	10000	4	1	0	4	0
42	244	10	10000	4	1	0	4	0
46	245	10	10000	4	1	0	4	0
49	246	10	10000	4	1	0	4	0
50	247	10	10000	4	1	0	4	0
51	248	10	10000	4	1	0	4	0
51	249	10	10000	4	1	0	4	0
52	250	10	10000	4	1	0	4	0
53	251	10	10000	4	1	0	4	0
55	252	10	10000	4	1	0	4	0
54	253	10	10000	4	1	0	4	0
50	254	10	10000	4	1	0	4	0
49	255	10	10000	4	1	0	4	0
47	256	10	10000	4	1	0	4	0
45	257	10	10000	4	1	0	4	0
44	258	10	10000	4	1	0	4	0
43	259	10	10000	4	1	0	4	0
42	260	10	10000	4	1	0	4	0
42	261	10	10000	4	1	0	4	0
38	262	10	10000	4	1	0	4	0
37	263	10	10000	4	1	0	4	0
36	264	10	10000	4	1	0	4	0
37	265	10	10000	4	1	0	4	0
38	266	10	10000	4	1	0	4	0
39	267	10	10000	4	1	0	4	0
42	268	10	10000	4	1	0	4	0
43	269	10	10000	4	1	0	4	0
43	270	10	10000	4	1	0	4	0
43	271	10	10000	4	1	0	4	0
48	272	10	10000	4	1	0	4	0
49	273	10	10000	4	1	0	4	0
50	274	10	10000	4	1	0	4	0
50	275	10	10000	4	1	0	4	0
51	276	10	10000	4	1	0	4	0
51	277	10	10000	4	1	0	4	0
51	278	10	10000	4	1	0	4	0
52	279	10	10000	4	1	0	4	0
53	280	10	10000	4	1	0	4	0
54	281	10	10000	4	1	0	4	0
52	282	10	10000	4	1	0	4	0
51	283	10	10000	4	1	0	4	0
51	284	10	10000	4	1	0	4	0
51	285	10	10000	4	1	0	4	0
50	286	10	10000	4	1	0	4	0
51	287	10	10000	4	1	0	4	0
51	288	10	10000	4	1	0	4	0
51	289	10	10000	4	1	0	4	0
52	290	10	10000	4	1	0	4	0
53	291	10	10000	4	1	0	4	0
56	292	10	10000	4	1	0	4	0
58	293	10	10000	4	1	0	4	0
59	294	10	10000	4	1	0	4	0
58	295	10	10000	4	1	0	4	0
57	296	10	10000	4	1	0	4	0
56	297	10	10000	4	1	0	4	0
55	298	10	10000	4	1	0	4	0
53	299	10	10000	4	1	0	4	0
51	300	10	10000	4	1	0	4	0
49	301	10	10000	4	1	0	4	0
45	302	10	10000	4	1	0	4	0
47	303	10	10000	4	1	0	4	0
47	304	10	10000	4	1	0	4	0
48	305	10	10000	4	1	0	4	0
50	306	10	10000	4	1	0	4	0
50	307	10	10000	4	1	0	4	0
49	308	10	10000	4	1	0	4	0
47	309	10	10000	4	1	0	4	0
44	310	10	10000	4	1	0	4	0
43	311	10	10000	4	1	0	4	0
43	312	10	10000	4	1	0	4	0
42	313	10	10000	4	1	0	4	0
40	314	10	10000	4	1	0	4	0
39	315	10	10000	4	1	0	4	0
38	316	10	10000	4	1	0	4	0
37	317	10	10000	4	1	0	4	0
36	318	10	10000	4	1	0	4	0
35	319	10	10000	4	1	0	4	0
35	320	10	10000	4	1	0	4	0
35	321	10	10000	4	1	0	4	0
32	322	10	10000	4	1	0	4	0
31	323	10	10000	4	1	0	4	0
30	324	10	10000	4	1	0	4	0
30	325	10	10000	4	1	0	4	0
29	326	10	10000	4	1	0	4	0
28	327	10	10000	4	1	0	4	0
27	328	10	10000	4	1	0	4	0
25	329	10	10000	4	1	0	4	0
25	330	10	10000	4	1	0	4	0
25	331	10	10000	4	1	0	4	0
27	332	10	10000	4	1	0	4	0
27	333	10	10000	4	1	0	4	0
25	334	10	10000	4	1	0	4	0
25	335	10	10000	4	1	0	4	0
25	336	10	10000	4	1	0	4	0
26	337	10	10000	4	1	0	4	0
26	338	10	10000	4	1	0	4	0
28	339	10	10000	4	1	0	4	0
29	340	10	10000	4	1	0	4	0
30	341	10	10000	4	1	0	4	0
28	342	10	10000	4	1	0	4	0
29	343	10	10000	4	1	0	4	0
29	344	10	10000	4	1	0	4	0
31	345	10	10000	4	1	0	4	0
32	346	10	10000	4	1	0	4	0
33	347	10	10000	4	1	0	4	0
33	348	10	10000	4	1	0	4	0
33	349	10	10000	4	1	0	4	0
32	350	10	10000	4	1	0	4	0
33	351	10	10000	4	1	0	4	0
35	352	10	10000	4	1	0	4	0
33	353	10	10000	4	1	0	4	0
32	354	10	10000	4	1	0	4	0
31	355	10	10000	4	1	0	4	0
30	356	10	10000	4	1	0	4	0
29	357	10	10000	4	1	0	4	0
28	358	10	10000	4	1	0	4	0
27	359	10	10000	4	1	0	4	0
27	360	10	10000	4	1	0	4	0
27	361	10	10000	4	1	0	4	0
24	362	10	10000	4	1	0	4	0
24	363	10	10000	4	1	0	4	0
23	364	10	10000	4	1	0	4	0
23	365	10	10000	4	1	0	4	0
24	366	10	10000	4	1	0	4	0
25	367	10	10000	4	1	0	4	0
26	368	10	10000	4	1	0	4	0
25	369	10	10000	4	1	0	4	0
24	370	10	10000	4	1	0	4	0
23	371	10	10000	4	1	0	4	0
28	372	10	10000	4	1	0	4	0
30	373	10	10000	4	1	0	4	0
31	374	10	10000	4	1	0	4	0
31	375	10	10000	4	1	0	4	0
30	376	10	10000	4	1	0	4	0
29	377	10	10000	4	1	0	4	0
28	378	10	10000	4	1	0	4	0
28	379	10	10000	4	1	0	4	0
29	380	10	10000	4	1	0	4	0
30	381	10	10000	4	1	0	4	0
27	382	10	10000	4	1	0	4	0
26	383	10	10000	4	1	0	4	0
27	384	10	10000	4	1	0	4	0
27	385	10	10000	4	1	0	4	0
26	386	10	10000	4	1	0	4	0
26	387	10	10000	4	1	0	4	0
26	388	10	10000	4	1	0	4	0
25	389	10	10000	4	1	0	4	0
24	390	10	10000	4	1	0	4	0
23	391	10	10000	4	1	0	4	0
24	392	10	10000	4	1	0	4	0
24	393	10	10000	4	1	0	4	0
23	394	10	10000	4	1	0	4	0
22	395	10	10000	4	1	0	4	0
22	396	10	10000	4	1	0	4	0
21	397	10	10000	4	1	0	4	0
21	398	10	10000	4	1	0	4	0
22	399	10	10000	4	1	0	4	0
22	400	10	10000	4	1	0	4	0
22	401	10	10000	4	1	0	4	0
20	402	10	10000	4	1	0	4	0
20	403	10	10000	4	1	0	4	0
20	404	10	10000	4	1	0	4	0
20	405	10	10000	4	1	0	4	0
22	406	10	10000	4	1	0	4	0
22	407	10	10000	4	1	0	4	0
22	408	10	10000	4	1	0	4	0
20	409	10	10000	4	1	0	4	0
20	410	10	10000	4	1	0	4	0
20	411	10	10000	4	1	0	4	0
22	412	10	10000	4	1	0	4	0
21	413	10	10000	4	1	0	4	0
21	414	10	10000	4	1	0	4	0
20	415	10	10000	4	1	0	4	0
21	416	10	10000	4	1	0	4	0
23	417	10	10000	4	1	0	4	0
24	418	10	10000	4	1	0	4	0
24	419	10	10000	4	1	0	4	0
24	420	10	10000	4	1	0	4	0
24	421	10	10000	4	1	0	4	0
21	422	10	10000	4	1	0	4	0
21	423	10	10000	4	1	0	4	0
24	424	10	10000	4	1	0	4	0
28	425	10	10000	4	1	0	4	0
32	426	10	10000	4	1	0	4	0
34	427	10	10000	4	1	0	4	0
35	428	10	10000	4	1	0	4	0
36	429	10	10000	4	1	0	4	0
37	430	10	10000	4	1	0	4	0
37	431	10	10000	4	1	0	4	0
42	432	10	10000	4	1	0	4	0
42	433	10	10000	4	1	0	4	0
42	434	10	10000	4	1	0	4	0
42	435	10	10000	4	1	0	4	0
42	436	10	10000	4	1	0	4	0
43	437	10	10000	4	1	0	4	0
44	438	10	10000	4	1	0	4	0
45	439	10	10000	4	1	0	4	0
46	440	10	10000	4	1	0	4	0
48	441	10	10000	4	1	0	4	0
45	442	10	10000	4	1	0	4	0
46	443	10	10000	4	1	0	4	0
46	444	10	10000	4	1	0	4	0
46	445	10	10000	4	1	0	4	0
47	446	10	10000	4	1	0	4	0
46	447	10	10000	4	1	0	4	0
44	448	10	10000	4	1	0	4	0
42	449	10	10000	4	1	0	4	0
40	450	10	10000	4	1	0	4	0
38	451	10	10000	4	1	0	4	0
40	452	10	10000	4	1	0	4	0
41	453	10	10000	4	1	0	4	0
40	454	10	10000	4	1	0	4	0
38	455	10	10000	4	1	0	4	0
37	456	10	10000	4	1	0	4	0
36	457	10	10000	4	1	0	4	0
34	458	10	10000	4	1	0	4	0
34	459	10	10000	4	1	0	4	0
33	460	10	10000	4	1	0	4	0
35	461	10	10000	4	1	0	4	0
34	462	10	10000	4	1	0	4	0
33	463	10	10000	4	1	0	4	0
33	464	10	10000	4	1	0	4	0
34	465	10	10000	4	1	0	4	0
34	466	10	10000	4	1	0	4	0
33	467	10	10000	4	1	0	4	0
36	468	10	10000	4	1	0	4	0
37	469	10	10000	4	1	0	4	0
37	470	10	10000	4	1	0	4	0
38	471	10	10000	4	1	0	4	0
40	472	10	10000	4	1	0	4	0
39	473	10	10000	4	1	0	4	0
39	474	10	10000	4	1	0	4	0
37	475	10	10000	4	1	0	4	0
37	476	10	10000	4	1	0	4	0
36	477	10	10000	4	1	0	4	0
36	478	10	10000	4	1	0	4	0
36	479	10	10000	4	1	0	4	0
38	480	10	10000	4	1	0	4	0
40	481	10	10000	4	1	0	4	0
39	482	10	10000	4	1	0	4	0
39	483	10	10000	4	1	0	4	0
40	484	10	10000	4	1	0	4	0
38	485	10	10000	4	1	0	4	0
37	486	10	10000	4	1	0	4	0
35	487	10	10000	4	1	0	4	0
34	488	10	10000	4	1	0	4	0
34	489	10	10000	4	1	0	4	0
35	490	10	10000	4	1	0	4	0
36	491	10	10000	4	1	0	4	0
39	492	10	10000	4	1	0	4	0
38	493	10	10000	4	1	0	4	0
36	494	10	10000	4	1	0	4	0
35	495	10	10000	4	1	0	4	0
33	496	10	10000	4	1	0	4	0
32	497	10	10000	4	1	0	4	0
31	498	10	10000	4	1	0	4	0
30	499	10	10000	4	1	0	4	0
31	500	10	10000	4	1	0	4	0
32	501	10	10000	4	1	0	4	0
30	502	10	10000	4	1	0	4	1
31	503	10	10000	4	1	0	4	1
32	504	10	10000	4	1	0	4	1
31	505	10	10000	4	1	0	4	1
31	506	10	10000	4	1	0	4	1
30	507	10	10000	4	1	0	4	1
29	508	10	10000	4	1	0	4	1
27	509	10	10000	4	1	0	4	1
26	510	10	10000	4	1	0	4	1
25	511	10	10000	4	1	0	4	1
26	512	10	10000	4	1	0	4	1
26	513	10	10000	4	1	0	4	1
25	514	10	10000	4	1	0	4	1
23	515	10	10000	4	1	0	4	1
23	516	10	10000	4	1	0	4	1
22	517	10	10000	4	1	0	4	1
22	518	10	10000	4	1	0	4	1
23	519	10	10000	4	1	0	4	1
22	520	10	10000	4	1	0	4	1
22	521	10	10000	4	1	0	4	1
20	522	10	10000	4	1	0	4	1
19	523	10	10000	4	1	0	4	1
19	524	10	10000	4	1	0	4	1
19	525	10	10000	4	1	0	4	1
19	526	10	10000	4	1	0	4	1
19	527	10	10000	4	1	0	4	1
20	528	10	10000	4	1	0	4	1
19	529	10	10000	4	1	0	4	1
18	530	10	10000	4	1	0	4	1
19	531	10	10000	4	1	0	4	1
20	532	10	10000	4	1	0	4	1
20	533	10	10000	4	1	0	4	1
22	534	10	10000	4	1	0	4	1
20	535	10	10000	4	1	0	4	1
20	536	10	10000	4	1	0	4	1
19	537	10	10000	4	1	0	4	1
18	538	10	10000	4	1	0	4	1
19	539	10	10000	4	1	0	4	1
20	540	10	10000	4	1	0	4	1
19	541	10	10000	4	1	0	4	1
17	542	10	10000	4	1	0	4	1
16	543	10	10000	4	1	0	4	1
16	544	10	10000	4	1	0	4	1
16	545	10	10000	4	1	0	4	1
17	546	10	10000	4	1	0	4	1
17	547	10	10000	4	1	0	4	1
17	548	10	10000	4	1	0	4	1
17	549	10	10000	4	1	0	4	1
16	550	10	10000	4	1	0	4	1
15	551	10	10000	4	1	0	4	1
18	552	10	10000	4	1	0	4	0
20	553	10	10000	4	1	0	4	0
21	554	10	10000	4	1	0	4	0
20	555	10	10000	4	1	0	4	0
20	556	10	10000	4	1	0	4	0
19	557	10	10000	4	1	0	4	0
18	558	10	10000	4	1	0	4	0
19	559	10	10000	4	1	0	4	0
22	560	10	10000	4	1	0	4	0
24	561	10	10000	4	1	0	4	0
24	562	10	10000	4	1	0	4	0
27	563	10	10000	4	1	0	4	0
30	564	10	10000	4	1	0	4	0
33	565	10	10000	4	1	0	4	0
36	566	10	10000	4	1	0	4	0
39	567	10	10000	4	1	0	4	0
41	568	10	10000	4	1	0	4	0
42	569	10	10000	4	1	0	4	0
44	570	10	10000	4	1	0	4	0
44	571	10	10000	4	1	0	4	0
48	572	10	10000	4	1	0	4	0
52	573	10	10000	4	1	0	4	0
53	574	10	10000	4	1	0	4	0
52	575	10	10000	4	1	0	4	0
52	576	10	10000	4	1	0	4	0
52	577	10	10000	4	1	0	4	0
50	578	10	10000	4	1	0	4	0
50	579	10	10000	4	1	0	4	0
51	580	10	10000	4	1	0	4	0
59	581	10	10000	4	1	0	4	0
73	582	10	10000	4	1	0	4	0
85	583	10	10000	4	1	0	4	0
89	584	10	10000	4	1	0	4	0
98	585	10	10000	4	1	0	4	0
99	586	10	10000	4	1	0	4	0
113	587	10	10000	4	1	0	4	0
127	588	10	10000	4	1	0	4	0
129	589	10	10000	4	1	0	4	0
129	590	10	10000	4	1	0	4	0
142	591	10	10000	4	1	0	4	0
147	592	10	10000	4	1	0	4	0
164	593	10	10000	4	1	0	4	0
192	594	10	10000	4	1	0	4	0
224	595	10	10000	4	1	0	4	0
231	596	10	10000	4	1	0	4	0
236	597	10	10000	4	1	0	4	0
249	598	10	10000	4	1	0	4	0
262	599	10	10000	4	1	0	4	0
280	600	10	10000	4	1	0	4	0
299	601	10	10000	4	1	0	4	0
296	602	10	10000	4	1	0	4	0
301	603	10	10000	4	1	0	4	0
321	604	10	10000	4	1	0	4	0
317	605	10	10000	4	1	0	4	0
314	606	10	10000	4	1	0	4	0
319	607	10	10000	4	1	0	4	0
324	608	10	10000	4	1	0	4	0
325	609	10	10000	4	1	0	4	0
330	610	10	10000	4	1	0	4	0
397	611	10	10000	4	1	0	4	0
515	612	10	10000	4	1	0	4	0
602	613	10	10000	4	1	0	4	0
623	614	10	10000	4	1	0	4	0
634	615	10	10000	4	1	0	4	0
664	616	10	10000	4	1	0	4	0
655	617	10	10000	4	1	0	4	0
639	618	10	10000	4	1	0	4	0
641	619	10	10000	4	1	0	4	0
682	620	10	10000	4	1	0	4	0
735	621	10	10000	4	1	0	4	0
761	622	10	10000	4	1	0	4	0
766	623	10	10000	4	1	0	4	0
755	624	10	10000	4	1	0	4	0
729	625	10	10000	4	1	0	4	0
698	626	10	10000	4	1	0	4	0
666	627	10	10000	4	1	0	4	0
636	628	10	10000	4	1	0	4	0
607	629	10	10000	4	1	0	4	0
579	630	10	10000	4	1	0	4	0
551	631	10	10000	4	1	0	4	0
529	632	10	10000	4	1	0	4	0
505	633	10	10000	4	1	0	4	0
485	634	10	10000	4	1	0	4	0
465	635	10	10000	4	1	0	4	0
446	636	10	10000	4	1	0	4	0
430	637	10	10000	4	1	0	4	0
412	638	10	10000	4	1	0	4	0
400	639	10	10000	4	1	0	4	0
390	640	10	10000	4	1	0	4	0
378	641	10	10000	4	1	0	4	0
364	642	10	10000	4	1	0	4	0
353	643	10	10000	4	1	0	4	0
339	644	10	10000	4	1	0	4	0
327	645	10	10000	4	1	0	4	0
318	646	10	10000	4	1	0	4	0
312	647	10	10000	4	1	0	4	0
310	648	10	10000	4	1	0	4	0
307	649	10	10000	4	1	0	4	0
303	650	10	10000	4	1	0	4	0
304	651	10	10000	4	1	0	4	0
308	652	10	10000	4	1	0	4	0
311	653	10	10000	4	1	0	4	0
315	654	10	10000	4	1	0	4	0
314	655	10	10000	4	1	0	4	0
308	656	10	10000	4	1	0	4	0
299	657	10	10000	4	1	0	4	0
288	658	10	10000	4	1	0	4	0
282	659	10	10000	4	1	0	4	0
278	660	10	10000	4	1	0	4	0
271	661	10	10000	4	1	0	4	0
261	662	10	10000	4	1	0	4	0
252	663	10	10000	4	1	0	4	0
242	664	10	10000	4	1	0	4	0
236	665	10	10000	4	1	0	4	0
233	666	10	10000	4	1	0	4	0
232	667	10	10000	4	1	0	4	0
233	668	10	10000	4	1	0	4	0
234	669	10	10000	4	1	0	4	0
234	670	10	10000	4	1	0	4	0
234	671	10	10000	4	1	0	4	0
233	672	10	10000	4	1	0	4	0
230	673	10	10000	4	1	0	4	0
228	674	10	10000	4	1	0	4	0
224	675	10	10000	4	1	0	4	0
214	676	10	10000	4	1	0	4	0
205	677	10	10000	4	1	0	4	0
198	678	10	10000	4	1	0	4	0
191	679	10	10000	4	1	0	4	0
187	680	10	10000	4	1	0	4	0
185	681	10	10000	4	1	0	4	0
179	682	10	10000	4	1	0	4	0
176	683	10	10000	4	1	0	4	0
172	684	10	10000	4	1	0	4	0
166	685	10	10000	4	1	0	4	0
162	686	10	10000	4	1	0	4	0
159	687	10	10000	4	1	0	4	0
154	688	10	10000	4	1	0	4	0
147	689	10	10000	4	1	0	4	0
142	690	10	10000	4	1	0	4	0
135	691	10	10000	4	1	0	4	0
131	692	10	10000	4	1	0	4	0
129	693	10	10000	4	1	0	4	0
126	694	10	10000	4	1	0	4	0
125	695	10	10000	4	1	0	4	0
127	696	10	10000	4	1	0	4	0
128	697	10	10000	4	1	0	4	0
131	698	10	10000	4	1	0	4	0
137	699	10	10000	4	1	0	4	0
141	700	10	10000	4	1	0	4	0
145	701	10	10000	4	1	0	4	0
147	702	10	10000	4	1	0	4	0
150	703	10	10000	4	1	0	4	0
153	704	10	10000	4	1	0	4	0
158	705	10	10000	4	1	0	4	0
159	706	10	10000	4	1	0	4	0
158	707	10	10000	4	1	0	4	0
155	708	10	10000	4	1	0	4	0
148	709	10	10000	4	1	0	4	0
140	710	10	10000	4	1	0	4	0
135	711	10	10000	4	1	0	4	0
131	712	10	10000	4	1	0	4	0
126	713	10	10000	4	1	0	4	0
123	714	10	10000	4	1	0	4	0
120	715	10	10000	4	1	0	4	0
121	716	10	10000	4	1	0	4	0
123	717	10	10000	4	1	0	4	0
126	718	10	10000	4	1	0	4	0
130	719	10	10000	4	1	0	4	0
134	720	10	10000	4	1	0	4	0
136	721	10	10000	4	1	0	4	0
136	722	10	10000	4	1	0	4	0
139	723	10	10000	4	1	0	4	0
139	724	10	10000	4	1	0	4	0
137	725	10	10000	4	1	0	4	0
135	726	10	10000	4	1	0	4	0
132	727	10	10000	4	1	0	4	0
128	728	10	10000	4	1	0	4	0
123	729	10	10000	4	1	0	4	0
117	730	10	10000	4	1	0	4	0
115	731	10	10000	4	1	0	4	0
115	732	10	10000	4	1	0	4	0
110	733	10	10000	4	1	0	4	0
105	734	10	10000	4	1	0	4	0
104	735	10	10000	4	1	0	4	0
102	736	10	10000	4	1	0	4	0
100	737	10	10000	4	1	0	4	0
101	738	10	10000	4	1	0	4	0
100	739	10	10000	4	1	0	4	0
102	740	10	10000	4	1	0	4	0
104	741	10	10000	4	1	0	4	0
102	742	10	10000	4	1	0	4	0
103	743	10	10000	4	1	0	4	0
104	744	10	10000	4	1	0	4	0
103	745	10	10000	4	1	0	4	0
101	746	10	10000	4	1	0	4	0
97	747	10	10000	4	1	0	4	0
94	748	10	10000	4	1	0	4	0
89	749	10	10000	4	1	0	4	0
86	750	10	10000	4	1	0	4	0
83	751	10	10000	4	1	0	4	0
80	752	10	10000	4	1	0	4	0
78	753	10	10000	4	1	0	4	0
74	754	10	10000	4	1	0	4	0
70	755	10	10000	4	1	0	4	0
68	756	10	10000	4	1	0	4	0
67	757	10	10000	4	1	0	4	0
69	758	10	10000	4	1	0	4	0
73	759	10	10000	4	1	0	4	0
77	760	10	10000	4	1	0	4	0
85	761	10	10000	4	1	0	4	0
91	762	10	10000	4	1	0	4	0
97	763	10	10000	4	1	0	4	0
101	764	10	10000	4	1	0	4	0
104	765	10	10000	4	1	0	4	0
102	766	10	10000	4	1	0	4	0
98	767	10	10000	4	1	0	4	0
97	768	10	10000	4	1	0	4	0
94	769	10	10000	4	1	0	4	0
94	770	10	10000	4	1	0	4	0
95	771	10	10000	4	1	0	4	0
96	772	10	10000	4	1	0	4	0
93	773	10	10000	4	1	0	4	0
91	774	10	10000	4	1	0	4	0
89	775	10	10000	4	1	0	4	0
88	776	10	10000	4	1	0	4	0
88	777	10	10000	4	1	0	4	0
86	778	10	10000	4	1	0	4	0
83	779	10	10000	4	1	0	4	0
80	780	10	10000	4	1	0	4	0
79	781	10	10000	4	1	0	4	0
76	782	10	10000	4	1	0	4	0
78	783	10	10000	4	1	0	4	0
76	784	10	10000	4	1	0	4	0
73	785	10	10000	4	1	0	4	0
72	786	10	10000	4	1	0	4	0
69	787	10	10000	4	1	0	4	0
69	788	10	10000	4	1	0	4	0
70	789	10	10000	4	1	0	4	0
68	790	10	10000	4	1	0	4	0
71	791	10	10000	4	1	0	4	0
80	792	10	10000	4	1	0	4	0
84	793	10	10000	4	1	0	4	0
86	794	10	10000	4	1	0	4	0
87	795	10	10000	4	1	0	4	0
83	796	10	10000	4	1	0	4	0
81	797	10	10000	4	1	0	4	0
84	798	10	10000	4	1	0	4	0
88	799	10	10000	4	1	0	4	0
86	800	10	10000	4	1	0	4	0
85	801	10	10000	4	1	0	4	0
79	802	10	10000	4	1	0	4	0
76	803	10	10000	4	1	0	4	0
74	804	10	10000	4	1	0	4	0
71	805	10	10000	4	1	0	4	0
68	806	10	10000	4	1	0	4	0
69	807	10	10000	4	1	0	4	0
71	808	10	10000	4	1	0	4	0
74	809	10	10000	4	1	0	4	0
77	810	10	10000	4	1	0	4	0
78	811	10	10000	4	1	0	4	0
79	812	10	10000	4	1	0	4	0
79	813	10	10000	4	1	0	4	0
79	814	10	10000	4	1	0	4	0
79	815	10	10000	4	1	0	4	0
80	816	10	10000	4	1	0	4	0
80	817	10	10000	4	1	0	4	0
78	818	10	10000	4	1	0	4	0
77	819	10	10000	4	1	0	4	0
74	820	10	10000	4	1	0	4	0
73	821	10	10000	4	1	0	4	0
69	822	10	10000	4	1	0	4	0
68	823	10	10000	4	1	0	4	0
68	824	10	10000	4	1	0	4	0
71	825	10	10000	4	1	0	4	0
69	826	10	10000	4	1	0	4	0
66	827	10	10000	4	1	0	4	0
66	828	10	10000	4	1	0	4	0
67	829	10	10000	4	1	0	4	0
70	830	10	10000	4	1	0	4	0
71	831	10	10000	4	1	0	4	0
74	832	10	10000	4	1	0	4	0
75	833	10	10000	4	1	0	4	0
79	834	10	10000	4	1	0	4	0
82	835	10	10000	4	1	0	4	0
80	836	10	10000	4	1	0	4	0
79	837	10	10000	4	1	0	4	0
79	838	10	10000	4	1	0	4	0
85	839	10	10000	4	1	0	4	0
89	840	10	10000	4	1	0	4	0
91	841	10	10000	4	1	0	4	0
87	842	10	10000	4	1	0	4	0
85	843	10	10000	4	1	0	4	0
82	844	10	10000	4	1	0	4	0
82	845	10	10000	4	1	0	4	0
88	846	10	10000	4	1	0	4	0
89	847	10	10000	4	1	0	4	0
87	848	10	10000	4	1	0	4	0
85	849	10	10000	4	1	0	4	0
84	850	10	10000	4	1	0	4	0
83	851	10	10000	4	1	0	4	0
84	852	10	10000	4	1	0	4	0
80	853	10	10000	4	1	0	4	0
76	854	10	10000	4	1	0	4	0
76	855	10	10000	4	1	0	4	0
75	856	10	10000	4	1	0	4	0
72	857	10	10000	4	1	0	4	0
70	858	10	10000	4	1	0	4	0
69	859	10	10000	4	1	0	4	0
71	860	10	10000	4	1	0	4	0
74	861	10	10000	4	1	0	4	0
70	862	10	10000	4	1	0	4	0
67	863	10	10000	4	1	0	4	0
66	864	10	10000	4	1	0	4	0
65	865	10	10000	4	1	0	4	0
63	866	10	10000	4	1	0	4	0
62	867	10	10000	4	1	0	4	0
60	868	10	10000	4	1	0	4	0
58	869	10	10000	4	1	0	4	0
57	870	10	10000	4	1	0	4	0
57	871	10	10000	4	1	0	4	0
60	872	10	10000	4	1	0	4	0
62	873	10	10000	4	1	0	4	0
60	874	10	10000	4	1	0	4	0
57	875	10	10000	4	1	0	4	0
56	876	10	10000	4	1	0	4	0
53	877	10	10000	4	1	0	4	0
52	878	10	10000	4	1	0	4	0
53	879	10	10000	4	1	0	4	0
50	880	10	10000	4	1	0	4	0
49	881	10	10000	4	1	0	4	0
46	882	10	10000	4	1	0	4	0
44	883	10	10000	4	1	0	4	0
44	884	10	10000	4	1	0	4	0
44	885	10	10000	4	1	0	4	0
42	886	10	10000	4	1	0	4	0
41	887	10	10000	4	1	0	4	0
42	888	10	10000	4	1	0	4	0
42	889	10	10000	4	1	0	4	0
42	890	10	10000	4	1	0	4	0
44	891	10	10000	4	1	0	4	0
47	892	10	10000	4	1	0	4	0
47	893	10	10000	4	1	0	4	0
47	894	10	10000	4	1	0	4	0
46	895	10	10000	4	1	0	4	0
45	896	10	10000	4	1	0	4	0
44	897	10	10000	4	1	0	4	0
42	898	10	10000	4	1	0	4	0
42	899	10	10000	4	1	0	4	0
46	900	10	10000	4	1	0	4	0
49	901	10	10000	4	1	0	4	0
47	902	10	10000	4	1	0	4	0
48	903	10	10000	4	1	0	4	0
46	904	10	10000	4	1	0	4	0
46	905	10	10000	4	1	0	4	0
46	906	10	10000	4	1	0	4	0
44	907	10	10000	4	1	0	4	0
44	908	10	10000	4	1	0	4	0
44	909	10	10000	4	1	0	4	0
43	910	10	10000	4	1	0	4	0
42	911	10	10000	4	1	0	4	0
45	912	10	10000	4	1	0	4	0
45	913	10	10000	4	1	0	4	0
48	914	10	10000	4	1	0	4	0
52	915	10	10000	4	1	0	4	0
53	916	10	10000	4	1	0	4	0
54	917	10	10000	4	1	0	4	0
51	918	10	10000	4	1	0	4	0
49	919	10	10000	4	1	0	4	0
48	920	10	10000	4	1	0	4	0
51	921	10	10000	4	1	0	4	0
49	922	10	10000	4	1	0	4	0
50	923	10	10000	4	1	0	4	0
50	924	10	10000	4	1	0	4	0
49	925	10	10000	4	1	0	4	0
48	926	10	10000	4	1	0	4	0
48	927	10	10000	4	1	0	4	0
45	928	10	10000	4	1	0	4	0
44	929	10	10000	4	1	0	4	0
42	930	10	10000	4	1	0	4	0
39	931	10	10000	4	1	0	4	0
41	932	10	10000	4	1	0	4	0
42	933	10	10000	4	1	0	4	0
41	934	10	10000	4	1	0	4	0
41	935	10	10000	4	1	0	4	0
41	936	10	10000	4	1	0	4	0
42	937	10	10000	4	1	0	4	0
44	938	10	10000	4	1	0	4	0
45	939	10	10000	4	1	0	4	0
44	940	10	10000	4	1	0	4	0
45	941	10	10000	4	1	0	4	0
42	942	10	10000	4	1	0	4	0
41	943	10	10000	4	1	0	4	0
41	944	10	10000	4	1	0	4	0
43	945	10	10000	4	1	0	4	0
44	946	10	10000	4	1	0	4	0
42	947	10	10000	4	1	0	4	0
42	948	10	10000	4	1	0	4	0
41	949	10	10000	4	1	0	4	0
41	950	10	10000	4	1	0	4	0
39	951	10	10000	4	1	0	4	0
40	952	10	10000	4	1	0	4	0
38	953	10	10000	4	1	0	4	0
38	954	10	10000	4	1	0	4	0
38	955	10	10000	4	1	0	4	0
39	956	10	10000	4	1	0	4	0
38	957	10	10000	4	1	0	4	0
36	958	10	10000	4	1	0	4	0
36	959	10	10000	4	1	0	4	0
38	960	10	10000	4	1	0	4	0
38	961	10	10000	4	1	0	4	0
36	962	10	10000	4	1	0	4	0
36	963	10	10000	4	1	0	4	0
35	964	10	10000	4	1	0	4	0
35	965	10	10000	4	1	0	4	0
37	966	10	10000	4	1	0	4	0
37	967	10	10000	4	1	0	4	0
36	968	10	10000	4	1	0	4	0
36	969	10	10000	4	1	0	4	0
34	970	10	10000	4	1	0	4	0
32	971	10	10000	4	1	0	4	0
36	972	10	10000	4	1	0	4	0
36	973	10	10000	4	1	0	4	0
37	974	10	10000	4	1	0	4	0
37	975	10	10000	4	1	0	4	0
35	976	10	10000	4	1	0	4	0
36	977	10	10000	4	1	0	4	0
38	978	10	10000	4	1	0	4	0
40	979	10	10000	4	1	0	4	0
40	980	10	10000	4	1	0	4	0
41	981	10	10000	4	1	0	4	0
37	982	10	10000	4	1	0	4	0
36	983	10	10000	4	1	0	4	0
38	984	10	10000	4	1	0	4	0
38	985	10	10000	4	1	0	4	0
37	986	10	10000	4	1	0	4	0
37	987	10	10000	4	1	0	4	0
35	988	10	10000	4	1	0	4	0
33	989	10	10000	4	1	0	4	0
32	990	10	10000	4	1	0	4	0
31	991	10	10000	4	1	0	4	0
32	992	10	10000	4	1	0	4	0
32	993	10	10000	4	1	0	4	0
31	994	10	10000	4	1	0	4	0
30	995	10	10000	4	1	0	4	0
30	996	10	10000	4	1	0	4	0
28	997	10	10000	4	1	0	4	0
26	998	10	10000	4	1	0	4	0
28	999	10	10000	4	1	0	4	0
29	1000	10	10000	4	1	0	4	0
30	1001	10	10000	4	1	0	4	0
18	1	0	10000	5	1	0	5	0
17	2	0	10000	5	1	0	5	0
17	3	0	10000	5	1	0	5	0
18	4	0	10000	5	1	0	5	0
18	5	0	10000	5	1	0	5	0
17	6	0	10000	5	1	0	5	0
16	7	0	10000	5	1	0	5	0
16	8	0	10000	5	1	0	5	0
15	9	0	10000	5	1	0	5	0
14	10	0	10000	5	1	0	5	0
15	11	0	10000	5	1	0	5	0
14	12	0	10000	5	1	0	5	0
14	13	0	10000	5	1	0	5	0
12	14	0	10000	5	1	0	5	0
12	15	0	10000	5	1	0	5	0
13	16	0	10000	5	1	0	5	0
15	17	0	10000	5	1	0	5	0
13	18	0	10000	5	1	0	5	0
13	19	0	10000	5	1	0	5	0
14	20	0	10000	5	1	0	5	0
12	21	0	10000	5	1	0	5	0
12	22	0	10000	5	1	0	5	0
13	23	0	10000	5	1	0	5	0
14	24	0	10000	5	1	0	5	0
13	25	0	10000	5	1	0	5	0
14	26	0	10000	5	1	0	5	0
13	27	0	10000	5	1	0	5	0
13	28	0	10000	5	1	0	5	0
14	29	0	10000	5	1	0	5	0
14	30	0	10000	5	1	0	5	0
14	31	0	10000	5	1	0	5	0
15	32	0	10000	5	1	0	5	0
13	33	0	10000	5	1	0	5	0
12	34	0	10000	5	1	0	5	0
13	35	0	10000	5	1	0	5	0
12	36	0	10000	5	1	0	5	0
13	37	0	10000	5	1	0	5	0
13	38	0	10000	5	1	0	5	0
12	39	0	10000	5	1	0	5	0
12	40	0	10000	5	1	0	5	0
12	41	0	10000	5	1	0	5	0
11	42	0	10000	5	1	0	5	0
12	43	0	10000	5	1	0	5	0
14	44	0	10000	5	1	0	5	0
13	45	0	10000	5	1	0	5	0
13	46	0	10000	5	1	0	5	0
13	47	0	10000	5	1	0	5	0
13	48	0	10000	5	1	0	5	0
13	49	0	10000	5	1	0	5	0
13	50	0	10000	5	1	0	5	0
13	51	0	10000	5	1	0	5	0
13	52	0	10000	5	1	0	5	0
13	53	0	10000	5	1	0	5	0
11	54	0	10000	5	1	0	5	0
12	55	0	10000	5	1	0	5	0
12	56	0	10000	5	1	0	5	0
12	57	0	10000	5	1	0	5	0
12	58	0	10000	5	1	0	5	0
15	59	0	10000	5	1	0	5	0
16	60	0	10000	5	1	0	5	0
17	61	0	10000	5	1	0	5	0
17	62	0	10000	5	1	0	5	0
16	63	0	10000	5	1	0	5	0
19	64	0	10000	5	1	0	5	0
20	65	0	10000	5	1	0	5	0
20	66	0	10000	5	1	0	5	0
21	67	0	10000	5	1	0	5	0
24	68	0	10000	5	1	0	5	0
23	69	0	10000	5	1	0	5	0
22	70	0	10000	5	1	0	5	0
23	71	0	10000	5	1	0	5	0
22	72	0	10000	5	1	0	5	0
21	73	0	10000	5	1	0	5	0
20	74	0	10000	5	1	0	5	0
21	75	0	10000	5	1	0	5	0
22	76	0	10000	5	1	0	5	0
22	77	0	10000	5	1	0	5	0
21	78	0	10000	5	1	0	5	0
21	79	0	10000	5	1	0	5	0
22	80	0	10000	5	1	0	5	0
20	81	0	10000	5	1	0	5	0
20	82	0	10000	5	1	0	5	0
20	83	0	10000	5	1	0	5	0
20	84	0	10000	5	1	0	5	0
19	85	0	10000	5	1	0	5	0
19	86	0	10000	5	1	0	5	0
19	87	0	10000	5	1	0	5	0
18	88	0	10000	5	1	0	5	0
18	89	0	10000	5	1	0	5	0
17	90	0	10000	5	1	0	5	0
17	91	0	10000	5	1	0	5	0
18	92	0	10000	5	1	0	5	0
17	93	0	10000	5	1	0	5	0
16	94	0	10000	5	1	0	5	0
17	95	0	10000	5	1	0	5	0
16	96	0	10000	5	1	0	5	0
18	97	0	10000	5	1	0	5	0
18	98	0	10000	5	1	0	5	0
18	99	0	10000	5	1	0	5	0
17	100	0	10000	5	1	0	5	0
17	101	0	10000	5	1	0	5	0
16	102	0	10000	5	1	0	5	0
16	103	0	10000	5	1	0	5	0
18	104	0	10000	5	1	0	5	0
17	105	0	10000	5	1	0	5	0
17	106	0	10000	5	1	0	5	0
18	107	0	10000	5	1	0	5	0
16	108	0	10000	5	1	0	5	0
16	109	0	10000	5	1	0	5	0
16	110	0	10000	5	1	0	5	0
16	111	0	10000	5	1	0	5	0
16	112	0	10000	5	1	0	5	0
15	113	0	10000	5	1	0	5	0
14	114	0	10000	5	1	0	5	0
15	115	0	10000	5	1	0	5	0
18	116	0	10000	5	1	0	5	0
17	117	0	10000	5	1	0	5	0
16	118	0	10000	5	1	0	5	0
17	119	0	10000	5	1	0	5	0
16	120	0	10000	5	1	0	5	0
15	121	0	10000	5	1	0	5	0
14	122	0	10000	5	1	0	5	0
15	123	0	10000	5	1	0	5	0
17	124	0	10000	5	1	0	5	0
17	125	0	10000	5	1	0	5	0
17	126	0	10000	5	1	0	5	0
16	127	0	10000	5	1	0	5	0
17	128	0	10000	5	1	0	5	0
16	129	0	10000	5	1	0	5	0
16	130	0	10000	5	1	0	5	0
17	131	0	10000	5	1	0	5	0
16	132	0	10000	5	1	0	5	0
15	133	0	10000	5	1	0	5	0
14	134	0	10000	5	1	0	5	0
14	135	0	10000	5	1	0	5	0
13	136	0	10000	5	1	0	5	0
14	137	0	10000	5	1	0	5	0
13	138	0	10000	5	1	0	5	0
14	139	0	10000	5	1	0	5	0
14	140	0	10000	5	1	0	5	0
12	141	0	10000	5	1	0	5	0
12	142	0	10000	5	1	0	5	0
14	143	0	10000	5	1	0	5	0
15	144	0	10000	5	1	0	5	0
14	145	0	10000	5	1	0	5	0
14	146	0	10000	5	1	0	5	0
13	147	0	10000	5	1	0	5	0
14	148	0	10000	5	1	0	5	0
14	149	0	10000	5	1	0	5	0
15	150	0	10000	5	1	0	5	0
15	151	0	10000	5	1	0	5	0
16	152	0	10000	5	1	0	5	0
15	153	0	10000	5	1	0	5	0
14	154	0	10000	5	1	0	5	0
15	155	0	10000	5	1	0	5	0
15	156	0	10000	5	1	0	5	0
15	157	0	10000	5	1	0	5	0
16	158	0	10000	5	1	0	5	0
15	159	0	10000	5	1	0	5	0
14	160	0	10000	5	1	0	5	0
14	161	0	10000	5	1	0	5	0
12	162	0	10000	5	1	0	5	0
14	163	0	10000	5	1	0	5	0
17	164	0	10000	5	1	0	5	0
16	165	0	10000	5	1	0	5	0
16	166	0	10000	5	1	0	5	0
16	167	0	10000	5	1	0	5	0
14	168	0	10000	5	1	0	5	0
15	169	0	10000	5	1	0	5	0
14	170	0	10000	5	1	0	5	0
13	171	0	10000	5	1	0	5	0
14	172	0	10000	5	1	0	5	0
13	173	0	10000	5	1	0	5	0
12	174	0	10000	5	1	0	5	0
14	175	0	10000	5	1	0	5	0
15	176	0	10000	5	1	0	5	0
16	177	0	10000	5	1	0	5	0
16	178	0	10000	5	1	0	5	0
16	179	0	10000	5	1	0	5	0
15	180	0	10000	5	1	0	5	0
16	181	0	10000	5	1	0	5	0
16	182	0	10000	5	1	0	5	0
17	183	0	10000	5	1	0	5	0
19	184	0	10000	5	1	0	5	0
19	185	0	10000	5	1	0	5	0
18	186	0	10000	5	1	0	5	0
17	187	0	10000	5	1	0	5	0
18	188	0	10000	5	1	0	5	0
18	189	0	10000	5	1	0	5	0
18	190	0	10000	5	1	0	5	0
18	191	0	10000	5	1	0	5	0
20	192	0	10000	5	1	0	5	0
20	193	0	10000	5	1	0	5	0
20	194	0	10000	5	1	0	5	0
21	195	0	10000	5	1	0	5	0
22	196	0	10000	5	1	0	5	0
22	197	0	10000	5	1	0	5	0
22	198	0	10000	5	1	0	5	0
22	199	0	10000	5	1	0	5	0
22	200	0	10000	5	1	0	5	0
21	201	0	10000	5	1	0	5	0
20	202	0	10000	5	1	0	5	0
22	203	0	10000	5	1	0	5	0
25	204	0	10000	5	1	0	5	0
25	205	0	10000	5	1	0	5	0
25	206	0	10000	5	1	0	5	0
24	207	0	10000	5	1	0	5	0
27	208	0	10000	5	1	0	5	0
29	209	0	10000	5	1	0	5	0
30	210	0	10000	5	1	0	5	0
31	211	0	10000	5	1	0	5	0
31	212	0	10000	5	1	0	5	0
28	213	0	10000	5	1	0	5	0
26	214	0	10000	5	1	0	5	0
27	215	0	10000	5	1	0	5	0
26	216	0	10000	5	1	0	5	0
25	217	0	10000	5	1	0	5	0
25	218	0	10000	5	1	0	5	0
24	219	0	10000	5	1	0	5	0
23	220	0	10000	5	1	0	5	0
24	221	0	10000	5	1	0	5	0
23	222	0	10000	5	1	0	5	0
22	223	0	10000	5	1	0	5	0
23	224	0	10000	5	1	0	5	0
22	225	0	10000	5	1	0	5	0
21	226	0	10000	5	1	0	5	0
22	227	0	10000	5	1	0	5	0
23	228	0	10000	5	1	0	5	0
22	229	0	10000	5	1	0	5	0
23	230	0	10000	5	1	0	5	0
25	231	0	10000	5	1	0	5	0
26	232	0	10000	5	1	0	5	0
27	233	0	10000	5	1	0	5	0
25	234	0	10000	5	1	0	5	0
25	235	0	10000	5	1	0	5	0
25	236	0	10000	5	1	0	5	0
24	237	0	10000	5	1	0	5	0
23	238	0	10000	5	1	0	5	0
22	239	0	10000	5	1	0	5	0
21	240	0	10000	5	1	0	5	0
21	241	0	10000	5	1	0	5	0
20	242	0	10000	5	1	0	5	0
20	243	0	10000	5	1	0	5	0
21	244	0	10000	5	1	0	5	0
21	245	0	10000	5	1	0	5	0
22	246	0	10000	5	1	0	5	0
22	247	0	10000	5	1	0	5	0
23	248	0	10000	5	1	0	5	0
22	249	0	10000	5	1	0	5	0
22	250	0	10000	5	1	0	5	0
22	251	0	10000	5	1	0	5	0
24	252	0	10000	5	1	0	5	0
24	253	0	10000	5	1	0	5	0
22	254	0	10000	5	1	0	5	0
22	255	0	10000	5	1	0	5	0
22	256	0	10000	5	1	0	5	0
21	257	0	10000	5	1	0	5	0
20	258	0	10000	5	1	0	5	0
20	259	0	10000	5	1	0	5	0
20	260	0	10000	5	1	0	5	0
21	261	0	10000	5	1	0	5	0
20	262	0	10000	5	1	0	5	0
22	263	0	10000	5	1	0	5	0
22	264	0	10000	5	1	0	5	0
22	265	0	10000	5	1	0	5	0
22	266	0	10000	5	1	0	5	0
22	267	0	10000	5	1	0	5	0
24	268	0	10000	5	1	0	5	0
24	269	0	10000	5	1	0	5	0
24	270	0	10000	5	1	0	5	0
23	271	0	10000	5	1	0	5	0
23	272	0	10000	5	1	0	5	0
22	273	0	10000	5	1	0	5	0
20	274	0	10000	5	1	0	5	0
21	275	0	10000	5	1	0	5	0
21	276	0	10000	5	1	0	5	0
21	277	0	10000	5	1	0	5	0
20	278	0	10000	5	1	0	5	0
20	279	0	10000	5	1	0	5	0
19	280	0	10000	5	1	0	5	0
18	281	0	10000	5	1	0	5	0
19	282	0	10000	5	1	0	5	0
20	283	0	10000	5	1	0	5	0
21	284	0	10000	5	1	0	5	0
20	285	0	10000	5	1	0	5	0
22	286	0	10000	5	1	0	5	0
23	287	0	10000	5	1	0	5	0
22	288	0	10000	5	1	0	5	0
21	289	0	10000	5	1	0	5	0
22	290	0	10000	5	1	0	5	0
22	291	0	10000	5	1	0	5	0
22	292	0	10000	5	1	0	5	0
21	293	0	10000	5	1	0	5	0
19	294	0	10000	5	1	0	5	0
19	295	0	10000	5	1	0	5	0
19	296	0	10000	5	1	0	5	0
19	297	0	10000	5	1	0	5	0
19	298	0	10000	5	1	0	5	0
19	299	0	10000	5	1	0	5	0
18	300	0	10000	5	1	0	5	0
19	301	0	10000	5	1	0	5	0
19	302	0	10000	5	1	0	5	0
19	303	0	10000	5	1	0	5	0
20	304	0	10000	5	1	0	5	0
20	305	0	10000	5	1	0	5	0
20	306	0	10000	5	1	0	5	0
20	307	0	10000	5	1	0	5	0
20	308	0	10000	5	1	0	5	0
20	309	0	10000	5	1	0	5	0
19	310	0	10000	5	1	0	5	0
20	311	0	10000	5	1	0	5	0
20	312	0	10000	5	1	0	5	0
19	313	0	10000	5	1	0	5	0
17	314	0	10000	5	1	0	5	0
18	315	0	10000	5	1	0	5	0
19	316	0	10000	5	1	0	5	0
20	317	0	10000	5	1	0	5	0
20	318	0	10000	5	1	0	5	0
22	319	0	10000	5	1	0	5	0
23	320	0	10000	5	1	0	5	0
24	321	0	10000	5	1	0	5	0
23	322	0	10000	5	1	0	5	0
25	323	0	10000	5	1	0	5	0
27	324	0	10000	5	1	0	5	0
27	325	0	10000	5	1	0	5	0
27	326	0	10000	5	1	0	5	0
27	327	0	10000	5	1	0	5	0
27	328	0	10000	5	1	0	5	0
26	329	0	10000	5	1	0	5	0
25	330	0	10000	5	1	0	5	0
24	331	0	10000	5	1	0	5	0
24	332	0	10000	5	1	0	5	0
22	333	0	10000	5	1	0	5	0
21	334	0	10000	5	1	0	5	0
21	335	0	10000	5	1	0	5	0
21	336	0	10000	5	1	0	5	0
21	337	0	10000	5	1	0	5	0
20	338	0	10000	5	1	0	5	0
19	339	0	10000	5	1	0	5	0
19	340	0	10000	5	1	0	5	0
18	341	0	10000	5	1	0	5	0
16	342	0	10000	5	1	0	5	0
17	343	0	10000	5	1	0	5	0
18	344	0	10000	5	1	0	5	0
17	345	0	10000	5	1	0	5	0
17	346	0	10000	5	1	0	5	0
18	347	0	10000	5	1	0	5	0
19	348	0	10000	5	1	0	5	0
19	349	0	10000	5	1	0	5	0
18	350	0	10000	5	1	0	5	0
18	351	0	10000	5	1	0	5	0
19	352	0	10000	5	1	0	5	0
19	353	0	10000	5	1	0	5	0
16	354	0	10000	5	1	0	5	0
17	355	0	10000	5	1	0	5	0
17	356	0	10000	5	1	0	5	0
17	357	0	10000	5	1	0	5	0
16	358	0	10000	5	1	0	5	0
17	359	0	10000	5	1	0	5	0
16	360	0	10000	5	1	0	5	0
15	361	0	10000	5	1	0	5	0
15	362	0	10000	5	1	0	5	0
15	363	0	10000	5	1	0	5	0
16	364	0	10000	5	1	0	5	0
15	365	0	10000	5	1	0	5	0
14	366	0	10000	5	1	0	5	0
14	367	0	10000	5	1	0	5	0
15	368	0	10000	5	1	0	5	0
15	369	0	10000	5	1	0	5	0
16	370	0	10000	5	1	0	5	0
16	371	0	10000	5	1	0	5	0
16	372	0	10000	5	1	0	5	0
17	373	0	10000	5	1	0	5	0
19	374	0	10000	5	1	0	5	0
20	375	0	10000	5	1	0	5	0
21	376	0	10000	5	1	0	5	0
21	377	0	10000	5	1	0	5	0
24	378	0	10000	5	1	0	5	0
28	379	0	10000	5	1	0	5	0
31	380	0	10000	5	1	0	5	0
31	381	0	10000	5	1	0	5	0
30	382	0	10000	5	1	0	5	0
32	383	0	10000	5	1	0	5	0
32	384	0	10000	5	1	0	5	0
32	385	0	10000	5	1	0	5	0
31	386	0	10000	5	1	0	5	0
30	387	0	10000	5	1	0	5	0
29	388	0	10000	5	1	0	5	0
30	389	0	10000	5	1	0	5	0
33	390	0	10000	5	1	0	5	0
39	391	0	10000	5	1	0	5	0
42	392	0	10000	5	1	0	5	0
39	393	0	10000	5	1	0	5	0
40	394	0	10000	5	1	0	5	0
40	395	0	10000	5	1	0	5	0
39	396	0	10000	5	1	0	5	0
40	397	0	10000	5	1	0	5	0
40	398	0	10000	5	1	0	5	0
41	399	0	10000	5	1	0	5	0
40	400	0	10000	5	1	0	5	0
39	401	0	10000	5	1	0	5	0
38	402	0	10000	5	1	0	5	0
38	403	0	10000	5	1	0	5	0
38	404	0	10000	5	1	0	5	0
36	405	0	10000	5	1	0	5	0
36	406	0	10000	5	1	0	5	0
36	407	0	10000	5	1	0	5	0
35	408	0	10000	5	1	0	5	0
35	409	0	10000	5	1	0	5	0
34	410	0	10000	5	1	0	5	0
34	411	0	10000	5	1	0	5	0
35	412	0	10000	5	1	0	5	0
33	413	0	10000	5	1	0	5	0
30	414	0	10000	5	1	0	5	0
29	415	0	10000	5	1	0	5	0
30	416	0	10000	5	1	0	5	0
35	417	0	10000	5	1	0	5	0
40	418	0	10000	5	1	0	5	0
40	419	0	10000	5	1	0	5	0
41	420	0	10000	5	1	0	5	0
43	421	0	10000	5	1	0	5	0
44	422	0	10000	5	1	0	5	0
45	423	0	10000	5	1	0	5	0
46	424	0	10000	5	1	0	5	0
45	425	0	10000	5	1	0	5	0
45	426	0	10000	5	1	0	5	0
44	427	0	10000	5	1	0	5	0
42	428	0	10000	5	1	0	5	0
42	429	0	10000	5	1	0	5	0
41	430	0	10000	5	1	0	5	0
40	431	0	10000	5	1	0	5	0
40	432	0	10000	5	1	0	5	0
40	433	0	10000	5	1	0	5	0
39	434	0	10000	5	1	0	5	0
40	435	0	10000	5	1	0	5	0
41	436	0	10000	5	1	0	5	0
43	437	0	10000	5	1	0	5	0
41	438	0	10000	5	1	0	5	0
39	439	0	10000	5	1	0	5	0
38	440	0	10000	5	1	0	5	0
36	441	0	10000	5	1	0	5	0
34	442	0	10000	5	1	0	5	0
34	443	0	10000	5	1	0	5	0
34	444	0	10000	5	1	0	5	0
34	445	0	10000	5	1	0	5	0
33	446	0	10000	5	1	0	5	0
32	447	0	10000	5	1	0	5	0
30	448	0	10000	5	1	0	5	0
30	449	0	10000	5	1	0	5	0
29	450	0	10000	5	1	0	5	0
29	451	0	10000	5	1	0	5	0
28	452	0	10000	5	1	0	5	0
27	453	0	10000	5	1	0	5	0
26	454	0	10000	5	1	0	5	0
26	455	0	10000	5	1	0	5	0
25	456	0	10000	5	1	0	5	0
27	457	0	10000	5	1	0	5	0
29	458	0	10000	5	1	0	5	0
30	459	0	10000	5	1	0	5	0
29	460	0	10000	5	1	0	5	0
28	461	0	10000	5	1	0	5	0
27	462	0	10000	5	1	0	5	0
29	463	0	10000	5	1	0	5	0
30	464	0	10000	5	1	0	5	0
29	465	0	10000	5	1	0	5	0
28	466	0	10000	5	1	0	5	0
29	467	0	10000	5	1	0	5	0
31	468	0	10000	5	1	0	5	0
32	469	0	10000	5	1	0	5	0
35	470	0	10000	5	1	0	5	0
38	471	0	10000	5	1	0	5	0
40	472	0	10000	5	1	0	5	0
39	473	0	10000	5	1	0	5	0
37	474	0	10000	5	1	0	5	0
39	475	0	10000	5	1	0	5	0
41	476	0	10000	5	1	0	5	0
42	477	0	10000	5	1	0	5	0
44	478	0	10000	5	1	0	5	0
44	479	0	10000	5	1	0	5	0
43	480	0	10000	5	1	0	5	0
42	481	0	10000	5	1	0	5	0
40	482	0	10000	5	1	0	5	0
40	483	0	10000	5	1	0	5	0
41	484	0	10000	5	1	0	5	0
39	485	0	10000	5	1	0	5	0
38	486	0	10000	5	1	0	5	0
37	487	0	10000	5	1	0	5	0
36	488	0	10000	5	1	0	5	0
34	489	0	10000	5	1	0	5	0
33	490	0	10000	5	1	0	5	0
33	491	0	10000	5	1	0	5	0
33	492	0	10000	5	1	0	5	0
31	493	0	10000	5	1	0	5	0
31	494	0	10000	5	1	0	5	0
31	495	0	10000	5	1	0	5	0
31	496	0	10000	5	1	0	5	0
30	497	0	10000	5	1	0	5	0
29	498	0	10000	5	1	0	5	0
30	499	0	10000	5	1	0	5	0
29	500	0	10000	5	1	0	5	0
30	501	0	10000	5	1	0	5	1
32	502	0	10000	5	1	0	5	1
33	503	0	10000	5	1	0	5	1
33	504	0	10000	5	1	0	5	1
32	505	0	10000	5	1	0	5	1
32	506	0	10000	5	1	0	5	1
32	507	0	10000	5	1	0	5	1
30	508	0	10000	5	1	0	5	1
29	509	0	10000	5	1	0	5	1
29	510	0	10000	5	1	0	5	1
29	511	0	10000	5	1	0	5	1
30	512	0	10000	5	1	0	5	1
29	513	0	10000	5	1	0	5	1
28	514	0	10000	5	1	0	5	1
29	515	0	10000	5	1	0	5	1
28	516	0	10000	5	1	0	5	1
27	517	0	10000	5	1	0	5	1
27	518	0	10000	5	1	0	5	1
27	519	0	10000	5	1	0	5	1
27	520	0	10000	5	1	0	5	1
26	521	0	10000	5	1	0	5	1
24	522	0	10000	5	1	0	5	1
26	523	0	10000	5	1	0	5	1
26	524	0	10000	5	1	0	5	1
25	525	0	10000	5	1	0	5	1
24	526	0	10000	5	1	0	5	1
24	527	0	10000	5	1	0	5	1
23	528	0	10000	5	1	0	5	1
22	529	0	10000	5	1	0	5	1
22	530	0	10000	5	1	0	5	1
22	531	0	10000	5	1	0	5	1
21	532	0	10000	5	1	0	5	1
20	533	0	10000	5	1	0	5	1
19	534	0	10000	5	1	0	5	1
21	535	0	10000	5	1	0	5	1
21	536	0	10000	5	1	0	5	1
20	537	0	10000	5	1	0	5	1
20	538	0	10000	5	1	0	5	1
19	539	0	10000	5	1	0	5	1
19	540	0	10000	5	1	0	5	1
18	541	0	10000	5	1	0	5	1
17	542	0	10000	5	1	0	5	1
19	543	0	10000	5	1	0	5	1
21	544	0	10000	5	1	0	5	1
21	545	0	10000	5	1	0	5	1
21	546	0	10000	5	1	0	5	1
22	547	0	10000	5	1	0	5	1
23	548	0	10000	5	1	0	5	1
24	549	0	10000	5	1	0	5	1
26	550	0	10000	5	1	0	5	1
29	551	0	10000	5	1	0	5	0
31	552	0	10000	5	1	0	5	0
30	553	0	10000	5	1	0	5	0
31	554	0	10000	5	1	0	5	0
32	555	0	10000	5	1	0	5	0
33	556	0	10000	5	1	0	5	0
33	557	0	10000	5	1	0	5	0
32	558	0	10000	5	1	0	5	0
32	559	0	10000	5	1	0	5	0
31	560	0	10000	5	1	0	5	0
32	561	0	10000	5	1	0	5	0
33	562	0	10000	5	1	0	5	0
33	563	0	10000	5	1	0	5	0
33	564	0	10000	5	1	0	5	0
32	565	0	10000	5	1	0	5	0
32	566	0	10000	5	1	0	5	0
30	567	0	10000	5	1	0	5	0
30	568	0	10000	5	1	0	5	0
30	569	0	10000	5	1	0	5	0
30	570	0	10000	5	1	0	5	0
30	571	0	10000	5	1	0	5	0
30	572	0	10000	5	1	0	5	0
29	573	0	10000	5	1	0	5	0
28	574	0	10000	5	1	0	5	0
28	575	0	10000	5	1	0	5	0
28	576	0	10000	5	1	0	5	0
27	577	0	10000	5	1	0	5	0
28	578	0	10000	5	1	0	5	0
27	579	0	10000	5	1	0	5	0
26	580	0	10000	5	1	0	5	0
25	581	0	10000	5	1	0	5	0
24	582	0	10000	5	1	0	5	0
28	583	0	10000	5	1	0	5	0
32	584	0	10000	5	1	0	5	0
34	585	0	10000	5	1	0	5	0
38	586	0	10000	5	1	0	5	0
43	587	0	10000	5	1	0	5	0
50	588	0	10000	5	1	0	5	0
51	589	0	10000	5	1	0	5	0
53	590	0	10000	5	1	0	5	0
60	591	0	10000	5	1	0	5	0
68	592	0	10000	5	1	0	5	0
72	593	0	10000	5	1	0	5	0
95	594	0	10000	5	1	0	5	0
101	595	0	10000	5	1	0	5	0
120	596	0	10000	5	1	0	5	0
128	597	0	10000	5	1	0	5	0
129	598	0	10000	5	1	0	5	0
127	599	0	10000	5	1	0	5	0
128	600	0	10000	5	1	0	5	0
131	601	0	10000	5	1	0	5	0
143	602	0	10000	5	1	0	5	0
185	603	0	10000	5	1	0	5	0
255	604	0	10000	5	1	0	5	0
306	605	0	10000	5	1	0	5	0
352	606	0	10000	5	1	0	5	0
389	607	0	10000	5	1	0	5	0
390	608	0	10000	5	1	0	5	0
425	609	0	10000	5	1	0	5	0
463	610	0	10000	5	1	0	5	0
511	611	0	10000	5	1	0	5	0
549	612	0	10000	5	1	0	5	0
565	613	0	10000	5	1	0	5	0
570	614	0	10000	5	1	0	5	0
574	615	0	10000	5	1	0	5	0
562	616	0	10000	5	1	0	5	0
550	617	0	10000	5	1	0	5	0
557	618	0	10000	5	1	0	5	0
601	619	0	10000	5	1	0	5	0
616	620	0	10000	5	1	0	5	0
626	621	0	10000	5	1	0	5	0
735	622	0	10000	5	1	0	5	0
859	623	0	10000	5	1	0	5	0
906	624	0	10000	5	1	0	5	0
889	625	0	10000	5	1	0	5	0
960	626	0	10000	5	1	0	5	0
1069	627	0	10000	5	1	0	5	0
1149	628	0	10000	5	1	0	5	0
1184	629	0	10000	5	1	0	5	0
1188	630	0	10000	5	1	0	5	0
1167	631	0	10000	5	1	0	5	0
1129	632	0	10000	5	1	0	5	0
1078	633	0	10000	5	1	0	5	0
1027	634	0	10000	5	1	0	5	0
983	635	0	10000	5	1	0	5	0
943	636	0	10000	5	1	0	5	0
906	637	0	10000	5	1	0	5	0
865	638	0	10000	5	1	0	5	0
825	639	0	10000	5	1	0	5	0
790	640	0	10000	5	1	0	5	0
766	641	0	10000	5	1	0	5	0
744	642	0	10000	5	1	0	5	0
724	643	0	10000	5	1	0	5	0
698	644	0	10000	5	1	0	5	0
667	645	0	10000	5	1	0	5	0
637	646	0	10000	5	1	0	5	0
611	647	0	10000	5	1	0	5	0
583	648	0	10000	5	1	0	5	0
561	649	0	10000	5	1	0	5	0
542	650	0	10000	5	1	0	5	0
524	651	0	10000	5	1	0	5	0
506	652	0	10000	5	1	0	5	0
484	653	0	10000	5	1	0	5	0
461	654	0	10000	5	1	0	5	0
442	655	0	10000	5	1	0	5	0
427	656	0	10000	5	1	0	5	0
417	657	0	10000	5	1	0	5	0
409	658	0	10000	5	1	0	5	0
400	659	0	10000	5	1	0	5	0
395	660	0	10000	5	1	0	5	0
393	661	0	10000	5	1	0	5	0
391	662	0	10000	5	1	0	5	0
390	663	0	10000	5	1	0	5	0
387	664	0	10000	5	1	0	5	0
380	665	0	10000	5	1	0	5	0
371	666	0	10000	5	1	0	5	0
361	667	0	10000	5	1	0	5	0
348	668	0	10000	5	1	0	5	0
334	669	0	10000	5	1	0	5	0
320	670	0	10000	5	1	0	5	0
306	671	0	10000	5	1	0	5	0
292	672	0	10000	5	1	0	5	0
277	673	0	10000	5	1	0	5	0
265	674	0	10000	5	1	0	5	0
257	675	0	10000	5	1	0	5	0
252	676	0	10000	5	1	0	5	0
250	677	0	10000	5	1	0	5	0
250	678	0	10000	5	1	0	5	0
250	679	0	10000	5	1	0	5	0
250	680	0	10000	5	1	0	5	0
251	681	0	10000	5	1	0	5	0
251	682	0	10000	5	1	0	5	0
251	683	0	10000	5	1	0	5	0
248	684	0	10000	5	1	0	5	0
239	685	0	10000	5	1	0	5	0
231	686	0	10000	5	1	0	5	0
221	687	0	10000	5	1	0	5	0
211	688	0	10000	5	1	0	5	0
205	689	0	10000	5	1	0	5	0
202	690	0	10000	5	1	0	5	0
201	691	0	10000	5	1	0	5	0
199	692	0	10000	5	1	0	5	0
192	693	0	10000	5	1	0	5	0
185	694	0	10000	5	1	0	5	0
177	695	0	10000	5	1	0	5	0
169	696	0	10000	5	1	0	5	0
163	697	0	10000	5	1	0	5	0
158	698	0	10000	5	1	0	5	0
153	699	0	10000	5	1	0	5	0
149	700	0	10000	5	1	0	5	0
145	701	0	10000	5	1	0	5	0
141	702	0	10000	5	1	0	5	0
140	703	0	10000	5	1	0	5	0
136	704	0	10000	5	1	0	5	0
