value	EMG	Stimulus	EMG_sensitivity	Total_Trial_Nr	practise	acq	probe_nr	Startle_Probe
32	2	0	10000	1	1	0	1	0
31	3	0	10000	1	1	0	1	0
30	4	0	10000	1	1	0	1	0
30	5	0	10000	1	1	0	1	0
28	6	0	10000	1	1	0	1	0
26	7	0	10000	1	1	0	1	0
26	8	0	10000	1	1	0	1	0
26	9	0	10000	1	1	0	1	0
28	10	0	10000	1	1	0	1	0
28	11	0	10000	1	1	0	1	0
27	12	0	10000	1	1	0	1	0
26	13	0	10000	1	1	0	1	0
26	14	0	10000	1	1	0	1	0
26	15	0	10000	1	1	0	1	0
27	16	0	10000	1	1	0	1	0
27	17	0	10000	1	1	0	1	0
27	18	0	10000	1	1	0	1	0
27	19	0	10000	1	1	0	1	0
28	20	0	10000	1	1	0	1	0
30	21	0	10000	1	1	0	1	0
30	22	0	10000	1	1	0	1	0
31	23	0	10000	1	1	0	1	0
32	24	0	10000	1	1	0	1	0
32	25	0	10000	1	1	0	1	0
33	26	0	10000	1	1	0	1	0
32	27	0	10000	1	1	0	1	0
31	28	0	10000	1	1	0	1	0
31	29	0	10000	1	1	0	1	0
31	30	0	10000	1	1	0	1	0
32	31	0	10000	1	1	0	1	0
36	32	0	10000	1	1	0	1	0
40	33	0	10000	1	1	0	1	0
41	34	0	10000	1	1	0	1	0
40	35	0	10000	1	1	0	1	0
38	36	0	10000	1	1	0	1	0
37	37	0	10000	1	1	0	1	0
36	38	0	10000	1	1	0	1	0
34	39	0	10000	1	1	0	1	0
32	40	0	10000	1	1	0	1	0
33	41	0	10000	1	1	0	1	0
35	42	0	10000	1	1	0	1	0
34	43	0	10000	1	1	0	1	0
33	44	0	10000	1	1	0	1	0
32	45	0	10000	1	1	0	1	0
32	46	0	10000	1	1	0	1	0
34	47	0	10000	1	1	0	1	0
34	48	0	10000	1	1	0	1	0
34	49	0	10000	1	1	0	1	0
36	50	0	10000	1	1	0	1	0
35	51	0	10000	1	1	0	1	0
34	52	0	10000	1	1	0	1	0
33	53	0	10000	1	1	0	1	0
35	54	0	10000	1	1	0	1	0
33	55	0	10000	1	1	0	1	0
33	56	0	10000	1	1	0	1	0
33	57	0	10000	1	1	0	1	0
32	58	0	10000	1	1	0	1	0
31	59	0	10000	1	1	0	1	0
29	60	0	10000	1	1	0	1	0
31	61	0	10000	1	1	0	1	0
32	62	0	10000	1	1	0	1	0
32	63	0	10000	1	1	0	1	0
31	64	0	10000	1	1	0	1	0
30	65	0	10000	1	1	0	1	0
32	66	0	10000	1	1	0	1	0
32	67	0	10000	1	1	0	1	0
31	68	0	10000	1	1	0	1	0
31	69	0	10000	1	1	0	1	0
34	70	0	10000	1	1	0	1	0
35	71	0	10000	1	1	0	1	0
35	72	0	10000	1	1	0	1	0
33	73	0	10000	1	1	0	1	0
34	74	0	10000	1	1	0	1	0
33	75	0	10000	1	1	0	1	0
32	76	0	10000	1	1	0	1	0
31	77	0	10000	1	1	0	1	0
30	78	0	10000	1	1	0	1	0
29	79	0	10000	1	1	0	1	0
27	80	0	10000	1	1	0	1	0
26	81	0	10000	1	1	0	1	0
25	82	0	10000	1	1	0	1	0
25	83	0	10000	1	1	0	1	0
24	84	0	10000	1	1	0	1	0
24	85	0	10000	1	1	0	1	0
24	86	0	10000	1	1	0	1	0
23	87	0	10000	1	1	0	1	0
23	88	0	10000	1	1	0	1	0
24	89	0	10000	1	1	0	1	0
26	90	0	10000	1	1	0	1	0
26	91	0	10000	1	1	0	1	0
25	92	0	10000	1	1	0	1	0
24	93	0	10000	1	1	0	1	0
24	94	0	10000	1	1	0	1	0
24	95	0	10000	1	1	0	1	0
25	96	0	10000	1	1	0	1	0
27	97	0	10000	1	1	0	1	0
27	98	0	10000	1	1	0	1	0
26	99	0	10000	1	1	0	1	0
26	100	0	10000	1	1	0	1	0
27	101	0	10000	1	1	0	1	0
26	102	0	10000	1	1	0	1	0
26	103	0	10000	1	1	0	1	0
26	104	0	10000	1	1	0	1	0
26	105	0	10000	1	1	0	1	0
26	106	0	10000	1	1	0	1	0
25	107	0	10000	1	1	0	1	0
23	108	0	10000	1	1	0	1	0
24	109	0	10000	1	1	0	1	0
24	110	0	10000	1	1	0	1	0
23	111	0	10000	1	1	0	1	0
23	112	0	10000	1	1	0	1	0
22	113	0	10000	1	1	0	1	0
22	114	0	10000	1	1	0	1	0
22	115	0	10000	1	1	0	1	0
22	116	0	10000	1	1	0	1	0
23	117	0	10000	1	1	0	1	0
24	118	0	10000	1	1	0	1	0
24	119	0	10000	1	1	0	1	0
22	120	0	10000	1	1	0	1	0
24	121	0	10000	1	1	0	1	0
26	122	0	10000	1	1	0	1	0
29	123	0	10000	1	1	0	1	0
29	124	0	10000	1	1	0	1	0
29	125	0	10000	1	1	0	1	0
30	126	0	10000	1	1	0	1	0
31	127	0	10000	1	1	0	1	0
30	128	0	10000	1	1	0	1	0
29	129	0	10000	1	1	0	1	0
32	130	0	10000	1	1	0	1	0
34	131	0	10000	1	1	0	1	0
34	132	0	10000	1	1	0	1	0
34	133	0	10000	1	1	0	1	0
34	134	0	10000	1	1	0	1	0
33	135	0	10000	1	1	0	1	0
32	136	0	10000	1	1	0	1	0
32	137	0	10000	1	1	0	1	0
32	138	0	10000	1	1	0	1	0
32	139	0	10000	1	1	0	1	0
30	140	0	10000	1	1	0	1	0
29	141	0	10000	1	1	0	1	0
30	142	0	10000	1	1	0	1	0
31	143	0	10000	1	1	0	1	0
30	144	0	10000	1	1	0	1	0
30	145	0	10000	1	1	0	1	0
30	146	0	10000	1	1	0	1	0
30	147	0	10000	1	1	0	1	0
29	148	0	10000	1	1	0	1	0
29	149	0	10000	1	1	0	1	0
30	150	0	10000	1	1	0	1	0
29	151	0	10000	1	1	0	1	0
28	152	0	10000	1	1	0	1	0
27	153	0	10000	1	1	0	1	0
27	154	0	10000	1	1	0	1	0
27	155	0	10000	1	1	0	1	0
27	156	0	10000	1	1	0	1	0
26	157	0	10000	1	1	0	1	0
26	158	0	10000	1	1	0	1	0
28	159	0	10000	1	1	0	1	0
29	160	0	10000	1	1	0	1	0
31	161	0	10000	1	1	0	1	0
32	162	0	10000	1	1	0	1	0
31	163	0	10000	1	1	0	1	0
31	164	0	10000	1	1	0	1	0
32	165	0	10000	1	1	0	1	0
34	166	0	10000	1	1	0	1	0
34	167	0	10000	1	1	0	1	0
33	168	0	10000	1	1	0	1	0
32	169	0	10000	1	1	0	1	0
34	170	0	10000	1	1	0	1	0
32	171	0	10000	1	1	0	1	0
32	172	0	10000	1	1	0	1	0
35	173	0	10000	1	1	0	1	0
36	174	0	10000	1	1	0	1	0
34	175	0	10000	1	1	0	1	0
35	176	0	10000	1	1	0	1	0
37	177	0	10000	1	1	0	1	0
39	178	0	10000	1	1	0	1	0
40	179	0	10000	1	1	0	1	0
38	180	0	10000	1	1	0	1	0
37	181	0	10000	1	1	0	1	0
37	182	0	10000	1	1	0	1	0
37	183	0	10000	1	1	0	1	0
36	184	0	10000	1	1	0	1	0
36	185	0	10000	1	1	0	1	0
35	186	0	10000	1	1	0	1	0
33	187	0	10000	1	1	0	1	0
32	188	0	10000	1	1	0	1	0
30	189	0	10000	1	1	0	1	0
31	190	0	10000	1	1	0	1	0
31	191	0	10000	1	1	0	1	0
31	192	0	10000	1	1	0	1	0
31	193	0	10000	1	1	0	1	0
32	194	0	10000	1	1	0	1	0
31	195	0	10000	1	1	0	1	0
30	196	0	10000	1	1	0	1	0
29	197	0	10000	1	1	0	1	0
28	198	0	10000	1	1	0	1	0
27	199	0	10000	1	1	0	1	0
26	200	0	10000	1	1	0	1	0
26	201	0	10000	1	1	0	1	0
28	202	0	10000	1	1	0	1	0
32	203	0	10000	1	1	0	1	0
32	204	0	10000	1	1	0	1	0
30	205	0	10000	1	1	0	1	0
30	206	0	10000	1	1	0	1	0
30	207	0	10000	1	1	0	1	0
30	208	0	10000	1	1	0	1	0
31	209	0	10000	1	1	0	1	0
32	210	0	10000	1	1	0	1	0
32	211	0	10000	1	1	0	1	0
32	212	0	10000	1	1	0	1	0
33	213	0	10000	1	1	0	1	0
33	214	0	10000	1	1	0	1	0
31	215	0	10000	1	1	0	1	0
31	216	0	10000	1	1	0	1	0
31	217	0	10000	1	1	0	1	0
29	218	0	10000	1	1	0	1	0
28	219	0	10000	1	1	0	1	0
26	220	0	10000	1	1	0	1	0
25	221	0	10000	1	1	0	1	0
26	222	0	10000	1	1	0	1	0
25	223	0	10000	1	1	0	1	0
25	224	0	10000	1	1	0	1	0
28	225	0	10000	1	1	0	1	0
32	226	0	10000	1	1	0	1	0
34	227	0	10000	1	1	0	1	0
36	228	0	10000	1	1	0	1	0
37	229	0	10000	1	1	0	1	0
41	230	0	10000	1	1	0	1	0
44	231	0	10000	1	1	0	1	0
45	232	0	10000	1	1	0	1	0
46	233	0	10000	1	1	0	1	0
45	234	0	10000	1	1	0	1	0
44	235	0	10000	1	1	0	1	0
42	236	0	10000	1	1	0	1	0
40	237	0	10000	1	1	0	1	0
39	238	0	10000	1	1	0	1	0
37	239	0	10000	1	1	0	1	0
35	240	0	10000	1	1	0	1	0
34	241	0	10000	1	1	0	1	0
32	242	0	10000	1	1	0	1	0
32	243	0	10000	1	1	0	1	0
33	244	0	10000	1	1	0	1	0
35	245	0	10000	1	1	0	1	0
35	246	0	10000	1	1	0	1	0
34	247	0	10000	1	1	0	1	0
32	248	0	10000	1	1	0	1	0
34	249	0	10000	1	1	0	1	0
35	250	0	10000	1	1	0	1	0
35	251	0	10000	1	1	0	1	0
37	252	0	10000	1	1	0	1	0
38	253	0	10000	1	1	0	1	0
38	254	0	10000	1	1	0	1	0
38	255	0	10000	1	1	0	1	0
37	256	0	10000	1	1	0	1	0
36	257	0	10000	1	1	0	1	0
35	258	0	10000	1	1	0	1	0
33	259	0	10000	1	1	0	1	0
32	260	0	10000	1	1	0	1	0
34	261	0	10000	1	1	0	1	0
35	262	0	10000	1	1	0	1	0
35	263	0	10000	1	1	0	1	0
35	264	0	10000	1	1	0	1	0
35	265	0	10000	1	1	0	1	0
36	266	0	10000	1	1	0	1	0
37	267	0	10000	1	1	0	1	0
37	268	0	10000	1	1	0	1	0
38	269	0	10000	1	1	0	1	0
40	270	0	10000	1	1	0	1	0
41	271	0	10000	1	1	0	1	0
41	272	0	10000	1	1	0	1	0
42	273	0	10000	1	1	0	1	0
42	274	0	10000	1	1	0	1	0
41	275	0	10000	1	1	0	1	0
40	276	0	10000	1	1	0	1	0
40	277	0	10000	1	1	0	1	0
39	278	0	10000	1	1	0	1	0
41	279	0	10000	1	1	0	1	0
40	280	0	10000	1	1	0	1	0
39	281	0	10000	1	1	0	1	0
39	282	0	10000	1	1	0	1	0
39	283	0	10000	1	1	0	1	0
37	284	0	10000	1	1	0	1	0
38	285	0	10000	1	1	0	1	0
41	286	0	10000	1	1	0	1	0
39	287	0	10000	1	1	0	1	0
37	288	0	10000	1	1	0	1	0
37	289	0	10000	1	1	0	1	0
36	290	0	10000	1	1	0	1	0
35	291	0	10000	1	1	0	1	0
34	292	0	10000	1	1	0	1	0
35	293	0	10000	1	1	0	1	0
37	294	0	10000	1	1	0	1	0
39	295	0	10000	1	1	0	1	0
43	296	0	10000	1	1	0	1	0
45	297	0	10000	1	1	0	1	0
49	298	0	10000	1	1	0	1	0
52	299	0	10000	1	1	0	1	0
51	300	0	10000	1	1	0	1	0
50	301	0	10000	1	1	0	1	0
48	302	0	10000	1	1	0	1	0
46	303	0	10000	1	1	0	1	0
45	304	0	10000	1	1	0	1	0
44	305	0	10000	1	1	0	1	0
42	306	0	10000	1	1	0	1	0
40	307	0	10000	1	1	0	1	0
38	308	0	10000	1	1	0	1	0
38	309	0	10000	1	1	0	1	0
38	310	0	10000	1	1	0	1	0
37	311	0	10000	1	1	0	1	0
37	312	0	10000	1	1	0	1	0
35	313	0	10000	1	1	0	1	0
35	314	0	10000	1	1	0	1	0
35	315	0	10000	1	1	0	1	0
35	316	0	10000	1	1	0	1	0
35	317	0	10000	1	1	0	1	0
35	318	0	10000	1	1	0	1	0
32	319	0	10000	1	1	0	1	0
31	320	0	10000	1	1	0	1	0
31	321	0	10000	1	1	0	1	0
31	322	0	10000	1	1	0	1	0
31	323	0	10000	1	1	0	1	0
30	324	0	10000	1	1	0	1	0
29	325	0	10000	1	1	0	1	0
30	326	0	10000	1	1	0	1	0
32	327	0	10000	1	1	0	1	0
34	328	0	10000	1	1	0	1	0
36	329	0	10000	1	1	0	1	0
38	330	0	10000	1	1	0	1	0
40	331	0	10000	1	1	0	1	0
41	332	0	10000	1	1	0	1	0
41	333	0	10000	1	1	0	1	0
41	334	0	10000	1	1	0	1	0
41	335	0	10000	1	1	0	1	0
39	336	0	10000	1	1	0	1	0
38	337	0	10000	1	1	0	1	0
37	338	0	10000	1	1	0	1	0
35	339	0	10000	1	1	0	1	0
32	340	0	10000	1	1	0	1	0
32	341	0	10000	1	1	0	1	0
31	342	0	10000	1	1	0	1	0
31	343	0	10000	1	1	0	1	0
32	344	0	10000	1	1	0	1	0
33	345	0	10000	1	1	0	1	0
34	346	0	10000	1	1	0	1	0
36	347	0	10000	1	1	0	1	0
40	348	0	10000	1	1	0	1	0
43	349	0	10000	1	1	0	1	0
43	350	0	10000	1	1	0	1	0
42	351	0	10000	1	1	0	1	0
41	352	0	10000	1	1	0	1	0
41	353	0	10000	1	1	0	1	0
42	354	0	10000	1	1	0	1	0
41	355	0	10000	1	1	0	1	0
40	356	0	10000	1	1	0	1	0
38	357	0	10000	1	1	0	1	0
37	358	0	10000	1	1	0	1	0
36	359	0	10000	1	1	0	1	0
35	360	0	10000	1	1	0	1	0
35	361	0	10000	1	1	0	1	0
35	362	0	10000	1	1	0	1	0
35	363	0	10000	1	1	0	1	0
34	364	0	10000	1	1	0	1	0
35	365	0	10000	1	1	0	1	0
35	366	0	10000	1	1	0	1	0
36	367	0	10000	1	1	0	1	0
36	368	0	10000	1	1	0	1	0
38	369	0	10000	1	1	0	1	0
39	370	0	10000	1	1	0	1	0
39	371	0	10000	1	1	0	1	0
38	372	0	10000	1	1	0	1	0
35	373	0	10000	1	1	0	1	0
34	374	0	10000	1	1	0	1	0
36	375	0	10000	1	1	0	1	0
38	376	0	10000	1	1	0	1	0
38	377	0	10000	1	1	0	1	0
38	378	0	10000	1	1	0	1	0
38	379	0	10000	1	1	0	1	0
38	380	0	10000	1	1	0	1	0
38	381	0	10000	1	1	0	1	0
39	382	0	10000	1	1	0	1	0
39	383	0	10000	1	1	0	1	0
40	384	0	10000	1	1	0	1	0
41	385	0	10000	1	1	0	1	0
42	386	0	10000	1	1	0	1	0
41	387	0	10000	1	1	0	1	0
39	388	0	10000	1	1	0	1	0
39	389	0	10000	1	1	0	1	0
39	390	0	10000	1	1	0	1	0
36	391	0	10000	1	1	0	1	0
35	392	0	10000	1	1	0	1	0
34	393	0	10000	1	1	0	1	0
34	394	0	10000	1	1	0	1	0
33	395	0	10000	1	1	0	1	0
35	396	0	10000	1	1	0	1	0
34	397	0	10000	1	1	0	1	0
33	398	0	10000	1	1	0	1	0
33	399	0	10000	1	1	0	1	0
31	400	0	10000	1	1	0	1	0
32	401	0	10000	1	1	0	1	0
32	402	0	10000	1	1	0	1	0
32	403	0	10000	1	1	0	1	0
31	404	0	10000	1	1	0	1	0
30	405	0	10000	1	1	0	1	0
29	406	0	10000	1	1	0	1	0
29	407	0	10000	1	1	0	1	0
28	408	0	10000	1	1	0	1	0
29	409	0	10000	1	1	0	1	0
31	410	0	10000	1	1	0	1	0
30	411	0	10000	1	1	0	1	0
32	412	0	10000	1	1	0	1	0
33	413	0	10000	1	1	0	1	0
34	414	0	10000	1	1	0	1	0
34	415	0	10000	1	1	0	1	0
33	416	0	10000	1	1	0	1	0
33	417	0	10000	1	1	0	1	0
34	418	0	10000	1	1	0	1	0
34	419	0	10000	1	1	0	1	0
33	420	0	10000	1	1	0	1	0
36	421	0	10000	1	1	0	1	0
37	422	0	10000	1	1	0	1	0
37	423	0	10000	1	1	0	1	0
38	424	0	10000	1	1	0	1	0
39	425	0	10000	1	1	0	1	0
39	426	0	10000	1	1	0	1	0
37	427	0	10000	1	1	0	1	0
35	428	0	10000	1	1	0	1	0
36	429	0	10000	1	1	0	1	0
35	430	0	10000	1	1	0	1	0
36	431	0	10000	1	1	0	1	0
36	432	0	10000	1	1	0	1	0
36	433	0	10000	1	1	0	1	0
35	434	0	10000	1	1	0	1	0
34	435	0	10000	1	1	0	1	0
34	436	0	10000	1	1	0	1	0
34	437	0	10000	1	1	0	1	0
35	438	0	10000	1	1	0	1	0
36	439	0	10000	1	1	0	1	0
37	440	0	10000	1	1	0	1	0
37	441	0	10000	1	1	0	1	0
37	442	0	10000	1	1	0	1	0
36	443	0	10000	1	1	0	1	0
34	444	0	10000	1	1	0	1	0
33	445	0	10000	1	1	0	1	0
31	446	0	10000	1	1	0	1	0
29	447	0	10000	1	1	0	1	0
28	448	0	10000	1	1	0	1	0
28	449	0	10000	1	1	0	1	0
29	450	0	10000	1	1	0	1	0
30	451	0	10000	1	1	0	1	0
30	452	0	10000	1	1	0	1	0
32	453	0	10000	1	1	0	1	0
34	454	0	10000	1	1	0	1	0
33	455	0	10000	1	1	0	1	0
33	456	0	10000	1	1	0	1	0
33	457	0	10000	1	1	0	1	0
33	458	0	10000	1	1	0	1	0
32	459	0	10000	1	1	0	1	0
31	460	0	10000	1	1	0	1	0
31	461	0	10000	1	1	0	1	0
30	462	0	10000	1	1	0	1	0
30	463	0	10000	1	1	0	1	0
30	464	0	10000	1	1	0	1	0
30	465	0	10000	1	1	0	1	0
30	466	0	10000	1	1	0	1	0
30	467	0	10000	1	1	0	1	0
31	468	0	10000	1	1	0	1	0
32	469	0	10000	1	1	0	1	0
35	470	0	10000	1	1	0	1	0
35	471	0	10000	1	1	0	1	0
35	472	0	10000	1	1	0	1	0
35	473	0	10000	1	1	0	1	0
35	474	0	10000	1	1	0	1	0
34	475	0	10000	1	1	0	1	0
33	476	0	10000	1	1	0	1	0
32	477	0	10000	1	1	0	1	0
31	478	0	10000	1	1	0	1	0
30	479	0	10000	1	1	0	1	0
29	480	0	10000	1	1	0	1	0
30	481	0	10000	1	1	0	1	0
31	482	0	10000	1	1	0	1	0
31	483	0	10000	1	1	0	1	0
31	484	0	10000	1	1	0	1	0
31	485	0	10000	1	1	0	1	0
33	486	0	10000	1	1	0	1	0
35	487	0	10000	1	1	0	1	0
37	488	0	10000	1	1	0	1	0
40	489	0	10000	1	1	0	1	0
41	490	0	10000	1	1	0	1	0
41	491	0	10000	1	1	0	1	0
40	492	0	10000	1	1	0	1	0
38	493	0	10000	1	1	0	1	0
37	494	0	10000	1	1	0	1	0
36	495	0	10000	1	1	0	1	0
34	496	0	10000	1	1	0	1	0
34	497	0	10000	1	1	0	1	0
34	498	0	10000	1	1	0	1	0
34	499	0	10000	1	1	0	1	0
32	500	0	10000	1	1	0	1	0
33	501	0	10000	1	1	0	1	0
34	549	0	10000	1	1	0	1	1
34	550	0	10000	1	1	0	1	1
36	551	0	10000	1	1	0	1	1
39	552	0	10000	1	1	0	1	1
40	553	0	10000	1	1	0	1	1
39	554	0	10000	1	1	0	1	1
37	555	0	10000	1	1	0	1	1
37	556	0	10000	1	1	0	1	1
39	557	0	10000	1	1	0	1	1
39	558	0	10000	1	1	0	1	1
39	559	0	10000	1	1	0	1	1
38	560	0	10000	1	1	0	1	1
38	561	0	10000	1	1	0	1	1
37	562	0	10000	1	1	0	1	1
36	563	0	10000	1	1	0	1	1
37	564	0	10000	1	1	0	1	1
39	565	0	10000	1	1	0	1	1
38	566	0	10000	1	1	0	1	1
35	567	0	10000	1	1	0	1	1
34	568	0	10000	1	1	0	1	1
33	569	0	10000	1	1	0	1	1
34	570	0	10000	1	1	0	1	1
33	571	0	10000	1	1	0	1	1
32	572	0	10000	1	1	0	1	1
32	573	0	10000	1	1	0	1	1
32	574	0	10000	1	1	0	1	1
31	575	0	10000	1	1	0	1	1
32	576	0	10000	1	1	0	1	1
32	577	0	10000	1	1	0	1	1
32	578	0	10000	1	1	0	1	1
31	579	0	10000	1	1	0	1	1
29	580	0	10000	1	1	0	1	1
28	581	0	10000	1	1	0	1	1
27	582	0	10000	1	1	0	1	1
26	583	0	10000	1	1	0	1	1
27	584	0	10000	1	1	0	1	1
27	585	0	10000	1	1	0	1	1
25	586	0	10000	1	1	0	1	1
26	587	0	10000	1	1	0	1	1
27	588	0	10000	1	1	0	1	1
27	589	0	10000	1	1	0	1	1
28	590	0	10000	1	1	0	1	1
28	591	0	10000	1	1	0	1	1
28	592	0	10000	1	1	0	1	1
26	593	0	10000	1	1	0	1	1
25	594	0	10000	1	1	0	1	1
23	595	0	10000	1	1	0	1	1
23	596	0	10000	1	1	0	1	1
23	597	0	10000	1	1	0	1	1
22	598	0	10000	1	1	0	1	1
21	553	0	10000	1	1	0	1	1
21	554	0	10000	1	1	0	1	1
22	554	0	10000	1	1	0	1	0
22	555	0	10000	1	1	0	1	0
21	556	0	10000	1	1	0	1	0
21	557	0	10000	1	1	0	1	0
23	558	0	10000	1	1	0	1	0
22	559	0	10000	1	1	0	1	0
20	560	0	10000	1	1	0	1	0
21	561	0	10000	1	1	0	1	0
20	562	0	10000	1	1	0	1	0
19	563	0	10000	1	1	0	1	0
21	564	0	10000	1	1	0	1	0
20	565	0	10000	1	1	0	1	0
19	566	0	10000	1	1	0	1	0
19	567	0	10000	1	1	0	1	0
18	568	0	10000	1	1	0	1	0
19	569	0	10000	1	1	0	1	0
20	570	0	10000	1	1	0	1	0
21	571	0	10000	1	1	0	1	0
21	572	0	10000	1	1	0	1	0
21	573	0	10000	1	1	0	1	0
23	574	0	10000	1	1	0	1	0
23	575	0	10000	1	1	0	1	0
24	576	0	10000	1	1	0	1	0
25	577	0	10000	1	1	0	1	0
24	578	0	10000	1	1	0	1	0
24	579	0	10000	1	1	0	1	0
25	580	0	10000	1	1	0	1	0
26	581	0	10000	1	1	0	1	0
27	582	0	10000	1	1	0	1	0
26	583	0	10000	1	1	0	1	0
25	584	0	10000	1	1	0	1	0
25	585	0	10000	1	1	0	1	0
25	586	0	10000	1	1	0	1	0
25	587	0	10000	1	1	0	1	0
25	588	0	10000	1	1	0	1	0
25	589	0	10000	1	1	0	1	0
26	590	0	10000	1	1	0	1	0
25	591	0	10000	1	1	0	1	0
24	592	0	10000	1	1	0	1	0
23	593	0	10000	1	1	0	1	0
23	594	0	10000	1	1	0	1	0
24	595	0	10000	1	1	0	1	0
24	596	0	10000	1	1	0	1	0
24	597	0	10000	1	1	0	1	0
24	598	0	10000	1	1	0	1	0
22	599	0	10000	1	1	0	1	0
20	600	0	10000	1	1	0	1	0
21	601	0	10000	1	1	0	1	0
22	602	0	10000	1	1	0	1	0
24	603	0	10000	1	1	0	1	0
28	604	0	10000	1	1	0	1	0
31	605	0	10000	1	1	0	1	0
32	606	0	10000	1	1	0	1	0
31	607	0	10000	1	1	0	1	0
29	608	0	10000	1	1	0	1	0
30	609	0	10000	1	1	0	1	0
31	610	0	10000	1	1	0	1	0
29	611	0	10000	1	1	0	1	0
27	612	0	10000	1	1	0	1	0
27	613	0	10000	1	1	0	1	0
26	614	0	10000	1	1	0	1	0
25	615	0	10000	1	1	0	1	0
26	616	0	10000	1	1	0	1	0
26	617	0	10000	1	1	0	1	0
26	618	0	10000	1	1	0	1	0
28	619	0	10000	1	1	0	1	0
26	620	0	10000	1	1	0	1	0
26	621	0	10000	1	1	0	1	0
27	622	0	10000	1	1	0	1	0
29	623	0	10000	1	1	0	1	0
29	624	0	10000	1	1	0	1	0
29	625	0	10000	1	1	0	1	0
27	626	0	10000	1	1	0	1	0
28	627	0	10000	1	1	0	1	0
29	628	0	10000	1	1	0	1	0
30	629	0	10000	1	1	0	1	0
31	630	0	10000	1	1	0	1	0
33	631	0	10000	1	1	0	1	0
35	632	0	10000	1	1	0	1	0
40	633	0	10000	1	1	0	1	0
54	634	0	10000	1	1	0	1	0
87	635	0	10000	1	1	0	1	0
113	636	0	10000	1	1	0	1	0
124	637	0	10000	1	1	0	1	0
125	638	0	10000	1	1	0	1	0
126	639	0	10000	1	1	0	1	0
136	640	0	10000	1	1	0	1	0
141	641	0	10000	1	1	0	1	0
144	642	0	10000	1	1	0	1	0
169	643	0	10000	1	1	0	1	0
188	644	0	10000	1	1	0	1	0
205	645	0	10000	1	1	0	1	0
251	646	0	10000	1	1	0	1	0
261	647	0	10000	1	1	0	1	0
286	648	0	10000	1	1	0	1	0
316	649	0	10000	1	1	0	1	0
338	650	0	10000	1	1	0	1	0
342	651	0	10000	1	1	0	1	0
348	652	0	10000	1	1	0	1	0
361	653	0	10000	1	1	0	1	0
368	654	0	10000	1	1	0	1	0
365	655	0	10000	1	1	0	1	0
371	656	0	10000	1	1	0	1	0
369	657	0	10000	1	1	0	1	0
364	658	0	10000	1	1	0	1	0
385	659	0	10000	1	1	0	1	0
381	660	0	10000	1	1	0	1	0
398	661	0	10000	1	1	0	1	0
405	662	0	10000	1	1	0	1	0
438	663	0	10000	1	1	0	1	0
437	664	0	10000	1	1	0	1	0
449	665	0	10000	1	1	0	1	0
454	666	0	10000	1	1	0	1	0
443	667	0	10000	1	1	0	1	0
460	668	0	10000	1	1	0	1	0
489	669	0	10000	1	1	0	1	0
508	670	0	10000	1	1	0	1	0
511	671	0	10000	1	1	0	1	0
500	672	0	10000	1	1	0	1	0
485	673	0	10000	1	1	0	1	0
468	674	0	10000	1	1	0	1	0
465	675	0	10000	1	1	0	1	0
453	676	0	10000	1	1	0	1	0
502	677	0	10000	1	1	0	1	0
727	678	0	10000	1	1	0	1	0
924	679	0	10000	1	1	0	1	0
1066	680	0	10000	1	1	0	1	0
1166	681	0	10000	1	1	0	1	0
1235	682	0	10000	1	1	0	1	0
1282	683	0	10000	1	1	0	1	0
1316	684	0	10000	1	1	0	1	0
1334	685	0	10000	1	1	0	1	0
1338	686	0	10000	1	1	0	1	0
1333	687	0	10000	1	1	0	1	0
1318	688	0	10000	1	1	0	1	0
1300	689	0	10000	1	1	0	1	0
1278	690	0	10000	1	1	0	1	0
1245	691	0	10000	1	1	0	1	0
1200	692	0	10000	1	1	0	1	0
1148	693	0	10000	1	1	0	1	0
1097	694	0	10000	1	1	0	1	0
1056	695	0	10000	1	1	0	1	0
1021	696	0	10000	1	1	0	1	0
999	697	0	10000	1	1	0	1	0
989	698	0	10000	1	1	0	1	0
987	699	0	10000	1	1	0	1	0
1000	700	0	10000	1	1	0	1	0
1026	701	0	10000	1	1	0	1	0
1054	702	0	10000	1	1	0	1	0
1081	703	0	10000	1	1	0	1	0
1101	704	0	10000	1	1	0	1	0
1117	705	0	10000	1	1	0	1	0
1127	706	0	10000	1	1	0	1	0
1128	707	0	10000	1	1	0	1	0
1120	708	0	10000	1	1	0	1	0
1109	709	0	10000	1	1	0	1	0
1090	710	0	10000	1	1	0	1	0
1072	711	0	10000	1	1	0	1	0
1060	712	0	10000	1	1	0	1	0
1049	713	0	10000	1	1	0	1	0
1043	714	0	10000	1	1	0	1	0
1040	715	0	10000	1	1	0	1	0
1039	716	0	10000	1	1	0	1	0
1039	717	0	10000	1	1	0	1	0
1038	718	0	10000	1	1	0	1	0
1040	719	0	10000	1	1	0	1	0
1053	720	0	10000	1	1	0	1	0
1070	721	0	10000	1	1	0	1	0
1085	722	0	10000	1	1	0	1	0
1097	723	0	10000	1	1	0	1	0
1100	724	0	10000	1	1	0	1	0
1097	725	0	10000	1	1	0	1	0
1086	726	0	10000	1	1	0	1	0
1067	727	0	10000	1	1	0	1	0
1037	728	0	10000	1	1	0	1	0
1006	729	0	10000	1	1	0	1	0
968	730	0	10000	1	1	0	1	0
932	731	0	10000	1	1	0	1	0
898	732	0	10000	1	1	0	1	0
860	733	0	10000	1	1	0	1	0
827	734	0	10000	1	1	0	1	0
800	735	0	10000	1	1	0	1	0
773	736	0	10000	1	1	0	1	0
759	737	0	10000	1	1	0	1	0
767	738	0	10000	1	1	0	1	0
799	739	0	10000	1	1	0	1	0
850	740	0	10000	1	1	0	1	0
893	741	0	10000	1	1	0	1	0
923	742	0	10000	1	1	0	1	0
931	743	0	10000	1	1	0	1	0
901	744	0	10000	1	1	0	1	0
870	745	0	10000	1	1	0	1	0
846	746	0	10000	1	1	0	1	0
826	747	0	10000	1	1	0	1	0
808	748	0	10000	1	1	0	1	0
798	749	0	10000	1	1	0	1	0
797	750	0	10000	1	1	0	1	0
793	751	0	10000	1	1	0	1	0
788	752	0	10000	1	1	0	1	0
781	753	0	10000	1	1	0	1	0
771	754	0	10000	1	1	0	1	0
763	755	0	10000	1	1	0	1	0
754	756	0	10000	1	1	0	1	0
741	757	0	10000	1	1	0	1	0
724	758	0	10000	1	1	0	1	0
699	759	0	10000	1	1	0	1	0
666	760	0	10000	1	1	0	1	0
638	761	0	10000	1	1	0	1	0
612	762	0	10000	1	1	0	1	0
588	763	0	10000	1	1	0	1	0
563	764	0	10000	1	1	0	1	0
538	765	0	10000	1	1	0	1	0
514	766	0	10000	1	1	0	1	0
493	767	0	10000	1	1	0	1	0
478	768	0	10000	1	1	0	1	0
475	769	0	10000	1	1	0	1	0
473	770	0	10000	1	1	0	1	0
468	771	0	10000	1	1	0	1	0
462	772	0	10000	1	1	0	1	0
455	773	0	10000	1	1	0	1	0
444	774	0	10000	1	1	0	1	0
434	775	0	10000	1	1	0	1	0
423	776	0	10000	1	1	0	1	0
413	777	0	10000	1	1	0	1	0
402	778	0	10000	1	1	0	1	0
387	779	0	10000	1	1	0	1	0
371	780	0	10000	1	1	0	1	0
359	781	0	10000	1	1	0	1	0
349	782	0	10000	1	1	0	1	0
339	783	0	10000	1	1	0	1	0
327	784	0	10000	1	1	0	1	0
313	785	0	10000	1	1	0	1	0
301	786	0	10000	1	1	0	1	0
292	787	0	10000	1	1	0	1	0
285	788	0	10000	1	1	0	1	0
285	789	0	10000	1	1	0	1	0
290	790	0	10000	1	1	0	1	0
294	791	0	10000	1	1	0	1	0
297	792	0	10000	1	1	0	1	0
297	793	0	10000	1	1	0	1	0
295	794	0	10000	1	1	0	1	0
293	795	0	10000	1	1	0	1	0
290	796	0	10000	1	1	0	1	0
283	797	0	10000	1	1	0	1	0
274	798	0	10000	1	1	0	1	0
262	799	0	10000	1	1	0	1	0
260	800	0	10000	1	1	0	1	0
263	801	0	10000	1	1	0	1	0
267	802	0	10000	1	1	0	1	0
269	803	0	10000	1	1	0	1	0
265	804	0	10000	1	1	0	1	0
258	805	0	10000	1	1	0	1	0
247	806	0	10000	1	1	0	1	0
240	807	0	10000	1	1	0	1	0
236	808	0	10000	1	1	0	1	0
238	809	0	10000	1	1	0	1	0
244	810	0	10000	1	1	0	1	0
245	811	0	10000	1	1	0	1	0
246	812	0	10000	1	1	0	1	0
246	813	0	10000	1	1	0	1	0
246	814	0	10000	1	1	0	1	0
246	815	0	10000	1	1	0	1	0
248	816	0	10000	1	1	0	1	0
246	817	0	10000	1	1	0	1	0
241	818	0	10000	1	1	0	1	0
229	819	0	10000	1	1	0	1	0
226	820	0	10000	1	1	0	1	0
230	821	0	10000	1	1	0	1	0
236	822	0	10000	1	1	0	1	0
242	823	0	10000	1	1	0	1	0
246	824	0	10000	1	1	0	1	0
245	825	0	10000	1	1	0	1	0
237	826	0	10000	1	1	0	1	0
227	827	0	10000	1	1	0	1	0
222	828	0	10000	1	1	0	1	0
222	829	0	10000	1	1	0	1	0
226	830	0	10000	1	1	0	1	0
225	831	0	10000	1	1	0	1	0
224	832	0	10000	1	1	0	1	0
222	833	0	10000	1	1	0	1	0
216	834	0	10000	1	1	0	1	0
210	835	0	10000	1	1	0	1	0
204	836	0	10000	1	1	0	1	0
199	837	0	10000	1	1	0	1	0
194	838	0	10000	1	1	0	1	0
186	839	0	10000	1	1	0	1	0
184	840	0	10000	1	1	0	1	0
187	841	0	10000	1	1	0	1	0
191	842	0	10000	1	1	0	1	0
194	843	0	10000	1	1	0	1	0
193	844	0	10000	1	1	0	1	0
192	845	0	10000	1	1	0	1	0
187	846	0	10000	1	1	0	1	0
180	847	0	10000	1	1	0	1	0
173	848	0	10000	1	1	0	1	0
168	849	0	10000	1	1	0	1	0
170	850	0	10000	1	1	0	1	0
168	851	0	10000	1	1	0	1	0
167	852	0	10000	1	1	0	1	0
168	853	0	10000	1	1	0	1	0
167	854	0	10000	1	1	0	1	0
169	855	0	10000	1	1	0	1	0
169	856	0	10000	1	1	0	1	0
166	857	0	10000	1	1	0	1	0
164	858	0	10000	1	1	0	1	0
156	859	0	10000	1	1	0	1	0
155	860	0	10000	1	1	0	1	0
157	861	0	10000	1	1	0	1	0
159	862	0	10000	1	1	0	1	0
158	863	0	10000	1	1	0	1	0
153	864	0	10000	1	1	0	1	0
148	865	0	10000	1	1	0	1	0
144	866	0	10000	1	1	0	1	0
139	867	0	10000	1	1	0	1	0
136	868	0	10000	1	1	0	1	0
140	869	0	10000	1	1	0	1	0
145	870	0	10000	1	1	0	1	0
146	871	0	10000	1	1	0	1	0
146	872	0	10000	1	1	0	1	0
145	873	0	10000	1	1	0	1	0
141	874	0	10000	1	1	0	1	0
140	875	0	10000	1	1	0	1	0
140	876	0	10000	1	1	0	1	0
139	877	0	10000	1	1	0	1	0
135	878	0	10000	1	1	0	1	0
129	879	0	10000	1	1	0	1	0
128	880	0	10000	1	1	0	1	0
132	881	0	10000	1	1	0	1	0
140	882	0	10000	1	1	0	1	0
144	883	0	10000	1	1	0	1	0
144	884	0	10000	1	1	0	1	0
141	885	0	10000	1	1	0	1	0
136	886	0	10000	1	1	0	1	0
131	887	0	10000	1	1	0	1	0
127	888	0	10000	1	1	0	1	0
126	889	0	10000	1	1	0	1	0
128	890	0	10000	1	1	0	1	0
125	891	0	10000	1	1	0	1	0
126	892	0	10000	1	1	0	1	0
129	893	0	10000	1	1	0	1	0
130	894	0	10000	1	1	0	1	0
132	895	0	10000	1	1	0	1	0
133	896	0	10000	1	1	0	1	0
130	897	0	10000	1	1	0	1	0
126	898	0	10000	1	1	0	1	0
123	899	0	10000	1	1	0	1	0
128	900	0	10000	1	1	0	1	0
136	901	0	10000	1	1	0	1	0
143	902	0	10000	1	1	0	1	0
144	903	0	10000	1	1	0	1	0
141	904	0	10000	1	1	0	1	0
141	905	0	10000	1	1	0	1	0
139	906	0	10000	1	1	0	1	0
133	907	0	10000	1	1	0	1	0
131	908	0	10000	1	1	0	1	0
135	909	0	10000	1	1	0	1	0
139	910	0	10000	1	1	0	1	0
140	911	0	10000	1	1	0	1	0
141	912	0	10000	1	1	0	1	0
139	913	0	10000	1	1	0	1	0
140	914	0	10000	1	1	0	1	0
141	915	0	10000	1	1	0	1	0
141	916	0	10000	1	1	0	1	0
142	917	0	10000	1	1	0	1	0
141	918	0	10000	1	1	0	1	0
136	919	0	10000	1	1	0	1	0
137	920	0	10000	1	1	0	1	0
142	921	0	10000	1	1	0	1	0
146	922	0	10000	1	1	0	1	0
148	923	0	10000	1	1	0	1	0
144	924	0	10000	1	1	0	1	0
141	925	0	10000	1	1	0	1	0
136	926	0	10000	1	1	0	1	0
131	927	0	10000	1	1	0	1	0
130	928	0	10000	1	1	0	1	0
138	929	0	10000	1	1	0	1	0
145	930	0	10000	1	1	0	1	0
147	931	0	10000	1	1	0	1	0
147	932	0	10000	1	1	0	1	0
145	933	0	10000	1	1	0	1	0
141	934	0	10000	1	1	0	1	0
138	935	0	10000	1	1	0	1	0
136	936	0	10000	1	1	0	1	0
134	937	0	10000	1	1	0	1	0
130	938	0	10000	1	1	0	1	0
124	939	0	10000	1	1	0	1	0
123	940	0	10000	1	1	0	1	0
128	941	0	10000	1	1	0	1	0
131	942	0	10000	1	1	0	1	0
131	943	0	10000	1	1	0	1	0
127	944	0	10000	1	1	0	1	0
125	945	0	10000	1	1	0	1	0
122	946	0	10000	1	1	0	1	0
117	947	0	10000	1	1	0	1	0
112	948	0	10000	1	1	0	1	0
113	949	0	10000	1	1	0	1	0
117	950	0	10000	1	1	0	1	0
121	951	0	10000	1	1	0	1	0
122	952	0	10000	1	1	0	1	0
120	953	0	10000	1	1	0	1	0
118	954	0	10000	1	1	0	1	0
118	955	0	10000	1	1	0	1	0
120	956	0	10000	1	1	0	1	0
117	957	0	10000	1	1	0	1	0
114	958	0	10000	1	1	0	1	0
109	959	0	10000	1	1	0	1	0
108	960	0	10000	1	1	0	1	0
112	961	0	10000	1	1	0	1	0
115	962	0	10000	1	1	0	1	0
117	963	0	10000	1	1	0	1	0
116	964	0	10000	1	1	0	1	0
115	965	0	10000	1	1	0	1	0
111	966	0	10000	1	1	0	1	0
110	967	0	10000	1	1	0	1	0
108	968	0	10000	1	1	0	1	0
109	969	0	10000	1	1	0	1	0
113	970	0	10000	1	1	0	1	0
113	971	0	10000	1	1	0	1	0
113	972	0	10000	1	1	0	1	0
113	973	0	10000	1	1	0	1	0
108	974	0	10000	1	1	0	1	0
105	975	0	10000	1	1	0	1	0
104	976	0	10000	1	1	0	1	0
103	977	0	10000	1	1	0	1	0
101	978	0	10000	1	1	0	1	0
96	979	0	10000	1	1	0	1	0
100	980	0	10000	1	1	0	1	0
104	981	0	10000	1	1	0	1	0
113	982	0	10000	1	1	0	1	0
116	983	0	10000	1	1	0	1	0
114	984	0	10000	1	1	0	1	0
110	985	0	10000	1	1	0	1	0
108	986	0	10000	1	1	0	1	0
107	987	0	10000	1	1	0	1	0
104	988	0	10000	1	1	0	1	0
106	989	0	10000	1	1	0	1	0
109	990	0	10000	1	1	0	1	0
107	991	0	10000	1	1	0	1	0
105	992	0	10000	1	1	0	1	0
104	993	0	10000	1	1	0	1	0
102	994	0	10000	1	1	0	1	0
98	995	0	10000	1	1	0	1	0
97	996	0	10000	1	1	0	1	0
96	997	0	10000	1	1	0	1	0
97	998	0	10000	1	1	0	1	0
92	999	0	10000	1	1	0	1	0
92	1000	0	10000	1	1	0	1	0
95	1001	0	10000	1	1	0	1	0
80	2	7	10000	2	1	0	2	0
83	3	7	10000	2	1	0	2	0
85	4	7	10000	2	1	0	2	0
85	5	7	10000	2	1	0	2	0
82	6	7	10000	2	1	0	2	0
79	7	7	10000	2	1	0	2	0
81	8	7	10000	2	1	0	2	0
80	9	7	10000	2	1	0	2	0
82	10	7	10000	2	1	0	2	0
84	11	7	10000	2	1	0	2	0
86	12	7	10000	2	1	0	2	0
89	13	7	10000	2	1	0	2	0
90	14	7	10000	2	1	0	2	0
87	15	7	10000	2	1	0	2	0
86	16	7	10000	2	1	0	2	0
90	17	7	10000	2	1	0	2	0
99	18	7	10000	2	1	0	2	0
103	19	7	10000	2	1	0	2	0
104	20	7	10000	2	1	0	2	0
101	21	7	10000	2	1	0	2	0
117	22	7	10000	2	1	0	2	0
137	23	7	10000	2	1	0	2	0
148	24	7	10000	2	1	0	2	0
148	25	7	10000	2	1	0	2	0
145	26	7	10000	2	1	0	2	0
142	27	7	10000	2	1	0	2	0
144	28	7	10000	2	1	0	2	0
144	29	7	10000	2	1	0	2	0
149	30	7	10000	2	1	0	2	0
154	31	7	10000	2	1	0	2	0
167	32	7	10000	2	1	0	2	0
165	33	7	10000	2	1	0	2	0
162	34	7	10000	2	1	0	2	0
164	35	7	10000	2	1	0	2	0
159	36	7	10000	2	1	0	2	0
164	37	7	10000	2	1	0	2	0
159	38	7	10000	2	1	0	2	0
153	39	7	10000	2	1	0	2	0
148	40	7	10000	2	1	0	2	0
145	41	7	10000	2	1	0	2	0
141	42	7	10000	2	1	0	2	0
136	43	7	10000	2	1	0	2	0
131	44	7	10000	2	1	0	2	0
133	45	7	10000	2	1	0	2	0
131	46	7	10000	2	1	0	2	0
133	47	7	10000	2	1	0	2	0
130	48	7	10000	2	1	0	2	0
136	49	7	10000	2	1	0	2	0
136	50	7	10000	2	1	0	2	0
133	51	7	10000	2	1	0	2	0
131	52	7	10000	2	1	0	2	0
135	53	7	10000	2	1	0	2	0
132	54	7	10000	2	1	0	2	0
128	55	7	10000	2	1	0	2	0
125	56	7	10000	2	1	0	2	0
122	57	7	10000	2	1	0	2	0
119	58	7	10000	2	1	0	2	0
124	59	7	10000	2	1	0	2	0
135	60	7	10000	2	1	0	2	0
144	61	7	10000	2	1	0	2	0
160	62	7	10000	2	1	0	2	0
174	63	7	10000	2	1	0	2	0
179	64	7	10000	2	1	0	2	0
182	65	7	10000	2	1	0	2	0
178	66	7	10000	2	1	0	2	0
172	67	7	10000	2	1	0	2	0
174	68	7	10000	2	1	0	2	0
182	69	7	10000	2	1	0	2	0
186	70	7	10000	2	1	0	2	0
187	71	7	10000	2	1	0	2	0
191	72	7	10000	2	1	0	2	0
186	73	7	10000	2	1	0	2	0
181	74	7	10000	2	1	0	2	0
178	75	7	10000	2	1	0	2	0
174	76	7	10000	2	1	0	2	0
168	77	7	10000	2	1	0	2	0
163	78	7	10000	2	1	0	2	0
160	79	7	10000	2	1	0	2	0
156	80	7	10000	2	1	0	2	0
158	81	7	10000	2	1	0	2	0
157	82	7	10000	2	1	0	2	0
151	83	7	10000	2	1	0	2	0
149	84	7	10000	2	1	0	2	0
153	85	7	10000	2	1	0	2	0
155	86	7	10000	2	1	0	2	0
152	87	7	10000	2	1	0	2	0
152	88	7	10000	2	1	0	2	0
152	89	7	10000	2	1	0	2	0
152	90	7	10000	2	1	0	2	0
156	91	7	10000	2	1	0	2	0
158	92	7	10000	2	1	0	2	0
168	93	7	10000	2	1	0	2	0
173	94	7	10000	2	1	0	2	0
177	95	7	10000	2	1	0	2	0
181	96	7	10000	2	1	0	2	0
187	97	7	10000	2	1	0	2	0
186	98	7	10000	2	1	0	2	0
183	99	7	10000	2	1	0	2	0
181	100	7	10000	2	1	0	2	0
177	101	7	10000	2	1	0	2	0
174	102	7	10000	2	1	0	2	0
167	103	7	10000	2	1	0	2	0
161	104	7	10000	2	1	0	2	0
168	105	7	10000	2	1	0	2	0
182	106	7	10000	2	1	0	2	0
187	107	7	10000	2	1	0	2	0
189	108	7	10000	2	1	0	2	0
190	109	7	10000	2	1	0	2	0
190	110	7	10000	2	1	0	2	0
189	111	7	10000	2	1	0	2	0
183	112	7	10000	2	1	0	2	0
184	113	7	10000	2	1	0	2	0
178	114	7	10000	2	1	0	2	0
172	115	7	10000	2	1	0	2	0
165	116	7	10000	2	1	0	2	0
161	117	7	10000	2	1	0	2	0
155	118	7	10000	2	1	0	2	0
151	119	7	10000	2	1	0	2	0
153	120	7	10000	2	1	0	2	0
154	121	7	10000	2	1	0	2	0
154	122	7	10000	2	1	0	2	0
156	123	7	10000	2	1	0	2	0
171	124	7	10000	2	1	0	2	0
174	125	7	10000	2	1	0	2	0
171	126	7	10000	2	1	0	2	0
166	127	7	10000	2	1	0	2	0
160	128	7	10000	2	1	0	2	0
157	129	7	10000	2	1	0	2	0
156	130	7	10000	2	1	0	2	0
159	131	7	10000	2	1	0	2	0
153	132	7	10000	2	1	0	2	0
149	133	7	10000	2	1	0	2	0
147	134	7	10000	2	1	0	2	0
147	135	7	10000	2	1	0	2	0
144	136	7	10000	2	1	0	2	0
145	137	7	10000	2	1	0	2	0
142	138	7	10000	2	1	0	2	0
140	139	7	10000	2	1	0	2	0
140	140	7	10000	2	1	0	2	0
145	141	7	10000	2	1	0	2	0
151	142	7	10000	2	1	0	2	0
154	143	7	10000	2	1	0	2	0
150	144	7	10000	2	1	0	2	0
153	145	7	10000	2	1	0	2	0
148	146	7	10000	2	1	0	2	0
142	147	7	10000	2	1	0	2	0
145	148	7	10000	2	1	0	2	0
141	149	7	10000	2	1	0	2	0
136	150	7	10000	2	1	0	2	0
133	151	7	10000	2	1	0	2	0
128	152	7	10000	2	1	0	2	0
124	153	7	10000	2	1	0	2	0
120	154	7	10000	2	1	0	2	0
119	155	7	10000	2	1	0	2	0
117	156	7	10000	2	1	0	2	0
123	157	7	10000	2	1	0	2	0
121	158	7	10000	2	1	0	2	0
120	159	7	10000	2	1	0	2	0
118	160	7	10000	2	1	0	2	0
119	161	7	10000	2	1	0	2	0
116	162	7	10000	2	1	0	2	0
112	163	7	10000	2	1	0	2	0
109	164	7	10000	2	1	0	2	0
107	165	7	10000	2	1	0	2	0
112	166	7	10000	2	1	0	2	0
109	167	7	10000	2	1	0	2	0
113	168	7	10000	2	1	0	2	0
120	169	7	10000	2	1	0	2	0
118	170	7	10000	2	1	0	2	0
113	171	7	10000	2	1	0	2	0
115	172	7	10000	2	1	0	2	0
122	173	7	10000	2	1	0	2	0
127	174	7	10000	2	1	0	2	0
128	175	7	10000	2	1	0	2	0
124	176	7	10000	2	1	0	2	0
124	177	7	10000	2	1	0	2	0
128	178	7	10000	2	1	0	2	0
127	179	7	10000	2	1	0	2	0
126	180	7	10000	2	1	0	2	0
138	181	7	10000	2	1	0	2	0
145	182	7	10000	2	1	0	2	0
150	183	7	10000	2	1	0	2	0
164	184	7	10000	2	1	0	2	0
174	185	7	10000	2	1	0	2	0
170	186	7	10000	2	1	0	2	0
164	187	7	10000	2	1	0	2	0
160	188	7	10000	2	1	0	2	0
154	189	7	10000	2	1	0	2	0
150	190	7	10000	2	1	0	2	0
145	191	7	10000	2	1	0	2	0
144	192	7	10000	2	1	0	2	0
146	193	7	10000	2	1	0	2	0
144	194	7	10000	2	1	0	2	0
143	195	7	10000	2	1	0	2	0
147	196	7	10000	2	1	0	2	0
155	197	7	10000	2	1	0	2	0
157	198	7	10000	2	1	0	2	0
152	199	7	10000	2	1	0	2	0
147	200	7	10000	2	1	0	2	0
141	201	7	10000	2	1	0	2	0
144	202	7	10000	2	1	0	2	0
144	203	7	10000	2	1	0	2	0
142	204	7	10000	2	1	0	2	0
140	205	7	10000	2	1	0	2	0
137	206	7	10000	2	1	0	2	0
132	207	7	10000	2	1	0	2	0
127	208	7	10000	2	1	0	2	0
126	209	7	10000	2	1	0	2	0
130	210	7	10000	2	1	0	2	0
126	211	7	10000	2	1	0	2	0
123	212	7	10000	2	1	0	2	0
121	213	7	10000	2	1	0	2	0
124	214	7	10000	2	1	0	2	0
125	215	7	10000	2	1	0	2	0
126	216	7	10000	2	1	0	2	0
134	217	7	10000	2	1	0	2	0
132	218	7	10000	2	1	0	2	0
129	219	7	10000	2	1	0	2	0
125	220	7	10000	2	1	0	2	0
122	221	7	10000	2	1	0	2	0
127	222	7	10000	2	1	0	2	0
125	223	7	10000	2	1	0	2	0
121	224	7	10000	2	1	0	2	0
119	225	7	10000	2	1	0	2	0
120	226	7	10000	2	1	0	2	0
122	227	7	10000	2	1	0	2	0
125	228	7	10000	2	1	0	2	0
128	229	7	10000	2	1	0	2	0
138	230	7	10000	2	1	0	2	0
140	231	7	10000	2	1	0	2	0
135	232	7	10000	2	1	0	2	0
134	233	7	10000	2	1	0	2	0
129	234	7	10000	2	1	0	2	0
127	235	7	10000	2	1	0	2	0
125	236	7	10000	2	1	0	2	0
123	237	7	10000	2	1	0	2	0
121	238	7	10000	2	1	0	2	0
117	239	7	10000	2	1	0	2	0
115	240	7	10000	2	1	0	2	0
112	241	7	10000	2	1	0	2	0
111	242	7	10000	2	1	0	2	0
115	243	7	10000	2	1	0	2	0
115	244	7	10000	2	1	0	2	0
117	245	7	10000	2	1	0	2	0
115	246	7	10000	2	1	0	2	0
110	247	7	10000	2	1	0	2	0
106	248	7	10000	2	1	0	2	0
109	249	7	10000	2	1	0	2	0
116	250	7	10000	2	1	0	2	0
123	251	7	10000	2	1	0	2	0
133	252	7	10000	2	1	0	2	0
144	253	7	10000	2	1	0	2	0
152	254	7	10000	2	1	0	2	0
148	255	7	10000	2	1	0	2	0
142	256	7	10000	2	1	0	2	0
142	257	7	10000	2	1	0	2	0
138	258	7	10000	2	1	0	2	0
133	259	7	10000	2	1	0	2	0
129	260	7	10000	2	1	0	2	0
126	261	7	10000	2	1	0	2	0
122	262	7	10000	2	1	0	2	0
119	263	7	10000	2	1	0	2	0
118	264	7	10000	2	1	0	2	0
115	265	7	10000	2	1	0	2	0
114	266	7	10000	2	1	0	2	0
111	267	7	10000	2	1	0	2	0
107	268	7	10000	2	1	0	2	0
108	269	7	10000	2	1	0	2	0
110	270	7	10000	2	1	0	2	0
109	271	7	10000	2	1	0	2	0
104	272	7	10000	2	1	0	2	0
101	273	7	10000	2	1	0	2	0
99	274	7	10000	2	1	0	2	0
105	275	7	10000	2	1	0	2	0
109	276	7	10000	2	1	0	2	0
113	277	7	10000	2	1	0	2	0
117	278	7	10000	2	1	0	2	0
126	279	7	10000	2	1	0	2	0
132	280	7	10000	2	1	0	2	0
132	281	7	10000	2	1	0	2	0
133	282	7	10000	2	1	0	2	0
131	283	7	10000	2	1	0	2	0
130	284	7	10000	2	1	0	2	0
130	285	7	10000	2	1	0	2	0
132	286	7	10000	2	1	0	2	0
128	287	7	10000	2	1	0	2	0
124	288	7	10000	2	1	0	2	0
120	289	7	10000	2	1	0	2	0
118	290	7	10000	2	1	0	2	0
117	291	7	10000	2	1	0	2	0
120	292	7	10000	2	1	0	2	0
120	293	7	10000	2	1	0	2	0
116	294	7	10000	2	1	0	2	0
112	295	7	10000	2	1	0	2	0
111	296	7	10000	2	1	0	2	0
113	297	7	10000	2	1	0	2	0
113	298	7	10000	2	1	0	2	0
113	299	7	10000	2	1	0	2	0
110	300	7	10000	2	1	0	2	0
106	301	7	10000	2	1	0	2	0
102	302	7	10000	2	1	0	2	0
99	303	7	10000	2	1	0	2	0
97	304	7	10000	2	1	0	2	0
94	305	7	10000	2	1	0	2	0
92	306	7	10000	2	1	0	2	0
90	307	7	10000	2	1	0	2	0
92	308	7	10000	2	1	0	2	0
91	309	7	10000	2	1	0	2	0
89	310	7	10000	2	1	0	2	0
86	311	7	10000	2	1	0	2	0
86	312	7	10000	2	1	0	2	0
86	313	7	10000	2	1	0	2	0
82	314	7	10000	2	1	0	2	0
79	315	7	10000	2	1	0	2	0
78	316	7	10000	2	1	0	2	0
77	317	7	10000	2	1	0	2	0
76	318	7	10000	2	1	0	2	0
82	319	7	10000	2	1	0	2	0
94	320	7	10000	2	1	0	2	0
106	321	7	10000	2	1	0	2	0
116	322	7	10000	2	1	0	2	0
117	323	7	10000	2	1	0	2	0
116	324	7	10000	2	1	0	2	0
118	325	7	10000	2	1	0	2	0
114	326	7	10000	2	1	0	2	0
110	327	7	10000	2	1	0	2	0
117	328	7	10000	2	1	0	2	0
121	329	7	10000	2	1	0	2	0
121	330	7	10000	2	1	0	2	0
121	331	7	10000	2	1	0	2	0
119	332	7	10000	2	1	0	2	0
116	333	7	10000	2	1	0	2	0
113	334	7	10000	2	1	0	2	0
112	335	7	10000	2	1	0	2	0
108	336	7	10000	2	1	0	2	0
106	337	7	10000	2	1	0	2	0
103	338	7	10000	2	1	0	2	0
104	339	7	10000	2	1	0	2	0
104	340	7	10000	2	1	0	2	0
103	341	7	10000	2	1	0	2	0
107	342	7	10000	2	1	0	2	0
106	343	7	10000	2	1	0	2	0
104	344	7	10000	2	1	0	2	0
105	345	7	10000	2	1	0	2	0
111	346	7	10000	2	1	0	2	0
114	347	7	10000	2	1	0	2	0
116	348	7	10000	2	1	0	2	0
117	349	7	10000	2	1	0	2	0
117	350	7	10000	2	1	0	2	0
114	351	7	10000	2	1	0	2	0
115	352	7	10000	2	1	0	2	0
115	353	7	10000	2	1	0	2	0
113	354	7	10000	2	1	0	2	0
108	355	7	10000	2	1	0	2	0
104	356	7	10000	2	1	0	2	0
106	357	7	10000	2	1	0	2	0
106	358	7	10000	2	1	0	2	0
108	359	7	10000	2	1	0	2	0
112	360	7	10000	2	1	0	2	0
113	361	7	10000	2	1	0	2	0
112	362	7	10000	2	1	0	2	0
109	363	7	10000	2	1	0	2	0
105	364	7	10000	2	1	0	2	0
106	365	7	10000	2	1	0	2	0
109	366	7	10000	2	1	0	2	0
108	367	7	10000	2	1	0	2	0
118	368	7	10000	2	1	0	2	0
126	369	7	10000	2	1	0	2	0
124	370	7	10000	2	1	0	2	0
129	371	7	10000	2	1	0	2	0
142	372	7	10000	2	1	0	2	0
147	373	7	10000	2	1	0	2	0
144	374	7	10000	2	1	0	2	0
140	375	7	10000	2	1	0	2	0
138	376	7	10000	2	1	0	2	0
140	377	7	10000	2	1	0	2	0
139	378	7	10000	2	1	0	2	0
135	379	7	10000	2	1	0	2	0
139	380	7	10000	2	1	0	2	0
135	381	7	10000	2	1	0	2	0
137	382	7	10000	2	1	0	2	0
141	383	7	10000	2	1	0	2	0
143	384	7	10000	2	1	0	2	0
142	385	7	10000	2	1	0	2	0
139	386	7	10000	2	1	0	2	0
132	387	7	10000	2	1	0	2	0
127	388	7	10000	2	1	0	2	0
123	389	7	10000	2	1	0	2	0
123	390	7	10000	2	1	0	2	0
121	391	7	10000	2	1	0	2	0
118	392	7	10000	2	1	0	2	0
115	393	7	10000	2	1	0	2	0
110	394	7	10000	2	1	0	2	0
106	395	7	10000	2	1	0	2	0
103	396	7	10000	2	1	0	2	0
105	397	7	10000	2	1	0	2	0
107	398	7	10000	2	1	0	2	0
107	399	7	10000	2	1	0	2	0
107	400	7	10000	2	1	0	2	0
104	401	7	10000	2	1	0	2	0
102	402	7	10000	2	1	0	2	0
102	403	7	10000	2	1	0	2	0
108	404	7	10000	2	1	0	2	0
111	405	7	10000	2	1	0	2	0
111	406	7	10000	2	1	0	2	0
111	407	7	10000	2	1	0	2	0
109	408	7	10000	2	1	0	2	0
105	409	7	10000	2	1	0	2	0
103	410	7	10000	2	1	0	2	0
101	411	7	10000	2	1	0	2	0
96	412	7	10000	2	1	0	2	0
93	413	7	10000	2	1	0	2	0
89	414	7	10000	2	1	0	2	0
88	415	7	10000	2	1	0	2	0
85	416	7	10000	2	1	0	2	0
84	417	7	10000	2	1	0	2	0
82	418	7	10000	2	1	0	2	0
81	419	7	10000	2	1	0	2	0
84	420	7	10000	2	1	0	2	0
92	421	7	10000	2	1	0	2	0
98	422	7	10000	2	1	0	2	0
101	423	7	10000	2	1	0	2	0
99	424	7	10000	2	1	0	2	0
98	425	7	10000	2	1	0	2	0
102	426	7	10000	2	1	0	2	0
99	427	7	10000	2	1	0	2	0
96	428	7	10000	2	1	0	2	0
94	429	7	10000	2	1	0	2	0
93	430	7	10000	2	1	0	2	0
95	431	7	10000	2	1	0	2	0
100	432	7	10000	2	1	0	2	0
101	433	7	10000	2	1	0	2	0
100	434	7	10000	2	1	0	2	0
100	435	7	10000	2	1	0	2	0
97	436	7	10000	2	1	0	2	0
102	437	7	10000	2	1	0	2	0
104	438	7	10000	2	1	0	2	0
104	439	7	10000	2	1	0	2	0
102	440	7	10000	2	1	0	2	0
98	441	7	10000	2	1	0	2	0
97	442	7	10000	2	1	0	2	0
95	443	7	10000	2	1	0	2	0
100	444	7	10000	2	1	0	2	0
102	445	7	10000	2	1	0	2	0
105	446	7	10000	2	1	0	2	0
107	447	7	10000	2	1	0	2	0
106	448	7	10000	2	1	0	2	0
102	449	7	10000	2	1	0	2	0
100	450	7	10000	2	1	0	2	0
97	451	7	10000	2	1	0	2	0
93	452	7	10000	2	1	0	2	0
92	453	7	10000	2	1	0	2	0
87	454	7	10000	2	1	0	2	0
83	455	7	10000	2	1	0	2	0
80	456	7	10000	2	1	0	2	0
80	457	7	10000	2	1	0	2	0
78	458	7	10000	2	1	0	2	0
75	459	7	10000	2	1	0	2	0
73	460	7	10000	2	1	0	2	0
71	461	7	10000	2	1	0	2	0
68	462	7	10000	2	1	0	2	0
68	463	7	10000	2	1	0	2	0
71	464	7	10000	2	1	0	2	0
72	465	7	10000	2	1	0	2	0
70	466	7	10000	2	1	0	2	0
66	467	7	10000	2	1	0	2	0
71	468	7	10000	2	1	0	2	0
78	469	7	10000	2	1	0	2	0
83	470	7	10000	2	1	0	2	0
85	471	7	10000	2	1	0	2	0
85	472	7	10000	2	1	0	2	0
83	473	7	10000	2	1	0	2	0
80	474	7	10000	2	1	0	2	0
78	475	7	10000	2	1	0	2	0
75	476	7	10000	2	1	0	2	0
74	477	7	10000	2	1	0	2	0
76	478	7	10000	2	1	0	2	0
78	479	7	10000	2	1	0	2	0
81	480	7	10000	2	1	0	2	0
85	481	7	10000	2	1	0	2	0
88	482	7	10000	2	1	0	2	0
91	483	7	10000	2	1	0	2	0
89	484	7	10000	2	1	0	2	0
86	485	7	10000	2	1	0	2	0
83	486	7	10000	2	1	0	2	0
80	487	7	10000	2	1	0	2	0
78	488	7	10000	2	1	0	2	0
78	489	7	10000	2	1	0	2	0
81	490	7	10000	2	1	0	2	0
80	491	7	10000	2	1	0	2	0
77	492	7	10000	2	1	0	2	0
78	493	7	10000	2	1	0	2	0
78	494	7	10000	2	1	0	2	0
76	495	7	10000	2	1	0	2	0
75	496	7	10000	2	1	0	2	0
76	497	7	10000	2	1	0	2	0
75	498	7	10000	2	1	0	2	0
74	499	7	10000	2	1	0	2	0
72	500	7	10000	2	1	0	2	0
71	501	7	10000	2	1	0	2	0
72	502	7	10000	2	1	0	2	1
69	503	7	10000	2	1	0	2	1
69	504	7	10000	2	1	0	2	1
69	505	7	10000	2	1	0	2	1
66	506	7	10000	2	1	0	2	1
61	507	7	10000	2	1	0	2	1
61	508	7	10000	2	1	0	2	1
61	509	7	10000	2	1	0	2	1
63	510	7	10000	2	1	0	2	1
64	511	7	10000	2	1	0	2	1
62	512	7	10000	2	1	0	2	1
61	513	7	10000	2	1	0	2	1
63	514	7	10000	2	1	0	2	1
66	515	7	10000	2	1	0	2	1
66	516	7	10000	2	1	0	2	1
65	517	7	10000	2	1	0	2	1
62	518	7	10000	2	1	0	2	1
59	519	7	10000	2	1	0	2	1
57	520	7	10000	2	1	0	2	1
56	521	7	10000	2	1	0	2	1
58	522	7	10000	2	1	0	2	1
56	523	7	10000	2	1	0	2	1
56	524	7	10000	2	1	0	2	1
56	525	7	10000	2	1	0	2	1
57	526	7	10000	2	1	0	2	1
56	527	7	10000	2	1	0	2	1
60	528	7	10000	2	1	0	2	1
61	529	7	10000	2	1	0	2	1
60	530	7	10000	2	1	0	2	1
58	531	7	10000	2	1	0	2	1
56	532	7	10000	2	1	0	2	1
55	533	7	10000	2	1	0	2	1
53	534	7	10000	2	1	0	2	1
52	535	7	10000	2	1	0	2	1
54	536	7	10000	2	1	0	2	1
56	537	7	10000	2	1	0	2	1
56	538	7	10000	2	1	0	2	1
56	539	7	10000	2	1	0	2	1
55	540	7	10000	2	1	0	2	1
54	541	7	10000	2	1	0	2	1
52	542	7	10000	2	1	0	2	1
50	543	7	10000	2	1	0	2	1
49	544	7	10000	2	1	0	2	1
48	545	7	10000	2	1	0	2	1
47	546	7	10000	2	1	0	2	1
44	547	7	10000	2	1	0	2	1
44	548	7	10000	2	1	0	2	1
46	549	7	10000	2	1	0	2	1
48	550	7	10000	2	1	0	2	1
51	551	7	10000	2	1	0	2	1
51	552	7	10000	2	1	0	2	0
50	553	7	10000	2	1	0	2	0
48	554	7	10000	2	1	0	2	0
51	555	7	10000	2	1	0	2	0
50	556	7	10000	2	1	0	2	0
51	557	7	10000	2	1	0	2	0
48	558	7	10000	2	1	0	2	0
49	559	7	10000	2	1	0	2	0
52	560	7	10000	2	1	0	2	0
51	561	7	10000	2	1	0	2	0
50	562	7	10000	2	1	0	2	0
48	563	7	10000	2	1	0	2	0
49	564	7	10000	2	1	0	2	0
51	565	7	10000	2	1	0	2	0
53	566	7	10000	2	1	0	2	0
54	567	7	10000	2	1	0	2	0
56	568	7	10000	2	1	0	2	0
58	569	7	10000	2	1	0	2	0
59	570	7	10000	2	1	0	2	0
59	571	7	10000	2	1	0	2	0
60	572	7	10000	2	1	0	2	0
62	573	7	10000	2	1	0	2	0
63	574	7	10000	2	1	0	2	0
63	575	7	10000	2	1	0	2	0
61	576	7	10000	2	1	0	2	0
63	577	7	10000	2	1	0	2	0
60	578	7	10000	2	1	0	2	0
58	579	7	10000	2	1	0	2	0
57	580	7	10000	2	1	0	2	0
57	581	7	10000	2	1	0	2	0
56	582	7	10000	2	1	0	2	0
53	583	7	10000	2	1	0	2	0
53	584	7	10000	2	1	0	2	0
53	585	7	10000	2	1	0	2	0
54	586	7	10000	2	1	0	2	0
59	587	7	10000	2	1	0	2	0
74	588	7	10000	2	1	0	2	0
96	589	7	10000	2	1	0	2	0
114	590	7	10000	2	1	0	2	0
121	591	7	10000	2	1	0	2	0
126	592	7	10000	2	1	0	2	0
132	593	7	10000	2	1	0	2	0
132	594	7	10000	2	1	0	2	0
134	595	7	10000	2	1	0	2	0
133	596	7	10000	2	1	0	2	0
135	597	7	10000	2	1	0	2	0
147	598	7	10000	2	1	0	2	0
145	599	7	10000	2	1	0	2	0
157	600	7	10000	2	1	0	2	0
175	601	7	10000	2	1	0	2	0
188	602	7	10000	2	1	0	2	0
187	603	7	10000	2	1	0	2	0
185	604	7	10000	2	1	0	2	0
180	605	7	10000	2	1	0	2	0
192	606	7	10000	2	1	0	2	0
216	607	7	10000	2	1	0	2	0
235	608	7	10000	2	1	0	2	0
252	609	7	10000	2	1	0	2	0
258	610	7	10000	2	1	0	2	0
250	611	7	10000	2	1	0	2	0
244	612	7	10000	2	1	0	2	0
239	613	7	10000	2	1	0	2	0
233	614	7	10000	2	1	0	2	0
255	615	7	10000	2	1	0	2	0
261	616	7	10000	2	1	0	2	0
320	617	7	10000	2	1	0	2	0
359	618	7	10000	2	1	0	2	0
364	619	7	10000	2	1	0	2	0
424	620	7	10000	2	1	0	2	0
451	621	7	10000	2	1	0	2	0
472	622	7	10000	2	1	0	2	0
481	623	7	10000	2	1	0	2	0
479	624	7	10000	2	1	0	2	0
462	625	7	10000	2	1	0	2	0
448	626	7	10000	2	1	0	2	0
446	627	7	10000	2	1	0	2	0
454	628	7	10000	2	1	0	2	0
466	629	7	10000	2	1	0	2	0
485	630	7	10000	2	1	0	2	0
498	631	7	10000	2	1	0	2	0
514	632	7	10000	2	1	0	2	0
519	633	7	10000	2	1	0	2	0
520	634	7	10000	2	1	0	2	0
518	635	7	10000	2	1	0	2	0
522	636	7	10000	2	1	0	2	0
524	637	7	10000	2	1	0	2	0
540	638	7	10000	2	1	0	2	0
553	639	7	10000	2	1	0	2	0
549	640	7	10000	2	1	0	2	0
536	641	7	10000	2	1	0	2	0
532	642	7	10000	2	1	0	2	0
527	643	7	10000	2	1	0	2	0
520	644	7	10000	2	1	0	2	0
502	645	7	10000	2	1	0	2	0
486	646	7	10000	2	1	0	2	0
463	647	7	10000	2	1	0	2	0
447	648	7	10000	2	1	0	2	0
432	649	7	10000	2	1	0	2	0
419	650	7	10000	2	1	0	2	0
405	651	7	10000	2	1	0	2	0
410	652	7	10000	2	1	0	2	0
421	653	7	10000	2	1	0	2	0
428	654	7	10000	2	1	0	2	0
435	655	7	10000	2	1	0	2	0
451	656	7	10000	2	1	0	2	0
475	657	7	10000	2	1	0	2	0
497	658	7	10000	2	1	0	2	0
518	659	7	10000	2	1	0	2	0
538	660	7	10000	2	1	0	2	0
562	661	7	10000	2	1	0	2	0
580	662	7	10000	2	1	0	2	0
592	663	7	10000	2	1	0	2	0
605	664	7	10000	2	1	0	2	0
614	665	7	10000	2	1	0	2	0
622	666	7	10000	2	1	0	2	0
626	667	7	10000	2	1	0	2	0
636	668	7	10000	2	1	0	2	0
651	669	7	10000	2	1	0	2	0
658	670	7	10000	2	1	0	2	0
657	671	7	10000	2	1	0	2	0
662	672	7	10000	2	1	0	2	0
673	673	7	10000	2	1	0	2	0
687	674	7	10000	2	1	0	2	0
693	675	7	10000	2	1	0	2	0
694	676	7	10000	2	1	0	2	0
688	677	7	10000	2	1	0	2	0
683	678	7	10000	2	1	0	2	0
693	679	7	10000	2	1	0	2	0
696	680	7	10000	2	1	0	2	0
694	681	7	10000	2	1	0	2	0
690	682	7	10000	2	1	0	2	0
686	683	7	10000	2	1	0	2	0
690	684	7	10000	2	1	0	2	0
701	685	7	10000	2	1	0	2	0
704	686	7	10000	2	1	0	2	0
702	687	7	10000	2	1	0	2	0
697	688	7	10000	2	1	0	2	0
694	689	7	10000	2	1	0	2	0
687	690	7	10000	2	1	0	2	0
670	691	7	10000	2	1	0	2	0
655	692	7	10000	2	1	0	2	0
638	693	7	10000	2	1	0	2	0
613	694	7	10000	2	1	0	2	0
597	695	7	10000	2	1	0	2	0
586	696	7	10000	2	1	0	2	0
577	697	7	10000	2	1	0	2	0
561	698	7	10000	2	1	0	2	0
544	699	7	10000	2	1	0	2	0
531	700	7	10000	2	1	0	2	0
523	701	7	10000	2	1	0	2	0
516	702	7	10000	2	1	0	2	0
510	703	7	10000	2	1	0	2	0
506	704	7	10000	2	1	0	2	0
499	705	7	10000	2	1	0	2	0
488	706	7	10000	2	1	0	2	0
474	707	7	10000	2	1	0	2	0
457	708	7	10000	2	1	0	2	0
438	709	7	10000	2	1	0	2	0
421	710	7	10000	2	1	0	2	0
404	711	7	10000	2	1	0	2	0
390	712	7	10000	2	1	0	2	0
380	713	7	10000	2	1	0	2	0
366	714	7	10000	2	1	0	2	0
353	715	7	10000	2	1	0	2	0
342	716	7	10000	2	1	0	2	0
334	717	7	10000	2	1	0	2	0
330	718	7	10000	2	1	0	2	0
329	719	7	10000	2	1	0	2	0
331	720	7	10000	2	1	0	2	0
332	721	7	10000	2	1	0	2	0
333	722	7	10000	2	1	0	2	0
336	723	7	10000	2	1	0	2	0
339	724	7	10000	2	1	0	2	0
341	725	7	10000	2	1	0	2	0
344	726	7	10000	2	1	0	2	0
346	727	7	10000	2	1	0	2	0
349	728	7	10000	2	1	0	2	0
351	729	7	10000	2	1	0	2	0
353	730	7	10000	2	1	0	2	0
356	731	7	10000	2	1	0	2	0
357	732	7	10000	2	1	0	2	0
357	733	7	10000	2	1	0	2	0
359	734	7	10000	2	1	0	2	0
363	735	7	10000	2	1	0	2	0
367	736	7	10000	2	1	0	2	0
373	737	7	10000	2	1	0	2	0
374	738	7	10000	2	1	0	2	0
372	739	7	10000	2	1	0	2	0
370	740	7	10000	2	1	0	2	0
367	741	7	10000	2	1	0	2	0
362	742	7	10000	2	1	0	2	0
361	743	7	10000	2	1	0	2	0
357	744	7	10000	2	1	0	2	0
353	745	7	10000	2	1	0	2	0
348	746	7	10000	2	1	0	2	0
343	747	7	10000	2	1	0	2	0
340	748	7	10000	2	1	0	2	0
337	749	7	10000	2	1	0	2	0
329	750	7	10000	2	1	0	2	0
320	751	7	10000	2	1	0	2	0
314	752	7	10000	2	1	0	2	0
311	753	7	10000	2	1	0	2	0
307	754	7	10000	2	1	0	2	0
306	755	7	10000	2	1	0	2	0
303	756	7	10000	2	1	0	2	0
300	757	7	10000	2	1	0	2	0
296	758	7	10000	2	1	0	2	0
292	759	7	10000	2	1	0	2	0
286	760	7	10000	2	1	0	2	0
282	761	7	10000	2	1	0	2	0
278	762	7	10000	2	1	0	2	0
272	763	7	10000	2	1	0	2	0
265	764	7	10000	2	1	0	2	0
258	765	7	10000	2	1	0	2	0
251	766	7	10000	2	1	0	2	0
244	767	7	10000	2	1	0	2	0
238	768	7	10000	2	1	0	2	0
232	769	7	10000	2	1	0	2	0
227	770	7	10000	2	1	0	2	0
221	771	7	10000	2	1	0	2	0
217	772	7	10000	2	1	0	2	0
215	773	7	10000	2	1	0	2	0
209	774	7	10000	2	1	0	2	0
203	775	7	10000	2	1	0	2	0
195	776	7	10000	2	1	0	2	0
189	777	7	10000	2	1	0	2	0
182	778	7	10000	2	1	0	2	0
177	779	7	10000	2	1	0	2	0
173	780	7	10000	2	1	0	2	0
170	781	7	10000	2	1	0	2	0
165	782	7	10000	2	1	0	2	0
164	783	7	10000	2	1	0	2	0
162	784	7	10000	2	1	0	2	0
158	785	7	10000	2	1	0	2	0
153	786	7	10000	2	1	0	2	0
147	787	7	10000	2	1	0	2	0
143	788	7	10000	2	1	0	2	0
141	789	7	10000	2	1	0	2	0
139	790	7	10000	2	1	0	2	0
135	791	7	10000	2	1	0	2	0
131	792	7	10000	2	1	0	2	0
128	793	7	10000	2	1	0	2	0
122	794	7	10000	2	1	0	2	0
116	795	7	10000	2	1	0	2	0
113	796	7	10000	2	1	0	2	0
113	797	7	10000	2	1	0	2	0
110	798	7	10000	2	1	0	2	0
105	799	7	10000	2	1	0	2	0
100	800	7	10000	2	1	0	2	0
97	801	7	10000	2	1	0	2	0
93	802	7	10000	2	1	0	2	0
91	803	7	10000	2	1	0	2	0
91	804	7	10000	2	1	0	2	0
88	805	7	10000	2	1	0	2	0
85	806	7	10000	2	1	0	2	0
81	807	7	10000	2	1	0	2	0
80	808	7	10000	2	1	0	2	0
79	809	7	10000	2	1	0	2	0
80	810	7	10000	2	1	0	2	0
80	811	7	10000	2	1	0	2	0
80	812	7	10000	2	1	0	2	0
80	813	7	10000	2	1	0	2	0
78	814	7	10000	2	1	0	2	0
78	815	7	10000	2	1	0	2	0
79	816	7	10000	2	1	0	2	0
80	817	7	10000	2	1	0	2	0
79	818	7	10000	2	1	0	2	0
76	819	7	10000	2	1	0	2	0
73	820	7	10000	2	1	0	2	0
70	821	7	10000	2	1	0	2	0
67	822	7	10000	2	1	0	2	0
65	823	7	10000	2	1	0	2	0
63	824	7	10000	2	1	0	2	0
60	825	7	10000	2	1	0	2	0
58	826	7	10000	2	1	0	2	0
54	827	7	10000	2	1	0	2	0
52	828	7	10000	2	1	0	2	0
51	829	7	10000	2	1	0	2	0
49	830	7	10000	2	1	0	2	0
47	831	7	10000	2	1	0	2	0
47	832	7	10000	2	1	0	2	0
45	833	7	10000	2	1	0	2	0
45	834	7	10000	2	1	0	2	0
43	835	7	10000	2	1	0	2	0
42	836	7	10000	2	1	0	2	0
43	837	7	10000	2	1	0	2	0
42	838	7	10000	2	1	0	2	0
41	839	7	10000	2	1	0	2	0
40	840	7	10000	2	1	0	2	0
40	841	7	10000	2	1	0	2	0
40	842	7	10000	2	1	0	2	0
39	843	7	10000	2	1	0	2	0
41	844	7	10000	2	1	0	2	0
40	845	7	10000	2	1	0	2	0
39	846	7	10000	2	1	0	2	0
36	847	7	10000	2	1	0	2	0
36	848	7	10000	2	1	0	2	0
35	849	7	10000	2	1	0	2	0
35	850	7	10000	2	1	0	2	0
34	851	7	10000	2	1	0	2	0
34	852	7	10000	2	1	0	2	0
33	853	7	10000	2	1	0	2	0
32	854	7	10000	2	1	0	2	0
31	855	7	10000	2	1	0	2	0
32	856	7	10000	2	1	0	2	0
33	857	7	10000	2	1	0	2	0
33	858	7	10000	2	1	0	2	0
32	859	7	10000	2	1	0	2	0
30	860	7	10000	2	1	0	2	0
29	861	7	10000	2	1	0	2	0
29	862	7	10000	2	1	0	2	0
27	863	7	10000	2	1	0	2	0
27	864	7	10000	2	1	0	2	0
27	865	7	10000	2	1	0	2	0
28	866	7	10000	2	1	0	2	0
30	867	7	10000	2	1	0	2	0
33	868	7	10000	2	1	0	2	0
32	869	7	10000	2	1	0	2	0
32	870	7	10000	2	1	0	2	0
31	871	7	10000	2	1	0	2	0
30	872	7	10000	2	1	0	2	0
30	873	7	10000	2	1	0	2	0
31	874	7	10000	2	1	0	2	0
31	875	7	10000	2	1	0	2	0
30	876	7	10000	2	1	0	2	0
31	877	7	10000	2	1	0	2	0
30	878	7	10000	2	1	0	2	0
29	879	7	10000	2	1	0	2	0
28	880	7	10000	2	1	0	2	0
28	881	7	10000	2	1	0	2	0
26	882	7	10000	2	1	0	2	0
26	883	7	10000	2	1	0	2	0
25	884	7	10000	2	1	0	2	0
25	885	7	10000	2	1	0	2	0
25	886	7	10000	2	1	0	2	0
23	887	7	10000	2	1	0	2	0
23	888	7	10000	2	1	0	2	0
23	889	7	10000	2	1	0	2	0
25	890	7	10000	2	1	0	2	0
24	891	7	10000	2	1	0	2	0
25	892	7	10000	2	1	0	2	0
26	893	7	10000	2	1	0	2	0
26	894	7	10000	2	1	0	2	0
27	895	7	10000	2	1	0	2	0
29	896	7	10000	2	1	0	2	0
30	897	7	10000	2	1	0	2	0
29	898	7	10000	2	1	0	2	0
28	899	7	10000	2	1	0	2	0
27	900	7	10000	2	1	0	2	0
27	901	7	10000	2	1	0	2	0
27	902	7	10000	2	1	0	2	0
29	903	7	10000	2	1	0	2	0
31	904	7	10000	2	1	0	2	0
33	905	7	10000	2	1	0	2	0
32	906	7	10000	2	1	0	2	0
31	907	7	10000	2	1	0	2	0
31	908	7	10000	2	1	0	2	0
32	909	7	10000	2	1	0	2	0
32	910	7	10000	2	1	0	2	0
31	911	7	10000	2	1	0	2	0
31	912	7	10000	2	1	0	2	0
31	913	7	10000	2	1	0	2	0
31	914	7	10000	2	1	0	2	0
29	915	7	10000	2	1	0	2	0
29	916	7	10000	2	1	0	2	0
30	917	7	10000	2	1	0	2	0
28	918	7	10000	2	1	0	2	0
27	919	7	10000	2	1	0	2	0
27	920	7	10000	2	1	0	2	0
26	921	7	10000	2	1	0	2	0
27	922	7	10000	2	1	0	2	0
28	923	7	10000	2	1	0	2	0
27	924	7	10000	2	1	0	2	0
27	925	7	10000	2	1	0	2	0
27	926	7	10000	2	1	0	2	0
23	927	7	10000	2	1	0	2	0
24	928	7	10000	2	1	0	2	0
23	929	7	10000	2	1	0	2	0
24	930	7	10000	2	1	0	2	0
23	931	7	10000	2	1	0	2	0
23	932	7	10000	2	1	0	2	0
22	933	7	10000	2	1	0	2	0
22	934	7	10000	2	1	0	2	0
22	935	7	10000	2	1	0	2	0
25	936	7	10000	2	1	0	2	0
28	937	7	10000	2	1	0	2	0
26	938	7	10000	2	1	0	2	0
25	939	7	10000	2	1	0	2	0
26	940	7	10000	2	1	0	2	0
25	941	7	10000	2	1	0	2	0
25	942	7	10000	2	1	0	2	0
24	943	7	10000	2	1	0	2	0
24	944	7	10000	2	1	0	2	0
25	945	7	10000	2	1	0	2	0
24	946	7	10000	2	1	0	2	0
21	947	7	10000	2	1	0	2	0
22	948	7	10000	2	1	0	2	0
22	949	7	10000	2	1	0	2	0
24	950	7	10000	2	1	0	2	0
26	951	7	10000	2	1	0	2	0
27	952	7	10000	2	1	0	2	0
28	953	7	10000	2	1	0	2	0
29	954	7	10000	2	1	0	2	0
27	955	7	10000	2	1	0	2	0
27	956	7	10000	2	1	0	2	0
28	957	7	10000	2	1	0	2	0
27	958	7	10000	2	1	0	2	0
27	959	7	10000	2	1	0	2	0
28	960	7	10000	2	1	0	2	0
28	961	7	10000	2	1	0	2	0
26	962	7	10000	2	1	0	2	0
26	963	7	10000	2	1	0	2	0
27	964	7	10000	2	1	0	2	0
31	965	7	10000	2	1	0	2	0
31	966	7	10000	2	1	0	2	0
29	967	7	10000	2	1	0	2	0
28	968	7	10000	2	1	0	2	0
27	969	7	10000	2	1	0	2	0
28	970	7	10000	2	1	0	2	0
30	971	7	10000	2	1	0	2	0
31	972	7	10000	2	1	0	2	0
30	973	7	10000	2	1	0	2	0
30	974	7	10000	2	1	0	2	0
31	975	7	10000	2	1	0	2	0
33	976	7	10000	2	1	0	2	0
34	977	7	10000	2	1	0	2	0
36	978	7	10000	2	1	0	2	0
36	979	7	10000	2	1	0	2	0
36	980	7	10000	2	1	0	2	0
37	981	7	10000	2	1	0	2	0
36	982	7	10000	2	1	0	2	0
35	983	7	10000	2	1	0	2	0
35	984	7	10000	2	1	0	2	0
33	985	7	10000	2	1	0	2	0
32	986	7	10000	2	1	0	2	0
31	987	7	10000	2	1	0	2	0
31	988	7	10000	2	1	0	2	0
31	989	7	10000	2	1	0	2	0
31	990	7	10000	2	1	0	2	0
29	991	7	10000	2	1	0	2	0
28	992	7	10000	2	1	0	2	0
30	993	7	10000	2	1	0	2	0
30	994	7	10000	2	1	0	2	0
29	995	7	10000	2	1	0	2	0
28	996	7	10000	2	1	0	2	0
30	997	7	10000	2	1	0	2	0
30	998	7	10000	2	1	0	2	0
31	999	7	10000	2	1	0	2	0
32	1000	7	10000	2	1	0	2	0
32	1001	7	10000	2	1	0	2	0
20	2	7	10000	3	1	0	3	0
19	3	7	10000	3	1	0	3	0
19	4	7	10000	3	1	0	3	0
18	5	7	10000	3	1	0	3	0
18	6	7	10000	3	1	0	3	0
19	7	7	10000	3	1	0	3	0
21	8	7	10000	3	1	0	3	0
20	9	7	10000	3	1	0	3	0
19	10	7	10000	3	1	0	3	0
18	11	7	10000	3	1	0	3	0
18	12	7	10000	3	1	0	3	0
20	13	7	10000	3	1	0	3	0
21	14	7	10000	3	1	0	3	0
24	15	7	10000	3	1	0	3	0
25	16	7	10000	3	1	0	3	0
27	17	7	10000	3	1	0	3	0
24	18	7	10000	3	1	0	3	0
25	19	7	10000	3	1	0	3	0
26	20	7	10000	3	1	0	3	0
28	21	7	10000	3	1	0	3	0
28	21	7	10000	3	1	0	3	0
29	22	7	10000	3	1	0	3	0
28	24	7	10000	3	1	0	3	0
29	25	7	10000	3	1	0	3	0
30	26	7	10000	3	1	0	3	0
31	27	7	10000	3	1	0	3	0
32	28	7	10000	3	1	0	3	0
32	29	7	10000	3	1	0	3	0
31	30	7	10000	3	1	0	3	0
30	31	7	10000	3	1	0	3	0
29	31	7	10000	3	1	0	3	0
28	32	7	10000	3	1	0	3	0
26	34	7	10000	3	1	0	3	0
27	35	7	10000	3	1	0	3	0
25	36	7	10000	3	1	0	3	0
26	37	7	10000	3	1	0	3	0
23	38	7	10000	3	1	0	3	0
22	39	7	10000	3	1	0	3	0
23	40	7	10000	3	1	0	3	0
23	41	7	10000	3	1	0	3	0
22	41	7	10000	3	1	0	3	0
22	42	7	10000	3	1	0	3	0
23	44	7	10000	3	1	0	3	0
21	45	7	10000	3	1	0	3	0
22	46	7	10000	3	1	0	3	0
22	47	7	10000	3	1	0	3	0
24	48	7	10000	3	1	0	3	0
25	49	7	10000	3	1	0	3	0
26	50	7	10000	3	1	0	3	0
25	51	7	10000	3	1	0	3	0
25	51	7	10000	3	1	0	3	0
26	52	7	10000	3	1	0	3	0
26	54	7	10000	3	1	0	3	0
27	55	7	10000	3	1	0	3	0
28	56	7	10000	3	1	0	3	0
28	57	7	10000	3	1	0	3	0
27	58	7	10000	3	1	0	3	0
26	59	7	10000	3	1	0	3	0
27	60	7	10000	3	1	0	3	0
26	61	7	10000	3	1	0	3	0
25	61	7	10000	3	1	0	3	0
25	62	7	10000	3	1	0	3	0
26	64	7	10000	3	1	0	3	0
25	65	7	10000	3	1	0	3	0
24	66	7	10000	3	1	0	3	0
24	67	7	10000	3	1	0	3	0
25	68	7	10000	3	1	0	3	0
24	69	7	10000	3	1	0	3	0
23	78	7	10000	3	1	0	3	0
23	79	7	10000	3	1	0	3	0
24	80	7	10000	3	1	0	3	0
25	81	7	10000	3	1	0	3	0
26	82	7	10000	3	1	0	3	0
27	83	7	10000	3	1	0	3	0
28	84	7	10000	3	1	0	3	0
27	85	7	10000	3	1	0	3	0
24	86	7	10000	3	1	0	3	0
23	87	7	10000	3	1	0	3	0
23	87	7	10000	3	1	0	3	0
24	88	7	10000	3	1	0	3	0
24	89	7	10000	3	1	0	3	0
24	90	7	10000	3	1	0	3	0
23	91	7	10000	3	1	0	3	0
23	92	7	10000	3	1	0	3	0
22	93	7	10000	3	1	0	3	0
22	94	7	10000	3	1	0	3	0
28	93	7	10000	3	1	0	3	0
26	94	7	10000	3	1	0	3	0
25	95	7	10000	3	1	0	3	0
24	96	7	10000	3	1	0	3	0
23	97	7	10000	3	1	0	3	0
22	98	7	10000	3	1	0	3	0
21	99	7	10000	3	1	0	3	0
21	100	7	10000	3	1	0	3	0
21	101	7	10000	3	1	0	3	0
20	102	7	10000	3	1	0	3	0
19	103	7	10000	3	1	0	3	0
19	104	7	10000	3	1	0	3	0
18	105	7	10000	3	1	0	3	0
19	106	7	10000	3	1	0	3	0
19	107	7	10000	3	1	0	3	0
17	108	7	10000	3	1	0	3	0
18	107	7	10000	3	1	0	3	0
18	108	7	10000	3	1	0	3	0
17	109	7	10000	3	1	0	3	0
19	110	7	10000	3	1	0	3	0
23	111	7	10000	3	1	0	3	0
22	112	7	10000	3	1	0	3	0
21	111	7	10000	3	1	0	3	0
22	112	7	10000	3	1	0	3	0
21	113	7	10000	3	1	0	3	0
20	114	7	10000	3	1	0	3	0
20	118	7	10000	3	1	0	3	0
20	119	7	10000	3	1	0	3	0
20	120	7	10000	3	1	0	3	0
20	121	7	10000	3	1	0	3	0
17	122	7	10000	3	1	0	3	0
17	123	7	10000	3	1	0	3	0
18	122	7	10000	3	1	0	3	0
18	123	7	10000	3	1	0	3	0
18	124	7	10000	3	1	0	3	0
17	125	7	10000	3	1	0	3	0
17	129	7	10000	3	1	0	3	0
18	130	7	10000	3	1	0	3	0
18	131	7	10000	3	1	0	3	0
17	132	7	10000	3	1	0	3	0
18	133	7	10000	3	1	0	3	0
18	134	7	10000	3	1	0	3	0
18	133	7	10000	3	1	0	3	0
18	134	7	10000	3	1	0	3	0
20	135	7	10000	3	1	0	3	0
21	136	7	10000	3	1	0	3	0
21	137	7	10000	3	1	0	3	0
23	138	7	10000	3	1	0	3	0
23	140	7	10000	3	1	0	3	0
24	141	7	10000	3	1	0	3	0
23	142	7	10000	3	1	0	3	0
26	143	7	10000	3	1	0	3	0
29	144	7	10000	3	1	0	3	0
31	145	7	10000	3	1	0	3	0
30	144	7	10000	3	1	0	3	0
31	145	7	10000	3	1	0	3	0
32	146	7	10000	3	1	0	3	0
33	147	7	10000	3	1	0	3	0
33	150	7	10000	3	1	0	3	0
33	151	7	10000	3	1	0	3	0
33	152	7	10000	3	1	0	3	0
32	153	7	10000	3	1	0	3	0
32	154	7	10000	3	1	0	3	0
30	155	7	10000	3	1	0	3	0
29	156	7	10000	3	1	0	3	0
28	157	7	10000	3	1	0	3	0
27	158	7	10000	3	1	0	3	0
26	159	7	10000	3	1	0	3	0
26	160	7	10000	3	1	0	3	0
27	161	7	10000	3	1	0	3	0
24	161	7	10000	3	1	0	3	0
23	162	7	10000	3	1	0	3	0
24	163	7	10000	3	1	0	3	0
25	164	7	10000	3	1	0	3	0
24	165	7	10000	3	1	0	3	0
24	166	7	10000	3	1	0	3	0
23	168	7	10000	3	1	0	3	0
21	169	7	10000	3	1	0	3	0
21	170	7	10000	3	1	0	3	0
21	171	7	10000	3	1	0	3	0
24	172	7	10000	3	1	0	3	0
24	173	7	10000	3	1	0	3	0
23	172	7	10000	3	1	0	3	0
25	173	7	10000	3	1	0	3	0
28	174	7	10000	3	1	0	3	0
28	175	7	10000	3	1	0	3	0
27	179	7	10000	3	1	0	3	0
28	180	7	10000	3	1	0	3	0
27	181	7	10000	3	1	0	3	0
27	182	7	10000	3	1	0	3	0
27	183	7	10000	3	1	0	3	0
27	184	7	10000	3	1	0	3	0
28	185	7	10000	3	1	0	3	0
30	186	7	10000	3	1	0	3	0
28	183	7	10000	3	1	0	3	0
29	184	7	10000	3	1	0	3	0
29	185	7	10000	3	1	0	3	0
27	186	7	10000	3	1	0	3	0
28	189	7	10000	3	1	0	3	0
30	190	7	10000	3	1	0	3	0
33	191	7	10000	3	1	0	3	0
34	192	7	10000	3	1	0	3	0
33	193	7	10000	3	1	0	3	0
31	194	7	10000	3	1	0	3	0
31	195	7	10000	3	1	0	3	0
29	196	7	10000	3	1	0	3	0
29	197	7	10000	3	1	0	3	0
29	198	7	10000	3	1	0	3	0
27	199	7	10000	3	1	0	3	0
27	200	7	10000	3	1	0	3	0
24	200	7	10000	3	1	0	3	0
24	201	7	10000	3	1	0	3	0
23	202	7	10000	3	1	0	3	0
24	203	7	10000	3	1	0	3	0
26	206	7	10000	3	1	0	3	0
27	207	7	10000	3	1	0	3	0
26	208	7	10000	3	1	0	3	0
26	209	7	10000	3	1	0	3	0
27	210	7	10000	3	1	0	3	0
27	211	7	10000	3	1	0	3	0
28	211	7	10000	3	1	0	3	0
29	212	7	10000	3	1	0	3	0
29	213	7	10000	3	1	0	3	0
28	214	7	10000	3	1	0	3	0
28	212	7	10000	3	1	0	3	0
29	213	7	10000	3	1	0	3	0
32	214	7	10000	3	1	0	3	0
36	215	7	10000	3	1	0	3	0
36	216	7	10000	3	1	0	3	0
39	217	7	10000	3	1	0	3	0
38	218	7	10000	3	1	0	3	0
38	219	7	10000	3	1	0	3	0
37	220	7	10000	3	1	0	3	0
38	221	7	10000	3	1	0	3	0
37	222	7	10000	3	1	0	3	0
36	223	7	10000	3	1	0	3	0
35	224	7	10000	3	1	0	3	0
33	225	7	10000	3	1	0	3	0
32	226	7	10000	3	1	0	3	0
32	227	7	10000	3	1	0	3	0
36	228	7	10000	3	1	0	3	0
35	229	7	10000	3	1	0	3	0
34	230	7	10000	3	1	0	3	0
32	231	7	10000	3	1	0	3	0
32	232	7	10000	3	1	0	3	0
32	233	7	10000	3	1	0	3	0
30	234	7	10000	3	1	0	3	0
29	235	7	10000	3	1	0	3	0
29	236	7	10000	3	1	0	3	0
28	237	7	10000	3	1	0	3	0
27	238	7	10000	3	1	0	3	0
28	239	7	10000	3	1	0	3	0
29	240	7	10000	3	1	0	3	0
28	241	7	10000	3	1	0	3	0
28	242	7	10000	3	1	0	3	0
28	243	7	10000	3	1	0	3	0
29	244	7	10000	3	1	0	3	0
30	245	7	10000	3	1	0	3	0
30	246	7	10000	3	1	0	3	0
30	247	7	10000	3	1	0	3	0
32	248	7	10000	3	1	0	3	0
32	249	7	10000	3	1	0	3	0
32	250	7	10000	3	1	0	3	0
31	251	7	10000	3	1	0	3	0
29	252	7	10000	3	1	0	3	0
28	253	7	10000	3	1	0	3	0
28	254	7	10000	3	1	0	3	0
29	255	7	10000	3	1	0	3	0
28	256	7	10000	3	1	0	3	0
29	257	7	10000	3	1	0	3	0
28	258	7	10000	3	1	0	3	0
31	259	7	10000	3	1	0	3	0
32	260	7	10000	3	1	0	3	0
32	261	7	10000	3	1	0	3	0
30	262	7	10000	3	1	0	3	0
30	263	7	10000	3	1	0	3	0
29	264	7	10000	3	1	0	3	0
27	265	7	10000	3	1	0	3	0
26	266	7	10000	3	1	0	3	0
25	267	7	10000	3	1	0	3	0
26	268	7	10000	3	1	0	3	0
25	269	7	10000	3	1	0	3	0
25	270	7	10000	3	1	0	3	0
24	271	7	10000	3	1	0	3	0
24	272	7	10000	3	1	0	3	0
23	273	7	10000	3	1	0	3	0
21	274	7	10000	3	1	0	3	0
22	275	7	10000	3	1	0	3	0
23	276	7	10000	3	1	0	3	0
22	277	7	10000	3	1	0	3	0
20	278	7	10000	3	1	0	3	0
20	279	7	10000	3	1	0	3	0
20	280	7	10000	3	1	0	3	0
20	281	7	10000	3	1	0	3	0
20	282	7	10000	3	1	0	3	0
19	283	7	10000	3	1	0	3	0
19	284	7	10000	3	1	0	3	0
19	285	7	10000	3	1	0	3	0
18	286	7	10000	3	1	0	3	0
20	287	7	10000	3	1	0	3	0
24	288	7	10000	3	1	0	3	0
23	289	7	10000	3	1	0	3	0
24	290	7	10000	3	1	0	3	0
23	291	7	10000	3	1	0	3	0
25	292	7	10000	3	1	0	3	0
29	293	7	10000	3	1	0	3	0
32	294	7	10000	3	1	0	3	0
31	295	7	10000	3	1	0	3	0
32	296	7	10000	3	1	0	3	0
34	297	7	10000	3	1	0	3	0
34	298	7	10000	3	1	0	3	0
35	299	7	10000	3	1	0	3	0
36	300	7	10000	3	1	0	3	0
37	301	7	10000	3	1	0	3	0
37	302	7	10000	3	1	0	3	0
37	303	7	10000	3	1	0	3	0
35	304	7	10000	3	1	0	3	0
33	305	7	10000	3	1	0	3	0
32	306	7	10000	3	1	0	3	0
31	307	7	10000	3	1	0	3	0
32	308	7	10000	3	1	0	3	0
32	309	7	10000	3	1	0	3	0
31	310	7	10000	3	1	0	3	0
29	311	7	10000	3	1	0	3	0
29	312	7	10000	3	1	0	3	0
27	313	7	10000	3	1	0	3	0
26	314	7	10000	3	1	0	3	0
27	315	7	10000	3	1	0	3	0
25	316	7	10000	3	1	0	3	0
24	317	7	10000	3	1	0	3	0
25	318	7	10000	3	1	0	3	0
25	319	7	10000	3	1	0	3	0
28	320	7	10000	3	1	0	3	0
31	321	7	10000	3	1	0	3	0
30	322	7	10000	3	1	0	3	0
32	323	7	10000	3	1	0	3	0
34	324	7	10000	3	1	0	3	0
40	325	7	10000	3	1	0	3	0
44	326	7	10000	3	1	0	3	0
46	327	7	10000	3	1	0	3	0
46	328	7	10000	3	1	0	3	0
44	329	7	10000	3	1	0	3	0
42	330	7	10000	3	1	0	3	0
46	331	7	10000	3	1	0	3	0
56	332	7	10000	3	1	0	3	0
57	333	7	10000	3	1	0	3	0
59	334	7	10000	3	1	0	3	0
61	335	7	10000	3	1	0	3	0
61	336	7	10000	3	1	0	3	0
67	337	7	10000	3	1	0	3	0
65	338	7	10000	3	1	0	3	0
67	339	7	10000	3	1	0	3	0
71	340	7	10000	3	1	0	3	0
70	341	7	10000	3	1	0	3	0
77	342	7	10000	3	1	0	3	0
87	343	7	10000	3	1	0	3	0
87	344	7	10000	3	1	0	3	0
96	345	7	10000	3	1	0	3	0
102	346	7	10000	3	1	0	3	0
98	347	7	10000	3	1	0	3	0
96	348	7	10000	3	1	0	3	0
96	349	7	10000	3	1	0	3	0
95	350	7	10000	3	1	0	3	0
91	351	7	10000	3	1	0	3	0
91	352	7	10000	3	1	0	3	0
94	353	7	10000	3	1	0	3	0
94	354	7	10000	3	1	0	3	0
107	355	7	10000	3	1	0	3	0
112	356	7	10000	3	1	0	3	0
111	357	7	10000	3	1	0	3	0
106	358	7	10000	3	1	0	3	0
105	359	7	10000	3	1	0	3	0
105	360	7	10000	3	1	0	3	0
111	361	7	10000	3	1	0	3	0
121	362	7	10000	3	1	0	3	0
128	363	7	10000	3	1	0	3	0
130	364	7	10000	3	1	0	3	0
125	365	7	10000	3	1	0	3	0
119	366	7	10000	3	1	0	3	0
115	367	7	10000	3	1	0	3	0
113	368	7	10000	3	1	0	3	0
115	369	7	10000	3	1	0	3	0
119	370	7	10000	3	1	0	3	0
117	371	7	10000	3	1	0	3	0
117	372	7	10000	3	1	0	3	0
118	373	7	10000	3	1	0	3	0
122	374	7	10000	3	1	0	3	0
125	375	7	10000	3	1	0	3	0
122	376	7	10000	3	1	0	3	0
117	377	7	10000	3	1	0	3	0
112	378	7	10000	3	1	0	3	0
110	379	7	10000	3	1	0	3	0
106	380	7	10000	3	1	0	3	0
107	381	7	10000	3	1	0	3	0
113	382	7	10000	3	1	0	3	0
118	383	7	10000	3	1	0	3	0
122	384	7	10000	3	1	0	3	0
121	385	7	10000	3	1	0	3	0
117	386	7	10000	3	1	0	3	0
122	387	7	10000	3	1	0	3	0
129	388	7	10000	3	1	0	3	0
127	389	7	10000	3	1	0	3	0
122	390	7	10000	3	1	0	3	0
119	391	7	10000	3	1	0	3	0
120	392	7	10000	3	1	0	3	0
122	393	7	10000	3	1	0	3	0
123	394	7	10000	3	1	0	3	0
123	395	7	10000	3	1	0	3	0
122	396	7	10000	3	1	0	3	0
119	397	7	10000	3	1	0	3	0
113	398	7	10000	3	1	0	3	0
109	399	7	10000	3	1	0	3	0
107	400	7	10000	3	1	0	3	0
108	401	7	10000	3	1	0	3	0
111	402	7	10000	3	1	0	3	0
112	403	7	10000	3	1	0	3	0
112	404	7	10000	3	1	0	3	0
107	405	7	10000	3	1	0	3	0
102	406	7	10000	3	1	0	3	0
99	407	7	10000	3	1	0	3	0
96	408	7	10000	3	1	0	3	0
93	409	7	10000	3	1	0	3	0
92	410	7	10000	3	1	0	3	0
94	411	7	10000	3	1	0	3	0
96	412	7	10000	3	1	0	3	0
98	413	7	10000	3	1	0	3	0
95	414	7	10000	3	1	0	3	0
97	415	7	10000	3	1	0	3	0
94	416	7	10000	3	1	0	3	0
92	417	7	10000	3	1	0	3	0
90	418	7	10000	3	1	0	3	0
93	419	7	10000	3	1	0	3	0
92	420	7	10000	3	1	0	3	0
89	421	7	10000	3	1	0	3	0
86	422	7	10000	3	1	0	3	0
83	423	7	10000	3	1	0	3	0
80	424	7	10000	3	1	0	3	0
76	425	7	10000	3	1	0	3	0
72	426	7	10000	3	1	0	3	0
70	427	7	10000	3	1	0	3	0
69	428	7	10000	3	1	0	3	0
68	429	7	10000	3	1	0	3	0
66	430	7	10000	3	1	0	3	0
65	431	7	10000	3	1	0	3	0
62	432	7	10000	3	1	0	3	0
60	433	7	10000	3	1	0	3	0
59	434	7	10000	3	1	0	3	0
62	435	7	10000	3	1	0	3	0
64	436	7	10000	3	1	0	3	0
64	437	7	10000	3	1	0	3	0
59	438	7	10000	3	1	0	3	0
59	439	7	10000	3	1	0	3	0
59	440	7	10000	3	1	0	3	0
59	441	7	10000	3	1	0	3	0
59	442	7	10000	3	1	0	3	0
57	443	7	10000	3	1	0	3	0
57	444	7	10000	3	1	0	3	0
61	445	7	10000	3	1	0	3	0
63	446	7	10000	3	1	0	3	0
63	447	7	10000	3	1	0	3	0
65	448	7	10000	3	1	0	3	0
65	449	7	10000	3	1	0	3	0
64	450	7	10000	3	1	0	3	0
61	451	7	10000	3	1	0	3	0
60	452	7	10000	3	1	0	3	0
59	453	7	10000	3	1	0	3	0
58	454	7	10000	3	1	0	3	0
61	455	7	10000	3	1	0	3	0
62	456	7	10000	3	1	0	3	0
62	457	7	10000	3	1	0	3	0
59	458	7	10000	3	1	0	3	0
58	459	7	10000	3	1	0	3	0
56	460	7	10000	3	1	0	3	0
56	461	7	10000	3	1	0	3	0
56	462	7	10000	3	1	0	3	0
59	463	7	10000	3	1	0	3	0
62	464	7	10000	3	1	0	3	0
63	465	7	10000	3	1	0	3	0
65	466	7	10000	3	1	0	3	0
66	467	7	10000	3	1	0	3	0
69	468	7	10000	3	1	0	3	0
68	469	7	10000	3	1	0	3	0
69	470	7	10000	3	1	0	3	0
68	471	7	10000	3	1	0	3	0
70	472	7	10000	3	1	0	3	0
70	473	7	10000	3	1	0	3	0
69	474	7	10000	3	1	0	3	0
70	475	7	10000	3	1	0	3	0
71	476	7	10000	3	1	0	3	0
73	477	7	10000	3	1	0	3	0
72	478	7	10000	3	1	0	3	0
72	479	7	10000	3	1	0	3	0
70	480	7	10000	3	1	0	3	0
69	481	7	10000	3	1	0	3	0
67	482	7	10000	3	1	0	3	0
67	483	7	10000	3	1	0	3	0
70	484	7	10000	3	1	0	3	0
73	485	7	10000	3	1	0	3	0
76	486	7	10000	3	1	0	3	0
77	487	7	10000	3	1	0	3	0
79	488	7	10000	3	1	0	3	0
77	489	7	10000	3	1	0	3	0
73	490	7	10000	3	1	0	3	0
70	491	7	10000	3	1	0	3	0
68	492	7	10000	3	1	0	3	0
65	493	7	10000	3	1	0	3	0
63	494	7	10000	3	1	0	3	0
62	495	7	10000	3	1	0	3	0
62	496	7	10000	3	1	0	3	0
60	497	7	10000	3	1	0	3	0
57	498	7	10000	3	1	0	3	0
57	499	7	10000	3	1	0	3	0
56	500	7	10000	3	1	0	3	0
56	501	7	10000	3	1	0	3	0
55	501	7	10000	3	1	0	3	1
56	502	7	10000	3	1	0	3	1
56	504	7	10000	3	1	0	3	1
54	505	7	10000	3	1	0	3	1
55	506	7	10000	3	1	0	3	1
56	507	7	10000	3	1	0	3	1
56	508	7	10000	3	1	0	3	1
55	509	7	10000	3	1	0	3	1
54	510	7	10000	3	1	0	3	1
51	511	7	10000	3	1	0	3	1
50	512	7	10000	3	1	0	3	1
51	513	7	10000	3	1	0	3	1
50	514	7	10000	3	1	0	3	1
50	515	7	10000	3	1	0	3	1
50	516	7	10000	3	1	0	3	1
50	517	7	10000	3	1	0	3	1
47	518	7	10000	3	1	0	3	1
48	519	7	10000	3	1	0	3	1
46	520	7	10000	3	1	0	3	1
44	521	7	10000	3	1	0	3	1
44	522	7	10000	3	1	0	3	1
46	523	7	10000	3	1	0	3	1
49	524	7	10000	3	1	0	3	1
49	525	7	10000	3	1	0	3	1
48	526	7	10000	3	1	0	3	1
47	527	7	10000	3	1	0	3	1
49	528	7	10000	3	1	0	3	1
48	529	7	10000	3	1	0	3	1
47	530	7	10000	3	1	0	3	1
46	531	7	10000	3	1	0	3	1
45	532	7	10000	3	1	0	3	1
45	533	7	10000	3	1	0	3	1
43	534	7	10000	3	1	0	3	1
43	535	7	10000	3	1	0	3	1
43	536	7	10000	3	1	0	3	1
42	537	7	10000	3	1	0	3	1
41	538	7	10000	3	1	0	3	1
41	539	7	10000	3	1	0	3	1
40	540	7	10000	3	1	0	3	1
40	541	7	10000	3	1	0	3	1
39	542	7	10000	3	1	0	3	1
38	543	7	10000	3	1	0	3	1
36	544	7	10000	3	1	0	3	1
37	545	7	10000	3	1	0	3	1
37	546	7	10000	3	1	0	3	1
36	547	7	10000	3	1	0	3	1
39	548	7	10000	3	1	0	3	1
39	549	7	10000	3	1	0	3	1
39	550	7	10000	3	1	0	3	1
36	551	7	10000	3	1	0	3	1
35	552	7	10000	3	1	0	3	0
35	553	7	10000	3	1	0	3	0
33	554	7	10000	3	1	0	3	0
34	555	7	10000	3	1	0	3	0
38	556	7	10000	3	1	0	3	0
39	557	7	10000	3	1	0	3	0
37	558	7	10000	3	1	0	3	0
38	559	7	10000	3	1	0	3	0
37	560	7	10000	3	1	0	3	0
36	561	7	10000	3	1	0	3	0
36	562	7	10000	3	1	0	3	0
36	563	7	10000	3	1	0	3	0
34	564	7	10000	3	1	0	3	0
33	565	7	10000	3	1	0	3	0
32	566	7	10000	3	1	0	3	0
32	567	7	10000	3	1	0	3	0
32	568	7	10000	3	1	0	3	0
32	569	7	10000	3	1	0	3	0
32	570	7	10000	3	1	0	3	0
31	571	7	10000	3	1	0	3	0
29	572	7	10000	3	1	0	3	0
30	573	7	10000	3	1	0	3	0
29	574	7	10000	3	1	0	3	0
29	575	7	10000	3	1	0	3	0
28	576	7	10000	3	1	0	3	0
27	577	7	10000	3	1	0	3	0
24	578	7	10000	3	1	0	3	0
25	579	7	10000	3	1	0	3	0
26	580	7	10000	3	1	0	3	0
26	581	7	10000	3	1	0	3	0
25	582	7	10000	3	1	0	3	0
26	583	7	10000	3	1	0	3	0
27	584	7	10000	3	1	0	3	0
35	585	7	10000	3	1	0	3	0
41	586	7	10000	3	1	0	3	0
52	587	7	10000	3	1	0	3	0
71	588	7	10000	3	1	0	3	0
82	589	7	10000	3	1	0	3	0
84	590	7	10000	3	1	0	3	0
94	591	7	10000	3	1	0	3	0
96	592	7	10000	3	1	0	3	0
96	593	7	10000	3	1	0	3	0
100	594	7	10000	3	1	0	3	0
96	595	7	10000	3	1	0	3	0
97	596	7	10000	3	1	0	3	0
102	597	7	10000	3	1	0	3	0
104	598	7	10000	3	1	0	3	0
109	599	7	10000	3	1	0	3	0
109	600	7	10000	3	1	0	3	0
114	601	7	10000	3	1	0	3	0
116	602	7	10000	3	1	0	3	0
134	603	7	10000	3	1	0	3	0
147	604	7	10000	3	1	0	3	0
146	605	7	10000	3	1	0	3	0
158	606	7	10000	3	1	0	3	0
175	607	7	10000	3	1	0	3	0
175	608	7	10000	3	1	0	3	0
169	609	7	10000	3	1	0	3	0
170	610	7	10000	3	1	0	3	0
177	611	7	10000	3	1	0	3	0
190	612	7	10000	3	1	0	3	0
192	613	7	10000	3	1	0	3	0
222	614	7	10000	3	1	0	3	0
284	615	7	10000	3	1	0	3	0
327	616	7	10000	3	1	0	3	0
330	617	7	10000	3	1	0	3	0
323	618	7	10000	3	1	0	3	0
347	619	7	10000	3	1	0	3	0
375	620	7	10000	3	1	0	3	0
388	621	7	10000	3	1	0	3	0
399	622	7	10000	3	1	0	3	0
408	623	7	10000	3	1	0	3	0
407	624	7	10000	3	1	0	3	0
392	625	7	10000	3	1	0	3	0
381	626	7	10000	3	1	0	3	0
368	627	7	10000	3	1	0	3	0
356	628	7	10000	3	1	0	3	0
342	629	7	10000	3	1	0	3	0
328	630	7	10000	3	1	0	3	0
317	631	7	10000	3	1	0	3	0
313	632	7	10000	3	1	0	3	0
309	633	7	10000	3	1	0	3	0
306	634	7	10000	3	1	0	3	0
303	635	7	10000	3	1	0	3	0
297	636	7	10000	3	1	0	3	0
291	637	7	10000	3	1	0	3	0
283	638	7	10000	3	1	0	3	0
276	639	7	10000	3	1	0	3	0
270	640	7	10000	3	1	0	3	0
264	641	7	10000	3	1	0	3	0
257	642	7	10000	3	1	0	3	0
249	643	7	10000	3	1	0	3	0
243	644	7	10000	3	1	0	3	0
234	645	7	10000	3	1	0	3	0
224	646	7	10000	3	1	0	3	0
215	647	7	10000	3	1	0	3	0
208	648	7	10000	3	1	0	3	0
199	649	7	10000	3	1	0	3	0
192	650	7	10000	3	1	0	3	0
187	651	7	10000	3	1	0	3	0
182	652	7	10000	3	1	0	3	0
179	653	7	10000	3	1	0	3	0
174	654	7	10000	3	1	0	3	0
169	655	7	10000	3	1	0	3	0
167	656	7	10000	3	1	0	3	0
165	657	7	10000	3	1	0	3	0
163	658	7	10000	3	1	0	3	0
164	659	7	10000	3	1	0	3	0
162	660	7	10000	3	1	0	3	0
161	661	7	10000	3	1	0	3	0
160	662	7	10000	3	1	0	3	0
159	663	7	10000	3	1	0	3	0
159	664	7	10000	3	1	0	3	0
159	665	7	10000	3	1	0	3	0
158	666	7	10000	3	1	0	3	0
160	667	7	10000	3	1	0	3	0
162	668	7	10000	3	1	0	3	0
163	669	7	10000	3	1	0	3	0
161	670	7	10000	3	1	0	3	0
160	671	7	10000	3	1	0	3	0
161	672	7	10000	3	1	0	3	0
162	673	7	10000	3	1	0	3	0
163	674	7	10000	3	1	0	3	0
164	675	7	10000	3	1	0	3	0
162	676	7	10000	3	1	0	3	0
157	677	7	10000	3	1	0	3	0
150	678	7	10000	3	1	0	3	0
145	679	7	10000	3	1	0	3	0
141	680	7	10000	3	1	0	3	0
138	681	7	10000	3	1	0	3	0
131	682	7	10000	3	1	0	3	0
126	683	7	10000	3	1	0	3	0
120	684	7	10000	3	1	0	3	0
114	685	7	10000	3	1	0	3	0
109	686	7	10000	3	1	0	3	0
104	687	7	10000	3	1	0	3	0
101	688	7	10000	3	1	0	3	0
96	689	7	10000	3	1	0	3	0
92	690	7	10000	3	1	0	3	0
88	691	7	10000	3	1	0	3	0
85	692	7	10000	3	1	0	3	0
82	693	7	10000	3	1	0	3	0
79	694	7	10000	3	1	0	3	0
77	695	7	10000	3	1	0	3	0
75	696	7	10000	3	1	0	3	0
71	697	7	10000	3	1	0	3	0
68	698	7	10000	3	1	0	3	0
68	699	7	10000	3	1	0	3	0
66	700	7	10000	3	1	0	3	0
65	701	7	10000	3	1	0	3	0
63	702	7	10000	3	1	0	3	0
62	703	7	10000	3	1	0	3	0
60	704	7	10000	3	1	0	3	0
58	705	7	10000	3	1	0	3	0
56	706	7	10000	3	1	0	3	0
54	707	7	10000	3	1	0	3	0
54	708	7	10000	3	1	0	3	0
53	709	7	10000	3	1	0	3	0
53	710	7	10000	3	1	0	3	0
53	711	7	10000	3	1	0	3	0
50	712	7	10000	3	1	0	3	0
50	713	7	10000	3	1	0	3	0
52	714	7	10000	3	1	0	3	0
55	715	7	10000	3	1	0	3	0
55	716	7	10000	3	1	0	3	0
54	717	7	10000	3	1	0	3	0
51	718	7	10000	3	1	0	3	0
49	719	7	10000	3	1	0	3	0
49	720	7	10000	3	1	0	3	0
49	721	7	10000	3	1	0	3	0
52	722	7	10000	3	1	0	3	0
56	723	7	10000	3	1	0	3	0
58	724	7	10000	3	1	0	3	0
60	725	7	10000	3	1	0	3	0
60	726	7	10000	3	1	0	3	0
61	727	7	10000	3	1	0	3	0
61	728	7	10000	3	1	0	3	0
60	729	7	10000	3	1	0	3	0
58	730	7	10000	3	1	0	3	0
57	731	7	10000	3	1	0	3	0
56	732	7	10000	3	1	0	3	0
55	733	7	10000	3	1	0	3	0
53	734	7	10000	3	1	0	3	0
51	735	7	10000	3	1	0	3	0
50	736	7	10000	3	1	0	3	0
50	737	7	10000	3	1	0	3	0
49	738	7	10000	3	1	0	3	0
48	739	7	10000	3	1	0	3	0
49	740	7	10000	3	1	0	3	0
52	741	7	10000	3	1	0	3	0
56	742	7	10000	3	1	0	3	0
58	743	7	10000	3	1	0	3	0
61	744	7	10000	3	1	0	3	0
63	745	7	10000	3	1	0	3	0
63	746	7	10000	3	1	0	3	0
64	747	7	10000	3	1	0	3	0
64	748	7	10000	3	1	0	3	0
61	749	7	10000	3	1	0	3	0
58	750	7	10000	3	1	0	3	0
58	751	7	10000	3	1	0	3	0
57	752	7	10000	3	1	0	3	0
55	753	7	10000	3	1	0	3	0
53	754	7	10000	3	1	0	3	0
51	755	7	10000	3	1	0	3	0
50	756	7	10000	3	1	0	3	0
47	757	7	10000	3	1	0	3	0
44	758	7	10000	3	1	0	3	0
44	759	7	10000	3	1	0	3	0
44	760	7	10000	3	1	0	3	0
43	761	7	10000	3	1	0	3	0
42	762	7	10000	3	1	0	3	0
43	763	7	10000	3	1	0	3	0
41	764	7	10000	3	1	0	3	0
39	765	7	10000	3	1	0	3	0
39	766	7	10000	3	1	0	3	0
41	767	7	10000	3	1	0	3	0
45	768	7	10000	3	1	0	3	0
45	769	7	10000	3	1	0	3	0
43	770	7	10000	3	1	0	3	0
41	771	7	10000	3	1	0	3	0
41	772	7	10000	3	1	0	3	0
39	773	7	10000	3	1	0	3	0
39	774	7	10000	3	1	0	3	0
40	775	7	10000	3	1	0	3	0
38	776	7	10000	3	1	0	3	0
36	777	7	10000	3	1	0	3	0
34	778	7	10000	3	1	0	3	0
34	779	7	10000	3	1	0	3	0
33	780	7	10000	3	1	0	3	0
33	781	7	10000	3	1	0	3	0
31	782	7	10000	3	1	0	3	0
30	783	7	10000	3	1	0	3	0
30	784	7	10000	3	1	0	3	0
29	785	7	10000	3	1	0	3	0
27	786	7	10000	3	1	0	3	0
28	787	7	10000	3	1	0	3	0
27	788	7	10000	3	1	0	3	0
26	789	7	10000	3	1	0	3	0
25	790	7	10000	3	1	0	3	0
24	791	7	10000	3	1	0	3	0
23	792	7	10000	3	1	0	3	0
22	793	7	10000	3	1	0	3	0
23	794	7	10000	3	1	0	3	0
23	795	7	10000	3	1	0	3	0
23	796	7	10000	3	1	0	3	0
23	797	7	10000	3	1	0	3	0
21	798	7	10000	3	1	0	3	0
22	799	7	10000	3	1	0	3	0
24	800	7	10000	3	1	0	3	0
26	801	7	10000	3	1	0	3	0
26	802	7	10000	3	1	0	3	0
26	803	7	10000	3	1	0	3	0
26	804	7	10000	3	1	0	3	0
29	805	7	10000	3	1	0	3	0
31	806	7	10000	3	1	0	3	0
32	807	7	10000	3	1	0	3	0
32	808	7	10000	3	1	0	3	0
32	809	7	10000	3	1	0	3	0
32	810	7	10000	3	1	0	3	0
32	811	7	10000	3	1	0	3	0
32	812	7	10000	3	1	0	3	0
32	813	7	10000	3	1	0	3	0
32	814	7	10000	3	1	0	3	0
33	815	7	10000	3	1	0	3	0
32	816	7	10000	3	1	0	3	0
31	817	7	10000	3	1	0	3	0
30	818	7	10000	3	1	0	3	0
29	819	7	10000	3	1	0	3	0
28	820	7	10000	3	1	0	3	0
27	821	7	10000	3	1	0	3	0
27	822	7	10000	3	1	0	3	0
26	823	7	10000	3	1	0	3	0
25	824	7	10000	3	1	0	3	0
24	825	7	10000	3	1	0	3	0
23	826	7	10000	3	1	0	3	0
24	827	7	10000	3	1	0	3	0
26	828	7	10000	3	1	0	3	0
28	829	7	10000	3	1	0	3	0
31	830	7	10000	3	1	0	3	0
33	831	7	10000	3	1	0	3	0
36	832	7	10000	3	1	0	3	0
37	833	7	10000	3	1	0	3	0
36	834	7	10000	3	1	0	3	0
35	835	7	10000	3	1	0	3	0
35	836	7	10000	3	1	0	3	0
33	837	7	10000	3	1	0	3	0
31	838	7	10000	3	1	0	3	0
32	839	7	10000	3	1	0	3	0
34	840	7	10000	3	1	0	3	0
38	841	7	10000	3	1	0	3	0
41	842	7	10000	3	1	0	3	0
44	843	7	10000	3	1	0	3	0
49	844	7	10000	3	1	0	3	0
55	845	7	10000	3	1	0	3	0
58	846	7	10000	3	1	0	3	0
62	847	7	10000	3	1	0	3	0
62	848	7	10000	3	1	0	3	0
60	849	7	10000	3	1	0	3	0
59	850	7	10000	3	1	0	3	0
61	851	7	10000	3	1	0	3	0
64	852	7	10000	3	1	0	3	0
66	853	7	10000	3	1	0	3	0
67	854	7	10000	3	1	0	3	0
67	855	7	10000	3	1	0	3	0
67	856	7	10000	3	1	0	3	0
64	857	7	10000	3	1	0	3	0
61	858	7	10000	3	1	0	3	0
60	859	7	10000	3	1	0	3	0
63	860	7	10000	3	1	0	3	0
68	861	7	10000	3	1	0	3	0
75	862	7	10000	3	1	0	3	0
81	863	7	10000	3	1	0	3	0
85	864	7	10000	3	1	0	3	0
87	865	7	10000	3	1	0	3	0
88	866	7	10000	3	1	0	3	0
88	867	7	10000	3	1	0	3	0
89	868	7	10000	3	1	0	3	0
88	869	7	10000	3	1	0	3	0
87	870	7	10000	3	1	0	3	0
87	871	7	10000	3	1	0	3	0
88	872	7	10000	3	1	0	3	0
91	873	7	10000	3	1	0	3	0
95	874	7	10000	3	1	0	3	0
98	875	7	10000	3	1	0	3	0
100	876	7	10000	3	1	0	3	0
100	877	7	10000	3	1	0	3	0
97	878	7	10000	3	1	0	3	0
98	879	7	10000	3	1	0	3	0
99	880	7	10000	3	1	0	3	0
102	881	7	10000	3	1	0	3	0
104	882	7	10000	3	1	0	3	0
105	883	7	10000	3	1	0	3	0
104	884	7	10000	3	1	0	3	0
103	885	7	10000	3	1	0	3	0
102	886	7	10000	3	1	0	3	0
102	887	7	10000	3	1	0	3	0
109	888	7	10000	3	1	0	3	0
111	889	7	10000	3	1	0	3	0
107	890	7	10000	3	1	0	3	0
103	891	7	10000	3	1	0	3	0
98	892	7	10000	3	1	0	3	0
94	893	7	10000	3	1	0	3	0
93	894	7	10000	3	1	0	3	0
90	895	7	10000	3	1	0	3	0
86	896	7	10000	3	1	0	3	0
83	897	7	10000	3	1	0	3	0
78	898	7	10000	3	1	0	3	0
75	899	7	10000	3	1	0	3	0
72	900	7	10000	3	1	0	3	0
69	901	7	10000	3	1	0	3	0
67	902	7	10000	3	1	0	3	0
67	903	7	10000	3	1	0	3	0
67	904	7	10000	3	1	0	3	0
67	905	7	10000	3	1	0	3	0
68	906	7	10000	3	1	0	3	0
69	907	7	10000	3	1	0	3	0
70	908	7	10000	3	1	0	3	0
68	909	7	10000	3	1	0	3	0
67	910	7	10000	3	1	0	3	0
67	911	7	10000	3	1	0	3	0
70	912	7	10000	3	1	0	3	0
73	913	7	10000	3	1	0	3	0
77	914	7	10000	3	1	0	3	0
81	915	7	10000	3	1	0	3	0
86	916	7	10000	3	1	0	3	0
89	917	7	10000	3	1	0	3	0
92	918	7	10000	3	1	0	3	0
98	919	7	10000	3	1	0	3	0
104	920	7	10000	3	1	0	3	0
110	921	7	10000	3	1	0	3	0
116	922	7	10000	3	1	0	3	0
119	923	7	10000	3	1	0	3	0
124	924	7	10000	3	1	0	3	0
128	925	7	10000	3	1	0	3	0
130	926	7	10000	3	1	0	3	0
132	927	7	10000	3	1	0	3	0
134	928	7	10000	3	1	0	3	0
133	929	7	10000	3	1	0	3	0
131	930	7	10000	3	1	0	3	0
129	931	7	10000	3	1	0	3	0
129	932	7	10000	3	1	0	3	0
130	933	7	10000	3	1	0	3	0
133	934	7	10000	3	1	0	3	0
134	935	7	10000	3	1	0	3	0
135	936	7	10000	3	1	0	3	0
134	937	7	10000	3	1	0	3	0
134	938	7	10000	3	1	0	3	0
134	939	7	10000	3	1	0	3	0
134	940	7	10000	3	1	0	3	0
131	941	7	10000	3	1	0	3	0
128	942	7	10000	3	1	0	3	0
125	943	7	10000	3	1	0	3	0
120	944	7	10000	3	1	0	3	0
117	945	7	10000	3	1	0	3	0
117	946	7	10000	3	1	0	3	0
117	947	7	10000	3	1	0	3	0
117	948	7	10000	3	1	0	3	0
114	949	7	10000	3	1	0	3	0
109	950	7	10000	3	1	0	3	0
105	951	7	10000	3	1	0	3	0
104	952	7	10000	3	1	0	3	0
103	953	7	10000	3	1	0	3	0
101	954	7	10000	3	1	0	3	0
98	955	7	10000	3	1	0	3	0
94	956	7	10000	3	1	0	3	0
89	957	7	10000	3	1	0	3	0
86	958	7	10000	3	1	0	3	0
84	959	7	10000	3	1	0	3	0
83	960	7	10000	3	1	0	3	0
81	961	7	10000	3	1	0	3	0
78	962	7	10000	3	1	0	3	0
75	963	7	10000	3	1	0	3	0
72	964	7	10000	3	1	0	3	0
69	965	7	10000	3	1	0	3	0
66	966	7	10000	3	1	0	3	0
66	967	7	10000	3	1	0	3	0
66	968	7	10000	3	1	0	3	0
64	969	7	10000	3	1	0	3	0
64	970	7	10000	3	1	0	3	0
64	971	7	10000	3	1	0	3	0
64	972	7	10000	3	1	0	3	0
62	973	7	10000	3	1	0	3	0
61	974	7	10000	3	1	0	3	0
59	975	7	10000	3	1	0	3	0
57	976	7	10000	3	1	0	3	0
53	977	7	10000	3	1	0	3	0
50	978	7	10000	3	1	0	3	0
50	979	7	10000	3	1	0	3	0
50	980	7	10000	3	1	0	3	0
50	981	7	10000	3	1	0	3	0
49	982	7	10000	3	1	0	3	0
47	983	7	10000	3	1	0	3	0
44	984	7	10000	3	1	0	3	0
43	985	7	10000	3	1	0	3	0
42	986	7	10000	3	1	0	3	0
44	987	7	10000	3	1	0	3	0
45	988	7	10000	3	1	0	3	0
45	989	7	10000	3	1	0	3	0
44	990	7	10000	3	1	0	3	0
42	991	7	10000	3	1	0	3	0
42	992	7	10000	3	1	0	3	0
41	993	7	10000	3	1	0	3	0
40	994	7	10000	3	1	0	3	0
42	995	7	10000	3	1	0	3	0
42	996	7	10000	3	1	0	3	0
39	997	7	10000	3	1	0	3	0
37	998	7	10000	3	1	0	3	0
38	999	7	10000	3	1	0	3	0
41	1000	7	10000	3	1	0	3	0
44	1001	7	10000	3	1	0	3	0
33	1	0	10000	4	1	0	4	0
33	2	0	10000	4	1	0	4	0
30	3	0	10000	4	1	0	4	0
30	4	0	10000	4	1	0	4	0
29	5	0	10000	4	1	0	4	0
29	6	0	10000	4	1	0	4	0
30	7	0	10000	4	1	0	4	0
30	8	0	10000	4	1	0	4	0
30	9	0	10000	4	1	0	4	0
30	10	0	10000	4	1	0	4	0
30	11	0	10000	4	1	0	4	0
31	12	0	10000	4	1	0	4	0
31	13	0	10000	4	1	0	4	0
30	14	0	10000	4	1	0	4	0
30	15	0	10000	4	1	0	4	0
29	16	0	10000	4	1	0	4	0
30	17	0	10000	4	1	0	4	0
31	18	0	10000	4	1	0	4	0
31	19	0	10000	4	1	0	4	0
32	20	0	10000	4	1	0	4	0
32	21	0	10000	4	1	0	4	0
32	22	0	10000	4	1	0	4	0
28	23	0	10000	4	1	0	4	0
28	24	0	10000	4	1	0	4	0
29	25	0	10000	4	1	0	4	0
27	26	0	10000	4	1	0	4	0
27	27	0	10000	4	1	0	4	0
27	28	0	10000	4	1	0	4	0
25	29	0	10000	4	1	0	4	0
24	30	0	10000	4	1	0	4	0
25	31	0	10000	4	1	0	4	0
24	32	0	10000	4	1	0	4	0
25	33	0	10000	4	1	0	4	0
24	34	0	10000	4	1	0	4	0
23	35	0	10000	4	1	0	4	0
22	36	0	10000	4	1	0	4	0
22	37	0	10000	4	1	0	4	0
22	38	0	10000	4	1	0	4	0
21	39	0	10000	4	1	0	4	0
23	40	0	10000	4	1	0	4	0
23	41	0	10000	4	1	0	4	0
23	42	0	10000	4	1	0	4	0
20	43	0	10000	4	1	0	4	0
20	44	0	10000	4	1	0	4	0
20	45	0	10000	4	1	0	4	0
20	46	0	10000	4	1	0	4	0
20	47	0	10000	4	1	0	4	0
19	48	0	10000	4	1	0	4	0
19	49	0	10000	4	1	0	4	0
17	50	0	10000	4	1	0	4	0
16	51	0	10000	4	1	0	4	0
15	52	0	10000	4	1	0	4	0
17	53	0	10000	4	1	0	4	0
17	54	0	10000	4	1	0	4	0
16	55	0	10000	4	1	0	4	0
15	56	0	10000	4	1	0	4	0
16	57	0	10000	4	1	0	4	0
18	58	0	10000	4	1	0	4	0
17	59	0	10000	4	1	0	4	0
19	60	0	10000	4	1	0	4	0
20	61	0	10000	4	1	0	4	0
20	62	0	10000	4	1	0	4	0
21	63	0	10000	4	1	0	4	0
24	64	0	10000	4	1	0	4	0
25	65	0	10000	4	1	0	4	0
25	66	0	10000	4	1	0	4	0
24	67	0	10000	4	1	0	4	0
24	68	0	10000	4	1	0	4	0
24	69	0	10000	4	1	0	4	0
24	70	0	10000	4	1	0	4	0
24	71	0	10000	4	1	0	4	0
24	72	0	10000	4	1	0	4	0
26	73	0	10000	4	1	0	4	0
27	74	0	10000	4	1	0	4	0
28	75	0	10000	4	1	0	4	0
29	76	0	10000	4	1	0	4	0
28	77	0	10000	4	1	0	4	0
28	78	0	10000	4	1	0	4	0
27	79	0	10000	4	1	0	4	0
30	80	0	10000	4	1	0	4	0
32	81	0	10000	4	1	0	4	0
32	82	0	10000	4	1	0	4	0
31	83	0	10000	4	1	0	4	0
31	84	0	10000	4	1	0	4	0
32	85	0	10000	4	1	0	4	0
33	86	0	10000	4	1	0	4	0
32	87	0	10000	4	1	0	4	0
31	88	0	10000	4	1	0	4	0
31	89	0	10000	4	1	0	4	0
31	90	0	10000	4	1	0	4	0
31	91	0	10000	4	1	0	4	0
32	92	0	10000	4	1	0	4	0
33	93	0	10000	4	1	0	4	0
32	94	0	10000	4	1	0	4	0
32	95	0	10000	4	1	0	4	0
31	96	0	10000	4	1	0	4	0
30	97	0	10000	4	1	0	4	0
30	98	0	10000	4	1	0	4	0
28	99	0	10000	4	1	0	4	0
27	100	0	10000	4	1	0	4	0
28	101	0	10000	4	1	0	4	0
27	102	0	10000	4	1	0	4	0
25	103	0	10000	4	1	0	4	0
25	104	0	10000	4	1	0	4	0
25	105	0	10000	4	1	0	4	0
25	106	0	10000	4	1	0	4	0
25	107	0	10000	4	1	0	4	0
24	108	0	10000	4	1	0	4	0
25	109	0	10000	4	1	0	4	0
25	110	0	10000	4	1	0	4	0
24	111	0	10000	4	1	0	4	0
23	112	0	10000	4	1	0	4	0
25	113	0	10000	4	1	0	4	0
23	114	0	10000	4	1	0	4	0
24	115	0	10000	4	1	0	4	0
22	116	0	10000	4	1	0	4	0
23	117	0	10000	4	1	0	4	0
24	118	0	10000	4	1	0	4	0
25	119	0	10000	4	1	0	4	0
26	120	0	10000	4	1	0	4	0
29	121	0	10000	4	1	0	4	0
30	122	0	10000	4	1	0	4	0
28	123	0	10000	4	1	0	4	0
28	124	0	10000	4	1	0	4	0
27	125	0	10000	4	1	0	4	0
27	126	0	10000	4	1	0	4	0
25	127	0	10000	4	1	0	4	0
25	128	0	10000	4	1	0	4	0
25	129	0	10000	4	1	0	4	0
23	130	0	10000	4	1	0	4	0
22	131	0	10000	4	1	0	4	0
22	132	0	10000	4	1	0	4	0
23	133	0	10000	4	1	0	4	0
23	134	0	10000	4	1	0	4	0
22	135	0	10000	4	1	0	4	0
21	136	0	10000	4	1	0	4	0
21	137	0	10000	4	1	0	4	0
21	138	0	10000	4	1	0	4	0
20	139	0	10000	4	1	0	4	0
20	140	0	10000	4	1	0	4	0
21	141	0	10000	4	1	0	4	0
21	142	0	10000	4	1	0	4	0
19	143	0	10000	4	1	0	4	0
19	144	0	10000	4	1	0	4	0
18	145	0	10000	4	1	0	4	0
19	146	0	10000	4	1	0	4	0
20	147	0	10000	4	1	0	4	0
19	148	0	10000	4	1	0	4	0
20	149	0	10000	4	1	0	4	0
21	150	0	10000	4	1	0	4	0
20	151	0	10000	4	1	0	4	0
20	152	0	10000	4	1	0	4	0
21	153	0	10000	4	1	0	4	0
20	154	0	10000	4	1	0	4	0
20	155	0	10000	4	1	0	4	0
20	156	0	10000	4	1	0	4	0
19	157	0	10000	4	1	0	4	0
19	158	0	10000	4	1	0	4	0
18	159	0	10000	4	1	0	4	0
19	160	0	10000	4	1	0	4	0
19	161	0	10000	4	1	0	4	0
19	162	0	10000	4	1	0	4	0
16	163	0	10000	4	1	0	4	0
17	164	0	10000	4	1	0	4	0
18	165	0	10000	4	1	0	4	0
19	166	0	10000	4	1	0	4	0
20	167	0	10000	4	1	0	4	0
20	168	0	10000	4	1	0	4	0
21	169	0	10000	4	1	0	4	0
23	170	0	10000	4	1	0	4	0
24	171	0	10000	4	1	0	4	0
24	172	0	10000	4	1	0	4	0
27	173	0	10000	4	1	0	4	0
28	174	0	10000	4	1	0	4	0
30	175	0	10000	4	1	0	4	0
31	176	0	10000	4	1	0	4	0
30	177	0	10000	4	1	0	4	0
33	178	0	10000	4	1	0	4	0
34	179	0	10000	4	1	0	4	0
35	180	0	10000	4	1	0	4	0
35	181	0	10000	4	1	0	4	0
33	182	0	10000	4	1	0	4	0
30	183	0	10000	4	1	0	4	0
30	184	0	10000	4	1	0	4	0
30	185	0	10000	4	1	0	4	0
30	186	0	10000	4	1	0	4	0
30	187	0	10000	4	1	0	4	0
29	188	0	10000	4	1	0	4	0
28	189	0	10000	4	1	0	4	0
27	190	0	10000	4	1	0	4	0
26	191	0	10000	4	1	0	4	0
26	192	0	10000	4	1	0	4	0
27	193	0	10000	4	1	0	4	0
26	194	0	10000	4	1	0	4	0
25	195	0	10000	4	1	0	4	0
24	196	0	10000	4	1	0	4	0
24	197	0	10000	4	1	0	4	0
23	198	0	10000	4	1	0	4	0
22	199	0	10000	4	1	0	4	0
21	200	0	10000	4	1	0	4	0
21	201	0	10000	4	1	0	4	0
24	202	0	10000	4	1	0	4	0
23	203	0	10000	4	1	0	4	0
22	204	0	10000	4	1	0	4	0
23	205	0	10000	4	1	0	4	0
24	206	0	10000	4	1	0	4	0
24	207	0	10000	4	1	0	4	0
24	208	0	10000	4	1	0	4	0
26	209	0	10000	4	1	0	4	0
26	210	0	10000	4	1	0	4	0
28	211	0	10000	4	1	0	4	0
27	212	0	10000	4	1	0	4	0
28	213	0	10000	4	1	0	4	0
28	214	0	10000	4	1	0	4	0
28	215	0	10000	4	1	0	4	0
27	216	0	10000	4	1	0	4	0
28	217	0	10000	4	1	0	4	0
26	218	0	10000	4	1	0	4	0
25	219	0	10000	4	1	0	4	0
25	220	0	10000	4	1	0	4	0
24	221	0	10000	4	1	0	4	0
23	222	0	10000	4	1	0	4	0
21	223	0	10000	4	1	0	4	0
21	224	0	10000	4	1	0	4	0
20	225	0	10000	4	1	0	4	0
21	226	0	10000	4	1	0	4	0
22	227	0	10000	4	1	0	4	0
22	228	0	10000	4	1	0	4	0
25	229	0	10000	4	1	0	4	0
27	230	0	10000	4	1	0	4	0
27	231	0	10000	4	1	0	4	0
26	232	0	10000	4	1	0	4	0
28	233	0	10000	4	1	0	4	0
28	234	0	10000	4	1	0	4	0
27	235	0	10000	4	1	0	4	0
27	236	0	10000	4	1	0	4	0
27	237	0	10000	4	1	0	4	0
28	238	0	10000	4	1	0	4	0
31	239	0	10000	4	1	0	4	0
32	240	0	10000	4	1	0	4	0
31	241	0	10000	4	1	0	4	0
30	242	0	10000	4	1	0	4	0
27	243	0	10000	4	1	0	4	0
27	244	0	10000	4	1	0	4	0
27	245	0	10000	4	1	0	4	0
27	246	0	10000	4	1	0	4	0
27	247	0	10000	4	1	0	4	0
28	248	0	10000	4	1	0	4	0
28	249	0	10000	4	1	0	4	0
26	250	0	10000	4	1	0	4	0
25	251	0	10000	4	1	0	4	0
23	252	0	10000	4	1	0	4	0
25	253	0	10000	4	1	0	4	0
24	254	0	10000	4	1	0	4	0
23	255	0	10000	4	1	0	4	0
22	256	0	10000	4	1	0	4	0
21	257	0	10000	4	1	0	4	0
20	258	0	10000	4	1	0	4	0
20	259	0	10000	4	1	0	4	0
20	260	0	10000	4	1	0	4	0
20	261	0	10000	4	1	0	4	0
20	262	0	10000	4	1	0	4	0
19	263	0	10000	4	1	0	4	0
19	264	0	10000	4	1	0	4	0
18	265	0	10000	4	1	0	4	0
18	266	0	10000	4	1	0	4	0
17	267	0	10000	4	1	0	4	0
18	268	0	10000	4	1	0	4	0
18	269	0	10000	4	1	0	4	0
19	270	0	10000	4	1	0	4	0
21	271	0	10000	4	1	0	4	0
22	272	0	10000	4	1	0	4	0
22	273	0	10000	4	1	0	4	0
21	274	0	10000	4	1	0	4	0
21	275	0	10000	4	1	0	4	0
20	276	0	10000	4	1	0	4	0
21	277	0	10000	4	1	0	4	0
21	278	0	10000	4	1	0	4	0
20	279	0	10000	4	1	0	4	0
20	280	0	10000	4	1	0	4	0
20	281	0	10000	4	1	0	4	0
20	282	0	10000	4	1	0	4	0
18	283	0	10000	4	1	0	4	0
20	284	0	10000	4	1	0	4	0
20	285	0	10000	4	1	0	4	0
21	286	0	10000	4	1	0	4	0
20	287	0	10000	4	1	0	4	0
19	288	0	10000	4	1	0	4	0
19	289	0	10000	4	1	0	4	0
17	290	0	10000	4	1	0	4	0
17	291	0	10000	4	1	0	4	0
17	292	0	10000	4	1	0	4	0
18	293	0	10000	4	1	0	4	0
18	294	0	10000	4	1	0	4	0
20	295	0	10000	4	1	0	4	0
22	296	0	10000	4	1	0	4	0
22	297	0	10000	4	1	0	4	0
23	298	0	10000	4	1	0	4	0
23	299	0	10000	4	1	0	4	0
26	300	0	10000	4	1	0	4	0
27	301	0	10000	4	1	0	4	0
27	302	0	10000	4	1	0	4	0
29	303	0	10000	4	1	0	4	0
30	304	0	10000	4	1	0	4	0
30	305	0	10000	4	1	0	4	0
29	306	0	10000	4	1	0	4	0
28	307	0	10000	4	1	0	4	0
26	308	0	10000	4	1	0	4	0
26	309	0	10000	4	1	0	4	0
25	310	0	10000	4	1	0	4	0
25	311	0	10000	4	1	0	4	0
25	312	0	10000	4	1	0	4	0
27	313	0	10000	4	1	0	4	0
26	314	0	10000	4	1	0	4	0
26	315	0	10000	4	1	0	4	0
25	316	0	10000	4	1	0	4	0
26	317	0	10000	4	1	0	4	0
26	318	0	10000	4	1	0	4	0
25	319	0	10000	4	1	0	4	0
28	320	0	10000	4	1	0	4	0
30	321	0	10000	4	1	0	4	0
29	322	0	10000	4	1	0	4	0
26	323	0	10000	4	1	0	4	0
26	324	0	10000	4	1	0	4	0
26	325	0	10000	4	1	0	4	0
29	326	0	10000	4	1	0	4	0
31	327	0	10000	4	1	0	4	0
33	328	0	10000	4	1	0	4	0
34	329	0	10000	4	1	0	4	0
34	330	0	10000	4	1	0	4	0
32	331	0	10000	4	1	0	4	0
31	332	0	10000	4	1	0	4	0
33	333	0	10000	4	1	0	4	0
30	334	0	10000	4	1	0	4	0
30	335	0	10000	4	1	0	4	0
32	336	0	10000	4	1	0	4	0
33	337	0	10000	4	1	0	4	0
34	338	0	10000	4	1	0	4	0
34	339	0	10000	4	1	0	4	0
35	340	0	10000	4	1	0	4	0
40	341	0	10000	4	1	0	4	0
44	342	0	10000	4	1	0	4	0
45	343	0	10000	4	1	0	4	0
46	344	0	10000	4	1	0	4	0
45	345	0	10000	4	1	0	4	0
43	346	0	10000	4	1	0	4	0
41	347	0	10000	4	1	0	4	0
41	348	0	10000	4	1	0	4	0
41	349	0	10000	4	1	0	4	0
39	350	0	10000	4	1	0	4	0
38	351	0	10000	4	1	0	4	0
37	352	0	10000	4	1	0	4	0
37	353	0	10000	4	1	0	4	0
36	354	0	10000	4	1	0	4	0
36	355	0	10000	4	1	0	4	0
35	356	0	10000	4	1	0	4	0
34	357	0	10000	4	1	0	4	0
33	358	0	10000	4	1	0	4	0
32	359	0	10000	4	1	0	4	0
33	360	0	10000	4	1	0	4	0
34	361	0	10000	4	1	0	4	0
33	362	0	10000	4	1	0	4	0
30	363	0	10000	4	1	0	4	0
31	364	0	10000	4	1	0	4	0
31	365	0	10000	4	1	0	4	0
32	366	0	10000	4	1	0	4	0
31	367	0	10000	4	1	0	4	0
31	368	0	10000	4	1	0	4	0
32	369	0	10000	4	1	0	4	0
32	370	0	10000	4	1	0	4	0
33	371	0	10000	4	1	0	4	0
34	372	0	10000	4	1	0	4	0
36	373	0	10000	4	1	0	4	0
35	374	0	10000	4	1	0	4	0
33	375	0	10000	4	1	0	4	0
33	376	0	10000	4	1	0	4	0
35	377	0	10000	4	1	0	4	0
35	378	0	10000	4	1	0	4	0
33	379	0	10000	4	1	0	4	0
33	380	0	10000	4	1	0	4	0
33	381	0	10000	4	1	0	4	0
31	382	0	10000	4	1	0	4	0
28	383	0	10000	4	1	0	4	0
28	384	0	10000	4	1	0	4	0
28	385	0	10000	4	1	0	4	0
28	386	0	10000	4	1	0	4	0
26	387	0	10000	4	1	0	4	0
27	388	0	10000	4	1	0	4	0
28	389	0	10000	4	1	0	4	0
30	390	0	10000	4	1	0	4	0
30	391	0	10000	4	1	0	4	0
31	392	0	10000	4	1	0	4	0
34	393	0	10000	4	1	0	4	0
35	394	0	10000	4	1	0	4	0
33	395	0	10000	4	1	0	4	0
34	396	0	10000	4	1	0	4	0
37	397	0	10000	4	1	0	4	0
37	398	0	10000	4	1	0	4	0
36	399	0	10000	4	1	0	4	0
36	400	0	10000	4	1	0	4	0
36	401	0	10000	4	1	0	4	0
37	402	0	10000	4	1	0	4	0
35	403	0	10000	4	1	0	4	0
34	404	0	10000	4	1	0	4	0
32	405	0	10000	4	1	0	4	0
33	406	0	10000	4	1	0	4	0
31	407	0	10000	4	1	0	4	0
31	408	0	10000	4	1	0	4	0
30	409	0	10000	4	1	0	4	0
28	410	0	10000	4	1	0	4	0
26	411	0	10000	4	1	0	4	0
25	412	0	10000	4	1	0	4	0
26	413	0	10000	4	1	0	4	0
25	414	0	10000	4	1	0	4	0
24	415	0	10000	4	1	0	4	0
23	416	0	10000	4	1	0	4	0
23	417	0	10000	4	1	0	4	0
23	418	0	10000	4	1	0	4	0
21	419	0	10000	4	1	0	4	0
21	420	0	10000	4	1	0	4	0
21	421	0	10000	4	1	0	4	0
23	422	0	10000	4	1	0	4	0
24	423	0	10000	4	1	0	4	0
26	424	0	10000	4	1	0	4	0
28	425	0	10000	4	1	0	4	0
28	426	0	10000	4	1	0	4	0
27	427	0	10000	4	1	0	4	0
28	428	0	10000	4	1	0	4	0
30	429	0	10000	4	1	0	4	0
30	430	0	10000	4	1	0	4	0
31	431	0	10000	4	1	0	4	0
31	432	0	10000	4	1	0	4	0
33	433	0	10000	4	1	0	4	0
33	434	0	10000	4	1	0	4	0
34	435	0	10000	4	1	0	4	0
34	436	0	10000	4	1	0	4	0
33	437	0	10000	4	1	0	4	0
32	438	0	10000	4	1	0	4	0
32	439	0	10000	4	1	0	4	0
33	440	0	10000	4	1	0	4	0
33	441	0	10000	4	1	0	4	0
34	442	0	10000	4	1	0	4	0
34	443	0	10000	4	1	0	4	0
33	444	0	10000	4	1	0	4	0
32	445	0	10000	4	1	0	4	0
32	446	0	10000	4	1	0	4	0
32	447	0	10000	4	1	0	4	0
33	448	0	10000	4	1	0	4	0
34	449	0	10000	4	1	0	4	0
33	450	0	10000	4	1	0	4	0
32	451	0	10000	4	1	0	4	0
32	452	0	10000	4	1	0	4	0
36	453	0	10000	4	1	0	4	0
37	454	0	10000	4	1	0	4	0
38	455	0	10000	4	1	0	4	0
35	456	0	10000	4	1	0	4	0
35	457	0	10000	4	1	0	4	0
35	458	0	10000	4	1	0	4	0
35	459	0	10000	4	1	0	4	0
36	460	0	10000	4	1	0	4	0
36	461	0	10000	4	1	0	4	0
34	462	0	10000	4	1	0	4	0
31	463	0	10000	4	1	0	4	0
31	464	0	10000	4	1	0	4	0
29	465	0	10000	4	1	0	4	0
29	466	0	10000	4	1	0	4	0
31	467	0	10000	4	1	0	4	0
30	468	0	10000	4	1	0	4	0
30	469	0	10000	4	1	0	4	0
29	470	0	10000	4	1	0	4	0
27	471	0	10000	4	1	0	4	0
25	472	0	10000	4	1	0	4	0
29	473	0	10000	4	1	0	4	0
28	474	0	10000	4	1	0	4	0
27	475	0	10000	4	1	0	4	0
28	476	0	10000	4	1	0	4	0
27	477	0	10000	4	1	0	4	0
27	478	0	10000	4	1	0	4	0
26	479	0	10000	4	1	0	4	0
26	480	0	10000	4	1	0	4	0
28	481	0	10000	4	1	0	4	0
31	482	0	10000	4	1	0	4	0
29	483	0	10000	4	1	0	4	0
28	484	0	10000	4	1	0	4	0
29	485	0	10000	4	1	0	4	0
29	486	0	10000	4	1	0	4	0
27	487	0	10000	4	1	0	4	0
27	488	0	10000	4	1	0	4	0
27	489	0	10000	4	1	0	4	0
25	490	0	10000	4	1	0	4	0
24	491	0	10000	4	1	0	4	0
25	492	0	10000	4	1	0	4	0
27	493	0	10000	4	1	0	4	0
26	494	0	10000	4	1	0	4	0
25	495	0	10000	4	1	0	4	0
24	496	0	10000	4	1	0	4	0
23	497	0	10000	4	1	0	4	0
22	498	0	10000	4	1	0	4	0
22	499	0	10000	4	1	0	4	0
22	500	0	10000	4	1	0	4	0
22	501	0	10000	4	1	0	4	1
20	502	0	10000	4	1	0	4	1
20	503	0	10000	4	1	0	4	1
22	504	0	10000	4	1	0	4	1
23	505	0	10000	4	1	0	4	1
24	506	0	10000	4	1	0	4	1
24	507	0	10000	4	1	0	4	1
23	508	0	10000	4	1	0	4	1
23	509	0	10000	4	1	0	4	1
23	510	0	10000	4	1	0	4	1
23	511	0	10000	4	1	0	4	1
23	512	0	10000	4	1	0	4	1
24	513	0	10000	4	1	0	4	1
24	514	0	10000	4	1	0	4	1
24	515	0	10000	4	1	0	4	1
25	516	0	10000	4	1	0	4	1
26	517	0	10000	4	1	0	4	1
25	518	0	10000	4	1	0	4	1
24	519	0	10000	4	1	0	4	1
24	520	0	10000	4	1	0	4	1
24	521	0	10000	4	1	0	4	1
24	522	0	10000	4	1	0	4	1
21	523	0	10000	4	1	0	4	1
23	524	0	10000	4	1	0	4	1
24	525	0	10000	4	1	0	4	1
25	526	0	10000	4	1	0	4	1
25	527	0	10000	4	1	0	4	1
25	528	0	10000	4	1	0	4	1
25	529	0	10000	4	1	0	4	1
25	530	0	10000	4	1	0	4	1
26	531	0	10000	4	1	0	4	1
25	532	0	10000	4	1	0	4	1
26	533	0	10000	4	1	0	4	1
26	534	0	10000	4	1	0	4	1
25	535	0	10000	4	1	0	4	1
27	536	0	10000	4	1	0	4	1
30	537	0	10000	4	1	0	4	1
29	538	0	10000	4	1	0	4	1
27	539	0	10000	4	1	0	4	1
27	540	0	10000	4	1	0	4	1
27	541	0	10000	4	1	0	4	1
26	542	0	10000	4	1	0	4	1
25	543	0	10000	4	1	0	4	1
26	544	0	10000	4	1	0	4	1
26	545	0	10000	4	1	0	4	1
26	546	0	10000	4	1	0	4	1
27	547	0	10000	4	1	0	4	1
27	548	0	10000	4	1	0	4	1
28	549	0	10000	4	1	0	4	1
29	550	0	10000	4	1	0	4	1
29	551	0	10000	4	1	0	4	0
30	552	0	10000	4	1	0	4	0
31	553	0	10000	4	1	0	4	0
29	554	0	10000	4	1	0	4	0
28	555	0	10000	4	1	0	4	0
27	556	0	10000	4	1	0	4	0
26	557	0	10000	4	1	0	4	0
26	558	0	10000	4	1	0	4	0
26	559	0	10000	4	1	0	4	0
28	560	0	10000	4	1	0	4	0
26	561	0	10000	4	1	0	4	0
26	562	0	10000	4	1	0	4	0
23	563	0	10000	4	1	0	4	0
23	564	0	10000	4	1	0	4	0
23	565	0	10000	4	1	0	4	0
23	566	0	10000	4	1	0	4	0
22	567	0	10000	4	1	0	4	0
24	568	0	10000	4	1	0	4	0
24	569	0	10000	4	1	0	4	0
22	570	0	10000	4	1	0	4	0
21	571	0	10000	4	1	0	4	0
21	572	0	10000	4	1	0	4	0
23	573	0	10000	4	1	0	4	0
22	574	0	10000	4	1	0	4	0
21	575	0	10000	4	1	0	4	0
21	576	0	10000	4	1	0	4	0
22	577	0	10000	4	1	0	4	0
22	578	0	10000	4	1	0	4	0
21	579	0	10000	4	1	0	4	0
22	580	0	10000	4	1	0	4	0
21	581	0	10000	4	1	0	4	0
20	582	0	10000	4	1	0	4	0
20	583	0	10000	4	1	0	4	0
20	584	0	10000	4	1	0	4	0
19	585	0	10000	4	1	0	4	0
20	586	0	10000	4	1	0	4	0
20	587	0	10000	4	1	0	4	0
25	588	0	10000	4	1	0	4	0
34	589	0	10000	4	1	0	4	0
44	590	0	10000	4	1	0	4	0
48	591	0	10000	4	1	0	4	0
47	592	0	10000	4	1	0	4	0
53	593	0	10000	4	1	0	4	0
66	594	0	10000	4	1	0	4	0
84	595	0	10000	4	1	0	4	0
92	596	0	10000	4	1	0	4	0
100	597	0	10000	4	1	0	4	0
105	598	0	10000	4	1	0	4	0
128	599	0	10000	4	1	0	4	0
129	600	0	10000	4	1	0	4	0
138	601	0	10000	4	1	0	4	0
149	602	0	10000	4	1	0	4	0
159	603	0	10000	4	1	0	4	0
167	604	0	10000	4	1	0	4	0
173	605	0	10000	4	1	0	4	0
172	606	0	10000	4	1	0	4	0
173	607	0	10000	4	1	0	4	0
176	608	0	10000	4	1	0	4	0
183	609	0	10000	4	1	0	4	0
180	610	0	10000	4	1	0	4	0
196	611	0	10000	4	1	0	4	0
234	612	0	10000	4	1	0	4	0
285	613	0	10000	4	1	0	4	0
321	614	0	10000	4	1	0	4	0
333	615	0	10000	4	1	0	4	0
324	616	0	10000	4	1	0	4	0
320	617	0	10000	4	1	0	4	0
323	618	0	10000	4	1	0	4	0
344	619	0	10000	4	1	0	4	0
442	620	0	10000	4	1	0	4	0
553	621	0	10000	4	1	0	4	0
556	622	0	10000	4	1	0	4	0
580	623	0	10000	4	1	0	4	0
601	624	0	10000	4	1	0	4	0
601	625	0	10000	4	1	0	4	0
592	626	0	10000	4	1	0	4	0
577	627	0	10000	4	1	0	4	0
574	628	0	10000	4	1	0	4	0
571	629	0	10000	4	1	0	4	0
557	630	0	10000	4	1	0	4	0
539	630	0	10000	4	1	0	4	0
516	631	0	10000	4	1	0	4	0
502	633	0	10000	4	1	0	4	0
490	634	0	10000	4	1	0	4	0
479	635	0	10000	4	1	0	4	0
468	636	0	10000	4	1	0	4	0
460	637	0	10000	4	1	0	4	0
451	638	0	10000	4	1	0	4	0
442	639	0	10000	4	1	0	4	0
434	640	0	10000	4	1	0	4	0
423	640	0	10000	4	1	0	4	0
408	641	0	10000	4	1	0	4	0
393	643	0	10000	4	1	0	4	0
384	644	0	10000	4	1	0	4	0
375	645	0	10000	4	1	0	4	0
368	646	0	10000	4	1	0	4	0
359	647	0	10000	4	1	0	4	0
349	648	0	10000	4	1	0	4	0
340	649	0	10000	4	1	0	4	0
329	650	0	10000	4	1	0	4	0
316	650	0	10000	4	1	0	4	0
302	651	0	10000	4	1	0	4	0
291	653	0	10000	4	1	0	4	0
279	654	0	10000	4	1	0	4	0
271	655	0	10000	4	1	0	4	0
265	656	0	10000	4	1	0	4	0
262	657	0	10000	4	1	0	4	0
261	658	0	10000	4	1	0	4	0
261	659	0	10000	4	1	0	4	0
263	660	0	10000	4	1	0	4	0
266	660	0	10000	4	1	0	4	0
267	661	0	10000	4	1	0	4	0
265	663	0	10000	4	1	0	4	0
265	664	0	10000	4	1	0	4	0
264	665	0	10000	4	1	0	4	0
261	666	0	10000	4	1	0	4	0
258	667	0	10000	4	1	0	4	0
256	668	0	10000	4	1	0	4	0
253	669	0	10000	4	1	0	4	0
249	670	0	10000	4	1	0	4	0
245	670	0	10000	4	1	0	4	0
240	671	0	10000	4	1	0	4	0
238	673	0	10000	4	1	0	4	0
235	674	0	10000	4	1	0	4	0
235	675	0	10000	4	1	0	4	0
235	676	0	10000	4	1	0	4	0
233	677	0	10000	4	1	0	4	0
230	678	0	10000	4	1	0	4	0
225	679	0	10000	4	1	0	4	0
219	680	0	10000	4	1	0	4	0
214	680	0	10000	4	1	0	4	0
211	681	0	10000	4	1	0	4	0
205	683	0	10000	4	1	0	4	0
201	684	0	10000	4	1	0	4	0
195	685	0	10000	4	1	0	4	0
188	686	0	10000	4	1	0	4	0
183	687	0	10000	4	1	0	4	0
175	688	0	10000	4	1	0	4	0
168	689	0	10000	4	1	0	4	0
161	690	0	10000	4	1	0	4	0
153	690	0	10000	4	1	0	4	0
147	691	0	10000	4	1	0	4	0
144	693	0	10000	4	1	0	4	0
141	694	0	10000	4	1	0	4	0
138	695	0	10000	4	1	0	4	0
135	696	0	10000	4	1	0	4	0
132	697	0	10000	4	1	0	4	0
129	698	0	10000	4	1	0	4	0
126	699	0	10000	4	1	0	4	0
122	700	0	10000	4	1	0	4	0
118	700	0	10000	4	1	0	4	0
114	701	0	10000	4	1	0	4	0
107	703	0	10000	4	1	0	4	0
104	704	0	10000	4	1	0	4	0
100	705	0	10000	4	1	0	4	0
97	706	0	10000	4	1	0	4	0
93	707	0	10000	4	1	0	4	0
91	708	0	10000	4	1	0	4	0
89	709	0	10000	4	1	0	4	0
87	710	0	10000	4	1	0	4	0
88	710	0	10000	4	1	0	4	0
89	711	0	10000	4	1	0	4	0
92	713	0	10000	4	1	0	4	0
93	714	0	10000	4	1	0	4	0
92	715	0	10000	4	1	0	4	0
90	716	0	10000	4	1	0	4	0
86	717	0	10000	4	1	0	4	0
82	718	0	10000	4	1	0	4	0
80	719	0	10000	4	1	0	4	0
79	720	0	10000	4	1	0	4	0
78	720	0	10000	4	1	0	4	0
76	721	0	10000	4	1	0	4	0
72	723	0	10000	4	1	0	4	0
70	724	0	10000	4	1	0	4	0
68	725	0	10000	4	1	0	4	0
71	726	0	10000	4	1	0	4	0
76	727	0	10000	4	1	0	4	0
79	728	0	10000	4	1	0	4	0
82	729	0	10000	4	1	0	4	0
84	730	0	10000	4	1	0	4	0
86	730	0	10000	4	1	0	4	0
87	731	0	10000	4	1	0	4	0
86	733	0	10000	4	1	0	4	0
85	734	0	10000	4	1	0	4	0
85	735	0	10000	4	1	0	4	0
84	736	0	10000	4	1	0	4	0
84	737	0	10000	4	1	0	4	0
82	738	0	10000	4	1	0	4	0
82	739	0	10000	4	1	0	4	0
80	740	0	10000	4	1	0	4	0
79	740	0	10000	4	1	0	4	0
79	741	0	10000	4	1	0	4	0
77	743	0	10000	4	1	0	4	0
78	744	0	10000	4	1	0	4	0
79	745	0	10000	4	1	0	4	0
78	746	0	10000	4	1	0	4	0
78	747	0	10000	4	1	0	4	0
79	748	0	10000	4	1	0	4	0
78	749	0	10000	4	1	0	4	0
77	750	0	10000	4	1	0	4	0
76	750	0	10000	4	1	0	4	0
76	751	0	10000	4	1	0	4	0
77	753	0	10000	4	1	0	4	0
76	754	0	10000	4	1	0	4	0
76	755	0	10000	4	1	0	4	0
75	756	0	10000	4	1	0	4	0
72	757	0	10000	4	1	0	4	0
69	758	0	10000	4	1	0	4	0
66	759	0	10000	4	1	0	4	0
65	760	0	10000	4	1	0	4	0
63	760	0	10000	4	1	0	4	0
61	761	0	10000	4	1	0	4	0
57	763	0	10000	4	1	0	4	0
56	764	0	10000	4	1	0	4	0
55	765	0	10000	4	1	0	4	0
54	766	0	10000	4	1	0	4	0
51	767	0	10000	4	1	0	4	0
51	768	0	10000	4	1	0	4	0
52	769	0	10000	4	1	0	4	0
54	770	0	10000	4	1	0	4	0
53	770	0	10000	4	1	0	4	0
52	771	0	10000	4	1	0	4	0
50	773	0	10000	4	1	0	4	0
48	774	0	10000	4	1	0	4	0
50	775	0	10000	4	1	0	4	0
49	776	0	10000	4	1	0	4	0
48	777	0	10000	4	1	0	4	0
49	778	0	10000	4	1	0	4	0
51	779	0	10000	4	1	0	4	0
54	780	0	10000	4	1	0	4	0
56	780	0	10000	4	1	0	4	0
55	781	0	10000	4	1	0	4	0
53	783	0	10000	4	1	0	4	0
53	784	0	10000	4	1	0	4	0
51	785	0	10000	4	1	0	4	0
51	786	0	10000	4	1	0	4	0
50	787	0	10000	4	1	0	4	0
48	788	0	10000	4	1	0	4	0
48	789	0	10000	4	1	0	4	0
49	790	0	10000	4	1	0	4	0
50	790	0	10000	4	1	0	4	0
52	791	0	10000	4	1	0	4	0
55	793	0	10000	4	1	0	4	0
55	794	0	10000	4	1	0	4	0
53	795	0	10000	4	1	0	4	0
51	796	0	10000	4	1	0	4	0
51	797	0	10000	4	1	0	4	0
51	798	0	10000	4	1	0	4	0
50	799	0	10000	4	1	0	4	0
50	800	0	10000	4	1	0	4	0
50	800	0	10000	4	1	0	4	0
48	801	0	10000	4	1	0	4	0
44	803	0	10000	4	1	0	4	0
44	804	0	10000	4	1	0	4	0
44	805	0	10000	4	1	0	4	0
44	806	0	10000	4	1	0	4	0
42	807	0	10000	4	1	0	4	0
40	808	0	10000	4	1	0	4	0
39	809	0	10000	4	1	0	4	0
37	810	0	10000	4	1	0	4	0
36	810	0	10000	4	1	0	4	0
36	811	0	10000	4	1	0	4	0
37	813	0	10000	4	1	0	4	0
35	814	0	10000	4	1	0	4	0
34	815	0	10000	4	1	0	4	0
34	816	0	10000	4	1	0	4	0
33	817	0	10000	4	1	0	4	0
34	818	0	10000	4	1	0	4	0
34	819	0	10000	4	1	0	4	0
33	820	0	10000	4	1	0	4	0
33	820	0	10000	4	1	0	4	0
31	821	0	10000	4	1	0	4	0
28	823	0	10000	4	1	0	4	0
27	824	0	10000	4	1	0	4	0
27	825	0	10000	4	1	0	4	0
26	826	0	10000	4	1	0	4	0
25	827	0	10000	4	1	0	4	0
25	828	0	10000	4	1	0	4	0
24	829	0	10000	4	1	0	4	0
23	830	0	10000	4	1	0	4	0
22	830	0	10000	4	1	0	4	0
21	831	0	10000	4	1	0	4	0
23	833	0	10000	4	1	0	4	0
22	834	0	10000	4	1	0	4	0
21	835	0	10000	4	1	0	4	0
21	836	0	10000	4	1	0	4	0
20	837	0	10000	4	1	0	4	0
22	838	0	10000	4	1	0	4	0
25	839	0	10000	4	1	0	4	0
28	840	0	10000	4	1	0	4	0
32	840	0	10000	4	1	0	4	0
35	841	0	10000	4	1	0	4	0
34	843	0	10000	4	1	0	4	0
35	844	0	10000	4	1	0	4	0
38	845	0	10000	4	1	0	4	0
40	846	0	10000	4	1	0	4	0
41	847	0	10000	4	1	0	4	0
43	848	0	10000	4	1	0	4	0
45	849	0	10000	4	1	0	4	0
45	850	0	10000	4	1	0	4	0
47	850	0	10000	4	1	0	4	0
49	851	0	10000	4	1	0	4	0
53	853	0	10000	4	1	0	4	0
53	854	0	10000	4	1	0	4	0
50	855	0	10000	4	1	0	4	0
48	856	0	10000	4	1	0	4	0
49	857	0	10000	4	1	0	4	0
50	858	0	10000	4	1	0	4	0
51	859	0	10000	4	1	0	4	0
52	860	0	10000	4	1	0	4	0
53	860	0	10000	4	1	0	4	0
51	861	0	10000	4	1	0	4	0
48	863	0	10000	4	1	0	4	0
49	864	0	10000	4	1	0	4	0
47	865	0	10000	4	1	0	4	0
45	866	0	10000	4	1	0	4	0
45	867	0	10000	4	1	0	4	0
45	868	0	10000	4	1	0	4	0
44	869	0	10000	4	1	0	4	0
44	870	0	10000	4	1	0	4	0
44	870	0	10000	4	1	0	4	0
42	871	0	10000	4	1	0	4	0
43	873	0	10000	4	1	0	4	0
41	874	0	10000	4	1	0	4	0
39	875	0	10000	4	1	0	4	0
37	876	0	10000	4	1	0	4	0
36	877	0	10000	4	1	0	4	0
35	878	0	10000	4	1	0	4	0
34	879	0	10000	4	1	0	4	0
33	880	0	10000	4	1	0	4	0
32	880	0	10000	4	1	0	4	0
30	881	0	10000	4	1	0	4	0
28	883	0	10000	4	1	0	4	0
29	884	0	10000	4	1	0	4	0
28	885	0	10000	4	1	0	4	0
28	886	0	10000	4	1	0	4	0
27	887	0	10000	4	1	0	4	0
28	888	0	10000	4	1	0	4	0
30	889	0	10000	4	1	0	4	0
30	890	0	10000	4	1	0	4	0
32	890	0	10000	4	1	0	4	0
35	891	0	10000	4	1	0	4	0
37	893	0	10000	4	1	0	4	0
37	894	0	10000	4	1	0	4	0
36	895	0	10000	4	1	0	4	0
35	896	0	10000	4	1	0	4	0
35	897	0	10000	4	1	0	4	0
36	898	0	10000	4	1	0	4	0
38	899	0	10000	4	1	0	4	0
40	900	0	10000	4	1	0	4	0
39	900	0	10000	4	1	0	4	0
38	901	0	10000	4	1	0	4	0
36	903	0	10000	4	1	0	4	0
36	904	0	10000	4	1	0	4	0
35	905	0	10000	4	1	0	4	0
36	906	0	10000	4	1	0	4	0
37	907	0	10000	4	1	0	4	0
39	908	0	10000	4	1	0	4	0
40	909	0	10000	4	1	0	4	0
39	910	0	10000	4	1	0	4	0
37	910	0	10000	4	1	0	4	0
37	911	0	10000	4	1	0	4	0
38	913	0	10000	4	1	0	4	0
36	914	0	10000	4	1	0	4	0
36	915	0	10000	4	1	0	4	0
35	916	0	10000	4	1	0	4	0
37	917	0	10000	4	1	0	4	0
39	918	0	10000	4	1	0	4	0
40	919	0	10000	4	1	0	4	0
41	920	0	10000	4	1	0	4	0
41	920	0	10000	4	1	0	4	0
40	921	0	10000	4	1	0	4	0
39	923	0	10000	4	1	0	4	0
37	924	0	10000	4	1	0	4	0
36	925	0	10000	4	1	0	4	0
35	926	0	10000	4	1	0	4	0
34	927	0	10000	4	1	0	4	0
35	928	0	10000	4	1	0	4	0
35	929	0	10000	4	1	0	4	0
35	930	0	10000	4	1	0	4	0
35	930	0	10000	4	1	0	4	0
36	931	0	10000	4	1	0	4	0
38	933	0	10000	4	1	0	4	0
37	934	0	10000	4	1	0	4	0
36	935	0	10000	4	1	0	4	0
36	936	0	10000	4	1	0	4	0
38	937	0	10000	4	1	0	4	0
39	938	0	10000	4	1	0	4	0
38	939	0	10000	4	1	0	4	0
38	940	0	10000	4	1	0	4	0
37	940	0	10000	4	1	0	4	0
35	941	0	10000	4	1	0	4	0
34	943	0	10000	4	1	0	4	0
34	944	0	10000	4	1	0	4	0
32	945	0	10000	4	1	0	4	0
33	946	0	10000	4	1	0	4	0
32	947	0	10000	4	1	0	4	0
32	948	0	10000	4	1	0	4	0
30	949	0	10000	4	1	0	4	0
28	950	0	10000	4	1	0	4	0
27	950	0	10000	4	1	0	4	0
28	951	0	10000	4	1	0	4	0
29	953	0	10000	4	1	0	4	0
28	954	0	10000	4	1	0	4	0
28	955	0	10000	4	1	0	4	0
26	956	0	10000	4	1	0	4	0
27	957	0	10000	4	1	0	4	0
29	958	0	10000	4	1	0	4	0
31	959	0	10000	4	1	0	4	0
31	960	0	10000	4	1	0	4	0
32	960	0	10000	4	1	0	4	0
31	961	0	10000	4	1	0	4	0
29	963	0	10000	4	1	0	4	0
29	964	0	10000	4	1	0	4	0
30	965	0	10000	4	1	0	4	0
32	966	0	10000	4	1	0	4	0
32	967	0	10000	4	1	0	4	0
31	968	0	10000	4	1	0	4	0
30	969	0	10000	4	1	0	4	0
31	970	0	10000	4	1	0	4	0
29	970	0	10000	4	1	0	4	0
28	971	0	10000	4	1	0	4	0
29	973	0	10000	4	1	0	4	0
28	974	0	10000	4	1	0	4	0
27	975	0	10000	4	1	0	4	0
26	976	0	10000	4	1	0	4	0
26	977	0	10000	4	1	0	4	0
26	978	0	10000	4	1	0	4	0
25	979	0	10000	4	1	0	4	0
25	980	0	10000	4	1	0	4	0
25	980	0	10000	4	1	0	4	0
23	981	0	10000	4	1	0	4	0
21	983	0	10000	4	1	0	4	0
21	984	0	10000	4	1	0	4	0
23	985	0	10000	4	1	0	4	0
24	986	0	10000	4	1	0	4	0
24	987	0	10000	4	1	0	4	0
24	988	0	10000	4	1	0	4	0
25	989	0	10000	4	1	0	4	0
28	990	0	10000	4	1	0	4	0
30	990	0	10000	4	1	0	4	0
33	991	0	10000	4	1	0	4	0
34	993	0	10000	4	1	0	4	0
34	994	0	10000	4	1	0	4	0
36	995	0	10000	4	1	0	4	0
35	996	0	10000	4	1	0	4	0
36	997	0	10000	4	1	0	4	0
36	998	0	10000	4	1	0	4	0
34	999	0	10000	4	1	0	4	0
34	1000	0	10000	4	1	0	4	0
33	1000	0	10000	4	1	0	4	0
32	1001	0	10000	4	1	0	4	0
23	2	7	10000	5	1	0	5	0
23	3	7	10000	5	1	0	5	0
22	4	7	10000	5	1	0	5	0
21	5	7	10000	5	1	0	5	0
23	6	7	10000	5	1	0	5	0
23	7	7	10000	5	1	0	5	0
23	8	7	10000	5	1	0	5	0
25	9	7	10000	5	1	0	5	0
26	10	7	10000	5	1	0	5	0
29	11	7	10000	5	1	0	5	0
32	12	7	10000	5	1	0	5	0
32	13	7	10000	5	1	0	5	0
30	14	7	10000	5	1	0	5	0
33	15	7	10000	5	1	0	5	0
33	16	7	10000	5	1	0	5	0
37	17	7	10000	5	1	0	5	0
39	18	7	10000	5	1	0	5	0
39	19	7	10000	5	1	0	5	0
39	20	7	10000	5	1	0	5	0
38	21	7	10000	5	1	0	5	0
36	21	7	10000	5	1	0	5	0
37	22	7	10000	5	1	0	5	0
39	24	7	10000	5	1	0	5	0
37	25	7	10000	5	1	0	5	0
36	26	7	10000	5	1	0	5	0
35	27	7	10000	5	1	0	5	0
35	28	7	10000	5	1	0	5	0
34	29	7	10000	5	1	0	5	0
34	30	7	10000	5	1	0	5	0
36	31	7	10000	5	1	0	5	0
35	31	7	10000	5	1	0	5	0
35	32	7	10000	5	1	0	5	0
34	34	7	10000	5	1	0	5	0
34	35	7	10000	5	1	0	5	0
33	36	7	10000	5	1	0	5	0
32	37	7	10000	5	1	0	5	0
31	38	7	10000	5	1	0	5	0
29	39	7	10000	5	1	0	5	0
28	40	7	10000	5	1	0	5	0
27	41	7	10000	5	1	0	5	0
26	41	7	10000	5	1	0	5	0
27	42	7	10000	5	1	0	5	0
28	44	7	10000	5	1	0	5	0
25	45	7	10000	5	1	0	5	0
26	46	7	10000	5	1	0	5	0
25	47	7	10000	5	1	0	5	0
26	48	7	10000	5	1	0	5	0
28	49	7	10000	5	1	0	5	0
32	50	7	10000	5	1	0	5	0
32	51	7	10000	5	1	0	5	0
33	51	7	10000	5	1	0	5	0
33	52	7	10000	5	1	0	5	0
32	54	7	10000	5	1	0	5	0
34	55	7	10000	5	1	0	5	0
34	56	7	10000	5	1	0	5	0
35	57	7	10000	5	1	0	5	0
36	58	7	10000	5	1	0	5	0
38	59	7	10000	5	1	0	5	0
37	60	7	10000	5	1	0	5	0
36	61	7	10000	5	1	0	5	0
37	61	7	10000	5	1	0	5	0
35	62	7	10000	5	1	0	5	0
35	64	7	10000	5	1	0	5	0
32	65	7	10000	5	1	0	5	0
30	66	7	10000	5	1	0	5	0
30	67	7	10000	5	1	0	5	0
30	68	7	10000	5	1	0	5	0
28	69	7	10000	5	1	0	5	0
28	70	7	10000	5	1	0	5	0
27	71	7	10000	5	1	0	5	0
26	71	7	10000	5	1	0	5	0
26	72	7	10000	5	1	0	5	0
25	74	7	10000	5	1	0	5	0
27	75	7	10000	5	1	0	5	0
27	76	7	10000	5	1	0	5	0
25	77	7	10000	5	1	0	5	0
25	78	7	10000	5	1	0	5	0
27	79	7	10000	5	1	0	5	0
26	80	7	10000	5	1	0	5	0
25	81	7	10000	5	1	0	5	0
26	81	7	10000	5	1	0	5	0
26	82	7	10000	5	1	0	5	0
27	84	7	10000	5	1	0	5	0
25	85	7	10000	5	1	0	5	0
24	86	7	10000	5	1	0	5	0
23	87	7	10000	5	1	0	5	0
23	88	7	10000	5	1	0	5	0
24	89	7	10000	5	1	0	5	0
24	90	7	10000	5	1	0	5	0
23	91	7	10000	5	1	0	5	0
22	91	7	10000	5	1	0	5	0
21	92	7	10000	5	1	0	5	0
20	94	7	10000	5	1	0	5	0
22	95	7	10000	5	1	0	5	0
22	96	7	10000	5	1	0	5	0
21	97	7	10000	5	1	0	5	0
21	98	7	10000	5	1	0	5	0
23	99	7	10000	5	1	0	5	0
24	100	7	10000	5	1	0	5	0
24	101	7	10000	5	1	0	5	0
24	101	7	10000	5	1	0	5	0
26	102	7	10000	5	1	0	5	0
29	104	7	10000	5	1	0	5	0
29	105	7	10000	5	1	0	5	0
30	106	7	10000	5	1	0	5	0
30	107	7	10000	5	1	0	5	0
29	108	7	10000	5	1	0	5	0
28	109	7	10000	5	1	0	5	0
29	110	7	10000	5	1	0	5	0
27	111	7	10000	5	1	0	5	0
27	111	7	10000	5	1	0	5	0
27	112	7	10000	5	1	0	5	0
25	114	7	10000	5	1	0	5	0
27	115	7	10000	5	1	0	5	0
27	116	7	10000	5	1	0	5	0
25	117	7	10000	5	1	0	5	0
26	118	7	10000	5	1	0	5	0
25	119	7	10000	5	1	0	5	0
25	120	7	10000	5	1	0	5	0
25	121	7	10000	5	1	0	5	0
26	121	7	10000	5	1	0	5	0
28	122	7	10000	5	1	0	5	0
30	124	7	10000	5	1	0	5	0
27	125	7	10000	5	1	0	5	0
26	126	7	10000	5	1	0	5	0
27	127	7	10000	5	1	0	5	0
26	128	7	10000	5	1	0	5	0
26	129	7	10000	5	1	0	5	0
25	130	7	10000	5	1	0	5	0
25	131	7	10000	5	1	0	5	0
24	131	7	10000	5	1	0	5	0
24	132	7	10000	5	1	0	5	0
24	134	7	10000	5	1	0	5	0
25	135	7	10000	5	1	0	5	0
23	136	7	10000	5	1	0	5	0
23	137	7	10000	5	1	0	5	0
21	138	7	10000	5	1	0	5	0
21	139	7	10000	5	1	0	5	0
22	140	7	10000	5	1	0	5	0
22	141	7	10000	5	1	0	5	0
24	141	7	10000	5	1	0	5	0
27	142	7	10000	5	1	0	5	0
28	144	7	10000	5	1	0	5	0
25	145	7	10000	5	1	0	5	0
26	146	7	10000	5	1	0	5	0
25	147	7	10000	5	1	0	5	0
25	148	7	10000	5	1	0	5	0
25	149	7	10000	5	1	0	5	0
24	150	7	10000	5	1	0	5	0
24	151	7	10000	5	1	0	5	0
22	151	7	10000	5	1	0	5	0
22	152	7	10000	5	1	0	5	0
23	154	7	10000	5	1	0	5	0
25	155	7	10000	5	1	0	5	0
25	156	7	10000	5	1	0	5	0
24	157	7	10000	5	1	0	5	0
24	158	7	10000	5	1	0	5	0
26	159	7	10000	5	1	0	5	0
27	160	7	10000	5	1	0	5	0
26	161	7	10000	5	1	0	5	0
27	161	7	10000	5	1	0	5	0
27	162	7	10000	5	1	0	5	0
26	164	7	10000	5	1	0	5	0
24	165	7	10000	5	1	0	5	0
25	166	7	10000	5	1	0	5	0
27	167	7	10000	5	1	0	5	0
28	168	7	10000	5	1	0	5	0
27	169	7	10000	5	1	0	5	0
26	170	7	10000	5	1	0	5	0
26	171	7	10000	5	1	0	5	0
24	171	7	10000	5	1	0	5	0
23	172	7	10000	5	1	0	5	0
22	174	7	10000	5	1	0	5	0
24	175	7	10000	5	1	0	5	0
24	176	7	10000	5	1	0	5	0
23	177	7	10000	5	1	0	5	0
22	178	7	10000	5	1	0	5	0
21	179	7	10000	5	1	0	5	0
21	180	7	10000	5	1	0	5	0
21	181	7	10000	5	1	0	5	0
20	181	7	10000	5	1	0	5	0
21	182	7	10000	5	1	0	5	0
20	184	7	10000	5	1	0	5	0
17	185	7	10000	5	1	0	5	0
18	186	7	10000	5	1	0	5	0
19	187	7	10000	5	1	0	5	0
20	188	7	10000	5	1	0	5	0
21	189	7	10000	5	1	0	5	0
21	190	7	10000	5	1	0	5	0
25	191	7	10000	5	1	0	5	0
27	191	7	10000	5	1	0	5	0
27	192	7	10000	5	1	0	5	0
26	194	7	10000	5	1	0	5	0
28	195	7	10000	5	1	0	5	0
27	196	7	10000	5	1	0	5	0
28	197	7	10000	5	1	0	5	0
28	198	7	10000	5	1	0	5	0
26	199	7	10000	5	1	0	5	0
25	200	7	10000	5	1	0	5	0
25	201	7	10000	5	1	0	5	0
25	201	7	10000	5	1	0	5	0
25	202	7	10000	5	1	0	5	0
26	204	7	10000	5	1	0	5	0
23	205	7	10000	5	1	0	5	0
22	206	7	10000	5	1	0	5	0
22	207	7	10000	5	1	0	5	0
21	208	7	10000	5	1	0	5	0
21	209	7	10000	5	1	0	5	0
21	210	7	10000	5	1	0	5	0
21	211	7	10000	5	1	0	5	0
20	211	7	10000	5	1	0	5	0
19	212	7	10000	5	1	0	5	0
18	214	7	10000	5	1	0	5	0
20	215	7	10000	5	1	0	5	0
20	216	7	10000	5	1	0	5	0
19	217	7	10000	5	1	0	5	0
19	218	7	10000	5	1	0	5	0
19	219	7	10000	5	1	0	5	0
19	220	7	10000	5	1	0	5	0
20	221	7	10000	5	1	0	5	0
20	221	7	10000	5	1	0	5	0
20	222	7	10000	5	1	0	5	0
22	224	7	10000	5	1	0	5	0
23	225	7	10000	5	1	0	5	0
24	226	7	10000	5	1	0	5	0
23	227	7	10000	5	1	0	5	0
23	228	7	10000	5	1	0	5	0
24	229	7	10000	5	1	0	5	0
23	230	7	10000	5	1	0	5	0
23	231	7	10000	5	1	0	5	0
22	231	7	10000	5	1	0	5	0
22	232	7	10000	5	1	0	5	0
23	234	7	10000	5	1	0	5	0
24	235	7	10000	5	1	0	5	0
24	236	7	10000	5	1	0	5	0
23	237	7	10000	5	1	0	5	0
22	238	7	10000	5	1	0	5	0
22	239	7	10000	5	1	0	5	0
22	240	7	10000	5	1	0	5	0
24	241	7	10000	5	1	0	5	0
29	241	7	10000	5	1	0	5	0
32	242	7	10000	5	1	0	5	0
32	244	7	10000	5	1	0	5	0
29	245	7	10000	5	1	0	5	0
31	246	7	10000	5	1	0	5	0
32	247	7	10000	5	1	0	5	0
32	248	7	10000	5	1	0	5	0
32	249	7	10000	5	1	0	5	0
31	250	7	10000	5	1	0	5	0
30	251	7	10000	5	1	0	5	0
28	251	7	10000	5	1	0	5	0
27	252	7	10000	5	1	0	5	0
26	254	7	10000	5	1	0	5	0
27	255	7	10000	5	1	0	5	0
27	256	7	10000	5	1	0	5	0
26	257	7	10000	5	1	0	5	0
24	258	7	10000	5	1	0	5	0
25	259	7	10000	5	1	0	5	0
26	260	7	10000	5	1	0	5	0
26	261	7	10000	5	1	0	5	0
27	261	7	10000	5	1	0	5	0
26	262	7	10000	5	1	0	5	0
25	264	7	10000	5	1	0	5	0
25	265	7	10000	5	1	0	5	0
26	266	7	10000	5	1	0	5	0
26	267	7	10000	5	1	0	5	0
27	268	7	10000	5	1	0	5	0
25	269	7	10000	5	1	0	5	0
24	270	7	10000	5	1	0	5	0
24	271	7	10000	5	1	0	5	0
22	271	7	10000	5	1	0	5	0
22	272	7	10000	5	1	0	5	0
21	274	7	10000	5	1	0	5	0
24	275	7	10000	5	1	0	5	0
26	276	7	10000	5	1	0	5	0
26	277	7	10000	5	1	0	5	0
26	278	7	10000	5	1	0	5	0
25	279	7	10000	5	1	0	5	0
25	280	7	10000	5	1	0	5	0
24	281	7	10000	5	1	0	5	0
26	281	7	10000	5	1	0	5	0
25	282	7	10000	5	1	0	5	0
25	284	7	10000	5	1	0	5	0
23	285	7	10000	5	1	0	5	0
24	286	7	10000	5	1	0	5	0
24	287	7	10000	5	1	0	5	0
24	288	7	10000	5	1	0	5	0
24	289	7	10000	5	1	0	5	0
25	290	7	10000	5	1	0	5	0
26	291	7	10000	5	1	0	5	0
26	291	7	10000	5	1	0	5	0
26	292	7	10000	5	1	0	5	0
25	294	7	10000	5	1	0	5	0
27	295	7	10000	5	1	0	5	0
27	296	7	10000	5	1	0	5	0
27	297	7	10000	5	1	0	5	0
26	298	7	10000	5	1	0	5	0
25	299	7	10000	5	1	0	5	0
25	300	7	10000	5	1	0	5	0
24	301	7	10000	5	1	0	5	0
24	301	7	10000	5	1	0	5	0
24	302	7	10000	5	1	0	5	0
25	304	7	10000	5	1	0	5	0
23	305	7	10000	5	1	0	5	0
24	306	7	10000	5	1	0	5	0
23	307	7	10000	5	1	0	5	0
23	308	7	10000	5	1	0	5	0
25	309	7	10000	5	1	0	5	0
26	310	7	10000	5	1	0	5	0
26	311	7	10000	5	1	0	5	0
26	311	7	10000	5	1	0	5	0
26	312	7	10000	5	1	0	5	0
26	314	7	10000	5	1	0	5	0
27	315	7	10000	5	1	0	5	0
26	316	7	10000	5	1	0	5	0
29	317	7	10000	5	1	0	5	0
29	318	7	10000	5	1	0	5	0
27	319	7	10000	5	1	0	5	0
27	320	7	10000	5	1	0	5	0
25	321	7	10000	5	1	0	5	0
25	321	7	10000	5	1	0	5	0
25	322	7	10000	5	1	0	5	0
24	324	7	10000	5	1	0	5	0
22	325	7	10000	5	1	0	5	0
24	326	7	10000	5	1	0	5	0
24	327	7	10000	5	1	0	5	0
25	328	7	10000	5	1	0	5	0
25	329	7	10000	5	1	0	5	0
24	330	7	10000	5	1	0	5	0
25	331	7	10000	5	1	0	5	0
25	331	7	10000	5	1	0	5	0
27	332	7	10000	5	1	0	5	0
26	334	7	10000	5	1	0	5	0
28	335	7	10000	5	1	0	5	0
31	336	7	10000	5	1	0	5	0
32	337	7	10000	5	1	0	5	0
31	338	7	10000	5	1	0	5	0
30	339	7	10000	5	1	0	5	0
29	340	7	10000	5	1	0	5	0
29	341	7	10000	5	1	0	5	0
29	341	7	10000	5	1	0	5	0
29	342	7	10000	5	1	0	5	0
30	344	7	10000	5	1	0	5	0
28	345	7	10000	5	1	0	5	0
27	346	7	10000	5	1	0	5	0
26	347	7	10000	5	1	0	5	0
26	348	7	10000	5	1	0	5	0
25	349	7	10000	5	1	0	5	0
26	350	7	10000	5	1	0	5	0
27	351	7	10000	5	1	0	5	0
26	351	7	10000	5	1	0	5	0
25	352	7	10000	5	1	0	5	0
25	354	7	10000	5	1	0	5	0
28	355	7	10000	5	1	0	5	0
28	356	7	10000	5	1	0	5	0
28	357	7	10000	5	1	0	5	0
27	358	7	10000	5	1	0	5	0
26	359	7	10000	5	1	0	5	0
26	360	7	10000	5	1	0	5	0
25	361	7	10000	5	1	0	5	0
27	361	7	10000	5	1	0	5	0
26	362	7	10000	5	1	0	5	0
25	364	7	10000	5	1	0	5	0
23	365	7	10000	5	1	0	5	0
24	366	7	10000	5	1	0	5	0
25	367	7	10000	5	1	0	5	0
26	368	7	10000	5	1	0	5	0
26	369	7	10000	5	1	0	5	0
25	370	7	10000	5	1	0	5	0
26	371	7	10000	5	1	0	5	0
26	371	7	10000	5	1	0	5	0
24	372	7	10000	5	1	0	5	0
23	374	7	10000	5	1	0	5	0
26	375	7	10000	5	1	0	5	0
25	376	7	10000	5	1	0	5	0
25	377	7	10000	5	1	0	5	0
26	378	7	10000	5	1	0	5	0
25	379	7	10000	5	1	0	5	0
25	380	7	10000	5	1	0	5	0
27	381	7	10000	5	1	0	5	0
29	381	7	10000	5	1	0	5	0
29	382	7	10000	5	1	0	5	0
30	384	7	10000	5	1	0	5	0
26	385	7	10000	5	1	0	5	0
26	386	7	10000	5	1	0	5	0
26	387	7	10000	5	1	0	5	0
25	388	7	10000	5	1	0	5	0
25	389	7	10000	5	1	0	5	0
25	390	7	10000	5	1	0	5	0
24	391	7	10000	5	1	0	5	0
24	391	7	10000	5	1	0	5	0
24	392	7	10000	5	1	0	5	0
23	394	7	10000	5	1	0	5	0
25	395	7	10000	5	1	0	5	0
25	396	7	10000	5	1	0	5	0
25	397	7	10000	5	1	0	5	0
25	398	7	10000	5	1	0	5	0
24	399	7	10000	5	1	0	5	0
24	400	7	10000	5	1	0	5	0
23	401	7	10000	5	1	0	5	0
24	401	7	10000	5	1	0	5	0
24	402	7	10000	5	1	0	5	0
24	404	7	10000	5	1	0	5	0
22	405	7	10000	5	1	0	5	0
23	406	7	10000	5	1	0	5	0
23	407	7	10000	5	1	0	5	0
23	408	7	10000	5	1	0	5	0
22	409	7	10000	5	1	0	5	0
22	410	7	10000	5	1	0	5	0
21	411	7	10000	5	1	0	5	0
21	411	7	10000	5	1	0	5	0
20	412	7	10000	5	1	0	5	0
20	414	7	10000	5	1	0	5	0
22	415	7	10000	5	1	0	5	0
22	416	7	10000	5	1	0	5	0
21	417	7	10000	5	1	0	5	0
20	418	7	10000	5	1	0	5	0
21	419	7	10000	5	1	0	5	0
22	420	7	10000	5	1	0	5	0
21	421	7	10000	5	1	0	5	0
21	421	7	10000	5	1	0	5	0
21	422	7	10000	5	1	0	5	0
22	424	7	10000	5	1	0	5	0
20	425	7	10000	5	1	0	5	0
22	426	7	10000	5	1	0	5	0
21	427	7	10000	5	1	0	5	0
22	428	7	10000	5	1	0	5	0
23	429	7	10000	5	1	0	5	0
24	430	7	10000	5	1	0	5	0
26	431	7	10000	5	1	0	5	0
24	431	7	10000	5	1	0	5	0
24	432	7	10000	5	1	0	5	0
23	434	7	10000	5	1	0	5	0
25	435	7	10000	5	1	0	5	0
24	436	7	10000	5	1	0	5	0
23	437	7	10000	5	1	0	5	0
25	438	7	10000	5	1	0	5	0
27	439	7	10000	5	1	0	5	0
26	440	7	10000	5	1	0	5	0
25	441	7	10000	5	1	0	5	0
28	441	7	10000	5	1	0	5	0
27	442	7	10000	5	1	0	5	0
26	444	7	10000	5	1	0	5	0
26	445	7	10000	5	1	0	5	0
25	446	7	10000	5	1	0	5	0
25	447	7	10000	5	1	0	5	0
25	448	7	10000	5	1	0	5	0
24	449	7	10000	5	1	0	5	0
23	450	7	10000	5	1	0	5	0
24	451	7	10000	5	1	0	5	0
23	451	7	10000	5	1	0	5	0
22	452	7	10000	5	1	0	5	0
22	454	7	10000	5	1	0	5	0
23	455	7	10000	5	1	0	5	0
22	456	7	10000	5	1	0	5	0
22	457	7	10000	5	1	0	5	0
21	458	7	10000	5	1	0	5	0
20	459	7	10000	5	1	0	5	0
20	460	7	10000	5	1	0	5	0
21	461	7	10000	5	1	0	5	0
22	461	7	10000	5	1	0	5	0
23	462	7	10000	5	1	0	5	0
23	464	7	10000	5	1	0	5	0
20	465	7	10000	5	1	0	5	0
20	466	7	10000	5	1	0	5	0
20	467	7	10000	5	1	0	5	0
20	468	7	10000	5	1	0	5	0
20	469	7	10000	5	1	0	5	0
22	470	7	10000	5	1	0	5	0
22	471	7	10000	5	1	0	5	0
21	471	7	10000	5	1	0	5	0
21	472	7	10000	5	1	0	5	0
22	474	7	10000	5	1	0	5	0
24	475	7	10000	5	1	0	5	0
24	476	7	10000	5	1	0	5	0
23	477	7	10000	5	1	0	5	0
22	478	7	10000	5	1	0	5	0
23	479	7	10000	5	1	0	5	0
22	480	7	10000	5	1	0	5	0
22	481	7	10000	5	1	0	5	0
24	481	7	10000	5	1	0	5	0
25	482	7	10000	5	1	0	5	0
25	484	7	10000	5	1	0	5	0
23	485	7	10000	5	1	0	5	0
23	486	7	10000	5	1	0	5	0
22	487	7	10000	5	1	0	5	0
23	488	7	10000	5	1	0	5	0
23	489	7	10000	5	1	0	5	0
22	490	7	10000	5	1	0	5	0
22	491	7	10000	5	1	0	5	0
21	491	7	10000	5	1	0	5	0
22	492	7	10000	5	1	0	5	0
22	494	7	10000	5	1	0	5	0
24	495	7	10000	5	1	0	5	0
23	496	7	10000	5	1	0	5	0
23	497	7	10000	5	1	0	5	0
23	498	7	10000	5	1	0	5	0
23	499	7	10000	5	1	0	5	0
23	500	7	10000	5	1	0	5	0
22	501	7	10000	5	1	0	5	0
21	502	7	10000	5	1	0	5	1
22	503	7	10000	5	1	0	5	1
21	504	7	10000	5	1	0	5	1
20	505	7	10000	5	1	0	5	1
20	506	7	10000	5	1	0	5	1
19	507	7	10000	5	1	0	5	1
20	508	7	10000	5	1	0	5	1
20	509	7	10000	5	1	0	5	1
21	510	7	10000	5	1	0	5	1
22	511	7	10000	5	1	0	5	1
22	511	7	10000	5	1	0	5	1
22	512	7	10000	5	1	0	5	1
23	514	7	10000	5	1	0	5	1
26	515	7	10000	5	1	0	5	1
24	516	7	10000	5	1	0	5	1
25	517	7	10000	5	1	0	5	1
26	518	7	10000	5	1	0	5	1
28	519	7	10000	5	1	0	5	1
29	520	7	10000	5	1	0	5	1
29	521	7	10000	5	1	0	5	1
30	521	7	10000	5	1	0	5	1
32	522	7	10000	5	1	0	5	1
33	524	7	10000	5	1	0	5	1
32	525	7	10000	5	1	0	5	1
30	526	7	10000	5	1	0	5	1
30	527	7	10000	5	1	0	5	1
29	528	7	10000	5	1	0	5	1
30	529	7	10000	5	1	0	5	1
30	530	7	10000	5	1	0	5	1
30	531	7	10000	5	1	0	5	1
29	531	7	10000	5	1	0	5	1
29	532	7	10000	5	1	0	5	1
28	534	7	10000	5	1	0	5	1
31	535	7	10000	5	1	0	5	1
30	536	7	10000	5	1	0	5	1
30	537	7	10000	5	1	0	5	1
29	538	7	10000	5	1	0	5	1
28	539	7	10000	5	1	0	5	1
28	540	7	10000	5	1	0	5	1
27	541	7	10000	5	1	0	5	1
28	541	7	10000	5	1	0	5	1
28	542	7	10000	5	1	0	5	1
28	544	7	10000	5	1	0	5	1
25	545	7	10000	5	1	0	5	1
25	546	7	10000	5	1	0	5	1
25	547	7	10000	5	1	0	5	1
24	548	7	10000	5	1	0	5	1
24	549	7	10000	5	1	0	5	1
23	550	7	10000	5	1	0	5	1
23	551	7	10000	5	1	0	5	1
22	551	7	10000	5	1	0	5	0
21	552	7	10000	5	1	0	5	0
20	554	7	10000	5	1	0	5	0
22	555	7	10000	5	1	0	5	0
22	556	7	10000	5	1	0	5	0
20	557	7	10000	5	1	0	5	0
20	558	7	10000	5	1	0	5	0
21	559	7	10000	5	1	0	5	0
22	560	7	10000	5	1	0	5	0
23	561	7	10000	5	1	0	5	0
24	561	7	10000	5	1	0	5	0
25	562	7	10000	5	1	0	5	0
27	564	7	10000	5	1	0	5	0
26	565	7	10000	5	1	0	5	0
26	566	7	10000	5	1	0	5	0
28	567	7	10000	5	1	0	5	0
27	568	7	10000	5	1	0	5	0
25	569	7	10000	5	1	0	5	0
26	570	7	10000	5	1	0	5	0
28	571	7	10000	5	1	0	5	0
28	571	7	10000	5	1	0	5	0
28	572	7	10000	5	1	0	5	0
27	574	7	10000	5	1	0	5	0
28	575	7	10000	5	1	0	5	0
31	576	7	10000	5	1	0	5	0
32	577	7	10000	5	1	0	5	0
31	578	7	10000	5	1	0	5	0
30	579	7	10000	5	1	0	5	0
30	580	7	10000	5	1	0	5	0
28	581	7	10000	5	1	0	5	0
29	581	7	10000	5	1	0	5	0
30	582	7	10000	5	1	0	5	0
36	584	7	10000	5	1	0	5	0
42	585	7	10000	5	1	0	5	0
48	586	7	10000	5	1	0	5	0
53	587	7	10000	5	1	0	5	0
59	588	7	10000	5	1	0	5	0
65	589	7	10000	5	1	0	5	0
72	590	7	10000	5	1	0	5	0
87	591	7	10000	5	1	0	5	0
95	591	7	10000	5	1	0	5	0
94	592	7	10000	5	1	0	5	0
97	594	7	10000	5	1	0	5	0
113	595	7	10000	5	1	0	5	0
130	595	7	10000	5	1	0	5	0
147	596	7	10000	5	1	0	5	0
152	598	7	10000	5	1	0	5	0
146	599	7	10000	5	1	0	5	0
141	600	7	10000	5	1	0	5	0
139	601	7	10000	5	1	0	5	0
141	601	7	10000	5	1	0	5	0
142	602	7	10000	5	1	0	5	0
145	604	7	10000	5	1	0	5	0
144	605	7	10000	5	1	0	5	0
140	606	7	10000	5	1	0	5	0
137	607	7	10000	5	1	0	5	0
141	608	7	10000	5	1	0	5	0
154	609	7	10000	5	1	0	5	0
154	610	7	10000	5	1	0	5	0
168	611	7	10000	5	1	0	5	0
189	611	7	10000	5	1	0	5	0
187	612	7	10000	5	1	0	5	0
191	614	7	10000	5	1	0	5	0
208	615	7	10000	5	1	0	5	0
224	616	7	10000	5	1	0	5	0
223	617	7	10000	5	1	0	5	0
214	618	7	10000	5	1	0	5	0
208	619	7	10000	5	1	0	5	0
210	620	7	10000	5	1	0	5	0
231	621	7	10000	5	1	0	5	0
264	621	7	10000	5	1	0	5	0
327	622	7	10000	5	1	0	5	0
387	624	7	10000	5	1	0	5	0
392	625	7	10000	5	1	0	5	0
396	626	7	10000	5	1	0	5	0
429	627	7	10000	5	1	0	5	0
464	628	7	10000	5	1	0	5	0
487	629	7	10000	5	1	0	5	0
502	630	7	10000	5	1	0	5	0
512	631	7	10000	5	1	0	5	0
508	631	7	10000	5	1	0	5	0
491	632	7	10000	5	1	0	5	0
469	634	7	10000	5	1	0	5	0
455	635	7	10000	5	1	0	5	0
443	636	7	10000	5	1	0	5	0
435	637	7	10000	5	1	0	5	0
427	638	7	10000	5	1	0	5	0
420	639	7	10000	5	1	0	5	0
411	640	7	10000	5	1	0	5	0
401	641	7	10000	5	1	0	5	0
390	641	7	10000	5	1	0	5	0
380	642	7	10000	5	1	0	5	0
368	644	7	10000	5	1	0	5	0
352	645	7	10000	5	1	0	5	0
339	646	7	10000	5	1	0	5	0
326	647	7	10000	5	1	0	5	0
314	648	7	10000	5	1	0	5	0
303	649	7	10000	5	1	0	5	0
292	650	7	10000	5	1	0	5	0
281	651	7	10000	5	1	0	5	0
268	651	7	10000	5	1	0	5	0
256	652	7	10000	5	1	0	5	0
244	654	7	10000	5	1	0	5	0
235	655	7	10000	5	1	0	5	0
225	656	7	10000	5	1	0	5	0
217	657	7	10000	5	1	0	5	0
213	658	7	10000	5	1	0	5	0
212	659	7	10000	5	1	0	5	0
212	660	7	10000	5	1	0	5	0
213	661	7	10000	5	1	0	5	0
218	661	7	10000	5	1	0	5	0
222	662	7	10000	5	1	0	5	0
225	664	7	10000	5	1	0	5	0
225	665	7	10000	5	1	0	5	0
227	666	7	10000	5	1	0	5	0
229	667	7	10000	5	1	0	5	0
229	668	7	10000	5	1	0	5	0
229	669	7	10000	5	1	0	5	0
227	670	7	10000	5	1	0	5	0
225	671	7	10000	5	1	0	5	0
222	671	7	10000	5	1	0	5	0
217	672	7	10000	5	1	0	5	0
213	674	7	10000	5	1	0	5	0
211	675	7	10000	5	1	0	5	0
207	676	7	10000	5	1	0	5	0
205	677	7	10000	5	1	0	5	0
208	678	7	10000	5	1	0	5	0
212	679	7	10000	5	1	0	5	0
214	680	7	10000	5	1	0	5	0
212	681	7	10000	5	1	0	5	0
211	681	7	10000	5	1	0	5	0
210	682	7	10000	5	1	0	5	0
204	684	7	10000	5	1	0	5	0
196	685	7	10000	5	1	0	5	0
191	686	7	10000	5	1	0	5	0
185	687	7	10000	5	1	0	5	0
177	688	7	10000	5	1	0	5	0
172	689	7	10000	5	1	0	5	0
165	690	7	10000	5	1	0	5	0
159	691	7	10000	5	1	0	5	0
153	691	7	10000	5	1	0	5	0
147	692	7	10000	5	1	0	5	0
140	694	7	10000	5	1	0	5	0
137	695	7	10000	5	1	0	5	0
130	696	7	10000	5	1	0	5	0
124	697	7	10000	5	1	0	5	0
118	698	7	10000	5	1	0	5	0
113	699	7	10000	5	1	0	5	0
111	700	7	10000	5	1	0	5	0
107	701	7	10000	5	1	0	5	0
106	701	7	10000	5	1	0	5	0
104	702	7	10000	5	1	0	5	0
103	704	7	10000	5	1	0	5	0
99	705	7	10000	5	1	0	5	0
96	706	7	10000	5	1	0	5	0
93	707	7	10000	5	1	0	5	0
93	708	7	10000	5	1	0	5	0
91	709	7	10000	5	1	0	5	0
90	710	7	10000	5	1	0	5	0
90	711	7	10000	5	1	0	5	0
90	711	7	10000	5	1	0	5	0
90	712	7	10000	5	1	0	5	0
91	714	7	10000	5	1	0	5	0
94	715	7	10000	5	1	0	5	0
92	716	7	10000	5	1	0	5	0
91	717	7	10000	5	1	0	5	0
88	718	7	10000	5	1	0	5	0
84	719	7	10000	5	1	0	5	0
83	720	7	10000	5	1	0	5	0
82	721	7	10000	5	1	0	5	0
83	721	7	10000	5	1	0	5	0
83	722	7	10000	5	1	0	5	0
81	724	7	10000	5	1	0	5	0
78	725	7	10000	5	1	0	5	0
76	726	7	10000	5	1	0	5	0
76	727	7	10000	5	1	0	5	0
76	728	7	10000	5	1	0	5	0
76	729	7	10000	5	1	0	5	0
77	730	7	10000	5	1	0	5	0
78	731	7	10000	5	1	0	5	0
81	731	7	10000	5	1	0	5	0
82	732	7	10000	5	1	0	5	0
84	734	7	10000	5	1	0	5	0
88	735	7	10000	5	1	0	5	0
89	736	7	10000	5	1	0	5	0
88	737	7	10000	5	1	0	5	0
85	738	7	10000	5	1	0	5	0
84	739	7	10000	5	1	0	5	0
83	740	7	10000	5	1	0	5	0
83	741	7	10000	5	1	0	5	0
81	741	7	10000	5	1	0	5	0
80	742	7	10000	5	1	0	5	0
79	744	7	10000	5	1	0	5	0
75	745	7	10000	5	1	0	5	0
74	746	7	10000	5	1	0	5	0
73	747	7	10000	5	1	0	5	0
72	748	7	10000	5	1	0	5	0
72	749	7	10000	5	1	0	5	0
72	750	7	10000	5	1	0	5	0
72	751	7	10000	5	1	0	5	0
72	751	7	10000	5	1	0	5	0
73	752	7	10000	5	1	0	5	0
73	754	7	10000	5	1	0	5	0
76	755	7	10000	5	1	0	5	0
76	756	7	10000	5	1	0	5	0
74	757	7	10000	5	1	0	5	0
71	758	7	10000	5	1	0	5	0
69	759	7	10000	5	1	0	5	0
