value	EMG	Stimulus	EMG_sensitivity	Total_Trial_Nr	practise	acq	probe_nr	Startle_Probe
25	1	0	10000	1	1	0	1	0
24	2	0	10000	1	1	0	1	0
22	3	0	10000	1	1	0	1	0
21	4	0	10000	1	1	0	1	0
21	5	0	10000	1	1	0	1	0
21	6	0	10000	1	1	0	1	0
22	7	0	10000	1	1	0	1	0
22	8	0	10000	1	1	0	1	0
23	9	0	10000	1	1	0	1	0
25	10	0	10000	1	1	0	1	0
27	11	0	10000	1	1	0	1	0
28	12	0	10000	1	1	0	1	0
31	13	0	10000	1	1	0	1	0
32	14	0	10000	1	1	0	1	0
31	15	0	10000	1	1	0	1	0
30	16	0	10000	1	1	0	1	0
32	17	0	10000	1	1	0	1	0
31	18	0	10000	1	1	0	1	0
30	19	0	10000	1	1	0	1	0
30	20	0	10000	1	1	0	1	0
29	21	0	10000	1	1	0	1	0
29	22	0	10000	1	1	0	1	0
26	23	0	10000	1	1	0	1	0
26	24	0	10000	1	1	0	1	0
27	25	0	10000	1	1	0	1	0
28	26	0	10000	1	1	0	1	0
28	27	0	10000	1	1	0	1	0
27	28	0	10000	1	1	0	1	0
27	29	0	10000	1	1	0	1	0
26	30	0	10000	1	1	0	1	0
26	31	0	10000	1	1	0	1	0
25	32	0	10000	1	1	0	1	0
27	33	0	10000	1	1	0	1	0
27	34	0	10000	1	1	0	1	0
25	35	0	10000	1	1	0	1	0
25	36	0	10000	1	1	0	1	0
24	37	0	10000	1	1	0	1	0
24	38	0	10000	1	1	0	1	0
23	39	0	10000	1	1	0	1	0
23	40	0	10000	1	1	0	1	0
23	41	0	10000	1	1	0	1	0
22	42	0	10000	1	1	0	1	0
20	43	0	10000	1	1	0	1	0
19	44	0	10000	1	1	0	1	0
20	45	0	10000	1	1	0	1	0
19	46	0	10000	1	1	0	1	0
18	47	0	10000	1	1	0	1	0
18	48	0	10000	1	1	0	1	0
18	49	0	10000	1	1	0	1	0
19	50	0	10000	1	1	0	1	0
20	51	0	10000	1	1	0	1	0
21	52	0	10000	1	1	0	1	0
23	53	0	10000	1	1	0	1	0
22	54	0	10000	1	1	0	1	0
21	55	0	10000	1	1	0	1	0
20	56	0	10000	1	1	0	1	0
19	57	0	10000	1	1	0	1	0
19	58	0	10000	1	1	0	1	0
19	59	0	10000	1	1	0	1	0
19	60	0	10000	1	1	0	1	0
19	61	0	10000	1	1	0	1	0
20	62	0	10000	1	1	0	1	0
18	63	0	10000	1	1	0	1	0
19	64	0	10000	1	1	0	1	0
19	65	0	10000	1	1	0	1	0
20	66	0	10000	1	1	0	1	0
23	67	0	10000	1	1	0	1	0
27	68	0	10000	1	1	0	1	0
32	69	0	10000	1	1	0	1	0
35	70	0	10000	1	1	0	1	0
36	71	0	10000	1	1	0	1	0
36	72	0	10000	1	1	0	1	0
37	73	0	10000	1	1	0	1	0
36	74	0	10000	1	1	0	1	0
35	75	0	10000	1	1	0	1	0
34	76	0	10000	1	1	0	1	0
34	77	0	10000	1	1	0	1	0
33	78	0	10000	1	1	0	1	0
34	79	0	10000	1	1	0	1	0
35	80	0	10000	1	1	0	1	0
37	81	0	10000	1	1	0	1	0
42	82	0	10000	1	1	0	1	0
44	83	0	10000	1	1	0	1	0
49	84	0	10000	1	1	0	1	0
55	85	0	10000	1	1	0	1	0
62	86	0	10000	1	1	0	1	0
68	87	0	10000	1	1	0	1	0
75	88	0	10000	1	1	0	1	0
81	89	0	10000	1	1	0	1	0
88	90	0	10000	1	1	0	1	0
95	91	0	10000	1	1	0	1	0
103	92	0	10000	1	1	0	1	0
113	93	0	10000	1	1	0	1	0
122	94	0	10000	1	1	0	1	0
130	95	0	10000	1	1	0	1	0
137	96	0	10000	1	1	0	1	0
147	97	0	10000	1	1	0	1	0
158	98	0	10000	1	1	0	1	0
166	99	0	10000	1	1	0	1	0
177	100	0	10000	1	1	0	1	0
186	101	0	10000	1	1	0	1	0
197	102	0	10000	1	1	0	1	0
204	103	0	10000	1	1	0	1	0
212	104	0	10000	1	1	0	1	0
218	105	0	10000	1	1	0	1	0
222	106	0	10000	1	1	0	1	0
224	107	0	10000	1	1	0	1	0
226	108	0	10000	1	1	0	1	0
229	109	0	10000	1	1	0	1	0
230	110	0	10000	1	1	0	1	0
233	111	0	10000	1	1	0	1	0
236	112	0	10000	1	1	0	1	0
239	113	0	10000	1	1	0	1	0
239	114	0	10000	1	1	0	1	0
238	115	0	10000	1	1	0	1	0
237	116	0	10000	1	1	0	1	0
237	117	0	10000	1	1	0	1	0
237	118	0	10000	1	1	0	1	0
237	119	0	10000	1	1	0	1	0
238	120	0	10000	1	1	0	1	0
236	121	0	10000	1	1	0	1	0
234	122	0	10000	1	1	0	1	0
230	123	0	10000	1	1	0	1	0
224	124	0	10000	1	1	0	1	0
218	125	0	10000	1	1	0	1	0
212	126	0	10000	1	1	0	1	0
205	127	0	10000	1	1	0	1	0
199	128	0	10000	1	1	0	1	0
192	129	0	10000	1	1	0	1	0
184	130	0	10000	1	1	0	1	0
176	131	0	10000	1	1	0	1	0
168	132	0	10000	1	1	0	1	0
163	133	0	10000	1	1	0	1	0
155	134	0	10000	1	1	0	1	0
150	135	0	10000	1	1	0	1	0
146	136	0	10000	1	1	0	1	0
142	137	0	10000	1	1	0	1	0
139	138	0	10000	1	1	0	1	0
135	139	0	10000	1	1	0	1	0
131	140	0	10000	1	1	0	1	0
129	141	0	10000	1	1	0	1	0
128	142	0	10000	1	1	0	1	0
126	143	0	10000	1	1	0	1	0
128	144	0	10000	1	1	0	1	0
133	145	0	10000	1	1	0	1	0
138	146	0	10000	1	1	0	1	0
144	147	0	10000	1	1	0	1	0
149	148	0	10000	1	1	0	1	0
152	149	0	10000	1	1	0	1	0
156	150	0	10000	1	1	0	1	0
159	151	0	10000	1	1	0	1	0
163	152	0	10000	1	1	0	1	0
169	153	0	10000	1	1	0	1	0
174	154	0	10000	1	1	0	1	0
179	155	0	10000	1	1	0	1	0
183	156	0	10000	1	1	0	1	0
188	157	0	10000	1	1	0	1	0
191	158	0	10000	1	1	0	1	0
195	159	0	10000	1	1	0	1	0
200	160	0	10000	1	1	0	1	0
204	161	0	10000	1	1	0	1	0
210	162	0	10000	1	1	0	1	0
214	163	0	10000	1	1	0	1	0
220	164	0	10000	1	1	0	1	0
227	165	0	10000	1	1	0	1	0
235	166	0	10000	1	1	0	1	0
245	167	0	10000	1	1	0	1	0
256	168	0	10000	1	1	0	1	0
268	169	0	10000	1	1	0	1	0
278	170	0	10000	1	1	0	1	0
287	171	0	10000	1	1	0	1	0
295	172	0	10000	1	1	0	1	0
306	173	0	10000	1	1	0	1	0
312	174	0	10000	1	1	0	1	0
319	175	0	10000	1	1	0	1	0
326	176	0	10000	1	1	0	1	0
334	177	0	10000	1	1	0	1	0
345	178	0	10000	1	1	0	1	0
353	179	0	10000	1	1	0	1	0
359	180	0	10000	1	1	0	1	0
363	181	0	10000	1	1	0	1	0
364	182	0	10000	1	1	0	1	0
359	183	0	10000	1	1	0	1	0
347	184	0	10000	1	1	0	1	0
332	185	0	10000	1	1	0	1	0
321	186	0	10000	1	1	0	1	0
319	187	0	10000	1	1	0	1	0
324	188	0	10000	1	1	0	1	0
317	189	0	10000	1	1	0	1	0
305	190	0	10000	1	1	0	1	0
306	191	0	10000	1	1	0	1	0
313	192	0	10000	1	1	0	1	0
326	193	0	10000	1	1	0	1	0
338	194	0	10000	1	1	0	1	0
348	195	0	10000	1	1	0	1	0
355	196	0	10000	1	1	0	1	0
362	197	0	10000	1	1	0	1	0
365	198	0	10000	1	1	0	1	0
365	199	0	10000	1	1	0	1	0
363	200	0	10000	1	1	0	1	0
358	201	0	10000	1	1	0	1	0
353	202	0	10000	1	1	0	1	0
345	203	0	10000	1	1	0	1	0
338	204	0	10000	1	1	0	1	0
329	205	0	10000	1	1	0	1	0
321	206	0	10000	1	1	0	1	0
311	207	0	10000	1	1	0	1	0
299	208	0	10000	1	1	0	1	0
288	209	0	10000	1	1	0	1	0
276	210	0	10000	1	1	0	1	0
265	211	0	10000	1	1	0	1	0
254	212	0	10000	1	1	0	1	0
244	213	0	10000	1	1	0	1	0
234	214	0	10000	1	1	0	1	0
223	215	0	10000	1	1	0	1	0
214	216	0	10000	1	1	0	1	0
206	217	0	10000	1	1	0	1	0
197	218	0	10000	1	1	0	1	0
189	219	0	10000	1	1	0	1	0
181	220	0	10000	1	1	0	1	0
174	221	0	10000	1	1	0	1	0
166	222	0	10000	1	1	0	1	0
157	223	0	10000	1	1	0	1	0
150	224	0	10000	1	1	0	1	0
144	225	0	10000	1	1	0	1	0
140	226	0	10000	1	1	0	1	0
136	227	0	10000	1	1	0	1	0
129	228	0	10000	1	1	0	1	0
126	229	0	10000	1	1	0	1	0
118	230	0	10000	1	1	0	1	0
113	231	0	10000	1	1	0	1	0
109	232	0	10000	1	1	0	1	0
105	233	0	10000	1	1	0	1	0
101	234	0	10000	1	1	0	1	0
99	235	0	10000	1	1	0	1	0
96	236	0	10000	1	1	0	1	0
95	237	0	10000	1	1	0	1	0
93	238	0	10000	1	1	0	1	0
91	239	0	10000	1	1	0	1	0
88	240	0	10000	1	1	0	1	0
86	241	0	10000	1	1	0	1	0
85	242	0	10000	1	1	0	1	0
80	243	0	10000	1	1	0	1	0
77	244	0	10000	1	1	0	1	0
75	245	0	10000	1	1	0	1	0
72	246	0	10000	1	1	0	1	0
70	247	0	10000	1	1	0	1	0
68	248	0	10000	1	1	0	1	0
66	249	0	10000	1	1	0	1	0
64	250	0	10000	1	1	0	1	0
62	251	0	10000	1	1	0	1	0
61	252	0	10000	1	1	0	1	0
63	253	0	10000	1	1	0	1	0
63	254	0	10000	1	1	0	1	0
61	255	0	10000	1	1	0	1	0
62	256	0	10000	1	1	0	1	0
62	257	0	10000	1	1	0	1	0
61	258	0	10000	1	1	0	1	0
62	259	0	10000	1	1	0	1	0
64	260	0	10000	1	1	0	1	0
65	261	0	10000	1	1	0	1	0
66	262	0	10000	1	1	0	1	0
65	263	0	10000	1	1	0	1	0
63	264	0	10000	1	1	0	1	0
61	265	0	10000	1	1	0	1	0
59	266	0	10000	1	1	0	1	0
58	267	0	10000	1	1	0	1	0
56	268	0	10000	1	1	0	1	0
56	269	0	10000	1	1	0	1	0
56	270	0	10000	1	1	0	1	0
56	271	0	10000	1	1	0	1	0
57	272	0	10000	1	1	0	1	0
63	273	0	10000	1	1	0	1	0
64	274	0	10000	1	1	0	1	0
65	275	0	10000	1	1	0	1	0
63	276	0	10000	1	1	0	1	0
62	277	0	10000	1	1	0	1	0
62	278	0	10000	1	1	0	1	0
62	279	0	10000	1	1	0	1	0
63	280	0	10000	1	1	0	1	0
64	281	0	10000	1	1	0	1	0
67	282	0	10000	1	1	0	1	0
63	283	0	10000	1	1	0	1	0
61	284	0	10000	1	1	0	1	0
61	285	0	10000	1	1	0	1	0
58	286	0	10000	1	1	0	1	0
56	287	0	10000	1	1	0	1	0
55	288	0	10000	1	1	0	1	0
55	289	0	10000	1	1	0	1	0
55	290	0	10000	1	1	0	1	0
57	291	0	10000	1	1	0	1	0
58	292	0	10000	1	1	0	1	0
60	293	0	10000	1	1	0	1	0
60	294	0	10000	1	1	0	1	0
59	295	0	10000	1	1	0	1	0
57	296	0	10000	1	1	0	1	0
57	297	0	10000	1	1	0	1	0
58	298	0	10000	1	1	0	1	0
58	299	0	10000	1	1	0	1	0
61	300	0	10000	1	1	0	1	0
61	301	0	10000	1	1	0	1	0
61	302	0	10000	1	1	0	1	0
59	303	0	10000	1	1	0	1	0
59	304	0	10000	1	1	0	1	0
59	305	0	10000	1	1	0	1	0
58	306	0	10000	1	1	0	1	0
56	307	0	10000	1	1	0	1	0
55	308	0	10000	1	1	0	1	0
55	309	0	10000	1	1	0	1	0
54	310	0	10000	1	1	0	1	0
52	311	0	10000	1	1	0	1	0
51	312	0	10000	1	1	0	1	0
53	313	0	10000	1	1	0	1	0
55	314	0	10000	1	1	0	1	0
56	315	0	10000	1	1	0	1	0
55	316	0	10000	1	1	0	1	0
56	317	0	10000	1	1	0	1	0
56	318	0	10000	1	1	0	1	0
56	319	0	10000	1	1	0	1	0
59	320	0	10000	1	1	0	1	0
60	321	0	10000	1	1	0	1	0
59	322	0	10000	1	1	0	1	0
56	323	0	10000	1	1	0	1	0
55	324	0	10000	1	1	0	1	0
53	325	0	10000	1	1	0	1	0
52	326	0	10000	1	1	0	1	0
50	327	0	10000	1	1	0	1	0
48	328	0	10000	1	1	0	1	0
47	329	0	10000	1	1	0	1	0
44	330	0	10000	1	1	0	1	0
44	331	0	10000	1	1	0	1	0
46	332	0	10000	1	1	0	1	0
50	333	0	10000	1	1	0	1	0
52	334	0	10000	1	1	0	1	0
53	335	0	10000	1	1	0	1	0
52	336	0	10000	1	1	0	1	0
51	337	0	10000	1	1	0	1	0
49	338	0	10000	1	1	0	1	0
47	339	0	10000	1	1	0	1	0
47	340	0	10000	1	1	0	1	0
49	341	0	10000	1	1	0	1	0
51	342	0	10000	1	1	0	1	0
50	343	0	10000	1	1	0	1	0
51	344	0	10000	1	1	0	1	0
51	345	0	10000	1	1	0	1	0
49	346	0	10000	1	1	0	1	0
47	347	0	10000	1	1	0	1	0
45	348	0	10000	1	1	0	1	0
44	349	0	10000	1	1	0	1	0
44	350	0	10000	1	1	0	1	0
43	351	0	10000	1	1	0	1	0
42	352	0	10000	1	1	0	1	0
44	353	0	10000	1	1	0	1	0
44	354	0	10000	1	1	0	1	0
43	355	0	10000	1	1	0	1	0
42	356	0	10000	1	1	0	1	0
42	357	0	10000	1	1	0	1	0
41	358	0	10000	1	1	0	1	0
41	359	0	10000	1	1	0	1	0
44	360	0	10000	1	1	0	1	0
45	361	0	10000	1	1	0	1	0
45	362	0	10000	1	1	0	1	0
44	363	0	10000	1	1	0	1	0
42	364	0	10000	1	1	0	1	0
42	365	0	10000	1	1	0	1	0
42	366	0	10000	1	1	0	1	0
42	367	0	10000	1	1	0	1	0
42	368	0	10000	1	1	0	1	0
42	369	0	10000	1	1	0	1	0
41	370	0	10000	1	1	0	1	0
40	371	0	10000	1	1	0	1	0
38	372	0	10000	1	1	0	1	0
39	373	0	10000	1	1	0	1	0
38	374	0	10000	1	1	0	1	0
37	375	0	10000	1	1	0	1	0
37	376	0	10000	1	1	0	1	0
36	377	0	10000	1	1	0	1	0
37	378	0	10000	1	1	0	1	0
37	379	0	10000	1	1	0	1	0
38	380	0	10000	1	1	0	1	0
39	381	0	10000	1	1	0	1	0
39	382	0	10000	1	1	0	1	0
35	383	0	10000	1	1	0	1	0
34	384	0	10000	1	1	0	1	0
36	385	0	10000	1	1	0	1	0
36	386	0	10000	1	1	0	1	0
36	387	0	10000	1	1	0	1	0
35	388	0	10000	1	1	0	1	0
34	389	0	10000	1	1	0	1	0
33	390	0	10000	1	1	0	1	0
34	391	0	10000	1	1	0	1	0
35	392	0	10000	1	1	0	1	0
37	393	0	10000	1	1	0	1	0
37	394	0	10000	1	1	0	1	0
36	395	0	10000	1	1	0	1	0
35	396	0	10000	1	1	0	1	0
36	397	0	10000	1	1	0	1	0
36	398	0	10000	1	1	0	1	0
37	399	0	10000	1	1	0	1	0
37	400	0	10000	1	1	0	1	0
36	401	0	10000	1	1	0	1	0
35	402	0	10000	1	1	0	1	0
35	403	0	10000	1	1	0	1	0
36	404	0	10000	1	1	0	1	0
35	405	0	10000	1	1	0	1	0
36	406	0	10000	1	1	0	1	0
36	407	0	10000	1	1	0	1	0
34	408	0	10000	1	1	0	1	0
34	409	0	10000	1	1	0	1	0
35	410	0	10000	1	1	0	1	0
35	411	0	10000	1	1	0	1	0
36	412	0	10000	1	1	0	1	0
39	413	0	10000	1	1	0	1	0
37	414	0	10000	1	1	0	1	0
35	415	0	10000	1	1	0	1	0
35	416	0	10000	1	1	0	1	0
33	417	0	10000	1	1	0	1	0
32	418	0	10000	1	1	0	1	0
36	419	0	10000	1	1	0	1	0
47	420	0	10000	1	1	0	1	0
57	421	0	10000	1	1	0	1	0
56	422	0	10000	1	1	0	1	0
55	423	0	10000	1	1	0	1	0
58	424	0	10000	1	1	0	1	0
58	425	0	10000	1	1	0	1	0
58	426	0	10000	1	1	0	1	0
58	427	0	10000	1	1	0	1	0
62	428	0	10000	1	1	0	1	0
68	429	0	10000	1	1	0	1	0
68	430	0	10000	1	1	0	1	0
70	431	0	10000	1	1	0	1	0
72	432	0	10000	1	1	0	1	0
77	433	0	10000	1	1	0	1	0
90	434	0	10000	1	1	0	1	0
105	435	0	10000	1	1	0	1	0
103	436	0	10000	1	1	0	1	0
101	437	0	10000	1	1	0	1	0
112	438	0	10000	1	1	0	1	0
120	439	0	10000	1	1	0	1	0
131	440	0	10000	1	1	0	1	0
140	441	0	10000	1	1	0	1	0
178	442	0	10000	1	1	0	1	0
212	443	0	10000	1	1	0	1	0
228	444	0	10000	1	1	0	1	0
224	445	0	10000	1	1	0	1	0
234	446	0	10000	1	1	0	1	0
244	447	0	10000	1	1	0	1	0
239	448	0	10000	1	1	0	1	0
247	449	0	10000	1	1	0	1	0
240	450	0	10000	1	1	0	1	0
235	451	0	10000	1	1	0	1	0
229	452	0	10000	1	1	0	1	0
242	453	0	10000	1	1	0	1	0
255	454	0	10000	1	1	0	1	0
263	455	0	10000	1	1	0	1	0
272	456	0	10000	1	1	0	1	0
273	457	0	10000	1	1	0	1	0
266	458	0	10000	1	1	0	1	0
261	459	0	10000	1	1	0	1	0
256	460	0	10000	1	1	0	1	0
249	461	0	10000	1	1	0	1	0
249	462	0	10000	1	1	0	1	0
242	463	0	10000	1	1	0	1	0
255	464	0	10000	1	1	0	1	0
269	465	0	10000	1	1	0	1	0
275	466	0	10000	1	1	0	1	0
275	467	0	10000	1	1	0	1	0
278	468	0	10000	1	1	0	1	0
297	469	0	10000	1	1	0	1	0
296	470	0	10000	1	1	0	1	0
324	471	0	10000	1	1	0	1	0
347	472	0	10000	1	1	0	1	0
339	473	0	10000	1	1	0	1	0
348	474	0	10000	1	1	0	1	0
385	475	0	10000	1	1	0	1	0
413	476	0	10000	1	1	0	1	0
424	477	0	10000	1	1	0	1	0
414	478	0	10000	1	1	0	1	0
395	479	0	10000	1	1	0	1	0
387	480	0	10000	1	1	0	1	0
386	481	0	10000	1	1	0	1	0
389	482	0	10000	1	1	0	1	0
387	483	0	10000	1	1	0	1	0
371	484	0	10000	1	1	0	1	0
357	485	0	10000	1	1	0	1	0
349	486	0	10000	1	1	0	1	0
337	487	0	10000	1	1	0	1	0
324	488	0	10000	1	1	0	1	0
311	489	0	10000	1	1	0	1	0
299	490	0	10000	1	1	0	1	0
294	491	0	10000	1	1	0	1	0
281	492	0	10000	1	1	0	1	0
275	493	0	10000	1	1	0	1	0
271	494	0	10000	1	1	0	1	0
268	495	0	10000	1	1	0	1	0
261	496	0	10000	1	1	0	1	0
251	497	0	10000	1	1	0	1	0
245	498	0	10000	1	1	0	1	0
241	499	0	10000	1	1	0	1	0
237	500	0	10000	1	1	0	1	0
232	567	0	10000	1	1	0	1	1
222	568	0	10000	1	1	0	1	1
211	569	0	10000	1	1	0	1	1
202	570	0	10000	1	1	0	1	1
195	571	0	10000	1	1	0	1	1
190	572	0	10000	1	1	0	1	1
189	573	0	10000	1	1	0	1	1
188	574	0	10000	1	1	0	1	1
190	575	0	10000	1	1	0	1	1
191	576	0	10000	1	1	0	1	1
193	577	0	10000	1	1	0	1	1
196	578	0	10000	1	1	0	1	1
201	579	0	10000	1	1	0	1	1
202	580	0	10000	1	1	0	1	1
200	581	0	10000	1	1	0	1	1
199	582	0	10000	1	1	0	1	1
198	583	0	10000	1	1	0	1	1
200	584	0	10000	1	1	0	1	1
205	585	0	10000	1	1	0	1	1
210	586	0	10000	1	1	0	1	1
214	587	0	10000	1	1	0	1	1
217	588	0	10000	1	1	0	1	1
214	589	0	10000	1	1	0	1	1
212	590	0	10000	1	1	0	1	1
209	591	0	10000	1	1	0	1	1
203	592	0	10000	1	1	0	1	1
200	593	0	10000	1	1	0	1	1
202	594	0	10000	1	1	0	1	1
206	595	0	10000	1	1	0	1	1
210	596	0	10000	1	1	0	1	1
214	597	0	10000	1	1	0	1	1
217	598	0	10000	1	1	0	1	1
219	599	0	10000	1	1	0	1	1
219	600	0	10000	1	1	0	1	1
221	601	0	10000	1	1	0	1	1
224	602	0	10000	1	1	0	1	1
227	603	0	10000	1	1	0	1	1
230	604	0	10000	1	1	0	1	1
233	605	0	10000	1	1	0	1	1
235	606	0	10000	1	1	0	1	1
237	607	0	10000	1	1	0	1	1
237	608	0	10000	1	1	0	1	1
234	609	0	10000	1	1	0	1	1
234	610	0	10000	1	1	0	1	1
233	611	0	10000	1	1	0	1	1
233	612	0	10000	1	1	0	1	1
234	613	0	10000	1	1	0	1	1
235	614	0	10000	1	1	0	1	1
237	615	0	10000	1	1	0	1	1
240	616	0	10000	1	1	0	1	1
242	617	0	10000	1	1	0	1	1
243	618	0	10000	1	1	0	1	1
246	619	0	10000	1	1	0	1	1
246	620	0	10000	1	1	0	1	1
245	621	0	10000	1	1	0	1	1
245	622	0	10000	1	1	0	1	1
246	623	0	10000	1	1	0	1	1
249	624	0	10000	1	1	0	1	1
252	625	0	10000	1	1	0	1	1
254	626	0	10000	1	1	0	1	1
254	627	0	10000	1	1	0	1	1
253	628	0	10000	1	1	0	1	1
250	629	0	10000	1	1	0	1	1
247	630	0	10000	1	1	0	1	1
245	631	0	10000	1	1	0	1	1
242	632	0	10000	1	1	0	1	1
237	633	0	10000	1	1	0	1	1
234	634	0	10000	1	1	0	1	1
231	577	0	10000	1	1	0	1	0
228	578	0	10000	1	1	0	1	0
226	579	0	10000	1	1	0	1	0
225	580	0	10000	1	1	0	1	0
223	581	0	10000	1	1	0	1	0
222	582	0	10000	1	1	0	1	0
222	583	0	10000	1	1	0	1	0
219	584	0	10000	1	1	0	1	0
214	585	0	10000	1	1	0	1	0
210	586	0	10000	1	1	0	1	0
207	579	0	10000	1	1	0	1	0
205	580	0	10000	1	1	0	1	0
201	581	0	10000	1	1	0	1	0
198	582	0	10000	1	1	0	1	0
191	583	0	10000	1	1	0	1	0
185	584	0	10000	1	1	0	1	0
179	585	0	10000	1	1	0	1	0
173	586	0	10000	1	1	0	1	0
167	587	0	10000	1	1	0	1	0
160	588	0	10000	1	1	0	1	0
155	589	0	10000	1	1	0	1	0
150	590	0	10000	1	1	0	1	0
146	591	0	10000	1	1	0	1	0
141	592	0	10000	1	1	0	1	0
138	593	0	10000	1	1	0	1	0
135	594	0	10000	1	1	0	1	0
131	595	0	10000	1	1	0	1	0
127	596	0	10000	1	1	0	1	0
123	597	0	10000	1	1	0	1	0
117	598	0	10000	1	1	0	1	0
112	599	0	10000	1	1	0	1	0
109	600	0	10000	1	1	0	1	0
106	601	0	10000	1	1	0	1	0
104	602	0	10000	1	1	0	1	0
100	603	0	10000	1	1	0	1	0
97	604	0	10000	1	1	0	1	0
93	605	0	10000	1	1	0	1	0
89	606	0	10000	1	1	0	1	0
87	607	0	10000	1	1	0	1	0
85	608	0	10000	1	1	0	1	0
81	609	0	10000	1	1	0	1	0
77	610	0	10000	1	1	0	1	0
74	611	0	10000	1	1	0	1	0
70	612	0	10000	1	1	0	1	0
69	613	0	10000	1	1	0	1	0
67	614	0	10000	1	1	0	1	0
64	615	0	10000	1	1	0	1	0
62	616	0	10000	1	1	0	1	0
61	617	0	10000	1	1	0	1	0
59	618	0	10000	1	1	0	1	0
57	619	0	10000	1	1	0	1	0
55	620	0	10000	1	1	0	1	0
53	621	0	10000	1	1	0	1	0
52	622	0	10000	1	1	0	1	0
48	623	0	10000	1	1	0	1	0
46	624	0	10000	1	1	0	1	0
45	625	0	10000	1	1	0	1	0
45	626	0	10000	1	1	0	1	0
46	627	0	10000	1	1	0	1	0
47	628	0	10000	1	1	0	1	0
48	629	0	10000	1	1	0	1	0
47	630	0	10000	1	1	0	1	0
45	631	0	10000	1	1	0	1	0
45	632	0	10000	1	1	0	1	0
46	633	0	10000	1	1	0	1	0
45	634	0	10000	1	1	0	1	0
44	635	0	10000	1	1	0	1	0
44	636	0	10000	1	1	0	1	0
42	637	0	10000	1	1	0	1	0
41	638	0	10000	1	1	0	1	0
40	639	0	10000	1	1	0	1	0
40	640	0	10000	1	1	0	1	0
41	641	0	10000	1	1	0	1	0
41	642	0	10000	1	1	0	1	0
39	643	0	10000	1	1	0	1	0
39	644	0	10000	1	1	0	1	0
39	645	0	10000	1	1	0	1	0
40	646	0	10000	1	1	0	1	0
41	647	0	10000	1	1	0	1	0
42	648	0	10000	1	1	0	1	0
42	649	0	10000	1	1	0	1	0
42	650	0	10000	1	1	0	1	0
40	651	0	10000	1	1	0	1	0
39	652	0	10000	1	1	0	1	0
42	653	0	10000	1	1	0	1	0
42	654	0	10000	1	1	0	1	0
42	655	0	10000	1	1	0	1	0
41	656	0	10000	1	1	0	1	0
39	657	0	10000	1	1	0	1	0
37	658	0	10000	1	1	0	1	0
36	659	0	10000	1	1	0	1	0
37	660	0	10000	1	1	0	1	0
40	661	0	10000	1	1	0	1	0
42	662	0	10000	1	1	0	1	0
40	663	0	10000	1	1	0	1	0
42	664	0	10000	1	1	0	1	0
43	665	0	10000	1	1	0	1	0
44	666	0	10000	1	1	0	1	0
48	667	0	10000	1	1	0	1	0
54	668	0	10000	1	1	0	1	0
64	669	0	10000	1	1	0	1	0
83	670	0	10000	1	1	0	1	0
85	671	0	10000	1	1	0	1	0
90	672	0	10000	1	1	0	1	0
94	673	0	10000	1	1	0	1	0
97	674	0	10000	1	1	0	1	0
101	675	0	10000	1	1	0	1	0
109	676	0	10000	1	1	0	1	0
118	677	0	10000	1	1	0	1	0
126	678	0	10000	1	1	0	1	0
130	679	0	10000	1	1	0	1	0
129	680	0	10000	1	1	0	1	0
142	681	0	10000	1	1	0	1	0
169	682	0	10000	1	1	0	1	0
198	683	0	10000	1	1	0	1	0
201	684	0	10000	1	1	0	1	0
221	685	0	10000	1	1	0	1	0
229	686	0	10000	1	1	0	1	0
225	687	0	10000	1	1	0	1	0
231	688	0	10000	1	1	0	1	0
241	689	0	10000	1	1	0	1	0
244	690	0	10000	1	1	0	1	0
236	691	0	10000	1	1	0	1	0
231	692	0	10000	1	1	0	1	0
229	693	0	10000	1	1	0	1	0
230	694	0	10000	1	1	0	1	0
247	695	0	10000	1	1	0	1	0
255	696	0	10000	1	1	0	1	0
245	697	0	10000	1	1	0	1	0
236	698	0	10000	1	1	0	1	0
226	699	0	10000	1	1	0	1	0
223	700	0	10000	1	1	0	1	0
220	701	0	10000	1	1	0	1	0
213	702	0	10000	1	1	0	1	0
205	703	0	10000	1	1	0	1	0
198	704	0	10000	1	1	0	1	0
191	705	0	10000	1	1	0	1	0
186	706	0	10000	1	1	0	1	0
182	707	0	10000	1	1	0	1	0
184	708	0	10000	1	1	0	1	0
188	709	0	10000	1	1	0	1	0
189	710	0	10000	1	1	0	1	0
193	711	0	10000	1	1	0	1	0
193	712	0	10000	1	1	0	1	0
191	713	0	10000	1	1	0	1	0
185	714	0	10000	1	1	0	1	0
186	715	0	10000	1	1	0	1	0
182	716	0	10000	1	1	0	1	0
174	717	0	10000	1	1	0	1	0
168	718	0	10000	1	1	0	1	0
166	719	0	10000	1	1	0	1	0
169	720	0	10000	1	1	0	1	0
170	721	0	10000	1	1	0	1	0
172	722	0	10000	1	1	0	1	0
170	723	0	10000	1	1	0	1	0
168	724	0	10000	1	1	0	1	0
163	725	0	10000	1	1	0	1	0
156	726	0	10000	1	1	0	1	0
152	727	0	10000	1	1	0	1	0
150	728	0	10000	1	1	0	1	0
150	729	0	10000	1	1	0	1	0
149	730	0	10000	1	1	0	1	0
149	731	0	10000	1	1	0	1	0
145	732	0	10000	1	1	0	1	0
144	733	0	10000	1	1	0	1	0
140	734	0	10000	1	1	0	1	0
134	735	0	10000	1	1	0	1	0
128	736	0	10000	1	1	0	1	0
122	737	0	10000	1	1	0	1	0
117	738	0	10000	1	1	0	1	0
114	739	0	10000	1	1	0	1	0
115	740	0	10000	1	1	0	1	0
114	741	0	10000	1	1	0	1	0
111	742	0	10000	1	1	0	1	0
107	743	0	10000	1	1	0	1	0
104	744	0	10000	1	1	0	1	0
106	745	0	10000	1	1	0	1	0
111	746	0	10000	1	1	0	1	0
117	747	0	10000	1	1	0	1	0
123	748	0	10000	1	1	0	1	0
126	749	0	10000	1	1	0	1	0
126	750	0	10000	1	1	0	1	0
124	751	0	10000	1	1	0	1	0
120	752	0	10000	1	1	0	1	0
118	753	0	10000	1	1	0	1	0
115	754	0	10000	1	1	0	1	0
111	755	0	10000	1	1	0	1	0
107	756	0	10000	1	1	0	1	0
102	757	0	10000	1	1	0	1	0
99	758	0	10000	1	1	0	1	0
107	759	0	10000	1	1	0	1	0
116	760	0	10000	1	1	0	1	0
118	761	0	10000	1	1	0	1	0
117	762	0	10000	1	1	0	1	0
121	763	0	10000	1	1	0	1	0
128	764	0	10000	1	1	0	1	0
130	765	0	10000	1	1	0	1	0
130	766	0	10000	1	1	0	1	0
128	767	0	10000	1	1	0	1	0
123	768	0	10000	1	1	0	1	0
120	769	0	10000	1	1	0	1	0
114	770	0	10000	1	1	0	1	0
109	771	0	10000	1	1	0	1	0
105	772	0	10000	1	1	0	1	0
103	773	0	10000	1	1	0	1	0
98	774	0	10000	1	1	0	1	0
94	775	0	10000	1	1	0	1	0
92	776	0	10000	1	1	0	1	0
88	777	0	10000	1	1	0	1	0
86	778	0	10000	1	1	0	1	0
84	779	0	10000	1	1	0	1	0
83	780	0	10000	1	1	0	1	0
80	781	0	10000	1	1	0	1	0
80	782	0	10000	1	1	0	1	0
76	783	0	10000	1	1	0	1	0
73	784	0	10000	1	1	0	1	0
71	785	0	10000	1	1	0	1	0
69	786	0	10000	1	1	0	1	0
67	787	0	10000	1	1	0	1	0
63	788	0	10000	1	1	0	1	0
61	789	0	10000	1	1	0	1	0
58	790	0	10000	1	1	0	1	0
55	791	0	10000	1	1	0	1	0
53	792	0	10000	1	1	0	1	0
52	793	0	10000	1	1	0	1	0
50	794	0	10000	1	1	0	1	0
50	795	0	10000	1	1	0	1	0
51	796	0	10000	1	1	0	1	0
53	797	0	10000	1	1	0	1	0
52	798	0	10000	1	1	0	1	0
51	799	0	10000	1	1	0	1	0
49	800	0	10000	1	1	0	1	0
48	801	0	10000	1	1	0	1	0
47	802	0	10000	1	1	0	1	0
46	803	0	10000	1	1	0	1	0
44	804	0	10000	1	1	0	1	0
43	805	0	10000	1	1	0	1	0
41	806	0	10000	1	1	0	1	0
39	807	0	10000	1	1	0	1	0
37	808	0	10000	1	1	0	1	0
38	809	0	10000	1	1	0	1	0
36	810	0	10000	1	1	0	1	0
35	811	0	10000	1	1	0	1	0
36	812	0	10000	1	1	0	1	0
37	813	0	10000	1	1	0	1	0
37	814	0	10000	1	1	0	1	0
36	815	0	10000	1	1	0	1	0
35	816	0	10000	1	1	0	1	0
35	817	0	10000	1	1	0	1	0
37	818	0	10000	1	1	0	1	0
38	819	0	10000	1	1	0	1	0
39	820	0	10000	1	1	0	1	0
37	821	0	10000	1	1	0	1	0
36	822	0	10000	1	1	0	1	0
33	823	0	10000	1	1	0	1	0
32	824	0	10000	1	1	0	1	0
33	825	0	10000	1	1	0	1	0
34	826	0	10000	1	1	0	1	0
34	827	0	10000	1	1	0	1	0
35	828	0	10000	1	1	0	1	0
35	829	0	10000	1	1	0	1	0
34	830	0	10000	1	1	0	1	0
32	831	0	10000	1	1	0	1	0
32	832	0	10000	1	1	0	1	0
34	833	0	10000	1	1	0	1	0
37	834	0	10000	1	1	0	1	0
38	835	0	10000	1	1	0	1	0
38	836	0	10000	1	1	0	1	0
40	837	0	10000	1	1	0	1	0
38	838	0	10000	1	1	0	1	0
37	839	0	10000	1	1	0	1	0
38	840	0	10000	1	1	0	1	0
37	841	0	10000	1	1	0	1	0
36	842	0	10000	1	1	0	1	0
34	843	0	10000	1	1	0	1	0
33	844	0	10000	1	1	0	1	0
33	845	0	10000	1	1	0	1	0
32	846	0	10000	1	1	0	1	0
32	847	0	10000	1	1	0	1	0
32	848	0	10000	1	1	0	1	0
31	849	0	10000	1	1	0	1	0
30	850	0	10000	1	1	0	1	0
28	851	0	10000	1	1	0	1	0
27	852	0	10000	1	1	0	1	0
29	853	0	10000	1	1	0	1	0
29	854	0	10000	1	1	0	1	0
29	855	0	10000	1	1	0	1	0
28	856	0	10000	1	1	0	1	0
27	857	0	10000	1	1	0	1	0
27	858	0	10000	1	1	0	1	0
26	859	0	10000	1	1	0	1	0
25	860	0	10000	1	1	0	1	0
26	861	0	10000	1	1	0	1	0
27	862	0	10000	1	1	0	1	0
25	863	0	10000	1	1	0	1	0
24	864	0	10000	1	1	0	1	0
24	865	0	10000	1	1	0	1	0
23	866	0	10000	1	1	0	1	0
24	867	0	10000	1	1	0	1	0
24	868	0	10000	1	1	0	1	0
24	869	0	10000	1	1	0	1	0
23	870	0	10000	1	1	0	1	0
24	871	0	10000	1	1	0	1	0
26	872	0	10000	1	1	0	1	0
29	873	0	10000	1	1	0	1	0
28	874	0	10000	1	1	0	1	0
28	875	0	10000	1	1	0	1	0
28	876	0	10000	1	1	0	1	0
27	877	0	10000	1	1	0	1	0
28	878	0	10000	1	1	0	1	0
29	879	0	10000	1	1	0	1	0
29	880	0	10000	1	1	0	1	0
28	881	0	10000	1	1	0	1	0
29	882	0	10000	1	1	0	1	0
26	883	0	10000	1	1	0	1	0
27	884	0	10000	1	1	0	1	0
26	885	0	10000	1	1	0	1	0
25	886	0	10000	1	1	0	1	0
27	887	0	10000	1	1	0	1	0
27	888	0	10000	1	1	0	1	0
26	889	0	10000	1	1	0	1	0
26	890	0	10000	1	1	0	1	0
25	891	0	10000	1	1	0	1	0
24	892	0	10000	1	1	0	1	0
26	893	0	10000	1	1	0	1	0
26	894	0	10000	1	1	0	1	0
26	895	0	10000	1	1	0	1	0
25	896	0	10000	1	1	0	1	0
24	897	0	10000	1	1	0	1	0
23	898	0	10000	1	1	0	1	0
22	899	0	10000	1	1	0	1	0
23	900	0	10000	1	1	0	1	0
23	901	0	10000	1	1	0	1	0
23	902	0	10000	1	1	0	1	0
20	903	0	10000	1	1	0	1	0
19	904	0	10000	1	1	0	1	0
20	905	0	10000	1	1	0	1	0
20	906	0	10000	1	1	0	1	0
20	907	0	10000	1	1	0	1	0
20	908	0	10000	1	1	0	1	0
19	909	0	10000	1	1	0	1	0
20	910	0	10000	1	1	0	1	0
19	911	0	10000	1	1	0	1	0
21	912	0	10000	1	1	0	1	0
25	913	0	10000	1	1	0	1	0
26	914	0	10000	1	1	0	1	0
26	915	0	10000	1	1	0	1	0
25	916	0	10000	1	1	0	1	0
24	917	0	10000	1	1	0	1	0
24	918	0	10000	1	1	0	1	0
23	919	0	10000	1	1	0	1	0
24	920	0	10000	1	1	0	1	0
24	921	0	10000	1	1	0	1	0
25	922	0	10000	1	1	0	1	0
26	923	0	10000	1	1	0	1	0
29	924	0	10000	1	1	0	1	0
29	925	0	10000	1	1	0	1	0
30	926	0	10000	1	1	0	1	0
31	927	0	10000	1	1	0	1	0
30	928	0	10000	1	1	0	1	0
30	929	0	10000	1	1	0	1	0
29	930	0	10000	1	1	0	1	0
28	931	0	10000	1	1	0	1	0
26	932	0	10000	1	1	0	1	0
27	933	0	10000	1	1	0	1	0
27	934	0	10000	1	1	0	1	0
25	935	0	10000	1	1	0	1	0
24	936	0	10000	1	1	0	1	0
25	937	0	10000	1	1	0	1	0
24	938	0	10000	1	1	0	1	0
24	939	0	10000	1	1	0	1	0
23	940	0	10000	1	1	0	1	0
23	941	0	10000	1	1	0	1	0
23	942	0	10000	1	1	0	1	0
21	943	0	10000	1	1	0	1	0
21	944	0	10000	1	1	0	1	0
22	945	0	10000	1	1	0	1	0
24	946	0	10000	1	1	0	1	0
23	947	0	10000	1	1	0	1	0
23	948	0	10000	1	1	0	1	0
23	949	0	10000	1	1	0	1	0
22	950	0	10000	1	1	0	1	0
21	951	0	10000	1	1	0	1	0
20	952	0	10000	1	1	0	1	0
22	953	0	10000	1	1	0	1	0
23	954	0	10000	1	1	0	1	0
23	955	0	10000	1	1	0	1	0
24	956	0	10000	1	1	0	1	0
23	957	0	10000	1	1	0	1	0
23	958	0	10000	1	1	0	1	0
21	959	0	10000	1	1	0	1	0
21	960	0	10000	1	1	0	1	0
21	961	0	10000	1	1	0	1	0
21	962	0	10000	1	1	0	1	0
19	963	0	10000	1	1	0	1	0
18	964	0	10000	1	1	0	1	0
20	965	0	10000	1	1	0	1	0
20	966	0	10000	1	1	0	1	0
23	967	0	10000	1	1	0	1	0
27	968	0	10000	1	1	0	1	0
28	969	0	10000	1	1	0	1	0
29	970	0	10000	1	1	0	1	0
30	971	0	10000	1	1	0	1	0
28	972	0	10000	1	1	0	1	0
30	973	0	10000	1	1	0	1	0
31	974	0	10000	1	1	0	1	0
31	975	0	10000	1	1	0	1	0
30	976	0	10000	1	1	0	1	0
30	977	0	10000	1	1	0	1	0
30	978	0	10000	1	1	0	1	0
29	979	0	10000	1	1	0	1	0
29	980	0	10000	1	1	0	1	0
28	981	0	10000	1	1	0	1	0
28	982	0	10000	1	1	0	1	0
26	983	0	10000	1	1	0	1	0
26	984	0	10000	1	1	0	1	0
26	985	0	10000	1	1	0	1	0
25	986	0	10000	1	1	0	1	0
25	987	0	10000	1	1	0	1	0
24	988	0	10000	1	1	0	1	0
25	989	0	10000	1	1	0	1	0
23	990	0	10000	1	1	0	1	0
23	991	0	10000	1	1	0	1	0
22	992	0	10000	1	1	0	1	0
24	993	0	10000	1	1	0	1	0
23	994	0	10000	1	1	0	1	0
22	995	0	10000	1	1	0	1	0
22	996	0	10000	1	1	0	1	0
20	997	0	10000	1	1	0	1	0
20	998	0	10000	1	1	0	1	0
19	999	0	10000	1	1	0	1	0
18	1000	0	10000	1	1	0	1	0
267	2	7	10000	2	1	0	2	0
272	3	7	10000	2	1	0	2	0
277	4	7	10000	2	1	0	2	0
283	5	7	10000	2	1	0	2	0
288	6	7	10000	2	1	0	2	0
295	7	7	10000	2	1	0	2	0
298	8	7	10000	2	1	0	2	0
300	9	7	10000	2	1	0	2	0
303	10	7	10000	2	1	0	2	0
305	11	7	10000	2	1	0	2	0
307	12	7	10000	2	1	0	2	0
307	13	7	10000	2	1	0	2	0
309	14	7	10000	2	1	0	2	0
313	15	7	10000	2	1	0	2	0
318	16	7	10000	2	1	0	2	0
323	17	7	10000	2	1	0	2	0
328	18	7	10000	2	1	0	2	0
335	19	7	10000	2	1	0	2	0
340	20	7	10000	2	1	0	2	0
343	21	7	10000	2	1	0	2	0
346	22	7	10000	2	1	0	2	0
352	23	7	10000	2	1	0	2	0
354	24	7	10000	2	1	0	2	0
355	25	7	10000	2	1	0	2	0
357	26	7	10000	2	1	0	2	0
356	27	7	10000	2	1	0	2	0
357	28	7	10000	2	1	0	2	0
356	29	7	10000	2	1	0	2	0
355	30	7	10000	2	1	0	2	0
354	31	7	10000	2	1	0	2	0
352	32	7	10000	2	1	0	2	0
349	33	7	10000	2	1	0	2	0
348	34	7	10000	2	1	0	2	0
347	35	7	10000	2	1	0	2	0
345	36	7	10000	2	1	0	2	0
341	37	7	10000	2	1	0	2	0
337	38	7	10000	2	1	0	2	0
333	39	7	10000	2	1	0	2	0
328	40	7	10000	2	1	0	2	0
321	41	7	10000	2	1	0	2	0
313	42	7	10000	2	1	0	2	0
309	43	7	10000	2	1	0	2	0
304	44	7	10000	2	1	0	2	0
298	45	7	10000	2	1	0	2	0
290	46	7	10000	2	1	0	2	0
282	47	7	10000	2	1	0	2	0
276	48	7	10000	2	1	0	2	0
267	49	7	10000	2	1	0	2	0
259	50	7	10000	2	1	0	2	0
251	51	7	10000	2	1	0	2	0
240	52	7	10000	2	1	0	2	0
230	53	7	10000	2	1	0	2	0
220	54	7	10000	2	1	0	2	0
211	55	7	10000	2	1	0	2	0
202	56	7	10000	2	1	0	2	0
193	57	7	10000	2	1	0	2	0
185	58	7	10000	2	1	0	2	0
177	59	7	10000	2	1	0	2	0
170	60	7	10000	2	1	0	2	0
163	61	7	10000	2	1	0	2	0
156	62	7	10000	2	1	0	2	0
152	63	7	10000	2	1	0	2	0
146	64	7	10000	2	1	0	2	0
140	65	7	10000	2	1	0	2	0
134	66	7	10000	2	1	0	2	0
129	67	7	10000	2	1	0	2	0
125	68	7	10000	2	1	0	2	0
121	69	7	10000	2	1	0	2	0
117	70	7	10000	2	1	0	2	0
113	71	7	10000	2	1	0	2	0
110	72	7	10000	2	1	0	2	0
106	73	7	10000	2	1	0	2	0
104	74	7	10000	2	1	0	2	0
104	75	7	10000	2	1	0	2	0
104	76	7	10000	2	1	0	2	0
103	77	7	10000	2	1	0	2	0
100	78	7	10000	2	1	0	2	0
98	79	7	10000	2	1	0	2	0
95	80	7	10000	2	1	0	2	0
92	81	7	10000	2	1	0	2	0
88	82	7	10000	2	1	0	2	0
88	83	7	10000	2	1	0	2	0
87	84	7	10000	2	1	0	2	0
84	85	7	10000	2	1	0	2	0
82	86	7	10000	2	1	0	2	0
82	87	7	10000	2	1	0	2	0
82	88	7	10000	2	1	0	2	0
84	89	7	10000	2	1	0	2	0
85	90	7	10000	2	1	0	2	0
87	91	7	10000	2	1	0	2	0
89	92	7	10000	2	1	0	2	0
88	93	7	10000	2	1	0	2	0
89	94	7	10000	2	1	0	2	0
91	95	7	10000	2	1	0	2	0
92	96	7	10000	2	1	0	2	0
91	97	7	10000	2	1	0	2	0
90	98	7	10000	2	1	0	2	0
88	99	7	10000	2	1	0	2	0
85	100	7	10000	2	1	0	2	0
83	101	7	10000	2	1	0	2	0
80	102	7	10000	2	1	0	2	0
80	103	7	10000	2	1	0	2	0
81	104	7	10000	2	1	0	2	0
80	105	7	10000	2	1	0	2	0
78	106	7	10000	2	1	0	2	0
78	107	7	10000	2	1	0	2	0
76	108	7	10000	2	1	0	2	0
75	109	7	10000	2	1	0	2	0
76	110	7	10000	2	1	0	2	0
77	111	7	10000	2	1	0	2	0
78	112	7	10000	2	1	0	2	0
76	113	7	10000	2	1	0	2	0
77	114	7	10000	2	1	0	2	0
76	115	7	10000	2	1	0	2	0
76	116	7	10000	2	1	0	2	0
75	117	7	10000	2	1	0	2	0
74	118	7	10000	2	1	0	2	0
72	119	7	10000	2	1	0	2	0
69	120	7	10000	2	1	0	2	0
68	121	7	10000	2	1	0	2	0
67	122	7	10000	2	1	0	2	0
68	123	7	10000	2	1	0	2	0
65	124	7	10000	2	1	0	2	0
63	125	7	10000	2	1	0	2	0
61	126	7	10000	2	1	0	2	0
58	127	7	10000	2	1	0	2	0
57	128	7	10000	2	1	0	2	0
56	129	7	10000	2	1	0	2	0
56	130	7	10000	2	1	0	2	0
58	131	7	10000	2	1	0	2	0
60	132	7	10000	2	1	0	2	0
59	133	7	10000	2	1	0	2	0
59	134	7	10000	2	1	0	2	0
59	135	7	10000	2	1	0	2	0
58	136	7	10000	2	1	0	2	0
56	137	7	10000	2	1	0	2	0
55	138	7	10000	2	1	0	2	0
55	139	7	10000	2	1	0	2	0
53	140	7	10000	2	1	0	2	0
51	141	7	10000	2	1	0	2	0
50	142	7	10000	2	1	0	2	0
50	143	7	10000	2	1	0	2	0
48	144	7	10000	2	1	0	2	0
46	145	7	10000	2	1	0	2	0
44	146	7	10000	2	1	0	2	0
43	147	7	10000	2	1	0	2	0
42	148	7	10000	2	1	0	2	0
42	149	7	10000	2	1	0	2	0
43	150	7	10000	2	1	0	2	0
43	151	7	10000	2	1	0	2	0
43	152	7	10000	2	1	0	2	0
40	153	7	10000	2	1	0	2	0
41	154	7	10000	2	1	0	2	0
40	155	7	10000	2	1	0	2	0
39	156	7	10000	2	1	0	2	0
39	157	7	10000	2	1	0	2	0
38	158	7	10000	2	1	0	2	0
39	159	7	10000	2	1	0	2	0
37	160	7	10000	2	1	0	2	0
37	161	7	10000	2	1	0	2	0
36	162	7	10000	2	1	0	2	0
37	163	7	10000	2	1	0	2	0
37	164	7	10000	2	1	0	2	0
36	165	7	10000	2	1	0	2	0
34	166	7	10000	2	1	0	2	0
33	167	7	10000	2	1	0	2	0
32	168	7	10000	2	1	0	2	0
30	169	7	10000	2	1	0	2	0
30	170	7	10000	2	1	0	2	0
31	171	7	10000	2	1	0	2	0
32	172	7	10000	2	1	0	2	0
32	173	7	10000	2	1	0	2	0
32	174	7	10000	2	1	0	2	0
32	175	7	10000	2	1	0	2	0
33	176	7	10000	2	1	0	2	0
32	177	7	10000	2	1	0	2	0
32	178	7	10000	2	1	0	2	0
32	179	7	10000	2	1	0	2	0
30	180	7	10000	2	1	0	2	0
29	181	7	10000	2	1	0	2	0
28	182	7	10000	2	1	0	2	0
28	183	7	10000	2	1	0	2	0
28	184	7	10000	2	1	0	2	0
27	185	7	10000	2	1	0	2	0
26	186	7	10000	2	1	0	2	0
25	187	7	10000	2	1	0	2	0
25	188	7	10000	2	1	0	2	0
26	189	7	10000	2	1	0	2	0
28	190	7	10000	2	1	0	2	0
28	191	7	10000	2	1	0	2	0
28	192	7	10000	2	1	0	2	0
26	193	7	10000	2	1	0	2	0
26	194	7	10000	2	1	0	2	0
26	195	7	10000	2	1	0	2	0
26	196	7	10000	2	1	0	2	0
27	197	7	10000	2	1	0	2	0
29	198	7	10000	2	1	0	2	0
31	199	7	10000	2	1	0	2	0
29	200	7	10000	2	1	0	2	0
28	201	7	10000	2	1	0	2	0
27	202	7	10000	2	1	0	2	0
28	203	7	10000	2	1	0	2	0
28	204	7	10000	2	1	0	2	0
26	205	7	10000	2	1	0	2	0
24	206	7	10000	2	1	0	2	0
24	207	7	10000	2	1	0	2	0
23	208	7	10000	2	1	0	2	0
22	209	7	10000	2	1	0	2	0
23	210	7	10000	2	1	0	2	0
23	211	7	10000	2	1	0	2	0
24	212	7	10000	2	1	0	2	0
24	213	7	10000	2	1	0	2	0
25	214	7	10000	2	1	0	2	0
26	215	7	10000	2	1	0	2	0
27	216	7	10000	2	1	0	2	0
26	217	7	10000	2	1	0	2	0
25	218	7	10000	2	1	0	2	0
27	219	7	10000	2	1	0	2	0
27	220	7	10000	2	1	0	2	0
27	221	7	10000	2	1	0	2	0
27	222	7	10000	2	1	0	2	0
30	223	7	10000	2	1	0	2	0
29	224	7	10000	2	1	0	2	0
29	225	7	10000	2	1	0	2	0
29	226	7	10000	2	1	0	2	0
29	227	7	10000	2	1	0	2	0
29	228	7	10000	2	1	0	2	0
28	229	7	10000	2	1	0	2	0
29	230	7	10000	2	1	0	2	0
30	231	7	10000	2	1	0	2	0
29	232	7	10000	2	1	0	2	0
26	233	7	10000	2	1	0	2	0
25	234	7	10000	2	1	0	2	0
25	235	7	10000	2	1	0	2	0
24	236	7	10000	2	1	0	2	0
24	237	7	10000	2	1	0	2	0
25	238	7	10000	2	1	0	2	0
24	239	7	10000	2	1	0	2	0
23	240	7	10000	2	1	0	2	0
21	241	7	10000	2	1	0	2	0
20	242	7	10000	2	1	0	2	0
22	243	7	10000	2	1	0	2	0
22	244	7	10000	2	1	0	2	0
21	245	7	10000	2	1	0	2	0
20	246	7	10000	2	1	0	2	0
20	247	7	10000	2	1	0	2	0
20	248	7	10000	2	1	0	2	0
19	249	7	10000	2	1	0	2	0
20	250	7	10000	2	1	0	2	0
22	251	7	10000	2	1	0	2	0
23	252	7	10000	2	1	0	2	0
20	253	7	10000	2	1	0	2	0
19	254	7	10000	2	1	0	2	0
19	255	7	10000	2	1	0	2	0
19	256	7	10000	2	1	0	2	0
20	257	7	10000	2	1	0	2	0
20	258	7	10000	2	1	0	2	0
21	259	7	10000	2	1	0	2	0
23	260	7	10000	2	1	0	2	0
22	261	7	10000	2	1	0	2	0
21	262	7	10000	2	1	0	2	0
24	263	7	10000	2	1	0	2	0
23	264	7	10000	2	1	0	2	0
22	265	7	10000	2	1	0	2	0
22	266	7	10000	2	1	0	2	0
21	267	7	10000	2	1	0	2	0
20	268	7	10000	2	1	0	2	0
20	269	7	10000	2	1	0	2	0
21	270	7	10000	2	1	0	2	0
23	271	7	10000	2	1	0	2	0
30	272	7	10000	2	1	0	2	0
32	273	7	10000	2	1	0	2	0
35	274	7	10000	2	1	0	2	0
35	275	7	10000	2	1	0	2	0
34	276	7	10000	2	1	0	2	0
33	277	7	10000	2	1	0	2	0
34	278	7	10000	2	1	0	2	0
37	279	7	10000	2	1	0	2	0
42	280	7	10000	2	1	0	2	0
49	281	7	10000	2	1	0	2	0
53	282	7	10000	2	1	0	2	0
59	283	7	10000	2	1	0	2	0
58	284	7	10000	2	1	0	2	0
56	285	7	10000	2	1	0	2	0
53	286	7	10000	2	1	0	2	0
51	287	7	10000	2	1	0	2	0
50	288	7	10000	2	1	0	2	0
48	289	7	10000	2	1	0	2	0
50	290	7	10000	2	1	0	2	0
55	291	7	10000	2	1	0	2	0
56	292	7	10000	2	1	0	2	0
53	293	7	10000	2	1	0	2	0
53	294	7	10000	2	1	0	2	0
51	295	7	10000	2	1	0	2	0
50	296	7	10000	2	1	0	2	0
47	297	7	10000	2	1	0	2	0
47	298	7	10000	2	1	0	2	0
48	299	7	10000	2	1	0	2	0
46	300	7	10000	2	1	0	2	0
47	301	7	10000	2	1	0	2	0
48	302	7	10000	2	1	0	2	0
49	303	7	10000	2	1	0	2	0
48	304	7	10000	2	1	0	2	0
49	305	7	10000	2	1	0	2	0
51	306	7	10000	2	1	0	2	0
54	307	7	10000	2	1	0	2	0
55	308	7	10000	2	1	0	2	0
52	309	7	10000	2	1	0	2	0
56	310	7	10000	2	1	0	2	0
61	311	7	10000	2	1	0	2	0
64	312	7	10000	2	1	0	2	0
61	313	7	10000	2	1	0	2	0
62	314	7	10000	2	1	0	2	0
64	315	7	10000	2	1	0	2	0
64	316	7	10000	2	1	0	2	0
60	317	7	10000	2	1	0	2	0
59	318	7	10000	2	1	0	2	0
57	319	7	10000	2	1	0	2	0
54	320	7	10000	2	1	0	2	0
53	321	7	10000	2	1	0	2	0
52	322	7	10000	2	1	0	2	0
52	323	7	10000	2	1	0	2	0
50	324	7	10000	2	1	0	2	0
48	325	7	10000	2	1	0	2	0
47	326	7	10000	2	1	0	2	0
48	327	7	10000	2	1	0	2	0
48	328	7	10000	2	1	0	2	0
46	329	7	10000	2	1	0	2	0
47	330	7	10000	2	1	0	2	0
48	331	7	10000	2	1	0	2	0
47	332	7	10000	2	1	0	2	0
43	333	7	10000	2	1	0	2	0
42	334	7	10000	2	1	0	2	0
42	335	7	10000	2	1	0	2	0
41	336	7	10000	2	1	0	2	0
40	337	7	10000	2	1	0	2	0
39	338	7	10000	2	1	0	2	0
38	339	7	10000	2	1	0	2	0
39	340	7	10000	2	1	0	2	0
38	341	7	10000	2	1	0	2	0
36	342	7	10000	2	1	0	2	0
39	343	7	10000	2	1	0	2	0
40	344	7	10000	2	1	0	2	0
39	345	7	10000	2	1	0	2	0
38	346	7	10000	2	1	0	2	0
38	347	7	10000	2	1	0	2	0
39	348	7	10000	2	1	0	2	0
39	349	7	10000	2	1	0	2	0
38	350	7	10000	2	1	0	2	0
37	351	7	10000	2	1	0	2	0
36	352	7	10000	2	1	0	2	0
32	353	7	10000	2	1	0	2	0
31	354	7	10000	2	1	0	2	0
31	355	7	10000	2	1	0	2	0
29	356	7	10000	2	1	0	2	0
30	357	7	10000	2	1	0	2	0
31	358	7	10000	2	1	0	2	0
31	359	7	10000	2	1	0	2	0
30	360	7	10000	2	1	0	2	0
29	361	7	10000	2	1	0	2	0
27	362	7	10000	2	1	0	2	0
28	363	7	10000	2	1	0	2	0
27	364	7	10000	2	1	0	2	0
26	365	7	10000	2	1	0	2	0
26	366	7	10000	2	1	0	2	0
25	367	7	10000	2	1	0	2	0
24	368	7	10000	2	1	0	2	0
24	369	7	10000	2	1	0	2	0
24	370	7	10000	2	1	0	2	0
24	371	7	10000	2	1	0	2	0
28	372	7	10000	2	1	0	2	0
28	373	7	10000	2	1	0	2	0
28	374	7	10000	2	1	0	2	0
28	375	7	10000	2	1	0	2	0
28	376	7	10000	2	1	0	2	0
27	377	7	10000	2	1	0	2	0
26	378	7	10000	2	1	0	2	0
26	379	7	10000	2	1	0	2	0
25	380	7	10000	2	1	0	2	0
25	381	7	10000	2	1	0	2	0
24	382	7	10000	2	1	0	2	0
25	383	7	10000	2	1	0	2	0
25	384	7	10000	2	1	0	2	0
24	385	7	10000	2	1	0	2	0
22	386	7	10000	2	1	0	2	0
21	387	7	10000	2	1	0	2	0
21	388	7	10000	2	1	0	2	0
20	389	7	10000	2	1	0	2	0
20	390	7	10000	2	1	0	2	0
22	391	7	10000	2	1	0	2	0
23	392	7	10000	2	1	0	2	0
23	393	7	10000	2	1	0	2	0
23	394	7	10000	2	1	0	2	0
22	395	7	10000	2	1	0	2	0
22	396	7	10000	2	1	0	2	0
22	397	7	10000	2	1	0	2	0
21	398	7	10000	2	1	0	2	0
21	399	7	10000	2	1	0	2	0
20	400	7	10000	2	1	0	2	0
20	401	7	10000	2	1	0	2	0
20	402	7	10000	2	1	0	2	0
21	403	7	10000	2	1	0	2	0
22	404	7	10000	2	1	0	2	0
24	405	7	10000	2	1	0	2	0
25	406	7	10000	2	1	0	2	0
24	407	7	10000	2	1	0	2	0
24	408	7	10000	2	1	0	2	0
23	409	7	10000	2	1	0	2	0
22	410	7	10000	2	1	0	2	0
22	411	7	10000	2	1	0	2	0
24	412	7	10000	2	1	0	2	0
23	413	7	10000	2	1	0	2	0
24	414	7	10000	2	1	0	2	0
24	415	7	10000	2	1	0	2	0
26	416	7	10000	2	1	0	2	0
24	417	7	10000	2	1	0	2	0
24	418	7	10000	2	1	0	2	0
26	419	7	10000	2	1	0	2	0
23	420	7	10000	2	1	0	2	0
22	421	7	10000	2	1	0	2	0
22	422	7	10000	2	1	0	2	0
23	423	7	10000	2	1	0	2	0
22	424	7	10000	2	1	0	2	0
21	425	7	10000	2	1	0	2	0
20	426	7	10000	2	1	0	2	0
20	427	7	10000	2	1	0	2	0
19	428	7	10000	2	1	0	2	0
20	429	7	10000	2	1	0	2	0
20	430	7	10000	2	1	0	2	0
22	431	7	10000	2	1	0	2	0
24	432	7	10000	2	1	0	2	0
22	433	7	10000	2	1	0	2	0
21	434	7	10000	2	1	0	2	0
21	435	7	10000	2	1	0	2	0
20	436	7	10000	2	1	0	2	0
20	437	7	10000	2	1	0	2	0
21	438	7	10000	2	1	0	2	0
21	439	7	10000	2	1	0	2	0
21	440	7	10000	2	1	0	2	0
20	441	7	10000	2	1	0	2	0
19	442	7	10000	2	1	0	2	0
21	443	7	10000	2	1	0	2	0
21	444	7	10000	2	1	0	2	0
20	445	7	10000	2	1	0	2	0
20	446	7	10000	2	1	0	2	0
20	447	7	10000	2	1	0	2	0
19	448	7	10000	2	1	0	2	0
19	449	7	10000	2	1	0	2	0
19	450	7	10000	2	1	0	2	0
19	451	7	10000	2	1	0	2	0
18	452	7	10000	2	1	0	2	0
17	453	7	10000	2	1	0	2	0
17	454	7	10000	2	1	0	2	0
18	455	7	10000	2	1	0	2	0
18	456	7	10000	2	1	0	2	0
19	457	7	10000	2	1	0	2	0
19	458	7	10000	2	1	0	2	0
19	459	7	10000	2	1	0	2	0
19	460	7	10000	2	1	0	2	0
17	461	7	10000	2	1	0	2	0
17	462	7	10000	2	1	0	2	0
20	463	7	10000	2	1	0	2	0
20	464	7	10000	2	1	0	2	0
20	465	7	10000	2	1	0	2	0
19	466	7	10000	2	1	0	2	0
19	467	7	10000	2	1	0	2	0
18	468	7	10000	2	1	0	2	0
18	469	7	10000	2	1	0	2	0
18	470	7	10000	2	1	0	2	0
17	471	7	10000	2	1	0	2	0
18	472	7	10000	2	1	0	2	0
15	473	7	10000	2	1	0	2	0
14	474	7	10000	2	1	0	2	0
14	475	7	10000	2	1	0	2	0
14	476	7	10000	2	1	0	2	0
15	477	7	10000	2	1	0	2	0
16	478	7	10000	2	1	0	2	0
18	479	7	10000	2	1	0	2	0
18	480	7	10000	2	1	0	2	0
17	481	7	10000	2	1	0	2	0
17	482	7	10000	2	1	0	2	0
21	483	7	10000	2	1	0	2	0
22	484	7	10000	2	1	0	2	0
22	485	7	10000	2	1	0	2	0
21	486	7	10000	2	1	0	2	0
20	487	7	10000	2	1	0	2	0
20	488	7	10000	2	1	0	2	0
20	489	7	10000	2	1	0	2	0
20	490	7	10000	2	1	0	2	0
21	491	7	10000	2	1	0	2	0
22	492	7	10000	2	1	0	2	0
20	493	7	10000	2	1	0	2	0
19	494	7	10000	2	1	0	2	0
20	495	7	10000	2	1	0	2	0
20	496	7	10000	2	1	0	2	0
20	497	7	10000	2	1	0	2	0
19	498	7	10000	2	1	0	2	0
19	499	7	10000	2	1	0	2	0
20	500	7	10000	2	1	0	2	0
18	501	7	10000	2	1	0	2	0
18	501	7	10000	2	1	0	2	1
20	502	7	10000	2	1	0	2	1
20	504	7	10000	2	1	0	2	1
20	505	7	10000	2	1	0	2	1
20	506	7	10000	2	1	0	2	1
20	507	7	10000	2	1	0	2	1
20	508	7	10000	2	1	0	2	1
20	509	7	10000	2	1	0	2	1
20	510	7	10000	2	1	0	2	1
20	511	7	10000	2	1	0	2	1
20	512	7	10000	2	1	0	2	1
18	513	7	10000	2	1	0	2	1
19	514	7	10000	2	1	0	2	1
18	515	7	10000	2	1	0	2	1
19	516	7	10000	2	1	0	2	1
19	517	7	10000	2	1	0	2	1
18	518	7	10000	2	1	0	2	1
19	519	7	10000	2	1	0	2	1
18	520	7	10000	2	1	0	2	1
17	521	7	10000	2	1	0	2	1
17	522	7	10000	2	1	0	2	1
18	523	7	10000	2	1	0	2	1
18	524	7	10000	2	1	0	2	1
20	525	7	10000	2	1	0	2	1
21	526	7	10000	2	1	0	2	1
20	527	7	10000	2	1	0	2	1
21	528	7	10000	2	1	0	2	1
21	529	7	10000	2	1	0	2	1
22	530	7	10000	2	1	0	2	1
22	531	7	10000	2	1	0	2	1
22	532	7	10000	2	1	0	2	1
19	533	7	10000	2	1	0	2	1
19	534	7	10000	2	1	0	2	1
19	535	7	10000	2	1	0	2	1
20	536	7	10000	2	1	0	2	1
21	537	7	10000	2	1	0	2	1
22	538	7	10000	2	1	0	2	1
21	539	7	10000	2	1	0	2	1
20	540	7	10000	2	1	0	2	1
20	541	7	10000	2	1	0	2	1
19	542	7	10000	2	1	0	2	1
20	543	7	10000	2	1	0	2	1
20	544	7	10000	2	1	0	2	1
19	545	7	10000	2	1	0	2	1
19	546	7	10000	2	1	0	2	1
18	547	7	10000	2	1	0	2	1
17	548	7	10000	2	1	0	2	1
17	549	7	10000	2	1	0	2	1
18	550	7	10000	2	1	0	2	1
18	551	7	10000	2	1	0	2	1
18	552	7	10000	2	1	0	2	0
17	553	7	10000	2	1	0	2	0
17	554	7	10000	2	1	0	2	0
17	555	7	10000	2	1	0	2	0
17	556	7	10000	2	1	0	2	0
17	557	7	10000	2	1	0	2	0
18	558	7	10000	2	1	0	2	0
17	559	7	10000	2	1	0	2	0
16	560	7	10000	2	1	0	2	0
15	561	7	10000	2	1	0	2	0
14	562	7	10000	2	1	0	2	0
16	563	7	10000	2	1	0	2	0
15	564	7	10000	2	1	0	2	0
16	565	7	10000	2	1	0	2	0
16	566	7	10000	2	1	0	2	0
15	567	7	10000	2	1	0	2	0
15	568	7	10000	2	1	0	2	0
15	569	7	10000	2	1	0	2	0
16	570	7	10000	2	1	0	2	0
17	571	7	10000	2	1	0	2	0
17	572	7	10000	2	1	0	2	0
15	573	7	10000	2	1	0	2	0
15	574	7	10000	2	1	0	2	0
17	575	7	10000	2	1	0	2	0
16	576	7	10000	2	1	0	2	0
15	577	7	10000	2	1	0	2	0
16	578	7	10000	2	1	0	2	0
16	579	7	10000	2	1	0	2	0
15	580	7	10000	2	1	0	2	0
14	581	7	10000	2	1	0	2	0
14	582	7	10000	2	1	0	2	0
15	583	7	10000	2	1	0	2	0
16	584	7	10000	2	1	0	2	0
15	585	7	10000	2	1	0	2	0
14	586	7	10000	2	1	0	2	0
17	587	7	10000	2	1	0	2	0
23	588	7	10000	2	1	0	2	0
32	589	7	10000	2	1	0	2	0
41	590	7	10000	2	1	0	2	0
47	591	7	10000	2	1	0	2	0
74	592	7	10000	2	1	0	2	0
94	593	7	10000	2	1	0	2	0
124	594	7	10000	2	1	0	2	0
168	595	7	10000	2	1	0	2	0
176	596	7	10000	2	1	0	2	0
193	597	7	10000	2	1	0	2	0
251	598	7	10000	2	1	0	2	0
264	599	7	10000	2	1	0	2	0
279	600	7	10000	2	1	0	2	0
310	601	7	10000	2	1	0	2	0
329	602	7	10000	2	1	0	2	0
345	603	7	10000	2	1	0	2	0
422	604	7	10000	2	1	0	2	0
513	605	7	10000	2	1	0	2	0
509	606	7	10000	2	1	0	2	0
557	607	7	10000	2	1	0	2	0
641	608	7	10000	2	1	0	2	0
742	609	7	10000	2	1	0	2	0
785	610	7	10000	2	1	0	2	0
793	611	7	10000	2	1	0	2	0
785	612	7	10000	2	1	0	2	0
777	613	7	10000	2	1	0	2	0
818	614	7	10000	2	1	0	2	0
887	615	7	10000	2	1	0	2	0
891	616	7	10000	2	1	0	2	0
986	617	7	10000	2	1	0	2	0
1055	618	7	10000	2	1	0	2	0
1059	619	7	10000	2	1	0	2	0
1038	620	7	10000	2	1	0	2	0
1016	621	7	10000	2	1	0	2	0
1003	622	7	10000	2	1	0	2	0
971	623	7	10000	2	1	0	2	0
990	624	7	10000	2	1	0	2	0
1095	625	7	10000	2	1	0	2	0
1183	626	7	10000	2	1	0	2	0
1221	627	7	10000	2	1	0	2	0
1215	628	7	10000	2	1	0	2	0
1287	629	7	10000	2	1	0	2	0
1378	630	7	10000	2	1	0	2	0
1427	631	7	10000	2	1	0	2	0
1435	632	7	10000	2	1	0	2	0
1413	633	7	10000	2	1	0	2	0
1364	634	7	10000	2	1	0	2	0
1302	635	7	10000	2	1	0	2	0
1247	636	7	10000	2	1	0	2	0
1200	637	7	10000	2	1	0	2	0
1154	638	7	10000	2	1	0	2	0
1109	639	7	10000	2	1	0	2	0
1064	640	7	10000	2	1	0	2	0
1020	641	7	10000	2	1	0	2	0
975	642	7	10000	2	1	0	2	0
933	643	7	10000	2	1	0	2	0
892	644	7	10000	2	1	0	2	0
853	645	7	10000	2	1	0	2	0
816	646	7	10000	2	1	0	2	0
785	647	7	10000	2	1	0	2	0
754	648	7	10000	2	1	0	2	0
723	649	7	10000	2	1	0	2	0
698	650	7	10000	2	1	0	2	0
671	651	7	10000	2	1	0	2	0
642	652	7	10000	2	1	0	2	0
618	653	7	10000	2	1	0	2	0
603	654	7	10000	2	1	0	2	0
587	655	7	10000	2	1	0	2	0
568	656	7	10000	2	1	0	2	0
551	657	7	10000	2	1	0	2	0
539	658	7	10000	2	1	0	2	0
528	659	7	10000	2	1	0	2	0
518	660	7	10000	2	1	0	2	0
509	661	7	10000	2	1	0	2	0
501	662	7	10000	2	1	0	2	0
495	663	7	10000	2	1	0	2	0
488	664	7	10000	2	1	0	2	0
479	665	7	10000	2	1	0	2	0
469	666	7	10000	2	1	0	2	0
456	667	7	10000	2	1	0	2	0
443	668	7	10000	2	1	0	2	0
428	669	7	10000	2	1	0	2	0
412	670	7	10000	2	1	0	2	0
395	671	7	10000	2	1	0	2	0
379	672	7	10000	2	1	0	2	0
362	673	7	10000	2	1	0	2	0
346	674	7	10000	2	1	0	2	0
331	675	7	10000	2	1	0	2	0
318	676	7	10000	2	1	0	2	0
307	677	7	10000	2	1	0	2	0
298	678	7	10000	2	1	0	2	0
287	679	7	10000	2	1	0	2	0
275	680	7	10000	2	1	0	2	0
266	681	7	10000	2	1	0	2	0
255	682	7	10000	2	1	0	2	0
247	683	7	10000	2	1	0	2	0
237	684	7	10000	2	1	0	2	0
227	685	7	10000	2	1	0	2	0
221	686	7	10000	2	1	0	2	0
216	687	7	10000	2	1	0	2	0
214	688	7	10000	2	1	0	2	0
214	689	7	10000	2	1	0	2	0
217	690	7	10000	2	1	0	2	0
220	691	7	10000	2	1	0	2	0
225	692	7	10000	2	1	0	2	0
227	693	7	10000	2	1	0	2	0
231	694	7	10000	2	1	0	2	0
237	695	7	10000	2	1	0	2	0
241	696	7	10000	2	1	0	2	0
241	697	7	10000	2	1	0	2	0
239	698	7	10000	2	1	0	2	0
235	699	7	10000	2	1	0	2	0
229	700	7	10000	2	1	0	2	0
224	701	7	10000	2	1	0	2	0
219	702	7	10000	2	1	0	2	0
220	703	7	10000	2	1	0	2	0
218	704	7	10000	2	1	0	2	0
217	705	7	10000	2	1	0	2	0
219	706	7	10000	2	1	0	2	0
220	707	7	10000	2	1	0	2	0
222	708	7	10000	2	1	0	2	0
226	709	7	10000	2	1	0	2	0
230	710	7	10000	2	1	0	2	0
234	711	7	10000	2	1	0	2	0
238	712	7	10000	2	1	0	2	0
241	713	7	10000	2	1	0	2	0
244	714	7	10000	2	1	0	2	0
245	715	7	10000	2	1	0	2	0
245	716	7	10000	2	1	0	2	0
242	717	7	10000	2	1	0	2	0
237	718	7	10000	2	1	0	2	0
231	719	7	10000	2	1	0	2	0
223	720	7	10000	2	1	0	2	0
213	721	7	10000	2	1	0	2	0
203	722	7	10000	2	1	0	2	0
196	723	7	10000	2	1	0	2	0
190	724	7	10000	2	1	0	2	0
187	725	7	10000	2	1	0	2	0
184	726	7	10000	2	1	0	2	0
182	727	7	10000	2	1	0	2	0
182	728	7	10000	2	1	0	2	0
179	729	7	10000	2	1	0	2	0
178	730	7	10000	2	1	0	2	0
178	731	7	10000	2	1	0	2	0
176	732	7	10000	2	1	0	2	0
173	733	7	10000	2	1	0	2	0
172	734	7	10000	2	1	0	2	0
170	735	7	10000	2	1	0	2	0
167	736	7	10000	2	1	0	2	0
164	737	7	10000	2	1	0	2	0
159	738	7	10000	2	1	0	2	0
152	739	7	10000	2	1	0	2	0
147	740	7	10000	2	1	0	2	0
142	741	7	10000	2	1	0	2	0
138	742	7	10000	2	1	0	2	0
136	743	7	10000	2	1	0	2	0
133	744	7	10000	2	1	0	2	0
127	745	7	10000	2	1	0	2	0
123	746	7	10000	2	1	0	2	0
118	747	7	10000	2	1	0	2	0
116	748	7	10000	2	1	0	2	0
114	749	7	10000	2	1	0	2	0
112	750	7	10000	2	1	0	2	0
109	751	7	10000	2	1	0	2	0
111	752	7	10000	2	1	0	2	0
115	753	7	10000	2	1	0	2	0
118	754	7	10000	2	1	0	2	0
119	755	7	10000	2	1	0	2	0
116	756	7	10000	2	1	0	2	0
116	757	7	10000	2	1	0	2	0
118	758	7	10000	2	1	0	2	0
121	759	7	10000	2	1	0	2	0
121	760	7	10000	2	1	0	2	0
118	761	7	10000	2	1	0	2	0
113	762	7	10000	2	1	0	2	0
111	763	7	10000	2	1	0	2	0
108	764	7	10000	2	1	0	2	0
104	765	7	10000	2	1	0	2	0
100	766	7	10000	2	1	0	2	0
101	767	7	10000	2	1	0	2	0
100	768	7	10000	2	1	0	2	0
96	769	7	10000	2	1	0	2	0
95	770	7	10000	2	1	0	2	0
93	771	7	10000	2	1	0	2	0
93	772	7	10000	2	1	0	2	0
90	773	7	10000	2	1	0	2	0
86	774	7	10000	2	1	0	2	0
83	775	7	10000	2	1	0	2	0
82	776	7	10000	2	1	0	2	0
82	777	7	10000	2	1	0	2	0
87	778	7	10000	2	1	0	2	0
90	779	7	10000	2	1	0	2	0
89	780	7	10000	2	1	0	2	0
98	781	7	10000	2	1	0	2	0
108	782	7	10000	2	1	0	2	0
116	783	7	10000	2	1	0	2	0
119	784	7	10000	2	1	0	2	0
120	785	7	10000	2	1	0	2	0
119	786	7	10000	2	1	0	2	0
117	787	7	10000	2	1	0	2	0
112	788	7	10000	2	1	0	2	0
109	789	7	10000	2	1	0	2	0
109	790	7	10000	2	1	0	2	0
109	791	7	10000	2	1	0	2	0
110	792	7	10000	2	1	0	2	0
106	793	7	10000	2	1	0	2	0
103	794	7	10000	2	1	0	2	0
99	795	7	10000	2	1	0	2	0
96	796	7	10000	2	1	0	2	0
95	797	7	10000	2	1	0	2	0
92	798	7	10000	2	1	0	2	0
93	799	7	10000	2	1	0	2	0
92	800	7	10000	2	1	0	2	0
88	801	7	10000	2	1	0	2	0
89	802	7	10000	2	1	0	2	0
93	803	7	10000	2	1	0	2	0
95	804	7	10000	2	1	0	2	0
95	805	7	10000	2	1	0	2	0
94	806	7	10000	2	1	0	2	0
91	807	7	10000	2	1	0	2	0
89	808	7	10000	2	1	0	2	0
90	809	7	10000	2	1	0	2	0
87	810	7	10000	2	1	0	2	0
86	811	7	10000	2	1	0	2	0
86	812	7	10000	2	1	0	2	0
80	813	7	10000	2	1	0	2	0
78	814	7	10000	2	1	0	2	0
76	815	7	10000	2	1	0	2	0
74	816	7	10000	2	1	0	2	0
72	817	7	10000	2	1	0	2	0
69	818	7	10000	2	1	0	2	0
69	819	7	10000	2	1	0	2	0
69	820	7	10000	2	1	0	2	0
67	821	7	10000	2	1	0	2	0
68	822	7	10000	2	1	0	2	0
70	823	7	10000	2	1	0	2	0
71	824	7	10000	2	1	0	2	0
69	825	7	10000	2	1	0	2	0
68	826	7	10000	2	1	0	2	0
65	827	7	10000	2	1	0	2	0
65	828	7	10000	2	1	0	2	0
63	829	7	10000	2	1	0	2	0
62	830	7	10000	2	1	0	2	0
66	831	7	10000	2	1	0	2	0
75	832	7	10000	2	1	0	2	0
74	833	7	10000	2	1	0	2	0
71	834	7	10000	2	1	0	2	0
69	835	7	10000	2	1	0	2	0
66	836	7	10000	2	1	0	2	0
64	837	7	10000	2	1	0	2	0
61	838	7	10000	2	1	0	2	0
60	839	7	10000	2	1	0	2	0
62	840	7	10000	2	1	0	2	0
63	841	7	10000	2	1	0	2	0
64	842	7	10000	2	1	0	2	0
68	843	7	10000	2	1	0	2	0
68	844	7	10000	2	1	0	2	0
65	845	7	10000	2	1	0	2	0
65	846	7	10000	2	1	0	2	0
65	847	7	10000	2	1	0	2	0
63	848	7	10000	2	1	0	2	0
62	849	7	10000	2	1	0	2	0
62	850	7	10000	2	1	0	2	0
60	851	7	10000	2	1	0	2	0
59	852	7	10000	2	1	0	2	0
59	853	7	10000	2	1	0	2	0
60	854	7	10000	2	1	0	2	0
61	855	7	10000	2	1	0	2	0
59	856	7	10000	2	1	0	2	0
59	857	7	10000	2	1	0	2	0
59	858	7	10000	2	1	0	2	0
59	859	7	10000	2	1	0	2	0
58	860	7	10000	2	1	0	2	0
59	861	7	10000	2	1	0	2	0
60	862	7	10000	2	1	0	2	0
62	863	7	10000	2	1	0	2	0
60	864	7	10000	2	1	0	2	0
59	865	7	10000	2	1	0	2	0
56	866	7	10000	2	1	0	2	0
55	867	7	10000	2	1	0	2	0
54	868	7	10000	2	1	0	2	0
52	869	7	10000	2	1	0	2	0
50	870	7	10000	2	1	0	2	0
49	871	7	10000	2	1	0	2	0
49	872	7	10000	2	1	0	2	0
48	873	7	10000	2	1	0	2	0
48	874	7	10000	2	1	0	2	0
47	875	7	10000	2	1	0	2	0
46	876	7	10000	2	1	0	2	0
44	877	7	10000	2	1	0	2	0
44	878	7	10000	2	1	0	2	0
44	879	7	10000	2	1	0	2	0
44	880	7	10000	2	1	0	2	0
43	881	7	10000	2	1	0	2	0
44	882	7	10000	2	1	0	2	0
46	883	7	10000	2	1	0	2	0
47	884	7	10000	2	1	0	2	0
45	885	7	10000	2	1	0	2	0
44	886	7	10000	2	1	0	2	0
43	887	7	10000	2	1	0	2	0
41	888	7	10000	2	1	0	2	0
40	889	7	10000	2	1	0	2	0
42	890	7	10000	2	1	0	2	0
41	891	7	10000	2	1	0	2	0
41	892	7	10000	2	1	0	2	0
39	893	7	10000	2	1	0	2	0
40	894	7	10000	2	1	0	2	0
41	895	7	10000	2	1	0	2	0
42	896	7	10000	2	1	0	2	0
40	897	7	10000	2	1	0	2	0
40	898	7	10000	2	1	0	2	0
41	899	7	10000	2	1	0	2	0
41	900	7	10000	2	1	0	2	0
41	901	7	10000	2	1	0	2	0
40	902	7	10000	2	1	0	2	0
41	903	7	10000	2	1	0	2	0
39	904	7	10000	2	1	0	2	0
38	905	7	10000	2	1	0	2	0
38	906	7	10000	2	1	0	2	0
36	907	7	10000	2	1	0	2	0
35	908	7	10000	2	1	0	2	0
34	909	7	10000	2	1	0	2	0
33	910	7	10000	2	1	0	2	0
33	911	7	10000	2	1	0	2	0
33	912	7	10000	2	1	0	2	0
32	913	7	10000	2	1	0	2	0
31	914	7	10000	2	1	0	2	0
32	915	7	10000	2	1	0	2	0
31	916	7	10000	2	1	0	2	0
29	917	7	10000	2	1	0	2	0
30	918	7	10000	2	1	0	2	0
29	919	7	10000	2	1	0	2	0
29	920	7	10000	2	1	0	2	0
29	921	7	10000	2	1	0	2	0
28	922	7	10000	2	1	0	2	0
30	923	7	10000	2	1	0	2	0
31	924	7	10000	2	1	0	2	0
30	925	7	10000	2	1	0	2	0
29	926	7	10000	2	1	0	2	0
29	927	7	10000	2	1	0	2	0
28	928	7	10000	2	1	0	2	0
27	929	7	10000	2	1	0	2	0
26	930	7	10000	2	1	0	2	0
27	931	7	10000	2	1	0	2	0
28	932	7	10000	2	1	0	2	0
28	933	7	10000	2	1	0	2	0
30	934	7	10000	2	1	0	2	0
29	935	7	10000	2	1	0	2	0
28	936	7	10000	2	1	0	2	0
27	937	7	10000	2	1	0	2	0
26	938	7	10000	2	1	0	2	0
26	939	7	10000	2	1	0	2	0
26	940	7	10000	2	1	0	2	0
26	941	7	10000	2	1	0	2	0
24	942	7	10000	2	1	0	2	0
26	943	7	10000	2	1	0	2	0
27	944	7	10000	2	1	0	2	0
27	945	7	10000	2	1	0	2	0
28	946	7	10000	2	1	0	2	0
26	947	7	10000	2	1	0	2	0
25	948	7	10000	2	1	0	2	0
26	949	7	10000	2	1	0	2	0
28	950	7	10000	2	1	0	2	0
30	951	7	10000	2	1	0	2	0
29	952	7	10000	2	1	0	2	0
28	953	7	10000	2	1	0	2	0
28	954	7	10000	2	1	0	2	0
30	955	7	10000	2	1	0	2	0
32	956	7	10000	2	1	0	2	0
32	957	7	10000	2	1	0	2	0
32	958	7	10000	2	1	0	2	0
32	959	7	10000	2	1	0	2	0
31	960	7	10000	2	1	0	2	0
29	961	7	10000	2	1	0	2	0
30	962	7	10000	2	1	0	2	0
31	963	7	10000	2	1	0	2	0
30	964	7	10000	2	1	0	2	0
30	965	7	10000	2	1	0	2	0
30	966	7	10000	2	1	0	2	0
30	967	7	10000	2	1	0	2	0
30	968	7	10000	2	1	0	2	0
31	969	7	10000	2	1	0	2	0
32	970	7	10000	2	1	0	2	0
34	971	7	10000	2	1	0	2	0
33	972	7	10000	2	1	0	2	0
31	973	7	10000	2	1	0	2	0
32	974	7	10000	2	1	0	2	0
30	975	7	10000	2	1	0	2	0
29	976	7	10000	2	1	0	2	0
29	977	7	10000	2	1	0	2	0
28	978	7	10000	2	1	0	2	0
27	979	7	10000	2	1	0	2	0
26	980	7	10000	2	1	0	2	0
26	981	7	10000	2	1	0	2	0
28	982	7	10000	2	1	0	2	0
29	983	7	10000	2	1	0	2	0
30	984	7	10000	2	1	0	2	0
29	985	7	10000	2	1	0	2	0
29	986	7	10000	2	1	0	2	0
29	987	7	10000	2	1	0	2	0
28	988	7	10000	2	1	0	2	0
27	989	7	10000	2	1	0	2	0
26	990	7	10000	2	1	0	2	0
26	991	7	10000	2	1	0	2	0
26	992	7	10000	2	1	0	2	0
26	993	7	10000	2	1	0	2	0
26	994	7	10000	2	1	0	2	0
27	995	7	10000	2	1	0	2	0
28	996	7	10000	2	1	0	2	0
28	997	7	10000	2	1	0	2	0
27	998	7	10000	2	1	0	2	0
27	999	7	10000	2	1	0	2	0
26	1000	7	10000	2	1	0	2	0
27	1001	7	10000	2	1	0	2	0
33	2	7	10000	3	1	0	3	0
33	3	7	10000	3	1	0	3	0
33	4	7	10000	3	1	0	3	0
32	5	7	10000	3	1	0	3	0
31	6	7	10000	3	1	0	3	0
32	7	7	10000	3	1	0	3	0
34	8	7	10000	3	1	0	3	0
32	9	7	10000	3	1	0	3	0
32	10	7	10000	3	1	0	3	0
33	11	7	10000	3	1	0	3	0
36	12	7	10000	3	1	0	3	0
35	13	7	10000	3	1	0	3	0
36	14	7	10000	3	1	0	3	0
37	15	7	10000	3	1	0	3	0
38	16	7	10000	3	1	0	3	0
36	17	7	10000	3	1	0	3	0
35	18	7	10000	3	1	0	3	0
39	19	7	10000	3	1	0	3	0
42	20	7	10000	3	1	0	3	0
40	21	7	10000	3	1	0	3	0
42	22	7	10000	3	1	0	3	0
44	23	7	10000	3	1	0	3	0
45	24	7	10000	3	1	0	3	0
46	25	7	10000	3	1	0	3	0
47	26	7	10000	3	1	0	3	0
46	27	7	10000	3	1	0	3	0
46	28	7	10000	3	1	0	3	0
44	29	7	10000	3	1	0	3	0
42	30	7	10000	3	1	0	3	0
41	31	7	10000	3	1	0	3	0
39	32	7	10000	3	1	0	3	0
38	33	7	10000	3	1	0	3	0
36	34	7	10000	3	1	0	3	0
35	35	7	10000	3	1	0	3	0
35	36	7	10000	3	1	0	3	0
36	37	7	10000	3	1	0	3	0
38	38	7	10000	3	1	0	3	0
38	39	7	10000	3	1	0	3	0
38	40	7	10000	3	1	0	3	0
36	41	7	10000	3	1	0	3	0
37	42	7	10000	3	1	0	3	0
37	43	7	10000	3	1	0	3	0
37	44	7	10000	3	1	0	3	0
37	45	7	10000	3	1	0	3	0
35	46	7	10000	3	1	0	3	0
35	47	7	10000	3	1	0	3	0
38	48	7	10000	3	1	0	3	0
36	49	7	10000	3	1	0	3	0
35	50	7	10000	3	1	0	3	0
35	51	7	10000	3	1	0	3	0
34	52	7	10000	3	1	0	3	0
34	53	7	10000	3	1	0	3	0
33	54	7	10000	3	1	0	3	0
36	55	7	10000	3	1	0	3	0
38	56	7	10000	3	1	0	3	0
36	57	7	10000	3	1	0	3	0
34	58	7	10000	3	1	0	3	0
36	59	7	10000	3	1	0	3	0
37	60	7	10000	3	1	0	3	0
35	61	7	10000	3	1	0	3	0
34	62	7	10000	3	1	0	3	0
34	63	7	10000	3	1	0	3	0
34	64	7	10000	3	1	0	3	0
33	65	7	10000	3	1	0	3	0
33	66	7	10000	3	1	0	3	0
34	67	7	10000	3	1	0	3	0
34	68	7	10000	3	1	0	3	0
33	69	7	10000	3	1	0	3	0
32	70	7	10000	3	1	0	3	0
31	71	7	10000	3	1	0	3	0
31	72	7	10000	3	1	0	3	0
31	73	7	10000	3	1	0	3	0
31	74	7	10000	3	1	0	3	0
31	75	7	10000	3	1	0	3	0
31	76	7	10000	3	1	0	3	0
28	77	7	10000	3	1	0	3	0
27	78	7	10000	3	1	0	3	0
27	79	7	10000	3	1	0	3	0
26	80	7	10000	3	1	0	3	0
27	81	7	10000	3	1	0	3	0
26	82	7	10000	3	1	0	3	0
26	83	7	10000	3	1	0	3	0
25	84	7	10000	3	1	0	3	0
24	85	7	10000	3	1	0	3	0
23	86	7	10000	3	1	0	3	0
25	87	7	10000	3	1	0	3	0
25	88	7	10000	3	1	0	3	0
25	89	7	10000	3	1	0	3	0
24	90	7	10000	3	1	0	3	0
23	91	7	10000	3	1	0	3	0
23	92	7	10000	3	1	0	3	0
23	93	7	10000	3	1	0	3	0
24	94	7	10000	3	1	0	3	0
24	95	7	10000	3	1	0	3	0
23	96	7	10000	3	1	0	3	0
21	97	7	10000	3	1	0	3	0
20	98	7	10000	3	1	0	3	0
20	99	7	10000	3	1	0	3	0
23	100	7	10000	3	1	0	3	0
24	101	7	10000	3	1	0	3	0
24	102	7	10000	3	1	0	3	0
26	103	7	10000	3	1	0	3	0
28	104	7	10000	3	1	0	3	0
28	105	7	10000	3	1	0	3	0
26	106	7	10000	3	1	0	3	0
26	107	7	10000	3	1	0	3	0
28	108	7	10000	3	1	0	3	0
28	109	7	10000	3	1	0	3	0
26	110	7	10000	3	1	0	3	0
26	111	7	10000	3	1	0	3	0
26	112	7	10000	3	1	0	3	0
26	113	7	10000	3	1	0	3	0
26	114	7	10000	3	1	0	3	0
25	115	7	10000	3	1	0	3	0
24	116	7	10000	3	1	0	3	0
22	117	7	10000	3	1	0	3	0
21	118	7	10000	3	1	0	3	0
21	119	7	10000	3	1	0	3	0
21	120	7	10000	3	1	0	3	0
21	121	7	10000	3	1	0	3	0
21	122	7	10000	3	1	0	3	0
23	123	7	10000	3	1	0	3	0
23	124	7	10000	3	1	0	3	0
22	125	7	10000	3	1	0	3	0
23	126	7	10000	3	1	0	3	0
23	127	7	10000	3	1	0	3	0
26	128	7	10000	3	1	0	3	0
28	129	7	10000	3	1	0	3	0
28	130	7	10000	3	1	0	3	0
28	131	7	10000	3	1	0	3	0
28	132	7	10000	3	1	0	3	0
27	133	7	10000	3	1	0	3	0
26	134	7	10000	3	1	0	3	0
27	135	7	10000	3	1	0	3	0
29	136	7	10000	3	1	0	3	0
27	137	7	10000	3	1	0	3	0
26	138	7	10000	3	1	0	3	0
27	139	7	10000	3	1	0	3	0
27	140	7	10000	3	1	0	3	0
27	141	7	10000	3	1	0	3	0
28	142	7	10000	3	1	0	3	0
28	143	7	10000	3	1	0	3	0
27	144	7	10000	3	1	0	3	0
26	145	7	10000	3	1	0	3	0
25	146	7	10000	3	1	0	3	0
26	147	7	10000	3	1	0	3	0
27	148	7	10000	3	1	0	3	0
27	149	7	10000	3	1	0	3	0
28	150	7	10000	3	1	0	3	0
29	151	7	10000	3	1	0	3	0
28	152	7	10000	3	1	0	3	0
28	153	7	10000	3	1	0	3	0
27	154	7	10000	3	1	0	3	0
26	155	7	10000	3	1	0	3	0
26	156	7	10000	3	1	0	3	0
25	157	7	10000	3	1	0	3	0
23	158	7	10000	3	1	0	3	0
23	159	7	10000	3	1	0	3	0
23	160	7	10000	3	1	0	3	0
22	161	7	10000	3	1	0	3	0
23	162	7	10000	3	1	0	3	0
24	163	7	10000	3	1	0	3	0
24	164	7	10000	3	1	0	3	0
23	165	7	10000	3	1	0	3	0
22	166	7	10000	3	1	0	3	0
23	167	7	10000	3	1	0	3	0
23	168	7	10000	3	1	0	3	0
24	169	7	10000	3	1	0	3	0
25	170	7	10000	3	1	0	3	0
25	171	7	10000	3	1	0	3	0
24	172	7	10000	3	1	0	3	0
23	173	7	10000	3	1	0	3	0
22	174	7	10000	3	1	0	3	0
23	175	7	10000	3	1	0	3	0
24	176	7	10000	3	1	0	3	0
23	177	7	10000	3	1	0	3	0
23	178	7	10000	3	1	0	3	0
23	179	7	10000	3	1	0	3	0
22	180	7	10000	3	1	0	3	0
22	181	7	10000	3	1	0	3	0
22	182	7	10000	3	1	0	3	0
20	183	7	10000	3	1	0	3	0
20	184	7	10000	3	1	0	3	0
19	185	7	10000	3	1	0	3	0
18	186	7	10000	3	1	0	3	0
20	187	7	10000	3	1	0	3	0
19	188	7	10000	3	1	0	3	0
19	189	7	10000	3	1	0	3	0
19	190	7	10000	3	1	0	3	0
20	191	7	10000	3	1	0	3	0
22	192	7	10000	3	1	0	3	0
23	193	7	10000	3	1	0	3	0
23	194	7	10000	3	1	0	3	0
24	195	7	10000	3	1	0	3	0
24	196	7	10000	3	1	0	3	0
25	197	7	10000	3	1	0	3	0
26	198	7	10000	3	1	0	3	0
26	199	7	10000	3	1	0	3	0
26	200	7	10000	3	1	0	3	0
26	201	7	10000	3	1	0	3	0
27	202	7	10000	3	1	0	3	0
28	203	7	10000	3	1	0	3	0
29	204	7	10000	3	1	0	3	0
28	205	7	10000	3	1	0	3	0
27	206	7	10000	3	1	0	3	0
29	207	7	10000	3	1	0	3	0
29	208	7	10000	3	1	0	3	0
28	209	7	10000	3	1	0	3	0
27	210	7	10000	3	1	0	3	0
25	211	7	10000	3	1	0	3	0
25	212	7	10000	3	1	0	3	0
23	213	7	10000	3	1	0	3	0
23	214	7	10000	3	1	0	3	0
22	215	7	10000	3	1	0	3	0
22	216	7	10000	3	1	0	3	0
20	217	7	10000	3	1	0	3	0
20	218	7	10000	3	1	0	3	0
20	219	7	10000	3	1	0	3	0
20	220	7	10000	3	1	0	3	0
19	221	7	10000	3	1	0	3	0
20	222	7	10000	3	1	0	3	0
21	223	7	10000	3	1	0	3	0
20	224	7	10000	3	1	0	3	0
21	225	7	10000	3	1	0	3	0
21	226	7	10000	3	1	0	3	0
22	227	7	10000	3	1	0	3	0
22	228	7	10000	3	1	0	3	0
22	229	7	10000	3	1	0	3	0
24	230	7	10000	3	1	0	3	0
26	231	7	10000	3	1	0	3	0
27	232	7	10000	3	1	0	3	0
30	233	7	10000	3	1	0	3	0
33	234	7	10000	3	1	0	3	0
35	235	7	10000	3	1	0	3	0
35	236	7	10000	3	1	0	3	0
33	237	7	10000	3	1	0	3	0
32	238	7	10000	3	1	0	3	0
33	239	7	10000	3	1	0	3	0
32	240	7	10000	3	1	0	3	0
32	241	7	10000	3	1	0	3	0
31	242	7	10000	3	1	0	3	0
31	243	7	10000	3	1	0	3	0
30	244	7	10000	3	1	0	3	0
29	245	7	10000	3	1	0	3	0
28	246	7	10000	3	1	0	3	0
29	247	7	10000	3	1	0	3	0
30	248	7	10000	3	1	0	3	0
31	249	7	10000	3	1	0	3	0
32	250	7	10000	3	1	0	3	0
33	251	7	10000	3	1	0	3	0
32	252	7	10000	3	1	0	3	0
31	253	7	10000	3	1	0	3	0
31	254	7	10000	3	1	0	3	0
31	255	7	10000	3	1	0	3	0
30	256	7	10000	3	1	0	3	0
30	257	7	10000	3	1	0	3	0
29	258	7	10000	3	1	0	3	0
28	259	7	10000	3	1	0	3	0
29	260	7	10000	3	1	0	3	0
29	261	7	10000	3	1	0	3	0
28	262	7	10000	3	1	0	3	0
28	263	7	10000	3	1	0	3	0
27	264	7	10000	3	1	0	3	0
25	265	7	10000	3	1	0	3	0
25	266	7	10000	3	1	0	3	0
27	267	7	10000	3	1	0	3	0
28	268	7	10000	3	1	0	3	0
27	269	7	10000	3	1	0	3	0
26	270	7	10000	3	1	0	3	0
25	271	7	10000	3	1	0	3	0
25	272	7	10000	3	1	0	3	0
24	273	7	10000	3	1	0	3	0
24	274	7	10000	3	1	0	3	0
24	275	7	10000	3	1	0	3	0
24	276	7	10000	3	1	0	3	0
22	277	7	10000	3	1	0	3	0
21	278	7	10000	3	1	0	3	0
21	279	7	10000	3	1	0	3	0
21	280	7	10000	3	1	0	3	0
22	281	7	10000	3	1	0	3	0
24	282	7	10000	3	1	0	3	0
24	283	7	10000	3	1	0	3	0
25	284	7	10000	3	1	0	3	0
26	285	7	10000	3	1	0	3	0
24	286	7	10000	3	1	0	3	0
25	287	7	10000	3	1	0	3	0
27	288	7	10000	3	1	0	3	0
26	289	7	10000	3	1	0	3	0
28	290	7	10000	3	1	0	3	0
28	291	7	10000	3	1	0	3	0
27	292	7	10000	3	1	0	3	0
27	293	7	10000	3	1	0	3	0
28	294	7	10000	3	1	0	3	0
28	295	7	10000	3	1	0	3	0
27	296	7	10000	3	1	0	3	0
25	297	7	10000	3	1	0	3	0
24	298	7	10000	3	1	0	3	0
25	299	7	10000	3	1	0	3	0
24	300	7	10000	3	1	0	3	0
25	301	7	10000	3	1	0	3	0
24	302	7	10000	3	1	0	3	0
25	303	7	10000	3	1	0	3	0
25	304	7	10000	3	1	0	3	0
26	305	7	10000	3	1	0	3	0
27	306	7	10000	3	1	0	3	0
28	307	7	10000	3	1	0	3	0
28	308	7	10000	3	1	0	3	0
28	309	7	10000	3	1	0	3	0
28	310	7	10000	3	1	0	3	0
27	311	7	10000	3	1	0	3	0
28	312	7	10000	3	1	0	3	0
28	313	7	10000	3	1	0	3	0
27	314	7	10000	3	1	0	3	0
27	315	7	10000	3	1	0	3	0
27	316	7	10000	3	1	0	3	0
24	317	7	10000	3	1	0	3	0
23	318	7	10000	3	1	0	3	0
23	319	7	10000	3	1	0	3	0
24	320	7	10000	3	1	0	3	0
23	321	7	10000	3	1	0	3	0
23	322	7	10000	3	1	0	3	0
23	323	7	10000	3	1	0	3	0
22	324	7	10000	3	1	0	3	0
21	325	7	10000	3	1	0	3	0
20	326	7	10000	3	1	0	3	0
22	327	7	10000	3	1	0	3	0
22	328	7	10000	3	1	0	3	0
24	329	7	10000	3	1	0	3	0
26	330	7	10000	3	1	0	3	0
25	331	7	10000	3	1	0	3	0
26	332	7	10000	3	1	0	3	0
28	333	7	10000	3	1	0	3	0
27	334	7	10000	3	1	0	3	0
26	335	7	10000	3	1	0	3	0
26	336	7	10000	3	1	0	3	0
25	337	7	10000	3	1	0	3	0
25	338	7	10000	3	1	0	3	0
24	339	7	10000	3	1	0	3	0
24	340	7	10000	3	1	0	3	0
25	341	7	10000	3	1	0	3	0
24	342	7	10000	3	1	0	3	0
23	343	7	10000	3	1	0	3	0
22	344	7	10000	3	1	0	3	0
21	345	7	10000	3	1	0	3	0
21	346	7	10000	3	1	0	3	0
22	347	7	10000	3	1	0	3	0
23	348	7	10000	3	1	0	3	0
23	349	7	10000	3	1	0	3	0
22	350	7	10000	3	1	0	3	0
22	351	7	10000	3	1	0	3	0
22	352	7	10000	3	1	0	3	0
22	353	7	10000	3	1	0	3	0
23	354	7	10000	3	1	0	3	0
23	355	7	10000	3	1	0	3	0
23	356	7	10000	3	1	0	3	0
23	357	7	10000	3	1	0	3	0
22	358	7	10000	3	1	0	3	0
22	359	7	10000	3	1	0	3	0
22	360	7	10000	3	1	0	3	0
21	361	7	10000	3	1	0	3	0
21	362	7	10000	3	1	0	3	0
21	363	7	10000	3	1	0	3	0
20	364	7	10000	3	1	0	3	0
19	365	7	10000	3	1	0	3	0
19	366	7	10000	3	1	0	3	0
20	367	7	10000	3	1	0	3	0
20	368	7	10000	3	1	0	3	0
20	369	7	10000	3	1	0	3	0
19	370	7	10000	3	1	0	3	0
18	371	7	10000	3	1	0	3	0
19	372	7	10000	3	1	0	3	0
19	373	7	10000	3	1	0	3	0
20	374	7	10000	3	1	0	3	0
22	375	7	10000	3	1	0	3	0
23	376	7	10000	3	1	0	3	0
24	377	7	10000	3	1	0	3	0
24	378	7	10000	3	1	0	3	0
25	379	7	10000	3	1	0	3	0
27	380	7	10000	3	1	0	3	0
29	381	7	10000	3	1	0	3	0
30	382	7	10000	3	1	0	3	0
28	383	7	10000	3	1	0	3	0
27	384	7	10000	3	1	0	3	0
26	385	7	10000	3	1	0	3	0
25	386	7	10000	3	1	0	3	0
26	387	7	10000	3	1	0	3	0
27	388	7	10000	3	1	0	3	0
26	389	7	10000	3	1	0	3	0
25	390	7	10000	3	1	0	3	0
25	391	7	10000	3	1	0	3	0
24	392	7	10000	3	1	0	3	0
24	393	7	10000	3	1	0	3	0
25	394	7	10000	3	1	0	3	0
27	395	7	10000	3	1	0	3	0
28	396	7	10000	3	1	0	3	0
29	397	7	10000	3	1	0	3	0
28	398	7	10000	3	1	0	3	0
29	399	7	10000	3	1	0	3	0
29	400	7	10000	3	1	0	3	0
29	401	7	10000	3	1	0	3	0
29	402	7	10000	3	1	0	3	0
29	403	7	10000	3	1	0	3	0
29	404	7	10000	3	1	0	3	0
27	405	7	10000	3	1	0	3	0
26	406	7	10000	3	1	0	3	0
26	407	7	10000	3	1	0	3	0
27	408	7	10000	3	1	0	3	0
26	409	7	10000	3	1	0	3	0
25	410	7	10000	3	1	0	3	0
24	411	7	10000	3	1	0	3	0
24	412	7	10000	3	1	0	3	0
24	413	7	10000	3	1	0	3	0
24	414	7	10000	3	1	0	3	0
25	415	7	10000	3	1	0	3	0
28	416	7	10000	3	1	0	3	0
27	417	7	10000	3	1	0	3	0
28	418	7	10000	3	1	0	3	0
30	419	7	10000	3	1	0	3	0
29	420	7	10000	3	1	0	3	0
29	421	7	10000	3	1	0	3	0
30	422	7	10000	3	1	0	3	0
29	423	7	10000	3	1	0	3	0
29	424	7	10000	3	1	0	3	0
30	425	7	10000	3	1	0	3	0
28	426	7	10000	3	1	0	3	0
28	427	7	10000	3	1	0	3	0
28	428	7	10000	3	1	0	3	0
27	429	7	10000	3	1	0	3	0
26	430	7	10000	3	1	0	3	0
24	431	7	10000	3	1	0	3	0
24	432	7	10000	3	1	0	3	0
24	433	7	10000	3	1	0	3	0
24	434	7	10000	3	1	0	3	0
24	435	7	10000	3	1	0	3	0
25	436	7	10000	3	1	0	3	0
23	437	7	10000	3	1	0	3	0
21	438	7	10000	3	1	0	3	0
21	439	7	10000	3	1	0	3	0
20	440	7	10000	3	1	0	3	0
20	441	7	10000	3	1	0	3	0
19	442	7	10000	3	1	0	3	0
19	443	7	10000	3	1	0	3	0
19	444	7	10000	3	1	0	3	0
18	445	7	10000	3	1	0	3	0
18	446	7	10000	3	1	0	3	0
19	447	7	10000	3	1	0	3	0
20	448	7	10000	3	1	0	3	0
21	449	7	10000	3	1	0	3	0
20	450	7	10000	3	1	0	3	0
20	451	7	10000	3	1	0	3	0
19	452	7	10000	3	1	0	3	0
18	453	7	10000	3	1	0	3	0
18	454	7	10000	3	1	0	3	0
19	455	7	10000	3	1	0	3	0
20	456	7	10000	3	1	0	3	0
20	457	7	10000	3	1	0	3	0
18	458	7	10000	3	1	0	3	0
17	459	7	10000	3	1	0	3	0
18	460	7	10000	3	1	0	3	0
18	461	7	10000	3	1	0	3	0
17	462	7	10000	3	1	0	3	0
17	463	7	10000	3	1	0	3	0
17	464	7	10000	3	1	0	3	0
18	465	7	10000	3	1	0	3	0
19	466	7	10000	3	1	0	3	0
22	467	7	10000	3	1	0	3	0
23	468	7	10000	3	1	0	3	0
24	469	7	10000	3	1	0	3	0
24	470	7	10000	3	1	0	3	0
23	471	7	10000	3	1	0	3	0
27	472	7	10000	3	1	0	3	0
31	473	7	10000	3	1	0	3	0
37	474	7	10000	3	1	0	3	0
43	475	7	10000	3	1	0	3	0
42	476	7	10000	3	1	0	3	0
44	477	7	10000	3	1	0	3	0
48	478	7	10000	3	1	0	3	0
54	479	7	10000	3	1	0	3	0
56	480	7	10000	3	1	0	3	0
55	481	7	10000	3	1	0	3	0
55	482	7	10000	3	1	0	3	0
55	483	7	10000	3	1	0	3	0
55	484	7	10000	3	1	0	3	0
53	485	7	10000	3	1	0	3	0
49	486	7	10000	3	1	0	3	0
49	487	7	10000	3	1	0	3	0
51	488	7	10000	3	1	0	3	0
53	489	7	10000	3	1	0	3	0
53	490	7	10000	3	1	0	3	0
50	491	7	10000	3	1	0	3	0
50	492	7	10000	3	1	0	3	0
49	493	7	10000	3	1	0	3	0
50	494	7	10000	3	1	0	3	0
50	495	7	10000	3	1	0	3	0
50	496	7	10000	3	1	0	3	0
49	497	7	10000	3	1	0	3	0
45	498	7	10000	3	1	0	3	0
45	499	7	10000	3	1	0	3	0
44	500	7	10000	3	1	0	3	0
42	501	7	10000	3	1	0	3	0
40	502	7	10000	3	1	0	3	1
39	503	7	10000	3	1	0	3	1
38	504	7	10000	3	1	0	3	1
36	505	7	10000	3	1	0	3	1
34	506	7	10000	3	1	0	3	1
35	507	7	10000	3	1	0	3	1
35	508	7	10000	3	1	0	3	1
33	509	7	10000	3	1	0	3	1
32	510	7	10000	3	1	0	3	1
32	511	7	10000	3	1	0	3	1
31	512	7	10000	3	1	0	3	1
30	513	7	10000	3	1	0	3	1
30	514	7	10000	3	1	0	3	1
30	515	7	10000	3	1	0	3	1
30	516	7	10000	3	1	0	3	1
27	517	7	10000	3	1	0	3	1
25	518	7	10000	3	1	0	3	1
25	519	7	10000	3	1	0	3	1
24	520	7	10000	3	1	0	3	1
24	521	7	10000	3	1	0	3	1
25	522	7	10000	3	1	0	3	1
24	523	7	10000	3	1	0	3	1
24	524	7	10000	3	1	0	3	1
25	525	7	10000	3	1	0	3	1
23	526	7	10000	3	1	0	3	1
25	527	7	10000	3	1	0	3	1
25	528	7	10000	3	1	0	3	1
24	529	7	10000	3	1	0	3	1
23	530	7	10000	3	1	0	3	1
24	531	7	10000	3	1	0	3	1
25	532	7	10000	3	1	0	3	1
24	533	7	10000	3	1	0	3	1
24	534	7	10000	3	1	0	3	1
25	535	7	10000	3	1	0	3	1
25	536	7	10000	3	1	0	3	1
23	537	7	10000	3	1	0	3	1
22	538	7	10000	3	1	0	3	1
21	539	7	10000	3	1	0	3	1
21	540	7	10000	3	1	0	3	1
21	541	7	10000	3	1	0	3	1
20	542	7	10000	3	1	0	3	1
20	543	7	10000	3	1	0	3	1
20	544	7	10000	3	1	0	3	1
19	545	7	10000	3	1	0	3	1
20	546	7	10000	3	1	0	3	1
22	547	7	10000	3	1	0	3	1
22	548	7	10000	3	1	0	3	1
22	549	7	10000	3	1	0	3	1
22	550	7	10000	3	1	0	3	1
20	551	7	10000	3	1	0	3	1
19	552	7	10000	3	1	0	3	0
19	553	7	10000	3	1	0	3	0
19	554	7	10000	3	1	0	3	0
21	555	7	10000	3	1	0	3	0
21	556	7	10000	3	1	0	3	0
19	557	7	10000	3	1	0	3	0
18	558	7	10000	3	1	0	3	0
17	559	7	10000	3	1	0	3	0
18	560	7	10000	3	1	0	3	0
17	561	7	10000	3	1	0	3	0
16	562	7	10000	3	1	0	3	0
16	563	7	10000	3	1	0	3	0
16	564	7	10000	3	1	0	3	0
16	565	7	10000	3	1	0	3	0
15	566	7	10000	3	1	0	3	0
16	567	7	10000	3	1	0	3	0
16	568	7	10000	3	1	0	3	0
16	569	7	10000	3	1	0	3	0
16	570	7	10000	3	1	0	3	0
16	571	7	10000	3	1	0	3	0
17	572	7	10000	3	1	0	3	0
17	573	7	10000	3	1	0	3	0
17	574	7	10000	3	1	0	3	0
18	575	7	10000	3	1	0	3	0
18	576	7	10000	3	1	0	3	0
17	577	7	10000	3	1	0	3	0
16	578	7	10000	3	1	0	3	0
16	579	7	10000	3	1	0	3	0
17	580	7	10000	3	1	0	3	0
18	581	7	10000	3	1	0	3	0
18	582	7	10000	3	1	0	3	0
18	583	7	10000	3	1	0	3	0
18	584	7	10000	3	1	0	3	0
18	585	7	10000	3	1	0	3	0
20	586	7	10000	3	1	0	3	0
26	587	7	10000	3	1	0	3	0
33	588	7	10000	3	1	0	3	0
42	589	7	10000	3	1	0	3	0
57	590	7	10000	3	1	0	3	0
75	591	7	10000	3	1	0	3	0
114	592	7	10000	3	1	0	3	0
167	593	7	10000	3	1	0	3	0
175	594	7	10000	3	1	0	3	0
189	595	7	10000	3	1	0	3	0
184	596	7	10000	3	1	0	3	0
176	597	7	10000	3	1	0	3	0
193	598	7	10000	3	1	0	3	0
200	599	7	10000	3	1	0	3	0
205	600	7	10000	3	1	0	3	0
226	601	7	10000	3	1	0	3	0
265	602	7	10000	3	1	0	3	0
267	603	7	10000	3	1	0	3	0
400	604	7	10000	3	1	0	3	0
586	605	7	10000	3	1	0	3	0
622	606	7	10000	3	1	0	3	0
719	607	7	10000	3	1	0	3	0
877	608	7	10000	3	1	0	3	0
999	609	7	10000	3	1	0	3	0
1072	610	7	10000	3	1	0	3	0
1123	611	7	10000	3	1	0	3	0
1161	612	7	10000	3	1	0	3	0
1150	613	7	10000	3	1	0	3	0
1173	614	7	10000	3	1	0	3	0
1291	615	7	10000	3	1	0	3	0
1315	616	7	10000	3	1	0	3	0
1285	617	7	10000	3	1	0	3	0
1257	618	7	10000	3	1	0	3	0
1208	619	7	10000	3	1	0	3	0
1159	620	7	10000	3	1	0	3	0
1176	621	7	10000	3	1	0	3	0
1189	622	7	10000	3	1	0	3	0
1187	623	7	10000	3	1	0	3	0
1282	624	7	10000	3	1	0	3	0
1327	625	7	10000	3	1	0	3	0
1320	626	7	10000	3	1	0	3	0
1298	627	7	10000	3	1	0	3	0
1378	628	7	10000	3	1	0	3	0
1482	629	7	10000	3	1	0	3	0
1548	630	7	10000	3	1	0	3	0
1560	631	7	10000	3	1	0	3	0
1524	632	7	10000	3	1	0	3	0
1459	633	7	10000	3	1	0	3	0
1396	634	7	10000	3	1	0	3	0
1340	635	7	10000	3	1	0	3	0
1290	636	7	10000	3	1	0	3	0
1240	637	7	10000	3	1	0	3	0
1194	638	7	10000	3	1	0	3	0
1152	639	7	10000	3	1	0	3	0
1108	640	7	10000	3	1	0	3	0
1066	641	7	10000	3	1	0	3	0
1025	642	7	10000	3	1	0	3	0
987	643	7	10000	3	1	0	3	0
950	644	7	10000	3	1	0	3	0
917	645	7	10000	3	1	0	3	0
889	646	7	10000	3	1	0	3	0
866	647	7	10000	3	1	0	3	0
841	648	7	10000	3	1	0	3	0
820	649	7	10000	3	1	0	3	0
814	650	7	10000	3	1	0	3	0
790	651	7	10000	3	1	0	3	0
764	652	7	10000	3	1	0	3	0
748	653	7	10000	3	1	0	3	0
730	654	7	10000	3	1	0	3	0
709	655	7	10000	3	1	0	3	0
687	656	7	10000	3	1	0	3	0
667	657	7	10000	3	1	0	3	0
653	658	7	10000	3	1	0	3	0
643	659	7	10000	3	1	0	3	0
629	660	7	10000	3	1	0	3	0
616	661	7	10000	3	1	0	3	0
600	662	7	10000	3	1	0	3	0
586	663	7	10000	3	1	0	3	0
570	664	7	10000	3	1	0	3	0
552	665	7	10000	3	1	0	3	0
532	666	7	10000	3	1	0	3	0
513	667	7	10000	3	1	0	3	0
492	668	7	10000	3	1	0	3	0
470	669	7	10000	3	1	0	3	0
448	670	7	10000	3	1	0	3	0
427	671	7	10000	3	1	0	3	0
408	672	7	10000	3	1	0	3	0
390	673	7	10000	3	1	0	3	0
374	674	7	10000	3	1	0	3	0
361	675	7	10000	3	1	0	3	0
350	676	7	10000	3	1	0	3	0
337	677	7	10000	3	1	0	3	0
327	678	7	10000	3	1	0	3	0
320	679	7	10000	3	1	0	3	0
313	680	7	10000	3	1	0	3	0
306	681	7	10000	3	1	0	3	0
296	682	7	10000	3	1	0	3	0
285	683	7	10000	3	1	0	3	0
274	684	7	10000	3	1	0	3	0
261	685	7	10000	3	1	0	3	0
254	686	7	10000	3	1	0	3	0
252	687	7	10000	3	1	0	3	0
253	688	7	10000	3	1	0	3	0
253	689	7	10000	3	1	0	3	0
256	690	7	10000	3	1	0	3	0
260	691	7	10000	3	1	0	3	0
262	692	7	10000	3	1	0	3	0
263	693	7	10000	3	1	0	3	0
265	694	7	10000	3	1	0	3	0
263	695	7	10000	3	1	0	3	0
261	696	7	10000	3	1	0	3	0
256	697	7	10000	3	1	0	3	0
248	698	7	10000	3	1	0	3	0
241	699	7	10000	3	1	0	3	0
234	700	7	10000	3	1	0	3	0
231	701	7	10000	3	1	0	3	0
226	702	7	10000	3	1	0	3	0
221	703	7	10000	3	1	0	3	0
222	704	7	10000	3	1	0	3	0
226	705	7	10000	3	1	0	3	0
230	706	7	10000	3	1	0	3	0
235	707	7	10000	3	1	0	3	0
240	708	7	10000	3	1	0	3	0
246	709	7	10000	3	1	0	3	0
252	710	7	10000	3	1	0	3	0
260	711	7	10000	3	1	0	3	0
265	712	7	10000	3	1	0	3	0
270	713	7	10000	3	1	0	3	0
273	714	7	10000	3	1	0	3	0
272	715	7	10000	3	1	0	3	0
267	716	7	10000	3	1	0	3	0
268	717	7	10000	3	1	0	3	0
270	718	7	10000	3	1	0	3	0
262	719	7	10000	3	1	0	3	0
250	720	7	10000	3	1	0	3	0
239	721	7	10000	3	1	0	3	0
232	722	7	10000	3	1	0	3	0
222	723	7	10000	3	1	0	3	0
215	724	7	10000	3	1	0	3	0
208	725	7	10000	3	1	0	3	0
199	726	7	10000	3	1	0	3	0
200	727	7	10000	3	1	0	3	0
210	728	7	10000	3	1	0	3	0
218	729	7	10000	3	1	0	3	0
221	730	7	10000	3	1	0	3	0
221	731	7	10000	3	1	0	3	0
222	732	7	10000	3	1	0	3	0
227	733	7	10000	3	1	0	3	0
222	734	7	10000	3	1	0	3	0
214	735	7	10000	3	1	0	3	0
207	736	7	10000	3	1	0	3	0
200	737	7	10000	3	1	0	3	0
194	738	7	10000	3	1	0	3	0
192	739	7	10000	3	1	0	3	0
192	740	7	10000	3	1	0	3	0
192	741	7	10000	3	1	0	3	0
191	742	7	10000	3	1	0	3	0
190	743	7	10000	3	1	0	3	0
186	744	7	10000	3	1	0	3	0
177	745	7	10000	3	1	0	3	0
169	746	7	10000	3	1	0	3	0
164	747	7	10000	3	1	0	3	0
167	748	7	10000	3	1	0	3	0
174	749	7	10000	3	1	0	3	0
173	750	7	10000	3	1	0	3	0
169	751	7	10000	3	1	0	3	0
164	752	7	10000	3	1	0	3	0
159	753	7	10000	3	1	0	3	0
153	754	7	10000	3	1	0	3	0
147	755	7	10000	3	1	0	3	0
142	756	7	10000	3	1	0	3	0
139	757	7	10000	3	1	0	3	0
141	758	7	10000	3	1	0	3	0
148	759	7	10000	3	1	0	3	0
147	760	7	10000	3	1	0	3	0
148	761	7	10000	3	1	0	3	0
150	762	7	10000	3	1	0	3	0
150	763	7	10000	3	1	0	3	0
146	764	7	10000	3	1	0	3	0
139	765	7	10000	3	1	0	3	0
135	766	7	10000	3	1	0	3	0
132	767	7	10000	3	1	0	3	0
128	768	7	10000	3	1	0	3	0
130	769	7	10000	3	1	0	3	0
140	770	7	10000	3	1	0	3	0
144	771	7	10000	3	1	0	3	0
143	772	7	10000	3	1	0	3	0
148	773	7	10000	3	1	0	3	0
149	774	7	10000	3	1	0	3	0
146	775	7	10000	3	1	0	3	0
144	776	7	10000	3	1	0	3	0
141	777	7	10000	3	1	0	3	0
136	778	7	10000	3	1	0	3	0
136	779	7	10000	3	1	0	3	0
143	780	7	10000	3	1	0	3	0
150	781	7	10000	3	1	0	3	0
150	782	7	10000	3	1	0	3	0
147	783	7	10000	3	1	0	3	0
143	784	7	10000	3	1	0	3	0
136	785	7	10000	3	1	0	3	0
129	786	7	10000	3	1	0	3	0
127	787	7	10000	3	1	0	3	0
123	788	7	10000	3	1	0	3	0
124	789	7	10000	3	1	0	3	0
124	790	7	10000	3	1	0	3	0
119	791	7	10000	3	1	0	3	0
115	792	7	10000	3	1	0	3	0
111	793	7	10000	3	1	0	3	0
110	794	7	10000	3	1	0	3	0
107	795	7	10000	3	1	0	3	0
105	796	7	10000	3	1	0	3	0
105	797	7	10000	3	1	0	3	0
110	798	7	10000	3	1	0	3	0
114	799	7	10000	3	1	0	3	0
111	800	7	10000	3	1	0	3	0
107	801	7	10000	3	1	0	3	0
108	802	7	10000	3	1	0	3	0
109	803	7	10000	3	1	0	3	0
107	804	7	10000	3	1	0	3	0
108	805	7	10000	3	1	0	3	0
109	806	7	10000	3	1	0	3	0
108	807	7	10000	3	1	0	3	0
108	808	7	10000	3	1	0	3	0
107	809	7	10000	3	1	0	3	0
105	810	7	10000	3	1	0	3	0
105	811	7	10000	3	1	0	3	0
104	812	7	10000	3	1	0	3	0
105	813	7	10000	3	1	0	3	0
103	814	7	10000	3	1	0	3	0
101	815	7	10000	3	1	0	3	0
98	816	7	10000	3	1	0	3	0
93	817	7	10000	3	1	0	3	0
90	818	7	10000	3	1	0	3	0
90	819	7	10000	3	1	0	3	0
87	820	7	10000	3	1	0	3	0
84	821	7	10000	3	1	0	3	0
81	822	7	10000	3	1	0	3	0
82	823	7	10000	3	1	0	3	0
79	824	7	10000	3	1	0	3	0
78	825	7	10000	3	1	0	3	0
77	826	7	10000	3	1	0	3	0
75	827	7	10000	3	1	0	3	0
75	828	7	10000	3	1	0	3	0
78	829	7	10000	3	1	0	3	0
83	830	7	10000	3	1	0	3	0
86	831	7	10000	3	1	0	3	0
84	832	7	10000	3	1	0	3	0
82	833	7	10000	3	1	0	3	0
80	834	7	10000	3	1	0	3	0
77	835	7	10000	3	1	0	3	0
78	836	7	10000	3	1	0	3	0
87	837	7	10000	3	1	0	3	0
87	838	7	10000	3	1	0	3	0
91	839	7	10000	3	1	0	3	0
98	840	7	10000	3	1	0	3	0
102	841	7	10000	3	1	0	3	0
111	842	7	10000	3	1	0	3	0
124	843	7	10000	3	1	0	3	0
130	844	7	10000	3	1	0	3	0
130	845	7	10000	3	1	0	3	0
128	846	7	10000	3	1	0	3	0
132	847	7	10000	3	1	0	3	0
136	848	7	10000	3	1	0	3	0
141	849	7	10000	3	1	0	3	0
145	850	7	10000	3	1	0	3	0
140	851	7	10000	3	1	0	3	0
135	852	7	10000	3	1	0	3	0
130	853	7	10000	3	1	0	3	0
126	854	7	10000	3	1	0	3	0
121	855	7	10000	3	1	0	3	0
118	856	7	10000	3	1	0	3	0
112	857	7	10000	3	1	0	3	0
107	858	7	10000	3	1	0	3	0
105	859	7	10000	3	1	0	3	0
103	860	7	10000	3	1	0	3	0
102	861	7	10000	3	1	0	3	0
103	862	7	10000	3	1	0	3	0
103	863	7	10000	3	1	0	3	0
101	864	7	10000	3	1	0	3	0
97	865	7	10000	3	1	0	3	0
91	866	7	10000	3	1	0	3	0
88	867	7	10000	3	1	0	3	0
88	868	7	10000	3	1	0	3	0
85	869	7	10000	3	1	0	3	0
87	870	7	10000	3	1	0	3	0
90	871	7	10000	3	1	0	3	0
93	872	7	10000	3	1	0	3	0
91	873	7	10000	3	1	0	3	0
87	874	7	10000	3	1	0	3	0
85	875	7	10000	3	1	0	3	0
83	876	7	10000	3	1	0	3	0
83	877	7	10000	3	1	0	3	0
85	878	7	10000	3	1	0	3	0
83	879	7	10000	3	1	0	3	0
82	880	7	10000	3	1	0	3	0
85	881	7	10000	3	1	0	3	0
93	882	7	10000	3	1	0	3	0
96	883	7	10000	3	1	0	3	0
105	884	7	10000	3	1	0	3	0
104	885	7	10000	3	1	0	3	0
107	886	7	10000	3	1	0	3	0
114	887	7	10000	3	1	0	3	0
112	888	7	10000	3	1	0	3	0
112	889	7	10000	3	1	0	3	0
113	890	7	10000	3	1	0	3	0
108	891	7	10000	3	1	0	3	0
105	892	7	10000	3	1	0	3	0
107	893	7	10000	3	1	0	3	0
107	894	7	10000	3	1	0	3	0
103	895	7	10000	3	1	0	3	0
100	896	7	10000	3	1	0	3	0
96	897	7	10000	3	1	0	3	0
95	898	7	10000	3	1	0	3	0
96	899	7	10000	3	1	0	3	0
96	900	7	10000	3	1	0	3	0
95	901	7	10000	3	1	0	3	0
96	902	7	10000	3	1	0	3	0
96	903	7	10000	3	1	0	3	0
94	904	7	10000	3	1	0	3	0
90	905	7	10000	3	1	0	3	0
88	906	7	10000	3	1	0	3	0
88	907	7	10000	3	1	0	3	0
88	908	7	10000	3	1	0	3	0
86	909	7	10000	3	1	0	3	0
84	910	7	10000	3	1	0	3	0
82	911	7	10000	3	1	0	3	0
79	912	7	10000	3	1	0	3	0
77	913	7	10000	3	1	0	3	0
75	914	7	10000	3	1	0	3	0
75	915	7	10000	3	1	0	3	0
74	916	7	10000	3	1	0	3	0
72	917	7	10000	3	1	0	3	0
71	918	7	10000	3	1	0	3	0
69	919	7	10000	3	1	0	3	0
66	920	7	10000	3	1	0	3	0
67	921	7	10000	3	1	0	3	0
73	922	7	10000	3	1	0	3	0
73	923	7	10000	3	1	0	3	0
78	924	7	10000	3	1	0	3	0
84	925	7	10000	3	1	0	3	0
87	926	7	10000	3	1	0	3	0
87	927	7	10000	3	1	0	3	0
85	928	7	10000	3	1	0	3	0
82	929	7	10000	3	1	0	3	0
78	930	7	10000	3	1	0	3	0
77	931	7	10000	3	1	0	3	0
79	932	7	10000	3	1	0	3	0
80	933	7	10000	3	1	0	3	0
79	934	7	10000	3	1	0	3	0
79	935	7	10000	3	1	0	3	0
78	936	7	10000	3	1	0	3	0
80	937	7	10000	3	1	0	3	0
86	938	7	10000	3	1	0	3	0
87	939	7	10000	3	1	0	3	0
85	940	7	10000	3	1	0	3	0
83	941	7	10000	3	1	0	3	0
80	942	7	10000	3	1	0	3	0
78	943	7	10000	3	1	0	3	0
74	944	7	10000	3	1	0	3	0
71	945	7	10000	3	1	0	3	0
69	946	7	10000	3	1	0	3	0
69	947	7	10000	3	1	0	3	0
68	948	7	10000	3	1	0	3	0
68	949	7	10000	3	1	0	3	0
69	950	7	10000	3	1	0	3	0
69	951	7	10000	3	1	0	3	0
67	952	7	10000	3	1	0	3	0
64	953	7	10000	3	1	0	3	0
62	954	7	10000	3	1	0	3	0
62	955	7	10000	3	1	0	3	0
61	956	7	10000	3	1	0	3	0
59	957	7	10000	3	1	0	3	0
56	958	7	10000	3	1	0	3	0
56	959	7	10000	3	1	0	3	0
55	960	7	10000	3	1	0	3	0
54	961	7	10000	3	1	0	3	0
54	962	7	10000	3	1	0	3	0
54	963	7	10000	3	1	0	3	0
52	964	7	10000	3	1	0	3	0
50	965	7	10000	3	1	0	3	0
48	966	7	10000	3	1	0	3	0
49	967	7	10000	3	1	0	3	0
53	968	7	10000	3	1	0	3	0
55	969	7	10000	3	1	0	3	0
56	970	7	10000	3	1	0	3	0
57	971	7	10000	3	1	0	3	0
56	972	7	10000	3	1	0	3	0
54	973	7	10000	3	1	0	3	0
52	974	7	10000	3	1	0	3	0
52	975	7	10000	3	1	0	3	0
54	976	7	10000	3	1	0	3	0
52	977	7	10000	3	1	0	3	0
53	978	7	10000	3	1	0	3	0
55	979	7	10000	3	1	0	3	0
56	980	7	10000	3	1	0	3	0
58	981	7	10000	3	1	0	3	0
60	982	7	10000	3	1	0	3	0
61	983	7	10000	3	1	0	3	0
64	984	7	10000	3	1	0	3	0
69	985	7	10000	3	1	0	3	0
72	986	7	10000	3	1	0	3	0
73	987	7	10000	3	1	0	3	0
76	988	7	10000	3	1	0	3	0
76	989	7	10000	3	1	0	3	0
75	990	7	10000	3	1	0	3	0
72	991	7	10000	3	1	0	3	0
68	992	7	10000	3	1	0	3	0
66	993	7	10000	3	1	0	3	0
63	994	7	10000	3	1	0	3	0
60	995	7	10000	3	1	0	3	0
59	996	7	10000	3	1	0	3	0
56	997	7	10000	3	1	0	3	0
53	998	7	10000	3	1	0	3	0
54	999	7	10000	3	1	0	3	0
54	1000	7	10000	3	1	0	3	0
54	1001	7	10000	3	1	0	3	0
19	2	0	10000	4	1	0	4	0
20	3	0	10000	4	1	0	4	0
19	4	0	10000	4	1	0	4	0
19	5	0	10000	4	1	0	4	0
18	6	0	10000	4	1	0	4	0
19	7	0	10000	4	1	0	4	0
18	8	0	10000	4	1	0	4	0
17	9	0	10000	4	1	0	4	0
19	10	0	10000	4	1	0	4	0
19	11	0	10000	4	1	0	4	0
18	12	0	10000	4	1	0	4	0
16	13	0	10000	4	1	0	4	0
15	14	0	10000	4	1	0	4	0
16	15	0	10000	4	1	0	4	0
15	16	0	10000	4	1	0	4	0
16	17	0	10000	4	1	0	4	0
16	18	0	10000	4	1	0	4	0
16	19	0	10000	4	1	0	4	0
16	20	0	10000	4	1	0	4	0
16	21	0	10000	4	1	0	4	0
16	22	0	10000	4	1	0	4	0
17	23	0	10000	4	1	0	4	0
16	24	0	10000	4	1	0	4	0
15	25	0	10000	4	1	0	4	0
17	26	0	10000	4	1	0	4	0
18	27	0	10000	4	1	0	4	0
18	28	0	10000	4	1	0	4	0
19	29	0	10000	4	1	0	4	0
20	30	0	10000	4	1	0	4	0
21	31	0	10000	4	1	0	4	0
22	32	0	10000	4	1	0	4	0
20	33	0	10000	4	1	0	4	0
20	34	0	10000	4	1	0	4	0
21	35	0	10000	4	1	0	4	0
21	36	0	10000	4	1	0	4	0
20	37	0	10000	4	1	0	4	0
20	38	0	10000	4	1	0	4	0
20	39	0	10000	4	1	0	4	0
19	40	0	10000	4	1	0	4	0
18	41	0	10000	4	1	0	4	0
18	42	0	10000	4	1	0	4	0
19	43	0	10000	4	1	0	4	0
20	44	0	10000	4	1	0	4	0
21	45	0	10000	4	1	0	4	0
23	46	0	10000	4	1	0	4	0
22	47	0	10000	4	1	0	4	0
22	48	0	10000	4	1	0	4	0
22	49	0	10000	4	1	0	4	0
23	50	0	10000	4	1	0	4	0
24	51	0	10000	4	1	0	4	0
24	52	0	10000	4	1	0	4	0
22	53	0	10000	4	1	0	4	0
22	54	0	10000	4	1	0	4	0
22	55	0	10000	4	1	0	4	0
22	56	0	10000	4	1	0	4	0
22	57	0	10000	4	1	0	4	0
22	58	0	10000	4	1	0	4	0
22	59	0	10000	4	1	0	4	0
22	60	0	10000	4	1	0	4	0
21	61	0	10000	4	1	0	4	0
23	62	0	10000	4	1	0	4	0
25	63	0	10000	4	1	0	4	0
23	64	0	10000	4	1	0	4	0
23	65	0	10000	4	1	0	4	0
23	66	0	10000	4	1	0	4	0
22	67	0	10000	4	1	0	4	0
21	68	0	10000	4	1	0	4	0
20	69	0	10000	4	1	0	4	0
21	70	0	10000	4	1	0	4	0
21	71	0	10000	4	1	0	4	0
21	72	0	10000	4	1	0	4	0
19	73	0	10000	4	1	0	4	0
20	74	0	10000	4	1	0	4	0
20	75	0	10000	4	1	0	4	0
20	76	0	10000	4	1	0	4	0
20	77	0	10000	4	1	0	4	0
20	78	0	10000	4	1	0	4	0
20	79	0	10000	4	1	0	4	0
19	80	0	10000	4	1	0	4	0
20	81	0	10000	4	1	0	4	0
20	82	0	10000	4	1	0	4	0
22	83	0	10000	4	1	0	4	0
21	84	0	10000	4	1	0	4	0
22	85	0	10000	4	1	0	4	0
21	86	0	10000	4	1	0	4	0
20	87	0	10000	4	1	0	4	0
21	88	0	10000	4	1	0	4	0
20	89	0	10000	4	1	0	4	0
21	90	0	10000	4	1	0	4	0
22	91	0	10000	4	1	0	4	0
21	92	0	10000	4	1	0	4	0
18	93	0	10000	4	1	0	4	0
19	94	0	10000	4	1	0	4	0
19	95	0	10000	4	1	0	4	0
19	96	0	10000	4	1	0	4	0
19	97	0	10000	4	1	0	4	0
19	98	0	10000	4	1	0	4	0
20	99	0	10000	4	1	0	4	0
20	100	0	10000	4	1	0	4	0
19	101	0	10000	4	1	0	4	0
20	102	0	10000	4	1	0	4	0
23	103	0	10000	4	1	0	4	0
22	104	0	10000	4	1	0	4	0
22	105	0	10000	4	1	0	4	0
22	106	0	10000	4	1	0	4	0
21	107	0	10000	4	1	0	4	0
20	108	0	10000	4	1	0	4	0
20	109	0	10000	4	1	0	4	0
20	110	0	10000	4	1	0	4	0
20	111	0	10000	4	1	0	4	0
20	112	0	10000	4	1	0	4	0
18	113	0	10000	4	1	0	4	0
17	114	0	10000	4	1	0	4	0
17	115	0	10000	4	1	0	4	0
17	116	0	10000	4	1	0	4	0
16	117	0	10000	4	1	0	4	0
16	118	0	10000	4	1	0	4	0
17	119	0	10000	4	1	0	4	0
15	120	0	10000	4	1	0	4	0
15	121	0	10000	4	1	0	4	0
15	122	0	10000	4	1	0	4	0
18	123	0	10000	4	1	0	4	0
18	124	0	10000	4	1	0	4	0
19	125	0	10000	4	1	0	4	0
19	126	0	10000	4	1	0	4	0
20	127	0	10000	4	1	0	4	0
20	128	0	10000	4	1	0	4	0
19	129	0	10000	4	1	0	4	0
20	130	0	10000	4	1	0	4	0
19	131	0	10000	4	1	0	4	0
19	132	0	10000	4	1	0	4	0
17	133	0	10000	4	1	0	4	0
17	134	0	10000	4	1	0	4	0
17	135	0	10000	4	1	0	4	0
19	136	0	10000	4	1	0	4	0
20	137	0	10000	4	1	0	4	0
20	138	0	10000	4	1	0	4	0
21	139	0	10000	4	1	0	4	0
20	140	0	10000	4	1	0	4	0
21	141	0	10000	4	1	0	4	0
20	142	0	10000	4	1	0	4	0
21	143	0	10000	4	1	0	4	0
20	144	0	10000	4	1	0	4	0
20	145	0	10000	4	1	0	4	0
20	146	0	10000	4	1	0	4	0
20	147	0	10000	4	1	0	4	0
21	148	0	10000	4	1	0	4	0
20	149	0	10000	4	1	0	4	0
21	150	0	10000	4	1	0	4	0
23	151	0	10000	4	1	0	4	0
26	152	0	10000	4	1	0	4	0
24	153	0	10000	4	1	0	4	0
25	154	0	10000	4	1	0	4	0
24	155	0	10000	4	1	0	4	0
24	156	0	10000	4	1	0	4	0
24	157	0	10000	4	1	0	4	0
23	158	0	10000	4	1	0	4	0
23	159	0	10000	4	1	0	4	0
22	160	0	10000	4	1	0	4	0
22	161	0	10000	4	1	0	4	0
22	162	0	10000	4	1	0	4	0
24	163	0	10000	4	1	0	4	0
23	164	0	10000	4	1	0	4	0
21	165	0	10000	4	1	0	4	0
21	166	0	10000	4	1	0	4	0
20	167	0	10000	4	1	0	4	0
21	168	0	10000	4	1	0	4	0
22	169	0	10000	4	1	0	4	0
22	170	0	10000	4	1	0	4	0
21	171	0	10000	4	1	0	4	0
22	172	0	10000	4	1	0	4	0
19	173	0	10000	4	1	0	4	0
19	174	0	10000	4	1	0	4	0
19	175	0	10000	4	1	0	4	0
21	176	0	10000	4	1	0	4	0
21	177	0	10000	4	1	0	4	0
22	178	0	10000	4	1	0	4	0
23	179	0	10000	4	1	0	4	0
21	180	0	10000	4	1	0	4	0
20	181	0	10000	4	1	0	4	0
20	182	0	10000	4	1	0	4	0
23	183	0	10000	4	1	0	4	0
24	184	0	10000	4	1	0	4	0
23	185	0	10000	4	1	0	4	0
22	186	0	10000	4	1	0	4	0
22	187	0	10000	4	1	0	4	0
22	188	0	10000	4	1	0	4	0
21	189	0	10000	4	1	0	4	0
21	190	0	10000	4	1	0	4	0
23	191	0	10000	4	1	0	4	0
24	192	0	10000	4	1	0	4	0
22	193	0	10000	4	1	0	4	0
21	194	0	10000	4	1	0	4	0
20	195	0	10000	4	1	0	4	0
20	196	0	10000	4	1	0	4	0
20	197	0	10000	4	1	0	4	0
20	198	0	10000	4	1	0	4	0
21	199	0	10000	4	1	0	4	0
21	200	0	10000	4	1	0	4	0
20	201	0	10000	4	1	0	4	0
20	202	0	10000	4	1	0	4	0
21	203	0	10000	4	1	0	4	0
21	204	0	10000	4	1	0	4	0
23	205	0	10000	4	1	0	4	0
23	206	0	10000	4	1	0	4	0
23	207	0	10000	4	1	0	4	0
23	208	0	10000	4	1	0	4	0
23	209	0	10000	4	1	0	4	0
24	210	0	10000	4	1	0	4	0
24	211	0	10000	4	1	0	4	0
27	212	0	10000	4	1	0	4	0
27	213	0	10000	4	1	0	4	0
27	214	0	10000	4	1	0	4	0
30	215	0	10000	4	1	0	4	0
31	216	0	10000	4	1	0	4	0
31	217	0	10000	4	1	0	4	0
31	218	0	10000	4	1	0	4	0
30	219	0	10000	4	1	0	4	0
29	220	0	10000	4	1	0	4	0
27	221	0	10000	4	1	0	4	0
27	222	0	10000	4	1	0	4	0
27	223	0	10000	4	1	0	4	0
26	224	0	10000	4	1	0	4	0
28	225	0	10000	4	1	0	4	0
26	226	0	10000	4	1	0	4	0
26	227	0	10000	4	1	0	4	0
27	228	0	10000	4	1	0	4	0
25	229	0	10000	4	1	0	4	0
25	230	0	10000	4	1	0	4	0
25	231	0	10000	4	1	0	4	0
24	232	0	10000	4	1	0	4	0
21	233	0	10000	4	1	0	4	0
20	234	0	10000	4	1	0	4	0
20	235	0	10000	4	1	0	4	0
20	236	0	10000	4	1	0	4	0
19	237	0	10000	4	1	0	4	0
20	238	0	10000	4	1	0	4	0
20	239	0	10000	4	1	0	4	0
19	240	0	10000	4	1	0	4	0
19	241	0	10000	4	1	0	4	0
20	242	0	10000	4	1	0	4	0
21	243	0	10000	4	1	0	4	0
22	244	0	10000	4	1	0	4	0
21	245	0	10000	4	1	0	4	0
20	246	0	10000	4	1	0	4	0
20	247	0	10000	4	1	0	4	0
19	248	0	10000	4	1	0	4	0
18	249	0	10000	4	1	0	4	0
19	250	0	10000	4	1	0	4	0
19	251	0	10000	4	1	0	4	0
19	252	0	10000	4	1	0	4	0
19	253	0	10000	4	1	0	4	0
18	254	0	10000	4	1	0	4	0
18	255	0	10000	4	1	0	4	0
18	256	0	10000	4	1	0	4	0
17	257	0	10000	4	1	0	4	0
16	258	0	10000	4	1	0	4	0
17	259	0	10000	4	1	0	4	0
16	260	0	10000	4	1	0	4	0
16	261	0	10000	4	1	0	4	0
15	262	0	10000	4	1	0	4	0
17	263	0	10000	4	1	0	4	0
16	264	0	10000	4	1	0	4	0
15	265	0	10000	4	1	0	4	0
15	266	0	10000	4	1	0	4	0
14	267	0	10000	4	1	0	4	0
14	268	0	10000	4	1	0	4	0
15	269	0	10000	4	1	0	4	0
16	270	0	10000	4	1	0	4	0
16	271	0	10000	4	1	0	4	0
16	272	0	10000	4	1	0	4	0
15	273	0	10000	4	1	0	4	0
15	274	0	10000	4	1	0	4	0
16	275	0	10000	4	1	0	4	0
15	276	0	10000	4	1	0	4	0
15	277	0	10000	4	1	0	4	0
19	278	0	10000	4	1	0	4	0
21	279	0	10000	4	1	0	4	0
21	280	0	10000	4	1	0	4	0
21	281	0	10000	4	1	0	4	0
22	282	0	10000	4	1	0	4	0
24	283	0	10000	4	1	0	4	0
24	284	0	10000	4	1	0	4	0
25	285	0	10000	4	1	0	4	0
26	286	0	10000	4	1	0	4	0
26	287	0	10000	4	1	0	4	0
26	288	0	10000	4	1	0	4	0
25	289	0	10000	4	1	0	4	0
25	290	0	10000	4	1	0	4	0
25	291	0	10000	4	1	0	4	0
24	292	0	10000	4	1	0	4	0
21	293	0	10000	4	1	0	4	0
21	294	0	10000	4	1	0	4	0
20	295	0	10000	4	1	0	4	0
20	296	0	10000	4	1	0	4	0
20	297	0	10000	4	1	0	4	0
20	298	0	10000	4	1	0	4	0
19	299	0	10000	4	1	0	4	0
18	300	0	10000	4	1	0	4	0
17	301	0	10000	4	1	0	4	0
17	302	0	10000	4	1	0	4	0
18	303	0	10000	4	1	0	4	0
18	304	0	10000	4	1	0	4	0
18	305	0	10000	4	1	0	4	0
20	306	0	10000	4	1	0	4	0
20	307	0	10000	4	1	0	4	0
20	308	0	10000	4	1	0	4	0
21	309	0	10000	4	1	0	4	0
21	310	0	10000	4	1	0	4	0
20	311	0	10000	4	1	0	4	0
21	312	0	10000	4	1	0	4	0
20	313	0	10000	4	1	0	4	0
22	314	0	10000	4	1	0	4	0
21	315	0	10000	4	1	0	4	0
22	316	0	10000	4	1	0	4	0
21	317	0	10000	4	1	0	4	0
20	318	0	10000	4	1	0	4	0
20	319	0	10000	4	1	0	4	0
19	320	0	10000	4	1	0	4	0
19	321	0	10000	4	1	0	4	0
20	322	0	10000	4	1	0	4	0
22	323	0	10000	4	1	0	4	0
21	324	0	10000	4	1	0	4	0
21	325	0	10000	4	1	0	4	0
20	326	0	10000	4	1	0	4	0
20	327	0	10000	4	1	0	4	0
19	328	0	10000	4	1	0	4	0
18	329	0	10000	4	1	0	4	0
19	330	0	10000	4	1	0	4	0
19	331	0	10000	4	1	0	4	0
18	332	0	10000	4	1	0	4	0
16	333	0	10000	4	1	0	4	0
17	334	0	10000	4	1	0	4	0
18	335	0	10000	4	1	0	4	0
20	336	0	10000	4	1	0	4	0
20	337	0	10000	4	1	0	4	0
20	338	0	10000	4	1	0	4	0
20	339	0	10000	4	1	0	4	0
19	340	0	10000	4	1	0	4	0
19	341	0	10000	4	1	0	4	0
19	342	0	10000	4	1	0	4	0
20	343	0	10000	4	1	0	4	0
21	344	0	10000	4	1	0	4	0
22	345	0	10000	4	1	0	4	0
22	346	0	10000	4	1	0	4	0
21	347	0	10000	4	1	0	4	0
20	348	0	10000	4	1	0	4	0
20	349	0	10000	4	1	0	4	0
21	350	0	10000	4	1	0	4	0
21	351	0	10000	4	1	0	4	0
21	352	0	10000	4	1	0	4	0
19	353	0	10000	4	1	0	4	0
18	354	0	10000	4	1	0	4	0
18	355	0	10000	4	1	0	4	0
19	356	0	10000	4	1	0	4	0
20	357	0	10000	4	1	0	4	0
20	358	0	10000	4	1	0	4	0
21	359	0	10000	4	1	0	4	0
21	360	0	10000	4	1	0	4	0
21	361	0	10000	4	1	0	4	0
21	362	0	10000	4	1	0	4	0
22	363	0	10000	4	1	0	4	0
21	364	0	10000	4	1	0	4	0
23	365	0	10000	4	1	0	4	0
24	366	0	10000	4	1	0	4	0
24	367	0	10000	4	1	0	4	0
23	368	0	10000	4	1	0	4	0
22	369	0	10000	4	1	0	4	0
24	370	0	10000	4	1	0	4	0
25	371	0	10000	4	1	0	4	0
24	372	0	10000	4	1	0	4	0
22	373	0	10000	4	1	0	4	0
23	374	0	10000	4	1	0	4	0
24	375	0	10000	4	1	0	4	0
24	376	0	10000	4	1	0	4	0
23	377	0	10000	4	1	0	4	0
24	378	0	10000	4	1	0	4	0
24	379	0	10000	4	1	0	4	0
22	380	0	10000	4	1	0	4	0
22	381	0	10000	4	1	0	4	0
22	382	0	10000	4	1	0	4	0
24	383	0	10000	4	1	0	4	0
23	384	0	10000	4	1	0	4	0
22	385	0	10000	4	1	0	4	0
21	386	0	10000	4	1	0	4	0
21	387	0	10000	4	1	0	4	0
20	388	0	10000	4	1	0	4	0
19	389	0	10000	4	1	0	4	0
20	390	0	10000	4	1	0	4	0
19	391	0	10000	4	1	0	4	0
18	392	0	10000	4	1	0	4	0
17	393	0	10000	4	1	0	4	0
16	394	0	10000	4	1	0	4	0
16	395	0	10000	4	1	0	4	0
16	396	0	10000	4	1	0	4	0
15	397	0	10000	4	1	0	4	0
15	398	0	10000	4	1	0	4	0
16	399	0	10000	4	1	0	4	0
15	400	0	10000	4	1	0	4	0
14	401	0	10000	4	1	0	4	0
13	402	0	10000	4	1	0	4	0
16	403	0	10000	4	1	0	4	0
17	404	0	10000	4	1	0	4	0
17	405	0	10000	4	1	0	4	0
20	406	0	10000	4	1	0	4	0
22	407	0	10000	4	1	0	4	0
23	408	0	10000	4	1	0	4	0
22	409	0	10000	4	1	0	4	0
23	410	0	10000	4	1	0	4	0
24	411	0	10000	4	1	0	4	0
24	412	0	10000	4	1	0	4	0
21	413	0	10000	4	1	0	4	0
22	414	0	10000	4	1	0	4	0
24	415	0	10000	4	1	0	4	0
25	416	0	10000	4	1	0	4	0
25	417	0	10000	4	1	0	4	0
26	418	0	10000	4	1	0	4	0
25	419	0	10000	4	1	0	4	0
24	420	0	10000	4	1	0	4	0
24	421	0	10000	4	1	0	4	0
24	422	0	10000	4	1	0	4	0
25	423	0	10000	4	1	0	4	0
24	424	0	10000	4	1	0	4	0
23	425	0	10000	4	1	0	4	0
22	426	0	10000	4	1	0	4	0
22	427	0	10000	4	1	0	4	0
22	428	0	10000	4	1	0	4	0
20	429	0	10000	4	1	0	4	0
20	430	0	10000	4	1	0	4	0
20	431	0	10000	4	1	0	4	0
20	432	0	10000	4	1	0	4	0
19	433	0	10000	4	1	0	4	0
19	434	0	10000	4	1	0	4	0
19	435	0	10000	4	1	0	4	0
19	436	0	10000	4	1	0	4	0
18	437	0	10000	4	1	0	4	0
18	438	0	10000	4	1	0	4	0
18	439	0	10000	4	1	0	4	0
17	440	0	10000	4	1	0	4	0
16	441	0	10000	4	1	0	4	0
15	442	0	10000	4	1	0	4	0
19	443	0	10000	4	1	0	4	0
18	444	0	10000	4	1	0	4	0
17	445	0	10000	4	1	0	4	0
18	446	0	10000	4	1	0	4	0
18	447	0	10000	4	1	0	4	0
18	448	0	10000	4	1	0	4	0
17	449	0	10000	4	1	0	4	0
18	450	0	10000	4	1	0	4	0
18	451	0	10000	4	1	0	4	0
18	452	0	10000	4	1	0	4	0
16	453	0	10000	4	1	0	4	0
15	454	0	10000	4	1	0	4	0
16	455	0	10000	4	1	0	4	0
19	456	0	10000	4	1	0	4	0
21	457	0	10000	4	1	0	4	0
22	458	0	10000	4	1	0	4	0
23	459	0	10000	4	1	0	4	0
23	460	0	10000	4	1	0	4	0
25	461	0	10000	4	1	0	4	0
27	462	0	10000	4	1	0	4	0
30	463	0	10000	4	1	0	4	0
28	464	0	10000	4	1	0	4	0
27	465	0	10000	4	1	0	4	0
26	466	0	10000	4	1	0	4	0
25	467	0	10000	4	1	0	4	0
25	468	0	10000	4	1	0	4	0
25	469	0	10000	4	1	0	4	0
24	470	0	10000	4	1	0	4	0
24	471	0	10000	4	1	0	4	0
24	472	0	10000	4	1	0	4	0
22	473	0	10000	4	1	0	4	0
22	474	0	10000	4	1	0	4	0
22	475	0	10000	4	1	0	4	0
21	476	0	10000	4	1	0	4	0
21	477	0	10000	4	1	0	4	0
20	478	0	10000	4	1	0	4	0
20	479	0	10000	4	1	0	4	0
19	480	0	10000	4	1	0	4	0
20	481	0	10000	4	1	0	4	0
19	482	0	10000	4	1	0	4	0
20	483	0	10000	4	1	0	4	0
20	484	0	10000	4	1	0	4	0
20	485	0	10000	4	1	0	4	0
19	486	0	10000	4	1	0	4	0
19	487	0	10000	4	1	0	4	0
18	488	0	10000	4	1	0	4	0
18	489	0	10000	4	1	0	4	0
20	490	0	10000	4	1	0	4	0
20	491	0	10000	4	1	0	4	0
20	492	0	10000	4	1	0	4	0
21	493	0	10000	4	1	0	4	0
21	494	0	10000	4	1	0	4	0
21	495	0	10000	4	1	0	4	0
22	496	0	10000	4	1	0	4	0
22	497	0	10000	4	1	0	4	0
23	498	0	10000	4	1	0	4	0
24	499	0	10000	4	1	0	4	0
21	500	0	10000	4	1	0	4	0
21	501	0	10000	4	1	0	4	0
21	501	0	10000	4	1	0	4	1
23	502	0	10000	4	1	0	4	1
22	504	0	10000	4	1	0	4	1
21	505	0	10000	4	1	0	4	1
20	506	0	10000	4	1	0	4	1
21	507	0	10000	4	1	0	4	1
21	508	0	10000	4	1	0	4	1
22	509	0	10000	4	1	0	4	1
23	510	0	10000	4	1	0	4	1
23	511	0	10000	4	1	0	4	1
23	512	0	10000	4	1	0	4	1
21	513	0	10000	4	1	0	4	1
21	514	0	10000	4	1	0	4	1
21	515	0	10000	4	1	0	4	1
20	516	0	10000	4	1	0	4	1
20	517	0	10000	4	1	0	4	1
21	518	0	10000	4	1	0	4	1
20	519	0	10000	4	1	0	4	1
21	520	0	10000	4	1	0	4	1
21	521	0	10000	4	1	0	4	1
21	522	0	10000	4	1	0	4	1
25	523	0	10000	4	1	0	4	1
25	524	0	10000	4	1	0	4	1
23	525	0	10000	4	1	0	4	1
22	526	0	10000	4	1	0	4	1
22	527	0	10000	4	1	0	4	1
20	528	0	10000	4	1	0	4	1
20	529	0	10000	4	1	0	4	1
22	530	0	10000	4	1	0	4	1
23	531	0	10000	4	1	0	4	1
22	532	0	10000	4	1	0	4	1
21	533	0	10000	4	1	0	4	1
22	534	0	10000	4	1	0	4	1
21	535	0	10000	4	1	0	4	1
21	536	0	10000	4	1	0	4	1
22	537	0	10000	4	1	0	4	1
21	538	0	10000	4	1	0	4	1
22	539	0	10000	4	1	0	4	1
22	540	0	10000	4	1	0	4	1
22	541	0	10000	4	1	0	4	1
22	542	0	10000	4	1	0	4	1
25	543	0	10000	4	1	0	4	1
26	544	0	10000	4	1	0	4	1
26	545	0	10000	4	1	0	4	1
25	546	0	10000	4	1	0	4	1
26	547	0	10000	4	1	0	4	1
24	548	0	10000	4	1	0	4	1
24	549	0	10000	4	1	0	4	1
24	550	0	10000	4	1	0	4	1
24	551	0	10000	4	1	0	4	1
24	552	0	10000	4	1	0	4	0
23	553	0	10000	4	1	0	4	0
22	554	0	10000	4	1	0	4	0
23	555	0	10000	4	1	0	4	0
23	556	0	10000	4	1	0	4	0
23	557	0	10000	4	1	0	4	0
23	558	0	10000	4	1	0	4	0
22	559	0	10000	4	1	0	4	0
21	560	0	10000	4	1	0	4	0
21	561	0	10000	4	1	0	4	0
21	562	0	10000	4	1	0	4	0
23	563	0	10000	4	1	0	4	0
22	564	0	10000	4	1	0	4	0
22	565	0	10000	4	1	0	4	0
21	566	0	10000	4	1	0	4	0
21	567	0	10000	4	1	0	4	0
20	568	0	10000	4	1	0	4	0
19	569	0	10000	4	1	0	4	0
20	570	0	10000	4	1	0	4	0
20	571	0	10000	4	1	0	4	0
20	572	0	10000	4	1	0	4	0
19	573	0	10000	4	1	0	4	0
19	574	0	10000	4	1	0	4	0
20	575	0	10000	4	1	0	4	0
21	576	0	10000	4	1	0	4	0
21	577	0	10000	4	1	0	4	0
21	578	0	10000	4	1	0	4	0
23	579	0	10000	4	1	0	4	0
25	580	0	10000	4	1	0	4	0
35	581	0	10000	4	1	0	4	0
52	582	0	10000	4	1	0	4	0
65	583	0	10000	4	1	0	4	0
92	584	0	10000	4	1	0	4	0
119	585	0	10000	4	1	0	4	0
148	586	0	10000	4	1	0	4	0
157	587	0	10000	4	1	0	4	0
169	588	0	10000	4	1	0	4	0
188	589	0	10000	4	1	0	4	0
252	590	0	10000	4	1	0	4	0
268	591	0	10000	4	1	0	4	0
304	592	0	10000	4	1	0	4	0
309	593	0	10000	4	1	0	4	0
349	594	0	10000	4	1	0	4	0
417	595	0	10000	4	1	0	4	0
505	596	0	10000	4	1	0	4	0
545	597	0	10000	4	1	0	4	0
562	598	0	10000	4	1	0	4	0
634	599	0	10000	4	1	0	4	0
670	600	0	10000	4	1	0	4	0
668	601	0	10000	4	1	0	4	0
679	602	0	10000	4	1	0	4	0
669	603	0	10000	4	1	0	4	0
666	604	0	10000	4	1	0	4	0
670	605	0	10000	4	1	0	4	0
681	606	0	10000	4	1	0	4	0
754	607	0	10000	4	1	0	4	0
868	608	0	10000	4	1	0	4	0
958	609	0	10000	4	1	0	4	0
996	610	0	10000	4	1	0	4	0
972	611	0	10000	4	1	0	4	0
985	612	0	10000	4	1	0	4	0
1016	613	0	10000	4	1	0	4	0
1064	614	0	10000	4	1	0	4	0
1077	615	0	10000	4	1	0	4	0
1105	616	0	10000	4	1	0	4	0
1207	617	0	10000	4	1	0	4	0
1248	618	0	10000	4	1	0	4	0
1229	619	0	10000	4	1	0	4	0
1248	620	0	10000	4	1	0	4	0
1322	621	0	10000	4	1	0	4	0
1445	622	0	10000	4	1	0	4	0
1556	623	0	10000	4	1	0	4	0
1595	624	0	10000	4	1	0	4	0
1566	625	0	10000	4	1	0	4	0
1502	626	0	10000	4	1	0	4	0
1435	627	0	10000	4	1	0	4	0
1381	628	0	10000	4	1	0	4	0
1335	629	0	10000	4	1	0	4	0
1294	630	0	10000	4	1	0	4	0
1252	631	0	10000	4	1	0	4	0
1206	632	0	10000	4	1	0	4	0
1157	633	0	10000	4	1	0	4	0
1109	634	0	10000	4	1	0	4	0
1062	635	0	10000	4	1	0	4	0
1019	636	0	10000	4	1	0	4	0
975	637	0	10000	4	1	0	4	0
934	638	0	10000	4	1	0	4	0
897	639	0	10000	4	1	0	4	0
867	640	0	10000	4	1	0	4	0
851	641	0	10000	4	1	0	4	0
839	642	0	10000	4	1	0	4	0
816	643	0	10000	4	1	0	4	0
780	644	0	10000	4	1	0	4	0
748	645	0	10000	4	1	0	4	0
720	646	0	10000	4	1	0	4	0
695	647	0	10000	4	1	0	4	0
672	648	0	10000	4	1	0	4	0
651	649	0	10000	4	1	0	4	0
637	650	0	10000	4	1	0	4	0
626	651	0	10000	4	1	0	4	0
615	652	0	10000	4	1	0	4	0
601	653	0	10000	4	1	0	4	0
590	654	0	10000	4	1	0	4	0
579	655	0	10000	4	1	0	4	0
569	656	0	10000	4	1	0	4	0
558	657	0	10000	4	1	0	4	0
547	658	0	10000	4	1	0	4	0
532	659	0	10000	4	1	0	4	0
514	660	0	10000	4	1	0	4	0
495	661	0	10000	4	1	0	4	0
474	662	0	10000	4	1	0	4	0
455	663	0	10000	4	1	0	4	0
435	664	0	10000	4	1	0	4	0
415	665	0	10000	4	1	0	4	0
395	666	0	10000	4	1	0	4	0
377	667	0	10000	4	1	0	4	0
360	668	0	10000	4	1	0	4	0
345	669	0	10000	4	1	0	4	0
334	670	0	10000	4	1	0	4	0
324	671	0	10000	4	1	0	4	0
319	672	0	10000	4	1	0	4	0
310	673	0	10000	4	1	0	4	0
304	674	0	10000	4	1	0	4	0
298	675	0	10000	4	1	0	4	0
290	676	0	10000	4	1	0	4	0
281	677	0	10000	4	1	0	4	0
268	678	0	10000	4	1	0	4	0
259	679	0	10000	4	1	0	4	0
253	680	0	10000	4	1	0	4	0
254	681	0	10000	4	1	0	4	0
257	682	0	10000	4	1	0	4	0
267	683	0	10000	4	1	0	4	0
276	684	0	10000	4	1	0	4	0
284	685	0	10000	4	1	0	4	0
290	686	0	10000	4	1	0	4	0
294	687	0	10000	4	1	0	4	0
298	688	0	10000	4	1	0	4	0
299	689	0	10000	4	1	0	4	0
298	690	0	10000	4	1	0	4	0
292	691	0	10000	4	1	0	4	0
287	692	0	10000	4	1	0	4	0
277	693	0	10000	4	1	0	4	0
270	694	0	10000	4	1	0	4	0
264	695	0	10000	4	1	0	4	0
258	696	0	10000	4	1	0	4	0
251	697	0	10000	4	1	0	4	0
246	698	0	10000	4	1	0	4	0
245	699	0	10000	4	1	0	4	0
246	700	0	10000	4	1	0	4	0
250	701	0	10000	4	1	0	4	0
257	702	0	10000	4	1	0	4	0
269	703	0	10000	4	1	0	4	0
277	704	0	10000	4	1	0	4	0
285	705	0	10000	4	1	0	4	0
291	706	0	10000	4	1	0	4	0
296	707	0	10000	4	1	0	4	0
298	708	0	10000	4	1	0	4	0
297	709	0	10000	4	1	0	4	0
292	710	0	10000	4	1	0	4	0
281	711	0	10000	4	1	0	4	0
270	712	0	10000	4	1	0	4	0
259	713	0	10000	4	1	0	4	0
250	714	0	10000	4	1	0	4	0
239	715	0	10000	4	1	0	4	0
228	716	0	10000	4	1	0	4	0
219	717	0	10000	4	1	0	4	0
210	718	0	10000	4	1	0	4	0
206	719	0	10000	4	1	0	4	0
205	720	0	10000	4	1	0	4	0
204	721	0	10000	4	1	0	4	0
207	722	0	10000	4	1	0	4	0
212	723	0	10000	4	1	0	4	0
216	724	0	10000	4	1	0	4	0
219	725	0	10000	4	1	0	4	0
220	726	0	10000	4	1	0	4	0
218	727	0	10000	4	1	0	4	0
215	728	0	10000	4	1	0	4	0
210	729	0	10000	4	1	0	4	0
202	730	0	10000	4	1	0	4	0
195	731	0	10000	4	1	0	4	0
187	732	0	10000	4	1	0	4	0
180	733	0	10000	4	1	0	4	0
175	734	0	10000	4	1	0	4	0
172	735	0	10000	4	1	0	4	0
173	736	0	10000	4	1	0	4	0
170	737	0	10000	4	1	0	4	0
165	738	0	10000	4	1	0	4	0
160	739	0	10000	4	1	0	4	0
153	740	0	10000	4	1	0	4	0
147	741	0	10000	4	1	0	4	0
143	742	0	10000	4	1	0	4	0
143	743	0	10000	4	1	0	4	0
143	744	0	10000	4	1	0	4	0
146	745	0	10000	4	1	0	4	0
145	746	0	10000	4	1	0	4	0
142	747	0	10000	4	1	0	4	0
140	748	0	10000	4	1	0	4	0
133	749	0	10000	4	1	0	4	0
129	750	0	10000	4	1	0	4	0
129	751	0	10000	4	1	0	4	0
130	752	0	10000	4	1	0	4	0
126	753	0	10000	4	1	0	4	0
124	754	0	10000	4	1	0	4	0
119	755	0	10000	4	1	0	4	0
116	756	0	10000	4	1	0	4	0
115	757	0	10000	4	1	0	4	0
114	758	0	10000	4	1	0	4	0
110	759	0	10000	4	1	0	4	0
106	760	0	10000	4	1	0	4	0
101	761	0	10000	4	1	0	4	0
100	762	0	10000	4	1	0	4	0
103	763	0	10000	4	1	0	4	0
100	764	0	10000	4	1	0	4	0
96	765	0	10000	4	1	0	4	0
92	766	0	10000	4	1	0	4	0
89	767	0	10000	4	1	0	4	0
86	768	0	10000	4	1	0	4	0
83	769	0	10000	4	1	0	4	0
84	770	0	10000	4	1	0	4	0
86	771	0	10000	4	1	0	4	0
90	772	0	10000	4	1	0	4	0
93	773	0	10000	4	1	0	4	0
99	774	0	10000	4	1	0	4	0
105	775	0	10000	4	1	0	4	0
107	776	0	10000	4	1	0	4	0
107	777	0	10000	4	1	0	4	0
107	778	0	10000	4	1	0	4	0
106	779	0	10000	4	1	0	4	0
101	780	0	10000	4	1	0	4	0
99	781	0	10000	4	1	0	4	0
97	782	0	10000	4	1	0	4	0
98	783	0	10000	4	1	0	4	0
98	784	0	10000	4	1	0	4	0
96	785	0	10000	4	1	0	4	0
93	786	0	10000	4	1	0	4	0
90	787	0	10000	4	1	0	4	0
87	788	0	10000	4	1	0	4	0
83	789	0	10000	4	1	0	4	0
80	790	0	10000	4	1	0	4	0
77	791	0	10000	4	1	0	4	0
76	792	0	10000	4	1	0	4	0
75	793	0	10000	4	1	0	4	0
79	794	0	10000	4	1	0	4	0
89	795	0	10000	4	1	0	4	0
99	796	0	10000	4	1	0	4	0
102	797	0	10000	4	1	0	4	0
101	798	0	10000	4	1	0	4	0
102	799	0	10000	4	1	0	4	0
104	800	0	10000	4	1	0	4	0
104	801	0	10000	4	1	0	4	0
106	802	0	10000	4	1	0	4	0
114	803	0	10000	4	1	0	4	0
117	804	0	10000	4	1	0	4	0
112	805	0	10000	4	1	0	4	0
112	806	0	10000	4	1	0	4	0
112	807	0	10000	4	1	0	4	0
111	808	0	10000	4	1	0	4	0
111	809	0	10000	4	1	0	4	0
110	810	0	10000	4	1	0	4	0
109	811	0	10000	4	1	0	4	0
109	812	0	10000	4	1	0	4	0
108	813	0	10000	4	1	0	4	0
114	814	0	10000	4	1	0	4	0
120	815	0	10000	4	1	0	4	0
121	816	0	10000	4	1	0	4	0
118	817	0	10000	4	1	0	4	0
115	818	0	10000	4	1	0	4	0
112	819	0	10000	4	1	0	4	0
108	820	0	10000	4	1	0	4	0
104	821	0	10000	4	1	0	4	0
103	822	0	10000	4	1	0	4	0
103	823	0	10000	4	1	0	4	0
103	824	0	10000	4	1	0	4	0
105	825	0	10000	4	1	0	4	0
107	826	0	10000	4	1	0	4	0
108	827	0	10000	4	1	0	4	0
108	828	0	10000	4	1	0	4	0
106	829	0	10000	4	1	0	4	0
103	830	0	10000	4	1	0	4	0
101	831	0	10000	4	1	0	4	0
100	832	0	10000	4	1	0	4	0
97	833	0	10000	4	1	0	4	0
96	834	0	10000	4	1	0	4	0
97	835	0	10000	4	1	0	4	0
96	836	0	10000	4	1	0	4	0
98	837	0	10000	4	1	0	4	0
98	838	0	10000	4	1	0	4	0
94	839	0	10000	4	1	0	4	0
92	840	0	10000	4	1	0	4	0
89	841	0	10000	4	1	0	4	0
86	842	0	10000	4	1	0	4	0
84	843	0	10000	4	1	0	4	0
84	844	0	10000	4	1	0	4	0
86	845	0	10000	4	1	0	4	0
87	846	0	10000	4	1	0	4	0
87	847	0	10000	4	1	0	4	0
86	848	0	10000	4	1	0	4	0
82	849	0	10000	4	1	0	4	0
81	850	0	10000	4	1	0	4	0
83	851	0	10000	4	1	0	4	0
84	852	0	10000	4	1	0	4	0
79	853	0	10000	4	1	0	4	0
77	854	0	10000	4	1	0	4	0
75	855	0	10000	4	1	0	4	0
73	856	0	10000	4	1	0	4	0
74	857	0	10000	4	1	0	4	0
74	858	0	10000	4	1	0	4	0
75	859	0	10000	4	1	0	4	0
75	860	0	10000	4	1	0	4	0
73	861	0	10000	4	1	0	4	0
71	862	0	10000	4	1	0	4	0
75	863	0	10000	4	1	0	4	0
77	864	0	10000	4	1	0	4	0
79	865	0	10000	4	1	0	4	0
78	866	0	10000	4	1	0	4	0
78	867	0	10000	4	1	0	4	0
78	868	0	10000	4	1	0	4	0
79	869	0	10000	4	1	0	4	0
78	870	0	10000	4	1	0	4	0
75	871	0	10000	4	1	0	4	0
73	872	0	10000	4	1	0	4	0
72	873	0	10000	4	1	0	4	0
75	874	0	10000	4	1	0	4	0
81	875	0	10000	4	1	0	4	0
87	876	0	10000	4	1	0	4	0
89	877	0	10000	4	1	0	4	0
89	878	0	10000	4	1	0	4	0
87	879	0	10000	4	1	0	4	0
82	880	0	10000	4	1	0	4	0
80	881	0	10000	4	1	0	4	0
82	882	0	10000	4	1	0	4	0
87	883	0	10000	4	1	0	4	0
86	884	0	10000	4	1	0	4	0
84	885	0	10000	4	1	0	4	0
80	886	0	10000	4	1	0	4	0
80	887	0	10000	4	1	0	4	0
81	888	0	10000	4	1	0	4	0
81	889	0	10000	4	1	0	4	0
85	890	0	10000	4	1	0	4	0
87	891	0	10000	4	1	0	4	0
84	892	0	10000	4	1	0	4	0
80	893	0	10000	4	1	0	4	0
80	894	0	10000	4	1	0	4	0
80	895	0	10000	4	1	0	4	0
80	896	0	10000	4	1	0	4	0
80	897	0	10000	4	1	0	4	0
80	898	0	10000	4	1	0	4	0
80	899	0	10000	4	1	0	4	0
79	900	0	10000	4	1	0	4	0
76	901	0	10000	4	1	0	4	0
80	902	0	10000	4	1	0	4	0
89	903	0	10000	4	1	0	4	0
90	904	0	10000	4	1	0	4	0
87	905	0	10000	4	1	0	4	0
86	906	0	10000	4	1	0	4	0
83	907	0	10000	4	1	0	4	0
80	908	0	10000	4	1	0	4	0
76	909	0	10000	4	1	0	4	0
75	910	0	10000	4	1	0	4	0
74	911	0	10000	4	1	0	4	0
75	912	0	10000	4	1	0	4	0
74	913	0	10000	4	1	0	4	0
76	914	0	10000	4	1	0	4	0
77	915	0	10000	4	1	0	4	0
79	916	0	10000	4	1	0	4	0
80	917	0	10000	4	1	0	4	0
83	918	0	10000	4	1	0	4	0
83	919	0	10000	4	1	0	4	0
79	920	0	10000	4	1	0	4	0
78	921	0	10000	4	1	0	4	0
78	922	0	10000	4	1	0	4	0
80	923	0	10000	4	1	0	4	0
83	924	0	10000	4	1	0	4	0
86	925	0	10000	4	1	0	4	0
87	926	0	10000	4	1	0	4	0
86	927	0	10000	4	1	0	4	0
83	928	0	10000	4	1	0	4	0
80	929	0	10000	4	1	0	4	0
77	930	0	10000	4	1	0	4	0
74	931	0	10000	4	1	0	4	0
71	932	0	10000	4	1	0	4	0
69	933	0	10000	4	1	0	4	0
71	934	0	10000	4	1	0	4	0
75	935	0	10000	4	1	0	4	0
76	936	0	10000	4	1	0	4	0
76	937	0	10000	4	1	0	4	0
75	938	0	10000	4	1	0	4	0
75	939	0	10000	4	1	0	4	0
74	940	0	10000	4	1	0	4	0
74	941	0	10000	4	1	0	4	0
73	942	0	10000	4	1	0	4	0
74	943	0	10000	4	1	0	4	0
78	944	0	10000	4	1	0	4	0
81	945	0	10000	4	1	0	4	0
85	946	0	10000	4	1	0	4	0
87	947	0	10000	4	1	0	4	0
85	948	0	10000	4	1	0	4	0
83	949	0	10000	4	1	0	4	0
84	950	0	10000	4	1	0	4	0
83	951	0	10000	4	1	0	4	0
81	952	0	10000	4	1	0	4	0
79	953	0	10000	4	1	0	4	0
80	954	0	10000	4	1	0	4	0
78	955	0	10000	4	1	0	4	0
75	956	0	10000	4	1	0	4	0
72	957	0	10000	4	1	0	4	0
69	958	0	10000	4	1	0	4	0
69	959	0	10000	4	1	0	4	0
67	960	0	10000	4	1	0	4	0
64	961	0	10000	4	1	0	4	0
61	962	0	10000	4	1	0	4	0
61	963	0	10000	4	1	0	4	0
61	964	0	10000	4	1	0	4	0
63	965	0	10000	4	1	0	4	0
63	966	0	10000	4	1	0	4	0
61	967	0	10000	4	1	0	4	0
59	968	0	10000	4	1	0	4	0
58	969	0	10000	4	1	0	4	0
58	970	0	10000	4	1	0	4	0
56	971	0	10000	4	1	0	4	0
56	972	0	10000	4	1	0	4	0
57	973	0	10000	4	1	0	4	0
57	974	0	10000	4	1	0	4	0
56	975	0	10000	4	1	0	4	0
53	976	0	10000	4	1	0	4	0
51	977	0	10000	4	1	0	4	0
51	978	0	10000	4	1	0	4	0
52	979	0	10000	4	1	0	4	0
50	980	0	10000	4	1	0	4	0
53	981	0	10000	4	1	0	4	0
53	982	0	10000	4	1	0	4	0
54	983	0	10000	4	1	0	4	0
56	984	0	10000	4	1	0	4	0
58	985	0	10000	4	1	0	4	0
57	986	0	10000	4	1	0	4	0
55	987	0	10000	4	1	0	4	0
54	988	0	10000	4	1	0	4	0
56	989	0	10000	4	1	0	4	0
59	990	0	10000	4	1	0	4	0
59	991	0	10000	4	1	0	4	0
57	992	0	10000	4	1	0	4	0
56	993	0	10000	4	1	0	4	0
59	994	0	10000	4	1	0	4	0
60	995	0	10000	4	1	0	4	0
60	996	0	10000	4	1	0	4	0
60	997	0	10000	4	1	0	4	0
59	998	0	10000	4	1	0	4	0
58	999	0	10000	4	1	0	4	0
58	1000	0	10000	4	1	0	4	0
56	1001	0	10000	4	1	0	4	0
16	2	7	10000	5	1	0	5	0
15	3	7	10000	5	1	0	5	0
16	4	7	10000	5	1	0	5	0
15	5	7	10000	5	1	0	5	0
14	6	7	10000	5	1	0	5	0
16	7	7	10000	5	1	0	5	0
16	8	7	10000	5	1	0	5	0
16	9	7	10000	5	1	0	5	0
17	10	7	10000	5	1	0	5	0
15	11	7	10000	5	1	0	5	0
15	12	7	10000	5	1	0	5	0
15	13	7	10000	5	1	0	5	0
14	14	7	10000	5	1	0	5	0
14	15	7	10000	5	1	0	5	0
16	16	7	10000	5	1	0	5	0
15	17	7	10000	5	1	0	5	0
13	18	7	10000	5	1	0	5	0
13	19	7	10000	5	1	0	5	0
13	20	7	10000	5	1	0	5	0
13	21	7	10000	5	1	0	5	0
13	22	7	10000	5	1	0	5	0
14	23	7	10000	5	1	0	5	0
13	24	7	10000	5	1	0	5	0
12	25	7	10000	5	1	0	5	0
13	26	7	10000	5	1	0	5	0
14	27	7	10000	5	1	0	5	0
15	28	7	10000	5	1	0	5	0
15	29	7	10000	5	1	0	5	0
14	30	7	10000	5	1	0	5	0
14	31	7	10000	5	1	0	5	0
15	32	7	10000	5	1	0	5	0
14	33	7	10000	5	1	0	5	0
15	34	7	10000	5	1	0	5	0
16	35	7	10000	5	1	0	5	0
16	36	7	10000	5	1	0	5	0
15	37	7	10000	5	1	0	5	0
14	38	7	10000	5	1	0	5	0
15	39	7	10000	5	1	0	5	0
15	40	7	10000	5	1	0	5	0
15	41	7	10000	5	1	0	5	0
14	42	7	10000	5	1	0	5	0
14	43	7	10000	5	1	0	5	0
15	44	7	10000	5	1	0	5	0
14	45	7	10000	5	1	0	5	0
13	46	7	10000	5	1	0	5	0
14	47	7	10000	5	1	0	5	0
17	48	7	10000	5	1	0	5	0
16	49	7	10000	5	1	0	5	0
15	50	7	10000	5	1	0	5	0
15	51	7	10000	5	1	0	5	0
15	52	7	10000	5	1	0	5	0
15	53	7	10000	5	1	0	5	0
15	54	7	10000	5	1	0	5	0
17	55	7	10000	5	1	0	5	0
18	56	7	10000	5	1	0	5	0
18	57	7	10000	5	1	0	5	0
16	58	7	10000	5	1	0	5	0
17	59	7	10000	5	1	0	5	0
17	60	7	10000	5	1	0	5	0
17	61	7	10000	5	1	0	5	0
18	62	7	10000	5	1	0	5	0
18	63	7	10000	5	1	0	5	0
19	64	7	10000	5	1	0	5	0
19	65	7	10000	5	1	0	5	0
19	66	7	10000	5	1	0	5	0
18	67	7	10000	5	1	0	5	0
19	68	7	10000	5	1	0	5	0
19	69	7	10000	5	1	0	5	0
20	70	7	10000	5	1	0	5	0
20	71	7	10000	5	1	0	5	0
19	72	7	10000	5	1	0	5	0
19	73	7	10000	5	1	0	5	0
18	74	7	10000	5	1	0	5	0
19	75	7	10000	5	1	0	5	0
20	76	7	10000	5	1	0	5	0
20	77	7	10000	5	1	0	5	0
17	78	7	10000	5	1	0	5	0
17	79	7	10000	5	1	0	5	0
17	80	7	10000	5	1	0	5	0
16	81	7	10000	5	1	0	5	0
16	82	7	10000	5	1	0	5	0
15	83	7	10000	5	1	0	5	0
16	84	7	10000	5	1	0	5	0
15	85	7	10000	5	1	0	5	0
14	86	7	10000	5	1	0	5	0
15	87	7	10000	5	1	0	5	0
18	88	7	10000	5	1	0	5	0
18	89	7	10000	5	1	0	5	0
17	90	7	10000	5	1	0	5	0
17	91	7	10000	5	1	0	5	0
16	92	7	10000	5	1	0	5	0
15	93	7	10000	5	1	0	5	0
15	94	7	10000	5	1	0	5	0
16	95	7	10000	5	1	0	5	0
16	96	7	10000	5	1	0	5	0
15	97	7	10000	5	1	0	5	0
14	98	7	10000	5	1	0	5	0
14	99	7	10000	5	1	0	5	0
14	100	7	10000	5	1	0	5	0
14	101	7	10000	5	1	0	5	0
13	102	7	10000	5	1	0	5	0
13	103	7	10000	5	1	0	5	0
13	104	7	10000	5	1	0	5	0
12	105	7	10000	5	1	0	5	0
11	106	7	10000	5	1	0	5	0
11	107	7	10000	5	1	0	5	0
13	108	7	10000	5	1	0	5	0
13	109	7	10000	5	1	0	5	0
14	110	7	10000	5	1	0	5	0
13	111	7	10000	5	1	0	5	0
14	112	7	10000	5	1	0	5	0
14	113	7	10000	5	1	0	5	0
13	114	7	10000	5	1	0	5	0
15	115	7	10000	5	1	0	5	0
15	116	7	10000	5	1	0	5	0
15	117	7	10000	5	1	0	5	0
14	118	7	10000	5	1	0	5	0
14	119	7	10000	5	1	0	5	0
13	120	7	10000	5	1	0	5	0
14	121	7	10000	5	1	0	5	0
15	122	7	10000	5	1	0	5	0
15	123	7	10000	5	1	0	5	0
14	124	7	10000	5	1	0	5	0
13	125	7	10000	5	1	0	5	0
12	126	7	10000	5	1	0	5	0
12	127	7	10000	5	1	0	5	0
15	128	7	10000	5	1	0	5	0
14	129	7	10000	5	1	0	5	0
15	130	7	10000	5	1	0	5	0
15	131	7	10000	5	1	0	5	0
16	132	7	10000	5	1	0	5	0
15	133	7	10000	5	1	0	5	0
14	134	7	10000	5	1	0	5	0
15	135	7	10000	5	1	0	5	0
15	136	7	10000	5	1	0	5	0
15	137	7	10000	5	1	0	5	0
14	138	7	10000	5	1	0	5	0
15	139	7	10000	5	1	0	5	0
15	140	7	10000	5	1	0	5	0
16	141	7	10000	5	1	0	5	0
15	142	7	10000	5	1	0	5	0
15	143	7	10000	5	1	0	5	0
16	144	7	10000	5	1	0	5	0
14	145	7	10000	5	1	0	5	0
13	146	7	10000	5	1	0	5	0
13	147	7	10000	5	1	0	5	0
15	148	7	10000	5	1	0	5	0
15	149	7	10000	5	1	0	5	0
15	150	7	10000	5	1	0	5	0
14	151	7	10000	5	1	0	5	0
13	152	7	10000	5	1	0	5	0
13	153	7	10000	5	1	0	5	0
12	154	7	10000	5	1	0	5	0
13	155	7	10000	5	1	0	5	0
13	156	7	10000	5	1	0	5	0
12	157	7	10000	5	1	0	5	0
10	158	7	10000	5	1	0	5	0
10	159	7	10000	5	1	0	5	0
11	160	7	10000	5	1	0	5	0
11	161	7	10000	5	1	0	5	0
12	162	7	10000	5	1	0	5	0
13	163	7	10000	5	1	0	5	0
13	164	7	10000	5	1	0	5	0
12	165	7	10000	5	1	0	5	0
11	166	7	10000	5	1	0	5	0
14	167	7	10000	5	1	0	5	0
18	168	7	10000	5	1	0	5	0
17	169	7	10000	5	1	0	5	0
17	170	7	10000	5	1	0	5	0
19	171	7	10000	5	1	0	5	0
20	172	7	10000	5	1	0	5	0
19	173	7	10000	5	1	0	5	0
19	174	7	10000	5	1	0	5	0
20	175	7	10000	5	1	0	5	0
19	176	7	10000	5	1	0	5	0
18	177	7	10000	5	1	0	5	0
16	178	7	10000	5	1	0	5	0
16	179	7	10000	5	1	0	5	0
16	180	7	10000	5	1	0	5	0
17	181	7	10000	5	1	0	5	0
16	182	7	10000	5	1	0	5	0
16	183	7	10000	5	1	0	5	0
15	184	7	10000	5	1	0	5	0
14	185	7	10000	5	1	0	5	0
14	186	7	10000	5	1	0	5	0
15	187	7	10000	5	1	0	5	0
17	188	7	10000	5	1	0	5	0
16	189	7	10000	5	1	0	5	0
17	190	7	10000	5	1	0	5	0
17	191	7	10000	5	1	0	5	0
17	192	7	10000	5	1	0	5	0
16	193	7	10000	5	1	0	5	0
16	194	7	10000	5	1	0	5	0
16	195	7	10000	5	1	0	5	0
16	196	7	10000	5	1	0	5	0
16	197	7	10000	5	1	0	5	0
14	198	7	10000	5	1	0	5	0
14	199	7	10000	5	1	0	5	0
16	200	7	10000	5	1	0	5	0
16	201	7	10000	5	1	0	5	0
17	202	7	10000	5	1	0	5	0
17	203	7	10000	5	1	0	5	0
17	204	7	10000	5	1	0	5	0
15	205	7	10000	5	1	0	5	0
15	206	7	10000	5	1	0	5	0
14	207	7	10000	5	1	0	5	0
16	208	7	10000	5	1	0	5	0
15	209	7	10000	5	1	0	5	0
15	210	7	10000	5	1	0	5	0
15	211	7	10000	5	1	0	5	0
14	212	7	10000	5	1	0	5	0
14	213	7	10000	5	1	0	5	0
13	214	7	10000	5	1	0	5	0
14	215	7	10000	5	1	0	5	0
14	216	7	10000	5	1	0	5	0
14	217	7	10000	5	1	0	5	0
12	218	7	10000	5	1	0	5	0
12	219	7	10000	5	1	0	5	0
12	220	7	10000	5	1	0	5	0
12	221	7	10000	5	1	0	5	0
13	222	7	10000	5	1	0	5	0
14	223	7	10000	5	1	0	5	0
15	224	7	10000	5	1	0	5	0
17	225	7	10000	5	1	0	5	0
17	226	7	10000	5	1	0	5	0
17	227	7	10000	5	1	0	5	0
21	228	7	10000	5	1	0	5	0
23	229	7	10000	5	1	0	5	0
23	230	7	10000	5	1	0	5	0
23	231	7	10000	5	1	0	5	0
22	232	7	10000	5	1	0	5	0
21	233	7	10000	5	1	0	5	0
21	234	7	10000	5	1	0	5	0
20	235	7	10000	5	1	0	5	0
21	236	7	10000	5	1	0	5	0
20	237	7	10000	5	1	0	5	0
18	238	7	10000	5	1	0	5	0
18	239	7	10000	5	1	0	5	0
18	240	7	10000	5	1	0	5	0
18	241	7	10000	5	1	0	5	0
18	242	7	10000	5	1	0	5	0
17	243	7	10000	5	1	0	5	0
17	244	7	10000	5	1	0	5	0
16	245	7	10000	5	1	0	5	0
15	246	7	10000	5	1	0	5	0
14	247	7	10000	5	1	0	5	0
16	248	7	10000	5	1	0	5	0
14	249	7	10000	5	1	0	5	0
14	250	7	10000	5	1	0	5	0
13	251	7	10000	5	1	0	5	0
13	252	7	10000	5	1	0	5	0
13	253	7	10000	5	1	0	5	0
12	254	7	10000	5	1	0	5	0
13	255	7	10000	5	1	0	5	0
15	256	7	10000	5	1	0	5	0
14	257	7	10000	5	1	0	5	0
12	258	7	10000	5	1	0	5	0
13	259	7	10000	5	1	0	5	0
12	260	7	10000	5	1	0	5	0
12	261	7	10000	5	1	0	5	0
13	262	7	10000	5	1	0	5	0
12	263	7	10000	5	1	0	5	0
13	264	7	10000	5	1	0	5	0
13	265	7	10000	5	1	0	5	0
13	266	7	10000	5	1	0	5	0
12	267	7	10000	5	1	0	5	0
16	268	7	10000	5	1	0	5	0
19	269	7	10000	5	1	0	5	0
21	270	7	10000	5	1	0	5	0
20	271	7	10000	5	1	0	5	0
20	272	7	10000	5	1	0	5	0
20	273	7	10000	5	1	0	5	0
20	274	7	10000	5	1	0	5	0
21	275	7	10000	5	1	0	5	0
21	276	7	10000	5	1	0	5	0
21	277	7	10000	5	1	0	5	0
20	278	7	10000	5	1	0	5	0
20	279	7	10000	5	1	0	5	0
20	280	7	10000	5	1	0	5	0
20	281	7	10000	5	1	0	5	0
20	282	7	10000	5	1	0	5	0
20	283	7	10000	5	1	0	5	0
20	284	7	10000	5	1	0	5	0
19	285	7	10000	5	1	0	5	0
17	286	7	10000	5	1	0	5	0
17	287	7	10000	5	1	0	5	0
18	288	7	10000	5	1	0	5	0
19	289	7	10000	5	1	0	5	0
19	290	7	10000	5	1	0	5	0
18	291	7	10000	5	1	0	5	0
17	292	7	10000	5	1	0	5	0
17	293	7	10000	5	1	0	5	0
15	294	7	10000	5	1	0	5	0
16	295	7	10000	5	1	0	5	0
16	296	7	10000	5	1	0	5	0
16	297	7	10000	5	1	0	5	0
13	298	7	10000	5	1	0	5	0
13	299	7	10000	5	1	0	5	0
14	300	7	10000	5	1	0	5	0
14	301	7	10000	5	1	0	5	0
13	302	7	10000	5	1	0	5	0
14	303	7	10000	5	1	0	5	0
14	304	7	10000	5	1	0	5	0
12	305	7	10000	5	1	0	5	0
13	306	7	10000	5	1	0	5	0
14	307	7	10000	5	1	0	5	0
15	308	7	10000	5	1	0	5	0
16	309	7	10000	5	1	0	5	0
17	310	7	10000	5	1	0	5	0
16	311	7	10000	5	1	0	5	0
16	312	7	10000	5	1	0	5	0
16	313	7	10000	5	1	0	5	0
15	314	7	10000	5	1	0	5	0
17	315	7	10000	5	1	0	5	0
19	316	7	10000	5	1	0	5	0
18	317	7	10000	5	1	0	5	0
18	318	7	10000	5	1	0	5	0
18	319	7	10000	5	1	0	5	0
20	320	7	10000	5	1	0	5	0
21	321	7	10000	5	1	0	5	0
20	322	7	10000	5	1	0	5	0
20	323	7	10000	5	1	0	5	0
20	324	7	10000	5	1	0	5	0
20	325	7	10000	5	1	0	5	0
19	326	7	10000	5	1	0	5	0
18	327	7	10000	5	1	0	5	0
20	328	7	10000	5	1	0	5	0
19	329	7	10000	5	1	0	5	0
18	330	7	10000	5	1	0	5	0
17	331	7	10000	5	1	0	5	0
17	332	7	10000	5	1	0	5	0
16	333	7	10000	5	1	0	5	0
16	334	7	10000	5	1	0	5	0
18	335	7	10000	5	1	0	5	0
19	336	7	10000	5	1	0	5	0
18	337	7	10000	5	1	0	5	0
16	338	7	10000	5	1	0	5	0
16	339	7	10000	5	1	0	5	0
17	340	7	10000	5	1	0	5	0
17	341	7	10000	5	1	0	5	0
16	342	7	10000	5	1	0	5	0
17	343	7	10000	5	1	0	5	0
16	344	7	10000	5	1	0	5	0
16	345	7	10000	5	1	0	5	0
16	346	7	10000	5	1	0	5	0
15	347	7	10000	5	1	0	5	0
17	348	7	10000	5	1	0	5	0
17	349	7	10000	5	1	0	5	0
16	350	7	10000	5	1	0	5	0
16	351	7	10000	5	1	0	5	0
16	352	7	10000	5	1	0	5	0
16	353	7	10000	5	1	0	5	0
15	354	7	10000	5	1	0	5	0
16	355	7	10000	5	1	0	5	0
18	356	7	10000	5	1	0	5	0
18	357	7	10000	5	1	0	5	0
16	358	7	10000	5	1	0	5	0
16	359	7	10000	5	1	0	5	0
18	360	7	10000	5	1	0	5	0
19	361	7	10000	5	1	0	5	0
18	362	7	10000	5	1	0	5	0
18	363	7	10000	5	1	0	5	0
18	364	7	10000	5	1	0	5	0
18	365	7	10000	5	1	0	5	0
16	366	7	10000	5	1	0	5	0
17	367	7	10000	5	1	0	5	0
18	368	7	10000	5	1	0	5	0
18	369	7	10000	5	1	0	5	0
17	370	7	10000	5	1	0	5	0
17	371	7	10000	5	1	0	5	0
16	372	7	10000	5	1	0	5	0
17	373	7	10000	5	1	0	5	0
18	374	7	10000	5	1	0	5	0
18	375	7	10000	5	1	0	5	0
19	376	7	10000	5	1	0	5	0
20	377	7	10000	5	1	0	5	0
18	378	7	10000	5	1	0	5	0
18	379	7	10000	5	1	0	5	0
18	380	7	10000	5	1	0	5	0
18	381	7	10000	5	1	0	5	0
19	382	7	10000	5	1	0	5	0
18	383	7	10000	5	1	0	5	0
19	384	7	10000	5	1	0	5	0
20	385	7	10000	5	1	0	5	0
20	386	7	10000	5	1	0	5	0
21	387	7	10000	5	1	0	5	0
22	388	7	10000	5	1	0	5	0
21	389	7	10000	5	1	0	5	0
20	390	7	10000	5	1	0	5	0
19	391	7	10000	5	1	0	5	0
18	392	7	10000	5	1	0	5	0
18	393	7	10000	5	1	0	5	0
17	394	7	10000	5	1	0	5	0
19	395	7	10000	5	1	0	5	0
20	396	7	10000	5	1	0	5	0
20	397	7	10000	5	1	0	5	0
18	398	7	10000	5	1	0	5	0
20	399	7	10000	5	1	0	5	0
22	400	7	10000	5	1	0	5	0
22	401	7	10000	5	1	0	5	0
22	402	7	10000	5	1	0	5	0
21	403	7	10000	5	1	0	5	0
21	404	7	10000	5	1	0	5	0
20	405	7	10000	5	1	0	5	0
19	406	7	10000	5	1	0	5	0
20	407	7	10000	5	1	0	5	0
22	408	7	10000	5	1	0	5	0
23	409	7	10000	5	1	0	5	0
22	410	7	10000	5	1	0	5	0
21	411	7	10000	5	1	0	5	0
21	412	7	10000	5	1	0	5	0
20	413	7	10000	5	1	0	5	0
19	414	7	10000	5	1	0	5	0
19	415	7	10000	5	1	0	5	0
20	416	7	10000	5	1	0	5	0
19	417	7	10000	5	1	0	5	0
17	418	7	10000	5	1	0	5	0
17	419	7	10000	5	1	0	5	0
17	420	7	10000	5	1	0	5	0
18	421	7	10000	5	1	0	5	0
18	422	7	10000	5	1	0	5	0
17	423	7	10000	5	1	0	5	0
17	424	7	10000	5	1	0	5	0
16	425	7	10000	5	1	0	5	0
15	426	7	10000	5	1	0	5	0
15	427	7	10000	5	1	0	5	0
16	428	7	10000	5	1	0	5	0
15	429	7	10000	5	1	0	5	0
15	430	7	10000	5	1	0	5	0
14	431	7	10000	5	1	0	5	0
14	432	7	10000	5	1	0	5	0
14	433	7	10000	5	1	0	5	0
14	434	7	10000	5	1	0	5	0
15	435	7	10000	5	1	0	5	0
15	436	7	10000	5	1	0	5	0
15	437	7	10000	5	1	0	5	0
13	438	7	10000	5	1	0	5	0
14	439	7	10000	5	1	0	5	0
15	440	7	10000	5	1	0	5	0
16	441	7	10000	5	1	0	5	0
16	442	7	10000	5	1	0	5	0
16	443	7	10000	5	1	0	5	0
15	444	7	10000	5	1	0	5	0
15	445	7	10000	5	1	0	5	0
16	446	7	10000	5	1	0	5	0
17	447	7	10000	5	1	0	5	0
18	448	7	10000	5	1	0	5	0
19	449	7	10000	5	1	0	5	0
19	450	7	10000	5	1	0	5	0
19	451	7	10000	5	1	0	5	0
19	452	7	10000	5	1	0	5	0
18	453	7	10000	5	1	0	5	0
17	454	7	10000	5	1	0	5	0
19	455	7	10000	5	1	0	5	0
18	456	7	10000	5	1	0	5	0
18	457	7	10000	5	1	0	5	0
16	458	7	10000	5	1	0	5	0
15	459	7	10000	5	1	0	5	0
15	460	7	10000	5	1	0	5	0
15	461	7	10000	5	1	0	5	0
15	462	7	10000	5	1	0	5	0
15	463	7	10000	5	1	0	5	0
17	464	7	10000	5	1	0	5	0
17	465	7	10000	5	1	0	5	0
19	466	7	10000	5	1	0	5	0
20	467	7	10000	5	1	0	5	0
23	468	7	10000	5	1	0	5	0
23	469	7	10000	5	1	0	5	0
22	470	7	10000	5	1	0	5	0
21	471	7	10000	5	1	0	5	0
22	472	7	10000	5	1	0	5	0
23	473	7	10000	5	1	0	5	0
23	474	7	10000	5	1	0	5	0
26	475	7	10000	5	1	0	5	0
26	476	7	10000	5	1	0	5	0
25	477	7	10000	5	1	0	5	0
22	478	7	10000	5	1	0	5	0
22	479	7	10000	5	1	0	5	0
21	480	7	10000	5	1	0	5	0
21	481	7	10000	5	1	0	5	0
22	482	7	10000	5	1	0	5	0
23	483	7	10000	5	1	0	5	0
22	484	7	10000	5	1	0	5	0
21	485	7	10000	5	1	0	5	0
21	486	7	10000	5	1	0	5	0
22	487	7	10000	5	1	0	5	0
25	488	7	10000	5	1	0	5	0
24	489	7	10000	5	1	0	5	0
23	490	7	10000	5	1	0	5	0
22	491	7	10000	5	1	0	5	0
23	492	7	10000	5	1	0	5	0
24	493	7	10000	5	1	0	5	0
24	494	7	10000	5	1	0	5	0
25	495	7	10000	5	1	0	5	0
27	496	7	10000	5	1	0	5	0
26	497	7	10000	5	1	0	5	0
23	498	7	10000	5	1	0	5	0
23	499	7	10000	5	1	0	5	0
22	500	7	10000	5	1	0	5	0
22	501	7	10000	5	1	0	5	0
22	501	7	10000	5	1	0	5	1
22	502	7	10000	5	1	0	5	1
22	504	7	10000	5	1	0	5	1
20	505	7	10000	5	1	0	5	1
19	506	7	10000	5	1	0	5	1
19	507	7	10000	5	1	0	5	1
20	508	7	10000	5	1	0	5	1
20	509	7	10000	5	1	0	5	1
19	510	7	10000	5	1	0	5	1
19	511	7	10000	5	1	0	5	1
17	512	7	10000	5	1	0	5	1
17	513	7	10000	5	1	0	5	1
17	514	7	10000	5	1	0	5	1
16	515	7	10000	5	1	0	5	1
17	516	7	10000	5	1	0	5	1
16	517	7	10000	5	1	0	5	1
13	518	7	10000	5	1	0	5	1
14	519	7	10000	5	1	0	5	1
15	520	7	10000	5	1	0	5	1
15	521	7	10000	5	1	0	5	1
15	522	7	10000	5	1	0	5	1
16	523	7	10000	5	1	0	5	1
17	524	7	10000	5	1	0	5	1
16	525	7	10000	5	1	0	5	1
16	526	7	10000	5	1	0	5	1
17	527	7	10000	5	1	0	5	1
20	528	7	10000	5	1	0	5	1
20	529	7	10000	5	1	0	5	1
22	530	7	10000	5	1	0	5	1
23	531	7	10000	5	1	0	5	1
24	532	7	10000	5	1	0	5	1
24	533	7	10000	5	1	0	5	1
22	534	7	10000	5	1	0	5	1
22	535	7	10000	5	1	0	5	1
22	536	7	10000	5	1	0	5	1
21	537	7	10000	5	1	0	5	1
18	538	7	10000	5	1	0	5	1
19	539	7	10000	5	1	0	5	1
18	540	7	10000	5	1	0	5	1
18	541	7	10000	5	1	0	5	1
18	542	7	10000	5	1	0	5	1
18	543	7	10000	5	1	0	5	1
18	544	7	10000	5	1	0	5	1
17	545	7	10000	5	1	0	5	1
16	546	7	10000	5	1	0	5	1
17	547	7	10000	5	1	0	5	1
18	548	7	10000	5	1	0	5	1
18	549	7	10000	5	1	0	5	1
18	550	7	10000	5	1	0	5	1
19	551	7	10000	5	1	0	5	1
19	552	7	10000	5	1	0	5	0
18	553	7	10000	5	1	0	5	0
17	554	7	10000	5	1	0	5	0
18	555	7	10000	5	1	0	5	0
18	556	7	10000	5	1	0	5	0
18	557	7	10000	5	1	0	5	0
16	558	7	10000	5	1	0	5	0
15	559	7	10000	5	1	0	5	0
16	560	7	10000	5	1	0	5	0
16	561	7	10000	5	1	0	5	0
16	562	7	10000	5	1	0	5	0
17	563	7	10000	5	1	0	5	0
17	564	7	10000	5	1	0	5	0
17	565	7	10000	5	1	0	5	0
17	566	7	10000	5	1	0	5	0
18	567	7	10000	5	1	0	5	0
20	568	7	10000	5	1	0	5	0
19	569	7	10000	5	1	0	5	0
20	570	7	10000	5	1	0	5	0
19	571	7	10000	5	1	0	5	0
18	572	7	10000	5	1	0	5	0
17	573	7	10000	5	1	0	5	0
17	574	7	10000	5	1	0	5	0
18	575	7	10000	5	1	0	5	0
18	576	7	10000	5	1	0	5	0
18	577	7	10000	5	1	0	5	0
17	578	7	10000	5	1	0	5	0
17	579	7	10000	5	1	0	5	0
17	580	7	10000	5	1	0	5	0
17	581	7	10000	5	1	0	5	0
17	582	7	10000	5	1	0	5	0
17	583	7	10000	5	1	0	5	0
19	584	7	10000	5	1	0	5	0
18	585	7	10000	5	1	0	5	0
20	586	7	10000	5	1	0	5	0
41	587	7	10000	5	1	0	5	0
105	588	7	10000	5	1	0	5	0
130	589	7	10000	5	1	0	5	0
127	590	7	10000	5	1	0	5	0
134	591	7	10000	5	1	0	5	0
144	592	7	10000	5	1	0	5	0
148	593	7	10000	5	1	0	5	0
162	594	7	10000	5	1	0	5	0
160	595	7	10000	5	1	0	5	0
162	596	7	10000	5	1	0	5	0
208	597	7	10000	5	1	0	5	0
241	598	7	10000	5	1	0	5	0
306	599	7	10000	5	1	0	5	0
360	600	7	10000	5	1	0	5	0
365	601	7	10000	5	1	0	5	0
412	602	7	10000	5	1	0	5	0
412	603	7	10000	5	1	0	5	0
404	604	7	10000	5	1	0	5	0
424	605	7	10000	5	1	0	5	0
438	606	7	10000	5	1	0	5	0
477	607	7	10000	5	1	0	5	0
587	608	7	10000	5	1	0	5	0
696	609	7	10000	5	1	0	5	0
755	610	7	10000	5	1	0	5	0
776	611	7	10000	5	1	0	5	0
760	612	7	10000	5	1	0	5	0
736	613	7	10000	5	1	0	5	0
719	614	7	10000	5	1	0	5	0
703	615	7	10000	5	1	0	5	0
682	616	7	10000	5	1	0	5	0
687	617	7	10000	5	1	0	5	0
709	618	7	10000	5	1	0	5	0
734	619	7	10000	5	1	0	5	0
734	620	7	10000	5	1	0	5	0
719	621	7	10000	5	1	0	5	0
701	622	7	10000	5	1	0	5	0
704	623	7	10000	5	1	0	5	0
791	624	7	10000	5	1	0	5	0
815	625	7	10000	5	1	0	5	0
842	626	7	10000	5	1	0	5	0
881	627	7	10000	5	1	0	5	0
902	628	7	10000	5	1	0	5	0
907	629	7	10000	5	1	0	5	0
898	630	7	10000	5	1	0	5	0
882	631	7	10000	5	1	0	5	0
858	632	7	10000	5	1	0	5	0
827	633	7	10000	5	1	0	5	0
793	634	7	10000	5	1	0	5	0
758	635	7	10000	5	1	0	5	0
724	636	7	10000	5	1	0	5	0
691	637	7	10000	5	1	0	5	0
659	638	7	10000	5	1	0	5	0
631	639	7	10000	5	1	0	5	0
603	640	7	10000	5	1	0	5	0
578	641	7	10000	5	1	0	5	0
554	642	7	10000	5	1	0	5	0
532	643	7	10000	5	1	0	5	0
511	644	7	10000	5	1	0	5	0
489	645	7	10000	5	1	0	5	0
467	646	7	10000	5	1	0	5	0
447	647	7	10000	5	1	0	5	0
431	648	7	10000	5	1	0	5	0
411	649	7	10000	5	1	0	5	0
393	650	7	10000	5	1	0	5	0
376	651	7	10000	5	1	0	5	0
358	652	7	10000	5	1	0	5	0
344	653	7	10000	5	1	0	5	0
334	654	7	10000	5	1	0	5	0
327	655	7	10000	5	1	0	5	0
322	656	7	10000	5	1	0	5	0
319	657	7	10000	5	1	0	5	0
316	658	7	10000	5	1	0	5	0
314	659	7	10000	5	1	0	5	0
315	660	7	10000	5	1	0	5	0
314	661	7	10000	5	1	0	5	0
312	662	7	10000	5	1	0	5	0
310	663	7	10000	5	1	0	5	0
305	664	7	10000	5	1	0	5	0
295	665	7	10000	5	1	0	5	0
283	666	7	10000	5	1	0	5	0
269	667	7	10000	5	1	0	5	0
260	668	7	10000	5	1	0	5	0
249	669	7	10000	5	1	0	5	0
241	670	7	10000	5	1	0	5	0
233	671	7	10000	5	1	0	5	0
226	672	7	10000	5	1	0	5	0
217	673	7	10000	5	1	0	5	0
207	674	7	10000	5	1	0	5	0
199	675	7	10000	5	1	0	5	0
191	676	7	10000	5	1	0	5	0
184	677	7	10000	5	1	0	5	0
176	678	7	10000	5	1	0	5	0
171	679	7	10000	5	1	0	5	0
166	680	7	10000	5	1	0	5	0
162	681	7	10000	5	1	0	5	0
155	682	7	10000	5	1	0	5	0
151	683	7	10000	5	1	0	5	0
151	684	7	10000	5	1	0	5	0
151	685	7	10000	5	1	0	5	0
152	686	7	10000	5	1	0	5	0
157	687	7	10000	5	1	0	5	0
165	688	7	10000	5	1	0	5	0
172	689	7	10000	5	1	0	5	0
178	690	7	10000	5	1	0	5	0
183	691	7	10000	5	1	0	5	0
186	692	7	10000	5	1	0	5	0
187	693	7	10000	5	1	0	5	0
187	694	7	10000	5	1	0	5	0
189	695	7	10000	5	1	0	5	0
188	696	7	10000	5	1	0	5	0
184	697	7	10000	5	1	0	5	0
178	698	7	10000	5	1	0	5	0
173	699	7	10000	5	1	0	5	0
169	700	7	10000	5	1	0	5	0
165	701	7	10000	5	1	0	5	0
161	702	7	10000	5	1	0	5	0
159	703	7	10000	5	1	0	5	0
160	704	7	10000	5	1	0	5	0
161	705	7	10000	5	1	0	5	0
163	706	7	10000	5	1	0	5	0
166	707	7	10000	5	1	0	5	0
171	708	7	10000	5	1	0	5	0
175	709	7	10000	5	1	0	5	0
180	710	7	10000	5	1	0	5	0
184	711	7	10000	5	1	0	5	0
187	712	7	10000	5	1	0	5	0
189	713	7	10000	5	1	0	5	0
185	714	7	10000	5	1	0	5	0
180	715	7	10000	5	1	0	5	0
175	716	7	10000	5	1	0	5	0
168	717	7	10000	5	1	0	5	0
159	718	7	10000	5	1	0	5	0
154	719	7	10000	5	1	0	5	0
149	720	7	10000	5	1	0	5	0
143	721	7	10000	5	1	0	5	0
137	722	7	10000	5	1	0	5	0
132	723	7	10000	5	1	0	5	0
130	724	7	10000	5	1	0	5	0
129	725	7	10000	5	1	0	5	0
130	726	7	10000	5	1	0	5	0
129	727	7	10000	5	1	0	5	0
130	728	7	10000	5	1	0	5	0
132	729	7	10000	5	1	0	5	0
132	730	7	10000	5	1	0	5	0
129	731	7	10000	5	1	0	5	0
130	732	7	10000	5	1	0	5	0
131	733	7	10000	5	1	0	5	0
132	734	7	10000	5	1	0	5	0
130	735	7	10000	5	1	0	5	0
125	736	7	10000	5	1	0	5	0
120	737	7	10000	5	1	0	5	0
113	738	7	10000	5	1	0	5	0
109	739	7	10000	5	1	0	5	0
107	740	7	10000	5	1	0	5	0
108	741	7	10000	5	1	0	5	0
104	742	7	10000	5	1	0	5	0
103	743	7	10000	5	1	0	5	0
100	744	7	10000	5	1	0	5	0
95	745	7	10000	5	1	0	5	0
92	746	7	10000	5	1	0	5	0
91	747	7	10000	5	1	0	5	0
91	748	7	10000	5	1	0	5	0
88	749	7	10000	5	1	0	5	0
85	750	7	10000	5	1	0	5	0
86	751	7	10000	5	1	0	5	0
86	752	7	10000	5	1	0	5	0
82	753	7	10000	5	1	0	5	0
79	754	7	10000	5	1	0	5	0
76	755	7	10000	5	1	0	5	0
75	756	7	10000	5	1	0	5	0
73	757	7	10000	5	1	0	5	0
70	758	7	10000	5	1	0	5	0
75	759	7	10000	5	1	0	5	0
79	760	7	10000	5	1	0	5	0
80	761	7	10000	5	1	0	5	0
80	762	7	10000	5	1	0	5	0
