value	EMG	Stimulus	EMG_sensitivity	Total_Trial_Nr	practise	acq	probe_nr	Startle_Probe
21	2	1	10000	1	1	0	1	0
22	3	1	10000	1	1	0	1	0
21	4	1	10000	1	1	0	1	0
20	5	1	10000	1	1	0	1	0
20	6	1	10000	1	1	0	1	0
22	7	1	10000	1	1	0	1	0
22	8	1	10000	1	1	0	1	0
22	9	1	10000	1	1	0	1	0
22	10	1	10000	1	1	0	1	0
24	11	1	10000	1	1	0	1	0
23	12	1	10000	1	1	0	1	0
23	13	1	10000	1	1	0	1	0
23	14	1	10000	1	1	0	1	0
23	15	1	10000	1	1	0	1	0
24	16	1	10000	1	1	0	1	0
22	17	1	10000	1	1	0	1	0
21	18	1	10000	1	1	0	1	0
22	19	1	10000	1	1	0	1	0
22	20	1	10000	1	1	0	1	0
23	21	1	10000	1	1	0	1	0
23	22	1	10000	1	1	0	1	0
22	23	1	10000	1	1	0	1	0
22	24	1	10000	1	1	0	1	0
22	25	1	10000	1	1	0	1	0
21	26	1	10000	1	1	0	1	0
22	27	1	10000	1	1	0	1	0
23	28	1	10000	1	1	0	1	0
23	29	1	10000	1	1	0	1	0
23	30	1	10000	1	1	0	1	0
21	31	1	10000	1	1	0	1	0
21	32	1	10000	1	1	0	1	0
20	33	1	10000	1	1	0	1	0
21	34	1	10000	1	1	0	1	0
23	35	1	10000	1	1	0	1	0
22	36	1	10000	1	1	0	1	0
20	37	1	10000	1	1	0	1	0
20	38	1	10000	1	1	0	1	0
21	39	1	10000	1	1	0	1	0
21	40	1	10000	1	1	0	1	0
22	41	1	10000	1	1	0	1	0
21	42	1	10000	1	1	0	1	0
22	43	1	10000	1	1	0	1	0
22	44	1	10000	1	1	0	1	0
20	45	1	10000	1	1	0	1	0
20	46	1	10000	1	1	0	1	0
22	47	1	10000	1	1	0	1	0
21	48	1	10000	1	1	0	1	0
23	49	1	10000	1	1	0	1	0
22	50	1	10000	1	1	0	1	0
21	51	1	10000	1	1	0	1	0
21	52	1	10000	1	1	0	1	0
21	53	1	10000	1	1	0	1	0
21	54	1	10000	1	1	0	1	0
22	55	1	10000	1	1	0	1	0
23	56	1	10000	1	1	0	1	0
22	57	1	10000	1	1	0	1	0
22	58	1	10000	1	1	0	1	0
22	59	1	10000	1	1	0	1	0
22	60	1	10000	1	1	0	1	0
22	61	1	10000	1	1	0	1	0
22	62	1	10000	1	1	0	1	0
23	63	1	10000	1	1	0	1	0
22	64	1	10000	1	1	0	1	0
21	65	1	10000	1	1	0	1	0
21	66	1	10000	1	1	0	1	0
22	67	1	10000	1	1	0	1	0
23	68	1	10000	1	1	0	1	0
21	69	1	10000	1	1	0	1	0
21	70	1	10000	1	1	0	1	0
21	71	1	10000	1	1	0	1	0
21	72	1	10000	1	1	0	1	0
22	73	1	10000	1	1	0	1	0
22	74	1	10000	1	1	0	1	0
22	75	1	10000	1	1	0	1	0
22	76	1	10000	1	1	0	1	0
20	77	1	10000	1	1	0	1	0
20	78	1	10000	1	1	0	1	0
21	79	1	10000	1	1	0	1	0
22	80	1	10000	1	1	0	1	0
22	81	1	10000	1	1	0	1	0
21	82	1	10000	1	1	0	1	0
21	83	1	10000	1	1	0	1	0
21	84	1	10000	1	1	0	1	0
21	85	1	10000	1	1	0	1	0
20	86	1	10000	1	1	0	1	0
23	87	1	10000	1	1	0	1	0
21	88	1	10000	1	1	0	1	0
21	89	1	10000	1	1	0	1	0
22	90	1	10000	1	1	0	1	0
21	91	1	10000	1	1	0	1	0
21	92	1	10000	1	1	0	1	0
21	93	1	10000	1	1	0	1	0
22	94	1	10000	1	1	0	1	0
21	95	1	10000	1	1	0	1	0
22	96	1	10000	1	1	0	1	0
21	97	1	10000	1	1	0	1	0
20	98	1	10000	1	1	0	1	0
20	99	1	10000	1	1	0	1	0
20	100	1	10000	1	1	0	1	0
20	101	1	10000	1	1	0	1	0
21	102	1	10000	1	1	0	1	0
21	103	1	10000	1	1	0	1	0
20	104	1	10000	1	1	0	1	0
20	105	1	10000	1	1	0	1	0
20	106	1	10000	1	1	0	1	0
22	107	1	10000	1	1	0	1	0
22	108	1	10000	1	1	0	1	0
21	109	1	10000	1	1	0	1	0
21	110	1	10000	1	1	0	1	0
20	111	1	10000	1	1	0	1	0
21	112	1	10000	1	1	0	1	0
20	113	1	10000	1	1	0	1	0
20	114	1	10000	1	1	0	1	0
20	115	1	10000	1	1	0	1	0
21	116	1	10000	1	1	0	1	0
20	117	1	10000	1	1	0	1	0
20	118	1	10000	1	1	0	1	0
20	119	1	10000	1	1	0	1	0
22	120	1	10000	1	1	0	1	0
22	121	1	10000	1	1	0	1	0
22	122	1	10000	1	1	0	1	0
22	123	1	10000	1	1	0	1	0
21	124	1	10000	1	1	0	1	0
22	125	1	10000	1	1	0	1	0
20	126	1	10000	1	1	0	1	0
22	127	1	10000	1	1	0	1	0
24	128	1	10000	1	1	0	1	0
24	129	1	10000	1	1	0	1	0
23	130	1	10000	1	1	0	1	0
23	131	1	10000	1	1	0	1	0
23	132	1	10000	1	1	0	1	0
23	133	1	10000	1	1	0	1	0
24	134	1	10000	1	1	0	1	0
24	135	1	10000	1	1	0	1	0
25	136	1	10000	1	1	0	1	0
23	137	1	10000	1	1	0	1	0
23	138	1	10000	1	1	0	1	0
24	139	1	10000	1	1	0	1	0
25	140	1	10000	1	1	0	1	0
26	141	1	10000	1	1	0	1	0
26	142	1	10000	1	1	0	1	0
27	143	1	10000	1	1	0	1	0
26	144	1	10000	1	1	0	1	0
25	145	1	10000	1	1	0	1	0
24	146	1	10000	1	1	0	1	0
26	147	1	10000	1	1	0	1	0
25	148	1	10000	1	1	0	1	0
24	149	1	10000	1	1	0	1	0
24	150	1	10000	1	1	0	1	0
23	151	1	10000	1	1	0	1	0
23	152	1	10000	1	1	0	1	0
22	153	1	10000	1	1	0	1	0
23	154	1	10000	1	1	0	1	0
24	155	1	10000	1	1	0	1	0
23	156	1	10000	1	1	0	1	0
21	157	1	10000	1	1	0	1	0
21	158	1	10000	1	1	0	1	0
21	159	1	10000	1	1	0	1	0
21	160	1	10000	1	1	0	1	0
22	161	1	10000	1	1	0	1	0
21	162	1	10000	1	1	0	1	0
22	163	1	10000	1	1	0	1	0
21	164	1	10000	1	1	0	1	0
21	165	1	10000	1	1	0	1	0
22	166	1	10000	1	1	0	1	0
24	167	1	10000	1	1	0	1	0
25	168	1	10000	1	1	0	1	0
24	169	1	10000	1	1	0	1	0
24	170	1	10000	1	1	0	1	0
23	171	1	10000	1	1	0	1	0
23	172	1	10000	1	1	0	1	0
23	173	1	10000	1	1	0	1	0
25	174	1	10000	1	1	0	1	0
23	175	1	10000	1	1	0	1	0
24	176	1	10000	1	1	0	1	0
22	177	1	10000	1	1	0	1	0
22	178	1	10000	1	1	0	1	0
23	179	1	10000	1	1	0	1	0
23	180	1	10000	1	1	0	1	0
23	181	1	10000	1	1	0	1	0
23	182	1	10000	1	1	0	1	0
23	183	1	10000	1	1	0	1	0
22	184	1	10000	1	1	0	1	0
22	185	1	10000	1	1	0	1	0
21	186	1	10000	1	1	0	1	0
22	187	1	10000	1	1	0	1	0
23	188	1	10000	1	1	0	1	0
22	189	1	10000	1	1	0	1	0
22	190	1	10000	1	1	0	1	0
22	191	1	10000	1	1	0	1	0
21	192	1	10000	1	1	0	1	0
22	193	1	10000	1	1	0	1	0
21	194	1	10000	1	1	0	1	0
22	195	1	10000	1	1	0	1	0
22	196	1	10000	1	1	0	1	0
20	197	1	10000	1	1	0	1	0
20	198	1	10000	1	1	0	1	0
20	199	1	10000	1	1	0	1	0
20	200	1	10000	1	1	0	1	0
21	201	1	10000	1	1	0	1	0
20	202	1	10000	1	1	0	1	0
20	203	1	10000	1	1	0	1	0
21	204	1	10000	1	1	0	1	0
21	205	1	10000	1	1	0	1	0
21	206	1	10000	1	1	0	1	0
23	207	1	10000	1	1	0	1	0
24	208	1	10000	1	1	0	1	0
24	209	1	10000	1	1	0	1	0
26	210	1	10000	1	1	0	1	0
29	211	1	10000	1	1	0	1	0
29	212	1	10000	1	1	0	1	0
28	213	1	10000	1	1	0	1	0
28	214	1	10000	1	1	0	1	0
28	215	1	10000	1	1	0	1	0
28	216	1	10000	1	1	0	1	0
25	217	1	10000	1	1	0	1	0
25	218	1	10000	1	1	0	1	0
26	219	1	10000	1	1	0	1	0
26	220	1	10000	1	1	0	1	0
26	221	1	10000	1	1	0	1	0
26	222	1	10000	1	1	0	1	0
27	223	1	10000	1	1	0	1	0
26	224	1	10000	1	1	0	1	0
25	225	1	10000	1	1	0	1	0
25	226	1	10000	1	1	0	1	0
27	227	1	10000	1	1	0	1	0
27	228	1	10000	1	1	0	1	0
26	229	1	10000	1	1	0	1	0
26	230	1	10000	1	1	0	1	0
26	231	1	10000	1	1	0	1	0
25	232	1	10000	1	1	0	1	0
25	233	1	10000	1	1	0	1	0
24	234	1	10000	1	1	0	1	0
24	235	1	10000	1	1	0	1	0
24	236	1	10000	1	1	0	1	0
23	237	1	10000	1	1	0	1	0
22	238	1	10000	1	1	0	1	0
22	239	1	10000	1	1	0	1	0
23	240	1	10000	1	1	0	1	0
22	241	1	10000	1	1	0	1	0
24	242	1	10000	1	1	0	1	0
23	243	1	10000	1	1	0	1	0
22	244	1	10000	1	1	0	1	0
22	245	1	10000	1	1	0	1	0
22	246	1	10000	1	1	0	1	0
23	247	1	10000	1	1	0	1	0
24	248	1	10000	1	1	0	1	0
24	249	1	10000	1	1	0	1	0
24	250	1	10000	1	1	0	1	0
23	251	1	10000	1	1	0	1	0
23	252	1	10000	1	1	0	1	0
23	253	1	10000	1	1	0	1	0
24	254	1	10000	1	1	0	1	0
26	255	1	10000	1	1	0	1	0
28	256	1	10000	1	1	0	1	0
26	257	1	10000	1	1	0	1	0
26	258	1	10000	1	1	0	1	0
28	259	1	10000	1	1	0	1	0
29	260	1	10000	1	1	0	1	0
29	261	1	10000	1	1	0	1	0
28	262	1	10000	1	1	0	1	0
27	263	1	10000	1	1	0	1	0
27	264	1	10000	1	1	0	1	0
28	265	1	10000	1	1	0	1	0
26	266	1	10000	1	1	0	1	0
28	267	1	10000	1	1	0	1	0
28	268	1	10000	1	1	0	1	0
27	269	1	10000	1	1	0	1	0
26	270	1	10000	1	1	0	1	0
26	271	1	10000	1	1	0	1	0
26	272	1	10000	1	1	0	1	0
26	273	1	10000	1	1	0	1	0
26	274	1	10000	1	1	0	1	0
26	275	1	10000	1	1	0	1	0
27	276	1	10000	1	1	0	1	0
26	277	1	10000	1	1	0	1	0
25	278	1	10000	1	1	0	1	0
25	279	1	10000	1	1	0	1	0
25	280	1	10000	1	1	0	1	0
24	281	1	10000	1	1	0	1	0
24	282	1	10000	1	1	0	1	0
24	283	1	10000	1	1	0	1	0
25	284	1	10000	1	1	0	1	0
25	285	1	10000	1	1	0	1	0
24	286	1	10000	1	1	0	1	0
26	287	1	10000	1	1	0	1	0
26	288	1	10000	1	1	0	1	0
24	289	1	10000	1	1	0	1	0
24	290	1	10000	1	1	0	1	0
25	291	1	10000	1	1	0	1	0
25	292	1	10000	1	1	0	1	0
24	293	1	10000	1	1	0	1	0
25	294	1	10000	1	1	0	1	0
25	295	1	10000	1	1	0	1	0
25	296	1	10000	1	1	0	1	0
23	297	1	10000	1	1	0	1	0
23	298	1	10000	1	1	0	1	0
23	299	1	10000	1	1	0	1	0
23	300	1	10000	1	1	0	1	0
23	301	1	10000	1	1	0	1	0
23	302	1	10000	1	1	0	1	0
25	303	1	10000	1	1	0	1	0
26	304	1	10000	1	1	0	1	0
27	305	1	10000	1	1	0	1	0
26	306	1	10000	1	1	0	1	0
28	307	1	10000	1	1	0	1	0
28	308	1	10000	1	1	0	1	0
29	309	1	10000	1	1	0	1	0
29	310	1	10000	1	1	0	1	0
30	311	1	10000	1	1	0	1	0
31	312	1	10000	1	1	0	1	0
31	313	1	10000	1	1	0	1	0
31	314	1	10000	1	1	0	1	0
32	315	1	10000	1	1	0	1	0
32	316	1	10000	1	1	0	1	0
30	317	1	10000	1	1	0	1	0
31	318	1	10000	1	1	0	1	0
30	319	1	10000	1	1	0	1	0
29	320	1	10000	1	1	0	1	0
29	321	1	10000	1	1	0	1	0
29	322	1	10000	1	1	0	1	0
28	323	1	10000	1	1	0	1	0
28	324	1	10000	1	1	0	1	0
27	325	1	10000	1	1	0	1	0
27	326	1	10000	1	1	0	1	0
28	327	1	10000	1	1	0	1	0
28	328	1	10000	1	1	0	1	0
27	329	1	10000	1	1	0	1	0
26	330	1	10000	1	1	0	1	0
25	331	1	10000	1	1	0	1	0
26	332	1	10000	1	1	0	1	0
26	333	1	10000	1	1	0	1	0
26	334	1	10000	1	1	0	1	0
26	335	1	10000	1	1	0	1	0
26	336	1	10000	1	1	0	1	0
25	337	1	10000	1	1	0	1	0
24	338	1	10000	1	1	0	1	0
24	339	1	10000	1	1	0	1	0
24	340	1	10000	1	1	0	1	0
24	341	1	10000	1	1	0	1	0
23	342	1	10000	1	1	0	1	0
24	343	1	10000	1	1	0	1	0
23	344	1	10000	1	1	0	1	0
23	345	1	10000	1	1	0	1	0
21	346	1	10000	1	1	0	1	0
23	347	1	10000	1	1	0	1	0
23	348	1	10000	1	1	0	1	0
23	349	1	10000	1	1	0	1	0
23	350	1	10000	1	1	0	1	0
25	351	1	10000	1	1	0	1	0
26	352	1	10000	1	1	0	1	0
27	353	1	10000	1	1	0	1	0
28	354	1	10000	1	1	0	1	0
28	355	1	10000	1	1	0	1	0
28	356	1	10000	1	1	0	1	0
26	357	1	10000	1	1	0	1	0
24	358	1	10000	1	1	0	1	0
25	359	1	10000	1	1	0	1	0
24	360	1	10000	1	1	0	1	0
24	361	1	10000	1	1	0	1	0
24	362	1	10000	1	1	0	1	0
24	363	1	10000	1	1	0	1	0
24	364	1	10000	1	1	0	1	0
23	365	1	10000	1	1	0	1	0
22	366	1	10000	1	1	0	1	0
23	367	1	10000	1	1	0	1	0
23	368	1	10000	1	1	0	1	0
23	369	1	10000	1	1	0	1	0
24	370	1	10000	1	1	0	1	0
23	371	1	10000	1	1	0	1	0
23	372	1	10000	1	1	0	1	0
23	373	1	10000	1	1	0	1	0
23	374	1	10000	1	1	0	1	0
25	375	1	10000	1	1	0	1	0
26	376	1	10000	1	1	0	1	0
24	377	1	10000	1	1	0	1	0
24	378	1	10000	1	1	0	1	0
25	379	1	10000	1	1	0	1	0
24	380	1	10000	1	1	0	1	0
24	381	1	10000	1	1	0	1	0
24	382	1	10000	1	1	0	1	0
25	383	1	10000	1	1	0	1	0
23	384	1	10000	1	1	0	1	0
23	385	1	10000	1	1	0	1	0
22	386	1	10000	1	1	0	1	0
23	387	1	10000	1	1	0	1	0
23	388	1	10000	1	1	0	1	0
23	389	1	10000	1	1	0	1	0
24	390	1	10000	1	1	0	1	0
24	391	1	10000	1	1	0	1	0
24	392	1	10000	1	1	0	1	0
25	393	1	10000	1	1	0	1	0
26	394	1	10000	1	1	0	1	0
26	395	1	10000	1	1	0	1	0
26	396	1	10000	1	1	0	1	0
24	397	1	10000	1	1	0	1	0
23	398	1	10000	1	1	0	1	0
23	399	1	10000	1	1	0	1	0
23	400	1	10000	1	1	0	1	0
23	401	1	10000	1	1	0	1	0
23	402	1	10000	1	1	0	1	0
23	403	1	10000	1	1	0	1	0
22	404	1	10000	1	1	0	1	0
22	405	1	10000	1	1	0	1	0
22	406	1	10000	1	1	0	1	0
24	407	1	10000	1	1	0	1	0
25	408	1	10000	1	1	0	1	0
24	409	1	10000	1	1	0	1	0
24	410	1	10000	1	1	0	1	0
23	411	1	10000	1	1	0	1	0
23	412	1	10000	1	1	0	1	0
24	413	1	10000	1	1	0	1	0
24	414	1	10000	1	1	0	1	0
24	415	1	10000	1	1	0	1	0
25	416	1	10000	1	1	0	1	0
24	417	1	10000	1	1	0	1	0
25	418	1	10000	1	1	0	1	0
25	419	1	10000	1	1	0	1	0
27	420	1	10000	1	1	0	1	0
28	421	1	10000	1	1	0	1	0
26	422	1	10000	1	1	0	1	0
27	423	1	10000	1	1	0	1	0
25	424	1	10000	1	1	0	1	0
25	425	1	10000	1	1	0	1	0
24	426	1	10000	1	1	0	1	0
25	427	1	10000	1	1	0	1	0
25	428	1	10000	1	1	0	1	0
25	429	1	10000	1	1	0	1	0
25	430	1	10000	1	1	0	1	0
24	431	1	10000	1	1	0	1	0
25	432	1	10000	1	1	0	1	0
24	433	1	10000	1	1	0	1	0
24	434	1	10000	1	1	0	1	0
24	435	1	10000	1	1	0	1	0
25	436	1	10000	1	1	0	1	0
23	437	1	10000	1	1	0	1	0
22	438	1	10000	1	1	0	1	0
23	439	1	10000	1	1	0	1	0
23	440	1	10000	1	1	0	1	0
22	441	1	10000	1	1	0	1	0
22	442	1	10000	1	1	0	1	0
22	443	1	10000	1	1	0	1	0
22	444	1	10000	1	1	0	1	0
22	445	1	10000	1	1	0	1	0
21	446	1	10000	1	1	0	1	0
23	447	1	10000	1	1	0	1	0
23	448	1	10000	1	1	0	1	0
23	449	1	10000	1	1	0	1	0
22	450	1	10000	1	1	0	1	0
23	451	1	10000	1	1	0	1	0
23	452	1	10000	1	1	0	1	0
23	453	1	10000	1	1	0	1	0
23	454	1	10000	1	1	0	1	0
23	455	1	10000	1	1	0	1	0
25	456	1	10000	1	1	0	1	0
25	457	1	10000	1	1	0	1	0
24	458	1	10000	1	1	0	1	0
26	459	1	10000	1	1	0	1	0
25	460	1	10000	1	1	0	1	0
26	461	1	10000	1	1	0	1	0
25	462	1	10000	1	1	0	1	0
25	463	1	10000	1	1	0	1	0
24	464	1	10000	1	1	0	1	0
24	465	1	10000	1	1	0	1	0
23	466	1	10000	1	1	0	1	0
25	467	1	10000	1	1	0	1	0
25	468	1	10000	1	1	0	1	0
25	469	1	10000	1	1	0	1	0
25	470	1	10000	1	1	0	1	0
24	471	1	10000	1	1	0	1	0
25	472	1	10000	1	1	0	1	0
27	473	1	10000	1	1	0	1	0
28	474	1	10000	1	1	0	1	0
27	475	1	10000	1	1	0	1	0
28	476	1	10000	1	1	0	1	0
26	477	1	10000	1	1	0	1	0
26	478	1	10000	1	1	0	1	0
26	479	1	10000	1	1	0	1	0
26	480	1	10000	1	1	0	1	0
28	481	1	10000	1	1	0	1	0
28	482	1	10000	1	1	0	1	0
28	483	1	10000	1	1	0	1	0
27	484	1	10000	1	1	0	1	0
26	485	1	10000	1	1	0	1	0
27	486	1	10000	1	1	0	1	0
27	487	1	10000	1	1	0	1	0
27	488	1	10000	1	1	0	1	0
27	489	1	10000	1	1	0	1	0
26	490	1	10000	1	1	0	1	0
25	491	1	10000	1	1	0	1	0
25	492	1	10000	1	1	0	1	0
24	493	1	10000	1	1	0	1	0
24	494	1	10000	1	1	0	1	0
24	495	1	10000	1	1	0	1	0
24	496	1	10000	1	1	0	1	0
24	497	1	10000	1	1	0	1	0
22	498	1	10000	1	1	0	1	0
23	499	1	10000	1	1	0	1	0
23	500	1	10000	1	1	0	1	0
23	501	1	10000	1	1	0	1	0
23	521	1	10000	1	1	0	1	1
23	522	1	10000	1	1	0	1	1
23	523	1	10000	1	1	0	1	1
23	524	1	10000	1	1	0	1	1
21	525	1	10000	1	1	0	1	1
24	526	1	10000	1	1	0	1	1
25	527	1	10000	1	1	0	1	1
24	528	1	10000	1	1	0	1	1
25	529	1	10000	1	1	0	1	1
26	530	1	10000	1	1	0	1	1
25	531	1	10000	1	1	0	1	1
25	532	1	10000	1	1	0	1	1
25	533	1	10000	1	1	0	1	1
26	534	1	10000	1	1	0	1	1
28	535	1	10000	1	1	0	1	1
25	536	1	10000	1	1	0	1	1
24	537	1	10000	1	1	0	1	1
24	538	1	10000	1	1	0	1	1
24	539	1	10000	1	1	0	1	1
24	540	1	10000	1	1	0	1	1
24	522	1	10000	1	1	0	1	1
23	523	1	10000	1	1	0	1	1
22	524	1	10000	1	1	0	1	1
23	525	1	10000	1	1	0	1	1
22	526	1	10000	1	1	0	1	1
24	527	1	10000	1	1	0	1	1
24	528	1	10000	1	1	0	1	1
23	529	1	10000	1	1	0	1	1
22	530	1	10000	1	1	0	1	1
21	531	1	10000	1	1	0	1	1
22	532	1	10000	1	1	0	1	1
22	533	1	10000	1	1	0	1	1
26	534	1	10000	1	1	0	1	1
27	535	1	10000	1	1	0	1	1
27	536	1	10000	1	1	0	1	1
25	537	1	10000	1	1	0	1	1
24	538	1	10000	1	1	0	1	1
24	539	1	10000	1	1	0	1	1
25	540	1	10000	1	1	0	1	1
25	541	1	10000	1	1	0	1	1
24	542	1	10000	1	1	0	1	1
25	543	1	10000	1	1	0	1	1
24	544	1	10000	1	1	0	1	1
22	545	1	10000	1	1	0	1	1
23	546	1	10000	1	1	0	1	1
24	547	1	10000	1	1	0	1	1
24	548	1	10000	1	1	0	1	1
23	549	1	10000	1	1	0	1	1
23	550	1	10000	1	1	0	1	1
23	551	1	10000	1	1	0	1	1
23	552	1	10000	1	1	0	1	0
24	553	1	10000	1	1	0	1	0
25	554	1	10000	1	1	0	1	0
25	555	1	10000	1	1	0	1	0
25	556	1	10000	1	1	0	1	0
24	557	1	10000	1	1	0	1	0
22	558	1	10000	1	1	0	1	0
23	559	1	10000	1	1	0	1	0
23	560	1	10000	1	1	0	1	0
23	561	1	10000	1	1	0	1	0
22	562	1	10000	1	1	0	1	0
23	563	1	10000	1	1	0	1	0
22	564	1	10000	1	1	0	1	0
22	565	1	10000	1	1	0	1	0
21	566	1	10000	1	1	0	1	0
21	567	1	10000	1	1	0	1	0
22	568	1	10000	1	1	0	1	0
21	569	1	10000	1	1	0	1	0
22	570	1	10000	1	1	0	1	0
22	571	1	10000	1	1	0	1	0
21	572	1	10000	1	1	0	1	0
22	573	1	10000	1	1	0	1	0
21	574	1	10000	1	1	0	1	0
21	575	1	10000	1	1	0	1	0
22	576	1	10000	1	1	0	1	0
20	577	1	10000	1	1	0	1	0
20	578	1	10000	1	1	0	1	0
20	579	1	10000	1	1	0	1	0
20	580	1	10000	1	1	0	1	0
21	581	1	10000	1	1	0	1	0
20	582	1	10000	1	1	0	1	0
21	583	1	10000	1	1	0	1	0
21	584	1	10000	1	1	0	1	0
20	585	1	10000	1	1	0	1	0
20	586	1	10000	1	1	0	1	0
21	587	1	10000	1	1	0	1	0
21	588	1	10000	1	1	0	1	0
21	589	1	10000	1	1	0	1	0
21	590	1	10000	1	1	0	1	0
21	591	1	10000	1	1	0	1	0
22	592	1	10000	1	1	0	1	0
21	593	1	10000	1	1	0	1	0
21	594	1	10000	1	1	0	1	0
22	595	1	10000	1	1	0	1	0
23	596	1	10000	1	1	0	1	0
22	597	1	10000	1	1	0	1	0
23	598	1	10000	1	1	0	1	0
23	599	1	10000	1	1	0	1	0
22	600	1	10000	1	1	0	1	0
22	601	1	10000	1	1	0	1	0
22	602	1	10000	1	1	0	1	0
23	603	1	10000	1	1	0	1	0
23	604	1	10000	1	1	0	1	0
22	605	1	10000	1	1	0	1	0
23	606	1	10000	1	1	0	1	0
30	607	1	10000	1	1	0	1	0
36	608	1	10000	1	1	0	1	0
39	609	1	10000	1	1	0	1	0
44	610	1	10000	1	1	0	1	0
50	611	1	10000	1	1	0	1	0
53	612	1	10000	1	1	0	1	0
89	613	1	10000	1	1	0	1	0
110	614	1	10000	1	1	0	1	0
165	615	1	10000	1	1	0	1	0
193	616	1	10000	1	1	0	1	0
247	617	1	10000	1	1	0	1	0
255	618	1	10000	1	1	0	1	0
256	619	1	10000	1	1	0	1	0
302	620	1	10000	1	1	0	1	0
310	621	1	10000	1	1	0	1	0
328	622	1	10000	1	1	0	1	0
317	623	1	10000	1	1	0	1	0
320	624	1	10000	1	1	0	1	0
331	625	1	10000	1	1	0	1	0
389	626	1	10000	1	1	0	1	0
396	627	1	10000	1	1	0	1	0
403	628	1	10000	1	1	0	1	0
398	629	1	10000	1	1	0	1	0
423	630	1	10000	1	1	0	1	0
454	631	1	10000	1	1	0	1	0
478	632	1	10000	1	1	0	1	0
480	633	1	10000	1	1	0	1	0
470	634	1	10000	1	1	0	1	0
454	635	1	10000	1	1	0	1	0
452	636	1	10000	1	1	0	1	0
447	637	1	10000	1	1	0	1	0
435	638	1	10000	1	1	0	1	0
438	639	1	10000	1	1	0	1	0
440	640	1	10000	1	1	0	1	0
452	641	1	10000	1	1	0	1	0
458	642	1	10000	1	1	0	1	0
459	643	1	10000	1	1	0	1	0
441	644	1	10000	1	1	0	1	0
429	645	1	10000	1	1	0	1	0
437	646	1	10000	1	1	0	1	0
442	647	1	10000	1	1	0	1	0
451	648	1	10000	1	1	0	1	0
455	649	1	10000	1	1	0	1	0
438	650	1	10000	1	1	0	1	0
420	651	1	10000	1	1	0	1	0
410	652	1	10000	1	1	0	1	0
400	653	1	10000	1	1	0	1	0
391	654	1	10000	1	1	0	1	0
393	655	1	10000	1	1	0	1	0
398	656	1	10000	1	1	0	1	0
387	657	1	10000	1	1	0	1	0
372	658	1	10000	1	1	0	1	0
367	659	1	10000	1	1	0	1	0
379	660	1	10000	1	1	0	1	0
378	661	1	10000	1	1	0	1	0
363	662	1	10000	1	1	0	1	0
376	663	1	10000	1	1	0	1	0
374	664	1	10000	1	1	0	1	0
387	665	1	10000	1	1	0	1	0
404	666	1	10000	1	1	0	1	0
420	667	1	10000	1	1	0	1	0
420	668	1	10000	1	1	0	1	0
426	669	1	10000	1	1	0	1	0
439	670	1	10000	1	1	0	1	0
434	671	1	10000	1	1	0	1	0
420	672	1	10000	1	1	0	1	0
405	673	1	10000	1	1	0	1	0
394	674	1	10000	1	1	0	1	0
383	675	1	10000	1	1	0	1	0
370	676	1	10000	1	1	0	1	0
355	677	1	10000	1	1	0	1	0
340	678	1	10000	1	1	0	1	0
328	679	1	10000	1	1	0	1	0
317	680	1	10000	1	1	0	1	0
304	681	1	10000	1	1	0	1	0
297	682	1	10000	1	1	0	1	0
300	683	1	10000	1	1	0	1	0
299	684	1	10000	1	1	0	1	0
295	685	1	10000	1	1	0	1	0
295	686	1	10000	1	1	0	1	0
297	687	1	10000	1	1	0	1	0
297	688	1	10000	1	1	0	1	0
297	689	1	10000	1	1	0	1	0
295	690	1	10000	1	1	0	1	0
285	691	1	10000	1	1	0	1	0
275	692	1	10000	1	1	0	1	0
273	693	1	10000	1	1	0	1	0
281	694	1	10000	1	1	0	1	0
302	695	1	10000	1	1	0	1	0
309	696	1	10000	1	1	0	1	0
308	697	1	10000	1	1	0	1	0
313	698	1	10000	1	1	0	1	0
324	699	1	10000	1	1	0	1	0
324	700	1	10000	1	1	0	1	0
318	701	1	10000	1	1	0	1	0
317	702	1	10000	1	1	0	1	0
312	703	1	10000	1	1	0	1	0
315	704	1	10000	1	1	0	1	0
327	705	1	10000	1	1	0	1	0
329	706	1	10000	1	1	0	1	0
325	707	1	10000	1	1	0	1	0
315	708	1	10000	1	1	0	1	0
302	709	1	10000	1	1	0	1	0
303	710	1	10000	1	1	0	1	0
304	711	1	10000	1	1	0	1	0
303	712	1	10000	1	1	0	1	0
303	713	1	10000	1	1	0	1	0
301	714	1	10000	1	1	0	1	0
299	715	1	10000	1	1	0	1	0
302	716	1	10000	1	1	0	1	0
299	717	1	10000	1	1	0	1	0
290	718	1	10000	1	1	0	1	0
283	719	1	10000	1	1	0	1	0
284	720	1	10000	1	1	0	1	0
285	721	1	10000	1	1	0	1	0
279	722	1	10000	1	1	0	1	0
275	723	1	10000	1	1	0	1	0
276	724	1	10000	1	1	0	1	0
273	725	1	10000	1	1	0	1	0
262	726	1	10000	1	1	0	1	0
253	727	1	10000	1	1	0	1	0
259	728	1	10000	1	1	0	1	0
266	729	1	10000	1	1	0	1	0
260	730	1	10000	1	1	0	1	0
253	731	1	10000	1	1	0	1	0
250	732	1	10000	1	1	0	1	0
246	733	1	10000	1	1	0	1	0
242	734	1	10000	1	1	0	1	0
237	735	1	10000	1	1	0	1	0
230	736	1	10000	1	1	0	1	0
220	737	1	10000	1	1	0	1	0
214	738	1	10000	1	1	0	1	0
212	739	1	10000	1	1	0	1	0
206	740	1	10000	1	1	0	1	0
197	741	1	10000	1	1	0	1	0
192	742	1	10000	1	1	0	1	0
196	743	1	10000	1	1	0	1	0
192	744	1	10000	1	1	0	1	0
189	745	1	10000	1	1	0	1	0
187	746	1	10000	1	1	0	1	0
181	747	1	10000	1	1	0	1	0
177	748	1	10000	1	1	0	1	0
175	749	1	10000	1	1	0	1	0
170	750	1	10000	1	1	0	1	0
167	751	1	10000	1	1	0	1	0
165	752	1	10000	1	1	0	1	0
159	753	1	10000	1	1	0	1	0
153	754	1	10000	1	1	0	1	0
150	755	1	10000	1	1	0	1	0
146	756	1	10000	1	1	0	1	0
140	757	1	10000	1	1	0	1	0
134	758	1	10000	1	1	0	1	0
130	759	1	10000	1	1	0	1	0
129	760	1	10000	1	1	0	1	0
126	761	1	10000	1	1	0	1	0
121	762	1	10000	1	1	0	1	0
121	763	1	10000	1	1	0	1	0
121	764	1	10000	1	1	0	1	0
123	765	1	10000	1	1	0	1	0
118	766	1	10000	1	1	0	1	0
116	767	1	10000	1	1	0	1	0
117	768	1	10000	1	1	0	1	0
118	769	1	10000	1	1	0	1	0
114	770	1	10000	1	1	0	1	0
113	771	1	10000	1	1	0	1	0
110	772	1	10000	1	1	0	1	0
110	773	1	10000	1	1	0	1	0
115	774	1	10000	1	1	0	1	0
113	775	1	10000	1	1	0	1	0
113	776	1	10000	1	1	0	1	0
123	777	1	10000	1	1	0	1	0
124	778	1	10000	1	1	0	1	0
133	779	1	10000	1	1	0	1	0
136	780	1	10000	1	1	0	1	0
143	781	1	10000	1	1	0	1	0
155	782	1	10000	1	1	0	1	0
157	783	1	10000	1	1	0	1	0
157	784	1	10000	1	1	0	1	0
155	785	1	10000	1	1	0	1	0
149	786	1	10000	1	1	0	1	0
144	787	1	10000	1	1	0	1	0
140	788	1	10000	1	1	0	1	0
136	789	1	10000	1	1	0	1	0
132	790	1	10000	1	1	0	1	0
127	791	1	10000	1	1	0	1	0
123	792	1	10000	1	1	0	1	0
122	793	1	10000	1	1	0	1	0
119	794	1	10000	1	1	0	1	0
119	795	1	10000	1	1	0	1	0
121	796	1	10000	1	1	0	1	0
119	797	1	10000	1	1	0	1	0
115	798	1	10000	1	1	0	1	0
122	799	1	10000	1	1	0	1	0
138	800	1	10000	1	1	0	1	0
140	801	1	10000	1	1	0	1	0
135	802	1	10000	1	1	0	1	0
132	803	1	10000	1	1	0	1	0
133	804	1	10000	1	1	0	1	0
135	805	1	10000	1	1	0	1	0
133	806	1	10000	1	1	0	1	0
137	807	1	10000	1	1	0	1	0
141	808	1	10000	1	1	0	1	0
138	809	1	10000	1	1	0	1	0
133	810	1	10000	1	1	0	1	0
131	811	1	10000	1	1	0	1	0
137	812	1	10000	1	1	0	1	0
143	813	1	10000	1	1	0	1	0
142	814	1	10000	1	1	0	1	0
139	815	1	10000	1	1	0	1	0
140	816	1	10000	1	1	0	1	0
139	817	1	10000	1	1	0	1	0
134	818	1	10000	1	1	0	1	0
136	819	1	10000	1	1	0	1	0
144	820	1	10000	1	1	0	1	0
151	821	1	10000	1	1	0	1	0
156	822	1	10000	1	1	0	1	0
160	823	1	10000	1	1	0	1	0
157	824	1	10000	1	1	0	1	0
150	825	1	10000	1	1	0	1	0
144	826	1	10000	1	1	0	1	0
140	827	1	10000	1	1	0	1	0
134	828	1	10000	1	1	0	1	0
129	829	1	10000	1	1	0	1	0
124	830	1	10000	1	1	0	1	0
119	831	1	10000	1	1	0	1	0
115	832	1	10000	1	1	0	1	0
117	833	1	10000	1	1	0	1	0
122	834	1	10000	1	1	0	1	0
123	835	1	10000	1	1	0	1	0
124	836	1	10000	1	1	0	1	0
120	837	1	10000	1	1	0	1	0
118	838	1	10000	1	1	0	1	0
118	839	1	10000	1	1	0	1	0
122	840	1	10000	1	1	0	1	0
125	841	1	10000	1	1	0	1	0
121	842	1	10000	1	1	0	1	0
116	843	1	10000	1	1	0	1	0
112	844	1	10000	1	1	0	1	0
108	845	1	10000	1	1	0	1	0
103	846	1	10000	1	1	0	1	0
101	847	1	10000	1	1	0	1	0
97	848	1	10000	1	1	0	1	0
93	849	1	10000	1	1	0	1	0
92	850	1	10000	1	1	0	1	0
88	851	1	10000	1	1	0	1	0
85	852	1	10000	1	1	0	1	0
82	853	1	10000	1	1	0	1	0
79	854	1	10000	1	1	0	1	0
77	855	1	10000	1	1	0	1	0
75	856	1	10000	1	1	0	1	0
74	857	1	10000	1	1	0	1	0
72	858	1	10000	1	1	0	1	0
75	859	1	10000	1	1	0	1	0
77	860	1	10000	1	1	0	1	0
83	861	1	10000	1	1	0	1	0
85	862	1	10000	1	1	0	1	0
90	863	1	10000	1	1	0	1	0
89	864	1	10000	1	1	0	1	0
91	865	1	10000	1	1	0	1	0
87	866	1	10000	1	1	0	1	0
86	867	1	10000	1	1	0	1	0
87	868	1	10000	1	1	0	1	0
85	869	1	10000	1	1	0	1	0
81	870	1	10000	1	1	0	1	0
81	871	1	10000	1	1	0	1	0
80	872	1	10000	1	1	0	1	0
80	873	1	10000	1	1	0	1	0
85	874	1	10000	1	1	0	1	0
84	875	1	10000	1	1	0	1	0
91	876	1	10000	1	1	0	1	0
89	877	1	10000	1	1	0	1	0
86	878	1	10000	1	1	0	1	0
82	879	1	10000	1	1	0	1	0
80	880	1	10000	1	1	0	1	0
78	881	1	10000	1	1	0	1	0
75	882	1	10000	1	1	0	1	0
74	883	1	10000	1	1	0	1	0
74	884	1	10000	1	1	0	1	0
75	885	1	10000	1	1	0	1	0
78	886	1	10000	1	1	0	1	0
79	887	1	10000	1	1	0	1	0
78	888	1	10000	1	1	0	1	0
74	889	1	10000	1	1	0	1	0
71	890	1	10000	1	1	0	1	0
70	891	1	10000	1	1	0	1	0
70	892	1	10000	1	1	0	1	0
75	893	1	10000	1	1	0	1	0
79	894	1	10000	1	1	0	1	0
79	895	1	10000	1	1	0	1	0
78	896	1	10000	1	1	0	1	0
75	897	1	10000	1	1	0	1	0
72	898	1	10000	1	1	0	1	0
73	899	1	10000	1	1	0	1	0
76	900	1	10000	1	1	0	1	0
74	901	1	10000	1	1	0	1	0
77	902	1	10000	1	1	0	1	0
80	903	1	10000	1	1	0	1	0
81	904	1	10000	1	1	0	1	0
83	905	1	10000	1	1	0	1	0
80	906	1	10000	1	1	0	1	0
82	907	1	10000	1	1	0	1	0
80	908	1	10000	1	1	0	1	0
79	909	1	10000	1	1	0	1	0
80	910	1	10000	1	1	0	1	0
76	911	1	10000	1	1	0	1	0
76	912	1	10000	1	1	0	1	0
74	913	1	10000	1	1	0	1	0
71	914	1	10000	1	1	0	1	0
69	915	1	10000	1	1	0	1	0
69	916	1	10000	1	1	0	1	0
72	917	1	10000	1	1	0	1	0
71	918	1	10000	1	1	0	1	0
71	919	1	10000	1	1	0	1	0
70	920	1	10000	1	1	0	1	0
68	921	1	10000	1	1	0	1	0
66	922	1	10000	1	1	0	1	0
65	923	1	10000	1	1	0	1	0
67	924	1	10000	1	1	0	1	0
66	925	1	10000	1	1	0	1	0
65	926	1	10000	1	1	0	1	0
63	927	1	10000	1	1	0	1	0
62	928	1	10000	1	1	0	1	0
62	929	1	10000	1	1	0	1	0
62	930	1	10000	1	1	0	1	0
60	931	1	10000	1	1	0	1	0
59	932	1	10000	1	1	0	1	0
58	933	1	10000	1	1	0	1	0
63	934	1	10000	1	1	0	1	0
68	935	1	10000	1	1	0	1	0
68	936	1	10000	1	1	0	1	0
69	937	1	10000	1	1	0	1	0
68	938	1	10000	1	1	0	1	0
67	939	1	10000	1	1	0	1	0
72	940	1	10000	1	1	0	1	0
80	941	1	10000	1	1	0	1	0
80	942	1	10000	1	1	0	1	0
78	943	1	10000	1	1	0	1	0
75	944	1	10000	1	1	0	1	0
72	945	1	10000	1	1	0	1	0
69	946	1	10000	1	1	0	1	0
68	947	1	10000	1	1	0	1	0
69	948	1	10000	1	1	0	1	0
72	949	1	10000	1	1	0	1	0
78	950	1	10000	1	1	0	1	0
78	951	1	10000	1	1	0	1	0
85	952	1	10000	1	1	0	1	0
94	953	1	10000	1	1	0	1	0
102	954	1	10000	1	1	0	1	0
108	955	1	10000	1	1	0	1	0
107	956	1	10000	1	1	0	1	0
102	957	1	10000	1	1	0	1	0
100	958	1	10000	1	1	0	1	0
99	959	1	10000	1	1	0	1	0
96	960	1	10000	1	1	0	1	0
95	961	1	10000	1	1	0	1	0
92	962	1	10000	1	1	0	1	0
89	963	1	10000	1	1	0	1	0
90	964	1	10000	1	1	0	1	0
90	965	1	10000	1	1	0	1	0
87	966	1	10000	1	1	0	1	0
86	967	1	10000	1	1	0	1	0
86	968	1	10000	1	1	0	1	0
87	969	1	10000	1	1	0	1	0
89	970	1	10000	1	1	0	1	0
92	971	1	10000	1	1	0	1	0
92	972	1	10000	1	1	0	1	0
89	973	1	10000	1	1	0	1	0
89	974	1	10000	1	1	0	1	0
89	975	1	10000	1	1	0	1	0
85	976	1	10000	1	1	0	1	0
81	977	1	10000	1	1	0	1	0
77	978	1	10000	1	1	0	1	0
75	979	1	10000	1	1	0	1	0
72	980	1	10000	1	1	0	1	0
71	981	1	10000	1	1	0	1	0
69	982	1	10000	1	1	0	1	0
68	983	1	10000	1	1	0	1	0
65	984	1	10000	1	1	0	1	0
62	985	1	10000	1	1	0	1	0
60	986	1	10000	1	1	0	1	0
58	987	1	10000	1	1	0	1	0
58	988	1	10000	1	1	0	1	0
57	989	1	10000	1	1	0	1	0
56	990	1	10000	1	1	0	1	0
55	991	1	10000	1	1	0	1	0
54	992	1	10000	1	1	0	1	0
54	993	1	10000	1	1	0	1	0
56	994	1	10000	1	1	0	1	0
56	995	1	10000	1	1	0	1	0
58	996	1	10000	1	1	0	1	0
56	997	1	10000	1	1	0	1	0
53	998	1	10000	1	1	0	1	0
54	999	1	10000	1	1	0	1	0
53	1000	1	10000	1	1	0	1	0
52	1001	1	10000	1	1	0	1	0
161	2	10	10000	2	1	0	2	0
157	3	10	10000	2	1	0	2	0
151	4	10	10000	2	1	0	2	0
146	5	10	10000	2	1	0	2	0
141	6	10	10000	2	1	0	2	0
136	7	10	10000	2	1	0	2	0
134	8	10	10000	2	1	0	2	0
143	9	10	10000	2	1	0	2	0
171	10	10	10000	2	1	0	2	0
194	11	10	10000	2	1	0	2	0
200	12	10	10000	2	1	0	2	0
200	13	10	10000	2	1	0	2	0
209	14	10	10000	2	1	0	2	0
212	15	10	10000	2	1	0	2	0
213	16	10	10000	2	1	0	2	0
209	17	10	10000	2	1	0	2	0
200	18	10	10000	2	1	0	2	0
192	19	10	10000	2	1	0	2	0
187	20	10	10000	2	1	0	2	0
181	21	10	10000	2	1	0	2	0
181	22	10	10000	2	1	0	2	0
181	23	10	10000	2	1	0	2	0
180	24	10	10000	2	1	0	2	0
176	25	10	10000	2	1	0	2	0
170	26	10	10000	2	1	0	2	0
164	27	10	10000	2	1	0	2	0
163	28	10	10000	2	1	0	2	0
162	29	10	10000	2	1	0	2	0
157	30	10	10000	2	1	0	2	0
151	31	10	10000	2	1	0	2	0
145	32	10	10000	2	1	0	2	0
140	33	10	10000	2	1	0	2	0
135	34	10	10000	2	1	0	2	0
131	35	10	10000	2	1	0	2	0
129	36	10	10000	2	1	0	2	0
129	37	10	10000	2	1	0	2	0
127	38	10	10000	2	1	0	2	0
131	39	10	10000	2	1	0	2	0
135	40	10	10000	2	1	0	2	0
137	41	10	10000	2	1	0	2	0
143	42	10	10000	2	1	0	2	0
147	43	10	10000	2	1	0	2	0
151	44	10	10000	2	1	0	2	0
154	45	10	10000	2	1	0	2	0
158	46	10	10000	2	1	0	2	0
163	47	10	10000	2	1	0	2	0
168	48	10	10000	2	1	0	2	0
171	49	10	10000	2	1	0	2	0
170	50	10	10000	2	1	0	2	0
169	51	10	10000	2	1	0	2	0
164	52	10	10000	2	1	0	2	0
158	53	10	10000	2	1	0	2	0
152	54	10	10000	2	1	0	2	0
147	55	10	10000	2	1	0	2	0
144	56	10	10000	2	1	0	2	0
138	57	10	10000	2	1	0	2	0
133	58	10	10000	2	1	0	2	0
126	59	10	10000	2	1	0	2	0
123	60	10	10000	2	1	0	2	0
121	61	10	10000	2	1	0	2	0
121	62	10	10000	2	1	0	2	0
122	63	10	10000	2	1	0	2	0
120	64	10	10000	2	1	0	2	0
120	65	10	10000	2	1	0	2	0
121	66	10	10000	2	1	0	2	0
119	67	10	10000	2	1	0	2	0
118	68	10	10000	2	1	0	2	0
119	69	10	10000	2	1	0	2	0
121	70	10	10000	2	1	0	2	0
121	71	10	10000	2	1	0	2	0
116	72	10	10000	2	1	0	2	0
112	73	10	10000	2	1	0	2	0
110	74	10	10000	2	1	0	2	0
104	75	10	10000	2	1	0	2	0
101	76	10	10000	2	1	0	2	0
99	77	10	10000	2	1	0	2	0
95	78	10	10000	2	1	0	2	0
90	79	10	10000	2	1	0	2	0
90	80	10	10000	2	1	0	2	0
91	81	10	10000	2	1	0	2	0
89	82	10	10000	2	1	0	2	0
87	83	10	10000	2	1	0	2	0
87	84	10	10000	2	1	0	2	0
87	85	10	10000	2	1	0	2	0
87	86	10	10000	2	1	0	2	0
85	87	10	10000	2	1	0	2	0
84	88	10	10000	2	1	0	2	0
82	89	10	10000	2	1	0	2	0
80	90	10	10000	2	1	0	2	0
76	91	10	10000	2	1	0	2	0
73	92	10	10000	2	1	0	2	0
71	93	10	10000	2	1	0	2	0
68	94	10	10000	2	1	0	2	0
68	95	10	10000	2	1	0	2	0
70	96	10	10000	2	1	0	2	0
70	97	10	10000	2	1	0	2	0
70	98	10	10000	2	1	0	2	0
69	99	10	10000	2	1	0	2	0
67	100	10	10000	2	1	0	2	0
66	101	10	10000	2	1	0	2	0
64	102	10	10000	2	1	0	2	0
62	103	10	10000	2	1	0	2	0
60	104	10	10000	2	1	0	2	0
58	105	10	10000	2	1	0	2	0
56	106	10	10000	2	1	0	2	0
55	107	10	10000	2	1	0	2	0
55	108	10	10000	2	1	0	2	0
56	109	10	10000	2	1	0	2	0
54	110	10	10000	2	1	0	2	0
52	111	10	10000	2	1	0	2	0
51	112	10	10000	2	1	0	2	0
49	113	10	10000	2	1	0	2	0
49	114	10	10000	2	1	0	2	0
48	115	10	10000	2	1	0	2	0
47	116	10	10000	2	1	0	2	0
48	117	10	10000	2	1	0	2	0
48	118	10	10000	2	1	0	2	0
46	119	10	10000	2	1	0	2	0
45	120	10	10000	2	1	0	2	0
45	121	10	10000	2	1	0	2	0
46	122	10	10000	2	1	0	2	0
47	123	10	10000	2	1	0	2	0
49	124	10	10000	2	1	0	2	0
48	125	10	10000	2	1	0	2	0
47	126	10	10000	2	1	0	2	0
46	127	10	10000	2	1	0	2	0
45	128	10	10000	2	1	0	2	0
46	129	10	10000	2	1	0	2	0
44	130	10	10000	2	1	0	2	0
45	131	10	10000	2	1	0	2	0
43	132	10	10000	2	1	0	2	0
42	133	10	10000	2	1	0	2	0
40	134	10	10000	2	1	0	2	0
40	135	10	10000	2	1	0	2	0
39	136	10	10000	2	1	0	2	0
38	137	10	10000	2	1	0	2	0
37	138	10	10000	2	1	0	2	0
35	139	10	10000	2	1	0	2	0
34	140	10	10000	2	1	0	2	0
36	141	10	10000	2	1	0	2	0
41	142	10	10000	2	1	0	2	0
42	143	10	10000	2	1	0	2	0
44	144	10	10000	2	1	0	2	0
46	145	10	10000	2	1	0	2	0
46	146	10	10000	2	1	0	2	0
44	147	10	10000	2	1	0	2	0
47	148	10	10000	2	1	0	2	0
51	149	10	10000	2	1	0	2	0
53	150	10	10000	2	1	0	2	0
54	151	10	10000	2	1	0	2	0
57	152	10	10000	2	1	0	2	0
60	153	10	10000	2	1	0	2	0
60	154	10	10000	2	1	0	2	0
60	155	10	10000	2	1	0	2	0
61	156	10	10000	2	1	0	2	0
62	157	10	10000	2	1	0	2	0
60	158	10	10000	2	1	0	2	0
58	159	10	10000	2	1	0	2	0
56	160	10	10000	2	1	0	2	0
55	161	10	10000	2	1	0	2	0
55	162	10	10000	2	1	0	2	0
56	163	10	10000	2	1	0	2	0
57	164	10	10000	2	1	0	2	0
58	165	10	10000	2	1	0	2	0
59	166	10	10000	2	1	0	2	0
58	167	10	10000	2	1	0	2	0
57	168	10	10000	2	1	0	2	0
56	169	10	10000	2	1	0	2	0
55	170	10	10000	2	1	0	2	0
53	171	10	10000	2	1	0	2	0
53	172	10	10000	2	1	0	2	0
52	173	10	10000	2	1	0	2	0
52	174	10	10000	2	1	0	2	0
51	175	10	10000	2	1	0	2	0
53	176	10	10000	2	1	0	2	0
53	177	10	10000	2	1	0	2	0
50	178	10	10000	2	1	0	2	0
50	179	10	10000	2	1	0	2	0
51	180	10	10000	2	1	0	2	0
51	181	10	10000	2	1	0	2	0
50	182	10	10000	2	1	0	2	0
50	183	10	10000	2	1	0	2	0
48	184	10	10000	2	1	0	2	0
47	185	10	10000	2	1	0	2	0
47	186	10	10000	2	1	0	2	0
45	187	10	10000	2	1	0	2	0
45	188	10	10000	2	1	0	2	0
45	189	10	10000	2	1	0	2	0
44	190	10	10000	2	1	0	2	0
45	191	10	10000	2	1	0	2	0
46	192	10	10000	2	1	0	2	0
48	193	10	10000	2	1	0	2	0
51	194	10	10000	2	1	0	2	0
52	195	10	10000	2	1	0	2	0
52	196	10	10000	2	1	0	2	0
52	197	10	10000	2	1	0	2	0
52	198	10	10000	2	1	0	2	0
52	199	10	10000	2	1	0	2	0
54	200	10	10000	2	1	0	2	0
53	201	10	10000	2	1	0	2	0
53	202	10	10000	2	1	0	2	0
51	203	10	10000	2	1	0	2	0
50	204	10	10000	2	1	0	2	0
48	205	10	10000	2	1	0	2	0
48	206	10	10000	2	1	0	2	0
47	207	10	10000	2	1	0	2	0
48	208	10	10000	2	1	0	2	0
52	209	10	10000	2	1	0	2	0
54	210	10	10000	2	1	0	2	0
54	211	10	10000	2	1	0	2	0
53	212	10	10000	2	1	0	2	0
52	213	10	10000	2	1	0	2	0
53	214	10	10000	2	1	0	2	0
53	215	10	10000	2	1	0	2	0
53	216	10	10000	2	1	0	2	0
51	217	10	10000	2	1	0	2	0
49	218	10	10000	2	1	0	2	0
49	219	10	10000	2	1	0	2	0
50	220	10	10000	2	1	0	2	0
53	221	10	10000	2	1	0	2	0
54	222	10	10000	2	1	0	2	0
53	223	10	10000	2	1	0	2	0
52	224	10	10000	2	1	0	2	0
51	225	10	10000	2	1	0	2	0
51	226	10	10000	2	1	0	2	0
48	227	10	10000	2	1	0	2	0
48	228	10	10000	2	1	0	2	0
49	229	10	10000	2	1	0	2	0
49	230	10	10000	2	1	0	2	0
48	231	10	10000	2	1	0	2	0
47	232	10	10000	2	1	0	2	0
47	233	10	10000	2	1	0	2	0
47	234	10	10000	2	1	0	2	0
49	235	10	10000	2	1	0	2	0
50	236	10	10000	2	1	0	2	0
49	237	10	10000	2	1	0	2	0
49	238	10	10000	2	1	0	2	0
48	239	10	10000	2	1	0	2	0
49	240	10	10000	2	1	0	2	0
50	241	10	10000	2	1	0	2	0
49	242	10	10000	2	1	0	2	0
48	243	10	10000	2	1	0	2	0
47	244	10	10000	2	1	0	2	0
46	245	10	10000	2	1	0	2	0
45	246	10	10000	2	1	0	2	0
44	247	10	10000	2	1	0	2	0
45	248	10	10000	2	1	0	2	0
45	249	10	10000	2	1	0	2	0
44	250	10	10000	2	1	0	2	0
43	251	10	10000	2	1	0	2	0
42	252	10	10000	2	1	0	2	0
40	253	10	10000	2	1	0	2	0
40	254	10	10000	2	1	0	2	0
39	255	10	10000	2	1	0	2	0
38	256	10	10000	2	1	0	2	0
38	257	10	10000	2	1	0	2	0
36	258	10	10000	2	1	0	2	0
34	259	10	10000	2	1	0	2	0
35	260	10	10000	2	1	0	2	0
35	261	10	10000	2	1	0	2	0
35	262	10	10000	2	1	0	2	0
35	263	10	10000	2	1	0	2	0
35	264	10	10000	2	1	0	2	0
37	265	10	10000	2	1	0	2	0
36	266	10	10000	2	1	0	2	0
35	267	10	10000	2	1	0	2	0
36	268	10	10000	2	1	0	2	0
36	269	10	10000	2	1	0	2	0
37	270	10	10000	2	1	0	2	0
35	271	10	10000	2	1	0	2	0
35	272	10	10000	2	1	0	2	0
34	273	10	10000	2	1	0	2	0
32	274	10	10000	2	1	0	2	0
32	275	10	10000	2	1	0	2	0
32	276	10	10000	2	1	0	2	0
32	277	10	10000	2	1	0	2	0
32	278	10	10000	2	1	0	2	0
32	279	10	10000	2	1	0	2	0
31	280	10	10000	2	1	0	2	0
31	281	10	10000	2	1	0	2	0
30	282	10	10000	2	1	0	2	0
31	283	10	10000	2	1	0	2	0
30	284	10	10000	2	1	0	2	0
30	285	10	10000	2	1	0	2	0
32	286	10	10000	2	1	0	2	0
33	287	10	10000	2	1	0	2	0
37	288	10	10000	2	1	0	2	0
40	289	10	10000	2	1	0	2	0
38	290	10	10000	2	1	0	2	0
38	291	10	10000	2	1	0	2	0
37	292	10	10000	2	1	0	2	0
37	293	10	10000	2	1	0	2	0
37	294	10	10000	2	1	0	2	0
37	295	10	10000	2	1	0	2	0
37	296	10	10000	2	1	0	2	0
36	297	10	10000	2	1	0	2	0
35	298	10	10000	2	1	0	2	0
34	299	10	10000	2	1	0	2	0
37	300	10	10000	2	1	0	2	0
35	301	10	10000	2	1	0	2	0
38	302	10	10000	2	1	0	2	0
40	303	10	10000	2	1	0	2	0
41	304	10	10000	2	1	0	2	0
43	305	10	10000	2	1	0	2	0
44	306	10	10000	2	1	0	2	0
43	307	10	10000	2	1	0	2	0
44	308	10	10000	2	1	0	2	0
44	309	10	10000	2	1	0	2	0
46	310	10	10000	2	1	0	2	0
47	311	10	10000	2	1	0	2	0
47	312	10	10000	2	1	0	2	0
45	313	10	10000	2	1	0	2	0
44	314	10	10000	2	1	0	2	0
43	315	10	10000	2	1	0	2	0
42	316	10	10000	2	1	0	2	0
42	317	10	10000	2	1	0	2	0
41	318	10	10000	2	1	0	2	0
40	319	10	10000	2	1	0	2	0
39	320	10	10000	2	1	0	2	0
39	321	10	10000	2	1	0	2	0
39	322	10	10000	2	1	0	2	0
38	323	10	10000	2	1	0	2	0
37	324	10	10000	2	1	0	2	0
37	325	10	10000	2	1	0	2	0
36	326	10	10000	2	1	0	2	0
36	327	10	10000	2	1	0	2	0
36	328	10	10000	2	1	0	2	0
37	329	10	10000	2	1	0	2	0
36	330	10	10000	2	1	0	2	0
36	331	10	10000	2	1	0	2	0
37	332	10	10000	2	1	0	2	0
39	333	10	10000	2	1	0	2	0
38	334	10	10000	2	1	0	2	0
38	335	10	10000	2	1	0	2	0
40	336	10	10000	2	1	0	2	0
39	337	10	10000	2	1	0	2	0
38	338	10	10000	2	1	0	2	0
37	339	10	10000	2	1	0	2	0
36	340	10	10000	2	1	0	2	0
36	341	10	10000	2	1	0	2	0
36	342	10	10000	2	1	0	2	0
35	343	10	10000	2	1	0	2	0
37	344	10	10000	2	1	0	2	0
39	345	10	10000	2	1	0	2	0
40	346	10	10000	2	1	0	2	0
38	347	10	10000	2	1	0	2	0
38	348	10	10000	2	1	0	2	0
39	349	10	10000	2	1	0	2	0
37	350	10	10000	2	1	0	2	0
38	351	10	10000	2	1	0	2	0
43	352	10	10000	2	1	0	2	0
46	353	10	10000	2	1	0	2	0
47	354	10	10000	2	1	0	2	0
47	355	10	10000	2	1	0	2	0
46	356	10	10000	2	1	0	2	0
46	357	10	10000	2	1	0	2	0
43	358	10	10000	2	1	0	2	0
41	359	10	10000	2	1	0	2	0
41	360	10	10000	2	1	0	2	0
39	361	10	10000	2	1	0	2	0
39	362	10	10000	2	1	0	2	0
39	363	10	10000	2	1	0	2	0
38	364	10	10000	2	1	0	2	0
37	365	10	10000	2	1	0	2	0
36	366	10	10000	2	1	0	2	0
35	367	10	10000	2	1	0	2	0
36	368	10	10000	2	1	0	2	0
37	369	10	10000	2	1	0	2	0
39	370	10	10000	2	1	0	2	0
39	371	10	10000	2	1	0	2	0
38	372	10	10000	2	1	0	2	0
38	373	10	10000	2	1	0	2	0
38	374	10	10000	2	1	0	2	0
38	375	10	10000	2	1	0	2	0
38	376	10	10000	2	1	0	2	0
37	377	10	10000	2	1	0	2	0
35	378	10	10000	2	1	0	2	0
36	379	10	10000	2	1	0	2	0
37	380	10	10000	2	1	0	2	0
37	381	10	10000	2	1	0	2	0
37	382	10	10000	2	1	0	2	0
37	383	10	10000	2	1	0	2	0
36	384	10	10000	2	1	0	2	0
35	385	10	10000	2	1	0	2	0
34	386	10	10000	2	1	0	2	0
33	387	10	10000	2	1	0	2	0
34	388	10	10000	2	1	0	2	0
34	389	10	10000	2	1	0	2	0
33	390	10	10000	2	1	0	2	0
33	391	10	10000	2	1	0	2	0
32	392	10	10000	2	1	0	2	0
33	393	10	10000	2	1	0	2	0
33	394	10	10000	2	1	0	2	0
32	395	10	10000	2	1	0	2	0
34	396	10	10000	2	1	0	2	0
34	397	10	10000	2	1	0	2	0
33	398	10	10000	2	1	0	2	0
30	399	10	10000	2	1	0	2	0
30	400	10	10000	2	1	0	2	0
29	401	10	10000	2	1	0	2	0
31	402	10	10000	2	1	0	2	0
32	403	10	10000	2	1	0	2	0
33	404	10	10000	2	1	0	2	0
34	405	10	10000	2	1	0	2	0
33	406	10	10000	2	1	0	2	0
31	407	10	10000	2	1	0	2	0
32	408	10	10000	2	1	0	2	0
33	409	10	10000	2	1	0	2	0
32	410	10	10000	2	1	0	2	0
32	411	10	10000	2	1	0	2	0
35	412	10	10000	2	1	0	2	0
35	413	10	10000	2	1	0	2	0
34	414	10	10000	2	1	0	2	0
33	415	10	10000	2	1	0	2	0
33	416	10	10000	2	1	0	2	0
35	417	10	10000	2	1	0	2	0
33	418	10	10000	2	1	0	2	0
33	419	10	10000	2	1	0	2	0
32	420	10	10000	2	1	0	2	0
32	421	10	10000	2	1	0	2	0
32	422	10	10000	2	1	0	2	0
32	423	10	10000	2	1	0	2	0
31	424	10	10000	2	1	0	2	0
31	425	10	10000	2	1	0	2	0
32	426	10	10000	2	1	0	2	0
34	427	10	10000	2	1	0	2	0
36	428	10	10000	2	1	0	2	0
37	429	10	10000	2	1	0	2	0
36	430	10	10000	2	1	0	2	0
37	431	10	10000	2	1	0	2	0
35	432	10	10000	2	1	0	2	0
34	433	10	10000	2	1	0	2	0
33	434	10	10000	2	1	0	2	0
37	435	10	10000	2	1	0	2	0
41	436	10	10000	2	1	0	2	0
40	437	10	10000	2	1	0	2	0
38	438	10	10000	2	1	0	2	0
36	439	10	10000	2	1	0	2	0
36	440	10	10000	2	1	0	2	0
37	441	10	10000	2	1	0	2	0
37	442	10	10000	2	1	0	2	0
36	443	10	10000	2	1	0	2	0
35	444	10	10000	2	1	0	2	0
35	445	10	10000	2	1	0	2	0
34	446	10	10000	2	1	0	2	0
36	447	10	10000	2	1	0	2	0
36	448	10	10000	2	1	0	2	0
36	449	10	10000	2	1	0	2	0
35	450	10	10000	2	1	0	2	0
34	451	10	10000	2	1	0	2	0
33	452	10	10000	2	1	0	2	0
33	453	10	10000	2	1	0	2	0
32	454	10	10000	2	1	0	2	0
32	455	10	10000	2	1	0	2	0
34	456	10	10000	2	1	0	2	0
36	457	10	10000	2	1	0	2	0
37	458	10	10000	2	1	0	2	0
35	459	10	10000	2	1	0	2	0
35	460	10	10000	2	1	0	2	0
35	461	10	10000	2	1	0	2	0
35	462	10	10000	2	1	0	2	0
35	463	10	10000	2	1	0	2	0
35	464	10	10000	2	1	0	2	0
36	465	10	10000	2	1	0	2	0
37	466	10	10000	2	1	0	2	0
39	467	10	10000	2	1	0	2	0
43	468	10	10000	2	1	0	2	0
43	469	10	10000	2	1	0	2	0
42	470	10	10000	2	1	0	2	0
42	471	10	10000	2	1	0	2	0
44	472	10	10000	2	1	0	2	0
46	473	10	10000	2	1	0	2	0
44	474	10	10000	2	1	0	2	0
43	475	10	10000	2	1	0	2	0
43	476	10	10000	2	1	0	2	0
43	477	10	10000	2	1	0	2	0
40	478	10	10000	2	1	0	2	0
38	479	10	10000	2	1	0	2	0
37	480	10	10000	2	1	0	2	0
37	481	10	10000	2	1	0	2	0
38	482	10	10000	2	1	0	2	0
37	483	10	10000	2	1	0	2	0
36	484	10	10000	2	1	0	2	0
37	485	10	10000	2	1	0	2	0
37	486	10	10000	2	1	0	2	0
36	487	10	10000	2	1	0	2	0
38	488	10	10000	2	1	0	2	0
37	489	10	10000	2	1	0	2	0
36	490	10	10000	2	1	0	2	0
35	491	10	10000	2	1	0	2	0
34	492	10	10000	2	1	0	2	0
33	493	10	10000	2	1	0	2	0
33	494	10	10000	2	1	0	2	0
34	495	10	10000	2	1	0	2	0
35	496	10	10000	2	1	0	2	0
34	497	10	10000	2	1	0	2	0
33	498	10	10000	2	1	0	2	0
33	499	10	10000	2	1	0	2	0
34	500	10	10000	2	1	0	2	0
33	501	10	10000	2	1	0	2	0
34	502	10	10000	2	1	0	2	1
33	503	10	10000	2	1	0	2	1
34	504	10	10000	2	1	0	2	1
32	505	10	10000	2	1	0	2	1
33	506	10	10000	2	1	0	2	1
37	507	10	10000	2	1	0	2	1
38	508	10	10000	2	1	0	2	1
40	509	10	10000	2	1	0	2	1
39	510	10	10000	2	1	0	2	1
38	511	10	10000	2	1	0	2	1
40	512	10	10000	2	1	0	2	1
40	513	10	10000	2	1	0	2	1
39	514	10	10000	2	1	0	2	1
39	515	10	10000	2	1	0	2	1
38	516	10	10000	2	1	0	2	1
38	517	10	10000	2	1	0	2	1
36	518	10	10000	2	1	0	2	1
36	519	10	10000	2	1	0	2	1
36	520	10	10000	2	1	0	2	1
35	521	10	10000	2	1	0	2	1
34	522	10	10000	2	1	0	2	1
34	523	10	10000	2	1	0	2	1
34	524	10	10000	2	1	0	2	1
34	525	10	10000	2	1	0	2	1
34	526	10	10000	2	1	0	2	1
33	527	10	10000	2	1	0	2	1
35	528	10	10000	2	1	0	2	1
36	529	10	10000	2	1	0	2	1
35	530	10	10000	2	1	0	2	1
34	531	10	10000	2	1	0	2	1
34	532	10	10000	2	1	0	2	1
34	533	10	10000	2	1	0	2	1
34	534	10	10000	2	1	0	2	1
35	535	10	10000	2	1	0	2	1
37	536	10	10000	2	1	0	2	1
38	537	10	10000	2	1	0	2	1
35	538	10	10000	2	1	0	2	1
34	539	10	10000	2	1	0	2	1
35	540	10	10000	2	1	0	2	1
37	541	10	10000	2	1	0	2	1
40	542	10	10000	2	1	0	2	1
42	543	10	10000	2	1	0	2	1
41	544	10	10000	2	1	0	2	1
41	545	10	10000	2	1	0	2	1
39	546	10	10000	2	1	0	2	1
40	547	10	10000	2	1	0	2	1
44	548	10	10000	2	1	0	2	1
46	549	10	10000	2	1	0	2	1
46	550	10	10000	2	1	0	2	1
46	551	10	10000	2	1	0	2	1
44	552	10	10000	2	1	0	2	0
44	553	10	10000	2	1	0	2	0
43	554	10	10000	2	1	0	2	0
42	555	10	10000	2	1	0	2	0
42	556	10	10000	2	1	0	2	0
43	557	10	10000	2	1	0	2	0
42	558	10	10000	2	1	0	2	0
41	559	10	10000	2	1	0	2	0
39	560	10	10000	2	1	0	2	0
40	561	10	10000	2	1	0	2	0
40	562	10	10000	2	1	0	2	0
42	563	10	10000	2	1	0	2	0
44	564	10	10000	2	1	0	2	0
43	565	10	10000	2	1	0	2	0
41	566	10	10000	2	1	0	2	0
40	567	10	10000	2	1	0	2	0
40	568	10	10000	2	1	0	2	0
41	569	10	10000	2	1	0	2	0
42	570	10	10000	2	1	0	2	0
40	571	10	10000	2	1	0	2	0
38	572	10	10000	2	1	0	2	0
38	573	10	10000	2	1	0	2	0
37	574	10	10000	2	1	0	2	0
38	575	10	10000	2	1	0	2	0
38	576	10	10000	2	1	0	2	0
40	577	10	10000	2	1	0	2	0
39	578	10	10000	2	1	0	2	0
37	579	10	10000	2	1	0	2	0
38	580	10	10000	2	1	0	2	0
37	581	10	10000	2	1	0	2	0
37	582	10	10000	2	1	0	2	0
38	583	10	10000	2	1	0	2	0
38	584	10	10000	2	1	0	2	0
40	585	10	10000	2	1	0	2	0
43	586	10	10000	2	1	0	2	0
42	587	10	10000	2	1	0	2	0
42	588	10	10000	2	1	0	2	0
42	589	10	10000	2	1	0	2	0
41	590	10	10000	2	1	0	2	0
41	591	10	10000	2	1	0	2	0
47	592	10	10000	2	1	0	2	0
51	593	10	10000	2	1	0	2	0
51	594	10	10000	2	1	0	2	0
51	595	10	10000	2	1	0	2	0
54	596	10	10000	2	1	0	2	0
67	597	10	10000	2	1	0	2	0
87	598	10	10000	2	1	0	2	0
91	599	10	10000	2	1	0	2	0
114	600	10	10000	2	1	0	2	0
133	601	10	10000	2	1	0	2	0
139	602	10	10000	2	1	0	2	0
156	603	10	10000	2	1	0	2	0
154	604	10	10000	2	1	0	2	0
155	605	10	10000	2	1	0	2	0
175	606	10	10000	2	1	0	2	0
201	607	10	10000	2	1	0	2	0
218	608	10	10000	2	1	0	2	0
222	609	10	10000	2	1	0	2	0
243	610	10	10000	2	1	0	2	0
249	611	10	10000	2	1	0	2	0
243	612	10	10000	2	1	0	2	0
262	613	10	10000	2	1	0	2	0
286	614	10	10000	2	1	0	2	0
326	615	10	10000	2	1	0	2	0
350	616	10	10000	2	1	0	2	0
381	617	10	10000	2	1	0	2	0
390	618	10	10000	2	1	0	2	0
374	619	10	10000	2	1	0	2	0
361	620	10	10000	2	1	0	2	0
350	621	10	10000	2	1	0	2	0
342	622	10	10000	2	1	0	2	0
357	623	10	10000	2	1	0	2	0
369	624	10	10000	2	1	0	2	0
361	625	10	10000	2	1	0	2	0
348	626	10	10000	2	1	0	2	0
333	627	10	10000	2	1	0	2	0
321	628	10	10000	2	1	0	2	0
308	629	10	10000	2	1	0	2	0
299	630	10	10000	2	1	0	2	0
298	631	10	10000	2	1	0	2	0
298	632	10	10000	2	1	0	2	0
296	633	10	10000	2	1	0	2	0
296	634	10	10000	2	1	0	2	0
296	635	10	10000	2	1	0	2	0
294	636	10	10000	2	1	0	2	0
294	637	10	10000	2	1	0	2	0
293	638	10	10000	2	1	0	2	0
290	639	10	10000	2	1	0	2	0
287	640	10	10000	2	1	0	2	0
281	641	10	10000	2	1	0	2	0
273	642	10	10000	2	1	0	2	0
262	643	10	10000	2	1	0	2	0
251	644	10	10000	2	1	0	2	0
241	645	10	10000	2	1	0	2	0
234	646	10	10000	2	1	0	2	0
225	647	10	10000	2	1	0	2	0
221	648	10	10000	2	1	0	2	0
215	649	10	10000	2	1	0	2	0
206	650	10	10000	2	1	0	2	0
198	651	10	10000	2	1	0	2	0
192	652	10	10000	2	1	0	2	0
192	653	10	10000	2	1	0	2	0
192	654	10	10000	2	1	0	2	0
188	655	10	10000	2	1	0	2	0
188	656	10	10000	2	1	0	2	0
190	657	10	10000	2	1	0	2	0
190	658	10	10000	2	1	0	2	0
192	659	10	10000	2	1	0	2	0
197	660	10	10000	2	1	0	2	0
204	661	10	10000	2	1	0	2	0
211	662	10	10000	2	1	0	2	0
215	663	10	10000	2	1	0	2	0
222	664	10	10000	2	1	0	2	0
228	665	10	10000	2	1	0	2	0
232	666	10	10000	2	1	0	2	0
235	667	10	10000	2	1	0	2	0
239	668	10	10000	2	1	0	2	0
241	669	10	10000	2	1	0	2	0
241	670	10	10000	2	1	0	2	0
241	671	10	10000	2	1	0	2	0
240	672	10	10000	2	1	0	2	0
238	673	10	10000	2	1	0	2	0
235	674	10	10000	2	1	0	2	0
233	675	10	10000	2	1	0	2	0
228	676	10	10000	2	1	0	2	0
222	677	10	10000	2	1	0	2	0
226	678	10	10000	2	1	0	2	0
229	679	10	10000	2	1	0	2	0
221	680	10	10000	2	1	0	2	0
214	681	10	10000	2	1	0	2	0
208	682	10	10000	2	1	0	2	0
208	683	10	10000	2	1	0	2	0
213	684	10	10000	2	1	0	2	0
217	685	10	10000	2	1	0	2	0
214	686	10	10000	2	1	0	2	0
205	687	10	10000	2	1	0	2	0
198	688	10	10000	2	1	0	2	0
190	689	10	10000	2	1	0	2	0
183	690	10	10000	2	1	0	2	0
177	691	10	10000	2	1	0	2	0
169	692	10	10000	2	1	0	2	0
163	693	10	10000	2	1	0	2	0
159	694	10	10000	2	1	0	2	0
154	695	10	10000	2	1	0	2	0
149	696	10	10000	2	1	0	2	0
142	697	10	10000	2	1	0	2	0
136	698	10	10000	2	1	0	2	0
131	699	10	10000	2	1	0	2	0
130	700	10	10000	2	1	0	2	0
126	701	10	10000	2	1	0	2	0
121	702	10	10000	2	1	0	2	0
119	703	10	10000	2	1	0	2	0
115	704	10	10000	2	1	0	2	0
110	705	10	10000	2	1	0	2	0
107	706	10	10000	2	1	0	2	0
104	707	10	10000	2	1	0	2	0
104	708	10	10000	2	1	0	2	0
104	709	10	10000	2	1	0	2	0
102	710	10	10000	2	1	0	2	0
98	711	10	10000	2	1	0	2	0
98	712	10	10000	2	1	0	2	0
100	713	10	10000	2	1	0	2	0
99	714	10	10000	2	1	0	2	0
94	715	10	10000	2	1	0	2	0
92	716	10	10000	2	1	0	2	0
91	717	10	10000	2	1	0	2	0
91	718	10	10000	2	1	0	2	0
88	719	10	10000	2	1	0	2	0
85	720	10	10000	2	1	0	2	0
82	721	10	10000	2	1	0	2	0
80	722	10	10000	2	1	0	2	0
78	723	10	10000	2	1	0	2	0
76	724	10	10000	2	1	0	2	0
73	725	10	10000	2	1	0	2	0
70	726	10	10000	2	1	0	2	0
67	727	10	10000	2	1	0	2	0
67	728	10	10000	2	1	0	2	0
66	729	10	10000	2	1	0	2	0
63	730	10	10000	2	1	0	2	0
60	731	10	10000	2	1	0	2	0
59	732	10	10000	2	1	0	2	0
61	733	10	10000	2	1	0	2	0
62	734	10	10000	2	1	0	2	0
63	735	10	10000	2	1	0	2	0
63	736	10	10000	2	1	0	2	0
64	737	10	10000	2	1	0	2	0
62	738	10	10000	2	1	0	2	0
60	739	10	10000	2	1	0	2	0
62	740	10	10000	2	1	0	2	0
64	741	10	10000	2	1	0	2	0
68	742	10	10000	2	1	0	2	0
70	743	10	10000	2	1	0	2	0
71	744	10	10000	2	1	0	2	0
71	745	10	10000	2	1	0	2	0
69	746	10	10000	2	1	0	2	0
68	747	10	10000	2	1	0	2	0
68	748	10	10000	2	1	0	2	0
68	749	10	10000	2	1	0	2	0
68	750	10	10000	2	1	0	2	0
67	751	10	10000	2	1	0	2	0
67	752	10	10000	2	1	0	2	0
65	753	10	10000	2	1	0	2	0
64	754	10	10000	2	1	0	2	0
62	755	10	10000	2	1	0	2	0
62	756	10	10000	2	1	0	2	0
62	757	10	10000	2	1	0	2	0
63	758	10	10000	2	1	0	2	0
66	759	10	10000	2	1	0	2	0
68	760	10	10000	2	1	0	2	0
69	761	10	10000	2	1	0	2	0
70	762	10	10000	2	1	0	2	0
73	763	10	10000	2	1	0	2	0
72	764	10	10000	2	1	0	2	0
70	765	10	10000	2	1	0	2	0
67	766	10	10000	2	1	0	2	0
64	767	10	10000	2	1	0	2	0
64	768	10	10000	2	1	0	2	0
63	769	10	10000	2	1	0	2	0
61	770	10	10000	2	1	0	2	0
60	771	10	10000	2	1	0	2	0
58	772	10	10000	2	1	0	2	0
59	773	10	10000	2	1	0	2	0
59	774	10	10000	2	1	0	2	0
58	775	10	10000	2	1	0	2	0
57	776	10	10000	2	1	0	2	0
55	777	10	10000	2	1	0	2	0
54	778	10	10000	2	1	0	2	0
52	779	10	10000	2	1	0	2	0
52	780	10	10000	2	1	0	2	0
51	781	10	10000	2	1	0	2	0
50	782	10	10000	2	1	0	2	0
48	783	10	10000	2	1	0	2	0
48	784	10	10000	2	1	0	2	0
47	785	10	10000	2	1	0	2	0
45	786	10	10000	2	1	0	2	0
44	787	10	10000	2	1	0	2	0
44	788	10	10000	2	1	0	2	0
43	789	10	10000	2	1	0	2	0
43	790	10	10000	2	1	0	2	0
42	791	10	10000	2	1	0	2	0
41	792	10	10000	2	1	0	2	0
40	793	10	10000	2	1	0	2	0
39	794	10	10000	2	1	0	2	0
40	795	10	10000	2	1	0	2	0
41	796	10	10000	2	1	0	2	0
43	797	10	10000	2	1	0	2	0
44	798	10	10000	2	1	0	2	0
44	799	10	10000	2	1	0	2	0
43	800	10	10000	2	1	0	2	0
43	801	10	10000	2	1	0	2	0
42	802	10	10000	2	1	0	2	0
41	803	10	10000	2	1	0	2	0
40	804	10	10000	2	1	0	2	0
38	805	10	10000	2	1	0	2	0
40	806	10	10000	2	1	0	2	0
40	807	10	10000	2	1	0	2	0
40	808	10	10000	2	1	0	2	0
40	809	10	10000	2	1	0	2	0
39	810	10	10000	2	1	0	2	0
37	811	10	10000	2	1	0	2	0
37	812	10	10000	2	1	0	2	0
38	813	10	10000	2	1	0	2	0
40	814	10	10000	2	1	0	2	0
43	815	10	10000	2	1	0	2	0
44	816	10	10000	2	1	0	2	0
44	817	10	10000	2	1	0	2	0
42	818	10	10000	2	1	0	2	0
41	819	10	10000	2	1	0	2	0
43	820	10	10000	2	1	0	2	0
45	821	10	10000	2	1	0	2	0
46	822	10	10000	2	1	0	2	0
45	823	10	10000	2	1	0	2	0
44	824	10	10000	2	1	0	2	0
42	825	10	10000	2	1	0	2	0
41	826	10	10000	2	1	0	2	0
39	827	10	10000	2	1	0	2	0
39	828	10	10000	2	1	0	2	0
40	829	10	10000	2	1	0	2	0
39	830	10	10000	2	1	0	2	0
39	831	10	10000	2	1	0	2	0
37	832	10	10000	2	1	0	2	0
37	833	10	10000	2	1	0	2	0
38	834	10	10000	2	1	0	2	0
39	835	10	10000	2	1	0	2	0
39	836	10	10000	2	1	0	2	0
41	837	10	10000	2	1	0	2	0
38	838	10	10000	2	1	0	2	0
36	839	10	10000	2	1	0	2	0
36	840	10	10000	2	1	0	2	0
36	841	10	10000	2	1	0	2	0
37	842	10	10000	2	1	0	2	0
37	843	10	10000	2	1	0	2	0
41	844	10	10000	2	1	0	2	0
46	845	10	10000	2	1	0	2	0
48	846	10	10000	2	1	0	2	0
47	847	10	10000	2	1	0	2	0
47	848	10	10000	2	1	0	2	0
48	849	10	10000	2	1	0	2	0
51	850	10	10000	2	1	0	2	0
52	851	10	10000	2	1	0	2	0
53	852	10	10000	2	1	0	2	0
54	853	10	10000	2	1	0	2	0
51	854	10	10000	2	1	0	2	0
51	855	10	10000	2	1	0	2	0
51	856	10	10000	2	1	0	2	0
50	857	10	10000	2	1	0	2	0
47	858	10	10000	2	1	0	2	0
44	859	10	10000	2	1	0	2	0
46	860	10	10000	2	1	0	2	0
47	861	10	10000	2	1	0	2	0
46	862	10	10000	2	1	0	2	0
46	863	10	10000	2	1	0	2	0
45	864	10	10000	2	1	0	2	0
44	865	10	10000	2	1	0	2	0
45	866	10	10000	2	1	0	2	0
47	867	10	10000	2	1	0	2	0
47	868	10	10000	2	1	0	2	0
51	869	10	10000	2	1	0	2	0
54	870	10	10000	2	1	0	2	0
53	871	10	10000	2	1	0	2	0
52	872	10	10000	2	1	0	2	0
52	873	10	10000	2	1	0	2	0
61	874	10	10000	2	1	0	2	0
66	875	10	10000	2	1	0	2	0
66	876	10	10000	2	1	0	2	0
65	877	10	10000	2	1	0	2	0
64	878	10	10000	2	1	0	2	0
65	879	10	10000	2	1	0	2	0
66	880	10	10000	2	1	0	2	0
65	881	10	10000	2	1	0	2	0
67	882	10	10000	2	1	0	2	0
69	883	10	10000	2	1	0	2	0
66	884	10	10000	2	1	0	2	0
65	885	10	10000	2	1	0	2	0
66	886	10	10000	2	1	0	2	0
65	887	10	10000	2	1	0	2	0
72	888	10	10000	2	1	0	2	0
81	889	10	10000	2	1	0	2	0
81	890	10	10000	2	1	0	2	0
79	891	10	10000	2	1	0	2	0
88	892	10	10000	2	1	0	2	0
97	893	10	10000	2	1	0	2	0
107	894	10	10000	2	1	0	2	0
110	895	10	10000	2	1	0	2	0
109	896	10	10000	2	1	0	2	0
114	897	10	10000	2	1	0	2	0
116	898	10	10000	2	1	0	2	0
121	899	10	10000	2	1	0	2	0
125	900	10	10000	2	1	0	2	0
124	901	10	10000	2	1	0	2	0
132	902	10	10000	2	1	0	2	0
137	903	10	10000	2	1	0	2	0
133	904	10	10000	2	1	0	2	0
132	905	10	10000	2	1	0	2	0
139	906	10	10000	2	1	0	2	0
146	907	10	10000	2	1	0	2	0
146	908	10	10000	2	1	0	2	0
149	909	10	10000	2	1	0	2	0
151	910	10	10000	2	1	0	2	0
147	911	10	10000	2	1	0	2	0
148	912	10	10000	2	1	0	2	0
142	913	10	10000	2	1	0	2	0
138	914	10	10000	2	1	0	2	0
133	915	10	10000	2	1	0	2	0
128	916	10	10000	2	1	0	2	0
126	917	10	10000	2	1	0	2	0
123	918	10	10000	2	1	0	2	0
126	919	10	10000	2	1	0	2	0
131	920	10	10000	2	1	0	2	0
139	921	10	10000	2	1	0	2	0
144	922	10	10000	2	1	0	2	0
143	923	10	10000	2	1	0	2	0
141	924	10	10000	2	1	0	2	0
141	925	10	10000	2	1	0	2	0
138	926	10	10000	2	1	0	2	0
136	927	10	10000	2	1	0	2	0
140	928	10	10000	2	1	0	2	0
145	929	10	10000	2	1	0	2	0
141	930	10	10000	2	1	0	2	0
141	931	10	10000	2	1	0	2	0
148	932	10	10000	2	1	0	2	0
150	933	10	10000	2	1	0	2	0
159	934	10	10000	2	1	0	2	0
169	935	10	10000	2	1	0	2	0
170	936	10	10000	2	1	0	2	0
167	937	10	10000	2	1	0	2	0
168	938	10	10000	2	1	0	2	0
177	939	10	10000	2	1	0	2	0
188	940	10	10000	2	1	0	2	0
184	941	10	10000	2	1	0	2	0
181	942	10	10000	2	1	0	2	0
178	943	10	10000	2	1	0	2	0
173	944	10	10000	2	1	0	2	0
167	945	10	10000	2	1	0	2	0
165	946	10	10000	2	1	0	2	0
165	947	10	10000	2	1	0	2	0
163	948	10	10000	2	1	0	2	0
163	949	10	10000	2	1	0	2	0
166	950	10	10000	2	1	0	2	0
163	951	10	10000	2	1	0	2	0
157	952	10	10000	2	1	0	2	0
152	953	10	10000	2	1	0	2	0
147	954	10	10000	2	1	0	2	0
143	955	10	10000	2	1	0	2	0
144	956	10	10000	2	1	0	2	0
144	957	10	10000	2	1	0	2	0
142	958	10	10000	2	1	0	2	0
139	959	10	10000	2	1	0	2	0
132	960	10	10000	2	1	0	2	0
127	961	10	10000	2	1	0	2	0
127	962	10	10000	2	1	0	2	0
126	963	10	10000	2	1	0	2	0
123	964	10	10000	2	1	0	2	0
121	965	10	10000	2	1	0	2	0
119	966	10	10000	2	1	0	2	0
116	967	10	10000	2	1	0	2	0
113	968	10	10000	2	1	0	2	0
112	969	10	10000	2	1	0	2	0
115	970	10	10000	2	1	0	2	0
116	971	10	10000	2	1	0	2	0
119	972	10	10000	2	1	0	2	0
125	973	10	10000	2	1	0	2	0
128	974	10	10000	2	1	0	2	0
127	975	10	10000	2	1	0	2	0
123	976	10	10000	2	1	0	2	0
119	977	10	10000	2	1	0	2	0
114	978	10	10000	2	1	0	2	0
109	979	10	10000	2	1	0	2	0
105	980	10	10000	2	1	0	2	0
103	981	10	10000	2	1	0	2	0
101	982	10	10000	2	1	0	2	0
104	983	10	10000	2	1	0	2	0
107	984	10	10000	2	1	0	2	0
103	985	10	10000	2	1	0	2	0
102	986	10	10000	2	1	0	2	0
101	987	10	10000	2	1	0	2	0
100	988	10	10000	2	1	0	2	0
98	989	10	10000	2	1	0	2	0
93	990	10	10000	2	1	0	2	0
92	991	10	10000	2	1	0	2	0
92	992	10	10000	2	1	0	2	0
94	993	10	10000	2	1	0	2	0
99	994	10	10000	2	1	0	2	0
103	995	10	10000	2	1	0	2	0
106	996	10	10000	2	1	0	2	0
108	997	10	10000	2	1	0	2	0
108	998	10	10000	2	1	0	2	0
107	999	10	10000	2	1	0	2	0
109	1000	10	10000	2	1	0	2	0
109	1001	10	10000	2	1	0	2	0
65	2	1	10000	3	1	0	3	0
66	3	1	10000	3	1	0	3	0
68	4	1	10000	3	1	0	3	0
66	5	1	10000	3	1	0	3	0
65	6	1	10000	3	1	0	3	0
63	7	1	10000	3	1	0	3	0
61	8	1	10000	3	1	0	3	0
62	9	1	10000	3	1	0	3	0
62	10	1	10000	3	1	0	3	0
61	11	1	10000	3	1	0	3	0
59	12	1	10000	3	1	0	3	0
56	13	1	10000	3	1	0	3	0
53	14	1	10000	3	1	0	3	0
53	15	1	10000	3	1	0	3	0
55	16	1	10000	3	1	0	3	0
55	17	1	10000	3	1	0	3	0
55	18	1	10000	3	1	0	3	0
54	19	1	10000	3	1	0	3	0
55	20	1	10000	3	1	0	3	0
53	21	1	10000	3	1	0	3	0
53	21	1	10000	3	1	0	3	0
55	22	1	10000	3	1	0	3	0
55	24	1	10000	3	1	0	3	0
53	25	1	10000	3	1	0	3	0
51	26	1	10000	3	1	0	3	0
50	27	1	10000	3	1	0	3	0
49	28	1	10000	3	1	0	3	0
48	29	1	10000	3	1	0	3	0
47	30	1	10000	3	1	0	3	0
47	31	1	10000	3	1	0	3	0
48	31	1	10000	3	1	0	3	0
46	32	1	10000	3	1	0	3	0
44	34	1	10000	3	1	0	3	0
44	35	1	10000	3	1	0	3	0
43	36	1	10000	3	1	0	3	0
43	37	1	10000	3	1	0	3	0
43	38	1	10000	3	1	0	3	0
45	39	1	10000	3	1	0	3	0
47	40	1	10000	3	1	0	3	0
47	41	1	10000	3	1	0	3	0
49	41	1	10000	3	1	0	3	0
48	42	1	10000	3	1	0	3	0
48	44	1	10000	3	1	0	3	0
46	45	1	10000	3	1	0	3	0
44	46	1	10000	3	1	0	3	0
44	47	1	10000	3	1	0	3	0
44	48	1	10000	3	1	0	3	0
42	49	1	10000	3	1	0	3	0
41	50	1	10000	3	1	0	3	0
40	51	1	10000	3	1	0	3	0
39	51	1	10000	3	1	0	3	0
38	52	1	10000	3	1	0	3	0
37	54	1	10000	3	1	0	3	0
37	55	1	10000	3	1	0	3	0
36	56	1	10000	3	1	0	3	0
36	57	1	10000	3	1	0	3	0
36	58	1	10000	3	1	0	3	0
36	59	1	10000	3	1	0	3	0
36	60	1	10000	3	1	0	3	0
35	61	1	10000	3	1	0	3	0
34	61	1	10000	3	1	0	3	0
35	62	1	10000	3	1	0	3	0
35	64	1	10000	3	1	0	3	0
34	65	1	10000	3	1	0	3	0
33	66	1	10000	3	1	0	3	0
33	67	1	10000	3	1	0	3	0
32	68	1	10000	3	1	0	3	0
32	69	1	10000	3	1	0	3	0
33	70	1	10000	3	1	0	3	0
33	71	1	10000	3	1	0	3	0
35	71	1	10000	3	1	0	3	0
32	72	1	10000	3	1	0	3	0
30	74	1	10000	3	1	0	3	0
30	75	1	10000	3	1	0	3	0
29	76	1	10000	3	1	0	3	0
29	77	1	10000	3	1	0	3	0
29	78	1	10000	3	1	0	3	0
30	79	1	10000	3	1	0	3	0
29	80	1	10000	3	1	0	3	0
29	81	1	10000	3	1	0	3	0
28	81	1	10000	3	1	0	3	0
31	82	1	10000	3	1	0	3	0
32	84	1	10000	3	1	0	3	0
32	85	1	10000	3	1	0	3	0
32	86	1	10000	3	1	0	3	0
32	87	1	10000	3	1	0	3	0
31	88	1	10000	3	1	0	3	0
31	89	1	10000	3	1	0	3	0
30	90	1	10000	3	1	0	3	0
31	91	1	10000	3	1	0	3	0
30	91	1	10000	3	1	0	3	0
28	92	1	10000	3	1	0	3	0
28	94	1	10000	3	1	0	3	0
30	95	1	10000	3	1	0	3	0
32	96	1	10000	3	1	0	3	0
33	97	1	10000	3	1	0	3	0
31	98	1	10000	3	1	0	3	0
31	99	1	10000	3	1	0	3	0
31	100	1	10000	3	1	0	3	0
29	101	1	10000	3	1	0	3	0
30	101	1	10000	3	1	0	3	0
30	102	1	10000	3	1	0	3	0
30	104	1	10000	3	1	0	3	0
30	105	1	10000	3	1	0	3	0
29	106	1	10000	3	1	0	3	0
28	107	1	10000	3	1	0	3	0
29	108	1	10000	3	1	0	3	0
28	109	1	10000	3	1	0	3	0
28	110	1	10000	3	1	0	3	0
28	111	1	10000	3	1	0	3	0
28	111	1	10000	3	1	0	3	0
29	112	1	10000	3	1	0	3	0
28	114	1	10000	3	1	0	3	0
28	115	1	10000	3	1	0	3	0
28	116	1	10000	3	1	0	3	0
27	117	1	10000	3	1	0	3	0
29	118	1	10000	3	1	0	3	0
30	119	1	10000	3	1	0	3	0
30	120	1	10000	3	1	0	3	0
29	121	1	10000	3	1	0	3	0
29	121	1	10000	3	1	0	3	0
30	122	1	10000	3	1	0	3	0
31	124	1	10000	3	1	0	3	0
30	125	1	10000	3	1	0	3	0
29	126	1	10000	3	1	0	3	0
29	127	1	10000	3	1	0	3	0
28	128	1	10000	3	1	0	3	0
27	129	1	10000	3	1	0	3	0
29	130	1	10000	3	1	0	3	0
31	131	1	10000	3	1	0	3	0
31	131	1	10000	3	1	0	3	0
28	132	1	10000	3	1	0	3	0
27	134	1	10000	3	1	0	3	0
29	135	1	10000	3	1	0	3	0
29	136	1	10000	3	1	0	3	0
29	137	1	10000	3	1	0	3	0
29	138	1	10000	3	1	0	3	0
28	139	1	10000	3	1	0	3	0
28	140	1	10000	3	1	0	3	0
29	141	1	10000	3	1	0	3	0
28	141	1	10000	3	1	0	3	0
30	142	1	10000	3	1	0	3	0
32	144	1	10000	3	1	0	3	0
31	145	1	10000	3	1	0	3	0
31	146	1	10000	3	1	0	3	0
30	147	1	10000	3	1	0	3	0
30	148	1	10000	3	1	0	3	0
30	149	1	10000	3	1	0	3	0
30	150	1	10000	3	1	0	3	0
31	151	1	10000	3	1	0	3	0
30	151	1	10000	3	1	0	3	0
29	152	1	10000	3	1	0	3	0
28	154	1	10000	3	1	0	3	0
31	155	1	10000	3	1	0	3	0
31	156	1	10000	3	1	0	3	0
30	157	1	10000	3	1	0	3	0
30	158	1	10000	3	1	0	3	0
30	159	1	10000	3	1	0	3	0
29	160	1	10000	3	1	0	3	0
29	161	1	10000	3	1	0	3	0
29	161	1	10000	3	1	0	3	0
31	162	1	10000	3	1	0	3	0
33	164	1	10000	3	1	0	3	0
32	165	1	10000	3	1	0	3	0
32	166	1	10000	3	1	0	3	0
31	167	1	10000	3	1	0	3	0
31	168	1	10000	3	1	0	3	0
31	169	1	10000	3	1	0	3	0
33	170	1	10000	3	1	0	3	0
32	171	1	10000	3	1	0	3	0
32	171	1	10000	3	1	0	3	0
31	172	1	10000	3	1	0	3	0
29	174	1	10000	3	1	0	3	0
29	175	1	10000	3	1	0	3	0
29	176	1	10000	3	1	0	3	0
29	177	1	10000	3	1	0	3	0
30	178	1	10000	3	1	0	3	0
30	179	1	10000	3	1	0	3	0
29	180	1	10000	3	1	0	3	0
30	181	1	10000	3	1	0	3	0
28	181	1	10000	3	1	0	3	0
30	182	1	10000	3	1	0	3	0
30	184	1	10000	3	1	0	3	0
29	185	1	10000	3	1	0	3	0
29	186	1	10000	3	1	0	3	0
32	187	1	10000	3	1	0	3	0
32	188	1	10000	3	1	0	3	0
32	189	1	10000	3	1	0	3	0
32	190	1	10000	3	1	0	3	0
34	191	1	10000	3	1	0	3	0
36	191	1	10000	3	1	0	3	0
34	192	1	10000	3	1	0	3	0
32	194	1	10000	3	1	0	3	0
32	195	1	10000	3	1	0	3	0
32	196	1	10000	3	1	0	3	0
30	197	1	10000	3	1	0	3	0
31	198	1	10000	3	1	0	3	0
31	199	1	10000	3	1	0	3	0
32	200	1	10000	3	1	0	3	0
31	201	1	10000	3	1	0	3	0
30	201	1	10000	3	1	0	3	0
31	202	1	10000	3	1	0	3	0
31	204	1	10000	3	1	0	3	0
32	205	1	10000	3	1	0	3	0
34	206	1	10000	3	1	0	3	0
33	207	1	10000	3	1	0	3	0
34	208	1	10000	3	1	0	3	0
35	209	1	10000	3	1	0	3	0
38	210	1	10000	3	1	0	3	0
41	211	1	10000	3	1	0	3	0
40	211	1	10000	3	1	0	3	0
38	212	1	10000	3	1	0	3	0
36	214	1	10000	3	1	0	3	0
36	215	1	10000	3	1	0	3	0
36	216	1	10000	3	1	0	3	0
35	217	1	10000	3	1	0	3	0
35	218	1	10000	3	1	0	3	0
35	219	1	10000	3	1	0	3	0
34	220	1	10000	3	1	0	3	0
33	221	1	10000	3	1	0	3	0
32	221	1	10000	3	1	0	3	0
33	222	1	10000	3	1	0	3	0
35	224	1	10000	3	1	0	3	0
34	225	1	10000	3	1	0	3	0
34	226	1	10000	3	1	0	3	0
33	227	1	10000	3	1	0	3	0
33	228	1	10000	3	1	0	3	0
32	229	1	10000	3	1	0	3	0
33	230	1	10000	3	1	0	3	0
32	231	1	10000	3	1	0	3	0
32	231	1	10000	3	1	0	3	0
33	232	1	10000	3	1	0	3	0
32	234	1	10000	3	1	0	3	0
32	235	1	10000	3	1	0	3	0
32	236	1	10000	3	1	0	3	0
32	237	1	10000	3	1	0	3	0
32	238	1	10000	3	1	0	3	0
32	239	1	10000	3	1	0	3	0
30	240	1	10000	3	1	0	3	0
30	241	1	10000	3	1	0	3	0
28	241	1	10000	3	1	0	3	0
29	242	1	10000	3	1	0	3	0
30	244	1	10000	3	1	0	3	0
29	245	1	10000	3	1	0	3	0
28	246	1	10000	3	1	0	3	0
29	247	1	10000	3	1	0	3	0
30	248	1	10000	3	1	0	3	0
31	249	1	10000	3	1	0	3	0
30	250	1	10000	3	1	0	3	0
30	251	1	10000	3	1	0	3	0
30	251	1	10000	3	1	0	3	0
29	252	1	10000	3	1	0	3	0
27	254	1	10000	3	1	0	3	0
27	255	1	10000	3	1	0	3	0
27	256	1	10000	3	1	0	3	0
27	257	1	10000	3	1	0	3	0
27	258	1	10000	3	1	0	3	0
26	259	1	10000	3	1	0	3	0
26	260	1	10000	3	1	0	3	0
25	261	1	10000	3	1	0	3	0
25	261	1	10000	3	1	0	3	0
26	262	1	10000	3	1	0	3	0
26	264	1	10000	3	1	0	3	0
25	265	1	10000	3	1	0	3	0
26	266	1	10000	3	1	0	3	0
28	267	1	10000	3	1	0	3	0
28	268	1	10000	3	1	0	3	0
27	269	1	10000	3	1	0	3	0
27	270	1	10000	3	1	0	3	0
27	271	1	10000	3	1	0	3	0
26	271	1	10000	3	1	0	3	0
25	272	1	10000	3	1	0	3	0
24	274	1	10000	3	1	0	3	0
25	275	1	10000	3	1	0	3	0
24	276	1	10000	3	1	0	3	0
25	277	1	10000	3	1	0	3	0
24	278	1	10000	3	1	0	3	0
27	279	1	10000	3	1	0	3	0
28	280	1	10000	3	1	0	3	0
28	281	1	10000	3	1	0	3	0
28	281	1	10000	3	1	0	3	0
29	282	1	10000	3	1	0	3	0
29	284	1	10000	3	1	0	3	0
29	285	1	10000	3	1	0	3	0
28	286	1	10000	3	1	0	3	0
28	287	1	10000	3	1	0	3	0
28	288	1	10000	3	1	0	3	0
28	289	1	10000	3	1	0	3	0
29	290	1	10000	3	1	0	3	0
28	291	1	10000	3	1	0	3	0
29	291	1	10000	3	1	0	3	0
28	292	1	10000	3	1	0	3	0
26	294	1	10000	3	1	0	3	0
26	295	1	10000	3	1	0	3	0
26	296	1	10000	3	1	0	3	0
26	297	1	10000	3	1	0	3	0
26	298	1	10000	3	1	0	3	0
26	299	1	10000	3	1	0	3	0
26	300	1	10000	3	1	0	3	0
25	301	1	10000	3	1	0	3	0
25	301	1	10000	3	1	0	3	0
26	302	1	10000	3	1	0	3	0
28	304	1	10000	3	1	0	3	0
29	305	1	10000	3	1	0	3	0
29	306	1	10000	3	1	0	3	0
29	307	1	10000	3	1	0	3	0
30	308	1	10000	3	1	0	3	0
31	309	1	10000	3	1	0	3	0
29	310	1	10000	3	1	0	3	0
30	311	1	10000	3	1	0	3	0
29	311	1	10000	3	1	0	3	0
29	312	1	10000	3	1	0	3	0
29	314	1	10000	3	1	0	3	0
31	315	1	10000	3	1	0	3	0
32	316	1	10000	3	1	0	3	0
33	317	1	10000	3	1	0	3	0
32	318	1	10000	3	1	0	3	0
33	319	1	10000	3	1	0	3	0
33	320	1	10000	3	1	0	3	0
32	321	1	10000	3	1	0	3	0
32	321	1	10000	3	1	0	3	0
34	322	1	10000	3	1	0	3	0
35	324	1	10000	3	1	0	3	0
34	325	1	10000	3	1	0	3	0
32	326	1	10000	3	1	0	3	0
32	327	1	10000	3	1	0	3	0
32	328	1	10000	3	1	0	3	0
31	329	1	10000	3	1	0	3	0
31	330	1	10000	3	1	0	3	0
31	331	1	10000	3	1	0	3	0
31	331	1	10000	3	1	0	3	0
29	332	1	10000	3	1	0	3	0
28	334	1	10000	3	1	0	3	0
27	335	1	10000	3	1	0	3	0
27	336	1	10000	3	1	0	3	0
28	337	1	10000	3	1	0	3	0
28	338	1	10000	3	1	0	3	0
28	339	1	10000	3	1	0	3	0
28	340	1	10000	3	1	0	3	0
29	341	1	10000	3	1	0	3	0
29	341	1	10000	3	1	0	3	0
30	342	1	10000	3	1	0	3	0
32	344	1	10000	3	1	0	3	0
32	345	1	10000	3	1	0	3	0
31	346	1	10000	3	1	0	3	0
30	347	1	10000	3	1	0	3	0
29	348	1	10000	3	1	0	3	0
29	349	1	10000	3	1	0	3	0
31	350	1	10000	3	1	0	3	0
33	351	1	10000	3	1	0	3	0
35	351	1	10000	3	1	0	3	0
35	352	1	10000	3	1	0	3	0
33	354	1	10000	3	1	0	3	0
33	355	1	10000	3	1	0	3	0
33	356	1	10000	3	1	0	3	0
32	357	1	10000	3	1	0	3	0
32	358	1	10000	3	1	0	3	0
32	359	1	10000	3	1	0	3	0
30	360	1	10000	3	1	0	3	0
30	361	1	10000	3	1	0	3	0
30	361	1	10000	3	1	0	3	0
31	362	1	10000	3	1	0	3	0
31	364	1	10000	3	1	0	3	0
31	365	1	10000	3	1	0	3	0
30	366	1	10000	3	1	0	3	0
29	367	1	10000	3	1	0	3	0
29	368	1	10000	3	1	0	3	0
29	369	1	10000	3	1	0	3	0
28	370	1	10000	3	1	0	3	0
28	371	1	10000	3	1	0	3	0
28	371	1	10000	3	1	0	3	0
27	372	1	10000	3	1	0	3	0
26	374	1	10000	3	1	0	3	0
26	375	1	10000	3	1	0	3	0
26	376	1	10000	3	1	0	3	0
26	377	1	10000	3	1	0	3	0
25	378	1	10000	3	1	0	3	0
25	379	1	10000	3	1	0	3	0
26	380	1	10000	3	1	0	3	0
25	381	1	10000	3	1	0	3	0
25	381	1	10000	3	1	0	3	0
26	382	1	10000	3	1	0	3	0
26	384	1	10000	3	1	0	3	0
25	385	1	10000	3	1	0	3	0
24	386	1	10000	3	1	0	3	0
24	387	1	10000	3	1	0	3	0
25	388	1	10000	3	1	0	3	0
25	389	1	10000	3	1	0	3	0
27	390	1	10000	3	1	0	3	0
29	391	1	10000	3	1	0	3	0
29	391	1	10000	3	1	0	3	0
27	392	1	10000	3	1	0	3	0
27	394	1	10000	3	1	0	3	0
26	395	1	10000	3	1	0	3	0
26	396	1	10000	3	1	0	3	0
26	397	1	10000	3	1	0	3	0
26	398	1	10000	3	1	0	3	0
28	399	1	10000	3	1	0	3	0
27	400	1	10000	3	1	0	3	0
26	401	1	10000	3	1	0	3	0
25	401	1	10000	3	1	0	3	0
26	402	1	10000	3	1	0	3	0
26	404	1	10000	3	1	0	3	0
26	405	1	10000	3	1	0	3	0
25	406	1	10000	3	1	0	3	0
25	407	1	10000	3	1	0	3	0
25	408	1	10000	3	1	0	3	0
24	409	1	10000	3	1	0	3	0
25	410	1	10000	3	1	0	3	0
25	411	1	10000	3	1	0	3	0
25	411	1	10000	3	1	0	3	0
24	412	1	10000	3	1	0	3	0
22	414	1	10000	3	1	0	3	0
23	415	1	10000	3	1	0	3	0
25	416	1	10000	3	1	0	3	0
24	417	1	10000	3	1	0	3	0
25	418	1	10000	3	1	0	3	0
23	419	1	10000	3	1	0	3	0
23	420	1	10000	3	1	0	3	0
22	421	1	10000	3	1	0	3	0
22	421	1	10000	3	1	0	3	0
22	422	1	10000	3	1	0	3	0
23	424	1	10000	3	1	0	3	0
24	425	1	10000	3	1	0	3	0
25	426	1	10000	3	1	0	3	0
25	427	1	10000	3	1	0	3	0
26	428	1	10000	3	1	0	3	0
27	429	1	10000	3	1	0	3	0
25	430	1	10000	3	1	0	3	0
25	431	1	10000	3	1	0	3	0
29	431	1	10000	3	1	0	3	0
31	432	1	10000	3	1	0	3	0
31	434	1	10000	3	1	0	3	0
31	435	1	10000	3	1	0	3	0
30	436	1	10000	3	1	0	3	0
30	437	1	10000	3	1	0	3	0
30	438	1	10000	3	1	0	3	0
30	439	1	10000	3	1	0	3	0
31	440	1	10000	3	1	0	3	0
30	441	1	10000	3	1	0	3	0
29	441	1	10000	3	1	0	3	0
30	442	1	10000	3	1	0	3	0
30	444	1	10000	3	1	0	3	0
29	445	1	10000	3	1	0	3	0
29	446	1	10000	3	1	0	3	0
28	447	1	10000	3	1	0	3	0
29	448	1	10000	3	1	0	3	0
28	449	1	10000	3	1	0	3	0
28	450	1	10000	3	1	0	3	0
28	451	1	10000	3	1	0	3	0
28	451	1	10000	3	1	0	3	0
27	452	1	10000	3	1	0	3	0
26	454	1	10000	3	1	0	3	0
27	455	1	10000	3	1	0	3	0
29	456	1	10000	3	1	0	3	0
29	457	1	10000	3	1	0	3	0
29	458	1	10000	3	1	0	3	0
31	459	1	10000	3	1	0	3	0
30	460	1	10000	3	1	0	3	0
29	461	1	10000	3	1	0	3	0
29	461	1	10000	3	1	0	3	0
31	462	1	10000	3	1	0	3	0
32	464	1	10000	3	1	0	3	0
32	465	1	10000	3	1	0	3	0
32	466	1	10000	3	1	0	3	0
31	467	1	10000	3	1	0	3	0
31	468	1	10000	3	1	0	3	0
32	469	1	10000	3	1	0	3	0
32	470	1	10000	3	1	0	3	0
32	471	1	10000	3	1	0	3	0
32	471	1	10000	3	1	0	3	0
31	472	1	10000	3	1	0	3	0
28	474	1	10000	3	1	0	3	0
30	475	1	10000	3	1	0	3	0
29	476	1	10000	3	1	0	3	0
29	477	1	10000	3	1	0	3	0
30	478	1	10000	3	1	0	3	0
29	479	1	10000	3	1	0	3	0
29	480	1	10000	3	1	0	3	0
28	481	1	10000	3	1	0	3	0
27	481	1	10000	3	1	0	3	0
30	482	1	10000	3	1	0	3	0
32	484	1	10000	3	1	0	3	0
32	485	1	10000	3	1	0	3	0
32	486	1	10000	3	1	0	3	0
31	487	1	10000	3	1	0	3	0
31	488	1	10000	3	1	0	3	0
31	489	1	10000	3	1	0	3	0
30	490	1	10000	3	1	0	3	0
30	491	1	10000	3	1	0	3	0
30	491	1	10000	3	1	0	3	0
29	492	1	10000	3	1	0	3	0
28	494	1	10000	3	1	0	3	0
27	495	1	10000	3	1	0	3	0
27	496	1	10000	3	1	0	3	0
28	497	1	10000	3	1	0	3	0
27	498	1	10000	3	1	0	3	0
27	499	1	10000	3	1	0	3	0
26	500	1	10000	3	1	0	3	0
26	501	1	10000	3	1	0	3	0
25	501	1	10000	3	1	0	3	1
26	502	1	10000	3	1	0	3	1
27	504	1	10000	3	1	0	3	1
26	505	1	10000	3	1	0	3	1
26	506	1	10000	3	1	0	3	1
25	507	1	10000	3	1	0	3	1
26	508	1	10000	3	1	0	3	1
24	509	1	10000	3	1	0	3	1
26	510	1	10000	3	1	0	3	1
25	511	1	10000	3	1	0	3	1
26	511	1	10000	3	1	0	3	1
24	512	1	10000	3	1	0	3	1
24	514	1	10000	3	1	0	3	1
26	515	1	10000	3	1	0	3	1
25	516	1	10000	3	1	0	3	1
26	517	1	10000	3	1	0	3	1
25	518	1	10000	3	1	0	3	1
26	519	1	10000	3	1	0	3	1
25	520	1	10000	3	1	0	3	1
24	521	1	10000	3	1	0	3	1
24	521	1	10000	3	1	0	3	1
27	522	1	10000	3	1	0	3	1
29	524	1	10000	3	1	0	3	1
28	525	1	10000	3	1	0	3	1
28	526	1	10000	3	1	0	3	1
29	527	1	10000	3	1	0	3	1
30	528	1	10000	3	1	0	3	1
31	529	1	10000	3	1	0	3	1
32	530	1	10000	3	1	0	3	1
33	531	1	10000	3	1	0	3	1
33	531	1	10000	3	1	0	3	1
32	532	1	10000	3	1	0	3	1
30	534	1	10000	3	1	0	3	1
30	535	1	10000	3	1	0	3	1
29	536	1	10000	3	1	0	3	1
29	537	1	10000	3	1	0	3	1
29	538	1	10000	3	1	0	3	1
29	539	1	10000	3	1	0	3	1
28	540	1	10000	3	1	0	3	1
28	541	1	10000	3	1	0	3	1
27	541	1	10000	3	1	0	3	1
28	542	1	10000	3	1	0	3	1
28	544	1	10000	3	1	0	3	1
29	545	1	10000	3	1	0	3	1
29	546	1	10000	3	1	0	3	1
29	547	1	10000	3	1	0	3	1
28	548	1	10000	3	1	0	3	1
29	549	1	10000	3	1	0	3	1
28	550	1	10000	3	1	0	3	1
28	551	1	10000	3	1	0	3	1
28	551	1	10000	3	1	0	3	0
26	552	1	10000	3	1	0	3	0
26	554	1	10000	3	1	0	3	0
26	555	1	10000	3	1	0	3	0
26	556	1	10000	3	1	0	3	0
26	557	1	10000	3	1	0	3	0
25	558	1	10000	3	1	0	3	0
25	559	1	10000	3	1	0	3	0
25	560	1	10000	3	1	0	3	0
25	561	1	10000	3	1	0	3	0
24	561	1	10000	3	1	0	3	0
26	562	1	10000	3	1	0	3	0
27	564	1	10000	3	1	0	3	0
26	565	1	10000	3	1	0	3	0
26	566	1	10000	3	1	0	3	0
25	567	1	10000	3	1	0	3	0
25	568	1	10000	3	1	0	3	0
25	569	1	10000	3	1	0	3	0
26	570	1	10000	3	1	0	3	0
25	571	1	10000	3	1	0	3	0
26	571	1	10000	3	1	0	3	0
25	572	1	10000	3	1	0	3	0
23	583	1	10000	3	1	0	3	0
23	584	1	10000	3	1	0	3	0
24	585	1	10000	3	1	0	3	0
24	586	1	10000	3	1	0	3	0
24	587	1	10000	3	1	0	3	0
25	588	1	10000	3	1	0	3	0
25	589	1	10000	3	1	0	3	0
26	590	1	10000	3	1	0	3	0
27	591	1	10000	3	1	0	3	0
29	592	1	10000	3	1	0	3	0
30	593	1	10000	3	1	0	3	0
30	594	1	10000	3	1	0	3	0
29	591	1	10000	3	1	0	3	0
29	592	1	10000	3	1	0	3	0
43	593	1	10000	3	1	0	3	0
84	594	1	10000	3	1	0	3	0
90	595	1	10000	3	1	0	3	0
115	596	1	10000	3	1	0	3	0
149	597	1	10000	3	1	0	3	0
159	598	1	10000	3	1	0	3	0
161	602	1	10000	3	1	0	3	0
154	603	1	10000	3	1	0	3	0
151	604	1	10000	3	1	0	3	0
158	605	1	10000	3	1	0	3	0
177	606	1	10000	3	1	0	3	0
228	607	1	10000	3	1	0	3	0
279	608	1	10000	3	1	0	3	0
301	609	1	10000	3	1	0	3	0
344	610	1	10000	3	1	0	3	0
342	611	1	10000	3	1	0	3	0
335	608	1	10000	3	1	0	3	0
339	609	1	10000	3	1	0	3	0
342	610	1	10000	3	1	0	3	0
335	611	1	10000	3	1	0	3	0
325	612	1	10000	3	1	0	3	0
393	613	1	10000	3	1	0	3	0
457	612	1	10000	3	1	0	3	0
455	613	1	10000	3	1	0	3	0
484	614	1	10000	3	1	0	3	0
508	615	1	10000	3	1	0	3	0
528	619	1	10000	3	1	0	3	0
521	620	1	10000	3	1	0	3	0
509	621	1	10000	3	1	0	3	0
497	622	1	10000	3	1	0	3	0
486	623	1	10000	3	1	0	3	0
477	624	1	10000	3	1	0	3	0
458	625	1	10000	3	1	0	3	0
437	626	1	10000	3	1	0	3	0
418	623	1	10000	3	1	0	3	0
403	624	1	10000	3	1	0	3	0
390	625	1	10000	3	1	0	3	0
378	626	1	10000	3	1	0	3	0
375	629	1	10000	3	1	0	3	0
382	630	1	10000	3	1	0	3	0
381	631	1	10000	3	1	0	3	0
377	632	1	10000	3	1	0	3	0
372	633	1	10000	3	1	0	3	0
378	634	1	10000	3	1	0	3	0
399	635	1	10000	3	1	0	3	0
411	636	1	10000	3	1	0	3	0
399	637	1	10000	3	1	0	3	0
388	638	1	10000	3	1	0	3	0
385	639	1	10000	3	1	0	3	0
375	640	1	10000	3	1	0	3	0
369	640	1	10000	3	1	0	3	0
371	641	1	10000	3	1	0	3	0
373	642	1	10000	3	1	0	3	0
368	643	1	10000	3	1	0	3	0
364	646	1	10000	3	1	0	3	0
351	647	1	10000	3	1	0	3	0
336	648	1	10000	3	1	0	3	0
328	649	1	10000	3	1	0	3	0
328	650	1	10000	3	1	0	3	0
319	651	1	10000	3	1	0	3	0
308	651	1	10000	3	1	0	3	0
301	652	1	10000	3	1	0	3	0
300	653	1	10000	3	1	0	3	0
299	654	1	10000	3	1	0	3	0
296	655	1	10000	3	1	0	3	0
292	656	1	10000	3	1	0	3	0
294	658	1	10000	3	1	0	3	0
296	659	1	10000	3	1	0	3	0
292	660	1	10000	3	1	0	3	0
286	661	1	10000	3	1	0	3	0
283	662	1	10000	3	1	0	3	0
283	663	1	10000	3	1	0	3	0
285	662	1	10000	3	1	0	3	0
287	663	1	10000	3	1	0	3	0
291	664	1	10000	3	1	0	3	0
294	665	1	10000	3	1	0	3	0
297	669	1	10000	3	1	0	3	0
301	670	1	10000	3	1	0	3	0
305	671	1	10000	3	1	0	3	0
307	672	1	10000	3	1	0	3	0
312	673	1	10000	3	1	0	3	0
316	674	1	10000	3	1	0	3	0
326	675	1	10000	3	1	0	3	0
333	676	1	10000	3	1	0	3	0
337	673	1	10000	3	1	0	3	0
342	674	1	10000	3	1	0	3	0
346	675	1	10000	3	1	0	3	0
346	676	1	10000	3	1	0	3	0
343	676	1	10000	3	1	0	3	0
336	677	1	10000	3	1	0	3	0
328	678	1	10000	3	1	0	3	0
322	679	1	10000	3	1	0	3	0
317	680	1	10000	3	1	0	3	0
312	681	1	10000	3	1	0	3	0
308	682	1	10000	3	1	0	3	0
309	683	1	10000	3	1	0	3	0
308	684	1	10000	3	1	0	3	0
302	685	1	10000	3	1	0	3	0
296	686	1	10000	3	1	0	3	0
294	687	1	10000	3	1	0	3	0
293	688	1	10000	3	1	0	3	0
286	689	1	10000	3	1	0	3	0
274	690	1	10000	3	1	0	3	0
267	691	1	10000	3	1	0	3	0
257	692	1	10000	3	1	0	3	0
244	693	1	10000	3	1	0	3	0
235	694	1	10000	3	1	0	3	0
228	695	1	10000	3	1	0	3	0
223	696	1	10000	3	1	0	3	0
216	697	1	10000	3	1	0	3	0
210	698	1	10000	3	1	0	3	0
204	699	1	10000	3	1	0	3	0
194	700	1	10000	3	1	0	3	0
186	701	1	10000	3	1	0	3	0
182	702	1	10000	3	1	0	3	0
186	703	1	10000	3	1	0	3	0
183	704	1	10000	3	1	0	3	0
177	705	1	10000	3	1	0	3	0
173	706	1	10000	3	1	0	3	0
165	707	1	10000	3	1	0	3	0
165	708	1	10000	3	1	0	3	0
164	709	1	10000	3	1	0	3	0
162	710	1	10000	3	1	0	3	0
158	711	1	10000	3	1	0	3	0
152	712	1	10000	3	1	0	3	0
146	713	1	10000	3	1	0	3	0
146	714	1	10000	3	1	0	3	0
152	715	1	10000	3	1	0	3	0
152	716	1	10000	3	1	0	3	0
150	717	1	10000	3	1	0	3	0
147	718	1	10000	3	1	0	3	0
144	719	1	10000	3	1	0	3	0
141	720	1	10000	3	1	0	3	0
140	721	1	10000	3	1	0	3	0
140	722	1	10000	3	1	0	3	0
142	723	1	10000	3	1	0	3	0
142	724	1	10000	3	1	0	3	0
140	725	1	10000	3	1	0	3	0
136	726	1	10000	3	1	0	3	0
134	727	1	10000	3	1	0	3	0
135	728	1	10000	3	1	0	3	0
134	729	1	10000	3	1	0	3	0
129	730	1	10000	3	1	0	3	0
125	731	1	10000	3	1	0	3	0
121	732	1	10000	3	1	0	3	0
116	733	1	10000	3	1	0	3	0
112	734	1	10000	3	1	0	3	0
107	735	1	10000	3	1	0	3	0
106	736	1	10000	3	1	0	3	0
110	737	1	10000	3	1	0	3	0
121	738	1	10000	3	1	0	3	0
131	739	1	10000	3	1	0	3	0
134	740	1	10000	3	1	0	3	0
134	741	1	10000	3	1	0	3	0
130	742	1	10000	3	1	0	3	0
128	743	1	10000	3	1	0	3	0
133	744	1	10000	3	1	0	3	0
133	745	1	10000	3	1	0	3	0
128	746	1	10000	3	1	0	3	0
123	747	1	10000	3	1	0	3	0
118	748	1	10000	3	1	0	3	0
115	749	1	10000	3	1	0	3	0
111	750	1	10000	3	1	0	3	0
108	751	1	10000	3	1	0	3	0
105	752	1	10000	3	1	0	3	0
103	753	1	10000	3	1	0	3	0
105	754	1	10000	3	1	0	3	0
104	755	1	10000	3	1	0	3	0
102	756	1	10000	3	1	0	3	0
96	757	1	10000	3	1	0	3	0
96	758	1	10000	3	1	0	3	0
102	759	1	10000	3	1	0	3	0
107	760	1	10000	3	1	0	3	0
104	761	1	10000	3	1	0	3	0
104	762	1	10000	3	1	0	3	0
105	763	1	10000	3	1	0	3	0
104	764	1	10000	3	1	0	3	0
100	765	1	10000	3	1	0	3	0
96	766	1	10000	3	1	0	3	0
92	767	1	10000	3	1	0	3	0
89	768	1	10000	3	1	0	3	0
89	769	1	10000	3	1	0	3	0
88	770	1	10000	3	1	0	3	0
85	771	1	10000	3	1	0	3	0
84	772	1	10000	3	1	0	3	0
83	773	1	10000	3	1	0	3	0
85	774	1	10000	3	1	0	3	0
88	775	1	10000	3	1	0	3	0
89	776	1	10000	3	1	0	3	0
92	777	1	10000	3	1	0	3	0
94	778	1	10000	3	1	0	3	0
94	779	1	10000	3	1	0	3	0
93	780	1	10000	3	1	0	3	0
95	781	1	10000	3	1	0	3	0
96	782	1	10000	3	1	0	3	0
97	783	1	10000	3	1	0	3	0
94	784	1	10000	3	1	0	3	0
94	785	1	10000	3	1	0	3	0
94	786	1	10000	3	1	0	3	0
92	787	1	10000	3	1	0	3	0
94	788	1	10000	3	1	0	3	0
96	789	1	10000	3	1	0	3	0
92	790	1	10000	3	1	0	3	0
98	791	1	10000	3	1	0	3	0
110	792	1	10000	3	1	0	3	0
110	793	1	10000	3	1	0	3	0
107	794	1	10000	3	1	0	3	0
105	795	1	10000	3	1	0	3	0
104	796	1	10000	3	1	0	3	0
102	797	1	10000	3	1	0	3	0
101	798	1	10000	3	1	0	3	0
99	799	1	10000	3	1	0	3	0
95	800	1	10000	3	1	0	3	0
92	801	1	10000	3	1	0	3	0
92	802	1	10000	3	1	0	3	0
92	803	1	10000	3	1	0	3	0
89	804	1	10000	3	1	0	3	0
88	805	1	10000	3	1	0	3	0
92	806	1	10000	3	1	0	3	0
90	807	1	10000	3	1	0	3	0
97	808	1	10000	3	1	0	3	0
100	809	1	10000	3	1	0	3	0
97	810	1	10000	3	1	0	3	0
100	811	1	10000	3	1	0	3	0
110	812	1	10000	3	1	0	3	0
109	813	1	10000	3	1	0	3	0
107	814	1	10000	3	1	0	3	0
105	815	1	10000	3	1	0	3	0
102	816	1	10000	3	1	0	3	0
101	817	1	10000	3	1	0	3	0
99	818	1	10000	3	1	0	3	0
104	819	1	10000	3	1	0	3	0
107	820	1	10000	3	1	0	3	0
106	821	1	10000	3	1	0	3	0
104	822	1	10000	3	1	0	3	0
102	823	1	10000	3	1	0	3	0
100	824	1	10000	3	1	0	3	0
104	825	1	10000	3	1	0	3	0
109	826	1	10000	3	1	0	3	0
106	827	1	10000	3	1	0	3	0
104	828	1	10000	3	1	0	3	0
104	829	1	10000	3	1	0	3	0
104	830	1	10000	3	1	0	3	0
103	831	1	10000	3	1	0	3	0
103	832	1	10000	3	1	0	3	0
98	833	1	10000	3	1	0	3	0
94	834	1	10000	3	1	0	3	0
93	835	1	10000	3	1	0	3	0
93	836	1	10000	3	1	0	3	0
92	837	1	10000	3	1	0	3	0
90	838	1	10000	3	1	0	3	0
87	839	1	10000	3	1	0	3	0
86	840	1	10000	3	1	0	3	0
88	841	1	10000	3	1	0	3	0
90	842	1	10000	3	1	0	3	0
91	843	1	10000	3	1	0	3	0
91	844	1	10000	3	1	0	3	0
88	845	1	10000	3	1	0	3	0
85	846	1	10000	3	1	0	3	0
84	847	1	10000	3	1	0	3	0
91	848	1	10000	3	1	0	3	0
97	849	1	10000	3	1	0	3	0
100	850	1	10000	3	1	0	3	0
96	851	1	10000	3	1	0	3	0
95	852	1	10000	3	1	0	3	0
93	853	1	10000	3	1	0	3	0
91	854	1	10000	3	1	0	3	0
88	855	1	10000	3	1	0	3	0
84	856	1	10000	3	1	0	3	0
83	857	1	10000	3	1	0	3	0
83	858	1	10000	3	1	0	3	0
80	859	1	10000	3	1	0	3	0
77	860	1	10000	3	1	0	3	0
74	861	1	10000	3	1	0	3	0
71	862	1	10000	3	1	0	3	0
69	863	1	10000	3	1	0	3	0
69	864	1	10000	3	1	0	3	0
72	865	1	10000	3	1	0	3	0
68	866	1	10000	3	1	0	3	0
66	867	1	10000	3	1	0	3	0
65	868	1	10000	3	1	0	3	0
64	869	1	10000	3	1	0	3	0
62	870	1	10000	3	1	0	3	0
62	871	1	10000	3	1	0	3	0
65	872	1	10000	3	1	0	3	0
61	873	1	10000	3	1	0	3	0
59	874	1	10000	3	1	0	3	0
58	875	1	10000	3	1	0	3	0
58	876	1	10000	3	1	0	3	0
56	877	1	10000	3	1	0	3	0
56	878	1	10000	3	1	0	3	0
58	879	1	10000	3	1	0	3	0
60	880	1	10000	3	1	0	3	0
64	881	1	10000	3	1	0	3	0
66	882	1	10000	3	1	0	3	0
67	883	1	10000	3	1	0	3	0
71	884	1	10000	3	1	0	3	0
69	885	1	10000	3	1	0	3	0
68	886	1	10000	3	1	0	3	0
69	887	1	10000	3	1	0	3	0
69	888	1	10000	3	1	0	3	0
70	889	1	10000	3	1	0	3	0
72	890	1	10000	3	1	0	3	0
71	891	1	10000	3	1	0	3	0
73	892	1	10000	3	1	0	3	0
75	893	1	10000	3	1	0	3	0
77	894	1	10000	3	1	0	3	0
80	895	1	10000	3	1	0	3	0
82	896	1	10000	3	1	0	3	0
83	897	1	10000	3	1	0	3	0
84	898	1	10000	3	1	0	3	0
81	899	1	10000	3	1	0	3	0
79	900	1	10000	3	1	0	3	0
76	901	1	10000	3	1	0	3	0
75	902	1	10000	3	1	0	3	0
75	903	1	10000	3	1	0	3	0
73	904	1	10000	3	1	0	3	0
75	905	1	10000	3	1	0	3	0
82	906	1	10000	3	1	0	3	0
90	907	1	10000	3	1	0	3	0
93	908	1	10000	3	1	0	3	0
92	909	1	10000	3	1	0	3	0
90	910	1	10000	3	1	0	3	0
90	911	1	10000	3	1	0	3	0
91	912	1	10000	3	1	0	3	0
86	913	1	10000	3	1	0	3	0
85	914	1	10000	3	1	0	3	0
82	915	1	10000	3	1	0	3	0
80	916	1	10000	3	1	0	3	0
80	917	1	10000	3	1	0	3	0
80	918	1	10000	3	1	0	3	0
77	919	1	10000	3	1	0	3	0
78	920	1	10000	3	1	0	3	0
76	921	1	10000	3	1	0	3	0
73	922	1	10000	3	1	0	3	0
72	923	1	10000	3	1	0	3	0
73	924	1	10000	3	1	0	3	0
73	925	1	10000	3	1	0	3	0
71	926	1	10000	3	1	0	3	0
69	927	1	10000	3	1	0	3	0
67	928	1	10000	3	1	0	3	0
66	929	1	10000	3	1	0	3	0
66	930	1	10000	3	1	0	3	0
69	931	1	10000	3	1	0	3	0
68	932	1	10000	3	1	0	3	0
67	933	1	10000	3	1	0	3	0
67	934	1	10000	3	1	0	3	0
68	935	1	10000	3	1	0	3	0
66	936	1	10000	3	1	0	3	0
66	937	1	10000	3	1	0	3	0
64	938	1	10000	3	1	0	3	0
62	939	1	10000	3	1	0	3	0
62	940	1	10000	3	1	0	3	0
60	941	1	10000	3	1	0	3	0
62	942	1	10000	3	1	0	3	0
65	943	1	10000	3	1	0	3	0
70	944	1	10000	3	1	0	3	0
79	945	1	10000	3	1	0	3	0
88	946	1	10000	3	1	0	3	0
89	947	1	10000	3	1	0	3	0
89	948	1	10000	3	1	0	3	0
91	949	1	10000	3	1	0	3	0
103	950	1	10000	3	1	0	3	0
109	951	1	10000	3	1	0	3	0
108	952	1	10000	3	1	0	3	0
104	953	1	10000	3	1	0	3	0
103	954	1	10000	3	1	0	3	0
104	955	1	10000	3	1	0	3	0
104	956	1	10000	3	1	0	3	0
108	957	1	10000	3	1	0	3	0
112	958	1	10000	3	1	0	3	0
114	959	1	10000	3	1	0	3	0
113	960	1	10000	3	1	0	3	0
111	961	1	10000	3	1	0	3	0
107	962	1	10000	3	1	0	3	0
111	963	1	10000	3	1	0	3	0
121	964	1	10000	3	1	0	3	0
127	965	1	10000	3	1	0	3	0
128	966	1	10000	3	1	0	3	0
123	967	1	10000	3	1	0	3	0
123	968	1	10000	3	1	0	3	0
122	969	1	10000	3	1	0	3	0
120	970	1	10000	3	1	0	3	0
116	971	1	10000	3	1	0	3	0
113	972	1	10000	3	1	0	3	0
110	973	1	10000	3	1	0	3	0
117	974	1	10000	3	1	0	3	0
122	975	1	10000	3	1	0	3	0
121	976	1	10000	3	1	0	3	0
118	977	1	10000	3	1	0	3	0
118	978	1	10000	3	1	0	3	0
121	979	1	10000	3	1	0	3	0
123	980	1	10000	3	1	0	3	0
122	981	1	10000	3	1	0	3	0
122	982	1	10000	3	1	0	3	0
127	983	1	10000	3	1	0	3	0
129	984	1	10000	3	1	0	3	0
129	985	1	10000	3	1	0	3	0
133	986	1	10000	3	1	0	3	0
131	987	1	10000	3	1	0	3	0
125	988	1	10000	3	1	0	3	0
121	989	1	10000	3	1	0	3	0
117	990	1	10000	3	1	0	3	0
114	991	1	10000	3	1	0	3	0
111	992	1	10000	3	1	0	3	0
110	993	1	10000	3	1	0	3	0
111	994	1	10000	3	1	0	3	0
114	995	1	10000	3	1	0	3	0
114	996	1	10000	3	1	0	3	0
119	997	1	10000	3	1	0	3	0
123	998	1	10000	3	1	0	3	0
124	999	1	10000	3	1	0	3	0
121	1000	1	10000	3	1	0	3	0
117	1001	1	10000	3	1	0	3	0
23	2	0	10000	4	1	0	4	0
23	3	0	10000	4	1	0	4	0
23	4	0	10000	4	1	0	4	0
24	5	0	10000	4	1	0	4	0
24	6	0	10000	4	1	0	4	0
24	7	0	10000	4	1	0	4	0
23	8	0	10000	4	1	0	4	0
24	9	0	10000	4	1	0	4	0
25	10	0	10000	4	1	0	4	0
26	11	0	10000	4	1	0	4	0
26	12	0	10000	4	1	0	4	0
26	13	0	10000	4	1	0	4	0
25	14	0	10000	4	1	0	4	0
25	15	0	10000	4	1	0	4	0
25	16	0	10000	4	1	0	4	0
25	17	0	10000	4	1	0	4	0
25	18	0	10000	4	1	0	4	0
26	19	0	10000	4	1	0	4	0
26	20	0	10000	4	1	0	4	0
25	21	0	10000	4	1	0	4	0
24	22	0	10000	4	1	0	4	0
25	23	0	10000	4	1	0	4	0
26	24	0	10000	4	1	0	4	0
28	25	0	10000	4	1	0	4	0
30	26	0	10000	4	1	0	4	0
30	27	0	10000	4	1	0	4	0
29	28	0	10000	4	1	0	4	0
29	29	0	10000	4	1	0	4	0
29	30	0	10000	4	1	0	4	0
31	31	0	10000	4	1	0	4	0
32	32	0	10000	4	1	0	4	0
32	33	0	10000	4	1	0	4	0
35	34	0	10000	4	1	0	4	0
37	35	0	10000	4	1	0	4	0
39	36	0	10000	4	1	0	4	0
38	37	0	10000	4	1	0	4	0
37	38	0	10000	4	1	0	4	0
37	39	0	10000	4	1	0	4	0
38	40	0	10000	4	1	0	4	0
35	41	0	10000	4	1	0	4	0
36	42	0	10000	4	1	0	4	0
35	43	0	10000	4	1	0	4	0
35	44	0	10000	4	1	0	4	0
34	45	0	10000	4	1	0	4	0
34	46	0	10000	4	1	0	4	0
34	47	0	10000	4	1	0	4	0
33	48	0	10000	4	1	0	4	0
34	49	0	10000	4	1	0	4	0
34	50	0	10000	4	1	0	4	0
35	51	0	10000	4	1	0	4	0
35	52	0	10000	4	1	0	4	0
34	53	0	10000	4	1	0	4	0
33	54	0	10000	4	1	0	4	0
32	55	0	10000	4	1	0	4	0
32	56	0	10000	4	1	0	4	0
31	57	0	10000	4	1	0	4	0
31	58	0	10000	4	1	0	4	0
32	59	0	10000	4	1	0	4	0
31	60	0	10000	4	1	0	4	0
29	61	0	10000	4	1	0	4	0
29	62	0	10000	4	1	0	4	0
30	63	0	10000	4	1	0	4	0
30	64	0	10000	4	1	0	4	0
30	65	0	10000	4	1	0	4	0
30	66	0	10000	4	1	0	4	0
29	67	0	10000	4	1	0	4	0
29	68	0	10000	4	1	0	4	0
28	69	0	10000	4	1	0	4	0
27	70	0	10000	4	1	0	4	0
28	71	0	10000	4	1	0	4	0
28	72	0	10000	4	1	0	4	0
28	73	0	10000	4	1	0	4	0
26	74	0	10000	4	1	0	4	0
27	75	0	10000	4	1	0	4	0
26	76	0	10000	4	1	0	4	0
26	77	0	10000	4	1	0	4	0
27	78	0	10000	4	1	0	4	0
27	79	0	10000	4	1	0	4	0
26	80	0	10000	4	1	0	4	0
26	81	0	10000	4	1	0	4	0
25	82	0	10000	4	1	0	4	0
26	83	0	10000	4	1	0	4	0
26	84	0	10000	4	1	0	4	0
25	85	0	10000	4	1	0	4	0
26	86	0	10000	4	1	0	4	0
26	87	0	10000	4	1	0	4	0
25	88	0	10000	4	1	0	4	0
25	89	0	10000	4	1	0	4	0
25	90	0	10000	4	1	0	4	0
26	91	0	10000	4	1	0	4	0
27	92	0	10000	4	1	0	4	0
26	93	0	10000	4	1	0	4	0
25	94	0	10000	4	1	0	4	0
25	95	0	10000	4	1	0	4	0
25	96	0	10000	4	1	0	4	0
25	97	0	10000	4	1	0	4	0
25	98	0	10000	4	1	0	4	0
27	99	0	10000	4	1	0	4	0
29	100	0	10000	4	1	0	4	0
26	101	0	10000	4	1	0	4	0
25	102	0	10000	4	1	0	4	0
25	103	0	10000	4	1	0	4	0
26	104	0	10000	4	1	0	4	0
26	105	0	10000	4	1	0	4	0
26	106	0	10000	4	1	0	4	0
27	107	0	10000	4	1	0	4	0
25	108	0	10000	4	1	0	4	0
25	109	0	10000	4	1	0	4	0
24	110	0	10000	4	1	0	4	0
27	111	0	10000	4	1	0	4	0
27	112	0	10000	4	1	0	4	0
26	113	0	10000	4	1	0	4	0
25	114	0	10000	4	1	0	4	0
25	115	0	10000	4	1	0	4	0
25	116	0	10000	4	1	0	4	0
25	117	0	10000	4	1	0	4	0
25	118	0	10000	4	1	0	4	0
27	119	0	10000	4	1	0	4	0
29	120	0	10000	4	1	0	4	0
29	121	0	10000	4	1	0	4	0
32	122	0	10000	4	1	0	4	0
32	123	0	10000	4	1	0	4	0
32	124	0	10000	4	1	0	4	0
31	125	0	10000	4	1	0	4	0
31	126	0	10000	4	1	0	4	0
32	127	0	10000	4	1	0	4	0
32	128	0	10000	4	1	0	4	0
34	129	0	10000	4	1	0	4	0
36	130	0	10000	4	1	0	4	0
38	131	0	10000	4	1	0	4	0
37	132	0	10000	4	1	0	4	0
38	133	0	10000	4	1	0	4	0
36	134	0	10000	4	1	0	4	0
35	135	0	10000	4	1	0	4	0
35	136	0	10000	4	1	0	4	0
34	137	0	10000	4	1	0	4	0
33	138	0	10000	4	1	0	4	0
33	139	0	10000	4	1	0	4	0
33	140	0	10000	4	1	0	4	0
32	141	0	10000	4	1	0	4	0
31	142	0	10000	4	1	0	4	0
31	143	0	10000	4	1	0	4	0
30	144	0	10000	4	1	0	4	0
30	145	0	10000	4	1	0	4	0
30	146	0	10000	4	1	0	4	0
30	147	0	10000	4	1	0	4	0
29	148	0	10000	4	1	0	4	0
29	149	0	10000	4	1	0	4	0
28	150	0	10000	4	1	0	4	0
29	151	0	10000	4	1	0	4	0
30	152	0	10000	4	1	0	4	0
29	153	0	10000	4	1	0	4	0
28	154	0	10000	4	1	0	4	0
28	155	0	10000	4	1	0	4	0
28	156	0	10000	4	1	0	4	0
28	157	0	10000	4	1	0	4	0
28	158	0	10000	4	1	0	4	0
29	159	0	10000	4	1	0	4	0
30	160	0	10000	4	1	0	4	0
27	161	0	10000	4	1	0	4	0
27	162	0	10000	4	1	0	4	0
28	163	0	10000	4	1	0	4	0
27	164	0	10000	4	1	0	4	0
28	165	0	10000	4	1	0	4	0
27	166	0	10000	4	1	0	4	0
27	167	0	10000	4	1	0	4	0
27	168	0	10000	4	1	0	4	0
26	169	0	10000	4	1	0	4	0
26	170	0	10000	4	1	0	4	0
28	171	0	10000	4	1	0	4	0
27	172	0	10000	4	1	0	4	0
27	173	0	10000	4	1	0	4	0
27	174	0	10000	4	1	0	4	0
28	175	0	10000	4	1	0	4	0
28	176	0	10000	4	1	0	4	0
29	177	0	10000	4	1	0	4	0
30	178	0	10000	4	1	0	4	0
30	179	0	10000	4	1	0	4	0
30	180	0	10000	4	1	0	4	0
28	181	0	10000	4	1	0	4	0
29	182	0	10000	4	1	0	4	0
29	183	0	10000	4	1	0	4	0
30	184	0	10000	4	1	0	4	0
31	185	0	10000	4	1	0	4	0
32	186	0	10000	4	1	0	4	0
32	187	0	10000	4	1	0	4	0
32	188	0	10000	4	1	0	4	0
32	189	0	10000	4	1	0	4	0
32	190	0	10000	4	1	0	4	0
34	191	0	10000	4	1	0	4	0
33	192	0	10000	4	1	0	4	0
33	193	0	10000	4	1	0	4	0
32	194	0	10000	4	1	0	4	0
32	195	0	10000	4	1	0	4	0
31	196	0	10000	4	1	0	4	0
31	197	0	10000	4	1	0	4	0
31	198	0	10000	4	1	0	4	0
32	199	0	10000	4	1	0	4	0
32	200	0	10000	4	1	0	4	0
32	201	0	10000	4	1	0	4	0
31	202	0	10000	4	1	0	4	0
31	203	0	10000	4	1	0	4	0
31	204	0	10000	4	1	0	4	0
31	205	0	10000	4	1	0	4	0
31	206	0	10000	4	1	0	4	0
30	207	0	10000	4	1	0	4	0
29	208	0	10000	4	1	0	4	0
29	209	0	10000	4	1	0	4	0
28	210	0	10000	4	1	0	4	0
30	211	0	10000	4	1	0	4	0
30	212	0	10000	4	1	0	4	0
29	213	0	10000	4	1	0	4	0
28	214	0	10000	4	1	0	4	0
28	215	0	10000	4	1	0	4	0
28	216	0	10000	4	1	0	4	0
27	217	0	10000	4	1	0	4	0
29	218	0	10000	4	1	0	4	0
30	219	0	10000	4	1	0	4	0
31	220	0	10000	4	1	0	4	0
30	221	0	10000	4	1	0	4	0
31	222	0	10000	4	1	0	4	0
32	223	0	10000	4	1	0	4	0
32	224	0	10000	4	1	0	4	0
35	225	0	10000	4	1	0	4	0
38	226	0	10000	4	1	0	4	0
37	227	0	10000	4	1	0	4	0
35	228	0	10000	4	1	0	4	0
35	229	0	10000	4	1	0	4	0
34	230	0	10000	4	1	0	4	0
35	231	0	10000	4	1	0	4	0
35	232	0	10000	4	1	0	4	0
35	233	0	10000	4	1	0	4	0
34	234	0	10000	4	1	0	4	0
35	235	0	10000	4	1	0	4	0
34	236	0	10000	4	1	0	4	0
33	237	0	10000	4	1	0	4	0
33	238	0	10000	4	1	0	4	0
33	239	0	10000	4	1	0	4	0
32	240	0	10000	4	1	0	4	0
30	241	0	10000	4	1	0	4	0
31	242	0	10000	4	1	0	4	0
32	243	0	10000	4	1	0	4	0
32	244	0	10000	4	1	0	4	0
32	245	0	10000	4	1	0	4	0
31	246	0	10000	4	1	0	4	0
32	247	0	10000	4	1	0	4	0
34	248	0	10000	4	1	0	4	0
37	249	0	10000	4	1	0	4	0
38	250	0	10000	4	1	0	4	0
40	251	0	10000	4	1	0	4	0
39	252	0	10000	4	1	0	4	0
39	253	0	10000	4	1	0	4	0
38	254	0	10000	4	1	0	4	0
37	255	0	10000	4	1	0	4	0
38	256	0	10000	4	1	0	4	0
36	257	0	10000	4	1	0	4	0
36	258	0	10000	4	1	0	4	0
36	259	0	10000	4	1	0	4	0
36	260	0	10000	4	1	0	4	0
34	261	0	10000	4	1	0	4	0
32	262	0	10000	4	1	0	4	0
33	263	0	10000	4	1	0	4	0
33	264	0	10000	4	1	0	4	0
32	265	0	10000	4	1	0	4	0
32	266	0	10000	4	1	0	4	0
32	267	0	10000	4	1	0	4	0
31	268	0	10000	4	1	0	4	0
30	269	0	10000	4	1	0	4	0
31	270	0	10000	4	1	0	4	0
32	271	0	10000	4	1	0	4	0
31	272	0	10000	4	1	0	4	0
31	273	0	10000	4	1	0	4	0
30	274	0	10000	4	1	0	4	0
30	275	0	10000	4	1	0	4	0
31	276	0	10000	4	1	0	4	0
30	277	0	10000	4	1	0	4	0
31	278	0	10000	4	1	0	4	0
31	279	0	10000	4	1	0	4	0
30	280	0	10000	4	1	0	4	0
29	281	0	10000	4	1	0	4	0
28	282	0	10000	4	1	0	4	0
29	283	0	10000	4	1	0	4	0
29	284	0	10000	4	1	0	4	0
29	285	0	10000	4	1	0	4	0
28	286	0	10000	4	1	0	4	0
29	287	0	10000	4	1	0	4	0
28	288	0	10000	4	1	0	4	0
27	289	0	10000	4	1	0	4	0
26	290	0	10000	4	1	0	4	0
28	291	0	10000	4	1	0	4	0
28	292	0	10000	4	1	0	4	0
27	293	0	10000	4	1	0	4	0
27	294	0	10000	4	1	0	4	0
27	295	0	10000	4	1	0	4	0
26	296	0	10000	4	1	0	4	0
27	297	0	10000	4	1	0	4	0
29	298	0	10000	4	1	0	4	0
30	299	0	10000	4	1	0	4	0
32	300	0	10000	4	1	0	4	0
31	301	0	10000	4	1	0	4	0
32	302	0	10000	4	1	0	4	0
32	303	0	10000	4	1	0	4	0
33	304	0	10000	4	1	0	4	0
33	305	0	10000	4	1	0	4	0
34	306	0	10000	4	1	0	4	0
36	307	0	10000	4	1	0	4	0
35	308	0	10000	4	1	0	4	0
34	309	0	10000	4	1	0	4	0
34	310	0	10000	4	1	0	4	0
35	311	0	10000	4	1	0	4	0
35	312	0	10000	4	1	0	4	0
34	313	0	10000	4	1	0	4	0
34	314	0	10000	4	1	0	4	0
33	315	0	10000	4	1	0	4	0
33	316	0	10000	4	1	0	4	0
32	317	0	10000	4	1	0	4	0
32	318	0	10000	4	1	0	4	0
32	319	0	10000	4	1	0	4	0
32	320	0	10000	4	1	0	4	0
29	321	0	10000	4	1	0	4	0
28	322	0	10000	4	1	0	4	0
29	323	0	10000	4	1	0	4	0
29	324	0	10000	4	1	0	4	0
28	325	0	10000	4	1	0	4	0
28	326	0	10000	4	1	0	4	0
29	327	0	10000	4	1	0	4	0
28	328	0	10000	4	1	0	4	0
30	329	0	10000	4	1	0	4	0
30	330	0	10000	4	1	0	4	0
32	331	0	10000	4	1	0	4	0
33	332	0	10000	4	1	0	4	0
32	333	0	10000	4	1	0	4	0
32	334	0	10000	4	1	0	4	0
36	335	0	10000	4	1	0	4	0
36	336	0	10000	4	1	0	4	0
38	337	0	10000	4	1	0	4	0
40	338	0	10000	4	1	0	4	0
40	339	0	10000	4	1	0	4	0
40	340	0	10000	4	1	0	4	0
37	341	0	10000	4	1	0	4	0
37	342	0	10000	4	1	0	4	0
38	343	0	10000	4	1	0	4	0
38	344	0	10000	4	1	0	4	0
38	345	0	10000	4	1	0	4	0
37	346	0	10000	4	1	0	4	0
37	347	0	10000	4	1	0	4	0
36	348	0	10000	4	1	0	4	0
35	349	0	10000	4	1	0	4	0
33	350	0	10000	4	1	0	4	0
35	351	0	10000	4	1	0	4	0
35	352	0	10000	4	1	0	4	0
33	353	0	10000	4	1	0	4	0
33	354	0	10000	4	1	0	4	0
32	355	0	10000	4	1	0	4	0
32	356	0	10000	4	1	0	4	0
32	357	0	10000	4	1	0	4	0
31	358	0	10000	4	1	0	4	0
32	359	0	10000	4	1	0	4	0
32	360	0	10000	4	1	0	4	0
29	361	0	10000	4	1	0	4	0
28	362	0	10000	4	1	0	4	0
29	363	0	10000	4	1	0	4	0
29	364	0	10000	4	1	0	4	0
29	365	0	10000	4	1	0	4	0
29	366	0	10000	4	1	0	4	0
28	367	0	10000	4	1	0	4	0
27	368	0	10000	4	1	0	4	0
27	369	0	10000	4	1	0	4	0
27	370	0	10000	4	1	0	4	0
29	371	0	10000	4	1	0	4	0
28	372	0	10000	4	1	0	4	0
28	373	0	10000	4	1	0	4	0
27	374	0	10000	4	1	0	4	0
26	375	0	10000	4	1	0	4	0
27	376	0	10000	4	1	0	4	0
25	377	0	10000	4	1	0	4	0
26	378	0	10000	4	1	0	4	0
26	379	0	10000	4	1	0	4	0
27	380	0	10000	4	1	0	4	0
24	381	0	10000	4	1	0	4	0
24	382	0	10000	4	1	0	4	0
24	383	0	10000	4	1	0	4	0
26	384	0	10000	4	1	0	4	0
25	385	0	10000	4	1	0	4	0
26	386	0	10000	4	1	0	4	0
26	387	0	10000	4	1	0	4	0
26	388	0	10000	4	1	0	4	0
27	389	0	10000	4	1	0	4	0
27	390	0	10000	4	1	0	4	0
30	391	0	10000	4	1	0	4	0
30	392	0	10000	4	1	0	4	0
29	393	0	10000	4	1	0	4	0
29	394	0	10000	4	1	0	4	0
29	395	0	10000	4	1	0	4	0
28	396	0	10000	4	1	0	4	0
27	397	0	10000	4	1	0	4	0
28	398	0	10000	4	1	0	4	0
27	399	0	10000	4	1	0	4	0
27	400	0	10000	4	1	0	4	0
25	401	0	10000	4	1	0	4	0
25	402	0	10000	4	1	0	4	0
26	403	0	10000	4	1	0	4	0
25	404	0	10000	4	1	0	4	0
25	405	0	10000	4	1	0	4	0
26	406	0	10000	4	1	0	4	0
25	407	0	10000	4	1	0	4	0
25	408	0	10000	4	1	0	4	0
25	409	0	10000	4	1	0	4	0
23	410	0	10000	4	1	0	4	0
26	411	0	10000	4	1	0	4	0
26	412	0	10000	4	1	0	4	0
26	413	0	10000	4	1	0	4	0
25	414	0	10000	4	1	0	4	0
25	415	0	10000	4	1	0	4	0
24	416	0	10000	4	1	0	4	0
25	417	0	10000	4	1	0	4	0
24	418	0	10000	4	1	0	4	0
24	419	0	10000	4	1	0	4	0
25	420	0	10000	4	1	0	4	0
23	421	0	10000	4	1	0	4	0
23	422	0	10000	4	1	0	4	0
23	423	0	10000	4	1	0	4	0
24	424	0	10000	4	1	0	4	0
24	425	0	10000	4	1	0	4	0
23	426	0	10000	4	1	0	4	0
23	427	0	10000	4	1	0	4	0
23	428	0	10000	4	1	0	4	0
23	429	0	10000	4	1	0	4	0
25	430	0	10000	4	1	0	4	0
29	431	0	10000	4	1	0	4	0
29	432	0	10000	4	1	0	4	0
29	433	0	10000	4	1	0	4	0
31	434	0	10000	4	1	0	4	0
32	435	0	10000	4	1	0	4	0
33	436	0	10000	4	1	0	4	0
35	437	0	10000	4	1	0	4	0
37	438	0	10000	4	1	0	4	0
37	439	0	10000	4	1	0	4	0
37	440	0	10000	4	1	0	4	0
36	441	0	10000	4	1	0	4	0
37	442	0	10000	4	1	0	4	0
38	443	0	10000	4	1	0	4	0
39	444	0	10000	4	1	0	4	0
38	445	0	10000	4	1	0	4	0
37	446	0	10000	4	1	0	4	0
39	447	0	10000	4	1	0	4	0
36	448	0	10000	4	1	0	4	0
35	449	0	10000	4	1	0	4	0
34	450	0	10000	4	1	0	4	0
35	451	0	10000	4	1	0	4	0
35	452	0	10000	4	1	0	4	0
34	453	0	10000	4	1	0	4	0
34	454	0	10000	4	1	0	4	0
33	455	0	10000	4	1	0	4	0
34	456	0	10000	4	1	0	4	0
33	457	0	10000	4	1	0	4	0
35	458	0	10000	4	1	0	4	0
34	459	0	10000	4	1	0	4	0
35	460	0	10000	4	1	0	4	0
33	461	0	10000	4	1	0	4	0
32	462	0	10000	4	1	0	4	0
32	463	0	10000	4	1	0	4	0
31	464	0	10000	4	1	0	4	0
31	465	0	10000	4	1	0	4	0
31	466	0	10000	4	1	0	4	0
30	467	0	10000	4	1	0	4	0
29	468	0	10000	4	1	0	4	0
31	469	0	10000	4	1	0	4	0
31	470	0	10000	4	1	0	4	0
32	471	0	10000	4	1	0	4	0
32	472	0	10000	4	1	0	4	0
31	473	0	10000	4	1	0	4	0
30	474	0	10000	4	1	0	4	0
30	475	0	10000	4	1	0	4	0
29	476	0	10000	4	1	0	4	0
31	477	0	10000	4	1	0	4	0
31	478	0	10000	4	1	0	4	0
31	479	0	10000	4	1	0	4	0
31	480	0	10000	4	1	0	4	0
29	481	0	10000	4	1	0	4	0
30	482	0	10000	4	1	0	4	0
30	483	0	10000	4	1	0	4	0
30	484	0	10000	4	1	0	4	0
30	485	0	10000	4	1	0	4	0
30	486	0	10000	4	1	0	4	0
30	487	0	10000	4	1	0	4	0
30	488	0	10000	4	1	0	4	0
30	489	0	10000	4	1	0	4	0
31	490	0	10000	4	1	0	4	0
32	491	0	10000	4	1	0	4	0
32	492	0	10000	4	1	0	4	0
31	493	0	10000	4	1	0	4	0
31	494	0	10000	4	1	0	4	0
30	495	0	10000	4	1	0	4	0
30	496	0	10000	4	1	0	4	0
29	497	0	10000	4	1	0	4	0
29	498	0	10000	4	1	0	4	0
29	499	0	10000	4	1	0	4	0
29	500	0	10000	4	1	0	4	0
26	501	0	10000	4	1	0	4	0
27	501	0	10000	4	1	0	4	1
27	502	0	10000	4	1	0	4	1
28	504	0	10000	4	1	0	4	1
29	505	0	10000	4	1	0	4	1
29	506	0	10000	4	1	0	4	1
29	507	0	10000	4	1	0	4	1
28	508	0	10000	4	1	0	4	1
28	509	0	10000	4	1	0	4	1
26	510	0	10000	4	1	0	4	1
28	511	0	10000	4	1	0	4	1
28	512	0	10000	4	1	0	4	1
29	513	0	10000	4	1	0	4	1
28	514	0	10000	4	1	0	4	1
28	515	0	10000	4	1	0	4	1
29	516	0	10000	4	1	0	4	1
27	517	0	10000	4	1	0	4	1
28	518	0	10000	4	1	0	4	1
28	519	0	10000	4	1	0	4	1
28	520	0	10000	4	1	0	4	1
27	521	0	10000	4	1	0	4	1
28	522	0	10000	4	1	0	4	1
27	523	0	10000	4	1	0	4	1
29	524	0	10000	4	1	0	4	1
30	525	0	10000	4	1	0	4	1
31	526	0	10000	4	1	0	4	1
32	527	0	10000	4	1	0	4	1
30	528	0	10000	4	1	0	4	1
30	529	0	10000	4	1	0	4	1
30	530	0	10000	4	1	0	4	1
32	531	0	10000	4	1	0	4	1
32	532	0	10000	4	1	0	4	1
31	533	0	10000	4	1	0	4	1
31	534	0	10000	4	1	0	4	1
30	535	0	10000	4	1	0	4	1
30	536	0	10000	4	1	0	4	1
30	537	0	10000	4	1	0	4	1
30	538	0	10000	4	1	0	4	1
29	539	0	10000	4	1	0	4	1
30	540	0	10000	4	1	0	4	1
27	541	0	10000	4	1	0	4	1
28	542	0	10000	4	1	0	4	1
28	543	0	10000	4	1	0	4	1
28	544	0	10000	4	1	0	4	1
28	545	0	10000	4	1	0	4	1
28	546	0	10000	4	1	0	4	1
28	547	0	10000	4	1	0	4	1
28	548	0	10000	4	1	0	4	1
26	549	0	10000	4	1	0	4	1
26	550	0	10000	4	1	0	4	1
28	551	0	10000	4	1	0	4	1
28	552	0	10000	4	1	0	4	0
28	553	0	10000	4	1	0	4	0
31	554	0	10000	4	1	0	4	0
32	555	0	10000	4	1	0	4	0
33	556	0	10000	4	1	0	4	0
35	557	0	10000	4	1	0	4	0
35	558	0	10000	4	1	0	4	0
36	559	0	10000	4	1	0	4	0
35	560	0	10000	4	1	0	4	0
34	561	0	10000	4	1	0	4	0
35	562	0	10000	4	1	0	4	0
36	563	0	10000	4	1	0	4	0
38	564	0	10000	4	1	0	4	0
39	565	0	10000	4	1	0	4	0
40	566	0	10000	4	1	0	4	0
41	567	0	10000	4	1	0	4	0
39	568	0	10000	4	1	0	4	0
38	569	0	10000	4	1	0	4	0
36	570	0	10000	4	1	0	4	0
37	571	0	10000	4	1	0	4	0
37	572	0	10000	4	1	0	4	0
36	573	0	10000	4	1	0	4	0
35	574	0	10000	4	1	0	4	0
34	575	0	10000	4	1	0	4	0
33	576	0	10000	4	1	0	4	0
32	577	0	10000	4	1	0	4	0
34	578	0	10000	4	1	0	4	0
34	579	0	10000	4	1	0	4	0
34	580	0	10000	4	1	0	4	0
35	581	0	10000	4	1	0	4	0
37	582	0	10000	4	1	0	4	0
38	583	0	10000	4	1	0	4	0
41	584	0	10000	4	1	0	4	0
44	585	0	10000	4	1	0	4	0
45	586	0	10000	4	1	0	4	0
54	587	0	10000	4	1	0	4	0
57	588	0	10000	4	1	0	4	0
57	589	0	10000	4	1	0	4	0
56	590	0	10000	4	1	0	4	0
57	591	0	10000	4	1	0	4	0
59	592	0	10000	4	1	0	4	0
67	593	0	10000	4	1	0	4	0
67	594	0	10000	4	1	0	4	0
71	595	0	10000	4	1	0	4	0
70	596	0	10000	4	1	0	4	0
73	597	0	10000	4	1	0	4	0
77	598	0	10000	4	1	0	4	0
121	599	0	10000	4	1	0	4	0
144	600	0	10000	4	1	0	4	0
148	601	0	10000	4	1	0	4	0
157	602	0	10000	4	1	0	4	0
162	603	0	10000	4	1	0	4	0
163	604	0	10000	4	1	0	4	0
158	605	0	10000	4	1	0	4	0
157	606	0	10000	4	1	0	4	0
162	607	0	10000	4	1	0	4	0
161	608	0	10000	4	1	0	4	0
154	609	0	10000	4	1	0	4	0
150	610	0	10000	4	1	0	4	0
148	611	0	10000	4	1	0	4	0
143	612	0	10000	4	1	0	4	0
139	613	0	10000	4	1	0	4	0
138	614	0	10000	4	1	0	4	0
138	615	0	10000	4	1	0	4	0
135	616	0	10000	4	1	0	4	0
135	617	0	10000	4	1	0	4	0
133	618	0	10000	4	1	0	4	0
133	619	0	10000	4	1	0	4	0
133	620	0	10000	4	1	0	4	0
132	621	0	10000	4	1	0	4	0
132	622	0	10000	4	1	0	4	0
132	623	0	10000	4	1	0	4	0
130	624	0	10000	4	1	0	4	0
127	625	0	10000	4	1	0	4	0
124	626	0	10000	4	1	0	4	0
122	627	0	10000	4	1	0	4	0
117	628	0	10000	4	1	0	4	0
114	629	0	10000	4	1	0	4	0
109	630	0	10000	4	1	0	4	0
107	631	0	10000	4	1	0	4	0
103	632	0	10000	4	1	0	4	0
100	633	0	10000	4	1	0	4	0
95	634	0	10000	4	1	0	4	0
92	635	0	10000	4	1	0	4	0
89	636	0	10000	4	1	0	4	0
87	637	0	10000	4	1	0	4	0
86	638	0	10000	4	1	0	4	0
85	639	0	10000	4	1	0	4	0
84	640	0	10000	4	1	0	4	0
80	641	0	10000	4	1	0	4	0
78	642	0	10000	4	1	0	4	0
77	643	0	10000	4	1	0	4	0
77	644	0	10000	4	1	0	4	0
76	645	0	10000	4	1	0	4	0
76	646	0	10000	4	1	0	4	0
78	647	0	10000	4	1	0	4	0
77	648	0	10000	4	1	0	4	0
79	649	0	10000	4	1	0	4	0
77	650	0	10000	4	1	0	4	0
78	651	0	10000	4	1	0	4	0
77	652	0	10000	4	1	0	4	0
73	653	0	10000	4	1	0	4	0
70	654	0	10000	4	1	0	4	0
69	655	0	10000	4	1	0	4	0
67	656	0	10000	4	1	0	4	0
65	657	0	10000	4	1	0	4	0
66	658	0	10000	4	1	0	4	0
68	659	0	10000	4	1	0	4	0
70	660	0	10000	4	1	0	4	0
68	661	0	10000	4	1	0	4	0
68	662	0	10000	4	1	0	4	0
67	663	0	10000	4	1	0	4	0
66	664	0	10000	4	1	0	4	0
65	665	0	10000	4	1	0	4	0
64	666	0	10000	4	1	0	4	0
62	667	0	10000	4	1	0	4	0
60	668	0	10000	4	1	0	4	0
58	669	0	10000	4	1	0	4	0
56	670	0	10000	4	1	0	4	0
57	671	0	10000	4	1	0	4	0
55	672	0	10000	4	1	0	4	0
53	673	0	10000	4	1	0	4	0
51	674	0	10000	4	1	0	4	0
50	675	0	10000	4	1	0	4	0
49	676	0	10000	4	1	0	4	0
47	677	0	10000	4	1	0	4	0
47	678	0	10000	4	1	0	4	0
47	679	0	10000	4	1	0	4	0
46	680	0	10000	4	1	0	4	0
43	681	0	10000	4	1	0	4	0
44	682	0	10000	4	1	0	4	0
43	683	0	10000	4	1	0	4	0
42	684	0	10000	4	1	0	4	0
42	685	0	10000	4	1	0	4	0
41	686	0	10000	4	1	0	4	0
40	687	0	10000	4	1	0	4	0
38	688	0	10000	4	1	0	4	0
38	689	0	10000	4	1	0	4	0
37	690	0	10000	4	1	0	4	0
37	691	0	10000	4	1	0	4	0
37	692	0	10000	4	1	0	4	0
35	693	0	10000	4	1	0	4	0
34	694	0	10000	4	1	0	4	0
34	695	0	10000	4	1	0	4	0
33	696	0	10000	4	1	0	4	0
32	697	0	10000	4	1	0	4	0
33	698	0	10000	4	1	0	4	0
33	699	0	10000	4	1	0	4	0
32	700	0	10000	4	1	0	4	0
31	701	0	10000	4	1	0	4	0
31	702	0	10000	4	1	0	4	0
34	703	0	10000	4	1	0	4	0
37	704	0	10000	4	1	0	4	0
38	705	0	10000	4	1	0	4	0
38	706	0	10000	4	1	0	4	0
40	707	0	10000	4	1	0	4	0
40	708	0	10000	4	1	0	4	0
39	709	0	10000	4	1	0	4	0
40	710	0	10000	4	1	0	4	0
42	711	0	10000	4	1	0	4	0
41	712	0	10000	4	1	0	4	0
41	713	0	10000	4	1	0	4	0
40	714	0	10000	4	1	0	4	0
39	715	0	10000	4	1	0	4	0
38	716	0	10000	4	1	0	4	0
37	717	0	10000	4	1	0	4	0
37	718	0	10000	4	1	0	4	0
36	719	0	10000	4	1	0	4	0
36	720	0	10000	4	1	0	4	0
35	721	0	10000	4	1	0	4	0
36	722	0	10000	4	1	0	4	0
37	723	0	10000	4	1	0	4	0
37	724	0	10000	4	1	0	4	0
37	725	0	10000	4	1	0	4	0
37	726	0	10000	4	1	0	4	0
37	727	0	10000	4	1	0	4	0
38	728	0	10000	4	1	0	4	0
39	729	0	10000	4	1	0	4	0
39	730	0	10000	4	1	0	4	0
43	731	0	10000	4	1	0	4	0
43	732	0	10000	4	1	0	4	0
43	733	0	10000	4	1	0	4	0
42	734	0	10000	4	1	0	4	0
40	735	0	10000	4	1	0	4	0
40	736	0	10000	4	1	0	4	0
39	737	0	10000	4	1	0	4	0
38	738	0	10000	4	1	0	4	0
38	739	0	10000	4	1	0	4	0
39	740	0	10000	4	1	0	4	0
36	741	0	10000	4	1	0	4	0
37	742	0	10000	4	1	0	4	0
36	743	0	10000	4	1	0	4	0
35	744	0	10000	4	1	0	4	0
35	745	0	10000	4	1	0	4	0
34	746	0	10000	4	1	0	4	0
35	747	0	10000	4	1	0	4	0
34	748	0	10000	4	1	0	4	0
33	749	0	10000	4	1	0	4	0
33	750	0	10000	4	1	0	4	0
34	751	0	10000	4	1	0	4	0
34	752	0	10000	4	1	0	4	0
33	753	0	10000	4	1	0	4	0
32	754	0	10000	4	1	0	4	0
32	755	0	10000	4	1	0	4	0
31	756	0	10000	4	1	0	4	0
31	757	0	10000	4	1	0	4	0
33	758	0	10000	4	1	0	4	0
34	759	0	10000	4	1	0	4	0
35	760	0	10000	4	1	0	4	0
37	761	0	10000	4	1	0	4	0
37	762	0	10000	4	1	0	4	0
36	763	0	10000	4	1	0	4	0
37	764	0	10000	4	1	0	4	0
36	765	0	10000	4	1	0	4	0
36	766	0	10000	4	1	0	4	0
37	767	0	10000	4	1	0	4	0
37	768	0	10000	4	1	0	4	0
39	769	0	10000	4	1	0	4	0
42	770	0	10000	4	1	0	4	0
47	771	0	10000	4	1	0	4	0
50	772	0	10000	4	1	0	4	0
51	773	0	10000	4	1	0	4	0
53	774	0	10000	4	1	0	4	0
54	775	0	10000	4	1	0	4	0
51	776	0	10000	4	1	0	4	0
51	777	0	10000	4	1	0	4	0
53	778	0	10000	4	1	0	4	0
53	779	0	10000	4	1	0	4	0
55	780	0	10000	4	1	0	4	0
52	781	0	10000	4	1	0	4	0
51	782	0	10000	4	1	0	4	0
51	783	0	10000	4	1	0	4	0
50	784	0	10000	4	1	0	4	0
51	785	0	10000	4	1	0	4	0
50	786	0	10000	4	1	0	4	0
50	787	0	10000	4	1	0	4	0
48	788	0	10000	4	1	0	4	0
48	789	0	10000	4	1	0	4	0
46	790	0	10000	4	1	0	4	0
48	791	0	10000	4	1	0	4	0
46	792	0	10000	4	1	0	4	0
44	793	0	10000	4	1	0	4	0
43	794	0	10000	4	1	0	4	0
42	795	0	10000	4	1	0	4	0
41	796	0	10000	4	1	0	4	0
41	797	0	10000	4	1	0	4	0
41	798	0	10000	4	1	0	4	0
42	799	0	10000	4	1	0	4	0
44	800	0	10000	4	1	0	4	0
43	801	0	10000	4	1	0	4	0
43	802	0	10000	4	1	0	4	0
41	803	0	10000	4	1	0	4	0
43	804	0	10000	4	1	0	4	0
43	805	0	10000	4	1	0	4	0
44	806	0	10000	4	1	0	4	0
47	807	0	10000	4	1	0	4	0
48	808	0	10000	4	1	0	4	0
48	809	0	10000	4	1	0	4	0
47	810	0	10000	4	1	0	4	0
47	811	0	10000	4	1	0	4	0
47	812	0	10000	4	1	0	4	0
47	813	0	10000	4	1	0	4	0
45	814	0	10000	4	1	0	4	0
44	815	0	10000	4	1	0	4	0
44	816	0	10000	4	1	0	4	0
44	817	0	10000	4	1	0	4	0
44	818	0	10000	4	1	0	4	0
45	819	0	10000	4	1	0	4	0
45	820	0	10000	4	1	0	4	0
44	821	0	10000	4	1	0	4	0
44	822	0	10000	4	1	0	4	0
43	823	0	10000	4	1	0	4	0
45	824	0	10000	4	1	0	4	0
46	825	0	10000	4	1	0	4	0
45	826	0	10000	4	1	0	4	0
49	827	0	10000	4	1	0	4	0
49	828	0	10000	4	1	0	4	0
49	829	0	10000	4	1	0	4	0
48	830	0	10000	4	1	0	4	0
48	831	0	10000	4	1	0	4	0
48	832	0	10000	4	1	0	4	0
46	833	0	10000	4	1	0	4	0
44	834	0	10000	4	1	0	4	0
44	835	0	10000	4	1	0	4	0
43	836	0	10000	4	1	0	4	0
43	837	0	10000	4	1	0	4	0
43	838	0	10000	4	1	0	4	0
43	839	0	10000	4	1	0	4	0
42	840	0	10000	4	1	0	4	0
40	841	0	10000	4	1	0	4	0
41	842	0	10000	4	1	0	4	0
41	843	0	10000	4	1	0	4	0
42	844	0	10000	4	1	0	4	0
44	845	0	10000	4	1	0	4	0
44	846	0	10000	4	1	0	4	0
45	847	0	10000	4	1	0	4	0
45	848	0	10000	4	1	0	4	0
44	849	0	10000	4	1	0	4	0
43	850	0	10000	4	1	0	4	0
44	851	0	10000	4	1	0	4	0
42	852	0	10000	4	1	0	4	0
41	853	0	10000	4	1	0	4	0
41	854	0	10000	4	1	0	4	0
40	855	0	10000	4	1	0	4	0
40	856	0	10000	4	1	0	4	0
38	857	0	10000	4	1	0	4	0
39	858	0	10000	4	1	0	4	0
38	859	0	10000	4	1	0	4	0
38	860	0	10000	4	1	0	4	0
36	861	0	10000	4	1	0	4	0
36	862	0	10000	4	1	0	4	0
36	863	0	10000	4	1	0	4	0
35	864	0	10000	4	1	0	4	0
34	865	0	10000	4	1	0	4	0
34	866	0	10000	4	1	0	4	0
33	867	0	10000	4	1	0	4	0
32	868	0	10000	4	1	0	4	0
32	869	0	10000	4	1	0	4	0
31	870	0	10000	4	1	0	4	0
32	871	0	10000	4	1	0	4	0
32	872	0	10000	4	1	0	4	0
32	873	0	10000	4	1	0	4	0
30	874	0	10000	4	1	0	4	0
30	875	0	10000	4	1	0	4	0
30	876	0	10000	4	1	0	4	0
30	877	0	10000	4	1	0	4	0
33	878	0	10000	4	1	0	4	0
35	879	0	10000	4	1	0	4	0
36	880	0	10000	4	1	0	4	0
34	881	0	10000	4	1	0	4	0
35	882	0	10000	4	1	0	4	0
39	883	0	10000	4	1	0	4	0
42	884	0	10000	4	1	0	4	0
42	885	0	10000	4	1	0	4	0
42	886	0	10000	4	1	0	4	0
42	887	0	10000	4	1	0	4	0
40	888	0	10000	4	1	0	4	0
39	889	0	10000	4	1	0	4	0
40	890	0	10000	4	1	0	4	0
42	891	0	10000	4	1	0	4	0
41	892	0	10000	4	1	0	4	0
39	893	0	10000	4	1	0	4	0
37	894	0	10000	4	1	0	4	0
40	895	0	10000	4	1	0	4	0
39	896	0	10000	4	1	0	4	0
39	897	0	10000	4	1	0	4	0
39	898	0	10000	4	1	0	4	0
39	899	0	10000	4	1	0	4	0
38	900	0	10000	4	1	0	4	0
35	901	0	10000	4	1	0	4	0
35	902	0	10000	4	1	0	4	0
36	903	0	10000	4	1	0	4	0
35	904	0	10000	4	1	0	4	0
35	905	0	10000	4	1	0	4	0
35	906	0	10000	4	1	0	4	0
34	907	0	10000	4	1	0	4	0
33	908	0	10000	4	1	0	4	0
32	909	0	10000	4	1	0	4	0
32	910	0	10000	4	1	0	4	0
34	911	0	10000	4	1	0	4	0
35	912	0	10000	4	1	0	4	0
36	913	0	10000	4	1	0	4	0
36	914	0	10000	4	1	0	4	0
34	915	0	10000	4	1	0	4	0
35	916	0	10000	4	1	0	4	0
35	917	0	10000	4	1	0	4	0
35	918	0	10000	4	1	0	4	0
35	919	0	10000	4	1	0	4	0
35	920	0	10000	4	1	0	4	0
32	921	0	10000	4	1	0	4	0
32	922	0	10000	4	1	0	4	0
33	923	0	10000	4	1	0	4	0
34	924	0	10000	4	1	0	4	0
36	925	0	10000	4	1	0	4	0
34	926	0	10000	4	1	0	4	0
34	927	0	10000	4	1	0	4	0
33	928	0	10000	4	1	0	4	0
32	929	0	10000	4	1	0	4	0
32	930	0	10000	4	1	0	4	0
34	931	0	10000	4	1	0	4	0
33	932	0	10000	4	1	0	4	0
33	933	0	10000	4	1	0	4	0
32	934	0	10000	4	1	0	4	0
32	935	0	10000	4	1	0	4	0
33	936	0	10000	4	1	0	4	0
32	937	0	10000	4	1	0	4	0
32	938	0	10000	4	1	0	4	0
31	939	0	10000	4	1	0	4	0
32	940	0	10000	4	1	0	4	0
30	941	0	10000	4	1	0	4	0
30	942	0	10000	4	1	0	4	0
30	943	0	10000	4	1	0	4	0
30	944	0	10000	4	1	0	4	0
29	945	0	10000	4	1	0	4	0
29	946	0	10000	4	1	0	4	0
29	947	0	10000	4	1	0	4	0
29	948	0	10000	4	1	0	4	0
27	949	0	10000	4	1	0	4	0
28	950	0	10000	4	1	0	4	0
30	951	0	10000	4	1	0	4	0
29	952	0	10000	4	1	0	4	0
29	953	0	10000	4	1	0	4	0
28	954	0	10000	4	1	0	4	0
29	955	0	10000	4	1	0	4	0
28	956	0	10000	4	1	0	4	0
26	957	0	10000	4	1	0	4	0
27	958	0	10000	4	1	0	4	0
27	959	0	10000	4	1	0	4	0
28	960	0	10000	4	1	0	4	0
25	961	0	10000	4	1	0	4	0
26	962	0	10000	4	1	0	4	0
28	963	0	10000	4	1	0	4	0
28	964	0	10000	4	1	0	4	0
29	965	0	10000	4	1	0	4	0
32	966	0	10000	4	1	0	4	0
31	967	0	10000	4	1	0	4	0
31	968	0	10000	4	1	0	4	0
32	969	0	10000	4	1	0	4	0
33	970	0	10000	4	1	0	4	0
37	971	0	10000	4	1	0	4	0
37	972	0	10000	4	1	0	4	0
39	973	0	10000	4	1	0	4	0
40	974	0	10000	4	1	0	4	0
39	975	0	10000	4	1	0	4	0
40	976	0	10000	4	1	0	4	0
39	977	0	10000	4	1	0	4	0
40	978	0	10000	4	1	0	4	0
42	979	0	10000	4	1	0	4	0
45	980	0	10000	4	1	0	4	0
44	981	0	10000	4	1	0	4	0
43	982	0	10000	4	1	0	4	0
45	983	0	10000	4	1	0	4	0
45	984	0	10000	4	1	0	4	0
45	985	0	10000	4	1	0	4	0
44	986	0	10000	4	1	0	4	0
43	987	0	10000	4	1	0	4	0
41	988	0	10000	4	1	0	4	0
40	989	0	10000	4	1	0	4	0
39	990	0	10000	4	1	0	4	0
41	991	0	10000	4	1	0	4	0
41	992	0	10000	4	1	0	4	0
42	993	0	10000	4	1	0	4	0
40	994	0	10000	4	1	0	4	0
39	995	0	10000	4	1	0	4	0
39	996	0	10000	4	1	0	4	0
37	997	0	10000	4	1	0	4	0
37	998	0	10000	4	1	0	4	0
37	999	0	10000	4	1	0	4	0
36	1000	0	10000	4	1	0	4	0
33	1001	0	10000	4	1	0	4	0
37	1	0	10000	5	1	0	5	0
38	2	0	10000	5	1	0	5	0
39	3	0	10000	5	1	0	5	0
40	4	0	10000	5	1	0	5	0
44	5	0	10000	5	1	0	5	0
47	6	0	10000	5	1	0	5	0
51	7	0	10000	5	1	0	5	0
59	8	0	10000	5	1	0	5	0
64	9	0	10000	5	1	0	5	0
69	10	0	10000	5	1	0	5	0
75	11	0	10000	5	1	0	5	0
80	12	0	10000	5	1	0	5	0
80	13	0	10000	5	1	0	5	0
80	14	0	10000	5	1	0	5	0
78	15	0	10000	5	1	0	5	0
76	16	0	10000	5	1	0	5	0
77	17	0	10000	5	1	0	5	0
79	18	0	10000	5	1	0	5	0
84	19	0	10000	5	1	0	5	0
86	20	0	10000	5	1	0	5	0
88	21	0	10000	5	1	0	5	0
86	22	0	10000	5	1	0	5	0
85	23	0	10000	5	1	0	5	0
87	24	0	10000	5	1	0	5	0
86	25	0	10000	5	1	0	5	0
86	26	0	10000	5	1	0	5	0
86	27	0	10000	5	1	0	5	0
84	28	0	10000	5	1	0	5	0
80	29	0	10000	5	1	0	5	0
78	30	0	10000	5	1	0	5	0
79	31	0	10000	5	1	0	5	0
78	32	0	10000	5	1	0	5	0
78	33	0	10000	5	1	0	5	0
78	34	0	10000	5	1	0	5	0
80	35	0	10000	5	1	0	5	0
80	36	0	10000	5	1	0	5	0
76	37	0	10000	5	1	0	5	0
73	38	0	10000	5	1	0	5	0
72	39	0	10000	5	1	0	5	0
72	40	0	10000	5	1	0	5	0
71	41	0	10000	5	1	0	5	0
69	42	0	10000	5	1	0	5	0
69	43	0	10000	5	1	0	5	0
68	44	0	10000	5	1	0	5	0
67	45	0	10000	5	1	0	5	0
70	46	0	10000	5	1	0	5	0
73	47	0	10000	5	1	0	5	0
77	48	0	10000	5	1	0	5	0
80	49	0	10000	5	1	0	5	0
83	50	0	10000	5	1	0	5	0
85	51	0	10000	5	1	0	5	0
88	52	0	10000	5	1	0	5	0
89	53	0	10000	5	1	0	5	0
89	54	0	10000	5	1	0	5	0
91	55	0	10000	5	1	0	5	0
90	56	0	10000	5	1	0	5	0
91	57	0	10000	5	1	0	5	0
93	58	0	10000	5	1	0	5	0
98	59	0	10000	5	1	0	5	0
102	60	0	10000	5	1	0	5	0
103	61	0	10000	5	1	0	5	0
105	62	0	10000	5	1	0	5	0
104	63	0	10000	5	1	0	5	0
102	64	0	10000	5	1	0	5	0
103	65	0	10000	5	1	0	5	0
104	66	0	10000	5	1	0	5	0
105	67	0	10000	5	1	0	5	0
106	68	0	10000	5	1	0	5	0
104	69	0	10000	5	1	0	5	0
104	70	0	10000	5	1	0	5	0
104	71	0	10000	5	1	0	5	0
102	72	0	10000	5	1	0	5	0
101	73	0	10000	5	1	0	5	0
102	74	0	10000	5	1	0	5	0
102	75	0	10000	5	1	0	5	0
103	76	0	10000	5	1	0	5	0
103	77	0	10000	5	1	0	5	0
102	78	0	10000	5	1	0	5	0
103	79	0	10000	5	1	0	5	0
102	80	0	10000	5	1	0	5	0
98	81	0	10000	5	1	0	5	0
97	82	0	10000	5	1	0	5	0
94	83	0	10000	5	1	0	5	0
91	84	0	10000	5	1	0	5	0
89	85	0	10000	5	1	0	5	0
88	86	0	10000	5	1	0	5	0
85	87	0	10000	5	1	0	5	0
84	88	0	10000	5	1	0	5	0
79	89	0	10000	5	1	0	5	0
76	90	0	10000	5	1	0	5	0
74	91	0	10000	5	1	0	5	0
72	92	0	10000	5	1	0	5	0
71	93	0	10000	5	1	0	5	0
70	94	0	10000	5	1	0	5	0
67	95	0	10000	5	1	0	5	0
66	96	0	10000	5	1	0	5	0
63	97	0	10000	5	1	0	5	0
61	98	0	10000	5	1	0	5	0
60	99	0	10000	5	1	0	5	0
59	100	0	10000	5	1	0	5	0
58	101	0	10000	5	1	0	5	0
55	102	0	10000	5	1	0	5	0
54	103	0	10000	5	1	0	5	0
52	104	0	10000	5	1	0	5	0
52	105	0	10000	5	1	0	5	0
54	106	0	10000	5	1	0	5	0
56	107	0	10000	5	1	0	5	0
55	108	0	10000	5	1	0	5	0
53	109	0	10000	5	1	0	5	0
51	110	0	10000	5	1	0	5	0
52	111	0	10000	5	1	0	5	0
53	112	0	10000	5	1	0	5	0
51	113	0	10000	5	1	0	5	0
50	114	0	10000	5	1	0	5	0
49	115	0	10000	5	1	0	5	0
47	116	0	10000	5	1	0	5	0
46	117	0	10000	5	1	0	5	0
44	118	0	10000	5	1	0	5	0
44	119	0	10000	5	1	0	5	0
44	120	0	10000	5	1	0	5	0
43	121	0	10000	5	1	0	5	0
41	122	0	10000	5	1	0	5	0
41	123	0	10000	5	1	0	5	0
40	124	0	10000	5	1	0	5	0
39	125	0	10000	5	1	0	5	0
39	126	0	10000	5	1	0	5	0
39	127	0	10000	5	1	0	5	0
38	128	0	10000	5	1	0	5	0
36	129	0	10000	5	1	0	5	0
35	130	0	10000	5	1	0	5	0
34	131	0	10000	5	1	0	5	0
36	132	0	10000	5	1	0	5	0
37	133	0	10000	5	1	0	5	0
39	134	0	10000	5	1	0	5	0
39	135	0	10000	5	1	0	5	0
37	136	0	10000	5	1	0	5	0
36	137	0	10000	5	1	0	5	0
35	138	0	10000	5	1	0	5	0
36	139	0	10000	5	1	0	5	0
36	140	0	10000	5	1	0	5	0
35	141	0	10000	5	1	0	5	0
34	142	0	10000	5	1	0	5	0
33	143	0	10000	5	1	0	5	0
32	144	0	10000	5	1	0	5	0
32	145	0	10000	5	1	0	5	0
32	146	0	10000	5	1	0	5	0
32	147	0	10000	5	1	0	5	0
32	148	0	10000	5	1	0	5	0
30	149	0	10000	5	1	0	5	0
29	150	0	10000	5	1	0	5	0
29	151	0	10000	5	1	0	5	0
28	152	0	10000	5	1	0	5	0
30	153	0	10000	5	1	0	5	0
30	154	0	10000	5	1	0	5	0
30	155	0	10000	5	1	0	5	0
32	156	0	10000	5	1	0	5	0
32	157	0	10000	5	1	0	5	0
31	158	0	10000	5	1	0	5	0
32	159	0	10000	5	1	0	5	0
32	160	0	10000	5	1	0	5	0
31	161	0	10000	5	1	0	5	0
32	162	0	10000	5	1	0	5	0
32	163	0	10000	5	1	0	5	0
32	164	0	10000	5	1	0	5	0
30	165	0	10000	5	1	0	5	0
30	166	0	10000	5	1	0	5	0
30	167	0	10000	5	1	0	5	0
31	168	0	10000	5	1	0	5	0
29	169	0	10000	5	1	0	5	0
30	170	0	10000	5	1	0	5	0
29	171	0	10000	5	1	0	5	0
29	172	0	10000	5	1	0	5	0
29	173	0	10000	5	1	0	5	0
30	174	0	10000	5	1	0	5	0
30	175	0	10000	5	1	0	5	0
29	176	0	10000	5	1	0	5	0
28	177	0	10000	5	1	0	5	0
27	178	0	10000	5	1	0	5	0
29	179	0	10000	5	1	0	5	0
29	180	0	10000	5	1	0	5	0
28	181	0	10000	5	1	0	5	0
28	182	0	10000	5	1	0	5	0
28	183	0	10000	5	1	0	5	0
27	184	0	10000	5	1	0	5	0
27	185	0	10000	5	1	0	5	0
29	186	0	10000	5	1	0	5	0
29	187	0	10000	5	1	0	5	0
29	188	0	10000	5	1	0	5	0
28	189	0	10000	5	1	0	5	0
27	190	0	10000	5	1	0	5	0
27	191	0	10000	5	1	0	5	0
27	192	0	10000	5	1	0	5	0
27	193	0	10000	5	1	0	5	0
28	194	0	10000	5	1	0	5	0
27	195	0	10000	5	1	0	5	0
27	196	0	10000	5	1	0	5	0
26	197	0	10000	5	1	0	5	0
25	198	0	10000	5	1	0	5	0
26	199	0	10000	5	1	0	5	0
27	200	0	10000	5	1	0	5	0
26	201	0	10000	5	1	0	5	0
26	202	0	10000	5	1	0	5	0
26	203	0	10000	5	1	0	5	0
27	204	0	10000	5	1	0	5	0
30	205	0	10000	5	1	0	5	0
28	206	0	10000	5	1	0	5	0
29	207	0	10000	5	1	0	5	0
29	208	0	10000	5	1	0	5	0
28	209	0	10000	5	1	0	5	0
26	210	0	10000	5	1	0	5	0
28	211	0	10000	5	1	0	5	0
28	212	0	10000	5	1	0	5	0
29	213	0	10000	5	1	0	5	0
30	214	0	10000	5	1	0	5	0
30	215	0	10000	5	1	0	5	0
30	216	0	10000	5	1	0	5	0
29	217	0	10000	5	1	0	5	0
28	218	0	10000	5	1	0	5	0
29	219	0	10000	5	1	0	5	0
29	220	0	10000	5	1	0	5	0
31	221	0	10000	5	1	0	5	0
30	222	0	10000	5	1	0	5	0
31	223	0	10000	5	1	0	5	0
30	224	0	10000	5	1	0	5	0
30	225	0	10000	5	1	0	5	0
29	226	0	10000	5	1	0	5	0
30	227	0	10000	5	1	0	5	0
29	228	0	10000	5	1	0	5	0
27	229	0	10000	5	1	0	5	0
26	230	0	10000	5	1	0	5	0
27	231	0	10000	5	1	0	5	0
28	232	0	10000	5	1	0	5	0
28	233	0	10000	5	1	0	5	0
28	234	0	10000	5	1	0	5	0
28	235	0	10000	5	1	0	5	0
27	236	0	10000	5	1	0	5	0
26	237	0	10000	5	1	0	5	0
27	238	0	10000	5	1	0	5	0
27	239	0	10000	5	1	0	5	0
28	240	0	10000	5	1	0	5	0
27	241	0	10000	5	1	0	5	0
27	242	0	10000	5	1	0	5	0
27	243	0	10000	5	1	0	5	0
27	244	0	10000	5	1	0	5	0
26	245	0	10000	5	1	0	5	0
27	246	0	10000	5	1	0	5	0
28	247	0	10000	5	1	0	5	0
28	248	0	10000	5	1	0	5	0
28	249	0	10000	5	1	0	5	0
27	250	0	10000	5	1	0	5	0
26	251	0	10000	5	1	0	5	0
28	252	0	10000	5	1	0	5	0
30	253	0	10000	5	1	0	5	0
31	254	0	10000	5	1	0	5	0
34	255	0	10000	5	1	0	5	0
35	256	0	10000	5	1	0	5	0
35	257	0	10000	5	1	0	5	0
33	258	0	10000	5	1	0	5	0
35	259	0	10000	5	1	0	5	0
34	260	0	10000	5	1	0	5	0
35	261	0	10000	5	1	0	5	0
37	262	0	10000	5	1	0	5	0
39	263	0	10000	5	1	0	5	0
43	264	0	10000	5	1	0	5	0
45	265	0	10000	5	1	0	5	0
45	266	0	10000	5	1	0	5	0
45	267	0	10000	5	1	0	5	0
46	268	0	10000	5	1	0	5	0
45	269	0	10000	5	1	0	5	0
46	270	0	10000	5	1	0	5	0
48	271	0	10000	5	1	0	5	0
49	272	0	10000	5	1	0	5	0
53	273	0	10000	5	1	0	5	0
55	274	0	10000	5	1	0	5	0
54	275	0	10000	5	1	0	5	0
53	276	0	10000	5	1	0	5	0
51	277	0	10000	5	1	0	5	0
50	278	0	10000	5	1	0	5	0
50	279	0	10000	5	1	0	5	0
50	280	0	10000	5	1	0	5	0
49	281	0	10000	5	1	0	5	0
47	282	0	10000	5	1	0	5	0
47	283	0	10000	5	1	0	5	0
45	284	0	10000	5	1	0	5	0
44	285	0	10000	5	1	0	5	0
43	286	0	10000	5	1	0	5	0
43	287	0	10000	5	1	0	5	0
43	288	0	10000	5	1	0	5	0
41	289	0	10000	5	1	0	5	0
42	290	0	10000	5	1	0	5	0
43	291	0	10000	5	1	0	5	0
42	292	0	10000	5	1	0	5	0
44	293	0	10000	5	1	0	5	0
44	294	0	10000	5	1	0	5	0
44	295	0	10000	5	1	0	5	0
44	296	0	10000	5	1	0	5	0
45	297	0	10000	5	1	0	5	0
45	298	0	10000	5	1	0	5	0
46	299	0	10000	5	1	0	5	0
46	300	0	10000	5	1	0	5	0
44	301	0	10000	5	1	0	5	0
44	302	0	10000	5	1	0	5	0
42	303	0	10000	5	1	0	5	0
41	304	0	10000	5	1	0	5	0
41	305	0	10000	5	1	0	5	0
41	306	0	10000	5	1	0	5	0
40	307	0	10000	5	1	0	5	0
42	308	0	10000	5	1	0	5	0
40	309	0	10000	5	1	0	5	0
38	310	0	10000	5	1	0	5	0
40	311	0	10000	5	1	0	5	0
42	312	0	10000	5	1	0	5	0
42	313	0	10000	5	1	0	5	0
42	314	0	10000	5	1	0	5	0
41	315	0	10000	5	1	0	5	0
40	316	0	10000	5	1	0	5	0
41	317	0	10000	5	1	0	5	0
39	318	0	10000	5	1	0	5	0
40	319	0	10000	5	1	0	5	0
39	320	0	10000	5	1	0	5	0
38	321	0	10000	5	1	0	5	0
37	322	0	10000	5	1	0	5	0
36	323	0	10000	5	1	0	5	0
35	324	0	10000	5	1	0	5	0
34	325	0	10000	5	1	0	5	0
34	326	0	10000	5	1	0	5	0
34	327	0	10000	5	1	0	5	0
35	328	0	10000	5	1	0	5	0
32	329	0	10000	5	1	0	5	0
31	330	0	10000	5	1	0	5	0
31	331	0	10000	5	1	0	5	0
31	332	0	10000	5	1	0	5	0
30	333	0	10000	5	1	0	5	0
31	334	0	10000	5	1	0	5	0
30	335	0	10000	5	1	0	5	0
30	336	0	10000	5	1	0	5	0
29	337	0	10000	5	1	0	5	0
28	338	0	10000	5	1	0	5	0
31	339	0	10000	5	1	0	5	0
30	340	0	10000	5	1	0	5	0
30	341	0	10000	5	1	0	5	0
29	342	0	10000	5	1	0	5	0
28	343	0	10000	5	1	0	5	0
28	344	0	10000	5	1	0	5	0
28	345	0	10000	5	1	0	5	0
28	346	0	10000	5	1	0	5	0
29	347	0	10000	5	1	0	5	0
30	348	0	10000	5	1	0	5	0
28	349	0	10000	5	1	0	5	0
28	350	0	10000	5	1	0	5	0
27	351	0	10000	5	1	0	5	0
27	352	0	10000	5	1	0	5	0
30	353	0	10000	5	1	0	5	0
31	354	0	10000	5	1	0	5	0
32	355	0	10000	5	1	0	5	0
31	356	0	10000	5	1	0	5	0
31	357	0	10000	5	1	0	5	0
33	358	0	10000	5	1	0	5	0
34	359	0	10000	5	1	0	5	0
34	360	0	10000	5	1	0	5	0
34	361	0	10000	5	1	0	5	0
32	362	0	10000	5	1	0	5	0
32	363	0	10000	5	1	0	5	0
32	364	0	10000	5	1	0	5	0
31	365	0	10000	5	1	0	5	0
30	366	0	10000	5	1	0	5	0
31	367	0	10000	5	1	0	5	0
31	368	0	10000	5	1	0	5	0
30	369	0	10000	5	1	0	5	0
30	370	0	10000	5	1	0	5	0
32	371	0	10000	5	1	0	5	0
32	372	0	10000	5	1	0	5	0
32	373	0	10000	5	1	0	5	0
31	374	0	10000	5	1	0	5	0
32	375	0	10000	5	1	0	5	0
31	376	0	10000	5	1	0	5	0
31	377	0	10000	5	1	0	5	0
30	378	0	10000	5	1	0	5	0
31	379	0	10000	5	1	0	5	0
32	380	0	10000	5	1	0	5	0
32	381	0	10000	5	1	0	5	0
32	382	0	10000	5	1	0	5	0
31	383	0	10000	5	1	0	5	0
31	384	0	10000	5	1	0	5	0
32	385	0	10000	5	1	0	5	0
32	386	0	10000	5	1	0	5	0
33	387	0	10000	5	1	0	5	0
36	388	0	10000	5	1	0	5	0
33	389	0	10000	5	1	0	5	0
32	390	0	10000	5	1	0	5	0
33	391	0	10000	5	1	0	5	0
32	392	0	10000	5	1	0	5	0
32	393	0	10000	5	1	0	5	0
32	394	0	10000	5	1	0	5	0
31	395	0	10000	5	1	0	5	0
30	396	0	10000	5	1	0	5	0
30	397	0	10000	5	1	0	5	0
29	398	0	10000	5	1	0	5	0
30	399	0	10000	5	1	0	5	0
30	400	0	10000	5	1	0	5	0
30	401	0	10000	5	1	0	5	0
30	402	0	10000	5	1	0	5	0
29	403	0	10000	5	1	0	5	0
29	404	0	10000	5	1	0	5	0
28	405	0	10000	5	1	0	5	0
28	406	0	10000	5	1	0	5	0
30	407	0	10000	5	1	0	5	0
32	408	0	10000	5	1	0	5	0
31	409	0	10000	5	1	0	5	0
30	410	0	10000	5	1	0	5	0
30	411	0	10000	5	1	0	5	0
29	412	0	10000	5	1	0	5	0
29	413	0	10000	5	1	0	5	0
29	414	0	10000	5	1	0	5	0
29	415	0	10000	5	1	0	5	0
28	416	0	10000	5	1	0	5	0
27	417	0	10000	5	1	0	5	0
27	418	0	10000	5	1	0	5	0
28	419	0	10000	5	1	0	5	0
29	420	0	10000	5	1	0	5	0
28	421	0	10000	5	1	0	5	0
27	422	0	10000	5	1	0	5	0
27	423	0	10000	5	1	0	5	0
27	424	0	10000	5	1	0	5	0
26	425	0	10000	5	1	0	5	0
27	426	0	10000	5	1	0	5	0
28	427	0	10000	5	1	0	5	0
28	428	0	10000	5	1	0	5	0
27	429	0	10000	5	1	0	5	0
26	430	0	10000	5	1	0	5	0
26	431	0	10000	5	1	0	5	0
27	432	0	10000	5	1	0	5	0
26	433	0	10000	5	1	0	5	0
26	434	0	10000	5	1	0	5	0
26	435	0	10000	5	1	0	5	0
25	436	0	10000	5	1	0	5	0
25	437	0	10000	5	1	0	5	0
25	438	0	10000	5	1	0	5	0
26	439	0	10000	5	1	0	5	0
28	440	0	10000	5	1	0	5	0
27	441	0	10000	5	1	0	5	0
28	442	0	10000	5	1	0	5	0
29	443	0	10000	5	1	0	5	0
28	444	0	10000	5	1	0	5	0
28	445	0	10000	5	1	0	5	0
29	446	0	10000	5	1	0	5	0
28	447	0	10000	5	1	0	5	0
29	448	0	10000	5	1	0	5	0
27	449	0	10000	5	1	0	5	0
26	450	0	10000	5	1	0	5	0
27	451	0	10000	5	1	0	5	0
27	452	0	10000	5	1	0	5	0
28	453	0	10000	5	1	0	5	0
28	454	0	10000	5	1	0	5	0
28	455	0	10000	5	1	0	5	0
29	456	0	10000	5	1	0	5	0
31	457	0	10000	5	1	0	5	0
31	458	0	10000	5	1	0	5	0
33	459	0	10000	5	1	0	5	0
34	460	0	10000	5	1	0	5	0
33	461	0	10000	5	1	0	5	0
35	462	0	10000	5	1	0	5	0
34	463	0	10000	5	1	0	5	0
34	464	0	10000	5	1	0	5	0
34	465	0	10000	5	1	0	5	0
33	466	0	10000	5	1	0	5	0
34	467	0	10000	5	1	0	5	0
35	468	0	10000	5	1	0	5	0
35	469	0	10000	5	1	0	5	0
37	470	0	10000	5	1	0	5	0
36	471	0	10000	5	1	0	5	0
37	472	0	10000	5	1	0	5	0
38	473	0	10000	5	1	0	5	0
41	474	0	10000	5	1	0	5	0
45	475	0	10000	5	1	0	5	0
47	476	0	10000	5	1	0	5	0
49	477	0	10000	5	1	0	5	0
50	478	0	10000	5	1	0	5	0
50	479	0	10000	5	1	0	5	0
49	480	0	10000	5	1	0	5	0
49	481	0	10000	5	1	0	5	0
47	482	0	10000	5	1	0	5	0
46	483	0	10000	5	1	0	5	0
45	484	0	10000	5	1	0	5	0
44	485	0	10000	5	1	0	5	0
43	486	0	10000	5	1	0	5	0
43	487	0	10000	5	1	0	5	0
42	488	0	10000	5	1	0	5	0
40	489	0	10000	5	1	0	5	0
39	490	0	10000	5	1	0	5	0
39	491	0	10000	5	1	0	5	0
40	492	0	10000	5	1	0	5	0
39	493	0	10000	5	1	0	5	0
39	494	0	10000	5	1	0	5	0
38	495	0	10000	5	1	0	5	0
39	496	0	10000	5	1	0	5	0
37	497	0	10000	5	1	0	5	0
36	498	0	10000	5	1	0	5	0
38	499	0	10000	5	1	0	5	0
39	500	0	10000	5	1	0	5	0
38	501	0	10000	5	1	0	5	1
37	502	0	10000	5	1	0	5	1
38	503	0	10000	5	1	0	5	1
36	504	0	10000	5	1	0	5	1
35	505	0	10000	5	1	0	5	1
35	506	0	10000	5	1	0	5	1
34	507	0	10000	5	1	0	5	1
35	508	0	10000	5	1	0	5	1
34	509	0	10000	5	1	0	5	1
33	510	0	10000	5	1	0	5	1
32	511	0	10000	5	1	0	5	1
32	512	0	10000	5	1	0	5	1
32	513	0	10000	5	1	0	5	1
32	514	0	10000	5	1	0	5	1
33	515	0	10000	5	1	0	5	1
32	516	0	10000	5	1	0	5	1
32	517	0	10000	5	1	0	5	1
31	518	0	10000	5	1	0	5	1
32	519	0	10000	5	1	0	5	1
32	520	0	10000	5	1	0	5	1
32	521	0	10000	5	1	0	5	1
32	522	0	10000	5	1	0	5	1
31	523	0	10000	5	1	0	5	1
31	524	0	10000	5	1	0	5	1
32	525	0	10000	5	1	0	5	1
32	526	0	10000	5	1	0	5	1
32	527	0	10000	5	1	0	5	1
33	528	0	10000	5	1	0	5	1
31	529	0	10000	5	1	0	5	1
30	530	0	10000	5	1	0	5	1
30	531	0	10000	5	1	0	5	1
30	532	0	10000	5	1	0	5	1
30	533	0	10000	5	1	0	5	1
29	534	0	10000	5	1	0	5	1
30	535	0	10000	5	1	0	5	1
30	536	0	10000	5	1	0	5	1
30	537	0	10000	5	1	0	5	1
29	538	0	10000	5	1	0	5	1
30	539	0	10000	5	1	0	5	1
31	540	0	10000	5	1	0	5	1
30	541	0	10000	5	1	0	5	1
30	542	0	10000	5	1	0	5	1
29	543	0	10000	5	1	0	5	1
30	544	0	10000	5	1	0	5	1
28	545	0	10000	5	1	0	5	1
29	546	0	10000	5	1	0	5	1
30	547	0	10000	5	1	0	5	1
30	548	0	10000	5	1	0	5	1
28	549	0	10000	5	1	0	5	1
28	550	0	10000	5	1	0	5	1
28	551	0	10000	5	1	0	5	0
28	552	0	10000	5	1	0	5	0
28	553	0	10000	5	1	0	5	0
27	554	0	10000	5	1	0	5	0
29	555	0	10000	5	1	0	5	0
27	556	0	10000	5	1	0	5	0
28	557	0	10000	5	1	0	5	0
28	558	0	10000	5	1	0	5	0
28	559	0	10000	5	1	0	5	0
29	560	0	10000	5	1	0	5	0
29	561	0	10000	5	1	0	5	0
29	562	0	10000	5	1	0	5	0
28	563	0	10000	5	1	0	5	0
28	564	0	10000	5	1	0	5	0
27	565	0	10000	5	1	0	5	0
29	566	0	10000	5	1	0	5	0
28	567	0	10000	5	1	0	5	0
29	568	0	10000	5	1	0	5	0
28	569	0	10000	5	1	0	5	0
29	570	0	10000	5	1	0	5	0
32	571	0	10000	5	1	0	5	0
33	572	0	10000	5	1	0	5	0
33	573	0	10000	5	1	0	5	0
34	574	0	10000	5	1	0	5	0
33	575	0	10000	5	1	0	5	0
32	576	0	10000	5	1	0	5	0
32	577	0	10000	5	1	0	5	0
30	578	0	10000	5	1	0	5	0
32	579	0	10000	5	1	0	5	0
31	580	0	10000	5	1	0	5	0
30	581	0	10000	5	1	0	5	0
30	582	0	10000	5	1	0	5	0
30	583	0	10000	5	1	0	5	0
31	584	0	10000	5	1	0	5	0
31	585	0	10000	5	1	0	5	0
34	586	0	10000	5	1	0	5	0
34	587	0	10000	5	1	0	5	0
36	588	0	10000	5	1	0	5	0
37	589	0	10000	5	1	0	5	0
45	590	0	10000	5	1	0	5	0
54	591	0	10000	5	1	0	5	0
61	592	0	10000	5	1	0	5	0
94	593	0	10000	5	1	0	5	0
114	594	0	10000	5	1	0	5	0
151	595	0	10000	5	1	0	5	0
160	596	0	10000	5	1	0	5	0
160	597	0	10000	5	1	0	5	0
162	598	0	10000	5	1	0	5	0
166	599	0	10000	5	1	0	5	0
175	600	0	10000	5	1	0	5	0
201	601	0	10000	5	1	0	5	0
226	602	0	10000	5	1	0	5	0
237	603	0	10000	5	1	0	5	0
265	604	0	10000	5	1	0	5	0
295	605	0	10000	5	1	0	5	0
317	606	0	10000	5	1	0	5	0
322	607	0	10000	5	1	0	5	0
356	608	0	10000	5	1	0	5	0
359	609	0	10000	5	1	0	5	0
345	610	0	10000	5	1	0	5	0
338	611	0	10000	5	1	0	5	0
331	612	0	10000	5	1	0	5	0
317	613	0	10000	5	1	0	5	0
304	614	0	10000	5	1	0	5	0
301	615	0	10000	5	1	0	5	0
304	616	0	10000	5	1	0	5	0
292	617	0	10000	5	1	0	5	0
279	618	0	10000	5	1	0	5	0
270	619	0	10000	5	1	0	5	0
259	620	0	10000	5	1	0	5	0
248	621	0	10000	5	1	0	5	0
245	622	0	10000	5	1	0	5	0
244	623	0	10000	5	1	0	5	0
248	624	0	10000	5	1	0	5	0
251	625	0	10000	5	1	0	5	0
252	626	0	10000	5	1	0	5	0
250	627	0	10000	5	1	0	5	0
251	628	0	10000	5	1	0	5	0
249	629	0	10000	5	1	0	5	0
245	630	0	10000	5	1	0	5	0
243	631	0	10000	5	1	0	5	0
240	632	0	10000	5	1	0	5	0
238	633	0	10000	5	1	0	5	0
236	634	0	10000	5	1	0	5	0
231	635	0	10000	5	1	0	5	0
225	636	0	10000	5	1	0	5	0
218	637	0	10000	5	1	0	5	0
208	638	0	10000	5	1	0	5	0
206	639	0	10000	5	1	0	5	0
212	640	0	10000	5	1	0	5	0
214	641	0	10000	5	1	0	5	0
210	642	0	10000	5	1	0	5	0
203	643	0	10000	5	1	0	5	0
200	644	0	10000	5	1	0	5	0
201	645	0	10000	5	1	0	5	0
194	646	0	10000	5	1	0	5	0
189	647	0	10000	5	1	0	5	0
186	648	0	10000	5	1	0	5	0
184	649	0	10000	5	1	0	5	0
187	650	0	10000	5	1	0	5	0
194	651	0	10000	5	1	0	5	0
199	652	0	10000	5	1	0	5	0
204	653	0	10000	5	1	0	5	0
206	654	0	10000	5	1	0	5	0
204	655	0	10000	5	1	0	5	0
202	656	0	10000	5	1	0	5	0
199	657	0	10000	5	1	0	5	0
198	658	0	10000	5	1	0	5	0
202	659	0	10000	5	1	0	5	0
206	660	0	10000	5	1	0	5	0
209	661	0	10000	5	1	0	5	0
213	662	0	10000	5	1	0	5	0
214	663	0	10000	5	1	0	5	0
214	664	0	10000	5	1	0	5	0
213	665	0	10000	5	1	0	5	0
211	666	0	10000	5	1	0	5	0
206	667	0	10000	5	1	0	5	0
204	668	0	10000	5	1	0	5	0
206	669	0	10000	5	1	0	5	0
213	670	0	10000	5	1	0	5	0
220	671	0	10000	5	1	0	5	0
225	672	0	10000	5	1	0	5	0
230	673	0	10000	5	1	0	5	0
234	674	0	10000	5	1	0	5	0
236	675	0	10000	5	1	0	5	0
235	676	0	10000	5	1	0	5	0
237	677	0	10000	5	1	0	5	0
241	678	0	10000	5	1	0	5	0
245	679	0	10000	5	1	0	5	0
247	680	0	10000	5	1	0	5	0
248	681	0	10000	5	1	0	5	0
249	682	0	10000	5	1	0	5	0
249	683	0	10000	5	1	0	5	0
245	684	0	10000	5	1	0	5	0
240	685	0	10000	5	1	0	5	0
240	686	0	10000	5	1	0	5	0
241	687	0	10000	5	1	0	5	0
238	688	0	10000	5	1	0	5	0
236	689	0	10000	5	1	0	5	0
233	690	0	10000	5	1	0	5	0
230	691	0	10000	5	1	0	5	0
224	692	0	10000	5	1	0	5	0
215	693	0	10000	5	1	0	5	0
206	694	0	10000	5	1	0	5	0
198	695	0	10000	5	1	0	5	0
190	696	0	10000	5	1	0	5	0
185	697	0	10000	5	1	0	5	0
179	698	0	10000	5	1	0	5	0
175	699	0	10000	5	1	0	5	0
169	700	0	10000	5	1	0	5	0
162	701	0	10000	5	1	0	5	0
157	702	0	10000	5	1	0	5	0
155	703	0	10000	5	1	0	5	0
154	704	0	10000	5	1	0	5	0
155	705	0	10000	5	1	0	5	0
156	706	0	10000	5	1	0	5	0
157	707	0	10000	5	1	0	5	0
159	708	0	10000	5	1	0	5	0
159	709	0	10000	5	1	0	5	0
157	710	0	10000	5	1	0	5	0
158	711	0	10000	5	1	0	5	0
160	712	0	10000	5	1	0	5	0
158	713	0	10000	5	1	0	5	0
160	714	0	10000	5	1	0	5	0
164	715	0	10000	5	1	0	5	0
165	716	0	10000	5	1	0	5	0
166	717	0	10000	5	1	0	5	0
168	718	0	10000	5	1	0	5	0
174	719	0	10000	5	1	0	5	0
176	720	0	10000	5	1	0	5	0
179	721	0	10000	5	1	0	5	0
187	722	0	10000	5	1	0	5	0
194	723	0	10000	5	1	0	5	0
200	724	0	10000	5	1	0	5	0
200	725	0	10000	5	1	0	5	0
194	726	0	10000	5	1	0	5	0
200	727	0	10000	5	1	0	5	0
205	728	0	10000	5	1	0	5	0
196	729	0	10000	5	1	0	5	0
191	730	0	10000	5	1	0	5	0
189	731	0	10000	5	1	0	5	0
188	732	0	10000	5	1	0	5	0
184	733	0	10000	5	1	0	5	0
184	734	0	10000	5	1	0	5	0
181	735	0	10000	5	1	0	5	0
176	736	0	10000	5	1	0	5	0
169	737	0	10000	5	1	0	5	0
168	738	0	10000	5	1	0	5	0
