value	EMG	Stimulus	EMG_sensitivity	Total_Trial_Nr	practise	acq	probe_nr	Startle_Probe
43	1	0	10000	1	1	0	1	0
46	2	0	10000	1	1	0	1	0
49	3	0	10000	1	1	0	1	0
51	4	0	10000	1	1	0	1	0
53	5	0	10000	1	1	0	1	0
55	6	0	10000	1	1	0	1	0
60	7	0	10000	1	1	0	1	0
64	8	0	10000	1	1	0	1	0
68	9	0	10000	1	1	0	1	0
68	10	0	10000	1	1	0	1	0
68	11	0	10000	1	1	0	1	0
71	12	0	10000	1	1	0	1	0
75	13	0	10000	1	1	0	1	0
79	14	0	10000	1	1	0	1	0
84	15	0	10000	1	1	0	1	0
86	16	0	10000	1	1	0	1	0
85	17	0	10000	1	1	0	1	0
84	18	0	10000	1	1	0	1	0
83	19	0	10000	1	1	0	1	0
85	20	0	10000	1	1	0	1	0
85	20	0	10000	1	1	0	1	0
84	21	0	10000	1	1	0	1	0
84	23	0	10000	1	1	0	1	0
83	24	0	10000	1	1	0	1	0
80	25	0	10000	1	1	0	1	0
77	26	0	10000	1	1	0	1	0
76	27	0	10000	1	1	0	1	0
72	28	0	10000	1	1	0	1	0
70	29	0	10000	1	1	0	1	0
69	30	0	10000	1	1	0	1	0
66	31	0	10000	1	1	0	1	0
64	32	0	10000	1	1	0	1	0
62	33	0	10000	1	1	0	1	0
60	34	0	10000	1	1	0	1	0
60	35	0	10000	1	1	0	1	0
58	36	0	10000	1	1	0	1	0
56	37	0	10000	1	1	0	1	0
54	38	0	10000	1	1	0	1	0
51	39	0	10000	1	1	0	1	0
49	40	0	10000	1	1	0	1	0
48	41	0	10000	1	1	0	1	0
46	42	0	10000	1	1	0	1	0
46	43	0	10000	1	1	0	1	0
48	44	0	10000	1	1	0	1	0
50	45	0	10000	1	1	0	1	0
52	46	0	10000	1	1	0	1	0
54	47	0	10000	1	1	0	1	0
54	48	0	10000	1	1	0	1	0
54	49	0	10000	1	1	0	1	0
56	50	0	10000	1	1	0	1	0
56	51	0	10000	1	1	0	1	0
57	52	0	10000	1	1	0	1	0
58	53	0	10000	1	1	0	1	0
59	54	0	10000	1	1	0	1	0
60	55	0	10000	1	1	0	1	0
63	56	0	10000	1	1	0	1	0
64	57	0	10000	1	1	0	1	0
65	58	0	10000	1	1	0	1	0
65	59	0	10000	1	1	0	1	0
64	60	0	10000	1	1	0	1	0
65	61	0	10000	1	1	0	1	0
65	62	0	10000	1	1	0	1	0
65	63	0	10000	1	1	0	1	0
63	64	0	10000	1	1	0	1	0
61	65	0	10000	1	1	0	1	0
60	66	0	10000	1	1	0	1	0
62	67	0	10000	1	1	0	1	0
65	68	0	10000	1	1	0	1	0
70	69	0	10000	1	1	0	1	0
75	70	0	10000	1	1	0	1	0
81	71	0	10000	1	1	0	1	0
85	72	0	10000	1	1	0	1	0
89	73	0	10000	1	1	0	1	0
92	74	0	10000	1	1	0	1	0
95	75	0	10000	1	1	0	1	0
101	76	0	10000	1	1	0	1	0
103	77	0	10000	1	1	0	1	0
105	78	0	10000	1	1	0	1	0
105	79	0	10000	1	1	0	1	0
107	80	0	10000	1	1	0	1	0
108	81	0	10000	1	1	0	1	0
110	82	0	10000	1	1	0	1	0
111	83	0	10000	1	1	0	1	0
111	84	0	10000	1	1	0	1	0
111	85	0	10000	1	1	0	1	0
109	86	0	10000	1	1	0	1	0
106	87	0	10000	1	1	0	1	0
104	88	0	10000	1	1	0	1	0
100	89	0	10000	1	1	0	1	0
97	90	0	10000	1	1	0	1	0
93	91	0	10000	1	1	0	1	0
90	92	0	10000	1	1	0	1	0
88	93	0	10000	1	1	0	1	0
84	94	0	10000	1	1	0	1	0
80	95	0	10000	1	1	0	1	0
79	96	0	10000	1	1	0	1	0
75	97	0	10000	1	1	0	1	0
73	98	0	10000	1	1	0	1	0
71	99	0	10000	1	1	0	1	0
68	100	0	10000	1	1	0	1	0
67	101	0	10000	1	1	0	1	0
66	102	0	10000	1	1	0	1	0
65	103	0	10000	1	1	0	1	0
65	104	0	10000	1	1	0	1	0
65	105	0	10000	1	1	0	1	0
63	106	0	10000	1	1	0	1	0
60	107	0	10000	1	1	0	1	0
57	108	0	10000	1	1	0	1	0
56	109	0	10000	1	1	0	1	0
56	110	0	10000	1	1	0	1	0
54	111	0	10000	1	1	0	1	0
52	112	0	10000	1	1	0	1	0
49	113	0	10000	1	1	0	1	0
47	114	0	10000	1	1	0	1	0
46	115	0	10000	1	1	0	1	0
46	116	0	10000	1	1	0	1	0
44	117	0	10000	1	1	0	1	0
42	118	0	10000	1	1	0	1	0
41	119	0	10000	1	1	0	1	0
39	120	0	10000	1	1	0	1	0
38	121	0	10000	1	1	0	1	0
36	122	0	10000	1	1	0	1	0
36	123	0	10000	1	1	0	1	0
35	124	0	10000	1	1	0	1	0
35	125	0	10000	1	1	0	1	0
35	126	0	10000	1	1	0	1	0
36	127	0	10000	1	1	0	1	0
36	128	0	10000	1	1	0	1	0
36	129	0	10000	1	1	0	1	0
35	130	0	10000	1	1	0	1	0
36	131	0	10000	1	1	0	1	0
35	132	0	10000	1	1	0	1	0
35	133	0	10000	1	1	0	1	0
34	134	0	10000	1	1	0	1	0
34	135	0	10000	1	1	0	1	0
36	136	0	10000	1	1	0	1	0
33	137	0	10000	1	1	0	1	0
32	138	0	10000	1	1	0	1	0
31	139	0	10000	1	1	0	1	0
30	140	0	10000	1	1	0	1	0
30	141	0	10000	1	1	0	1	0
29	142	0	10000	1	1	0	1	0
29	143	0	10000	1	1	0	1	0
28	144	0	10000	1	1	0	1	0
27	145	0	10000	1	1	0	1	0
25	146	0	10000	1	1	0	1	0
25	147	0	10000	1	1	0	1	0
26	148	0	10000	1	1	0	1	0
28	149	0	10000	1	1	0	1	0
27	150	0	10000	1	1	0	1	0
27	151	0	10000	1	1	0	1	0
27	152	0	10000	1	1	0	1	0
26	153	0	10000	1	1	0	1	0
25	154	0	10000	1	1	0	1	0
25	155	0	10000	1	1	0	1	0
26	156	0	10000	1	1	0	1	0
24	157	0	10000	1	1	0	1	0
23	158	0	10000	1	1	0	1	0
24	159	0	10000	1	1	0	1	0
24	160	0	10000	1	1	0	1	0
24	161	0	10000	1	1	0	1	0
25	162	0	10000	1	1	0	1	0
25	163	0	10000	1	1	0	1	0
25	164	0	10000	1	1	0	1	0
24	165	0	10000	1	1	0	1	0
22	166	0	10000	1	1	0	1	0
21	167	0	10000	1	1	0	1	0
21	168	0	10000	1	1	0	1	0
21	169	0	10000	1	1	0	1	0
21	170	0	10000	1	1	0	1	0
21	171	0	10000	1	1	0	1	0
21	172	0	10000	1	1	0	1	0
19	173	0	10000	1	1	0	1	0
18	174	0	10000	1	1	0	1	0
18	175	0	10000	1	1	0	1	0
20	176	0	10000	1	1	0	1	0
19	177	0	10000	1	1	0	1	0
19	178	0	10000	1	1	0	1	0
20	179	0	10000	1	1	0	1	0
20	180	0	10000	1	1	0	1	0
20	181	0	10000	1	1	0	1	0
20	182	0	10000	1	1	0	1	0
21	183	0	10000	1	1	0	1	0
23	184	0	10000	1	1	0	1	0
23	185	0	10000	1	1	0	1	0
22	186	0	10000	1	1	0	1	0
22	187	0	10000	1	1	0	1	0
22	188	0	10000	1	1	0	1	0
21	189	0	10000	1	1	0	1	0
20	190	0	10000	1	1	0	1	0
20	191	0	10000	1	1	0	1	0
21	192	0	10000	1	1	0	1	0
19	193	0	10000	1	1	0	1	0
18	194	0	10000	1	1	0	1	0
18	195	0	10000	1	1	0	1	0
18	196	0	10000	1	1	0	1	0
17	197	0	10000	1	1	0	1	0
18	198	0	10000	1	1	0	1	0
18	199	0	10000	1	1	0	1	0
18	200	0	10000	1	1	0	1	0
17	201	0	10000	1	1	0	1	0
17	202	0	10000	1	1	0	1	0
17	203	0	10000	1	1	0	1	0
17	204	0	10000	1	1	0	1	0
16	205	0	10000	1	1	0	1	0
14	206	0	10000	1	1	0	1	0
14	207	0	10000	1	1	0	1	0
13	208	0	10000	1	1	0	1	0
13	209	0	10000	1	1	0	1	0
14	210	0	10000	1	1	0	1	0
14	211	0	10000	1	1	0	1	0
14	212	0	10000	1	1	0	1	0
14	213	0	10000	1	1	0	1	0
14	214	0	10000	1	1	0	1	0
17	215	0	10000	1	1	0	1	0
19	216	0	10000	1	1	0	1	0
20	217	0	10000	1	1	0	1	0
19	218	0	10000	1	1	0	1	0
18	219	0	10000	1	1	0	1	0
18	220	0	10000	1	1	0	1	0
17	221	0	10000	1	1	0	1	0
18	222	0	10000	1	1	0	1	0
20	223	0	10000	1	1	0	1	0
21	224	0	10000	1	1	0	1	0
22	225	0	10000	1	1	0	1	0
20	226	0	10000	1	1	0	1	0
21	227	0	10000	1	1	0	1	0
22	228	0	10000	1	1	0	1	0
27	229	0	10000	1	1	0	1	0
32	230	0	10000	1	1	0	1	0
39	231	0	10000	1	1	0	1	0
46	232	0	10000	1	1	0	1	0
50	233	0	10000	1	1	0	1	0
55	234	0	10000	1	1	0	1	0
60	235	0	10000	1	1	0	1	0
63	236	0	10000	1	1	0	1	0
63	237	0	10000	1	1	0	1	0
64	238	0	10000	1	1	0	1	0
63	239	0	10000	1	1	0	1	0
65	240	0	10000	1	1	0	1	0
67	240	0	10000	1	1	0	1	0
67	241	0	10000	1	1	0	1	0
68	243	0	10000	1	1	0	1	0
69	244	0	10000	1	1	0	1	0
69	245	0	10000	1	1	0	1	0
65	246	0	10000	1	1	0	1	0
63	247	0	10000	1	1	0	1	0
63	248	0	10000	1	1	0	1	0
60	249	0	10000	1	1	0	1	0
59	250	0	10000	1	1	0	1	0
56	251	0	10000	1	1	0	1	0
55	252	0	10000	1	1	0	1	0
53	253	0	10000	1	1	0	1	0
52	254	0	10000	1	1	0	1	0
53	255	0	10000	1	1	0	1	0
55	256	0	10000	1	1	0	1	0
56	257	0	10000	1	1	0	1	0
56	258	0	10000	1	1	0	1	0
56	259	0	10000	1	1	0	1	0
56	260	0	10000	1	1	0	1	0
56	261	0	10000	1	1	0	1	0
57	262	0	10000	1	1	0	1	0
59	263	0	10000	1	1	0	1	0
61	264	0	10000	1	1	0	1	0
63	265	0	10000	1	1	0	1	0
62	266	0	10000	1	1	0	1	0
62	267	0	10000	1	1	0	1	0
60	268	0	10000	1	1	0	1	0
58	269	0	10000	1	1	0	1	0
57	270	0	10000	1	1	0	1	0
56	271	0	10000	1	1	0	1	0
55	272	0	10000	1	1	0	1	0
54	273	0	10000	1	1	0	1	0
53	274	0	10000	1	1	0	1	0
53	275	0	10000	1	1	0	1	0
54	276	0	10000	1	1	0	1	0
53	277	0	10000	1	1	0	1	0
52	278	0	10000	1	1	0	1	0
50	279	0	10000	1	1	0	1	0
50	280	0	10000	1	1	0	1	0
50	281	0	10000	1	1	0	1	0
50	282	0	10000	1	1	0	1	0
52	283	0	10000	1	1	0	1	0
53	284	0	10000	1	1	0	1	0
56	285	0	10000	1	1	0	1	0
57	286	0	10000	1	1	0	1	0
60	287	0	10000	1	1	0	1	0
61	288	0	10000	1	1	0	1	0
60	289	0	10000	1	1	0	1	0
60	290	0	10000	1	1	0	1	0
60	291	0	10000	1	1	0	1	0
60	292	0	10000	1	1	0	1	0
61	293	0	10000	1	1	0	1	0
60	294	0	10000	1	1	0	1	0
61	295	0	10000	1	1	0	1	0
61	296	0	10000	1	1	0	1	0
59	297	0	10000	1	1	0	1	0
57	298	0	10000	1	1	0	1	0
54	299	0	10000	1	1	0	1	0
52	300	0	10000	1	1	0	1	0
51	301	0	10000	1	1	0	1	0
48	302	0	10000	1	1	0	1	0
47	303	0	10000	1	1	0	1	0
45	304	0	10000	1	1	0	1	0
43	305	0	10000	1	1	0	1	0
40	306	0	10000	1	1	0	1	0
41	307	0	10000	1	1	0	1	0
42	308	0	10000	1	1	0	1	0
43	309	0	10000	1	1	0	1	0
43	310	0	10000	1	1	0	1	0
41	311	0	10000	1	1	0	1	0
41	312	0	10000	1	1	0	1	0
42	313	0	10000	1	1	0	1	0
43	314	0	10000	1	1	0	1	0
44	315	0	10000	1	1	0	1	0
46	316	0	10000	1	1	0	1	0
44	317	0	10000	1	1	0	1	0
42	318	0	10000	1	1	0	1	0
41	319	0	10000	1	1	0	1	0
40	320	0	10000	1	1	0	1	0
42	321	0	10000	1	1	0	1	0
41	322	0	10000	1	1	0	1	0
40	323	0	10000	1	1	0	1	0
38	324	0	10000	1	1	0	1	0
37	325	0	10000	1	1	0	1	0
36	326	0	10000	1	1	0	1	0
37	327	0	10000	1	1	0	1	0
39	328	0	10000	1	1	0	1	0
39	329	0	10000	1	1	0	1	0
37	330	0	10000	1	1	0	1	0
36	331	0	10000	1	1	0	1	0
35	332	0	10000	1	1	0	1	0
33	333	0	10000	1	1	0	1	0
32	334	0	10000	1	1	0	1	0
31	335	0	10000	1	1	0	1	0
32	336	0	10000	1	1	0	1	0
29	337	0	10000	1	1	0	1	0
29	338	0	10000	1	1	0	1	0
27	339	0	10000	1	1	0	1	0
26	340	0	10000	1	1	0	1	0
26	341	0	10000	1	1	0	1	0
24	342	0	10000	1	1	0	1	0
24	343	0	10000	1	1	0	1	0
25	344	0	10000	1	1	0	1	0
24	345	0	10000	1	1	0	1	0
21	346	0	10000	1	1	0	1	0
22	347	0	10000	1	1	0	1	0
24	348	0	10000	1	1	0	1	0
25	349	0	10000	1	1	0	1	0
25	350	0	10000	1	1	0	1	0
26	351	0	10000	1	1	0	1	0
25	352	0	10000	1	1	0	1	0
24	353	0	10000	1	1	0	1	0
23	354	0	10000	1	1	0	1	0
22	355	0	10000	1	1	0	1	0
23	356	0	10000	1	1	0	1	0
23	357	0	10000	1	1	0	1	0
24	358	0	10000	1	1	0	1	0
25	359	0	10000	1	1	0	1	0
26	360	0	10000	1	1	0	1	0
24	361	0	10000	1	1	0	1	0
23	362	0	10000	1	1	0	1	0
23	363	0	10000	1	1	0	1	0
23	364	0	10000	1	1	0	1	0
23	365	0	10000	1	1	0	1	0
21	366	0	10000	1	1	0	1	0
22	367	0	10000	1	1	0	1	0
22	368	0	10000	1	1	0	1	0
21	369	0	10000	1	1	0	1	0
22	370	0	10000	1	1	0	1	0
22	371	0	10000	1	1	0	1	0
23	372	0	10000	1	1	0	1	0
25	373	0	10000	1	1	0	1	0
27	374	0	10000	1	1	0	1	0
27	375	0	10000	1	1	0	1	0
28	376	0	10000	1	1	0	1	0
28	377	0	10000	1	1	0	1	0
29	378	0	10000	1	1	0	1	0
30	379	0	10000	1	1	0	1	0
30	380	0	10000	1	1	0	1	0
29	381	0	10000	1	1	0	1	0
28	382	0	10000	1	1	0	1	0
29	383	0	10000	1	1	0	1	0
30	384	0	10000	1	1	0	1	0
28	385	0	10000	1	1	0	1	0
26	386	0	10000	1	1	0	1	0
25	387	0	10000	1	1	0	1	0
24	388	0	10000	1	1	0	1	0
23	389	0	10000	1	1	0	1	0
23	390	0	10000	1	1	0	1	0
24	391	0	10000	1	1	0	1	0
24	392	0	10000	1	1	0	1	0
24	393	0	10000	1	1	0	1	0
26	394	0	10000	1	1	0	1	0
25	395	0	10000	1	1	0	1	0
28	396	0	10000	1	1	0	1	0
28	397	0	10000	1	1	0	1	0
27	398	0	10000	1	1	0	1	0
26	399	0	10000	1	1	0	1	0
25	400	0	10000	1	1	0	1	0
26	401	0	10000	1	1	0	1	0
26	402	0	10000	1	1	0	1	0
26	403	0	10000	1	1	0	1	0
26	404	0	10000	1	1	0	1	0
25	405	0	10000	1	1	0	1	0
23	406	0	10000	1	1	0	1	0
24	407	0	10000	1	1	0	1	0
22	408	0	10000	1	1	0	1	0
24	409	0	10000	1	1	0	1	0
25	410	0	10000	1	1	0	1	0
27	411	0	10000	1	1	0	1	0
28	412	0	10000	1	1	0	1	0
28	413	0	10000	1	1	0	1	0
27	414	0	10000	1	1	0	1	0
27	415	0	10000	1	1	0	1	0
28	416	0	10000	1	1	0	1	0
28	417	0	10000	1	1	0	1	0
26	418	0	10000	1	1	0	1	0
26	419	0	10000	1	1	0	1	0
25	420	0	10000	1	1	0	1	0
25	421	0	10000	1	1	0	1	0
24	422	0	10000	1	1	0	1	0
24	423	0	10000	1	1	0	1	0
23	424	0	10000	1	1	0	1	0
24	425	0	10000	1	1	0	1	0
23	426	0	10000	1	1	0	1	0
23	427	0	10000	1	1	0	1	0
24	428	0	10000	1	1	0	1	0
26	429	0	10000	1	1	0	1	0
29	430	0	10000	1	1	0	1	0
31	431	0	10000	1	1	0	1	0
35	432	0	10000	1	1	0	1	0
39	433	0	10000	1	1	0	1	0
43	434	0	10000	1	1	0	1	0
46	435	0	10000	1	1	0	1	0
51	436	0	10000	1	1	0	1	0
54	437	0	10000	1	1	0	1	0
55	438	0	10000	1	1	0	1	0
56	439	0	10000	1	1	0	1	0
56	440	0	10000	1	1	0	1	0
57	441	0	10000	1	1	0	1	0
60	442	0	10000	1	1	0	1	0
64	443	0	10000	1	1	0	1	0
67	444	0	10000	1	1	0	1	0
70	445	0	10000	1	1	0	1	0
69	446	0	10000	1	1	0	1	0
71	447	0	10000	1	1	0	1	0
70	448	0	10000	1	1	0	1	0
70	449	0	10000	1	1	0	1	0
69	450	0	10000	1	1	0	1	0
69	451	0	10000	1	1	0	1	0
69	452	0	10000	1	1	0	1	0
67	453	0	10000	1	1	0	1	0
64	454	0	10000	1	1	0	1	0
61	455	0	10000	1	1	0	1	0
61	456	0	10000	1	1	0	1	0
58	457	0	10000	1	1	0	1	0
56	458	0	10000	1	1	0	1	0
53	459	0	10000	1	1	0	1	0
52	460	0	10000	1	1	0	1	0
51	461	0	10000	1	1	0	1	0
50	462	0	10000	1	1	0	1	0
51	463	0	10000	1	1	0	1	0
52	464	0	10000	1	1	0	1	0
54	465	0	10000	1	1	0	1	0
55	466	0	10000	1	1	0	1	0
56	467	0	10000	1	1	0	1	0
57	468	0	10000	1	1	0	1	0
58	469	0	10000	1	1	0	1	0
57	470	0	10000	1	1	0	1	0
56	471	0	10000	1	1	0	1	0
56	472	0	10000	1	1	0	1	0
56	473	0	10000	1	1	0	1	0
56	474	0	10000	1	1	0	1	0
56	475	0	10000	1	1	0	1	0
58	476	0	10000	1	1	0	1	0
60	477	0	10000	1	1	0	1	0
59	478	0	10000	1	1	0	1	0
57	479	0	10000	1	1	0	1	0
56	480	0	10000	1	1	0	1	0
54	481	0	10000	1	1	0	1	0
55	482	0	10000	1	1	0	1	0
58	483	0	10000	1	1	0	1	0
62	484	0	10000	1	1	0	1	0
65	485	0	10000	1	1	0	1	0
67	486	0	10000	1	1	0	1	0
69	487	0	10000	1	1	0	1	0
71	488	0	10000	1	1	0	1	0
71	489	0	10000	1	1	0	1	0
70	490	0	10000	1	1	0	1	0
68	491	0	10000	1	1	0	1	0
67	492	0	10000	1	1	0	1	0
65	493	0	10000	1	1	0	1	0
63	494	0	10000	1	1	0	1	0
63	495	0	10000	1	1	0	1	0
64	496	0	10000	1	1	0	1	0
61	497	0	10000	1	1	0	1	0
59	498	0	10000	1	1	0	1	0
56	499	0	10000	1	1	0	1	0
54	500	0	10000	1	1	0	1	0
52	541	0	10000	1	1	0	1	1
49	542	0	10000	1	1	0	1	1
49	543	0	10000	1	1	0	1	1
46	544	0	10000	1	1	0	1	1
45	545	0	10000	1	1	0	1	1
43	546	0	10000	1	1	0	1	1
43	547	0	10000	1	1	0	1	1
43	548	0	10000	1	1	0	1	1
41	549	0	10000	1	1	0	1	1
42	550	0	10000	1	1	0	1	1
42	551	0	10000	1	1	0	1	1
42	552	0	10000	1	1	0	1	1
42	553	0	10000	1	1	0	1	1
42	554	0	10000	1	1	0	1	1
43	555	0	10000	1	1	0	1	1
43	556	0	10000	1	1	0	1	1
41	557	0	10000	1	1	0	1	1
39	558	0	10000	1	1	0	1	1
37	559	0	10000	1	1	0	1	1
36	560	0	10000	1	1	0	1	1
35	561	0	10000	1	1	0	1	1
33	562	0	10000	1	1	0	1	1
33	563	0	10000	1	1	0	1	1
32	564	0	10000	1	1	0	1	1
32	565	0	10000	1	1	0	1	1
31	566	0	10000	1	1	0	1	1
31	567	0	10000	1	1	0	1	1
31	568	0	10000	1	1	0	1	1
31	569	0	10000	1	1	0	1	1
31	570	0	10000	1	1	0	1	1
29	571	0	10000	1	1	0	1	1
28	572	0	10000	1	1	0	1	1
27	573	0	10000	1	1	0	1	1
27	574	0	10000	1	1	0	1	1
26	575	0	10000	1	1	0	1	1
28	576	0	10000	1	1	0	1	1
28	577	0	10000	1	1	0	1	1
28	578	0	10000	1	1	0	1	1
27	579	0	10000	1	1	0	1	1
27	580	0	10000	1	1	0	1	1
26	581	0	10000	1	1	0	1	1
27	582	0	10000	1	1	0	1	1
30	548	0	10000	1	1	0	1	1
31	549	0	10000	1	1	0	1	1
30	550	0	10000	1	1	0	1	1
29	551	0	10000	1	1	0	1	1
30	552	0	10000	1	1	0	1	1
30	553	0	10000	1	1	0	1	1
30	549	0	10000	1	1	0	1	1
30	550	0	10000	1	1	0	1	1
31	551	0	10000	1	1	0	1	0
32	552	0	10000	1	1	0	1	0
31	553	0	10000	1	1	0	1	0
30	554	0	10000	1	1	0	1	0
29	555	0	10000	1	1	0	1	0
32	556	0	10000	1	1	0	1	0
30	557	0	10000	1	1	0	1	0
29	558	0	10000	1	1	0	1	0
28	559	0	10000	1	1	0	1	0
28	560	0	10000	1	1	0	1	0
27	561	0	10000	1	1	0	1	0
27	562	0	10000	1	1	0	1	0
27	563	0	10000	1	1	0	1	0
25	564	0	10000	1	1	0	1	0
25	565	0	10000	1	1	0	1	0
24	566	0	10000	1	1	0	1	0
23	567	0	10000	1	1	0	1	0
23	568	0	10000	1	1	0	1	0
24	569	0	10000	1	1	0	1	0
24	570	0	10000	1	1	0	1	0
25	571	0	10000	1	1	0	1	0
26	572	0	10000	1	1	0	1	0
28	573	0	10000	1	1	0	1	0
29	574	0	10000	1	1	0	1	0
29	575	0	10000	1	1	0	1	0
32	576	0	10000	1	1	0	1	0
31	577	0	10000	1	1	0	1	0
31	578	0	10000	1	1	0	1	0
31	579	0	10000	1	1	0	1	0
31	580	0	10000	1	1	0	1	0
31	581	0	10000	1	1	0	1	0
30	582	0	10000	1	1	0	1	0
30	583	0	10000	1	1	0	1	0
30	584	0	10000	1	1	0	1	0
28	585	0	10000	1	1	0	1	0
26	586	0	10000	1	1	0	1	0
25	587	0	10000	1	1	0	1	0
25	588	0	10000	1	1	0	1	0
25	589	0	10000	1	1	0	1	0
24	590	0	10000	1	1	0	1	0
23	590	0	10000	1	1	0	1	0
22	591	0	10000	1	1	0	1	0
21	593	0	10000	1	1	0	1	0
20	594	0	10000	1	1	0	1	0
20	595	0	10000	1	1	0	1	0
22	596	0	10000	1	1	0	1	0
21	597	0	10000	1	1	0	1	0
21	598	0	10000	1	1	0	1	0
21	599	0	10000	1	1	0	1	0
20	600	0	10000	1	1	0	1	0
19	601	0	10000	1	1	0	1	0
19	602	0	10000	1	1	0	1	0
20	603	0	10000	1	1	0	1	0
21	604	0	10000	1	1	0	1	0
21	605	0	10000	1	1	0	1	0
20	606	0	10000	1	1	0	1	0
20	607	0	10000	1	1	0	1	0
21	608	0	10000	1	1	0	1	0
22	609	0	10000	1	1	0	1	0
22	610	0	10000	1	1	0	1	0
21	611	0	10000	1	1	0	1	0
20	612	0	10000	1	1	0	1	0
20	613	0	10000	1	1	0	1	0
20	614	0	10000	1	1	0	1	0
20	615	0	10000	1	1	0	1	0
23	616	0	10000	1	1	0	1	0
24	617	0	10000	1	1	0	1	0
24	618	0	10000	1	1	0	1	0
24	619	0	10000	1	1	0	1	0
22	620	0	10000	1	1	0	1	0
22	620	0	10000	1	1	0	1	0
21	621	0	10000	1	1	0	1	0
21	623	0	10000	1	1	0	1	0
22	624	0	10000	1	1	0	1	0
22	625	0	10000	1	1	0	1	0
20	626	0	10000	1	1	0	1	0
20	627	0	10000	1	1	0	1	0
22	628	0	10000	1	1	0	1	0
23	629	0	10000	1	1	0	1	0
23	630	0	10000	1	1	0	1	0
23	631	0	10000	1	1	0	1	0
25	632	0	10000	1	1	0	1	0
23	633	0	10000	1	1	0	1	0
23	634	0	10000	1	1	0	1	0
22	635	0	10000	1	1	0	1	0
26	636	0	10000	1	1	0	1	0
28	637	0	10000	1	1	0	1	0
48	638	0	10000	1	1	0	1	0
80	639	0	10000	1	1	0	1	0
118	640	0	10000	1	1	0	1	0
147	641	0	10000	1	1	0	1	0
151	642	0	10000	1	1	0	1	0
158	643	0	10000	1	1	0	1	0
157	644	0	10000	1	1	0	1	0
154	645	0	10000	1	1	0	1	0
164	646	0	10000	1	1	0	1	0
191	647	0	10000	1	1	0	1	0
199	648	0	10000	1	1	0	1	0
269	649	0	10000	1	1	0	1	0
371	650	0	10000	1	1	0	1	0
431	651	0	10000	1	1	0	1	0
436	652	0	10000	1	1	0	1	0
444	653	0	10000	1	1	0	1	0
471	654	0	10000	1	1	0	1	0
478	655	0	10000	1	1	0	1	0
536	656	0	10000	1	1	0	1	0
586	657	0	10000	1	1	0	1	0
574	658	0	10000	1	1	0	1	0
566	659	0	10000	1	1	0	1	0
598	660	0	10000	1	1	0	1	0
657	661	0	10000	1	1	0	1	0
711	662	0	10000	1	1	0	1	0
717	663	0	10000	1	1	0	1	0
723	664	0	10000	1	1	0	1	0
755	665	0	10000	1	1	0	1	0
770	666	0	10000	1	1	0	1	0
766	667	0	10000	1	1	0	1	0
749	668	0	10000	1	1	0	1	0
725	669	0	10000	1	1	0	1	0
706	670	0	10000	1	1	0	1	0
691	670	0	10000	1	1	0	1	0
690	671	0	10000	1	1	0	1	0
702	673	0	10000	1	1	0	1	0
689	674	0	10000	1	1	0	1	0
720	675	0	10000	1	1	0	1	0
755	676	0	10000	1	1	0	1	0
769	677	0	10000	1	1	0	1	0
766	678	0	10000	1	1	0	1	0
745	679	0	10000	1	1	0	1	0
717	680	0	10000	1	1	0	1	0
684	681	0	10000	1	1	0	1	0
659	682	0	10000	1	1	0	1	0
645	683	0	10000	1	1	0	1	0
633	684	0	10000	1	1	0	1	0
613	685	0	10000	1	1	0	1	0
590	686	0	10000	1	1	0	1	0
570	687	0	10000	1	1	0	1	0
551	688	0	10000	1	1	0	1	0
530	689	0	10000	1	1	0	1	0
508	690	0	10000	1	1	0	1	0
487	691	0	10000	1	1	0	1	0
464	692	0	10000	1	1	0	1	0
442	693	0	10000	1	1	0	1	0
421	694	0	10000	1	1	0	1	0
401	695	0	10000	1	1	0	1	0
385	696	0	10000	1	1	0	1	0
369	697	0	10000	1	1	0	1	0
355	698	0	10000	1	1	0	1	0
341	699	0	10000	1	1	0	1	0
328	700	0	10000	1	1	0	1	0
316	700	0	10000	1	1	0	1	0
304	701	0	10000	1	1	0	1	0
292	703	0	10000	1	1	0	1	0
279	704	0	10000	1	1	0	1	0
268	705	0	10000	1	1	0	1	0
255	706	0	10000	1	1	0	1	0
246	707	0	10000	1	1	0	1	0
239	708	0	10000	1	1	0	1	0
234	709	0	10000	1	1	0	1	0
229	710	0	10000	1	1	0	1	0
226	710	0	10000	1	1	0	1	0
224	711	0	10000	1	1	0	1	0
219	713	0	10000	1	1	0	1	0
213	714	0	10000	1	1	0	1	0
209	715	0	10000	1	1	0	1	0
206	716	0	10000	1	1	0	1	0
201	717	0	10000	1	1	0	1	0
195	718	0	10000	1	1	0	1	0
188	719	0	10000	1	1	0	1	0
182	720	0	10000	1	1	0	1	0
181	720	0	10000	1	1	0	1	0
183	721	0	10000	1	1	0	1	0
180	723	0	10000	1	1	0	1	0
177	724	0	10000	1	1	0	1	0
177	725	0	10000	1	1	0	1	0
176	726	0	10000	1	1	0	1	0
179	727	0	10000	1	1	0	1	0
183	728	0	10000	1	1	0	1	0
182	729	0	10000	1	1	0	1	0
178	730	0	10000	1	1	0	1	0
175	731	0	10000	1	1	0	1	0
173	732	0	10000	1	1	0	1	0
173	733	0	10000	1	1	0	1	0
177	734	0	10000	1	1	0	1	0
183	735	0	10000	1	1	0	1	0
190	736	0	10000	1	1	0	1	0
196	737	0	10000	1	1	0	1	0
201	738	0	10000	1	1	0	1	0
207	739	0	10000	1	1	0	1	0
213	740	0	10000	1	1	0	1	0
221	741	0	10000	1	1	0	1	0
227	742	0	10000	1	1	0	1	0
229	743	0	10000	1	1	0	1	0
230	744	0	10000	1	1	0	1	0
232	745	0	10000	1	1	0	1	0
236	746	0	10000	1	1	0	1	0
242	747	0	10000	1	1	0	1	0
250	748	0	10000	1	1	0	1	0
253	749	0	10000	1	1	0	1	0
252	750	0	10000	1	1	0	1	0
246	751	0	10000	1	1	0	1	0
240	752	0	10000	1	1	0	1	0
230	753	0	10000	1	1	0	1	0
220	754	0	10000	1	1	0	1	0
210	755	0	10000	1	1	0	1	0
205	756	0	10000	1	1	0	1	0
203	757	0	10000	1	1	0	1	0
205	758	0	10000	1	1	0	1	0
208	759	0	10000	1	1	0	1	0
208	760	0	10000	1	1	0	1	0
201	761	0	10000	1	1	0	1	0
192	762	0	10000	1	1	0	1	0
185	763	0	10000	1	1	0	1	0
182	764	0	10000	1	1	0	1	0
184	765	0	10000	1	1	0	1	0
185	766	0	10000	1	1	0	1	0
183	767	0	10000	1	1	0	1	0
178	768	0	10000	1	1	0	1	0
172	769	0	10000	1	1	0	1	0
167	770	0	10000	1	1	0	1	0
166	771	0	10000	1	1	0	1	0
165	772	0	10000	1	1	0	1	0
162	773	0	10000	1	1	0	1	0
158	774	0	10000	1	1	0	1	0
152	775	0	10000	1	1	0	1	0
148	776	0	10000	1	1	0	1	0
141	777	0	10000	1	1	0	1	0
135	778	0	10000	1	1	0	1	0
129	779	0	10000	1	1	0	1	0
126	780	0	10000	1	1	0	1	0
122	781	0	10000	1	1	0	1	0
118	782	0	10000	1	1	0	1	0
113	783	0	10000	1	1	0	1	0
110	784	0	10000	1	1	0	1	0
109	785	0	10000	1	1	0	1	0
108	786	0	10000	1	1	0	1	0
113	787	0	10000	1	1	0	1	0
119	788	0	10000	1	1	0	1	0
126	789	0	10000	1	1	0	1	0
133	790	0	10000	1	1	0	1	0
141	791	0	10000	1	1	0	1	0
149	792	0	10000	1	1	0	1	0
153	793	0	10000	1	1	0	1	0
159	794	0	10000	1	1	0	1	0
163	795	0	10000	1	1	0	1	0
167	796	0	10000	1	1	0	1	0
168	797	0	10000	1	1	0	1	0
169	798	0	10000	1	1	0	1	0
170	799	0	10000	1	1	0	1	0
169	800	0	10000	1	1	0	1	0
170	801	0	10000	1	1	0	1	0
169	802	0	10000	1	1	0	1	0
169	803	0	10000	1	1	0	1	0
167	804	0	10000	1	1	0	1	0
164	805	0	10000	1	1	0	1	0
159	806	0	10000	1	1	0	1	0
156	807	0	10000	1	1	0	1	0
156	808	0	10000	1	1	0	1	0
157	809	0	10000	1	1	0	1	0
156	810	0	10000	1	1	0	1	0
157	810	0	10000	1	1	0	1	0
156	811	0	10000	1	1	0	1	0
155	813	0	10000	1	1	0	1	0
154	814	0	10000	1	1	0	1	0
154	815	0	10000	1	1	0	1	0
156	816	0	10000	1	1	0	1	0
154	817	0	10000	1	1	0	1	0
149	818	0	10000	1	1	0	1	0
143	819	0	10000	1	1	0	1	0
137	820	0	10000	1	1	0	1	0
133	820	0	10000	1	1	0	1	0
127	821	0	10000	1	1	0	1	0
122	823	0	10000	1	1	0	1	0
117	824	0	10000	1	1	0	1	0
115	825	0	10000	1	1	0	1	0
112	826	0	10000	1	1	0	1	0
110	827	0	10000	1	1	0	1	0
107	828	0	10000	1	1	0	1	0
104	829	0	10000	1	1	0	1	0
101	830	0	10000	1	1	0	1	0
100	831	0	10000	1	1	0	1	0
97	832	0	10000	1	1	0	1	0
94	833	0	10000	1	1	0	1	0
90	834	0	10000	1	1	0	1	0
86	835	0	10000	1	1	0	1	0
85	836	0	10000	1	1	0	1	0
81	837	0	10000	1	1	0	1	0
77	838	0	10000	1	1	0	1	0
73	839	0	10000	1	1	0	1	0
70	840	0	10000	1	1	0	1	0
68	840	0	10000	1	1	0	1	0
64	841	0	10000	1	1	0	1	0
63	843	0	10000	1	1	0	1	0
61	844	0	10000	1	1	0	1	0
58	845	0	10000	1	1	0	1	0
54	846	0	10000	1	1	0	1	0
53	847	0	10000	1	1	0	1	0
54	848	0	10000	1	1	0	1	0
54	849	0	10000	1	1	0	1	0
55	850	0	10000	1	1	0	1	0
57	851	0	10000	1	1	0	1	0
60	852	0	10000	1	1	0	1	0
64	853	0	10000	1	1	0	1	0
65	854	0	10000	1	1	0	1	0
63	855	0	10000	1	1	0	1	0
64	856	0	10000	1	1	0	1	0
67	857	0	10000	1	1	0	1	0
69	858	0	10000	1	1	0	1	0
69	859	0	10000	1	1	0	1	0
69	860	0	10000	1	1	0	1	0
68	861	0	10000	1	1	0	1	0
67	862	0	10000	1	1	0	1	0
68	863	0	10000	1	1	0	1	0
67	864	0	10000	1	1	0	1	0
66	865	0	10000	1	1	0	1	0
62	866	0	10000	1	1	0	1	0
59	867	0	10000	1	1	0	1	0
59	868	0	10000	1	1	0	1	0
59	869	0	10000	1	1	0	1	0
58	870	0	10000	1	1	0	1	0
58	870	0	10000	1	1	0	1	0
56	871	0	10000	1	1	0	1	0
54	873	0	10000	1	1	0	1	0
52	874	0	10000	1	1	0	1	0
50	875	0	10000	1	1	0	1	0
51	876	0	10000	1	1	0	1	0
52	877	0	10000	1	1	0	1	0
53	878	0	10000	1	1	0	1	0
53	879	0	10000	1	1	0	1	0
53	880	0	10000	1	1	0	1	0
51	880	0	10000	1	1	0	1	0
50	881	0	10000	1	1	0	1	0
50	883	0	10000	1	1	0	1	0
52	884	0	10000	1	1	0	1	0
54	885	0	10000	1	1	0	1	0
54	886	0	10000	1	1	0	1	0
55	887	0	10000	1	1	0	1	0
53	888	0	10000	1	1	0	1	0
53	889	0	10000	1	1	0	1	0
54	890	0	10000	1	1	0	1	0
56	890	0	10000	1	1	0	1	0
56	891	0	10000	1	1	0	1	0
53	893	0	10000	1	1	0	1	0
52	894	0	10000	1	1	0	1	0
51	895	0	10000	1	1	0	1	0
51	896	0	10000	1	1	0	1	0
50	897	0	10000	1	1	0	1	0
48	898	0	10000	1	1	0	1	0
47	899	0	10000	1	1	0	1	0
45	900	0	10000	1	1	0	1	0
46	901	0	10000	1	1	0	1	0
46	902	0	10000	1	1	0	1	0
47	903	0	10000	1	1	0	1	0
48	904	0	10000	1	1	0	1	0
47	905	0	10000	1	1	0	1	0
45	906	0	10000	1	1	0	1	0
44	907	0	10000	1	1	0	1	0
43	908	0	10000	1	1	0	1	0
44	909	0	10000	1	1	0	1	0
43	910	0	10000	1	1	0	1	0
43	910	0	10000	1	1	0	1	0
44	911	0	10000	1	1	0	1	0
43	913	0	10000	1	1	0	1	0
43	914	0	10000	1	1	0	1	0
41	915	0	10000	1	1	0	1	0
41	916	0	10000	1	1	0	1	0
41	917	0	10000	1	1	0	1	0
39	918	0	10000	1	1	0	1	0
38	919	0	10000	1	1	0	1	0
38	920	0	10000	1	1	0	1	0
37	920	0	10000	1	1	0	1	0
36	921	0	10000	1	1	0	1	0
36	923	0	10000	1	1	0	1	0
36	924	0	10000	1	1	0	1	0
36	925	0	10000	1	1	0	1	0
34	926	0	10000	1	1	0	1	0
33	927	0	10000	1	1	0	1	0
32	928	0	10000	1	1	0	1	0
32	929	0	10000	1	1	0	1	0
31	930	0	10000	1	1	0	1	0
30	931	0	10000	1	1	0	1	0
29	932	0	10000	1	1	0	1	0
27	933	0	10000	1	1	0	1	0
26	934	0	10000	1	1	0	1	0
25	935	0	10000	1	1	0	1	0
26	936	0	10000	1	1	0	1	0
26	937	0	10000	1	1	0	1	0
25	938	0	10000	1	1	0	1	0
25	939	0	10000	1	1	0	1	0
25	940	0	10000	1	1	0	1	0
25	940	0	10000	1	1	0	1	0
26	941	0	10000	1	1	0	1	0
26	943	0	10000	1	1	0	1	0
26	944	0	10000	1	1	0	1	0
27	945	0	10000	1	1	0	1	0
27	946	0	10000	1	1	0	1	0
29	947	0	10000	1	1	0	1	0
27	948	0	10000	1	1	0	1	0
27	949	0	10000	1	1	0	1	0
28	950	0	10000	1	1	0	1	0
28	951	0	10000	1	1	0	1	0
28	952	0	10000	1	1	0	1	0
29	953	0	10000	1	1	0	1	0
32	954	0	10000	1	1	0	1	0
31	955	0	10000	1	1	0	1	0
32	956	0	10000	1	1	0	1	0
33	957	0	10000	1	1	0	1	0
33	958	0	10000	1	1	0	1	0
33	959	0	10000	1	1	0	1	0
33	960	0	10000	1	1	0	1	0
34	961	0	10000	1	1	0	1	0
33	962	0	10000	1	1	0	1	0
33	963	0	10000	1	1	0	1	0
33	964	0	10000	1	1	0	1	0
33	965	0	10000	1	1	0	1	0
31	966	0	10000	1	1	0	1	0
31	967	0	10000	1	1	0	1	0
30	968	0	10000	1	1	0	1	0
31	969	0	10000	1	1	0	1	0
33	970	0	10000	1	1	0	1	0
34	971	0	10000	1	1	0	1	0
36	972	0	10000	1	1	0	1	0
35	973	0	10000	1	1	0	1	0
35	974	0	10000	1	1	0	1	0
33	975	0	10000	1	1	0	1	0
35	976	0	10000	1	1	0	1	0
36	977	0	10000	1	1	0	1	0
35	978	0	10000	1	1	0	1	0
34	979	0	10000	1	1	0	1	0
33	980	0	10000	1	1	0	1	0
35	981	0	10000	1	1	0	1	0
38	982	0	10000	1	1	0	1	0
41	983	0	10000	1	1	0	1	0
45	984	0	10000	1	1	0	1	0
49	985	0	10000	1	1	0	1	0
50	986	0	10000	1	1	0	1	0
55	987	0	10000	1	1	0	1	0
64	988	0	10000	1	1	0	1	0
73	989	0	10000	1	1	0	1	0
81	990	0	10000	1	1	0	1	0
88	991	0	10000	1	1	0	1	0
93	992	0	10000	1	1	0	1	0
98	993	0	10000	1	1	0	1	0
101	994	0	10000	1	1	0	1	0
104	995	0	10000	1	1	0	1	0
107	996	0	10000	1	1	0	1	0
109	997	0	10000	1	1	0	1	0
110	998	0	10000	1	1	0	1	0
111	999	0	10000	1	1	0	1	0
111	1000	0	10000	1	1	0	1	0
108	1000	0	10000	1	1	0	1	0
106	1001	0	10000	1	1	0	1	0
22	1	0	10000	2	1	0	2	0
22	2	0	10000	2	1	0	2	0
22	3	0	10000	2	1	0	2	0
22	4	0	10000	2	1	0	2	0
23	5	0	10000	2	1	0	2	0
24	6	0	10000	2	1	0	2	0
23	7	0	10000	2	1	0	2	0
22	8	0	10000	2	1	0	2	0
22	9	0	10000	2	1	0	2	0
21	10	0	10000	2	1	0	2	0
21	11	0	10000	2	1	0	2	0
20	12	0	10000	2	1	0	2	0
20	13	0	10000	2	1	0	2	0
20	14	0	10000	2	1	0	2	0
20	15	0	10000	2	1	0	2	0
20	16	0	10000	2	1	0	2	0
21	17	0	10000	2	1	0	2	0
20	18	0	10000	2	1	0	2	0
20	19	0	10000	2	1	0	2	0
19	20	0	10000	2	1	0	2	0
19	21	0	10000	2	1	0	2	0
19	22	0	10000	2	1	0	2	0
19	23	0	10000	2	1	0	2	0
19	24	0	10000	2	1	0	2	0
18	25	0	10000	2	1	0	2	0
18	26	0	10000	2	1	0	2	0
16	27	0	10000	2	1	0	2	0
16	28	0	10000	2	1	0	2	0
16	29	0	10000	2	1	0	2	0
16	30	0	10000	2	1	0	2	0
16	31	0	10000	2	1	0	2	0
16	32	0	10000	2	1	0	2	0
16	33	0	10000	2	1	0	2	0
15	34	0	10000	2	1	0	2	0
14	35	0	10000	2	1	0	2	0
14	36	0	10000	2	1	0	2	0
16	37	0	10000	2	1	0	2	0
16	38	0	10000	2	1	0	2	0
17	39	0	10000	2	1	0	2	0
16	40	0	10000	2	1	0	2	0
17	41	0	10000	2	1	0	2	0
17	42	0	10000	2	1	0	2	0
15	43	0	10000	2	1	0	2	0
15	44	0	10000	2	1	0	2	0
15	45	0	10000	2	1	0	2	0
16	46	0	10000	2	1	0	2	0
15	47	0	10000	2	1	0	2	0
17	48	0	10000	2	1	0	2	0
17	49	0	10000	2	1	0	2	0
16	50	0	10000	2	1	0	2	0
16	51	0	10000	2	1	0	2	0
16	52	0	10000	2	1	0	2	0
15	53	0	10000	2	1	0	2	0
14	54	0	10000	2	1	0	2	0
13	55	0	10000	2	1	0	2	0
13	56	0	10000	2	1	0	2	0
15	57	0	10000	2	1	0	2	0
15	58	0	10000	2	1	0	2	0
15	59	0	10000	2	1	0	2	0
14	60	0	10000	2	1	0	2	0
13	61	0	10000	2	1	0	2	0
13	62	0	10000	2	1	0	2	0
12	63	0	10000	2	1	0	2	0
13	64	0	10000	2	1	0	2	0
13	65	0	10000	2	1	0	2	0
13	66	0	10000	2	1	0	2	0
12	67	0	10000	2	1	0	2	0
13	68	0	10000	2	1	0	2	0
14	69	0	10000	2	1	0	2	0
13	70	0	10000	2	1	0	2	0
13	71	0	10000	2	1	0	2	0
14	72	0	10000	2	1	0	2	0
13	73	0	10000	2	1	0	2	0
12	74	0	10000	2	1	0	2	0
12	75	0	10000	2	1	0	2	0
11	76	0	10000	2	1	0	2	0
13	77	0	10000	2	1	0	2	0
12	78	0	10000	2	1	0	2	0
12	79	0	10000	2	1	0	2	0
11	80	0	10000	2	1	0	2	0
11	81	0	10000	2	1	0	2	0
13	82	0	10000	2	1	0	2	0
13	83	0	10000	2	1	0	2	0
13	84	0	10000	2	1	0	2	0
12	85	0	10000	2	1	0	2	0
12	86	0	10000	2	1	0	2	0
10	87	0	10000	2	1	0	2	0
10	88	0	10000	2	1	0	2	0
10	89	0	10000	2	1	0	2	0
10	90	0	10000	2	1	0	2	0
10	91	0	10000	2	1	0	2	0
10	92	0	10000	2	1	0	2	0
10	93	0	10000	2	1	0	2	0
9	94	0	10000	2	1	0	2	0
8	95	0	10000	2	1	0	2	0
8	96	0	10000	2	1	0	2	0
10	97	0	10000	2	1	0	2	0
9	98	0	10000	2	1	0	2	0
10	99	0	10000	2	1	0	2	0
10	100	0	10000	2	1	0	2	0
9	101	0	10000	2	1	0	2	0
9	102	0	10000	2	1	0	2	0
9	103	0	10000	2	1	0	2	0
10	104	0	10000	2	1	0	2	0
10	105	0	10000	2	1	0	2	0
10	106	0	10000	2	1	0	2	0
10	107	0	10000	2	1	0	2	0
9	108	0	10000	2	1	0	2	0
10	109	0	10000	2	1	0	2	0
10	110	0	10000	2	1	0	2	0
10	111	0	10000	2	1	0	2	0
10	112	0	10000	2	1	0	2	0
10	113	0	10000	2	1	0	2	0
9	114	0	10000	2	1	0	2	0
10	115	0	10000	2	1	0	2	0
9	116	0	10000	2	1	0	2	0
11	117	0	10000	2	1	0	2	0
12	118	0	10000	2	1	0	2	0
13	119	0	10000	2	1	0	2	0
14	120	0	10000	2	1	0	2	0
13	121	0	10000	2	1	0	2	0
13	122	0	10000	2	1	0	2	0
12	123	0	10000	2	1	0	2	0
13	124	0	10000	2	1	0	2	0
13	125	0	10000	2	1	0	2	0
13	126	0	10000	2	1	0	2	0
11	127	0	10000	2	1	0	2	0
12	128	0	10000	2	1	0	2	0
14	129	0	10000	2	1	0	2	0
15	130	0	10000	2	1	0	2	0
14	131	0	10000	2	1	0	2	0
14	132	0	10000	2	1	0	2	0
14	133	0	10000	2	1	0	2	0
14	134	0	10000	2	1	0	2	0
15	135	0	10000	2	1	0	2	0
14	136	0	10000	2	1	0	2	0
15	137	0	10000	2	1	0	2	0
14	138	0	10000	2	1	0	2	0
14	139	0	10000	2	1	0	2	0
15	140	0	10000	2	1	0	2	0
16	141	0	10000	2	1	0	2	0
18	142	0	10000	2	1	0	2	0
17	143	0	10000	2	1	0	2	0
17	144	0	10000	2	1	0	2	0
19	145	0	10000	2	1	0	2	0
19	146	0	10000	2	1	0	2	0
18	147	0	10000	2	1	0	2	0
20	148	0	10000	2	1	0	2	0
20	149	0	10000	2	1	0	2	0
20	150	0	10000	2	1	0	2	0
20	151	0	10000	2	1	0	2	0
19	152	0	10000	2	1	0	2	0
19	153	0	10000	2	1	0	2	0
17	154	0	10000	2	1	0	2	0
17	155	0	10000	2	1	0	2	0
16	156	0	10000	2	1	0	2	0
18	157	0	10000	2	1	0	2	0
17	158	0	10000	2	1	0	2	0
16	159	0	10000	2	1	0	2	0
15	160	0	10000	2	1	0	2	0
15	161	0	10000	2	1	0	2	0
17	162	0	10000	2	1	0	2	0
17	163	0	10000	2	1	0	2	0
17	164	0	10000	2	1	0	2	0
18	165	0	10000	2	1	0	2	0
17	166	0	10000	2	1	0	2	0
14	167	0	10000	2	1	0	2	0
15	168	0	10000	2	1	0	2	0
15	169	0	10000	2	1	0	2	0
17	170	0	10000	2	1	0	2	0
17	171	0	10000	2	1	0	2	0
17	172	0	10000	2	1	0	2	0
17	173	0	10000	2	1	0	2	0
16	174	0	10000	2	1	0	2	0
15	175	0	10000	2	1	0	2	0
14	176	0	10000	2	1	0	2	0
16	177	0	10000	2	1	0	2	0
16	178	0	10000	2	1	0	2	0
16	179	0	10000	2	1	0	2	0
15	180	0	10000	2	1	0	2	0
14	181	0	10000	2	1	0	2	0
17	182	0	10000	2	1	0	2	0
18	183	0	10000	2	1	0	2	0
20	184	0	10000	2	1	0	2	0
23	185	0	10000	2	1	0	2	0
26	186	0	10000	2	1	0	2	0
25	187	0	10000	2	1	0	2	0
30	188	0	10000	2	1	0	2	0
28	189	0	10000	2	1	0	2	0
28	190	0	10000	2	1	0	2	0
28	191	0	10000	2	1	0	2	0
27	192	0	10000	2	1	0	2	0
28	193	0	10000	2	1	0	2	0
28	194	0	10000	2	1	0	2	0
31	195	0	10000	2	1	0	2	0
31	196	0	10000	2	1	0	2	0
36	197	0	10000	2	1	0	2	0
39	198	0	10000	2	1	0	2	0
36	199	0	10000	2	1	0	2	0
38	200	0	10000	2	1	0	2	0
41	201	0	10000	2	1	0	2	0
66	202	0	10000	2	1	0	2	0
92	203	0	10000	2	1	0	2	0
101	204	0	10000	2	1	0	2	0
101	205	0	10000	2	1	0	2	0
110	206	0	10000	2	1	0	2	0
120	207	0	10000	2	1	0	2	0
124	208	0	10000	2	1	0	2	0
134	209	0	10000	2	1	0	2	0
144	210	0	10000	2	1	0	2	0
140	211	0	10000	2	1	0	2	0
138	212	0	10000	2	1	0	2	0
136	213	0	10000	2	1	0	2	0
145	214	0	10000	2	1	0	2	0
158	215	0	10000	2	1	0	2	0
162	216	0	10000	2	1	0	2	0
163	217	0	10000	2	1	0	2	0
179	218	0	10000	2	1	0	2	0
193	219	0	10000	2	1	0	2	0
190	220	0	10000	2	1	0	2	0
198	221	0	10000	2	1	0	2	0
198	222	0	10000	2	1	0	2	0
212	223	0	10000	2	1	0	2	0
236	224	0	10000	2	1	0	2	0
247	225	0	10000	2	1	0	2	0
239	226	0	10000	2	1	0	2	0
232	227	0	10000	2	1	0	2	0
225	228	0	10000	2	1	0	2	0
218	229	0	10000	2	1	0	2	0
209	230	0	10000	2	1	0	2	0
200	231	0	10000	2	1	0	2	0
190	232	0	10000	2	1	0	2	0
183	233	0	10000	2	1	0	2	0
178	234	0	10000	2	1	0	2	0
179	235	0	10000	2	1	0	2	0
181	236	0	10000	2	1	0	2	0
185	237	0	10000	2	1	0	2	0
189	238	0	10000	2	1	0	2	0
195	239	0	10000	2	1	0	2	0
204	240	0	10000	2	1	0	2	0
207	241	0	10000	2	1	0	2	0
200	242	0	10000	2	1	0	2	0
194	243	0	10000	2	1	0	2	0
193	244	0	10000	2	1	0	2	0
195	245	0	10000	2	1	0	2	0
196	246	0	10000	2	1	0	2	0
194	247	0	10000	2	1	0	2	0
194	248	0	10000	2	1	0	2	0
192	249	0	10000	2	1	0	2	0
191	250	0	10000	2	1	0	2	0
190	251	0	10000	2	1	0	2	0
186	252	0	10000	2	1	0	2	0
183	253	0	10000	2	1	0	2	0
179	254	0	10000	2	1	0	2	0
175	255	0	10000	2	1	0	2	0
171	256	0	10000	2	1	0	2	0
167	257	0	10000	2	1	0	2	0
161	258	0	10000	2	1	0	2	0
154	259	0	10000	2	1	0	2	0
149	260	0	10000	2	1	0	2	0
146	261	0	10000	2	1	0	2	0
145	262	0	10000	2	1	0	2	0
145	263	0	10000	2	1	0	2	0
145	264	0	10000	2	1	0	2	0
144	265	0	10000	2	1	0	2	0
141	266	0	10000	2	1	0	2	0
138	267	0	10000	2	1	0	2	0
138	268	0	10000	2	1	0	2	0
140	269	0	10000	2	1	0	2	0
142	270	0	10000	2	1	0	2	0
147	271	0	10000	2	1	0	2	0
150	272	0	10000	2	1	0	2	0
154	273	0	10000	2	1	0	2	0
157	274	0	10000	2	1	0	2	0
159	275	0	10000	2	1	0	2	0
162	276	0	10000	2	1	0	2	0
166	277	0	10000	2	1	0	2	0
169	278	0	10000	2	1	0	2	0
173	279	0	10000	2	1	0	2	0
178	280	0	10000	2	1	0	2	0
183	281	0	10000	2	1	0	2	0
187	282	0	10000	2	1	0	2	0
189	283	0	10000	2	1	0	2	0
190	284	0	10000	2	1	0	2	0
189	285	0	10000	2	1	0	2	0
187	286	0	10000	2	1	0	2	0
183	287	0	10000	2	1	0	2	0
181	288	0	10000	2	1	0	2	0
180	289	0	10000	2	1	0	2	0
179	290	0	10000	2	1	0	2	0
177	291	0	10000	2	1	0	2	0
174	292	0	10000	2	1	0	2	0
171	293	0	10000	2	1	0	2	0
170	294	0	10000	2	1	0	2	0
166	295	0	10000	2	1	0	2	0
164	296	0	10000	2	1	0	2	0
164	297	0	10000	2	1	0	2	0
162	298	0	10000	2	1	0	2	0
158	299	0	10000	2	1	0	2	0
154	300	0	10000	2	1	0	2	0
151	301	0	10000	2	1	0	2	0
149	302	0	10000	2	1	0	2	0
148	303	0	10000	2	1	0	2	0
148	304	0	10000	2	1	0	2	0
145	305	0	10000	2	1	0	2	0
141	306	0	10000	2	1	0	2	0
134	307	0	10000	2	1	0	2	0
129	308	0	10000	2	1	0	2	0
124	309	0	10000	2	1	0	2	0
119	310	0	10000	2	1	0	2	0
115	311	0	10000	2	1	0	2	0
110	312	0	10000	2	1	0	2	0
107	313	0	10000	2	1	0	2	0
104	314	0	10000	2	1	0	2	0
100	315	0	10000	2	1	0	2	0
96	316	0	10000	2	1	0	2	0
95	317	0	10000	2	1	0	2	0
92	318	0	10000	2	1	0	2	0
89	319	0	10000	2	1	0	2	0
87	320	0	10000	2	1	0	2	0
84	321	0	10000	2	1	0	2	0
81	322	0	10000	2	1	0	2	0
79	323	0	10000	2	1	0	2	0
77	324	0	10000	2	1	0	2	0
73	325	0	10000	2	1	0	2	0
72	326	0	10000	2	1	0	2	0
68	327	0	10000	2	1	0	2	0
66	328	0	10000	2	1	0	2	0
64	329	0	10000	2	1	0	2	0
62	330	0	10000	2	1	0	2	0
61	331	0	10000	2	1	0	2	0
60	332	0	10000	2	1	0	2	0
57	333	0	10000	2	1	0	2	0
55	334	0	10000	2	1	0	2	0
52	335	0	10000	2	1	0	2	0
49	336	0	10000	2	1	0	2	0
49	337	0	10000	2	1	0	2	0
48	338	0	10000	2	1	0	2	0
46	339	0	10000	2	1	0	2	0
44	340	0	10000	2	1	0	2	0
44	341	0	10000	2	1	0	2	0
43	342	0	10000	2	1	0	2	0
41	343	0	10000	2	1	0	2	0
41	344	0	10000	2	1	0	2	0
41	345	0	10000	2	1	0	2	0
43	346	0	10000	2	1	0	2	0
42	347	0	10000	2	1	0	2	0
42	348	0	10000	2	1	0	2	0
42	349	0	10000	2	1	0	2	0
43	350	0	10000	2	1	0	2	0
43	351	0	10000	2	1	0	2	0
41	352	0	10000	2	1	0	2	0
41	353	0	10000	2	1	0	2	0
40	354	0	10000	2	1	0	2	0
39	355	0	10000	2	1	0	2	0
37	356	0	10000	2	1	0	2	0
38	357	0	10000	2	1	0	2	0
36	358	0	10000	2	1	0	2	0
35	359	0	10000	2	1	0	2	0
33	360	0	10000	2	1	0	2	0
33	361	0	10000	2	1	0	2	0
32	362	0	10000	2	1	0	2	0
32	363	0	10000	2	1	0	2	0
32	364	0	10000	2	1	0	2	0
33	365	0	10000	2	1	0	2	0
33	366	0	10000	2	1	0	2	0
33	367	0	10000	2	1	0	2	0
34	368	0	10000	2	1	0	2	0
34	369	0	10000	2	1	0	2	0
34	370	0	10000	2	1	0	2	0
34	371	0	10000	2	1	0	2	0
33	372	0	10000	2	1	0	2	0
33	373	0	10000	2	1	0	2	0
34	374	0	10000	2	1	0	2	0
33	375	0	10000	2	1	0	2	0
33	376	0	10000	2	1	0	2	0
35	377	0	10000	2	1	0	2	0
34	378	0	10000	2	1	0	2	0
32	379	0	10000	2	1	0	2	0
31	380	0	10000	2	1	0	2	0
31	381	0	10000	2	1	0	2	0
29	382	0	10000	2	1	0	2	0
28	383	0	10000	2	1	0	2	0
29	384	0	10000	2	1	0	2	0
29	385	0	10000	2	1	0	2	0
31	386	0	10000	2	1	0	2	0
32	387	0	10000	2	1	0	2	0
32	388	0	10000	2	1	0	2	0
32	389	0	10000	2	1	0	2	0
33	390	0	10000	2	1	0	2	0
33	391	0	10000	2	1	0	2	0
34	392	0	10000	2	1	0	2	0
33	393	0	10000	2	1	0	2	0
32	394	0	10000	2	1	0	2	0
31	395	0	10000	2	1	0	2	0
29	396	0	10000	2	1	0	2	0
31	397	0	10000	2	1	0	2	0
31	398	0	10000	2	1	0	2	0
30	399	0	10000	2	1	0	2	0
30	400	0	10000	2	1	0	2	0
28	401	0	10000	2	1	0	2	0
29	402	0	10000	2	1	0	2	0
28	403	0	10000	2	1	0	2	0
30	404	0	10000	2	1	0	2	0
31	405	0	10000	2	1	0	2	0
32	406	0	10000	2	1	0	2	0
32	407	0	10000	2	1	0	2	0
32	408	0	10000	2	1	0	2	0
32	409	0	10000	2	1	0	2	0
32	410	0	10000	2	1	0	2	0
31	411	0	10000	2	1	0	2	0
32	412	0	10000	2	1	0	2	0
31	413	0	10000	2	1	0	2	0
30	414	0	10000	2	1	0	2	0
28	415	0	10000	2	1	0	2	0
27	416	0	10000	2	1	0	2	0
28	417	0	10000	2	1	0	2	0
27	418	0	10000	2	1	0	2	0
26	419	0	10000	2	1	0	2	0
26	420	0	10000	2	1	0	2	0
24	421	0	10000	2	1	0	2	0
24	422	0	10000	2	1	0	2	0
22	423	0	10000	2	1	0	2	0
24	424	0	10000	2	1	0	2	0
23	425	0	10000	2	1	0	2	0
24	426	0	10000	2	1	0	2	0
23	427	0	10000	2	1	0	2	0
24	428	0	10000	2	1	0	2	0
24	429	0	10000	2	1	0	2	0
24	430	0	10000	2	1	0	2	0
23	431	0	10000	2	1	0	2	0
23	432	0	10000	2	1	0	2	0
25	433	0	10000	2	1	0	2	0
24	434	0	10000	2	1	0	2	0
23	435	0	10000	2	1	0	2	0
22	436	0	10000	2	1	0	2	0
23	437	0	10000	2	1	0	2	0
23	438	0	10000	2	1	0	2	0
21	439	0	10000	2	1	0	2	0
21	440	0	10000	2	1	0	2	0
21	441	0	10000	2	1	0	2	0
22	442	0	10000	2	1	0	2	0
22	443	0	10000	2	1	0	2	0
22	444	0	10000	2	1	0	2	0
21	445	0	10000	2	1	0	2	0
23	446	0	10000	2	1	0	2	0
22	447	0	10000	2	1	0	2	0
21	448	0	10000	2	1	0	2	0
20	449	0	10000	2	1	0	2	0
20	450	0	10000	2	1	0	2	0
19	451	0	10000	2	1	0	2	0
19	452	0	10000	2	1	0	2	0
19	453	0	10000	2	1	0	2	0
18	454	0	10000	2	1	0	2	0
18	455	0	10000	2	1	0	2	0
17	456	0	10000	2	1	0	2	0
19	457	0	10000	2	1	0	2	0
18	458	0	10000	2	1	0	2	0
18	459	0	10000	2	1	0	2	0
19	460	0	10000	2	1	0	2	0
20	461	0	10000	2	1	0	2	0
22	462	0	10000	2	1	0	2	0
23	463	0	10000	2	1	0	2	0
23	464	0	10000	2	1	0	2	0
23	465	0	10000	2	1	0	2	0
25	466	0	10000	2	1	0	2	0
28	467	0	10000	2	1	0	2	0
30	468	0	10000	2	1	0	2	0
32	469	0	10000	2	1	0	2	0
32	470	0	10000	2	1	0	2	0
32	471	0	10000	2	1	0	2	0
30	472	0	10000	2	1	0	2	0
31	473	0	10000	2	1	0	2	0
31	474	0	10000	2	1	0	2	0
32	475	0	10000	2	1	0	2	0
33	476	0	10000	2	1	0	2	0
35	477	0	10000	2	1	0	2	0
34	478	0	10000	2	1	0	2	0
32	479	0	10000	2	1	0	2	0
31	480	0	10000	2	1	0	2	0
31	481	0	10000	2	1	0	2	0
30	482	0	10000	2	1	0	2	0
30	483	0	10000	2	1	0	2	0
30	484	0	10000	2	1	0	2	0
31	485	0	10000	2	1	0	2	0
33	486	0	10000	2	1	0	2	0
33	487	0	10000	2	1	0	2	0
35	488	0	10000	2	1	0	2	0
35	489	0	10000	2	1	0	2	0
36	490	0	10000	2	1	0	2	0
34	491	0	10000	2	1	0	2	0
34	492	0	10000	2	1	0	2	0
33	493	0	10000	2	1	0	2	0
32	494	0	10000	2	1	0	2	0
32	495	0	10000	2	1	0	2	0
32	496	0	10000	2	1	0	2	0
35	497	0	10000	2	1	0	2	0
35	498	0	10000	2	1	0	2	0
33	499	0	10000	2	1	0	2	0
32	500	0	10000	2	1	0	2	0
31	501	0	10000	2	1	0	2	1
30	502	0	10000	2	1	0	2	1
28	503	0	10000	2	1	0	2	1
28	504	0	10000	2	1	0	2	1
27	505	0	10000	2	1	0	2	1
28	506	0	10000	2	1	0	2	1
26	507	0	10000	2	1	0	2	1
26	508	0	10000	2	1	0	2	1
26	509	0	10000	2	1	0	2	1
26	510	0	10000	2	1	0	2	1
25	511	0	10000	2	1	0	2	1
24	512	0	10000	2	1	0	2	1
23	513	0	10000	2	1	0	2	1
22	514	0	10000	2	1	0	2	1
21	515	0	10000	2	1	0	2	1
20	516	0	10000	2	1	0	2	1
21	517	0	10000	2	1	0	2	1
20	518	0	10000	2	1	0	2	1
20	519	0	10000	2	1	0	2	1
20	520	0	10000	2	1	0	2	1
21	521	0	10000	2	1	0	2	1
20	522	0	10000	2	1	0	2	1
20	523	0	10000	2	1	0	2	1
21	524	0	10000	2	1	0	2	1
21	525	0	10000	2	1	0	2	1
22	526	0	10000	2	1	0	2	1
21	527	0	10000	2	1	0	2	1
20	528	0	10000	2	1	0	2	1
20	529	0	10000	2	1	0	2	1
21	530	0	10000	2	1	0	2	1
20	531	0	10000	2	1	0	2	1
20	532	0	10000	2	1	0	2	1
19	533	0	10000	2	1	0	2	1
18	534	0	10000	2	1	0	2	1
17	535	0	10000	2	1	0	2	1
17	536	0	10000	2	1	0	2	1
17	537	0	10000	2	1	0	2	1
17	538	0	10000	2	1	0	2	1
16	539	0	10000	2	1	0	2	1
16	540	0	10000	2	1	0	2	1
14	541	0	10000	2	1	0	2	1
14	542	0	10000	2	1	0	2	1
14	543	0	10000	2	1	0	2	1
14	544	0	10000	2	1	0	2	1
14	545	0	10000	2	1	0	2	1
14	546	0	10000	2	1	0	2	1
11	547	0	10000	2	1	0	2	1
11	548	0	10000	2	1	0	2	1
12	549	0	10000	2	1	0	2	1
11	550	0	10000	2	1	0	2	1
10	551	0	10000	2	1	0	2	0
11	552	0	10000	2	1	0	2	0
10	553	0	10000	2	1	0	2	0
10	554	0	10000	2	1	0	2	0
9	555	0	10000	2	1	0	2	0
10	556	0	10000	2	1	0	2	0
10	557	0	10000	2	1	0	2	0
10	558	0	10000	2	1	0	2	0
9	559	0	10000	2	1	0	2	0
9	560	0	10000	2	1	0	2	0
9	561	0	10000	2	1	0	2	0
9	562	0	10000	2	1	0	2	0
8	563	0	10000	2	1	0	2	0
8	564	0	10000	2	1	0	2	0
8	565	0	10000	2	1	0	2	0
9	566	0	10000	2	1	0	2	0
7	567	0	10000	2	1	0	2	0
7	568	0	10000	2	1	0	2	0
8	569	0	10000	2	1	0	2	0
8	570	0	10000	2	1	0	2	0
7	571	0	10000	2	1	0	2	0
8	572	0	10000	2	1	0	2	0
8	573	0	10000	2	1	0	2	0
7	574	0	10000	2	1	0	2	0
7	575	0	10000	2	1	0	2	0
7	576	0	10000	2	1	0	2	0
8	577	0	10000	2	1	0	2	0
8	578	0	10000	2	1	0	2	0
8	579	0	10000	2	1	0	2	0
7	580	0	10000	2	1	0	2	0
8	581	0	10000	2	1	0	2	0
8	582	0	10000	2	1	0	2	0
9	583	0	10000	2	1	0	2	0
10	584	0	10000	2	1	0	2	0
11	585	0	10000	2	1	0	2	0
12	586	0	10000	2	1	0	2	0
14	587	0	10000	2	1	0	2	0
25	588	0	10000	2	1	0	2	0
35	589	0	10000	2	1	0	2	0
43	590	0	10000	2	1	0	2	0
87	591	0	10000	2	1	0	2	0
154	592	0	10000	2	1	0	2	0
258	593	0	10000	2	1	0	2	0
372	594	0	10000	2	1	0	2	0
398	595	0	10000	2	1	0	2	0
404	596	0	10000	2	1	0	2	0
423	597	0	10000	2	1	0	2	0
440	598	0	10000	2	1	0	2	0
437	599	0	10000	2	1	0	2	0
455	600	0	10000	2	1	0	2	0
510	601	0	10000	2	1	0	2	0
628	602	0	10000	2	1	0	2	0
692	603	0	10000	2	1	0	2	0
684	604	0	10000	2	1	0	2	0
753	605	0	10000	2	1	0	2	0
864	606	0	10000	2	1	0	2	0
935	607	0	10000	2	1	0	2	0
982	608	0	10000	2	1	0	2	0
1015	609	0	10000	2	1	0	2	0
993	610	0	10000	2	1	0	2	0
992	611	0	10000	2	1	0	2	0
952	612	0	10000	2	1	0	2	0
934	613	0	10000	2	1	0	2	0
912	614	0	10000	2	1	0	2	0
890	615	0	10000	2	1	0	2	0
927	616	0	10000	2	1	0	2	0
981	617	0	10000	2	1	0	2	0
969	618	0	10000	2	1	0	2	0
934	619	0	10000	2	1	0	2	0
922	620	0	10000	2	1	0	2	0
953	621	0	10000	2	1	0	2	0
930	622	0	10000	2	1	0	2	0
904	623	0	10000	2	1	0	2	0
863	624	0	10000	2	1	0	2	0
843	625	0	10000	2	1	0	2	0
842	626	0	10000	2	1	0	2	0
836	627	0	10000	2	1	0	2	0
831	628	0	10000	2	1	0	2	0
823	629	0	10000	2	1	0	2	0
798	630	0	10000	2	1	0	2	0
762	631	0	10000	2	1	0	2	0
731	632	0	10000	2	1	0	2	0
703	633	0	10000	2	1	0	2	0
680	634	0	10000	2	1	0	2	0
661	635	0	10000	2	1	0	2	0
643	636	0	10000	2	1	0	2	0
626	637	0	10000	2	1	0	2	0
608	638	0	10000	2	1	0	2	0
591	639	0	10000	2	1	0	2	0
573	640	0	10000	2	1	0	2	0
558	641	0	10000	2	1	0	2	0
543	642	0	10000	2	1	0	2	0
527	643	0	10000	2	1	0	2	0
513	644	0	10000	2	1	0	2	0
498	645	0	10000	2	1	0	2	0
483	646	0	10000	2	1	0	2	0
466	647	0	10000	2	1	0	2	0
450	648	0	10000	2	1	0	2	0
432	649	0	10000	2	1	0	2	0
413	650	0	10000	2	1	0	2	0
395	651	0	10000	2	1	0	2	0
382	652	0	10000	2	1	0	2	0
371	653	0	10000	2	1	0	2	0
364	654	0	10000	2	1	0	2	0
361	655	0	10000	2	1	0	2	0
360	656	0	10000	2	1	0	2	0
360	657	0	10000	2	1	0	2	0
361	658	0	10000	2	1	0	2	0
362	659	0	10000	2	1	0	2	0
363	660	0	10000	2	1	0	2	0
364	661	0	10000	2	1	0	2	0
366	662	0	10000	2	1	0	2	0
364	663	0	10000	2	1	0	2	0
364	664	0	10000	2	1	0	2	0
361	665	0	10000	2	1	0	2	0
357	666	0	10000	2	1	0	2	0
350	667	0	10000	2	1	0	2	0
345	668	0	10000	2	1	0	2	0
341	669	0	10000	2	1	0	2	0
336	670	0	10000	2	1	0	2	0
332	671	0	10000	2	1	0	2	0
326	672	0	10000	2	1	0	2	0
319	673	0	10000	2	1	0	2	0
313	674	0	10000	2	1	0	2	0
306	675	0	10000	2	1	0	2	0
300	676	0	10000	2	1	0	2	0
295	677	0	10000	2	1	0	2	0
289	678	0	10000	2	1	0	2	0
279	679	0	10000	2	1	0	2	0
268	680	0	10000	2	1	0	2	0
257	681	0	10000	2	1	0	2	0
248	682	0	10000	2	1	0	2	0
240	683	0	10000	2	1	0	2	0
238	684	0	10000	2	1	0	2	0
237	685	0	10000	2	1	0	2	0
236	686	0	10000	2	1	0	2	0
235	687	0	10000	2	1	0	2	0
235	688	0	10000	2	1	0	2	0
234	689	0	10000	2	1	0	2	0
234	690	0	10000	2	1	0	2	0
235	691	0	10000	2	1	0	2	0
236	692	0	10000	2	1	0	2	0
236	693	0	10000	2	1	0	2	0
235	694	0	10000	2	1	0	2	0
233	695	0	10000	2	1	0	2	0
230	696	0	10000	2	1	0	2	0
229	697	0	10000	2	1	0	2	0
225	698	0	10000	2	1	0	2	0
222	699	0	10000	2	1	0	2	0
219	700	0	10000	2	1	0	2	0
219	701	0	10000	2	1	0	2	0
219	702	0	10000	2	1	0	2	0
219	703	0	10000	2	1	0	2	0
222	704	0	10000	2	1	0	2	0
225	705	0	10000	2	1	0	2	0
228	706	0	10000	2	1	0	2	0
229	707	0	10000	2	1	0	2	0
230	708	0	10000	2	1	0	2	0
230	709	0	10000	2	1	0	2	0
230	710	0	10000	2	1	0	2	0
226	711	0	10000	2	1	0	2	0
223	712	0	10000	2	1	0	2	0
217	713	0	10000	2	1	0	2	0
210	714	0	10000	2	1	0	2	0
201	715	0	10000	2	1	0	2	0
192	716	0	10000	2	1	0	2	0
185	717	0	10000	2	1	0	2	0
178	718	0	10000	2	1	0	2	0
172	719	0	10000	2	1	0	2	0
166	720	0	10000	2	1	0	2	0
161	721	0	10000	2	1	0	2	0
157	722	0	10000	2	1	0	2	0
152	723	0	10000	2	1	0	2	0
150	724	0	10000	2	1	0	2	0
147	725	0	10000	2	1	0	2	0
144	726	0	10000	2	1	0	2	0
140	727	0	10000	2	1	0	2	0
136	728	0	10000	2	1	0	2	0
131	729	0	10000	2	1	0	2	0
128	730	0	10000	2	1	0	2	0
126	731	0	10000	2	1	0	2	0
123	732	0	10000	2	1	0	2	0
118	733	0	10000	2	1	0	2	0
113	734	0	10000	2	1	0	2	0
108	735	0	10000	2	1	0	2	0
103	736	0	10000	2	1	0	2	0
100	737	0	10000	2	1	0	2	0
96	738	0	10000	2	1	0	2	0
92	739	0	10000	2	1	0	2	0
87	740	0	10000	2	1	0	2	0
83	741	0	10000	2	1	0	2	0
80	742	0	10000	2	1	0	2	0
76	743	0	10000	2	1	0	2	0
74	744	0	10000	2	1	0	2	0
74	745	0	10000	2	1	0	2	0
75	746	0	10000	2	1	0	2	0
75	747	0	10000	2	1	0	2	0
74	748	0	10000	2	1	0	2	0
73	749	0	10000	2	1	0	2	0
72	750	0	10000	2	1	0	2	0
70	751	0	10000	2	1	0	2	0
69	752	0	10000	2	1	0	2	0
68	753	0	10000	2	1	0	2	0
66	754	0	10000	2	1	0	2	0
65	755	0	10000	2	1	0	2	0
63	756	0	10000	2	1	0	2	0
64	757	0	10000	2	1	0	2	0
65	758	0	10000	2	1	0	2	0
64	759	0	10000	2	1	0	2	0
62	760	0	10000	2	1	0	2	0
60	761	0	10000	2	1	0	2	0
58	762	0	10000	2	1	0	2	0
56	763	0	10000	2	1	0	2	0
55	764	0	10000	2	1	0	2	0
56	765	0	10000	2	1	0	2	0
57	766	0	10000	2	1	0	2	0
58	767	0	10000	2	1	0	2	0
60	768	0	10000	2	1	0	2	0
61	769	0	10000	2	1	0	2	0
61	770	0	10000	2	1	0	2	0
61	771	0	10000	2	1	0	2	0
61	772	0	10000	2	1	0	2	0
59	773	0	10000	2	1	0	2	0
58	774	0	10000	2	1	0	2	0
58	775	0	10000	2	1	0	2	0
58	776	0	10000	2	1	0	2	0
59	777	0	10000	2	1	0	2	0
59	778	0	10000	2	1	0	2	0
58	779	0	10000	2	1	0	2	0
57	780	0	10000	2	1	0	2	0
57	781	0	10000	2	1	0	2	0
56	782	0	10000	2	1	0	2	0
54	783	0	10000	2	1	0	2	0
55	784	0	10000	2	1	0	2	0
58	785	0	10000	2	1	0	2	0
61	786	0	10000	2	1	0	2	0
62	787	0	10000	2	1	0	2	0
62	788	0	10000	2	1	0	2	0
60	789	0	10000	2	1	0	2	0
61	790	0	10000	2	1	0	2	0
63	791	0	10000	2	1	0	2	0
66	792	0	10000	2	1	0	2	0
67	793	0	10000	2	1	0	2	0
65	794	0	10000	2	1	0	2	0
67	795	0	10000	2	1	0	2	0
71	796	0	10000	2	1	0	2	0
75	797	0	10000	2	1	0	2	0
77	798	0	10000	2	1	0	2	0
76	799	0	10000	2	1	0	2	0
72	800	0	10000	2	1	0	2	0
72	801	0	10000	2	1	0	2	0
74	802	0	10000	2	1	0	2	0
79	803	0	10000	2	1	0	2	0
83	804	0	10000	2	1	0	2	0
85	805	0	10000	2	1	0	2	0
84	806	0	10000	2	1	0	2	0
80	807	0	10000	2	1	0	2	0
80	808	0	10000	2	1	0	2	0
78	809	0	10000	2	1	0	2	0
76	810	0	10000	2	1	0	2	0
78	811	0	10000	2	1	0	2	0
79	812	0	10000	2	1	0	2	0
82	813	0	10000	2	1	0	2	0
83	814	0	10000	2	1	0	2	0
83	815	0	10000	2	1	0	2	0
86	816	0	10000	2	1	0	2	0
91	817	0	10000	2	1	0	2	0
96	818	0	10000	2	1	0	2	0
98	819	0	10000	2	1	0	2	0
97	820	0	10000	2	1	0	2	0
94	821	0	10000	2	1	0	2	0
89	822	0	10000	2	1	0	2	0
86	823	0	10000	2	1	0	2	0
83	824	0	10000	2	1	0	2	0
82	825	0	10000	2	1	0	2	0
80	826	0	10000	2	1	0	2	0
77	827	0	10000	2	1	0	2	0
74	828	0	10000	2	1	0	2	0
70	829	0	10000	2	1	0	2	0
68	830	0	10000	2	1	0	2	0
66	831	0	10000	2	1	0	2	0
63	832	0	10000	2	1	0	2	0
63	833	0	10000	2	1	0	2	0
63	834	0	10000	2	1	0	2	0
64	835	0	10000	2	1	0	2	0
63	836	0	10000	2	1	0	2	0
64	837	0	10000	2	1	0	2	0
64	838	0	10000	2	1	0	2	0
61	839	0	10000	2	1	0	2	0
58	840	0	10000	2	1	0	2	0
56	841	0	10000	2	1	0	2	0
54	842	0	10000	2	1	0	2	0
53	843	0	10000	2	1	0	2	0
55	844	0	10000	2	1	0	2	0
57	845	0	10000	2	1	0	2	0
59	846	0	10000	2	1	0	2	0
59	847	0	10000	2	1	0	2	0
59	848	0	10000	2	1	0	2	0
60	849	0	10000	2	1	0	2	0
62	850	0	10000	2	1	0	2	0
66	851	0	10000	2	1	0	2	0
67	852	0	10000	2	1	0	2	0
68	853	0	10000	2	1	0	2	0
68	854	0	10000	2	1	0	2	0
66	855	0	10000	2	1	0	2	0
63	856	0	10000	2	1	0	2	0
62	857	0	10000	2	1	0	2	0
62	858	0	10000	2	1	0	2	0
60	859	0	10000	2	1	0	2	0
57	860	0	10000	2	1	0	2	0
59	861	0	10000	2	1	0	2	0
61	862	0	10000	2	1	0	2	0
59	863	0	10000	2	1	0	2	0
60	864	0	10000	2	1	0	2	0
61	865	0	10000	2	1	0	2	0
63	866	0	10000	2	1	0	2	0
62	867	0	10000	2	1	0	2	0
66	868	0	10000	2	1	0	2	0
71	869	0	10000	2	1	0	2	0
75	870	0	10000	2	1	0	2	0
79	871	0	10000	2	1	0	2	0
81	872	0	10000	2	1	0	2	0
83	873	0	10000	2	1	0	2	0
80	874	0	10000	2	1	0	2	0
77	875	0	10000	2	1	0	2	0
75	876	0	10000	2	1	0	2	0
75	877	0	10000	2	1	0	2	0
72	878	0	10000	2	1	0	2	0
71	879	0	10000	2	1	0	2	0
67	880	0	10000	2	1	0	2	0
68	881	0	10000	2	1	0	2	0
72	882	0	10000	2	1	0	2	0
74	883	0	10000	2	1	0	2	0
71	884	0	10000	2	1	0	2	0
70	885	0	10000	2	1	0	2	0
72	886	0	10000	2	1	0	2	0
74	887	0	10000	2	1	0	2	0
75	888	0	10000	2	1	0	2	0
73	889	0	10000	2	1	0	2	0
74	890	0	10000	2	1	0	2	0
78	891	0	10000	2	1	0	2	0
79	892	0	10000	2	1	0	2	0
77	893	0	10000	2	1	0	2	0
75	894	0	10000	2	1	0	2	0
77	895	0	10000	2	1	0	2	0
80	896	0	10000	2	1	0	2	0
80	897	0	10000	2	1	0	2	0
77	898	0	10000	2	1	0	2	0
74	899	0	10000	2	1	0	2	0
73	900	0	10000	2	1	0	2	0
73	901	0	10000	2	1	0	2	0
72	902	0	10000	2	1	0	2	0
74	903	0	10000	2	1	0	2	0
73	904	0	10000	2	1	0	2	0
71	905	0	10000	2	1	0	2	0
73	906	0	10000	2	1	0	2	0
70	907	0	10000	2	1	0	2	0
69	908	0	10000	2	1	0	2	0
68	909	0	10000	2	1	0	2	0
68	910	0	10000	2	1	0	2	0
67	911	0	10000	2	1	0	2	0
73	912	0	10000	2	1	0	2	0
76	913	0	10000	2	1	0	2	0
74	914	0	10000	2	1	0	2	0
73	915	0	10000	2	1	0	2	0
72	916	0	10000	2	1	0	2	0
71	917	0	10000	2	1	0	2	0
81	918	0	10000	2	1	0	2	0
100	919	0	10000	2	1	0	2	0
121	920	0	10000	2	1	0	2	0
131	921	0	10000	2	1	0	2	0
128	922	0	10000	2	1	0	2	0
133	923	0	10000	2	1	0	2	0
144	924	0	10000	2	1	0	2	0
158	925	0	10000	2	1	0	2	0
172	926	0	10000	2	1	0	2	0
177	927	0	10000	2	1	0	2	0
176	928	0	10000	2	1	0	2	0
178	929	0	10000	2	1	0	2	0
194	930	0	10000	2	1	0	2	0
204	931	0	10000	2	1	0	2	0
227	932	0	10000	2	1	0	2	0
240	933	0	10000	2	1	0	2	0
235	934	0	10000	2	1	0	2	0
229	935	0	10000	2	1	0	2	0
218	936	0	10000	2	1	0	2	0
209	937	0	10000	2	1	0	2	0
203	938	0	10000	2	1	0	2	0
201	939	0	10000	2	1	0	2	0
202	940	0	10000	2	1	0	2	0
220	941	0	10000	2	1	0	2	0
216	942	0	10000	2	1	0	2	0
207	943	0	10000	2	1	0	2	0
205	944	0	10000	2	1	0	2	0
201	945	0	10000	2	1	0	2	0
198	946	0	10000	2	1	0	2	0
198	947	0	10000	2	1	0	2	0
214	948	0	10000	2	1	0	2	0
221	949	0	10000	2	1	0	2	0
220	950	0	10000	2	1	0	2	0
213	951	0	10000	2	1	0	2	0
211	952	0	10000	2	1	0	2	0
227	953	0	10000	2	1	0	2	0
231	954	0	10000	2	1	0	2	0
223	955	0	10000	2	1	0	2	0
221	956	0	10000	2	1	0	2	0
224	957	0	10000	2	1	0	2	0
217	958	0	10000	2	1	0	2	0
214	959	0	10000	2	1	0	2	0
208	960	0	10000	2	1	0	2	0
199	961	0	10000	2	1	0	2	0
190	962	0	10000	2	1	0	2	0
189	963	0	10000	2	1	0	2	0
189	964	0	10000	2	1	0	2	0
186	965	0	10000	2	1	0	2	0
185	966	0	10000	2	1	0	2	0
186	967	0	10000	2	1	0	2	0
191	968	0	10000	2	1	0	2	0
201	969	0	10000	2	1	0	2	0
208	970	0	10000	2	1	0	2	0
210	971	0	10000	2	1	0	2	0
209	972	0	10000	2	1	0	2	0
205	973	0	10000	2	1	0	2	0
199	974	0	10000	2	1	0	2	0
194	975	0	10000	2	1	0	2	0
187	976	0	10000	2	1	0	2	0
181	977	0	10000	2	1	0	2	0
176	978	0	10000	2	1	0	2	0
170	979	0	10000	2	1	0	2	0
166	980	0	10000	2	1	0	2	0
160	981	0	10000	2	1	0	2	0
152	982	0	10000	2	1	0	2	0
146	983	0	10000	2	1	0	2	0
140	984	0	10000	2	1	0	2	0
138	985	0	10000	2	1	0	2	0
136	986	0	10000	2	1	0	2	0
134	987	0	10000	2	1	0	2	0
130	988	0	10000	2	1	0	2	0
131	989	0	10000	2	1	0	2	0
140	990	0	10000	2	1	0	2	0
153	991	0	10000	2	1	0	2	0
164	992	0	10000	2	1	0	2	0
169	993	0	10000	2	1	0	2	0
176	994	0	10000	2	1	0	2	0
189	995	0	10000	2	1	0	2	0
201	996	0	10000	2	1	0	2	0
210	997	0	10000	2	1	0	2	0
218	998	0	10000	2	1	0	2	0
219	999	0	10000	2	1	0	2	0
217	1000	0	10000	2	1	0	2	0
26	1	7	10000	3	1	0	3	0
26	2	7	10000	3	1	0	3	0
26	3	7	10000	3	1	0	3	0
26	4	7	10000	3	1	0	3	0
26	5	7	10000	3	1	0	3	0
27	6	7	10000	3	1	0	3	0
26	7	7	10000	3	1	0	3	0
24	8	7	10000	3	1	0	3	0
23	9	7	10000	3	1	0	3	0
24	10	7	10000	3	1	0	3	0
25	11	7	10000	3	1	0	3	0
26	12	7	10000	3	1	0	3	0
25	13	7	10000	3	1	0	3	0
24	14	7	10000	3	1	0	3	0
23	15	7	10000	3	1	0	3	0
24	16	7	10000	3	1	0	3	0
22	17	7	10000	3	1	0	3	0
22	18	7	10000	3	1	0	3	0
22	19	7	10000	3	1	0	3	0
21	20	7	10000	3	1	0	3	0
20	20	7	10000	3	1	0	3	0
21	21	7	10000	3	1	0	3	0
21	23	7	10000	3	1	0	3	0
21	24	7	10000	3	1	0	3	0
20	25	7	10000	3	1	0	3	0
21	26	7	10000	3	1	0	3	0
23	27	7	10000	3	1	0	3	0
25	28	7	10000	3	1	0	3	0
26	29	7	10000	3	1	0	3	0
26	30	7	10000	3	1	0	3	0
26	30	7	10000	3	1	0	3	0
25	31	7	10000	3	1	0	3	0
26	33	7	10000	3	1	0	3	0
26	34	7	10000	3	1	0	3	0
25	35	7	10000	3	1	0	3	0
26	36	7	10000	3	1	0	3	0
27	37	7	10000	3	1	0	3	0
28	38	7	10000	3	1	0	3	0
30	39	7	10000	3	1	0	3	0
28	40	7	10000	3	1	0	3	0
26	40	7	10000	3	1	0	3	0
27	41	7	10000	3	1	0	3	0
27	43	7	10000	3	1	0	3	0
27	44	7	10000	3	1	0	3	0
27	45	7	10000	3	1	0	3	0
28	46	7	10000	3	1	0	3	0
30	47	7	10000	3	1	0	3	0
31	48	7	10000	3	1	0	3	0
31	49	7	10000	3	1	0	3	0
31	50	7	10000	3	1	0	3	0
30	50	7	10000	3	1	0	3	0
28	51	7	10000	3	1	0	3	0
28	53	7	10000	3	1	0	3	0
28	54	7	10000	3	1	0	3	0
28	55	7	10000	3	1	0	3	0
29	56	7	10000	3	1	0	3	0
29	57	7	10000	3	1	0	3	0
29	58	7	10000	3	1	0	3	0
29	59	7	10000	3	1	0	3	0
27	60	7	10000	3	1	0	3	0
25	60	7	10000	3	1	0	3	0
26	61	7	10000	3	1	0	3	0
26	63	7	10000	3	1	0	3	0
24	64	7	10000	3	1	0	3	0
25	65	7	10000	3	1	0	3	0
24	66	7	10000	3	1	0	3	0
24	67	7	10000	3	1	0	3	0
24	68	7	10000	3	1	0	3	0
23	69	7	10000	3	1	0	3	0
23	70	7	10000	3	1	0	3	0
23	70	7	10000	3	1	0	3	0
23	71	7	10000	3	1	0	3	0
22	73	7	10000	3	1	0	3	0
22	74	7	10000	3	1	0	3	0
22	75	7	10000	3	1	0	3	0
22	76	7	10000	3	1	0	3	0
22	77	7	10000	3	1	0	3	0
22	78	7	10000	3	1	0	3	0
23	79	7	10000	3	1	0	3	0
21	80	7	10000	3	1	0	3	0
20	80	7	10000	3	1	0	3	0
20	81	7	10000	3	1	0	3	0
19	83	7	10000	3	1	0	3	0
20	84	7	10000	3	1	0	3	0
20	85	7	10000	3	1	0	3	0
20	86	7	10000	3	1	0	3	0
19	87	7	10000	3	1	0	3	0
18	88	7	10000	3	1	0	3	0
17	89	7	10000	3	1	0	3	0
18	90	7	10000	3	1	0	3	0
19	90	7	10000	3	1	0	3	0
20	91	7	10000	3	1	0	3	0
19	93	7	10000	3	1	0	3	0
18	94	7	10000	3	1	0	3	0
17	95	7	10000	3	1	0	3	0
17	96	7	10000	3	1	0	3	0
16	97	7	10000	3	1	0	3	0
16	98	7	10000	3	1	0	3	0
16	99	7	10000	3	1	0	3	0
15	100	7	10000	3	1	0	3	0
14	100	7	10000	3	1	0	3	0
14	101	7	10000	3	1	0	3	0
14	103	7	10000	3	1	0	3	0
14	104	7	10000	3	1	0	3	0
14	105	7	10000	3	1	0	3	0
15	106	7	10000	3	1	0	3	0
16	107	7	10000	3	1	0	3	0
16	108	7	10000	3	1	0	3	0
17	109	7	10000	3	1	0	3	0
18	110	7	10000	3	1	0	3	0
19	110	7	10000	3	1	0	3	0
18	111	7	10000	3	1	0	3	0
17	113	7	10000	3	1	0	3	0
17	114	7	10000	3	1	0	3	0
16	115	7	10000	3	1	0	3	0
16	116	7	10000	3	1	0	3	0
15	117	7	10000	3	1	0	3	0
15	118	7	10000	3	1	0	3	0
15	119	7	10000	3	1	0	3	0
17	120	7	10000	3	1	0	3	0
19	120	7	10000	3	1	0	3	0
20	121	7	10000	3	1	0	3	0
20	123	7	10000	3	1	0	3	0
19	124	7	10000	3	1	0	3	0
19	125	7	10000	3	1	0	3	0
19	126	7	10000	3	1	0	3	0
18	127	7	10000	3	1	0	3	0
17	128	7	10000	3	1	0	3	0
17	129	7	10000	3	1	0	3	0
18	130	7	10000	3	1	0	3	0
20	130	7	10000	3	1	0	3	0
20	131	7	10000	3	1	0	3	0
20	133	7	10000	3	1	0	3	0
19	134	7	10000	3	1	0	3	0
20	135	7	10000	3	1	0	3	0
20	136	7	10000	3	1	0	3	0
22	137	7	10000	3	1	0	3	0
23	138	7	10000	3	1	0	3	0
23	139	7	10000	3	1	0	3	0
22	140	7	10000	3	1	0	3	0
22	140	7	10000	3	1	0	3	0
22	141	7	10000	3	1	0	3	0
22	143	7	10000	3	1	0	3	0
22	144	7	10000	3	1	0	3	0
22	145	7	10000	3	1	0	3	0
23	146	7	10000	3	1	0	3	0
23	147	7	10000	3	1	0	3	0
21	148	7	10000	3	1	0	3	0
20	149	7	10000	3	1	0	3	0
20	150	7	10000	3	1	0	3	0
20	150	7	10000	3	1	0	3	0
20	151	7	10000	3	1	0	3	0
20	153	7	10000	3	1	0	3	0
20	154	7	10000	3	1	0	3	0
21	155	7	10000	3	1	0	3	0
22	156	7	10000	3	1	0	3	0
23	157	7	10000	3	1	0	3	0
22	158	7	10000	3	1	0	3	0
23	159	7	10000	3	1	0	3	0
21	160	7	10000	3	1	0	3	0
20	160	7	10000	3	1	0	3	0
20	161	7	10000	3	1	0	3	0
20	163	7	10000	3	1	0	3	0
20	164	7	10000	3	1	0	3	0
22	165	7	10000	3	1	0	3	0
23	166	7	10000	3	1	0	3	0
23	167	7	10000	3	1	0	3	0
23	168	7	10000	3	1	0	3	0
24	169	7	10000	3	1	0	3	0
32	170	7	10000	3	1	0	3	0
38	170	7	10000	3	1	0	3	0
38	171	7	10000	3	1	0	3	0
38	173	7	10000	3	1	0	3	0
40	174	7	10000	3	1	0	3	0
44	175	7	10000	3	1	0	3	0
46	176	7	10000	3	1	0	3	0
55	177	7	10000	3	1	0	3	0
65	178	7	10000	3	1	0	3	0
73	179	7	10000	3	1	0	3	0
78	180	7	10000	3	1	0	3	0
79	180	7	10000	3	1	0	3	0
79	181	7	10000	3	1	0	3	0
78	183	7	10000	3	1	0	3	0
75	184	7	10000	3	1	0	3	0
73	185	7	10000	3	1	0	3	0
73	186	7	10000	3	1	0	3	0
74	187	7	10000	3	1	0	3	0
74	188	7	10000	3	1	0	3	0
74	189	7	10000	3	1	0	3	0
71	190	7	10000	3	1	0	3	0
71	190	7	10000	3	1	0	3	0
72	191	7	10000	3	1	0	3	0
71	193	7	10000	3	1	0	3	0
69	194	7	10000	3	1	0	3	0
67	195	7	10000	3	1	0	3	0
65	196	7	10000	3	1	0	3	0
63	197	7	10000	3	1	0	3	0
62	198	7	10000	3	1	0	3	0
61	199	7	10000	3	1	0	3	0
62	200	7	10000	3	1	0	3	0
64	200	7	10000	3	1	0	3	0
64	201	7	10000	3	1	0	3	0
62	203	7	10000	3	1	0	3	0
59	204	7	10000	3	1	0	3	0
61	205	7	10000	3	1	0	3	0
69	206	7	10000	3	1	0	3	0
69	207	7	10000	3	1	0	3	0
73	208	7	10000	3	1	0	3	0
78	209	7	10000	3	1	0	3	0
85	210	7	10000	3	1	0	3	0
90	210	7	10000	3	1	0	3	0
92	211	7	10000	3	1	0	3	0
92	213	7	10000	3	1	0	3	0
92	214	7	10000	3	1	0	3	0
91	215	7	10000	3	1	0	3	0
87	216	7	10000	3	1	0	3	0
83	217	7	10000	3	1	0	3	0
81	218	7	10000	3	1	0	3	0
77	219	7	10000	3	1	0	3	0
73	220	7	10000	3	1	0	3	0
69	220	7	10000	3	1	0	3	0
69	221	7	10000	3	1	0	3	0
69	223	7	10000	3	1	0	3	0
68	224	7	10000	3	1	0	3	0
67	225	7	10000	3	1	0	3	0
64	226	7	10000	3	1	0	3	0
61	227	7	10000	3	1	0	3	0
59	228	7	10000	3	1	0	3	0
56	229	7	10000	3	1	0	3	0
55	230	7	10000	3	1	0	3	0
56	230	7	10000	3	1	0	3	0
55	231	7	10000	3	1	0	3	0
56	233	7	10000	3	1	0	3	0
55	234	7	10000	3	1	0	3	0
55	235	7	10000	3	1	0	3	0
55	236	7	10000	3	1	0	3	0
55	237	7	10000	3	1	0	3	0
55	238	7	10000	3	1	0	3	0
54	239	7	10000	3	1	0	3	0
51	240	7	10000	3	1	0	3	0
48	240	7	10000	3	1	0	3	0
48	241	7	10000	3	1	0	3	0
48	243	7	10000	3	1	0	3	0
48	244	7	10000	3	1	0	3	0
48	245	7	10000	3	1	0	3	0
46	246	7	10000	3	1	0	3	0
44	247	7	10000	3	1	0	3	0
44	248	7	10000	3	1	0	3	0
43	249	7	10000	3	1	0	3	0
44	250	7	10000	3	1	0	3	0
44	250	7	10000	3	1	0	3	0
42	251	7	10000	3	1	0	3	0
40	253	7	10000	3	1	0	3	0
37	254	7	10000	3	1	0	3	0
37	255	7	10000	3	1	0	3	0
36	256	7	10000	3	1	0	3	0
36	257	7	10000	3	1	0	3	0
38	258	7	10000	3	1	0	3	0
37	259	7	10000	3	1	0	3	0
36	260	7	10000	3	1	0	3	0
34	260	7	10000	3	1	0	3	0
34	261	7	10000	3	1	0	3	0
32	263	7	10000	3	1	0	3	0
32	264	7	10000	3	1	0	3	0
31	265	7	10000	3	1	0	3	0
31	266	7	10000	3	1	0	3	0
31	267	7	10000	3	1	0	3	0
30	268	7	10000	3	1	0	3	0
28	269	7	10000	3	1	0	3	0
29	270	7	10000	3	1	0	3	0
30	270	7	10000	3	1	0	3	0
29	271	7	10000	3	1	0	3	0
28	273	7	10000	3	1	0	3	0
27	274	7	10000	3	1	0	3	0
27	275	7	10000	3	1	0	3	0
27	276	7	10000	3	1	0	3	0
28	277	7	10000	3	1	0	3	0
29	278	7	10000	3	1	0	3	0
31	279	7	10000	3	1	0	3	0
32	280	7	10000	3	1	0	3	0
31	280	7	10000	3	1	0	3	0
30	281	7	10000	3	1	0	3	0
29	283	7	10000	3	1	0	3	0
30	284	7	10000	3	1	0	3	0
31	285	7	10000	3	1	0	3	0
32	286	7	10000	3	1	0	3	0
31	287	7	10000	3	1	0	3	0
31	288	7	10000	3	1	0	3	0
31	289	7	10000	3	1	0	3	0
31	290	7	10000	3	1	0	3	0
32	290	7	10000	3	1	0	3	0
31	291	7	10000	3	1	0	3	0
29	293	7	10000	3	1	0	3	0
29	294	7	10000	3	1	0	3	0
29	295	7	10000	3	1	0	3	0
29	296	7	10000	3	1	0	3	0
27	297	7	10000	3	1	0	3	0
27	298	7	10000	3	1	0	3	0
26	299	7	10000	3	1	0	3	0
25	300	7	10000	3	1	0	3	0
24	300	7	10000	3	1	0	3	0
23	301	7	10000	3	1	0	3	0
23	303	7	10000	3	1	0	3	0
23	304	7	10000	3	1	0	3	0
23	305	7	10000	3	1	0	3	0
22	306	7	10000	3	1	0	3	0
21	307	7	10000	3	1	0	3	0
20	308	7	10000	3	1	0	3	0
19	309	7	10000	3	1	0	3	0
19	310	7	10000	3	1	0	3	0
20	310	7	10000	3	1	0	3	0
19	311	7	10000	3	1	0	3	0
18	313	7	10000	3	1	0	3	0
17	314	7	10000	3	1	0	3	0
17	315	7	10000	3	1	0	3	0
17	316	7	10000	3	1	0	3	0
17	317	7	10000	3	1	0	3	0
17	318	7	10000	3	1	0	3	0
17	319	7	10000	3	1	0	3	0
18	320	7	10000	3	1	0	3	0
17	320	7	10000	3	1	0	3	0
18	321	7	10000	3	1	0	3	0
18	323	7	10000	3	1	0	3	0
19	324	7	10000	3	1	0	3	0
19	325	7	10000	3	1	0	3	0
20	326	7	10000	3	1	0	3	0
19	327	7	10000	3	1	0	3	0
19	328	7	10000	3	1	0	3	0
18	329	7	10000	3	1	0	3	0
18	330	7	10000	3	1	0	3	0
19	330	7	10000	3	1	0	3	0
18	331	7	10000	3	1	0	3	0
17	333	7	10000	3	1	0	3	0
17	334	7	10000	3	1	0	3	0
17	335	7	10000	3	1	0	3	0
18	336	7	10000	3	1	0	3	0
19	337	7	10000	3	1	0	3	0
19	338	7	10000	3	1	0	3	0
19	339	7	10000	3	1	0	3	0
19	340	7	10000	3	1	0	3	0
17	340	7	10000	3	1	0	3	0
17	341	7	10000	3	1	0	3	0
17	343	7	10000	3	1	0	3	0
17	344	7	10000	3	1	0	3	0
17	345	7	10000	3	1	0	3	0
18	346	7	10000	3	1	0	3	0
18	347	7	10000	3	1	0	3	0
19	348	7	10000	3	1	0	3	0
18	349	7	10000	3	1	0	3	0
18	350	7	10000	3	1	0	3	0
19	350	7	10000	3	1	0	3	0
19	351	7	10000	3	1	0	3	0
19	353	7	10000	3	1	0	3	0
19	354	7	10000	3	1	0	3	0
18	355	7	10000	3	1	0	3	0
18	356	7	10000	3	1	0	3	0
17	357	7	10000	3	1	0	3	0
17	358	7	10000	3	1	0	3	0
17	359	7	10000	3	1	0	3	0
18	360	7	10000	3	1	0	3	0
17	360	7	10000	3	1	0	3	0
17	361	7	10000	3	1	0	3	0
18	363	7	10000	3	1	0	3	0
20	364	7	10000	3	1	0	3	0
21	365	7	10000	3	1	0	3	0
23	366	7	10000	3	1	0	3	0
23	367	7	10000	3	1	0	3	0
23	368	7	10000	3	1	0	3	0
22	369	7	10000	3	1	0	3	0
21	370	7	10000	3	1	0	3	0
23	370	7	10000	3	1	0	3	0
22	371	7	10000	3	1	0	3	0
21	373	7	10000	3	1	0	3	0
22	374	7	10000	3	1	0	3	0
21	375	7	10000	3	1	0	3	0
20	376	7	10000	3	1	0	3	0
20	377	7	10000	3	1	0	3	0
20	378	7	10000	3	1	0	3	0
20	379	7	10000	3	1	0	3	0
21	380	7	10000	3	1	0	3	0
20	380	7	10000	3	1	0	3	0
20	381	7	10000	3	1	0	3	0
19	383	7	10000	3	1	0	3	0
19	384	7	10000	3	1	0	3	0
18	385	7	10000	3	1	0	3	0
18	386	7	10000	3	1	0	3	0
17	387	7	10000	3	1	0	3	0
16	388	7	10000	3	1	0	3	0
17	389	7	10000	3	1	0	3	0
17	390	7	10000	3	1	0	3	0
19	390	7	10000	3	1	0	3	0
18	391	7	10000	3	1	0	3	0
19	393	7	10000	3	1	0	3	0
19	394	7	10000	3	1	0	3	0
18	395	7	10000	3	1	0	3	0
18	396	7	10000	3	1	0	3	0
18	397	7	10000	3	1	0	3	0
18	398	7	10000	3	1	0	3	0
18	399	7	10000	3	1	0	3	0
17	400	7	10000	3	1	0	3	0
15	400	7	10000	3	1	0	3	0
15	401	7	10000	3	1	0	3	0
15	403	7	10000	3	1	0	3	0
15	404	7	10000	3	1	0	3	0
16	405	7	10000	3	1	0	3	0
16	406	7	10000	3	1	0	3	0
16	407	7	10000	3	1	0	3	0
17	408	7	10000	3	1	0	3	0
16	409	7	10000	3	1	0	3	0
16	410	7	10000	3	1	0	3	0
17	410	7	10000	3	1	0	3	0
17	411	7	10000	3	1	0	3	0
17	413	7	10000	3	1	0	3	0
17	414	7	10000	3	1	0	3	0
16	415	7	10000	3	1	0	3	0
16	416	7	10000	3	1	0	3	0
17	417	7	10000	3	1	0	3	0
16	418	7	10000	3	1	0	3	0
16	419	7	10000	3	1	0	3	0
15	420	7	10000	3	1	0	3	0
14	420	7	10000	3	1	0	3	0
14	421	7	10000	3	1	0	3	0
14	423	7	10000	3	1	0	3	0
14	424	7	10000	3	1	0	3	0
15	425	7	10000	3	1	0	3	0
15	426	7	10000	3	1	0	3	0
15	427	7	10000	3	1	0	3	0
14	428	7	10000	3	1	0	3	0
13	429	7	10000	3	1	0	3	0
14	430	7	10000	3	1	0	3	0
16	430	7	10000	3	1	0	3	0
17	431	7	10000	3	1	0	3	0
17	433	7	10000	3	1	0	3	0
18	434	7	10000	3	1	0	3	0
20	435	7	10000	3	1	0	3	0
21	436	7	10000	3	1	0	3	0
21	437	7	10000	3	1	0	3	0
22	438	7	10000	3	1	0	3	0
25	439	7	10000	3	1	0	3	0
28	440	7	10000	3	1	0	3	0
29	440	7	10000	3	1	0	3	0
29	441	7	10000	3	1	0	3	0
29	443	7	10000	3	1	0	3	0
28	444	7	10000	3	1	0	3	0
28	445	7	10000	3	1	0	3	0
27	446	7	10000	3	1	0	3	0
27	447	7	10000	3	1	0	3	0
25	448	7	10000	3	1	0	3	0
24	449	7	10000	3	1	0	3	0
24	450	7	10000	3	1	0	3	0
24	450	7	10000	3	1	0	3	0
23	451	7	10000	3	1	0	3	0
22	453	7	10000	3	1	0	3	0
23	454	7	10000	3	1	0	3	0
24	455	7	10000	3	1	0	3	0
24	456	7	10000	3	1	0	3	0
24	457	7	10000	3	1	0	3	0
25	458	7	10000	3	1	0	3	0
26	459	7	10000	3	1	0	3	0
26	460	7	10000	3	1	0	3	0
24	460	7	10000	3	1	0	3	0
23	461	7	10000	3	1	0	3	0
22	463	7	10000	3	1	0	3	0
22	464	7	10000	3	1	0	3	0
21	465	7	10000	3	1	0	3	0
21	466	7	10000	3	1	0	3	0
20	467	7	10000	3	1	0	3	0
19	468	7	10000	3	1	0	3	0
18	469	7	10000	3	1	0	3	0
18	470	7	10000	3	1	0	3	0
19	470	7	10000	3	1	0	3	0
18	471	7	10000	3	1	0	3	0
17	473	7	10000	3	1	0	3	0
17	474	7	10000	3	1	0	3	0
19	475	7	10000	3	1	0	3	0
20	476	7	10000	3	1	0	3	0
22	477	7	10000	3	1	0	3	0
22	478	7	10000	3	1	0	3	0
22	479	7	10000	3	1	0	3	0
22	480	7	10000	3	1	0	3	0
20	480	7	10000	3	1	0	3	0
20	481	7	10000	3	1	0	3	0
20	483	7	10000	3	1	0	3	0
19	484	7	10000	3	1	0	3	0
20	485	7	10000	3	1	0	3	0
20	486	7	10000	3	1	0	3	0
21	487	7	10000	3	1	0	3	0
22	488	7	10000	3	1	0	3	0
24	489	7	10000	3	1	0	3	0
25	490	7	10000	3	1	0	3	0
27	490	7	10000	3	1	0	3	0
28	491	7	10000	3	1	0	3	0
29	493	7	10000	3	1	0	3	0
29	494	7	10000	3	1	0	3	0
28	495	7	10000	3	1	0	3	0
26	496	7	10000	3	1	0	3	0
25	497	7	10000	3	1	0	3	0
25	498	7	10000	3	1	0	3	0
26	499	7	10000	3	1	0	3	0
26	500	7	10000	3	1	0	3	0
25	500	7	10000	3	1	0	3	0
26	501	7	10000	3	1	0	3	0
26	503	7	10000	3	1	0	3	1
27	504	7	10000	3	1	0	3	1
30	505	7	10000	3	1	0	3	1
32	506	7	10000	3	1	0	3	1
33	507	7	10000	3	1	0	3	1
33	508	7	10000	3	1	0	3	1
33	509	7	10000	3	1	0	3	1
32	510	7	10000	3	1	0	3	1
33	510	7	10000	3	1	0	3	1
33	511	7	10000	3	1	0	3	1
34	513	7	10000	3	1	0	3	1
32	514	7	10000	3	1	0	3	1
31	515	7	10000	3	1	0	3	1
31	516	7	10000	3	1	0	3	1
29	517	7	10000	3	1	0	3	1
30	518	7	10000	3	1	0	3	1
29	519	7	10000	3	1	0	3	1
28	520	7	10000	3	1	0	3	1
25	520	7	10000	3	1	0	3	1
26	521	7	10000	3	1	0	3	1
27	523	7	10000	3	1	0	3	1
27	524	7	10000	3	1	0	3	1
26	525	7	10000	3	1	0	3	1
25	526	7	10000	3	1	0	3	1
25	527	7	10000	3	1	0	3	1
25	528	7	10000	3	1	0	3	1
26	529	7	10000	3	1	0	3	1
26	530	7	10000	3	1	0	3	1
26	530	7	10000	3	1	0	3	1
26	531	7	10000	3	1	0	3	1
26	533	7	10000	3	1	0	3	1
25	534	7	10000	3	1	0	3	1
28	535	7	10000	3	1	0	3	1
32	536	7	10000	3	1	0	3	1
36	537	7	10000	3	1	0	3	1
38	538	7	10000	3	1	0	3	1
38	539	7	10000	3	1	0	3	1
41	540	7	10000	3	1	0	3	1
44	540	7	10000	3	1	0	3	1
48	541	7	10000	3	1	0	3	1
51	543	7	10000	3	1	0	3	1
52	544	7	10000	3	1	0	3	1
51	545	7	10000	3	1	0	3	1
50	546	7	10000	3	1	0	3	1
51	547	7	10000	3	1	0	3	1
48	548	7	10000	3	1	0	3	1
47	549	7	10000	3	1	0	3	1
47	550	7	10000	3	1	0	3	1
49	550	7	10000	3	1	0	3	1
48	551	7	10000	3	1	0	3	1
48	553	7	10000	3	1	0	3	0
50	554	7	10000	3	1	0	3	0
51	555	7	10000	3	1	0	3	0
50	556	7	10000	3	1	0	3	0
50	557	7	10000	3	1	0	3	0
50	558	7	10000	3	1	0	3	0
49	559	7	10000	3	1	0	3	0
50	560	7	10000	3	1	0	3	0
49	560	7	10000	3	1	0	3	0
50	561	7	10000	3	1	0	3	0
50	563	7	10000	3	1	0	3	0
47	564	7	10000	3	1	0	3	0
46	565	7	10000	3	1	0	3	0
45	566	7	10000	3	1	0	3	0
44	567	7	10000	3	1	0	3	0
43	568	7	10000	3	1	0	3	0
43	569	7	10000	3	1	0	3	0
42	570	7	10000	3	1	0	3	0
41	570	7	10000	3	1	0	3	0
39	571	7	10000	3	1	0	3	0
38	573	7	10000	3	1	0	3	0
35	574	7	10000	3	1	0	3	0
36	575	7	10000	3	1	0	3	0
36	576	7	10000	3	1	0	3	0
38	577	7	10000	3	1	0	3	0
42	578	7	10000	3	1	0	3	0
42	579	7	10000	3	1	0	3	0
40	580	7	10000	3	1	0	3	0
38	580	7	10000	3	1	0	3	0
37	581	7	10000	3	1	0	3	0
38	583	7	10000	3	1	0	3	0
40	584	7	10000	3	1	0	3	0
41	585	7	10000	3	1	0	3	0
41	586	7	10000	3	1	0	3	0
40	587	7	10000	3	1	0	3	0
38	588	7	10000	3	1	0	3	0
40	589	7	10000	3	1	0	3	0
42	590	7	10000	3	1	0	3	0
48	590	7	10000	3	1	0	3	0
52	591	7	10000	3	1	0	3	0
59	593	7	10000	3	1	0	3	0
75	594	7	10000	3	1	0	3	0
92	595	7	10000	3	1	0	3	0
117	596	7	10000	3	1	0	3	0
149	597	7	10000	3	1	0	3	0
203	598	7	10000	3	1	0	3	0
290	599	7	10000	3	1	0	3	0
397	600	7	10000	3	1	0	3	0
437	600	7	10000	3	1	0	3	0
447	601	7	10000	3	1	0	3	0
463	603	7	10000	3	1	0	3	0
491	604	7	10000	3	1	0	3	0
482	605	7	10000	3	1	0	3	0
476	606	7	10000	3	1	0	3	0
538	607	7	10000	3	1	0	3	0
585	608	7	10000	3	1	0	3	0
580	609	7	10000	3	1	0	3	0
611	610	7	10000	3	1	0	3	0
638	610	7	10000	3	1	0	3	0
629	611	7	10000	3	1	0	3	0
644	613	7	10000	3	1	0	3	0
725	614	7	10000	3	1	0	3	0
808	615	7	10000	3	1	0	3	0
888	616	7	10000	3	1	0	3	0
931	617	7	10000	3	1	0	3	0
942	618	7	10000	3	1	0	3	0
916	619	7	10000	3	1	0	3	0
881	620	7	10000	3	1	0	3	0
855	620	7	10000	3	1	0	3	0
825	621	7	10000	3	1	0	3	0
825	623	7	10000	3	1	0	3	0
852	624	7	10000	3	1	0	3	0
858	625	7	10000	3	1	0	3	0
899	626	7	10000	3	1	0	3	0
894	627	7	10000	3	1	0	3	0
942	628	7	10000	3	1	0	3	0
1021	629	7	10000	3	1	0	3	0
1067	630	7	10000	3	1	0	3	0
1092	630	7	10000	3	1	0	3	0
1078	631	7	10000	3	1	0	3	0
1039	633	7	10000	3	1	0	3	0
992	634	7	10000	3	1	0	3	0
956	635	7	10000	3	1	0	3	0
927	636	7	10000	3	1	0	3	0
900	637	7	10000	3	1	0	3	0
873	638	7	10000	3	1	0	3	0
847	639	7	10000	3	1	0	3	0
820	640	7	10000	3	1	0	3	0
792	640	7	10000	3	1	0	3	0
765	641	7	10000	3	1	0	3	0
737	643	7	10000	3	1	0	3	0
708	644	7	10000	3	1	0	3	0
681	645	7	10000	3	1	0	3	0
657	646	7	10000	3	1	0	3	0
634	647	7	10000	3	1	0	3	0
612	648	7	10000	3	1	0	3	0
592	649	7	10000	3	1	0	3	0
570	650	7	10000	3	1	0	3	0
551	650	7	10000	3	1	0	3	0
530	651	7	10000	3	1	0	3	0
510	653	7	10000	3	1	0	3	0
487	654	7	10000	3	1	0	3	0
465	655	7	10000	3	1	0	3	0
447	656	7	10000	3	1	0	3	0
432	657	7	10000	3	1	0	3	0
420	658	7	10000	3	1	0	3	0
411	659	7	10000	3	1	0	3	0
412	660	7	10000	3	1	0	3	0
411	660	7	10000	3	1	0	3	0
410	661	7	10000	3	1	0	3	0
407	663	7	10000	3	1	0	3	0
407	664	7	10000	3	1	0	3	0
405	665	7	10000	3	1	0	3	0
404	666	7	10000	3	1	0	3	0
402	667	7	10000	3	1	0	3	0
398	668	7	10000	3	1	0	3	0
393	669	7	10000	3	1	0	3	0
385	670	7	10000	3	1	0	3	0
378	670	7	10000	3	1	0	3	0
369	671	7	10000	3	1	0	3	0
358	673	7	10000	3	1	0	3	0
348	674	7	10000	3	1	0	3	0
339	675	7	10000	3	1	0	3	0
332	676	7	10000	3	1	0	3	0
325	677	7	10000	3	1	0	3	0
319	678	7	10000	3	1	0	3	0
314	679	7	10000	3	1	0	3	0
309	680	7	10000	3	1	0	3	0
305	680	7	10000	3	1	0	3	0
302	681	7	10000	3	1	0	3	0
297	683	7	10000	3	1	0	3	0
288	684	7	10000	3	1	0	3	0
275	685	7	10000	3	1	0	3	0
267	686	7	10000	3	1	0	3	0
260	687	7	10000	3	1	0	3	0
255	688	7	10000	3	1	0	3	0
246	689	7	10000	3	1	0	3	0
240	690	7	10000	3	1	0	3	0
244	690	7	10000	3	1	0	3	0
249	691	7	10000	3	1	0	3	0
251	693	7	10000	3	1	0	3	0
256	694	7	10000	3	1	0	3	0
259	695	7	10000	3	1	0	3	0
258	696	7	10000	3	1	0	3	0
256	697	7	10000	3	1	0	3	0
252	698	7	10000	3	1	0	3	0
247	699	7	10000	3	1	0	3	0
242	700	7	10000	3	1	0	3	0
235	700	7	10000	3	1	0	3	0
229	701	7	10000	3	1	0	3	0
222	703	7	10000	3	1	0	3	0
216	704	7	10000	3	1	0	3	0
212	705	7	10000	3	1	0	3	0
210	706	7	10000	3	1	0	3	0
209	707	7	10000	3	1	0	3	0
205	708	7	10000	3	1	0	3	0
199	709	7	10000	3	1	0	3	0
193	710	7	10000	3	1	0	3	0
199	710	7	10000	3	1	0	3	0
209	711	7	10000	3	1	0	3	0
220	713	7	10000	3	1	0	3	0
230	714	7	10000	3	1	0	3	0
236	715	7	10000	3	1	0	3	0
238	716	7	10000	3	1	0	3	0
237	717	7	10000	3	1	0	3	0
236	718	7	10000	3	1	0	3	0
233	719	7	10000	3	1	0	3	0
228	720	7	10000	3	1	0	3	0
220	720	7	10000	3	1	0	3	0
212	721	7	10000	3	1	0	3	0
203	723	7	10000	3	1	0	3	0
195	724	7	10000	3	1	0	3	0
190	725	7	10000	3	1	0	3	0
183	726	7	10000	3	1	0	3	0
176	727	7	10000	3	1	0	3	0
169	728	7	10000	3	1	0	3	0
166	729	7	10000	3	1	0	3	0
164	730	7	10000	3	1	0	3	0
163	730	7	10000	3	1	0	3	0
164	731	7	10000	3	1	0	3	0
165	733	7	10000	3	1	0	3	0
163	734	7	10000	3	1	0	3	0
162	735	7	10000	3	1	0	3	0
157	736	7	10000	3	1	0	3	0
151	737	7	10000	3	1	0	3	0
146	738	7	10000	3	1	0	3	0
141	739	7	10000	3	1	0	3	0
136	740	7	10000	3	1	0	3	0
136	740	7	10000	3	1	0	3	0
141	741	7	10000	3	1	0	3	0
145	743	7	10000	3	1	0	3	0
143	744	7	10000	3	1	0	3	0
139	745	7	10000	3	1	0	3	0
135	746	7	10000	3	1	0	3	0
135	747	7	10000	3	1	0	3	0
134	748	7	10000	3	1	0	3	0
134	749	7	10000	3	1	0	3	0
135	750	7	10000	3	1	0	3	0
139	750	7	10000	3	1	0	3	0
141	751	7	10000	3	1	0	3	0
142	753	7	10000	3	1	0	3	0
139	754	7	10000	3	1	0	3	0
135	755	7	10000	3	1	0	3	0
132	756	7	10000	3	1	0	3	0
130	757	7	10000	3	1	0	3	0
127	758	7	10000	3	1	0	3	0
121	759	7	10000	3	1	0	3	0
118	760	7	10000	3	1	0	3	0
115	760	7	10000	3	1	0	3	0
111	761	7	10000	3	1	0	3	0
106	763	7	10000	3	1	0	3	0
103	764	7	10000	3	1	0	3	0
99	765	7	10000	3	1	0	3	0
94	766	7	10000	3	1	0	3	0
92	767	7	10000	3	1	0	3	0
93	768	7	10000	3	1	0	3	0
94	769	7	10000	3	1	0	3	0
92	770	7	10000	3	1	0	3	0
91	770	7	10000	3	1	0	3	0
88	771	7	10000	3	1	0	3	0
84	773	7	10000	3	1	0	3	0
80	774	7	10000	3	1	0	3	0
78	775	7	10000	3	1	0	3	0
76	776	7	10000	3	1	0	3	0
73	777	7	10000	3	1	0	3	0
71	778	7	10000	3	1	0	3	0
69	779	7	10000	3	1	0	3	0
68	780	7	10000	3	1	0	3	0
68	780	7	10000	3	1	0	3	0
72	781	7	10000	3	1	0	3	0
71	783	7	10000	3	1	0	3	0
72	784	7	10000	3	1	0	3	0
75	785	7	10000	3	1	0	3	0
78	786	7	10000	3	1	0	3	0
80	787	7	10000	3	1	0	3	0
79	788	7	10000	3	1	0	3	0
76	789	7	10000	3	1	0	3	0
74	790	7	10000	3	1	0	3	0
76	790	7	10000	3	1	0	3	0
81	791	7	10000	3	1	0	3	0
87	793	7	10000	3	1	0	3	0
90	794	7	10000	3	1	0	3	0
92	795	7	10000	3	1	0	3	0
90	796	7	10000	3	1	0	3	0
86	797	7	10000	3	1	0	3	0
84	798	7	10000	3	1	0	3	0
82	799	7	10000	3	1	0	3	0
81	800	7	10000	3	1	0	3	0
80	800	7	10000	3	1	0	3	0
83	801	7	10000	3	1	0	3	0
84	803	7	10000	3	1	0	3	0
86	804	7	10000	3	1	0	3	0
87	805	7	10000	3	1	0	3	0
87	806	7	10000	3	1	0	3	0
87	807	7	10000	3	1	0	3	0
85	808	7	10000	3	1	0	3	0
83	809	7	10000	3	1	0	3	0
81	810	7	10000	3	1	0	3	0
83	810	7	10000	3	1	0	3	0
84	811	7	10000	3	1	0	3	0
85	813	7	10000	3	1	0	3	0
82	814	7	10000	3	1	0	3	0
82	815	7	10000	3	1	0	3	0
86	816	7	10000	3	1	0	3	0
89	817	7	10000	3	1	0	3	0
93	818	7	10000	3	1	0	3	0
94	819	7	10000	3	1	0	3	0
94	820	7	10000	3	1	0	3	0
89	820	7	10000	3	1	0	3	0
87	821	7	10000	3	1	0	3	0
85	823	7	10000	3	1	0	3	0
84	824	7	10000	3	1	0	3	0
85	825	7	10000	3	1	0	3	0
86	826	7	10000	3	1	0	3	0
86	827	7	10000	3	1	0	3	0
82	828	7	10000	3	1	0	3	0
83	829	7	10000	3	1	0	3	0
85	830	7	10000	3	1	0	3	0
92	830	7	10000	3	1	0	3	0
94	831	7	10000	3	1	0	3	0
92	833	7	10000	3	1	0	3	0
94	834	7	10000	3	1	0	3	0
95	835	7	10000	3	1	0	3	0
92	836	7	10000	3	1	0	3	0
91	837	7	10000	3	1	0	3	0
92	838	7	10000	3	1	0	3	0
91	839	7	10000	3	1	0	3	0
87	840	7	10000	3	1	0	3	0
85	840	7	10000	3	1	0	3	0
87	841	7	10000	3	1	0	3	0
88	843	7	10000	3	1	0	3	0
88	844	7	10000	3	1	0	3	0
88	845	7	10000	3	1	0	3	0
85	846	7	10000	3	1	0	3	0
85	847	7	10000	3	1	0	3	0
87	848	7	10000	3	1	0	3	0
88	849	7	10000	3	1	0	3	0
86	850	7	10000	3	1	0	3	0
89	850	7	10000	3	1	0	3	0
90	851	7	10000	3	1	0	3	0
87	853	7	10000	3	1	0	3	0
84	854	7	10000	3	1	0	3	0
84	855	7	10000	3	1	0	3	0
84	856	7	10000	3	1	0	3	0
87	857	7	10000	3	1	0	3	0
91	858	7	10000	3	1	0	3	0
92	859	7	10000	3	1	0	3	0
92	860	7	10000	3	1	0	3	0
88	860	7	10000	3	1	0	3	0
84	861	7	10000	3	1	0	3	0
81	863	7	10000	3	1	0	3	0
83	864	7	10000	3	1	0	3	0
87	865	7	10000	3	1	0	3	0
87	866	7	10000	3	1	0	3	0
84	867	7	10000	3	1	0	3	0
82	868	7	10000	3	1	0	3	0
82	869	7	10000	3	1	0	3	0
80	870	7	10000	3	1	0	3	0
80	870	7	10000	3	1	0	3	0
77	871	7	10000	3	1	0	3	0
78	873	7	10000	3	1	0	3	0
78	874	7	10000	3	1	0	3	0
75	875	7	10000	3	1	0	3	0
73	876	7	10000	3	1	0	3	0
73	877	7	10000	3	1	0	3	0
79	878	7	10000	3	1	0	3	0
83	879	7	10000	3	1	0	3	0
88	880	7	10000	3	1	0	3	0
93	880	7	10000	3	1	0	3	0
101	881	7	10000	3	1	0	3	0
113	883	7	10000	3	1	0	3	0
117	884	7	10000	3	1	0	3	0
115	885	7	10000	3	1	0	3	0
121	886	7	10000	3	1	0	3	0
128	887	7	10000	3	1	0	3	0
132	888	7	10000	3	1	0	3	0
133	889	7	10000	3	1	0	3	0
134	890	7	10000	3	1	0	3	0
136	890	7	10000	3	1	0	3	0
133	891	7	10000	3	1	0	3	0
132	893	7	10000	3	1	0	3	0
132	894	7	10000	3	1	0	3	0
132	895	7	10000	3	1	0	3	0
130	896	7	10000	3	1	0	3	0
126	897	7	10000	3	1	0	3	0
122	898	7	10000	3	1	0	3	0
118	899	7	10000	3	1	0	3	0
116	900	7	10000	3	1	0	3	0
116	900	7	10000	3	1	0	3	0
122	901	7	10000	3	1	0	3	0
126	903	7	10000	3	1	0	3	0
126	904	7	10000	3	1	0	3	0
122	905	7	10000	3	1	0	3	0
117	906	7	10000	3	1	0	3	0
112	907	7	10000	3	1	0	3	0
108	908	7	10000	3	1	0	3	0
104	909	7	10000	3	1	0	3	0
101	910	7	10000	3	1	0	3	0
103	910	7	10000	3	1	0	3	0
104	911	7	10000	3	1	0	3	0
106	913	7	10000	3	1	0	3	0
104	914	7	10000	3	1	0	3	0
99	915	7	10000	3	1	0	3	0
94	916	7	10000	3	1	0	3	0
90	917	7	10000	3	1	0	3	0
90	918	7	10000	3	1	0	3	0
90	919	7	10000	3	1	0	3	0
94	920	7	10000	3	1	0	3	0
96	920	7	10000	3	1	0	3	0
99	921	7	10000	3	1	0	3	0
110	923	7	10000	3	1	0	3	0
120	924	7	10000	3	1	0	3	0
122	925	7	10000	3	1	0	3	0
119	926	7	10000	3	1	0	3	0
123	927	7	10000	3	1	0	3	0
121	928	7	10000	3	1	0	3	0
118	929	7	10000	3	1	0	3	0
117	930	7	10000	3	1	0	3	0
115	930	7	10000	3	1	0	3	0
116	931	7	10000	3	1	0	3	0
119	933	7	10000	3	1	0	3	0
124	934	7	10000	3	1	0	3	0
127	935	7	10000	3	1	0	3	0
124	936	7	10000	3	1	0	3	0
121	937	7	10000	3	1	0	3	0
121	938	7	10000	3	1	0	3	0
121	939	7	10000	3	1	0	3	0
116	940	7	10000	3	1	0	3	0
116	940	7	10000	3	1	0	3	0
115	941	7	10000	3	1	0	3	0
111	943	7	10000	3	1	0	3	0
111	944	7	10000	3	1	0	3	0
108	945	7	10000	3	1	0	3	0
105	946	7	10000	3	1	0	3	0
105	947	7	10000	3	1	0	3	0
102	948	7	10000	3	1	0	3	0
98	949	7	10000	3	1	0	3	0
94	950	7	10000	3	1	0	3	0
94	950	7	10000	3	1	0	3	0
96	951	7	10000	3	1	0	3	0
99	953	7	10000	3	1	0	3	0
97	954	7	10000	3	1	0	3	0
96	955	7	10000	3	1	0	3	0
94	956	7	10000	3	1	0	3	0
95	957	7	10000	3	1	0	3	0
94	958	7	10000	3	1	0	3	0
93	959	7	10000	3	1	0	3	0
91	960	7	10000	3	1	0	3	0
88	960	7	10000	3	1	0	3	0
90	961	7	10000	3	1	0	3	0
93	963	7	10000	3	1	0	3	0
96	964	7	10000	3	1	0	3	0
99	965	7	10000	3	1	0	3	0
95	966	7	10000	3	1	0	3	0
93	967	7	10000	3	1	0	3	0
89	968	7	10000	3	1	0	3	0
90	969	7	10000	3	1	0	3	0
94	970	7	10000	3	1	0	3	0
105	970	7	10000	3	1	0	3	0
116	971	7	10000	3	1	0	3	0
116	973	7	10000	3	1	0	3	0
115	974	7	10000	3	1	0	3	0
115	975	7	10000	3	1	0	3	0
136	976	7	10000	3	1	0	3	0
151	977	7	10000	3	1	0	3	0
151	978	7	10000	3	1	0	3	0
155	979	7	10000	3	1	0	3	0
153	980	7	10000	3	1	0	3	0
148	980	7	10000	3	1	0	3	0
145	981	7	10000	3	1	0	3	0
159	983	7	10000	3	1	0	3	0
191	984	7	10000	3	1	0	3	0
204	985	7	10000	3	1	0	3	0
199	986	7	10000	3	1	0	3	0
193	987	7	10000	3	1	0	3	0
188	988	7	10000	3	1	0	3	0
182	989	7	10000	3	1	0	3	0
183	990	7	10000	3	1	0	3	0
192	990	7	10000	3	1	0	3	0
190	991	7	10000	3	1	0	3	0
188	993	7	10000	3	1	0	3	0
191	994	7	10000	3	1	0	3	0
198	995	7	10000	3	1	0	3	0
206	996	7	10000	3	1	0	3	0
241	997	7	10000	3	1	0	3	0
256	998	7	10000	3	1	0	3	0
249	999	7	10000	3	1	0	3	0
251	1000	7	10000	3	1	0	3	0
244	1000	7	10000	3	1	0	3	0
240	1001	7	10000	3	1	0	3	0
137	2	0	10000	4	1	0	4	0
142	3	0	10000	4	1	0	4	0
138	4	0	10000	4	1	0	4	0
137	5	0	10000	4	1	0	4	0
134	6	0	10000	4	1	0	4	0
130	7	0	10000	4	1	0	4	0
126	8	0	10000	4	1	0	4	0
123	9	0	10000	4	1	0	4	0
123	10	0	10000	4	1	0	4	0
120	11	0	10000	4	1	0	4	0
119	12	0	10000	4	1	0	4	0
123	13	0	10000	4	1	0	4	0
126	14	0	10000	4	1	0	4	0
127	15	0	10000	4	1	0	4	0
121	16	0	10000	4	1	0	4	0
122	17	0	10000	4	1	0	4	0
130	18	0	10000	4	1	0	4	0
133	19	0	10000	4	1	0	4	0
134	20	0	10000	4	1	0	4	0
129	21	0	10000	4	1	0	4	0
132	22	0	10000	4	1	0	4	0
135	23	0	10000	4	1	0	4	0
132	24	0	10000	4	1	0	4	0
126	25	0	10000	4	1	0	4	0
124	26	0	10000	4	1	0	4	0
127	27	0	10000	4	1	0	4	0
123	28	0	10000	4	1	0	4	0
124	29	0	10000	4	1	0	4	0
125	30	0	10000	4	1	0	4	0
128	31	0	10000	4	1	0	4	0
126	32	0	10000	4	1	0	4	0
125	33	0	10000	4	1	0	4	0
120	34	0	10000	4	1	0	4	0
116	35	0	10000	4	1	0	4	0
112	36	0	10000	4	1	0	4	0
108	37	0	10000	4	1	0	4	0
106	38	0	10000	4	1	0	4	0
103	39	0	10000	4	1	0	4	0
106	40	0	10000	4	1	0	4	0
120	41	0	10000	4	1	0	4	0
124	42	0	10000	4	1	0	4	0
128	43	0	10000	4	1	0	4	0
135	44	0	10000	4	1	0	4	0
138	45	0	10000	4	1	0	4	0
145	46	0	10000	4	1	0	4	0
154	47	0	10000	4	1	0	4	0
159	48	0	10000	4	1	0	4	0
156	49	0	10000	4	1	0	4	0
153	50	0	10000	4	1	0	4	0
151	51	0	10000	4	1	0	4	0
144	52	0	10000	4	1	0	4	0
140	53	0	10000	4	1	0	4	0
138	54	0	10000	4	1	0	4	0
136	55	0	10000	4	1	0	4	0
133	56	0	10000	4	1	0	4	0
131	57	0	10000	4	1	0	4	0
129	58	0	10000	4	1	0	4	0
128	59	0	10000	4	1	0	4	0
129	60	0	10000	4	1	0	4	0
130	61	0	10000	4	1	0	4	0
133	62	0	10000	4	1	0	4	0
140	63	0	10000	4	1	0	4	0
149	64	0	10000	4	1	0	4	0
154	65	0	10000	4	1	0	4	0
150	66	0	10000	4	1	0	4	0
146	67	0	10000	4	1	0	4	0
146	68	0	10000	4	1	0	4	0
143	69	0	10000	4	1	0	4	0
146	70	0	10000	4	1	0	4	0
154	71	0	10000	4	1	0	4	0
162	72	0	10000	4	1	0	4	0
171	73	0	10000	4	1	0	4	0
176	74	0	10000	4	1	0	4	0
172	75	0	10000	4	1	0	4	0
165	76	0	10000	4	1	0	4	0
158	77	0	10000	4	1	0	4	0
153	78	0	10000	4	1	0	4	0
148	79	0	10000	4	1	0	4	0
142	80	0	10000	4	1	0	4	0
141	81	0	10000	4	1	0	4	0
144	82	0	10000	4	1	0	4	0
141	83	0	10000	4	1	0	4	0
138	84	0	10000	4	1	0	4	0
137	85	0	10000	4	1	0	4	0
135	86	0	10000	4	1	0	4	0
129	87	0	10000	4	1	0	4	0
125	88	0	10000	4	1	0	4	0
124	89	0	10000	4	1	0	4	0
119	90	0	10000	4	1	0	4	0
118	91	0	10000	4	1	0	4	0
121	92	0	10000	4	1	0	4	0
119	93	0	10000	4	1	0	4	0
116	94	0	10000	4	1	0	4	0
112	95	0	10000	4	1	0	4	0
111	96	0	10000	4	1	0	4	0
111	97	0	10000	4	1	0	4	0
109	98	0	10000	4	1	0	4	0
104	99	0	10000	4	1	0	4	0
102	100	0	10000	4	1	0	4	0
98	101	0	10000	4	1	0	4	0
98	102	0	10000	4	1	0	4	0
99	103	0	10000	4	1	0	4	0
99	104	0	10000	4	1	0	4	0
100	105	0	10000	4	1	0	4	0
109	106	0	10000	4	1	0	4	0
116	107	0	10000	4	1	0	4	0
112	108	0	10000	4	1	0	4	0
113	109	0	10000	4	1	0	4	0
116	110	0	10000	4	1	0	4	0
116	111	0	10000	4	1	0	4	0
118	112	0	10000	4	1	0	4	0
126	113	0	10000	4	1	0	4	0
131	114	0	10000	4	1	0	4	0
130	115	0	10000	4	1	0	4	0
127	116	0	10000	4	1	0	4	0
121	117	0	10000	4	1	0	4	0
116	118	0	10000	4	1	0	4	0
111	119	0	10000	4	1	0	4	0
106	120	0	10000	4	1	0	4	0
104	121	0	10000	4	1	0	4	0
105	122	0	10000	4	1	0	4	0
104	123	0	10000	4	1	0	4	0
102	124	0	10000	4	1	0	4	0
98	125	0	10000	4	1	0	4	0
96	126	0	10000	4	1	0	4	0
94	127	0	10000	4	1	0	4	0
93	128	0	10000	4	1	0	4	0
90	129	0	10000	4	1	0	4	0
89	130	0	10000	4	1	0	4	0
86	131	0	10000	4	1	0	4	0
81	132	0	10000	4	1	0	4	0
80	133	0	10000	4	1	0	4	0
79	134	0	10000	4	1	0	4	0
90	135	0	10000	4	1	0	4	0
99	136	0	10000	4	1	0	4	0
98	137	0	10000	4	1	0	4	0
106	138	0	10000	4	1	0	4	0
112	139	0	10000	4	1	0	4	0
112	140	0	10000	4	1	0	4	0
114	141	0	10000	4	1	0	4	0
121	142	0	10000	4	1	0	4	0
120	143	0	10000	4	1	0	4	0
115	144	0	10000	4	1	0	4	0
111	145	0	10000	4	1	0	4	0
109	146	0	10000	4	1	0	4	0
106	147	0	10000	4	1	0	4	0
112	148	0	10000	4	1	0	4	0
116	149	0	10000	4	1	0	4	0
113	150	0	10000	4	1	0	4	0
109	151	0	10000	4	1	0	4	0
109	152	0	10000	4	1	0	4	0
108	153	0	10000	4	1	0	4	0
104	154	0	10000	4	1	0	4	0
107	155	0	10000	4	1	0	4	0
127	156	0	10000	4	1	0	4	0
138	157	0	10000	4	1	0	4	0
136	158	0	10000	4	1	0	4	0
141	159	0	10000	4	1	0	4	0
147	160	0	10000	4	1	0	4	0
148	161	0	10000	4	1	0	4	0
145	162	0	10000	4	1	0	4	0
147	163	0	10000	4	1	0	4	0
145	164	0	10000	4	1	0	4	0
143	165	0	10000	4	1	0	4	0
141	166	0	10000	4	1	0	4	0
136	167	0	10000	4	1	0	4	0
136	168	0	10000	4	1	0	4	0
140	169	0	10000	4	1	0	4	0
148	170	0	10000	4	1	0	4	0
154	171	0	10000	4	1	0	4	0
149	172	0	10000	4	1	0	4	0
143	173	0	10000	4	1	0	4	0
140	174	0	10000	4	1	0	4	0
140	175	0	10000	4	1	0	4	0
141	176	0	10000	4	1	0	4	0
141	177	0	10000	4	1	0	4	0
141	178	0	10000	4	1	0	4	0
140	179	0	10000	4	1	0	4	0
135	180	0	10000	4	1	0	4	0
133	181	0	10000	4	1	0	4	0
135	182	0	10000	4	1	0	4	0
131	183	0	10000	4	1	0	4	0
126	184	0	10000	4	1	0	4	0
124	185	0	10000	4	1	0	4	0
121	186	0	10000	4	1	0	4	0
116	187	0	10000	4	1	0	4	0
110	188	0	10000	4	1	0	4	0
108	189	0	10000	4	1	0	4	0
109	190	0	10000	4	1	0	4	0
114	191	0	10000	4	1	0	4	0
125	192	0	10000	4	1	0	4	0
140	193	0	10000	4	1	0	4	0
139	194	0	10000	4	1	0	4	0
139	195	0	10000	4	1	0	4	0
137	196	0	10000	4	1	0	4	0
135	197	0	10000	4	1	0	4	0
136	198	0	10000	4	1	0	4	0
136	199	0	10000	4	1	0	4	0
139	200	0	10000	4	1	0	4	0
146	201	0	10000	4	1	0	4	0
152	202	0	10000	4	1	0	4	0
147	203	0	10000	4	1	0	4	0
146	204	0	10000	4	1	0	4	0
140	205	0	10000	4	1	0	4	0
138	206	0	10000	4	1	0	4	0
133	207	0	10000	4	1	0	4	0
131	208	0	10000	4	1	0	4	0
130	209	0	10000	4	1	0	4	0
129	210	0	10000	4	1	0	4	0
137	211	0	10000	4	1	0	4	0
145	212	0	10000	4	1	0	4	0
149	213	0	10000	4	1	0	4	0
150	214	0	10000	4	1	0	4	0
149	215	0	10000	4	1	0	4	0
142	216	0	10000	4	1	0	4	0
141	217	0	10000	4	1	0	4	0
145	218	0	10000	4	1	0	4	0
145	219	0	10000	4	1	0	4	0
141	220	0	10000	4	1	0	4	0
137	221	0	10000	4	1	0	4	0
133	222	0	10000	4	1	0	4	0
128	223	0	10000	4	1	0	4	0
122	224	0	10000	4	1	0	4	0
116	225	0	10000	4	1	0	4	0
114	226	0	10000	4	1	0	4	0
116	227	0	10000	4	1	0	4	0
119	228	0	10000	4	1	0	4	0
122	229	0	10000	4	1	0	4	0
127	230	0	10000	4	1	0	4	0
130	231	0	10000	4	1	0	4	0
126	232	0	10000	4	1	0	4	0
122	233	0	10000	4	1	0	4	0
120	234	0	10000	4	1	0	4	0
116	235	0	10000	4	1	0	4	0
113	236	0	10000	4	1	0	4	0
113	237	0	10000	4	1	0	4	0
122	238	0	10000	4	1	0	4	0
129	239	0	10000	4	1	0	4	0
126	240	0	10000	4	1	0	4	0
128	241	0	10000	4	1	0	4	0
136	242	0	10000	4	1	0	4	0
141	243	0	10000	4	1	0	4	0
144	244	0	10000	4	1	0	4	0
143	245	0	10000	4	1	0	4	0
137	246	0	10000	4	1	0	4	0
132	247	0	10000	4	1	0	4	0
127	248	0	10000	4	1	0	4	0
132	249	0	10000	4	1	0	4	0
144	250	0	10000	4	1	0	4	0
155	251	0	10000	4	1	0	4	0
152	252	0	10000	4	1	0	4	0
161	253	0	10000	4	1	0	4	0
169	254	0	10000	4	1	0	4	0
176	255	0	10000	4	1	0	4	0
178	256	0	10000	4	1	0	4	0
179	257	0	10000	4	1	0	4	0
181	258	0	10000	4	1	0	4	0
180	259	0	10000	4	1	0	4	0
177	260	0	10000	4	1	0	4	0
171	261	0	10000	4	1	0	4	0
167	262	0	10000	4	1	0	4	0
162	263	0	10000	4	1	0	4	0
157	264	0	10000	4	1	0	4	0
150	265	0	10000	4	1	0	4	0
144	266	0	10000	4	1	0	4	0
138	267	0	10000	4	1	0	4	0
133	268	0	10000	4	1	0	4	0
128	269	0	10000	4	1	0	4	0
128	270	0	10000	4	1	0	4	0
128	271	0	10000	4	1	0	4	0
137	272	0	10000	4	1	0	4	0
151	273	0	10000	4	1	0	4	0
159	274	0	10000	4	1	0	4	0
154	275	0	10000	4	1	0	4	0
152	276	0	10000	4	1	0	4	0
149	277	0	10000	4	1	0	4	0
150	278	0	10000	4	1	0	4	0
158	279	0	10000	4	1	0	4	0
167	280	0	10000	4	1	0	4	0
170	281	0	10000	4	1	0	4	0
168	282	0	10000	4	1	0	4	0
173	283	0	10000	4	1	0	4	0
182	284	0	10000	4	1	0	4	0
189	285	0	10000	4	1	0	4	0
184	286	0	10000	4	1	0	4	0
182	287	0	10000	4	1	0	4	0
188	288	0	10000	4	1	0	4	0
198	289	0	10000	4	1	0	4	0
205	290	0	10000	4	1	0	4	0
207	291	0	10000	4	1	0	4	0
201	292	0	10000	4	1	0	4	0
193	293	0	10000	4	1	0	4	0
190	294	0	10000	4	1	0	4	0
198	295	0	10000	4	1	0	4	0
209	296	0	10000	4	1	0	4	0
213	297	0	10000	4	1	0	4	0
207	298	0	10000	4	1	0	4	0
202	299	0	10000	4	1	0	4	0
199	300	0	10000	4	1	0	4	0
196	301	0	10000	4	1	0	4	0
196	302	0	10000	4	1	0	4	0
193	303	0	10000	4	1	0	4	0
189	304	0	10000	4	1	0	4	0
186	305	0	10000	4	1	0	4	0
178	306	0	10000	4	1	0	4	0
173	307	0	10000	4	1	0	4	0
174	308	0	10000	4	1	0	4	0
175	309	0	10000	4	1	0	4	0
169	310	0	10000	4	1	0	4	0
164	311	0	10000	4	1	0	4	0
157	312	0	10000	4	1	0	4	0
152	313	0	10000	4	1	0	4	0
148	314	0	10000	4	1	0	4	0
142	315	0	10000	4	1	0	4	0
135	316	0	10000	4	1	0	4	0
130	317	0	10000	4	1	0	4	0
126	318	0	10000	4	1	0	4	0
121	319	0	10000	4	1	0	4	0
127	320	0	10000	4	1	0	4	0
134	321	0	10000	4	1	0	4	0
136	322	0	10000	4	1	0	4	0
130	323	0	10000	4	1	0	4	0
125	324	0	10000	4	1	0	4	0
127	325	0	10000	4	1	0	4	0
133	326	0	10000	4	1	0	4	0
130	327	0	10000	4	1	0	4	0
136	328	0	10000	4	1	0	4	0
144	329	0	10000	4	1	0	4	0
147	330	0	10000	4	1	0	4	0
150	331	0	10000	4	1	0	4	0
154	332	0	10000	4	1	0	4	0
162	333	0	10000	4	1	0	4	0
169	334	0	10000	4	1	0	4	0
171	335	0	10000	4	1	0	4	0
167	336	0	10000	4	1	0	4	0
160	337	0	10000	4	1	0	4	0
154	338	0	10000	4	1	0	4	0
151	339	0	10000	4	1	0	4	0
151	340	0	10000	4	1	0	4	0
160	341	0	10000	4	1	0	4	0
168	342	0	10000	4	1	0	4	0
163	343	0	10000	4	1	0	4	0
162	344	0	10000	4	1	0	4	0
162	345	0	10000	4	1	0	4	0
158	346	0	10000	4	1	0	4	0
152	347	0	10000	4	1	0	4	0
147	348	0	10000	4	1	0	4	0
146	349	0	10000	4	1	0	4	0
150	350	0	10000	4	1	0	4	0
154	351	0	10000	4	1	0	4	0
153	352	0	10000	4	1	0	4	0
162	353	0	10000	4	1	0	4	0
159	354	0	10000	4	1	0	4	0
165	355	0	10000	4	1	0	4	0
174	356	0	10000	4	1	0	4	0
178	357	0	10000	4	1	0	4	0
177	358	0	10000	4	1	0	4	0
175	359	0	10000	4	1	0	4	0
185	360	0	10000	4	1	0	4	0
189	361	0	10000	4	1	0	4	0
186	362	0	10000	4	1	0	4	0
185	363	0	10000	4	1	0	4	0
185	364	0	10000	4	1	0	4	0
183	365	0	10000	4	1	0	4	0
177	366	0	10000	4	1	0	4	0
170	367	0	10000	4	1	0	4	0
164	368	0	10000	4	1	0	4	0
156	369	0	10000	4	1	0	4	0
150	370	0	10000	4	1	0	4	0
144	371	0	10000	4	1	0	4	0
141	372	0	10000	4	1	0	4	0
141	373	0	10000	4	1	0	4	0
139	374	0	10000	4	1	0	4	0
134	375	0	10000	4	1	0	4	0
130	376	0	10000	4	1	0	4	0
130	377	0	10000	4	1	0	4	0
132	378	0	10000	4	1	0	4	0
131	379	0	10000	4	1	0	4	0
130	380	0	10000	4	1	0	4	0
131	381	0	10000	4	1	0	4	0
129	382	0	10000	4	1	0	4	0
124	383	0	10000	4	1	0	4	0
123	384	0	10000	4	1	0	4	0
123	385	0	10000	4	1	0	4	0
125	386	0	10000	4	1	0	4	0
129	387	0	10000	4	1	0	4	0
127	388	0	10000	4	1	0	4	0
126	389	0	10000	4	1	0	4	0
128	390	0	10000	4	1	0	4	0
130	391	0	10000	4	1	0	4	0
128	392	0	10000	4	1	0	4	0
123	393	0	10000	4	1	0	4	0
117	394	0	10000	4	1	0	4	0
113	395	0	10000	4	1	0	4	0
109	396	0	10000	4	1	0	4	0
107	397	0	10000	4	1	0	4	0
107	398	0	10000	4	1	0	4	0
106	399	0	10000	4	1	0	4	0
103	400	0	10000	4	1	0	4	0
100	401	0	10000	4	1	0	4	0
99	402	0	10000	4	1	0	4	0
100	403	0	10000	4	1	0	4	0
106	404	0	10000	4	1	0	4	0
111	405	0	10000	4	1	0	4	0
116	406	0	10000	4	1	0	4	0
117	407	0	10000	4	1	0	4	0
113	408	0	10000	4	1	0	4	0
113	409	0	10000	4	1	0	4	0
116	410	0	10000	4	1	0	4	0
118	411	0	10000	4	1	0	4	0
117	412	0	10000	4	1	0	4	0
115	413	0	10000	4	1	0	4	0
116	414	0	10000	4	1	0	4	0
121	415	0	10000	4	1	0	4	0
121	416	0	10000	4	1	0	4	0
122	417	0	10000	4	1	0	4	0
129	418	0	10000	4	1	0	4	0
124	419	0	10000	4	1	0	4	0
123	420	0	10000	4	1	0	4	0
126	421	0	10000	4	1	0	4	0
126	422	0	10000	4	1	0	4	0
120	423	0	10000	4	1	0	4	0
118	424	0	10000	4	1	0	4	0
116	425	0	10000	4	1	0	4	0
121	426	0	10000	4	1	0	4	0
123	427	0	10000	4	1	0	4	0
118	428	0	10000	4	1	0	4	0
118	429	0	10000	4	1	0	4	0
114	430	0	10000	4	1	0	4	0
112	431	0	10000	4	1	0	4	0
114	432	0	10000	4	1	0	4	0
118	433	0	10000	4	1	0	4	0
115	434	0	10000	4	1	0	4	0
115	435	0	10000	4	1	0	4	0
115	436	0	10000	4	1	0	4	0
111	437	0	10000	4	1	0	4	0
109	438	0	10000	4	1	0	4	0
105	439	0	10000	4	1	0	4	0
101	440	0	10000	4	1	0	4	0
99	441	0	10000	4	1	0	4	0
106	442	0	10000	4	1	0	4	0
109	443	0	10000	4	1	0	4	0
107	444	0	10000	4	1	0	4	0
109	445	0	10000	4	1	0	4	0
110	446	0	10000	4	1	0	4	0
110	447	0	10000	4	1	0	4	0
105	448	0	10000	4	1	0	4	0
104	449	0	10000	4	1	0	4	0
106	450	0	10000	4	1	0	4	0
111	451	0	10000	4	1	0	4	0
110	452	0	10000	4	1	0	4	0
106	453	0	10000	4	1	0	4	0
106	454	0	10000	4	1	0	4	0
105	455	0	10000	4	1	0	4	0
104	456	0	10000	4	1	0	4	0
105	457	0	10000	4	1	0	4	0
108	458	0	10000	4	1	0	4	0
105	459	0	10000	4	1	0	4	0
99	460	0	10000	4	1	0	4	0
96	461	0	10000	4	1	0	4	0
95	462	0	10000	4	1	0	4	0
91	463	0	10000	4	1	0	4	0
90	464	0	10000	4	1	0	4	0
91	465	0	10000	4	1	0	4	0
92	466	0	10000	4	1	0	4	0
92	467	0	10000	4	1	0	4	0
94	468	0	10000	4	1	0	4	0
105	469	0	10000	4	1	0	4	0
116	470	0	10000	4	1	0	4	0
121	471	0	10000	4	1	0	4	0
116	472	0	10000	4	1	0	4	0
121	473	0	10000	4	1	0	4	0
123	474	0	10000	4	1	0	4	0
120	475	0	10000	4	1	0	4	0
128	476	0	10000	4	1	0	4	0
139	477	0	10000	4	1	0	4	0
137	478	0	10000	4	1	0	4	0
142	479	0	10000	4	1	0	4	0
152	480	0	10000	4	1	0	4	0
159	481	0	10000	4	1	0	4	0
162	482	0	10000	4	1	0	4	0
157	483	0	10000	4	1	0	4	0
151	484	0	10000	4	1	0	4	0
147	485	0	10000	4	1	0	4	0
151	486	0	10000	4	1	0	4	0
152	487	0	10000	4	1	0	4	0
149	488	0	10000	4	1	0	4	0
145	489	0	10000	4	1	0	4	0
140	490	0	10000	4	1	0	4	0
136	491	0	10000	4	1	0	4	0
133	492	0	10000	4	1	0	4	0
136	493	0	10000	4	1	0	4	0
139	494	0	10000	4	1	0	4	0
138	495	0	10000	4	1	0	4	0
134	496	0	10000	4	1	0	4	0
135	497	0	10000	4	1	0	4	0
131	498	0	10000	4	1	0	4	0
131	499	0	10000	4	1	0	4	0
139	500	0	10000	4	1	0	4	0
154	501	0	10000	4	1	0	4	0
170	502	0	10000	4	1	0	4	1
171	503	0	10000	4	1	0	4	1
168	504	0	10000	4	1	0	4	1
167	505	0	10000	4	1	0	4	1
161	506	0	10000	4	1	0	4	1
156	507	0	10000	4	1	0	4	1
156	508	0	10000	4	1	0	4	1
164	509	0	10000	4	1	0	4	1
167	510	0	10000	4	1	0	4	1
163	511	0	10000	4	1	0	4	1
158	512	0	10000	4	1	0	4	1
156	513	0	10000	4	1	0	4	1
163	514	0	10000	4	1	0	4	1
179	515	0	10000	4	1	0	4	1
182	516	0	10000	4	1	0	4	1
188	517	0	10000	4	1	0	4	1
206	518	0	10000	4	1	0	4	1
211	519	0	10000	4	1	0	4	1
204	520	0	10000	4	1	0	4	1
204	521	0	10000	4	1	0	4	1
208	522	0	10000	4	1	0	4	1
205	523	0	10000	4	1	0	4	1
217	524	0	10000	4	1	0	4	1
224	525	0	10000	4	1	0	4	1
217	526	0	10000	4	1	0	4	1
219	527	0	10000	4	1	0	4	1
234	528	0	10000	4	1	0	4	1
247	529	0	10000	4	1	0	4	1
251	530	0	10000	4	1	0	4	1
246	531	0	10000	4	1	0	4	1
234	532	0	10000	4	1	0	4	1
225	533	0	10000	4	1	0	4	1
221	534	0	10000	4	1	0	4	1
217	535	0	10000	4	1	0	4	1
210	536	0	10000	4	1	0	4	1
205	537	0	10000	4	1	0	4	1
211	538	0	10000	4	1	0	4	1
225	539	0	10000	4	1	0	4	1
230	540	0	10000	4	1	0	4	1
233	541	0	10000	4	1	0	4	1
237	542	0	10000	4	1	0	4	1
236	543	0	10000	4	1	0	4	1
230	544	0	10000	4	1	0	4	1
233	545	0	10000	4	1	0	4	1
238	546	0	10000	4	1	0	4	1
233	547	0	10000	4	1	0	4	1
236	548	0	10000	4	1	0	4	1
240	549	0	10000	4	1	0	4	1
263	550	0	10000	4	1	0	4	1
280	551	0	10000	4	1	0	4	1
273	552	0	10000	4	1	0	4	0
262	553	0	10000	4	1	0	4	0
258	554	0	10000	4	1	0	4	0
253	555	0	10000	4	1	0	4	0
247	556	0	10000	4	1	0	4	0
242	557	0	10000	4	1	0	4	0
236	558	0	10000	4	1	0	4	0
225	559	0	10000	4	1	0	4	0
217	560	0	10000	4	1	0	4	0
209	561	0	10000	4	1	0	4	0
204	562	0	10000	4	1	0	4	0
209	563	0	10000	4	1	0	4	0
216	564	0	10000	4	1	0	4	0
219	565	0	10000	4	1	0	4	0
219	566	0	10000	4	1	0	4	0
216	567	0	10000	4	1	0	4	0
207	568	0	10000	4	1	0	4	0
204	569	0	10000	4	1	0	4	0
203	570	0	10000	4	1	0	4	0
198	571	0	10000	4	1	0	4	0
190	572	0	10000	4	1	0	4	0
186	573	0	10000	4	1	0	4	0
182	574	0	10000	4	1	0	4	0
180	575	0	10000	4	1	0	4	0
188	576	0	10000	4	1	0	4	0
231	577	0	10000	4	1	0	4	0
276	578	0	10000	4	1	0	4	0
278	579	0	10000	4	1	0	4	0
293	580	0	10000	4	1	0	4	0
327	581	0	10000	4	1	0	4	0
367	582	0	10000	4	1	0	4	0
394	583	0	10000	4	1	0	4	0
394	584	0	10000	4	1	0	4	0
429	585	0	10000	4	1	0	4	0
439	586	0	10000	4	1	0	4	0
429	587	0	10000	4	1	0	4	0
453	588	0	10000	4	1	0	4	0
473	589	0	10000	4	1	0	4	0
494	590	0	10000	4	1	0	4	0
515	591	0	10000	4	1	0	4	0
509	592	0	10000	4	1	0	4	0
514	593	0	10000	4	1	0	4	0
586	594	0	10000	4	1	0	4	0
635	595	0	10000	4	1	0	4	0
622	596	0	10000	4	1	0	4	0
657	597	0	10000	4	1	0	4	0
717	598	0	10000	4	1	0	4	0
822	599	0	10000	4	1	0	4	0
916	600	0	10000	4	1	0	4	0
917	601	0	10000	4	1	0	4	0
1028	602	0	10000	4	1	0	4	0
1171	603	0	10000	4	1	0	4	0
1327	604	0	10000	4	1	0	4	0
1418	605	0	10000	4	1	0	4	0
1412	606	0	10000	4	1	0	4	0
1574	607	0	10000	4	1	0	4	0
1660	608	0	10000	4	1	0	4	0
1617	609	0	10000	4	1	0	4	0
1546	610	0	10000	4	1	0	4	0
1497	611	0	10000	4	1	0	4	0
1570	612	0	10000	4	1	0	4	0
1807	613	0	10000	4	1	0	4	0
2014	614	0	10000	4	1	0	4	0
2059	615	0	10000	4	1	0	4	0
2052	616	0	10000	4	1	0	4	0
2151	617	0	10000	4	1	0	4	0
2131	618	0	10000	4	1	0	4	0
2111	619	0	10000	4	1	0	4	0
2130	620	0	10000	4	1	0	4	0
2112	621	0	10000	4	1	0	4	0
2109	622	0	10000	4	1	0	4	0
2093	623	0	10000	4	1	0	4	0
2020	624	0	10000	4	1	0	4	0
1943	625	0	10000	4	1	0	4	0
1862	626	0	10000	4	1	0	4	0
1788	627	0	10000	4	1	0	4	0
1721	628	0	10000	4	1	0	4	0
1656	629	0	10000	4	1	0	4	0
1599	630	0	10000	4	1	0	4	0
1550	631	0	10000	4	1	0	4	0
1503	632	0	10000	4	1	0	4	0
1461	633	0	10000	4	1	0	4	0
1422	634	0	10000	4	1	0	4	0
1384	635	0	10000	4	1	0	4	0
1339	636	0	10000	4	1	0	4	0
1296	637	0	10000	4	1	0	4	0
1261	638	0	10000	4	1	0	4	0
1229	639	0	10000	4	1	0	4	0
1201	640	0	10000	4	1	0	4	0
1174	641	0	10000	4	1	0	4	0
1151	642	0	10000	4	1	0	4	0
1130	643	0	10000	4	1	0	4	0
1107	644	0	10000	4	1	0	4	0
1080	645	0	10000	4	1	0	4	0
1052	646	0	10000	4	1	0	4	0
1023	647	0	10000	4	1	0	4	0
990	648	0	10000	4	1	0	4	0
947	649	0	10000	4	1	0	4	0
908	650	0	10000	4	1	0	4	0
880	651	0	10000	4	1	0	4	0
842	652	0	10000	4	1	0	4	0
818	653	0	10000	4	1	0	4	0
795	654	0	10000	4	1	0	4	0
772	655	0	10000	4	1	0	4	0
750	656	0	10000	4	1	0	4	0
727	657	0	10000	4	1	0	4	0
709	658	0	10000	4	1	0	4	0
697	659	0	10000	4	1	0	4	0
685	660	0	10000	4	1	0	4	0
665	661	0	10000	4	1	0	4	0
646	662	0	10000	4	1	0	4	0
630	663	0	10000	4	1	0	4	0
617	664	0	10000	4	1	0	4	0
605	665	0	10000	4	1	0	4	0
594	666	0	10000	4	1	0	4	0
595	667	0	10000	4	1	0	4	0
603	668	0	10000	4	1	0	4	0
604	669	0	10000	4	1	0	4	0
592	670	0	10000	4	1	0	4	0
570	671	0	10000	4	1	0	4	0
545	672	0	10000	4	1	0	4	0
528	673	0	10000	4	1	0	4	0
511	674	0	10000	4	1	0	4	0
490	675	0	10000	4	1	0	4	0
468	676	0	10000	4	1	0	4	0
450	677	0	10000	4	1	0	4	0
434	678	0	10000	4	1	0	4	0
417	679	0	10000	4	1	0	4	0
419	680	0	10000	4	1	0	4	0
427	681	0	10000	4	1	0	4	0
419	682	0	10000	4	1	0	4	0
429	683	0	10000	4	1	0	4	0
435	684	0	10000	4	1	0	4	0
433	685	0	10000	4	1	0	4	0
423	686	0	10000	4	1	0	4	0
409	687	0	10000	4	1	0	4	0
397	688	0	10000	4	1	0	4	0
387	689	0	10000	4	1	0	4	0
380	690	0	10000	4	1	0	4	0
373	691	0	10000	4	1	0	4	0
368	692	0	10000	4	1	0	4	0
365	693	0	10000	4	1	0	4	0
361	694	0	10000	4	1	0	4	0
357	695	0	10000	4	1	0	4	0
351	696	0	10000	4	1	0	4	0
350	697	0	10000	4	1	0	4	0
348	698	0	10000	4	1	0	4	0
340	699	0	10000	4	1	0	4	0
326	700	0	10000	4	1	0	4	0
311	701	0	10000	4	1	0	4	0
301	702	0	10000	4	1	0	4	0
291	703	0	10000	4	1	0	4	0
282	704	0	10000	4	1	0	4	0
273	705	0	10000	4	1	0	4	0
264	706	0	10000	4	1	0	4	0
254	707	0	10000	4	1	0	4	0
245	708	0	10000	4	1	0	4	0
241	709	0	10000	4	1	0	4	0
237	710	0	10000	4	1	0	4	0
231	711	0	10000	4	1	0	4	0
220	712	0	10000	4	1	0	4	0
212	713	0	10000	4	1	0	4	0
205	714	0	10000	4	1	0	4	0
208	715	0	10000	4	1	0	4	0
208	716	0	10000	4	1	0	4	0
204	717	0	10000	4	1	0	4	0
209	718	0	10000	4	1	0	4	0
217	719	0	10000	4	1	0	4	0
224	720	0	10000	4	1	0	4	0
229	721	0	10000	4	1	0	4	0
235	722	0	10000	4	1	0	4	0
238	723	0	10000	4	1	0	4	0
241	724	0	10000	4	1	0	4	0
245	725	0	10000	4	1	0	4	0
251	726	0	10000	4	1	0	4	0
258	727	0	10000	4	1	0	4	0
255	728	0	10000	4	1	0	4	0
249	729	0	10000	4	1	0	4	0
240	730	0	10000	4	1	0	4	0
240	731	0	10000	4	1	0	4	0
248	732	0	10000	4	1	0	4	0
250	733	0	10000	4	1	0	4	0
245	734	0	10000	4	1	0	4	0
236	735	0	10000	4	1	0	4	0
237	736	0	10000	4	1	0	4	0
243	737	0	10000	4	1	0	4	0
247	738	0	10000	4	1	0	4	0
249	739	0	10000	4	1	0	4	0
252	740	0	10000	4	1	0	4	0
256	741	0	10000	4	1	0	4	0
258	742	0	10000	4	1	0	4	0
256	743	0	10000	4	1	0	4	0
248	744	0	10000	4	1	0	4	0
239	745	0	10000	4	1	0	4	0
228	746	0	10000	4	1	0	4	0
218	747	0	10000	4	1	0	4	0
211	748	0	10000	4	1	0	4	0
222	749	0	10000	4	1	0	4	0
223	750	0	10000	4	1	0	4	0
236	751	0	10000	4	1	0	4	0
255	752	0	10000	4	1	0	4	0
274	753	0	10000	4	1	0	4	0
272	754	0	10000	4	1	0	4	0
268	755	0	10000	4	1	0	4	0
273	756	0	10000	4	1	0	4	0
275	757	0	10000	4	1	0	4	0
276	758	0	10000	4	1	0	4	0
270	759	0	10000	4	1	0	4	0
257	760	0	10000	4	1	0	4	0
246	761	0	10000	4	1	0	4	0
237	762	0	10000	4	1	0	4	0
232	763	0	10000	4	1	0	4	0
231	764	0	10000	4	1	0	4	0
231	765	0	10000	4	1	0	4	0
229	766	0	10000	4	1	0	4	0
221	767	0	10000	4	1	0	4	0
215	768	0	10000	4	1	0	4	0
208	769	0	10000	4	1	0	4	0
199	770	0	10000	4	1	0	4	0
194	771	0	10000	4	1	0	4	0
194	772	0	10000	4	1	0	4	0
195	773	0	10000	4	1	0	4	0
199	774	0	10000	4	1	0	4	0
198	775	0	10000	4	1	0	4	0
192	776	0	10000	4	1	0	4	0
186	777	0	10000	4	1	0	4	0
183	778	0	10000	4	1	0	4	0
177	779	0	10000	4	1	0	4	0
173	780	0	10000	4	1	0	4	0
166	781	0	10000	4	1	0	4	0
164	782	0	10000	4	1	0	4	0
166	783	0	10000	4	1	0	4	0
168	784	0	10000	4	1	0	4	0
164	785	0	10000	4	1	0	4	0
164	786	0	10000	4	1	0	4	0
174	787	0	10000	4	1	0	4	0
192	788	0	10000	4	1	0	4	0
238	789	0	10000	4	1	0	4	0
281	790	0	10000	4	1	0	4	0
282	791	0	10000	4	1	0	4	0
275	792	0	10000	4	1	0	4	0
273	793	0	10000	4	1	0	4	0
275	794	0	10000	4	1	0	4	0
277	795	0	10000	4	1	0	4	0
278	796	0	10000	4	1	0	4	0
274	797	0	10000	4	1	0	4	0
272	798	0	10000	4	1	0	4	0
272	799	0	10000	4	1	0	4	0
269	800	0	10000	4	1	0	4	0
265	801	0	10000	4	1	0	4	0
263	802	0	10000	4	1	0	4	0
254	803	0	10000	4	1	0	4	0
247	804	0	10000	4	1	0	4	0
244	805	0	10000	4	1	0	4	0
249	806	0	10000	4	1	0	4	0
240	807	0	10000	4	1	0	4	0
233	808	0	10000	4	1	0	4	0
231	809	0	10000	4	1	0	4	0
243	810	0	10000	4	1	0	4	0
251	811	0	10000	4	1	0	4	0
244	812	0	10000	4	1	0	4	0
246	813	0	10000	4	1	0	4	0
259	814	0	10000	4	1	0	4	0
278	815	0	10000	4	1	0	4	0
298	816	0	10000	4	1	0	4	0
314	817	0	10000	4	1	0	4	0
325	818	0	10000	4	1	0	4	0
327	819	0	10000	4	1	0	4	0
319	820	0	10000	4	1	0	4	0
314	821	0	10000	4	1	0	4	0
316	822	0	10000	4	1	0	4	0
315	823	0	10000	4	1	0	4	0
303	824	0	10000	4	1	0	4	0
295	825	0	10000	4	1	0	4	0
292	826	0	10000	4	1	0	4	0
296	827	0	10000	4	1	0	4	0
306	828	0	10000	4	1	0	4	0
316	829	0	10000	4	1	0	4	0
319	830	0	10000	4	1	0	4	0
316	831	0	10000	4	1	0	4	0
312	832	0	10000	4	1	0	4	0
304	833	0	10000	4	1	0	4	0
297	834	0	10000	4	1	0	4	0
285	835	0	10000	4	1	0	4	0
274	836	0	10000	4	1	0	4	0
272	837	0	10000	4	1	0	4	0
278	838	0	10000	4	1	0	4	0
281	839	0	10000	4	1	0	4	0
279	840	0	10000	4	1	0	4	0
271	841	0	10000	4	1	0	4	0
263	842	0	10000	4	1	0	4	0
253	843	0	10000	4	1	0	4	0
242	844	0	10000	4	1	0	4	0
232	845	0	10000	4	1	0	4	0
226	846	0	10000	4	1	0	4	0
230	847	0	10000	4	1	0	4	0
228	848	0	10000	4	1	0	4	0
222	849	0	10000	4	1	0	4	0
219	850	0	10000	4	1	0	4	0
213	851	0	10000	4	1	0	4	0
202	852	0	10000	4	1	0	4	0
197	853	0	10000	4	1	0	4	0
196	854	0	10000	4	1	0	4	0
193	855	0	10000	4	1	0	4	0
186	856	0	10000	4	1	0	4	0
181	857	0	10000	4	1	0	4	0
173	858	0	10000	4	1	0	4	0
165	859	0	10000	4	1	0	4	0
160	860	0	10000	4	1	0	4	0
158	861	0	10000	4	1	0	4	0
163	862	0	10000	4	1	0	4	0
168	863	0	10000	4	1	0	4	0
167	864	0	10000	4	1	0	4	0
171	865	0	10000	4	1	0	4	0
184	866	0	10000	4	1	0	4	0
187	867	0	10000	4	1	0	4	0
187	868	0	10000	4	1	0	4	0
209	869	0	10000	4	1	0	4	0
237	870	0	10000	4	1	0	4	0
270	871	0	10000	4	1	0	4	0
292	872	0	10000	4	1	0	4	0
298	873	0	10000	4	1	0	4	0
292	874	0	10000	4	1	0	4	0
279	875	0	10000	4	1	0	4	0
272	876	0	10000	4	1	0	4	0
270	877	0	10000	4	1	0	4	0
275	878	0	10000	4	1	0	4	0
274	879	0	10000	4	1	0	4	0
263	880	0	10000	4	1	0	4	0
254	881	0	10000	4	1	0	4	0
248	882	0	10000	4	1	0	4	0
256	883	0	10000	4	1	0	4	0
263	884	0	10000	4	1	0	4	0
268	885	0	10000	4	1	0	4	0
275	886	0	10000	4	1	0	4	0
272	887	0	10000	4	1	0	4	0
265	888	0	10000	4	1	0	4	0
266	889	0	10000	4	1	0	4	0
268	890	0	10000	4	1	0	4	0
267	891	0	10000	4	1	0	4	0
259	892	0	10000	4	1	0	4	0
247	893	0	10000	4	1	0	4	0
239	894	0	10000	4	1	0	4	0
242	895	0	10000	4	1	0	4	0
259	896	0	10000	4	1	0	4	0
269	897	0	10000	4	1	0	4	0
262	898	0	10000	4	1	0	4	0
267	899	0	10000	4	1	0	4	0
277	900	0	10000	4	1	0	4	0
280	901	0	10000	4	1	0	4	0
285	902	0	10000	4	1	0	4	0
293	903	0	10000	4	1	0	4	0
300	904	0	10000	4	1	0	4	0
300	905	0	10000	4	1	0	4	0
290	906	0	10000	4	1	0	4	0
278	907	0	10000	4	1	0	4	0
268	908	0	10000	4	1	0	4	0
263	909	0	10000	4	1	0	4	0
273	910	0	10000	4	1	0	4	0
275	911	0	10000	4	1	0	4	0
265	912	0	10000	4	1	0	4	0
263	913	0	10000	4	1	0	4	0
256	914	0	10000	4	1	0	4	0
258	915	0	10000	4	1	0	4	0
262	916	0	10000	4	1	0	4	0
254	917	0	10000	4	1	0	4	0
247	918	0	10000	4	1	0	4	0
244	919	0	10000	4	1	0	4	0
238	920	0	10000	4	1	0	4	0
242	921	0	10000	4	1	0	4	0
251	922	0	10000	4	1	0	4	0
245	923	0	10000	4	1	0	4	0
248	924	0	10000	4	1	0	4	0
243	925	0	10000	4	1	0	4	0
249	926	0	10000	4	1	0	4	0
247	927	0	10000	4	1	0	4	0
245	928	0	10000	4	1	0	4	0
237	929	0	10000	4	1	0	4	0
229	930	0	10000	4	1	0	4	0
226	931	0	10000	4	1	0	4	0
231	932	0	10000	4	1	0	4	0
250	933	0	10000	4	1	0	4	0
269	934	0	10000	4	1	0	4	0
264	935	0	10000	4	1	0	4	0
272	936	0	10000	4	1	0	4	0
282	937	0	10000	4	1	0	4	0
284	938	0	10000	4	1	0	4	0
273	939	0	10000	4	1	0	4	0
267	940	0	10000	4	1	0	4	0
283	941	0	10000	4	1	0	4	0
287	942	0	10000	4	1	0	4	0
282	943	0	10000	4	1	0	4	0
284	944	0	10000	4	1	0	4	0
291	945	0	10000	4	1	0	4	0
303	946	0	10000	4	1	0	4	0
305	947	0	10000	4	1	0	4	0
296	948	0	10000	4	1	0	4	0
293	949	0	10000	4	1	0	4	0
283	950	0	10000	4	1	0	4	0
278	951	0	10000	4	1	0	4	0
273	952	0	10000	4	1	0	4	0
265	953	0	10000	4	1	0	4	0
267	954	0	10000	4	1	0	4	0
262	955	0	10000	4	1	0	4	0
251	956	0	10000	4	1	0	4	0
244	957	0	10000	4	1	0	4	0
235	958	0	10000	4	1	0	4	0
227	959	0	10000	4	1	0	4	0
219	960	0	10000	4	1	0	4	0
211	961	0	10000	4	1	0	4	0
205	962	0	10000	4	1	0	4	0
200	963	0	10000	4	1	0	4	0
195	964	0	10000	4	1	0	4	0
188	965	0	10000	4	1	0	4	0
181	966	0	10000	4	1	0	4	0
204	967	0	10000	4	1	0	4	0
242	968	0	10000	4	1	0	4	0
251	969	0	10000	4	1	0	4	0
256	970	0	10000	4	1	0	4	0
261	971	0	10000	4	1	0	4	0
258	972	0	10000	4	1	0	4	0
264	973	0	10000	4	1	0	4	0
272	974	0	10000	4	1	0	4	0
269	975	0	10000	4	1	0	4	0
273	976	0	10000	4	1	0	4	0
300	977	0	10000	4	1	0	4	0
310	978	0	10000	4	1	0	4	0
299	979	0	10000	4	1	0	4	0
290	980	0	10000	4	1	0	4	0
286	981	0	10000	4	1	0	4	0
275	982	0	10000	4	1	0	4	0
264	983	0	10000	4	1	0	4	0
264	984	0	10000	4	1	0	4	0
283	985	0	10000	4	1	0	4	0
306	986	0	10000	4	1	0	4	0
313	987	0	10000	4	1	0	4	0
302	988	0	10000	4	1	0	4	0
290	989	0	10000	4	1	0	4	0
281	990	0	10000	4	1	0	4	0
289	991	0	10000	4	1	0	4	0
301	992	0	10000	4	1	0	4	0
303	993	0	10000	4	1	0	4	0
311	994	0	10000	4	1	0	4	0
310	995	0	10000	4	1	0	4	0
309	996	0	10000	4	1	0	4	0
319	997	0	10000	4	1	0	4	0
331	998	0	10000	4	1	0	4	0
338	999	0	10000	4	1	0	4	0
328	1000	0	10000	4	1	0	4	0
320	1001	0	10000	4	1	0	4	0
53	1	7	10000	5	1	0	5	0
52	2	7	10000	5	1	0	5	0
50	3	7	10000	5	1	0	5	0
48	4	7	10000	5	1	0	5	0
47	5	7	10000	5	1	0	5	0
47	6	7	10000	5	1	0	5	0
48	7	7	10000	5	1	0	5	0
47	8	7	10000	5	1	0	5	0
46	9	7	10000	5	1	0	5	0
48	10	7	10000	5	1	0	5	0
51	11	7	10000	5	1	0	5	0
56	12	7	10000	5	1	0	5	0
59	13	7	10000	5	1	0	5	0
64	14	7	10000	5	1	0	5	0
69	15	7	10000	5	1	0	5	0
72	16	7	10000	5	1	0	5	0
70	17	7	10000	5	1	0	5	0
68	18	7	10000	5	1	0	5	0
68	19	7	10000	5	1	0	5	0
70	20	7	10000	5	1	0	5	0
72	21	7	10000	5	1	0	5	0
73	22	7	10000	5	1	0	5	0
73	23	7	10000	5	1	0	5	0
74	24	7	10000	5	1	0	5	0
75	25	7	10000	5	1	0	5	0
72	26	7	10000	5	1	0	5	0
69	27	7	10000	5	1	0	5	0
68	28	7	10000	5	1	0	5	0
65	29	7	10000	5	1	0	5	0
62	30	7	10000	5	1	0	5	0
60	31	7	10000	5	1	0	5	0
61	32	7	10000	5	1	0	5	0
61	33	7	10000	5	1	0	5	0
58	34	7	10000	5	1	0	5	0
57	35	7	10000	5	1	0	5	0
58	36	7	10000	5	1	0	5	0
61	37	7	10000	5	1	0	5	0
64	38	7	10000	5	1	0	5	0
65	39	7	10000	5	1	0	5	0
63	40	7	10000	5	1	0	5	0
61	41	7	10000	5	1	0	5	0
59	42	7	10000	5	1	0	5	0
58	43	7	10000	5	1	0	5	0
59	44	7	10000	5	1	0	5	0
59	45	7	10000	5	1	0	5	0
57	46	7	10000	5	1	0	5	0
56	47	7	10000	5	1	0	5	0
59	48	7	10000	5	1	0	5	0
62	49	7	10000	5	1	0	5	0
65	50	7	10000	5	1	0	5	0
64	51	7	10000	5	1	0	5	0
65	52	7	10000	5	1	0	5	0
70	53	7	10000	5	1	0	5	0
73	54	7	10000	5	1	0	5	0
72	55	7	10000	5	1	0	5	0
71	56	7	10000	5	1	0	5	0
72	57	7	10000	5	1	0	5	0
71	58	7	10000	5	1	0	5	0
70	59	7	10000	5	1	0	5	0
69	60	7	10000	5	1	0	5	0
68	61	7	10000	5	1	0	5	0
66	62	7	10000	5	1	0	5	0
67	63	7	10000	5	1	0	5	0
67	64	7	10000	5	1	0	5	0
66	65	7	10000	5	1	0	5	0
64	66	7	10000	5	1	0	5	0
65	67	7	10000	5	1	0	5	0
67	68	7	10000	5	1	0	5	0
64	69	7	10000	5	1	0	5	0
62	70	7	10000	5	1	0	5	0
61	71	7	10000	5	1	0	5	0
61	72	7	10000	5	1	0	5	0
62	73	7	10000	5	1	0	5	0
62	74	7	10000	5	1	0	5	0
61	75	7	10000	5	1	0	5	0
62	76	7	10000	5	1	0	5	0
63	77	7	10000	5	1	0	5	0
62	78	7	10000	5	1	0	5	0
59	79	7	10000	5	1	0	5	0
59	80	7	10000	5	1	0	5	0
59	81	7	10000	5	1	0	5	0
61	82	7	10000	5	1	0	5	0
63	83	7	10000	5	1	0	5	0
66	84	7	10000	5	1	0	5	0
68	85	7	10000	5	1	0	5	0
69	86	7	10000	5	1	0	5	0
69	87	7	10000	5	1	0	5	0
67	88	7	10000	5	1	0	5	0
65	89	7	10000	5	1	0	5	0
67	90	7	10000	5	1	0	5	0
68	91	7	10000	5	1	0	5	0
71	92	7	10000	5	1	0	5	0
69	93	7	10000	5	1	0	5	0
68	94	7	10000	5	1	0	5	0
67	95	7	10000	5	1	0	5	0
67	96	7	10000	5	1	0	5	0
65	97	7	10000	5	1	0	5	0
65	98	7	10000	5	1	0	5	0
64	99	7	10000	5	1	0	5	0
61	100	7	10000	5	1	0	5	0
61	101	7	10000	5	1	0	5	0
61	102	7	10000	5	1	0	5	0
60	103	7	10000	5	1	0	5	0
59	104	7	10000	5	1	0	5	0
63	105	7	10000	5	1	0	5	0
67	106	7	10000	5	1	0	5	0
66	107	7	10000	5	1	0	5	0
68	108	7	10000	5	1	0	5	0
70	109	7	10000	5	1	0	5	0
67	110	7	10000	5	1	0	5	0
65	111	7	10000	5	1	0	5	0
64	112	7	10000	5	1	0	5	0
62	113	7	10000	5	1	0	5	0
59	114	7	10000	5	1	0	5	0
59	115	7	10000	5	1	0	5	0
62	116	7	10000	5	1	0	5	0
64	117	7	10000	5	1	0	5	0
65	118	7	10000	5	1	0	5	0
64	119	7	10000	5	1	0	5	0
61	120	7	10000	5	1	0	5	0
60	121	7	10000	5	1	0	5	0
59	122	7	10000	5	1	0	5	0
58	123	7	10000	5	1	0	5	0
59	124	7	10000	5	1	0	5	0
64	125	7	10000	5	1	0	5	0
69	126	7	10000	5	1	0	5	0
67	127	7	10000	5	1	0	5	0
67	128	7	10000	5	1	0	5	0
66	129	7	10000	5	1	0	5	0
63	130	7	10000	5	1	0	5	0
63	131	7	10000	5	1	0	5	0
63	132	7	10000	5	1	0	5	0
61	133	7	10000	5	1	0	5	0
59	134	7	10000	5	1	0	5	0
59	135	7	10000	5	1	0	5	0
59	136	7	10000	5	1	0	5	0
57	137	7	10000	5	1	0	5	0
56	138	7	10000	5	1	0	5	0
55	139	7	10000	5	1	0	5	0
59	140	7	10000	5	1	0	5	0
63	141	7	10000	5	1	0	5	0
63	142	7	10000	5	1	0	5	0
61	143	7	10000	5	1	0	5	0
67	144	7	10000	5	1	0	5	0
74	145	7	10000	5	1	0	5	0
78	146	7	10000	5	1	0	5	0
75	147	7	10000	5	1	0	5	0
73	148	7	10000	5	1	0	5	0
71	149	7	10000	5	1	0	5	0
68	150	7	10000	5	1	0	5	0
68	151	7	10000	5	1	0	5	0
71	152	7	10000	5	1	0	5	0
74	153	7	10000	5	1	0	5	0
74	154	7	10000	5	1	0	5	0
72	155	7	10000	5	1	0	5	0
70	156	7	10000	5	1	0	5	0
70	157	7	10000	5	1	0	5	0
70	158	7	10000	5	1	0	5	0
72	159	7	10000	5	1	0	5	0
72	160	7	10000	5	1	0	5	0
70	161	7	10000	5	1	0	5	0
69	162	7	10000	5	1	0	5	0
69	163	7	10000	5	1	0	5	0
69	164	7	10000	5	1	0	5	0
67	165	7	10000	5	1	0	5	0
66	166	7	10000	5	1	0	5	0
66	167	7	10000	5	1	0	5	0
64	168	7	10000	5	1	0	5	0
63	169	7	10000	5	1	0	5	0
60	170	7	10000	5	1	0	5	0
57	171	7	10000	5	1	0	5	0
58	172	7	10000	5	1	0	5	0
59	173	7	10000	5	1	0	5	0
58	174	7	10000	5	1	0	5	0
57	175	7	10000	5	1	0	5	0
55	176	7	10000	5	1	0	5	0
54	177	7	10000	5	1	0	5	0
53	178	7	10000	5	1	0	5	0
51	179	7	10000	5	1	0	5	0
52	180	7	10000	5	1	0	5	0
51	181	7	10000	5	1	0	5	0
50	182	7	10000	5	1	0	5	0
46	183	7	10000	5	1	0	5	0
46	184	7	10000	5	1	0	5	0
45	185	7	10000	5	1	0	5	0
44	186	7	10000	5	1	0	5	0
43	187	7	10000	5	1	0	5	0
43	188	7	10000	5	1	0	5	0
42	189	7	10000	5	1	0	5	0
41	190	7	10000	5	1	0	5	0
40	191	7	10000	5	1	0	5	0
40	192	7	10000	5	1	0	5	0
40	193	7	10000	5	1	0	5	0
40	194	7	10000	5	1	0	5	0
40	195	7	10000	5	1	0	5	0
40	196	7	10000	5	1	0	5	0
40	197	7	10000	5	1	0	5	0
39	198	7	10000	5	1	0	5	0
40	199	7	10000	5	1	0	5	0
41	200	7	10000	5	1	0	5	0
43	201	7	10000	5	1	0	5	0
43	202	7	10000	5	1	0	5	0
42	203	7	10000	5	1	0	5	0
42	204	7	10000	5	1	0	5	0
42	205	7	10000	5	1	0	5	0
41	206	7	10000	5	1	0	5	0
40	207	7	10000	5	1	0	5	0
39	208	7	10000	5	1	0	5	0
39	209	7	10000	5	1	0	5	0
37	210	7	10000	5	1	0	5	0
35	211	7	10000	5	1	0	5	0
36	212	7	10000	5	1	0	5	0
36	213	7	10000	5	1	0	5	0
35	214	7	10000	5	1	0	5	0
37	215	7	10000	5	1	0	5	0
39	216	7	10000	5	1	0	5	0
45	217	7	10000	5	1	0	5	0
50	218	7	10000	5	1	0	5	0
52	219	7	10000	5	1	0	5	0
54	220	7	10000	5	1	0	5	0
53	221	7	10000	5	1	0	5	0
51	222	7	10000	5	1	0	5	0
48	223	7	10000	5	1	0	5	0
49	224	7	10000	5	1	0	5	0
52	225	7	10000	5	1	0	5	0
51	226	7	10000	5	1	0	5	0
51	227	7	10000	5	1	0	5	0
51	228	7	10000	5	1	0	5	0
50	229	7	10000	5	1	0	5	0
47	230	7	10000	5	1	0	5	0
45	231	7	10000	5	1	0	5	0
45	232	7	10000	5	1	0	5	0
45	233	7	10000	5	1	0	5	0
44	234	7	10000	5	1	0	5	0
44	235	7	10000	5	1	0	5	0
45	236	7	10000	5	1	0	5	0
45	237	7	10000	5	1	0	5	0
45	238	7	10000	5	1	0	5	0
45	239	7	10000	5	1	0	5	0
45	240	7	10000	5	1	0	5	0
44	241	7	10000	5	1	0	5	0
43	242	7	10000	5	1	0	5	0
45	243	7	10000	5	1	0	5	0
49	244	7	10000	5	1	0	5	0
49	245	7	10000	5	1	0	5	0
48	246	7	10000	5	1	0	5	0
48	247	7	10000	5	1	0	5	0
48	248	7	10000	5	1	0	5	0
45	249	7	10000	5	1	0	5	0
44	250	7	10000	5	1	0	5	0
43	251	7	10000	5	1	0	5	0
43	252	7	10000	5	1	0	5	0
44	253	7	10000	5	1	0	5	0
46	254	7	10000	5	1	0	5	0
51	255	7	10000	5	1	0	5	0
54	256	7	10000	5	1	0	5	0
54	257	7	10000	5	1	0	5	0
52	258	7	10000	5	1	0	5	0
53	259	7	10000	5	1	0	5	0
57	260	7	10000	5	1	0	5	0
59	261	7	10000	5	1	0	5	0
56	262	7	10000	5	1	0	5	0
60	263	7	10000	5	1	0	5	0
65	264	7	10000	5	1	0	5	0
65	265	7	10000	5	1	0	5	0
66	266	7	10000	5	1	0	5	0
70	267	7	10000	5	1	0	5	0
74	268	7	10000	5	1	0	5	0
75	269	7	10000	5	1	0	5	0
75	270	7	10000	5	1	0	5	0
75	271	7	10000	5	1	0	5	0
76	272	7	10000	5	1	0	5	0
74	273	7	10000	5	1	0	5	0
78	274	7	10000	5	1	0	5	0
79	275	7	10000	5	1	0	5	0
78	276	7	10000	5	1	0	5	0
76	277	7	10000	5	1	0	5	0
73	278	7	10000	5	1	0	5	0
71	279	7	10000	5	1	0	5	0
71	280	7	10000	5	1	0	5	0
71	281	7	10000	5	1	0	5	0
70	282	7	10000	5	1	0	5	0
67	283	7	10000	5	1	0	5	0
68	284	7	10000	5	1	0	5	0
72	285	7	10000	5	1	0	5	0
73	286	7	10000	5	1	0	5	0
71	287	7	10000	5	1	0	5	0
70	288	7	10000	5	1	0	5	0
70	289	7	10000	5	1	0	5	0
71	290	7	10000	5	1	0	5	0
70	291	7	10000	5	1	0	5	0
68	292	7	10000	5	1	0	5	0
68	293	7	10000	5	1	0	5	0
65	294	7	10000	5	1	0	5	0
64	295	7	10000	5	1	0	5	0
63	296	7	10000	5	1	0	5	0
63	297	7	10000	5	1	0	5	0
61	298	7	10000	5	1	0	5	0
60	299	7	10000	5	1	0	5	0
63	300	7	10000	5	1	0	5	0
63	301	7	10000	5	1	0	5	0
60	302	7	10000	5	1	0	5	0
57	303	7	10000	5	1	0	5	0
55	304	7	10000	5	1	0	5	0
55	305	7	10000	5	1	0	5	0
53	306	7	10000	5	1	0	5	0
51	307	7	10000	5	1	0	5	0
49	308	7	10000	5	1	0	5	0
47	309	7	10000	5	1	0	5	0
44	310	7	10000	5	1	0	5	0
43	311	7	10000	5	1	0	5	0
42	312	7	10000	5	1	0	5	0
44	313	7	10000	5	1	0	5	0
44	314	7	10000	5	1	0	5	0
44	315	7	10000	5	1	0	5	0
42	316	7	10000	5	1	0	5	0
41	317	7	10000	5	1	0	5	0
43	318	7	10000	5	1	0	5	0
44	319	7	10000	5	1	0	5	0
44	320	7	10000	5	1	0	5	0
44	321	7	10000	5	1	0	5	0
42	322	7	10000	5	1	0	5	0
40	323	7	10000	5	1	0	5	0
38	324	7	10000	5	1	0	5	0
37	325	7	10000	5	1	0	5	0
38	326	7	10000	5	1	0	5	0
37	327	7	10000	5	1	0	5	0
40	328	7	10000	5	1	0	5	0
41	329	7	10000	5	1	0	5	0
40	330	7	10000	5	1	0	5	0
39	331	7	10000	5	1	0	5	0
40	332	7	10000	5	1	0	5	0
42	333	7	10000	5	1	0	5	0
44	334	7	10000	5	1	0	5	0
44	335	7	10000	5	1	0	5	0
42	336	7	10000	5	1	0	5	0
41	337	7	10000	5	1	0	5	0
42	338	7	10000	5	1	0	5	0
44	339	7	10000	5	1	0	5	0
43	340	7	10000	5	1	0	5	0
44	341	7	10000	5	1	0	5	0
46	342	7	10000	5	1	0	5	0
50	343	7	10000	5	1	0	5	0
53	344	7	10000	5	1	0	5	0
53	345	7	10000	5	1	0	5	0
52	346	7	10000	5	1	0	5	0
51	347	7	10000	5	1	0	5	0
50	348	7	10000	5	1	0	5	0
48	349	7	10000	5	1	0	5	0
46	350	7	10000	5	1	0	5	0
45	351	7	10000	5	1	0	5	0
45	352	7	10000	5	1	0	5	0
47	353	7	10000	5	1	0	5	0
48	354	7	10000	5	1	0	5	0
46	355	7	10000	5	1	0	5	0
44	356	7	10000	5	1	0	5	0
42	357	7	10000	5	1	0	5	0
40	358	7	10000	5	1	0	5	0
39	359	7	10000	5	1	0	5	0
37	360	7	10000	5	1	0	5	0
37	361	7	10000	5	1	0	5	0
35	362	7	10000	5	1	0	5	0
33	363	7	10000	5	1	0	5	0
33	364	7	10000	5	1	0	5	0
32	365	7	10000	5	1	0	5	0
32	366	7	10000	5	1	0	5	0
31	367	7	10000	5	1	0	5	0
31	368	7	10000	5	1	0	5	0
32	369	7	10000	5	1	0	5	0
34	370	7	10000	5	1	0	5	0
34	371	7	10000	5	1	0	5	0
34	372	7	10000	5	1	0	5	0
35	373	7	10000	5	1	0	5	0
35	374	7	10000	5	1	0	5	0
33	375	7	10000	5	1	0	5	0
33	376	7	10000	5	1	0	5	0
35	377	7	10000	5	1	0	5	0
35	378	7	10000	5	1	0	5	0
34	379	7	10000	5	1	0	5	0
33	380	7	10000	5	1	0	5	0
35	381	7	10000	5	1	0	5	0
34	382	7	10000	5	1	0	5	0
32	383	7	10000	5	1	0	5	0
33	384	7	10000	5	1	0	5	0
35	385	7	10000	5	1	0	5	0
37	386	7	10000	5	1	0	5	0
38	387	7	10000	5	1	0	5	0
36	388	7	10000	5	1	0	5	0
35	389	7	10000	5	1	0	5	0
35	390	7	10000	5	1	0	5	0
36	391	7	10000	5	1	0	5	0
38	392	7	10000	5	1	0	5	0
39	393	7	10000	5	1	0	5	0
39	394	7	10000	5	1	0	5	0
38	395	7	10000	5	1	0	5	0
40	396	7	10000	5	1	0	5	0
43	397	7	10000	5	1	0	5	0
44	398	7	10000	5	1	0	5	0
43	399	7	10000	5	1	0	5	0
43	400	7	10000	5	1	0	5	0
42	401	7	10000	5	1	0	5	0
41	402	7	10000	5	1	0	5	0
38	403	7	10000	5	1	0	5	0
37	404	7	10000	5	1	0	5	0
38	405	7	10000	5	1	0	5	0
38	406	7	10000	5	1	0	5	0
39	407	7	10000	5	1	0	5	0
37	408	7	10000	5	1	0	5	0
37	409	7	10000	5	1	0	5	0
38	410	7	10000	5	1	0	5	0
38	411	7	10000	5	1	0	5	0
39	412	7	10000	5	1	0	5	0
45	413	7	10000	5	1	0	5	0
50	414	7	10000	5	1	0	5	0
51	415	7	10000	5	1	0	5	0
52	416	7	10000	5	1	0	5	0
61	417	7	10000	5	1	0	5	0
68	418	7	10000	5	1	0	5	0
69	419	7	10000	5	1	0	5	0
78	420	7	10000	5	1	0	5	0
84	421	7	10000	5	1	0	5	0
84	422	7	10000	5	1	0	5	0
80	423	7	10000	5	1	0	5	0
78	424	7	10000	5	1	0	5	0
77	425	7	10000	5	1	0	5	0
75	426	7	10000	5	1	0	5	0
77	427	7	10000	5	1	0	5	0
76	428	7	10000	5	1	0	5	0
78	429	7	10000	5	1	0	5	0
84	430	7	10000	5	1	0	5	0
92	431	7	10000	5	1	0	5	0
104	432	7	10000	5	1	0	5	0
115	433	7	10000	5	1	0	5	0
136	434	7	10000	5	1	0	5	0
164	435	7	10000	5	1	0	5	0
168	436	7	10000	5	1	0	5	0
191	437	7	10000	5	1	0	5	0
221	438	7	10000	5	1	0	5	0
237	439	7	10000	5	1	0	5	0
232	440	7	10000	5	1	0	5	0
225	441	7	10000	5	1	0	5	0
222	442	7	10000	5	1	0	5	0
231	443	7	10000	5	1	0	5	0
231	444	7	10000	5	1	0	5	0
227	445	7	10000	5	1	0	5	0
233	446	7	10000	5	1	0	5	0
258	447	7	10000	5	1	0	5	0
279	448	7	10000	5	1	0	5	0
276	449	7	10000	5	1	0	5	0
279	450	7	10000	5	1	0	5	0
300	451	7	10000	5	1	0	5	0
324	452	7	10000	5	1	0	5	0
328	453	7	10000	5	1	0	5	0
319	454	7	10000	5	1	0	5	0
340	455	7	10000	5	1	0	5	0
406	456	7	10000	5	1	0	5	0
465	457	7	10000	5	1	0	5	0
495	458	7	10000	5	1	0	5	0
510	459	7	10000	5	1	0	5	0
500	460	7	10000	5	1	0	5	0
515	461	7	10000	5	1	0	5	0
550	462	7	10000	5	1	0	5	0
578	463	7	10000	5	1	0	5	0
602	464	7	10000	5	1	0	5	0
615	465	7	10000	5	1	0	5	0
619	466	7	10000	5	1	0	5	0
608	467	7	10000	5	1	0	5	0
589	468	7	10000	5	1	0	5	0
563	469	7	10000	5	1	0	5	0
538	470	7	10000	5	1	0	5	0
517	471	7	10000	5	1	0	5	0
498	472	7	10000	5	1	0	5	0
502	473	7	10000	5	1	0	5	0
519	474	7	10000	5	1	0	5	0
508	475	7	10000	5	1	0	5	0
505	476	7	10000	5	1	0	5	0
489	477	7	10000	5	1	0	5	0
469	478	7	10000	5	1	0	5	0
468	479	7	10000	5	1	0	5	0
469	480	7	10000	5	1	0	5	0
459	481	7	10000	5	1	0	5	0
441	482	7	10000	5	1	0	5	0
423	483	7	10000	5	1	0	5	0
413	484	7	10000	5	1	0	5	0
407	485	7	10000	5	1	0	5	0
398	486	7	10000	5	1	0	5	0
386	487	7	10000	5	1	0	5	0
371	488	7	10000	5	1	0	5	0
359	489	7	10000	5	1	0	5	0
349	490	7	10000	5	1	0	5	0
340	491	7	10000	5	1	0	5	0
333	492	7	10000	5	1	0	5	0
328	493	7	10000	5	1	0	5	0
319	494	7	10000	5	1	0	5	0
308	495	7	10000	5	1	0	5	0
297	496	7	10000	5	1	0	5	0
284	497	7	10000	5	1	0	5	0
271	498	7	10000	5	1	0	5	0
259	499	7	10000	5	1	0	5	0
249	500	7	10000	5	1	0	5	0
239	501	7	10000	5	1	0	5	1
230	502	7	10000	5	1	0	5	1
224	503	7	10000	5	1	0	5	1
221	504	7	10000	5	1	0	5	1
219	505	7	10000	5	1	0	5	1
217	506	7	10000	5	1	0	5	1
212	507	7	10000	5	1	0	5	1
206	508	7	10000	5	1	0	5	1
200	509	7	10000	5	1	0	5	1
195	510	7	10000	5	1	0	5	1
196	511	7	10000	5	1	0	5	1
199	512	7	10000	5	1	0	5	1
205	513	7	10000	5	1	0	5	1
209	514	7	10000	5	1	0	5	1
213	515	7	10000	5	1	0	5	1
217	516	7	10000	5	1	0	5	1
220	517	7	10000	5	1	0	5	1
221	518	7	10000	5	1	0	5	1
221	519	7	10000	5	1	0	5	1
220	520	7	10000	5	1	0	5	1
217	521	7	10000	5	1	0	5	1
214	522	7	10000	5	1	0	5	1
213	523	7	10000	5	1	0	5	1
214	524	7	10000	5	1	0	5	1
217	525	7	10000	5	1	0	5	1
219	526	7	10000	5	1	0	5	1
218	527	7	10000	5	1	0	5	1
216	528	7	10000	5	1	0	5	1
214	529	7	10000	5	1	0	5	1
211	530	7	10000	5	1	0	5	1
209	531	7	10000	5	1	0	5	1
210	532	7	10000	5	1	0	5	1
212	533	7	10000	5	1	0	5	1
213	534	7	10000	5	1	0	5	1
214	535	7	10000	5	1	0	5	1
213	536	7	10000	5	1	0	5	1
211	537	7	10000	5	1	0	5	1
208	538	7	10000	5	1	0	5	1
205	539	7	10000	5	1	0	5	1
199	540	7	10000	5	1	0	5	1
191	541	7	10000	5	1	0	5	1
182	542	7	10000	5	1	0	5	1
175	543	7	10000	5	1	0	5	1
171	544	7	10000	5	1	0	5	1
168	545	7	10000	5	1	0	5	1
163	546	7	10000	5	1	0	5	1
155	547	7	10000	5	1	0	5	1
150	548	7	10000	5	1	0	5	1
145	549	7	10000	5	1	0	5	1
139	550	7	10000	5	1	0	5	1
131	551	7	10000	5	1	0	5	0
126	552	7	10000	5	1	0	5	0
123	553	7	10000	5	1	0	5	0
117	554	7	10000	5	1	0	5	0
113	555	7	10000	5	1	0	5	0
108	556	7	10000	5	1	0	5	0
104	557	7	10000	5	1	0	5	0
99	558	7	10000	5	1	0	5	0
97	559	7	10000	5	1	0	5	0
96	560	7	10000	5	1	0	5	0
95	561	7	10000	5	1	0	5	0
93	562	7	10000	5	1	0	5	0
92	563	7	10000	5	1	0	5	0
91	564	7	10000	5	1	0	5	0
90	565	7	10000	5	1	0	5	0
90	566	7	10000	5	1	0	5	0
88	567	7	10000	5	1	0	5	0
86	568	7	10000	5	1	0	5	0
85	569	7	10000	5	1	0	5	0
83	570	7	10000	5	1	0	5	0
80	571	7	10000	5	1	0	5	0
78	572	7	10000	5	1	0	5	0
76	573	7	10000	5	1	0	5	0
73	574	7	10000	5	1	0	5	0
69	575	7	10000	5	1	0	5	0
68	576	7	10000	5	1	0	5	0
67	577	7	10000	5	1	0	5	0
66	578	7	10000	5	1	0	5	0
66	579	7	10000	5	1	0	5	0
67	580	7	10000	5	1	0	5	0
70	581	7	10000	5	1	0	5	0
73	582	7	10000	5	1	0	5	0
76	583	7	10000	5	1	0	5	0
79	584	7	10000	5	1	0	5	0
80	585	7	10000	5	1	0	5	0
82	586	7	10000	5	1	0	5	0
80	587	7	10000	5	1	0	5	0
76	588	7	10000	5	1	0	5	0
74	589	7	10000	5	1	0	5	0
72	590	7	10000	5	1	0	5	0
69	591	7	10000	5	1	0	5	0
67	592	7	10000	5	1	0	5	0
67	593	7	10000	5	1	0	5	0
69	594	7	10000	5	1	0	5	0
70	595	7	10000	5	1	0	5	0
71	596	7	10000	5	1	0	5	0
70	597	7	10000	5	1	0	5	0
72	598	7	10000	5	1	0	5	0
76	599	7	10000	5	1	0	5	0
77	600	7	10000	5	1	0	5	0
79	601	7	10000	5	1	0	5	0
80	602	7	10000	5	1	0	5	0
81	603	7	10000	5	1	0	5	0
82	604	7	10000	5	1	0	5	0
80	605	7	10000	5	1	0	5	0
80	606	7	10000	5	1	0	5	0
78	607	7	10000	5	1	0	5	0
81	608	7	10000	5	1	0	5	0
85	609	7	10000	5	1	0	5	0
102	610	7	10000	5	1	0	5	0
137	611	7	10000	5	1	0	5	0
174	612	7	10000	5	1	0	5	0
209	613	7	10000	5	1	0	5	0
241	614	7	10000	5	1	0	5	0
243	615	7	10000	5	1	0	5	0
248	616	7	10000	5	1	0	5	0
248	617	7	10000	5	1	0	5	0
283	618	7	10000	5	1	0	5	0
343	619	7	10000	5	1	0	5	0
397	620	7	10000	5	1	0	5	0
401	621	7	10000	5	1	0	5	0
437	622	7	10000	5	1	0	5	0
493	623	7	10000	5	1	0	5	0
539	624	7	10000	5	1	0	5	0
550	625	7	10000	5	1	0	5	0
536	626	7	10000	5	1	0	5	0
525	627	7	10000	5	1	0	5	0
508	628	7	10000	5	1	0	5	0
511	629	7	10000	5	1	0	5	0
522	630	7	10000	5	1	0	5	0
533	631	7	10000	5	1	0	5	0
549	632	7	10000	5	1	0	5	0
552	633	7	10000	5	1	0	5	0
530	634	7	10000	5	1	0	5	0
507	635	7	10000	5	1	0	5	0
487	636	7	10000	5	1	0	5	0
466	637	7	10000	5	1	0	5	0
447	638	7	10000	5	1	0	5	0
434	639	7	10000	5	1	0	5	0
426	640	7	10000	5	1	0	5	0
420	641	7	10000	5	1	0	5	0
417	642	7	10000	5	1	0	5	0
414	643	7	10000	5	1	0	5	0
413	644	7	10000	5	1	0	5	0
411	645	7	10000	5	1	0	5	0
409	646	7	10000	5	1	0	5	0
405	647	7	10000	5	1	0	5	0
393	648	7	10000	5	1	0	5	0
376	649	7	10000	5	1	0	5	0
359	650	7	10000	5	1	0	5	0
342	651	7	10000	5	1	0	5	0
329	652	7	10000	5	1	0	5	0
317	653	7	10000	5	1	0	5	0
304	654	7	10000	5	1	0	5	0
290	655	7	10000	5	1	0	5	0
277	656	7	10000	5	1	0	5	0
266	657	7	10000	5	1	0	5	0
253	658	7	10000	5	1	0	5	0
243	659	7	10000	5	1	0	5	0
232	660	7	10000	5	1	0	5	0
223	661	7	10000	5	1	0	5	0
214	662	7	10000	5	1	0	5	0
202	663	7	10000	5	1	0	5	0
194	664	7	10000	5	1	0	5	0
187	665	7	10000	5	1	0	5	0
180	666	7	10000	5	1	0	5	0
174	667	7	10000	5	1	0	5	0
170	668	7	10000	5	1	0	5	0
169	669	7	10000	5	1	0	5	0
168	670	7	10000	5	1	0	5	0
167	671	7	10000	5	1	0	5	0
168	672	7	10000	5	1	0	5	0
169	673	7	10000	5	1	0	5	0
169	674	7	10000	5	1	0	5	0
170	675	7	10000	5	1	0	5	0
172	676	7	10000	5	1	0	5	0
174	677	7	10000	5	1	0	5	0
173	678	7	10000	5	1	0	5	0
170	679	7	10000	5	1	0	5	0
167	680	7	10000	5	1	0	5	0
162	681	7	10000	5	1	0	5	0
155	682	7	10000	5	1	0	5	0
148	683	7	10000	5	1	0	5	0
143	684	7	10000	5	1	0	5	0
139	685	7	10000	5	1	0	5	0
135	686	7	10000	5	1	0	5	0
131	687	7	10000	5	1	0	5	0
129	688	7	10000	5	1	0	5	0
127	689	7	10000	5	1	0	5	0
122	690	7	10000	5	1	0	5	0
116	691	7	10000	5	1	0	5	0
112	692	7	10000	5	1	0	5	0
111	693	7	10000	5	1	0	5	0
107	694	7	10000	5	1	0	5	0
108	695	7	10000	5	1	0	5	0
107	696	7	10000	5	1	0	5	0
107	697	7	10000	5	1	0	5	0
104	698	7	10000	5	1	0	5	0
99	699	7	10000	5	1	0	5	0
97	700	7	10000	5	1	0	5	0
95	701	7	10000	5	1	0	5	0
93	702	7	10000	5	1	0	5	0
92	703	7	10000	5	1	0	5	0
94	704	7	10000	5	1	0	5	0
96	705	7	10000	5	1	0	5	0
97	706	7	10000	5	1	0	5	0
98	707	7	10000	5	1	0	5	0
97	708	7	10000	5	1	0	5	0
95	709	7	10000	5	1	0	5	0
92	710	7	10000	5	1	0	5	0
88	711	7	10000	5	1	0	5	0
87	712	7	10000	5	1	0	5	0
87	713	7	10000	5	1	0	5	0
85	714	7	10000	5	1	0	5	0
85	715	7	10000	5	1	0	5	0
84	716	7	10000	5	1	0	5	0
83	717	7	10000	5	1	0	5	0
81	718	7	10000	5	1	0	5	0
79	719	7	10000	5	1	0	5	0
76	720	7	10000	5	1	0	5	0
75	721	7	10000	5	1	0	5	0
72	722	7	10000	5	1	0	5	0
67	723	7	10000	5	1	0	5	0
65	724	7	10000	5	1	0	5	0
64	725	7	10000	5	1	0	5	0
64	726	7	10000	5	1	0	5	0
65	727	7	10000	5	1	0	5	0
65	728	7	10000	5	1	0	5	0
66	729	7	10000	5	1	0	5	0
63	730	7	10000	5	1	0	5	0
61	731	7	10000	5	1	0	5	0
61	732	7	10000	5	1	0	5	0
61	733	7	10000	5	1	0	5	0
