value	EMG	Stimulus	EMG_sensitivity	Total_Trial_Nr	practise	acq	probe_nr	Startle_Probe
100	2	7	10000	1	1	0	1	0
99	3	7	10000	1	1	0	1	0
100	4	7	10000	1	1	0	1	0
100	5	7	10000	1	1	0	1	0
102	6	7	10000	1	1	0	1	0
104	7	7	10000	1	1	0	1	0
103	8	7	10000	1	1	0	1	0
102	9	7	10000	1	1	0	1	0
100	10	7	10000	1	1	0	1	0
103	11	7	10000	1	1	0	1	0
102	12	7	10000	1	1	0	1	0
100	13	7	10000	1	1	0	1	0
104	14	7	10000	1	1	0	1	0
104	15	7	10000	1	1	0	1	0
102	16	7	10000	1	1	0	1	0
99	17	7	10000	1	1	0	1	0
102	18	7	10000	1	1	0	1	0
101	19	7	10000	1	1	0	1	0
101	20	7	10000	1	1	0	1	0
102	21	7	10000	1	1	0	1	0
101	22	7	10000	1	1	0	1	0
101	23	7	10000	1	1	0	1	0
101	24	7	10000	1	1	0	1	0
101	25	7	10000	1	1	0	1	0
100	26	7	10000	1	1	0	1	0
101	27	7	10000	1	1	0	1	0
104	28	7	10000	1	1	0	1	0
101	29	7	10000	1	1	0	1	0
99	30	7	10000	1	1	0	1	0
100	31	7	10000	1	1	0	1	0
101	32	7	10000	1	1	0	1	0
98	33	7	10000	1	1	0	1	0
97	34	7	10000	1	1	0	1	0
101	35	7	10000	1	1	0	1	0
100	36	7	10000	1	1	0	1	0
98	37	7	10000	1	1	0	1	0
99	38	7	10000	1	1	0	1	0
99	39	7	10000	1	1	0	1	0
99	40	7	10000	1	1	0	1	0
99	41	7	10000	1	1	0	1	0
102	42	7	10000	1	1	0	1	0
100	43	7	10000	1	1	0	1	0
101	44	7	10000	1	1	0	1	0
101	45	7	10000	1	1	0	1	0
101	46	7	10000	1	1	0	1	0
103	47	7	10000	1	1	0	1	0
102	48	7	10000	1	1	0	1	0
105	49	7	10000	1	1	0	1	0
103	50	7	10000	1	1	0	1	0
101	51	7	10000	1	1	0	1	0
102	52	7	10000	1	1	0	1	0
101	53	7	10000	1	1	0	1	0
100	54	7	10000	1	1	0	1	0
98	55	7	10000	1	1	0	1	0
101	56	7	10000	1	1	0	1	0
99	57	7	10000	1	1	0	1	0
99	58	7	10000	1	1	0	1	0
99	59	7	10000	1	1	0	1	0
100	60	7	10000	1	1	0	1	0
97	61	7	10000	1	1	0	1	0
96	62	7	10000	1	1	0	1	0
99	63	7	10000	1	1	0	1	0
97	64	7	10000	1	1	0	1	0
95	65	7	10000	1	1	0	1	0
98	66	7	10000	1	1	0	1	0
100	67	7	10000	1	1	0	1	0
99	68	7	10000	1	1	0	1	0
96	69	7	10000	1	1	0	1	0
101	70	7	10000	1	1	0	1	0
99	71	7	10000	1	1	0	1	0
99	72	7	10000	1	1	0	1	0
101	73	7	10000	1	1	0	1	0
101	74	7	10000	1	1	0	1	0
101	75	7	10000	1	1	0	1	0
98	76	7	10000	1	1	0	1	0
100	77	7	10000	1	1	0	1	0
100	78	7	10000	1	1	0	1	0
100	79	7	10000	1	1	0	1	0
102	80	7	10000	1	1	0	1	0
100	81	7	10000	1	1	0	1	0
101	82	7	10000	1	1	0	1	0
100	83	7	10000	1	1	0	1	0
100	84	7	10000	1	1	0	1	0
101	85	7	10000	1	1	0	1	0
102	86	7	10000	1	1	0	1	0
105	87	7	10000	1	1	0	1	0
104	88	7	10000	1	1	0	1	0
105	89	7	10000	1	1	0	1	0
105	90	7	10000	1	1	0	1	0
105	91	7	10000	1	1	0	1	0
107	92	7	10000	1	1	0	1	0
112	93	7	10000	1	1	0	1	0
110	94	7	10000	1	1	0	1	0
113	95	7	10000	1	1	0	1	0
114	96	7	10000	1	1	0	1	0
111	97	7	10000	1	1	0	1	0
112	98	7	10000	1	1	0	1	0
113	99	7	10000	1	1	0	1	0
110	100	7	10000	1	1	0	1	0
116	101	7	10000	1	1	0	1	0
114	102	7	10000	1	1	0	1	0
111	103	7	10000	1	1	0	1	0
113	104	7	10000	1	1	0	1	0
114	105	7	10000	1	1	0	1	0
115	106	7	10000	1	1	0	1	0
120	107	7	10000	1	1	0	1	0
120	108	7	10000	1	1	0	1	0
118	109	7	10000	1	1	0	1	0
116	110	7	10000	1	1	0	1	0
114	111	7	10000	1	1	0	1	0
114	112	7	10000	1	1	0	1	0
109	113	7	10000	1	1	0	1	0
107	114	7	10000	1	1	0	1	0
111	115	7	10000	1	1	0	1	0
109	116	7	10000	1	1	0	1	0
107	117	7	10000	1	1	0	1	0
106	118	7	10000	1	1	0	1	0
108	119	7	10000	1	1	0	1	0
113	120	7	10000	1	1	0	1	0
112	121	7	10000	1	1	0	1	0
118	122	7	10000	1	1	0	1	0
117	123	7	10000	1	1	0	1	0
114	124	7	10000	1	1	0	1	0
115	125	7	10000	1	1	0	1	0
116	126	7	10000	1	1	0	1	0
128	127	7	10000	1	1	0	1	0
131	128	7	10000	1	1	0	1	0
153	129	7	10000	1	1	0	1	0
162	130	7	10000	1	1	0	1	0
165	131	7	10000	1	1	0	1	0
176	132	7	10000	1	1	0	1	0
189	133	7	10000	1	1	0	1	0
201	134	7	10000	1	1	0	1	0
203	135	7	10000	1	1	0	1	0
204	136	7	10000	1	1	0	1	0
198	137	7	10000	1	1	0	1	0
191	138	7	10000	1	1	0	1	0
186	139	7	10000	1	1	0	1	0
184	140	7	10000	1	1	0	1	0
186	141	7	10000	1	1	0	1	0
181	142	7	10000	1	1	0	1	0
183	143	7	10000	1	1	0	1	0
176	144	7	10000	1	1	0	1	0
180	145	7	10000	1	1	0	1	0
205	146	7	10000	1	1	0	1	0
221	147	7	10000	1	1	0	1	0
220	148	7	10000	1	1	0	1	0
229	149	7	10000	1	1	0	1	0
224	150	7	10000	1	1	0	1	0
223	151	7	10000	1	1	0	1	0
215	152	7	10000	1	1	0	1	0
216	153	7	10000	1	1	0	1	0
210	154	7	10000	1	1	0	1	0
202	155	7	10000	1	1	0	1	0
194	156	7	10000	1	1	0	1	0
208	157	7	10000	1	1	0	1	0
216	158	7	10000	1	1	0	1	0
209	159	7	10000	1	1	0	1	0
205	160	7	10000	1	1	0	1	0
205	161	7	10000	1	1	0	1	0
217	162	7	10000	1	1	0	1	0
221	163	7	10000	1	1	0	1	0
212	164	7	10000	1	1	0	1	0
205	165	7	10000	1	1	0	1	0
203	166	7	10000	1	1	0	1	0
204	167	7	10000	1	1	0	1	0
199	168	7	10000	1	1	0	1	0
196	169	7	10000	1	1	0	1	0
195	170	7	10000	1	1	0	1	0
190	171	7	10000	1	1	0	1	0
186	172	7	10000	1	1	0	1	0
181	173	7	10000	1	1	0	1	0
182	174	7	10000	1	1	0	1	0
180	175	7	10000	1	1	0	1	0
176	176	7	10000	1	1	0	1	0
173	177	7	10000	1	1	0	1	0
184	178	7	10000	1	1	0	1	0
186	179	7	10000	1	1	0	1	0
181	180	7	10000	1	1	0	1	0
178	181	7	10000	1	1	0	1	0
177	182	7	10000	1	1	0	1	0
186	183	7	10000	1	1	0	1	0
183	184	7	10000	1	1	0	1	0
180	185	7	10000	1	1	0	1	0
191	186	7	10000	1	1	0	1	0
200	187	7	10000	1	1	0	1	0
197	188	7	10000	1	1	0	1	0
191	189	7	10000	1	1	0	1	0
184	190	7	10000	1	1	0	1	0
179	191	7	10000	1	1	0	1	0
183	192	7	10000	1	1	0	1	0
176	193	7	10000	1	1	0	1	0
168	194	7	10000	1	1	0	1	0
169	195	7	10000	1	1	0	1	0
165	196	7	10000	1	1	0	1	0
162	197	7	10000	1	1	0	1	0
160	198	7	10000	1	1	0	1	0
174	199	7	10000	1	1	0	1	0
176	200	7	10000	1	1	0	1	0
180	201	7	10000	1	1	0	1	0
186	202	7	10000	1	1	0	1	0
195	203	7	10000	1	1	0	1	0
201	204	7	10000	1	1	0	1	0
200	205	7	10000	1	1	0	1	0
195	206	7	10000	1	1	0	1	0
193	207	7	10000	1	1	0	1	0
188	208	7	10000	1	1	0	1	0
187	209	7	10000	1	1	0	1	0
180	210	7	10000	1	1	0	1	0
174	211	7	10000	1	1	0	1	0
172	212	7	10000	1	1	0	1	0
170	213	7	10000	1	1	0	1	0
165	214	7	10000	1	1	0	1	0
162	215	7	10000	1	1	0	1	0
159	216	7	10000	1	1	0	1	0
155	217	7	10000	1	1	0	1	0
154	218	7	10000	1	1	0	1	0
152	219	7	10000	1	1	0	1	0
150	220	7	10000	1	1	0	1	0
149	221	7	10000	1	1	0	1	0
148	222	7	10000	1	1	0	1	0
146	223	7	10000	1	1	0	1	0
145	224	7	10000	1	1	0	1	0
143	225	7	10000	1	1	0	1	0
144	226	7	10000	1	1	0	1	0
142	227	7	10000	1	1	0	1	0
140	228	7	10000	1	1	0	1	0
136	229	7	10000	1	1	0	1	0
135	230	7	10000	1	1	0	1	0
135	231	7	10000	1	1	0	1	0
135	232	7	10000	1	1	0	1	0
134	233	7	10000	1	1	0	1	0
132	234	7	10000	1	1	0	1	0
134	235	7	10000	1	1	0	1	0
136	236	7	10000	1	1	0	1	0
131	237	7	10000	1	1	0	1	0
137	238	7	10000	1	1	0	1	0
143	239	7	10000	1	1	0	1	0
142	240	7	10000	1	1	0	1	0
140	241	7	10000	1	1	0	1	0
139	242	7	10000	1	1	0	1	0
137	243	7	10000	1	1	0	1	0
136	244	7	10000	1	1	0	1	0
135	245	7	10000	1	1	0	1	0
136	246	7	10000	1	1	0	1	0
137	247	7	10000	1	1	0	1	0
135	248	7	10000	1	1	0	1	0
135	249	7	10000	1	1	0	1	0
136	250	7	10000	1	1	0	1	0
132	251	7	10000	1	1	0	1	0
135	252	7	10000	1	1	0	1	0
137	253	7	10000	1	1	0	1	0
137	254	7	10000	1	1	0	1	0
135	255	7	10000	1	1	0	1	0
133	256	7	10000	1	1	0	1	0
130	257	7	10000	1	1	0	1	0
131	258	7	10000	1	1	0	1	0
128	259	7	10000	1	1	0	1	0
128	260	7	10000	1	1	0	1	0
127	261	7	10000	1	1	0	1	0
125	262	7	10000	1	1	0	1	0
123	263	7	10000	1	1	0	1	0
121	264	7	10000	1	1	0	1	0
122	265	7	10000	1	1	0	1	0
119	266	7	10000	1	1	0	1	0
117	267	7	10000	1	1	0	1	0
118	268	7	10000	1	1	0	1	0
116	269	7	10000	1	1	0	1	0
113	270	7	10000	1	1	0	1	0
110	271	7	10000	1	1	0	1	0
111	272	7	10000	1	1	0	1	0
111	273	7	10000	1	1	0	1	0
109	274	7	10000	1	1	0	1	0
112	275	7	10000	1	1	0	1	0
110	276	7	10000	1	1	0	1	0
105	277	7	10000	1	1	0	1	0
103	278	7	10000	1	1	0	1	0
108	279	7	10000	1	1	0	1	0
105	280	7	10000	1	1	0	1	0
102	281	7	10000	1	1	0	1	0
106	282	7	10000	1	1	0	1	0
105	283	7	10000	1	1	0	1	0
102	284	7	10000	1	1	0	1	0
101	285	7	10000	1	1	0	1	0
105	286	7	10000	1	1	0	1	0
104	287	7	10000	1	1	0	1	0
100	288	7	10000	1	1	0	1	0
104	289	7	10000	1	1	0	1	0
102	290	7	10000	1	1	0	1	0
100	291	7	10000	1	1	0	1	0
98	292	7	10000	1	1	0	1	0
102	293	7	10000	1	1	0	1	0
99	294	7	10000	1	1	0	1	0
97	295	7	10000	1	1	0	1	0
100	296	7	10000	1	1	0	1	0
97	297	7	10000	1	1	0	1	0
95	298	7	10000	1	1	0	1	0
96	299	7	10000	1	1	0	1	0
99	300	7	10000	1	1	0	1	0
96	301	7	10000	1	1	0	1	0
94	302	7	10000	1	1	0	1	0
98	303	7	10000	1	1	0	1	0
95	304	7	10000	1	1	0	1	0
93	305	7	10000	1	1	0	1	0
96	306	7	10000	1	1	0	1	0
100	307	7	10000	1	1	0	1	0
96	308	7	10000	1	1	0	1	0
93	309	7	10000	1	1	0	1	0
97	310	7	10000	1	1	0	1	0
95	311	7	10000	1	1	0	1	0
94	312	7	10000	1	1	0	1	0
95	313	7	10000	1	1	0	1	0
97	314	7	10000	1	1	0	1	0
94	315	7	10000	1	1	0	1	0
89	316	7	10000	1	1	0	1	0
92	317	7	10000	1	1	0	1	0
91	318	7	10000	1	1	0	1	0
91	319	7	10000	1	1	0	1	0
92	320	7	10000	1	1	0	1	0
93	321	7	10000	1	1	0	1	0
92	322	7	10000	1	1	0	1	0
90	323	7	10000	1	1	0	1	0
95	324	7	10000	1	1	0	1	0
94	325	7	10000	1	1	0	1	0
92	326	7	10000	1	1	0	1	0
94	327	7	10000	1	1	0	1	0
95	328	7	10000	1	1	0	1	0
95	329	7	10000	1	1	0	1	0
93	330	7	10000	1	1	0	1	0
97	331	7	10000	1	1	0	1	0
94	332	7	10000	1	1	0	1	0
92	333	7	10000	1	1	0	1	0
96	334	7	10000	1	1	0	1	0
97	335	7	10000	1	1	0	1	0
94	336	7	10000	1	1	0	1	0
92	337	7	10000	1	1	0	1	0
97	338	7	10000	1	1	0	1	0
95	339	7	10000	1	1	0	1	0
93	340	7	10000	1	1	0	1	0
95	341	7	10000	1	1	0	1	0
95	342	7	10000	1	1	0	1	0
94	343	7	10000	1	1	0	1	0
93	344	7	10000	1	1	0	1	0
96	345	7	10000	1	1	0	1	0
96	346	7	10000	1	1	0	1	0
95	347	7	10000	1	1	0	1	0
97	348	7	10000	1	1	0	1	0
98	349	7	10000	1	1	0	1	0
95	350	7	10000	1	1	0	1	0
93	351	7	10000	1	1	0	1	0
97	352	7	10000	1	1	0	1	0
96	353	7	10000	1	1	0	1	0
96	354	7	10000	1	1	0	1	0
98	355	7	10000	1	1	0	1	0
98	356	7	10000	1	1	0	1	0
96	357	7	10000	1	1	0	1	0
95	358	7	10000	1	1	0	1	0
98	359	7	10000	1	1	0	1	0
97	360	7	10000	1	1	0	1	0
99	361	7	10000	1	1	0	1	0
100	362	7	10000	1	1	0	1	0
99	363	7	10000	1	1	0	1	0
99	364	7	10000	1	1	0	1	0
97	365	7	10000	1	1	0	1	0
101	366	7	10000	1	1	0	1	0
102	367	7	10000	1	1	0	1	0
100	368	7	10000	1	1	0	1	0
102	369	7	10000	1	1	0	1	0
102	370	7	10000	1	1	0	1	0
99	371	7	10000	1	1	0	1	0
98	372	7	10000	1	1	0	1	0
101	373	7	10000	1	1	0	1	0
99	374	7	10000	1	1	0	1	0
101	375	7	10000	1	1	0	1	0
101	376	7	10000	1	1	0	1	0
100	377	7	10000	1	1	0	1	0
100	378	7	10000	1	1	0	1	0
100	379	7	10000	1	1	0	1	0
102	380	7	10000	1	1	0	1	0
101	381	7	10000	1	1	0	1	0
99	382	7	10000	1	1	0	1	0
103	383	7	10000	1	1	0	1	0
100	384	7	10000	1	1	0	1	0
97	385	7	10000	1	1	0	1	0
100	386	7	10000	1	1	0	1	0
102	387	7	10000	1	1	0	1	0
99	388	7	10000	1	1	0	1	0
97	389	7	10000	1	1	0	1	0
101	390	7	10000	1	1	0	1	0
100	391	7	10000	1	1	0	1	0
99	392	7	10000	1	1	0	1	0
100	393	7	10000	1	1	0	1	0
100	394	7	10000	1	1	0	1	0
99	395	7	10000	1	1	0	1	0
96	396	7	10000	1	1	0	1	0
99	397	7	10000	1	1	0	1	0
98	398	7	10000	1	1	0	1	0
100	399	7	10000	1	1	0	1	0
100	400	7	10000	1	1	0	1	0
100	401	7	10000	1	1	0	1	0
99	402	7	10000	1	1	0	1	0
97	403	7	10000	1	1	0	1	0
101	404	7	10000	1	1	0	1	0
98	405	7	10000	1	1	0	1	0
98	406	7	10000	1	1	0	1	0
101	407	7	10000	1	1	0	1	0
100	408	7	10000	1	1	0	1	0
100	409	7	10000	1	1	0	1	0
99	410	7	10000	1	1	0	1	0
100	411	7	10000	1	1	0	1	0
101	412	7	10000	1	1	0	1	0
98	413	7	10000	1	1	0	1	0
102	414	7	10000	1	1	0	1	0
102	415	7	10000	1	1	0	1	0
99	416	7	10000	1	1	0	1	0
96	417	7	10000	1	1	0	1	0
98	418	7	10000	1	1	0	1	0
101	419	7	10000	1	1	0	1	0
104	420	7	10000	1	1	0	1	0
103	421	7	10000	1	1	0	1	0
107	422	7	10000	1	1	0	1	0
114	423	7	10000	1	1	0	1	0
116	424	7	10000	1	1	0	1	0
116	425	7	10000	1	1	0	1	0
123	426	7	10000	1	1	0	1	0
128	427	7	10000	1	1	0	1	0
128	428	7	10000	1	1	0	1	0
124	429	7	10000	1	1	0	1	0
119	430	7	10000	1	1	0	1	0
121	431	7	10000	1	1	0	1	0
122	432	7	10000	1	1	0	1	0
117	433	7	10000	1	1	0	1	0
114	434	7	10000	1	1	0	1	0
119	435	7	10000	1	1	0	1	0
118	436	7	10000	1	1	0	1	0
118	437	7	10000	1	1	0	1	0
118	438	7	10000	1	1	0	1	0
117	439	7	10000	1	1	0	1	0
120	440	7	10000	1	1	0	1	0
122	441	7	10000	1	1	0	1	0
120	442	7	10000	1	1	0	1	0
122	443	7	10000	1	1	0	1	0
125	444	7	10000	1	1	0	1	0
122	445	7	10000	1	1	0	1	0
125	446	7	10000	1	1	0	1	0
130	447	7	10000	1	1	0	1	0
131	448	7	10000	1	1	0	1	0
129	449	7	10000	1	1	0	1	0
135	450	7	10000	1	1	0	1	0
140	451	7	10000	1	1	0	1	0
136	452	7	10000	1	1	0	1	0
139	453	7	10000	1	1	0	1	0
144	454	7	10000	1	1	0	1	0
143	455	7	10000	1	1	0	1	0
140	456	7	10000	1	1	0	1	0
139	457	7	10000	1	1	0	1	0
138	458	7	10000	1	1	0	1	0
138	459	7	10000	1	1	0	1	0
136	460	7	10000	1	1	0	1	0
136	461	7	10000	1	1	0	1	0
135	462	7	10000	1	1	0	1	0
133	463	7	10000	1	1	0	1	0
129	464	7	10000	1	1	0	1	0
124	465	7	10000	1	1	0	1	0
131	466	7	10000	1	1	0	1	0
128	467	7	10000	1	1	0	1	0
121	468	7	10000	1	1	0	1	0
120	469	7	10000	1	1	0	1	0
120	470	7	10000	1	1	0	1	0
116	471	7	10000	1	1	0	1	0
113	472	7	10000	1	1	0	1	0
119	473	7	10000	1	1	0	1	0
114	474	7	10000	1	1	0	1	0
110	475	7	10000	1	1	0	1	0
112	476	7	10000	1	1	0	1	0
111	477	7	10000	1	1	0	1	0
108	478	7	10000	1	1	0	1	0
105	479	7	10000	1	1	0	1	0
113	480	7	10000	1	1	0	1	0
109	481	7	10000	1	1	0	1	0
104	482	7	10000	1	1	0	1	0
111	483	7	10000	1	1	0	1	0
108	484	7	10000	1	1	0	1	0
103	485	7	10000	1	1	0	1	0
103	486	7	10000	1	1	0	1	0
110	487	7	10000	1	1	0	1	0
106	488	7	10000	1	1	0	1	0
101	489	7	10000	1	1	0	1	0
105	490	7	10000	1	1	0	1	0
105	491	7	10000	1	1	0	1	0
100	492	7	10000	1	1	0	1	0
101	493	7	10000	1	1	0	1	0
104	494	7	10000	1	1	0	1	0
101	495	7	10000	1	1	0	1	0
97	496	7	10000	1	1	0	1	0
100	497	7	10000	1	1	0	1	0
98	498	7	10000	1	1	0	1	0
98	499	7	10000	1	1	0	1	0
97	500	7	10000	1	1	0	1	0
101	501	7	10000	1	1	0	1	0
97	538	7	10000	1	1	0	1	1
94	539	7	10000	1	1	0	1	1
100	540	7	10000	1	1	0	1	1
96	541	7	10000	1	1	0	1	1
93	542	7	10000	1	1	0	1	1
95	543	7	10000	1	1	0	1	1
100	544	7	10000	1	1	0	1	1
95	545	7	10000	1	1	0	1	1
91	546	7	10000	1	1	0	1	1
97	547	7	10000	1	1	0	1	1
95	548	7	10000	1	1	0	1	1
97	549	7	10000	1	1	0	1	1
124	550	7	10000	1	1	0	1	1
140	551	7	10000	1	1	0	1	1
139	552	7	10000	1	1	0	1	1
140	553	7	10000	1	1	0	1	1
154	554	7	10000	1	1	0	1	1
155	555	7	10000	1	1	0	1	1
170	556	7	10000	1	1	0	1	1
180	557	7	10000	1	1	0	1	1
186	558	7	10000	1	1	0	1	1
191	559	7	10000	1	1	0	1	1
188	560	7	10000	1	1	0	1	1
190	561	7	10000	1	1	0	1	1
184	562	7	10000	1	1	0	1	1
180	563	7	10000	1	1	0	1	1
177	564	7	10000	1	1	0	1	1
172	565	7	10000	1	1	0	1	1
169	566	7	10000	1	1	0	1	1
164	567	7	10000	1	1	0	1	1
165	568	7	10000	1	1	0	1	1
164	569	7	10000	1	1	0	1	1
168	570	7	10000	1	1	0	1	1
167	571	7	10000	1	1	0	1	1
162	572	7	10000	1	1	0	1	1
157	573	7	10000	1	1	0	1	1
153	574	7	10000	1	1	0	1	1
155	575	7	10000	1	1	0	1	1
149	541	7	10000	1	1	0	1	1
143	542	7	10000	1	1	0	1	1
148	543	7	10000	1	1	0	1	1
144	544	7	10000	1	1	0	1	1
137	544	7	10000	1	1	0	1	1
135	545	7	10000	1	1	0	1	1
138	546	7	10000	1	1	0	1	1
134	547	7	10000	1	1	0	1	1
134	548	7	10000	1	1	0	1	1
144	549	7	10000	1	1	0	1	1
142	550	7	10000	1	1	0	1	1
139	551	7	10000	1	1	0	1	1
137	552	7	10000	1	1	0	1	0
134	553	7	10000	1	1	0	1	0
132	554	7	10000	1	1	0	1	0
132	555	7	10000	1	1	0	1	0
129	556	7	10000	1	1	0	1	0
130	557	7	10000	1	1	0	1	0
132	558	7	10000	1	1	0	1	0
131	559	7	10000	1	1	0	1	0
130	560	7	10000	1	1	0	1	0
129	561	7	10000	1	1	0	1	0
127	562	7	10000	1	1	0	1	0
129	563	7	10000	1	1	0	1	0
126	564	7	10000	1	1	0	1	0
123	565	7	10000	1	1	0	1	0
124	566	7	10000	1	1	0	1	0
125	567	7	10000	1	1	0	1	0
122	568	7	10000	1	1	0	1	0
120	569	7	10000	1	1	0	1	0
123	570	7	10000	1	1	0	1	0
119	571	7	10000	1	1	0	1	0
118	572	7	10000	1	1	0	1	0
119	573	7	10000	1	1	0	1	0
118	574	7	10000	1	1	0	1	0
117	575	7	10000	1	1	0	1	0
114	576	7	10000	1	1	0	1	0
115	577	7	10000	1	1	0	1	0
113	578	7	10000	1	1	0	1	0
113	579	7	10000	1	1	0	1	0
113	580	7	10000	1	1	0	1	0
111	581	7	10000	1	1	0	1	0
107	582	7	10000	1	1	0	1	0
105	583	7	10000	1	1	0	1	0
107	584	7	10000	1	1	0	1	0
107	585	7	10000	1	1	0	1	0
110	586	7	10000	1	1	0	1	0
112	587	7	10000	1	1	0	1	0
111	588	7	10000	1	1	0	1	0
111	589	7	10000	1	1	0	1	0
111	590	7	10000	1	1	0	1	0
112	591	7	10000	1	1	0	1	0
110	592	7	10000	1	1	0	1	0
109	593	7	10000	1	1	0	1	0
111	594	7	10000	1	1	0	1	0
111	595	7	10000	1	1	0	1	0
109	596	7	10000	1	1	0	1	0
107	597	7	10000	1	1	0	1	0
110	598	7	10000	1	1	0	1	0
109	599	7	10000	1	1	0	1	0
107	600	7	10000	1	1	0	1	0
108	601	7	10000	1	1	0	1	0
107	602	7	10000	1	1	0	1	0
105	603	7	10000	1	1	0	1	0
104	604	7	10000	1	1	0	1	0
105	605	7	10000	1	1	0	1	0
106	606	7	10000	1	1	0	1	0
110	607	7	10000	1	1	0	1	0
113	608	7	10000	1	1	0	1	0
115	609	7	10000	1	1	0	1	0
122	610	7	10000	1	1	0	1	0
129	611	7	10000	1	1	0	1	0
127	612	7	10000	1	1	0	1	0
130	613	7	10000	1	1	0	1	0
132	614	7	10000	1	1	0	1	0
133	615	7	10000	1	1	0	1	0
130	616	7	10000	1	1	0	1	0
128	617	7	10000	1	1	0	1	0
127	618	7	10000	1	1	0	1	0
128	619	7	10000	1	1	0	1	0
126	620	7	10000	1	1	0	1	0
124	621	7	10000	1	1	0	1	0
125	622	7	10000	1	1	0	1	0
122	623	7	10000	1	1	0	1	0
120	624	7	10000	1	1	0	1	0
119	625	7	10000	1	1	0	1	0
120	626	7	10000	1	1	0	1	0
121	627	7	10000	1	1	0	1	0
120	628	7	10000	1	1	0	1	0
119	629	7	10000	1	1	0	1	0
118	630	7	10000	1	1	0	1	0
118	631	7	10000	1	1	0	1	0
116	632	7	10000	1	1	0	1	0
119	633	7	10000	1	1	0	1	0
115	634	7	10000	1	1	0	1	0
117	635	7	10000	1	1	0	1	0
127	636	7	10000	1	1	0	1	0
126	637	7	10000	1	1	0	1	0
123	638	7	10000	1	1	0	1	0
127	639	7	10000	1	1	0	1	0
124	640	7	10000	1	1	0	1	0
121	641	7	10000	1	1	0	1	0
125	642	7	10000	1	1	0	1	0
126	643	7	10000	1	1	0	1	0
122	644	7	10000	1	1	0	1	0
120	645	7	10000	1	1	0	1	0
128	646	7	10000	1	1	0	1	0
140	647	7	10000	1	1	0	1	0
138	648	7	10000	1	1	0	1	0
149	649	7	10000	1	1	0	1	0
152	650	7	10000	1	1	0	1	0
157	651	7	10000	1	1	0	1	0
163	652	7	10000	1	1	0	1	0
197	653	7	10000	1	1	0	1	0
242	654	7	10000	1	1	0	1	0
253	655	7	10000	1	1	0	1	0
253	656	7	10000	1	1	0	1	0
258	657	7	10000	1	1	0	1	0
261	658	7	10000	1	1	0	1	0
268	659	7	10000	1	1	0	1	0
295	660	7	10000	1	1	0	1	0
320	661	7	10000	1	1	0	1	0
340	662	7	10000	1	1	0	1	0
342	663	7	10000	1	1	0	1	0
334	664	7	10000	1	1	0	1	0
331	665	7	10000	1	1	0	1	0
326	666	7	10000	1	1	0	1	0
319	667	7	10000	1	1	0	1	0
308	668	7	10000	1	1	0	1	0
297	669	7	10000	1	1	0	1	0
284	670	7	10000	1	1	0	1	0
280	671	7	10000	1	1	0	1	0
271	672	7	10000	1	1	0	1	0
258	673	7	10000	1	1	0	1	0
252	674	7	10000	1	1	0	1	0
255	675	7	10000	1	1	0	1	0
246	676	7	10000	1	1	0	1	0
237	677	7	10000	1	1	0	1	0
231	678	7	10000	1	1	0	1	0
227	679	7	10000	1	1	0	1	0
228	680	7	10000	1	1	0	1	0
230	681	7	10000	1	1	0	1	0
233	682	7	10000	1	1	0	1	0
224	683	7	10000	1	1	0	1	0
215	684	7	10000	1	1	0	1	0
213	685	7	10000	1	1	0	1	0
206	686	7	10000	1	1	0	1	0
200	687	7	10000	1	1	0	1	0
194	688	7	10000	1	1	0	1	0
191	689	7	10000	1	1	0	1	0
187	690	7	10000	1	1	0	1	0
183	691	7	10000	1	1	0	1	0
180	692	7	10000	1	1	0	1	0
175	693	7	10000	1	1	0	1	0
172	694	7	10000	1	1	0	1	0
169	695	7	10000	1	1	0	1	0
166	696	7	10000	1	1	0	1	0
163	697	7	10000	1	1	0	1	0
160	698	7	10000	1	1	0	1	0
159	699	7	10000	1	1	0	1	0
156	700	7	10000	1	1	0	1	0
155	701	7	10000	1	1	0	1	0
153	702	7	10000	1	1	0	1	0
150	703	7	10000	1	1	0	1	0
148	704	7	10000	1	1	0	1	0
145	705	7	10000	1	1	0	1	0
146	706	7	10000	1	1	0	1	0
146	707	7	10000	1	1	0	1	0
146	708	7	10000	1	1	0	1	0
144	709	7	10000	1	1	0	1	0
143	710	7	10000	1	1	0	1	0
144	711	7	10000	1	1	0	1	0
146	712	7	10000	1	1	0	1	0
142	713	7	10000	1	1	0	1	0
144	714	7	10000	1	1	0	1	0
147	715	7	10000	1	1	0	1	0
144	716	7	10000	1	1	0	1	0
140	717	7	10000	1	1	0	1	0
141	718	7	10000	1	1	0	1	0
141	719	7	10000	1	1	0	1	0
140	720	7	10000	1	1	0	1	0
139	721	7	10000	1	1	0	1	0
139	722	7	10000	1	1	0	1	0
138	723	7	10000	1	1	0	1	0
135	724	7	10000	1	1	0	1	0
132	725	7	10000	1	1	0	1	0
129	726	7	10000	1	1	0	1	0
132	727	7	10000	1	1	0	1	0
130	728	7	10000	1	1	0	1	0
129	729	7	10000	1	1	0	1	0
127	730	7	10000	1	1	0	1	0
126	731	7	10000	1	1	0	1	0
127	732	7	10000	1	1	0	1	0
127	733	7	10000	1	1	0	1	0
126	734	7	10000	1	1	0	1	0
128	735	7	10000	1	1	0	1	0
127	736	7	10000	1	1	0	1	0
127	737	7	10000	1	1	0	1	0
125	738	7	10000	1	1	0	1	0
122	739	7	10000	1	1	0	1	0
120	740	7	10000	1	1	0	1	0
122	741	7	10000	1	1	0	1	0
119	742	7	10000	1	1	0	1	0
117	743	7	10000	1	1	0	1	0
118	744	7	10000	1	1	0	1	0
115	745	7	10000	1	1	0	1	0
115	746	7	10000	1	1	0	1	0
114	747	7	10000	1	1	0	1	0
116	748	7	10000	1	1	0	1	0
115	749	7	10000	1	1	0	1	0
113	750	7	10000	1	1	0	1	0
114	751	7	10000	1	1	0	1	0
112	752	7	10000	1	1	0	1	0
112	753	7	10000	1	1	0	1	0
113	754	7	10000	1	1	0	1	0
113	755	7	10000	1	1	0	1	0
112	756	7	10000	1	1	0	1	0
110	757	7	10000	1	1	0	1	0
113	758	7	10000	1	1	0	1	0
110	759	7	10000	1	1	0	1	0
107	760	7	10000	1	1	0	1	0
107	761	7	10000	1	1	0	1	0
108	762	7	10000	1	1	0	1	0
104	763	7	10000	1	1	0	1	0
101	764	7	10000	1	1	0	1	0
105	765	7	10000	1	1	0	1	0
104	766	7	10000	1	1	0	1	0
104	767	7	10000	1	1	0	1	0
103	768	7	10000	1	1	0	1	0
105	769	7	10000	1	1	0	1	0
103	770	7	10000	1	1	0	1	0
100	771	7	10000	1	1	0	1	0
102	772	7	10000	1	1	0	1	0
101	773	7	10000	1	1	0	1	0
103	774	7	10000	1	1	0	1	0
104	775	7	10000	1	1	0	1	0
103	776	7	10000	1	1	0	1	0
100	777	7	10000	1	1	0	1	0
98	778	7	10000	1	1	0	1	0
107	779	7	10000	1	1	0	1	0
108	780	7	10000	1	1	0	1	0
108	781	7	10000	1	1	0	1	0
118	782	7	10000	1	1	0	1	0
121	783	7	10000	1	1	0	1	0
116	784	7	10000	1	1	0	1	0
113	785	7	10000	1	1	0	1	0
118	786	7	10000	1	1	0	1	0
119	787	7	10000	1	1	0	1	0
123	788	7	10000	1	1	0	1	0
123	789	7	10000	1	1	0	1	0
122	790	7	10000	1	1	0	1	0
119	791	7	10000	1	1	0	1	0
119	792	7	10000	1	1	0	1	0
123	793	7	10000	1	1	0	1	0
121	794	7	10000	1	1	0	1	0
119	795	7	10000	1	1	0	1	0
122	796	7	10000	1	1	0	1	0
119	797	7	10000	1	1	0	1	0
117	798	7	10000	1	1	0	1	0
120	799	7	10000	1	1	0	1	0
132	800	7	10000	1	1	0	1	0
132	801	7	10000	1	1	0	1	0
130	802	7	10000	1	1	0	1	0
137	803	7	10000	1	1	0	1	0
134	804	7	10000	1	1	0	1	0
131	805	7	10000	1	1	0	1	0
136	806	7	10000	1	1	0	1	0
144	807	7	10000	1	1	0	1	0
138	808	7	10000	1	1	0	1	0
134	809	7	10000	1	1	0	1	0
140	810	7	10000	1	1	0	1	0
140	811	7	10000	1	1	0	1	0
135	812	7	10000	1	1	0	1	0
134	813	7	10000	1	1	0	1	0
140	814	7	10000	1	1	0	1	0
136	815	7	10000	1	1	0	1	0
130	816	7	10000	1	1	0	1	0
130	817	7	10000	1	1	0	1	0
127	818	7	10000	1	1	0	1	0
122	819	7	10000	1	1	0	1	0
120	820	7	10000	1	1	0	1	0
124	821	7	10000	1	1	0	1	0
119	822	7	10000	1	1	0	1	0
116	823	7	10000	1	1	0	1	0
124	824	7	10000	1	1	0	1	0
122	825	7	10000	1	1	0	1	0
116	826	7	10000	1	1	0	1	0
116	827	7	10000	1	1	0	1	0
118	828	7	10000	1	1	0	1	0
116	829	7	10000	1	1	0	1	0
116	830	7	10000	1	1	0	1	0
116	831	7	10000	1	1	0	1	0
114	832	7	10000	1	1	0	1	0
114	833	7	10000	1	1	0	1	0
113	834	7	10000	1	1	0	1	0
114	835	7	10000	1	1	0	1	0
117	836	7	10000	1	1	0	1	0
121	837	7	10000	1	1	0	1	0
119	838	7	10000	1	1	0	1	0
123	839	7	10000	1	1	0	1	0
130	840	7	10000	1	1	0	1	0
131	841	7	10000	1	1	0	1	0
130	842	7	10000	1	1	0	1	0
134	843	7	10000	1	1	0	1	0
137	844	7	10000	1	1	0	1	0
133	845	7	10000	1	1	0	1	0
138	846	7	10000	1	1	0	1	0
141	847	7	10000	1	1	0	1	0
140	848	7	10000	1	1	0	1	0
139	849	7	10000	1	1	0	1	0
143	850	7	10000	1	1	0	1	0
148	851	7	10000	1	1	0	1	0
143	852	7	10000	1	1	0	1	0
148	853	7	10000	1	1	0	1	0
153	854	7	10000	1	1	0	1	0
152	855	7	10000	1	1	0	1	0
148	856	7	10000	1	1	0	1	0
148	857	7	10000	1	1	0	1	0
151	858	7	10000	1	1	0	1	0
147	859	7	10000	1	1	0	1	0
148	860	7	10000	1	1	0	1	0
148	861	7	10000	1	1	0	1	0
146	862	7	10000	1	1	0	1	0
145	863	7	10000	1	1	0	1	0
147	864	7	10000	1	1	0	1	0
144	865	7	10000	1	1	0	1	0
156	866	7	10000	1	1	0	1	0
159	867	7	10000	1	1	0	1	0
153	868	7	10000	1	1	0	1	0
152	869	7	10000	1	1	0	1	0
152	870	7	10000	1	1	0	1	0
159	871	7	10000	1	1	0	1	0
163	872	7	10000	1	1	0	1	0
159	873	7	10000	1	1	0	1	0
155	874	7	10000	1	1	0	1	0
150	875	7	10000	1	1	0	1	0
150	876	7	10000	1	1	0	1	0
149	877	7	10000	1	1	0	1	0
155	878	7	10000	1	1	0	1	0
163	879	7	10000	1	1	0	1	0
161	880	7	10000	1	1	0	1	0
167	881	7	10000	1	1	0	1	0
165	882	7	10000	1	1	0	1	0
176	883	7	10000	1	1	0	1	0
176	884	7	10000	1	1	0	1	0
180	885	7	10000	1	1	0	1	0
190	886	7	10000	1	1	0	1	0
185	887	7	10000	1	1	0	1	0
184	888	7	10000	1	1	0	1	0
183	889	7	10000	1	1	0	1	0
179	890	7	10000	1	1	0	1	0
176	891	7	10000	1	1	0	1	0
170	892	7	10000	1	1	0	1	0
166	893	7	10000	1	1	0	1	0
166	894	7	10000	1	1	0	1	0
162	895	7	10000	1	1	0	1	0
157	896	7	10000	1	1	0	1	0
156	897	7	10000	1	1	0	1	0
166	898	7	10000	1	1	0	1	0
163	899	7	10000	1	1	0	1	0
157	900	7	10000	1	1	0	1	0
157	901	7	10000	1	1	0	1	0
157	902	7	10000	1	1	0	1	0
157	903	7	10000	1	1	0	1	0
156	904	7	10000	1	1	0	1	0
156	905	7	10000	1	1	0	1	0
154	906	7	10000	1	1	0	1	0
151	907	7	10000	1	1	0	1	0
147	908	7	10000	1	1	0	1	0
146	909	7	10000	1	1	0	1	0
150	910	7	10000	1	1	0	1	0
149	911	7	10000	1	1	0	1	0
151	912	7	10000	1	1	0	1	0
153	913	7	10000	1	1	0	1	0
151	914	7	10000	1	1	0	1	0
153	915	7	10000	1	1	0	1	0
148	916	7	10000	1	1	0	1	0
141	917	7	10000	1	1	0	1	0
142	918	7	10000	1	1	0	1	0
143	919	7	10000	1	1	0	1	0
139	920	7	10000	1	1	0	1	0
137	921	7	10000	1	1	0	1	0
145	922	7	10000	1	1	0	1	0
140	923	7	10000	1	1	0	1	0
140	924	7	10000	1	1	0	1	0
139	925	7	10000	1	1	0	1	0
137	926	7	10000	1	1	0	1	0
134	927	7	10000	1	1	0	1	0
128	928	7	10000	1	1	0	1	0
133	929	7	10000	1	1	0	1	0
131	930	7	10000	1	1	0	1	0
133	931	7	10000	1	1	0	1	0
132	932	7	10000	1	1	0	1	0
130	933	7	10000	1	1	0	1	0
133	934	7	10000	1	1	0	1	0
135	935	7	10000	1	1	0	1	0
133	936	7	10000	1	1	0	1	0
130	937	7	10000	1	1	0	1	0
128	938	7	10000	1	1	0	1	0
128	939	7	10000	1	1	0	1	0
131	940	7	10000	1	1	0	1	0
127	941	7	10000	1	1	0	1	0
125	942	7	10000	1	1	0	1	0
124	943	7	10000	1	1	0	1	0
126	944	7	10000	1	1	0	1	0
126	945	7	10000	1	1	0	1	0
128	946	7	10000	1	1	0	1	0
127	947	7	10000	1	1	0	1	0
126	948	7	10000	1	1	0	1	0
124	949	7	10000	1	1	0	1	0
129	950	7	10000	1	1	0	1	0
127	951	7	10000	1	1	0	1	0
122	952	7	10000	1	1	0	1	0
122	953	7	10000	1	1	0	1	0
121	954	7	10000	1	1	0	1	0
117	955	7	10000	1	1	0	1	0
113	956	7	10000	1	1	0	1	0
123	957	7	10000	1	1	0	1	0
127	958	7	10000	1	1	0	1	0
128	959	7	10000	1	1	0	1	0
140	960	7	10000	1	1	0	1	0
153	961	7	10000	1	1	0	1	0
152	962	7	10000	1	1	0	1	0
162	963	7	10000	1	1	0	1	0
163	964	7	10000	1	1	0	1	0
172	965	7	10000	1	1	0	1	0
179	966	7	10000	1	1	0	1	0
179	967	7	10000	1	1	0	1	0
174	968	7	10000	1	1	0	1	0
172	969	7	10000	1	1	0	1	0
168	970	7	10000	1	1	0	1	0
167	971	7	10000	1	1	0	1	0
162	972	7	10000	1	1	0	1	0
157	973	7	10000	1	1	0	1	0
160	974	7	10000	1	1	0	1	0
158	975	7	10000	1	1	0	1	0
150	976	7	10000	1	1	0	1	0
144	977	7	10000	1	1	0	1	0
148	978	7	10000	1	1	0	1	0
142	979	7	10000	1	1	0	1	0
137	980	7	10000	1	1	0	1	0
149	981	7	10000	1	1	0	1	0
167	982	7	10000	1	1	0	1	0
171	983	7	10000	1	1	0	1	0
164	984	7	10000	1	1	0	1	0
159	985	7	10000	1	1	0	1	0
162	986	7	10000	1	1	0	1	0
161	987	7	10000	1	1	0	1	0
160	988	7	10000	1	1	0	1	0
156	989	7	10000	1	1	0	1	0
153	990	7	10000	1	1	0	1	0
149	991	7	10000	1	1	0	1	0
152	992	7	10000	1	1	0	1	0
150	993	7	10000	1	1	0	1	0
152	994	7	10000	1	1	0	1	0
152	995	7	10000	1	1	0	1	0
151	996	7	10000	1	1	0	1	0
162	997	7	10000	1	1	0	1	0
164	998	7	10000	1	1	0	1	0
164	999	7	10000	1	1	0	1	0
182	1000	7	10000	1	1	0	1	0
198	1001	7	10000	1	1	0	1	0
103	2	7	10000	2	1	0	2	0
106	3	7	10000	2	1	0	2	0
105	4	7	10000	2	1	0	2	0
104	5	7	10000	2	1	0	2	0
102	6	7	10000	2	1	0	2	0
105	7	7	10000	2	1	0	2	0
104	8	7	10000	2	1	0	2	0
103	9	7	10000	2	1	0	2	0
105	10	7	10000	2	1	0	2	0
105	11	7	10000	2	1	0	2	0
105	12	7	10000	2	1	0	2	0
106	13	7	10000	2	1	0	2	0
105	14	7	10000	2	1	0	2	0
103	15	7	10000	2	1	0	2	0
104	16	7	10000	2	1	0	2	0
106	17	7	10000	2	1	0	2	0
105	18	7	10000	2	1	0	2	0
103	19	7	10000	2	1	0	2	0
107	20	7	10000	2	1	0	2	0
104	21	7	10000	2	1	0	2	0
102	22	7	10000	2	1	0	2	0
104	23	7	10000	2	1	0	2	0
105	24	7	10000	2	1	0	2	0
104	25	7	10000	2	1	0	2	0
102	26	7	10000	2	1	0	2	0
105	27	7	10000	2	1	0	2	0
104	28	7	10000	2	1	0	2	0
104	29	7	10000	2	1	0	2	0
106	30	7	10000	2	1	0	2	0
104	31	7	10000	2	1	0	2	0
104	32	7	10000	2	1	0	2	0
104	33	7	10000	2	1	0	2	0
105	34	7	10000	2	1	0	2	0
104	35	7	10000	2	1	0	2	0
104	36	7	10000	2	1	0	2	0
107	37	7	10000	2	1	0	2	0
105	38	7	10000	2	1	0	2	0
104	39	7	10000	2	1	0	2	0
106	40	7	10000	2	1	0	2	0
105	41	7	10000	2	1	0	2	0
104	42	7	10000	2	1	0	2	0
104	43	7	10000	2	1	0	2	0
107	44	7	10000	2	1	0	2	0
107	45	7	10000	2	1	0	2	0
105	46	7	10000	2	1	0	2	0
108	47	7	10000	2	1	0	2	0
106	48	7	10000	2	1	0	2	0
106	49	7	10000	2	1	0	2	0
105	50	7	10000	2	1	0	2	0
106	51	7	10000	2	1	0	2	0
105	52	7	10000	2	1	0	2	0
103	53	7	10000	2	1	0	2	0
107	54	7	10000	2	1	0	2	0
105	55	7	10000	2	1	0	2	0
107	56	7	10000	2	1	0	2	0
107	57	7	10000	2	1	0	2	0
106	58	7	10000	2	1	0	2	0
107	59	7	10000	2	1	0	2	0
108	60	7	10000	2	1	0	2	0
109	61	7	10000	2	1	0	2	0
106	62	7	10000	2	1	0	2	0
104	63	7	10000	2	1	0	2	0
109	64	7	10000	2	1	0	2	0
108	65	7	10000	2	1	0	2	0
103	66	7	10000	2	1	0	2	0
101	67	7	10000	2	1	0	2	0
104	68	7	10000	2	1	0	2	0
105	69	7	10000	2	1	0	2	0
103	70	7	10000	2	1	0	2	0
106	71	7	10000	2	1	0	2	0
104	72	7	10000	2	1	0	2	0
103	73	7	10000	2	1	0	2	0
103	74	7	10000	2	1	0	2	0
103	75	7	10000	2	1	0	2	0
104	76	7	10000	2	1	0	2	0
101	77	7	10000	2	1	0	2	0
104	78	7	10000	2	1	0	2	0
103	79	7	10000	2	1	0	2	0
103	80	7	10000	2	1	0	2	0
105	81	7	10000	2	1	0	2	0
104	82	7	10000	2	1	0	2	0
104	83	7	10000	2	1	0	2	0
104	84	7	10000	2	1	0	2	0
106	85	7	10000	2	1	0	2	0
106	86	7	10000	2	1	0	2	0
107	87	7	10000	2	1	0	2	0
108	88	7	10000	2	1	0	2	0
108	89	7	10000	2	1	0	2	0
109	90	7	10000	2	1	0	2	0
110	91	7	10000	2	1	0	2	0
109	92	7	10000	2	1	0	2	0
107	93	7	10000	2	1	0	2	0
106	94	7	10000	2	1	0	2	0
109	95	7	10000	2	1	0	2	0
108	96	7	10000	2	1	0	2	0
106	97	7	10000	2	1	0	2	0
109	98	7	10000	2	1	0	2	0
107	99	7	10000	2	1	0	2	0
105	100	7	10000	2	1	0	2	0
106	101	7	10000	2	1	0	2	0
105	102	7	10000	2	1	0	2	0
104	103	7	10000	2	1	0	2	0
103	104	7	10000	2	1	0	2	0
107	105	7	10000	2	1	0	2	0
103	106	7	10000	2	1	0	2	0
103	107	7	10000	2	1	0	2	0
104	108	7	10000	2	1	0	2	0
103	109	7	10000	2	1	0	2	0
103	110	7	10000	2	1	0	2	0
104	111	7	10000	2	1	0	2	0
104	112	7	10000	2	1	0	2	0
103	113	7	10000	2	1	0	2	0
102	114	7	10000	2	1	0	2	0
106	115	7	10000	2	1	0	2	0
106	116	7	10000	2	1	0	2	0
104	117	7	10000	2	1	0	2	0
105	118	7	10000	2	1	0	2	0
105	119	7	10000	2	1	0	2	0
104	120	7	10000	2	1	0	2	0
103	121	7	10000	2	1	0	2	0
103	122	7	10000	2	1	0	2	0
106	123	7	10000	2	1	0	2	0
108	124	7	10000	2	1	0	2	0
110	125	7	10000	2	1	0	2	0
106	126	7	10000	2	1	0	2	0
105	127	7	10000	2	1	0	2	0
106	128	7	10000	2	1	0	2	0
107	129	7	10000	2	1	0	2	0
106	130	7	10000	2	1	0	2	0
104	131	7	10000	2	1	0	2	0
106	132	7	10000	2	1	0	2	0
106	133	7	10000	2	1	0	2	0
105	134	7	10000	2	1	0	2	0
107	135	7	10000	2	1	0	2	0
109	136	7	10000	2	1	0	2	0
107	137	7	10000	2	1	0	2	0
105	138	7	10000	2	1	0	2	0
108	139	7	10000	2	1	0	2	0
106	140	7	10000	2	1	0	2	0
104	141	7	10000	2	1	0	2	0
106	142	7	10000	2	1	0	2	0
105	143	7	10000	2	1	0	2	0
104	144	7	10000	2	1	0	2	0
106	145	7	10000	2	1	0	2	0
104	146	7	10000	2	1	0	2	0
104	147	7	10000	2	1	0	2	0
103	148	7	10000	2	1	0	2	0
107	149	7	10000	2	1	0	2	0
104	150	7	10000	2	1	0	2	0
102	151	7	10000	2	1	0	2	0
104	152	7	10000	2	1	0	2	0
103	153	7	10000	2	1	0	2	0
101	154	7	10000	2	1	0	2	0
101	155	7	10000	2	1	0	2	0
104	156	7	10000	2	1	0	2	0
104	157	7	10000	2	1	0	2	0
103	158	7	10000	2	1	0	2	0
105	159	7	10000	2	1	0	2	0
104	160	7	10000	2	1	0	2	0
103	161	7	10000	2	1	0	2	0
105	162	7	10000	2	1	0	2	0
104	163	7	10000	2	1	0	2	0
101	164	7	10000	2	1	0	2	0
100	165	7	10000	2	1	0	2	0
103	166	7	10000	2	1	0	2	0
102	167	7	10000	2	1	0	2	0
103	168	7	10000	2	1	0	2	0
104	169	7	10000	2	1	0	2	0
104	170	7	10000	2	1	0	2	0
104	171	7	10000	2	1	0	2	0
104	172	7	10000	2	1	0	2	0
104	173	7	10000	2	1	0	2	0
103	174	7	10000	2	1	0	2	0
101	175	7	10000	2	1	0	2	0
107	176	7	10000	2	1	0	2	0
106	177	7	10000	2	1	0	2	0
105	178	7	10000	2	1	0	2	0
106	179	7	10000	2	1	0	2	0
106	180	7	10000	2	1	0	2	0
104	181	7	10000	2	1	0	2	0
103	182	7	10000	2	1	0	2	0
105	183	7	10000	2	1	0	2	0
105	184	7	10000	2	1	0	2	0
106	185	7	10000	2	1	0	2	0
106	186	7	10000	2	1	0	2	0
105	187	7	10000	2	1	0	2	0
104	188	7	10000	2	1	0	2	0
104	189	7	10000	2	1	0	2	0
104	190	7	10000	2	1	0	2	0
104	191	7	10000	2	1	0	2	0
102	192	7	10000	2	1	0	2	0
105	193	7	10000	2	1	0	2	0
103	194	7	10000	2	1	0	2	0
102	195	7	10000	2	1	0	2	0
106	196	7	10000	2	1	0	2	0
105	197	7	10000	2	1	0	2	0
104	198	7	10000	2	1	0	2	0
103	199	7	10000	2	1	0	2	0
104	200	7	10000	2	1	0	2	0
104	201	7	10000	2	1	0	2	0
104	202	7	10000	2	1	0	2	0
106	203	7	10000	2	1	0	2	0
105	204	7	10000	2	1	0	2	0
105	205	7	10000	2	1	0	2	0
103	206	7	10000	2	1	0	2	0
104	207	7	10000	2	1	0	2	0
104	208	7	10000	2	1	0	2	0
103	209	7	10000	2	1	0	2	0
107	210	7	10000	2	1	0	2	0
104	211	7	10000	2	1	0	2	0
105	212	7	10000	2	1	0	2	0
105	213	7	10000	2	1	0	2	0
105	214	7	10000	2	1	0	2	0
105	215	7	10000	2	1	0	2	0
107	216	7	10000	2	1	0	2	0
108	217	7	10000	2	1	0	2	0
107	218	7	10000	2	1	0	2	0
107	219	7	10000	2	1	0	2	0
108	220	7	10000	2	1	0	2	0
108	221	7	10000	2	1	0	2	0
106	222	7	10000	2	1	0	2	0
107	223	7	10000	2	1	0	2	0
108	224	7	10000	2	1	0	2	0
110	225	7	10000	2	1	0	2	0
108	226	7	10000	2	1	0	2	0
111	227	7	10000	2	1	0	2	0
109	228	7	10000	2	1	0	2	0
107	229	7	10000	2	1	0	2	0
109	230	7	10000	2	1	0	2	0
108	231	7	10000	2	1	0	2	0
106	232	7	10000	2	1	0	2	0
105	233	7	10000	2	1	0	2	0
107	234	7	10000	2	1	0	2	0
105	235	7	10000	2	1	0	2	0
106	236	7	10000	2	1	0	2	0
110	237	7	10000	2	1	0	2	0
106	238	7	10000	2	1	0	2	0
104	239	7	10000	2	1	0	2	0
104	240	7	10000	2	1	0	2	0
105	241	7	10000	2	1	0	2	0
103	242	7	10000	2	1	0	2	0
102	243	7	10000	2	1	0	2	0
106	244	7	10000	2	1	0	2	0
105	245	7	10000	2	1	0	2	0
103	246	7	10000	2	1	0	2	0
104	247	7	10000	2	1	0	2	0
104	248	7	10000	2	1	0	2	0
104	249	7	10000	2	1	0	2	0
102	250	7	10000	2	1	0	2	0
104	251	7	10000	2	1	0	2	0
104	252	7	10000	2	1	0	2	0
102	253	7	10000	2	1	0	2	0
106	254	7	10000	2	1	0	2	0
104	255	7	10000	2	1	0	2	0
105	256	7	10000	2	1	0	2	0
105	257	7	10000	2	1	0	2	0
108	258	7	10000	2	1	0	2	0
105	259	7	10000	2	1	0	2	0
104	260	7	10000	2	1	0	2	0
107	261	7	10000	2	1	0	2	0
104	262	7	10000	2	1	0	2	0
105	263	7	10000	2	1	0	2	0
106	264	7	10000	2	1	0	2	0
106	265	7	10000	2	1	0	2	0
105	266	7	10000	2	1	0	2	0
104	267	7	10000	2	1	0	2	0
107	268	7	10000	2	1	0	2	0
106	269	7	10000	2	1	0	2	0
105	270	7	10000	2	1	0	2	0
107	271	7	10000	2	1	0	2	0
106	272	7	10000	2	1	0	2	0
105	273	7	10000	2	1	0	2	0
104	274	7	10000	2	1	0	2	0
105	275	7	10000	2	1	0	2	0
107	276	7	10000	2	1	0	2	0
106	277	7	10000	2	1	0	2	0
107	278	7	10000	2	1	0	2	0
106	279	7	10000	2	1	0	2	0
105	280	7	10000	2	1	0	2	0
105	281	7	10000	2	1	0	2	0
104	282	7	10000	2	1	0	2	0
104	283	7	10000	2	1	0	2	0
102	284	7	10000	2	1	0	2	0
106	285	7	10000	2	1	0	2	0
104	286	7	10000	2	1	0	2	0
103	287	7	10000	2	1	0	2	0
104	288	7	10000	2	1	0	2	0
104	289	7	10000	2	1	0	2	0
103	290	7	10000	2	1	0	2	0
101	291	7	10000	2	1	0	2	0
104	292	7	10000	2	1	0	2	0
103	293	7	10000	2	1	0	2	0
102	294	7	10000	2	1	0	2	0
106	295	7	10000	2	1	0	2	0
107	296	7	10000	2	1	0	2	0
106	297	7	10000	2	1	0	2	0
105	298	7	10000	2	1	0	2	0
105	299	7	10000	2	1	0	2	0
105	300	7	10000	2	1	0	2	0
104	301	7	10000	2	1	0	2	0
105	302	7	10000	2	1	0	2	0
105	303	7	10000	2	1	0	2	0
105	304	7	10000	2	1	0	2	0
107	305	7	10000	2	1	0	2	0
104	306	7	10000	2	1	0	2	0
103	307	7	10000	2	1	0	2	0
102	308	7	10000	2	1	0	2	0
105	309	7	10000	2	1	0	2	0
103	310	7	10000	2	1	0	2	0
103	311	7	10000	2	1	0	2	0
105	312	7	10000	2	1	0	2	0
103	313	7	10000	2	1	0	2	0
102	314	7	10000	2	1	0	2	0
102	315	7	10000	2	1	0	2	0
105	316	7	10000	2	1	0	2	0
104	317	7	10000	2	1	0	2	0
103	318	7	10000	2	1	0	2	0
105	319	7	10000	2	1	0	2	0
103	320	7	10000	2	1	0	2	0
104	321	7	10000	2	1	0	2	0
104	322	7	10000	2	1	0	2	0
104	323	7	10000	2	1	0	2	0
103	324	7	10000	2	1	0	2	0
102	325	7	10000	2	1	0	2	0
104	326	7	10000	2	1	0	2	0
103	327	7	10000	2	1	0	2	0
104	328	7	10000	2	1	0	2	0
105	329	7	10000	2	1	0	2	0
104	330	7	10000	2	1	0	2	0
103	331	7	10000	2	1	0	2	0
103	332	7	10000	2	1	0	2	0
102	333	7	10000	2	1	0	2	0
103	334	7	10000	2	1	0	2	0
101	335	7	10000	2	1	0	2	0
106	336	7	10000	2	1	0	2	0
105	337	7	10000	2	1	0	2	0
105	338	7	10000	2	1	0	2	0
105	339	7	10000	2	1	0	2	0
106	340	7	10000	2	1	0	2	0
103	341	7	10000	2	1	0	2	0
100	342	7	10000	2	1	0	2	0
105	343	7	10000	2	1	0	2	0
104	344	7	10000	2	1	0	2	0
104	345	7	10000	2	1	0	2	0
104	346	7	10000	2	1	0	2	0
105	347	7	10000	2	1	0	2	0
104	348	7	10000	2	1	0	2	0
104	349	7	10000	2	1	0	2	0
105	350	7	10000	2	1	0	2	0
104	351	7	10000	2	1	0	2	0
102	352	7	10000	2	1	0	2	0
105	353	7	10000	2	1	0	2	0
103	354	7	10000	2	1	0	2	0
102	355	7	10000	2	1	0	2	0
104	356	7	10000	2	1	0	2	0
105	357	7	10000	2	1	0	2	0
106	358	7	10000	2	1	0	2	0
106	359	7	10000	2	1	0	2	0
108	360	7	10000	2	1	0	2	0
107	361	7	10000	2	1	0	2	0
104	362	7	10000	2	1	0	2	0
108	363	7	10000	2	1	0	2	0
107	364	7	10000	2	1	0	2	0
105	365	7	10000	2	1	0	2	0
101	366	7	10000	2	1	0	2	0
105	367	7	10000	2	1	0	2	0
105	368	7	10000	2	1	0	2	0
105	369	7	10000	2	1	0	2	0
107	370	7	10000	2	1	0	2	0
105	371	7	10000	2	1	0	2	0
104	372	7	10000	2	1	0	2	0
104	373	7	10000	2	1	0	2	0
105	374	7	10000	2	1	0	2	0
103	375	7	10000	2	1	0	2	0
105	376	7	10000	2	1	0	2	0
106	377	7	10000	2	1	0	2	0
105	378	7	10000	2	1	0	2	0
105	379	7	10000	2	1	0	2	0
106	380	7	10000	2	1	0	2	0
105	381	7	10000	2	1	0	2	0
104	382	7	10000	2	1	0	2	0
103	383	7	10000	2	1	0	2	0
108	384	7	10000	2	1	0	2	0
106	385	7	10000	2	1	0	2	0
103	386	7	10000	2	1	0	2	0
106	387	7	10000	2	1	0	2	0
105	388	7	10000	2	1	0	2	0
104	389	7	10000	2	1	0	2	0
103	390	7	10000	2	1	0	2	0
104	391	7	10000	2	1	0	2	0
105	392	7	10000	2	1	0	2	0
104	393	7	10000	2	1	0	2	0
106	394	7	10000	2	1	0	2	0
105	395	7	10000	2	1	0	2	0
106	396	7	10000	2	1	0	2	0
106	397	7	10000	2	1	0	2	0
106	398	7	10000	2	1	0	2	0
106	399	7	10000	2	1	0	2	0
104	400	7	10000	2	1	0	2	0
106	401	7	10000	2	1	0	2	0
106	402	7	10000	2	1	0	2	0
107	403	7	10000	2	1	0	2	0
109	404	7	10000	2	1	0	2	0
108	405	7	10000	2	1	0	2	0
106	406	7	10000	2	1	0	2	0
106	407	7	10000	2	1	0	2	0
108	408	7	10000	2	1	0	2	0
107	409	7	10000	2	1	0	2	0
106	410	7	10000	2	1	0	2	0
109	411	7	10000	2	1	0	2	0
106	412	7	10000	2	1	0	2	0
104	413	7	10000	2	1	0	2	0
105	414	7	10000	2	1	0	2	0
106	415	7	10000	2	1	0	2	0
107	416	7	10000	2	1	0	2	0
105	417	7	10000	2	1	0	2	0
108	418	7	10000	2	1	0	2	0
107	419	7	10000	2	1	0	2	0
107	420	7	10000	2	1	0	2	0
108	421	7	10000	2	1	0	2	0
106	422	7	10000	2	1	0	2	0
105	423	7	10000	2	1	0	2	0
104	424	7	10000	2	1	0	2	0
107	425	7	10000	2	1	0	2	0
104	426	7	10000	2	1	0	2	0
104	427	7	10000	2	1	0	2	0
106	428	7	10000	2	1	0	2	0
105	429	7	10000	2	1	0	2	0
106	430	7	10000	2	1	0	2	0
108	431	7	10000	2	1	0	2	0
107	432	7	10000	2	1	0	2	0
104	433	7	10000	2	1	0	2	0
102	434	7	10000	2	1	0	2	0
107	435	7	10000	2	1	0	2	0
106	436	7	10000	2	1	0	2	0
103	437	7	10000	2	1	0	2	0
104	438	7	10000	2	1	0	2	0
104	439	7	10000	2	1	0	2	0
103	440	7	10000	2	1	0	2	0
102	441	7	10000	2	1	0	2	0
103	442	7	10000	2	1	0	2	0
103	443	7	10000	2	1	0	2	0
103	444	7	10000	2	1	0	2	0
105	445	7	10000	2	1	0	2	0
102	446	7	10000	2	1	0	2	0
102	447	7	10000	2	1	0	2	0
102	448	7	10000	2	1	0	2	0
103	449	7	10000	2	1	0	2	0
102	450	7	10000	2	1	0	2	0
102	451	7	10000	2	1	0	2	0
104	452	7	10000	2	1	0	2	0
103	453	7	10000	2	1	0	2	0
101	454	7	10000	2	1	0	2	0
104	455	7	10000	2	1	0	2	0
105	456	7	10000	2	1	0	2	0
107	457	7	10000	2	1	0	2	0
106	458	7	10000	2	1	0	2	0
107	459	7	10000	2	1	0	2	0
108	460	7	10000	2	1	0	2	0
107	461	7	10000	2	1	0	2	0
108	462	7	10000	2	1	0	2	0
106	463	7	10000	2	1	0	2	0
105	464	7	10000	2	1	0	2	0
105	465	7	10000	2	1	0	2	0
104	466	7	10000	2	1	0	2	0
104	467	7	10000	2	1	0	2	0
102	468	7	10000	2	1	0	2	0
105	469	7	10000	2	1	0	2	0
103	470	7	10000	2	1	0	2	0
103	471	7	10000	2	1	0	2	0
104	472	7	10000	2	1	0	2	0
103	473	7	10000	2	1	0	2	0
101	474	7	10000	2	1	0	2	0
100	475	7	10000	2	1	0	2	0
105	476	7	10000	2	1	0	2	0
104	477	7	10000	2	1	0	2	0
103	478	7	10000	2	1	0	2	0
104	479	7	10000	2	1	0	2	0
103	480	7	10000	2	1	0	2	0
103	481	7	10000	2	1	0	2	0
103	482	7	10000	2	1	0	2	0
104	483	7	10000	2	1	0	2	0
104	484	7	10000	2	1	0	2	0
104	485	7	10000	2	1	0	2	0
105	486	7	10000	2	1	0	2	0
103	487	7	10000	2	1	0	2	0
101	488	7	10000	2	1	0	2	0
104	489	7	10000	2	1	0	2	0
103	498	7	10000	2	1	0	2	0
103	499	7	10000	2	1	0	2	0
103	500	7	10000	2	1	0	2	0
104	501	7	10000	2	1	0	2	0
104	502	7	10000	2	1	0	2	0
104	503	7	10000	2	1	0	2	0
108	504	7	10000	2	1	0	2	0
105	505	7	10000	2	1	0	2	0
104	506	7	10000	2	1	0	2	0
103	507	7	10000	2	1	0	2	0
104	506	7	10000	2	1	0	2	0
103	507	7	10000	2	1	0	2	0
102	508	7	10000	2	1	0	2	0
106	509	7	10000	2	1	0	2	0
104	510	7	10000	2	1	0	2	0
102	511	7	10000	2	1	0	2	0
100	512	7	10000	2	1	0	2	0
101	513	7	10000	2	1	0	2	0
101	514	7	10000	2	1	0	2	1
101	515	7	10000	2	1	0	2	1
103	516	7	10000	2	1	0	2	1
102	517	7	10000	2	1	0	2	1
103	518	7	10000	2	1	0	2	1
104	519	7	10000	2	1	0	2	1
103	520	7	10000	2	1	0	2	1
103	521	7	10000	2	1	0	2	1
104	521	7	10000	2	1	0	2	1
105	522	7	10000	2	1	0	2	1
105	523	7	10000	2	1	0	2	1
102	524	7	10000	2	1	0	2	1
107	525	7	10000	2	1	0	2	1
104	526	7	10000	2	1	0	2	1
100	527	7	10000	2	1	0	2	1
104	528	7	10000	2	1	0	2	1
104	527	7	10000	2	1	0	2	1
104	528	7	10000	2	1	0	2	1
101	529	7	10000	2	1	0	2	1
105	530	7	10000	2	1	0	2	1
103	532	7	10000	2	1	0	2	1
103	533	7	10000	2	1	0	2	1
104	534	7	10000	2	1	0	2	1
104	535	7	10000	2	1	0	2	1
103	536	7	10000	2	1	0	2	1
103	537	7	10000	2	1	0	2	1
103	538	7	10000	2	1	0	2	1
102	539	7	10000	2	1	0	2	1
102	540	7	10000	2	1	0	2	1
104	541	7	10000	2	1	0	2	1
104	542	7	10000	2	1	0	2	1
104	543	7	10000	2	1	0	2	1
104	543	7	10000	2	1	0	2	1
105	544	7	10000	2	1	0	2	1
105	545	7	10000	2	1	0	2	1
104	546	7	10000	2	1	0	2	1
109	549	7	10000	2	1	0	2	1
107	550	7	10000	2	1	0	2	1
103	551	7	10000	2	1	0	2	1
105	552	7	10000	2	1	0	2	1
105	553	7	10000	2	1	0	2	1
104	554	7	10000	2	1	0	2	1
103	554	7	10000	2	1	0	2	1
105	555	7	10000	2	1	0	2	1
104	556	7	10000	2	1	0	2	1
104	557	7	10000	2	1	0	2	1
107	558	7	10000	2	1	0	2	1
105	559	7	10000	2	1	0	2	1
106	560	7	10000	2	1	0	2	0
106	561	7	10000	2	1	0	2	0
106	562	7	10000	2	1	0	2	0
104	563	7	10000	2	1	0	2	0
103	564	7	10000	2	1	0	2	0
105	565	7	10000	2	1	0	2	0
104	565	7	10000	2	1	0	2	0
104	566	7	10000	2	1	0	2	0
106	567	7	10000	2	1	0	2	0
106	568	7	10000	2	1	0	2	0
103	571	7	10000	2	1	0	2	0
101	572	7	10000	2	1	0	2	0
105	573	7	10000	2	1	0	2	0
105	574	7	10000	2	1	0	2	0
106	575	7	10000	2	1	0	2	0
107	576	7	10000	2	1	0	2	0
106	577	7	10000	2	1	0	2	0
105	578	7	10000	2	1	0	2	0
105	579	7	10000	2	1	0	2	0
105	580	7	10000	2	1	0	2	0
106	581	7	10000	2	1	0	2	0
104	582	7	10000	2	1	0	2	0
108	578	7	10000	2	1	0	2	0
106	579	7	10000	2	1	0	2	0
107	580	7	10000	2	1	0	2	0
107	581	7	10000	2	1	0	2	0
106	582	7	10000	2	1	0	2	0
105	583	7	10000	2	1	0	2	0
104	584	7	10000	2	1	0	2	0
107	585	7	10000	2	1	0	2	0
106	586	7	10000	2	1	0	2	0
105	587	7	10000	2	1	0	2	0
106	588	7	10000	2	1	0	2	0
106	589	7	10000	2	1	0	2	0
106	590	7	10000	2	1	0	2	0
106	591	7	10000	2	1	0	2	0
107	592	7	10000	2	1	0	2	0
106	593	7	10000	2	1	0	2	0
104	594	7	10000	2	1	0	2	0
108	595	7	10000	2	1	0	2	0
110	596	7	10000	2	1	0	2	0
108	597	7	10000	2	1	0	2	0
107	598	7	10000	2	1	0	2	0
108	599	7	10000	2	1	0	2	0
107	600	7	10000	2	1	0	2	0
128	601	7	10000	2	1	0	2	0
157	602	7	10000	2	1	0	2	0
158	603	7	10000	2	1	0	2	0
168	604	7	10000	2	1	0	2	0
176	605	7	10000	2	1	0	2	0
207	606	7	10000	2	1	0	2	0
246	607	7	10000	2	1	0	2	0
267	608	7	10000	2	1	0	2	0
273	609	7	10000	2	1	0	2	0
274	610	7	10000	2	1	0	2	0
299	611	7	10000	2	1	0	2	0
326	612	7	10000	2	1	0	2	0
363	613	7	10000	2	1	0	2	0
429	614	7	10000	2	1	0	2	0
452	615	7	10000	2	1	0	2	0
450	616	7	10000	2	1	0	2	0
460	617	7	10000	2	1	0	2	0
468	618	7	10000	2	1	0	2	0
464	619	7	10000	2	1	0	2	0
462	620	7	10000	2	1	0	2	0
451	621	7	10000	2	1	0	2	0
449	622	7	10000	2	1	0	2	0
451	623	7	10000	2	1	0	2	0
436	624	7	10000	2	1	0	2	0
443	625	7	10000	2	1	0	2	0
470	626	7	10000	2	1	0	2	0
462	627	7	10000	2	1	0	2	0
472	628	7	10000	2	1	0	2	0
462	629	7	10000	2	1	0	2	0
443	630	7	10000	2	1	0	2	0
430	631	7	10000	2	1	0	2	0
415	632	7	10000	2	1	0	2	0
406	633	7	10000	2	1	0	2	0
387	634	7	10000	2	1	0	2	0
371	635	7	10000	2	1	0	2	0
371	636	7	10000	2	1	0	2	0
361	637	7	10000	2	1	0	2	0
347	638	7	10000	2	1	0	2	0
337	639	7	10000	2	1	0	2	0
335	640	7	10000	2	1	0	2	0
321	641	7	10000	2	1	0	2	0
306	642	7	10000	2	1	0	2	0
303	643	7	10000	2	1	0	2	0
293	644	7	10000	2	1	0	2	0
286	645	7	10000	2	1	0	2	0
276	646	7	10000	2	1	0	2	0
269	647	7	10000	2	1	0	2	0
261	648	7	10000	2	1	0	2	0
252	649	7	10000	2	1	0	2	0
251	650	7	10000	2	1	0	2	0
240	651	7	10000	2	1	0	2	0
231	652	7	10000	2	1	0	2	0
227	653	7	10000	2	1	0	2	0
221	654	7	10000	2	1	0	2	0
214	655	7	10000	2	1	0	2	0
210	656	7	10000	2	1	0	2	0
208	657	7	10000	2	1	0	2	0
203	658	7	10000	2	1	0	2	0
200	659	7	10000	2	1	0	2	0
195	660	7	10000	2	1	0	2	0
193	661	7	10000	2	1	0	2	0
195	662	7	10000	2	1	0	2	0
195	663	7	10000	2	1	0	2	0
192	664	7	10000	2	1	0	2	0
198	665	7	10000	2	1	0	2	0
200	666	7	10000	2	1	0	2	0
195	667	7	10000	2	1	0	2	0
195	668	7	10000	2	1	0	2	0
198	669	7	10000	2	1	0	2	0
196	670	7	10000	2	1	0	2	0
191	671	7	10000	2	1	0	2	0
191	672	7	10000	2	1	0	2	0
190	673	7	10000	2	1	0	2	0
185	674	7	10000	2	1	0	2	0
186	675	7	10000	2	1	0	2	0
192	676	7	10000	2	1	0	2	0
190	677	7	10000	2	1	0	2	0
187	678	7	10000	2	1	0	2	0
191	679	7	10000	2	1	0	2	0
192	680	7	10000	2	1	0	2	0
187	681	7	10000	2	1	0	2	0
186	682	7	10000	2	1	0	2	0
189	683	7	10000	2	1	0	2	0
185	684	7	10000	2	1	0	2	0
182	685	7	10000	2	1	0	2	0
184	686	7	10000	2	1	0	2	0
185	687	7	10000	2	1	0	2	0
179	688	7	10000	2	1	0	2	0
182	689	7	10000	2	1	0	2	0
183	690	7	10000	2	1	0	2	0
180	691	7	10000	2	1	0	2	0
176	692	7	10000	2	1	0	2	0
174	693	7	10000	2	1	0	2	0
170	694	7	10000	2	1	0	2	0
169	695	7	10000	2	1	0	2	0
166	696	7	10000	2	1	0	2	0
160	697	7	10000	2	1	0	2	0
160	698	7	10000	2	1	0	2	0
157	699	7	10000	2	1	0	2	0
155	700	7	10000	2	1	0	2	0
152	701	7	10000	2	1	0	2	0
150	702	7	10000	2	1	0	2	0
149	703	7	10000	2	1	0	2	0
147	704	7	10000	2	1	0	2	0
147	705	7	10000	2	1	0	2	0
143	706	7	10000	2	1	0	2	0
142	707	7	10000	2	1	0	2	0
140	708	7	10000	2	1	0	2	0
140	709	7	10000	2	1	0	2	0
136	710	7	10000	2	1	0	2	0
131	711	7	10000	2	1	0	2	0
138	712	7	10000	2	1	0	2	0
132	713	7	10000	2	1	0	2	0
127	714	7	10000	2	1	0	2	0
131	715	7	10000	2	1	0	2	0
132	716	7	10000	2	1	0	2	0
126	717	7	10000	2	1	0	2	0
121	718	7	10000	2	1	0	2	0
125	719	7	10000	2	1	0	2	0
120	720	7	10000	2	1	0	2	0
116	721	7	10000	2	1	0	2	0
119	722	7	10000	2	1	0	2	0
117	723	7	10000	2	1	0	2	0
116	724	7	10000	2	1	0	2	0
115	725	7	10000	2	1	0	2	0
115	726	7	10000	2	1	0	2	0
113	727	7	10000	2	1	0	2	0
111	728	7	10000	2	1	0	2	0
114	729	7	10000	2	1	0	2	0
112	730	7	10000	2	1	0	2	0
107	731	7	10000	2	1	0	2	0
109	732	7	10000	2	1	0	2	0
110	733	7	10000	2	1	0	2	0
105	734	7	10000	2	1	0	2	0
102	735	7	10000	2	1	0	2	0
110	736	7	10000	2	1	0	2	0
106	737	7	10000	2	1	0	2	0
101	738	7	10000	2	1	0	2	0
103	739	7	10000	2	1	0	2	0
104	740	7	10000	2	1	0	2	0
102	741	7	10000	2	1	0	2	0
99	742	7	10000	2	1	0	2	0
103	743	7	10000	2	1	0	2	0
102	744	7	10000	2	1	0	2	0
102	745	7	10000	2	1	0	2	0
101	746	7	10000	2	1	0	2	0
101	747	7	10000	2	1	0	2	0
101	748	7	10000	2	1	0	2	0
100	749	7	10000	2	1	0	2	0
103	750	7	10000	2	1	0	2	0
100	751	7	10000	2	1	0	2	0
97	752	7	10000	2	1	0	2	0
103	753	7	10000	2	1	0	2	0
100	754	7	10000	2	1	0	2	0
94	755	7	10000	2	1	0	2	0
99	756	7	10000	2	1	0	2	0
101	757	7	10000	2	1	0	2	0
99	758	7	10000	2	1	0	2	0
94	759	7	10000	2	1	0	2	0
101	760	7	10000	2	1	0	2	0
99	761	7	10000	2	1	0	2	0
99	762	7	10000	2	1	0	2	0
101	763	7	10000	2	1	0	2	0
102	764	7	10000	2	1	0	2	0
103	765	7	10000	2	1	0	2	0
100	766	7	10000	2	1	0	2	0
104	767	7	10000	2	1	0	2	0
101	768	7	10000	2	1	0	2	0
100	769	7	10000	2	1	0	2	0
104	770	7	10000	2	1	0	2	0
103	771	7	10000	2	1	0	2	0
101	772	7	10000	2	1	0	2	0
101	773	7	10000	2	1	0	2	0
101	774	7	10000	2	1	0	2	0
98	775	7	10000	2	1	0	2	0
97	776	7	10000	2	1	0	2	0
104	777	7	10000	2	1	0	2	0
101	778	7	10000	2	1	0	2	0
99	779	7	10000	2	1	0	2	0
100	780	7	10000	2	1	0	2	0
100	781	7	10000	2	1	0	2	0
99	782	7	10000	2	1	0	2	0
99	783	7	10000	2	1	0	2	0
103	784	7	10000	2	1	0	2	0
103	785	7	10000	2	1	0	2	0
102	786	7	10000	2	1	0	2	0
103	787	7	10000	2	1	0	2	0
103	788	7	10000	2	1	0	2	0
102	789	7	10000	2	1	0	2	0
100	790	7	10000	2	1	0	2	0
102	791	7	10000	2	1	0	2	0
101	792	7	10000	2	1	0	2	0
99	793	7	10000	2	1	0	2	0
104	794	7	10000	2	1	0	2	0
101	795	7	10000	2	1	0	2	0
100	796	7	10000	2	1	0	2	0
98	797	7	10000	2	1	0	2	0
102	798	7	10000	2	1	0	2	0
100	799	7	10000	2	1	0	2	0
99	800	7	10000	2	1	0	2	0
101	801	7	10000	2	1	0	2	0
100	802	7	10000	2	1	0	2	0
102	803	7	10000	2	1	0	2	0
103	804	7	10000	2	1	0	2	0
104	805	7	10000	2	1	0	2	0
103	806	7	10000	2	1	0	2	0
103	807	7	10000	2	1	0	2	0
105	808	7	10000	2	1	0	2	0
105	809	7	10000	2	1	0	2	0
108	810	7	10000	2	1	0	2	0
108	811	7	10000	2	1	0	2	0
107	812	7	10000	2	1	0	2	0
104	813	7	10000	2	1	0	2	0
104	814	7	10000	2	1	0	2	0
107	815	7	10000	2	1	0	2	0
105	816	7	10000	2	1	0	2	0
101	817	7	10000	2	1	0	2	0
104	818	7	10000	2	1	0	2	0
103	819	7	10000	2	1	0	2	0
101	820	7	10000	2	1	0	2	0
101	821	7	10000	2	1	0	2	0
102	822	7	10000	2	1	0	2	0
103	823	7	10000	2	1	0	2	0
102	824	7	10000	2	1	0	2	0
106	825	7	10000	2	1	0	2	0
102	826	7	10000	2	1	0	2	0
103	827	7	10000	2	1	0	2	0
103	828	7	10000	2	1	0	2	0
104	829	7	10000	2	1	0	2	0
103	830	7	10000	2	1	0	2	0
101	831	7	10000	2	1	0	2	0
104	832	7	10000	2	1	0	2	0
102	833	7	10000	2	1	0	2	0
100	834	7	10000	2	1	0	2	0
104	835	7	10000	2	1	0	2	0
105	836	7	10000	2	1	0	2	0
100	837	7	10000	2	1	0	2	0
97	838	7	10000	2	1	0	2	0
101	839	7	10000	2	1	0	2	0
101	840	7	10000	2	1	0	2	0
103	841	7	10000	2	1	0	2	0
102	842	7	10000	2	1	0	2	0
102	843	7	10000	2	1	0	2	0
103	844	7	10000	2	1	0	2	0
104	845	7	10000	2	1	0	2	0
102	846	7	10000	2	1	0	2	0
104	847	7	10000	2	1	0	2	0
105	848	7	10000	2	1	0	2	0
106	849	7	10000	2	1	0	2	0
105	850	7	10000	2	1	0	2	0
106	851	7	10000	2	1	0	2	0
106	852	7	10000	2	1	0	2	0
105	853	7	10000	2	1	0	2	0
104	854	7	10000	2	1	0	2	0
102	855	7	10000	2	1	0	2	0
108	856	7	10000	2	1	0	2	0
106	857	7	10000	2	1	0	2	0
104	858	7	10000	2	1	0	2	0
105	859	7	10000	2	1	0	2	0
105	860	7	10000	2	1	0	2	0
102	861	7	10000	2	1	0	2	0
101	862	7	10000	2	1	0	2	0
104	863	7	10000	2	1	0	2	0
104	864	7	10000	2	1	0	2	0
105	865	7	10000	2	1	0	2	0
104	866	7	10000	2	1	0	2	0
105	867	7	10000	2	1	0	2	0
107	868	7	10000	2	1	0	2	0
107	869	7	10000	2	1	0	2	0
108	870	7	10000	2	1	0	2	0
108	871	7	10000	2	1	0	2	0
106	872	7	10000	2	1	0	2	0
115	873	7	10000	2	1	0	2	0
114	874	7	10000	2	1	0	2	0
110	875	7	10000	2	1	0	2	0
112	876	7	10000	2	1	0	2	0
112	877	7	10000	2	1	0	2	0
115	878	7	10000	2	1	0	2	0
115	879	7	10000	2	1	0	2	0
116	880	7	10000	2	1	0	2	0
115	881	7	10000	2	1	0	2	0
117	882	7	10000	2	1	0	2	0
118	883	7	10000	2	1	0	2	0
118	884	7	10000	2	1	0	2	0
121	885	7	10000	2	1	0	2	0
120	886	7	10000	2	1	0	2	0
119	887	7	10000	2	1	0	2	0
120	888	7	10000	2	1	0	2	0
119	889	7	10000	2	1	0	2	0
121	890	7	10000	2	1	0	2	0
118	891	7	10000	2	1	0	2	0
117	892	7	10000	2	1	0	2	0
116	893	7	10000	2	1	0	2	0
116	894	7	10000	2	1	0	2	0
114	895	7	10000	2	1	0	2	0
113	896	7	10000	2	1	0	2	0
117	897	7	10000	2	1	0	2	0
114	898	7	10000	2	1	0	2	0
111	899	7	10000	2	1	0	2	0
112	900	7	10000	2	1	0	2	0
113	901	7	10000	2	1	0	2	0
109	902	7	10000	2	1	0	2	0
110	903	7	10000	2	1	0	2	0
116	904	7	10000	2	1	0	2	0
118	905	7	10000	2	1	0	2	0
121	906	7	10000	2	1	0	2	0
122	907	7	10000	2	1	0	2	0
121	908	7	10000	2	1	0	2	0
123	909	7	10000	2	1	0	2	0
121	910	7	10000	2	1	0	2	0
121	911	7	10000	2	1	0	2	0
121	912	7	10000	2	1	0	2	0
117	913	7	10000	2	1	0	2	0
120	914	7	10000	2	1	0	2	0
116	915	7	10000	2	1	0	2	0
116	916	7	10000	2	1	0	2	0
114	917	7	10000	2	1	0	2	0
117	918	7	10000	2	1	0	2	0
115	919	7	10000	2	1	0	2	0
111	920	7	10000	2	1	0	2	0
115	921	7	10000	2	1	0	2	0
113	922	7	10000	2	1	0	2	0
113	923	7	10000	2	1	0	2	0
114	924	7	10000	2	1	0	2	0
115	925	7	10000	2	1	0	2	0
112	926	7	10000	2	1	0	2	0
111	927	7	10000	2	1	0	2	0
113	928	7	10000	2	1	0	2	0
113	929	7	10000	2	1	0	2	0
113	930	7	10000	2	1	0	2	0
113	931	7	10000	2	1	0	2	0
112	932	7	10000	2	1	0	2	0
110	933	7	10000	2	1	0	2	0
108	934	7	10000	2	1	0	2	0
112	935	7	10000	2	1	0	2	0
114	936	7	10000	2	1	0	2	0
112	937	7	10000	2	1	0	2	0
114	938	7	10000	2	1	0	2	0
112	939	7	10000	2	1	0	2	0
109	940	7	10000	2	1	0	2	0
109	941	7	10000	2	1	0	2	0
110	942	7	10000	2	1	0	2	0
111	943	7	10000	2	1	0	2	0
112	944	7	10000	2	1	0	2	0
113	945	7	10000	2	1	0	2	0
109	946	7	10000	2	1	0	2	0
109	947	7	10000	2	1	0	2	0
109	948	7	10000	2	1	0	2	0
110	949	7	10000	2	1	0	2	0
108	950	7	10000	2	1	0	2	0
106	951	7	10000	2	1	0	2	0
111	952	7	10000	2	1	0	2	0
107	953	7	10000	2	1	0	2	0
104	954	7	10000	2	1	0	2	0
105	955	7	10000	2	1	0	2	0
106	956	7	10000	2	1	0	2	0
105	957	7	10000	2	1	0	2	0
104	958	7	10000	2	1	0	2	0
106	959	7	10000	2	1	0	2	0
104	960	7	10000	2	1	0	2	0
101	961	7	10000	2	1	0	2	0
105	962	7	10000	2	1	0	2	0
105	963	7	10000	2	1	0	2	0
108	964	7	10000	2	1	0	2	0
108	965	7	10000	2	1	0	2	0
107	966	7	10000	2	1	0	2	0
108	967	7	10000	2	1	0	2	0
106	968	7	10000	2	1	0	2	0
110	969	7	10000	2	1	0	2	0
108	970	7	10000	2	1	0	2	0
105	971	7	10000	2	1	0	2	0
106	972	7	10000	2	1	0	2	0
105	973	7	10000	2	1	0	2	0
106	974	7	10000	2	1	0	2	0
104	975	7	10000	2	1	0	2	0
109	976	7	10000	2	1	0	2	0
108	977	7	10000	2	1	0	2	0
105	978	7	10000	2	1	0	2	0
108	979	7	10000	2	1	0	2	0
111	980	7	10000	2	1	0	2	0
110	981	7	10000	2	1	0	2	0
110	982	7	10000	2	1	0	2	0
111	983	7	10000	2	1	0	2	0
111	984	7	10000	2	1	0	2	0
112	985	7	10000	2	1	0	2	0
110	986	7	10000	2	1	0	2	0
110	987	7	10000	2	1	0	2	0
112	988	7	10000	2	1	0	2	0
111	989	7	10000	2	1	0	2	0
111	990	7	10000	2	1	0	2	0
111	991	7	10000	2	1	0	2	0
109	992	7	10000	2	1	0	2	0
115	993	7	10000	2	1	0	2	0
109	994	7	10000	2	1	0	2	0
105	995	7	10000	2	1	0	2	0
108	996	7	10000	2	1	0	2	0
109	997	7	10000	2	1	0	2	0
106	998	7	10000	2	1	0	2	0
102	999	7	10000	2	1	0	2	0
107	1000	7	10000	2	1	0	2	0
104	1001	7	10000	2	1	0	2	0
104	1	7	10000	3	1	0	3	0
104	2	7	10000	3	1	0	3	0
104	3	7	10000	3	1	0	3	0
105	4	7	10000	3	1	0	3	0
104	5	7	10000	3	1	0	3	0
104	6	7	10000	3	1	0	3	0
107	7	7	10000	3	1	0	3	0
107	8	7	10000	3	1	0	3	0
104	9	7	10000	3	1	0	3	0
106	10	7	10000	3	1	0	3	0
106	11	7	10000	3	1	0	3	0
107	12	7	10000	3	1	0	3	0
108	21	7	10000	3	1	0	3	0
106	22	7	10000	3	1	0	3	0
105	23	7	10000	3	1	0	3	0
105	24	7	10000	3	1	0	3	0
104	25	7	10000	3	1	0	3	0
101	26	7	10000	3	1	0	3	0
101	27	7	10000	3	1	0	3	0
103	28	7	10000	3	1	0	3	0
103	29	7	10000	3	1	0	3	0
102	30	7	10000	3	1	0	3	0
105	30	7	10000	3	1	0	3	0
102	31	7	10000	3	1	0	3	0
101	32	7	10000	3	1	0	3	0
104	33	7	10000	3	1	0	3	0
103	34	7	10000	3	1	0	3	0
103	35	7	10000	3	1	0	3	0
101	36	7	10000	3	1	0	3	0
103	37	7	10000	3	1	0	3	0
103	36	7	10000	3	1	0	3	0
103	37	7	10000	3	1	0	3	0
104	38	7	10000	3	1	0	3	0
104	39	7	10000	3	1	0	3	0
106	40	7	10000	3	1	0	3	0
104	41	7	10000	3	1	0	3	0
104	45	7	10000	3	1	0	3	0
105	46	7	10000	3	1	0	3	0
109	47	7	10000	3	1	0	3	0
107	48	7	10000	3	1	0	3	0
106	49	7	10000	3	1	0	3	0
104	50	7	10000	3	1	0	3	0
105	51	7	10000	3	1	0	3	0
105	52	7	10000	3	1	0	3	0
103	53	7	10000	3	1	0	3	0
105	54	7	10000	3	1	0	3	0
105	52	7	10000	3	1	0	3	0
103	53	7	10000	3	1	0	3	0
106	54	7	10000	3	1	0	3	0
102	55	7	10000	3	1	0	3	0
97	56	7	10000	3	1	0	3	0
104	57	7	10000	3	1	0	3	0
103	57	7	10000	3	1	0	3	0
98	58	7	10000	3	1	0	3	0
101	59	7	10000	3	1	0	3	0
100	60	7	10000	3	1	0	3	0
100	61	7	10000	3	1	0	3	0
100	62	7	10000	3	1	0	3	0
104	62	7	10000	3	1	0	3	0
104	63	7	10000	3	1	0	3	0
104	64	7	10000	3	1	0	3	0
105	65	7	10000	3	1	0	3	0
104	68	7	10000	3	1	0	3	0
106	69	7	10000	3	1	0	3	0
107	70	7	10000	3	1	0	3	0
105	71	7	10000	3	1	0	3	0
104	72	7	10000	3	1	0	3	0
104	73	7	10000	3	1	0	3	0
103	73	7	10000	3	1	0	3	0
106	74	7	10000	3	1	0	3	0
106	75	7	10000	3	1	0	3	0
107	76	7	10000	3	1	0	3	0
108	77	7	10000	3	1	0	3	0
107	78	7	10000	3	1	0	3	0
112	79	7	10000	3	1	0	3	0
107	80	7	10000	3	1	0	3	0
105	81	7	10000	3	1	0	3	0
110	82	7	10000	3	1	0	3	0
110	83	7	10000	3	1	0	3	0
108	84	7	10000	3	1	0	3	0
108	84	7	10000	3	1	0	3	0
108	85	7	10000	3	1	0	3	0
107	86	7	10000	3	1	0	3	0
106	87	7	10000	3	1	0	3	0
108	89	7	10000	3	1	0	3	0
106	90	7	10000	3	1	0	3	0
103	91	7	10000	3	1	0	3	0
107	92	7	10000	3	1	0	3	0
104	93	7	10000	3	1	0	3	0
102	94	7	10000	3	1	0	3	0
104	96	7	10000	3	1	0	3	0
104	97	7	10000	3	1	0	3	0
106	98	7	10000	3	1	0	3	0
107	99	7	10000	3	1	0	3	0
106	100	7	10000	3	1	0	3	0
106	101	7	10000	3	1	0	3	0
105	100	7	10000	3	1	0	3	0
110	101	7	10000	3	1	0	3	0
109	102	7	10000	3	1	0	3	0
108	103	7	10000	3	1	0	3	0
110	107	7	10000	3	1	0	3	0
109	108	7	10000	3	1	0	3	0
111	109	7	10000	3	1	0	3	0
112	110	7	10000	3	1	0	3	0
110	111	7	10000	3	1	0	3	0
110	112	7	10000	3	1	0	3	0
112	113	7	10000	3	1	0	3	0
112	114	7	10000	3	1	0	3	0
108	111	7	10000	3	1	0	3	0
107	112	7	10000	3	1	0	3	0
110	113	7	10000	3	1	0	3	0
107	114	7	10000	3	1	0	3	0
104	118	7	10000	3	1	0	3	0
109	119	7	10000	3	1	0	3	0
107	120	7	10000	3	1	0	3	0
107	121	7	10000	3	1	0	3	0
108	122	7	10000	3	1	0	3	0
107	123	7	10000	3	1	0	3	0
108	124	7	10000	3	1	0	3	0
107	125	7	10000	3	1	0	3	0
109	123	7	10000	3	1	0	3	0
109	124	7	10000	3	1	0	3	0
107	125	7	10000	3	1	0	3	0
110	126	7	10000	3	1	0	3	0
107	125	7	10000	3	1	0	3	0
105	126	7	10000	3	1	0	3	0
108	127	7	10000	3	1	0	3	0
108	128	7	10000	3	1	0	3	0
106	129	7	10000	3	1	0	3	0
106	130	7	10000	3	1	0	3	0
107	131	7	10000	3	1	0	3	0
109	132	7	10000	3	1	0	3	0
110	133	7	10000	3	1	0	3	0
110	134	7	10000	3	1	0	3	0
111	135	7	10000	3	1	0	3	0
110	136	7	10000	3	1	0	3	0
112	137	7	10000	3	1	0	3	0
109	138	7	10000	3	1	0	3	0
109	139	7	10000	3	1	0	3	0
112	140	7	10000	3	1	0	3	0
110	141	7	10000	3	1	0	3	0
110	142	7	10000	3	1	0	3	0
111	143	7	10000	3	1	0	3	0
110	144	7	10000	3	1	0	3	0
107	145	7	10000	3	1	0	3	0
108	146	7	10000	3	1	0	3	0
109	147	7	10000	3	1	0	3	0
109	148	7	10000	3	1	0	3	0
106	149	7	10000	3	1	0	3	0
110	150	7	10000	3	1	0	3	0
107	151	7	10000	3	1	0	3	0
107	152	7	10000	3	1	0	3	0
109	153	7	10000	3	1	0	3	0
107	154	7	10000	3	1	0	3	0
107	155	7	10000	3	1	0	3	0
108	156	7	10000	3	1	0	3	0
106	157	7	10000	3	1	0	3	0
106	158	7	10000	3	1	0	3	0
108	159	7	10000	3	1	0	3	0
108	160	7	10000	3	1	0	3	0
106	161	7	10000	3	1	0	3	0
104	162	7	10000	3	1	0	3	0
107	163	7	10000	3	1	0	3	0
105	164	7	10000	3	1	0	3	0
104	165	7	10000	3	1	0	3	0
108	166	7	10000	3	1	0	3	0
106	167	7	10000	3	1	0	3	0
104	168	7	10000	3	1	0	3	0
102	169	7	10000	3	1	0	3	0
104	170	7	10000	3	1	0	3	0
104	171	7	10000	3	1	0	3	0
105	172	7	10000	3	1	0	3	0
106	173	7	10000	3	1	0	3	0
106	174	7	10000	3	1	0	3	0
105	175	7	10000	3	1	0	3	0
107	176	7	10000	3	1	0	3	0
106	177	7	10000	3	1	0	3	0
106	178	7	10000	3	1	0	3	0
110	179	7	10000	3	1	0	3	0
109	180	7	10000	3	1	0	3	0
108	181	7	10000	3	1	0	3	0
106	182	7	10000	3	1	0	3	0
107	183	7	10000	3	1	0	3	0
106	184	7	10000	3	1	0	3	0
104	185	7	10000	3	1	0	3	0
107	186	7	10000	3	1	0	3	0
107	187	7	10000	3	1	0	3	0
109	188	7	10000	3	1	0	3	0
108	189	7	10000	3	1	0	3	0
106	190	7	10000	3	1	0	3	0
106	191	7	10000	3	1	0	3	0
107	192	7	10000	3	1	0	3	0
106	193	7	10000	3	1	0	3	0
104	194	7	10000	3	1	0	3	0
104	195	7	10000	3	1	0	3	0
104	196	7	10000	3	1	0	3	0
102	197	7	10000	3	1	0	3	0
101	198	7	10000	3	1	0	3	0
105	199	7	10000	3	1	0	3	0
105	200	7	10000	3	1	0	3	0
106	201	7	10000	3	1	0	3	0
106	202	7	10000	3	1	0	3	0
105	203	7	10000	3	1	0	3	0
104	204	7	10000	3	1	0	3	0
105	205	7	10000	3	1	0	3	0
104	206	7	10000	3	1	0	3	0
104	207	7	10000	3	1	0	3	0
101	208	7	10000	3	1	0	3	0
102	209	7	10000	3	1	0	3	0
101	210	7	10000	3	1	0	3	0
100	211	7	10000	3	1	0	3	0
103	212	7	10000	3	1	0	3	0
102	213	7	10000	3	1	0	3	0
101	214	7	10000	3	1	0	3	0
105	215	7	10000	3	1	0	3	0
102	216	7	10000	3	1	0	3	0
101	217	7	10000	3	1	0	3	0
102	218	7	10000	3	1	0	3	0
104	219	7	10000	3	1	0	3	0
105	220	7	10000	3	1	0	3	0
104	221	7	10000	3	1	0	3	0
106	222	7	10000	3	1	0	3	0
106	223	7	10000	3	1	0	3	0
104	224	7	10000	3	1	0	3	0
106	225	7	10000	3	1	0	3	0
106	226	7	10000	3	1	0	3	0
106	227	7	10000	3	1	0	3	0
110	228	7	10000	3	1	0	3	0
106	229	7	10000	3	1	0	3	0
106	230	7	10000	3	1	0	3	0
106	231	7	10000	3	1	0	3	0
107	232	7	10000	3	1	0	3	0
109	233	7	10000	3	1	0	3	0
108	234	7	10000	3	1	0	3	0
110	235	7	10000	3	1	0	3	0
109	236	7	10000	3	1	0	3	0
108	237	7	10000	3	1	0	3	0
109	238	7	10000	3	1	0	3	0
112	239	7	10000	3	1	0	3	0
111	240	7	10000	3	1	0	3	0
113	241	7	10000	3	1	0	3	0
111	242	7	10000	3	1	0	3	0
109	243	7	10000	3	1	0	3	0
109	244	7	10000	3	1	0	3	0
109	245	7	10000	3	1	0	3	0
110	246	7	10000	3	1	0	3	0
109	247	7	10000	3	1	0	3	0
112	248	7	10000	3	1	0	3	0
109	249	7	10000	3	1	0	3	0
108	250	7	10000	3	1	0	3	0
110	251	7	10000	3	1	0	3	0
109	252	7	10000	3	1	0	3	0
107	253	7	10000	3	1	0	3	0
109	254	7	10000	3	1	0	3	0
109	255	7	10000	3	1	0	3	0
110	256	7	10000	3	1	0	3	0
110	257	7	10000	3	1	0	3	0
111	258	7	10000	3	1	0	3	0
112	259	7	10000	3	1	0	3	0
109	260	7	10000	3	1	0	3	0
112	261	7	10000	3	1	0	3	0
112	262	7	10000	3	1	0	3	0
112	263	7	10000	3	1	0	3	0
114	264	7	10000	3	1	0	3	0
111	265	7	10000	3	1	0	3	0
111	266	7	10000	3	1	0	3	0
112	267	7	10000	3	1	0	3	0
112	268	7	10000	3	1	0	3	0
107	269	7	10000	3	1	0	3	0
104	270	7	10000	3	1	0	3	0
106	271	7	10000	3	1	0	3	0
107	272	7	10000	3	1	0	3	0
107	273	7	10000	3	1	0	3	0
109	274	7	10000	3	1	0	3	0
107	275	7	10000	3	1	0	3	0
106	276	7	10000	3	1	0	3	0
109	277	7	10000	3	1	0	3	0
108	278	7	10000	3	1	0	3	0
109	279	7	10000	3	1	0	3	0
108	280	7	10000	3	1	0	3	0
109	281	7	10000	3	1	0	3	0
108	282	7	10000	3	1	0	3	0
106	283	7	10000	3	1	0	3	0
109	284	7	10000	3	1	0	3	0
106	285	7	10000	3	1	0	3	0
105	286	7	10000	3	1	0	3	0
109	287	7	10000	3	1	0	3	0
108	288	7	10000	3	1	0	3	0
105	289	7	10000	3	1	0	3	0
105	290	7	10000	3	1	0	3	0
107	291	7	10000	3	1	0	3	0
109	292	7	10000	3	1	0	3	0
108	293	7	10000	3	1	0	3	0
110	294	7	10000	3	1	0	3	0
108	295	7	10000	3	1	0	3	0
105	296	7	10000	3	1	0	3	0
109	297	7	10000	3	1	0	3	0
108	298	7	10000	3	1	0	3	0
108	299	7	10000	3	1	0	3	0
110	300	7	10000	3	1	0	3	0
109	301	7	10000	3	1	0	3	0
108	302	7	10000	3	1	0	3	0
108	303	7	10000	3	1	0	3	0
109	304	7	10000	3	1	0	3	0
106	305	7	10000	3	1	0	3	0
105	306	7	10000	3	1	0	3	0
110	307	7	10000	3	1	0	3	0
109	308	7	10000	3	1	0	3	0
108	309	7	10000	3	1	0	3	0
109	310	7	10000	3	1	0	3	0
108	311	7	10000	3	1	0	3	0
109	312	7	10000	3	1	0	3	0
110	313	7	10000	3	1	0	3	0
109	314	7	10000	3	1	0	3	0
108	315	7	10000	3	1	0	3	0
108	316	7	10000	3	1	0	3	0
109	317	7	10000	3	1	0	3	0
107	318	7	10000	3	1	0	3	0
107	319	7	10000	3	1	0	3	0
109	320	7	10000	3	1	0	3	0
109	321	7	10000	3	1	0	3	0
110	322	7	10000	3	1	0	3	0
111	323	7	10000	3	1	0	3	0
109	324	7	10000	3	1	0	3	0
109	325	7	10000	3	1	0	3	0
110	326	7	10000	3	1	0	3	0
110	327	7	10000	3	1	0	3	0
109	328	7	10000	3	1	0	3	0
105	329	7	10000	3	1	0	3	0
108	330	7	10000	3	1	0	3	0
106	331	7	10000	3	1	0	3	0
104	332	7	10000	3	1	0	3	0
109	333	7	10000	3	1	0	3	0
104	334	7	10000	3	1	0	3	0
101	335	7	10000	3	1	0	3	0
105	336	7	10000	3	1	0	3	0
104	337	7	10000	3	1	0	3	0
104	338	7	10000	3	1	0	3	0
106	339	7	10000	3	1	0	3	0
106	340	7	10000	3	1	0	3	0
105	341	7	10000	3	1	0	3	0
106	342	7	10000	3	1	0	3	0
107	343	7	10000	3	1	0	3	0
107	344	7	10000	3	1	0	3	0
105	345	7	10000	3	1	0	3	0
109	346	7	10000	3	1	0	3	0
107	347	7	10000	3	1	0	3	0
109	348	7	10000	3	1	0	3	0
107	349	7	10000	3	1	0	3	0
106	350	7	10000	3	1	0	3	0
105	351	7	10000	3	1	0	3	0
105	352	7	10000	3	1	0	3	0
106	353	7	10000	3	1	0	3	0
109	354	7	10000	3	1	0	3	0
110	355	7	10000	3	1	0	3	0
110	356	7	10000	3	1	0	3	0
111	357	7	10000	3	1	0	3	0
113	358	7	10000	3	1	0	3	0
117	359	7	10000	3	1	0	3	0
114	360	7	10000	3	1	0	3	0
113	361	7	10000	3	1	0	3	0
113	362	7	10000	3	1	0	3	0
112	363	7	10000	3	1	0	3	0
112	364	7	10000	3	1	0	3	0
112	365	7	10000	3	1	0	3	0
113	366	7	10000	3	1	0	3	0
112	367	7	10000	3	1	0	3	0
112	368	7	10000	3	1	0	3	0
112	369	7	10000	3	1	0	3	0
111	370	7	10000	3	1	0	3	0
112	371	7	10000	3	1	0	3	0
113	372	7	10000	3	1	0	3	0
112	373	7	10000	3	1	0	3	0
111	374	7	10000	3	1	0	3	0
113	375	7	10000	3	1	0	3	0
110	376	7	10000	3	1	0	3	0
110	377	7	10000	3	1	0	3	0
108	378	7	10000	3	1	0	3	0
113	379	7	10000	3	1	0	3	0
111	380	7	10000	3	1	0	3	0
109	381	7	10000	3	1	0	3	0
113	382	7	10000	3	1	0	3	0
110	383	7	10000	3	1	0	3	0
106	384	7	10000	3	1	0	3	0
111	385	7	10000	3	1	0	3	0
108	386	7	10000	3	1	0	3	0
104	387	7	10000	3	1	0	3	0
107	388	7	10000	3	1	0	3	0
106	389	7	10000	3	1	0	3	0
102	390	7	10000	3	1	0	3	0
101	391	7	10000	3	1	0	3	0
107	392	7	10000	3	1	0	3	0
102	393	7	10000	3	1	0	3	0
99	394	7	10000	3	1	0	3	0
103	395	7	10000	3	1	0	3	0
102	396	7	10000	3	1	0	3	0
102	397	7	10000	3	1	0	3	0
104	398	7	10000	3	1	0	3	0
104	399	7	10000	3	1	0	3	0
103	400	7	10000	3	1	0	3	0
104	401	7	10000	3	1	0	3	0
103	402	7	10000	3	1	0	3	0
99	403	7	10000	3	1	0	3	0
99	404	7	10000	3	1	0	3	0
101	405	7	10000	3	1	0	3	0
99	406	7	10000	3	1	0	3	0
96	407	7	10000	3	1	0	3	0
103	408	7	10000	3	1	0	3	0
98	409	7	10000	3	1	0	3	0
96	410	7	10000	3	1	0	3	0
100	411	7	10000	3	1	0	3	0
98	412	7	10000	3	1	0	3	0
98	413	7	10000	3	1	0	3	0
100	414	7	10000	3	1	0	3	0
100	415	7	10000	3	1	0	3	0
99	416	7	10000	3	1	0	3	0
99	417	7	10000	3	1	0	3	0
99	418	7	10000	3	1	0	3	0
99	419	7	10000	3	1	0	3	0
97	420	7	10000	3	1	0	3	0
101	421	7	10000	3	1	0	3	0
98	422	7	10000	3	1	0	3	0
96	423	7	10000	3	1	0	3	0
100	424	7	10000	3	1	0	3	0
97	425	7	10000	3	1	0	3	0
96	426	7	10000	3	1	0	3	0
98	427	7	10000	3	1	0	3	0
98	428	7	10000	3	1	0	3	0
95	429	7	10000	3	1	0	3	0
95	430	7	10000	3	1	0	3	0
98	431	7	10000	3	1	0	3	0
99	432	7	10000	3	1	0	3	0
99	433	7	10000	3	1	0	3	0
101	434	7	10000	3	1	0	3	0
99	435	7	10000	3	1	0	3	0
96	436	7	10000	3	1	0	3	0
100	437	7	10000	3	1	0	3	0
99	438	7	10000	3	1	0	3	0
100	439	7	10000	3	1	0	3	0
102	440	7	10000	3	1	0	3	0
102	441	7	10000	3	1	0	3	0
101	442	7	10000	3	1	0	3	0
101	443	7	10000	3	1	0	3	0
103	444	7	10000	3	1	0	3	0
101	445	7	10000	3	1	0	3	0
100	446	7	10000	3	1	0	3	0
104	447	7	10000	3	1	0	3	0
102	448	7	10000	3	1	0	3	0
98	449	7	10000	3	1	0	3	0
101	450	7	10000	3	1	0	3	0
100	451	7	10000	3	1	0	3	0
101	452	7	10000	3	1	0	3	0
103	453	7	10000	3	1	0	3	0
102	454	7	10000	3	1	0	3	0
103	455	7	10000	3	1	0	3	0
103	456	7	10000	3	1	0	3	0
103	457	7	10000	3	1	0	3	0
103	458	7	10000	3	1	0	3	0
105	459	7	10000	3	1	0	3	0
108	460	7	10000	3	1	0	3	0
106	461	7	10000	3	1	0	3	0
104	462	7	10000	3	1	0	3	0
106	463	7	10000	3	1	0	3	0
104	464	7	10000	3	1	0	3	0
103	465	7	10000	3	1	0	3	0
105	466	7	10000	3	1	0	3	0
105	467	7	10000	3	1	0	3	0
107	468	7	10000	3	1	0	3	0
106	469	7	10000	3	1	0	3	0
106	470	7	10000	3	1	0	3	0
105	471	7	10000	3	1	0	3	0
106	472	7	10000	3	1	0	3	0
109	473	7	10000	3	1	0	3	0
107	474	7	10000	3	1	0	3	0
107	475	7	10000	3	1	0	3	0
108	476	7	10000	3	1	0	3	0
105	477	7	10000	3	1	0	3	0
104	478	7	10000	3	1	0	3	0
107	479	7	10000	3	1	0	3	0
106	480	7	10000	3	1	0	3	0
108	481	7	10000	3	1	0	3	0
108	482	7	10000	3	1	0	3	0
109	483	7	10000	3	1	0	3	0
108	484	7	10000	3	1	0	3	0
107	485	7	10000	3	1	0	3	0
110	486	7	10000	3	1	0	3	0
109	487	7	10000	3	1	0	3	0
110	488	7	10000	3	1	0	3	0
109	489	7	10000	3	1	0	3	0
107	490	7	10000	3	1	0	3	0
107	491	7	10000	3	1	0	3	0
108	492	7	10000	3	1	0	3	0
108	493	7	10000	3	1	0	3	0
106	494	7	10000	3	1	0	3	0
106	495	7	10000	3	1	0	3	0
107	496	7	10000	3	1	0	3	0
105	497	7	10000	3	1	0	3	0
105	498	7	10000	3	1	0	3	0
109	499	7	10000	3	1	0	3	0
108	500	7	10000	3	1	0	3	0
108	501	7	10000	3	1	0	3	1
110	502	7	10000	3	1	0	3	1
107	503	7	10000	3	1	0	3	1
106	504	7	10000	3	1	0	3	1
107	505	7	10000	3	1	0	3	1
105	506	7	10000	3	1	0	3	1
105	507	7	10000	3	1	0	3	1
104	508	7	10000	3	1	0	3	1
103	509	7	10000	3	1	0	3	1
103	510	7	10000	3	1	0	3	1
104	511	7	10000	3	1	0	3	1
105	512	7	10000	3	1	0	3	1
104	513	7	10000	3	1	0	3	1
103	514	7	10000	3	1	0	3	1
106	515	7	10000	3	1	0	3	1
103	516	7	10000	3	1	0	3	1
102	517	7	10000	3	1	0	3	1
104	518	7	10000	3	1	0	3	1
105	519	7	10000	3	1	0	3	1
103	520	7	10000	3	1	0	3	1
102	521	7	10000	3	1	0	3	1
104	522	7	10000	3	1	0	3	1
104	523	7	10000	3	1	0	3	1
103	524	7	10000	3	1	0	3	1
104	525	7	10000	3	1	0	3	1
104	526	7	10000	3	1	0	3	1
102	527	7	10000	3	1	0	3	1
106	528	7	10000	3	1	0	3	1
102	529	7	10000	3	1	0	3	1
103	530	7	10000	3	1	0	3	1
104	531	7	10000	3	1	0	3	1
104	532	7	10000	3	1	0	3	1
104	533	7	10000	3	1	0	3	1
103	534	7	10000	3	1	0	3	1
104	535	7	10000	3	1	0	3	1
102	536	7	10000	3	1	0	3	1
101	537	7	10000	3	1	0	3	1
104	538	7	10000	3	1	0	3	1
105	539	7	10000	3	1	0	3	1
103	540	7	10000	3	1	0	3	1
105	541	7	10000	3	1	0	3	1
105	542	7	10000	3	1	0	3	1
108	543	7	10000	3	1	0	3	1
108	544	7	10000	3	1	0	3	1
106	545	7	10000	3	1	0	3	1
106	546	7	10000	3	1	0	3	1
106	547	7	10000	3	1	0	3	1
108	548	7	10000	3	1	0	3	1
104	549	7	10000	3	1	0	3	1
103	550	7	10000	3	1	0	3	1
106	551	7	10000	3	1	0	3	0
104	552	7	10000	3	1	0	3	0
104	553	7	10000	3	1	0	3	0
107	554	7	10000	3	1	0	3	0
104	555	7	10000	3	1	0	3	0
100	556	7	10000	3	1	0	3	0
103	557	7	10000	3	1	0	3	0
103	558	7	10000	3	1	0	3	0
102	559	7	10000	3	1	0	3	0
99	560	7	10000	3	1	0	3	0
102	561	7	10000	3	1	0	3	0
99	562	7	10000	3	1	0	3	0
97	563	7	10000	3	1	0	3	0
102	564	7	10000	3	1	0	3	0
98	565	7	10000	3	1	0	3	0
95	566	7	10000	3	1	0	3	0
100	567	7	10000	3	1	0	3	0
99	568	7	10000	3	1	0	3	0
101	569	7	10000	3	1	0	3	0
101	570	7	10000	3	1	0	3	0
102	571	7	10000	3	1	0	3	0
102	572	7	10000	3	1	0	3	0
100	573	7	10000	3	1	0	3	0
106	574	7	10000	3	1	0	3	0
103	575	7	10000	3	1	0	3	0
99	576	7	10000	3	1	0	3	0
106	577	7	10000	3	1	0	3	0
103	578	7	10000	3	1	0	3	0
105	579	7	10000	3	1	0	3	0
107	580	7	10000	3	1	0	3	0
105	581	7	10000	3	1	0	3	0
102	582	7	10000	3	1	0	3	0
102	583	7	10000	3	1	0	3	0
105	584	7	10000	3	1	0	3	0
102	585	7	10000	3	1	0	3	0
99	586	7	10000	3	1	0	3	0
105	587	7	10000	3	1	0	3	0
104	588	7	10000	3	1	0	3	0
102	589	7	10000	3	1	0	3	0
104	590	7	10000	3	1	0	3	0
104	591	7	10000	3	1	0	3	0
107	592	7	10000	3	1	0	3	0
107	593	7	10000	3	1	0	3	0
108	594	7	10000	3	1	0	3	0
112	595	7	10000	3	1	0	3	0
112	596	7	10000	3	1	0	3	0
110	597	7	10000	3	1	0	3	0
112	598	7	10000	3	1	0	3	0
114	599	7	10000	3	1	0	3	0
116	600	7	10000	3	1	0	3	0
113	601	7	10000	3	1	0	3	0
109	602	7	10000	3	1	0	3	0
113	603	7	10000	3	1	0	3	0
114	604	7	10000	3	1	0	3	0
123	605	7	10000	3	1	0	3	0
125	606	7	10000	3	1	0	3	0
123	607	7	10000	3	1	0	3	0
120	608	7	10000	3	1	0	3	0
116	609	7	10000	3	1	0	3	0
120	610	7	10000	3	1	0	3	0
119	611	7	10000	3	1	0	3	0
117	612	7	10000	3	1	0	3	0
124	613	7	10000	3	1	0	3	0
135	614	7	10000	3	1	0	3	0
137	615	7	10000	3	1	0	3	0
149	616	7	10000	3	1	0	3	0
169	617	7	10000	3	1	0	3	0
193	618	7	10000	3	1	0	3	0
210	619	7	10000	3	1	0	3	0
211	620	7	10000	3	1	0	3	0
230	621	7	10000	3	1	0	3	0
253	622	7	10000	3	1	0	3	0
264	623	7	10000	3	1	0	3	0
286	624	7	10000	3	1	0	3	0
298	625	7	10000	3	1	0	3	0
289	626	7	10000	3	1	0	3	0
295	627	7	10000	3	1	0	3	0
307	628	7	10000	3	1	0	3	0
301	629	7	10000	3	1	0	3	0
296	630	7	10000	3	1	0	3	0
288	631	7	10000	3	1	0	3	0
280	632	7	10000	3	1	0	3	0
272	633	7	10000	3	1	0	3	0
264	634	7	10000	3	1	0	3	0
273	635	7	10000	3	1	0	3	0
277	636	7	10000	3	1	0	3	0
269	637	7	10000	3	1	0	3	0
303	638	7	10000	3	1	0	3	0
376	639	7	10000	3	1	0	3	0
391	640	7	10000	3	1	0	3	0
377	641	7	10000	3	1	0	3	0
370	642	7	10000	3	1	0	3	0
369	643	7	10000	3	1	0	3	0
398	644	7	10000	3	1	0	3	0
417	645	7	10000	3	1	0	3	0
419	646	7	10000	3	1	0	3	0
426	647	7	10000	3	1	0	3	0
426	648	7	10000	3	1	0	3	0
405	649	7	10000	3	1	0	3	0
390	650	7	10000	3	1	0	3	0
373	651	7	10000	3	1	0	3	0
366	652	7	10000	3	1	0	3	0
350	653	7	10000	3	1	0	3	0
335	654	7	10000	3	1	0	3	0
329	655	7	10000	3	1	0	3	0
315	656	7	10000	3	1	0	3	0
302	657	7	10000	3	1	0	3	0
293	658	7	10000	3	1	0	3	0
287	659	7	10000	3	1	0	3	0
275	660	7	10000	3	1	0	3	0
264	661	7	10000	3	1	0	3	0
263	662	7	10000	3	1	0	3	0
251	663	7	10000	3	1	0	3	0
241	664	7	10000	3	1	0	3	0
242	665	7	10000	3	1	0	3	0
233	666	7	10000	3	1	0	3	0
223	667	7	10000	3	1	0	3	0
223	668	7	10000	3	1	0	3	0
216	669	7	10000	3	1	0	3	0
208	670	7	10000	3	1	0	3	0
202	671	7	10000	3	1	0	3	0
199	672	7	10000	3	1	0	3	0
198	673	7	10000	3	1	0	3	0
196	674	7	10000	3	1	0	3	0
192	675	7	10000	3	1	0	3	0
197	676	7	10000	3	1	0	3	0
199	677	7	10000	3	1	0	3	0
193	678	7	10000	3	1	0	3	0
196	679	7	10000	3	1	0	3	0
196	680	7	10000	3	1	0	3	0
192	681	7	10000	3	1	0	3	0
188	682	7	10000	3	1	0	3	0
186	683	7	10000	3	1	0	3	0
182	684	7	10000	3	1	0	3	0
179	685	7	10000	3	1	0	3	0
178	686	7	10000	3	1	0	3	0
175	687	7	10000	3	1	0	3	0
173	688	7	10000	3	1	0	3	0
171	689	7	10000	3	1	0	3	0
174	690	7	10000	3	1	0	3	0
169	691	7	10000	3	1	0	3	0
173	692	7	10000	3	1	0	3	0
179	693	7	10000	3	1	0	3	0
176	694	7	10000	3	1	0	3	0
179	695	7	10000	3	1	0	3	0
186	696	7	10000	3	1	0	3	0
185	697	7	10000	3	1	0	3	0
183	698	7	10000	3	1	0	3	0
189	699	7	10000	3	1	0	3	0
191	700	7	10000	3	1	0	3	0
186	701	7	10000	3	1	0	3	0
184	702	7	10000	3	1	0	3	0
181	703	7	10000	3	1	0	3	0
178	704	7	10000	3	1	0	3	0
174	705	7	10000	3	1	0	3	0
173	706	7	10000	3	1	0	3	0
171	707	7	10000	3	1	0	3	0
168	708	7	10000	3	1	0	3	0
162	709	7	10000	3	1	0	3	0
159	710	7	10000	3	1	0	3	0
158	711	7	10000	3	1	0	3	0
158	712	7	10000	3	1	0	3	0
157	713	7	10000	3	1	0	3	0
155	714	7	10000	3	1	0	3	0
155	715	7	10000	3	1	0	3	0
156	716	7	10000	3	1	0	3	0
153	717	7	10000	3	1	0	3	0
152	718	7	10000	3	1	0	3	0
155	719	7	10000	3	1	0	3	0
152	720	7	10000	3	1	0	3	0
149	721	7	10000	3	1	0	3	0
146	722	7	10000	3	1	0	3	0
142	723	7	10000	3	1	0	3	0
144	724	7	10000	3	1	0	3	0
138	725	7	10000	3	1	0	3	0
134	726	7	10000	3	1	0	3	0
142	727	7	10000	3	1	0	3	0
136	728	7	10000	3	1	0	3	0
129	729	7	10000	3	1	0	3	0
133	730	7	10000	3	1	0	3	0
130	731	7	10000	3	1	0	3	0
127	732	7	10000	3	1	0	3	0
127	733	7	10000	3	1	0	3	0
125	734	7	10000	3	1	0	3	0
124	735	7	10000	3	1	0	3	0
123	736	7	10000	3	1	0	3	0
122	737	7	10000	3	1	0	3	0
121	738	7	10000	3	1	0	3	0
121	739	7	10000	3	1	0	3	0
125	740	7	10000	3	1	0	3	0
120	741	7	10000	3	1	0	3	0
117	742	7	10000	3	1	0	3	0
121	743	7	10000	3	1	0	3	0
118	744	7	10000	3	1	0	3	0
112	745	7	10000	3	1	0	3	0
117	746	7	10000	3	1	0	3	0
117	747	7	10000	3	1	0	3	0
113	748	7	10000	3	1	0	3	0
109	749	7	10000	3	1	0	3	0
116	750	7	10000	3	1	0	3	0
111	751	7	10000	3	1	0	3	0
107	752	7	10000	3	1	0	3	0
112	753	7	10000	3	1	0	3	0
108	754	7	10000	3	1	0	3	0
108	755	7	10000	3	1	0	3	0
111	756	7	10000	3	1	0	3	0
107	757	7	10000	3	1	0	3	0
106	758	7	10000	3	1	0	3	0
110	759	7	10000	3	1	0	3	0
109	760	7	10000	3	1	0	3	0
106	761	7	10000	3	1	0	3	0
104	762	7	10000	3	1	0	3	0
110	763	7	10000	3	1	0	3	0
105	764	7	10000	3	1	0	3	0
103	765	7	10000	3	1	0	3	0
112	766	7	10000	3	1	0	3	0
108	767	7	10000	3	1	0	3	0
104	768	7	10000	3	1	0	3	0
108	769	7	10000	3	1	0	3	0
107	770	7	10000	3	1	0	3	0
105	771	7	10000	3	1	0	3	0
107	772	7	10000	3	1	0	3	0
106	773	7	10000	3	1	0	3	0
106	774	7	10000	3	1	0	3	0
105	775	7	10000	3	1	0	3	0
106	776	7	10000	3	1	0	3	0
107	777	7	10000	3	1	0	3	0
107	778	7	10000	3	1	0	3	0
113	779	7	10000	3	1	0	3	0
110	780	7	10000	3	1	0	3	0
107	781	7	10000	3	1	0	3	0
109	782	7	10000	3	1	0	3	0
109	783	7	10000	3	1	0	3	0
104	784	7	10000	3	1	0	3	0
105	785	7	10000	3	1	0	3	0
108	786	7	10000	3	1	0	3	0
104	787	7	10000	3	1	0	3	0
101	788	7	10000	3	1	0	3	0
105	789	7	10000	3	1	0	3	0
104	790	7	10000	3	1	0	3	0
103	791	7	10000	3	1	0	3	0
105	792	7	10000	3	1	0	3	0
104	793	7	10000	3	1	0	3	0
104	794	7	10000	3	1	0	3	0
105	795	7	10000	3	1	0	3	0
104	796	7	10000	3	1	0	3	0
104	797	7	10000	3	1	0	3	0
103	798	7	10000	3	1	0	3	0
107	799	7	10000	3	1	0	3	0
106	800	7	10000	3	1	0	3	0
105	801	7	10000	3	1	0	3	0
108	802	7	10000	3	1	0	3	0
106	803	7	10000	3	1	0	3	0
104	804	7	10000	3	1	0	3	0
106	805	7	10000	3	1	0	3	0
105	806	7	10000	3	1	0	3	0
101	807	7	10000	3	1	0	3	0
101	808	7	10000	3	1	0	3	0
102	809	7	10000	3	1	0	3	0
100	810	7	10000	3	1	0	3	0
100	811	7	10000	3	1	0	3	0
104	812	7	10000	3	1	0	3	0
103	813	7	10000	3	1	0	3	0
105	814	7	10000	3	1	0	3	0
104	815	7	10000	3	1	0	3	0
104	816	7	10000	3	1	0	3	0
103	817	7	10000	3	1	0	3	0
104	818	7	10000	3	1	0	3	0
106	819	7	10000	3	1	0	3	0
105	820	7	10000	3	1	0	3	0
104	821	7	10000	3	1	0	3	0
107	822	7	10000	3	1	0	3	0
104	823	7	10000	3	1	0	3	0
101	824	7	10000	3	1	0	3	0
105	825	7	10000	3	1	0	3	0
103	826	7	10000	3	1	0	3	0
103	827	7	10000	3	1	0	3	0
105	828	7	10000	3	1	0	3	0
102	829	7	10000	3	1	0	3	0
100	830	7	10000	3	1	0	3	0
101	831	7	10000	3	1	0	3	0
103	832	7	10000	3	1	0	3	0
102	833	7	10000	3	1	0	3	0
102	834	7	10000	3	1	0	3	0
104	835	7	10000	3	1	0	3	0
104	836	7	10000	3	1	0	3	0
104	837	7	10000	3	1	0	3	0
105	838	7	10000	3	1	0	3	0
106	839	7	10000	3	1	0	3	0
105	840	7	10000	3	1	0	3	0
106	841	7	10000	3	1	0	3	0
104	842	7	10000	3	1	0	3	0
106	843	7	10000	3	1	0	3	0
106	844	7	10000	3	1	0	3	0
106	845	7	10000	3	1	0	3	0
104	846	7	10000	3	1	0	3	0
102	847	7	10000	3	1	0	3	0
107	848	7	10000	3	1	0	3	0
103	849	7	10000	3	1	0	3	0
101	850	7	10000	3	1	0	3	0
105	851	7	10000	3	1	0	3	0
104	852	7	10000	3	1	0	3	0
104	853	7	10000	3	1	0	3	0
104	854	7	10000	3	1	0	3	0
104	855	7	10000	3	1	0	3	0
106	856	7	10000	3	1	0	3	0
104	857	7	10000	3	1	0	3	0
104	858	7	10000	3	1	0	3	0
109	859	7	10000	3	1	0	3	0
109	860	7	10000	3	1	0	3	0
110	861	7	10000	3	1	0	3	0
107	862	7	10000	3	1	0	3	0
106	863	7	10000	3	1	0	3	0
108	864	7	10000	3	1	0	3	0
105	865	7	10000	3	1	0	3	0
103	866	7	10000	3	1	0	3	0
105	867	7	10000	3	1	0	3	0
106	868	7	10000	3	1	0	3	0
103	869	7	10000	3	1	0	3	0
102	870	7	10000	3	1	0	3	0
104	871	7	10000	3	1	0	3	0
105	872	7	10000	3	1	0	3	0
105	873	7	10000	3	1	0	3	0
106	874	7	10000	3	1	0	3	0
106	875	7	10000	3	1	0	3	0
107	876	7	10000	3	1	0	3	0
107	877	7	10000	3	1	0	3	0
106	878	7	10000	3	1	0	3	0
108	879	7	10000	3	1	0	3	0
107	880	7	10000	3	1	0	3	0
107	881	7	10000	3	1	0	3	0
107	882	7	10000	3	1	0	3	0
105	883	7	10000	3	1	0	3	0
107	884	7	10000	3	1	0	3	0
105	885	7	10000	3	1	0	3	0
102	886	7	10000	3	1	0	3	0
108	887	7	10000	3	1	0	3	0
106	888	7	10000	3	1	0	3	0
103	889	7	10000	3	1	0	3	0
105	890	7	10000	3	1	0	3	0
104	891	7	10000	3	1	0	3	0
104	892	7	10000	3	1	0	3	0
104	893	7	10000	3	1	0	3	0
104	894	7	10000	3	1	0	3	0
104	895	7	10000	3	1	0	3	0
102	896	7	10000	3	1	0	3	0
103	897	7	10000	3	1	0	3	0
104	898	7	10000	3	1	0	3	0
104	899	7	10000	3	1	0	3	0
107	900	7	10000	3	1	0	3	0
106	901	7	10000	3	1	0	3	0
105	902	7	10000	3	1	0	3	0
106	903	7	10000	3	1	0	3	0
105	904	7	10000	3	1	0	3	0
104	905	7	10000	3	1	0	3	0
105	906	7	10000	3	1	0	3	0
106	907	7	10000	3	1	0	3	0
104	908	7	10000	3	1	0	3	0
100	909	7	10000	3	1	0	3	0
104	910	7	10000	3	1	0	3	0
104	911	7	10000	3	1	0	3	0
102	912	7	10000	3	1	0	3	0
104	913	7	10000	3	1	0	3	0
103	914	7	10000	3	1	0	3	0
104	915	7	10000	3	1	0	3	0
105	916	7	10000	3	1	0	3	0
103	917	7	10000	3	1	0	3	0
103	918	7	10000	3	1	0	3	0
106	919	7	10000	3	1	0	3	0
105	920	7	10000	3	1	0	3	0
104	921	7	10000	3	1	0	3	0
104	922	7	10000	3	1	0	3	0
107	923	7	10000	3	1	0	3	0
103	924	7	10000	3	1	0	3	0
100	925	7	10000	3	1	0	3	0
104	926	7	10000	3	1	0	3	0
104	927	7	10000	3	1	0	3	0
103	928	7	10000	3	1	0	3	0
103	929	7	10000	3	1	0	3	0
103	930	7	10000	3	1	0	3	0
103	931	7	10000	3	1	0	3	0
104	932	7	10000	3	1	0	3	0
104	933	7	10000	3	1	0	3	0
105	934	7	10000	3	1	0	3	0
104	935	7	10000	3	1	0	3	0
105	936	7	10000	3	1	0	3	0
104	937	7	10000	3	1	0	3	0
103	938	7	10000	3	1	0	3	0
107	939	7	10000	3	1	0	3	0
107	940	7	10000	3	1	0	3	0
106	941	7	10000	3	1	0	3	0
107	942	7	10000	3	1	0	3	0
106	943	7	10000	3	1	0	3	0
104	944	7	10000	3	1	0	3	0
105	945	7	10000	3	1	0	3	0
104	946	7	10000	3	1	0	3	0
101	947	7	10000	3	1	0	3	0
99	948	7	10000	3	1	0	3	0
102	949	7	10000	3	1	0	3	0
101	950	7	10000	3	1	0	3	0
100	951	7	10000	3	1	0	3	0
103	952	7	10000	3	1	0	3	0
103	953	7	10000	3	1	0	3	0
103	954	7	10000	3	1	0	3	0
104	955	7	10000	3	1	0	3	0
103	956	7	10000	3	1	0	3	0
105	957	7	10000	3	1	0	3	0
105	958	7	10000	3	1	0	3	0
106	959	7	10000	3	1	0	3	0
107	960	7	10000	3	1	0	3	0
105	961	7	10000	3	1	0	3	0
108	962	7	10000	3	1	0	3	0
107	963	7	10000	3	1	0	3	0
105	964	7	10000	3	1	0	3	0
108	965	7	10000	3	1	0	3	0
108	966	7	10000	3	1	0	3	0
107	967	7	10000	3	1	0	3	0
109	968	7	10000	3	1	0	3	0
107	969	7	10000	3	1	0	3	0
106	970	7	10000	3	1	0	3	0
107	971	7	10000	3	1	0	3	0
106	972	7	10000	3	1	0	3	0
104	973	7	10000	3	1	0	3	0
103	974	7	10000	3	1	0	3	0
104	975	7	10000	3	1	0	3	0
103	976	7	10000	3	1	0	3	0
101	977	7	10000	3	1	0	3	0
103	978	7	10000	3	1	0	3	0
104	979	7	10000	3	1	0	3	0
105	980	7	10000	3	1	0	3	0
106	981	7	10000	3	1	0	3	0
106	982	7	10000	3	1	0	3	0
105	983	7	10000	3	1	0	3	0
107	984	7	10000	3	1	0	3	0
105	985	7	10000	3	1	0	3	0
104	986	7	10000	3	1	0	3	0
104	987	7	10000	3	1	0	3	0
106	988	7	10000	3	1	0	3	0
102	989	7	10000	3	1	0	3	0
99	990	7	10000	3	1	0	3	0
103	991	7	10000	3	1	0	3	0
101	992	7	10000	3	1	0	3	0
100	993	7	10000	3	1	0	3	0
103	994	7	10000	3	1	0	3	0
101	995	7	10000	3	1	0	3	0
100	996	7	10000	3	1	0	3	0
101	997	7	10000	3	1	0	3	0
99	998	7	10000	3	1	0	3	0
99	999	7	10000	3	1	0	3	0
100	1000	7	10000	3	1	0	3	0
105	1	0	10000	4	1	0	4	0
106	2	0	10000	4	1	0	4	0
105	3	0	10000	4	1	0	4	0
105	4	0	10000	4	1	0	4	0
104	5	0	10000	4	1	0	4	0
106	6	0	10000	4	1	0	4	0
107	7	0	10000	4	1	0	4	0
105	8	0	10000	4	1	0	4	0
108	9	0	10000	4	1	0	4	0
106	10	0	10000	4	1	0	4	0
105	11	0	10000	4	1	0	4	0
107	12	0	10000	4	1	0	4	0
105	13	0	10000	4	1	0	4	0
104	14	0	10000	4	1	0	4	0
106	15	0	10000	4	1	0	4	0
104	16	0	10000	4	1	0	4	0
103	17	0	10000	4	1	0	4	0
104	18	0	10000	4	1	0	4	0
104	19	0	10000	4	1	0	4	0
103	20	0	10000	4	1	0	4	0
101	21	0	10000	4	1	0	4	0
103	22	0	10000	4	1	0	4	0
104	23	0	10000	4	1	0	4	0
102	24	0	10000	4	1	0	4	0
104	25	0	10000	4	1	0	4	0
103	26	0	10000	4	1	0	4	0
104	27	0	10000	4	1	0	4	0
105	28	0	10000	4	1	0	4	0
104	29	0	10000	4	1	0	4	0
103	30	0	10000	4	1	0	4	0
104	31	0	10000	4	1	0	4	0
104	32	0	10000	4	1	0	4	0
104	33	0	10000	4	1	0	4	0
104	34	0	10000	4	1	0	4	0
105	35	0	10000	4	1	0	4	0
103	36	0	10000	4	1	0	4	0
99	37	0	10000	4	1	0	4	0
101	38	0	10000	4	1	0	4	0
102	39	0	10000	4	1	0	4	0
101	40	0	10000	4	1	0	4	0
103	41	0	10000	4	1	0	4	0
101	42	0	10000	4	1	0	4	0
100	43	0	10000	4	1	0	4	0
103	44	0	10000	4	1	0	4	0
101	45	0	10000	4	1	0	4	0
100	46	0	10000	4	1	0	4	0
104	47	0	10000	4	1	0	4	0
104	48	0	10000	4	1	0	4	0
103	49	0	10000	4	1	0	4	0
102	50	0	10000	4	1	0	4	0
104	51	0	10000	4	1	0	4	0
104	52	0	10000	4	1	0	4	0
104	53	0	10000	4	1	0	4	0
105	54	0	10000	4	1	0	4	0
106	55	0	10000	4	1	0	4	0
106	56	0	10000	4	1	0	4	0
107	57	0	10000	4	1	0	4	0
104	58	0	10000	4	1	0	4	0
100	59	0	10000	4	1	0	4	0
106	60	0	10000	4	1	0	4	0
107	61	0	10000	4	1	0	4	0
104	62	0	10000	4	1	0	4	0
110	63	0	10000	4	1	0	4	0
110	64	0	10000	4	1	0	4	0
106	65	0	10000	4	1	0	4	0
105	66	0	10000	4	1	0	4	0
114	67	0	10000	4	1	0	4	0
109	68	0	10000	4	1	0	4	0
104	69	0	10000	4	1	0	4	0
111	70	0	10000	4	1	0	4	0
107	71	0	10000	4	1	0	4	0
103	72	0	10000	4	1	0	4	0
110	73	0	10000	4	1	0	4	0
108	74	0	10000	4	1	0	4	0
105	75	0	10000	4	1	0	4	0
108	76	0	10000	4	1	0	4	0
106	77	0	10000	4	1	0	4	0
104	78	0	10000	4	1	0	4	0
102	79	0	10000	4	1	0	4	0
103	80	0	10000	4	1	0	4	0
101	81	0	10000	4	1	0	4	0
100	82	0	10000	4	1	0	4	0
102	83	0	10000	4	1	0	4	0
99	84	0	10000	4	1	0	4	0
98	85	0	10000	4	1	0	4	0
101	86	0	10000	4	1	0	4	0
101	87	0	10000	4	1	0	4	0
100	88	0	10000	4	1	0	4	0
104	89	0	10000	4	1	0	4	0
101	90	0	10000	4	1	0	4	0
97	91	0	10000	4	1	0	4	0
101	92	0	10000	4	1	0	4	0
100	93	0	10000	4	1	0	4	0
102	94	0	10000	4	1	0	4	0
101	95	0	10000	4	1	0	4	0
101	96	0	10000	4	1	0	4	0
102	97	0	10000	4	1	0	4	0
103	98	0	10000	4	1	0	4	0
105	99	0	10000	4	1	0	4	0
106	100	0	10000	4	1	0	4	0
108	101	0	10000	4	1	0	4	0
109	102	0	10000	4	1	0	4	0
109	103	0	10000	4	1	0	4	0
110	104	0	10000	4	1	0	4	0
111	105	0	10000	4	1	0	4	0
111	106	0	10000	4	1	0	4	0
117	107	0	10000	4	1	0	4	0
116	108	0	10000	4	1	0	4	0
116	109	0	10000	4	1	0	4	0
121	110	0	10000	4	1	0	4	0
123	111	0	10000	4	1	0	4	0
121	112	0	10000	4	1	0	4	0
126	113	0	10000	4	1	0	4	0
128	114	0	10000	4	1	0	4	0
127	115	0	10000	4	1	0	4	0
128	116	0	10000	4	1	0	4	0
127	117	0	10000	4	1	0	4	0
127	118	0	10000	4	1	0	4	0
127	119	0	10000	4	1	0	4	0
129	120	0	10000	4	1	0	4	0
128	121	0	10000	4	1	0	4	0
127	122	0	10000	4	1	0	4	0
128	123	0	10000	4	1	0	4	0
127	124	0	10000	4	1	0	4	0
125	125	0	10000	4	1	0	4	0
128	126	0	10000	4	1	0	4	0
129	127	0	10000	4	1	0	4	0
128	128	0	10000	4	1	0	4	0
128	129	0	10000	4	1	0	4	0
128	130	0	10000	4	1	0	4	0
128	131	0	10000	4	1	0	4	0
125	132	0	10000	4	1	0	4	0
125	133	0	10000	4	1	0	4	0
125	134	0	10000	4	1	0	4	0
124	135	0	10000	4	1	0	4	0
125	136	0	10000	4	1	0	4	0
121	137	0	10000	4	1	0	4	0
121	138	0	10000	4	1	0	4	0
121	139	0	10000	4	1	0	4	0
120	140	0	10000	4	1	0	4	0
121	141	0	10000	4	1	0	4	0
120	142	0	10000	4	1	0	4	0
120	143	0	10000	4	1	0	4	0
119	144	0	10000	4	1	0	4	0
118	145	0	10000	4	1	0	4	0
118	146	0	10000	4	1	0	4	0
121	147	0	10000	4	1	0	4	0
119	148	0	10000	4	1	0	4	0
120	149	0	10000	4	1	0	4	0
119	150	0	10000	4	1	0	4	0
118	151	0	10000	4	1	0	4	0
117	152	0	10000	4	1	0	4	0
116	153	0	10000	4	1	0	4	0
117	154	0	10000	4	1	0	4	0
116	155	0	10000	4	1	0	4	0
115	156	0	10000	4	1	0	4	0
115	157	0	10000	4	1	0	4	0
114	158	0	10000	4	1	0	4	0
113	159	0	10000	4	1	0	4	0
115	160	0	10000	4	1	0	4	0
111	161	0	10000	4	1	0	4	0
110	162	0	10000	4	1	0	4	0
112	163	0	10000	4	1	0	4	0
109	164	0	10000	4	1	0	4	0
109	165	0	10000	4	1	0	4	0
109	166	0	10000	4	1	0	4	0
111	167	0	10000	4	1	0	4	0
109	168	0	10000	4	1	0	4	0
108	169	0	10000	4	1	0	4	0
109	170	0	10000	4	1	0	4	0
107	171	0	10000	4	1	0	4	0
105	172	0	10000	4	1	0	4	0
107	173	0	10000	4	1	0	4	0
107	174	0	10000	4	1	0	4	0
106	175	0	10000	4	1	0	4	0
108	176	0	10000	4	1	0	4	0
104	177	0	10000	4	1	0	4	0
105	178	0	10000	4	1	0	4	0
105	179	0	10000	4	1	0	4	0
105	180	0	10000	4	1	0	4	0
105	181	0	10000	4	1	0	4	0
105	182	0	10000	4	1	0	4	0
106	183	0	10000	4	1	0	4	0
104	184	0	10000	4	1	0	4	0
102	185	0	10000	4	1	0	4	0
106	186	0	10000	4	1	0	4	0
106	187	0	10000	4	1	0	4	0
104	188	0	10000	4	1	0	4	0
106	189	0	10000	4	1	0	4	0
104	190	0	10000	4	1	0	4	0
105	191	0	10000	4	1	0	4	0
105	192	0	10000	4	1	0	4	0
104	193	0	10000	4	1	0	4	0
104	194	0	10000	4	1	0	4	0
104	195	0	10000	4	1	0	4	0
105	196	0	10000	4	1	0	4	0
102	197	0	10000	4	1	0	4	0
101	198	0	10000	4	1	0	4	0
104	199	0	10000	4	1	0	4	0
103	200	0	10000	4	1	0	4	0
100	201	0	10000	4	1	0	4	0
102	202	0	10000	4	1	0	4	0
103	203	0	10000	4	1	0	4	0
104	204	0	10000	4	1	0	4	0
104	205	0	10000	4	1	0	4	0
104	206	0	10000	4	1	0	4	0
104	207	0	10000	4	1	0	4	0
104	208	0	10000	4	1	0	4	0
105	209	0	10000	4	1	0	4	0
102	210	0	10000	4	1	0	4	0
102	211	0	10000	4	1	0	4	0
104	212	0	10000	4	1	0	4	0
102	213	0	10000	4	1	0	4	0
101	214	0	10000	4	1	0	4	0
104	215	0	10000	4	1	0	4	0
104	216	0	10000	4	1	0	4	0
102	217	0	10000	4	1	0	4	0
104	218	0	10000	4	1	0	4	0
103	219	0	10000	4	1	0	4	0
102	220	0	10000	4	1	0	4	0
102	221	0	10000	4	1	0	4	0
103	222	0	10000	4	1	0	4	0
102	223	0	10000	4	1	0	4	0
101	224	0	10000	4	1	0	4	0
103	225	0	10000	4	1	0	4	0
103	226	0	10000	4	1	0	4	0
104	227	0	10000	4	1	0	4	0
106	228	0	10000	4	1	0	4	0
105	229	0	10000	4	1	0	4	0
104	230	0	10000	4	1	0	4	0
105	231	0	10000	4	1	0	4	0
103	232	0	10000	4	1	0	4	0
103	233	0	10000	4	1	0	4	0
104	234	0	10000	4	1	0	4	0
105	235	0	10000	4	1	0	4	0
103	236	0	10000	4	1	0	4	0
99	237	0	10000	4	1	0	4	0
103	238	0	10000	4	1	0	4	0
101	239	0	10000	4	1	0	4	0
102	240	0	10000	4	1	0	4	0
104	241	0	10000	4	1	0	4	0
102	242	0	10000	4	1	0	4	0
101	243	0	10000	4	1	0	4	0
104	244	0	10000	4	1	0	4	0
101	245	0	10000	4	1	0	4	0
101	246	0	10000	4	1	0	4	0
104	247	0	10000	4	1	0	4	0
104	248	0	10000	4	1	0	4	0
102	249	0	10000	4	1	0	4	0
100	250	0	10000	4	1	0	4	0
102	251	0	10000	4	1	0	4	0
101	252	0	10000	4	1	0	4	0
100	253	0	10000	4	1	0	4	0
102	254	0	10000	4	1	0	4	0
102	255	0	10000	4	1	0	4	0
100	256	0	10000	4	1	0	4	0
101	257	0	10000	4	1	0	4	0
101	258	0	10000	4	1	0	4	0
100	259	0	10000	4	1	0	4	0
102	260	0	10000	4	1	0	4	0
101	261	0	10000	4	1	0	4	0
101	262	0	10000	4	1	0	4	0
100	263	0	10000	4	1	0	4	0
100	264	0	10000	4	1	0	4	0
100	265	0	10000	4	1	0	4	0
99	266	0	10000	4	1	0	4	0
103	267	0	10000	4	1	0	4	0
102	268	0	10000	4	1	0	4	0
101	269	0	10000	4	1	0	4	0
103	270	0	10000	4	1	0	4	0
101	271	0	10000	4	1	0	4	0
101	272	0	10000	4	1	0	4	0
102	273	0	10000	4	1	0	4	0
101	274	0	10000	4	1	0	4	0
103	275	0	10000	4	1	0	4	0
101	276	0	10000	4	1	0	4	0
100	277	0	10000	4	1	0	4	0
102	278	0	10000	4	1	0	4	0
100	279	0	10000	4	1	0	4	0
104	280	0	10000	4	1	0	4	0
102	281	0	10000	4	1	0	4	0
101	282	0	10000	4	1	0	4	0
104	283	0	10000	4	1	0	4	0
102	284	0	10000	4	1	0	4	0
102	285	0	10000	4	1	0	4	0
104	286	0	10000	4	1	0	4	0
105	287	0	10000	4	1	0	4	0
105	288	0	10000	4	1	0	4	0
104	289	0	10000	4	1	0	4	0
105	290	0	10000	4	1	0	4	0
104	291	0	10000	4	1	0	4	0
103	292	0	10000	4	1	0	4	0
105	293	0	10000	4	1	0	4	0
104	294	0	10000	4	1	0	4	0
104	295	0	10000	4	1	0	4	0
108	296	0	10000	4	1	0	4	0
104	297	0	10000	4	1	0	4	0
103	298	0	10000	4	1	0	4	0
105	299	0	10000	4	1	0	4	0
105	300	0	10000	4	1	0	4	0
107	301	0	10000	4	1	0	4	0
108	302	0	10000	4	1	0	4	0
107	303	0	10000	4	1	0	4	0
107	304	0	10000	4	1	0	4	0
106	305	0	10000	4	1	0	4	0
107	306	0	10000	4	1	0	4	0
109	307	0	10000	4	1	0	4	0
107	308	0	10000	4	1	0	4	0
112	309	0	10000	4	1	0	4	0
108	310	0	10000	4	1	0	4	0
105	311	0	10000	4	1	0	4	0
107	312	0	10000	4	1	0	4	0
106	313	0	10000	4	1	0	4	0
108	314	0	10000	4	1	0	4	0
110	315	0	10000	4	1	0	4	0
109	316	0	10000	4	1	0	4	0
108	317	0	10000	4	1	0	4	0
107	318	0	10000	4	1	0	4	0
109	319	0	10000	4	1	0	4	0
106	320	0	10000	4	1	0	4	0
104	321	0	10000	4	1	0	4	0
105	322	0	10000	4	1	0	4	0
105	323	0	10000	4	1	0	4	0
104	324	0	10000	4	1	0	4	0
106	325	0	10000	4	1	0	4	0
105	326	0	10000	4	1	0	4	0
107	327	0	10000	4	1	0	4	0
109	328	0	10000	4	1	0	4	0
107	329	0	10000	4	1	0	4	0
106	330	0	10000	4	1	0	4	0
105	331	0	10000	4	1	0	4	0
105	332	0	10000	4	1	0	4	0
104	333	0	10000	4	1	0	4	0
104	334	0	10000	4	1	0	4	0
105	335	0	10000	4	1	0	4	0
106	336	0	10000	4	1	0	4	0
104	337	0	10000	4	1	0	4	0
107	338	0	10000	4	1	0	4	0
104	339	0	10000	4	1	0	4	0
102	340	0	10000	4	1	0	4	0
105	341	0	10000	4	1	0	4	0
103	342	0	10000	4	1	0	4	0
102	343	0	10000	4	1	0	4	0
102	344	0	10000	4	1	0	4	0
101	345	0	10000	4	1	0	4	0
102	346	0	10000	4	1	0	4	0
104	347	0	10000	4	1	0	4	0
105	348	0	10000	4	1	0	4	0
104	349	0	10000	4	1	0	4	0
102	350	0	10000	4	1	0	4	0
104	351	0	10000	4	1	0	4	0
101	352	0	10000	4	1	0	4	0
98	353	0	10000	4	1	0	4	0
103	354	0	10000	4	1	0	4	0
103	355	0	10000	4	1	0	4	0
103	356	0	10000	4	1	0	4	0
103	357	0	10000	4	1	0	4	0
102	358	0	10000	4	1	0	4	0
103	359	0	10000	4	1	0	4	0
104	360	0	10000	4	1	0	4	0
103	361	0	10000	4	1	0	4	0
102	362	0	10000	4	1	0	4	0
102	363	0	10000	4	1	0	4	0
102	364	0	10000	4	1	0	4	0
102	365	0	10000	4	1	0	4	0
101	366	0	10000	4	1	0	4	0
105	367	0	10000	4	1	0	4	0
105	368	0	10000	4	1	0	4	0
104	369	0	10000	4	1	0	4	0
106	370	0	10000	4	1	0	4	0
104	371	0	10000	4	1	0	4	0
104	372	0	10000	4	1	0	4	0
105	373	0	10000	4	1	0	4	0
104	374	0	10000	4	1	0	4	0
105	375	0	10000	4	1	0	4	0
105	376	0	10000	4	1	0	4	0
104	377	0	10000	4	1	0	4	0
103	378	0	10000	4	1	0	4	0
103	379	0	10000	4	1	0	4	0
105	380	0	10000	4	1	0	4	0
104	381	0	10000	4	1	0	4	0
103	382	0	10000	4	1	0	4	0
105	383	0	10000	4	1	0	4	0
103	384	0	10000	4	1	0	4	0
100	385	0	10000	4	1	0	4	0
104	386	0	10000	4	1	0	4	0
104	387	0	10000	4	1	0	4	0
103	388	0	10000	4	1	0	4	0
104	389	0	10000	4	1	0	4	0
103	390	0	10000	4	1	0	4	0
104	391	0	10000	4	1	0	4	0
103	392	0	10000	4	1	0	4	0
102	393	0	10000	4	1	0	4	0
101	394	0	10000	4	1	0	4	0
100	395	0	10000	4	1	0	4	0
103	396	0	10000	4	1	0	4	0
101	397	0	10000	4	1	0	4	0
100	398	0	10000	4	1	0	4	0
103	399	0	10000	4	1	0	4	0
102	400	0	10000	4	1	0	4	0
103	401	0	10000	4	1	0	4	0
104	402	0	10000	4	1	0	4	0
104	403	0	10000	4	1	0	4	0
105	404	0	10000	4	1	0	4	0
105	405	0	10000	4	1	0	4	0
105	406	0	10000	4	1	0	4	0
106	407	0	10000	4	1	0	4	0
105	408	0	10000	4	1	0	4	0
107	409	0	10000	4	1	0	4	0
105	410	0	10000	4	1	0	4	0
104	411	0	10000	4	1	0	4	0
106	412	0	10000	4	1	0	4	0
104	413	0	10000	4	1	0	4	0
104	414	0	10000	4	1	0	4	0
106	415	0	10000	4	1	0	4	0
105	416	0	10000	4	1	0	4	0
102	417	0	10000	4	1	0	4	0
105	418	0	10000	4	1	0	4	0
104	419	0	10000	4	1	0	4	0
104	420	0	10000	4	1	0	4	0
104	421	0	10000	4	1	0	4	0
105	422	0	10000	4	1	0	4	0
106	423	0	10000	4	1	0	4	0
105	424	0	10000	4	1	0	4	0
106	425	0	10000	4	1	0	4	0
106	426	0	10000	4	1	0	4	0
107	427	0	10000	4	1	0	4	0
110	428	0	10000	4	1	0	4	0
107	429	0	10000	4	1	0	4	0
104	430	0	10000	4	1	0	4	0
106	431	0	10000	4	1	0	4	0
104	432	0	10000	4	1	0	4	0
103	433	0	10000	4	1	0	4	0
105	434	0	10000	4	1	0	4	0
105	435	0	10000	4	1	0	4	0
106	436	0	10000	4	1	0	4	0
103	437	0	10000	4	1	0	4	0
105	438	0	10000	4	1	0	4	0
104	439	0	10000	4	1	0	4	0
103	440	0	10000	4	1	0	4	0
105	441	0	10000	4	1	0	4	0
103	442	0	10000	4	1	0	4	0
103	443	0	10000	4	1	0	4	0
104	444	0	10000	4	1	0	4	0
102	445	0	10000	4	1	0	4	0
102	446	0	10000	4	1	0	4	0
105	447	0	10000	4	1	0	4	0
104	448	0	10000	4	1	0	4	0
103	449	0	10000	4	1	0	4	0
102	450	0	10000	4	1	0	4	0
103	451	0	10000	4	1	0	4	0
103	452	0	10000	4	1	0	4	0
102	453	0	10000	4	1	0	4	0
104	454	0	10000	4	1	0	4	0
104	455	0	10000	4	1	0	4	0
105	456	0	10000	4	1	0	4	0
105	457	0	10000	4	1	0	4	0
104	458	0	10000	4	1	0	4	0
104	459	0	10000	4	1	0	4	0
106	460	0	10000	4	1	0	4	0
104	461	0	10000	4	1	0	4	0
104	462	0	10000	4	1	0	4	0
105	463	0	10000	4	1	0	4	0
103	464	0	10000	4	1	0	4	0
101	465	0	10000	4	1	0	4	0
102	466	0	10000	4	1	0	4	0
105	467	0	10000	4	1	0	4	0
104	468	0	10000	4	1	0	4	0
102	469	0	10000	4	1	0	4	0
104	470	0	10000	4	1	0	4	0
102	471	0	10000	4	1	0	4	0
102	472	0	10000	4	1	0	4	0
102	473	0	10000	4	1	0	4	0
102	474	0	10000	4	1	0	4	0
102	475	0	10000	4	1	0	4	0
104	476	0	10000	4	1	0	4	0
101	477	0	10000	4	1	0	4	0
102	478	0	10000	4	1	0	4	0
102	479	0	10000	4	1	0	4	0
102	480	0	10000	4	1	0	4	0
102	481	0	10000	4	1	0	4	0
102	482	0	10000	4	1	0	4	0
102	483	0	10000	4	1	0	4	0
101	484	0	10000	4	1	0	4	0
101	485	0	10000	4	1	0	4	0
103	486	0	10000	4	1	0	4	0
104	487	0	10000	4	1	0	4	0
102	488	0	10000	4	1	0	4	0
104	489	0	10000	4	1	0	4	0
103	490	0	10000	4	1	0	4	0
102	491	0	10000	4	1	0	4	0
106	492	0	10000	4	1	0	4	0
104	493	0	10000	4	1	0	4	0
104	494	0	10000	4	1	0	4	0
106	495	0	10000	4	1	0	4	0
105	496	0	10000	4	1	0	4	0
104	497	0	10000	4	1	0	4	0
104	498	0	10000	4	1	0	4	0
105	499	0	10000	4	1	0	4	0
105	500	0	10000	4	1	0	4	0
105	501	0	10000	4	1	0	4	1
108	502	0	10000	4	1	0	4	1
105	503	0	10000	4	1	0	4	1
103	504	0	10000	4	1	0	4	1
107	505	0	10000	4	1	0	4	1
104	506	0	10000	4	1	0	4	1
104	507	0	10000	4	1	0	4	1
107	508	0	10000	4	1	0	4	1
104	509	0	10000	4	1	0	4	1
103	510	0	10000	4	1	0	4	1
105	511	0	10000	4	1	0	4	1
103	512	0	10000	4	1	0	4	1
104	513	0	10000	4	1	0	4	1
105	514	0	10000	4	1	0	4	1
106	515	0	10000	4	1	0	4	1
106	516	0	10000	4	1	0	4	1
103	517	0	10000	4	1	0	4	1
105	518	0	10000	4	1	0	4	1
104	519	0	10000	4	1	0	4	1
103	520	0	10000	4	1	0	4	1
106	521	0	10000	4	1	0	4	1
104	522	0	10000	4	1	0	4	1
104	523	0	10000	4	1	0	4	1
106	524	0	10000	4	1	0	4	1
104	525	0	10000	4	1	0	4	1
103	526	0	10000	4	1	0	4	1
107	527	0	10000	4	1	0	4	1
105	528	0	10000	4	1	0	4	1
105	529	0	10000	4	1	0	4	1
104	530	0	10000	4	1	0	4	1
105	531	0	10000	4	1	0	4	1
105	532	0	10000	4	1	0	4	1
105	533	0	10000	4	1	0	4	1
107	534	0	10000	4	1	0	4	1
105	535	0	10000	4	1	0	4	1
105	536	0	10000	4	1	0	4	1
106	537	0	10000	4	1	0	4	1
105	538	0	10000	4	1	0	4	1
105	539	0	10000	4	1	0	4	1
108	540	0	10000	4	1	0	4	1
106	541	0	10000	4	1	0	4	1
106	542	0	10000	4	1	0	4	1
108	543	0	10000	4	1	0	4	1
107	544	0	10000	4	1	0	4	1
106	545	0	10000	4	1	0	4	1
107	546	0	10000	4	1	0	4	1
110	547	0	10000	4	1	0	4	1
107	548	0	10000	4	1	0	4	1
104	549	0	10000	4	1	0	4	1
106	550	0	10000	4	1	0	4	1
105	551	0	10000	4	1	0	4	0
103	552	0	10000	4	1	0	4	0
107	553	0	10000	4	1	0	4	0
105	554	0	10000	4	1	0	4	0
104	555	0	10000	4	1	0	4	0
107	556	0	10000	4	1	0	4	0
104	557	0	10000	4	1	0	4	0
104	558	0	10000	4	1	0	4	0
104	559	0	10000	4	1	0	4	0
105	560	0	10000	4	1	0	4	0
104	561	0	10000	4	1	0	4	0
104	562	0	10000	4	1	0	4	0
105	563	0	10000	4	1	0	4	0
103	564	0	10000	4	1	0	4	0
101	565	0	10000	4	1	0	4	0
105	566	0	10000	4	1	0	4	0
104	567	0	10000	4	1	0	4	0
103	568	0	10000	4	1	0	4	0
104	569	0	10000	4	1	0	4	0
103	570	0	10000	4	1	0	4	0
103	571	0	10000	4	1	0	4	0
103	572	0	10000	4	1	0	4	0
102	573	0	10000	4	1	0	4	0
102	574	0	10000	4	1	0	4	0
102	575	0	10000	4	1	0	4	0
103	576	0	10000	4	1	0	4	0
101	577	0	10000	4	1	0	4	0
100	578	0	10000	4	1	0	4	0
105	579	0	10000	4	1	0	4	0
103	580	0	10000	4	1	0	4	0
101	581	0	10000	4	1	0	4	0
105	582	0	10000	4	1	0	4	0
103	583	0	10000	4	1	0	4	0
103	584	0	10000	4	1	0	4	0
104	585	0	10000	4	1	0	4	0
103	586	0	10000	4	1	0	4	0
104	587	0	10000	4	1	0	4	0
106	588	0	10000	4	1	0	4	0
109	589	0	10000	4	1	0	4	0
106	590	0	10000	4	1	0	4	0
107	591	0	10000	4	1	0	4	0
107	592	0	10000	4	1	0	4	0
104	593	0	10000	4	1	0	4	0
104	594	0	10000	4	1	0	4	0
107	595	0	10000	4	1	0	4	0
109	596	0	10000	4	1	0	4	0
106	597	0	10000	4	1	0	4	0
122	598	0	10000	4	1	0	4	0
140	599	0	10000	4	1	0	4	0
154	600	0	10000	4	1	0	4	0
192	601	0	10000	4	1	0	4	0
218	602	0	10000	4	1	0	4	0
217	603	0	10000	4	1	0	4	0
227	604	0	10000	4	1	0	4	0
238	605	0	10000	4	1	0	4	0
231	606	0	10000	4	1	0	4	0
227	607	0	10000	4	1	0	4	0
238	608	0	10000	4	1	0	4	0
249	609	0	10000	4	1	0	4	0
254	610	0	10000	4	1	0	4	0
304	611	0	10000	4	1	0	4	0
318	612	0	10000	4	1	0	4	0
340	613	0	10000	4	1	0	4	0
352	614	0	10000	4	1	0	4	0
348	615	0	10000	4	1	0	4	0
352	616	0	10000	4	1	0	4	0
353	617	0	10000	4	1	0	4	0
348	618	0	10000	4	1	0	4	0
354	619	0	10000	4	1	0	4	0
355	620	0	10000	4	1	0	4	0
340	621	0	10000	4	1	0	4	0
325	622	0	10000	4	1	0	4	0
316	623	0	10000	4	1	0	4	0
319	624	0	10000	4	1	0	4	0
311	625	0	10000	4	1	0	4	0
304	626	0	10000	4	1	0	4	0
311	627	0	10000	4	1	0	4	0
308	628	0	10000	4	1	0	4	0
304	629	0	10000	4	1	0	4	0
300	630	0	10000	4	1	0	4	0
290	631	0	10000	4	1	0	4	0
276	632	0	10000	4	1	0	4	0
273	633	0	10000	4	1	0	4	0
270	634	0	10000	4	1	0	4	0
260	635	0	10000	4	1	0	4	0
252	636	0	10000	4	1	0	4	0
251	637	0	10000	4	1	0	4	0
240	638	0	10000	4	1	0	4	0
232	639	0	10000	4	1	0	4	0
229	640	0	10000	4	1	0	4	0
222	641	0	10000	4	1	0	4	0
216	642	0	10000	4	1	0	4	0
213	643	0	10000	4	1	0	4	0
207	644	0	10000	4	1	0	4	0
203	645	0	10000	4	1	0	4	0
199	646	0	10000	4	1	0	4	0
197	647	0	10000	4	1	0	4	0
197	648	0	10000	4	1	0	4	0
193	649	0	10000	4	1	0	4	0
189	650	0	10000	4	1	0	4	0
189	651	0	10000	4	1	0	4	0
188	652	0	10000	4	1	0	4	0
183	653	0	10000	4	1	0	4	0
183	654	0	10000	4	1	0	4	0
182	655	0	10000	4	1	0	4	0
179	656	0	10000	4	1	0	4	0
176	657	0	10000	4	1	0	4	0
179	658	0	10000	4	1	0	4	0
175	659	0	10000	4	1	0	4	0
178	660	0	10000	4	1	0	4	0
184	661	0	10000	4	1	0	4	0
181	662	0	10000	4	1	0	4	0
181	663	0	10000	4	1	0	4	0
185	664	0	10000	4	1	0	4	0
184	665	0	10000	4	1	0	4	0
183	666	0	10000	4	1	0	4	0
191	667	0	10000	4	1	0	4	0
198	668	0	10000	4	1	0	4	0
192	669	0	10000	4	1	0	4	0
196	670	0	10000	4	1	0	4	0
200	671	0	10000	4	1	0	4	0
194	672	0	10000	4	1	0	4	0
194	673	0	10000	4	1	0	4	0
196	674	0	10000	4	1	0	4	0
192	675	0	10000	4	1	0	4	0
189	676	0	10000	4	1	0	4	0
185	677	0	10000	4	1	0	4	0
182	678	0	10000	4	1	0	4	0
179	679	0	10000	4	1	0	4	0
177	680	0	10000	4	1	0	4	0
174	681	0	10000	4	1	0	4	0
171	682	0	10000	4	1	0	4	0
171	683	0	10000	4	1	0	4	0
170	684	0	10000	4	1	0	4	0
165	685	0	10000	4	1	0	4	0
164	686	0	10000	4	1	0	4	0
165	687	0	10000	4	1	0	4	0
164	688	0	10000	4	1	0	4	0
159	689	0	10000	4	1	0	4	0
156	690	0	10000	4	1	0	4	0
154	691	0	10000	4	1	0	4	0
152	692	0	10000	4	1	0	4	0
147	693	0	10000	4	1	0	4	0
145	694	0	10000	4	1	0	4	0
144	695	0	10000	4	1	0	4	0
144	696	0	10000	4	1	0	4	0
139	697	0	10000	4	1	0	4	0
140	698	0	10000	4	1	0	4	0
137	699	0	10000	4	1	0	4	0
134	700	0	10000	4	1	0	4	0
137	701	0	10000	4	1	0	4	0
133	702	0	10000	4	1	0	4	0
130	703	0	10000	4	1	0	4	0
130	704	0	10000	4	1	0	4	0
127	705	0	10000	4	1	0	4	0
123	706	0	10000	4	1	0	4	0
126	707	0	10000	4	1	0	4	0
127	708	0	10000	4	1	0	4	0
121	709	0	10000	4	1	0	4	0
118	710	0	10000	4	1	0	4	0
123	711	0	10000	4	1	0	4	0
119	712	0	10000	4	1	0	4	0
115	713	0	10000	4	1	0	4	0
119	714	0	10000	4	1	0	4	0
116	715	0	10000	4	1	0	4	0
112	716	0	10000	4	1	0	4	0
114	717	0	10000	4	1	0	4	0
113	718	0	10000	4	1	0	4	0
107	719	0	10000	4	1	0	4	0
111	720	0	10000	4	1	0	4	0
112	721	0	10000	4	1	0	4	0
108	722	0	10000	4	1	0	4	0
108	723	0	10000	4	1	0	4	0
108	724	0	10000	4	1	0	4	0
106	725	0	10000	4	1	0	4	0
104	726	0	10000	4	1	0	4	0
109	727	0	10000	4	1	0	4	0
107	728	0	10000	4	1	0	4	0
103	729	0	10000	4	1	0	4	0
109	730	0	10000	4	1	0	4	0
106	731	0	10000	4	1	0	4	0
102	732	0	10000	4	1	0	4	0
107	733	0	10000	4	1	0	4	0
106	734	0	10000	4	1	0	4	0
104	735	0	10000	4	1	0	4	0
105	736	0	10000	4	1	0	4	0
103	737	0	10000	4	1	0	4	0
101	738	0	10000	4	1	0	4	0
100	739	0	10000	4	1	0	4	0
104	740	0	10000	4	1	0	4	0
101	741	0	10000	4	1	0	4	0
99	742	0	10000	4	1	0	4	0
104	743	0	10000	4	1	0	4	0
99	744	0	10000	4	1	0	4	0
96	745	0	10000	4	1	0	4	0
102	746	0	10000	4	1	0	4	0
103	747	0	10000	4	1	0	4	0
101	748	0	10000	4	1	0	4	0
103	749	0	10000	4	1	0	4	0
102	750	0	10000	4	1	0	4	0
99	751	0	10000	4	1	0	4	0
100	752	0	10000	4	1	0	4	0
100	753	0	10000	4	1	0	4	0
97	754	0	10000	4	1	0	4	0
96	755	0	10000	4	1	0	4	0
101	756	0	10000	4	1	0	4	0
97	757	0	10000	4	1	0	4	0
97	758	0	10000	4	1	0	4	0
100	759	0	10000	4	1	0	4	0
99	760	0	10000	4	1	0	4	0
96	761	0	10000	4	1	0	4	0
101	762	0	10000	4	1	0	4	0
99	763	0	10000	4	1	0	4	0
96	764	0	10000	4	1	0	4	0
98	765	0	10000	4	1	0	4	0
97	766	0	10000	4	1	0	4	0
99	767	0	10000	4	1	0	4	0
99	768	0	10000	4	1	0	4	0
100	769	0	10000	4	1	0	4	0
99	770	0	10000	4	1	0	4	0
98	771	0	10000	4	1	0	4	0
102	772	0	10000	4	1	0	4	0
98	773	0	10000	4	1	0	4	0
96	774	0	10000	4	1	0	4	0
102	775	0	10000	4	1	0	4	0
101	776	0	10000	4	1	0	4	0
97	777	0	10000	4	1	0	4	0
99	778	0	10000	4	1	0	4	0
99	779	0	10000	4	1	0	4	0
100	780	0	10000	4	1	0	4	0
100	781	0	10000	4	1	0	4	0
101	782	0	10000	4	1	0	4	0
102	783	0	10000	4	1	0	4	0
101	784	0	10000	4	1	0	4	0
102	785	0	10000	4	1	0	4	0
101	786	0	10000	4	1	0	4	0
102	787	0	10000	4	1	0	4	0
105	788	0	10000	4	1	0	4	0
103	789	0	10000	4	1	0	4	0
100	790	0	10000	4	1	0	4	0
104	791	0	10000	4	1	0	4	0
101	792	0	10000	4	1	0	4	0
99	793	0	10000	4	1	0	4	0
101	794	0	10000	4	1	0	4	0
101	795	0	10000	4	1	0	4	0
101	796	0	10000	4	1	0	4	0
98	797	0	10000	4	1	0	4	0
100	798	0	10000	4	1	0	4	0
99	799	0	10000	4	1	0	4	0
98	800	0	10000	4	1	0	4	0
102	801	0	10000	4	1	0	4	0
100	802	0	10000	4	1	0	4	0
98	803	0	10000	4	1	0	4	0
101	804	0	10000	4	1	0	4	0
101	805	0	10000	4	1	0	4	0
99	806	0	10000	4	1	0	4	0
103	807	0	10000	4	1	0	4	0
102	808	0	10000	4	1	0	4	0
102	809	0	10000	4	1	0	4	0
102	810	0	10000	4	1	0	4	0
102	811	0	10000	4	1	0	4	0
100	812	0	10000	4	1	0	4	0
99	813	0	10000	4	1	0	4	0
101	814	0	10000	4	1	0	4	0
101	815	0	10000	4	1	0	4	0
100	816	0	10000	4	1	0	4	0
102	817	0	10000	4	1	0	4	0
102	818	0	10000	4	1	0	4	0
100	819	0	10000	4	1	0	4	0
103	820	0	10000	4	1	0	4	0
101	821	0	10000	4	1	0	4	0
100	822	0	10000	4	1	0	4	0
102	823	0	10000	4	1	0	4	0
100	824	0	10000	4	1	0	4	0
100	825	0	10000	4	1	0	4	0
101	826	0	10000	4	1	0	4	0
104	827	0	10000	4	1	0	4	0
104	828	0	10000	4	1	0	4	0
103	829	0	10000	4	1	0	4	0
106	830	0	10000	4	1	0	4	0
104	831	0	10000	4	1	0	4	0
102	832	0	10000	4	1	0	4	0
103	833	0	10000	4	1	0	4	0
103	834	0	10000	4	1	0	4	0
102	835	0	10000	4	1	0	4	0
104	836	0	10000	4	1	0	4	0
101	837	0	10000	4	1	0	4	0
101	838	0	10000	4	1	0	4	0
101	839	0	10000	4	1	0	4	0
102	840	0	10000	4	1	0	4	0
101	841	0	10000	4	1	0	4	0
100	842	0	10000	4	1	0	4	0
102	843	0	10000	4	1	0	4	0
101	844	0	10000	4	1	0	4	0
99	845	0	10000	4	1	0	4	0
101	846	0	10000	4	1	0	4	0
103	847	0	10000	4	1	0	4	0
102	848	0	10000	4	1	0	4	0
104	849	0	10000	4	1	0	4	0
102	850	0	10000	4	1	0	4	0
102	851	0	10000	4	1	0	4	0
104	852	0	10000	4	1	0	4	0
102	853	0	10000	4	1	0	4	0
103	854	0	10000	4	1	0	4	0
104	855	0	10000	4	1	0	4	0
105	856	0	10000	4	1	0	4	0
103	857	0	10000	4	1	0	4	0
102	858	0	10000	4	1	0	4	0
105	859	0	10000	4	1	0	4	0
105	860	0	10000	4	1	0	4	0
104	861	0	10000	4	1	0	4	0
105	862	0	10000	4	1	0	4	0
104	863	0	10000	4	1	0	4	0
104	864	0	10000	4	1	0	4	0
105	865	0	10000	4	1	0	4	0
105	866	0	10000	4	1	0	4	0
108	867	0	10000	4	1	0	4	0
107	868	0	10000	4	1	0	4	0
107	869	0	10000	4	1	0	4	0
107	870	0	10000	4	1	0	4	0
106	871	0	10000	4	1	0	4	0
107	872	0	10000	4	1	0	4	0
105	873	0	10000	4	1	0	4	0
103	874	0	10000	4	1	0	4	0
108	875	0	10000	4	1	0	4	0
107	876	0	10000	4	1	0	4	0
105	877	0	10000	4	1	0	4	0
107	878	0	10000	4	1	0	4	0
105	879	0	10000	4	1	0	4	0
106	880	0	10000	4	1	0	4	0
108	881	0	10000	4	1	0	4	0
106	882	0	10000	4	1	0	4	0
105	883	0	10000	4	1	0	4	0
106	884	0	10000	4	1	0	4	0
105	885	0	10000	4	1	0	4	0
104	886	0	10000	4	1	0	4	0
104	887	0	10000	4	1	0	4	0
106	888	0	10000	4	1	0	4	0
106	889	0	10000	4	1	0	4	0
105	890	0	10000	4	1	0	4	0
107	891	0	10000	4	1	0	4	0
105	892	0	10000	4	1	0	4	0
104	893	0	10000	4	1	0	4	0
107	894	0	10000	4	1	0	4	0
106	895	0	10000	4	1	0	4	0
107	896	0	10000	4	1	0	4	0
106	897	0	10000	4	1	0	4	0
106	898	0	10000	4	1	0	4	0
105	899	0	10000	4	1	0	4	0
105	900	0	10000	4	1	0	4	0
105	901	0	10000	4	1	0	4	0
106	902	0	10000	4	1	0	4	0
106	903	0	10000	4	1	0	4	0
106	904	0	10000	4	1	0	4	0
104	905	0	10000	4	1	0	4	0
102	906	0	10000	4	1	0	4	0
107	907	0	10000	4	1	0	4	0
106	908	0	10000	4	1	0	4	0
105	909	0	10000	4	1	0	4	0
105	910	0	10000	4	1	0	4	0
104	911	0	10000	4	1	0	4	0
105	912	0	10000	4	1	0	4	0
105	913	0	10000	4	1	0	4	0
105	914	0	10000	4	1	0	4	0
105	915	0	10000	4	1	0	4	0
104	916	0	10000	4	1	0	4	0
104	917	0	10000	4	1	0	4	0
104	918	0	10000	4	1	0	4	0
102	919	0	10000	4	1	0	4	0
105	920	0	10000	4	1	0	4	0
104	921	0	10000	4	1	0	4	0
104	922	0	10000	4	1	0	4	0
106	923	0	10000	4	1	0	4	0
104	924	0	10000	4	1	0	4	0
104	925	0	10000	4	1	0	4	0
106	926	0	10000	4	1	0	4	0
107	927	0	10000	4	1	0	4	0
106	928	0	10000	4	1	0	4	0
105	929	0	10000	4	1	0	4	0
106	930	0	10000	4	1	0	4	0
104	931	0	10000	4	1	0	4	0
102	932	0	10000	4	1	0	4	0
105	933	0	10000	4	1	0	4	0
103	934	0	10000	4	1	0	4	0
102	935	0	10000	4	1	0	4	0
107	936	0	10000	4	1	0	4	0
102	937	0	10000	4	1	0	4	0
102	938	0	10000	4	1	0	4	0
104	939	0	10000	4	1	0	4	0
103	940	0	10000	4	1	0	4	0
104	941	0	10000	4	1	0	4	0
104	942	0	10000	4	1	0	4	0
104	943	0	10000	4	1	0	4	0
104	944	0	10000	4	1	0	4	0
103	945	0	10000	4	1	0	4	0
103	946	0	10000	4	1	0	4	0
105	947	0	10000	4	1	0	4	0
104	948	0	10000	4	1	0	4	0
106	949	0	10000	4	1	0	4	0
105	950	0	10000	4	1	0	4	0
105	951	0	10000	4	1	0	4	0
106	952	0	10000	4	1	0	4	0
104	953	0	10000	4	1	0	4	0
104	954	0	10000	4	1	0	4	0
104	955	0	10000	4	1	0	4	0
106	956	0	10000	4	1	0	4	0
110	957	0	10000	4	1	0	4	0
112	958	0	10000	4	1	0	4	0
111	959	0	10000	4	1	0	4	0
113	960	0	10000	4	1	0	4	0
112	961	0	10000	4	1	0	4	0
113	962	0	10000	4	1	0	4	0
111	963	0	10000	4	1	0	4	0
108	964	0	10000	4	1	0	4	0
111	965	0	10000	4	1	0	4	0
109	966	0	10000	4	1	0	4	0
109	967	0	10000	4	1	0	4	0
109	968	0	10000	4	1	0	4	0
110	969	0	10000	4	1	0	4	0
115	970	0	10000	4	1	0	4	0
115	971	0	10000	4	1	0	4	0
115	972	0	10000	4	1	0	4	0
119	973	0	10000	4	1	0	4	0
121	974	0	10000	4	1	0	4	0
120	975	0	10000	4	1	0	4	0
124	976	0	10000	4	1	0	4	0
127	977	0	10000	4	1	0	4	0
123	978	0	10000	4	1	0	4	0
129	979	0	10000	4	1	0	4	0
135	980	0	10000	4	1	0	4	0
132	981	0	10000	4	1	0	4	0
136	982	0	10000	4	1	0	4	0
143	983	0	10000	4	1	0	4	0
140	984	0	10000	4	1	0	4	0
143	985	0	10000	4	1	0	4	0
151	986	0	10000	4	1	0	4	0
154	987	0	10000	4	1	0	4	0
152	988	0	10000	4	1	0	4	0
158	989	0	10000	4	1	0	4	0
164	990	0	10000	4	1	0	4	0
159	991	0	10000	4	1	0	4	0
160	992	0	10000	4	1	0	4	0
160	993	0	10000	4	1	0	4	0
157	994	0	10000	4	1	0	4	0
157	995	0	10000	4	1	0	4	0
157	996	0	10000	4	1	0	4	0
153	997	0	10000	4	1	0	4	0
151	998	0	10000	4	1	0	4	0
150	999	0	10000	4	1	0	4	0
147	1000	0	10000	4	1	0	4	0
102	2	0	10000	5	1	0	5	0
102	3	0	10000	5	1	0	5	0
106	4	0	10000	5	1	0	5	0
104	5	0	10000	5	1	0	5	0
102	6	0	10000	5	1	0	5	0
105	7	0	10000	5	1	0	5	0
104	8	0	10000	5	1	0	5	0
103	9	0	10000	5	1	0	5	0
104	10	0	10000	5	1	0	5	0
104	11	0	10000	5	1	0	5	0
104	12	0	10000	5	1	0	5	0
104	13	0	10000	5	1	0	5	0
102	14	0	10000	5	1	0	5	0
100	15	0	10000	5	1	0	5	0
101	16	0	10000	5	1	0	5	0
102	17	0	10000	5	1	0	5	0
99	18	0	10000	5	1	0	5	0
98	19	0	10000	5	1	0	5	0
100	20	0	10000	5	1	0	5	0
99	21	0	10000	5	1	0	5	0
97	22	0	10000	5	1	0	5	0
102	23	0	10000	5	1	0	5	0
102	24	0	10000	5	1	0	5	0
101	25	0	10000	5	1	0	5	0
103	26	0	10000	5	1	0	5	0
100	27	0	10000	5	1	0	5	0
100	28	0	10000	5	1	0	5	0
102	29	0	10000	5	1	0	5	0
100	30	0	10000	5	1	0	5	0
101	31	0	10000	5	1	0	5	0
101	32	0	10000	5	1	0	5	0
101	33	0	10000	5	1	0	5	0
100	34	0	10000	5	1	0	5	0
100	35	0	10000	5	1	0	5	0
101	36	0	10000	5	1	0	5	0
101	37	0	10000	5	1	0	5	0
99	38	0	10000	5	1	0	5	0
102	39	0	10000	5	1	0	5	0
101	40	0	10000	5	1	0	5	0
101	41	0	10000	5	1	0	5	0
103	42	0	10000	5	1	0	5	0
102	43	0	10000	5	1	0	5	0
104	44	0	10000	5	1	0	5	0
105	45	0	10000	5	1	0	5	0
104	46	0	10000	5	1	0	5	0
104	47	0	10000	5	1	0	5	0
104	48	0	10000	5	1	0	5	0
105	49	0	10000	5	1	0	5	0
105	50	0	10000	5	1	0	5	0
104	51	0	10000	5	1	0	5	0
107	52	0	10000	5	1	0	5	0
107	53	0	10000	5	1	0	5	0
104	54	0	10000	5	1	0	5	0
109	55	0	10000	5	1	0	5	0
106	56	0	10000	5	1	0	5	0
106	57	0	10000	5	1	0	5	0
107	58	0	10000	5	1	0	5	0
105	59	0	10000	5	1	0	5	0
104	60	0	10000	5	1	0	5	0
106	61	0	10000	5	1	0	5	0
104	62	0	10000	5	1	0	5	0
103	63	0	10000	5	1	0	5	0
104	64	0	10000	5	1	0	5	0
105	65	0	10000	5	1	0	5	0
104	66	0	10000	5	1	0	5	0
101	67	0	10000	5	1	0	5	0
105	68	0	10000	5	1	0	5	0
104	69	0	10000	5	1	0	5	0
103	70	0	10000	5	1	0	5	0
107	71	0	10000	5	1	0	5	0
105	72	0	10000	5	1	0	5	0
104	73	0	10000	5	1	0	5	0
104	74	0	10000	5	1	0	5	0
102	75	0	10000	5	1	0	5	0
101	76	0	10000	5	1	0	5	0
101	77	0	10000	5	1	0	5	0
101	78	0	10000	5	1	0	5	0
100	79	0	10000	5	1	0	5	0
100	80	0	10000	5	1	0	5	0
101	81	0	10000	5	1	0	5	0
99	82	0	10000	5	1	0	5	0
99	83	0	10000	5	1	0	5	0
103	84	0	10000	5	1	0	5	0
102	85	0	10000	5	1	0	5	0
102	86	0	10000	5	1	0	5	0
104	87	0	10000	5	1	0	5	0
103	88	0	10000	5	1	0	5	0
101	89	0	10000	5	1	0	5	0
104	90	0	10000	5	1	0	5	0
102	91	0	10000	5	1	0	5	0
101	92	0	10000	5	1	0	5	0
101	93	0	10000	5	1	0	5	0
100	94	0	10000	5	1	0	5	0
101	95	0	10000	5	1	0	5	0
100	96	0	10000	5	1	0	5	0
102	97	0	10000	5	1	0	5	0
101	98	0	10000	5	1	0	5	0
100	99	0	10000	5	1	0	5	0
103	100	0	10000	5	1	0	5	0
101	101	0	10000	5	1	0	5	0
99	102	0	10000	5	1	0	5	0
104	103	0	10000	5	1	0	5	0
104	104	0	10000	5	1	0	5	0
105	105	0	10000	5	1	0	5	0
106	106	0	10000	5	1	0	5	0
105	107	0	10000	5	1	0	5	0
105	108	0	10000	5	1	0	5	0
105	109	0	10000	5	1	0	5	0
105	110	0	10000	5	1	0	5	0
104	111	0	10000	5	1	0	5	0
104	112	0	10000	5	1	0	5	0
106	113	0	10000	5	1	0	5	0
104	114	0	10000	5	1	0	5	0
104	115	0	10000	5	1	0	5	0
107	116	0	10000	5	1	0	5	0
105	117	0	10000	5	1	0	5	0
103	118	0	10000	5	1	0	5	0
106	119	0	10000	5	1	0	5	0
104	120	0	10000	5	1	0	5	0
102	121	0	10000	5	1	0	5	0
104	122	0	10000	5	1	0	5	0
104	123	0	10000	5	1	0	5	0
105	124	0	10000	5	1	0	5	0
105	125	0	10000	5	1	0	5	0
106	126	0	10000	5	1	0	5	0
105	127	0	10000	5	1	0	5	0
104	128	0	10000	5	1	0	5	0
107	129	0	10000	5	1	0	5	0
104	130	0	10000	5	1	0	5	0
102	131	0	10000	5	1	0	5	0
107	132	0	10000	5	1	0	5	0
105	133	0	10000	5	1	0	5	0
104	134	0	10000	5	1	0	5	0
105	135	0	10000	5	1	0	5	0
104	136	0	10000	5	1	0	5	0
105	137	0	10000	5	1	0	5	0
105	138	0	10000	5	1	0	5	0
105	139	0	10000	5	1	0	5	0
104	140	0	10000	5	1	0	5	0
104	141	0	10000	5	1	0	5	0
104	142	0	10000	5	1	0	5	0
104	143	0	10000	5	1	0	5	0
104	144	0	10000	5	1	0	5	0
107	145	0	10000	5	1	0	5	0
105	146	0	10000	5	1	0	5	0
104	147	0	10000	5	1	0	5	0
107	148	0	10000	5	1	0	5	0
105	149	0	10000	5	1	0	5	0
105	150	0	10000	5	1	0	5	0
108	151	0	10000	5	1	0	5	0
106	152	0	10000	5	1	0	5	0
105	153	0	10000	5	1	0	5	0
104	154	0	10000	5	1	0	5	0
106	155	0	10000	5	1	0	5	0
104	156	0	10000	5	1	0	5	0
104	157	0	10000	5	1	0	5	0
107	158	0	10000	5	1	0	5	0
105	159	0	10000	5	1	0	5	0
104	160	0	10000	5	1	0	5	0
105	161	0	10000	5	1	0	5	0
105	162	0	10000	5	1	0	5	0
104	163	0	10000	5	1	0	5	0
107	164	0	10000	5	1	0	5	0
106	165	0	10000	5	1	0	5	0
105	166	0	10000	5	1	0	5	0
105	167	0	10000	5	1	0	5	0
105	168	0	10000	5	1	0	5	0
104	169	0	10000	5	1	0	5	0
105	170	0	10000	5	1	0	5	0
106	171	0	10000	5	1	0	5	0
105	172	0	10000	5	1	0	5	0
104	173	0	10000	5	1	0	5	0
104	174	0	10000	5	1	0	5	0
104	175	0	10000	5	1	0	5	0
103	176	0	10000	5	1	0	5	0
105	177	0	10000	5	1	0	5	0
104	178	0	10000	5	1	0	5	0
103	179	0	10000	5	1	0	5	0
107	180	0	10000	5	1	0	5	0
104	181	0	10000	5	1	0	5	0
102	182	0	10000	5	1	0	5	0
105	183	0	10000	5	1	0	5	0
106	184	0	10000	5	1	0	5	0
106	185	0	10000	5	1	0	5	0
106	186	0	10000	5	1	0	5	0
106	187	0	10000	5	1	0	5	0
105	188	0	10000	5	1	0	5	0
104	189	0	10000	5	1	0	5	0
105	190	0	10000	5	1	0	5	0
105	191	0	10000	5	1	0	5	0
104	192	0	10000	5	1	0	5	0
106	193	0	10000	5	1	0	5	0
104	194	0	10000	5	1	0	5	0
105	195	0	10000	5	1	0	5	0
107	196	0	10000	5	1	0	5	0
107	197	0	10000	5	1	0	5	0
106	198	0	10000	5	1	0	5	0
108	199	0	10000	5	1	0	5	0
107	200	0	10000	5	1	0	5	0
106	201	0	10000	5	1	0	5	0
106	202	0	10000	5	1	0	5	0
107	203	0	10000	5	1	0	5	0
110	204	0	10000	5	1	0	5	0
108	205	0	10000	5	1	0	5	0
109	206	0	10000	5	1	0	5	0
109	207	0	10000	5	1	0	5	0
107	208	0	10000	5	1	0	5	0
109	209	0	10000	5	1	0	5	0
107	210	0	10000	5	1	0	5	0
106	211	0	10000	5	1	0	5	0
110	212	0	10000	5	1	0	5	0
108	213	0	10000	5	1	0	5	0
106	214	0	10000	5	1	0	5	0
107	215	0	10000	5	1	0	5	0
107	216	0	10000	5	1	0	5	0
106	217	0	10000	5	1	0	5	0
106	218	0	10000	5	1	0	5	0
106	219	0	10000	5	1	0	5	0
104	220	0	10000	5	1	0	5	0
103	221	0	10000	5	1	0	5	0
104	222	0	10000	5	1	0	5	0
104	223	0	10000	5	1	0	5	0
104	224	0	10000	5	1	0	5	0
107	225	0	10000	5	1	0	5	0
106	226	0	10000	5	1	0	5	0
105	227	0	10000	5	1	0	5	0
106	228	0	10000	5	1	0	5	0
104	229	0	10000	5	1	0	5	0
103	230	0	10000	5	1	0	5	0
104	231	0	10000	5	1	0	5	0
105	232	0	10000	5	1	0	5	0
104	233	0	10000	5	1	0	5	0
101	234	0	10000	5	1	0	5	0
103	235	0	10000	5	1	0	5	0
103	236	0	10000	5	1	0	5	0
101	237	0	10000	5	1	0	5	0
103	238	0	10000	5	1	0	5	0
103	239	0	10000	5	1	0	5	0
101	240	0	10000	5	1	0	5	0
103	241	0	10000	5	1	0	5	0
101	242	0	10000	5	1	0	5	0
99	243	0	10000	5	1	0	5	0
104	244	0	10000	5	1	0	5	0
102	245	0	10000	5	1	0	5	0
101	246	0	10000	5	1	0	5	0
101	247	0	10000	5	1	0	5	0
101	248	0	10000	5	1	0	5	0
100	249	0	10000	5	1	0	5	0
100	250	0	10000	5	1	0	5	0
101	251	0	10000	5	1	0	5	0
101	252	0	10000	5	1	0	5	0
98	253	0	10000	5	1	0	5	0
100	254	0	10000	5	1	0	5	0
101	255	0	10000	5	1	0	5	0
101	256	0	10000	5	1	0	5	0
103	257	0	10000	5	1	0	5	0
102	258	0	10000	5	1	0	5	0
101	259	0	10000	5	1	0	5	0
103	260	0	10000	5	1	0	5	0
101	261	0	10000	5	1	0	5	0
100	262	0	10000	5	1	0	5	0
102	263	0	10000	5	1	0	5	0
104	264	0	10000	5	1	0	5	0
105	265	0	10000	5	1	0	5	0
104	266	0	10000	5	1	0	5	0
106	267	0	10000	5	1	0	5	0
105	268	0	10000	5	1	0	5	0
104	269	0	10000	5	1	0	5	0
107	270	0	10000	5	1	0	5	0
105	271	0	10000	5	1	0	5	0
103	272	0	10000	5	1	0	5	0
106	273	0	10000	5	1	0	5	0
103	274	0	10000	5	1	0	5	0
104	275	0	10000	5	1	0	5	0
105	276	0	10000	5	1	0	5	0
105	277	0	10000	5	1	0	5	0
104	278	0	10000	5	1	0	5	0
105	279	0	10000	5	1	0	5	0
104	280	0	10000	5	1	0	5	0
104	281	0	10000	5	1	0	5	0
102	282	0	10000	5	1	0	5	0
104	283	0	10000	5	1	0	5	0
106	284	0	10000	5	1	0	5	0
104	285	0	10000	5	1	0	5	0
107	286	0	10000	5	1	0	5	0
105	287	0	10000	5	1	0	5	0
104	288	0	10000	5	1	0	5	0
106	289	0	10000	5	1	0	5	0
104	290	0	10000	5	1	0	5	0
104	291	0	10000	5	1	0	5	0
106	292	0	10000	5	1	0	5	0
105	293	0	10000	5	1	0	5	0
104	294	0	10000	5	1	0	5	0
104	295	0	10000	5	1	0	5	0
105	296	0	10000	5	1	0	5	0
104	297	0	10000	5	1	0	5	0
103	298	0	10000	5	1	0	5	0
104	299	0	10000	5	1	0	5	0
102	300	0	10000	5	1	0	5	0
100	301	0	10000	5	1	0	5	0
102	302	0	10000	5	1	0	5	0
101	303	0	10000	5	1	0	5	0
102	304	0	10000	5	1	0	5	0
104	305	0	10000	5	1	0	5	0
103	306	0	10000	5	1	0	5	0
103	307	0	10000	5	1	0	5	0
104	308	0	10000	5	1	0	5	0
103	309	0	10000	5	1	0	5	0
103	310	0	10000	5	1	0	5	0
104	311	0	10000	5	1	0	5	0
104	312	0	10000	5	1	0	5	0
104	313	0	10000	5	1	0	5	0
102	314	0	10000	5	1	0	5	0
104	315	0	10000	5	1	0	5	0
103	316	0	10000	5	1	0	5	0
102	317	0	10000	5	1	0	5	0
104	318	0	10000	5	1	0	5	0
103	319	0	10000	5	1	0	5	0
101	320	0	10000	5	1	0	5	0
103	321	0	10000	5	1	0	5	0
102	322	0	10000	5	1	0	5	0
103	323	0	10000	5	1	0	5	0
105	324	0	10000	5	1	0	5	0
104	325	0	10000	5	1	0	5	0
104	326	0	10000	5	1	0	5	0
105	327	0	10000	5	1	0	5	0
105	328	0	10000	5	1	0	5	0
103	329	0	10000	5	1	0	5	0
104	330	0	10000	5	1	0	5	0
104	331	0	10000	5	1	0	5	0
104	332	0	10000	5	1	0	5	0
103	333	0	10000	5	1	0	5	0
104	334	0	10000	5	1	0	5	0
103	335	0	10000	5	1	0	5	0
101	336	0	10000	5	1	0	5	0
105	337	0	10000	5	1	0	5	0
104	338	0	10000	5	1	0	5	0
104	339	0	10000	5	1	0	5	0
105	340	0	10000	5	1	0	5	0
102	341	0	10000	5	1	0	5	0
102	342	0	10000	5	1	0	5	0
103	343	0	10000	5	1	0	5	0
104	344	0	10000	5	1	0	5	0
102	345	0	10000	5	1	0	5	0
102	346	0	10000	5	1	0	5	0
103	347	0	10000	5	1	0	5	0
102	348	0	10000	5	1	0	5	0
101	349	0	10000	5	1	0	5	0
103	350	0	10000	5	1	0	5	0
102	351	0	10000	5	1	0	5	0
103	352	0	10000	5	1	0	5	0
104	353	0	10000	5	1	0	5	0
102	354	0	10000	5	1	0	5	0
104	355	0	10000	5	1	0	5	0
105	356	0	10000	5	1	0	5	0
104	357	0	10000	5	1	0	5	0
103	358	0	10000	5	1	0	5	0
105	359	0	10000	5	1	0	5	0
104	360	0	10000	5	1	0	5	0
102	361	0	10000	5	1	0	5	0
102	362	0	10000	5	1	0	5	0
103	363	0	10000	5	1	0	5	0
105	364	0	10000	5	1	0	5	0
104	365	0	10000	5	1	0	5	0
107	366	0	10000	5	1	0	5	0
104	367	0	10000	5	1	0	5	0
103	368	0	10000	5	1	0	5	0
105	369	0	10000	5	1	0	5	0
102	370	0	10000	5	1	0	5	0
101	371	0	10000	5	1	0	5	0
104	372	0	10000	5	1	0	5	0
103	373	0	10000	5	1	0	5	0
100	374	0	10000	5	1	0	5	0
101	375	0	10000	5	1	0	5	0
102	376	0	10000	5	1	0	5	0
101	377	0	10000	5	1	0	5	0
100	378	0	10000	5	1	0	5	0
102	379	0	10000	5	1	0	5	0
101	380	0	10000	5	1	0	5	0
101	381	0	10000	5	1	0	5	0
102	382	0	10000	5	1	0	5	0
100	383	0	10000	5	1	0	5	0
101	384	0	10000	5	1	0	5	0
104	385	0	10000	5	1	0	5	0
102	386	0	10000	5	1	0	5	0
101	387	0	10000	5	1	0	5	0
103	388	0	10000	5	1	0	5	0
102	389	0	10000	5	1	0	5	0
99	390	0	10000	5	1	0	5	0
101	391	0	10000	5	1	0	5	0
102	392	0	10000	5	1	0	5	0
103	393	0	10000	5	1	0	5	0
101	394	0	10000	5	1	0	5	0
103	395	0	10000	5	1	0	5	0
102	396	0	10000	5	1	0	5	0
101	397	0	10000	5	1	0	5	0
103	398	0	10000	5	1	0	5	0
101	399	0	10000	5	1	0	5	0
100	400	0	10000	5	1	0	5	0
103	401	0	10000	5	1	0	5	0
100	402	0	10000	5	1	0	5	0
100	403	0	10000	5	1	0	5	0
103	404	0	10000	5	1	0	5	0
101	405	0	10000	5	1	0	5	0
101	406	0	10000	5	1	0	5	0
101	407	0	10000	5	1	0	5	0
101	408	0	10000	5	1	0	5	0
101	409	0	10000	5	1	0	5	0
101	410	0	10000	5	1	0	5	0
103	411	0	10000	5	1	0	5	0
103	412	0	10000	5	1	0	5	0
101	413	0	10000	5	1	0	5	0
104	414	0	10000	5	1	0	5	0
103	415	0	10000	5	1	0	5	0
104	416	0	10000	5	1	0	5	0
105	417	0	10000	5	1	0	5	0
103	418	0	10000	5	1	0	5	0
103	419	0	10000	5	1	0	5	0
106	420	0	10000	5	1	0	5	0
103	421	0	10000	5	1	0	5	0
102	422	0	10000	5	1	0	5	0
104	423	0	10000	5	1	0	5	0
106	424	0	10000	5	1	0	5	0
104	425	0	10000	5	1	0	5	0
104	426	0	10000	5	1	0	5	0
105	427	0	10000	5	1	0	5	0
103	428	0	10000	5	1	0	5	0
102	429	0	10000	5	1	0	5	0
105	430	0	10000	5	1	0	5	0
104	431	0	10000	5	1	0	5	0
104	432	0	10000	5	1	0	5	0
105	433	0	10000	5	1	0	5	0
103	434	0	10000	5	1	0	5	0
104	435	0	10000	5	1	0	5	0
105	436	0	10000	5	1	0	5	0
104	437	0	10000	5	1	0	5	0
105	438	0	10000	5	1	0	5	0
105	439	0	10000	5	1	0	5	0
105	440	0	10000	5	1	0	5	0
105	441	0	10000	5	1	0	5	0
103	442	0	10000	5	1	0	5	0
106	443	0	10000	5	1	0	5	0
107	444	0	10000	5	1	0	5	0
105	445	0	10000	5	1	0	5	0
108	446	0	10000	5	1	0	5	0
106	447	0	10000	5	1	0	5	0
104	448	0	10000	5	1	0	5	0
106	449	0	10000	5	1	0	5	0
104	450	0	10000	5	1	0	5	0
104	451	0	10000	5	1	0	5	0
105	452	0	10000	5	1	0	5	0
104	453	0	10000	5	1	0	5	0
103	454	0	10000	5	1	0	5	0
104	455	0	10000	5	1	0	5	0
105	456	0	10000	5	1	0	5	0
104	457	0	10000	5	1	0	5	0
103	458	0	10000	5	1	0	5	0
107	459	0	10000	5	1	0	5	0
104	460	0	10000	5	1	0	5	0
101	461	0	10000	5	1	0	5	0
104	462	0	10000	5	1	0	5	0
103	463	0	10000	5	1	0	5	0
105	464	0	10000	5	1	0	5	0
107	465	0	10000	5	1	0	5	0
105	466	0	10000	5	1	0	5	0
105	467	0	10000	5	1	0	5	0
106	468	0	10000	5	1	0	5	0
104	469	0	10000	5	1	0	5	0
102	470	0	10000	5	1	0	5	0
103	471	0	10000	5	1	0	5	0
104	472	0	10000	5	1	0	5	0
104	473	0	10000	5	1	0	5	0
101	474	0	10000	5	1	0	5	0
103	475	0	10000	5	1	0	5	0
104	476	0	10000	5	1	0	5	0
104	477	0	10000	5	1	0	5	0
107	478	0	10000	5	1	0	5	0
105	479	0	10000	5	1	0	5	0
105	480	0	10000	5	1	0	5	0
107	481	0	10000	5	1	0	5	0
104	482	0	10000	5	1	0	5	0
104	483	0	10000	5	1	0	5	0
106	484	0	10000	5	1	0	5	0
106	485	0	10000	5	1	0	5	0
106	486	0	10000	5	1	0	5	0
105	487	0	10000	5	1	0	5	0
106	488	0	10000	5	1	0	5	0
106	489	0	10000	5	1	0	5	0
105	490	0	10000	5	1	0	5	0
108	491	0	10000	5	1	0	5	0
106	492	0	10000	5	1	0	5	0
103	493	0	10000	5	1	0	5	0
106	494	0	10000	5	1	0	5	0
104	495	0	10000	5	1	0	5	0
105	496	0	10000	5	1	0	5	0
107	497	0	10000	5	1	0	5	0
105	498	0	10000	5	1	0	5	0
105	499	0	10000	5	1	0	5	0
107	500	0	10000	5	1	0	5	0
104	501	0	10000	5	1	0	5	0
102	502	0	10000	5	1	0	5	1
102	503	0	10000	5	1	0	5	1
106	504	0	10000	5	1	0	5	1
104	505	0	10000	5	1	0	5	1
101	506	0	10000	5	1	0	5	1
105	507	0	10000	5	1	0	5	1
102	508	0	10000	5	1	0	5	1
100	509	0	10000	5	1	0	5	1
103	510	0	10000	5	1	0	5	1
102	511	0	10000	5	1	0	5	1
102	512	0	10000	5	1	0	5	1
104	513	0	10000	5	1	0	5	1
101	514	0	10000	5	1	0	5	1
100	515	0	10000	5	1	0	5	1
101	516	0	10000	5	1	0	5	1
101	517	0	10000	5	1	0	5	1
99	518	0	10000	5	1	0	5	1
99	519	0	10000	5	1	0	5	1
101	520	0	10000	5	1	0	5	1
99	521	0	10000	5	1	0	5	1
99	522	0	10000	5	1	0	5	1
102	523	0	10000	5	1	0	5	1
103	524	0	10000	5	1	0	5	1
102	525	0	10000	5	1	0	5	1
104	526	0	10000	5	1	0	5	1
102	527	0	10000	5	1	0	5	1
100	528	0	10000	5	1	0	5	1
103	529	0	10000	5	1	0	5	1
101	530	0	10000	5	1	0	5	1
103	531	0	10000	5	1	0	5	1
104	532	0	10000	5	1	0	5	1
104	533	0	10000	5	1	0	5	1
101	534	0	10000	5	1	0	5	1
101	535	0	10000	5	1	0	5	1
104	536	0	10000	5	1	0	5	1
102	537	0	10000	5	1	0	5	1
101	538	0	10000	5	1	0	5	1
103	539	0	10000	5	1	0	5	1
102	540	0	10000	5	1	0	5	1
99	541	0	10000	5	1	0	5	1
103	542	0	10000	5	1	0	5	1
101	543	0	10000	5	1	0	5	1
102	544	0	10000	5	1	0	5	1
104	545	0	10000	5	1	0	5	1
103	546	0	10000	5	1	0	5	1
102	547	0	10000	5	1	0	5	1
102	548	0	10000	5	1	0	5	1
102	549	0	10000	5	1	0	5	1
100	550	0	10000	5	1	0	5	1
101	551	0	10000	5	1	0	5	1
104	552	0	10000	5	1	0	5	0
104	553	0	10000	5	1	0	5	0
101	554	0	10000	5	1	0	5	0
105	555	0	10000	5	1	0	5	0
103	556	0	10000	5	1	0	5	0
103	557	0	10000	5	1	0	5	0
105	558	0	10000	5	1	0	5	0
104	559	0	10000	5	1	0	5	0
104	560	0	10000	5	1	0	5	0
105	561	0	10000	5	1	0	5	0
104	562	0	10000	5	1	0	5	0
104	563	0	10000	5	1	0	5	0
106	564	0	10000	5	1	0	5	0
106	565	0	10000	5	1	0	5	0
104	566	0	10000	5	1	0	5	0
101	567	0	10000	5	1	0	5	0
104	568	0	10000	5	1	0	5	0
103	569	0	10000	5	1	0	5	0
100	570	0	10000	5	1	0	5	0
104	571	0	10000	5	1	0	5	0
103	572	0	10000	5	1	0	5	0
103	573	0	10000	5	1	0	5	0
102	574	0	10000	5	1	0	5	0
102	575	0	10000	5	1	0	5	0
102	576	0	10000	5	1	0	5	0
104	577	0	10000	5	1	0	5	0
104	578	0	10000	5	1	0	5	0
103	579	0	10000	5	1	0	5	0
103	580	0	10000	5	1	0	5	0
103	581	0	10000	5	1	0	5	0
102	582	0	10000	5	1	0	5	0
101	583	0	10000	5	1	0	5	0
106	584	0	10000	5	1	0	5	0
105	585	0	10000	5	1	0	5	0
103	586	0	10000	5	1	0	5	0
106	587	0	10000	5	1	0	5	0
104	588	0	10000	5	1	0	5	0
104	589	0	10000	5	1	0	5	0
105	590	0	10000	5	1	0	5	0
103	591	0	10000	5	1	0	5	0
98	592	0	10000	5	1	0	5	0
99	593	0	10000	5	1	0	5	0
99	594	0	10000	5	1	0	5	0
100	595	0	10000	5	1	0	5	0
99	596	0	10000	5	1	0	5	0
104	597	0	10000	5	1	0	5	0
107	598	0	10000	5	1	0	5	0
113	599	0	10000	5	1	0	5	0
119	600	0	10000	5	1	0	5	0
118	601	0	10000	5	1	0	5	0
115	602	0	10000	5	1	0	5	0
119	603	0	10000	5	1	0	5	0
129	604	0	10000	5	1	0	5	0
152	605	0	10000	5	1	0	5	0
206	606	0	10000	5	1	0	5	0
222	607	0	10000	5	1	0	5	0
233	608	0	10000	5	1	0	5	0
242	609	0	10000	5	1	0	5	0
247	610	0	10000	5	1	0	5	0
263	611	0	10000	5	1	0	5	0
280	612	0	10000	5	1	0	5	0
276	613	0	10000	5	1	0	5	0
272	614	0	10000	5	1	0	5	0
267	615	0	10000	5	1	0	5	0
282	616	0	10000	5	1	0	5	0
282	617	0	10000	5	1	0	5	0
297	618	0	10000	5	1	0	5	0
296	619	0	10000	5	1	0	5	0
300	620	0	10000	5	1	0	5	0
297	621	0	10000	5	1	0	5	0
286	622	0	10000	5	1	0	5	0
279	623	0	10000	5	1	0	5	0
272	624	0	10000	5	1	0	5	0
264	625	0	10000	5	1	0	5	0
258	626	0	10000	5	1	0	5	0
246	627	0	10000	5	1	0	5	0
238	628	0	10000	5	1	0	5	0
240	629	0	10000	5	1	0	5	0
234	630	0	10000	5	1	0	5	0
229	631	0	10000	5	1	0	5	0
228	632	0	10000	5	1	0	5	0
220	633	0	10000	5	1	0	5	0
214	634	0	10000	5	1	0	5	0
223	635	0	10000	5	1	0	5	0
219	636	0	10000	5	1	0	5	0
209	637	0	10000	5	1	0	5	0
206	638	0	10000	5	1	0	5	0
200	639	0	10000	5	1	0	5	0
192	640	0	10000	5	1	0	5	0
189	641	0	10000	5	1	0	5	0
185	642	0	10000	5	1	0	5	0
