value	EMG	Stimulus	EMG_sensitivity	Total_Trial_Nr	practise	acq	probe_nr	Startle_Probe
66	2	10	10000	1	1	0	1	0
69	3	10	10000	1	1	0	1	0
66	4	10	10000	1	1	0	1	0
67	5	10	10000	1	1	0	1	0
64	6	10	10000	1	1	0	1	0
62	7	10	10000	1	1	0	1	0
61	8	10	10000	1	1	0	1	0
59	9	10	10000	1	1	0	1	0
61	10	10	10000	1	1	0	1	0
63	11	10	10000	1	1	0	1	0
61	12	10	10000	1	1	0	1	0
59	13	10	10000	1	1	0	1	0
57	14	10	10000	1	1	0	1	0
56	15	10	10000	1	1	0	1	0
53	16	10	10000	1	1	0	1	0
55	17	10	10000	1	1	0	1	0
62	18	10	10000	1	1	0	1	0
65	19	10	10000	1	1	0	1	0
64	20	10	10000	1	1	0	1	0
61	21	10	10000	1	1	0	1	0
58	22	10	10000	1	1	0	1	0
57	23	10	10000	1	1	0	1	0
57	24	10	10000	1	1	0	1	0
62	25	10	10000	1	1	0	1	0
62	26	10	10000	1	1	0	1	0
60	27	10	10000	1	1	0	1	0
59	28	10	10000	1	1	0	1	0
56	29	10	10000	1	1	0	1	0
54	30	10	10000	1	1	0	1	0
54	31	10	10000	1	1	0	1	0
57	32	10	10000	1	1	0	1	0
60	33	10	10000	1	1	0	1	0
59	34	10	10000	1	1	0	1	0
57	35	10	10000	1	1	0	1	0
56	36	10	10000	1	1	0	1	0
53	37	10	10000	1	1	0	1	0
51	38	10	10000	1	1	0	1	0
51	39	10	10000	1	1	0	1	0
56	40	10	10000	1	1	0	1	0
55	41	10	10000	1	1	0	1	0
55	42	10	10000	1	1	0	1	0
53	43	10	10000	1	1	0	1	0
51	44	10	10000	1	1	0	1	0
50	45	10	10000	1	1	0	1	0
50	46	10	10000	1	1	0	1	0
52	47	10	10000	1	1	0	1	0
55	48	10	10000	1	1	0	1	0
54	49	10	10000	1	1	0	1	0
52	50	10	10000	1	1	0	1	0
52	51	10	10000	1	1	0	1	0
51	52	10	10000	1	1	0	1	0
51	53	10	10000	1	1	0	1	0
54	54	10	10000	1	1	0	1	0
60	55	10	10000	1	1	0	1	0
61	56	10	10000	1	1	0	1	0
59	57	10	10000	1	1	0	1	0
56	58	10	10000	1	1	0	1	0
56	59	10	10000	1	1	0	1	0
58	60	10	10000	1	1	0	1	0
57	61	10	10000	1	1	0	1	0
60	62	10	10000	1	1	0	1	0
60	63	10	10000	1	1	0	1	0
59	64	10	10000	1	1	0	1	0
58	65	10	10000	1	1	0	1	0
56	66	10	10000	1	1	0	1	0
55	67	10	10000	1	1	0	1	0
56	68	10	10000	1	1	0	1	0
56	69	10	10000	1	1	0	1	0
56	70	10	10000	1	1	0	1	0
56	71	10	10000	1	1	0	1	0
57	72	10	10000	1	1	0	1	0
56	73	10	10000	1	1	0	1	0
54	74	10	10000	1	1	0	1	0
52	75	10	10000	1	1	0	1	0
52	76	10	10000	1	1	0	1	0
54	77	10	10000	1	1	0	1	0
54	78	10	10000	1	1	0	1	0
55	79	10	10000	1	1	0	1	0
55	80	10	10000	1	1	0	1	0
52	81	10	10000	1	1	0	1	0
51	82	10	10000	1	1	0	1	0
51	83	10	10000	1	1	0	1	0
54	84	10	10000	1	1	0	1	0
53	85	10	10000	1	1	0	1	0
55	86	10	10000	1	1	0	1	0
56	87	10	10000	1	1	0	1	0
56	88	10	10000	1	1	0	1	0
54	89	10	10000	1	1	0	1	0
52	90	10	10000	1	1	0	1	0
56	91	10	10000	1	1	0	1	0
58	92	10	10000	1	1	0	1	0
57	93	10	10000	1	1	0	1	0
56	94	10	10000	1	1	0	1	0
55	95	10	10000	1	1	0	1	0
54	96	10	10000	1	1	0	1	0
54	97	10	10000	1	1	0	1	0
53	98	10	10000	1	1	0	1	0
57	99	10	10000	1	1	0	1	0
57	100	10	10000	1	1	0	1	0
56	101	10	10000	1	1	0	1	0
54	102	10	10000	1	1	0	1	0
51	103	10	10000	1	1	0	1	0
50	104	10	10000	1	1	0	1	0
49	105	10	10000	1	1	0	1	0
54	106	10	10000	1	1	0	1	0
56	107	10	10000	1	1	0	1	0
55	108	10	10000	1	1	0	1	0
53	109	10	10000	1	1	0	1	0
49	110	10	10000	1	1	0	1	0
48	111	10	10000	1	1	0	1	0
49	112	10	10000	1	1	0	1	0
52	113	10	10000	1	1	0	1	0
55	114	10	10000	1	1	0	1	0
54	115	10	10000	1	1	0	1	0
55	116	10	10000	1	1	0	1	0
56	117	10	10000	1	1	0	1	0
57	118	10	10000	1	1	0	1	0
59	119	10	10000	1	1	0	1	0
62	120	10	10000	1	1	0	1	0
62	121	10	10000	1	1	0	1	0
60	122	10	10000	1	1	0	1	0
59	123	10	10000	1	1	0	1	0
58	124	10	10000	1	1	0	1	0
56	125	10	10000	1	1	0	1	0
53	126	10	10000	1	1	0	1	0
52	127	10	10000	1	1	0	1	0
56	128	10	10000	1	1	0	1	0
56	129	10	10000	1	1	0	1	0
54	130	10	10000	1	1	0	1	0
53	131	10	10000	1	1	0	1	0
51	132	10	10000	1	1	0	1	0
49	133	10	10000	1	1	0	1	0
48	134	10	10000	1	1	0	1	0
49	135	10	10000	1	1	0	1	0
50	136	10	10000	1	1	0	1	0
51	137	10	10000	1	1	0	1	0
57	138	10	10000	1	1	0	1	0
61	139	10	10000	1	1	0	1	0
65	140	10	10000	1	1	0	1	0
66	141	10	10000	1	1	0	1	0
66	142	10	10000	1	1	0	1	0
68	143	10	10000	1	1	0	1	0
67	144	10	10000	1	1	0	1	0
69	145	10	10000	1	1	0	1	0
73	146	10	10000	1	1	0	1	0
78	147	10	10000	1	1	0	1	0
86	148	10	10000	1	1	0	1	0
90	149	10	10000	1	1	0	1	0
88	150	10	10000	1	1	0	1	0
86	151	10	10000	1	1	0	1	0
92	152	10	10000	1	1	0	1	0
100	153	10	10000	1	1	0	1	0
109	154	10	10000	1	1	0	1	0
120	155	10	10000	1	1	0	1	0
134	156	10	10000	1	1	0	1	0
140	157	10	10000	1	1	0	1	0
136	158	10	10000	1	1	0	1	0
135	159	10	10000	1	1	0	1	0
141	160	10	10000	1	1	0	1	0
149	161	10	10000	1	1	0	1	0
158	162	10	10000	1	1	0	1	0
168	163	10	10000	1	1	0	1	0
174	164	10	10000	1	1	0	1	0
170	165	10	10000	1	1	0	1	0
168	166	10	10000	1	1	0	1	0
171	167	10	10000	1	1	0	1	0
172	168	10	10000	1	1	0	1	0
173	169	10	10000	1	1	0	1	0
174	170	10	10000	1	1	0	1	0
177	171	10	10000	1	1	0	1	0
173	172	10	10000	1	1	0	1	0
170	173	10	10000	1	1	0	1	0
170	174	10	10000	1	1	0	1	0
170	175	10	10000	1	1	0	1	0
167	176	10	10000	1	1	0	1	0
162	177	10	10000	1	1	0	1	0
158	178	10	10000	1	1	0	1	0
154	179	10	10000	1	1	0	1	0
153	180	10	10000	1	1	0	1	0
146	181	10	10000	1	1	0	1	0
140	182	10	10000	1	1	0	1	0
135	183	10	10000	1	1	0	1	0
131	184	10	10000	1	1	0	1	0
125	185	10	10000	1	1	0	1	0
121	186	10	10000	1	1	0	1	0
127	187	10	10000	1	1	0	1	0
129	188	10	10000	1	1	0	1	0
125	189	10	10000	1	1	0	1	0
120	190	10	10000	1	1	0	1	0
117	191	10	10000	1	1	0	1	0
116	192	10	10000	1	1	0	1	0
118	193	10	10000	1	1	0	1	0
128	194	10	10000	1	1	0	1	0
140	195	10	10000	1	1	0	1	0
147	196	10	10000	1	1	0	1	0
152	197	10	10000	1	1	0	1	0
158	198	10	10000	1	1	0	1	0
164	199	10	10000	1	1	0	1	0
167	200	10	10000	1	1	0	1	0
175	201	10	10000	1	1	0	1	0
182	202	10	10000	1	1	0	1	0
183	203	10	10000	1	1	0	1	0
184	204	10	10000	1	1	0	1	0
188	205	10	10000	1	1	0	1	0
191	206	10	10000	1	1	0	1	0
194	207	10	10000	1	1	0	1	0
198	208	10	10000	1	1	0	1	0
206	209	10	10000	1	1	0	1	0
206	210	10	10000	1	1	0	1	0
203	211	10	10000	1	1	0	1	0
202	212	10	10000	1	1	0	1	0
202	213	10	10000	1	1	0	1	0
200	214	10	10000	1	1	0	1	0
196	215	10	10000	1	1	0	1	0
201	216	10	10000	1	1	0	1	0
205	217	10	10000	1	1	0	1	0
203	218	10	10000	1	1	0	1	0
202	219	10	10000	1	1	0	1	0
200	220	10	10000	1	1	0	1	0
195	221	10	10000	1	1	0	1	0
189	222	10	10000	1	1	0	1	0
188	223	10	10000	1	1	0	1	0
186	224	10	10000	1	1	0	1	0
180	225	10	10000	1	1	0	1	0
172	226	10	10000	1	1	0	1	0
166	227	10	10000	1	1	0	1	0
162	228	10	10000	1	1	0	1	0
155	229	10	10000	1	1	0	1	0
153	230	10	10000	1	1	0	1	0
156	231	10	10000	1	1	0	1	0
152	232	10	10000	1	1	0	1	0
146	233	10	10000	1	1	0	1	0
142	234	10	10000	1	1	0	1	0
139	235	10	10000	1	1	0	1	0
133	236	10	10000	1	1	0	1	0
127	237	10	10000	1	1	0	1	0
129	238	10	10000	1	1	0	1	0
131	239	10	10000	1	1	0	1	0
127	240	10	10000	1	1	0	1	0
122	241	10	10000	1	1	0	1	0
118	242	10	10000	1	1	0	1	0
112	243	10	10000	1	1	0	1	0
109	244	10	10000	1	1	0	1	0
108	245	10	10000	1	1	0	1	0
108	246	10	10000	1	1	0	1	0
105	247	10	10000	1	1	0	1	0
102	248	10	10000	1	1	0	1	0
97	249	10	10000	1	1	0	1	0
94	250	10	10000	1	1	0	1	0
90	251	10	10000	1	1	0	1	0
90	252	10	10000	1	1	0	1	0
93	253	10	10000	1	1	0	1	0
90	254	10	10000	1	1	0	1	0
89	255	10	10000	1	1	0	1	0
86	256	10	10000	1	1	0	1	0
84	257	10	10000	1	1	0	1	0
80	258	10	10000	1	1	0	1	0
79	259	10	10000	1	1	0	1	0
84	260	10	10000	1	1	0	1	0
83	261	10	10000	1	1	0	1	0
83	262	10	10000	1	1	0	1	0
81	263	10	10000	1	1	0	1	0
80	264	10	10000	1	1	0	1	0
80	265	10	10000	1	1	0	1	0
80	266	10	10000	1	1	0	1	0
80	267	10	10000	1	1	0	1	0
82	268	10	10000	1	1	0	1	0
78	269	10	10000	1	1	0	1	0
75	270	10	10000	1	1	0	1	0
72	271	10	10000	1	1	0	1	0
69	272	10	10000	1	1	0	1	0
67	273	10	10000	1	1	0	1	0
68	274	10	10000	1	1	0	1	0
71	275	10	10000	1	1	0	1	0
70	276	10	10000	1	1	0	1	0
73	277	10	10000	1	1	0	1	0
73	278	10	10000	1	1	0	1	0
74	279	10	10000	1	1	0	1	0
76	280	10	10000	1	1	0	1	0
74	281	10	10000	1	1	0	1	0
78	282	10	10000	1	1	0	1	0
76	283	10	10000	1	1	0	1	0
77	284	10	10000	1	1	0	1	0
76	285	10	10000	1	1	0	1	0
74	286	10	10000	1	1	0	1	0
71	287	10	10000	1	1	0	1	0
71	288	10	10000	1	1	0	1	0
71	289	10	10000	1	1	0	1	0
70	290	10	10000	1	1	0	1	0
70	291	10	10000	1	1	0	1	0
69	292	10	10000	1	1	0	1	0
67	293	10	10000	1	1	0	1	0
66	294	10	10000	1	1	0	1	0
66	295	10	10000	1	1	0	1	0
67	296	10	10000	1	1	0	1	0
68	297	10	10000	1	1	0	1	0
67	298	10	10000	1	1	0	1	0
67	299	10	10000	1	1	0	1	0
65	300	10	10000	1	1	0	1	0
63	301	10	10000	1	1	0	1	0
61	302	10	10000	1	1	0	1	0
62	303	10	10000	1	1	0	1	0
63	304	10	10000	1	1	0	1	0
63	305	10	10000	1	1	0	1	0
63	306	10	10000	1	1	0	1	0
63	307	10	10000	1	1	0	1	0
63	308	10	10000	1	1	0	1	0
64	309	10	10000	1	1	0	1	0
67	310	10	10000	1	1	0	1	0
67	311	10	10000	1	1	0	1	0
68	312	10	10000	1	1	0	1	0
67	313	10	10000	1	1	0	1	0
67	314	10	10000	1	1	0	1	0
66	315	10	10000	1	1	0	1	0
66	316	10	10000	1	1	0	1	0
66	317	10	10000	1	1	0	1	0
65	318	10	10000	1	1	0	1	0
68	319	10	10000	1	1	0	1	0
69	320	10	10000	1	1	0	1	0
68	321	10	10000	1	1	0	1	0
66	322	10	10000	1	1	0	1	0
64	323	10	10000	1	1	0	1	0
62	324	10	10000	1	1	0	1	0
62	325	10	10000	1	1	0	1	0
65	326	10	10000	1	1	0	1	0
67	327	10	10000	1	1	0	1	0
66	328	10	10000	1	1	0	1	0
66	329	10	10000	1	1	0	1	0
65	330	10	10000	1	1	0	1	0
65	331	10	10000	1	1	0	1	0
66	332	10	10000	1	1	0	1	0
67	333	10	10000	1	1	0	1	0
69	334	10	10000	1	1	0	1	0
66	335	10	10000	1	1	0	1	0
68	336	10	10000	1	1	0	1	0
67	337	10	10000	1	1	0	1	0
65	338	10	10000	1	1	0	1	0
65	339	10	10000	1	1	0	1	0
66	340	10	10000	1	1	0	1	0
68	341	10	10000	1	1	0	1	0
66	342	10	10000	1	1	0	1	0
68	343	10	10000	1	1	0	1	0
68	344	10	10000	1	1	0	1	0
69	345	10	10000	1	1	0	1	0
70	346	10	10000	1	1	0	1	0
71	347	10	10000	1	1	0	1	0
72	348	10	10000	1	1	0	1	0
72	349	10	10000	1	1	0	1	0
68	350	10	10000	1	1	0	1	0
66	351	10	10000	1	1	0	1	0
64	352	10	10000	1	1	0	1	0
62	353	10	10000	1	1	0	1	0
62	354	10	10000	1	1	0	1	0
63	355	10	10000	1	1	0	1	0
65	356	10	10000	1	1	0	1	0
64	357	10	10000	1	1	0	1	0
65	358	10	10000	1	1	0	1	0
65	359	10	10000	1	1	0	1	0
64	360	10	10000	1	1	0	1	0
62	361	10	10000	1	1	0	1	0
62	362	10	10000	1	1	0	1	0
65	363	10	10000	1	1	0	1	0
67	364	10	10000	1	1	0	1	0
65	365	10	10000	1	1	0	1	0
67	366	10	10000	1	1	0	1	0
66	367	10	10000	1	1	0	1	0
66	368	10	10000	1	1	0	1	0
66	369	10	10000	1	1	0	1	0
65	370	10	10000	1	1	0	1	0
65	371	10	10000	1	1	0	1	0
64	372	10	10000	1	1	0	1	0
65	373	10	10000	1	1	0	1	0
63	374	10	10000	1	1	0	1	0
62	375	10	10000	1	1	0	1	0
62	376	10	10000	1	1	0	1	0
61	377	10	10000	1	1	0	1	0
61	378	10	10000	1	1	0	1	0
61	379	10	10000	1	1	0	1	0
63	380	10	10000	1	1	0	1	0
61	381	10	10000	1	1	0	1	0
59	382	10	10000	1	1	0	1	0
58	383	10	10000	1	1	0	1	0
59	384	10	10000	1	1	0	1	0
61	385	10	10000	1	1	0	1	0
62	386	10	10000	1	1	0	1	0
61	387	10	10000	1	1	0	1	0
62	388	10	10000	1	1	0	1	0
61	389	10	10000	1	1	0	1	0
58	390	10	10000	1	1	0	1	0
60	391	10	10000	1	1	0	1	0
61	392	10	10000	1	1	0	1	0
64	393	10	10000	1	1	0	1	0
64	394	10	10000	1	1	0	1	0
63	395	10	10000	1	1	0	1	0
60	396	10	10000	1	1	0	1	0
57	397	10	10000	1	1	0	1	0
55	398	10	10000	1	1	0	1	0
54	399	10	10000	1	1	0	1	0
58	400	10	10000	1	1	0	1	0
56	401	10	10000	1	1	0	1	0
57	402	10	10000	1	1	0	1	0
56	403	10	10000	1	1	0	1	0
56	404	10	10000	1	1	0	1	0
54	405	10	10000	1	1	0	1	0
54	406	10	10000	1	1	0	1	0
56	407	10	10000	1	1	0	1	0
62	408	10	10000	1	1	0	1	0
61	409	10	10000	1	1	0	1	0
58	410	10	10000	1	1	0	1	0
57	411	10	10000	1	1	0	1	0
57	412	10	10000	1	1	0	1	0
58	413	10	10000	1	1	0	1	0
59	414	10	10000	1	1	0	1	0
64	415	10	10000	1	1	0	1	0
67	416	10	10000	1	1	0	1	0
66	417	10	10000	1	1	0	1	0
65	418	10	10000	1	1	0	1	0
66	419	10	10000	1	1	0	1	0
67	420	10	10000	1	1	0	1	0
67	421	10	10000	1	1	0	1	0
73	422	10	10000	1	1	0	1	0
78	423	10	10000	1	1	0	1	0
79	424	10	10000	1	1	0	1	0
75	425	10	10000	1	1	0	1	0
74	426	10	10000	1	1	0	1	0
74	427	10	10000	1	1	0	1	0
71	428	10	10000	1	1	0	1	0
70	429	10	10000	1	1	0	1	0
72	430	10	10000	1	1	0	1	0
72	431	10	10000	1	1	0	1	0
69	432	10	10000	1	1	0	1	0
68	433	10	10000	1	1	0	1	0
66	434	10	10000	1	1	0	1	0
63	435	10	10000	1	1	0	1	0
62	436	10	10000	1	1	0	1	0
62	437	10	10000	1	1	0	1	0
66	438	10	10000	1	1	0	1	0
66	439	10	10000	1	1	0	1	0
69	440	10	10000	1	1	0	1	0
70	441	10	10000	1	1	0	1	0
72	442	10	10000	1	1	0	1	0
75	443	10	10000	1	1	0	1	0
74	444	10	10000	1	1	0	1	0
72	445	10	10000	1	1	0	1	0
72	446	10	10000	1	1	0	1	0
76	447	10	10000	1	1	0	1	0
78	448	10	10000	1	1	0	1	0
77	449	10	10000	1	1	0	1	0
77	450	10	10000	1	1	0	1	0
77	451	10	10000	1	1	0	1	0
77	452	10	10000	1	1	0	1	0
74	453	10	10000	1	1	0	1	0
76	454	10	10000	1	1	0	1	0
76	455	10	10000	1	1	0	1	0
76	456	10	10000	1	1	0	1	0
75	457	10	10000	1	1	0	1	0
76	458	10	10000	1	1	0	1	0
76	459	10	10000	1	1	0	1	0
77	460	10	10000	1	1	0	1	0
75	461	10	10000	1	1	0	1	0
78	462	10	10000	1	1	0	1	0
78	463	10	10000	1	1	0	1	0
79	464	10	10000	1	1	0	1	0
81	465	10	10000	1	1	0	1	0
82	466	10	10000	1	1	0	1	0
82	467	10	10000	1	1	0	1	0
81	468	10	10000	1	1	0	1	0
80	469	10	10000	1	1	0	1	0
77	470	10	10000	1	1	0	1	0
77	471	10	10000	1	1	0	1	0
78	472	10	10000	1	1	0	1	0
81	473	10	10000	1	1	0	1	0
80	474	10	10000	1	1	0	1	0
79	475	10	10000	1	1	0	1	0
78	476	10	10000	1	1	0	1	0
79	477	10	10000	1	1	0	1	0
79	478	10	10000	1	1	0	1	0
80	479	10	10000	1	1	0	1	0
82	480	10	10000	1	1	0	1	0
81	481	10	10000	1	1	0	1	0
81	482	10	10000	1	1	0	1	0
79	483	10	10000	1	1	0	1	0
79	484	10	10000	1	1	0	1	0
77	485	10	10000	1	1	0	1	0
76	486	10	10000	1	1	0	1	0
75	487	10	10000	1	1	0	1	0
75	488	10	10000	1	1	0	1	0
75	489	10	10000	1	1	0	1	0
73	490	10	10000	1	1	0	1	0
72	491	10	10000	1	1	0	1	0
70	492	10	10000	1	1	0	1	0
68	493	10	10000	1	1	0	1	0
66	494	10	10000	1	1	0	1	0
67	495	10	10000	1	1	0	1	0
68	496	10	10000	1	1	0	1	0
68	497	10	10000	1	1	0	1	0
66	498	10	10000	1	1	0	1	0
68	499	10	10000	1	1	0	1	0
68	500	10	10000	1	1	0	1	0
66	501	10	10000	1	1	0	1	0
68	557	10	10000	1	1	0	1	1
67	558	10	10000	1	1	0	1	1
66	559	10	10000	1	1	0	1	1
65	560	10	10000	1	1	0	1	1
66	561	10	10000	1	1	0	1	1
66	562	10	10000	1	1	0	1	1
66	563	10	10000	1	1	0	1	1
65	564	10	10000	1	1	0	1	1
64	565	10	10000	1	1	0	1	1
67	566	10	10000	1	1	0	1	1
66	567	10	10000	1	1	0	1	1
66	568	10	10000	1	1	0	1	1
65	569	10	10000	1	1	0	1	1
62	570	10	10000	1	1	0	1	1
60	571	10	10000	1	1	0	1	1
59	572	10	10000	1	1	0	1	1
59	573	10	10000	1	1	0	1	1
63	574	10	10000	1	1	0	1	1
62	575	10	10000	1	1	0	1	1
60	576	10	10000	1	1	0	1	1
58	577	10	10000	1	1	0	1	1
55	578	10	10000	1	1	0	1	1
54	579	10	10000	1	1	0	1	1
54	580	10	10000	1	1	0	1	1
57	581	10	10000	1	1	0	1	1
56	582	10	10000	1	1	0	1	1
57	583	10	10000	1	1	0	1	1
55	584	10	10000	1	1	0	1	1
52	585	10	10000	1	1	0	1	1
51	586	10	10000	1	1	0	1	1
50	587	10	10000	1	1	0	1	1
54	588	10	10000	1	1	0	1	1
54	589	10	10000	1	1	0	1	1
56	590	10	10000	1	1	0	1	1
56	591	10	10000	1	1	0	1	1
54	592	10	10000	1	1	0	1	1
53	593	10	10000	1	1	0	1	1
54	594	10	10000	1	1	0	1	1
57	595	10	10000	1	1	0	1	1
59	596	10	10000	1	1	0	1	1
57	597	10	10000	1	1	0	1	1
55	598	10	10000	1	1	0	1	1
54	599	10	10000	1	1	0	1	1
53	600	10	10000	1	1	0	1	1
54	601	10	10000	1	1	0	1	1
55	602	10	10000	1	1	0	1	1
58	603	10	10000	1	1	0	1	1
56	604	10	10000	1	1	0	1	1
55	605	10	10000	1	1	0	1	1
53	606	10	10000	1	1	0	1	1
51	607	10	10000	1	1	0	1	1
50	608	10	10000	1	1	0	1	1
50	609	10	10000	1	1	0	1	1
55	610	10	10000	1	1	0	1	1
59	611	10	10000	1	1	0	1	1
57	612	10	10000	1	1	0	1	1
56	613	10	10000	1	1	0	1	1
54	614	10	10000	1	1	0	1	1
53	562	10	10000	1	1	0	1	0
51	563	10	10000	1	1	0	1	0
56	564	10	10000	1	1	0	1	0
60	565	10	10000	1	1	0	1	0
59	564	10	10000	1	1	0	1	0
59	565	10	10000	1	1	0	1	0
57	566	10	10000	1	1	0	1	0
57	567	10	10000	1	1	0	1	0
59	568	10	10000	1	1	0	1	0
58	569	10	10000	1	1	0	1	0
59	570	10	10000	1	1	0	1	0
58	571	10	10000	1	1	0	1	0
58	572	10	10000	1	1	0	1	0
57	573	10	10000	1	1	0	1	0
55	574	10	10000	1	1	0	1	0
53	575	10	10000	1	1	0	1	0
53	576	10	10000	1	1	0	1	0
55	577	10	10000	1	1	0	1	0
56	578	10	10000	1	1	0	1	0
56	579	10	10000	1	1	0	1	0
59	580	10	10000	1	1	0	1	0
57	581	10	10000	1	1	0	1	0
56	582	10	10000	1	1	0	1	0
56	583	10	10000	1	1	0	1	0
57	584	10	10000	1	1	0	1	0
59	585	10	10000	1	1	0	1	0
58	586	10	10000	1	1	0	1	0
56	587	10	10000	1	1	0	1	0
55	588	10	10000	1	1	0	1	0
51	589	10	10000	1	1	0	1	0
49	590	10	10000	1	1	0	1	0
50	591	10	10000	1	1	0	1	0
56	592	10	10000	1	1	0	1	0
56	593	10	10000	1	1	0	1	0
57	594	10	10000	1	1	0	1	0
57	595	10	10000	1	1	0	1	0
56	596	10	10000	1	1	0	1	0
56	597	10	10000	1	1	0	1	0
56	598	10	10000	1	1	0	1	0
58	599	10	10000	1	1	0	1	0
60	600	10	10000	1	1	0	1	0
58	601	10	10000	1	1	0	1	0
58	602	10	10000	1	1	0	1	0
59	603	10	10000	1	1	0	1	0
59	604	10	10000	1	1	0	1	0
61	605	10	10000	1	1	0	1	0
62	606	10	10000	1	1	0	1	0
66	607	10	10000	1	1	0	1	0
66	608	10	10000	1	1	0	1	0
63	609	10	10000	1	1	0	1	0
59	610	10	10000	1	1	0	1	0
58	611	10	10000	1	1	0	1	0
58	612	10	10000	1	1	0	1	0
59	613	10	10000	1	1	0	1	0
63	614	10	10000	1	1	0	1	0
63	615	10	10000	1	1	0	1	0
62	616	10	10000	1	1	0	1	0
60	617	10	10000	1	1	0	1	0
61	618	10	10000	1	1	0	1	0
65	619	10	10000	1	1	0	1	0
66	620	10	10000	1	1	0	1	0
71	621	10	10000	1	1	0	1	0
71	622	10	10000	1	1	0	1	0
69	623	10	10000	1	1	0	1	0
67	624	10	10000	1	1	0	1	0
65	625	10	10000	1	1	0	1	0
65	626	10	10000	1	1	0	1	0
65	627	10	10000	1	1	0	1	0
66	628	10	10000	1	1	0	1	0
65	629	10	10000	1	1	0	1	0
63	630	10	10000	1	1	0	1	0
62	631	10	10000	1	1	0	1	0
61	632	10	10000	1	1	0	1	0
59	633	10	10000	1	1	0	1	0
59	634	10	10000	1	1	0	1	0
60	635	10	10000	1	1	0	1	0
64	636	10	10000	1	1	0	1	0
63	637	10	10000	1	1	0	1	0
62	638	10	10000	1	1	0	1	0
61	639	10	10000	1	1	0	1	0
60	640	10	10000	1	1	0	1	0
59	641	10	10000	1	1	0	1	0
58	642	10	10000	1	1	0	1	0
60	643	10	10000	1	1	0	1	0
58	644	10	10000	1	1	0	1	0
56	645	10	10000	1	1	0	1	0
56	646	10	10000	1	1	0	1	0
57	647	10	10000	1	1	0	1	0
62	648	10	10000	1	1	0	1	0
62	649	10	10000	1	1	0	1	0
100	650	10	10000	1	1	0	1	0
157	651	10	10000	1	1	0	1	0
180	652	10	10000	1	1	0	1	0
181	653	10	10000	1	1	0	1	0
205	654	10	10000	1	1	0	1	0
223	655	10	10000	1	1	0	1	0
215	656	10	10000	1	1	0	1	0
216	657	10	10000	1	1	0	1	0
249	658	10	10000	1	1	0	1	0
254	659	10	10000	1	1	0	1	0
273	660	10	10000	1	1	0	1	0
309	661	10	10000	1	1	0	1	0
308	662	10	10000	1	1	0	1	0
308	663	10	10000	1	1	0	1	0
347	664	10	10000	1	1	0	1	0
379	665	10	10000	1	1	0	1	0
461	666	10	10000	1	1	0	1	0
637	667	10	10000	1	1	0	1	0
784	668	10	10000	1	1	0	1	0
799	669	10	10000	1	1	0	1	0
864	670	10	10000	1	1	0	1	0
938	671	10	10000	1	1	0	1	0
1002	672	10	10000	1	1	0	1	0
1043	673	10	10000	1	1	0	1	0
1050	674	10	10000	1	1	0	1	0
1054	675	10	10000	1	1	0	1	0
1069	676	10	10000	1	1	0	1	0
1075	677	10	10000	1	1	0	1	0
1060	678	10	10000	1	1	0	1	0
1020	679	10	10000	1	1	0	1	0
976	680	10	10000	1	1	0	1	0
939	681	10	10000	1	1	0	1	0
913	682	10	10000	1	1	0	1	0
889	683	10	10000	1	1	0	1	0
870	684	10	10000	1	1	0	1	0
850	685	10	10000	1	1	0	1	0
832	686	10	10000	1	1	0	1	0
808	687	10	10000	1	1	0	1	0
784	688	10	10000	1	1	0	1	0
767	689	10	10000	1	1	0	1	0
752	690	10	10000	1	1	0	1	0
742	691	10	10000	1	1	0	1	0
731	692	10	10000	1	1	0	1	0
721	693	10	10000	1	1	0	1	0
705	694	10	10000	1	1	0	1	0
683	695	10	10000	1	1	0	1	0
666	696	10	10000	1	1	0	1	0
653	697	10	10000	1	1	0	1	0
636	698	10	10000	1	1	0	1	0
619	699	10	10000	1	1	0	1	0
600	700	10	10000	1	1	0	1	0
575	701	10	10000	1	1	0	1	0
554	702	10	10000	1	1	0	1	0
533	703	10	10000	1	1	0	1	0
513	704	10	10000	1	1	0	1	0
496	705	10	10000	1	1	0	1	0
484	706	10	10000	1	1	0	1	0
476	707	10	10000	1	1	0	1	0
465	708	10	10000	1	1	0	1	0
459	709	10	10000	1	1	0	1	0
454	710	10	10000	1	1	0	1	0
442	711	10	10000	1	1	0	1	0
430	712	10	10000	1	1	0	1	0
420	713	10	10000	1	1	0	1	0
411	714	10	10000	1	1	0	1	0
401	715	10	10000	1	1	0	1	0
392	716	10	10000	1	1	0	1	0
390	717	10	10000	1	1	0	1	0
386	718	10	10000	1	1	0	1	0
381	719	10	10000	1	1	0	1	0
378	719	10	10000	1	1	0	1	0
375	720	10	10000	1	1	0	1	0
375	722	10	10000	1	1	0	1	0
374	723	10	10000	1	1	0	1	0
382	724	10	10000	1	1	0	1	0
390	725	10	10000	1	1	0	1	0
390	726	10	10000	1	1	0	1	0
387	727	10	10000	1	1	0	1	0
382	728	10	10000	1	1	0	1	0
376	729	10	10000	1	1	0	1	0
366	730	10	10000	1	1	0	1	0
358	731	10	10000	1	1	0	1	0
354	732	10	10000	1	1	0	1	0
343	733	10	10000	1	1	0	1	0
328	734	10	10000	1	1	0	1	0
313	735	10	10000	1	1	0	1	0
302	736	10	10000	1	1	0	1	0
289	737	10	10000	1	1	0	1	0
279	738	10	10000	1	1	0	1	0
271	739	10	10000	1	1	0	1	0
263	740	10	10000	1	1	0	1	0
252	741	10	10000	1	1	0	1	0
241	742	10	10000	1	1	0	1	0
230	743	10	10000	1	1	0	1	0
220	744	10	10000	1	1	0	1	0
212	745	10	10000	1	1	0	1	0
205	746	10	10000	1	1	0	1	0
203	747	10	10000	1	1	0	1	0
196	748	10	10000	1	1	0	1	0
192	749	10	10000	1	1	0	1	0
189	750	10	10000	1	1	0	1	0
189	751	10	10000	1	1	0	1	0
192	752	10	10000	1	1	0	1	0
192	753	10	10000	1	1	0	1	0
187	754	10	10000	1	1	0	1	0
189	755	10	10000	1	1	0	1	0
197	756	10	10000	1	1	0	1	0
202	757	10	10000	1	1	0	1	0
205	758	10	10000	1	1	0	1	0
208	759	10	10000	1	1	0	1	0
209	760	10	10000	1	1	0	1	0
201	761	10	10000	1	1	0	1	0
194	762	10	10000	1	1	0	1	0
191	763	10	10000	1	1	0	1	0
188	764	10	10000	1	1	0	1	0
182	765	10	10000	1	1	0	1	0
177	766	10	10000	1	1	0	1	0
175	767	10	10000	1	1	0	1	0
172	768	10	10000	1	1	0	1	0
164	769	10	10000	1	1	0	1	0
161	770	10	10000	1	1	0	1	0
164	771	10	10000	1	1	0	1	0
165	772	10	10000	1	1	0	1	0
168	773	10	10000	1	1	0	1	0
172	774	10	10000	1	1	0	1	0
175	775	10	10000	1	1	0	1	0
171	776	10	10000	1	1	0	1	0
170	777	10	10000	1	1	0	1	0
173	778	10	10000	1	1	0	1	0
178	779	10	10000	1	1	0	1	0
179	780	10	10000	1	1	0	1	0
178	781	10	10000	1	1	0	1	0
176	782	10	10000	1	1	0	1	0
171	783	10	10000	1	1	0	1	0
167	784	10	10000	1	1	0	1	0
162	785	10	10000	1	1	0	1	0
155	786	10	10000	1	1	0	1	0
150	787	10	10000	1	1	0	1	0
146	788	10	10000	1	1	0	1	0
144	789	10	10000	1	1	0	1	0
139	790	10	10000	1	1	0	1	0
135	791	10	10000	1	1	0	1	0
134	792	10	10000	1	1	0	1	0
136	793	10	10000	1	1	0	1	0
137	794	10	10000	1	1	0	1	0
139	795	10	10000	1	1	0	1	0
141	796	10	10000	1	1	0	1	0
142	797	10	10000	1	1	0	1	0
137	798	10	10000	1	1	0	1	0
132	799	10	10000	1	1	0	1	0
132	800	10	10000	1	1	0	1	0
129	801	10	10000	1	1	0	1	0
124	802	10	10000	1	1	0	1	0
119	803	10	10000	1	1	0	1	0
116	804	10	10000	1	1	0	1	0
117	805	10	10000	1	1	0	1	0
118	806	10	10000	1	1	0	1	0
115	807	10	10000	1	1	0	1	0
111	808	10	10000	1	1	0	1	0
104	809	10	10000	1	1	0	1	0
99	810	10	10000	1	1	0	1	0
98	811	10	10000	1	1	0	1	0
96	812	10	10000	1	1	0	1	0
94	813	10	10000	1	1	0	1	0
93	814	10	10000	1	1	0	1	0
95	815	10	10000	1	1	0	1	0
95	816	10	10000	1	1	0	1	0
93	817	10	10000	1	1	0	1	0
92	818	10	10000	1	1	0	1	0
92	819	10	10000	1	1	0	1	0
93	820	10	10000	1	1	0	1	0
89	821	10	10000	1	1	0	1	0
87	822	10	10000	1	1	0	1	0
84	823	10	10000	1	1	0	1	0
84	824	10	10000	1	1	0	1	0
84	825	10	10000	1	1	0	1	0
83	826	10	10000	1	1	0	1	0
90	827	10	10000	1	1	0	1	0
95	828	10	10000	1	1	0	1	0
91	829	10	10000	1	1	0	1	0
86	830	10	10000	1	1	0	1	0
85	831	10	10000	1	1	0	1	0
84	832	10	10000	1	1	0	1	0
85	833	10	10000	1	1	0	1	0
85	834	10	10000	1	1	0	1	0
84	835	10	10000	1	1	0	1	0
82	836	10	10000	1	1	0	1	0
86	837	10	10000	1	1	0	1	0
85	838	10	10000	1	1	0	1	0
84	839	10	10000	1	1	0	1	0
84	840	10	10000	1	1	0	1	0
83	841	10	10000	1	1	0	1	0
87	842	10	10000	1	1	0	1	0
88	843	10	10000	1	1	0	1	0
87	844	10	10000	1	1	0	1	0
86	845	10	10000	1	1	0	1	0
85	846	10	10000	1	1	0	1	0
85	847	10	10000	1	1	0	1	0
83	848	10	10000	1	1	0	1	0
85	849	10	10000	1	1	0	1	0
83	850	10	10000	1	1	0	1	0
83	851	10	10000	1	1	0	1	0
82	852	10	10000	1	1	0	1	0
82	853	10	10000	1	1	0	1	0
81	854	10	10000	1	1	0	1	0
82	855	10	10000	1	1	0	1	0
81	856	10	10000	1	1	0	1	0
79	857	10	10000	1	1	0	1	0
78	858	10	10000	1	1	0	1	0
78	859	10	10000	1	1	0	1	0
77	860	10	10000	1	1	0	1	0
73	861	10	10000	1	1	0	1	0
70	862	10	10000	1	1	0	1	0
73	863	10	10000	1	1	0	1	0
79	864	10	10000	1	1	0	1	0
81	865	10	10000	1	1	0	1	0
80	866	10	10000	1	1	0	1	0
81	867	10	10000	1	1	0	1	0
81	868	10	10000	1	1	0	1	0
77	869	10	10000	1	1	0	1	0
75	870	10	10000	1	1	0	1	0
76	871	10	10000	1	1	0	1	0
74	872	10	10000	1	1	0	1	0
76	873	10	10000	1	1	0	1	0
74	874	10	10000	1	1	0	1	0
72	875	10	10000	1	1	0	1	0
71	876	10	10000	1	1	0	1	0
72	877	10	10000	1	1	0	1	0
71	878	10	10000	1	1	0	1	0
69	879	10	10000	1	1	0	1	0
71	880	10	10000	1	1	0	1	0
68	881	10	10000	1	1	0	1	0
65	882	10	10000	1	1	0	1	0
63	883	10	10000	1	1	0	1	0
61	884	10	10000	1	1	0	1	0
69	885	10	10000	1	1	0	1	0
76	886	10	10000	1	1	0	1	0
75	887	10	10000	1	1	0	1	0
72	888	10	10000	1	1	0	1	0
69	889	10	10000	1	1	0	1	0
65	890	10	10000	1	1	0	1	0
64	891	10	10000	1	1	0	1	0
68	892	10	10000	1	1	0	1	0
69	893	10	10000	1	1	0	1	0
68	894	10	10000	1	1	0	1	0
68	895	10	10000	1	1	0	1	0
68	896	10	10000	1	1	0	1	0
67	897	10	10000	1	1	0	1	0
68	898	10	10000	1	1	0	1	0
70	899	10	10000	1	1	0	1	0
70	900	10	10000	1	1	0	1	0
68	901	10	10000	1	1	0	1	0
65	902	10	10000	1	1	0	1	0
63	903	10	10000	1	1	0	1	0
63	904	10	10000	1	1	0	1	0
61	905	10	10000	1	1	0	1	0
62	906	10	10000	1	1	0	1	0
68	907	10	10000	1	1	0	1	0
68	908	10	10000	1	1	0	1	0
65	909	10	10000	1	1	0	1	0
62	910	10	10000	1	1	0	1	0
60	911	10	10000	1	1	0	1	0
62	912	10	10000	1	1	0	1	0
62	913	10	10000	1	1	0	1	0
62	914	10	10000	1	1	0	1	0
62	915	10	10000	1	1	0	1	0
66	916	10	10000	1	1	0	1	0
68	917	10	10000	1	1	0	1	0
68	918	10	10000	1	1	0	1	0
68	919	10	10000	1	1	0	1	0
68	920	10	10000	1	1	0	1	0
73	921	10	10000	1	1	0	1	0
74	922	10	10000	1	1	0	1	0
70	923	10	10000	1	1	0	1	0
69	924	10	10000	1	1	0	1	0
66	925	10	10000	1	1	0	1	0
65	926	10	10000	1	1	0	1	0
63	927	10	10000	1	1	0	1	0
67	928	10	10000	1	1	0	1	0
66	929	10	10000	1	1	0	1	0
64	930	10	10000	1	1	0	1	0
62	931	10	10000	1	1	0	1	0
60	932	10	10000	1	1	0	1	0
59	933	10	10000	1	1	0	1	0
59	934	10	10000	1	1	0	1	0
61	935	10	10000	1	1	0	1	0
59	936	10	10000	1	1	0	1	0
61	937	10	10000	1	1	0	1	0
66	938	10	10000	1	1	0	1	0
67	939	10	10000	1	1	0	1	0
66	940	10	10000	1	1	0	1	0
64	941	10	10000	1	1	0	1	0
68	942	10	10000	1	1	0	1	0
72	943	10	10000	1	1	0	1	0
70	944	10	10000	1	1	0	1	0
67	945	10	10000	1	1	0	1	0
64	946	10	10000	1	1	0	1	0
62	947	10	10000	1	1	0	1	0
61	948	10	10000	1	1	0	1	0
60	949	10	10000	1	1	0	1	0
61	950	10	10000	1	1	0	1	0
61	951	10	10000	1	1	0	1	0
64	952	10	10000	1	1	0	1	0
63	953	10	10000	1	1	0	1	0
61	954	10	10000	1	1	0	1	0
61	955	10	10000	1	1	0	1	0
61	956	10	10000	1	1	0	1	0
63	957	10	10000	1	1	0	1	0
63	958	10	10000	1	1	0	1	0
64	959	10	10000	1	1	0	1	0
65	960	10	10000	1	1	0	1	0
63	961	10	10000	1	1	0	1	0
61	962	10	10000	1	1	0	1	0
60	963	10	10000	1	1	0	1	0
65	964	10	10000	1	1	0	1	0
70	965	10	10000	1	1	0	1	0
71	966	10	10000	1	1	0	1	0
69	967	10	10000	1	1	0	1	0
67	968	10	10000	1	1	0	1	0
63	969	10	10000	1	1	0	1	0
60	970	10	10000	1	1	0	1	0
63	971	10	10000	1	1	0	1	0
67	972	10	10000	1	1	0	1	0
65	973	10	10000	1	1	0	1	0
64	974	10	10000	1	1	0	1	0
63	975	10	10000	1	1	0	1	0
64	976	10	10000	1	1	0	1	0
65	977	10	10000	1	1	0	1	0
66	978	10	10000	1	1	0	1	0
66	979	10	10000	1	1	0	1	0
66	980	10	10000	1	1	0	1	0
66	981	10	10000	1	1	0	1	0
64	982	10	10000	1	1	0	1	0
62	983	10	10000	1	1	0	1	0
60	984	10	10000	1	1	0	1	0
58	985	10	10000	1	1	0	1	0
62	986	10	10000	1	1	0	1	0
67	987	10	10000	1	1	0	1	0
65	988	10	10000	1	1	0	1	0
61	989	10	10000	1	1	0	1	0
59	990	10	10000	1	1	0	1	0
57	991	10	10000	1	1	0	1	0
56	992	10	10000	1	1	0	1	0
60	993	10	10000	1	1	0	1	0
59	994	10	10000	1	1	0	1	0
59	995	10	10000	1	1	0	1	0
61	996	10	10000	1	1	0	1	0
60	997	10	10000	1	1	0	1	0
57	998	10	10000	1	1	0	1	0
58	999	10	10000	1	1	0	1	0
60	1000	10	10000	1	1	0	1	0
63	1001	10	10000	1	1	0	1	0
56	1	1	10000	2	1	0	2	0
56	2	1	10000	2	1	0	2	0
57	3	1	10000	2	1	0	2	0
56	4	1	10000	2	1	0	2	0
55	5	1	10000	2	1	0	2	0
53	6	1	10000	2	1	0	2	0
50	7	1	10000	2	1	0	2	0
48	8	1	10000	2	1	0	2	0
48	9	1	10000	2	1	0	2	0
47	10	1	10000	2	1	0	2	0
44	11	1	10000	2	1	0	2	0
43	12	1	10000	2	1	0	2	0
42	13	1	10000	2	1	0	2	0
40	14	1	10000	2	1	0	2	0
39	15	1	10000	2	1	0	2	0
39	16	1	10000	2	1	0	2	0
38	17	1	10000	2	1	0	2	0
36	18	1	10000	2	1	0	2	0
33	19	1	10000	2	1	0	2	0
33	20	1	10000	2	1	0	2	0
33	21	1	10000	2	1	0	2	0
33	22	1	10000	2	1	0	2	0
32	23	1	10000	2	1	0	2	0
32	24	1	10000	2	1	0	2	0
30	25	1	10000	2	1	0	2	0
29	26	1	10000	2	1	0	2	0
29	27	1	10000	2	1	0	2	0
30	28	1	10000	2	1	0	2	0
31	29	1	10000	2	1	0	2	0
31	30	1	10000	2	1	0	2	0
30	31	1	10000	2	1	0	2	0
30	32	1	10000	2	1	0	2	0
28	33	1	10000	2	1	0	2	0
28	34	1	10000	2	1	0	2	0
30	35	1	10000	2	1	0	2	0
30	36	1	10000	2	1	0	2	0
30	37	1	10000	2	1	0	2	0
30	38	1	10000	2	1	0	2	0
27	39	1	10000	2	1	0	2	0
27	40	1	10000	2	1	0	2	0
27	41	1	10000	2	1	0	2	0
26	42	1	10000	2	1	0	2	0
28	43	1	10000	2	1	0	2	0
30	44	1	10000	2	1	0	2	0
30	45	1	10000	2	1	0	2	0
30	46	1	10000	2	1	0	2	0
29	47	1	10000	2	1	0	2	0
28	48	1	10000	2	1	0	2	0
31	49	1	10000	2	1	0	2	0
31	50	1	10000	2	1	0	2	0
30	51	1	10000	2	1	0	2	0
29	52	1	10000	2	1	0	2	0
29	53	1	10000	2	1	0	2	0
28	54	1	10000	2	1	0	2	0
28	55	1	10000	2	1	0	2	0
28	56	1	10000	2	1	0	2	0
27	57	1	10000	2	1	0	2	0
28	58	1	10000	2	1	0	2	0
25	59	1	10000	2	1	0	2	0
26	60	1	10000	2	1	0	2	0
27	61	1	10000	2	1	0	2	0
26	62	1	10000	2	1	0	2	0
25	63	1	10000	2	1	0	2	0
25	64	1	10000	2	1	0	2	0
24	65	1	10000	2	1	0	2	0
23	66	1	10000	2	1	0	2	0
22	67	1	10000	2	1	0	2	0
25	68	1	10000	2	1	0	2	0
29	69	1	10000	2	1	0	2	0
29	70	1	10000	2	1	0	2	0
29	71	1	10000	2	1	0	2	0
28	72	1	10000	2	1	0	2	0
28	73	1	10000	2	1	0	2	0
27	74	1	10000	2	1	0	2	0
25	75	1	10000	2	1	0	2	0
28	76	1	10000	2	1	0	2	0
29	77	1	10000	2	1	0	2	0
29	78	1	10000	2	1	0	2	0
27	79	1	10000	2	1	0	2	0
27	80	1	10000	2	1	0	2	0
26	81	1	10000	2	1	0	2	0
26	82	1	10000	2	1	0	2	0
26	83	1	10000	2	1	0	2	0
28	84	1	10000	2	1	0	2	0
27	85	1	10000	2	1	0	2	0
27	86	1	10000	2	1	0	2	0
27	87	1	10000	2	1	0	2	0
25	88	1	10000	2	1	0	2	0
28	89	1	10000	2	1	0	2	0
29	90	1	10000	2	1	0	2	0
28	91	1	10000	2	1	0	2	0
27	92	1	10000	2	1	0	2	0
28	93	1	10000	2	1	0	2	0
28	94	1	10000	2	1	0	2	0
26	95	1	10000	2	1	0	2	0
27	96	1	10000	2	1	0	2	0
26	97	1	10000	2	1	0	2	0
26	98	1	10000	2	1	0	2	0
25	99	1	10000	2	1	0	2	0
25	100	1	10000	2	1	0	2	0
26	101	1	10000	2	1	0	2	0
26	102	1	10000	2	1	0	2	0
25	103	1	10000	2	1	0	2	0
25	104	1	10000	2	1	0	2	0
25	105	1	10000	2	1	0	2	0
24	106	1	10000	2	1	0	2	0
24	107	1	10000	2	1	0	2	0
23	108	1	10000	2	1	0	2	0
25	109	1	10000	2	1	0	2	0
26	110	1	10000	2	1	0	2	0
25	111	1	10000	2	1	0	2	0
25	112	1	10000	2	1	0	2	0
24	113	1	10000	2	1	0	2	0
23	114	1	10000	2	1	0	2	0
22	115	1	10000	2	1	0	2	0
23	116	1	10000	2	1	0	2	0
23	117	1	10000	2	1	0	2	0
23	118	1	10000	2	1	0	2	0
22	119	1	10000	2	1	0	2	0
23	120	1	10000	2	1	0	2	0
21	121	1	10000	2	1	0	2	0
22	122	1	10000	2	1	0	2	0
22	123	1	10000	2	1	0	2	0
22	124	1	10000	2	1	0	2	0
21	125	1	10000	2	1	0	2	0
22	126	1	10000	2	1	0	2	0
22	127	1	10000	2	1	0	2	0
22	128	1	10000	2	1	0	2	0
25	129	1	10000	2	1	0	2	0
24	130	1	10000	2	1	0	2	0
23	131	1	10000	2	1	0	2	0
21	132	1	10000	2	1	0	2	0
21	133	1	10000	2	1	0	2	0
22	134	1	10000	2	1	0	2	0
23	135	1	10000	2	1	0	2	0
25	136	1	10000	2	1	0	2	0
23	137	1	10000	2	1	0	2	0
23	138	1	10000	2	1	0	2	0
21	139	1	10000	2	1	0	2	0
21	140	1	10000	2	1	0	2	0
22	141	1	10000	2	1	0	2	0
24	142	1	10000	2	1	0	2	0
25	143	1	10000	2	1	0	2	0
27	144	1	10000	2	1	0	2	0
28	145	1	10000	2	1	0	2	0
26	146	1	10000	2	1	0	2	0
25	147	1	10000	2	1	0	2	0
24	148	1	10000	2	1	0	2	0
26	149	1	10000	2	1	0	2	0
25	150	1	10000	2	1	0	2	0
23	151	1	10000	2	1	0	2	0
23	152	1	10000	2	1	0	2	0
23	153	1	10000	2	1	0	2	0
23	154	1	10000	2	1	0	2	0
23	155	1	10000	2	1	0	2	0
24	156	1	10000	2	1	0	2	0
24	157	1	10000	2	1	0	2	0
23	158	1	10000	2	1	0	2	0
24	159	1	10000	2	1	0	2	0
24	160	1	10000	2	1	0	2	0
23	161	1	10000	2	1	0	2	0
25	162	1	10000	2	1	0	2	0
23	163	1	10000	2	1	0	2	0
23	164	1	10000	2	1	0	2	0
23	165	1	10000	2	1	0	2	0
21	166	1	10000	2	1	0	2	0
21	167	1	10000	2	1	0	2	0
22	168	1	10000	2	1	0	2	0
23	169	1	10000	2	1	0	2	0
23	170	1	10000	2	1	0	2	0
24	171	1	10000	2	1	0	2	0
24	172	1	10000	2	1	0	2	0
23	173	1	10000	2	1	0	2	0
23	174	1	10000	2	1	0	2	0
24	175	1	10000	2	1	0	2	0
29	176	1	10000	2	1	0	2	0
32	177	1	10000	2	1	0	2	0
31	178	1	10000	2	1	0	2	0
29	179	1	10000	2	1	0	2	0
29	180	1	10000	2	1	0	2	0
31	181	1	10000	2	1	0	2	0
32	182	1	10000	2	1	0	2	0
32	183	1	10000	2	1	0	2	0
33	184	1	10000	2	1	0	2	0
36	185	1	10000	2	1	0	2	0
35	186	1	10000	2	1	0	2	0
33	187	1	10000	2	1	0	2	0
33	188	1	10000	2	1	0	2	0
33	189	1	10000	2	1	0	2	0
32	190	1	10000	2	1	0	2	0
32	191	1	10000	2	1	0	2	0
31	192	1	10000	2	1	0	2	0
29	193	1	10000	2	1	0	2	0
28	194	1	10000	2	1	0	2	0
28	195	1	10000	2	1	0	2	0
27	196	1	10000	2	1	0	2	0
27	197	1	10000	2	1	0	2	0
26	198	1	10000	2	1	0	2	0
23	199	1	10000	2	1	0	2	0
25	200	1	10000	2	1	0	2	0
26	201	1	10000	2	1	0	2	0
26	202	1	10000	2	1	0	2	0
27	203	1	10000	2	1	0	2	0
27	204	1	10000	2	1	0	2	0
27	205	1	10000	2	1	0	2	0
26	206	1	10000	2	1	0	2	0
27	207	1	10000	2	1	0	2	0
28	208	1	10000	2	1	0	2	0
31	209	1	10000	2	1	0	2	0
31	210	1	10000	2	1	0	2	0
31	211	1	10000	2	1	0	2	0
30	212	1	10000	2	1	0	2	0
30	213	1	10000	2	1	0	2	0
30	214	1	10000	2	1	0	2	0
29	215	1	10000	2	1	0	2	0
28	216	1	10000	2	1	0	2	0
30	217	1	10000	2	1	0	2	0
29	218	1	10000	2	1	0	2	0
26	219	1	10000	2	1	0	2	0
27	220	1	10000	2	1	0	2	0
27	221	1	10000	2	1	0	2	0
26	222	1	10000	2	1	0	2	0
25	223	1	10000	2	1	0	2	0
24	224	1	10000	2	1	0	2	0
25	225	1	10000	2	1	0	2	0
25	226	1	10000	2	1	0	2	0
25	227	1	10000	2	1	0	2	0
24	228	1	10000	2	1	0	2	0
27	229	1	10000	2	1	0	2	0
26	230	1	10000	2	1	0	2	0
25	231	1	10000	2	1	0	2	0
24	232	1	10000	2	1	0	2	0
25	233	1	10000	2	1	0	2	0
25	234	1	10000	2	1	0	2	0
24	235	1	10000	2	1	0	2	0
24	236	1	10000	2	1	0	2	0
25	237	1	10000	2	1	0	2	0
24	238	1	10000	2	1	0	2	0
21	239	1	10000	2	1	0	2	0
23	240	1	10000	2	1	0	2	0
23	241	1	10000	2	1	0	2	0
25	242	1	10000	2	1	0	2	0
25	243	1	10000	2	1	0	2	0
25	244	1	10000	2	1	0	2	0
28	245	1	10000	2	1	0	2	0
28	246	1	10000	2	1	0	2	0
27	247	1	10000	2	1	0	2	0
26	248	1	10000	2	1	0	2	0
27	249	1	10000	2	1	0	2	0
27	250	1	10000	2	1	0	2	0
27	251	1	10000	2	1	0	2	0
26	252	1	10000	2	1	0	2	0
26	253	1	10000	2	1	0	2	0
25	254	1	10000	2	1	0	2	0
25	255	1	10000	2	1	0	2	0
25	256	1	10000	2	1	0	2	0
25	257	1	10000	2	1	0	2	0
26	258	1	10000	2	1	0	2	0
26	259	1	10000	2	1	0	2	0
27	260	1	10000	2	1	0	2	0
26	261	1	10000	2	1	0	2	0
26	262	1	10000	2	1	0	2	0
26	263	1	10000	2	1	0	2	0
25	264	1	10000	2	1	0	2	0
24	265	1	10000	2	1	0	2	0
23	266	1	10000	2	1	0	2	0
24	267	1	10000	2	1	0	2	0
25	268	1	10000	2	1	0	2	0
28	269	1	10000	2	1	0	2	0
28	270	1	10000	2	1	0	2	0
27	271	1	10000	2	1	0	2	0
27	272	1	10000	2	1	0	2	0
28	273	1	10000	2	1	0	2	0
28	274	1	10000	2	1	0	2	0
28	275	1	10000	2	1	0	2	0
30	276	1	10000	2	1	0	2	0
29	277	1	10000	2	1	0	2	0
30	278	1	10000	2	1	0	2	0
28	279	1	10000	2	1	0	2	0
27	280	1	10000	2	1	0	2	0
27	281	1	10000	2	1	0	2	0
27	282	1	10000	2	1	0	2	0
28	283	1	10000	2	1	0	2	0
30	284	1	10000	2	1	0	2	0
31	285	1	10000	2	1	0	2	0
30	286	1	10000	2	1	0	2	0
28	287	1	10000	2	1	0	2	0
28	288	1	10000	2	1	0	2	0
31	289	1	10000	2	1	0	2	0
28	290	1	10000	2	1	0	2	0
29	291	1	10000	2	1	0	2	0
28	292	1	10000	2	1	0	2	0
26	293	1	10000	2	1	0	2	0
27	294	1	10000	2	1	0	2	0
27	295	1	10000	2	1	0	2	0
28	296	1	10000	2	1	0	2	0
27	297	1	10000	2	1	0	2	0
26	298	1	10000	2	1	0	2	0
25	299	1	10000	2	1	0	2	0
25	300	1	10000	2	1	0	2	0
25	301	1	10000	2	1	0	2	0
25	302	1	10000	2	1	0	2	0
24	303	1	10000	2	1	0	2	0
25	304	1	10000	2	1	0	2	0
26	305	1	10000	2	1	0	2	0
26	306	1	10000	2	1	0	2	0
27	307	1	10000	2	1	0	2	0
27	308	1	10000	2	1	0	2	0
31	309	1	10000	2	1	0	2	0
30	310	1	10000	2	1	0	2	0
29	311	1	10000	2	1	0	2	0
29	312	1	10000	2	1	0	2	0
28	313	1	10000	2	1	0	2	0
30	314	1	10000	2	1	0	2	0
31	315	1	10000	2	1	0	2	0
31	316	1	10000	2	1	0	2	0
31	317	1	10000	2	1	0	2	0
31	318	1	10000	2	1	0	2	0
28	319	1	10000	2	1	0	2	0
27	320	1	10000	2	1	0	2	0
28	321	1	10000	2	1	0	2	0
28	322	1	10000	2	1	0	2	0
28	323	1	10000	2	1	0	2	0
29	324	1	10000	2	1	0	2	0
29	325	1	10000	2	1	0	2	0
27	326	1	10000	2	1	0	2	0
29	327	1	10000	2	1	0	2	0
28	328	1	10000	2	1	0	2	0
29	329	1	10000	2	1	0	2	0
28	330	1	10000	2	1	0	2	0
28	331	1	10000	2	1	0	2	0
28	332	1	10000	2	1	0	2	0
29	333	1	10000	2	1	0	2	0
32	334	1	10000	2	1	0	2	0
36	335	1	10000	2	1	0	2	0
38	336	1	10000	2	1	0	2	0
41	337	1	10000	2	1	0	2	0
44	338	1	10000	2	1	0	2	0
45	339	1	10000	2	1	0	2	0
49	340	1	10000	2	1	0	2	0
52	341	1	10000	2	1	0	2	0
53	342	1	10000	2	1	0	2	0
59	343	1	10000	2	1	0	2	0
67	344	1	10000	2	1	0	2	0
74	345	1	10000	2	1	0	2	0
79	346	1	10000	2	1	0	2	0
85	347	1	10000	2	1	0	2	0
93	348	1	10000	2	1	0	2	0
101	349	1	10000	2	1	0	2	0
107	350	1	10000	2	1	0	2	0
115	351	1	10000	2	1	0	2	0
123	352	1	10000	2	1	0	2	0
131	353	1	10000	2	1	0	2	0
137	354	1	10000	2	1	0	2	0
144	355	1	10000	2	1	0	2	0
150	356	1	10000	2	1	0	2	0
153	357	1	10000	2	1	0	2	0
156	358	1	10000	2	1	0	2	0
156	359	1	10000	2	1	0	2	0
161	360	1	10000	2	1	0	2	0
166	361	1	10000	2	1	0	2	0
168	362	1	10000	2	1	0	2	0
170	363	1	10000	2	1	0	2	0
174	364	1	10000	2	1	0	2	0
172	365	1	10000	2	1	0	2	0
165	366	1	10000	2	1	0	2	0
159	367	1	10000	2	1	0	2	0
152	368	1	10000	2	1	0	2	0
147	369	1	10000	2	1	0	2	0
142	370	1	10000	2	1	0	2	0
136	371	1	10000	2	1	0	2	0
129	372	1	10000	2	1	0	2	0
126	373	1	10000	2	1	0	2	0
125	374	1	10000	2	1	0	2	0
126	375	1	10000	2	1	0	2	0
128	376	1	10000	2	1	0	2	0
127	377	1	10000	2	1	0	2	0
124	378	1	10000	2	1	0	2	0
118	379	1	10000	2	1	0	2	0
115	380	1	10000	2	1	0	2	0
115	381	1	10000	2	1	0	2	0
120	382	1	10000	2	1	0	2	0
126	383	1	10000	2	1	0	2	0
131	384	1	10000	2	1	0	2	0
136	385	1	10000	2	1	0	2	0
139	386	1	10000	2	1	0	2	0
141	387	1	10000	2	1	0	2	0
144	388	1	10000	2	1	0	2	0
150	389	1	10000	2	1	0	2	0
156	390	1	10000	2	1	0	2	0
163	391	1	10000	2	1	0	2	0
168	392	1	10000	2	1	0	2	0
172	393	1	10000	2	1	0	2	0
175	394	1	10000	2	1	0	2	0
179	395	1	10000	2	1	0	2	0
182	396	1	10000	2	1	0	2	0
185	397	1	10000	2	1	0	2	0
188	398	1	10000	2	1	0	2	0
189	399	1	10000	2	1	0	2	0
192	400	1	10000	2	1	0	2	0
192	401	1	10000	2	1	0	2	0
191	402	1	10000	2	1	0	2	0
190	403	1	10000	2	1	0	2	0
188	404	1	10000	2	1	0	2	0
187	405	1	10000	2	1	0	2	0
183	406	1	10000	2	1	0	2	0
183	407	1	10000	2	1	0	2	0
183	408	1	10000	2	1	0	2	0
182	409	1	10000	2	1	0	2	0
177	410	1	10000	2	1	0	2	0
174	411	1	10000	2	1	0	2	0
171	412	1	10000	2	1	0	2	0
170	413	1	10000	2	1	0	2	0
167	414	1	10000	2	1	0	2	0
167	415	1	10000	2	1	0	2	0
169	416	1	10000	2	1	0	2	0
166	417	1	10000	2	1	0	2	0
162	418	1	10000	2	1	0	2	0
156	419	1	10000	2	1	0	2	0
152	420	1	10000	2	1	0	2	0
148	421	1	10000	2	1	0	2	0
145	422	1	10000	2	1	0	2	0
142	423	1	10000	2	1	0	2	0
140	424	1	10000	2	1	0	2	0
139	425	1	10000	2	1	0	2	0
135	426	1	10000	2	1	0	2	0
131	427	1	10000	2	1	0	2	0
127	428	1	10000	2	1	0	2	0
123	429	1	10000	2	1	0	2	0
117	430	1	10000	2	1	0	2	0
113	431	1	10000	2	1	0	2	0
110	432	1	10000	2	1	0	2	0
107	433	1	10000	2	1	0	2	0
104	434	1	10000	2	1	0	2	0
99	435	1	10000	2	1	0	2	0
95	436	1	10000	2	1	0	2	0
92	437	1	10000	2	1	0	2	0
89	438	1	10000	2	1	0	2	0
84	439	1	10000	2	1	0	2	0
82	440	1	10000	2	1	0	2	0
81	441	1	10000	2	1	0	2	0
80	442	1	10000	2	1	0	2	0
76	443	1	10000	2	1	0	2	0
73	444	1	10000	2	1	0	2	0
72	445	1	10000	2	1	0	2	0
68	446	1	10000	2	1	0	2	0
65	447	1	10000	2	1	0	2	0
64	448	1	10000	2	1	0	2	0
65	449	1	10000	2	1	0	2	0
63	450	1	10000	2	1	0	2	0
60	451	1	10000	2	1	0	2	0
58	452	1	10000	2	1	0	2	0
56	453	1	10000	2	1	0	2	0
54	454	1	10000	2	1	0	2	0
52	455	1	10000	2	1	0	2	0
51	456	1	10000	2	1	0	2	0
50	457	1	10000	2	1	0	2	0
48	458	1	10000	2	1	0	2	0
45	459	1	10000	2	1	0	2	0
46	460	1	10000	2	1	0	2	0
44	461	1	10000	2	1	0	2	0
43	462	1	10000	2	1	0	2	0
42	463	1	10000	2	1	0	2	0
40	464	1	10000	2	1	0	2	0
39	465	1	10000	2	1	0	2	0
38	466	1	10000	2	1	0	2	0
36	467	1	10000	2	1	0	2	0
37	468	1	10000	2	1	0	2	0
39	469	1	10000	2	1	0	2	0
38	470	1	10000	2	1	0	2	0
38	470	1	10000	2	1	0	2	0
37	471	1	10000	2	1	0	2	0
38	473	1	10000	2	1	0	2	0
37	474	1	10000	2	1	0	2	0
35	475	1	10000	2	1	0	2	0
34	476	1	10000	2	1	0	2	0
35	477	1	10000	2	1	0	2	0
33	478	1	10000	2	1	0	2	0
30	479	1	10000	2	1	0	2	0
31	480	1	10000	2	1	0	2	0
32	481	1	10000	2	1	0	2	0
32	482	1	10000	2	1	0	2	0
32	483	1	10000	2	1	0	2	0
32	484	1	10000	2	1	0	2	0
32	485	1	10000	2	1	0	2	0
33	486	1	10000	2	1	0	2	0
34	487	1	10000	2	1	0	2	0
36	488	1	10000	2	1	0	2	0
39	489	1	10000	2	1	0	2	0
39	490	1	10000	2	1	0	2	0
38	491	1	10000	2	1	0	2	0
38	492	1	10000	2	1	0	2	0
37	493	1	10000	2	1	0	2	0
36	494	1	10000	2	1	0	2	0
35	495	1	10000	2	1	0	2	0
35	496	1	10000	2	1	0	2	0
37	497	1	10000	2	1	0	2	0
39	498	1	10000	2	1	0	2	0
37	499	1	10000	2	1	0	2	0
36	500	1	10000	2	1	0	2	0
34	501	1	10000	2	1	0	2	1
35	502	1	10000	2	1	0	2	1
34	503	1	10000	2	1	0	2	1
34	504	1	10000	2	1	0	2	1
34	505	1	10000	2	1	0	2	1
34	506	1	10000	2	1	0	2	1
35	507	1	10000	2	1	0	2	1
35	508	1	10000	2	1	0	2	1
37	509	1	10000	2	1	0	2	1
35	510	1	10000	2	1	0	2	1
35	511	1	10000	2	1	0	2	1
34	512	1	10000	2	1	0	2	1
33	513	1	10000	2	1	0	2	1
33	514	1	10000	2	1	0	2	1
32	515	1	10000	2	1	0	2	1
32	516	1	10000	2	1	0	2	1
32	517	1	10000	2	1	0	2	1
31	518	1	10000	2	1	0	2	1
29	519	1	10000	2	1	0	2	1
31	520	1	10000	2	1	0	2	1
30	521	1	10000	2	1	0	2	1
29	522	1	10000	2	1	0	2	1
29	523	1	10000	2	1	0	2	1
28	524	1	10000	2	1	0	2	1
27	525	1	10000	2	1	0	2	1
26	526	1	10000	2	1	0	2	1
26	527	1	10000	2	1	0	2	1
28	528	1	10000	2	1	0	2	1
31	529	1	10000	2	1	0	2	1
30	530	1	10000	2	1	0	2	1
29	531	1	10000	2	1	0	2	1
27	532	1	10000	2	1	0	2	1
30	533	1	10000	2	1	0	2	1
33	534	1	10000	2	1	0	2	1
33	535	1	10000	2	1	0	2	1
35	536	1	10000	2	1	0	2	1
33	537	1	10000	2	1	0	2	1
33	538	1	10000	2	1	0	2	1
32	539	1	10000	2	1	0	2	1
32	540	1	10000	2	1	0	2	1
33	541	1	10000	2	1	0	2	1
33	542	1	10000	2	1	0	2	1
32	543	1	10000	2	1	0	2	1
31	544	1	10000	2	1	0	2	1
33	545	1	10000	2	1	0	2	1
35	546	1	10000	2	1	0	2	1
34	547	1	10000	2	1	0	2	1
34	548	1	10000	2	1	0	2	1
38	549	1	10000	2	1	0	2	1
36	550	1	10000	2	1	0	2	1
35	551	1	10000	2	1	0	2	0
34	552	1	10000	2	1	0	2	0
34	553	1	10000	2	1	0	2	0
34	554	1	10000	2	1	0	2	0
34	555	1	10000	2	1	0	2	0
36	556	1	10000	2	1	0	2	0
36	557	1	10000	2	1	0	2	0
36	558	1	10000	2	1	0	2	0
32	559	1	10000	2	1	0	2	0
32	560	1	10000	2	1	0	2	0
31	561	1	10000	2	1	0	2	0
31	562	1	10000	2	1	0	2	0
31	563	1	10000	2	1	0	2	0
30	564	1	10000	2	1	0	2	0
31	565	1	10000	2	1	0	2	0
30	566	1	10000	2	1	0	2	0
29	567	1	10000	2	1	0	2	0
31	568	1	10000	2	1	0	2	0
34	569	1	10000	2	1	0	2	0
32	570	1	10000	2	1	0	2	0
33	571	1	10000	2	1	0	2	0
34	572	1	10000	2	1	0	2	0
34	573	1	10000	2	1	0	2	0
35	574	1	10000	2	1	0	2	0
36	575	1	10000	2	1	0	2	0
36	576	1	10000	2	1	0	2	0
36	577	1	10000	2	1	0	2	0
37	578	1	10000	2	1	0	2	0
33	579	1	10000	2	1	0	2	0
32	580	1	10000	2	1	0	2	0
32	581	1	10000	2	1	0	2	0
32	582	1	10000	2	1	0	2	0
31	583	1	10000	2	1	0	2	0
31	584	1	10000	2	1	0	2	0
32	585	1	10000	2	1	0	2	0
31	586	1	10000	2	1	0	2	0
30	587	1	10000	2	1	0	2	0
29	588	1	10000	2	1	0	2	0
31	589	1	10000	2	1	0	2	0
29	590	1	10000	2	1	0	2	0
29	591	1	10000	2	1	0	2	0
29	592	1	10000	2	1	0	2	0
28	593	1	10000	2	1	0	2	0
27	594	1	10000	2	1	0	2	0
26	595	1	10000	2	1	0	2	0
26	596	1	10000	2	1	0	2	0
25	597	1	10000	2	1	0	2	0
29	598	1	10000	2	1	0	2	0
30	599	1	10000	2	1	0	2	0
36	600	1	10000	2	1	0	2	0
39	601	1	10000	2	1	0	2	0
43	602	1	10000	2	1	0	2	0
44	603	1	10000	2	1	0	2	0
51	604	1	10000	2	1	0	2	0
69	605	1	10000	2	1	0	2	0
108	606	1	10000	2	1	0	2	0
175	607	1	10000	2	1	0	2	0
199	608	1	10000	2	1	0	2	0
208	609	1	10000	2	1	0	2	0
212	610	1	10000	2	1	0	2	0
209	611	1	10000	2	1	0	2	0
229	612	1	10000	2	1	0	2	0
254	613	1	10000	2	1	0	2	0
270	614	1	10000	2	1	0	2	0
277	615	1	10000	2	1	0	2	0
290	616	1	10000	2	1	0	2	0
299	617	1	10000	2	1	0	2	0
290	618	1	10000	2	1	0	2	0
280	619	1	10000	2	1	0	2	0
269	620	1	10000	2	1	0	2	0
259	621	1	10000	2	1	0	2	0
254	622	1	10000	2	1	0	2	0
249	623	1	10000	2	1	0	2	0
242	624	1	10000	2	1	0	2	0
232	625	1	10000	2	1	0	2	0
221	626	1	10000	2	1	0	2	0
213	627	1	10000	2	1	0	2	0
207	628	1	10000	2	1	0	2	0
205	629	1	10000	2	1	0	2	0
203	630	1	10000	2	1	0	2	0
201	631	1	10000	2	1	0	2	0
206	632	1	10000	2	1	0	2	0
219	633	1	10000	2	1	0	2	0
222	634	1	10000	2	1	0	2	0
215	635	1	10000	2	1	0	2	0
214	636	1	10000	2	1	0	2	0
210	637	1	10000	2	1	0	2	0
201	638	1	10000	2	1	0	2	0
192	639	1	10000	2	1	0	2	0
186	640	1	10000	2	1	0	2	0
177	641	1	10000	2	1	0	2	0
170	642	1	10000	2	1	0	2	0
164	643	1	10000	2	1	0	2	0
161	644	1	10000	2	1	0	2	0
158	645	1	10000	2	1	0	2	0
153	646	1	10000	2	1	0	2	0
147	647	1	10000	2	1	0	2	0
142	648	1	10000	2	1	0	2	0
140	649	1	10000	2	1	0	2	0
136	650	1	10000	2	1	0	2	0
130	651	1	10000	2	1	0	2	0
128	652	1	10000	2	1	0	2	0
128	653	1	10000	2	1	0	2	0
125	654	1	10000	2	1	0	2	0
121	655	1	10000	2	1	0	2	0
117	656	1	10000	2	1	0	2	0
114	657	1	10000	2	1	0	2	0
113	658	1	10000	2	1	0	2	0
107	659	1	10000	2	1	0	2	0
104	660	1	10000	2	1	0	2	0
104	661	1	10000	2	1	0	2	0
105	662	1	10000	2	1	0	2	0
105	663	1	10000	2	1	0	2	0
105	664	1	10000	2	1	0	2	0
106	665	1	10000	2	1	0	2	0
105	666	1	10000	2	1	0	2	0
106	667	1	10000	2	1	0	2	0
106	668	1	10000	2	1	0	2	0
107	669	1	10000	2	1	0	2	0
107	670	1	10000	2	1	0	2	0
105	671	1	10000	2	1	0	2	0
100	672	1	10000	2	1	0	2	0
96	673	1	10000	2	1	0	2	0
93	674	1	10000	2	1	0	2	0
89	675	1	10000	2	1	0	2	0
86	676	1	10000	2	1	0	2	0
83	677	1	10000	2	1	0	2	0
79	678	1	10000	2	1	0	2	0
74	679	1	10000	2	1	0	2	0
71	680	1	10000	2	1	0	2	0
68	681	1	10000	2	1	0	2	0
67	682	1	10000	2	1	0	2	0
63	683	1	10000	2	1	0	2	0
61	684	1	10000	2	1	0	2	0
60	685	1	10000	2	1	0	2	0
57	686	1	10000	2	1	0	2	0
55	687	1	10000	2	1	0	2	0
53	688	1	10000	2	1	0	2	0
53	689	1	10000	2	1	0	2	0
51	690	1	10000	2	1	0	2	0
50	691	1	10000	2	1	0	2	0
52	692	1	10000	2	1	0	2	0
54	693	1	10000	2	1	0	2	0
56	694	1	10000	2	1	0	2	0
56	695	1	10000	2	1	0	2	0
56	696	1	10000	2	1	0	2	0
57	697	1	10000	2	1	0	2	0
58	698	1	10000	2	1	0	2	0
56	699	1	10000	2	1	0	2	0
56	700	1	10000	2	1	0	2	0
56	701	1	10000	2	1	0	2	0
57	702	1	10000	2	1	0	2	0
56	703	1	10000	2	1	0	2	0
55	704	1	10000	2	1	0	2	0
55	705	1	10000	2	1	0	2	0
53	706	1	10000	2	1	0	2	0
53	707	1	10000	2	1	0	2	0
52	708	1	10000	2	1	0	2	0
51	709	1	10000	2	1	0	2	0
49	710	1	10000	2	1	0	2	0
49	711	1	10000	2	1	0	2	0
47	712	1	10000	2	1	0	2	0
46	713	1	10000	2	1	0	2	0
45	714	1	10000	2	1	0	2	0
46	715	1	10000	2	1	0	2	0
50	716	1	10000	2	1	0	2	0
53	717	1	10000	2	1	0	2	0
55	718	1	10000	2	1	0	2	0
54	719	1	10000	2	1	0	2	0
55	720	1	10000	2	1	0	2	0
53	721	1	10000	2	1	0	2	0
52	722	1	10000	2	1	0	2	0
52	723	1	10000	2	1	0	2	0
51	724	1	10000	2	1	0	2	0
51	725	1	10000	2	1	0	2	0
50	726	1	10000	2	1	0	2	0
49	727	1	10000	2	1	0	2	0
49	728	1	10000	2	1	0	2	0
50	729	1	10000	2	1	0	2	0
48	730	1	10000	2	1	0	2	0
47	731	1	10000	2	1	0	2	0
46	732	1	10000	2	1	0	2	0
47	733	1	10000	2	1	0	2	0
48	734	1	10000	2	1	0	2	0
48	735	1	10000	2	1	0	2	0
48	736	1	10000	2	1	0	2	0
50	737	1	10000	2	1	0	2	0
49	738	1	10000	2	1	0	2	0
45	739	1	10000	2	1	0	2	0
45	740	1	10000	2	1	0	2	0
43	741	1	10000	2	1	0	2	0
42	742	1	10000	2	1	0	2	0
42	743	1	10000	2	1	0	2	0
41	744	1	10000	2	1	0	2	0
39	745	1	10000	2	1	0	2	0
38	746	1	10000	2	1	0	2	0
38	747	1	10000	2	1	0	2	0
40	748	1	10000	2	1	0	2	0
43	749	1	10000	2	1	0	2	0
42	750	1	10000	2	1	0	2	0
40	751	1	10000	2	1	0	2	0
39	752	1	10000	2	1	0	2	0
38	753	1	10000	2	1	0	2	0
39	754	1	10000	2	1	0	2	0
39	755	1	10000	2	1	0	2	0
38	756	1	10000	2	1	0	2	0
38	757	1	10000	2	1	0	2	0
38	758	1	10000	2	1	0	2	0
38	759	1	10000	2	1	0	2	0
39	760	1	10000	2	1	0	2	0
38	761	1	10000	2	1	0	2	0
38	762	1	10000	2	1	0	2	0
38	763	1	10000	2	1	0	2	0
37	764	1	10000	2	1	0	2	0
39	765	1	10000	2	1	0	2	0
40	766	1	10000	2	1	0	2	0
39	767	1	10000	2	1	0	2	0
39	768	1	10000	2	1	0	2	0
39	769	1	10000	2	1	0	2	0
37	770	1	10000	2	1	0	2	0
36	771	1	10000	2	1	0	2	0
37	772	1	10000	2	1	0	2	0
35	773	1	10000	2	1	0	2	0
34	774	1	10000	2	1	0	2	0
33	775	1	10000	2	1	0	2	0
32	776	1	10000	2	1	0	2	0
32	777	1	10000	2	1	0	2	0
30	778	1	10000	2	1	0	2	0
28	779	1	10000	2	1	0	2	0
27	780	1	10000	2	1	0	2	0
27	781	1	10000	2	1	0	2	0
27	782	1	10000	2	1	0	2	0
27	783	1	10000	2	1	0	2	0
26	784	1	10000	2	1	0	2	0
25	785	1	10000	2	1	0	2	0
25	786	1	10000	2	1	0	2	0
24	787	1	10000	2	1	0	2	0
25	788	1	10000	2	1	0	2	0
28	789	1	10000	2	1	0	2	0
29	790	1	10000	2	1	0	2	0
29	791	1	10000	2	1	0	2	0
28	792	1	10000	2	1	0	2	0
29	793	1	10000	2	1	0	2	0
29	794	1	10000	2	1	0	2	0
29	795	1	10000	2	1	0	2	0
29	796	1	10000	2	1	0	2	0
30	797	1	10000	2	1	0	2	0
29	798	1	10000	2	1	0	2	0
28	799	1	10000	2	1	0	2	0
29	800	1	10000	2	1	0	2	0
29	801	1	10000	2	1	0	2	0
30	802	1	10000	2	1	0	2	0
30	803	1	10000	2	1	0	2	0
30	804	1	10000	2	1	0	2	0
29	805	1	10000	2	1	0	2	0
29	806	1	10000	2	1	0	2	0
28	807	1	10000	2	1	0	2	0
31	808	1	10000	2	1	0	2	0
33	809	1	10000	2	1	0	2	0
31	810	1	10000	2	1	0	2	0
30	811	1	10000	2	1	0	2	0
29	812	1	10000	2	1	0	2	0
27	813	1	10000	2	1	0	2	0
27	814	1	10000	2	1	0	2	0
27	815	1	10000	2	1	0	2	0
27	816	1	10000	2	1	0	2	0
27	817	1	10000	2	1	0	2	0
26	818	1	10000	2	1	0	2	0
24	819	1	10000	2	1	0	2	0
24	820	1	10000	2	1	0	2	0
23	821	1	10000	2	1	0	2	0
22	822	1	10000	2	1	0	2	0
23	823	1	10000	2	1	0	2	0
24	824	1	10000	2	1	0	2	0
25	825	1	10000	2	1	0	2	0
24	826	1	10000	2	1	0	2	0
25	827	1	10000	2	1	0	2	0
28	828	1	10000	2	1	0	2	0
31	829	1	10000	2	1	0	2	0
32	830	1	10000	2	1	0	2	0
32	831	1	10000	2	1	0	2	0
32	832	1	10000	2	1	0	2	0
32	833	1	10000	2	1	0	2	0
31	834	1	10000	2	1	0	2	0
30	835	1	10000	2	1	0	2	0
33	836	1	10000	2	1	0	2	0
38	837	1	10000	2	1	0	2	0
44	838	1	10000	2	1	0	2	0
47	839	1	10000	2	1	0	2	0
51	840	1	10000	2	1	0	2	0
53	841	1	10000	2	1	0	2	0
51	842	1	10000	2	1	0	2	0
50	843	1	10000	2	1	0	2	0
49	844	1	10000	2	1	0	2	0
48	845	1	10000	2	1	0	2	0
47	846	1	10000	2	1	0	2	0
48	847	1	10000	2	1	0	2	0
47	848	1	10000	2	1	0	2	0
49	849	1	10000	2	1	0	2	0
48	850	1	10000	2	1	0	2	0
47	851	1	10000	2	1	0	2	0
45	852	1	10000	2	1	0	2	0
43	853	1	10000	2	1	0	2	0
41	854	1	10000	2	1	0	2	0
39	855	1	10000	2	1	0	2	0
38	856	1	10000	2	1	0	2	0
37	857	1	10000	2	1	0	2	0
36	858	1	10000	2	1	0	2	0
34	859	1	10000	2	1	0	2	0
36	860	1	10000	2	1	0	2	0
38	861	1	10000	2	1	0	2	0
37	862	1	10000	2	1	0	2	0
38	863	1	10000	2	1	0	2	0
42	864	1	10000	2	1	0	2	0
43	865	1	10000	2	1	0	2	0
42	866	1	10000	2	1	0	2	0
41	867	1	10000	2	1	0	2	0
43	868	1	10000	2	1	0	2	0
47	869	1	10000	2	1	0	2	0
48	870	1	10000	2	1	0	2	0
46	871	1	10000	2	1	0	2	0
45	872	1	10000	2	1	0	2	0
44	873	1	10000	2	1	0	2	0
43	874	1	10000	2	1	0	2	0
41	875	1	10000	2	1	0	2	0
41	876	1	10000	2	1	0	2	0
43	877	1	10000	2	1	0	2	0
44	878	1	10000	2	1	0	2	0
42	879	1	10000	2	1	0	2	0
41	880	1	10000	2	1	0	2	0
42	881	1	10000	2	1	0	2	0
43	882	1	10000	2	1	0	2	0
41	883	1	10000	2	1	0	2	0
40	884	1	10000	2	1	0	2	0
42	885	1	10000	2	1	0	2	0
41	886	1	10000	2	1	0	2	0
41	887	1	10000	2	1	0	2	0
41	888	1	10000	2	1	0	2	0
44	889	1	10000	2	1	0	2	0
43	890	1	10000	2	1	0	2	0
41	891	1	10000	2	1	0	2	0
39	892	1	10000	2	1	0	2	0
40	893	1	10000	2	1	0	2	0
37	894	1	10000	2	1	0	2	0
35	895	1	10000	2	1	0	2	0
35	896	1	10000	2	1	0	2	0
35	897	1	10000	2	1	0	2	0
33	898	1	10000	2	1	0	2	0
31	899	1	10000	2	1	0	2	0
31	900	1	10000	2	1	0	2	0
31	901	1	10000	2	1	0	2	0
32	902	1	10000	2	1	0	2	0
32	903	1	10000	2	1	0	2	0
32	904	1	10000	2	1	0	2	0
32	905	1	10000	2	1	0	2	0
31	906	1	10000	2	1	0	2	0
30	907	1	10000	2	1	0	2	0
30	908	1	10000	2	1	0	2	0
31	909	1	10000	2	1	0	2	0
31	910	1	10000	2	1	0	2	0
32	911	1	10000	2	1	0	2	0
31	912	1	10000	2	1	0	2	0
31	913	1	10000	2	1	0	2	0
32	914	1	10000	2	1	0	2	0
31	915	1	10000	2	1	0	2	0
32	916	1	10000	2	1	0	2	0
31	917	1	10000	2	1	0	2	0
31	918	1	10000	2	1	0	2	0
32	919	1	10000	2	1	0	2	0
32	920	1	10000	2	1	0	2	0
33	921	1	10000	2	1	0	2	0
33	922	1	10000	2	1	0	2	0
33	923	1	10000	2	1	0	2	0
33	924	1	10000	2	1	0	2	0
32	925	1	10000	2	1	0	2	0
30	926	1	10000	2	1	0	2	0
30	927	1	10000	2	1	0	2	0
32	928	1	10000	2	1	0	2	0
35	929	1	10000	2	1	0	2	0
34	930	1	10000	2	1	0	2	0
33	931	1	10000	2	1	0	2	0
32	932	1	10000	2	1	0	2	0
31	933	1	10000	2	1	0	2	0
32	934	1	10000	2	1	0	2	0
33	935	1	10000	2	1	0	2	0
34	936	1	10000	2	1	0	2	0
35	937	1	10000	2	1	0	2	0
34	938	1	10000	2	1	0	2	0
32	939	1	10000	2	1	0	2	0
32	940	1	10000	2	1	0	2	0
30	941	1	10000	2	1	0	2	0
32	942	1	10000	2	1	0	2	0
30	943	1	10000	2	1	0	2	0
29	944	1	10000	2	1	0	2	0
31	945	1	10000	2	1	0	2	0
28	946	1	10000	2	1	0	2	0
28	947	1	10000	2	1	0	2	0
28	948	1	10000	2	1	0	2	0
28	949	1	10000	2	1	0	2	0
27	950	1	10000	2	1	0	2	0
26	951	1	10000	2	1	0	2	0
25	952	1	10000	2	1	0	2	0
26	953	1	10000	2	1	0	2	0
27	954	1	10000	2	1	0	2	0
27	955	1	10000	2	1	0	2	0
27	956	1	10000	2	1	0	2	0
27	957	1	10000	2	1	0	2	0
26	958	1	10000	2	1	0	2	0
25	959	1	10000	2	1	0	2	0
27	960	1	10000	2	1	0	2	0
26	961	1	10000	2	1	0	2	0
26	962	1	10000	2	1	0	2	0
27	963	1	10000	2	1	0	2	0
28	964	1	10000	2	1	0	2	0
28	965	1	10000	2	1	0	2	0
28	966	1	10000	2	1	0	2	0
26	967	1	10000	2	1	0	2	0
26	968	1	10000	2	1	0	2	0
26	969	1	10000	2	1	0	2	0
26	970	1	10000	2	1	0	2	0
28	971	1	10000	2	1	0	2	0
28	972	1	10000	2	1	0	2	0
28	973	1	10000	2	1	0	2	0
27	974	1	10000	2	1	0	2	0
26	975	1	10000	2	1	0	2	0
27	976	1	10000	2	1	0	2	0
28	977	1	10000	2	1	0	2	0
29	978	1	10000	2	1	0	2	0
27	979	1	10000	2	1	0	2	0
27	980	1	10000	2	1	0	2	0
27	981	1	10000	2	1	0	2	0
27	982	1	10000	2	1	0	2	0
27	983	1	10000	2	1	0	2	0
27	984	1	10000	2	1	0	2	0
28	985	1	10000	2	1	0	2	0
27	986	1	10000	2	1	0	2	0
26	987	1	10000	2	1	0	2	0
26	988	1	10000	2	1	0	2	0
30	989	1	10000	2	1	0	2	0
35	990	1	10000	2	1	0	2	0
40	991	1	10000	2	1	0	2	0
39	992	1	10000	2	1	0	2	0
39	993	1	10000	2	1	0	2	0
39	994	1	10000	2	1	0	2	0
36	995	1	10000	2	1	0	2	0
36	996	1	10000	2	1	0	2	0
37	997	1	10000	2	1	0	2	0
39	998	1	10000	2	1	0	2	0
38	999	1	10000	2	1	0	2	0
39	1000	1	10000	2	1	0	2	0
48	1	1	10000	3	1	0	3	0
48	2	1	10000	3	1	0	3	0
47	3	1	10000	3	1	0	3	0
45	4	1	10000	3	1	0	3	0
43	5	1	10000	3	1	0	3	0
43	6	1	10000	3	1	0	3	0
48	7	1	10000	3	1	0	3	0
53	8	1	10000	3	1	0	3	0
58	9	1	10000	3	1	0	3	0
62	10	1	10000	3	1	0	3	0
64	11	1	10000	3	1	0	3	0
64	12	1	10000	3	1	0	3	0
63	13	1	10000	3	1	0	3	0
62	14	1	10000	3	1	0	3	0
62	15	1	10000	3	1	0	3	0
59	16	1	10000	3	1	0	3	0
57	17	1	10000	3	1	0	3	0
57	18	1	10000	3	1	0	3	0
56	19	1	10000	3	1	0	3	0
53	20	1	10000	3	1	0	3	0
51	21	1	10000	3	1	0	3	0
51	22	1	10000	3	1	0	3	0
50	23	1	10000	3	1	0	3	0
53	24	1	10000	3	1	0	3	0
55	25	1	10000	3	1	0	3	0
57	26	1	10000	3	1	0	3	0
57	27	1	10000	3	1	0	3	0
56	28	1	10000	3	1	0	3	0
53	29	1	10000	3	1	0	3	0
51	30	1	10000	3	1	0	3	0
50	31	1	10000	3	1	0	3	0
48	32	1	10000	3	1	0	3	0
48	33	1	10000	3	1	0	3	0
51	34	1	10000	3	1	0	3	0
54	35	1	10000	3	1	0	3	0
53	36	1	10000	3	1	0	3	0
50	37	1	10000	3	1	0	3	0
48	38	1	10000	3	1	0	3	0
46	39	1	10000	3	1	0	3	0
45	40	1	10000	3	1	0	3	0
43	41	1	10000	3	1	0	3	0
44	42	1	10000	3	1	0	3	0
47	43	1	10000	3	1	0	3	0
50	44	1	10000	3	1	0	3	0
53	45	1	10000	3	1	0	3	0
55	46	1	10000	3	1	0	3	0
55	47	1	10000	3	1	0	3	0
53	48	1	10000	3	1	0	3	0
51	49	1	10000	3	1	0	3	0
50	50	1	10000	3	1	0	3	0
49	51	1	10000	3	1	0	3	0
49	52	1	10000	3	1	0	3	0
52	53	1	10000	3	1	0	3	0
55	54	1	10000	3	1	0	3	0
58	55	1	10000	3	1	0	3	0
56	56	1	10000	3	1	0	3	0
54	57	1	10000	3	1	0	3	0
53	58	1	10000	3	1	0	3	0
51	59	1	10000	3	1	0	3	0
49	60	1	10000	3	1	0	3	0
48	61	1	10000	3	1	0	3	0
46	62	1	10000	3	1	0	3	0
46	63	1	10000	3	1	0	3	0
44	64	1	10000	3	1	0	3	0
42	65	1	10000	3	1	0	3	0
43	66	1	10000	3	1	0	3	0
43	67	1	10000	3	1	0	3	0
41	68	1	10000	3	1	0	3	0
39	69	1	10000	3	1	0	3	0
37	70	1	10000	3	1	0	3	0
37	71	1	10000	3	1	0	3	0
37	72	1	10000	3	1	0	3	0
37	73	1	10000	3	1	0	3	0
38	74	1	10000	3	1	0	3	0
37	75	1	10000	3	1	0	3	0
37	76	1	10000	3	1	0	3	0
35	77	1	10000	3	1	0	3	0
35	78	1	10000	3	1	0	3	0
36	79	1	10000	3	1	0	3	0
36	80	1	10000	3	1	0	3	0
34	81	1	10000	3	1	0	3	0
35	82	1	10000	3	1	0	3	0
34	83	1	10000	3	1	0	3	0
33	84	1	10000	3	1	0	3	0
32	85	1	10000	3	1	0	3	0
32	86	1	10000	3	1	0	3	0
32	87	1	10000	3	1	0	3	0
31	88	1	10000	3	1	0	3	0
31	89	1	10000	3	1	0	3	0
29	90	1	10000	3	1	0	3	0
29	91	1	10000	3	1	0	3	0
29	92	1	10000	3	1	0	3	0
28	93	1	10000	3	1	0	3	0
29	94	1	10000	3	1	0	3	0
29	95	1	10000	3	1	0	3	0
27	96	1	10000	3	1	0	3	0
26	97	1	10000	3	1	0	3	0
25	98	1	10000	3	1	0	3	0
24	99	1	10000	3	1	0	3	0
25	100	1	10000	3	1	0	3	0
26	101	1	10000	3	1	0	3	0
27	102	1	10000	3	1	0	3	0
26	103	1	10000	3	1	0	3	0
25	104	1	10000	3	1	0	3	0
23	105	1	10000	3	1	0	3	0
25	106	1	10000	3	1	0	3	0
25	107	1	10000	3	1	0	3	0
25	108	1	10000	3	1	0	3	0
26	109	1	10000	3	1	0	3	0
28	110	1	10000	3	1	0	3	0
27	111	1	10000	3	1	0	3	0
26	112	1	10000	3	1	0	3	0
25	113	1	10000	3	1	0	3	0
25	114	1	10000	3	1	0	3	0
27	115	1	10000	3	1	0	3	0
26	116	1	10000	3	1	0	3	0
26	117	1	10000	3	1	0	3	0
25	118	1	10000	3	1	0	3	0
26	119	1	10000	3	1	0	3	0
26	120	1	10000	3	1	0	3	0
28	121	1	10000	3	1	0	3	0
29	122	1	10000	3	1	0	3	0
30	123	1	10000	3	1	0	3	0
28	124	1	10000	3	1	0	3	0
28	125	1	10000	3	1	0	3	0
29	126	1	10000	3	1	0	3	0
28	127	1	10000	3	1	0	3	0
27	128	1	10000	3	1	0	3	0
29	129	1	10000	3	1	0	3	0
27	130	1	10000	3	1	0	3	0
31	131	1	10000	3	1	0	3	0
32	132	1	10000	3	1	0	3	0
32	133	1	10000	3	1	0	3	0
32	134	1	10000	3	1	0	3	0
32	135	1	10000	3	1	0	3	0
31	136	1	10000	3	1	0	3	0
31	137	1	10000	3	1	0	3	0
34	138	1	10000	3	1	0	3	0
35	139	1	10000	3	1	0	3	0
36	140	1	10000	3	1	0	3	0
35	141	1	10000	3	1	0	3	0
35	142	1	10000	3	1	0	3	0
34	143	1	10000	3	1	0	3	0
34	144	1	10000	3	1	0	3	0
33	145	1	10000	3	1	0	3	0
33	146	1	10000	3	1	0	3	0
34	147	1	10000	3	1	0	3	0
33	148	1	10000	3	1	0	3	0
33	149	1	10000	3	1	0	3	0
32	150	1	10000	3	1	0	3	0
32	151	1	10000	3	1	0	3	0
32	152	1	10000	3	1	0	3	0
30	153	1	10000	3	1	0	3	0
30	154	1	10000	3	1	0	3	0
33	155	1	10000	3	1	0	3	0
32	156	1	10000	3	1	0	3	0
29	157	1	10000	3	1	0	3	0
29	158	1	10000	3	1	0	3	0
28	159	1	10000	3	1	0	3	0
28	160	1	10000	3	1	0	3	0
28	161	1	10000	3	1	0	3	0
27	162	1	10000	3	1	0	3	0
26	163	1	10000	3	1	0	3	0
27	164	1	10000	3	1	0	3	0
28	165	1	10000	3	1	0	3	0
27	166	1	10000	3	1	0	3	0
28	167	1	10000	3	1	0	3	0
26	168	1	10000	3	1	0	3	0
26	169	1	10000	3	1	0	3	0
25	170	1	10000	3	1	0	3	0
25	171	1	10000	3	1	0	3	0
24	172	1	10000	3	1	0	3	0
23	173	1	10000	3	1	0	3	0
25	174	1	10000	3	1	0	3	0
26	175	1	10000	3	1	0	3	0
26	176	1	10000	3	1	0	3	0
24	177	1	10000	3	1	0	3	0
24	178	1	10000	3	1	0	3	0
23	179	1	10000	3	1	0	3	0
24	180	1	10000	3	1	0	3	0
24	181	1	10000	3	1	0	3	0
23	182	1	10000	3	1	0	3	0
22	183	1	10000	3	1	0	3	0
23	184	1	10000	3	1	0	3	0
23	185	1	10000	3	1	0	3	0
23	186	1	10000	3	1	0	3	0
23	187	1	10000	3	1	0	3	0
22	188	1	10000	3	1	0	3	0
22	189	1	10000	3	1	0	3	0
22	190	1	10000	3	1	0	3	0
24	191	1	10000	3	1	0	3	0
26	192	1	10000	3	1	0	3	0
25	193	1	10000	3	1	0	3	0
26	194	1	10000	3	1	0	3	0
25	195	1	10000	3	1	0	3	0
24	196	1	10000	3	1	0	3	0
24	197	1	10000	3	1	0	3	0
27	198	1	10000	3	1	0	3	0
28	199	1	10000	3	1	0	3	0
28	200	1	10000	3	1	0	3	0
28	201	1	10000	3	1	0	3	0
28	202	1	10000	3	1	0	3	0
27	203	1	10000	3	1	0	3	0
28	204	1	10000	3	1	0	3	0
27	205	1	10000	3	1	0	3	0
28	206	1	10000	3	1	0	3	0
32	207	1	10000	3	1	0	3	0
32	208	1	10000	3	1	0	3	0
31	209	1	10000	3	1	0	3	0
31	210	1	10000	3	1	0	3	0
31	211	1	10000	3	1	0	3	0
32	212	1	10000	3	1	0	3	0
34	213	1	10000	3	1	0	3	0
35	214	1	10000	3	1	0	3	0
34	215	1	10000	3	1	0	3	0
33	216	1	10000	3	1	0	3	0
31	217	1	10000	3	1	0	3	0
31	218	1	10000	3	1	0	3	0
30	219	1	10000	3	1	0	3	0
31	220	1	10000	3	1	0	3	0
30	221	1	10000	3	1	0	3	0
29	222	1	10000	3	1	0	3	0
28	223	1	10000	3	1	0	3	0
28	224	1	10000	3	1	0	3	0
26	225	1	10000	3	1	0	3	0
26	226	1	10000	3	1	0	3	0
27	227	1	10000	3	1	0	3	0
26	228	1	10000	3	1	0	3	0
26	229	1	10000	3	1	0	3	0
26	230	1	10000	3	1	0	3	0
25	231	1	10000	3	1	0	3	0
24	232	1	10000	3	1	0	3	0
24	233	1	10000	3	1	0	3	0
24	234	1	10000	3	1	0	3	0
24	235	1	10000	3	1	0	3	0
24	236	1	10000	3	1	0	3	0
21	237	1	10000	3	1	0	3	0
22	238	1	10000	3	1	0	3	0
23	239	1	10000	3	1	0	3	0
23	240	1	10000	3	1	0	3	0
23	241	1	10000	3	1	0	3	0
22	242	1	10000	3	1	0	3	0
21	243	1	10000	3	1	0	3	0
23	244	1	10000	3	1	0	3	0
24	245	1	10000	3	1	0	3	0
26	246	1	10000	3	1	0	3	0
27	247	1	10000	3	1	0	3	0
28	248	1	10000	3	1	0	3	0
27	249	1	10000	3	1	0	3	0
27	250	1	10000	3	1	0	3	0
26	251	1	10000	3	1	0	3	0
25	252	1	10000	3	1	0	3	0
24	253	1	10000	3	1	0	3	0
24	254	1	10000	3	1	0	3	0
24	255	1	10000	3	1	0	3	0
22	256	1	10000	3	1	0	3	0
21	257	1	10000	3	1	0	3	0
20	258	1	10000	3	1	0	3	0
21	259	1	10000	3	1	0	3	0
22	260	1	10000	3	1	0	3	0
22	261	1	10000	3	1	0	3	0
23	262	1	10000	3	1	0	3	0
22	263	1	10000	3	1	0	3	0
23	264	1	10000	3	1	0	3	0
22	265	1	10000	3	1	0	3	0
22	266	1	10000	3	1	0	3	0
24	267	1	10000	3	1	0	3	0
24	268	1	10000	3	1	0	3	0
24	269	1	10000	3	1	0	3	0
24	270	1	10000	3	1	0	3	0
23	271	1	10000	3	1	0	3	0
23	272	1	10000	3	1	0	3	0
24	273	1	10000	3	1	0	3	0
24	274	1	10000	3	1	0	3	0
25	275	1	10000	3	1	0	3	0
25	276	1	10000	3	1	0	3	0
24	277	1	10000	3	1	0	3	0
25	278	1	10000	3	1	0	3	0
26	279	1	10000	3	1	0	3	0
26	280	1	10000	3	1	0	3	0
25	281	1	10000	3	1	0	3	0
24	282	1	10000	3	1	0	3	0
25	283	1	10000	3	1	0	3	0
25	284	1	10000	3	1	0	3	0
24	285	1	10000	3	1	0	3	0
24	286	1	10000	3	1	0	3	0
24	287	1	10000	3	1	0	3	0
24	288	1	10000	3	1	0	3	0
23	289	1	10000	3	1	0	3	0
23	290	1	10000	3	1	0	3	0
24	291	1	10000	3	1	0	3	0
22	292	1	10000	3	1	0	3	0
23	293	1	10000	3	1	0	3	0
24	294	1	10000	3	1	0	3	0
24	295	1	10000	3	1	0	3	0
22	296	1	10000	3	1	0	3	0
20	297	1	10000	3	1	0	3	0
21	298	1	10000	3	1	0	3	0
21	299	1	10000	3	1	0	3	0
21	300	1	10000	3	1	0	3	0
21	301	1	10000	3	1	0	3	0
23	302	1	10000	3	1	0	3	0
25	303	1	10000	3	1	0	3	0
25	304	1	10000	3	1	0	3	0
25	305	1	10000	3	1	0	3	0
26	306	1	10000	3	1	0	3	0
27	307	1	10000	3	1	0	3	0
27	308	1	10000	3	1	0	3	0
28	309	1	10000	3	1	0	3	0
29	310	1	10000	3	1	0	3	0
29	311	1	10000	3	1	0	3	0
29	312	1	10000	3	1	0	3	0
28	313	1	10000	3	1	0	3	0
27	314	1	10000	3	1	0	3	0
27	315	1	10000	3	1	0	3	0
25	316	1	10000	3	1	0	3	0
25	317	1	10000	3	1	0	3	0
26	318	1	10000	3	1	0	3	0
26	319	1	10000	3	1	0	3	0
27	320	1	10000	3	1	0	3	0
27	321	1	10000	3	1	0	3	0
26	322	1	10000	3	1	0	3	0
26	323	1	10000	3	1	0	3	0
24	324	1	10000	3	1	0	3	0
23	325	1	10000	3	1	0	3	0
23	326	1	10000	3	1	0	3	0
24	327	1	10000	3	1	0	3	0
23	328	1	10000	3	1	0	3	0
23	329	1	10000	3	1	0	3	0
22	330	1	10000	3	1	0	3	0
22	331	1	10000	3	1	0	3	0
22	332	1	10000	3	1	0	3	0
22	333	1	10000	3	1	0	3	0
21	334	1	10000	3	1	0	3	0
22	335	1	10000	3	1	0	3	0
22	336	1	10000	3	1	0	3	0
20	337	1	10000	3	1	0	3	0
21	338	1	10000	3	1	0	3	0
21	339	1	10000	3	1	0	3	0
21	340	1	10000	3	1	0	3	0
21	341	1	10000	3	1	0	3	0
20	342	1	10000	3	1	0	3	0
20	343	1	10000	3	1	0	3	0
22	344	1	10000	3	1	0	3	0
23	345	1	10000	3	1	0	3	0
26	346	1	10000	3	1	0	3	0
26	347	1	10000	3	1	0	3	0
27	348	1	10000	3	1	0	3	0
28	349	1	10000	3	1	0	3	0
27	350	1	10000	3	1	0	3	0
26	351	1	10000	3	1	0	3	0
25	352	1	10000	3	1	0	3	0
25	353	1	10000	3	1	0	3	0
24	354	1	10000	3	1	0	3	0
25	355	1	10000	3	1	0	3	0
24	356	1	10000	3	1	0	3	0
24	357	1	10000	3	1	0	3	0
25	358	1	10000	3	1	0	3	0
24	359	1	10000	3	1	0	3	0
25	360	1	10000	3	1	0	3	0
25	361	1	10000	3	1	0	3	0
26	362	1	10000	3	1	0	3	0
27	363	1	10000	3	1	0	3	0
30	364	1	10000	3	1	0	3	0
31	365	1	10000	3	1	0	3	0
32	366	1	10000	3	1	0	3	0
33	367	1	10000	3	1	0	3	0
33	368	1	10000	3	1	0	3	0
32	369	1	10000	3	1	0	3	0
31	370	1	10000	3	1	0	3	0
30	371	1	10000	3	1	0	3	0
31	372	1	10000	3	1	0	3	0
29	373	1	10000	3	1	0	3	0
28	374	1	10000	3	1	0	3	0
29	375	1	10000	3	1	0	3	0
27	376	1	10000	3	1	0	3	0
26	377	1	10000	3	1	0	3	0
26	378	1	10000	3	1	0	3	0
26	379	1	10000	3	1	0	3	0
24	380	1	10000	3	1	0	3	0
24	381	1	10000	3	1	0	3	0
24	382	1	10000	3	1	0	3	0
23	383	1	10000	3	1	0	3	0
22	384	1	10000	3	1	0	3	0
22	385	1	10000	3	1	0	3	0
23	386	1	10000	3	1	0	3	0
25	387	1	10000	3	1	0	3	0
26	388	1	10000	3	1	0	3	0
25	389	1	10000	3	1	0	3	0
25	390	1	10000	3	1	0	3	0
25	391	1	10000	3	1	0	3	0
24	392	1	10000	3	1	0	3	0
24	393	1	10000	3	1	0	3	0
24	394	1	10000	3	1	0	3	0
25	395	1	10000	3	1	0	3	0
23	396	1	10000	3	1	0	3	0
23	397	1	10000	3	1	0	3	0
23	398	1	10000	3	1	0	3	0
22	399	1	10000	3	1	0	3	0
23	400	1	10000	3	1	0	3	0
23	401	1	10000	3	1	0	3	0
23	402	1	10000	3	1	0	3	0
23	403	1	10000	3	1	0	3	0
24	404	1	10000	3	1	0	3	0
21	405	1	10000	3	1	0	3	0
23	406	1	10000	3	1	0	3	0
24	407	1	10000	3	1	0	3	0
23	408	1	10000	3	1	0	3	0
23	409	1	10000	3	1	0	3	0
25	410	1	10000	3	1	0	3	0
26	411	1	10000	3	1	0	3	0
28	412	1	10000	3	1	0	3	0
29	413	1	10000	3	1	0	3	0
29	414	1	10000	3	1	0	3	0
29	415	1	10000	3	1	0	3	0
28	416	1	10000	3	1	0	3	0
28	417	1	10000	3	1	0	3	0
28	418	1	10000	3	1	0	3	0
28	419	1	10000	3	1	0	3	0
27	420	1	10000	3	1	0	3	0
27	421	1	10000	3	1	0	3	0
27	422	1	10000	3	1	0	3	0
27	423	1	10000	3	1	0	3	0
27	424	1	10000	3	1	0	3	0
26	425	1	10000	3	1	0	3	0
26	426	1	10000	3	1	0	3	0
27	427	1	10000	3	1	0	3	0
27	428	1	10000	3	1	0	3	0
28	429	1	10000	3	1	0	3	0
28	430	1	10000	3	1	0	3	0
28	431	1	10000	3	1	0	3	0
27	432	1	10000	3	1	0	3	0
28	433	1	10000	3	1	0	3	0
27	434	1	10000	3	1	0	3	0
27	435	1	10000	3	1	0	3	0
26	436	1	10000	3	1	0	3	0
25	437	1	10000	3	1	0	3	0
27	438	1	10000	3	1	0	3	0
28	439	1	10000	3	1	0	3	0
27	440	1	10000	3	1	0	3	0
28	441	1	10000	3	1	0	3	0
27	442	1	10000	3	1	0	3	0
26	443	1	10000	3	1	0	3	0
27	444	1	10000	3	1	0	3	0
26	445	1	10000	3	1	0	3	0
27	446	1	10000	3	1	0	3	0
28	447	1	10000	3	1	0	3	0
30	448	1	10000	3	1	0	3	0
31	449	1	10000	3	1	0	3	0
30	450	1	10000	3	1	0	3	0
28	451	1	10000	3	1	0	3	0
29	452	1	10000	3	1	0	3	0
29	453	1	10000	3	1	0	3	0
29	454	1	10000	3	1	0	3	0
31	455	1	10000	3	1	0	3	0
32	456	1	10000	3	1	0	3	0
31	457	1	10000	3	1	0	3	0
31	458	1	10000	3	1	0	3	0
30	459	1	10000	3	1	0	3	0
30	460	1	10000	3	1	0	3	0
30	461	1	10000	3	1	0	3	0
30	462	1	10000	3	1	0	3	0
28	463	1	10000	3	1	0	3	0
27	464	1	10000	3	1	0	3	0
28	465	1	10000	3	1	0	3	0
29	466	1	10000	3	1	0	3	0
32	467	1	10000	3	1	0	3	0
31	468	1	10000	3	1	0	3	0
30	469	1	10000	3	1	0	3	0
29	470	1	10000	3	1	0	3	0
29	471	1	10000	3	1	0	3	0
30	472	1	10000	3	1	0	3	0
30	473	1	10000	3	1	0	3	0
31	474	1	10000	3	1	0	3	0
31	475	1	10000	3	1	0	3	0
30	476	1	10000	3	1	0	3	0
28	477	1	10000	3	1	0	3	0
28	478	1	10000	3	1	0	3	0
28	479	1	10000	3	1	0	3	0
28	480	1	10000	3	1	0	3	0
28	481	1	10000	3	1	0	3	0
27	482	1	10000	3	1	0	3	0
26	483	1	10000	3	1	0	3	0
24	484	1	10000	3	1	0	3	0
25	485	1	10000	3	1	0	3	0
27	486	1	10000	3	1	0	3	0
29	487	1	10000	3	1	0	3	0
28	488	1	10000	3	1	0	3	0
27	489	1	10000	3	1	0	3	0
25	490	1	10000	3	1	0	3	0
25	491	1	10000	3	1	0	3	0
24	492	1	10000	3	1	0	3	0
23	493	1	10000	3	1	0	3	0
23	494	1	10000	3	1	0	3	0
24	495	1	10000	3	1	0	3	0
23	496	1	10000	3	1	0	3	0
21	497	1	10000	3	1	0	3	0
21	498	1	10000	3	1	0	3	0
20	499	1	10000	3	1	0	3	0
20	500	1	10000	3	1	0	3	0
19	501	1	10000	3	1	0	3	1
20	502	1	10000	3	1	0	3	1
19	503	1	10000	3	1	0	3	1
19	504	1	10000	3	1	0	3	1
19	505	1	10000	3	1	0	3	1
19	506	1	10000	3	1	0	3	1
20	507	1	10000	3	1	0	3	1
21	508	1	10000	3	1	0	3	1
21	509	1	10000	3	1	0	3	1
20	510	1	10000	3	1	0	3	1
21	511	1	10000	3	1	0	3	1
20	512	1	10000	3	1	0	3	1
20	513	1	10000	3	1	0	3	1
21	514	1	10000	3	1	0	3	1
20	515	1	10000	3	1	0	3	1
20	516	1	10000	3	1	0	3	1
19	517	1	10000	3	1	0	3	1
19	518	1	10000	3	1	0	3	1
19	519	1	10000	3	1	0	3	1
19	520	1	10000	3	1	0	3	1
18	521	1	10000	3	1	0	3	1
19	522	1	10000	3	1	0	3	1
19	523	1	10000	3	1	0	3	1
18	524	1	10000	3	1	0	3	1
19	525	1	10000	3	1	0	3	1
20	526	1	10000	3	1	0	3	1
22	527	1	10000	3	1	0	3	1
22	528	1	10000	3	1	0	3	1
21	529	1	10000	3	1	0	3	1
20	530	1	10000	3	1	0	3	1
21	531	1	10000	3	1	0	3	1
22	532	1	10000	3	1	0	3	1
23	533	1	10000	3	1	0	3	1
25	534	1	10000	3	1	0	3	1
27	535	1	10000	3	1	0	3	1
27	536	1	10000	3	1	0	3	1
26	537	1	10000	3	1	0	3	1
26	538	1	10000	3	1	0	3	1
25	539	1	10000	3	1	0	3	1
25	540	1	10000	3	1	0	3	1
24	541	1	10000	3	1	0	3	1
25	542	1	10000	3	1	0	3	1
24	543	1	10000	3	1	0	3	1
23	544	1	10000	3	1	0	3	1
23	545	1	10000	3	1	0	3	1
24	546	1	10000	3	1	0	3	1
24	547	1	10000	3	1	0	3	1
23	548	1	10000	3	1	0	3	1
22	549	1	10000	3	1	0	3	1
22	550	1	10000	3	1	0	3	1
21	551	1	10000	3	1	0	3	0
21	552	1	10000	3	1	0	3	0
22	553	1	10000	3	1	0	3	0
23	554	1	10000	3	1	0	3	0
23	555	1	10000	3	1	0	3	0
22	556	1	10000	3	1	0	3	0
22	557	1	10000	3	1	0	3	0
23	558	1	10000	3	1	0	3	0
24	559	1	10000	3	1	0	3	0
26	560	1	10000	3	1	0	3	0
25	561	1	10000	3	1	0	3	0
25	562	1	10000	3	1	0	3	0
24	563	1	10000	3	1	0	3	0
24	564	1	10000	3	1	0	3	0
27	565	1	10000	3	1	0	3	0
29	566	1	10000	3	1	0	3	0
30	567	1	10000	3	1	0	3	0
30	568	1	10000	3	1	0	3	0
29	569	1	10000	3	1	0	3	0
29	570	1	10000	3	1	0	3	0
27	571	1	10000	3	1	0	3	0
26	572	1	10000	3	1	0	3	0
25	573	1	10000	3	1	0	3	0
27	574	1	10000	3	1	0	3	0
30	575	1	10000	3	1	0	3	0
29	576	1	10000	3	1	0	3	0
26	577	1	10000	3	1	0	3	0
26	578	1	10000	3	1	0	3	0
24	579	1	10000	3	1	0	3	0
25	580	1	10000	3	1	0	3	0
24	581	1	10000	3	1	0	3	0
24	582	1	10000	3	1	0	3	0
25	583	1	10000	3	1	0	3	0
24	584	1	10000	3	1	0	3	0
23	585	1	10000	3	1	0	3	0
25	586	1	10000	3	1	0	3	0
26	587	1	10000	3	1	0	3	0
25	588	1	10000	3	1	0	3	0
26	589	1	10000	3	1	0	3	0
26	590	1	10000	3	1	0	3	0
26	591	1	10000	3	1	0	3	0
26	592	1	10000	3	1	0	3	0
32	593	1	10000	3	1	0	3	0
39	594	1	10000	3	1	0	3	0
44	595	1	10000	3	1	0	3	0
60	596	1	10000	3	1	0	3	0
89	597	1	10000	3	1	0	3	0
110	598	1	10000	3	1	0	3	0
137	599	1	10000	3	1	0	3	0
152	600	1	10000	3	1	0	3	0
165	601	1	10000	3	1	0	3	0
214	602	1	10000	3	1	0	3	0
222	603	1	10000	3	1	0	3	0
223	604	1	10000	3	1	0	3	0
220	605	1	10000	3	1	0	3	0
225	606	1	10000	3	1	0	3	0
236	607	1	10000	3	1	0	3	0
266	608	1	10000	3	1	0	3	0
315	609	1	10000	3	1	0	3	0
341	610	1	10000	3	1	0	3	0
342	611	1	10000	3	1	0	3	0
384	612	1	10000	3	1	0	3	0
424	613	1	10000	3	1	0	3	0
446	614	1	10000	3	1	0	3	0
461	615	1	10000	3	1	0	3	0
464	616	1	10000	3	1	0	3	0
451	617	1	10000	3	1	0	3	0
435	618	1	10000	3	1	0	3	0
416	619	1	10000	3	1	0	3	0
402	620	1	10000	3	1	0	3	0
391	621	1	10000	3	1	0	3	0
378	622	1	10000	3	1	0	3	0
368	623	1	10000	3	1	0	3	0
377	624	1	10000	3	1	0	3	0
418	625	1	10000	3	1	0	3	0
467	626	1	10000	3	1	0	3	0
529	627	1	10000	3	1	0	3	0
536	628	1	10000	3	1	0	3	0
527	629	1	10000	3	1	0	3	0
558	630	1	10000	3	1	0	3	0
587	631	1	10000	3	1	0	3	0
595	632	1	10000	3	1	0	3	0
587	633	1	10000	3	1	0	3	0
573	634	1	10000	3	1	0	3	0
553	635	1	10000	3	1	0	3	0
527	636	1	10000	3	1	0	3	0
502	637	1	10000	3	1	0	3	0
482	638	1	10000	3	1	0	3	0
462	639	1	10000	3	1	0	3	0
443	640	1	10000	3	1	0	3	0
425	641	1	10000	3	1	0	3	0
405	642	1	10000	3	1	0	3	0
387	643	1	10000	3	1	0	3	0
370	644	1	10000	3	1	0	3	0
353	645	1	10000	3	1	0	3	0
337	646	1	10000	3	1	0	3	0
324	647	1	10000	3	1	0	3	0
311	648	1	10000	3	1	0	3	0
299	649	1	10000	3	1	0	3	0
288	650	1	10000	3	1	0	3	0
276	651	1	10000	3	1	0	3	0
269	652	1	10000	3	1	0	3	0
263	653	1	10000	3	1	0	3	0
256	654	1	10000	3	1	0	3	0
249	655	1	10000	3	1	0	3	0
240	656	1	10000	3	1	0	3	0
233	657	1	10000	3	1	0	3	0
227	658	1	10000	3	1	0	3	0
224	659	1	10000	3	1	0	3	0
221	660	1	10000	3	1	0	3	0
219	661	1	10000	3	1	0	3	0
221	662	1	10000	3	1	0	3	0
223	663	1	10000	3	1	0	3	0
225	664	1	10000	3	1	0	3	0
223	665	1	10000	3	1	0	3	0
221	666	1	10000	3	1	0	3	0
221	667	1	10000	3	1	0	3	0
216	668	1	10000	3	1	0	3	0
211	669	1	10000	3	1	0	3	0
204	670	1	10000	3	1	0	3	0
198	671	1	10000	3	1	0	3	0
191	672	1	10000	3	1	0	3	0
185	673	1	10000	3	1	0	3	0
177	674	1	10000	3	1	0	3	0
170	675	1	10000	3	1	0	3	0
162	676	1	10000	3	1	0	3	0
153	677	1	10000	3	1	0	3	0
149	678	1	10000	3	1	0	3	0
144	679	1	10000	3	1	0	3	0
139	680	1	10000	3	1	0	3	0
134	681	1	10000	3	1	0	3	0
129	682	1	10000	3	1	0	3	0
123	683	1	10000	3	1	0	3	0
118	684	1	10000	3	1	0	3	0
114	685	1	10000	3	1	0	3	0
110	686	1	10000	3	1	0	3	0
109	687	1	10000	3	1	0	3	0
106	688	1	10000	3	1	0	3	0
102	689	1	10000	3	1	0	3	0
98	690	1	10000	3	1	0	3	0
95	691	1	10000	3	1	0	3	0
96	692	1	10000	3	1	0	3	0
98	693	1	10000	3	1	0	3	0
102	694	1	10000	3	1	0	3	0
108	695	1	10000	3	1	0	3	0
110	696	1	10000	3	1	0	3	0
109	697	1	10000	3	1	0	3	0
109	698	1	10000	3	1	0	3	0
110	699	1	10000	3	1	0	3	0
105	700	1	10000	3	1	0	3	0
101	701	1	10000	3	1	0	3	0
97	702	1	10000	3	1	0	3	0
93	703	1	10000	3	1	0	3	0
91	704	1	10000	3	1	0	3	0
90	705	1	10000	3	1	0	3	0
91	706	1	10000	3	1	0	3	0
93	707	1	10000	3	1	0	3	0
93	708	1	10000	3	1	0	3	0
95	709	1	10000	3	1	0	3	0
95	710	1	10000	3	1	0	3	0
98	711	1	10000	3	1	0	3	0
99	712	1	10000	3	1	0	3	0
101	713	1	10000	3	1	0	3	0
104	714	1	10000	3	1	0	3	0
108	715	1	10000	3	1	0	3	0
111	716	1	10000	3	1	0	3	0
110	717	1	10000	3	1	0	3	0
111	718	1	10000	3	1	0	3	0
111	719	1	10000	3	1	0	3	0
107	720	1	10000	3	1	0	3	0
104	721	1	10000	3	1	0	3	0
103	722	1	10000	3	1	0	3	0
100	723	1	10000	3	1	0	3	0
98	724	1	10000	3	1	0	3	0
94	725	1	10000	3	1	0	3	0
92	726	1	10000	3	1	0	3	0
92	727	1	10000	3	1	0	3	0
91	728	1	10000	3	1	0	3	0
89	729	1	10000	3	1	0	3	0
85	730	1	10000	3	1	0	3	0
82	731	1	10000	3	1	0	3	0
80	732	1	10000	3	1	0	3	0
80	733	1	10000	3	1	0	3	0
80	734	1	10000	3	1	0	3	0
79	735	1	10000	3	1	0	3	0
78	736	1	10000	3	1	0	3	0
77	737	1	10000	3	1	0	3	0
78	738	1	10000	3	1	0	3	0
76	739	1	10000	3	1	0	3	0
74	740	1	10000	3	1	0	3	0
71	741	1	10000	3	1	0	3	0
68	742	1	10000	3	1	0	3	0
66	743	1	10000	3	1	0	3	0
63	744	1	10000	3	1	0	3	0
60	745	1	10000	3	1	0	3	0
59	746	1	10000	3	1	0	3	0
58	747	1	10000	3	1	0	3	0
56	748	1	10000	3	1	0	3	0
55	749	1	10000	3	1	0	3	0
54	750	1	10000	3	1	0	3	0
53	751	1	10000	3	1	0	3	0
54	752	1	10000	3	1	0	3	0
57	753	1	10000	3	1	0	3	0
60	754	1	10000	3	1	0	3	0
63	755	1	10000	3	1	0	3	0
64	756	1	10000	3	1	0	3	0
65	757	1	10000	3	1	0	3	0
63	758	1	10000	3	1	0	3	0
62	759	1	10000	3	1	0	3	0
64	760	1	10000	3	1	0	3	0
66	761	1	10000	3	1	0	3	0
68	762	1	10000	3	1	0	3	0
69	763	1	10000	3	1	0	3	0
67	764	1	10000	3	1	0	3	0
64	765	1	10000	3	1	0	3	0
62	766	1	10000	3	1	0	3	0
61	767	1	10000	3	1	0	3	0
58	768	1	10000	3	1	0	3	0
57	769	1	10000	3	1	0	3	0
55	770	1	10000	3	1	0	3	0
54	771	1	10000	3	1	0	3	0
54	772	1	10000	3	1	0	3	0
54	773	1	10000	3	1	0	3	0
54	774	1	10000	3	1	0	3	0
52	775	1	10000	3	1	0	3	0
50	776	1	10000	3	1	0	3	0
49	777	1	10000	3	1	0	3	0
47	778	1	10000	3	1	0	3	0
47	779	1	10000	3	1	0	3	0
47	780	1	10000	3	1	0	3	0
45	781	1	10000	3	1	0	3	0
44	782	1	10000	3	1	0	3	0
43	783	1	10000	3	1	0	3	0
43	784	1	10000	3	1	0	3	0
44	785	1	10000	3	1	0	3	0
48	786	1	10000	3	1	0	3	0
50	787	1	10000	3	1	0	3	0
51	788	1	10000	3	1	0	3	0
51	789	1	10000	3	1	0	3	0
51	790	1	10000	3	1	0	3	0
50	791	1	10000	3	1	0	3	0
52	792	1	10000	3	1	0	3	0
53	793	1	10000	3	1	0	3	0
55	794	1	10000	3	1	0	3	0
54	795	1	10000	3	1	0	3	0
51	796	1	10000	3	1	0	3	0
48	797	1	10000	3	1	0	3	0
49	798	1	10000	3	1	0	3	0
49	799	1	10000	3	1	0	3	0
48	800	1	10000	3	1	0	3	0
46	801	1	10000	3	1	0	3	0
44	802	1	10000	3	1	0	3	0
45	803	1	10000	3	1	0	3	0
43	804	1	10000	3	1	0	3	0
41	805	1	10000	3	1	0	3	0
42	806	1	10000	3	1	0	3	0
42	807	1	10000	3	1	0	3	0
41	808	1	10000	3	1	0	3	0
40	809	1	10000	3	1	0	3	0
39	810	1	10000	3	1	0	3	0
37	811	1	10000	3	1	0	3	0
38	812	1	10000	3	1	0	3	0
40	813	1	10000	3	1	0	3	0
42	814	1	10000	3	1	0	3	0
44	815	1	10000	3	1	0	3	0
44	816	1	10000	3	1	0	3	0
41	817	1	10000	3	1	0	3	0
40	818	1	10000	3	1	0	3	0
39	819	1	10000	3	1	0	3	0
39	820	1	10000	3	1	0	3	0
39	821	1	10000	3	1	0	3	0
39	822	1	10000	3	1	0	3	0
39	823	1	10000	3	1	0	3	0
41	824	1	10000	3	1	0	3	0
42	825	1	10000	3	1	0	3	0
43	826	1	10000	3	1	0	3	0
45	827	1	10000	3	1	0	3	0
46	828	1	10000	3	1	0	3	0
46	829	1	10000	3	1	0	3	0
44	830	1	10000	3	1	0	3	0
44	831	1	10000	3	1	0	3	0
44	832	1	10000	3	1	0	3	0
45	833	1	10000	3	1	0	3	0
46	834	1	10000	3	1	0	3	0
48	835	1	10000	3	1	0	3	0
48	836	1	10000	3	1	0	3	0
45	837	1	10000	3	1	0	3	0
44	838	1	10000	3	1	0	3	0
43	839	1	10000	3	1	0	3	0
43	840	1	10000	3	1	0	3	0
42	841	1	10000	3	1	0	3	0
41	842	1	10000	3	1	0	3	0
40	843	1	10000	3	1	0	3	0
40	844	1	10000	3	1	0	3	0
38	845	1	10000	3	1	0	3	0
39	846	1	10000	3	1	0	3	0
43	847	1	10000	3	1	0	3	0
41	848	1	10000	3	1	0	3	0
40	849	1	10000	3	1	0	3	0
39	850	1	10000	3	1	0	3	0
40	851	1	10000	3	1	0	3	0
41	852	1	10000	3	1	0	3	0
41	853	1	10000	3	1	0	3	0
40	854	1	10000	3	1	0	3	0
42	855	1	10000	3	1	0	3	0
41	856	1	10000	3	1	0	3	0
37	857	1	10000	3	1	0	3	0
37	858	1	10000	3	1	0	3	0
36	859	1	10000	3	1	0	3	0
35	860	1	10000	3	1	0	3	0
35	861	1	10000	3	1	0	3	0
35	862	1	10000	3	1	0	3	0
35	863	1	10000	3	1	0	3	0
36	864	1	10000	3	1	0	3	0
36	865	1	10000	3	1	0	3	0
37	866	1	10000	3	1	0	3	0
41	867	1	10000	3	1	0	3	0
41	868	1	10000	3	1	0	3	0
39	869	1	10000	3	1	0	3	0
38	870	1	10000	3	1	0	3	0
36	871	1	10000	3	1	0	3	0
36	872	1	10000	3	1	0	3	0
37	873	1	10000	3	1	0	3	0
37	874	1	10000	3	1	0	3	0
37	875	1	10000	3	1	0	3	0
37	876	1	10000	3	1	0	3	0
36	877	1	10000	3	1	0	3	0
36	878	1	10000	3	1	0	3	0
34	879	1	10000	3	1	0	3	0
34	880	1	10000	3	1	0	3	0
35	881	1	10000	3	1	0	3	0
35	882	1	10000	3	1	0	3	0
35	883	1	10000	3	1	0	3	0
35	884	1	10000	3	1	0	3	0
37	885	1	10000	3	1	0	3	0
41	886	1	10000	3	1	0	3	0
45	887	1	10000	3	1	0	3	0
46	888	1	10000	3	1	0	3	0
46	889	1	10000	3	1	0	3	0
44	890	1	10000	3	1	0	3	0
44	891	1	10000	3	1	0	3	0
42	892	1	10000	3	1	0	3	0
41	893	1	10000	3	1	0	3	0
40	894	1	10000	3	1	0	3	0
41	895	1	10000	3	1	0	3	0
41	896	1	10000	3	1	0	3	0
38	897	1	10000	3	1	0	3	0
37	898	1	10000	3	1	0	3	0
37	899	1	10000	3	1	0	3	0
37	900	1	10000	3	1	0	3	0
37	901	1	10000	3	1	0	3	0
38	902	1	10000	3	1	0	3	0
37	903	1	10000	3	1	0	3	0
35	904	1	10000	3	1	0	3	0
38	905	1	10000	3	1	0	3	0
41	906	1	10000	3	1	0	3	0
44	907	1	10000	3	1	0	3	0
42	908	1	10000	3	1	0	3	0
40	909	1	10000	3	1	0	3	0
41	910	1	10000	3	1	0	3	0
42	911	1	10000	3	1	0	3	0
40	912	1	10000	3	1	0	3	0
41	913	1	10000	3	1	0	3	0
40	914	1	10000	3	1	0	3	0
43	915	1	10000	3	1	0	3	0
43	916	1	10000	3	1	0	3	0
39	917	1	10000	3	1	0	3	0
40	918	1	10000	3	1	0	3	0
39	919	1	10000	3	1	0	3	0
39	920	1	10000	3	1	0	3	0
38	921	1	10000	3	1	0	3	0
38	922	1	10000	3	1	0	3	0
37	923	1	10000	3	1	0	3	0
35	924	1	10000	3	1	0	3	0
35	925	1	10000	3	1	0	3	0
35	926	1	10000	3	1	0	3	0
35	927	1	10000	3	1	0	3	0
36	928	1	10000	3	1	0	3	0
34	929	1	10000	3	1	0	3	0
33	930	1	10000	3	1	0	3	0
33	931	1	10000	3	1	0	3	0
32	932	1	10000	3	1	0	3	0
34	933	1	10000	3	1	0	3	0
34	934	1	10000	3	1	0	3	0
34	935	1	10000	3	1	0	3	0
33	936	1	10000	3	1	0	3	0
30	937	1	10000	3	1	0	3	0
31	938	1	10000	3	1	0	3	0
31	939	1	10000	3	1	0	3	0
32	940	1	10000	3	1	0	3	0
32	941	1	10000	3	1	0	3	0
34	942	1	10000	3	1	0	3	0
32	943	1	10000	3	1	0	3	0
31	944	1	10000	3	1	0	3	0
33	945	1	10000	3	1	0	3	0
34	946	1	10000	3	1	0	3	0
37	947	1	10000	3	1	0	3	0
36	948	1	10000	3	1	0	3	0
35	949	1	10000	3	1	0	3	0
34	950	1	10000	3	1	0	3	0
35	951	1	10000	3	1	0	3	0
34	952	1	10000	3	1	0	3	0
37	953	1	10000	3	1	0	3	0
39	954	1	10000	3	1	0	3	0
40	955	1	10000	3	1	0	3	0
40	956	1	10000	3	1	0	3	0
39	957	1	10000	3	1	0	3	0
39	958	1	10000	3	1	0	3	0
38	959	1	10000	3	1	0	3	0
38	960	1	10000	3	1	0	3	0
39	961	1	10000	3	1	0	3	0
38	962	1	10000	3	1	0	3	0
37	963	1	10000	3	1	0	3	0
37	964	1	10000	3	1	0	3	0
41	965	1	10000	3	1	0	3	0
41	966	1	10000	3	1	0	3	0
43	967	1	10000	3	1	0	3	0
43	968	1	10000	3	1	0	3	0
42	969	1	10000	3	1	0	3	0
41	970	1	10000	3	1	0	3	0
40	971	1	10000	3	1	0	3	0
41	972	1	10000	3	1	0	3	0
44	973	1	10000	3	1	0	3	0
43	974	1	10000	3	1	0	3	0
44	975	1	10000	3	1	0	3	0
43	976	1	10000	3	1	0	3	0
40	977	1	10000	3	1	0	3	0
40	978	1	10000	3	1	0	3	0
39	979	1	10000	3	1	0	3	0
41	980	1	10000	3	1	0	3	0
42	981	1	10000	3	1	0	3	0
43	982	1	10000	3	1	0	3	0
43	983	1	10000	3	1	0	3	0
42	984	1	10000	3	1	0	3	0
43	985	1	10000	3	1	0	3	0
45	986	1	10000	3	1	0	3	0
46	987	1	10000	3	1	0	3	0
44	988	1	10000	3	1	0	3	0
42	989	1	10000	3	1	0	3	0
41	990	1	10000	3	1	0	3	0
40	991	1	10000	3	1	0	3	0
41	992	1	10000	3	1	0	3	0
42	993	1	10000	3	1	0	3	0
41	994	1	10000	3	1	0	3	0
39	995	1	10000	3	1	0	3	0
39	996	1	10000	3	1	0	3	0
38	997	1	10000	3	1	0	3	0
38	998	1	10000	3	1	0	3	0
39	999	1	10000	3	1	0	3	0
40	1000	1	10000	3	1	0	3	0
135	2	0	10000	4	1	0	4	0
136	3	0	10000	4	1	0	4	0
139	4	0	10000	4	1	0	4	0
140	5	0	10000	4	1	0	4	0
143	6	0	10000	4	1	0	4	0
142	7	0	10000	4	1	0	4	0
141	8	0	10000	4	1	0	4	0
140	9	0	10000	4	1	0	4	0
140	10	0	10000	4	1	0	4	0
140	11	0	10000	4	1	0	4	0
140	12	0	10000	4	1	0	4	0
140	13	0	10000	4	1	0	4	0
138	14	0	10000	4	1	0	4	0
140	15	0	10000	4	1	0	4	0
140	16	0	10000	4	1	0	4	0
139	17	0	10000	4	1	0	4	0
137	18	0	10000	4	1	0	4	0
135	19	0	10000	4	1	0	4	0
130	20	0	10000	4	1	0	4	0
128	21	0	10000	4	1	0	4	0
126	22	0	10000	4	1	0	4	0
122	23	0	10000	4	1	0	4	0
118	24	0	10000	4	1	0	4	0
113	25	0	10000	4	1	0	4	0
113	26	0	10000	4	1	0	4	0
111	27	0	10000	4	1	0	4	0
110	28	0	10000	4	1	0	4	0
110	29	0	10000	4	1	0	4	0
107	30	0	10000	4	1	0	4	0
103	31	0	10000	4	1	0	4	0
98	32	0	10000	4	1	0	4	0
95	33	0	10000	4	1	0	4	0
92	34	0	10000	4	1	0	4	0
90	35	0	10000	4	1	0	4	0
84	36	0	10000	4	1	0	4	0
81	37	0	10000	4	1	0	4	0
82	38	0	10000	4	1	0	4	0
81	39	0	10000	4	1	0	4	0
81	40	0	10000	4	1	0	4	0
79	41	0	10000	4	1	0	4	0
76	42	0	10000	4	1	0	4	0
73	43	0	10000	4	1	0	4	0
71	44	0	10000	4	1	0	4	0
68	45	0	10000	4	1	0	4	0
68	46	0	10000	4	1	0	4	0
67	47	0	10000	4	1	0	4	0
68	48	0	10000	4	1	0	4	0
65	49	0	10000	4	1	0	4	0
65	50	0	10000	4	1	0	4	0
66	51	0	10000	4	1	0	4	0
66	52	0	10000	4	1	0	4	0
67	53	0	10000	4	1	0	4	0
66	54	0	10000	4	1	0	4	0
64	55	0	10000	4	1	0	4	0
61	56	0	10000	4	1	0	4	0
60	57	0	10000	4	1	0	4	0
58	58	0	10000	4	1	0	4	0
56	59	0	10000	4	1	0	4	0
55	60	0	10000	4	1	0	4	0
54	61	0	10000	4	1	0	4	0
53	62	0	10000	4	1	0	4	0
50	63	0	10000	4	1	0	4	0
47	64	0	10000	4	1	0	4	0
45	65	0	10000	4	1	0	4	0
46	66	0	10000	4	1	0	4	0
45	67	0	10000	4	1	0	4	0
44	68	0	10000	4	1	0	4	0
42	69	0	10000	4	1	0	4	0
40	70	0	10000	4	1	0	4	0
39	71	0	10000	4	1	0	4	0
38	72	0	10000	4	1	0	4	0
38	73	0	10000	4	1	0	4	0
38	74	0	10000	4	1	0	4	0
37	75	0	10000	4	1	0	4	0
34	76	0	10000	4	1	0	4	0
35	77	0	10000	4	1	0	4	0
35	78	0	10000	4	1	0	4	0
34	79	0	10000	4	1	0	4	0
34	80	0	10000	4	1	0	4	0
33	81	0	10000	4	1	0	4	0
32	82	0	10000	4	1	0	4	0
32	83	0	10000	4	1	0	4	0
31	84	0	10000	4	1	0	4	0
32	85	0	10000	4	1	0	4	0
34	86	0	10000	4	1	0	4	0
35	87	0	10000	4	1	0	4	0
34	88	0	10000	4	1	0	4	0
36	89	0	10000	4	1	0	4	0
37	90	0	10000	4	1	0	4	0
38	91	0	10000	4	1	0	4	0
37	92	0	10000	4	1	0	4	0
36	93	0	10000	4	1	0	4	0
36	94	0	10000	4	1	0	4	0
36	95	0	10000	4	1	0	4	0
34	96	0	10000	4	1	0	4	0
33	97	0	10000	4	1	0	4	0
33	98	0	10000	4	1	0	4	0
33	99	0	10000	4	1	0	4	0
32	100	0	10000	4	1	0	4	0
32	101	0	10000	4	1	0	4	0
31	102	0	10000	4	1	0	4	0
30	103	0	10000	4	1	0	4	0
28	104	0	10000	4	1	0	4	0
27	105	0	10000	4	1	0	4	0
30	106	0	10000	4	1	0	4	0
29	107	0	10000	4	1	0	4	0
29	108	0	10000	4	1	0	4	0
28	109	0	10000	4	1	0	4	0
28	110	0	10000	4	1	0	4	0
29	111	0	10000	4	1	0	4	0
29	112	0	10000	4	1	0	4	0
28	113	0	10000	4	1	0	4	0
28	114	0	10000	4	1	0	4	0
27	115	0	10000	4	1	0	4	0
26	116	0	10000	4	1	0	4	0
26	117	0	10000	4	1	0	4	0
26	118	0	10000	4	1	0	4	0
27	119	0	10000	4	1	0	4	0
25	120	0	10000	4	1	0	4	0
26	121	0	10000	4	1	0	4	0
27	122	0	10000	4	1	0	4	0
30	123	0	10000	4	1	0	4	0
31	124	0	10000	4	1	0	4	0
29	125	0	10000	4	1	0	4	0
30	126	0	10000	4	1	0	4	0
30	127	0	10000	4	1	0	4	0
29	128	0	10000	4	1	0	4	0
28	129	0	10000	4	1	0	4	0
29	130	0	10000	4	1	0	4	0
27	131	0	10000	4	1	0	4	0
27	132	0	10000	4	1	0	4	0
29	133	0	10000	4	1	0	4	0
30	134	0	10000	4	1	0	4	0
33	135	0	10000	4	1	0	4	0
31	136	0	10000	4	1	0	4	0
30	137	0	10000	4	1	0	4	0
31	138	0	10000	4	1	0	4	0
32	139	0	10000	4	1	0	4	0
31	140	0	10000	4	1	0	4	0
32	141	0	10000	4	1	0	4	0
32	142	0	10000	4	1	0	4	0
31	143	0	10000	4	1	0	4	0
31	144	0	10000	4	1	0	4	0
31	145	0	10000	4	1	0	4	0
34	146	0	10000	4	1	0	4	0
34	147	0	10000	4	1	0	4	0
32	148	0	10000	4	1	0	4	0
31	149	0	10000	4	1	0	4	0
31	150	0	10000	4	1	0	4	0
30	151	0	10000	4	1	0	4	0
31	152	0	10000	4	1	0	4	0
31	153	0	10000	4	1	0	4	0
32	154	0	10000	4	1	0	4	0
31	155	0	10000	4	1	0	4	0
29	156	0	10000	4	1	0	4	0
30	157	0	10000	4	1	0	4	0
29	158	0	10000	4	1	0	4	0
28	159	0	10000	4	1	0	4	0
28	160	0	10000	4	1	0	4	0
28	161	0	10000	4	1	0	4	0
26	162	0	10000	4	1	0	4	0
25	163	0	10000	4	1	0	4	0
25	164	0	10000	4	1	0	4	0
24	165	0	10000	4	1	0	4	0
28	166	0	10000	4	1	0	4	0
29	167	0	10000	4	1	0	4	0
27	168	0	10000	4	1	0	4	0
26	169	0	10000	4	1	0	4	0
25	170	0	10000	4	1	0	4	0
29	171	0	10000	4	1	0	4	0
33	172	0	10000	4	1	0	4	0
38	173	0	10000	4	1	0	4	0
43	174	0	10000	4	1	0	4	0
46	175	0	10000	4	1	0	4	0
44	176	0	10000	4	1	0	4	0
44	177	0	10000	4	1	0	4	0
50	178	0	10000	4	1	0	4	0
54	179	0	10000	4	1	0	4	0
56	180	0	10000	4	1	0	4	0
60	181	0	10000	4	1	0	4	0
61	182	0	10000	4	1	0	4	0
59	183	0	10000	4	1	0	4	0
62	184	0	10000	4	1	0	4	0
72	185	0	10000	4	1	0	4	0
86	186	0	10000	4	1	0	4	0
92	187	0	10000	4	1	0	4	0
95	188	0	10000	4	1	0	4	0
94	189	0	10000	4	1	0	4	0
91	190	0	10000	4	1	0	4	0
86	191	0	10000	4	1	0	4	0
84	192	0	10000	4	1	0	4	0
90	193	0	10000	4	1	0	4	0
97	194	0	10000	4	1	0	4	0
105	195	0	10000	4	1	0	4	0
113	196	0	10000	4	1	0	4	0
118	197	0	10000	4	1	0	4	0
126	198	0	10000	4	1	0	4	0
135	199	0	10000	4	1	0	4	0
140	200	0	10000	4	1	0	4	0
141	201	0	10000	4	1	0	4	0
139	202	0	10000	4	1	0	4	0
134	203	0	10000	4	1	0	4	0
132	204	0	10000	4	1	0	4	0
139	205	0	10000	4	1	0	4	0
150	206	0	10000	4	1	0	4	0
154	207	0	10000	4	1	0	4	0
154	208	0	10000	4	1	0	4	0
152	209	0	10000	4	1	0	4	0
150	210	0	10000	4	1	0	4	0
152	211	0	10000	4	1	0	4	0
153	212	0	10000	4	1	0	4	0
155	213	0	10000	4	1	0	4	0
154	214	0	10000	4	1	0	4	0
150	215	0	10000	4	1	0	4	0
145	216	0	10000	4	1	0	4	0
143	217	0	10000	4	1	0	4	0
140	218	0	10000	4	1	0	4	0
137	219	0	10000	4	1	0	4	0
130	220	0	10000	4	1	0	4	0
125	221	0	10000	4	1	0	4	0
121	222	0	10000	4	1	0	4	0
118	223	0	10000	4	1	0	4	0
116	224	0	10000	4	1	0	4	0
113	225	0	10000	4	1	0	4	0
111	226	0	10000	4	1	0	4	0
110	227	0	10000	4	1	0	4	0
110	228	0	10000	4	1	0	4	0
109	229	0	10000	4	1	0	4	0
108	230	0	10000	4	1	0	4	0
107	231	0	10000	4	1	0	4	0
105	232	0	10000	4	1	0	4	0
103	233	0	10000	4	1	0	4	0
99	234	0	10000	4	1	0	4	0
98	235	0	10000	4	1	0	4	0
98	236	0	10000	4	1	0	4	0
103	237	0	10000	4	1	0	4	0
108	238	0	10000	4	1	0	4	0
110	239	0	10000	4	1	0	4	0
112	240	0	10000	4	1	0	4	0
112	241	0	10000	4	1	0	4	0
113	242	0	10000	4	1	0	4	0
115	243	0	10000	4	1	0	4	0
117	244	0	10000	4	1	0	4	0
119	245	0	10000	4	1	0	4	0
124	246	0	10000	4	1	0	4	0
129	247	0	10000	4	1	0	4	0
136	248	0	10000	4	1	0	4	0
143	249	0	10000	4	1	0	4	0
150	250	0	10000	4	1	0	4	0
155	251	0	10000	4	1	0	4	0
159	252	0	10000	4	1	0	4	0
164	253	0	10000	4	1	0	4	0
167	254	0	10000	4	1	0	4	0
170	255	0	10000	4	1	0	4	0
171	256	0	10000	4	1	0	4	0
174	257	0	10000	4	1	0	4	0
177	258	0	10000	4	1	0	4	0
179	259	0	10000	4	1	0	4	0
181	260	0	10000	4	1	0	4	0
184	261	0	10000	4	1	0	4	0
184	262	0	10000	4	1	0	4	0
184	263	0	10000	4	1	0	4	0
184	264	0	10000	4	1	0	4	0
183	265	0	10000	4	1	0	4	0
184	266	0	10000	4	1	0	4	0
183	267	0	10000	4	1	0	4	0
180	268	0	10000	4	1	0	4	0
180	269	0	10000	4	1	0	4	0
181	270	0	10000	4	1	0	4	0
183	271	0	10000	4	1	0	4	0
185	272	0	10000	4	1	0	4	0
185	273	0	10000	4	1	0	4	0
184	274	0	10000	4	1	0	4	0
182	275	0	10000	4	1	0	4	0
177	276	0	10000	4	1	0	4	0
176	277	0	10000	4	1	0	4	0
173	278	0	10000	4	1	0	4	0
167	279	0	10000	4	1	0	4	0
162	280	0	10000	4	1	0	4	0
154	281	0	10000	4	1	0	4	0
151	282	0	10000	4	1	0	4	0
148	283	0	10000	4	1	0	4	0
145	284	0	10000	4	1	0	4	0
144	285	0	10000	4	1	0	4	0
144	286	0	10000	4	1	0	4	0
142	287	0	10000	4	1	0	4	0
139	288	0	10000	4	1	0	4	0
136	289	0	10000	4	1	0	4	0
129	290	0	10000	4	1	0	4	0
125	291	0	10000	4	1	0	4	0
120	292	0	10000	4	1	0	4	0
116	293	0	10000	4	1	0	4	0
113	294	0	10000	4	1	0	4	0
111	295	0	10000	4	1	0	4	0
107	296	0	10000	4	1	0	4	0
105	297	0	10000	4	1	0	4	0
103	298	0	10000	4	1	0	4	0
101	299	0	10000	4	1	0	4	0
100	300	0	10000	4	1	0	4	0
96	301	0	10000	4	1	0	4	0
93	302	0	10000	4	1	0	4	0
88	303	0	10000	4	1	0	4	0
84	304	0	10000	4	1	0	4	0
80	305	0	10000	4	1	0	4	0
80	306	0	10000	4	1	0	4	0
78	307	0	10000	4	1	0	4	0
74	308	0	10000	4	1	0	4	0
72	309	0	10000	4	1	0	4	0
68	310	0	10000	4	1	0	4	0
66	311	0	10000	4	1	0	4	0
65	312	0	10000	4	1	0	4	0
64	313	0	10000	4	1	0	4	0
62	314	0	10000	4	1	0	4	0
60	315	0	10000	4	1	0	4	0
57	316	0	10000	4	1	0	4	0
56	317	0	10000	4	1	0	4	0
54	318	0	10000	4	1	0	4	0
52	319	0	10000	4	1	0	4	0
50	320	0	10000	4	1	0	4	0
50	321	0	10000	4	1	0	4	0
49	322	0	10000	4	1	0	4	0
47	323	0	10000	4	1	0	4	0
45	324	0	10000	4	1	0	4	0
45	325	0	10000	4	1	0	4	0
48	326	0	10000	4	1	0	4	0
50	327	0	10000	4	1	0	4	0
49	328	0	10000	4	1	0	4	0
46	329	0	10000	4	1	0	4	0
44	330	0	10000	4	1	0	4	0
44	331	0	10000	4	1	0	4	0
46	332	0	10000	4	1	0	4	0
45	333	0	10000	4	1	0	4	0
46	334	0	10000	4	1	0	4	0
45	335	0	10000	4	1	0	4	0
43	336	0	10000	4	1	0	4	0
44	337	0	10000	4	1	0	4	0
44	338	0	10000	4	1	0	4	0
43	339	0	10000	4	1	0	4	0
41	340	0	10000	4	1	0	4	0
42	341	0	10000	4	1	0	4	0
42	342	0	10000	4	1	0	4	0
40	343	0	10000	4	1	0	4	0
41	344	0	10000	4	1	0	4	0
40	345	0	10000	4	1	0	4	0
43	346	0	10000	4	1	0	4	0
44	347	0	10000	4	1	0	4	0
43	348	0	10000	4	1	0	4	0
41	349	0	10000	4	1	0	4	0
40	350	0	10000	4	1	0	4	0
38	351	0	10000	4	1	0	4	0
37	352	0	10000	4	1	0	4	0
38	353	0	10000	4	1	0	4	0
36	354	0	10000	4	1	0	4	0
36	355	0	10000	4	1	0	4	0
33	356	0	10000	4	1	0	4	0
33	357	0	10000	4	1	0	4	0
33	358	0	10000	4	1	0	4	0
34	359	0	10000	4	1	0	4	0
36	360	0	10000	4	1	0	4	0
38	361	0	10000	4	1	0	4	0
36	362	0	10000	4	1	0	4	0
36	363	0	10000	4	1	0	4	0
36	364	0	10000	4	1	0	4	0
34	365	0	10000	4	1	0	4	0
34	366	0	10000	4	1	0	4	0
33	367	0	10000	4	1	0	4	0
32	368	0	10000	4	1	0	4	0
31	369	0	10000	4	1	0	4	0
33	370	0	10000	4	1	0	4	0
33	371	0	10000	4	1	0	4	0
31	372	0	10000	4	1	0	4	0
31	373	0	10000	4	1	0	4	0
31	374	0	10000	4	1	0	4	0
31	375	0	10000	4	1	0	4	0
28	376	0	10000	4	1	0	4	0
27	377	0	10000	4	1	0	4	0
27	378	0	10000	4	1	0	4	0
26	379	0	10000	4	1	0	4	0
25	380	0	10000	4	1	0	4	0
24	381	0	10000	4	1	0	4	0
27	382	0	10000	4	1	0	4	0
26	383	0	10000	4	1	0	4	0
25	384	0	10000	4	1	0	4	0
25	385	0	10000	4	1	0	4	0
27	386	0	10000	4	1	0	4	0
26	387	0	10000	4	1	0	4	0
26	388	0	10000	4	1	0	4	0
25	389	0	10000	4	1	0	4	0
24	390	0	10000	4	1	0	4	0
23	391	0	10000	4	1	0	4	0
23	392	0	10000	4	1	0	4	0
26	393	0	10000	4	1	0	4	0
29	394	0	10000	4	1	0	4	0
31	395	0	10000	4	1	0	4	0
30	396	0	10000	4	1	0	4	0
28	397	0	10000	4	1	0	4	0
28	398	0	10000	4	1	0	4	0
28	399	0	10000	4	1	0	4	0
27	400	0	10000	4	1	0	4	0
26	401	0	10000	4	1	0	4	0
26	402	0	10000	4	1	0	4	0
25	403	0	10000	4	1	0	4	0
25	404	0	10000	4	1	0	4	0
25	405	0	10000	4	1	0	4	0
28	406	0	10000	4	1	0	4	0
29	407	0	10000	4	1	0	4	0
27	408	0	10000	4	1	0	4	0
27	409	0	10000	4	1	0	4	0
27	410	0	10000	4	1	0	4	0
26	411	0	10000	4	1	0	4	0
25	412	0	10000	4	1	0	4	0
25	413	0	10000	4	1	0	4	0
24	414	0	10000	4	1	0	4	0
24	415	0	10000	4	1	0	4	0
23	416	0	10000	4	1	0	4	0
25	417	0	10000	4	1	0	4	0
26	418	0	10000	4	1	0	4	0
26	419	0	10000	4	1	0	4	0
25	420	0	10000	4	1	0	4	0
24	421	0	10000	4	1	0	4	0
26	422	0	10000	4	1	0	4	0
25	423	0	10000	4	1	0	4	0
25	424	0	10000	4	1	0	4	0
26	425	0	10000	4	1	0	4	0
27	426	0	10000	4	1	0	4	0
27	427	0	10000	4	1	0	4	0
28	428	0	10000	4	1	0	4	0
27	429	0	10000	4	1	0	4	0
27	430	0	10000	4	1	0	4	0
27	431	0	10000	4	1	0	4	0
27	432	0	10000	4	1	0	4	0
27	433	0	10000	4	1	0	4	0
27	434	0	10000	4	1	0	4	0
27	435	0	10000	4	1	0	4	0
24	436	0	10000	4	1	0	4	0
25	437	0	10000	4	1	0	4	0
25	438	0	10000	4	1	0	4	0
26	439	0	10000	4	1	0	4	0
28	440	0	10000	4	1	0	4	0
30	441	0	10000	4	1	0	4	0
32	442	0	10000	4	1	0	4	0
31	443	0	10000	4	1	0	4	0
30	444	0	10000	4	1	0	4	0
29	445	0	10000	4	1	0	4	0
30	446	0	10000	4	1	0	4	0
30	447	0	10000	4	1	0	4	0
30	448	0	10000	4	1	0	4	0
30	449	0	10000	4	1	0	4	0
31	450	0	10000	4	1	0	4	0
31	451	0	10000	4	1	0	4	0
31	452	0	10000	4	1	0	4	0
34	453	0	10000	4	1	0	4	0
37	454	0	10000	4	1	0	4	0
36	455	0	10000	4	1	0	4	0
34	456	0	10000	4	1	0	4	0
33	457	0	10000	4	1	0	4	0
32	458	0	10000	4	1	0	4	0
32	459	0	10000	4	1	0	4	0
31	460	0	10000	4	1	0	4	0
30	461	0	10000	4	1	0	4	0
29	462	0	10000	4	1	0	4	0
27	463	0	10000	4	1	0	4	0
26	464	0	10000	4	1	0	4	0
25	465	0	10000	4	1	0	4	0
28	466	0	10000	4	1	0	4	0
29	467	0	10000	4	1	0	4	0
30	468	0	10000	4	1	0	4	0
28	469	0	10000	4	1	0	4	0
28	470	0	10000	4	1	0	4	0
30	471	0	10000	4	1	0	4	0
31	472	0	10000	4	1	0	4	0
30	473	0	10000	4	1	0	4	0
29	474	0	10000	4	1	0	4	0
30	475	0	10000	4	1	0	4	0
28	476	0	10000	4	1	0	4	0
28	477	0	10000	4	1	0	4	0
27	478	0	10000	4	1	0	4	0
28	479	0	10000	4	1	0	4	0
28	480	0	10000	4	1	0	4	0
27	481	0	10000	4	1	0	4	0
26	482	0	10000	4	1	0	4	0
26	483	0	10000	4	1	0	4	0
25	484	0	10000	4	1	0	4	0
24	485	0	10000	4	1	0	4	0
26	486	0	10000	4	1	0	4	0
27	487	0	10000	4	1	0	4	0
27	488	0	10000	4	1	0	4	0
26	489	0	10000	4	1	0	4	0
26	490	0	10000	4	1	0	4	0
27	491	0	10000	4	1	0	4	0
26	492	0	10000	4	1	0	4	0
26	493	0	10000	4	1	0	4	0
26	494	0	10000	4	1	0	4	0
27	495	0	10000	4	1	0	4	0
24	496	0	10000	4	1	0	4	0
23	497	0	10000	4	1	0	4	0
23	498	0	10000	4	1	0	4	0
22	499	0	10000	4	1	0	4	0
24	500	0	10000	4	1	0	4	0
24	501	0	10000	4	1	0	4	0
24	502	0	10000	4	1	0	4	1
22	503	0	10000	4	1	0	4	1
22	504	0	10000	4	1	0	4	1
22	505	0	10000	4	1	0	4	1
26	506	0	10000	4	1	0	4	1
26	507	0	10000	4	1	0	4	1
25	508	0	10000	4	1	0	4	1
27	509	0	10000	4	1	0	4	1
28	510	0	10000	4	1	0	4	1
29	511	0	10000	4	1	0	4	1
28	512	0	10000	4	1	0	4	1
28	513	0	10000	4	1	0	4	1
28	514	0	10000	4	1	0	4	1
28	515	0	10000	4	1	0	4	1
25	516	0	10000	4	1	0	4	1
25	517	0	10000	4	1	0	4	1
24	518	0	10000	4	1	0	4	1
24	519	0	10000	4	1	0	4	1
23	520	0	10000	4	1	0	4	1
25	521	0	10000	4	1	0	4	1
26	522	0	10000	4	1	0	4	1
25	523	0	10000	4	1	0	4	1
24	524	0	10000	4	1	0	4	1
26	525	0	10000	4	1	0	4	1
28	526	0	10000	4	1	0	4	1
29	527	0	10000	4	1	0	4	1
29	528	0	10000	4	1	0	4	1
28	529	0	10000	4	1	0	4	1
29	530	0	10000	4	1	0	4	1
31	531	0	10000	4	1	0	4	1
32	532	0	10000	4	1	0	4	1
33	533	0	10000	4	1	0	4	1
33	534	0	10000	4	1	0	4	1
35	535	0	10000	4	1	0	4	1
34	536	0	10000	4	1	0	4	1
33	537	0	10000	4	1	0	4	1
36	538	0	10000	4	1	0	4	1
36	539	0	10000	4	1	0	4	1
36	540	0	10000	4	1	0	4	1
38	541	0	10000	4	1	0	4	1
39	542	0	10000	4	1	0	4	1
37	543	0	10000	4	1	0	4	1
40	544	0	10000	4	1	0	4	1
44	545	0	10000	4	1	0	4	1
52	546	0	10000	4	1	0	4	1
55	547	0	10000	4	1	0	4	1
54	548	0	10000	4	1	0	4	1
53	549	0	10000	4	1	0	4	1
53	550	0	10000	4	1	0	4	1
52	551	0	10000	4	1	0	4	1
51	552	0	10000	4	1	0	4	0
54	553	0	10000	4	1	0	4	0
57	554	0	10000	4	1	0	4	0
60	555	0	10000	4	1	0	4	0
60	556	0	10000	4	1	0	4	0
59	557	0	10000	4	1	0	4	0
59	558	0	10000	4	1	0	4	0
59	559	0	10000	4	1	0	4	0
59	560	0	10000	4	1	0	4	0
57	561	0	10000	4	1	0	4	0
58	562	0	10000	4	1	0	4	0
56	563	0	10000	4	1	0	4	0
54	564	0	10000	4	1	0	4	0
51	565	0	10000	4	1	0	4	0
53	566	0	10000	4	1	0	4	0
54	567	0	10000	4	1	0	4	0
53	568	0	10000	4	1	0	4	0
51	569	0	10000	4	1	0	4	0
50	570	0	10000	4	1	0	4	0
49	571	0	10000	4	1	0	4	0
48	572	0	10000	4	1	0	4	0
47	573	0	10000	4	1	0	4	0
46	574	0	10000	4	1	0	4	0
44	575	0	10000	4	1	0	4	0
41	576	0	10000	4	1	0	4	0
41	577	0	10000	4	1	0	4	0
41	578	0	10000	4	1	0	4	0
40	579	0	10000	4	1	0	4	0
39	580	0	10000	4	1	0	4	0
37	581	0	10000	4	1	0	4	0
38	582	0	10000	4	1	0	4	0
39	583	0	10000	4	1	0	4	0
40	584	0	10000	4	1	0	4	0
41	585	0	10000	4	1	0	4	0
42	586	0	10000	4	1	0	4	0
40	587	0	10000	4	1	0	4	0
41	588	0	10000	4	1	0	4	0
40	589	0	10000	4	1	0	4	0
40	590	0	10000	4	1	0	4	0
41	591	0	10000	4	1	0	4	0
41	592	0	10000	4	1	0	4	0
43	593	0	10000	4	1	0	4	0
45	594	0	10000	4	1	0	4	0
52	595	0	10000	4	1	0	4	0
58	596	0	10000	4	1	0	4	0
75	597	0	10000	4	1	0	4	0
97	598	0	10000	4	1	0	4	0
104	599	0	10000	4	1	0	4	0
130	600	0	10000	4	1	0	4	0
139	601	0	10000	4	1	0	4	0
159	602	0	10000	4	1	0	4	0
167	603	0	10000	4	1	0	4	0
161	604	0	10000	4	1	0	4	0
160	605	0	10000	4	1	0	4	0
183	606	0	10000	4	1	0	4	0
182	607	0	10000	4	1	0	4	0
176	608	0	10000	4	1	0	4	0
189	609	0	10000	4	1	0	4	0
196	610	0	10000	4	1	0	4	0
205	611	0	10000	4	1	0	4	0
235	612	0	10000	4	1	0	4	0
267	613	0	10000	4	1	0	4	0
327	614	0	10000	4	1	0	4	0
359	615	0	10000	4	1	0	4	0
360	616	0	10000	4	1	0	4	0
348	617	0	10000	4	1	0	4	0
337	618	0	10000	4	1	0	4	0
329	619	0	10000	4	1	0	4	0
321	620	0	10000	4	1	0	4	0
312	621	0	10000	4	1	0	4	0
305	622	0	10000	4	1	0	4	0
298	623	0	10000	4	1	0	4	0
297	624	0	10000	4	1	0	4	0
291	625	0	10000	4	1	0	4	0
279	626	0	10000	4	1	0	4	0
273	627	0	10000	4	1	0	4	0
270	628	0	10000	4	1	0	4	0
265	629	0	10000	4	1	0	4	0
264	630	0	10000	4	1	0	4	0
265	631	0	10000	4	1	0	4	0
264	632	0	10000	4	1	0	4	0
263	633	0	10000	4	1	0	4	0
261	634	0	10000	4	1	0	4	0
258	635	0	10000	4	1	0	4	0
252	636	0	10000	4	1	0	4	0
247	637	0	10000	4	1	0	4	0
237	638	0	10000	4	1	0	4	0
226	639	0	10000	4	1	0	4	0
218	640	0	10000	4	1	0	4	0
210	641	0	10000	4	1	0	4	0
201	642	0	10000	4	1	0	4	0
191	643	0	10000	4	1	0	4	0
185	644	0	10000	4	1	0	4	0
181	645	0	10000	4	1	0	4	0
180	646	0	10000	4	1	0	4	0
176	647	0	10000	4	1	0	4	0
174	648	0	10000	4	1	0	4	0
175	649	0	10000	4	1	0	4	0
178	650	0	10000	4	1	0	4	0
178	651	0	10000	4	1	0	4	0
177	652	0	10000	4	1	0	4	0
177	653	0	10000	4	1	0	4	0
176	654	0	10000	4	1	0	4	0
175	655	0	10000	4	1	0	4	0
172	656	0	10000	4	1	0	4	0
172	657	0	10000	4	1	0	4	0
172	658	0	10000	4	1	0	4	0
173	659	0	10000	4	1	0	4	0
174	660	0	10000	4	1	0	4	0
174	661	0	10000	4	1	0	4	0
176	662	0	10000	4	1	0	4	0
177	663	0	10000	4	1	0	4	0
178	664	0	10000	4	1	0	4	0
178	665	0	10000	4	1	0	4	0
178	666	0	10000	4	1	0	4	0
177	667	0	10000	4	1	0	4	0
174	668	0	10000	4	1	0	4	0
168	669	0	10000	4	1	0	4	0
160	670	0	10000	4	1	0	4	0
153	671	0	10000	4	1	0	4	0
146	672	0	10000	4	1	0	4	0
141	673	0	10000	4	1	0	4	0
138	674	0	10000	4	1	0	4	0
136	675	0	10000	4	1	0	4	0
129	676	0	10000	4	1	0	4	0
124	677	0	10000	4	1	0	4	0
120	678	0	10000	4	1	0	4	0
116	679	0	10000	4	1	0	4	0
112	680	0	10000	4	1	0	4	0
109	681	0	10000	4	1	0	4	0
104	682	0	10000	4	1	0	4	0
100	683	0	10000	4	1	0	4	0
95	684	0	10000	4	1	0	4	0
91	685	0	10000	4	1	0	4	0
91	686	0	10000	4	1	0	4	0
86	687	0	10000	4	1	0	4	0
83	688	0	10000	4	1	0	4	0
83	689	0	10000	4	1	0	4	0
83	690	0	10000	4	1	0	4	0
83	691	0	10000	4	1	0	4	0
82	692	0	10000	4	1	0	4	0
83	693	0	10000	4	1	0	4	0
84	694	0	10000	4	1	0	4	0
87	695	0	10000	4	1	0	4	0
85	696	0	10000	4	1	0	4	0
84	697	0	10000	4	1	0	4	0
84	698	0	10000	4	1	0	4	0
84	699	0	10000	4	1	0	4	0
84	700	0	10000	4	1	0	4	0
85	701	0	10000	4	1	0	4	0
85	702	0	10000	4	1	0	4	0
83	703	0	10000	4	1	0	4	0
80	704	0	10000	4	1	0	4	0
78	705	0	10000	4	1	0	4	0
79	706	0	10000	4	1	0	4	0
79	707	0	10000	4	1	0	4	0
78	708	0	10000	4	1	0	4	0
79	709	0	10000	4	1	0	4	0
77	710	0	10000	4	1	0	4	0
77	711	0	10000	4	1	0	4	0
77	712	0	10000	4	1	0	4	0
80	713	0	10000	4	1	0	4	0
81	714	0	10000	4	1	0	4	0
84	715	0	10000	4	1	0	4	0
82	716	0	10000	4	1	0	4	0
83	717	0	10000	4	1	0	4	0
85	718	0	10000	4	1	0	4	0
84	719	0	10000	4	1	0	4	0
80	720	0	10000	4	1	0	4	0
80	721	0	10000	4	1	0	4	0
78	722	0	10000	4	1	0	4	0
75	723	0	10000	4	1	0	4	0
74	724	0	10000	4	1	0	4	0
71	725	0	10000	4	1	0	4	0
71	726	0	10000	4	1	0	4	0
69	727	0	10000	4	1	0	4	0
70	728	0	10000	4	1	0	4	0
71	729	0	10000	4	1	0	4	0
73	730	0	10000	4	1	0	4	0
72	731	0	10000	4	1	0	4	0
71	732	0	10000	4	1	0	4	0
70	733	0	10000	4	1	0	4	0
68	734	0	10000	4	1	0	4	0
68	735	0	10000	4	1	0	4	0
68	736	0	10000	4	1	0	4	0
67	737	0	10000	4	1	0	4	0
66	738	0	10000	4	1	0	4	0
63	739	0	10000	4	1	0	4	0
61	740	0	10000	4	1	0	4	0
62	741	0	10000	4	1	0	4	0
59	742	0	10000	4	1	0	4	0
60	743	0	10000	4	1	0	4	0
60	744	0	10000	4	1	0	4	0
58	745	0	10000	4	1	0	4	0
58	746	0	10000	4	1	0	4	0
58	747	0	10000	4	1	0	4	0
57	748	0	10000	4	1	0	4	0
57	749	0	10000	4	1	0	4	0
57	750	0	10000	4	1	0	4	0
55	751	0	10000	4	1	0	4	0
55	752	0	10000	4	1	0	4	0
54	753	0	10000	4	1	0	4	0
53	754	0	10000	4	1	0	4	0
51	755	0	10000	4	1	0	4	0
47	756	0	10000	4	1	0	4	0
46	757	0	10000	4	1	0	4	0
46	758	0	10000	4	1	0	4	0
45	759	0	10000	4	1	0	4	0
44	760	0	10000	4	1	0	4	0
42	761	0	10000	4	1	0	4	0
43	762	0	10000	4	1	0	4	0
43	763	0	10000	4	1	0	4	0
43	764	0	10000	4	1	0	4	0
43	765	0	10000	4	1	0	4	0
47	766	0	10000	4	1	0	4	0
49	767	0	10000	4	1	0	4	0
47	768	0	10000	4	1	0	4	0
46	769	0	10000	4	1	0	4	0
46	770	0	10000	4	1	0	4	0
45	771	0	10000	4	1	0	4	0
45	772	0	10000	4	1	0	4	0
47	773	0	10000	4	1	0	4	0
45	774	0	10000	4	1	0	4	0
46	775	0	10000	4	1	0	4	0
43	776	0	10000	4	1	0	4	0
43	777	0	10000	4	1	0	4	0
42	778	0	10000	4	1	0	4	0
42	779	0	10000	4	1	0	4	0
41	780	0	10000	4	1	0	4	0
40	781	0	10000	4	1	0	4	0
39	782	0	10000	4	1	0	4	0
37	783	0	10000	4	1	0	4	0
36	784	0	10000	4	1	0	4	0
35	785	0	10000	4	1	0	4	0
37	786	0	10000	4	1	0	4	0
37	787	0	10000	4	1	0	4	0
40	788	0	10000	4	1	0	4	0
42	789	0	10000	4	1	0	4	0
44	790	0	10000	4	1	0	4	0
46	791	0	10000	4	1	0	4	0
48	792	0	10000	4	1	0	4	0
50	793	0	10000	4	1	0	4	0
50	794	0	10000	4	1	0	4	0
49	795	0	10000	4	1	0	4	0
47	796	0	10000	4	1	0	4	0
46	797	0	10000	4	1	0	4	0
46	798	0	10000	4	1	0	4	0
48	799	0	10000	4	1	0	4	0
48	800	0	10000	4	1	0	4	0
47	801	0	10000	4	1	0	4	0
48	802	0	10000	4	1	0	4	0
45	803	0	10000	4	1	0	4	0
45	804	0	10000	4	1	0	4	0
45	805	0	10000	4	1	0	4	0
47	806	0	10000	4	1	0	4	0
48	807	0	10000	4	1	0	4	0
46	808	0	10000	4	1	0	4	0
44	809	0	10000	4	1	0	4	0
44	810	0	10000	4	1	0	4	0
45	811	0	10000	4	1	0	4	0
47	812	0	10000	4	1	0	4	0
52	813	0	10000	4	1	0	4	0
56	814	0	10000	4	1	0	4	0
58	815	0	10000	4	1	0	4	0
54	816	0	10000	4	1	0	4	0
53	817	0	10000	4	1	0	4	0
50	818	0	10000	4	1	0	4	0
48	819	0	10000	4	1	0	4	0
48	820	0	10000	4	1	0	4	0
47	821	0	10000	4	1	0	4	0
47	822	0	10000	4	1	0	4	0
46	823	0	10000	4	1	0	4	0
44	824	0	10000	4	1	0	4	0
45	825	0	10000	4	1	0	4	0
48	826	0	10000	4	1	0	4	0
46	827	0	10000	4	1	0	4	0
45	828	0	10000	4	1	0	4	0
43	829	0	10000	4	1	0	4	0
42	830	0	10000	4	1	0	4	0
41	831	0	10000	4	1	0	4	0
40	832	0	10000	4	1	0	4	0
39	833	0	10000	4	1	0	4	0
40	834	0	10000	4	1	0	4	0
39	835	0	10000	4	1	0	4	0
37	836	0	10000	4	1	0	4	0
40	837	0	10000	4	1	0	4	0
42	838	0	10000	4	1	0	4	0
43	839	0	10000	4	1	0	4	0
43	840	0	10000	4	1	0	4	0
42	841	0	10000	4	1	0	4	0
42	842	0	10000	4	1	0	4	0
40	843	0	10000	4	1	0	4	0
38	844	0	10000	4	1	0	4	0
37	845	0	10000	4	1	0	4	0
39	846	0	10000	4	1	0	4	0
37	847	0	10000	4	1	0	4	0
36	848	0	10000	4	1	0	4	0
37	849	0	10000	4	1	0	4	0
35	850	0	10000	4	1	0	4	0
34	851	0	10000	4	1	0	4	0
35	852	0	10000	4	1	0	4	0
36	853	0	10000	4	1	0	4	0
37	854	0	10000	4	1	0	4	0
35	855	0	10000	4	1	0	4	0
32	856	0	10000	4	1	0	4	0
32	857	0	10000	4	1	0	4	0
31	858	0	10000	4	1	0	4	0
31	859	0	10000	4	1	0	4	0
30	860	0	10000	4	1	0	4	0
29	861	0	10000	4	1	0	4	0
29	862	0	10000	4	1	0	4	0
28	863	0	10000	4	1	0	4	0
27	864	0	10000	4	1	0	4	0
28	865	0	10000	4	1	0	4	0
30	866	0	10000	4	1	0	4	0
29	867	0	10000	4	1	0	4	0
28	868	0	10000	4	1	0	4	0
26	869	0	10000	4	1	0	4	0
25	870	0	10000	4	1	0	4	0
25	871	0	10000	4	1	0	4	0
26	872	0	10000	4	1	0	4	0
29	873	0	10000	4	1	0	4	0
28	874	0	10000	4	1	0	4	0
30	875	0	10000	4	1	0	4	0
28	876	0	10000	4	1	0	4	0
29	877	0	10000	4	1	0	4	0
29	878	0	10000	4	1	0	4	0
30	879	0	10000	4	1	0	4	0
31	880	0	10000	4	1	0	4	0
30	881	0	10000	4	1	0	4	0
29	882	0	10000	4	1	0	4	0
29	883	0	10000	4	1	0	4	0
27	884	0	10000	4	1	0	4	0
27	885	0	10000	4	1	0	4	0
29	886	0	10000	4	1	0	4	0
27	887	0	10000	4	1	0	4	0
26	888	0	10000	4	1	0	4	0
27	889	0	10000	4	1	0	4	0
26	890	0	10000	4	1	0	4	0
25	891	0	10000	4	1	0	4	0
24	892	0	10000	4	1	0	4	0
25	893	0	10000	4	1	0	4	0
26	894	0	10000	4	1	0	4	0
28	895	0	10000	4	1	0	4	0
26	896	0	10000	4	1	0	4	0
26	897	0	10000	4	1	0	4	0
27	898	0	10000	4	1	0	4	0
26	899	0	10000	4	1	0	4	0
27	900	0	10000	4	1	0	4	0
26	901	0	10000	4	1	0	4	0
28	902	0	10000	4	1	0	4	0
28	903	0	10000	4	1	0	4	0
27	904	0	10000	4	1	0	4	0
27	905	0	10000	4	1	0	4	0
29	906	0	10000	4	1	0	4	0
27	907	0	10000	4	1	0	4	0
28	908	0	10000	4	1	0	4	0
27	909	0	10000	4	1	0	4	0
25	910	0	10000	4	1	0	4	0
25	911	0	10000	4	1	0	4	0
25	912	0	10000	4	1	0	4	0
24	913	0	10000	4	1	0	4	0
26	914	0	10000	4	1	0	4	0
27	915	0	10000	4	1	0	4	0
25	916	0	10000	4	1	0	4	0
26	917	0	10000	4	1	0	4	0
27	918	0	10000	4	1	0	4	0
29	919	0	10000	4	1	0	4	0
30	920	0	10000	4	1	0	4	0
29	921	0	10000	4	1	0	4	0
30	922	0	10000	4	1	0	4	0
31	923	0	10000	4	1	0	4	0
31	924	0	10000	4	1	0	4	0
33	925	0	10000	4	1	0	4	0
38	926	0	10000	4	1	0	4	0
40	927	0	10000	4	1	0	4	0
39	928	0	10000	4	1	0	4	0
41	929	0	10000	4	1	0	4	0
46	930	0	10000	4	1	0	4	0
49	931	0	10000	4	1	0	4	0
50	932	0	10000	4	1	0	4	0
51	933	0	10000	4	1	0	4	0
50	934	0	10000	4	1	0	4	0
48	935	0	10000	4	1	0	4	0
46	936	0	10000	4	1	0	4	0
46	937	0	10000	4	1	0	4	0
48	938	0	10000	4	1	0	4	0
49	939	0	10000	4	1	0	4	0
53	940	0	10000	4	1	0	4	0
55	941	0	10000	4	1	0	4	0
53	942	0	10000	4	1	0	4	0
51	943	0	10000	4	1	0	4	0
49	944	0	10000	4	1	0	4	0
46	945	0	10000	4	1	0	4	0
47	946	0	10000	4	1	0	4	0
45	947	0	10000	4	1	0	4	0
45	948	0	10000	4	1	0	4	0
44	949	0	10000	4	1	0	4	0
43	950	0	10000	4	1	0	4	0
42	951	0	10000	4	1	0	4	0
41	952	0	10000	4	1	0	4	0
40	953	0	10000	4	1	0	4	0
39	954	0	10000	4	1	0	4	0
38	955	0	10000	4	1	0	4	0
34	956	0	10000	4	1	0	4	0
34	957	0	10000	4	1	0	4	0
34	958	0	10000	4	1	0	4	0
34	959	0	10000	4	1	0	4	0
32	960	0	10000	4	1	0	4	0
32	961	0	10000	4	1	0	4	0
32	962	0	10000	4	1	0	4	0
32	963	0	10000	4	1	0	4	0
31	964	0	10000	4	1	0	4	0
29	965	0	10000	4	1	0	4	0
32	966	0	10000	4	1	0	4	0
32	967	0	10000	4	1	0	4	0
33	968	0	10000	4	1	0	4	0
34	969	0	10000	4	1	0	4	0
34	970	0	10000	4	1	0	4	0
35	971	0	10000	4	1	0	4	0
36	972	0	10000	4	1	0	4	0
37	973	0	10000	4	1	0	4	0
38	974	0	10000	4	1	0	4	0
37	975	0	10000	4	1	0	4	0
37	976	0	10000	4	1	0	4	0
38	977	0	10000	4	1	0	4	0
39	978	0	10000	4	1	0	4	0
40	979	0	10000	4	1	0	4	0
39	980	0	10000	4	1	0	4	0
38	981	0	10000	4	1	0	4	0
38	982	0	10000	4	1	0	4	0
37	983	0	10000	4	1	0	4	0
36	984	0	10000	4	1	0	4	0
39	985	0	10000	4	1	0	4	0
43	986	0	10000	4	1	0	4	0
43	987	0	10000	4	1	0	4	0
42	988	0	10000	4	1	0	4	0
41	989	0	10000	4	1	0	4	0
42	990	0	10000	4	1	0	4	0
41	991	0	10000	4	1	0	4	0
39	992	0	10000	4	1	0	4	0
38	993	0	10000	4	1	0	4	0
38	994	0	10000	4	1	0	4	0
37	995	0	10000	4	1	0	4	0
36	996	0	10000	4	1	0	4	0
36	997	0	10000	4	1	0	4	0
37	998	0	10000	4	1	0	4	0
38	999	0	10000	4	1	0	4	0
36	1000	0	10000	4	1	0	4	0
36	1001	0	10000	4	1	0	4	0
103	1	1	10000	5	1	0	5	0
106	2	1	10000	5	1	0	5	0
111	3	1	10000	5	1	0	5	0
114	4	1	10000	5	1	0	5	0
116	5	1	10000	5	1	0	5	0
119	6	1	10000	5	1	0	5	0
124	7	1	10000	5	1	0	5	0
126	8	1	10000	5	1	0	5	0
128	9	1	10000	5	1	0	5	0
130	10	1	10000	5	1	0	5	0
128	11	1	10000	5	1	0	5	0
132	12	1	10000	5	1	0	5	0
137	13	1	10000	5	1	0	5	0
138	14	1	10000	5	1	0	5	0
136	15	1	10000	5	1	0	5	0
133	16	1	10000	5	1	0	5	0
131	17	1	10000	5	1	0	5	0
127	18	1	10000	5	1	0	5	0
121	19	1	10000	5	1	0	5	0
116	20	1	10000	5	1	0	5	0
118	21	1	10000	5	1	0	5	0
117	22	1	10000	5	1	0	5	0
116	23	1	10000	5	1	0	5	0
114	24	1	10000	5	1	0	5	0
112	25	1	10000	5	1	0	5	0
110	26	1	10000	5	1	0	5	0
111	27	1	10000	5	1	0	5	0
111	28	1	10000	5	1	0	5	0
109	29	1	10000	5	1	0	5	0
107	30	1	10000	5	1	0	5	0
101	31	1	10000	5	1	0	5	0
97	32	1	10000	5	1	0	5	0
96	33	1	10000	5	1	0	5	0
94	34	1	10000	5	1	0	5	0
91	35	1	10000	5	1	0	5	0
89	36	1	10000	5	1	0	5	0
87	37	1	10000	5	1	0	5	0
82	38	1	10000	5	1	0	5	0
79	39	1	10000	5	1	0	5	0
78	40	1	10000	5	1	0	5	0
80	41	1	10000	5	1	0	5	0
80	42	1	10000	5	1	0	5	0
80	43	1	10000	5	1	0	5	0
77	44	1	10000	5	1	0	5	0
74	45	1	10000	5	1	0	5	0
70	46	1	10000	5	1	0	5	0
70	47	1	10000	5	1	0	5	0
70	48	1	10000	5	1	0	5	0
68	49	1	10000	5	1	0	5	0
66	50	1	10000	5	1	0	5	0
61	51	1	10000	5	1	0	5	0
58	52	1	10000	5	1	0	5	0
59	53	1	10000	5	1	0	5	0
58	54	1	10000	5	1	0	5	0
58	55	1	10000	5	1	0	5	0
57	56	1	10000	5	1	0	5	0
55	57	1	10000	5	1	0	5	0
52	58	1	10000	5	1	0	5	0
50	59	1	10000	5	1	0	5	0
48	60	1	10000	5	1	0	5	0
48	61	1	10000	5	1	0	5	0
46	62	1	10000	5	1	0	5	0
44	63	1	10000	5	1	0	5	0
43	64	1	10000	5	1	0	5	0
44	65	1	10000	5	1	0	5	0
47	66	1	10000	5	1	0	5	0
46	67	1	10000	5	1	0	5	0
45	68	1	10000	5	1	0	5	0
43	69	1	10000	5	1	0	5	0
42	70	1	10000	5	1	0	5	0
40	71	1	10000	5	1	0	5	0
41	72	1	10000	5	1	0	5	0
41	73	1	10000	5	1	0	5	0
42	74	1	10000	5	1	0	5	0
42	75	1	10000	5	1	0	5	0
42	76	1	10000	5	1	0	5	0
40	77	1	10000	5	1	0	5	0
38	78	1	10000	5	1	0	5	0
38	79	1	10000	5	1	0	5	0
38	80	1	10000	5	1	0	5	0
38	81	1	10000	5	1	0	5	0
38	82	1	10000	5	1	0	5	0
37	83	1	10000	5	1	0	5	0
38	84	1	10000	5	1	0	5	0
37	85	1	10000	5	1	0	5	0
36	86	1	10000	5	1	0	5	0
36	87	1	10000	5	1	0	5	0
37	88	1	10000	5	1	0	5	0
36	89	1	10000	5	1	0	5	0
35	90	1	10000	5	1	0	5	0
33	91	1	10000	5	1	0	5	0
32	92	1	10000	5	1	0	5	0
32	93	1	10000	5	1	0	5	0
33	94	1	10000	5	1	0	5	0
34	95	1	10000	5	1	0	5	0
33	96	1	10000	5	1	0	5	0
33	97	1	10000	5	1	0	5	0
33	98	1	10000	5	1	0	5	0
34	99	1	10000	5	1	0	5	0
34	100	1	10000	5	1	0	5	0
37	101	1	10000	5	1	0	5	0
36	102	1	10000	5	1	0	5	0
35	103	1	10000	5	1	0	5	0
35	104	1	10000	5	1	0	5	0
36	105	1	10000	5	1	0	5	0
34	106	1	10000	5	1	0	5	0
33	107	1	10000	5	1	0	5	0
35	108	1	10000	5	1	0	5	0
36	109	1	10000	5	1	0	5	0
35	110	1	10000	5	1	0	5	0
32	111	1	10000	5	1	0	5	0
31	112	1	10000	5	1	0	5	0
31	113	1	10000	5	1	0	5	0
30	114	1	10000	5	1	0	5	0
30	115	1	10000	5	1	0	5	0
29	116	1	10000	5	1	0	5	0
30	117	1	10000	5	1	0	5	0
31	118	1	10000	5	1	0	5	0
32	119	1	10000	5	1	0	5	0
32	120	1	10000	5	1	0	5	0
35	121	1	10000	5	1	0	5	0
38	122	1	10000	5	1	0	5	0
41	123	1	10000	5	1	0	5	0
42	124	1	10000	5	1	0	5	0
40	125	1	10000	5	1	0	5	0
40	126	1	10000	5	1	0	5	0
39	127	1	10000	5	1	0	5	0
39	128	1	10000	5	1	0	5	0
39	129	1	10000	5	1	0	5	0
39	130	1	10000	5	1	0	5	0
38	131	1	10000	5	1	0	5	0
37	132	1	10000	5	1	0	5	0
38	133	1	10000	5	1	0	5	0
38	134	1	10000	5	1	0	5	0
37	135	1	10000	5	1	0	5	0
36	136	1	10000	5	1	0	5	0
37	137	1	10000	5	1	0	5	0
34	138	1	10000	5	1	0	5	0
33	139	1	10000	5	1	0	5	0
32	140	1	10000	5	1	0	5	0
34	141	1	10000	5	1	0	5	0
34	142	1	10000	5	1	0	5	0
34	143	1	10000	5	1	0	5	0
32	144	1	10000	5	1	0	5	0
32	145	1	10000	5	1	0	5	0
32	146	1	10000	5	1	0	5	0
31	147	1	10000	5	1	0	5	0
31	148	1	10000	5	1	0	5	0
30	149	1	10000	5	1	0	5	0
29	150	1	10000	5	1	0	5	0
26	151	1	10000	5	1	0	5	0
26	152	1	10000	5	1	0	5	0
27	153	1	10000	5	1	0	5	0
28	154	1	10000	5	1	0	5	0
28	155	1	10000	5	1	0	5	0
28	156	1	10000	5	1	0	5	0
27	157	1	10000	5	1	0	5	0
26	158	1	10000	5	1	0	5	0
27	159	1	10000	5	1	0	5	0
28	160	1	10000	5	1	0	5	0
31	161	1	10000	5	1	0	5	0
30	162	1	10000	5	1	0	5	0
32	163	1	10000	5	1	0	5	0
32	164	1	10000	5	1	0	5	0
31	165	1	10000	5	1	0	5	0
32	166	1	10000	5	1	0	5	0
32	167	1	10000	5	1	0	5	0
34	168	1	10000	5	1	0	5	0
33	169	1	10000	5	1	0	5	0
31	170	1	10000	5	1	0	5	0
29	171	1	10000	5	1	0	5	0
31	172	1	10000	5	1	0	5	0
29	173	1	10000	5	1	0	5	0
30	174	1	10000	5	1	0	5	0
30	175	1	10000	5	1	0	5	0
29	176	1	10000	5	1	0	5	0
28	177	1	10000	5	1	0	5	0
27	178	1	10000	5	1	0	5	0
27	179	1	10000	5	1	0	5	0
27	180	1	10000	5	1	0	5	0
28	181	1	10000	5	1	0	5	0
27	182	1	10000	5	1	0	5	0
27	183	1	10000	5	1	0	5	0
26	184	1	10000	5	1	0	5	0
27	185	1	10000	5	1	0	5	0
28	186	1	10000	5	1	0	5	0
29	187	1	10000	5	1	0	5	0
30	188	1	10000	5	1	0	5	0
30	189	1	10000	5	1	0	5	0
32	190	1	10000	5	1	0	5	0
33	191	1	10000	5	1	0	5	0
34	192	1	10000	5	1	0	5	0
38	193	1	10000	5	1	0	5	0
42	194	1	10000	5	1	0	5	0
44	195	1	10000	5	1	0	5	0
44	196	1	10000	5	1	0	5	0
43	197	1	10000	5	1	0	5	0
41	198	1	10000	5	1	0	5	0
42	199	1	10000	5	1	0	5	0
43	200	1	10000	5	1	0	5	0
44	201	1	10000	5	1	0	5	0
44	202	1	10000	5	1	0	5	0
45	203	1	10000	5	1	0	5	0
45	204	1	10000	5	1	0	5	0
44	205	1	10000	5	1	0	5	0
45	206	1	10000	5	1	0	5	0
44	207	1	10000	5	1	0	5	0
43	208	1	10000	5	1	0	5	0
41	209	1	10000	5	1	0	5	0
42	210	1	10000	5	1	0	5	0
41	211	1	10000	5	1	0	5	0
40	212	1	10000	5	1	0	5	0
38	213	1	10000	5	1	0	5	0
38	214	1	10000	5	1	0	5	0
36	215	1	10000	5	1	0	5	0
35	216	1	10000	5	1	0	5	0
36	217	1	10000	5	1	0	5	0
36	218	1	10000	5	1	0	5	0
35	219	1	10000	5	1	0	5	0
34	220	1	10000	5	1	0	5	0
36	221	1	10000	5	1	0	5	0
34	222	1	10000	5	1	0	5	0
33	223	1	10000	5	1	0	5	0
33	224	1	10000	5	1	0	5	0
32	225	1	10000	5	1	0	5	0
33	226	1	10000	5	1	0	5	0
36	227	1	10000	5	1	0	5	0
39	228	1	10000	5	1	0	5	0
39	229	1	10000	5	1	0	5	0
42	230	1	10000	5	1	0	5	0
41	231	1	10000	5	1	0	5	0
40	232	1	10000	5	1	0	5	0
40	233	1	10000	5	1	0	5	0
40	234	1	10000	5	1	0	5	0
40	235	1	10000	5	1	0	5	0
38	236	1	10000	5	1	0	5	0
38	237	1	10000	5	1	0	5	0
37	238	1	10000	5	1	0	5	0
37	239	1	10000	5	1	0	5	0
36	240	1	10000	5	1	0	5	0
37	241	1	10000	5	1	0	5	0
36	242	1	10000	5	1	0	5	0
35	243	1	10000	5	1	0	5	0
35	244	1	10000	5	1	0	5	0
34	245	1	10000	5	1	0	5	0
32	246	1	10000	5	1	0	5	0
32	247	1	10000	5	1	0	5	0
31	248	1	10000	5	1	0	5	0
30	249	1	10000	5	1	0	5	0
32	250	1	10000	5	1	0	5	0
31	251	1	10000	5	1	0	5	0
30	252	1	10000	5	1	0	5	0
29	253	1	10000	5	1	0	5	0
28	254	1	10000	5	1	0	5	0
27	255	1	10000	5	1	0	5	0
26	256	1	10000	5	1	0	5	0
26	257	1	10000	5	1	0	5	0
24	258	1	10000	5	1	0	5	0
25	259	1	10000	5	1	0	5	0
29	260	1	10000	5	1	0	5	0
32	261	1	10000	5	1	0	5	0
32	262	1	10000	5	1	0	5	0
35	263	1	10000	5	1	0	5	0
38	264	1	10000	5	1	0	5	0
40	265	1	10000	5	1	0	5	0
38	266	1	10000	5	1	0	5	0
37	267	1	10000	5	1	0	5	0
37	268	1	10000	5	1	0	5	0
36	269	1	10000	5	1	0	5	0
35	270	1	10000	5	1	0	5	0
34	271	1	10000	5	1	0	5	0
33	272	1	10000	5	1	0	5	0
33	273	1	10000	5	1	0	5	0
33	274	1	10000	5	1	0	5	0
33	275	1	10000	5	1	0	5	0
34	276	1	10000	5	1	0	5	0
33	277	1	10000	5	1	0	5	0
32	278	1	10000	5	1	0	5	0
32	279	1	10000	5	1	0	5	0
30	280	1	10000	5	1	0	5	0
30	281	1	10000	5	1	0	5	0
30	282	1	10000	5	1	0	5	0
27	283	1	10000	5	1	0	5	0
26	284	1	10000	5	1	0	5	0
25	285	1	10000	5	1	0	5	0
25	286	1	10000	5	1	0	5	0
25	287	1	10000	5	1	0	5	0
25	288	1	10000	5	1	0	5	0
25	289	1	10000	5	1	0	5	0
26	290	1	10000	5	1	0	5	0
24	291	1	10000	5	1	0	5	0
24	292	1	10000	5	1	0	5	0
28	293	1	10000	5	1	0	5	0
29	294	1	10000	5	1	0	5	0
28	295	1	10000	5	1	0	5	0
28	296	1	10000	5	1	0	5	0
30	297	1	10000	5	1	0	5	0
30	298	1	10000	5	1	0	5	0
29	299	1	10000	5	1	0	5	0
30	300	1	10000	5	1	0	5	0
32	301	1	10000	5	1	0	5	0
30	302	1	10000	5	1	0	5	0
29	303	1	10000	5	1	0	5	0
28	304	1	10000	5	1	0	5	0
32	305	1	10000	5	1	0	5	0
34	306	1	10000	5	1	0	5	0
36	307	1	10000	5	1	0	5	0
36	308	1	10000	5	1	0	5	0
34	309	1	10000	5	1	0	5	0
33	310	1	10000	5	1	0	5	0
31	311	1	10000	5	1	0	5	0
30	312	1	10000	5	1	0	5	0
31	313	1	10000	5	1	0	5	0
31	314	1	10000	5	1	0	5	0
30	315	1	10000	5	1	0	5	0
31	316	1	10000	5	1	0	5	0
32	317	1	10000	5	1	0	5	0
32	318	1	10000	5	1	0	5	0
32	319	1	10000	5	1	0	5	0
32	320	1	10000	5	1	0	5	0
35	321	1	10000	5	1	0	5	0
35	322	1	10000	5	1	0	5	0
34	323	1	10000	5	1	0	5	0
33	324	1	10000	5	1	0	5	0
35	325	1	10000	5	1	0	5	0
39	326	1	10000	5	1	0	5	0
40	327	1	10000	5	1	0	5	0
43	328	1	10000	5	1	0	5	0
44	329	1	10000	5	1	0	5	0
42	330	1	10000	5	1	0	5	0
39	331	1	10000	5	1	0	5	0
38	332	1	10000	5	1	0	5	0
38	333	1	10000	5	1	0	5	0
38	334	1	10000	5	1	0	5	0
36	335	1	10000	5	1	0	5	0
36	336	1	10000	5	1	0	5	0
39	337	1	10000	5	1	0	5	0
38	338	1	10000	5	1	0	5	0
37	339	1	10000	5	1	0	5	0
35	340	1	10000	5	1	0	5	0
36	341	1	10000	5	1	0	5	0
36	342	1	10000	5	1	0	5	0
37	343	1	10000	5	1	0	5	0
40	344	1	10000	5	1	0	5	0
44	345	1	10000	5	1	0	5	0
45	346	1	10000	5	1	0	5	0
43	347	1	10000	5	1	0	5	0
43	348	1	10000	5	1	0	5	0
42	349	1	10000	5	1	0	5	0
41	350	1	10000	5	1	0	5	0
39	351	1	10000	5	1	0	5	0
42	352	1	10000	5	1	0	5	0
44	353	1	10000	5	1	0	5	0
45	354	1	10000	5	1	0	5	0
44	355	1	10000	5	1	0	5	0
43	356	1	10000	5	1	0	5	0
42	357	1	10000	5	1	0	5	0
41	358	1	10000	5	1	0	5	0
40	359	1	10000	5	1	0	5	0
39	360	1	10000	5	1	0	5	0
40	361	1	10000	5	1	0	5	0
40	362	1	10000	5	1	0	5	0
40	363	1	10000	5	1	0	5	0
39	364	1	10000	5	1	0	5	0
39	365	1	10000	5	1	0	5	0
41	366	1	10000	5	1	0	5	0
42	367	1	10000	5	1	0	5	0
43	368	1	10000	5	1	0	5	0
44	369	1	10000	5	1	0	5	0
43	370	1	10000	5	1	0	5	0
39	371	1	10000	5	1	0	5	0
38	372	1	10000	5	1	0	5	0
38	373	1	10000	5	1	0	5	0
38	374	1	10000	5	1	0	5	0
37	375	1	10000	5	1	0	5	0
37	376	1	10000	5	1	0	5	0
36	377	1	10000	5	1	0	5	0
34	378	1	10000	5	1	0	5	0
33	379	1	10000	5	1	0	5	0
31	380	1	10000	5	1	0	5	0
32	381	1	10000	5	1	0	5	0
31	382	1	10000	5	1	0	5	0
31	383	1	10000	5	1	0	5	0
31	384	1	10000	5	1	0	5	0
31	385	1	10000	5	1	0	5	0
30	386	1	10000	5	1	0	5	0
32	387	1	10000	5	1	0	5	0
32	388	1	10000	5	1	0	5	0
34	389	1	10000	5	1	0	5	0
35	390	1	10000	5	1	0	5	0
32	391	1	10000	5	1	0	5	0
31	392	1	10000	5	1	0	5	0
31	393	1	10000	5	1	0	5	0
30	394	1	10000	5	1	0	5	0
30	395	1	10000	5	1	0	5	0
30	396	1	10000	5	1	0	5	0
29	397	1	10000	5	1	0	5	0
29	398	1	10000	5	1	0	5	0
28	399	1	10000	5	1	0	5	0
28	400	1	10000	5	1	0	5	0
31	401	1	10000	5	1	0	5	0
31	402	1	10000	5	1	0	5	0
31	403	1	10000	5	1	0	5	0
30	404	1	10000	5	1	0	5	0
30	405	1	10000	5	1	0	5	0
29	406	1	10000	5	1	0	5	0
30	407	1	10000	5	1	0	5	0
30	408	1	10000	5	1	0	5	0
32	409	1	10000	5	1	0	5	0
34	410	1	10000	5	1	0	5	0
36	411	1	10000	5	1	0	5	0
38	412	1	10000	5	1	0	5	0
39	413	1	10000	5	1	0	5	0
38	414	1	10000	5	1	0	5	0
37	415	1	10000	5	1	0	5	0
36	416	1	10000	5	1	0	5	0
36	417	1	10000	5	1	0	5	0
36	418	1	10000	5	1	0	5	0
36	419	1	10000	5	1	0	5	0
36	420	1	10000	5	1	0	5	0
41	421	1	10000	5	1	0	5	0
40	422	1	10000	5	1	0	5	0
40	423	1	10000	5	1	0	5	0
39	424	1	10000	5	1	0	5	0
39	425	1	10000	5	1	0	5	0
39	426	1	10000	5	1	0	5	0
39	427	1	10000	5	1	0	5	0
40	428	1	10000	5	1	0	5	0
40	429	1	10000	5	1	0	5	0
40	430	1	10000	5	1	0	5	0
40	431	1	10000	5	1	0	5	0
41	432	1	10000	5	1	0	5	0
42	433	1	10000	5	1	0	5	0
44	434	1	10000	5	1	0	5	0
43	435	1	10000	5	1	0	5	0
44	436	1	10000	5	1	0	5	0
44	437	1	10000	5	1	0	5	0
40	438	1	10000	5	1	0	5	0
40	439	1	10000	5	1	0	5	0
40	440	1	10000	5	1	0	5	0
41	441	1	10000	5	1	0	5	0
40	442	1	10000	5	1	0	5	0
39	443	1	10000	5	1	0	5	0
38	444	1	10000	5	1	0	5	0
40	445	1	10000	5	1	0	5	0
42	446	1	10000	5	1	0	5	0
42	447	1	10000	5	1	0	5	0
41	448	1	10000	5	1	0	5	0
43	449	1	10000	5	1	0	5	0
43	450	1	10000	5	1	0	5	0
40	451	1	10000	5	1	0	5	0
39	452	1	10000	5	1	0	5	0
39	453	1	10000	5	1	0	5	0
41	454	1	10000	5	1	0	5	0
44	455	1	10000	5	1	0	5	0
44	456	1	10000	5	1	0	5	0
42	457	1	10000	5	1	0	5	0
40	458	1	10000	5	1	0	5	0
38	459	1	10000	5	1	0	5	0
38	460	1	10000	5	1	0	5	0
39	461	1	10000	5	1	0	5	0
38	462	1	10000	5	1	0	5	0
39	463	1	10000	5	1	0	5	0
40	464	1	10000	5	1	0	5	0
44	465	1	10000	5	1	0	5	0
45	466	1	10000	5	1	0	5	0
45	467	1	10000	5	1	0	5	0
45	468	1	10000	5	1	0	5	0
44	469	1	10000	5	1	0	5	0
46	470	1	10000	5	1	0	5	0
45	471	1	10000	5	1	0	5	0
45	472	1	10000	5	1	0	5	0
44	473	1	10000	5	1	0	5	0
45	474	1	10000	5	1	0	5	0
44	475	1	10000	5	1	0	5	0
43	476	1	10000	5	1	0	5	0
43	477	1	10000	5	1	0	5	0
41	478	1	10000	5	1	0	5	0
44	479	1	10000	5	1	0	5	0
44	480	1	10000	5	1	0	5	0
45	481	1	10000	5	1	0	5	0
46	482	1	10000	5	1	0	5	0
44	483	1	10000	5	1	0	5	0
43	484	1	10000	5	1	0	5	0
43	485	1	10000	5	1	0	5	0
41	486	1	10000	5	1	0	5	0
40	487	1	10000	5	1	0	5	0
40	488	1	10000	5	1	0	5	0
40	489	1	10000	5	1	0	5	0
39	490	1	10000	5	1	0	5	0
37	491	1	10000	5	1	0	5	0
38	492	1	10000	5	1	0	5	0
40	493	1	10000	5	1	0	5	0
41	494	1	10000	5	1	0	5	0
40	495	1	10000	5	1	0	5	0
39	496	1	10000	5	1	0	5	0
39	497	1	10000	5	1	0	5	0
39	498	1	10000	5	1	0	5	0
40	499	1	10000	5	1	0	5	0
42	500	1	10000	5	1	0	5	0
44	501	1	10000	5	1	0	5	1
44	502	1	10000	5	1	0	5	1
44	503	1	10000	5	1	0	5	1
42	504	1	10000	5	1	0	5	1
41	505	1	10000	5	1	0	5	1
41	506	1	10000	5	1	0	5	1
40	507	1	10000	5	1	0	5	1
42	508	1	10000	5	1	0	5	1
43	509	1	10000	5	1	0	5	1
43	510	1	10000	5	1	0	5	1
42	511	1	10000	5	1	0	5	1
40	512	1	10000	5	1	0	5	1
40	513	1	10000	5	1	0	5	1
40	514	1	10000	5	1	0	5	1
38	515	1	10000	5	1	0	5	1
37	516	1	10000	5	1	0	5	1
36	517	1	10000	5	1	0	5	1
35	518	1	10000	5	1	0	5	1
34	519	1	10000	5	1	0	5	1
34	520	1	10000	5	1	0	5	1
41	521	1	10000	5	1	0	5	1
43	522	1	10000	5	1	0	5	1
43	523	1	10000	5	1	0	5	1
41	524	1	10000	5	1	0	5	1
41	525	1	10000	5	1	0	5	1
42	526	1	10000	5	1	0	5	1
41	527	1	10000	5	1	0	5	1
41	528	1	10000	5	1	0	5	1
42	529	1	10000	5	1	0	5	1
42	530	1	10000	5	1	0	5	1
40	531	1	10000	5	1	0	5	1
40	532	1	10000	5	1	0	5	1
40	533	1	10000	5	1	0	5	1
43	534	1	10000	5	1	0	5	1
42	535	1	10000	5	1	0	5	1
41	536	1	10000	5	1	0	5	1
43	537	1	10000	5	1	0	5	1
40	538	1	10000	5	1	0	5	1
38	539	1	10000	5	1	0	5	1
37	540	1	10000	5	1	0	5	1
37	541	1	10000	5	1	0	5	1
37	542	1	10000	5	1	0	5	1
39	543	1	10000	5	1	0	5	1
39	544	1	10000	5	1	0	5	1
42	545	1	10000	5	1	0	5	1
43	546	1	10000	5	1	0	5	1
43	547	1	10000	5	1	0	5	1
46	548	1	10000	5	1	0	5	1
51	549	1	10000	5	1	0	5	1
52	550	1	10000	5	1	0	5	1
49	551	1	10000	5	1	0	5	0
50	552	1	10000	5	1	0	5	0
52	553	1	10000	5	1	0	5	0
53	554	1	10000	5	1	0	5	0
55	555	1	10000	5	1	0	5	0
57	556	1	10000	5	1	0	5	0
62	557	1	10000	5	1	0	5	0
67	558	1	10000	5	1	0	5	0
73	559	1	10000	5	1	0	5	0
76	560	1	10000	5	1	0	5	0
82	561	1	10000	5	1	0	5	0
85	562	1	10000	5	1	0	5	0
92	563	1	10000	5	1	0	5	0
101	564	1	10000	5	1	0	5	0
108	565	1	10000	5	1	0	5	0
114	566	1	10000	5	1	0	5	0
115	567	1	10000	5	1	0	5	0
119	568	1	10000	5	1	0	5	0
124	569	1	10000	5	1	0	5	0
126	570	1	10000	5	1	0	5	0
127	571	1	10000	5	1	0	5	0
132	572	1	10000	5	1	0	5	0
136	573	1	10000	5	1	0	5	0
141	574	1	10000	5	1	0	5	0
144	575	1	10000	5	1	0	5	0
143	576	1	10000	5	1	0	5	0
143	577	1	10000	5	1	0	5	0
146	578	1	10000	5	1	0	5	0
147	579	1	10000	5	1	0	5	0
147	580	1	10000	5	1	0	5	0
148	581	1	10000	5	1	0	5	0
145	582	1	10000	5	1	0	5	0
142	583	1	10000	5	1	0	5	0
140	584	1	10000	5	1	0	5	0
140	585	1	10000	5	1	0	5	0
138	586	1	10000	5	1	0	5	0
134	587	1	10000	5	1	0	5	0
134	588	1	10000	5	1	0	5	0
153	589	1	10000	5	1	0	5	0
186	590	1	10000	5	1	0	5	0
205	591	1	10000	5	1	0	5	0
204	592	1	10000	5	1	0	5	0
202	593	1	10000	5	1	0	5	0
201	594	1	10000	5	1	0	5	0
200	595	1	10000	5	1	0	5	0
211	596	1	10000	5	1	0	5	0
212	597	1	10000	5	1	0	5	0
211	598	1	10000	5	1	0	5	0
221	599	1	10000	5	1	0	5	0
244	600	1	10000	5	1	0	5	0
267	601	1	10000	5	1	0	5	0
274	602	1	10000	5	1	0	5	0
270	603	1	10000	5	1	0	5	0
275	604	1	10000	5	1	0	5	0
315	605	1	10000	5	1	0	5	0
320	606	1	10000	5	1	0	5	0
325	607	1	10000	5	1	0	5	0
345	608	1	10000	5	1	0	5	0
379	609	1	10000	5	1	0	5	0
388	610	1	10000	5	1	0	5	0
399	611	1	10000	5	1	0	5	0
425	612	1	10000	5	1	0	5	0
426	613	1	10000	5	1	0	5	0
414	614	1	10000	5	1	0	5	0
415	615	1	10000	5	1	0	5	0
421	616	1	10000	5	1	0	5	0
434	617	1	10000	5	1	0	5	0
440	618	1	10000	5	1	0	5	0
433	619	1	10000	5	1	0	5	0
421	620	1	10000	5	1	0	5	0
412	621	1	10000	5	1	0	5	0
402	622	1	10000	5	1	0	5	0
392	623	1	10000	5	1	0	5	0
383	624	1	10000	5	1	0	5	0
371	625	1	10000	5	1	0	5	0
363	626	1	10000	5	1	0	5	0
352	627	1	10000	5	1	0	5	0
339	628	1	10000	5	1	0	5	0
326	629	1	10000	5	1	0	5	0
311	630	1	10000	5	1	0	5	0
296	631	1	10000	5	1	0	5	0
284	632	1	10000	5	1	0	5	0
274	633	1	10000	5	1	0	5	0
262	634	1	10000	5	1	0	5	0
251	635	1	10000	5	1	0	5	0
243	636	1	10000	5	1	0	5	0
234	637	1	10000	5	1	0	5	0
225	638	1	10000	5	1	0	5	0
219	639	1	10000	5	1	0	5	0
216	640	1	10000	5	1	0	5	0
214	641	1	10000	5	1	0	5	0
213	642	1	10000	5	1	0	5	0
211	643	1	10000	5	1	0	5	0
210	644	1	10000	5	1	0	5	0
211	645	1	10000	5	1	0	5	0
213	646	1	10000	5	1	0	5	0
215	647	1	10000	5	1	0	5	0
218	648	1	10000	5	1	0	5	0
221	649	1	10000	5	1	0	5	0
223	650	1	10000	5	1	0	5	0
223	651	1	10000	5	1	0	5	0
228	652	1	10000	5	1	0	5	0
235	653	1	10000	5	1	0	5	0
239	654	1	10000	5	1	0	5	0
239	655	1	10000	5	1	0	5	0
238	656	1	10000	5	1	0	5	0
235	657	1	10000	5	1	0	5	0
228	658	1	10000	5	1	0	5	0
224	659	1	10000	5	1	0	5	0
220	660	1	10000	5	1	0	5	0
218	661	1	10000	5	1	0	5	0
213	662	1	10000	5	1	0	5	0
207	663	1	10000	5	1	0	5	0
206	664	1	10000	5	1	0	5	0
208	665	1	10000	5	1	0	5	0
207	666	1	10000	5	1	0	5	0
204	667	1	10000	5	1	0	5	0
201	668	1	10000	5	1	0	5	0
196	669	1	10000	5	1	0	5	0
190	670	1	10000	5	1	0	5	0
182	671	1	10000	5	1	0	5	0
177	672	1	10000	5	1	0	5	0
172	673	1	10000	5	1	0	5	0
168	674	1	10000	5	1	0	5	0
163	675	1	10000	5	1	0	5	0
157	676	1	10000	5	1	0	5	0
154	677	1	10000	5	1	0	5	0
153	678	1	10000	5	1	0	5	0
150	679	1	10000	5	1	0	5	0
145	680	1	10000	5	1	0	5	0
144	681	1	10000	5	1	0	5	0
142	682	1	10000	5	1	0	5	0
140	683	1	10000	5	1	0	5	0
136	684	1	10000	5	1	0	5	0
131	685	1	10000	5	1	0	5	0
125	686	1	10000	5	1	0	5	0
121	687	1	10000	5	1	0	5	0
119	688	1	10000	5	1	0	5	0
116	689	1	10000	5	1	0	5	0
115	690	1	10000	5	1	0	5	0
109	691	1	10000	5	1	0	5	0
104	692	1	10000	5	1	0	5	0
100	693	1	10000	5	1	0	5	0
98	694	1	10000	5	1	0	5	0
102	695	1	10000	5	1	0	5	0
106	696	1	10000	5	1	0	5	0
105	697	1	10000	5	1	0	5	0
104	698	1	10000	5	1	0	5	0
105	699	1	10000	5	1	0	5	0
109	700	1	10000	5	1	0	5	0
114	701	1	10000	5	1	0	5	0
118	702	1	10000	5	1	0	5	0
121	703	1	10000	5	1	0	5	0
119	704	1	10000	5	1	0	5	0
116	705	1	10000	5	1	0	5	0
114	706	1	10000	5	1	0	5	0
110	707	1	10000	5	1	0	5	0
106	708	1	10000	5	1	0	5	0
101	709	1	10000	5	1	0	5	0
99	710	1	10000	5	1	0	5	0
97	711	1	10000	5	1	0	5	0
97	712	1	10000	5	1	0	5	0
98	713	1	10000	5	1	0	5	0
98	714	1	10000	5	1	0	5	0
98	715	1	10000	5	1	0	5	0
97	716	1	10000	5	1	0	5	0
95	717	1	10000	5	1	0	5	0
91	718	1	10000	5	1	0	5	0
88	719	1	10000	5	1	0	5	0
87	720	1	10000	5	1	0	5	0
88	721	1	10000	5	1	0	5	0
88	722	1	10000	5	1	0	5	0
89	723	1	10000	5	1	0	5	0
87	724	1	10000	5	1	0	5	0
85	725	1	10000	5	1	0	5	0
85	726	1	10000	5	1	0	5	0
82	727	1	10000	5	1	0	5	0
80	728	1	10000	5	1	0	5	0
80	729	1	10000	5	1	0	5	0
76	730	1	10000	5	1	0	5	0
72	731	1	10000	5	1	0	5	0
69	732	1	10000	5	1	0	5	0
67	733	1	10000	5	1	0	5	0
64	734	1	10000	5	1	0	5	0
62	735	1	10000	5	1	0	5	0
63	736	1	10000	5	1	0	5	0
65	737	1	10000	5	1	0	5	0
63	738	1	10000	5	1	0	5	0
63	739	1	10000	5	1	0	5	0
63	740	1	10000	5	1	0	5	0
