value	EMG	Stimulus	EMG_sensitivity	Total_Trial_Nr	practise	acq	probe_nr	Startle_Probe
98	1	7	10000	1	1	0	1	0
97	2	7	10000	1	1	0	1	0
96	3	7	10000	1	1	0	1	0
94	4	7	10000	1	1	0	1	0
92	5	7	10000	1	1	0	1	0
90	6	7	10000	1	1	0	1	0
90	7	7	10000	1	1	0	1	0
89	8	7	10000	1	1	0	1	0
86	9	7	10000	1	1	0	1	0
83	10	7	10000	1	1	0	1	0
79	11	7	10000	1	1	0	1	0
76	12	7	10000	1	1	0	1	0
73	13	7	10000	1	1	0	1	0
70	14	7	10000	1	1	0	1	0
67	15	7	10000	1	1	0	1	0
65	16	7	10000	1	1	0	1	0
61	17	7	10000	1	1	0	1	0
58	18	7	10000	1	1	0	1	0
56	19	7	10000	1	1	0	1	0
54	20	7	10000	1	1	0	1	0
53	20	7	10000	1	1	0	1	0
51	21	7	10000	1	1	0	1	0
50	23	7	10000	1	1	0	1	0
50	24	7	10000	1	1	0	1	0
47	25	7	10000	1	1	0	1	0
46	26	7	10000	1	1	0	1	0
45	27	7	10000	1	1	0	1	0
45	28	7	10000	1	1	0	1	0
43	29	7	10000	1	1	0	1	0
42	30	7	10000	1	1	0	1	0
40	30	7	10000	1	1	0	1	0
38	31	7	10000	1	1	0	1	0
37	33	7	10000	1	1	0	1	0
36	34	7	10000	1	1	0	1	0
35	35	7	10000	1	1	0	1	0
35	36	7	10000	1	1	0	1	0
33	37	7	10000	1	1	0	1	0
30	38	7	10000	1	1	0	1	0
31	39	7	10000	1	1	0	1	0
29	40	7	10000	1	1	0	1	0
28	40	7	10000	1	1	0	1	0
28	41	7	10000	1	1	0	1	0
27	43	7	10000	1	1	0	1	0
26	44	7	10000	1	1	0	1	0
25	45	7	10000	1	1	0	1	0
23	46	7	10000	1	1	0	1	0
24	47	7	10000	1	1	0	1	0
26	48	7	10000	1	1	0	1	0
25	49	7	10000	1	1	0	1	0
25	50	7	10000	1	1	0	1	0
25	50	7	10000	1	1	0	1	0
26	51	7	10000	1	1	0	1	0
27	53	7	10000	1	1	0	1	0
28	54	7	10000	1	1	0	1	0
28	55	7	10000	1	1	0	1	0
28	56	7	10000	1	1	0	1	0
28	57	7	10000	1	1	0	1	0
28	58	7	10000	1	1	0	1	0
27	59	7	10000	1	1	0	1	0
26	60	7	10000	1	1	0	1	0
25	60	7	10000	1	1	0	1	0
26	61	7	10000	1	1	0	1	0
26	63	7	10000	1	1	0	1	0
26	64	7	10000	1	1	0	1	0
27	65	7	10000	1	1	0	1	0
25	66	7	10000	1	1	0	1	0
25	67	7	10000	1	1	0	1	0
28	68	7	10000	1	1	0	1	0
27	69	7	10000	1	1	0	1	0
26	70	7	10000	1	1	0	1	0
25	70	7	10000	1	1	0	1	0
24	71	7	10000	1	1	0	1	0
23	73	7	10000	1	1	0	1	0
23	74	7	10000	1	1	0	1	0
23	75	7	10000	1	1	0	1	0
24	76	7	10000	1	1	0	1	0
22	77	7	10000	1	1	0	1	0
20	78	7	10000	1	1	0	1	0
20	79	7	10000	1	1	0	1	0
20	80	7	10000	1	1	0	1	0
20	80	7	10000	1	1	0	1	0
20	81	7	10000	1	1	0	1	0
19	83	7	10000	1	1	0	1	0
19	84	7	10000	1	1	0	1	0
18	85	7	10000	1	1	0	1	0
18	86	7	10000	1	1	0	1	0
18	87	7	10000	1	1	0	1	0
19	88	7	10000	1	1	0	1	0
17	89	7	10000	1	1	0	1	0
17	90	7	10000	1	1	0	1	0
17	90	7	10000	1	1	0	1	0
17	91	7	10000	1	1	0	1	0
16	93	7	10000	1	1	0	1	0
17	94	7	10000	1	1	0	1	0
16	95	7	10000	1	1	0	1	0
16	96	7	10000	1	1	0	1	0
17	97	7	10000	1	1	0	1	0
13	98	7	10000	1	1	0	1	0
14	99	7	10000	1	1	0	1	0
15	100	7	10000	1	1	0	1	0
15	100	7	10000	1	1	0	1	0
15	101	7	10000	1	1	0	1	0
15	103	7	10000	1	1	0	1	0
15	104	7	10000	1	1	0	1	0
16	105	7	10000	1	1	0	1	0
17	106	7	10000	1	1	0	1	0
20	107	7	10000	1	1	0	1	0
21	108	7	10000	1	1	0	1	0
20	109	7	10000	1	1	0	1	0
20	110	7	10000	1	1	0	1	0
19	110	7	10000	1	1	0	1	0
19	111	7	10000	1	1	0	1	0
19	113	7	10000	1	1	0	1	0
20	114	7	10000	1	1	0	1	0
21	115	7	10000	1	1	0	1	0
22	116	7	10000	1	1	0	1	0
22	117	7	10000	1	1	0	1	0
23	118	7	10000	1	1	0	1	0
23	119	7	10000	1	1	0	1	0
24	120	7	10000	1	1	0	1	0
23	120	7	10000	1	1	0	1	0
23	121	7	10000	1	1	0	1	0
23	123	7	10000	1	1	0	1	0
21	124	7	10000	1	1	0	1	0
21	125	7	10000	1	1	0	1	0
23	126	7	10000	1	1	0	1	0
23	127	7	10000	1	1	0	1	0
25	128	7	10000	1	1	0	1	0
25	129	7	10000	1	1	0	1	0
24	130	7	10000	1	1	0	1	0
23	130	7	10000	1	1	0	1	0
22	131	7	10000	1	1	0	1	0
21	133	7	10000	1	1	0	1	0
21	134	7	10000	1	1	0	1	0
20	135	7	10000	1	1	0	1	0
20	136	7	10000	1	1	0	1	0
19	137	7	10000	1	1	0	1	0
17	138	7	10000	1	1	0	1	0
18	139	7	10000	1	1	0	1	0
17	140	7	10000	1	1	0	1	0
17	140	7	10000	1	1	0	1	0
17	141	7	10000	1	1	0	1	0
18	143	7	10000	1	1	0	1	0
19	144	7	10000	1	1	0	1	0
19	145	7	10000	1	1	0	1	0
18	146	7	10000	1	1	0	1	0
19	147	7	10000	1	1	0	1	0
18	148	7	10000	1	1	0	1	0
18	149	7	10000	1	1	0	1	0
17	150	7	10000	1	1	0	1	0
16	150	7	10000	1	1	0	1	0
18	151	7	10000	1	1	0	1	0
17	153	7	10000	1	1	0	1	0
17	154	7	10000	1	1	0	1	0
18	155	7	10000	1	1	0	1	0
19	156	7	10000	1	1	0	1	0
19	157	7	10000	1	1	0	1	0
17	158	7	10000	1	1	0	1	0
18	159	7	10000	1	1	0	1	0
18	160	7	10000	1	1	0	1	0
18	160	7	10000	1	1	0	1	0
17	161	7	10000	1	1	0	1	0
17	163	7	10000	1	1	0	1	0
19	164	7	10000	1	1	0	1	0
18	165	7	10000	1	1	0	1	0
18	166	7	10000	1	1	0	1	0
18	167	7	10000	1	1	0	1	0
19	168	7	10000	1	1	0	1	0
19	169	7	10000	1	1	0	1	0
19	170	7	10000	1	1	0	1	0
18	170	7	10000	1	1	0	1	0
18	171	7	10000	1	1	0	1	0
18	173	7	10000	1	1	0	1	0
19	174	7	10000	1	1	0	1	0
20	175	7	10000	1	1	0	1	0
20	176	7	10000	1	1	0	1	0
20	177	7	10000	1	1	0	1	0
19	178	7	10000	1	1	0	1	0
19	179	7	10000	1	1	0	1	0
19	180	7	10000	1	1	0	1	0
19	180	7	10000	1	1	0	1	0
18	181	7	10000	1	1	0	1	0
19	183	7	10000	1	1	0	1	0
19	184	7	10000	1	1	0	1	0
18	185	7	10000	1	1	0	1	0
17	186	7	10000	1	1	0	1	0
17	187	7	10000	1	1	0	1	0
19	188	7	10000	1	1	0	1	0
19	189	7	10000	1	1	0	1	0
18	190	7	10000	1	1	0	1	0
17	190	7	10000	1	1	0	1	0
17	191	7	10000	1	1	0	1	0
17	193	7	10000	1	1	0	1	0
17	194	7	10000	1	1	0	1	0
17	195	7	10000	1	1	0	1	0
18	196	7	10000	1	1	0	1	0
18	197	7	10000	1	1	0	1	0
16	198	7	10000	1	1	0	1	0
18	199	7	10000	1	1	0	1	0
18	200	7	10000	1	1	0	1	0
18	200	7	10000	1	1	0	1	0
19	201	7	10000	1	1	0	1	0
18	203	7	10000	1	1	0	1	0
18	204	7	10000	1	1	0	1	0
18	205	7	10000	1	1	0	1	0
18	206	7	10000	1	1	0	1	0
19	207	7	10000	1	1	0	1	0
19	208	7	10000	1	1	0	1	0
18	209	7	10000	1	1	0	1	0
19	210	7	10000	1	1	0	1	0
18	210	7	10000	1	1	0	1	0
17	211	7	10000	1	1	0	1	0
17	213	7	10000	1	1	0	1	0
16	214	7	10000	1	1	0	1	0
16	215	7	10000	1	1	0	1	0
17	216	7	10000	1	1	0	1	0
16	217	7	10000	1	1	0	1	0
14	218	7	10000	1	1	0	1	0
15	219	7	10000	1	1	0	1	0
14	220	7	10000	1	1	0	1	0
15	220	7	10000	1	1	0	1	0
14	221	7	10000	1	1	0	1	0
14	223	7	10000	1	1	0	1	0
13	224	7	10000	1	1	0	1	0
13	225	7	10000	1	1	0	1	0
12	226	7	10000	1	1	0	1	0
13	227	7	10000	1	1	0	1	0
14	228	7	10000	1	1	0	1	0
15	229	7	10000	1	1	0	1	0
15	230	7	10000	1	1	0	1	0
14	230	7	10000	1	1	0	1	0
14	231	7	10000	1	1	0	1	0
14	233	7	10000	1	1	0	1	0
14	234	7	10000	1	1	0	1	0
15	235	7	10000	1	1	0	1	0
16	236	7	10000	1	1	0	1	0
14	237	7	10000	1	1	0	1	0
13	238	7	10000	1	1	0	1	0
13	239	7	10000	1	1	0	1	0
13	240	7	10000	1	1	0	1	0
13	240	7	10000	1	1	0	1	0
14	241	7	10000	1	1	0	1	0
13	243	7	10000	1	1	0	1	0
13	244	7	10000	1	1	0	1	0
13	245	7	10000	1	1	0	1	0
12	246	7	10000	1	1	0	1	0
13	247	7	10000	1	1	0	1	0
14	248	7	10000	1	1	0	1	0
13	249	7	10000	1	1	0	1	0
13	250	7	10000	1	1	0	1	0
13	250	7	10000	1	1	0	1	0
12	251	7	10000	1	1	0	1	0
12	253	7	10000	1	1	0	1	0
12	254	7	10000	1	1	0	1	0
13	255	7	10000	1	1	0	1	0
13	256	7	10000	1	1	0	1	0
12	257	7	10000	1	1	0	1	0
10	258	7	10000	1	1	0	1	0
10	259	7	10000	1	1	0	1	0
10	260	7	10000	1	1	0	1	0
10	260	7	10000	1	1	0	1	0
11	261	7	10000	1	1	0	1	0
11	263	7	10000	1	1	0	1	0
12	264	7	10000	1	1	0	1	0
13	265	7	10000	1	1	0	1	0
11	266	7	10000	1	1	0	1	0
12	267	7	10000	1	1	0	1	0
14	268	7	10000	1	1	0	1	0
12	269	7	10000	1	1	0	1	0
11	270	7	10000	1	1	0	1	0
12	270	7	10000	1	1	0	1	0
12	271	7	10000	1	1	0	1	0
13	273	7	10000	1	1	0	1	0
13	274	7	10000	1	1	0	1	0
13	275	7	10000	1	1	0	1	0
13	276	7	10000	1	1	0	1	0
12	277	7	10000	1	1	0	1	0
11	278	7	10000	1	1	0	1	0
12	279	7	10000	1	1	0	1	0
13	280	7	10000	1	1	0	1	0
13	280	7	10000	1	1	0	1	0
13	281	7	10000	1	1	0	1	0
15	283	7	10000	1	1	0	1	0
14	284	7	10000	1	1	0	1	0
14	285	7	10000	1	1	0	1	0
17	286	7	10000	1	1	0	1	0
21	287	7	10000	1	1	0	1	0
27	288	7	10000	1	1	0	1	0
30	289	7	10000	1	1	0	1	0
32	290	7	10000	1	1	0	1	0
34	290	7	10000	1	1	0	1	0
35	291	7	10000	1	1	0	1	0
37	293	7	10000	1	1	0	1	0
39	294	7	10000	1	1	0	1	0
39	295	7	10000	1	1	0	1	0
40	296	7	10000	1	1	0	1	0
40	297	7	10000	1	1	0	1	0
36	298	7	10000	1	1	0	1	0
36	299	7	10000	1	1	0	1	0
37	300	7	10000	1	1	0	1	0
38	300	7	10000	1	1	0	1	0
42	301	7	10000	1	1	0	1	0
47	303	7	10000	1	1	0	1	0
54	304	7	10000	1	1	0	1	0
59	305	7	10000	1	1	0	1	0
64	306	7	10000	1	1	0	1	0
68	307	7	10000	1	1	0	1	0
71	308	7	10000	1	1	0	1	0
72	309	7	10000	1	1	0	1	0
73	310	7	10000	1	1	0	1	0
73	310	7	10000	1	1	0	1	0
74	311	7	10000	1	1	0	1	0
75	313	7	10000	1	1	0	1	0
75	314	7	10000	1	1	0	1	0
76	315	7	10000	1	1	0	1	0
78	316	7	10000	1	1	0	1	0
80	317	7	10000	1	1	0	1	0
80	318	7	10000	1	1	0	1	0
83	319	7	10000	1	1	0	1	0
85	320	7	10000	1	1	0	1	0
86	320	7	10000	1	1	0	1	0
88	321	7	10000	1	1	0	1	0
89	323	7	10000	1	1	0	1	0
86	324	7	10000	1	1	0	1	0
83	325	7	10000	1	1	0	1	0
80	326	7	10000	1	1	0	1	0
78	327	7	10000	1	1	0	1	0
75	328	7	10000	1	1	0	1	0
72	329	7	10000	1	1	0	1	0
69	330	7	10000	1	1	0	1	0
66	330	7	10000	1	1	0	1	0
64	331	7	10000	1	1	0	1	0
60	333	7	10000	1	1	0	1	0
57	334	7	10000	1	1	0	1	0
56	335	7	10000	1	1	0	1	0
55	336	7	10000	1	1	0	1	0
53	337	7	10000	1	1	0	1	0
51	338	7	10000	1	1	0	1	0
51	339	7	10000	1	1	0	1	0
53	340	7	10000	1	1	0	1	0
55	340	7	10000	1	1	0	1	0
57	341	7	10000	1	1	0	1	0
60	343	7	10000	1	1	0	1	0
64	344	7	10000	1	1	0	1	0
66	345	7	10000	1	1	0	1	0
68	346	7	10000	1	1	0	1	0
68	347	7	10000	1	1	0	1	0
70	348	7	10000	1	1	0	1	0
72	349	7	10000	1	1	0	1	0
74	350	7	10000	1	1	0	1	0
77	350	7	10000	1	1	0	1	0
80	351	7	10000	1	1	0	1	0
80	353	7	10000	1	1	0	1	0
83	354	7	10000	1	1	0	1	0
86	355	7	10000	1	1	0	1	0
88	356	7	10000	1	1	0	1	0
89	357	7	10000	1	1	0	1	0
89	358	7	10000	1	1	0	1	0
89	359	7	10000	1	1	0	1	0
91	360	7	10000	1	1	0	1	0
94	360	7	10000	1	1	0	1	0
96	361	7	10000	1	1	0	1	0
97	363	7	10000	1	1	0	1	0
98	364	7	10000	1	1	0	1	0
98	365	7	10000	1	1	0	1	0
99	366	7	10000	1	1	0	1	0
100	367	7	10000	1	1	0	1	0
102	368	7	10000	1	1	0	1	0
103	369	7	10000	1	1	0	1	0
102	370	7	10000	1	1	0	1	0
101	370	7	10000	1	1	0	1	0
100	371	7	10000	1	1	0	1	0
99	373	7	10000	1	1	0	1	0
97	374	7	10000	1	1	0	1	0
96	375	7	10000	1	1	0	1	0
95	376	7	10000	1	1	0	1	0
94	377	7	10000	1	1	0	1	0
92	378	7	10000	1	1	0	1	0
92	379	7	10000	1	1	0	1	0
92	380	7	10000	1	1	0	1	0
92	380	7	10000	1	1	0	1	0
90	381	7	10000	1	1	0	1	0
89	383	7	10000	1	1	0	1	0
88	384	7	10000	1	1	0	1	0
86	385	7	10000	1	1	0	1	0
84	386	7	10000	1	1	0	1	0
81	387	7	10000	1	1	0	1	0
78	388	7	10000	1	1	0	1	0
76	389	7	10000	1	1	0	1	0
74	390	7	10000	1	1	0	1	0
72	390	7	10000	1	1	0	1	0
69	391	7	10000	1	1	0	1	0
67	393	7	10000	1	1	0	1	0
64	394	7	10000	1	1	0	1	0
61	395	7	10000	1	1	0	1	0
60	396	7	10000	1	1	0	1	0
57	397	7	10000	1	1	0	1	0
53	398	7	10000	1	1	0	1	0
52	399	7	10000	1	1	0	1	0
51	400	7	10000	1	1	0	1	0
50	400	7	10000	1	1	0	1	0
48	401	7	10000	1	1	0	1	0
46	403	7	10000	1	1	0	1	0
45	404	7	10000	1	1	0	1	0
44	405	7	10000	1	1	0	1	0
42	406	7	10000	1	1	0	1	0
42	407	7	10000	1	1	0	1	0
41	408	7	10000	1	1	0	1	0
39	409	7	10000	1	1	0	1	0
39	410	7	10000	1	1	0	1	0
37	410	7	10000	1	1	0	1	0
36	411	7	10000	1	1	0	1	0
35	413	7	10000	1	1	0	1	0
33	414	7	10000	1	1	0	1	0
32	415	7	10000	1	1	0	1	0
32	416	7	10000	1	1	0	1	0
30	417	7	10000	1	1	0	1	0
27	418	7	10000	1	1	0	1	0
27	419	7	10000	1	1	0	1	0
27	420	7	10000	1	1	0	1	0
26	420	7	10000	1	1	0	1	0
25	421	7	10000	1	1	0	1	0
25	423	7	10000	1	1	0	1	0
24	424	7	10000	1	1	0	1	0
23	425	7	10000	1	1	0	1	0
22	426	7	10000	1	1	0	1	0
22	427	7	10000	1	1	0	1	0
25	428	7	10000	1	1	0	1	0
24	429	7	10000	1	1	0	1	0
23	430	7	10000	1	1	0	1	0
22	430	7	10000	1	1	0	1	0
22	431	7	10000	1	1	0	1	0
22	433	7	10000	1	1	0	1	0
21	434	7	10000	1	1	0	1	0
22	435	7	10000	1	1	0	1	0
22	436	7	10000	1	1	0	1	0
20	437	7	10000	1	1	0	1	0
20	438	7	10000	1	1	0	1	0
22	439	7	10000	1	1	0	1	0
21	440	7	10000	1	1	0	1	0
22	440	7	10000	1	1	0	1	0
22	441	7	10000	1	1	0	1	0
22	443	7	10000	1	1	0	1	0
22	444	7	10000	1	1	0	1	0
22	445	7	10000	1	1	0	1	0
22	446	7	10000	1	1	0	1	0
21	447	7	10000	1	1	0	1	0
22	448	7	10000	1	1	0	1	0
21	449	7	10000	1	1	0	1	0
21	450	7	10000	1	1	0	1	0
22	450	7	10000	1	1	0	1	0
23	451	7	10000	1	1	0	1	0
24	453	7	10000	1	1	0	1	0
24	454	7	10000	1	1	0	1	0
23	455	7	10000	1	1	0	1	0
23	456	7	10000	1	1	0	1	0
22	457	7	10000	1	1	0	1	0
21	458	7	10000	1	1	0	1	0
22	459	7	10000	1	1	0	1	0
22	460	7	10000	1	1	0	1	0
22	460	7	10000	1	1	0	1	0
23	461	7	10000	1	1	0	1	0
22	463	7	10000	1	1	0	1	0
21	464	7	10000	1	1	0	1	0
21	465	7	10000	1	1	0	1	0
20	466	7	10000	1	1	0	1	0
20	467	7	10000	1	1	0	1	0
22	468	7	10000	1	1	0	1	0
20	469	7	10000	1	1	0	1	0
20	470	7	10000	1	1	0	1	0
19	470	7	10000	1	1	0	1	0
20	471	7	10000	1	1	0	1	0
20	473	7	10000	1	1	0	1	0
20	474	7	10000	1	1	0	1	0
20	475	7	10000	1	1	0	1	0
20	476	7	10000	1	1	0	1	0
20	477	7	10000	1	1	0	1	0
18	478	7	10000	1	1	0	1	0
19	479	7	10000	1	1	0	1	0
19	480	7	10000	1	1	0	1	0
18	480	7	10000	1	1	0	1	0
19	481	7	10000	1	1	0	1	0
20	483	7	10000	1	1	0	1	0
20	484	7	10000	1	1	0	1	0
19	485	7	10000	1	1	0	1	0
19	486	7	10000	1	1	0	1	0
18	487	7	10000	1	1	0	1	0
20	488	7	10000	1	1	0	1	0
19	489	7	10000	1	1	0	1	0
17	490	7	10000	1	1	0	1	0
17	490	7	10000	1	1	0	1	0
16	491	7	10000	1	1	0	1	0
17	493	7	10000	1	1	0	1	0
19	494	7	10000	1	1	0	1	0
18	495	7	10000	1	1	0	1	0
18	496	7	10000	1	1	0	1	0
19	497	7	10000	1	1	0	1	0
17	498	7	10000	1	1	0	1	0
17	499	7	10000	1	1	0	1	0
16	500	7	10000	1	1	0	1	0
17	500	7	10000	1	1	0	1	0
16	501	7	10000	1	1	0	1	0
16	540	7	10000	1	1	0	1	1
16	541	7	10000	1	1	0	1	1
15	542	7	10000	1	1	0	1	1
15	543	7	10000	1	1	0	1	1
15	544	7	10000	1	1	0	1	1
16	545	7	10000	1	1	0	1	1
15	546	7	10000	1	1	0	1	1
15	547	7	10000	1	1	0	1	1
15	548	7	10000	1	1	0	1	1
16	549	7	10000	1	1	0	1	1
17	550	7	10000	1	1	0	1	1
17	551	7	10000	1	1	0	1	1
17	552	7	10000	1	1	0	1	1
18	553	7	10000	1	1	0	1	1
17	554	7	10000	1	1	0	1	1
15	555	7	10000	1	1	0	1	1
17	556	7	10000	1	1	0	1	1
17	557	7	10000	1	1	0	1	1
18	558	7	10000	1	1	0	1	1
19	559	7	10000	1	1	0	1	1
19	560	7	10000	1	1	0	1	1
18	561	7	10000	1	1	0	1	1
18	562	7	10000	1	1	0	1	1
19	563	7	10000	1	1	0	1	1
18	564	7	10000	1	1	0	1	1
20	565	7	10000	1	1	0	1	1
19	566	7	10000	1	1	0	1	1
18	567	7	10000	1	1	0	1	1
18	568	7	10000	1	1	0	1	1
17	569	7	10000	1	1	0	1	1
18	570	7	10000	1	1	0	1	1
19	571	7	10000	1	1	0	1	1
21	572	7	10000	1	1	0	1	1
21	573	7	10000	1	1	0	1	1
20	574	7	10000	1	1	0	1	1
20	575	7	10000	1	1	0	1	1
19	576	7	10000	1	1	0	1	1
19	577	7	10000	1	1	0	1	1
18	578	7	10000	1	1	0	1	1
18	579	7	10000	1	1	0	1	1
17	547	7	10000	1	1	0	1	1
16	548	7	10000	1	1	0	1	1
16	549	7	10000	1	1	0	1	1
15	550	7	10000	1	1	0	1	1
15	551	7	10000	1	1	0	1	1
16	552	7	10000	1	1	0	1	1
17	549	7	10000	1	1	0	1	1
16	550	7	10000	1	1	0	1	1
16	551	7	10000	1	1	0	1	0
18	552	7	10000	1	1	0	1	0
18	553	7	10000	1	1	0	1	0
18	554	7	10000	1	1	0	1	0
21	555	7	10000	1	1	0	1	0
20	556	7	10000	1	1	0	1	0
20	557	7	10000	1	1	0	1	0
18	558	7	10000	1	1	0	1	0
17	559	7	10000	1	1	0	1	0
18	560	7	10000	1	1	0	1	0
18	561	7	10000	1	1	0	1	0
17	562	7	10000	1	1	0	1	0
17	563	7	10000	1	1	0	1	0
18	564	7	10000	1	1	0	1	0
18	565	7	10000	1	1	0	1	0
17	566	7	10000	1	1	0	1	0
17	567	7	10000	1	1	0	1	0
17	568	7	10000	1	1	0	1	0
16	569	7	10000	1	1	0	1	0
16	570	7	10000	1	1	0	1	0
16	570	7	10000	1	1	0	1	0
16	571	7	10000	1	1	0	1	0
17	573	7	10000	1	1	0	1	0
17	574	7	10000	1	1	0	1	0
17	575	7	10000	1	1	0	1	0
17	576	7	10000	1	1	0	1	0
16	577	7	10000	1	1	0	1	0
15	578	7	10000	1	1	0	1	0
14	579	7	10000	1	1	0	1	0
15	580	7	10000	1	1	0	1	0
15	580	7	10000	1	1	0	1	0
14	581	7	10000	1	1	0	1	0
15	583	7	10000	1	1	0	1	0
16	584	7	10000	1	1	0	1	0
15	585	7	10000	1	1	0	1	0
14	586	7	10000	1	1	0	1	0
15	587	7	10000	1	1	0	1	0
16	588	7	10000	1	1	0	1	0
15	589	7	10000	1	1	0	1	0
15	590	7	10000	1	1	0	1	0
15	590	7	10000	1	1	0	1	0
15	591	7	10000	1	1	0	1	0
14	593	7	10000	1	1	0	1	0
14	594	7	10000	1	1	0	1	0
14	595	7	10000	1	1	0	1	0
14	596	7	10000	1	1	0	1	0
13	597	7	10000	1	1	0	1	0
11	598	7	10000	1	1	0	1	0
11	599	7	10000	1	1	0	1	0
12	600	7	10000	1	1	0	1	0
12	600	7	10000	1	1	0	1	0
12	601	7	10000	1	1	0	1	0
12	603	7	10000	1	1	0	1	0
12	604	7	10000	1	1	0	1	0
10	605	7	10000	1	1	0	1	0
10	606	7	10000	1	1	0	1	0
12	607	7	10000	1	1	0	1	0
13	608	7	10000	1	1	0	1	0
11	609	7	10000	1	1	0	1	0
12	610	7	10000	1	1	0	1	0
12	610	7	10000	1	1	0	1	0
11	611	7	10000	1	1	0	1	0
13	613	7	10000	1	1	0	1	0
14	614	7	10000	1	1	0	1	0
14	615	7	10000	1	1	0	1	0
15	616	7	10000	1	1	0	1	0
14	617	7	10000	1	1	0	1	0
12	618	7	10000	1	1	0	1	0
12	619	7	10000	1	1	0	1	0
12	620	7	10000	1	1	0	1	0
12	620	7	10000	1	1	0	1	0
12	621	7	10000	1	1	0	1	0
12	623	7	10000	1	1	0	1	0
12	624	7	10000	1	1	0	1	0
11	625	7	10000	1	1	0	1	0
10	626	7	10000	1	1	0	1	0
10	627	7	10000	1	1	0	1	0
13	628	7	10000	1	1	0	1	0
12	629	7	10000	1	1	0	1	0
13	630	7	10000	1	1	0	1	0
13	630	7	10000	1	1	0	1	0
12	631	7	10000	1	1	0	1	0
14	633	7	10000	1	1	0	1	0
15	634	7	10000	1	1	0	1	0
15	635	7	10000	1	1	0	1	0
21	636	7	10000	1	1	0	1	0
25	637	7	10000	1	1	0	1	0
25	638	7	10000	1	1	0	1	0
36	639	7	10000	1	1	0	1	0
51	640	7	10000	1	1	0	1	0
53	640	7	10000	1	1	0	1	0
53	641	7	10000	1	1	0	1	0
58	643	7	10000	1	1	0	1	0
65	644	7	10000	1	1	0	1	0
67	645	7	10000	1	1	0	1	0
76	646	7	10000	1	1	0	1	0
83	647	7	10000	1	1	0	1	0
96	648	7	10000	1	1	0	1	0
134	649	7	10000	1	1	0	1	0
171	650	7	10000	1	1	0	1	0
180	650	7	10000	1	1	0	1	0
222	651	7	10000	1	1	0	1	0
257	653	7	10000	1	1	0	1	0
277	654	7	10000	1	1	0	1	0
283	655	7	10000	1	1	0	1	0
305	656	7	10000	1	1	0	1	0
306	657	7	10000	1	1	0	1	0
304	658	7	10000	1	1	0	1	0
303	659	7	10000	1	1	0	1	0
294	660	7	10000	1	1	0	1	0
312	660	7	10000	1	1	0	1	0
368	661	7	10000	1	1	0	1	0
376	663	7	10000	1	1	0	1	0
394	664	7	10000	1	1	0	1	0
400	665	7	10000	1	1	0	1	0
399	666	7	10000	1	1	0	1	0
397	667	7	10000	1	1	0	1	0
396	668	7	10000	1	1	0	1	0
415	669	7	10000	1	1	0	1	0
434	670	7	10000	1	1	0	1	0
429	670	7	10000	1	1	0	1	0
448	671	7	10000	1	1	0	1	0
459	673	7	10000	1	1	0	1	0
460	674	7	10000	1	1	0	1	0
452	675	7	10000	1	1	0	1	0
438	676	7	10000	1	1	0	1	0
420	677	7	10000	1	1	0	1	0
400	678	7	10000	1	1	0	1	0
389	679	7	10000	1	1	0	1	0
376	680	7	10000	1	1	0	1	0
367	680	7	10000	1	1	0	1	0
362	681	7	10000	1	1	0	1	0
353	683	7	10000	1	1	0	1	0
338	684	7	10000	1	1	0	1	0
328	685	7	10000	1	1	0	1	0
319	686	7	10000	1	1	0	1	0
318	687	7	10000	1	1	0	1	0
316	688	7	10000	1	1	0	1	0
307	689	7	10000	1	1	0	1	0
298	690	7	10000	1	1	0	1	0
288	690	7	10000	1	1	0	1	0
277	691	7	10000	1	1	0	1	0
268	693	7	10000	1	1	0	1	0
257	694	7	10000	1	1	0	1	0
249	695	7	10000	1	1	0	1	0
244	696	7	10000	1	1	0	1	0
247	697	7	10000	1	1	0	1	0
250	698	7	10000	1	1	0	1	0
245	699	7	10000	1	1	0	1	0
239	700	7	10000	1	1	0	1	0
232	700	7	10000	1	1	0	1	0
226	701	7	10000	1	1	0	1	0
223	703	7	10000	1	1	0	1	0
222	704	7	10000	1	1	0	1	0
216	705	7	10000	1	1	0	1	0
207	706	7	10000	1	1	0	1	0
201	707	7	10000	1	1	0	1	0
197	708	7	10000	1	1	0	1	0
194	709	7	10000	1	1	0	1	0
191	710	7	10000	1	1	0	1	0
185	710	7	10000	1	1	0	1	0
183	711	7	10000	1	1	0	1	0
181	713	7	10000	1	1	0	1	0
178	714	7	10000	1	1	0	1	0
174	715	7	10000	1	1	0	1	0
167	716	7	10000	1	1	0	1	0
164	717	7	10000	1	1	0	1	0
162	718	7	10000	1	1	0	1	0
159	719	7	10000	1	1	0	1	0
154	720	7	10000	1	1	0	1	0
146	720	7	10000	1	1	0	1	0
142	721	7	10000	1	1	0	1	0
149	723	7	10000	1	1	0	1	0
150	724	7	10000	1	1	0	1	0
155	725	7	10000	1	1	0	1	0
156	726	7	10000	1	1	0	1	0
155	727	7	10000	1	1	0	1	0
161	728	7	10000	1	1	0	1	0
186	729	7	10000	1	1	0	1	0
190	730	7	10000	1	1	0	1	0
196	730	7	10000	1	1	0	1	0
212	731	7	10000	1	1	0	1	0
215	733	7	10000	1	1	0	1	0
214	734	7	10000	1	1	0	1	0
211	735	7	10000	1	1	0	1	0
213	736	7	10000	1	1	0	1	0
210	737	7	10000	1	1	0	1	0
209	738	7	10000	1	1	0	1	0
218	739	7	10000	1	1	0	1	0
215	740	7	10000	1	1	0	1	0
216	740	7	10000	1	1	0	1	0
241	741	7	10000	1	1	0	1	0
254	743	7	10000	1	1	0	1	0
248	744	7	10000	1	1	0	1	0
245	745	7	10000	1	1	0	1	0
239	746	7	10000	1	1	0	1	0
263	747	7	10000	1	1	0	1	0
279	748	7	10000	1	1	0	1	0
284	749	7	10000	1	1	0	1	0
288	750	7	10000	1	1	0	1	0
291	750	7	10000	1	1	0	1	0
296	751	7	10000	1	1	0	1	0
286	753	7	10000	1	1	0	1	0
278	754	7	10000	1	1	0	1	0
282	755	7	10000	1	1	0	1	0
284	756	7	10000	1	1	0	1	0
316	757	7	10000	1	1	0	1	0
315	758	7	10000	1	1	0	1	0
310	759	7	10000	1	1	0	1	0
304	760	7	10000	1	1	0	1	0
334	760	7	10000	1	1	0	1	0
345	761	7	10000	1	1	0	1	0
345	763	7	10000	1	1	0	1	0
335	764	7	10000	1	1	0	1	0
331	765	7	10000	1	1	0	1	0
321	766	7	10000	1	1	0	1	0
325	767	7	10000	1	1	0	1	0
346	768	7	10000	1	1	0	1	0
340	769	7	10000	1	1	0	1	0
333	770	7	10000	1	1	0	1	0
323	770	7	10000	1	1	0	1	0
336	771	7	10000	1	1	0	1	0
333	773	7	10000	1	1	0	1	0
319	774	7	10000	1	1	0	1	0
309	775	7	10000	1	1	0	1	0
301	776	7	10000	1	1	0	1	0
288	777	7	10000	1	1	0	1	0
285	778	7	10000	1	1	0	1	0
281	779	7	10000	1	1	0	1	0
271	780	7	10000	1	1	0	1	0
263	780	7	10000	1	1	0	1	0
255	781	7	10000	1	1	0	1	0
246	783	7	10000	1	1	0	1	0
246	784	7	10000	1	1	0	1	0
234	785	7	10000	1	1	0	1	0
231	786	7	10000	1	1	0	1	0
225	787	7	10000	1	1	0	1	0
220	788	7	10000	1	1	0	1	0
213	789	7	10000	1	1	0	1	0
204	790	7	10000	1	1	0	1	0
196	790	7	10000	1	1	0	1	0
189	791	7	10000	1	1	0	1	0
187	793	7	10000	1	1	0	1	0
187	794	7	10000	1	1	0	1	0
188	795	7	10000	1	1	0	1	0
188	796	7	10000	1	1	0	1	0
189	797	7	10000	1	1	0	1	0
188	798	7	10000	1	1	0	1	0
185	799	7	10000	1	1	0	1	0
178	800	7	10000	1	1	0	1	0
171	800	7	10000	1	1	0	1	0
164	801	7	10000	1	1	0	1	0
160	803	7	10000	1	1	0	1	0
156	804	7	10000	1	1	0	1	0
149	805	7	10000	1	1	0	1	0
148	806	7	10000	1	1	0	1	0
151	807	7	10000	1	1	0	1	0
153	808	7	10000	1	1	0	1	0
154	809	7	10000	1	1	0	1	0
150	810	7	10000	1	1	0	1	0
144	810	7	10000	1	1	0	1	0
143	811	7	10000	1	1	0	1	0
145	813	7	10000	1	1	0	1	0
144	814	7	10000	1	1	0	1	0
143	815	7	10000	1	1	0	1	0
139	816	7	10000	1	1	0	1	0
137	817	7	10000	1	1	0	1	0
138	818	7	10000	1	1	0	1	0
140	819	7	10000	1	1	0	1	0
137	820	7	10000	1	1	0	1	0
132	820	7	10000	1	1	0	1	0
130	821	7	10000	1	1	0	1	0
130	823	7	10000	1	1	0	1	0
131	824	7	10000	1	1	0	1	0
131	825	7	10000	1	1	0	1	0
127	826	7	10000	1	1	0	1	0
122	827	7	10000	1	1	0	1	0
118	828	7	10000	1	1	0	1	0
114	829	7	10000	1	1	0	1	0
110	830	7	10000	1	1	0	1	0
106	830	7	10000	1	1	0	1	0
101	831	7	10000	1	1	0	1	0
98	833	7	10000	1	1	0	1	0
95	834	7	10000	1	1	0	1	0
93	835	7	10000	1	1	0	1	0
91	836	7	10000	1	1	0	1	0
87	837	7	10000	1	1	0	1	0
82	838	7	10000	1	1	0	1	0
80	839	7	10000	1	1	0	1	0
78	840	7	10000	1	1	0	1	0
76	840	7	10000	1	1	0	1	0
73	841	7	10000	1	1	0	1	0
69	843	7	10000	1	1	0	1	0
67	844	7	10000	1	1	0	1	0
63	845	7	10000	1	1	0	1	0
61	846	7	10000	1	1	0	1	0
60	847	7	10000	1	1	0	1	0
63	848	7	10000	1	1	0	1	0
64	849	7	10000	1	1	0	1	0
66	850	7	10000	1	1	0	1	0
67	850	7	10000	1	1	0	1	0
66	851	7	10000	1	1	0	1	0
64	853	7	10000	1	1	0	1	0
62	854	7	10000	1	1	0	1	0
64	855	7	10000	1	1	0	1	0
64	856	7	10000	1	1	0	1	0
65	857	7	10000	1	1	0	1	0
65	858	7	10000	1	1	0	1	0
65	859	7	10000	1	1	0	1	0
65	860	7	10000	1	1	0	1	0
65	860	7	10000	1	1	0	1	0
66	861	7	10000	1	1	0	1	0
65	863	7	10000	1	1	0	1	0
63	864	7	10000	1	1	0	1	0
61	865	7	10000	1	1	0	1	0
59	866	7	10000	1	1	0	1	0
58	867	7	10000	1	1	0	1	0
61	868	7	10000	1	1	0	1	0
61	869	7	10000	1	1	0	1	0
61	870	7	10000	1	1	0	1	0
60	870	7	10000	1	1	0	1	0
59	871	7	10000	1	1	0	1	0
56	873	7	10000	1	1	0	1	0
55	874	7	10000	1	1	0	1	0
55	875	7	10000	1	1	0	1	0
54	876	7	10000	1	1	0	1	0
54	877	7	10000	1	1	0	1	0
51	878	7	10000	1	1	0	1	0
50	879	7	10000	1	1	0	1	0
49	880	7	10000	1	1	0	1	0
47	880	7	10000	1	1	0	1	0
45	881	7	10000	1	1	0	1	0
44	883	7	10000	1	1	0	1	0
42	884	7	10000	1	1	0	1	0
40	885	7	10000	1	1	0	1	0
40	886	7	10000	1	1	0	1	0
39	887	7	10000	1	1	0	1	0
40	888	7	10000	1	1	0	1	0
39	889	7	10000	1	1	0	1	0
38	890	7	10000	1	1	0	1	0
39	890	7	10000	1	1	0	1	0
37	891	7	10000	1	1	0	1	0
36	893	7	10000	1	1	0	1	0
35	894	7	10000	1	1	0	1	0
33	895	7	10000	1	1	0	1	0
32	896	7	10000	1	1	0	1	0
33	897	7	10000	1	1	0	1	0
31	898	7	10000	1	1	0	1	0
31	899	7	10000	1	1	0	1	0
31	900	7	10000	1	1	0	1	0
32	900	7	10000	1	1	0	1	0
32	901	7	10000	1	1	0	1	0
32	903	7	10000	1	1	0	1	0
32	904	7	10000	1	1	0	1	0
32	905	7	10000	1	1	0	1	0
32	906	7	10000	1	1	0	1	0
34	907	7	10000	1	1	0	1	0
37	908	7	10000	1	1	0	1	0
37	909	7	10000	1	1	0	1	0
36	910	7	10000	1	1	0	1	0
35	910	7	10000	1	1	0	1	0
35	911	7	10000	1	1	0	1	0
34	913	7	10000	1	1	0	1	0
33	914	7	10000	1	1	0	1	0
35	915	7	10000	1	1	0	1	0
35	916	7	10000	1	1	0	1	0
36	917	7	10000	1	1	0	1	0
34	918	7	10000	1	1	0	1	0
35	919	7	10000	1	1	0	1	0
36	920	7	10000	1	1	0	1	0
37	920	7	10000	1	1	0	1	0
37	921	7	10000	1	1	0	1	0
38	923	7	10000	1	1	0	1	0
39	924	7	10000	1	1	0	1	0
41	925	7	10000	1	1	0	1	0
44	926	7	10000	1	1	0	1	0
43	927	7	10000	1	1	0	1	0
44	928	7	10000	1	1	0	1	0
41	929	7	10000	1	1	0	1	0
40	930	7	10000	1	1	0	1	0
38	930	7	10000	1	1	0	1	0
37	931	7	10000	1	1	0	1	0
36	933	7	10000	1	1	0	1	0
35	934	7	10000	1	1	0	1	0
35	935	7	10000	1	1	0	1	0
34	936	7	10000	1	1	0	1	0
33	937	7	10000	1	1	0	1	0
31	938	7	10000	1	1	0	1	0
31	939	7	10000	1	1	0	1	0
30	940	7	10000	1	1	0	1	0
30	940	7	10000	1	1	0	1	0
29	941	7	10000	1	1	0	1	0
28	943	7	10000	1	1	0	1	0
27	944	7	10000	1	1	0	1	0
27	945	7	10000	1	1	0	1	0
26	946	7	10000	1	1	0	1	0
26	947	7	10000	1	1	0	1	0
27	948	7	10000	1	1	0	1	0
27	949	7	10000	1	1	0	1	0
25	950	7	10000	1	1	0	1	0
26	950	7	10000	1	1	0	1	0
28	951	7	10000	1	1	0	1	0
28	953	7	10000	1	1	0	1	0
28	954	7	10000	1	1	0	1	0
30	955	7	10000	1	1	0	1	0
30	956	7	10000	1	1	0	1	0
29	957	7	10000	1	1	0	1	0
28	958	7	10000	1	1	0	1	0
29	959	7	10000	1	1	0	1	0
30	960	7	10000	1	1	0	1	0
31	960	7	10000	1	1	0	1	0
32	961	7	10000	1	1	0	1	0
33	963	7	10000	1	1	0	1	0
34	964	7	10000	1	1	0	1	0
32	965	7	10000	1	1	0	1	0
31	966	7	10000	1	1	0	1	0
31	967	7	10000	1	1	0	1	0
34	968	7	10000	1	1	0	1	0
34	969	7	10000	1	1	0	1	0
33	970	7	10000	1	1	0	1	0
32	970	7	10000	1	1	0	1	0
31	971	7	10000	1	1	0	1	0
31	973	7	10000	1	1	0	1	0
30	974	7	10000	1	1	0	1	0
30	975	7	10000	1	1	0	1	0
29	976	7	10000	1	1	0	1	0
29	977	7	10000	1	1	0	1	0
27	978	7	10000	1	1	0	1	0
26	979	7	10000	1	1	0	1	0
25	980	7	10000	1	1	0	1	0
25	980	7	10000	1	1	0	1	0
24	981	7	10000	1	1	0	1	0
23	983	7	10000	1	1	0	1	0
24	984	7	10000	1	1	0	1	0
23	985	7	10000	1	1	0	1	0
23	986	7	10000	1	1	0	1	0
23	987	7	10000	1	1	0	1	0
24	988	7	10000	1	1	0	1	0
25	989	7	10000	1	1	0	1	0
24	990	7	10000	1	1	0	1	0
22	990	7	10000	1	1	0	1	0
21	991	7	10000	1	1	0	1	0
21	993	7	10000	1	1	0	1	0
20	994	7	10000	1	1	0	1	0
21	995	7	10000	1	1	0	1	0
21	996	7	10000	1	1	0	1	0
21	997	7	10000	1	1	0	1	0
20	998	7	10000	1	1	0	1	0
21	999	7	10000	1	1	0	1	0
23	1000	7	10000	1	1	0	1	0
24	1000	7	10000	1	1	0	1	0
25	1001	7	10000	1	1	0	1	0
67	2	7	10000	2	1	0	2	0
75	3	7	10000	2	1	0	2	0
91	4	7	10000	2	1	0	2	0
93	5	7	10000	2	1	0	2	0
91	6	7	10000	2	1	0	2	0
86	7	7	10000	2	1	0	2	0
88	8	7	10000	2	1	0	2	0
95	9	7	10000	2	1	0	2	0
99	10	7	10000	2	1	0	2	0
101	11	7	10000	2	1	0	2	0
99	12	7	10000	2	1	0	2	0
96	13	7	10000	2	1	0	2	0
93	14	7	10000	2	1	0	2	0
91	15	7	10000	2	1	0	2	0
94	16	7	10000	2	1	0	2	0
100	17	7	10000	2	1	0	2	0
97	18	7	10000	2	1	0	2	0
95	19	7	10000	2	1	0	2	0
93	20	7	10000	2	1	0	2	0
91	21	7	10000	2	1	0	2	0
89	22	7	10000	2	1	0	2	0
87	23	7	10000	2	1	0	2	0
85	24	7	10000	2	1	0	2	0
82	25	7	10000	2	1	0	2	0
81	26	7	10000	2	1	0	2	0
83	27	7	10000	2	1	0	2	0
84	28	7	10000	2	1	0	2	0
82	29	7	10000	2	1	0	2	0
81	30	7	10000	2	1	0	2	0
87	31	7	10000	2	1	0	2	0
92	32	7	10000	2	1	0	2	0
89	33	7	10000	2	1	0	2	0
88	34	7	10000	2	1	0	2	0
93	35	7	10000	2	1	0	2	0
97	36	7	10000	2	1	0	2	0
94	37	7	10000	2	1	0	2	0
96	38	7	10000	2	1	0	2	0
91	39	7	10000	2	1	0	2	0
88	40	7	10000	2	1	0	2	0
93	41	7	10000	2	1	0	2	0
97	42	7	10000	2	1	0	2	0
95	43	7	10000	2	1	0	2	0
97	44	7	10000	2	1	0	2	0
104	45	7	10000	2	1	0	2	0
104	46	7	10000	2	1	0	2	0
100	47	7	10000	2	1	0	2	0
101	48	7	10000	2	1	0	2	0
101	49	7	10000	2	1	0	2	0
105	50	7	10000	2	1	0	2	0
107	51	7	10000	2	1	0	2	0
104	52	7	10000	2	1	0	2	0
108	53	7	10000	2	1	0	2	0
107	54	7	10000	2	1	0	2	0
103	55	7	10000	2	1	0	2	0
99	56	7	10000	2	1	0	2	0
95	57	7	10000	2	1	0	2	0
92	58	7	10000	2	1	0	2	0
88	59	7	10000	2	1	0	2	0
85	60	7	10000	2	1	0	2	0
84	61	7	10000	2	1	0	2	0
82	62	7	10000	2	1	0	2	0
85	63	7	10000	2	1	0	2	0
86	64	7	10000	2	1	0	2	0
86	65	7	10000	2	1	0	2	0
86	66	7	10000	2	1	0	2	0
83	67	7	10000	2	1	0	2	0
83	68	7	10000	2	1	0	2	0
82	69	7	10000	2	1	0	2	0
82	70	7	10000	2	1	0	2	0
83	71	7	10000	2	1	0	2	0
84	72	7	10000	2	1	0	2	0
87	73	7	10000	2	1	0	2	0
92	74	7	10000	2	1	0	2	0
90	75	7	10000	2	1	0	2	0
90	76	7	10000	2	1	0	2	0
91	77	7	10000	2	1	0	2	0
88	78	7	10000	2	1	0	2	0
83	79	7	10000	2	1	0	2	0
84	80	7	10000	2	1	0	2	0
88	81	7	10000	2	1	0	2	0
89	82	7	10000	2	1	0	2	0
91	83	7	10000	2	1	0	2	0
93	84	7	10000	2	1	0	2	0
93	85	7	10000	2	1	0	2	0
95	86	7	10000	2	1	0	2	0
92	87	7	10000	2	1	0	2	0
93	88	7	10000	2	1	0	2	0
92	89	7	10000	2	1	0	2	0
91	90	7	10000	2	1	0	2	0
92	91	7	10000	2	1	0	2	0
95	92	7	10000	2	1	0	2	0
92	93	7	10000	2	1	0	2	0
95	94	7	10000	2	1	0	2	0
94	95	7	10000	2	1	0	2	0
95	96	7	10000	2	1	0	2	0
102	97	7	10000	2	1	0	2	0
104	98	7	10000	2	1	0	2	0
100	99	7	10000	2	1	0	2	0
104	100	7	10000	2	1	0	2	0
107	101	7	10000	2	1	0	2	0
105	102	7	10000	2	1	0	2	0
106	103	7	10000	2	1	0	2	0
103	104	7	10000	2	1	0	2	0
104	105	7	10000	2	1	0	2	0
102	106	7	10000	2	1	0	2	0
97	107	7	10000	2	1	0	2	0
98	108	7	10000	2	1	0	2	0
105	109	7	10000	2	1	0	2	0
104	110	7	10000	2	1	0	2	0
106	111	7	10000	2	1	0	2	0
117	112	7	10000	2	1	0	2	0
120	113	7	10000	2	1	0	2	0
115	114	7	10000	2	1	0	2	0
111	115	7	10000	2	1	0	2	0
110	116	7	10000	2	1	0	2	0
113	117	7	10000	2	1	0	2	0
133	118	7	10000	2	1	0	2	0
138	119	7	10000	2	1	0	2	0
135	120	7	10000	2	1	0	2	0
141	121	7	10000	2	1	0	2	0
144	122	7	10000	2	1	0	2	0
140	123	7	10000	2	1	0	2	0
137	124	7	10000	2	1	0	2	0
137	125	7	10000	2	1	0	2	0
140	126	7	10000	2	1	0	2	0
145	127	7	10000	2	1	0	2	0
149	128	7	10000	2	1	0	2	0
152	129	7	10000	2	1	0	2	0
152	130	7	10000	2	1	0	2	0
145	131	7	10000	2	1	0	2	0
145	132	7	10000	2	1	0	2	0
148	133	7	10000	2	1	0	2	0
145	134	7	10000	2	1	0	2	0
146	135	7	10000	2	1	0	2	0
140	136	7	10000	2	1	0	2	0
139	137	7	10000	2	1	0	2	0
143	138	7	10000	2	1	0	2	0
144	139	7	10000	2	1	0	2	0
147	140	7	10000	2	1	0	2	0
145	141	7	10000	2	1	0	2	0
140	142	7	10000	2	1	0	2	0
135	143	7	10000	2	1	0	2	0
136	144	7	10000	2	1	0	2	0
145	145	7	10000	2	1	0	2	0
149	146	7	10000	2	1	0	2	0
147	147	7	10000	2	1	0	2	0
140	148	7	10000	2	1	0	2	0
139	149	7	10000	2	1	0	2	0
140	150	7	10000	2	1	0	2	0
150	151	7	10000	2	1	0	2	0
173	152	7	10000	2	1	0	2	0
180	153	7	10000	2	1	0	2	0
178	154	7	10000	2	1	0	2	0
189	155	7	10000	2	1	0	2	0
200	156	7	10000	2	1	0	2	0
197	157	7	10000	2	1	0	2	0
204	158	7	10000	2	1	0	2	0
207	159	7	10000	2	1	0	2	0
202	160	7	10000	2	1	0	2	0
213	161	7	10000	2	1	0	2	0
225	162	7	10000	2	1	0	2	0
220	163	7	10000	2	1	0	2	0
213	164	7	10000	2	1	0	2	0
205	165	7	10000	2	1	0	2	0
201	166	7	10000	2	1	0	2	0
201	167	7	10000	2	1	0	2	0
194	168	7	10000	2	1	0	2	0
198	169	7	10000	2	1	0	2	0
209	170	7	10000	2	1	0	2	0
206	171	7	10000	2	1	0	2	0
201	172	7	10000	2	1	0	2	0
197	173	7	10000	2	1	0	2	0
189	174	7	10000	2	1	0	2	0
185	175	7	10000	2	1	0	2	0
178	176	7	10000	2	1	0	2	0
171	177	7	10000	2	1	0	2	0
167	178	7	10000	2	1	0	2	0
161	179	7	10000	2	1	0	2	0
156	180	7	10000	2	1	0	2	0
151	181	7	10000	2	1	0	2	0
146	182	7	10000	2	1	0	2	0
140	183	7	10000	2	1	0	2	0
137	184	7	10000	2	1	0	2	0
134	185	7	10000	2	1	0	2	0
128	186	7	10000	2	1	0	2	0
128	187	7	10000	2	1	0	2	0
127	188	7	10000	2	1	0	2	0
124	189	7	10000	2	1	0	2	0
126	190	7	10000	2	1	0	2	0
126	191	7	10000	2	1	0	2	0
122	192	7	10000	2	1	0	2	0
117	193	7	10000	2	1	0	2	0
115	194	7	10000	2	1	0	2	0
119	195	7	10000	2	1	0	2	0
123	196	7	10000	2	1	0	2	0
118	197	7	10000	2	1	0	2	0
114	198	7	10000	2	1	0	2	0
111	199	7	10000	2	1	0	2	0
108	200	7	10000	2	1	0	2	0
104	201	7	10000	2	1	0	2	0
108	202	7	10000	2	1	0	2	0
109	203	7	10000	2	1	0	2	0
108	204	7	10000	2	1	0	2	0
109	205	7	10000	2	1	0	2	0
114	206	7	10000	2	1	0	2	0
121	207	7	10000	2	1	0	2	0
120	208	7	10000	2	1	0	2	0
117	209	7	10000	2	1	0	2	0
116	210	7	10000	2	1	0	2	0
124	211	7	10000	2	1	0	2	0
128	212	7	10000	2	1	0	2	0
124	213	7	10000	2	1	0	2	0
123	214	7	10000	2	1	0	2	0
119	215	7	10000	2	1	0	2	0
120	216	7	10000	2	1	0	2	0
123	217	7	10000	2	1	0	2	0
119	218	7	10000	2	1	0	2	0
114	219	7	10000	2	1	0	2	0
110	220	7	10000	2	1	0	2	0
111	221	7	10000	2	1	0	2	0
110	222	7	10000	2	1	0	2	0
120	223	7	10000	2	1	0	2	0
121	224	7	10000	2	1	0	2	0
117	225	7	10000	2	1	0	2	0
116	226	7	10000	2	1	0	2	0
121	227	7	10000	2	1	0	2	0
123	228	7	10000	2	1	0	2	0
127	229	7	10000	2	1	0	2	0
141	230	7	10000	2	1	0	2	0
149	231	7	10000	2	1	0	2	0
147	232	7	10000	2	1	0	2	0
141	233	7	10000	2	1	0	2	0
136	234	7	10000	2	1	0	2	0
131	235	7	10000	2	1	0	2	0
129	236	7	10000	2	1	0	2	0
124	237	7	10000	2	1	0	2	0
119	238	7	10000	2	1	0	2	0
117	239	7	10000	2	1	0	2	0
114	240	7	10000	2	1	0	2	0
111	241	7	10000	2	1	0	2	0
110	242	7	10000	2	1	0	2	0
109	243	7	10000	2	1	0	2	0
106	244	7	10000	2	1	0	2	0
104	245	7	10000	2	1	0	2	0
115	246	7	10000	2	1	0	2	0
120	247	7	10000	2	1	0	2	0
119	248	7	10000	2	1	0	2	0
125	249	7	10000	2	1	0	2	0
123	250	7	10000	2	1	0	2	0
119	251	7	10000	2	1	0	2	0
116	252	7	10000	2	1	0	2	0
112	253	7	10000	2	1	0	2	0
110	254	7	10000	2	1	0	2	0
107	255	7	10000	2	1	0	2	0
103	256	7	10000	2	1	0	2	0
102	257	7	10000	2	1	0	2	0
102	258	7	10000	2	1	0	2	0
101	259	7	10000	2	1	0	2	0
100	260	7	10000	2	1	0	2	0
104	261	7	10000	2	1	0	2	0
112	262	7	10000	2	1	0	2	0
113	263	7	10000	2	1	0	2	0
114	264	7	10000	2	1	0	2	0
109	265	7	10000	2	1	0	2	0
110	266	7	10000	2	1	0	2	0
109	267	7	10000	2	1	0	2	0
105	268	7	10000	2	1	0	2	0
108	269	7	10000	2	1	0	2	0
107	270	7	10000	2	1	0	2	0
105	271	7	10000	2	1	0	2	0
111	272	7	10000	2	1	0	2	0
118	273	7	10000	2	1	0	2	0
116	274	7	10000	2	1	0	2	0
111	275	7	10000	2	1	0	2	0
110	276	7	10000	2	1	0	2	0
110	277	7	10000	2	1	0	2	0
108	278	7	10000	2	1	0	2	0
104	279	7	10000	2	1	0	2	0
103	280	7	10000	2	1	0	2	0
103	281	7	10000	2	1	0	2	0
104	282	7	10000	2	1	0	2	0
100	283	7	10000	2	1	0	2	0
100	284	7	10000	2	1	0	2	0
99	285	7	10000	2	1	0	2	0
98	286	7	10000	2	1	0	2	0
98	287	7	10000	2	1	0	2	0
100	288	7	10000	2	1	0	2	0
100	289	7	10000	2	1	0	2	0
103	290	7	10000	2	1	0	2	0
111	291	7	10000	2	1	0	2	0
112	292	7	10000	2	1	0	2	0
113	293	7	10000	2	1	0	2	0
113	294	7	10000	2	1	0	2	0
114	295	7	10000	2	1	0	2	0
123	296	7	10000	2	1	0	2	0
132	297	7	10000	2	1	0	2	0
133	298	7	10000	2	1	0	2	0
127	299	7	10000	2	1	0	2	0
130	300	7	10000	2	1	0	2	0
129	301	7	10000	2	1	0	2	0
129	302	7	10000	2	1	0	2	0
126	303	7	10000	2	1	0	2	0
124	304	7	10000	2	1	0	2	0
125	305	7	10000	2	1	0	2	0
128	306	7	10000	2	1	0	2	0
126	307	7	10000	2	1	0	2	0
121	308	7	10000	2	1	0	2	0
123	309	7	10000	2	1	0	2	0
129	310	7	10000	2	1	0	2	0
126	311	7	10000	2	1	0	2	0
123	312	7	10000	2	1	0	2	0
119	313	7	10000	2	1	0	2	0
116	314	7	10000	2	1	0	2	0
117	315	7	10000	2	1	0	2	0
123	316	7	10000	2	1	0	2	0
120	317	7	10000	2	1	0	2	0
117	318	7	10000	2	1	0	2	0
113	319	7	10000	2	1	0	2	0
111	320	7	10000	2	1	0	2	0
119	321	7	10000	2	1	0	2	0
128	322	7	10000	2	1	0	2	0
125	323	7	10000	2	1	0	2	0
127	324	7	10000	2	1	0	2	0
133	325	7	10000	2	1	0	2	0
135	326	7	10000	2	1	0	2	0
131	327	7	10000	2	1	0	2	0
130	328	7	10000	2	1	0	2	0
130	329	7	10000	2	1	0	2	0
128	330	7	10000	2	1	0	2	0
129	331	7	10000	2	1	0	2	0
134	332	7	10000	2	1	0	2	0
135	333	7	10000	2	1	0	2	0
131	334	7	10000	2	1	0	2	0
131	335	7	10000	2	1	0	2	0
128	336	7	10000	2	1	0	2	0
128	337	7	10000	2	1	0	2	0
125	338	7	10000	2	1	0	2	0
120	339	7	10000	2	1	0	2	0
116	340	7	10000	2	1	0	2	0
122	341	7	10000	2	1	0	2	0
127	342	7	10000	2	1	0	2	0
125	343	7	10000	2	1	0	2	0
124	344	7	10000	2	1	0	2	0
124	345	7	10000	2	1	0	2	0
121	346	7	10000	2	1	0	2	0
121	347	7	10000	2	1	0	2	0
119	348	7	10000	2	1	0	2	0
123	349	7	10000	2	1	0	2	0
129	350	7	10000	2	1	0	2	0
127	351	7	10000	2	1	0	2	0
122	352	7	10000	2	1	0	2	0
120	353	7	10000	2	1	0	2	0
121	354	7	10000	2	1	0	2	0
117	355	7	10000	2	1	0	2	0
117	356	7	10000	2	1	0	2	0
118	357	7	10000	2	1	0	2	0
116	358	7	10000	2	1	0	2	0
111	359	7	10000	2	1	0	2	0
108	360	7	10000	2	1	0	2	0
106	361	7	10000	2	1	0	2	0
113	362	7	10000	2	1	0	2	0
115	363	7	10000	2	1	0	2	0
111	364	7	10000	2	1	0	2	0
112	365	7	10000	2	1	0	2	0
119	366	7	10000	2	1	0	2	0
138	367	7	10000	2	1	0	2	0
145	368	7	10000	2	1	0	2	0
145	369	7	10000	2	1	0	2	0
155	370	7	10000	2	1	0	2	0
160	371	7	10000	2	1	0	2	0
159	372	7	10000	2	1	0	2	0
167	373	7	10000	2	1	0	2	0
176	374	7	10000	2	1	0	2	0
170	375	7	10000	2	1	0	2	0
164	376	7	10000	2	1	0	2	0
164	377	7	10000	2	1	0	2	0
163	378	7	10000	2	1	0	2	0
155	379	7	10000	2	1	0	2	0
153	380	7	10000	2	1	0	2	0
156	381	7	10000	2	1	0	2	0
158	382	7	10000	2	1	0	2	0
151	383	7	10000	2	1	0	2	0
149	384	7	10000	2	1	0	2	0
152	385	7	10000	2	1	0	2	0
154	386	7	10000	2	1	0	2	0
152	387	7	10000	2	1	0	2	0
155	388	7	10000	2	1	0	2	0
153	389	7	10000	2	1	0	2	0
150	390	7	10000	2	1	0	2	0
146	391	7	10000	2	1	0	2	0
142	392	7	10000	2	1	0	2	0
149	393	7	10000	2	1	0	2	0
158	394	7	10000	2	1	0	2	0
156	395	7	10000	2	1	0	2	0
159	396	7	10000	2	1	0	2	0
157	397	7	10000	2	1	0	2	0
151	398	7	10000	2	1	0	2	0
143	399	7	10000	2	1	0	2	0
137	400	7	10000	2	1	0	2	0
133	401	7	10000	2	1	0	2	0
140	402	7	10000	2	1	0	2	0
160	403	7	10000	2	1	0	2	0
172	404	7	10000	2	1	0	2	0
171	405	7	10000	2	1	0	2	0
167	406	7	10000	2	1	0	2	0
163	407	7	10000	2	1	0	2	0
174	408	7	10000	2	1	0	2	0
176	409	7	10000	2	1	0	2	0
191	410	7	10000	2	1	0	2	0
191	411	7	10000	2	1	0	2	0
189	412	7	10000	2	1	0	2	0
197	413	7	10000	2	1	0	2	0
202	414	7	10000	2	1	0	2	0
205	415	7	10000	2	1	0	2	0
207	416	7	10000	2	1	0	2	0
203	417	7	10000	2	1	0	2	0
197	418	7	10000	2	1	0	2	0
188	419	7	10000	2	1	0	2	0
187	420	7	10000	2	1	0	2	0
189	421	7	10000	2	1	0	2	0
184	422	7	10000	2	1	0	2	0
182	423	7	10000	2	1	0	2	0
176	424	7	10000	2	1	0	2	0
172	425	7	10000	2	1	0	2	0
172	426	7	10000	2	1	0	2	0
169	427	7	10000	2	1	0	2	0
164	428	7	10000	2	1	0	2	0
167	429	7	10000	2	1	0	2	0
176	430	7	10000	2	1	0	2	0
186	431	7	10000	2	1	0	2	0
185	432	7	10000	2	1	0	2	0
192	433	7	10000	2	1	0	2	0
188	434	7	10000	2	1	0	2	0
188	435	7	10000	2	1	0	2	0
183	436	7	10000	2	1	0	2	0
187	437	7	10000	2	1	0	2	0
189	438	7	10000	2	1	0	2	0
182	439	7	10000	2	1	0	2	0
176	440	7	10000	2	1	0	2	0
169	441	7	10000	2	1	0	2	0
175	442	7	10000	2	1	0	2	0
176	443	7	10000	2	1	0	2	0
170	444	7	10000	2	1	0	2	0
169	445	7	10000	2	1	0	2	0
170	446	7	10000	2	1	0	2	0
169	447	7	10000	2	1	0	2	0
169	448	7	10000	2	1	0	2	0
188	449	7	10000	2	1	0	2	0
190	450	7	10000	2	1	0	2	0
194	451	7	10000	2	1	0	2	0
189	452	7	10000	2	1	0	2	0
184	453	7	10000	2	1	0	2	0
178	454	7	10000	2	1	0	2	0
171	455	7	10000	2	1	0	2	0
165	456	7	10000	2	1	0	2	0
162	457	7	10000	2	1	0	2	0
163	458	7	10000	2	1	0	2	0
159	459	7	10000	2	1	0	2	0
157	460	7	10000	2	1	0	2	0
155	461	7	10000	2	1	0	2	0
152	462	7	10000	2	1	0	2	0
150	463	7	10000	2	1	0	2	0
148	464	7	10000	2	1	0	2	0
149	465	7	10000	2	1	0	2	0
159	466	7	10000	2	1	0	2	0
165	467	7	10000	2	1	0	2	0
162	468	7	10000	2	1	0	2	0
158	469	7	10000	2	1	0	2	0
160	470	7	10000	2	1	0	2	0
161	471	7	10000	2	1	0	2	0
159	472	7	10000	2	1	0	2	0
153	473	7	10000	2	1	0	2	0
150	474	7	10000	2	1	0	2	0
148	475	7	10000	2	1	0	2	0
146	476	7	10000	2	1	0	2	0
148	477	7	10000	2	1	0	2	0
148	478	7	10000	2	1	0	2	0
149	479	7	10000	2	1	0	2	0
146	480	7	10000	2	1	0	2	0
149	481	7	10000	2	1	0	2	0
146	482	7	10000	2	1	0	2	0
140	483	7	10000	2	1	0	2	0
136	484	7	10000	2	1	0	2	0
133	485	7	10000	2	1	0	2	0
131	486	7	10000	2	1	0	2	0
128	487	7	10000	2	1	0	2	0
123	488	7	10000	2	1	0	2	0
120	489	7	10000	2	1	0	2	0
120	490	7	10000	2	1	0	2	0
117	491	7	10000	2	1	0	2	0
119	492	7	10000	2	1	0	2	0
115	493	7	10000	2	1	0	2	0
114	494	7	10000	2	1	0	2	0
125	495	7	10000	2	1	0	2	0
124	496	7	10000	2	1	0	2	0
123	497	7	10000	2	1	0	2	0
123	498	7	10000	2	1	0	2	0
120	499	7	10000	2	1	0	2	0
115	500	7	10000	2	1	0	2	0
115	501	7	10000	2	1	0	2	0
118	502	7	10000	2	1	0	2	1
118	503	7	10000	2	1	0	2	1
123	504	7	10000	2	1	0	2	1
137	505	7	10000	2	1	0	2	1
137	506	7	10000	2	1	0	2	1
139	507	7	10000	2	1	0	2	1
136	508	7	10000	2	1	0	2	1
132	509	7	10000	2	1	0	2	1
129	510	7	10000	2	1	0	2	1
126	511	7	10000	2	1	0	2	1
130	512	7	10000	2	1	0	2	1
132	513	7	10000	2	1	0	2	1
151	514	7	10000	2	1	0	2	1
166	515	7	10000	2	1	0	2	1
171	516	7	10000	2	1	0	2	1
167	517	7	10000	2	1	0	2	1
173	518	7	10000	2	1	0	2	1
180	519	7	10000	2	1	0	2	1
188	520	7	10000	2	1	0	2	1
203	521	7	10000	2	1	0	2	1
216	522	7	10000	2	1	0	2	1
214	523	7	10000	2	1	0	2	1
215	524	7	10000	2	1	0	2	1
213	525	7	10000	2	1	0	2	1
213	526	7	10000	2	1	0	2	1
220	527	7	10000	2	1	0	2	1
215	528	7	10000	2	1	0	2	1
220	529	7	10000	2	1	0	2	1
231	530	7	10000	2	1	0	2	1
234	531	7	10000	2	1	0	2	1
240	532	7	10000	2	1	0	2	1
237	533	7	10000	2	1	0	2	1
240	534	7	10000	2	1	0	2	1
237	535	7	10000	2	1	0	2	1
228	536	7	10000	2	1	0	2	1
224	537	7	10000	2	1	0	2	1
248	538	7	10000	2	1	0	2	1
253	539	7	10000	2	1	0	2	1
263	540	7	10000	2	1	0	2	1
279	541	7	10000	2	1	0	2	1
284	542	7	10000	2	1	0	2	1
291	543	7	10000	2	1	0	2	1
295	544	7	10000	2	1	0	2	1
283	545	7	10000	2	1	0	2	1
271	546	7	10000	2	1	0	2	1
259	547	7	10000	2	1	0	2	1
255	548	7	10000	2	1	0	2	1
258	549	7	10000	2	1	0	2	1
262	550	7	10000	2	1	0	2	1
264	551	7	10000	2	1	0	2	1
267	552	7	10000	2	1	0	2	0
259	553	7	10000	2	1	0	2	0
256	554	7	10000	2	1	0	2	0
258	555	7	10000	2	1	0	2	0
263	556	7	10000	2	1	0	2	0
256	557	7	10000	2	1	0	2	0
258	558	7	10000	2	1	0	2	0
266	559	7	10000	2	1	0	2	0
258	560	7	10000	2	1	0	2	0
260	561	7	10000	2	1	0	2	0
272	562	7	10000	2	1	0	2	0
270	563	7	10000	2	1	0	2	0
279	564	7	10000	2	1	0	2	0
275	565	7	10000	2	1	0	2	0
270	566	7	10000	2	1	0	2	0
263	567	7	10000	2	1	0	2	0
272	568	7	10000	2	1	0	2	0
315	569	7	10000	2	1	0	2	0
345	570	7	10000	2	1	0	2	0
341	571	7	10000	2	1	0	2	0
357	572	7	10000	2	1	0	2	0
384	573	7	10000	2	1	0	2	0
396	574	7	10000	2	1	0	2	0
405	575	7	10000	2	1	0	2	0
421	576	7	10000	2	1	0	2	0
419	577	7	10000	2	1	0	2	0
408	578	7	10000	2	1	0	2	0
396	579	7	10000	2	1	0	2	0
389	580	7	10000	2	1	0	2	0
397	581	7	10000	2	1	0	2	0
385	582	7	10000	2	1	0	2	0
381	583	7	10000	2	1	0	2	0
405	584	7	10000	2	1	0	2	0
434	585	7	10000	2	1	0	2	0
456	586	7	10000	2	1	0	2	0
444	587	7	10000	2	1	0	2	0
444	588	7	10000	2	1	0	2	0
434	589	7	10000	2	1	0	2	0
428	590	7	10000	2	1	0	2	0
414	591	7	10000	2	1	0	2	0
401	592	7	10000	2	1	0	2	0
401	593	7	10000	2	1	0	2	0
417	594	7	10000	2	1	0	2	0
409	595	7	10000	2	1	0	2	0
401	596	7	10000	2	1	0	2	0
394	597	7	10000	2	1	0	2	0
388	598	7	10000	2	1	0	2	0
374	599	7	10000	2	1	0	2	0
361	600	7	10000	2	1	0	2	0
362	601	7	10000	2	1	0	2	0
360	602	7	10000	2	1	0	2	0
348	603	7	10000	2	1	0	2	0
339	604	7	10000	2	1	0	2	0
329	605	7	10000	2	1	0	2	0
316	606	7	10000	2	1	0	2	0
305	607	7	10000	2	1	0	2	0
297	608	7	10000	2	1	0	2	0
292	609	7	10000	2	1	0	2	0
284	610	7	10000	2	1	0	2	0
280	611	7	10000	2	1	0	2	0
273	612	7	10000	2	1	0	2	0
263	613	7	10000	2	1	0	2	0
255	614	7	10000	2	1	0	2	0
251	615	7	10000	2	1	0	2	0
255	616	7	10000	2	1	0	2	0
253	617	7	10000	2	1	0	2	0
249	618	7	10000	2	1	0	2	0
252	619	7	10000	2	1	0	2	0
262	620	7	10000	2	1	0	2	0
278	621	7	10000	2	1	0	2	0
280	622	7	10000	2	1	0	2	0
305	623	7	10000	2	1	0	2	0
337	624	7	10000	2	1	0	2	0
337	625	7	10000	2	1	0	2	0
328	626	7	10000	2	1	0	2	0
326	627	7	10000	2	1	0	2	0
318	628	7	10000	2	1	0	2	0
319	629	7	10000	2	1	0	2	0
337	630	7	10000	2	1	0	2	0
351	631	7	10000	2	1	0	2	0
342	632	7	10000	2	1	0	2	0
329	633	7	10000	2	1	0	2	0
328	634	7	10000	2	1	0	2	0
316	635	7	10000	2	1	0	2	0
305	636	7	10000	2	1	0	2	0
310	637	7	10000	2	1	0	2	0
311	638	7	10000	2	1	0	2	0
299	639	7	10000	2	1	0	2	0
286	640	7	10000	2	1	0	2	0
281	641	7	10000	2	1	0	2	0
274	642	7	10000	2	1	0	2	0
270	643	7	10000	2	1	0	2	0
269	644	7	10000	2	1	0	2	0
263	645	7	10000	2	1	0	2	0
268	646	7	10000	2	1	0	2	0
264	647	7	10000	2	1	0	2	0
260	648	7	10000	2	1	0	2	0
267	649	7	10000	2	1	0	2	0
272	650	7	10000	2	1	0	2	0
266	651	7	10000	2	1	0	2	0
270	652	7	10000	2	1	0	2	0
269	653	7	10000	2	1	0	2	0
261	654	7	10000	2	1	0	2	0
255	655	7	10000	2	1	0	2	0
254	656	7	10000	2	1	0	2	0
272	657	7	10000	2	1	0	2	0
287	658	7	10000	2	1	0	2	0
283	659	7	10000	2	1	0	2	0
280	660	7	10000	2	1	0	2	0
295	661	7	10000	2	1	0	2	0
300	662	7	10000	2	1	0	2	0
289	663	7	10000	2	1	0	2	0
285	664	7	10000	2	1	0	2	0
275	665	7	10000	2	1	0	2	0
274	666	7	10000	2	1	0	2	0
280	667	7	10000	2	1	0	2	0
280	668	7	10000	2	1	0	2	0
294	669	7	10000	2	1	0	2	0
297	670	7	10000	2	1	0	2	0
290	671	7	10000	2	1	0	2	0
280	672	7	10000	2	1	0	2	0
285	673	7	10000	2	1	0	2	0
293	674	7	10000	2	1	0	2	0
285	675	7	10000	2	1	0	2	0
276	676	7	10000	2	1	0	2	0
270	677	7	10000	2	1	0	2	0
267	678	7	10000	2	1	0	2	0
262	679	7	10000	2	1	0	2	0
261	680	7	10000	2	1	0	2	0
269	681	7	10000	2	1	0	2	0
268	682	7	10000	2	1	0	2	0
273	683	7	10000	2	1	0	2	0
287	684	7	10000	2	1	0	2	0
301	685	7	10000	2	1	0	2	0
300	686	7	10000	2	1	0	2	0
325	687	7	10000	2	1	0	2	0
341	688	7	10000	2	1	0	2	0
345	689	7	10000	2	1	0	2	0
335	690	7	10000	2	1	0	2	0
327	691	7	10000	2	1	0	2	0
336	692	7	10000	2	1	0	2	0
372	693	7	10000	2	1	0	2	0
383	694	7	10000	2	1	0	2	0
375	695	7	10000	2	1	0	2	0
376	696	7	10000	2	1	0	2	0
369	697	7	10000	2	1	0	2	0
371	698	7	10000	2	1	0	2	0
366	699	7	10000	2	1	0	2	0
357	700	7	10000	2	1	0	2	0
349	701	7	10000	2	1	0	2	0
335	702	7	10000	2	1	0	2	0
351	703	7	10000	2	1	0	2	0
399	704	7	10000	2	1	0	2	0
402	705	7	10000	2	1	0	2	0
423	706	7	10000	2	1	0	2	0
442	707	7	10000	2	1	0	2	0
446	708	7	10000	2	1	0	2	0
434	709	7	10000	2	1	0	2	0
421	710	7	10000	2	1	0	2	0
414	711	7	10000	2	1	0	2	0
401	712	7	10000	2	1	0	2	0
397	713	7	10000	2	1	0	2	0
382	714	7	10000	2	1	0	2	0
366	715	7	10000	2	1	0	2	0
353	716	7	10000	2	1	0	2	0
340	717	7	10000	2	1	0	2	0
331	718	7	10000	2	1	0	2	0
321	719	7	10000	2	1	0	2	0
320	720	7	10000	2	1	0	2	0
341	721	7	10000	2	1	0	2	0
340	722	7	10000	2	1	0	2	0
336	723	7	10000	2	1	0	2	0
343	724	7	10000	2	1	0	2	0
342	725	7	10000	2	1	0	2	0
328	726	7	10000	2	1	0	2	0
315	727	7	10000	2	1	0	2	0
306	728	7	10000	2	1	0	2	0
294	729	7	10000	2	1	0	2	0
294	730	7	10000	2	1	0	2	0
302	731	7	10000	2	1	0	2	0
305	732	7	10000	2	1	0	2	0
327	733	7	10000	2	1	0	2	0
328	734	7	10000	2	1	0	2	0
351	735	7	10000	2	1	0	2	0
348	736	7	10000	2	1	0	2	0
357	737	7	10000	2	1	0	2	0
369	738	7	10000	2	1	0	2	0
364	739	7	10000	2	1	0	2	0
379	740	7	10000	2	1	0	2	0
373	741	7	10000	2	1	0	2	0
378	742	7	10000	2	1	0	2	0
368	743	7	10000	2	1	0	2	0
364	744	7	10000	2	1	0	2	0
357	745	7	10000	2	1	0	2	0
349	746	7	10000	2	1	0	2	0
360	747	7	10000	2	1	0	2	0
374	748	7	10000	2	1	0	2	0
371	749	7	10000	2	1	0	2	0
359	750	7	10000	2	1	0	2	0
344	751	7	10000	2	1	0	2	0
336	752	7	10000	2	1	0	2	0
322	753	7	10000	2	1	0	2	0
318	754	7	10000	2	1	0	2	0
311	755	7	10000	2	1	0	2	0
303	756	7	10000	2	1	0	2	0
321	757	7	10000	2	1	0	2	0
337	758	7	10000	2	1	0	2	0
329	759	7	10000	2	1	0	2	0
320	760	7	10000	2	1	0	2	0
326	761	7	10000	2	1	0	2	0
321	762	7	10000	2	1	0	2	0
317	763	7	10000	2	1	0	2	0
309	764	7	10000	2	1	0	2	0
299	765	7	10000	2	1	0	2	0
309	766	7	10000	2	1	0	2	0
310	767	7	10000	2	1	0	2	0
311	768	7	10000	2	1	0	2	0
307	769	7	10000	2	1	0	2	0
325	770	7	10000	2	1	0	2	0
330	771	7	10000	2	1	0	2	0
336	772	7	10000	2	1	0	2	0
352	773	7	10000	2	1	0	2	0
384	774	7	10000	2	1	0	2	0
386	775	7	10000	2	1	0	2	0
415	776	7	10000	2	1	0	2	0
434	777	7	10000	2	1	0	2	0
424	778	7	10000	2	1	0	2	0
420	779	7	10000	2	1	0	2	0
424	780	7	10000	2	1	0	2	0
424	781	7	10000	2	1	0	2	0
415	782	7	10000	2	1	0	2	0
401	783	7	10000	2	1	0	2	0
406	784	7	10000	2	1	0	2	0
434	785	7	10000	2	1	0	2	0
426	786	7	10000	2	1	0	2	0
416	787	7	10000	2	1	0	2	0
399	788	7	10000	2	1	0	2	0
382	789	7	10000	2	1	0	2	0
370	790	7	10000	2	1	0	2	0
365	791	7	10000	2	1	0	2	0
366	792	7	10000	2	1	0	2	0
361	793	7	10000	2	1	0	2	0
351	794	7	10000	2	1	0	2	0
343	795	7	10000	2	1	0	2	0
330	796	7	10000	2	1	0	2	0
330	797	7	10000	2	1	0	2	0
325	798	7	10000	2	1	0	2	0
311	799	7	10000	2	1	0	2	0
297	800	7	10000	2	1	0	2	0
286	801	7	10000	2	1	0	2	0
275	802	7	10000	2	1	0	2	0
269	803	7	10000	2	1	0	2	0
285	804	7	10000	2	1	0	2	0
280	805	7	10000	2	1	0	2	0
279	806	7	10000	2	1	0	2	0
286	807	7	10000	2	1	0	2	0
295	808	7	10000	2	1	0	2	0
288	809	7	10000	2	1	0	2	0
294	810	7	10000	2	1	0	2	0
292	811	7	10000	2	1	0	2	0
321	812	7	10000	2	1	0	2	0
349	813	7	10000	2	1	0	2	0
339	814	7	10000	2	1	0	2	0
326	815	7	10000	2	1	0	2	0
337	816	7	10000	2	1	0	2	0
369	817	7	10000	2	1	0	2	0
380	818	7	10000	2	1	0	2	0
382	819	7	10000	2	1	0	2	0
409	820	7	10000	2	1	0	2	0
425	821	7	10000	2	1	0	2	0
430	822	7	10000	2	1	0	2	0
421	823	7	10000	2	1	0	2	0
427	824	7	10000	2	1	0	2	0
413	825	7	10000	2	1	0	2	0
399	826	7	10000	2	1	0	2	0
384	827	7	10000	2	1	0	2	0
373	828	7	10000	2	1	0	2	0
371	829	7	10000	2	1	0	2	0
359	830	7	10000	2	1	0	2	0
346	831	7	10000	2	1	0	2	0
334	832	7	10000	2	1	0	2	0
323	833	7	10000	2	1	0	2	0
315	834	7	10000	2	1	0	2	0
315	835	7	10000	2	1	0	2	0
308	836	7	10000	2	1	0	2	0
321	837	7	10000	2	1	0	2	0
344	838	7	10000	2	1	0	2	0
339	839	7	10000	2	1	0	2	0
355	840	7	10000	2	1	0	2	0
364	841	7	10000	2	1	0	2	0
353	842	7	10000	2	1	0	2	0
344	843	7	10000	2	1	0	2	0
333	844	7	10000	2	1	0	2	0
322	845	7	10000	2	1	0	2	0
348	846	7	10000	2	1	0	2	0
394	847	7	10000	2	1	0	2	0
391	848	7	10000	2	1	0	2	0
417	849	7	10000	2	1	0	2	0
453	850	7	10000	2	1	0	2	0
455	851	7	10000	2	1	0	2	0
440	852	7	10000	2	1	0	2	0
434	853	7	10000	2	1	0	2	0
421	854	7	10000	2	1	0	2	0
419	855	7	10000	2	1	0	2	0
413	856	7	10000	2	1	0	2	0
413	857	7	10000	2	1	0	2	0
428	858	7	10000	2	1	0	2	0
438	859	7	10000	2	1	0	2	0
436	860	7	10000	2	1	0	2	0
428	861	7	10000	2	1	0	2	0
434	862	7	10000	2	1	0	2	0
420	863	7	10000	2	1	0	2	0
404	864	7	10000	2	1	0	2	0
390	865	7	10000	2	1	0	2	0
377	866	7	10000	2	1	0	2	0
362	867	7	10000	2	1	0	2	0
349	868	7	10000	2	1	0	2	0
342	869	7	10000	2	1	0	2	0
330	870	7	10000	2	1	0	2	0
356	871	7	10000	2	1	0	2	0
387	872	7	10000	2	1	0	2	0
378	873	7	10000	2	1	0	2	0
370	874	7	10000	2	1	0	2	0
375	875	7	10000	2	1	0	2	0
369	876	7	10000	2	1	0	2	0
359	877	7	10000	2	1	0	2	0
344	878	7	10000	2	1	0	2	0
357	879	7	10000	2	1	0	2	0
396	880	7	10000	2	1	0	2	0
413	881	7	10000	2	1	0	2	0
420	882	7	10000	2	1	0	2	0
434	883	7	10000	2	1	0	2	0
438	884	7	10000	2	1	0	2	0
435	885	7	10000	2	1	0	2	0
468	886	7	10000	2	1	0	2	0
485	887	7	10000	2	1	0	2	0
471	888	7	10000	2	1	0	2	0
469	889	7	10000	2	1	0	2	0
456	890	7	10000	2	1	0	2	0
440	891	7	10000	2	1	0	2	0
429	892	7	10000	2	1	0	2	0
412	893	7	10000	2	1	0	2	0
396	894	7	10000	2	1	0	2	0
381	895	7	10000	2	1	0	2	0
364	896	7	10000	2	1	0	2	0
351	897	7	10000	2	1	0	2	0
343	898	7	10000	2	1	0	2	0
332	899	7	10000	2	1	0	2	0
325	900	7	10000	2	1	0	2	0
312	901	7	10000	2	1	0	2	0
311	902	7	10000	2	1	0	2	0
317	903	7	10000	2	1	0	2	0
309	904	7	10000	2	1	0	2	0
302	905	7	10000	2	1	0	2	0
333	906	7	10000	2	1	0	2	0
378	907	7	10000	2	1	0	2	0
383	908	7	10000	2	1	0	2	0
402	909	7	10000	2	1	0	2	0
395	910	7	10000	2	1	0	2	0
412	911	7	10000	2	1	0	2	0
418	912	7	10000	2	1	0	2	0
436	913	7	10000	2	1	0	2	0
427	914	7	10000	2	1	0	2	0
431	915	7	10000	2	1	0	2	0
441	916	7	10000	2	1	0	2	0
437	917	7	10000	2	1	0	2	0
421	918	7	10000	2	1	0	2	0
412	919	7	10000	2	1	0	2	0
422	920	7	10000	2	1	0	2	0
429	921	7	10000	2	1	0	2	0
441	922	7	10000	2	1	0	2	0
433	923	7	10000	2	1	0	2	0
449	924	7	10000	2	1	0	2	0
477	925	7	10000	2	1	0	2	0
470	926	7	10000	2	1	0	2	0
460	927	7	10000	2	1	0	2	0
467	928	7	10000	2	1	0	2	0
483	929	7	10000	2	1	0	2	0
474	930	7	10000	2	1	0	2	0
477	931	7	10000	2	1	0	2	0
463	932	7	10000	2	1	0	2	0
472	933	7	10000	2	1	0	2	0
484	934	7	10000	2	1	0	2	0
473	935	7	10000	2	1	0	2	0
461	936	7	10000	2	1	0	2	0
459	937	7	10000	2	1	0	2	0
447	938	7	10000	2	1	0	2	0
462	939	7	10000	2	1	0	2	0
464	940	7	10000	2	1	0	2	0
452	941	7	10000	2	1	0	2	0
442	942	7	10000	2	1	0	2	0
439	943	7	10000	2	1	0	2	0
423	944	7	10000	2	1	0	2	0
416	945	7	10000	2	1	0	2	0
411	946	7	10000	2	1	0	2	0
416	947	7	10000	2	1	0	2	0
437	948	7	10000	2	1	0	2	0
447	949	7	10000	2	1	0	2	0
461	950	7	10000	2	1	0	2	0
501	951	7	10000	2	1	0	2	0
497	952	7	10000	2	1	0	2	0
516	953	7	10000	2	1	0	2	0
514	954	7	10000	2	1	0	2	0
541	955	7	10000	2	1	0	2	0
550	956	7	10000	2	1	0	2	0
531	957	7	10000	2	1	0	2	0
526	958	7	10000	2	1	0	2	0
512	959	7	10000	2	1	0	2	0
513	960	7	10000	2	1	0	2	0
523	961	7	10000	2	1	0	2	0
507	962	7	10000	2	1	0	2	0
500	963	7	10000	2	1	0	2	0
487	964	7	10000	2	1	0	2	0
478	965	7	10000	2	1	0	2	0
471	966	7	10000	2	1	0	2	0
458	967	7	10000	2	1	0	2	0
443	968	7	10000	2	1	0	2	0
424	969	7	10000	2	1	0	2	0
410	970	7	10000	2	1	0	2	0
404	971	7	10000	2	1	0	2	0
391	972	7	10000	2	1	0	2	0
405	973	7	10000	2	1	0	2	0
440	974	7	10000	2	1	0	2	0
442	975	7	10000	2	1	0	2	0
433	976	7	10000	2	1	0	2	0
451	977	7	10000	2	1	0	2	0
496	978	7	10000	2	1	0	2	0
535	979	7	10000	2	1	0	2	0
525	980	7	10000	2	1	0	2	0
537	981	7	10000	2	1	0	2	0
542	982	7	10000	2	1	0	2	0
528	983	7	10000	2	1	0	2	0
520	984	7	10000	2	1	0	2	0
502	985	7	10000	2	1	0	2	0
484	986	7	10000	2	1	0	2	0
472	987	7	10000	2	1	0	2	0
455	988	7	10000	2	1	0	2	0
448	989	7	10000	2	1	0	2	0
436	990	7	10000	2	1	0	2	0
429	991	7	10000	2	1	0	2	0
432	992	7	10000	2	1	0	2	0
429	993	7	10000	2	1	0	2	0
439	994	7	10000	2	1	0	2	0
433	995	7	10000	2	1	0	2	0
445	996	7	10000	2	1	0	2	0
441	997	7	10000	2	1	0	2	0
468	998	7	10000	2	1	0	2	0
464	999	7	10000	2	1	0	2	0
473	1000	7	10000	2	1	0	2	0
464	1001	7	10000	2	1	0	2	0
64	2	0	10000	3	1	0	3	0
65	3	0	10000	3	1	0	3	0
69	4	0	10000	3	1	0	3	0
70	5	0	10000	3	1	0	3	0
71	6	0	10000	3	1	0	3	0
70	7	0	10000	3	1	0	3	0
72	8	0	10000	3	1	0	3	0
75	9	0	10000	3	1	0	3	0
79	10	0	10000	3	1	0	3	0
78	11	0	10000	3	1	0	3	0
83	12	0	10000	3	1	0	3	0
88	13	0	10000	3	1	0	3	0
91	14	0	10000	3	1	0	3	0
92	15	0	10000	3	1	0	3	0
91	16	0	10000	3	1	0	3	0
87	17	0	10000	3	1	0	3	0
84	18	0	10000	3	1	0	3	0
82	19	0	10000	3	1	0	3	0
80	20	0	10000	3	1	0	3	0
77	21	0	10000	3	1	0	3	0
74	22	0	10000	3	1	0	3	0
72	23	0	10000	3	1	0	3	0
69	24	0	10000	3	1	0	3	0
66	25	0	10000	3	1	0	3	0
64	26	0	10000	3	1	0	3	0
65	27	0	10000	3	1	0	3	0
66	28	0	10000	3	1	0	3	0
64	29	0	10000	3	1	0	3	0
63	30	0	10000	3	1	0	3	0
63	31	0	10000	3	1	0	3	0
66	32	0	10000	3	1	0	3	0
68	33	0	10000	3	1	0	3	0
70	34	0	10000	3	1	0	3	0
71	35	0	10000	3	1	0	3	0
72	36	0	10000	3	1	0	3	0
69	37	0	10000	3	1	0	3	0
66	38	0	10000	3	1	0	3	0
65	39	0	10000	3	1	0	3	0
66	40	0	10000	3	1	0	3	0
68	41	0	10000	3	1	0	3	0
68	42	0	10000	3	1	0	3	0
68	43	0	10000	3	1	0	3	0
68	44	0	10000	3	1	0	3	0
66	45	0	10000	3	1	0	3	0
66	46	0	10000	3	1	0	3	0
66	47	0	10000	3	1	0	3	0
64	48	0	10000	3	1	0	3	0
65	49	0	10000	3	1	0	3	0
68	50	0	10000	3	1	0	3	0
67	51	0	10000	3	1	0	3	0
66	52	0	10000	3	1	0	3	0
63	53	0	10000	3	1	0	3	0
62	54	0	10000	3	1	0	3	0
61	55	0	10000	3	1	0	3	0
59	56	0	10000	3	1	0	3	0
61	57	0	10000	3	1	0	3	0
62	58	0	10000	3	1	0	3	0
61	59	0	10000	3	1	0	3	0
60	60	0	10000	3	1	0	3	0
58	61	0	10000	3	1	0	3	0
56	62	0	10000	3	1	0	3	0
56	63	0	10000	3	1	0	3	0
55	64	0	10000	3	1	0	3	0
58	65	0	10000	3	1	0	3	0
60	66	0	10000	3	1	0	3	0
61	67	0	10000	3	1	0	3	0
61	68	0	10000	3	1	0	3	0
57	69	0	10000	3	1	0	3	0
58	70	0	10000	3	1	0	3	0
62	71	0	10000	3	1	0	3	0
65	72	0	10000	3	1	0	3	0
63	73	0	10000	3	1	0	3	0
61	74	0	10000	3	1	0	3	0
59	75	0	10000	3	1	0	3	0
57	76	0	10000	3	1	0	3	0
59	77	0	10000	3	1	0	3	0
61	78	0	10000	3	1	0	3	0
62	79	0	10000	3	1	0	3	0
68	80	0	10000	3	1	0	3	0
68	81	0	10000	3	1	0	3	0
68	82	0	10000	3	1	0	3	0
70	83	0	10000	3	1	0	3	0
71	84	0	10000	3	1	0	3	0
71	85	0	10000	3	1	0	3	0
69	86	0	10000	3	1	0	3	0
69	87	0	10000	3	1	0	3	0
70	88	0	10000	3	1	0	3	0
70	89	0	10000	3	1	0	3	0
69	90	0	10000	3	1	0	3	0
67	91	0	10000	3	1	0	3	0
67	92	0	10000	3	1	0	3	0
64	93	0	10000	3	1	0	3	0
65	94	0	10000	3	1	0	3	0
67	95	0	10000	3	1	0	3	0
69	96	0	10000	3	1	0	3	0
70	97	0	10000	3	1	0	3	0
70	98	0	10000	3	1	0	3	0
71	99	0	10000	3	1	0	3	0
73	100	0	10000	3	1	0	3	0
72	101	0	10000	3	1	0	3	0
69	102	0	10000	3	1	0	3	0
68	103	0	10000	3	1	0	3	0
69	104	0	10000	3	1	0	3	0
70	105	0	10000	3	1	0	3	0
70	106	0	10000	3	1	0	3	0
69	107	0	10000	3	1	0	3	0
72	108	0	10000	3	1	0	3	0
74	109	0	10000	3	1	0	3	0
73	110	0	10000	3	1	0	3	0
77	111	0	10000	3	1	0	3	0
82	112	0	10000	3	1	0	3	0
81	113	0	10000	3	1	0	3	0
77	114	0	10000	3	1	0	3	0
75	115	0	10000	3	1	0	3	0
73	116	0	10000	3	1	0	3	0
71	117	0	10000	3	1	0	3	0
73	118	0	10000	3	1	0	3	0
77	119	0	10000	3	1	0	3	0
79	120	0	10000	3	1	0	3	0
79	121	0	10000	3	1	0	3	0
77	122	0	10000	3	1	0	3	0
76	123	0	10000	3	1	0	3	0
73	124	0	10000	3	1	0	3	0
71	125	0	10000	3	1	0	3	0
72	126	0	10000	3	1	0	3	0
73	127	0	10000	3	1	0	3	0
77	128	0	10000	3	1	0	3	0
80	129	0	10000	3	1	0	3	0
80	130	0	10000	3	1	0	3	0
81	131	0	10000	3	1	0	3	0
84	132	0	10000	3	1	0	3	0
81	133	0	10000	3	1	0	3	0
79	134	0	10000	3	1	0	3	0
76	135	0	10000	3	1	0	3	0
78	136	0	10000	3	1	0	3	0
78	137	0	10000	3	1	0	3	0
75	138	0	10000	3	1	0	3	0
75	139	0	10000	3	1	0	3	0
74	140	0	10000	3	1	0	3	0
72	141	0	10000	3	1	0	3	0
68	142	0	10000	3	1	0	3	0
66	143	0	10000	3	1	0	3	0
64	144	0	10000	3	1	0	3	0
62	145	0	10000	3	1	0	3	0
61	146	0	10000	3	1	0	3	0
60	147	0	10000	3	1	0	3	0
59	148	0	10000	3	1	0	3	0
57	149	0	10000	3	1	0	3	0
55	150	0	10000	3	1	0	3	0
53	151	0	10000	3	1	0	3	0
56	152	0	10000	3	1	0	3	0
58	153	0	10000	3	1	0	3	0
62	154	0	10000	3	1	0	3	0
65	155	0	10000	3	1	0	3	0
64	156	0	10000	3	1	0	3	0
65	157	0	10000	3	1	0	3	0
64	158	0	10000	3	1	0	3	0
65	159	0	10000	3	1	0	3	0
69	160	0	10000	3	1	0	3	0
75	161	0	10000	3	1	0	3	0
76	162	0	10000	3	1	0	3	0
75	163	0	10000	3	1	0	3	0
73	164	0	10000	3	1	0	3	0
73	165	0	10000	3	1	0	3	0
74	166	0	10000	3	1	0	3	0
73	167	0	10000	3	1	0	3	0
76	168	0	10000	3	1	0	3	0
75	169	0	10000	3	1	0	3	0
73	170	0	10000	3	1	0	3	0
70	171	0	10000	3	1	0	3	0
69	172	0	10000	3	1	0	3	0
68	173	0	10000	3	1	0	3	0
66	174	0	10000	3	1	0	3	0
64	175	0	10000	3	1	0	3	0
64	176	0	10000	3	1	0	3	0
62	177	0	10000	3	1	0	3	0
59	178	0	10000	3	1	0	3	0
60	179	0	10000	3	1	0	3	0
59	180	0	10000	3	1	0	3	0
58	181	0	10000	3	1	0	3	0
59	182	0	10000	3	1	0	3	0
64	183	0	10000	3	1	0	3	0
70	184	0	10000	3	1	0	3	0
73	185	0	10000	3	1	0	3	0
72	186	0	10000	3	1	0	3	0
71	187	0	10000	3	1	0	3	0
68	188	0	10000	3	1	0	3	0
65	189	0	10000	3	1	0	3	0
65	190	0	10000	3	1	0	3	0
62	191	0	10000	3	1	0	3	0
62	192	0	10000	3	1	0	3	0
62	193	0	10000	3	1	0	3	0
62	194	0	10000	3	1	0	3	0
62	195	0	10000	3	1	0	3	0
61	196	0	10000	3	1	0	3	0
61	197	0	10000	3	1	0	3	0
59	198	0	10000	3	1	0	3	0
58	199	0	10000	3	1	0	3	0
56	200	0	10000	3	1	0	3	0
54	201	0	10000	3	1	0	3	0
51	202	0	10000	3	1	0	3	0
50	203	0	10000	3	1	0	3	0
50	204	0	10000	3	1	0	3	0
49	205	0	10000	3	1	0	3	0
47	206	0	10000	3	1	0	3	0
48	207	0	10000	3	1	0	3	0
48	208	0	10000	3	1	0	3	0
48	209	0	10000	3	1	0	3	0
46	210	0	10000	3	1	0	3	0
46	211	0	10000	3	1	0	3	0
46	212	0	10000	3	1	0	3	0
48	213	0	10000	3	1	0	3	0
52	214	0	10000	3	1	0	3	0
55	215	0	10000	3	1	0	3	0
55	216	0	10000	3	1	0	3	0
52	217	0	10000	3	1	0	3	0
50	218	0	10000	3	1	0	3	0
53	219	0	10000	3	1	0	3	0
56	220	0	10000	3	1	0	3	0
58	221	0	10000	3	1	0	3	0
56	222	0	10000	3	1	0	3	0
55	223	0	10000	3	1	0	3	0
55	224	0	10000	3	1	0	3	0
57	225	0	10000	3	1	0	3	0
55	226	0	10000	3	1	0	3	0
55	227	0	10000	3	1	0	3	0
53	228	0	10000	3	1	0	3	0
51	229	0	10000	3	1	0	3	0
48	230	0	10000	3	1	0	3	0
48	231	0	10000	3	1	0	3	0
49	232	0	10000	3	1	0	3	0
49	233	0	10000	3	1	0	3	0
50	234	0	10000	3	1	0	3	0
48	235	0	10000	3	1	0	3	0
49	236	0	10000	3	1	0	3	0
51	237	0	10000	3	1	0	3	0
55	238	0	10000	3	1	0	3	0
58	239	0	10000	3	1	0	3	0
58	240	0	10000	3	1	0	3	0
58	241	0	10000	3	1	0	3	0
55	242	0	10000	3	1	0	3	0
53	243	0	10000	3	1	0	3	0
52	244	0	10000	3	1	0	3	0
52	245	0	10000	3	1	0	3	0
52	246	0	10000	3	1	0	3	0
51	247	0	10000	3	1	0	3	0
52	248	0	10000	3	1	0	3	0
49	249	0	10000	3	1	0	3	0
48	250	0	10000	3	1	0	3	0
48	251	0	10000	3	1	0	3	0
50	252	0	10000	3	1	0	3	0
49	253	0	10000	3	1	0	3	0
47	254	0	10000	3	1	0	3	0
45	255	0	10000	3	1	0	3	0
45	256	0	10000	3	1	0	3	0
44	257	0	10000	3	1	0	3	0
42	258	0	10000	3	1	0	3	0
43	259	0	10000	3	1	0	3	0
43	260	0	10000	3	1	0	3	0
44	261	0	10000	3	1	0	3	0
45	262	0	10000	3	1	0	3	0
49	263	0	10000	3	1	0	3	0
51	264	0	10000	3	1	0	3	0
51	265	0	10000	3	1	0	3	0
48	266	0	10000	3	1	0	3	0
47	267	0	10000	3	1	0	3	0
45	268	0	10000	3	1	0	3	0
43	269	0	10000	3	1	0	3	0
42	270	0	10000	3	1	0	3	0
41	271	0	10000	3	1	0	3	0
44	272	0	10000	3	1	0	3	0
47	273	0	10000	3	1	0	3	0
52	274	0	10000	3	1	0	3	0
52	275	0	10000	3	1	0	3	0
51	276	0	10000	3	1	0	3	0
54	277	0	10000	3	1	0	3	0
54	278	0	10000	3	1	0	3	0
53	279	0	10000	3	1	0	3	0
52	280	0	10000	3	1	0	3	0
50	281	0	10000	3	1	0	3	0
47	282	0	10000	3	1	0	3	0
46	283	0	10000	3	1	0	3	0
46	284	0	10000	3	1	0	3	0
46	285	0	10000	3	1	0	3	0
46	286	0	10000	3	1	0	3	0
48	287	0	10000	3	1	0	3	0
50	288	0	10000	3	1	0	3	0
50	289	0	10000	3	1	0	3	0
50	290	0	10000	3	1	0	3	0
51	291	0	10000	3	1	0	3	0
54	292	0	10000	3	1	0	3	0
52	293	0	10000	3	1	0	3	0
50	294	0	10000	3	1	0	3	0
50	295	0	10000	3	1	0	3	0
51	296	0	10000	3	1	0	3	0
51	297	0	10000	3	1	0	3	0
50	298	0	10000	3	1	0	3	0
51	299	0	10000	3	1	0	3	0
52	300	0	10000	3	1	0	3	0
55	301	0	10000	3	1	0	3	0
57	302	0	10000	3	1	0	3	0
57	303	0	10000	3	1	0	3	0
56	304	0	10000	3	1	0	3	0
58	305	0	10000	3	1	0	3	0
59	306	0	10000	3	1	0	3	0
58	307	0	10000	3	1	0	3	0
56	308	0	10000	3	1	0	3	0
56	309	0	10000	3	1	0	3	0
53	310	0	10000	3	1	0	3	0
51	311	0	10000	3	1	0	3	0
54	312	0	10000	3	1	0	3	0
51	313	0	10000	3	1	0	3	0
49	314	0	10000	3	1	0	3	0
48	315	0	10000	3	1	0	3	0
45	316	0	10000	3	1	0	3	0
45	317	0	10000	3	1	0	3	0
44	318	0	10000	3	1	0	3	0
45	319	0	10000	3	1	0	3	0
45	320	0	10000	3	1	0	3	0
49	321	0	10000	3	1	0	3	0
50	322	0	10000	3	1	0	3	0
50	323	0	10000	3	1	0	3	0
48	324	0	10000	3	1	0	3	0
47	325	0	10000	3	1	0	3	0
47	326	0	10000	3	1	0	3	0
48	327	0	10000	3	1	0	3	0
48	328	0	10000	3	1	0	3	0
47	329	0	10000	3	1	0	3	0
46	330	0	10000	3	1	0	3	0
44	331	0	10000	3	1	0	3	0
45	332	0	10000	3	1	0	3	0
44	333	0	10000	3	1	0	3	0
44	334	0	10000	3	1	0	3	0
43	335	0	10000	3	1	0	3	0
43	336	0	10000	3	1	0	3	0
42	337	0	10000	3	1	0	3	0
42	338	0	10000	3	1	0	3	0
43	339	0	10000	3	1	0	3	0
44	340	0	10000	3	1	0	3	0
47	341	0	10000	3	1	0	3	0
44	342	0	10000	3	1	0	3	0
43	343	0	10000	3	1	0	3	0
44	344	0	10000	3	1	0	3	0
44	345	0	10000	3	1	0	3	0
43	346	0	10000	3	1	0	3	0
44	347	0	10000	3	1	0	3	0
47	348	0	10000	3	1	0	3	0
49	349	0	10000	3	1	0	3	0
50	350	0	10000	3	1	0	3	0
50	351	0	10000	3	1	0	3	0
51	352	0	10000	3	1	0	3	0
49	353	0	10000	3	1	0	3	0
50	354	0	10000	3	1	0	3	0
50	355	0	10000	3	1	0	3	0
49	356	0	10000	3	1	0	3	0
49	357	0	10000	3	1	0	3	0
47	358	0	10000	3	1	0	3	0
45	359	0	10000	3	1	0	3	0
44	360	0	10000	3	1	0	3	0
42	361	0	10000	3	1	0	3	0
40	362	0	10000	3	1	0	3	0
39	363	0	10000	3	1	0	3	0
39	364	0	10000	3	1	0	3	0
37	365	0	10000	3	1	0	3	0
37	366	0	10000	3	1	0	3	0
40	367	0	10000	3	1	0	3	0
42	368	0	10000	3	1	0	3	0
42	369	0	10000	3	1	0	3	0
42	370	0	10000	3	1	0	3	0
41	371	0	10000	3	1	0	3	0
43	372	0	10000	3	1	0	3	0
44	373	0	10000	3	1	0	3	0
42	374	0	10000	3	1	0	3	0
41	375	0	10000	3	1	0	3	0
41	376	0	10000	3	1	0	3	0
40	377	0	10000	3	1	0	3	0
39	378	0	10000	3	1	0	3	0
41	379	0	10000	3	1	0	3	0
44	380	0	10000	3	1	0	3	0
45	381	0	10000	3	1	0	3	0
44	382	0	10000	3	1	0	3	0
46	383	0	10000	3	1	0	3	0
47	384	0	10000	3	1	0	3	0
46	385	0	10000	3	1	0	3	0
45	386	0	10000	3	1	0	3	0
43	387	0	10000	3	1	0	3	0
42	388	0	10000	3	1	0	3	0
41	389	0	10000	3	1	0	3	0
41	390	0	10000	3	1	0	3	0
42	391	0	10000	3	1	0	3	0
43	392	0	10000	3	1	0	3	0
43	393	0	10000	3	1	0	3	0
43	394	0	10000	3	1	0	3	0
40	395	0	10000	3	1	0	3	0
40	396	0	10000	3	1	0	3	0
41	397	0	10000	3	1	0	3	0
47	398	0	10000	3	1	0	3	0
49	399	0	10000	3	1	0	3	0
49	400	0	10000	3	1	0	3	0
47	401	0	10000	3	1	0	3	0
46	402	0	10000	3	1	0	3	0
47	403	0	10000	3	1	0	3	0
48	404	0	10000	3	1	0	3	0
54	405	0	10000	3	1	0	3	0
60	406	0	10000	3	1	0	3	0
61	407	0	10000	3	1	0	3	0
60	408	0	10000	3	1	0	3	0
56	409	0	10000	3	1	0	3	0
55	410	0	10000	3	1	0	3	0
53	411	0	10000	3	1	0	3	0
53	412	0	10000	3	1	0	3	0
52	413	0	10000	3	1	0	3	0
51	414	0	10000	3	1	0	3	0
49	415	0	10000	3	1	0	3	0
47	416	0	10000	3	1	0	3	0
45	417	0	10000	3	1	0	3	0
43	418	0	10000	3	1	0	3	0
44	419	0	10000	3	1	0	3	0
44	420	0	10000	3	1	0	3	0
42	421	0	10000	3	1	0	3	0
41	422	0	10000	3	1	0	3	0
42	423	0	10000	3	1	0	3	0
43	424	0	10000	3	1	0	3	0
42	425	0	10000	3	1	0	3	0
40	426	0	10000	3	1	0	3	0
39	427	0	10000	3	1	0	3	0
39	428	0	10000	3	1	0	3	0
38	429	0	10000	3	1	0	3	0
38	430	0	10000	3	1	0	3	0
37	431	0	10000	3	1	0	3	0
39	432	0	10000	3	1	0	3	0
40	433	0	10000	3	1	0	3	0
39	434	0	10000	3	1	0	3	0
40	435	0	10000	3	1	0	3	0
41	436	0	10000	3	1	0	3	0
40	437	0	10000	3	1	0	3	0
38	438	0	10000	3	1	0	3	0
37	439	0	10000	3	1	0	3	0
37	440	0	10000	3	1	0	3	0
39	441	0	10000	3	1	0	3	0
37	442	0	10000	3	1	0	3	0
37	443	0	10000	3	1	0	3	0
38	444	0	10000	3	1	0	3	0
41	445	0	10000	3	1	0	3	0
42	446	0	10000	3	1	0	3	0
44	447	0	10000	3	1	0	3	0
46	448	0	10000	3	1	0	3	0
44	449	0	10000	3	1	0	3	0
44	450	0	10000	3	1	0	3	0
44	451	0	10000	3	1	0	3	0
46	452	0	10000	3	1	0	3	0
46	453	0	10000	3	1	0	3	0
44	454	0	10000	3	1	0	3	0
43	455	0	10000	3	1	0	3	0
46	456	0	10000	3	1	0	3	0
50	457	0	10000	3	1	0	3	0
52	458	0	10000	3	1	0	3	0
53	459	0	10000	3	1	0	3	0
53	460	0	10000	3	1	0	3	0
52	461	0	10000	3	1	0	3	0
49	462	0	10000	3	1	0	3	0
49	463	0	10000	3	1	0	3	0
47	464	0	10000	3	1	0	3	0
46	465	0	10000	3	1	0	3	0
45	466	0	10000	3	1	0	3	0
45	467	0	10000	3	1	0	3	0
44	468	0	10000	3	1	0	3	0
42	469	0	10000	3	1	0	3	0
41	470	0	10000	3	1	0	3	0
39	471	0	10000	3	1	0	3	0
42	472	0	10000	3	1	0	3	0
44	473	0	10000	3	1	0	3	0
43	474	0	10000	3	1	0	3	0
44	475	0	10000	3	1	0	3	0
45	476	0	10000	3	1	0	3	0
44	477	0	10000	3	1	0	3	0
43	478	0	10000	3	1	0	3	0
43	479	0	10000	3	1	0	3	0
41	480	0	10000	3	1	0	3	0
42	481	0	10000	3	1	0	3	0
40	482	0	10000	3	1	0	3	0
40	483	0	10000	3	1	0	3	0
39	484	0	10000	3	1	0	3	0
37	485	0	10000	3	1	0	3	0
37	486	0	10000	3	1	0	3	0
36	487	0	10000	3	1	0	3	0
35	488	0	10000	3	1	0	3	0
34	489	0	10000	3	1	0	3	0
33	490	0	10000	3	1	0	3	0
32	491	0	10000	3	1	0	3	0
34	492	0	10000	3	1	0	3	0
34	493	0	10000	3	1	0	3	0
37	494	0	10000	3	1	0	3	0
38	495	0	10000	3	1	0	3	0
37	496	0	10000	3	1	0	3	0
39	497	0	10000	3	1	0	3	0
46	498	0	10000	3	1	0	3	0
56	499	0	10000	3	1	0	3	0
61	500	0	10000	3	1	0	3	0
61	501	0	10000	3	1	0	3	0
63	501	0	10000	3	1	0	3	1
73	502	0	10000	3	1	0	3	1
83	504	0	10000	3	1	0	3	1
86	505	0	10000	3	1	0	3	1
83	506	0	10000	3	1	0	3	1
79	507	0	10000	3	1	0	3	1
77	508	0	10000	3	1	0	3	1
75	509	0	10000	3	1	0	3	1
75	510	0	10000	3	1	0	3	1
71	511	0	10000	3	1	0	3	1
70	512	0	10000	3	1	0	3	1
68	513	0	10000	3	1	0	3	1
65	514	0	10000	3	1	0	3	1
64	515	0	10000	3	1	0	3	1
65	516	0	10000	3	1	0	3	1
65	517	0	10000	3	1	0	3	1
68	518	0	10000	3	1	0	3	1
73	519	0	10000	3	1	0	3	1
74	520	0	10000	3	1	0	3	1
73	521	0	10000	3	1	0	3	1
73	522	0	10000	3	1	0	3	1
74	523	0	10000	3	1	0	3	1
76	524	0	10000	3	1	0	3	1
76	525	0	10000	3	1	0	3	1
74	526	0	10000	3	1	0	3	1
71	527	0	10000	3	1	0	3	1
69	528	0	10000	3	1	0	3	1
65	529	0	10000	3	1	0	3	1
62	530	0	10000	3	1	0	3	1
60	531	0	10000	3	1	0	3	1
61	532	0	10000	3	1	0	3	1
59	533	0	10000	3	1	0	3	1
57	534	0	10000	3	1	0	3	1
54	535	0	10000	3	1	0	3	1
53	536	0	10000	3	1	0	3	1
51	537	0	10000	3	1	0	3	1
50	538	0	10000	3	1	0	3	1
51	539	0	10000	3	1	0	3	1
51	540	0	10000	3	1	0	3	1
51	541	0	10000	3	1	0	3	1
49	542	0	10000	3	1	0	3	1
49	543	0	10000	3	1	0	3	1
49	544	0	10000	3	1	0	3	1
49	545	0	10000	3	1	0	3	1
48	546	0	10000	3	1	0	3	1
49	547	0	10000	3	1	0	3	1
49	548	0	10000	3	1	0	3	1
52	549	0	10000	3	1	0	3	1
54	550	0	10000	3	1	0	3	1
52	551	0	10000	3	1	0	3	1
56	552	0	10000	3	1	0	3	0
57	553	0	10000	3	1	0	3	0
57	554	0	10000	3	1	0	3	0
58	555	0	10000	3	1	0	3	0
57	556	0	10000	3	1	0	3	0
55	557	0	10000	3	1	0	3	0
53	558	0	10000	3	1	0	3	0
54	559	0	10000	3	1	0	3	0
54	560	0	10000	3	1	0	3	0
53	561	0	10000	3	1	0	3	0
53	562	0	10000	3	1	0	3	0
54	563	0	10000	3	1	0	3	0
55	564	0	10000	3	1	0	3	0
56	565	0	10000	3	1	0	3	0
59	566	0	10000	3	1	0	3	0
63	567	0	10000	3	1	0	3	0
65	568	0	10000	3	1	0	3	0
63	569	0	10000	3	1	0	3	0
60	570	0	10000	3	1	0	3	0
58	571	0	10000	3	1	0	3	0
59	572	0	10000	3	1	0	3	0
61	573	0	10000	3	1	0	3	0
66	574	0	10000	3	1	0	3	0
70	575	0	10000	3	1	0	3	0
70	576	0	10000	3	1	0	3	0
67	577	0	10000	3	1	0	3	0
64	578	0	10000	3	1	0	3	0
65	579	0	10000	3	1	0	3	0
65	580	0	10000	3	1	0	3	0
63	581	0	10000	3	1	0	3	0
60	582	0	10000	3	1	0	3	0
65	583	0	10000	3	1	0	3	0
75	584	0	10000	3	1	0	3	0
94	585	0	10000	3	1	0	3	0
106	586	0	10000	3	1	0	3	0
116	587	0	10000	3	1	0	3	0
132	588	0	10000	3	1	0	3	0
133	589	0	10000	3	1	0	3	0
133	590	0	10000	3	1	0	3	0
132	591	0	10000	3	1	0	3	0
142	592	0	10000	3	1	0	3	0
139	593	0	10000	3	1	0	3	0
141	594	0	10000	3	1	0	3	0
169	595	0	10000	3	1	0	3	0
202	596	0	10000	3	1	0	3	0
219	597	0	10000	3	1	0	3	0
223	598	0	10000	3	1	0	3	0
262	599	0	10000	3	1	0	3	0
299	600	0	10000	3	1	0	3	0
320	601	0	10000	3	1	0	3	0
314	602	0	10000	3	1	0	3	0
314	603	0	10000	3	1	0	3	0
333	604	0	10000	3	1	0	3	0
328	605	0	10000	3	1	0	3	0
323	606	0	10000	3	1	0	3	0
321	607	0	10000	3	1	0	3	0
320	608	0	10000	3	1	0	3	0
317	609	0	10000	3	1	0	3	0
316	610	0	10000	3	1	0	3	0
332	611	0	10000	3	1	0	3	0
355	612	0	10000	3	1	0	3	0
355	613	0	10000	3	1	0	3	0
359	614	0	10000	3	1	0	3	0
380	615	0	10000	3	1	0	3	0
380	616	0	10000	3	1	0	3	0
404	617	0	10000	3	1	0	3	0
424	618	0	10000	3	1	0	3	0
428	619	0	10000	3	1	0	3	0
418	620	0	10000	3	1	0	3	0
404	621	0	10000	3	1	0	3	0
385	622	0	10000	3	1	0	3	0
369	623	0	10000	3	1	0	3	0
353	624	0	10000	3	1	0	3	0
337	625	0	10000	3	1	0	3	0
323	626	0	10000	3	1	0	3	0
308	627	0	10000	3	1	0	3	0
297	628	0	10000	3	1	0	3	0
288	629	0	10000	3	1	0	3	0
276	630	0	10000	3	1	0	3	0
265	631	0	10000	3	1	0	3	0
256	632	0	10000	3	1	0	3	0
249	633	0	10000	3	1	0	3	0
243	634	0	10000	3	1	0	3	0
235	635	0	10000	3	1	0	3	0
226	636	0	10000	3	1	0	3	0
222	637	0	10000	3	1	0	3	0
218	638	0	10000	3	1	0	3	0
217	639	0	10000	3	1	0	3	0
212	640	0	10000	3	1	0	3	0
204	641	0	10000	3	1	0	3	0
193	642	0	10000	3	1	0	3	0
186	643	0	10000	3	1	0	3	0
178	644	0	10000	3	1	0	3	0
175	645	0	10000	3	1	0	3	0
168	646	0	10000	3	1	0	3	0
162	647	0	10000	3	1	0	3	0
160	648	0	10000	3	1	0	3	0
160	649	0	10000	3	1	0	3	0
165	650	0	10000	3	1	0	3	0
169	651	0	10000	3	1	0	3	0
173	652	0	10000	3	1	0	3	0
170	653	0	10000	3	1	0	3	0
165	654	0	10000	3	1	0	3	0
163	655	0	10000	3	1	0	3	0
162	656	0	10000	3	1	0	3	0
165	657	0	10000	3	1	0	3	0
172	658	0	10000	3	1	0	3	0
176	659	0	10000	3	1	0	3	0
176	660	0	10000	3	1	0	3	0
172	661	0	10000	3	1	0	3	0
164	662	0	10000	3	1	0	3	0
158	663	0	10000	3	1	0	3	0
154	664	0	10000	3	1	0	3	0
152	665	0	10000	3	1	0	3	0
149	666	0	10000	3	1	0	3	0
144	667	0	10000	3	1	0	3	0
142	668	0	10000	3	1	0	3	0
140	669	0	10000	3	1	0	3	0
135	670	0	10000	3	1	0	3	0
134	671	0	10000	3	1	0	3	0
133	672	0	10000	3	1	0	3	0
127	673	0	10000	3	1	0	3	0
122	674	0	10000	3	1	0	3	0
118	675	0	10000	3	1	0	3	0
113	676	0	10000	3	1	0	3	0
110	677	0	10000	3	1	0	3	0
106	678	0	10000	3	1	0	3	0
104	679	0	10000	3	1	0	3	0
101	680	0	10000	3	1	0	3	0
98	681	0	10000	3	1	0	3	0
93	682	0	10000	3	1	0	3	0
91	683	0	10000	3	1	0	3	0
89	684	0	10000	3	1	0	3	0
92	685	0	10000	3	1	0	3	0
99	686	0	10000	3	1	0	3	0
106	687	0	10000	3	1	0	3	0
107	688	0	10000	3	1	0	3	0
103	689	0	10000	3	1	0	3	0
99	690	0	10000	3	1	0	3	0
96	691	0	10000	3	1	0	3	0
94	692	0	10000	3	1	0	3	0
96	693	0	10000	3	1	0	3	0
99	694	0	10000	3	1	0	3	0
101	695	0	10000	3	1	0	3	0
102	696	0	10000	3	1	0	3	0
102	697	0	10000	3	1	0	3	0
101	698	0	10000	3	1	0	3	0
101	699	0	10000	3	1	0	3	0
99	700	0	10000	3	1	0	3	0
98	701	0	10000	3	1	0	3	0
93	702	0	10000	3	1	0	3	0
91	703	0	10000	3	1	0	3	0
92	704	0	10000	3	1	0	3	0
93	705	0	10000	3	1	0	3	0
94	706	0	10000	3	1	0	3	0
96	707	0	10000	3	1	0	3	0
98	708	0	10000	3	1	0	3	0
96	709	0	10000	3	1	0	3	0
94	710	0	10000	3	1	0	3	0
95	711	0	10000	3	1	0	3	0
100	712	0	10000	3	1	0	3	0
101	713	0	10000	3	1	0	3	0
99	714	0	10000	3	1	0	3	0
96	715	0	10000	3	1	0	3	0
92	716	0	10000	3	1	0	3	0
89	717	0	10000	3	1	0	3	0
86	718	0	10000	3	1	0	3	0
86	719	0	10000	3	1	0	3	0
84	720	0	10000	3	1	0	3	0
84	721	0	10000	3	1	0	3	0
87	722	0	10000	3	1	0	3	0
91	723	0	10000	3	1	0	3	0
93	724	0	10000	3	1	0	3	0
96	725	0	10000	3	1	0	3	0
96	726	0	10000	3	1	0	3	0
96	727	0	10000	3	1	0	3	0
97	728	0	10000	3	1	0	3	0
97	729	0	10000	3	1	0	3	0
94	730	0	10000	3	1	0	3	0
91	731	0	10000	3	1	0	3	0
90	732	0	10000	3	1	0	3	0
87	733	0	10000	3	1	0	3	0
84	734	0	10000	3	1	0	3	0
85	735	0	10000	3	1	0	3	0
85	736	0	10000	3	1	0	3	0
84	737	0	10000	3	1	0	3	0
80	738	0	10000	3	1	0	3	0
79	739	0	10000	3	1	0	3	0
76	740	0	10000	3	1	0	3	0
76	741	0	10000	3	1	0	3	0
72	742	0	10000	3	1	0	3	0
72	743	0	10000	3	1	0	3	0
69	744	0	10000	3	1	0	3	0
67	745	0	10000	3	1	0	3	0
66	746	0	10000	3	1	0	3	0
66	747	0	10000	3	1	0	3	0
65	748	0	10000	3	1	0	3	0
62	749	0	10000	3	1	0	3	0
61	750	0	10000	3	1	0	3	0
59	751	0	10000	3	1	0	3	0
60	752	0	10000	3	1	0	3	0
59	753	0	10000	3	1	0	3	0
59	754	0	10000	3	1	0	3	0
64	755	0	10000	3	1	0	3	0
68	756	0	10000	3	1	0	3	0
68	757	0	10000	3	1	0	3	0
68	758	0	10000	3	1	0	3	0
68	759	0	10000	3	1	0	3	0
66	760	0	10000	3	1	0	3	0
66	761	0	10000	3	1	0	3	0
64	762	0	10000	3	1	0	3	0
64	763	0	10000	3	1	0	3	0
67	764	0	10000	3	1	0	3	0
67	765	0	10000	3	1	0	3	0
64	766	0	10000	3	1	0	3	0
62	767	0	10000	3	1	0	3	0
62	768	0	10000	3	1	0	3	0
61	769	0	10000	3	1	0	3	0
59	770	0	10000	3	1	0	3	0
57	771	0	10000	3	1	0	3	0
57	772	0	10000	3	1	0	3	0
56	773	0	10000	3	1	0	3	0
55	774	0	10000	3	1	0	3	0
59	775	0	10000	3	1	0	3	0
65	776	0	10000	3	1	0	3	0
65	777	0	10000	3	1	0	3	0
63	778	0	10000	3	1	0	3	0
64	779	0	10000	3	1	0	3	0
63	780	0	10000	3	1	0	3	0
66	781	0	10000	3	1	0	3	0
66	782	0	10000	3	1	0	3	0
68	783	0	10000	3	1	0	3	0
67	784	0	10000	3	1	0	3	0
65	785	0	10000	3	1	0	3	0
67	786	0	10000	3	1	0	3	0
73	787	0	10000	3	1	0	3	0
77	788	0	10000	3	1	0	3	0
75	789	0	10000	3	1	0	3	0
72	790	0	10000	3	1	0	3	0
69	791	0	10000	3	1	0	3	0
68	792	0	10000	3	1	0	3	0
70	793	0	10000	3	1	0	3	0
69	794	0	10000	3	1	0	3	0
68	795	0	10000	3	1	0	3	0
68	796	0	10000	3	1	0	3	0
67	797	0	10000	3	1	0	3	0
65	798	0	10000	3	1	0	3	0
66	799	0	10000	3	1	0	3	0
68	800	0	10000	3	1	0	3	0
67	801	0	10000	3	1	0	3	0
63	802	0	10000	3	1	0	3	0
61	803	0	10000	3	1	0	3	0
63	804	0	10000	3	1	0	3	0
62	805	0	10000	3	1	0	3	0
62	806	0	10000	3	1	0	3	0
61	807	0	10000	3	1	0	3	0
61	808	0	10000	3	1	0	3	0
61	809	0	10000	3	1	0	3	0
65	810	0	10000	3	1	0	3	0
68	811	0	10000	3	1	0	3	0
74	812	0	10000	3	1	0	3	0
75	813	0	10000	3	1	0	3	0
75	814	0	10000	3	1	0	3	0
73	815	0	10000	3	1	0	3	0
73	816	0	10000	3	1	0	3	0
77	817	0	10000	3	1	0	3	0
76	818	0	10000	3	1	0	3	0
73	819	0	10000	3	1	0	3	0
71	820	0	10000	3	1	0	3	0
68	821	0	10000	3	1	0	3	0
64	822	0	10000	3	1	0	3	0
66	823	0	10000	3	1	0	3	0
64	824	0	10000	3	1	0	3	0
62	825	0	10000	3	1	0	3	0
64	826	0	10000	3	1	0	3	0
68	827	0	10000	3	1	0	3	0
75	828	0	10000	3	1	0	3	0
74	829	0	10000	3	1	0	3	0
71	830	0	10000	3	1	0	3	0
73	831	0	10000	3	1	0	3	0
76	832	0	10000	3	1	0	3	0
77	833	0	10000	3	1	0	3	0
77	834	0	10000	3	1	0	3	0
74	835	0	10000	3	1	0	3	0
72	836	0	10000	3	1	0	3	0
70	837	0	10000	3	1	0	3	0
67	838	0	10000	3	1	0	3	0
67	839	0	10000	3	1	0	3	0
64	840	0	10000	3	1	0	3	0
62	841	0	10000	3	1	0	3	0
64	842	0	10000	3	1	0	3	0
73	843	0	10000	3	1	0	3	0
79	844	0	10000	3	1	0	3	0
79	845	0	10000	3	1	0	3	0
83	846	0	10000	3	1	0	3	0
87	847	0	10000	3	1	0	3	0
85	848	0	10000	3	1	0	3	0
82	849	0	10000	3	1	0	3	0
79	850	0	10000	3	1	0	3	0
75	851	0	10000	3	1	0	3	0
76	852	0	10000	3	1	0	3	0
72	853	0	10000	3	1	0	3	0
74	854	0	10000	3	1	0	3	0
75	855	0	10000	3	1	0	3	0
77	856	0	10000	3	1	0	3	0
76	857	0	10000	3	1	0	3	0
76	858	0	10000	3	1	0	3	0
75	859	0	10000	3	1	0	3	0
72	860	0	10000	3	1	0	3	0
70	861	0	10000	3	1	0	3	0
68	862	0	10000	3	1	0	3	0
70	863	0	10000	3	1	0	3	0
70	864	0	10000	3	1	0	3	0
67	865	0	10000	3	1	0	3	0
65	866	0	10000	3	1	0	3	0
63	867	0	10000	3	1	0	3	0
63	868	0	10000	3	1	0	3	0
69	869	0	10000	3	1	0	3	0
77	870	0	10000	3	1	0	3	0
76	871	0	10000	3	1	0	3	0
79	872	0	10000	3	1	0	3	0
83	873	0	10000	3	1	0	3	0
82	874	0	10000	3	1	0	3	0
79	875	0	10000	3	1	0	3	0
77	876	0	10000	3	1	0	3	0
75	877	0	10000	3	1	0	3	0
74	878	0	10000	3	1	0	3	0
73	879	0	10000	3	1	0	3	0
71	880	0	10000	3	1	0	3	0
73	881	0	10000	3	1	0	3	0
77	882	0	10000	3	1	0	3	0
80	883	0	10000	3	1	0	3	0
84	884	0	10000	3	1	0	3	0
94	885	0	10000	3	1	0	3	0
100	886	0	10000	3	1	0	3	0
99	887	0	10000	3	1	0	3	0
99	888	0	10000	3	1	0	3	0
104	889	0	10000	3	1	0	3	0
111	890	0	10000	3	1	0	3	0
116	891	0	10000	3	1	0	3	0
116	892	0	10000	3	1	0	3	0
112	893	0	10000	3	1	0	3	0
109	894	0	10000	3	1	0	3	0
108	895	0	10000	3	1	0	3	0
108	896	0	10000	3	1	0	3	0
107	897	0	10000	3	1	0	3	0
105	898	0	10000	3	1	0	3	0
104	899	0	10000	3	1	0	3	0
104	900	0	10000	3	1	0	3	0
100	901	0	10000	3	1	0	3	0
94	902	0	10000	3	1	0	3	0
97	903	0	10000	3	1	0	3	0
103	904	0	10000	3	1	0	3	0
103	905	0	10000	3	1	0	3	0
101	906	0	10000	3	1	0	3	0
104	907	0	10000	3	1	0	3	0
106	908	0	10000	3	1	0	3	0
103	909	0	10000	3	1	0	3	0
102	910	0	10000	3	1	0	3	0
102	911	0	10000	3	1	0	3	0
100	912	0	10000	3	1	0	3	0
97	913	0	10000	3	1	0	3	0
92	914	0	10000	3	1	0	3	0
88	915	0	10000	3	1	0	3	0
85	916	0	10000	3	1	0	3	0
81	917	0	10000	3	1	0	3	0
80	918	0	10000	3	1	0	3	0
81	919	0	10000	3	1	0	3	0
79	920	0	10000	3	1	0	3	0
77	921	0	10000	3	1	0	3	0
75	922	0	10000	3	1	0	3	0
75	923	0	10000	3	1	0	3	0
76	924	0	10000	3	1	0	3	0
73	925	0	10000	3	1	0	3	0
71	926	0	10000	3	1	0	3	0
70	927	0	10000	3	1	0	3	0
73	928	0	10000	3	1	0	3	0
72	929	0	10000	3	1	0	3	0
71	930	0	10000	3	1	0	3	0
74	931	0	10000	3	1	0	3	0
73	932	0	10000	3	1	0	3	0
75	933	0	10000	3	1	0	3	0
79	934	0	10000	3	1	0	3	0
82	935	0	10000	3	1	0	3	0
83	936	0	10000	3	1	0	3	0
84	937	0	10000	3	1	0	3	0
81	938	0	10000	3	1	0	3	0
79	939	0	10000	3	1	0	3	0
76	940	0	10000	3	1	0	3	0
73	941	0	10000	3	1	0	3	0
70	942	0	10000	3	1	0	3	0
70	943	0	10000	3	1	0	3	0
71	944	0	10000	3	1	0	3	0
71	945	0	10000	3	1	0	3	0
71	946	0	10000	3	1	0	3	0
72	947	0	10000	3	1	0	3	0
75	948	0	10000	3	1	0	3	0
77	949	0	10000	3	1	0	3	0
79	950	0	10000	3	1	0	3	0
81	951	0	10000	3	1	0	3	0
85	952	0	10000	3	1	0	3	0
82	953	0	10000	3	1	0	3	0
79	954	0	10000	3	1	0	3	0
78	955	0	10000	3	1	0	3	0
81	956	0	10000	3	1	0	3	0
86	957	0	10000	3	1	0	3	0
87	958	0	10000	3	1	0	3	0
85	959	0	10000	3	1	0	3	0
83	960	0	10000	3	1	0	3	0
81	961	0	10000	3	1	0	3	0
78	962	0	10000	3	1	0	3	0
77	963	0	10000	3	1	0	3	0
79	964	0	10000	3	1	0	3	0
82	965	0	10000	3	1	0	3	0
84	966	0	10000	3	1	0	3	0
83	967	0	10000	3	1	0	3	0
81	968	0	10000	3	1	0	3	0
80	969	0	10000	3	1	0	3	0
77	970	0	10000	3	1	0	3	0
75	971	0	10000	3	1	0	3	0
73	972	0	10000	3	1	0	3	0
69	973	0	10000	3	1	0	3	0
70	974	0	10000	3	1	0	3	0
72	975	0	10000	3	1	0	3	0
76	976	0	10000	3	1	0	3	0
79	977	0	10000	3	1	0	3	0
75	978	0	10000	3	1	0	3	0
73	979	0	10000	3	1	0	3	0
74	980	0	10000	3	1	0	3	0
77	981	0	10000	3	1	0	3	0
73	982	0	10000	3	1	0	3	0
70	983	0	10000	3	1	0	3	0
68	984	0	10000	3	1	0	3	0
66	985	0	10000	3	1	0	3	0
64	986	0	10000	3	1	0	3	0
61	987	0	10000	3	1	0	3	0
61	988	0	10000	3	1	0	3	0
60	989	0	10000	3	1	0	3	0
60	990	0	10000	3	1	0	3	0
64	991	0	10000	3	1	0	3	0
67	992	0	10000	3	1	0	3	0
64	993	0	10000	3	1	0	3	0
64	994	0	10000	3	1	0	3	0
63	995	0	10000	3	1	0	3	0
60	996	0	10000	3	1	0	3	0
60	997	0	10000	3	1	0	3	0
57	998	0	10000	3	1	0	3	0
59	999	0	10000	3	1	0	3	0
58	1000	0	10000	3	1	0	3	0
58	1001	0	10000	3	1	0	3	0
54	2	0	10000	4	1	0	4	0
52	3	0	10000	4	1	0	4	0
51	4	0	10000	4	1	0	4	0
50	5	0	10000	4	1	0	4	0
49	6	0	10000	4	1	0	4	0
49	7	0	10000	4	1	0	4	0
50	8	0	10000	4	1	0	4	0
49	9	0	10000	4	1	0	4	0
47	10	0	10000	4	1	0	4	0
45	11	0	10000	4	1	0	4	0
44	12	0	10000	4	1	0	4	0
48	13	0	10000	4	1	0	4	0
50	14	0	10000	4	1	0	4	0
50	15	0	10000	4	1	0	4	0
48	16	0	10000	4	1	0	4	0
47	17	0	10000	4	1	0	4	0
47	18	0	10000	4	1	0	4	0
52	19	0	10000	4	1	0	4	0
59	20	0	10000	4	1	0	4	0
62	21	0	10000	4	1	0	4	0
61	22	0	10000	4	1	0	4	0
57	23	0	10000	4	1	0	4	0
55	24	0	10000	4	1	0	4	0
52	25	0	10000	4	1	0	4	0
52	26	0	10000	4	1	0	4	0
52	27	0	10000	4	1	0	4	0
52	28	0	10000	4	1	0	4	0
52	29	0	10000	4	1	0	4	0
50	30	0	10000	4	1	0	4	0
50	31	0	10000	4	1	0	4	0
51	32	0	10000	4	1	0	4	0
53	33	0	10000	4	1	0	4	0
53	34	0	10000	4	1	0	4	0
53	35	0	10000	4	1	0	4	0
53	36	0	10000	4	1	0	4	0
51	37	0	10000	4	1	0	4	0
51	38	0	10000	4	1	0	4	0
51	39	0	10000	4	1	0	4	0
51	40	0	10000	4	1	0	4	0
51	41	0	10000	4	1	0	4	0
52	42	0	10000	4	1	0	4	0
50	43	0	10000	4	1	0	4	0
48	44	0	10000	4	1	0	4	0
46	45	0	10000	4	1	0	4	0
45	46	0	10000	4	1	0	4	0
44	47	0	10000	4	1	0	4	0
44	48	0	10000	4	1	0	4	0
43	49	0	10000	4	1	0	4	0
42	50	0	10000	4	1	0	4	0
40	51	0	10000	4	1	0	4	0
40	52	0	10000	4	1	0	4	0
42	53	0	10000	4	1	0	4	0
41	54	0	10000	4	1	0	4	0
39	55	0	10000	4	1	0	4	0
38	56	0	10000	4	1	0	4	0
41	57	0	10000	4	1	0	4	0
43	58	0	10000	4	1	0	4	0
41	59	0	10000	4	1	0	4	0
41	60	0	10000	4	1	0	4	0
41	61	0	10000	4	1	0	4	0
38	62	0	10000	4	1	0	4	0
36	63	0	10000	4	1	0	4	0
38	64	0	10000	4	1	0	4	0
41	65	0	10000	4	1	0	4	0
43	66	0	10000	4	1	0	4	0
42	67	0	10000	4	1	0	4	0
42	68	0	10000	4	1	0	4	0
41	69	0	10000	4	1	0	4	0
40	70	0	10000	4	1	0	4	0
39	71	0	10000	4	1	0	4	0
37	72	0	10000	4	1	0	4	0
37	73	0	10000	4	1	0	4	0
37	74	0	10000	4	1	0	4	0
36	75	0	10000	4	1	0	4	0
36	76	0	10000	4	1	0	4	0
37	77	0	10000	4	1	0	4	0
40	78	0	10000	4	1	0	4	0
41	79	0	10000	4	1	0	4	0
40	80	0	10000	4	1	0	4	0
39	81	0	10000	4	1	0	4	0
38	82	0	10000	4	1	0	4	0
35	83	0	10000	4	1	0	4	0
36	84	0	10000	4	1	0	4	0
36	85	0	10000	4	1	0	4	0
36	86	0	10000	4	1	0	4	0
36	87	0	10000	4	1	0	4	0
34	88	0	10000	4	1	0	4	0
33	89	0	10000	4	1	0	4	0
35	90	0	10000	4	1	0	4	0
39	91	0	10000	4	1	0	4	0
41	92	0	10000	4	1	0	4	0
43	93	0	10000	4	1	0	4	0
47	94	0	10000	4	1	0	4	0
53	95	0	10000	4	1	0	4	0
55	96	0	10000	4	1	0	4	0
53	97	0	10000	4	1	0	4	0
53	98	0	10000	4	1	0	4	0
53	99	0	10000	4	1	0	4	0
54	100	0	10000	4	1	0	4	0
51	101	0	10000	4	1	0	4	0
52	102	0	10000	4	1	0	4	0
49	103	0	10000	4	1	0	4	0
47	104	0	10000	4	1	0	4	0
47	105	0	10000	4	1	0	4	0
46	106	0	10000	4	1	0	4	0
45	107	0	10000	4	1	0	4	0
44	108	0	10000	4	1	0	4	0
45	109	0	10000	4	1	0	4	0
44	110	0	10000	4	1	0	4	0
43	111	0	10000	4	1	0	4	0
43	112	0	10000	4	1	0	4	0
46	113	0	10000	4	1	0	4	0
46	114	0	10000	4	1	0	4	0
46	115	0	10000	4	1	0	4	0
47	116	0	10000	4	1	0	4	0
46	117	0	10000	4	1	0	4	0
45	118	0	10000	4	1	0	4	0
43	119	0	10000	4	1	0	4	0
41	120	0	10000	4	1	0	4	0
41	121	0	10000	4	1	0	4	0
40	122	0	10000	4	1	0	4	0
37	123	0	10000	4	1	0	4	0
37	124	0	10000	4	1	0	4	0
35	125	0	10000	4	1	0	4	0
35	126	0	10000	4	1	0	4	0
36	127	0	10000	4	1	0	4	0
38	128	0	10000	4	1	0	4	0
40	129	0	10000	4	1	0	4	0
38	130	0	10000	4	1	0	4	0
37	131	0	10000	4	1	0	4	0
35	132	0	10000	4	1	0	4	0
36	133	0	10000	4	1	0	4	0
35	134	0	10000	4	1	0	4	0
34	135	0	10000	4	1	0	4	0
34	136	0	10000	4	1	0	4	0
35	137	0	10000	4	1	0	4	0
37	138	0	10000	4	1	0	4	0
36	139	0	10000	4	1	0	4	0
36	140	0	10000	4	1	0	4	0
37	141	0	10000	4	1	0	4	0
37	142	0	10000	4	1	0	4	0
34	143	0	10000	4	1	0	4	0
34	144	0	10000	4	1	0	4	0
35	145	0	10000	4	1	0	4	0
36	146	0	10000	4	1	0	4	0
39	147	0	10000	4	1	0	4	0
40	148	0	10000	4	1	0	4	0
40	149	0	10000	4	1	0	4	0
39	150	0	10000	4	1	0	4	0
39	151	0	10000	4	1	0	4	0
36	152	0	10000	4	1	0	4	0
37	153	0	10000	4	1	0	4	0
38	154	0	10000	4	1	0	4	0
39	155	0	10000	4	1	0	4	0
44	156	0	10000	4	1	0	4	0
48	157	0	10000	4	1	0	4	0
49	158	0	10000	4	1	0	4	0
50	159	0	10000	4	1	0	4	0
53	160	0	10000	4	1	0	4	0
53	161	0	10000	4	1	0	4	0
56	162	0	10000	4	1	0	4	0
60	163	0	10000	4	1	0	4	0
65	164	0	10000	4	1	0	4	0
67	165	0	10000	4	1	0	4	0
66	166	0	10000	4	1	0	4	0
63	167	0	10000	4	1	0	4	0
62	168	0	10000	4	1	0	4	0
60	169	0	10000	4	1	0	4	0
56	170	0	10000	4	1	0	4	0
55	171	0	10000	4	1	0	4	0
53	172	0	10000	4	1	0	4	0
53	173	0	10000	4	1	0	4	0
50	174	0	10000	4	1	0	4	0
49	175	0	10000	4	1	0	4	0
49	176	0	10000	4	1	0	4	0
49	177	0	10000	4	1	0	4	0
47	178	0	10000	4	1	0	4	0
48	179	0	10000	4	1	0	4	0
51	180	0	10000	4	1	0	4	0
53	181	0	10000	4	1	0	4	0
53	182	0	10000	4	1	0	4	0
49	183	0	10000	4	1	0	4	0
49	184	0	10000	4	1	0	4	0
49	185	0	10000	4	1	0	4	0
47	186	0	10000	4	1	0	4	0
45	187	0	10000	4	1	0	4	0
44	188	0	10000	4	1	0	4	0
44	189	0	10000	4	1	0	4	0
43	190	0	10000	4	1	0	4	0
41	191	0	10000	4	1	0	4	0
40	192	0	10000	4	1	0	4	0
40	193	0	10000	4	1	0	4	0
40	194	0	10000	4	1	0	4	0
38	195	0	10000	4	1	0	4	0
38	196	0	10000	4	1	0	4	0
39	197	0	10000	4	1	0	4	0
39	198	0	10000	4	1	0	4	0
38	199	0	10000	4	1	0	4	0
38	200	0	10000	4	1	0	4	0
37	201	0	10000	4	1	0	4	0
36	202	0	10000	4	1	0	4	0
34	203	0	10000	4	1	0	4	0
33	204	0	10000	4	1	0	4	0
32	205	0	10000	4	1	0	4	0
33	206	0	10000	4	1	0	4	0
35	207	0	10000	4	1	0	4	0
37	208	0	10000	4	1	0	4	0
38	209	0	10000	4	1	0	4	0
36	210	0	10000	4	1	0	4	0
37	211	0	10000	4	1	0	4	0
39	212	0	10000	4	1	0	4	0
42	213	0	10000	4	1	0	4	0
42	214	0	10000	4	1	0	4	0
42	215	0	10000	4	1	0	4	0
40	216	0	10000	4	1	0	4	0
40	217	0	10000	4	1	0	4	0
40	218	0	10000	4	1	0	4	0
39	219	0	10000	4	1	0	4	0
38	220	0	10000	4	1	0	4	0
40	221	0	10000	4	1	0	4	0
41	222	0	10000	4	1	0	4	0
41	223	0	10000	4	1	0	4	0
47	224	0	10000	4	1	0	4	0
50	225	0	10000	4	1	0	4	0
49	226	0	10000	4	1	0	4	0
47	227	0	10000	4	1	0	4	0
46	228	0	10000	4	1	0	4	0
45	229	0	10000	4	1	0	4	0
48	230	0	10000	4	1	0	4	0
49	231	0	10000	4	1	0	4	0
49	232	0	10000	4	1	0	4	0
49	233	0	10000	4	1	0	4	0
48	234	0	10000	4	1	0	4	0
46	235	0	10000	4	1	0	4	0
44	236	0	10000	4	1	0	4	0
43	237	0	10000	4	1	0	4	0
41	238	0	10000	4	1	0	4	0
40	239	0	10000	4	1	0	4	0
41	240	0	10000	4	1	0	4	0
42	241	0	10000	4	1	0	4	0
41	242	0	10000	4	1	0	4	0
39	243	0	10000	4	1	0	4	0
40	244	0	10000	4	1	0	4	0
39	245	0	10000	4	1	0	4	0
39	246	0	10000	4	1	0	4	0
40	247	0	10000	4	1	0	4	0
41	248	0	10000	4	1	0	4	0
42	249	0	10000	4	1	0	4	0
41	250	0	10000	4	1	0	4	0
38	251	0	10000	4	1	0	4	0
37	252	0	10000	4	1	0	4	0
38	253	0	10000	4	1	0	4	0
37	254	0	10000	4	1	0	4	0
36	255	0	10000	4	1	0	4	0
35	256	0	10000	4	1	0	4	0
34	257	0	10000	4	1	0	4	0
33	258	0	10000	4	1	0	4	0
32	259	0	10000	4	1	0	4	0
32	260	0	10000	4	1	0	4	0
32	261	0	10000	4	1	0	4	0
32	262	0	10000	4	1	0	4	0
30	263	0	10000	4	1	0	4	0
31	264	0	10000	4	1	0	4	0
33	265	0	10000	4	1	0	4	0
34	266	0	10000	4	1	0	4	0
35	267	0	10000	4	1	0	4	0
34	268	0	10000	4	1	0	4	0
34	269	0	10000	4	1	0	4	0
37	270	0	10000	4	1	0	4	0
40	271	0	10000	4	1	0	4	0
40	272	0	10000	4	1	0	4	0
41	273	0	10000	4	1	0	4	0
39	274	0	10000	4	1	0	4	0
38	275	0	10000	4	1	0	4	0
38	276	0	10000	4	1	0	4	0
37	277	0	10000	4	1	0	4	0
36	278	0	10000	4	1	0	4	0
35	279	0	10000	4	1	0	4	0
35	280	0	10000	4	1	0	4	0
34	281	0	10000	4	1	0	4	0
34	282	0	10000	4	1	0	4	0
32	283	0	10000	4	1	0	4	0
31	284	0	10000	4	1	0	4	0
32	285	0	10000	4	1	0	4	0
34	286	0	10000	4	1	0	4	0
32	287	0	10000	4	1	0	4	0
32	288	0	10000	4	1	0	4	0
32	289	0	10000	4	1	0	4	0
30	290	0	10000	4	1	0	4	0
29	291	0	10000	4	1	0	4	0
29	292	0	10000	4	1	0	4	0
33	293	0	10000	4	1	0	4	0
34	294	0	10000	4	1	0	4	0
33	295	0	10000	4	1	0	4	0
32	296	0	10000	4	1	0	4	0
31	297	0	10000	4	1	0	4	0
31	298	0	10000	4	1	0	4	0
30	299	0	10000	4	1	0	4	0
30	300	0	10000	4	1	0	4	0
29	301	0	10000	4	1	0	4	0
31	302	0	10000	4	1	0	4	0
32	303	0	10000	4	1	0	4	0
37	304	0	10000	4	1	0	4	0
41	305	0	10000	4	1	0	4	0
42	306	0	10000	4	1	0	4	0
42	307	0	10000	4	1	0	4	0
42	308	0	10000	4	1	0	4	0
42	309	0	10000	4	1	0	4	0
43	310	0	10000	4	1	0	4	0
42	311	0	10000	4	1	0	4	0
40	312	0	10000	4	1	0	4	0
42	313	0	10000	4	1	0	4	0
41	314	0	10000	4	1	0	4	0
41	315	0	10000	4	1	0	4	0
41	316	0	10000	4	1	0	4	0
40	317	0	10000	4	1	0	4	0
39	318	0	10000	4	1	0	4	0
37	319	0	10000	4	1	0	4	0
36	320	0	10000	4	1	0	4	0
35	321	0	10000	4	1	0	4	0
35	322	0	10000	4	1	0	4	0
32	323	0	10000	4	1	0	4	0
32	324	0	10000	4	1	0	4	0
34	325	0	10000	4	1	0	4	0
35	326	0	10000	4	1	0	4	0
35	327	0	10000	4	1	0	4	0
37	328	0	10000	4	1	0	4	0
36	329	0	10000	4	1	0	4	0
34	330	0	10000	4	1	0	4	0
33	331	0	10000	4	1	0	4	0
33	332	0	10000	4	1	0	4	0
35	333	0	10000	4	1	0	4	0
38	334	0	10000	4	1	0	4	0
40	335	0	10000	4	1	0	4	0
40	336	0	10000	4	1	0	4	0
39	337	0	10000	4	1	0	4	0
39	338	0	10000	4	1	0	4	0
38	339	0	10000	4	1	0	4	0
37	340	0	10000	4	1	0	4	0
39	341	0	10000	4	1	0	4	0
40	342	0	10000	4	1	0	4	0
40	343	0	10000	4	1	0	4	0
40	344	0	10000	4	1	0	4	0
39	345	0	10000	4	1	0	4	0
39	346	0	10000	4	1	0	4	0
41	347	0	10000	4	1	0	4	0
42	348	0	10000	4	1	0	4	0
41	349	0	10000	4	1	0	4	0
41	350	0	10000	4	1	0	4	0
41	351	0	10000	4	1	0	4	0
39	352	0	10000	4	1	0	4	0
40	353	0	10000	4	1	0	4	0
39	354	0	10000	4	1	0	4	0
37	355	0	10000	4	1	0	4	0
36	356	0	10000	4	1	0	4	0
36	357	0	10000	4	1	0	4	0
35	358	0	10000	4	1	0	4	0
33	359	0	10000	4	1	0	4	0
33	360	0	10000	4	1	0	4	0
32	361	0	10000	4	1	0	4	0
31	362	0	10000	4	1	0	4	0
29	363	0	10000	4	1	0	4	0
31	364	0	10000	4	1	0	4	0
32	365	0	10000	4	1	0	4	0
31	366	0	10000	4	1	0	4	0
30	367	0	10000	4	1	0	4	0
29	368	0	10000	4	1	0	4	0
29	369	0	10000	4	1	0	4	0
29	370	0	10000	4	1	0	4	0
29	371	0	10000	4	1	0	4	0
30	372	0	10000	4	1	0	4	0
30	373	0	10000	4	1	0	4	0
31	374	0	10000	4	1	0	4	0
32	375	0	10000	4	1	0	4	0
31	376	0	10000	4	1	0	4	0
31	377	0	10000	4	1	0	4	0
32	378	0	10000	4	1	0	4	0
32	379	0	10000	4	1	0	4	0
40	380	0	10000	4	1	0	4	0
46	381	0	10000	4	1	0	4	0
47	382	0	10000	4	1	0	4	0
45	383	0	10000	4	1	0	4	0
43	384	0	10000	4	1	0	4	0
44	385	0	10000	4	1	0	4	0
46	386	0	10000	4	1	0	4	0
47	387	0	10000	4	1	0	4	0
47	388	0	10000	4	1	0	4	0
48	389	0	10000	4	1	0	4	0
48	390	0	10000	4	1	0	4	0
47	391	0	10000	4	1	0	4	0
46	392	0	10000	4	1	0	4	0
47	393	0	10000	4	1	0	4	0
46	394	0	10000	4	1	0	4	0
46	395	0	10000	4	1	0	4	0
44	396	0	10000	4	1	0	4	0
44	397	0	10000	4	1	0	4	0
43	398	0	10000	4	1	0	4	0
43	399	0	10000	4	1	0	4	0
42	400	0	10000	4	1	0	4	0
42	401	0	10000	4	1	0	4	0
47	402	0	10000	4	1	0	4	0
50	403	0	10000	4	1	0	4	0
52	404	0	10000	4	1	0	4	0
50	405	0	10000	4	1	0	4	0
50	406	0	10000	4	1	0	4	0
49	407	0	10000	4	1	0	4	0
50	408	0	10000	4	1	0	4	0
50	409	0	10000	4	1	0	4	0
48	410	0	10000	4	1	0	4	0
48	411	0	10000	4	1	0	4	0
47	412	0	10000	4	1	0	4	0
47	413	0	10000	4	1	0	4	0
47	414	0	10000	4	1	0	4	0
50	415	0	10000	4	1	0	4	0
50	416	0	10000	4	1	0	4	0
49	417	0	10000	4	1	0	4	0
48	418	0	10000	4	1	0	4	0
47	419	0	10000	4	1	0	4	0
48	420	0	10000	4	1	0	4	0
49	421	0	10000	4	1	0	4	0
53	422	0	10000	4	1	0	4	0
53	423	0	10000	4	1	0	4	0
52	424	0	10000	4	1	0	4	0
52	425	0	10000	4	1	0	4	0
54	426	0	10000	4	1	0	4	0
55	427	0	10000	4	1	0	4	0
54	428	0	10000	4	1	0	4	0
53	429	0	10000	4	1	0	4	0
54	430	0	10000	4	1	0	4	0
56	431	0	10000	4	1	0	4	0
56	432	0	10000	4	1	0	4	0
60	433	0	10000	4	1	0	4	0
64	434	0	10000	4	1	0	4	0
67	435	0	10000	4	1	0	4	0
68	436	0	10000	4	1	0	4	0
66	437	0	10000	4	1	0	4	0
69	438	0	10000	4	1	0	4	0
74	439	0	10000	4	1	0	4	0
81	440	0	10000	4	1	0	4	0
86	441	0	10000	4	1	0	4	0
86	442	0	10000	4	1	0	4	0
83	443	0	10000	4	1	0	4	0
82	444	0	10000	4	1	0	4	0
79	445	0	10000	4	1	0	4	0
76	446	0	10000	4	1	0	4	0
73	447	0	10000	4	1	0	4	0
69	448	0	10000	4	1	0	4	0
66	449	0	10000	4	1	0	4	0
64	450	0	10000	4	1	0	4	0
61	451	0	10000	4	1	0	4	0
58	452	0	10000	4	1	0	4	0
58	453	0	10000	4	1	0	4	0
57	454	0	10000	4	1	0	4	0
61	455	0	10000	4	1	0	4	0
64	456	0	10000	4	1	0	4	0
63	457	0	10000	4	1	0	4	0
62	458	0	10000	4	1	0	4	0
64	459	0	10000	4	1	0	4	0
66	460	0	10000	4	1	0	4	0
65	461	0	10000	4	1	0	4	0
63	462	0	10000	4	1	0	4	0
59	463	0	10000	4	1	0	4	0
57	464	0	10000	4	1	0	4	0
56	465	0	10000	4	1	0	4	0
55	466	0	10000	4	1	0	4	0
54	467	0	10000	4	1	0	4	0
54	468	0	10000	4	1	0	4	0
52	469	0	10000	4	1	0	4	0
50	470	0	10000	4	1	0	4	0
47	471	0	10000	4	1	0	4	0
45	472	0	10000	4	1	0	4	0
47	473	0	10000	4	1	0	4	0
47	474	0	10000	4	1	0	4	0
46	475	0	10000	4	1	0	4	0
47	476	0	10000	4	1	0	4	0
47	477	0	10000	4	1	0	4	0
47	478	0	10000	4	1	0	4	0
47	479	0	10000	4	1	0	4	0
50	480	0	10000	4	1	0	4	0
56	481	0	10000	4	1	0	4	0
56	482	0	10000	4	1	0	4	0
55	483	0	10000	4	1	0	4	0
58	484	0	10000	4	1	0	4	0
61	485	0	10000	4	1	0	4	0
63	486	0	10000	4	1	0	4	0
63	487	0	10000	4	1	0	4	0
60	488	0	10000	4	1	0	4	0
60	489	0	10000	4	1	0	4	0
58	490	0	10000	4	1	0	4	0
58	491	0	10000	4	1	0	4	0
57	492	0	10000	4	1	0	4	0
59	493	0	10000	4	1	0	4	0
59	494	0	10000	4	1	0	4	0
58	495	0	10000	4	1	0	4	0
59	496	0	10000	4	1	0	4	0
61	497	0	10000	4	1	0	4	0
60	498	0	10000	4	1	0	4	0
57	499	0	10000	4	1	0	4	0
57	500	0	10000	4	1	0	4	0
58	501	0	10000	4	1	0	4	0
58	501	0	10000	4	1	0	4	1
55	502	0	10000	4	1	0	4	1
56	504	0	10000	4	1	0	4	1
58	505	0	10000	4	1	0	4	1
57	506	0	10000	4	1	0	4	1
54	507	0	10000	4	1	0	4	1
53	508	0	10000	4	1	0	4	1
51	509	0	10000	4	1	0	4	1
52	510	0	10000	4	1	0	4	1
53	511	0	10000	4	1	0	4	1
56	512	0	10000	4	1	0	4	1
64	513	0	10000	4	1	0	4	1
69	514	0	10000	4	1	0	4	1
67	515	0	10000	4	1	0	4	1
70	516	0	10000	4	1	0	4	1
75	517	0	10000	4	1	0	4	1
81	518	0	10000	4	1	0	4	1
83	519	0	10000	4	1	0	4	1
82	520	0	10000	4	1	0	4	1
80	521	0	10000	4	1	0	4	1
77	522	0	10000	4	1	0	4	1
72	523	0	10000	4	1	0	4	1
70	524	0	10000	4	1	0	4	1
69	525	0	10000	4	1	0	4	1
70	526	0	10000	4	1	0	4	1
68	527	0	10000	4	1	0	4	1
66	528	0	10000	4	1	0	4	1
64	529	0	10000	4	1	0	4	1
61	530	0	10000	4	1	0	4	1
59	531	0	10000	4	1	0	4	1
56	532	0	10000	4	1	0	4	1
56	533	0	10000	4	1	0	4	1
55	534	0	10000	4	1	0	4	1
55	535	0	10000	4	1	0	4	1
53	536	0	10000	4	1	0	4	1
53	537	0	10000	4	1	0	4	1
51	538	0	10000	4	1	0	4	1
49	539	0	10000	4	1	0	4	1
52	540	0	10000	4	1	0	4	1
54	541	0	10000	4	1	0	4	1
57	542	0	10000	4	1	0	4	1
55	543	0	10000	4	1	0	4	1
55	544	0	10000	4	1	0	4	1
57	545	0	10000	4	1	0	4	1
60	546	0	10000	4	1	0	4	1
63	547	0	10000	4	1	0	4	1
63	548	0	10000	4	1	0	4	1
61	549	0	10000	4	1	0	4	1
63	550	0	10000	4	1	0	4	1
66	551	0	10000	4	1	0	4	1
67	552	0	10000	4	1	0	4	0
66	553	0	10000	4	1	0	4	0
63	554	0	10000	4	1	0	4	0
60	555	0	10000	4	1	0	4	0
60	556	0	10000	4	1	0	4	0
61	557	0	10000	4	1	0	4	0
63	558	0	10000	4	1	0	4	0
62	559	0	10000	4	1	0	4	0
61	560	0	10000	4	1	0	4	0
58	561	0	10000	4	1	0	4	0
56	562	0	10000	4	1	0	4	0
52	563	0	10000	4	1	0	4	0
50	564	0	10000	4	1	0	4	0
48	565	0	10000	4	1	0	4	0
47	566	0	10000	4	1	0	4	0
45	567	0	10000	4	1	0	4	0
44	568	0	10000	4	1	0	4	0
46	569	0	10000	4	1	0	4	0
46	570	0	10000	4	1	0	4	0
48	571	0	10000	4	1	0	4	0
48	572	0	10000	4	1	0	4	0
49	573	0	10000	4	1	0	4	0
47	574	0	10000	4	1	0	4	0
47	575	0	10000	4	1	0	4	0
46	576	0	10000	4	1	0	4	0
46	577	0	10000	4	1	0	4	0
46	578	0	10000	4	1	0	4	0
50	579	0	10000	4	1	0	4	0
53	580	0	10000	4	1	0	4	0
60	581	0	10000	4	1	0	4	0
77	582	0	10000	4	1	0	4	0
79	583	0	10000	4	1	0	4	0
85	584	0	10000	4	1	0	4	0
85	585	0	10000	4	1	0	4	0
85	586	0	10000	4	1	0	4	0
88	587	0	10000	4	1	0	4	0
90	588	0	10000	4	1	0	4	0
94	589	0	10000	4	1	0	4	0
109	590	0	10000	4	1	0	4	0
137	591	0	10000	4	1	0	4	0
148	592	0	10000	4	1	0	4	0
185	593	0	10000	4	1	0	4	0
205	594	0	10000	4	1	0	4	0
203	595	0	10000	4	1	0	4	0
197	596	0	10000	4	1	0	4	0
196	597	0	10000	4	1	0	4	0
200	598	0	10000	4	1	0	4	0
213	599	0	10000	4	1	0	4	0
236	600	0	10000	4	1	0	4	0
255	601	0	10000	4	1	0	4	0
257	602	0	10000	4	1	0	4	0
252	603	0	10000	4	1	0	4	0
261	604	0	10000	4	1	0	4	0
255	605	0	10000	4	1	0	4	0
258	606	0	10000	4	1	0	4	0
257	607	0	10000	4	1	0	4	0
251	608	0	10000	4	1	0	4	0
244	609	0	10000	4	1	0	4	0
239	610	0	10000	4	1	0	4	0
237	611	0	10000	4	1	0	4	0
235	612	0	10000	4	1	0	4	0
243	613	0	10000	4	1	0	4	0
239	614	0	10000	4	1	0	4	0
244	615	0	10000	4	1	0	4	0
245	616	0	10000	4	1	0	4	0
243	617	0	10000	4	1	0	4	0
239	618	0	10000	4	1	0	4	0
232	619	0	10000	4	1	0	4	0
224	620	0	10000	4	1	0	4	0
214	621	0	10000	4	1	0	4	0
206	622	0	10000	4	1	0	4	0
194	623	0	10000	4	1	0	4	0
186	624	0	10000	4	1	0	4	0
178	625	0	10000	4	1	0	4	0
170	626	0	10000	4	1	0	4	0
166	627	0	10000	4	1	0	4	0
163	628	0	10000	4	1	0	4	0
160	629	0	10000	4	1	0	4	0
153	630	0	10000	4	1	0	4	0
146	631	0	10000	4	1	0	4	0
142	632	0	10000	4	1	0	4	0
143	633	0	10000	4	1	0	4	0
138	634	0	10000	4	1	0	4	0
134	635	0	10000	4	1	0	4	0
130	636	0	10000	4	1	0	4	0
135	637	0	10000	4	1	0	4	0
142	638	0	10000	4	1	0	4	0
148	639	0	10000	4	1	0	4	0
147	640	0	10000	4	1	0	4	0
142	641	0	10000	4	1	0	4	0
140	642	0	10000	4	1	0	4	0
134	643	0	10000	4	1	0	4	0
129	644	0	10000	4	1	0	4	0
124	645	0	10000	4	1	0	4	0
119	646	0	10000	4	1	0	4	0
115	647	0	10000	4	1	0	4	0
111	648	0	10000	4	1	0	4	0
109	649	0	10000	4	1	0	4	0
107	650	0	10000	4	1	0	4	0
110	651	0	10000	4	1	0	4	0
114	652	0	10000	4	1	0	4	0
117	653	0	10000	4	1	0	4	0
114	654	0	10000	4	1	0	4	0
108	655	0	10000	4	1	0	4	0
104	656	0	10000	4	1	0	4	0
99	657	0	10000	4	1	0	4	0
96	658	0	10000	4	1	0	4	0
98	659	0	10000	4	1	0	4	0
101	660	0	10000	4	1	0	4	0
99	661	0	10000	4	1	0	4	0
95	662	0	10000	4	1	0	4	0
90	663	0	10000	4	1	0	4	0
90	664	0	10000	4	1	0	4	0
94	665	0	10000	4	1	0	4	0
95	666	0	10000	4	1	0	4	0
93	667	0	10000	4	1	0	4	0
91	668	0	10000	4	1	0	4	0
89	669	0	10000	4	1	0	4	0
85	670	0	10000	4	1	0	4	0
82	671	0	10000	4	1	0	4	0
83	672	0	10000	4	1	0	4	0
87	673	0	10000	4	1	0	4	0
89	674	0	10000	4	1	0	4	0
93	675	0	10000	4	1	0	4	0
97	676	0	10000	4	1	0	4	0
101	677	0	10000	4	1	0	4	0
103	678	0	10000	4	1	0	4	0
103	679	0	10000	4	1	0	4	0
103	680	0	10000	4	1	0	4	0
100	681	0	10000	4	1	0	4	0
97	682	0	10000	4	1	0	4	0
94	683	0	10000	4	1	0	4	0
91	684	0	10000	4	1	0	4	0
88	685	0	10000	4	1	0	4	0
85	686	0	10000	4	1	0	4	0
86	687	0	10000	4	1	0	4	0
87	688	0	10000	4	1	0	4	0
87	689	0	10000	4	1	0	4	0
88	690	0	10000	4	1	0	4	0
89	691	0	10000	4	1	0	4	0
86	692	0	10000	4	1	0	4	0
89	693	0	10000	4	1	0	4	0
90	694	0	10000	4	1	0	4	0
90	695	0	10000	4	1	0	4	0
89	696	0	10000	4	1	0	4	0
88	697	0	10000	4	1	0	4	0
88	698	0	10000	4	1	0	4	0
88	699	0	10000	4	1	0	4	0
88	700	0	10000	4	1	0	4	0
88	701	0	10000	4	1	0	4	0
88	702	0	10000	4	1	0	4	0
86	703	0	10000	4	1	0	4	0
84	704	0	10000	4	1	0	4	0
85	705	0	10000	4	1	0	4	0
86	706	0	10000	4	1	0	4	0
83	707	0	10000	4	1	0	4	0
81	708	0	10000	4	1	0	4	0
83	709	0	10000	4	1	0	4	0
90	710	0	10000	4	1	0	4	0
95	711	0	10000	4	1	0	4	0
99	712	0	10000	4	1	0	4	0
101	713	0	10000	4	1	0	4	0
97	714	0	10000	4	1	0	4	0
95	715	0	10000	4	1	0	4	0
92	716	0	10000	4	1	0	4	0
89	717	0	10000	4	1	0	4	0
88	718	0	10000	4	1	0	4	0
85	719	0	10000	4	1	0	4	0
85	720	0	10000	4	1	0	4	0
86	721	0	10000	4	1	0	4	0
88	722	0	10000	4	1	0	4	0
87	723	0	10000	4	1	0	4	0
83	724	0	10000	4	1	0	4	0
80	725	0	10000	4	1	0	4	0
78	726	0	10000	4	1	0	4	0
74	727	0	10000	4	1	0	4	0
75	728	0	10000	4	1	0	4	0
77	729	0	10000	4	1	0	4	0
78	730	0	10000	4	1	0	4	0
76	731	0	10000	4	1	0	4	0
77	732	0	10000	4	1	0	4	0
80	733	0	10000	4	1	0	4	0
79	734	0	10000	4	1	0	4	0
78	735	0	10000	4	1	0	4	0
77	736	0	10000	4	1	0	4	0
75	737	0	10000	4	1	0	4	0
72	738	0	10000	4	1	0	4	0
69	739	0	10000	4	1	0	4	0
68	740	0	10000	4	1	0	4	0
65	741	0	10000	4	1	0	4	0
63	742	0	10000	4	1	0	4	0
58	743	0	10000	4	1	0	4	0
57	744	0	10000	4	1	0	4	0
58	745	0	10000	4	1	0	4	0
63	746	0	10000	4	1	0	4	0
70	747	0	10000	4	1	0	4	0
73	748	0	10000	4	1	0	4	0
72	749	0	10000	4	1	0	4	0
75	750	0	10000	4	1	0	4	0
75	751	0	10000	4	1	0	4	0
74	752	0	10000	4	1	0	4	0
77	753	0	10000	4	1	0	4	0
80	754	0	10000	4	1	0	4	0
80	755	0	10000	4	1	0	4	0
76	756	0	10000	4	1	0	4	0
75	757	0	10000	4	1	0	4	0
77	758	0	10000	4	1	0	4	0
78	759	0	10000	4	1	0	4	0
78	760	0	10000	4	1	0	4	0
75	761	0	10000	4	1	0	4	0
74	762	0	10000	4	1	0	4	0
70	763	0	10000	4	1	0	4	0
68	764	0	10000	4	1	0	4	0
69	765	0	10000	4	1	0	4	0
68	766	0	10000	4	1	0	4	0
68	767	0	10000	4	1	0	4	0
70	768	0	10000	4	1	0	4	0
72	769	0	10000	4	1	0	4	0
70	770	0	10000	4	1	0	4	0
69	771	0	10000	4	1	0	4	0
68	772	0	10000	4	1	0	4	0
68	773	0	10000	4	1	0	4	0
68	774	0	10000	4	1	0	4	0
67	775	0	10000	4	1	0	4	0
64	776	0	10000	4	1	0	4	0
65	777	0	10000	4	1	0	4	0
63	778	0	10000	4	1	0	4	0
60	779	0	10000	4	1	0	4	0
58	780	0	10000	4	1	0	4	0
57	781	0	10000	4	1	0	4	0
56	782	0	10000	4	1	0	4	0
57	783	0	10000	4	1	0	4	0
62	784	0	10000	4	1	0	4	0
65	785	0	10000	4	1	0	4	0
64	786	0	10000	4	1	0	4	0
63	787	0	10000	4	1	0	4	0
62	788	0	10000	4	1	0	4	0
60	789	0	10000	4	1	0	4	0
58	790	0	10000	4	1	0	4	0
58	791	0	10000	4	1	0	4	0
56	792	0	10000	4	1	0	4	0
60	793	0	10000	4	1	0	4	0
58	794	0	10000	4	1	0	4	0
60	795	0	10000	4	1	0	4	0
59	796	0	10000	4	1	0	4	0
61	797	0	10000	4	1	0	4	0
65	798	0	10000	4	1	0	4	0
67	799	0	10000	4	1	0	4	0
67	800	0	10000	4	1	0	4	0
64	801	0	10000	4	1	0	4	0
62	802	0	10000	4	1	0	4	0
58	803	0	10000	4	1	0	4	0
56	804	0	10000	4	1	0	4	0
55	805	0	10000	4	1	0	4	0
55	806	0	10000	4	1	0	4	0
54	807	0	10000	4	1	0	4	0
52	808	0	10000	4	1	0	4	0
50	809	0	10000	4	1	0	4	0
49	810	0	10000	4	1	0	4	0
47	811	0	10000	4	1	0	4	0
44	812	0	10000	4	1	0	4	0
46	813	0	10000	4	1	0	4	0
46	814	0	10000	4	1	0	4	0
44	815	0	10000	4	1	0	4	0
44	816	0	10000	4	1	0	4	0
44	817	0	10000	4	1	0	4	0
46	818	0	10000	4	1	0	4	0
48	819	0	10000	4	1	0	4	0
49	820	0	10000	4	1	0	4	0
48	821	0	10000	4	1	0	4	0
51	822	0	10000	4	1	0	4	0
51	823	0	10000	4	1	0	4	0
50	824	0	10000	4	1	0	4	0
49	825	0	10000	4	1	0	4	0
51	826	0	10000	4	1	0	4	0
55	827	0	10000	4	1	0	4	0
55	828	0	10000	4	1	0	4	0
54	829	0	10000	4	1	0	4	0
51	830	0	10000	4	1	0	4	0
51	831	0	10000	4	1	0	4	0
50	832	0	10000	4	1	0	4	0
50	833	0	10000	4	1	0	4	0
50	834	0	10000	4	1	0	4	0
52	835	0	10000	4	1	0	4	0
53	836	0	10000	4	1	0	4	0
52	837	0	10000	4	1	0	4	0
52	838	0	10000	4	1	0	4	0
53	839	0	10000	4	1	0	4	0
56	840	0	10000	4	1	0	4	0
56	841	0	10000	4	1	0	4	0
56	842	0	10000	4	1	0	4	0
54	843	0	10000	4	1	0	4	0
55	844	0	10000	4	1	0	4	0
55	845	0	10000	4	1	0	4	0
59	846	0	10000	4	1	0	4	0
64	847	0	10000	4	1	0	4	0
64	848	0	10000	4	1	0	4	0
64	849	0	10000	4	1	0	4	0
65	850	0	10000	4	1	0	4	0
65	851	0	10000	4	1	0	4	0
62	852	0	10000	4	1	0	4	0
62	853	0	10000	4	1	0	4	0
62	854	0	10000	4	1	0	4	0
61	855	0	10000	4	1	0	4	0
58	856	0	10000	4	1	0	4	0
58	857	0	10000	4	1	0	4	0
60	858	0	10000	4	1	0	4	0
64	859	0	10000	4	1	0	4	0
64	860	0	10000	4	1	0	4	0
62	861	0	10000	4	1	0	4	0
61	862	0	10000	4	1	0	4	0
57	863	0	10000	4	1	0	4	0
55	864	0	10000	4	1	0	4	0
55	865	0	10000	4	1	0	4	0
54	866	0	10000	4	1	0	4	0
54	867	0	10000	4	1	0	4	0
56	868	0	10000	4	1	0	4	0
57	869	0	10000	4	1	0	4	0
57	870	0	10000	4	1	0	4	0
58	871	0	10000	4	1	0	4	0
56	872	0	10000	4	1	0	4	0
56	873	0	10000	4	1	0	4	0
57	874	0	10000	4	1	0	4	0
56	875	0	10000	4	1	0	4	0
56	876	0	10000	4	1	0	4	0
58	877	0	10000	4	1	0	4	0
57	878	0	10000	4	1	0	4	0
56	879	0	10000	4	1	0	4	0
56	880	0	10000	4	1	0	4	0
55	881	0	10000	4	1	0	4	0
55	882	0	10000	4	1	0	4	0
53	883	0	10000	4	1	0	4	0
55	884	0	10000	4	1	0	4	0
59	885	0	10000	4	1	0	4	0
60	886	0	10000	4	1	0	4	0
57	887	0	10000	4	1	0	4	0
56	888	0	10000	4	1	0	4	0
54	889	0	10000	4	1	0	4	0
53	890	0	10000	4	1	0	4	0
51	891	0	10000	4	1	0	4	0
49	892	0	10000	4	1	0	4	0
50	893	0	10000	4	1	0	4	0
49	894	0	10000	4	1	0	4	0
49	895	0	10000	4	1	0	4	0
51	896	0	10000	4	1	0	4	0
54	897	0	10000	4	1	0	4	0
55	898	0	10000	4	1	0	4	0
55	899	0	10000	4	1	0	4	0
56	900	0	10000	4	1	0	4	0
55	901	0	10000	4	1	0	4	0
53	902	0	10000	4	1	0	4	0
51	903	0	10000	4	1	0	4	0
49	904	0	10000	4	1	0	4	0
49	905	0	10000	4	1	0	4	0
51	906	0	10000	4	1	0	4	0
49	907	0	10000	4	1	0	4	0
50	908	0	10000	4	1	0	4	0
50	909	0	10000	4	1	0	4	0
50	910	0	10000	4	1	0	4	0
53	911	0	10000	4	1	0	4	0
55	912	0	10000	4	1	0	4	0
58	913	0	10000	4	1	0	4	0
58	914	0	10000	4	1	0	4	0
57	915	0	10000	4	1	0	4	0
55	916	0	10000	4	1	0	4	0
56	917	0	10000	4	1	0	4	0
59	918	0	10000	4	1	0	4	0
60	919	0	10000	4	1	0	4	0
62	920	0	10000	4	1	0	4	0
67	921	0	10000	4	1	0	4	0
69	922	0	10000	4	1	0	4	0
67	923	0	10000	4	1	0	4	0
65	924	0	10000	4	1	0	4	0
65	925	0	10000	4	1	0	4	0
72	926	0	10000	4	1	0	4	0
81	927	0	10000	4	1	0	4	0
89	928	0	10000	4	1	0	4	0
90	929	0	10000	4	1	0	4	0
86	930	0	10000	4	1	0	4	0
83	931	0	10000	4	1	0	4	0
80	932	0	10000	4	1	0	4	0
80	933	0	10000	4	1	0	4	0
78	934	0	10000	4	1	0	4	0
75	935	0	10000	4	1	0	4	0
73	936	0	10000	4	1	0	4	0
69	937	0	10000	4	1	0	4	0
67	938	0	10000	4	1	0	4	0
64	939	0	10000	4	1	0	4	0
64	940	0	10000	4	1	0	4	0
68	941	0	10000	4	1	0	4	0
77	942	0	10000	4	1	0	4	0
83	943	0	10000	4	1	0	4	0
85	944	0	10000	4	1	0	4	0
87	945	0	10000	4	1	0	4	0
86	946	0	10000	4	1	0	4	0
83	947	0	10000	4	1	0	4	0
84	948	0	10000	4	1	0	4	0
87	949	0	10000	4	1	0	4	0
87	950	0	10000	4	1	0	4	0
86	951	0	10000	4	1	0	4	0
82	952	0	10000	4	1	0	4	0
81	953	0	10000	4	1	0	4	0
78	954	0	10000	4	1	0	4	0
77	955	0	10000	4	1	0	4	0
75	956	0	10000	4	1	0	4	0
75	957	0	10000	4	1	0	4	0
75	958	0	10000	4	1	0	4	0
77	959	0	10000	4	1	0	4	0
79	960	0	10000	4	1	0	4	0
79	961	0	10000	4	1	0	4	0
75	962	0	10000	4	1	0	4	0
71	963	0	10000	4	1	0	4	0
72	964	0	10000	4	1	0	4	0
70	965	0	10000	4	1	0	4	0
70	966	0	10000	4	1	0	4	0
77	967	0	10000	4	1	0	4	0
84	968	0	10000	4	1	0	4	0
85	969	0	10000	4	1	0	4	0
82	970	0	10000	4	1	0	4	0
84	971	0	10000	4	1	0	4	0
85	972	0	10000	4	1	0	4	0
86	973	0	10000	4	1	0	4	0
82	974	0	10000	4	1	0	4	0
82	975	0	10000	4	1	0	4	0
83	976	0	10000	4	1	0	4	0
81	977	0	10000	4	1	0	4	0
78	978	0	10000	4	1	0	4	0
75	979	0	10000	4	1	0	4	0
75	980	0	10000	4	1	0	4	0
76	981	0	10000	4	1	0	4	0
79	982	0	10000	4	1	0	4	0
77	983	0	10000	4	1	0	4	0
77	984	0	10000	4	1	0	4	0
75	985	0	10000	4	1	0	4	0
75	986	0	10000	4	1	0	4	0
72	987	0	10000	4	1	0	4	0
71	988	0	10000	4	1	0	4	0
74	989	0	10000	4	1	0	4	0
77	990	0	10000	4	1	0	4	0
75	991	0	10000	4	1	0	4	0
73	992	0	10000	4	1	0	4	0
78	993	0	10000	4	1	0	4	0
78	994	0	10000	4	1	0	4	0
76	995	0	10000	4	1	0	4	0
74	996	0	10000	4	1	0	4	0
70	997	0	10000	4	1	0	4	0
67	998	0	10000	4	1	0	4	0
64	999	0	10000	4	1	0	4	0
63	1000	0	10000	4	1	0	4	0
62	1001	0	10000	4	1	0	4	0
54	2	7	10000	5	1	0	5	0
55	3	7	10000	5	1	0	5	0
55	4	7	10000	5	1	0	5	0
55	5	7	10000	5	1	0	5	0
55	6	7	10000	5	1	0	5	0
52	7	7	10000	5	1	0	5	0
52	8	7	10000	5	1	0	5	0
50	9	7	10000	5	1	0	5	0
49	10	7	10000	5	1	0	5	0
50	11	7	10000	5	1	0	5	0
54	12	7	10000	5	1	0	5	0
57	13	7	10000	5	1	0	5	0
61	14	7	10000	5	1	0	5	0
62	15	7	10000	5	1	0	5	0
59	16	7	10000	5	1	0	5	0
58	17	7	10000	5	1	0	5	0
57	18	7	10000	5	1	0	5	0
56	19	7	10000	5	1	0	5	0
56	20	7	10000	5	1	0	5	0
57	21	7	10000	5	1	0	5	0
56	22	7	10000	5	1	0	5	0
54	23	7	10000	5	1	0	5	0
55	24	7	10000	5	1	0	5	0
57	25	7	10000	5	1	0	5	0
57	26	7	10000	5	1	0	5	0
56	27	7	10000	5	1	0	5	0
56	28	7	10000	5	1	0	5	0
56	29	7	10000	5	1	0	5	0
56	30	7	10000	5	1	0	5	0
58	31	7	10000	5	1	0	5	0
60	32	7	10000	5	1	0	5	0
60	33	7	10000	5	1	0	5	0
58	34	7	10000	5	1	0	5	0
55	35	7	10000	5	1	0	5	0
53	36	7	10000	5	1	0	5	0
53	37	7	10000	5	1	0	5	0
55	38	7	10000	5	1	0	5	0
55	39	7	10000	5	1	0	5	0
54	40	7	10000	5	1	0	5	0
55	41	7	10000	5	1	0	5	0
54	41	7	10000	5	1	0	5	0
52	42	7	10000	5	1	0	5	0
51	44	7	10000	5	1	0	5	0
51	45	7	10000	5	1	0	5	0
54	46	7	10000	5	1	0	5	0
53	47	7	10000	5	1	0	5	0
50	48	7	10000	5	1	0	5	0
49	49	7	10000	5	1	0	5	0
48	50	7	10000	5	1	0	5	0
45	51	7	10000	5	1	0	5	0
44	52	7	10000	5	1	0	5	0
43	53	7	10000	5	1	0	5	0
41	54	7	10000	5	1	0	5	0
40	55	7	10000	5	1	0	5	0
40	56	7	10000	5	1	0	5	0
43	57	7	10000	5	1	0	5	0
45	58	7	10000	5	1	0	5	0
46	59	7	10000	5	1	0	5	0
44	60	7	10000	5	1	0	5	0
44	61	7	10000	5	1	0	5	0
44	62	7	10000	5	1	0	5	0
43	63	7	10000	5	1	0	5	0
41	64	7	10000	5	1	0	5	0
41	65	7	10000	5	1	0	5	0
41	66	7	10000	5	1	0	5	0
40	67	7	10000	5	1	0	5	0
40	68	7	10000	5	1	0	5	0
40	69	7	10000	5	1	0	5	0
41	70	7	10000	5	1	0	5	0
43	71	7	10000	5	1	0	5	0
45	72	7	10000	5	1	0	5	0
45	73	7	10000	5	1	0	5	0
44	74	7	10000	5	1	0	5	0
43	75	7	10000	5	1	0	5	0
43	76	7	10000	5	1	0	5	0
41	77	7	10000	5	1	0	5	0
41	78	7	10000	5	1	0	5	0
43	79	7	10000	5	1	0	5	0
44	80	7	10000	5	1	0	5	0
46	81	7	10000	5	1	0	5	0
46	82	7	10000	5	1	0	5	0
44	83	7	10000	5	1	0	5	0
42	84	7	10000	5	1	0	5	0
43	85	7	10000	5	1	0	5	0
44	86	7	10000	5	1	0	5	0
44	87	7	10000	5	1	0	5	0
43	88	7	10000	5	1	0	5	0
41	89	7	10000	5	1	0	5	0
42	90	7	10000	5	1	0	5	0
43	91	7	10000	5	1	0	5	0
42	92	7	10000	5	1	0	5	0
42	93	7	10000	5	1	0	5	0
41	94	7	10000	5	1	0	5	0
40	95	7	10000	5	1	0	5	0
38	96	7	10000	5	1	0	5	0
38	97	7	10000	5	1	0	5	0
37	98	7	10000	5	1	0	5	0
38	99	7	10000	5	1	0	5	0
37	100	7	10000	5	1	0	5	0
39	101	7	10000	5	1	0	5	0
40	102	7	10000	5	1	0	5	0
38	103	7	10000	5	1	0	5	0
37	104	7	10000	5	1	0	5	0
37	105	7	10000	5	1	0	5	0
37	106	7	10000	5	1	0	5	0
36	107	7	10000	5	1	0	5	0
35	108	7	10000	5	1	0	5	0
35	109	7	10000	5	1	0	5	0
37	110	7	10000	5	1	0	5	0
38	111	7	10000	5	1	0	5	0
38	112	7	10000	5	1	0	5	0
37	113	7	10000	5	1	0	5	0
36	114	7	10000	5	1	0	5	0
34	115	7	10000	5	1	0	5	0
34	116	7	10000	5	1	0	5	0
37	117	7	10000	5	1	0	5	0
38	118	7	10000	5	1	0	5	0
37	119	7	10000	5	1	0	5	0
36	120	7	10000	5	1	0	5	0
34	121	7	10000	5	1	0	5	0
36	122	7	10000	5	1	0	5	0
36	123	7	10000	5	1	0	5	0
36	124	7	10000	5	1	0	5	0
36	125	7	10000	5	1	0	5	0
35	126	7	10000	5	1	0	5	0
34	127	7	10000	5	1	0	5	0
35	128	7	10000	5	1	0	5	0
34	129	7	10000	5	1	0	5	0
33	130	7	10000	5	1	0	5	0
34	131	7	10000	5	1	0	5	0
34	132	7	10000	5	1	0	5	0
33	133	7	10000	5	1	0	5	0
33	134	7	10000	5	1	0	5	0
32	135	7	10000	5	1	0	5	0
30	136	7	10000	5	1	0	5	0
29	137	7	10000	5	1	0	5	0
29	138	7	10000	5	1	0	5	0
30	139	7	10000	5	1	0	5	0
32	140	7	10000	5	1	0	5	0
34	141	7	10000	5	1	0	5	0
33	142	7	10000	5	1	0	5	0
33	143	7	10000	5	1	0	5	0
35	144	7	10000	5	1	0	5	0
39	145	7	10000	5	1	0	5	0
42	146	7	10000	5	1	0	5	0
41	147	7	10000	5	1	0	5	0
40	148	7	10000	5	1	0	5	0
39	149	7	10000	5	1	0	5	0
40	150	7	10000	5	1	0	5	0
39	151	7	10000	5	1	0	5	0
38	152	7	10000	5	1	0	5	0
37	153	7	10000	5	1	0	5	0
36	154	7	10000	5	1	0	5	0
34	155	7	10000	5	1	0	5	0
32	156	7	10000	5	1	0	5	0
32	157	7	10000	5	1	0	5	0
32	158	7	10000	5	1	0	5	0
32	159	7	10000	5	1	0	5	0
32	160	7	10000	5	1	0	5	0
30	161	7	10000	5	1	0	5	0
29	162	7	10000	5	1	0	5	0
29	163	7	10000	5	1	0	5	0
27	164	7	10000	5	1	0	5	0
28	165	7	10000	5	1	0	5	0
30	166	7	10000	5	1	0	5	0
29	167	7	10000	5	1	0	5	0
29	168	7	10000	5	1	0	5	0
28	169	7	10000	5	1	0	5	0
28	170	7	10000	5	1	0	5	0
27	171	7	10000	5	1	0	5	0
27	172	7	10000	5	1	0	5	0
27	173	7	10000	5	1	0	5	0
29	174	7	10000	5	1	0	5	0
29	175	7	10000	5	1	0	5	0
28	176	7	10000	5	1	0	5	0
28	177	7	10000	5	1	0	5	0
28	178	7	10000	5	1	0	5	0
27	179	7	10000	5	1	0	5	0
27	180	7	10000	5	1	0	5	0
27	181	7	10000	5	1	0	5	0
27	182	7	10000	5	1	0	5	0
28	183	7	10000	5	1	0	5	0
29	184	7	10000	5	1	0	5	0
29	185	7	10000	5	1	0	5	0
30	186	7	10000	5	1	0	5	0
29	187	7	10000	5	1	0	5	0
28	188	7	10000	5	1	0	5	0
28	189	7	10000	5	1	0	5	0
28	190	7	10000	5	1	0	5	0
28	191	7	10000	5	1	0	5	0
29	192	7	10000	5	1	0	5	0
29	193	7	10000	5	1	0	5	0
30	194	7	10000	5	1	0	5	0
28	195	7	10000	5	1	0	5	0
27	196	7	10000	5	1	0	5	0
27	197	7	10000	5	1	0	5	0
27	198	7	10000	5	1	0	5	0
29	199	7	10000	5	1	0	5	0
29	200	7	10000	5	1	0	5	0
29	201	7	10000	5	1	0	5	0
28	202	7	10000	5	1	0	5	0
26	203	7	10000	5	1	0	5	0
25	204	7	10000	5	1	0	5	0
25	205	7	10000	5	1	0	5	0
26	206	7	10000	5	1	0	5	0
25	207	7	10000	5	1	0	5	0
26	208	7	10000	5	1	0	5	0
25	209	7	10000	5	1	0	5	0
24	210	7	10000	5	1	0	5	0
24	211	7	10000	5	1	0	5	0
24	212	7	10000	5	1	0	5	0
25	213	7	10000	5	1	0	5	0
25	214	7	10000	5	1	0	5	0
24	215	7	10000	5	1	0	5	0
21	216	7	10000	5	1	0	5	0
21	217	7	10000	5	1	0	5	0
23	218	7	10000	5	1	0	5	0
23	219	7	10000	5	1	0	5	0
25	220	7	10000	5	1	0	5	0
26	221	7	10000	5	1	0	5	0
26	222	7	10000	5	1	0	5	0
26	223	7	10000	5	1	0	5	0
26	224	7	10000	5	1	0	5	0
26	225	7	10000	5	1	0	5	0
27	226	7	10000	5	1	0	5	0
25	227	7	10000	5	1	0	5	0
24	228	7	10000	5	1	0	5	0
24	229	7	10000	5	1	0	5	0
25	230	7	10000	5	1	0	5	0
24	231	7	10000	5	1	0	5	0
23	232	7	10000	5	1	0	5	0
24	233	7	10000	5	1	0	5	0
25	234	7	10000	5	1	0	5	0
24	235	7	10000	5	1	0	5	0
25	236	7	10000	5	1	0	5	0
28	237	7	10000	5	1	0	5	0
30	238	7	10000	5	1	0	5	0
31	239	7	10000	5	1	0	5	0
31	240	7	10000	5	1	0	5	0
31	241	7	10000	5	1	0	5	0
35	242	7	10000	5	1	0	5	0
39	243	7	10000	5	1	0	5	0
41	244	7	10000	5	1	0	5	0
41	245	7	10000	5	1	0	5	0
41	246	7	10000	5	1	0	5	0
43	247	7	10000	5	1	0	5	0
44	248	7	10000	5	1	0	5	0
45	249	7	10000	5	1	0	5	0
45	250	7	10000	5	1	0	5	0
44	251	7	10000	5	1	0	5	0
43	252	7	10000	5	1	0	5	0
42	253	7	10000	5	1	0	5	0
41	254	7	10000	5	1	0	5	0
39	255	7	10000	5	1	0	5	0
36	256	7	10000	5	1	0	5	0
36	257	7	10000	5	1	0	5	0
38	258	7	10000	5	1	0	5	0
45	259	7	10000	5	1	0	5	0
49	260	7	10000	5	1	0	5	0
51	261	7	10000	5	1	0	5	0
49	262	7	10000	5	1	0	5	0
49	263	7	10000	5	1	0	5	0
51	264	7	10000	5	1	0	5	0
52	265	7	10000	5	1	0	5	0
52	266	7	10000	5	1	0	5	0
52	267	7	10000	5	1	0	5	0
54	268	7	10000	5	1	0	5	0
55	269	7	10000	5	1	0	5	0
54	270	7	10000	5	1	0	5	0
53	271	7	10000	5	1	0	5	0
51	272	7	10000	5	1	0	5	0
51	273	7	10000	5	1	0	5	0
51	274	7	10000	5	1	0	5	0
51	275	7	10000	5	1	0	5	0
50	276	7	10000	5	1	0	5	0
49	277	7	10000	5	1	0	5	0
49	278	7	10000	5	1	0	5	0
50	279	7	10000	5	1	0	5	0
48	280	7	10000	5	1	0	5	0
48	281	7	10000	5	1	0	5	0
47	282	7	10000	5	1	0	5	0
45	283	7	10000	5	1	0	5	0
43	284	7	10000	5	1	0	5	0
43	285	7	10000	5	1	0	5	0
44	286	7	10000	5	1	0	5	0
44	287	7	10000	5	1	0	5	0
44	288	7	10000	5	1	0	5	0
43	289	7	10000	5	1	0	5	0
41	290	7	10000	5	1	0	5	0
42	291	7	10000	5	1	0	5	0
41	292	7	10000	5	1	0	5	0
43	293	7	10000	5	1	0	5	0
45	294	7	10000	5	1	0	5	0
47	295	7	10000	5	1	0	5	0
48	296	7	10000	5	1	0	5	0
51	297	7	10000	5	1	0	5	0
51	298	7	10000	5	1	0	5	0
50	299	7	10000	5	1	0	5	0
50	300	7	10000	5	1	0	5	0
51	301	7	10000	5	1	0	5	0
50	302	7	10000	5	1	0	5	0
48	303	7	10000	5	1	0	5	0
48	304	7	10000	5	1	0	5	0
50	305	7	10000	5	1	0	5	0
53	306	7	10000	5	1	0	5	0
54	307	7	10000	5	1	0	5	0
56	308	7	10000	5	1	0	5	0
56	309	7	10000	5	1	0	5	0
55	310	7	10000	5	1	0	5	0
56	311	7	10000	5	1	0	5	0
56	312	7	10000	5	1	0	5	0
56	313	7	10000	5	1	0	5	0
58	314	7	10000	5	1	0	5	0
57	315	7	10000	5	1	0	5	0
55	316	7	10000	5	1	0	5	0
53	317	7	10000	5	1	0	5	0
50	318	7	10000	5	1	0	5	0
49	319	7	10000	5	1	0	5	0
47	320	7	10000	5	1	0	5	0
47	321	7	10000	5	1	0	5	0
47	321	7	10000	5	1	0	5	0
45	322	7	10000	5	1	0	5	0
44	324	7	10000	5	1	0	5	0
44	325	7	10000	5	1	0	5	0
45	326	7	10000	5	1	0	5	0
46	327	7	10000	5	1	0	5	0
47	328	7	10000	5	1	0	5	0
46	329	7	10000	5	1	0	5	0
46	330	7	10000	5	1	0	5	0
44	331	7	10000	5	1	0	5	0
45	332	7	10000	5	1	0	5	0
44	333	7	10000	5	1	0	5	0
44	334	7	10000	5	1	0	5	0
42	335	7	10000	5	1	0	5	0
39	336	7	10000	5	1	0	5	0
40	337	7	10000	5	1	0	5	0
40	338	7	10000	5	1	0	5	0
39	339	7	10000	5	1	0	5	0
39	340	7	10000	5	1	0	5	0
40	341	7	10000	5	1	0	5	0
43	342	7	10000	5	1	0	5	0
46	343	7	10000	5	1	0	5	0
47	344	7	10000	5	1	0	5	0
49	345	7	10000	5	1	0	5	0
52	346	7	10000	5	1	0	5	0
54	347	7	10000	5	1	0	5	0
54	348	7	10000	5	1	0	5	0
52	349	7	10000	5	1	0	5	0
53	350	7	10000	5	1	0	5	0
53	351	7	10000	5	1	0	5	0
55	352	7	10000	5	1	0	5	0
54	353	7	10000	5	1	0	5	0
54	354	7	10000	5	1	0	5	0
52	355	7	10000	5	1	0	5	0
50	356	7	10000	5	1	0	5	0
50	357	7	10000	5	1	0	5	0
48	358	7	10000	5	1	0	5	0
50	359	7	10000	5	1	0	5	0
52	360	7	10000	5	1	0	5	0
53	361	7	10000	5	1	0	5	0
52	362	7	10000	5	1	0	5	0
49	363	7	10000	5	1	0	5	0
47	364	7	10000	5	1	0	5	0
46	365	7	10000	5	1	0	5	0
49	366	7	10000	5	1	0	5	0
50	367	7	10000	5	1	0	5	0
50	368	7	10000	5	1	0	5	0
50	369	7	10000	5	1	0	5	0
48	370	7	10000	5	1	0	5	0
46	371	7	10000	5	1	0	5	0
45	372	7	10000	5	1	0	5	0
46	373	7	10000	5	1	0	5	0
46	374	7	10000	5	1	0	5	0
45	375	7	10000	5	1	0	5	0
43	376	7	10000	5	1	0	5	0
41	377	7	10000	5	1	0	5	0
41	378	7	10000	5	1	0	5	0
40	379	7	10000	5	1	0	5	0
39	380	7	10000	5	1	0	5	0
39	381	7	10000	5	1	0	5	0
37	382	7	10000	5	1	0	5	0
36	383	7	10000	5	1	0	5	0
37	384	7	10000	5	1	0	5	0
41	385	7	10000	5	1	0	5	0
41	386	7	10000	5	1	0	5	0
41	387	7	10000	5	1	0	5	0
40	388	7	10000	5	1	0	5	0
40	389	7	10000	5	1	0	5	0
40	390	7	10000	5	1	0	5	0
38	391	7	10000	5	1	0	5	0
38	392	7	10000	5	1	0	5	0
37	393	7	10000	5	1	0	5	0
36	394	7	10000	5	1	0	5	0
35	395	7	10000	5	1	0	5	0
33	396	7	10000	5	1	0	5	0
35	397	7	10000	5	1	0	5	0
36	398	7	10000	5	1	0	5	0
37	399	7	10000	5	1	0	5	0
39	400	7	10000	5	1	0	5	0
41	401	7	10000	5	1	0	5	0
39	402	7	10000	5	1	0	5	0
37	403	7	10000	5	1	0	5	0
35	404	7	10000	5	1	0	5	0
35	405	7	10000	5	1	0	5	0
36	406	7	10000	5	1	0	5	0
37	407	7	10000	5	1	0	5	0
40	408	7	10000	5	1	0	5	0
42	409	7	10000	5	1	0	5	0
41	410	7	10000	5	1	0	5	0
39	411	7	10000	5	1	0	5	0
38	412	7	10000	5	1	0	5	0
39	413	7	10000	5	1	0	5	0
41	414	7	10000	5	1	0	5	0
40	415	7	10000	5	1	0	5	0
37	416	7	10000	5	1	0	5	0
35	417	7	10000	5	1	0	5	0
36	418	7	10000	5	1	0	5	0
36	419	7	10000	5	1	0	5	0
36	420	7	10000	5	1	0	5	0
35	421	7	10000	5	1	0	5	0
35	422	7	10000	5	1	0	5	0
34	423	7	10000	5	1	0	5	0
34	424	7	10000	5	1	0	5	0
34	425	7	10000	5	1	0	5	0
36	426	7	10000	5	1	0	5	0
38	427	7	10000	5	1	0	5	0
39	428	7	10000	5	1	0	5	0
41	429	7	10000	5	1	0	5	0
41	430	7	10000	5	1	0	5	0
40	431	7	10000	5	1	0	5	0
39	432	7	10000	5	1	0	5	0
38	433	7	10000	5	1	0	5	0
37	434	7	10000	5	1	0	5	0
35	435	7	10000	5	1	0	5	0
34	436	7	10000	5	1	0	5	0
35	437	7	10000	5	1	0	5	0
36	438	7	10000	5	1	0	5	0
35	439	7	10000	5	1	0	5	0
34	440	7	10000	5	1	0	5	0
33	441	7	10000	5	1	0	5	0
32	442	7	10000	5	1	0	5	0
32	443	7	10000	5	1	0	5	0
32	444	7	10000	5	1	0	5	0
33	445	7	10000	5	1	0	5	0
35	446	7	10000	5	1	0	5	0
36	447	7	10000	5	1	0	5	0
35	448	7	10000	5	1	0	5	0
33	449	7	10000	5	1	0	5	0
32	450	7	10000	5	1	0	5	0
31	451	7	10000	5	1	0	5	0
32	452	7	10000	5	1	0	5	0
32	453	7	10000	5	1	0	5	0
32	454	7	10000	5	1	0	5	0
32	455	7	10000	5	1	0	5	0
30	456	7	10000	5	1	0	5	0
30	457	7	10000	5	1	0	5	0
31	458	7	10000	5	1	0	5	0
32	459	7	10000	5	1	0	5	0
30	460	7	10000	5	1	0	5	0
30	461	7	10000	5	1	0	5	0
28	462	7	10000	5	1	0	5	0
28	463	7	10000	5	1	0	5	0
27	464	7	10000	5	1	0	5	0
27	465	7	10000	5	1	0	5	0
28	466	7	10000	5	1	0	5	0
27	467	7	10000	5	1	0	5	0
28	468	7	10000	5	1	0	5	0
29	469	7	10000	5	1	0	5	0
31	470	7	10000	5	1	0	5	0
32	471	7	10000	5	1	0	5	0
33	472	7	10000	5	1	0	5	0
34	473	7	10000	5	1	0	5	0
35	474	7	10000	5	1	0	5	0
34	475	7	10000	5	1	0	5	0
32	476	7	10000	5	1	0	5	0
33	477	7	10000	5	1	0	5	0
34	478	7	10000	5	1	0	5	0
34	479	7	10000	5	1	0	5	0
33	480	7	10000	5	1	0	5	0
32	481	7	10000	5	1	0	5	0
33	482	7	10000	5	1	0	5	0
33	483	7	10000	5	1	0	5	0
33	484	7	10000	5	1	0	5	0
34	485	7	10000	5	1	0	5	0
34	486	7	10000	5	1	0	5	0
35	487	7	10000	5	1	0	5	0
34	488	7	10000	5	1	0	5	0
32	489	7	10000	5	1	0	5	0
32	490	7	10000	5	1	0	5	0
33	491	7	10000	5	1	0	5	0
33	492	7	10000	5	1	0	5	0
34	493	7	10000	5	1	0	5	0
33	494	7	10000	5	1	0	5	0
32	495	7	10000	5	1	0	5	0
31	496	7	10000	5	1	0	5	0
30	497	7	10000	5	1	0	5	0
29	498	7	10000	5	1	0	5	0
29	499	7	10000	5	1	0	5	0
28	500	7	10000	5	1	0	5	0
27	501	7	10000	5	1	0	5	0
26	502	7	10000	5	1	0	5	1
26	503	7	10000	5	1	0	5	1
28	504	7	10000	5	1	0	5	1
34	505	7	10000	5	1	0	5	1
40	506	7	10000	5	1	0	5	1
43	507	7	10000	5	1	0	5	1
44	508	7	10000	5	1	0	5	1
43	509	7	10000	5	1	0	5	1
42	510	7	10000	5	1	0	5	1
42	511	7	10000	5	1	0	5	1
44	512	7	10000	5	1	0	5	1
47	513	7	10000	5	1	0	5	1
50	514	7	10000	5	1	0	5	1
49	515	7	10000	5	1	0	5	1
45	516	7	10000	5	1	0	5	1
44	517	7	10000	5	1	0	5	1
44	518	7	10000	5	1	0	5	1
44	519	7	10000	5	1	0	5	1
44	520	7	10000	5	1	0	5	1
43	521	7	10000	5	1	0	5	1
42	522	7	10000	5	1	0	5	1
43	523	7	10000	5	1	0	5	1
44	524	7	10000	5	1	0	5	1
44	525	7	10000	5	1	0	5	1
44	526	7	10000	5	1	0	5	1
42	527	7	10000	5	1	0	5	1
41	528	7	10000	5	1	0	5	1
39	529	7	10000	5	1	0	5	1
38	530	7	10000	5	1	0	5	1
39	531	7	10000	5	1	0	5	1
40	532	7	10000	5	1	0	5	1
42	533	7	10000	5	1	0	5	1
44	534	7	10000	5	1	0	5	1
47	535	7	10000	5	1	0	5	1
46	536	7	10000	5	1	0	5	1
46	537	7	10000	5	1	0	5	1
44	538	7	10000	5	1	0	5	1
43	539	7	10000	5	1	0	5	1
42	540	7	10000	5	1	0	5	1
41	541	7	10000	5	1	0	5	1
42	542	7	10000	5	1	0	5	1
41	543	7	10000	5	1	0	5	1
39	544	7	10000	5	1	0	5	1
38	545	7	10000	5	1	0	5	1
39	546	7	10000	5	1	0	5	1
37	547	7	10000	5	1	0	5	1
36	548	7	10000	5	1	0	5	1
36	549	7	10000	5	1	0	5	1
35	550	7	10000	5	1	0	5	1
37	551	7	10000	5	1	0	5	1
42	552	7	10000	5	1	0	5	0
46	553	7	10000	5	1	0	5	0
50	554	7	10000	5	1	0	5	0
51	555	7	10000	5	1	0	5	0
50	556	7	10000	5	1	0	5	0
50	557	7	10000	5	1	0	5	0
52	558	7	10000	5	1	0	5	0
55	559	7	10000	5	1	0	5	0
56	560	7	10000	5	1	0	5	0
57	561	7	10000	5	1	0	5	0
55	562	7	10000	5	1	0	5	0
52	563	7	10000	5	1	0	5	0
51	564	7	10000	5	1	0	5	0
50	565	7	10000	5	1	0	5	0
50	566	7	10000	5	1	0	5	0
47	567	7	10000	5	1	0	5	0
46	568	7	10000	5	1	0	5	0
46	569	7	10000	5	1	0	5	0
46	570	7	10000	5	1	0	5	0
47	571	7	10000	5	1	0	5	0
46	572	7	10000	5	1	0	5	0
45	573	7	10000	5	1	0	5	0
45	574	7	10000	5	1	0	5	0
46	575	7	10000	5	1	0	5	0
45	576	7	10000	5	1	0	5	0
48	577	7	10000	5	1	0	5	0
48	578	7	10000	5	1	0	5	0
46	579	7	10000	5	1	0	5	0
44	580	7	10000	5	1	0	5	0
44	581	7	10000	5	1	0	5	0
45	582	7	10000	5	1	0	5	0
44	583	7	10000	5	1	0	5	0
45	584	7	10000	5	1	0	5	0
53	585	7	10000	5	1	0	5	0
65	586	7	10000	5	1	0	5	0
80	587	7	10000	5	1	0	5	0
90	588	7	10000	5	1	0	5	0
91	589	7	10000	5	1	0	5	0
90	590	7	10000	5	1	0	5	0
112	591	7	10000	5	1	0	5	0
127	592	7	10000	5	1	0	5	0
130	593	7	10000	5	1	0	5	0
133	594	7	10000	5	1	0	5	0
132	595	7	10000	5	1	0	5	0
135	596	7	10000	5	1	0	5	0
145	597	7	10000	5	1	0	5	0
164	598	7	10000	5	1	0	5	0
169	599	7	10000	5	1	0	5	0
182	600	7	10000	5	1	0	5	0
202	601	7	10000	5	1	0	5	0
235	601	7	10000	5	1	0	5	0
244	602	7	10000	5	1	0	5	0
256	604	7	10000	5	1	0	5	0
261	605	7	10000	5	1	0	5	0
273	606	7	10000	5	1	0	5	0
276	607	7	10000	5	1	0	5	0
289	608	7	10000	5	1	0	5	0
287	609	7	10000	5	1	0	5	0
311	610	7	10000	5	1	0	5	0
324	611	7	10000	5	1	0	5	0
321	612	7	10000	5	1	0	5	0
320	613	7	10000	5	1	0	5	0
319	614	7	10000	5	1	0	5	0
317	615	7	10000	5	1	0	5	0
313	616	7	10000	5	1	0	5	0
315	617	7	10000	5	1	0	5	0
317	618	7	10000	5	1	0	5	0
315	619	7	10000	5	1	0	5	0
304	620	7	10000	5	1	0	5	0
300	621	7	10000	5	1	0	5	0
299	622	7	10000	5	1	0	5	0
297	623	7	10000	5	1	0	5	0
295	624	7	10000	5	1	0	5	0
291	625	7	10000	5	1	0	5	0
284	626	7	10000	5	1	0	5	0
272	627	7	10000	5	1	0	5	0
260	628	7	10000	5	1	0	5	0
249	629	7	10000	5	1	0	5	0
241	630	7	10000	5	1	0	5	0
232	631	7	10000	5	1	0	5	0
222	632	7	10000	5	1	0	5	0
214	633	7	10000	5	1	0	5	0
207	634	7	10000	5	1	0	5	0
207	635	7	10000	5	1	0	5	0
214	636	7	10000	5	1	0	5	0
217	637	7	10000	5	1	0	5	0
210	638	7	10000	5	1	0	5	0
208	639	7	10000	5	1	0	5	0
208	640	7	10000	5	1	0	5	0
206	641	7	10000	5	1	0	5	0
200	642	7	10000	5	1	0	5	0
190	643	7	10000	5	1	0	5	0
182	644	7	10000	5	1	0	5	0
177	645	7	10000	5	1	0	5	0
171	646	7	10000	5	1	0	5	0
166	647	7	10000	5	1	0	5	0
163	648	7	10000	5	1	0	5	0
159	649	7	10000	5	1	0	5	0
156	650	7	10000	5	1	0	5	0
154	651	7	10000	5	1	0	5	0
152	652	7	10000	5	1	0	5	0
151	653	7	10000	5	1	0	5	0
151	654	7	10000	5	1	0	5	0
151	655	7	10000	5	1	0	5	0
153	656	7	10000	5	1	0	5	0
158	657	7	10000	5	1	0	5	0
163	658	7	10000	5	1	0	5	0
164	659	7	10000	5	1	0	5	0
162	660	7	10000	5	1	0	5	0
159	661	7	10000	5	1	0	5	0
158	662	7	10000	5	1	0	5	0
153	663	7	10000	5	1	0	5	0
150	664	7	10000	5	1	0	5	0
146	665	7	10000	5	1	0	5	0
141	666	7	10000	5	1	0	5	0
135	667	7	10000	5	1	0	5	0
131	668	7	10000	5	1	0	5	0
130	669	7	10000	5	1	0	5	0
127	670	7	10000	5	1	0	5	0
123	671	7	10000	5	1	0	5	0
122	672	7	10000	5	1	0	5	0
124	673	7	10000	5	1	0	5	0
125	674	7	10000	5	1	0	5	0
125	675	7	10000	5	1	0	5	0
123	676	7	10000	5	1	0	5	0
121	677	7	10000	5	1	0	5	0
118	678	7	10000	5	1	0	5	0
115	679	7	10000	5	1	0	5	0
114	680	7	10000	5	1	0	5	0
116	681	7	10000	5	1	0	5	0
117	682	7	10000	5	1	0	5	0
117	683	7	10000	5	1	0	5	0
116	684	7	10000	5	1	0	5	0
116	685	7	10000	5	1	0	5	0
117	686	7	10000	5	1	0	5	0
118	687	7	10000	5	1	0	5	0
118	688	7	10000	5	1	0	5	0
116	689	7	10000	5	1	0	5	0
116	690	7	10000	5	1	0	5	0
116	691	7	10000	5	1	0	5	0
117	692	7	10000	5	1	0	5	0
120	693	7	10000	5	1	0	5	0
122	694	7	10000	5	1	0	5	0
120	695	7	10000	5	1	0	5	0
115	696	7	10000	5	1	0	5	0
113	697	7	10000	5	1	0	5	0
110	698	7	10000	5	1	0	5	0
110	699	7	10000	5	1	0	5	0
108	700	7	10000	5	1	0	5	0
107	701	7	10000	5	1	0	5	0
107	702	7	10000	5	1	0	5	0
105	703	7	10000	5	1	0	5	0
106	704	7	10000	5	1	0	5	0
105	705	7	10000	5	1	0	5	0
104	706	7	10000	5	1	0	5	0
100	707	7	10000	5	1	0	5	0
98	708	7	10000	5	1	0	5	0
103	709	7	10000	5	1	0	5	0
108	710	7	10000	5	1	0	5	0
110	711	7	10000	5	1	0	5	0
109	712	7	10000	5	1	0	5	0
109	713	7	10000	5	1	0	5	0
106	714	7	10000	5	1	0	5	0
102	715	7	10000	5	1	0	5	0
96	716	7	10000	5	1	0	5	0
94	717	7	10000	5	1	0	5	0
90	718	7	10000	5	1	0	5	0
87	719	7	10000	5	1	0	5	0
84	720	7	10000	5	1	0	5	0
81	721	7	10000	5	1	0	5	0
79	722	7	10000	5	1	0	5	0
78	723	7	10000	5	1	0	5	0
75	724	7	10000	5	1	0	5	0
75	725	7	10000	5	1	0	5	0
75	726	7	10000	5	1	0	5	0
71	727	7	10000	5	1	0	5	0
68	728	7	10000	5	1	0	5	0
68	729	7	10000	5	1	0	5	0
68	730	7	10000	5	1	0	5	0
70	731	7	10000	5	1	0	5	0
72	732	7	10000	5	1	0	5	0
69	733	7	10000	5	1	0	5	0
70	734	7	10000	5	1	0	5	0
70	735	7	10000	5	1	0	5	0
70	736	7	10000	5	1	0	5	0
70	737	7	10000	5	1	0	5	0
69	738	7	10000	5	1	0	5	0
67	739	7	10000	5	1	0	5	0
64	740	7	10000	5	1	0	5	0
63	741	7	10000	5	1	0	5	0
61	742	7	10000	5	1	0	5	0
58	743	7	10000	5	1	0	5	0
56	744	7	10000	5	1	0	5	0
55	745	7	10000	5	1	0	5	0
56	746	7	10000	5	1	0	5	0
53	747	7	10000	5	1	0	5	0
50	748	7	10000	5	1	0	5	0
48	749	7	10000	5	1	0	5	0
45	750	7	10000	5	1	0	5	0
45	751	7	10000	5	1	0	5	0
43	752	7	10000	5	1	0	5	0
45	753	7	10000	5	1	0	5	0
48	754	7	10000	5	1	0	5	0
52	755	7	10000	5	1	0	5	0
53	756	7	10000	5	1	0	5	0
56	757	7	10000	5	1	0	5	0
59	758	7	10000	5	1	0	5	0
60	759	7	10000	5	1	0	5	0
