value	EMG	Stimulus	EMG_sensitivity	Total_Trial_Nr	practise	acq	probe_nr	Startle_Probe
30	2	0	10000	1	1	0	1	0
29	3	0	10000	1	1	0	1	0
29	4	0	10000	1	1	0	1	0
28	5	0	10000	1	1	0	1	0
29	6	0	10000	1	1	0	1	0
28	7	0	10000	1	1	0	1	0
27	8	0	10000	1	1	0	1	0
25	9	0	10000	1	1	0	1	0
23	10	0	10000	1	1	0	1	0
23	11	0	10000	1	1	0	1	0
23	12	0	10000	1	1	0	1	0
23	13	0	10000	1	1	0	1	0
22	14	0	10000	1	1	0	1	0
23	15	0	10000	1	1	0	1	0
23	16	0	10000	1	1	0	1	0
23	17	0	10000	1	1	0	1	0
24	18	0	10000	1	1	0	1	0
25	19	0	10000	1	1	0	1	0
24	20	0	10000	1	1	0	1	0
23	21	0	10000	1	1	0	1	0
22	22	0	10000	1	1	0	1	0
23	23	0	10000	1	1	0	1	0
23	24	0	10000	1	1	0	1	0
23	25	0	10000	1	1	0	1	0
23	26	0	10000	1	1	0	1	0
23	27	0	10000	1	1	0	1	0
22	28	0	10000	1	1	0	1	0
20	29	0	10000	1	1	0	1	0
20	30	0	10000	1	1	0	1	0
20	31	0	10000	1	1	0	1	0
19	32	0	10000	1	1	0	1	0
21	33	0	10000	1	1	0	1	0
21	34	0	10000	1	1	0	1	0
21	35	0	10000	1	1	0	1	0
20	36	0	10000	1	1	0	1	0
20	37	0	10000	1	1	0	1	0
20	38	0	10000	1	1	0	1	0
23	39	0	10000	1	1	0	1	0
23	40	0	10000	1	1	0	1	0
23	41	0	10000	1	1	0	1	0
23	42	0	10000	1	1	0	1	0
24	43	0	10000	1	1	0	1	0
23	44	0	10000	1	1	0	1	0
23	45	0	10000	1	1	0	1	0
23	46	0	10000	1	1	0	1	0
23	47	0	10000	1	1	0	1	0
23	48	0	10000	1	1	0	1	0
21	49	0	10000	1	1	0	1	0
20	50	0	10000	1	1	0	1	0
19	51	0	10000	1	1	0	1	0
20	52	0	10000	1	1	0	1	0
20	53	0	10000	1	1	0	1	0
20	54	0	10000	1	1	0	1	0
21	55	0	10000	1	1	0	1	0
20	56	0	10000	1	1	0	1	0
20	57	0	10000	1	1	0	1	0
19	58	0	10000	1	1	0	1	0
20	59	0	10000	1	1	0	1	0
19	60	0	10000	1	1	0	1	0
19	61	0	10000	1	1	0	1	0
18	62	0	10000	1	1	0	1	0
18	63	0	10000	1	1	0	1	0
18	64	0	10000	1	1	0	1	0
19	65	0	10000	1	1	0	1	0
20	66	0	10000	1	1	0	1	0
20	67	0	10000	1	1	0	1	0
21	68	0	10000	1	1	0	1	0
20	69	0	10000	1	1	0	1	0
21	70	0	10000	1	1	0	1	0
21	71	0	10000	1	1	0	1	0
22	72	0	10000	1	1	0	1	0
23	73	0	10000	1	1	0	1	0
23	74	0	10000	1	1	0	1	0
23	75	0	10000	1	1	0	1	0
23	76	0	10000	1	1	0	1	0
22	77	0	10000	1	1	0	1	0
21	78	0	10000	1	1	0	1	0
22	79	0	10000	1	1	0	1	0
21	80	0	10000	1	1	0	1	0
20	81	0	10000	1	1	0	1	0
19	82	0	10000	1	1	0	1	0
19	83	0	10000	1	1	0	1	0
20	84	0	10000	1	1	0	1	0
20	85	0	10000	1	1	0	1	0
20	86	0	10000	1	1	0	1	0
20	87	0	10000	1	1	0	1	0
19	88	0	10000	1	1	0	1	0
18	89	0	10000	1	1	0	1	0
17	90	0	10000	1	1	0	1	0
17	91	0	10000	1	1	0	1	0
17	92	0	10000	1	1	0	1	0
17	93	0	10000	1	1	0	1	0
17	94	0	10000	1	1	0	1	0
18	95	0	10000	1	1	0	1	0
19	96	0	10000	1	1	0	1	0
19	97	0	10000	1	1	0	1	0
19	98	0	10000	1	1	0	1	0
20	99	0	10000	1	1	0	1	0
20	100	0	10000	1	1	0	1	0
20	101	0	10000	1	1	0	1	0
20	102	0	10000	1	1	0	1	0
20	103	0	10000	1	1	0	1	0
20	104	0	10000	1	1	0	1	0
20	105	0	10000	1	1	0	1	0
21	106	0	10000	1	1	0	1	0
24	107	0	10000	1	1	0	1	0
26	108	0	10000	1	1	0	1	0
26	109	0	10000	1	1	0	1	0
25	110	0	10000	1	1	0	1	0
25	111	0	10000	1	1	0	1	0
24	112	0	10000	1	1	0	1	0
25	113	0	10000	1	1	0	1	0
26	114	0	10000	1	1	0	1	0
26	115	0	10000	1	1	0	1	0
26	116	0	10000	1	1	0	1	0
25	117	0	10000	1	1	0	1	0
24	118	0	10000	1	1	0	1	0
25	119	0	10000	1	1	0	1	0
27	120	0	10000	1	1	0	1	0
26	121	0	10000	1	1	0	1	0
26	122	0	10000	1	1	0	1	0
26	123	0	10000	1	1	0	1	0
25	124	0	10000	1	1	0	1	0
24	125	0	10000	1	1	0	1	0
23	126	0	10000	1	1	0	1	0
23	127	0	10000	1	1	0	1	0
25	128	0	10000	1	1	0	1	0
24	129	0	10000	1	1	0	1	0
23	130	0	10000	1	1	0	1	0
23	131	0	10000	1	1	0	1	0
22	132	0	10000	1	1	0	1	0
22	133	0	10000	1	1	0	1	0
23	134	0	10000	1	1	0	1	0
23	135	0	10000	1	1	0	1	0
22	136	0	10000	1	1	0	1	0
22	137	0	10000	1	1	0	1	0
21	138	0	10000	1	1	0	1	0
21	139	0	10000	1	1	0	1	0
21	140	0	10000	1	1	0	1	0
20	141	0	10000	1	1	0	1	0
20	142	0	10000	1	1	0	1	0
20	143	0	10000	1	1	0	1	0
19	144	0	10000	1	1	0	1	0
19	145	0	10000	1	1	0	1	0
19	146	0	10000	1	1	0	1	0
21	147	0	10000	1	1	0	1	0
22	148	0	10000	1	1	0	1	0
20	149	0	10000	1	1	0	1	0
20	150	0	10000	1	1	0	1	0
21	151	0	10000	1	1	0	1	0
23	152	0	10000	1	1	0	1	0
24	153	0	10000	1	1	0	1	0
25	154	0	10000	1	1	0	1	0
25	155	0	10000	1	1	0	1	0
23	156	0	10000	1	1	0	1	0
24	157	0	10000	1	1	0	1	0
23	158	0	10000	1	1	0	1	0
27	159	0	10000	1	1	0	1	0
31	160	0	10000	1	1	0	1	0
32	161	0	10000	1	1	0	1	0
33	162	0	10000	1	1	0	1	0
33	163	0	10000	1	1	0	1	0
31	164	0	10000	1	1	0	1	0
30	165	0	10000	1	1	0	1	0
30	166	0	10000	1	1	0	1	0
29	167	0	10000	1	1	0	1	0
28	168	0	10000	1	1	0	1	0
27	169	0	10000	1	1	0	1	0
26	170	0	10000	1	1	0	1	0
26	171	0	10000	1	1	0	1	0
26	172	0	10000	1	1	0	1	0
25	173	0	10000	1	1	0	1	0
26	174	0	10000	1	1	0	1	0
28	175	0	10000	1	1	0	1	0
29	176	0	10000	1	1	0	1	0
29	177	0	10000	1	1	0	1	0
30	178	0	10000	1	1	0	1	0
30	179	0	10000	1	1	0	1	0
29	180	0	10000	1	1	0	1	0
28	181	0	10000	1	1	0	1	0
28	182	0	10000	1	1	0	1	0
27	183	0	10000	1	1	0	1	0
28	184	0	10000	1	1	0	1	0
27	185	0	10000	1	1	0	1	0
26	186	0	10000	1	1	0	1	0
26	187	0	10000	1	1	0	1	0
27	188	0	10000	1	1	0	1	0
28	189	0	10000	1	1	0	1	0
28	190	0	10000	1	1	0	1	0
30	191	0	10000	1	1	0	1	0
30	192	0	10000	1	1	0	1	0
29	193	0	10000	1	1	0	1	0
29	194	0	10000	1	1	0	1	0
28	195	0	10000	1	1	0	1	0
27	196	0	10000	1	1	0	1	0
28	197	0	10000	1	1	0	1	0
28	198	0	10000	1	1	0	1	0
30	199	0	10000	1	1	0	1	0
32	200	0	10000	1	1	0	1	0
30	201	0	10000	1	1	0	1	0
29	202	0	10000	1	1	0	1	0
30	203	0	10000	1	1	0	1	0
30	204	0	10000	1	1	0	1	0
29	205	0	10000	1	1	0	1	0
29	206	0	10000	1	1	0	1	0
29	207	0	10000	1	1	0	1	0
29	208	0	10000	1	1	0	1	0
27	209	0	10000	1	1	0	1	0
26	210	0	10000	1	1	0	1	0
25	211	0	10000	1	1	0	1	0
26	212	0	10000	1	1	0	1	0
29	213	0	10000	1	1	0	1	0
31	214	0	10000	1	1	0	1	0
32	215	0	10000	1	1	0	1	0
32	216	0	10000	1	1	0	1	0
31	217	0	10000	1	1	0	1	0
29	218	0	10000	1	1	0	1	0
30	219	0	10000	1	1	0	1	0
30	220	0	10000	1	1	0	1	0
28	221	0	10000	1	1	0	1	0
28	222	0	10000	1	1	0	1	0
29	223	0	10000	1	1	0	1	0
29	224	0	10000	1	1	0	1	0
28	225	0	10000	1	1	0	1	0
29	226	0	10000	1	1	0	1	0
31	227	0	10000	1	1	0	1	0
32	228	0	10000	1	1	0	1	0
29	229	0	10000	1	1	0	1	0
28	230	0	10000	1	1	0	1	0
29	231	0	10000	1	1	0	1	0
29	232	0	10000	1	1	0	1	0
28	233	0	10000	1	1	0	1	0
28	234	0	10000	1	1	0	1	0
29	235	0	10000	1	1	0	1	0
30	236	0	10000	1	1	0	1	0
31	237	0	10000	1	1	0	1	0
30	238	0	10000	1	1	0	1	0
30	239	0	10000	1	1	0	1	0
30	240	0	10000	1	1	0	1	0
29	241	0	10000	1	1	0	1	0
30	242	0	10000	1	1	0	1	0
32	243	0	10000	1	1	0	1	0
35	244	0	10000	1	1	0	1	0
38	245	0	10000	1	1	0	1	0
39	246	0	10000	1	1	0	1	0
38	247	0	10000	1	1	0	1	0
38	248	0	10000	1	1	0	1	0
37	249	0	10000	1	1	0	1	0
37	250	0	10000	1	1	0	1	0
38	251	0	10000	1	1	0	1	0
40	252	0	10000	1	1	0	1	0
44	253	0	10000	1	1	0	1	0
47	254	0	10000	1	1	0	1	0
47	255	0	10000	1	1	0	1	0
46	256	0	10000	1	1	0	1	0
44	257	0	10000	1	1	0	1	0
42	258	0	10000	1	1	0	1	0
42	259	0	10000	1	1	0	1	0
41	260	0	10000	1	1	0	1	0
40	261	0	10000	1	1	0	1	0
39	262	0	10000	1	1	0	1	0
39	263	0	10000	1	1	0	1	0
40	264	0	10000	1	1	0	1	0
39	265	0	10000	1	1	0	1	0
39	266	0	10000	1	1	0	1	0
39	267	0	10000	1	1	0	1	0
39	268	0	10000	1	1	0	1	0
36	269	0	10000	1	1	0	1	0
36	270	0	10000	1	1	0	1	0
36	271	0	10000	1	1	0	1	0
35	272	0	10000	1	1	0	1	0
34	273	0	10000	1	1	0	1	0
36	274	0	10000	1	1	0	1	0
34	275	0	10000	1	1	0	1	0
32	276	0	10000	1	1	0	1	0
31	277	0	10000	1	1	0	1	0
30	278	0	10000	1	1	0	1	0
31	279	0	10000	1	1	0	1	0
31	280	0	10000	1	1	0	1	0
32	281	0	10000	1	1	0	1	0
34	282	0	10000	1	1	0	1	0
37	283	0	10000	1	1	0	1	0
40	284	0	10000	1	1	0	1	0
40	285	0	10000	1	1	0	1	0
39	286	0	10000	1	1	0	1	0
40	287	0	10000	1	1	0	1	0
41	288	0	10000	1	1	0	1	0
40	289	0	10000	1	1	0	1	0
43	290	0	10000	1	1	0	1	0
48	291	0	10000	1	1	0	1	0
53	292	0	10000	1	1	0	1	0
55	293	0	10000	1	1	0	1	0
54	294	0	10000	1	1	0	1	0
56	295	0	10000	1	1	0	1	0
60	296	0	10000	1	1	0	1	0
63	297	0	10000	1	1	0	1	0
64	298	0	10000	1	1	0	1	0
65	299	0	10000	1	1	0	1	0
64	300	0	10000	1	1	0	1	0
67	301	0	10000	1	1	0	1	0
70	302	0	10000	1	1	0	1	0
69	303	0	10000	1	1	0	1	0
69	304	0	10000	1	1	0	1	0
70	305	0	10000	1	1	0	1	0
68	306	0	10000	1	1	0	1	0
65	307	0	10000	1	1	0	1	0
66	308	0	10000	1	1	0	1	0
67	309	0	10000	1	1	0	1	0
69	310	0	10000	1	1	0	1	0
69	311	0	10000	1	1	0	1	0
72	312	0	10000	1	1	0	1	0
80	313	0	10000	1	1	0	1	0
88	314	0	10000	1	1	0	1	0
93	315	0	10000	1	1	0	1	0
96	316	0	10000	1	1	0	1	0
97	317	0	10000	1	1	0	1	0
93	318	0	10000	1	1	0	1	0
90	319	0	10000	1	1	0	1	0
88	320	0	10000	1	1	0	1	0
86	321	0	10000	1	1	0	1	0
84	322	0	10000	1	1	0	1	0
82	323	0	10000	1	1	0	1	0
85	324	0	10000	1	1	0	1	0
91	325	0	10000	1	1	0	1	0
95	326	0	10000	1	1	0	1	0
95	327	0	10000	1	1	0	1	0
94	328	0	10000	1	1	0	1	0
97	329	0	10000	1	1	0	1	0
103	330	0	10000	1	1	0	1	0
105	331	0	10000	1	1	0	1	0
103	332	0	10000	1	1	0	1	0
102	333	0	10000	1	1	0	1	0
106	334	0	10000	1	1	0	1	0
112	335	0	10000	1	1	0	1	0
116	336	0	10000	1	1	0	1	0
112	337	0	10000	1	1	0	1	0
111	338	0	10000	1	1	0	1	0
110	339	0	10000	1	1	0	1	0
107	340	0	10000	1	1	0	1	0
102	341	0	10000	1	1	0	1	0
100	342	0	10000	1	1	0	1	0
98	343	0	10000	1	1	0	1	0
97	344	0	10000	1	1	0	1	0
99	345	0	10000	1	1	0	1	0
102	346	0	10000	1	1	0	1	0
102	347	0	10000	1	1	0	1	0
102	348	0	10000	1	1	0	1	0
99	349	0	10000	1	1	0	1	0
99	350	0	10000	1	1	0	1	0
100	351	0	10000	1	1	0	1	0
99	352	0	10000	1	1	0	1	0
96	353	0	10000	1	1	0	1	0
93	354	0	10000	1	1	0	1	0
92	355	0	10000	1	1	0	1	0
89	356	0	10000	1	1	0	1	0
87	357	0	10000	1	1	0	1	0
88	358	0	10000	1	1	0	1	0
92	359	0	10000	1	1	0	1	0
92	360	0	10000	1	1	0	1	0
89	361	0	10000	1	1	0	1	0
87	362	0	10000	1	1	0	1	0
82	363	0	10000	1	1	0	1	0
80	364	0	10000	1	1	0	1	0
77	365	0	10000	1	1	0	1	0
74	366	0	10000	1	1	0	1	0
73	367	0	10000	1	1	0	1	0
70	368	0	10000	1	1	0	1	0
68	369	0	10000	1	1	0	1	0
67	370	0	10000	1	1	0	1	0
66	371	0	10000	1	1	0	1	0
68	372	0	10000	1	1	0	1	0
74	373	0	10000	1	1	0	1	0
78	374	0	10000	1	1	0	1	0
85	375	0	10000	1	1	0	1	0
87	376	0	10000	1	1	0	1	0
85	377	0	10000	1	1	0	1	0
83	378	0	10000	1	1	0	1	0
82	379	0	10000	1	1	0	1	0
82	380	0	10000	1	1	0	1	0
83	381	0	10000	1	1	0	1	0
84	382	0	10000	1	1	0	1	0
81	383	0	10000	1	1	0	1	0
78	384	0	10000	1	1	0	1	0
77	385	0	10000	1	1	0	1	0
78	386	0	10000	1	1	0	1	0
81	387	0	10000	1	1	0	1	0
80	388	0	10000	1	1	0	1	0
76	389	0	10000	1	1	0	1	0
72	390	0	10000	1	1	0	1	0
70	391	0	10000	1	1	0	1	0
67	392	0	10000	1	1	0	1	0
65	393	0	10000	1	1	0	1	0
64	394	0	10000	1	1	0	1	0
64	395	0	10000	1	1	0	1	0
61	396	0	10000	1	1	0	1	0
61	397	0	10000	1	1	0	1	0
62	398	0	10000	1	1	0	1	0
65	399	0	10000	1	1	0	1	0
67	400	0	10000	1	1	0	1	0
68	401	0	10000	1	1	0	1	0
66	402	0	10000	1	1	0	1	0
63	403	0	10000	1	1	0	1	0
62	404	0	10000	1	1	0	1	0
62	405	0	10000	1	1	0	1	0
63	406	0	10000	1	1	0	1	0
63	407	0	10000	1	1	0	1	0
64	408	0	10000	1	1	0	1	0
61	409	0	10000	1	1	0	1	0
59	410	0	10000	1	1	0	1	0
61	411	0	10000	1	1	0	1	0
61	412	0	10000	1	1	0	1	0
59	413	0	10000	1	1	0	1	0
59	414	0	10000	1	1	0	1	0
65	415	0	10000	1	1	0	1	0
70	416	0	10000	1	1	0	1	0
68	417	0	10000	1	1	0	1	0
68	418	0	10000	1	1	0	1	0
73	419	0	10000	1	1	0	1	0
76	420	0	10000	1	1	0	1	0
76	421	0	10000	1	1	0	1	0
77	422	0	10000	1	1	0	1	0
73	423	0	10000	1	1	0	1	0
72	424	0	10000	1	1	0	1	0
74	425	0	10000	1	1	0	1	0
78	426	0	10000	1	1	0	1	0
82	427	0	10000	1	1	0	1	0
83	428	0	10000	1	1	0	1	0
79	429	0	10000	1	1	0	1	0
75	430	0	10000	1	1	0	1	0
75	431	0	10000	1	1	0	1	0
73	432	0	10000	1	1	0	1	0
77	433	0	10000	1	1	0	1	0
86	434	0	10000	1	1	0	1	0
95	435	0	10000	1	1	0	1	0
101	436	0	10000	1	1	0	1	0
105	437	0	10000	1	1	0	1	0
107	438	0	10000	1	1	0	1	0
104	439	0	10000	1	1	0	1	0
104	440	0	10000	1	1	0	1	0
106	441	0	10000	1	1	0	1	0
111	442	0	10000	1	1	0	1	0
118	443	0	10000	1	1	0	1	0
122	444	0	10000	1	1	0	1	0
120	445	0	10000	1	1	0	1	0
117	446	0	10000	1	1	0	1	0
121	447	0	10000	1	1	0	1	0
122	448	0	10000	1	1	0	1	0
120	449	0	10000	1	1	0	1	0
116	450	0	10000	1	1	0	1	0
115	451	0	10000	1	1	0	1	0
116	452	0	10000	1	1	0	1	0
115	453	0	10000	1	1	0	1	0
111	454	0	10000	1	1	0	1	0
112	455	0	10000	1	1	0	1	0
113	456	0	10000	1	1	0	1	0
109	457	0	10000	1	1	0	1	0
111	458	0	10000	1	1	0	1	0
116	459	0	10000	1	1	0	1	0
120	460	0	10000	1	1	0	1	0
121	461	0	10000	1	1	0	1	0
118	462	0	10000	1	1	0	1	0
117	463	0	10000	1	1	0	1	0
119	464	0	10000	1	1	0	1	0
124	465	0	10000	1	1	0	1	0
127	466	0	10000	1	1	0	1	0
127	467	0	10000	1	1	0	1	0
126	468	0	10000	1	1	0	1	0
119	469	0	10000	1	1	0	1	0
113	470	0	10000	1	1	0	1	0
110	471	0	10000	1	1	0	1	0
105	472	0	10000	1	1	0	1	0
102	473	0	10000	1	1	0	1	0
99	474	0	10000	1	1	0	1	0
99	475	0	10000	1	1	0	1	0
99	476	0	10000	1	1	0	1	0
98	477	0	10000	1	1	0	1	0
97	478	0	10000	1	1	0	1	0
96	479	0	10000	1	1	0	1	0
97	480	0	10000	1	1	0	1	0
95	481	0	10000	1	1	0	1	0
92	482	0	10000	1	1	0	1	0
93	483	0	10000	1	1	0	1	0
97	484	0	10000	1	1	0	1	0
100	485	0	10000	1	1	0	1	0
101	486	0	10000	1	1	0	1	0
98	487	0	10000	1	1	0	1	0
96	488	0	10000	1	1	0	1	0
93	489	0	10000	1	1	0	1	0
91	490	0	10000	1	1	0	1	0
88	491	0	10000	1	1	0	1	0
85	492	0	10000	1	1	0	1	0
83	493	0	10000	1	1	0	1	0
81	494	0	10000	1	1	0	1	0
79	495	0	10000	1	1	0	1	0
79	496	0	10000	1	1	0	1	0
75	497	0	10000	1	1	0	1	0
72	498	0	10000	1	1	0	1	0
73	499	0	10000	1	1	0	1	0
73	500	0	10000	1	1	0	1	0
70	501	0	10000	1	1	0	1	0
72	551	0	10000	1	1	0	1	1
78	552	0	10000	1	1	0	1	1
80	553	0	10000	1	1	0	1	1
77	554	0	10000	1	1	0	1	1
77	555	0	10000	1	1	0	1	1
85	556	0	10000	1	1	0	1	1
102	557	0	10000	1	1	0	1	1
115	558	0	10000	1	1	0	1	1
118	559	0	10000	1	1	0	1	1
113	560	0	10000	1	1	0	1	1
112	561	0	10000	1	1	0	1	1
115	562	0	10000	1	1	0	1	1
110	563	0	10000	1	1	0	1	1
110	564	0	10000	1	1	0	1	1
116	565	0	10000	1	1	0	1	1
118	566	0	10000	1	1	0	1	1
117	567	0	10000	1	1	0	1	1
120	568	0	10000	1	1	0	1	1
122	569	0	10000	1	1	0	1	1
123	570	0	10000	1	1	0	1	1
134	571	0	10000	1	1	0	1	1
140	572	0	10000	1	1	0	1	1
145	573	0	10000	1	1	0	1	1
170	574	0	10000	1	1	0	1	1
187	575	0	10000	1	1	0	1	1
186	576	0	10000	1	1	0	1	1
185	577	0	10000	1	1	0	1	1
185	578	0	10000	1	1	0	1	1
183	579	0	10000	1	1	0	1	1
186	580	0	10000	1	1	0	1	1
182	581	0	10000	1	1	0	1	1
179	582	0	10000	1	1	0	1	1
177	583	0	10000	1	1	0	1	1
171	584	0	10000	1	1	0	1	1
165	585	0	10000	1	1	0	1	1
165	586	0	10000	1	1	0	1	1
177	587	0	10000	1	1	0	1	1
192	588	0	10000	1	1	0	1	1
202	589	0	10000	1	1	0	1	1
207	590	0	10000	1	1	0	1	1
209	591	0	10000	1	1	0	1	1
213	592	0	10000	1	1	0	1	1
228	593	0	10000	1	1	0	1	1
246	594	0	10000	1	1	0	1	1
250	595	0	10000	1	1	0	1	1
247	596	0	10000	1	1	0	1	1
244	597	0	10000	1	1	0	1	1
248	598	0	10000	1	1	0	1	1
246	599	0	10000	1	1	0	1	1
237	600	0	10000	1	1	0	1	1
232	601	0	10000	1	1	0	1	1
234	602	0	10000	1	1	0	1	1
251	555	0	10000	1	1	0	1	0
279	556	0	10000	1	1	0	1	0
285	557	0	10000	1	1	0	1	0
275	558	0	10000	1	1	0	1	0
272	558	0	10000	1	1	0	1	0
268	559	0	10000	1	1	0	1	0
263	560	0	10000	1	1	0	1	0
264	561	0	10000	1	1	0	1	0
267	562	0	10000	1	1	0	1	0
276	563	0	10000	1	1	0	1	0
298	564	0	10000	1	1	0	1	0
312	565	0	10000	1	1	0	1	0
307	566	0	10000	1	1	0	1	0
297	567	0	10000	1	1	0	1	0
283	568	0	10000	1	1	0	1	0
273	569	0	10000	1	1	0	1	0
263	570	0	10000	1	1	0	1	0
253	571	0	10000	1	1	0	1	0
244	572	0	10000	1	1	0	1	0
236	573	0	10000	1	1	0	1	0
233	574	0	10000	1	1	0	1	0
231	575	0	10000	1	1	0	1	0
222	576	0	10000	1	1	0	1	0
217	577	0	10000	1	1	0	1	0
212	578	0	10000	1	1	0	1	0
208	579	0	10000	1	1	0	1	0
201	580	0	10000	1	1	0	1	0
197	581	0	10000	1	1	0	1	0
196	582	0	10000	1	1	0	1	0
193	583	0	10000	1	1	0	1	0
188	584	0	10000	1	1	0	1	0
184	585	0	10000	1	1	0	1	0
184	586	0	10000	1	1	0	1	0
192	587	0	10000	1	1	0	1	0
199	588	0	10000	1	1	0	1	0
200	589	0	10000	1	1	0	1	0
194	590	0	10000	1	1	0	1	0
190	591	0	10000	1	1	0	1	0
189	592	0	10000	1	1	0	1	0
191	593	0	10000	1	1	0	1	0
192	594	0	10000	1	1	0	1	0
194	595	0	10000	1	1	0	1	0
189	596	0	10000	1	1	0	1	0
183	597	0	10000	1	1	0	1	0
176	598	0	10000	1	1	0	1	0
170	599	0	10000	1	1	0	1	0
165	600	0	10000	1	1	0	1	0
161	601	0	10000	1	1	0	1	0
154	602	0	10000	1	1	0	1	0
154	603	0	10000	1	1	0	1	0
161	604	0	10000	1	1	0	1	0
169	605	0	10000	1	1	0	1	0
171	606	0	10000	1	1	0	1	0
171	607	0	10000	1	1	0	1	0
174	608	0	10000	1	1	0	1	0
179	609	0	10000	1	1	0	1	0
180	610	0	10000	1	1	0	1	0
182	611	0	10000	1	1	0	1	0
178	612	0	10000	1	1	0	1	0
175	613	0	10000	1	1	0	1	0
174	614	0	10000	1	1	0	1	0
173	615	0	10000	1	1	0	1	0
168	616	0	10000	1	1	0	1	0
164	617	0	10000	1	1	0	1	0
161	618	0	10000	1	1	0	1	0
164	619	0	10000	1	1	0	1	0
172	620	0	10000	1	1	0	1	0
179	621	0	10000	1	1	0	1	0
184	622	0	10000	1	1	0	1	0
181	623	0	10000	1	1	0	1	0
180	624	0	10000	1	1	0	1	0
185	625	0	10000	1	1	0	1	0
189	626	0	10000	1	1	0	1	0
193	627	0	10000	1	1	0	1	0
190	628	0	10000	1	1	0	1	0
183	629	0	10000	1	1	0	1	0
176	630	0	10000	1	1	0	1	0
169	631	0	10000	1	1	0	1	0
167	632	0	10000	1	1	0	1	0
169	633	0	10000	1	1	0	1	0
172	634	0	10000	1	1	0	1	0
174	635	0	10000	1	1	0	1	0
168	636	0	10000	1	1	0	1	0
164	637	0	10000	1	1	0	1	0
173	638	0	10000	1	1	0	1	0
191	639	0	10000	1	1	0	1	0
194	640	0	10000	1	1	0	1	0
199	641	0	10000	1	1	0	1	0
220	642	0	10000	1	1	0	1	0
227	643	0	10000	1	1	0	1	0
239	644	0	10000	1	1	0	1	0
249	645	0	10000	1	1	0	1	0
253	646	0	10000	1	1	0	1	0
261	647	0	10000	1	1	0	1	0
262	648	0	10000	1	1	0	1	0
261	649	0	10000	1	1	0	1	0
261	650	0	10000	1	1	0	1	0
258	651	0	10000	1	1	0	1	0
277	652	0	10000	1	1	0	1	0
301	653	0	10000	1	1	0	1	0
319	654	0	10000	1	1	0	1	0
324	655	0	10000	1	1	0	1	0
324	656	0	10000	1	1	0	1	0
321	657	0	10000	1	1	0	1	0
317	658	0	10000	1	1	0	1	0
350	659	0	10000	1	1	0	1	0
383	660	0	10000	1	1	0	1	0
394	661	0	10000	1	1	0	1	0
484	662	0	10000	1	1	0	1	0
637	663	0	10000	1	1	0	1	0
815	664	0	10000	1	1	0	1	0
922	665	0	10000	1	1	0	1	0
921	666	0	10000	1	1	0	1	0
943	667	0	10000	1	1	0	1	0
917	668	0	10000	1	1	0	1	0
899	669	0	10000	1	1	0	1	0
899	670	0	10000	1	1	0	1	0
870	671	0	10000	1	1	0	1	0
871	672	0	10000	1	1	0	1	0
906	673	0	10000	1	1	0	1	0
945	674	0	10000	1	1	0	1	0
981	675	0	10000	1	1	0	1	0
1021	676	0	10000	1	1	0	1	0
1031	677	0	10000	1	1	0	1	0
1027	678	0	10000	1	1	0	1	0
1011	679	0	10000	1	1	0	1	0
974	680	0	10000	1	1	0	1	0
942	681	0	10000	1	1	0	1	0
922	682	0	10000	1	1	0	1	0
913	683	0	10000	1	1	0	1	0
912	684	0	10000	1	1	0	1	0
910	685	0	10000	1	1	0	1	0
904	686	0	10000	1	1	0	1	0
898	687	0	10000	1	1	0	1	0
888	688	0	10000	1	1	0	1	0
876	689	0	10000	1	1	0	1	0
860	690	0	10000	1	1	0	1	0
842	691	0	10000	1	1	0	1	0
822	692	0	10000	1	1	0	1	0
801	693	0	10000	1	1	0	1	0
782	694	0	10000	1	1	0	1	0
764	695	0	10000	1	1	0	1	0
744	696	0	10000	1	1	0	1	0
726	697	0	10000	1	1	0	1	0
709	698	0	10000	1	1	0	1	0
688	699	0	10000	1	1	0	1	0
663	700	0	10000	1	1	0	1	0
635	701	0	10000	1	1	0	1	0
610	702	0	10000	1	1	0	1	0
586	703	0	10000	1	1	0	1	0
564	704	0	10000	1	1	0	1	0
552	705	0	10000	1	1	0	1	0
541	706	0	10000	1	1	0	1	0
522	707	0	10000	1	1	0	1	0
506	708	0	10000	1	1	0	1	0
492	709	0	10000	1	1	0	1	0
481	710	0	10000	1	1	0	1	0
476	711	0	10000	1	1	0	1	0
472	712	0	10000	1	1	0	1	0
467	713	0	10000	1	1	0	1	0
464	714	0	10000	1	1	0	1	0
458	715	0	10000	1	1	0	1	0
450	716	0	10000	1	1	0	1	0
440	717	0	10000	1	1	0	1	0
431	718	0	10000	1	1	0	1	0
421	719	0	10000	1	1	0	1	0
411	720	0	10000	1	1	0	1	0
400	721	0	10000	1	1	0	1	0
389	722	0	10000	1	1	0	1	0
377	723	0	10000	1	1	0	1	0
365	724	0	10000	1	1	0	1	0
354	725	0	10000	1	1	0	1	0
345	726	0	10000	1	1	0	1	0
339	727	0	10000	1	1	0	1	0
335	728	0	10000	1	1	0	1	0
331	729	0	10000	1	1	0	1	0
325	730	0	10000	1	1	0	1	0
321	731	0	10000	1	1	0	1	0
321	732	0	10000	1	1	0	1	0
321	733	0	10000	1	1	0	1	0
320	734	0	10000	1	1	0	1	0
317	735	0	10000	1	1	0	1	0
314	736	0	10000	1	1	0	1	0
310	737	0	10000	1	1	0	1	0
305	738	0	10000	1	1	0	1	0
297	739	0	10000	1	1	0	1	0
288	740	0	10000	1	1	0	1	0
277	741	0	10000	1	1	0	1	0
265	742	0	10000	1	1	0	1	0
254	743	0	10000	1	1	0	1	0
244	744	0	10000	1	1	0	1	0
234	745	0	10000	1	1	0	1	0
225	746	0	10000	1	1	0	1	0
215	747	0	10000	1	1	0	1	0
206	748	0	10000	1	1	0	1	0
201	749	0	10000	1	1	0	1	0
196	750	0	10000	1	1	0	1	0
193	751	0	10000	1	1	0	1	0
192	752	0	10000	1	1	0	1	0
191	753	0	10000	1	1	0	1	0
191	754	0	10000	1	1	0	1	0
192	755	0	10000	1	1	0	1	0
193	756	0	10000	1	1	0	1	0
194	757	0	10000	1	1	0	1	0
197	758	0	10000	1	1	0	1	0
201	759	0	10000	1	1	0	1	0
208	760	0	10000	1	1	0	1	0
215	761	0	10000	1	1	0	1	0
221	762	0	10000	1	1	0	1	0
227	763	0	10000	1	1	0	1	0
236	764	0	10000	1	1	0	1	0
245	765	0	10000	1	1	0	1	0
254	766	0	10000	1	1	0	1	0
263	767	0	10000	1	1	0	1	0
272	768	0	10000	1	1	0	1	0
281	769	0	10000	1	1	0	1	0
290	770	0	10000	1	1	0	1	0
298	771	0	10000	1	1	0	1	0
307	772	0	10000	1	1	0	1	0
315	773	0	10000	1	1	0	1	0
321	774	0	10000	1	1	0	1	0
325	775	0	10000	1	1	0	1	0
330	776	0	10000	1	1	0	1	0
335	777	0	10000	1	1	0	1	0
340	778	0	10000	1	1	0	1	0
345	779	0	10000	1	1	0	1	0
353	780	0	10000	1	1	0	1	0
357	781	0	10000	1	1	0	1	0
360	782	0	10000	1	1	0	1	0
362	783	0	10000	1	1	0	1	0
363	784	0	10000	1	1	0	1	0
363	785	0	10000	1	1	0	1	0
363	786	0	10000	1	1	0	1	0
363	787	0	10000	1	1	0	1	0
363	788	0	10000	1	1	0	1	0
364	789	0	10000	1	1	0	1	0
360	790	0	10000	1	1	0	1	0
356	791	0	10000	1	1	0	1	0
350	792	0	10000	1	1	0	1	0
344	793	0	10000	1	1	0	1	0
339	794	0	10000	1	1	0	1	0
333	795	0	10000	1	1	0	1	0
330	796	0	10000	1	1	0	1	0
326	797	0	10000	1	1	0	1	0
321	798	0	10000	1	1	0	1	0
317	799	0	10000	1	1	0	1	0
315	800	0	10000	1	1	0	1	0
310	801	0	10000	1	1	0	1	0
307	802	0	10000	1	1	0	1	0
303	803	0	10000	1	1	0	1	0
298	804	0	10000	1	1	0	1	0
293	805	0	10000	1	1	0	1	0
285	806	0	10000	1	1	0	1	0
278	807	0	10000	1	1	0	1	0
273	808	0	10000	1	1	0	1	0
266	809	0	10000	1	1	0	1	0
259	810	0	10000	1	1	0	1	0
253	811	0	10000	1	1	0	1	0
247	812	0	10000	1	1	0	1	0
241	813	0	10000	1	1	0	1	0
236	814	0	10000	1	1	0	1	0
230	815	0	10000	1	1	0	1	0
224	816	0	10000	1	1	0	1	0
219	817	0	10000	1	1	0	1	0
213	818	0	10000	1	1	0	1	0
208	819	0	10000	1	1	0	1	0
205	820	0	10000	1	1	0	1	0
199	821	0	10000	1	1	0	1	0
195	822	0	10000	1	1	0	1	0
189	823	0	10000	1	1	0	1	0
182	824	0	10000	1	1	0	1	0
175	825	0	10000	1	1	0	1	0
168	826	0	10000	1	1	0	1	0
160	827	0	10000	1	1	0	1	0
154	828	0	10000	1	1	0	1	0
149	829	0	10000	1	1	0	1	0
143	830	0	10000	1	1	0	1	0
136	831	0	10000	1	1	0	1	0
130	832	0	10000	1	1	0	1	0
125	833	0	10000	1	1	0	1	0
119	834	0	10000	1	1	0	1	0
114	835	0	10000	1	1	0	1	0
109	836	0	10000	1	1	0	1	0
104	837	0	10000	1	1	0	1	0
100	838	0	10000	1	1	0	1	0
97	839	0	10000	1	1	0	1	0
96	840	0	10000	1	1	0	1	0
93	841	0	10000	1	1	0	1	0
89	842	0	10000	1	1	0	1	0
85	843	0	10000	1	1	0	1	0
82	844	0	10000	1	1	0	1	0
80	845	0	10000	1	1	0	1	0
78	846	0	10000	1	1	0	1	0
76	847	0	10000	1	1	0	1	0
75	848	0	10000	1	1	0	1	0
73	849	0	10000	1	1	0	1	0
69	850	0	10000	1	1	0	1	0
69	851	0	10000	1	1	0	1	0
68	852	0	10000	1	1	0	1	0
69	853	0	10000	1	1	0	1	0
69	854	0	10000	1	1	0	1	0
69	855	0	10000	1	1	0	1	0
69	856	0	10000	1	1	0	1	0
69	857	0	10000	1	1	0	1	0
70	858	0	10000	1	1	0	1	0
71	859	0	10000	1	1	0	1	0
72	860	0	10000	1	1	0	1	0
70	861	0	10000	1	1	0	1	0
69	862	0	10000	1	1	0	1	0
70	863	0	10000	1	1	0	1	0
68	864	0	10000	1	1	0	1	0
68	865	0	10000	1	1	0	1	0
70	866	0	10000	1	1	0	1	0
70	867	0	10000	1	1	0	1	0
72	868	0	10000	1	1	0	1	0
74	869	0	10000	1	1	0	1	0
77	870	0	10000	1	1	0	1	0
80	871	0	10000	1	1	0	1	0
82	872	0	10000	1	1	0	1	0
84	873	0	10000	1	1	0	1	0
86	874	0	10000	1	1	0	1	0
88	875	0	10000	1	1	0	1	0
89	876	0	10000	1	1	0	1	0
91	877	0	10000	1	1	0	1	0
91	878	0	10000	1	1	0	1	0
93	879	0	10000	1	1	0	1	0
94	880	0	10000	1	1	0	1	0
93	881	0	10000	1	1	0	1	0
92	882	0	10000	1	1	0	1	0
92	883	0	10000	1	1	0	1	0
92	884	0	10000	1	1	0	1	0
92	885	0	10000	1	1	0	1	0
92	886	0	10000	1	1	0	1	0
92	887	0	10000	1	1	0	1	0
90	888	0	10000	1	1	0	1	0
90	889	0	10000	1	1	0	1	0
88	890	0	10000	1	1	0	1	0
87	891	0	10000	1	1	0	1	0
87	892	0	10000	1	1	0	1	0
85	893	0	10000	1	1	0	1	0
82	894	0	10000	1	1	0	1	0
79	895	0	10000	1	1	0	1	0
80	896	0	10000	1	1	0	1	0
80	897	0	10000	1	1	0	1	0
76	898	0	10000	1	1	0	1	0
74	899	0	10000	1	1	0	1	0
74	900	0	10000	1	1	0	1	0
72	901	0	10000	1	1	0	1	0
69	902	0	10000	1	1	0	1	0
68	903	0	10000	1	1	0	1	0
66	904	0	10000	1	1	0	1	0
63	905	0	10000	1	1	0	1	0
61	906	0	10000	1	1	0	1	0
58	907	0	10000	1	1	0	1	0
57	908	0	10000	1	1	0	1	0
55	909	0	10000	1	1	0	1	0
53	910	0	10000	1	1	0	1	0
52	911	0	10000	1	1	0	1	0
52	912	0	10000	1	1	0	1	0
52	913	0	10000	1	1	0	1	0
51	914	0	10000	1	1	0	1	0
49	915	0	10000	1	1	0	1	0
48	916	0	10000	1	1	0	1	0
45	917	0	10000	1	1	0	1	0
45	918	0	10000	1	1	0	1	0
45	919	0	10000	1	1	0	1	0
46	920	0	10000	1	1	0	1	0
47	921	0	10000	1	1	0	1	0
47	922	0	10000	1	1	0	1	0
47	923	0	10000	1	1	0	1	0
46	924	0	10000	1	1	0	1	0
46	925	0	10000	1	1	0	1	0
46	926	0	10000	1	1	0	1	0
45	927	0	10000	1	1	0	1	0
44	928	0	10000	1	1	0	1	0
43	929	0	10000	1	1	0	1	0
41	930	0	10000	1	1	0	1	0
41	931	0	10000	1	1	0	1	0
40	932	0	10000	1	1	0	1	0
39	933	0	10000	1	1	0	1	0
38	934	0	10000	1	1	0	1	0
36	935	0	10000	1	1	0	1	0
35	936	0	10000	1	1	0	1	0
34	937	0	10000	1	1	0	1	0
32	938	0	10000	1	1	0	1	0
33	939	0	10000	1	1	0	1	0
37	940	0	10000	1	1	0	1	0
37	941	0	10000	1	1	0	1	0
38	942	0	10000	1	1	0	1	0
40	943	0	10000	1	1	0	1	0
43	944	0	10000	1	1	0	1	0
45	945	0	10000	1	1	0	1	0
49	946	0	10000	1	1	0	1	0
56	947	0	10000	1	1	0	1	0
63	948	0	10000	1	1	0	1	0
67	949	0	10000	1	1	0	1	0
68	950	0	10000	1	1	0	1	0
69	951	0	10000	1	1	0	1	0
68	952	0	10000	1	1	0	1	0
65	953	0	10000	1	1	0	1	0
62	954	0	10000	1	1	0	1	0
61	955	0	10000	1	1	0	1	0
62	956	0	10000	1	1	0	1	0
62	957	0	10000	1	1	0	1	0
65	958	0	10000	1	1	0	1	0
70	959	0	10000	1	1	0	1	0
76	960	0	10000	1	1	0	1	0
79	961	0	10000	1	1	0	1	0
82	962	0	10000	1	1	0	1	0
81	963	0	10000	1	1	0	1	0
82	964	0	10000	1	1	0	1	0
83	965	0	10000	1	1	0	1	0
85	966	0	10000	1	1	0	1	0
90	967	0	10000	1	1	0	1	0
96	968	0	10000	1	1	0	1	0
99	969	0	10000	1	1	0	1	0
100	970	0	10000	1	1	0	1	0
101	971	0	10000	1	1	0	1	0
99	972	0	10000	1	1	0	1	0
97	973	0	10000	1	1	0	1	0
96	974	0	10000	1	1	0	1	0
95	975	0	10000	1	1	0	1	0
96	976	0	10000	1	1	0	1	0
96	977	0	10000	1	1	0	1	0
94	978	0	10000	1	1	0	1	0
92	979	0	10000	1	1	0	1	0
91	980	0	10000	1	1	0	1	0
86	981	0	10000	1	1	0	1	0
82	982	0	10000	1	1	0	1	0
78	983	0	10000	1	1	0	1	0
75	984	0	10000	1	1	0	1	0
73	985	0	10000	1	1	0	1	0
71	986	0	10000	1	1	0	1	0
70	987	0	10000	1	1	0	1	0
69	988	0	10000	1	1	0	1	0
68	989	0	10000	1	1	0	1	0
66	990	0	10000	1	1	0	1	0
64	991	0	10000	1	1	0	1	0
63	992	0	10000	1	1	0	1	0
64	993	0	10000	1	1	0	1	0
64	994	0	10000	1	1	0	1	0
63	995	0	10000	1	1	0	1	0
63	996	0	10000	1	1	0	1	0
63	997	0	10000	1	1	0	1	0
64	998	0	10000	1	1	0	1	0
67	999	0	10000	1	1	0	1	0
70	1000	0	10000	1	1	0	1	0
71	1001	0	10000	1	1	0	1	0
74	1	1	10000	2	1	0	2	0
73	2	1	10000	2	1	0	2	0
72	3	1	10000	2	1	0	2	0
70	4	1	10000	2	1	0	2	0
69	5	1	10000	2	1	0	2	0
68	6	1	10000	2	1	0	2	0
68	7	1	10000	2	1	0	2	0
67	8	1	10000	2	1	0	2	0
65	9	1	10000	2	1	0	2	0
63	10	1	10000	2	1	0	2	0
60	11	1	10000	2	1	0	2	0
59	12	1	10000	2	1	0	2	0
57	13	1	10000	2	1	0	2	0
56	14	1	10000	2	1	0	2	0
53	15	1	10000	2	1	0	2	0
51	16	1	10000	2	1	0	2	0
54	17	1	10000	2	1	0	2	0
53	18	1	10000	2	1	0	2	0
52	19	1	10000	2	1	0	2	0
55	20	1	10000	2	1	0	2	0
58	21	1	10000	2	1	0	2	0
59	22	1	10000	2	1	0	2	0
58	23	1	10000	2	1	0	2	0
56	24	1	10000	2	1	0	2	0
55	25	1	10000	2	1	0	2	0
55	26	1	10000	2	1	0	2	0
53	27	1	10000	2	1	0	2	0
56	28	1	10000	2	1	0	2	0
59	29	1	10000	2	1	0	2	0
61	30	1	10000	2	1	0	2	0
59	31	1	10000	2	1	0	2	0
57	32	1	10000	2	1	0	2	0
58	33	1	10000	2	1	0	2	0
58	34	1	10000	2	1	0	2	0
56	35	1	10000	2	1	0	2	0
54	36	1	10000	2	1	0	2	0
52	37	1	10000	2	1	0	2	0
51	38	1	10000	2	1	0	2	0
51	39	1	10000	2	1	0	2	0
49	40	1	10000	2	1	0	2	0
49	41	1	10000	2	1	0	2	0
53	42	1	10000	2	1	0	2	0
59	43	1	10000	2	1	0	2	0
58	44	1	10000	2	1	0	2	0
57	45	1	10000	2	1	0	2	0
55	46	1	10000	2	1	0	2	0
53	47	1	10000	2	1	0	2	0
54	48	1	10000	2	1	0	2	0
54	49	1	10000	2	1	0	2	0
54	50	1	10000	2	1	0	2	0
52	51	1	10000	2	1	0	2	0
49	52	1	10000	2	1	0	2	0
47	53	1	10000	2	1	0	2	0
47	54	1	10000	2	1	0	2	0
45	55	1	10000	2	1	0	2	0
46	56	1	10000	2	1	0	2	0
46	57	1	10000	2	1	0	2	0
45	58	1	10000	2	1	0	2	0
45	59	1	10000	2	1	0	2	0
44	60	1	10000	2	1	0	2	0
47	61	1	10000	2	1	0	2	0
47	62	1	10000	2	1	0	2	0
47	63	1	10000	2	1	0	2	0
49	64	1	10000	2	1	0	2	0
50	65	1	10000	2	1	0	2	0
50	66	1	10000	2	1	0	2	0
48	67	1	10000	2	1	0	2	0
46	68	1	10000	2	1	0	2	0
45	69	1	10000	2	1	0	2	0
45	70	1	10000	2	1	0	2	0
44	71	1	10000	2	1	0	2	0
42	72	1	10000	2	1	0	2	0
41	73	1	10000	2	1	0	2	0
39	74	1	10000	2	1	0	2	0
40	75	1	10000	2	1	0	2	0
42	76	1	10000	2	1	0	2	0
45	77	1	10000	2	1	0	2	0
46	78	1	10000	2	1	0	2	0
47	79	1	10000	2	1	0	2	0
48	80	1	10000	2	1	0	2	0
51	81	1	10000	2	1	0	2	0
51	82	1	10000	2	1	0	2	0
50	83	1	10000	2	1	0	2	0
49	84	1	10000	2	1	0	2	0
48	85	1	10000	2	1	0	2	0
45	86	1	10000	2	1	0	2	0
44	87	1	10000	2	1	0	2	0
44	88	1	10000	2	1	0	2	0
42	89	1	10000	2	1	0	2	0
41	90	1	10000	2	1	0	2	0
39	91	1	10000	2	1	0	2	0
37	92	1	10000	2	1	0	2	0
36	93	1	10000	2	1	0	2	0
36	94	1	10000	2	1	0	2	0
36	95	1	10000	2	1	0	2	0
36	96	1	10000	2	1	0	2	0
35	97	1	10000	2	1	0	2	0
34	98	1	10000	2	1	0	2	0
32	99	1	10000	2	1	0	2	0
31	100	1	10000	2	1	0	2	0
31	101	1	10000	2	1	0	2	0
31	102	1	10000	2	1	0	2	0
31	103	1	10000	2	1	0	2	0
30	104	1	10000	2	1	0	2	0
30	105	1	10000	2	1	0	2	0
30	106	1	10000	2	1	0	2	0
32	107	1	10000	2	1	0	2	0
33	108	1	10000	2	1	0	2	0
32	109	1	10000	2	1	0	2	0
32	110	1	10000	2	1	0	2	0
33	111	1	10000	2	1	0	2	0
33	112	1	10000	2	1	0	2	0
33	113	1	10000	2	1	0	2	0
33	114	1	10000	2	1	0	2	0
33	115	1	10000	2	1	0	2	0
33	116	1	10000	2	1	0	2	0
34	117	1	10000	2	1	0	2	0
35	118	1	10000	2	1	0	2	0
34	119	1	10000	2	1	0	2	0
33	120	1	10000	2	1	0	2	0
34	121	1	10000	2	1	0	2	0
34	122	1	10000	2	1	0	2	0
32	123	1	10000	2	1	0	2	0
31	124	1	10000	2	1	0	2	0
31	125	1	10000	2	1	0	2	0
29	126	1	10000	2	1	0	2	0
29	127	1	10000	2	1	0	2	0
29	128	1	10000	2	1	0	2	0
31	129	1	10000	2	1	0	2	0
31	130	1	10000	2	1	0	2	0
28	131	1	10000	2	1	0	2	0
28	132	1	10000	2	1	0	2	0
28	133	1	10000	2	1	0	2	0
30	134	1	10000	2	1	0	2	0
32	135	1	10000	2	1	0	2	0
31	136	1	10000	2	1	0	2	0
31	137	1	10000	2	1	0	2	0
30	138	1	10000	2	1	0	2	0
30	139	1	10000	2	1	0	2	0
31	140	1	10000	2	1	0	2	0
32	141	1	10000	2	1	0	2	0
32	142	1	10000	2	1	0	2	0
31	143	1	10000	2	1	0	2	0
30	144	1	10000	2	1	0	2	0
32	145	1	10000	2	1	0	2	0
35	146	1	10000	2	1	0	2	0
36	147	1	10000	2	1	0	2	0
35	148	1	10000	2	1	0	2	0
34	149	1	10000	2	1	0	2	0
33	150	1	10000	2	1	0	2	0
32	151	1	10000	2	1	0	2	0
32	152	1	10000	2	1	0	2	0
33	153	1	10000	2	1	0	2	0
32	154	1	10000	2	1	0	2	0
33	155	1	10000	2	1	0	2	0
33	156	1	10000	2	1	0	2	0
33	157	1	10000	2	1	0	2	0
32	158	1	10000	2	1	0	2	0
33	159	1	10000	2	1	0	2	0
33	160	1	10000	2	1	0	2	0
35	161	1	10000	2	1	0	2	0
38	162	1	10000	2	1	0	2	0
39	163	1	10000	2	1	0	2	0
38	164	1	10000	2	1	0	2	0
37	165	1	10000	2	1	0	2	0
35	166	1	10000	2	1	0	2	0
34	167	1	10000	2	1	0	2	0
36	168	1	10000	2	1	0	2	0
37	169	1	10000	2	1	0	2	0
38	170	1	10000	2	1	0	2	0
36	171	1	10000	2	1	0	2	0
34	172	1	10000	2	1	0	2	0
33	173	1	10000	2	1	0	2	0
33	174	1	10000	2	1	0	2	0
34	175	1	10000	2	1	0	2	0
34	176	1	10000	2	1	0	2	0
33	177	1	10000	2	1	0	2	0
35	178	1	10000	2	1	0	2	0
35	179	1	10000	2	1	0	2	0
34	180	1	10000	2	1	0	2	0
36	181	1	10000	2	1	0	2	0
36	182	1	10000	2	1	0	2	0
34	183	1	10000	2	1	0	2	0
33	184	1	10000	2	1	0	2	0
33	185	1	10000	2	1	0	2	0
32	186	1	10000	2	1	0	2	0
32	187	1	10000	2	1	0	2	0
34	188	1	10000	2	1	0	2	0
35	189	1	10000	2	1	0	2	0
36	190	1	10000	2	1	0	2	0
35	191	1	10000	2	1	0	2	0
36	192	1	10000	2	1	0	2	0
36	193	1	10000	2	1	0	2	0
36	194	1	10000	2	1	0	2	0
35	195	1	10000	2	1	0	2	0
36	196	1	10000	2	1	0	2	0
35	197	1	10000	2	1	0	2	0
35	198	1	10000	2	1	0	2	0
35	199	1	10000	2	1	0	2	0
33	200	1	10000	2	1	0	2	0
35	201	1	10000	2	1	0	2	0
37	202	1	10000	2	1	0	2	0
35	203	1	10000	2	1	0	2	0
33	204	1	10000	2	1	0	2	0
33	205	1	10000	2	1	0	2	0
33	206	1	10000	2	1	0	2	0
32	207	1	10000	2	1	0	2	0
32	208	1	10000	2	1	0	2	0
31	209	1	10000	2	1	0	2	0
30	210	1	10000	2	1	0	2	0
28	211	1	10000	2	1	0	2	0
29	212	1	10000	2	1	0	2	0
28	213	1	10000	2	1	0	2	0
27	214	1	10000	2	1	0	2	0
26	215	1	10000	2	1	0	2	0
26	216	1	10000	2	1	0	2	0
28	217	1	10000	2	1	0	2	0
29	218	1	10000	2	1	0	2	0
29	219	1	10000	2	1	0	2	0
28	220	1	10000	2	1	0	2	0
29	221	1	10000	2	1	0	2	0
28	222	1	10000	2	1	0	2	0
27	223	1	10000	2	1	0	2	0
26	224	1	10000	2	1	0	2	0
25	225	1	10000	2	1	0	2	0
24	226	1	10000	2	1	0	2	0
24	227	1	10000	2	1	0	2	0
24	228	1	10000	2	1	0	2	0
24	229	1	10000	2	1	0	2	0
24	230	1	10000	2	1	0	2	0
23	231	1	10000	2	1	0	2	0
24	232	1	10000	2	1	0	2	0
24	233	1	10000	2	1	0	2	0
24	234	1	10000	2	1	0	2	0
25	235	1	10000	2	1	0	2	0
28	236	1	10000	2	1	0	2	0
31	237	1	10000	2	1	0	2	0
34	238	1	10000	2	1	0	2	0
38	239	1	10000	2	1	0	2	0
41	240	1	10000	2	1	0	2	0
46	241	1	10000	2	1	0	2	0
50	242	1	10000	2	1	0	2	0
53	243	1	10000	2	1	0	2	0
55	244	1	10000	2	1	0	2	0
54	245	1	10000	2	1	0	2	0
52	246	1	10000	2	1	0	2	0
50	247	1	10000	2	1	0	2	0
49	248	1	10000	2	1	0	2	0
48	249	1	10000	2	1	0	2	0
47	250	1	10000	2	1	0	2	0
44	251	1	10000	2	1	0	2	0
42	252	1	10000	2	1	0	2	0
41	253	1	10000	2	1	0	2	0
40	254	1	10000	2	1	0	2	0
40	255	1	10000	2	1	0	2	0
38	256	1	10000	2	1	0	2	0
36	257	1	10000	2	1	0	2	0
35	258	1	10000	2	1	0	2	0
33	259	1	10000	2	1	0	2	0
32	260	1	10000	2	1	0	2	0
32	261	1	10000	2	1	0	2	0
32	262	1	10000	2	1	0	2	0
33	263	1	10000	2	1	0	2	0
35	264	1	10000	2	1	0	2	0
39	265	1	10000	2	1	0	2	0
42	266	1	10000	2	1	0	2	0
42	267	1	10000	2	1	0	2	0
42	268	1	10000	2	1	0	2	0
42	269	1	10000	2	1	0	2	0
45	270	1	10000	2	1	0	2	0
44	271	1	10000	2	1	0	2	0
43	272	1	10000	2	1	0	2	0
43	273	1	10000	2	1	0	2	0
45	274	1	10000	2	1	0	2	0
52	275	1	10000	2	1	0	2	0
57	276	1	10000	2	1	0	2	0
60	277	1	10000	2	1	0	2	0
62	278	1	10000	2	1	0	2	0
62	279	1	10000	2	1	0	2	0
60	280	1	10000	2	1	0	2	0
59	281	1	10000	2	1	0	2	0
57	282	1	10000	2	1	0	2	0
55	283	1	10000	2	1	0	2	0
52	284	1	10000	2	1	0	2	0
50	285	1	10000	2	1	0	2	0
48	286	1	10000	2	1	0	2	0
48	287	1	10000	2	1	0	2	0
48	288	1	10000	2	1	0	2	0
49	289	1	10000	2	1	0	2	0
48	290	1	10000	2	1	0	2	0
44	291	1	10000	2	1	0	2	0
42	292	1	10000	2	1	0	2	0
44	293	1	10000	2	1	0	2	0
45	294	1	10000	2	1	0	2	0
47	295	1	10000	2	1	0	2	0
49	296	1	10000	2	1	0	2	0
51	297	1	10000	2	1	0	2	0
51	298	1	10000	2	1	0	2	0
51	299	1	10000	2	1	0	2	0
52	300	1	10000	2	1	0	2	0
55	301	1	10000	2	1	0	2	0
56	302	1	10000	2	1	0	2	0
53	303	1	10000	2	1	0	2	0
51	304	1	10000	2	1	0	2	0
51	305	1	10000	2	1	0	2	0
53	306	1	10000	2	1	0	2	0
55	307	1	10000	2	1	0	2	0
54	308	1	10000	2	1	0	2	0
52	309	1	10000	2	1	0	2	0
50	310	1	10000	2	1	0	2	0
47	311	1	10000	2	1	0	2	0
46	312	1	10000	2	1	0	2	0
46	313	1	10000	2	1	0	2	0
45	314	1	10000	2	1	0	2	0
44	315	1	10000	2	1	0	2	0
42	316	1	10000	2	1	0	2	0
42	317	1	10000	2	1	0	2	0
42	318	1	10000	2	1	0	2	0
43	319	1	10000	2	1	0	2	0
43	320	1	10000	2	1	0	2	0
45	321	1	10000	2	1	0	2	0
45	322	1	10000	2	1	0	2	0
43	323	1	10000	2	1	0	2	0
43	324	1	10000	2	1	0	2	0
42	325	1	10000	2	1	0	2	0
44	326	1	10000	2	1	0	2	0
45	327	1	10000	2	1	0	2	0
47	328	1	10000	2	1	0	2	0
46	329	1	10000	2	1	0	2	0
45	330	1	10000	2	1	0	2	0
43	331	1	10000	2	1	0	2	0
42	332	1	10000	2	1	0	2	0
42	333	1	10000	2	1	0	2	0
40	334	1	10000	2	1	0	2	0
39	335	1	10000	2	1	0	2	0
38	336	1	10000	2	1	0	2	0
39	337	1	10000	2	1	0	2	0
39	338	1	10000	2	1	0	2	0
39	339	1	10000	2	1	0	2	0
38	340	1	10000	2	1	0	2	0
39	341	1	10000	2	1	0	2	0
37	342	1	10000	2	1	0	2	0
36	343	1	10000	2	1	0	2	0
36	344	1	10000	2	1	0	2	0
39	345	1	10000	2	1	0	2	0
43	346	1	10000	2	1	0	2	0
47	347	1	10000	2	1	0	2	0
48	348	1	10000	2	1	0	2	0
48	349	1	10000	2	1	0	2	0
48	350	1	10000	2	1	0	2	0
45	351	1	10000	2	1	0	2	0
47	352	1	10000	2	1	0	2	0
53	353	1	10000	2	1	0	2	0
59	354	1	10000	2	1	0	2	0
64	355	1	10000	2	1	0	2	0
68	356	1	10000	2	1	0	2	0
71	357	1	10000	2	1	0	2	0
70	358	1	10000	2	1	0	2	0
69	359	1	10000	2	1	0	2	0
69	360	1	10000	2	1	0	2	0
70	361	1	10000	2	1	0	2	0
70	362	1	10000	2	1	0	2	0
70	363	1	10000	2	1	0	2	0
68	364	1	10000	2	1	0	2	0
65	365	1	10000	2	1	0	2	0
63	366	1	10000	2	1	0	2	0
60	367	1	10000	2	1	0	2	0
59	368	1	10000	2	1	0	2	0
59	369	1	10000	2	1	0	2	0
61	370	1	10000	2	1	0	2	0
65	371	1	10000	2	1	0	2	0
69	372	1	10000	2	1	0	2	0
73	373	1	10000	2	1	0	2	0
78	374	1	10000	2	1	0	2	0
81	375	1	10000	2	1	0	2	0
82	376	1	10000	2	1	0	2	0
79	377	1	10000	2	1	0	2	0
77	378	1	10000	2	1	0	2	0
73	379	1	10000	2	1	0	2	0
71	380	1	10000	2	1	0	2	0
71	381	1	10000	2	1	0	2	0
69	382	1	10000	2	1	0	2	0
70	383	1	10000	2	1	0	2	0
71	384	1	10000	2	1	0	2	0
69	385	1	10000	2	1	0	2	0
68	386	1	10000	2	1	0	2	0
66	387	1	10000	2	1	0	2	0
67	388	1	10000	2	1	0	2	0
66	389	1	10000	2	1	0	2	0
64	390	1	10000	2	1	0	2	0
61	391	1	10000	2	1	0	2	0
58	392	1	10000	2	1	0	2	0
57	393	1	10000	2	1	0	2	0
58	394	1	10000	2	1	0	2	0
58	395	1	10000	2	1	0	2	0
58	396	1	10000	2	1	0	2	0
56	397	1	10000	2	1	0	2	0
54	398	1	10000	2	1	0	2	0
51	399	1	10000	2	1	0	2	0
49	400	1	10000	2	1	0	2	0
49	401	1	10000	2	1	0	2	0
50	402	1	10000	2	1	0	2	0
51	403	1	10000	2	1	0	2	0
51	404	1	10000	2	1	0	2	0
48	405	1	10000	2	1	0	2	0
47	406	1	10000	2	1	0	2	0
47	407	1	10000	2	1	0	2	0
45	408	1	10000	2	1	0	2	0
44	409	1	10000	2	1	0	2	0
45	410	1	10000	2	1	0	2	0
45	411	1	10000	2	1	0	2	0
48	412	1	10000	2	1	0	2	0
50	413	1	10000	2	1	0	2	0
53	414	1	10000	2	1	0	2	0
55	415	1	10000	2	1	0	2	0
53	416	1	10000	2	1	0	2	0
51	417	1	10000	2	1	0	2	0
51	418	1	10000	2	1	0	2	0
48	419	1	10000	2	1	0	2	0
47	420	1	10000	2	1	0	2	0
50	421	1	10000	2	1	0	2	0
53	422	1	10000	2	1	0	2	0
52	423	1	10000	2	1	0	2	0
51	424	1	10000	2	1	0	2	0
48	425	1	10000	2	1	0	2	0
46	426	1	10000	2	1	0	2	0
46	427	1	10000	2	1	0	2	0
45	428	1	10000	2	1	0	2	0
47	429	1	10000	2	1	0	2	0
49	430	1	10000	2	1	0	2	0
48	431	1	10000	2	1	0	2	0
48	432	1	10000	2	1	0	2	0
49	433	1	10000	2	1	0	2	0
49	434	1	10000	2	1	0	2	0
48	435	1	10000	2	1	0	2	0
48	436	1	10000	2	1	0	2	0
45	437	1	10000	2	1	0	2	0
46	438	1	10000	2	1	0	2	0
48	439	1	10000	2	1	0	2	0
50	440	1	10000	2	1	0	2	0
51	441	1	10000	2	1	0	2	0
50	442	1	10000	2	1	0	2	0
47	443	1	10000	2	1	0	2	0
45	444	1	10000	2	1	0	2	0
44	445	1	10000	2	1	0	2	0
45	446	1	10000	2	1	0	2	0
49	447	1	10000	2	1	0	2	0
51	448	1	10000	2	1	0	2	0
50	449	1	10000	2	1	0	2	0
47	450	1	10000	2	1	0	2	0
46	451	1	10000	2	1	0	2	0
47	452	1	10000	2	1	0	2	0
53	453	1	10000	2	1	0	2	0
59	454	1	10000	2	1	0	2	0
60	455	1	10000	2	1	0	2	0
58	456	1	10000	2	1	0	2	0
56	457	1	10000	2	1	0	2	0
56	458	1	10000	2	1	0	2	0
54	459	1	10000	2	1	0	2	0
51	460	1	10000	2	1	0	2	0
50	461	1	10000	2	1	0	2	0
48	462	1	10000	2	1	0	2	0
46	463	1	10000	2	1	0	2	0
44	464	1	10000	2	1	0	2	0
44	465	1	10000	2	1	0	2	0
45	466	1	10000	2	1	0	2	0
44	467	1	10000	2	1	0	2	0
44	468	1	10000	2	1	0	2	0
45	469	1	10000	2	1	0	2	0
47	470	1	10000	2	1	0	2	0
47	471	1	10000	2	1	0	2	0
46	472	1	10000	2	1	0	2	0
45	473	1	10000	2	1	0	2	0
46	474	1	10000	2	1	0	2	0
46	475	1	10000	2	1	0	2	0
44	476	1	10000	2	1	0	2	0
44	477	1	10000	2	1	0	2	0
44	478	1	10000	2	1	0	2	0
47	479	1	10000	2	1	0	2	0
49	480	1	10000	2	1	0	2	0
49	481	1	10000	2	1	0	2	0
48	482	1	10000	2	1	0	2	0
49	483	1	10000	2	1	0	2	0
48	484	1	10000	2	1	0	2	0
49	485	1	10000	2	1	0	2	0
52	486	1	10000	2	1	0	2	0
50	487	1	10000	2	1	0	2	0
50	488	1	10000	2	1	0	2	0
52	489	1	10000	2	1	0	2	0
55	490	1	10000	2	1	0	2	0
55	491	1	10000	2	1	0	2	0
56	492	1	10000	2	1	0	2	0
57	493	1	10000	2	1	0	2	0
57	494	1	10000	2	1	0	2	0
56	495	1	10000	2	1	0	2	0
54	496	1	10000	2	1	0	2	0
52	497	1	10000	2	1	0	2	0
50	498	1	10000	2	1	0	2	0
50	499	1	10000	2	1	0	2	0
51	500	1	10000	2	1	0	2	0
49	501	1	10000	2	1	0	2	1
49	502	1	10000	2	1	0	2	1
47	503	1	10000	2	1	0	2	1
46	504	1	10000	2	1	0	2	1
45	505	1	10000	2	1	0	2	1
44	506	1	10000	2	1	0	2	1
43	507	1	10000	2	1	0	2	1
43	508	1	10000	2	1	0	2	1
43	509	1	10000	2	1	0	2	1
44	510	1	10000	2	1	0	2	1
46	511	1	10000	2	1	0	2	1
51	512	1	10000	2	1	0	2	1
54	513	1	10000	2	1	0	2	1
53	514	1	10000	2	1	0	2	1
53	515	1	10000	2	1	0	2	1
53	516	1	10000	2	1	0	2	1
53	517	1	10000	2	1	0	2	1
51	518	1	10000	2	1	0	2	1
50	519	1	10000	2	1	0	2	1
51	520	1	10000	2	1	0	2	1
53	521	1	10000	2	1	0	2	1
55	522	1	10000	2	1	0	2	1
57	523	1	10000	2	1	0	2	1
58	524	1	10000	2	1	0	2	1
59	525	1	10000	2	1	0	2	1
61	526	1	10000	2	1	0	2	1
61	527	1	10000	2	1	0	2	1
60	528	1	10000	2	1	0	2	1
60	529	1	10000	2	1	0	2	1
60	530	1	10000	2	1	0	2	1
59	531	1	10000	2	1	0	2	1
57	532	1	10000	2	1	0	2	1
55	533	1	10000	2	1	0	2	1
54	534	1	10000	2	1	0	2	1
52	535	1	10000	2	1	0	2	1
51	536	1	10000	2	1	0	2	1
49	537	1	10000	2	1	0	2	1
47	538	1	10000	2	1	0	2	1
46	539	1	10000	2	1	0	2	1
44	540	1	10000	2	1	0	2	1
45	541	1	10000	2	1	0	2	1
47	542	1	10000	2	1	0	2	1
47	543	1	10000	2	1	0	2	1
46	544	1	10000	2	1	0	2	1
44	545	1	10000	2	1	0	2	1
43	546	1	10000	2	1	0	2	1
42	547	1	10000	2	1	0	2	1
43	548	1	10000	2	1	0	2	1
41	549	1	10000	2	1	0	2	1
44	550	1	10000	2	1	0	2	1
45	551	1	10000	2	1	0	2	0
48	552	1	10000	2	1	0	2	0
51	553	1	10000	2	1	0	2	0
52	554	1	10000	2	1	0	2	0
51	555	1	10000	2	1	0	2	0
51	556	1	10000	2	1	0	2	0
52	557	1	10000	2	1	0	2	0
54	558	1	10000	2	1	0	2	0
56	559	1	10000	2	1	0	2	0
59	560	1	10000	2	1	0	2	0
62	561	1	10000	2	1	0	2	0
64	562	1	10000	2	1	0	2	0
64	563	1	10000	2	1	0	2	0
61	564	1	10000	2	1	0	2	0
60	565	1	10000	2	1	0	2	0
61	566	1	10000	2	1	0	2	0
60	567	1	10000	2	1	0	2	0
61	568	1	10000	2	1	0	2	0
61	569	1	10000	2	1	0	2	0
60	570	1	10000	2	1	0	2	0
56	571	1	10000	2	1	0	2	0
55	572	1	10000	2	1	0	2	0
54	573	1	10000	2	1	0	2	0
52	574	1	10000	2	1	0	2	0
51	575	1	10000	2	1	0	2	0
52	576	1	10000	2	1	0	2	0
55	577	1	10000	2	1	0	2	0
57	578	1	10000	2	1	0	2	0
59	579	1	10000	2	1	0	2	0
59	580	1	10000	2	1	0	2	0
59	581	1	10000	2	1	0	2	0
69	582	1	10000	2	1	0	2	0
85	583	1	10000	2	1	0	2	0
94	584	1	10000	2	1	0	2	0
91	585	1	10000	2	1	0	2	0
104	586	1	10000	2	1	0	2	0
148	587	1	10000	2	1	0	2	0
204	588	1	10000	2	1	0	2	0
255	589	1	10000	2	1	0	2	0
258	590	1	10000	2	1	0	2	0
255	591	1	10000	2	1	0	2	0
258	592	1	10000	2	1	0	2	0
312	593	1	10000	2	1	0	2	0
346	594	1	10000	2	1	0	2	0
333	595	1	10000	2	1	0	2	0
320	596	1	10000	2	1	0	2	0
335	597	1	10000	2	1	0	2	0
409	598	1	10000	2	1	0	2	0
443	599	1	10000	2	1	0	2	0
426	600	1	10000	2	1	0	2	0
423	601	1	10000	2	1	0	2	0
478	602	1	10000	2	1	0	2	0
536	603	1	10000	2	1	0	2	0
571	604	1	10000	2	1	0	2	0
595	605	1	10000	2	1	0	2	0
612	606	1	10000	2	1	0	2	0
664	607	1	10000	2	1	0	2	0
746	608	1	10000	2	1	0	2	0
833	609	1	10000	2	1	0	2	0
865	610	1	10000	2	1	0	2	0
853	611	1	10000	2	1	0	2	0
858	612	1	10000	2	1	0	2	0
898	613	1	10000	2	1	0	2	0
941	614	1	10000	2	1	0	2	0
932	615	1	10000	2	1	0	2	0
969	616	1	10000	2	1	0	2	0
956	617	1	10000	2	1	0	2	0
985	618	1	10000	2	1	0	2	0
1007	619	1	10000	2	1	0	2	0
996	620	1	10000	2	1	0	2	0
959	621	1	10000	2	1	0	2	0
939	622	1	10000	2	1	0	2	0
935	623	1	10000	2	1	0	2	0
936	624	1	10000	2	1	0	2	0
943	625	1	10000	2	1	0	2	0
956	626	1	10000	2	1	0	2	0
968	627	1	10000	2	1	0	2	0
979	628	1	10000	2	1	0	2	0
987	629	1	10000	2	1	0	2	0
988	630	1	10000	2	1	0	2	0
983	631	1	10000	2	1	0	2	0
973	632	1	10000	2	1	0	2	0
960	633	1	10000	2	1	0	2	0
947	634	1	10000	2	1	0	2	0
930	635	1	10000	2	1	0	2	0
909	636	1	10000	2	1	0	2	0
887	637	1	10000	2	1	0	2	0
862	638	1	10000	2	1	0	2	0
835	639	1	10000	2	1	0	2	0
806	640	1	10000	2	1	0	2	0
779	641	1	10000	2	1	0	2	0
749	642	1	10000	2	1	0	2	0
719	643	1	10000	2	1	0	2	0
686	644	1	10000	2	1	0	2	0
657	645	1	10000	2	1	0	2	0
632	646	1	10000	2	1	0	2	0
609	647	1	10000	2	1	0	2	0
590	648	1	10000	2	1	0	2	0
574	649	1	10000	2	1	0	2	0
559	650	1	10000	2	1	0	2	0
545	651	1	10000	2	1	0	2	0
533	652	1	10000	2	1	0	2	0
527	653	1	10000	2	1	0	2	0
523	654	1	10000	2	1	0	2	0
521	655	1	10000	2	1	0	2	0
521	656	1	10000	2	1	0	2	0
522	657	1	10000	2	1	0	2	0
523	658	1	10000	2	1	0	2	0
524	659	1	10000	2	1	0	2	0
524	660	1	10000	2	1	0	2	0
522	661	1	10000	2	1	0	2	0
516	662	1	10000	2	1	0	2	0
508	663	1	10000	2	1	0	2	0
501	664	1	10000	2	1	0	2	0
497	665	1	10000	2	1	0	2	0
493	666	1	10000	2	1	0	2	0
491	667	1	10000	2	1	0	2	0
486	668	1	10000	2	1	0	2	0
480	669	1	10000	2	1	0	2	0
473	670	1	10000	2	1	0	2	0
464	671	1	10000	2	1	0	2	0
452	672	1	10000	2	1	0	2	0
441	673	1	10000	2	1	0	2	0
430	674	1	10000	2	1	0	2	0
418	675	1	10000	2	1	0	2	0
406	676	1	10000	2	1	0	2	0
393	677	1	10000	2	1	0	2	0
381	678	1	10000	2	1	0	2	0
365	679	1	10000	2	1	0	2	0
350	680	1	10000	2	1	0	2	0
336	681	1	10000	2	1	0	2	0
322	682	1	10000	2	1	0	2	0
308	683	1	10000	2	1	0	2	0
297	684	1	10000	2	1	0	2	0
288	685	1	10000	2	1	0	2	0
279	686	1	10000	2	1	0	2	0
271	687	1	10000	2	1	0	2	0
261	688	1	10000	2	1	0	2	0
250	689	1	10000	2	1	0	2	0
246	690	1	10000	2	1	0	2	0
246	691	1	10000	2	1	0	2	0
245	692	1	10000	2	1	0	2	0
239	693	1	10000	2	1	0	2	0
237	694	1	10000	2	1	0	2	0
239	695	1	10000	2	1	0	2	0
244	696	1	10000	2	1	0	2	0
246	697	1	10000	2	1	0	2	0
245	698	1	10000	2	1	0	2	0
247	699	1	10000	2	1	0	2	0
251	700	1	10000	2	1	0	2	0
257	701	1	10000	2	1	0	2	0
264	702	1	10000	2	1	0	2	0
269	703	1	10000	2	1	0	2	0
274	704	1	10000	2	1	0	2	0
278	705	1	10000	2	1	0	2	0
280	706	1	10000	2	1	0	2	0
278	707	1	10000	2	1	0	2	0
275	708	1	10000	2	1	0	2	0
272	709	1	10000	2	1	0	2	0
272	710	1	10000	2	1	0	2	0
272	711	1	10000	2	1	0	2	0
274	712	1	10000	2	1	0	2	0
277	713	1	10000	2	1	0	2	0
279	714	1	10000	2	1	0	2	0
279	715	1	10000	2	1	0	2	0
274	716	1	10000	2	1	0	2	0
268	717	1	10000	2	1	0	2	0
259	718	1	10000	2	1	0	2	0
251	719	1	10000	2	1	0	2	0
246	720	1	10000	2	1	0	2	0
246	721	1	10000	2	1	0	2	0
249	722	1	10000	2	1	0	2	0
251	723	1	10000	2	1	0	2	0
252	724	1	10000	2	1	0	2	0
250	725	1	10000	2	1	0	2	0
249	726	1	10000	2	1	0	2	0
245	727	1	10000	2	1	0	2	0
239	728	1	10000	2	1	0	2	0
235	729	1	10000	2	1	0	2	0
233	730	1	10000	2	1	0	2	0
228	731	1	10000	2	1	0	2	0
222	732	1	10000	2	1	0	2	0
218	733	1	10000	2	1	0	2	0
212	734	1	10000	2	1	0	2	0
206	735	1	10000	2	1	0	2	0
199	736	1	10000	2	1	0	2	0
192	737	1	10000	2	1	0	2	0
185	738	1	10000	2	1	0	2	0
181	739	1	10000	2	1	0	2	0
178	740	1	10000	2	1	0	2	0
175	741	1	10000	2	1	0	2	0
169	742	1	10000	2	1	0	2	0
160	743	1	10000	2	1	0	2	0
155	744	1	10000	2	1	0	2	0
149	745	1	10000	2	1	0	2	0
144	746	1	10000	2	1	0	2	0
141	747	1	10000	2	1	0	2	0
138	748	1	10000	2	1	0	2	0
133	749	1	10000	2	1	0	2	0
128	750	1	10000	2	1	0	2	0
122	751	1	10000	2	1	0	2	0
118	752	1	10000	2	1	0	2	0
113	753	1	10000	2	1	0	2	0
108	754	1	10000	2	1	0	2	0
104	755	1	10000	2	1	0	2	0
100	756	1	10000	2	1	0	2	0
99	757	1	10000	2	1	0	2	0
102	758	1	10000	2	1	0	2	0
107	759	1	10000	2	1	0	2	0
111	760	1	10000	2	1	0	2	0
112	761	1	10000	2	1	0	2	0
108	762	1	10000	2	1	0	2	0
108	763	1	10000	2	1	0	2	0
109	764	1	10000	2	1	0	2	0
108	765	1	10000	2	1	0	2	0
106	766	1	10000	2	1	0	2	0
106	767	1	10000	2	1	0	2	0
104	768	1	10000	2	1	0	2	0
101	769	1	10000	2	1	0	2	0
101	770	1	10000	2	1	0	2	0
104	771	1	10000	2	1	0	2	0
115	772	1	10000	2	1	0	2	0
123	773	1	10000	2	1	0	2	0
128	774	1	10000	2	1	0	2	0
132	775	1	10000	2	1	0	2	0
140	776	1	10000	2	1	0	2	0
150	777	1	10000	2	1	0	2	0
157	778	1	10000	2	1	0	2	0
154	779	1	10000	2	1	0	2	0
156	780	1	10000	2	1	0	2	0
165	781	1	10000	2	1	0	2	0
176	782	1	10000	2	1	0	2	0
180	783	1	10000	2	1	0	2	0
178	784	1	10000	2	1	0	2	0
173	785	1	10000	2	1	0	2	0
168	786	1	10000	2	1	0	2	0
164	787	1	10000	2	1	0	2	0
159	788	1	10000	2	1	0	2	0
155	789	1	10000	2	1	0	2	0
152	790	1	10000	2	1	0	2	0
147	791	1	10000	2	1	0	2	0
141	792	1	10000	2	1	0	2	0
135	793	1	10000	2	1	0	2	0
129	794	1	10000	2	1	0	2	0
127	795	1	10000	2	1	0	2	0
125	796	1	10000	2	1	0	2	0
125	797	1	10000	2	1	0	2	0
127	798	1	10000	2	1	0	2	0
129	799	1	10000	2	1	0	2	0
133	800	1	10000	2	1	0	2	0
146	801	1	10000	2	1	0	2	0
164	802	1	10000	2	1	0	2	0
180	803	1	10000	2	1	0	2	0
196	804	1	10000	2	1	0	2	0
212	805	1	10000	2	1	0	2	0
220	806	1	10000	2	1	0	2	0
213	807	1	10000	2	1	0	2	0
216	808	1	10000	2	1	0	2	0
225	809	1	10000	2	1	0	2	0
236	810	1	10000	2	1	0	2	0
242	811	1	10000	2	1	0	2	0
245	812	1	10000	2	1	0	2	0
245	813	1	10000	2	1	0	2	0
240	814	1	10000	2	1	0	2	0
236	815	1	10000	2	1	0	2	0
230	816	1	10000	2	1	0	2	0
220	817	1	10000	2	1	0	2	0
210	818	1	10000	2	1	0	2	0
202	819	1	10000	2	1	0	2	0
194	820	1	10000	2	1	0	2	0
186	821	1	10000	2	1	0	2	0
179	822	1	10000	2	1	0	2	0
171	823	1	10000	2	1	0	2	0
169	824	1	10000	2	1	0	2	0
175	825	1	10000	2	1	0	2	0
184	826	1	10000	2	1	0	2	0
187	827	1	10000	2	1	0	2	0
185	828	1	10000	2	1	0	2	0
177	829	1	10000	2	1	0	2	0
170	830	1	10000	2	1	0	2	0
162	831	1	10000	2	1	0	2	0
154	832	1	10000	2	1	0	2	0
147	833	1	10000	2	1	0	2	0
142	834	1	10000	2	1	0	2	0
138	835	1	10000	2	1	0	2	0
134	836	1	10000	2	1	0	2	0
128	837	1	10000	2	1	0	2	0
123	838	1	10000	2	1	0	2	0
121	839	1	10000	2	1	0	2	0
116	840	1	10000	2	1	0	2	0
115	841	1	10000	2	1	0	2	0
114	842	1	10000	2	1	0	2	0
109	843	1	10000	2	1	0	2	0
104	844	1	10000	2	1	0	2	0
100	845	1	10000	2	1	0	2	0
95	846	1	10000	2	1	0	2	0
92	847	1	10000	2	1	0	2	0
89	848	1	10000	2	1	0	2	0
88	849	1	10000	2	1	0	2	0
88	850	1	10000	2	1	0	2	0
84	851	1	10000	2	1	0	2	0
85	852	1	10000	2	1	0	2	0
92	853	1	10000	2	1	0	2	0
95	854	1	10000	2	1	0	2	0
94	855	1	10000	2	1	0	2	0
92	856	1	10000	2	1	0	2	0
88	857	1	10000	2	1	0	2	0
84	858	1	10000	2	1	0	2	0
81	859	1	10000	2	1	0	2	0
80	860	1	10000	2	1	0	2	0
79	861	1	10000	2	1	0	2	0
79	862	1	10000	2	1	0	2	0
78	863	1	10000	2	1	0	2	0
74	864	1	10000	2	1	0	2	0
72	865	1	10000	2	1	0	2	0
71	866	1	10000	2	1	0	2	0
69	867	1	10000	2	1	0	2	0
68	868	1	10000	2	1	0	2	0
66	869	1	10000	2	1	0	2	0
65	870	1	10000	2	1	0	2	0
63	871	1	10000	2	1	0	2	0
65	872	1	10000	2	1	0	2	0
71	873	1	10000	2	1	0	2	0
75	874	1	10000	2	1	0	2	0
79	875	1	10000	2	1	0	2	0
77	876	1	10000	2	1	0	2	0
77	877	1	10000	2	1	0	2	0
79	878	1	10000	2	1	0	2	0
79	879	1	10000	2	1	0	2	0
77	880	1	10000	2	1	0	2	0
75	881	1	10000	2	1	0	2	0
76	882	1	10000	2	1	0	2	0
78	883	1	10000	2	1	0	2	0
81	884	1	10000	2	1	0	2	0
81	885	1	10000	2	1	0	2	0
78	886	1	10000	2	1	0	2	0
75	887	1	10000	2	1	0	2	0
72	888	1	10000	2	1	0	2	0
72	889	1	10000	2	1	0	2	0
72	890	1	10000	2	1	0	2	0
68	891	1	10000	2	1	0	2	0
66	892	1	10000	2	1	0	2	0
67	893	1	10000	2	1	0	2	0
68	894	1	10000	2	1	0	2	0
68	895	1	10000	2	1	0	2	0
65	896	1	10000	2	1	0	2	0
63	897	1	10000	2	1	0	2	0
60	898	1	10000	2	1	0	2	0
58	899	1	10000	2	1	0	2	0
59	900	1	10000	2	1	0	2	0
60	901	1	10000	2	1	0	2	0
58	902	1	10000	2	1	0	2	0
57	903	1	10000	2	1	0	2	0
58	904	1	10000	2	1	0	2	0
59	905	1	10000	2	1	0	2	0
63	906	1	10000	2	1	0	2	0
67	907	1	10000	2	1	0	2	0
69	908	1	10000	2	1	0	2	0
67	909	1	10000	2	1	0	2	0
67	910	1	10000	2	1	0	2	0
68	911	1	10000	2	1	0	2	0
67	912	1	10000	2	1	0	2	0
67	913	1	10000	2	1	0	2	0
64	914	1	10000	2	1	0	2	0
63	915	1	10000	2	1	0	2	0
61	916	1	10000	2	1	0	2	0
59	917	1	10000	2	1	0	2	0
57	918	1	10000	2	1	0	2	0
56	919	1	10000	2	1	0	2	0
56	920	1	10000	2	1	0	2	0
55	921	1	10000	2	1	0	2	0
52	922	1	10000	2	1	0	2	0
51	923	1	10000	2	1	0	2	0
54	924	1	10000	2	1	0	2	0
57	925	1	10000	2	1	0	2	0
61	926	1	10000	2	1	0	2	0
65	927	1	10000	2	1	0	2	0
66	928	1	10000	2	1	0	2	0
67	929	1	10000	2	1	0	2	0
66	930	1	10000	2	1	0	2	0
63	931	1	10000	2	1	0	2	0
60	932	1	10000	2	1	0	2	0
58	933	1	10000	2	1	0	2	0
57	934	1	10000	2	1	0	2	0
57	935	1	10000	2	1	0	2	0
58	936	1	10000	2	1	0	2	0
60	937	1	10000	2	1	0	2	0
61	938	1	10000	2	1	0	2	0
62	939	1	10000	2	1	0	2	0
62	940	1	10000	2	1	0	2	0
60	941	1	10000	2	1	0	2	0
59	942	1	10000	2	1	0	2	0
58	943	1	10000	2	1	0	2	0
55	944	1	10000	2	1	0	2	0
54	945	1	10000	2	1	0	2	0
52	946	1	10000	2	1	0	2	0
51	947	1	10000	2	1	0	2	0
51	948	1	10000	2	1	0	2	0
52	949	1	10000	2	1	0	2	0
51	950	1	10000	2	1	0	2	0
50	951	1	10000	2	1	0	2	0
48	952	1	10000	2	1	0	2	0
46	953	1	10000	2	1	0	2	0
44	954	1	10000	2	1	0	2	0
47	955	1	10000	2	1	0	2	0
49	956	1	10000	2	1	0	2	0
52	957	1	10000	2	1	0	2	0
53	958	1	10000	2	1	0	2	0
52	959	1	10000	2	1	0	2	0
51	960	1	10000	2	1	0	2	0
51	961	1	10000	2	1	0	2	0
52	962	1	10000	2	1	0	2	0
54	963	1	10000	2	1	0	2	0
56	964	1	10000	2	1	0	2	0
59	965	1	10000	2	1	0	2	0
61	966	1	10000	2	1	0	2	0
59	967	1	10000	2	1	0	2	0
62	968	1	10000	2	1	0	2	0
69	969	1	10000	2	1	0	2	0
76	970	1	10000	2	1	0	2	0
76	971	1	10000	2	1	0	2	0
73	972	1	10000	2	1	0	2	0
77	973	1	10000	2	1	0	2	0
83	974	1	10000	2	1	0	2	0
92	975	1	10000	2	1	0	2	0
100	976	1	10000	2	1	0	2	0
107	977	1	10000	2	1	0	2	0
110	978	1	10000	2	1	0	2	0
110	979	1	10000	2	1	0	2	0
106	980	1	10000	2	1	0	2	0
104	981	1	10000	2	1	0	2	0
103	982	1	10000	2	1	0	2	0
103	983	1	10000	2	1	0	2	0
103	984	1	10000	2	1	0	2	0
101	985	1	10000	2	1	0	2	0
98	986	1	10000	2	1	0	2	0
95	987	1	10000	2	1	0	2	0
94	988	1	10000	2	1	0	2	0
96	989	1	10000	2	1	0	2	0
98	990	1	10000	2	1	0	2	0
101	991	1	10000	2	1	0	2	0
100	992	1	10000	2	1	0	2	0
102	993	1	10000	2	1	0	2	0
104	994	1	10000	2	1	0	2	0
106	995	1	10000	2	1	0	2	0
103	996	1	10000	2	1	0	2	0
99	997	1	10000	2	1	0	2	0
99	998	1	10000	2	1	0	2	0
100	999	1	10000	2	1	0	2	0
102	1000	1	10000	2	1	0	2	0
22	1	1	10000	3	1	0	3	0
22	2	1	10000	3	1	0	3	0
21	3	1	10000	3	1	0	3	0
21	4	1	10000	3	1	0	3	0
23	5	1	10000	3	1	0	3	0
24	6	1	10000	3	1	0	3	0
23	7	1	10000	3	1	0	3	0
23	8	1	10000	3	1	0	3	0
25	9	1	10000	3	1	0	3	0
27	10	1	10000	3	1	0	3	0
30	11	1	10000	3	1	0	3	0
32	12	1	10000	3	1	0	3	0
32	13	1	10000	3	1	0	3	0
31	14	1	10000	3	1	0	3	0
32	15	1	10000	3	1	0	3	0
34	16	1	10000	3	1	0	3	0
37	17	1	10000	3	1	0	3	0
38	18	1	10000	3	1	0	3	0
39	19	1	10000	3	1	0	3	0
41	20	1	10000	3	1	0	3	0
42	20	1	10000	3	1	0	3	0
41	21	1	10000	3	1	0	3	0
39	23	1	10000	3	1	0	3	0
39	24	1	10000	3	1	0	3	0
37	25	1	10000	3	1	0	3	0
38	26	1	10000	3	1	0	3	0
36	27	1	10000	3	1	0	3	0
35	28	1	10000	3	1	0	3	0
35	29	1	10000	3	1	0	3	0
35	30	1	10000	3	1	0	3	0
35	31	1	10000	3	1	0	3	0
35	32	1	10000	3	1	0	3	0
34	33	1	10000	3	1	0	3	0
32	34	1	10000	3	1	0	3	0
32	35	1	10000	3	1	0	3	0
33	36	1	10000	3	1	0	3	0
35	37	1	10000	3	1	0	3	0
36	38	1	10000	3	1	0	3	0
40	39	1	10000	3	1	0	3	0
41	40	1	10000	3	1	0	3	0
42	41	1	10000	3	1	0	3	0
42	42	1	10000	3	1	0	3	0
43	43	1	10000	3	1	0	3	0
46	44	1	10000	3	1	0	3	0
49	45	1	10000	3	1	0	3	0
49	46	1	10000	3	1	0	3	0
48	47	1	10000	3	1	0	3	0
49	48	1	10000	3	1	0	3	0
50	49	1	10000	3	1	0	3	0
51	50	1	10000	3	1	0	3	0
53	51	1	10000	3	1	0	3	0
54	52	1	10000	3	1	0	3	0
54	53	1	10000	3	1	0	3	0
53	54	1	10000	3	1	0	3	0
52	55	1	10000	3	1	0	3	0
50	56	1	10000	3	1	0	3	0
50	57	1	10000	3	1	0	3	0
48	58	1	10000	3	1	0	3	0
46	59	1	10000	3	1	0	3	0
44	60	1	10000	3	1	0	3	0
44	61	1	10000	3	1	0	3	0
44	62	1	10000	3	1	0	3	0
43	63	1	10000	3	1	0	3	0
44	64	1	10000	3	1	0	3	0
46	65	1	10000	3	1	0	3	0
47	66	1	10000	3	1	0	3	0
47	67	1	10000	3	1	0	3	0
50	68	1	10000	3	1	0	3	0
52	69	1	10000	3	1	0	3	0
52	70	1	10000	3	1	0	3	0
52	71	1	10000	3	1	0	3	0
54	72	1	10000	3	1	0	3	0
57	73	1	10000	3	1	0	3	0
58	74	1	10000	3	1	0	3	0
58	75	1	10000	3	1	0	3	0
59	76	1	10000	3	1	0	3	0
59	77	1	10000	3	1	0	3	0
57	78	1	10000	3	1	0	3	0
57	79	1	10000	3	1	0	3	0
57	80	1	10000	3	1	0	3	0
57	81	1	10000	3	1	0	3	0
55	82	1	10000	3	1	0	3	0
52	83	1	10000	3	1	0	3	0
52	84	1	10000	3	1	0	3	0
51	85	1	10000	3	1	0	3	0
51	86	1	10000	3	1	0	3	0
50	87	1	10000	3	1	0	3	0
51	88	1	10000	3	1	0	3	0
51	89	1	10000	3	1	0	3	0
50	90	1	10000	3	1	0	3	0
48	91	1	10000	3	1	0	3	0
47	92	1	10000	3	1	0	3	0
46	93	1	10000	3	1	0	3	0
43	94	1	10000	3	1	0	3	0
43	95	1	10000	3	1	0	3	0
47	96	1	10000	3	1	0	3	0
53	97	1	10000	3	1	0	3	0
54	98	1	10000	3	1	0	3	0
54	99	1	10000	3	1	0	3	0
52	100	1	10000	3	1	0	3	0
51	100	1	10000	3	1	0	3	0
49	101	1	10000	3	1	0	3	0
49	103	1	10000	3	1	0	3	0
49	104	1	10000	3	1	0	3	0
51	105	1	10000	3	1	0	3	0
54	106	1	10000	3	1	0	3	0
53	107	1	10000	3	1	0	3	0
51	108	1	10000	3	1	0	3	0
49	109	1	10000	3	1	0	3	0
48	110	1	10000	3	1	0	3	0
46	111	1	10000	3	1	0	3	0
46	112	1	10000	3	1	0	3	0
46	113	1	10000	3	1	0	3	0
45	114	1	10000	3	1	0	3	0
45	115	1	10000	3	1	0	3	0
45	116	1	10000	3	1	0	3	0
46	117	1	10000	3	1	0	3	0
48	118	1	10000	3	1	0	3	0
48	119	1	10000	3	1	0	3	0
47	120	1	10000	3	1	0	3	0
46	121	1	10000	3	1	0	3	0
44	122	1	10000	3	1	0	3	0
44	123	1	10000	3	1	0	3	0
43	124	1	10000	3	1	0	3	0
42	125	1	10000	3	1	0	3	0
41	126	1	10000	3	1	0	3	0
39	127	1	10000	3	1	0	3	0
40	128	1	10000	3	1	0	3	0
43	129	1	10000	3	1	0	3	0
47	130	1	10000	3	1	0	3	0
50	131	1	10000	3	1	0	3	0
51	132	1	10000	3	1	0	3	0
50	133	1	10000	3	1	0	3	0
47	134	1	10000	3	1	0	3	0
45	135	1	10000	3	1	0	3	0
44	136	1	10000	3	1	0	3	0
44	137	1	10000	3	1	0	3	0
43	138	1	10000	3	1	0	3	0
41	139	1	10000	3	1	0	3	0
39	140	1	10000	3	1	0	3	0
39	140	1	10000	3	1	0	3	0
40	141	1	10000	3	1	0	3	0
43	143	1	10000	3	1	0	3	0
49	144	1	10000	3	1	0	3	0
53	145	1	10000	3	1	0	3	0
55	146	1	10000	3	1	0	3	0
53	147	1	10000	3	1	0	3	0
52	148	1	10000	3	1	0	3	0
50	149	1	10000	3	1	0	3	0
51	150	1	10000	3	1	0	3	0
51	150	1	10000	3	1	0	3	0
51	151	1	10000	3	1	0	3	0
49	153	1	10000	3	1	0	3	0
46	154	1	10000	3	1	0	3	0
45	155	1	10000	3	1	0	3	0
44	156	1	10000	3	1	0	3	0
45	157	1	10000	3	1	0	3	0
46	158	1	10000	3	1	0	3	0
45	159	1	10000	3	1	0	3	0
43	160	1	10000	3	1	0	3	0
43	161	1	10000	3	1	0	3	0
43	162	1	10000	3	1	0	3	0
42	163	1	10000	3	1	0	3	0
43	164	1	10000	3	1	0	3	0
44	165	1	10000	3	1	0	3	0
43	166	1	10000	3	1	0	3	0
42	167	1	10000	3	1	0	3	0
46	168	1	10000	3	1	0	3	0
49	169	1	10000	3	1	0	3	0
51	170	1	10000	3	1	0	3	0
50	171	1	10000	3	1	0	3	0
48	172	1	10000	3	1	0	3	0
48	173	1	10000	3	1	0	3	0
48	174	1	10000	3	1	0	3	0
50	175	1	10000	3	1	0	3	0
51	176	1	10000	3	1	0	3	0
53	177	1	10000	3	1	0	3	0
54	178	1	10000	3	1	0	3	0
53	179	1	10000	3	1	0	3	0
53	180	1	10000	3	1	0	3	0
51	180	1	10000	3	1	0	3	0
48	181	1	10000	3	1	0	3	0
46	183	1	10000	3	1	0	3	0
45	184	1	10000	3	1	0	3	0
44	185	1	10000	3	1	0	3	0
44	186	1	10000	3	1	0	3	0
41	187	1	10000	3	1	0	3	0
40	188	1	10000	3	1	0	3	0
39	189	1	10000	3	1	0	3	0
39	190	1	10000	3	1	0	3	0
36	191	1	10000	3	1	0	3	0
36	192	1	10000	3	1	0	3	0
38	193	1	10000	3	1	0	3	0
38	194	1	10000	3	1	0	3	0
40	195	1	10000	3	1	0	3	0
42	196	1	10000	3	1	0	3	0
45	197	1	10000	3	1	0	3	0
47	198	1	10000	3	1	0	3	0
48	199	1	10000	3	1	0	3	0
48	200	1	10000	3	1	0	3	0
48	200	1	10000	3	1	0	3	0
46	201	1	10000	3	1	0	3	0
46	203	1	10000	3	1	0	3	0
48	204	1	10000	3	1	0	3	0
49	205	1	10000	3	1	0	3	0
50	206	1	10000	3	1	0	3	0
48	207	1	10000	3	1	0	3	0
46	208	1	10000	3	1	0	3	0
45	209	1	10000	3	1	0	3	0
44	210	1	10000	3	1	0	3	0
42	210	1	10000	3	1	0	3	0
42	211	1	10000	3	1	0	3	0
42	213	1	10000	3	1	0	3	0
40	214	1	10000	3	1	0	3	0
39	215	1	10000	3	1	0	3	0
37	216	1	10000	3	1	0	3	0
39	217	1	10000	3	1	0	3	0
39	218	1	10000	3	1	0	3	0
38	219	1	10000	3	1	0	3	0
37	220	1	10000	3	1	0	3	0
37	221	1	10000	3	1	0	3	0
36	222	1	10000	3	1	0	3	0
34	223	1	10000	3	1	0	3	0
35	224	1	10000	3	1	0	3	0
35	225	1	10000	3	1	0	3	0
34	226	1	10000	3	1	0	3	0
32	227	1	10000	3	1	0	3	0
31	228	1	10000	3	1	0	3	0
31	229	1	10000	3	1	0	3	0
31	230	1	10000	3	1	0	3	0
30	231	1	10000	3	1	0	3	0
30	232	1	10000	3	1	0	3	0
32	233	1	10000	3	1	0	3	0
33	234	1	10000	3	1	0	3	0
32	235	1	10000	3	1	0	3	0
33	236	1	10000	3	1	0	3	0
34	237	1	10000	3	1	0	3	0
32	238	1	10000	3	1	0	3	0
31	239	1	10000	3	1	0	3	0
30	240	1	10000	3	1	0	3	0
29	240	1	10000	3	1	0	3	0
29	241	1	10000	3	1	0	3	0
30	243	1	10000	3	1	0	3	0
31	244	1	10000	3	1	0	3	0
32	245	1	10000	3	1	0	3	0
34	246	1	10000	3	1	0	3	0
33	247	1	10000	3	1	0	3	0
34	248	1	10000	3	1	0	3	0
34	249	1	10000	3	1	0	3	0
34	250	1	10000	3	1	0	3	0
35	251	1	10000	3	1	0	3	0
37	252	1	10000	3	1	0	3	0
38	253	1	10000	3	1	0	3	0
36	254	1	10000	3	1	0	3	0
36	255	1	10000	3	1	0	3	0
37	256	1	10000	3	1	0	3	0
40	257	1	10000	3	1	0	3	0
40	258	1	10000	3	1	0	3	0
38	259	1	10000	3	1	0	3	0
37	260	1	10000	3	1	0	3	0
36	260	1	10000	3	1	0	3	0
36	261	1	10000	3	1	0	3	0
36	263	1	10000	3	1	0	3	0
39	264	1	10000	3	1	0	3	0
38	265	1	10000	3	1	0	3	0
37	266	1	10000	3	1	0	3	0
39	267	1	10000	3	1	0	3	0
40	268	1	10000	3	1	0	3	0
40	269	1	10000	3	1	0	3	0
39	270	1	10000	3	1	0	3	0
39	270	1	10000	3	1	0	3	0
39	271	1	10000	3	1	0	3	0
38	273	1	10000	3	1	0	3	0
36	274	1	10000	3	1	0	3	0
35	275	1	10000	3	1	0	3	0
35	276	1	10000	3	1	0	3	0
38	277	1	10000	3	1	0	3	0
36	278	1	10000	3	1	0	3	0
35	279	1	10000	3	1	0	3	0
34	280	1	10000	3	1	0	3	0
33	280	1	10000	3	1	0	3	0
33	281	1	10000	3	1	0	3	0
32	283	1	10000	3	1	0	3	0
34	284	1	10000	3	1	0	3	0
35	285	1	10000	3	1	0	3	0
34	286	1	10000	3	1	0	3	0
32	287	1	10000	3	1	0	3	0
32	288	1	10000	3	1	0	3	0
33	289	1	10000	3	1	0	3	0
33	290	1	10000	3	1	0	3	0
32	291	1	10000	3	1	0	3	0
31	292	1	10000	3	1	0	3	0
30	293	1	10000	3	1	0	3	0
28	294	1	10000	3	1	0	3	0
28	295	1	10000	3	1	0	3	0
29	296	1	10000	3	1	0	3	0
31	297	1	10000	3	1	0	3	0
30	298	1	10000	3	1	0	3	0
28	299	1	10000	3	1	0	3	0
27	300	1	10000	3	1	0	3	0
28	300	1	10000	3	1	0	3	0
29	301	1	10000	3	1	0	3	0
30	303	1	10000	3	1	0	3	0
34	304	1	10000	3	1	0	3	0
33	305	1	10000	3	1	0	3	0
34	306	1	10000	3	1	0	3	0
33	307	1	10000	3	1	0	3	0
32	308	1	10000	3	1	0	3	0
32	309	1	10000	3	1	0	3	0
35	310	1	10000	3	1	0	3	0
36	311	1	10000	3	1	0	3	0
37	312	1	10000	3	1	0	3	0
38	313	1	10000	3	1	0	3	0
37	314	1	10000	3	1	0	3	0
36	315	1	10000	3	1	0	3	0
35	316	1	10000	3	1	0	3	0
38	317	1	10000	3	1	0	3	0
41	318	1	10000	3	1	0	3	0
42	319	1	10000	3	1	0	3	0
41	320	1	10000	3	1	0	3	0
41	321	1	10000	3	1	0	3	0
43	322	1	10000	3	1	0	3	0
45	323	1	10000	3	1	0	3	0
48	324	1	10000	3	1	0	3	0
49	325	1	10000	3	1	0	3	0
48	326	1	10000	3	1	0	3	0
44	327	1	10000	3	1	0	3	0
44	328	1	10000	3	1	0	3	0
42	329	1	10000	3	1	0	3	0
40	330	1	10000	3	1	0	3	0
39	330	1	10000	3	1	0	3	0
37	331	1	10000	3	1	0	3	0
36	333	1	10000	3	1	0	3	0
35	334	1	10000	3	1	0	3	0
34	335	1	10000	3	1	0	3	0
33	336	1	10000	3	1	0	3	0
33	337	1	10000	3	1	0	3	0
32	338	1	10000	3	1	0	3	0
31	339	1	10000	3	1	0	3	0
30	340	1	10000	3	1	0	3	0
30	340	1	10000	3	1	0	3	0
29	341	1	10000	3	1	0	3	0
28	343	1	10000	3	1	0	3	0
28	344	1	10000	3	1	0	3	0
28	345	1	10000	3	1	0	3	0
30	346	1	10000	3	1	0	3	0
28	347	1	10000	3	1	0	3	0
26	348	1	10000	3	1	0	3	0
24	349	1	10000	3	1	0	3	0
25	350	1	10000	3	1	0	3	0
25	350	1	10000	3	1	0	3	0
24	351	1	10000	3	1	0	3	0
24	353	1	10000	3	1	0	3	0
23	354	1	10000	3	1	0	3	0
22	355	1	10000	3	1	0	3	0
22	356	1	10000	3	1	0	3	0
26	357	1	10000	3	1	0	3	0
29	358	1	10000	3	1	0	3	0
30	359	1	10000	3	1	0	3	0
32	360	1	10000	3	1	0	3	0
34	360	1	10000	3	1	0	3	0
35	361	1	10000	3	1	0	3	0
36	363	1	10000	3	1	0	3	0
36	364	1	10000	3	1	0	3	0
36	365	1	10000	3	1	0	3	0
37	366	1	10000	3	1	0	3	0
35	367	1	10000	3	1	0	3	0
34	368	1	10000	3	1	0	3	0
34	369	1	10000	3	1	0	3	0
34	370	1	10000	3	1	0	3	0
34	371	1	10000	3	1	0	3	0
35	372	1	10000	3	1	0	3	0
39	373	1	10000	3	1	0	3	0
44	374	1	10000	3	1	0	3	0
48	375	1	10000	3	1	0	3	0
54	376	1	10000	3	1	0	3	0
62	377	1	10000	3	1	0	3	0
69	378	1	10000	3	1	0	3	0
74	379	1	10000	3	1	0	3	0
77	380	1	10000	3	1	0	3	0
78	380	1	10000	3	1	0	3	0
76	381	1	10000	3	1	0	3	0
76	383	1	10000	3	1	0	3	0
80	384	1	10000	3	1	0	3	0
84	385	1	10000	3	1	0	3	0
88	386	1	10000	3	1	0	3	0
90	387	1	10000	3	1	0	3	0
89	388	1	10000	3	1	0	3	0
86	389	1	10000	3	1	0	3	0
84	390	1	10000	3	1	0	3	0
83	390	1	10000	3	1	0	3	0
84	391	1	10000	3	1	0	3	0
85	393	1	10000	3	1	0	3	0
87	394	1	10000	3	1	0	3	0
91	395	1	10000	3	1	0	3	0
96	396	1	10000	3	1	0	3	0
100	397	1	10000	3	1	0	3	0
100	398	1	10000	3	1	0	3	0
97	399	1	10000	3	1	0	3	0
94	400	1	10000	3	1	0	3	0
91	400	1	10000	3	1	0	3	0
90	401	1	10000	3	1	0	3	0
90	403	1	10000	3	1	0	3	0
89	404	1	10000	3	1	0	3	0
88	405	1	10000	3	1	0	3	0
85	406	1	10000	3	1	0	3	0
80	407	1	10000	3	1	0	3	0
78	408	1	10000	3	1	0	3	0
76	409	1	10000	3	1	0	3	0
73	410	1	10000	3	1	0	3	0
71	410	1	10000	3	1	0	3	0
70	411	1	10000	3	1	0	3	0
72	413	1	10000	3	1	0	3	0
74	414	1	10000	3	1	0	3	0
76	415	1	10000	3	1	0	3	0
79	416	1	10000	3	1	0	3	0
84	417	1	10000	3	1	0	3	0
86	418	1	10000	3	1	0	3	0
88	419	1	10000	3	1	0	3	0
91	420	1	10000	3	1	0	3	0
94	420	1	10000	3	1	0	3	0
98	421	1	10000	3	1	0	3	0
101	423	1	10000	3	1	0	3	0
105	424	1	10000	3	1	0	3	0
109	425	1	10000	3	1	0	3	0
113	426	1	10000	3	1	0	3	0
115	427	1	10000	3	1	0	3	0
117	428	1	10000	3	1	0	3	0
119	429	1	10000	3	1	0	3	0
122	430	1	10000	3	1	0	3	0
123	430	1	10000	3	1	0	3	0
124	431	1	10000	3	1	0	3	0
125	433	1	10000	3	1	0	3	0
125	434	1	10000	3	1	0	3	0
126	435	1	10000	3	1	0	3	0
127	436	1	10000	3	1	0	3	0
131	437	1	10000	3	1	0	3	0
133	438	1	10000	3	1	0	3	0
135	439	1	10000	3	1	0	3	0
137	440	1	10000	3	1	0	3	0
134	440	1	10000	3	1	0	3	0
130	441	1	10000	3	1	0	3	0
124	443	1	10000	3	1	0	3	0
120	444	1	10000	3	1	0	3	0
119	445	1	10000	3	1	0	3	0
118	446	1	10000	3	1	0	3	0
115	447	1	10000	3	1	0	3	0
112	448	1	10000	3	1	0	3	0
107	449	1	10000	3	1	0	3	0
103	450	1	10000	3	1	0	3	0
99	450	1	10000	3	1	0	3	0
94	451	1	10000	3	1	0	3	0
91	453	1	10000	3	1	0	3	0
87	454	1	10000	3	1	0	3	0
85	455	1	10000	3	1	0	3	0
83	456	1	10000	3	1	0	3	0
84	457	1	10000	3	1	0	3	0
85	458	1	10000	3	1	0	3	0
83	459	1	10000	3	1	0	3	0
81	460	1	10000	3	1	0	3	0
82	460	1	10000	3	1	0	3	0
81	461	1	10000	3	1	0	3	0
81	463	1	10000	3	1	0	3	0
82	464	1	10000	3	1	0	3	0
80	465	1	10000	3	1	0	3	0
78	466	1	10000	3	1	0	3	0
73	467	1	10000	3	1	0	3	0
71	468	1	10000	3	1	0	3	0
68	469	1	10000	3	1	0	3	0
65	470	1	10000	3	1	0	3	0
62	471	1	10000	3	1	0	3	0
59	472	1	10000	3	1	0	3	0
58	473	1	10000	3	1	0	3	0
56	474	1	10000	3	1	0	3	0
53	475	1	10000	3	1	0	3	0
51	476	1	10000	3	1	0	3	0
51	477	1	10000	3	1	0	3	0
50	478	1	10000	3	1	0	3	0
48	479	1	10000	3	1	0	3	0
47	480	1	10000	3	1	0	3	0
46	480	1	10000	3	1	0	3	0
44	481	1	10000	3	1	0	3	0
43	483	1	10000	3	1	0	3	0
43	484	1	10000	3	1	0	3	0
43	485	1	10000	3	1	0	3	0
44	486	1	10000	3	1	0	3	0
42	487	1	10000	3	1	0	3	0
42	488	1	10000	3	1	0	3	0
40	489	1	10000	3	1	0	3	0
40	490	1	10000	3	1	0	3	0
41	490	1	10000	3	1	0	3	0
44	491	1	10000	3	1	0	3	0
45	493	1	10000	3	1	0	3	0
47	494	1	10000	3	1	0	3	0
49	495	1	10000	3	1	0	3	0
49	496	1	10000	3	1	0	3	0
50	497	1	10000	3	1	0	3	0
50	498	1	10000	3	1	0	3	0
47	499	1	10000	3	1	0	3	0
45	500	1	10000	3	1	0	3	0
44	500	1	10000	3	1	0	3	0
43	501	1	10000	3	1	0	3	0
42	503	1	10000	3	1	0	3	1
41	504	1	10000	3	1	0	3	1
39	505	1	10000	3	1	0	3	1
38	506	1	10000	3	1	0	3	1
36	507	1	10000	3	1	0	3	1
36	508	1	10000	3	1	0	3	1
36	509	1	10000	3	1	0	3	1
35	510	1	10000	3	1	0	3	1
34	510	1	10000	3	1	0	3	1
34	511	1	10000	3	1	0	3	1
34	513	1	10000	3	1	0	3	1
32	514	1	10000	3	1	0	3	1
32	515	1	10000	3	1	0	3	1
33	516	1	10000	3	1	0	3	1
35	517	1	10000	3	1	0	3	1
34	518	1	10000	3	1	0	3	1
32	519	1	10000	3	1	0	3	1
31	520	1	10000	3	1	0	3	1
30	521	1	10000	3	1	0	3	1
30	522	1	10000	3	1	0	3	1
31	523	1	10000	3	1	0	3	1
30	524	1	10000	3	1	0	3	1
31	525	1	10000	3	1	0	3	1
30	526	1	10000	3	1	0	3	1
28	527	1	10000	3	1	0	3	1
27	528	1	10000	3	1	0	3	1
26	529	1	10000	3	1	0	3	1
26	530	1	10000	3	1	0	3	1
25	530	1	10000	3	1	0	3	1
26	531	1	10000	3	1	0	3	1
26	533	1	10000	3	1	0	3	1
26	534	1	10000	3	1	0	3	1
27	535	1	10000	3	1	0	3	1
27	536	1	10000	3	1	0	3	1
29	537	1	10000	3	1	0	3	1
31	538	1	10000	3	1	0	3	1
32	539	1	10000	3	1	0	3	1
31	540	1	10000	3	1	0	3	1
33	540	1	10000	3	1	0	3	1
36	541	1	10000	3	1	0	3	1
38	543	1	10000	3	1	0	3	1
43	544	1	10000	3	1	0	3	1
46	545	1	10000	3	1	0	3	1
50	546	1	10000	3	1	0	3	1
52	547	1	10000	3	1	0	3	1
52	548	1	10000	3	1	0	3	1
51	549	1	10000	3	1	0	3	1
49	550	1	10000	3	1	0	3	1
48	550	1	10000	3	1	0	3	1
46	551	1	10000	3	1	0	3	1
45	553	1	10000	3	1	0	3	0
44	554	1	10000	3	1	0	3	0
42	555	1	10000	3	1	0	3	0
40	556	1	10000	3	1	0	3	0
41	557	1	10000	3	1	0	3	0
39	558	1	10000	3	1	0	3	0
38	559	1	10000	3	1	0	3	0
37	560	1	10000	3	1	0	3	0
35	560	1	10000	3	1	0	3	0
34	561	1	10000	3	1	0	3	0
33	563	1	10000	3	1	0	3	0
32	564	1	10000	3	1	0	3	0
32	565	1	10000	3	1	0	3	0
31	566	1	10000	3	1	0	3	0
28	567	1	10000	3	1	0	3	0
28	568	1	10000	3	1	0	3	0
29	569	1	10000	3	1	0	3	0
28	570	1	10000	3	1	0	3	0
27	571	1	10000	3	1	0	3	0
28	572	1	10000	3	1	0	3	0
28	573	1	10000	3	1	0	3	0
26	574	1	10000	3	1	0	3	0
26	575	1	10000	3	1	0	3	0
24	576	1	10000	3	1	0	3	0
25	577	1	10000	3	1	0	3	0
24	578	1	10000	3	1	0	3	0
24	579	1	10000	3	1	0	3	0
22	580	1	10000	3	1	0	3	0
23	580	1	10000	3	1	0	3	0
36	581	1	10000	3	1	0	3	0
54	583	1	10000	3	1	0	3	0
67	584	1	10000	3	1	0	3	0
87	585	1	10000	3	1	0	3	0
122	586	1	10000	3	1	0	3	0
157	587	1	10000	3	1	0	3	0
199	588	1	10000	3	1	0	3	0
243	589	1	10000	3	1	0	3	0
318	590	1	10000	3	1	0	3	0
419	590	1	10000	3	1	0	3	0
486	591	1	10000	3	1	0	3	0
478	593	1	10000	3	1	0	3	0
468	594	1	10000	3	1	0	3	0
451	595	1	10000	3	1	0	3	0
478	596	1	10000	3	1	0	3	0
536	597	1	10000	3	1	0	3	0
552	598	1	10000	3	1	0	3	0
544	599	1	10000	3	1	0	3	0
527	600	1	10000	3	1	0	3	0
529	600	1	10000	3	1	0	3	0
525	601	1	10000	3	1	0	3	0
548	603	1	10000	3	1	0	3	0
677	604	1	10000	3	1	0	3	0
821	605	1	10000	3	1	0	3	0
924	606	1	10000	3	1	0	3	0
947	607	1	10000	3	1	0	3	0
913	608	1	10000	3	1	0	3	0
886	609	1	10000	3	1	0	3	0
867	610	1	10000	3	1	0	3	0
947	610	1	10000	3	1	0	3	0
1055	611	1	10000	3	1	0	3	0
1041	613	1	10000	3	1	0	3	0
1028	614	1	10000	3	1	0	3	0
1072	615	1	10000	3	1	0	3	0
1144	616	1	10000	3	1	0	3	0
1225	617	1	10000	3	1	0	3	0
1295	618	1	10000	3	1	0	3	0
1329	619	1	10000	3	1	0	3	0
1296	620	1	10000	3	1	0	3	0
1254	620	1	10000	3	1	0	3	0
1244	621	1	10000	3	1	0	3	0
1241	623	1	10000	3	1	0	3	0
1241	624	1	10000	3	1	0	3	0
1242	625	1	10000	3	1	0	3	0
1245	626	1	10000	3	1	0	3	0
1248	627	1	10000	3	1	0	3	0
1252	628	1	10000	3	1	0	3	0
1253	629	1	10000	3	1	0	3	0
1251	630	1	10000	3	1	0	3	0
1261	630	1	10000	3	1	0	3	0
1275	631	1	10000	3	1	0	3	0
1293	633	1	10000	3	1	0	3	0
1279	634	1	10000	3	1	0	3	0
1225	635	1	10000	3	1	0	3	0
1171	636	1	10000	3	1	0	3	0
1118	637	1	10000	3	1	0	3	0
1072	638	1	10000	3	1	0	3	0
1041	639	1	10000	3	1	0	3	0
1152	640	1	10000	3	1	0	3	0
1314	640	1	10000	3	1	0	3	0
1314	641	1	10000	3	1	0	3	0
1338	643	1	10000	3	1	0	3	0
1414	644	1	10000	3	1	0	3	0
1475	645	1	10000	3	1	0	3	0
1500	646	1	10000	3	1	0	3	0
1487	647	1	10000	3	1	0	3	0
1451	648	1	10000	3	1	0	3	0
1403	649	1	10000	3	1	0	3	0
1347	650	1	10000	3	1	0	3	0
1293	650	1	10000	3	1	0	3	0
1240	651	1	10000	3	1	0	3	0
1188	653	1	10000	3	1	0	3	0
1138	654	1	10000	3	1	0	3	0
1091	655	1	10000	3	1	0	3	0
1045	656	1	10000	3	1	0	3	0
1001	657	1	10000	3	1	0	3	0
955	658	1	10000	3	1	0	3	0
913	659	1	10000	3	1	0	3	0
876	660	1	10000	3	1	0	3	0
843	660	1	10000	3	1	0	3	0
816	661	1	10000	3	1	0	3	0
794	663	1	10000	3	1	0	3	0
776	664	1	10000	3	1	0	3	0
760	665	1	10000	3	1	0	3	0
748	666	1	10000	3	1	0	3	0
740	667	1	10000	3	1	0	3	0
738	668	1	10000	3	1	0	3	0
736	669	1	10000	3	1	0	3	0
735	670	1	10000	3	1	0	3	0
736	670	1	10000	3	1	0	3	0
737	671	1	10000	3	1	0	3	0
736	673	1	10000	3	1	0	3	0
734	674	1	10000	3	1	0	3	0
730	675	1	10000	3	1	0	3	0
728	676	1	10000	3	1	0	3	0
727	677	1	10000	3	1	0	3	0
722	678	1	10000	3	1	0	3	0
718	679	1	10000	3	1	0	3	0
715	680	1	10000	3	1	0	3	0
707	680	1	10000	3	1	0	3	0
701	681	1	10000	3	1	0	3	0
696	683	1	10000	3	1	0	3	0
690	684	1	10000	3	1	0	3	0
690	685	1	10000	3	1	0	3	0
693	686	1	10000	3	1	0	3	0
693	687	1	10000	3	1	0	3	0
688	688	1	10000	3	1	0	3	0
680	689	1	10000	3	1	0	3	0
671	690	1	10000	3	1	0	3	0
663	690	1	10000	3	1	0	3	0
654	691	1	10000	3	1	0	3	0
636	693	1	10000	3	1	0	3	0
609	694	1	10000	3	1	0	3	0
584	695	1	10000	3	1	0	3	0
564	696	1	10000	3	1	0	3	0
548	697	1	10000	3	1	0	3	0
536	698	1	10000	3	1	0	3	0
528	699	1	10000	3	1	0	3	0
524	700	1	10000	3	1	0	3	0
521	700	1	10000	3	1	0	3	0
520	701	1	10000	3	1	0	3	0
514	703	1	10000	3	1	0	3	0
508	704	1	10000	3	1	0	3	0
504	705	1	10000	3	1	0	3	0
502	706	1	10000	3	1	0	3	0
497	707	1	10000	3	1	0	3	0
488	708	1	10000	3	1	0	3	0
480	709	1	10000	3	1	0	3	0
479	710	1	10000	3	1	0	3	0
480	710	1	10000	3	1	0	3	0
476	711	1	10000	3	1	0	3	0
474	713	1	10000	3	1	0	3	0
478	714	1	10000	3	1	0	3	0
482	715	1	10000	3	1	0	3	0
486	716	1	10000	3	1	0	3	0
489	717	1	10000	3	1	0	3	0
489	718	1	10000	3	1	0	3	0
494	719	1	10000	3	1	0	3	0
502	720	1	10000	3	1	0	3	0
512	720	1	10000	3	1	0	3	0
524	721	1	10000	3	1	0	3	0
534	723	1	10000	3	1	0	3	0
541	724	1	10000	3	1	0	3	0
551	725	1	10000	3	1	0	3	0
559	726	1	10000	3	1	0	3	0
562	727	1	10000	3	1	0	3	0
564	728	1	10000	3	1	0	3	0
563	729	1	10000	3	1	0	3	0
559	730	1	10000	3	1	0	3	0
550	730	1	10000	3	1	0	3	0
540	731	1	10000	3	1	0	3	0
531	733	1	10000	3	1	0	3	0
521	734	1	10000	3	1	0	3	0
515	735	1	10000	3	1	0	3	0
513	736	1	10000	3	1	0	3	0
517	737	1	10000	3	1	0	3	0
520	738	1	10000	3	1	0	3	0
524	739	1	10000	3	1	0	3	0
525	740	1	10000	3	1	0	3	0
523	740	1	10000	3	1	0	3	0
515	741	1	10000	3	1	0	3	0
502	743	1	10000	3	1	0	3	0
488	744	1	10000	3	1	0	3	0
474	745	1	10000	3	1	0	3	0
460	746	1	10000	3	1	0	3	0
444	747	1	10000	3	1	0	3	0
429	748	1	10000	3	1	0	3	0
410	749	1	10000	3	1	0	3	0
395	750	1	10000	3	1	0	3	0
380	750	1	10000	3	1	0	3	0
363	751	1	10000	3	1	0	3	0
349	753	1	10000	3	1	0	3	0
336	754	1	10000	3	1	0	3	0
326	755	1	10000	3	1	0	3	0
319	756	1	10000	3	1	0	3	0
312	757	1	10000	3	1	0	3	0
301	758	1	10000	3	1	0	3	0
292	759	1	10000	3	1	0	3	0
285	760	1	10000	3	1	0	3	0
276	760	1	10000	3	1	0	3	0
269	761	1	10000	3	1	0	3	0
261	763	1	10000	3	1	0	3	0
252	764	1	10000	3	1	0	3	0
242	765	1	10000	3	1	0	3	0
237	766	1	10000	3	1	0	3	0
232	767	1	10000	3	1	0	3	0
231	768	1	10000	3	1	0	3	0
228	769	1	10000	3	1	0	3	0
220	770	1	10000	3	1	0	3	0
211	770	1	10000	3	1	0	3	0
202	771	1	10000	3	1	0	3	0
193	773	1	10000	3	1	0	3	0
184	774	1	10000	3	1	0	3	0
177	775	1	10000	3	1	0	3	0
172	776	1	10000	3	1	0	3	0
166	777	1	10000	3	1	0	3	0
161	778	1	10000	3	1	0	3	0
154	779	1	10000	3	1	0	3	0
150	780	1	10000	3	1	0	3	0
145	780	1	10000	3	1	0	3	0
142	781	1	10000	3	1	0	3	0
145	783	1	10000	3	1	0	3	0
155	784	1	10000	3	1	0	3	0
159	785	1	10000	3	1	0	3	0
157	786	1	10000	3	1	0	3	0
159	787	1	10000	3	1	0	3	0
169	788	1	10000	3	1	0	3	0
177	789	1	10000	3	1	0	3	0
178	790	1	10000	3	1	0	3	0
171	790	1	10000	3	1	0	3	0
164	791	1	10000	3	1	0	3	0
160	793	1	10000	3	1	0	3	0
157	794	1	10000	3	1	0	3	0
150	795	1	10000	3	1	0	3	0
144	796	1	10000	3	1	0	3	0
140	797	1	10000	3	1	0	3	0
136	798	1	10000	3	1	0	3	0
133	799	1	10000	3	1	0	3	0
135	800	1	10000	3	1	0	3	0
138	800	1	10000	3	1	0	3	0
141	801	1	10000	3	1	0	3	0
141	803	1	10000	3	1	0	3	0
140	804	1	10000	3	1	0	3	0
135	805	1	10000	3	1	0	3	0
135	806	1	10000	3	1	0	3	0
137	807	1	10000	3	1	0	3	0
141	808	1	10000	3	1	0	3	0
146	809	1	10000	3	1	0	3	0
150	810	1	10000	3	1	0	3	0
153	810	1	10000	3	1	0	3	0
157	811	1	10000	3	1	0	3	0
159	813	1	10000	3	1	0	3	0
157	814	1	10000	3	1	0	3	0
154	815	1	10000	3	1	0	3	0
156	816	1	10000	3	1	0	3	0
162	817	1	10000	3	1	0	3	0
171	818	1	10000	3	1	0	3	0
182	819	1	10000	3	1	0	3	0
193	820	1	10000	3	1	0	3	0
197	820	1	10000	3	1	0	3	0
196	821	1	10000	3	1	0	3	0
192	823	1	10000	3	1	0	3	0
193	824	1	10000	3	1	0	3	0
188	825	1	10000	3	1	0	3	0
186	826	1	10000	3	1	0	3	0
191	827	1	10000	3	1	0	3	0
199	828	1	10000	3	1	0	3	0
203	829	1	10000	3	1	0	3	0
206	830	1	10000	3	1	0	3	0
206	830	1	10000	3	1	0	3	0
201	831	1	10000	3	1	0	3	0
196	833	1	10000	3	1	0	3	0
188	834	1	10000	3	1	0	3	0
180	835	1	10000	3	1	0	3	0
172	836	1	10000	3	1	0	3	0
167	837	1	10000	3	1	0	3	0
161	838	1	10000	3	1	0	3	0
157	839	1	10000	3	1	0	3	0
155	840	1	10000	3	1	0	3	0
148	840	1	10000	3	1	0	3	0
142	841	1	10000	3	1	0	3	0
148	843	1	10000	3	1	0	3	0
164	844	1	10000	3	1	0	3	0
182	845	1	10000	3	1	0	3	0
195	846	1	10000	3	1	0	3	0
197	847	1	10000	3	1	0	3	0
195	848	1	10000	3	1	0	3	0
188	849	1	10000	3	1	0	3	0
184	850	1	10000	3	1	0	3	0
182	850	1	10000	3	1	0	3	0
176	851	1	10000	3	1	0	3	0
177	853	1	10000	3	1	0	3	0
178	854	1	10000	3	1	0	3	0
185	855	1	10000	3	1	0	3	0
198	856	1	10000	3	1	0	3	0
209	857	1	10000	3	1	0	3	0
209	858	1	10000	3	1	0	3	0
204	859	1	10000	3	1	0	3	0
212	860	1	10000	3	1	0	3	0
228	860	1	10000	3	1	0	3	0
239	861	1	10000	3	1	0	3	0
245	863	1	10000	3	1	0	3	0
246	864	1	10000	3	1	0	3	0
242	865	1	10000	3	1	0	3	0
243	866	1	10000	3	1	0	3	0
245	867	1	10000	3	1	0	3	0
241	868	1	10000	3	1	0	3	0
244	869	1	10000	3	1	0	3	0
252	870	1	10000	3	1	0	3	0
257	870	1	10000	3	1	0	3	0
253	871	1	10000	3	1	0	3	0
242	873	1	10000	3	1	0	3	0
237	874	1	10000	3	1	0	3	0
229	875	1	10000	3	1	0	3	0
225	876	1	10000	3	1	0	3	0
239	877	1	10000	3	1	0	3	0
250	878	1	10000	3	1	0	3	0
244	879	1	10000	3	1	0	3	0
243	880	1	10000	3	1	0	3	0
249	880	1	10000	3	1	0	3	0
255	881	1	10000	3	1	0	3	0
256	883	1	10000	3	1	0	3	0
250	884	1	10000	3	1	0	3	0
242	885	1	10000	3	1	0	3	0
237	886	1	10000	3	1	0	3	0
231	887	1	10000	3	1	0	3	0
227	888	1	10000	3	1	0	3	0
220	889	1	10000	3	1	0	3	0
213	890	1	10000	3	1	0	3	0
208	890	1	10000	3	1	0	3	0
202	891	1	10000	3	1	0	3	0
203	893	1	10000	3	1	0	3	0
211	894	1	10000	3	1	0	3	0
214	895	1	10000	3	1	0	3	0
208	896	1	10000	3	1	0	3	0
205	897	1	10000	3	1	0	3	0
202	898	1	10000	3	1	0	3	0
203	899	1	10000	3	1	0	3	0
203	900	1	10000	3	1	0	3	0
203	900	1	10000	3	1	0	3	0
210	901	1	10000	3	1	0	3	0
218	903	1	10000	3	1	0	3	0
222	904	1	10000	3	1	0	3	0
215	905	1	10000	3	1	0	3	0
209	906	1	10000	3	1	0	3	0
205	907	1	10000	3	1	0	3	0
205	908	1	10000	3	1	0	3	0
204	909	1	10000	3	1	0	3	0
202	910	1	10000	3	1	0	3	0
200	910	1	10000	3	1	0	3	0
199	911	1	10000	3	1	0	3	0
200	913	1	10000	3	1	0	3	0
203	914	1	10000	3	1	0	3	0
201	915	1	10000	3	1	0	3	0
197	916	1	10000	3	1	0	3	0
198	917	1	10000	3	1	0	3	0
194	918	1	10000	3	1	0	3	0
190	919	1	10000	3	1	0	3	0
184	920	1	10000	3	1	0	3	0
182	920	1	10000	3	1	0	3	0
184	921	1	10000	3	1	0	3	0
184	923	1	10000	3	1	0	3	0
186	924	1	10000	3	1	0	3	0
188	925	1	10000	3	1	0	3	0
187	926	1	10000	3	1	0	3	0
182	927	1	10000	3	1	0	3	0
188	928	1	10000	3	1	0	3	0
193	929	1	10000	3	1	0	3	0
187	930	1	10000	3	1	0	3	0
187	930	1	10000	3	1	0	3	0
189	931	1	10000	3	1	0	3	0
191	933	1	10000	3	1	0	3	0
189	934	1	10000	3	1	0	3	0
185	935	1	10000	3	1	0	3	0
176	936	1	10000	3	1	0	3	0
171	937	1	10000	3	1	0	3	0
167	938	1	10000	3	1	0	3	0
170	939	1	10000	3	1	0	3	0
174	940	1	10000	3	1	0	3	0
174	940	1	10000	3	1	0	3	0
168	941	1	10000	3	1	0	3	0
164	943	1	10000	3	1	0	3	0
165	944	1	10000	3	1	0	3	0
162	945	1	10000	3	1	0	3	0
164	946	1	10000	3	1	0	3	0
170	947	1	10000	3	1	0	3	0
173	948	1	10000	3	1	0	3	0
171	949	1	10000	3	1	0	3	0
167	950	1	10000	3	1	0	3	0
163	950	1	10000	3	1	0	3	0
158	951	1	10000	3	1	0	3	0
155	953	1	10000	3	1	0	3	0
158	954	1	10000	3	1	0	3	0
162	955	1	10000	3	1	0	3	0
164	956	1	10000	3	1	0	3	0
168	957	1	10000	3	1	0	3	0
169	958	1	10000	3	1	0	3	0
167	959	1	10000	3	1	0	3	0
164	960	1	10000	3	1	0	3	0
164	960	1	10000	3	1	0	3	0
166	961	1	10000	3	1	0	3	0
166	963	1	10000	3	1	0	3	0
164	964	1	10000	3	1	0	3	0
159	965	1	10000	3	1	0	3	0
152	966	1	10000	3	1	0	3	0
146	967	1	10000	3	1	0	3	0
141	968	1	10000	3	1	0	3	0
138	969	1	10000	3	1	0	3	0
135	970	1	10000	3	1	0	3	0
135	970	1	10000	3	1	0	3	0
138	971	1	10000	3	1	0	3	0
141	973	1	10000	3	1	0	3	0
140	974	1	10000	3	1	0	3	0
135	975	1	10000	3	1	0	3	0
129	976	1	10000	3	1	0	3	0
126	977	1	10000	3	1	0	3	0
122	978	1	10000	3	1	0	3	0
128	979	1	10000	3	1	0	3	0
136	980	1	10000	3	1	0	3	0
133	980	1	10000	3	1	0	3	0
132	981	1	10000	3	1	0	3	0
129	983	1	10000	3	1	0	3	0
126	984	1	10000	3	1	0	3	0
125	985	1	10000	3	1	0	3	0
121	986	1	10000	3	1	0	3	0
120	987	1	10000	3	1	0	3	0
119	988	1	10000	3	1	0	3	0
117	989	1	10000	3	1	0	3	0
118	990	1	10000	3	1	0	3	0
124	990	1	10000	3	1	0	3	0
127	991	1	10000	3	1	0	3	0
126	993	1	10000	3	1	0	3	0
121	994	1	10000	3	1	0	3	0
117	995	1	10000	3	1	0	3	0
117	996	1	10000	3	1	0	3	0
121	997	1	10000	3	1	0	3	0
122	998	1	10000	3	1	0	3	0
125	999	1	10000	3	1	0	3	0
126	1000	1	10000	3	1	0	3	0
123	1000	1	10000	3	1	0	3	0
120	1001	1	10000	3	1	0	3	0
21	2	10	10000	4	1	0	4	0
21	3	10	10000	4	1	0	4	0
20	4	10	10000	4	1	0	4	0
19	5	10	10000	4	1	0	4	0
19	6	10	10000	4	1	0	4	0
19	7	10	10000	4	1	0	4	0
19	8	10	10000	4	1	0	4	0
18	9	10	10000	4	1	0	4	0
18	10	10	10000	4	1	0	4	0
18	11	10	10000	4	1	0	4	0
17	12	10	10000	4	1	0	4	0
16	13	10	10000	4	1	0	4	0
16	14	10	10000	4	1	0	4	0
16	15	10	10000	4	1	0	4	0
16	16	10	10000	4	1	0	4	0
16	17	10	10000	4	1	0	4	0
16	18	10	10000	4	1	0	4	0
18	19	10	10000	4	1	0	4	0
18	20	10	10000	4	1	0	4	0
19	21	10	10000	4	1	0	4	0
19	22	10	10000	4	1	0	4	0
19	23	10	10000	4	1	0	4	0
18	24	10	10000	4	1	0	4	0
18	25	10	10000	4	1	0	4	0
18	26	10	10000	4	1	0	4	0
20	27	10	10000	4	1	0	4	0
21	28	10	10000	4	1	0	4	0
22	29	10	10000	4	1	0	4	0
22	30	10	10000	4	1	0	4	0
21	31	10	10000	4	1	0	4	0
21	32	10	10000	4	1	0	4	0
20	33	10	10000	4	1	0	4	0
20	34	10	10000	4	1	0	4	0
21	35	10	10000	4	1	0	4	0
20	36	10	10000	4	1	0	4	0
20	37	10	10000	4	1	0	4	0
19	38	10	10000	4	1	0	4	0
19	39	10	10000	4	1	0	4	0
19	40	10	10000	4	1	0	4	0
18	41	10	10000	4	1	0	4	0
17	42	10	10000	4	1	0	4	0
17	43	10	10000	4	1	0	4	0
16	44	10	10000	4	1	0	4	0
14	45	10	10000	4	1	0	4	0
14	46	10	10000	4	1	0	4	0
15	47	10	10000	4	1	0	4	0
16	48	10	10000	4	1	0	4	0
16	49	10	10000	4	1	0	4	0
16	50	10	10000	4	1	0	4	0
18	51	10	10000	4	1	0	4	0
18	52	10	10000	4	1	0	4	0
18	53	10	10000	4	1	0	4	0
18	54	10	10000	4	1	0	4	0
19	55	10	10000	4	1	0	4	0
18	56	10	10000	4	1	0	4	0
17	57	10	10000	4	1	0	4	0
16	58	10	10000	4	1	0	4	0
16	59	10	10000	4	1	0	4	0
15	60	10	10000	4	1	0	4	0
16	61	10	10000	4	1	0	4	0
17	62	10	10000	4	1	0	4	0
16	63	10	10000	4	1	0	4	0
15	64	10	10000	4	1	0	4	0
13	65	10	10000	4	1	0	4	0
13	66	10	10000	4	1	0	4	0
14	67	10	10000	4	1	0	4	0
16	68	10	10000	4	1	0	4	0
17	69	10	10000	4	1	0	4	0
18	70	10	10000	4	1	0	4	0
17	71	10	10000	4	1	0	4	0
16	72	10	10000	4	1	0	4	0
15	73	10	10000	4	1	0	4	0
15	74	10	10000	4	1	0	4	0
17	75	10	10000	4	1	0	4	0
16	76	10	10000	4	1	0	4	0
16	77	10	10000	4	1	0	4	0
16	78	10	10000	4	1	0	4	0
16	79	10	10000	4	1	0	4	0
16	80	10	10000	4	1	0	4	0
16	81	10	10000	4	1	0	4	0
17	82	10	10000	4	1	0	4	0
17	83	10	10000	4	1	0	4	0
17	84	10	10000	4	1	0	4	0
16	85	10	10000	4	1	0	4	0
16	86	10	10000	4	1	0	4	0
17	87	10	10000	4	1	0	4	0
16	88	10	10000	4	1	0	4	0
15	89	10	10000	4	1	0	4	0
16	90	10	10000	4	1	0	4	0
16	91	10	10000	4	1	0	4	0
16	92	10	10000	4	1	0	4	0
17	93	10	10000	4	1	0	4	0
20	94	10	10000	4	1	0	4	0
22	95	10	10000	4	1	0	4	0
23	96	10	10000	4	1	0	4	0
22	97	10	10000	4	1	0	4	0
22	98	10	10000	4	1	0	4	0
22	99	10	10000	4	1	0	4	0
21	100	10	10000	4	1	0	4	0
22	101	10	10000	4	1	0	4	0
23	102	10	10000	4	1	0	4	0
24	103	10	10000	4	1	0	4	0
25	104	10	10000	4	1	0	4	0
25	105	10	10000	4	1	0	4	0
26	106	10	10000	4	1	0	4	0
26	107	10	10000	4	1	0	4	0
26	108	10	10000	4	1	0	4	0
25	109	10	10000	4	1	0	4	0
25	110	10	10000	4	1	0	4	0
25	111	10	10000	4	1	0	4	0
25	112	10	10000	4	1	0	4	0
23	113	10	10000	4	1	0	4	0
23	114	10	10000	4	1	0	4	0
24	115	10	10000	4	1	0	4	0
22	116	10	10000	4	1	0	4	0
22	117	10	10000	4	1	0	4	0
21	118	10	10000	4	1	0	4	0
21	119	10	10000	4	1	0	4	0
20	120	10	10000	4	1	0	4	0
20	121	10	10000	4	1	0	4	0
20	122	10	10000	4	1	0	4	0
21	123	10	10000	4	1	0	4	0
20	124	10	10000	4	1	0	4	0
19	125	10	10000	4	1	0	4	0
19	126	10	10000	4	1	0	4	0
18	127	10	10000	4	1	0	4	0
18	128	10	10000	4	1	0	4	0
17	129	10	10000	4	1	0	4	0
18	130	10	10000	4	1	0	4	0
16	131	10	10000	4	1	0	4	0
15	132	10	10000	4	1	0	4	0
16	133	10	10000	4	1	0	4	0
16	134	10	10000	4	1	0	4	0
18	135	10	10000	4	1	0	4	0
18	136	10	10000	4	1	0	4	0
17	137	10	10000	4	1	0	4	0
17	138	10	10000	4	1	0	4	0
18	139	10	10000	4	1	0	4	0
19	140	10	10000	4	1	0	4	0
20	141	10	10000	4	1	0	4	0
21	142	10	10000	4	1	0	4	0
22	143	10	10000	4	1	0	4	0
21	144	10	10000	4	1	0	4	0
20	145	10	10000	4	1	0	4	0
21	146	10	10000	4	1	0	4	0
23	147	10	10000	4	1	0	4	0
24	148	10	10000	4	1	0	4	0
23	149	10	10000	4	1	0	4	0
22	150	10	10000	4	1	0	4	0
22	151	10	10000	4	1	0	4	0
24	152	10	10000	4	1	0	4	0
25	153	10	10000	4	1	0	4	0
25	154	10	10000	4	1	0	4	0
26	155	10	10000	4	1	0	4	0
25	156	10	10000	4	1	0	4	0
25	157	10	10000	4	1	0	4	0
24	158	10	10000	4	1	0	4	0
23	159	10	10000	4	1	0	4	0
23	160	10	10000	4	1	0	4	0
22	161	10	10000	4	1	0	4	0
23	162	10	10000	4	1	0	4	0
23	163	10	10000	4	1	0	4	0
22	164	10	10000	4	1	0	4	0
21	165	10	10000	4	1	0	4	0
22	166	10	10000	4	1	0	4	0
22	167	10	10000	4	1	0	4	0
21	168	10	10000	4	1	0	4	0
20	169	10	10000	4	1	0	4	0
20	170	10	10000	4	1	0	4	0
19	171	10	10000	4	1	0	4	0
18	172	10	10000	4	1	0	4	0
19	173	10	10000	4	1	0	4	0
19	174	10	10000	4	1	0	4	0
20	175	10	10000	4	1	0	4	0
20	176	10	10000	4	1	0	4	0
18	177	10	10000	4	1	0	4	0
17	178	10	10000	4	1	0	4	0
17	179	10	10000	4	1	0	4	0
16	180	10	10000	4	1	0	4	0
16	181	10	10000	4	1	0	4	0
16	182	10	10000	4	1	0	4	0
16	183	10	10000	4	1	0	4	0
15	184	10	10000	4	1	0	4	0
13	185	10	10000	4	1	0	4	0
13	186	10	10000	4	1	0	4	0
13	187	10	10000	4	1	0	4	0
14	188	10	10000	4	1	0	4	0
14	189	10	10000	4	1	0	4	0
15	190	10	10000	4	1	0	4	0
16	191	10	10000	4	1	0	4	0
16	192	10	10000	4	1	0	4	0
15	193	10	10000	4	1	0	4	0
16	194	10	10000	4	1	0	4	0
17	195	10	10000	4	1	0	4	0
16	196	10	10000	4	1	0	4	0
16	197	10	10000	4	1	0	4	0
16	198	10	10000	4	1	0	4	0
18	199	10	10000	4	1	0	4	0
20	200	10	10000	4	1	0	4	0
21	201	10	10000	4	1	0	4	0
23	202	10	10000	4	1	0	4	0
22	203	10	10000	4	1	0	4	0
21	204	10	10000	4	1	0	4	0
20	205	10	10000	4	1	0	4	0
22	206	10	10000	4	1	0	4	0
24	207	10	10000	4	1	0	4	0
24	208	10	10000	4	1	0	4	0
24	209	10	10000	4	1	0	4	0
24	210	10	10000	4	1	0	4	0
24	211	10	10000	4	1	0	4	0
26	212	10	10000	4	1	0	4	0
26	213	10	10000	4	1	0	4	0
26	214	10	10000	4	1	0	4	0
28	215	10	10000	4	1	0	4	0
27	216	10	10000	4	1	0	4	0
27	217	10	10000	4	1	0	4	0
26	218	10	10000	4	1	0	4	0
25	219	10	10000	4	1	0	4	0
24	220	10	10000	4	1	0	4	0
25	221	10	10000	4	1	0	4	0
24	222	10	10000	4	1	0	4	0
24	223	10	10000	4	1	0	4	0
22	224	10	10000	4	1	0	4	0
20	225	10	10000	4	1	0	4	0
21	226	10	10000	4	1	0	4	0
21	227	10	10000	4	1	0	4	0
20	228	10	10000	4	1	0	4	0
20	229	10	10000	4	1	0	4	0
21	230	10	10000	4	1	0	4	0
21	231	10	10000	4	1	0	4	0
21	232	10	10000	4	1	0	4	0
20	233	10	10000	4	1	0	4	0
20	234	10	10000	4	1	0	4	0
21	235	10	10000	4	1	0	4	0
20	236	10	10000	4	1	0	4	0
19	237	10	10000	4	1	0	4	0
18	238	10	10000	4	1	0	4	0
18	239	10	10000	4	1	0	4	0
17	240	10	10000	4	1	0	4	0
18	241	10	10000	4	1	0	4	0
17	242	10	10000	4	1	0	4	0
17	243	10	10000	4	1	0	4	0
16	244	10	10000	4	1	0	4	0
16	245	10	10000	4	1	0	4	0
16	246	10	10000	4	1	0	4	0
17	247	10	10000	4	1	0	4	0
16	248	10	10000	4	1	0	4	0
15	249	10	10000	4	1	0	4	0
16	250	10	10000	4	1	0	4	0
15	251	10	10000	4	1	0	4	0
14	252	10	10000	4	1	0	4	0
14	253	10	10000	4	1	0	4	0
15	254	10	10000	4	1	0	4	0
16	255	10	10000	4	1	0	4	0
16	256	10	10000	4	1	0	4	0
15	257	10	10000	4	1	0	4	0
14	258	10	10000	4	1	0	4	0
14	259	10	10000	4	1	0	4	0
14	260	10	10000	4	1	0	4	0
15	261	10	10000	4	1	0	4	0
17	262	10	10000	4	1	0	4	0
19	263	10	10000	4	1	0	4	0
19	264	10	10000	4	1	0	4	0
19	265	10	10000	4	1	0	4	0
20	266	10	10000	4	1	0	4	0
19	267	10	10000	4	1	0	4	0
19	268	10	10000	4	1	0	4	0
19	269	10	10000	4	1	0	4	0
20	270	10	10000	4	1	0	4	0
20	271	10	10000	4	1	0	4	0
20	272	10	10000	4	1	0	4	0
18	273	10	10000	4	1	0	4	0
19	274	10	10000	4	1	0	4	0
19	275	10	10000	4	1	0	4	0
19	276	10	10000	4	1	0	4	0
18	277	10	10000	4	1	0	4	0
17	278	10	10000	4	1	0	4	0
17	279	10	10000	4	1	0	4	0
17	280	10	10000	4	1	0	4	0
17	281	10	10000	4	1	0	4	0
18	282	10	10000	4	1	0	4	0
18	283	10	10000	4	1	0	4	0
19	284	10	10000	4	1	0	4	0
17	285	10	10000	4	1	0	4	0
17	286	10	10000	4	1	0	4	0
17	287	10	10000	4	1	0	4	0
16	288	10	10000	4	1	0	4	0
16	289	10	10000	4	1	0	4	0
16	290	10	10000	4	1	0	4	0
15	291	10	10000	4	1	0	4	0
14	292	10	10000	4	1	0	4	0
14	293	10	10000	4	1	0	4	0
14	294	10	10000	4	1	0	4	0
17	295	10	10000	4	1	0	4	0
16	296	10	10000	4	1	0	4	0
16	297	10	10000	4	1	0	4	0
16	298	10	10000	4	1	0	4	0
16	299	10	10000	4	1	0	4	0
15	300	10	10000	4	1	0	4	0
16	301	10	10000	4	1	0	4	0
15	302	10	10000	4	1	0	4	0
15	303	10	10000	4	1	0	4	0
15	304	10	10000	4	1	0	4	0
14	305	10	10000	4	1	0	4	0
14	306	10	10000	4	1	0	4	0
14	307	10	10000	4	1	0	4	0
14	308	10	10000	4	1	0	4	0
14	309	10	10000	4	1	0	4	0
14	310	10	10000	4	1	0	4	0
14	311	10	10000	4	1	0	4	0
13	312	10	10000	4	1	0	4	0
13	313	10	10000	4	1	0	4	0
14	314	10	10000	4	1	0	4	0
16	315	10	10000	4	1	0	4	0
18	316	10	10000	4	1	0	4	0
19	317	10	10000	4	1	0	4	0
20	318	10	10000	4	1	0	4	0
20	319	10	10000	4	1	0	4	0
19	320	10	10000	4	1	0	4	0
19	321	10	10000	4	1	0	4	0
18	322	10	10000	4	1	0	4	0
18	323	10	10000	4	1	0	4	0
18	324	10	10000	4	1	0	4	0
16	325	10	10000	4	1	0	4	0
16	326	10	10000	4	1	0	4	0
17	327	10	10000	4	1	0	4	0
17	328	10	10000	4	1	0	4	0
16	329	10	10000	4	1	0	4	0
17	330	10	10000	4	1	0	4	0
17	331	10	10000	4	1	0	4	0
16	332	10	10000	4	1	0	4	0
16	333	10	10000	4	1	0	4	0
16	334	10	10000	4	1	0	4	0
17	335	10	10000	4	1	0	4	0
17	336	10	10000	4	1	0	4	0
16	337	10	10000	4	1	0	4	0
16	338	10	10000	4	1	0	4	0
17	339	10	10000	4	1	0	4	0
17	340	10	10000	4	1	0	4	0
18	341	10	10000	4	1	0	4	0
19	342	10	10000	4	1	0	4	0
20	343	10	10000	4	1	0	4	0
20	344	10	10000	4	1	0	4	0
18	345	10	10000	4	1	0	4	0
19	346	10	10000	4	1	0	4	0
19	347	10	10000	4	1	0	4	0
20	348	10	10000	4	1	0	4	0
20	349	10	10000	4	1	0	4	0
19	350	10	10000	4	1	0	4	0
19	351	10	10000	4	1	0	4	0
19	352	10	10000	4	1	0	4	0
19	353	10	10000	4	1	0	4	0
20	354	10	10000	4	1	0	4	0
21	355	10	10000	4	1	0	4	0
20	356	10	10000	4	1	0	4	0
20	357	10	10000	4	1	0	4	0
21	358	10	10000	4	1	0	4	0
23	359	10	10000	4	1	0	4	0
24	360	10	10000	4	1	0	4	0
25	361	10	10000	4	1	0	4	0
24	362	10	10000	4	1	0	4	0
24	363	10	10000	4	1	0	4	0
24	364	10	10000	4	1	0	4	0
21	365	10	10000	4	1	0	4	0
21	366	10	10000	4	1	0	4	0
21	367	10	10000	4	1	0	4	0
22	368	10	10000	4	1	0	4	0
22	369	10	10000	4	1	0	4	0
21	370	10	10000	4	1	0	4	0
21	371	10	10000	4	1	0	4	0
19	372	10	10000	4	1	0	4	0
18	373	10	10000	4	1	0	4	0
20	374	10	10000	4	1	0	4	0
23	375	10	10000	4	1	0	4	0
24	376	10	10000	4	1	0	4	0
23	377	10	10000	4	1	0	4	0
22	378	10	10000	4	1	0	4	0
21	379	10	10000	4	1	0	4	0
20	380	10	10000	4	1	0	4	0
20	381	10	10000	4	1	0	4	0
20	382	10	10000	4	1	0	4	0
21	383	10	10000	4	1	0	4	0
20	384	10	10000	4	1	0	4	0
18	385	10	10000	4	1	0	4	0
20	386	10	10000	4	1	0	4	0
23	387	10	10000	4	1	0	4	0
24	388	10	10000	4	1	0	4	0
25	389	10	10000	4	1	0	4	0
26	390	10	10000	4	1	0	4	0
27	391	10	10000	4	1	0	4	0
27	392	10	10000	4	1	0	4	0
29	393	10	10000	4	1	0	4	0
29	394	10	10000	4	1	0	4	0
30	395	10	10000	4	1	0	4	0
28	396	10	10000	4	1	0	4	0
28	397	10	10000	4	1	0	4	0
28	398	10	10000	4	1	0	4	0
27	399	10	10000	4	1	0	4	0
27	400	10	10000	4	1	0	4	0
27	401	10	10000	4	1	0	4	0
27	402	10	10000	4	1	0	4	0
27	403	10	10000	4	1	0	4	0
27	404	10	10000	4	1	0	4	0
27	405	10	10000	4	1	0	4	0
28	406	10	10000	4	1	0	4	0
30	407	10	10000	4	1	0	4	0
29	408	10	10000	4	1	0	4	0
28	409	10	10000	4	1	0	4	0
27	410	10	10000	4	1	0	4	0
27	411	10	10000	4	1	0	4	0
27	412	10	10000	4	1	0	4	0
29	413	10	10000	4	1	0	4	0
30	414	10	10000	4	1	0	4	0
31	415	10	10000	4	1	0	4	0
29	416	10	10000	4	1	0	4	0
28	417	10	10000	4	1	0	4	0
26	418	10	10000	4	1	0	4	0
25	419	10	10000	4	1	0	4	0
24	420	10	10000	4	1	0	4	0
24	421	10	10000	4	1	0	4	0
26	422	10	10000	4	1	0	4	0
27	423	10	10000	4	1	0	4	0
27	424	10	10000	4	1	0	4	0
26	425	10	10000	4	1	0	4	0
27	426	10	10000	4	1	0	4	0
28	427	10	10000	4	1	0	4	0
29	428	10	10000	4	1	0	4	0
27	429	10	10000	4	1	0	4	0
28	430	10	10000	4	1	0	4	0
29	431	10	10000	4	1	0	4	0
30	432	10	10000	4	1	0	4	0
29	433	10	10000	4	1	0	4	0
30	434	10	10000	4	1	0	4	0
32	435	10	10000	4	1	0	4	0
33	436	10	10000	4	1	0	4	0
36	437	10	10000	4	1	0	4	0
40	438	10	10000	4	1	0	4	0
40	439	10	10000	4	1	0	4	0
39	440	10	10000	4	1	0	4	0
40	441	10	10000	4	1	0	4	0
38	442	10	10000	4	1	0	4	0
38	443	10	10000	4	1	0	4	0
37	444	10	10000	4	1	0	4	0
33	445	10	10000	4	1	0	4	0
32	446	10	10000	4	1	0	4	0
32	447	10	10000	4	1	0	4	0
30	448	10	10000	4	1	0	4	0
29	449	10	10000	4	1	0	4	0
29	450	10	10000	4	1	0	4	0
27	451	10	10000	4	1	0	4	0
26	452	10	10000	4	1	0	4	0
24	453	10	10000	4	1	0	4	0
25	454	10	10000	4	1	0	4	0
24	455	10	10000	4	1	0	4	0
24	456	10	10000	4	1	0	4	0
25	457	10	10000	4	1	0	4	0
27	458	10	10000	4	1	0	4	0
30	459	10	10000	4	1	0	4	0
32	460	10	10000	4	1	0	4	0
34	461	10	10000	4	1	0	4	0
34	462	10	10000	4	1	0	4	0
33	463	10	10000	4	1	0	4	0
32	464	10	10000	4	1	0	4	0
31	465	10	10000	4	1	0	4	0
30	466	10	10000	4	1	0	4	0
29	467	10	10000	4	1	0	4	0
28	468	10	10000	4	1	0	4	0
27	469	10	10000	4	1	0	4	0
28	470	10	10000	4	1	0	4	0
27	471	10	10000	4	1	0	4	0
27	472	10	10000	4	1	0	4	0
26	473	10	10000	4	1	0	4	0
26	474	10	10000	4	1	0	4	0
27	475	10	10000	4	1	0	4	0
26	476	10	10000	4	1	0	4	0
25	477	10	10000	4	1	0	4	0
24	478	10	10000	4	1	0	4	0
23	479	10	10000	4	1	0	4	0
22	480	10	10000	4	1	0	4	0
23	481	10	10000	4	1	0	4	0
22	482	10	10000	4	1	0	4	0
21	483	10	10000	4	1	0	4	0
21	484	10	10000	4	1	0	4	0
19	485	10	10000	4	1	0	4	0
20	486	10	10000	4	1	0	4	0
20	487	10	10000	4	1	0	4	0
21	488	10	10000	4	1	0	4	0
20	489	10	10000	4	1	0	4	0
19	490	10	10000	4	1	0	4	0
19	491	10	10000	4	1	0	4	0
18	492	10	10000	4	1	0	4	0
17	493	10	10000	4	1	0	4	0
18	494	10	10000	4	1	0	4	0
19	495	10	10000	4	1	0	4	0
18	496	10	10000	4	1	0	4	0
17	497	10	10000	4	1	0	4	0
19	498	10	10000	4	1	0	4	0
21	499	10	10000	4	1	0	4	0
24	500	10	10000	4	1	0	4	0
26	501	10	10000	4	1	0	4	0
28	502	10	10000	4	1	0	4	1
28	503	10	10000	4	1	0	4	1
29	504	10	10000	4	1	0	4	1
31	505	10	10000	4	1	0	4	1
32	506	10	10000	4	1	0	4	1
34	507	10	10000	4	1	0	4	1
34	508	10	10000	4	1	0	4	1
35	509	10	10000	4	1	0	4	1
35	510	10	10000	4	1	0	4	1
35	511	10	10000	4	1	0	4	1
34	512	10	10000	4	1	0	4	1
33	513	10	10000	4	1	0	4	1
34	514	10	10000	4	1	0	4	1
34	515	10	10000	4	1	0	4	1
32	516	10	10000	4	1	0	4	1
31	517	10	10000	4	1	0	4	1
31	518	10	10000	4	1	0	4	1
29	519	10	10000	4	1	0	4	1
29	520	10	10000	4	1	0	4	1
28	521	10	10000	4	1	0	4	1
27	522	10	10000	4	1	0	4	1
26	523	10	10000	4	1	0	4	1
27	524	10	10000	4	1	0	4	1
25	525	10	10000	4	1	0	4	1
26	526	10	10000	4	1	0	4	1
27	527	10	10000	4	1	0	4	1
28	528	10	10000	4	1	0	4	1
27	529	10	10000	4	1	0	4	1
26	530	10	10000	4	1	0	4	1
26	531	10	10000	4	1	0	4	1
25	532	10	10000	4	1	0	4	1
25	533	10	10000	4	1	0	4	1
25	534	10	10000	4	1	0	4	1
26	535	10	10000	4	1	0	4	1
25	536	10	10000	4	1	0	4	1
26	537	10	10000	4	1	0	4	1
28	538	10	10000	4	1	0	4	1
30	539	10	10000	4	1	0	4	1
32	540	10	10000	4	1	0	4	1
33	541	10	10000	4	1	0	4	1
32	542	10	10000	4	1	0	4	1
32	543	10	10000	4	1	0	4	1
33	544	10	10000	4	1	0	4	1
30	545	10	10000	4	1	0	4	1
30	546	10	10000	4	1	0	4	1
28	547	10	10000	4	1	0	4	1
27	548	10	10000	4	1	0	4	1
27	549	10	10000	4	1	0	4	1
26	550	10	10000	4	1	0	4	1
25	551	10	10000	4	1	0	4	1
25	552	10	10000	4	1	0	4	0
23	553	10	10000	4	1	0	4	0
23	554	10	10000	4	1	0	4	0
25	555	10	10000	4	1	0	4	0
24	556	10	10000	4	1	0	4	0
23	557	10	10000	4	1	0	4	0
23	558	10	10000	4	1	0	4	0
23	559	10	10000	4	1	0	4	0
23	560	10	10000	4	1	0	4	0
25	561	10	10000	4	1	0	4	0
26	562	10	10000	4	1	0	4	0
27	563	10	10000	4	1	0	4	0
28	564	10	10000	4	1	0	4	0
26	565	10	10000	4	1	0	4	0
26	566	10	10000	4	1	0	4	0
25	567	10	10000	4	1	0	4	0
24	568	10	10000	4	1	0	4	0
24	569	10	10000	4	1	0	4	0
25	570	10	10000	4	1	0	4	0
26	571	10	10000	4	1	0	4	0
28	572	10	10000	4	1	0	4	0
31	573	10	10000	4	1	0	4	0
34	574	10	10000	4	1	0	4	0
38	575	10	10000	4	1	0	4	0
39	576	10	10000	4	1	0	4	0
38	577	10	10000	4	1	0	4	0
49	578	10	10000	4	1	0	4	0
73	579	10	10000	4	1	0	4	0
92	580	10	10000	4	1	0	4	0
101	581	10	10000	4	1	0	4	0
104	582	10	10000	4	1	0	4	0
113	583	10	10000	4	1	0	4	0
118	584	10	10000	4	1	0	4	0
122	585	10	10000	4	1	0	4	0
141	586	10	10000	4	1	0	4	0
155	587	10	10000	4	1	0	4	0
154	588	10	10000	4	1	0	4	0
152	589	10	10000	4	1	0	4	0
149	590	10	10000	4	1	0	4	0
155	591	10	10000	4	1	0	4	0
184	592	10	10000	4	1	0	4	0
256	593	10	10000	4	1	0	4	0
304	594	10	10000	4	1	0	4	0
305	595	10	10000	4	1	0	4	0
296	596	10	10000	4	1	0	4	0
300	597	10	10000	4	1	0	4	0
333	598	10	10000	4	1	0	4	0
342	599	10	10000	4	1	0	4	0
391	600	10	10000	4	1	0	4	0
455	601	10	10000	4	1	0	4	0
469	602	10	10000	4	1	0	4	0
499	603	10	10000	4	1	0	4	0
568	604	10	10000	4	1	0	4	0
638	605	10	10000	4	1	0	4	0
704	606	10	10000	4	1	0	4	0
759	607	10	10000	4	1	0	4	0
791	608	10	10000	4	1	0	4	0
810	609	10	10000	4	1	0	4	0
801	610	10	10000	4	1	0	4	0
766	611	10	10000	4	1	0	4	0
743	612	10	10000	4	1	0	4	0
728	613	10	10000	4	1	0	4	0
714	614	10	10000	4	1	0	4	0
699	615	10	10000	4	1	0	4	0
681	616	10	10000	4	1	0	4	0
666	617	10	10000	4	1	0	4	0
654	618	10	10000	4	1	0	4	0
646	619	10	10000	4	1	0	4	0
639	620	10	10000	4	1	0	4	0
632	621	10	10000	4	1	0	4	0
627	622	10	10000	4	1	0	4	0
622	623	10	10000	4	1	0	4	0
616	624	10	10000	4	1	0	4	0
610	625	10	10000	4	1	0	4	0
605	626	10	10000	4	1	0	4	0
596	627	10	10000	4	1	0	4	0
585	628	10	10000	4	1	0	4	0
571	629	10	10000	4	1	0	4	0
553	630	10	10000	4	1	0	4	0
535	631	10	10000	4	1	0	4	0
512	632	10	10000	4	1	0	4	0
488	633	10	10000	4	1	0	4	0
469	634	10	10000	4	1	0	4	0
455	635	10	10000	4	1	0	4	0
441	636	10	10000	4	1	0	4	0
429	637	10	10000	4	1	0	4	0
419	638	10	10000	4	1	0	4	0
410	639	10	10000	4	1	0	4	0
403	640	10	10000	4	1	0	4	0
394	641	10	10000	4	1	0	4	0
385	642	10	10000	4	1	0	4	0
377	643	10	10000	4	1	0	4	0
368	644	10	10000	4	1	0	4	0
357	645	10	10000	4	1	0	4	0
348	646	10	10000	4	1	0	4	0
341	647	10	10000	4	1	0	4	0
335	648	10	10000	4	1	0	4	0
331	649	10	10000	4	1	0	4	0
328	650	10	10000	4	1	0	4	0
328	651	10	10000	4	1	0	4	0
327	652	10	10000	4	1	0	4	0
329	653	10	10000	4	1	0	4	0
331	654	10	10000	4	1	0	4	0
334	655	10	10000	4	1	0	4	0
334	656	10	10000	4	1	0	4	0
334	657	10	10000	4	1	0	4	0
333	658	10	10000	4	1	0	4	0
330	659	10	10000	4	1	0	4	0
324	660	10	10000	4	1	0	4	0
317	661	10	10000	4	1	0	4	0
311	662	10	10000	4	1	0	4	0
303	663	10	10000	4	1	0	4	0
294	664	10	10000	4	1	0	4	0
281	665	10	10000	4	1	0	4	0
269	666	10	10000	4	1	0	4	0
258	667	10	10000	4	1	0	4	0
249	668	10	10000	4	1	0	4	0
237	669	10	10000	4	1	0	4	0
226	670	10	10000	4	1	0	4	0
217	671	10	10000	4	1	0	4	0
208	672	10	10000	4	1	0	4	0
200	673	10	10000	4	1	0	4	0
195	674	10	10000	4	1	0	4	0
193	675	10	10000	4	1	0	4	0
189	676	10	10000	4	1	0	4	0
186	677	10	10000	4	1	0	4	0
182	678	10	10000	4	1	0	4	0
175	679	10	10000	4	1	0	4	0
168	680	10	10000	4	1	0	4	0
163	681	10	10000	4	1	0	4	0
160	682	10	10000	4	1	0	4	0
159	683	10	10000	4	1	0	4	0
158	684	10	10000	4	1	0	4	0
157	685	10	10000	4	1	0	4	0
158	686	10	10000	4	1	0	4	0
157	687	10	10000	4	1	0	4	0
156	688	10	10000	4	1	0	4	0
155	689	10	10000	4	1	0	4	0
153	690	10	10000	4	1	0	4	0
151	691	10	10000	4	1	0	4	0
145	692	10	10000	4	1	0	4	0
138	693	10	10000	4	1	0	4	0
133	694	10	10000	4	1	0	4	0
128	695	10	10000	4	1	0	4	0
124	696	10	10000	4	1	0	4	0
123	697	10	10000	4	1	0	4	0
121	698	10	10000	4	1	0	4	0
121	699	10	10000	4	1	0	4	0
121	700	10	10000	4	1	0	4	0
121	701	10	10000	4	1	0	4	0
123	702	10	10000	4	1	0	4	0
126	703	10	10000	4	1	0	4	0
129	704	10	10000	4	1	0	4	0
132	705	10	10000	4	1	0	4	0
137	706	10	10000	4	1	0	4	0
142	707	10	10000	4	1	0	4	0
148	708	10	10000	4	1	0	4	0
153	709	10	10000	4	1	0	4	0
156	710	10	10000	4	1	0	4	0
157	711	10	10000	4	1	0	4	0
158	712	10	10000	4	1	0	4	0
155	713	10	10000	4	1	0	4	0
152	714	10	10000	4	1	0	4	0
148	715	10	10000	4	1	0	4	0
142	716	10	10000	4	1	0	4	0
135	717	10	10000	4	1	0	4	0
130	718	10	10000	4	1	0	4	0
125	719	10	10000	4	1	0	4	0
122	720	10	10000	4	1	0	4	0
121	721	10	10000	4	1	0	4	0
122	722	10	10000	4	1	0	4	0
124	723	10	10000	4	1	0	4	0
126	724	10	10000	4	1	0	4	0
126	725	10	10000	4	1	0	4	0
128	726	10	10000	4	1	0	4	0
129	727	10	10000	4	1	0	4	0
129	728	10	10000	4	1	0	4	0
128	729	10	10000	4	1	0	4	0
126	730	10	10000	4	1	0	4	0
123	731	10	10000	4	1	0	4	0
117	732	10	10000	4	1	0	4	0
113	733	10	10000	4	1	0	4	0
108	734	10	10000	4	1	0	4	0
105	735	10	10000	4	1	0	4	0
100	736	10	10000	4	1	0	4	0
96	737	10	10000	4	1	0	4	0
92	738	10	10000	4	1	0	4	0
88	739	10	10000	4	1	0	4	0
85	740	10	10000	4	1	0	4	0
82	741	10	10000	4	1	0	4	0
82	742	10	10000	4	1	0	4	0
83	743	10	10000	4	1	0	4	0
84	744	10	10000	4	1	0	4	0
83	745	10	10000	4	1	0	4	0
84	746	10	10000	4	1	0	4	0
83	747	10	10000	4	1	0	4	0
82	748	10	10000	4	1	0	4	0
80	749	10	10000	4	1	0	4	0
77	750	10	10000	4	1	0	4	0
73	751	10	10000	4	1	0	4	0
71	752	10	10000	4	1	0	4	0
69	753	10	10000	4	1	0	4	0
69	754	10	10000	4	1	0	4	0
72	755	10	10000	4	1	0	4	0
72	756	10	10000	4	1	0	4	0
74	757	10	10000	4	1	0	4	0
77	758	10	10000	4	1	0	4	0
81	759	10	10000	4	1	0	4	0
81	760	10	10000	4	1	0	4	0
80	761	10	10000	4	1	0	4	0
78	762	10	10000	4	1	0	4	0
78	763	10	10000	4	1	0	4	0
80	764	10	10000	4	1	0	4	0
80	765	10	10000	4	1	0	4	0
82	766	10	10000	4	1	0	4	0
83	767	10	10000	4	1	0	4	0
82	768	10	10000	4	1	0	4	0
80	769	10	10000	4	1	0	4	0
78	770	10	10000	4	1	0	4	0
76	771	10	10000	4	1	0	4	0
71	772	10	10000	4	1	0	4	0
68	773	10	10000	4	1	0	4	0
67	774	10	10000	4	1	0	4	0
68	775	10	10000	4	1	0	4	0
67	776	10	10000	4	1	0	4	0
66	777	10	10000	4	1	0	4	0
65	778	10	10000	4	1	0	4	0
64	779	10	10000	4	1	0	4	0
64	780	10	10000	4	1	0	4	0
63	781	10	10000	4	1	0	4	0
63	782	10	10000	4	1	0	4	0
65	783	10	10000	4	1	0	4	0
65	784	10	10000	4	1	0	4	0
63	785	10	10000	4	1	0	4	0
61	786	10	10000	4	1	0	4	0
59	787	10	10000	4	1	0	4	0
60	788	10	10000	4	1	0	4	0
61	789	10	10000	4	1	0	4	0
61	790	10	10000	4	1	0	4	0
61	791	10	10000	4	1	0	4	0
59	792	10	10000	4	1	0	4	0
57	793	10	10000	4	1	0	4	0
55	794	10	10000	4	1	0	4	0
56	795	10	10000	4	1	0	4	0
54	796	10	10000	4	1	0	4	0
53	797	10	10000	4	1	0	4	0
54	798	10	10000	4	1	0	4	0
55	799	10	10000	4	1	0	4	0
55	800	10	10000	4	1	0	4	0
54	801	10	10000	4	1	0	4	0
54	802	10	10000	4	1	0	4	0
53	803	10	10000	4	1	0	4	0
53	804	10	10000	4	1	0	4	0
53	805	10	10000	4	1	0	4	0
53	806	10	10000	4	1	0	4	0
53	807	10	10000	4	1	0	4	0
51	808	10	10000	4	1	0	4	0
51	809	10	10000	4	1	0	4	0
52	810	10	10000	4	1	0	4	0
53	811	10	10000	4	1	0	4	0
53	812	10	10000	4	1	0	4	0
52	813	10	10000	4	1	0	4	0
51	814	10	10000	4	1	0	4	0
53	815	10	10000	4	1	0	4	0
55	816	10	10000	4	1	0	4	0
57	817	10	10000	4	1	0	4	0
57	818	10	10000	4	1	0	4	0
58	819	10	10000	4	1	0	4	0
57	820	10	10000	4	1	0	4	0
55	821	10	10000	4	1	0	4	0
53	822	10	10000	4	1	0	4	0
53	823	10	10000	4	1	0	4	0
51	824	10	10000	4	1	0	4	0
49	825	10	10000	4	1	0	4	0
49	826	10	10000	4	1	0	4	0
49	827	10	10000	4	1	0	4	0
49	828	10	10000	4	1	0	4	0
47	829	10	10000	4	1	0	4	0
46	830	10	10000	4	1	0	4	0
44	831	10	10000	4	1	0	4	0
43	832	10	10000	4	1	0	4	0
42	833	10	10000	4	1	0	4	0
44	834	10	10000	4	1	0	4	0
48	835	10	10000	4	1	0	4	0
50	836	10	10000	4	1	0	4	0
53	837	10	10000	4	1	0	4	0
54	838	10	10000	4	1	0	4	0
56	839	10	10000	4	1	0	4	0
55	840	10	10000	4	1	0	4	0
53	841	10	10000	4	1	0	4	0
52	842	10	10000	4	1	0	4	0
51	843	10	10000	4	1	0	4	0
49	844	10	10000	4	1	0	4	0
45	845	10	10000	4	1	0	4	0
44	846	10	10000	4	1	0	4	0
42	847	10	10000	4	1	0	4	0
42	848	10	10000	4	1	0	4	0
43	849	10	10000	4	1	0	4	0
43	850	10	10000	4	1	0	4	0
43	851	10	10000	4	1	0	4	0
42	852	10	10000	4	1	0	4	0
40	853	10	10000	4	1	0	4	0
39	854	10	10000	4	1	0	4	0
38	855	10	10000	4	1	0	4	0
38	856	10	10000	4	1	0	4	0
37	857	10	10000	4	1	0	4	0
37	858	10	10000	4	1	0	4	0
36	859	10	10000	4	1	0	4	0
35	860	10	10000	4	1	0	4	0
34	861	10	10000	4	1	0	4	0
33	862	10	10000	4	1	0	4	0
34	863	10	10000	4	1	0	4	0
33	864	10	10000	4	1	0	4	0
31	865	10	10000	4	1	0	4	0
31	866	10	10000	4	1	0	4	0
30	867	10	10000	4	1	0	4	0
29	868	10	10000	4	1	0	4	0
29	869	10	10000	4	1	0	4	0
27	870	10	10000	4	1	0	4	0
27	871	10	10000	4	1	0	4	0
27	872	10	10000	4	1	0	4	0
29	873	10	10000	4	1	0	4	0
32	874	10	10000	4	1	0	4	0
36	875	10	10000	4	1	0	4	0
36	876	10	10000	4	1	0	4	0
35	877	10	10000	4	1	0	4	0
34	878	10	10000	4	1	0	4	0
32	879	10	10000	4	1	0	4	0
32	880	10	10000	4	1	0	4	0
32	881	10	10000	4	1	0	4	0
33	882	10	10000	4	1	0	4	0
34	883	10	10000	4	1	0	4	0
35	884	10	10000	4	1	0	4	0
34	885	10	10000	4	1	0	4	0
36	886	10	10000	4	1	0	4	0
38	887	10	10000	4	1	0	4	0
41	888	10	10000	4	1	0	4	0
41	889	10	10000	4	1	0	4	0
41	890	10	10000	4	1	0	4	0
39	891	10	10000	4	1	0	4	0
39	892	10	10000	4	1	0	4	0
40	893	10	10000	4	1	0	4	0
42	894	10	10000	4	1	0	4	0
43	895	10	10000	4	1	0	4	0
41	896	10	10000	4	1	0	4	0
41	897	10	10000	4	1	0	4	0
39	898	10	10000	4	1	0	4	0
39	899	10	10000	4	1	0	4	0
38	900	10	10000	4	1	0	4	0
37	901	10	10000	4	1	0	4	0
37	902	10	10000	4	1	0	4	0
36	903	10	10000	4	1	0	4	0
36	904	10	10000	4	1	0	4	0
34	905	10	10000	4	1	0	4	0
34	906	10	10000	4	1	0	4	0
32	907	10	10000	4	1	0	4	0
31	908	10	10000	4	1	0	4	0
30	909	10	10000	4	1	0	4	0
28	910	10	10000	4	1	0	4	0
29	911	10	10000	4	1	0	4	0
28	912	10	10000	4	1	0	4	0
28	913	10	10000	4	1	0	4	0
31	914	10	10000	4	1	0	4	0
36	915	10	10000	4	1	0	4	0
38	916	10	10000	4	1	0	4	0
40	917	10	10000	4	1	0	4	0
42	918	10	10000	4	1	0	4	0
41	919	10	10000	4	1	0	4	0
40	920	10	10000	4	1	0	4	0
39	921	10	10000	4	1	0	4	0
40	922	10	10000	4	1	0	4	0
42	923	10	10000	4	1	0	4	0
42	924	10	10000	4	1	0	4	0
42	925	10	10000	4	1	0	4	0
43	926	10	10000	4	1	0	4	0
42	927	10	10000	4	1	0	4	0
41	928	10	10000	4	1	0	4	0
40	929	10	10000	4	1	0	4	0
39	930	10	10000	4	1	0	4	0
38	931	10	10000	4	1	0	4	0
35	932	10	10000	4	1	0	4	0
34	933	10	10000	4	1	0	4	0
33	934	10	10000	4	1	0	4	0
33	935	10	10000	4	1	0	4	0
33	936	10	10000	4	1	0	4	0
34	937	10	10000	4	1	0	4	0
33	938	10	10000	4	1	0	4	0
33	939	10	10000	4	1	0	4	0
34	940	10	10000	4	1	0	4	0
34	941	10	10000	4	1	0	4	0
34	942	10	10000	4	1	0	4	0
34	943	10	10000	4	1	0	4	0
33	944	10	10000	4	1	0	4	0
31	945	10	10000	4	1	0	4	0
32	946	10	10000	4	1	0	4	0
33	947	10	10000	4	1	0	4	0
33	948	10	10000	4	1	0	4	0
33	949	10	10000	4	1	0	4	0
32	950	10	10000	4	1	0	4	0
32	951	10	10000	4	1	0	4	0
31	952	10	10000	4	1	0	4	0
29	953	10	10000	4	1	0	4	0
28	954	10	10000	4	1	0	4	0
29	955	10	10000	4	1	0	4	0
27	956	10	10000	4	1	0	4	0
26	957	10	10000	4	1	0	4	0
25	958	10	10000	4	1	0	4	0
24	959	10	10000	4	1	0	4	0
22	960	10	10000	4	1	0	4	0
22	961	10	10000	4	1	0	4	0
23	962	10	10000	4	1	0	4	0
23	963	10	10000	4	1	0	4	0
22	964	10	10000	4	1	0	4	0
20	965	10	10000	4	1	0	4	0
20	966	10	10000	4	1	0	4	0
20	967	10	10000	4	1	0	4	0
20	968	10	10000	4	1	0	4	0
19	969	10	10000	4	1	0	4	0
19	970	10	10000	4	1	0	4	0
20	971	10	10000	4	1	0	4	0
19	972	10	10000	4	1	0	4	0
18	973	10	10000	4	1	0	4	0
18	974	10	10000	4	1	0	4	0
20	975	10	10000	4	1	0	4	0
19	976	10	10000	4	1	0	4	0
19	977	10	10000	4	1	0	4	0
18	978	10	10000	4	1	0	4	0
18	979	10	10000	4	1	0	4	0
18	980	10	10000	4	1	0	4	0
17	981	10	10000	4	1	0	4	0
19	982	10	10000	4	1	0	4	0
20	983	10	10000	4	1	0	4	0
19	984	10	10000	4	1	0	4	0
17	985	10	10000	4	1	0	4	0
18	986	10	10000	4	1	0	4	0
17	987	10	10000	4	1	0	4	0
18	988	10	10000	4	1	0	4	0
19	989	10	10000	4	1	0	4	0
18	990	10	10000	4	1	0	4	0
18	991	10	10000	4	1	0	4	0
17	992	10	10000	4	1	0	4	0
16	993	10	10000	4	1	0	4	0
19	994	10	10000	4	1	0	4	0
22	995	10	10000	4	1	0	4	0
24	996	10	10000	4	1	0	4	0
26	997	10	10000	4	1	0	4	0
26	998	10	10000	4	1	0	4	0
25	999	10	10000	4	1	0	4	0
24	1000	10	10000	4	1	0	4	0
25	1001	10	10000	4	1	0	4	0
19	2	0	10000	5	1	0	5	0
19	3	0	10000	5	1	0	5	0
19	4	0	10000	5	1	0	5	0
18	5	0	10000	5	1	0	5	0
19	6	0	10000	5	1	0	5	0
20	7	0	10000	5	1	0	5	0
20	8	0	10000	5	1	0	5	0
20	9	0	10000	5	1	0	5	0
19	10	0	10000	5	1	0	5	0
20	11	0	10000	5	1	0	5	0
20	12	0	10000	5	1	0	5	0
19	13	0	10000	5	1	0	5	0
19	14	0	10000	5	1	0	5	0
20	15	0	10000	5	1	0	5	0
20	16	0	10000	5	1	0	5	0
20	17	0	10000	5	1	0	5	0
19	18	0	10000	5	1	0	5	0
18	19	0	10000	5	1	0	5	0
19	20	0	10000	5	1	0	5	0
18	21	0	10000	5	1	0	5	0
19	22	0	10000	5	1	0	5	0
22	23	0	10000	5	1	0	5	0
23	24	0	10000	5	1	0	5	0
23	25	0	10000	5	1	0	5	0
23	26	0	10000	5	1	0	5	0
23	27	0	10000	5	1	0	5	0
22	28	0	10000	5	1	0	5	0
23	29	0	10000	5	1	0	5	0
23	30	0	10000	5	1	0	5	0
23	31	0	10000	5	1	0	5	0
23	32	0	10000	5	1	0	5	0
21	33	0	10000	5	1	0	5	0
21	34	0	10000	5	1	0	5	0
21	35	0	10000	5	1	0	5	0
22	36	0	10000	5	1	0	5	0
21	37	0	10000	5	1	0	5	0
22	38	0	10000	5	1	0	5	0
23	39	0	10000	5	1	0	5	0
24	40	0	10000	5	1	0	5	0
24	41	0	10000	5	1	0	5	0
23	42	0	10000	5	1	0	5	0
23	43	0	10000	5	1	0	5	0
25	44	0	10000	5	1	0	5	0
25	45	0	10000	5	1	0	5	0
23	46	0	10000	5	1	0	5	0
23	47	0	10000	5	1	0	5	0
23	48	0	10000	5	1	0	5	0
24	49	0	10000	5	1	0	5	0
25	50	0	10000	5	1	0	5	0
27	51	0	10000	5	1	0	5	0
28	52	0	10000	5	1	0	5	0
28	53	0	10000	5	1	0	5	0
31	54	0	10000	5	1	0	5	0
32	55	0	10000	5	1	0	5	0
36	56	0	10000	5	1	0	5	0
38	57	0	10000	5	1	0	5	0
37	58	0	10000	5	1	0	5	0
38	59	0	10000	5	1	0	5	0
38	60	0	10000	5	1	0	5	0
37	61	0	10000	5	1	0	5	0
36	62	0	10000	5	1	0	5	0
38	63	0	10000	5	1	0	5	0
37	64	0	10000	5	1	0	5	0
36	65	0	10000	5	1	0	5	0
34	66	0	10000	5	1	0	5	0
32	67	0	10000	5	1	0	5	0
31	68	0	10000	5	1	0	5	0
30	69	0	10000	5	1	0	5	0
29	70	0	10000	5	1	0	5	0
28	71	0	10000	5	1	0	5	0
27	72	0	10000	5	1	0	5	0
27	73	0	10000	5	1	0	5	0
27	74	0	10000	5	1	0	5	0
29	75	0	10000	5	1	0	5	0
32	76	0	10000	5	1	0	5	0
31	77	0	10000	5	1	0	5	0
29	78	0	10000	5	1	0	5	0
30	79	0	10000	5	1	0	5	0
31	80	0	10000	5	1	0	5	0
32	81	0	10000	5	1	0	5	0
33	82	0	10000	5	1	0	5	0
34	83	0	10000	5	1	0	5	0
34	84	0	10000	5	1	0	5	0
34	85	0	10000	5	1	0	5	0
31	86	0	10000	5	1	0	5	0
30	87	0	10000	5	1	0	5	0
30	88	0	10000	5	1	0	5	0
29	89	0	10000	5	1	0	5	0
29	90	0	10000	5	1	0	5	0
29	91	0	10000	5	1	0	5	0
31	92	0	10000	5	1	0	5	0
32	93	0	10000	5	1	0	5	0
34	94	0	10000	5	1	0	5	0
36	95	0	10000	5	1	0	5	0
36	96	0	10000	5	1	0	5	0
35	97	0	10000	5	1	0	5	0
33	98	0	10000	5	1	0	5	0
32	99	0	10000	5	1	0	5	0
33	100	0	10000	5	1	0	5	0
32	101	0	10000	5	1	0	5	0
30	102	0	10000	5	1	0	5	0
30	103	0	10000	5	1	0	5	0
32	104	0	10000	5	1	0	5	0
32	105	0	10000	5	1	0	5	0
30	106	0	10000	5	1	0	5	0
29	107	0	10000	5	1	0	5	0
29	108	0	10000	5	1	0	5	0
29	109	0	10000	5	1	0	5	0
30	110	0	10000	5	1	0	5	0
30	111	0	10000	5	1	0	5	0
30	112	0	10000	5	1	0	5	0
29	113	0	10000	5	1	0	5	0
28	114	0	10000	5	1	0	5	0
28	115	0	10000	5	1	0	5	0
29	116	0	10000	5	1	0	5	0
27	117	0	10000	5	1	0	5	0
27	118	0	10000	5	1	0	5	0
27	119	0	10000	5	1	0	5	0
26	120	0	10000	5	1	0	5	0
26	121	0	10000	5	1	0	5	0
26	122	0	10000	5	1	0	5	0
25	123	0	10000	5	1	0	5	0
25	124	0	10000	5	1	0	5	0
24	125	0	10000	5	1	0	5	0
23	126	0	10000	5	1	0	5	0
23	127	0	10000	5	1	0	5	0
23	128	0	10000	5	1	0	5	0
22	129	0	10000	5	1	0	5	0
22	130	0	10000	5	1	0	5	0
21	131	0	10000	5	1	0	5	0
21	132	0	10000	5	1	0	5	0
20	133	0	10000	5	1	0	5	0
20	134	0	10000	5	1	0	5	0
19	135	0	10000	5	1	0	5	0
20	136	0	10000	5	1	0	5	0
20	137	0	10000	5	1	0	5	0
19	138	0	10000	5	1	0	5	0
18	139	0	10000	5	1	0	5	0
18	140	0	10000	5	1	0	5	0
17	141	0	10000	5	1	0	5	0
17	142	0	10000	5	1	0	5	0
17	143	0	10000	5	1	0	5	0
17	144	0	10000	5	1	0	5	0
17	145	0	10000	5	1	0	5	0
15	146	0	10000	5	1	0	5	0
16	147	0	10000	5	1	0	5	0
18	148	0	10000	5	1	0	5	0
18	149	0	10000	5	1	0	5	0
17	150	0	10000	5	1	0	5	0
17	151	0	10000	5	1	0	5	0
17	152	0	10000	5	1	0	5	0
17	153	0	10000	5	1	0	5	0
16	154	0	10000	5	1	0	5	0
16	155	0	10000	5	1	0	5	0
18	156	0	10000	5	1	0	5	0
18	157	0	10000	5	1	0	5	0
19	158	0	10000	5	1	0	5	0
18	159	0	10000	5	1	0	5	0
19	160	0	10000	5	1	0	5	0
18	161	0	10000	5	1	0	5	0
18	162	0	10000	5	1	0	5	0
18	163	0	10000	5	1	0	5	0
18	164	0	10000	5	1	0	5	0
17	165	0	10000	5	1	0	5	0
16	166	0	10000	5	1	0	5	0
16	167	0	10000	5	1	0	5	0
16	168	0	10000	5	1	0	5	0
15	169	0	10000	5	1	0	5	0
15	170	0	10000	5	1	0	5	0
16	171	0	10000	5	1	0	5	0
15	172	0	10000	5	1	0	5	0
14	173	0	10000	5	1	0	5	0
14	174	0	10000	5	1	0	5	0
13	175	0	10000	5	1	0	5	0
14	176	0	10000	5	1	0	5	0
14	177	0	10000	5	1	0	5	0
16	178	0	10000	5	1	0	5	0
15	179	0	10000	5	1	0	5	0
16	180	0	10000	5	1	0	5	0
16	181	0	10000	5	1	0	5	0
16	182	0	10000	5	1	0	5	0
16	183	0	10000	5	1	0	5	0
19	184	0	10000	5	1	0	5	0
19	185	0	10000	5	1	0	5	0
18	186	0	10000	5	1	0	5	0
20	187	0	10000	5	1	0	5	0
20	188	0	10000	5	1	0	5	0
20	189	0	10000	5	1	0	5	0
19	190	0	10000	5	1	0	5	0
19	191	0	10000	5	1	0	5	0
18	192	0	10000	5	1	0	5	0
19	193	0	10000	5	1	0	5	0
20	194	0	10000	5	1	0	5	0
22	195	0	10000	5	1	0	5	0
24	196	0	10000	5	1	0	5	0
23	197	0	10000	5	1	0	5	0
22	198	0	10000	5	1	0	5	0
22	199	0	10000	5	1	0	5	0
23	200	0	10000	5	1	0	5	0
24	201	0	10000	5	1	0	5	0
24	202	0	10000	5	1	0	5	0
24	203	0	10000	5	1	0	5	0
24	204	0	10000	5	1	0	5	0
26	205	0	10000	5	1	0	5	0
26	206	0	10000	5	1	0	5	0
30	207	0	10000	5	1	0	5	0
32	208	0	10000	5	1	0	5	0
33	209	0	10000	5	1	0	5	0
33	210	0	10000	5	1	0	5	0
34	211	0	10000	5	1	0	5	0
32	212	0	10000	5	1	0	5	0
33	213	0	10000	5	1	0	5	0
33	214	0	10000	5	1	0	5	0
33	215	0	10000	5	1	0	5	0
35	216	0	10000	5	1	0	5	0
35	217	0	10000	5	1	0	5	0
34	218	0	10000	5	1	0	5	0
33	219	0	10000	5	1	0	5	0
34	220	0	10000	5	1	0	5	0
34	221	0	10000	5	1	0	5	0
34	222	0	10000	5	1	0	5	0
34	223	0	10000	5	1	0	5	0
34	224	0	10000	5	1	0	5	0
32	225	0	10000	5	1	0	5	0
31	226	0	10000	5	1	0	5	0
33	227	0	10000	5	1	0	5	0
34	228	0	10000	5	1	0	5	0
33	229	0	10000	5	1	0	5	0
33	230	0	10000	5	1	0	5	0
31	231	0	10000	5	1	0	5	0
31	232	0	10000	5	1	0	5	0
30	233	0	10000	5	1	0	5	0
31	234	0	10000	5	1	0	5	0
32	235	0	10000	5	1	0	5	0
33	236	0	10000	5	1	0	5	0
32	237	0	10000	5	1	0	5	0
31	238	0	10000	5	1	0	5	0
29	239	0	10000	5	1	0	5	0
29	240	0	10000	5	1	0	5	0
29	241	0	10000	5	1	0	5	0
30	242	0	10000	5	1	0	5	0
29	243	0	10000	5	1	0	5	0
28	244	0	10000	5	1	0	5	0
28	245	0	10000	5	1	0	5	0
25	246	0	10000	5	1	0	5	0
25	247	0	10000	5	1	0	5	0
25	248	0	10000	5	1	0	5	0
24	249	0	10000	5	1	0	5	0
24	250	0	10000	5	1	0	5	0
23	251	0	10000	5	1	0	5	0
23	252	0	10000	5	1	0	5	0
22	253	0	10000	5	1	0	5	0
22	254	0	10000	5	1	0	5	0
23	255	0	10000	5	1	0	5	0
24	256	0	10000	5	1	0	5	0
23	257	0	10000	5	1	0	5	0
23	258	0	10000	5	1	0	5	0
21	259	0	10000	5	1	0	5	0
21	260	0	10000	5	1	0	5	0
21	261	0	10000	5	1	0	5	0
21	262	0	10000	5	1	0	5	0
22	263	0	10000	5	1	0	5	0
22	264	0	10000	5	1	0	5	0
21	265	0	10000	5	1	0	5	0
20	266	0	10000	5	1	0	5	0
20	267	0	10000	5	1	0	5	0
20	268	0	10000	5	1	0	5	0
21	269	0	10000	5	1	0	5	0
21	270	0	10000	5	1	0	5	0
21	271	0	10000	5	1	0	5	0
20	272	0	10000	5	1	0	5	0
20	273	0	10000	5	1	0	5	0
20	274	0	10000	5	1	0	5	0
20	275	0	10000	5	1	0	5	0
20	276	0	10000	5	1	0	5	0
20	277	0	10000	5	1	0	5	0
20	278	0	10000	5	1	0	5	0
20	279	0	10000	5	1	0	5	0
19	280	0	10000	5	1	0	5	0
19	281	0	10000	5	1	0	5	0
19	282	0	10000	5	1	0	5	0
18	283	0	10000	5	1	0	5	0
19	284	0	10000	5	1	0	5	0
19	285	0	10000	5	1	0	5	0
17	286	0	10000	5	1	0	5	0
16	287	0	10000	5	1	0	5	0
17	288	0	10000	5	1	0	5	0
16	289	0	10000	5	1	0	5	0
16	290	0	10000	5	1	0	5	0
17	291	0	10000	5	1	0	5	0
17	292	0	10000	5	1	0	5	0
18	293	0	10000	5	1	0	5	0
19	294	0	10000	5	1	0	5	0
19	295	0	10000	5	1	0	5	0
21	296	0	10000	5	1	0	5	0
21	297	0	10000	5	1	0	5	0
22	298	0	10000	5	1	0	5	0
21	299	0	10000	5	1	0	5	0
21	300	0	10000	5	1	0	5	0
23	301	0	10000	5	1	0	5	0
25	302	0	10000	5	1	0	5	0
26	303	0	10000	5	1	0	5	0
26	304	0	10000	5	1	0	5	0
26	305	0	10000	5	1	0	5	0
25	306	0	10000	5	1	0	5	0
25	307	0	10000	5	1	0	5	0
24	308	0	10000	5	1	0	5	0
24	309	0	10000	5	1	0	5	0
23	310	0	10000	5	1	0	5	0
22	311	0	10000	5	1	0	5	0
22	312	0	10000	5	1	0	5	0
22	313	0	10000	5	1	0	5	0
22	314	0	10000	5	1	0	5	0
23	315	0	10000	5	1	0	5	0
23	316	0	10000	5	1	0	5	0
22	317	0	10000	5	1	0	5	0
23	318	0	10000	5	1	0	5	0
25	319	0	10000	5	1	0	5	0
25	320	0	10000	5	1	0	5	0
25	321	0	10000	5	1	0	5	0
25	322	0	10000	5	1	0	5	0
25	323	0	10000	5	1	0	5	0
25	324	0	10000	5	1	0	5	0
24	325	0	10000	5	1	0	5	0
22	326	0	10000	5	1	0	5	0
22	327	0	10000	5	1	0	5	0
21	328	0	10000	5	1	0	5	0
21	329	0	10000	5	1	0	5	0
21	330	0	10000	5	1	0	5	0
21	331	0	10000	5	1	0	5	0
21	332	0	10000	5	1	0	5	0
21	333	0	10000	5	1	0	5	0
20	334	0	10000	5	1	0	5	0
20	335	0	10000	5	1	0	5	0
21	336	0	10000	5	1	0	5	0
22	337	0	10000	5	1	0	5	0
22	338	0	10000	5	1	0	5	0
22	339	0	10000	5	1	0	5	0
22	340	0	10000	5	1	0	5	0
22	341	0	10000	5	1	0	5	0
20	342	0	10000	5	1	0	5	0
20	343	0	10000	5	1	0	5	0
20	344	0	10000	5	1	0	5	0
20	345	0	10000	5	1	0	5	0
18	346	0	10000	5	1	0	5	0
17	347	0	10000	5	1	0	5	0
18	348	0	10000	5	1	0	5	0
19	349	0	10000	5	1	0	5	0
18	350	0	10000	5	1	0	5	0
18	351	0	10000	5	1	0	5	0
19	352	0	10000	5	1	0	5	0
20	353	0	10000	5	1	0	5	0
19	354	0	10000	5	1	0	5	0
21	355	0	10000	5	1	0	5	0
24	356	0	10000	5	1	0	5	0
23	357	0	10000	5	1	0	5	0
24	358	0	10000	5	1	0	5	0
24	359	0	10000	5	1	0	5	0
23	360	0	10000	5	1	0	5	0
22	361	0	10000	5	1	0	5	0
22	362	0	10000	5	1	0	5	0
23	363	0	10000	5	1	0	5	0
23	364	0	10000	5	1	0	5	0
22	365	0	10000	5	1	0	5	0
20	366	0	10000	5	1	0	5	0
20	367	0	10000	5	1	0	5	0
20	368	0	10000	5	1	0	5	0
20	369	0	10000	5	1	0	5	0
20	370	0	10000	5	1	0	5	0
20	371	0	10000	5	1	0	5	0
19	372	0	10000	5	1	0	5	0
19	373	0	10000	5	1	0	5	0
18	374	0	10000	5	1	0	5	0
18	375	0	10000	5	1	0	5	0
19	376	0	10000	5	1	0	5	0
19	377	0	10000	5	1	0	5	0
20	378	0	10000	5	1	0	5	0
20	379	0	10000	5	1	0	5	0
21	380	0	10000	5	1	0	5	0
21	381	0	10000	5	1	0	5	0
20	382	0	10000	5	1	0	5	0
21	383	0	10000	5	1	0	5	0
21	384	0	10000	5	1	0	5	0
21	385	0	10000	5	1	0	5	0
19	386	0	10000	5	1	0	5	0
19	387	0	10000	5	1	0	5	0
19	388	0	10000	5	1	0	5	0
18	389	0	10000	5	1	0	5	0
19	390	0	10000	5	1	0	5	0
18	391	0	10000	5	1	0	5	0
20	392	0	10000	5	1	0	5	0
20	393	0	10000	5	1	0	5	0
19	394	0	10000	5	1	0	5	0
19	395	0	10000	5	1	0	5	0
20	396	0	10000	5	1	0	5	0
20	397	0	10000	5	1	0	5	0
22	398	0	10000	5	1	0	5	0
26	399	0	10000	5	1	0	5	0
28	400	0	10000	5	1	0	5	0
29	401	0	10000	5	1	0	5	0
30	402	0	10000	5	1	0	5	0
31	403	0	10000	5	1	0	5	0
30	404	0	10000	5	1	0	5	0
29	405	0	10000	5	1	0	5	0
27	406	0	10000	5	1	0	5	0
26	407	0	10000	5	1	0	5	0
25	408	0	10000	5	1	0	5	0
25	409	0	10000	5	1	0	5	0
24	410	0	10000	5	1	0	5	0
24	411	0	10000	5	1	0	5	0
24	412	0	10000	5	1	0	5	0
24	413	0	10000	5	1	0	5	0
25	414	0	10000	5	1	0	5	0
25	415	0	10000	5	1	0	5	0
25	416	0	10000	5	1	0	5	0
24	417	0	10000	5	1	0	5	0
24	418	0	10000	5	1	0	5	0
23	419	0	10000	5	1	0	5	0
22	420	0	10000	5	1	0	5	0
22	421	0	10000	5	1	0	5	0
22	422	0	10000	5	1	0	5	0
22	423	0	10000	5	1	0	5	0
21	424	0	10000	5	1	0	5	0
20	425	0	10000	5	1	0	5	0
19	426	0	10000	5	1	0	5	0
19	427	0	10000	5	1	0	5	0
19	428	0	10000	5	1	0	5	0
19	429	0	10000	5	1	0	5	0
18	430	0	10000	5	1	0	5	0
18	431	0	10000	5	1	0	5	0
18	432	0	10000	5	1	0	5	0
18	433	0	10000	5	1	0	5	0
18	434	0	10000	5	1	0	5	0
19	435	0	10000	5	1	0	5	0
20	436	0	10000	5	1	0	5	0
19	437	0	10000	5	1	0	5	0
18	438	0	10000	5	1	0	5	0
18	439	0	10000	5	1	0	5	0
17	440	0	10000	5	1	0	5	0
16	441	0	10000	5	1	0	5	0
17	442	0	10000	5	1	0	5	0
18	443	0	10000	5	1	0	5	0
18	444	0	10000	5	1	0	5	0
17	445	0	10000	5	1	0	5	0
16	446	0	10000	5	1	0	5	0
16	447	0	10000	5	1	0	5	0
16	448	0	10000	5	1	0	5	0
16	449	0	10000	5	1	0	5	0
16	450	0	10000	5	1	0	5	0
16	451	0	10000	5	1	0	5	0
16	452	0	10000	5	1	0	5	0
15	453	0	10000	5	1	0	5	0
13	454	0	10000	5	1	0	5	0
14	455	0	10000	5	1	0	5	0
17	456	0	10000	5	1	0	5	0
16	457	0	10000	5	1	0	5	0
16	458	0	10000	5	1	0	5	0
15	459	0	10000	5	1	0	5	0
15	460	0	10000	5	1	0	5	0
16	461	0	10000	5	1	0	5	0
15	462	0	10000	5	1	0	5	0
15	463	0	10000	5	1	0	5	0
15	464	0	10000	5	1	0	5	0
15	465	0	10000	5	1	0	5	0
14	466	0	10000	5	1	0	5	0
15	467	0	10000	5	1	0	5	0
16	468	0	10000	5	1	0	5	0
16	469	0	10000	5	1	0	5	0
16	470	0	10000	5	1	0	5	0
15	471	0	10000	5	1	0	5	0
15	472	0	10000	5	1	0	5	0
16	473	0	10000	5	1	0	5	0
14	474	0	10000	5	1	0	5	0
14	475	0	10000	5	1	0	5	0
17	476	0	10000	5	1	0	5	0
15	477	0	10000	5	1	0	5	0
15	478	0	10000	5	1	0	5	0
15	479	0	10000	5	1	0	5	0
14	480	0	10000	5	1	0	5	0
14	481	0	10000	5	1	0	5	0
13	482	0	10000	5	1	0	5	0
14	483	0	10000	5	1	0	5	0
14	484	0	10000	5	1	0	5	0
13	485	0	10000	5	1	0	5	0
12	486	0	10000	5	1	0	5	0
12	487	0	10000	5	1	0	5	0
12	488	0	10000	5	1	0	5	0
12	489	0	10000	5	1	0	5	0
12	490	0	10000	5	1	0	5	0
12	491	0	10000	5	1	0	5	0
12	492	0	10000	5	1	0	5	0
12	493	0	10000	5	1	0	5	0
13	494	0	10000	5	1	0	5	0
15	495	0	10000	5	1	0	5	0
18	496	0	10000	5	1	0	5	0
18	497	0	10000	5	1	0	5	0
17	498	0	10000	5	1	0	5	0
16	499	0	10000	5	1	0	5	0
16	500	0	10000	5	1	0	5	0
15	501	0	10000	5	1	0	5	0
14	501	0	10000	5	1	0	5	1
15	502	0	10000	5	1	0	5	1
15	504	0	10000	5	1	0	5	1
15	505	0	10000	5	1	0	5	1
14	506	0	10000	5	1	0	5	1
14	507	0	10000	5	1	0	5	1
14	508	0	10000	5	1	0	5	1
14	509	0	10000	5	1	0	5	1
15	510	0	10000	5	1	0	5	1
14	511	0	10000	5	1	0	5	1
14	512	0	10000	5	1	0	5	1
14	513	0	10000	5	1	0	5	1
14	514	0	10000	5	1	0	5	1
14	515	0	10000	5	1	0	5	1
15	516	0	10000	5	1	0	5	1
14	517	0	10000	5	1	0	5	1
15	518	0	10000	5	1	0	5	1
14	519	0	10000	5	1	0	5	1
14	520	0	10000	5	1	0	5	1
15	521	0	10000	5	1	0	5	1
16	522	0	10000	5	1	0	5	1
18	523	0	10000	5	1	0	5	1
18	524	0	10000	5	1	0	5	1
18	525	0	10000	5	1	0	5	1
16	526	0	10000	5	1	0	5	1
16	527	0	10000	5	1	0	5	1
15	528	0	10000	5	1	0	5	1
17	529	0	10000	5	1	0	5	1
18	530	0	10000	5	1	0	5	1
18	531	0	10000	5	1	0	5	1
18	532	0	10000	5	1	0	5	1
17	533	0	10000	5	1	0	5	1
15	534	0	10000	5	1	0	5	1
16	535	0	10000	5	1	0	5	1
17	536	0	10000	5	1	0	5	1
16	537	0	10000	5	1	0	5	1
17	538	0	10000	5	1	0	5	1
17	539	0	10000	5	1	0	5	1
18	540	0	10000	5	1	0	5	1
17	541	0	10000	5	1	0	5	1
16	542	0	10000	5	1	0	5	1
16	543	0	10000	5	1	0	5	1
17	544	0	10000	5	1	0	5	1
17	545	0	10000	5	1	0	5	1
15	546	0	10000	5	1	0	5	1
16	547	0	10000	5	1	0	5	1
15	548	0	10000	5	1	0	5	1
14	549	0	10000	5	1	0	5	1
14	550	0	10000	5	1	0	5	1
14	551	0	10000	5	1	0	5	1
16	552	0	10000	5	1	0	5	0
15	553	0	10000	5	1	0	5	0
14	554	0	10000	5	1	0	5	0
13	555	0	10000	5	1	0	5	0
15	556	0	10000	5	1	0	5	0
14	557	0	10000	5	1	0	5	0
14	558	0	10000	5	1	0	5	0
13	559	0	10000	5	1	0	5	0
13	560	0	10000	5	1	0	5	0
13	561	0	10000	5	1	0	5	0
12	562	0	10000	5	1	0	5	0
13	563	0	10000	5	1	0	5	0
13	564	0	10000	5	1	0	5	0
12	565	0	10000	5	1	0	5	0
11	566	0	10000	5	1	0	5	0
11	567	0	10000	5	1	0	5	0
12	568	0	10000	5	1	0	5	0
15	569	0	10000	5	1	0	5	0
16	570	0	10000	5	1	0	5	0
16	571	0	10000	5	1	0	5	0
16	572	0	10000	5	1	0	5	0
16	573	0	10000	5	1	0	5	0
17	574	0	10000	5	1	0	5	0
20	575	0	10000	5	1	0	5	0
21	576	0	10000	5	1	0	5	0
22	577	0	10000	5	1	0	5	0
22	578	0	10000	5	1	0	5	0
22	579	0	10000	5	1	0	5	0
23	580	0	10000	5	1	0	5	0
28	581	0	10000	5	1	0	5	0
43	582	0	10000	5	1	0	5	0
57	583	0	10000	5	1	0	5	0
66	584	0	10000	5	1	0	5	0
79	585	0	10000	5	1	0	5	0
101	586	0	10000	5	1	0	5	0
128	587	0	10000	5	1	0	5	0
166	588	0	10000	5	1	0	5	0
197	589	0	10000	5	1	0	5	0
227	590	0	10000	5	1	0	5	0
265	591	0	10000	5	1	0	5	0
268	592	0	10000	5	1	0	5	0
293	593	0	10000	5	1	0	5	0
336	594	0	10000	5	1	0	5	0
364	595	0	10000	5	1	0	5	0
358	596	0	10000	5	1	0	5	0
369	597	0	10000	5	1	0	5	0
416	598	0	10000	5	1	0	5	0
463	599	0	10000	5	1	0	5	0
467	600	0	10000	5	1	0	5	0
455	601	0	10000	5	1	0	5	0
486	602	0	10000	5	1	0	5	0
565	603	0	10000	5	1	0	5	0
637	604	0	10000	5	1	0	5	0
651	605	0	10000	5	1	0	5	0
628	606	0	10000	5	1	0	5	0
625	607	0	10000	5	1	0	5	0
666	608	0	10000	5	1	0	5	0
668	609	0	10000	5	1	0	5	0
738	610	0	10000	5	1	0	5	0
800	611	0	10000	5	1	0	5	0
781	612	0	10000	5	1	0	5	0
764	613	0	10000	5	1	0	5	0
772	614	0	10000	5	1	0	5	0
841	615	0	10000	5	1	0	5	0
940	616	0	10000	5	1	0	5	0
1009	617	0	10000	5	1	0	5	0
1047	618	0	10000	5	1	0	5	0
1052	619	0	10000	5	1	0	5	0
1029	620	0	10000	5	1	0	5	0
986	621	0	10000	5	1	0	5	0
956	622	0	10000	5	1	0	5	0
938	623	0	10000	5	1	0	5	0
928	624	0	10000	5	1	0	5	0
922	625	0	10000	5	1	0	5	0
916	626	0	10000	5	1	0	5	0
914	627	0	10000	5	1	0	5	0
910	628	0	10000	5	1	0	5	0
907	629	0	10000	5	1	0	5	0
902	630	0	10000	5	1	0	5	0
897	631	0	10000	5	1	0	5	0
889	632	0	10000	5	1	0	5	0
880	633	0	10000	5	1	0	5	0
870	634	0	10000	5	1	0	5	0
859	635	0	10000	5	1	0	5	0
848	636	0	10000	5	1	0	5	0
833	637	0	10000	5	1	0	5	0
816	638	0	10000	5	1	0	5	0
797	639	0	10000	5	1	0	5	0
774	640	0	10000	5	1	0	5	0
748	641	0	10000	5	1	0	5	0
719	642	0	10000	5	1	0	5	0
688	643	0	10000	5	1	0	5	0
658	644	0	10000	5	1	0	5	0
634	645	0	10000	5	1	0	5	0
612	646	0	10000	5	1	0	5	0
597	647	0	10000	5	1	0	5	0
586	648	0	10000	5	1	0	5	0
577	649	0	10000	5	1	0	5	0
570	650	0	10000	5	1	0	5	0
565	651	0	10000	5	1	0	5	0
560	652	0	10000	5	1	0	5	0
555	653	0	10000	5	1	0	5	0
550	654	0	10000	5	1	0	5	0
544	655	0	10000	5	1	0	5	0
538	656	0	10000	5	1	0	5	0
531	657	0	10000	5	1	0	5	0
524	658	0	10000	5	1	0	5	0
517	659	0	10000	5	1	0	5	0
511	660	0	10000	5	1	0	5	0
507	661	0	10000	5	1	0	5	0
500	662	0	10000	5	1	0	5	0
494	663	0	10000	5	1	0	5	0
490	664	0	10000	5	1	0	5	0
484	665	0	10000	5	1	0	5	0
478	666	0	10000	5	1	0	5	0
477	667	0	10000	5	1	0	5	0
473	668	0	10000	5	1	0	5	0
467	669	0	10000	5	1	0	5	0
460	670	0	10000	5	1	0	5	0
452	671	0	10000	5	1	0	5	0
442	672	0	10000	5	1	0	5	0
428	673	0	10000	5	1	0	5	0
412	674	0	10000	5	1	0	5	0
396	675	0	10000	5	1	0	5	0
379	676	0	10000	5	1	0	5	0
364	677	0	10000	5	1	0	5	0
351	678	0	10000	5	1	0	5	0
339	679	0	10000	5	1	0	5	0
329	680	0	10000	5	1	0	5	0
320	681	0	10000	5	1	0	5	0
311	682	0	10000	5	1	0	5	0
302	683	0	10000	5	1	0	5	0
292	684	0	10000	5	1	0	5	0
280	685	0	10000	5	1	0	5	0
268	686	0	10000	5	1	0	5	0
259	687	0	10000	5	1	0	5	0
251	688	0	10000	5	1	0	5	0
246	689	0	10000	5	1	0	5	0
243	690	0	10000	5	1	0	5	0
240	691	0	10000	5	1	0	5	0
239	692	0	10000	5	1	0	5	0
239	693	0	10000	5	1	0	5	0
241	694	0	10000	5	1	0	5	0
246	695	0	10000	5	1	0	5	0
252	696	0	10000	5	1	0	5	0
256	697	0	10000	5	1	0	5	0
260	698	0	10000	5	1	0	5	0
262	699	0	10000	5	1	0	5	0
266	700	0	10000	5	1	0	5	0
270	701	0	10000	5	1	0	5	0
272	702	0	10000	5	1	0	5	0
274	703	0	10000	5	1	0	5	0
273	704	0	10000	5	1	0	5	0
270	705	0	10000	5	1	0	5	0
265	706	0	10000	5	1	0	5	0
263	707	0	10000	5	1	0	5	0
259	708	0	10000	5	1	0	5	0
255	709	0	10000	5	1	0	5	0
251	710	0	10000	5	1	0	5	0
247	711	0	10000	5	1	0	5	0
244	712	0	10000	5	1	0	5	0
242	713	0	10000	5	1	0	5	0
241	714	0	10000	5	1	0	5	0
241	715	0	10000	5	1	0	5	0
246	716	0	10000	5	1	0	5	0
249	717	0	10000	5	1	0	5	0
251	718	0	10000	5	1	0	5	0
