value	EMG	Stimulus	EMG_sensitivity	Total_Trial_Nr	practise	acq	probe_nr	Startle_Probe
20	1	7	10000	1	1	0	1	0
20	2	7	10000	1	1	0	1	0
20	3	7	10000	1	1	0	1	0
17	4	7	10000	1	1	0	1	0
17	5	7	10000	1	1	0	1	0
17	6	7	10000	1	1	0	1	0
17	7	7	10000	1	1	0	1	0
17	8	7	10000	1	1	0	1	0
16	9	7	10000	1	1	0	1	0
18	10	7	10000	1	1	0	1	0
16	11	7	10000	1	1	0	1	0
16	12	7	10000	1	1	0	1	0
15	13	7	10000	1	1	0	1	0
17	14	7	10000	1	1	0	1	0
18	15	7	10000	1	1	0	1	0
20	16	7	10000	1	1	0	1	0
19	17	7	10000	1	1	0	1	0
20	18	7	10000	1	1	0	1	0
22	19	7	10000	1	1	0	1	0
22	20	7	10000	1	1	0	1	0
23	21	7	10000	1	1	0	1	0
23	22	7	10000	1	1	0	1	0
24	23	7	10000	1	1	0	1	0
22	24	7	10000	1	1	0	1	0
23	25	7	10000	1	1	0	1	0
23	26	7	10000	1	1	0	1	0
23	27	7	10000	1	1	0	1	0
24	28	7	10000	1	1	0	1	0
23	29	7	10000	1	1	0	1	0
22	30	7	10000	1	1	0	1	0
21	31	7	10000	1	1	0	1	0
20	32	7	10000	1	1	0	1	0
20	33	7	10000	1	1	0	1	0
24	34	7	10000	1	1	0	1	0
23	35	7	10000	1	1	0	1	0
22	36	7	10000	1	1	0	1	0
21	37	7	10000	1	1	0	1	0
20	38	7	10000	1	1	0	1	0
19	39	7	10000	1	1	0	1	0
19	40	7	10000	1	1	0	1	0
19	41	7	10000	1	1	0	1	0
20	42	7	10000	1	1	0	1	0
20	43	7	10000	1	1	0	1	0
18	44	7	10000	1	1	0	1	0
19	45	7	10000	1	1	0	1	0
20	46	7	10000	1	1	0	1	0
20	47	7	10000	1	1	0	1	0
20	48	7	10000	1	1	0	1	0
20	49	7	10000	1	1	0	1	0
20	50	7	10000	1	1	0	1	0
20	51	7	10000	1	1	0	1	0
20	52	7	10000	1	1	0	1	0
20	53	7	10000	1	1	0	1	0
22	54	7	10000	1	1	0	1	0
22	55	7	10000	1	1	0	1	0
21	56	7	10000	1	1	0	1	0
21	57	7	10000	1	1	0	1	0
21	58	7	10000	1	1	0	1	0
22	59	7	10000	1	1	0	1	0
23	60	7	10000	1	1	0	1	0
24	61	7	10000	1	1	0	1	0
23	62	7	10000	1	1	0	1	0
23	63	7	10000	1	1	0	1	0
20	64	7	10000	1	1	0	1	0
20	65	7	10000	1	1	0	1	0
21	66	7	10000	1	1	0	1	0
20	67	7	10000	1	1	0	1	0
19	68	7	10000	1	1	0	1	0
19	69	7	10000	1	1	0	1	0
19	70	7	10000	1	1	0	1	0
17	71	7	10000	1	1	0	1	0
17	72	7	10000	1	1	0	1	0
16	73	7	10000	1	1	0	1	0
17	74	7	10000	1	1	0	1	0
16	75	7	10000	1	1	0	1	0
17	76	7	10000	1	1	0	1	0
17	77	7	10000	1	1	0	1	0
18	78	7	10000	1	1	0	1	0
18	79	7	10000	1	1	0	1	0
17	80	7	10000	1	1	0	1	0
17	81	7	10000	1	1	0	1	0
19	82	7	10000	1	1	0	1	0
19	83	7	10000	1	1	0	1	0
16	84	7	10000	1	1	0	1	0
16	85	7	10000	1	1	0	1	0
16	86	7	10000	1	1	0	1	0
16	87	7	10000	1	1	0	1	0
15	88	7	10000	1	1	0	1	0
14	89	7	10000	1	1	0	1	0
15	90	7	10000	1	1	0	1	0
15	91	7	10000	1	1	0	1	0
15	92	7	10000	1	1	0	1	0
16	93	7	10000	1	1	0	1	0
19	94	7	10000	1	1	0	1	0
18	95	7	10000	1	1	0	1	0
18	96	7	10000	1	1	0	1	0
17	97	7	10000	1	1	0	1	0
17	98	7	10000	1	1	0	1	0
20	99	7	10000	1	1	0	1	0
20	100	7	10000	1	1	0	1	0
20	101	7	10000	1	1	0	1	0
20	102	7	10000	1	1	0	1	0
20	103	7	10000	1	1	0	1	0
18	104	7	10000	1	1	0	1	0
19	105	7	10000	1	1	0	1	0
17	106	7	10000	1	1	0	1	0
17	107	7	10000	1	1	0	1	0
19	108	7	10000	1	1	0	1	0
19	109	7	10000	1	1	0	1	0
19	110	7	10000	1	1	0	1	0
20	111	7	10000	1	1	0	1	0
18	112	7	10000	1	1	0	1	0
18	113	7	10000	1	1	0	1	0
20	114	7	10000	1	1	0	1	0
20	115	7	10000	1	1	0	1	0
19	116	7	10000	1	1	0	1	0
18	117	7	10000	1	1	0	1	0
18	118	7	10000	1	1	0	1	0
17	119	7	10000	1	1	0	1	0
17	120	7	10000	1	1	0	1	0
17	121	7	10000	1	1	0	1	0
17	122	7	10000	1	1	0	1	0
18	123	7	10000	1	1	0	1	0
15	124	7	10000	1	1	0	1	0
15	125	7	10000	1	1	0	1	0
17	126	7	10000	1	1	0	1	0
17	127	7	10000	1	1	0	1	0
18	128	7	10000	1	1	0	1	0
17	129	7	10000	1	1	0	1	0
18	130	7	10000	1	1	0	1	0
16	131	7	10000	1	1	0	1	0
16	132	7	10000	1	1	0	1	0
15	133	7	10000	1	1	0	1	0
17	134	7	10000	1	1	0	1	0
17	135	7	10000	1	1	0	1	0
17	136	7	10000	1	1	0	1	0
16	137	7	10000	1	1	0	1	0
16	138	7	10000	1	1	0	1	0
16	139	7	10000	1	1	0	1	0
17	140	7	10000	1	1	0	1	0
19	141	7	10000	1	1	0	1	0
20	142	7	10000	1	1	0	1	0
21	143	7	10000	1	1	0	1	0
19	144	7	10000	1	1	0	1	0
19	145	7	10000	1	1	0	1	0
18	146	7	10000	1	1	0	1	0
19	147	7	10000	1	1	0	1	0
18	148	7	10000	1	1	0	1	0
17	149	7	10000	1	1	0	1	0
18	150	7	10000	1	1	0	1	0
17	151	7	10000	1	1	0	1	0
17	152	7	10000	1	1	0	1	0
16	153	7	10000	1	1	0	1	0
18	154	7	10000	1	1	0	1	0
17	155	7	10000	1	1	0	1	0
17	156	7	10000	1	1	0	1	0
17	157	7	10000	1	1	0	1	0
18	158	7	10000	1	1	0	1	0
17	159	7	10000	1	1	0	1	0
17	160	7	10000	1	1	0	1	0
17	161	7	10000	1	1	0	1	0
18	162	7	10000	1	1	0	1	0
17	163	7	10000	1	1	0	1	0
15	164	7	10000	1	1	0	1	0
16	165	7	10000	1	1	0	1	0
18	166	7	10000	1	1	0	1	0
19	167	7	10000	1	1	0	1	0
19	168	7	10000	1	1	0	1	0
20	169	7	10000	1	1	0	1	0
24	170	7	10000	1	1	0	1	0
25	171	7	10000	1	1	0	1	0
25	172	7	10000	1	1	0	1	0
26	173	7	10000	1	1	0	1	0
30	174	7	10000	1	1	0	1	0
30	175	7	10000	1	1	0	1	0
31	176	7	10000	1	1	0	1	0
33	177	7	10000	1	1	0	1	0
34	178	7	10000	1	1	0	1	0
33	179	7	10000	1	1	0	1	0
31	180	7	10000	1	1	0	1	0
31	181	7	10000	1	1	0	1	0
31	182	7	10000	1	1	0	1	0
30	183	7	10000	1	1	0	1	0
27	184	7	10000	1	1	0	1	0
27	185	7	10000	1	1	0	1	0
26	186	7	10000	1	1	0	1	0
26	187	7	10000	1	1	0	1	0
26	188	7	10000	1	1	0	1	0
24	189	7	10000	1	1	0	1	0
23	190	7	10000	1	1	0	1	0
23	191	7	10000	1	1	0	1	0
22	192	7	10000	1	1	0	1	0
21	193	7	10000	1	1	0	1	0
24	194	7	10000	1	1	0	1	0
22	195	7	10000	1	1	0	1	0
21	196	7	10000	1	1	0	1	0
21	197	7	10000	1	1	0	1	0
20	198	7	10000	1	1	0	1	0
23	199	7	10000	1	1	0	1	0
26	200	7	10000	1	1	0	1	0
27	201	7	10000	1	1	0	1	0
27	202	7	10000	1	1	0	1	0
27	203	7	10000	1	1	0	1	0
23	204	7	10000	1	1	0	1	0
23	205	7	10000	1	1	0	1	0
25	206	7	10000	1	1	0	1	0
24	207	7	10000	1	1	0	1	0
24	208	7	10000	1	1	0	1	0
24	209	7	10000	1	1	0	1	0
25	210	7	10000	1	1	0	1	0
28	211	7	10000	1	1	0	1	0
29	212	7	10000	1	1	0	1	0
29	213	7	10000	1	1	0	1	0
30	214	7	10000	1	1	0	1	0
31	215	7	10000	1	1	0	1	0
29	216	7	10000	1	1	0	1	0
28	217	7	10000	1	1	0	1	0
27	218	7	10000	1	1	0	1	0
26	219	7	10000	1	1	0	1	0
26	220	7	10000	1	1	0	1	0
26	221	7	10000	1	1	0	1	0
25	222	7	10000	1	1	0	1	0
26	223	7	10000	1	1	0	1	0
22	224	7	10000	1	1	0	1	0
22	225	7	10000	1	1	0	1	0
22	226	7	10000	1	1	0	1	0
23	227	7	10000	1	1	0	1	0
22	228	7	10000	1	1	0	1	0
22	229	7	10000	1	1	0	1	0
23	230	7	10000	1	1	0	1	0
22	231	7	10000	1	1	0	1	0
22	232	7	10000	1	1	0	1	0
20	233	7	10000	1	1	0	1	0
23	234	7	10000	1	1	0	1	0
24	235	7	10000	1	1	0	1	0
23	236	7	10000	1	1	0	1	0
22	237	7	10000	1	1	0	1	0
22	238	7	10000	1	1	0	1	0
22	239	7	10000	1	1	0	1	0
22	240	7	10000	1	1	0	1	0
23	241	7	10000	1	1	0	1	0
23	242	7	10000	1	1	0	1	0
24	243	7	10000	1	1	0	1	0
21	244	7	10000	1	1	0	1	0
21	245	7	10000	1	1	0	1	0
20	246	7	10000	1	1	0	1	0
20	247	7	10000	1	1	0	1	0
20	248	7	10000	1	1	0	1	0
20	249	7	10000	1	1	0	1	0
21	250	7	10000	1	1	0	1	0
20	251	7	10000	1	1	0	1	0
19	252	7	10000	1	1	0	1	0
18	253	7	10000	1	1	0	1	0
19	254	7	10000	1	1	0	1	0
19	255	7	10000	1	1	0	1	0
19	256	7	10000	1	1	0	1	0
18	257	7	10000	1	1	0	1	0
18	258	7	10000	1	1	0	1	0
18	259	7	10000	1	1	0	1	0
17	260	7	10000	1	1	0	1	0
18	261	7	10000	1	1	0	1	0
18	262	7	10000	1	1	0	1	0
18	263	7	10000	1	1	0	1	0
15	264	7	10000	1	1	0	1	0
18	265	7	10000	1	1	0	1	0
18	266	7	10000	1	1	0	1	0
18	267	7	10000	1	1	0	1	0
17	268	7	10000	1	1	0	1	0
17	269	7	10000	1	1	0	1	0
17	270	7	10000	1	1	0	1	0
16	271	7	10000	1	1	0	1	0
15	272	7	10000	1	1	0	1	0
14	273	7	10000	1	1	0	1	0
17	274	7	10000	1	1	0	1	0
17	275	7	10000	1	1	0	1	0
16	276	7	10000	1	1	0	1	0
16	277	7	10000	1	1	0	1	0
17	278	7	10000	1	1	0	1	0
16	279	7	10000	1	1	0	1	0
18	280	7	10000	1	1	0	1	0
19	281	7	10000	1	1	0	1	0
19	282	7	10000	1	1	0	1	0
20	283	7	10000	1	1	0	1	0
17	284	7	10000	1	1	0	1	0
17	285	7	10000	1	1	0	1	0
18	286	7	10000	1	1	0	1	0
17	287	7	10000	1	1	0	1	0
18	288	7	10000	1	1	0	1	0
20	289	7	10000	1	1	0	1	0
19	290	7	10000	1	1	0	1	0
18	291	7	10000	1	1	0	1	0
18	292	7	10000	1	1	0	1	0
17	293	7	10000	1	1	0	1	0
18	294	7	10000	1	1	0	1	0
18	295	7	10000	1	1	0	1	0
19	296	7	10000	1	1	0	1	0
18	297	7	10000	1	1	0	1	0
18	298	7	10000	1	1	0	1	0
17	299	7	10000	1	1	0	1	0
17	300	7	10000	1	1	0	1	0
17	301	7	10000	1	1	0	1	0
16	302	7	10000	1	1	0	1	0
17	303	7	10000	1	1	0	1	0
14	304	7	10000	1	1	0	1	0
14	305	7	10000	1	1	0	1	0
14	306	7	10000	1	1	0	1	0
14	307	7	10000	1	1	0	1	0
15	308	7	10000	1	1	0	1	0
15	309	7	10000	1	1	0	1	0
15	310	7	10000	1	1	0	1	0
15	311	7	10000	1	1	0	1	0
14	312	7	10000	1	1	0	1	0
14	313	7	10000	1	1	0	1	0
18	314	7	10000	1	1	0	1	0
19	315	7	10000	1	1	0	1	0
20	316	7	10000	1	1	0	1	0
19	317	7	10000	1	1	0	1	0
18	318	7	10000	1	1	0	1	0
18	319	7	10000	1	1	0	1	0
17	320	7	10000	1	1	0	1	0
17	321	7	10000	1	1	0	1	0
18	322	7	10000	1	1	0	1	0
18	323	7	10000	1	1	0	1	0
16	324	7	10000	1	1	0	1	0
16	325	7	10000	1	1	0	1	0
16	326	7	10000	1	1	0	1	0
16	327	7	10000	1	1	0	1	0
16	328	7	10000	1	1	0	1	0
17	329	7	10000	1	1	0	1	0
16	330	7	10000	1	1	0	1	0
16	331	7	10000	1	1	0	1	0
17	332	7	10000	1	1	0	1	0
16	333	7	10000	1	1	0	1	0
19	334	7	10000	1	1	0	1	0
18	335	7	10000	1	1	0	1	0
20	336	7	10000	1	1	0	1	0
20	337	7	10000	1	1	0	1	0
20	338	7	10000	1	1	0	1	0
20	339	7	10000	1	1	0	1	0
20	340	7	10000	1	1	0	1	0
20	341	7	10000	1	1	0	1	0
20	342	7	10000	1	1	0	1	0
20	343	7	10000	1	1	0	1	0
18	344	7	10000	1	1	0	1	0
18	345	7	10000	1	1	0	1	0
18	346	7	10000	1	1	0	1	0
18	347	7	10000	1	1	0	1	0
18	348	7	10000	1	1	0	1	0
18	349	7	10000	1	1	0	1	0
18	350	7	10000	1	1	0	1	0
19	351	7	10000	1	1	0	1	0
20	352	7	10000	1	1	0	1	0
20	353	7	10000	1	1	0	1	0
22	354	7	10000	1	1	0	1	0
23	355	7	10000	1	1	0	1	0
23	356	7	10000	1	1	0	1	0
22	357	7	10000	1	1	0	1	0
22	358	7	10000	1	1	0	1	0
23	359	7	10000	1	1	0	1	0
24	360	7	10000	1	1	0	1	0
24	361	7	10000	1	1	0	1	0
24	362	7	10000	1	1	0	1	0
24	363	7	10000	1	1	0	1	0
21	364	7	10000	1	1	0	1	0
23	365	7	10000	1	1	0	1	0
26	366	7	10000	1	1	0	1	0
25	367	7	10000	1	1	0	1	0
25	368	7	10000	1	1	0	1	0
25	369	7	10000	1	1	0	1	0
24	370	7	10000	1	1	0	1	0
23	371	7	10000	1	1	0	1	0
23	372	7	10000	1	1	0	1	0
22	373	7	10000	1	1	0	1	0
23	374	7	10000	1	1	0	1	0
23	375	7	10000	1	1	0	1	0
21	376	7	10000	1	1	0	1	0
21	377	7	10000	1	1	0	1	0
20	378	7	10000	1	1	0	1	0
19	379	7	10000	1	1	0	1	0
18	380	7	10000	1	1	0	1	0
18	381	7	10000	1	1	0	1	0
18	382	7	10000	1	1	0	1	0
19	383	7	10000	1	1	0	1	0
16	384	7	10000	1	1	0	1	0
16	385	7	10000	1	1	0	1	0
16	386	7	10000	1	1	0	1	0
16	387	7	10000	1	1	0	1	0
17	388	7	10000	1	1	0	1	0
17	389	7	10000	1	1	0	1	0
18	390	7	10000	1	1	0	1	0
17	391	7	10000	1	1	0	1	0
17	392	7	10000	1	1	0	1	0
16	393	7	10000	1	1	0	1	0
19	394	7	10000	1	1	0	1	0
20	395	7	10000	1	1	0	1	0
18	396	7	10000	1	1	0	1	0
18	397	7	10000	1	1	0	1	0
17	398	7	10000	1	1	0	1	0
17	399	7	10000	1	1	0	1	0
18	400	7	10000	1	1	0	1	0
20	401	7	10000	1	1	0	1	0
19	402	7	10000	1	1	0	1	0
20	403	7	10000	1	1	0	1	0
17	404	7	10000	1	1	0	1	0
18	405	7	10000	1	1	0	1	0
19	406	7	10000	1	1	0	1	0
19	407	7	10000	1	1	0	1	0
20	408	7	10000	1	1	0	1	0
20	409	7	10000	1	1	0	1	0
19	410	7	10000	1	1	0	1	0
18	411	7	10000	1	1	0	1	0
18	412	7	10000	1	1	0	1	0
18	413	7	10000	1	1	0	1	0
21	414	7	10000	1	1	0	1	0
23	415	7	10000	1	1	0	1	0
21	416	7	10000	1	1	0	1	0
23	417	7	10000	1	1	0	1	0
22	418	7	10000	1	1	0	1	0
22	419	7	10000	1	1	0	1	0
22	420	7	10000	1	1	0	1	0
23	421	7	10000	1	1	0	1	0
23	422	7	10000	1	1	0	1	0
24	423	7	10000	1	1	0	1	0
20	424	7	10000	1	1	0	1	0
21	425	7	10000	1	1	0	1	0
20	426	7	10000	1	1	0	1	0
20	427	7	10000	1	1	0	1	0
20	428	7	10000	1	1	0	1	0
19	429	7	10000	1	1	0	1	0
19	430	7	10000	1	1	0	1	0
18	431	7	10000	1	1	0	1	0
18	432	7	10000	1	1	0	1	0
18	433	7	10000	1	1	0	1	0
22	434	7	10000	1	1	0	1	0
23	435	7	10000	1	1	0	1	0
22	436	7	10000	1	1	0	1	0
21	437	7	10000	1	1	0	1	0
21	438	7	10000	1	1	0	1	0
21	439	7	10000	1	1	0	1	0
21	440	7	10000	1	1	0	1	0
20	441	7	10000	1	1	0	1	0
20	442	7	10000	1	1	0	1	0
21	443	7	10000	1	1	0	1	0
19	444	7	10000	1	1	0	1	0
20	445	7	10000	1	1	0	1	0
20	446	7	10000	1	1	0	1	0
20	447	7	10000	1	1	0	1	0
21	448	7	10000	1	1	0	1	0
22	449	7	10000	1	1	0	1	0
21	450	7	10000	1	1	0	1	0
21	451	7	10000	1	1	0	1	0
20	452	7	10000	1	1	0	1	0
19	453	7	10000	1	1	0	1	0
21	454	7	10000	1	1	0	1	0
21	455	7	10000	1	1	0	1	0
20	456	7	10000	1	1	0	1	0
20	457	7	10000	1	1	0	1	0
21	458	7	10000	1	1	0	1	0
21	459	7	10000	1	1	0	1	0
20	460	7	10000	1	1	0	1	0
20	461	7	10000	1	1	0	1	0
20	462	7	10000	1	1	0	1	0
20	463	7	10000	1	1	0	1	0
17	464	7	10000	1	1	0	1	0
17	465	7	10000	1	1	0	1	0
17	466	7	10000	1	1	0	1	0
19	467	7	10000	1	1	0	1	0
19	468	7	10000	1	1	0	1	0
18	469	7	10000	1	1	0	1	0
19	470	7	10000	1	1	0	1	0
18	471	7	10000	1	1	0	1	0
18	472	7	10000	1	1	0	1	0
17	473	7	10000	1	1	0	1	0
20	474	7	10000	1	1	0	1	0
20	475	7	10000	1	1	0	1	0
19	476	7	10000	1	1	0	1	0
18	477	7	10000	1	1	0	1	0
18	478	7	10000	1	1	0	1	0
20	479	7	10000	1	1	0	1	0
22	480	7	10000	1	1	0	1	0
23	481	7	10000	1	1	0	1	0
24	482	7	10000	1	1	0	1	0
23	483	7	10000	1	1	0	1	0
21	484	7	10000	1	1	0	1	0
22	485	7	10000	1	1	0	1	0
23	486	7	10000	1	1	0	1	0
23	487	7	10000	1	1	0	1	0
23	488	7	10000	1	1	0	1	0
22	489	7	10000	1	1	0	1	0
23	490	7	10000	1	1	0	1	0
25	491	7	10000	1	1	0	1	0
24	492	7	10000	1	1	0	1	0
23	493	7	10000	1	1	0	1	0
26	494	7	10000	1	1	0	1	0
27	495	7	10000	1	1	0	1	0
26	496	7	10000	1	1	0	1	0
26	497	7	10000	1	1	0	1	0
26	498	7	10000	1	1	0	1	0
25	499	7	10000	1	1	0	1	0
25	500	7	10000	1	1	0	1	0
26	571	7	10000	1	1	0	1	1
25	572	7	10000	1	1	0	1	1
26	573	7	10000	1	1	0	1	1
23	574	7	10000	1	1	0	1	1
22	575	7	10000	1	1	0	1	1
22	576	7	10000	1	1	0	1	1
23	577	7	10000	1	1	0	1	1
24	578	7	10000	1	1	0	1	1
23	579	7	10000	1	1	0	1	1
24	580	7	10000	1	1	0	1	1
23	581	7	10000	1	1	0	1	1
22	582	7	10000	1	1	0	1	1
21	583	7	10000	1	1	0	1	1
23	584	7	10000	1	1	0	1	1
23	585	7	10000	1	1	0	1	1
23	586	7	10000	1	1	0	1	1
24	587	7	10000	1	1	0	1	1
25	588	7	10000	1	1	0	1	1
25	589	7	10000	1	1	0	1	1
25	590	7	10000	1	1	0	1	1
25	591	7	10000	1	1	0	1	1
25	592	7	10000	1	1	0	1	1
26	593	7	10000	1	1	0	1	1
23	594	7	10000	1	1	0	1	1
23	595	7	10000	1	1	0	1	1
23	596	7	10000	1	1	0	1	1
22	597	7	10000	1	1	0	1	1
22	598	7	10000	1	1	0	1	1
26	599	7	10000	1	1	0	1	1
26	600	7	10000	1	1	0	1	1
26	601	7	10000	1	1	0	1	1
27	602	7	10000	1	1	0	1	1
25	603	7	10000	1	1	0	1	1
27	604	7	10000	1	1	0	1	1
27	605	7	10000	1	1	0	1	1
25	606	7	10000	1	1	0	1	1
24	607	7	10000	1	1	0	1	1
24	608	7	10000	1	1	0	1	1
23	609	7	10000	1	1	0	1	1
22	610	7	10000	1	1	0	1	1
22	611	7	10000	1	1	0	1	1
22	612	7	10000	1	1	0	1	1
23	613	7	10000	1	1	0	1	1
23	614	7	10000	1	1	0	1	1
25	615	7	10000	1	1	0	1	1
25	616	7	10000	1	1	0	1	1
24	617	7	10000	1	1	0	1	1
24	618	7	10000	1	1	0	1	1
23	619	7	10000	1	1	0	1	1
22	620	7	10000	1	1	0	1	1
21	621	7	10000	1	1	0	1	1
20	622	7	10000	1	1	0	1	1
20	623	7	10000	1	1	0	1	1
22	624	7	10000	1	1	0	1	1
21	625	7	10000	1	1	0	1	1
20	626	7	10000	1	1	0	1	1
19	627	7	10000	1	1	0	1	1
20	628	7	10000	1	1	0	1	1
20	629	7	10000	1	1	0	1	1
20	630	7	10000	1	1	0	1	1
20	631	7	10000	1	1	0	1	1
20	632	7	10000	1	1	0	1	1
19	633	7	10000	1	1	0	1	1
16	634	7	10000	1	1	0	1	1
17	635	7	10000	1	1	0	1	1
17	636	7	10000	1	1	0	1	1
17	637	7	10000	1	1	0	1	1
17	638	7	10000	1	1	0	1	1
17	639	7	10000	1	1	0	1	1
17	640	7	10000	1	1	0	1	1
17	641	7	10000	1	1	0	1	1
15	642	7	10000	1	1	0	1	1
14	582	7	10000	1	1	0	1	0
17	583	7	10000	1	1	0	1	0
19	584	7	10000	1	1	0	1	0
18	585	7	10000	1	1	0	1	0
18	586	7	10000	1	1	0	1	0
18	587	7	10000	1	1	0	1	0
20	588	7	10000	1	1	0	1	0
20	589	7	10000	1	1	0	1	0
21	590	7	10000	1	1	0	1	0
21	591	7	10000	1	1	0	1	0
21	583	7	10000	1	1	0	1	0
19	584	7	10000	1	1	0	1	0
19	585	7	10000	1	1	0	1	0
20	586	7	10000	1	1	0	1	0
19	587	7	10000	1	1	0	1	0
20	588	7	10000	1	1	0	1	0
19	589	7	10000	1	1	0	1	0
19	590	7	10000	1	1	0	1	0
19	591	7	10000	1	1	0	1	0
19	592	7	10000	1	1	0	1	0
18	593	7	10000	1	1	0	1	0
20	594	7	10000	1	1	0	1	0
19	595	7	10000	1	1	0	1	0
18	596	7	10000	1	1	0	1	0
18	597	7	10000	1	1	0	1	0
17	598	7	10000	1	1	0	1	0
17	599	7	10000	1	1	0	1	0
17	600	7	10000	1	1	0	1	0
16	601	7	10000	1	1	0	1	0
17	602	7	10000	1	1	0	1	0
17	603	7	10000	1	1	0	1	0
15	604	7	10000	1	1	0	1	0
15	605	7	10000	1	1	0	1	0
17	606	7	10000	1	1	0	1	0
17	607	7	10000	1	1	0	1	0
17	608	7	10000	1	1	0	1	0
18	609	7	10000	1	1	0	1	0
16	610	7	10000	1	1	0	1	0
15	611	7	10000	1	1	0	1	0
16	612	7	10000	1	1	0	1	0
14	613	7	10000	1	1	0	1	0
16	614	7	10000	1	1	0	1	0
17	615	7	10000	1	1	0	1	0
16	616	7	10000	1	1	0	1	0
16	617	7	10000	1	1	0	1	0
17	618	7	10000	1	1	0	1	0
17	619	7	10000	1	1	0	1	0
17	620	7	10000	1	1	0	1	0
17	621	7	10000	1	1	0	1	0
18	622	7	10000	1	1	0	1	0
19	623	7	10000	1	1	0	1	0
18	624	7	10000	1	1	0	1	0
18	625	7	10000	1	1	0	1	0
18	626	7	10000	1	1	0	1	0
20	627	7	10000	1	1	0	1	0
19	628	7	10000	1	1	0	1	0
19	629	7	10000	1	1	0	1	0
20	630	7	10000	1	1	0	1	0
19	631	7	10000	1	1	0	1	0
19	632	7	10000	1	1	0	1	0
19	633	7	10000	1	1	0	1	0
20	634	7	10000	1	1	0	1	0
20	635	7	10000	1	1	0	1	0
19	636	7	10000	1	1	0	1	0
19	637	7	10000	1	1	0	1	0
21	638	7	10000	1	1	0	1	0
25	639	7	10000	1	1	0	1	0
26	640	7	10000	1	1	0	1	0
29	641	7	10000	1	1	0	1	0
33	642	7	10000	1	1	0	1	0
39	643	7	10000	1	1	0	1	0
41	644	7	10000	1	1	0	1	0
41	645	7	10000	1	1	0	1	0
42	646	7	10000	1	1	0	1	0
51	647	7	10000	1	1	0	1	0
53	648	7	10000	1	1	0	1	0
53	649	7	10000	1	1	0	1	0
53	650	7	10000	1	1	0	1	0
60	651	7	10000	1	1	0	1	0
78	652	7	10000	1	1	0	1	0
98	653	7	10000	1	1	0	1	0
100	654	7	10000	1	1	0	1	0
121	655	7	10000	1	1	0	1	0
134	656	7	10000	1	1	0	1	0
131	657	7	10000	1	1	0	1	0
140	658	7	10000	1	1	0	1	0
166	659	7	10000	1	1	0	1	0
174	660	7	10000	1	1	0	1	0
219	661	7	10000	1	1	0	1	0
272	662	7	10000	1	1	0	1	0
283	663	7	10000	1	1	0	1	0
317	664	7	10000	1	1	0	1	0
344	665	7	10000	1	1	0	1	0
354	666	7	10000	1	1	0	1	0
354	667	7	10000	1	1	0	1	0
345	668	7	10000	1	1	0	1	0
344	669	7	10000	1	1	0	1	0
334	670	7	10000	1	1	0	1	0
332	671	7	10000	1	1	0	1	0
334	672	7	10000	1	1	0	1	0
324	673	7	10000	1	1	0	1	0
322	674	7	10000	1	1	0	1	0
320	675	7	10000	1	1	0	1	0
312	676	7	10000	1	1	0	1	0
309	677	7	10000	1	1	0	1	0
338	678	7	10000	1	1	0	1	0
353	679	7	10000	1	1	0	1	0
349	680	7	10000	1	1	0	1	0
371	681	7	10000	1	1	0	1	0
380	682	7	10000	1	1	0	1	0
373	683	7	10000	1	1	0	1	0
356	684	7	10000	1	1	0	1	0
345	685	7	10000	1	1	0	1	0
345	686	7	10000	1	1	0	1	0
333	687	7	10000	1	1	0	1	0
320	688	7	10000	1	1	0	1	0
313	689	7	10000	1	1	0	1	0
309	690	7	10000	1	1	0	1	0
304	691	7	10000	1	1	0	1	0
298	692	7	10000	1	1	0	1	0
296	693	7	10000	1	1	0	1	0
299	694	7	10000	1	1	0	1	0
296	695	7	10000	1	1	0	1	0
291	696	7	10000	1	1	0	1	0
289	697	7	10000	1	1	0	1	0
292	698	7	10000	1	1	0	1	0
284	699	7	10000	1	1	0	1	0
272	700	7	10000	1	1	0	1	0
261	701	7	10000	1	1	0	1	0
256	702	7	10000	1	1	0	1	0
254	703	7	10000	1	1	0	1	0
251	704	7	10000	1	1	0	1	0
251	705	7	10000	1	1	0	1	0
282	706	7	10000	1	1	0	1	0
336	707	7	10000	1	1	0	1	0
361	708	7	10000	1	1	0	1	0
374	709	7	10000	1	1	0	1	0
434	710	7	10000	1	1	0	1	0
466	711	7	10000	1	1	0	1	0
463	712	7	10000	1	1	0	1	0
455	713	7	10000	1	1	0	1	0
448	714	7	10000	1	1	0	1	0
437	715	7	10000	1	1	0	1	0
422	716	7	10000	1	1	0	1	0
406	717	7	10000	1	1	0	1	0
388	718	7	10000	1	1	0	1	0
370	719	7	10000	1	1	0	1	0
352	720	7	10000	1	1	0	1	0
336	721	7	10000	1	1	0	1	0
322	722	7	10000	1	1	0	1	0
309	723	7	10000	1	1	0	1	0
293	724	7	10000	1	1	0	1	0
280	725	7	10000	1	1	0	1	0
268	726	7	10000	1	1	0	1	0
257	727	7	10000	1	1	0	1	0
250	728	7	10000	1	1	0	1	0
245	729	7	10000	1	1	0	1	0
238	730	7	10000	1	1	0	1	0
240	731	7	10000	1	1	0	1	0
236	732	7	10000	1	1	0	1	0
232	733	7	10000	1	1	0	1	0
252	734	7	10000	1	1	0	1	0
250	735	7	10000	1	1	0	1	0
259	736	7	10000	1	1	0	1	0
267	737	7	10000	1	1	0	1	0
271	738	7	10000	1	1	0	1	0
269	739	7	10000	1	1	0	1	0
269	740	7	10000	1	1	0	1	0
285	741	7	10000	1	1	0	1	0
304	742	7	10000	1	1	0	1	0
317	743	7	10000	1	1	0	1	0
318	744	7	10000	1	1	0	1	0
313	745	7	10000	1	1	0	1	0
303	746	7	10000	1	1	0	1	0
296	747	7	10000	1	1	0	1	0
289	748	7	10000	1	1	0	1	0
280	749	7	10000	1	1	0	1	0
272	750	7	10000	1	1	0	1	0
263	751	7	10000	1	1	0	1	0
256	752	7	10000	1	1	0	1	0
248	753	7	10000	1	1	0	1	0
251	754	7	10000	1	1	0	1	0
245	755	7	10000	1	1	0	1	0
240	756	7	10000	1	1	0	1	0
234	757	7	10000	1	1	0	1	0
230	758	7	10000	1	1	0	1	0
233	759	7	10000	1	1	0	1	0
232	760	7	10000	1	1	0	1	0
225	761	7	10000	1	1	0	1	0
216	762	7	10000	1	1	0	1	0
208	763	7	10000	1	1	0	1	0
203	764	7	10000	1	1	0	1	0
196	765	7	10000	1	1	0	1	0
191	766	7	10000	1	1	0	1	0
183	767	7	10000	1	1	0	1	0
177	768	7	10000	1	1	0	1	0
169	769	7	10000	1	1	0	1	0
162	770	7	10000	1	1	0	1	0
156	771	7	10000	1	1	0	1	0
152	772	7	10000	1	1	0	1	0
146	773	7	10000	1	1	0	1	0
142	774	7	10000	1	1	0	1	0
139	775	7	10000	1	1	0	1	0
135	776	7	10000	1	1	0	1	0
129	777	7	10000	1	1	0	1	0
125	778	7	10000	1	1	0	1	0
119	779	7	10000	1	1	0	1	0
114	780	7	10000	1	1	0	1	0
111	781	7	10000	1	1	0	1	0
106	782	7	10000	1	1	0	1	0
101	783	7	10000	1	1	0	1	0
96	784	7	10000	1	1	0	1	0
91	785	7	10000	1	1	0	1	0
88	786	7	10000	1	1	0	1	0
87	787	7	10000	1	1	0	1	0
92	788	7	10000	1	1	0	1	0
96	789	7	10000	1	1	0	1	0
96	790	7	10000	1	1	0	1	0
95	791	7	10000	1	1	0	1	0
99	792	7	10000	1	1	0	1	0
101	793	7	10000	1	1	0	1	0
106	794	7	10000	1	1	0	1	0
107	795	7	10000	1	1	0	1	0
106	796	7	10000	1	1	0	1	0
102	797	7	10000	1	1	0	1	0
98	798	7	10000	1	1	0	1	0
94	799	7	10000	1	1	0	1	0
92	800	7	10000	1	1	0	1	0
91	801	7	10000	1	1	0	1	0
94	802	7	10000	1	1	0	1	0
94	803	7	10000	1	1	0	1	0
89	804	7	10000	1	1	0	1	0
95	805	7	10000	1	1	0	1	0
97	806	7	10000	1	1	0	1	0
95	807	7	10000	1	1	0	1	0
97	808	7	10000	1	1	0	1	0
94	809	7	10000	1	1	0	1	0
94	810	7	10000	1	1	0	1	0
99	811	7	10000	1	1	0	1	0
109	812	7	10000	1	1	0	1	0
111	813	7	10000	1	1	0	1	0
115	814	7	10000	1	1	0	1	0
120	815	7	10000	1	1	0	1	0
117	816	7	10000	1	1	0	1	0
112	817	7	10000	1	1	0	1	0
112	818	7	10000	1	1	0	1	0
115	819	7	10000	1	1	0	1	0
118	820	7	10000	1	1	0	1	0
121	821	7	10000	1	1	0	1	0
122	822	7	10000	1	1	0	1	0
122	823	7	10000	1	1	0	1	0
118	824	7	10000	1	1	0	1	0
116	825	7	10000	1	1	0	1	0
113	826	7	10000	1	1	0	1	0
115	827	7	10000	1	1	0	1	0
113	828	7	10000	1	1	0	1	0
122	829	7	10000	1	1	0	1	0
133	830	7	10000	1	1	0	1	0
136	831	7	10000	1	1	0	1	0
134	832	7	10000	1	1	0	1	0
132	833	7	10000	1	1	0	1	0
131	834	7	10000	1	1	0	1	0
129	835	7	10000	1	1	0	1	0
128	836	7	10000	1	1	0	1	0
126	837	7	10000	1	1	0	1	0
124	838	7	10000	1	1	0	1	0
123	839	7	10000	1	1	0	1	0
119	840	7	10000	1	1	0	1	0
116	841	7	10000	1	1	0	1	0
115	842	7	10000	1	1	0	1	0
110	843	7	10000	1	1	0	1	0
105	844	7	10000	1	1	0	1	0
102	845	7	10000	1	1	0	1	0
100	846	7	10000	1	1	0	1	0
97	847	7	10000	1	1	0	1	0
97	848	7	10000	1	1	0	1	0
96	849	7	10000	1	1	0	1	0
93	850	7	10000	1	1	0	1	0
91	851	7	10000	1	1	0	1	0
88	852	7	10000	1	1	0	1	0
84	853	7	10000	1	1	0	1	0
82	854	7	10000	1	1	0	1	0
80	855	7	10000	1	1	0	1	0
76	856	7	10000	1	1	0	1	0
75	857	7	10000	1	1	0	1	0
74	858	7	10000	1	1	0	1	0
74	859	7	10000	1	1	0	1	0
76	860	7	10000	1	1	0	1	0
78	861	7	10000	1	1	0	1	0
75	862	7	10000	1	1	0	1	0
75	863	7	10000	1	1	0	1	0
74	864	7	10000	1	1	0	1	0
72	865	7	10000	1	1	0	1	0
73	866	7	10000	1	1	0	1	0
82	867	7	10000	1	1	0	1	0
87	868	7	10000	1	1	0	1	0
89	869	7	10000	1	1	0	1	0
91	870	7	10000	1	1	0	1	0
88	871	7	10000	1	1	0	1	0
87	872	7	10000	1	1	0	1	0
84	873	7	10000	1	1	0	1	0
84	874	7	10000	1	1	0	1	0
81	875	7	10000	1	1	0	1	0
79	876	7	10000	1	1	0	1	0
75	877	7	10000	1	1	0	1	0
74	878	7	10000	1	1	0	1	0
76	879	7	10000	1	1	0	1	0
80	880	7	10000	1	1	0	1	0
80	881	7	10000	1	1	0	1	0
85	882	7	10000	1	1	0	1	0
93	883	7	10000	1	1	0	1	0
100	884	7	10000	1	1	0	1	0
105	885	7	10000	1	1	0	1	0
104	886	7	10000	1	1	0	1	0
99	887	7	10000	1	1	0	1	0
95	888	7	10000	1	1	0	1	0
96	889	7	10000	1	1	0	1	0
107	890	7	10000	1	1	0	1	0
116	891	7	10000	1	1	0	1	0
115	892	7	10000	1	1	0	1	0
113	893	7	10000	1	1	0	1	0
115	894	7	10000	1	1	0	1	0
111	895	7	10000	1	1	0	1	0
106	896	7	10000	1	1	0	1	0
103	897	7	10000	1	1	0	1	0
99	898	7	10000	1	1	0	1	0
98	899	7	10000	1	1	0	1	0
95	900	7	10000	1	1	0	1	0
95	901	7	10000	1	1	0	1	0
93	902	7	10000	1	1	0	1	0
92	903	7	10000	1	1	0	1	0
88	904	7	10000	1	1	0	1	0
86	905	7	10000	1	1	0	1	0
87	906	7	10000	1	1	0	1	0
85	907	7	10000	1	1	0	1	0
85	908	7	10000	1	1	0	1	0
85	909	7	10000	1	1	0	1	0
85	910	7	10000	1	1	0	1	0
83	911	7	10000	1	1	0	1	0
81	912	7	10000	1	1	0	1	0
81	913	7	10000	1	1	0	1	0
80	914	7	10000	1	1	0	1	0
77	915	7	10000	1	1	0	1	0
74	916	7	10000	1	1	0	1	0
73	917	7	10000	1	1	0	1	0
77	918	7	10000	1	1	0	1	0
82	919	7	10000	1	1	0	1	0
85	920	7	10000	1	1	0	1	0
85	921	7	10000	1	1	0	1	0
85	922	7	10000	1	1	0	1	0
92	923	7	10000	1	1	0	1	0
97	924	7	10000	1	1	0	1	0
96	925	7	10000	1	1	0	1	0
94	926	7	10000	1	1	0	1	0
91	927	7	10000	1	1	0	1	0
87	928	7	10000	1	1	0	1	0
84	929	7	10000	1	1	0	1	0
81	930	7	10000	1	1	0	1	0
77	931	7	10000	1	1	0	1	0
76	932	7	10000	1	1	0	1	0
74	933	7	10000	1	1	0	1	0
75	934	7	10000	1	1	0	1	0
72	935	7	10000	1	1	0	1	0
70	936	7	10000	1	1	0	1	0
68	937	7	10000	1	1	0	1	0
70	938	7	10000	1	1	0	1	0
72	939	7	10000	1	1	0	1	0
72	940	7	10000	1	1	0	1	0
71	941	7	10000	1	1	0	1	0
69	942	7	10000	1	1	0	1	0
67	943	7	10000	1	1	0	1	0
63	944	7	10000	1	1	0	1	0
61	945	7	10000	1	1	0	1	0
59	946	7	10000	1	1	0	1	0
58	947	7	10000	1	1	0	1	0
57	948	7	10000	1	1	0	1	0
65	949	7	10000	1	1	0	1	0
74	950	7	10000	1	1	0	1	0
73	951	7	10000	1	1	0	1	0
77	952	7	10000	1	1	0	1	0
81	953	7	10000	1	1	0	1	0
81	954	7	10000	1	1	0	1	0
83	955	7	10000	1	1	0	1	0
84	956	7	10000	1	1	0	1	0
82	957	7	10000	1	1	0	1	0
83	958	7	10000	1	1	0	1	0
82	959	7	10000	1	1	0	1	0
83	960	7	10000	1	1	0	1	0
83	961	7	10000	1	1	0	1	0
83	962	7	10000	1	1	0	1	0
86	963	7	10000	1	1	0	1	0
92	964	7	10000	1	1	0	1	0
95	965	7	10000	1	1	0	1	0
93	966	7	10000	1	1	0	1	0
96	967	7	10000	1	1	0	1	0
100	968	7	10000	1	1	0	1	0
99	969	7	10000	1	1	0	1	0
95	970	7	10000	1	1	0	1	0
93	971	7	10000	1	1	0	1	0
93	972	7	10000	1	1	0	1	0
91	973	7	10000	1	1	0	1	0
90	974	7	10000	1	1	0	1	0
86	975	7	10000	1	1	0	1	0
83	976	7	10000	1	1	0	1	0
82	977	7	10000	1	1	0	1	0
80	978	7	10000	1	1	0	1	0
87	979	7	10000	1	1	0	1	0
91	980	7	10000	1	1	0	1	0
89	981	7	10000	1	1	0	1	0
92	982	7	10000	1	1	0	1	0
97	983	7	10000	1	1	0	1	0
96	984	7	10000	1	1	0	1	0
92	985	7	10000	1	1	0	1	0
89	986	7	10000	1	1	0	1	0
87	987	7	10000	1	1	0	1	0
89	988	7	10000	1	1	0	1	0
92	989	7	10000	1	1	0	1	0
100	990	7	10000	1	1	0	1	0
117	991	7	10000	1	1	0	1	0
118	992	7	10000	1	1	0	1	0
125	993	7	10000	1	1	0	1	0
132	994	7	10000	1	1	0	1	0
138	995	7	10000	1	1	0	1	0
144	996	7	10000	1	1	0	1	0
140	997	7	10000	1	1	0	1	0
135	998	7	10000	1	1	0	1	0
132	999	7	10000	1	1	0	1	0
129	1000	7	10000	1	1	0	1	0
32	1	7	10000	2	1	0	2	0
31	2	7	10000	2	1	0	2	0
31	3	7	10000	2	1	0	2	0
31	4	7	10000	2	1	0	2	0
30	5	7	10000	2	1	0	2	0
34	6	7	10000	2	1	0	2	0
36	7	7	10000	2	1	0	2	0
37	8	7	10000	2	1	0	2	0
38	9	7	10000	2	1	0	2	0
38	10	7	10000	2	1	0	2	0
38	11	7	10000	2	1	0	2	0
36	12	7	10000	2	1	0	2	0
36	13	7	10000	2	1	0	2	0
36	14	7	10000	2	1	0	2	0
38	15	7	10000	2	1	0	2	0
37	16	7	10000	2	1	0	2	0
36	17	7	10000	2	1	0	2	0
37	18	7	10000	2	1	0	2	0
37	19	7	10000	2	1	0	2	0
37	20	7	10000	2	1	0	2	0
38	21	7	10000	2	1	0	2	0
38	22	7	10000	2	1	0	2	0
37	23	7	10000	2	1	0	2	0
39	24	7	10000	2	1	0	2	0
39	25	7	10000	2	1	0	2	0
39	26	7	10000	2	1	0	2	0
39	27	7	10000	2	1	0	2	0
39	28	7	10000	2	1	0	2	0
37	29	7	10000	2	1	0	2	0
38	30	7	10000	2	1	0	2	0
38	31	7	10000	2	1	0	2	0
37	32	7	10000	2	1	0	2	0
36	33	7	10000	2	1	0	2	0
37	34	7	10000	2	1	0	2	0
38	35	7	10000	2	1	0	2	0
36	36	7	10000	2	1	0	2	0
35	37	7	10000	2	1	0	2	0
37	38	7	10000	2	1	0	2	0
37	39	7	10000	2	1	0	2	0
37	40	7	10000	2	1	0	2	0
35	41	7	10000	2	1	0	2	0
34	42	7	10000	2	1	0	2	0
34	43	7	10000	2	1	0	2	0
33	44	7	10000	2	1	0	2	0
32	45	7	10000	2	1	0	2	0
32	46	7	10000	2	1	0	2	0
32	47	7	10000	2	1	0	2	0
32	48	7	10000	2	1	0	2	0
33	49	7	10000	2	1	0	2	0
32	50	7	10000	2	1	0	2	0
32	51	7	10000	2	1	0	2	0
32	52	7	10000	2	1	0	2	0
32	53	7	10000	2	1	0	2	0
32	54	7	10000	2	1	0	2	0
34	55	7	10000	2	1	0	2	0
32	56	7	10000	2	1	0	2	0
30	57	7	10000	2	1	0	2	0
31	58	7	10000	2	1	0	2	0
30	59	7	10000	2	1	0	2	0
28	60	7	10000	2	1	0	2	0
28	61	7	10000	2	1	0	2	0
28	62	7	10000	2	1	0	2	0
28	63	7	10000	2	1	0	2	0
31	64	7	10000	2	1	0	2	0
32	65	7	10000	2	1	0	2	0
32	66	7	10000	2	1	0	2	0
35	67	7	10000	2	1	0	2	0
38	68	7	10000	2	1	0	2	0
41	69	7	10000	2	1	0	2	0
42	70	7	10000	2	1	0	2	0
40	71	7	10000	2	1	0	2	0
39	72	7	10000	2	1	0	2	0
38	73	7	10000	2	1	0	2	0
38	74	7	10000	2	1	0	2	0
37	75	7	10000	2	1	0	2	0
35	76	7	10000	2	1	0	2	0
33	77	7	10000	2	1	0	2	0
32	78	7	10000	2	1	0	2	0
33	79	7	10000	2	1	0	2	0
33	80	7	10000	2	1	0	2	0
32	81	7	10000	2	1	0	2	0
34	82	7	10000	2	1	0	2	0
36	83	7	10000	2	1	0	2	0
34	84	7	10000	2	1	0	2	0
32	85	7	10000	2	1	0	2	0
33	86	7	10000	2	1	0	2	0
32	87	7	10000	2	1	0	2	0
33	88	7	10000	2	1	0	2	0
35	89	7	10000	2	1	0	2	0
35	90	7	10000	2	1	0	2	0
37	91	7	10000	2	1	0	2	0
36	92	7	10000	2	1	0	2	0
35	93	7	10000	2	1	0	2	0
35	94	7	10000	2	1	0	2	0
35	95	7	10000	2	1	0	2	0
34	96	7	10000	2	1	0	2	0
35	97	7	10000	2	1	0	2	0
39	98	7	10000	2	1	0	2	0
37	99	7	10000	2	1	0	2	0
38	100	7	10000	2	1	0	2	0
37	101	7	10000	2	1	0	2	0
37	102	7	10000	2	1	0	2	0
38	103	7	10000	2	1	0	2	0
40	104	7	10000	2	1	0	2	0
40	105	7	10000	2	1	0	2	0
40	106	7	10000	2	1	0	2	0
40	107	7	10000	2	1	0	2	0
39	108	7	10000	2	1	0	2	0
40	109	7	10000	2	1	0	2	0
39	110	7	10000	2	1	0	2	0
38	111	7	10000	2	1	0	2	0
36	112	7	10000	2	1	0	2	0
35	113	7	10000	2	1	0	2	0
34	114	7	10000	2	1	0	2	0
33	115	7	10000	2	1	0	2	0
34	116	7	10000	2	1	0	2	0
35	117	7	10000	2	1	0	2	0
35	118	7	10000	2	1	0	2	0
35	119	7	10000	2	1	0	2	0
37	120	7	10000	2	1	0	2	0
37	121	7	10000	2	1	0	2	0
36	122	7	10000	2	1	0	2	0
36	123	7	10000	2	1	0	2	0
34	124	7	10000	2	1	0	2	0
34	125	7	10000	2	1	0	2	0
36	126	7	10000	2	1	0	2	0
36	127	7	10000	2	1	0	2	0
34	128	7	10000	2	1	0	2	0
35	129	7	10000	2	1	0	2	0
35	130	7	10000	2	1	0	2	0
36	131	7	10000	2	1	0	2	0
36	132	7	10000	2	1	0	2	0
35	133	7	10000	2	1	0	2	0
35	134	7	10000	2	1	0	2	0
36	135	7	10000	2	1	0	2	0
35	136	7	10000	2	1	0	2	0
37	137	7	10000	2	1	0	2	0
39	138	7	10000	2	1	0	2	0
37	139	7	10000	2	1	0	2	0
38	140	7	10000	2	1	0	2	0
37	141	7	10000	2	1	0	2	0
36	142	7	10000	2	1	0	2	0
35	143	7	10000	2	1	0	2	0
33	144	7	10000	2	1	0	2	0
33	145	7	10000	2	1	0	2	0
35	146	7	10000	2	1	0	2	0
38	147	7	10000	2	1	0	2	0
38	148	7	10000	2	1	0	2	0
36	149	7	10000	2	1	0	2	0
36	150	7	10000	2	1	0	2	0
38	151	7	10000	2	1	0	2	0
36	152	7	10000	2	1	0	2	0
36	153	7	10000	2	1	0	2	0
35	154	7	10000	2	1	0	2	0
35	155	7	10000	2	1	0	2	0
33	156	7	10000	2	1	0	2	0
31	157	7	10000	2	1	0	2	0
32	158	7	10000	2	1	0	2	0
33	159	7	10000	2	1	0	2	0
34	160	7	10000	2	1	0	2	0
33	161	7	10000	2	1	0	2	0
32	162	7	10000	2	1	0	2	0
31	163	7	10000	2	1	0	2	0
31	164	7	10000	2	1	0	2	0
30	165	7	10000	2	1	0	2	0
30	166	7	10000	2	1	0	2	0
30	167	7	10000	2	1	0	2	0
28	168	7	10000	2	1	0	2	0
28	169	7	10000	2	1	0	2	0
29	170	7	10000	2	1	0	2	0
29	171	7	10000	2	1	0	2	0
29	172	7	10000	2	1	0	2	0
34	173	7	10000	2	1	0	2	0
35	174	7	10000	2	1	0	2	0
36	175	7	10000	2	1	0	2	0
34	176	7	10000	2	1	0	2	0
32	177	7	10000	2	1	0	2	0
32	178	7	10000	2	1	0	2	0
33	179	7	10000	2	1	0	2	0
32	180	7	10000	2	1	0	2	0
32	181	7	10000	2	1	0	2	0
31	182	7	10000	2	1	0	2	0
30	183	7	10000	2	1	0	2	0
28	184	7	10000	2	1	0	2	0
27	185	7	10000	2	1	0	2	0
28	186	7	10000	2	1	0	2	0
31	187	7	10000	2	1	0	2	0
35	188	7	10000	2	1	0	2	0
35	189	7	10000	2	1	0	2	0
38	190	7	10000	2	1	0	2	0
40	191	7	10000	2	1	0	2	0
40	192	7	10000	2	1	0	2	0
40	193	7	10000	2	1	0	2	0
42	194	7	10000	2	1	0	2	0
51	195	7	10000	2	1	0	2	0
51	196	7	10000	2	1	0	2	0
53	197	7	10000	2	1	0	2	0
59	198	7	10000	2	1	0	2	0
64	199	7	10000	2	1	0	2	0
68	200	7	10000	2	1	0	2	0
70	201	7	10000	2	1	0	2	0
77	202	7	10000	2	1	0	2	0
90	203	7	10000	2	1	0	2	0
93	204	7	10000	2	1	0	2	0
91	205	7	10000	2	1	0	2	0
95	206	7	10000	2	1	0	2	0
110	207	7	10000	2	1	0	2	0
127	208	7	10000	2	1	0	2	0
147	209	7	10000	2	1	0	2	0
147	210	7	10000	2	1	0	2	0
166	211	7	10000	2	1	0	2	0
184	212	7	10000	2	1	0	2	0
190	213	7	10000	2	1	0	2	0
191	214	7	10000	2	1	0	2	0
189	215	7	10000	2	1	0	2	0
187	216	7	10000	2	1	0	2	0
182	217	7	10000	2	1	0	2	0
181	218	7	10000	2	1	0	2	0
174	219	7	10000	2	1	0	2	0
167	220	7	10000	2	1	0	2	0
169	221	7	10000	2	1	0	2	0
177	222	7	10000	2	1	0	2	0
184	223	7	10000	2	1	0	2	0
181	224	7	10000	2	1	0	2	0
174	225	7	10000	2	1	0	2	0
176	226	7	10000	2	1	0	2	0
179	227	7	10000	2	1	0	2	0
177	228	7	10000	2	1	0	2	0
174	229	7	10000	2	1	0	2	0
177	230	7	10000	2	1	0	2	0
181	231	7	10000	2	1	0	2	0
187	232	7	10000	2	1	0	2	0
186	233	7	10000	2	1	0	2	0
182	234	7	10000	2	1	0	2	0
183	235	7	10000	2	1	0	2	0
181	236	7	10000	2	1	0	2	0
175	237	7	10000	2	1	0	2	0
174	238	7	10000	2	1	0	2	0
184	239	7	10000	2	1	0	2	0
180	240	7	10000	2	1	0	2	0
175	241	7	10000	2	1	0	2	0
172	242	7	10000	2	1	0	2	0
174	243	7	10000	2	1	0	2	0
178	244	7	10000	2	1	0	2	0
182	245	7	10000	2	1	0	2	0
191	246	7	10000	2	1	0	2	0
209	247	7	10000	2	1	0	2	0
212	248	7	10000	2	1	0	2	0
228	249	7	10000	2	1	0	2	0
235	250	7	10000	2	1	0	2	0
229	251	7	10000	2	1	0	2	0
236	252	7	10000	2	1	0	2	0
245	253	7	10000	2	1	0	2	0
241	254	7	10000	2	1	0	2	0
235	255	7	10000	2	1	0	2	0
233	256	7	10000	2	1	0	2	0
233	257	7	10000	2	1	0	2	0
236	258	7	10000	2	1	0	2	0
238	259	7	10000	2	1	0	2	0
231	260	7	10000	2	1	0	2	0
228	261	7	10000	2	1	0	2	0
223	262	7	10000	2	1	0	2	0
212	263	7	10000	2	1	0	2	0
206	264	7	10000	2	1	0	2	0
202	265	7	10000	2	1	0	2	0
199	266	7	10000	2	1	0	2	0
191	267	7	10000	2	1	0	2	0
187	268	7	10000	2	1	0	2	0
185	269	7	10000	2	1	0	2	0
184	270	7	10000	2	1	0	2	0
186	271	7	10000	2	1	0	2	0
187	272	7	10000	2	1	0	2	0
183	273	7	10000	2	1	0	2	0
176	274	7	10000	2	1	0	2	0
169	275	7	10000	2	1	0	2	0
162	276	7	10000	2	1	0	2	0
154	277	7	10000	2	1	0	2	0
150	278	7	10000	2	1	0	2	0
144	279	7	10000	2	1	0	2	0
139	280	7	10000	2	1	0	2	0
134	281	7	10000	2	1	0	2	0
128	282	7	10000	2	1	0	2	0
122	283	7	10000	2	1	0	2	0
118	284	7	10000	2	1	0	2	0
120	285	7	10000	2	1	0	2	0
124	286	7	10000	2	1	0	2	0
128	287	7	10000	2	1	0	2	0
130	288	7	10000	2	1	0	2	0
134	289	7	10000	2	1	0	2	0
132	290	7	10000	2	1	0	2	0
132	291	7	10000	2	1	0	2	0
134	292	7	10000	2	1	0	2	0
138	293	7	10000	2	1	0	2	0
141	294	7	10000	2	1	0	2	0
149	295	7	10000	2	1	0	2	0
154	296	7	10000	2	1	0	2	0
154	297	7	10000	2	1	0	2	0
156	298	7	10000	2	1	0	2	0
158	299	7	10000	2	1	0	2	0
159	300	7	10000	2	1	0	2	0
158	301	7	10000	2	1	0	2	0
158	302	7	10000	2	1	0	2	0
161	303	7	10000	2	1	0	2	0
168	304	7	10000	2	1	0	2	0
175	305	7	10000	2	1	0	2	0
180	306	7	10000	2	1	0	2	0
181	307	7	10000	2	1	0	2	0
177	308	7	10000	2	1	0	2	0
173	309	7	10000	2	1	0	2	0
168	310	7	10000	2	1	0	2	0
163	311	7	10000	2	1	0	2	0
160	312	7	10000	2	1	0	2	0
155	313	7	10000	2	1	0	2	0
150	314	7	10000	2	1	0	2	0
148	315	7	10000	2	1	0	2	0
146	316	7	10000	2	1	0	2	0
145	317	7	10000	2	1	0	2	0
143	318	7	10000	2	1	0	2	0
140	319	7	10000	2	1	0	2	0
136	320	7	10000	2	1	0	2	0
131	321	7	10000	2	1	0	2	0
126	322	7	10000	2	1	0	2	0
123	323	7	10000	2	1	0	2	0
124	324	7	10000	2	1	0	2	0
125	325	7	10000	2	1	0	2	0
125	326	7	10000	2	1	0	2	0
125	327	7	10000	2	1	0	2	0
120	328	7	10000	2	1	0	2	0
116	329	7	10000	2	1	0	2	0
111	330	7	10000	2	1	0	2	0
107	331	7	10000	2	1	0	2	0
105	332	7	10000	2	1	0	2	0
103	333	7	10000	2	1	0	2	0
100	334	7	10000	2	1	0	2	0
96	335	7	10000	2	1	0	2	0
92	336	7	10000	2	1	0	2	0
89	337	7	10000	2	1	0	2	0
89	338	7	10000	2	1	0	2	0
86	339	7	10000	2	1	0	2	0
84	340	7	10000	2	1	0	2	0
80	341	7	10000	2	1	0	2	0
78	342	7	10000	2	1	0	2	0
75	343	7	10000	2	1	0	2	0
71	344	7	10000	2	1	0	2	0
68	345	7	10000	2	1	0	2	0
67	346	7	10000	2	1	0	2	0
66	347	7	10000	2	1	0	2	0
66	348	7	10000	2	1	0	2	0
66	349	7	10000	2	1	0	2	0
62	350	7	10000	2	1	0	2	0
61	351	7	10000	2	1	0	2	0
59	352	7	10000	2	1	0	2	0
59	353	7	10000	2	1	0	2	0
64	354	7	10000	2	1	0	2	0
71	355	7	10000	2	1	0	2	0
75	356	7	10000	2	1	0	2	0
77	357	7	10000	2	1	0	2	0
77	358	7	10000	2	1	0	2	0
75	359	7	10000	2	1	0	2	0
73	360	7	10000	2	1	0	2	0
71	361	7	10000	2	1	0	2	0
70	362	7	10000	2	1	0	2	0
70	363	7	10000	2	1	0	2	0
68	364	7	10000	2	1	0	2	0
65	365	7	10000	2	1	0	2	0
66	366	7	10000	2	1	0	2	0
67	367	7	10000	2	1	0	2	0
65	368	7	10000	2	1	0	2	0
63	369	7	10000	2	1	0	2	0
61	370	7	10000	2	1	0	2	0
60	371	7	10000	2	1	0	2	0
61	372	7	10000	2	1	0	2	0
60	373	7	10000	2	1	0	2	0
57	374	7	10000	2	1	0	2	0
56	375	7	10000	2	1	0	2	0
55	376	7	10000	2	1	0	2	0
56	377	7	10000	2	1	0	2	0
58	378	7	10000	2	1	0	2	0
60	379	7	10000	2	1	0	2	0
63	380	7	10000	2	1	0	2	0
64	381	7	10000	2	1	0	2	0
61	382	7	10000	2	1	0	2	0
60	383	7	10000	2	1	0	2	0
58	384	7	10000	2	1	0	2	0
56	385	7	10000	2	1	0	2	0
57	386	7	10000	2	1	0	2	0
58	387	7	10000	2	1	0	2	0
55	388	7	10000	2	1	0	2	0
54	389	7	10000	2	1	0	2	0
53	390	7	10000	2	1	0	2	0
52	391	7	10000	2	1	0	2	0
53	392	7	10000	2	1	0	2	0
54	393	7	10000	2	1	0	2	0
52	394	7	10000	2	1	0	2	0
51	395	7	10000	2	1	0	2	0
52	396	7	10000	2	1	0	2	0
49	397	7	10000	2	1	0	2	0
48	398	7	10000	2	1	0	2	0
48	399	7	10000	2	1	0	2	0
47	400	7	10000	2	1	0	2	0
45	401	7	10000	2	1	0	2	0
45	402	7	10000	2	1	0	2	0
43	403	7	10000	2	1	0	2	0
41	404	7	10000	2	1	0	2	0
40	405	7	10000	2	1	0	2	0
41	406	7	10000	2	1	0	2	0
40	407	7	10000	2	1	0	2	0
40	408	7	10000	2	1	0	2	0
41	409	7	10000	2	1	0	2	0
41	410	7	10000	2	1	0	2	0
43	411	7	10000	2	1	0	2	0
44	412	7	10000	2	1	0	2	0
44	413	7	10000	2	1	0	2	0
44	414	7	10000	2	1	0	2	0
46	415	7	10000	2	1	0	2	0
43	416	7	10000	2	1	0	2	0
41	417	7	10000	2	1	0	2	0
41	418	7	10000	2	1	0	2	0
41	419	7	10000	2	1	0	2	0
41	420	7	10000	2	1	0	2	0
40	421	7	10000	2	1	0	2	0
40	422	7	10000	2	1	0	2	0
40	423	7	10000	2	1	0	2	0
41	424	7	10000	2	1	0	2	0
43	425	7	10000	2	1	0	2	0
47	426	7	10000	2	1	0	2	0
48	427	7	10000	2	1	0	2	0
47	428	7	10000	2	1	0	2	0
47	429	7	10000	2	1	0	2	0
47	430	7	10000	2	1	0	2	0
47	431	7	10000	2	1	0	2	0
46	432	7	10000	2	1	0	2	0
44	433	7	10000	2	1	0	2	0
44	434	7	10000	2	1	0	2	0
46	435	7	10000	2	1	0	2	0
48	436	7	10000	2	1	0	2	0
48	437	7	10000	2	1	0	2	0
48	438	7	10000	2	1	0	2	0
48	439	7	10000	2	1	0	2	0
46	440	7	10000	2	1	0	2	0
45	441	7	10000	2	1	0	2	0
44	442	7	10000	2	1	0	2	0
42	443	7	10000	2	1	0	2	0
42	444	7	10000	2	1	0	2	0
40	445	7	10000	2	1	0	2	0
40	446	7	10000	2	1	0	2	0
41	447	7	10000	2	1	0	2	0
41	448	7	10000	2	1	0	2	0
40	449	7	10000	2	1	0	2	0
38	450	7	10000	2	1	0	2	0
37	451	7	10000	2	1	0	2	0
37	452	7	10000	2	1	0	2	0
37	453	7	10000	2	1	0	2	0
37	454	7	10000	2	1	0	2	0
39	455	7	10000	2	1	0	2	0
38	456	7	10000	2	1	0	2	0
38	457	7	10000	2	1	0	2	0
38	458	7	10000	2	1	0	2	0
37	459	7	10000	2	1	0	2	0
36	460	7	10000	2	1	0	2	0
35	461	7	10000	2	1	0	2	0
34	462	7	10000	2	1	0	2	0
33	463	7	10000	2	1	0	2	0
34	464	7	10000	2	1	0	2	0
32	465	7	10000	2	1	0	2	0
33	466	7	10000	2	1	0	2	0
34	467	7	10000	2	1	0	2	0
32	468	7	10000	2	1	0	2	0
31	469	7	10000	2	1	0	2	0
31	470	7	10000	2	1	0	2	0
32	471	7	10000	2	1	0	2	0
33	472	7	10000	2	1	0	2	0
33	473	7	10000	2	1	0	2	0
33	474	7	10000	2	1	0	2	0
33	475	7	10000	2	1	0	2	0
33	476	7	10000	2	1	0	2	0
33	477	7	10000	2	1	0	2	0
36	478	7	10000	2	1	0	2	0
36	479	7	10000	2	1	0	2	0
35	480	7	10000	2	1	0	2	0
35	481	7	10000	2	1	0	2	0
36	482	7	10000	2	1	0	2	0
36	483	7	10000	2	1	0	2	0
35	484	7	10000	2	1	0	2	0
34	485	7	10000	2	1	0	2	0
36	486	7	10000	2	1	0	2	0
38	487	7	10000	2	1	0	2	0
38	488	7	10000	2	1	0	2	0
36	489	7	10000	2	1	0	2	0
35	490	7	10000	2	1	0	2	0
35	491	7	10000	2	1	0	2	0
36	492	7	10000	2	1	0	2	0
37	493	7	10000	2	1	0	2	0
37	494	7	10000	2	1	0	2	0
36	495	7	10000	2	1	0	2	0
34	496	7	10000	2	1	0	2	0
32	497	7	10000	2	1	0	2	0
31	498	7	10000	2	1	0	2	0
31	499	7	10000	2	1	0	2	0
31	500	7	10000	2	1	0	2	0
31	501	7	10000	2	1	0	2	1
30	502	7	10000	2	1	0	2	1
31	503	7	10000	2	1	0	2	1
31	504	7	10000	2	1	0	2	1
30	505	7	10000	2	1	0	2	1
31	506	7	10000	2	1	0	2	1
33	507	7	10000	2	1	0	2	1
32	508	7	10000	2	1	0	2	1
31	509	7	10000	2	1	0	2	1
30	510	7	10000	2	1	0	2	1
30	511	7	10000	2	1	0	2	1
29	512	7	10000	2	1	0	2	1
29	513	7	10000	2	1	0	2	1
28	514	7	10000	2	1	0	2	1
28	515	7	10000	2	1	0	2	1
29	516	7	10000	2	1	0	2	1
32	517	7	10000	2	1	0	2	1
32	518	7	10000	2	1	0	2	1
33	519	7	10000	2	1	0	2	1
35	520	7	10000	2	1	0	2	1
39	521	7	10000	2	1	0	2	1
39	522	7	10000	2	1	0	2	1
39	523	7	10000	2	1	0	2	1
38	524	7	10000	2	1	0	2	1
36	525	7	10000	2	1	0	2	1
36	526	7	10000	2	1	0	2	1
36	527	7	10000	2	1	0	2	1
37	528	7	10000	2	1	0	2	1
37	529	7	10000	2	1	0	2	1
36	530	7	10000	2	1	0	2	1
36	531	7	10000	2	1	0	2	1
36	532	7	10000	2	1	0	2	1
36	533	7	10000	2	1	0	2	1
35	534	7	10000	2	1	0	2	1
35	535	7	10000	2	1	0	2	1
33	536	7	10000	2	1	0	2	1
32	537	7	10000	2	1	0	2	1
32	538	7	10000	2	1	0	2	1
34	539	7	10000	2	1	0	2	1
34	540	7	10000	2	1	0	2	1
34	541	7	10000	2	1	0	2	1
35	542	7	10000	2	1	0	2	1
34	543	7	10000	2	1	0	2	1
34	544	7	10000	2	1	0	2	1
36	545	7	10000	2	1	0	2	1
37	546	7	10000	2	1	0	2	1
37	547	7	10000	2	1	0	2	1
36	548	7	10000	2	1	0	2	1
35	549	7	10000	2	1	0	2	1
35	550	7	10000	2	1	0	2	1
34	551	7	10000	2	1	0	2	0
33	552	7	10000	2	1	0	2	0
34	553	7	10000	2	1	0	2	0
32	554	7	10000	2	1	0	2	0
33	555	7	10000	2	1	0	2	0
35	556	7	10000	2	1	0	2	0
35	557	7	10000	2	1	0	2	0
34	558	7	10000	2	1	0	2	0
35	559	7	10000	2	1	0	2	0
33	560	7	10000	2	1	0	2	0
32	561	7	10000	2	1	0	2	0
32	562	7	10000	2	1	0	2	0
30	563	7	10000	2	1	0	2	0
28	564	7	10000	2	1	0	2	0
30	565	7	10000	2	1	0	2	0
33	566	7	10000	2	1	0	2	0
36	567	7	10000	2	1	0	2	0
37	568	7	10000	2	1	0	2	0
39	569	7	10000	2	1	0	2	0
39	570	7	10000	2	1	0	2	0
39	571	7	10000	2	1	0	2	0
38	572	7	10000	2	1	0	2	0
37	573	7	10000	2	1	0	2	0
37	574	7	10000	2	1	0	2	0
36	575	7	10000	2	1	0	2	0
35	576	7	10000	2	1	0	2	0
35	577	7	10000	2	1	0	2	0
34	578	7	10000	2	1	0	2	0
34	579	7	10000	2	1	0	2	0
38	580	7	10000	2	1	0	2	0
37	581	7	10000	2	1	0	2	0
40	582	7	10000	2	1	0	2	0
40	583	7	10000	2	1	0	2	0
41	584	7	10000	2	1	0	2	0
43	585	7	10000	2	1	0	2	0
44	586	7	10000	2	1	0	2	0
52	587	7	10000	2	1	0	2	0
65	588	7	10000	2	1	0	2	0
82	589	7	10000	2	1	0	2	0
98	590	7	10000	2	1	0	2	0
102	591	7	10000	2	1	0	2	0
112	592	7	10000	2	1	0	2	0
125	593	7	10000	2	1	0	2	0
135	594	7	10000	2	1	0	2	0
136	595	7	10000	2	1	0	2	0
145	596	7	10000	2	1	0	2	0
145	597	7	10000	2	1	0	2	0
159	598	7	10000	2	1	0	2	0
189	599	7	10000	2	1	0	2	0
201	600	7	10000	2	1	0	2	0
199	601	7	10000	2	1	0	2	0
205	602	7	10000	2	1	0	2	0
216	603	7	10000	2	1	0	2	0
228	604	7	10000	2	1	0	2	0
226	605	7	10000	2	1	0	2	0
224	606	7	10000	2	1	0	2	0
237	607	7	10000	2	1	0	2	0
256	608	7	10000	2	1	0	2	0
250	609	7	10000	2	1	0	2	0
258	610	7	10000	2	1	0	2	0
261	611	7	10000	2	1	0	2	0
257	612	7	10000	2	1	0	2	0
251	613	7	10000	2	1	0	2	0
249	614	7	10000	2	1	0	2	0
242	615	7	10000	2	1	0	2	0
239	616	7	10000	2	1	0	2	0
233	617	7	10000	2	1	0	2	0
227	618	7	10000	2	1	0	2	0
218	619	7	10000	2	1	0	2	0
211	620	7	10000	2	1	0	2	0
202	621	7	10000	2	1	0	2	0
193	622	7	10000	2	1	0	2	0
188	623	7	10000	2	1	0	2	0
189	624	7	10000	2	1	0	2	0
185	625	7	10000	2	1	0	2	0
190	626	7	10000	2	1	0	2	0
195	627	7	10000	2	1	0	2	0
195	628	7	10000	2	1	0	2	0
195	629	7	10000	2	1	0	2	0
196	630	7	10000	2	1	0	2	0
192	631	7	10000	2	1	0	2	0
189	632	7	10000	2	1	0	2	0
185	633	7	10000	2	1	0	2	0
177	634	7	10000	2	1	0	2	0
171	635	7	10000	2	1	0	2	0
163	636	7	10000	2	1	0	2	0
154	637	7	10000	2	1	0	2	0
148	638	7	10000	2	1	0	2	0
143	639	7	10000	2	1	0	2	0
138	640	7	10000	2	1	0	2	0
136	641	7	10000	2	1	0	2	0
137	642	7	10000	2	1	0	2	0
135	643	7	10000	2	1	0	2	0
131	644	7	10000	2	1	0	2	0
126	645	7	10000	2	1	0	2	0
124	646	7	10000	2	1	0	2	0
127	647	7	10000	2	1	0	2	0
134	648	7	10000	2	1	0	2	0
142	649	7	10000	2	1	0	2	0
150	650	7	10000	2	1	0	2	0
152	651	7	10000	2	1	0	2	0
154	652	7	10000	2	1	0	2	0
158	653	7	10000	2	1	0	2	0
161	654	7	10000	2	1	0	2	0
160	655	7	10000	2	1	0	2	0
154	656	7	10000	2	1	0	2	0
147	657	7	10000	2	1	0	2	0
141	658	7	10000	2	1	0	2	0
141	659	7	10000	2	1	0	2	0
143	660	7	10000	2	1	0	2	0
144	661	7	10000	2	1	0	2	0
144	662	7	10000	2	1	0	2	0
144	663	7	10000	2	1	0	2	0
145	664	7	10000	2	1	0	2	0
145	665	7	10000	2	1	0	2	0
148	666	7	10000	2	1	0	2	0
152	667	7	10000	2	1	0	2	0
151	668	7	10000	2	1	0	2	0
149	669	7	10000	2	1	0	2	0
147	670	7	10000	2	1	0	2	0
146	671	7	10000	2	1	0	2	0
144	672	7	10000	2	1	0	2	0
141	673	7	10000	2	1	0	2	0
139	674	7	10000	2	1	0	2	0
136	675	7	10000	2	1	0	2	0
132	676	7	10000	2	1	0	2	0
129	677	7	10000	2	1	0	2	0
125	678	7	10000	2	1	0	2	0
123	679	7	10000	2	1	0	2	0
122	680	7	10000	2	1	0	2	0
117	681	7	10000	2	1	0	2	0
113	682	7	10000	2	1	0	2	0
109	683	7	10000	2	1	0	2	0
104	684	7	10000	2	1	0	2	0
101	685	7	10000	2	1	0	2	0
100	686	7	10000	2	1	0	2	0
98	687	7	10000	2	1	0	2	0
93	688	7	10000	2	1	0	2	0
91	689	7	10000	2	1	0	2	0
90	690	7	10000	2	1	0	2	0
89	691	7	10000	2	1	0	2	0
85	692	7	10000	2	1	0	2	0
84	693	7	10000	2	1	0	2	0
83	694	7	10000	2	1	0	2	0
80	695	7	10000	2	1	0	2	0
75	696	7	10000	2	1	0	2	0
71	697	7	10000	2	1	0	2	0
75	698	7	10000	2	1	0	2	0
81	699	7	10000	2	1	0	2	0
89	700	7	10000	2	1	0	2	0
96	701	7	10000	2	1	0	2	0
100	702	7	10000	2	1	0	2	0
103	703	7	10000	2	1	0	2	0
101	704	7	10000	2	1	0	2	0
98	705	7	10000	2	1	0	2	0
96	706	7	10000	2	1	0	2	0
93	707	7	10000	2	1	0	2	0
90	708	7	10000	2	1	0	2	0
87	709	7	10000	2	1	0	2	0
88	710	7	10000	2	1	0	2	0
89	711	7	10000	2	1	0	2	0
89	712	7	10000	2	1	0	2	0
90	713	7	10000	2	1	0	2	0
89	714	7	10000	2	1	0	2	0
87	715	7	10000	2	1	0	2	0
84	716	7	10000	2	1	0	2	0
80	717	7	10000	2	1	0	2	0
77	718	7	10000	2	1	0	2	0
76	719	7	10000	2	1	0	2	0
74	720	7	10000	2	1	0	2	0
75	721	7	10000	2	1	0	2	0
75	722	7	10000	2	1	0	2	0
72	723	7	10000	2	1	0	2	0
70	724	7	10000	2	1	0	2	0
69	725	7	10000	2	1	0	2	0
68	726	7	10000	2	1	0	2	0
68	727	7	10000	2	1	0	2	0
73	728	7	10000	2	1	0	2	0
79	729	7	10000	2	1	0	2	0
80	730	7	10000	2	1	0	2	0
79	731	7	10000	2	1	0	2	0
78	732	7	10000	2	1	0	2	0
80	733	7	10000	2	1	0	2	0
81	734	7	10000	2	1	0	2	0
80	735	7	10000	2	1	0	2	0
76	736	7	10000	2	1	0	2	0
76	737	7	10000	2	1	0	2	0
76	738	7	10000	2	1	0	2	0
78	739	7	10000	2	1	0	2	0
78	740	7	10000	2	1	0	2	0
75	741	7	10000	2	1	0	2	0
72	742	7	10000	2	1	0	2	0
72	743	7	10000	2	1	0	2	0
71	744	7	10000	2	1	0	2	0
69	745	7	10000	2	1	0	2	0
71	746	7	10000	2	1	0	2	0
72	747	7	10000	2	1	0	2	0
71	748	7	10000	2	1	0	2	0
71	749	7	10000	2	1	0	2	0
70	750	7	10000	2	1	0	2	0
67	751	7	10000	2	1	0	2	0
64	752	7	10000	2	1	0	2	0
63	753	7	10000	2	1	0	2	0
66	754	7	10000	2	1	0	2	0
65	755	7	10000	2	1	0	2	0
61	756	7	10000	2	1	0	2	0
59	757	7	10000	2	1	0	2	0
58	758	7	10000	2	1	0	2	0
56	759	7	10000	2	1	0	2	0
56	760	7	10000	2	1	0	2	0
56	761	7	10000	2	1	0	2	0
56	762	7	10000	2	1	0	2	0
57	763	7	10000	2	1	0	2	0
58	764	7	10000	2	1	0	2	0
58	765	7	10000	2	1	0	2	0
62	766	7	10000	2	1	0	2	0
63	767	7	10000	2	1	0	2	0
62	768	7	10000	2	1	0	2	0
64	769	7	10000	2	1	0	2	0
68	770	7	10000	2	1	0	2	0
66	771	7	10000	2	1	0	2	0
63	772	7	10000	2	1	0	2	0
62	773	7	10000	2	1	0	2	0
60	774	7	10000	2	1	0	2	0
58	775	7	10000	2	1	0	2	0
55	776	7	10000	2	1	0	2	0
56	777	7	10000	2	1	0	2	0
61	778	7	10000	2	1	0	2	0
59	779	7	10000	2	1	0	2	0
60	780	7	10000	2	1	0	2	0
61	781	7	10000	2	1	0	2	0
62	782	7	10000	2	1	0	2	0
61	783	7	10000	2	1	0	2	0
58	784	7	10000	2	1	0	2	0
57	785	7	10000	2	1	0	2	0
57	786	7	10000	2	1	0	2	0
57	787	7	10000	2	1	0	2	0
56	788	7	10000	2	1	0	2	0
55	789	7	10000	2	1	0	2	0
54	790	7	10000	2	1	0	2	0
52	791	7	10000	2	1	0	2	0
53	792	7	10000	2	1	0	2	0
56	793	7	10000	2	1	0	2	0
58	794	7	10000	2	1	0	2	0
61	795	7	10000	2	1	0	2	0
61	796	7	10000	2	1	0	2	0
59	797	7	10000	2	1	0	2	0
58	798	7	10000	2	1	0	2	0
58	799	7	10000	2	1	0	2	0
58	800	7	10000	2	1	0	2	0
58	801	7	10000	2	1	0	2	0
58	802	7	10000	2	1	0	2	0
57	803	7	10000	2	1	0	2	0
59	804	7	10000	2	1	0	2	0
58	805	7	10000	2	1	0	2	0
59	806	7	10000	2	1	0	2	0
59	807	7	10000	2	1	0	2	0
66	808	7	10000	2	1	0	2	0
66	809	7	10000	2	1	0	2	0
67	810	7	10000	2	1	0	2	0
71	811	7	10000	2	1	0	2	0
74	812	7	10000	2	1	0	2	0
76	813	7	10000	2	1	0	2	0
78	814	7	10000	2	1	0	2	0
79	815	7	10000	2	1	0	2	0
75	816	7	10000	2	1	0	2	0
72	817	7	10000	2	1	0	2	0
69	818	7	10000	2	1	0	2	0
68	819	7	10000	2	1	0	2	0
66	820	7	10000	2	1	0	2	0
66	821	7	10000	2	1	0	2	0
66	822	7	10000	2	1	0	2	0
64	823	7	10000	2	1	0	2	0
61	824	7	10000	2	1	0	2	0
62	825	7	10000	2	1	0	2	0
65	826	7	10000	2	1	0	2	0
66	827	7	10000	2	1	0	2	0
64	828	7	10000	2	1	0	2	0
62	829	7	10000	2	1	0	2	0
62	830	7	10000	2	1	0	2	0
61	831	7	10000	2	1	0	2	0
59	832	7	10000	2	1	0	2	0
57	833	7	10000	2	1	0	2	0
57	834	7	10000	2	1	0	2	0
56	835	7	10000	2	1	0	2	0
54	836	7	10000	2	1	0	2	0
53	837	7	10000	2	1	0	2	0
51	838	7	10000	2	1	0	2	0
49	839	7	10000	2	1	0	2	0
49	840	7	10000	2	1	0	2	0
47	841	7	10000	2	1	0	2	0
46	842	7	10000	2	1	0	2	0
45	843	7	10000	2	1	0	2	0
46	844	7	10000	2	1	0	2	0
46	845	7	10000	2	1	0	2	0
50	846	7	10000	2	1	0	2	0
54	847	7	10000	2	1	0	2	0
55	848	7	10000	2	1	0	2	0
53	849	7	10000	2	1	0	2	0
52	850	7	10000	2	1	0	2	0
51	851	7	10000	2	1	0	2	0
50	852	7	10000	2	1	0	2	0
51	853	7	10000	2	1	0	2	0
56	854	7	10000	2	1	0	2	0
56	855	7	10000	2	1	0	2	0
55	856	7	10000	2	1	0	2	0
56	857	7	10000	2	1	0	2	0
59	858	7	10000	2	1	0	2	0
58	859	7	10000	2	1	0	2	0
57	860	7	10000	2	1	0	2	0
56	861	7	10000	2	1	0	2	0
55	862	7	10000	2	1	0	2	0
53	863	7	10000	2	1	0	2	0
52	864	7	10000	2	1	0	2	0
51	865	7	10000	2	1	0	2	0
50	866	7	10000	2	1	0	2	0
50	867	7	10000	2	1	0	2	0
47	868	7	10000	2	1	0	2	0
44	869	7	10000	2	1	0	2	0
44	870	7	10000	2	1	0	2	0
43	871	7	10000	2	1	0	2	0
43	872	7	10000	2	1	0	2	0
45	873	7	10000	2	1	0	2	0
47	874	7	10000	2	1	0	2	0
50	875	7	10000	2	1	0	2	0
50	876	7	10000	2	1	0	2	0
48	877	7	10000	2	1	0	2	0
49	878	7	10000	2	1	0	2	0
51	879	7	10000	2	1	0	2	0
50	880	7	10000	2	1	0	2	0
49	881	7	10000	2	1	0	2	0
49	882	7	10000	2	1	0	2	0
48	883	7	10000	2	1	0	2	0
46	884	7	10000	2	1	0	2	0
44	885	7	10000	2	1	0	2	0
44	886	7	10000	2	1	0	2	0
43	887	7	10000	2	1	0	2	0
43	888	7	10000	2	1	0	2	0
41	889	7	10000	2	1	0	2	0
41	890	7	10000	2	1	0	2	0
40	891	7	10000	2	1	0	2	0
38	892	7	10000	2	1	0	2	0
37	893	7	10000	2	1	0	2	0
37	894	7	10000	2	1	0	2	0
36	895	7	10000	2	1	0	2	0
37	896	7	10000	2	1	0	2	0
37	897	7	10000	2	1	0	2	0
35	898	7	10000	2	1	0	2	0
34	899	7	10000	2	1	0	2	0
33	900	7	10000	2	1	0	2	0
32	901	7	10000	2	1	0	2	0
33	902	7	10000	2	1	0	2	0
35	903	7	10000	2	1	0	2	0
34	904	7	10000	2	1	0	2	0
35	905	7	10000	2	1	0	2	0
36	906	7	10000	2	1	0	2	0
39	907	7	10000	2	1	0	2	0
41	908	7	10000	2	1	0	2	0
41	909	7	10000	2	1	0	2	0
40	910	7	10000	2	1	0	2	0
40	911	7	10000	2	1	0	2	0
40	912	7	10000	2	1	0	2	0
41	913	7	10000	2	1	0	2	0
42	914	7	10000	2	1	0	2	0
42	915	7	10000	2	1	0	2	0
41	916	7	10000	2	1	0	2	0
39	917	7	10000	2	1	0	2	0
39	918	7	10000	2	1	0	2	0
38	919	7	10000	2	1	0	2	0
37	920	7	10000	2	1	0	2	0
36	921	7	10000	2	1	0	2	0
35	922	7	10000	2	1	0	2	0
35	923	7	10000	2	1	0	2	0
37	924	7	10000	2	1	0	2	0
35	925	7	10000	2	1	0	2	0
39	926	7	10000	2	1	0	2	0
41	927	7	10000	2	1	0	2	0
42	928	7	10000	2	1	0	2	0
45	929	7	10000	2	1	0	2	0
45	930	7	10000	2	1	0	2	0
43	931	7	10000	2	1	0	2	0
42	932	7	10000	2	1	0	2	0
42	933	7	10000	2	1	0	2	0
42	934	7	10000	2	1	0	2	0
45	935	7	10000	2	1	0	2	0
44	936	7	10000	2	1	0	2	0
45	937	7	10000	2	1	0	2	0
46	938	7	10000	2	1	0	2	0
45	939	7	10000	2	1	0	2	0
47	940	7	10000	2	1	0	2	0
49	941	7	10000	2	1	0	2	0
50	942	7	10000	2	1	0	2	0
49	943	7	10000	2	1	0	2	0
47	944	7	10000	2	1	0	2	0
48	945	7	10000	2	1	0	2	0
49	946	7	10000	2	1	0	2	0
50	947	7	10000	2	1	0	2	0
52	948	7	10000	2	1	0	2	0
54	949	7	10000	2	1	0	2	0
54	950	7	10000	2	1	0	2	0
54	951	7	10000	2	1	0	2	0
52	952	7	10000	2	1	0	2	0
51	953	7	10000	2	1	0	2	0
51	954	7	10000	2	1	0	2	0
52	955	7	10000	2	1	0	2	0
50	956	7	10000	2	1	0	2	0
47	957	7	10000	2	1	0	2	0
46	958	7	10000	2	1	0	2	0
46	959	7	10000	2	1	0	2	0
44	960	7	10000	2	1	0	2	0
44	961	7	10000	2	1	0	2	0
44	962	7	10000	2	1	0	2	0
43	963	7	10000	2	1	0	2	0
42	964	7	10000	2	1	0	2	0
42	965	7	10000	2	1	0	2	0
43	966	7	10000	2	1	0	2	0
44	967	7	10000	2	1	0	2	0
43	968	7	10000	2	1	0	2	0
41	969	7	10000	2	1	0	2	0
40	970	7	10000	2	1	0	2	0
39	971	7	10000	2	1	0	2	0
38	972	7	10000	2	1	0	2	0
38	973	7	10000	2	1	0	2	0
39	974	7	10000	2	1	0	2	0
39	975	7	10000	2	1	0	2	0
39	976	7	10000	2	1	0	2	0
38	977	7	10000	2	1	0	2	0
37	978	7	10000	2	1	0	2	0
37	979	7	10000	2	1	0	2	0
40	980	7	10000	2	1	0	2	0
39	981	7	10000	2	1	0	2	0
37	982	7	10000	2	1	0	2	0
38	983	7	10000	2	1	0	2	0
37	984	7	10000	2	1	0	2	0
37	985	7	10000	2	1	0	2	0
41	986	7	10000	2	1	0	2	0
44	987	7	10000	2	1	0	2	0
44	988	7	10000	2	1	0	2	0
42	989	7	10000	2	1	0	2	0
40	990	7	10000	2	1	0	2	0
39	991	7	10000	2	1	0	2	0
40	992	7	10000	2	1	0	2	0
39	993	7	10000	2	1	0	2	0
39	994	7	10000	2	1	0	2	0
39	995	7	10000	2	1	0	2	0
38	996	7	10000	2	1	0	2	0
40	997	7	10000	2	1	0	2	0
42	998	7	10000	2	1	0	2	0
44	999	7	10000	2	1	0	2	0
44	1000	7	10000	2	1	0	2	0
33	1	0	10000	3	1	0	3	0
32	2	0	10000	3	1	0	3	0
32	3	0	10000	3	1	0	3	0
32	4	0	10000	3	1	0	3	0
31	5	0	10000	3	1	0	3	0
30	6	0	10000	3	1	0	3	0
30	7	0	10000	3	1	0	3	0
30	8	0	10000	3	1	0	3	0
29	9	0	10000	3	1	0	3	0
28	10	0	10000	3	1	0	3	0
28	11	0	10000	3	1	0	3	0
27	12	0	10000	3	1	0	3	0
27	13	0	10000	3	1	0	3	0
25	14	0	10000	3	1	0	3	0
26	15	0	10000	3	1	0	3	0
26	16	0	10000	3	1	0	3	0
26	17	0	10000	3	1	0	3	0
24	18	0	10000	3	1	0	3	0
23	19	0	10000	3	1	0	3	0
23	20	0	10000	3	1	0	3	0
25	21	0	10000	3	1	0	3	0
27	22	0	10000	3	1	0	3	0
27	23	0	10000	3	1	0	3	0
28	24	0	10000	3	1	0	3	0
27	25	0	10000	3	1	0	3	0
26	26	0	10000	3	1	0	3	0
28	27	0	10000	3	1	0	3	0
29	28	0	10000	3	1	0	3	0
29	29	0	10000	3	1	0	3	0
29	30	0	10000	3	1	0	3	0
29	31	0	10000	3	1	0	3	0
30	32	0	10000	3	1	0	3	0
29	33	0	10000	3	1	0	3	0
29	34	0	10000	3	1	0	3	0
31	35	0	10000	3	1	0	3	0
32	36	0	10000	3	1	0	3	0
32	37	0	10000	3	1	0	3	0
31	38	0	10000	3	1	0	3	0
31	39	0	10000	3	1	0	3	0
32	40	0	10000	3	1	0	3	0
31	41	0	10000	3	1	0	3	0
31	42	0	10000	3	1	0	3	0
32	43	0	10000	3	1	0	3	0
33	44	0	10000	3	1	0	3	0
34	45	0	10000	3	1	0	3	0
36	46	0	10000	3	1	0	3	0
38	47	0	10000	3	1	0	3	0
37	48	0	10000	3	1	0	3	0
36	49	0	10000	3	1	0	3	0
36	50	0	10000	3	1	0	3	0
36	51	0	10000	3	1	0	3	0
36	52	0	10000	3	1	0	3	0
37	53	0	10000	3	1	0	3	0
36	54	0	10000	3	1	0	3	0
36	55	0	10000	3	1	0	3	0
36	56	0	10000	3	1	0	3	0
34	57	0	10000	3	1	0	3	0
34	58	0	10000	3	1	0	3	0
32	59	0	10000	3	1	0	3	0
31	60	0	10000	3	1	0	3	0
31	61	0	10000	3	1	0	3	0
30	62	0	10000	3	1	0	3	0
30	63	0	10000	3	1	0	3	0
30	64	0	10000	3	1	0	3	0
28	65	0	10000	3	1	0	3	0
26	66	0	10000	3	1	0	3	0
26	67	0	10000	3	1	0	3	0
26	68	0	10000	3	1	0	3	0
25	69	0	10000	3	1	0	3	0
24	70	0	10000	3	1	0	3	0
24	71	0	10000	3	1	0	3	0
23	72	0	10000	3	1	0	3	0
23	73	0	10000	3	1	0	3	0
24	74	0	10000	3	1	0	3	0
25	75	0	10000	3	1	0	3	0
26	76	0	10000	3	1	0	3	0
27	77	0	10000	3	1	0	3	0
28	78	0	10000	3	1	0	3	0
27	79	0	10000	3	1	0	3	0
27	80	0	10000	3	1	0	3	0
26	81	0	10000	3	1	0	3	0
26	82	0	10000	3	1	0	3	0
26	83	0	10000	3	1	0	3	0
26	84	0	10000	3	1	0	3	0
25	85	0	10000	3	1	0	3	0
25	86	0	10000	3	1	0	3	0
25	87	0	10000	3	1	0	3	0
24	88	0	10000	3	1	0	3	0
23	89	0	10000	3	1	0	3	0
24	90	0	10000	3	1	0	3	0
24	91	0	10000	3	1	0	3	0
23	92	0	10000	3	1	0	3	0
23	93	0	10000	3	1	0	3	0
21	94	0	10000	3	1	0	3	0
22	95	0	10000	3	1	0	3	0
22	96	0	10000	3	1	0	3	0
21	97	0	10000	3	1	0	3	0
21	98	0	10000	3	1	0	3	0
20	99	0	10000	3	1	0	3	0
20	100	0	10000	3	1	0	3	0
20	101	0	10000	3	1	0	3	0
21	102	0	10000	3	1	0	3	0
22	103	0	10000	3	1	0	3	0
22	104	0	10000	3	1	0	3	0
20	105	0	10000	3	1	0	3	0
20	106	0	10000	3	1	0	3	0
22	107	0	10000	3	1	0	3	0
22	108	0	10000	3	1	0	3	0
22	109	0	10000	3	1	0	3	0
21	110	0	10000	3	1	0	3	0
21	111	0	10000	3	1	0	3	0
21	112	0	10000	3	1	0	3	0
19	113	0	10000	3	1	0	3	0
20	114	0	10000	3	1	0	3	0
26	115	0	10000	3	1	0	3	0
31	116	0	10000	3	1	0	3	0
32	117	0	10000	3	1	0	3	0
35	118	0	10000	3	1	0	3	0
35	119	0	10000	3	1	0	3	0
33	120	0	10000	3	1	0	3	0
32	121	0	10000	3	1	0	3	0
31	122	0	10000	3	1	0	3	0
33	123	0	10000	3	1	0	3	0
35	124	0	10000	3	1	0	3	0
36	125	0	10000	3	1	0	3	0
38	126	0	10000	3	1	0	3	0
41	127	0	10000	3	1	0	3	0
40	128	0	10000	3	1	0	3	0
40	129	0	10000	3	1	0	3	0
39	130	0	10000	3	1	0	3	0
39	131	0	10000	3	1	0	3	0
43	132	0	10000	3	1	0	3	0
42	133	0	10000	3	1	0	3	0
40	134	0	10000	3	1	0	3	0
39	135	0	10000	3	1	0	3	0
39	136	0	10000	3	1	0	3	0
38	137	0	10000	3	1	0	3	0
36	138	0	10000	3	1	0	3	0
37	139	0	10000	3	1	0	3	0
36	140	0	10000	3	1	0	3	0
35	141	0	10000	3	1	0	3	0
35	142	0	10000	3	1	0	3	0
37	143	0	10000	3	1	0	3	0
38	144	0	10000	3	1	0	3	0
37	145	0	10000	3	1	0	3	0
37	146	0	10000	3	1	0	3	0
40	147	0	10000	3	1	0	3	0
42	148	0	10000	3	1	0	3	0
43	149	0	10000	3	1	0	3	0
43	150	0	10000	3	1	0	3	0
45	151	0	10000	3	1	0	3	0
45	152	0	10000	3	1	0	3	0
45	153	0	10000	3	1	0	3	0
44	154	0	10000	3	1	0	3	0
44	155	0	10000	3	1	0	3	0
44	156	0	10000	3	1	0	3	0
43	157	0	10000	3	1	0	3	0
44	158	0	10000	3	1	0	3	0
46	159	0	10000	3	1	0	3	0
46	160	0	10000	3	1	0	3	0
45	161	0	10000	3	1	0	3	0
45	162	0	10000	3	1	0	3	0
45	163	0	10000	3	1	0	3	0
45	164	0	10000	3	1	0	3	0
44	165	0	10000	3	1	0	3	0
41	166	0	10000	3	1	0	3	0
41	167	0	10000	3	1	0	3	0
39	168	0	10000	3	1	0	3	0
39	169	0	10000	3	1	0	3	0
40	170	0	10000	3	1	0	3	0
41	171	0	10000	3	1	0	3	0
41	172	0	10000	3	1	0	3	0
42	173	0	10000	3	1	0	3	0
42	174	0	10000	3	1	0	3	0
41	175	0	10000	3	1	0	3	0
41	176	0	10000	3	1	0	3	0
39	177	0	10000	3	1	0	3	0
37	178	0	10000	3	1	0	3	0
36	179	0	10000	3	1	0	3	0
35	180	0	10000	3	1	0	3	0
33	181	0	10000	3	1	0	3	0
32	182	0	10000	3	1	0	3	0
32	183	0	10000	3	1	0	3	0
31	184	0	10000	3	1	0	3	0
29	185	0	10000	3	1	0	3	0
29	186	0	10000	3	1	0	3	0
28	187	0	10000	3	1	0	3	0
29	188	0	10000	3	1	0	3	0
30	189	0	10000	3	1	0	3	0
30	190	0	10000	3	1	0	3	0
30	191	0	10000	3	1	0	3	0
31	192	0	10000	3	1	0	3	0
31	193	0	10000	3	1	0	3	0
30	194	0	10000	3	1	0	3	0
32	195	0	10000	3	1	0	3	0
32	196	0	10000	3	1	0	3	0
33	197	0	10000	3	1	0	3	0
37	198	0	10000	3	1	0	3	0
35	199	0	10000	3	1	0	3	0
36	200	0	10000	3	1	0	3	0
36	201	0	10000	3	1	0	3	0
35	202	0	10000	3	1	0	3	0
34	203	0	10000	3	1	0	3	0
34	204	0	10000	3	1	0	3	0
34	205	0	10000	3	1	0	3	0
32	206	0	10000	3	1	0	3	0
33	207	0	10000	3	1	0	3	0
32	208	0	10000	3	1	0	3	0
32	209	0	10000	3	1	0	3	0
31	210	0	10000	3	1	0	3	0
30	211	0	10000	3	1	0	3	0
28	212	0	10000	3	1	0	3	0
28	213	0	10000	3	1	0	3	0
27	214	0	10000	3	1	0	3	0
27	215	0	10000	3	1	0	3	0
28	216	0	10000	3	1	0	3	0
27	217	0	10000	3	1	0	3	0
27	218	0	10000	3	1	0	3	0
26	219	0	10000	3	1	0	3	0
26	220	0	10000	3	1	0	3	0
26	221	0	10000	3	1	0	3	0
25	222	0	10000	3	1	0	3	0
26	223	0	10000	3	1	0	3	0
27	224	0	10000	3	1	0	3	0
26	225	0	10000	3	1	0	3	0
24	226	0	10000	3	1	0	3	0
24	227	0	10000	3	1	0	3	0
24	228	0	10000	3	1	0	3	0
24	229	0	10000	3	1	0	3	0
24	230	0	10000	3	1	0	3	0
23	231	0	10000	3	1	0	3	0
22	232	0	10000	3	1	0	3	0
21	233	0	10000	3	1	0	3	0
21	234	0	10000	3	1	0	3	0
22	235	0	10000	3	1	0	3	0
22	236	0	10000	3	1	0	3	0
22	237	0	10000	3	1	0	3	0
21	238	0	10000	3	1	0	3	0
22	239	0	10000	3	1	0	3	0
24	240	0	10000	3	1	0	3	0
25	241	0	10000	3	1	0	3	0
25	242	0	10000	3	1	0	3	0
25	243	0	10000	3	1	0	3	0
25	244	0	10000	3	1	0	3	0
23	245	0	10000	3	1	0	3	0
21	246	0	10000	3	1	0	3	0
21	247	0	10000	3	1	0	3	0
20	248	0	10000	3	1	0	3	0
21	249	0	10000	3	1	0	3	0
22	250	0	10000	3	1	0	3	0
22	251	0	10000	3	1	0	3	0
22	252	0	10000	3	1	0	3	0
21	253	0	10000	3	1	0	3	0
20	254	0	10000	3	1	0	3	0
22	255	0	10000	3	1	0	3	0
23	256	0	10000	3	1	0	3	0
23	257	0	10000	3	1	0	3	0
23	258	0	10000	3	1	0	3	0
23	259	0	10000	3	1	0	3	0
22	260	0	10000	3	1	0	3	0
22	261	0	10000	3	1	0	3	0
21	262	0	10000	3	1	0	3	0
21	263	0	10000	3	1	0	3	0
22	264	0	10000	3	1	0	3	0
21	265	0	10000	3	1	0	3	0
20	266	0	10000	3	1	0	3	0
20	267	0	10000	3	1	0	3	0
20	268	0	10000	3	1	0	3	0
20	269	0	10000	3	1	0	3	0
19	270	0	10000	3	1	0	3	0
20	271	0	10000	3	1	0	3	0
22	272	0	10000	3	1	0	3	0
22	273	0	10000	3	1	0	3	0
21	274	0	10000	3	1	0	3	0
21	275	0	10000	3	1	0	3	0
22	276	0	10000	3	1	0	3	0
20	277	0	10000	3	1	0	3	0
21	278	0	10000	3	1	0	3	0
20	279	0	10000	3	1	0	3	0
20	280	0	10000	3	1	0	3	0
21	281	0	10000	3	1	0	3	0
20	282	0	10000	3	1	0	3	0
21	283	0	10000	3	1	0	3	0
24	284	0	10000	3	1	0	3	0
23	285	0	10000	3	1	0	3	0
22	286	0	10000	3	1	0	3	0
24	287	0	10000	3	1	0	3	0
23	288	0	10000	3	1	0	3	0
23	289	0	10000	3	1	0	3	0
24	290	0	10000	3	1	0	3	0
23	291	0	10000	3	1	0	3	0
24	292	0	10000	3	1	0	3	0
26	293	0	10000	3	1	0	3	0
25	294	0	10000	3	1	0	3	0
24	295	0	10000	3	1	0	3	0
26	296	0	10000	3	1	0	3	0
25	297	0	10000	3	1	0	3	0
26	298	0	10000	3	1	0	3	0
25	299	0	10000	3	1	0	3	0
25	300	0	10000	3	1	0	3	0
24	301	0	10000	3	1	0	3	0
25	302	0	10000	3	1	0	3	0
26	303	0	10000	3	1	0	3	0
27	304	0	10000	3	1	0	3	0
28	305	0	10000	3	1	0	3	0
27	306	0	10000	3	1	0	3	0
28	307	0	10000	3	1	0	3	0
28	308	0	10000	3	1	0	3	0
28	309	0	10000	3	1	0	3	0
29	310	0	10000	3	1	0	3	0
30	311	0	10000	3	1	0	3	0
29	312	0	10000	3	1	0	3	0
29	313	0	10000	3	1	0	3	0
28	314	0	10000	3	1	0	3	0
28	315	0	10000	3	1	0	3	0
29	316	0	10000	3	1	0	3	0
29	317	0	10000	3	1	0	3	0
30	318	0	10000	3	1	0	3	0
30	319	0	10000	3	1	0	3	0
31	320	0	10000	3	1	0	3	0
30	321	0	10000	3	1	0	3	0
31	322	0	10000	3	1	0	3	0
32	323	0	10000	3	1	0	3	0
31	324	0	10000	3	1	0	3	0
29	325	0	10000	3	1	0	3	0
28	326	0	10000	3	1	0	3	0
27	327	0	10000	3	1	0	3	0
27	328	0	10000	3	1	0	3	0
26	329	0	10000	3	1	0	3	0
25	330	0	10000	3	1	0	3	0
24	331	0	10000	3	1	0	3	0
25	332	0	10000	3	1	0	3	0
24	333	0	10000	3	1	0	3	0
23	334	0	10000	3	1	0	3	0
24	335	0	10000	3	1	0	3	0
25	336	0	10000	3	1	0	3	0
24	337	0	10000	3	1	0	3	0
25	338	0	10000	3	1	0	3	0
26	339	0	10000	3	1	0	3	0
26	340	0	10000	3	1	0	3	0
27	341	0	10000	3	1	0	3	0
29	342	0	10000	3	1	0	3	0
30	343	0	10000	3	1	0	3	0
31	344	0	10000	3	1	0	3	0
29	345	0	10000	3	1	0	3	0
27	346	0	10000	3	1	0	3	0
27	347	0	10000	3	1	0	3	0
28	348	0	10000	3	1	0	3	0
27	349	0	10000	3	1	0	3	0
26	350	0	10000	3	1	0	3	0
25	351	0	10000	3	1	0	3	0
25	352	0	10000	3	1	0	3	0
26	353	0	10000	3	1	0	3	0
26	354	0	10000	3	1	0	3	0
28	355	0	10000	3	1	0	3	0
28	356	0	10000	3	1	0	3	0
28	357	0	10000	3	1	0	3	0
31	358	0	10000	3	1	0	3	0
31	359	0	10000	3	1	0	3	0
31	360	0	10000	3	1	0	3	0
30	361	0	10000	3	1	0	3	0
31	362	0	10000	3	1	0	3	0
31	363	0	10000	3	1	0	3	0
33	364	0	10000	3	1	0	3	0
32	365	0	10000	3	1	0	3	0
31	366	0	10000	3	1	0	3	0
32	367	0	10000	3	1	0	3	0
31	368	0	10000	3	1	0	3	0
32	369	0	10000	3	1	0	3	0
33	370	0	10000	3	1	0	3	0
33	371	0	10000	3	1	0	3	0
33	372	0	10000	3	1	0	3	0
33	373	0	10000	3	1	0	3	0
31	374	0	10000	3	1	0	3	0
33	375	0	10000	3	1	0	3	0
33	376	0	10000	3	1	0	3	0
33	377	0	10000	3	1	0	3	0
32	378	0	10000	3	1	0	3	0
34	379	0	10000	3	1	0	3	0
34	380	0	10000	3	1	0	3	0
35	381	0	10000	3	1	0	3	0
36	382	0	10000	3	1	0	3	0
39	383	0	10000	3	1	0	3	0
38	384	0	10000	3	1	0	3	0
35	385	0	10000	3	1	0	3	0
32	386	0	10000	3	1	0	3	0
32	387	0	10000	3	1	0	3	0
33	388	0	10000	3	1	0	3	0
33	389	0	10000	3	1	0	3	0
32	390	0	10000	3	1	0	3	0
32	391	0	10000	3	1	0	3	0
33	392	0	10000	3	1	0	3	0
32	393	0	10000	3	1	0	3	0
32	394	0	10000	3	1	0	3	0
31	395	0	10000	3	1	0	3	0
32	396	0	10000	3	1	0	3	0
30	397	0	10000	3	1	0	3	0
31	398	0	10000	3	1	0	3	0
31	399	0	10000	3	1	0	3	0
32	400	0	10000	3	1	0	3	0
31	401	0	10000	3	1	0	3	0
31	402	0	10000	3	1	0	3	0
31	403	0	10000	3	1	0	3	0
31	404	0	10000	3	1	0	3	0
30	405	0	10000	3	1	0	3	0
29	406	0	10000	3	1	0	3	0
28	407	0	10000	3	1	0	3	0
29	408	0	10000	3	1	0	3	0
31	409	0	10000	3	1	0	3	0
31	410	0	10000	3	1	0	3	0
30	411	0	10000	3	1	0	3	0
31	412	0	10000	3	1	0	3	0
31	413	0	10000	3	1	0	3	0
30	414	0	10000	3	1	0	3	0
31	415	0	10000	3	1	0	3	0
33	416	0	10000	3	1	0	3	0
35	417	0	10000	3	1	0	3	0
36	418	0	10000	3	1	0	3	0
37	419	0	10000	3	1	0	3	0
36	420	0	10000	3	1	0	3	0
34	421	0	10000	3	1	0	3	0
33	422	0	10000	3	1	0	3	0
34	423	0	10000	3	1	0	3	0
36	424	0	10000	3	1	0	3	0
34	425	0	10000	3	1	0	3	0
35	426	0	10000	3	1	0	3	0
36	427	0	10000	3	1	0	3	0
37	428	0	10000	3	1	0	3	0
36	429	0	10000	3	1	0	3	0
35	430	0	10000	3	1	0	3	0
35	430	0	10000	3	1	0	3	0
35	431	0	10000	3	1	0	3	0
33	433	0	10000	3	1	0	3	0
31	434	0	10000	3	1	0	3	0
32	435	0	10000	3	1	0	3	0
32	436	0	10000	3	1	0	3	0
31	437	0	10000	3	1	0	3	0
32	438	0	10000	3	1	0	3	0
31	439	0	10000	3	1	0	3	0
31	440	0	10000	3	1	0	3	0
31	440	0	10000	3	1	0	3	0
30	441	0	10000	3	1	0	3	0
30	443	0	10000	3	1	0	3	0
30	444	0	10000	3	1	0	3	0
29	445	0	10000	3	1	0	3	0
29	446	0	10000	3	1	0	3	0
31	447	0	10000	3	1	0	3	0
29	448	0	10000	3	1	0	3	0
29	449	0	10000	3	1	0	3	0
29	450	0	10000	3	1	0	3	0
29	450	0	10000	3	1	0	3	0
29	451	0	10000	3	1	0	3	0
28	453	0	10000	3	1	0	3	0
26	454	0	10000	3	1	0	3	0
27	455	0	10000	3	1	0	3	0
29	456	0	10000	3	1	0	3	0
27	457	0	10000	3	1	0	3	0
27	458	0	10000	3	1	0	3	0
27	459	0	10000	3	1	0	3	0
27	460	0	10000	3	1	0	3	0
26	460	0	10000	3	1	0	3	0
27	461	0	10000	3	1	0	3	0
27	463	0	10000	3	1	0	3	0
27	464	0	10000	3	1	0	3	0
27	465	0	10000	3	1	0	3	0
25	466	0	10000	3	1	0	3	0
24	467	0	10000	3	1	0	3	0
25	468	0	10000	3	1	0	3	0
25	469	0	10000	3	1	0	3	0
24	470	0	10000	3	1	0	3	0
26	470	0	10000	3	1	0	3	0
28	471	0	10000	3	1	0	3	0
26	473	0	10000	3	1	0	3	0
25	474	0	10000	3	1	0	3	0
25	475	0	10000	3	1	0	3	0
25	476	0	10000	3	1	0	3	0
25	477	0	10000	3	1	0	3	0
24	478	0	10000	3	1	0	3	0
23	479	0	10000	3	1	0	3	0
23	480	0	10000	3	1	0	3	0
24	480	0	10000	3	1	0	3	0
24	481	0	10000	3	1	0	3	0
24	483	0	10000	3	1	0	3	0
24	484	0	10000	3	1	0	3	0
23	485	0	10000	3	1	0	3	0
22	486	0	10000	3	1	0	3	0
22	487	0	10000	3	1	0	3	0
21	488	0	10000	3	1	0	3	0
22	489	0	10000	3	1	0	3	0
22	490	0	10000	3	1	0	3	0
24	490	0	10000	3	1	0	3	0
24	491	0	10000	3	1	0	3	0
25	493	0	10000	3	1	0	3	0
27	494	0	10000	3	1	0	3	0
28	495	0	10000	3	1	0	3	0
29	496	0	10000	3	1	0	3	0
27	497	0	10000	3	1	0	3	0
27	498	0	10000	3	1	0	3	0
28	499	0	10000	3	1	0	3	0
28	500	0	10000	3	1	0	3	0
28	500	0	10000	3	1	0	3	0
28	501	0	10000	3	1	0	3	0
27	503	0	10000	3	1	0	3	1
28	504	0	10000	3	1	0	3	1
28	505	0	10000	3	1	0	3	1
26	506	0	10000	3	1	0	3	1
26	507	0	10000	3	1	0	3	1
27	508	0	10000	3	1	0	3	1
27	509	0	10000	3	1	0	3	1
28	510	0	10000	3	1	0	3	1
28	510	0	10000	3	1	0	3	1
30	511	0	10000	3	1	0	3	1
29	513	0	10000	3	1	0	3	1
31	514	0	10000	3	1	0	3	1
33	515	0	10000	3	1	0	3	1
33	516	0	10000	3	1	0	3	1
32	517	0	10000	3	1	0	3	1
32	518	0	10000	3	1	0	3	1
30	519	0	10000	3	1	0	3	1
31	520	0	10000	3	1	0	3	1
31	520	0	10000	3	1	0	3	1
30	521	0	10000	3	1	0	3	1
30	523	0	10000	3	1	0	3	1
30	524	0	10000	3	1	0	3	1
28	525	0	10000	3	1	0	3	1
26	526	0	10000	3	1	0	3	1
25	527	0	10000	3	1	0	3	1
24	528	0	10000	3	1	0	3	1
23	529	0	10000	3	1	0	3	1
24	530	0	10000	3	1	0	3	1
23	530	0	10000	3	1	0	3	1
22	531	0	10000	3	1	0	3	1
22	533	0	10000	3	1	0	3	1
21	534	0	10000	3	1	0	3	1
21	535	0	10000	3	1	0	3	1
23	536	0	10000	3	1	0	3	1
22	537	0	10000	3	1	0	3	1
22	538	0	10000	3	1	0	3	1
23	539	0	10000	3	1	0	3	1
22	540	0	10000	3	1	0	3	1
21	540	0	10000	3	1	0	3	1
21	541	0	10000	3	1	0	3	1
21	543	0	10000	3	1	0	3	1
21	544	0	10000	3	1	0	3	1
20	545	0	10000	3	1	0	3	1
18	546	0	10000	3	1	0	3	1
20	547	0	10000	3	1	0	3	1
20	548	0	10000	3	1	0	3	1
20	549	0	10000	3	1	0	3	1
20	550	0	10000	3	1	0	3	1
20	550	0	10000	3	1	0	3	1
19	551	0	10000	3	1	0	3	1
19	553	0	10000	3	1	0	3	0
20	554	0	10000	3	1	0	3	0
20	555	0	10000	3	1	0	3	0
22	556	0	10000	3	1	0	3	0
22	557	0	10000	3	1	0	3	0
22	558	0	10000	3	1	0	3	0
21	559	0	10000	3	1	0	3	0
21	560	0	10000	3	1	0	3	0
20	560	0	10000	3	1	0	3	0
19	561	0	10000	3	1	0	3	0
19	563	0	10000	3	1	0	3	0
18	564	0	10000	3	1	0	3	0
18	565	0	10000	3	1	0	3	0
17	566	0	10000	3	1	0	3	0
18	567	0	10000	3	1	0	3	0
18	568	0	10000	3	1	0	3	0
19	569	0	10000	3	1	0	3	0
19	570	0	10000	3	1	0	3	0
20	570	0	10000	3	1	0	3	0
20	571	0	10000	3	1	0	3	0
20	573	0	10000	3	1	0	3	0
20	574	0	10000	3	1	0	3	0
20	575	0	10000	3	1	0	3	0
21	576	0	10000	3	1	0	3	0
21	577	0	10000	3	1	0	3	0
22	578	0	10000	3	1	0	3	0
24	579	0	10000	3	1	0	3	0
25	580	0	10000	3	1	0	3	0
29	580	0	10000	3	1	0	3	0
36	581	0	10000	3	1	0	3	0
46	583	0	10000	3	1	0	3	0
52	584	0	10000	3	1	0	3	0
53	585	0	10000	3	1	0	3	0
51	586	0	10000	3	1	0	3	0
51	587	0	10000	3	1	0	3	0
56	588	0	10000	3	1	0	3	0
62	589	0	10000	3	1	0	3	0
71	590	0	10000	3	1	0	3	0
80	590	0	10000	3	1	0	3	0
81	591	0	10000	3	1	0	3	0
86	593	0	10000	3	1	0	3	0
102	594	0	10000	3	1	0	3	0
121	595	0	10000	3	1	0	3	0
134	596	0	10000	3	1	0	3	0
135	597	0	10000	3	1	0	3	0
131	598	0	10000	3	1	0	3	0
132	599	0	10000	3	1	0	3	0
135	600	0	10000	3	1	0	3	0
133	600	0	10000	3	1	0	3	0
144	601	0	10000	3	1	0	3	0
164	603	0	10000	3	1	0	3	0
182	604	0	10000	3	1	0	3	0
180	605	0	10000	3	1	0	3	0
194	606	0	10000	3	1	0	3	0
225	607	0	10000	3	1	0	3	0
244	608	0	10000	3	1	0	3	0
246	609	0	10000	3	1	0	3	0
269	610	0	10000	3	1	0	3	0
271	610	0	10000	3	1	0	3	0
261	611	0	10000	3	1	0	3	0
260	613	0	10000	3	1	0	3	0
255	614	0	10000	3	1	0	3	0
246	615	0	10000	3	1	0	3	0
240	616	0	10000	3	1	0	3	0
232	617	0	10000	3	1	0	3	0
230	618	0	10000	3	1	0	3	0
229	619	0	10000	3	1	0	3	0
225	620	0	10000	3	1	0	3	0
218	620	0	10000	3	1	0	3	0
208	621	0	10000	3	1	0	3	0
199	623	0	10000	3	1	0	3	0
191	624	0	10000	3	1	0	3	0
184	625	0	10000	3	1	0	3	0
177	626	0	10000	3	1	0	3	0
173	627	0	10000	3	1	0	3	0
168	628	0	10000	3	1	0	3	0
164	629	0	10000	3	1	0	3	0
158	630	0	10000	3	1	0	3	0
151	630	0	10000	3	1	0	3	0
146	631	0	10000	3	1	0	3	0
141	633	0	10000	3	1	0	3	0
136	634	0	10000	3	1	0	3	0
132	635	0	10000	3	1	0	3	0
128	636	0	10000	3	1	0	3	0
122	637	0	10000	3	1	0	3	0
118	638	0	10000	3	1	0	3	0
116	639	0	10000	3	1	0	3	0
114	640	0	10000	3	1	0	3	0
109	640	0	10000	3	1	0	3	0
106	641	0	10000	3	1	0	3	0
107	643	0	10000	3	1	0	3	0
107	644	0	10000	3	1	0	3	0
105	645	0	10000	3	1	0	3	0
100	646	0	10000	3	1	0	3	0
100	647	0	10000	3	1	0	3	0
100	648	0	10000	3	1	0	3	0
102	649	0	10000	3	1	0	3	0
103	650	0	10000	3	1	0	3	0
104	650	0	10000	3	1	0	3	0
104	651	0	10000	3	1	0	3	0
104	653	0	10000	3	1	0	3	0
102	654	0	10000	3	1	0	3	0
102	655	0	10000	3	1	0	3	0
104	656	0	10000	3	1	0	3	0
104	657	0	10000	3	1	0	3	0
100	658	0	10000	3	1	0	3	0
97	659	0	10000	3	1	0	3	0
94	660	0	10000	3	1	0	3	0
92	660	0	10000	3	1	0	3	0
89	661	0	10000	3	1	0	3	0
88	663	0	10000	3	1	0	3	0
89	664	0	10000	3	1	0	3	0
88	665	0	10000	3	1	0	3	0
86	666	0	10000	3	1	0	3	0
84	667	0	10000	3	1	0	3	0
82	668	0	10000	3	1	0	3	0
81	669	0	10000	3	1	0	3	0
79	670	0	10000	3	1	0	3	0
77	670	0	10000	3	1	0	3	0
74	671	0	10000	3	1	0	3	0
71	673	0	10000	3	1	0	3	0
68	674	0	10000	3	1	0	3	0
66	675	0	10000	3	1	0	3	0
66	676	0	10000	3	1	0	3	0
65	677	0	10000	3	1	0	3	0
65	678	0	10000	3	1	0	3	0
64	679	0	10000	3	1	0	3	0
62	680	0	10000	3	1	0	3	0
60	680	0	10000	3	1	0	3	0
57	681	0	10000	3	1	0	3	0
55	683	0	10000	3	1	0	3	0
54	684	0	10000	3	1	0	3	0
54	685	0	10000	3	1	0	3	0
56	686	0	10000	3	1	0	3	0
57	687	0	10000	3	1	0	3	0
55	688	0	10000	3	1	0	3	0
56	689	0	10000	3	1	0	3	0
58	690	0	10000	3	1	0	3	0
58	690	0	10000	3	1	0	3	0
57	691	0	10000	3	1	0	3	0
56	693	0	10000	3	1	0	3	0
53	694	0	10000	3	1	0	3	0
54	695	0	10000	3	1	0	3	0
57	696	0	10000	3	1	0	3	0
54	697	0	10000	3	1	0	3	0
53	698	0	10000	3	1	0	3	0
50	699	0	10000	3	1	0	3	0
49	700	0	10000	3	1	0	3	0
48	700	0	10000	3	1	0	3	0
48	701	0	10000	3	1	0	3	0
49	703	0	10000	3	1	0	3	0
49	704	0	10000	3	1	0	3	0
47	705	0	10000	3	1	0	3	0
44	706	0	10000	3	1	0	3	0
44	707	0	10000	3	1	0	3	0
47	708	0	10000	3	1	0	3	0
54	709	0	10000	3	1	0	3	0
56	710	0	10000	3	1	0	3	0
57	710	0	10000	3	1	0	3	0
55	711	0	10000	3	1	0	3	0
53	713	0	10000	3	1	0	3	0
49	714	0	10000	3	1	0	3	0
51	715	0	10000	3	1	0	3	0
54	716	0	10000	3	1	0	3	0
57	717	0	10000	3	1	0	3	0
56	718	0	10000	3	1	0	3	0
54	719	0	10000	3	1	0	3	0
54	720	0	10000	3	1	0	3	0
52	720	0	10000	3	1	0	3	0
55	721	0	10000	3	1	0	3	0
57	723	0	10000	3	1	0	3	0
57	724	0	10000	3	1	0	3	0
60	725	0	10000	3	1	0	3	0
60	726	0	10000	3	1	0	3	0
59	727	0	10000	3	1	0	3	0
58	728	0	10000	3	1	0	3	0
57	729	0	10000	3	1	0	3	0
55	730	0	10000	3	1	0	3	0
53	730	0	10000	3	1	0	3	0
52	731	0	10000	3	1	0	3	0
51	733	0	10000	3	1	0	3	0
50	734	0	10000	3	1	0	3	0
50	735	0	10000	3	1	0	3	0
49	736	0	10000	3	1	0	3	0
48	737	0	10000	3	1	0	3	0
47	738	0	10000	3	1	0	3	0
46	739	0	10000	3	1	0	3	0
44	740	0	10000	3	1	0	3	0
45	740	0	10000	3	1	0	3	0
51	741	0	10000	3	1	0	3	0
59	743	0	10000	3	1	0	3	0
61	744	0	10000	3	1	0	3	0
63	745	0	10000	3	1	0	3	0
67	746	0	10000	3	1	0	3	0
70	747	0	10000	3	1	0	3	0
69	748	0	10000	3	1	0	3	0
67	749	0	10000	3	1	0	3	0
66	750	0	10000	3	1	0	3	0
64	750	0	10000	3	1	0	3	0
62	751	0	10000	3	1	0	3	0
60	753	0	10000	3	1	0	3	0
59	754	0	10000	3	1	0	3	0
59	755	0	10000	3	1	0	3	0
58	756	0	10000	3	1	0	3	0
55	757	0	10000	3	1	0	3	0
54	758	0	10000	3	1	0	3	0
53	759	0	10000	3	1	0	3	0
51	760	0	10000	3	1	0	3	0
51	760	0	10000	3	1	0	3	0
49	761	0	10000	3	1	0	3	0
51	763	0	10000	3	1	0	3	0
52	764	0	10000	3	1	0	3	0
50	765	0	10000	3	1	0	3	0
47	766	0	10000	3	1	0	3	0
47	767	0	10000	3	1	0	3	0
46	768	0	10000	3	1	0	3	0
45	769	0	10000	3	1	0	3	0
46	770	0	10000	3	1	0	3	0
44	770	0	10000	3	1	0	3	0
42	771	0	10000	3	1	0	3	0
41	773	0	10000	3	1	0	3	0
38	774	0	10000	3	1	0	3	0
38	775	0	10000	3	1	0	3	0
41	776	0	10000	3	1	0	3	0
39	777	0	10000	3	1	0	3	0
38	778	0	10000	3	1	0	3	0
38	779	0	10000	3	1	0	3	0
37	780	0	10000	3	1	0	3	0
36	780	0	10000	3	1	0	3	0
37	781	0	10000	3	1	0	3	0
40	783	0	10000	3	1	0	3	0
40	784	0	10000	3	1	0	3	0
39	785	0	10000	3	1	0	3	0
36	786	0	10000	3	1	0	3	0
34	787	0	10000	3	1	0	3	0
33	788	0	10000	3	1	0	3	0
33	789	0	10000	3	1	0	3	0
34	790	0	10000	3	1	0	3	0
34	790	0	10000	3	1	0	3	0
32	791	0	10000	3	1	0	3	0
31	793	0	10000	3	1	0	3	0
30	794	0	10000	3	1	0	3	0
29	795	0	10000	3	1	0	3	0
30	796	0	10000	3	1	0	3	0
29	797	0	10000	3	1	0	3	0
28	798	0	10000	3	1	0	3	0
27	799	0	10000	3	1	0	3	0
27	800	0	10000	3	1	0	3	0
28	800	0	10000	3	1	0	3	0
29	801	0	10000	3	1	0	3	0
29	803	0	10000	3	1	0	3	0
29	804	0	10000	3	1	0	3	0
28	805	0	10000	3	1	0	3	0
28	806	0	10000	3	1	0	3	0
27	807	0	10000	3	1	0	3	0
26	808	0	10000	3	1	0	3	0
27	809	0	10000	3	1	0	3	0
27	810	0	10000	3	1	0	3	0
28	810	0	10000	3	1	0	3	0
28	811	0	10000	3	1	0	3	0
28	813	0	10000	3	1	0	3	0
27	814	0	10000	3	1	0	3	0
27	815	0	10000	3	1	0	3	0
28	816	0	10000	3	1	0	3	0
27	817	0	10000	3	1	0	3	0
26	818	0	10000	3	1	0	3	0
26	819	0	10000	3	1	0	3	0
28	820	0	10000	3	1	0	3	0
28	820	0	10000	3	1	0	3	0
30	821	0	10000	3	1	0	3	0
30	823	0	10000	3	1	0	3	0
29	824	0	10000	3	1	0	3	0
28	825	0	10000	3	1	0	3	0
25	826	0	10000	3	1	0	3	0
27	827	0	10000	3	1	0	3	0
29	828	0	10000	3	1	0	3	0
29	829	0	10000	3	1	0	3	0
31	830	0	10000	3	1	0	3	0
31	830	0	10000	3	1	0	3	0
30	831	0	10000	3	1	0	3	0
31	833	0	10000	3	1	0	3	0
29	834	0	10000	3	1	0	3	0
29	835	0	10000	3	1	0	3	0
30	836	0	10000	3	1	0	3	0
30	837	0	10000	3	1	0	3	0
30	838	0	10000	3	1	0	3	0
30	839	0	10000	3	1	0	3	0
29	840	0	10000	3	1	0	3	0
29	840	0	10000	3	1	0	3	0
28	841	0	10000	3	1	0	3	0
28	843	0	10000	3	1	0	3	0
29	844	0	10000	3	1	0	3	0
28	845	0	10000	3	1	0	3	0
26	846	0	10000	3	1	0	3	0
26	847	0	10000	3	1	0	3	0
26	848	0	10000	3	1	0	3	0
28	849	0	10000	3	1	0	3	0
30	850	0	10000	3	1	0	3	0
31	850	0	10000	3	1	0	3	0
31	851	0	10000	3	1	0	3	0
30	853	0	10000	3	1	0	3	0
28	854	0	10000	3	1	0	3	0
31	855	0	10000	3	1	0	3	0
33	856	0	10000	3	1	0	3	0
32	857	0	10000	3	1	0	3	0
32	858	0	10000	3	1	0	3	0
30	859	0	10000	3	1	0	3	0
31	860	0	10000	3	1	0	3	0
31	860	0	10000	3	1	0	3	0
32	861	0	10000	3	1	0	3	0
33	863	0	10000	3	1	0	3	0
34	864	0	10000	3	1	0	3	0
33	865	0	10000	3	1	0	3	0
30	866	0	10000	3	1	0	3	0
31	867	0	10000	3	1	0	3	0
30	868	0	10000	3	1	0	3	0
31	869	0	10000	3	1	0	3	0
31	870	0	10000	3	1	0	3	0
31	870	0	10000	3	1	0	3	0
30	871	0	10000	3	1	0	3	0
29	873	0	10000	3	1	0	3	0
28	874	0	10000	3	1	0	3	0
27	875	0	10000	3	1	0	3	0
28	876	0	10000	3	1	0	3	0
29	877	0	10000	3	1	0	3	0
28	878	0	10000	3	1	0	3	0
29	879	0	10000	3	1	0	3	0
30	880	0	10000	3	1	0	3	0
29	880	0	10000	3	1	0	3	0
30	881	0	10000	3	1	0	3	0
29	883	0	10000	3	1	0	3	0
28	884	0	10000	3	1	0	3	0
28	885	0	10000	3	1	0	3	0
26	886	0	10000	3	1	0	3	0
27	887	0	10000	3	1	0	3	0
27	888	0	10000	3	1	0	3	0
28	889	0	10000	3	1	0	3	0
26	890	0	10000	3	1	0	3	0
26	890	0	10000	3	1	0	3	0
26	891	0	10000	3	1	0	3	0
24	893	0	10000	3	1	0	3	0
23	894	0	10000	3	1	0	3	0
22	895	0	10000	3	1	0	3	0
24	896	0	10000	3	1	0	3	0
26	897	0	10000	3	1	0	3	0
28	898	0	10000	3	1	0	3	0
27	899	0	10000	3	1	0	3	0
26	900	0	10000	3	1	0	3	0
27	900	0	10000	3	1	0	3	0
29	901	0	10000	3	1	0	3	0
31	903	0	10000	3	1	0	3	0
31	904	0	10000	3	1	0	3	0
31	905	0	10000	3	1	0	3	0
30	906	0	10000	3	1	0	3	0
33	907	0	10000	3	1	0	3	0
33	908	0	10000	3	1	0	3	0
32	909	0	10000	3	1	0	3	0
32	910	0	10000	3	1	0	3	0
32	910	0	10000	3	1	0	3	0
32	911	0	10000	3	1	0	3	0
31	913	0	10000	3	1	0	3	0
30	914	0	10000	3	1	0	3	0
30	915	0	10000	3	1	0	3	0
31	916	0	10000	3	1	0	3	0
30	917	0	10000	3	1	0	3	0
29	918	0	10000	3	1	0	3	0
27	919	0	10000	3	1	0	3	0
26	920	0	10000	3	1	0	3	0
26	920	0	10000	3	1	0	3	0
26	921	0	10000	3	1	0	3	0
26	923	0	10000	3	1	0	3	0
27	924	0	10000	3	1	0	3	0
26	925	0	10000	3	1	0	3	0
26	926	0	10000	3	1	0	3	0
27	927	0	10000	3	1	0	3	0
26	928	0	10000	3	1	0	3	0
26	929	0	10000	3	1	0	3	0
28	930	0	10000	3	1	0	3	0
28	930	0	10000	3	1	0	3	0
27	931	0	10000	3	1	0	3	0
27	933	0	10000	3	1	0	3	0
25	934	0	10000	3	1	0	3	0
24	935	0	10000	3	1	0	3	0
26	936	0	10000	3	1	0	3	0
27	937	0	10000	3	1	0	3	0
33	938	0	10000	3	1	0	3	0
34	939	0	10000	3	1	0	3	0
32	940	0	10000	3	1	0	3	0
31	940	0	10000	3	1	0	3	0
32	941	0	10000	3	1	0	3	0
32	943	0	10000	3	1	0	3	0
31	944	0	10000	3	1	0	3	0
31	945	0	10000	3	1	0	3	0
29	946	0	10000	3	1	0	3	0
29	947	0	10000	3	1	0	3	0
28	948	0	10000	3	1	0	3	0
28	949	0	10000	3	1	0	3	0
28	950	0	10000	3	1	0	3	0
28	950	0	10000	3	1	0	3	0
27	951	0	10000	3	1	0	3	0
26	953	0	10000	3	1	0	3	0
25	954	0	10000	3	1	0	3	0
27	955	0	10000	3	1	0	3	0
30	956	0	10000	3	1	0	3	0
29	957	0	10000	3	1	0	3	0
28	958	0	10000	3	1	0	3	0
28	959	0	10000	3	1	0	3	0
28	960	0	10000	3	1	0	3	0
27	960	0	10000	3	1	0	3	0
27	961	0	10000	3	1	0	3	0
28	963	0	10000	3	1	0	3	0
28	964	0	10000	3	1	0	3	0
27	965	0	10000	3	1	0	3	0
25	966	0	10000	3	1	0	3	0
26	967	0	10000	3	1	0	3	0
25	968	0	10000	3	1	0	3	0
25	969	0	10000	3	1	0	3	0
26	970	0	10000	3	1	0	3	0
27	970	0	10000	3	1	0	3	0
27	971	0	10000	3	1	0	3	0
27	973	0	10000	3	1	0	3	0
25	974	0	10000	3	1	0	3	0
26	975	0	10000	3	1	0	3	0
27	976	0	10000	3	1	0	3	0
25	977	0	10000	3	1	0	3	0
24	978	0	10000	3	1	0	3	0
23	979	0	10000	3	1	0	3	0
22	980	0	10000	3	1	0	3	0
23	980	0	10000	3	1	0	3	0
24	981	0	10000	3	1	0	3	0
26	983	0	10000	3	1	0	3	0
25	984	0	10000	3	1	0	3	0
25	985	0	10000	3	1	0	3	0
22	986	0	10000	3	1	0	3	0
22	987	0	10000	3	1	0	3	0
22	988	0	10000	3	1	0	3	0
22	989	0	10000	3	1	0	3	0
21	990	0	10000	3	1	0	3	0
22	990	0	10000	3	1	0	3	0
24	991	0	10000	3	1	0	3	0
22	993	0	10000	3	1	0	3	0
21	994	0	10000	3	1	0	3	0
22	995	0	10000	3	1	0	3	0
25	996	0	10000	3	1	0	3	0
26	997	0	10000	3	1	0	3	0
25	998	0	10000	3	1	0	3	0
24	999	0	10000	3	1	0	3	0
24	1000	0	10000	3	1	0	3	0
25	1000	0	10000	3	1	0	3	0
25	1001	0	10000	3	1	0	3	0
54	1	0	10000	4	1	0	4	0
50	2	0	10000	4	1	0	4	0
49	3	0	10000	4	1	0	4	0
47	4	0	10000	4	1	0	4	0
47	5	0	10000	4	1	0	4	0
46	6	0	10000	4	1	0	4	0
47	7	0	10000	4	1	0	4	0
47	8	0	10000	4	1	0	4	0
46	9	0	10000	4	1	0	4	0
45	10	0	10000	4	1	0	4	0
42	11	0	10000	4	1	0	4	0
45	12	0	10000	4	1	0	4	0
46	13	0	10000	4	1	0	4	0
46	14	0	10000	4	1	0	4	0
46	15	0	10000	4	1	0	4	0
47	16	0	10000	4	1	0	4	0
48	17	0	10000	4	1	0	4	0
49	18	0	10000	4	1	0	4	0
51	19	0	10000	4	1	0	4	0
52	20	0	10000	4	1	0	4	0
53	21	0	10000	4	1	0	4	0
52	22	0	10000	4	1	0	4	0
55	23	0	10000	4	1	0	4	0
54	24	0	10000	4	1	0	4	0
52	25	0	10000	4	1	0	4	0
51	26	0	10000	4	1	0	4	0
49	27	0	10000	4	1	0	4	0
48	28	0	10000	4	1	0	4	0
47	29	0	10000	4	1	0	4	0
45	30	0	10000	4	1	0	4	0
44	31	0	10000	4	1	0	4	0
46	32	0	10000	4	1	0	4	0
44	33	0	10000	4	1	0	4	0
42	34	0	10000	4	1	0	4	0
42	35	0	10000	4	1	0	4	0
41	36	0	10000	4	1	0	4	0
39	37	0	10000	4	1	0	4	0
38	38	0	10000	4	1	0	4	0
37	39	0	10000	4	1	0	4	0
37	40	0	10000	4	1	0	4	0
37	41	0	10000	4	1	0	4	0
36	42	0	10000	4	1	0	4	0
34	43	0	10000	4	1	0	4	0
33	44	0	10000	4	1	0	4	0
33	45	0	10000	4	1	0	4	0
32	46	0	10000	4	1	0	4	0
32	47	0	10000	4	1	0	4	0
31	48	0	10000	4	1	0	4	0
30	49	0	10000	4	1	0	4	0
28	50	0	10000	4	1	0	4	0
27	51	0	10000	4	1	0	4	0
30	52	0	10000	4	1	0	4	0
31	53	0	10000	4	1	0	4	0
32	54	0	10000	4	1	0	4	0
32	55	0	10000	4	1	0	4	0
32	56	0	10000	4	1	0	4	0
31	57	0	10000	4	1	0	4	0
30	58	0	10000	4	1	0	4	0
30	59	0	10000	4	1	0	4	0
31	60	0	10000	4	1	0	4	0
32	61	0	10000	4	1	0	4	0
30	62	0	10000	4	1	0	4	0
31	63	0	10000	4	1	0	4	0
33	64	0	10000	4	1	0	4	0
34	65	0	10000	4	1	0	4	0
34	66	0	10000	4	1	0	4	0
33	67	0	10000	4	1	0	4	0
32	68	0	10000	4	1	0	4	0
32	69	0	10000	4	1	0	4	0
33	70	0	10000	4	1	0	4	0
34	71	0	10000	4	1	0	4	0
35	72	0	10000	4	1	0	4	0
34	73	0	10000	4	1	0	4	0
36	74	0	10000	4	1	0	4	0
34	75	0	10000	4	1	0	4	0
34	76	0	10000	4	1	0	4	0
33	77	0	10000	4	1	0	4	0
33	78	0	10000	4	1	0	4	0
33	79	0	10000	4	1	0	4	0
33	80	0	10000	4	1	0	4	0
32	81	0	10000	4	1	0	4	0
29	82	0	10000	4	1	0	4	0
29	83	0	10000	4	1	0	4	0
30	84	0	10000	4	1	0	4	0
30	85	0	10000	4	1	0	4	0
30	86	0	10000	4	1	0	4	0
29	87	0	10000	4	1	0	4	0
29	88	0	10000	4	1	0	4	0
27	89	0	10000	4	1	0	4	0
26	90	0	10000	4	1	0	4	0
26	91	0	10000	4	1	0	4	0
27	92	0	10000	4	1	0	4	0
27	93	0	10000	4	1	0	4	0
26	94	0	10000	4	1	0	4	0
24	95	0	10000	4	1	0	4	0
23	96	0	10000	4	1	0	4	0
23	97	0	10000	4	1	0	4	0
22	98	0	10000	4	1	0	4	0
22	99	0	10000	4	1	0	4	0
22	100	0	10000	4	1	0	4	0
22	101	0	10000	4	1	0	4	0
20	102	0	10000	4	1	0	4	0
23	103	0	10000	4	1	0	4	0
22	104	0	10000	4	1	0	4	0
22	105	0	10000	4	1	0	4	0
23	106	0	10000	4	1	0	4	0
21	107	0	10000	4	1	0	4	0
21	108	0	10000	4	1	0	4	0
21	109	0	10000	4	1	0	4	0
21	110	0	10000	4	1	0	4	0
21	111	0	10000	4	1	0	4	0
24	112	0	10000	4	1	0	4	0
22	113	0	10000	4	1	0	4	0
22	114	0	10000	4	1	0	4	0
22	115	0	10000	4	1	0	4	0
22	116	0	10000	4	1	0	4	0
23	117	0	10000	4	1	0	4	0
22	118	0	10000	4	1	0	4	0
21	119	0	10000	4	1	0	4	0
22	120	0	10000	4	1	0	4	0
23	121	0	10000	4	1	0	4	0
20	122	0	10000	4	1	0	4	0
20	123	0	10000	4	1	0	4	0
20	124	0	10000	4	1	0	4	0
20	125	0	10000	4	1	0	4	0
20	126	0	10000	4	1	0	4	0
22	127	0	10000	4	1	0	4	0
21	128	0	10000	4	1	0	4	0
22	129	0	10000	4	1	0	4	0
23	130	0	10000	4	1	0	4	0
23	131	0	10000	4	1	0	4	0
25	132	0	10000	4	1	0	4	0
25	133	0	10000	4	1	0	4	0
24	134	0	10000	4	1	0	4	0
24	135	0	10000	4	1	0	4	0
24	136	0	10000	4	1	0	4	0
23	137	0	10000	4	1	0	4	0
23	138	0	10000	4	1	0	4	0
23	139	0	10000	4	1	0	4	0
24	140	0	10000	4	1	0	4	0
24	141	0	10000	4	1	0	4	0
23	142	0	10000	4	1	0	4	0
22	143	0	10000	4	1	0	4	0
23	144	0	10000	4	1	0	4	0
23	145	0	10000	4	1	0	4	0
23	146	0	10000	4	1	0	4	0
23	147	0	10000	4	1	0	4	0
23	148	0	10000	4	1	0	4	0
23	149	0	10000	4	1	0	4	0
23	150	0	10000	4	1	0	4	0
23	151	0	10000	4	1	0	4	0
23	152	0	10000	4	1	0	4	0
22	153	0	10000	4	1	0	4	0
22	154	0	10000	4	1	0	4	0
21	155	0	10000	4	1	0	4	0
21	156	0	10000	4	1	0	4	0
20	157	0	10000	4	1	0	4	0
21	158	0	10000	4	1	0	4	0
22	159	0	10000	4	1	0	4	0
23	160	0	10000	4	1	0	4	0
23	161	0	10000	4	1	0	4	0
21	162	0	10000	4	1	0	4	0
21	163	0	10000	4	1	0	4	0
20	164	0	10000	4	1	0	4	0
21	165	0	10000	4	1	0	4	0
20	166	0	10000	4	1	0	4	0
21	167	0	10000	4	1	0	4	0
20	168	0	10000	4	1	0	4	0
20	169	0	10000	4	1	0	4	0
19	170	0	10000	4	1	0	4	0
20	171	0	10000	4	1	0	4	0
21	172	0	10000	4	1	0	4	0
21	173	0	10000	4	1	0	4	0
21	174	0	10000	4	1	0	4	0
20	175	0	10000	4	1	0	4	0
22	176	0	10000	4	1	0	4	0
24	177	0	10000	4	1	0	4	0
24	178	0	10000	4	1	0	4	0
25	179	0	10000	4	1	0	4	0
26	180	0	10000	4	1	0	4	0
27	181	0	10000	4	1	0	4	0
28	182	0	10000	4	1	0	4	0
29	183	0	10000	4	1	0	4	0
28	184	0	10000	4	1	0	4	0
28	185	0	10000	4	1	0	4	0
30	186	0	10000	4	1	0	4	0
29	187	0	10000	4	1	0	4	0
29	188	0	10000	4	1	0	4	0
29	189	0	10000	4	1	0	4	0
27	190	0	10000	4	1	0	4	0
26	191	0	10000	4	1	0	4	0
28	192	0	10000	4	1	0	4	0
27	193	0	10000	4	1	0	4	0
27	194	0	10000	4	1	0	4	0
27	195	0	10000	4	1	0	4	0
25	196	0	10000	4	1	0	4	0
24	197	0	10000	4	1	0	4	0
24	198	0	10000	4	1	0	4	0
24	199	0	10000	4	1	0	4	0
24	200	0	10000	4	1	0	4	0
24	201	0	10000	4	1	0	4	0
22	202	0	10000	4	1	0	4	0
22	203	0	10000	4	1	0	4	0
22	204	0	10000	4	1	0	4	0
22	205	0	10000	4	1	0	4	0
22	206	0	10000	4	1	0	4	0
22	207	0	10000	4	1	0	4	0
23	208	0	10000	4	1	0	4	0
23	209	0	10000	4	1	0	4	0
24	210	0	10000	4	1	0	4	0
24	211	0	10000	4	1	0	4	0
25	212	0	10000	4	1	0	4	0
27	213	0	10000	4	1	0	4	0
27	214	0	10000	4	1	0	4	0
28	215	0	10000	4	1	0	4	0
28	216	0	10000	4	1	0	4	0
28	217	0	10000	4	1	0	4	0
29	218	0	10000	4	1	0	4	0
32	219	0	10000	4	1	0	4	0
31	220	0	10000	4	1	0	4	0
32	221	0	10000	4	1	0	4	0
32	222	0	10000	4	1	0	4	0
31	223	0	10000	4	1	0	4	0
33	224	0	10000	4	1	0	4	0
34	225	0	10000	4	1	0	4	0
32	226	0	10000	4	1	0	4	0
32	227	0	10000	4	1	0	4	0
32	228	0	10000	4	1	0	4	0
32	229	0	10000	4	1	0	4	0
32	230	0	10000	4	1	0	4	0
30	231	0	10000	4	1	0	4	0
32	232	0	10000	4	1	0	4	0
32	233	0	10000	4	1	0	4	0
31	234	0	10000	4	1	0	4	0
30	235	0	10000	4	1	0	4	0
29	236	0	10000	4	1	0	4	0
29	237	0	10000	4	1	0	4	0
28	238	0	10000	4	1	0	4	0
28	239	0	10000	4	1	0	4	0
27	240	0	10000	4	1	0	4	0
27	241	0	10000	4	1	0	4	0
25	242	0	10000	4	1	0	4	0
27	243	0	10000	4	1	0	4	0
28	244	0	10000	4	1	0	4	0
28	245	0	10000	4	1	0	4	0
29	246	0	10000	4	1	0	4	0
29	247	0	10000	4	1	0	4	0
29	248	0	10000	4	1	0	4	0
29	249	0	10000	4	1	0	4	0
27	250	0	10000	4	1	0	4	0
26	251	0	10000	4	1	0	4	0
28	252	0	10000	4	1	0	4	0
29	253	0	10000	4	1	0	4	0
31	254	0	10000	4	1	0	4	0
29	255	0	10000	4	1	0	4	0
29	256	0	10000	4	1	0	4	0
29	257	0	10000	4	1	0	4	0
27	258	0	10000	4	1	0	4	0
26	259	0	10000	4	1	0	4	0
27	260	0	10000	4	1	0	4	0
28	261	0	10000	4	1	0	4	0
28	262	0	10000	4	1	0	4	0
30	263	0	10000	4	1	0	4	0
29	264	0	10000	4	1	0	4	0
29	265	0	10000	4	1	0	4	0
28	266	0	10000	4	1	0	4	0
28	267	0	10000	4	1	0	4	0
27	268	0	10000	4	1	0	4	0
27	269	0	10000	4	1	0	4	0
25	270	0	10000	4	1	0	4	0
25	271	0	10000	4	1	0	4	0
28	272	0	10000	4	1	0	4	0
26	273	0	10000	4	1	0	4	0
25	274	0	10000	4	1	0	4	0
25	275	0	10000	4	1	0	4	0
23	276	0	10000	4	1	0	4	0
23	277	0	10000	4	1	0	4	0
23	278	0	10000	4	1	0	4	0
24	279	0	10000	4	1	0	4	0
26	280	0	10000	4	1	0	4	0
27	281	0	10000	4	1	0	4	0
23	282	0	10000	4	1	0	4	0
22	283	0	10000	4	1	0	4	0
23	284	0	10000	4	1	0	4	0
23	285	0	10000	4	1	0	4	0
24	286	0	10000	4	1	0	4	0
25	287	0	10000	4	1	0	4	0
26	288	0	10000	4	1	0	4	0
27	289	0	10000	4	1	0	4	0
26	290	0	10000	4	1	0	4	0
24	291	0	10000	4	1	0	4	0
25	292	0	10000	4	1	0	4	0
25	293	0	10000	4	1	0	4	0
24	294	0	10000	4	1	0	4	0
24	295	0	10000	4	1	0	4	0
25	296	0	10000	4	1	0	4	0
26	297	0	10000	4	1	0	4	0
26	298	0	10000	4	1	0	4	0
28	299	0	10000	4	1	0	4	0
28	300	0	10000	4	1	0	4	0
27	301	0	10000	4	1	0	4	0
25	302	0	10000	4	1	0	4	0
25	303	0	10000	4	1	0	4	0
25	304	0	10000	4	1	0	4	0
25	305	0	10000	4	1	0	4	0
25	306	0	10000	4	1	0	4	0
26	307	0	10000	4	1	0	4	0
25	308	0	10000	4	1	0	4	0
24	309	0	10000	4	1	0	4	0
23	310	0	10000	4	1	0	4	0
22	311	0	10000	4	1	0	4	0
25	312	0	10000	4	1	0	4	0
25	313	0	10000	4	1	0	4	0
24	314	0	10000	4	1	0	4	0
24	315	0	10000	4	1	0	4	0
23	316	0	10000	4	1	0	4	0
24	317	0	10000	4	1	0	4	0
25	318	0	10000	4	1	0	4	0
25	319	0	10000	4	1	0	4	0
24	320	0	10000	4	1	0	4	0
24	321	0	10000	4	1	0	4	0
21	322	0	10000	4	1	0	4	0
21	323	0	10000	4	1	0	4	0
21	324	0	10000	4	1	0	4	0
20	325	0	10000	4	1	0	4	0
20	326	0	10000	4	1	0	4	0
20	327	0	10000	4	1	0	4	0
20	328	0	10000	4	1	0	4	0
20	329	0	10000	4	1	0	4	0
19	330	0	10000	4	1	0	4	0
18	331	0	10000	4	1	0	4	0
20	332	0	10000	4	1	0	4	0
19	333	0	10000	4	1	0	4	0
19	334	0	10000	4	1	0	4	0
19	335	0	10000	4	1	0	4	0
18	336	0	10000	4	1	0	4	0
17	337	0	10000	4	1	0	4	0
17	338	0	10000	4	1	0	4	0
17	339	0	10000	4	1	0	4	0
18	340	0	10000	4	1	0	4	0
18	341	0	10000	4	1	0	4	0
16	342	0	10000	4	1	0	4	0
17	343	0	10000	4	1	0	4	0
16	344	0	10000	4	1	0	4	0
16	345	0	10000	4	1	0	4	0
17	346	0	10000	4	1	0	4	0
18	347	0	10000	4	1	0	4	0
18	348	0	10000	4	1	0	4	0
18	349	0	10000	4	1	0	4	0
16	350	0	10000	4	1	0	4	0
16	351	0	10000	4	1	0	4	0
19	352	0	10000	4	1	0	4	0
18	353	0	10000	4	1	0	4	0
17	354	0	10000	4	1	0	4	0
17	355	0	10000	4	1	0	4	0
16	356	0	10000	4	1	0	4	0
17	357	0	10000	4	1	0	4	0
19	358	0	10000	4	1	0	4	0
21	359	0	10000	4	1	0	4	0
23	360	0	10000	4	1	0	4	0
24	361	0	10000	4	1	0	4	0
22	362	0	10000	4	1	0	4	0
25	363	0	10000	4	1	0	4	0
30	364	0	10000	4	1	0	4	0
29	365	0	10000	4	1	0	4	0
31	366	0	10000	4	1	0	4	0
31	367	0	10000	4	1	0	4	0
30	368	0	10000	4	1	0	4	0
30	369	0	10000	4	1	0	4	0
28	370	0	10000	4	1	0	4	0
27	371	0	10000	4	1	0	4	0
28	372	0	10000	4	1	0	4	0
28	373	0	10000	4	1	0	4	0
26	374	0	10000	4	1	0	4	0
26	375	0	10000	4	1	0	4	0
28	376	0	10000	4	1	0	4	0
29	377	0	10000	4	1	0	4	0
29	378	0	10000	4	1	0	4	0
29	379	0	10000	4	1	0	4	0
28	380	0	10000	4	1	0	4	0
29	381	0	10000	4	1	0	4	0
27	382	0	10000	4	1	0	4	0
25	383	0	10000	4	1	0	4	0
24	384	0	10000	4	1	0	4	0
24	385	0	10000	4	1	0	4	0
23	386	0	10000	4	1	0	4	0
23	387	0	10000	4	1	0	4	0
24	388	0	10000	4	1	0	4	0
23	389	0	10000	4	1	0	4	0
22	390	0	10000	4	1	0	4	0
23	391	0	10000	4	1	0	4	0
26	392	0	10000	4	1	0	4	0
26	393	0	10000	4	1	0	4	0
25	394	0	10000	4	1	0	4	0
24	395	0	10000	4	1	0	4	0
24	396	0	10000	4	1	0	4	0
23	397	0	10000	4	1	0	4	0
23	398	0	10000	4	1	0	4	0
23	399	0	10000	4	1	0	4	0
23	400	0	10000	4	1	0	4	0
23	401	0	10000	4	1	0	4	0
22	402	0	10000	4	1	0	4	0
22	403	0	10000	4	1	0	4	0
21	404	0	10000	4	1	0	4	0
20	405	0	10000	4	1	0	4	0
20	406	0	10000	4	1	0	4	0
20	407	0	10000	4	1	0	4	0
20	408	0	10000	4	1	0	4	0
20	409	0	10000	4	1	0	4	0
19	410	0	10000	4	1	0	4	0
19	411	0	10000	4	1	0	4	0
21	412	0	10000	4	1	0	4	0
20	413	0	10000	4	1	0	4	0
21	414	0	10000	4	1	0	4	0
21	415	0	10000	4	1	0	4	0
21	416	0	10000	4	1	0	4	0
21	417	0	10000	4	1	0	4	0
20	418	0	10000	4	1	0	4	0
21	419	0	10000	4	1	0	4	0
22	420	0	10000	4	1	0	4	0
23	421	0	10000	4	1	0	4	0
20	422	0	10000	4	1	0	4	0
22	423	0	10000	4	1	0	4	0
24	424	0	10000	4	1	0	4	0
24	425	0	10000	4	1	0	4	0
25	426	0	10000	4	1	0	4	0
25	427	0	10000	4	1	0	4	0
24	428	0	10000	4	1	0	4	0
23	429	0	10000	4	1	0	4	0
21	430	0	10000	4	1	0	4	0
21	431	0	10000	4	1	0	4	0
25	432	0	10000	4	1	0	4	0
25	433	0	10000	4	1	0	4	0
25	434	0	10000	4	1	0	4	0
25	435	0	10000	4	1	0	4	0
24	436	0	10000	4	1	0	4	0
23	437	0	10000	4	1	0	4	0
23	438	0	10000	4	1	0	4	0
25	439	0	10000	4	1	0	4	0
27	440	0	10000	4	1	0	4	0
29	441	0	10000	4	1	0	4	0
25	442	0	10000	4	1	0	4	0
24	443	0	10000	4	1	0	4	0
26	444	0	10000	4	1	0	4	0
25	445	0	10000	4	1	0	4	0
24	446	0	10000	4	1	0	4	0
25	447	0	10000	4	1	0	4	0
24	448	0	10000	4	1	0	4	0
23	449	0	10000	4	1	0	4	0
22	450	0	10000	4	1	0	4	0
21	451	0	10000	4	1	0	4	0
22	452	0	10000	4	1	0	4	0
22	453	0	10000	4	1	0	4	0
23	454	0	10000	4	1	0	4	0
22	455	0	10000	4	1	0	4	0
23	456	0	10000	4	1	0	4	0
24	457	0	10000	4	1	0	4	0
23	458	0	10000	4	1	0	4	0
23	459	0	10000	4	1	0	4	0
24	460	0	10000	4	1	0	4	0
25	461	0	10000	4	1	0	4	0
24	462	0	10000	4	1	0	4	0
23	463	0	10000	4	1	0	4	0
24	464	0	10000	4	1	0	4	0
24	465	0	10000	4	1	0	4	0
23	466	0	10000	4	1	0	4	0
22	467	0	10000	4	1	0	4	0
22	468	0	10000	4	1	0	4	0
22	469	0	10000	4	1	0	4	0
23	470	0	10000	4	1	0	4	0
22	471	0	10000	4	1	0	4	0
24	472	0	10000	4	1	0	4	0
24	473	0	10000	4	1	0	4	0
24	474	0	10000	4	1	0	4	0
22	475	0	10000	4	1	0	4	0
22	476	0	10000	4	1	0	4	0
22	477	0	10000	4	1	0	4	0
22	478	0	10000	4	1	0	4	0
22	479	0	10000	4	1	0	4	0
23	480	0	10000	4	1	0	4	0
23	481	0	10000	4	1	0	4	0
20	482	0	10000	4	1	0	4	0
20	483	0	10000	4	1	0	4	0
20	484	0	10000	4	1	0	4	0
21	485	0	10000	4	1	0	4	0
21	486	0	10000	4	1	0	4	0
21	487	0	10000	4	1	0	4	0
21	488	0	10000	4	1	0	4	0
20	489	0	10000	4	1	0	4	0
20	490	0	10000	4	1	0	4	0
18	491	0	10000	4	1	0	4	0
20	492	0	10000	4	1	0	4	0
20	493	0	10000	4	1	0	4	0
20	494	0	10000	4	1	0	4	0
20	495	0	10000	4	1	0	4	0
19	496	0	10000	4	1	0	4	0
19	497	0	10000	4	1	0	4	0
20	498	0	10000	4	1	0	4	0
21	499	0	10000	4	1	0	4	0
20	500	0	10000	4	1	0	4	0
20	501	0	10000	4	1	0	4	1
18	502	0	10000	4	1	0	4	1
17	503	0	10000	4	1	0	4	1
17	504	0	10000	4	1	0	4	1
17	505	0	10000	4	1	0	4	1
18	506	0	10000	4	1	0	4	1
18	507	0	10000	4	1	0	4	1
18	508	0	10000	4	1	0	4	1
18	509	0	10000	4	1	0	4	1
18	510	0	10000	4	1	0	4	1
19	511	0	10000	4	1	0	4	1
21	512	0	10000	4	1	0	4	1
20	513	0	10000	4	1	0	4	1
20	514	0	10000	4	1	0	4	1
20	515	0	10000	4	1	0	4	1
19	516	0	10000	4	1	0	4	1
20	517	0	10000	4	1	0	4	1
20	518	0	10000	4	1	0	4	1
21	519	0	10000	4	1	0	4	1
21	520	0	10000	4	1	0	4	1
22	521	0	10000	4	1	0	4	1
20	522	0	10000	4	1	0	4	1
20	523	0	10000	4	1	0	4	1
22	524	0	10000	4	1	0	4	1
21	525	0	10000	4	1	0	4	1
22	526	0	10000	4	1	0	4	1
23	527	0	10000	4	1	0	4	1
22	528	0	10000	4	1	0	4	1
21	529	0	10000	4	1	0	4	1
20	530	0	10000	4	1	0	4	1
18	531	0	10000	4	1	0	4	1
20	532	0	10000	4	1	0	4	1
21	533	0	10000	4	1	0	4	1
23	534	0	10000	4	1	0	4	1
23	535	0	10000	4	1	0	4	1
24	536	0	10000	4	1	0	4	1
25	537	0	10000	4	1	0	4	1
26	538	0	10000	4	1	0	4	1
27	539	0	10000	4	1	0	4	1
27	540	0	10000	4	1	0	4	1
28	541	0	10000	4	1	0	4	1
26	542	0	10000	4	1	0	4	1
26	543	0	10000	4	1	0	4	1
26	544	0	10000	4	1	0	4	1
28	545	0	10000	4	1	0	4	1
30	546	0	10000	4	1	0	4	1
32	547	0	10000	4	1	0	4	1
34	548	0	10000	4	1	0	4	1
32	549	0	10000	4	1	0	4	1
32	550	0	10000	4	1	0	4	1
30	551	0	10000	4	1	0	4	0
31	552	0	10000	4	1	0	4	0
31	553	0	10000	4	1	0	4	0
30	554	0	10000	4	1	0	4	0
29	555	0	10000	4	1	0	4	0
28	556	0	10000	4	1	0	4	0
28	557	0	10000	4	1	0	4	0
29	558	0	10000	4	1	0	4	0
29	559	0	10000	4	1	0	4	0
30	560	0	10000	4	1	0	4	0
30	561	0	10000	4	1	0	4	0
26	562	0	10000	4	1	0	4	0
25	563	0	10000	4	1	0	4	0
25	564	0	10000	4	1	0	4	0
25	565	0	10000	4	1	0	4	0
24	566	0	10000	4	1	0	4	0
24	567	0	10000	4	1	0	4	0
24	568	0	10000	4	1	0	4	0
23	569	0	10000	4	1	0	4	0
22	570	0	10000	4	1	0	4	0
22	571	0	10000	4	1	0	4	0
24	572	0	10000	4	1	0	4	0
23	573	0	10000	4	1	0	4	0
22	574	0	10000	4	1	0	4	0
21	575	0	10000	4	1	0	4	0
21	576	0	10000	4	1	0	4	0
23	577	0	10000	4	1	0	4	0
27	578	0	10000	4	1	0	4	0
36	579	0	10000	4	1	0	4	0
39	580	0	10000	4	1	0	4	0
39	581	0	10000	4	1	0	4	0
40	582	0	10000	4	1	0	4	0
45	583	0	10000	4	1	0	4	0
46	584	0	10000	4	1	0	4	0
49	585	0	10000	4	1	0	4	0
54	586	0	10000	4	1	0	4	0
54	587	0	10000	4	1	0	4	0
60	588	0	10000	4	1	0	4	0
64	589	0	10000	4	1	0	4	0
66	590	0	10000	4	1	0	4	0
76	591	0	10000	4	1	0	4	0
97	592	0	10000	4	1	0	4	0
104	593	0	10000	4	1	0	4	0
126	594	0	10000	4	1	0	4	0
135	595	0	10000	4	1	0	4	0
150	596	0	10000	4	1	0	4	0
163	597	0	10000	4	1	0	4	0
160	598	0	10000	4	1	0	4	0
169	599	0	10000	4	1	0	4	0
186	600	0	10000	4	1	0	4	0
195	601	0	10000	4	1	0	4	0
191	602	0	10000	4	1	0	4	0
211	603	0	10000	4	1	0	4	0
246	604	0	10000	4	1	0	4	0
276	605	0	10000	4	1	0	4	0
315	606	0	10000	4	1	0	4	0
320	607	0	10000	4	1	0	4	0
322	608	0	10000	4	1	0	4	0
330	609	0	10000	4	1	0	4	0
331	610	0	10000	4	1	0	4	0
318	611	0	10000	4	1	0	4	0
308	612	0	10000	4	1	0	4	0
299	613	0	10000	4	1	0	4	0
289	614	0	10000	4	1	0	4	0
282	615	0	10000	4	1	0	4	0
284	616	0	10000	4	1	0	4	0
288	617	0	10000	4	1	0	4	0
282	618	0	10000	4	1	0	4	0
272	619	0	10000	4	1	0	4	0
260	620	0	10000	4	1	0	4	0
251	621	0	10000	4	1	0	4	0
239	622	0	10000	4	1	0	4	0
232	623	0	10000	4	1	0	4	0
225	624	0	10000	4	1	0	4	0
219	625	0	10000	4	1	0	4	0
213	626	0	10000	4	1	0	4	0
206	627	0	10000	4	1	0	4	0
199	628	0	10000	4	1	0	4	0
191	629	0	10000	4	1	0	4	0
182	630	0	10000	4	1	0	4	0
174	631	0	10000	4	1	0	4	0
171	632	0	10000	4	1	0	4	0
167	633	0	10000	4	1	0	4	0
162	634	0	10000	4	1	0	4	0
155	635	0	10000	4	1	0	4	0
152	636	0	10000	4	1	0	4	0
152	637	0	10000	4	1	0	4	0
151	638	0	10000	4	1	0	4	0
151	639	0	10000	4	1	0	4	0
152	640	0	10000	4	1	0	4	0
155	641	0	10000	4	1	0	4	0
152	642	0	10000	4	1	0	4	0
147	643	0	10000	4	1	0	4	0
141	644	0	10000	4	1	0	4	0
136	645	0	10000	4	1	0	4	0
134	646	0	10000	4	1	0	4	0
133	647	0	10000	4	1	0	4	0
135	648	0	10000	4	1	0	4	0
135	649	0	10000	4	1	0	4	0
135	650	0	10000	4	1	0	4	0
133	651	0	10000	4	1	0	4	0
135	652	0	10000	4	1	0	4	0
135	653	0	10000	4	1	0	4	0
133	654	0	10000	4	1	0	4	0
132	655	0	10000	4	1	0	4	0
132	656	0	10000	4	1	0	4	0
133	657	0	10000	4	1	0	4	0
133	658	0	10000	4	1	0	4	0
131	659	0	10000	4	1	0	4	0
128	660	0	10000	4	1	0	4	0
124	661	0	10000	4	1	0	4	0
118	662	0	10000	4	1	0	4	0
113	663	0	10000	4	1	0	4	0
109	664	0	10000	4	1	0	4	0
105	665	0	10000	4	1	0	4	0
101	666	0	10000	4	1	0	4	0
97	667	0	10000	4	1	0	4	0
93	668	0	10000	4	1	0	4	0
89	669	0	10000	4	1	0	4	0
86	670	0	10000	4	1	0	4	0
81	671	0	10000	4	1	0	4	0
80	672	0	10000	4	1	0	4	0
77	673	0	10000	4	1	0	4	0
74	674	0	10000	4	1	0	4	0
71	675	0	10000	4	1	0	4	0
68	676	0	10000	4	1	0	4	0
66	677	0	10000	4	1	0	4	0
64	678	0	10000	4	1	0	4	0
67	679	0	10000	4	1	0	4	0
71	680	0	10000	4	1	0	4	0
74	681	0	10000	4	1	0	4	0
72	682	0	10000	4	1	0	4	0
72	683	0	10000	4	1	0	4	0
72	684	0	10000	4	1	0	4	0
71	685	0	10000	4	1	0	4	0
74	686	0	10000	4	1	0	4	0
78	687	0	10000	4	1	0	4	0
79	688	0	10000	4	1	0	4	0
81	689	0	10000	4	1	0	4	0
80	690	0	10000	4	1	0	4	0
78	691	0	10000	4	1	0	4	0
77	692	0	10000	4	1	0	4	0
77	693	0	10000	4	1	0	4	0
75	694	0	10000	4	1	0	4	0
72	695	0	10000	4	1	0	4	0
70	696	0	10000	4	1	0	4	0
67	697	0	10000	4	1	0	4	0
67	698	0	10000	4	1	0	4	0
66	699	0	10000	4	1	0	4	0
66	700	0	10000	4	1	0	4	0
67	701	0	10000	4	1	0	4	0
68	702	0	10000	4	1	0	4	0
69	703	0	10000	4	1	0	4	0
72	704	0	10000	4	1	0	4	0
74	705	0	10000	4	1	0	4	0
75	706	0	10000	4	1	0	4	0
76	707	0	10000	4	1	0	4	0
75	708	0	10000	4	1	0	4	0
73	709	0	10000	4	1	0	4	0
73	710	0	10000	4	1	0	4	0
72	711	0	10000	4	1	0	4	0
76	712	0	10000	4	1	0	4	0
75	713	0	10000	4	1	0	4	0
72	714	0	10000	4	1	0	4	0
68	715	0	10000	4	1	0	4	0
66	716	0	10000	4	1	0	4	0
64	717	0	10000	4	1	0	4	0
61	718	0	10000	4	1	0	4	0
60	719	0	10000	4	1	0	4	0
60	720	0	10000	4	1	0	4	0
58	721	0	10000	4	1	0	4	0
56	722	0	10000	4	1	0	4	0
56	723	0	10000	4	1	0	4	0
57	724	0	10000	4	1	0	4	0
60	725	0	10000	4	1	0	4	0
65	726	0	10000	4	1	0	4	0
67	727	0	10000	4	1	0	4	0
69	728	0	10000	4	1	0	4	0
67	729	0	10000	4	1	0	4	0
64	730	0	10000	4	1	0	4	0
61	731	0	10000	4	1	0	4	0
61	732	0	10000	4	1	0	4	0
58	733	0	10000	4	1	0	4	0
56	734	0	10000	4	1	0	4	0
54	735	0	10000	4	1	0	4	0
53	736	0	10000	4	1	0	4	0
52	737	0	10000	4	1	0	4	0
50	738	0	10000	4	1	0	4	0
49	739	0	10000	4	1	0	4	0
50	740	0	10000	4	1	0	4	0
50	741	0	10000	4	1	0	4	0
47	742	0	10000	4	1	0	4	0
48	743	0	10000	4	1	0	4	0
49	744	0	10000	4	1	0	4	0
48	745	0	10000	4	1	0	4	0
48	746	0	10000	4	1	0	4	0
47	747	0	10000	4	1	0	4	0
45	748	0	10000	4	1	0	4	0
44	749	0	10000	4	1	0	4	0
42	750	0	10000	4	1	0	4	0
42	751	0	10000	4	1	0	4	0
44	752	0	10000	4	1	0	4	0
44	753	0	10000	4	1	0	4	0
43	754	0	10000	4	1	0	4	0
42	755	0	10000	4	1	0	4	0
41	756	0	10000	4	1	0	4	0
41	757	0	10000	4	1	0	4	0
41	758	0	10000	4	1	0	4	0
41	759	0	10000	4	1	0	4	0
41	760	0	10000	4	1	0	4	0
42	761	0	10000	4	1	0	4	0
39	762	0	10000	4	1	0	4	0
39	763	0	10000	4	1	0	4	0
43	764	0	10000	4	1	0	4	0
45	765	0	10000	4	1	0	4	0
44	766	0	10000	4	1	0	4	0
43	767	0	10000	4	1	0	4	0
42	768	0	10000	4	1	0	4	0
40	769	0	10000	4	1	0	4	0
40	770	0	10000	4	1	0	4	0
39	771	0	10000	4	1	0	4	0
38	772	0	10000	4	1	0	4	0
38	773	0	10000	4	1	0	4	0
36	774	0	10000	4	1	0	4	0
34	775	0	10000	4	1	0	4	0
34	776	0	10000	4	1	0	4	0
33	777	0	10000	4	1	0	4	0
33	778	0	10000	4	1	0	4	0
34	779	0	10000	4	1	0	4	0
33	780	0	10000	4	1	0	4	0
32	781	0	10000	4	1	0	4	0
31	782	0	10000	4	1	0	4	0
30	783	0	10000	4	1	0	4	0
29	784	0	10000	4	1	0	4	0
29	785	0	10000	4	1	0	4	0
29	786	0	10000	4	1	0	4	0
30	787	0	10000	4	1	0	4	0
30	788	0	10000	4	1	0	4	0
29	789	0	10000	4	1	0	4	0
30	790	0	10000	4	1	0	4	0
31	791	0	10000	4	1	0	4	0
32	792	0	10000	4	1	0	4	0
31	793	0	10000	4	1	0	4	0
30	794	0	10000	4	1	0	4	0
30	795	0	10000	4	1	0	4	0
32	796	0	10000	4	1	0	4	0
32	797	0	10000	4	1	0	4	0
31	798	0	10000	4	1	0	4	0
30	799	0	10000	4	1	0	4	0
29	800	0	10000	4	1	0	4	0
28	801	0	10000	4	1	0	4	0
25	802	0	10000	4	1	0	4	0
25	803	0	10000	4	1	0	4	0
27	804	0	10000	4	1	0	4	0
29	805	0	10000	4	1	0	4	0
29	806	0	10000	4	1	0	4	0
29	807	0	10000	4	1	0	4	0
28	808	0	10000	4	1	0	4	0
27	809	0	10000	4	1	0	4	0
29	810	0	10000	4	1	0	4	0
31	811	0	10000	4	1	0	4	0
34	812	0	10000	4	1	0	4	0
35	813	0	10000	4	1	0	4	0
34	814	0	10000	4	1	0	4	0
34	815	0	10000	4	1	0	4	0
33	816	0	10000	4	1	0	4	0
32	817	0	10000	4	1	0	4	0
32	818	0	10000	4	1	0	4	0
32	819	0	10000	4	1	0	4	0
31	820	0	10000	4	1	0	4	0
31	821	0	10000	4	1	0	4	0
27	822	0	10000	4	1	0	4	0
27	823	0	10000	4	1	0	4	0
29	824	0	10000	4	1	0	4	0
30	825	0	10000	4	1	0	4	0
29	826	0	10000	4	1	0	4	0
29	827	0	10000	4	1	0	4	0
28	828	0	10000	4	1	0	4	0
27	829	0	10000	4	1	0	4	0
26	830	0	10000	4	1	0	4	0
26	831	0	10000	4	1	0	4	0
28	832	0	10000	4	1	0	4	0
29	833	0	10000	4	1	0	4	0
28	834	0	10000	4	1	0	4	0
29	835	0	10000	4	1	0	4	0
32	836	0	10000	4	1	0	4	0
33	837	0	10000	4	1	0	4	0
32	838	0	10000	4	1	0	4	0
32	839	0	10000	4	1	0	4	0
32	840	0	10000	4	1	0	4	0
34	841	0	10000	4	1	0	4	0
32	842	0	10000	4	1	0	4	0
31	843	0	10000	4	1	0	4	0
31	844	0	10000	4	1	0	4	0
29	845	0	10000	4	1	0	4	0
29	846	0	10000	4	1	0	4	0
29	847	0	10000	4	1	0	4	0
28	848	0	10000	4	1	0	4	0
26	849	0	10000	4	1	0	4	0
26	850	0	10000	4	1	0	4	0
25	851	0	10000	4	1	0	4	0
27	852	0	10000	4	1	0	4	0
29	853	0	10000	4	1	0	4	0
28	854	0	10000	4	1	0	4	0
32	855	0	10000	4	1	0	4	0
36	856	0	10000	4	1	0	4	0
34	857	0	10000	4	1	0	4	0
33	858	0	10000	4	1	0	4	0
37	859	0	10000	4	1	0	4	0
39	860	0	10000	4	1	0	4	0
39	861	0	10000	4	1	0	4	0
35	862	0	10000	4	1	0	4	0
33	863	0	10000	4	1	0	4	0
32	864	0	10000	4	1	0	4	0
31	865	0	10000	4	1	0	4	0
31	866	0	10000	4	1	0	4	0
31	867	0	10000	4	1	0	4	0
31	868	0	10000	4	1	0	4	0
29	869	0	10000	4	1	0	4	0
27	870	0	10000	4	1	0	4	0
26	871	0	10000	4	1	0	4	0
28	872	0	10000	4	1	0	4	0
27	873	0	10000	4	1	0	4	0
26	874	0	10000	4	1	0	4	0
26	875	0	10000	4	1	0	4	0
26	876	0	10000	4	1	0	4	0
25	877	0	10000	4	1	0	4	0
25	878	0	10000	4	1	0	4	0
24	879	0	10000	4	1	0	4	0
24	880	0	10000	4	1	0	4	0
25	881	0	10000	4	1	0	4	0
22	882	0	10000	4	1	0	4	0
21	883	0	10000	4	1	0	4	0
22	884	0	10000	4	1	0	4	0
21	885	0	10000	4	1	0	4	0
22	886	0	10000	4	1	0	4	0
22	887	0	10000	4	1	0	4	0
22	888	0	10000	4	1	0	4	0
22	889	0	10000	4	1	0	4	0
22	890	0	10000	4	1	0	4	0
22	891	0	10000	4	1	0	4	0
24	892	0	10000	4	1	0	4	0
24	893	0	10000	4	1	0	4	0
25	894	0	10000	4	1	0	4	0
26	895	0	10000	4	1	0	4	0
27	896	0	10000	4	1	0	4	0
26	897	0	10000	4	1	0	4	0
25	898	0	10000	4	1	0	4	0
25	899	0	10000	4	1	0	4	0
26	900	0	10000	4	1	0	4	0
27	901	0	10000	4	1	0	4	0
26	902	0	10000	4	1	0	4	0
25	903	0	10000	4	1	0	4	0
27	904	0	10000	4	1	0	4	0
27	905	0	10000	4	1	0	4	0
26	906	0	10000	4	1	0	4	0
25	907	0	10000	4	1	0	4	0
25	908	0	10000	4	1	0	4	0
24	909	0	10000	4	1	0	4	0
24	910	0	10000	4	1	0	4	0
22	911	0	10000	4	1	0	4	0
25	912	0	10000	4	1	0	4	0
26	913	0	10000	4	1	0	4	0
27	914	0	10000	4	1	0	4	0
28	915	0	10000	4	1	0	4	0
27	916	0	10000	4	1	0	4	0
27	917	0	10000	4	1	0	4	0
27	918	0	10000	4	1	0	4	0
27	919	0	10000	4	1	0	4	0
26	920	0	10000	4	1	0	4	0
27	921	0	10000	4	1	0	4	0
26	922	0	10000	4	1	0	4	0
24	923	0	10000	4	1	0	4	0
24	924	0	10000	4	1	0	4	0
23	925	0	10000	4	1	0	4	0
24	926	0	10000	4	1	0	4	0
25	927	0	10000	4	1	0	4	0
24	928	0	10000	4	1	0	4	0
23	929	0	10000	4	1	0	4	0
26	930	0	10000	4	1	0	4	0
25	931	0	10000	4	1	0	4	0
26	932	0	10000	4	1	0	4	0
27	933	0	10000	4	1	0	4	0
25	934	0	10000	4	1	0	4	0
27	935	0	10000	4	1	0	4	0
28	936	0	10000	4	1	0	4	0
27	937	0	10000	4	1	0	4	0
25	938	0	10000	4	1	0	4	0
26	939	0	10000	4	1	0	4	0
25	940	0	10000	4	1	0	4	0
26	941	0	10000	4	1	0	4	0
24	942	0	10000	4	1	0	4	0
23	943	0	10000	4	1	0	4	0
23	944	0	10000	4	1	0	4	0
23	945	0	10000	4	1	0	4	0
23	946	0	10000	4	1	0	4	0
25	947	0	10000	4	1	0	4	0
26	948	0	10000	4	1	0	4	0
26	949	0	10000	4	1	0	4	0
25	950	0	10000	4	1	0	4	0
24	951	0	10000	4	1	0	4	0
25	952	0	10000	4	1	0	4	0
24	953	0	10000	4	1	0	4	0
23	954	0	10000	4	1	0	4	0
23	955	0	10000	4	1	0	4	0
22	956	0	10000	4	1	0	4	0
22	957	0	10000	4	1	0	4	0
21	958	0	10000	4	1	0	4	0
21	959	0	10000	4	1	0	4	0
22	960	0	10000	4	1	0	4	0
23	961	0	10000	4	1	0	4	0
21	962	0	10000	4	1	0	4	0
23	963	0	10000	4	1	0	4	0
25	964	0	10000	4	1	0	4	0
24	965	0	10000	4	1	0	4	0
24	966	0	10000	4	1	0	4	0
25	967	0	10000	4	1	0	4	0
25	968	0	10000	4	1	0	4	0
24	969	0	10000	4	1	0	4	0
23	970	0	10000	4	1	0	4	0
22	971	0	10000	4	1	0	4	0
24	972	0	10000	4	1	0	4	0
23	973	0	10000	4	1	0	4	0
22	974	0	10000	4	1	0	4	0
21	975	0	10000	4	1	0	4	0
20	976	0	10000	4	1	0	4	0
20	977	0	10000	4	1	0	4	0
21	978	0	10000	4	1	0	4	0
24	979	0	10000	4	1	0	4	0
27	980	0	10000	4	1	0	4	0
28	981	0	10000	4	1	0	4	0
27	982	0	10000	4	1	0	4	0
26	983	0	10000	4	1	0	4	0
28	984	0	10000	4	1	0	4	0
29	985	0	10000	4	1	0	4	0
29	986	0	10000	4	1	0	4	0
29	987	0	10000	4	1	0	4	0
29	988	0	10000	4	1	0	4	0
27	989	0	10000	4	1	0	4	0
26	990	0	10000	4	1	0	4	0
25	991	0	10000	4	1	0	4	0
28	992	0	10000	4	1	0	4	0
27	993	0	10000	4	1	0	4	0
25	994	0	10000	4	1	0	4	0
25	995	0	10000	4	1	0	4	0
24	996	0	10000	4	1	0	4	0
23	997	0	10000	4	1	0	4	0
23	998	0	10000	4	1	0	4	0
23	999	0	10000	4	1	0	4	0
23	1000	0	10000	4	1	0	4	0
23	1	7	10000	5	1	0	5	0
22	2	7	10000	5	1	0	5	0
22	3	7	10000	5	1	0	5	0
23	4	7	10000	5	1	0	5	0
23	5	7	10000	5	1	0	5	0
22	6	7	10000	5	1	0	5	0
21	7	7	10000	5	1	0	5	0
19	8	7	10000	5	1	0	5	0
20	9	7	10000	5	1	0	5	0
20	10	7	10000	5	1	0	5	0
19	11	7	10000	5	1	0	5	0
20	12	7	10000	5	1	0	5	0
21	13	7	10000	5	1	0	5	0
22	14	7	10000	5	1	0	5	0
23	15	7	10000	5	1	0	5	0
22	16	7	10000	5	1	0	5	0
23	17	7	10000	5	1	0	5	0
25	18	7	10000	5	1	0	5	0
23	19	7	10000	5	1	0	5	0
23	20	7	10000	5	1	0	5	0
22	21	7	10000	5	1	0	5	0
21	22	7	10000	5	1	0	5	0
20	23	7	10000	5	1	0	5	0
21	24	7	10000	5	1	0	5	0
22	25	7	10000	5	1	0	5	0
22	26	7	10000	5	1	0	5	0
21	27	7	10000	5	1	0	5	0
19	28	7	10000	5	1	0	5	0
20	29	7	10000	5	1	0	5	0
20	30	7	10000	5	1	0	5	0
19	31	7	10000	5	1	0	5	0
19	32	7	10000	5	1	0	5	0
19	33	7	10000	5	1	0	5	0
18	34	7	10000	5	1	0	5	0
18	35	7	10000	5	1	0	5	0
18	36	7	10000	5	1	0	5	0
19	37	7	10000	5	1	0	5	0
20	38	7	10000	5	1	0	5	0
19	39	7	10000	5	1	0	5	0
19	40	7	10000	5	1	0	5	0
20	41	7	10000	5	1	0	5	0
21	42	7	10000	5	1	0	5	0
20	43	7	10000	5	1	0	5	0
20	44	7	10000	5	1	0	5	0
21	45	7	10000	5	1	0	5	0
22	46	7	10000	5	1	0	5	0
21	47	7	10000	5	1	0	5	0
19	48	7	10000	5	1	0	5	0
20	49	7	10000	5	1	0	5	0
21	50	7	10000	5	1	0	5	0
21	51	7	10000	5	1	0	5	0
21	52	7	10000	5	1	0	5	0
23	53	7	10000	5	1	0	5	0
24	54	7	10000	5	1	0	5	0
23	55	7	10000	5	1	0	5	0
23	56	7	10000	5	1	0	5	0
22	57	7	10000	5	1	0	5	0
23	58	7	10000	5	1	0	5	0
22	59	7	10000	5	1	0	5	0
22	60	7	10000	5	1	0	5	0
22	61	7	10000	5	1	0	5	0
21	62	7	10000	5	1	0	5	0
20	63	7	10000	5	1	0	5	0
20	64	7	10000	5	1	0	5	0
20	65	7	10000	5	1	0	5	0
20	66	7	10000	5	1	0	5	0
19	67	7	10000	5	1	0	5	0
17	68	7	10000	5	1	0	5	0
17	69	7	10000	5	1	0	5	0
17	70	7	10000	5	1	0	5	0
17	71	7	10000	5	1	0	5	0
17	72	7	10000	5	1	0	5	0
16	73	7	10000	5	1	0	5	0
17	74	7	10000	5	1	0	5	0
16	75	7	10000	5	1	0	5	0
16	76	7	10000	5	1	0	5	0
16	77	7	10000	5	1	0	5	0
18	78	7	10000	5	1	0	5	0
18	79	7	10000	5	1	0	5	0
19	80	7	10000	5	1	0	5	0
20	81	7	10000	5	1	0	5	0
19	82	7	10000	5	1	0	5	0
20	83	7	10000	5	1	0	5	0
20	84	7	10000	5	1	0	5	0
20	85	7	10000	5	1	0	5	0
22	86	7	10000	5	1	0	5	0
22	87	7	10000	5	1	0	5	0
20	88	7	10000	5	1	0	5	0
21	89	7	10000	5	1	0	5	0
21	90	7	10000	5	1	0	5	0
21	91	7	10000	5	1	0	5	0
21	92	7	10000	5	1	0	5	0
21	93	7	10000	5	1	0	5	0
21	94	7	10000	5	1	0	5	0
21	95	7	10000	5	1	0	5	0
20	96	7	10000	5	1	0	5	0
20	97	7	10000	5	1	0	5	0
21	98	7	10000	5	1	0	5	0
20	99	7	10000	5	1	0	5	0
19	100	7	10000	5	1	0	5	0
19	101	7	10000	5	1	0	5	0
17	102	7	10000	5	1	0	5	0
18	103	7	10000	5	1	0	5	0
20	104	7	10000	5	1	0	5	0
20	105	7	10000	5	1	0	5	0
21	106	7	10000	5	1	0	5	0
20	107	7	10000	5	1	0	5	0
20	108	7	10000	5	1	0	5	0
21	109	7	10000	5	1	0	5	0
21	110	7	10000	5	1	0	5	0
21	111	7	10000	5	1	0	5	0
21	112	7	10000	5	1	0	5	0
22	113	7	10000	5	1	0	5	0
22	114	7	10000	5	1	0	5	0
21	115	7	10000	5	1	0	5	0
21	116	7	10000	5	1	0	5	0
20	117	7	10000	5	1	0	5	0
22	118	7	10000	5	1	0	5	0
21	119	7	10000	5	1	0	5	0
20	120	7	10000	5	1	0	5	0
20	121	7	10000	5	1	0	5	0
19	122	7	10000	5	1	0	5	0
19	123	7	10000	5	1	0	5	0
18	124	7	10000	5	1	0	5	0
20	125	7	10000	5	1	0	5	0
22	126	7	10000	5	1	0	5	0
22	127	7	10000	5	1	0	5	0
20	128	7	10000	5	1	0	5	0
19	129	7	10000	5	1	0	5	0
19	130	7	10000	5	1	0	5	0
20	131	7	10000	5	1	0	5	0
20	132	7	10000	5	1	0	5	0
20	133	7	10000	5	1	0	5	0
23	134	7	10000	5	1	0	5	0
24	135	7	10000	5	1	0	5	0
24	136	7	10000	5	1	0	5	0
24	137	7	10000	5	1	0	5	0
25	138	7	10000	5	1	0	5	0
24	139	7	10000	5	1	0	5	0
24	140	7	10000	5	1	0	5	0
23	141	7	10000	5	1	0	5	0
22	142	7	10000	5	1	0	5	0
20	143	7	10000	5	1	0	5	0
20	144	7	10000	5	1	0	5	0
20	145	7	10000	5	1	0	5	0
22	146	7	10000	5	1	0	5	0
21	147	7	10000	5	1	0	5	0
19	148	7	10000	5	1	0	5	0
19	149	7	10000	5	1	0	5	0
19	150	7	10000	5	1	0	5	0
20	151	7	10000	5	1	0	5	0
18	152	7	10000	5	1	0	5	0
19	153	7	10000	5	1	0	5	0
20	154	7	10000	5	1	0	5	0
20	155	7	10000	5	1	0	5	0
20	156	7	10000	5	1	0	5	0
21	157	7	10000	5	1	0	5	0
23	158	7	10000	5	1	0	5	0
24	159	7	10000	5	1	0	5	0
26	160	7	10000	5	1	0	5	0
26	161	7	10000	5	1	0	5	0
26	162	7	10000	5	1	0	5	0
26	163	7	10000	5	1	0	5	0
25	164	7	10000	5	1	0	5	0
24	165	7	10000	5	1	0	5	0
25	166	7	10000	5	1	0	5	0
23	167	7	10000	5	1	0	5	0
22	168	7	10000	5	1	0	5	0
23	169	7	10000	5	1	0	5	0
22	170	7	10000	5	1	0	5	0
22	171	7	10000	5	1	0	5	0
23	172	7	10000	5	1	0	5	0
21	173	7	10000	5	1	0	5	0
21	174	7	10000	5	1	0	5	0
21	175	7	10000	5	1	0	5	0
20	176	7	10000	5	1	0	5	0
22	177	7	10000	5	1	0	5	0
23	178	7	10000	5	1	0	5	0
22	179	7	10000	5	1	0	5	0
22	180	7	10000	5	1	0	5	0
22	181	7	10000	5	1	0	5	0
22	182	7	10000	5	1	0	5	0
23	183	7	10000	5	1	0	5	0
24	184	7	10000	5	1	0	5	0
24	185	7	10000	5	1	0	5	0
25	186	7	10000	5	1	0	5	0
25	187	7	10000	5	1	0	5	0
23	188	7	10000	5	1	0	5	0
23	189	7	10000	5	1	0	5	0
24	190	7	10000	5	1	0	5	0
23	191	7	10000	5	1	0	5	0
22	192	7	10000	5	1	0	5	0
22	193	7	10000	5	1	0	5	0
21	194	7	10000	5	1	0	5	0
21	195	7	10000	5	1	0	5	0
20	196	7	10000	5	1	0	5	0
20	197	7	10000	5	1	0	5	0
23	198	7	10000	5	1	0	5	0
22	199	7	10000	5	1	0	5	0
22	200	7	10000	5	1	0	5	0
23	201	7	10000	5	1	0	5	0
24	202	7	10000	5	1	0	5	0
25	203	7	10000	5	1	0	5	0
25	204	7	10000	5	1	0	5	0
26	205	7	10000	5	1	0	5	0
29	206	7	10000	5	1	0	5	0
29	207	7	10000	5	1	0	5	0
28	208	7	10000	5	1	0	5	0
28	209	7	10000	5	1	0	5	0
28	210	7	10000	5	1	0	5	0
28	211	7	10000	5	1	0	5	0
27	212	7	10000	5	1	0	5	0
27	213	7	10000	5	1	0	5	0
26	214	7	10000	5	1	0	5	0
25	215	7	10000	5	1	0	5	0
25	216	7	10000	5	1	0	5	0
26	217	7	10000	5	1	0	5	0
27	218	7	10000	5	1	0	5	0
26	219	7	10000	5	1	0	5	0
25	220	7	10000	5	1	0	5	0
24	221	7	10000	5	1	0	5	0
23	222	7	10000	5	1	0	5	0
22	223	7	10000	5	1	0	5	0
22	224	7	10000	5	1	0	5	0
21	225	7	10000	5	1	0	5	0
21	226	7	10000	5	1	0	5	0
20	227	7	10000	5	1	0	5	0
18	228	7	10000	5	1	0	5	0
19	229	7	10000	5	1	0	5	0
19	230	7	10000	5	1	0	5	0
20	231	7	10000	5	1	0	5	0
21	232	7	10000	5	1	0	5	0
21	233	7	10000	5	1	0	5	0
21	234	7	10000	5	1	0	5	0
20	235	7	10000	5	1	0	5	0
19	236	7	10000	5	1	0	5	0
20	237	7	10000	5	1	0	5	0
21	238	7	10000	5	1	0	5	0
20	239	7	10000	5	1	0	5	0
20	240	7	10000	5	1	0	5	0
20	241	7	10000	5	1	0	5	0
20	242	7	10000	5	1	0	5	0
21	243	7	10000	5	1	0	5	0
20	244	7	10000	5	1	0	5	0
20	245	7	10000	5	1	0	5	0
21	246	7	10000	5	1	0	5	0
20	247	7	10000	5	1	0	5	0
20	248	7	10000	5	1	0	5	0
22	249	7	10000	5	1	0	5	0
21	250	7	10000	5	1	0	5	0
21	251	7	10000	5	1	0	5	0
23	252	7	10000	5	1	0	5	0
23	253	7	10000	5	1	0	5	0
23	254	7	10000	5	1	0	5	0
22	255	7	10000	5	1	0	5	0
23	256	7	10000	5	1	0	5	0
26	257	7	10000	5	1	0	5	0
29	258	7	10000	5	1	0	5	0
27	259	7	10000	5	1	0	5	0
27	260	7	10000	5	1	0	5	0
27	261	7	10000	5	1	0	5	0
27	262	7	10000	5	1	0	5	0
26	263	7	10000	5	1	0	5	0
26	264	7	10000	5	1	0	5	0
26	265	7	10000	5	1	0	5	0
26	266	7	10000	5	1	0	5	0
26	267	7	10000	5	1	0	5	0
24	268	7	10000	5	1	0	5	0
26	269	7	10000	5	1	0	5	0
27	270	7	10000	5	1	0	5	0
28	271	7	10000	5	1	0	5	0
27	272	7	10000	5	1	0	5	0
27	273	7	10000	5	1	0	5	0
26	274	7	10000	5	1	0	5	0
24	275	7	10000	5	1	0	5	0
23	276	7	10000	5	1	0	5	0
23	277	7	10000	5	1	0	5	0
25	278	7	10000	5	1	0	5	0
24	279	7	10000	5	1	0	5	0
23	280	7	10000	5	1	0	5	0
22	281	7	10000	5	1	0	5	0
22	282	7	10000	5	1	0	5	0
22	283	7	10000	5	1	0	5	0
21	284	7	10000	5	1	0	5	0
21	285	7	10000	5	1	0	5	0
21	286	7	10000	5	1	0	5	0
21	287	7	10000	5	1	0	5	0
20	288	7	10000	5	1	0	5	0
22	289	7	10000	5	1	0	5	0
24	290	7	10000	5	1	0	5	0
25	291	7	10000	5	1	0	5	0
26	292	7	10000	5	1	0	5	0
28	293	7	10000	5	1	0	5	0
30	294	7	10000	5	1	0	5	0
30	295	7	10000	5	1	0	5	0
30	296	7	10000	5	1	0	5	0
29	297	7	10000	5	1	0	5	0
32	298	7	10000	5	1	0	5	0
34	299	7	10000	5	1	0	5	0
35	300	7	10000	5	1	0	5	0
36	301	7	10000	5	1	0	5	0
35	302	7	10000	5	1	0	5	0
36	303	7	10000	5	1	0	5	0
37	304	7	10000	5	1	0	5	0
36	305	7	10000	5	1	0	5	0
35	306	7	10000	5	1	0	5	0
33	307	7	10000	5	1	0	5	0
32	308	7	10000	5	1	0	5	0
33	309	7	10000	5	1	0	5	0
32	310	7	10000	5	1	0	5	0
33	311	7	10000	5	1	0	5	0
31	312	7	10000	5	1	0	5	0
30	313	7	10000	5	1	0	5	0
30	314	7	10000	5	1	0	5	0
28	315	7	10000	5	1	0	5	0
27	316	7	10000	5	1	0	5	0
26	317	7	10000	5	1	0	5	0
27	318	7	10000	5	1	0	5	0
24	319	7	10000	5	1	0	5	0
24	320	7	10000	5	1	0	5	0
24	321	7	10000	5	1	0	5	0
23	322	7	10000	5	1	0	5	0
23	323	7	10000	5	1	0	5	0
23	324	7	10000	5	1	0	5	0
24	325	7	10000	5	1	0	5	0
25	326	7	10000	5	1	0	5	0
24	327	7	10000	5	1	0	5	0
21	328	7	10000	5	1	0	5	0
20	329	7	10000	5	1	0	5	0
21	330	7	10000	5	1	0	5	0
24	331	7	10000	5	1	0	5	0
26	332	7	10000	5	1	0	5	0
26	333	7	10000	5	1	0	5	0
26	334	7	10000	5	1	0	5	0
27	335	7	10000	5	1	0	5	0
26	336	7	10000	5	1	0	5	0
25	337	7	10000	5	1	0	5	0
26	338	7	10000	5	1	0	5	0
26	339	7	10000	5	1	0	5	0
25	340	7	10000	5	1	0	5	0
25	341	7	10000	5	1	0	5	0
23	342	7	10000	5	1	0	5	0
22	343	7	10000	5	1	0	5	0
22	344	7	10000	5	1	0	5	0
21	345	7	10000	5	1	0	5	0
21	346	7	10000	5	1	0	5	0
21	347	7	10000	5	1	0	5	0
19	348	7	10000	5	1	0	5	0
19	349	7	10000	5	1	0	5	0
19	350	7	10000	5	1	0	5	0
19	351	7	10000	5	1	0	5	0
19	352	7	10000	5	1	0	5	0
19	353	7	10000	5	1	0	5	0
18	354	7	10000	5	1	0	5	0
17	355	7	10000	5	1	0	5	0
18	356	7	10000	5	1	0	5	0
19	357	7	10000	5	1	0	5	0
20	358	7	10000	5	1	0	5	0
19	359	7	10000	5	1	0	5	0
19	360	7	10000	5	1	0	5	0
19	361	7	10000	5	1	0	5	0
20	362	7	10000	5	1	0	5	0
20	363	7	10000	5	1	0	5	0
20	364	7	10000	5	1	0	5	0
21	365	7	10000	5	1	0	5	0
20	366	7	10000	5	1	0	5	0
20	367	7	10000	5	1	0	5	0
18	368	7	10000	5	1	0	5	0
19	369	7	10000	5	1	0	5	0
19	370	7	10000	5	1	0	5	0
19	371	7	10000	5	1	0	5	0
19	372	7	10000	5	1	0	5	0
20	373	7	10000	5	1	0	5	0
23	374	7	10000	5	1	0	5	0
22	375	7	10000	5	1	0	5	0
22	376	7	10000	5	1	0	5	0
24	377	7	10000	5	1	0	5	0
26	378	7	10000	5	1	0	5	0
26	379	7	10000	5	1	0	5	0
24	380	7	10000	5	1	0	5	0
22	381	7	10000	5	1	0	5	0
23	382	7	10000	5	1	0	5	0
23	383	7	10000	5	1	0	5	0
24	384	7	10000	5	1	0	5	0
27	385	7	10000	5	1	0	5	0
27	386	7	10000	5	1	0	5	0
26	387	7	10000	5	1	0	5	0
23	388	7	10000	5	1	0	5	0
23	389	7	10000	5	1	0	5	0
23	390	7	10000	5	1	0	5	0
25	391	7	10000	5	1	0	5	0
25	392	7	10000	5	1	0	5	0
24	393	7	10000	5	1	0	5	0
25	394	7	10000	5	1	0	5	0
25	395	7	10000	5	1	0	5	0
23	396	7	10000	5	1	0	5	0
22	397	7	10000	5	1	0	5	0
24	398	7	10000	5	1	0	5	0
23	399	7	10000	5	1	0	5	0
23	400	7	10000	5	1	0	5	0
22	401	7	10000	5	1	0	5	0
23	402	7	10000	5	1	0	5	0
22	403	7	10000	5	1	0	5	0
21	404	7	10000	5	1	0	5	0
23	405	7	10000	5	1	0	5	0
23	406	7	10000	5	1	0	5	0
24	407	7	10000	5	1	0	5	0
20	408	7	10000	5	1	0	5	0
21	409	7	10000	5	1	0	5	0
20	410	7	10000	5	1	0	5	0
20	411	7	10000	5	1	0	5	0
20	412	7	10000	5	1	0	5	0
20	413	7	10000	5	1	0	5	0
20	414	7	10000	5	1	0	5	0
18	415	7	10000	5	1	0	5	0
17	416	7	10000	5	1	0	5	0
16	417	7	10000	5	1	0	5	0
19	418	7	10000	5	1	0	5	0
19	419	7	10000	5	1	0	5	0
17	420	7	10000	5	1	0	5	0
17	421	7	10000	5	1	0	5	0
16	422	7	10000	5	1	0	5	0
16	423	7	10000	5	1	0	5	0
18	424	7	10000	5	1	0	5	0
20	425	7	10000	5	1	0	5	0
21	426	7	10000	5	1	0	5	0
20	427	7	10000	5	1	0	5	0
19	428	7	10000	5	1	0	5	0
19	429	7	10000	5	1	0	5	0
20	430	7	10000	5	1	0	5	0
19	431	7	10000	5	1	0	5	0
18	432	7	10000	5	1	0	5	0
19	433	7	10000	5	1	0	5	0
19	434	7	10000	5	1	0	5	0
18	435	7	10000	5	1	0	5	0
18	436	7	10000	5	1	0	5	0
17	437	7	10000	5	1	0	5	0
20	438	7	10000	5	1	0	5	0
19	439	7	10000	5	1	0	5	0
20	440	7	10000	5	1	0	5	0
20	441	7	10000	5	1	0	5	0
20	442	7	10000	5	1	0	5	0
19	443	7	10000	5	1	0	5	0
20	444	7	10000	5	1	0	5	0
22	445	7	10000	5	1	0	5	0
23	446	7	10000	5	1	0	5	0
25	447	7	10000	5	1	0	5	0
23	448	7	10000	5	1	0	5	0
25	449	7	10000	5	1	0	5	0
25	450	7	10000	5	1	0	5	0
24	451	7	10000	5	1	0	5	0
23	452	7	10000	5	1	0	5	0
24	453	7	10000	5	1	0	5	0
22	454	7	10000	5	1	0	5	0
22	455	7	10000	5	1	0	5	0
22	456	7	10000	5	1	0	5	0
20	457	7	10000	5	1	0	5	0
22	458	7	10000	5	1	0	5	0
22	459	7	10000	5	1	0	5	0
20	460	7	10000	5	1	0	5	0
19	461	7	10000	5	1	0	5	0
20	462	7	10000	5	1	0	5	0
19	463	7	10000	5	1	0	5	0
19	464	7	10000	5	1	0	5	0
20	465	7	10000	5	1	0	5	0
19	466	7	10000	5	1	0	5	0
19	467	7	10000	5	1	0	5	0
18	468	7	10000	5	1	0	5	0
18	469	7	10000	5	1	0	5	0
18	470	7	10000	5	1	0	5	0
20	471	7	10000	5	1	0	5	0
20	472	7	10000	5	1	0	5	0
21	473	7	10000	5	1	0	5	0
20	474	7	10000	5	1	0	5	0
20	475	7	10000	5	1	0	5	0
20	476	7	10000	5	1	0	5	0
20	477	7	10000	5	1	0	5	0
22	478	7	10000	5	1	0	5	0
21	479	7	10000	5	1	0	5	0
22	480	7	10000	5	1	0	5	0
23	481	7	10000	5	1	0	5	0
24	482	7	10000	5	1	0	5	0
23	483	7	10000	5	1	0	5	0
22	484	7	10000	5	1	0	5	0
22	485	7	10000	5	1	0	5	0
22	486	7	10000	5	1	0	5	0
22	487	7	10000	5	1	0	5	0
21	488	7	10000	5	1	0	5	0
22	489	7	10000	5	1	0	5	0
22	490	7	10000	5	1	0	5	0
22	491	7	10000	5	1	0	5	0
21	492	7	10000	5	1	0	5	0
21	493	7	10000	5	1	0	5	0
21	494	7	10000	5	1	0	5	0
20	495	7	10000	5	1	0	5	0
19	496	7	10000	5	1	0	5	0
19	497	7	10000	5	1	0	5	0
22	498	7	10000	5	1	0	5	0
21	499	7	10000	5	1	0	5	0
21	500	7	10000	5	1	0	5	0
23	501	7	10000	5	1	0	5	1
27	502	7	10000	5	1	0	5	1
32	503	7	10000	5	1	0	5	1
32	504	7	10000	5	1	0	5	1
34	505	7	10000	5	1	0	5	1
36	506	7	10000	5	1	0	5	1
36	507	7	10000	5	1	0	5	1
34	508	7	10000	5	1	0	5	1
36	509	7	10000	5	1	0	5	1
35	510	7	10000	5	1	0	5	1
34	511	7	10000	5	1	0	5	1
35	512	7	10000	5	1	0	5	1
34	513	7	10000	5	1	0	5	1
33	514	7	10000	5	1	0	5	1
32	515	7	10000	5	1	0	5	1
31	516	7	10000	5	1	0	5	1
31	517	7	10000	5	1	0	5	1
32	518	7	10000	5	1	0	5	1
31	519	7	10000	5	1	0	5	1
30	520	7	10000	5	1	0	5	1
29	521	7	10000	5	1	0	5	1
28	522	7	10000	5	1	0	5	1
28	523	7	10000	5	1	0	5	1
28	524	7	10000	5	1	0	5	1
27	525	7	10000	5	1	0	5	1
26	526	7	10000	5	1	0	5	1
26	527	7	10000	5	1	0	5	1
22	528	7	10000	5	1	0	5	1
23	529	7	10000	5	1	0	5	1
24	530	7	10000	5	1	0	5	1
24	531	7	10000	5	1	0	5	1
25	532	7	10000	5	1	0	5	1
27	533	7	10000	5	1	0	5	1
26	534	7	10000	5	1	0	5	1
25	535	7	10000	5	1	0	5	1
24	536	7	10000	5	1	0	5	1
24	537	7	10000	5	1	0	5	1
26	538	7	10000	5	1	0	5	1
27	539	7	10000	5	1	0	5	1
25	540	7	10000	5	1	0	5	1
24	541	7	10000	5	1	0	5	1
24	542	7	10000	5	1	0	5	1
24	543	7	10000	5	1	0	5	1
23	544	7	10000	5	1	0	5	1
25	545	7	10000	5	1	0	5	1
26	546	7	10000	5	1	0	5	1
25	547	7	10000	5	1	0	5	1
22	548	7	10000	5	1	0	5	1
22	549	7	10000	5	1	0	5	1
21	550	7	10000	5	1	0	5	1
22	551	7	10000	5	1	0	5	0
21	552	7	10000	5	1	0	5	0
21	553	7	10000	5	1	0	5	0
20	554	7	10000	5	1	0	5	0
20	555	7	10000	5	1	0	5	0
20	556	7	10000	5	1	0	5	0
20	557	7	10000	5	1	0	5	0
21	558	7	10000	5	1	0	5	0
20	559	7	10000	5	1	0	5	0
20	560	7	10000	5	1	0	5	0
18	561	7	10000	5	1	0	5	0
18	562	7	10000	5	1	0	5	0
18	563	7	10000	5	1	0	5	0
18	564	7	10000	5	1	0	5	0
18	565	7	10000	5	1	0	5	0
18	566	7	10000	5	1	0	5	0
18	567	7	10000	5	1	0	5	0
16	568	7	10000	5	1	0	5	0
17	569	7	10000	5	1	0	5	0
17	570	7	10000	5	1	0	5	0
18	571	7	10000	5	1	0	5	0
18	572	7	10000	5	1	0	5	0
19	573	7	10000	5	1	0	5	0
20	574	7	10000	5	1	0	5	0
19	575	7	10000	5	1	0	5	0
19	576	7	10000	5	1	0	5	0
20	577	7	10000	5	1	0	5	0
23	578	7	10000	5	1	0	5	0
27	579	7	10000	5	1	0	5	0
35	580	7	10000	5	1	0	5	0
46	581	7	10000	5	1	0	5	0
62	582	7	10000	5	1	0	5	0
74	583	7	10000	5	1	0	5	0
78	584	7	10000	5	1	0	5	0
82	585	7	10000	5	1	0	5	0
87	586	7	10000	5	1	0	5	0
104	587	7	10000	5	1	0	5	0
115	588	7	10000	5	1	0	5	0
122	589	7	10000	5	1	0	5	0
123	590	7	10000	5	1	0	5	0
124	591	7	10000	5	1	0	5	0
122	592	7	10000	5	1	0	5	0
133	593	7	10000	5	1	0	5	0
138	594	7	10000	5	1	0	5	0
165	595	7	10000	5	1	0	5	0
198	596	7	10000	5	1	0	5	0
224	597	7	10000	5	1	0	5	0
232	598	7	10000	5	1	0	5	0
278	599	7	10000	5	1	0	5	0
283	600	7	10000	5	1	0	5	0
276	601	7	10000	5	1	0	5	0
266	602	7	10000	5	1	0	5	0
270	603	7	10000	5	1	0	5	0
260	604	7	10000	5	1	0	5	0
252	605	7	10000	5	1	0	5	0
244	606	7	10000	5	1	0	5	0
243	607	7	10000	5	1	0	5	0
235	608	7	10000	5	1	0	5	0
249	609	7	10000	5	1	0	5	0
265	610	7	10000	5	1	0	5	0
259	611	7	10000	5	1	0	5	0
252	612	7	10000	5	1	0	5	0
251	613	7	10000	5	1	0	5	0
254	614	7	10000	5	1	0	5	0
247	615	7	10000	5	1	0	5	0
237	616	7	10000	5	1	0	5	0
233	617	7	10000	5	1	0	5	0
233	618	7	10000	5	1	0	5	0
231	619	7	10000	5	1	0	5	0
228	620	7	10000	5	1	0	5	0
225	621	7	10000	5	1	0	5	0
224	622	7	10000	5	1	0	5	0
222	623	7	10000	5	1	0	5	0
221	624	7	10000	5	1	0	5	0
222	625	7	10000	5	1	0	5	0
222	626	7	10000	5	1	0	5	0
221	627	7	10000	5	1	0	5	0
217	628	7	10000	5	1	0	5	0
213	629	7	10000	5	1	0	5	0
212	630	7	10000	5	1	0	5	0
209	631	7	10000	5	1	0	5	0
200	632	7	10000	5	1	0	5	0
194	633	7	10000	5	1	0	5	0
189	634	7	10000	5	1	0	5	0
184	635	7	10000	5	1	0	5	0
180	636	7	10000	5	1	0	5	0
189	637	7	10000	5	1	0	5	0
191	638	7	10000	5	1	0	5	0
199	639	7	10000	5	1	0	5	0
198	640	7	10000	5	1	0	5	0
193	641	7	10000	5	1	0	5	0
185	642	7	10000	5	1	0	5	0
185	643	7	10000	5	1	0	5	0
197	644	7	10000	5	1	0	5	0
211	645	7	10000	5	1	0	5	0
219	646	7	10000	5	1	0	5	0
222	647	7	10000	5	1	0	5	0
221	648	7	10000	5	1	0	5	0
220	649	7	10000	5	1	0	5	0
219	650	7	10000	5	1	0	5	0
217	651	7	10000	5	1	0	5	0
216	652	7	10000	5	1	0	5	0
215	653	7	10000	5	1	0	5	0
215	654	7	10000	5	1	0	5	0
212	655	7	10000	5	1	0	5	0
212	656	7	10000	5	1	0	5	0
211	657	7	10000	5	1	0	5	0
213	658	7	10000	5	1	0	5	0
212	659	7	10000	5	1	0	5	0
211	660	7	10000	5	1	0	5	0
205	661	7	10000	5	1	0	5	0
198	662	7	10000	5	1	0	5	0
191	663	7	10000	5	1	0	5	0
184	664	7	10000	5	1	0	5	0
178	665	7	10000	5	1	0	5	0
175	666	7	10000	5	1	0	5	0
168	667	7	10000	5	1	0	5	0
160	668	7	10000	5	1	0	5	0
155	669	7	10000	5	1	0	5	0
152	670	7	10000	5	1	0	5	0
149	671	7	10000	5	1	0	5	0
147	672	7	10000	5	1	0	5	0
143	673	7	10000	5	1	0	5	0
141	674	7	10000	5	1	0	5	0
139	675	7	10000	5	1	0	5	0
134	676	7	10000	5	1	0	5	0
129	677	7	10000	5	1	0	5	0
128	678	7	10000	5	1	0	5	0
122	679	7	10000	5	1	0	5	0
119	680	7	10000	5	1	0	5	0
115	681	7	10000	5	1	0	5	0
110	682	7	10000	5	1	0	5	0
106	683	7	10000	5	1	0	5	0
103	684	7	10000	5	1	0	5	0
101	685	7	10000	5	1	0	5	0
96	686	7	10000	5	1	0	5	0
92	687	7	10000	5	1	0	5	0
86	688	7	10000	5	1	0	5	0
83	689	7	10000	5	1	0	5	0
80	690	7	10000	5	1	0	5	0
79	691	7	10000	5	1	0	5	0
79	692	7	10000	5	1	0	5	0
78	693	7	10000	5	1	0	5	0
76	694	7	10000	5	1	0	5	0
75	695	7	10000	5	1	0	5	0
73	696	7	10000	5	1	0	5	0
74	697	7	10000	5	1	0	5	0
76	698	7	10000	5	1	0	5	0
75	699	7	10000	5	1	0	5	0
72	700	7	10000	5	1	0	5	0
70	701	7	10000	5	1	0	5	0
68	702	7	10000	5	1	0	5	0
68	703	7	10000	5	1	0	5	0
69	704	7	10000	5	1	0	5	0
70	705	7	10000	5	1	0	5	0
71	706	7	10000	5	1	0	5	0
72	707	7	10000	5	1	0	5	0
70	708	7	10000	5	1	0	5	0
72	709	7	10000	5	1	0	5	0
73	710	7	10000	5	1	0	5	0
76	711	7	10000	5	1	0	5	0
78	712	7	10000	5	1	0	5	0
79	713	7	10000	5	1	0	5	0
79	714	7	10000	5	1	0	5	0
78	715	7	10000	5	1	0	5	0
77	716	7	10000	5	1	0	5	0
79	717	7	10000	5	1	0	5	0
81	718	7	10000	5	1	0	5	0
80	719	7	10000	5	1	0	5	0
83	720	7	10000	5	1	0	5	0
87	721	7	10000	5	1	0	5	0
86	722	7	10000	5	1	0	5	0
82	723	7	10000	5	1	0	5	0
79	724	7	10000	5	1	0	5	0
78	725	7	10000	5	1	0	5	0
78	726	7	10000	5	1	0	5	0
76	727	7	10000	5	1	0	5	0
70	728	7	10000	5	1	0	5	0
71	729	7	10000	5	1	0	5	0
73	730	7	10000	5	1	0	5	0
75	731	7	10000	5	1	0	5	0
76	732	7	10000	5	1	0	5	0
78	733	7	10000	5	1	0	5	0
80	734	7	10000	5	1	0	5	0
80	735	7	10000	5	1	0	5	0
81	736	7	10000	5	1	0	5	0
81	737	7	10000	5	1	0	5	0
83	738	7	10000	5	1	0	5	0
81	739	7	10000	5	1	0	5	0
80	740	7	10000	5	1	0	5	0
78	741	7	10000	5	1	0	5	0
77	742	7	10000	5	1	0	5	0
75	743	7	10000	5	1	0	5	0
71	744	7	10000	5	1	0	5	0
70	745	7	10000	5	1	0	5	0
76	746	7	10000	5	1	0	5	0
77	747	7	10000	5	1	0	5	0
72	748	7	10000	5	1	0	5	0
70	749	7	10000	5	1	0	5	0
67	750	7	10000	5	1	0	5	0
66	751	7	10000	5	1	0	5	0
67	752	7	10000	5	1	0	5	0
68	753	7	10000	5	1	0	5	0
69	754	7	10000	5	1	0	5	0
66	755	7	10000	5	1	0	5	0
63	756	7	10000	5	1	0	5	0
61	757	7	10000	5	1	0	5	0
61	758	7	10000	5	1	0	5	0
57	759	7	10000	5	1	0	5	0
55	760	7	10000	5	1	0	5	0
53	761	7	10000	5	1	0	5	0
54	762	7	10000	5	1	0	5	0
53	763	7	10000	5	1	0	5	0
52	764	7	10000	5	1	0	5	0
52	765	7	10000	5	1	0	5	0
50	766	7	10000	5	1	0	5	0
48	767	7	10000	5	1	0	5	0
46	768	7	10000	5	1	0	5	0
48	769	7	10000	5	1	0	5	0
51	770	7	10000	5	1	0	5	0
53	771	7	10000	5	1	0	5	0
53	772	7	10000	5	1	0	5	0
53	773	7	10000	5	1	0	5	0
53	774	7	10000	5	1	0	5	0
51	775	7	10000	5	1	0	5	0
48	776	7	10000	5	1	0	5	0
46	777	7	10000	5	1	0	5	0
48	778	7	10000	5	1	0	5	0
47	779	7	10000	5	1	0	5	0
46	780	7	10000	5	1	0	5	0
44	781	7	10000	5	1	0	5	0
45	782	7	10000	5	1	0	5	0
43	783	7	10000	5	1	0	5	0
42	784	7	10000	5	1	0	5	0
41	785	7	10000	5	1	0	5	0
40	786	7	10000	5	1	0	5	0
40	787	7	10000	5	1	0	5	0
37	788	7	10000	5	1	0	5	0
36	789	7	10000	5	1	0	5	0
