value	EMG	Stimulus	EMG_sensitivity	Total_Trial_Nr	practise	acq	probe_nr	Startle_Probe
34	1	0	10000	1	1	0	1	0
37	2	0	10000	1	1	0	1	0
40	3	0	10000	1	1	0	1	0
48	4	0	10000	1	1	0	1	0
56	5	0	10000	1	1	0	1	0
57	6	0	10000	1	1	0	1	0
56	7	0	10000	1	1	0	1	0
61	8	0	10000	1	1	0	1	0
70	9	0	10000	1	1	0	1	0
83	10	0	10000	1	1	0	1	0
103	11	0	10000	1	1	0	1	0
118	12	0	10000	1	1	0	1	0
115	13	0	10000	1	1	0	1	0
115	14	0	10000	1	1	0	1	0
118	15	0	10000	1	1	0	1	0
121	16	0	10000	1	1	0	1	0
125	17	0	10000	1	1	0	1	0
128	18	0	10000	1	1	0	1	0
128	19	0	10000	1	1	0	1	0
121	20	0	10000	1	1	0	1	0
118	21	0	10000	1	1	0	1	0
115	22	0	10000	1	1	0	1	0
115	23	0	10000	1	1	0	1	0
116	24	0	10000	1	1	0	1	0
112	25	0	10000	1	1	0	1	0
113	26	0	10000	1	1	0	1	0
115	27	0	10000	1	1	0	1	0
119	28	0	10000	1	1	0	1	0
123	29	0	10000	1	1	0	1	0
138	30	0	10000	1	1	0	1	0
146	31	0	10000	1	1	0	1	0
142	32	0	10000	1	1	0	1	0
141	33	0	10000	1	1	0	1	0
144	34	0	10000	1	1	0	1	0
149	35	0	10000	1	1	0	1	0
153	36	0	10000	1	1	0	1	0
158	37	0	10000	1	1	0	1	0
156	38	0	10000	1	1	0	1	0
151	39	0	10000	1	1	0	1	0
144	40	0	10000	1	1	0	1	0
143	41	0	10000	1	1	0	1	0
139	42	0	10000	1	1	0	1	0
134	43	0	10000	1	1	0	1	0
129	44	0	10000	1	1	0	1	0
125	45	0	10000	1	1	0	1	0
125	46	0	10000	1	1	0	1	0
124	47	0	10000	1	1	0	1	0
122	48	0	10000	1	1	0	1	0
121	49	0	10000	1	1	0	1	0
122	50	0	10000	1	1	0	1	0
117	51	0	10000	1	1	0	1	0
113	52	0	10000	1	1	0	1	0
113	53	0	10000	1	1	0	1	0
110	54	0	10000	1	1	0	1	0
107	55	0	10000	1	1	0	1	0
104	56	0	10000	1	1	0	1	0
110	57	0	10000	1	1	0	1	0
109	58	0	10000	1	1	0	1	0
108	59	0	10000	1	1	0	1	0
104	60	0	10000	1	1	0	1	0
110	61	0	10000	1	1	0	1	0
116	62	0	10000	1	1	0	1	0
117	63	0	10000	1	1	0	1	0
116	64	0	10000	1	1	0	1	0
116	65	0	10000	1	1	0	1	0
118	66	0	10000	1	1	0	1	0
117	67	0	10000	1	1	0	1	0
117	68	0	10000	1	1	0	1	0
114	69	0	10000	1	1	0	1	0
112	70	0	10000	1	1	0	1	0
107	71	0	10000	1	1	0	1	0
102	72	0	10000	1	1	0	1	0
102	73	0	10000	1	1	0	1	0
106	74	0	10000	1	1	0	1	0
110	75	0	10000	1	1	0	1	0
110	76	0	10000	1	1	0	1	0
108	77	0	10000	1	1	0	1	0
105	78	0	10000	1	1	0	1	0
103	79	0	10000	1	1	0	1	0
97	80	0	10000	1	1	0	1	0
94	81	0	10000	1	1	0	1	0
96	82	0	10000	1	1	0	1	0
101	83	0	10000	1	1	0	1	0
105	84	0	10000	1	1	0	1	0
111	85	0	10000	1	1	0	1	0
114	86	0	10000	1	1	0	1	0
110	87	0	10000	1	1	0	1	0
107	88	0	10000	1	1	0	1	0
106	89	0	10000	1	1	0	1	0
107	90	0	10000	1	1	0	1	0
104	91	0	10000	1	1	0	1	0
100	92	0	10000	1	1	0	1	0
101	93	0	10000	1	1	0	1	0
103	94	0	10000	1	1	0	1	0
105	95	0	10000	1	1	0	1	0
107	96	0	10000	1	1	0	1	0
108	97	0	10000	1	1	0	1	0
109	98	0	10000	1	1	0	1	0
113	99	0	10000	1	1	0	1	0
114	100	0	10000	1	1	0	1	0
116	101	0	10000	1	1	0	1	0
117	102	0	10000	1	1	0	1	0
117	103	0	10000	1	1	0	1	0
114	104	0	10000	1	1	0	1	0
110	105	0	10000	1	1	0	1	0
106	106	0	10000	1	1	0	1	0
103	107	0	10000	1	1	0	1	0
99	108	0	10000	1	1	0	1	0
100	109	0	10000	1	1	0	1	0
106	110	0	10000	1	1	0	1	0
107	111	0	10000	1	1	0	1	0
106	112	0	10000	1	1	0	1	0
102	113	0	10000	1	1	0	1	0
97	114	0	10000	1	1	0	1	0
93	115	0	10000	1	1	0	1	0
89	116	0	10000	1	1	0	1	0
86	117	0	10000	1	1	0	1	0
84	118	0	10000	1	1	0	1	0
83	119	0	10000	1	1	0	1	0
82	120	0	10000	1	1	0	1	0
83	121	0	10000	1	1	0	1	0
82	122	0	10000	1	1	0	1	0
79	123	0	10000	1	1	0	1	0
77	124	0	10000	1	1	0	1	0
76	125	0	10000	1	1	0	1	0
74	126	0	10000	1	1	0	1	0
71	127	0	10000	1	1	0	1	0
73	128	0	10000	1	1	0	1	0
77	129	0	10000	1	1	0	1	0
82	130	0	10000	1	1	0	1	0
81	131	0	10000	1	1	0	1	0
79	132	0	10000	1	1	0	1	0
81	133	0	10000	1	1	0	1	0
84	134	0	10000	1	1	0	1	0
86	135	0	10000	1	1	0	1	0
87	136	0	10000	1	1	0	1	0
88	137	0	10000	1	1	0	1	0
84	138	0	10000	1	1	0	1	0
84	139	0	10000	1	1	0	1	0
86	140	0	10000	1	1	0	1	0
88	141	0	10000	1	1	0	1	0
86	142	0	10000	1	1	0	1	0
84	143	0	10000	1	1	0	1	0
85	144	0	10000	1	1	0	1	0
92	145	0	10000	1	1	0	1	0
97	146	0	10000	1	1	0	1	0
100	147	0	10000	1	1	0	1	0
103	148	0	10000	1	1	0	1	0
103	149	0	10000	1	1	0	1	0
103	150	0	10000	1	1	0	1	0
100	151	0	10000	1	1	0	1	0
97	152	0	10000	1	1	0	1	0
95	153	0	10000	1	1	0	1	0
92	154	0	10000	1	1	0	1	0
88	155	0	10000	1	1	0	1	0
88	156	0	10000	1	1	0	1	0
92	157	0	10000	1	1	0	1	0
99	158	0	10000	1	1	0	1	0
105	159	0	10000	1	1	0	1	0
105	160	0	10000	1	1	0	1	0
107	161	0	10000	1	1	0	1	0
111	162	0	10000	1	1	0	1	0
116	163	0	10000	1	1	0	1	0
120	164	0	10000	1	1	0	1	0
126	165	0	10000	1	1	0	1	0
130	166	0	10000	1	1	0	1	0
131	167	0	10000	1	1	0	1	0
132	168	0	10000	1	1	0	1	0
133	169	0	10000	1	1	0	1	0
137	170	0	10000	1	1	0	1	0
138	171	0	10000	1	1	0	1	0
141	172	0	10000	1	1	0	1	0
143	173	0	10000	1	1	0	1	0
147	174	0	10000	1	1	0	1	0
149	175	0	10000	1	1	0	1	0
150	176	0	10000	1	1	0	1	0
152	177	0	10000	1	1	0	1	0
156	178	0	10000	1	1	0	1	0
158	179	0	10000	1	1	0	1	0
158	180	0	10000	1	1	0	1	0
158	181	0	10000	1	1	0	1	0
158	182	0	10000	1	1	0	1	0
158	183	0	10000	1	1	0	1	0
160	184	0	10000	1	1	0	1	0
159	185	0	10000	1	1	0	1	0
160	186	0	10000	1	1	0	1	0
159	187	0	10000	1	1	0	1	0
159	188	0	10000	1	1	0	1	0
157	189	0	10000	1	1	0	1	0
157	190	0	10000	1	1	0	1	0
156	191	0	10000	1	1	0	1	0
155	192	0	10000	1	1	0	1	0
152	193	0	10000	1	1	0	1	0
152	194	0	10000	1	1	0	1	0
151	195	0	10000	1	1	0	1	0
147	196	0	10000	1	1	0	1	0
144	197	0	10000	1	1	0	1	0
141	198	0	10000	1	1	0	1	0
137	199	0	10000	1	1	0	1	0
133	200	0	10000	1	1	0	1	0
131	201	0	10000	1	1	0	1	0
131	202	0	10000	1	1	0	1	0
130	203	0	10000	1	1	0	1	0
129	204	0	10000	1	1	0	1	0
127	205	0	10000	1	1	0	1	0
125	206	0	10000	1	1	0	1	0
120	207	0	10000	1	1	0	1	0
118	208	0	10000	1	1	0	1	0
116	209	0	10000	1	1	0	1	0
114	210	0	10000	1	1	0	1	0
110	211	0	10000	1	1	0	1	0
106	212	0	10000	1	1	0	1	0
103	213	0	10000	1	1	0	1	0
102	214	0	10000	1	1	0	1	0
98	215	0	10000	1	1	0	1	0
97	216	0	10000	1	1	0	1	0
97	217	0	10000	1	1	0	1	0
94	218	0	10000	1	1	0	1	0
91	219	0	10000	1	1	0	1	0
85	220	0	10000	1	1	0	1	0
81	221	0	10000	1	1	0	1	0
79	222	0	10000	1	1	0	1	0
76	223	0	10000	1	1	0	1	0
72	224	0	10000	1	1	0	1	0
70	225	0	10000	1	1	0	1	0
70	226	0	10000	1	1	0	1	0
70	227	0	10000	1	1	0	1	0
68	228	0	10000	1	1	0	1	0
67	229	0	10000	1	1	0	1	0
68	230	0	10000	1	1	0	1	0
65	231	0	10000	1	1	0	1	0
62	232	0	10000	1	1	0	1	0
59	233	0	10000	1	1	0	1	0
56	234	0	10000	1	1	0	1	0
55	235	0	10000	1	1	0	1	0
54	236	0	10000	1	1	0	1	0
53	237	0	10000	1	1	0	1	0
52	238	0	10000	1	1	0	1	0
50	239	0	10000	1	1	0	1	0
47	240	0	10000	1	1	0	1	0
45	241	0	10000	1	1	0	1	0
43	242	0	10000	1	1	0	1	0
45	243	0	10000	1	1	0	1	0
47	244	0	10000	1	1	0	1	0
47	245	0	10000	1	1	0	1	0
46	246	0	10000	1	1	0	1	0
44	247	0	10000	1	1	0	1	0
42	248	0	10000	1	1	0	1	0
41	249	0	10000	1	1	0	1	0
42	250	0	10000	1	1	0	1	0
39	251	0	10000	1	1	0	1	0
37	252	0	10000	1	1	0	1	0
35	253	0	10000	1	1	0	1	0
34	254	0	10000	1	1	0	1	0
34	255	0	10000	1	1	0	1	0
34	256	0	10000	1	1	0	1	0
33	257	0	10000	1	1	0	1	0
34	258	0	10000	1	1	0	1	0
34	259	0	10000	1	1	0	1	0
32	260	0	10000	1	1	0	1	0
32	261	0	10000	1	1	0	1	0
30	262	0	10000	1	1	0	1	0
30	263	0	10000	1	1	0	1	0
30	264	0	10000	1	1	0	1	0
30	265	0	10000	1	1	0	1	0
30	266	0	10000	1	1	0	1	0
29	267	0	10000	1	1	0	1	0
29	268	0	10000	1	1	0	1	0
28	269	0	10000	1	1	0	1	0
31	270	0	10000	1	1	0	1	0
33	271	0	10000	1	1	0	1	0
36	272	0	10000	1	1	0	1	0
36	273	0	10000	1	1	0	1	0
34	274	0	10000	1	1	0	1	0
35	275	0	10000	1	1	0	1	0
36	276	0	10000	1	1	0	1	0
37	277	0	10000	1	1	0	1	0
41	278	0	10000	1	1	0	1	0
44	279	0	10000	1	1	0	1	0
44	280	0	10000	1	1	0	1	0
44	281	0	10000	1	1	0	1	0
45	282	0	10000	1	1	0	1	0
48	283	0	10000	1	1	0	1	0
50	284	0	10000	1	1	0	1	0
52	285	0	10000	1	1	0	1	0
57	286	0	10000	1	1	0	1	0
61	287	0	10000	1	1	0	1	0
64	288	0	10000	1	1	0	1	0
62	289	0	10000	1	1	0	1	0
61	290	0	10000	1	1	0	1	0
59	291	0	10000	1	1	0	1	0
58	292	0	10000	1	1	0	1	0
57	293	0	10000	1	1	0	1	0
56	294	0	10000	1	1	0	1	0
54	295	0	10000	1	1	0	1	0
53	296	0	10000	1	1	0	1	0
53	297	0	10000	1	1	0	1	0
50	298	0	10000	1	1	0	1	0
49	299	0	10000	1	1	0	1	0
45	300	0	10000	1	1	0	1	0
44	301	0	10000	1	1	0	1	0
44	302	0	10000	1	1	0	1	0
44	303	0	10000	1	1	0	1	0
43	304	0	10000	1	1	0	1	0
43	305	0	10000	1	1	0	1	0
44	306	0	10000	1	1	0	1	0
42	307	0	10000	1	1	0	1	0
42	308	0	10000	1	1	0	1	0
39	309	0	10000	1	1	0	1	0
40	310	0	10000	1	1	0	1	0
40	311	0	10000	1	1	0	1	0
40	312	0	10000	1	1	0	1	0
38	313	0	10000	1	1	0	1	0
37	314	0	10000	1	1	0	1	0
37	315	0	10000	1	1	0	1	0
35	316	0	10000	1	1	0	1	0
34	317	0	10000	1	1	0	1	0
33	318	0	10000	1	1	0	1	0
32	319	0	10000	1	1	0	1	0
29	320	0	10000	1	1	0	1	0
29	321	0	10000	1	1	0	1	0
29	322	0	10000	1	1	0	1	0
31	323	0	10000	1	1	0	1	0
31	324	0	10000	1	1	0	1	0
31	325	0	10000	1	1	0	1	0
30	326	0	10000	1	1	0	1	0
29	327	0	10000	1	1	0	1	0
30	328	0	10000	1	1	0	1	0
30	329	0	10000	1	1	0	1	0
31	330	0	10000	1	1	0	1	0
30	331	0	10000	1	1	0	1	0
31	332	0	10000	1	1	0	1	0
32	333	0	10000	1	1	0	1	0
32	334	0	10000	1	1	0	1	0
32	335	0	10000	1	1	0	1	0
32	336	0	10000	1	1	0	1	0
32	337	0	10000	1	1	0	1	0
32	338	0	10000	1	1	0	1	0
32	339	0	10000	1	1	0	1	0
30	340	0	10000	1	1	0	1	0
30	341	0	10000	1	1	0	1	0
30	342	0	10000	1	1	0	1	0
29	343	0	10000	1	1	0	1	0
30	344	0	10000	1	1	0	1	0
30	345	0	10000	1	1	0	1	0
30	346	0	10000	1	1	0	1	0
32	347	0	10000	1	1	0	1	0
33	348	0	10000	1	1	0	1	0
34	349	0	10000	1	1	0	1	0
39	350	0	10000	1	1	0	1	0
44	351	0	10000	1	1	0	1	0
45	352	0	10000	1	1	0	1	0
44	353	0	10000	1	1	0	1	0
43	354	0	10000	1	1	0	1	0
44	355	0	10000	1	1	0	1	0
43	356	0	10000	1	1	0	1	0
42	357	0	10000	1	1	0	1	0
41	358	0	10000	1	1	0	1	0
39	359	0	10000	1	1	0	1	0
36	360	0	10000	1	1	0	1	0
36	361	0	10000	1	1	0	1	0
36	362	0	10000	1	1	0	1	0
36	363	0	10000	1	1	0	1	0
36	364	0	10000	1	1	0	1	0
35	365	0	10000	1	1	0	1	0
36	366	0	10000	1	1	0	1	0
34	367	0	10000	1	1	0	1	0
32	368	0	10000	1	1	0	1	0
31	369	0	10000	1	1	0	1	0
32	370	0	10000	1	1	0	1	0
30	371	0	10000	1	1	0	1	0
29	372	0	10000	1	1	0	1	0
28	373	0	10000	1	1	0	1	0
26	374	0	10000	1	1	0	1	0
26	375	0	10000	1	1	0	1	0
27	376	0	10000	1	1	0	1	0
31	377	0	10000	1	1	0	1	0
33	378	0	10000	1	1	0	1	0
37	379	0	10000	1	1	0	1	0
40	380	0	10000	1	1	0	1	0
40	381	0	10000	1	1	0	1	0
39	382	0	10000	1	1	0	1	0
39	383	0	10000	1	1	0	1	0
37	384	0	10000	1	1	0	1	0
37	385	0	10000	1	1	0	1	0
37	386	0	10000	1	1	0	1	0
37	387	0	10000	1	1	0	1	0
39	388	0	10000	1	1	0	1	0
37	389	0	10000	1	1	0	1	0
36	390	0	10000	1	1	0	1	0
36	391	0	10000	1	1	0	1	0
37	392	0	10000	1	1	0	1	0
40	393	0	10000	1	1	0	1	0
44	394	0	10000	1	1	0	1	0
45	395	0	10000	1	1	0	1	0
44	396	0	10000	1	1	0	1	0
43	397	0	10000	1	1	0	1	0
42	398	0	10000	1	1	0	1	0
41	399	0	10000	1	1	0	1	0
37	400	0	10000	1	1	0	1	0
36	401	0	10000	1	1	0	1	0
35	402	0	10000	1	1	0	1	0
34	403	0	10000	1	1	0	1	0
32	404	0	10000	1	1	0	1	0
31	405	0	10000	1	1	0	1	0
31	406	0	10000	1	1	0	1	0
32	407	0	10000	1	1	0	1	0
32	408	0	10000	1	1	0	1	0
32	409	0	10000	1	1	0	1	0
34	410	0	10000	1	1	0	1	0
34	411	0	10000	1	1	0	1	0
35	412	0	10000	1	1	0	1	0
37	413	0	10000	1	1	0	1	0
39	414	0	10000	1	1	0	1	0
38	415	0	10000	1	1	0	1	0
35	416	0	10000	1	1	0	1	0
35	417	0	10000	1	1	0	1	0
35	418	0	10000	1	1	0	1	0
35	419	0	10000	1	1	0	1	0
34	420	0	10000	1	1	0	1	0
35	421	0	10000	1	1	0	1	0
34	422	0	10000	1	1	0	1	0
34	423	0	10000	1	1	0	1	0
34	424	0	10000	1	1	0	1	0
33	425	0	10000	1	1	0	1	0
35	426	0	10000	1	1	0	1	0
34	427	0	10000	1	1	0	1	0
34	428	0	10000	1	1	0	1	0
33	429	0	10000	1	1	0	1	0
34	430	0	10000	1	1	0	1	0
32	431	0	10000	1	1	0	1	0
31	432	0	10000	1	1	0	1	0
30	433	0	10000	1	1	0	1	0
28	434	0	10000	1	1	0	1	0
28	435	0	10000	1	1	0	1	0
27	436	0	10000	1	1	0	1	0
27	437	0	10000	1	1	0	1	0
26	438	0	10000	1	1	0	1	0
25	439	0	10000	1	1	0	1	0
23	440	0	10000	1	1	0	1	0
23	441	0	10000	1	1	0	1	0
22	442	0	10000	1	1	0	1	0
22	443	0	10000	1	1	0	1	0
23	444	0	10000	1	1	0	1	0
25	445	0	10000	1	1	0	1	0
27	446	0	10000	1	1	0	1	0
26	447	0	10000	1	1	0	1	0
25	448	0	10000	1	1	0	1	0
26	449	0	10000	1	1	0	1	0
30	450	0	10000	1	1	0	1	0
32	451	0	10000	1	1	0	1	0
33	452	0	10000	1	1	0	1	0
34	453	0	10000	1	1	0	1	0
35	454	0	10000	1	1	0	1	0
33	455	0	10000	1	1	0	1	0
34	456	0	10000	1	1	0	1	0
36	457	0	10000	1	1	0	1	0
35	458	0	10000	1	1	0	1	0
35	459	0	10000	1	1	0	1	0
34	460	0	10000	1	1	0	1	0
34	461	0	10000	1	1	0	1	0
34	462	0	10000	1	1	0	1	0
33	463	0	10000	1	1	0	1	0
31	464	0	10000	1	1	0	1	0
31	465	0	10000	1	1	0	1	0
31	466	0	10000	1	1	0	1	0
30	467	0	10000	1	1	0	1	0
30	468	0	10000	1	1	0	1	0
33	469	0	10000	1	1	0	1	0
37	470	0	10000	1	1	0	1	0
36	471	0	10000	1	1	0	1	0
36	472	0	10000	1	1	0	1	0
38	473	0	10000	1	1	0	1	0
39	474	0	10000	1	1	0	1	0
40	475	0	10000	1	1	0	1	0
40	476	0	10000	1	1	0	1	0
41	477	0	10000	1	1	0	1	0
42	478	0	10000	1	1	0	1	0
43	479	0	10000	1	1	0	1	0
39	480	0	10000	1	1	0	1	0
38	481	0	10000	1	1	0	1	0
38	482	0	10000	1	1	0	1	0
37	483	0	10000	1	1	0	1	0
36	484	0	10000	1	1	0	1	0
35	485	0	10000	1	1	0	1	0
35	486	0	10000	1	1	0	1	0
33	487	0	10000	1	1	0	1	0
34	488	0	10000	1	1	0	1	0
33	489	0	10000	1	1	0	1	0
33	490	0	10000	1	1	0	1	0
33	491	0	10000	1	1	0	1	0
32	492	0	10000	1	1	0	1	0
32	493	0	10000	1	1	0	1	0
32	494	0	10000	1	1	0	1	0
33	495	0	10000	1	1	0	1	0
33	496	0	10000	1	1	0	1	0
34	497	0	10000	1	1	0	1	0
34	498	0	10000	1	1	0	1	0
35	499	0	10000	1	1	0	1	0
34	500	0	10000	1	1	0	1	0
33	537	0	10000	1	1	0	1	1
32	538	0	10000	1	1	0	1	1
31	539	0	10000	1	1	0	1	1
32	540	0	10000	1	1	0	1	1
32	541	0	10000	1	1	0	1	1
34	542	0	10000	1	1	0	1	1
32	543	0	10000	1	1	0	1	1
30	544	0	10000	1	1	0	1	1
30	545	0	10000	1	1	0	1	1
33	546	0	10000	1	1	0	1	1
35	547	0	10000	1	1	0	1	1
36	548	0	10000	1	1	0	1	1
34	549	0	10000	1	1	0	1	1
35	550	0	10000	1	1	0	1	1
36	551	0	10000	1	1	0	1	1
33	552	0	10000	1	1	0	1	1
34	553	0	10000	1	1	0	1	1
34	554	0	10000	1	1	0	1	1
33	555	0	10000	1	1	0	1	1
31	556	0	10000	1	1	0	1	1
31	557	0	10000	1	1	0	1	1
30	558	0	10000	1	1	0	1	1
30	559	0	10000	1	1	0	1	1
29	560	0	10000	1	1	0	1	1
29	561	0	10000	1	1	0	1	1
28	562	0	10000	1	1	0	1	1
26	563	0	10000	1	1	0	1	1
25	564	0	10000	1	1	0	1	1
26	565	0	10000	1	1	0	1	1
26	566	0	10000	1	1	0	1	1
26	567	0	10000	1	1	0	1	1
29	568	0	10000	1	1	0	1	1
28	569	0	10000	1	1	0	1	1
30	570	0	10000	1	1	0	1	1
34	571	0	10000	1	1	0	1	1
36	572	0	10000	1	1	0	1	1
38	573	0	10000	1	1	0	1	1
37	574	0	10000	1	1	0	1	1
36	540	0	10000	1	1	0	1	1
33	541	0	10000	1	1	0	1	1
32	541	0	10000	1	1	0	1	1
31	542	0	10000	1	1	0	1	1
30	543	0	10000	1	1	0	1	1
30	544	0	10000	1	1	0	1	1
29	545	0	10000	1	1	0	1	1
30	546	0	10000	1	1	0	1	1
29	547	0	10000	1	1	0	1	1
29	548	0	10000	1	1	0	1	1
29	549	0	10000	1	1	0	1	1
31	550	0	10000	1	1	0	1	1
31	551	0	10000	1	1	0	1	0
30	552	0	10000	1	1	0	1	0
28	553	0	10000	1	1	0	1	0
28	554	0	10000	1	1	0	1	0
27	555	0	10000	1	1	0	1	0
25	556	0	10000	1	1	0	1	0
25	557	0	10000	1	1	0	1	0
24	558	0	10000	1	1	0	1	0
23	559	0	10000	1	1	0	1	0
21	560	0	10000	1	1	0	1	0
21	561	0	10000	1	1	0	1	0
22	562	0	10000	1	1	0	1	0
21	563	0	10000	1	1	0	1	0
21	564	0	10000	1	1	0	1	0
21	565	0	10000	1	1	0	1	0
21	566	0	10000	1	1	0	1	0
20	567	0	10000	1	1	0	1	0
19	568	0	10000	1	1	0	1	0
19	569	0	10000	1	1	0	1	0
20	570	0	10000	1	1	0	1	0
20	571	0	10000	1	1	0	1	0
19	572	0	10000	1	1	0	1	0
20	573	0	10000	1	1	0	1	0
19	574	0	10000	1	1	0	1	0
21	575	0	10000	1	1	0	1	0
22	576	0	10000	1	1	0	1	0
22	577	0	10000	1	1	0	1	0
24	578	0	10000	1	1	0	1	0
27	579	0	10000	1	1	0	1	0
27	580	0	10000	1	1	0	1	0
28	581	0	10000	1	1	0	1	0
28	582	0	10000	1	1	0	1	0
29	583	0	10000	1	1	0	1	0
28	584	0	10000	1	1	0	1	0
28	585	0	10000	1	1	0	1	0
29	586	0	10000	1	1	0	1	0
28	587	0	10000	1	1	0	1	0
27	588	0	10000	1	1	0	1	0
28	589	0	10000	1	1	0	1	0
29	590	0	10000	1	1	0	1	0
29	591	0	10000	1	1	0	1	0
28	592	0	10000	1	1	0	1	0
29	593	0	10000	1	1	0	1	0
32	594	0	10000	1	1	0	1	0
32	595	0	10000	1	1	0	1	0
35	596	0	10000	1	1	0	1	0
38	597	0	10000	1	1	0	1	0
39	598	0	10000	1	1	0	1	0
37	599	0	10000	1	1	0	1	0
34	600	0	10000	1	1	0	1	0
33	601	0	10000	1	1	0	1	0
32	602	0	10000	1	1	0	1	0
31	603	0	10000	1	1	0	1	0
31	604	0	10000	1	1	0	1	0
31	605	0	10000	1	1	0	1	0
30	606	0	10000	1	1	0	1	0
29	607	0	10000	1	1	0	1	0
28	608	0	10000	1	1	0	1	0
28	609	0	10000	1	1	0	1	0
28	610	0	10000	1	1	0	1	0
26	611	0	10000	1	1	0	1	0
27	612	0	10000	1	1	0	1	0
24	613	0	10000	1	1	0	1	0
24	614	0	10000	1	1	0	1	0
23	615	0	10000	1	1	0	1	0
23	616	0	10000	1	1	0	1	0
24	617	0	10000	1	1	0	1	0
24	618	0	10000	1	1	0	1	0
23	619	0	10000	1	1	0	1	0
21	620	0	10000	1	1	0	1	0
20	621	0	10000	1	1	0	1	0
20	622	0	10000	1	1	0	1	0
20	623	0	10000	1	1	0	1	0
20	624	0	10000	1	1	0	1	0
20	625	0	10000	1	1	0	1	0
21	626	0	10000	1	1	0	1	0
24	627	0	10000	1	1	0	1	0
26	628	0	10000	1	1	0	1	0
29	629	0	10000	1	1	0	1	0
35	630	0	10000	1	1	0	1	0
39	631	0	10000	1	1	0	1	0
47	632	0	10000	1	1	0	1	0
50	633	0	10000	1	1	0	1	0
55	634	0	10000	1	1	0	1	0
62	635	0	10000	1	1	0	1	0
97	636	0	10000	1	1	0	1	0
148	637	0	10000	1	1	0	1	0
189	638	0	10000	1	1	0	1	0
193	639	0	10000	1	1	0	1	0
200	640	0	10000	1	1	0	1	0
205	641	0	10000	1	1	0	1	0
228	642	0	10000	1	1	0	1	0
252	643	0	10000	1	1	0	1	0
269	644	0	10000	1	1	0	1	0
272	645	0	10000	1	1	0	1	0
264	646	0	10000	1	1	0	1	0
280	647	0	10000	1	1	0	1	0
312	648	0	10000	1	1	0	1	0
338	649	0	10000	1	1	0	1	0
380	650	0	10000	1	1	0	1	0
397	651	0	10000	1	1	0	1	0
395	652	0	10000	1	1	0	1	0
410	653	0	10000	1	1	0	1	0
426	654	0	10000	1	1	0	1	0
441	655	0	10000	1	1	0	1	0
427	656	0	10000	1	1	0	1	0
414	657	0	10000	1	1	0	1	0
431	658	0	10000	1	1	0	1	0
430	659	0	10000	1	1	0	1	0
441	660	0	10000	1	1	0	1	0
471	661	0	10000	1	1	0	1	0
510	662	0	10000	1	1	0	1	0
521	663	0	10000	1	1	0	1	0
518	664	0	10000	1	1	0	1	0
555	665	0	10000	1	1	0	1	0
590	666	0	10000	1	1	0	1	0
617	667	0	10000	1	1	0	1	0
643	668	0	10000	1	1	0	1	0
667	669	0	10000	1	1	0	1	0
685	670	0	10000	1	1	0	1	0
686	671	0	10000	1	1	0	1	0
665	672	0	10000	1	1	0	1	0
637	673	0	10000	1	1	0	1	0
616	674	0	10000	1	1	0	1	0
590	675	0	10000	1	1	0	1	0
563	676	0	10000	1	1	0	1	0
539	677	0	10000	1	1	0	1	0
518	678	0	10000	1	1	0	1	0
496	679	0	10000	1	1	0	1	0
474	680	0	10000	1	1	0	1	0
455	681	0	10000	1	1	0	1	0
445	682	0	10000	1	1	0	1	0
447	683	0	10000	1	1	0	1	0
453	684	0	10000	1	1	0	1	0
457	685	0	10000	1	1	0	1	0
456	686	0	10000	1	1	0	1	0
446	687	0	10000	1	1	0	1	0
436	688	0	10000	1	1	0	1	0
429	689	0	10000	1	1	0	1	0
423	690	0	10000	1	1	0	1	0
413	691	0	10000	1	1	0	1	0
405	692	0	10000	1	1	0	1	0
393	693	0	10000	1	1	0	1	0
378	694	0	10000	1	1	0	1	0
367	695	0	10000	1	1	0	1	0
359	696	0	10000	1	1	0	1	0
345	697	0	10000	1	1	0	1	0
331	698	0	10000	1	1	0	1	0
322	699	0	10000	1	1	0	1	0
316	700	0	10000	1	1	0	1	0
312	701	0	10000	1	1	0	1	0
311	702	0	10000	1	1	0	1	0
310	703	0	10000	1	1	0	1	0
305	704	0	10000	1	1	0	1	0
299	705	0	10000	1	1	0	1	0
292	706	0	10000	1	1	0	1	0
284	707	0	10000	1	1	0	1	0
276	708	0	10000	1	1	0	1	0
273	709	0	10000	1	1	0	1	0
273	710	0	10000	1	1	0	1	0
270	711	0	10000	1	1	0	1	0
265	712	0	10000	1	1	0	1	0
259	713	0	10000	1	1	0	1	0
257	714	0	10000	1	1	0	1	0
257	715	0	10000	1	1	0	1	0
256	716	0	10000	1	1	0	1	0
258	717	0	10000	1	1	0	1	0
258	718	0	10000	1	1	0	1	0
256	719	0	10000	1	1	0	1	0
252	720	0	10000	1	1	0	1	0
249	721	0	10000	1	1	0	1	0
242	722	0	10000	1	1	0	1	0
235	723	0	10000	1	1	0	1	0
228	724	0	10000	1	1	0	1	0
221	725	0	10000	1	1	0	1	0
215	726	0	10000	1	1	0	1	0
206	727	0	10000	1	1	0	1	0
198	728	0	10000	1	1	0	1	0
189	729	0	10000	1	1	0	1	0
182	730	0	10000	1	1	0	1	0
174	731	0	10000	1	1	0	1	0
166	732	0	10000	1	1	0	1	0
159	733	0	10000	1	1	0	1	0
151	734	0	10000	1	1	0	1	0
145	735	0	10000	1	1	0	1	0
141	736	0	10000	1	1	0	1	0
138	737	0	10000	1	1	0	1	0
137	738	0	10000	1	1	0	1	0
135	739	0	10000	1	1	0	1	0
128	740	0	10000	1	1	0	1	0
124	741	0	10000	1	1	0	1	0
121	742	0	10000	1	1	0	1	0
121	743	0	10000	1	1	0	1	0
121	744	0	10000	1	1	0	1	0
121	745	0	10000	1	1	0	1	0
120	746	0	10000	1	1	0	1	0
118	747	0	10000	1	1	0	1	0
116	748	0	10000	1	1	0	1	0
116	749	0	10000	1	1	0	1	0
116	750	0	10000	1	1	0	1	0
114	751	0	10000	1	1	0	1	0
114	752	0	10000	1	1	0	1	0
113	753	0	10000	1	1	0	1	0
109	754	0	10000	1	1	0	1	0
104	755	0	10000	1	1	0	1	0
100	756	0	10000	1	1	0	1	0
98	757	0	10000	1	1	0	1	0
99	758	0	10000	1	1	0	1	0
97	759	0	10000	1	1	0	1	0
93	760	0	10000	1	1	0	1	0
90	761	0	10000	1	1	0	1	0
87	762	0	10000	1	1	0	1	0
84	763	0	10000	1	1	0	1	0
83	764	0	10000	1	1	0	1	0
83	765	0	10000	1	1	0	1	0
85	766	0	10000	1	1	0	1	0
88	767	0	10000	1	1	0	1	0
88	768	0	10000	1	1	0	1	0
90	769	0	10000	1	1	0	1	0
92	770	0	10000	1	1	0	1	0
92	771	0	10000	1	1	0	1	0
92	772	0	10000	1	1	0	1	0
91	773	0	10000	1	1	0	1	0
88	774	0	10000	1	1	0	1	0
85	775	0	10000	1	1	0	1	0
81	776	0	10000	1	1	0	1	0
80	777	0	10000	1	1	0	1	0
78	778	0	10000	1	1	0	1	0
75	779	0	10000	1	1	0	1	0
70	780	0	10000	1	1	0	1	0
68	781	0	10000	1	1	0	1	0
65	782	0	10000	1	1	0	1	0
63	783	0	10000	1	1	0	1	0
63	784	0	10000	1	1	0	1	0
64	785	0	10000	1	1	0	1	0
67	786	0	10000	1	1	0	1	0
69	787	0	10000	1	1	0	1	0
71	788	0	10000	1	1	0	1	0
72	789	0	10000	1	1	0	1	0
75	790	0	10000	1	1	0	1	0
78	791	0	10000	1	1	0	1	0
77	792	0	10000	1	1	0	1	0
77	793	0	10000	1	1	0	1	0
76	794	0	10000	1	1	0	1	0
73	795	0	10000	1	1	0	1	0
71	796	0	10000	1	1	0	1	0
68	797	0	10000	1	1	0	1	0
67	798	0	10000	1	1	0	1	0
67	799	0	10000	1	1	0	1	0
64	800	0	10000	1	1	0	1	0
61	801	0	10000	1	1	0	1	0
60	802	0	10000	1	1	0	1	0
61	803	0	10000	1	1	0	1	0
62	804	0	10000	1	1	0	1	0
65	805	0	10000	1	1	0	1	0
66	806	0	10000	1	1	0	1	0
65	807	0	10000	1	1	0	1	0
67	808	0	10000	1	1	0	1	0
67	809	0	10000	1	1	0	1	0
68	810	0	10000	1	1	0	1	0
68	811	0	10000	1	1	0	1	0
68	812	0	10000	1	1	0	1	0
67	813	0	10000	1	1	0	1	0
66	814	0	10000	1	1	0	1	0
63	815	0	10000	1	1	0	1	0
62	816	0	10000	1	1	0	1	0
62	817	0	10000	1	1	0	1	0
64	818	0	10000	1	1	0	1	0
64	819	0	10000	1	1	0	1	0
63	820	0	10000	1	1	0	1	0
63	821	0	10000	1	1	0	1	0
63	822	0	10000	1	1	0	1	0
61	823	0	10000	1	1	0	1	0
60	824	0	10000	1	1	0	1	0
61	825	0	10000	1	1	0	1	0
63	826	0	10000	1	1	0	1	0
63	827	0	10000	1	1	0	1	0
63	828	0	10000	1	1	0	1	0
62	829	0	10000	1	1	0	1	0
61	830	0	10000	1	1	0	1	0
58	831	0	10000	1	1	0	1	0
55	832	0	10000	1	1	0	1	0
53	833	0	10000	1	1	0	1	0
51	834	0	10000	1	1	0	1	0
48	835	0	10000	1	1	0	1	0
46	836	0	10000	1	1	0	1	0
45	837	0	10000	1	1	0	1	0
45	838	0	10000	1	1	0	1	0
44	839	0	10000	1	1	0	1	0
41	840	0	10000	1	1	0	1	0
41	841	0	10000	1	1	0	1	0
39	842	0	10000	1	1	0	1	0
38	843	0	10000	1	1	0	1	0
37	844	0	10000	1	1	0	1	0
37	845	0	10000	1	1	0	1	0
38	846	0	10000	1	1	0	1	0
39	847	0	10000	1	1	0	1	0
41	848	0	10000	1	1	0	1	0
42	849	0	10000	1	1	0	1	0
43	850	0	10000	1	1	0	1	0
43	851	0	10000	1	1	0	1	0
43	852	0	10000	1	1	0	1	0
44	853	0	10000	1	1	0	1	0
44	854	0	10000	1	1	0	1	0
43	855	0	10000	1	1	0	1	0
42	856	0	10000	1	1	0	1	0
42	857	0	10000	1	1	0	1	0
42	858	0	10000	1	1	0	1	0
43	859	0	10000	1	1	0	1	0
41	860	0	10000	1	1	0	1	0
41	861	0	10000	1	1	0	1	0
39	862	0	10000	1	1	0	1	0
39	863	0	10000	1	1	0	1	0
40	864	0	10000	1	1	0	1	0
41	865	0	10000	1	1	0	1	0
44	866	0	10000	1	1	0	1	0
45	867	0	10000	1	1	0	1	0
46	868	0	10000	1	1	0	1	0
47	869	0	10000	1	1	0	1	0
48	870	0	10000	1	1	0	1	0
47	871	0	10000	1	1	0	1	0
48	872	0	10000	1	1	0	1	0
52	873	0	10000	1	1	0	1	0
55	874	0	10000	1	1	0	1	0
54	875	0	10000	1	1	0	1	0
52	876	0	10000	1	1	0	1	0
52	877	0	10000	1	1	0	1	0
53	878	0	10000	1	1	0	1	0
54	879	0	10000	1	1	0	1	0
52	880	0	10000	1	1	0	1	0
51	881	0	10000	1	1	0	1	0
53	882	0	10000	1	1	0	1	0
56	883	0	10000	1	1	0	1	0
57	884	0	10000	1	1	0	1	0
56	885	0	10000	1	1	0	1	0
53	886	0	10000	1	1	0	1	0
51	887	0	10000	1	1	0	1	0
51	888	0	10000	1	1	0	1	0
51	889	0	10000	1	1	0	1	0
53	890	0	10000	1	1	0	1	0
53	891	0	10000	1	1	0	1	0
51	892	0	10000	1	1	0	1	0
50	893	0	10000	1	1	0	1	0
50	894	0	10000	1	1	0	1	0
51	895	0	10000	1	1	0	1	0
52	896	0	10000	1	1	0	1	0
53	897	0	10000	1	1	0	1	0
54	898	0	10000	1	1	0	1	0
53	899	0	10000	1	1	0	1	0
49	900	0	10000	1	1	0	1	0
48	901	0	10000	1	1	0	1	0
48	902	0	10000	1	1	0	1	0
48	903	0	10000	1	1	0	1	0
49	904	0	10000	1	1	0	1	0
49	905	0	10000	1	1	0	1	0
47	906	0	10000	1	1	0	1	0
47	907	0	10000	1	1	0	1	0
47	908	0	10000	1	1	0	1	0
49	909	0	10000	1	1	0	1	0
52	910	0	10000	1	1	0	1	0
51	911	0	10000	1	1	0	1	0
49	912	0	10000	1	1	0	1	0
48	913	0	10000	1	1	0	1	0
47	914	0	10000	1	1	0	1	0
50	915	0	10000	1	1	0	1	0
56	916	0	10000	1	1	0	1	0
62	917	0	10000	1	1	0	1	0
64	918	0	10000	1	1	0	1	0
63	919	0	10000	1	1	0	1	0
60	920	0	10000	1	1	0	1	0
59	921	0	10000	1	1	0	1	0
57	922	0	10000	1	1	0	1	0
57	923	0	10000	1	1	0	1	0
55	924	0	10000	1	1	0	1	0
53	925	0	10000	1	1	0	1	0
51	926	0	10000	1	1	0	1	0
49	927	0	10000	1	1	0	1	0
47	928	0	10000	1	1	0	1	0
45	929	0	10000	1	1	0	1	0
46	930	0	10000	1	1	0	1	0
45	931	0	10000	1	1	0	1	0
45	932	0	10000	1	1	0	1	0
45	933	0	10000	1	1	0	1	0
43	934	0	10000	1	1	0	1	0
42	935	0	10000	1	1	0	1	0
40	936	0	10000	1	1	0	1	0
39	937	0	10000	1	1	0	1	0
38	938	0	10000	1	1	0	1	0
36	939	0	10000	1	1	0	1	0
35	940	0	10000	1	1	0	1	0
37	941	0	10000	1	1	0	1	0
38	942	0	10000	1	1	0	1	0
40	943	0	10000	1	1	0	1	0
39	944	0	10000	1	1	0	1	0
38	945	0	10000	1	1	0	1	0
38	946	0	10000	1	1	0	1	0
38	947	0	10000	1	1	0	1	0
39	948	0	10000	1	1	0	1	0
40	949	0	10000	1	1	0	1	0
42	950	0	10000	1	1	0	1	0
41	951	0	10000	1	1	0	1	0
39	952	0	10000	1	1	0	1	0
37	953	0	10000	1	1	0	1	0
35	954	0	10000	1	1	0	1	0
34	955	0	10000	1	1	0	1	0
34	956	0	10000	1	1	0	1	0
34	957	0	10000	1	1	0	1	0
33	958	0	10000	1	1	0	1	0
33	959	0	10000	1	1	0	1	0
32	960	0	10000	1	1	0	1	0
34	961	0	10000	1	1	0	1	0
37	962	0	10000	1	1	0	1	0
37	963	0	10000	1	1	0	1	0
39	964	0	10000	1	1	0	1	0
43	965	0	10000	1	1	0	1	0
48	966	0	10000	1	1	0	1	0
50	967	0	10000	1	1	0	1	0
53	968	0	10000	1	1	0	1	0
55	969	0	10000	1	1	0	1	0
59	970	0	10000	1	1	0	1	0
59	971	0	10000	1	1	0	1	0
57	972	0	10000	1	1	0	1	0
56	973	0	10000	1	1	0	1	0
54	974	0	10000	1	1	0	1	0
54	975	0	10000	1	1	0	1	0
55	976	0	10000	1	1	0	1	0
56	977	0	10000	1	1	0	1	0
54	978	0	10000	1	1	0	1	0
54	979	0	10000	1	1	0	1	0
51	980	0	10000	1	1	0	1	0
53	981	0	10000	1	1	0	1	0
52	982	0	10000	1	1	0	1	0
52	983	0	10000	1	1	0	1	0
56	984	0	10000	1	1	0	1	0
57	985	0	10000	1	1	0	1	0
57	986	0	10000	1	1	0	1	0
56	987	0	10000	1	1	0	1	0
57	988	0	10000	1	1	0	1	0
57	989	0	10000	1	1	0	1	0
60	990	0	10000	1	1	0	1	0
61	991	0	10000	1	1	0	1	0
64	992	0	10000	1	1	0	1	0
66	993	0	10000	1	1	0	1	0
66	994	0	10000	1	1	0	1	0
64	995	0	10000	1	1	0	1	0
66	996	0	10000	1	1	0	1	0
68	997	0	10000	1	1	0	1	0
67	998	0	10000	1	1	0	1	0
65	999	0	10000	1	1	0	1	0
60	1000	0	10000	1	1	0	1	0
56	1	0	10000	2	1	0	2	0
57	2	0	10000	2	1	0	2	0
56	3	0	10000	2	1	0	2	0
55	4	0	10000	2	1	0	2	0
54	5	0	10000	2	1	0	2	0
50	6	0	10000	2	1	0	2	0
49	7	0	10000	2	1	0	2	0
48	8	0	10000	2	1	0	2	0
48	9	0	10000	2	1	0	2	0
48	10	0	10000	2	1	0	2	0
46	11	0	10000	2	1	0	2	0
45	12	0	10000	2	1	0	2	0
47	13	0	10000	2	1	0	2	0
48	14	0	10000	2	1	0	2	0
51	15	0	10000	2	1	0	2	0
53	16	0	10000	2	1	0	2	0
51	17	0	10000	2	1	0	2	0
49	18	0	10000	2	1	0	2	0
48	19	0	10000	2	1	0	2	0
47	20	0	10000	2	1	0	2	0
50	21	0	10000	2	1	0	2	0
52	22	0	10000	2	1	0	2	0
53	23	0	10000	2	1	0	2	0
53	24	0	10000	2	1	0	2	0
50	25	0	10000	2	1	0	2	0
48	26	0	10000	2	1	0	2	0
47	27	0	10000	2	1	0	2	0
46	28	0	10000	2	1	0	2	0
44	29	0	10000	2	1	0	2	0
44	30	0	10000	2	1	0	2	0
47	31	0	10000	2	1	0	2	0
49	32	0	10000	2	1	0	2	0
46	33	0	10000	2	1	0	2	0
49	34	0	10000	2	1	0	2	0
54	35	0	10000	2	1	0	2	0
58	36	0	10000	2	1	0	2	0
57	37	0	10000	2	1	0	2	0
56	38	0	10000	2	1	0	2	0
55	39	0	10000	2	1	0	2	0
53	40	0	10000	2	1	0	2	0
51	41	0	10000	2	1	0	2	0
49	42	0	10000	2	1	0	2	0
48	43	0	10000	2	1	0	2	0
48	44	0	10000	2	1	0	2	0
50	45	0	10000	2	1	0	2	0
52	46	0	10000	2	1	0	2	0
53	47	0	10000	2	1	0	2	0
54	48	0	10000	2	1	0	2	0
53	49	0	10000	2	1	0	2	0
51	50	0	10000	2	1	0	2	0
50	51	0	10000	2	1	0	2	0
50	52	0	10000	2	1	0	2	0
47	53	0	10000	2	1	0	2	0
45	54	0	10000	2	1	0	2	0
46	55	0	10000	2	1	0	2	0
52	56	0	10000	2	1	0	2	0
58	57	0	10000	2	1	0	2	0
59	58	0	10000	2	1	0	2	0
57	59	0	10000	2	1	0	2	0
56	60	0	10000	2	1	0	2	0
54	61	0	10000	2	1	0	2	0
52	62	0	10000	2	1	0	2	0
51	63	0	10000	2	1	0	2	0
48	64	0	10000	2	1	0	2	0
47	65	0	10000	2	1	0	2	0
44	66	0	10000	2	1	0	2	0
43	67	0	10000	2	1	0	2	0
45	68	0	10000	2	1	0	2	0
45	69	0	10000	2	1	0	2	0
44	70	0	10000	2	1	0	2	0
44	71	0	10000	2	1	0	2	0
44	72	0	10000	2	1	0	2	0
42	73	0	10000	2	1	0	2	0
40	74	0	10000	2	1	0	2	0
39	75	0	10000	2	1	0	2	0
39	76	0	10000	2	1	0	2	0
40	77	0	10000	2	1	0	2	0
43	78	0	10000	2	1	0	2	0
47	79	0	10000	2	1	0	2	0
51	80	0	10000	2	1	0	2	0
52	81	0	10000	2	1	0	2	0
51	82	0	10000	2	1	0	2	0
50	83	0	10000	2	1	0	2	0
51	84	0	10000	2	1	0	2	0
49	85	0	10000	2	1	0	2	0
45	86	0	10000	2	1	0	2	0
45	87	0	10000	2	1	0	2	0
46	88	0	10000	2	1	0	2	0
46	89	0	10000	2	1	0	2	0
45	90	0	10000	2	1	0	2	0
44	91	0	10000	2	1	0	2	0
43	92	0	10000	2	1	0	2	0
42	93	0	10000	2	1	0	2	0
40	94	0	10000	2	1	0	2	0
40	95	0	10000	2	1	0	2	0
41	96	0	10000	2	1	0	2	0
42	97	0	10000	2	1	0	2	0
44	98	0	10000	2	1	0	2	0
42	99	0	10000	2	1	0	2	0
42	100	0	10000	2	1	0	2	0
42	101	0	10000	2	1	0	2	0
42	102	0	10000	2	1	0	2	0
49	103	0	10000	2	1	0	2	0
54	104	0	10000	2	1	0	2	0
53	105	0	10000	2	1	0	2	0
49	106	0	10000	2	1	0	2	0
47	107	0	10000	2	1	0	2	0
46	108	0	10000	2	1	0	2	0
44	109	0	10000	2	1	0	2	0
43	110	0	10000	2	1	0	2	0
41	111	0	10000	2	1	0	2	0
40	112	0	10000	2	1	0	2	0
38	113	0	10000	2	1	0	2	0
37	114	0	10000	2	1	0	2	0
37	115	0	10000	2	1	0	2	0
37	116	0	10000	2	1	0	2	0
37	117	0	10000	2	1	0	2	0
38	118	0	10000	2	1	0	2	0
39	119	0	10000	2	1	0	2	0
39	120	0	10000	2	1	0	2	0
39	121	0	10000	2	1	0	2	0
36	122	0	10000	2	1	0	2	0
36	123	0	10000	2	1	0	2	0
36	124	0	10000	2	1	0	2	0
35	125	0	10000	2	1	0	2	0
35	126	0	10000	2	1	0	2	0
38	127	0	10000	2	1	0	2	0
37	128	0	10000	2	1	0	2	0
41	129	0	10000	2	1	0	2	0
47	130	0	10000	2	1	0	2	0
52	131	0	10000	2	1	0	2	0
54	132	0	10000	2	1	0	2	0
51	133	0	10000	2	1	0	2	0
49	134	0	10000	2	1	0	2	0
48	135	0	10000	2	1	0	2	0
49	136	0	10000	2	1	0	2	0
47	137	0	10000	2	1	0	2	0
49	138	0	10000	2	1	0	2	0
55	139	0	10000	2	1	0	2	0
60	140	0	10000	2	1	0	2	0
63	141	0	10000	2	1	0	2	0
65	142	0	10000	2	1	0	2	0
65	143	0	10000	2	1	0	2	0
62	144	0	10000	2	1	0	2	0
61	145	0	10000	2	1	0	2	0
61	146	0	10000	2	1	0	2	0
62	147	0	10000	2	1	0	2	0
64	148	0	10000	2	1	0	2	0
63	149	0	10000	2	1	0	2	0
65	150	0	10000	2	1	0	2	0
65	151	0	10000	2	1	0	2	0
63	152	0	10000	2	1	0	2	0
60	153	0	10000	2	1	0	2	0
57	154	0	10000	2	1	0	2	0
56	155	0	10000	2	1	0	2	0
57	156	0	10000	2	1	0	2	0
56	157	0	10000	2	1	0	2	0
53	158	0	10000	2	1	0	2	0
53	159	0	10000	2	1	0	2	0
53	160	0	10000	2	1	0	2	0
57	161	0	10000	2	1	0	2	0
63	162	0	10000	2	1	0	2	0
66	163	0	10000	2	1	0	2	0
65	164	0	10000	2	1	0	2	0
64	165	0	10000	2	1	0	2	0
60	166	0	10000	2	1	0	2	0
57	167	0	10000	2	1	0	2	0
56	168	0	10000	2	1	0	2	0
56	169	0	10000	2	1	0	2	0
56	170	0	10000	2	1	0	2	0
54	171	0	10000	2	1	0	2	0
53	172	0	10000	2	1	0	2	0
51	173	0	10000	2	1	0	2	0
48	174	0	10000	2	1	0	2	0
47	175	0	10000	2	1	0	2	0
48	176	0	10000	2	1	0	2	0
46	177	0	10000	2	1	0	2	0
45	178	0	10000	2	1	0	2	0
46	179	0	10000	2	1	0	2	0
46	180	0	10000	2	1	0	2	0
45	181	0	10000	2	1	0	2	0
44	182	0	10000	2	1	0	2	0
44	183	0	10000	2	1	0	2	0
45	184	0	10000	2	1	0	2	0
46	185	0	10000	2	1	0	2	0
46	186	0	10000	2	1	0	2	0
49	187	0	10000	2	1	0	2	0
52	188	0	10000	2	1	0	2	0
52	189	0	10000	2	1	0	2	0
51	190	0	10000	2	1	0	2	0
49	191	0	10000	2	1	0	2	0
47	192	0	10000	2	1	0	2	0
45	193	0	10000	2	1	0	2	0
43	194	0	10000	2	1	0	2	0
43	195	0	10000	2	1	0	2	0
42	196	0	10000	2	1	0	2	0
40	197	0	10000	2	1	0	2	0
41	198	0	10000	2	1	0	2	0
47	199	0	10000	2	1	0	2	0
59	200	0	10000	2	1	0	2	0
68	201	0	10000	2	1	0	2	0
69	202	0	10000	2	1	0	2	0
72	203	0	10000	2	1	0	2	0
75	204	0	10000	2	1	0	2	0
77	205	0	10000	2	1	0	2	0
77	206	0	10000	2	1	0	2	0
78	207	0	10000	2	1	0	2	0
77	208	0	10000	2	1	0	2	0
74	209	0	10000	2	1	0	2	0
71	210	0	10000	2	1	0	2	0
70	211	0	10000	2	1	0	2	0
70	212	0	10000	2	1	0	2	0
67	213	0	10000	2	1	0	2	0
66	214	0	10000	2	1	0	2	0
66	215	0	10000	2	1	0	2	0
72	216	0	10000	2	1	0	2	0
78	217	0	10000	2	1	0	2	0
80	218	0	10000	2	1	0	2	0
77	219	0	10000	2	1	0	2	0
75	220	0	10000	2	1	0	2	0
74	221	0	10000	2	1	0	2	0
74	222	0	10000	2	1	0	2	0
72	223	0	10000	2	1	0	2	0
70	224	0	10000	2	1	0	2	0
68	225	0	10000	2	1	0	2	0
64	226	0	10000	2	1	0	2	0
61	227	0	10000	2	1	0	2	0
61	228	0	10000	2	1	0	2	0
61	229	0	10000	2	1	0	2	0
59	230	0	10000	2	1	0	2	0
59	231	0	10000	2	1	0	2	0
58	232	0	10000	2	1	0	2	0
56	233	0	10000	2	1	0	2	0
55	234	0	10000	2	1	0	2	0
55	235	0	10000	2	1	0	2	0
56	236	0	10000	2	1	0	2	0
53	237	0	10000	2	1	0	2	0
51	238	0	10000	2	1	0	2	0
49	239	0	10000	2	1	0	2	0
50	240	0	10000	2	1	0	2	0
51	241	0	10000	2	1	0	2	0
49	242	0	10000	2	1	0	2	0
48	243	0	10000	2	1	0	2	0
47	244	0	10000	2	1	0	2	0
47	245	0	10000	2	1	0	2	0
46	246	0	10000	2	1	0	2	0
48	247	0	10000	2	1	0	2	0
47	248	0	10000	2	1	0	2	0
50	249	0	10000	2	1	0	2	0
53	250	0	10000	2	1	0	2	0
58	251	0	10000	2	1	0	2	0
67	252	0	10000	2	1	0	2	0
73	253	0	10000	2	1	0	2	0
74	254	0	10000	2	1	0	2	0
72	255	0	10000	2	1	0	2	0
75	256	0	10000	2	1	0	2	0
80	257	0	10000	2	1	0	2	0
84	258	0	10000	2	1	0	2	0
84	259	0	10000	2	1	0	2	0
81	260	0	10000	2	1	0	2	0
80	261	0	10000	2	1	0	2	0
79	262	0	10000	2	1	0	2	0
76	263	0	10000	2	1	0	2	0
78	264	0	10000	2	1	0	2	0
79	265	0	10000	2	1	0	2	0
75	266	0	10000	2	1	0	2	0
74	267	0	10000	2	1	0	2	0
72	268	0	10000	2	1	0	2	0
70	269	0	10000	2	1	0	2	0
68	270	0	10000	2	1	0	2	0
67	271	0	10000	2	1	0	2	0
65	272	0	10000	2	1	0	2	0
63	273	0	10000	2	1	0	2	0
59	274	0	10000	2	1	0	2	0
59	275	0	10000	2	1	0	2	0
61	276	0	10000	2	1	0	2	0
63	277	0	10000	2	1	0	2	0
62	278	0	10000	2	1	0	2	0
59	279	0	10000	2	1	0	2	0
62	280	0	10000	2	1	0	2	0
65	281	0	10000	2	1	0	2	0
66	282	0	10000	2	1	0	2	0
71	283	0	10000	2	1	0	2	0
73	284	0	10000	2	1	0	2	0
71	285	0	10000	2	1	0	2	0
70	286	0	10000	2	1	0	2	0
67	287	0	10000	2	1	0	2	0
65	288	0	10000	2	1	0	2	0
66	289	0	10000	2	1	0	2	0
65	290	0	10000	2	1	0	2	0
64	291	0	10000	2	1	0	2	0
62	292	0	10000	2	1	0	2	0
58	293	0	10000	2	1	0	2	0
57	294	0	10000	2	1	0	2	0
59	295	0	10000	2	1	0	2	0
65	296	0	10000	2	1	0	2	0
69	297	0	10000	2	1	0	2	0
71	298	0	10000	2	1	0	2	0
75	299	0	10000	2	1	0	2	0
79	300	0	10000	2	1	0	2	0
77	301	0	10000	2	1	0	2	0
74	302	0	10000	2	1	0	2	0
76	303	0	10000	2	1	0	2	0
78	304	0	10000	2	1	0	2	0
83	305	0	10000	2	1	0	2	0
86	306	0	10000	2	1	0	2	0
89	307	0	10000	2	1	0	2	0
88	308	0	10000	2	1	0	2	0
86	309	0	10000	2	1	0	2	0
83	310	0	10000	2	1	0	2	0
82	311	0	10000	2	1	0	2	0
78	312	0	10000	2	1	0	2	0
75	313	0	10000	2	1	0	2	0
73	314	0	10000	2	1	0	2	0
71	315	0	10000	2	1	0	2	0
73	316	0	10000	2	1	0	2	0
74	317	0	10000	2	1	0	2	0
77	318	0	10000	2	1	0	2	0
76	319	0	10000	2	1	0	2	0
75	320	0	10000	2	1	0	2	0
79	321	0	10000	2	1	0	2	0
82	322	0	10000	2	1	0	2	0
85	323	0	10000	2	1	0	2	0
86	324	0	10000	2	1	0	2	0
87	325	0	10000	2	1	0	2	0
85	326	0	10000	2	1	0	2	0
84	327	0	10000	2	1	0	2	0
81	328	0	10000	2	1	0	2	0
78	329	0	10000	2	1	0	2	0
79	330	0	10000	2	1	0	2	0
83	331	0	10000	2	1	0	2	0
84	332	0	10000	2	1	0	2	0
80	333	0	10000	2	1	0	2	0
80	334	0	10000	2	1	0	2	0
80	335	0	10000	2	1	0	2	0
82	336	0	10000	2	1	0	2	0
82	337	0	10000	2	1	0	2	0
80	338	0	10000	2	1	0	2	0
77	339	0	10000	2	1	0	2	0
74	340	0	10000	2	1	0	2	0
70	341	0	10000	2	1	0	2	0
69	342	0	10000	2	1	0	2	0
68	343	0	10000	2	1	0	2	0
69	344	0	10000	2	1	0	2	0
70	345	0	10000	2	1	0	2	0
69	346	0	10000	2	1	0	2	0
69	347	0	10000	2	1	0	2	0
70	348	0	10000	2	1	0	2	0
71	349	0	10000	2	1	0	2	0
69	350	0	10000	2	1	0	2	0
68	351	0	10000	2	1	0	2	0
68	352	0	10000	2	1	0	2	0
65	353	0	10000	2	1	0	2	0
66	354	0	10000	2	1	0	2	0
67	355	0	10000	2	1	0	2	0
68	356	0	10000	2	1	0	2	0
70	357	0	10000	2	1	0	2	0
73	358	0	10000	2	1	0	2	0
75	359	0	10000	2	1	0	2	0
76	360	0	10000	2	1	0	2	0
76	361	0	10000	2	1	0	2	0
75	362	0	10000	2	1	0	2	0
74	363	0	10000	2	1	0	2	0
74	364	0	10000	2	1	0	2	0
72	365	0	10000	2	1	0	2	0
69	366	0	10000	2	1	0	2	0
74	367	0	10000	2	1	0	2	0
80	368	0	10000	2	1	0	2	0
81	369	0	10000	2	1	0	2	0
78	370	0	10000	2	1	0	2	0
77	371	0	10000	2	1	0	2	0
75	372	0	10000	2	1	0	2	0
72	373	0	10000	2	1	0	2	0
70	374	0	10000	2	1	0	2	0
70	375	0	10000	2	1	0	2	0
71	376	0	10000	2	1	0	2	0
70	377	0	10000	2	1	0	2	0
69	378	0	10000	2	1	0	2	0
66	379	0	10000	2	1	0	2	0
66	380	0	10000	2	1	0	2	0
65	381	0	10000	2	1	0	2	0
63	382	0	10000	2	1	0	2	0
63	383	0	10000	2	1	0	2	0
64	384	0	10000	2	1	0	2	0
66	385	0	10000	2	1	0	2	0
64	386	0	10000	2	1	0	2	0
66	387	0	10000	2	1	0	2	0
72	388	0	10000	2	1	0	2	0
75	389	0	10000	2	1	0	2	0
75	390	0	10000	2	1	0	2	0
75	391	0	10000	2	1	0	2	0
71	392	0	10000	2	1	0	2	0
68	393	0	10000	2	1	0	2	0
65	394	0	10000	2	1	0	2	0
66	395	0	10000	2	1	0	2	0
68	396	0	10000	2	1	0	2	0
66	397	0	10000	2	1	0	2	0
68	398	0	10000	2	1	0	2	0
69	399	0	10000	2	1	0	2	0
68	400	0	10000	2	1	0	2	0
65	401	0	10000	2	1	0	2	0
63	402	0	10000	2	1	0	2	0
61	403	0	10000	2	1	0	2	0
58	404	0	10000	2	1	0	2	0
58	405	0	10000	2	1	0	2	0
57	406	0	10000	2	1	0	2	0
57	407	0	10000	2	1	0	2	0
56	408	0	10000	2	1	0	2	0
56	409	0	10000	2	1	0	2	0
55	410	0	10000	2	1	0	2	0
57	411	0	10000	2	1	0	2	0
60	412	0	10000	2	1	0	2	0
64	413	0	10000	2	1	0	2	0
67	414	0	10000	2	1	0	2	0
68	415	0	10000	2	1	0	2	0
69	416	0	10000	2	1	0	2	0
69	417	0	10000	2	1	0	2	0
68	418	0	10000	2	1	0	2	0
68	419	0	10000	2	1	0	2	0
67	420	0	10000	2	1	0	2	0
65	421	0	10000	2	1	0	2	0
65	422	0	10000	2	1	0	2	0
65	423	0	10000	2	1	0	2	0
67	424	0	10000	2	1	0	2	0
65	425	0	10000	2	1	0	2	0
63	426	0	10000	2	1	0	2	0
62	427	0	10000	2	1	0	2	0
63	428	0	10000	2	1	0	2	0
63	429	0	10000	2	1	0	2	0
62	430	0	10000	2	1	0	2	0
61	431	0	10000	2	1	0	2	0
59	432	0	10000	2	1	0	2	0
58	433	0	10000	2	1	0	2	0
60	434	0	10000	2	1	0	2	0
62	435	0	10000	2	1	0	2	0
62	436	0	10000	2	1	0	2	0
69	437	0	10000	2	1	0	2	0
79	438	0	10000	2	1	0	2	0
84	439	0	10000	2	1	0	2	0
83	440	0	10000	2	1	0	2	0
81	441	0	10000	2	1	0	2	0
80	442	0	10000	2	1	0	2	0
82	443	0	10000	2	1	0	2	0
82	444	0	10000	2	1	0	2	0
80	445	0	10000	2	1	0	2	0
76	446	0	10000	2	1	0	2	0
73	447	0	10000	2	1	0	2	0
72	448	0	10000	2	1	0	2	0
78	449	0	10000	2	1	0	2	0
83	450	0	10000	2	1	0	2	0
88	451	0	10000	2	1	0	2	0
89	452	0	10000	2	1	0	2	0
85	453	0	10000	2	1	0	2	0
86	454	0	10000	2	1	0	2	0
88	455	0	10000	2	1	0	2	0
90	456	0	10000	2	1	0	2	0
88	457	0	10000	2	1	0	2	0
86	458	0	10000	2	1	0	2	0
85	459	0	10000	2	1	0	2	0
85	460	0	10000	2	1	0	2	0
84	461	0	10000	2	1	0	2	0
88	462	0	10000	2	1	0	2	0
91	463	0	10000	2	1	0	2	0
89	464	0	10000	2	1	0	2	0
86	465	0	10000	2	1	0	2	0
81	466	0	10000	2	1	0	2	0
78	467	0	10000	2	1	0	2	0
76	468	0	10000	2	1	0	2	0
74	469	0	10000	2	1	0	2	0
71	470	0	10000	2	1	0	2	0
70	471	0	10000	2	1	0	2	0
68	472	0	10000	2	1	0	2	0
66	473	0	10000	2	1	0	2	0
65	474	0	10000	2	1	0	2	0
64	475	0	10000	2	1	0	2	0
65	476	0	10000	2	1	0	2	0
63	477	0	10000	2	1	0	2	0
61	478	0	10000	2	1	0	2	0
62	479	0	10000	2	1	0	2	0
65	480	0	10000	2	1	0	2	0
66	481	0	10000	2	1	0	2	0
65	482	0	10000	2	1	0	2	0
69	483	0	10000	2	1	0	2	0
68	484	0	10000	2	1	0	2	0
70	485	0	10000	2	1	0	2	0
79	486	0	10000	2	1	0	2	0
92	487	0	10000	2	1	0	2	0
101	488	0	10000	2	1	0	2	0
101	489	0	10000	2	1	0	2	0
99	490	0	10000	2	1	0	2	0
102	491	0	10000	2	1	0	2	0
106	492	0	10000	2	1	0	2	0
109	493	0	10000	2	1	0	2	0
108	494	0	10000	2	1	0	2	0
105	495	0	10000	2	1	0	2	0
103	496	0	10000	2	1	0	2	0
99	497	0	10000	2	1	0	2	0
96	498	0	10000	2	1	0	2	0
95	499	0	10000	2	1	0	2	0
92	500	0	10000	2	1	0	2	0
90	501	0	10000	2	1	0	2	1
87	502	0	10000	2	1	0	2	1
85	503	0	10000	2	1	0	2	1
85	504	0	10000	2	1	0	2	1
86	505	0	10000	2	1	0	2	1
82	506	0	10000	2	1	0	2	1
79	507	0	10000	2	1	0	2	1
78	508	0	10000	2	1	0	2	1
79	509	0	10000	2	1	0	2	1
80	510	0	10000	2	1	0	2	1
79	511	0	10000	2	1	0	2	1
78	512	0	10000	2	1	0	2	1
75	513	0	10000	2	1	0	2	1
73	514	0	10000	2	1	0	2	1
73	515	0	10000	2	1	0	2	1
71	516	0	10000	2	1	0	2	1
69	517	0	10000	2	1	0	2	1
69	518	0	10000	2	1	0	2	1
67	519	0	10000	2	1	0	2	1
66	520	0	10000	2	1	0	2	1
67	521	0	10000	2	1	0	2	1
67	522	0	10000	2	1	0	2	1
65	523	0	10000	2	1	0	2	1
64	524	0	10000	2	1	0	2	1
61	525	0	10000	2	1	0	2	1
60	526	0	10000	2	1	0	2	1
61	527	0	10000	2	1	0	2	1
62	528	0	10000	2	1	0	2	1
65	529	0	10000	2	1	0	2	1
69	530	0	10000	2	1	0	2	1
71	531	0	10000	2	1	0	2	1
74	532	0	10000	2	1	0	2	1
72	533	0	10000	2	1	0	2	1
71	534	0	10000	2	1	0	2	1
76	535	0	10000	2	1	0	2	1
84	536	0	10000	2	1	0	2	1
89	537	0	10000	2	1	0	2	1
90	538	0	10000	2	1	0	2	1
89	539	0	10000	2	1	0	2	1
87	540	0	10000	2	1	0	2	1
83	541	0	10000	2	1	0	2	1
82	542	0	10000	2	1	0	2	1
86	543	0	10000	2	1	0	2	1
84	544	0	10000	2	1	0	2	1
82	545	0	10000	2	1	0	2	1
78	546	0	10000	2	1	0	2	1
76	547	0	10000	2	1	0	2	1
76	548	0	10000	2	1	0	2	1
74	549	0	10000	2	1	0	2	1
71	550	0	10000	2	1	0	2	1
69	551	0	10000	2	1	0	2	0
66	552	0	10000	2	1	0	2	0
63	553	0	10000	2	1	0	2	0
61	554	0	10000	2	1	0	2	0
59	555	0	10000	2	1	0	2	0
58	556	0	10000	2	1	0	2	0
56	557	0	10000	2	1	0	2	0
53	558	0	10000	2	1	0	2	0
51	559	0	10000	2	1	0	2	0
50	560	0	10000	2	1	0	2	0
49	561	0	10000	2	1	0	2	0
48	562	0	10000	2	1	0	2	0
48	563	0	10000	2	1	0	2	0
47	564	0	10000	2	1	0	2	0
47	565	0	10000	2	1	0	2	0
48	566	0	10000	2	1	0	2	0
47	567	0	10000	2	1	0	2	0
46	568	0	10000	2	1	0	2	0
45	569	0	10000	2	1	0	2	0
44	570	0	10000	2	1	0	2	0
44	571	0	10000	2	1	0	2	0
45	572	0	10000	2	1	0	2	0
45	573	0	10000	2	1	0	2	0
45	574	0	10000	2	1	0	2	0
50	575	0	10000	2	1	0	2	0
57	576	0	10000	2	1	0	2	0
57	577	0	10000	2	1	0	2	0
55	578	0	10000	2	1	0	2	0
54	579	0	10000	2	1	0	2	0
56	580	0	10000	2	1	0	2	0
57	581	0	10000	2	1	0	2	0
57	582	0	10000	2	1	0	2	0
56	583	0	10000	2	1	0	2	0
56	584	0	10000	2	1	0	2	0
54	585	0	10000	2	1	0	2	0
50	586	0	10000	2	1	0	2	0
48	587	0	10000	2	1	0	2	0
48	588	0	10000	2	1	0	2	0
46	589	0	10000	2	1	0	2	0
47	590	0	10000	2	1	0	2	0
50	591	0	10000	2	1	0	2	0
52	592	0	10000	2	1	0	2	0
52	593	0	10000	2	1	0	2	0
53	594	0	10000	2	1	0	2	0
57	595	0	10000	2	1	0	2	0
78	596	0	10000	2	1	0	2	0
102	597	0	10000	2	1	0	2	0
114	598	0	10000	2	1	0	2	0
111	599	0	10000	2	1	0	2	0
119	600	0	10000	2	1	0	2	0
129	601	0	10000	2	1	0	2	0
128	602	0	10000	2	1	0	2	0
138	603	0	10000	2	1	0	2	0
143	604	0	10000	2	1	0	2	0
144	605	0	10000	2	1	0	2	0
153	606	0	10000	2	1	0	2	0
177	607	0	10000	2	1	0	2	0
184	608	0	10000	2	1	0	2	0
198	609	0	10000	2	1	0	2	0
201	610	0	10000	2	1	0	2	0
198	611	0	10000	2	1	0	2	0
191	612	0	10000	2	1	0	2	0
189	613	0	10000	2	1	0	2	0
184	614	0	10000	2	1	0	2	0
193	615	0	10000	2	1	0	2	0
207	616	0	10000	2	1	0	2	0
202	617	0	10000	2	1	0	2	0
196	618	0	10000	2	1	0	2	0
201	619	0	10000	2	1	0	2	0
218	620	0	10000	2	1	0	2	0
234	621	0	10000	2	1	0	2	0
250	622	0	10000	2	1	0	2	0
261	623	0	10000	2	1	0	2	0
262	624	0	10000	2	1	0	2	0
275	625	0	10000	2	1	0	2	0
302	626	0	10000	2	1	0	2	0
343	627	0	10000	2	1	0	2	0
369	628	0	10000	2	1	0	2	0
365	629	0	10000	2	1	0	2	0
372	630	0	10000	2	1	0	2	0
390	631	0	10000	2	1	0	2	0
407	632	0	10000	2	1	0	2	0
419	633	0	10000	2	1	0	2	0
419	634	0	10000	2	1	0	2	0
405	635	0	10000	2	1	0	2	0
389	636	0	10000	2	1	0	2	0
373	637	0	10000	2	1	0	2	0
356	638	0	10000	2	1	0	2	0
341	639	0	10000	2	1	0	2	0
328	640	0	10000	2	1	0	2	0
314	641	0	10000	2	1	0	2	0
303	642	0	10000	2	1	0	2	0
293	643	0	10000	2	1	0	2	0
282	644	0	10000	2	1	0	2	0
271	645	0	10000	2	1	0	2	0
257	646	0	10000	2	1	0	2	0
246	647	0	10000	2	1	0	2	0
236	648	0	10000	2	1	0	2	0
226	649	0	10000	2	1	0	2	0
217	650	0	10000	2	1	0	2	0
207	651	0	10000	2	1	0	2	0
198	652	0	10000	2	1	0	2	0
190	653	0	10000	2	1	0	2	0
181	654	0	10000	2	1	0	2	0
172	655	0	10000	2	1	0	2	0
167	656	0	10000	2	1	0	2	0
159	657	0	10000	2	1	0	2	0
153	658	0	10000	2	1	0	2	0
147	659	0	10000	2	1	0	2	0
141	660	0	10000	2	1	0	2	0
137	661	0	10000	2	1	0	2	0
134	662	0	10000	2	1	0	2	0
134	663	0	10000	2	1	0	2	0
135	664	0	10000	2	1	0	2	0
134	665	0	10000	2	1	0	2	0
134	666	0	10000	2	1	0	2	0
134	667	0	10000	2	1	0	2	0
134	668	0	10000	2	1	0	2	0
134	669	0	10000	2	1	0	2	0
132	670	0	10000	2	1	0	2	0
130	671	0	10000	2	1	0	2	0
128	672	0	10000	2	1	0	2	0
126	673	0	10000	2	1	0	2	0
125	674	0	10000	2	1	0	2	0
126	675	0	10000	2	1	0	2	0
125	676	0	10000	2	1	0	2	0
124	677	0	10000	2	1	0	2	0
123	678	0	10000	2	1	0	2	0
121	679	0	10000	2	1	0	2	0
118	680	0	10000	2	1	0	2	0
116	681	0	10000	2	1	0	2	0
115	682	0	10000	2	1	0	2	0
116	683	0	10000	2	1	0	2	0
116	684	0	10000	2	1	0	2	0
116	685	0	10000	2	1	0	2	0
116	686	0	10000	2	1	0	2	0
115	687	0	10000	2	1	0	2	0
113	688	0	10000	2	1	0	2	0
111	689	0	10000	2	1	0	2	0
109	690	0	10000	2	1	0	2	0
106	691	0	10000	2	1	0	2	0
102	692	0	10000	2	1	0	2	0
96	693	0	10000	2	1	0	2	0
92	694	0	10000	2	1	0	2	0
90	695	0	10000	2	1	0	2	0
90	696	0	10000	2	1	0	2	0
91	697	0	10000	2	1	0	2	0
90	698	0	10000	2	1	0	2	0
90	699	0	10000	2	1	0	2	0
90	700	0	10000	2	1	0	2	0
89	701	0	10000	2	1	0	2	0
86	702	0	10000	2	1	0	2	0
83	703	0	10000	2	1	0	2	0
80	704	0	10000	2	1	0	2	0
78	705	0	10000	2	1	0	2	0
74	706	0	10000	2	1	0	2	0
70	707	0	10000	2	1	0	2	0
68	708	0	10000	2	1	0	2	0
66	709	0	10000	2	1	0	2	0
65	710	0	10000	2	1	0	2	0
66	711	0	10000	2	1	0	2	0
67	712	0	10000	2	1	0	2	0
65	713	0	10000	2	1	0	2	0
63	714	0	10000	2	1	0	2	0
61	715	0	10000	2	1	0	2	0
61	716	0	10000	2	1	0	2	0
61	717	0	10000	2	1	0	2	0
60	718	0	10000	2	1	0	2	0
62	719	0	10000	2	1	0	2	0
62	720	0	10000	2	1	0	2	0
61	721	0	10000	2	1	0	2	0
62	722	0	10000	2	1	0	2	0
62	723	0	10000	2	1	0	2	0
60	724	0	10000	2	1	0	2	0
58	725	0	10000	2	1	0	2	0
55	726	0	10000	2	1	0	2	0
54	727	0	10000	2	1	0	2	0
54	728	0	10000	2	1	0	2	0
53	729	0	10000	2	1	0	2	0
51	730	0	10000	2	1	0	2	0
51	731	0	10000	2	1	0	2	0
51	732	0	10000	2	1	0	2	0
52	733	0	10000	2	1	0	2	0
52	734	0	10000	2	1	0	2	0
53	735	0	10000	2	1	0	2	0
55	736	0	10000	2	1	0	2	0
56	737	0	10000	2	1	0	2	0
55	738	0	10000	2	1	0	2	0
53	739	0	10000	2	1	0	2	0
50	740	0	10000	2	1	0	2	0
49	741	0	10000	2	1	0	2	0
47	742	0	10000	2	1	0	2	0
46	743	0	10000	2	1	0	2	0
45	744	0	10000	2	1	0	2	0
44	745	0	10000	2	1	0	2	0
40	746	0	10000	2	1	0	2	0
39	747	0	10000	2	1	0	2	0
38	748	0	10000	2	1	0	2	0
38	749	0	10000	2	1	0	2	0
39	750	0	10000	2	1	0	2	0
41	751	0	10000	2	1	0	2	0
41	752	0	10000	2	1	0	2	0
39	753	0	10000	2	1	0	2	0
39	754	0	10000	2	1	0	2	0
41	755	0	10000	2	1	0	2	0
42	756	0	10000	2	1	0	2	0
45	757	0	10000	2	1	0	2	0
48	758	0	10000	2	1	0	2	0
48	759	0	10000	2	1	0	2	0
55	760	0	10000	2	1	0	2	0
65	761	0	10000	2	1	0	2	0
72	762	0	10000	2	1	0	2	0
76	763	0	10000	2	1	0	2	0
76	764	0	10000	2	1	0	2	0
75	765	0	10000	2	1	0	2	0
72	766	0	10000	2	1	0	2	0
70	767	0	10000	2	1	0	2	0
68	768	0	10000	2	1	0	2	0
67	769	0	10000	2	1	0	2	0
64	770	0	10000	2	1	0	2	0
62	771	0	10000	2	1	0	2	0
60	772	0	10000	2	1	0	2	0
57	773	0	10000	2	1	0	2	0
55	774	0	10000	2	1	0	2	0
54	775	0	10000	2	1	0	2	0
55	776	0	10000	2	1	0	2	0
52	777	0	10000	2	1	0	2	0
50	778	0	10000	2	1	0	2	0
48	779	0	10000	2	1	0	2	0
52	780	0	10000	2	1	0	2	0
53	781	0	10000	2	1	0	2	0
52	782	0	10000	2	1	0	2	0
55	783	0	10000	2	1	0	2	0
59	784	0	10000	2	1	0	2	0
61	785	0	10000	2	1	0	2	0
57	786	0	10000	2	1	0	2	0
58	787	0	10000	2	1	0	2	0
61	788	0	10000	2	1	0	2	0
60	789	0	10000	2	1	0	2	0
59	790	0	10000	2	1	0	2	0
60	791	0	10000	2	1	0	2	0
61	792	0	10000	2	1	0	2	0
64	793	0	10000	2	1	0	2	0
67	794	0	10000	2	1	0	2	0
71	795	0	10000	2	1	0	2	0
77	796	0	10000	2	1	0	2	0
80	797	0	10000	2	1	0	2	0
83	798	0	10000	2	1	0	2	0
83	799	0	10000	2	1	0	2	0
80	800	0	10000	2	1	0	2	0
78	801	0	10000	2	1	0	2	0
77	802	0	10000	2	1	0	2	0
77	803	0	10000	2	1	0	2	0
80	804	0	10000	2	1	0	2	0
80	805	0	10000	2	1	0	2	0
79	806	0	10000	2	1	0	2	0
79	807	0	10000	2	1	0	2	0
85	808	0	10000	2	1	0	2	0
91	809	0	10000	2	1	0	2	0
92	810	0	10000	2	1	0	2	0
89	811	0	10000	2	1	0	2	0
91	812	0	10000	2	1	0	2	0
91	813	0	10000	2	1	0	2	0
89	814	0	10000	2	1	0	2	0
87	815	0	10000	2	1	0	2	0
88	816	0	10000	2	1	0	2	0
84	817	0	10000	2	1	0	2	0
80	818	0	10000	2	1	0	2	0
78	819	0	10000	2	1	0	2	0
76	820	0	10000	2	1	0	2	0
74	821	0	10000	2	1	0	2	0
74	822	0	10000	2	1	0	2	0
80	823	0	10000	2	1	0	2	0
89	824	0	10000	2	1	0	2	0
94	825	0	10000	2	1	0	2	0
92	826	0	10000	2	1	0	2	0
97	827	0	10000	2	1	0	2	0
103	828	0	10000	2	1	0	2	0
109	829	0	10000	2	1	0	2	0
114	830	0	10000	2	1	0	2	0
116	831	0	10000	2	1	0	2	0
117	832	0	10000	2	1	0	2	0
116	833	0	10000	2	1	0	2	0
115	834	0	10000	2	1	0	2	0
112	835	0	10000	2	1	0	2	0
111	836	0	10000	2	1	0	2	0
114	837	0	10000	2	1	0	2	0
121	838	0	10000	2	1	0	2	0
123	839	0	10000	2	1	0	2	0
119	840	0	10000	2	1	0	2	0
122	841	0	10000	2	1	0	2	0
125	842	0	10000	2	1	0	2	0
128	843	0	10000	2	1	0	2	0
130	844	0	10000	2	1	0	2	0
131	845	0	10000	2	1	0	2	0
127	846	0	10000	2	1	0	2	0
121	847	0	10000	2	1	0	2	0
118	848	0	10000	2	1	0	2	0
115	849	0	10000	2	1	0	2	0
109	850	0	10000	2	1	0	2	0
106	851	0	10000	2	1	0	2	0
103	852	0	10000	2	1	0	2	0
98	853	0	10000	2	1	0	2	0
93	854	0	10000	2	1	0	2	0
90	855	0	10000	2	1	0	2	0
90	856	0	10000	2	1	0	2	0
90	857	0	10000	2	1	0	2	0
92	858	0	10000	2	1	0	2	0
96	859	0	10000	2	1	0	2	0
104	860	0	10000	2	1	0	2	0
109	861	0	10000	2	1	0	2	0
110	862	0	10000	2	1	0	2	0
110	863	0	10000	2	1	0	2	0
107	864	0	10000	2	1	0	2	0
102	865	0	10000	2	1	0	2	0
98	866	0	10000	2	1	0	2	0
100	867	0	10000	2	1	0	2	0
104	868	0	10000	2	1	0	2	0
103	869	0	10000	2	1	0	2	0
105	870	0	10000	2	1	0	2	0
108	871	0	10000	2	1	0	2	0
106	872	0	10000	2	1	0	2	0
103	873	0	10000	2	1	0	2	0
101	874	0	10000	2	1	0	2	0
99	875	0	10000	2	1	0	2	0
99	876	0	10000	2	1	0	2	0
98	877	0	10000	2	1	0	2	0
94	878	0	10000	2	1	0	2	0
91	879	0	10000	2	1	0	2	0
88	880	0	10000	2	1	0	2	0
84	881	0	10000	2	1	0	2	0
83	882	0	10000	2	1	0	2	0
83	883	0	10000	2	1	0	2	0
93	884	0	10000	2	1	0	2	0
97	885	0	10000	2	1	0	2	0
95	886	0	10000	2	1	0	2	0
93	887	0	10000	2	1	0	2	0
89	888	0	10000	2	1	0	2	0
86	889	0	10000	2	1	0	2	0
84	890	0	10000	2	1	0	2	0
84	891	0	10000	2	1	0	2	0
81	892	0	10000	2	1	0	2	0
79	893	0	10000	2	1	0	2	0
80	894	0	10000	2	1	0	2	0
87	895	0	10000	2	1	0	2	0
89	896	0	10000	2	1	0	2	0
88	897	0	10000	2	1	0	2	0
88	898	0	10000	2	1	0	2	0
89	899	0	10000	2	1	0	2	0
91	900	0	10000	2	1	0	2	0
93	901	0	10000	2	1	0	2	0
95	902	0	10000	2	1	0	2	0
96	903	0	10000	2	1	0	2	0
93	904	0	10000	2	1	0	2	0
90	905	0	10000	2	1	0	2	0
87	906	0	10000	2	1	0	2	0
89	907	0	10000	2	1	0	2	0
92	908	0	10000	2	1	0	2	0
95	909	0	10000	2	1	0	2	0
96	910	0	10000	2	1	0	2	0
97	911	0	10000	2	1	0	2	0
96	912	0	10000	2	1	0	2	0
92	913	0	10000	2	1	0	2	0
89	914	0	10000	2	1	0	2	0
90	915	0	10000	2	1	0	2	0
94	916	0	10000	2	1	0	2	0
92	917	0	10000	2	1	0	2	0
93	918	0	10000	2	1	0	2	0
93	919	0	10000	2	1	0	2	0
93	920	0	10000	2	1	0	2	0
91	921	0	10000	2	1	0	2	0
94	922	0	10000	2	1	0	2	0
100	923	0	10000	2	1	0	2	0
105	924	0	10000	2	1	0	2	0
103	925	0	10000	2	1	0	2	0
98	926	0	10000	2	1	0	2	0
97	927	0	10000	2	1	0	2	0
95	928	0	10000	2	1	0	2	0
93	929	0	10000	2	1	0	2	0
88	930	0	10000	2	1	0	2	0
84	931	0	10000	2	1	0	2	0
82	932	0	10000	2	1	0	2	0
79	933	0	10000	2	1	0	2	0
78	934	0	10000	2	1	0	2	0
80	935	0	10000	2	1	0	2	0
84	936	0	10000	2	1	0	2	0
86	937	0	10000	2	1	0	2	0
85	938	0	10000	2	1	0	2	0
82	939	0	10000	2	1	0	2	0
84	940	0	10000	2	1	0	2	0
89	941	0	10000	2	1	0	2	0
91	942	0	10000	2	1	0	2	0
88	943	0	10000	2	1	0	2	0
85	944	0	10000	2	1	0	2	0
86	945	0	10000	2	1	0	2	0
87	946	0	10000	2	1	0	2	0
87	947	0	10000	2	1	0	2	0
85	948	0	10000	2	1	0	2	0
87	949	0	10000	2	1	0	2	0
89	950	0	10000	2	1	0	2	0
91	951	0	10000	2	1	0	2	0
89	952	0	10000	2	1	0	2	0
86	953	0	10000	2	1	0	2	0
83	954	0	10000	2	1	0	2	0
79	955	0	10000	2	1	0	2	0
79	956	0	10000	2	1	0	2	0
78	957	0	10000	2	1	0	2	0
75	958	0	10000	2	1	0	2	0
72	959	0	10000	2	1	0	2	0
70	960	0	10000	2	1	0	2	0
69	961	0	10000	2	1	0	2	0
69	962	0	10000	2	1	0	2	0
67	963	0	10000	2	1	0	2	0
66	964	0	10000	2	1	0	2	0
66	965	0	10000	2	1	0	2	0
65	966	0	10000	2	1	0	2	0
69	967	0	10000	2	1	0	2	0
74	968	0	10000	2	1	0	2	0
77	969	0	10000	2	1	0	2	0
75	970	0	10000	2	1	0	2	0
77	971	0	10000	2	1	0	2	0
77	972	0	10000	2	1	0	2	0
75	973	0	10000	2	1	0	2	0
73	974	0	10000	2	1	0	2	0
76	975	0	10000	2	1	0	2	0
78	976	0	10000	2	1	0	2	0
73	977	0	10000	2	1	0	2	0
75	978	0	10000	2	1	0	2	0
83	979	0	10000	2	1	0	2	0
88	980	0	10000	2	1	0	2	0
87	981	0	10000	2	1	0	2	0
84	982	0	10000	2	1	0	2	0
80	983	0	10000	2	1	0	2	0
78	984	0	10000	2	1	0	2	0
74	985	0	10000	2	1	0	2	0
71	986	0	10000	2	1	0	2	0
74	987	0	10000	2	1	0	2	0
80	988	0	10000	2	1	0	2	0
80	989	0	10000	2	1	0	2	0
84	990	0	10000	2	1	0	2	0
89	991	0	10000	2	1	0	2	0
95	992	0	10000	2	1	0	2	0
95	993	0	10000	2	1	0	2	0
91	994	0	10000	2	1	0	2	0
89	995	0	10000	2	1	0	2	0
97	996	0	10000	2	1	0	2	0
106	997	0	10000	2	1	0	2	0
107	998	0	10000	2	1	0	2	0
104	999	0	10000	2	1	0	2	0
103	1000	0	10000	2	1	0	2	0
71	2	1	10000	3	1	0	3	0
69	3	1	10000	3	1	0	3	0
68	4	1	10000	3	1	0	3	0
67	5	1	10000	3	1	0	3	0
65	6	1	10000	3	1	0	3	0
63	7	1	10000	3	1	0	3	0
61	8	1	10000	3	1	0	3	0
59	9	1	10000	3	1	0	3	0
58	10	1	10000	3	1	0	3	0
57	11	1	10000	3	1	0	3	0
56	12	1	10000	3	1	0	3	0
54	13	1	10000	3	1	0	3	0
52	14	1	10000	3	1	0	3	0
51	15	1	10000	3	1	0	3	0
50	16	1	10000	3	1	0	3	0
48	17	1	10000	3	1	0	3	0
47	18	1	10000	3	1	0	3	0
45	19	1	10000	3	1	0	3	0
44	20	1	10000	3	1	0	3	0
41	21	1	10000	3	1	0	3	0
39	21	1	10000	3	1	0	3	0
39	22	1	10000	3	1	0	3	0
37	24	1	10000	3	1	0	3	0
37	25	1	10000	3	1	0	3	0
38	26	1	10000	3	1	0	3	0
40	27	1	10000	3	1	0	3	0
43	28	1	10000	3	1	0	3	0
45	29	1	10000	3	1	0	3	0
45	30	1	10000	3	1	0	3	0
46	31	1	10000	3	1	0	3	0
44	31	1	10000	3	1	0	3	0
45	32	1	10000	3	1	0	3	0
49	34	1	10000	3	1	0	3	0
49	35	1	10000	3	1	0	3	0
51	36	1	10000	3	1	0	3	0
52	37	1	10000	3	1	0	3	0
50	38	1	10000	3	1	0	3	0
49	39	1	10000	3	1	0	3	0
51	40	1	10000	3	1	0	3	0
55	41	1	10000	3	1	0	3	0
57	41	1	10000	3	1	0	3	0
58	42	1	10000	3	1	0	3	0
57	44	1	10000	3	1	0	3	0
56	45	1	10000	3	1	0	3	0
54	46	1	10000	3	1	0	3	0
51	47	1	10000	3	1	0	3	0
49	48	1	10000	3	1	0	3	0
47	49	1	10000	3	1	0	3	0
46	50	1	10000	3	1	0	3	0
45	51	1	10000	3	1	0	3	0
44	51	1	10000	3	1	0	3	0
41	52	1	10000	3	1	0	3	0
40	54	1	10000	3	1	0	3	0
39	55	1	10000	3	1	0	3	0
38	56	1	10000	3	1	0	3	0
36	57	1	10000	3	1	0	3	0
35	58	1	10000	3	1	0	3	0
34	59	1	10000	3	1	0	3	0
33	60	1	10000	3	1	0	3	0
35	61	1	10000	3	1	0	3	0
39	61	1	10000	3	1	0	3	0
41	62	1	10000	3	1	0	3	0
41	64	1	10000	3	1	0	3	0
42	65	1	10000	3	1	0	3	0
42	66	1	10000	3	1	0	3	0
42	67	1	10000	3	1	0	3	0
44	68	1	10000	3	1	0	3	0
48	69	1	10000	3	1	0	3	0
51	70	1	10000	3	1	0	3	0
54	71	1	10000	3	1	0	3	0
53	71	1	10000	3	1	0	3	0
52	72	1	10000	3	1	0	3	0
52	74	1	10000	3	1	0	3	0
53	75	1	10000	3	1	0	3	0
56	76	1	10000	3	1	0	3	0
57	77	1	10000	3	1	0	3	0
58	78	1	10000	3	1	0	3	0
56	79	1	10000	3	1	0	3	0
55	80	1	10000	3	1	0	3	0
54	81	1	10000	3	1	0	3	0
52	81	1	10000	3	1	0	3	0
50	82	1	10000	3	1	0	3	0
48	84	1	10000	3	1	0	3	0
46	85	1	10000	3	1	0	3	0
45	86	1	10000	3	1	0	3	0
44	87	1	10000	3	1	0	3	0
41	88	1	10000	3	1	0	3	0
40	89	1	10000	3	1	0	3	0
40	90	1	10000	3	1	0	3	0
41	91	1	10000	3	1	0	3	0
39	91	1	10000	3	1	0	3	0
38	92	1	10000	3	1	0	3	0
37	94	1	10000	3	1	0	3	0
36	95	1	10000	3	1	0	3	0
34	96	1	10000	3	1	0	3	0
34	97	1	10000	3	1	0	3	0
36	98	1	10000	3	1	0	3	0
38	99	1	10000	3	1	0	3	0
39	100	1	10000	3	1	0	3	0
39	101	1	10000	3	1	0	3	0
39	101	1	10000	3	1	0	3	0
38	102	1	10000	3	1	0	3	0
38	104	1	10000	3	1	0	3	0
41	105	1	10000	3	1	0	3	0
43	106	1	10000	3	1	0	3	0
44	107	1	10000	3	1	0	3	0
45	108	1	10000	3	1	0	3	0
44	109	1	10000	3	1	0	3	0
44	110	1	10000	3	1	0	3	0
43	111	1	10000	3	1	0	3	0
41	111	1	10000	3	1	0	3	0
39	112	1	10000	3	1	0	3	0
38	114	1	10000	3	1	0	3	0
35	115	1	10000	3	1	0	3	0
34	116	1	10000	3	1	0	3	0
33	117	1	10000	3	1	0	3	0
35	118	1	10000	3	1	0	3	0
34	119	1	10000	3	1	0	3	0
34	120	1	10000	3	1	0	3	0
33	121	1	10000	3	1	0	3	0
33	121	1	10000	3	1	0	3	0
32	122	1	10000	3	1	0	3	0
34	124	1	10000	3	1	0	3	0
36	125	1	10000	3	1	0	3	0
38	126	1	10000	3	1	0	3	0
40	127	1	10000	3	1	0	3	0
41	128	1	10000	3	1	0	3	0
41	129	1	10000	3	1	0	3	0
44	130	1	10000	3	1	0	3	0
47	131	1	10000	3	1	0	3	0
48	131	1	10000	3	1	0	3	0
49	132	1	10000	3	1	0	3	0
49	134	1	10000	3	1	0	3	0
46	135	1	10000	3	1	0	3	0
46	136	1	10000	3	1	0	3	0
44	137	1	10000	3	1	0	3	0
46	138	1	10000	3	1	0	3	0
50	139	1	10000	3	1	0	3	0
51	140	1	10000	3	1	0	3	0
48	141	1	10000	3	1	0	3	0
48	141	1	10000	3	1	0	3	0
48	142	1	10000	3	1	0	3	0
50	144	1	10000	3	1	0	3	0
50	145	1	10000	3	1	0	3	0
48	146	1	10000	3	1	0	3	0
48	147	1	10000	3	1	0	3	0
47	148	1	10000	3	1	0	3	0
46	149	1	10000	3	1	0	3	0
45	150	1	10000	3	1	0	3	0
45	151	1	10000	3	1	0	3	0
44	151	1	10000	3	1	0	3	0
44	152	1	10000	3	1	0	3	0
41	154	1	10000	3	1	0	3	0
40	155	1	10000	3	1	0	3	0
39	156	1	10000	3	1	0	3	0
37	157	1	10000	3	1	0	3	0
37	158	1	10000	3	1	0	3	0
36	159	1	10000	3	1	0	3	0
34	160	1	10000	3	1	0	3	0
32	161	1	10000	3	1	0	3	0
31	161	1	10000	3	1	0	3	0
30	162	1	10000	3	1	0	3	0
30	164	1	10000	3	1	0	3	0
29	165	1	10000	3	1	0	3	0
27	166	1	10000	3	1	0	3	0
27	167	1	10000	3	1	0	3	0
26	168	1	10000	3	1	0	3	0
26	169	1	10000	3	1	0	3	0
26	170	1	10000	3	1	0	3	0
27	171	1	10000	3	1	0	3	0
25	171	1	10000	3	1	0	3	0
27	172	1	10000	3	1	0	3	0
29	174	1	10000	3	1	0	3	0
30	175	1	10000	3	1	0	3	0
30	176	1	10000	3	1	0	3	0
31	177	1	10000	3	1	0	3	0
31	178	1	10000	3	1	0	3	0
33	179	1	10000	3	1	0	3	0
32	180	1	10000	3	1	0	3	0
31	181	1	10000	3	1	0	3	0
32	181	1	10000	3	1	0	3	0
33	182	1	10000	3	1	0	3	0
35	184	1	10000	3	1	0	3	0
37	185	1	10000	3	1	0	3	0
38	186	1	10000	3	1	0	3	0
39	187	1	10000	3	1	0	3	0
38	188	1	10000	3	1	0	3	0
38	189	1	10000	3	1	0	3	0
39	190	1	10000	3	1	0	3	0
43	191	1	10000	3	1	0	3	0
42	191	1	10000	3	1	0	3	0
44	192	1	10000	3	1	0	3	0
49	194	1	10000	3	1	0	3	0
52	195	1	10000	3	1	0	3	0
52	196	1	10000	3	1	0	3	0
51	197	1	10000	3	1	0	3	0
51	198	1	10000	3	1	0	3	0
52	199	1	10000	3	1	0	3	0
52	200	1	10000	3	1	0	3	0
49	201	1	10000	3	1	0	3	0
49	201	1	10000	3	1	0	3	0
49	202	1	10000	3	1	0	3	0
48	204	1	10000	3	1	0	3	0
48	205	1	10000	3	1	0	3	0
48	206	1	10000	3	1	0	3	0
49	207	1	10000	3	1	0	3	0
51	208	1	10000	3	1	0	3	0
50	209	1	10000	3	1	0	3	0
51	210	1	10000	3	1	0	3	0
52	211	1	10000	3	1	0	3	0
51	211	1	10000	3	1	0	3	0
50	212	1	10000	3	1	0	3	0
48	214	1	10000	3	1	0	3	0
46	215	1	10000	3	1	0	3	0
46	216	1	10000	3	1	0	3	0
47	217	1	10000	3	1	0	3	0
52	218	1	10000	3	1	0	3	0
57	219	1	10000	3	1	0	3	0
59	220	1	10000	3	1	0	3	0
58	221	1	10000	3	1	0	3	0
57	221	1	10000	3	1	0	3	0
54	222	1	10000	3	1	0	3	0
54	224	1	10000	3	1	0	3	0
54	225	1	10000	3	1	0	3	0
53	226	1	10000	3	1	0	3	0
55	227	1	10000	3	1	0	3	0
57	228	1	10000	3	1	0	3	0
60	229	1	10000	3	1	0	3	0
60	230	1	10000	3	1	0	3	0
59	231	1	10000	3	1	0	3	0
60	231	1	10000	3	1	0	3	0
63	232	1	10000	3	1	0	3	0
67	234	1	10000	3	1	0	3	0
70	235	1	10000	3	1	0	3	0
71	236	1	10000	3	1	0	3	0
71	237	1	10000	3	1	0	3	0
71	238	1	10000	3	1	0	3	0
69	239	1	10000	3	1	0	3	0
68	240	1	10000	3	1	0	3	0
66	241	1	10000	3	1	0	3	0
65	241	1	10000	3	1	0	3	0
63	242	1	10000	3	1	0	3	0
60	244	1	10000	3	1	0	3	0
58	245	1	10000	3	1	0	3	0
56	246	1	10000	3	1	0	3	0
56	247	1	10000	3	1	0	3	0
55	248	1	10000	3	1	0	3	0
54	249	1	10000	3	1	0	3	0
55	250	1	10000	3	1	0	3	0
56	251	1	10000	3	1	0	3	0
58	251	1	10000	3	1	0	3	0
59	252	1	10000	3	1	0	3	0
59	254	1	10000	3	1	0	3	0
60	255	1	10000	3	1	0	3	0
63	256	1	10000	3	1	0	3	0
63	257	1	10000	3	1	0	3	0
62	258	1	10000	3	1	0	3	0
60	259	1	10000	3	1	0	3	0
59	260	1	10000	3	1	0	3	0
55	261	1	10000	3	1	0	3	0
54	261	1	10000	3	1	0	3	0
53	262	1	10000	3	1	0	3	0
52	264	1	10000	3	1	0	3	0
50	265	1	10000	3	1	0	3	0
48	266	1	10000	3	1	0	3	0
46	267	1	10000	3	1	0	3	0
44	268	1	10000	3	1	0	3	0
42	269	1	10000	3	1	0	3	0
41	270	1	10000	3	1	0	3	0
41	271	1	10000	3	1	0	3	0
40	271	1	10000	3	1	0	3	0
40	272	1	10000	3	1	0	3	0
39	274	1	10000	3	1	0	3	0
37	275	1	10000	3	1	0	3	0
36	276	1	10000	3	1	0	3	0
35	277	1	10000	3	1	0	3	0
34	278	1	10000	3	1	0	3	0
34	279	1	10000	3	1	0	3	0
33	280	1	10000	3	1	0	3	0
32	281	1	10000	3	1	0	3	0
35	281	1	10000	3	1	0	3	0
37	282	1	10000	3	1	0	3	0
39	284	1	10000	3	1	0	3	0
38	285	1	10000	3	1	0	3	0
38	286	1	10000	3	1	0	3	0
40	287	1	10000	3	1	0	3	0
44	288	1	10000	3	1	0	3	0
48	289	1	10000	3	1	0	3	0
51	290	1	10000	3	1	0	3	0
52	291	1	10000	3	1	0	3	0
56	291	1	10000	3	1	0	3	0
60	292	1	10000	3	1	0	3	0
59	294	1	10000	3	1	0	3	0
58	295	1	10000	3	1	0	3	0
57	296	1	10000	3	1	0	3	0
57	297	1	10000	3	1	0	3	0
57	298	1	10000	3	1	0	3	0
56	299	1	10000	3	1	0	3	0
55	300	1	10000	3	1	0	3	0
53	301	1	10000	3	1	0	3	0
55	301	1	10000	3	1	0	3	0
58	302	1	10000	3	1	0	3	0
60	304	1	10000	3	1	0	3	0
57	305	1	10000	3	1	0	3	0
55	306	1	10000	3	1	0	3	0
53	307	1	10000	3	1	0	3	0
51	308	1	10000	3	1	0	3	0
49	309	1	10000	3	1	0	3	0
48	310	1	10000	3	1	0	3	0
47	311	1	10000	3	1	0	3	0
45	311	1	10000	3	1	0	3	0
43	312	1	10000	3	1	0	3	0
40	314	1	10000	3	1	0	3	0
39	315	1	10000	3	1	0	3	0
37	316	1	10000	3	1	0	3	0
36	317	1	10000	3	1	0	3	0
36	318	1	10000	3	1	0	3	0
34	319	1	10000	3	1	0	3	0
32	320	1	10000	3	1	0	3	0
30	321	1	10000	3	1	0	3	0
29	321	1	10000	3	1	0	3	0
30	322	1	10000	3	1	0	3	0
30	324	1	10000	3	1	0	3	0
30	325	1	10000	3	1	0	3	0
31	326	1	10000	3	1	0	3	0
31	327	1	10000	3	1	0	3	0
30	328	1	10000	3	1	0	3	0
31	329	1	10000	3	1	0	3	0
31	330	1	10000	3	1	0	3	0
33	331	1	10000	3	1	0	3	0
31	331	1	10000	3	1	0	3	0
32	332	1	10000	3	1	0	3	0
32	334	1	10000	3	1	0	3	0
32	335	1	10000	3	1	0	3	0
34	336	1	10000	3	1	0	3	0
34	337	1	10000	3	1	0	3	0
33	338	1	10000	3	1	0	3	0
35	339	1	10000	3	1	0	3	0
38	340	1	10000	3	1	0	3	0
38	341	1	10000	3	1	0	3	0
41	341	1	10000	3	1	0	3	0
41	342	1	10000	3	1	0	3	0
42	344	1	10000	3	1	0	3	0
42	345	1	10000	3	1	0	3	0
43	346	1	10000	3	1	0	3	0
41	347	1	10000	3	1	0	3	0
39	348	1	10000	3	1	0	3	0
39	349	1	10000	3	1	0	3	0
39	350	1	10000	3	1	0	3	0
39	351	1	10000	3	1	0	3	0
37	351	1	10000	3	1	0	3	0
35	352	1	10000	3	1	0	3	0
34	354	1	10000	3	1	0	3	0
33	355	1	10000	3	1	0	3	0
32	356	1	10000	3	1	0	3	0
32	357	1	10000	3	1	0	3	0
32	358	1	10000	3	1	0	3	0
34	359	1	10000	3	1	0	3	0
32	360	1	10000	3	1	0	3	0
30	361	1	10000	3	1	0	3	0
31	361	1	10000	3	1	0	3	0
31	362	1	10000	3	1	0	3	0
32	364	1	10000	3	1	0	3	0
32	365	1	10000	3	1	0	3	0
30	366	1	10000	3	1	0	3	0
30	367	1	10000	3	1	0	3	0
31	368	1	10000	3	1	0	3	0
33	369	1	10000	3	1	0	3	0
35	370	1	10000	3	1	0	3	0
36	371	1	10000	3	1	0	3	0
36	371	1	10000	3	1	0	3	0
35	372	1	10000	3	1	0	3	0
34	374	1	10000	3	1	0	3	0
33	375	1	10000	3	1	0	3	0
32	376	1	10000	3	1	0	3	0
32	377	1	10000	3	1	0	3	0
31	378	1	10000	3	1	0	3	0
30	379	1	10000	3	1	0	3	0
29	380	1	10000	3	1	0	3	0
28	381	1	10000	3	1	0	3	0
28	381	1	10000	3	1	0	3	0
28	382	1	10000	3	1	0	3	0
29	384	1	10000	3	1	0	3	0
26	385	1	10000	3	1	0	3	0
25	386	1	10000	3	1	0	3	0
25	387	1	10000	3	1	0	3	0
24	388	1	10000	3	1	0	3	0
23	389	1	10000	3	1	0	3	0
23	390	1	10000	3	1	0	3	0
23	391	1	10000	3	1	0	3	0
24	391	1	10000	3	1	0	3	0
27	392	1	10000	3	1	0	3	0
32	394	1	10000	3	1	0	3	0
38	395	1	10000	3	1	0	3	0
40	396	1	10000	3	1	0	3	0
43	397	1	10000	3	1	0	3	0
42	398	1	10000	3	1	0	3	0
45	399	1	10000	3	1	0	3	0
48	400	1	10000	3	1	0	3	0
54	401	1	10000	3	1	0	3	0
63	401	1	10000	3	1	0	3	0
73	402	1	10000	3	1	0	3	0
78	404	1	10000	3	1	0	3	0
78	405	1	10000	3	1	0	3	0
77	406	1	10000	3	1	0	3	0
78	407	1	10000	3	1	0	3	0
81	408	1	10000	3	1	0	3	0
85	409	1	10000	3	1	0	3	0
86	410	1	10000	3	1	0	3	0
85	411	1	10000	3	1	0	3	0
82	411	1	10000	3	1	0	3	0
80	412	1	10000	3	1	0	3	0
76	414	1	10000	3	1	0	3	0
73	415	1	10000	3	1	0	3	0
70	416	1	10000	3	1	0	3	0
68	417	1	10000	3	1	0	3	0
66	418	1	10000	3	1	0	3	0
64	419	1	10000	3	1	0	3	0
62	420	1	10000	3	1	0	3	0
58	421	1	10000	3	1	0	3	0
56	421	1	10000	3	1	0	3	0
54	422	1	10000	3	1	0	3	0
52	424	1	10000	3	1	0	3	0
50	425	1	10000	3	1	0	3	0
48	426	1	10000	3	1	0	3	0
46	427	1	10000	3	1	0	3	0
44	428	1	10000	3	1	0	3	0
41	429	1	10000	3	1	0	3	0
42	430	1	10000	3	1	0	3	0
44	431	1	10000	3	1	0	3	0
44	431	1	10000	3	1	0	3	0
45	432	1	10000	3	1	0	3	0
43	434	1	10000	3	1	0	3	0
42	435	1	10000	3	1	0	3	0
40	436	1	10000	3	1	0	3	0
39	437	1	10000	3	1	0	3	0
40	438	1	10000	3	1	0	3	0
39	439	1	10000	3	1	0	3	0
36	440	1	10000	3	1	0	3	0
34	441	1	10000	3	1	0	3	0
35	441	1	10000	3	1	0	3	0
33	442	1	10000	3	1	0	3	0
33	444	1	10000	3	1	0	3	0
34	445	1	10000	3	1	0	3	0
34	446	1	10000	3	1	0	3	0
33	447	1	10000	3	1	0	3	0
33	448	1	10000	3	1	0	3	0
32	449	1	10000	3	1	0	3	0
32	450	1	10000	3	1	0	3	0
31	451	1	10000	3	1	0	3	0
30	451	1	10000	3	1	0	3	0
29	452	1	10000	3	1	0	3	0
29	454	1	10000	3	1	0	3	0
30	455	1	10000	3	1	0	3	0
31	456	1	10000	3	1	0	3	0
31	457	1	10000	3	1	0	3	0
32	458	1	10000	3	1	0	3	0
32	459	1	10000	3	1	0	3	0
30	460	1	10000	3	1	0	3	0
28	461	1	10000	3	1	0	3	0
28	461	1	10000	3	1	0	3	0
29	462	1	10000	3	1	0	3	0
32	464	1	10000	3	1	0	3	0
33	465	1	10000	3	1	0	3	0
36	466	1	10000	3	1	0	3	0
40	467	1	10000	3	1	0	3	0
41	468	1	10000	3	1	0	3	0
39	469	1	10000	3	1	0	3	0
38	470	1	10000	3	1	0	3	0
37	471	1	10000	3	1	0	3	0
36	471	1	10000	3	1	0	3	0
35	472	1	10000	3	1	0	3	0
37	474	1	10000	3	1	0	3	0
41	475	1	10000	3	1	0	3	0
40	476	1	10000	3	1	0	3	0
39	477	1	10000	3	1	0	3	0
40	478	1	10000	3	1	0	3	0
43	479	1	10000	3	1	0	3	0
45	480	1	10000	3	1	0	3	0
45	481	1	10000	3	1	0	3	0
44	481	1	10000	3	1	0	3	0
42	482	1	10000	3	1	0	3	0
42	484	1	10000	3	1	0	3	0
44	485	1	10000	3	1	0	3	0
48	486	1	10000	3	1	0	3	0
46	487	1	10000	3	1	0	3	0
44	488	1	10000	3	1	0	3	0
43	489	1	10000	3	1	0	3	0
43	490	1	10000	3	1	0	3	0
44	491	1	10000	3	1	0	3	0
44	491	1	10000	3	1	0	3	0
41	492	1	10000	3	1	0	3	0
40	494	1	10000	3	1	0	3	0
39	495	1	10000	3	1	0	3	0
36	496	1	10000	3	1	0	3	0
36	497	1	10000	3	1	0	3	0
34	498	1	10000	3	1	0	3	0
33	499	1	10000	3	1	0	3	0
32	500	1	10000	3	1	0	3	0
30	501	1	10000	3	1	0	3	0
29	501	1	10000	3	1	0	3	1
28	502	1	10000	3	1	0	3	1
28	504	1	10000	3	1	0	3	1
27	505	1	10000	3	1	0	3	1
27	506	1	10000	3	1	0	3	1
31	507	1	10000	3	1	0	3	1
35	508	1	10000	3	1	0	3	1
37	509	1	10000	3	1	0	3	1
37	510	1	10000	3	1	0	3	1
37	511	1	10000	3	1	0	3	1
36	511	1	10000	3	1	0	3	1
36	512	1	10000	3	1	0	3	1
39	514	1	10000	3	1	0	3	1
42	515	1	10000	3	1	0	3	1
45	516	1	10000	3	1	0	3	1
51	517	1	10000	3	1	0	3	1
55	518	1	10000	3	1	0	3	1
59	519	1	10000	3	1	0	3	1
56	520	1	10000	3	1	0	3	1
53	521	1	10000	3	1	0	3	1
52	521	1	10000	3	1	0	3	1
49	522	1	10000	3	1	0	3	1
48	524	1	10000	3	1	0	3	1
48	525	1	10000	3	1	0	3	1
46	526	1	10000	3	1	0	3	1
45	527	1	10000	3	1	0	3	1
44	528	1	10000	3	1	0	3	1
43	529	1	10000	3	1	0	3	1
44	530	1	10000	3	1	0	3	1
44	531	1	10000	3	1	0	3	1
44	531	1	10000	3	1	0	3	1
44	532	1	10000	3	1	0	3	1
44	534	1	10000	3	1	0	3	1
45	535	1	10000	3	1	0	3	1
47	536	1	10000	3	1	0	3	1
47	537	1	10000	3	1	0	3	1
48	538	1	10000	3	1	0	3	1
47	539	1	10000	3	1	0	3	1
45	540	1	10000	3	1	0	3	1
43	541	1	10000	3	1	0	3	1
42	541	1	10000	3	1	0	3	1
40	542	1	10000	3	1	0	3	1
39	544	1	10000	3	1	0	3	1
37	545	1	10000	3	1	0	3	1
38	546	1	10000	3	1	0	3	1
39	547	1	10000	3	1	0	3	1
38	548	1	10000	3	1	0	3	1
39	549	1	10000	3	1	0	3	1
40	550	1	10000	3	1	0	3	1
41	551	1	10000	3	1	0	3	1
40	551	1	10000	3	1	0	3	0
40	552	1	10000	3	1	0	3	0
39	554	1	10000	3	1	0	3	0
38	555	1	10000	3	1	0	3	0
36	556	1	10000	3	1	0	3	0
35	557	1	10000	3	1	0	3	0
34	558	1	10000	3	1	0	3	0
33	559	1	10000	3	1	0	3	0
31	560	1	10000	3	1	0	3	0
29	561	1	10000	3	1	0	3	0
29	561	1	10000	3	1	0	3	0
30	562	1	10000	3	1	0	3	0
32	564	1	10000	3	1	0	3	0
32	565	1	10000	3	1	0	3	0
33	566	1	10000	3	1	0	3	0
31	567	1	10000	3	1	0	3	0
30	568	1	10000	3	1	0	3	0
30	569	1	10000	3	1	0	3	0
32	570	1	10000	3	1	0	3	0
35	571	1	10000	3	1	0	3	0
35	571	1	10000	3	1	0	3	0
34	572	1	10000	3	1	0	3	0
34	574	1	10000	3	1	0	3	0
33	575	1	10000	3	1	0	3	0
33	576	1	10000	3	1	0	3	0
32	577	1	10000	3	1	0	3	0
31	578	1	10000	3	1	0	3	0
31	579	1	10000	3	1	0	3	0
30	580	1	10000	3	1	0	3	0
28	581	1	10000	3	1	0	3	0
28	581	1	10000	3	1	0	3	0
29	582	1	10000	3	1	0	3	0
29	584	1	10000	3	1	0	3	0
28	585	1	10000	3	1	0	3	0
29	586	1	10000	3	1	0	3	0
28	587	1	10000	3	1	0	3	0
28	588	1	10000	3	1	0	3	0
28	589	1	10000	3	1	0	3	0
30	590	1	10000	3	1	0	3	0
31	591	1	10000	3	1	0	3	0
31	591	1	10000	3	1	0	3	0
30	592	1	10000	3	1	0	3	0
29	594	1	10000	3	1	0	3	0
30	595	1	10000	3	1	0	3	0
35	596	1	10000	3	1	0	3	0
46	597	1	10000	3	1	0	3	0
48	598	1	10000	3	1	0	3	0
54	599	1	10000	3	1	0	3	0
76	600	1	10000	3	1	0	3	0
147	601	1	10000	3	1	0	3	0
228	601	1	10000	3	1	0	3	0
264	602	1	10000	3	1	0	3	0
263	604	1	10000	3	1	0	3	0
272	605	1	10000	3	1	0	3	0
302	606	1	10000	3	1	0	3	0
334	607	1	10000	3	1	0	3	0
338	608	1	10000	3	1	0	3	0
322	609	1	10000	3	1	0	3	0
322	610	1	10000	3	1	0	3	0
327	611	1	10000	3	1	0	3	0
314	611	1	10000	3	1	0	3	0
308	612	1	10000	3	1	0	3	0
316	614	1	10000	3	1	0	3	0
344	615	1	10000	3	1	0	3	0
351	616	1	10000	3	1	0	3	0
340	617	1	10000	3	1	0	3	0
335	618	1	10000	3	1	0	3	0
334	619	1	10000	3	1	0	3	0
370	620	1	10000	3	1	0	3	0
392	621	1	10000	3	1	0	3	0
389	621	1	10000	3	1	0	3	0
385	622	1	10000	3	1	0	3	0
379	624	1	10000	3	1	0	3	0
372	625	1	10000	3	1	0	3	0
371	626	1	10000	3	1	0	3	0
368	627	1	10000	3	1	0	3	0
353	628	1	10000	3	1	0	3	0
341	629	1	10000	3	1	0	3	0
332	630	1	10000	3	1	0	3	0
332	631	1	10000	3	1	0	3	0
337	631	1	10000	3	1	0	3	0
339	632	1	10000	3	1	0	3	0
329	634	1	10000	3	1	0	3	0
324	635	1	10000	3	1	0	3	0
326	636	1	10000	3	1	0	3	0
333	637	1	10000	3	1	0	3	0
337	638	1	10000	3	1	0	3	0
331	639	1	10000	3	1	0	3	0
317	640	1	10000	3	1	0	3	0
303	641	1	10000	3	1	0	3	0
291	641	1	10000	3	1	0	3	0
282	642	1	10000	3	1	0	3	0
274	644	1	10000	3	1	0	3	0
268	645	1	10000	3	1	0	3	0
262	646	1	10000	3	1	0	3	0
255	647	1	10000	3	1	0	3	0
249	648	1	10000	3	1	0	3	0
242	649	1	10000	3	1	0	3	0
235	650	1	10000	3	1	0	3	0
227	651	1	10000	3	1	0	3	0
218	651	1	10000	3	1	0	3	0
208	652	1	10000	3	1	0	3	0
200	654	1	10000	3	1	0	3	0
191	655	1	10000	3	1	0	3	0
185	656	1	10000	3	1	0	3	0
178	657	1	10000	3	1	0	3	0
171	658	1	10000	3	1	0	3	0
165	659	1	10000	3	1	0	3	0
160	660	1	10000	3	1	0	3	0
155	661	1	10000	3	1	0	3	0
151	661	1	10000	3	1	0	3	0
146	662	1	10000	3	1	0	3	0
141	664	1	10000	3	1	0	3	0
137	665	1	10000	3	1	0	3	0
134	666	1	10000	3	1	0	3	0
131	667	1	10000	3	1	0	3	0
130	668	1	10000	3	1	0	3	0
129	669	1	10000	3	1	0	3	0
130	670	1	10000	3	1	0	3	0
132	671	1	10000	3	1	0	3	0
132	671	1	10000	3	1	0	3	0
132	672	1	10000	3	1	0	3	0
133	674	1	10000	3	1	0	3	0
133	675	1	10000	3	1	0	3	0
133	676	1	10000	3	1	0	3	0
134	677	1	10000	3	1	0	3	0
133	678	1	10000	3	1	0	3	0
133	679	1	10000	3	1	0	3	0
130	680	1	10000	3	1	0	3	0
127	681	1	10000	3	1	0	3	0
125	681	1	10000	3	1	0	3	0
122	682	1	10000	3	1	0	3	0
119	684	1	10000	3	1	0	3	0
116	685	1	10000	3	1	0	3	0
113	686	1	10000	3	1	0	3	0
110	687	1	10000	3	1	0	3	0
105	688	1	10000	3	1	0	3	0
102	689	1	10000	3	1	0	3	0
99	690	1	10000	3	1	0	3	0
95	691	1	10000	3	1	0	3	0
90	691	1	10000	3	1	0	3	0
86	692	1	10000	3	1	0	3	0
82	694	1	10000	3	1	0	3	0
80	695	1	10000	3	1	0	3	0
77	696	1	10000	3	1	0	3	0
74	697	1	10000	3	1	0	3	0
72	698	1	10000	3	1	0	3	0
69	699	1	10000	3	1	0	3	0
65	700	1	10000	3	1	0	3	0
62	701	1	10000	3	1	0	3	0
59	701	1	10000	3	1	0	3	0
57	702	1	10000	3	1	0	3	0
56	704	1	10000	3	1	0	3	0
56	705	1	10000	3	1	0	3	0
56	706	1	10000	3	1	0	3	0
56	707	1	10000	3	1	0	3	0
56	708	1	10000	3	1	0	3	0
55	709	1	10000	3	1	0	3	0
55	710	1	10000	3	1	0	3	0
55	711	1	10000	3	1	0	3	0
55	711	1	10000	3	1	0	3	0
53	712	1	10000	3	1	0	3	0
50	714	1	10000	3	1	0	3	0
48	715	1	10000	3	1	0	3	0
46	716	1	10000	3	1	0	3	0
45	717	1	10000	3	1	0	3	0
44	718	1	10000	3	1	0	3	0
42	719	1	10000	3	1	0	3	0
40	720	1	10000	3	1	0	3	0
38	721	1	10000	3	1	0	3	0
39	721	1	10000	3	1	0	3	0
42	722	1	10000	3	1	0	3	0
44	724	1	10000	3	1	0	3	0
45	725	1	10000	3	1	0	3	0
46	726	1	10000	3	1	0	3	0
47	727	1	10000	3	1	0	3	0
46	728	1	10000	3	1	0	3	0
46	729	1	10000	3	1	0	3	0
47	730	1	10000	3	1	0	3	0
48	731	1	10000	3	1	0	3	0
46	731	1	10000	3	1	0	3	0
45	732	1	10000	3	1	0	3	0
44	734	1	10000	3	1	0	3	0
42	735	1	10000	3	1	0	3	0
40	736	1	10000	3	1	0	3	0
40	737	1	10000	3	1	0	3	0
38	738	1	10000	3	1	0	3	0
37	739	1	10000	3	1	0	3	0
35	740	1	10000	3	1	0	3	0
34	741	1	10000	3	1	0	3	0
35	741	1	10000	3	1	0	3	0
36	742	1	10000	3	1	0	3	0
36	744	1	10000	3	1	0	3	0
36	745	1	10000	3	1	0	3	0
38	746	1	10000	3	1	0	3	0
38	747	1	10000	3	1	0	3	0
38	748	1	10000	3	1	0	3	0
37	749	1	10000	3	1	0	3	0
38	750	1	10000	3	1	0	3	0
41	751	1	10000	3	1	0	3	0
41	751	1	10000	3	1	0	3	0
41	752	1	10000	3	1	0	3	0
39	754	1	10000	3	1	0	3	0
38	755	1	10000	3	1	0	3	0
37	756	1	10000	3	1	0	3	0
38	757	1	10000	3	1	0	3	0
44	758	1	10000	3	1	0	3	0
49	759	1	10000	3	1	0	3	0
49	760	1	10000	3	1	0	3	0
47	761	1	10000	3	1	0	3	0
49	761	1	10000	3	1	0	3	0
52	762	1	10000	3	1	0	3	0
56	764	1	10000	3	1	0	3	0
59	765	1	10000	3	1	0	3	0
63	766	1	10000	3	1	0	3	0
65	767	1	10000	3	1	0	3	0
67	768	1	10000	3	1	0	3	0
67	769	1	10000	3	1	0	3	0
68	770	1	10000	3	1	0	3	0
67	771	1	10000	3	1	0	3	0
65	771	1	10000	3	1	0	3	0
62	772	1	10000	3	1	0	3	0
60	774	1	10000	3	1	0	3	0
59	775	1	10000	3	1	0	3	0
58	776	1	10000	3	1	0	3	0
56	777	1	10000	3	1	0	3	0
54	778	1	10000	3	1	0	3	0
53	779	1	10000	3	1	0	3	0
49	780	1	10000	3	1	0	3	0
47	781	1	10000	3	1	0	3	0
47	781	1	10000	3	1	0	3	0
47	782	1	10000	3	1	0	3	0
49	784	1	10000	3	1	0	3	0
52	785	1	10000	3	1	0	3	0
57	786	1	10000	3	1	0	3	0
62	787	1	10000	3	1	0	3	0
64	788	1	10000	3	1	0	3	0
65	789	1	10000	3	1	0	3	0
66	790	1	10000	3	1	0	3	0
66	791	1	10000	3	1	0	3	0
65	791	1	10000	3	1	0	3	0
65	792	1	10000	3	1	0	3	0
65	794	1	10000	3	1	0	3	0
67	795	1	10000	3	1	0	3	0
68	796	1	10000	3	1	0	3	0
67	797	1	10000	3	1	0	3	0
68	798	1	10000	3	1	0	3	0
68	799	1	10000	3	1	0	3	0
68	800	1	10000	3	1	0	3	0
67	801	1	10000	3	1	0	3	0
67	801	1	10000	3	1	0	3	0
67	802	1	10000	3	1	0	3	0
65	804	1	10000	3	1	0	3	0
63	805	1	10000	3	1	0	3	0
62	806	1	10000	3	1	0	3	0
60	807	1	10000	3	1	0	3	0
57	808	1	10000	3	1	0	3	0
55	809	1	10000	3	1	0	3	0
56	810	1	10000	3	1	0	3	0
57	811	1	10000	3	1	0	3	0
57	811	1	10000	3	1	0	3	0
55	812	1	10000	3	1	0	3	0
56	814	1	10000	3	1	0	3	0
57	815	1	10000	3	1	0	3	0
59	816	1	10000	3	1	0	3	0
61	817	1	10000	3	1	0	3	0
61	818	1	10000	3	1	0	3	0
60	819	1	10000	3	1	0	3	0
60	820	1	10000	3	1	0	3	0
64	821	1	10000	3	1	0	3	0
69	821	1	10000	3	1	0	3	0
71	822	1	10000	3	1	0	3	0
70	824	1	10000	3	1	0	3	0
70	825	1	10000	3	1	0	3	0
69	826	1	10000	3	1	0	3	0
69	827	1	10000	3	1	0	3	0
69	828	1	10000	3	1	0	3	0
66	829	1	10000	3	1	0	3	0
65	830	1	10000	3	1	0	3	0
64	831	1	10000	3	1	0	3	0
61	831	1	10000	3	1	0	3	0
58	832	1	10000	3	1	0	3	0
56	834	1	10000	3	1	0	3	0
54	835	1	10000	3	1	0	3	0
53	836	1	10000	3	1	0	3	0
54	837	1	10000	3	1	0	3	0
56	838	1	10000	3	1	0	3	0
58	839	1	10000	3	1	0	3	0
56	840	1	10000	3	1	0	3	0
55	841	1	10000	3	1	0	3	0
54	841	1	10000	3	1	0	3	0
52	842	1	10000	3	1	0	3	0
50	844	1	10000	3	1	0	3	0
49	845	1	10000	3	1	0	3	0
48	846	1	10000	3	1	0	3	0
48	847	1	10000	3	1	0	3	0
47	848	1	10000	3	1	0	3	0
47	849	1	10000	3	1	0	3	0
50	850	1	10000	3	1	0	3	0
51	851	1	10000	3	1	0	3	0
50	851	1	10000	3	1	0	3	0
50	852	1	10000	3	1	0	3	0
49	854	1	10000	3	1	0	3	0
48	855	1	10000	3	1	0	3	0
47	856	1	10000	3	1	0	3	0
46	857	1	10000	3	1	0	3	0
45	858	1	10000	3	1	0	3	0
47	859	1	10000	3	1	0	3	0
48	860	1	10000	3	1	0	3	0
49	861	1	10000	3	1	0	3	0
48	861	1	10000	3	1	0	3	0
47	862	1	10000	3	1	0	3	0
49	864	1	10000	3	1	0	3	0
50	865	1	10000	3	1	0	3	0
52	866	1	10000	3	1	0	3	0
53	867	1	10000	3	1	0	3	0
51	868	1	10000	3	1	0	3	0
49	869	1	10000	3	1	0	3	0
51	870	1	10000	3	1	0	3	0
53	871	1	10000	3	1	0	3	0
55	871	1	10000	3	1	0	3	0
55	872	1	10000	3	1	0	3	0
56	874	1	10000	3	1	0	3	0
59	875	1	10000	3	1	0	3	0
67	876	1	10000	3	1	0	3	0
77	877	1	10000	3	1	0	3	0
81	878	1	10000	3	1	0	3	0
80	879	1	10000	3	1	0	3	0
83	880	1	10000	3	1	0	3	0
88	881	1	10000	3	1	0	3	0
89	881	1	10000	3	1	0	3	0
88	882	1	10000	3	1	0	3	0
87	884	1	10000	3	1	0	3	0
83	885	1	10000	3	1	0	3	0
80	886	1	10000	3	1	0	3	0
80	887	1	10000	3	1	0	3	0
80	888	1	10000	3	1	0	3	0
80	889	1	10000	3	1	0	3	0
81	890	1	10000	3	1	0	3	0
82	891	1	10000	3	1	0	3	0
82	891	1	10000	3	1	0	3	0
82	892	1	10000	3	1	0	3	0
81	894	1	10000	3	1	0	3	0
81	895	1	10000	3	1	0	3	0
79	896	1	10000	3	1	0	3	0
77	897	1	10000	3	1	0	3	0
74	898	1	10000	3	1	0	3	0
73	899	1	10000	3	1	0	3	0
70	900	1	10000	3	1	0	3	0
72	901	1	10000	3	1	0	3	0
85	901	1	10000	3	1	0	3	0
98	902	1	10000	3	1	0	3	0
105	904	1	10000	3	1	0	3	0
102	905	1	10000	3	1	0	3	0
101	906	1	10000	3	1	0	3	0
103	907	1	10000	3	1	0	3	0
110	908	1	10000	3	1	0	3	0
114	909	1	10000	3	1	0	3	0
114	910	1	10000	3	1	0	3	0
119	911	1	10000	3	1	0	3	0
123	911	1	10000	3	1	0	3	0
119	912	1	10000	3	1	0	3	0
120	914	1	10000	3	1	0	3	0
127	915	1	10000	3	1	0	3	0
129	916	1	10000	3	1	0	3	0
126	917	1	10000	3	1	0	3	0
128	918	1	10000	3	1	0	3	0
130	919	1	10000	3	1	0	3	0
125	920	1	10000	3	1	0	3	0
120	921	1	10000	3	1	0	3	0
115	921	1	10000	3	1	0	3	0
111	922	1	10000	3	1	0	3	0
109	924	1	10000	3	1	0	3	0
106	925	1	10000	3	1	0	3	0
102	926	1	10000	3	1	0	3	0
100	927	1	10000	3	1	0	3	0
99	928	1	10000	3	1	0	3	0
96	929	1	10000	3	1	0	3	0
98	930	1	10000	3	1	0	3	0
97	931	1	10000	3	1	0	3	0
93	931	1	10000	3	1	0	3	0
89	932	1	10000	3	1	0	3	0
85	934	1	10000	3	1	0	3	0
84	935	1	10000	3	1	0	3	0
83	936	1	10000	3	1	0	3	0
80	937	1	10000	3	1	0	3	0
79	938	1	10000	3	1	0	3	0
76	939	1	10000	3	1	0	3	0
74	940	1	10000	3	1	0	3	0
71	941	1	10000	3	1	0	3	0
74	941	1	10000	3	1	0	3	0
75	942	1	10000	3	1	0	3	0
75	944	1	10000	3	1	0	3	0
79	945	1	10000	3	1	0	3	0
80	946	1	10000	3	1	0	3	0
79	947	1	10000	3	1	0	3	0
77	948	1	10000	3	1	0	3	0
74	949	1	10000	3	1	0	3	0
73	950	1	10000	3	1	0	3	0
73	951	1	10000	3	1	0	3	0
70	951	1	10000	3	1	0	3	0
68	952	1	10000	3	1	0	3	0
69	954	1	10000	3	1	0	3	0
70	955	1	10000	3	1	0	3	0
68	956	1	10000	3	1	0	3	0
65	957	1	10000	3	1	0	3	0
62	958	1	10000	3	1	0	3	0
61	959	1	10000	3	1	0	3	0
58	960	1	10000	3	1	0	3	0
56	961	1	10000	3	1	0	3	0
55	961	1	10000	3	1	0	3	0
55	962	1	10000	3	1	0	3	0
56	964	1	10000	3	1	0	3	0
63	965	1	10000	3	1	0	3	0
70	966	1	10000	3	1	0	3	0
71	967	1	10000	3	1	0	3	0
69	968	1	10000	3	1	0	3	0
72	969	1	10000	3	1	0	3	0
77	970	1	10000	3	1	0	3	0
83	971	1	10000	3	1	0	3	0
86	971	1	10000	3	1	0	3	0
88	972	1	10000	3	1	0	3	0
91	974	1	10000	3	1	0	3	0
92	975	1	10000	3	1	0	3	0
88	976	1	10000	3	1	0	3	0
86	977	1	10000	3	1	0	3	0
87	978	1	10000	3	1	0	3	0
85	979	1	10000	3	1	0	3	0
81	980	1	10000	3	1	0	3	0
77	981	1	10000	3	1	0	3	0
74	981	1	10000	3	1	0	3	0
72	982	1	10000	3	1	0	3	0
71	984	1	10000	3	1	0	3	0
70	985	1	10000	3	1	0	3	0
70	986	1	10000	3	1	0	3	0
70	987	1	10000	3	1	0	3	0
70	988	1	10000	3	1	0	3	0
68	989	1	10000	3	1	0	3	0
67	990	1	10000	3	1	0	3	0
66	991	1	10000	3	1	0	3	0
64	991	1	10000	3	1	0	3	0
61	992	1	10000	3	1	0	3	0
59	994	1	10000	3	1	0	3	0
59	995	1	10000	3	1	0	3	0
59	996	1	10000	3	1	0	3	0
62	997	1	10000	3	1	0	3	0
66	998	1	10000	3	1	0	3	0
67	999	1	10000	3	1	0	3	0
65	1000	1	10000	3	1	0	3	0
67	1001	1	10000	3	1	0	3	0
34	1	10	10000	4	1	0	4	0
35	2	10	10000	4	1	0	4	0
35	3	10	10000	4	1	0	4	0
35	4	10	10000	4	1	0	4	0
33	5	10	10000	4	1	0	4	0
32	6	10	10000	4	1	0	4	0
32	7	10	10000	4	1	0	4	0
31	8	10	10000	4	1	0	4	0
32	9	10	10000	4	1	0	4	0
35	10	10	10000	4	1	0	4	0
36	11	10	10000	4	1	0	4	0
37	12	10	10000	4	1	0	4	0
37	13	10	10000	4	1	0	4	0
36	14	10	10000	4	1	0	4	0
37	15	10	10000	4	1	0	4	0
38	16	10	10000	4	1	0	4	0
38	17	10	10000	4	1	0	4	0
39	18	10	10000	4	1	0	4	0
42	19	10	10000	4	1	0	4	0
42	20	10	10000	4	1	0	4	0
44	21	10	10000	4	1	0	4	0
44	22	10	10000	4	1	0	4	0
44	23	10	10000	4	1	0	4	0
42	24	10	10000	4	1	0	4	0
40	25	10	10000	4	1	0	4	0
38	26	10	10000	4	1	0	4	0
38	27	10	10000	4	1	0	4	0
37	28	10	10000	4	1	0	4	0
36	29	10	10000	4	1	0	4	0
35	30	10	10000	4	1	0	4	0
32	31	10	10000	4	1	0	4	0
31	32	10	10000	4	1	0	4	0
30	33	10	10000	4	1	0	4	0
29	34	10	10000	4	1	0	4	0
28	35	10	10000	4	1	0	4	0
27	36	10	10000	4	1	0	4	0
26	37	10	10000	4	1	0	4	0
25	38	10	10000	4	1	0	4	0
24	39	10	10000	4	1	0	4	0
23	40	10	10000	4	1	0	4	0
25	41	10	10000	4	1	0	4	0
26	42	10	10000	4	1	0	4	0
25	43	10	10000	4	1	0	4	0
24	44	10	10000	4	1	0	4	0
24	45	10	10000	4	1	0	4	0
23	46	10	10000	4	1	0	4	0
22	47	10	10000	4	1	0	4	0
22	48	10	10000	4	1	0	4	0
23	49	10	10000	4	1	0	4	0
23	50	10	10000	4	1	0	4	0
23	51	10	10000	4	1	0	4	0
25	52	10	10000	4	1	0	4	0
26	53	10	10000	4	1	0	4	0
26	54	10	10000	4	1	0	4	0
26	55	10	10000	4	1	0	4	0
26	56	10	10000	4	1	0	4	0
29	57	10	10000	4	1	0	4	0
27	58	10	10000	4	1	0	4	0
28	59	10	10000	4	1	0	4	0
29	60	10	10000	4	1	0	4	0
30	61	10	10000	4	1	0	4	0
31	62	10	10000	4	1	0	4	0
33	63	10	10000	4	1	0	4	0
36	64	10	10000	4	1	0	4	0
38	65	10	10000	4	1	0	4	0
39	66	10	10000	4	1	0	4	0
39	67	10	10000	4	1	0	4	0
39	68	10	10000	4	1	0	4	0
38	69	10	10000	4	1	0	4	0
38	70	10	10000	4	1	0	4	0
38	71	10	10000	4	1	0	4	0
37	72	10	10000	4	1	0	4	0
37	73	10	10000	4	1	0	4	0
37	74	10	10000	4	1	0	4	0
37	75	10	10000	4	1	0	4	0
36	76	10	10000	4	1	0	4	0
35	77	10	10000	4	1	0	4	0
33	78	10	10000	4	1	0	4	0
33	79	10	10000	4	1	0	4	0
31	80	10	10000	4	1	0	4	0
32	81	10	10000	4	1	0	4	0
33	82	10	10000	4	1	0	4	0
33	83	10	10000	4	1	0	4	0
32	84	10	10000	4	1	0	4	0
31	85	10	10000	4	1	0	4	0
30	86	10	10000	4	1	0	4	0
30	87	10	10000	4	1	0	4	0
29	88	10	10000	4	1	0	4	0
28	89	10	10000	4	1	0	4	0
29	90	10	10000	4	1	0	4	0
27	91	10	10000	4	1	0	4	0
26	92	10	10000	4	1	0	4	0
26	93	10	10000	4	1	0	4	0
24	94	10	10000	4	1	0	4	0
24	95	10	10000	4	1	0	4	0
24	96	10	10000	4	1	0	4	0
23	97	10	10000	4	1	0	4	0
22	98	10	10000	4	1	0	4	0
21	99	10	10000	4	1	0	4	0
21	100	10	10000	4	1	0	4	0
24	101	10	10000	4	1	0	4	0
24	102	10	10000	4	1	0	4	0
24	103	10	10000	4	1	0	4	0
26	104	10	10000	4	1	0	4	0
31	105	10	10000	4	1	0	4	0
34	106	10	10000	4	1	0	4	0
37	107	10	10000	4	1	0	4	0
38	108	10	10000	4	1	0	4	0
38	109	10	10000	4	1	0	4	0
41	110	10	10000	4	1	0	4	0
41	111	10	10000	4	1	0	4	0
40	112	10	10000	4	1	0	4	0
39	113	10	10000	4	1	0	4	0
37	114	10	10000	4	1	0	4	0
36	115	10	10000	4	1	0	4	0
34	116	10	10000	4	1	0	4	0
33	117	10	10000	4	1	0	4	0
33	118	10	10000	4	1	0	4	0
34	119	10	10000	4	1	0	4	0
35	120	10	10000	4	1	0	4	0
37	121	10	10000	4	1	0	4	0
40	122	10	10000	4	1	0	4	0
40	123	10	10000	4	1	0	4	0
39	124	10	10000	4	1	0	4	0
38	125	10	10000	4	1	0	4	0
40	126	10	10000	4	1	0	4	0
39	127	10	10000	4	1	0	4	0
40	128	10	10000	4	1	0	4	0
40	129	10	10000	4	1	0	4	0
39	130	10	10000	4	1	0	4	0
36	131	10	10000	4	1	0	4	0
34	132	10	10000	4	1	0	4	0
33	133	10	10000	4	1	0	4	0
33	134	10	10000	4	1	0	4	0
32	135	10	10000	4	1	0	4	0
33	136	10	10000	4	1	0	4	0
38	137	10	10000	4	1	0	4	0
42	138	10	10000	4	1	0	4	0
50	139	10	10000	4	1	0	4	0
56	140	10	10000	4	1	0	4	0
56	141	10	10000	4	1	0	4	0
58	142	10	10000	4	1	0	4	0
60	143	10	10000	4	1	0	4	0
59	144	10	10000	4	1	0	4	0
61	145	10	10000	4	1	0	4	0
63	146	10	10000	4	1	0	4	0
61	147	10	10000	4	1	0	4	0
65	148	10	10000	4	1	0	4	0
69	149	10	10000	4	1	0	4	0
78	150	10	10000	4	1	0	4	0
84	151	10	10000	4	1	0	4	0
90	152	10	10000	4	1	0	4	0
95	153	10	10000	4	1	0	4	0
100	154	10	10000	4	1	0	4	0
104	155	10	10000	4	1	0	4	0
104	156	10	10000	4	1	0	4	0
100	157	10	10000	4	1	0	4	0
99	158	10	10000	4	1	0	4	0
103	159	10	10000	4	1	0	4	0
105	160	10	10000	4	1	0	4	0
107	161	10	10000	4	1	0	4	0
109	162	10	10000	4	1	0	4	0
106	163	10	10000	4	1	0	4	0
103	164	10	10000	4	1	0	4	0
98	165	10	10000	4	1	0	4	0
94	166	10	10000	4	1	0	4	0
90	167	10	10000	4	1	0	4	0
86	168	10	10000	4	1	0	4	0
84	169	10	10000	4	1	0	4	0
82	170	10	10000	4	1	0	4	0
77	171	10	10000	4	1	0	4	0
75	172	10	10000	4	1	0	4	0
77	173	10	10000	4	1	0	4	0
77	174	10	10000	4	1	0	4	0
74	175	10	10000	4	1	0	4	0
72	176	10	10000	4	1	0	4	0
71	177	10	10000	4	1	0	4	0
70	178	10	10000	4	1	0	4	0
68	179	10	10000	4	1	0	4	0
65	180	10	10000	4	1	0	4	0
68	181	10	10000	4	1	0	4	0
69	182	10	10000	4	1	0	4	0
67	183	10	10000	4	1	0	4	0
64	184	10	10000	4	1	0	4	0
62	185	10	10000	4	1	0	4	0
60	186	10	10000	4	1	0	4	0
59	187	10	10000	4	1	0	4	0
57	188	10	10000	4	1	0	4	0
55	189	10	10000	4	1	0	4	0
56	190	10	10000	4	1	0	4	0
55	191	10	10000	4	1	0	4	0
55	192	10	10000	4	1	0	4	0
54	193	10	10000	4	1	0	4	0
52	194	10	10000	4	1	0	4	0
52	195	10	10000	4	1	0	4	0
54	196	10	10000	4	1	0	4	0
56	197	10	10000	4	1	0	4	0
54	198	10	10000	4	1	0	4	0
52	199	10	10000	4	1	0	4	0
50	200	10	10000	4	1	0	4	0
50	201	10	10000	4	1	0	4	0
51	202	10	10000	4	1	0	4	0
51	203	10	10000	4	1	0	4	0
53	204	10	10000	4	1	0	4	0
54	205	10	10000	4	1	0	4	0
54	206	10	10000	4	1	0	4	0
63	207	10	10000	4	1	0	4	0
75	208	10	10000	4	1	0	4	0
79	209	10	10000	4	1	0	4	0
78	210	10	10000	4	1	0	4	0
83	211	10	10000	4	1	0	4	0
86	212	10	10000	4	1	0	4	0
89	213	10	10000	4	1	0	4	0
92	214	10	10000	4	1	0	4	0
92	215	10	10000	4	1	0	4	0
89	216	10	10000	4	1	0	4	0
87	217	10	10000	4	1	0	4	0
87	218	10	10000	4	1	0	4	0
85	219	10	10000	4	1	0	4	0
82	220	10	10000	4	1	0	4	0
81	221	10	10000	4	1	0	4	0
81	222	10	10000	4	1	0	4	0
81	223	10	10000	4	1	0	4	0
83	224	10	10000	4	1	0	4	0
83	225	10	10000	4	1	0	4	0
80	226	10	10000	4	1	0	4	0
77	227	10	10000	4	1	0	4	0
74	228	10	10000	4	1	0	4	0
74	229	10	10000	4	1	0	4	0
78	230	10	10000	4	1	0	4	0
80	231	10	10000	4	1	0	4	0
83	232	10	10000	4	1	0	4	0
86	233	10	10000	4	1	0	4	0
85	234	10	10000	4	1	0	4	0
82	235	10	10000	4	1	0	4	0
82	236	10	10000	4	1	0	4	0
80	237	10	10000	4	1	0	4	0
82	238	10	10000	4	1	0	4	0
85	239	10	10000	4	1	0	4	0
81	240	10	10000	4	1	0	4	0
82	241	10	10000	4	1	0	4	0
82	242	10	10000	4	1	0	4	0
79	243	10	10000	4	1	0	4	0
77	244	10	10000	4	1	0	4	0
76	245	10	10000	4	1	0	4	0
75	246	10	10000	4	1	0	4	0
76	247	10	10000	4	1	0	4	0
74	248	10	10000	4	1	0	4	0
71	249	10	10000	4	1	0	4	0
71	250	10	10000	4	1	0	4	0
69	251	10	10000	4	1	0	4	0
68	252	10	10000	4	1	0	4	0
69	253	10	10000	4	1	0	4	0
72	254	10	10000	4	1	0	4	0
74	255	10	10000	4	1	0	4	0
74	256	10	10000	4	1	0	4	0
72	257	10	10000	4	1	0	4	0
71	258	10	10000	4	1	0	4	0
73	259	10	10000	4	1	0	4	0
75	260	10	10000	4	1	0	4	0
76	261	10	10000	4	1	0	4	0
74	262	10	10000	4	1	0	4	0
71	263	10	10000	4	1	0	4	0
68	264	10	10000	4	1	0	4	0
64	265	10	10000	4	1	0	4	0
62	266	10	10000	4	1	0	4	0
60	267	10	10000	4	1	0	4	0
59	268	10	10000	4	1	0	4	0
57	269	10	10000	4	1	0	4	0
58	270	10	10000	4	1	0	4	0
58	271	10	10000	4	1	0	4	0
62	272	10	10000	4	1	0	4	0
71	273	10	10000	4	1	0	4	0
78	274	10	10000	4	1	0	4	0
78	275	10	10000	4	1	0	4	0
78	276	10	10000	4	1	0	4	0
83	277	10	10000	4	1	0	4	0
87	278	10	10000	4	1	0	4	0
90	279	10	10000	4	1	0	4	0
87	280	10	10000	4	1	0	4	0
85	281	10	10000	4	1	0	4	0
81	282	10	10000	4	1	0	4	0
78	283	10	10000	4	1	0	4	0
75	284	10	10000	4	1	0	4	0
73	285	10	10000	4	1	0	4	0
72	286	10	10000	4	1	0	4	0
69	287	10	10000	4	1	0	4	0
67	288	10	10000	4	1	0	4	0
68	289	10	10000	4	1	0	4	0
68	290	10	10000	4	1	0	4	0
66	291	10	10000	4	1	0	4	0
62	292	10	10000	4	1	0	4	0
65	293	10	10000	4	1	0	4	0
73	294	10	10000	4	1	0	4	0
76	295	10	10000	4	1	0	4	0
75	296	10	10000	4	1	0	4	0
78	297	10	10000	4	1	0	4	0
78	298	10	10000	4	1	0	4	0
75	299	10	10000	4	1	0	4	0
71	300	10	10000	4	1	0	4	0
71	301	10	10000	4	1	0	4	0
69	302	10	10000	4	1	0	4	0
66	303	10	10000	4	1	0	4	0
63	304	10	10000	4	1	0	4	0
61	305	10	10000	4	1	0	4	0
59	306	10	10000	4	1	0	4	0
58	307	10	10000	4	1	0	4	0
56	308	10	10000	4	1	0	4	0
55	309	10	10000	4	1	0	4	0
55	310	10	10000	4	1	0	4	0
52	311	10	10000	4	1	0	4	0
50	312	10	10000	4	1	0	4	0
51	313	10	10000	4	1	0	4	0
53	314	10	10000	4	1	0	4	0
53	315	10	10000	4	1	0	4	0
51	316	10	10000	4	1	0	4	0
50	317	10	10000	4	1	0	4	0
50	318	10	10000	4	1	0	4	0
49	319	10	10000	4	1	0	4	0
47	320	10	10000	4	1	0	4	0
48	321	10	10000	4	1	0	4	0
47	322	10	10000	4	1	0	4	0
47	323	10	10000	4	1	0	4	0
50	324	10	10000	4	1	0	4	0
53	325	10	10000	4	1	0	4	0
54	326	10	10000	4	1	0	4	0
52	327	10	10000	4	1	0	4	0
52	328	10	10000	4	1	0	4	0
53	329	10	10000	4	1	0	4	0
56	330	10	10000	4	1	0	4	0
56	331	10	10000	4	1	0	4	0
55	332	10	10000	4	1	0	4	0
53	333	10	10000	4	1	0	4	0
51	334	10	10000	4	1	0	4	0
52	335	10	10000	4	1	0	4	0
53	336	10	10000	4	1	0	4	0
53	337	10	10000	4	1	0	4	0
52	338	10	10000	4	1	0	4	0
50	339	10	10000	4	1	0	4	0
49	340	10	10000	4	1	0	4	0
51	341	10	10000	4	1	0	4	0
50	342	10	10000	4	1	0	4	0
48	343	10	10000	4	1	0	4	0
48	344	10	10000	4	1	0	4	0
48	345	10	10000	4	1	0	4	0
46	346	10	10000	4	1	0	4	0
46	347	10	10000	4	1	0	4	0
44	348	10	10000	4	1	0	4	0
44	349	10	10000	4	1	0	4	0
43	350	10	10000	4	1	0	4	0
42	351	10	10000	4	1	0	4	0
41	352	10	10000	4	1	0	4	0
41	353	10	10000	4	1	0	4	0
39	354	10	10000	4	1	0	4	0
38	355	10	10000	4	1	0	4	0
40	356	10	10000	4	1	0	4	0
44	357	10	10000	4	1	0	4	0
44	358	10	10000	4	1	0	4	0
45	359	10	10000	4	1	0	4	0
47	360	10	10000	4	1	0	4	0
48	361	10	10000	4	1	0	4	0
47	362	10	10000	4	1	0	4	0
46	363	10	10000	4	1	0	4	0
44	364	10	10000	4	1	0	4	0
44	365	10	10000	4	1	0	4	0
43	366	10	10000	4	1	0	4	0
42	367	10	10000	4	1	0	4	0
42	368	10	10000	4	1	0	4	0
42	369	10	10000	4	1	0	4	0
41	370	10	10000	4	1	0	4	0
39	371	10	10000	4	1	0	4	0
36	372	10	10000	4	1	0	4	0
35	373	10	10000	4	1	0	4	0
34	374	10	10000	4	1	0	4	0
34	375	10	10000	4	1	0	4	0
33	376	10	10000	4	1	0	4	0
34	377	10	10000	4	1	0	4	0
33	378	10	10000	4	1	0	4	0
35	379	10	10000	4	1	0	4	0
35	380	10	10000	4	1	0	4	0
36	381	10	10000	4	1	0	4	0
37	382	10	10000	4	1	0	4	0
41	383	10	10000	4	1	0	4	0
44	384	10	10000	4	1	0	4	0
47	385	10	10000	4	1	0	4	0
47	386	10	10000	4	1	0	4	0
45	387	10	10000	4	1	0	4	0
44	388	10	10000	4	1	0	4	0
44	389	10	10000	4	1	0	4	0
43	390	10	10000	4	1	0	4	0
43	391	10	10000	4	1	0	4	0
41	392	10	10000	4	1	0	4	0
41	393	10	10000	4	1	0	4	0
40	394	10	10000	4	1	0	4	0
40	395	10	10000	4	1	0	4	0
41	396	10	10000	4	1	0	4	0
41	397	10	10000	4	1	0	4	0
41	398	10	10000	4	1	0	4	0
40	399	10	10000	4	1	0	4	0
38	400	10	10000	4	1	0	4	0
38	401	10	10000	4	1	0	4	0
40	402	10	10000	4	1	0	4	0
42	403	10	10000	4	1	0	4	0
44	404	10	10000	4	1	0	4	0
45	405	10	10000	4	1	0	4	0
45	406	10	10000	4	1	0	4	0
46	407	10	10000	4	1	0	4	0
49	408	10	10000	4	1	0	4	0
51	409	10	10000	4	1	0	4	0
52	410	10	10000	4	1	0	4	0
51	411	10	10000	4	1	0	4	0
51	412	10	10000	4	1	0	4	0
52	413	10	10000	4	1	0	4	0
50	414	10	10000	4	1	0	4	0
49	415	10	10000	4	1	0	4	0
47	416	10	10000	4	1	0	4	0
45	417	10	10000	4	1	0	4	0
45	418	10	10000	4	1	0	4	0
45	419	10	10000	4	1	0	4	0
42	420	10	10000	4	1	0	4	0
43	421	10	10000	4	1	0	4	0
43	422	10	10000	4	1	0	4	0
42	423	10	10000	4	1	0	4	0
41	424	10	10000	4	1	0	4	0
40	425	10	10000	4	1	0	4	0
41	426	10	10000	4	1	0	4	0
43	427	10	10000	4	1	0	4	0
44	428	10	10000	4	1	0	4	0
45	429	10	10000	4	1	0	4	0
44	430	10	10000	4	1	0	4	0
41	431	10	10000	4	1	0	4	0
39	432	10	10000	4	1	0	4	0
41	433	10	10000	4	1	0	4	0
41	434	10	10000	4	1	0	4	0
41	435	10	10000	4	1	0	4	0
42	436	10	10000	4	1	0	4	0
42	437	10	10000	4	1	0	4	0
40	438	10	10000	4	1	0	4	0
40	439	10	10000	4	1	0	4	0
41	440	10	10000	4	1	0	4	0
42	441	10	10000	4	1	0	4	0
43	442	10	10000	4	1	0	4	0
43	443	10	10000	4	1	0	4	0
44	444	10	10000	4	1	0	4	0
45	445	10	10000	4	1	0	4	0
46	446	10	10000	4	1	0	4	0
47	447	10	10000	4	1	0	4	0
51	448	10	10000	4	1	0	4	0
52	449	10	10000	4	1	0	4	0
52	450	10	10000	4	1	0	4	0
49	451	10	10000	4	1	0	4	0
46	452	10	10000	4	1	0	4	0
47	453	10	10000	4	1	0	4	0
47	454	10	10000	4	1	0	4	0
45	455	10	10000	4	1	0	4	0
44	456	10	10000	4	1	0	4	0
43	457	10	10000	4	1	0	4	0
41	458	10	10000	4	1	0	4	0
44	459	10	10000	4	1	0	4	0
50	460	10	10000	4	1	0	4	0
54	461	10	10000	4	1	0	4	0
54	462	10	10000	4	1	0	4	0
55	463	10	10000	4	1	0	4	0
56	464	10	10000	4	1	0	4	0
56	465	10	10000	4	1	0	4	0
54	466	10	10000	4	1	0	4	0
52	467	10	10000	4	1	0	4	0
51	468	10	10000	4	1	0	4	0
52	469	10	10000	4	1	0	4	0
54	470	10	10000	4	1	0	4	0
52	471	10	10000	4	1	0	4	0
55	472	10	10000	4	1	0	4	0
59	473	10	10000	4	1	0	4	0
61	474	10	10000	4	1	0	4	0
61	475	10	10000	4	1	0	4	0
62	476	10	10000	4	1	0	4	0
59	477	10	10000	4	1	0	4	0
57	478	10	10000	4	1	0	4	0
55	479	10	10000	4	1	0	4	0
56	480	10	10000	4	1	0	4	0
59	481	10	10000	4	1	0	4	0
59	482	10	10000	4	1	0	4	0
57	483	10	10000	4	1	0	4	0
55	484	10	10000	4	1	0	4	0
56	485	10	10000	4	1	0	4	0
57	486	10	10000	4	1	0	4	0
58	487	10	10000	4	1	0	4	0
56	488	10	10000	4	1	0	4	0
55	489	10	10000	4	1	0	4	0
55	490	10	10000	4	1	0	4	0
53	491	10	10000	4	1	0	4	0
51	492	10	10000	4	1	0	4	0
49	493	10	10000	4	1	0	4	0
49	494	10	10000	4	1	0	4	0
47	495	10	10000	4	1	0	4	0
46	496	10	10000	4	1	0	4	0
47	497	10	10000	4	1	0	4	0
49	498	10	10000	4	1	0	4	0
46	499	10	10000	4	1	0	4	0
44	500	10	10000	4	1	0	4	0
45	501	10	10000	4	1	0	4	1
44	502	10	10000	4	1	0	4	1
43	503	10	10000	4	1	0	4	1
43	504	10	10000	4	1	0	4	1
41	505	10	10000	4	1	0	4	1
41	506	10	10000	4	1	0	4	1
42	507	10	10000	4	1	0	4	1
44	508	10	10000	4	1	0	4	1
45	509	10	10000	4	1	0	4	1
44	510	10	10000	4	1	0	4	1
41	511	10	10000	4	1	0	4	1
40	512	10	10000	4	1	0	4	1
43	513	10	10000	4	1	0	4	1
48	514	10	10000	4	1	0	4	1
50	515	10	10000	4	1	0	4	1
50	516	10	10000	4	1	0	4	1
56	517	10	10000	4	1	0	4	1
67	518	10	10000	4	1	0	4	1
73	519	10	10000	4	1	0	4	1
77	520	10	10000	4	1	0	4	1
77	521	10	10000	4	1	0	4	1
75	522	10	10000	4	1	0	4	1
75	523	10	10000	4	1	0	4	1
78	524	10	10000	4	1	0	4	1
79	525	10	10000	4	1	0	4	1
78	526	10	10000	4	1	0	4	1
81	527	10	10000	4	1	0	4	1
85	528	10	10000	4	1	0	4	1
86	529	10	10000	4	1	0	4	1
83	530	10	10000	4	1	0	4	1
80	531	10	10000	4	1	0	4	1
80	532	10	10000	4	1	0	4	1
83	533	10	10000	4	1	0	4	1
82	534	10	10000	4	1	0	4	1
79	535	10	10000	4	1	0	4	1
76	536	10	10000	4	1	0	4	1
73	537	10	10000	4	1	0	4	1
70	538	10	10000	4	1	0	4	1
67	539	10	10000	4	1	0	4	1
64	540	10	10000	4	1	0	4	1
64	541	10	10000	4	1	0	4	1
64	542	10	10000	4	1	0	4	1
60	543	10	10000	4	1	0	4	1
60	544	10	10000	4	1	0	4	1
62	545	10	10000	4	1	0	4	1
63	546	10	10000	4	1	0	4	1
64	547	10	10000	4	1	0	4	1
64	548	10	10000	4	1	0	4	1
62	549	10	10000	4	1	0	4	1
61	550	10	10000	4	1	0	4	1
60	551	10	10000	4	1	0	4	0
61	552	10	10000	4	1	0	4	0
59	553	10	10000	4	1	0	4	0
58	554	10	10000	4	1	0	4	0
59	555	10	10000	4	1	0	4	0
61	556	10	10000	4	1	0	4	0
63	557	10	10000	4	1	0	4	0
63	558	10	10000	4	1	0	4	0
61	559	10	10000	4	1	0	4	0
58	560	10	10000	4	1	0	4	0
58	561	10	10000	4	1	0	4	0
57	562	10	10000	4	1	0	4	0
58	563	10	10000	4	1	0	4	0
58	564	10	10000	4	1	0	4	0
57	565	10	10000	4	1	0	4	0
58	566	10	10000	4	1	0	4	0
61	567	10	10000	4	1	0	4	0
68	568	10	10000	4	1	0	4	0
75	569	10	10000	4	1	0	4	0
76	570	10	10000	4	1	0	4	0
73	571	10	10000	4	1	0	4	0
73	572	10	10000	4	1	0	4	0
75	573	10	10000	4	1	0	4	0
76	574	10	10000	4	1	0	4	0
76	575	10	10000	4	1	0	4	0
75	576	10	10000	4	1	0	4	0
72	577	10	10000	4	1	0	4	0
70	578	10	10000	4	1	0	4	0
68	579	10	10000	4	1	0	4	0
67	580	10	10000	4	1	0	4	0
68	581	10	10000	4	1	0	4	0
66	582	10	10000	4	1	0	4	0
64	583	10	10000	4	1	0	4	0
63	584	10	10000	4	1	0	4	0
63	585	10	10000	4	1	0	4	0
63	586	10	10000	4	1	0	4	0
64	587	10	10000	4	1	0	4	0
63	588	10	10000	4	1	0	4	0
63	589	10	10000	4	1	0	4	0
66	590	10	10000	4	1	0	4	0
71	591	10	10000	4	1	0	4	0
77	592	10	10000	4	1	0	4	0
77	593	10	10000	4	1	0	4	0
81	594	10	10000	4	1	0	4	0
88	595	10	10000	4	1	0	4	0
92	596	10	10000	4	1	0	4	0
97	597	10	10000	4	1	0	4	0
101	598	10	10000	4	1	0	4	0
100	599	10	10000	4	1	0	4	0
98	600	10	10000	4	1	0	4	0
103	601	10	10000	4	1	0	4	0
110	602	10	10000	4	1	0	4	0
111	603	10	10000	4	1	0	4	0
109	604	10	10000	4	1	0	4	0
115	605	10	10000	4	1	0	4	0
126	606	10	10000	4	1	0	4	0
135	607	10	10000	4	1	0	4	0
133	608	10	10000	4	1	0	4	0
137	609	10	10000	4	1	0	4	0
140	610	10	10000	4	1	0	4	0
145	611	10	10000	4	1	0	4	0
151	612	10	10000	4	1	0	4	0
176	613	10	10000	4	1	0	4	0
196	614	10	10000	4	1	0	4	0
197	615	10	10000	4	1	0	4	0
191	616	10	10000	4	1	0	4	0
203	617	10	10000	4	1	0	4	0
244	618	10	10000	4	1	0	4	0
292	619	10	10000	4	1	0	4	0
306	620	10	10000	4	1	0	4	0
303	621	10	10000	4	1	0	4	0
303	622	10	10000	4	1	0	4	0
288	623	10	10000	4	1	0	4	0
279	624	10	10000	4	1	0	4	0
271	625	10	10000	4	1	0	4	0
263	626	10	10000	4	1	0	4	0
255	627	10	10000	4	1	0	4	0
248	628	10	10000	4	1	0	4	0
252	629	10	10000	4	1	0	4	0
278	630	10	10000	4	1	0	4	0
305	631	10	10000	4	1	0	4	0
334	632	10	10000	4	1	0	4	0
359	633	10	10000	4	1	0	4	0
352	634	10	10000	4	1	0	4	0
352	635	10	10000	4	1	0	4	0
346	636	10	10000	4	1	0	4	0
368	637	10	10000	4	1	0	4	0
394	638	10	10000	4	1	0	4	0
389	639	10	10000	4	1	0	4	0
407	640	10	10000	4	1	0	4	0
434	641	10	10000	4	1	0	4	0
447	642	10	10000	4	1	0	4	0
434	643	10	10000	4	1	0	4	0
433	644	10	10000	4	1	0	4	0
433	645	10	10000	4	1	0	4	0
432	646	10	10000	4	1	0	4	0
427	647	10	10000	4	1	0	4	0
411	648	10	10000	4	1	0	4	0
393	649	10	10000	4	1	0	4	0
383	650	10	10000	4	1	0	4	0
376	651	10	10000	4	1	0	4	0
369	652	10	10000	4	1	0	4	0
361	653	10	10000	4	1	0	4	0
352	654	10	10000	4	1	0	4	0
344	655	10	10000	4	1	0	4	0
333	656	10	10000	4	1	0	4	0
321	657	10	10000	4	1	0	4	0
309	658	10	10000	4	1	0	4	0
297	659	10	10000	4	1	0	4	0
286	660	10	10000	4	1	0	4	0
276	661	10	10000	4	1	0	4	0
266	662	10	10000	4	1	0	4	0
253	663	10	10000	4	1	0	4	0
242	664	10	10000	4	1	0	4	0
231	665	10	10000	4	1	0	4	0
220	666	10	10000	4	1	0	4	0
211	667	10	10000	4	1	0	4	0
202	668	10	10000	4	1	0	4	0
194	669	10	10000	4	1	0	4	0
185	670	10	10000	4	1	0	4	0
176	671	10	10000	4	1	0	4	0
170	672	10	10000	4	1	0	4	0
166	673	10	10000	4	1	0	4	0
162	674	10	10000	4	1	0	4	0
159	675	10	10000	4	1	0	4	0
157	676	10	10000	4	1	0	4	0
154	677	10	10000	4	1	0	4	0
150	678	10	10000	4	1	0	4	0
145	679	10	10000	4	1	0	4	0
142	680	10	10000	4	1	0	4	0
142	681	10	10000	4	1	0	4	0
140	682	10	10000	4	1	0	4	0
138	683	10	10000	4	1	0	4	0
136	684	10	10000	4	1	0	4	0
134	685	10	10000	4	1	0	4	0
132	686	10	10000	4	1	0	4	0
130	687	10	10000	4	1	0	4	0
131	688	10	10000	4	1	0	4	0
131	689	10	10000	4	1	0	4	0
130	690	10	10000	4	1	0	4	0
126	691	10	10000	4	1	0	4	0
122	692	10	10000	4	1	0	4	0
121	693	10	10000	4	1	0	4	0
121	694	10	10000	4	1	0	4	0
123	695	10	10000	4	1	0	4	0
124	696	10	10000	4	1	0	4	0
126	697	10	10000	4	1	0	4	0
127	698	10	10000	4	1	0	4	0
128	699	10	10000	4	1	0	4	0
129	700	10	10000	4	1	0	4	0
133	701	10	10000	4	1	0	4	0
134	702	10	10000	4	1	0	4	0
132	703	10	10000	4	1	0	4	0
131	704	10	10000	4	1	0	4	0
130	705	10	10000	4	1	0	4	0
129	706	10	10000	4	1	0	4	0
123	707	10	10000	4	1	0	4	0
118	708	10	10000	4	1	0	4	0
115	709	10	10000	4	1	0	4	0
112	710	10	10000	4	1	0	4	0
107	711	10	10000	4	1	0	4	0
103	712	10	10000	4	1	0	4	0
100	713	10	10000	4	1	0	4	0
96	714	10	10000	4	1	0	4	0
92	715	10	10000	4	1	0	4	0
90	716	10	10000	4	1	0	4	0
88	717	10	10000	4	1	0	4	0
86	718	10	10000	4	1	0	4	0
82	719	10	10000	4	1	0	4	0
79	720	10	10000	4	1	0	4	0
80	721	10	10000	4	1	0	4	0
78	722	10	10000	4	1	0	4	0
76	723	10	10000	4	1	0	4	0
74	724	10	10000	4	1	0	4	0
71	725	10	10000	4	1	0	4	0
70	726	10	10000	4	1	0	4	0
71	727	10	10000	4	1	0	4	0
71	728	10	10000	4	1	0	4	0
72	729	10	10000	4	1	0	4	0
72	730	10	10000	4	1	0	4	0
69	731	10	10000	4	1	0	4	0
68	732	10	10000	4	1	0	4	0
68	733	10	10000	4	1	0	4	0
69	734	10	10000	4	1	0	4	0
70	735	10	10000	4	1	0	4	0
68	736	10	10000	4	1	0	4	0
65	737	10	10000	4	1	0	4	0
61	738	10	10000	4	1	0	4	0
59	739	10	10000	4	1	0	4	0
57	740	10	10000	4	1	0	4	0
62	741	10	10000	4	1	0	4	0
70	742	10	10000	4	1	0	4	0
73	743	10	10000	4	1	0	4	0
73	744	10	10000	4	1	0	4	0
76	745	10	10000	4	1	0	4	0
82	746	10	10000	4	1	0	4	0
86	747	10	10000	4	1	0	4	0
91	748	10	10000	4	1	0	4	0
97	749	10	10000	4	1	0	4	0
105	750	10	10000	4	1	0	4	0
112	751	10	10000	4	1	0	4	0
116	752	10	10000	4	1	0	4	0
118	753	10	10000	4	1	0	4	0
118	754	10	10000	4	1	0	4	0
117	755	10	10000	4	1	0	4	0
113	756	10	10000	4	1	0	4	0
109	757	10	10000	4	1	0	4	0
105	758	10	10000	4	1	0	4	0
102	759	10	10000	4	1	0	4	0
101	760	10	10000	4	1	0	4	0
101	761	10	10000	4	1	0	4	0
98	762	10	10000	4	1	0	4	0
94	763	10	10000	4	1	0	4	0
90	764	10	10000	4	1	0	4	0
86	765	10	10000	4	1	0	4	0
83	766	10	10000	4	1	0	4	0
79	767	10	10000	4	1	0	4	0
76	768	10	10000	4	1	0	4	0
72	769	10	10000	4	1	0	4	0
69	770	10	10000	4	1	0	4	0
66	771	10	10000	4	1	0	4	0
62	772	10	10000	4	1	0	4	0
60	773	10	10000	4	1	0	4	0
58	774	10	10000	4	1	0	4	0
56	775	10	10000	4	1	0	4	0
54	776	10	10000	4	1	0	4	0
53	777	10	10000	4	1	0	4	0
51	778	10	10000	4	1	0	4	0
49	779	10	10000	4	1	0	4	0
47	780	10	10000	4	1	0	4	0
48	781	10	10000	4	1	0	4	0
49	782	10	10000	4	1	0	4	0
47	783	10	10000	4	1	0	4	0
47	784	10	10000	4	1	0	4	0
51	785	10	10000	4	1	0	4	0
56	786	10	10000	4	1	0	4	0
56	787	10	10000	4	1	0	4	0
60	788	10	10000	4	1	0	4	0
65	789	10	10000	4	1	0	4	0
70	790	10	10000	4	1	0	4	0
73	791	10	10000	4	1	0	4	0
77	792	10	10000	4	1	0	4	0
81	793	10	10000	4	1	0	4	0
80	794	10	10000	4	1	0	4	0
76	795	10	10000	4	1	0	4	0
75	796	10	10000	4	1	0	4	0
72	797	10	10000	4	1	0	4	0
70	798	10	10000	4	1	0	4	0
68	799	10	10000	4	1	0	4	0
68	800	10	10000	4	1	0	4	0
71	801	10	10000	4	1	0	4	0
75	802	10	10000	4	1	0	4	0
74	803	10	10000	4	1	0	4	0
72	804	10	10000	4	1	0	4	0
68	805	10	10000	4	1	0	4	0
65	806	10	10000	4	1	0	4	0
64	807	10	10000	4	1	0	4	0
63	808	10	10000	4	1	0	4	0
62	809	10	10000	4	1	0	4	0
61	810	10	10000	4	1	0	4	0
57	811	10	10000	4	1	0	4	0
54	812	10	10000	4	1	0	4	0
54	813	10	10000	4	1	0	4	0
52	814	10	10000	4	1	0	4	0
54	815	10	10000	4	1	0	4	0
55	816	10	10000	4	1	0	4	0
57	817	10	10000	4	1	0	4	0
56	818	10	10000	4	1	0	4	0
53	819	10	10000	4	1	0	4	0
51	820	10	10000	4	1	0	4	0
51	821	10	10000	4	1	0	4	0
49	822	10	10000	4	1	0	4	0
47	823	10	10000	4	1	0	4	0
45	824	10	10000	4	1	0	4	0
43	825	10	10000	4	1	0	4	0
43	826	10	10000	4	1	0	4	0
40	827	10	10000	4	1	0	4	0
41	828	10	10000	4	1	0	4	0
40	829	10	10000	4	1	0	4	0
40	830	10	10000	4	1	0	4	0
37	831	10	10000	4	1	0	4	0
36	832	10	10000	4	1	0	4	0
34	833	10	10000	4	1	0	4	0
34	834	10	10000	4	1	0	4	0
33	835	10	10000	4	1	0	4	0
40	836	10	10000	4	1	0	4	0
53	837	10	10000	4	1	0	4	0
57	838	10	10000	4	1	0	4	0
59	839	10	10000	4	1	0	4	0
69	840	10	10000	4	1	0	4	0
79	841	10	10000	4	1	0	4	0
84	842	10	10000	4	1	0	4	0
87	843	10	10000	4	1	0	4	0
87	844	10	10000	4	1	0	4	0
87	845	10	10000	4	1	0	4	0
86	846	10	10000	4	1	0	4	0
84	847	10	10000	4	1	0	4	0
83	848	10	10000	4	1	0	4	0
80	849	10	10000	4	1	0	4	0
80	850	10	10000	4	1	0	4	0
82	851	10	10000	4	1	0	4	0
87	852	10	10000	4	1	0	4	0
89	853	10	10000	4	1	0	4	0
88	854	10	10000	4	1	0	4	0
92	855	10	10000	4	1	0	4	0
95	856	10	10000	4	1	0	4	0
98	857	10	10000	4	1	0	4	0
101	858	10	10000	4	1	0	4	0
101	859	10	10000	4	1	0	4	0
97	860	10	10000	4	1	0	4	0
100	861	10	10000	4	1	0	4	0
102	862	10	10000	4	1	0	4	0
104	863	10	10000	4	1	0	4	0
103	864	10	10000	4	1	0	4	0
99	865	10	10000	4	1	0	4	0
97	866	10	10000	4	1	0	4	0
98	867	10	10000	4	1	0	4	0
98	868	10	10000	4	1	0	4	0
95	869	10	10000	4	1	0	4	0
96	870	10	10000	4	1	0	4	0
94	871	10	10000	4	1	0	4	0
91	872	10	10000	4	1	0	4	0
92	873	10	10000	4	1	0	4	0
91	874	10	10000	4	1	0	4	0
87	875	10	10000	4	1	0	4	0
85	876	10	10000	4	1	0	4	0
84	877	10	10000	4	1	0	4	0
80	878	10	10000	4	1	0	4	0
78	879	10	10000	4	1	0	4	0
76	880	10	10000	4	1	0	4	0
76	881	10	10000	4	1	0	4	0
74	882	10	10000	4	1	0	4	0
71	883	10	10000	4	1	0	4	0
70	884	10	10000	4	1	0	4	0
70	885	10	10000	4	1	0	4	0
70	886	10	10000	4	1	0	4	0
69	887	10	10000	4	1	0	4	0
68	888	10	10000	4	1	0	4	0
66	889	10	10000	4	1	0	4	0
65	890	10	10000	4	1	0	4	0
62	891	10	10000	4	1	0	4	0
60	892	10	10000	4	1	0	4	0
59	893	10	10000	4	1	0	4	0
57	894	10	10000	4	1	0	4	0
58	895	10	10000	4	1	0	4	0
57	896	10	10000	4	1	0	4	0
58	897	10	10000	4	1	0	4	0
56	898	10	10000	4	1	0	4	0
55	899	10	10000	4	1	0	4	0
54	900	10	10000	4	1	0	4	0
53	901	10	10000	4	1	0	4	0
52	902	10	10000	4	1	0	4	0
56	903	10	10000	4	1	0	4	0
60	904	10	10000	4	1	0	4	0
58	905	10	10000	4	1	0	4	0
59	906	10	10000	4	1	0	4	0
59	907	10	10000	4	1	0	4	0
61	908	10	10000	4	1	0	4	0
61	909	10	10000	4	1	0	4	0
61	910	10	10000	4	1	0	4	0
59	911	10	10000	4	1	0	4	0
56	912	10	10000	4	1	0	4	0
54	913	10	10000	4	1	0	4	0
52	914	10	10000	4	1	0	4	0
51	915	10	10000	4	1	0	4	0
50	916	10	10000	4	1	0	4	0
53	917	10	10000	4	1	0	4	0
52	918	10	10000	4	1	0	4	0
50	919	10	10000	4	1	0	4	0
48	920	10	10000	4	1	0	4	0
48	921	10	10000	4	1	0	4	0
46	922	10	10000	4	1	0	4	0
46	923	10	10000	4	1	0	4	0
45	924	10	10000	4	1	0	4	0
43	925	10	10000	4	1	0	4	0
41	926	10	10000	4	1	0	4	0
39	927	10	10000	4	1	0	4	0
39	928	10	10000	4	1	0	4	0
43	929	10	10000	4	1	0	4	0
53	930	10	10000	4	1	0	4	0
55	931	10	10000	4	1	0	4	0
54	932	10	10000	4	1	0	4	0
57	933	10	10000	4	1	0	4	0
60	934	10	10000	4	1	0	4	0
61	935	10	10000	4	1	0	4	0
61	936	10	10000	4	1	0	4	0
58	937	10	10000	4	1	0	4	0
56	938	10	10000	4	1	0	4	0
58	939	10	10000	4	1	0	4	0
60	940	10	10000	4	1	0	4	0
67	941	10	10000	4	1	0	4	0
68	942	10	10000	4	1	0	4	0
65	943	10	10000	4	1	0	4	0
62	944	10	10000	4	1	0	4	0
59	945	10	10000	4	1	0	4	0
58	946	10	10000	4	1	0	4	0
57	947	10	10000	4	1	0	4	0
58	948	10	10000	4	1	0	4	0
58	949	10	10000	4	1	0	4	0
59	950	10	10000	4	1	0	4	0
57	951	10	10000	4	1	0	4	0
57	952	10	10000	4	1	0	4	0
58	953	10	10000	4	1	0	4	0
58	954	10	10000	4	1	0	4	0
58	955	10	10000	4	1	0	4	0
57	956	10	10000	4	1	0	4	0
56	957	10	10000	4	1	0	4	0
55	958	10	10000	4	1	0	4	0
55	959	10	10000	4	1	0	4	0
54	960	10	10000	4	1	0	4	0
56	961	10	10000	4	1	0	4	0
57	962	10	10000	4	1	0	4	0
55	963	10	10000	4	1	0	4	0
54	964	10	10000	4	1	0	4	0
52	965	10	10000	4	1	0	4	0
50	966	10	10000	4	1	0	4	0
49	967	10	10000	4	1	0	4	0
49	968	10	10000	4	1	0	4	0
51	969	10	10000	4	1	0	4	0
55	970	10	10000	4	1	0	4	0
57	971	10	10000	4	1	0	4	0
60	972	10	10000	4	1	0	4	0
60	973	10	10000	4	1	0	4	0
59	974	10	10000	4	1	0	4	0
61	975	10	10000	4	1	0	4	0
63	976	10	10000	4	1	0	4	0
65	977	10	10000	4	1	0	4	0
65	978	10	10000	4	1	0	4	0
61	979	10	10000	4	1	0	4	0
59	980	10	10000	4	1	0	4	0
57	981	10	10000	4	1	0	4	0
56	982	10	10000	4	1	0	4	0
56	983	10	10000	4	1	0	4	0
54	984	10	10000	4	1	0	4	0
52	985	10	10000	4	1	0	4	0
54	986	10	10000	4	1	0	4	0
58	987	10	10000	4	1	0	4	0
62	988	10	10000	4	1	0	4	0
61	989	10	10000	4	1	0	4	0
63	990	10	10000	4	1	0	4	0
66	991	10	10000	4	1	0	4	0
68	992	10	10000	4	1	0	4	0
71	993	10	10000	4	1	0	4	0
72	994	10	10000	4	1	0	4	0
70	995	10	10000	4	1	0	4	0
68	996	10	10000	4	1	0	4	0
66	997	10	10000	4	1	0	4	0
63	998	10	10000	4	1	0	4	0
62	999	10	10000	4	1	0	4	0
63	1000	10	10000	4	1	0	4	0
17	2	10	10000	5	1	0	5	0
17	3	10	10000	5	1	0	5	0
19	4	10	10000	5	1	0	5	0
20	5	10	10000	5	1	0	5	0
19	6	10	10000	5	1	0	5	0
18	7	10	10000	5	1	0	5	0
18	8	10	10000	5	1	0	5	0
17	9	10	10000	5	1	0	5	0
16	10	10	10000	5	1	0	5	0
16	11	10	10000	5	1	0	5	0
16	12	10	10000	5	1	0	5	0
16	13	10	10000	5	1	0	5	0
16	14	10	10000	5	1	0	5	0
17	15	10	10000	5	1	0	5	0
21	16	10	10000	5	1	0	5	0
22	17	10	10000	5	1	0	5	0
21	18	10	10000	5	1	0	5	0
22	19	10	10000	5	1	0	5	0
21	20	10	10000	5	1	0	5	0
21	21	10	10000	5	1	0	5	0
21	22	10	10000	5	1	0	5	0
21	23	10	10000	5	1	0	5	0
23	24	10	10000	5	1	0	5	0
23	25	10	10000	5	1	0	5	0
24	26	10	10000	5	1	0	5	0
27	27	10	10000	5	1	0	5	0
30	28	10	10000	5	1	0	5	0
33	29	10	10000	5	1	0	5	0
36	30	10	10000	5	1	0	5	0
37	31	10	10000	5	1	0	5	0
38	32	10	10000	5	1	0	5	0
39	33	10	10000	5	1	0	5	0
37	34	10	10000	5	1	0	5	0
35	35	10	10000	5	1	0	5	0
36	36	10	10000	5	1	0	5	0
34	37	10	10000	5	1	0	5	0
33	38	10	10000	5	1	0	5	0
33	39	10	10000	5	1	0	5	0
32	40	10	10000	5	1	0	5	0
33	41	10	10000	5	1	0	5	0
32	42	10	10000	5	1	0	5	0
32	43	10	10000	5	1	0	5	0
33	44	10	10000	5	1	0	5	0
37	45	10	10000	5	1	0	5	0
40	46	10	10000	5	1	0	5	0
42	47	10	10000	5	1	0	5	0
42	48	10	10000	5	1	0	5	0
41	49	10	10000	5	1	0	5	0
38	50	10	10000	5	1	0	5	0
38	51	10	10000	5	1	0	5	0
38	52	10	10000	5	1	0	5	0
38	53	10	10000	5	1	0	5	0
36	54	10	10000	5	1	0	5	0
35	55	10	10000	5	1	0	5	0
34	56	10	10000	5	1	0	5	0
35	57	10	10000	5	1	0	5	0
37	58	10	10000	5	1	0	5	0
37	59	10	10000	5	1	0	5	0
37	60	10	10000	5	1	0	5	0
35	61	10	10000	5	1	0	5	0
34	62	10	10000	5	1	0	5	0
33	63	10	10000	5	1	0	5	0
33	64	10	10000	5	1	0	5	0
34	65	10	10000	5	1	0	5	0
36	66	10	10000	5	1	0	5	0
37	67	10	10000	5	1	0	5	0
36	68	10	10000	5	1	0	5	0
35	69	10	10000	5	1	0	5	0
34	70	10	10000	5	1	0	5	0
34	71	10	10000	5	1	0	5	0
36	72	10	10000	5	1	0	5	0
38	73	10	10000	5	1	0	5	0
38	74	10	10000	5	1	0	5	0
37	75	10	10000	5	1	0	5	0
37	76	10	10000	5	1	0	5	0
37	77	10	10000	5	1	0	5	0
36	78	10	10000	5	1	0	5	0
36	79	10	10000	5	1	0	5	0
35	80	10	10000	5	1	0	5	0
33	81	10	10000	5	1	0	5	0
32	82	10	10000	5	1	0	5	0
30	83	10	10000	5	1	0	5	0
31	84	10	10000	5	1	0	5	0
31	85	10	10000	5	1	0	5	0
29	86	10	10000	5	1	0	5	0
28	87	10	10000	5	1	0	5	0
27	88	10	10000	5	1	0	5	0
26	89	10	10000	5	1	0	5	0
25	90	10	10000	5	1	0	5	0
25	91	10	10000	5	1	0	5	0
25	92	10	10000	5	1	0	5	0
25	93	10	10000	5	1	0	5	0
23	94	10	10000	5	1	0	5	0
23	95	10	10000	5	1	0	5	0
24	96	10	10000	5	1	0	5	0
24	97	10	10000	5	1	0	5	0
24	98	10	10000	5	1	0	5	0
24	99	10	10000	5	1	0	5	0
23	100	10	10000	5	1	0	5	0
23	101	10	10000	5	1	0	5	0
21	102	10	10000	5	1	0	5	0
20	103	10	10000	5	1	0	5	0
23	104	10	10000	5	1	0	5	0
23	105	10	10000	5	1	0	5	0
22	106	10	10000	5	1	0	5	0
22	107	10	10000	5	1	0	5	0
21	108	10	10000	5	1	0	5	0
21	109	10	10000	5	1	0	5	0
21	110	10	10000	5	1	0	5	0
23	111	10	10000	5	1	0	5	0
24	112	10	10000	5	1	0	5	0
27	113	10	10000	5	1	0	5	0
27	114	10	10000	5	1	0	5	0
27	115	10	10000	5	1	0	5	0
26	116	10	10000	5	1	0	5	0
27	117	10	10000	5	1	0	5	0
30	118	10	10000	5	1	0	5	0
30	119	10	10000	5	1	0	5	0
32	120	10	10000	5	1	0	5	0
33	121	10	10000	5	1	0	5	0
34	122	10	10000	5	1	0	5	0
32	123	10	10000	5	1	0	5	0
35	124	10	10000	5	1	0	5	0
37	125	10	10000	5	1	0	5	0
38	126	10	10000	5	1	0	5	0
39	127	10	10000	5	1	0	5	0
39	128	10	10000	5	1	0	5	0
40	129	10	10000	5	1	0	5	0
38	130	10	10000	5	1	0	5	0
37	131	10	10000	5	1	0	5	0
36	132	10	10000	5	1	0	5	0
36	133	10	10000	5	1	0	5	0
32	134	10	10000	5	1	0	5	0
31	135	10	10000	5	1	0	5	0
30	136	10	10000	5	1	0	5	0
29	137	10	10000	5	1	0	5	0
29	138	10	10000	5	1	0	5	0
28	139	10	10000	5	1	0	5	0
29	140	10	10000	5	1	0	5	0
27	141	10	10000	5	1	0	5	0
26	142	10	10000	5	1	0	5	0
25	143	10	10000	5	1	0	5	0
27	144	10	10000	5	1	0	5	0
29	145	10	10000	5	1	0	5	0
30	146	10	10000	5	1	0	5	0
29	147	10	10000	5	1	0	5	0
28	148	10	10000	5	1	0	5	0
26	149	10	10000	5	1	0	5	0
25	150	10	10000	5	1	0	5	0
25	151	10	10000	5	1	0	5	0
25	152	10	10000	5	1	0	5	0
24	153	10	10000	5	1	0	5	0
22	154	10	10000	5	1	0	5	0
20	155	10	10000	5	1	0	5	0
20	156	10	10000	5	1	0	5	0
20	157	10	10000	5	1	0	5	0
19	158	10	10000	5	1	0	5	0
19	159	10	10000	5	1	0	5	0
19	160	10	10000	5	1	0	5	0
19	161	10	10000	5	1	0	5	0
19	162	10	10000	5	1	0	5	0
18	163	10	10000	5	1	0	5	0
19	164	10	10000	5	1	0	5	0
20	165	10	10000	5	1	0	5	0
19	166	10	10000	5	1	0	5	0
20	167	10	10000	5	1	0	5	0
20	168	10	10000	5	1	0	5	0
20	169	10	10000	5	1	0	5	0
19	170	10	10000	5	1	0	5	0
19	171	10	10000	5	1	0	5	0
19	172	10	10000	5	1	0	5	0
19	173	10	10000	5	1	0	5	0
16	174	10	10000	5	1	0	5	0
15	175	10	10000	5	1	0	5	0
17	176	10	10000	5	1	0	5	0
16	177	10	10000	5	1	0	5	0
15	178	10	10000	5	1	0	5	0
15	179	10	10000	5	1	0	5	0
15	180	10	10000	5	1	0	5	0
15	181	10	10000	5	1	0	5	0
17	182	10	10000	5	1	0	5	0
20	183	10	10000	5	1	0	5	0
24	184	10	10000	5	1	0	5	0
26	185	10	10000	5	1	0	5	0
26	186	10	10000	5	1	0	5	0
26	187	10	10000	5	1	0	5	0
26	188	10	10000	5	1	0	5	0
28	189	10	10000	5	1	0	5	0
32	190	10	10000	5	1	0	5	0
36	191	10	10000	5	1	0	5	0
35	192	10	10000	5	1	0	5	0
36	193	10	10000	5	1	0	5	0
33	194	10	10000	5	1	0	5	0
31	195	10	10000	5	1	0	5	0
31	196	10	10000	5	1	0	5	0
30	197	10	10000	5	1	0	5	0
29	198	10	10000	5	1	0	5	0
28	199	10	10000	5	1	0	5	0
28	200	10	10000	5	1	0	5	0
27	201	10	10000	5	1	0	5	0
27	202	10	10000	5	1	0	5	0
24	203	10	10000	5	1	0	5	0
25	204	10	10000	5	1	0	5	0
25	205	10	10000	5	1	0	5	0
24	206	10	10000	5	1	0	5	0
23	207	10	10000	5	1	0	5	0
23	208	10	10000	5	1	0	5	0
24	209	10	10000	5	1	0	5	0
22	210	10	10000	5	1	0	5	0
22	211	10	10000	5	1	0	5	0
22	212	10	10000	5	1	0	5	0
23	213	10	10000	5	1	0	5	0
23	214	10	10000	5	1	0	5	0
23	215	10	10000	5	1	0	5	0
23	216	10	10000	5	1	0	5	0
24	217	10	10000	5	1	0	5	0
25	218	10	10000	5	1	0	5	0
24	219	10	10000	5	1	0	5	0
24	220	10	10000	5	1	0	5	0
23	221	10	10000	5	1	0	5	0
23	222	10	10000	5	1	0	5	0
24	223	10	10000	5	1	0	5	0
25	224	10	10000	5	1	0	5	0
25	225	10	10000	5	1	0	5	0
24	226	10	10000	5	1	0	5	0
23	227	10	10000	5	1	0	5	0
22	228	10	10000	5	1	0	5	0
21	229	10	10000	5	1	0	5	0
20	230	10	10000	5	1	0	5	0
20	231	10	10000	5	1	0	5	0
20	232	10	10000	5	1	0	5	0
21	233	10	10000	5	1	0	5	0
20	234	10	10000	5	1	0	5	0
19	235	10	10000	5	1	0	5	0
21	236	10	10000	5	1	0	5	0
22	237	10	10000	5	1	0	5	0
22	238	10	10000	5	1	0	5	0
22	239	10	10000	5	1	0	5	0
22	240	10	10000	5	1	0	5	0
21	241	10	10000	5	1	0	5	0
20	242	10	10000	5	1	0	5	0
20	243	10	10000	5	1	0	5	0
22	244	10	10000	5	1	0	5	0
23	245	10	10000	5	1	0	5	0
22	246	10	10000	5	1	0	5	0
22	247	10	10000	5	1	0	5	0
22	248	10	10000	5	1	0	5	0
21	249	10	10000	5	1	0	5	0
20	250	10	10000	5	1	0	5	0
20	251	10	10000	5	1	0	5	0
21	252	10	10000	5	1	0	5	0
22	253	10	10000	5	1	0	5	0
21	254	10	10000	5	1	0	5	0
20	255	10	10000	5	1	0	5	0
21	256	10	10000	5	1	0	5	0
22	257	10	10000	5	1	0	5	0
23	258	10	10000	5	1	0	5	0
23	259	10	10000	5	1	0	5	0
23	260	10	10000	5	1	0	5	0
22	261	10	10000	5	1	0	5	0
22	262	10	10000	5	1	0	5	0
22	263	10	10000	5	1	0	5	0
25	264	10	10000	5	1	0	5	0
25	265	10	10000	5	1	0	5	0
26	266	10	10000	5	1	0	5	0
27	267	10	10000	5	1	0	5	0
25	268	10	10000	5	1	0	5	0
24	269	10	10000	5	1	0	5	0
24	270	10	10000	5	1	0	5	0
25	271	10	10000	5	1	0	5	0
24	272	10	10000	5	1	0	5	0
25	273	10	10000	5	1	0	5	0
23	274	10	10000	5	1	0	5	0
22	275	10	10000	5	1	0	5	0
21	276	10	10000	5	1	0	5	0
22	277	10	10000	5	1	0	5	0
23	278	10	10000	5	1	0	5	0
21	279	10	10000	5	1	0	5	0
21	280	10	10000	5	1	0	5	0
21	281	10	10000	5	1	0	5	0
21	282	10	10000	5	1	0	5	0
21	283	10	10000	5	1	0	5	0
24	284	10	10000	5	1	0	5	0
26	285	10	10000	5	1	0	5	0
25	286	10	10000	5	1	0	5	0
26	287	10	10000	5	1	0	5	0
28	288	10	10000	5	1	0	5	0
34	289	10	10000	5	1	0	5	0
38	290	10	10000	5	1	0	5	0
40	291	10	10000	5	1	0	5	0
41	292	10	10000	5	1	0	5	0
39	293	10	10000	5	1	0	5	0
38	294	10	10000	5	1	0	5	0
38	295	10	10000	5	1	0	5	0
39	296	10	10000	5	1	0	5	0
39	297	10	10000	5	1	0	5	0
40	298	10	10000	5	1	0	5	0
40	299	10	10000	5	1	0	5	0
39	300	10	10000	5	1	0	5	0
37	301	10	10000	5	1	0	5	0
36	302	10	10000	5	1	0	5	0
34	303	10	10000	5	1	0	5	0
35	304	10	10000	5	1	0	5	0
36	305	10	10000	5	1	0	5	0
37	306	10	10000	5	1	0	5	0
38	307	10	10000	5	1	0	5	0
39	308	10	10000	5	1	0	5	0
40	309	10	10000	5	1	0	5	0
39	310	10	10000	5	1	0	5	0
39	311	10	10000	5	1	0	5	0
37	312	10	10000	5	1	0	5	0
37	313	10	10000	5	1	0	5	0
36	314	10	10000	5	1	0	5	0
36	315	10	10000	5	1	0	5	0
35	316	10	10000	5	1	0	5	0
34	317	10	10000	5	1	0	5	0
33	318	10	10000	5	1	0	5	0
32	319	10	10000	5	1	0	5	0
32	320	10	10000	5	1	0	5	0
32	321	10	10000	5	1	0	5	0
32	322	10	10000	5	1	0	5	0
30	323	10	10000	5	1	0	5	0
33	324	10	10000	5	1	0	5	0
33	325	10	10000	5	1	0	5	0
33	326	10	10000	5	1	0	5	0
32	327	10	10000	5	1	0	5	0
32	328	10	10000	5	1	0	5	0
33	329	10	10000	5	1	0	5	0
33	330	10	10000	5	1	0	5	0
32	331	10	10000	5	1	0	5	0
32	332	10	10000	5	1	0	5	0
32	333	10	10000	5	1	0	5	0
30	334	10	10000	5	1	0	5	0
30	335	10	10000	5	1	0	5	0
31	336	10	10000	5	1	0	5	0
31	337	10	10000	5	1	0	5	0
30	338	10	10000	5	1	0	5	0
29	339	10	10000	5	1	0	5	0
28	340	10	10000	5	1	0	5	0
28	341	10	10000	5	1	0	5	0
28	342	10	10000	5	1	0	5	0
28	343	10	10000	5	1	0	5	0
31	344	10	10000	5	1	0	5	0
29	345	10	10000	5	1	0	5	0
29	346	10	10000	5	1	0	5	0
27	347	10	10000	5	1	0	5	0
25	348	10	10000	5	1	0	5	0
24	349	10	10000	5	1	0	5	0
23	350	10	10000	5	1	0	5	0
23	351	10	10000	5	1	0	5	0
22	352	10	10000	5	1	0	5	0
22	353	10	10000	5	1	0	5	0
20	354	10	10000	5	1	0	5	0
20	355	10	10000	5	1	0	5	0
19	356	10	10000	5	1	0	5	0
19	357	10	10000	5	1	0	5	0
19	358	10	10000	5	1	0	5	0
18	359	10	10000	5	1	0	5	0
19	360	10	10000	5	1	0	5	0
20	361	10	10000	5	1	0	5	0
20	362	10	10000	5	1	0	5	0
20	363	10	10000	5	1	0	5	0
23	364	10	10000	5	1	0	5	0
24	365	10	10000	5	1	0	5	0
24	366	10	10000	5	1	0	5	0
23	367	10	10000	5	1	0	5	0
22	368	10	10000	5	1	0	5	0
21	369	10	10000	5	1	0	5	0
20	370	10	10000	5	1	0	5	0
20	371	10	10000	5	1	0	5	0
20	372	10	10000	5	1	0	5	0
20	373	10	10000	5	1	0	5	0
19	374	10	10000	5	1	0	5	0
20	375	10	10000	5	1	0	5	0
20	376	10	10000	5	1	0	5	0
21	377	10	10000	5	1	0	5	0
22	378	10	10000	5	1	0	5	0
21	379	10	10000	5	1	0	5	0
22	380	10	10000	5	1	0	5	0
21	381	10	10000	5	1	0	5	0
20	382	10	10000	5	1	0	5	0
20	383	10	10000	5	1	0	5	0
22	384	10	10000	5	1	0	5	0
23	385	10	10000	5	1	0	5	0
23	386	10	10000	5	1	0	5	0
22	387	10	10000	5	1	0	5	0
21	388	10	10000	5	1	0	5	0
21	389	10	10000	5	1	0	5	0
20	390	10	10000	5	1	0	5	0
20	391	10	10000	5	1	0	5	0
19	392	10	10000	5	1	0	5	0
20	393	10	10000	5	1	0	5	0
18	394	10	10000	5	1	0	5	0
17	395	10	10000	5	1	0	5	0
17	396	10	10000	5	1	0	5	0
17	397	10	10000	5	1	0	5	0
17	398	10	10000	5	1	0	5	0
20	399	10	10000	5	1	0	5	0
21	400	10	10000	5	1	0	5	0
23	401	10	10000	5	1	0	5	0
24	402	10	10000	5	1	0	5	0
22	403	10	10000	5	1	0	5	0
24	404	10	10000	5	1	0	5	0
26	405	10	10000	5	1	0	5	0
27	406	10	10000	5	1	0	5	0
27	407	10	10000	5	1	0	5	0
27	408	10	10000	5	1	0	5	0
27	409	10	10000	5	1	0	5	0
25	410	10	10000	5	1	0	5	0
25	411	10	10000	5	1	0	5	0
26	412	10	10000	5	1	0	5	0
29	413	10	10000	5	1	0	5	0
27	414	10	10000	5	1	0	5	0
26	415	10	10000	5	1	0	5	0
26	416	10	10000	5	1	0	5	0
26	417	10	10000	5	1	0	5	0
25	418	10	10000	5	1	0	5	0
25	419	10	10000	5	1	0	5	0
25	420	10	10000	5	1	0	5	0
24	421	10	10000	5	1	0	5	0
23	422	10	10000	5	1	0	5	0
21	423	10	10000	5	1	0	5	0
25	424	10	10000	5	1	0	5	0
25	425	10	10000	5	1	0	5	0
24	426	10	10000	5	1	0	5	0
23	427	10	10000	5	1	0	5	0
22	428	10	10000	5	1	0	5	0
22	429	10	10000	5	1	0	5	0
21	430	10	10000	5	1	0	5	0
21	431	10	10000	5	1	0	5	0
20	432	10	10000	5	1	0	5	0
21	433	10	10000	5	1	0	5	0
19	434	10	10000	5	1	0	5	0
20	435	10	10000	5	1	0	5	0
19	436	10	10000	5	1	0	5	0
19	437	10	10000	5	1	0	5	0
20	438	10	10000	5	1	0	5	0
21	439	10	10000	5	1	0	5	0
20	440	10	10000	5	1	0	5	0
20	441	10	10000	5	1	0	5	0
19	442	10	10000	5	1	0	5	0
18	443	10	10000	5	1	0	5	0
20	444	10	10000	5	1	0	5	0
20	445	10	10000	5	1	0	5	0
20	446	10	10000	5	1	0	5	0
20	447	10	10000	5	1	0	5	0
20	448	10	10000	5	1	0	5	0
21	449	10	10000	5	1	0	5	0
21	450	10	10000	5	1	0	5	0
21	451	10	10000	5	1	0	5	0
22	452	10	10000	5	1	0	5	0
22	453	10	10000	5	1	0	5	0
20	454	10	10000	5	1	0	5	0
19	455	10	10000	5	1	0	5	0
19	456	10	10000	5	1	0	5	0
21	457	10	10000	5	1	0	5	0
20	458	10	10000	5	1	0	5	0
20	459	10	10000	5	1	0	5	0
20	460	10	10000	5	1	0	5	0
19	461	10	10000	5	1	0	5	0
20	462	10	10000	5	1	0	5	0
20	463	10	10000	5	1	0	5	0
21	464	10	10000	5	1	0	5	0
22	465	10	10000	5	1	0	5	0
22	466	10	10000	5	1	0	5	0
21	467	10	10000	5	1	0	5	0
21	468	10	10000	5	1	0	5	0
21	469	10	10000	5	1	0	5	0
21	470	10	10000	5	1	0	5	0
21	471	10	10000	5	1	0	5	0
21	472	10	10000	5	1	0	5	0
21	473	10	10000	5	1	0	5	0
20	474	10	10000	5	1	0	5	0
19	475	10	10000	5	1	0	5	0
20	476	10	10000	5	1	0	5	0
19	477	10	10000	5	1	0	5	0
19	478	10	10000	5	1	0	5	0
19	479	10	10000	5	1	0	5	0
19	480	10	10000	5	1	0	5	0
20	481	10	10000	5	1	0	5	0
21	482	10	10000	5	1	0	5	0
21	483	10	10000	5	1	0	5	0
23	484	10	10000	5	1	0	5	0
24	485	10	10000	5	1	0	5	0
24	486	10	10000	5	1	0	5	0
27	487	10	10000	5	1	0	5	0
27	488	10	10000	5	1	0	5	0
27	489	10	10000	5	1	0	5	0
27	490	10	10000	5	1	0	5	0
26	491	10	10000	5	1	0	5	0
27	492	10	10000	5	1	0	5	0
30	493	10	10000	5	1	0	5	0
30	494	10	10000	5	1	0	5	0
30	495	10	10000	5	1	0	5	0
30	496	10	10000	5	1	0	5	0
30	497	10	10000	5	1	0	5	0
29	498	10	10000	5	1	0	5	0
29	499	10	10000	5	1	0	5	0
30	500	10	10000	5	1	0	5	0
30	501	10	10000	5	1	0	5	0
30	501	10	10000	5	1	0	5	1
30	502	10	10000	5	1	0	5	1
33	504	10	10000	5	1	0	5	1
33	505	10	10000	5	1	0	5	1
32	506	10	10000	5	1	0	5	1
32	507	10	10000	5	1	0	5	1
31	508	10	10000	5	1	0	5	1
29	509	10	10000	5	1	0	5	1
29	510	10	10000	5	1	0	5	1
28	511	10	10000	5	1	0	5	1
27	512	10	10000	5	1	0	5	1
27	513	10	10000	5	1	0	5	1
25	514	10	10000	5	1	0	5	1
25	515	10	10000	5	1	0	5	1
24	516	10	10000	5	1	0	5	1
23	517	10	10000	5	1	0	5	1
22	518	10	10000	5	1	0	5	1
22	519	10	10000	5	1	0	5	1
22	520	10	10000	5	1	0	5	1
22	521	10	10000	5	1	0	5	1
23	522	10	10000	5	1	0	5	1
24	523	10	10000	5	1	0	5	1
25	524	10	10000	5	1	0	5	1
26	525	10	10000	5	1	0	5	1
27	526	10	10000	5	1	0	5	1
26	527	10	10000	5	1	0	5	1
25	528	10	10000	5	1	0	5	1
24	529	10	10000	5	1	0	5	1
23	530	10	10000	5	1	0	5	1
24	531	10	10000	5	1	0	5	1
25	532	10	10000	5	1	0	5	1
25	533	10	10000	5	1	0	5	1
23	534	10	10000	5	1	0	5	1
23	535	10	10000	5	1	0	5	1
24	536	10	10000	5	1	0	5	1
25	537	10	10000	5	1	0	5	1
24	538	10	10000	5	1	0	5	1
23	539	10	10000	5	1	0	5	1
23	540	10	10000	5	1	0	5	1
22	541	10	10000	5	1	0	5	1
21	542	10	10000	5	1	0	5	1
20	543	10	10000	5	1	0	5	1
23	544	10	10000	5	1	0	5	1
22	545	10	10000	5	1	0	5	1
22	546	10	10000	5	1	0	5	1
21	547	10	10000	5	1	0	5	1
23	548	10	10000	5	1	0	5	1
22	549	10	10000	5	1	0	5	1
23	550	10	10000	5	1	0	5	1
23	551	10	10000	5	1	0	5	1
23	552	10	10000	5	1	0	5	0
23	553	10	10000	5	1	0	5	0
22	554	10	10000	5	1	0	5	0
21	555	10	10000	5	1	0	5	0
21	556	10	10000	5	1	0	5	0
22	557	10	10000	5	1	0	5	0
21	558	10	10000	5	1	0	5	0
21	559	10	10000	5	1	0	5	0
20	560	10	10000	5	1	0	5	0
20	561	10	10000	5	1	0	5	0
20	562	10	10000	5	1	0	5	0
19	563	10	10000	5	1	0	5	0
20	564	10	10000	5	1	0	5	0
20	565	10	10000	5	1	0	5	0
19	566	10	10000	5	1	0	5	0
18	567	10	10000	5	1	0	5	0
19	568	10	10000	5	1	0	5	0
18	569	10	10000	5	1	0	5	0
19	570	10	10000	5	1	0	5	0
19	571	10	10000	5	1	0	5	0
18	572	10	10000	5	1	0	5	0
18	573	10	10000	5	1	0	5	0
17	574	10	10000	5	1	0	5	0
17	575	10	10000	5	1	0	5	0
18	576	10	10000	5	1	0	5	0
18	577	10	10000	5	1	0	5	0
19	578	10	10000	5	1	0	5	0
19	579	10	10000	5	1	0	5	0
19	580	10	10000	5	1	0	5	0
18	581	10	10000	5	1	0	5	0
17	582	10	10000	5	1	0	5	0
16	583	10	10000	5	1	0	5	0
20	584	10	10000	5	1	0	5	0
20	585	10	10000	5	1	0	5	0
20	586	10	10000	5	1	0	5	0
20	587	10	10000	5	1	0	5	0
21	588	10	10000	5	1	0	5	0
22	589	10	10000	5	1	0	5	0
23	590	10	10000	5	1	0	5	0
23	591	10	10000	5	1	0	5	0
23	592	10	10000	5	1	0	5	0
23	593	10	10000	5	1	0	5	0
22	594	10	10000	5	1	0	5	0
22	595	10	10000	5	1	0	5	0
24	596	10	10000	5	1	0	5	0
28	597	10	10000	5	1	0	5	0
32	598	10	10000	5	1	0	5	0
36	599	10	10000	5	1	0	5	0
38	600	10	10000	5	1	0	5	0
42	601	10	10000	5	1	0	5	0
53	602	10	10000	5	1	0	5	0
83	603	10	10000	5	1	0	5	0
95	604	10	10000	5	1	0	5	0
93	605	10	10000	5	1	0	5	0
92	606	10	10000	5	1	0	5	0
89	607	10	10000	5	1	0	5	0
95	608	10	10000	5	1	0	5	0
105	609	10	10000	5	1	0	5	0
120	610	10	10000	5	1	0	5	0
122	611	10	10000	5	1	0	5	0
120	612	10	10000	5	1	0	5	0
122	613	10	10000	5	1	0	5	0
127	614	10	10000	5	1	0	5	0
134	615	10	10000	5	1	0	5	0
135	616	10	10000	5	1	0	5	0
139	617	10	10000	5	1	0	5	0
150	618	10	10000	5	1	0	5	0
156	619	10	10000	5	1	0	5	0
152	620	10	10000	5	1	0	5	0
149	621	10	10000	5	1	0	5	0
144	622	10	10000	5	1	0	5	0
143	623	10	10000	5	1	0	5	0
140	624	10	10000	5	1	0	5	0
142	625	10	10000	5	1	0	5	0
143	626	10	10000	5	1	0	5	0
141	627	10	10000	5	1	0	5	0
137	628	10	10000	5	1	0	5	0
132	629	10	10000	5	1	0	5	0
129	630	10	10000	5	1	0	5	0
128	631	10	10000	5	1	0	5	0
129	632	10	10000	5	1	0	5	0
128	633	10	10000	5	1	0	5	0
122	634	10	10000	5	1	0	5	0
123	635	10	10000	5	1	0	5	0
128	636	10	10000	5	1	0	5	0
133	637	10	10000	5	1	0	5	0
135	638	10	10000	5	1	0	5	0
134	639	10	10000	5	1	0	5	0
128	640	10	10000	5	1	0	5	0
123	641	10	10000	5	1	0	5	0
118	642	10	10000	5	1	0	5	0
113	643	10	10000	5	1	0	5	0
110	644	10	10000	5	1	0	5	0
106	645	10	10000	5	1	0	5	0
102	646	10	10000	5	1	0	5	0
99	647	10	10000	5	1	0	5	0
94	648	10	10000	5	1	0	5	0
90	649	10	10000	5	1	0	5	0
87	650	10	10000	5	1	0	5	0
82	651	10	10000	5	1	0	5	0
80	652	10	10000	5	1	0	5	0
78	653	10	10000	5	1	0	5	0
74	654	10	10000	5	1	0	5	0
71	655	10	10000	5	1	0	5	0
69	656	10	10000	5	1	0	5	0
69	657	10	10000	5	1	0	5	0
68	658	10	10000	5	1	0	5	0
67	659	10	10000	5	1	0	5	0
66	660	10	10000	5	1	0	5	0
66	661	10	10000	5	1	0	5	0
63	662	10	10000	5	1	0	5	0
61	663	10	10000	5	1	0	5	0
62	664	10	10000	5	1	0	5	0
61	665	10	10000	5	1	0	5	0
60	666	10	10000	5	1	0	5	0
59	667	10	10000	5	1	0	5	0
58	668	10	10000	5	1	0	5	0
58	669	10	10000	5	1	0	5	0
58	670	10	10000	5	1	0	5	0
59	671	10	10000	5	1	0	5	0
59	672	10	10000	5	1	0	5	0
58	673	10	10000	5	1	0	5	0
56	674	10	10000	5	1	0	5	0
56	675	10	10000	5	1	0	5	0
56	676	10	10000	5	1	0	5	0
57	677	10	10000	5	1	0	5	0
58	678	10	10000	5	1	0	5	0
59	679	10	10000	5	1	0	5	0
60	680	10	10000	5	1	0	5	0
60	681	10	10000	5	1	0	5	0
59	682	10	10000	5	1	0	5	0
58	683	10	10000	5	1	0	5	0
58	684	10	10000	5	1	0	5	0
56	685	10	10000	5	1	0	5	0
53	686	10	10000	5	1	0	5	0
51	687	10	10000	5	1	0	5	0
50	688	10	10000	5	1	0	5	0
48	689	10	10000	5	1	0	5	0
47	690	10	10000	5	1	0	5	0
45	691	10	10000	5	1	0	5	0
44	692	10	10000	5	1	0	5	0
42	693	10	10000	5	1	0	5	0
39	694	10	10000	5	1	0	5	0
37	695	10	10000	5	1	0	5	0
36	696	10	10000	5	1	0	5	0
35	697	10	10000	5	1	0	5	0
35	698	10	10000	5	1	0	5	0
37	699	10	10000	5	1	0	5	0
38	700	10	10000	5	1	0	5	0
36	701	10	10000	5	1	0	5	0
35	702	10	10000	5	1	0	5	0
33	703	10	10000	5	1	0	5	0
33	704	10	10000	5	1	0	5	0
33	705	10	10000	5	1	0	5	0
31	706	10	10000	5	1	0	5	0
30	707	10	10000	5	1	0	5	0
29	708	10	10000	5	1	0	5	0
28	709	10	10000	5	1	0	5	0
29	710	10	10000	5	1	0	5	0
32	711	10	10000	5	1	0	5	0
33	712	10	10000	5	1	0	5	0
32	713	10	10000	5	1	0	5	0
30	714	10	10000	5	1	0	5	0
29	715	10	10000	5	1	0	5	0
30	716	10	10000	5	1	0	5	0
28	717	10	10000	5	1	0	5	0
27	718	10	10000	5	1	0	5	0
26	719	10	10000	5	1	0	5	0
25	720	10	10000	5	1	0	5	0
24	721	10	10000	5	1	0	5	0
