value	EMG	Stimulus	EMG_sensitivity	Total_Trial_Nr	practise	acq	probe_nr	Startle_Probe
14	1	1	10000	1	1	0	1	0
14	2	1	10000	1	1	0	1	0
14	3	1	10000	1	1	0	1	0
15	4	1	10000	1	1	0	1	0
13	5	1	10000	1	1	0	1	0
13	6	1	10000	1	1	0	1	0
12	7	1	10000	1	1	0	1	0
13	8	1	10000	1	1	0	1	0
13	9	1	10000	1	1	0	1	0
13	10	1	10000	1	1	0	1	0
12	11	1	10000	1	1	0	1	0
11	12	1	10000	1	1	0	1	0
12	13	1	10000	1	1	0	1	0
11	14	1	10000	1	1	0	1	0
12	15	1	10000	1	1	0	1	0
12	16	1	10000	1	1	0	1	0
12	17	1	10000	1	1	0	1	0
12	18	1	10000	1	1	0	1	0
11	19	1	10000	1	1	0	1	0
11	20	1	10000	1	1	0	1	0
11	21	1	10000	1	1	0	1	0
11	22	1	10000	1	1	0	1	0
11	23	1	10000	1	1	0	1	0
11	24	1	10000	1	1	0	1	0
11	25	1	10000	1	1	0	1	0
11	26	1	10000	1	1	0	1	0
11	27	1	10000	1	1	0	1	0
12	28	1	10000	1	1	0	1	0
14	29	1	10000	1	1	0	1	0
13	30	1	10000	1	1	0	1	0
13	31	1	10000	1	1	0	1	0
12	32	1	10000	1	1	0	1	0
13	33	1	10000	1	1	0	1	0
13	34	1	10000	1	1	0	1	0
13	35	1	10000	1	1	0	1	0
14	36	1	10000	1	1	0	1	0
14	37	1	10000	1	1	0	1	0
13	38	1	10000	1	1	0	1	0
12	39	1	10000	1	1	0	1	0
14	40	1	10000	1	1	0	1	0
13	41	1	10000	1	1	0	1	0
12	42	1	10000	1	1	0	1	0
13	43	1	10000	1	1	0	1	0
14	44	1	10000	1	1	0	1	0
14	45	1	10000	1	1	0	1	0
13	46	1	10000	1	1	0	1	0
12	47	1	10000	1	1	0	1	0
14	48	1	10000	1	1	0	1	0
15	49	1	10000	1	1	0	1	0
14	50	1	10000	1	1	0	1	0
14	51	1	10000	1	1	0	1	0
13	52	1	10000	1	1	0	1	0
13	53	1	10000	1	1	0	1	0
13	54	1	10000	1	1	0	1	0
12	55	1	10000	1	1	0	1	0
13	56	1	10000	1	1	0	1	0
14	57	1	10000	1	1	0	1	0
14	58	1	10000	1	1	0	1	0
13	59	1	10000	1	1	0	1	0
14	60	1	10000	1	1	0	1	0
14	61	1	10000	1	1	0	1	0
15	62	1	10000	1	1	0	1	0
15	63	1	10000	1	1	0	1	0
16	64	1	10000	1	1	0	1	0
19	65	1	10000	1	1	0	1	0
20	66	1	10000	1	1	0	1	0
22	67	1	10000	1	1	0	1	0
22	68	1	10000	1	1	0	1	0
23	69	1	10000	1	1	0	1	0
23	70	1	10000	1	1	0	1	0
24	71	1	10000	1	1	0	1	0
23	72	1	10000	1	1	0	1	0
24	73	1	10000	1	1	0	1	0
23	74	1	10000	1	1	0	1	0
23	75	1	10000	1	1	0	1	0
26	76	1	10000	1	1	0	1	0
30	77	1	10000	1	1	0	1	0
35	78	1	10000	1	1	0	1	0
39	79	1	10000	1	1	0	1	0
42	80	1	10000	1	1	0	1	0
42	81	1	10000	1	1	0	1	0
43	82	1	10000	1	1	0	1	0
42	83	1	10000	1	1	0	1	0
40	84	1	10000	1	1	0	1	0
39	85	1	10000	1	1	0	1	0
39	86	1	10000	1	1	0	1	0
40	87	1	10000	1	1	0	1	0
43	88	1	10000	1	1	0	1	0
46	89	1	10000	1	1	0	1	0
46	90	1	10000	1	1	0	1	0
45	91	1	10000	1	1	0	1	0
44	92	1	10000	1	1	0	1	0
43	93	1	10000	1	1	0	1	0
42	94	1	10000	1	1	0	1	0
40	95	1	10000	1	1	0	1	0
38	96	1	10000	1	1	0	1	0
37	97	1	10000	1	1	0	1	0
35	98	1	10000	1	1	0	1	0
33	99	1	10000	1	1	0	1	0
32	100	1	10000	1	1	0	1	0
32	101	1	10000	1	1	0	1	0
31	102	1	10000	1	1	0	1	0
30	103	1	10000	1	1	0	1	0
30	104	1	10000	1	1	0	1	0
29	105	1	10000	1	1	0	1	0
27	106	1	10000	1	1	0	1	0
27	107	1	10000	1	1	0	1	0
28	108	1	10000	1	1	0	1	0
29	109	1	10000	1	1	0	1	0
29	110	1	10000	1	1	0	1	0
29	111	1	10000	1	1	0	1	0
32	112	1	10000	1	1	0	1	0
31	113	1	10000	1	1	0	1	0
30	114	1	10000	1	1	0	1	0
30	115	1	10000	1	1	0	1	0
30	116	1	10000	1	1	0	1	0
31	117	1	10000	1	1	0	1	0
31	118	1	10000	1	1	0	1	0
30	119	1	10000	1	1	0	1	0
32	120	1	10000	1	1	0	1	0
34	121	1	10000	1	1	0	1	0
34	122	1	10000	1	1	0	1	0
36	123	1	10000	1	1	0	1	0
37	124	1	10000	1	1	0	1	0
37	125	1	10000	1	1	0	1	0
38	126	1	10000	1	1	0	1	0
37	127	1	10000	1	1	0	1	0
38	128	1	10000	1	1	0	1	0
39	129	1	10000	1	1	0	1	0
38	130	1	10000	1	1	0	1	0
38	131	1	10000	1	1	0	1	0
39	132	1	10000	1	1	0	1	0
39	133	1	10000	1	1	0	1	0
40	134	1	10000	1	1	0	1	0
40	135	1	10000	1	1	0	1	0
40	136	1	10000	1	1	0	1	0
41	137	1	10000	1	1	0	1	0
39	138	1	10000	1	1	0	1	0
36	139	1	10000	1	1	0	1	0
36	140	1	10000	1	1	0	1	0
35	141	1	10000	1	1	0	1	0
34	142	1	10000	1	1	0	1	0
33	143	1	10000	1	1	0	1	0
33	144	1	10000	1	1	0	1	0
33	145	1	10000	1	1	0	1	0
31	146	1	10000	1	1	0	1	0
31	147	1	10000	1	1	0	1	0
32	148	1	10000	1	1	0	1	0
33	149	1	10000	1	1	0	1	0
32	150	1	10000	1	1	0	1	0
33	151	1	10000	1	1	0	1	0
32	152	1	10000	1	1	0	1	0
32	153	1	10000	1	1	0	1	0
31	154	1	10000	1	1	0	1	0
30	155	1	10000	1	1	0	1	0
29	156	1	10000	1	1	0	1	0
29	157	1	10000	1	1	0	1	0
27	158	1	10000	1	1	0	1	0
25	159	1	10000	1	1	0	1	0
24	160	1	10000	1	1	0	1	0
24	161	1	10000	1	1	0	1	0
24	162	1	10000	1	1	0	1	0
22	163	1	10000	1	1	0	1	0
23	164	1	10000	1	1	0	1	0
23	165	1	10000	1	1	0	1	0
22	166	1	10000	1	1	0	1	0
21	167	1	10000	1	1	0	1	0
21	168	1	10000	1	1	0	1	0
22	169	1	10000	1	1	0	1	0
21	170	1	10000	1	1	0	1	0
21	171	1	10000	1	1	0	1	0
20	172	1	10000	1	1	0	1	0
20	173	1	10000	1	1	0	1	0
20	174	1	10000	1	1	0	1	0
20	175	1	10000	1	1	0	1	0
20	176	1	10000	1	1	0	1	0
20	177	1	10000	1	1	0	1	0
19	178	1	10000	1	1	0	1	0
17	179	1	10000	1	1	0	1	0
17	180	1	10000	1	1	0	1	0
17	181	1	10000	1	1	0	1	0
17	182	1	10000	1	1	0	1	0
16	183	1	10000	1	1	0	1	0
17	184	1	10000	1	1	0	1	0
16	185	1	10000	1	1	0	1	0
16	186	1	10000	1	1	0	1	0
15	187	1	10000	1	1	0	1	0
15	188	1	10000	1	1	0	1	0
16	189	1	10000	1	1	0	1	0
16	190	1	10000	1	1	0	1	0
15	191	1	10000	1	1	0	1	0
16	192	1	10000	1	1	0	1	0
15	193	1	10000	1	1	0	1	0
15	194	1	10000	1	1	0	1	0
15	195	1	10000	1	1	0	1	0
14	196	1	10000	1	1	0	1	0
14	197	1	10000	1	1	0	1	0
14	198	1	10000	1	1	0	1	0
12	199	1	10000	1	1	0	1	0
12	200	1	10000	1	1	0	1	0
12	201	1	10000	1	1	0	1	0
12	202	1	10000	1	1	0	1	0
11	203	1	10000	1	1	0	1	0
11	204	1	10000	1	1	0	1	0
10	205	1	10000	1	1	0	1	0
11	206	1	10000	1	1	0	1	0
9	207	1	10000	1	1	0	1	0
11	208	1	10000	1	1	0	1	0
12	209	1	10000	1	1	0	1	0
11	210	1	10000	1	1	0	1	0
10	211	1	10000	1	1	0	1	0
11	212	1	10000	1	1	0	1	0
11	213	1	10000	1	1	0	1	0
12	214	1	10000	1	1	0	1	0
12	215	1	10000	1	1	0	1	0
12	216	1	10000	1	1	0	1	0
13	217	1	10000	1	1	0	1	0
13	218	1	10000	1	1	0	1	0
11	219	1	10000	1	1	0	1	0
11	220	1	10000	1	1	0	1	0
11	221	1	10000	1	1	0	1	0
12	222	1	10000	1	1	0	1	0
12	223	1	10000	1	1	0	1	0
12	224	1	10000	1	1	0	1	0
11	225	1	10000	1	1	0	1	0
10	226	1	10000	1	1	0	1	0
10	227	1	10000	1	1	0	1	0
11	228	1	10000	1	1	0	1	0
13	229	1	10000	1	1	0	1	0
13	230	1	10000	1	1	0	1	0
14	231	1	10000	1	1	0	1	0
15	232	1	10000	1	1	0	1	0
15	233	1	10000	1	1	0	1	0
15	234	1	10000	1	1	0	1	0
15	235	1	10000	1	1	0	1	0
15	236	1	10000	1	1	0	1	0
15	237	1	10000	1	1	0	1	0
13	238	1	10000	1	1	0	1	0
13	239	1	10000	1	1	0	1	0
13	240	1	10000	1	1	0	1	0
14	241	1	10000	1	1	0	1	0
14	242	1	10000	1	1	0	1	0
13	243	1	10000	1	1	0	1	0
13	244	1	10000	1	1	0	1	0
13	245	1	10000	1	1	0	1	0
12	246	1	10000	1	1	0	1	0
11	247	1	10000	1	1	0	1	0
12	248	1	10000	1	1	0	1	0
13	249	1	10000	1	1	0	1	0
12	250	1	10000	1	1	0	1	0
12	251	1	10000	1	1	0	1	0
11	252	1	10000	1	1	0	1	0
11	253	1	10000	1	1	0	1	0
11	254	1	10000	1	1	0	1	0
11	255	1	10000	1	1	0	1	0
12	256	1	10000	1	1	0	1	0
12	257	1	10000	1	1	0	1	0
10	258	1	10000	1	1	0	1	0
10	259	1	10000	1	1	0	1	0
10	260	1	10000	1	1	0	1	0
10	261	1	10000	1	1	0	1	0
11	262	1	10000	1	1	0	1	0
11	263	1	10000	1	1	0	1	0
11	264	1	10000	1	1	0	1	0
10	265	1	10000	1	1	0	1	0
9	266	1	10000	1	1	0	1	0
9	267	1	10000	1	1	0	1	0
10	268	1	10000	1	1	0	1	0
10	269	1	10000	1	1	0	1	0
11	270	1	10000	1	1	0	1	0
10	271	1	10000	1	1	0	1	0
10	272	1	10000	1	1	0	1	0
11	273	1	10000	1	1	0	1	0
10	274	1	10000	1	1	0	1	0
10	275	1	10000	1	1	0	1	0
11	276	1	10000	1	1	0	1	0
13	277	1	10000	1	1	0	1	0
12	278	1	10000	1	1	0	1	0
13	279	1	10000	1	1	0	1	0
12	280	1	10000	1	1	0	1	0
13	281	1	10000	1	1	0	1	0
13	282	1	10000	1	1	0	1	0
15	283	1	10000	1	1	0	1	0
17	284	1	10000	1	1	0	1	0
17	285	1	10000	1	1	0	1	0
17	286	1	10000	1	1	0	1	0
17	287	1	10000	1	1	0	1	0
19	288	1	10000	1	1	0	1	0
22	289	1	10000	1	1	0	1	0
22	290	1	10000	1	1	0	1	0
21	291	1	10000	1	1	0	1	0
21	292	1	10000	1	1	0	1	0
23	293	1	10000	1	1	0	1	0
23	294	1	10000	1	1	0	1	0
23	295	1	10000	1	1	0	1	0
22	296	1	10000	1	1	0	1	0
22	297	1	10000	1	1	0	1	0
21	298	1	10000	1	1	0	1	0
21	299	1	10000	1	1	0	1	0
22	300	1	10000	1	1	0	1	0
24	301	1	10000	1	1	0	1	0
25	302	1	10000	1	1	0	1	0
25	303	1	10000	1	1	0	1	0
25	304	1	10000	1	1	0	1	0
24	305	1	10000	1	1	0	1	0
27	306	1	10000	1	1	0	1	0
29	307	1	10000	1	1	0	1	0
31	308	1	10000	1	1	0	1	0
33	309	1	10000	1	1	0	1	0
32	310	1	10000	1	1	0	1	0
34	311	1	10000	1	1	0	1	0
40	312	1	10000	1	1	0	1	0
48	313	1	10000	1	1	0	1	0
51	314	1	10000	1	1	0	1	0
51	315	1	10000	1	1	0	1	0
50	316	1	10000	1	1	0	1	0
49	317	1	10000	1	1	0	1	0
47	318	1	10000	1	1	0	1	0
47	319	1	10000	1	1	0	1	0
52	320	1	10000	1	1	0	1	0
54	321	1	10000	1	1	0	1	0
56	322	1	10000	1	1	0	1	0
57	323	1	10000	1	1	0	1	0
63	324	1	10000	1	1	0	1	0
68	325	1	10000	1	1	0	1	0
68	326	1	10000	1	1	0	1	0
69	327	1	10000	1	1	0	1	0
71	328	1	10000	1	1	0	1	0
76	329	1	10000	1	1	0	1	0
88	330	1	10000	1	1	0	1	0
100	331	1	10000	1	1	0	1	0
118	332	1	10000	1	1	0	1	0
137	333	1	10000	1	1	0	1	0
137	334	1	10000	1	1	0	1	0
145	335	1	10000	1	1	0	1	0
161	336	1	10000	1	1	0	1	0
173	337	1	10000	1	1	0	1	0
174	338	1	10000	1	1	0	1	0
168	339	1	10000	1	1	0	1	0
172	340	1	10000	1	1	0	1	0
178	341	1	10000	1	1	0	1	0
176	342	1	10000	1	1	0	1	0
168	343	1	10000	1	1	0	1	0
161	344	1	10000	1	1	0	1	0
158	345	1	10000	1	1	0	1	0
151	346	1	10000	1	1	0	1	0
150	347	1	10000	1	1	0	1	0
149	348	1	10000	1	1	0	1	0
147	349	1	10000	1	1	0	1	0
143	350	1	10000	1	1	0	1	0
138	351	1	10000	1	1	0	1	0
135	352	1	10000	1	1	0	1	0
130	353	1	10000	1	1	0	1	0
128	354	1	10000	1	1	0	1	0
128	355	1	10000	1	1	0	1	0
131	356	1	10000	1	1	0	1	0
129	357	1	10000	1	1	0	1	0
126	358	1	10000	1	1	0	1	0
131	359	1	10000	1	1	0	1	0
141	360	1	10000	1	1	0	1	0
143	361	1	10000	1	1	0	1	0
139	362	1	10000	1	1	0	1	0
137	363	1	10000	1	1	0	1	0
133	364	1	10000	1	1	0	1	0
127	365	1	10000	1	1	0	1	0
122	366	1	10000	1	1	0	1	0
119	367	1	10000	1	1	0	1	0
118	368	1	10000	1	1	0	1	0
114	369	1	10000	1	1	0	1	0
110	370	1	10000	1	1	0	1	0
109	371	1	10000	1	1	0	1	0
111	372	1	10000	1	1	0	1	0
111	373	1	10000	1	1	0	1	0
107	374	1	10000	1	1	0	1	0
108	375	1	10000	1	1	0	1	0
107	376	1	10000	1	1	0	1	0
104	377	1	10000	1	1	0	1	0
103	378	1	10000	1	1	0	1	0
99	379	1	10000	1	1	0	1	0
97	380	1	10000	1	1	0	1	0
95	381	1	10000	1	1	0	1	0
97	382	1	10000	1	1	0	1	0
104	383	1	10000	1	1	0	1	0
105	384	1	10000	1	1	0	1	0
103	385	1	10000	1	1	0	1	0
98	386	1	10000	1	1	0	1	0
94	387	1	10000	1	1	0	1	0
91	388	1	10000	1	1	0	1	0
90	389	1	10000	1	1	0	1	0
87	390	1	10000	1	1	0	1	0
83	391	1	10000	1	1	0	1	0
81	392	1	10000	1	1	0	1	0
80	393	1	10000	1	1	0	1	0
81	394	1	10000	1	1	0	1	0
88	395	1	10000	1	1	0	1	0
95	396	1	10000	1	1	0	1	0
101	397	1	10000	1	1	0	1	0
103	398	1	10000	1	1	0	1	0
101	399	1	10000	1	1	0	1	0
100	400	1	10000	1	1	0	1	0
103	401	1	10000	1	1	0	1	0
104	402	1	10000	1	1	0	1	0
103	403	1	10000	1	1	0	1	0
111	404	1	10000	1	1	0	1	0
118	405	1	10000	1	1	0	1	0
122	406	1	10000	1	1	0	1	0
125	407	1	10000	1	1	0	1	0
130	408	1	10000	1	1	0	1	0
135	409	1	10000	1	1	0	1	0
140	410	1	10000	1	1	0	1	0
144	411	1	10000	1	1	0	1	0
144	412	1	10000	1	1	0	1	0
142	413	1	10000	1	1	0	1	0
139	414	1	10000	1	1	0	1	0
136	415	1	10000	1	1	0	1	0
134	416	1	10000	1	1	0	1	0
135	417	1	10000	1	1	0	1	0
131	418	1	10000	1	1	0	1	0
126	419	1	10000	1	1	0	1	0
121	420	1	10000	1	1	0	1	0
116	421	1	10000	1	1	0	1	0
112	422	1	10000	1	1	0	1	0
109	423	1	10000	1	1	0	1	0
108	424	1	10000	1	1	0	1	0
105	425	1	10000	1	1	0	1	0
102	426	1	10000	1	1	0	1	0
98	427	1	10000	1	1	0	1	0
97	428	1	10000	1	1	0	1	0
93	429	1	10000	1	1	0	1	0
89	430	1	10000	1	1	0	1	0
85	431	1	10000	1	1	0	1	0
82	432	1	10000	1	1	0	1	0
81	433	1	10000	1	1	0	1	0
81	434	1	10000	1	1	0	1	0
81	435	1	10000	1	1	0	1	0
83	436	1	10000	1	1	0	1	0
84	437	1	10000	1	1	0	1	0
85	438	1	10000	1	1	0	1	0
85	439	1	10000	1	1	0	1	0
86	440	1	10000	1	1	0	1	0
86	441	1	10000	1	1	0	1	0
87	442	1	10000	1	1	0	1	0
85	443	1	10000	1	1	0	1	0
85	444	1	10000	1	1	0	1	0
84	445	1	10000	1	1	0	1	0
82	446	1	10000	1	1	0	1	0
81	447	1	10000	1	1	0	1	0
83	448	1	10000	1	1	0	1	0
86	449	1	10000	1	1	0	1	0
88	450	1	10000	1	1	0	1	0
88	451	1	10000	1	1	0	1	0
90	452	1	10000	1	1	0	1	0
91	453	1	10000	1	1	0	1	0
90	454	1	10000	1	1	0	1	0
89	455	1	10000	1	1	0	1	0
88	456	1	10000	1	1	0	1	0
87	457	1	10000	1	1	0	1	0
84	458	1	10000	1	1	0	1	0
82	459	1	10000	1	1	0	1	0
80	460	1	10000	1	1	0	1	0
79	461	1	10000	1	1	0	1	0
78	462	1	10000	1	1	0	1	0
76	463	1	10000	1	1	0	1	0
76	464	1	10000	1	1	0	1	0
76	465	1	10000	1	1	0	1	0
75	466	1	10000	1	1	0	1	0
75	467	1	10000	1	1	0	1	0
74	468	1	10000	1	1	0	1	0
74	469	1	10000	1	1	0	1	0
72	470	1	10000	1	1	0	1	0
69	471	1	10000	1	1	0	1	0
66	472	1	10000	1	1	0	1	0
63	473	1	10000	1	1	0	1	0
61	474	1	10000	1	1	0	1	0
59	475	1	10000	1	1	0	1	0
59	476	1	10000	1	1	0	1	0
57	477	1	10000	1	1	0	1	0
55	478	1	10000	1	1	0	1	0
51	479	1	10000	1	1	0	1	0
50	480	1	10000	1	1	0	1	0
49	481	1	10000	1	1	0	1	0
48	482	1	10000	1	1	0	1	0
47	483	1	10000	1	1	0	1	0
47	484	1	10000	1	1	0	1	0
46	485	1	10000	1	1	0	1	0
45	486	1	10000	1	1	0	1	0
44	487	1	10000	1	1	0	1	0
44	488	1	10000	1	1	0	1	0
45	489	1	10000	1	1	0	1	0
43	490	1	10000	1	1	0	1	0
43	491	1	10000	1	1	0	1	0
44	492	1	10000	1	1	0	1	0
43	493	1	10000	1	1	0	1	0
44	494	1	10000	1	1	0	1	0
44	495	1	10000	1	1	0	1	0
45	496	1	10000	1	1	0	1	0
46	497	1	10000	1	1	0	1	0
46	498	1	10000	1	1	0	1	0
45	499	1	10000	1	1	0	1	0
46	500	1	10000	1	1	0	1	0
48	541	1	10000	1	1	0	1	1
49	542	1	10000	1	1	0	1	1
51	543	1	10000	1	1	0	1	1
52	544	1	10000	1	1	0	1	1
53	545	1	10000	1	1	0	1	1
53	546	1	10000	1	1	0	1	1
52	547	1	10000	1	1	0	1	1
54	548	1	10000	1	1	0	1	1
56	549	1	10000	1	1	0	1	1
55	550	1	10000	1	1	0	1	1
55	551	1	10000	1	1	0	1	1
56	552	1	10000	1	1	0	1	1
56	553	1	10000	1	1	0	1	1
58	554	1	10000	1	1	0	1	1
58	555	1	10000	1	1	0	1	1
59	556	1	10000	1	1	0	1	1
61	557	1	10000	1	1	0	1	1
60	558	1	10000	1	1	0	1	1
59	559	1	10000	1	1	0	1	1
61	560	1	10000	1	1	0	1	1
62	561	1	10000	1	1	0	1	1
62	562	1	10000	1	1	0	1	1
61	563	1	10000	1	1	0	1	1
62	564	1	10000	1	1	0	1	1
62	565	1	10000	1	1	0	1	1
60	566	1	10000	1	1	0	1	1
60	567	1	10000	1	1	0	1	1
60	568	1	10000	1	1	0	1	1
59	569	1	10000	1	1	0	1	1
58	570	1	10000	1	1	0	1	1
56	571	1	10000	1	1	0	1	1
56	572	1	10000	1	1	0	1	1
56	573	1	10000	1	1	0	1	1
55	574	1	10000	1	1	0	1	1
54	575	1	10000	1	1	0	1	1
54	576	1	10000	1	1	0	1	1
55	577	1	10000	1	1	0	1	1
54	578	1	10000	1	1	0	1	1
54	579	1	10000	1	1	0	1	1
54	580	1	10000	1	1	0	1	1
55	581	1	10000	1	1	0	1	1
54	582	1	10000	1	1	0	1	1
54	545	1	10000	1	1	0	1	1
52	546	1	10000	1	1	0	1	1
51	547	1	10000	1	1	0	1	1
49	548	1	10000	1	1	0	1	1
49	547	1	10000	1	1	0	1	1
50	548	1	10000	1	1	0	1	1
52	549	1	10000	1	1	0	1	1
55	550	1	10000	1	1	0	1	1
57	551	1	10000	1	1	0	1	0
57	552	1	10000	1	1	0	1	0
58	553	1	10000	1	1	0	1	0
58	554	1	10000	1	1	0	1	0
60	555	1	10000	1	1	0	1	0
64	556	1	10000	1	1	0	1	0
67	557	1	10000	1	1	0	1	0
66	558	1	10000	1	1	0	1	0
64	559	1	10000	1	1	0	1	0
64	560	1	10000	1	1	0	1	0
65	561	1	10000	1	1	0	1	0
65	562	1	10000	1	1	0	1	0
65	563	1	10000	1	1	0	1	0
65	564	1	10000	1	1	0	1	0
61	565	1	10000	1	1	0	1	0
65	566	1	10000	1	1	0	1	0
69	567	1	10000	1	1	0	1	0
69	568	1	10000	1	1	0	1	0
71	569	1	10000	1	1	0	1	0
77	570	1	10000	1	1	0	1	0
88	571	1	10000	1	1	0	1	0
93	572	1	10000	1	1	0	1	0
91	573	1	10000	1	1	0	1	0
90	574	1	10000	1	1	0	1	0
88	575	1	10000	1	1	0	1	0
85	576	1	10000	1	1	0	1	0
86	577	1	10000	1	1	0	1	0
89	578	1	10000	1	1	0	1	0
103	579	1	10000	1	1	0	1	0
117	580	1	10000	1	1	0	1	0
120	581	1	10000	1	1	0	1	0
120	582	1	10000	1	1	0	1	0
126	583	1	10000	1	1	0	1	0
130	584	1	10000	1	1	0	1	0
132	585	1	10000	1	1	0	1	0
129	586	1	10000	1	1	0	1	0
138	587	1	10000	1	1	0	1	0
151	588	1	10000	1	1	0	1	0
155	589	1	10000	1	1	0	1	0
150	590	1	10000	1	1	0	1	0
146	591	1	10000	1	1	0	1	0
148	592	1	10000	1	1	0	1	0
148	593	1	10000	1	1	0	1	0
144	594	1	10000	1	1	0	1	0
140	595	1	10000	1	1	0	1	0
134	596	1	10000	1	1	0	1	0
130	597	1	10000	1	1	0	1	0
133	598	1	10000	1	1	0	1	0
142	599	1	10000	1	1	0	1	0
150	600	1	10000	1	1	0	1	0
148	601	1	10000	1	1	0	1	0
144	602	1	10000	1	1	0	1	0
144	603	1	10000	1	1	0	1	0
146	604	1	10000	1	1	0	1	0
142	605	1	10000	1	1	0	1	0
139	606	1	10000	1	1	0	1	0
137	607	1	10000	1	1	0	1	0
135	608	1	10000	1	1	0	1	0
131	609	1	10000	1	1	0	1	0
125	610	1	10000	1	1	0	1	0
121	611	1	10000	1	1	0	1	0
117	612	1	10000	1	1	0	1	0
114	613	1	10000	1	1	0	1	0
112	614	1	10000	1	1	0	1	0
117	615	1	10000	1	1	0	1	0
126	616	1	10000	1	1	0	1	0
139	617	1	10000	1	1	0	1	0
164	618	1	10000	1	1	0	1	0
183	619	1	10000	1	1	0	1	0
186	620	1	10000	1	1	0	1	0
182	621	1	10000	1	1	0	1	0
187	622	1	10000	1	1	0	1	0
199	623	1	10000	1	1	0	1	0
209	624	1	10000	1	1	0	1	0
204	625	1	10000	1	1	0	1	0
207	626	1	10000	1	1	0	1	0
207	627	1	10000	1	1	0	1	0
201	628	1	10000	1	1	0	1	0
198	629	1	10000	1	1	0	1	0
194	630	1	10000	1	1	0	1	0
189	631	1	10000	1	1	0	1	0
188	632	1	10000	1	1	0	1	0
193	633	1	10000	1	1	0	1	0
214	634	1	10000	1	1	0	1	0
227	635	1	10000	1	1	0	1	0
236	636	1	10000	1	1	0	1	0
270	637	1	10000	1	1	0	1	0
307	638	1	10000	1	1	0	1	0
332	639	1	10000	1	1	0	1	0
344	640	1	10000	1	1	0	1	0
346	641	1	10000	1	1	0	1	0
346	642	1	10000	1	1	0	1	0
346	643	1	10000	1	1	0	1	0
343	644	1	10000	1	1	0	1	0
349	645	1	10000	1	1	0	1	0
356	646	1	10000	1	1	0	1	0
377	647	1	10000	1	1	0	1	0
414	648	1	10000	1	1	0	1	0
437	649	1	10000	1	1	0	1	0
428	650	1	10000	1	1	0	1	0
441	651	1	10000	1	1	0	1	0
468	652	1	10000	1	1	0	1	0
481	653	1	10000	1	1	0	1	0
485	654	1	10000	1	1	0	1	0
500	655	1	10000	1	1	0	1	0
512	656	1	10000	1	1	0	1	0
512	657	1	10000	1	1	0	1	0
496	658	1	10000	1	1	0	1	0
482	659	1	10000	1	1	0	1	0
473	660	1	10000	1	1	0	1	0
482	661	1	10000	1	1	0	1	0
502	662	1	10000	1	1	0	1	0
496	663	1	10000	1	1	0	1	0
505	664	1	10000	1	1	0	1	0
528	665	1	10000	1	1	0	1	0
535	666	1	10000	1	1	0	1	0
533	667	1	10000	1	1	0	1	0
526	668	1	10000	1	1	0	1	0
509	669	1	10000	1	1	0	1	0
488	670	1	10000	1	1	0	1	0
465	671	1	10000	1	1	0	1	0
446	672	1	10000	1	1	0	1	0
429	673	1	10000	1	1	0	1	0
415	674	1	10000	1	1	0	1	0
402	675	1	10000	1	1	0	1	0
392	676	1	10000	1	1	0	1	0
382	677	1	10000	1	1	0	1	0
372	678	1	10000	1	1	0	1	0
362	679	1	10000	1	1	0	1	0
354	680	1	10000	1	1	0	1	0
346	681	1	10000	1	1	0	1	0
335	682	1	10000	1	1	0	1	0
328	683	1	10000	1	1	0	1	0
319	684	1	10000	1	1	0	1	0
308	685	1	10000	1	1	0	1	0
297	686	1	10000	1	1	0	1	0
284	687	1	10000	1	1	0	1	0
273	688	1	10000	1	1	0	1	0
266	689	1	10000	1	1	0	1	0
257	690	1	10000	1	1	0	1	0
249	691	1	10000	1	1	0	1	0
243	692	1	10000	1	1	0	1	0
236	693	1	10000	1	1	0	1	0
230	694	1	10000	1	1	0	1	0
225	695	1	10000	1	1	0	1	0
222	696	1	10000	1	1	0	1	0
221	697	1	10000	1	1	0	1	0
215	698	1	10000	1	1	0	1	0
213	699	1	10000	1	1	0	1	0
212	700	1	10000	1	1	0	1	0
211	701	1	10000	1	1	0	1	0
211	702	1	10000	1	1	0	1	0
213	703	1	10000	1	1	0	1	0
214	704	1	10000	1	1	0	1	0
216	705	1	10000	1	1	0	1	0
219	706	1	10000	1	1	0	1	0
220	707	1	10000	1	1	0	1	0
222	708	1	10000	1	1	0	1	0
222	709	1	10000	1	1	0	1	0
223	710	1	10000	1	1	0	1	0
223	711	1	10000	1	1	0	1	0
223	712	1	10000	1	1	0	1	0
222	713	1	10000	1	1	0	1	0
221	714	1	10000	1	1	0	1	0
219	715	1	10000	1	1	0	1	0
218	716	1	10000	1	1	0	1	0
218	717	1	10000	1	1	0	1	0
215	718	1	10000	1	1	0	1	0
215	719	1	10000	1	1	0	1	0
214	720	1	10000	1	1	0	1	0
214	721	1	10000	1	1	0	1	0
214	722	1	10000	1	1	0	1	0
213	723	1	10000	1	1	0	1	0
211	724	1	10000	1	1	0	1	0
209	725	1	10000	1	1	0	1	0
205	726	1	10000	1	1	0	1	0
201	727	1	10000	1	1	0	1	0
199	728	1	10000	1	1	0	1	0
194	729	1	10000	1	1	0	1	0
189	730	1	10000	1	1	0	1	0
183	731	1	10000	1	1	0	1	0
176	732	1	10000	1	1	0	1	0
171	733	1	10000	1	1	0	1	0
163	734	1	10000	1	1	0	1	0
155	735	1	10000	1	1	0	1	0
149	736	1	10000	1	1	0	1	0
142	737	1	10000	1	1	0	1	0
135	738	1	10000	1	1	0	1	0
128	739	1	10000	1	1	0	1	0
124	740	1	10000	1	1	0	1	0
118	741	1	10000	1	1	0	1	0
114	742	1	10000	1	1	0	1	0
110	743	1	10000	1	1	0	1	0
107	744	1	10000	1	1	0	1	0
103	745	1	10000	1	1	0	1	0
100	746	1	10000	1	1	0	1	0
96	747	1	10000	1	1	0	1	0
96	748	1	10000	1	1	0	1	0
96	749	1	10000	1	1	0	1	0
94	750	1	10000	1	1	0	1	0
94	751	1	10000	1	1	0	1	0
94	752	1	10000	1	1	0	1	0
95	753	1	10000	1	1	0	1	0
97	754	1	10000	1	1	0	1	0
99	755	1	10000	1	1	0	1	0
100	756	1	10000	1	1	0	1	0
101	757	1	10000	1	1	0	1	0
103	758	1	10000	1	1	0	1	0
103	759	1	10000	1	1	0	1	0
106	760	1	10000	1	1	0	1	0
108	761	1	10000	1	1	0	1	0
110	762	1	10000	1	1	0	1	0
113	763	1	10000	1	1	0	1	0
114	764	1	10000	1	1	0	1	0
116	765	1	10000	1	1	0	1	0
118	766	1	10000	1	1	0	1	0
118	767	1	10000	1	1	0	1	0
121	768	1	10000	1	1	0	1	0
124	769	1	10000	1	1	0	1	0
123	770	1	10000	1	1	0	1	0
123	771	1	10000	1	1	0	1	0
125	772	1	10000	1	1	0	1	0
127	773	1	10000	1	1	0	1	0
130	774	1	10000	1	1	0	1	0
134	775	1	10000	1	1	0	1	0
136	776	1	10000	1	1	0	1	0
136	777	1	10000	1	1	0	1	0
135	778	1	10000	1	1	0	1	0
133	779	1	10000	1	1	0	1	0
133	780	1	10000	1	1	0	1	0
132	781	1	10000	1	1	0	1	0
130	782	1	10000	1	1	0	1	0
129	783	1	10000	1	1	0	1	0
128	784	1	10000	1	1	0	1	0
126	785	1	10000	1	1	0	1	0
123	786	1	10000	1	1	0	1	0
120	787	1	10000	1	1	0	1	0
120	788	1	10000	1	1	0	1	0
118	789	1	10000	1	1	0	1	0
117	790	1	10000	1	1	0	1	0
117	791	1	10000	1	1	0	1	0
116	792	1	10000	1	1	0	1	0
113	793	1	10000	1	1	0	1	0
111	794	1	10000	1	1	0	1	0
110	795	1	10000	1	1	0	1	0
111	796	1	10000	1	1	0	1	0
112	797	1	10000	1	1	0	1	0
112	798	1	10000	1	1	0	1	0
110	799	1	10000	1	1	0	1	0
108	800	1	10000	1	1	0	1	0
106	801	1	10000	1	1	0	1	0
105	802	1	10000	1	1	0	1	0
106	803	1	10000	1	1	0	1	0
105	804	1	10000	1	1	0	1	0
104	805	1	10000	1	1	0	1	0
100	806	1	10000	1	1	0	1	0
96	807	1	10000	1	1	0	1	0
93	808	1	10000	1	1	0	1	0
90	809	1	10000	1	1	0	1	0
86	810	1	10000	1	1	0	1	0
82	811	1	10000	1	1	0	1	0
80	812	1	10000	1	1	0	1	0
78	813	1	10000	1	1	0	1	0
77	814	1	10000	1	1	0	1	0
77	815	1	10000	1	1	0	1	0
78	816	1	10000	1	1	0	1	0
77	817	1	10000	1	1	0	1	0
75	818	1	10000	1	1	0	1	0
73	819	1	10000	1	1	0	1	0
73	820	1	10000	1	1	0	1	0
71	821	1	10000	1	1	0	1	0
71	822	1	10000	1	1	0	1	0
69	823	1	10000	1	1	0	1	0
67	824	1	10000	1	1	0	1	0
65	825	1	10000	1	1	0	1	0
63	826	1	10000	1	1	0	1	0
60	827	1	10000	1	1	0	1	0
59	828	1	10000	1	1	0	1	0
59	829	1	10000	1	1	0	1	0
59	830	1	10000	1	1	0	1	0
60	831	1	10000	1	1	0	1	0
60	832	1	10000	1	1	0	1	0
61	833	1	10000	1	1	0	1	0
66	834	1	10000	1	1	0	1	0
69	835	1	10000	1	1	0	1	0
68	836	1	10000	1	1	0	1	0
67	837	1	10000	1	1	0	1	0
66	838	1	10000	1	1	0	1	0
63	839	1	10000	1	1	0	1	0
61	840	1	10000	1	1	0	1	0
59	841	1	10000	1	1	0	1	0
56	842	1	10000	1	1	0	1	0
56	843	1	10000	1	1	0	1	0
54	844	1	10000	1	1	0	1	0
52	845	1	10000	1	1	0	1	0
51	846	1	10000	1	1	0	1	0
49	847	1	10000	1	1	0	1	0
48	848	1	10000	1	1	0	1	0
46	849	1	10000	1	1	0	1	0
44	850	1	10000	1	1	0	1	0
44	851	1	10000	1	1	0	1	0
43	852	1	10000	1	1	0	1	0
41	853	1	10000	1	1	0	1	0
39	854	1	10000	1	1	0	1	0
38	855	1	10000	1	1	0	1	0
37	856	1	10000	1	1	0	1	0
36	857	1	10000	1	1	0	1	0
34	858	1	10000	1	1	0	1	0
33	859	1	10000	1	1	0	1	0
32	860	1	10000	1	1	0	1	0
31	861	1	10000	1	1	0	1	0
32	862	1	10000	1	1	0	1	0
33	863	1	10000	1	1	0	1	0
35	864	1	10000	1	1	0	1	0
33	865	1	10000	1	1	0	1	0
32	866	1	10000	1	1	0	1	0
30	867	1	10000	1	1	0	1	0
31	868	1	10000	1	1	0	1	0
31	869	1	10000	1	1	0	1	0
31	870	1	10000	1	1	0	1	0
32	871	1	10000	1	1	0	1	0
31	872	1	10000	1	1	0	1	0
30	873	1	10000	1	1	0	1	0
29	874	1	10000	1	1	0	1	0
28	875	1	10000	1	1	0	1	0
28	876	1	10000	1	1	0	1	0
30	877	1	10000	1	1	0	1	0
29	878	1	10000	1	1	0	1	0
29	879	1	10000	1	1	0	1	0
29	880	1	10000	1	1	0	1	0
29	881	1	10000	1	1	0	1	0
29	882	1	10000	1	1	0	1	0
28	883	1	10000	1	1	0	1	0
30	884	1	10000	1	1	0	1	0
32	885	1	10000	1	1	0	1	0
33	886	1	10000	1	1	0	1	0
33	887	1	10000	1	1	0	1	0
33	888	1	10000	1	1	0	1	0
36	889	1	10000	1	1	0	1	0
37	890	1	10000	1	1	0	1	0
37	891	1	10000	1	1	0	1	0
35	892	1	10000	1	1	0	1	0
34	893	1	10000	1	1	0	1	0
33	894	1	10000	1	1	0	1	0
33	895	1	10000	1	1	0	1	0
33	896	1	10000	1	1	0	1	0
34	897	1	10000	1	1	0	1	0
33	898	1	10000	1	1	0	1	0
33	899	1	10000	1	1	0	1	0
34	900	1	10000	1	1	0	1	0
32	901	1	10000	1	1	0	1	0
34	902	1	10000	1	1	0	1	0
36	903	1	10000	1	1	0	1	0
39	904	1	10000	1	1	0	1	0
40	905	1	10000	1	1	0	1	0
39	906	1	10000	1	1	0	1	0
38	907	1	10000	1	1	0	1	0
41	908	1	10000	1	1	0	1	0
43	909	1	10000	1	1	0	1	0
42	910	1	10000	1	1	0	1	0
42	911	1	10000	1	1	0	1	0
40	912	1	10000	1	1	0	1	0
39	913	1	10000	1	1	0	1	0
38	914	1	10000	1	1	0	1	0
38	915	1	10000	1	1	0	1	0
40	916	1	10000	1	1	0	1	0
41	917	1	10000	1	1	0	1	0
41	918	1	10000	1	1	0	1	0
40	919	1	10000	1	1	0	1	0
38	920	1	10000	1	1	0	1	0
37	921	1	10000	1	1	0	1	0
36	922	1	10000	1	1	0	1	0
35	923	1	10000	1	1	0	1	0
34	924	1	10000	1	1	0	1	0
32	925	1	10000	1	1	0	1	0
31	926	1	10000	1	1	0	1	0
30	927	1	10000	1	1	0	1	0
31	928	1	10000	1	1	0	1	0
32	929	1	10000	1	1	0	1	0
32	930	1	10000	1	1	0	1	0
32	931	1	10000	1	1	0	1	0
31	932	1	10000	1	1	0	1	0
30	933	1	10000	1	1	0	1	0
28	934	1	10000	1	1	0	1	0
28	935	1	10000	1	1	0	1	0
29	936	1	10000	1	1	0	1	0
29	937	1	10000	1	1	0	1	0
27	938	1	10000	1	1	0	1	0
25	939	1	10000	1	1	0	1	0
26	940	1	10000	1	1	0	1	0
25	941	1	10000	1	1	0	1	0
25	942	1	10000	1	1	0	1	0
24	943	1	10000	1	1	0	1	0
24	944	1	10000	1	1	0	1	0
23	945	1	10000	1	1	0	1	0
23	946	1	10000	1	1	0	1	0
23	947	1	10000	1	1	0	1	0
23	948	1	10000	1	1	0	1	0
23	949	1	10000	1	1	0	1	0
22	950	1	10000	1	1	0	1	0
21	951	1	10000	1	1	0	1	0
21	952	1	10000	1	1	0	1	0
22	953	1	10000	1	1	0	1	0
22	954	1	10000	1	1	0	1	0
22	955	1	10000	1	1	0	1	0
21	956	1	10000	1	1	0	1	0
22	957	1	10000	1	1	0	1	0
20	958	1	10000	1	1	0	1	0
19	959	1	10000	1	1	0	1	0
20	960	1	10000	1	1	0	1	0
20	961	1	10000	1	1	0	1	0
21	962	1	10000	1	1	0	1	0
22	963	1	10000	1	1	0	1	0
22	964	1	10000	1	1	0	1	0
22	965	1	10000	1	1	0	1	0
21	966	1	10000	1	1	0	1	0
22	967	1	10000	1	1	0	1	0
24	968	1	10000	1	1	0	1	0
25	969	1	10000	1	1	0	1	0
26	970	1	10000	1	1	0	1	0
26	971	1	10000	1	1	0	1	0
26	972	1	10000	1	1	0	1	0
28	973	1	10000	1	1	0	1	0
30	974	1	10000	1	1	0	1	0
30	975	1	10000	1	1	0	1	0
29	976	1	10000	1	1	0	1	0
29	977	1	10000	1	1	0	1	0
27	978	1	10000	1	1	0	1	0
29	979	1	10000	1	1	0	1	0
32	980	1	10000	1	1	0	1	0
32	981	1	10000	1	1	0	1	0
32	982	1	10000	1	1	0	1	0
32	983	1	10000	1	1	0	1	0
33	984	1	10000	1	1	0	1	0
33	985	1	10000	1	1	0	1	0
32	986	1	10000	1	1	0	1	0
32	987	1	10000	1	1	0	1	0
37	988	1	10000	1	1	0	1	0
41	989	1	10000	1	1	0	1	0
43	990	1	10000	1	1	0	1	0
44	991	1	10000	1	1	0	1	0
44	992	1	10000	1	1	0	1	0
43	993	1	10000	1	1	0	1	0
41	994	1	10000	1	1	0	1	0
39	995	1	10000	1	1	0	1	0
38	996	1	10000	1	1	0	1	0
39	997	1	10000	1	1	0	1	0
40	998	1	10000	1	1	0	1	0
43	999	1	10000	1	1	0	1	0
45	1000	1	10000	1	1	0	1	0
52	2	0	10000	2	1	0	2	0
53	3	0	10000	2	1	0	2	0
53	4	0	10000	2	1	0	2	0
53	5	0	10000	2	1	0	2	0
53	6	0	10000	2	1	0	2	0
54	7	0	10000	2	1	0	2	0
54	8	0	10000	2	1	0	2	0
52	9	0	10000	2	1	0	2	0
53	10	0	10000	2	1	0	2	0
53	11	0	10000	2	1	0	2	0
53	12	0	10000	2	1	0	2	0
54	13	0	10000	2	1	0	2	0
55	14	0	10000	2	1	0	2	0
55	15	0	10000	2	1	0	2	0
54	16	0	10000	2	1	0	2	0
54	17	0	10000	2	1	0	2	0
53	18	0	10000	2	1	0	2	0
55	19	0	10000	2	1	0	2	0
54	20	0	10000	2	1	0	2	0
53	21	0	10000	2	1	0	2	0
53	22	0	10000	2	1	0	2	0
52	23	0	10000	2	1	0	2	0
52	24	0	10000	2	1	0	2	0
51	25	0	10000	2	1	0	2	0
51	26	0	10000	2	1	0	2	0
50	27	0	10000	2	1	0	2	0
50	28	0	10000	2	1	0	2	0
46	29	0	10000	2	1	0	2	0
47	30	0	10000	2	1	0	2	0
46	31	0	10000	2	1	0	2	0
46	32	0	10000	2	1	0	2	0
46	33	0	10000	2	1	0	2	0
46	34	0	10000	2	1	0	2	0
47	35	0	10000	2	1	0	2	0
46	36	0	10000	2	1	0	2	0
44	37	0	10000	2	1	0	2	0
44	38	0	10000	2	1	0	2	0
45	39	0	10000	2	1	0	2	0
44	40	0	10000	2	1	0	2	0
42	41	0	10000	2	1	0	2	0
41	42	0	10000	2	1	0	2	0
40	43	0	10000	2	1	0	2	0
39	44	0	10000	2	1	0	2	0
38	45	0	10000	2	1	0	2	0
38	46	0	10000	2	1	0	2	0
36	47	0	10000	2	1	0	2	0
36	48	0	10000	2	1	0	2	0
34	49	0	10000	2	1	0	2	0
33	50	0	10000	2	1	0	2	0
33	51	0	10000	2	1	0	2	0
32	52	0	10000	2	1	0	2	0
32	53	0	10000	2	1	0	2	0
31	54	0	10000	2	1	0	2	0
31	55	0	10000	2	1	0	2	0
29	56	0	10000	2	1	0	2	0
29	57	0	10000	2	1	0	2	0
29	58	0	10000	2	1	0	2	0
30	59	0	10000	2	1	0	2	0
30	60	0	10000	2	1	0	2	0
29	61	0	10000	2	1	0	2	0
28	62	0	10000	2	1	0	2	0
27	63	0	10000	2	1	0	2	0
27	64	0	10000	2	1	0	2	0
26	65	0	10000	2	1	0	2	0
26	66	0	10000	2	1	0	2	0
26	67	0	10000	2	1	0	2	0
25	68	0	10000	2	1	0	2	0
24	69	0	10000	2	1	0	2	0
23	70	0	10000	2	1	0	2	0
23	71	0	10000	2	1	0	2	0
23	72	0	10000	2	1	0	2	0
23	73	0	10000	2	1	0	2	0
23	74	0	10000	2	1	0	2	0
23	75	0	10000	2	1	0	2	0
22	76	0	10000	2	1	0	2	0
22	77	0	10000	2	1	0	2	0
22	78	0	10000	2	1	0	2	0
24	79	0	10000	2	1	0	2	0
23	80	0	10000	2	1	0	2	0
23	81	0	10000	2	1	0	2	0
22	82	0	10000	2	1	0	2	0
22	83	0	10000	2	1	0	2	0
21	84	0	10000	2	1	0	2	0
21	85	0	10000	2	1	0	2	0
22	86	0	10000	2	1	0	2	0
21	87	0	10000	2	1	0	2	0
21	88	0	10000	2	1	0	2	0
20	89	0	10000	2	1	0	2	0
19	90	0	10000	2	1	0	2	0
19	91	0	10000	2	1	0	2	0
19	92	0	10000	2	1	0	2	0
19	93	0	10000	2	1	0	2	0
19	94	0	10000	2	1	0	2	0
19	95	0	10000	2	1	0	2	0
18	96	0	10000	2	1	0	2	0
18	97	0	10000	2	1	0	2	0
17	98	0	10000	2	1	0	2	0
19	99	0	10000	2	1	0	2	0
19	100	0	10000	2	1	0	2	0
18	101	0	10000	2	1	0	2	0
18	102	0	10000	2	1	0	2	0
19	103	0	10000	2	1	0	2	0
18	104	0	10000	2	1	0	2	0
17	105	0	10000	2	1	0	2	0
18	106	0	10000	2	1	0	2	0
18	107	0	10000	2	1	0	2	0
19	108	0	10000	2	1	0	2	0
18	109	0	10000	2	1	0	2	0
17	110	0	10000	2	1	0	2	0
17	111	0	10000	2	1	0	2	0
18	112	0	10000	2	1	0	2	0
17	113	0	10000	2	1	0	2	0
19	114	0	10000	2	1	0	2	0
18	115	0	10000	2	1	0	2	0
18	116	0	10000	2	1	0	2	0
17	117	0	10000	2	1	0	2	0
17	118	0	10000	2	1	0	2	0
19	119	0	10000	2	1	0	2	0
19	120	0	10000	2	1	0	2	0
18	121	0	10000	2	1	0	2	0
18	122	0	10000	2	1	0	2	0
18	123	0	10000	2	1	0	2	0
18	124	0	10000	2	1	0	2	0
17	125	0	10000	2	1	0	2	0
18	126	0	10000	2	1	0	2	0
18	127	0	10000	2	1	0	2	0
18	128	0	10000	2	1	0	2	0
16	129	0	10000	2	1	0	2	0
16	130	0	10000	2	1	0	2	0
16	131	0	10000	2	1	0	2	0
16	132	0	10000	2	1	0	2	0
17	133	0	10000	2	1	0	2	0
17	134	0	10000	2	1	0	2	0
17	135	0	10000	2	1	0	2	0
17	136	0	10000	2	1	0	2	0
17	137	0	10000	2	1	0	2	0
16	138	0	10000	2	1	0	2	0
18	139	0	10000	2	1	0	2	0
18	140	0	10000	2	1	0	2	0
17	141	0	10000	2	1	0	2	0
17	142	0	10000	2	1	0	2	0
16	143	0	10000	2	1	0	2	0
17	144	0	10000	2	1	0	2	0
17	145	0	10000	2	1	0	2	0
17	146	0	10000	2	1	0	2	0
18	147	0	10000	2	1	0	2	0
18	148	0	10000	2	1	0	2	0
16	149	0	10000	2	1	0	2	0
17	150	0	10000	2	1	0	2	0
17	151	0	10000	2	1	0	2	0
17	152	0	10000	2	1	0	2	0
17	153	0	10000	2	1	0	2	0
17	154	0	10000	2	1	0	2	0
17	155	0	10000	2	1	0	2	0
16	156	0	10000	2	1	0	2	0
16	157	0	10000	2	1	0	2	0
15	158	0	10000	2	1	0	2	0
17	159	0	10000	2	1	0	2	0
17	160	0	10000	2	1	0	2	0
17	161	0	10000	2	1	0	2	0
17	162	0	10000	2	1	0	2	0
16	163	0	10000	2	1	0	2	0
17	164	0	10000	2	1	0	2	0
16	165	0	10000	2	1	0	2	0
16	166	0	10000	2	1	0	2	0
17	167	0	10000	2	1	0	2	0
17	168	0	10000	2	1	0	2	0
15	169	0	10000	2	1	0	2	0
16	170	0	10000	2	1	0	2	0
16	171	0	10000	2	1	0	2	0
16	172	0	10000	2	1	0	2	0
15	173	0	10000	2	1	0	2	0
15	174	0	10000	2	1	0	2	0
17	175	0	10000	2	1	0	2	0
15	176	0	10000	2	1	0	2	0
15	177	0	10000	2	1	0	2	0
15	178	0	10000	2	1	0	2	0
17	179	0	10000	2	1	0	2	0
17	180	0	10000	2	1	0	2	0
17	181	0	10000	2	1	0	2	0
17	182	0	10000	2	1	0	2	0
17	183	0	10000	2	1	0	2	0
17	184	0	10000	2	1	0	2	0
17	185	0	10000	2	1	0	2	0
17	186	0	10000	2	1	0	2	0
18	187	0	10000	2	1	0	2	0
19	188	0	10000	2	1	0	2	0
18	189	0	10000	2	1	0	2	0
17	190	0	10000	2	1	0	2	0
18	191	0	10000	2	1	0	2	0
18	192	0	10000	2	1	0	2	0
18	193	0	10000	2	1	0	2	0
18	194	0	10000	2	1	0	2	0
18	195	0	10000	2	1	0	2	0
17	196	0	10000	2	1	0	2	0
17	197	0	10000	2	1	0	2	0
16	198	0	10000	2	1	0	2	0
18	199	0	10000	2	1	0	2	0
18	200	0	10000	2	1	0	2	0
17	201	0	10000	2	1	0	2	0
16	202	0	10000	2	1	0	2	0
17	203	0	10000	2	1	0	2	0
17	204	0	10000	2	1	0	2	0
17	205	0	10000	2	1	0	2	0
17	206	0	10000	2	1	0	2	0
18	207	0	10000	2	1	0	2	0
18	208	0	10000	2	1	0	2	0
16	209	0	10000	2	1	0	2	0
16	210	0	10000	2	1	0	2	0
17	211	0	10000	2	1	0	2	0
17	212	0	10000	2	1	0	2	0
17	213	0	10000	2	1	0	2	0
17	214	0	10000	2	1	0	2	0
16	215	0	10000	2	1	0	2	0
16	216	0	10000	2	1	0	2	0
16	217	0	10000	2	1	0	2	0
15	218	0	10000	2	1	0	2	0
17	219	0	10000	2	1	0	2	0
17	220	0	10000	2	1	0	2	0
17	221	0	10000	2	1	0	2	0
17	222	0	10000	2	1	0	2	0
17	223	0	10000	2	1	0	2	0
17	224	0	10000	2	1	0	2	0
17	225	0	10000	2	1	0	2	0
17	226	0	10000	2	1	0	2	0
18	227	0	10000	2	1	0	2	0
18	228	0	10000	2	1	0	2	0
16	229	0	10000	2	1	0	2	0
16	230	0	10000	2	1	0	2	0
17	231	0	10000	2	1	0	2	0
16	232	0	10000	2	1	0	2	0
16	233	0	10000	2	1	0	2	0
16	234	0	10000	2	1	0	2	0
16	235	0	10000	2	1	0	2	0
16	236	0	10000	2	1	0	2	0
15	237	0	10000	2	1	0	2	0
15	238	0	10000	2	1	0	2	0
18	239	0	10000	2	1	0	2	0
17	240	0	10000	2	1	0	2	0
16	241	0	10000	2	1	0	2	0
17	242	0	10000	2	1	0	2	0
16	243	0	10000	2	1	0	2	0
17	244	0	10000	2	1	0	2	0
17	245	0	10000	2	1	0	2	0
17	246	0	10000	2	1	0	2	0
18	247	0	10000	2	1	0	2	0
18	248	0	10000	2	1	0	2	0
16	249	0	10000	2	1	0	2	0
17	250	0	10000	2	1	0	2	0
17	251	0	10000	2	1	0	2	0
17	252	0	10000	2	1	0	2	0
18	253	0	10000	2	1	0	2	0
17	254	0	10000	2	1	0	2	0
18	255	0	10000	2	1	0	2	0
17	256	0	10000	2	1	0	2	0
16	257	0	10000	2	1	0	2	0
16	258	0	10000	2	1	0	2	0
18	259	0	10000	2	1	0	2	0
19	260	0	10000	2	1	0	2	0
19	261	0	10000	2	1	0	2	0
19	262	0	10000	2	1	0	2	0
19	263	0	10000	2	1	0	2	0
19	264	0	10000	2	1	0	2	0
18	265	0	10000	2	1	0	2	0
19	266	0	10000	2	1	0	2	0
20	267	0	10000	2	1	0	2	0
20	268	0	10000	2	1	0	2	0
18	269	0	10000	2	1	0	2	0
18	270	0	10000	2	1	0	2	0
18	271	0	10000	2	1	0	2	0
18	272	0	10000	2	1	0	2	0
18	273	0	10000	2	1	0	2	0
18	274	0	10000	2	1	0	2	0
19	275	0	10000	2	1	0	2	0
18	276	0	10000	2	1	0	2	0
17	277	0	10000	2	1	0	2	0
17	278	0	10000	2	1	0	2	0
18	279	0	10000	2	1	0	2	0
18	280	0	10000	2	1	0	2	0
18	281	0	10000	2	1	0	2	0
17	282	0	10000	2	1	0	2	0
17	283	0	10000	2	1	0	2	0
18	284	0	10000	2	1	0	2	0
17	285	0	10000	2	1	0	2	0
18	286	0	10000	2	1	0	2	0
17	287	0	10000	2	1	0	2	0
19	288	0	10000	2	1	0	2	0
18	289	0	10000	2	1	0	2	0
18	290	0	10000	2	1	0	2	0
18	291	0	10000	2	1	0	2	0
19	292	0	10000	2	1	0	2	0
18	293	0	10000	2	1	0	2	0
18	294	0	10000	2	1	0	2	0
19	295	0	10000	2	1	0	2	0
18	296	0	10000	2	1	0	2	0
18	297	0	10000	2	1	0	2	0
17	298	0	10000	2	1	0	2	0
19	299	0	10000	2	1	0	2	0
20	300	0	10000	2	1	0	2	0
18	301	0	10000	2	1	0	2	0
18	302	0	10000	2	1	0	2	0
17	303	0	10000	2	1	0	2	0
18	304	0	10000	2	1	0	2	0
17	305	0	10000	2	1	0	2	0
18	306	0	10000	2	1	0	2	0
18	307	0	10000	2	1	0	2	0
18	308	0	10000	2	1	0	2	0
16	309	0	10000	2	1	0	2	0
15	310	0	10000	2	1	0	2	0
16	311	0	10000	2	1	0	2	0
16	312	0	10000	2	1	0	2	0
15	313	0	10000	2	1	0	2	0
16	314	0	10000	2	1	0	2	0
16	315	0	10000	2	1	0	2	0
15	316	0	10000	2	1	0	2	0
15	317	0	10000	2	1	0	2	0
15	318	0	10000	2	1	0	2	0
17	319	0	10000	2	1	0	2	0
18	320	0	10000	2	1	0	2	0
17	321	0	10000	2	1	0	2	0
16	322	0	10000	2	1	0	2	0
16	323	0	10000	2	1	0	2	0
16	324	0	10000	2	1	0	2	0
17	325	0	10000	2	1	0	2	0
16	326	0	10000	2	1	0	2	0
17	327	0	10000	2	1	0	2	0
17	328	0	10000	2	1	0	2	0
15	329	0	10000	2	1	0	2	0
15	330	0	10000	2	1	0	2	0
16	331	0	10000	2	1	0	2	0
16	332	0	10000	2	1	0	2	0
16	333	0	10000	2	1	0	2	0
17	334	0	10000	2	1	0	2	0
16	335	0	10000	2	1	0	2	0
16	336	0	10000	2	1	0	2	0
15	337	0	10000	2	1	0	2	0
14	338	0	10000	2	1	0	2	0
17	339	0	10000	2	1	0	2	0
17	340	0	10000	2	1	0	2	0
16	341	0	10000	2	1	0	2	0
16	342	0	10000	2	1	0	2	0
16	343	0	10000	2	1	0	2	0
15	344	0	10000	2	1	0	2	0
15	345	0	10000	2	1	0	2	0
16	346	0	10000	2	1	0	2	0
16	347	0	10000	2	1	0	2	0
16	348	0	10000	2	1	0	2	0
14	349	0	10000	2	1	0	2	0
15	350	0	10000	2	1	0	2	0
14	351	0	10000	2	1	0	2	0
14	352	0	10000	2	1	0	2	0
14	353	0	10000	2	1	0	2	0
14	354	0	10000	2	1	0	2	0
15	355	0	10000	2	1	0	2	0
15	356	0	10000	2	1	0	2	0
15	357	0	10000	2	1	0	2	0
14	358	0	10000	2	1	0	2	0
17	359	0	10000	2	1	0	2	0
16	360	0	10000	2	1	0	2	0
17	361	0	10000	2	1	0	2	0
16	362	0	10000	2	1	0	2	0
15	363	0	10000	2	1	0	2	0
16	364	0	10000	2	1	0	2	0
15	365	0	10000	2	1	0	2	0
16	366	0	10000	2	1	0	2	0
18	367	0	10000	2	1	0	2	0
19	368	0	10000	2	1	0	2	0
16	369	0	10000	2	1	0	2	0
18	370	0	10000	2	1	0	2	0
18	371	0	10000	2	1	0	2	0
20	372	0	10000	2	1	0	2	0
19	373	0	10000	2	1	0	2	0
19	374	0	10000	2	1	0	2	0
20	375	0	10000	2	1	0	2	0
25	376	0	10000	2	1	0	2	0
29	377	0	10000	2	1	0	2	0
32	378	0	10000	2	1	0	2	0
34	379	0	10000	2	1	0	2	0
33	380	0	10000	2	1	0	2	0
32	381	0	10000	2	1	0	2	0
32	382	0	10000	2	1	0	2	0
33	383	0	10000	2	1	0	2	0
35	384	0	10000	2	1	0	2	0
36	385	0	10000	2	1	0	2	0
39	386	0	10000	2	1	0	2	0
38	387	0	10000	2	1	0	2	0
39	388	0	10000	2	1	0	2	0
40	389	0	10000	2	1	0	2	0
46	390	0	10000	2	1	0	2	0
51	391	0	10000	2	1	0	2	0
50	392	0	10000	2	1	0	2	0
52	393	0	10000	2	1	0	2	0
56	394	0	10000	2	1	0	2	0
58	395	0	10000	2	1	0	2	0
59	396	0	10000	2	1	0	2	0
57	397	0	10000	2	1	0	2	0
56	398	0	10000	2	1	0	2	0
60	399	0	10000	2	1	0	2	0
60	400	0	10000	2	1	0	2	0
60	401	0	10000	2	1	0	2	0
62	402	0	10000	2	1	0	2	0
64	403	0	10000	2	1	0	2	0
63	404	0	10000	2	1	0	2	0
62	405	0	10000	2	1	0	2	0
64	406	0	10000	2	1	0	2	0
62	407	0	10000	2	1	0	2	0
61	408	0	10000	2	1	0	2	0
57	409	0	10000	2	1	0	2	0
57	410	0	10000	2	1	0	2	0
62	411	0	10000	2	1	0	2	0
67	412	0	10000	2	1	0	2	0
71	413	0	10000	2	1	0	2	0
69	414	0	10000	2	1	0	2	0
67	415	0	10000	2	1	0	2	0
67	416	0	10000	2	1	0	2	0
72	417	0	10000	2	1	0	2	0
79	418	0	10000	2	1	0	2	0
84	419	0	10000	2	1	0	2	0
84	420	0	10000	2	1	0	2	0
88	421	0	10000	2	1	0	2	0
87	422	0	10000	2	1	0	2	0
86	423	0	10000	2	1	0	2	0
84	424	0	10000	2	1	0	2	0
82	425	0	10000	2	1	0	2	0
80	426	0	10000	2	1	0	2	0
78	427	0	10000	2	1	0	2	0
76	428	0	10000	2	1	0	2	0
72	429	0	10000	2	1	0	2	0
71	430	0	10000	2	1	0	2	0
72	431	0	10000	2	1	0	2	0
78	432	0	10000	2	1	0	2	0
83	433	0	10000	2	1	0	2	0
88	434	0	10000	2	1	0	2	0
90	435	0	10000	2	1	0	2	0
87	436	0	10000	2	1	0	2	0
86	437	0	10000	2	1	0	2	0
84	438	0	10000	2	1	0	2	0
84	439	0	10000	2	1	0	2	0
86	440	0	10000	2	1	0	2	0
86	441	0	10000	2	1	0	2	0
86	442	0	10000	2	1	0	2	0
93	443	0	10000	2	1	0	2	0
96	444	0	10000	2	1	0	2	0
93	445	0	10000	2	1	0	2	0
90	446	0	10000	2	1	0	2	0
88	447	0	10000	2	1	0	2	0
87	448	0	10000	2	1	0	2	0
84	449	0	10000	2	1	0	2	0
82	450	0	10000	2	1	0	2	0
79	451	0	10000	2	1	0	2	0
77	452	0	10000	2	1	0	2	0
78	453	0	10000	2	1	0	2	0
78	454	0	10000	2	1	0	2	0
77	455	0	10000	2	1	0	2	0
81	456	0	10000	2	1	0	2	0
85	457	0	10000	2	1	0	2	0
85	458	0	10000	2	1	0	2	0
84	459	0	10000	2	1	0	2	0
80	460	0	10000	2	1	0	2	0
77	461	0	10000	2	1	0	2	0
75	462	0	10000	2	1	0	2	0
74	463	0	10000	2	1	0	2	0
73	464	0	10000	2	1	0	2	0
72	465	0	10000	2	1	0	2	0
70	466	0	10000	2	1	0	2	0
69	467	0	10000	2	1	0	2	0
68	468	0	10000	2	1	0	2	0
62	469	0	10000	2	1	0	2	0
64	470	0	10000	2	1	0	2	0
71	471	0	10000	2	1	0	2	0
75	472	0	10000	2	1	0	2	0
73	473	0	10000	2	1	0	2	0
72	474	0	10000	2	1	0	2	0
70	475	0	10000	2	1	0	2	0
69	476	0	10000	2	1	0	2	0
77	477	0	10000	2	1	0	2	0
81	478	0	10000	2	1	0	2	0
86	479	0	10000	2	1	0	2	0
87	480	0	10000	2	1	0	2	0
85	481	0	10000	2	1	0	2	0
83	482	0	10000	2	1	0	2	0
88	483	0	10000	2	1	0	2	0
94	484	0	10000	2	1	0	2	0
99	485	0	10000	2	1	0	2	0
105	486	0	10000	2	1	0	2	0
107	487	0	10000	2	1	0	2	0
107	488	0	10000	2	1	0	2	0
102	489	0	10000	2	1	0	2	0
100	490	0	10000	2	1	0	2	0
97	491	0	10000	2	1	0	2	0
95	492	0	10000	2	1	0	2	0
92	493	0	10000	2	1	0	2	0
88	494	0	10000	2	1	0	2	0
86	495	0	10000	2	1	0	2	0
83	496	0	10000	2	1	0	2	0
80	497	0	10000	2	1	0	2	0
76	498	0	10000	2	1	0	2	0
75	499	0	10000	2	1	0	2	0
73	500	0	10000	2	1	0	2	0
71	501	0	10000	2	1	0	2	0
69	502	0	10000	2	1	0	2	1
67	503	0	10000	2	1	0	2	1
68	504	0	10000	2	1	0	2	1
70	505	0	10000	2	1	0	2	1
74	506	0	10000	2	1	0	2	1
77	507	0	10000	2	1	0	2	1
77	508	0	10000	2	1	0	2	1
73	509	0	10000	2	1	0	2	1
74	510	0	10000	2	1	0	2	1
74	511	0	10000	2	1	0	2	1
72	512	0	10000	2	1	0	2	1
69	513	0	10000	2	1	0	2	1
69	514	0	10000	2	1	0	2	1
75	515	0	10000	2	1	0	2	1
79	516	0	10000	2	1	0	2	1
78	517	0	10000	2	1	0	2	1
75	518	0	10000	2	1	0	2	1
75	519	0	10000	2	1	0	2	1
72	520	0	10000	2	1	0	2	1
72	521	0	10000	2	1	0	2	1
73	522	0	10000	2	1	0	2	1
71	523	0	10000	2	1	0	2	1
71	524	0	10000	2	1	0	2	1
70	525	0	10000	2	1	0	2	1
71	526	0	10000	2	1	0	2	1
71	527	0	10000	2	1	0	2	1
72	528	0	10000	2	1	0	2	1
70	529	0	10000	2	1	0	2	1
68	530	0	10000	2	1	0	2	1
68	531	0	10000	2	1	0	2	1
69	532	0	10000	2	1	0	2	1
71	533	0	10000	2	1	0	2	1
73	534	0	10000	2	1	0	2	1
76	535	0	10000	2	1	0	2	1
77	536	0	10000	2	1	0	2	1
75	537	0	10000	2	1	0	2	1
73	538	0	10000	2	1	0	2	1
73	539	0	10000	2	1	0	2	1
70	540	0	10000	2	1	0	2	1
67	541	0	10000	2	1	0	2	1
64	542	0	10000	2	1	0	2	1
62	543	0	10000	2	1	0	2	1
61	544	0	10000	2	1	0	2	1
60	545	0	10000	2	1	0	2	1
61	546	0	10000	2	1	0	2	1
64	547	0	10000	2	1	0	2	1
64	548	0	10000	2	1	0	2	1
64	549	0	10000	2	1	0	2	1
65	550	0	10000	2	1	0	2	1
63	551	0	10000	2	1	0	2	1
63	552	0	10000	2	1	0	2	0
61	553	0	10000	2	1	0	2	0
60	554	0	10000	2	1	0	2	0
59	555	0	10000	2	1	0	2	0
58	556	0	10000	2	1	0	2	0
58	557	0	10000	2	1	0	2	0
60	558	0	10000	2	1	0	2	0
62	559	0	10000	2	1	0	2	0
61	560	0	10000	2	1	0	2	0
60	561	0	10000	2	1	0	2	0
60	562	0	10000	2	1	0	2	0
61	563	0	10000	2	1	0	2	0
61	564	0	10000	2	1	0	2	0
59	565	0	10000	2	1	0	2	0
58	566	0	10000	2	1	0	2	0
57	567	0	10000	2	1	0	2	0
58	568	0	10000	2	1	0	2	0
57	569	0	10000	2	1	0	2	0
56	570	0	10000	2	1	0	2	0
55	571	0	10000	2	1	0	2	0
56	572	0	10000	2	1	0	2	0
54	573	0	10000	2	1	0	2	0
52	574	0	10000	2	1	0	2	0
52	575	0	10000	2	1	0	2	0
49	576	0	10000	2	1	0	2	0
47	577	0	10000	2	1	0	2	0
46	578	0	10000	2	1	0	2	0
48	579	0	10000	2	1	0	2	0
47	580	0	10000	2	1	0	2	0
47	581	0	10000	2	1	0	2	0
47	582	0	10000	2	1	0	2	0
48	583	0	10000	2	1	0	2	0
61	584	0	10000	2	1	0	2	0
76	585	0	10000	2	1	0	2	0
82	586	0	10000	2	1	0	2	0
79	587	0	10000	2	1	0	2	0
77	588	0	10000	2	1	0	2	0
73	589	0	10000	2	1	0	2	0
74	590	0	10000	2	1	0	2	0
71	591	0	10000	2	1	0	2	0
72	592	0	10000	2	1	0	2	0
71	593	0	10000	2	1	0	2	0
74	594	0	10000	2	1	0	2	0
75	595	0	10000	2	1	0	2	0
84	596	0	10000	2	1	0	2	0
97	597	0	10000	2	1	0	2	0
103	598	0	10000	2	1	0	2	0
107	599	0	10000	2	1	0	2	0
145	600	0	10000	2	1	0	2	0
223	601	0	10000	2	1	0	2	0
272	602	0	10000	2	1	0	2	0
276	603	0	10000	2	1	0	2	0
305	604	0	10000	2	1	0	2	0
350	605	0	10000	2	1	0	2	0
386	606	0	10000	2	1	0	2	0
386	607	0	10000	2	1	0	2	0
374	608	0	10000	2	1	0	2	0
359	609	0	10000	2	1	0	2	0
352	610	0	10000	2	1	0	2	0
351	611	0	10000	2	1	0	2	0
348	612	0	10000	2	1	0	2	0
343	613	0	10000	2	1	0	2	0
346	614	0	10000	2	1	0	2	0
344	615	0	10000	2	1	0	2	0
335	616	0	10000	2	1	0	2	0
321	617	0	10000	2	1	0	2	0
313	618	0	10000	2	1	0	2	0
321	619	0	10000	2	1	0	2	0
346	620	0	10000	2	1	0	2	0
371	621	0	10000	2	1	0	2	0
377	622	0	10000	2	1	0	2	0
367	623	0	10000	2	1	0	2	0
349	624	0	10000	2	1	0	2	0
333	625	0	10000	2	1	0	2	0
321	626	0	10000	2	1	0	2	0
315	627	0	10000	2	1	0	2	0
310	628	0	10000	2	1	0	2	0
305	629	0	10000	2	1	0	2	0
302	630	0	10000	2	1	0	2	0
300	631	0	10000	2	1	0	2	0
297	632	0	10000	2	1	0	2	0
289	633	0	10000	2	1	0	2	0
279	634	0	10000	2	1	0	2	0
269	635	0	10000	2	1	0	2	0
259	636	0	10000	2	1	0	2	0
249	637	0	10000	2	1	0	2	0
240	638	0	10000	2	1	0	2	0
232	639	0	10000	2	1	0	2	0
221	640	0	10000	2	1	0	2	0
211	641	0	10000	2	1	0	2	0
202	642	0	10000	2	1	0	2	0
193	643	0	10000	2	1	0	2	0
186	644	0	10000	2	1	0	2	0
178	645	0	10000	2	1	0	2	0
171	646	0	10000	2	1	0	2	0
166	647	0	10000	2	1	0	2	0
161	648	0	10000	2	1	0	2	0
154	649	0	10000	2	1	0	2	0
151	650	0	10000	2	1	0	2	0
148	651	0	10000	2	1	0	2	0
145	652	0	10000	2	1	0	2	0
143	653	0	10000	2	1	0	2	0
141	654	0	10000	2	1	0	2	0
142	655	0	10000	2	1	0	2	0
143	656	0	10000	2	1	0	2	0
145	657	0	10000	2	1	0	2	0
148	658	0	10000	2	1	0	2	0
153	659	0	10000	2	1	0	2	0
155	660	0	10000	2	1	0	2	0
158	661	0	10000	2	1	0	2	0
158	662	0	10000	2	1	0	2	0
158	663	0	10000	2	1	0	2	0
159	664	0	10000	2	1	0	2	0
158	665	0	10000	2	1	0	2	0
156	666	0	10000	2	1	0	2	0
155	667	0	10000	2	1	0	2	0
153	668	0	10000	2	1	0	2	0
150	669	0	10000	2	1	0	2	0
147	670	0	10000	2	1	0	2	0
144	671	0	10000	2	1	0	2	0
143	672	0	10000	2	1	0	2	0
140	673	0	10000	2	1	0	2	0
137	674	0	10000	2	1	0	2	0
136	675	0	10000	2	1	0	2	0
134	676	0	10000	2	1	0	2	0
132	677	0	10000	2	1	0	2	0
130	678	0	10000	2	1	0	2	0
131	679	0	10000	2	1	0	2	0
131	680	0	10000	2	1	0	2	0
130	681	0	10000	2	1	0	2	0
128	682	0	10000	2	1	0	2	0
126	683	0	10000	2	1	0	2	0
121	684	0	10000	2	1	0	2	0
116	685	0	10000	2	1	0	2	0
111	686	0	10000	2	1	0	2	0
107	687	0	10000	2	1	0	2	0
104	688	0	10000	2	1	0	2	0
98	689	0	10000	2	1	0	2	0
94	690	0	10000	2	1	0	2	0
92	691	0	10000	2	1	0	2	0
90	692	0	10000	2	1	0	2	0
87	693	0	10000	2	1	0	2	0
83	694	0	10000	2	1	0	2	0
80	695	0	10000	2	1	0	2	0
77	696	0	10000	2	1	0	2	0
75	697	0	10000	2	1	0	2	0
72	698	0	10000	2	1	0	2	0
71	699	0	10000	2	1	0	2	0
68	700	0	10000	2	1	0	2	0
65	701	0	10000	2	1	0	2	0
63	702	0	10000	2	1	0	2	0
62	703	0	10000	2	1	0	2	0
61	704	0	10000	2	1	0	2	0
62	705	0	10000	2	1	0	2	0
62	706	0	10000	2	1	0	2	0
63	707	0	10000	2	1	0	2	0
67	708	0	10000	2	1	0	2	0
65	709	0	10000	2	1	0	2	0
67	710	0	10000	2	1	0	2	0
68	711	0	10000	2	1	0	2	0
70	712	0	10000	2	1	0	2	0
71	713	0	10000	2	1	0	2	0
71	714	0	10000	2	1	0	2	0
71	715	0	10000	2	1	0	2	0
70	716	0	10000	2	1	0	2	0
68	717	0	10000	2	1	0	2	0
66	718	0	10000	2	1	0	2	0
67	719	0	10000	2	1	0	2	0
65	720	0	10000	2	1	0	2	0
64	721	0	10000	2	1	0	2	0
62	722	0	10000	2	1	0	2	0
61	723	0	10000	2	1	0	2	0
61	724	0	10000	2	1	0	2	0
61	725	0	10000	2	1	0	2	0
63	726	0	10000	2	1	0	2	0
66	727	0	10000	2	1	0	2	0
67	728	0	10000	2	1	0	2	0
68	729	0	10000	2	1	0	2	0
71	730	0	10000	2	1	0	2	0
73	731	0	10000	2	1	0	2	0
76	732	0	10000	2	1	0	2	0
79	733	0	10000	2	1	0	2	0
78	734	0	10000	2	1	0	2	0
79	735	0	10000	2	1	0	2	0
78	736	0	10000	2	1	0	2	0
76	737	0	10000	2	1	0	2	0
74	738	0	10000	2	1	0	2	0
73	739	0	10000	2	1	0	2	0
70	740	0	10000	2	1	0	2	0
68	741	0	10000	2	1	0	2	0
66	742	0	10000	2	1	0	2	0
65	743	0	10000	2	1	0	2	0
65	744	0	10000	2	1	0	2	0
63	745	0	10000	2	1	0	2	0
63	746	0	10000	2	1	0	2	0
63	747	0	10000	2	1	0	2	0
64	748	0	10000	2	1	0	2	0
62	749	0	10000	2	1	0	2	0
63	750	0	10000	2	1	0	2	0
64	751	0	10000	2	1	0	2	0
67	752	0	10000	2	1	0	2	0
67	753	0	10000	2	1	0	2	0
68	754	0	10000	2	1	0	2	0
69	755	0	10000	2	1	0	2	0
67	756	0	10000	2	1	0	2	0
65	757	0	10000	2	1	0	2	0
64	758	0	10000	2	1	0	2	0
62	759	0	10000	2	1	0	2	0
60	760	0	10000	2	1	0	2	0
59	761	0	10000	2	1	0	2	0
58	762	0	10000	2	1	0	2	0
57	763	0	10000	2	1	0	2	0
57	764	0	10000	2	1	0	2	0
57	765	0	10000	2	1	0	2	0
59	766	0	10000	2	1	0	2	0
61	767	0	10000	2	1	0	2	0
61	768	0	10000	2	1	0	2	0
59	769	0	10000	2	1	0	2	0
58	770	0	10000	2	1	0	2	0
59	771	0	10000	2	1	0	2	0
59	772	0	10000	2	1	0	2	0
57	773	0	10000	2	1	0	2	0
56	774	0	10000	2	1	0	2	0
55	775	0	10000	2	1	0	2	0
53	776	0	10000	2	1	0	2	0
52	777	0	10000	2	1	0	2	0
50	778	0	10000	2	1	0	2	0
50	779	0	10000	2	1	0	2	0
48	780	0	10000	2	1	0	2	0
46	781	0	10000	2	1	0	2	0
44	782	0	10000	2	1	0	2	0
45	783	0	10000	2	1	0	2	0
44	784	0	10000	2	1	0	2	0
43	785	0	10000	2	1	0	2	0
43	786	0	10000	2	1	0	2	0
43	787	0	10000	2	1	0	2	0
44	788	0	10000	2	1	0	2	0
43	789	0	10000	2	1	0	2	0
43	790	0	10000	2	1	0	2	0
44	791	0	10000	2	1	0	2	0
42	792	0	10000	2	1	0	2	0
41	793	0	10000	2	1	0	2	0
42	794	0	10000	2	1	0	2	0
40	795	0	10000	2	1	0	2	0
40	796	0	10000	2	1	0	2	0
38	797	0	10000	2	1	0	2	0
38	798	0	10000	2	1	0	2	0
39	799	0	10000	2	1	0	2	0
39	800	0	10000	2	1	0	2	0
38	801	0	10000	2	1	0	2	0
37	802	0	10000	2	1	0	2	0
35	803	0	10000	2	1	0	2	0
35	804	0	10000	2	1	0	2	0
35	805	0	10000	2	1	0	2	0
36	806	0	10000	2	1	0	2	0
35	807	0	10000	2	1	0	2	0
36	808	0	10000	2	1	0	2	0
32	809	0	10000	2	1	0	2	0
33	810	0	10000	2	1	0	2	0
34	811	0	10000	2	1	0	2	0
36	812	0	10000	2	1	0	2	0
36	813	0	10000	2	1	0	2	0
35	814	0	10000	2	1	0	2	0
36	815	0	10000	2	1	0	2	0
36	816	0	10000	2	1	0	2	0
37	817	0	10000	2	1	0	2	0
36	818	0	10000	2	1	0	2	0
39	819	0	10000	2	1	0	2	0
38	820	0	10000	2	1	0	2	0
38	821	0	10000	2	1	0	2	0
38	822	0	10000	2	1	0	2	0
36	823	0	10000	2	1	0	2	0
36	824	0	10000	2	1	0	2	0
36	825	0	10000	2	1	0	2	0
35	826	0	10000	2	1	0	2	0
35	827	0	10000	2	1	0	2	0
34	828	0	10000	2	1	0	2	0
33	829	0	10000	2	1	0	2	0
33	830	0	10000	2	1	0	2	0
33	831	0	10000	2	1	0	2	0
32	832	0	10000	2	1	0	2	0
32	833	0	10000	2	1	0	2	0
32	834	0	10000	2	1	0	2	0
32	835	0	10000	2	1	0	2	0
31	836	0	10000	2	1	0	2	0
32	837	0	10000	2	1	0	2	0
31	838	0	10000	2	1	0	2	0
33	839	0	10000	2	1	0	2	0
33	840	0	10000	2	1	0	2	0
33	841	0	10000	2	1	0	2	0
34	842	0	10000	2	1	0	2	0
34	843	0	10000	2	1	0	2	0
34	844	0	10000	2	1	0	2	0
32	845	0	10000	2	1	0	2	0
33	846	0	10000	2	1	0	2	0
36	847	0	10000	2	1	0	2	0
38	848	0	10000	2	1	0	2	0
36	849	0	10000	2	1	0	2	0
37	850	0	10000	2	1	0	2	0
36	851	0	10000	2	1	0	2	0
35	852	0	10000	2	1	0	2	0
35	853	0	10000	2	1	0	2	0
34	854	0	10000	2	1	0	2	0
35	855	0	10000	2	1	0	2	0
33	856	0	10000	2	1	0	2	0
33	857	0	10000	2	1	0	2	0
33	858	0	10000	2	1	0	2	0
35	859	0	10000	2	1	0	2	0
35	860	0	10000	2	1	0	2	0
34	861	0	10000	2	1	0	2	0
33	862	0	10000	2	1	0	2	0
33	863	0	10000	2	1	0	2	0
34	864	0	10000	2	1	0	2	0
34	865	0	10000	2	1	0	2	0
33	866	0	10000	2	1	0	2	0
34	867	0	10000	2	1	0	2	0
33	868	0	10000	2	1	0	2	0
31	869	0	10000	2	1	0	2	0
30	870	0	10000	2	1	0	2	0
30	871	0	10000	2	1	0	2	0
30	872	0	10000	2	1	0	2	0
29	873	0	10000	2	1	0	2	0
29	874	0	10000	2	1	0	2	0
29	875	0	10000	2	1	0	2	0
28	876	0	10000	2	1	0	2	0
26	877	0	10000	2	1	0	2	0
26	878	0	10000	2	1	0	2	0
27	879	0	10000	2	1	0	2	0
28	880	0	10000	2	1	0	2	0
26	881	0	10000	2	1	0	2	0
26	882	0	10000	2	1	0	2	0
26	883	0	10000	2	1	0	2	0
26	884	0	10000	2	1	0	2	0
26	885	0	10000	2	1	0	2	0
27	886	0	10000	2	1	0	2	0
27	887	0	10000	2	1	0	2	0
26	888	0	10000	2	1	0	2	0
25	889	0	10000	2	1	0	2	0
24	890	0	10000	2	1	0	2	0
24	891	0	10000	2	1	0	2	0
24	892	0	10000	2	1	0	2	0
24	893	0	10000	2	1	0	2	0
25	894	0	10000	2	1	0	2	0
25	895	0	10000	2	1	0	2	0
25	896	0	10000	2	1	0	2	0
25	897	0	10000	2	1	0	2	0
26	898	0	10000	2	1	0	2	0
30	899	0	10000	2	1	0	2	0
32	900	0	10000	2	1	0	2	0
31	901	0	10000	2	1	0	2	0
32	902	0	10000	2	1	0	2	0
32	903	0	10000	2	1	0	2	0
31	904	0	10000	2	1	0	2	0
30	905	0	10000	2	1	0	2	0
30	906	0	10000	2	1	0	2	0
30	907	0	10000	2	1	0	2	0
30	908	0	10000	2	1	0	2	0
28	909	0	10000	2	1	0	2	0
27	910	0	10000	2	1	0	2	0
27	911	0	10000	2	1	0	2	0
27	912	0	10000	2	1	0	2	0
26	913	0	10000	2	1	0	2	0
25	914	0	10000	2	1	0	2	0
26	915	0	10000	2	1	0	2	0
24	916	0	10000	2	1	0	2	0
24	917	0	10000	2	1	0	2	0
25	918	0	10000	2	1	0	2	0
27	919	0	10000	2	1	0	2	0
27	920	0	10000	2	1	0	2	0
26	921	0	10000	2	1	0	2	0
24	922	0	10000	2	1	0	2	0
25	923	0	10000	2	1	0	2	0
24	924	0	10000	2	1	0	2	0
24	925	0	10000	2	1	0	2	0
25	926	0	10000	2	1	0	2	0
26	927	0	10000	2	1	0	2	0
26	928	0	10000	2	1	0	2	0
24	929	0	10000	2	1	0	2	0
27	930	0	10000	2	1	0	2	0
26	931	0	10000	2	1	0	2	0
27	932	0	10000	2	1	0	2	0
27	933	0	10000	2	1	0	2	0
26	934	0	10000	2	1	0	2	0
26	935	0	10000	2	1	0	2	0
24	936	0	10000	2	1	0	2	0
25	937	0	10000	2	1	0	2	0
24	938	0	10000	2	1	0	2	0
26	939	0	10000	2	1	0	2	0
25	940	0	10000	2	1	0	2	0
24	941	0	10000	2	1	0	2	0
24	942	0	10000	2	1	0	2	0
25	943	0	10000	2	1	0	2	0
25	944	0	10000	2	1	0	2	0
25	945	0	10000	2	1	0	2	0
25	946	0	10000	2	1	0	2	0
25	947	0	10000	2	1	0	2	0
25	948	0	10000	2	1	0	2	0
23	949	0	10000	2	1	0	2	0
23	950	0	10000	2	1	0	2	0
22	951	0	10000	2	1	0	2	0
23	952	0	10000	2	1	0	2	0
22	953	0	10000	2	1	0	2	0
22	954	0	10000	2	1	0	2	0
23	955	0	10000	2	1	0	2	0
25	956	0	10000	2	1	0	2	0
28	957	0	10000	2	1	0	2	0
33	958	0	10000	2	1	0	2	0
40	959	0	10000	2	1	0	2	0
44	960	0	10000	2	1	0	2	0
47	961	0	10000	2	1	0	2	0
51	962	0	10000	2	1	0	2	0
53	963	0	10000	2	1	0	2	0
53	964	0	10000	2	1	0	2	0
52	965	0	10000	2	1	0	2	0
56	966	0	10000	2	1	0	2	0
60	967	0	10000	2	1	0	2	0
63	968	0	10000	2	1	0	2	0
65	969	0	10000	2	1	0	2	0
66	970	0	10000	2	1	0	2	0
69	971	0	10000	2	1	0	2	0
70	972	0	10000	2	1	0	2	0
67	973	0	10000	2	1	0	2	0
65	974	0	10000	2	1	0	2	0
63	975	0	10000	2	1	0	2	0
62	976	0	10000	2	1	0	2	0
62	977	0	10000	2	1	0	2	0
63	978	0	10000	2	1	0	2	0
64	979	0	10000	2	1	0	2	0
63	980	0	10000	2	1	0	2	0
61	981	0	10000	2	1	0	2	0
60	982	0	10000	2	1	0	2	0
59	983	0	10000	2	1	0	2	0
57	984	0	10000	2	1	0	2	0
54	985	0	10000	2	1	0	2	0
52	986	0	10000	2	1	0	2	0
53	987	0	10000	2	1	0	2	0
53	988	0	10000	2	1	0	2	0
50	989	0	10000	2	1	0	2	0
49	990	0	10000	2	1	0	2	0
48	991	0	10000	2	1	0	2	0
46	992	0	10000	2	1	0	2	0
44	993	0	10000	2	1	0	2	0
45	994	0	10000	2	1	0	2	0
43	995	0	10000	2	1	0	2	0
42	996	0	10000	2	1	0	2	0
40	997	0	10000	2	1	0	2	0
38	998	0	10000	2	1	0	2	0
40	999	0	10000	2	1	0	2	0
37	1000	0	10000	2	1	0	2	0
37	1001	0	10000	2	1	0	2	0
15	1	0	10000	3	1	0	3	0
14	2	0	10000	3	1	0	3	0
16	3	0	10000	3	1	0	3	0
15	4	0	10000	3	1	0	3	0
15	5	0	10000	3	1	0	3	0
13	6	0	10000	3	1	0	3	0
15	7	0	10000	3	1	0	3	0
15	8	0	10000	3	1	0	3	0
15	9	0	10000	3	1	0	3	0
14	10	0	10000	3	1	0	3	0
13	11	0	10000	3	1	0	3	0
13	12	0	10000	3	1	0	3	0
13	13	0	10000	3	1	0	3	0
15	14	0	10000	3	1	0	3	0
14	15	0	10000	3	1	0	3	0
15	16	0	10000	3	1	0	3	0
14	17	0	10000	3	1	0	3	0
12	18	0	10000	3	1	0	3	0
12	19	0	10000	3	1	0	3	0
13	20	0	10000	3	1	0	3	0
13	21	0	10000	3	1	0	3	0
13	22	0	10000	3	1	0	3	0
12	23	0	10000	3	1	0	3	0
12	24	0	10000	3	1	0	3	0
11	25	0	10000	3	1	0	3	0
10	26	0	10000	3	1	0	3	0
12	27	0	10000	3	1	0	3	0
14	28	0	10000	3	1	0	3	0
12	29	0	10000	3	1	0	3	0
12	30	0	10000	3	1	0	3	0
12	31	0	10000	3	1	0	3	0
12	32	0	10000	3	1	0	3	0
12	33	0	10000	3	1	0	3	0
12	34	0	10000	3	1	0	3	0
12	35	0	10000	3	1	0	3	0
12	36	0	10000	3	1	0	3	0
11	37	0	10000	3	1	0	3	0
10	38	0	10000	3	1	0	3	0
12	39	0	10000	3	1	0	3	0
11	40	0	10000	3	1	0	3	0
11	41	0	10000	3	1	0	3	0
11	42	0	10000	3	1	0	3	0
12	43	0	10000	3	1	0	3	0
12	44	0	10000	3	1	0	3	0
12	45	0	10000	3	1	0	3	0
11	46	0	10000	3	1	0	3	0
12	47	0	10000	3	1	0	3	0
14	48	0	10000	3	1	0	3	0
13	49	0	10000	3	1	0	3	0
13	50	0	10000	3	1	0	3	0
12	51	0	10000	3	1	0	3	0
12	52	0	10000	3	1	0	3	0
13	53	0	10000	3	1	0	3	0
12	54	0	10000	3	1	0	3	0
12	55	0	10000	3	1	0	3	0
13	56	0	10000	3	1	0	3	0
13	57	0	10000	3	1	0	3	0
12	58	0	10000	3	1	0	3	0
13	59	0	10000	3	1	0	3	0
12	60	0	10000	3	1	0	3	0
13	61	0	10000	3	1	0	3	0
12	62	0	10000	3	1	0	3	0
13	63	0	10000	3	1	0	3	0
12	64	0	10000	3	1	0	3	0
12	65	0	10000	3	1	0	3	0
11	66	0	10000	3	1	0	3	0
12	67	0	10000	3	1	0	3	0
13	68	0	10000	3	1	0	3	0
13	69	0	10000	3	1	0	3	0
12	70	0	10000	3	1	0	3	0
12	71	0	10000	3	1	0	3	0
12	72	0	10000	3	1	0	3	0
12	73	0	10000	3	1	0	3	0
12	74	0	10000	3	1	0	3	0
12	75	0	10000	3	1	0	3	0
12	76	0	10000	3	1	0	3	0
10	77	0	10000	3	1	0	3	0
11	78	0	10000	3	1	0	3	0
10	79	0	10000	3	1	0	3	0
10	80	0	10000	3	1	0	3	0
11	81	0	10000	3	1	0	3	0
11	82	0	10000	3	1	0	3	0
10	83	0	10000	3	1	0	3	0
10	84	0	10000	3	1	0	3	0
10	85	0	10000	3	1	0	3	0
9	86	0	10000	3	1	0	3	0
11	87	0	10000	3	1	0	3	0
13	88	0	10000	3	1	0	3	0
13	89	0	10000	3	1	0	3	0
12	90	0	10000	3	1	0	3	0
12	91	0	10000	3	1	0	3	0
11	92	0	10000	3	1	0	3	0
12	93	0	10000	3	1	0	3	0
13	94	0	10000	3	1	0	3	0
13	95	0	10000	3	1	0	3	0
13	96	0	10000	3	1	0	3	0
12	97	0	10000	3	1	0	3	0
11	98	0	10000	3	1	0	3	0
11	99	0	10000	3	1	0	3	0
11	100	0	10000	3	1	0	3	0
11	101	0	10000	3	1	0	3	0
11	102	0	10000	3	1	0	3	0
12	103	0	10000	3	1	0	3	0
11	104	0	10000	3	1	0	3	0
11	105	0	10000	3	1	0	3	0
10	106	0	10000	3	1	0	3	0
12	107	0	10000	3	1	0	3	0
13	108	0	10000	3	1	0	3	0
13	109	0	10000	3	1	0	3	0
13	110	0	10000	3	1	0	3	0
12	111	0	10000	3	1	0	3	0
12	112	0	10000	3	1	0	3	0
12	113	0	10000	3	1	0	3	0
12	114	0	10000	3	1	0	3	0
12	115	0	10000	3	1	0	3	0
13	116	0	10000	3	1	0	3	0
11	117	0	10000	3	1	0	3	0
11	118	0	10000	3	1	0	3	0
11	119	0	10000	3	1	0	3	0
11	120	0	10000	3	1	0	3	0
11	121	0	10000	3	1	0	3	0
11	122	0	10000	3	1	0	3	0
11	123	0	10000	3	1	0	3	0
11	124	0	10000	3	1	0	3	0
11	125	0	10000	3	1	0	3	0
11	126	0	10000	3	1	0	3	0
12	127	0	10000	3	1	0	3	0
14	128	0	10000	3	1	0	3	0
13	129	0	10000	3	1	0	3	0
12	130	0	10000	3	1	0	3	0
11	131	0	10000	3	1	0	3	0
12	132	0	10000	3	1	0	3	0
11	133	0	10000	3	1	0	3	0
12	134	0	10000	3	1	0	3	0
12	135	0	10000	3	1	0	3	0
12	136	0	10000	3	1	0	3	0
11	137	0	10000	3	1	0	3	0
10	138	0	10000	3	1	0	3	0
11	139	0	10000	3	1	0	3	0
11	140	0	10000	3	1	0	3	0
11	141	0	10000	3	1	0	3	0
11	142	0	10000	3	1	0	3	0
11	143	0	10000	3	1	0	3	0
10	144	0	10000	3	1	0	3	0
10	145	0	10000	3	1	0	3	0
9	146	0	10000	3	1	0	3	0
11	147	0	10000	3	1	0	3	0
11	148	0	10000	3	1	0	3	0
11	149	0	10000	3	1	0	3	0
12	150	0	10000	3	1	0	3	0
11	151	0	10000	3	1	0	3	0
11	152	0	10000	3	1	0	3	0
12	153	0	10000	3	1	0	3	0
11	154	0	10000	3	1	0	3	0
11	155	0	10000	3	1	0	3	0
12	156	0	10000	3	1	0	3	0
10	157	0	10000	3	1	0	3	0
9	158	0	10000	3	1	0	3	0
10	159	0	10000	3	1	0	3	0
10	160	0	10000	3	1	0	3	0
10	161	0	10000	3	1	0	3	0
10	162	0	10000	3	1	0	3	0
10	163	0	10000	3	1	0	3	0
10	164	0	10000	3	1	0	3	0
9	165	0	10000	3	1	0	3	0
9	166	0	10000	3	1	0	3	0
11	167	0	10000	3	1	0	3	0
11	168	0	10000	3	1	0	3	0
11	169	0	10000	3	1	0	3	0
11	170	0	10000	3	1	0	3	0
10	171	0	10000	3	1	0	3	0
11	172	0	10000	3	1	0	3	0
11	173	0	10000	3	1	0	3	0
11	174	0	10000	3	1	0	3	0
11	175	0	10000	3	1	0	3	0
12	176	0	10000	3	1	0	3	0
10	177	0	10000	3	1	0	3	0
10	178	0	10000	3	1	0	3	0
10	179	0	10000	3	1	0	3	0
9	180	0	10000	3	1	0	3	0
9	181	0	10000	3	1	0	3	0
10	182	0	10000	3	1	0	3	0
10	183	0	10000	3	1	0	3	0
10	184	0	10000	3	1	0	3	0
10	185	0	10000	3	1	0	3	0
10	186	0	10000	3	1	0	3	0
13	187	0	10000	3	1	0	3	0
14	188	0	10000	3	1	0	3	0
14	189	0	10000	3	1	0	3	0
12	190	0	10000	3	1	0	3	0
12	191	0	10000	3	1	0	3	0
12	192	0	10000	3	1	0	3	0
12	193	0	10000	3	1	0	3	0
12	194	0	10000	3	1	0	3	0
12	195	0	10000	3	1	0	3	0
12	196	0	10000	3	1	0	3	0
11	197	0	10000	3	1	0	3	0
10	198	0	10000	3	1	0	3	0
11	199	0	10000	3	1	0	3	0
11	200	0	10000	3	1	0	3	0
11	201	0	10000	3	1	0	3	0
11	202	0	10000	3	1	0	3	0
11	203	0	10000	3	1	0	3	0
11	204	0	10000	3	1	0	3	0
11	205	0	10000	3	1	0	3	0
10	206	0	10000	3	1	0	3	0
12	207	0	10000	3	1	0	3	0
12	208	0	10000	3	1	0	3	0
12	209	0	10000	3	1	0	3	0
12	210	0	10000	3	1	0	3	0
12	211	0	10000	3	1	0	3	0
11	212	0	10000	3	1	0	3	0
12	213	0	10000	3	1	0	3	0
12	214	0	10000	3	1	0	3	0
12	215	0	10000	3	1	0	3	0
12	216	0	10000	3	1	0	3	0
11	217	0	10000	3	1	0	3	0
10	218	0	10000	3	1	0	3	0
10	219	0	10000	3	1	0	3	0
10	220	0	10000	3	1	0	3	0
11	221	0	10000	3	1	0	3	0
10	222	0	10000	3	1	0	3	0
11	223	0	10000	3	1	0	3	0
10	224	0	10000	3	1	0	3	0
12	225	0	10000	3	1	0	3	0
12	226	0	10000	3	1	0	3	0
14	227	0	10000	3	1	0	3	0
15	228	0	10000	3	1	0	3	0
13	229	0	10000	3	1	0	3	0
13	230	0	10000	3	1	0	3	0
14	231	0	10000	3	1	0	3	0
14	232	0	10000	3	1	0	3	0
14	233	0	10000	3	1	0	3	0
14	234	0	10000	3	1	0	3	0
14	235	0	10000	3	1	0	3	0
14	236	0	10000	3	1	0	3	0
12	237	0	10000	3	1	0	3	0
12	238	0	10000	3	1	0	3	0
13	239	0	10000	3	1	0	3	0
12	240	0	10000	3	1	0	3	0
12	241	0	10000	3	1	0	3	0
12	242	0	10000	3	1	0	3	0
12	243	0	10000	3	1	0	3	0
11	244	0	10000	3	1	0	3	0
11	245	0	10000	3	1	0	3	0
11	246	0	10000	3	1	0	3	0
12	247	0	10000	3	1	0	3	0
12	248	0	10000	3	1	0	3	0
11	249	0	10000	3	1	0	3	0
12	250	0	10000	3	1	0	3	0
12	251	0	10000	3	1	0	3	0
12	252	0	10000	3	1	0	3	0
13	253	0	10000	3	1	0	3	0
13	254	0	10000	3	1	0	3	0
13	255	0	10000	3	1	0	3	0
13	256	0	10000	3	1	0	3	0
12	257	0	10000	3	1	0	3	0
11	258	0	10000	3	1	0	3	0
11	259	0	10000	3	1	0	3	0
12	260	0	10000	3	1	0	3	0
11	261	0	10000	3	1	0	3	0
11	262	0	10000	3	1	0	3	0
11	263	0	10000	3	1	0	3	0
12	264	0	10000	3	1	0	3	0
11	265	0	10000	3	1	0	3	0
11	266	0	10000	3	1	0	3	0
12	267	0	10000	3	1	0	3	0
12	268	0	10000	3	1	0	3	0
12	269	0	10000	3	1	0	3	0
13	270	0	10000	3	1	0	3	0
12	271	0	10000	3	1	0	3	0
12	272	0	10000	3	1	0	3	0
11	273	0	10000	3	1	0	3	0
11	274	0	10000	3	1	0	3	0
12	275	0	10000	3	1	0	3	0
13	276	0	10000	3	1	0	3	0
11	277	0	10000	3	1	0	3	0
11	278	0	10000	3	1	0	3	0
11	279	0	10000	3	1	0	3	0
11	280	0	10000	3	1	0	3	0
12	281	0	10000	3	1	0	3	0
13	282	0	10000	3	1	0	3	0
13	283	0	10000	3	1	0	3	0
12	284	0	10000	3	1	0	3	0
13	285	0	10000	3	1	0	3	0
12	286	0	10000	3	1	0	3	0
14	287	0	10000	3	1	0	3	0
15	288	0	10000	3	1	0	3	0
15	289	0	10000	3	1	0	3	0
14	290	0	10000	3	1	0	3	0
14	291	0	10000	3	1	0	3	0
14	292	0	10000	3	1	0	3	0
13	293	0	10000	3	1	0	3	0
14	294	0	10000	3	1	0	3	0
14	295	0	10000	3	1	0	3	0
15	296	0	10000	3	1	0	3	0
13	297	0	10000	3	1	0	3	0
12	298	0	10000	3	1	0	3	0
12	299	0	10000	3	1	0	3	0
13	300	0	10000	3	1	0	3	0
12	301	0	10000	3	1	0	3	0
12	302	0	10000	3	1	0	3	0
13	303	0	10000	3	1	0	3	0
12	304	0	10000	3	1	0	3	0
11	305	0	10000	3	1	0	3	0
11	306	0	10000	3	1	0	3	0
12	307	0	10000	3	1	0	3	0
13	308	0	10000	3	1	0	3	0
12	309	0	10000	3	1	0	3	0
13	310	0	10000	3	1	0	3	0
12	311	0	10000	3	1	0	3	0
12	312	0	10000	3	1	0	3	0
12	313	0	10000	3	1	0	3	0
13	314	0	10000	3	1	0	3	0
12	315	0	10000	3	1	0	3	0
13	316	0	10000	3	1	0	3	0
12	317	0	10000	3	1	0	3	0
11	318	0	10000	3	1	0	3	0
11	319	0	10000	3	1	0	3	0
11	320	0	10000	3	1	0	3	0
11	321	0	10000	3	1	0	3	0
11	322	0	10000	3	1	0	3	0
11	323	0	10000	3	1	0	3	0
11	324	0	10000	3	1	0	3	0
12	325	0	10000	3	1	0	3	0
11	326	0	10000	3	1	0	3	0
12	327	0	10000	3	1	0	3	0
13	328	0	10000	3	1	0	3	0
12	329	0	10000	3	1	0	3	0
12	330	0	10000	3	1	0	3	0
11	331	0	10000	3	1	0	3	0
11	332	0	10000	3	1	0	3	0
11	333	0	10000	3	1	0	3	0
12	334	0	10000	3	1	0	3	0
13	335	0	10000	3	1	0	3	0
14	336	0	10000	3	1	0	3	0
12	337	0	10000	3	1	0	3	0
12	338	0	10000	3	1	0	3	0
14	339	0	10000	3	1	0	3	0
14	340	0	10000	3	1	0	3	0
13	341	0	10000	3	1	0	3	0
13	342	0	10000	3	1	0	3	0
13	343	0	10000	3	1	0	3	0
12	344	0	10000	3	1	0	3	0
13	345	0	10000	3	1	0	3	0
12	346	0	10000	3	1	0	3	0
13	347	0	10000	3	1	0	3	0
14	348	0	10000	3	1	0	3	0
14	349	0	10000	3	1	0	3	0
15	350	0	10000	3	1	0	3	0
14	351	0	10000	3	1	0	3	0
13	352	0	10000	3	1	0	3	0
14	353	0	10000	3	1	0	3	0
13	354	0	10000	3	1	0	3	0
13	355	0	10000	3	1	0	3	0
13	356	0	10000	3	1	0	3	0
12	357	0	10000	3	1	0	3	0
10	358	0	10000	3	1	0	3	0
11	359	0	10000	3	1	0	3	0
12	360	0	10000	3	1	0	3	0
12	361	0	10000	3	1	0	3	0
12	362	0	10000	3	1	0	3	0
13	363	0	10000	3	1	0	3	0
13	364	0	10000	3	1	0	3	0
12	365	0	10000	3	1	0	3	0
11	366	0	10000	3	1	0	3	0
13	367	0	10000	3	1	0	3	0
13	368	0	10000	3	1	0	3	0
13	369	0	10000	3	1	0	3	0
12	370	0	10000	3	1	0	3	0
11	371	0	10000	3	1	0	3	0
11	372	0	10000	3	1	0	3	0
12	373	0	10000	3	1	0	3	0
12	374	0	10000	3	1	0	3	0
12	375	0	10000	3	1	0	3	0
12	376	0	10000	3	1	0	3	0
10	377	0	10000	3	1	0	3	0
10	378	0	10000	3	1	0	3	0
9	379	0	10000	3	1	0	3	0
10	380	0	10000	3	1	0	3	0
10	381	0	10000	3	1	0	3	0
10	382	0	10000	3	1	0	3	0
10	383	0	10000	3	1	0	3	0
10	384	0	10000	3	1	0	3	0
10	385	0	10000	3	1	0	3	0
9	386	0	10000	3	1	0	3	0
10	387	0	10000	3	1	0	3	0
11	388	0	10000	3	1	0	3	0
11	389	0	10000	3	1	0	3	0
10	390	0	10000	3	1	0	3	0
10	391	0	10000	3	1	0	3	0
11	392	0	10000	3	1	0	3	0
10	393	0	10000	3	1	0	3	0
11	394	0	10000	3	1	0	3	0
11	395	0	10000	3	1	0	3	0
11	396	0	10000	3	1	0	3	0
9	397	0	10000	3	1	0	3	0
9	398	0	10000	3	1	0	3	0
10	399	0	10000	3	1	0	3	0
12	400	0	10000	3	1	0	3	0
13	401	0	10000	3	1	0	3	0
13	402	0	10000	3	1	0	3	0
14	403	0	10000	3	1	0	3	0
13	404	0	10000	3	1	0	3	0
13	405	0	10000	3	1	0	3	0
13	406	0	10000	3	1	0	3	0
14	407	0	10000	3	1	0	3	0
15	408	0	10000	3	1	0	3	0
15	409	0	10000	3	1	0	3	0
15	410	0	10000	3	1	0	3	0
14	411	0	10000	3	1	0	3	0
14	412	0	10000	3	1	0	3	0
14	413	0	10000	3	1	0	3	0
14	414	0	10000	3	1	0	3	0
14	415	0	10000	3	1	0	3	0
15	416	0	10000	3	1	0	3	0
13	417	0	10000	3	1	0	3	0
13	418	0	10000	3	1	0	3	0
13	419	0	10000	3	1	0	3	0
14	420	0	10000	3	1	0	3	0
14	421	0	10000	3	1	0	3	0
14	422	0	10000	3	1	0	3	0
13	423	0	10000	3	1	0	3	0
13	424	0	10000	3	1	0	3	0
14	425	0	10000	3	1	0	3	0
13	426	0	10000	3	1	0	3	0
15	427	0	10000	3	1	0	3	0
15	428	0	10000	3	1	0	3	0
14	429	0	10000	3	1	0	3	0
14	430	0	10000	3	1	0	3	0
14	431	0	10000	3	1	0	3	0
13	432	0	10000	3	1	0	3	0
14	433	0	10000	3	1	0	3	0
14	434	0	10000	3	1	0	3	0
14	435	0	10000	3	1	0	3	0
15	436	0	10000	3	1	0	3	0
13	437	0	10000	3	1	0	3	0
12	438	0	10000	3	1	0	3	0
13	439	0	10000	3	1	0	3	0
12	440	0	10000	3	1	0	3	0
12	441	0	10000	3	1	0	3	0
12	442	0	10000	3	1	0	3	0
12	443	0	10000	3	1	0	3	0
12	444	0	10000	3	1	0	3	0
11	445	0	10000	3	1	0	3	0
11	446	0	10000	3	1	0	3	0
11	447	0	10000	3	1	0	3	0
12	448	0	10000	3	1	0	3	0
11	449	0	10000	3	1	0	3	0
12	450	0	10000	3	1	0	3	0
11	451	0	10000	3	1	0	3	0
10	452	0	10000	3	1	0	3	0
10	453	0	10000	3	1	0	3	0
11	454	0	10000	3	1	0	3	0
11	455	0	10000	3	1	0	3	0
11	456	0	10000	3	1	0	3	0
10	457	0	10000	3	1	0	3	0
11	458	0	10000	3	1	0	3	0
11	459	0	10000	3	1	0	3	0
12	460	0	10000	3	1	0	3	0
12	461	0	10000	3	1	0	3	0
12	462	0	10000	3	1	0	3	0
12	463	0	10000	3	1	0	3	0
14	464	0	10000	3	1	0	3	0
13	465	0	10000	3	1	0	3	0
13	466	0	10000	3	1	0	3	0
15	467	0	10000	3	1	0	3	0
15	468	0	10000	3	1	0	3	0
14	469	0	10000	3	1	0	3	0
14	470	0	10000	3	1	0	3	0
14	471	0	10000	3	1	0	3	0
14	472	0	10000	3	1	0	3	0
14	473	0	10000	3	1	0	3	0
14	474	0	10000	3	1	0	3	0
14	475	0	10000	3	1	0	3	0
14	476	0	10000	3	1	0	3	0
12	477	0	10000	3	1	0	3	0
12	478	0	10000	3	1	0	3	0
13	479	0	10000	3	1	0	3	0
13	480	0	10000	3	1	0	3	0
14	481	0	10000	3	1	0	3	0
13	482	0	10000	3	1	0	3	0
13	483	0	10000	3	1	0	3	0
13	484	0	10000	3	1	0	3	0
13	485	0	10000	3	1	0	3	0
12	486	0	10000	3	1	0	3	0
14	487	0	10000	3	1	0	3	0
13	488	0	10000	3	1	0	3	0
14	489	0	10000	3	1	0	3	0
12	490	0	10000	3	1	0	3	0
13	491	0	10000	3	1	0	3	0
13	492	0	10000	3	1	0	3	0
12	493	0	10000	3	1	0	3	0
12	494	0	10000	3	1	0	3	0
13	495	0	10000	3	1	0	3	0
12	496	0	10000	3	1	0	3	0
11	497	0	10000	3	1	0	3	0
11	498	0	10000	3	1	0	3	0
11	499	0	10000	3	1	0	3	0
12	500	0	10000	3	1	0	3	0
11	501	0	10000	3	1	0	3	1
12	502	0	10000	3	1	0	3	1
13	503	0	10000	3	1	0	3	1
13	504	0	10000	3	1	0	3	1
12	505	0	10000	3	1	0	3	1
12	506	0	10000	3	1	0	3	1
13	507	0	10000	3	1	0	3	1
13	508	0	10000	3	1	0	3	1
13	509	0	10000	3	1	0	3	1
13	510	0	10000	3	1	0	3	1
13	511	0	10000	3	1	0	3	1
12	512	0	10000	3	1	0	3	1
11	513	0	10000	3	1	0	3	1
13	514	0	10000	3	1	0	3	1
14	515	0	10000	3	1	0	3	1
14	516	0	10000	3	1	0	3	1
12	517	0	10000	3	1	0	3	1
11	518	0	10000	3	1	0	3	1
12	519	0	10000	3	1	0	3	1
12	520	0	10000	3	1	0	3	1
12	521	0	10000	3	1	0	3	1
13	522	0	10000	3	1	0	3	1
13	523	0	10000	3	1	0	3	1
12	524	0	10000	3	1	0	3	1
13	525	0	10000	3	1	0	3	1
11	526	0	10000	3	1	0	3	1
12	527	0	10000	3	1	0	3	1
13	528	0	10000	3	1	0	3	1
13	529	0	10000	3	1	0	3	1
13	530	0	10000	3	1	0	3	1
12	531	0	10000	3	1	0	3	1
12	532	0	10000	3	1	0	3	1
12	533	0	10000	3	1	0	3	1
13	534	0	10000	3	1	0	3	1
13	535	0	10000	3	1	0	3	1
14	536	0	10000	3	1	0	3	1
12	537	0	10000	3	1	0	3	1
12	538	0	10000	3	1	0	3	1
13	539	0	10000	3	1	0	3	1
12	540	0	10000	3	1	0	3	1
12	541	0	10000	3	1	0	3	1
12	542	0	10000	3	1	0	3	1
12	543	0	10000	3	1	0	3	1
12	544	0	10000	3	1	0	3	1
11	545	0	10000	3	1	0	3	1
11	546	0	10000	3	1	0	3	1
13	547	0	10000	3	1	0	3	1
13	548	0	10000	3	1	0	3	1
14	549	0	10000	3	1	0	3	1
14	550	0	10000	3	1	0	3	1
13	551	0	10000	3	1	0	3	0
13	552	0	10000	3	1	0	3	0
13	553	0	10000	3	1	0	3	0
13	554	0	10000	3	1	0	3	0
13	555	0	10000	3	1	0	3	0
14	556	0	10000	3	1	0	3	0
12	557	0	10000	3	1	0	3	0
11	558	0	10000	3	1	0	3	0
11	559	0	10000	3	1	0	3	0
11	560	0	10000	3	1	0	3	0
12	561	0	10000	3	1	0	3	0
11	562	0	10000	3	1	0	3	0
12	563	0	10000	3	1	0	3	0
12	564	0	10000	3	1	0	3	0
11	565	0	10000	3	1	0	3	0
10	566	0	10000	3	1	0	3	0
12	567	0	10000	3	1	0	3	0
12	568	0	10000	3	1	0	3	0
12	569	0	10000	3	1	0	3	0
11	570	0	10000	3	1	0	3	0
11	571	0	10000	3	1	0	3	0
11	572	0	10000	3	1	0	3	0
10	573	0	10000	3	1	0	3	0
10	574	0	10000	3	1	0	3	0
12	575	0	10000	3	1	0	3	0
12	576	0	10000	3	1	0	3	0
10	577	0	10000	3	1	0	3	0
9	578	0	10000	3	1	0	3	0
9	579	0	10000	3	1	0	3	0
9	580	0	10000	3	1	0	3	0
10	581	0	10000	3	1	0	3	0
10	582	0	10000	3	1	0	3	0
10	583	0	10000	3	1	0	3	0
10	584	0	10000	3	1	0	3	0
10	585	0	10000	3	1	0	3	0
11	586	0	10000	3	1	0	3	0
20	587	0	10000	3	1	0	3	0
28	588	0	10000	3	1	0	3	0
27	589	0	10000	3	1	0	3	0
31	590	0	10000	3	1	0	3	0
32	591	0	10000	3	1	0	3	0
30	592	0	10000	3	1	0	3	0
33	593	0	10000	3	1	0	3	0
42	594	0	10000	3	1	0	3	0
46	595	0	10000	3	1	0	3	0
44	596	0	10000	3	1	0	3	0
43	597	0	10000	3	1	0	3	0
47	598	0	10000	3	1	0	3	0
50	599	0	10000	3	1	0	3	0
67	600	0	10000	3	1	0	3	0
82	601	0	10000	3	1	0	3	0
88	602	0	10000	3	1	0	3	0
87	603	0	10000	3	1	0	3	0
92	604	0	10000	3	1	0	3	0
96	605	0	10000	3	1	0	3	0
104	606	0	10000	3	1	0	3	0
115	607	0	10000	3	1	0	3	0
113	608	0	10000	3	1	0	3	0
114	609	0	10000	3	1	0	3	0
111	610	0	10000	3	1	0	3	0
111	611	0	10000	3	1	0	3	0
115	612	0	10000	3	1	0	3	0
119	613	0	10000	3	1	0	3	0
117	614	0	10000	3	1	0	3	0
130	615	0	10000	3	1	0	3	0
170	616	0	10000	3	1	0	3	0
194	617	0	10000	3	1	0	3	0
192	618	0	10000	3	1	0	3	0
194	619	0	10000	3	1	0	3	0
212	620	0	10000	3	1	0	3	0
232	621	0	10000	3	1	0	3	0
247	622	0	10000	3	1	0	3	0
252	623	0	10000	3	1	0	3	0
248	624	0	10000	3	1	0	3	0
242	625	0	10000	3	1	0	3	0
231	626	0	10000	3	1	0	3	0
231	627	0	10000	3	1	0	3	0
236	628	0	10000	3	1	0	3	0
237	629	0	10000	3	1	0	3	0
240	630	0	10000	3	1	0	3	0
238	631	0	10000	3	1	0	3	0
229	632	0	10000	3	1	0	3	0
222	633	0	10000	3	1	0	3	0
215	634	0	10000	3	1	0	3	0
209	635	0	10000	3	1	0	3	0
201	636	0	10000	3	1	0	3	0
190	637	0	10000	3	1	0	3	0
185	638	0	10000	3	1	0	3	0
181	639	0	10000	3	1	0	3	0
177	640	0	10000	3	1	0	3	0
175	641	0	10000	3	1	0	3	0
173	642	0	10000	3	1	0	3	0
171	643	0	10000	3	1	0	3	0
168	644	0	10000	3	1	0	3	0
164	645	0	10000	3	1	0	3	0
158	646	0	10000	3	1	0	3	0
154	647	0	10000	3	1	0	3	0
148	648	0	10000	3	1	0	3	0
141	649	0	10000	3	1	0	3	0
136	650	0	10000	3	1	0	3	0
128	651	0	10000	3	1	0	3	0
124	652	0	10000	3	1	0	3	0
120	653	0	10000	3	1	0	3	0
119	654	0	10000	3	1	0	3	0
117	655	0	10000	3	1	0	3	0
117	656	0	10000	3	1	0	3	0
115	657	0	10000	3	1	0	3	0
113	658	0	10000	3	1	0	3	0
112	659	0	10000	3	1	0	3	0
111	660	0	10000	3	1	0	3	0
110	661	0	10000	3	1	0	3	0
108	662	0	10000	3	1	0	3	0
108	663	0	10000	3	1	0	3	0
107	664	0	10000	3	1	0	3	0
105	665	0	10000	3	1	0	3	0
104	666	0	10000	3	1	0	3	0
105	667	0	10000	3	1	0	3	0
105	668	0	10000	3	1	0	3	0
105	669	0	10000	3	1	0	3	0
105	670	0	10000	3	1	0	3	0
105	671	0	10000	3	1	0	3	0
105	672	0	10000	3	1	0	3	0
105	673	0	10000	3	1	0	3	0
105	674	0	10000	3	1	0	3	0
106	675	0	10000	3	1	0	3	0
105	676	0	10000	3	1	0	3	0
103	677	0	10000	3	1	0	3	0
101	678	0	10000	3	1	0	3	0
100	679	0	10000	3	1	0	3	0
99	680	0	10000	3	1	0	3	0
98	681	0	10000	3	1	0	3	0
96	682	0	10000	3	1	0	3	0
94	683	0	10000	3	1	0	3	0
92	684	0	10000	3	1	0	3	0
89	685	0	10000	3	1	0	3	0
87	686	0	10000	3	1	0	3	0
86	687	0	10000	3	1	0	3	0
86	688	0	10000	3	1	0	3	0
83	689	0	10000	3	1	0	3	0
81	690	0	10000	3	1	0	3	0
80	691	0	10000	3	1	0	3	0
79	692	0	10000	3	1	0	3	0
78	693	0	10000	3	1	0	3	0
76	694	0	10000	3	1	0	3	0
73	695	0	10000	3	1	0	3	0
72	696	0	10000	3	1	0	3	0
68	697	0	10000	3	1	0	3	0
67	698	0	10000	3	1	0	3	0
65	699	0	10000	3	1	0	3	0
64	700	0	10000	3	1	0	3	0
61	701	0	10000	3	1	0	3	0
59	702	0	10000	3	1	0	3	0
56	703	0	10000	3	1	0	3	0
54	704	0	10000	3	1	0	3	0
51	705	0	10000	3	1	0	3	0
50	706	0	10000	3	1	0	3	0
49	707	0	10000	3	1	0	3	0
48	708	0	10000	3	1	0	3	0
46	709	0	10000	3	1	0	3	0
44	710	0	10000	3	1	0	3	0
43	711	0	10000	3	1	0	3	0
41	712	0	10000	3	1	0	3	0
40	713	0	10000	3	1	0	3	0
39	714	0	10000	3	1	0	3	0
37	715	0	10000	3	1	0	3	0
36	716	0	10000	3	1	0	3	0
34	717	0	10000	3	1	0	3	0
33	718	0	10000	3	1	0	3	0
32	719	0	10000	3	1	0	3	0
31	720	0	10000	3	1	0	3	0
31	721	0	10000	3	1	0	3	0
31	722	0	10000	3	1	0	3	0
32	723	0	10000	3	1	0	3	0
32	724	0	10000	3	1	0	3	0
34	725	0	10000	3	1	0	3	0
32	726	0	10000	3	1	0	3	0
33	727	0	10000	3	1	0	3	0
32	728	0	10000	3	1	0	3	0
32	729	0	10000	3	1	0	3	0
30	730	0	10000	3	1	0	3	0
29	731	0	10000	3	1	0	3	0
28	732	0	10000	3	1	0	3	0
28	733	0	10000	3	1	0	3	0
28	734	0	10000	3	1	0	3	0
28	735	0	10000	3	1	0	3	0
28	736	0	10000	3	1	0	3	0
25	737	0	10000	3	1	0	3	0
23	738	0	10000	3	1	0	3	0
23	739	0	10000	3	1	0	3	0
22	740	0	10000	3	1	0	3	0
24	741	0	10000	3	1	0	3	0
25	742	0	10000	3	1	0	3	0
26	743	0	10000	3	1	0	3	0
28	744	0	10000	3	1	0	3	0
28	745	0	10000	3	1	0	3	0
28	746	0	10000	3	1	0	3	0
31	747	0	10000	3	1	0	3	0
31	748	0	10000	3	1	0	3	0
31	749	0	10000	3	1	0	3	0
32	750	0	10000	3	1	0	3	0
31	751	0	10000	3	1	0	3	0
30	752	0	10000	3	1	0	3	0
29	753	0	10000	3	1	0	3	0
29	754	0	10000	3	1	0	3	0
28	755	0	10000	3	1	0	3	0
28	756	0	10000	3	1	0	3	0
26	757	0	10000	3	1	0	3	0
24	758	0	10000	3	1	0	3	0
24	759	0	10000	3	1	0	3	0
24	760	0	10000	3	1	0	3	0
24	761	0	10000	3	1	0	3	0
23	762	0	10000	3	1	0	3	0
24	763	0	10000	3	1	0	3	0
24	764	0	10000	3	1	0	3	0
23	765	0	10000	3	1	0	3	0
23	766	0	10000	3	1	0	3	0
24	767	0	10000	3	1	0	3	0
24	768	0	10000	3	1	0	3	0
24	769	0	10000	3	1	0	3	0
23	770	0	10000	3	1	0	3	0
22	771	0	10000	3	1	0	3	0
22	772	0	10000	3	1	0	3	0
22	773	0	10000	3	1	0	3	0
22	774	0	10000	3	1	0	3	0
23	775	0	10000	3	1	0	3	0
22	776	0	10000	3	1	0	3	0
20	777	0	10000	3	1	0	3	0
20	778	0	10000	3	1	0	3	0
20	779	0	10000	3	1	0	3	0
19	780	0	10000	3	1	0	3	0
18	781	0	10000	3	1	0	3	0
18	782	0	10000	3	1	0	3	0
20	783	0	10000	3	1	0	3	0
22	784	0	10000	3	1	0	3	0
23	785	0	10000	3	1	0	3	0
25	786	0	10000	3	1	0	3	0
28	787	0	10000	3	1	0	3	0
29	788	0	10000	3	1	0	3	0
28	789	0	10000	3	1	0	3	0
26	790	0	10000	3	1	0	3	0
26	791	0	10000	3	1	0	3	0
25	792	0	10000	3	1	0	3	0
24	793	0	10000	3	1	0	3	0
23	794	0	10000	3	1	0	3	0
23	795	0	10000	3	1	0	3	0
23	796	0	10000	3	1	0	3	0
21	797	0	10000	3	1	0	3	0
20	798	0	10000	3	1	0	3	0
20	799	0	10000	3	1	0	3	0
20	800	0	10000	3	1	0	3	0
20	801	0	10000	3	1	0	3	0
20	802	0	10000	3	1	0	3	0
21	803	0	10000	3	1	0	3	0
21	804	0	10000	3	1	0	3	0
21	805	0	10000	3	1	0	3	0
21	806	0	10000	3	1	0	3	0
23	807	0	10000	3	1	0	3	0
22	808	0	10000	3	1	0	3	0
22	809	0	10000	3	1	0	3	0
21	810	0	10000	3	1	0	3	0
22	811	0	10000	3	1	0	3	0
20	812	0	10000	3	1	0	3	0
20	813	0	10000	3	1	0	3	0
20	814	0	10000	3	1	0	3	0
20	815	0	10000	3	1	0	3	0
21	816	0	10000	3	1	0	3	0
19	817	0	10000	3	1	0	3	0
17	818	0	10000	3	1	0	3	0
17	819	0	10000	3	1	0	3	0
18	820	0	10000	3	1	0	3	0
17	821	0	10000	3	1	0	3	0
17	822	0	10000	3	1	0	3	0
17	823	0	10000	3	1	0	3	0
16	824	0	10000	3	1	0	3	0
16	825	0	10000	3	1	0	3	0
16	826	0	10000	3	1	0	3	0
17	827	0	10000	3	1	0	3	0
18	828	0	10000	3	1	0	3	0
16	829	0	10000	3	1	0	3	0
16	830	0	10000	3	1	0	3	0
16	831	0	10000	3	1	0	3	0
15	832	0	10000	3	1	0	3	0
15	833	0	10000	3	1	0	3	0
15	834	0	10000	3	1	0	3	0
15	835	0	10000	3	1	0	3	0
16	836	0	10000	3	1	0	3	0
13	837	0	10000	3	1	0	3	0
13	838	0	10000	3	1	0	3	0
13	839	0	10000	3	1	0	3	0
13	840	0	10000	3	1	0	3	0
15	841	0	10000	3	1	0	3	0
17	842	0	10000	3	1	0	3	0
17	843	0	10000	3	1	0	3	0
17	844	0	10000	3	1	0	3	0
16	845	0	10000	3	1	0	3	0
16	846	0	10000	3	1	0	3	0
19	847	0	10000	3	1	0	3	0
18	848	0	10000	3	1	0	3	0
18	849	0	10000	3	1	0	3	0
19	850	0	10000	3	1	0	3	0
18	851	0	10000	3	1	0	3	0
18	852	0	10000	3	1	0	3	0
17	853	0	10000	3	1	0	3	0
17	854	0	10000	3	1	0	3	0
17	855	0	10000	3	1	0	3	0
18	856	0	10000	3	1	0	3	0
16	857	0	10000	3	1	0	3	0
15	858	0	10000	3	1	0	3	0
15	859	0	10000	3	1	0	3	0
15	860	0	10000	3	1	0	3	0
16	861	0	10000	3	1	0	3	0
16	862	0	10000	3	1	0	3	0
17	863	0	10000	3	1	0	3	0
18	864	0	10000	3	1	0	3	0
17	865	0	10000	3	1	0	3	0
17	866	0	10000	3	1	0	3	0
19	867	0	10000	3	1	0	3	0
20	868	0	10000	3	1	0	3	0
20	869	0	10000	3	1	0	3	0
20	870	0	10000	3	1	0	3	0
20	871	0	10000	3	1	0	3	0
20	872	0	10000	3	1	0	3	0
19	873	0	10000	3	1	0	3	0
19	874	0	10000	3	1	0	3	0
19	875	0	10000	3	1	0	3	0
19	876	0	10000	3	1	0	3	0
18	877	0	10000	3	1	0	3	0
19	878	0	10000	3	1	0	3	0
19	879	0	10000	3	1	0	3	0
19	880	0	10000	3	1	0	3	0
19	881	0	10000	3	1	0	3	0
18	882	0	10000	3	1	0	3	0
18	883	0	10000	3	1	0	3	0
17	884	0	10000	3	1	0	3	0
16	885	0	10000	3	1	0	3	0
16	886	0	10000	3	1	0	3	0
17	887	0	10000	3	1	0	3	0
17	888	0	10000	3	1	0	3	0
16	889	0	10000	3	1	0	3	0
16	890	0	10000	3	1	0	3	0
16	891	0	10000	3	1	0	3	0
16	892	0	10000	3	1	0	3	0
15	893	0	10000	3	1	0	3	0
16	894	0	10000	3	1	0	3	0
17	895	0	10000	3	1	0	3	0
17	896	0	10000	3	1	0	3	0
16	897	0	10000	3	1	0	3	0
14	898	0	10000	3	1	0	3	0
14	899	0	10000	3	1	0	3	0
16	900	0	10000	3	1	0	3	0
15	901	0	10000	3	1	0	3	0
14	902	0	10000	3	1	0	3	0
14	903	0	10000	3	1	0	3	0
14	904	0	10000	3	1	0	3	0
13	905	0	10000	3	1	0	3	0
13	906	0	10000	3	1	0	3	0
14	907	0	10000	3	1	0	3	0
14	908	0	10000	3	1	0	3	0
13	909	0	10000	3	1	0	3	0
12	910	0	10000	3	1	0	3	0
13	911	0	10000	3	1	0	3	0
12	912	0	10000	3	1	0	3	0
11	913	0	10000	3	1	0	3	0
12	914	0	10000	3	1	0	3	0
12	915	0	10000	3	1	0	3	0
14	916	0	10000	3	1	0	3	0
12	917	0	10000	3	1	0	3	0
11	918	0	10000	3	1	0	3	0
12	919	0	10000	3	1	0	3	0
12	920	0	10000	3	1	0	3	0
13	921	0	10000	3	1	0	3	0
14	922	0	10000	3	1	0	3	0
15	923	0	10000	3	1	0	3	0
14	924	0	10000	3	1	0	3	0
14	925	0	10000	3	1	0	3	0
13	926	0	10000	3	1	0	3	0
15	927	0	10000	3	1	0	3	0
16	928	0	10000	3	1	0	3	0
15	929	0	10000	3	1	0	3	0
14	930	0	10000	3	1	0	3	0
14	931	0	10000	3	1	0	3	0
14	932	0	10000	3	1	0	3	0
16	933	0	10000	3	1	0	3	0
17	934	0	10000	3	1	0	3	0
20	935	0	10000	3	1	0	3	0
23	936	0	10000	3	1	0	3	0
21	937	0	10000	3	1	0	3	0
21	938	0	10000	3	1	0	3	0
20	939	0	10000	3	1	0	3	0
20	940	0	10000	3	1	0	3	0
20	941	0	10000	3	1	0	3	0
20	942	0	10000	3	1	0	3	0
19	943	0	10000	3	1	0	3	0
18	944	0	10000	3	1	0	3	0
18	945	0	10000	3	1	0	3	0
17	946	0	10000	3	1	0	3	0
18	947	0	10000	3	1	0	3	0
18	948	0	10000	3	1	0	3	0
17	949	0	10000	3	1	0	3	0
18	950	0	10000	3	1	0	3	0
18	951	0	10000	3	1	0	3	0
18	952	0	10000	3	1	0	3	0
17	953	0	10000	3	1	0	3	0
17	954	0	10000	3	1	0	3	0
17	955	0	10000	3	1	0	3	0
17	956	0	10000	3	1	0	3	0
15	957	0	10000	3	1	0	3	0
15	958	0	10000	3	1	0	3	0
16	959	0	10000	3	1	0	3	0
17	960	0	10000	3	1	0	3	0
16	961	0	10000	3	1	0	3	0
17	962	0	10000	3	1	0	3	0
18	963	0	10000	3	1	0	3	0
18	964	0	10000	3	1	0	3	0
17	965	0	10000	3	1	0	3	0
16	966	0	10000	3	1	0	3	0
17	967	0	10000	3	1	0	3	0
17	968	0	10000	3	1	0	3	0
16	969	0	10000	3	1	0	3	0
16	970	0	10000	3	1	0	3	0
16	971	0	10000	3	1	0	3	0
17	972	0	10000	3	1	0	3	0
17	973	0	10000	3	1	0	3	0
17	974	0	10000	3	1	0	3	0
18	975	0	10000	3	1	0	3	0
18	976	0	10000	3	1	0	3	0
18	977	0	10000	3	1	0	3	0
18	978	0	10000	3	1	0	3	0
18	979	0	10000	3	1	0	3	0
18	980	0	10000	3	1	0	3	0
18	981	0	10000	3	1	0	3	0
18	982	0	10000	3	1	0	3	0
18	983	0	10000	3	1	0	3	0
17	984	0	10000	3	1	0	3	0
17	985	0	10000	3	1	0	3	0
17	986	0	10000	3	1	0	3	0
17	987	0	10000	3	1	0	3	0
19	988	0	10000	3	1	0	3	0
18	989	0	10000	3	1	0	3	0
18	990	0	10000	3	1	0	3	0
18	991	0	10000	3	1	0	3	0
18	992	0	10000	3	1	0	3	0
18	993	0	10000	3	1	0	3	0
17	994	0	10000	3	1	0	3	0
17	995	0	10000	3	1	0	3	0
17	996	0	10000	3	1	0	3	0
17	997	0	10000	3	1	0	3	0
15	998	0	10000	3	1	0	3	0
16	999	0	10000	3	1	0	3	0
16	1000	0	10000	3	1	0	3	0
10	2	10	10000	4	1	0	4	0
10	3	10	10000	4	1	0	4	0
12	4	10	10000	4	1	0	4	0
13	5	10	10000	4	1	0	4	0
13	6	10	10000	4	1	0	4	0
13	7	10	10000	4	1	0	4	0
14	8	10	10000	4	1	0	4	0
15	9	10	10000	4	1	0	4	0
14	10	10	10000	4	1	0	4	0
14	11	10	10000	4	1	0	4	0
14	12	10	10000	4	1	0	4	0
15	13	10	10000	4	1	0	4	0
13	14	10	10000	4	1	0	4	0
12	15	10	10000	4	1	0	4	0
12	16	10	10000	4	1	0	4	0
13	17	10	10000	4	1	0	4	0
12	18	10	10000	4	1	0	4	0
13	19	10	10000	4	1	0	4	0
13	20	10	10000	4	1	0	4	0
12	21	10	10000	4	1	0	4	0
13	22	10	10000	4	1	0	4	0
12	23	10	10000	4	1	0	4	0
14	24	10	10000	4	1	0	4	0
14	25	10	10000	4	1	0	4	0
13	26	10	10000	4	1	0	4	0
14	27	10	10000	4	1	0	4	0
14	28	10	10000	4	1	0	4	0
14	29	10	10000	4	1	0	4	0
14	30	10	10000	4	1	0	4	0
14	31	10	10000	4	1	0	4	0
15	32	10	10000	4	1	0	4	0
16	33	10	10000	4	1	0	4	0
13	34	10	10000	4	1	0	4	0
12	35	10	10000	4	1	0	4	0
12	36	10	10000	4	1	0	4	0
13	37	10	10000	4	1	0	4	0
13	38	10	10000	4	1	0	4	0
14	39	10	10000	4	1	0	4	0
14	40	10	10000	4	1	0	4	0
13	41	10	10000	4	1	0	4	0
13	42	10	10000	4	1	0	4	0
13	43	10	10000	4	1	0	4	0
15	44	10	10000	4	1	0	4	0
14	45	10	10000	4	1	0	4	0
14	46	10	10000	4	1	0	4	0
14	47	10	10000	4	1	0	4	0
13	48	10	10000	4	1	0	4	0
13	49	10	10000	4	1	0	4	0
12	50	10	10000	4	1	0	4	0
13	51	10	10000	4	1	0	4	0
13	52	10	10000	4	1	0	4	0
14	53	10	10000	4	1	0	4	0
12	54	10	10000	4	1	0	4	0
13	55	10	10000	4	1	0	4	0
13	56	10	10000	4	1	0	4	0
13	57	10	10000	4	1	0	4	0
14	58	10	10000	4	1	0	4	0
13	59	10	10000	4	1	0	4	0
14	60	10	10000	4	1	0	4	0
16	61	10	10000	4	1	0	4	0
18	62	10	10000	4	1	0	4	0
22	63	10	10000	4	1	0	4	0
28	64	10	10000	4	1	0	4	0
31	65	10	10000	4	1	0	4	0
32	66	10	10000	4	1	0	4	0
32	67	10	10000	4	1	0	4	0
32	68	10	10000	4	1	0	4	0
34	69	10	10000	4	1	0	4	0
37	70	10	10000	4	1	0	4	0
39	71	10	10000	4	1	0	4	0
41	72	10	10000	4	1	0	4	0
41	73	10	10000	4	1	0	4	0
38	74	10	10000	4	1	0	4	0
37	75	10	10000	4	1	0	4	0
37	76	10	10000	4	1	0	4	0
36	77	10	10000	4	1	0	4	0
36	78	10	10000	4	1	0	4	0
38	79	10	10000	4	1	0	4	0
40	80	10	10000	4	1	0	4	0
43	81	10	10000	4	1	0	4	0
46	82	10	10000	4	1	0	4	0
47	83	10	10000	4	1	0	4	0
48	84	10	10000	4	1	0	4	0
46	85	10	10000	4	1	0	4	0
46	86	10	10000	4	1	0	4	0
43	87	10	10000	4	1	0	4	0
42	88	10	10000	4	1	0	4	0
41	89	10	10000	4	1	0	4	0
41	90	10	10000	4	1	0	4	0
41	91	10	10000	4	1	0	4	0
42	92	10	10000	4	1	0	4	0
42	93	10	10000	4	1	0	4	0
40	94	10	10000	4	1	0	4	0
38	95	10	10000	4	1	0	4	0
37	96	10	10000	4	1	0	4	0
38	97	10	10000	4	1	0	4	0
36	98	10	10000	4	1	0	4	0
35	99	10	10000	4	1	0	4	0
35	100	10	10000	4	1	0	4	0
32	101	10	10000	4	1	0	4	0
32	102	10	10000	4	1	0	4	0
32	103	10	10000	4	1	0	4	0
33	104	10	10000	4	1	0	4	0
34	105	10	10000	4	1	0	4	0
35	106	10	10000	4	1	0	4	0
33	107	10	10000	4	1	0	4	0
32	108	10	10000	4	1	0	4	0
31	109	10	10000	4	1	0	4	0
30	110	10	10000	4	1	0	4	0
30	111	10	10000	4	1	0	4	0
31	112	10	10000	4	1	0	4	0
32	113	10	10000	4	1	0	4	0
32	114	10	10000	4	1	0	4	0
34	115	10	10000	4	1	0	4	0
36	116	10	10000	4	1	0	4	0
38	117	10	10000	4	1	0	4	0
38	118	10	10000	4	1	0	4	0
37	119	10	10000	4	1	0	4	0
36	120	10	10000	4	1	0	4	0
35	121	10	10000	4	1	0	4	0
33	122	10	10000	4	1	0	4	0
32	123	10	10000	4	1	0	4	0
32	124	10	10000	4	1	0	4	0
32	125	10	10000	4	1	0	4	0
31	126	10	10000	4	1	0	4	0
30	127	10	10000	4	1	0	4	0
30	128	10	10000	4	1	0	4	0
29	129	10	10000	4	1	0	4	0
28	130	10	10000	4	1	0	4	0
27	131	10	10000	4	1	0	4	0
27	132	10	10000	4	1	0	4	0
29	133	10	10000	4	1	0	4	0
26	134	10	10000	4	1	0	4	0
27	135	10	10000	4	1	0	4	0
26	136	10	10000	4	1	0	4	0
25	137	10	10000	4	1	0	4	0
26	138	10	10000	4	1	0	4	0
29	139	10	10000	4	1	0	4	0
32	140	10	10000	4	1	0	4	0
34	141	10	10000	4	1	0	4	0
36	142	10	10000	4	1	0	4	0
36	143	10	10000	4	1	0	4	0
39	144	10	10000	4	1	0	4	0
41	145	10	10000	4	1	0	4	0
41	146	10	10000	4	1	0	4	0
40	147	10	10000	4	1	0	4	0
39	148	10	10000	4	1	0	4	0
37	149	10	10000	4	1	0	4	0
37	150	10	10000	4	1	0	4	0
35	151	10	10000	4	1	0	4	0
34	152	10	10000	4	1	0	4	0
33	153	10	10000	4	1	0	4	0
31	154	10	10000	4	1	0	4	0
29	155	10	10000	4	1	0	4	0
29	156	10	10000	4	1	0	4	0
28	157	10	10000	4	1	0	4	0
28	158	10	10000	4	1	0	4	0
28	159	10	10000	4	1	0	4	0
27	160	10	10000	4	1	0	4	0
27	161	10	10000	4	1	0	4	0
26	162	10	10000	4	1	0	4	0
24	163	10	10000	4	1	0	4	0
26	164	10	10000	4	1	0	4	0
25	165	10	10000	4	1	0	4	0
25	166	10	10000	4	1	0	4	0
26	167	10	10000	4	1	0	4	0
26	168	10	10000	4	1	0	4	0
26	169	10	10000	4	1	0	4	0
25	170	10	10000	4	1	0	4	0
25	171	10	10000	4	1	0	4	0
26	172	10	10000	4	1	0	4	0
26	173	10	10000	4	1	0	4	0
24	174	10	10000	4	1	0	4	0
24	175	10	10000	4	1	0	4	0
23	176	10	10000	4	1	0	4	0
23	177	10	10000	4	1	0	4	0
23	178	10	10000	4	1	0	4	0
24	179	10	10000	4	1	0	4	0
25	180	10	10000	4	1	0	4	0
25	181	10	10000	4	1	0	4	0
23	182	10	10000	4	1	0	4	0
23	183	10	10000	4	1	0	4	0
25	184	10	10000	4	1	0	4	0
25	185	10	10000	4	1	0	4	0
25	186	10	10000	4	1	0	4	0
24	187	10	10000	4	1	0	4	0
25	188	10	10000	4	1	0	4	0
25	189	10	10000	4	1	0	4	0
25	190	10	10000	4	1	0	4	0
25	191	10	10000	4	1	0	4	0
24	192	10	10000	4	1	0	4	0
24	193	10	10000	4	1	0	4	0
21	194	10	10000	4	1	0	4	0
21	195	10	10000	4	1	0	4	0
21	196	10	10000	4	1	0	4	0
22	197	10	10000	4	1	0	4	0
22	198	10	10000	4	1	0	4	0
23	199	10	10000	4	1	0	4	0
25	200	10	10000	4	1	0	4	0
25	201	10	10000	4	1	0	4	0
25	202	10	10000	4	1	0	4	0
26	203	10	10000	4	1	0	4	0
30	204	10	10000	4	1	0	4	0
30	205	10	10000	4	1	0	4	0
29	206	10	10000	4	1	0	4	0
31	207	10	10000	4	1	0	4	0
30	208	10	10000	4	1	0	4	0
30	209	10	10000	4	1	0	4	0
30	210	10	10000	4	1	0	4	0
32	211	10	10000	4	1	0	4	0
33	212	10	10000	4	1	0	4	0
32	213	10	10000	4	1	0	4	0
32	214	10	10000	4	1	0	4	0
34	215	10	10000	4	1	0	4	0
38	216	10	10000	4	1	0	4	0
42	217	10	10000	4	1	0	4	0
43	218	10	10000	4	1	0	4	0
42	219	10	10000	4	1	0	4	0
40	220	10	10000	4	1	0	4	0
40	221	10	10000	4	1	0	4	0
40	222	10	10000	4	1	0	4	0
38	223	10	10000	4	1	0	4	0
38	224	10	10000	4	1	0	4	0
39	225	10	10000	4	1	0	4	0
40	226	10	10000	4	1	0	4	0
42	227	10	10000	4	1	0	4	0
42	228	10	10000	4	1	0	4	0
41	229	10	10000	4	1	0	4	0
41	230	10	10000	4	1	0	4	0
44	231	10	10000	4	1	0	4	0
47	232	10	10000	4	1	0	4	0
50	233	10	10000	4	1	0	4	0
50	234	10	10000	4	1	0	4	0
50	235	10	10000	4	1	0	4	0
50	236	10	10000	4	1	0	4	0
51	237	10	10000	4	1	0	4	0
50	238	10	10000	4	1	0	4	0
48	239	10	10000	4	1	0	4	0
46	240	10	10000	4	1	0	4	0
44	241	10	10000	4	1	0	4	0
42	242	10	10000	4	1	0	4	0
41	243	10	10000	4	1	0	4	0
46	244	10	10000	4	1	0	4	0
48	245	10	10000	4	1	0	4	0
48	246	10	10000	4	1	0	4	0
46	247	10	10000	4	1	0	4	0
44	248	10	10000	4	1	0	4	0
43	249	10	10000	4	1	0	4	0
41	250	10	10000	4	1	0	4	0
42	251	10	10000	4	1	0	4	0
43	252	10	10000	4	1	0	4	0
45	253	10	10000	4	1	0	4	0
41	254	10	10000	4	1	0	4	0
44	255	10	10000	4	1	0	4	0
47	256	10	10000	4	1	0	4	0
46	257	10	10000	4	1	0	4	0
46	258	10	10000	4	1	0	4	0
45	259	10	10000	4	1	0	4	0
46	260	10	10000	4	1	0	4	0
46	261	10	10000	4	1	0	4	0
48	262	10	10000	4	1	0	4	0
47	263	10	10000	4	1	0	4	0
51	264	10	10000	4	1	0	4	0
59	265	10	10000	4	1	0	4	0
74	266	10	10000	4	1	0	4	0
80	267	10	10000	4	1	0	4	0
79	268	10	10000	4	1	0	4	0
84	269	10	10000	4	1	0	4	0
88	270	10	10000	4	1	0	4	0
94	271	10	10000	4	1	0	4	0
101	272	10	10000	4	1	0	4	0
107	273	10	10000	4	1	0	4	0
108	274	10	10000	4	1	0	4	0
108	275	10	10000	4	1	0	4	0
107	276	10	10000	4	1	0	4	0
103	277	10	10000	4	1	0	4	0
100	278	10	10000	4	1	0	4	0
96	279	10	10000	4	1	0	4	0
92	280	10	10000	4	1	0	4	0
88	281	10	10000	4	1	0	4	0
84	282	10	10000	4	1	0	4	0
79	283	10	10000	4	1	0	4	0
79	284	10	10000	4	1	0	4	0
76	285	10	10000	4	1	0	4	0
76	286	10	10000	4	1	0	4	0
79	287	10	10000	4	1	0	4	0
81	288	10	10000	4	1	0	4	0
85	289	10	10000	4	1	0	4	0
88	290	10	10000	4	1	0	4	0
87	291	10	10000	4	1	0	4	0
85	292	10	10000	4	1	0	4	0
81	293	10	10000	4	1	0	4	0
76	294	10	10000	4	1	0	4	0
73	295	10	10000	4	1	0	4	0
73	296	10	10000	4	1	0	4	0
72	297	10	10000	4	1	0	4	0
71	298	10	10000	4	1	0	4	0
69	299	10	10000	4	1	0	4	0
74	300	10	10000	4	1	0	4	0
79	301	10	10000	4	1	0	4	0
81	302	10	10000	4	1	0	4	0
80	303	10	10000	4	1	0	4	0
79	304	10	10000	4	1	0	4	0
76	305	10	10000	4	1	0	4	0
74	306	10	10000	4	1	0	4	0
73	307	10	10000	4	1	0	4	0
71	308	10	10000	4	1	0	4	0
68	309	10	10000	4	1	0	4	0
66	310	10	10000	4	1	0	4	0
65	311	10	10000	4	1	0	4	0
66	312	10	10000	4	1	0	4	0
65	313	10	10000	4	1	0	4	0
66	314	10	10000	4	1	0	4	0
68	315	10	10000	4	1	0	4	0
70	316	10	10000	4	1	0	4	0
69	317	10	10000	4	1	0	4	0
66	318	10	10000	4	1	0	4	0
66	319	10	10000	4	1	0	4	0
67	320	10	10000	4	1	0	4	0
66	321	10	10000	4	1	0	4	0
66	322	10	10000	4	1	0	4	0
64	323	10	10000	4	1	0	4	0
63	324	10	10000	4	1	0	4	0
61	325	10	10000	4	1	0	4	0
59	326	10	10000	4	1	0	4	0
57	327	10	10000	4	1	0	4	0
57	328	10	10000	4	1	0	4	0
59	329	10	10000	4	1	0	4	0
56	330	10	10000	4	1	0	4	0
56	331	10	10000	4	1	0	4	0
55	332	10	10000	4	1	0	4	0
53	333	10	10000	4	1	0	4	0
51	334	10	10000	4	1	0	4	0
51	335	10	10000	4	1	0	4	0
49	336	10	10000	4	1	0	4	0
49	337	10	10000	4	1	0	4	0
47	338	10	10000	4	1	0	4	0
46	339	10	10000	4	1	0	4	0
45	340	10	10000	4	1	0	4	0
49	341	10	10000	4	1	0	4	0
51	342	10	10000	4	1	0	4	0
51	343	10	10000	4	1	0	4	0
55	344	10	10000	4	1	0	4	0
54	345	10	10000	4	1	0	4	0
54	346	10	10000	4	1	0	4	0
55	347	10	10000	4	1	0	4	0
57	348	10	10000	4	1	0	4	0
55	349	10	10000	4	1	0	4	0
55	350	10	10000	4	1	0	4	0
56	351	10	10000	4	1	0	4	0
59	352	10	10000	4	1	0	4	0
61	353	10	10000	4	1	0	4	0
60	354	10	10000	4	1	0	4	0
63	355	10	10000	4	1	0	4	0
66	356	10	10000	4	1	0	4	0
67	357	10	10000	4	1	0	4	0
67	358	10	10000	4	1	0	4	0
66	359	10	10000	4	1	0	4	0
64	360	10	10000	4	1	0	4	0
64	361	10	10000	4	1	0	4	0
67	362	10	10000	4	1	0	4	0
71	363	10	10000	4	1	0	4	0
71	364	10	10000	4	1	0	4	0
69	365	10	10000	4	1	0	4	0
67	366	10	10000	4	1	0	4	0
67	367	10	10000	4	1	0	4	0
65	368	10	10000	4	1	0	4	0
63	369	10	10000	4	1	0	4	0
63	370	10	10000	4	1	0	4	0
65	371	10	10000	4	1	0	4	0
65	372	10	10000	4	1	0	4	0
63	373	10	10000	4	1	0	4	0
60	374	10	10000	4	1	0	4	0
61	375	10	10000	4	1	0	4	0
61	376	10	10000	4	1	0	4	0
59	377	10	10000	4	1	0	4	0
57	378	10	10000	4	1	0	4	0
56	379	10	10000	4	1	0	4	0
57	380	10	10000	4	1	0	4	0
55	381	10	10000	4	1	0	4	0
52	382	10	10000	4	1	0	4	0
49	383	10	10000	4	1	0	4	0
50	384	10	10000	4	1	0	4	0
47	385	10	10000	4	1	0	4	0
45	386	10	10000	4	1	0	4	0
47	387	10	10000	4	1	0	4	0
50	388	10	10000	4	1	0	4	0
53	389	10	10000	4	1	0	4	0
56	390	10	10000	4	1	0	4	0
57	391	10	10000	4	1	0	4	0
56	392	10	10000	4	1	0	4	0
57	393	10	10000	4	1	0	4	0
56	394	10	10000	4	1	0	4	0
56	395	10	10000	4	1	0	4	0
55	396	10	10000	4	1	0	4	0
54	397	10	10000	4	1	0	4	0
53	398	10	10000	4	1	0	4	0
53	399	10	10000	4	1	0	4	0
54	400	10	10000	4	1	0	4	0
54	401	10	10000	4	1	0	4	0
51	402	10	10000	4	1	0	4	0
48	403	10	10000	4	1	0	4	0
55	404	10	10000	4	1	0	4	0
57	405	10	10000	4	1	0	4	0
59	406	10	10000	4	1	0	4	0
60	407	10	10000	4	1	0	4	0
59	408	10	10000	4	1	0	4	0
59	409	10	10000	4	1	0	4	0
58	410	10	10000	4	1	0	4	0
57	411	10	10000	4	1	0	4	0
59	412	10	10000	4	1	0	4	0
60	413	10	10000	4	1	0	4	0
58	414	10	10000	4	1	0	4	0
58	415	10	10000	4	1	0	4	0
58	416	10	10000	4	1	0	4	0
56	417	10	10000	4	1	0	4	0
56	418	10	10000	4	1	0	4	0
54	419	10	10000	4	1	0	4	0
56	420	10	10000	4	1	0	4	0
56	421	10	10000	4	1	0	4	0
56	422	10	10000	4	1	0	4	0
53	423	10	10000	4	1	0	4	0
56	424	10	10000	4	1	0	4	0
56	425	10	10000	4	1	0	4	0
56	426	10	10000	4	1	0	4	0
54	427	10	10000	4	1	0	4	0
55	428	10	10000	4	1	0	4	0
57	429	10	10000	4	1	0	4	0
55	430	10	10000	4	1	0	4	0
56	431	10	10000	4	1	0	4	0
58	432	10	10000	4	1	0	4	0
61	433	10	10000	4	1	0	4	0
62	434	10	10000	4	1	0	4	0
61	435	10	10000	4	1	0	4	0
61	436	10	10000	4	1	0	4	0
58	437	10	10000	4	1	0	4	0
58	438	10	10000	4	1	0	4	0
56	439	10	10000	4	1	0	4	0
55	440	10	10000	4	1	0	4	0
54	441	10	10000	4	1	0	4	0
53	442	10	10000	4	1	0	4	0
52	443	10	10000	4	1	0	4	0
52	444	10	10000	4	1	0	4	0
51	445	10	10000	4	1	0	4	0
49	446	10	10000	4	1	0	4	0
47	447	10	10000	4	1	0	4	0
45	448	10	10000	4	1	0	4	0
44	449	10	10000	4	1	0	4	0
43	450	10	10000	4	1	0	4	0
42	451	10	10000	4	1	0	4	0
44	452	10	10000	4	1	0	4	0
44	453	10	10000	4	1	0	4	0
42	454	10	10000	4	1	0	4	0
46	455	10	10000	4	1	0	4	0
53	456	10	10000	4	1	0	4	0
60	457	10	10000	4	1	0	4	0
63	458	10	10000	4	1	0	4	0
61	459	10	10000	4	1	0	4	0
59	460	10	10000	4	1	0	4	0
58	461	10	10000	4	1	0	4	0
57	462	10	10000	4	1	0	4	0
55	463	10	10000	4	1	0	4	0
55	464	10	10000	4	1	0	4	0
55	465	10	10000	4	1	0	4	0
55	466	10	10000	4	1	0	4	0
53	467	10	10000	4	1	0	4	0
54	468	10	10000	4	1	0	4	0
59	469	10	10000	4	1	0	4	0
60	470	10	10000	4	1	0	4	0
62	471	10	10000	4	1	0	4	0
65	472	10	10000	4	1	0	4	0
66	473	10	10000	4	1	0	4	0
62	474	10	10000	4	1	0	4	0
61	475	10	10000	4	1	0	4	0
61	476	10	10000	4	1	0	4	0
67	477	10	10000	4	1	0	4	0
71	478	10	10000	4	1	0	4	0
73	479	10	10000	4	1	0	4	0
75	480	10	10000	4	1	0	4	0
79	481	10	10000	4	1	0	4	0
77	482	10	10000	4	1	0	4	0
75	483	10	10000	4	1	0	4	0
79	484	10	10000	4	1	0	4	0
82	485	10	10000	4	1	0	4	0
85	486	10	10000	4	1	0	4	0
84	487	10	10000	4	1	0	4	0
82	488	10	10000	4	1	0	4	0
79	489	10	10000	4	1	0	4	0
80	490	10	10000	4	1	0	4	0
88	491	10	10000	4	1	0	4	0
88	492	10	10000	4	1	0	4	0
92	493	10	10000	4	1	0	4	0
92	494	10	10000	4	1	0	4	0
92	495	10	10000	4	1	0	4	0
89	496	10	10000	4	1	0	4	0
89	497	10	10000	4	1	0	4	0
92	498	10	10000	4	1	0	4	0
95	499	10	10000	4	1	0	4	0
98	500	10	10000	4	1	0	4	0
95	501	10	10000	4	1	0	4	0
98	501	10	10000	4	1	0	4	1
100	502	10	10000	4	1	0	4	1
99	504	10	10000	4	1	0	4	1
95	505	10	10000	4	1	0	4	1
91	506	10	10000	4	1	0	4	1
87	507	10	10000	4	1	0	4	1
89	508	10	10000	4	1	0	4	1
92	509	10	10000	4	1	0	4	1
91	510	10	10000	4	1	0	4	1
90	511	10	10000	4	1	0	4	1
95	512	10	10000	4	1	0	4	1
96	513	10	10000	4	1	0	4	1
95	514	10	10000	4	1	0	4	1
102	515	10	10000	4	1	0	4	1
102	516	10	10000	4	1	0	4	1
99	517	10	10000	4	1	0	4	1
97	518	10	10000	4	1	0	4	1
97	519	10	10000	4	1	0	4	1
97	520	10	10000	4	1	0	4	1
97	521	10	10000	4	1	0	4	1
97	522	10	10000	4	1	0	4	1
95	523	10	10000	4	1	0	4	1
97	524	10	10000	4	1	0	4	1
98	525	10	10000	4	1	0	4	1
93	526	10	10000	4	1	0	4	1
90	527	10	10000	4	1	0	4	1
87	528	10	10000	4	1	0	4	1
85	529	10	10000	4	1	0	4	1
88	530	10	10000	4	1	0	4	1
95	531	10	10000	4	1	0	4	1
94	532	10	10000	4	1	0	4	1
90	533	10	10000	4	1	0	4	1
85	534	10	10000	4	1	0	4	1
85	535	10	10000	4	1	0	4	1
86	536	10	10000	4	1	0	4	1
85	537	10	10000	4	1	0	4	1
83	538	10	10000	4	1	0	4	1
84	539	10	10000	4	1	0	4	1
83	540	10	10000	4	1	0	4	1
88	541	10	10000	4	1	0	4	1
96	542	10	10000	4	1	0	4	1
103	543	10	10000	4	1	0	4	1
107	544	10	10000	4	1	0	4	1
104	545	10	10000	4	1	0	4	1
100	546	10	10000	4	1	0	4	1
96	547	10	10000	4	1	0	4	1
94	548	10	10000	4	1	0	4	1
94	549	10	10000	4	1	0	4	1
98	550	10	10000	4	1	0	4	1
100	551	10	10000	4	1	0	4	1
97	552	10	10000	4	1	0	4	0
97	553	10	10000	4	1	0	4	0
96	554	10	10000	4	1	0	4	0
96	555	10	10000	4	1	0	4	0
94	556	10	10000	4	1	0	4	0
92	557	10	10000	4	1	0	4	0
88	558	10	10000	4	1	0	4	0
85	559	10	10000	4	1	0	4	0
86	560	10	10000	4	1	0	4	0
94	561	10	10000	4	1	0	4	0
95	562	10	10000	4	1	0	4	0
93	563	10	10000	4	1	0	4	0
101	564	10	10000	4	1	0	4	0
101	565	10	10000	4	1	0	4	0
104	566	10	10000	4	1	0	4	0
102	567	10	10000	4	1	0	4	0
103	568	10	10000	4	1	0	4	0
106	569	10	10000	4	1	0	4	0
105	570	10	10000	4	1	0	4	0
103	571	10	10000	4	1	0	4	0
103	572	10	10000	4	1	0	4	0
103	573	10	10000	4	1	0	4	0
98	574	10	10000	4	1	0	4	0
94	575	10	10000	4	1	0	4	0
92	576	10	10000	4	1	0	4	0
88	577	10	10000	4	1	0	4	0
85	578	10	10000	4	1	0	4	0
81	579	10	10000	4	1	0	4	0
80	580	10	10000	4	1	0	4	0
78	581	10	10000	4	1	0	4	0
76	582	10	10000	4	1	0	4	0
72	583	10	10000	4	1	0	4	0
71	584	10	10000	4	1	0	4	0
75	585	10	10000	4	1	0	4	0
85	586	10	10000	4	1	0	4	0
90	587	10	10000	4	1	0	4	0
87	588	10	10000	4	1	0	4	0
83	589	10	10000	4	1	0	4	0
83	590	10	10000	4	1	0	4	0
85	591	10	10000	4	1	0	4	0
84	592	10	10000	4	1	0	4	0
84	593	10	10000	4	1	0	4	0
85	594	10	10000	4	1	0	4	0
83	595	10	10000	4	1	0	4	0
82	596	10	10000	4	1	0	4	0
84	597	10	10000	4	1	0	4	0
86	598	10	10000	4	1	0	4	0
83	599	10	10000	4	1	0	4	0
80	600	10	10000	4	1	0	4	0
78	601	10	10000	4	1	0	4	0
80	602	10	10000	4	1	0	4	0
86	603	10	10000	4	1	0	4	0
86	604	10	10000	4	1	0	4	0
87	605	10	10000	4	1	0	4	0
84	606	10	10000	4	1	0	4	0
85	607	10	10000	4	1	0	4	0
85	608	10	10000	4	1	0	4	0
88	609	10	10000	4	1	0	4	0
87	610	10	10000	4	1	0	4	0
93	611	10	10000	4	1	0	4	0
98	612	10	10000	4	1	0	4	0
95	613	10	10000	4	1	0	4	0
92	614	10	10000	4	1	0	4	0
91	615	10	10000	4	1	0	4	0
88	616	10	10000	4	1	0	4	0
87	617	10	10000	4	1	0	4	0
90	618	10	10000	4	1	0	4	0
92	619	10	10000	4	1	0	4	0
91	620	10	10000	4	1	0	4	0
88	621	10	10000	4	1	0	4	0
86	622	10	10000	4	1	0	4	0
86	623	10	10000	4	1	0	4	0
84	624	10	10000	4	1	0	4	0
80	625	10	10000	4	1	0	4	0
80	626	10	10000	4	1	0	4	0
83	627	10	10000	4	1	0	4	0
90	628	10	10000	4	1	0	4	0
95	629	10	10000	4	1	0	4	0
98	630	10	10000	4	1	0	4	0
101	631	10	10000	4	1	0	4	0
104	632	10	10000	4	1	0	4	0
105	633	10	10000	4	1	0	4	0
103	634	10	10000	4	1	0	4	0
101	635	10	10000	4	1	0	4	0
97	636	10	10000	4	1	0	4	0
98	637	10	10000	4	1	0	4	0
102	638	10	10000	4	1	0	4	0
104	639	10	10000	4	1	0	4	0
102	640	10	10000	4	1	0	4	0
97	641	10	10000	4	1	0	4	0
97	642	10	10000	4	1	0	4	0
97	643	10	10000	4	1	0	4	0
100	644	10	10000	4	1	0	4	0
100	645	10	10000	4	1	0	4	0
100	646	10	10000	4	1	0	4	0
104	647	10	10000	4	1	0	4	0
104	648	10	10000	4	1	0	4	0
105	649	10	10000	4	1	0	4	0
106	650	10	10000	4	1	0	4	0
109	651	10	10000	4	1	0	4	0
110	652	10	10000	4	1	0	4	0
109	653	10	10000	4	1	0	4	0
106	654	10	10000	4	1	0	4	0
106	655	10	10000	4	1	0	4	0
105	656	10	10000	4	1	0	4	0
106	657	10	10000	4	1	0	4	0
108	658	10	10000	4	1	0	4	0
111	659	10	10000	4	1	0	4	0
114	660	10	10000	4	1	0	4	0
113	661	10	10000	4	1	0	4	0
109	662	10	10000	4	1	0	4	0
104	663	10	10000	4	1	0	4	0
102	664	10	10000	4	1	0	4	0
99	665	10	10000	4	1	0	4	0
94	666	10	10000	4	1	0	4	0
91	667	10	10000	4	1	0	4	0
87	668	10	10000	4	1	0	4	0
85	669	10	10000	4	1	0	4	0
85	670	10	10000	4	1	0	4	0
86	671	10	10000	4	1	0	4	0
85	672	10	10000	4	1	0	4	0
81	673	10	10000	4	1	0	4	0
77	674	10	10000	4	1	0	4	0
75	675	10	10000	4	1	0	4	0
73	676	10	10000	4	1	0	4	0
71	677	10	10000	4	1	0	4	0
71	678	10	10000	4	1	0	4	0
73	679	10	10000	4	1	0	4	0
75	680	10	10000	4	1	0	4	0
77	681	10	10000	4	1	0	4	0
78	682	10	10000	4	1	0	4	0
77	683	10	10000	4	1	0	4	0
79	684	10	10000	4	1	0	4	0
80	685	10	10000	4	1	0	4	0
80	686	10	10000	4	1	0	4	0
83	687	10	10000	4	1	0	4	0
88	688	10	10000	4	1	0	4	0
91	689	10	10000	4	1	0	4	0
97	690	10	10000	4	1	0	4	0
101	691	10	10000	4	1	0	4	0
103	692	10	10000	4	1	0	4	0
103	693	10	10000	4	1	0	4	0
98	694	10	10000	4	1	0	4	0
95	695	10	10000	4	1	0	4	0
93	696	10	10000	4	1	0	4	0
90	697	10	10000	4	1	0	4	0
88	698	10	10000	4	1	0	4	0
88	699	10	10000	4	1	0	4	0
90	700	10	10000	4	1	0	4	0
94	701	10	10000	4	1	0	4	0
96	702	10	10000	4	1	0	4	0
101	703	10	10000	4	1	0	4	0
107	704	10	10000	4	1	0	4	0
107	705	10	10000	4	1	0	4	0
107	706	10	10000	4	1	0	4	0
105	707	10	10000	4	1	0	4	0
104	708	10	10000	4	1	0	4	0
106	709	10	10000	4	1	0	4	0
111	710	10	10000	4	1	0	4	0
115	711	10	10000	4	1	0	4	0
117	712	10	10000	4	1	0	4	0
119	713	10	10000	4	1	0	4	0
117	714	10	10000	4	1	0	4	0
116	715	10	10000	4	1	0	4	0
112	716	10	10000	4	1	0	4	0
110	717	10	10000	4	1	0	4	0
106	718	10	10000	4	1	0	4	0
104	719	10	10000	4	1	0	4	0
102	720	10	10000	4	1	0	4	0
99	721	10	10000	4	1	0	4	0
97	722	10	10000	4	1	0	4	0
96	723	10	10000	4	1	0	4	0
97	724	10	10000	4	1	0	4	0
96	725	10	10000	4	1	0	4	0
94	726	10	10000	4	1	0	4	0
92	727	10	10000	4	1	0	4	0
91	728	10	10000	4	1	0	4	0
90	729	10	10000	4	1	0	4	0
88	730	10	10000	4	1	0	4	0
87	731	10	10000	4	1	0	4	0
85	732	10	10000	4	1	0	4	0
82	733	10	10000	4	1	0	4	0
76	734	10	10000	4	1	0	4	0
75	735	10	10000	4	1	0	4	0
73	736	10	10000	4	1	0	4	0
72	737	10	10000	4	1	0	4	0
69	738	10	10000	4	1	0	4	0
67	739	10	10000	4	1	0	4	0
67	740	10	10000	4	1	0	4	0
65	741	10	10000	4	1	0	4	0
66	742	10	10000	4	1	0	4	0
68	743	10	10000	4	1	0	4	0
71	744	10	10000	4	1	0	4	0
71	745	10	10000	4	1	0	4	0
71	746	10	10000	4	1	0	4	0
70	747	10	10000	4	1	0	4	0
68	748	10	10000	4	1	0	4	0
68	749	10	10000	4	1	0	4	0
67	750	10	10000	4	1	0	4	0
66	751	10	10000	4	1	0	4	0
63	752	10	10000	4	1	0	4	0
62	753	10	10000	4	1	0	4	0
59	754	10	10000	4	1	0	4	0
55	755	10	10000	4	1	0	4	0
56	756	10	10000	4	1	0	4	0
56	757	10	10000	4	1	0	4	0
56	758	10	10000	4	1	0	4	0
55	759	10	10000	4	1	0	4	0
54	760	10	10000	4	1	0	4	0
52	761	10	10000	4	1	0	4	0
50	762	10	10000	4	1	0	4	0
48	763	10	10000	4	1	0	4	0
49	764	10	10000	4	1	0	4	0
47	765	10	10000	4	1	0	4	0
45	766	10	10000	4	1	0	4	0
44	767	10	10000	4	1	0	4	0
44	768	10	10000	4	1	0	4	0
44	769	10	10000	4	1	0	4	0
43	770	10	10000	4	1	0	4	0
45	771	10	10000	4	1	0	4	0
46	772	10	10000	4	1	0	4	0
46	773	10	10000	4	1	0	4	0
45	774	10	10000	4	1	0	4	0
45	775	10	10000	4	1	0	4	0
45	776	10	10000	4	1	0	4	0
44	777	10	10000	4	1	0	4	0
45	778	10	10000	4	1	0	4	0
46	779	10	10000	4	1	0	4	0
46	780	10	10000	4	1	0	4	0
45	781	10	10000	4	1	0	4	0
43	782	10	10000	4	1	0	4	0
41	783	10	10000	4	1	0	4	0
42	784	10	10000	4	1	0	4	0
41	785	10	10000	4	1	0	4	0
40	786	10	10000	4	1	0	4	0
38	787	10	10000	4	1	0	4	0
37	788	10	10000	4	1	0	4	0
37	789	10	10000	4	1	0	4	0
38	790	10	10000	4	1	0	4	0
41	791	10	10000	4	1	0	4	0
43	792	10	10000	4	1	0	4	0
46	793	10	10000	4	1	0	4	0
44	794	10	10000	4	1	0	4	0
43	795	10	10000	4	1	0	4	0
42	796	10	10000	4	1	0	4	0
44	797	10	10000	4	1	0	4	0
45	798	10	10000	4	1	0	4	0
47	799	10	10000	4	1	0	4	0
48	800	10	10000	4	1	0	4	0
49	801	10	10000	4	1	0	4	0
49	802	10	10000	4	1	0	4	0
49	803	10	10000	4	1	0	4	0
52	804	10	10000	4	1	0	4	0
49	805	10	10000	4	1	0	4	0
48	806	10	10000	4	1	0	4	0
47	807	10	10000	4	1	0	4	0
47	808	10	10000	4	1	0	4	0
45	809	10	10000	4	1	0	4	0
46	810	10	10000	4	1	0	4	0
47	811	10	10000	4	1	0	4	0
50	812	10	10000	4	1	0	4	0
54	813	10	10000	4	1	0	4	0
54	814	10	10000	4	1	0	4	0
56	815	10	10000	4	1	0	4	0
57	816	10	10000	4	1	0	4	0
59	817	10	10000	4	1	0	4	0
62	818	10	10000	4	1	0	4	0
60	819	10	10000	4	1	0	4	0
59	820	10	10000	4	1	0	4	0
58	821	10	10000	4	1	0	4	0
58	822	10	10000	4	1	0	4	0
60	823	10	10000	4	1	0	4	0
64	824	10	10000	4	1	0	4	0
65	825	10	10000	4	1	0	4	0
67	826	10	10000	4	1	0	4	0
67	827	10	10000	4	1	0	4	0
68	828	10	10000	4	1	0	4	0
65	829	10	10000	4	1	0	4	0
61	830	10	10000	4	1	0	4	0
61	831	10	10000	4	1	0	4	0
60	832	10	10000	4	1	0	4	0
61	833	10	10000	4	1	0	4	0
59	834	10	10000	4	1	0	4	0
60	835	10	10000	4	1	0	4	0
61	836	10	10000	4	1	0	4	0
61	837	10	10000	4	1	0	4	0
62	838	10	10000	4	1	0	4	0
63	839	10	10000	4	1	0	4	0
64	840	10	10000	4	1	0	4	0
64	841	10	10000	4	1	0	4	0
63	842	10	10000	4	1	0	4	0
63	843	10	10000	4	1	0	4	0
63	844	10	10000	4	1	0	4	0
60	845	10	10000	4	1	0	4	0
58	846	10	10000	4	1	0	4	0
57	847	10	10000	4	1	0	4	0
55	848	10	10000	4	1	0	4	0
52	849	10	10000	4	1	0	4	0
51	850	10	10000	4	1	0	4	0
49	851	10	10000	4	1	0	4	0
48	852	10	10000	4	1	0	4	0
48	853	10	10000	4	1	0	4	0
45	854	10	10000	4	1	0	4	0
43	855	10	10000	4	1	0	4	0
43	856	10	10000	4	1	0	4	0
43	857	10	10000	4	1	0	4	0
46	858	10	10000	4	1	0	4	0
49	859	10	10000	4	1	0	4	0
51	860	10	10000	4	1	0	4	0
53	861	10	10000	4	1	0	4	0
52	862	10	10000	4	1	0	4	0
53	863	10	10000	4	1	0	4	0
54	864	10	10000	4	1	0	4	0
52	865	10	10000	4	1	0	4	0
51	866	10	10000	4	1	0	4	0
49	867	10	10000	4	1	0	4	0
49	868	10	10000	4	1	0	4	0
47	869	10	10000	4	1	0	4	0
45	870	10	10000	4	1	0	4	0
45	871	10	10000	4	1	0	4	0
44	872	10	10000	4	1	0	4	0
44	873	10	10000	4	1	0	4	0
40	874	10	10000	4	1	0	4	0
39	875	10	10000	4	1	0	4	0
38	876	10	10000	4	1	0	4	0
37	877	10	10000	4	1	0	4	0
36	878	10	10000	4	1	0	4	0
36	879	10	10000	4	1	0	4	0
35	880	10	10000	4	1	0	4	0
36	881	10	10000	4	1	0	4	0
38	882	10	10000	4	1	0	4	0
38	883	10	10000	4	1	0	4	0
40	884	10	10000	4	1	0	4	0
39	885	10	10000	4	1	0	4	0
37	886	10	10000	4	1	0	4	0
36	887	10	10000	4	1	0	4	0
35	888	10	10000	4	1	0	4	0
35	889	10	10000	4	1	0	4	0
36	890	10	10000	4	1	0	4	0
39	891	10	10000	4	1	0	4	0
40	892	10	10000	4	1	0	4	0
42	893	10	10000	4	1	0	4	0
40	894	10	10000	4	1	0	4	0
40	895	10	10000	4	1	0	4	0
41	896	10	10000	4	1	0	4	0
39	897	10	10000	4	1	0	4	0
38	898	10	10000	4	1	0	4	0
37	899	10	10000	4	1	0	4	0
36	900	10	10000	4	1	0	4	0
34	901	10	10000	4	1	0	4	0
33	902	10	10000	4	1	0	4	0
32	903	10	10000	4	1	0	4	0
32	904	10	10000	4	1	0	4	0
31	905	10	10000	4	1	0	4	0
30	906	10	10000	4	1	0	4	0
30	907	10	10000	4	1	0	4	0
29	908	10	10000	4	1	0	4	0
28	909	10	10000	4	1	0	4	0
27	910	10	10000	4	1	0	4	0
27	911	10	10000	4	1	0	4	0
27	912	10	10000	4	1	0	4	0
26	913	10	10000	4	1	0	4	0
24	914	10	10000	4	1	0	4	0
24	915	10	10000	4	1	0	4	0
24	916	10	10000	4	1	0	4	0
27	917	10	10000	4	1	0	4	0
29	918	10	10000	4	1	0	4	0
30	919	10	10000	4	1	0	4	0
30	920	10	10000	4	1	0	4	0
30	921	10	10000	4	1	0	4	0
30	922	10	10000	4	1	0	4	0
28	923	10	10000	4	1	0	4	0
31	924	10	10000	4	1	0	4	0
31	925	10	10000	4	1	0	4	0
29	926	10	10000	4	1	0	4	0
28	927	10	10000	4	1	0	4	0
29	928	10	10000	4	1	0	4	0
28	929	10	10000	4	1	0	4	0
26	930	10	10000	4	1	0	4	0
27	931	10	10000	4	1	0	4	0
31	932	10	10000	4	1	0	4	0
36	933	10	10000	4	1	0	4	0
38	934	10	10000	4	1	0	4	0
39	935	10	10000	4	1	0	4	0
39	936	10	10000	4	1	0	4	0
38	937	10	10000	4	1	0	4	0
37	938	10	10000	4	1	0	4	0
35	939	10	10000	4	1	0	4	0
35	940	10	10000	4	1	0	4	0
35	941	10	10000	4	1	0	4	0
35	942	10	10000	4	1	0	4	0
35	943	10	10000	4	1	0	4	0
36	944	10	10000	4	1	0	4	0
34	945	10	10000	4	1	0	4	0
34	946	10	10000	4	1	0	4	0
36	947	10	10000	4	1	0	4	0
37	948	10	10000	4	1	0	4	0
38	949	10	10000	4	1	0	4	0
37	950	10	10000	4	1	0	4	0
36	951	10	10000	4	1	0	4	0
36	952	10	10000	4	1	0	4	0
36	953	10	10000	4	1	0	4	0
34	954	10	10000	4	1	0	4	0
34	955	10	10000	4	1	0	4	0
34	956	10	10000	4	1	0	4	0
34	957	10	10000	4	1	0	4	0
34	958	10	10000	4	1	0	4	0
34	959	10	10000	4	1	0	4	0
34	960	10	10000	4	1	0	4	0
33	961	10	10000	4	1	0	4	0
33	962	10	10000	4	1	0	4	0
32	963	10	10000	4	1	0	4	0
34	964	10	10000	4	1	0	4	0
34	965	10	10000	4	1	0	4	0
33	966	10	10000	4	1	0	4	0
33	967	10	10000	4	1	0	4	0
35	968	10	10000	4	1	0	4	0
37	969	10	10000	4	1	0	4	0
38	970	10	10000	4	1	0	4	0
39	971	10	10000	4	1	0	4	0
38	972	10	10000	4	1	0	4	0
37	973	10	10000	4	1	0	4	0
35	974	10	10000	4	1	0	4	0
33	975	10	10000	4	1	0	4	0
33	976	10	10000	4	1	0	4	0
32	977	10	10000	4	1	0	4	0
31	978	10	10000	4	1	0	4	0
31	979	10	10000	4	1	0	4	0
30	980	10	10000	4	1	0	4	0
30	981	10	10000	4	1	0	4	0
29	982	10	10000	4	1	0	4	0
29	983	10	10000	4	1	0	4	0
32	984	10	10000	4	1	0	4	0
34	985	10	10000	4	1	0	4	0
35	986	10	10000	4	1	0	4	0
35	987	10	10000	4	1	0	4	0
35	988	10	10000	4	1	0	4	0
34	989	10	10000	4	1	0	4	0
34	990	10	10000	4	1	0	4	0
34	991	10	10000	4	1	0	4	0
34	992	10	10000	4	1	0	4	0
34	993	10	10000	4	1	0	4	0
31	994	10	10000	4	1	0	4	0
31	995	10	10000	4	1	0	4	0
33	996	10	10000	4	1	0	4	0
40	997	10	10000	4	1	0	4	0
46	998	10	10000	4	1	0	4	0
52	999	10	10000	4	1	0	4	0
56	1000	10	10000	4	1	0	4	0
56	1001	10	10000	4	1	0	4	0
56	2	0	10000	5	1	0	5	0
54	3	0	10000	5	1	0	5	0
55	4	0	10000	5	1	0	5	0
55	5	0	10000	5	1	0	5	0
54	6	0	10000	5	1	0	5	0
55	7	0	10000	5	1	0	5	0
55	8	0	10000	5	1	0	5	0
54	9	0	10000	5	1	0	5	0
55	10	0	10000	5	1	0	5	0
54	11	0	10000	5	1	0	5	0
54	12	0	10000	5	1	0	5	0
56	13	0	10000	5	1	0	5	0
55	14	0	10000	5	1	0	5	0
56	15	0	10000	5	1	0	5	0
54	16	0	10000	5	1	0	5	0
56	17	0	10000	5	1	0	5	0
55	18	0	10000	5	1	0	5	0
56	19	0	10000	5	1	0	5	0
56	20	0	10000	5	1	0	5	0
56	21	0	10000	5	1	0	5	0
56	22	0	10000	5	1	0	5	0
55	23	0	10000	5	1	0	5	0
55	24	0	10000	5	1	0	5	0
56	25	0	10000	5	1	0	5	0
56	26	0	10000	5	1	0	5	0
56	27	0	10000	5	1	0	5	0
57	28	0	10000	5	1	0	5	0
57	29	0	10000	5	1	0	5	0
56	30	0	10000	5	1	0	5	0
55	31	0	10000	5	1	0	5	0
56	32	0	10000	5	1	0	5	0
58	33	0	10000	5	1	0	5	0
56	34	0	10000	5	1	0	5	0
57	35	0	10000	5	1	0	5	0
56	36	0	10000	5	1	0	5	0
56	37	0	10000	5	1	0	5	0
56	38	0	10000	5	1	0	5	0
56	39	0	10000	5	1	0	5	0
57	40	0	10000	5	1	0	5	0
57	41	0	10000	5	1	0	5	0
57	42	0	10000	5	1	0	5	0
56	43	0	10000	5	1	0	5	0
55	44	0	10000	5	1	0	5	0
56	45	0	10000	5	1	0	5	0
56	46	0	10000	5	1	0	5	0
56	47	0	10000	5	1	0	5	0
56	48	0	10000	5	1	0	5	0
56	49	0	10000	5	1	0	5	0
56	50	0	10000	5	1	0	5	0
55	51	0	10000	5	1	0	5	0
56	52	0	10000	5	1	0	5	0
57	53	0	10000	5	1	0	5	0
56	54	0	10000	5	1	0	5	0
57	55	0	10000	5	1	0	5	0
57	56	0	10000	5	1	0	5	0
57	57	0	10000	5	1	0	5	0
57	58	0	10000	5	1	0	5	0
57	59	0	10000	5	1	0	5	0
59	60	0	10000	5	1	0	5	0
59	61	0	10000	5	1	0	5	0
58	62	0	10000	5	1	0	5	0
57	63	0	10000	5	1	0	5	0
56	64	0	10000	5	1	0	5	0
57	65	0	10000	5	1	0	5	0
57	66	0	10000	5	1	0	5	0
57	67	0	10000	5	1	0	5	0
60	68	0	10000	5	1	0	5	0
60	69	0	10000	5	1	0	5	0
60	70	0	10000	5	1	0	5	0
58	71	0	10000	5	1	0	5	0
61	72	0	10000	5	1	0	5	0
61	73	0	10000	5	1	0	5	0
64	74	0	10000	5	1	0	5	0
64	75	0	10000	5	1	0	5	0
64	76	0	10000	5	1	0	5	0
64	77	0	10000	5	1	0	5	0
65	78	0	10000	5	1	0	5	0
64	79	0	10000	5	1	0	5	0
67	80	0	10000	5	1	0	5	0
66	81	0	10000	5	1	0	5	0
66	82	0	10000	5	1	0	5	0
64	83	0	10000	5	1	0	5	0
64	84	0	10000	5	1	0	5	0
66	85	0	10000	5	1	0	5	0
64	86	0	10000	5	1	0	5	0
66	87	0	10000	5	1	0	5	0
65	88	0	10000	5	1	0	5	0
65	89	0	10000	5	1	0	5	0
63	90	0	10000	5	1	0	5	0
62	91	0	10000	5	1	0	5	0
63	92	0	10000	5	1	0	5	0
65	93	0	10000	5	1	0	5	0
64	94	0	10000	5	1	0	5	0
67	95	0	10000	5	1	0	5	0
67	96	0	10000	5	1	0	5	0
68	97	0	10000	5	1	0	5	0
65	98	0	10000	5	1	0	5	0
68	99	0	10000	5	1	0	5	0
67	100	0	10000	5	1	0	5	0
68	101	0	10000	5	1	0	5	0
67	102	0	10000	5	1	0	5	0
64	103	0	10000	5	1	0	5	0
64	104	0	10000	5	1	0	5	0
66	105	0	10000	5	1	0	5	0
66	106	0	10000	5	1	0	5	0
66	107	0	10000	5	1	0	5	0
67	108	0	10000	5	1	0	5	0
67	109	0	10000	5	1	0	5	0
67	110	0	10000	5	1	0	5	0
66	111	0	10000	5	1	0	5	0
66	112	0	10000	5	1	0	5	0
67	113	0	10000	5	1	0	5	0
66	114	0	10000	5	1	0	5	0
64	115	0	10000	5	1	0	5	0
64	116	0	10000	5	1	0	5	0
64	117	0	10000	5	1	0	5	0
66	118	0	10000	5	1	0	5	0
66	119	0	10000	5	1	0	5	0
67	120	0	10000	5	1	0	5	0
66	121	0	10000	5	1	0	5	0
65	122	0	10000	5	1	0	5	0
63	123	0	10000	5	1	0	5	0
64	124	0	10000	5	1	0	5	0
67	125	0	10000	5	1	0	5	0
68	126	0	10000	5	1	0	5	0
76	127	0	10000	5	1	0	5	0
82	128	0	10000	5	1	0	5	0
82	129	0	10000	5	1	0	5	0
83	130	0	10000	5	1	0	5	0
82	131	0	10000	5	1	0	5	0
81	132	0	10000	5	1	0	5	0
84	133	0	10000	5	1	0	5	0
83	134	0	10000	5	1	0	5	0
85	135	0	10000	5	1	0	5	0
82	136	0	10000	5	1	0	5	0
81	137	0	10000	5	1	0	5	0
84	138	0	10000	5	1	0	5	0
83	139	0	10000	5	1	0	5	0
83	140	0	10000	5	1	0	5	0
81	141	0	10000	5	1	0	5	0
79	142	0	10000	5	1	0	5	0
78	143	0	10000	5	1	0	5	0
81	144	0	10000	5	1	0	5	0
80	145	0	10000	5	1	0	5	0
80	146	0	10000	5	1	0	5	0
85	147	0	10000	5	1	0	5	0
85	148	0	10000	5	1	0	5	0
84	149	0	10000	5	1	0	5	0
82	150	0	10000	5	1	0	5	0
80	151	0	10000	5	1	0	5	0
80	152	0	10000	5	1	0	5	0
81	153	0	10000	5	1	0	5	0
83	154	0	10000	5	1	0	5	0
86	155	0	10000	5	1	0	5	0
83	156	0	10000	5	1	0	5	0
84	157	0	10000	5	1	0	5	0
83	158	0	10000	5	1	0	5	0
83	159	0	10000	5	1	0	5	0
81	160	0	10000	5	1	0	5	0
82	161	0	10000	5	1	0	5	0
79	162	0	10000	5	1	0	5	0
78	163	0	10000	5	1	0	5	0
79	164	0	10000	5	1	0	5	0
84	165	0	10000	5	1	0	5	0
83	166	0	10000	5	1	0	5	0
81	167	0	10000	5	1	0	5	0
81	168	0	10000	5	1	0	5	0
82	169	0	10000	5	1	0	5	0
84	170	0	10000	5	1	0	5	0
90	171	0	10000	5	1	0	5	0
92	172	0	10000	5	1	0	5	0
94	173	0	10000	5	1	0	5	0
92	174	0	10000	5	1	0	5	0
92	175	0	10000	5	1	0	5	0
91	176	0	10000	5	1	0	5	0
94	177	0	10000	5	1	0	5	0
95	178	0	10000	5	1	0	5	0
96	179	0	10000	5	1	0	5	0
93	180	0	10000	5	1	0	5	0
96	181	0	10000	5	1	0	5	0
92	182	0	10000	5	1	0	5	0
91	183	0	10000	5	1	0	5	0
91	184	0	10000	5	1	0	5	0
90	185	0	10000	5	1	0	5	0
90	186	0	10000	5	1	0	5	0
89	187	0	10000	5	1	0	5	0
87	188	0	10000	5	1	0	5	0
86	189	0	10000	5	1	0	5	0
84	190	0	10000	5	1	0	5	0
83	191	0	10000	5	1	0	5	0
80	192	0	10000	5	1	0	5	0
82	193	0	10000	5	1	0	5	0
82	194	0	10000	5	1	0	5	0
81	195	0	10000	5	1	0	5	0
80	196	0	10000	5	1	0	5	0
81	197	0	10000	5	1	0	5	0
80	198	0	10000	5	1	0	5	0
79	199	0	10000	5	1	0	5	0
79	200	0	10000	5	1	0	5	0
80	201	0	10000	5	1	0	5	0
78	202	0	10000	5	1	0	5	0
76	203	0	10000	5	1	0	5	0
75	204	0	10000	5	1	0	5	0
75	205	0	10000	5	1	0	5	0
75	206	0	10000	5	1	0	5	0
73	207	0	10000	5	1	0	5	0
72	208	0	10000	5	1	0	5	0
71	209	0	10000	5	1	0	5	0
74	210	0	10000	5	1	0	5	0
80	211	0	10000	5	1	0	5	0
87	212	0	10000	5	1	0	5	0
88	213	0	10000	5	1	0	5	0
92	214	0	10000	5	1	0	5	0
103	215	0	10000	5	1	0	5	0
112	216	0	10000	5	1	0	5	0
115	217	0	10000	5	1	0	5	0
118	218	0	10000	5	1	0	5	0
116	219	0	10000	5	1	0	5	0
115	220	0	10000	5	1	0	5	0
116	221	0	10000	5	1	0	5	0
113	222	0	10000	5	1	0	5	0
110	223	0	10000	5	1	0	5	0
107	224	0	10000	5	1	0	5	0
106	225	0	10000	5	1	0	5	0
106	226	0	10000	5	1	0	5	0
103	227	0	10000	5	1	0	5	0
103	228	0	10000	5	1	0	5	0
104	229	0	10000	5	1	0	5	0
101	230	0	10000	5	1	0	5	0
100	231	0	10000	5	1	0	5	0
98	232	0	10000	5	1	0	5	0
101	233	0	10000	5	1	0	5	0
104	234	0	10000	5	1	0	5	0
110	235	0	10000	5	1	0	5	0
113	236	0	10000	5	1	0	5	0
111	237	0	10000	5	1	0	5	0
110	238	0	10000	5	1	0	5	0
110	239	0	10000	5	1	0	5	0
108	240	0	10000	5	1	0	5	0
107	241	0	10000	5	1	0	5	0
104	242	0	10000	5	1	0	5	0
105	243	0	10000	5	1	0	5	0
107	244	0	10000	5	1	0	5	0
112	245	0	10000	5	1	0	5	0
112	246	0	10000	5	1	0	5	0
112	247	0	10000	5	1	0	5	0
110	248	0	10000	5	1	0	5	0
105	249	0	10000	5	1	0	5	0
105	250	0	10000	5	1	0	5	0
103	251	0	10000	5	1	0	5	0
101	252	0	10000	5	1	0	5	0
100	253	0	10000	5	1	0	5	0
101	254	0	10000	5	1	0	5	0
100	255	0	10000	5	1	0	5	0
100	256	0	10000	5	1	0	5	0
97	257	0	10000	5	1	0	5	0
96	258	0	10000	5	1	0	5	0
96	259	0	10000	5	1	0	5	0
97	260	0	10000	5	1	0	5	0
99	261	0	10000	5	1	0	5	0
96	262	0	10000	5	1	0	5	0
97	263	0	10000	5	1	0	5	0
96	264	0	10000	5	1	0	5	0
97	265	0	10000	5	1	0	5	0
99	266	0	10000	5	1	0	5	0
105	267	0	10000	5	1	0	5	0
106	268	0	10000	5	1	0	5	0
112	269	0	10000	5	1	0	5	0
108	270	0	10000	5	1	0	5	0
106	271	0	10000	5	1	0	5	0
114	272	0	10000	5	1	0	5	0
124	273	0	10000	5	1	0	5	0
130	274	0	10000	5	1	0	5	0
137	275	0	10000	5	1	0	5	0
138	276	0	10000	5	1	0	5	0
136	277	0	10000	5	1	0	5	0
132	278	0	10000	5	1	0	5	0
129	279	0	10000	5	1	0	5	0
126	280	0	10000	5	1	0	5	0
122	281	0	10000	5	1	0	5	0
119	282	0	10000	5	1	0	5	0
116	283	0	10000	5	1	0	5	0
120	284	0	10000	5	1	0	5	0
119	285	0	10000	5	1	0	5	0
120	286	0	10000	5	1	0	5	0
116	287	0	10000	5	1	0	5	0
117	288	0	10000	5	1	0	5	0
115	289	0	10000	5	1	0	5	0
113	290	0	10000	5	1	0	5	0
114	291	0	10000	5	1	0	5	0
115	292	0	10000	5	1	0	5	0
116	293	0	10000	5	1	0	5	0
117	294	0	10000	5	1	0	5	0
123	295	0	10000	5	1	0	5	0
123	296	0	10000	5	1	0	5	0
123	297	0	10000	5	1	0	5	0
119	298	0	10000	5	1	0	5	0
118	299	0	10000	5	1	0	5	0
117	300	0	10000	5	1	0	5	0
113	301	0	10000	5	1	0	5	0
111	302	0	10000	5	1	0	5	0
107	303	0	10000	5	1	0	5	0
107	304	0	10000	5	1	0	5	0
104	305	0	10000	5	1	0	5	0
102	306	0	10000	5	1	0	5	0
100	307	0	10000	5	1	0	5	0
99	308	0	10000	5	1	0	5	0
98	309	0	10000	5	1	0	5	0
96	310	0	10000	5	1	0	5	0
93	311	0	10000	5	1	0	5	0
95	312	0	10000	5	1	0	5	0
97	313	0	10000	5	1	0	5	0
96	314	0	10000	5	1	0	5	0
95	315	0	10000	5	1	0	5	0
92	316	0	10000	5	1	0	5	0
92	317	0	10000	5	1	0	5	0
91	318	0	10000	5	1	0	5	0
92	319	0	10000	5	1	0	5	0
91	320	0	10000	5	1	0	5	0
90	321	0	10000	5	1	0	5	0
88	322	0	10000	5	1	0	5	0
85	323	0	10000	5	1	0	5	0
83	324	0	10000	5	1	0	5	0
83	325	0	10000	5	1	0	5	0
81	326	0	10000	5	1	0	5	0
80	327	0	10000	5	1	0	5	0
81	328	0	10000	5	1	0	5	0
79	329	0	10000	5	1	0	5	0
80	330	0	10000	5	1	0	5	0
78	331	0	10000	5	1	0	5	0
81	332	0	10000	5	1	0	5	0
81	333	0	10000	5	1	0	5	0
79	334	0	10000	5	1	0	5	0
79	335	0	10000	5	1	0	5	0
77	336	0	10000	5	1	0	5	0
76	337	0	10000	5	1	0	5	0
75	338	0	10000	5	1	0	5	0
75	339	0	10000	5	1	0	5	0
74	340	0	10000	5	1	0	5	0
73	341	0	10000	5	1	0	5	0
71	342	0	10000	5	1	0	5	0
70	343	0	10000	5	1	0	5	0
69	344	0	10000	5	1	0	5	0
70	345	0	10000	5	1	0	5	0
69	346	0	10000	5	1	0	5	0
69	347	0	10000	5	1	0	5	0
68	348	0	10000	5	1	0	5	0
68	349	0	10000	5	1	0	5	0
68	350	0	10000	5	1	0	5	0
66	351	0	10000	5	1	0	5	0
66	352	0	10000	5	1	0	5	0
68	353	0	10000	5	1	0	5	0
66	354	0	10000	5	1	0	5	0
67	355	0	10000	5	1	0	5	0
65	356	0	10000	5	1	0	5	0
64	357	0	10000	5	1	0	5	0
63	358	0	10000	5	1	0	5	0
64	359	0	10000	5	1	0	5	0
65	360	0	10000	5	1	0	5	0
64	361	0	10000	5	1	0	5	0
65	362	0	10000	5	1	0	5	0
64	363	0	10000	5	1	0	5	0
64	364	0	10000	5	1	0	5	0
64	365	0	10000	5	1	0	5	0
63	366	0	10000	5	1	0	5	0
64	367	0	10000	5	1	0	5	0
63	368	0	10000	5	1	0	5	0
63	369	0	10000	5	1	0	5	0
65	370	0	10000	5	1	0	5	0
63	371	0	10000	5	1	0	5	0
66	372	0	10000	5	1	0	5	0
66	373	0	10000	5	1	0	5	0
64	374	0	10000	5	1	0	5	0
65	375	0	10000	5	1	0	5	0
63	376	0	10000	5	1	0	5	0
65	377	0	10000	5	1	0	5	0
64	378	0	10000	5	1	0	5	0
65	379	0	10000	5	1	0	5	0
66	380	0	10000	5	1	0	5	0
66	381	0	10000	5	1	0	5	0
68	382	0	10000	5	1	0	5	0
66	383	0	10000	5	1	0	5	0
68	384	0	10000	5	1	0	5	0
70	385	0	10000	5	1	0	5	0
70	386	0	10000	5	1	0	5	0
72	387	0	10000	5	1	0	5	0
71	388	0	10000	5	1	0	5	0
72	389	0	10000	5	1	0	5	0
72	390	0	10000	5	1	0	5	0
70	391	0	10000	5	1	0	5	0
72	392	0	10000	5	1	0	5	0
71	393	0	10000	5	1	0	5	0
71	394	0	10000	5	1	0	5	0
71	395	0	10000	5	1	0	5	0
68	396	0	10000	5	1	0	5	0
68	397	0	10000	5	1	0	5	0
67	398	0	10000	5	1	0	5	0
67	399	0	10000	5	1	0	5	0
67	400	0	10000	5	1	0	5	0
66	401	0	10000	5	1	0	5	0
65	402	0	10000	5	1	0	5	0
64	403	0	10000	5	1	0	5	0
63	404	0	10000	5	1	0	5	0
64	405	0	10000	5	1	0	5	0
64	406	0	10000	5	1	0	5	0
64	407	0	10000	5	1	0	5	0
61	408	0	10000	5	1	0	5	0
63	409	0	10000	5	1	0	5	0
62	410	0	10000	5	1	0	5	0
61	411	0	10000	5	1	0	5	0
62	412	0	10000	5	1	0	5	0
63	413	0	10000	5	1	0	5	0
61	414	0	10000	5	1	0	5	0
61	415	0	10000	5	1	0	5	0
61	416	0	10000	5	1	0	5	0
60	417	0	10000	5	1	0	5	0
62	418	0	10000	5	1	0	5	0
61	419	0	10000	5	1	0	5	0
63	420	0	10000	5	1	0	5	0
62	421	0	10000	5	1	0	5	0
61	422	0	10000	5	1	0	5	0
60	423	0	10000	5	1	0	5	0
60	424	0	10000	5	1	0	5	0
61	425	0	10000	5	1	0	5	0
61	426	0	10000	5	1	0	5	0
60	427	0	10000	5	1	0	5	0
59	428	0	10000	5	1	0	5	0
60	429	0	10000	5	1	0	5	0
59	430	0	10000	5	1	0	5	0
59	431	0	10000	5	1	0	5	0
59	432	0	10000	5	1	0	5	0
60	433	0	10000	5	1	0	5	0
61	434	0	10000	5	1	0	5	0
60	435	0	10000	5	1	0	5	0
60	436	0	10000	5	1	0	5	0
60	437	0	10000	5	1	0	5	0
61	438	0	10000	5	1	0	5	0
61	439	0	10000	5	1	0	5	0
63	440	0	10000	5	1	0	5	0
63	441	0	10000	5	1	0	5	0
62	442	0	10000	5	1	0	5	0
62	443	0	10000	5	1	0	5	0
62	444	0	10000	5	1	0	5	0
63	445	0	10000	5	1	0	5	0
63	446	0	10000	5	1	0	5	0
63	447	0	10000	5	1	0	5	0
65	448	0	10000	5	1	0	5	0
63	449	0	10000	5	1	0	5	0
64	450	0	10000	5	1	0	5	0
64	451	0	10000	5	1	0	5	0
65	452	0	10000	5	1	0	5	0
67	453	0	10000	5	1	0	5	0
67	454	0	10000	5	1	0	5	0
68	455	0	10000	5	1	0	5	0
69	456	0	10000	5	1	0	5	0
69	457	0	10000	5	1	0	5	0
72	458	0	10000	5	1	0	5	0
71	459	0	10000	5	1	0	5	0
73	460	0	10000	5	1	0	5	0
73	461	0	10000	5	1	0	5	0
72	462	0	10000	5	1	0	5	0
71	463	0	10000	5	1	0	5	0
70	464	0	10000	5	1	0	5	0
71	465	0	10000	5	1	0	5	0
71	466	0	10000	5	1	0	5	0
70	467	0	10000	5	1	0	5	0
71	468	0	10000	5	1	0	5	0
71	469	0	10000	5	1	0	5	0
71	470	0	10000	5	1	0	5	0
70	471	0	10000	5	1	0	5	0
71	472	0	10000	5	1	0	5	0
74	473	0	10000	5	1	0	5	0
72	474	0	10000	5	1	0	5	0
75	475	0	10000	5	1	0	5	0
74	476	0	10000	5	1	0	5	0
75	477	0	10000	5	1	0	5	0
77	478	0	10000	5	1	0	5	0
76	479	0	10000	5	1	0	5	0
78	480	0	10000	5	1	0	5	0
78	481	0	10000	5	1	0	5	0
76	482	0	10000	5	1	0	5	0
76	483	0	10000	5	1	0	5	0
74	484	0	10000	5	1	0	5	0
76	485	0	10000	5	1	0	5	0
75	486	0	10000	5	1	0	5	0
76	487	0	10000	5	1	0	5	0
76	488	0	10000	5	1	0	5	0
74	489	0	10000	5	1	0	5	0
76	490	0	10000	5	1	0	5	0
73	491	0	10000	5	1	0	5	0
74	492	0	10000	5	1	0	5	0
76	493	0	10000	5	1	0	5	0
74	494	0	10000	5	1	0	5	0
74	495	0	10000	5	1	0	5	0
73	496	0	10000	5	1	0	5	0
74	497	0	10000	5	1	0	5	0
73	498	0	10000	5	1	0	5	0
73	499	0	10000	5	1	0	5	0
73	500	0	10000	5	1	0	5	0
72	501	0	10000	5	1	0	5	0
70	502	0	10000	5	1	0	5	1
68	503	0	10000	5	1	0	5	1
68	504	0	10000	5	1	0	5	1
68	505	0	10000	5	1	0	5	1
67	506	0	10000	5	1	0	5	1
67	507	0	10000	5	1	0	5	1
67	508	0	10000	5	1	0	5	1
67	509	0	10000	5	1	0	5	1
65	510	0	10000	5	1	0	5	1
64	511	0	10000	5	1	0	5	1
66	512	0	10000	5	1	0	5	1
66	513	0	10000	5	1	0	5	1
65	514	0	10000	5	1	0	5	1
65	515	0	10000	5	1	0	5	1
63	516	0	10000	5	1	0	5	1
63	517	0	10000	5	1	0	5	1
63	518	0	10000	5	1	0	5	1
64	519	0	10000	5	1	0	5	1
63	520	0	10000	5	1	0	5	1
63	521	0	10000	5	1	0	5	1
62	522	0	10000	5	1	0	5	1
60	523	0	10000	5	1	0	5	1
61	524	0	10000	5	1	0	5	1
61	525	0	10000	5	1	0	5	1
61	526	0	10000	5	1	0	5	1
61	527	0	10000	5	1	0	5	1
61	528	0	10000	5	1	0	5	1
61	529	0	10000	5	1	0	5	1
60	530	0	10000	5	1	0	5	1
59	531	0	10000	5	1	0	5	1
60	532	0	10000	5	1	0	5	1
61	533	0	10000	5	1	0	5	1
60	534	0	10000	5	1	0	5	1
61	535	0	10000	5	1	0	5	1
60	536	0	10000	5	1	0	5	1
61	537	0	10000	5	1	0	5	1
60	538	0	10000	5	1	0	5	1
60	539	0	10000	5	1	0	5	1
63	540	0	10000	5	1	0	5	1
62	541	0	10000	5	1	0	5	1
60	542	0	10000	5	1	0	5	1
59	543	0	10000	5	1	0	5	1
59	544	0	10000	5	1	0	5	1
58	545	0	10000	5	1	0	5	1
58	546	0	10000	5	1	0	5	1
58	547	0	10000	5	1	0	5	1
58	548	0	10000	5	1	0	5	1
59	549	0	10000	5	1	0	5	1
58	550	0	10000	5	1	0	5	1
57	551	0	10000	5	1	0	5	1
58	552	0	10000	5	1	0	5	0
59	553	0	10000	5	1	0	5	0
60	554	0	10000	5	1	0	5	0
60	555	0	10000	5	1	0	5	0
59	556	0	10000	5	1	0	5	0
59	557	0	10000	5	1	0	5	0
59	558	0	10000	5	1	0	5	0
61	559	0	10000	5	1	0	5	0
61	560	0	10000	5	1	0	5	0
61	561	0	10000	5	1	0	5	0
60	562	0	10000	5	1	0	5	0
58	563	0	10000	5	1	0	5	0
58	564	0	10000	5	1	0	5	0
58	565	0	10000	5	1	0	5	0
58	566	0	10000	5	1	0	5	0
58	567	0	10000	5	1	0	5	0
58	568	0	10000	5	1	0	5	0
58	569	0	10000	5	1	0	5	0
57	570	0	10000	5	1	0	5	0
56	571	0	10000	5	1	0	5	0
56	572	0	10000	5	1	0	5	0
57	573	0	10000	5	1	0	5	0
57	574	0	10000	5	1	0	5	0
59	575	0	10000	5	1	0	5	0
58	576	0	10000	5	1	0	5	0
61	577	0	10000	5	1	0	5	0
61	578	0	10000	5	1	0	5	0
67	579	0	10000	5	1	0	5	0
69	580	0	10000	5	1	0	5	0
70	581	0	10000	5	1	0	5	0
75	582	0	10000	5	1	0	5	0
75	583	0	10000	5	1	0	5	0
78	584	0	10000	5	1	0	5	0
76	585	0	10000	5	1	0	5	0
76	586	0	10000	5	1	0	5	0
74	587	0	10000	5	1	0	5	0
80	588	0	10000	5	1	0	5	0
84	589	0	10000	5	1	0	5	0
87	590	0	10000	5	1	0	5	0
91	591	0	10000	5	1	0	5	0
96	592	0	10000	5	1	0	5	0
98	593	0	10000	5	1	0	5	0
100	594	0	10000	5	1	0	5	0
105	595	0	10000	5	1	0	5	0
112	596	0	10000	5	1	0	5	0
117	597	0	10000	5	1	0	5	0
127	598	0	10000	5	1	0	5	0
127	599	0	10000	5	1	0	5	0
125	600	0	10000	5	1	0	5	0
123	601	0	10000	5	1	0	5	0
116	602	0	10000	5	1	0	5	0
115	603	0	10000	5	1	0	5	0
127	604	0	10000	5	1	0	5	0
136	605	0	10000	5	1	0	5	0
137	606	0	10000	5	1	0	5	0
134	607	0	10000	5	1	0	5	0
140	608	0	10000	5	1	0	5	0
140	609	0	10000	5	1	0	5	0
143	610	0	10000	5	1	0	5	0
142	611	0	10000	5	1	0	5	0
141	612	0	10000	5	1	0	5	0
138	613	0	10000	5	1	0	5	0
139	614	0	10000	5	1	0	5	0
140	615	0	10000	5	1	0	5	0
141	616	0	10000	5	1	0	5	0
144	617	0	10000	5	1	0	5	0
144	618	0	10000	5	1	0	5	0
148	619	0	10000	5	1	0	5	0
147	620	0	10000	5	1	0	5	0
148	621	0	10000	5	1	0	5	0
146	622	0	10000	5	1	0	5	0
141	623	0	10000	5	1	0	5	0
141	624	0	10000	5	1	0	5	0
137	625	0	10000	5	1	0	5	0
135	626	0	10000	5	1	0	5	0
133	627	0	10000	5	1	0	5	0
129	628	0	10000	5	1	0	5	0
127	629	0	10000	5	1	0	5	0
123	630	0	10000	5	1	0	5	0
120	631	0	10000	5	1	0	5	0
117	632	0	10000	5	1	0	5	0
116	633	0	10000	5	1	0	5	0
110	634	0	10000	5	1	0	5	0
109	635	0	10000	5	1	0	5	0
105	636	0	10000	5	1	0	5	0
104	637	0	10000	5	1	0	5	0
104	638	0	10000	5	1	0	5	0
101	639	0	10000	5	1	0	5	0
104	640	0	10000	5	1	0	5	0
106	641	0	10000	5	1	0	5	0
107	642	0	10000	5	1	0	5	0
110	643	0	10000	5	1	0	5	0
110	644	0	10000	5	1	0	5	0
113	645	0	10000	5	1	0	5	0
114	646	0	10000	5	1	0	5	0
114	647	0	10000	5	1	0	5	0
116	648	0	10000	5	1	0	5	0
115	649	0	10000	5	1	0	5	0
115	650	0	10000	5	1	0	5	0
113	651	0	10000	5	1	0	5	0
115	652	0	10000	5	1	0	5	0
116	653	0	10000	5	1	0	5	0
114	654	0	10000	5	1	0	5	0
115	655	0	10000	5	1	0	5	0
112	656	0	10000	5	1	0	5	0
113	657	0	10000	5	1	0	5	0
113	658	0	10000	5	1	0	5	0
110	659	0	10000	5	1	0	5	0
111	660	0	10000	5	1	0	5	0
110	661	0	10000	5	1	0	5	0
110	662	0	10000	5	1	0	5	0
110	663	0	10000	5	1	0	5	0
107	664	0	10000	5	1	0	5	0
109	665	0	10000	5	1	0	5	0
106	666	0	10000	5	1	0	5	0
106	667	0	10000	5	1	0	5	0
104	668	0	10000	5	1	0	5	0
101	669	0	10000	5	1	0	5	0
99	670	0	10000	5	1	0	5	0
95	671	0	10000	5	1	0	5	0
95	672	0	10000	5	1	0	5	0
95	673	0	10000	5	1	0	5	0
92	674	0	10000	5	1	0	5	0
92	675	0	10000	5	1	0	5	0
88	676	0	10000	5	1	0	5	0
89	677	0	10000	5	1	0	5	0
86	678	0	10000	5	1	0	5	0
85	679	0	10000	5	1	0	5	0
86	680	0	10000	5	1	0	5	0
83	681	0	10000	5	1	0	5	0
82	682	0	10000	5	1	0	5	0
80	683	0	10000	5	1	0	5	0
78	684	0	10000	5	1	0	5	0
78	685	0	10000	5	1	0	5	0
76	686	0	10000	5	1	0	5	0
76	687	0	10000	5	1	0	5	0
75	688	0	10000	5	1	0	5	0
73	689	0	10000	5	1	0	5	0
73	690	0	10000	5	1	0	5	0
71	691	0	10000	5	1	0	5	0
71	692	0	10000	5	1	0	5	0
71	693	0	10000	5	1	0	5	0
70	694	0	10000	5	1	0	5	0
70	695	0	10000	5	1	0	5	0
68	696	0	10000	5	1	0	5	0
68	697	0	10000	5	1	0	5	0
67	698	0	10000	5	1	0	5	0
67	699	0	10000	5	1	0	5	0
67	700	0	10000	5	1	0	5	0
68	701	0	10000	5	1	0	5	0
66	702	0	10000	5	1	0	5	0
65	703	0	10000	5	1	0	5	0
65	704	0	10000	5	1	0	5	0
66	705	0	10000	5	1	0	5	0
66	706	0	10000	5	1	0	5	0
64	707	0	10000	5	1	0	5	0
65	708	0	10000	5	1	0	5	0
65	709	0	10000	5	1	0	5	0
65	710	0	10000	5	1	0	5	0
65	711	0	10000	5	1	0	5	0
65	712	0	10000	5	1	0	5	0
68	713	0	10000	5	1	0	5	0
67	714	0	10000	5	1	0	5	0
67	715	0	10000	5	1	0	5	0
68	716	0	10000	5	1	0	5	0
66	717	0	10000	5	1	0	5	0
67	718	0	10000	5	1	0	5	0
66	719	0	10000	5	1	0	5	0
67	720	0	10000	5	1	0	5	0
66	721	0	10000	5	1	0	5	0
64	722	0	10000	5	1	0	5	0
62	723	0	10000	5	1	0	5	0
62	724	0	10000	5	1	0	5	0
63	725	0	10000	5	1	0	5	0
63	726	0	10000	5	1	0	5	0
63	727	0	10000	5	1	0	5	0
64	728	0	10000	5	1	0	5	0
63	729	0	10000	5	1	0	5	0
64	730	0	10000	5	1	0	5	0
63	731	0	10000	5	1	0	5	0
63	732	0	10000	5	1	0	5	0
66	733	0	10000	5	1	0	5	0
64	734	0	10000	5	1	0	5	0
65	735	0	10000	5	1	0	5	0
65	736	0	10000	5	1	0	5	0
64	737	0	10000	5	1	0	5	0
64	738	0	10000	5	1	0	5	0
63	739	0	10000	5	1	0	5	0
65	740	0	10000	5	1	0	5	0
65	741	0	10000	5	1	0	5	0
63	742	0	10000	5	1	0	5	0
61	743	0	10000	5	1	0	5	0
62	744	0	10000	5	1	0	5	0
61	745	0	10000	5	1	0	5	0
62	746	0	10000	5	1	0	5	0
62	747	0	10000	5	1	0	5	0
62	748	0	10000	5	1	0	5	0
61	749	0	10000	5	1	0	5	0
62	750	0	10000	5	1	0	5	0
61	751	0	10000	5	1	0	5	0
