value	EMG	Stimulus	EMG_sensitivity	Total_Trial_Nr	practise	acq	probe_nr	Startle_Probe
58	1	0	10000	1	1	0	1	0
59	2	0	10000	1	1	0	1	0
58	3	0	10000	1	1	0	1	0
57	4	0	10000	1	1	0	1	0
56	5	0	10000	1	1	0	1	0
58	6	0	10000	1	1	0	1	0
57	7	0	10000	1	1	0	1	0
57	8	0	10000	1	1	0	1	0
56	9	0	10000	1	1	0	1	0
55	10	0	10000	1	1	0	1	0
55	11	0	10000	1	1	0	1	0
53	12	0	10000	1	1	0	1	0
51	13	0	10000	1	1	0	1	0
52	14	0	10000	1	1	0	1	0
53	15	0	10000	1	1	0	1	0
54	16	0	10000	1	1	0	1	0
53	17	0	10000	1	1	0	1	0
55	18	0	10000	1	1	0	1	0
54	19	0	10000	1	1	0	1	0
52	20	0	10000	1	1	0	1	0
50	21	0	10000	1	1	0	1	0
52	22	0	10000	1	1	0	1	0
52	23	0	10000	1	1	0	1	0
52	24	0	10000	1	1	0	1	0
54	25	0	10000	1	1	0	1	0
55	26	0	10000	1	1	0	1	0
54	27	0	10000	1	1	0	1	0
54	28	0	10000	1	1	0	1	0
53	29	0	10000	1	1	0	1	0
53	30	0	10000	1	1	0	1	0
53	31	0	10000	1	1	0	1	0
50	32	0	10000	1	1	0	1	0
49	33	0	10000	1	1	0	1	0
47	34	0	10000	1	1	0	1	0
46	35	0	10000	1	1	0	1	0
45	36	0	10000	1	1	0	1	0
44	37	0	10000	1	1	0	1	0
46	38	0	10000	1	1	0	1	0
46	39	0	10000	1	1	0	1	0
45	40	0	10000	1	1	0	1	0
44	41	0	10000	1	1	0	1	0
44	42	0	10000	1	1	0	1	0
44	43	0	10000	1	1	0	1	0
42	44	0	10000	1	1	0	1	0
41	45	0	10000	1	1	0	1	0
41	46	0	10000	1	1	0	1	0
44	47	0	10000	1	1	0	1	0
46	48	0	10000	1	1	0	1	0
49	49	0	10000	1	1	0	1	0
52	50	0	10000	1	1	0	1	0
51	51	0	10000	1	1	0	1	0
50	52	0	10000	1	1	0	1	0
47	53	0	10000	1	1	0	1	0
46	54	0	10000	1	1	0	1	0
44	55	0	10000	1	1	0	1	0
47	56	0	10000	1	1	0	1	0
45	57	0	10000	1	1	0	1	0
44	58	0	10000	1	1	0	1	0
42	59	0	10000	1	1	0	1	0
41	60	0	10000	1	1	0	1	0
43	61	0	10000	1	1	0	1	0
43	62	0	10000	1	1	0	1	0
43	63	0	10000	1	1	0	1	0
43	64	0	10000	1	1	0	1	0
45	65	0	10000	1	1	0	1	0
45	66	0	10000	1	1	0	1	0
44	67	0	10000	1	1	0	1	0
43	68	0	10000	1	1	0	1	0
44	69	0	10000	1	1	0	1	0
43	70	0	10000	1	1	0	1	0
42	71	0	10000	1	1	0	1	0
41	72	0	10000	1	1	0	1	0
40	73	0	10000	1	1	0	1	0
42	74	0	10000	1	1	0	1	0
42	75	0	10000	1	1	0	1	0
41	76	0	10000	1	1	0	1	0
41	77	0	10000	1	1	0	1	0
40	78	0	10000	1	1	0	1	0
38	79	0	10000	1	1	0	1	0
37	80	0	10000	1	1	0	1	0
37	81	0	10000	1	1	0	1	0
38	82	0	10000	1	1	0	1	0
37	83	0	10000	1	1	0	1	0
36	84	0	10000	1	1	0	1	0
36	85	0	10000	1	1	0	1	0
35	86	0	10000	1	1	0	1	0
37	87	0	10000	1	1	0	1	0
37	88	0	10000	1	1	0	1	0
35	89	0	10000	1	1	0	1	0
35	90	0	10000	1	1	0	1	0
38	91	0	10000	1	1	0	1	0
40	92	0	10000	1	1	0	1	0
39	93	0	10000	1	1	0	1	0
38	94	0	10000	1	1	0	1	0
40	95	0	10000	1	1	0	1	0
38	96	0	10000	1	1	0	1	0
37	97	0	10000	1	1	0	1	0
38	98	0	10000	1	1	0	1	0
37	99	0	10000	1	1	0	1	0
38	100	0	10000	1	1	0	1	0
40	101	0	10000	1	1	0	1	0
44	102	0	10000	1	1	0	1	0
44	103	0	10000	1	1	0	1	0
44	104	0	10000	1	1	0	1	0
44	105	0	10000	1	1	0	1	0
45	106	0	10000	1	1	0	1	0
47	107	0	10000	1	1	0	1	0
47	108	0	10000	1	1	0	1	0
45	109	0	10000	1	1	0	1	0
44	110	0	10000	1	1	0	1	0
44	111	0	10000	1	1	0	1	0
44	112	0	10000	1	1	0	1	0
44	113	0	10000	1	1	0	1	0
46	114	0	10000	1	1	0	1	0
49	115	0	10000	1	1	0	1	0
52	116	0	10000	1	1	0	1	0
51	117	0	10000	1	1	0	1	0
48	118	0	10000	1	1	0	1	0
48	119	0	10000	1	1	0	1	0
48	120	0	10000	1	1	0	1	0
46	121	0	10000	1	1	0	1	0
46	122	0	10000	1	1	0	1	0
52	123	0	10000	1	1	0	1	0
57	124	0	10000	1	1	0	1	0
58	125	0	10000	1	1	0	1	0
57	126	0	10000	1	1	0	1	0
58	127	0	10000	1	1	0	1	0
56	128	0	10000	1	1	0	1	0
56	129	0	10000	1	1	0	1	0
58	130	0	10000	1	1	0	1	0
57	131	0	10000	1	1	0	1	0
55	132	0	10000	1	1	0	1	0
55	133	0	10000	1	1	0	1	0
54	134	0	10000	1	1	0	1	0
51	135	0	10000	1	1	0	1	0
50	136	0	10000	1	1	0	1	0
51	137	0	10000	1	1	0	1	0
51	138	0	10000	1	1	0	1	0
50	139	0	10000	1	1	0	1	0
48	140	0	10000	1	1	0	1	0
46	141	0	10000	1	1	0	1	0
45	142	0	10000	1	1	0	1	0
44	143	0	10000	1	1	0	1	0
44	144	0	10000	1	1	0	1	0
45	145	0	10000	1	1	0	1	0
45	146	0	10000	1	1	0	1	0
46	147	0	10000	1	1	0	1	0
50	148	0	10000	1	1	0	1	0
55	149	0	10000	1	1	0	1	0
54	150	0	10000	1	1	0	1	0
52	151	0	10000	1	1	0	1	0
55	152	0	10000	1	1	0	1	0
55	153	0	10000	1	1	0	1	0
53	154	0	10000	1	1	0	1	0
52	155	0	10000	1	1	0	1	0
51	156	0	10000	1	1	0	1	0
50	157	0	10000	1	1	0	1	0
48	158	0	10000	1	1	0	1	0
50	159	0	10000	1	1	0	1	0
52	160	0	10000	1	1	0	1	0
53	161	0	10000	1	1	0	1	0
57	162	0	10000	1	1	0	1	0
65	163	0	10000	1	1	0	1	0
63	164	0	10000	1	1	0	1	0
60	165	0	10000	1	1	0	1	0
58	166	0	10000	1	1	0	1	0
58	167	0	10000	1	1	0	1	0
59	168	0	10000	1	1	0	1	0
59	169	0	10000	1	1	0	1	0
56	170	0	10000	1	1	0	1	0
57	171	0	10000	1	1	0	1	0
54	172	0	10000	1	1	0	1	0
53	173	0	10000	1	1	0	1	0
53	174	0	10000	1	1	0	1	0
52	175	0	10000	1	1	0	1	0
52	176	0	10000	1	1	0	1	0
55	177	0	10000	1	1	0	1	0
60	178	0	10000	1	1	0	1	0
65	179	0	10000	1	1	0	1	0
64	180	0	10000	1	1	0	1	0
63	181	0	10000	1	1	0	1	0
68	182	0	10000	1	1	0	1	0
70	183	0	10000	1	1	0	1	0
68	184	0	10000	1	1	0	1	0
64	185	0	10000	1	1	0	1	0
63	186	0	10000	1	1	0	1	0
61	187	0	10000	1	1	0	1	0
60	188	0	10000	1	1	0	1	0
59	189	0	10000	1	1	0	1	0
56	190	0	10000	1	1	0	1	0
57	191	0	10000	1	1	0	1	0
52	192	0	10000	1	1	0	1	0
52	193	0	10000	1	1	0	1	0
50	194	0	10000	1	1	0	1	0
48	195	0	10000	1	1	0	1	0
48	196	0	10000	1	1	0	1	0
46	197	0	10000	1	1	0	1	0
45	198	0	10000	1	1	0	1	0
45	199	0	10000	1	1	0	1	0
46	200	0	10000	1	1	0	1	0
48	201	0	10000	1	1	0	1	0
48	202	0	10000	1	1	0	1	0
48	203	0	10000	1	1	0	1	0
45	204	0	10000	1	1	0	1	0
44	205	0	10000	1	1	0	1	0
44	206	0	10000	1	1	0	1	0
44	207	0	10000	1	1	0	1	0
45	208	0	10000	1	1	0	1	0
45	209	0	10000	1	1	0	1	0
44	210	0	10000	1	1	0	1	0
43	211	0	10000	1	1	0	1	0
41	212	0	10000	1	1	0	1	0
40	213	0	10000	1	1	0	1	0
39	214	0	10000	1	1	0	1	0
40	215	0	10000	1	1	0	1	0
42	216	0	10000	1	1	0	1	0
41	217	0	10000	1	1	0	1	0
40	218	0	10000	1	1	0	1	0
39	219	0	10000	1	1	0	1	0
37	220	0	10000	1	1	0	1	0
36	221	0	10000	1	1	0	1	0
36	222	0	10000	1	1	0	1	0
36	223	0	10000	1	1	0	1	0
34	224	0	10000	1	1	0	1	0
33	225	0	10000	1	1	0	1	0
33	226	0	10000	1	1	0	1	0
35	227	0	10000	1	1	0	1	0
35	228	0	10000	1	1	0	1	0
36	229	0	10000	1	1	0	1	0
40	230	0	10000	1	1	0	1	0
40	231	0	10000	1	1	0	1	0
39	232	0	10000	1	1	0	1	0
39	233	0	10000	1	1	0	1	0
38	234	0	10000	1	1	0	1	0
37	235	0	10000	1	1	0	1	0
37	236	0	10000	1	1	0	1	0
37	237	0	10000	1	1	0	1	0
38	238	0	10000	1	1	0	1	0
39	239	0	10000	1	1	0	1	0
37	240	0	10000	1	1	0	1	0
37	241	0	10000	1	1	0	1	0
38	242	0	10000	1	1	0	1	0
38	243	0	10000	1	1	0	1	0
39	244	0	10000	1	1	0	1	0
42	245	0	10000	1	1	0	1	0
42	246	0	10000	1	1	0	1	0
42	247	0	10000	1	1	0	1	0
40	248	0	10000	1	1	0	1	0
41	249	0	10000	1	1	0	1	0
44	250	0	10000	1	1	0	1	0
44	251	0	10000	1	1	0	1	0
43	252	0	10000	1	1	0	1	0
42	253	0	10000	1	1	0	1	0
41	254	0	10000	1	1	0	1	0
41	255	0	10000	1	1	0	1	0
40	256	0	10000	1	1	0	1	0
39	257	0	10000	1	1	0	1	0
38	258	0	10000	1	1	0	1	0
38	259	0	10000	1	1	0	1	0
36	260	0	10000	1	1	0	1	0
37	261	0	10000	1	1	0	1	0
39	262	0	10000	1	1	0	1	0
41	263	0	10000	1	1	0	1	0
43	264	0	10000	1	1	0	1	0
44	265	0	10000	1	1	0	1	0
44	266	0	10000	1	1	0	1	0
44	267	0	10000	1	1	0	1	0
45	268	0	10000	1	1	0	1	0
45	269	0	10000	1	1	0	1	0
47	270	0	10000	1	1	0	1	0
47	271	0	10000	1	1	0	1	0
45	272	0	10000	1	1	0	1	0
45	273	0	10000	1	1	0	1	0
45	274	0	10000	1	1	0	1	0
44	275	0	10000	1	1	0	1	0
45	276	0	10000	1	1	0	1	0
48	277	0	10000	1	1	0	1	0
51	278	0	10000	1	1	0	1	0
49	279	0	10000	1	1	0	1	0
47	280	0	10000	1	1	0	1	0
44	281	0	10000	1	1	0	1	0
44	282	0	10000	1	1	0	1	0
44	283	0	10000	1	1	0	1	0
42	284	0	10000	1	1	0	1	0
40	285	0	10000	1	1	0	1	0
39	286	0	10000	1	1	0	1	0
39	287	0	10000	1	1	0	1	0
38	288	0	10000	1	1	0	1	0
38	289	0	10000	1	1	0	1	0
44	290	0	10000	1	1	0	1	0
50	291	0	10000	1	1	0	1	0
49	292	0	10000	1	1	0	1	0
51	293	0	10000	1	1	0	1	0
52	294	0	10000	1	1	0	1	0
52	295	0	10000	1	1	0	1	0
56	296	0	10000	1	1	0	1	0
58	297	0	10000	1	1	0	1	0
56	298	0	10000	1	1	0	1	0
55	299	0	10000	1	1	0	1	0
52	300	0	10000	1	1	0	1	0
51	301	0	10000	1	1	0	1	0
51	302	0	10000	1	1	0	1	0
52	303	0	10000	1	1	0	1	0
50	304	0	10000	1	1	0	1	0
48	305	0	10000	1	1	0	1	0
46	306	0	10000	1	1	0	1	0
45	307	0	10000	1	1	0	1	0
44	308	0	10000	1	1	0	1	0
42	309	0	10000	1	1	0	1	0
41	310	0	10000	1	1	0	1	0
40	311	0	10000	1	1	0	1	0
38	312	0	10000	1	1	0	1	0
36	313	0	10000	1	1	0	1	0
35	314	0	10000	1	1	0	1	0
35	315	0	10000	1	1	0	1	0
33	316	0	10000	1	1	0	1	0
33	317	0	10000	1	1	0	1	0
35	318	0	10000	1	1	0	1	0
35	319	0	10000	1	1	0	1	0
34	320	0	10000	1	1	0	1	0
33	321	0	10000	1	1	0	1	0
34	322	0	10000	1	1	0	1	0
34	323	0	10000	1	1	0	1	0
33	324	0	10000	1	1	0	1	0
32	325	0	10000	1	1	0	1	0
32	326	0	10000	1	1	0	1	0
32	327	0	10000	1	1	0	1	0
36	328	0	10000	1	1	0	1	0
40	329	0	10000	1	1	0	1	0
47	330	0	10000	1	1	0	1	0
52	331	0	10000	1	1	0	1	0
50	332	0	10000	1	1	0	1	0
50	333	0	10000	1	1	0	1	0
49	334	0	10000	1	1	0	1	0
47	335	0	10000	1	1	0	1	0
46	336	0	10000	1	1	0	1	0
52	337	0	10000	1	1	0	1	0
58	338	0	10000	1	1	0	1	0
57	339	0	10000	1	1	0	1	0
56	340	0	10000	1	1	0	1	0
54	341	0	10000	1	1	0	1	0
56	342	0	10000	1	1	0	1	0
57	343	0	10000	1	1	0	1	0
61	344	0	10000	1	1	0	1	0
61	345	0	10000	1	1	0	1	0
60	346	0	10000	1	1	0	1	0
61	347	0	10000	1	1	0	1	0
59	348	0	10000	1	1	0	1	0
59	349	0	10000	1	1	0	1	0
58	350	0	10000	1	1	0	1	0
58	351	0	10000	1	1	0	1	0
59	352	0	10000	1	1	0	1	0
62	353	0	10000	1	1	0	1	0
70	354	0	10000	1	1	0	1	0
79	355	0	10000	1	1	0	1	0
87	356	0	10000	1	1	0	1	0
94	357	0	10000	1	1	0	1	0
92	358	0	10000	1	1	0	1	0
91	359	0	10000	1	1	0	1	0
89	360	0	10000	1	1	0	1	0
93	361	0	10000	1	1	0	1	0
94	362	0	10000	1	1	0	1	0
91	363	0	10000	1	1	0	1	0
87	364	0	10000	1	1	0	1	0
88	365	0	10000	1	1	0	1	0
89	366	0	10000	1	1	0	1	0
90	367	0	10000	1	1	0	1	0
91	368	0	10000	1	1	0	1	0
94	369	0	10000	1	1	0	1	0
98	370	0	10000	1	1	0	1	0
101	371	0	10000	1	1	0	1	0
104	372	0	10000	1	1	0	1	0
102	373	0	10000	1	1	0	1	0
101	374	0	10000	1	1	0	1	0
98	375	0	10000	1	1	0	1	0
93	376	0	10000	1	1	0	1	0
91	377	0	10000	1	1	0	1	0
91	378	0	10000	1	1	0	1	0
94	379	0	10000	1	1	0	1	0
98	380	0	10000	1	1	0	1	0
101	381	0	10000	1	1	0	1	0
102	382	0	10000	1	1	0	1	0
105	383	0	10000	1	1	0	1	0
105	384	0	10000	1	1	0	1	0
104	385	0	10000	1	1	0	1	0
102	386	0	10000	1	1	0	1	0
103	387	0	10000	1	1	0	1	0
104	388	0	10000	1	1	0	1	0
104	389	0	10000	1	1	0	1	0
100	390	0	10000	1	1	0	1	0
97	391	0	10000	1	1	0	1	0
92	392	0	10000	1	1	0	1	0
92	393	0	10000	1	1	0	1	0
92	394	0	10000	1	1	0	1	0
89	395	0	10000	1	1	0	1	0
85	396	0	10000	1	1	0	1	0
83	397	0	10000	1	1	0	1	0
84	398	0	10000	1	1	0	1	0
80	399	0	10000	1	1	0	1	0
79	400	0	10000	1	1	0	1	0
77	401	0	10000	1	1	0	1	0
76	402	0	10000	1	1	0	1	0
77	403	0	10000	1	1	0	1	0
81	404	0	10000	1	1	0	1	0
79	405	0	10000	1	1	0	1	0
82	406	0	10000	1	1	0	1	0
85	407	0	10000	1	1	0	1	0
90	408	0	10000	1	1	0	1	0
92	409	0	10000	1	1	0	1	0
93	410	0	10000	1	1	0	1	0
94	411	0	10000	1	1	0	1	0
92	412	0	10000	1	1	0	1	0
87	413	0	10000	1	1	0	1	0
85	414	0	10000	1	1	0	1	0
86	415	0	10000	1	1	0	1	0
88	416	0	10000	1	1	0	1	0
88	417	0	10000	1	1	0	1	0
91	418	0	10000	1	1	0	1	0
94	419	0	10000	1	1	0	1	0
95	420	0	10000	1	1	0	1	0
92	421	0	10000	1	1	0	1	0
90	422	0	10000	1	1	0	1	0
90	423	0	10000	1	1	0	1	0
89	424	0	10000	1	1	0	1	0
90	425	0	10000	1	1	0	1	0
91	426	0	10000	1	1	0	1	0
92	427	0	10000	1	1	0	1	0
91	428	0	10000	1	1	0	1	0
89	429	0	10000	1	1	0	1	0
94	430	0	10000	1	1	0	1	0
99	431	0	10000	1	1	0	1	0
100	432	0	10000	1	1	0	1	0
96	433	0	10000	1	1	0	1	0
93	434	0	10000	1	1	0	1	0
93	435	0	10000	1	1	0	1	0
91	436	0	10000	1	1	0	1	0
94	437	0	10000	1	1	0	1	0
99	438	0	10000	1	1	0	1	0
104	439	0	10000	1	1	0	1	0
108	440	0	10000	1	1	0	1	0
108	441	0	10000	1	1	0	1	0
110	442	0	10000	1	1	0	1	0
116	443	0	10000	1	1	0	1	0
114	444	0	10000	1	1	0	1	0
112	445	0	10000	1	1	0	1	0
112	446	0	10000	1	1	0	1	0
110	447	0	10000	1	1	0	1	0
107	448	0	10000	1	1	0	1	0
105	449	0	10000	1	1	0	1	0
104	450	0	10000	1	1	0	1	0
99	451	0	10000	1	1	0	1	0
98	452	0	10000	1	1	0	1	0
96	453	0	10000	1	1	0	1	0
97	454	0	10000	1	1	0	1	0
97	455	0	10000	1	1	0	1	0
95	456	0	10000	1	1	0	1	0
91	457	0	10000	1	1	0	1	0
87	458	0	10000	1	1	0	1	0
84	459	0	10000	1	1	0	1	0
84	460	0	10000	1	1	0	1	0
86	461	0	10000	1	1	0	1	0
88	462	0	10000	1	1	0	1	0
88	463	0	10000	1	1	0	1	0
85	464	0	10000	1	1	0	1	0
83	465	0	10000	1	1	0	1	0
80	466	0	10000	1	1	0	1	0
78	467	0	10000	1	1	0	1	0
75	468	0	10000	1	1	0	1	0
73	469	0	10000	1	1	0	1	0
71	470	0	10000	1	1	0	1	0
69	471	0	10000	1	1	0	1	0
69	472	0	10000	1	1	0	1	0
66	473	0	10000	1	1	0	1	0
64	474	0	10000	1	1	0	1	0
63	475	0	10000	1	1	0	1	0
61	476	0	10000	1	1	0	1	0
59	477	0	10000	1	1	0	1	0
57	478	0	10000	1	1	0	1	0
59	479	0	10000	1	1	0	1	0
65	480	0	10000	1	1	0	1	0
72	481	0	10000	1	1	0	1	0
73	482	0	10000	1	1	0	1	0
76	483	0	10000	1	1	0	1	0
80	484	0	10000	1	1	0	1	0
83	485	0	10000	1	1	0	1	0
85	486	0	10000	1	1	0	1	0
88	487	0	10000	1	1	0	1	0
85	488	0	10000	1	1	0	1	0
84	489	0	10000	1	1	0	1	0
86	490	0	10000	1	1	0	1	0
93	491	0	10000	1	1	0	1	0
92	492	0	10000	1	1	0	1	0
96	493	0	10000	1	1	0	1	0
99	494	0	10000	1	1	0	1	0
98	495	0	10000	1	1	0	1	0
96	496	0	10000	1	1	0	1	0
94	497	0	10000	1	1	0	1	0
93	498	0	10000	1	1	0	1	0
93	499	0	10000	1	1	0	1	0
93	500	0	10000	1	1	0	1	0
90	542	0	10000	1	1	0	1	1
87	543	0	10000	1	1	0	1	1
85	544	0	10000	1	1	0	1	1
83	545	0	10000	1	1	0	1	1
80	546	0	10000	1	1	0	1	1
78	547	0	10000	1	1	0	1	1
76	548	0	10000	1	1	0	1	1
74	549	0	10000	1	1	0	1	1
74	550	0	10000	1	1	0	1	1
74	551	0	10000	1	1	0	1	1
73	552	0	10000	1	1	0	1	1
69	553	0	10000	1	1	0	1	1
67	554	0	10000	1	1	0	1	1
65	555	0	10000	1	1	0	1	1
63	556	0	10000	1	1	0	1	1
60	557	0	10000	1	1	0	1	1
60	558	0	10000	1	1	0	1	1
60	559	0	10000	1	1	0	1	1
59	560	0	10000	1	1	0	1	1
56	561	0	10000	1	1	0	1	1
54	562	0	10000	1	1	0	1	1
53	563	0	10000	1	1	0	1	1
54	564	0	10000	1	1	0	1	1
56	565	0	10000	1	1	0	1	1
55	566	0	10000	1	1	0	1	1
54	567	0	10000	1	1	0	1	1
54	568	0	10000	1	1	0	1	1
55	569	0	10000	1	1	0	1	1
56	570	0	10000	1	1	0	1	1
55	571	0	10000	1	1	0	1	1
54	572	0	10000	1	1	0	1	1
52	573	0	10000	1	1	0	1	1
49	574	0	10000	1	1	0	1	1
50	575	0	10000	1	1	0	1	1
50	576	0	10000	1	1	0	1	1
48	577	0	10000	1	1	0	1	1
47	578	0	10000	1	1	0	1	1
50	579	0	10000	1	1	0	1	1
51	580	0	10000	1	1	0	1	1
52	581	0	10000	1	1	0	1	1
56	582	0	10000	1	1	0	1	1
58	583	0	10000	1	1	0	1	1
58	546	0	10000	1	1	0	1	1
56	547	0	10000	1	1	0	1	1
55	548	0	10000	1	1	0	1	1
57	549	0	10000	1	1	0	1	1
60	547	0	10000	1	1	0	1	1
61	548	0	10000	1	1	0	1	1
61	549	0	10000	1	1	0	1	1
59	550	0	10000	1	1	0	1	1
58	551	0	10000	1	1	0	1	0
55	552	0	10000	1	1	0	1	0
54	553	0	10000	1	1	0	1	0
52	554	0	10000	1	1	0	1	0
51	555	0	10000	1	1	0	1	0
51	556	0	10000	1	1	0	1	0
53	557	0	10000	1	1	0	1	0
53	558	0	10000	1	1	0	1	0
53	559	0	10000	1	1	0	1	0
56	560	0	10000	1	1	0	1	0
57	561	0	10000	1	1	0	1	0
56	562	0	10000	1	1	0	1	0
56	563	0	10000	1	1	0	1	0
59	564	0	10000	1	1	0	1	0
60	565	0	10000	1	1	0	1	0
57	566	0	10000	1	1	0	1	0
57	567	0	10000	1	1	0	1	0
58	568	0	10000	1	1	0	1	0
63	569	0	10000	1	1	0	1	0
68	570	0	10000	1	1	0	1	0
70	571	0	10000	1	1	0	1	0
72	572	0	10000	1	1	0	1	0
77	573	0	10000	1	1	0	1	0
86	574	0	10000	1	1	0	1	0
93	575	0	10000	1	1	0	1	0
97	576	0	10000	1	1	0	1	0
97	577	0	10000	1	1	0	1	0
100	578	0	10000	1	1	0	1	0
99	579	0	10000	1	1	0	1	0
96	580	0	10000	1	1	0	1	0
100	581	0	10000	1	1	0	1	0
105	582	0	10000	1	1	0	1	0
111	583	0	10000	1	1	0	1	0
116	584	0	10000	1	1	0	1	0
126	585	0	10000	1	1	0	1	0
132	586	0	10000	1	1	0	1	0
135	587	0	10000	1	1	0	1	0
131	588	0	10000	1	1	0	1	0
128	589	0	10000	1	1	0	1	0
128	590	0	10000	1	1	0	1	0
131	591	0	10000	1	1	0	1	0
136	592	0	10000	1	1	0	1	0
134	593	0	10000	1	1	0	1	0
129	594	0	10000	1	1	0	1	0
128	595	0	10000	1	1	0	1	0
125	596	0	10000	1	1	0	1	0
120	597	0	10000	1	1	0	1	0
114	598	0	10000	1	1	0	1	0
111	599	0	10000	1	1	0	1	0
105	600	0	10000	1	1	0	1	0
101	601	0	10000	1	1	0	1	0
99	602	0	10000	1	1	0	1	0
98	603	0	10000	1	1	0	1	0
98	604	0	10000	1	1	0	1	0
98	605	0	10000	1	1	0	1	0
98	606	0	10000	1	1	0	1	0
101	607	0	10000	1	1	0	1	0
104	608	0	10000	1	1	0	1	0
104	609	0	10000	1	1	0	1	0
107	610	0	10000	1	1	0	1	0
108	611	0	10000	1	1	0	1	0
108	612	0	10000	1	1	0	1	0
108	613	0	10000	1	1	0	1	0
109	614	0	10000	1	1	0	1	0
114	615	0	10000	1	1	0	1	0
115	616	0	10000	1	1	0	1	0
114	617	0	10000	1	1	0	1	0
114	618	0	10000	1	1	0	1	0
114	619	0	10000	1	1	0	1	0
116	620	0	10000	1	1	0	1	0
119	621	0	10000	1	1	0	1	0
121	622	0	10000	1	1	0	1	0
126	623	0	10000	1	1	0	1	0
128	624	0	10000	1	1	0	1	0
127	625	0	10000	1	1	0	1	0
125	626	0	10000	1	1	0	1	0
125	627	0	10000	1	1	0	1	0
123	628	0	10000	1	1	0	1	0
121	629	0	10000	1	1	0	1	0
119	630	0	10000	1	1	0	1	0
120	631	0	10000	1	1	0	1	0
119	632	0	10000	1	1	0	1	0
116	633	0	10000	1	1	0	1	0
120	634	0	10000	1	1	0	1	0
127	635	0	10000	1	1	0	1	0
131	636	0	10000	1	1	0	1	0
142	637	0	10000	1	1	0	1	0
155	638	0	10000	1	1	0	1	0
153	639	0	10000	1	1	0	1	0
148	640	0	10000	1	1	0	1	0
142	641	0	10000	1	1	0	1	0
137	642	0	10000	1	1	0	1	0
137	643	0	10000	1	1	0	1	0
139	644	0	10000	1	1	0	1	0
157	645	0	10000	1	1	0	1	0
159	646	0	10000	1	1	0	1	0
162	647	0	10000	1	1	0	1	0
166	648	0	10000	1	1	0	1	0
165	649	0	10000	1	1	0	1	0
190	650	0	10000	1	1	0	1	0
234	651	0	10000	1	1	0	1	0
240	652	0	10000	1	1	0	1	0
275	653	0	10000	1	1	0	1	0
305	654	0	10000	1	1	0	1	0
301	655	0	10000	1	1	0	1	0
296	656	0	10000	1	1	0	1	0
297	657	0	10000	1	1	0	1	0
329	658	0	10000	1	1	0	1	0
367	659	0	10000	1	1	0	1	0
372	660	0	10000	1	1	0	1	0
365	661	0	10000	1	1	0	1	0
363	662	0	10000	1	1	0	1	0
353	663	0	10000	1	1	0	1	0
359	664	0	10000	1	1	0	1	0
364	665	0	10000	1	1	0	1	0
361	666	0	10000	1	1	0	1	0
390	667	0	10000	1	1	0	1	0
419	668	0	10000	1	1	0	1	0
411	669	0	10000	1	1	0	1	0
424	670	0	10000	1	1	0	1	0
449	671	0	10000	1	1	0	1	0
460	672	0	10000	1	1	0	1	0
447	673	0	10000	1	1	0	1	0
431	674	0	10000	1	1	0	1	0
419	675	0	10000	1	1	0	1	0
412	676	0	10000	1	1	0	1	0
407	677	0	10000	1	1	0	1	0
403	678	0	10000	1	1	0	1	0
402	679	0	10000	1	1	0	1	0
401	680	0	10000	1	1	0	1	0
401	681	0	10000	1	1	0	1	0
403	682	0	10000	1	1	0	1	0
404	683	0	10000	1	1	0	1	0
401	684	0	10000	1	1	0	1	0
396	685	0	10000	1	1	0	1	0
395	686	0	10000	1	1	0	1	0
395	687	0	10000	1	1	0	1	0
394	688	0	10000	1	1	0	1	0
393	689	0	10000	1	1	0	1	0
391	690	0	10000	1	1	0	1	0
389	691	0	10000	1	1	0	1	0
388	692	0	10000	1	1	0	1	0
384	693	0	10000	1	1	0	1	0
379	694	0	10000	1	1	0	1	0
373	695	0	10000	1	1	0	1	0
366	696	0	10000	1	1	0	1	0
357	697	0	10000	1	1	0	1	0
350	698	0	10000	1	1	0	1	0
346	699	0	10000	1	1	0	1	0
337	700	0	10000	1	1	0	1	0
322	701	0	10000	1	1	0	1	0
310	702	0	10000	1	1	0	1	0
299	703	0	10000	1	1	0	1	0
288	704	0	10000	1	1	0	1	0
275	705	0	10000	1	1	0	1	0
265	706	0	10000	1	1	0	1	0
264	707	0	10000	1	1	0	1	0
262	708	0	10000	1	1	0	1	0
258	709	0	10000	1	1	0	1	0
253	710	0	10000	1	1	0	1	0
247	711	0	10000	1	1	0	1	0
242	712	0	10000	1	1	0	1	0
242	713	0	10000	1	1	0	1	0
239	714	0	10000	1	1	0	1	0
235	715	0	10000	1	1	0	1	0
234	716	0	10000	1	1	0	1	0
232	717	0	10000	1	1	0	1	0
231	718	0	10000	1	1	0	1	0
228	719	0	10000	1	1	0	1	0
225	720	0	10000	1	1	0	1	0
221	721	0	10000	1	1	0	1	0
216	722	0	10000	1	1	0	1	0
215	723	0	10000	1	1	0	1	0
214	724	0	10000	1	1	0	1	0
214	725	0	10000	1	1	0	1	0
213	726	0	10000	1	1	0	1	0
210	727	0	10000	1	1	0	1	0
203	728	0	10000	1	1	0	1	0
196	729	0	10000	1	1	0	1	0
192	730	0	10000	1	1	0	1	0
188	731	0	10000	1	1	0	1	0
182	732	0	10000	1	1	0	1	0
175	733	0	10000	1	1	0	1	0
169	734	0	10000	1	1	0	1	0
164	735	0	10000	1	1	0	1	0
163	736	0	10000	1	1	0	1	0
159	737	0	10000	1	1	0	1	0
155	738	0	10000	1	1	0	1	0
151	739	0	10000	1	1	0	1	0
147	740	0	10000	1	1	0	1	0
144	741	0	10000	1	1	0	1	0
142	742	0	10000	1	1	0	1	0
141	743	0	10000	1	1	0	1	0
138	744	0	10000	1	1	0	1	0
136	745	0	10000	1	1	0	1	0
133	746	0	10000	1	1	0	1	0
129	747	0	10000	1	1	0	1	0
127	748	0	10000	1	1	0	1	0
125	749	0	10000	1	1	0	1	0
126	750	0	10000	1	1	0	1	0
124	751	0	10000	1	1	0	1	0
120	752	0	10000	1	1	0	1	0
116	753	0	10000	1	1	0	1	0
113	754	0	10000	1	1	0	1	0
108	755	0	10000	1	1	0	1	0
106	756	0	10000	1	1	0	1	0
102	757	0	10000	1	1	0	1	0
98	758	0	10000	1	1	0	1	0
96	759	0	10000	1	1	0	1	0
93	760	0	10000	1	1	0	1	0
92	761	0	10000	1	1	0	1	0
91	762	0	10000	1	1	0	1	0
93	763	0	10000	1	1	0	1	0
93	764	0	10000	1	1	0	1	0
90	765	0	10000	1	1	0	1	0
88	766	0	10000	1	1	0	1	0
84	767	0	10000	1	1	0	1	0
80	768	0	10000	1	1	0	1	0
77	769	0	10000	1	1	0	1	0
74	770	0	10000	1	1	0	1	0
72	771	0	10000	1	1	0	1	0
69	772	0	10000	1	1	0	1	0
68	773	0	10000	1	1	0	1	0
68	774	0	10000	1	1	0	1	0
68	775	0	10000	1	1	0	1	0
69	776	0	10000	1	1	0	1	0
68	777	0	10000	1	1	0	1	0
67	778	0	10000	1	1	0	1	0
66	779	0	10000	1	1	0	1	0
66	780	0	10000	1	1	0	1	0
63	781	0	10000	1	1	0	1	0
61	782	0	10000	1	1	0	1	0
60	783	0	10000	1	1	0	1	0
59	784	0	10000	1	1	0	1	0
57	785	0	10000	1	1	0	1	0
57	786	0	10000	1	1	0	1	0
57	787	0	10000	1	1	0	1	0
57	788	0	10000	1	1	0	1	0
59	789	0	10000	1	1	0	1	0
62	790	0	10000	1	1	0	1	0
62	791	0	10000	1	1	0	1	0
59	792	0	10000	1	1	0	1	0
56	793	0	10000	1	1	0	1	0
55	794	0	10000	1	1	0	1	0
54	795	0	10000	1	1	0	1	0
53	796	0	10000	1	1	0	1	0
51	797	0	10000	1	1	0	1	0
51	798	0	10000	1	1	0	1	0
50	799	0	10000	1	1	0	1	0
48	800	0	10000	1	1	0	1	0
46	801	0	10000	1	1	0	1	0
45	802	0	10000	1	1	0	1	0
47	803	0	10000	1	1	0	1	0
48	804	0	10000	1	1	0	1	0
48	805	0	10000	1	1	0	1	0
45	806	0	10000	1	1	0	1	0
44	807	0	10000	1	1	0	1	0
43	808	0	10000	1	1	0	1	0
43	809	0	10000	1	1	0	1	0
43	810	0	10000	1	1	0	1	0
44	811	0	10000	1	1	0	1	0
44	812	0	10000	1	1	0	1	0
41	813	0	10000	1	1	0	1	0
39	814	0	10000	1	1	0	1	0
40	815	0	10000	1	1	0	1	0
38	816	0	10000	1	1	0	1	0
37	817	0	10000	1	1	0	1	0
39	818	0	10000	1	1	0	1	0
40	819	0	10000	1	1	0	1	0
40	820	0	10000	1	1	0	1	0
40	821	0	10000	1	1	0	1	0
40	822	0	10000	1	1	0	1	0
43	823	0	10000	1	1	0	1	0
44	824	0	10000	1	1	0	1	0
44	825	0	10000	1	1	0	1	0
43	826	0	10000	1	1	0	1	0
41	827	0	10000	1	1	0	1	0
40	828	0	10000	1	1	0	1	0
38	829	0	10000	1	1	0	1	0
38	830	0	10000	1	1	0	1	0
39	831	0	10000	1	1	0	1	0
41	832	0	10000	1	1	0	1	0
42	833	0	10000	1	1	0	1	0
45	834	0	10000	1	1	0	1	0
45	835	0	10000	1	1	0	1	0
47	836	0	10000	1	1	0	1	0
48	837	0	10000	1	1	0	1	0
46	838	0	10000	1	1	0	1	0
45	839	0	10000	1	1	0	1	0
44	840	0	10000	1	1	0	1	0
44	841	0	10000	1	1	0	1	0
44	842	0	10000	1	1	0	1	0
48	843	0	10000	1	1	0	1	0
47	844	0	10000	1	1	0	1	0
45	845	0	10000	1	1	0	1	0
44	846	0	10000	1	1	0	1	0
42	847	0	10000	1	1	0	1	0
41	848	0	10000	1	1	0	1	0
41	849	0	10000	1	1	0	1	0
39	850	0	10000	1	1	0	1	0
41	851	0	10000	1	1	0	1	0
39	852	0	10000	1	1	0	1	0
36	853	0	10000	1	1	0	1	0
38	854	0	10000	1	1	0	1	0
39	855	0	10000	1	1	0	1	0
40	856	0	10000	1	1	0	1	0
39	857	0	10000	1	1	0	1	0
41	858	0	10000	1	1	0	1	0
42	859	0	10000	1	1	0	1	0
43	860	0	10000	1	1	0	1	0
42	861	0	10000	1	1	0	1	0
45	862	0	10000	1	1	0	1	0
46	863	0	10000	1	1	0	1	0
44	864	0	10000	1	1	0	1	0
44	865	0	10000	1	1	0	1	0
42	866	0	10000	1	1	0	1	0
40	867	0	10000	1	1	0	1	0
42	868	0	10000	1	1	0	1	0
42	869	0	10000	1	1	0	1	0
41	870	0	10000	1	1	0	1	0
41	871	0	10000	1	1	0	1	0
40	872	0	10000	1	1	0	1	0
36	873	0	10000	1	1	0	1	0
36	874	0	10000	1	1	0	1	0
36	875	0	10000	1	1	0	1	0
36	876	0	10000	1	1	0	1	0
34	877	0	10000	1	1	0	1	0
33	878	0	10000	1	1	0	1	0
33	879	0	10000	1	1	0	1	0
32	880	0	10000	1	1	0	1	0
33	881	0	10000	1	1	0	1	0
36	882	0	10000	1	1	0	1	0
40	883	0	10000	1	1	0	1	0
39	884	0	10000	1	1	0	1	0
40	885	0	10000	1	1	0	1	0
40	886	0	10000	1	1	0	1	0
39	887	0	10000	1	1	0	1	0
40	888	0	10000	1	1	0	1	0
41	889	0	10000	1	1	0	1	0
43	890	0	10000	1	1	0	1	0
43	891	0	10000	1	1	0	1	0
42	892	0	10000	1	1	0	1	0
39	893	0	10000	1	1	0	1	0
39	894	0	10000	1	1	0	1	0
39	895	0	10000	1	1	0	1	0
40	896	0	10000	1	1	0	1	0
45	897	0	10000	1	1	0	1	0
47	898	0	10000	1	1	0	1	0
49	899	0	10000	1	1	0	1	0
48	900	0	10000	1	1	0	1	0
46	901	0	10000	1	1	0	1	0
46	902	0	10000	1	1	0	1	0
52	903	0	10000	1	1	0	1	0
53	904	0	10000	1	1	0	1	0
52	905	0	10000	1	1	0	1	0
50	906	0	10000	1	1	0	1	0
48	907	0	10000	1	1	0	1	0
48	908	0	10000	1	1	0	1	0
49	909	0	10000	1	1	0	1	0
49	910	0	10000	1	1	0	1	0
50	911	0	10000	1	1	0	1	0
54	912	0	10000	1	1	0	1	0
55	913	0	10000	1	1	0	1	0
56	914	0	10000	1	1	0	1	0
56	915	0	10000	1	1	0	1	0
59	916	0	10000	1	1	0	1	0
63	917	0	10000	1	1	0	1	0
65	918	0	10000	1	1	0	1	0
64	919	0	10000	1	1	0	1	0
60	920	0	10000	1	1	0	1	0
57	921	0	10000	1	1	0	1	0
57	922	0	10000	1	1	0	1	0
57	923	0	10000	1	1	0	1	0
55	924	0	10000	1	1	0	1	0
53	925	0	10000	1	1	0	1	0
50	926	0	10000	1	1	0	1	0
49	927	0	10000	1	1	0	1	0
47	928	0	10000	1	1	0	1	0
45	929	0	10000	1	1	0	1	0
44	930	0	10000	1	1	0	1	0
44	931	0	10000	1	1	0	1	0
46	932	0	10000	1	1	0	1	0
45	933	0	10000	1	1	0	1	0
45	934	0	10000	1	1	0	1	0
45	935	0	10000	1	1	0	1	0
44	936	0	10000	1	1	0	1	0
43	937	0	10000	1	1	0	1	0
42	938	0	10000	1	1	0	1	0
43	939	0	10000	1	1	0	1	0
44	940	0	10000	1	1	0	1	0
43	941	0	10000	1	1	0	1	0
41	942	0	10000	1	1	0	1	0
43	943	0	10000	1	1	0	1	0
41	944	0	10000	1	1	0	1	0
41	945	0	10000	1	1	0	1	0
39	946	0	10000	1	1	0	1	0
40	947	0	10000	1	1	0	1	0
38	948	0	10000	1	1	0	1	0
37	949	0	10000	1	1	0	1	0
39	950	0	10000	1	1	0	1	0
40	951	0	10000	1	1	0	1	0
42	952	0	10000	1	1	0	1	0
40	953	0	10000	1	1	0	1	0
41	954	0	10000	1	1	0	1	0
45	955	0	10000	1	1	0	1	0
48	956	0	10000	1	1	0	1	0
47	957	0	10000	1	1	0	1	0
45	958	0	10000	1	1	0	1	0
44	959	0	10000	1	1	0	1	0
42	960	0	10000	1	1	0	1	0
43	961	0	10000	1	1	0	1	0
42	962	0	10000	1	1	0	1	0
45	963	0	10000	1	1	0	1	0
47	964	0	10000	1	1	0	1	0
48	965	0	10000	1	1	0	1	0
46	966	0	10000	1	1	0	1	0
46	967	0	10000	1	1	0	1	0
45	968	0	10000	1	1	0	1	0
46	969	0	10000	1	1	0	1	0
51	970	0	10000	1	1	0	1	0
52	971	0	10000	1	1	0	1	0
58	972	0	10000	1	1	0	1	0
70	973	0	10000	1	1	0	1	0
81	974	0	10000	1	1	0	1	0
81	975	0	10000	1	1	0	1	0
84	976	0	10000	1	1	0	1	0
88	977	0	10000	1	1	0	1	0
87	978	0	10000	1	1	0	1	0
93	979	0	10000	1	1	0	1	0
115	980	0	10000	1	1	0	1	0
126	981	0	10000	1	1	0	1	0
129	982	0	10000	1	1	0	1	0
146	983	0	10000	1	1	0	1	0
158	984	0	10000	1	1	0	1	0
172	985	0	10000	1	1	0	1	0
183	986	0	10000	1	1	0	1	0
177	987	0	10000	1	1	0	1	0
185	988	0	10000	1	1	0	1	0
195	989	0	10000	1	1	0	1	0
194	990	0	10000	1	1	0	1	0
194	991	0	10000	1	1	0	1	0
206	992	0	10000	1	1	0	1	0
214	993	0	10000	1	1	0	1	0
211	994	0	10000	1	1	0	1	0
202	995	0	10000	1	1	0	1	0
194	996	0	10000	1	1	0	1	0
186	997	0	10000	1	1	0	1	0
183	998	0	10000	1	1	0	1	0
184	999	0	10000	1	1	0	1	0
181	1000	0	10000	1	1	0	1	0
41	1	0	10000	2	1	0	2	0
44	2	0	10000	2	1	0	2	0
42	3	0	10000	2	1	0	2	0
42	4	0	10000	2	1	0	2	0
44	5	0	10000	2	1	0	2	0
46	6	0	10000	2	1	0	2	0
48	7	0	10000	2	1	0	2	0
46	8	0	10000	2	1	0	2	0
48	9	0	10000	2	1	0	2	0
48	10	0	10000	2	1	0	2	0
48	11	0	10000	2	1	0	2	0
45	12	0	10000	2	1	0	2	0
44	13	0	10000	2	1	0	2	0
43	14	0	10000	2	1	0	2	0
42	15	0	10000	2	1	0	2	0
42	16	0	10000	2	1	0	2	0
41	17	0	10000	2	1	0	2	0
40	18	0	10000	2	1	0	2	0
41	19	0	10000	2	1	0	2	0
41	20	0	10000	2	1	0	2	0
44	21	0	10000	2	1	0	2	0
49	22	0	10000	2	1	0	2	0
50	23	0	10000	2	1	0	2	0
50	24	0	10000	2	1	0	2	0
51	25	0	10000	2	1	0	2	0
53	26	0	10000	2	1	0	2	0
54	27	0	10000	2	1	0	2	0
54	28	0	10000	2	1	0	2	0
53	29	0	10000	2	1	0	2	0
55	30	0	10000	2	1	0	2	0
57	31	0	10000	2	1	0	2	0
57	32	0	10000	2	1	0	2	0
58	33	0	10000	2	1	0	2	0
58	34	0	10000	2	1	0	2	0
57	35	0	10000	2	1	0	2	0
59	36	0	10000	2	1	0	2	0
59	37	0	10000	2	1	0	2	0
59	38	0	10000	2	1	0	2	0
58	39	0	10000	2	1	0	2	0
57	40	0	10000	2	1	0	2	0
61	41	0	10000	2	1	0	2	0
66	42	0	10000	2	1	0	2	0
68	43	0	10000	2	1	0	2	0
69	44	0	10000	2	1	0	2	0
67	45	0	10000	2	1	0	2	0
65	46	0	10000	2	1	0	2	0
67	47	0	10000	2	1	0	2	0
71	48	0	10000	2	1	0	2	0
75	49	0	10000	2	1	0	2	0
73	50	0	10000	2	1	0	2	0
71	51	0	10000	2	1	0	2	0
67	52	0	10000	2	1	0	2	0
77	53	0	10000	2	1	0	2	0
88	54	0	10000	2	1	0	2	0
88	55	0	10000	2	1	0	2	0
92	56	0	10000	2	1	0	2	0
91	57	0	10000	2	1	0	2	0
88	58	0	10000	2	1	0	2	0
90	59	0	10000	2	1	0	2	0
97	60	0	10000	2	1	0	2	0
98	61	0	10000	2	1	0	2	0
104	62	0	10000	2	1	0	2	0
101	63	0	10000	2	1	0	2	0
97	64	0	10000	2	1	0	2	0
96	65	0	10000	2	1	0	2	0
106	66	0	10000	2	1	0	2	0
122	67	0	10000	2	1	0	2	0
127	68	0	10000	2	1	0	2	0
129	69	0	10000	2	1	0	2	0
128	70	0	10000	2	1	0	2	0
121	71	0	10000	2	1	0	2	0
116	72	0	10000	2	1	0	2	0
114	73	0	10000	2	1	0	2	0
111	74	0	10000	2	1	0	2	0
114	75	0	10000	2	1	0	2	0
119	76	0	10000	2	1	0	2	0
127	77	0	10000	2	1	0	2	0
142	78	0	10000	2	1	0	2	0
150	79	0	10000	2	1	0	2	0
151	80	0	10000	2	1	0	2	0
155	81	0	10000	2	1	0	2	0
152	82	0	10000	2	1	0	2	0
148	83	0	10000	2	1	0	2	0
141	84	0	10000	2	1	0	2	0
135	85	0	10000	2	1	0	2	0
130	86	0	10000	2	1	0	2	0
127	87	0	10000	2	1	0	2	0
124	88	0	10000	2	1	0	2	0
123	89	0	10000	2	1	0	2	0
122	90	0	10000	2	1	0	2	0
119	91	0	10000	2	1	0	2	0
115	92	0	10000	2	1	0	2	0
110	93	0	10000	2	1	0	2	0
108	94	0	10000	2	1	0	2	0
107	95	0	10000	2	1	0	2	0
105	96	0	10000	2	1	0	2	0
102	97	0	10000	2	1	0	2	0
99	98	0	10000	2	1	0	2	0
100	99	0	10000	2	1	0	2	0
106	100	0	10000	2	1	0	2	0
112	101	0	10000	2	1	0	2	0
113	102	0	10000	2	1	0	2	0
108	103	0	10000	2	1	0	2	0
105	104	0	10000	2	1	0	2	0
101	105	0	10000	2	1	0	2	0
96	106	0	10000	2	1	0	2	0
95	107	0	10000	2	1	0	2	0
94	108	0	10000	2	1	0	2	0
92	109	0	10000	2	1	0	2	0
90	110	0	10000	2	1	0	2	0
85	111	0	10000	2	1	0	2	0
81	112	0	10000	2	1	0	2	0
82	113	0	10000	2	1	0	2	0
83	114	0	10000	2	1	0	2	0
83	115	0	10000	2	1	0	2	0
82	116	0	10000	2	1	0	2	0
80	117	0	10000	2	1	0	2	0
79	118	0	10000	2	1	0	2	0
76	119	0	10000	2	1	0	2	0
72	120	0	10000	2	1	0	2	0
70	121	0	10000	2	1	0	2	0
70	122	0	10000	2	1	0	2	0
66	123	0	10000	2	1	0	2	0
64	124	0	10000	2	1	0	2	0
62	125	0	10000	2	1	0	2	0
61	126	0	10000	2	1	0	2	0
59	127	0	10000	2	1	0	2	0
57	128	0	10000	2	1	0	2	0
59	129	0	10000	2	1	0	2	0
60	130	0	10000	2	1	0	2	0
60	131	0	10000	2	1	0	2	0
57	132	0	10000	2	1	0	2	0
58	133	0	10000	2	1	0	2	0
60	134	0	10000	2	1	0	2	0
65	135	0	10000	2	1	0	2	0
66	136	0	10000	2	1	0	2	0
64	137	0	10000	2	1	0	2	0
62	138	0	10000	2	1	0	2	0
60	139	0	10000	2	1	0	2	0
58	140	0	10000	2	1	0	2	0
59	141	0	10000	2	1	0	2	0
62	142	0	10000	2	1	0	2	0
61	143	0	10000	2	1	0	2	0
59	144	0	10000	2	1	0	2	0
56	145	0	10000	2	1	0	2	0
56	146	0	10000	2	1	0	2	0
56	147	0	10000	2	1	0	2	0
54	148	0	10000	2	1	0	2	0
53	149	0	10000	2	1	0	2	0
53	150	0	10000	2	1	0	2	0
51	151	0	10000	2	1	0	2	0
47	152	0	10000	2	1	0	2	0
50	153	0	10000	2	1	0	2	0
55	154	0	10000	2	1	0	2	0
56	155	0	10000	2	1	0	2	0
58	156	0	10000	2	1	0	2	0
60	157	0	10000	2	1	0	2	0
60	158	0	10000	2	1	0	2	0
57	159	0	10000	2	1	0	2	0
57	160	0	10000	2	1	0	2	0
60	161	0	10000	2	1	0	2	0
59	162	0	10000	2	1	0	2	0
56	163	0	10000	2	1	0	2	0
54	164	0	10000	2	1	0	2	0
52	165	0	10000	2	1	0	2	0
55	166	0	10000	2	1	0	2	0
56	167	0	10000	2	1	0	2	0
56	168	0	10000	2	1	0	2	0
58	169	0	10000	2	1	0	2	0
60	170	0	10000	2	1	0	2	0
61	171	0	10000	2	1	0	2	0
62	172	0	10000	2	1	0	2	0
62	173	0	10000	2	1	0	2	0
60	174	0	10000	2	1	0	2	0
59	175	0	10000	2	1	0	2	0
57	176	0	10000	2	1	0	2	0
56	177	0	10000	2	1	0	2	0
56	178	0	10000	2	1	0	2	0
59	179	0	10000	2	1	0	2	0
57	180	0	10000	2	1	0	2	0
56	181	0	10000	2	1	0	2	0
60	182	0	10000	2	1	0	2	0
62	183	0	10000	2	1	0	2	0
61	184	0	10000	2	1	0	2	0
61	185	0	10000	2	1	0	2	0
63	186	0	10000	2	1	0	2	0
64	187	0	10000	2	1	0	2	0
67	188	0	10000	2	1	0	2	0
69	189	0	10000	2	1	0	2	0
69	190	0	10000	2	1	0	2	0
66	191	0	10000	2	1	0	2	0
63	192	0	10000	2	1	0	2	0
63	193	0	10000	2	1	0	2	0
64	194	0	10000	2	1	0	2	0
63	195	0	10000	2	1	0	2	0
63	196	0	10000	2	1	0	2	0
63	197	0	10000	2	1	0	2	0
64	198	0	10000	2	1	0	2	0
64	199	0	10000	2	1	0	2	0
63	200	0	10000	2	1	0	2	0
61	201	0	10000	2	1	0	2	0
64	202	0	10000	2	1	0	2	0
64	203	0	10000	2	1	0	2	0
66	204	0	10000	2	1	0	2	0
66	205	0	10000	2	1	0	2	0
64	206	0	10000	2	1	0	2	0
62	207	0	10000	2	1	0	2	0
59	208	0	10000	2	1	0	2	0
59	209	0	10000	2	1	0	2	0
61	210	0	10000	2	1	0	2	0
62	211	0	10000	2	1	0	2	0
58	212	0	10000	2	1	0	2	0
57	213	0	10000	2	1	0	2	0
56	214	0	10000	2	1	0	2	0
58	215	0	10000	2	1	0	2	0
60	216	0	10000	2	1	0	2	0
60	217	0	10000	2	1	0	2	0
57	218	0	10000	2	1	0	2	0
55	219	0	10000	2	1	0	2	0
54	220	0	10000	2	1	0	2	0
52	221	0	10000	2	1	0	2	0
52	222	0	10000	2	1	0	2	0
50	223	0	10000	2	1	0	2	0
47	224	0	10000	2	1	0	2	0
46	225	0	10000	2	1	0	2	0
46	226	0	10000	2	1	0	2	0
49	227	0	10000	2	1	0	2	0
48	228	0	10000	2	1	0	2	0
47	229	0	10000	2	1	0	2	0
46	230	0	10000	2	1	0	2	0
44	231	0	10000	2	1	0	2	0
43	232	0	10000	2	1	0	2	0
42	233	0	10000	2	1	0	2	0
41	234	0	10000	2	1	0	2	0
40	235	0	10000	2	1	0	2	0
40	236	0	10000	2	1	0	2	0
40	237	0	10000	2	1	0	2	0
40	238	0	10000	2	1	0	2	0
38	239	0	10000	2	1	0	2	0
35	240	0	10000	2	1	0	2	0
35	241	0	10000	2	1	0	2	0
35	242	0	10000	2	1	0	2	0
33	243	0	10000	2	1	0	2	0
33	244	0	10000	2	1	0	2	0
33	245	0	10000	2	1	0	2	0
32	246	0	10000	2	1	0	2	0
31	247	0	10000	2	1	0	2	0
30	248	0	10000	2	1	0	2	0
30	249	0	10000	2	1	0	2	0
32	250	0	10000	2	1	0	2	0
32	251	0	10000	2	1	0	2	0
30	252	0	10000	2	1	0	2	0
31	253	0	10000	2	1	0	2	0
31	254	0	10000	2	1	0	2	0
30	255	0	10000	2	1	0	2	0
31	256	0	10000	2	1	0	2	0
34	257	0	10000	2	1	0	2	0
40	258	0	10000	2	1	0	2	0
42	259	0	10000	2	1	0	2	0
40	260	0	10000	2	1	0	2	0
39	261	0	10000	2	1	0	2	0
39	262	0	10000	2	1	0	2	0
38	263	0	10000	2	1	0	2	0
39	264	0	10000	2	1	0	2	0
42	265	0	10000	2	1	0	2	0
45	266	0	10000	2	1	0	2	0
44	267	0	10000	2	1	0	2	0
43	268	0	10000	2	1	0	2	0
44	269	0	10000	2	1	0	2	0
44	270	0	10000	2	1	0	2	0
43	271	0	10000	2	1	0	2	0
39	272	0	10000	2	1	0	2	0
39	273	0	10000	2	1	0	2	0
38	274	0	10000	2	1	0	2	0
38	275	0	10000	2	1	0	2	0
37	276	0	10000	2	1	0	2	0
38	277	0	10000	2	1	0	2	0
41	278	0	10000	2	1	0	2	0
40	279	0	10000	2	1	0	2	0
39	280	0	10000	2	1	0	2	0
41	281	0	10000	2	1	0	2	0
44	282	0	10000	2	1	0	2	0
43	283	0	10000	2	1	0	2	0
42	284	0	10000	2	1	0	2	0
42	285	0	10000	2	1	0	2	0
41	286	0	10000	2	1	0	2	0
42	287	0	10000	2	1	0	2	0
42	288	0	10000	2	1	0	2	0
41	289	0	10000	2	1	0	2	0
41	290	0	10000	2	1	0	2	0
44	291	0	10000	2	1	0	2	0
47	292	0	10000	2	1	0	2	0
50	293	0	10000	2	1	0	2	0
51	294	0	10000	2	1	0	2	0
51	295	0	10000	2	1	0	2	0
50	296	0	10000	2	1	0	2	0
49	297	0	10000	2	1	0	2	0
54	298	0	10000	2	1	0	2	0
54	299	0	10000	2	1	0	2	0
51	300	0	10000	2	1	0	2	0
50	301	0	10000	2	1	0	2	0
51	302	0	10000	2	1	0	2	0
51	303	0	10000	2	1	0	2	0
48	304	0	10000	2	1	0	2	0
48	305	0	10000	2	1	0	2	0
47	306	0	10000	2	1	0	2	0
46	307	0	10000	2	1	0	2	0
44	308	0	10000	2	1	0	2	0
46	309	0	10000	2	1	0	2	0
47	310	0	10000	2	1	0	2	0
44	311	0	10000	2	1	0	2	0
41	312	0	10000	2	1	0	2	0
39	313	0	10000	2	1	0	2	0
39	314	0	10000	2	1	0	2	0
38	315	0	10000	2	1	0	2	0
36	316	0	10000	2	1	0	2	0
36	317	0	10000	2	1	0	2	0
37	318	0	10000	2	1	0	2	0
36	319	0	10000	2	1	0	2	0
35	320	0	10000	2	1	0	2	0
36	321	0	10000	2	1	0	2	0
36	322	0	10000	2	1	0	2	0
34	323	0	10000	2	1	0	2	0
33	324	0	10000	2	1	0	2	0
32	325	0	10000	2	1	0	2	0
31	326	0	10000	2	1	0	2	0
30	327	0	10000	2	1	0	2	0
30	328	0	10000	2	1	0	2	0
31	329	0	10000	2	1	0	2	0
30	330	0	10000	2	1	0	2	0
30	331	0	10000	2	1	0	2	0
29	332	0	10000	2	1	0	2	0
30	333	0	10000	2	1	0	2	0
31	334	0	10000	2	1	0	2	0
31	335	0	10000	2	1	0	2	0
29	336	0	10000	2	1	0	2	0
31	337	0	10000	2	1	0	2	0
31	338	0	10000	2	1	0	2	0
34	339	0	10000	2	1	0	2	0
37	340	0	10000	2	1	0	2	0
39	341	0	10000	2	1	0	2	0
43	342	0	10000	2	1	0	2	0
44	343	0	10000	2	1	0	2	0
43	344	0	10000	2	1	0	2	0
42	345	0	10000	2	1	0	2	0
42	346	0	10000	2	1	0	2	0
40	347	0	10000	2	1	0	2	0
41	348	0	10000	2	1	0	2	0
42	349	0	10000	2	1	0	2	0
41	350	0	10000	2	1	0	2	0
40	351	0	10000	2	1	0	2	0
37	352	0	10000	2	1	0	2	0
37	353	0	10000	2	1	0	2	0
37	354	0	10000	2	1	0	2	0
36	355	0	10000	2	1	0	2	0
37	356	0	10000	2	1	0	2	0
38	357	0	10000	2	1	0	2	0
40	358	0	10000	2	1	0	2	0
39	359	0	10000	2	1	0	2	0
38	360	0	10000	2	1	0	2	0
36	361	0	10000	2	1	0	2	0
36	362	0	10000	2	1	0	2	0
37	363	0	10000	2	1	0	2	0
37	364	0	10000	2	1	0	2	0
35	365	0	10000	2	1	0	2	0
37	366	0	10000	2	1	0	2	0
39	367	0	10000	2	1	0	2	0
40	368	0	10000	2	1	0	2	0
40	369	0	10000	2	1	0	2	0
43	370	0	10000	2	1	0	2	0
43	371	0	10000	2	1	0	2	0
40	372	0	10000	2	1	0	2	0
41	373	0	10000	2	1	0	2	0
41	374	0	10000	2	1	0	2	0
40	375	0	10000	2	1	0	2	0
40	376	0	10000	2	1	0	2	0
39	377	0	10000	2	1	0	2	0
39	378	0	10000	2	1	0	2	0
37	379	0	10000	2	1	0	2	0
36	380	0	10000	2	1	0	2	0
38	381	0	10000	2	1	0	2	0
38	382	0	10000	2	1	0	2	0
38	383	0	10000	2	1	0	2	0
39	384	0	10000	2	1	0	2	0
39	385	0	10000	2	1	0	2	0
39	386	0	10000	2	1	0	2	0
38	387	0	10000	2	1	0	2	0
38	388	0	10000	2	1	0	2	0
39	389	0	10000	2	1	0	2	0
43	390	0	10000	2	1	0	2	0
45	391	0	10000	2	1	0	2	0
42	392	0	10000	2	1	0	2	0
42	393	0	10000	2	1	0	2	0
40	394	0	10000	2	1	0	2	0
40	395	0	10000	2	1	0	2	0
39	396	0	10000	2	1	0	2	0
42	397	0	10000	2	1	0	2	0
45	398	0	10000	2	1	0	2	0
44	399	0	10000	2	1	0	2	0
42	400	0	10000	2	1	0	2	0
42	401	0	10000	2	1	0	2	0
41	402	0	10000	2	1	0	2	0
40	403	0	10000	2	1	0	2	0
38	404	0	10000	2	1	0	2	0
37	405	0	10000	2	1	0	2	0
36	406	0	10000	2	1	0	2	0
34	407	0	10000	2	1	0	2	0
35	408	0	10000	2	1	0	2	0
35	409	0	10000	2	1	0	2	0
38	410	0	10000	2	1	0	2	0
40	411	0	10000	2	1	0	2	0
39	412	0	10000	2	1	0	2	0
40	413	0	10000	2	1	0	2	0
38	414	0	10000	2	1	0	2	0
37	415	0	10000	2	1	0	2	0
36	416	0	10000	2	1	0	2	0
35	417	0	10000	2	1	0	2	0
34	418	0	10000	2	1	0	2	0
34	419	0	10000	2	1	0	2	0
34	420	0	10000	2	1	0	2	0
35	421	0	10000	2	1	0	2	0
37	422	0	10000	2	1	0	2	0
35	423	0	10000	2	1	0	2	0
34	424	0	10000	2	1	0	2	0
33	425	0	10000	2	1	0	2	0
33	426	0	10000	2	1	0	2	0
33	427	0	10000	2	1	0	2	0
31	428	0	10000	2	1	0	2	0
32	429	0	10000	2	1	0	2	0
33	430	0	10000	2	1	0	2	0
34	431	0	10000	2	1	0	2	0
31	432	0	10000	2	1	0	2	0
32	433	0	10000	2	1	0	2	0
33	434	0	10000	2	1	0	2	0
34	435	0	10000	2	1	0	2	0
33	436	0	10000	2	1	0	2	0
34	437	0	10000	2	1	0	2	0
36	438	0	10000	2	1	0	2	0
35	439	0	10000	2	1	0	2	0
34	440	0	10000	2	1	0	2	0
35	441	0	10000	2	1	0	2	0
39	442	0	10000	2	1	0	2	0
38	443	0	10000	2	1	0	2	0
36	444	0	10000	2	1	0	2	0
37	445	0	10000	2	1	0	2	0
39	446	0	10000	2	1	0	2	0
38	447	0	10000	2	1	0	2	0
37	448	0	10000	2	1	0	2	0
39	449	0	10000	2	1	0	2	0
38	450	0	10000	2	1	0	2	0
38	451	0	10000	2	1	0	2	0
35	452	0	10000	2	1	0	2	0
34	453	0	10000	2	1	0	2	0
34	454	0	10000	2	1	0	2	0
37	455	0	10000	2	1	0	2	0
39	456	0	10000	2	1	0	2	0
41	457	0	10000	2	1	0	2	0
40	458	0	10000	2	1	0	2	0
41	459	0	10000	2	1	0	2	0
39	460	0	10000	2	1	0	2	0
39	461	0	10000	2	1	0	2	0
41	462	0	10000	2	1	0	2	0
41	463	0	10000	2	1	0	2	0
42	464	0	10000	2	1	0	2	0
42	465	0	10000	2	1	0	2	0
41	466	0	10000	2	1	0	2	0
39	467	0	10000	2	1	0	2	0
38	468	0	10000	2	1	0	2	0
39	469	0	10000	2	1	0	2	0
41	470	0	10000	2	1	0	2	0
41	471	0	10000	2	1	0	2	0
41	472	0	10000	2	1	0	2	0
44	473	0	10000	2	1	0	2	0
46	474	0	10000	2	1	0	2	0
45	475	0	10000	2	1	0	2	0
45	476	0	10000	2	1	0	2	0
45	477	0	10000	2	1	0	2	0
44	478	0	10000	2	1	0	2	0
42	479	0	10000	2	1	0	2	0
41	480	0	10000	2	1	0	2	0
41	481	0	10000	2	1	0	2	0
45	482	0	10000	2	1	0	2	0
47	483	0	10000	2	1	0	2	0
46	484	0	10000	2	1	0	2	0
47	485	0	10000	2	1	0	2	0
51	486	0	10000	2	1	0	2	0
54	487	0	10000	2	1	0	2	0
52	488	0	10000	2	1	0	2	0
50	489	0	10000	2	1	0	2	0
50	490	0	10000	2	1	0	2	0
51	491	0	10000	2	1	0	2	0
46	492	0	10000	2	1	0	2	0
45	493	0	10000	2	1	0	2	0
44	494	0	10000	2	1	0	2	0
43	495	0	10000	2	1	0	2	0
41	496	0	10000	2	1	0	2	0
42	497	0	10000	2	1	0	2	0
42	498	0	10000	2	1	0	2	0
40	499	0	10000	2	1	0	2	0
40	500	0	10000	2	1	0	2	0
41	501	0	10000	2	1	0	2	1
42	502	0	10000	2	1	0	2	1
42	503	0	10000	2	1	0	2	1
42	504	0	10000	2	1	0	2	1
40	505	0	10000	2	1	0	2	1
40	506	0	10000	2	1	0	2	1
40	507	0	10000	2	1	0	2	1
38	508	0	10000	2	1	0	2	1
39	509	0	10000	2	1	0	2	1
39	510	0	10000	2	1	0	2	1
39	511	0	10000	2	1	0	2	1
37	512	0	10000	2	1	0	2	1
38	513	0	10000	2	1	0	2	1
37	514	0	10000	2	1	0	2	1
37	515	0	10000	2	1	0	2	1
36	516	0	10000	2	1	0	2	1
34	517	0	10000	2	1	0	2	1
34	518	0	10000	2	1	0	2	1
33	519	0	10000	2	1	0	2	1
34	520	0	10000	2	1	0	2	1
33	521	0	10000	2	1	0	2	1
35	522	0	10000	2	1	0	2	1
34	523	0	10000	2	1	0	2	1
33	524	0	10000	2	1	0	2	1
32	525	0	10000	2	1	0	2	1
33	526	0	10000	2	1	0	2	1
36	527	0	10000	2	1	0	2	1
37	528	0	10000	2	1	0	2	1
39	529	0	10000	2	1	0	2	1
39	530	0	10000	2	1	0	2	1
40	531	0	10000	2	1	0	2	1
38	532	0	10000	2	1	0	2	1
39	533	0	10000	2	1	0	2	1
38	534	0	10000	2	1	0	2	1
38	535	0	10000	2	1	0	2	1
39	536	0	10000	2	1	0	2	1
39	537	0	10000	2	1	0	2	1
39	538	0	10000	2	1	0	2	1
38	539	0	10000	2	1	0	2	1
40	540	0	10000	2	1	0	2	1
41	541	0	10000	2	1	0	2	1
42	542	0	10000	2	1	0	2	1
44	543	0	10000	2	1	0	2	1
44	544	0	10000	2	1	0	2	1
44	545	0	10000	2	1	0	2	1
44	546	0	10000	2	1	0	2	1
45	547	0	10000	2	1	0	2	1
44	548	0	10000	2	1	0	2	1
46	549	0	10000	2	1	0	2	1
48	550	0	10000	2	1	0	2	1
47	551	0	10000	2	1	0	2	0
47	552	0	10000	2	1	0	2	0
50	553	0	10000	2	1	0	2	0
49	554	0	10000	2	1	0	2	0
49	555	0	10000	2	1	0	2	0
46	556	0	10000	2	1	0	2	0
45	557	0	10000	2	1	0	2	0
44	558	0	10000	2	1	0	2	0
44	559	0	10000	2	1	0	2	0
46	560	0	10000	2	1	0	2	0
47	561	0	10000	2	1	0	2	0
50	562	0	10000	2	1	0	2	0
47	563	0	10000	2	1	0	2	0
45	564	0	10000	2	1	0	2	0
44	565	0	10000	2	1	0	2	0
45	566	0	10000	2	1	0	2	0
49	567	0	10000	2	1	0	2	0
53	568	0	10000	2	1	0	2	0
58	569	0	10000	2	1	0	2	0
58	570	0	10000	2	1	0	2	0
56	571	0	10000	2	1	0	2	0
52	572	0	10000	2	1	0	2	0
52	573	0	10000	2	1	0	2	0
50	574	0	10000	2	1	0	2	0
48	575	0	10000	2	1	0	2	0
49	576	0	10000	2	1	0	2	0
48	577	0	10000	2	1	0	2	0
49	578	0	10000	2	1	0	2	0
47	579	0	10000	2	1	0	2	0
46	580	0	10000	2	1	0	2	0
48	581	0	10000	2	1	0	2	0
52	582	0	10000	2	1	0	2	0
49	583	0	10000	2	1	0	2	0
49	584	0	10000	2	1	0	2	0
53	585	0	10000	2	1	0	2	0
58	586	0	10000	2	1	0	2	0
61	587	0	10000	2	1	0	2	0
63	588	0	10000	2	1	0	2	0
67	589	0	10000	2	1	0	2	0
73	590	0	10000	2	1	0	2	0
95	591	0	10000	2	1	0	2	0
97	592	0	10000	2	1	0	2	0
107	593	0	10000	2	1	0	2	0
113	594	0	10000	2	1	0	2	0
114	595	0	10000	2	1	0	2	0
126	596	0	10000	2	1	0	2	0
128	597	0	10000	2	1	0	2	0
127	598	0	10000	2	1	0	2	0
134	599	0	10000	2	1	0	2	0
139	600	0	10000	2	1	0	2	0
136	601	0	10000	2	1	0	2	0
137	602	0	10000	2	1	0	2	0
144	603	0	10000	2	1	0	2	0
152	604	0	10000	2	1	0	2	0
155	605	0	10000	2	1	0	2	0
185	606	0	10000	2	1	0	2	0
228	607	0	10000	2	1	0	2	0
247	608	0	10000	2	1	0	2	0
249	609	0	10000	2	1	0	2	0
243	610	0	10000	2	1	0	2	0
251	611	0	10000	2	1	0	2	0
257	612	0	10000	2	1	0	2	0
258	613	0	10000	2	1	0	2	0
271	614	0	10000	2	1	0	2	0
279	615	0	10000	2	1	0	2	0
288	616	0	10000	2	1	0	2	0
284	617	0	10000	2	1	0	2	0
279	618	0	10000	2	1	0	2	0
272	619	0	10000	2	1	0	2	0
260	620	0	10000	2	1	0	2	0
254	621	0	10000	2	1	0	2	0
252	622	0	10000	2	1	0	2	0
250	623	0	10000	2	1	0	2	0
251	624	0	10000	2	1	0	2	0
251	625	0	10000	2	1	0	2	0
252	626	0	10000	2	1	0	2	0
251	627	0	10000	2	1	0	2	0
253	628	0	10000	2	1	0	2	0
265	629	0	10000	2	1	0	2	0
272	630	0	10000	2	1	0	2	0
269	631	0	10000	2	1	0	2	0
262	632	0	10000	2	1	0	2	0
259	633	0	10000	2	1	0	2	0
255	634	0	10000	2	1	0	2	0
254	635	0	10000	2	1	0	2	0
249	636	0	10000	2	1	0	2	0
243	637	0	10000	2	1	0	2	0
235	638	0	10000	2	1	0	2	0
224	639	0	10000	2	1	0	2	0
214	640	0	10000	2	1	0	2	0
206	641	0	10000	2	1	0	2	0
201	642	0	10000	2	1	0	2	0
193	643	0	10000	2	1	0	2	0
184	644	0	10000	2	1	0	2	0
176	645	0	10000	2	1	0	2	0
172	646	0	10000	2	1	0	2	0
164	647	0	10000	2	1	0	2	0
156	648	0	10000	2	1	0	2	0
150	649	0	10000	2	1	0	2	0
144	650	0	10000	2	1	0	2	0
140	651	0	10000	2	1	0	2	0
134	652	0	10000	2	1	0	2	0
136	653	0	10000	2	1	0	2	0
139	654	0	10000	2	1	0	2	0
142	655	0	10000	2	1	0	2	0
144	656	0	10000	2	1	0	2	0
145	657	0	10000	2	1	0	2	0
150	658	0	10000	2	1	0	2	0
154	659	0	10000	2	1	0	2	0
159	660	0	10000	2	1	0	2	0
164	661	0	10000	2	1	0	2	0
170	662	0	10000	2	1	0	2	0
175	663	0	10000	2	1	0	2	0
182	664	0	10000	2	1	0	2	0
188	665	0	10000	2	1	0	2	0
191	666	0	10000	2	1	0	2	0
195	667	0	10000	2	1	0	2	0
196	668	0	10000	2	1	0	2	0
201	669	0	10000	2	1	0	2	0
204	670	0	10000	2	1	0	2	0
205	671	0	10000	2	1	0	2	0
202	672	0	10000	2	1	0	2	0
195	673	0	10000	2	1	0	2	0
188	674	0	10000	2	1	0	2	0
183	675	0	10000	2	1	0	2	0
179	676	0	10000	2	1	0	2	0
176	677	0	10000	2	1	0	2	0
174	678	0	10000	2	1	0	2	0
169	679	0	10000	2	1	0	2	0
166	680	0	10000	2	1	0	2	0
162	681	0	10000	2	1	0	2	0
160	682	0	10000	2	1	0	2	0
156	683	0	10000	2	1	0	2	0
151	684	0	10000	2	1	0	2	0
146	685	0	10000	2	1	0	2	0
144	686	0	10000	2	1	0	2	0
140	687	0	10000	2	1	0	2	0
135	688	0	10000	2	1	0	2	0
130	689	0	10000	2	1	0	2	0
128	690	0	10000	2	1	0	2	0
122	691	0	10000	2	1	0	2	0
115	692	0	10000	2	1	0	2	0
110	693	0	10000	2	1	0	2	0
106	694	0	10000	2	1	0	2	0
104	695	0	10000	2	1	0	2	0
103	696	0	10000	2	1	0	2	0
99	697	0	10000	2	1	0	2	0
96	698	0	10000	2	1	0	2	0
92	699	0	10000	2	1	0	2	0
92	700	0	10000	2	1	0	2	0
96	701	0	10000	2	1	0	2	0
100	702	0	10000	2	1	0	2	0
99	703	0	10000	2	1	0	2	0
99	704	0	10000	2	1	0	2	0
97	705	0	10000	2	1	0	2	0
97	706	0	10000	2	1	0	2	0
97	707	0	10000	2	1	0	2	0
97	708	0	10000	2	1	0	2	0
99	709	0	10000	2	1	0	2	0
100	710	0	10000	2	1	0	2	0
103	711	0	10000	2	1	0	2	0
101	712	0	10000	2	1	0	2	0
101	713	0	10000	2	1	0	2	0
101	714	0	10000	2	1	0	2	0
100	715	0	10000	2	1	0	2	0
97	716	0	10000	2	1	0	2	0
98	717	0	10000	2	1	0	2	0
100	718	0	10000	2	1	0	2	0
97	719	0	10000	2	1	0	2	0
95	720	0	10000	2	1	0	2	0
93	721	0	10000	2	1	0	2	0
93	722	0	10000	2	1	0	2	0
90	723	0	10000	2	1	0	2	0
87	724	0	10000	2	1	0	2	0
84	725	0	10000	2	1	0	2	0
85	726	0	10000	2	1	0	2	0
85	727	0	10000	2	1	0	2	0
85	728	0	10000	2	1	0	2	0
87	729	0	10000	2	1	0	2	0
85	730	0	10000	2	1	0	2	0
84	731	0	10000	2	1	0	2	0
79	732	0	10000	2	1	0	2	0
77	733	0	10000	2	1	0	2	0
77	734	0	10000	2	1	0	2	0
77	735	0	10000	2	1	0	2	0
80	736	0	10000	2	1	0	2	0
82	737	0	10000	2	1	0	2	0
84	738	0	10000	2	1	0	2	0
84	739	0	10000	2	1	0	2	0
82	740	0	10000	2	1	0	2	0
79	741	0	10000	2	1	0	2	0
77	742	0	10000	2	1	0	2	0
75	743	0	10000	2	1	0	2	0
71	744	0	10000	2	1	0	2	0
68	745	0	10000	2	1	0	2	0
65	746	0	10000	2	1	0	2	0
63	747	0	10000	2	1	0	2	0
63	748	0	10000	2	1	0	2	0
62	749	0	10000	2	1	0	2	0
63	750	0	10000	2	1	0	2	0
61	751	0	10000	2	1	0	2	0
58	752	0	10000	2	1	0	2	0
56	753	0	10000	2	1	0	2	0
55	754	0	10000	2	1	0	2	0
54	755	0	10000	2	1	0	2	0
53	756	0	10000	2	1	0	2	0
52	757	0	10000	2	1	0	2	0
51	758	0	10000	2	1	0	2	0
49	759	0	10000	2	1	0	2	0
47	760	0	10000	2	1	0	2	0
46	761	0	10000	2	1	0	2	0
47	762	0	10000	2	1	0	2	0
45	763	0	10000	2	1	0	2	0
43	764	0	10000	2	1	0	2	0
42	765	0	10000	2	1	0	2	0
41	766	0	10000	2	1	0	2	0
43	767	0	10000	2	1	0	2	0
43	768	0	10000	2	1	0	2	0
43	769	0	10000	2	1	0	2	0
43	770	0	10000	2	1	0	2	0
42	771	0	10000	2	1	0	2	0
39	772	0	10000	2	1	0	2	0
37	773	0	10000	2	1	0	2	0
38	774	0	10000	2	1	0	2	0
37	775	0	10000	2	1	0	2	0
35	776	0	10000	2	1	0	2	0
36	777	0	10000	2	1	0	2	0
37	778	0	10000	2	1	0	2	0
35	779	0	10000	2	1	0	2	0
34	780	0	10000	2	1	0	2	0
33	781	0	10000	2	1	0	2	0
34	782	0	10000	2	1	0	2	0
33	783	0	10000	2	1	0	2	0
33	784	0	10000	2	1	0	2	0
32	785	0	10000	2	1	0	2	0
31	786	0	10000	2	1	0	2	0
30	787	0	10000	2	1	0	2	0
29	788	0	10000	2	1	0	2	0
30	789	0	10000	2	1	0	2	0
32	790	0	10000	2	1	0	2	0
34	791	0	10000	2	1	0	2	0
31	792	0	10000	2	1	0	2	0
33	793	0	10000	2	1	0	2	0
36	794	0	10000	2	1	0	2	0
38	795	0	10000	2	1	0	2	0
37	796	0	10000	2	1	0	2	0
35	797	0	10000	2	1	0	2	0
35	798	0	10000	2	1	0	2	0
34	799	0	10000	2	1	0	2	0
33	800	0	10000	2	1	0	2	0
32	801	0	10000	2	1	0	2	0
35	802	0	10000	2	1	0	2	0
34	803	0	10000	2	1	0	2	0
33	804	0	10000	2	1	0	2	0
33	805	0	10000	2	1	0	2	0
34	806	0	10000	2	1	0	2	0
33	807	0	10000	2	1	0	2	0
32	808	0	10000	2	1	0	2	0
32	809	0	10000	2	1	0	2	0
32	810	0	10000	2	1	0	2	0
32	811	0	10000	2	1	0	2	0
29	812	0	10000	2	1	0	2	0
30	813	0	10000	2	1	0	2	0
33	814	0	10000	2	1	0	2	0
37	815	0	10000	2	1	0	2	0
41	816	0	10000	2	1	0	2	0
40	817	0	10000	2	1	0	2	0
41	818	0	10000	2	1	0	2	0
41	819	0	10000	2	1	0	2	0
40	820	0	10000	2	1	0	2	0
40	821	0	10000	2	1	0	2	0
44	822	0	10000	2	1	0	2	0
45	823	0	10000	2	1	0	2	0
43	824	0	10000	2	1	0	2	0
43	825	0	10000	2	1	0	2	0
45	826	0	10000	2	1	0	2	0
49	827	0	10000	2	1	0	2	0
48	828	0	10000	2	1	0	2	0
47	829	0	10000	2	1	0	2	0
46	830	0	10000	2	1	0	2	0
44	831	0	10000	2	1	0	2	0
42	832	0	10000	2	1	0	2	0
41	833	0	10000	2	1	0	2	0
42	834	0	10000	2	1	0	2	0
42	835	0	10000	2	1	0	2	0
42	836	0	10000	2	1	0	2	0
41	837	0	10000	2	1	0	2	0
40	838	0	10000	2	1	0	2	0
40	839	0	10000	2	1	0	2	0
37	840	0	10000	2	1	0	2	0
35	841	0	10000	2	1	0	2	0
40	842	0	10000	2	1	0	2	0
39	843	0	10000	2	1	0	2	0
38	844	0	10000	2	1	0	2	0
38	845	0	10000	2	1	0	2	0
38	846	0	10000	2	1	0	2	0
35	847	0	10000	2	1	0	2	0
35	848	0	10000	2	1	0	2	0
35	849	0	10000	2	1	0	2	0
33	850	0	10000	2	1	0	2	0
33	851	0	10000	2	1	0	2	0
30	852	0	10000	2	1	0	2	0
31	853	0	10000	2	1	0	2	0
29	854	0	10000	2	1	0	2	0
30	855	0	10000	2	1	0	2	0
32	856	0	10000	2	1	0	2	0
36	857	0	10000	2	1	0	2	0
38	858	0	10000	2	1	0	2	0
37	859	0	10000	2	1	0	2	0
38	860	0	10000	2	1	0	2	0
38	861	0	10000	2	1	0	2	0
38	862	0	10000	2	1	0	2	0
37	863	0	10000	2	1	0	2	0
38	864	0	10000	2	1	0	2	0
37	865	0	10000	2	1	0	2	0
38	866	0	10000	2	1	0	2	0
39	867	0	10000	2	1	0	2	0
38	868	0	10000	2	1	0	2	0
38	869	0	10000	2	1	0	2	0
39	870	0	10000	2	1	0	2	0
41	871	0	10000	2	1	0	2	0
37	872	0	10000	2	1	0	2	0
35	873	0	10000	2	1	0	2	0
35	874	0	10000	2	1	0	2	0
34	875	0	10000	2	1	0	2	0
33	876	0	10000	2	1	0	2	0
33	877	0	10000	2	1	0	2	0
34	878	0	10000	2	1	0	2	0
32	879	0	10000	2	1	0	2	0
32	880	0	10000	2	1	0	2	0
31	881	0	10000	2	1	0	2	0
32	882	0	10000	2	1	0	2	0
32	883	0	10000	2	1	0	2	0
30	884	0	10000	2	1	0	2	0
30	885	0	10000	2	1	0	2	0
29	886	0	10000	2	1	0	2	0
28	887	0	10000	2	1	0	2	0
28	888	0	10000	2	1	0	2	0
29	889	0	10000	2	1	0	2	0
29	890	0	10000	2	1	0	2	0
30	891	0	10000	2	1	0	2	0
27	892	0	10000	2	1	0	2	0
27	893	0	10000	2	1	0	2	0
28	894	0	10000	2	1	0	2	0
28	895	0	10000	2	1	0	2	0
27	896	0	10000	2	1	0	2	0
26	897	0	10000	2	1	0	2	0
26	898	0	10000	2	1	0	2	0
25	899	0	10000	2	1	0	2	0
24	900	0	10000	2	1	0	2	0
25	901	0	10000	2	1	0	2	0
27	902	0	10000	2	1	0	2	0
27	903	0	10000	2	1	0	2	0
25	904	0	10000	2	1	0	2	0
27	905	0	10000	2	1	0	2	0
27	906	0	10000	2	1	0	2	0
27	907	0	10000	2	1	0	2	0
29	908	0	10000	2	1	0	2	0
33	909	0	10000	2	1	0	2	0
33	910	0	10000	2	1	0	2	0
32	911	0	10000	2	1	0	2	0
29	912	0	10000	2	1	0	2	0
29	913	0	10000	2	1	0	2	0
29	914	0	10000	2	1	0	2	0
28	915	0	10000	2	1	0	2	0
29	916	0	10000	2	1	0	2	0
28	917	0	10000	2	1	0	2	0
27	918	0	10000	2	1	0	2	0
25	919	0	10000	2	1	0	2	0
24	920	0	10000	2	1	0	2	0
25	921	0	10000	2	1	0	2	0
29	922	0	10000	2	1	0	2	0
29	923	0	10000	2	1	0	2	0
30	924	0	10000	2	1	0	2	0
30	925	0	10000	2	1	0	2	0
30	926	0	10000	2	1	0	2	0
30	927	0	10000	2	1	0	2	0
30	928	0	10000	2	1	0	2	0
31	929	0	10000	2	1	0	2	0
31	930	0	10000	2	1	0	2	0
32	931	0	10000	2	1	0	2	0
29	932	0	10000	2	1	0	2	0
30	933	0	10000	2	1	0	2	0
29	934	0	10000	2	1	0	2	0
29	935	0	10000	2	1	0	2	0
28	936	0	10000	2	1	0	2	0
28	937	0	10000	2	1	0	2	0
30	938	0	10000	2	1	0	2	0
29	939	0	10000	2	1	0	2	0
28	940	0	10000	2	1	0	2	0
28	941	0	10000	2	1	0	2	0
31	942	0	10000	2	1	0	2	0
30	943	0	10000	2	1	0	2	0
29	944	0	10000	2	1	0	2	0
28	945	0	10000	2	1	0	2	0
27	946	0	10000	2	1	0	2	0
28	947	0	10000	2	1	0	2	0
29	948	0	10000	2	1	0	2	0
31	949	0	10000	2	1	0	2	0
30	950	0	10000	2	1	0	2	0
29	951	0	10000	2	1	0	2	0
27	952	0	10000	2	1	0	2	0
27	953	0	10000	2	1	0	2	0
26	954	0	10000	2	1	0	2	0
25	955	0	10000	2	1	0	2	0
26	956	0	10000	2	1	0	2	0
26	957	0	10000	2	1	0	2	0
25	958	0	10000	2	1	0	2	0
24	959	0	10000	2	1	0	2	0
23	960	0	10000	2	1	0	2	0
22	961	0	10000	2	1	0	2	0
24	962	0	10000	2	1	0	2	0
23	963	0	10000	2	1	0	2	0
22	964	0	10000	2	1	0	2	0
21	965	0	10000	2	1	0	2	0
21	966	0	10000	2	1	0	2	0
20	967	0	10000	2	1	0	2	0
19	968	0	10000	2	1	0	2	0
19	969	0	10000	2	1	0	2	0
22	970	0	10000	2	1	0	2	0
26	971	0	10000	2	1	0	2	0
24	972	0	10000	2	1	0	2	0
23	973	0	10000	2	1	0	2	0
25	974	0	10000	2	1	0	2	0
26	975	0	10000	2	1	0	2	0
26	976	0	10000	2	1	0	2	0
26	977	0	10000	2	1	0	2	0
26	978	0	10000	2	1	0	2	0
27	979	0	10000	2	1	0	2	0
30	980	0	10000	2	1	0	2	0
32	981	0	10000	2	1	0	2	0
32	982	0	10000	2	1	0	2	0
33	983	0	10000	2	1	0	2	0
36	984	0	10000	2	1	0	2	0
36	985	0	10000	2	1	0	2	0
35	986	0	10000	2	1	0	2	0
34	987	0	10000	2	1	0	2	0
32	988	0	10000	2	1	0	2	0
32	989	0	10000	2	1	0	2	0
32	990	0	10000	2	1	0	2	0
33	991	0	10000	2	1	0	2	0
32	992	0	10000	2	1	0	2	0
31	993	0	10000	2	1	0	2	0
30	994	0	10000	2	1	0	2	0
30	995	0	10000	2	1	0	2	0
30	996	0	10000	2	1	0	2	0
30	997	0	10000	2	1	0	2	0
29	998	0	10000	2	1	0	2	0
30	999	0	10000	2	1	0	2	0
31	1000	0	10000	2	1	0	2	0
93	2	10	10000	3	1	0	3	0
92	3	10	10000	3	1	0	3	0
90	4	10	10000	3	1	0	3	0
91	5	10	10000	3	1	0	3	0
89	6	10	10000	3	1	0	3	0
87	7	10	10000	3	1	0	3	0
83	8	10	10000	3	1	0	3	0
80	9	10	10000	3	1	0	3	0
79	10	10	10000	3	1	0	3	0
81	11	10	10000	3	1	0	3	0
81	12	10	10000	3	1	0	3	0
81	13	10	10000	3	1	0	3	0
80	14	10	10000	3	1	0	3	0
79	15	10	10000	3	1	0	3	0
78	16	10	10000	3	1	0	3	0
76	17	10	10000	3	1	0	3	0
74	18	10	10000	3	1	0	3	0
71	19	10	10000	3	1	0	3	0
68	20	10	10000	3	1	0	3	0
67	21	10	10000	3	1	0	3	0
65	22	10	10000	3	1	0	3	0
62	23	10	10000	3	1	0	3	0
60	24	10	10000	3	1	0	3	0
58	25	10	10000	3	1	0	3	0
57	26	10	10000	3	1	0	3	0
55	27	10	10000	3	1	0	3	0
52	28	10	10000	3	1	0	3	0
52	29	10	10000	3	1	0	3	0
53	30	10	10000	3	1	0	3	0
53	31	10	10000	3	1	0	3	0
52	32	10	10000	3	1	0	3	0
53	33	10	10000	3	1	0	3	0
53	34	10	10000	3	1	0	3	0
54	35	10	10000	3	1	0	3	0
53	36	10	10000	3	1	0	3	0
53	37	10	10000	3	1	0	3	0
52	38	10	10000	3	1	0	3	0
49	39	10	10000	3	1	0	3	0
47	40	10	10000	3	1	0	3	0
45	41	10	10000	3	1	0	3	0
45	42	10	10000	3	1	0	3	0
44	43	10	10000	3	1	0	3	0
44	44	10	10000	3	1	0	3	0
43	45	10	10000	3	1	0	3	0
43	46	10	10000	3	1	0	3	0
42	47	10	10000	3	1	0	3	0
39	48	10	10000	3	1	0	3	0
38	49	10	10000	3	1	0	3	0
36	50	10	10000	3	1	0	3	0
37	51	10	10000	3	1	0	3	0
38	52	10	10000	3	1	0	3	0
36	53	10	10000	3	1	0	3	0
35	54	10	10000	3	1	0	3	0
34	55	10	10000	3	1	0	3	0
32	56	10	10000	3	1	0	3	0
32	57	10	10000	3	1	0	3	0
33	58	10	10000	3	1	0	3	0
32	59	10	10000	3	1	0	3	0
32	60	10	10000	3	1	0	3	0
32	61	10	10000	3	1	0	3	0
32	62	10	10000	3	1	0	3	0
32	63	10	10000	3	1	0	3	0
33	64	10	10000	3	1	0	3	0
33	65	10	10000	3	1	0	3	0
33	66	10	10000	3	1	0	3	0
34	67	10	10000	3	1	0	3	0
32	68	10	10000	3	1	0	3	0
32	69	10	10000	3	1	0	3	0
33	70	10	10000	3	1	0	3	0
33	71	10	10000	3	1	0	3	0
32	72	10	10000	3	1	0	3	0
33	73	10	10000	3	1	0	3	0
36	74	10	10000	3	1	0	3	0
34	75	10	10000	3	1	0	3	0
33	76	10	10000	3	1	0	3	0
32	77	10	10000	3	1	0	3	0
32	78	10	10000	3	1	0	3	0
31	79	10	10000	3	1	0	3	0
31	80	10	10000	3	1	0	3	0
31	81	10	10000	3	1	0	3	0
31	82	10	10000	3	1	0	3	0
31	83	10	10000	3	1	0	3	0
32	84	10	10000	3	1	0	3	0
32	85	10	10000	3	1	0	3	0
32	86	10	10000	3	1	0	3	0
32	87	10	10000	3	1	0	3	0
30	88	10	10000	3	1	0	3	0
30	89	10	10000	3	1	0	3	0
29	90	10	10000	3	1	0	3	0
31	91	10	10000	3	1	0	3	0
33	92	10	10000	3	1	0	3	0
36	93	10	10000	3	1	0	3	0
37	94	10	10000	3	1	0	3	0
36	95	10	10000	3	1	0	3	0
36	96	10	10000	3	1	0	3	0
37	97	10	10000	3	1	0	3	0
38	98	10	10000	3	1	0	3	0
35	99	10	10000	3	1	0	3	0
36	100	10	10000	3	1	0	3	0
35	101	10	10000	3	1	0	3	0
33	102	10	10000	3	1	0	3	0
32	103	10	10000	3	1	0	3	0
31	104	10	10000	3	1	0	3	0
31	105	10	10000	3	1	0	3	0
31	106	10	10000	3	1	0	3	0
33	107	10	10000	3	1	0	3	0
32	108	10	10000	3	1	0	3	0
32	109	10	10000	3	1	0	3	0
32	110	10	10000	3	1	0	3	0
32	111	10	10000	3	1	0	3	0
32	112	10	10000	3	1	0	3	0
34	113	10	10000	3	1	0	3	0
37	114	10	10000	3	1	0	3	0
37	115	10	10000	3	1	0	3	0
36	116	10	10000	3	1	0	3	0
36	117	10	10000	3	1	0	3	0
39	118	10	10000	3	1	0	3	0
41	119	10	10000	3	1	0	3	0
40	120	10	10000	3	1	0	3	0
38	121	10	10000	3	1	0	3	0
38	122	10	10000	3	1	0	3	0
38	123	10	10000	3	1	0	3	0
37	124	10	10000	3	1	0	3	0
40	125	10	10000	3	1	0	3	0
43	126	10	10000	3	1	0	3	0
40	127	10	10000	3	1	0	3	0
37	128	10	10000	3	1	0	3	0
37	129	10	10000	3	1	0	3	0
38	130	10	10000	3	1	0	3	0
38	131	10	10000	3	1	0	3	0
39	132	10	10000	3	1	0	3	0
38	133	10	10000	3	1	0	3	0
37	134	10	10000	3	1	0	3	0
37	135	10	10000	3	1	0	3	0
35	136	10	10000	3	1	0	3	0
36	137	10	10000	3	1	0	3	0
39	138	10	10000	3	1	0	3	0
37	139	10	10000	3	1	0	3	0
36	140	10	10000	3	1	0	3	0
33	141	10	10000	3	1	0	3	0
34	142	10	10000	3	1	0	3	0
33	143	10	10000	3	1	0	3	0
36	144	10	10000	3	1	0	3	0
38	145	10	10000	3	1	0	3	0
39	146	10	10000	3	1	0	3	0
37	147	10	10000	3	1	0	3	0
35	148	10	10000	3	1	0	3	0
34	149	10	10000	3	1	0	3	0
33	150	10	10000	3	1	0	3	0
35	151	10	10000	3	1	0	3	0
35	152	10	10000	3	1	0	3	0
37	153	10	10000	3	1	0	3	0
38	154	10	10000	3	1	0	3	0
38	155	10	10000	3	1	0	3	0
39	156	10	10000	3	1	0	3	0
39	157	10	10000	3	1	0	3	0
44	158	10	10000	3	1	0	3	0
45	159	10	10000	3	1	0	3	0
44	160	10	10000	3	1	0	3	0
43	161	10	10000	3	1	0	3	0
42	162	10	10000	3	1	0	3	0
42	163	10	10000	3	1	0	3	0
41	164	10	10000	3	1	0	3	0
41	165	10	10000	3	1	0	3	0
39	166	10	10000	3	1	0	3	0
39	167	10	10000	3	1	0	3	0
36	168	10	10000	3	1	0	3	0
39	169	10	10000	3	1	0	3	0
42	170	10	10000	3	1	0	3	0
42	171	10	10000	3	1	0	3	0
45	172	10	10000	3	1	0	3	0
48	173	10	10000	3	1	0	3	0
46	174	10	10000	3	1	0	3	0
45	175	10	10000	3	1	0	3	0
42	176	10	10000	3	1	0	3	0
41	177	10	10000	3	1	0	3	0
43	178	10	10000	3	1	0	3	0
45	179	10	10000	3	1	0	3	0
47	180	10	10000	3	1	0	3	0
48	181	10	10000	3	1	0	3	0
51	182	10	10000	3	1	0	3	0
55	183	10	10000	3	1	0	3	0
54	184	10	10000	3	1	0	3	0
56	185	10	10000	3	1	0	3	0
58	186	10	10000	3	1	0	3	0
56	187	10	10000	3	1	0	3	0
55	188	10	10000	3	1	0	3	0
56	189	10	10000	3	1	0	3	0
57	190	10	10000	3	1	0	3	0
55	191	10	10000	3	1	0	3	0
55	192	10	10000	3	1	0	3	0
54	193	10	10000	3	1	0	3	0
54	194	10	10000	3	1	0	3	0
52	195	10	10000	3	1	0	3	0
50	196	10	10000	3	1	0	3	0
51	197	10	10000	3	1	0	3	0
52	198	10	10000	3	1	0	3	0
51	199	10	10000	3	1	0	3	0
51	200	10	10000	3	1	0	3	0
49	201	10	10000	3	1	0	3	0
47	202	10	10000	3	1	0	3	0
46	203	10	10000	3	1	0	3	0
45	204	10	10000	3	1	0	3	0
48	205	10	10000	3	1	0	3	0
49	206	10	10000	3	1	0	3	0
48	207	10	10000	3	1	0	3	0
45	208	10	10000	3	1	0	3	0
44	209	10	10000	3	1	0	3	0
44	210	10	10000	3	1	0	3	0
48	211	10	10000	3	1	0	3	0
47	212	10	10000	3	1	0	3	0
46	213	10	10000	3	1	0	3	0
45	214	10	10000	3	1	0	3	0
44	215	10	10000	3	1	0	3	0
43	216	10	10000	3	1	0	3	0
42	217	10	10000	3	1	0	3	0
43	218	10	10000	3	1	0	3	0
42	219	10	10000	3	1	0	3	0
40	220	10	10000	3	1	0	3	0
39	221	10	10000	3	1	0	3	0
37	222	10	10000	3	1	0	3	0
36	223	10	10000	3	1	0	3	0
36	224	10	10000	3	1	0	3	0
35	225	10	10000	3	1	0	3	0
35	226	10	10000	3	1	0	3	0
33	227	10	10000	3	1	0	3	0
32	228	10	10000	3	1	0	3	0
31	229	10	10000	3	1	0	3	0
30	230	10	10000	3	1	0	3	0
30	231	10	10000	3	1	0	3	0
28	232	10	10000	3	1	0	3	0
29	233	10	10000	3	1	0	3	0
29	234	10	10000	3	1	0	3	0
27	235	10	10000	3	1	0	3	0
26	236	10	10000	3	1	0	3	0
26	237	10	10000	3	1	0	3	0
28	238	10	10000	3	1	0	3	0
29	239	10	10000	3	1	0	3	0
29	240	10	10000	3	1	0	3	0
29	241	10	10000	3	1	0	3	0
30	242	10	10000	3	1	0	3	0
31	243	10	10000	3	1	0	3	0
29	244	10	10000	3	1	0	3	0
31	245	10	10000	3	1	0	3	0
31	246	10	10000	3	1	0	3	0
31	247	10	10000	3	1	0	3	0
27	248	10	10000	3	1	0	3	0
28	249	10	10000	3	1	0	3	0
28	250	10	10000	3	1	0	3	0
28	251	10	10000	3	1	0	3	0
28	252	10	10000	3	1	0	3	0
28	253	10	10000	3	1	0	3	0
28	254	10	10000	3	1	0	3	0
27	255	10	10000	3	1	0	3	0
28	256	10	10000	3	1	0	3	0
29	257	10	10000	3	1	0	3	0
31	258	10	10000	3	1	0	3	0
31	259	10	10000	3	1	0	3	0
33	260	10	10000	3	1	0	3	0
33	261	10	10000	3	1	0	3	0
32	262	10	10000	3	1	0	3	0
32	263	10	10000	3	1	0	3	0
31	264	10	10000	3	1	0	3	0
32	265	10	10000	3	1	0	3	0
35	266	10	10000	3	1	0	3	0
38	267	10	10000	3	1	0	3	0
36	268	10	10000	3	1	0	3	0
35	269	10	10000	3	1	0	3	0
36	270	10	10000	3	1	0	3	0
36	271	10	10000	3	1	0	3	0
36	272	10	10000	3	1	0	3	0
36	273	10	10000	3	1	0	3	0
37	274	10	10000	3	1	0	3	0
35	275	10	10000	3	1	0	3	0
34	276	10	10000	3	1	0	3	0
33	277	10	10000	3	1	0	3	0
35	278	10	10000	3	1	0	3	0
36	279	10	10000	3	1	0	3	0
35	280	10	10000	3	1	0	3	0
35	281	10	10000	3	1	0	3	0
35	282	10	10000	3	1	0	3	0
34	283	10	10000	3	1	0	3	0
34	284	10	10000	3	1	0	3	0
34	285	10	10000	3	1	0	3	0
35	286	10	10000	3	1	0	3	0
35	287	10	10000	3	1	0	3	0
32	288	10	10000	3	1	0	3	0
32	289	10	10000	3	1	0	3	0
32	290	10	10000	3	1	0	3	0
31	291	10	10000	3	1	0	3	0
32	292	10	10000	3	1	0	3	0
31	293	10	10000	3	1	0	3	0
30	294	10	10000	3	1	0	3	0
29	295	10	10000	3	1	0	3	0
29	296	10	10000	3	1	0	3	0
32	297	10	10000	3	1	0	3	0
33	298	10	10000	3	1	0	3	0
32	299	10	10000	3	1	0	3	0
32	300	10	10000	3	1	0	3	0
33	301	10	10000	3	1	0	3	0
33	302	10	10000	3	1	0	3	0
32	303	10	10000	3	1	0	3	0
31	304	10	10000	3	1	0	3	0
30	305	10	10000	3	1	0	3	0
29	306	10	10000	3	1	0	3	0
30	307	10	10000	3	1	0	3	0
31	308	10	10000	3	1	0	3	0
34	309	10	10000	3	1	0	3	0
34	310	10	10000	3	1	0	3	0
35	311	10	10000	3	1	0	3	0
35	312	10	10000	3	1	0	3	0
36	313	10	10000	3	1	0	3	0
36	314	10	10000	3	1	0	3	0
35	315	10	10000	3	1	0	3	0
38	316	10	10000	3	1	0	3	0
39	317	10	10000	3	1	0	3	0
39	318	10	10000	3	1	0	3	0
37	319	10	10000	3	1	0	3	0
37	320	10	10000	3	1	0	3	0
36	321	10	10000	3	1	0	3	0
36	322	10	10000	3	1	0	3	0
35	323	10	10000	3	1	0	3	0
35	324	10	10000	3	1	0	3	0
35	325	10	10000	3	1	0	3	0
37	326	10	10000	3	1	0	3	0
37	327	10	10000	3	1	0	3	0
36	328	10	10000	3	1	0	3	0
37	329	10	10000	3	1	0	3	0
38	330	10	10000	3	1	0	3	0
40	331	10	10000	3	1	0	3	0
40	332	10	10000	3	1	0	3	0
39	333	10	10000	3	1	0	3	0
40	334	10	10000	3	1	0	3	0
39	335	10	10000	3	1	0	3	0
40	336	10	10000	3	1	0	3	0
41	337	10	10000	3	1	0	3	0
44	338	10	10000	3	1	0	3	0
44	339	10	10000	3	1	0	3	0
42	340	10	10000	3	1	0	3	0
40	341	10	10000	3	1	0	3	0
39	342	10	10000	3	1	0	3	0
40	343	10	10000	3	1	0	3	0
39	344	10	10000	3	1	0	3	0
39	345	10	10000	3	1	0	3	0
39	346	10	10000	3	1	0	3	0
38	347	10	10000	3	1	0	3	0
37	348	10	10000	3	1	0	3	0
38	349	10	10000	3	1	0	3	0
38	350	10	10000	3	1	0	3	0
39	351	10	10000	3	1	0	3	0
40	352	10	10000	3	1	0	3	0
40	353	10	10000	3	1	0	3	0
40	354	10	10000	3	1	0	3	0
38	355	10	10000	3	1	0	3	0
36	356	10	10000	3	1	0	3	0
35	357	10	10000	3	1	0	3	0
36	358	10	10000	3	1	0	3	0
39	359	10	10000	3	1	0	3	0
43	360	10	10000	3	1	0	3	0
43	361	10	10000	3	1	0	3	0
43	362	10	10000	3	1	0	3	0
43	363	10	10000	3	1	0	3	0
42	364	10	10000	3	1	0	3	0
41	365	10	10000	3	1	0	3	0
40	366	10	10000	3	1	0	3	0
39	367	10	10000	3	1	0	3	0
39	368	10	10000	3	1	0	3	0
39	369	10	10000	3	1	0	3	0
38	370	10	10000	3	1	0	3	0
38	371	10	10000	3	1	0	3	0
38	372	10	10000	3	1	0	3	0
37	373	10	10000	3	1	0	3	0
36	374	10	10000	3	1	0	3	0
35	375	10	10000	3	1	0	3	0
33	376	10	10000	3	1	0	3	0
33	377	10	10000	3	1	0	3	0
35	378	10	10000	3	1	0	3	0
36	379	10	10000	3	1	0	3	0
38	380	10	10000	3	1	0	3	0
39	381	10	10000	3	1	0	3	0
38	382	10	10000	3	1	0	3	0
37	383	10	10000	3	1	0	3	0
35	384	10	10000	3	1	0	3	0
35	385	10	10000	3	1	0	3	0
35	386	10	10000	3	1	0	3	0
35	387	10	10000	3	1	0	3	0
32	388	10	10000	3	1	0	3	0
33	389	10	10000	3	1	0	3	0
34	390	10	10000	3	1	0	3	0
34	391	10	10000	3	1	0	3	0
33	392	10	10000	3	1	0	3	0
34	393	10	10000	3	1	0	3	0
32	394	10	10000	3	1	0	3	0
31	395	10	10000	3	1	0	3	0
31	396	10	10000	3	1	0	3	0
32	397	10	10000	3	1	0	3	0
34	398	10	10000	3	1	0	3	0
35	399	10	10000	3	1	0	3	0
38	400	10	10000	3	1	0	3	0
36	401	10	10000	3	1	0	3	0
37	402	10	10000	3	1	0	3	0
38	403	10	10000	3	1	0	3	0
36	404	10	10000	3	1	0	3	0
38	405	10	10000	3	1	0	3	0
39	406	10	10000	3	1	0	3	0
40	407	10	10000	3	1	0	3	0
36	408	10	10000	3	1	0	3	0
36	409	10	10000	3	1	0	3	0
36	410	10	10000	3	1	0	3	0
36	411	10	10000	3	1	0	3	0
34	412	10	10000	3	1	0	3	0
34	413	10	10000	3	1	0	3	0
34	414	10	10000	3	1	0	3	0
34	415	10	10000	3	1	0	3	0
32	416	10	10000	3	1	0	3	0
32	417	10	10000	3	1	0	3	0
33	418	10	10000	3	1	0	3	0
31	419	10	10000	3	1	0	3	0
32	420	10	10000	3	1	0	3	0
33	421	10	10000	3	1	0	3	0
34	422	10	10000	3	1	0	3	0
33	423	10	10000	3	1	0	3	0
33	424	10	10000	3	1	0	3	0
34	425	10	10000	3	1	0	3	0
34	426	10	10000	3	1	0	3	0
33	427	10	10000	3	1	0	3	0
30	428	10	10000	3	1	0	3	0
33	429	10	10000	3	1	0	3	0
33	430	10	10000	3	1	0	3	0
34	431	10	10000	3	1	0	3	0
33	432	10	10000	3	1	0	3	0
34	433	10	10000	3	1	0	3	0
38	434	10	10000	3	1	0	3	0
38	435	10	10000	3	1	0	3	0
38	436	10	10000	3	1	0	3	0
37	437	10	10000	3	1	0	3	0
40	438	10	10000	3	1	0	3	0
38	439	10	10000	3	1	0	3	0
37	440	10	10000	3	1	0	3	0
36	441	10	10000	3	1	0	3	0
36	442	10	10000	3	1	0	3	0
36	443	10	10000	3	1	0	3	0
35	444	10	10000	3	1	0	3	0
36	445	10	10000	3	1	0	3	0
36	446	10	10000	3	1	0	3	0
36	447	10	10000	3	1	0	3	0
34	448	10	10000	3	1	0	3	0
34	449	10	10000	3	1	0	3	0
35	450	10	10000	3	1	0	3	0
34	451	10	10000	3	1	0	3	0
33	452	10	10000	3	1	0	3	0
33	453	10	10000	3	1	0	3	0
34	454	10	10000	3	1	0	3	0
32	455	10	10000	3	1	0	3	0
33	456	10	10000	3	1	0	3	0
37	457	10	10000	3	1	0	3	0
38	458	10	10000	3	1	0	3	0
37	459	10	10000	3	1	0	3	0
35	460	10	10000	3	1	0	3	0
36	461	10	10000	3	1	0	3	0
35	462	10	10000	3	1	0	3	0
34	463	10	10000	3	1	0	3	0
32	464	10	10000	3	1	0	3	0
32	465	10	10000	3	1	0	3	0
32	466	10	10000	3	1	0	3	0
33	467	10	10000	3	1	0	3	0
31	468	10	10000	3	1	0	3	0
31	469	10	10000	3	1	0	3	0
30	470	10	10000	3	1	0	3	0
30	471	10	10000	3	1	0	3	0
30	472	10	10000	3	1	0	3	0
30	473	10	10000	3	1	0	3	0
30	474	10	10000	3	1	0	3	0
29	475	10	10000	3	1	0	3	0
27	476	10	10000	3	1	0	3	0
26	477	10	10000	3	1	0	3	0
28	478	10	10000	3	1	0	3	0
28	479	10	10000	3	1	0	3	0
28	480	10	10000	3	1	0	3	0
26	481	10	10000	3	1	0	3	0
27	482	10	10000	3	1	0	3	0
27	483	10	10000	3	1	0	3	0
26	484	10	10000	3	1	0	3	0
26	485	10	10000	3	1	0	3	0
26	486	10	10000	3	1	0	3	0
26	487	10	10000	3	1	0	3	0
24	488	10	10000	3	1	0	3	0
24	489	10	10000	3	1	0	3	0
23	490	10	10000	3	1	0	3	0
24	491	10	10000	3	1	0	3	0
23	492	10	10000	3	1	0	3	0
23	493	10	10000	3	1	0	3	0
24	494	10	10000	3	1	0	3	0
24	495	10	10000	3	1	0	3	0
24	496	10	10000	3	1	0	3	0
24	497	10	10000	3	1	0	3	0
25	498	10	10000	3	1	0	3	0
26	499	10	10000	3	1	0	3	0
28	500	10	10000	3	1	0	3	0
27	501	10	10000	3	1	0	3	0
27	502	10	10000	3	1	0	3	1
29	503	10	10000	3	1	0	3	1
30	504	10	10000	3	1	0	3	1
32	505	10	10000	3	1	0	3	1
31	506	10	10000	3	1	0	3	1
31	507	10	10000	3	1	0	3	1
27	508	10	10000	3	1	0	3	1
28	509	10	10000	3	1	0	3	1
31	510	10	10000	3	1	0	3	1
31	511	10	10000	3	1	0	3	1
31	512	10	10000	3	1	0	3	1
34	513	10	10000	3	1	0	3	1
37	514	10	10000	3	1	0	3	1
34	515	10	10000	3	1	0	3	1
32	516	10	10000	3	1	0	3	1
32	517	10	10000	3	1	0	3	1
32	518	10	10000	3	1	0	3	1
33	519	10	10000	3	1	0	3	1
33	520	10	10000	3	1	0	3	1
33	521	10	10000	3	1	0	3	1
35	522	10	10000	3	1	0	3	1
36	523	10	10000	3	1	0	3	1
34	524	10	10000	3	1	0	3	1
34	525	10	10000	3	1	0	3	1
33	526	10	10000	3	1	0	3	1
32	527	10	10000	3	1	0	3	1
30	528	10	10000	3	1	0	3	1
31	529	10	10000	3	1	0	3	1
31	530	10	10000	3	1	0	3	1
32	531	10	10000	3	1	0	3	1
32	532	10	10000	3	1	0	3	1
30	533	10	10000	3	1	0	3	1
31	534	10	10000	3	1	0	3	1
30	535	10	10000	3	1	0	3	1
29	536	10	10000	3	1	0	3	1
28	537	10	10000	3	1	0	3	1
29	538	10	10000	3	1	0	3	1
29	539	10	10000	3	1	0	3	1
28	540	10	10000	3	1	0	3	1
27	541	10	10000	3	1	0	3	1
27	542	10	10000	3	1	0	3	1
26	543	10	10000	3	1	0	3	1
26	544	10	10000	3	1	0	3	1
26	545	10	10000	3	1	0	3	1
27	546	10	10000	3	1	0	3	1
26	547	10	10000	3	1	0	3	1
24	548	10	10000	3	1	0	3	1
25	549	10	10000	3	1	0	3	1
26	550	10	10000	3	1	0	3	1
27	551	10	10000	3	1	0	3	1
26	552	10	10000	3	1	0	3	0
27	553	10	10000	3	1	0	3	0
27	554	10	10000	3	1	0	3	0
28	555	10	10000	3	1	0	3	0
30	556	10	10000	3	1	0	3	0
30	557	10	10000	3	1	0	3	0
31	558	10	10000	3	1	0	3	0
31	559	10	10000	3	1	0	3	0
30	560	10	10000	3	1	0	3	0
28	561	10	10000	3	1	0	3	0
28	562	10	10000	3	1	0	3	0
28	563	10	10000	3	1	0	3	0
28	564	10	10000	3	1	0	3	0
27	565	10	10000	3	1	0	3	0
28	566	10	10000	3	1	0	3	0
28	567	10	10000	3	1	0	3	0
26	568	10	10000	3	1	0	3	0
25	569	10	10000	3	1	0	3	0
25	570	10	10000	3	1	0	3	0
24	571	10	10000	3	1	0	3	0
24	572	10	10000	3	1	0	3	0
26	573	10	10000	3	1	0	3	0
27	574	10	10000	3	1	0	3	0
26	575	10	10000	3	1	0	3	0
28	576	10	10000	3	1	0	3	0
30	577	10	10000	3	1	0	3	0
32	578	10	10000	3	1	0	3	0
32	579	10	10000	3	1	0	3	0
31	580	10	10000	3	1	0	3	0
30	581	10	10000	3	1	0	3	0
31	582	10	10000	3	1	0	3	0
30	583	10	10000	3	1	0	3	0
30	584	10	10000	3	1	0	3	0
30	585	10	10000	3	1	0	3	0
30	586	10	10000	3	1	0	3	0
30	587	10	10000	3	1	0	3	0
27	588	10	10000	3	1	0	3	0
28	589	10	10000	3	1	0	3	0
28	590	10	10000	3	1	0	3	0
30	591	10	10000	3	1	0	3	0
30	592	10	10000	3	1	0	3	0
31	593	10	10000	3	1	0	3	0
31	594	10	10000	3	1	0	3	0
32	595	10	10000	3	1	0	3	0
32	596	10	10000	3	1	0	3	0
32	597	10	10000	3	1	0	3	0
36	598	10	10000	3	1	0	3	0
44	599	10	10000	3	1	0	3	0
60	600	10	10000	3	1	0	3	0
74	601	10	10000	3	1	0	3	0
79	602	10	10000	3	1	0	3	0
106	603	10	10000	3	1	0	3	0
120	604	10	10000	3	1	0	3	0
168	605	10	10000	3	1	0	3	0
235	606	10	10000	3	1	0	3	0
237	607	10	10000	3	1	0	3	0
236	608	10	10000	3	1	0	3	0
242	609	10	10000	3	1	0	3	0
250	610	10	10000	3	1	0	3	0
268	611	10	10000	3	1	0	3	0
306	612	10	10000	3	1	0	3	0
320	613	10	10000	3	1	0	3	0
319	614	10	10000	3	1	0	3	0
321	615	10	10000	3	1	0	3	0
322	616	10	10000	3	1	0	3	0
329	617	10	10000	3	1	0	3	0
340	618	10	10000	3	1	0	3	0
360	619	10	10000	3	1	0	3	0
381	620	10	10000	3	1	0	3	0
397	621	10	10000	3	1	0	3	0
404	622	10	10000	3	1	0	3	0
410	623	10	10000	3	1	0	3	0
431	624	10	10000	3	1	0	3	0
426	625	10	10000	3	1	0	3	0
408	626	10	10000	3	1	0	3	0
397	627	10	10000	3	1	0	3	0
399	628	10	10000	3	1	0	3	0
398	629	10	10000	3	1	0	3	0
414	630	10	10000	3	1	0	3	0
417	631	10	10000	3	1	0	3	0
400	632	10	10000	3	1	0	3	0
386	633	10	10000	3	1	0	3	0
371	634	10	10000	3	1	0	3	0
360	635	10	10000	3	1	0	3	0
351	636	10	10000	3	1	0	3	0
345	637	10	10000	3	1	0	3	0
340	638	10	10000	3	1	0	3	0
333	639	10	10000	3	1	0	3	0
326	640	10	10000	3	1	0	3	0
316	641	10	10000	3	1	0	3	0
306	642	10	10000	3	1	0	3	0
295	643	10	10000	3	1	0	3	0
285	644	10	10000	3	1	0	3	0
277	645	10	10000	3	1	0	3	0
268	646	10	10000	3	1	0	3	0
255	647	10	10000	3	1	0	3	0
241	648	10	10000	3	1	0	3	0
233	649	10	10000	3	1	0	3	0
225	650	10	10000	3	1	0	3	0
218	651	10	10000	3	1	0	3	0
211	652	10	10000	3	1	0	3	0
203	653	10	10000	3	1	0	3	0
195	654	10	10000	3	1	0	3	0
187	655	10	10000	3	1	0	3	0
182	656	10	10000	3	1	0	3	0
174	657	10	10000	3	1	0	3	0
169	658	10	10000	3	1	0	3	0
161	659	10	10000	3	1	0	3	0
155	660	10	10000	3	1	0	3	0
148	661	10	10000	3	1	0	3	0
144	662	10	10000	3	1	0	3	0
142	663	10	10000	3	1	0	3	0
141	664	10	10000	3	1	0	3	0
142	665	10	10000	3	1	0	3	0
143	666	10	10000	3	1	0	3	0
143	667	10	10000	3	1	0	3	0
144	668	10	10000	3	1	0	3	0
146	669	10	10000	3	1	0	3	0
147	670	10	10000	3	1	0	3	0
147	671	10	10000	3	1	0	3	0
147	672	10	10000	3	1	0	3	0
147	673	10	10000	3	1	0	3	0
146	674	10	10000	3	1	0	3	0
146	675	10	10000	3	1	0	3	0
146	676	10	10000	3	1	0	3	0
145	677	10	10000	3	1	0	3	0
148	678	10	10000	3	1	0	3	0
144	679	10	10000	3	1	0	3	0
143	680	10	10000	3	1	0	3	0
145	681	10	10000	3	1	0	3	0
146	682	10	10000	3	1	0	3	0
147	683	10	10000	3	1	0	3	0
149	684	10	10000	3	1	0	3	0
152	685	10	10000	3	1	0	3	0
153	686	10	10000	3	1	0	3	0
152	687	10	10000	3	1	0	3	0
148	688	10	10000	3	1	0	3	0
148	689	10	10000	3	1	0	3	0
148	690	10	10000	3	1	0	3	0
147	691	10	10000	3	1	0	3	0
144	692	10	10000	3	1	0	3	0
140	693	10	10000	3	1	0	3	0
137	694	10	10000	3	1	0	3	0
133	695	10	10000	3	1	0	3	0
129	696	10	10000	3	1	0	3	0
124	697	10	10000	3	1	0	3	0
121	698	10	10000	3	1	0	3	0
116	699	10	10000	3	1	0	3	0
112	700	10	10000	3	1	0	3	0
109	701	10	10000	3	1	0	3	0
106	702	10	10000	3	1	0	3	0
101	703	10	10000	3	1	0	3	0
98	704	10	10000	3	1	0	3	0
95	705	10	10000	3	1	0	3	0
93	706	10	10000	3	1	0	3	0
94	707	10	10000	3	1	0	3	0
91	708	10	10000	3	1	0	3	0
88	709	10	10000	3	1	0	3	0
86	710	10	10000	3	1	0	3	0
82	711	10	10000	3	1	0	3	0
78	712	10	10000	3	1	0	3	0
76	713	10	10000	3	1	0	3	0
74	714	10	10000	3	1	0	3	0
71	715	10	10000	3	1	0	3	0
68	716	10	10000	3	1	0	3	0
66	717	10	10000	3	1	0	3	0
68	718	10	10000	3	1	0	3	0
68	719	10	10000	3	1	0	3	0
68	720	10	10000	3	1	0	3	0
66	721	10	10000	3	1	0	3	0
64	722	10	10000	3	1	0	3	0
62	723	10	10000	3	1	0	3	0
60	724	10	10000	3	1	0	3	0
59	725	10	10000	3	1	0	3	0
57	726	10	10000	3	1	0	3	0
55	727	10	10000	3	1	0	3	0
53	728	10	10000	3	1	0	3	0
54	729	10	10000	3	1	0	3	0
54	730	10	10000	3	1	0	3	0
53	731	10	10000	3	1	0	3	0
52	732	10	10000	3	1	0	3	0
49	733	10	10000	3	1	0	3	0
49	734	10	10000	3	1	0	3	0
48	735	10	10000	3	1	0	3	0
48	736	10	10000	3	1	0	3	0
51	737	10	10000	3	1	0	3	0
55	738	10	10000	3	1	0	3	0
56	739	10	10000	3	1	0	3	0
58	740	10	10000	3	1	0	3	0
57	741	10	10000	3	1	0	3	0
57	742	10	10000	3	1	0	3	0
53	743	10	10000	3	1	0	3	0
51	744	10	10000	3	1	0	3	0
50	745	10	10000	3	1	0	3	0
51	746	10	10000	3	1	0	3	0
52	747	10	10000	3	1	0	3	0
50	748	10	10000	3	1	0	3	0
49	749	10	10000	3	1	0	3	0
49	750	10	10000	3	1	0	3	0
51	751	10	10000	3	1	0	3	0
50	752	10	10000	3	1	0	3	0
51	753	10	10000	3	1	0	3	0
50	754	10	10000	3	1	0	3	0
50	755	10	10000	3	1	0	3	0
52	756	10	10000	3	1	0	3	0
54	757	10	10000	3	1	0	3	0
57	758	10	10000	3	1	0	3	0
58	759	10	10000	3	1	0	3	0
58	760	10	10000	3	1	0	3	0
58	761	10	10000	3	1	0	3	0
56	762	10	10000	3	1	0	3	0
55	763	10	10000	3	1	0	3	0
52	764	10	10000	3	1	0	3	0
52	765	10	10000	3	1	0	3	0
53	766	10	10000	3	1	0	3	0
52	767	10	10000	3	1	0	3	0
48	768	10	10000	3	1	0	3	0
46	769	10	10000	3	1	0	3	0
45	770	10	10000	3	1	0	3	0
45	771	10	10000	3	1	0	3	0
44	772	10	10000	3	1	0	3	0
43	773	10	10000	3	1	0	3	0
42	774	10	10000	3	1	0	3	0
39	775	10	10000	3	1	0	3	0
38	776	10	10000	3	1	0	3	0
36	777	10	10000	3	1	0	3	0
39	778	10	10000	3	1	0	3	0
37	779	10	10000	3	1	0	3	0
36	780	10	10000	3	1	0	3	0
34	781	10	10000	3	1	0	3	0
33	782	10	10000	3	1	0	3	0
32	783	10	10000	3	1	0	3	0
32	784	10	10000	3	1	0	3	0
31	785	10	10000	3	1	0	3	0
30	786	10	10000	3	1	0	3	0
29	787	10	10000	3	1	0	3	0
29	788	10	10000	3	1	0	3	0
30	789	10	10000	3	1	0	3	0
30	790	10	10000	3	1	0	3	0
30	791	10	10000	3	1	0	3	0
31	792	10	10000	3	1	0	3	0
31	793	10	10000	3	1	0	3	0
31	794	10	10000	3	1	0	3	0
31	795	10	10000	3	1	0	3	0
33	796	10	10000	3	1	0	3	0
34	797	10	10000	3	1	0	3	0
36	798	10	10000	3	1	0	3	0
37	799	10	10000	3	1	0	3	0
34	800	10	10000	3	1	0	3	0
33	801	10	10000	3	1	0	3	0
32	802	10	10000	3	1	0	3	0
33	803	10	10000	3	1	0	3	0
32	804	10	10000	3	1	0	3	0
32	805	10	10000	3	1	0	3	0
32	806	10	10000	3	1	0	3	0
31	807	10	10000	3	1	0	3	0
28	808	10	10000	3	1	0	3	0
27	809	10	10000	3	1	0	3	0
26	810	10	10000	3	1	0	3	0
25	811	10	10000	3	1	0	3	0
25	812	10	10000	3	1	0	3	0
26	813	10	10000	3	1	0	3	0
26	814	10	10000	3	1	0	3	0
25	815	10	10000	3	1	0	3	0
23	816	10	10000	3	1	0	3	0
23	817	10	10000	3	1	0	3	0
26	818	10	10000	3	1	0	3	0
28	819	10	10000	3	1	0	3	0
28	820	10	10000	3	1	0	3	0
28	821	10	10000	3	1	0	3	0
29	822	10	10000	3	1	0	3	0
30	823	10	10000	3	1	0	3	0
30	824	10	10000	3	1	0	3	0
32	825	10	10000	3	1	0	3	0
33	826	10	10000	3	1	0	3	0
34	827	10	10000	3	1	0	3	0
34	828	10	10000	3	1	0	3	0
34	829	10	10000	3	1	0	3	0
35	830	10	10000	3	1	0	3	0
37	831	10	10000	3	1	0	3	0
37	832	10	10000	3	1	0	3	0
35	833	10	10000	3	1	0	3	0
36	834	10	10000	3	1	0	3	0
35	835	10	10000	3	1	0	3	0
34	836	10	10000	3	1	0	3	0
32	837	10	10000	3	1	0	3	0
33	838	10	10000	3	1	0	3	0
31	839	10	10000	3	1	0	3	0
31	840	10	10000	3	1	0	3	0
29	841	10	10000	3	1	0	3	0
28	842	10	10000	3	1	0	3	0
28	843	10	10000	3	1	0	3	0
27	844	10	10000	3	1	0	3	0
27	845	10	10000	3	1	0	3	0
26	846	10	10000	3	1	0	3	0
26	847	10	10000	3	1	0	3	0
23	848	10	10000	3	1	0	3	0
24	849	10	10000	3	1	0	3	0
23	850	10	10000	3	1	0	3	0
23	851	10	10000	3	1	0	3	0
23	852	10	10000	3	1	0	3	0
22	853	10	10000	3	1	0	3	0
22	854	10	10000	3	1	0	3	0
21	855	10	10000	3	1	0	3	0
23	856	10	10000	3	1	0	3	0
23	857	10	10000	3	1	0	3	0
26	858	10	10000	3	1	0	3	0
26	859	10	10000	3	1	0	3	0
26	860	10	10000	3	1	0	3	0
25	861	10	10000	3	1	0	3	0
25	862	10	10000	3	1	0	3	0
27	863	10	10000	3	1	0	3	0
27	864	10	10000	3	1	0	3	0
27	865	10	10000	3	1	0	3	0
26	866	10	10000	3	1	0	3	0
28	867	10	10000	3	1	0	3	0
26	868	10	10000	3	1	0	3	0
27	869	10	10000	3	1	0	3	0
27	870	10	10000	3	1	0	3	0
27	871	10	10000	3	1	0	3	0
26	872	10	10000	3	1	0	3	0
27	873	10	10000	3	1	0	3	0
27	874	10	10000	3	1	0	3	0
26	875	10	10000	3	1	0	3	0
25	876	10	10000	3	1	0	3	0
26	877	10	10000	3	1	0	3	0
26	878	10	10000	3	1	0	3	0
26	879	10	10000	3	1	0	3	0
26	880	10	10000	3	1	0	3	0
26	881	10	10000	3	1	0	3	0
26	882	10	10000	3	1	0	3	0
24	883	10	10000	3	1	0	3	0
24	884	10	10000	3	1	0	3	0
23	885	10	10000	3	1	0	3	0
23	886	10	10000	3	1	0	3	0
24	887	10	10000	3	1	0	3	0
24	888	10	10000	3	1	0	3	0
25	889	10	10000	3	1	0	3	0
25	890	10	10000	3	1	0	3	0
24	891	10	10000	3	1	0	3	0
26	892	10	10000	3	1	0	3	0
28	893	10	10000	3	1	0	3	0
27	894	10	10000	3	1	0	3	0
26	895	10	10000	3	1	0	3	0
25	896	10	10000	3	1	0	3	0
25	897	10	10000	3	1	0	3	0
30	898	10	10000	3	1	0	3	0
29	899	10	10000	3	1	0	3	0
28	900	10	10000	3	1	0	3	0
26	901	10	10000	3	1	0	3	0
27	902	10	10000	3	1	0	3	0
25	903	10	10000	3	1	0	3	0
25	904	10	10000	3	1	0	3	0
26	905	10	10000	3	1	0	3	0
26	906	10	10000	3	1	0	3	0
26	907	10	10000	3	1	0	3	0
24	908	10	10000	3	1	0	3	0
24	909	10	10000	3	1	0	3	0
24	910	10	10000	3	1	0	3	0
24	911	10	10000	3	1	0	3	0
23	912	10	10000	3	1	0	3	0
23	913	10	10000	3	1	0	3	0
24	914	10	10000	3	1	0	3	0
22	915	10	10000	3	1	0	3	0
21	916	10	10000	3	1	0	3	0
24	917	10	10000	3	1	0	3	0
26	918	10	10000	3	1	0	3	0
26	919	10	10000	3	1	0	3	0
26	920	10	10000	3	1	0	3	0
25	921	10	10000	3	1	0	3	0
24	922	10	10000	3	1	0	3	0
24	923	10	10000	3	1	0	3	0
23	924	10	10000	3	1	0	3	0
24	925	10	10000	3	1	0	3	0
25	926	10	10000	3	1	0	3	0
27	927	10	10000	3	1	0	3	0
25	928	10	10000	3	1	0	3	0
25	929	10	10000	3	1	0	3	0
26	930	10	10000	3	1	0	3	0
25	931	10	10000	3	1	0	3	0
24	932	10	10000	3	1	0	3	0
23	933	10	10000	3	1	0	3	0
25	934	10	10000	3	1	0	3	0
26	935	10	10000	3	1	0	3	0
25	936	10	10000	3	1	0	3	0
24	937	10	10000	3	1	0	3	0
26	938	10	10000	3	1	0	3	0
24	939	10	10000	3	1	0	3	0
25	940	10	10000	3	1	0	3	0
24	941	10	10000	3	1	0	3	0
24	942	10	10000	3	1	0	3	0
24	943	10	10000	3	1	0	3	0
22	944	10	10000	3	1	0	3	0
24	945	10	10000	3	1	0	3	0
24	946	10	10000	3	1	0	3	0
25	947	10	10000	3	1	0	3	0
22	948	10	10000	3	1	0	3	0
23	949	10	10000	3	1	0	3	0
23	950	10	10000	3	1	0	3	0
25	951	10	10000	3	1	0	3	0
25	952	10	10000	3	1	0	3	0
24	953	10	10000	3	1	0	3	0
24	954	10	10000	3	1	0	3	0
23	955	10	10000	3	1	0	3	0
22	956	10	10000	3	1	0	3	0
24	957	10	10000	3	1	0	3	0
27	958	10	10000	3	1	0	3	0
27	959	10	10000	3	1	0	3	0
25	960	10	10000	3	1	0	3	0
25	961	10	10000	3	1	0	3	0
25	962	10	10000	3	1	0	3	0
24	963	10	10000	3	1	0	3	0
24	964	10	10000	3	1	0	3	0
25	965	10	10000	3	1	0	3	0
25	966	10	10000	3	1	0	3	0
27	967	10	10000	3	1	0	3	0
27	968	10	10000	3	1	0	3	0
29	969	10	10000	3	1	0	3	0
30	970	10	10000	3	1	0	3	0
30	971	10	10000	3	1	0	3	0
31	972	10	10000	3	1	0	3	0
32	973	10	10000	3	1	0	3	0
33	974	10	10000	3	1	0	3	0
33	975	10	10000	3	1	0	3	0
34	976	10	10000	3	1	0	3	0
35	977	10	10000	3	1	0	3	0
36	978	10	10000	3	1	0	3	0
35	979	10	10000	3	1	0	3	0
33	980	10	10000	3	1	0	3	0
33	981	10	10000	3	1	0	3	0
35	982	10	10000	3	1	0	3	0
34	983	10	10000	3	1	0	3	0
33	984	10	10000	3	1	0	3	0
32	985	10	10000	3	1	0	3	0
31	986	10	10000	3	1	0	3	0
30	987	10	10000	3	1	0	3	0
28	988	10	10000	3	1	0	3	0
29	989	10	10000	3	1	0	3	0
32	990	10	10000	3	1	0	3	0
34	991	10	10000	3	1	0	3	0
33	992	10	10000	3	1	0	3	0
33	993	10	10000	3	1	0	3	0
32	994	10	10000	3	1	0	3	0
32	995	10	10000	3	1	0	3	0
31	996	10	10000	3	1	0	3	0
29	997	10	10000	3	1	0	3	0
33	998	10	10000	3	1	0	3	0
33	999	10	10000	3	1	0	3	0
32	1000	10	10000	3	1	0	3	0
30	1001	10	10000	3	1	0	3	0
21	2	1	10000	4	1	0	4	0
22	3	1	10000	4	1	0	4	0
22	4	1	10000	4	1	0	4	0
21	5	1	10000	4	1	0	4	0
20	6	1	10000	4	1	0	4	0
20	7	1	10000	4	1	0	4	0
20	8	1	10000	4	1	0	4	0
20	9	1	10000	4	1	0	4	0
20	10	1	10000	4	1	0	4	0
21	11	1	10000	4	1	0	4	0
21	12	1	10000	4	1	0	4	0
22	13	1	10000	4	1	0	4	0
21	14	1	10000	4	1	0	4	0
21	15	1	10000	4	1	0	4	0
20	16	1	10000	4	1	0	4	0
23	17	1	10000	4	1	0	4	0
25	18	1	10000	4	1	0	4	0
24	19	1	10000	4	1	0	4	0
24	20	1	10000	4	1	0	4	0
23	21	1	10000	4	1	0	4	0
23	22	1	10000	4	1	0	4	0
23	23	1	10000	4	1	0	4	0
26	24	1	10000	4	1	0	4	0
29	25	1	10000	4	1	0	4	0
30	26	1	10000	4	1	0	4	0
29	27	1	10000	4	1	0	4	0
28	28	1	10000	4	1	0	4	0
28	29	1	10000	4	1	0	4	0
26	30	1	10000	4	1	0	4	0
29	31	1	10000	4	1	0	4	0
30	32	1	10000	4	1	0	4	0
29	33	1	10000	4	1	0	4	0
27	34	1	10000	4	1	0	4	0
28	35	1	10000	4	1	0	4	0
26	36	1	10000	4	1	0	4	0
25	37	1	10000	4	1	0	4	0
27	38	1	10000	4	1	0	4	0
28	39	1	10000	4	1	0	4	0
28	40	1	10000	4	1	0	4	0
25	41	1	10000	4	1	0	4	0
25	42	1	10000	4	1	0	4	0
26	43	1	10000	4	1	0	4	0
26	44	1	10000	4	1	0	4	0
26	45	1	10000	4	1	0	4	0
25	46	1	10000	4	1	0	4	0
25	47	1	10000	4	1	0	4	0
25	48	1	10000	4	1	0	4	0
27	49	1	10000	4	1	0	4	0
26	50	1	10000	4	1	0	4	0
28	51	1	10000	4	1	0	4	0
27	52	1	10000	4	1	0	4	0
26	53	1	10000	4	1	0	4	0
24	54	1	10000	4	1	0	4	0
24	55	1	10000	4	1	0	4	0
23	56	1	10000	4	1	0	4	0
24	57	1	10000	4	1	0	4	0
25	58	1	10000	4	1	0	4	0
26	59	1	10000	4	1	0	4	0
26	60	1	10000	4	1	0	4	0
24	61	1	10000	4	1	0	4	0
25	62	1	10000	4	1	0	4	0
27	63	1	10000	4	1	0	4	0
27	64	1	10000	4	1	0	4	0
27	65	1	10000	4	1	0	4	0
27	66	1	10000	4	1	0	4	0
27	67	1	10000	4	1	0	4	0
25	68	1	10000	4	1	0	4	0
25	69	1	10000	4	1	0	4	0
26	70	1	10000	4	1	0	4	0
27	71	1	10000	4	1	0	4	0
26	72	1	10000	4	1	0	4	0
25	73	1	10000	4	1	0	4	0
25	74	1	10000	4	1	0	4	0
25	75	1	10000	4	1	0	4	0
25	76	1	10000	4	1	0	4	0
26	77	1	10000	4	1	0	4	0
27	78	1	10000	4	1	0	4	0
26	79	1	10000	4	1	0	4	0
26	80	1	10000	4	1	0	4	0
25	81	1	10000	4	1	0	4	0
25	82	1	10000	4	1	0	4	0
24	83	1	10000	4	1	0	4	0
25	84	1	10000	4	1	0	4	0
25	85	1	10000	4	1	0	4	0
25	86	1	10000	4	1	0	4	0
26	87	1	10000	4	1	0	4	0
26	88	1	10000	4	1	0	4	0
24	89	1	10000	4	1	0	4	0
25	90	1	10000	4	1	0	4	0
28	91	1	10000	4	1	0	4	0
28	92	1	10000	4	1	0	4	0
27	93	1	10000	4	1	0	4	0
30	94	1	10000	4	1	0	4	0
30	95	1	10000	4	1	0	4	0
30	96	1	10000	4	1	0	4	0
30	97	1	10000	4	1	0	4	0
29	98	1	10000	4	1	0	4	0
31	99	1	10000	4	1	0	4	0
30	100	1	10000	4	1	0	4	0
28	101	1	10000	4	1	0	4	0
28	102	1	10000	4	1	0	4	0
29	103	1	10000	4	1	0	4	0
29	104	1	10000	4	1	0	4	0
29	105	1	10000	4	1	0	4	0
29	106	1	10000	4	1	0	4	0
29	107	1	10000	4	1	0	4	0
28	108	1	10000	4	1	0	4	0
28	109	1	10000	4	1	0	4	0
28	110	1	10000	4	1	0	4	0
30	111	1	10000	4	1	0	4	0
29	112	1	10000	4	1	0	4	0
28	113	1	10000	4	1	0	4	0
27	114	1	10000	4	1	0	4	0
25	115	1	10000	4	1	0	4	0
25	116	1	10000	4	1	0	4	0
25	117	1	10000	4	1	0	4	0
26	118	1	10000	4	1	0	4	0
26	119	1	10000	4	1	0	4	0
26	120	1	10000	4	1	0	4	0
22	121	1	10000	4	1	0	4	0
22	122	1	10000	4	1	0	4	0
23	123	1	10000	4	1	0	4	0
23	124	1	10000	4	1	0	4	0
22	125	1	10000	4	1	0	4	0
21	126	1	10000	4	1	0	4	0
21	127	1	10000	4	1	0	4	0
20	128	1	10000	4	1	0	4	0
21	129	1	10000	4	1	0	4	0
20	130	1	10000	4	1	0	4	0
23	131	1	10000	4	1	0	4	0
21	132	1	10000	4	1	0	4	0
22	133	1	10000	4	1	0	4	0
22	134	1	10000	4	1	0	4	0
22	135	1	10000	4	1	0	4	0
22	136	1	10000	4	1	0	4	0
22	137	1	10000	4	1	0	4	0
22	138	1	10000	4	1	0	4	0
21	139	1	10000	4	1	0	4	0
22	140	1	10000	4	1	0	4	0
20	141	1	10000	4	1	0	4	0
20	142	1	10000	4	1	0	4	0
19	143	1	10000	4	1	0	4	0
20	144	1	10000	4	1	0	4	0
19	145	1	10000	4	1	0	4	0
19	146	1	10000	4	1	0	4	0
19	147	1	10000	4	1	0	4	0
19	148	1	10000	4	1	0	4	0
19	149	1	10000	4	1	0	4	0
20	150	1	10000	4	1	0	4	0
24	151	1	10000	4	1	0	4	0
24	152	1	10000	4	1	0	4	0
24	153	1	10000	4	1	0	4	0
23	154	1	10000	4	1	0	4	0
22	155	1	10000	4	1	0	4	0
23	156	1	10000	4	1	0	4	0
22	157	1	10000	4	1	0	4	0
22	158	1	10000	4	1	0	4	0
22	159	1	10000	4	1	0	4	0
22	160	1	10000	4	1	0	4	0
19	161	1	10000	4	1	0	4	0
20	162	1	10000	4	1	0	4	0
20	163	1	10000	4	1	0	4	0
20	164	1	10000	4	1	0	4	0
20	165	1	10000	4	1	0	4	0
20	166	1	10000	4	1	0	4	0
20	167	1	10000	4	1	0	4	0
19	168	1	10000	4	1	0	4	0
18	169	1	10000	4	1	0	4	0
17	170	1	10000	4	1	0	4	0
19	171	1	10000	4	1	0	4	0
19	172	1	10000	4	1	0	4	0
19	173	1	10000	4	1	0	4	0
19	174	1	10000	4	1	0	4	0
20	175	1	10000	4	1	0	4	0
19	176	1	10000	4	1	0	4	0
19	177	1	10000	4	1	0	4	0
19	178	1	10000	4	1	0	4	0
19	179	1	10000	4	1	0	4	0
21	180	1	10000	4	1	0	4	0
19	181	1	10000	4	1	0	4	0
20	182	1	10000	4	1	0	4	0
20	183	1	10000	4	1	0	4	0
21	184	1	10000	4	1	0	4	0
20	185	1	10000	4	1	0	4	0
21	186	1	10000	4	1	0	4	0
21	187	1	10000	4	1	0	4	0
21	188	1	10000	4	1	0	4	0
21	189	1	10000	4	1	0	4	0
20	190	1	10000	4	1	0	4	0
22	191	1	10000	4	1	0	4	0
22	192	1	10000	4	1	0	4	0
21	193	1	10000	4	1	0	4	0
22	194	1	10000	4	1	0	4	0
22	195	1	10000	4	1	0	4	0
22	196	1	10000	4	1	0	4	0
22	197	1	10000	4	1	0	4	0
23	198	1	10000	4	1	0	4	0
23	199	1	10000	4	1	0	4	0
24	200	1	10000	4	1	0	4	0
21	201	1	10000	4	1	0	4	0
22	202	1	10000	4	1	0	4	0
21	203	1	10000	4	1	0	4	0
20	204	1	10000	4	1	0	4	0
21	205	1	10000	4	1	0	4	0
22	206	1	10000	4	1	0	4	0
22	207	1	10000	4	1	0	4	0
22	208	1	10000	4	1	0	4	0
22	209	1	10000	4	1	0	4	0
22	210	1	10000	4	1	0	4	0
23	211	1	10000	4	1	0	4	0
23	212	1	10000	4	1	0	4	0
23	213	1	10000	4	1	0	4	0
22	214	1	10000	4	1	0	4	0
22	215	1	10000	4	1	0	4	0
23	216	1	10000	4	1	0	4	0
22	217	1	10000	4	1	0	4	0
22	218	1	10000	4	1	0	4	0
22	219	1	10000	4	1	0	4	0
22	220	1	10000	4	1	0	4	0
19	221	1	10000	4	1	0	4	0
20	222	1	10000	4	1	0	4	0
21	223	1	10000	4	1	0	4	0
20	224	1	10000	4	1	0	4	0
20	225	1	10000	4	1	0	4	0
19	226	1	10000	4	1	0	4	0
20	227	1	10000	4	1	0	4	0
20	228	1	10000	4	1	0	4	0
20	229	1	10000	4	1	0	4	0
20	230	1	10000	4	1	0	4	0
22	231	1	10000	4	1	0	4	0
22	232	1	10000	4	1	0	4	0
22	233	1	10000	4	1	0	4	0
22	234	1	10000	4	1	0	4	0
21	235	1	10000	4	1	0	4	0
22	236	1	10000	4	1	0	4	0
24	237	1	10000	4	1	0	4	0
24	238	1	10000	4	1	0	4	0
25	239	1	10000	4	1	0	4	0
27	240	1	10000	4	1	0	4	0
25	241	1	10000	4	1	0	4	0
25	242	1	10000	4	1	0	4	0
24	243	1	10000	4	1	0	4	0
24	244	1	10000	4	1	0	4	0
23	245	1	10000	4	1	0	4	0
22	246	1	10000	4	1	0	4	0
22	247	1	10000	4	1	0	4	0
21	248	1	10000	4	1	0	4	0
20	249	1	10000	4	1	0	4	0
20	250	1	10000	4	1	0	4	0
22	251	1	10000	4	1	0	4	0
23	252	1	10000	4	1	0	4	0
24	253	1	10000	4	1	0	4	0
25	254	1	10000	4	1	0	4	0
26	255	1	10000	4	1	0	4	0
25	256	1	10000	4	1	0	4	0
23	257	1	10000	4	1	0	4	0
23	258	1	10000	4	1	0	4	0
23	259	1	10000	4	1	0	4	0
23	260	1	10000	4	1	0	4	0
20	261	1	10000	4	1	0	4	0
20	262	1	10000	4	1	0	4	0
20	263	1	10000	4	1	0	4	0
20	264	1	10000	4	1	0	4	0
20	265	1	10000	4	1	0	4	0
21	266	1	10000	4	1	0	4	0
21	267	1	10000	4	1	0	4	0
21	268	1	10000	4	1	0	4	0
21	269	1	10000	4	1	0	4	0
20	270	1	10000	4	1	0	4	0
23	271	1	10000	4	1	0	4	0
23	272	1	10000	4	1	0	4	0
23	273	1	10000	4	1	0	4	0
22	274	1	10000	4	1	0	4	0
24	275	1	10000	4	1	0	4	0
23	276	1	10000	4	1	0	4	0
23	277	1	10000	4	1	0	4	0
22	278	1	10000	4	1	0	4	0
23	279	1	10000	4	1	0	4	0
23	280	1	10000	4	1	0	4	0
21	281	1	10000	4	1	0	4	0
22	282	1	10000	4	1	0	4	0
24	283	1	10000	4	1	0	4	0
24	284	1	10000	4	1	0	4	0
23	285	1	10000	4	1	0	4	0
23	286	1	10000	4	1	0	4	0
22	287	1	10000	4	1	0	4	0
22	288	1	10000	4	1	0	4	0
23	289	1	10000	4	1	0	4	0
23	290	1	10000	4	1	0	4	0
26	291	1	10000	4	1	0	4	0
26	292	1	10000	4	1	0	4	0
26	293	1	10000	4	1	0	4	0
25	294	1	10000	4	1	0	4	0
25	295	1	10000	4	1	0	4	0
24	296	1	10000	4	1	0	4	0
23	297	1	10000	4	1	0	4	0
24	298	1	10000	4	1	0	4	0
23	299	1	10000	4	1	0	4	0
24	300	1	10000	4	1	0	4	0
23	301	1	10000	4	1	0	4	0
25	302	1	10000	4	1	0	4	0
25	303	1	10000	4	1	0	4	0
26	304	1	10000	4	1	0	4	0
25	305	1	10000	4	1	0	4	0
25	306	1	10000	4	1	0	4	0
25	307	1	10000	4	1	0	4	0
24	308	1	10000	4	1	0	4	0
24	309	1	10000	4	1	0	4	0
23	310	1	10000	4	1	0	4	0
25	311	1	10000	4	1	0	4	0
24	312	1	10000	4	1	0	4	0
24	313	1	10000	4	1	0	4	0
24	314	1	10000	4	1	0	4	0
24	315	1	10000	4	1	0	4	0
24	316	1	10000	4	1	0	4	0
24	317	1	10000	4	1	0	4	0
26	318	1	10000	4	1	0	4	0
27	319	1	10000	4	1	0	4	0
28	320	1	10000	4	1	0	4	0
26	321	1	10000	4	1	0	4	0
26	322	1	10000	4	1	0	4	0
26	323	1	10000	4	1	0	4	0
25	324	1	10000	4	1	0	4	0
24	325	1	10000	4	1	0	4	0
23	326	1	10000	4	1	0	4	0
24	327	1	10000	4	1	0	4	0
24	328	1	10000	4	1	0	4	0
22	329	1	10000	4	1	0	4	0
21	330	1	10000	4	1	0	4	0
23	331	1	10000	4	1	0	4	0
22	332	1	10000	4	1	0	4	0
23	333	1	10000	4	1	0	4	0
22	334	1	10000	4	1	0	4	0
21	335	1	10000	4	1	0	4	0
22	336	1	10000	4	1	0	4	0
21	337	1	10000	4	1	0	4	0
22	338	1	10000	4	1	0	4	0
22	339	1	10000	4	1	0	4	0
22	340	1	10000	4	1	0	4	0
20	341	1	10000	4	1	0	4	0
21	342	1	10000	4	1	0	4	0
21	343	1	10000	4	1	0	4	0
21	344	1	10000	4	1	0	4	0
21	345	1	10000	4	1	0	4	0
22	346	1	10000	4	1	0	4	0
23	347	1	10000	4	1	0	4	0
22	348	1	10000	4	1	0	4	0
20	349	1	10000	4	1	0	4	0
20	350	1	10000	4	1	0	4	0
22	351	1	10000	4	1	0	4	0
23	352	1	10000	4	1	0	4	0
22	353	1	10000	4	1	0	4	0
22	354	1	10000	4	1	0	4	0
23	355	1	10000	4	1	0	4	0
22	356	1	10000	4	1	0	4	0
22	357	1	10000	4	1	0	4	0
23	358	1	10000	4	1	0	4	0
25	359	1	10000	4	1	0	4	0
24	360	1	10000	4	1	0	4	0
22	361	1	10000	4	1	0	4	0
22	362	1	10000	4	1	0	4	0
23	363	1	10000	4	1	0	4	0
22	364	1	10000	4	1	0	4	0
23	365	1	10000	4	1	0	4	0
24	366	1	10000	4	1	0	4	0
22	367	1	10000	4	1	0	4	0
21	368	1	10000	4	1	0	4	0
21	369	1	10000	4	1	0	4	0
22	370	1	10000	4	1	0	4	0
25	371	1	10000	4	1	0	4	0
23	372	1	10000	4	1	0	4	0
24	373	1	10000	4	1	0	4	0
24	374	1	10000	4	1	0	4	0
23	375	1	10000	4	1	0	4	0
22	376	1	10000	4	1	0	4	0
22	377	1	10000	4	1	0	4	0
22	378	1	10000	4	1	0	4	0
23	379	1	10000	4	1	0	4	0
24	380	1	10000	4	1	0	4	0
22	381	1	10000	4	1	0	4	0
21	382	1	10000	4	1	0	4	0
21	383	1	10000	4	1	0	4	0
22	384	1	10000	4	1	0	4	0
23	385	1	10000	4	1	0	4	0
22	386	1	10000	4	1	0	4	0
22	387	1	10000	4	1	0	4	0
22	388	1	10000	4	1	0	4	0
21	389	1	10000	4	1	0	4	0
21	390	1	10000	4	1	0	4	0
25	391	1	10000	4	1	0	4	0
22	392	1	10000	4	1	0	4	0
21	393	1	10000	4	1	0	4	0
21	394	1	10000	4	1	0	4	0
22	395	1	10000	4	1	0	4	0
21	396	1	10000	4	1	0	4	0
21	397	1	10000	4	1	0	4	0
22	398	1	10000	4	1	0	4	0
22	399	1	10000	4	1	0	4	0
22	400	1	10000	4	1	0	4	0
18	401	1	10000	4	1	0	4	0
19	402	1	10000	4	1	0	4	0
19	403	1	10000	4	1	0	4	0
19	404	1	10000	4	1	0	4	0
19	405	1	10000	4	1	0	4	0
18	406	1	10000	4	1	0	4	0
18	407	1	10000	4	1	0	4	0
18	408	1	10000	4	1	0	4	0
18	409	1	10000	4	1	0	4	0
19	410	1	10000	4	1	0	4	0
22	411	1	10000	4	1	0	4	0
21	412	1	10000	4	1	0	4	0
20	413	1	10000	4	1	0	4	0
20	414	1	10000	4	1	0	4	0
20	415	1	10000	4	1	0	4	0
20	416	1	10000	4	1	0	4	0
19	417	1	10000	4	1	0	4	0
19	418	1	10000	4	1	0	4	0
20	419	1	10000	4	1	0	4	0
19	420	1	10000	4	1	0	4	0
17	421	1	10000	4	1	0	4	0
17	422	1	10000	4	1	0	4	0
19	423	1	10000	4	1	0	4	0
18	424	1	10000	4	1	0	4	0
17	425	1	10000	4	1	0	4	0
18	426	1	10000	4	1	0	4	0
19	427	1	10000	4	1	0	4	0
18	428	1	10000	4	1	0	4	0
18	429	1	10000	4	1	0	4	0
18	430	1	10000	4	1	0	4	0
20	431	1	10000	4	1	0	4	0
20	432	1	10000	4	1	0	4	0
20	433	1	10000	4	1	0	4	0
19	434	1	10000	4	1	0	4	0
18	435	1	10000	4	1	0	4	0
18	436	1	10000	4	1	0	4	0
18	437	1	10000	4	1	0	4	0
20	438	1	10000	4	1	0	4	0
21	439	1	10000	4	1	0	4	0
20	440	1	10000	4	1	0	4	0
19	441	1	10000	4	1	0	4	0
18	442	1	10000	4	1	0	4	0
19	443	1	10000	4	1	0	4	0
19	444	1	10000	4	1	0	4	0
20	445	1	10000	4	1	0	4	0
19	446	1	10000	4	1	0	4	0
19	447	1	10000	4	1	0	4	0
19	448	1	10000	4	1	0	4	0
18	449	1	10000	4	1	0	4	0
17	450	1	10000	4	1	0	4	0
20	451	1	10000	4	1	0	4	0
21	452	1	10000	4	1	0	4	0
20	453	1	10000	4	1	0	4	0
19	454	1	10000	4	1	0	4	0
19	455	1	10000	4	1	0	4	0
20	456	1	10000	4	1	0	4	0
19	457	1	10000	4	1	0	4	0
20	458	1	10000	4	1	0	4	0
20	459	1	10000	4	1	0	4	0
20	460	1	10000	4	1	0	4	0
18	461	1	10000	4	1	0	4	0
18	462	1	10000	4	1	0	4	0
19	463	1	10000	4	1	0	4	0
19	464	1	10000	4	1	0	4	0
18	465	1	10000	4	1	0	4	0
20	466	1	10000	4	1	0	4	0
20	467	1	10000	4	1	0	4	0
20	468	1	10000	4	1	0	4	0
20	469	1	10000	4	1	0	4	0
20	470	1	10000	4	1	0	4	0
23	471	1	10000	4	1	0	4	0
23	472	1	10000	4	1	0	4	0
23	473	1	10000	4	1	0	4	0
20	474	1	10000	4	1	0	4	0
22	475	1	10000	4	1	0	4	0
22	476	1	10000	4	1	0	4	0
21	477	1	10000	4	1	0	4	0
20	478	1	10000	4	1	0	4	0
21	479	1	10000	4	1	0	4	0
22	480	1	10000	4	1	0	4	0
19	481	1	10000	4	1	0	4	0
20	482	1	10000	4	1	0	4	0
21	483	1	10000	4	1	0	4	0
21	484	1	10000	4	1	0	4	0
21	485	1	10000	4	1	0	4	0
21	486	1	10000	4	1	0	4	0
21	487	1	10000	4	1	0	4	0
20	488	1	10000	4	1	0	4	0
20	489	1	10000	4	1	0	4	0
20	490	1	10000	4	1	0	4	0
24	491	1	10000	4	1	0	4	0
25	492	1	10000	4	1	0	4	0
25	493	1	10000	4	1	0	4	0
25	494	1	10000	4	1	0	4	0
24	495	1	10000	4	1	0	4	0
26	496	1	10000	4	1	0	4	0
27	497	1	10000	4	1	0	4	0
29	498	1	10000	4	1	0	4	0
27	499	1	10000	4	1	0	4	0
28	500	1	10000	4	1	0	4	0
29	501	1	10000	4	1	0	4	0
33	501	1	10000	4	1	0	4	1
38	502	1	10000	4	1	0	4	1
40	504	1	10000	4	1	0	4	1
44	505	1	10000	4	1	0	4	1
48	506	1	10000	4	1	0	4	1
55	507	1	10000	4	1	0	4	1
59	508	1	10000	4	1	0	4	1
63	509	1	10000	4	1	0	4	1
69	510	1	10000	4	1	0	4	1
79	511	1	10000	4	1	0	4	1
85	512	1	10000	4	1	0	4	1
90	513	1	10000	4	1	0	4	1
92	514	1	10000	4	1	0	4	1
98	515	1	10000	4	1	0	4	1
104	516	1	10000	4	1	0	4	1
110	517	1	10000	4	1	0	4	1
114	518	1	10000	4	1	0	4	1
118	519	1	10000	4	1	0	4	1
124	520	1	10000	4	1	0	4	1
126	521	1	10000	4	1	0	4	1
128	522	1	10000	4	1	0	4	1
128	523	1	10000	4	1	0	4	1
128	524	1	10000	4	1	0	4	1
127	525	1	10000	4	1	0	4	1
128	526	1	10000	4	1	0	4	1
127	527	1	10000	4	1	0	4	1
124	528	1	10000	4	1	0	4	1
123	529	1	10000	4	1	0	4	1
123	530	1	10000	4	1	0	4	1
123	531	1	10000	4	1	0	4	1
119	532	1	10000	4	1	0	4	1
113	533	1	10000	4	1	0	4	1
108	534	1	10000	4	1	0	4	1
104	535	1	10000	4	1	0	4	1
100	536	1	10000	4	1	0	4	1
97	537	1	10000	4	1	0	4	1
95	538	1	10000	4	1	0	4	1
91	539	1	10000	4	1	0	4	1
88	540	1	10000	4	1	0	4	1
83	541	1	10000	4	1	0	4	1
81	542	1	10000	4	1	0	4	1
80	543	1	10000	4	1	0	4	1
79	544	1	10000	4	1	0	4	1
77	545	1	10000	4	1	0	4	1
76	546	1	10000	4	1	0	4	1
78	547	1	10000	4	1	0	4	1
79	548	1	10000	4	1	0	4	1
79	549	1	10000	4	1	0	4	1
79	550	1	10000	4	1	0	4	1
83	551	1	10000	4	1	0	4	1
88	552	1	10000	4	1	0	4	0
90	553	1	10000	4	1	0	4	0
93	554	1	10000	4	1	0	4	0
98	555	1	10000	4	1	0	4	0
103	556	1	10000	4	1	0	4	0
107	557	1	10000	4	1	0	4	0
110	558	1	10000	4	1	0	4	0
113	559	1	10000	4	1	0	4	0
114	560	1	10000	4	1	0	4	0
116	561	1	10000	4	1	0	4	0
120	562	1	10000	4	1	0	4	0
123	563	1	10000	4	1	0	4	0
128	564	1	10000	4	1	0	4	0
130	565	1	10000	4	1	0	4	0
134	566	1	10000	4	1	0	4	0
138	567	1	10000	4	1	0	4	0
140	568	1	10000	4	1	0	4	0
141	569	1	10000	4	1	0	4	0
142	570	1	10000	4	1	0	4	0
147	571	1	10000	4	1	0	4	0
147	572	1	10000	4	1	0	4	0
147	573	1	10000	4	1	0	4	0
149	574	1	10000	4	1	0	4	0
152	575	1	10000	4	1	0	4	0
155	576	1	10000	4	1	0	4	0
155	577	1	10000	4	1	0	4	0
154	578	1	10000	4	1	0	4	0
148	579	1	10000	4	1	0	4	0
147	580	1	10000	4	1	0	4	0
147	581	1	10000	4	1	0	4	0
154	582	1	10000	4	1	0	4	0
160	583	1	10000	4	1	0	4	0
157	584	1	10000	4	1	0	4	0
153	585	1	10000	4	1	0	4	0
150	586	1	10000	4	1	0	4	0
147	587	1	10000	4	1	0	4	0
143	588	1	10000	4	1	0	4	0
146	589	1	10000	4	1	0	4	0
150	590	1	10000	4	1	0	4	0
149	591	1	10000	4	1	0	4	0
154	592	1	10000	4	1	0	4	0
159	593	1	10000	4	1	0	4	0
167	594	1	10000	4	1	0	4	0
197	595	1	10000	4	1	0	4	0
218	596	1	10000	4	1	0	4	0
228	597	1	10000	4	1	0	4	0
224	598	1	10000	4	1	0	4	0
240	599	1	10000	4	1	0	4	0
235	600	1	10000	4	1	0	4	0
228	601	1	10000	4	1	0	4	0
226	602	1	10000	4	1	0	4	0
216	603	1	10000	4	1	0	4	0
207	604	1	10000	4	1	0	4	0
202	605	1	10000	4	1	0	4	0
195	606	1	10000	4	1	0	4	0
202	607	1	10000	4	1	0	4	0
209	608	1	10000	4	1	0	4	0
225	609	1	10000	4	1	0	4	0
261	610	1	10000	4	1	0	4	0
278	611	1	10000	4	1	0	4	0
312	612	1	10000	4	1	0	4	0
321	613	1	10000	4	1	0	4	0
334	614	1	10000	4	1	0	4	0
348	615	1	10000	4	1	0	4	0
344	616	1	10000	4	1	0	4	0
338	617	1	10000	4	1	0	4	0
330	618	1	10000	4	1	0	4	0
345	619	1	10000	4	1	0	4	0
375	620	1	10000	4	1	0	4	0
382	621	1	10000	4	1	0	4	0
368	622	1	10000	4	1	0	4	0
352	623	1	10000	4	1	0	4	0
341	624	1	10000	4	1	0	4	0
334	625	1	10000	4	1	0	4	0
334	626	1	10000	4	1	0	4	0
335	627	1	10000	4	1	0	4	0
336	628	1	10000	4	1	0	4	0
335	629	1	10000	4	1	0	4	0
335	630	1	10000	4	1	0	4	0
338	631	1	10000	4	1	0	4	0
339	632	1	10000	4	1	0	4	0
341	633	1	10000	4	1	0	4	0
344	634	1	10000	4	1	0	4	0
346	635	1	10000	4	1	0	4	0
350	636	1	10000	4	1	0	4	0
355	637	1	10000	4	1	0	4	0
359	638	1	10000	4	1	0	4	0
360	639	1	10000	4	1	0	4	0
362	640	1	10000	4	1	0	4	0
360	641	1	10000	4	1	0	4	0
360	642	1	10000	4	1	0	4	0
361	643	1	10000	4	1	0	4	0
360	644	1	10000	4	1	0	4	0
357	645	1	10000	4	1	0	4	0
352	646	1	10000	4	1	0	4	0
346	647	1	10000	4	1	0	4	0
338	648	1	10000	4	1	0	4	0
328	649	1	10000	4	1	0	4	0
315	650	1	10000	4	1	0	4	0
306	651	1	10000	4	1	0	4	0
295	652	1	10000	4	1	0	4	0
284	653	1	10000	4	1	0	4	0
271	654	1	10000	4	1	0	4	0
260	655	1	10000	4	1	0	4	0
249	656	1	10000	4	1	0	4	0
239	657	1	10000	4	1	0	4	0
232	658	1	10000	4	1	0	4	0
228	659	1	10000	4	1	0	4	0
225	660	1	10000	4	1	0	4	0
219	661	1	10000	4	1	0	4	0
214	662	1	10000	4	1	0	4	0
211	663	1	10000	4	1	0	4	0
209	664	1	10000	4	1	0	4	0
206	665	1	10000	4	1	0	4	0
201	666	1	10000	4	1	0	4	0
198	667	1	10000	4	1	0	4	0
194	668	1	10000	4	1	0	4	0
191	669	1	10000	4	1	0	4	0
189	670	1	10000	4	1	0	4	0
188	671	1	10000	4	1	0	4	0
187	672	1	10000	4	1	0	4	0
185	673	1	10000	4	1	0	4	0
183	674	1	10000	4	1	0	4	0
182	675	1	10000	4	1	0	4	0
181	676	1	10000	4	1	0	4	0
181	677	1	10000	4	1	0	4	0
181	678	1	10000	4	1	0	4	0
178	679	1	10000	4	1	0	4	0
175	680	1	10000	4	1	0	4	0
169	681	1	10000	4	1	0	4	0
165	682	1	10000	4	1	0	4	0
159	683	1	10000	4	1	0	4	0
155	684	1	10000	4	1	0	4	0
155	685	1	10000	4	1	0	4	0
157	686	1	10000	4	1	0	4	0
158	687	1	10000	4	1	0	4	0
155	688	1	10000	4	1	0	4	0
152	689	1	10000	4	1	0	4	0
149	690	1	10000	4	1	0	4	0
150	691	1	10000	4	1	0	4	0
146	692	1	10000	4	1	0	4	0
142	693	1	10000	4	1	0	4	0
142	694	1	10000	4	1	0	4	0
148	695	1	10000	4	1	0	4	0
156	696	1	10000	4	1	0	4	0
163	697	1	10000	4	1	0	4	0
168	698	1	10000	4	1	0	4	0
168	699	1	10000	4	1	0	4	0
169	700	1	10000	4	1	0	4	0
163	701	1	10000	4	1	0	4	0
156	702	1	10000	4	1	0	4	0
151	703	1	10000	4	1	0	4	0
147	704	1	10000	4	1	0	4	0
149	705	1	10000	4	1	0	4	0
148	706	1	10000	4	1	0	4	0
147	707	1	10000	4	1	0	4	0
143	708	1	10000	4	1	0	4	0
140	709	1	10000	4	1	0	4	0
136	710	1	10000	4	1	0	4	0
132	711	1	10000	4	1	0	4	0
126	712	1	10000	4	1	0	4	0
120	713	1	10000	4	1	0	4	0
120	714	1	10000	4	1	0	4	0
119	715	1	10000	4	1	0	4	0
118	716	1	10000	4	1	0	4	0
116	717	1	10000	4	1	0	4	0
115	718	1	10000	4	1	0	4	0
115	719	1	10000	4	1	0	4	0
110	720	1	10000	4	1	0	4	0
104	721	1	10000	4	1	0	4	0
101	722	1	10000	4	1	0	4	0
97	723	1	10000	4	1	0	4	0
95	724	1	10000	4	1	0	4	0
92	725	1	10000	4	1	0	4	0
91	726	1	10000	4	1	0	4	0
91	727	1	10000	4	1	0	4	0
91	728	1	10000	4	1	0	4	0
91	729	1	10000	4	1	0	4	0
92	730	1	10000	4	1	0	4	0
97	731	1	10000	4	1	0	4	0
99	732	1	10000	4	1	0	4	0
100	733	1	10000	4	1	0	4	0
102	734	1	10000	4	1	0	4	0
104	735	1	10000	4	1	0	4	0
106	736	1	10000	4	1	0	4	0
109	737	1	10000	4	1	0	4	0
109	738	1	10000	4	1	0	4	0
114	739	1	10000	4	1	0	4	0
121	740	1	10000	4	1	0	4	0
128	741	1	10000	4	1	0	4	0
135	742	1	10000	4	1	0	4	0
140	743	1	10000	4	1	0	4	0
146	744	1	10000	4	1	0	4	0
152	745	1	10000	4	1	0	4	0
157	746	1	10000	4	1	0	4	0
161	747	1	10000	4	1	0	4	0
163	748	1	10000	4	1	0	4	0
169	749	1	10000	4	1	0	4	0
174	750	1	10000	4	1	0	4	0
181	751	1	10000	4	1	0	4	0
183	752	1	10000	4	1	0	4	0
184	753	1	10000	4	1	0	4	0
186	754	1	10000	4	1	0	4	0
188	755	1	10000	4	1	0	4	0
189	756	1	10000	4	1	0	4	0
190	757	1	10000	4	1	0	4	0
190	758	1	10000	4	1	0	4	0
190	759	1	10000	4	1	0	4	0
189	760	1	10000	4	1	0	4	0
186	761	1	10000	4	1	0	4	0
184	762	1	10000	4	1	0	4	0
183	763	1	10000	4	1	0	4	0
183	764	1	10000	4	1	0	4	0
184	765	1	10000	4	1	0	4	0
183	766	1	10000	4	1	0	4	0
182	767	1	10000	4	1	0	4	0
181	768	1	10000	4	1	0	4	0
179	769	1	10000	4	1	0	4	0
177	770	1	10000	4	1	0	4	0
175	771	1	10000	4	1	0	4	0
173	772	1	10000	4	1	0	4	0
172	773	1	10000	4	1	0	4	0
171	774	1	10000	4	1	0	4	0
170	775	1	10000	4	1	0	4	0
165	776	1	10000	4	1	0	4	0
161	777	1	10000	4	1	0	4	0
157	778	1	10000	4	1	0	4	0
154	779	1	10000	4	1	0	4	0
151	780	1	10000	4	1	0	4	0
144	781	1	10000	4	1	0	4	0
141	782	1	10000	4	1	0	4	0
138	783	1	10000	4	1	0	4	0
135	784	1	10000	4	1	0	4	0
129	785	1	10000	4	1	0	4	0
126	786	1	10000	4	1	0	4	0
124	787	1	10000	4	1	0	4	0
118	788	1	10000	4	1	0	4	0
115	789	1	10000	4	1	0	4	0
111	790	1	10000	4	1	0	4	0
109	791	1	10000	4	1	0	4	0
107	792	1	10000	4	1	0	4	0
104	793	1	10000	4	1	0	4	0
101	794	1	10000	4	1	0	4	0
97	795	1	10000	4	1	0	4	0
94	796	1	10000	4	1	0	4	0
92	797	1	10000	4	1	0	4	0
90	798	1	10000	4	1	0	4	0
87	799	1	10000	4	1	0	4	0
84	800	1	10000	4	1	0	4	0
80	801	1	10000	4	1	0	4	0
76	802	1	10000	4	1	0	4	0
73	803	1	10000	4	1	0	4	0
71	804	1	10000	4	1	0	4	0
69	805	1	10000	4	1	0	4	0
68	806	1	10000	4	1	0	4	0
68	807	1	10000	4	1	0	4	0
67	808	1	10000	4	1	0	4	0
63	809	1	10000	4	1	0	4	0
60	810	1	10000	4	1	0	4	0
61	811	1	10000	4	1	0	4	0
58	812	1	10000	4	1	0	4	0
56	813	1	10000	4	1	0	4	0
54	814	1	10000	4	1	0	4	0
51	815	1	10000	4	1	0	4	0
51	816	1	10000	4	1	0	4	0
52	817	1	10000	4	1	0	4	0
52	818	1	10000	4	1	0	4	0
54	819	1	10000	4	1	0	4	0
53	820	1	10000	4	1	0	4	0
50	821	1	10000	4	1	0	4	0
48	822	1	10000	4	1	0	4	0
49	823	1	10000	4	1	0	4	0
49	824	1	10000	4	1	0	4	0
47	825	1	10000	4	1	0	4	0
46	826	1	10000	4	1	0	4	0
45	827	1	10000	4	1	0	4	0
44	828	1	10000	4	1	0	4	0
43	829	1	10000	4	1	0	4	0
40	830	1	10000	4	1	0	4	0
41	831	1	10000	4	1	0	4	0
39	832	1	10000	4	1	0	4	0
39	833	1	10000	4	1	0	4	0
37	834	1	10000	4	1	0	4	0
36	835	1	10000	4	1	0	4	0
35	836	1	10000	4	1	0	4	0
36	837	1	10000	4	1	0	4	0
38	838	1	10000	4	1	0	4	0
38	839	1	10000	4	1	0	4	0
38	840	1	10000	4	1	0	4	0
35	841	1	10000	4	1	0	4	0
36	842	1	10000	4	1	0	4	0
37	843	1	10000	4	1	0	4	0
36	844	1	10000	4	1	0	4	0
34	845	1	10000	4	1	0	4	0
33	846	1	10000	4	1	0	4	0
34	847	1	10000	4	1	0	4	0
32	848	1	10000	4	1	0	4	0
31	849	1	10000	4	1	0	4	0
30	850	1	10000	4	1	0	4	0
32	851	1	10000	4	1	0	4	0
30	852	1	10000	4	1	0	4	0
30	853	1	10000	4	1	0	4	0
29	854	1	10000	4	1	0	4	0
29	855	1	10000	4	1	0	4	0
31	856	1	10000	4	1	0	4	0
32	857	1	10000	4	1	0	4	0
33	858	1	10000	4	1	0	4	0
33	859	1	10000	4	1	0	4	0
32	860	1	10000	4	1	0	4	0
29	861	1	10000	4	1	0	4	0
29	862	1	10000	4	1	0	4	0
28	863	1	10000	4	1	0	4	0
29	864	1	10000	4	1	0	4	0
30	865	1	10000	4	1	0	4	0
30	866	1	10000	4	1	0	4	0
30	867	1	10000	4	1	0	4	0
30	868	1	10000	4	1	0	4	0
29	869	1	10000	4	1	0	4	0
28	870	1	10000	4	1	0	4	0
31	871	1	10000	4	1	0	4	0
31	872	1	10000	4	1	0	4	0
30	873	1	10000	4	1	0	4	0
28	874	1	10000	4	1	0	4	0
29	875	1	10000	4	1	0	4	0
30	876	1	10000	4	1	0	4	0
31	877	1	10000	4	1	0	4	0
32	878	1	10000	4	1	0	4	0
32	879	1	10000	4	1	0	4	0
32	880	1	10000	4	1	0	4	0
29	881	1	10000	4	1	0	4	0
29	882	1	10000	4	1	0	4	0
29	883	1	10000	4	1	0	4	0
28	884	1	10000	4	1	0	4	0
29	885	1	10000	4	1	0	4	0
31	886	1	10000	4	1	0	4	0
31	887	1	10000	4	1	0	4	0
30	888	1	10000	4	1	0	4	0
28	889	1	10000	4	1	0	4	0
28	890	1	10000	4	1	0	4	0
29	891	1	10000	4	1	0	4	0
30	892	1	10000	4	1	0	4	0
30	893	1	10000	4	1	0	4	0
29	894	1	10000	4	1	0	4	0
30	895	1	10000	4	1	0	4	0
30	896	1	10000	4	1	0	4	0
28	897	1	10000	4	1	0	4	0
27	898	1	10000	4	1	0	4	0
27	899	1	10000	4	1	0	4	0
28	900	1	10000	4	1	0	4	0
26	901	1	10000	4	1	0	4	0
26	902	1	10000	4	1	0	4	0
25	903	1	10000	4	1	0	4	0
26	904	1	10000	4	1	0	4	0
27	905	1	10000	4	1	0	4	0
27	906	1	10000	4	1	0	4	0
28	907	1	10000	4	1	0	4	0
27	908	1	10000	4	1	0	4	0
26	909	1	10000	4	1	0	4	0
25	910	1	10000	4	1	0	4	0
26	911	1	10000	4	1	0	4	0
26	912	1	10000	4	1	0	4	0
25	913	1	10000	4	1	0	4	0
25	914	1	10000	4	1	0	4	0
27	915	1	10000	4	1	0	4	0
25	916	1	10000	4	1	0	4	0
25	917	1	10000	4	1	0	4	0
25	918	1	10000	4	1	0	4	0
24	919	1	10000	4	1	0	4	0
25	920	1	10000	4	1	0	4	0
22	921	1	10000	4	1	0	4	0
24	922	1	10000	4	1	0	4	0
25	923	1	10000	4	1	0	4	0
28	924	1	10000	4	1	0	4	0
28	925	1	10000	4	1	0	4	0
26	926	1	10000	4	1	0	4	0
25	927	1	10000	4	1	0	4	0
25	928	1	10000	4	1	0	4	0
26	929	1	10000	4	1	0	4	0
26	930	1	10000	4	1	0	4	0
29	931	1	10000	4	1	0	4	0
27	932	1	10000	4	1	0	4	0
27	933	1	10000	4	1	0	4	0
26	934	1	10000	4	1	0	4	0
25	935	1	10000	4	1	0	4	0
25	936	1	10000	4	1	0	4	0
24	937	1	10000	4	1	0	4	0
27	938	1	10000	4	1	0	4	0
28	939	1	10000	4	1	0	4	0
28	940	1	10000	4	1	0	4	0
25	941	1	10000	4	1	0	4	0
26	942	1	10000	4	1	0	4	0
27	943	1	10000	4	1	0	4	0
26	944	1	10000	4	1	0	4	0
26	945	1	10000	4	1	0	4	0
26	946	1	10000	4	1	0	4	0
26	947	1	10000	4	1	0	4	0
26	948	1	10000	4	1	0	4	0
25	949	1	10000	4	1	0	4	0
23	950	1	10000	4	1	0	4	0
25	951	1	10000	4	1	0	4	0
25	952	1	10000	4	1	0	4	0
24	953	1	10000	4	1	0	4	0
23	954	1	10000	4	1	0	4	0
23	955	1	10000	4	1	0	4	0
22	956	1	10000	4	1	0	4	0
22	957	1	10000	4	1	0	4	0
23	958	1	10000	4	1	0	4	0
23	959	1	10000	4	1	0	4	0
23	960	1	10000	4	1	0	4	0
22	961	1	10000	4	1	0	4	0
22	962	1	10000	4	1	0	4	0
23	963	1	10000	4	1	0	4	0
22	964	1	10000	4	1	0	4	0
23	965	1	10000	4	1	0	4	0
23	966	1	10000	4	1	0	4	0
24	967	1	10000	4	1	0	4	0
24	968	1	10000	4	1	0	4	0
23	969	1	10000	4	1	0	4	0
22	970	1	10000	4	1	0	4	0
23	971	1	10000	4	1	0	4	0
23	972	1	10000	4	1	0	4	0
22	973	1	10000	4	1	0	4	0
21	974	1	10000	4	1	0	4	0
20	975	1	10000	4	1	0	4	0
20	976	1	10000	4	1	0	4	0
20	977	1	10000	4	1	0	4	0
20	978	1	10000	4	1	0	4	0
20	979	1	10000	4	1	0	4	0
20	980	1	10000	4	1	0	4	0
19	981	1	10000	4	1	0	4	0
20	982	1	10000	4	1	0	4	0
20	983	1	10000	4	1	0	4	0
20	984	1	10000	4	1	0	4	0
20	985	1	10000	4	1	0	4	0
20	986	1	10000	4	1	0	4	0
20	987	1	10000	4	1	0	4	0
19	988	1	10000	4	1	0	4	0
19	989	1	10000	4	1	0	4	0
19	990	1	10000	4	1	0	4	0
20	991	1	10000	4	1	0	4	0
20	992	1	10000	4	1	0	4	0
20	993	1	10000	4	1	0	4	0
19	994	1	10000	4	1	0	4	0
19	995	1	10000	4	1	0	4	0
19	996	1	10000	4	1	0	4	0
19	997	1	10000	4	1	0	4	0
18	998	1	10000	4	1	0	4	0
19	999	1	10000	4	1	0	4	0
19	1000	1	10000	4	1	0	4	0
20	1001	1	10000	4	1	0	4	0
31	1	10	10000	5	1	0	5	0
32	2	10	10000	5	1	0	5	0
31	3	10	10000	5	1	0	5	0
31	4	10	10000	5	1	0	5	0
32	5	10	10000	5	1	0	5	0
32	6	10	10000	5	1	0	5	0
31	7	10	10000	5	1	0	5	0
30	8	10	10000	5	1	0	5	0
30	9	10	10000	5	1	0	5	0
30	10	10	10000	5	1	0	5	0
30	11	10	10000	5	1	0	5	0
29	12	10	10000	5	1	0	5	0
29	13	10	10000	5	1	0	5	0
29	14	10	10000	5	1	0	5	0
27	15	10	10000	5	1	0	5	0
27	16	10	10000	5	1	0	5	0
28	17	10	10000	5	1	0	5	0
28	18	10	10000	5	1	0	5	0
27	19	10	10000	5	1	0	5	0
29	20	10	10000	5	1	0	5	0
30	21	10	10000	5	1	0	5	0
30	22	10	10000	5	1	0	5	0
29	23	10	10000	5	1	0	5	0
28	24	10	10000	5	1	0	5	0
28	25	10	10000	5	1	0	5	0
30	26	10	10000	5	1	0	5	0
32	27	10	10000	5	1	0	5	0
32	28	10	10000	5	1	0	5	0
32	29	10	10000	5	1	0	5	0
32	30	10	10000	5	1	0	5	0
33	31	10	10000	5	1	0	5	0
36	32	10	10000	5	1	0	5	0
36	33	10	10000	5	1	0	5	0
35	34	10	10000	5	1	0	5	0
34	35	10	10000	5	1	0	5	0
33	36	10	10000	5	1	0	5	0
33	37	10	10000	5	1	0	5	0
36	38	10	10000	5	1	0	5	0
39	39	10	10000	5	1	0	5	0
39	40	10	10000	5	1	0	5	0
40	41	10	10000	5	1	0	5	0
45	42	10	10000	5	1	0	5	0
49	43	10	10000	5	1	0	5	0
51	44	10	10000	5	1	0	5	0
50	45	10	10000	5	1	0	5	0
51	46	10	10000	5	1	0	5	0
53	47	10	10000	5	1	0	5	0
53	48	10	10000	5	1	0	5	0
57	49	10	10000	5	1	0	5	0
59	50	10	10000	5	1	0	5	0
60	51	10	10000	5	1	0	5	0
59	52	10	10000	5	1	0	5	0
59	53	10	10000	5	1	0	5	0
65	54	10	10000	5	1	0	5	0
66	55	10	10000	5	1	0	5	0
68	56	10	10000	5	1	0	5	0
72	57	10	10000	5	1	0	5	0
78	58	10	10000	5	1	0	5	0
76	59	10	10000	5	1	0	5	0
80	60	10	10000	5	1	0	5	0
84	61	10	10000	5	1	0	5	0
86	62	10	10000	5	1	0	5	0
85	63	10	10000	5	1	0	5	0
81	64	10	10000	5	1	0	5	0
81	65	10	10000	5	1	0	5	0
80	66	10	10000	5	1	0	5	0
78	67	10	10000	5	1	0	5	0
74	68	10	10000	5	1	0	5	0
71	69	10	10000	5	1	0	5	0
69	70	10	10000	5	1	0	5	0
68	71	10	10000	5	1	0	5	0
67	72	10	10000	5	1	0	5	0
68	73	10	10000	5	1	0	5	0
67	74	10	10000	5	1	0	5	0
64	75	10	10000	5	1	0	5	0
63	76	10	10000	5	1	0	5	0
62	77	10	10000	5	1	0	5	0
64	78	10	10000	5	1	0	5	0
63	79	10	10000	5	1	0	5	0
62	80	10	10000	5	1	0	5	0
63	81	10	10000	5	1	0	5	0
63	82	10	10000	5	1	0	5	0
62	83	10	10000	5	1	0	5	0
58	84	10	10000	5	1	0	5	0
58	85	10	10000	5	1	0	5	0
56	86	10	10000	5	1	0	5	0
53	87	10	10000	5	1	0	5	0
51	88	10	10000	5	1	0	5	0
48	89	10	10000	5	1	0	5	0
48	90	10	10000	5	1	0	5	0
49	91	10	10000	5	1	0	5	0
50	92	10	10000	5	1	0	5	0
52	93	10	10000	5	1	0	5	0
52	94	10	10000	5	1	0	5	0
51	95	10	10000	5	1	0	5	0
49	96	10	10000	5	1	0	5	0
52	97	10	10000	5	1	0	5	0
57	98	10	10000	5	1	0	5	0
60	99	10	10000	5	1	0	5	0
58	100	10	10000	5	1	0	5	0
57	101	10	10000	5	1	0	5	0
57	102	10	10000	5	1	0	5	0
55	103	10	10000	5	1	0	5	0
53	104	10	10000	5	1	0	5	0
53	105	10	10000	5	1	0	5	0
51	106	10	10000	5	1	0	5	0
50	107	10	10000	5	1	0	5	0
48	108	10	10000	5	1	0	5	0
47	109	10	10000	5	1	0	5	0
47	110	10	10000	5	1	0	5	0
48	111	10	10000	5	1	0	5	0
47	112	10	10000	5	1	0	5	0
47	113	10	10000	5	1	0	5	0
45	114	10	10000	5	1	0	5	0
44	115	10	10000	5	1	0	5	0
42	116	10	10000	5	1	0	5	0
45	117	10	10000	5	1	0	5	0
49	118	10	10000	5	1	0	5	0
52	119	10	10000	5	1	0	5	0
55	120	10	10000	5	1	0	5	0
52	121	10	10000	5	1	0	5	0
52	122	10	10000	5	1	0	5	0
53	123	10	10000	5	1	0	5	0
51	124	10	10000	5	1	0	5	0
49	125	10	10000	5	1	0	5	0
48	126	10	10000	5	1	0	5	0
46	127	10	10000	5	1	0	5	0
43	128	10	10000	5	1	0	5	0
46	129	10	10000	5	1	0	5	0
52	130	10	10000	5	1	0	5	0
51	131	10	10000	5	1	0	5	0
51	132	10	10000	5	1	0	5	0
53	133	10	10000	5	1	0	5	0
51	134	10	10000	5	1	0	5	0
49	135	10	10000	5	1	0	5	0
47	136	10	10000	5	1	0	5	0
45	137	10	10000	5	1	0	5	0
48	138	10	10000	5	1	0	5	0
48	139	10	10000	5	1	0	5	0
49	140	10	10000	5	1	0	5	0
47	141	10	10000	5	1	0	5	0
47	142	10	10000	5	1	0	5	0
47	143	10	10000	5	1	0	5	0
45	144	10	10000	5	1	0	5	0
45	145	10	10000	5	1	0	5	0
44	146	10	10000	5	1	0	5	0
43	147	10	10000	5	1	0	5	0
41	148	10	10000	5	1	0	5	0
40	149	10	10000	5	1	0	5	0
38	150	10	10000	5	1	0	5	0
38	151	10	10000	5	1	0	5	0
36	152	10	10000	5	1	0	5	0
35	153	10	10000	5	1	0	5	0
34	154	10	10000	5	1	0	5	0
32	155	10	10000	5	1	0	5	0
33	156	10	10000	5	1	0	5	0
32	157	10	10000	5	1	0	5	0
32	158	10	10000	5	1	0	5	0
32	159	10	10000	5	1	0	5	0
31	160	10	10000	5	1	0	5	0
29	161	10	10000	5	1	0	5	0
29	162	10	10000	5	1	0	5	0
30	163	10	10000	5	1	0	5	0
28	164	10	10000	5	1	0	5	0
27	165	10	10000	5	1	0	5	0
28	166	10	10000	5	1	0	5	0
30	167	10	10000	5	1	0	5	0
29	168	10	10000	5	1	0	5	0
29	169	10	10000	5	1	0	5	0
29	170	10	10000	5	1	0	5	0
30	171	10	10000	5	1	0	5	0
32	172	10	10000	5	1	0	5	0
31	173	10	10000	5	1	0	5	0
32	174	10	10000	5	1	0	5	0
32	175	10	10000	5	1	0	5	0
32	176	10	10000	5	1	0	5	0
35	177	10	10000	5	1	0	5	0
41	178	10	10000	5	1	0	5	0
42	179	10	10000	5	1	0	5	0
41	180	10	10000	5	1	0	5	0
40	181	10	10000	5	1	0	5	0
39	182	10	10000	5	1	0	5	0
38	183	10	10000	5	1	0	5	0
37	184	10	10000	5	1	0	5	0
38	185	10	10000	5	1	0	5	0
40	186	10	10000	5	1	0	5	0
40	187	10	10000	5	1	0	5	0
42	188	10	10000	5	1	0	5	0
47	189	10	10000	5	1	0	5	0
48	190	10	10000	5	1	0	5	0
48	191	10	10000	5	1	0	5	0
50	192	10	10000	5	1	0	5	0
50	193	10	10000	5	1	0	5	0
50	194	10	10000	5	1	0	5	0
49	195	10	10000	5	1	0	5	0
49	196	10	10000	5	1	0	5	0
47	197	10	10000	5	1	0	5	0
48	198	10	10000	5	1	0	5	0
48	199	10	10000	5	1	0	5	0
51	200	10	10000	5	1	0	5	0
53	201	10	10000	5	1	0	5	0
52	202	10	10000	5	1	0	5	0
51	203	10	10000	5	1	0	5	0
48	204	10	10000	5	1	0	5	0
48	205	10	10000	5	1	0	5	0
48	206	10	10000	5	1	0	5	0
47	207	10	10000	5	1	0	5	0
44	208	10	10000	5	1	0	5	0
45	209	10	10000	5	1	0	5	0
46	210	10	10000	5	1	0	5	0
45	211	10	10000	5	1	0	5	0
45	212	10	10000	5	1	0	5	0
47	213	10	10000	5	1	0	5	0
45	214	10	10000	5	1	0	5	0
44	215	10	10000	5	1	0	5	0
43	216	10	10000	5	1	0	5	0
41	217	10	10000	5	1	0	5	0
43	218	10	10000	5	1	0	5	0
42	219	10	10000	5	1	0	5	0
41	220	10	10000	5	1	0	5	0
40	221	10	10000	5	1	0	5	0
41	222	10	10000	5	1	0	5	0
44	223	10	10000	5	1	0	5	0
44	224	10	10000	5	1	0	5	0
47	225	10	10000	5	1	0	5	0
51	226	10	10000	5	1	0	5	0
58	227	10	10000	5	1	0	5	0
61	228	10	10000	5	1	0	5	0
65	229	10	10000	5	1	0	5	0
70	230	10	10000	5	1	0	5	0
77	231	10	10000	5	1	0	5	0
84	232	10	10000	5	1	0	5	0
90	233	10	10000	5	1	0	5	0
94	234	10	10000	5	1	0	5	0
100	235	10	10000	5	1	0	5	0
109	236	10	10000	5	1	0	5	0
118	237	10	10000	5	1	0	5	0
126	238	10	10000	5	1	0	5	0
129	239	10	10000	5	1	0	5	0
135	240	10	10000	5	1	0	5	0
143	241	10	10000	5	1	0	5	0
150	242	10	10000	5	1	0	5	0
157	243	10	10000	5	1	0	5	0
163	244	10	10000	5	1	0	5	0
168	245	10	10000	5	1	0	5	0
170	246	10	10000	5	1	0	5	0
172	247	10	10000	5	1	0	5	0
169	248	10	10000	5	1	0	5	0
170	249	10	10000	5	1	0	5	0
170	250	10	10000	5	1	0	5	0
171	251	10	10000	5	1	0	5	0
170	252	10	10000	5	1	0	5	0
168	253	10	10000	5	1	0	5	0
165	254	10	10000	5	1	0	5	0
158	255	10	10000	5	1	0	5	0
152	256	10	10000	5	1	0	5	0
146	257	10	10000	5	1	0	5	0
141	258	10	10000	5	1	0	5	0
137	259	10	10000	5	1	0	5	0
136	260	10	10000	5	1	0	5	0
135	261	10	10000	5	1	0	5	0
135	262	10	10000	5	1	0	5	0
138	263	10	10000	5	1	0	5	0
141	264	10	10000	5	1	0	5	0
146	265	10	10000	5	1	0	5	0
153	266	10	10000	5	1	0	5	0
160	267	10	10000	5	1	0	5	0
164	268	10	10000	5	1	0	5	0
165	269	10	10000	5	1	0	5	0
166	270	10	10000	5	1	0	5	0
166	271	10	10000	5	1	0	5	0
167	272	10	10000	5	1	0	5	0
171	273	10	10000	5	1	0	5	0
174	274	10	10000	5	1	0	5	0
175	275	10	10000	5	1	0	5	0
176	276	10	10000	5	1	0	5	0
180	277	10	10000	5	1	0	5	0
185	278	10	10000	5	1	0	5	0
187	279	10	10000	5	1	0	5	0
188	280	10	10000	5	1	0	5	0
189	281	10	10000	5	1	0	5	0
191	282	10	10000	5	1	0	5	0
194	283	10	10000	5	1	0	5	0
195	284	10	10000	5	1	0	5	0
196	285	10	10000	5	1	0	5	0
197	286	10	10000	5	1	0	5	0
196	287	10	10000	5	1	0	5	0
196	288	10	10000	5	1	0	5	0
194	289	10	10000	5	1	0	5	0
195	290	10	10000	5	1	0	5	0
195	291	10	10000	5	1	0	5	0
194	292	10	10000	5	1	0	5	0
191	293	10	10000	5	1	0	5	0
189	294	10	10000	5	1	0	5	0
189	295	10	10000	5	1	0	5	0
187	296	10	10000	5	1	0	5	0
184	297	10	10000	5	1	0	5	0
182	298	10	10000	5	1	0	5	0
181	299	10	10000	5	1	0	5	0
180	300	10	10000	5	1	0	5	0
180	301	10	10000	5	1	0	5	0
177	302	10	10000	5	1	0	5	0
173	303	10	10000	5	1	0	5	0
168	304	10	10000	5	1	0	5	0
162	305	10	10000	5	1	0	5	0
156	306	10	10000	5	1	0	5	0
152	307	10	10000	5	1	0	5	0
150	308	10	10000	5	1	0	5	0
149	309	10	10000	5	1	0	5	0
147	310	10	10000	5	1	0	5	0
140	311	10	10000	5	1	0	5	0
135	312	10	10000	5	1	0	5	0
131	313	10	10000	5	1	0	5	0
128	314	10	10000	5	1	0	5	0
122	315	10	10000	5	1	0	5	0
116	316	10	10000	5	1	0	5	0
113	317	10	10000	5	1	0	5	0
112	318	10	10000	5	1	0	5	0
109	319	10	10000	5	1	0	5	0
104	320	10	10000	5	1	0	5	0
99	321	10	10000	5	1	0	5	0
96	322	10	10000	5	1	0	5	0
92	323	10	10000	5	1	0	5	0
88	324	10	10000	5	1	0	5	0
85	325	10	10000	5	1	0	5	0
83	326	10	10000	5	1	0	5	0
81	327	10	10000	5	1	0	5	0
76	328	10	10000	5	1	0	5	0
74	329	10	10000	5	1	0	5	0
73	330	10	10000	5	1	0	5	0
72	331	10	10000	5	1	0	5	0
69	332	10	10000	5	1	0	5	0
67	333	10	10000	5	1	0	5	0
65	334	10	10000	5	1	0	5	0
64	335	10	10000	5	1	0	5	0
65	336	10	10000	5	1	0	5	0
67	337	10	10000	5	1	0	5	0
70	338	10	10000	5	1	0	5	0
70	339	10	10000	5	1	0	5	0
68	340	10	10000	5	1	0	5	0
65	341	10	10000	5	1	0	5	0
65	342	10	10000	5	1	0	5	0
63	343	10	10000	5	1	0	5	0
60	344	10	10000	5	1	0	5	0
59	345	10	10000	5	1	0	5	0
57	346	10	10000	5	1	0	5	0
55	347	10	10000	5	1	0	5	0
52	348	10	10000	5	1	0	5	0
53	349	10	10000	5	1	0	5	0
55	350	10	10000	5	1	0	5	0
56	351	10	10000	5	1	0	5	0
55	352	10	10000	5	1	0	5	0
53	353	10	10000	5	1	0	5	0
51	354	10	10000	5	1	0	5	0
49	355	10	10000	5	1	0	5	0
49	356	10	10000	5	1	0	5	0
49	357	10	10000	5	1	0	5	0
50	358	10	10000	5	1	0	5	0
50	359	10	10000	5	1	0	5	0
51	360	10	10000	5	1	0	5	0
49	361	10	10000	5	1	0	5	0
50	362	10	10000	5	1	0	5	0
51	363	10	10000	5	1	0	5	0
49	364	10	10000	5	1	0	5	0
47	365	10	10000	5	1	0	5	0
47	366	10	10000	5	1	0	5	0
48	367	10	10000	5	1	0	5	0
49	368	10	10000	5	1	0	5	0
52	369	10	10000	5	1	0	5	0
53	370	10	10000	5	1	0	5	0
52	371	10	10000	5	1	0	5	0
49	372	10	10000	5	1	0	5	0
48	373	10	10000	5	1	0	5	0
47	374	10	10000	5	1	0	5	0
44	375	10	10000	5	1	0	5	0
43	376	10	10000	5	1	0	5	0
43	377	10	10000	5	1	0	5	0
44	378	10	10000	5	1	0	5	0
42	379	10	10000	5	1	0	5	0
40	380	10	10000	5	1	0	5	0
39	381	10	10000	5	1	0	5	0
39	382	10	10000	5	1	0	5	0
37	383	10	10000	5	1	0	5	0
36	384	10	10000	5	1	0	5	0
36	385	10	10000	5	1	0	5	0
37	386	10	10000	5	1	0	5	0
37	387	10	10000	5	1	0	5	0
35	388	10	10000	5	1	0	5	0
34	389	10	10000	5	1	0	5	0
33	390	10	10000	5	1	0	5	0
33	391	10	10000	5	1	0	5	0
33	392	10	10000	5	1	0	5	0
32	393	10	10000	5	1	0	5	0
33	394	10	10000	5	1	0	5	0
32	395	10	10000	5	1	0	5	0
32	396	10	10000	5	1	0	5	0
31	397	10	10000	5	1	0	5	0
32	398	10	10000	5	1	0	5	0
32	399	10	10000	5	1	0	5	0
33	400	10	10000	5	1	0	5	0
38	401	10	10000	5	1	0	5	0
40	402	10	10000	5	1	0	5	0
40	403	10	10000	5	1	0	5	0
42	404	10	10000	5	1	0	5	0
44	405	10	10000	5	1	0	5	0
45	406	10	10000	5	1	0	5	0
44	407	10	10000	5	1	0	5	0
43	408	10	10000	5	1	0	5	0
43	409	10	10000	5	1	0	5	0
43	410	10	10000	5	1	0	5	0
44	411	10	10000	5	1	0	5	0
44	412	10	10000	5	1	0	5	0
44	413	10	10000	5	1	0	5	0
44	414	10	10000	5	1	0	5	0
43	415	10	10000	5	1	0	5	0
41	416	10	10000	5	1	0	5	0
43	417	10	10000	5	1	0	5	0
46	418	10	10000	5	1	0	5	0
46	419	10	10000	5	1	0	5	0
47	420	10	10000	5	1	0	5	0
46	421	10	10000	5	1	0	5	0
47	422	10	10000	5	1	0	5	0
46	423	10	10000	5	1	0	5	0
44	424	10	10000	5	1	0	5	0
43	425	10	10000	5	1	0	5	0
41	426	10	10000	5	1	0	5	0
41	427	10	10000	5	1	0	5	0
39	428	10	10000	5	1	0	5	0
40	429	10	10000	5	1	0	5	0
39	430	10	10000	5	1	0	5	0
39	431	10	10000	5	1	0	5	0
38	432	10	10000	5	1	0	5	0
38	433	10	10000	5	1	0	5	0
38	434	10	10000	5	1	0	5	0
37	435	10	10000	5	1	0	5	0
40	436	10	10000	5	1	0	5	0
47	437	10	10000	5	1	0	5	0
61	438	10	10000	5	1	0	5	0
69	439	10	10000	5	1	0	5	0
68	440	10	10000	5	1	0	5	0
68	441	10	10000	5	1	0	5	0
71	442	10	10000	5	1	0	5	0
72	443	10	10000	5	1	0	5	0
77	444	10	10000	5	1	0	5	0
82	445	10	10000	5	1	0	5	0
83	446	10	10000	5	1	0	5	0
82	447	10	10000	5	1	0	5	0
78	448	10	10000	5	1	0	5	0
75	449	10	10000	5	1	0	5	0
74	450	10	10000	5	1	0	5	0
73	451	10	10000	5	1	0	5	0
70	452	10	10000	5	1	0	5	0
68	453	10	10000	5	1	0	5	0
65	454	10	10000	5	1	0	5	0
62	455	10	10000	5	1	0	5	0
61	456	10	10000	5	1	0	5	0
62	457	10	10000	5	1	0	5	0
63	458	10	10000	5	1	0	5	0
60	459	10	10000	5	1	0	5	0
57	460	10	10000	5	1	0	5	0
55	461	10	10000	5	1	0	5	0
56	462	10	10000	5	1	0	5	0
54	463	10	10000	5	1	0	5	0
52	464	10	10000	5	1	0	5	0
51	465	10	10000	5	1	0	5	0
50	466	10	10000	5	1	0	5	0
50	467	10	10000	5	1	0	5	0
48	468	10	10000	5	1	0	5	0
47	469	10	10000	5	1	0	5	0
46	470	10	10000	5	1	0	5	0
44	471	10	10000	5	1	0	5	0
43	472	10	10000	5	1	0	5	0
44	473	10	10000	5	1	0	5	0
47	474	10	10000	5	1	0	5	0
47	475	10	10000	5	1	0	5	0
45	476	10	10000	5	1	0	5	0
43	477	10	10000	5	1	0	5	0
45	478	10	10000	5	1	0	5	0
44	479	10	10000	5	1	0	5	0
47	480	10	10000	5	1	0	5	0
49	481	10	10000	5	1	0	5	0
50	482	10	10000	5	1	0	5	0
49	483	10	10000	5	1	0	5	0
46	484	10	10000	5	1	0	5	0
47	485	10	10000	5	1	0	5	0
46	486	10	10000	5	1	0	5	0
44	487	10	10000	5	1	0	5	0
42	488	10	10000	5	1	0	5	0
42	489	10	10000	5	1	0	5	0
41	490	10	10000	5	1	0	5	0
40	491	10	10000	5	1	0	5	0
41	492	10	10000	5	1	0	5	0
43	493	10	10000	5	1	0	5	0
44	494	10	10000	5	1	0	5	0
43	495	10	10000	5	1	0	5	0
41	496	10	10000	5	1	0	5	0
43	497	10	10000	5	1	0	5	0
44	498	10	10000	5	1	0	5	0
44	499	10	10000	5	1	0	5	0
41	500	10	10000	5	1	0	5	0
39	501	10	10000	5	1	0	5	1
39	502	10	10000	5	1	0	5	1
38	503	10	10000	5	1	0	5	1
36	504	10	10000	5	1	0	5	1
36	505	10	10000	5	1	0	5	1
39	506	10	10000	5	1	0	5	1
37	507	10	10000	5	1	0	5	1
34	508	10	10000	5	1	0	5	1
35	509	10	10000	5	1	0	5	1
35	510	10	10000	5	1	0	5	1
35	511	10	10000	5	1	0	5	1
35	512	10	10000	5	1	0	5	1
36	513	10	10000	5	1	0	5	1
35	514	10	10000	5	1	0	5	1
36	515	10	10000	5	1	0	5	1
35	516	10	10000	5	1	0	5	1
35	517	10	10000	5	1	0	5	1
36	518	10	10000	5	1	0	5	1
35	519	10	10000	5	1	0	5	1
35	520	10	10000	5	1	0	5	1
34	521	10	10000	5	1	0	5	1
33	522	10	10000	5	1	0	5	1
32	523	10	10000	5	1	0	5	1
32	524	10	10000	5	1	0	5	1
32	525	10	10000	5	1	0	5	1
32	526	10	10000	5	1	0	5	1
32	527	10	10000	5	1	0	5	1
30	528	10	10000	5	1	0	5	1
29	529	10	10000	5	1	0	5	1
30	530	10	10000	5	1	0	5	1
30	531	10	10000	5	1	0	5	1
29	532	10	10000	5	1	0	5	1
29	533	10	10000	5	1	0	5	1
28	534	10	10000	5	1	0	5	1
27	535	10	10000	5	1	0	5	1
26	536	10	10000	5	1	0	5	1
27	537	10	10000	5	1	0	5	1
29	538	10	10000	5	1	0	5	1
27	539	10	10000	5	1	0	5	1
26	540	10	10000	5	1	0	5	1
25	541	10	10000	5	1	0	5	1
25	542	10	10000	5	1	0	5	1
25	543	10	10000	5	1	0	5	1
24	544	10	10000	5	1	0	5	1
24	545	10	10000	5	1	0	5	1
25	546	10	10000	5	1	0	5	1
26	547	10	10000	5	1	0	5	1
23	548	10	10000	5	1	0	5	1
22	549	10	10000	5	1	0	5	1
22	550	10	10000	5	1	0	5	1
22	551	10	10000	5	1	0	5	0
24	552	10	10000	5	1	0	5	0
24	553	10	10000	5	1	0	5	0
24	554	10	10000	5	1	0	5	0
25	555	10	10000	5	1	0	5	0
24	556	10	10000	5	1	0	5	0
23	557	10	10000	5	1	0	5	0
25	558	10	10000	5	1	0	5	0
25	559	10	10000	5	1	0	5	0
25	560	10	10000	5	1	0	5	0
26	561	10	10000	5	1	0	5	0
26	562	10	10000	5	1	0	5	0
26	563	10	10000	5	1	0	5	0
26	564	10	10000	5	1	0	5	0
26	565	10	10000	5	1	0	5	0
25	566	10	10000	5	1	0	5	0
25	567	10	10000	5	1	0	5	0
28	568	10	10000	5	1	0	5	0
35	569	10	10000	5	1	0	5	0
37	570	10	10000	5	1	0	5	0
39	571	10	10000	5	1	0	5	0
46	572	10	10000	5	1	0	5	0
53	573	10	10000	5	1	0	5	0
57	574	10	10000	5	1	0	5	0
56	575	10	10000	5	1	0	5	0
55	576	10	10000	5	1	0	5	0
55	577	10	10000	5	1	0	5	0
56	578	10	10000	5	1	0	5	0
65	579	10	10000	5	1	0	5	0
83	580	10	10000	5	1	0	5	0
99	581	10	10000	5	1	0	5	0
102	582	10	10000	5	1	0	5	0
105	583	10	10000	5	1	0	5	0
124	584	10	10000	5	1	0	5	0
151	585	10	10000	5	1	0	5	0
158	586	10	10000	5	1	0	5	0
153	587	10	10000	5	1	0	5	0
145	588	10	10000	5	1	0	5	0
150	589	10	10000	5	1	0	5	0
164	590	10	10000	5	1	0	5	0
185	591	10	10000	5	1	0	5	0
203	592	10	10000	5	1	0	5	0
201	593	10	10000	5	1	0	5	0
197	594	10	10000	5	1	0	5	0
194	595	10	10000	5	1	0	5	0
201	596	10	10000	5	1	0	5	0
215	597	10	10000	5	1	0	5	0
243	598	10	10000	5	1	0	5	0
256	599	10	10000	5	1	0	5	0
308	600	10	10000	5	1	0	5	0
372	601	10	10000	5	1	0	5	0
411	602	10	10000	5	1	0	5	0
434	603	10	10000	5	1	0	5	0
427	604	10	10000	5	1	0	5	0
446	605	10	10000	5	1	0	5	0
454	606	10	10000	5	1	0	5	0
439	607	10	10000	5	1	0	5	0
423	608	10	10000	5	1	0	5	0
411	609	10	10000	5	1	0	5	0
430	610	10	10000	5	1	0	5	0
425	611	10	10000	5	1	0	5	0
409	612	10	10000	5	1	0	5	0
396	613	10	10000	5	1	0	5	0
390	614	10	10000	5	1	0	5	0
375	615	10	10000	5	1	0	5	0
371	616	10	10000	5	1	0	5	0
376	617	10	10000	5	1	0	5	0
379	618	10	10000	5	1	0	5	0
374	619	10	10000	5	1	0	5	0
368	620	10	10000	5	1	0	5	0
360	621	10	10000	5	1	0	5	0
353	622	10	10000	5	1	0	5	0
343	623	10	10000	5	1	0	5	0
334	624	10	10000	5	1	0	5	0
326	625	10	10000	5	1	0	5	0
319	626	10	10000	5	1	0	5	0
310	627	10	10000	5	1	0	5	0
300	628	10	10000	5	1	0	5	0
291	629	10	10000	5	1	0	5	0
285	630	10	10000	5	1	0	5	0
276	631	10	10000	5	1	0	5	0
266	632	10	10000	5	1	0	5	0
255	633	10	10000	5	1	0	5	0
249	634	10	10000	5	1	0	5	0
242	635	10	10000	5	1	0	5	0
237	636	10	10000	5	1	0	5	0
238	637	10	10000	5	1	0	5	0
240	638	10	10000	5	1	0	5	0
239	639	10	10000	5	1	0	5	0
241	640	10	10000	5	1	0	5	0
244	641	10	10000	5	1	0	5	0
240	642	10	10000	5	1	0	5	0
230	643	10	10000	5	1	0	5	0
221	644	10	10000	5	1	0	5	0
219	645	10	10000	5	1	0	5	0
220	646	10	10000	5	1	0	5	0
220	647	10	10000	5	1	0	5	0
221	648	10	10000	5	1	0	5	0
227	649	10	10000	5	1	0	5	0
229	650	10	10000	5	1	0	5	0
227	651	10	10000	5	1	0	5	0
228	652	10	10000	5	1	0	5	0
230	653	10	10000	5	1	0	5	0
230	654	10	10000	5	1	0	5	0
230	655	10	10000	5	1	0	5	0
232	656	10	10000	5	1	0	5	0
236	657	10	10000	5	1	0	5	0
246	658	10	10000	5	1	0	5	0
255	659	10	10000	5	1	0	5	0
263	660	10	10000	5	1	0	5	0
267	661	10	10000	5	1	0	5	0
271	662	10	10000	5	1	0	5	0
277	663	10	10000	5	1	0	5	0
284	664	10	10000	5	1	0	5	0
293	665	10	10000	5	1	0	5	0
303	666	10	10000	5	1	0	5	0
307	667	10	10000	5	1	0	5	0
304	668	10	10000	5	1	0	5	0
304	669	10	10000	5	1	0	5	0
300	670	10	10000	5	1	0	5	0
293	671	10	10000	5	1	0	5	0
288	672	10	10000	5	1	0	5	0
286	673	10	10000	5	1	0	5	0
287	674	10	10000	5	1	0	5	0
286	675	10	10000	5	1	0	5	0
289	676	10	10000	5	1	0	5	0
294	677	10	10000	5	1	0	5	0
299	678	10	10000	5	1	0	5	0
299	679	10	10000	5	1	0	5	0
303	680	10	10000	5	1	0	5	0
306	681	10	10000	5	1	0	5	0
306	682	10	10000	5	1	0	5	0
300	683	10	10000	5	1	0	5	0
290	684	10	10000	5	1	0	5	0
279	685	10	10000	5	1	0	5	0
268	686	10	10000	5	1	0	5	0
260	687	10	10000	5	1	0	5	0
247	688	10	10000	5	1	0	5	0
236	689	10	10000	5	1	0	5	0
225	690	10	10000	5	1	0	5	0
218	691	10	10000	5	1	0	5	0
211	692	10	10000	5	1	0	5	0
203	693	10	10000	5	1	0	5	0
197	694	10	10000	5	1	0	5	0
189	695	10	10000	5	1	0	5	0
180	696	10	10000	5	1	0	5	0
174	697	10	10000	5	1	0	5	0
173	698	10	10000	5	1	0	5	0
171	699	10	10000	5	1	0	5	0
167	700	10	10000	5	1	0	5	0
164	701	10	10000	5	1	0	5	0
165	702	10	10000	5	1	0	5	0
171	703	10	10000	5	1	0	5	0
174	704	10	10000	5	1	0	5	0
178	705	10	10000	5	1	0	5	0
188	706	10	10000	5	1	0	5	0
194	707	10	10000	5	1	0	5	0
197	708	10	10000	5	1	0	5	0
200	709	10	10000	5	1	0	5	0
205	710	10	10000	5	1	0	5	0
212	711	10	10000	5	1	0	5	0
