value	EMG	Stimulus	EMG_sensitivity	Total_Trial_Nr	practise	acq	probe_nr	Startle_Probe
33	2	7	10000	1	1	0	1	0
34	3	7	10000	1	1	0	1	0
36	4	7	10000	1	1	0	1	0
38	5	7	10000	1	1	0	1	0
38	6	7	10000	1	1	0	1	0
36	7	7	10000	1	1	0	1	0
34	8	7	10000	1	1	0	1	0
32	9	7	10000	1	1	0	1	0
32	10	7	10000	1	1	0	1	0
31	11	7	10000	1	1	0	1	0
30	12	7	10000	1	1	0	1	0
29	13	7	10000	1	1	0	1	0
28	14	7	10000	1	1	0	1	0
27	15	7	10000	1	1	0	1	0
26	16	7	10000	1	1	0	1	0
25	17	7	10000	1	1	0	1	0
26	18	7	10000	1	1	0	1	0
25	19	7	10000	1	1	0	1	0
25	20	7	10000	1	1	0	1	0
25	21	7	10000	1	1	0	1	0
26	21	7	10000	1	1	0	1	0
26	22	7	10000	1	1	0	1	0
26	24	7	10000	1	1	0	1	0
31	25	7	10000	1	1	0	1	0
32	26	7	10000	1	1	0	1	0
31	27	7	10000	1	1	0	1	0
30	28	7	10000	1	1	0	1	0
31	29	7	10000	1	1	0	1	0
32	30	7	10000	1	1	0	1	0
32	31	7	10000	1	1	0	1	0
32	31	7	10000	1	1	0	1	0
34	32	7	10000	1	1	0	1	0
33	34	7	10000	1	1	0	1	0
34	35	7	10000	1	1	0	1	0
33	36	7	10000	1	1	0	1	0
35	37	7	10000	1	1	0	1	0
36	38	7	10000	1	1	0	1	0
36	39	7	10000	1	1	0	1	0
35	40	7	10000	1	1	0	1	0
34	41	7	10000	1	1	0	1	0
35	41	7	10000	1	1	0	1	0
36	42	7	10000	1	1	0	1	0
39	44	7	10000	1	1	0	1	0
44	45	7	10000	1	1	0	1	0
46	46	7	10000	1	1	0	1	0
46	47	7	10000	1	1	0	1	0
44	48	7	10000	1	1	0	1	0
43	49	7	10000	1	1	0	1	0
41	50	7	10000	1	1	0	1	0
40	51	7	10000	1	1	0	1	0
38	51	7	10000	1	1	0	1	0
37	52	7	10000	1	1	0	1	0
36	54	7	10000	1	1	0	1	0
36	55	7	10000	1	1	0	1	0
37	56	7	10000	1	1	0	1	0
40	57	7	10000	1	1	0	1	0
41	58	7	10000	1	1	0	1	0
41	59	7	10000	1	1	0	1	0
40	60	7	10000	1	1	0	1	0
38	61	7	10000	1	1	0	1	0
37	61	7	10000	1	1	0	1	0
37	62	7	10000	1	1	0	1	0
37	64	7	10000	1	1	0	1	0
40	65	7	10000	1	1	0	1	0
41	66	7	10000	1	1	0	1	0
41	67	7	10000	1	1	0	1	0
40	68	7	10000	1	1	0	1	0
41	69	7	10000	1	1	0	1	0
41	70	7	10000	1	1	0	1	0
41	71	7	10000	1	1	0	1	0
39	71	7	10000	1	1	0	1	0
38	72	7	10000	1	1	0	1	0
39	74	7	10000	1	1	0	1	0
39	75	7	10000	1	1	0	1	0
39	76	7	10000	1	1	0	1	0
42	77	7	10000	1	1	0	1	0
42	78	7	10000	1	1	0	1	0
41	79	7	10000	1	1	0	1	0
41	80	7	10000	1	1	0	1	0
40	81	7	10000	1	1	0	1	0
40	81	7	10000	1	1	0	1	0
41	82	7	10000	1	1	0	1	0
40	84	7	10000	1	1	0	1	0
39	85	7	10000	1	1	0	1	0
40	86	7	10000	1	1	0	1	0
38	87	7	10000	1	1	0	1	0
35	88	7	10000	1	1	0	1	0
36	89	7	10000	1	1	0	1	0
35	90	7	10000	1	1	0	1	0
36	91	7	10000	1	1	0	1	0
35	91	7	10000	1	1	0	1	0
34	92	7	10000	1	1	0	1	0
33	94	7	10000	1	1	0	1	0
32	95	7	10000	1	1	0	1	0
31	96	7	10000	1	1	0	1	0
31	97	7	10000	1	1	0	1	0
31	98	7	10000	1	1	0	1	0
30	99	7	10000	1	1	0	1	0
29	100	7	10000	1	1	0	1	0
28	101	7	10000	1	1	0	1	0
27	101	7	10000	1	1	0	1	0
27	102	7	10000	1	1	0	1	0
26	104	7	10000	1	1	0	1	0
26	105	7	10000	1	1	0	1	0
25	106	7	10000	1	1	0	1	0
24	107	7	10000	1	1	0	1	0
22	108	7	10000	1	1	0	1	0
21	109	7	10000	1	1	0	1	0
22	110	7	10000	1	1	0	1	0
22	111	7	10000	1	1	0	1	0
21	111	7	10000	1	1	0	1	0
20	112	7	10000	1	1	0	1	0
20	114	7	10000	1	1	0	1	0
19	115	7	10000	1	1	0	1	0
17	116	7	10000	1	1	0	1	0
18	117	7	10000	1	1	0	1	0
19	118	7	10000	1	1	0	1	0
17	119	7	10000	1	1	0	1	0
18	120	7	10000	1	1	0	1	0
17	121	7	10000	1	1	0	1	0
16	121	7	10000	1	1	0	1	0
17	122	7	10000	1	1	0	1	0
16	124	7	10000	1	1	0	1	0
16	125	7	10000	1	1	0	1	0
16	126	7	10000	1	1	0	1	0
14	127	7	10000	1	1	0	1	0
13	128	7	10000	1	1	0	1	0
14	129	7	10000	1	1	0	1	0
14	130	7	10000	1	1	0	1	0
14	131	7	10000	1	1	0	1	0
14	131	7	10000	1	1	0	1	0
15	132	7	10000	1	1	0	1	0
16	134	7	10000	1	1	0	1	0
15	135	7	10000	1	1	0	1	0
14	136	7	10000	1	1	0	1	0
14	137	7	10000	1	1	0	1	0
16	138	7	10000	1	1	0	1	0
15	139	7	10000	1	1	0	1	0
14	140	7	10000	1	1	0	1	0
13	141	7	10000	1	1	0	1	0
13	141	7	10000	1	1	0	1	0
14	142	7	10000	1	1	0	1	0
13	144	7	10000	1	1	0	1	0
13	145	7	10000	1	1	0	1	0
15	146	7	10000	1	1	0	1	0
15	147	7	10000	1	1	0	1	0
14	148	7	10000	1	1	0	1	0
15	149	7	10000	1	1	0	1	0
15	150	7	10000	1	1	0	1	0
16	151	7	10000	1	1	0	1	0
16	151	7	10000	1	1	0	1	0
17	152	7	10000	1	1	0	1	0
18	154	7	10000	1	1	0	1	0
19	155	7	10000	1	1	0	1	0
18	156	7	10000	1	1	0	1	0
19	157	7	10000	1	1	0	1	0
20	158	7	10000	1	1	0	1	0
20	159	7	10000	1	1	0	1	0
19	160	7	10000	1	1	0	1	0
18	161	7	10000	1	1	0	1	0
17	161	7	10000	1	1	0	1	0
17	162	7	10000	1	1	0	1	0
17	164	7	10000	1	1	0	1	0
19	165	7	10000	1	1	0	1	0
20	166	7	10000	1	1	0	1	0
20	167	7	10000	1	1	0	1	0
20	168	7	10000	1	1	0	1	0
21	169	7	10000	1	1	0	1	0
23	170	7	10000	1	1	0	1	0
26	171	7	10000	1	1	0	1	0
32	171	7	10000	1	1	0	1	0
37	172	7	10000	1	1	0	1	0
44	174	7	10000	1	1	0	1	0
49	175	7	10000	1	1	0	1	0
55	176	7	10000	1	1	0	1	0
60	177	7	10000	1	1	0	1	0
66	178	7	10000	1	1	0	1	0
69	179	7	10000	1	1	0	1	0
71	180	7	10000	1	1	0	1	0
74	181	7	10000	1	1	0	1	0
78	181	7	10000	1	1	0	1	0
80	182	7	10000	1	1	0	1	0
82	184	7	10000	1	1	0	1	0
83	185	7	10000	1	1	0	1	0
83	186	7	10000	1	1	0	1	0
80	187	7	10000	1	1	0	1	0
78	188	7	10000	1	1	0	1	0
76	189	7	10000	1	1	0	1	0
76	190	7	10000	1	1	0	1	0
78	191	7	10000	1	1	0	1	0
78	191	7	10000	1	1	0	1	0
78	192	7	10000	1	1	0	1	0
77	194	7	10000	1	1	0	1	0
74	195	7	10000	1	1	0	1	0
70	196	7	10000	1	1	0	1	0
68	197	7	10000	1	1	0	1	0
68	198	7	10000	1	1	0	1	0
63	199	7	10000	1	1	0	1	0
61	200	7	10000	1	1	0	1	0
59	201	7	10000	1	1	0	1	0
57	201	7	10000	1	1	0	1	0
56	202	7	10000	1	1	0	1	0
54	204	7	10000	1	1	0	1	0
54	205	7	10000	1	1	0	1	0
53	206	7	10000	1	1	0	1	0
52	207	7	10000	1	1	0	1	0
50	208	7	10000	1	1	0	1	0
53	209	7	10000	1	1	0	1	0
56	210	7	10000	1	1	0	1	0
60	211	7	10000	1	1	0	1	0
63	211	7	10000	1	1	0	1	0
66	212	7	10000	1	1	0	1	0
68	214	7	10000	1	1	0	1	0
70	215	7	10000	1	1	0	1	0
73	216	7	10000	1	1	0	1	0
76	217	7	10000	1	1	0	1	0
79	218	7	10000	1	1	0	1	0
79	219	7	10000	1	1	0	1	0
80	220	7	10000	1	1	0	1	0
84	221	7	10000	1	1	0	1	0
85	221	7	10000	1	1	0	1	0
86	222	7	10000	1	1	0	1	0
88	224	7	10000	1	1	0	1	0
89	225	7	10000	1	1	0	1	0
89	226	7	10000	1	1	0	1	0
89	227	7	10000	1	1	0	1	0
88	228	7	10000	1	1	0	1	0
88	229	7	10000	1	1	0	1	0
89	230	7	10000	1	1	0	1	0
89	231	7	10000	1	1	0	1	0
88	231	7	10000	1	1	0	1	0
87	232	7	10000	1	1	0	1	0
86	234	7	10000	1	1	0	1	0
84	235	7	10000	1	1	0	1	0
83	236	7	10000	1	1	0	1	0
82	237	7	10000	1	1	0	1	0
83	238	7	10000	1	1	0	1	0
83	239	7	10000	1	1	0	1	0
82	240	7	10000	1	1	0	1	0
80	241	7	10000	1	1	0	1	0
80	241	7	10000	1	1	0	1	0
78	242	7	10000	1	1	0	1	0
77	244	7	10000	1	1	0	1	0
76	245	7	10000	1	1	0	1	0
75	246	7	10000	1	1	0	1	0
75	247	7	10000	1	1	0	1	0
71	248	7	10000	1	1	0	1	0
70	249	7	10000	1	1	0	1	0
68	250	7	10000	1	1	0	1	0
66	251	7	10000	1	1	0	1	0
64	251	7	10000	1	1	0	1	0
63	252	7	10000	1	1	0	1	0
62	254	7	10000	1	1	0	1	0
61	255	7	10000	1	1	0	1	0
59	256	7	10000	1	1	0	1	0
57	257	7	10000	1	1	0	1	0
57	258	7	10000	1	1	0	1	0
54	259	7	10000	1	1	0	1	0
52	260	7	10000	1	1	0	1	0
50	261	7	10000	1	1	0	1	0
48	261	7	10000	1	1	0	1	0
46	262	7	10000	1	1	0	1	0
44	264	7	10000	1	1	0	1	0
43	265	7	10000	1	1	0	1	0
42	266	7	10000	1	1	0	1	0
39	267	7	10000	1	1	0	1	0
37	268	7	10000	1	1	0	1	0
35	269	7	10000	1	1	0	1	0
34	270	7	10000	1	1	0	1	0
33	271	7	10000	1	1	0	1	0
32	271	7	10000	1	1	0	1	0
31	272	7	10000	1	1	0	1	0
29	274	7	10000	1	1	0	1	0
28	275	7	10000	1	1	0	1	0
27	276	7	10000	1	1	0	1	0
26	277	7	10000	1	1	0	1	0
26	278	7	10000	1	1	0	1	0
25	279	7	10000	1	1	0	1	0
24	280	7	10000	1	1	0	1	0
24	281	7	10000	1	1	0	1	0
27	281	7	10000	1	1	0	1	0
29	282	7	10000	1	1	0	1	0
28	284	7	10000	1	1	0	1	0
29	285	7	10000	1	1	0	1	0
29	286	7	10000	1	1	0	1	0
29	287	7	10000	1	1	0	1	0
28	288	7	10000	1	1	0	1	0
29	289	7	10000	1	1	0	1	0
28	290	7	10000	1	1	0	1	0
28	291	7	10000	1	1	0	1	0
26	291	7	10000	1	1	0	1	0
26	292	7	10000	1	1	0	1	0
25	294	7	10000	1	1	0	1	0
25	295	7	10000	1	1	0	1	0
24	296	7	10000	1	1	0	1	0
23	297	7	10000	1	1	0	1	0
24	298	7	10000	1	1	0	1	0
23	299	7	10000	1	1	0	1	0
22	300	7	10000	1	1	0	1	0
21	301	7	10000	1	1	0	1	0
21	301	7	10000	1	1	0	1	0
20	302	7	10000	1	1	0	1	0
20	304	7	10000	1	1	0	1	0
19	305	7	10000	1	1	0	1	0
19	306	7	10000	1	1	0	1	0
18	307	7	10000	1	1	0	1	0
17	308	7	10000	1	1	0	1	0
18	309	7	10000	1	1	0	1	0
19	310	7	10000	1	1	0	1	0
19	311	7	10000	1	1	0	1	0
20	311	7	10000	1	1	0	1	0
20	312	7	10000	1	1	0	1	0
20	314	7	10000	1	1	0	1	0
19	315	7	10000	1	1	0	1	0
19	316	7	10000	1	1	0	1	0
19	317	7	10000	1	1	0	1	0
20	318	7	10000	1	1	0	1	0
19	319	7	10000	1	1	0	1	0
19	320	7	10000	1	1	0	1	0
18	321	7	10000	1	1	0	1	0
19	321	7	10000	1	1	0	1	0
19	322	7	10000	1	1	0	1	0
19	324	7	10000	1	1	0	1	0
20	325	7	10000	1	1	0	1	0
19	326	7	10000	1	1	0	1	0
18	327	7	10000	1	1	0	1	0
16	328	7	10000	1	1	0	1	0
15	329	7	10000	1	1	0	1	0
15	330	7	10000	1	1	0	1	0
16	331	7	10000	1	1	0	1	0
16	331	7	10000	1	1	0	1	0
16	332	7	10000	1	1	0	1	0
16	334	7	10000	1	1	0	1	0
15	335	7	10000	1	1	0	1	0
14	336	7	10000	1	1	0	1	0
14	337	7	10000	1	1	0	1	0
16	338	7	10000	1	1	0	1	0
15	339	7	10000	1	1	0	1	0
15	340	7	10000	1	1	0	1	0
14	341	7	10000	1	1	0	1	0
13	341	7	10000	1	1	0	1	0
13	342	7	10000	1	1	0	1	0
14	344	7	10000	1	1	0	1	0
14	345	7	10000	1	1	0	1	0
14	346	7	10000	1	1	0	1	0
14	347	7	10000	1	1	0	1	0
13	348	7	10000	1	1	0	1	0
14	349	7	10000	1	1	0	1	0
13	350	7	10000	1	1	0	1	0
14	351	7	10000	1	1	0	1	0
13	351	7	10000	1	1	0	1	0
12	352	7	10000	1	1	0	1	0
12	354	7	10000	1	1	0	1	0
11	355	7	10000	1	1	0	1	0
10	356	7	10000	1	1	0	1	0
11	357	7	10000	1	1	0	1	0
12	358	7	10000	1	1	0	1	0
11	359	7	10000	1	1	0	1	0
11	360	7	10000	1	1	0	1	0
11	361	7	10000	1	1	0	1	0
10	361	7	10000	1	1	0	1	0
10	362	7	10000	1	1	0	1	0
11	364	7	10000	1	1	0	1	0
12	365	7	10000	1	1	0	1	0
14	366	7	10000	1	1	0	1	0
17	367	7	10000	1	1	0	1	0
16	368	7	10000	1	1	0	1	0
16	369	7	10000	1	1	0	1	0
16	370	7	10000	1	1	0	1	0
16	371	7	10000	1	1	0	1	0
17	371	7	10000	1	1	0	1	0
17	372	7	10000	1	1	0	1	0
19	374	7	10000	1	1	0	1	0
18	375	7	10000	1	1	0	1	0
18	376	7	10000	1	1	0	1	0
19	377	7	10000	1	1	0	1	0
19	378	7	10000	1	1	0	1	0
19	379	7	10000	1	1	0	1	0
20	380	7	10000	1	1	0	1	0
21	381	7	10000	1	1	0	1	0
23	381	7	10000	1	1	0	1	0
24	382	7	10000	1	1	0	1	0
24	384	7	10000	1	1	0	1	0
23	385	7	10000	1	1	0	1	0
23	386	7	10000	1	1	0	1	0
21	387	7	10000	1	1	0	1	0
19	388	7	10000	1	1	0	1	0
20	389	7	10000	1	1	0	1	0
18	390	7	10000	1	1	0	1	0
18	391	7	10000	1	1	0	1	0
17	391	7	10000	1	1	0	1	0
18	392	7	10000	1	1	0	1	0
17	394	7	10000	1	1	0	1	0
17	395	7	10000	1	1	0	1	0
16	396	7	10000	1	1	0	1	0
17	397	7	10000	1	1	0	1	0
19	398	7	10000	1	1	0	1	0
19	399	7	10000	1	1	0	1	0
20	400	7	10000	1	1	0	1	0
20	401	7	10000	1	1	0	1	0
20	401	7	10000	1	1	0	1	0
21	402	7	10000	1	1	0	1	0
21	404	7	10000	1	1	0	1	0
21	405	7	10000	1	1	0	1	0
23	406	7	10000	1	1	0	1	0
22	407	7	10000	1	1	0	1	0
20	408	7	10000	1	1	0	1	0
21	409	7	10000	1	1	0	1	0
21	410	7	10000	1	1	0	1	0
22	411	7	10000	1	1	0	1	0
21	411	7	10000	1	1	0	1	0
21	412	7	10000	1	1	0	1	0
20	414	7	10000	1	1	0	1	0
20	415	7	10000	1	1	0	1	0
19	416	7	10000	1	1	0	1	0
20	417	7	10000	1	1	0	1	0
21	418	7	10000	1	1	0	1	0
20	419	7	10000	1	1	0	1	0
19	420	7	10000	1	1	0	1	0
19	421	7	10000	1	1	0	1	0
19	421	7	10000	1	1	0	1	0
19	422	7	10000	1	1	0	1	0
18	424	7	10000	1	1	0	1	0
18	425	7	10000	1	1	0	1	0
18	426	7	10000	1	1	0	1	0
17	427	7	10000	1	1	0	1	0
15	428	7	10000	1	1	0	1	0
16	429	7	10000	1	1	0	1	0
15	430	7	10000	1	1	0	1	0
15	431	7	10000	1	1	0	1	0
15	431	7	10000	1	1	0	1	0
15	432	7	10000	1	1	0	1	0
14	434	7	10000	1	1	0	1	0
14	435	7	10000	1	1	0	1	0
14	436	7	10000	1	1	0	1	0
14	437	7	10000	1	1	0	1	0
16	438	7	10000	1	1	0	1	0
16	439	7	10000	1	1	0	1	0
15	440	7	10000	1	1	0	1	0
14	441	7	10000	1	1	0	1	0
15	441	7	10000	1	1	0	1	0
15	442	7	10000	1	1	0	1	0
15	444	7	10000	1	1	0	1	0
15	445	7	10000	1	1	0	1	0
16	446	7	10000	1	1	0	1	0
15	447	7	10000	1	1	0	1	0
13	448	7	10000	1	1	0	1	0
14	449	7	10000	1	1	0	1	0
13	450	7	10000	1	1	0	1	0
13	451	7	10000	1	1	0	1	0
13	451	7	10000	1	1	0	1	0
13	452	7	10000	1	1	0	1	0
12	454	7	10000	1	1	0	1	0
11	455	7	10000	1	1	0	1	0
11	456	7	10000	1	1	0	1	0
12	457	7	10000	1	1	0	1	0
13	458	7	10000	1	1	0	1	0
12	459	7	10000	1	1	0	1	0
12	460	7	10000	1	1	0	1	0
12	461	7	10000	1	1	0	1	0
12	461	7	10000	1	1	0	1	0
12	462	7	10000	1	1	0	1	0
13	464	7	10000	1	1	0	1	0
13	465	7	10000	1	1	0	1	0
14	466	7	10000	1	1	0	1	0
13	467	7	10000	1	1	0	1	0
11	468	7	10000	1	1	0	1	0
11	469	7	10000	1	1	0	1	0
11	470	7	10000	1	1	0	1	0
11	471	7	10000	1	1	0	1	0
11	471	7	10000	1	1	0	1	0
11	472	7	10000	1	1	0	1	0
10	474	7	10000	1	1	0	1	0
10	475	7	10000	1	1	0	1	0
9	476	7	10000	1	1	0	1	0
9	477	7	10000	1	1	0	1	0
11	478	7	10000	1	1	0	1	0
10	479	7	10000	1	1	0	1	0
9	480	7	10000	1	1	0	1	0
9	481	7	10000	1	1	0	1	0
9	481	7	10000	1	1	0	1	0
9	482	7	10000	1	1	0	1	0
9	484	7	10000	1	1	0	1	0
9	485	7	10000	1	1	0	1	0
9	486	7	10000	1	1	0	1	0
9	487	7	10000	1	1	0	1	0
7	488	7	10000	1	1	0	1	0
7	489	7	10000	1	1	0	1	0
8	490	7	10000	1	1	0	1	0
8	491	7	10000	1	1	0	1	0
8	491	7	10000	1	1	0	1	0
8	492	7	10000	1	1	0	1	0
8	494	7	10000	1	1	0	1	0
7	495	7	10000	1	1	0	1	0
7	496	7	10000	1	1	0	1	0
8	497	7	10000	1	1	0	1	0
9	498	7	10000	1	1	0	1	0
8	499	7	10000	1	1	0	1	0
8	500	7	10000	1	1	0	1	0
9	501	7	10000	1	1	0	1	0
9	536	7	10000	1	1	0	1	1
10	537	7	10000	1	1	0	1	1
10	538	7	10000	1	1	0	1	1
10	539	7	10000	1	1	0	1	1
11	540	7	10000	1	1	0	1	1
11	541	7	10000	1	1	0	1	1
9	542	7	10000	1	1	0	1	1
10	543	7	10000	1	1	0	1	1
10	544	7	10000	1	1	0	1	1
10	545	7	10000	1	1	0	1	1
10	546	7	10000	1	1	0	1	1
11	547	7	10000	1	1	0	1	1
12	548	7	10000	1	1	0	1	1
12	549	7	10000	1	1	0	1	1
11	550	7	10000	1	1	0	1	1
12	551	7	10000	1	1	0	1	1
14	552	7	10000	1	1	0	1	1
14	553	7	10000	1	1	0	1	1
13	554	7	10000	1	1	0	1	1
15	555	7	10000	1	1	0	1	1
16	556	7	10000	1	1	0	1	1
16	557	7	10000	1	1	0	1	1
15	558	7	10000	1	1	0	1	1
17	559	7	10000	1	1	0	1	1
18	560	7	10000	1	1	0	1	1
19	561	7	10000	1	1	0	1	1
17	562	7	10000	1	1	0	1	1
18	563	7	10000	1	1	0	1	1
18	564	7	10000	1	1	0	1	1
17	565	7	10000	1	1	0	1	1
17	566	7	10000	1	1	0	1	1
18	567	7	10000	1	1	0	1	1
19	568	7	10000	1	1	0	1	1
18	569	7	10000	1	1	0	1	1
18	570	7	10000	1	1	0	1	1
18	571	7	10000	1	1	0	1	1
19	542	7	10000	1	1	0	1	1
18	543	7	10000	1	1	0	1	1
17	544	7	10000	1	1	0	1	1
16	545	7	10000	1	1	0	1	1
16	546	7	10000	1	1	0	1	1
15	547	7	10000	1	1	0	1	1
15	544	7	10000	1	1	0	1	1
15	545	7	10000	1	1	0	1	1
16	546	7	10000	1	1	0	1	1
15	547	7	10000	1	1	0	1	1
12	548	7	10000	1	1	0	1	1
12	549	7	10000	1	1	0	1	1
12	550	7	10000	1	1	0	1	1
12	551	7	10000	1	1	0	1	1
12	552	7	10000	1	1	0	1	0
13	553	7	10000	1	1	0	1	0
12	554	7	10000	1	1	0	1	0
13	555	7	10000	1	1	0	1	0
14	556	7	10000	1	1	0	1	0
13	557	7	10000	1	1	0	1	0
16	558	7	10000	1	1	0	1	0
15	559	7	10000	1	1	0	1	0
15	560	7	10000	1	1	0	1	0
14	561	7	10000	1	1	0	1	0
14	562	7	10000	1	1	0	1	0
14	563	7	10000	1	1	0	1	0
15	564	7	10000	1	1	0	1	0
16	565	7	10000	1	1	0	1	0
16	566	7	10000	1	1	0	1	0
16	567	7	10000	1	1	0	1	0
14	568	7	10000	1	1	0	1	0
14	569	7	10000	1	1	0	1	0
14	570	7	10000	1	1	0	1	0
15	571	7	10000	1	1	0	1	0
15	571	7	10000	1	1	0	1	0
15	572	7	10000	1	1	0	1	0
14	574	7	10000	1	1	0	1	0
13	575	7	10000	1	1	0	1	0
13	575	7	10000	1	1	0	1	0
15	576	7	10000	1	1	0	1	0
16	578	7	10000	1	1	0	1	0
16	579	7	10000	1	1	0	1	0
15	580	7	10000	1	1	0	1	0
14	581	7	10000	1	1	0	1	0
16	581	7	10000	1	1	0	1	0
15	582	7	10000	1	1	0	1	0
14	584	7	10000	1	1	0	1	0
15	585	7	10000	1	1	0	1	0
15	586	7	10000	1	1	0	1	0
14	587	7	10000	1	1	0	1	0
12	588	7	10000	1	1	0	1	0
12	589	7	10000	1	1	0	1	0
13	590	7	10000	1	1	0	1	0
14	591	7	10000	1	1	0	1	0
14	591	7	10000	1	1	0	1	0
14	592	7	10000	1	1	0	1	0
14	594	7	10000	1	1	0	1	0
13	595	7	10000	1	1	0	1	0
12	596	7	10000	1	1	0	1	0
12	597	7	10000	1	1	0	1	0
14	598	7	10000	1	1	0	1	0
14	599	7	10000	1	1	0	1	0
14	600	7	10000	1	1	0	1	0
14	601	7	10000	1	1	0	1	0
14	601	7	10000	1	1	0	1	0
13	602	7	10000	1	1	0	1	0
13	604	7	10000	1	1	0	1	0
14	605	7	10000	1	1	0	1	0
14	606	7	10000	1	1	0	1	0
13	607	7	10000	1	1	0	1	0
11	608	7	10000	1	1	0	1	0
12	609	7	10000	1	1	0	1	0
12	610	7	10000	1	1	0	1	0
12	611	7	10000	1	1	0	1	0
11	611	7	10000	1	1	0	1	0
11	612	7	10000	1	1	0	1	0
11	614	7	10000	1	1	0	1	0
10	615	7	10000	1	1	0	1	0
10	616	7	10000	1	1	0	1	0
10	617	7	10000	1	1	0	1	0
11	618	7	10000	1	1	0	1	0
11	619	7	10000	1	1	0	1	0
10	620	7	10000	1	1	0	1	0
10	621	7	10000	1	1	0	1	0
10	621	7	10000	1	1	0	1	0
10	622	7	10000	1	1	0	1	0
11	624	7	10000	1	1	0	1	0
13	625	7	10000	1	1	0	1	0
17	626	7	10000	1	1	0	1	0
17	627	7	10000	1	1	0	1	0
21	628	7	10000	1	1	0	1	0
32	629	7	10000	1	1	0	1	0
38	630	7	10000	1	1	0	1	0
41	631	7	10000	1	1	0	1	0
54	631	7	10000	1	1	0	1	0
85	632	7	10000	1	1	0	1	0
122	634	7	10000	1	1	0	1	0
122	635	7	10000	1	1	0	1	0
145	636	7	10000	1	1	0	1	0
183	637	7	10000	1	1	0	1	0
218	638	7	10000	1	1	0	1	0
219	639	7	10000	1	1	0	1	0
237	640	7	10000	1	1	0	1	0
256	641	7	10000	1	1	0	1	0
263	641	7	10000	1	1	0	1	0
296	642	7	10000	1	1	0	1	0
310	644	7	10000	1	1	0	1	0
407	645	7	10000	1	1	0	1	0
455	646	7	10000	1	1	0	1	0
457	647	7	10000	1	1	0	1	0
445	648	7	10000	1	1	0	1	0
465	649	7	10000	1	1	0	1	0
607	650	7	10000	1	1	0	1	0
718	651	7	10000	1	1	0	1	0
697	651	7	10000	1	1	0	1	0
690	652	7	10000	1	1	0	1	0
710	654	7	10000	1	1	0	1	0
779	655	7	10000	1	1	0	1	0
772	656	7	10000	1	1	0	1	0
770	657	7	10000	1	1	0	1	0
747	658	7	10000	1	1	0	1	0
749	659	7	10000	1	1	0	1	0
813	660	7	10000	1	1	0	1	0
881	661	7	10000	1	1	0	1	0
861	661	7	10000	1	1	0	1	0
850	662	7	10000	1	1	0	1	0
847	664	7	10000	1	1	0	1	0
921	665	7	10000	1	1	0	1	0
1007	666	7	10000	1	1	0	1	0
1068	667	7	10000	1	1	0	1	0
1091	668	7	10000	1	1	0	1	0
1076	669	7	10000	1	1	0	1	0
1032	670	7	10000	1	1	0	1	0
994	671	7	10000	1	1	0	1	0
968	671	7	10000	1	1	0	1	0
950	672	7	10000	1	1	0	1	0
941	674	7	10000	1	1	0	1	0
937	675	7	10000	1	1	0	1	0
930	676	7	10000	1	1	0	1	0
921	677	7	10000	1	1	0	1	0
915	678	7	10000	1	1	0	1	0
906	679	7	10000	1	1	0	1	0
902	680	7	10000	1	1	0	1	0
891	681	7	10000	1	1	0	1	0
875	681	7	10000	1	1	0	1	0
859	682	7	10000	1	1	0	1	0
854	684	7	10000	1	1	0	1	0
860	685	7	10000	1	1	0	1	0
859	686	7	10000	1	1	0	1	0
849	687	7	10000	1	1	0	1	0
826	688	7	10000	1	1	0	1	0
797	689	7	10000	1	1	0	1	0
766	690	7	10000	1	1	0	1	0
736	691	7	10000	1	1	0	1	0
706	691	7	10000	1	1	0	1	0
674	692	7	10000	1	1	0	1	0
645	694	7	10000	1	1	0	1	0
615	695	7	10000	1	1	0	1	0
586	696	7	10000	1	1	0	1	0
560	697	7	10000	1	1	0	1	0
536	698	7	10000	1	1	0	1	0
512	699	7	10000	1	1	0	1	0
492	700	7	10000	1	1	0	1	0
473	701	7	10000	1	1	0	1	0
456	701	7	10000	1	1	0	1	0
440	702	7	10000	1	1	0	1	0
419	704	7	10000	1	1	0	1	0
401	705	7	10000	1	1	0	1	0
384	706	7	10000	1	1	0	1	0
370	707	7	10000	1	1	0	1	0
361	708	7	10000	1	1	0	1	0
358	709	7	10000	1	1	0	1	0
354	710	7	10000	1	1	0	1	0
350	711	7	10000	1	1	0	1	0
345	711	7	10000	1	1	0	1	0
342	712	7	10000	1	1	0	1	0
342	714	7	10000	1	1	0	1	0
343	715	7	10000	1	1	0	1	0
345	716	7	10000	1	1	0	1	0
343	717	7	10000	1	1	0	1	0
340	718	7	10000	1	1	0	1	0
330	719	7	10000	1	1	0	1	0
318	720	7	10000	1	1	0	1	0
305	721	7	10000	1	1	0	1	0
293	721	7	10000	1	1	0	1	0
282	722	7	10000	1	1	0	1	0
270	724	7	10000	1	1	0	1	0
261	725	7	10000	1	1	0	1	0
252	726	7	10000	1	1	0	1	0
242	727	7	10000	1	1	0	1	0
233	728	7	10000	1	1	0	1	0
229	729	7	10000	1	1	0	1	0
225	730	7	10000	1	1	0	1	0
222	731	7	10000	1	1	0	1	0
219	731	7	10000	1	1	0	1	0
214	732	7	10000	1	1	0	1	0
210	734	7	10000	1	1	0	1	0
206	735	7	10000	1	1	0	1	0
199	736	7	10000	1	1	0	1	0
193	737	7	10000	1	1	0	1	0
188	738	7	10000	1	1	0	1	0
179	739	7	10000	1	1	0	1	0
171	740	7	10000	1	1	0	1	0
164	741	7	10000	1	1	0	1	0
161	741	7	10000	1	1	0	1	0
157	742	7	10000	1	1	0	1	0
157	744	7	10000	1	1	0	1	0
156	745	7	10000	1	1	0	1	0
157	746	7	10000	1	1	0	1	0
156	747	7	10000	1	1	0	1	0
152	748	7	10000	1	1	0	1	0
150	749	7	10000	1	1	0	1	0
145	750	7	10000	1	1	0	1	0
139	751	7	10000	1	1	0	1	0
134	751	7	10000	1	1	0	1	0
129	752	7	10000	1	1	0	1	0
124	754	7	10000	1	1	0	1	0
119	755	7	10000	1	1	0	1	0
114	756	7	10000	1	1	0	1	0
110	757	7	10000	1	1	0	1	0
111	758	7	10000	1	1	0	1	0
108	759	7	10000	1	1	0	1	0
107	760	7	10000	1	1	0	1	0
109	761	7	10000	1	1	0	1	0
112	761	7	10000	1	1	0	1	0
115	762	7	10000	1	1	0	1	0
116	764	7	10000	1	1	0	1	0
118	765	7	10000	1	1	0	1	0
118	766	7	10000	1	1	0	1	0
116	767	7	10000	1	1	0	1	0
112	768	7	10000	1	1	0	1	0
112	769	7	10000	1	1	0	1	0
110	770	7	10000	1	1	0	1	0
108	771	7	10000	1	1	0	1	0
105	771	7	10000	1	1	0	1	0
102	772	7	10000	1	1	0	1	0
99	774	7	10000	1	1	0	1	0
96	775	7	10000	1	1	0	1	0
92	776	7	10000	1	1	0	1	0
90	777	7	10000	1	1	0	1	0
91	778	7	10000	1	1	0	1	0
91	779	7	10000	1	1	0	1	0
91	780	7	10000	1	1	0	1	0
93	781	7	10000	1	1	0	1	0
94	781	7	10000	1	1	0	1	0
96	782	7	10000	1	1	0	1	0
99	784	7	10000	1	1	0	1	0
101	785	7	10000	1	1	0	1	0
103	786	7	10000	1	1	0	1	0
103	787	7	10000	1	1	0	1	0
100	788	7	10000	1	1	0	1	0
96	789	7	10000	1	1	0	1	0
92	790	7	10000	1	1	0	1	0
90	791	7	10000	1	1	0	1	0
88	791	7	10000	1	1	0	1	0
86	792	7	10000	1	1	0	1	0
82	794	7	10000	1	1	0	1	0
79	795	7	10000	1	1	0	1	0
76	796	7	10000	1	1	0	1	0
73	797	7	10000	1	1	0	1	0
72	798	7	10000	1	1	0	1	0
68	799	7	10000	1	1	0	1	0
66	800	7	10000	1	1	0	1	0
63	801	7	10000	1	1	0	1	0
65	801	7	10000	1	1	0	1	0
68	802	7	10000	1	1	0	1	0
73	804	7	10000	1	1	0	1	0
76	805	7	10000	1	1	0	1	0
78	806	7	10000	1	1	0	1	0
76	807	7	10000	1	1	0	1	0
70	808	7	10000	1	1	0	1	0
69	809	7	10000	1	1	0	1	0
67	810	7	10000	1	1	0	1	0
67	811	7	10000	1	1	0	1	0
67	811	7	10000	1	1	0	1	0
63	812	7	10000	1	1	0	1	0
62	814	7	10000	1	1	0	1	0
61	815	7	10000	1	1	0	1	0
61	816	7	10000	1	1	0	1	0
62	817	7	10000	1	1	0	1	0
63	818	7	10000	1	1	0	1	0
60	819	7	10000	1	1	0	1	0
59	820	7	10000	1	1	0	1	0
58	821	7	10000	1	1	0	1	0
59	821	7	10000	1	1	0	1	0
59	822	7	10000	1	1	0	1	0
60	824	7	10000	1	1	0	1	0
59	825	7	10000	1	1	0	1	0
56	826	7	10000	1	1	0	1	0
56	827	7	10000	1	1	0	1	0
54	828	7	10000	1	1	0	1	0
52	829	7	10000	1	1	0	1	0
51	830	7	10000	1	1	0	1	0
50	831	7	10000	1	1	0	1	0
51	831	7	10000	1	1	0	1	0
54	832	7	10000	1	1	0	1	0
57	834	7	10000	1	1	0	1	0
59	835	7	10000	1	1	0	1	0
61	836	7	10000	1	1	0	1	0
62	837	7	10000	1	1	0	1	0
63	838	7	10000	1	1	0	1	0
61	839	7	10000	1	1	0	1	0
59	840	7	10000	1	1	0	1	0
56	841	7	10000	1	1	0	1	0
55	841	7	10000	1	1	0	1	0
54	842	7	10000	1	1	0	1	0
51	844	7	10000	1	1	0	1	0
51	845	7	10000	1	1	0	1	0
50	846	7	10000	1	1	0	1	0
52	847	7	10000	1	1	0	1	0
53	848	7	10000	1	1	0	1	0
52	849	7	10000	1	1	0	1	0
51	850	7	10000	1	1	0	1	0
53	851	7	10000	1	1	0	1	0
60	851	7	10000	1	1	0	1	0
68	852	7	10000	1	1	0	1	0
73	854	7	10000	1	1	0	1	0
76	855	7	10000	1	1	0	1	0
77	856	7	10000	1	1	0	1	0
75	857	7	10000	1	1	0	1	0
74	858	7	10000	1	1	0	1	0
72	859	7	10000	1	1	0	1	0
68	860	7	10000	1	1	0	1	0
66	861	7	10000	1	1	0	1	0
65	861	7	10000	1	1	0	1	0
65	862	7	10000	1	1	0	1	0
65	864	7	10000	1	1	0	1	0
65	865	7	10000	1	1	0	1	0
65	866	7	10000	1	1	0	1	0
63	867	7	10000	1	1	0	1	0
60	868	7	10000	1	1	0	1	0
57	869	7	10000	1	1	0	1	0
56	870	7	10000	1	1	0	1	0
56	871	7	10000	1	1	0	1	0
55	871	7	10000	1	1	0	1	0
56	872	7	10000	1	1	0	1	0
56	874	7	10000	1	1	0	1	0
56	875	7	10000	1	1	0	1	0
56	876	7	10000	1	1	0	1	0
56	877	7	10000	1	1	0	1	0
58	878	7	10000	1	1	0	1	0
56	879	7	10000	1	1	0	1	0
54	880	7	10000	1	1	0	1	0
60	881	7	10000	1	1	0	1	0
68	881	7	10000	1	1	0	1	0
71	882	7	10000	1	1	0	1	0
72	884	7	10000	1	1	0	1	0
72	885	7	10000	1	1	0	1	0
72	886	7	10000	1	1	0	1	0
75	887	7	10000	1	1	0	1	0
76	888	7	10000	1	1	0	1	0
79	889	7	10000	1	1	0	1	0
78	890	7	10000	1	1	0	1	0
85	891	7	10000	1	1	0	1	0
92	891	7	10000	1	1	0	1	0
101	892	7	10000	1	1	0	1	0
112	894	7	10000	1	1	0	1	0
111	895	7	10000	1	1	0	1	0
111	896	7	10000	1	1	0	1	0
114	897	7	10000	1	1	0	1	0
113	898	7	10000	1	1	0	1	0
107	899	7	10000	1	1	0	1	0
103	900	7	10000	1	1	0	1	0
106	901	7	10000	1	1	0	1	0
124	901	7	10000	1	1	0	1	0
132	902	7	10000	1	1	0	1	0
132	904	7	10000	1	1	0	1	0
129	905	7	10000	1	1	0	1	0
138	906	7	10000	1	1	0	1	0
142	907	7	10000	1	1	0	1	0
159	908	7	10000	1	1	0	1	0
194	909	7	10000	1	1	0	1	0
229	910	7	10000	1	1	0	1	0
287	911	7	10000	1	1	0	1	0
319	911	7	10000	1	1	0	1	0
323	912	7	10000	1	1	0	1	0
334	914	7	10000	1	1	0	1	0
359	915	7	10000	1	1	0	1	0
401	916	7	10000	1	1	0	1	0
425	917	7	10000	1	1	0	1	0
421	918	7	10000	1	1	0	1	0
410	919	7	10000	1	1	0	1	0
399	920	7	10000	1	1	0	1	0
406	921	7	10000	1	1	0	1	0
425	921	7	10000	1	1	0	1	0
426	922	7	10000	1	1	0	1	0
412	924	7	10000	1	1	0	1	0
399	925	7	10000	1	1	0	1	0
390	926	7	10000	1	1	0	1	0
380	927	7	10000	1	1	0	1	0
362	928	7	10000	1	1	0	1	0
356	929	7	10000	1	1	0	1	0
353	930	7	10000	1	1	0	1	0
347	931	7	10000	1	1	0	1	0
347	931	7	10000	1	1	0	1	0
358	932	7	10000	1	1	0	1	0
360	934	7	10000	1	1	0	1	0
359	935	7	10000	1	1	0	1	0
366	936	7	10000	1	1	0	1	0
361	937	7	10000	1	1	0	1	0
348	938	7	10000	1	1	0	1	0
337	939	7	10000	1	1	0	1	0
330	940	7	10000	1	1	0	1	0
325	941	7	10000	1	1	0	1	0
325	941	7	10000	1	1	0	1	0
328	942	7	10000	1	1	0	1	0
325	944	7	10000	1	1	0	1	0
328	945	7	10000	1	1	0	1	0
345	946	7	10000	1	1	0	1	0
357	947	7	10000	1	1	0	1	0
344	948	7	10000	1	1	0	1	0
344	949	7	10000	1	1	0	1	0
340	950	7	10000	1	1	0	1	0
332	951	7	10000	1	1	0	1	0
320	951	7	10000	1	1	0	1	0
307	952	7	10000	1	1	0	1	0
299	954	7	10000	1	1	0	1	0
294	955	7	10000	1	1	0	1	0
285	956	7	10000	1	1	0	1	0
276	957	7	10000	1	1	0	1	0
274	958	7	10000	1	1	0	1	0
268	959	7	10000	1	1	0	1	0
259	960	7	10000	1	1	0	1	0
251	961	7	10000	1	1	0	1	0
242	961	7	10000	1	1	0	1	0
231	962	7	10000	1	1	0	1	0
222	964	7	10000	1	1	0	1	0
217	965	7	10000	1	1	0	1	0
213	966	7	10000	1	1	0	1	0
209	967	7	10000	1	1	0	1	0
203	968	7	10000	1	1	0	1	0
199	969	7	10000	1	1	0	1	0
194	970	7	10000	1	1	0	1	0
189	971	7	10000	1	1	0	1	0
185	971	7	10000	1	1	0	1	0
182	972	7	10000	1	1	0	1	0
177	974	7	10000	1	1	0	1	0
172	975	7	10000	1	1	0	1	0
168	976	7	10000	1	1	0	1	0
165	977	7	10000	1	1	0	1	0
165	978	7	10000	1	1	0	1	0
164	979	7	10000	1	1	0	1	0
163	980	7	10000	1	1	0	1	0
161	981	7	10000	1	1	0	1	0
161	981	7	10000	1	1	0	1	0
161	982	7	10000	1	1	0	1	0
160	984	7	10000	1	1	0	1	0
162	985	7	10000	1	1	0	1	0
163	986	7	10000	1	1	0	1	0
160	987	7	10000	1	1	0	1	0
156	988	7	10000	1	1	0	1	0
155	989	7	10000	1	1	0	1	0
157	990	7	10000	1	1	0	1	0
159	991	7	10000	1	1	0	1	0
159	991	7	10000	1	1	0	1	0
160	992	7	10000	1	1	0	1	0
159	994	7	10000	1	1	0	1	0
159	995	7	10000	1	1	0	1	0
155	996	7	10000	1	1	0	1	0
152	997	7	10000	1	1	0	1	0
150	998	7	10000	1	1	0	1	0
143	999	7	10000	1	1	0	1	0
137	1000	7	10000	1	1	0	1	0
129	1001	7	10000	1	1	0	1	0
18	1	7	10000	2	1	0	2	0
19	2	7	10000	2	1	0	2	0
20	3	7	10000	2	1	0	2	0
20	4	7	10000	2	1	0	2	0
22	5	7	10000	2	1	0	2	0
23	6	7	10000	2	1	0	2	0
22	7	7	10000	2	1	0	2	0
22	8	7	10000	2	1	0	2	0
23	9	7	10000	2	1	0	2	0
23	10	7	10000	2	1	0	2	0
25	11	7	10000	2	1	0	2	0
27	12	7	10000	2	1	0	2	0
27	13	7	10000	2	1	0	2	0
28	14	7	10000	2	1	0	2	0
29	15	7	10000	2	1	0	2	0
30	16	7	10000	2	1	0	2	0
31	17	7	10000	2	1	0	2	0
32	18	7	10000	2	1	0	2	0
30	19	7	10000	2	1	0	2	0
31	20	7	10000	2	1	0	2	0
31	21	7	10000	2	1	0	2	0
31	22	7	10000	2	1	0	2	0
31	23	7	10000	2	1	0	2	0
29	24	7	10000	2	1	0	2	0
28	25	7	10000	2	1	0	2	0
27	26	7	10000	2	1	0	2	0
25	27	7	10000	2	1	0	2	0
24	28	7	10000	2	1	0	2	0
26	29	7	10000	2	1	0	2	0
25	30	7	10000	2	1	0	2	0
25	31	7	10000	2	1	0	2	0
25	32	7	10000	2	1	0	2	0
25	33	7	10000	2	1	0	2	0
24	34	7	10000	2	1	0	2	0
23	35	7	10000	2	1	0	2	0
23	36	7	10000	2	1	0	2	0
23	37	7	10000	2	1	0	2	0
22	38	7	10000	2	1	0	2	0
21	39	7	10000	2	1	0	2	0
20	40	7	10000	2	1	0	2	0
20	41	7	10000	2	1	0	2	0
20	42	7	10000	2	1	0	2	0
19	43	7	10000	2	1	0	2	0
19	44	7	10000	2	1	0	2	0
19	45	7	10000	2	1	0	2	0
17	46	7	10000	2	1	0	2	0
17	47	7	10000	2	1	0	2	0
17	48	7	10000	2	1	0	2	0
19	49	7	10000	2	1	0	2	0
18	50	7	10000	2	1	0	2	0
17	51	7	10000	2	1	0	2	0
17	52	7	10000	2	1	0	2	0
16	53	7	10000	2	1	0	2	0
15	54	7	10000	2	1	0	2	0
16	55	7	10000	2	1	0	2	0
16	56	7	10000	2	1	0	2	0
16	57	7	10000	2	1	0	2	0
17	58	7	10000	2	1	0	2	0
14	59	7	10000	2	1	0	2	0
15	60	7	10000	2	1	0	2	0
15	61	7	10000	2	1	0	2	0
15	62	7	10000	2	1	0	2	0
15	63	7	10000	2	1	0	2	0
15	64	7	10000	2	1	0	2	0
15	65	7	10000	2	1	0	2	0
14	66	7	10000	2	1	0	2	0
14	67	7	10000	2	1	0	2	0
14	68	7	10000	2	1	0	2	0
15	69	7	10000	2	1	0	2	0
15	70	7	10000	2	1	0	2	0
14	71	7	10000	2	1	0	2	0
14	72	7	10000	2	1	0	2	0
14	73	7	10000	2	1	0	2	0
13	74	7	10000	2	1	0	2	0
13	75	7	10000	2	1	0	2	0
13	76	7	10000	2	1	0	2	0
13	77	7	10000	2	1	0	2	0
13	78	7	10000	2	1	0	2	0
10	79	7	10000	2	1	0	2	0
11	80	7	10000	2	1	0	2	0
12	81	7	10000	2	1	0	2	0
11	82	7	10000	2	1	0	2	0
10	83	7	10000	2	1	0	2	0
11	84	7	10000	2	1	0	2	0
10	85	7	10000	2	1	0	2	0
10	86	7	10000	2	1	0	2	0
10	87	7	10000	2	1	0	2	0
10	88	7	10000	2	1	0	2	0
11	89	7	10000	2	1	0	2	0
11	90	7	10000	2	1	0	2	0
10	91	7	10000	2	1	0	2	0
10	92	7	10000	2	1	0	2	0
11	93	7	10000	2	1	0	2	0
11	94	7	10000	2	1	0	2	0
11	95	7	10000	2	1	0	2	0
11	96	7	10000	2	1	0	2	0
11	97	7	10000	2	1	0	2	0
10	98	7	10000	2	1	0	2	0
9	99	7	10000	2	1	0	2	0
9	100	7	10000	2	1	0	2	0
8	101	7	10000	2	1	0	2	0
8	102	7	10000	2	1	0	2	0
8	103	7	10000	2	1	0	2	0
9	104	7	10000	2	1	0	2	0
8	105	7	10000	2	1	0	2	0
8	106	7	10000	2	1	0	2	0
9	107	7	10000	2	1	0	2	0
8	108	7	10000	2	1	0	2	0
10	109	7	10000	2	1	0	2	0
9	110	7	10000	2	1	0	2	0
9	111	7	10000	2	1	0	2	0
9	112	7	10000	2	1	0	2	0
9	113	7	10000	2	1	0	2	0
9	114	7	10000	2	1	0	2	0
9	115	7	10000	2	1	0	2	0
10	116	7	10000	2	1	0	2	0
10	117	7	10000	2	1	0	2	0
9	118	7	10000	2	1	0	2	0
7	119	7	10000	2	1	0	2	0
8	120	7	10000	2	1	0	2	0
8	121	7	10000	2	1	0	2	0
8	122	7	10000	2	1	0	2	0
7	123	7	10000	2	1	0	2	0
7	124	7	10000	2	1	0	2	0
8	125	7	10000	2	1	0	2	0
8	126	7	10000	2	1	0	2	0
8	127	7	10000	2	1	0	2	0
8	128	7	10000	2	1	0	2	0
9	129	7	10000	2	1	0	2	0
9	130	7	10000	2	1	0	2	0
8	131	7	10000	2	1	0	2	0
8	132	7	10000	2	1	0	2	0
8	133	7	10000	2	1	0	2	0
7	134	7	10000	2	1	0	2	0
7	135	7	10000	2	1	0	2	0
8	136	7	10000	2	1	0	2	0
9	137	7	10000	2	1	0	2	0
9	138	7	10000	2	1	0	2	0
8	139	7	10000	2	1	0	2	0
8	140	7	10000	2	1	0	2	0
8	141	7	10000	2	1	0	2	0
8	142	7	10000	2	1	0	2	0
8	143	7	10000	2	1	0	2	0
8	144	7	10000	2	1	0	2	0
8	145	7	10000	2	1	0	2	0
8	146	7	10000	2	1	0	2	0
7	147	7	10000	2	1	0	2	0
7	148	7	10000	2	1	0	2	0
9	149	7	10000	2	1	0	2	0
9	150	7	10000	2	1	0	2	0
9	151	7	10000	2	1	0	2	0
9	152	7	10000	2	1	0	2	0
9	153	7	10000	2	1	0	2	0
9	154	7	10000	2	1	0	2	0
9	155	7	10000	2	1	0	2	0
11	156	7	10000	2	1	0	2	0
12	157	7	10000	2	1	0	2	0
11	158	7	10000	2	1	0	2	0
11	159	7	10000	2	1	0	2	0
10	160	7	10000	2	1	0	2	0
11	161	7	10000	2	1	0	2	0
10	162	7	10000	2	1	0	2	0
10	163	7	10000	2	1	0	2	0
10	164	7	10000	2	1	0	2	0
9	165	7	10000	2	1	0	2	0
9	166	7	10000	2	1	0	2	0
10	167	7	10000	2	1	0	2	0
12	168	7	10000	2	1	0	2	0
15	169	7	10000	2	1	0	2	0
15	170	7	10000	2	1	0	2	0
15	171	7	10000	2	1	0	2	0
14	172	7	10000	2	1	0	2	0
14	173	7	10000	2	1	0	2	0
13	174	7	10000	2	1	0	2	0
13	175	7	10000	2	1	0	2	0
13	176	7	10000	2	1	0	2	0
13	177	7	10000	2	1	0	2	0
13	178	7	10000	2	1	0	2	0
12	179	7	10000	2	1	0	2	0
12	180	7	10000	2	1	0	2	0
11	181	7	10000	2	1	0	2	0
12	182	7	10000	2	1	0	2	0
11	183	7	10000	2	1	0	2	0
12	184	7	10000	2	1	0	2	0
13	185	7	10000	2	1	0	2	0
13	186	7	10000	2	1	0	2	0
13	187	7	10000	2	1	0	2	0
14	188	7	10000	2	1	0	2	0
16	189	7	10000	2	1	0	2	0
15	190	7	10000	2	1	0	2	0
15	191	7	10000	2	1	0	2	0
14	192	7	10000	2	1	0	2	0
13	193	7	10000	2	1	0	2	0
13	194	7	10000	2	1	0	2	0
13	195	7	10000	2	1	0	2	0
13	196	7	10000	2	1	0	2	0
12	197	7	10000	2	1	0	2	0
12	198	7	10000	2	1	0	2	0
9	199	7	10000	2	1	0	2	0
10	200	7	10000	2	1	0	2	0
10	201	7	10000	2	1	0	2	0
10	202	7	10000	2	1	0	2	0
11	203	7	10000	2	1	0	2	0
11	204	7	10000	2	1	0	2	0
11	205	7	10000	2	1	0	2	0
10	206	7	10000	2	1	0	2	0
9	207	7	10000	2	1	0	2	0
10	208	7	10000	2	1	0	2	0
11	209	7	10000	2	1	0	2	0
11	210	7	10000	2	1	0	2	0
11	211	7	10000	2	1	0	2	0
11	212	7	10000	2	1	0	2	0
10	213	7	10000	2	1	0	2	0
10	214	7	10000	2	1	0	2	0
10	215	7	10000	2	1	0	2	0
10	216	7	10000	2	1	0	2	0
10	217	7	10000	2	1	0	2	0
9	218	7	10000	2	1	0	2	0
8	219	7	10000	2	1	0	2	0
8	220	7	10000	2	1	0	2	0
8	221	7	10000	2	1	0	2	0
8	222	7	10000	2	1	0	2	0
8	223	7	10000	2	1	0	2	0
8	224	7	10000	2	1	0	2	0
8	225	7	10000	2	1	0	2	0
8	226	7	10000	2	1	0	2	0
8	227	7	10000	2	1	0	2	0
8	228	7	10000	2	1	0	2	0
9	229	7	10000	2	1	0	2	0
9	230	7	10000	2	1	0	2	0
9	231	7	10000	2	1	0	2	0
8	232	7	10000	2	1	0	2	0
8	233	7	10000	2	1	0	2	0
9	234	7	10000	2	1	0	2	0
8	235	7	10000	2	1	0	2	0
8	236	7	10000	2	1	0	2	0
9	237	7	10000	2	1	0	2	0
9	238	7	10000	2	1	0	2	0
7	239	7	10000	2	1	0	2	0
9	240	7	10000	2	1	0	2	0
9	241	7	10000	2	1	0	2	0
11	242	7	10000	2	1	0	2	0
10	243	7	10000	2	1	0	2	0
10	244	7	10000	2	1	0	2	0
10	245	7	10000	2	1	0	2	0
9	246	7	10000	2	1	0	2	0
8	247	7	10000	2	1	0	2	0
9	248	7	10000	2	1	0	2	0
11	249	7	10000	2	1	0	2	0
11	250	7	10000	2	1	0	2	0
12	251	7	10000	2	1	0	2	0
13	252	7	10000	2	1	0	2	0
13	253	7	10000	2	1	0	2	0
13	254	7	10000	2	1	0	2	0
14	255	7	10000	2	1	0	2	0
14	256	7	10000	2	1	0	2	0
15	257	7	10000	2	1	0	2	0
15	258	7	10000	2	1	0	2	0
14	259	7	10000	2	1	0	2	0
19	260	7	10000	2	1	0	2	0
24	261	7	10000	2	1	0	2	0
26	262	7	10000	2	1	0	2	0
28	263	7	10000	2	1	0	2	0
30	264	7	10000	2	1	0	2	0
32	265	7	10000	2	1	0	2	0
30	266	7	10000	2	1	0	2	0
28	267	7	10000	2	1	0	2	0
27	268	7	10000	2	1	0	2	0
29	269	7	10000	2	1	0	2	0
31	270	7	10000	2	1	0	2	0
30	271	7	10000	2	1	0	2	0
31	272	7	10000	2	1	0	2	0
31	273	7	10000	2	1	0	2	0
31	274	7	10000	2	1	0	2	0
31	275	7	10000	2	1	0	2	0
34	276	7	10000	2	1	0	2	0
39	277	7	10000	2	1	0	2	0
40	278	7	10000	2	1	0	2	0
41	279	7	10000	2	1	0	2	0
44	280	7	10000	2	1	0	2	0
60	281	7	10000	2	1	0	2	0
77	282	7	10000	2	1	0	2	0
80	283	7	10000	2	1	0	2	0
94	284	7	10000	2	1	0	2	0
102	285	7	10000	2	1	0	2	0
105	286	7	10000	2	1	0	2	0
102	287	7	10000	2	1	0	2	0
100	288	7	10000	2	1	0	2	0
113	289	7	10000	2	1	0	2	0
115	290	7	10000	2	1	0	2	0
117	291	7	10000	2	1	0	2	0
122	292	7	10000	2	1	0	2	0
120	293	7	10000	2	1	0	2	0
118	294	7	10000	2	1	0	2	0
119	295	7	10000	2	1	0	2	0
118	296	7	10000	2	1	0	2	0
115	297	7	10000	2	1	0	2	0
113	298	7	10000	2	1	0	2	0
107	299	7	10000	2	1	0	2	0
103	300	7	10000	2	1	0	2	0
105	301	7	10000	2	1	0	2	0
110	302	7	10000	2	1	0	2	0
108	303	7	10000	2	1	0	2	0
109	304	7	10000	2	1	0	2	0
109	305	7	10000	2	1	0	2	0
106	306	7	10000	2	1	0	2	0
103	307	7	10000	2	1	0	2	0
100	308	7	10000	2	1	0	2	0
100	309	7	10000	2	1	0	2	0
98	310	7	10000	2	1	0	2	0
96	311	7	10000	2	1	0	2	0
104	312	7	10000	2	1	0	2	0
115	313	7	10000	2	1	0	2	0
120	314	7	10000	2	1	0	2	0
118	315	7	10000	2	1	0	2	0
122	316	7	10000	2	1	0	2	0
126	317	7	10000	2	1	0	2	0
126	318	7	10000	2	1	0	2	0
123	319	7	10000	2	1	0	2	0
122	320	7	10000	2	1	0	2	0
120	321	7	10000	2	1	0	2	0
116	322	7	10000	2	1	0	2	0
111	323	7	10000	2	1	0	2	0
109	324	7	10000	2	1	0	2	0
111	325	7	10000	2	1	0	2	0
110	326	7	10000	2	1	0	2	0
106	327	7	10000	2	1	0	2	0
105	328	7	10000	2	1	0	2	0
105	329	7	10000	2	1	0	2	0
101	330	7	10000	2	1	0	2	0
104	331	7	10000	2	1	0	2	0
108	332	7	10000	2	1	0	2	0
105	333	7	10000	2	1	0	2	0
102	334	7	10000	2	1	0	2	0
104	335	7	10000	2	1	0	2	0
108	336	7	10000	2	1	0	2	0
106	337	7	10000	2	1	0	2	0
102	338	7	10000	2	1	0	2	0
95	339	7	10000	2	1	0	2	0
91	340	7	10000	2	1	0	2	0
91	341	7	10000	2	1	0	2	0
88	342	7	10000	2	1	0	2	0
86	343	7	10000	2	1	0	2	0
86	344	7	10000	2	1	0	2	0
86	345	7	10000	2	1	0	2	0
85	346	7	10000	2	1	0	2	0
83	347	7	10000	2	1	0	2	0
80	348	7	10000	2	1	0	2	0
80	349	7	10000	2	1	0	2	0
77	350	7	10000	2	1	0	2	0
74	351	7	10000	2	1	0	2	0
71	352	7	10000	2	1	0	2	0
68	353	7	10000	2	1	0	2	0
66	354	7	10000	2	1	0	2	0
64	355	7	10000	2	1	0	2	0
64	356	7	10000	2	1	0	2	0
64	357	7	10000	2	1	0	2	0
61	358	7	10000	2	1	0	2	0
59	359	7	10000	2	1	0	2	0
61	360	7	10000	2	1	0	2	0
61	361	7	10000	2	1	0	2	0
62	362	7	10000	2	1	0	2	0
63	363	7	10000	2	1	0	2	0
64	364	7	10000	2	1	0	2	0
63	365	7	10000	2	1	0	2	0
61	366	7	10000	2	1	0	2	0
59	367	7	10000	2	1	0	2	0
57	368	7	10000	2	1	0	2	0
59	369	7	10000	2	1	0	2	0
58	370	7	10000	2	1	0	2	0
58	371	7	10000	2	1	0	2	0
58	372	7	10000	2	1	0	2	0
60	373	7	10000	2	1	0	2	0
62	374	7	10000	2	1	0	2	0
62	375	7	10000	2	1	0	2	0
62	376	7	10000	2	1	0	2	0
61	377	7	10000	2	1	0	2	0
58	378	7	10000	2	1	0	2	0
55	379	7	10000	2	1	0	2	0
56	380	7	10000	2	1	0	2	0
56	381	7	10000	2	1	0	2	0
59	382	7	10000	2	1	0	2	0
59	383	7	10000	2	1	0	2	0
61	384	7	10000	2	1	0	2	0
62	385	7	10000	2	1	0	2	0
62	386	7	10000	2	1	0	2	0
64	387	7	10000	2	1	0	2	0
64	388	7	10000	2	1	0	2	0
65	389	7	10000	2	1	0	2	0
65	390	7	10000	2	1	0	2	0
64	391	7	10000	2	1	0	2	0
63	392	7	10000	2	1	0	2	0
64	393	7	10000	2	1	0	2	0
63	394	7	10000	2	1	0	2	0
63	395	7	10000	2	1	0	2	0
64	396	7	10000	2	1	0	2	0
63	397	7	10000	2	1	0	2	0
60	398	7	10000	2	1	0	2	0
55	399	7	10000	2	1	0	2	0
55	400	7	10000	2	1	0	2	0
54	401	7	10000	2	1	0	2	0
53	402	7	10000	2	1	0	2	0
53	403	7	10000	2	1	0	2	0
53	404	7	10000	2	1	0	2	0
54	405	7	10000	2	1	0	2	0
53	406	7	10000	2	1	0	2	0
51	407	7	10000	2	1	0	2	0
50	408	7	10000	2	1	0	2	0
50	409	7	10000	2	1	0	2	0
47	410	7	10000	2	1	0	2	0
45	411	7	10000	2	1	0	2	0
44	412	7	10000	2	1	0	2	0
43	413	7	10000	2	1	0	2	0
40	414	7	10000	2	1	0	2	0
39	415	7	10000	2	1	0	2	0
39	416	7	10000	2	1	0	2	0
38	417	7	10000	2	1	0	2	0
37	418	7	10000	2	1	0	2	0
35	419	7	10000	2	1	0	2	0
35	420	7	10000	2	1	0	2	0
35	421	7	10000	2	1	0	2	0
34	422	7	10000	2	1	0	2	0
33	423	7	10000	2	1	0	2	0
32	424	7	10000	2	1	0	2	0
32	425	7	10000	2	1	0	2	0
30	426	7	10000	2	1	0	2	0
29	427	7	10000	2	1	0	2	0
28	428	7	10000	2	1	0	2	0
29	429	7	10000	2	1	0	2	0
29	430	7	10000	2	1	0	2	0
30	431	7	10000	2	1	0	2	0
30	432	7	10000	2	1	0	2	0
30	433	7	10000	2	1	0	2	0
29	434	7	10000	2	1	0	2	0
27	435	7	10000	2	1	0	2	0
28	436	7	10000	2	1	0	2	0
26	437	7	10000	2	1	0	2	0
25	438	7	10000	2	1	0	2	0
23	439	7	10000	2	1	0	2	0
23	440	7	10000	2	1	0	2	0
24	441	7	10000	2	1	0	2	0
25	442	7	10000	2	1	0	2	0
24	443	7	10000	2	1	0	2	0
24	444	7	10000	2	1	0	2	0
26	445	7	10000	2	1	0	2	0
23	446	7	10000	2	1	0	2	0
22	447	7	10000	2	1	0	2	0
22	448	7	10000	2	1	0	2	0
24	449	7	10000	2	1	0	2	0
23	450	7	10000	2	1	0	2	0
22	451	7	10000	2	1	0	2	0
23	452	7	10000	2	1	0	2	0
24	453	7	10000	2	1	0	2	0
23	454	7	10000	2	1	0	2	0
22	455	7	10000	2	1	0	2	0
21	456	7	10000	2	1	0	2	0
21	457	7	10000	2	1	0	2	0
21	458	7	10000	2	1	0	2	0
19	459	7	10000	2	1	0	2	0
20	460	7	10000	2	1	0	2	0
20	461	7	10000	2	1	0	2	0
21	462	7	10000	2	1	0	2	0
21	463	7	10000	2	1	0	2	0
21	464	7	10000	2	1	0	2	0
21	465	7	10000	2	1	0	2	0
20	466	7	10000	2	1	0	2	0
19	467	7	10000	2	1	0	2	0
19	468	7	10000	2	1	0	2	0
20	469	7	10000	2	1	0	2	0
20	470	7	10000	2	1	0	2	0
21	471	7	10000	2	1	0	2	0
20	472	7	10000	2	1	0	2	0
19	473	7	10000	2	1	0	2	0
19	474	7	10000	2	1	0	2	0
18	475	7	10000	2	1	0	2	0
19	476	7	10000	2	1	0	2	0
18	477	7	10000	2	1	0	2	0
18	478	7	10000	2	1	0	2	0
16	479	7	10000	2	1	0	2	0
17	480	7	10000	2	1	0	2	0
19	481	7	10000	2	1	0	2	0
19	482	7	10000	2	1	0	2	0
20	483	7	10000	2	1	0	2	0
20	484	7	10000	2	1	0	2	0
20	485	7	10000	2	1	0	2	0
19	486	7	10000	2	1	0	2	0
17	487	7	10000	2	1	0	2	0
17	488	7	10000	2	1	0	2	0
19	489	7	10000	2	1	0	2	0
18	490	7	10000	2	1	0	2	0
19	491	7	10000	2	1	0	2	0
18	492	7	10000	2	1	0	2	0
17	493	7	10000	2	1	0	2	0
17	494	7	10000	2	1	0	2	0
17	495	7	10000	2	1	0	2	0
18	496	7	10000	2	1	0	2	0
17	497	7	10000	2	1	0	2	0
17	498	7	10000	2	1	0	2	0
14	499	7	10000	2	1	0	2	0
15	500	7	10000	2	1	0	2	0
15	501	7	10000	2	1	0	2	1
15	502	7	10000	2	1	0	2	1
15	503	7	10000	2	1	0	2	1
15	504	7	10000	2	1	0	2	1
16	505	7	10000	2	1	0	2	1
15	506	7	10000	2	1	0	2	1
14	507	7	10000	2	1	0	2	1
14	508	7	10000	2	1	0	2	1
16	509	7	10000	2	1	0	2	1
15	510	7	10000	2	1	0	2	1
15	511	7	10000	2	1	0	2	1
15	512	7	10000	2	1	0	2	1
15	513	7	10000	2	1	0	2	1
15	514	7	10000	2	1	0	2	1
16	515	7	10000	2	1	0	2	1
17	516	7	10000	2	1	0	2	1
18	517	7	10000	2	1	0	2	1
17	518	7	10000	2	1	0	2	1
16	519	7	10000	2	1	0	2	1
16	520	7	10000	2	1	0	2	1
16	521	7	10000	2	1	0	2	1
16	522	7	10000	2	1	0	2	1
16	523	7	10000	2	1	0	2	1
15	524	7	10000	2	1	0	2	1
15	525	7	10000	2	1	0	2	1
15	526	7	10000	2	1	0	2	1
14	527	7	10000	2	1	0	2	1
14	528	7	10000	2	1	0	2	1
16	529	7	10000	2	1	0	2	1
15	530	7	10000	2	1	0	2	1
15	531	7	10000	2	1	0	2	1
14	532	7	10000	2	1	0	2	1
13	533	7	10000	2	1	0	2	1
14	534	7	10000	2	1	0	2	1
12	535	7	10000	2	1	0	2	1
13	536	7	10000	2	1	0	2	1
13	537	7	10000	2	1	0	2	1
13	538	7	10000	2	1	0	2	1
10	539	7	10000	2	1	0	2	1
11	540	7	10000	2	1	0	2	1
10	541	7	10000	2	1	0	2	1
10	542	7	10000	2	1	0	2	1
11	543	7	10000	2	1	0	2	1
12	544	7	10000	2	1	0	2	1
12	545	7	10000	2	1	0	2	1
12	546	7	10000	2	1	0	2	1
10	547	7	10000	2	1	0	2	1
10	548	7	10000	2	1	0	2	1
14	549	7	10000	2	1	0	2	1
13	550	7	10000	2	1	0	2	1
13	551	7	10000	2	1	0	2	0
13	552	7	10000	2	1	0	2	0
13	553	7	10000	2	1	0	2	0
13	554	7	10000	2	1	0	2	0
12	555	7	10000	2	1	0	2	0
12	556	7	10000	2	1	0	2	0
13	557	7	10000	2	1	0	2	0
13	558	7	10000	2	1	0	2	0
11	559	7	10000	2	1	0	2	0
11	560	7	10000	2	1	0	2	0
11	561	7	10000	2	1	0	2	0
12	562	7	10000	2	1	0	2	0
12	563	7	10000	2	1	0	2	0
12	564	7	10000	2	1	0	2	0
12	565	7	10000	2	1	0	2	0
10	566	7	10000	2	1	0	2	0
10	567	7	10000	2	1	0	2	0
9	568	7	10000	2	1	0	2	0
11	569	7	10000	2	1	0	2	0
11	570	7	10000	2	1	0	2	0
10	571	7	10000	2	1	0	2	0
11	572	7	10000	2	1	0	2	0
10	573	7	10000	2	1	0	2	0
11	574	7	10000	2	1	0	2	0
11	575	7	10000	2	1	0	2	0
12	576	7	10000	2	1	0	2	0
15	577	7	10000	2	1	0	2	0
16	578	7	10000	2	1	0	2	0
17	579	7	10000	2	1	0	2	0
20	580	7	10000	2	1	0	2	0
21	581	7	10000	2	1	0	2	0
35	582	7	10000	2	1	0	2	0
62	583	7	10000	2	1	0	2	0
66	584	7	10000	2	1	0	2	0
74	585	7	10000	2	1	0	2	0
86	586	7	10000	2	1	0	2	0
87	587	7	10000	2	1	0	2	0
151	588	7	10000	2	1	0	2	0
251	589	7	10000	2	1	0	2	0
282	590	7	10000	2	1	0	2	0
280	591	7	10000	2	1	0	2	0
326	592	7	10000	2	1	0	2	0
426	593	7	10000	2	1	0	2	0
513	594	7	10000	2	1	0	2	0
510	595	7	10000	2	1	0	2	0
509	596	7	10000	2	1	0	2	0
595	597	7	10000	2	1	0	2	0
672	598	7	10000	2	1	0	2	0
652	599	7	10000	2	1	0	2	0
658	600	7	10000	2	1	0	2	0
661	601	7	10000	2	1	0	2	0
658	602	7	10000	2	1	0	2	0
648	603	7	10000	2	1	0	2	0
651	604	7	10000	2	1	0	2	0
638	605	7	10000	2	1	0	2	0
620	606	7	10000	2	1	0	2	0
624	607	7	10000	2	1	0	2	0
642	608	7	10000	2	1	0	2	0
660	609	7	10000	2	1	0	2	0
662	610	7	10000	2	1	0	2	0
655	611	7	10000	2	1	0	2	0
650	612	7	10000	2	1	0	2	0
646	613	7	10000	2	1	0	2	0
708	614	7	10000	2	1	0	2	0
878	615	7	10000	2	1	0	2	0
1007	616	7	10000	2	1	0	2	0
1051	617	7	10000	2	1	0	2	0
1046	618	7	10000	2	1	0	2	0
1142	619	7	10000	2	1	0	2	0
1271	620	7	10000	2	1	0	2	0
1371	621	7	10000	2	1	0	2	0
1431	622	7	10000	2	1	0	2	0
1447	623	7	10000	2	1	0	2	0
1417	624	7	10000	2	1	0	2	0
1355	625	7	10000	2	1	0	2	0
1303	626	7	10000	2	1	0	2	0
1264	627	7	10000	2	1	0	2	0
1231	628	7	10000	2	1	0	2	0
1202	629	7	10000	2	1	0	2	0
1173	630	7	10000	2	1	0	2	0
1144	631	7	10000	2	1	0	2	0
1114	632	7	10000	2	1	0	2	0
1085	633	7	10000	2	1	0	2	0
1055	634	7	10000	2	1	0	2	0
1026	635	7	10000	2	1	0	2	0
998	636	7	10000	2	1	0	2	0
970	637	7	10000	2	1	0	2	0
943	638	7	10000	2	1	0	2	0
920	639	7	10000	2	1	0	2	0
902	640	7	10000	2	1	0	2	0
882	641	7	10000	2	1	0	2	0
862	642	7	10000	2	1	0	2	0
843	643	7	10000	2	1	0	2	0
825	644	7	10000	2	1	0	2	0
804	645	7	10000	2	1	0	2	0
774	646	7	10000	2	1	0	2	0
739	647	7	10000	2	1	0	2	0
709	648	7	10000	2	1	0	2	0
687	649	7	10000	2	1	0	2	0
668	650	7	10000	2	1	0	2	0
651	651	7	10000	2	1	0	2	0
635	652	7	10000	2	1	0	2	0
620	653	7	10000	2	1	0	2	0
605	654	7	10000	2	1	0	2	0
591	655	7	10000	2	1	0	2	0
578	656	7	10000	2	1	0	2	0
562	657	7	10000	2	1	0	2	0
546	658	7	10000	2	1	0	2	0
528	659	7	10000	2	1	0	2	0
512	660	7	10000	2	1	0	2	0
494	661	7	10000	2	1	0	2	0
478	662	7	10000	2	1	0	2	0
460	663	7	10000	2	1	0	2	0
442	664	7	10000	2	1	0	2	0
427	665	7	10000	2	1	0	2	0
412	666	7	10000	2	1	0	2	0
400	667	7	10000	2	1	0	2	0
390	668	7	10000	2	1	0	2	0
383	669	7	10000	2	1	0	2	0
376	670	7	10000	2	1	0	2	0
370	671	7	10000	2	1	0	2	0
365	672	7	10000	2	1	0	2	0
360	673	7	10000	2	1	0	2	0
354	674	7	10000	2	1	0	2	0
347	675	7	10000	2	1	0	2	0
338	676	7	10000	2	1	0	2	0
327	677	7	10000	2	1	0	2	0
313	678	7	10000	2	1	0	2	0
297	679	7	10000	2	1	0	2	0
285	680	7	10000	2	1	0	2	0
273	681	7	10000	2	1	0	2	0
264	682	7	10000	2	1	0	2	0
255	683	7	10000	2	1	0	2	0
246	684	7	10000	2	1	0	2	0
237	685	7	10000	2	1	0	2	0
227	686	7	10000	2	1	0	2	0
218	687	7	10000	2	1	0	2	0
210	688	7	10000	2	1	0	2	0
202	689	7	10000	2	1	0	2	0
193	690	7	10000	2	1	0	2	0
187	691	7	10000	2	1	0	2	0
180	692	7	10000	2	1	0	2	0
174	693	7	10000	2	1	0	2	0
168	694	7	10000	2	1	0	2	0
161	695	7	10000	2	1	0	2	0
155	696	7	10000	2	1	0	2	0
150	697	7	10000	2	1	0	2	0
147	698	7	10000	2	1	0	2	0
145	699	7	10000	2	1	0	2	0
146	700	7	10000	2	1	0	2	0
148	701	7	10000	2	1	0	2	0
150	702	7	10000	2	1	0	2	0
152	703	7	10000	2	1	0	2	0
154	704	7	10000	2	1	0	2	0
157	705	7	10000	2	1	0	2	0
157	706	7	10000	2	1	0	2	0
155	707	7	10000	2	1	0	2	0
153	708	7	10000	2	1	0	2	0
150	709	7	10000	2	1	0	2	0
144	710	7	10000	2	1	0	2	0
138	711	7	10000	2	1	0	2	0
132	712	7	10000	2	1	0	2	0
127	713	7	10000	2	1	0	2	0
122	714	7	10000	2	1	0	2	0
116	715	7	10000	2	1	0	2	0
113	716	7	10000	2	1	0	2	0
110	717	7	10000	2	1	0	2	0
108	718	7	10000	2	1	0	2	0
106	719	7	10000	2	1	0	2	0
108	720	7	10000	2	1	0	2	0
111	721	7	10000	2	1	0	2	0
113	722	7	10000	2	1	0	2	0
115	723	7	10000	2	1	0	2	0
117	724	7	10000	2	1	0	2	0
120	725	7	10000	2	1	0	2	0
120	726	7	10000	2	1	0	2	0
119	727	7	10000	2	1	0	2	0
118	728	7	10000	2	1	0	2	0
115	729	7	10000	2	1	0	2	0
110	730	7	10000	2	1	0	2	0
106	731	7	10000	2	1	0	2	0
102	732	7	10000	2	1	0	2	0
98	733	7	10000	2	1	0	2	0
96	734	7	10000	2	1	0	2	0
94	735	7	10000	2	1	0	2	0
91	736	7	10000	2	1	0	2	0
88	737	7	10000	2	1	0	2	0
86	738	7	10000	2	1	0	2	0
85	739	7	10000	2	1	0	2	0
87	740	7	10000	2	1	0	2	0
88	741	7	10000	2	1	0	2	0
90	742	7	10000	2	1	0	2	0
91	743	7	10000	2	1	0	2	0
92	744	7	10000	2	1	0	2	0
92	745	7	10000	2	1	0	2	0
91	746	7	10000	2	1	0	2	0
88	747	7	10000	2	1	0	2	0
85	748	7	10000	2	1	0	2	0
83	749	7	10000	2	1	0	2	0
80	750	7	10000	2	1	0	2	0
79	751	7	10000	2	1	0	2	0
78	752	7	10000	2	1	0	2	0
78	753	7	10000	2	1	0	2	0
78	754	7	10000	2	1	0	2	0
76	755	7	10000	2	1	0	2	0
75	756	7	10000	2	1	0	2	0
73	757	7	10000	2	1	0	2	0
70	758	7	10000	2	1	0	2	0
66	759	7	10000	2	1	0	2	0
67	760	7	10000	2	1	0	2	0
68	761	7	10000	2	1	0	2	0
69	762	7	10000	2	1	0	2	0
71	763	7	10000	2	1	0	2	0
71	764	7	10000	2	1	0	2	0
72	765	7	10000	2	1	0	2	0
71	766	7	10000	2	1	0	2	0
68	767	7	10000	2	1	0	2	0
65	768	7	10000	2	1	0	2	0
66	769	7	10000	2	1	0	2	0
63	770	7	10000	2	1	0	2	0
62	771	7	10000	2	1	0	2	0
62	772	7	10000	2	1	0	2	0
62	773	7	10000	2	1	0	2	0
62	774	7	10000	2	1	0	2	0
61	775	7	10000	2	1	0	2	0
61	776	7	10000	2	1	0	2	0
61	777	7	10000	2	1	0	2	0
59	778	7	10000	2	1	0	2	0
54	779	7	10000	2	1	0	2	0
54	780	7	10000	2	1	0	2	0
54	781	7	10000	2	1	0	2	0
55	782	7	10000	2	1	0	2	0
58	783	7	10000	2	1	0	2	0
58	784	7	10000	2	1	0	2	0
57	785	7	10000	2	1	0	2	0
56	786	7	10000	2	1	0	2	0
53	787	7	10000	2	1	0	2	0
51	788	7	10000	2	1	0	2	0
52	789	7	10000	2	1	0	2	0
52	790	7	10000	2	1	0	2	0
53	791	7	10000	2	1	0	2	0
54	792	7	10000	2	1	0	2	0
56	793	7	10000	2	1	0	2	0
56	794	7	10000	2	1	0	2	0
57	795	7	10000	2	1	0	2	0
57	796	7	10000	2	1	0	2	0
57	797	7	10000	2	1	0	2	0
56	798	7	10000	2	1	0	2	0
52	799	7	10000	2	1	0	2	0
52	800	7	10000	2	1	0	2	0
52	801	7	10000	2	1	0	2	0
52	802	7	10000	2	1	0	2	0
52	803	7	10000	2	1	0	2	0
51	804	7	10000	2	1	0	2	0
51	805	7	10000	2	1	0	2	0
49	806	7	10000	2	1	0	2	0
46	807	7	10000	2	1	0	2	0
44	808	7	10000	2	1	0	2	0
48	809	7	10000	2	1	0	2	0
47	810	7	10000	2	1	0	2	0
47	811	7	10000	2	1	0	2	0
49	812	7	10000	2	1	0	2	0
50	813	7	10000	2	1	0	2	0
51	814	7	10000	2	1	0	2	0
52	815	7	10000	2	1	0	2	0
52	816	7	10000	2	1	0	2	0
51	817	7	10000	2	1	0	2	0
49	818	7	10000	2	1	0	2	0
45	819	7	10000	2	1	0	2	0
45	820	7	10000	2	1	0	2	0
45	821	7	10000	2	1	0	2	0
46	822	7	10000	2	1	0	2	0
46	823	7	10000	2	1	0	2	0
47	824	7	10000	2	1	0	2	0
46	825	7	10000	2	1	0	2	0
44	826	7	10000	2	1	0	2	0
42	827	7	10000	2	1	0	2	0
41	828	7	10000	2	1	0	2	0
43	829	7	10000	2	1	0	2	0
43	830	7	10000	2	1	0	2	0
43	831	7	10000	2	1	0	2	0
44	832	7	10000	2	1	0	2	0
44	833	7	10000	2	1	0	2	0
45	834	7	10000	2	1	0	2	0
46	835	7	10000	2	1	0	2	0
47	836	7	10000	2	1	0	2	0
45	837	7	10000	2	1	0	2	0
44	838	7	10000	2	1	0	2	0
40	839	7	10000	2	1	0	2	0
40	840	7	10000	2	1	0	2	0
40	841	7	10000	2	1	0	2	0
40	842	7	10000	2	1	0	2	0
41	843	7	10000	2	1	0	2	0
41	844	7	10000	2	1	0	2	0
42	845	7	10000	2	1	0	2	0
41	846	7	10000	2	1	0	2	0
41	847	7	10000	2	1	0	2	0
38	848	7	10000	2	1	0	2	0
39	849	7	10000	2	1	0	2	0
39	850	7	10000	2	1	0	2	0
39	851	7	10000	2	1	0	2	0
40	852	7	10000	2	1	0	2	0
41	853	7	10000	2	1	0	2	0
42	854	7	10000	2	1	0	2	0
42	855	7	10000	2	1	0	2	0
43	856	7	10000	2	1	0	2	0
42	857	7	10000	2	1	0	2	0
42	858	7	10000	2	1	0	2	0
39	859	7	10000	2	1	0	2	0
40	860	7	10000	2	1	0	2	0
42	861	7	10000	2	1	0	2	0
42	862	7	10000	2	1	0	2	0
41	863	7	10000	2	1	0	2	0
42	864	7	10000	2	1	0	2	0
43	865	7	10000	2	1	0	2	0
42	866	7	10000	2	1	0	2	0
40	867	7	10000	2	1	0	2	0
39	868	7	10000	2	1	0	2	0
38	869	7	10000	2	1	0	2	0
36	870	7	10000	2	1	0	2	0
35	871	7	10000	2	1	0	2	0
36	872	7	10000	2	1	0	2	0
37	873	7	10000	2	1	0	2	0
37	874	7	10000	2	1	0	2	0
38	875	7	10000	2	1	0	2	0
39	876	7	10000	2	1	0	2	0
40	877	7	10000	2	1	0	2	0
40	878	7	10000	2	1	0	2	0
36	879	7	10000	2	1	0	2	0
36	880	7	10000	2	1	0	2	0
37	881	7	10000	2	1	0	2	0
38	882	7	10000	2	1	0	2	0
39	883	7	10000	2	1	0	2	0
40	884	7	10000	2	1	0	2	0
39	885	7	10000	2	1	0	2	0
38	886	7	10000	2	1	0	2	0
36	887	7	10000	2	1	0	2	0
34	888	7	10000	2	1	0	2	0
37	889	7	10000	2	1	0	2	0
36	890	7	10000	2	1	0	2	0
35	891	7	10000	2	1	0	2	0
36	892	7	10000	2	1	0	2	0
37	893	7	10000	2	1	0	2	0
39	894	7	10000	2	1	0	2	0
39	895	7	10000	2	1	0	2	0
40	896	7	10000	2	1	0	2	0
39	897	7	10000	2	1	0	2	0
38	898	7	10000	2	1	0	2	0
35	899	7	10000	2	1	0	2	0
35	900	7	10000	2	1	0	2	0
36	901	7	10000	2	1	0	2	0
37	902	7	10000	2	1	0	2	0
37	903	7	10000	2	1	0	2	0
37	904	7	10000	2	1	0	2	0
38	905	7	10000	2	1	0	2	0
36	906	7	10000	2	1	0	2	0
33	907	7	10000	2	1	0	2	0
32	908	7	10000	2	1	0	2	0
33	909	7	10000	2	1	0	2	0
32	910	7	10000	2	1	0	2	0
32	911	7	10000	2	1	0	2	0
32	912	7	10000	2	1	0	2	0
33	913	7	10000	2	1	0	2	0
34	914	7	10000	2	1	0	2	0
34	915	7	10000	2	1	0	2	0
35	916	7	10000	2	1	0	2	0
34	917	7	10000	2	1	0	2	0
34	918	7	10000	2	1	0	2	0
32	919	7	10000	2	1	0	2	0
33	920	7	10000	2	1	0	2	0
33	921	7	10000	2	1	0	2	0
35	922	7	10000	2	1	0	2	0
35	923	7	10000	2	1	0	2	0
36	924	7	10000	2	1	0	2	0
37	925	7	10000	2	1	0	2	0
35	926	7	10000	2	1	0	2	0
33	927	7	10000	2	1	0	2	0
32	928	7	10000	2	1	0	2	0
34	929	7	10000	2	1	0	2	0
35	930	7	10000	2	1	0	2	0
35	931	7	10000	2	1	0	2	0
35	932	7	10000	2	1	0	2	0
36	933	7	10000	2	1	0	2	0
36	934	7	10000	2	1	0	2	0
36	935	7	10000	2	1	0	2	0
36	936	7	10000	2	1	0	2	0
35	937	7	10000	2	1	0	2	0
34	938	7	10000	2	1	0	2	0
32	939	7	10000	2	1	0	2	0
30	940	7	10000	2	1	0	2	0
30	941	7	10000	2	1	0	2	0
31	942	7	10000	2	1	0	2	0
32	943	7	10000	2	1	0	2	0
33	944	7	10000	2	1	0	2	0
34	945	7	10000	2	1	0	2	0
32	946	7	10000	2	1	0	2	0
30	947	7	10000	2	1	0	2	0
30	948	7	10000	2	1	0	2	0
32	949	7	10000	2	1	0	2	0
31	950	7	10000	2	1	0	2	0
31	951	7	10000	2	1	0	2	0
30	952	7	10000	2	1	0	2	0
30	953	7	10000	2	1	0	2	0
30	954	7	10000	2	1	0	2	0
29	955	7	10000	2	1	0	2	0
30	956	7	10000	2	1	0	2	0
30	957	7	10000	2	1	0	2	0
28	958	7	10000	2	1	0	2	0
26	959	7	10000	2	1	0	2	0
26	960	7	10000	2	1	0	2	0
27	961	7	10000	2	1	0	2	0
29	962	7	10000	2	1	0	2	0
30	963	7	10000	2	1	0	2	0
32	964	7	10000	2	1	0	2	0
34	965	7	10000	2	1	0	2	0
33	966	7	10000	2	1	0	2	0
32	967	7	10000	2	1	0	2	0
31	968	7	10000	2	1	0	2	0
32	969	7	10000	2	1	0	2	0
31	970	7	10000	2	1	0	2	0
31	971	7	10000	2	1	0	2	0
31	972	7	10000	2	1	0	2	0
32	973	7	10000	2	1	0	2	0
32	974	7	10000	2	1	0	2	0
32	975	7	10000	2	1	0	2	0
34	976	7	10000	2	1	0	2	0
34	977	7	10000	2	1	0	2	0
33	978	7	10000	2	1	0	2	0
30	979	7	10000	2	1	0	2	0
29	980	7	10000	2	1	0	2	0
29	981	7	10000	2	1	0	2	0
30	982	7	10000	2	1	0	2	0
31	983	7	10000	2	1	0	2	0
32	984	7	10000	2	1	0	2	0
33	985	7	10000	2	1	0	2	0
32	986	7	10000	2	1	0	2	0
32	987	7	10000	2	1	0	2	0
32	988	7	10000	2	1	0	2	0
33	989	7	10000	2	1	0	2	0
32	990	7	10000	2	1	0	2	0
31	991	7	10000	2	1	0	2	0
29	992	7	10000	2	1	0	2	0
29	993	7	10000	2	1	0	2	0
30	994	7	10000	2	1	0	2	0
29	995	7	10000	2	1	0	2	0
28	996	7	10000	2	1	0	2	0
27	997	7	10000	2	1	0	2	0
26	998	7	10000	2	1	0	2	0
24	999	7	10000	2	1	0	2	0
24	1000	7	10000	2	1	0	2	0
9	1	0	10000	3	1	0	3	0
9	2	0	10000	3	1	0	3	0
10	3	0	10000	3	1	0	3	0
11	4	0	10000	3	1	0	3	0
11	5	0	10000	3	1	0	3	0
10	6	0	10000	3	1	0	3	0
10	7	0	10000	3	1	0	3	0
11	8	0	10000	3	1	0	3	0
11	9	0	10000	3	1	0	3	0
11	10	0	10000	3	1	0	3	0
13	11	0	10000	3	1	0	3	0
14	12	0	10000	3	1	0	3	0
13	13	0	10000	3	1	0	3	0
11	14	0	10000	3	1	0	3	0
11	15	0	10000	3	1	0	3	0
11	16	0	10000	3	1	0	3	0
10	17	0	10000	3	1	0	3	0
10	18	0	10000	3	1	0	3	0
10	19	0	10000	3	1	0	3	0
10	20	0	10000	3	1	0	3	0
9	21	0	10000	3	1	0	3	0
9	22	0	10000	3	1	0	3	0
9	23	0	10000	3	1	0	3	0
11	24	0	10000	3	1	0	3	0
11	25	0	10000	3	1	0	3	0
12	26	0	10000	3	1	0	3	0
11	27	0	10000	3	1	0	3	0
10	28	0	10000	3	1	0	3	0
12	29	0	10000	3	1	0	3	0
12	30	0	10000	3	1	0	3	0
13	31	0	10000	3	1	0	3	0
13	32	0	10000	3	1	0	3	0
12	33	0	10000	3	1	0	3	0
10	34	0	10000	3	1	0	3	0
11	35	0	10000	3	1	0	3	0
11	36	0	10000	3	1	0	3	0
10	37	0	10000	3	1	0	3	0
11	38	0	10000	3	1	0	3	0
10	39	0	10000	3	1	0	3	0
10	40	0	10000	3	1	0	3	0
9	41	0	10000	3	1	0	3	0
8	42	0	10000	3	1	0	3	0
9	43	0	10000	3	1	0	3	0
11	44	0	10000	3	1	0	3	0
10	45	0	10000	3	1	0	3	0
10	46	0	10000	3	1	0	3	0
9	47	0	10000	3	1	0	3	0
9	48	0	10000	3	1	0	3	0
10	49	0	10000	3	1	0	3	0
9	50	0	10000	3	1	0	3	0
12	51	0	10000	3	1	0	3	0
14	52	0	10000	3	1	0	3	0
13	53	0	10000	3	1	0	3	0
11	54	0	10000	3	1	0	3	0
12	55	0	10000	3	1	0	3	0
11	56	0	10000	3	1	0	3	0
11	57	0	10000	3	1	0	3	0
11	58	0	10000	3	1	0	3	0
12	59	0	10000	3	1	0	3	0
13	60	0	10000	3	1	0	3	0
13	61	0	10000	3	1	0	3	0
13	62	0	10000	3	1	0	3	0
13	63	0	10000	3	1	0	3	0
15	64	0	10000	3	1	0	3	0
14	65	0	10000	3	1	0	3	0
14	66	0	10000	3	1	0	3	0
14	67	0	10000	3	1	0	3	0
13	68	0	10000	3	1	0	3	0
12	69	0	10000	3	1	0	3	0
11	70	0	10000	3	1	0	3	0
12	71	0	10000	3	1	0	3	0
12	72	0	10000	3	1	0	3	0
11	73	0	10000	3	1	0	3	0
9	74	0	10000	3	1	0	3	0
10	75	0	10000	3	1	0	3	0
9	76	0	10000	3	1	0	3	0
9	77	0	10000	3	1	0	3	0
10	78	0	10000	3	1	0	3	0
10	79	0	10000	3	1	0	3	0
11	80	0	10000	3	1	0	3	0
11	81	0	10000	3	1	0	3	0
10	82	0	10000	3	1	0	3	0
9	83	0	10000	3	1	0	3	0
12	84	0	10000	3	1	0	3	0
12	85	0	10000	3	1	0	3	0
12	86	0	10000	3	1	0	3	0
11	87	0	10000	3	1	0	3	0
11	88	0	10000	3	1	0	3	0
11	89	0	10000	3	1	0	3	0
12	90	0	10000	3	1	0	3	0
13	91	0	10000	3	1	0	3	0
13	92	0	10000	3	1	0	3	0
13	93	0	10000	3	1	0	3	0
11	94	0	10000	3	1	0	3	0
12	95	0	10000	3	1	0	3	0
12	96	0	10000	3	1	0	3	0
12	97	0	10000	3	1	0	3	0
12	98	0	10000	3	1	0	3	0
12	99	0	10000	3	1	0	3	0
13	100	0	10000	3	1	0	3	0
12	101	0	10000	3	1	0	3	0
12	102	0	10000	3	1	0	3	0
12	103	0	10000	3	1	0	3	0
16	104	0	10000	3	1	0	3	0
15	105	0	10000	3	1	0	3	0
14	106	0	10000	3	1	0	3	0
14	107	0	10000	3	1	0	3	0
13	108	0	10000	3	1	0	3	0
13	109	0	10000	3	1	0	3	0
12	110	0	10000	3	1	0	3	0
13	111	0	10000	3	1	0	3	0
14	112	0	10000	3	1	0	3	0
12	113	0	10000	3	1	0	3	0
10	114	0	10000	3	1	0	3	0
11	115	0	10000	3	1	0	3	0
13	116	0	10000	3	1	0	3	0
14	117	0	10000	3	1	0	3	0
15	118	0	10000	3	1	0	3	0
14	119	0	10000	3	1	0	3	0
14	120	0	10000	3	1	0	3	0
13	121	0	10000	3	1	0	3	0
13	122	0	10000	3	1	0	3	0
14	123	0	10000	3	1	0	3	0
18	124	0	10000	3	1	0	3	0
20	125	0	10000	3	1	0	3	0
20	126	0	10000	3	1	0	3	0
20	127	0	10000	3	1	0	3	0
19	128	0	10000	3	1	0	3	0
19	129	0	10000	3	1	0	3	0
19	130	0	10000	3	1	0	3	0
18	131	0	10000	3	1	0	3	0
17	132	0	10000	3	1	0	3	0
18	133	0	10000	3	1	0	3	0
14	134	0	10000	3	1	0	3	0
14	135	0	10000	3	1	0	3	0
14	136	0	10000	3	1	0	3	0
14	137	0	10000	3	1	0	3	0
14	138	0	10000	3	1	0	3	0
14	139	0	10000	3	1	0	3	0
15	140	0	10000	3	1	0	3	0
14	141	0	10000	3	1	0	3	0
14	142	0	10000	3	1	0	3	0
13	143	0	10000	3	1	0	3	0
15	144	0	10000	3	1	0	3	0
14	145	0	10000	3	1	0	3	0
14	146	0	10000	3	1	0	3	0
13	147	0	10000	3	1	0	3	0
12	148	0	10000	3	1	0	3	0
12	149	0	10000	3	1	0	3	0
11	150	0	10000	3	1	0	3	0
12	151	0	10000	3	1	0	3	0
12	152	0	10000	3	1	0	3	0
13	153	0	10000	3	1	0	3	0
11	154	0	10000	3	1	0	3	0
12	155	0	10000	3	1	0	3	0
13	156	0	10000	3	1	0	3	0
12	157	0	10000	3	1	0	3	0
11	158	0	10000	3	1	0	3	0
11	159	0	10000	3	1	0	3	0
12	160	0	10000	3	1	0	3	0
11	161	0	10000	3	1	0	3	0
10	162	0	10000	3	1	0	3	0
10	163	0	10000	3	1	0	3	0
13	164	0	10000	3	1	0	3	0
14	165	0	10000	3	1	0	3	0
17	166	0	10000	3	1	0	3	0
18	167	0	10000	3	1	0	3	0
20	168	0	10000	3	1	0	3	0
20	169	0	10000	3	1	0	3	0
20	170	0	10000	3	1	0	3	0
21	171	0	10000	3	1	0	3	0
21	172	0	10000	3	1	0	3	0
21	173	0	10000	3	1	0	3	0
18	174	0	10000	3	1	0	3	0
19	175	0	10000	3	1	0	3	0
19	176	0	10000	3	1	0	3	0
18	177	0	10000	3	1	0	3	0
19	178	0	10000	3	1	0	3	0
20	179	0	10000	3	1	0	3	0
23	180	0	10000	3	1	0	3	0
25	181	0	10000	3	1	0	3	0
27	182	0	10000	3	1	0	3	0
29	183	0	10000	3	1	0	3	0
32	184	0	10000	3	1	0	3	0
35	185	0	10000	3	1	0	3	0
36	186	0	10000	3	1	0	3	0
38	187	0	10000	3	1	0	3	0
39	188	0	10000	3	1	0	3	0
40	189	0	10000	3	1	0	3	0
39	190	0	10000	3	1	0	3	0
40	191	0	10000	3	1	0	3	0
40	192	0	10000	3	1	0	3	0
41	193	0	10000	3	1	0	3	0
41	194	0	10000	3	1	0	3	0
43	195	0	10000	3	1	0	3	0
45	196	0	10000	3	1	0	3	0
48	197	0	10000	3	1	0	3	0
49	198	0	10000	3	1	0	3	0
48	199	0	10000	3	1	0	3	0
47	200	0	10000	3	1	0	3	0
45	201	0	10000	3	1	0	3	0
44	202	0	10000	3	1	0	3	0
42	203	0	10000	3	1	0	3	0
43	204	0	10000	3	1	0	3	0
41	205	0	10000	3	1	0	3	0
40	206	0	10000	3	1	0	3	0
39	207	0	10000	3	1	0	3	0
39	208	0	10000	3	1	0	3	0
38	209	0	10000	3	1	0	3	0
36	210	0	10000	3	1	0	3	0
38	211	0	10000	3	1	0	3	0
37	212	0	10000	3	1	0	3	0
37	213	0	10000	3	1	0	3	0
35	214	0	10000	3	1	0	3	0
35	215	0	10000	3	1	0	3	0
36	216	0	10000	3	1	0	3	0
36	217	0	10000	3	1	0	3	0
36	218	0	10000	3	1	0	3	0
36	219	0	10000	3	1	0	3	0
37	220	0	10000	3	1	0	3	0
36	221	0	10000	3	1	0	3	0
36	222	0	10000	3	1	0	3	0
37	223	0	10000	3	1	0	3	0
40	224	0	10000	3	1	0	3	0
41	225	0	10000	3	1	0	3	0
41	226	0	10000	3	1	0	3	0
43	227	0	10000	3	1	0	3	0
44	228	0	10000	3	1	0	3	0
44	229	0	10000	3	1	0	3	0
44	230	0	10000	3	1	0	3	0
45	231	0	10000	3	1	0	3	0
45	232	0	10000	3	1	0	3	0
45	233	0	10000	3	1	0	3	0
44	234	0	10000	3	1	0	3	0
42	235	0	10000	3	1	0	3	0
42	236	0	10000	3	1	0	3	0
43	237	0	10000	3	1	0	3	0
43	238	0	10000	3	1	0	3	0
43	239	0	10000	3	1	0	3	0
43	240	0	10000	3	1	0	3	0
41	241	0	10000	3	1	0	3	0
40	242	0	10000	3	1	0	3	0
40	243	0	10000	3	1	0	3	0
42	244	0	10000	3	1	0	3	0
41	245	0	10000	3	1	0	3	0
39	246	0	10000	3	1	0	3	0
39	247	0	10000	3	1	0	3	0
38	248	0	10000	3	1	0	3	0
38	249	0	10000	3	1	0	3	0
37	250	0	10000	3	1	0	3	0
36	251	0	10000	3	1	0	3	0
36	252	0	10000	3	1	0	3	0
35	253	0	10000	3	1	0	3	0
31	254	0	10000	3	1	0	3	0
31	255	0	10000	3	1	0	3	0
29	256	0	10000	3	1	0	3	0
30	257	0	10000	3	1	0	3	0
29	258	0	10000	3	1	0	3	0
28	259	0	10000	3	1	0	3	0
28	260	0	10000	3	1	0	3	0
26	261	0	10000	3	1	0	3	0
25	262	0	10000	3	1	0	3	0
25	263	0	10000	3	1	0	3	0
26	264	0	10000	3	1	0	3	0
25	265	0	10000	3	1	0	3	0
24	266	0	10000	3	1	0	3	0
22	267	0	10000	3	1	0	3	0
21	268	0	10000	3	1	0	3	0
21	269	0	10000	3	1	0	3	0
20	270	0	10000	3	1	0	3	0
20	271	0	10000	3	1	0	3	0
20	272	0	10000	3	1	0	3	0
20	273	0	10000	3	1	0	3	0
17	274	0	10000	3	1	0	3	0
17	275	0	10000	3	1	0	3	0
16	276	0	10000	3	1	0	3	0
16	277	0	10000	3	1	0	3	0
16	278	0	10000	3	1	0	3	0
15	279	0	10000	3	1	0	3	0
15	280	0	10000	3	1	0	3	0
14	281	0	10000	3	1	0	3	0
14	282	0	10000	3	1	0	3	0
14	283	0	10000	3	1	0	3	0
16	284	0	10000	3	1	0	3	0
14	285	0	10000	3	1	0	3	0
14	286	0	10000	3	1	0	3	0
13	287	0	10000	3	1	0	3	0
12	288	0	10000	3	1	0	3	0
13	289	0	10000	3	1	0	3	0
14	290	0	10000	3	1	0	3	0
16	291	0	10000	3	1	0	3	0
18	292	0	10000	3	1	0	3	0
18	293	0	10000	3	1	0	3	0
15	294	0	10000	3	1	0	3	0
16	295	0	10000	3	1	0	3	0
15	296	0	10000	3	1	0	3	0
15	297	0	10000	3	1	0	3	0
15	298	0	10000	3	1	0	3	0
15	299	0	10000	3	1	0	3	0
15	300	0	10000	3	1	0	3	0
14	301	0	10000	3	1	0	3	0
13	302	0	10000	3	1	0	3	0
13	303	0	10000	3	1	0	3	0
15	304	0	10000	3	1	0	3	0
14	305	0	10000	3	1	0	3	0
14	306	0	10000	3	1	0	3	0
13	307	0	10000	3	1	0	3	0
13	308	0	10000	3	1	0	3	0
14	309	0	10000	3	1	0	3	0
12	310	0	10000	3	1	0	3	0
13	311	0	10000	3	1	0	3	0
13	312	0	10000	3	1	0	3	0
13	313	0	10000	3	1	0	3	0
10	314	0	10000	3	1	0	3	0
10	315	0	10000	3	1	0	3	0
10	316	0	10000	3	1	0	3	0
10	317	0	10000	3	1	0	3	0
9	318	0	10000	3	1	0	3	0
9	319	0	10000	3	1	0	3	0
9	320	0	10000	3	1	0	3	0
9	321	0	10000	3	1	0	3	0
8	322	0	10000	3	1	0	3	0
9	323	0	10000	3	1	0	3	0
12	324	0	10000	3	1	0	3	0
12	325	0	10000	3	1	0	3	0
11	326	0	10000	3	1	0	3	0
10	327	0	10000	3	1	0	3	0
11	328	0	10000	3	1	0	3	0
12	329	0	10000	3	1	0	3	0
12	330	0	10000	3	1	0	3	0
12	331	0	10000	3	1	0	3	0
13	332	0	10000	3	1	0	3	0
13	333	0	10000	3	1	0	3	0
11	334	0	10000	3	1	0	3	0
13	335	0	10000	3	1	0	3	0
14	336	0	10000	3	1	0	3	0
14	337	0	10000	3	1	0	3	0
14	338	0	10000	3	1	0	3	0
13	339	0	10000	3	1	0	3	0
13	340	0	10000	3	1	0	3	0
12	341	0	10000	3	1	0	3	0
11	342	0	10000	3	1	0	3	0
11	343	0	10000	3	1	0	3	0
12	344	0	10000	3	1	0	3	0
12	345	0	10000	3	1	0	3	0
11	346	0	10000	3	1	0	3	0
12	347	0	10000	3	1	0	3	0
12	348	0	10000	3	1	0	3	0
12	349	0	10000	3	1	0	3	0
12	350	0	10000	3	1	0	3	0
12	351	0	10000	3	1	0	3	0
12	352	0	10000	3	1	0	3	0
12	353	0	10000	3	1	0	3	0
9	354	0	10000	3	1	0	3	0
11	355	0	10000	3	1	0	3	0
12	356	0	10000	3	1	0	3	0
13	357	0	10000	3	1	0	3	0
14	358	0	10000	3	1	0	3	0
16	359	0	10000	3	1	0	3	0
16	360	0	10000	3	1	0	3	0
15	361	0	10000	3	1	0	3	0
14	362	0	10000	3	1	0	3	0
14	363	0	10000	3	1	0	3	0
17	364	0	10000	3	1	0	3	0
15	365	0	10000	3	1	0	3	0
15	366	0	10000	3	1	0	3	0
15	367	0	10000	3	1	0	3	0
14	368	0	10000	3	1	0	3	0
13	369	0	10000	3	1	0	3	0
13	370	0	10000	3	1	0	3	0
13	371	0	10000	3	1	0	3	0
13	372	0	10000	3	1	0	3	0
15	373	0	10000	3	1	0	3	0
12	374	0	10000	3	1	0	3	0
13	375	0	10000	3	1	0	3	0
13	376	0	10000	3	1	0	3	0
14	377	0	10000	3	1	0	3	0
14	378	0	10000	3	1	0	3	0
14	379	0	10000	3	1	0	3	0
14	380	0	10000	3	1	0	3	0
13	381	0	10000	3	1	0	3	0
13	382	0	10000	3	1	0	3	0
11	383	0	10000	3	1	0	3	0
14	384	0	10000	3	1	0	3	0
13	385	0	10000	3	1	0	3	0
12	386	0	10000	3	1	0	3	0
12	387	0	10000	3	1	0	3	0
11	388	0	10000	3	1	0	3	0
11	389	0	10000	3	1	0	3	0
11	390	0	10000	3	1	0	3	0
11	391	0	10000	3	1	0	3	0
11	392	0	10000	3	1	0	3	0
11	393	0	10000	3	1	0	3	0
8	394	0	10000	3	1	0	3	0
8	395	0	10000	3	1	0	3	0
9	396	0	10000	3	1	0	3	0
8	397	0	10000	3	1	0	3	0
9	398	0	10000	3	1	0	3	0
11	399	0	10000	3	1	0	3	0
12	400	0	10000	3	1	0	3	0
12	401	0	10000	3	1	0	3	0
12	402	0	10000	3	1	0	3	0
11	403	0	10000	3	1	0	3	0
13	404	0	10000	3	1	0	3	0
13	405	0	10000	3	1	0	3	0
14	406	0	10000	3	1	0	3	0
13	407	0	10000	3	1	0	3	0
13	408	0	10000	3	1	0	3	0
12	409	0	10000	3	1	0	3	0
12	410	0	10000	3	1	0	3	0
13	411	0	10000	3	1	0	3	0
15	412	0	10000	3	1	0	3	0
17	413	0	10000	3	1	0	3	0
13	414	0	10000	3	1	0	3	0
13	415	0	10000	3	1	0	3	0
14	416	0	10000	3	1	0	3	0
13	417	0	10000	3	1	0	3	0
12	418	0	10000	3	1	0	3	0
13	419	0	10000	3	1	0	3	0
13	420	0	10000	3	1	0	3	0
12	421	0	10000	3	1	0	3	0
12	422	0	10000	3	1	0	3	0
11	423	0	10000	3	1	0	3	0
13	424	0	10000	3	1	0	3	0
12	425	0	10000	3	1	0	3	0
12	426	0	10000	3	1	0	3	0
11	427	0	10000	3	1	0	3	0
11	428	0	10000	3	1	0	3	0
11	429	0	10000	3	1	0	3	0
11	430	0	10000	3	1	0	3	0
12	431	0	10000	3	1	0	3	0
12	432	0	10000	3	1	0	3	0
12	433	0	10000	3	1	0	3	0
10	434	0	10000	3	1	0	3	0
10	435	0	10000	3	1	0	3	0
12	436	0	10000	3	1	0	3	0
13	437	0	10000	3	1	0	3	0
13	438	0	10000	3	1	0	3	0
14	439	0	10000	3	1	0	3	0
15	440	0	10000	3	1	0	3	0
17	441	0	10000	3	1	0	3	0
22	442	0	10000	3	1	0	3	0
24	443	0	10000	3	1	0	3	0
28	444	0	10000	3	1	0	3	0
29	445	0	10000	3	1	0	3	0
27	446	0	10000	3	1	0	3	0
27	447	0	10000	3	1	0	3	0
27	448	0	10000	3	1	0	3	0
27	449	0	10000	3	1	0	3	0
26	450	0	10000	3	1	0	3	0
28	451	0	10000	3	1	0	3	0
28	452	0	10000	3	1	0	3	0
30	453	0	10000	3	1	0	3	0
32	454	0	10000	3	1	0	3	0
35	455	0	10000	3	1	0	3	0
39	456	0	10000	3	1	0	3	0
42	457	0	10000	3	1	0	3	0
43	458	0	10000	3	1	0	3	0
42	459	0	10000	3	1	0	3	0
41	460	0	10000	3	1	0	3	0
40	461	0	10000	3	1	0	3	0
38	462	0	10000	3	1	0	3	0
37	463	0	10000	3	1	0	3	0
38	464	0	10000	3	1	0	3	0
39	465	0	10000	3	1	0	3	0
38	466	0	10000	3	1	0	3	0
37	467	0	10000	3	1	0	3	0
37	468	0	10000	3	1	0	3	0
35	469	0	10000	3	1	0	3	0
33	470	0	10000	3	1	0	3	0
32	471	0	10000	3	1	0	3	0
32	472	0	10000	3	1	0	3	0
32	473	0	10000	3	1	0	3	0
29	474	0	10000	3	1	0	3	0
28	475	0	10000	3	1	0	3	0
28	476	0	10000	3	1	0	3	0
29	477	0	10000	3	1	0	3	0
29	478	0	10000	3	1	0	3	0
29	479	0	10000	3	1	0	3	0
31	480	0	10000	3	1	0	3	0
29	481	0	10000	3	1	0	3	0
28	482	0	10000	3	1	0	3	0
27	483	0	10000	3	1	0	3	0
28	484	0	10000	3	1	0	3	0
26	485	0	10000	3	1	0	3	0
26	486	0	10000	3	1	0	3	0
25	487	0	10000	3	1	0	3	0
25	488	0	10000	3	1	0	3	0
24	489	0	10000	3	1	0	3	0
23	490	0	10000	3	1	0	3	0
25	491	0	10000	3	1	0	3	0
24	492	0	10000	3	1	0	3	0
23	493	0	10000	3	1	0	3	0
21	494	0	10000	3	1	0	3	0
20	495	0	10000	3	1	0	3	0
19	496	0	10000	3	1	0	3	0
19	497	0	10000	3	1	0	3	0
19	498	0	10000	3	1	0	3	0
19	499	0	10000	3	1	0	3	0
19	500	0	10000	3	1	0	3	0
19	501	0	10000	3	1	0	3	1
19	502	0	10000	3	1	0	3	1
19	503	0	10000	3	1	0	3	1
21	504	0	10000	3	1	0	3	1
21	505	0	10000	3	1	0	3	1
21	506	0	10000	3	1	0	3	1
19	507	0	10000	3	1	0	3	1
19	508	0	10000	3	1	0	3	1
18	509	0	10000	3	1	0	3	1
17	510	0	10000	3	1	0	3	1
17	511	0	10000	3	1	0	3	1
17	512	0	10000	3	1	0	3	1
17	513	0	10000	3	1	0	3	1
14	514	0	10000	3	1	0	3	1
14	515	0	10000	3	1	0	3	1
14	516	0	10000	3	1	0	3	1
15	517	0	10000	3	1	0	3	1
14	518	0	10000	3	1	0	3	1
14	519	0	10000	3	1	0	3	1
14	520	0	10000	3	1	0	3	1
13	521	0	10000	3	1	0	3	1
13	522	0	10000	3	1	0	3	1
12	523	0	10000	3	1	0	3	1
14	524	0	10000	3	1	0	3	1
14	525	0	10000	3	1	0	3	1
14	526	0	10000	3	1	0	3	1
14	527	0	10000	3	1	0	3	1
14	528	0	10000	3	1	0	3	1
13	529	0	10000	3	1	0	3	1
12	530	0	10000	3	1	0	3	1
13	531	0	10000	3	1	0	3	1
13	532	0	10000	3	1	0	3	1
13	533	0	10000	3	1	0	3	1
12	534	0	10000	3	1	0	3	1
13	535	0	10000	3	1	0	3	1
13	536	0	10000	3	1	0	3	1
14	537	0	10000	3	1	0	3	1
13	538	0	10000	3	1	0	3	1
12	539	0	10000	3	1	0	3	1
13	540	0	10000	3	1	0	3	1
11	541	0	10000	3	1	0	3	1
10	542	0	10000	3	1	0	3	1
11	543	0	10000	3	1	0	3	1
13	544	0	10000	3	1	0	3	1
12	545	0	10000	3	1	0	3	1
12	546	0	10000	3	1	0	3	1
11	547	0	10000	3	1	0	3	1
10	548	0	10000	3	1	0	3	1
11	549	0	10000	3	1	0	3	1
11	550	0	10000	3	1	0	3	1
11	551	0	10000	3	1	0	3	0
11	552	0	10000	3	1	0	3	0
11	553	0	10000	3	1	0	3	0
10	554	0	10000	3	1	0	3	0
11	555	0	10000	3	1	0	3	0
11	556	0	10000	3	1	0	3	0
11	557	0	10000	3	1	0	3	0
11	558	0	10000	3	1	0	3	0
11	559	0	10000	3	1	0	3	0
11	560	0	10000	3	1	0	3	0
11	561	0	10000	3	1	0	3	0
11	562	0	10000	3	1	0	3	0
10	563	0	10000	3	1	0	3	0
11	564	0	10000	3	1	0	3	0
11	565	0	10000	3	1	0	3	0
11	566	0	10000	3	1	0	3	0
10	567	0	10000	3	1	0	3	0
10	568	0	10000	3	1	0	3	0
11	569	0	10000	3	1	0	3	0
10	570	0	10000	3	1	0	3	0
11	571	0	10000	3	1	0	3	0
12	572	0	10000	3	1	0	3	0
13	573	0	10000	3	1	0	3	0
11	574	0	10000	3	1	0	3	0
11	575	0	10000	3	1	0	3	0
11	576	0	10000	3	1	0	3	0
12	577	0	10000	3	1	0	3	0
11	578	0	10000	3	1	0	3	0
11	579	0	10000	3	1	0	3	0
11	580	0	10000	3	1	0	3	0
11	581	0	10000	3	1	0	3	0
10	582	0	10000	3	1	0	3	0
10	583	0	10000	3	1	0	3	0
12	584	0	10000	3	1	0	3	0
15	585	0	10000	3	1	0	3	0
24	586	0	10000	3	1	0	3	0
31	587	0	10000	3	1	0	3	0
35	588	0	10000	3	1	0	3	0
38	589	0	10000	3	1	0	3	0
44	590	0	10000	3	1	0	3	0
52	591	0	10000	3	1	0	3	0
66	592	0	10000	3	1	0	3	0
70	593	0	10000	3	1	0	3	0
74	594	0	10000	3	1	0	3	0
78	595	0	10000	3	1	0	3	0
79	596	0	10000	3	1	0	3	0
100	597	0	10000	3	1	0	3	0
136	598	0	10000	3	1	0	3	0
156	599	0	10000	3	1	0	3	0
158	600	0	10000	3	1	0	3	0
189	601	0	10000	3	1	0	3	0
243	602	0	10000	3	1	0	3	0
290	603	0	10000	3	1	0	3	0
312	604	0	10000	3	1	0	3	0
375	605	0	10000	3	1	0	3	0
407	606	0	10000	3	1	0	3	0
401	607	0	10000	3	1	0	3	0
420	608	0	10000	3	1	0	3	0
444	609	0	10000	3	1	0	3	0
474	610	0	10000	3	1	0	3	0
506	611	0	10000	3	1	0	3	0
525	612	0	10000	3	1	0	3	0
524	613	0	10000	3	1	0	3	0
512	614	0	10000	3	1	0	3	0
519	615	0	10000	3	1	0	3	0
545	616	0	10000	3	1	0	3	0
562	617	0	10000	3	1	0	3	0
545	618	0	10000	3	1	0	3	0
538	619	0	10000	3	1	0	3	0
536	620	0	10000	3	1	0	3	0
531	621	0	10000	3	1	0	3	0
522	622	0	10000	3	1	0	3	0
503	623	0	10000	3	1	0	3	0
495	624	0	10000	3	1	0	3	0
484	625	0	10000	3	1	0	3	0
467	626	0	10000	3	1	0	3	0
449	627	0	10000	3	1	0	3	0
430	628	0	10000	3	1	0	3	0
413	629	0	10000	3	1	0	3	0
396	630	0	10000	3	1	0	3	0
383	631	0	10000	3	1	0	3	0
372	632	0	10000	3	1	0	3	0
361	633	0	10000	3	1	0	3	0
349	634	0	10000	3	1	0	3	0
339	635	0	10000	3	1	0	3	0
329	636	0	10000	3	1	0	3	0
319	637	0	10000	3	1	0	3	0
309	638	0	10000	3	1	0	3	0
299	639	0	10000	3	1	0	3	0
289	640	0	10000	3	1	0	3	0
277	641	0	10000	3	1	0	3	0
264	642	0	10000	3	1	0	3	0
251	643	0	10000	3	1	0	3	0
243	644	0	10000	3	1	0	3	0
231	645	0	10000	3	1	0	3	0
221	646	0	10000	3	1	0	3	0
211	647	0	10000	3	1	0	3	0
201	648	0	10000	3	1	0	3	0
193	649	0	10000	3	1	0	3	0
185	650	0	10000	3	1	0	3	0
180	651	0	10000	3	1	0	3	0
176	652	0	10000	3	1	0	3	0
172	653	0	10000	3	1	0	3	0
167	654	0	10000	3	1	0	3	0
165	655	0	10000	3	1	0	3	0
165	656	0	10000	3	1	0	3	0
163	657	0	10000	3	1	0	3	0
162	658	0	10000	3	1	0	3	0
162	659	0	10000	3	1	0	3	0
162	660	0	10000	3	1	0	3	0
160	661	0	10000	3	1	0	3	0
158	662	0	10000	3	1	0	3	0
155	663	0	10000	3	1	0	3	0
155	664	0	10000	3	1	0	3	0
152	665	0	10000	3	1	0	3	0
148	666	0	10000	3	1	0	3	0
146	667	0	10000	3	1	0	3	0
143	668	0	10000	3	1	0	3	0
141	669	0	10000	3	1	0	3	0
139	670	0	10000	3	1	0	3	0
137	671	0	10000	3	1	0	3	0
135	672	0	10000	3	1	0	3	0
133	673	0	10000	3	1	0	3	0
128	674	0	10000	3	1	0	3	0
124	675	0	10000	3	1	0	3	0
120	676	0	10000	3	1	0	3	0
118	677	0	10000	3	1	0	3	0
115	678	0	10000	3	1	0	3	0
112	679	0	10000	3	1	0	3	0
108	680	0	10000	3	1	0	3	0
105	681	0	10000	3	1	0	3	0
100	682	0	10000	3	1	0	3	0
96	683	0	10000	3	1	0	3	0
95	684	0	10000	3	1	0	3	0
91	685	0	10000	3	1	0	3	0
86	686	0	10000	3	1	0	3	0
83	687	0	10000	3	1	0	3	0
81	688	0	10000	3	1	0	3	0
78	689	0	10000	3	1	0	3	0
76	690	0	10000	3	1	0	3	0
74	691	0	10000	3	1	0	3	0
72	692	0	10000	3	1	0	3	0
70	693	0	10000	3	1	0	3	0
66	694	0	10000	3	1	0	3	0
64	695	0	10000	3	1	0	3	0
63	696	0	10000	3	1	0	3	0
59	697	0	10000	3	1	0	3	0
57	698	0	10000	3	1	0	3	0
57	699	0	10000	3	1	0	3	0
56	700	0	10000	3	1	0	3	0
55	701	0	10000	3	1	0	3	0
56	702	0	10000	3	1	0	3	0
55	703	0	10000	3	1	0	3	0
57	704	0	10000	3	1	0	3	0
55	705	0	10000	3	1	0	3	0
53	706	0	10000	3	1	0	3	0
53	707	0	10000	3	1	0	3	0
53	708	0	10000	3	1	0	3	0
54	709	0	10000	3	1	0	3	0
55	710	0	10000	3	1	0	3	0
56	711	0	10000	3	1	0	3	0
57	712	0	10000	3	1	0	3	0
57	713	0	10000	3	1	0	3	0
54	714	0	10000	3	1	0	3	0
53	715	0	10000	3	1	0	3	0
51	716	0	10000	3	1	0	3	0
49	717	0	10000	3	1	0	3	0
47	718	0	10000	3	1	0	3	0
46	719	0	10000	3	1	0	3	0
45	720	0	10000	3	1	0	3	0
45	721	0	10000	3	1	0	3	0
46	722	0	10000	3	1	0	3	0
46	723	0	10000	3	1	0	3	0
49	724	0	10000	3	1	0	3	0
50	725	0	10000	3	1	0	3	0
50	726	0	10000	3	1	0	3	0
50	727	0	10000	3	1	0	3	0
48	728	0	10000	3	1	0	3	0
47	729	0	10000	3	1	0	3	0
46	730	0	10000	3	1	0	3	0
44	731	0	10000	3	1	0	3	0
43	732	0	10000	3	1	0	3	0
42	733	0	10000	3	1	0	3	0
39	734	0	10000	3	1	0	3	0
38	735	0	10000	3	1	0	3	0
37	736	0	10000	3	1	0	3	0
37	737	0	10000	3	1	0	3	0
36	738	0	10000	3	1	0	3	0
36	739	0	10000	3	1	0	3	0
34	740	0	10000	3	1	0	3	0
34	741	0	10000	3	1	0	3	0
33	742	0	10000	3	1	0	3	0
33	743	0	10000	3	1	0	3	0
34	744	0	10000	3	1	0	3	0
34	745	0	10000	3	1	0	3	0
33	746	0	10000	3	1	0	3	0
32	747	0	10000	3	1	0	3	0
33	748	0	10000	3	1	0	3	0
31	749	0	10000	3	1	0	3	0
30	750	0	10000	3	1	0	3	0
31	751	0	10000	3	1	0	3	0
31	752	0	10000	3	1	0	3	0
31	753	0	10000	3	1	0	3	0
30	754	0	10000	3	1	0	3	0
29	755	0	10000	3	1	0	3	0
28	756	0	10000	3	1	0	3	0
27	757	0	10000	3	1	0	3	0
26	758	0	10000	3	1	0	3	0
25	759	0	10000	3	1	0	3	0
25	760	0	10000	3	1	0	3	0
23	761	0	10000	3	1	0	3	0
21	762	0	10000	3	1	0	3	0
20	763	0	10000	3	1	0	3	0
22	764	0	10000	3	1	0	3	0
21	765	0	10000	3	1	0	3	0
20	766	0	10000	3	1	0	3	0
20	767	0	10000	3	1	0	3	0
20	768	0	10000	3	1	0	3	0
20	769	0	10000	3	1	0	3	0
19	770	0	10000	3	1	0	3	0
20	771	0	10000	3	1	0	3	0
19	772	0	10000	3	1	0	3	0
19	773	0	10000	3	1	0	3	0
18	774	0	10000	3	1	0	3	0
18	775	0	10000	3	1	0	3	0
17	776	0	10000	3	1	0	3	0
17	777	0	10000	3	1	0	3	0
17	778	0	10000	3	1	0	3	0
18	779	0	10000	3	1	0	3	0
18	780	0	10000	3	1	0	3	0
18	781	0	10000	3	1	0	3	0
16	782	0	10000	3	1	0	3	0
16	783	0	10000	3	1	0	3	0
17	784	0	10000	3	1	0	3	0
17	785	0	10000	3	1	0	3	0
17	786	0	10000	3	1	0	3	0
17	787	0	10000	3	1	0	3	0
16	788	0	10000	3	1	0	3	0
16	789	0	10000	3	1	0	3	0
16	790	0	10000	3	1	0	3	0
17	791	0	10000	3	1	0	3	0
16	792	0	10000	3	1	0	3	0
17	793	0	10000	3	1	0	3	0
14	794	0	10000	3	1	0	3	0
14	795	0	10000	3	1	0	3	0
14	796	0	10000	3	1	0	3	0
16	797	0	10000	3	1	0	3	0
15	798	0	10000	3	1	0	3	0
15	799	0	10000	3	1	0	3	0
16	800	0	10000	3	1	0	3	0
14	801	0	10000	3	1	0	3	0
14	802	0	10000	3	1	0	3	0
13	803	0	10000	3	1	0	3	0
15	804	0	10000	3	1	0	3	0
15	805	0	10000	3	1	0	3	0
15	806	0	10000	3	1	0	3	0
15	807	0	10000	3	1	0	3	0
15	808	0	10000	3	1	0	3	0
15	809	0	10000	3	1	0	3	0
13	810	0	10000	3	1	0	3	0
14	811	0	10000	3	1	0	3	0
14	812	0	10000	3	1	0	3	0
14	813	0	10000	3	1	0	3	0
11	814	0	10000	3	1	0	3	0
12	815	0	10000	3	1	0	3	0
12	816	0	10000	3	1	0	3	0
12	817	0	10000	3	1	0	3	0
11	818	0	10000	3	1	0	3	0
12	819	0	10000	3	1	0	3	0
12	820	0	10000	3	1	0	3	0
11	821	0	10000	3	1	0	3	0
10	822	0	10000	3	1	0	3	0
11	823	0	10000	3	1	0	3	0
12	824	0	10000	3	1	0	3	0
12	825	0	10000	3	1	0	3	0
12	826	0	10000	3	1	0	3	0
11	827	0	10000	3	1	0	3	0
11	828	0	10000	3	1	0	3	0
11	829	0	10000	3	1	0	3	0
11	830	0	10000	3	1	0	3	0
12	831	0	10000	3	1	0	3	0
12	832	0	10000	3	1	0	3	0
12	833	0	10000	3	1	0	3	0
10	834	0	10000	3	1	0	3	0
10	835	0	10000	3	1	0	3	0
10	836	0	10000	3	1	0	3	0
10	837	0	10000	3	1	0	3	0
10	838	0	10000	3	1	0	3	0
10	839	0	10000	3	1	0	3	0
10	840	0	10000	3	1	0	3	0
10	841	0	10000	3	1	0	3	0
9	842	0	10000	3	1	0	3	0
8	843	0	10000	3	1	0	3	0
11	844	0	10000	3	1	0	3	0
11	845	0	10000	3	1	0	3	0
11	846	0	10000	3	1	0	3	0
10	847	0	10000	3	1	0	3	0
10	848	0	10000	3	1	0	3	0
10	849	0	10000	3	1	0	3	0
9	850	0	10000	3	1	0	3	0
10	851	0	10000	3	1	0	3	0
11	852	0	10000	3	1	0	3	0
10	853	0	10000	3	1	0	3	0
8	854	0	10000	3	1	0	3	0
8	855	0	10000	3	1	0	3	0
8	856	0	10000	3	1	0	3	0
8	857	0	10000	3	1	0	3	0
9	858	0	10000	3	1	0	3	0
9	859	0	10000	3	1	0	3	0
10	860	0	10000	3	1	0	3	0
10	861	0	10000	3	1	0	3	0
9	862	0	10000	3	1	0	3	0
9	863	0	10000	3	1	0	3	0
10	864	0	10000	3	1	0	3	0
10	865	0	10000	3	1	0	3	0
10	866	0	10000	3	1	0	3	0
11	867	0	10000	3	1	0	3	0
12	868	0	10000	3	1	0	3	0
13	869	0	10000	3	1	0	3	0
12	870	0	10000	3	1	0	3	0
12	871	0	10000	3	1	0	3	0
12	872	0	10000	3	1	0	3	0
11	873	0	10000	3	1	0	3	0
9	874	0	10000	3	1	0	3	0
10	875	0	10000	3	1	0	3	0
10	876	0	10000	3	1	0	3	0
11	877	0	10000	3	1	0	3	0
12	878	0	10000	3	1	0	3	0
12	879	0	10000	3	1	0	3	0
13	880	0	10000	3	1	0	3	0
12	881	0	10000	3	1	0	3	0
11	882	0	10000	3	1	0	3	0
10	883	0	10000	3	1	0	3	0
13	884	0	10000	3	1	0	3	0
12	885	0	10000	3	1	0	3	0
12	886	0	10000	3	1	0	3	0
12	887	0	10000	3	1	0	3	0
11	888	0	10000	3	1	0	3	0
11	889	0	10000	3	1	0	3	0
11	890	0	10000	3	1	0	3	0
12	891	0	10000	3	1	0	3	0
12	892	0	10000	3	1	0	3	0
13	893	0	10000	3	1	0	3	0
11	894	0	10000	3	1	0	3	0
10	895	0	10000	3	1	0	3	0
10	896	0	10000	3	1	0	3	0
10	897	0	10000	3	1	0	3	0
11	898	0	10000	3	1	0	3	0
11	899	0	10000	3	1	0	3	0
11	900	0	10000	3	1	0	3	0
11	901	0	10000	3	1	0	3	0
10	902	0	10000	3	1	0	3	0
10	903	0	10000	3	1	0	3	0
12	904	0	10000	3	1	0	3	0
12	905	0	10000	3	1	0	3	0
11	906	0	10000	3	1	0	3	0
11	907	0	10000	3	1	0	3	0
11	908	0	10000	3	1	0	3	0
12	909	0	10000	3	1	0	3	0
12	910	0	10000	3	1	0	3	0
12	911	0	10000	3	1	0	3	0
12	912	0	10000	3	1	0	3	0
12	913	0	10000	3	1	0	3	0
9	914	0	10000	3	1	0	3	0
9	915	0	10000	3	1	0	3	0
10	916	0	10000	3	1	0	3	0
11	917	0	10000	3	1	0	3	0
11	918	0	10000	3	1	0	3	0
11	919	0	10000	3	1	0	3	0
11	920	0	10000	3	1	0	3	0
11	921	0	10000	3	1	0	3	0
11	922	0	10000	3	1	0	3	0
11	923	0	10000	3	1	0	3	0
13	924	0	10000	3	1	0	3	0
12	925	0	10000	3	1	0	3	0
12	926	0	10000	3	1	0	3	0
12	927	0	10000	3	1	0	3	0
11	928	0	10000	3	1	0	3	0
11	929	0	10000	3	1	0	3	0
10	930	0	10000	3	1	0	3	0
10	931	0	10000	3	1	0	3	0
11	932	0	10000	3	1	0	3	0
11	933	0	10000	3	1	0	3	0
9	934	0	10000	3	1	0	3	0
9	935	0	10000	3	1	0	3	0
9	936	0	10000	3	1	0	3	0
9	937	0	10000	3	1	0	3	0
10	938	0	10000	3	1	0	3	0
9	939	0	10000	3	1	0	3	0
10	940	0	10000	3	1	0	3	0
8	941	0	10000	3	1	0	3	0
8	942	0	10000	3	1	0	3	0
8	943	0	10000	3	1	0	3	0
10	944	0	10000	3	1	0	3	0
11	945	0	10000	3	1	0	3	0
11	946	0	10000	3	1	0	3	0
12	947	0	10000	3	1	0	3	0
12	948	0	10000	3	1	0	3	0
12	949	0	10000	3	1	0	3	0
12	950	0	10000	3	1	0	3	0
11	951	0	10000	3	1	0	3	0
11	952	0	10000	3	1	0	3	0
13	953	0	10000	3	1	0	3	0
10	954	0	10000	3	1	0	3	0
10	955	0	10000	3	1	0	3	0
11	956	0	10000	3	1	0	3	0
10	957	0	10000	3	1	0	3	0
10	958	0	10000	3	1	0	3	0
11	959	0	10000	3	1	0	3	0
11	960	0	10000	3	1	0	3	0
10	961	0	10000	3	1	0	3	0
10	962	0	10000	3	1	0	3	0
9	963	0	10000	3	1	0	3	0
11	964	0	10000	3	1	0	3	0
11	965	0	10000	3	1	0	3	0
10	966	0	10000	3	1	0	3	0
9	967	0	10000	3	1	0	3	0
9	968	0	10000	3	1	0	3	0
9	969	0	10000	3	1	0	3	0
9	970	0	10000	3	1	0	3	0
8	971	0	10000	3	1	0	3	0
9	972	0	10000	3	1	0	3	0
10	973	0	10000	3	1	0	3	0
8	974	0	10000	3	1	0	3	0
8	975	0	10000	3	1	0	3	0
9	976	0	10000	3	1	0	3	0
9	977	0	10000	3	1	0	3	0
9	978	0	10000	3	1	0	3	0
9	979	0	10000	3	1	0	3	0
8	980	0	10000	3	1	0	3	0
8	981	0	10000	3	1	0	3	0
8	982	0	10000	3	1	0	3	0
8	983	0	10000	3	1	0	3	0
9	984	0	10000	3	1	0	3	0
9	985	0	10000	3	1	0	3	0
9	986	0	10000	3	1	0	3	0
8	987	0	10000	3	1	0	3	0
9	988	0	10000	3	1	0	3	0
9	989	0	10000	3	1	0	3	0
9	990	0	10000	3	1	0	3	0
11	991	0	10000	3	1	0	3	0
11	992	0	10000	3	1	0	3	0
11	993	0	10000	3	1	0	3	0
10	994	0	10000	3	1	0	3	0
10	995	0	10000	3	1	0	3	0
10	996	0	10000	3	1	0	3	0
11	997	0	10000	3	1	0	3	0
10	998	0	10000	3	1	0	3	0
11	999	0	10000	3	1	0	3	0
10	1000	0	10000	3	1	0	3	0
56	1	0	10000	4	1	0	4	0
58	2	0	10000	4	1	0	4	0
59	3	0	10000	4	1	0	4	0
64	4	0	10000	4	1	0	4	0
68	5	0	10000	4	1	0	4	0
70	6	0	10000	4	1	0	4	0
70	7	0	10000	4	1	0	4	0
70	8	0	10000	4	1	0	4	0
68	9	0	10000	4	1	0	4	0
68	10	0	10000	4	1	0	4	0
69	11	0	10000	4	1	0	4	0
69	12	0	10000	4	1	0	4	0
70	13	0	10000	4	1	0	4	0
67	14	0	10000	4	1	0	4	0
64	15	0	10000	4	1	0	4	0
62	16	0	10000	4	1	0	4	0
60	17	0	10000	4	1	0	4	0
58	18	0	10000	4	1	0	4	0
59	19	0	10000	4	1	0	4	0
61	20	0	10000	4	1	0	4	0
61	21	0	10000	4	1	0	4	0
57	22	0	10000	4	1	0	4	0
56	23	0	10000	4	1	0	4	0
56	24	0	10000	4	1	0	4	0
56	25	0	10000	4	1	0	4	0
57	26	0	10000	4	1	0	4	0
55	27	0	10000	4	1	0	4	0
53	28	0	10000	4	1	0	4	0
51	29	0	10000	4	1	0	4	0
49	30	0	10000	4	1	0	4	0
46	31	0	10000	4	1	0	4	0
45	32	0	10000	4	1	0	4	0
46	33	0	10000	4	1	0	4	0
44	34	0	10000	4	1	0	4	0
44	35	0	10000	4	1	0	4	0
44	36	0	10000	4	1	0	4	0
44	37	0	10000	4	1	0	4	0
41	38	0	10000	4	1	0	4	0
40	39	0	10000	4	1	0	4	0
41	40	0	10000	4	1	0	4	0
41	41	0	10000	4	1	0	4	0
43	42	0	10000	4	1	0	4	0
43	43	0	10000	4	1	0	4	0
46	44	0	10000	4	1	0	4	0
48	45	0	10000	4	1	0	4	0
50	46	0	10000	4	1	0	4	0
50	47	0	10000	4	1	0	4	0
52	48	0	10000	4	1	0	4	0
54	49	0	10000	4	1	0	4	0
54	50	0	10000	4	1	0	4	0
55	51	0	10000	4	1	0	4	0
57	52	0	10000	4	1	0	4	0
60	53	0	10000	4	1	0	4	0
61	54	0	10000	4	1	0	4	0
63	55	0	10000	4	1	0	4	0
64	56	0	10000	4	1	0	4	0
64	57	0	10000	4	1	0	4	0
64	58	0	10000	4	1	0	4	0
64	59	0	10000	4	1	0	4	0
65	60	0	10000	4	1	0	4	0
65	61	0	10000	4	1	0	4	0
64	62	0	10000	4	1	0	4	0
64	63	0	10000	4	1	0	4	0
63	64	0	10000	4	1	0	4	0
63	65	0	10000	4	1	0	4	0
63	66	0	10000	4	1	0	4	0
63	67	0	10000	4	1	0	4	0
61	68	0	10000	4	1	0	4	0
60	69	0	10000	4	1	0	4	0
57	70	0	10000	4	1	0	4	0
55	71	0	10000	4	1	0	4	0
53	72	0	10000	4	1	0	4	0
53	73	0	10000	4	1	0	4	0
51	74	0	10000	4	1	0	4	0
50	75	0	10000	4	1	0	4	0
49	76	0	10000	4	1	0	4	0
48	77	0	10000	4	1	0	4	0
46	78	0	10000	4	1	0	4	0
45	79	0	10000	4	1	0	4	0
44	80	0	10000	4	1	0	4	0
44	81	0	10000	4	1	0	4	0
42	82	0	10000	4	1	0	4	0
40	83	0	10000	4	1	0	4	0
40	84	0	10000	4	1	0	4	0
39	85	0	10000	4	1	0	4	0
39	86	0	10000	4	1	0	4	0
38	87	0	10000	4	1	0	4	0
37	88	0	10000	4	1	0	4	0
36	89	0	10000	4	1	0	4	0
33	90	0	10000	4	1	0	4	0
32	91	0	10000	4	1	0	4	0
32	92	0	10000	4	1	0	4	0
31	93	0	10000	4	1	0	4	0
30	94	0	10000	4	1	0	4	0
29	95	0	10000	4	1	0	4	0
27	96	0	10000	4	1	0	4	0
27	97	0	10000	4	1	0	4	0
25	98	0	10000	4	1	0	4	0
24	99	0	10000	4	1	0	4	0
23	100	0	10000	4	1	0	4	0
23	101	0	10000	4	1	0	4	0
21	102	0	10000	4	1	0	4	0
19	103	0	10000	4	1	0	4	0
19	104	0	10000	4	1	0	4	0
18	105	0	10000	4	1	0	4	0
18	106	0	10000	4	1	0	4	0
18	107	0	10000	4	1	0	4	0
17	108	0	10000	4	1	0	4	0
17	109	0	10000	4	1	0	4	0
17	110	0	10000	4	1	0	4	0
17	111	0	10000	4	1	0	4	0
18	112	0	10000	4	1	0	4	0
20	113	0	10000	4	1	0	4	0
20	114	0	10000	4	1	0	4	0
19	115	0	10000	4	1	0	4	0
18	116	0	10000	4	1	0	4	0
17	117	0	10000	4	1	0	4	0
17	118	0	10000	4	1	0	4	0
16	119	0	10000	4	1	0	4	0
15	120	0	10000	4	1	0	4	0
16	121	0	10000	4	1	0	4	0
15	122	0	10000	4	1	0	4	0
12	123	0	10000	4	1	0	4	0
13	124	0	10000	4	1	0	4	0
13	125	0	10000	4	1	0	4	0
12	126	0	10000	4	1	0	4	0
12	127	0	10000	4	1	0	4	0
11	128	0	10000	4	1	0	4	0
11	129	0	10000	4	1	0	4	0
10	130	0	10000	4	1	0	4	0
9	131	0	10000	4	1	0	4	0
10	132	0	10000	4	1	0	4	0
12	133	0	10000	4	1	0	4	0
12	134	0	10000	4	1	0	4	0
12	135	0	10000	4	1	0	4	0
12	136	0	10000	4	1	0	4	0
12	137	0	10000	4	1	0	4	0
12	138	0	10000	4	1	0	4	0
11	139	0	10000	4	1	0	4	0
12	140	0	10000	4	1	0	4	0
13	141	0	10000	4	1	0	4	0
12	142	0	10000	4	1	0	4	0
10	143	0	10000	4	1	0	4	0
12	144	0	10000	4	1	0	4	0
12	145	0	10000	4	1	0	4	0
11	146	0	10000	4	1	0	4	0
11	147	0	10000	4	1	0	4	0
11	148	0	10000	4	1	0	4	0
11	149	0	10000	4	1	0	4	0
10	150	0	10000	4	1	0	4	0
9	151	0	10000	4	1	0	4	0
10	152	0	10000	4	1	0	4	0
12	153	0	10000	4	1	0	4	0
11	154	0	10000	4	1	0	4	0
11	155	0	10000	4	1	0	4	0
11	156	0	10000	4	1	0	4	0
11	157	0	10000	4	1	0	4	0
10	158	0	10000	4	1	0	4	0
10	159	0	10000	4	1	0	4	0
10	160	0	10000	4	1	0	4	0
11	161	0	10000	4	1	0	4	0
10	162	0	10000	4	1	0	4	0
8	163	0	10000	4	1	0	4	0
9	164	0	10000	4	1	0	4	0
9	165	0	10000	4	1	0	4	0
10	166	0	10000	4	1	0	4	0
11	167	0	10000	4	1	0	4	0
11	168	0	10000	4	1	0	4	0
10	169	0	10000	4	1	0	4	0
11	170	0	10000	4	1	0	4	0
11	171	0	10000	4	1	0	4	0
11	172	0	10000	4	1	0	4	0
13	173	0	10000	4	1	0	4	0
12	174	0	10000	4	1	0	4	0
11	175	0	10000	4	1	0	4	0
11	176	0	10000	4	1	0	4	0
11	177	0	10000	4	1	0	4	0
11	178	0	10000	4	1	0	4	0
11	179	0	10000	4	1	0	4	0
12	180	0	10000	4	1	0	4	0
12	181	0	10000	4	1	0	4	0
11	182	0	10000	4	1	0	4	0
9	183	0	10000	4	1	0	4	0
11	184	0	10000	4	1	0	4	0
11	185	0	10000	4	1	0	4	0
11	186	0	10000	4	1	0	4	0
12	187	0	10000	4	1	0	4	0
11	188	0	10000	4	1	0	4	0
12	189	0	10000	4	1	0	4	0
11	190	0	10000	4	1	0	4	0
9	191	0	10000	4	1	0	4	0
10	192	0	10000	4	1	0	4	0
12	193	0	10000	4	1	0	4	0
10	194	0	10000	4	1	0	4	0
10	195	0	10000	4	1	0	4	0
10	196	0	10000	4	1	0	4	0
9	197	0	10000	4	1	0	4	0
9	198	0	10000	4	1	0	4	0
9	199	0	10000	4	1	0	4	0
10	200	0	10000	4	1	0	4	0
12	201	0	10000	4	1	0	4	0
13	202	0	10000	4	1	0	4	0
12	203	0	10000	4	1	0	4	0
13	204	0	10000	4	1	0	4	0
13	205	0	10000	4	1	0	4	0
13	206	0	10000	4	1	0	4	0
13	207	0	10000	4	1	0	4	0
13	208	0	10000	4	1	0	4	0
13	209	0	10000	4	1	0	4	0
12	210	0	10000	4	1	0	4	0
11	211	0	10000	4	1	0	4	0
12	212	0	10000	4	1	0	4	0
14	213	0	10000	4	1	0	4	0
13	214	0	10000	4	1	0	4	0
13	215	0	10000	4	1	0	4	0
13	216	0	10000	4	1	0	4	0
12	217	0	10000	4	1	0	4	0
12	218	0	10000	4	1	0	4	0
12	219	0	10000	4	1	0	4	0
12	220	0	10000	4	1	0	4	0
12	221	0	10000	4	1	0	4	0
13	222	0	10000	4	1	0	4	0
11	223	0	10000	4	1	0	4	0
11	224	0	10000	4	1	0	4	0
12	225	0	10000	4	1	0	4	0
11	226	0	10000	4	1	0	4	0
12	227	0	10000	4	1	0	4	0
12	228	0	10000	4	1	0	4	0
13	229	0	10000	4	1	0	4	0
12	230	0	10000	4	1	0	4	0
11	231	0	10000	4	1	0	4	0
12	232	0	10000	4	1	0	4	0
13	233	0	10000	4	1	0	4	0
13	234	0	10000	4	1	0	4	0
12	235	0	10000	4	1	0	4	0
12	236	0	10000	4	1	0	4	0
12	237	0	10000	4	1	0	4	0
13	238	0	10000	4	1	0	4	0
14	239	0	10000	4	1	0	4	0
15	240	0	10000	4	1	0	4	0
17	241	0	10000	4	1	0	4	0
16	242	0	10000	4	1	0	4	0
14	243	0	10000	4	1	0	4	0
14	244	0	10000	4	1	0	4	0
14	245	0	10000	4	1	0	4	0
13	246	0	10000	4	1	0	4	0
13	247	0	10000	4	1	0	4	0
15	248	0	10000	4	1	0	4	0
15	249	0	10000	4	1	0	4	0
13	250	0	10000	4	1	0	4	0
13	251	0	10000	4	1	0	4	0
12	252	0	10000	4	1	0	4	0
14	253	0	10000	4	1	0	4	0
13	254	0	10000	4	1	0	4	0
14	255	0	10000	4	1	0	4	0
13	256	0	10000	4	1	0	4	0
13	257	0	10000	4	1	0	4	0
13	258	0	10000	4	1	0	4	0
12	259	0	10000	4	1	0	4	0
13	260	0	10000	4	1	0	4	0
13	261	0	10000	4	1	0	4	0
11	262	0	10000	4	1	0	4	0
9	263	0	10000	4	1	0	4	0
10	264	0	10000	4	1	0	4	0
11	265	0	10000	4	1	0	4	0
11	266	0	10000	4	1	0	4	0
10	267	0	10000	4	1	0	4	0
10	268	0	10000	4	1	0	4	0
10	269	0	10000	4	1	0	4	0
9	270	0	10000	4	1	0	4	0
9	271	0	10000	4	1	0	4	0
10	272	0	10000	4	1	0	4	0
11	273	0	10000	4	1	0	4	0
12	274	0	10000	4	1	0	4	0
11	275	0	10000	4	1	0	4	0
11	276	0	10000	4	1	0	4	0
12	277	0	10000	4	1	0	4	0
11	278	0	10000	4	1	0	4	0
11	279	0	10000	4	1	0	4	0
12	280	0	10000	4	1	0	4	0
12	281	0	10000	4	1	0	4	0
12	282	0	10000	4	1	0	4	0
10	283	0	10000	4	1	0	4	0
10	284	0	10000	4	1	0	4	0
10	285	0	10000	4	1	0	4	0
11	286	0	10000	4	1	0	4	0
10	287	0	10000	4	1	0	4	0
10	288	0	10000	4	1	0	4	0
10	289	0	10000	4	1	0	4	0
10	290	0	10000	4	1	0	4	0
9	291	0	10000	4	1	0	4	0
9	292	0	10000	4	1	0	4	0
11	293	0	10000	4	1	0	4	0
10	294	0	10000	4	1	0	4	0
9	295	0	10000	4	1	0	4	0
8	296	0	10000	4	1	0	4	0
9	297	0	10000	4	1	0	4	0
9	298	0	10000	4	1	0	4	0
9	299	0	10000	4	1	0	4	0
10	300	0	10000	4	1	0	4	0
10	301	0	10000	4	1	0	4	0
11	302	0	10000	4	1	0	4	0
10	303	0	10000	4	1	0	4	0
10	304	0	10000	4	1	0	4	0
11	305	0	10000	4	1	0	4	0
11	306	0	10000	4	1	0	4	0
11	307	0	10000	4	1	0	4	0
11	308	0	10000	4	1	0	4	0
11	309	0	10000	4	1	0	4	0
10	310	0	10000	4	1	0	4	0
9	311	0	10000	4	1	0	4	0
10	312	0	10000	4	1	0	4	0
12	313	0	10000	4	1	0	4	0
11	314	0	10000	4	1	0	4	0
10	315	0	10000	4	1	0	4	0
10	316	0	10000	4	1	0	4	0
10	317	0	10000	4	1	0	4	0
10	318	0	10000	4	1	0	4	0
10	319	0	10000	4	1	0	4	0
11	320	0	10000	4	1	0	4	0
13	321	0	10000	4	1	0	4	0
14	322	0	10000	4	1	0	4	0
14	323	0	10000	4	1	0	4	0
15	324	0	10000	4	1	0	4	0
15	325	0	10000	4	1	0	4	0
15	326	0	10000	4	1	0	4	0
15	327	0	10000	4	1	0	4	0
14	328	0	10000	4	1	0	4	0
14	329	0	10000	4	1	0	4	0
14	330	0	10000	4	1	0	4	0
13	331	0	10000	4	1	0	4	0
13	332	0	10000	4	1	0	4	0
14	333	0	10000	4	1	0	4	0
13	334	0	10000	4	1	0	4	0
13	335	0	10000	4	1	0	4	0
12	336	0	10000	4	1	0	4	0
12	337	0	10000	4	1	0	4	0
13	338	0	10000	4	1	0	4	0
15	339	0	10000	4	1	0	4	0
15	340	0	10000	4	1	0	4	0
16	341	0	10000	4	1	0	4	0
15	342	0	10000	4	1	0	4	0
12	343	0	10000	4	1	0	4	0
12	344	0	10000	4	1	0	4	0
12	345	0	10000	4	1	0	4	0
12	346	0	10000	4	1	0	4	0
12	347	0	10000	4	1	0	4	0
13	348	0	10000	4	1	0	4	0
14	349	0	10000	4	1	0	4	0
13	350	0	10000	4	1	0	4	0
12	351	0	10000	4	1	0	4	0
13	352	0	10000	4	1	0	4	0
14	353	0	10000	4	1	0	4	0
12	354	0	10000	4	1	0	4	0
13	355	0	10000	4	1	0	4	0
11	356	0	10000	4	1	0	4	0
11	357	0	10000	4	1	0	4	0
11	358	0	10000	4	1	0	4	0
10	359	0	10000	4	1	0	4	0
10	360	0	10000	4	1	0	4	0
11	361	0	10000	4	1	0	4	0
10	362	0	10000	4	1	0	4	0
8	363	0	10000	4	1	0	4	0
9	364	0	10000	4	1	0	4	0
9	365	0	10000	4	1	0	4	0
10	366	0	10000	4	1	0	4	0
10	367	0	10000	4	1	0	4	0
10	368	0	10000	4	1	0	4	0
10	369	0	10000	4	1	0	4	0
10	370	0	10000	4	1	0	4	0
9	371	0	10000	4	1	0	4	0
10	372	0	10000	4	1	0	4	0
12	373	0	10000	4	1	0	4	0
11	374	0	10000	4	1	0	4	0
12	375	0	10000	4	1	0	4	0
11	376	0	10000	4	1	0	4	0
11	377	0	10000	4	1	0	4	0
11	378	0	10000	4	1	0	4	0
10	379	0	10000	4	1	0	4	0
11	380	0	10000	4	1	0	4	0
12	381	0	10000	4	1	0	4	0
10	382	0	10000	4	1	0	4	0
8	383	0	10000	4	1	0	4	0
9	384	0	10000	4	1	0	4	0
8	385	0	10000	4	1	0	4	0
8	386	0	10000	4	1	0	4	0
8	387	0	10000	4	1	0	4	0
9	388	0	10000	4	1	0	4	0
8	389	0	10000	4	1	0	4	0
8	390	0	10000	4	1	0	4	0
8	391	0	10000	4	1	0	4	0
8	392	0	10000	4	1	0	4	0
10	393	0	10000	4	1	0	4	0
9	394	0	10000	4	1	0	4	0
8	395	0	10000	4	1	0	4	0
8	396	0	10000	4	1	0	4	0
8	397	0	10000	4	1	0	4	0
7	398	0	10000	4	1	0	4	0
8	399	0	10000	4	1	0	4	0
8	400	0	10000	4	1	0	4	0
9	401	0	10000	4	1	0	4	0
9	402	0	10000	4	1	0	4	0
8	403	0	10000	4	1	0	4	0
8	404	0	10000	4	1	0	4	0
8	405	0	10000	4	1	0	4	0
8	406	0	10000	4	1	0	4	0
9	407	0	10000	4	1	0	4	0
8	408	0	10000	4	1	0	4	0
8	409	0	10000	4	1	0	4	0
9	410	0	10000	4	1	0	4	0
8	411	0	10000	4	1	0	4	0
9	412	0	10000	4	1	0	4	0
11	413	0	10000	4	1	0	4	0
11	414	0	10000	4	1	0	4	0
12	415	0	10000	4	1	0	4	0
11	416	0	10000	4	1	0	4	0
11	417	0	10000	4	1	0	4	0
10	418	0	10000	4	1	0	4	0
11	419	0	10000	4	1	0	4	0
11	420	0	10000	4	1	0	4	0
11	421	0	10000	4	1	0	4	0
10	422	0	10000	4	1	0	4	0
8	423	0	10000	4	1	0	4	0
9	424	0	10000	4	1	0	4	0
9	425	0	10000	4	1	0	4	0
9	426	0	10000	4	1	0	4	0
9	427	0	10000	4	1	0	4	0
9	428	0	10000	4	1	0	4	0
10	429	0	10000	4	1	0	4	0
10	430	0	10000	4	1	0	4	0
10	431	0	10000	4	1	0	4	0
10	432	0	10000	4	1	0	4	0
13	433	0	10000	4	1	0	4	0
11	434	0	10000	4	1	0	4	0
11	435	0	10000	4	1	0	4	0
11	436	0	10000	4	1	0	4	0
10	437	0	10000	4	1	0	4	0
10	438	0	10000	4	1	0	4	0
10	439	0	10000	4	1	0	4	0
11	440	0	10000	4	1	0	4	0
12	441	0	10000	4	1	0	4	0
12	442	0	10000	4	1	0	4	0
10	443	0	10000	4	1	0	4	0
10	444	0	10000	4	1	0	4	0
10	445	0	10000	4	1	0	4	0
10	446	0	10000	4	1	0	4	0
10	447	0	10000	4	1	0	4	0
10	448	0	10000	4	1	0	4	0
10	449	0	10000	4	1	0	4	0
9	450	0	10000	4	1	0	4	0
9	451	0	10000	4	1	0	4	0
9	452	0	10000	4	1	0	4	0
11	453	0	10000	4	1	0	4	0
11	454	0	10000	4	1	0	4	0
11	455	0	10000	4	1	0	4	0
11	456	0	10000	4	1	0	4	0
10	457	0	10000	4	1	0	4	0
10	458	0	10000	4	1	0	4	0
10	459	0	10000	4	1	0	4	0
10	460	0	10000	4	1	0	4	0
10	461	0	10000	4	1	0	4	0
10	462	0	10000	4	1	0	4	0
8	463	0	10000	4	1	0	4	0
8	464	0	10000	4	1	0	4	0
8	465	0	10000	4	1	0	4	0
8	466	0	10000	4	1	0	4	0
8	467	0	10000	4	1	0	4	0
8	468	0	10000	4	1	0	4	0
8	469	0	10000	4	1	0	4	0
8	470	0	10000	4	1	0	4	0
8	471	0	10000	4	1	0	4	0
8	472	0	10000	4	1	0	4	0
9	473	0	10000	4	1	0	4	0
9	474	0	10000	4	1	0	4	0
8	475	0	10000	4	1	0	4	0
8	476	0	10000	4	1	0	4	0
8	477	0	10000	4	1	0	4	0
8	478	0	10000	4	1	0	4	0
7	479	0	10000	4	1	0	4	0
8	480	0	10000	4	1	0	4	0
8	481	0	10000	4	1	0	4	0
8	482	0	10000	4	1	0	4	0
5	483	0	10000	4	1	0	4	0
5	484	0	10000	4	1	0	4	0
7	485	0	10000	4	1	0	4	0
6	486	0	10000	4	1	0	4	0
6	487	0	10000	4	1	0	4	0
8	488	0	10000	4	1	0	4	0
7	489	0	10000	4	1	0	4	0
7	490	0	10000	4	1	0	4	0
7	491	0	10000	4	1	0	4	0
7	492	0	10000	4	1	0	4	0
9	493	0	10000	4	1	0	4	0
8	494	0	10000	4	1	0	4	0
8	495	0	10000	4	1	0	4	0
8	496	0	10000	4	1	0	4	0
9	497	0	10000	4	1	0	4	0
8	498	0	10000	4	1	0	4	0
8	499	0	10000	4	1	0	4	0
10	500	0	10000	4	1	0	4	0
10	501	0	10000	4	1	0	4	1
9	502	0	10000	4	1	0	4	1
9	503	0	10000	4	1	0	4	1
10	504	0	10000	4	1	0	4	1
9	505	0	10000	4	1	0	4	1
10	506	0	10000	4	1	0	4	1
10	507	0	10000	4	1	0	4	1
11	508	0	10000	4	1	0	4	1
11	509	0	10000	4	1	0	4	1
11	510	0	10000	4	1	0	4	1
11	511	0	10000	4	1	0	4	1
11	512	0	10000	4	1	0	4	1
13	513	0	10000	4	1	0	4	1
13	514	0	10000	4	1	0	4	1
11	515	0	10000	4	1	0	4	1
12	516	0	10000	4	1	0	4	1
12	517	0	10000	4	1	0	4	1
11	518	0	10000	4	1	0	4	1
12	519	0	10000	4	1	0	4	1
13	520	0	10000	4	1	0	4	1
14	521	0	10000	4	1	0	4	1
13	522	0	10000	4	1	0	4	1
11	523	0	10000	4	1	0	4	1
10	524	0	10000	4	1	0	4	1
11	525	0	10000	4	1	0	4	1
11	526	0	10000	4	1	0	4	1
11	527	0	10000	4	1	0	4	1
11	528	0	10000	4	1	0	4	1
11	529	0	10000	4	1	0	4	1
10	530	0	10000	4	1	0	4	1
10	531	0	10000	4	1	0	4	1
10	532	0	10000	4	1	0	4	1
11	533	0	10000	4	1	0	4	1
11	534	0	10000	4	1	0	4	1
11	535	0	10000	4	1	0	4	1
10	536	0	10000	4	1	0	4	1
10	537	0	10000	4	1	0	4	1
10	538	0	10000	4	1	0	4	1
9	539	0	10000	4	1	0	4	1
11	540	0	10000	4	1	0	4	1
10	541	0	10000	4	1	0	4	1
9	542	0	10000	4	1	0	4	1
8	543	0	10000	4	1	0	4	1
8	544	0	10000	4	1	0	4	1
8	545	0	10000	4	1	0	4	1
8	546	0	10000	4	1	0	4	1
8	547	0	10000	4	1	0	4	1
8	548	0	10000	4	1	0	4	1
8	549	0	10000	4	1	0	4	1
7	550	0	10000	4	1	0	4	1
6	551	0	10000	4	1	0	4	0
7	552	0	10000	4	1	0	4	0
8	553	0	10000	4	1	0	4	0
8	554	0	10000	4	1	0	4	0
7	555	0	10000	4	1	0	4	0
7	556	0	10000	4	1	0	4	0
8	557	0	10000	4	1	0	4	0
7	558	0	10000	4	1	0	4	0
7	559	0	10000	4	1	0	4	0
9	560	0	10000	4	1	0	4	0
9	561	0	10000	4	1	0	4	0
9	562	0	10000	4	1	0	4	0
8	563	0	10000	4	1	0	4	0
8	564	0	10000	4	1	0	4	0
8	565	0	10000	4	1	0	4	0
10	566	0	10000	4	1	0	4	0
10	567	0	10000	4	1	0	4	0
10	568	0	10000	4	1	0	4	0
11	569	0	10000	4	1	0	4	0
10	570	0	10000	4	1	0	4	0
10	571	0	10000	4	1	0	4	0
10	572	0	10000	4	1	0	4	0
12	573	0	10000	4	1	0	4	0
11	574	0	10000	4	1	0	4	0
10	575	0	10000	4	1	0	4	0
9	576	0	10000	4	1	0	4	0
10	577	0	10000	4	1	0	4	0
10	578	0	10000	4	1	0	4	0
9	579	0	10000	4	1	0	4	0
10	580	0	10000	4	1	0	4	0
10	581	0	10000	4	1	0	4	0
9	582	0	10000	4	1	0	4	0
8	583	0	10000	4	1	0	4	0
8	584	0	10000	4	1	0	4	0
9	585	0	10000	4	1	0	4	0
9	586	0	10000	4	1	0	4	0
9	587	0	10000	4	1	0	4	0
8	588	0	10000	4	1	0	4	0
12	589	0	10000	4	1	0	4	0
16	590	0	10000	4	1	0	4	0
20	591	0	10000	4	1	0	4	0
21	592	0	10000	4	1	0	4	0
26	593	0	10000	4	1	0	4	0
38	594	0	10000	4	1	0	4	0
42	595	0	10000	4	1	0	4	0
48	596	0	10000	4	1	0	4	0
94	597	0	10000	4	1	0	4	0
132	598	0	10000	4	1	0	4	0
145	599	0	10000	4	1	0	4	0
146	600	0	10000	4	1	0	4	0
155	601	0	10000	4	1	0	4	0
157	602	0	10000	4	1	0	4	0
150	603	0	10000	4	1	0	4	0
148	604	0	10000	4	1	0	4	0
162	605	0	10000	4	1	0	4	0
181	606	0	10000	4	1	0	4	0
211	607	0	10000	4	1	0	4	0
248	608	0	10000	4	1	0	4	0
264	609	0	10000	4	1	0	4	0
262	610	0	10000	4	1	0	4	0
255	611	0	10000	4	1	0	4	0
259	612	0	10000	4	1	0	4	0
260	613	0	10000	4	1	0	4	0
252	614	0	10000	4	1	0	4	0
249	615	0	10000	4	1	0	4	0
261	616	0	10000	4	1	0	4	0
262	617	0	10000	4	1	0	4	0
273	618	0	10000	4	1	0	4	0
303	619	0	10000	4	1	0	4	0
320	620	0	10000	4	1	0	4	0
323	621	0	10000	4	1	0	4	0
321	622	0	10000	4	1	0	4	0
317	623	0	10000	4	1	0	4	0
307	624	0	10000	4	1	0	4	0
295	625	0	10000	4	1	0	4	0
310	626	0	10000	4	1	0	4	0
351	627	0	10000	4	1	0	4	0
378	628	0	10000	4	1	0	4	0
371	629	0	10000	4	1	0	4	0
374	630	0	10000	4	1	0	4	0
374	631	0	10000	4	1	0	4	0
362	632	0	10000	4	1	0	4	0
350	633	0	10000	4	1	0	4	0
343	634	0	10000	4	1	0	4	0
334	635	0	10000	4	1	0	4	0
320	636	0	10000	4	1	0	4	0
309	637	0	10000	4	1	0	4	0
304	638	0	10000	4	1	0	4	0
300	639	0	10000	4	1	0	4	0
299	640	0	10000	4	1	0	4	0
300	641	0	10000	4	1	0	4	0
299	642	0	10000	4	1	0	4	0
297	643	0	10000	4	1	0	4	0
297	644	0	10000	4	1	0	4	0
295	645	0	10000	4	1	0	4	0
290	646	0	10000	4	1	0	4	0
285	647	0	10000	4	1	0	4	0
284	648	0	10000	4	1	0	4	0
284	649	0	10000	4	1	0	4	0
284	650	0	10000	4	1	0	4	0
285	651	0	10000	4	1	0	4	0
283	652	0	10000	4	1	0	4	0
276	653	0	10000	4	1	0	4	0
267	654	0	10000	4	1	0	4	0
259	655	0	10000	4	1	0	4	0
251	656	0	10000	4	1	0	4	0
243	657	0	10000	4	1	0	4	0
236	658	0	10000	4	1	0	4	0
229	659	0	10000	4	1	0	4	0
221	660	0	10000	4	1	0	4	0
213	661	0	10000	4	1	0	4	0
206	662	0	10000	4	1	0	4	0
201	663	0	10000	4	1	0	4	0
198	664	0	10000	4	1	0	4	0
192	665	0	10000	4	1	0	4	0
186	666	0	10000	4	1	0	4	0
179	667	0	10000	4	1	0	4	0
171	668	0	10000	4	1	0	4	0
166	669	0	10000	4	1	0	4	0
162	670	0	10000	4	1	0	4	0
156	671	0	10000	4	1	0	4	0
151	672	0	10000	4	1	0	4	0
148	673	0	10000	4	1	0	4	0
142	674	0	10000	4	1	0	4	0
136	675	0	10000	4	1	0	4	0
132	676	0	10000	4	1	0	4	0
128	677	0	10000	4	1	0	4	0
125	678	0	10000	4	1	0	4	0
122	679	0	10000	4	1	0	4	0
119	680	0	10000	4	1	0	4	0
117	681	0	10000	4	1	0	4	0
115	682	0	10000	4	1	0	4	0
109	683	0	10000	4	1	0	4	0
109	684	0	10000	4	1	0	4	0
109	685	0	10000	4	1	0	4	0
107	686	0	10000	4	1	0	4	0
103	687	0	10000	4	1	0	4	0
98	688	0	10000	4	1	0	4	0
94	689	0	10000	4	1	0	4	0
90	690	0	10000	4	1	0	4	0
87	691	0	10000	4	1	0	4	0
89	692	0	10000	4	1	0	4	0
94	693	0	10000	4	1	0	4	0
96	694	0	10000	4	1	0	4	0
96	695	0	10000	4	1	0	4	0
97	696	0	10000	4	1	0	4	0
96	697	0	10000	4	1	0	4	0
93	698	0	10000	4	1	0	4	0
90	699	0	10000	4	1	0	4	0
89	700	0	10000	4	1	0	4	0
88	701	0	10000	4	1	0	4	0
87	702	0	10000	4	1	0	4	0
84	703	0	10000	4	1	0	4	0
84	704	0	10000	4	1	0	4	0
85	705	0	10000	4	1	0	4	0
87	706	0	10000	4	1	0	4	0
86	707	0	10000	4	1	0	4	0
86	708	0	10000	4	1	0	4	0
88	709	0	10000	4	1	0	4	0
88	710	0	10000	4	1	0	4	0
88	711	0	10000	4	1	0	4	0
90	712	0	10000	4	1	0	4	0
94	713	0	10000	4	1	0	4	0
95	714	0	10000	4	1	0	4	0
96	715	0	10000	4	1	0	4	0
98	716	0	10000	4	1	0	4	0
97	717	0	10000	4	1	0	4	0
98	718	0	10000	4	1	0	4	0
98	719	0	10000	4	1	0	4	0
99	720	0	10000	4	1	0	4	0
99	721	0	10000	4	1	0	4	0
98	722	0	10000	4	1	0	4	0
94	723	0	10000	4	1	0	4	0
92	724	0	10000	4	1	0	4	0
90	725	0	10000	4	1	0	4	0
87	726	0	10000	4	1	0	4	0
85	727	0	10000	4	1	0	4	0
85	728	0	10000	4	1	0	4	0
84	729	0	10000	4	1	0	4	0
82	730	0	10000	4	1	0	4	0
82	731	0	10000	4	1	0	4	0
81	732	0	10000	4	1	0	4	0
82	733	0	10000	4	1	0	4	0
80	734	0	10000	4	1	0	4	0
78	735	0	10000	4	1	0	4	0
77	736	0	10000	4	1	0	4	0
76	737	0	10000	4	1	0	4	0
75	738	0	10000	4	1	0	4	0
73	739	0	10000	4	1	0	4	0
71	740	0	10000	4	1	0	4	0
68	741	0	10000	4	1	0	4	0
67	742	0	10000	4	1	0	4	0
61	743	0	10000	4	1	0	4	0
59	744	0	10000	4	1	0	4	0
58	745	0	10000	4	1	0	4	0
55	746	0	10000	4	1	0	4	0
53	747	0	10000	4	1	0	4	0
52	748	0	10000	4	1	0	4	0
49	749	0	10000	4	1	0	4	0
46	750	0	10000	4	1	0	4	0
44	751	0	10000	4	1	0	4	0
42	752	0	10000	4	1	0	4	0
44	753	0	10000	4	1	0	4	0
41	754	0	10000	4	1	0	4	0
41	755	0	10000	4	1	0	4	0
39	756	0	10000	4	1	0	4	0
39	757	0	10000	4	1	0	4	0
38	758	0	10000	4	1	0	4	0
36	759	0	10000	4	1	0	4	0
36	760	0	10000	4	1	0	4	0
35	761	0	10000	4	1	0	4	0
34	762	0	10000	4	1	0	4	0
32	763	0	10000	4	1	0	4	0
32	764	0	10000	4	1	0	4	0
30	765	0	10000	4	1	0	4	0
29	766	0	10000	4	1	0	4	0
28	767	0	10000	4	1	0	4	0
28	768	0	10000	4	1	0	4	0
27	769	0	10000	4	1	0	4	0
25	770	0	10000	4	1	0	4	0
25	771	0	10000	4	1	0	4	0
23	772	0	10000	4	1	0	4	0
24	773	0	10000	4	1	0	4	0
25	774	0	10000	4	1	0	4	0
24	775	0	10000	4	1	0	4	0
23	776	0	10000	4	1	0	4	0
23	777	0	10000	4	1	0	4	0
22	778	0	10000	4	1	0	4	0
21	779	0	10000	4	1	0	4	0
21	780	0	10000	4	1	0	4	0
20	781	0	10000	4	1	0	4	0
20	782	0	10000	4	1	0	4	0
18	783	0	10000	4	1	0	4	0
18	784	0	10000	4	1	0	4	0
17	785	0	10000	4	1	0	4	0
17	786	0	10000	4	1	0	4	0
16	787	0	10000	4	1	0	4	0
16	788	0	10000	4	1	0	4	0
17	789	0	10000	4	1	0	4	0
16	790	0	10000	4	1	0	4	0
15	791	0	10000	4	1	0	4	0
15	792	0	10000	4	1	0	4	0
17	793	0	10000	4	1	0	4	0
17	794	0	10000	4	1	0	4	0
16	795	0	10000	4	1	0	4	0
14	796	0	10000	4	1	0	4	0
15	797	0	10000	4	1	0	4	0
14	798	0	10000	4	1	0	4	0
13	799	0	10000	4	1	0	4	0
14	800	0	10000	4	1	0	4	0
14	801	0	10000	4	1	0	4	0
13	802	0	10000	4	1	0	4	0
12	803	0	10000	4	1	0	4	0
13	804	0	10000	4	1	0	4	0
12	805	0	10000	4	1	0	4	0
13	806	0	10000	4	1	0	4	0
14	807	0	10000	4	1	0	4	0
15	808	0	10000	4	1	0	4	0
16	809	0	10000	4	1	0	4	0
14	810	0	10000	4	1	0	4	0
14	811	0	10000	4	1	0	4	0
13	812	0	10000	4	1	0	4	0
15	813	0	10000	4	1	0	4	0
15	814	0	10000	4	1	0	4	0
14	815	0	10000	4	1	0	4	0
13	816	0	10000	4	1	0	4	0
13	817	0	10000	4	1	0	4	0
12	818	0	10000	4	1	0	4	0
12	819	0	10000	4	1	0	4	0
13	820	0	10000	4	1	0	4	0
13	821	0	10000	4	1	0	4	0
13	822	0	10000	4	1	0	4	0
13	823	0	10000	4	1	0	4	0
14	824	0	10000	4	1	0	4	0
15	825	0	10000	4	1	0	4	0
15	826	0	10000	4	1	0	4	0
15	827	0	10000	4	1	0	4	0
14	828	0	10000	4	1	0	4	0
14	829	0	10000	4	1	0	4	0
13	830	0	10000	4	1	0	4	0
12	831	0	10000	4	1	0	4	0
12	832	0	10000	4	1	0	4	0
15	833	0	10000	4	1	0	4	0
15	834	0	10000	4	1	0	4	0
15	835	0	10000	4	1	0	4	0
14	836	0	10000	4	1	0	4	0
14	837	0	10000	4	1	0	4	0
14	838	0	10000	4	1	0	4	0
14	839	0	10000	4	1	0	4	0
14	840	0	10000	4	1	0	4	0
14	841	0	10000	4	1	0	4	0
14	842	0	10000	4	1	0	4	0
13	843	0	10000	4	1	0	4	0
14	844	0	10000	4	1	0	4	0
15	845	0	10000	4	1	0	4	0
17	846	0	10000	4	1	0	4	0
17	847	0	10000	4	1	0	4	0
18	848	0	10000	4	1	0	4	0
20	849	0	10000	4	1	0	4	0
18	850	0	10000	4	1	0	4	0
16	851	0	10000	4	1	0	4	0
17	852	0	10000	4	1	0	4	0
18	853	0	10000	4	1	0	4	0
17	854	0	10000	4	1	0	4	0
17	855	0	10000	4	1	0	4	0
18	856	0	10000	4	1	0	4	0
18	857	0	10000	4	1	0	4	0
18	858	0	10000	4	1	0	4	0
17	859	0	10000	4	1	0	4	0
18	860	0	10000	4	1	0	4	0
19	861	0	10000	4	1	0	4	0
18	862	0	10000	4	1	0	4	0
16	863	0	10000	4	1	0	4	0
16	864	0	10000	4	1	0	4	0
15	865	0	10000	4	1	0	4	0
15	866	0	10000	4	1	0	4	0
16	867	0	10000	4	1	0	4	0
15	868	0	10000	4	1	0	4	0
15	869	0	10000	4	1	0	4	0
14	870	0	10000	4	1	0	4	0
14	871	0	10000	4	1	0	4	0
15	872	0	10000	4	1	0	4	0
16	873	0	10000	4	1	0	4	0
15	874	0	10000	4	1	0	4	0
15	875	0	10000	4	1	0	4	0
14	876	0	10000	4	1	0	4	0
13	877	0	10000	4	1	0	4	0
15	878	0	10000	4	1	0	4	0
14	879	0	10000	4	1	0	4	0
16	880	0	10000	4	1	0	4	0
16	881	0	10000	4	1	0	4	0
15	882	0	10000	4	1	0	4	0
13	883	0	10000	4	1	0	4	0
14	884	0	10000	4	1	0	4	0
14	885	0	10000	4	1	0	4	0
16	886	0	10000	4	1	0	4	0
18	887	0	10000	4	1	0	4	0
18	888	0	10000	4	1	0	4	0
18	889	0	10000	4	1	0	4	0
18	890	0	10000	4	1	0	4	0
18	891	0	10000	4	1	0	4	0
18	892	0	10000	4	1	0	4	0
19	893	0	10000	4	1	0	4	0
18	894	0	10000	4	1	0	4	0
17	895	0	10000	4	1	0	4	0
16	896	0	10000	4	1	0	4	0
15	897	0	10000	4	1	0	4	0
15	898	0	10000	4	1	0	4	0
14	899	0	10000	4	1	0	4	0
15	900	0	10000	4	1	0	4	0
15	901	0	10000	4	1	0	4	0
14	902	0	10000	4	1	0	4	0
11	903	0	10000	4	1	0	4	0
13	904	0	10000	4	1	0	4	0
13	905	0	10000	4	1	0	4	0
13	906	0	10000	4	1	0	4	0
13	907	0	10000	4	1	0	4	0
12	908	0	10000	4	1	0	4	0
12	909	0	10000	4	1	0	4	0
11	910	0	10000	4	1	0	4	0
10	911	0	10000	4	1	0	4	0
10	912	0	10000	4	1	0	4	0
12	913	0	10000	4	1	0	4	0
11	914	0	10000	4	1	0	4	0
11	915	0	10000	4	1	0	4	0
11	916	0	10000	4	1	0	4	0
10	917	0	10000	4	1	0	4	0
10	918	0	10000	4	1	0	4	0
10	919	0	10000	4	1	0	4	0
10	920	0	10000	4	1	0	4	0
10	921	0	10000	4	1	0	4	0
10	922	0	10000	4	1	0	4	0
8	923	0	10000	4	1	0	4	0
8	924	0	10000	4	1	0	4	0
8	925	0	10000	4	1	0	4	0
10	926	0	10000	4	1	0	4	0
12	927	0	10000	4	1	0	4	0
13	928	0	10000	4	1	0	4	0
13	929	0	10000	4	1	0	4	0
13	930	0	10000	4	1	0	4	0
12	931	0	10000	4	1	0	4	0
12	932	0	10000	4	1	0	4	0
14	933	0	10000	4	1	0	4	0
13	934	0	10000	4	1	0	4	0
13	935	0	10000	4	1	0	4	0
12	936	0	10000	4	1	0	4	0
12	937	0	10000	4	1	0	4	0
12	938	0	10000	4	1	0	4	0
12	939	0	10000	4	1	0	4	0
13	940	0	10000	4	1	0	4	0
13	941	0	10000	4	1	0	4	0
14	942	0	10000	4	1	0	4	0
12	943	0	10000	4	1	0	4	0
13	944	0	10000	4	1	0	4	0
13	945	0	10000	4	1	0	4	0
13	946	0	10000	4	1	0	4	0
13	947	0	10000	4	1	0	4	0
13	948	0	10000	4	1	0	4	0
12	949	0	10000	4	1	0	4	0
11	950	0	10000	4	1	0	4	0
10	951	0	10000	4	1	0	4	0
11	952	0	10000	4	1	0	4	0
14	953	0	10000	4	1	0	4	0
13	954	0	10000	4	1	0	4	0
14	955	0	10000	4	1	0	4	0
15	956	0	10000	4	1	0	4	0
16	957	0	10000	4	1	0	4	0
15	958	0	10000	4	1	0	4	0
15	959	0	10000	4	1	0	4	0
15	960	0	10000	4	1	0	4	0
15	961	0	10000	4	1	0	4	0
15	962	0	10000	4	1	0	4	0
12	963	0	10000	4	1	0	4	0
12	964	0	10000	4	1	0	4	0
12	965	0	10000	4	1	0	4	0
12	966	0	10000	4	1	0	4	0
12	967	0	10000	4	1	0	4	0
12	968	0	10000	4	1	0	4	0
12	969	0	10000	4	1	0	4	0
11	970	0	10000	4	1	0	4	0
11	971	0	10000	4	1	0	4	0
11	972	0	10000	4	1	0	4	0
14	973	0	10000	4	1	0	4	0
16	974	0	10000	4	1	0	4	0
16	975	0	10000	4	1	0	4	0
15	976	0	10000	4	1	0	4	0
14	977	0	10000	4	1	0	4	0
13	978	0	10000	4	1	0	4	0
13	979	0	10000	4	1	0	4	0
13	980	0	10000	4	1	0	4	0
13	981	0	10000	4	1	0	4	0
14	982	0	10000	4	1	0	4	0
12	983	0	10000	4	1	0	4	0
13	984	0	10000	4	1	0	4	0
13	985	0	10000	4	1	0	4	0
12	986	0	10000	4	1	0	4	0
12	987	0	10000	4	1	0	4	0
12	988	0	10000	4	1	0	4	0
12	989	0	10000	4	1	0	4	0
12	990	0	10000	4	1	0	4	0
11	991	0	10000	4	1	0	4	0
11	992	0	10000	4	1	0	4	0
13	993	0	10000	4	1	0	4	0
13	994	0	10000	4	1	0	4	0
12	995	0	10000	4	1	0	4	0
11	996	0	10000	4	1	0	4	0
12	997	0	10000	4	1	0	4	0
12	998	0	10000	4	1	0	4	0
11	999	0	10000	4	1	0	4	0
12	1000	0	10000	4	1	0	4	0
131	2	7	10000	5	1	0	5	0
126	3	7	10000	5	1	0	5	0
123	4	7	10000	5	1	0	5	0
120	5	7	10000	5	1	0	5	0
118	6	7	10000	5	1	0	5	0
118	7	7	10000	5	1	0	5	0
121	8	7	10000	5	1	0	5	0
130	9	7	10000	5	1	0	5	0
138	10	7	10000	5	1	0	5	0
143	11	7	10000	5	1	0	5	0
146	12	7	10000	5	1	0	5	0
146	13	7	10000	5	1	0	5	0
140	14	7	10000	5	1	0	5	0
134	15	7	10000	5	1	0	5	0
132	16	7	10000	5	1	0	5	0
135	17	7	10000	5	1	0	5	0
138	18	7	10000	5	1	0	5	0
139	19	7	10000	5	1	0	5	0
134	20	7	10000	5	1	0	5	0
129	21	7	10000	5	1	0	5	0
130	22	7	10000	5	1	0	5	0
130	23	7	10000	5	1	0	5	0
127	24	7	10000	5	1	0	5	0
123	25	7	10000	5	1	0	5	0
120	26	7	10000	5	1	0	5	0
117	27	7	10000	5	1	0	5	0
114	28	7	10000	5	1	0	5	0
114	29	7	10000	5	1	0	5	0
112	30	7	10000	5	1	0	5	0
107	31	7	10000	5	1	0	5	0
103	32	7	10000	5	1	0	5	0
99	33	7	10000	5	1	0	5	0
97	34	7	10000	5	1	0	5	0
94	35	7	10000	5	1	0	5	0
92	36	7	10000	5	1	0	5	0
92	37	7	10000	5	1	0	5	0
90	38	7	10000	5	1	0	5	0
89	39	7	10000	5	1	0	5	0
88	40	7	10000	5	1	0	5	0
86	41	7	10000	5	1	0	5	0
84	42	7	10000	5	1	0	5	0
81	43	7	10000	5	1	0	5	0
78	44	7	10000	5	1	0	5	0
77	45	7	10000	5	1	0	5	0
77	46	7	10000	5	1	0	5	0
78	47	7	10000	5	1	0	5	0
80	48	7	10000	5	1	0	5	0
85	49	7	10000	5	1	0	5	0
88	50	7	10000	5	1	0	5	0
88	51	7	10000	5	1	0	5	0
87	52	7	10000	5	1	0	5	0
86	53	7	10000	5	1	0	5	0
85	54	7	10000	5	1	0	5	0
85	55	7	10000	5	1	0	5	0
85	56	7	10000	5	1	0	5	0
85	57	7	10000	5	1	0	5	0
83	58	7	10000	5	1	0	5	0
81	59	7	10000	5	1	0	5	0
80	60	7	10000	5	1	0	5	0
79	61	7	10000	5	1	0	5	0
79	62	7	10000	5	1	0	5	0
80	63	7	10000	5	1	0	5	0
80	64	7	10000	5	1	0	5	0
82	65	7	10000	5	1	0	5	0
84	66	7	10000	5	1	0	5	0
83	67	7	10000	5	1	0	5	0
82	68	7	10000	5	1	0	5	0
84	69	7	10000	5	1	0	5	0
85	70	7	10000	5	1	0	5	0
85	71	7	10000	5	1	0	5	0
87	72	7	10000	5	1	0	5	0
88	73	7	10000	5	1	0	5	0
88	74	7	10000	5	1	0	5	0
89	75	7	10000	5	1	0	5	0
88	76	7	10000	5	1	0	5	0
87	77	7	10000	5	1	0	5	0
85	78	7	10000	5	1	0	5	0
82	79	7	10000	5	1	0	5	0
78	80	7	10000	5	1	0	5	0
77	81	7	10000	5	1	0	5	0
74	82	7	10000	5	1	0	5	0
72	83	7	10000	5	1	0	5	0
69	84	7	10000	5	1	0	5	0
67	85	7	10000	5	1	0	5	0
64	86	7	10000	5	1	0	5	0
63	87	7	10000	5	1	0	5	0
62	88	7	10000	5	1	0	5	0
63	89	7	10000	5	1	0	5	0
64	90	7	10000	5	1	0	5	0
64	91	7	10000	5	1	0	5	0
64	92	7	10000	5	1	0	5	0
62	93	7	10000	5	1	0	5	0
60	94	7	10000	5	1	0	5	0
59	95	7	10000	5	1	0	5	0
56	96	7	10000	5	1	0	5	0
54	97	7	10000	5	1	0	5	0
52	98	7	10000	5	1	0	5	0
49	99	7	10000	5	1	0	5	0
46	100	7	10000	5	1	0	5	0
45	101	7	10000	5	1	0	5	0
43	102	7	10000	5	1	0	5	0
42	103	7	10000	5	1	0	5	0
40	104	7	10000	5	1	0	5	0
39	105	7	10000	5	1	0	5	0
37	106	7	10000	5	1	0	5	0
36	107	7	10000	5	1	0	5	0
35	108	7	10000	5	1	0	5	0
36	109	7	10000	5	1	0	5	0
38	110	7	10000	5	1	0	5	0
37	111	7	10000	5	1	0	5	0
37	112	7	10000	5	1	0	5	0
37	113	7	10000	5	1	0	5	0
37	114	7	10000	5	1	0	5	0
36	115	7	10000	5	1	0	5	0
35	116	7	10000	5	1	0	5	0
34	117	7	10000	5	1	0	5	0
36	118	7	10000	5	1	0	5	0
34	119	7	10000	5	1	0	5	0
32	120	7	10000	5	1	0	5	0
33	121	7	10000	5	1	0	5	0
32	122	7	10000	5	1	0	5	0
32	123	7	10000	5	1	0	5	0
31	124	7	10000	5	1	0	5	0
30	125	7	10000	5	1	0	5	0
29	126	7	10000	5	1	0	5	0
28	127	7	10000	5	1	0	5	0
27	128	7	10000	5	1	0	5	0
26	129	7	10000	5	1	0	5	0
27	130	7	10000	5	1	0	5	0
27	131	7	10000	5	1	0	5	0
26	132	7	10000	5	1	0	5	0
26	133	7	10000	5	1	0	5	0
24	134	7	10000	5	1	0	5	0
23	135	7	10000	5	1	0	5	0
22	136	7	10000	5	1	0	5	0
22	137	7	10000	5	1	0	5	0
22	138	7	10000	5	1	0	5	0
21	139	7	10000	5	1	0	5	0
19	140	7	10000	5	1	0	5	0
19	141	7	10000	5	1	0	5	0
20	142	7	10000	5	1	0	5	0
21	143	7	10000	5	1	0	5	0
22	144	7	10000	5	1	0	5	0
22	145	7	10000	5	1	0	5	0
21	146	7	10000	5	1	0	5	0
21	147	7	10000	5	1	0	5	0
20	148	7	10000	5	1	0	5	0
20	149	7	10000	5	1	0	5	0
23	150	7	10000	5	1	0	5	0
23	151	7	10000	5	1	0	5	0
23	152	7	10000	5	1	0	5	0
22	153	7	10000	5	1	0	5	0
22	154	7	10000	5	1	0	5	0
22	155	7	10000	5	1	0	5	0
22	156	7	10000	5	1	0	5	0
20	157	7	10000	5	1	0	5	0
21	158	7	10000	5	1	0	5	0
20	159	7	10000	5	1	0	5	0
18	160	7	10000	5	1	0	5	0
18	161	7	10000	5	1	0	5	0
18	162	7	10000	5	1	0	5	0
18	163	7	10000	5	1	0	5	0
18	164	7	10000	5	1	0	5	0
17	165	7	10000	5	1	0	5	0
17	166	7	10000	5	1	0	5	0
16	167	7	10000	5	1	0	5	0
16	168	7	10000	5	1	0	5	0
16	169	7	10000	5	1	0	5	0
18	170	7	10000	5	1	0	5	0
19	171	7	10000	5	1	0	5	0
18	172	7	10000	5	1	0	5	0
18	173	7	10000	5	1	0	5	0
18	174	7	10000	5	1	0	5	0
18	175	7	10000	5	1	0	5	0
19	176	7	10000	5	1	0	5	0
19	177	7	10000	5	1	0	5	0
19	178	7	10000	5	1	0	5	0
19	179	7	10000	5	1	0	5	0
18	180	7	10000	5	1	0	5	0
18	181	7	10000	5	1	0	5	0
19	182	7	10000	5	1	0	5	0
20	183	7	10000	5	1	0	5	0
20	184	7	10000	5	1	0	5	0
20	185	7	10000	5	1	0	5	0
20	186	7	10000	5	1	0	5	0
19	187	7	10000	5	1	0	5	0
18	188	7	10000	5	1	0	5	0
18	189	7	10000	5	1	0	5	0
19	190	7	10000	5	1	0	5	0
18	191	7	10000	5	1	0	5	0
19	192	7	10000	5	1	0	5	0
18	193	7	10000	5	1	0	5	0
17	194	7	10000	5	1	0	5	0
17	195	7	10000	5	1	0	5	0
18	196	7	10000	5	1	0	5	0
19	197	7	10000	5	1	0	5	0
20	198	7	10000	5	1	0	5	0
19	199	7	10000	5	1	0	5	0
18	200	7	10000	5	1	0	5	0
18	201	7	10000	5	1	0	5	0
20	202	7	10000	5	1	0	5	0
20	203	7	10000	5	1	0	5	0
20	204	7	10000	5	1	0	5	0
20	205	7	10000	5	1	0	5	0
20	206	7	10000	5	1	0	5	0
19	207	7	10000	5	1	0	5	0
18	208	7	10000	5	1	0	5	0
18	209	7	10000	5	1	0	5	0
20	210	7	10000	5	1	0	5	0
19	211	7	10000	5	1	0	5	0
18	212	7	10000	5	1	0	5	0
18	213	7	10000	5	1	0	5	0
18	214	7	10000	5	1	0	5	0
17	215	7	10000	5	1	0	5	0
17	216	7	10000	5	1	0	5	0
18	217	7	10000	5	1	0	5	0
19	218	7	10000	5	1	0	5	0
18	219	7	10000	5	1	0	5	0
16	220	7	10000	5	1	0	5	0
16	221	7	10000	5	1	0	5	0
15	222	7	10000	5	1	0	5	0
15	223	7	10000	5	1	0	5	0
14	224	7	10000	5	1	0	5	0
14	225	7	10000	5	1	0	5	0
14	226	7	10000	5	1	0	5	0
14	227	7	10000	5	1	0	5	0
14	228	7	10000	5	1	0	5	0
15	229	7	10000	5	1	0	5	0
17	230	7	10000	5	1	0	5	0
16	231	7	10000	5	1	0	5	0
15	232	7	10000	5	1	0	5	0
15	233	7	10000	5	1	0	5	0
15	234	7	10000	5	1	0	5	0
14	235	7	10000	5	1	0	5	0
14	236	7	10000	5	1	0	5	0
14	237	7	10000	5	1	0	5	0
14	238	7	10000	5	1	0	5	0
14	239	7	10000	5	1	0	5	0
12	240	7	10000	5	1	0	5	0
13	241	7	10000	5	1	0	5	0
12	242	7	10000	5	1	0	5	0
12	243	7	10000	5	1	0	5	0
12	244	7	10000	5	1	0	5	0
12	245	7	10000	5	1	0	5	0
11	246	7	10000	5	1	0	5	0
10	247	7	10000	5	1	0	5	0
9	248	7	10000	5	1	0	5	0
10	249	7	10000	5	1	0	5	0
11	250	7	10000	5	1	0	5	0
11	251	7	10000	5	1	0	5	0
11	252	7	10000	5	1	0	5	0
10	253	7	10000	5	1	0	5	0
11	254	7	10000	5	1	0	5	0
10	255	7	10000	5	1	0	5	0
10	256	7	10000	5	1	0	5	0
12	257	7	10000	5	1	0	5	0
11	258	7	10000	5	1	0	5	0
10	259	7	10000	5	1	0	5	0
9	260	7	10000	5	1	0	5	0
10	261	7	10000	5	1	0	5	0
11	262	7	10000	5	1	0	5	0
13	263	7	10000	5	1	0	5	0
13	264	7	10000	5	1	0	5	0
13	265	7	10000	5	1	0	5	0
12	266	7	10000	5	1	0	5	0
11	267	7	10000	5	1	0	5	0
10	268	7	10000	5	1	0	5	0
11	269	7	10000	5	1	0	5	0
12	270	7	10000	5	1	0	5	0
12	271	7	10000	5	1	0	5	0
12	272	7	10000	5	1	0	5	0
11	273	7	10000	5	1	0	5	0
11	274	7	10000	5	1	0	5	0
11	275	7	10000	5	1	0	5	0
11	276	7	10000	5	1	0	5	0
12	277	7	10000	5	1	0	5	0
14	278	7	10000	5	1	0	5	0
13	279	7	10000	5	1	0	5	0
12	280	7	10000	5	1	0	5	0
13	281	7	10000	5	1	0	5	0
13	282	7	10000	5	1	0	5	0
14	283	7	10000	5	1	0	5	0
13	284	7	10000	5	1	0	5	0
13	285	7	10000	5	1	0	5	0
14	286	7	10000	5	1	0	5	0
13	287	7	10000	5	1	0	5	0
13	288	7	10000	5	1	0	5	0
13	289	7	10000	5	1	0	5	0
14	290	7	10000	5	1	0	5	0
13	291	7	10000	5	1	0	5	0
14	292	7	10000	5	1	0	5	0
13	293	7	10000	5	1	0	5	0
12	294	7	10000	5	1	0	5	0
12	295	7	10000	5	1	0	5	0
12	296	7	10000	5	1	0	5	0
12	297	7	10000	5	1	0	5	0
12	298	7	10000	5	1	0	5	0
11	299	7	10000	5	1	0	5	0
9	300	7	10000	5	1	0	5	0
9	301	7	10000	5	1	0	5	0
10	302	7	10000	5	1	0	5	0
10	303	7	10000	5	1	0	5	0
10	304	7	10000	5	1	0	5	0
10	305	7	10000	5	1	0	5	0
10	306	7	10000	5	1	0	5	0
10	307	7	10000	5	1	0	5	0
9	308	7	10000	5	1	0	5	0
10	309	7	10000	5	1	0	5	0
10	310	7	10000	5	1	0	5	0
10	311	7	10000	5	1	0	5	0
11	312	7	10000	5	1	0	5	0
10	313	7	10000	5	1	0	5	0
9	314	7	10000	5	1	0	5	0
9	315	7	10000	5	1	0	5	0
10	316	7	10000	5	1	0	5	0
11	317	7	10000	5	1	0	5	0
12	318	7	10000	5	1	0	5	0
11	319	7	10000	5	1	0	5	0
10	320	7	10000	5	1	0	5	0
10	321	7	10000	5	1	0	5	0
10	322	7	10000	5	1	0	5	0
11	323	7	10000	5	1	0	5	0
11	324	7	10000	5	1	0	5	0
11	325	7	10000	5	1	0	5	0
11	326	7	10000	5	1	0	5	0
12	327	7	10000	5	1	0	5	0
11	328	7	10000	5	1	0	5	0
12	329	7	10000	5	1	0	5	0
13	330	7	10000	5	1	0	5	0
12	331	7	10000	5	1	0	5	0
13	332	7	10000	5	1	0	5	0
12	333	7	10000	5	1	0	5	0
12	334	7	10000	5	1	0	5	0
12	335	7	10000	5	1	0	5	0
11	336	7	10000	5	1	0	5	0
12	337	7	10000	5	1	0	5	0
12	338	7	10000	5	1	0	5	0
11	339	7	10000	5	1	0	5	0
9	340	7	10000	5	1	0	5	0
12	341	7	10000	5	1	0	5	0
16	342	7	10000	5	1	0	5	0
22	343	7	10000	5	1	0	5	0
27	344	7	10000	5	1	0	5	0
32	345	7	10000	5	1	0	5	0
32	346	7	10000	5	1	0	5	0
31	347	7	10000	5	1	0	5	0
35	348	7	10000	5	1	0	5	0
43	349	7	10000	5	1	0	5	0
51	350	7	10000	5	1	0	5	0
57	351	7	10000	5	1	0	5	0
63	352	7	10000	5	1	0	5	0
63	353	7	10000	5	1	0	5	0
62	354	7	10000	5	1	0	5	0
59	355	7	10000	5	1	0	5	0
57	356	7	10000	5	1	0	5	0
56	357	7	10000	5	1	0	5	0
56	358	7	10000	5	1	0	5	0
53	359	7	10000	5	1	0	5	0
52	360	7	10000	5	1	0	5	0
55	361	7	10000	5	1	0	5	0
56	362	7	10000	5	1	0	5	0
58	363	7	10000	5	1	0	5	0
59	364	7	10000	5	1	0	5	0
58	365	7	10000	5	1	0	5	0
61	366	7	10000	5	1	0	5	0
65	367	7	10000	5	1	0	5	0
64	368	7	10000	5	1	0	5	0
63	369	7	10000	5	1	0	5	0
62	370	7	10000	5	1	0	5	0
67	371	7	10000	5	1	0	5	0
74	372	7	10000	5	1	0	5	0
75	373	7	10000	5	1	0	5	0
75	374	7	10000	5	1	0	5	0
80	375	7	10000	5	1	0	5	0
83	376	7	10000	5	1	0	5	0
82	377	7	10000	5	1	0	5	0
82	378	7	10000	5	1	0	5	0
84	379	7	10000	5	1	0	5	0
85	380	7	10000	5	1	0	5	0
92	381	7	10000	5	1	0	5	0
95	382	7	10000	5	1	0	5	0
92	383	7	10000	5	1	0	5	0
92	384	7	10000	5	1	0	5	0
92	385	7	10000	5	1	0	5	0
90	386	7	10000	5	1	0	5	0
91	387	7	10000	5	1	0	5	0
89	388	7	10000	5	1	0	5	0
90	389	7	10000	5	1	0	5	0
90	390	7	10000	5	1	0	5	0
87	391	7	10000	5	1	0	5	0
89	392	7	10000	5	1	0	5	0
88	393	7	10000	5	1	0	5	0
85	394	7	10000	5	1	0	5	0
84	395	7	10000	5	1	0	5	0
82	396	7	10000	5	1	0	5	0
82	397	7	10000	5	1	0	5	0
82	398	7	10000	5	1	0	5	0
79	399	7	10000	5	1	0	5	0
75	400	7	10000	5	1	0	5	0
74	401	7	10000	5	1	0	5	0
74	402	7	10000	5	1	0	5	0
77	403	7	10000	5	1	0	5	0
80	404	7	10000	5	1	0	5	0
80	405	7	10000	5	1	0	5	0
82	406	7	10000	5	1	0	5	0
85	407	7	10000	5	1	0	5	0
82	408	7	10000	5	1	0	5	0
84	409	7	10000	5	1	0	5	0
92	410	7	10000	5	1	0	5	0
90	411	7	10000	5	1	0	5	0
92	412	7	10000	5	1	0	5	0
90	413	7	10000	5	1	0	5	0
87	414	7	10000	5	1	0	5	0
87	415	7	10000	5	1	0	5	0
93	416	7	10000	5	1	0	5	0
95	417	7	10000	5	1	0	5	0
94	418	7	10000	5	1	0	5	0
93	419	7	10000	5	1	0	5	0
87	420	7	10000	5	1	0	5	0
86	421	7	10000	5	1	0	5	0
84	422	7	10000	5	1	0	5	0
81	423	7	10000	5	1	0	5	0
77	424	7	10000	5	1	0	5	0
75	425	7	10000	5	1	0	5	0
74	426	7	10000	5	1	0	5	0
72	427	7	10000	5	1	0	5	0
73	428	7	10000	5	1	0	5	0
73	429	7	10000	5	1	0	5	0
75	430	7	10000	5	1	0	5	0
73	431	7	10000	5	1	0	5	0
69	432	7	10000	5	1	0	5	0
67	433	7	10000	5	1	0	5	0
66	434	7	10000	5	1	0	5	0
64	435	7	10000	5	1	0	5	0
63	436	7	10000	5	1	0	5	0
63	437	7	10000	5	1	0	5	0
63	438	7	10000	5	1	0	5	0
63	439	7	10000	5	1	0	5	0
62	440	7	10000	5	1	0	5	0
63	441	7	10000	5	1	0	5	0
62	442	7	10000	5	1	0	5	0
63	443	7	10000	5	1	0	5	0
63	444	7	10000	5	1	0	5	0
65	445	7	10000	5	1	0	5	0
67	446	7	10000	5	1	0	5	0
68	447	7	10000	5	1	0	5	0
69	448	7	10000	5	1	0	5	0
69	449	7	10000	5	1	0	5	0
71	450	7	10000	5	1	0	5	0
72	451	7	10000	5	1	0	5	0
72	452	7	10000	5	1	0	5	0
73	453	7	10000	5	1	0	5	0
74	454	7	10000	5	1	0	5	0
75	455	7	10000	5	1	0	5	0
77	456	7	10000	5	1	0	5	0
79	457	7	10000	5	1	0	5	0
80	458	7	10000	5	1	0	5	0
78	459	7	10000	5	1	0	5	0
76	460	7	10000	5	1	0	5	0
75	461	7	10000	5	1	0	5	0
75	462	7	10000	5	1	0	5	0
76	463	7	10000	5	1	0	5	0
79	464	7	10000	5	1	0	5	0
80	465	7	10000	5	1	0	5	0
82	466	7	10000	5	1	0	5	0
84	467	7	10000	5	1	0	5	0
85	468	7	10000	5	1	0	5	0
86	469	7	10000	5	1	0	5	0
88	470	7	10000	5	1	0	5	0
87	471	7	10000	5	1	0	5	0
84	472	7	10000	5	1	0	5	0
83	473	7	10000	5	1	0	5	0
81	474	7	10000	5	1	0	5	0
80	475	7	10000	5	1	0	5	0
79	476	7	10000	5	1	0	5	0
79	477	7	10000	5	1	0	5	0
78	478	7	10000	5	1	0	5	0
76	479	7	10000	5	1	0	5	0
72	480	7	10000	5	1	0	5	0
71	481	7	10000	5	1	0	5	0
69	482	7	10000	5	1	0	5	0
69	483	7	10000	5	1	0	5	0
69	484	7	10000	5	1	0	5	0
70	485	7	10000	5	1	0	5	0
70	486	7	10000	5	1	0	5	0
68	487	7	10000	5	1	0	5	0
66	488	7	10000	5	1	0	5	0
66	489	7	10000	5	1	0	5	0
67	490	7	10000	5	1	0	5	0
65	491	7	10000	5	1	0	5	0
63	492	7	10000	5	1	0	5	0
60	493	7	10000	5	1	0	5	0
57	494	7	10000	5	1	0	5	0
55	495	7	10000	5	1	0	5	0
53	496	7	10000	5	1	0	5	0
52	497	7	10000	5	1	0	5	0
51	498	7	10000	5	1	0	5	0
48	499	7	10000	5	1	0	5	0
45	500	7	10000	5	1	0	5	0
44	501	7	10000	5	1	0	5	0
44	501	7	10000	5	1	0	5	1
43	502	7	10000	5	1	0	5	1
41	504	7	10000	5	1	0	5	1
39	505	7	10000	5	1	0	5	1
38	506	7	10000	5	1	0	5	1
37	507	7	10000	5	1	0	5	1
36	508	7	10000	5	1	0	5	1
36	509	7	10000	5	1	0	5	1
37	510	7	10000	5	1	0	5	1
35	511	7	10000	5	1	0	5	1
34	512	7	10000	5	1	0	5	1
33	513	7	10000	5	1	0	5	1
33	514	7	10000	5	1	0	5	1
32	515	7	10000	5	1	0	5	1
31	516	7	10000	5	1	0	5	1
31	517	7	10000	5	1	0	5	1
31	518	7	10000	5	1	0	5	1
30	519	7	10000	5	1	0	5	1
29	520	7	10000	5	1	0	5	1
29	521	7	10000	5	1	0	5	1
29	522	7	10000	5	1	0	5	1
29	523	7	10000	5	1	0	5	1
29	524	7	10000	5	1	0	5	1
28	525	7	10000	5	1	0	5	1
27	526	7	10000	5	1	0	5	1
25	527	7	10000	5	1	0	5	1
24	528	7	10000	5	1	0	5	1
25	529	7	10000	5	1	0	5	1
26	530	7	10000	5	1	0	5	1
25	531	7	10000	5	1	0	5	1
25	532	7	10000	5	1	0	5	1
25	533	7	10000	5	1	0	5	1
25	534	7	10000	5	1	0	5	1
25	535	7	10000	5	1	0	5	1
24	536	7	10000	5	1	0	5	1
25	537	7	10000	5	1	0	5	1
27	538	7	10000	5	1	0	5	1
26	539	7	10000	5	1	0	5	1
24	540	7	10000	5	1	0	5	1
24	541	7	10000	5	1	0	5	1
23	542	7	10000	5	1	0	5	1
23	543	7	10000	5	1	0	5	1
24	544	7	10000	5	1	0	5	1
23	545	7	10000	5	1	0	5	1
22	546	7	10000	5	1	0	5	1
22	547	7	10000	5	1	0	5	1
21	548	7	10000	5	1	0	5	1
22	549	7	10000	5	1	0	5	1
23	550	7	10000	5	1	0	5	1
23	551	7	10000	5	1	0	5	1
23	552	7	10000	5	1	0	5	0
23	553	7	10000	5	1	0	5	0
24	554	7	10000	5	1	0	5	0
25	555	7	10000	5	1	0	5	0
26	556	7	10000	5	1	0	5	0
26	557	7	10000	5	1	0	5	0
27	558	7	10000	5	1	0	5	0
27	559	7	10000	5	1	0	5	0
26	560	7	10000	5	1	0	5	0
26	561	7	10000	5	1	0	5	0
25	562	7	10000	5	1	0	5	0
25	563	7	10000	5	1	0	5	0
24	564	7	10000	5	1	0	5	0
24	565	7	10000	5	1	0	5	0
23	566	7	10000	5	1	0	5	0
23	567	7	10000	5	1	0	5	0
22	568	7	10000	5	1	0	5	0
22	569	7	10000	5	1	0	5	0
23	570	7	10000	5	1	0	5	0
22	571	7	10000	5	1	0	5	0
22	572	7	10000	5	1	0	5	0
22	573	7	10000	5	1	0	5	0
22	574	7	10000	5	1	0	5	0
21	575	7	10000	5	1	0	5	0
20	576	7	10000	5	1	0	5	0
20	577	7	10000	5	1	0	5	0
21	578	7	10000	5	1	0	5	0
20	579	7	10000	5	1	0	5	0
18	580	7	10000	5	1	0	5	0
20	581	7	10000	5	1	0	5	0
21	582	7	10000	5	1	0	5	0
24	583	7	10000	5	1	0	5	0
27	584	7	10000	5	1	0	5	0
29	585	7	10000	5	1	0	5	0
31	586	7	10000	5	1	0	5	0
31	587	7	10000	5	1	0	5	0
33	588	7	10000	5	1	0	5	0
36	589	7	10000	5	1	0	5	0
37	590	7	10000	5	1	0	5	0
37	591	7	10000	5	1	0	5	0
39	592	7	10000	5	1	0	5	0
77	593	7	10000	5	1	0	5	0
135	594	7	10000	5	1	0	5	0
149	595	7	10000	5	1	0	5	0
163	596	7	10000	5	1	0	5	0
198	597	7	10000	5	1	0	5	0
214	598	7	10000	5	1	0	5	0
231	599	7	10000	5	1	0	5	0
269	600	7	10000	5	1	0	5	0
272	601	7	10000	5	1	0	5	0
302	602	7	10000	5	1	0	5	0
327	603	7	10000	5	1	0	5	0
338	604	7	10000	5	1	0	5	0
327	605	7	10000	5	1	0	5	0
318	606	7	10000	5	1	0	5	0
316	607	7	10000	5	1	0	5	0
315	608	7	10000	5	1	0	5	0
319	609	7	10000	5	1	0	5	0
318	610	7	10000	5	1	0	5	0
318	611	7	10000	5	1	0	5	0
320	612	7	10000	5	1	0	5	0
322	613	7	10000	5	1	0	5	0
324	614	7	10000	5	1	0	5	0
321	615	7	10000	5	1	0	5	0
312	616	7	10000	5	1	0	5	0
300	617	7	10000	5	1	0	5	0
288	618	7	10000	5	1	0	5	0
278	619	7	10000	5	1	0	5	0
276	620	7	10000	5	1	0	5	0
284	621	7	10000	5	1	0	5	0
294	622	7	10000	5	1	0	5	0
295	623	7	10000	5	1	0	5	0
284	624	7	10000	5	1	0	5	0
271	625	7	10000	5	1	0	5	0
263	626	7	10000	5	1	0	5	0
260	627	7	10000	5	1	0	5	0
259	628	7	10000	5	1	0	5	0
258	629	7	10000	5	1	0	5	0
254	630	7	10000	5	1	0	5	0
248	631	7	10000	5	1	0	5	0
243	632	7	10000	5	1	0	5	0
237	633	7	10000	5	1	0	5	0
232	634	7	10000	5	1	0	5	0
226	635	7	10000	5	1	0	5	0
222	636	7	10000	5	1	0	5	0
216	637	7	10000	5	1	0	5	0
210	638	7	10000	5	1	0	5	0
204	639	7	10000	5	1	0	5	0
194	640	7	10000	5	1	0	5	0
188	641	7	10000	5	1	0	5	0
180	642	7	10000	5	1	0	5	0
171	643	7	10000	5	1	0	5	0
164	644	7	10000	5	1	0	5	0
159	645	7	10000	5	1	0	5	0
155	646	7	10000	5	1	0	5	0
149	647	7	10000	5	1	0	5	0
143	648	7	10000	5	1	0	5	0
139	649	7	10000	5	1	0	5	0
136	650	7	10000	5	1	0	5	0
132	651	7	10000	5	1	0	5	0
129	652	7	10000	5	1	0	5	0
129	653	7	10000	5	1	0	5	0
129	654	7	10000	5	1	0	5	0
128	655	7	10000	5	1	0	5	0
126	656	7	10000	5	1	0	5	0
126	657	7	10000	5	1	0	5	0
128	658	7	10000	5	1	0	5	0
128	659	7	10000	5	1	0	5	0
126	660	7	10000	5	1	0	5	0
127	661	7	10000	5	1	0	5	0
128	662	7	10000	5	1	0	5	0
128	663	7	10000	5	1	0	5	0
129	664	7	10000	5	1	0	5	0
131	665	7	10000	5	1	0	5	0
130	666	7	10000	5	1	0	5	0
128	667	7	10000	5	1	0	5	0
128	668	7	10000	5	1	0	5	0
129	669	7	10000	5	1	0	5	0
130	670	7	10000	5	1	0	5	0
128	671	7	10000	5	1	0	5	0
127	672	7	10000	5	1	0	5	0
123	673	7	10000	5	1	0	5	0
122	674	7	10000	5	1	0	5	0
118	675	7	10000	5	1	0	5	0
116	676	7	10000	5	1	0	5	0
113	677	7	10000	5	1	0	5	0
111	678	7	10000	5	1	0	5	0
105	679	7	10000	5	1	0	5	0
101	680	7	10000	5	1	0	5	0
98	681	7	10000	5	1	0	5	0
95	682	7	10000	5	1	0	5	0
92	683	7	10000	5	1	0	5	0
89	684	7	10000	5	1	0	5	0
87	685	7	10000	5	1	0	5	0
84	686	7	10000	5	1	0	5	0
80	687	7	10000	5	1	0	5	0
77	688	7	10000	5	1	0	5	0
73	689	7	10000	5	1	0	5	0
72	690	7	10000	5	1	0	5	0
70	691	7	10000	5	1	0	5	0
66	692	7	10000	5	1	0	5	0
63	693	7	10000	5	1	0	5	0
60	694	7	10000	5	1	0	5	0
57	695	7	10000	5	1	0	5	0
55	696	7	10000	5	1	0	5	0
54	697	7	10000	5	1	0	5	0
53	698	7	10000	5	1	0	5	0
53	699	7	10000	5	1	0	5	0
50	700	7	10000	5	1	0	5	0
50	701	7	10000	5	1	0	5	0
50	702	7	10000	5	1	0	5	0
50	703	7	10000	5	1	0	5	0
48	704	7	10000	5	1	0	5	0
46	705	7	10000	5	1	0	5	0
44	706	7	10000	5	1	0	5	0
42	707	7	10000	5	1	0	5	0
41	708	7	10000	5	1	0	5	0
42	709	7	10000	5	1	0	5	0
43	710	7	10000	5	1	0	5	0
42	711	7	10000	5	1	0	5	0
42	712	7	10000	5	1	0	5	0
42	713	7	10000	5	1	0	5	0
42	714	7	10000	5	1	0	5	0
42	715	7	10000	5	1	0	5	0
41	716	7	10000	5	1	0	5	0
42	717	7	10000	5	1	0	5	0
41	718	7	10000	5	1	0	5	0
40	719	7	10000	5	1	0	5	0
40	720	7	10000	5	1	0	5	0
40	721	7	10000	5	1	0	5	0
41	722	7	10000	5	1	0	5	0
41	723	7	10000	5	1	0	5	0
40	724	7	10000	5	1	0	5	0
39	725	7	10000	5	1	0	5	0
38	726	7	10000	5	1	0	5	0
37	727	7	10000	5	1	0	5	0
34	728	7	10000	5	1	0	5	0
35	729	7	10000	5	1	0	5	0
37	730	7	10000	5	1	0	5	0
36	731	7	10000	5	1	0	5	0
37	732	7	10000	5	1	0	5	0
35	733	7	10000	5	1	0	5	0
34	734	7	10000	5	1	0	5	0
33	735	7	10000	5	1	0	5	0
31	736	7	10000	5	1	0	5	0
31	737	7	10000	5	1	0	5	0
31	738	7	10000	5	1	0	5	0
30	739	7	10000	5	1	0	5	0
28	740	7	10000	5	1	0	5	0
29	741	7	10000	5	1	0	5	0
28	742	7	10000	5	1	0	5	0
29	743	7	10000	5	1	0	5	0
28	744	7	10000	5	1	0	5	0
27	745	7	10000	5	1	0	5	0
26	746	7	10000	5	1	0	5	0
24	747	7	10000	5	1	0	5	0
22	748	7	10000	5	1	0	5	0
23	749	7	10000	5	1	0	5	0
23	750	7	10000	5	1	0	5	0
23	751	7	10000	5	1	0	5	0
22	752	7	10000	5	1	0	5	0
22	753	7	10000	5	1	0	5	0
21	754	7	10000	5	1	0	5	0
21	755	7	10000	5	1	0	5	0
20	756	7	10000	5	1	0	5	0
20	757	7	10000	5	1	0	5	0
21	758	7	10000	5	1	0	5	0
20	759	7	10000	5	1	0	5	0
19	760	7	10000	5	1	0	5	0
20	761	7	10000	5	1	0	5	0
20	762	7	10000	5	1	0	5	0
19	763	7	10000	5	1	0	5	0
20	764	7	10000	5	1	0	5	0
20	765	7	10000	5	1	0	5	0
20	766	7	10000	5	1	0	5	0
20	767	7	10000	5	1	0	5	0
19	768	7	10000	5	1	0	5	0
19	769	7	10000	5	1	0	5	0
20	770	7	10000	5	1	0	5	0
20	771	7	10000	5	1	0	5	0
21	772	7	10000	5	1	0	5	0
20	773	7	10000	5	1	0	5	0
20	774	7	10000	5	1	0	5	0
20	775	7	10000	5	1	0	5	0
19	776	7	10000	5	1	0	5	0
19	777	7	10000	5	1	0	5	0
19	778	7	10000	5	1	0	5	0
19	779	7	10000	5	1	0	5	0
18	780	7	10000	5	1	0	5	0
19	781	7	10000	5	1	0	5	0
19	782	7	10000	5	1	0	5	0
19	783	7	10000	5	1	0	5	0
19	784	7	10000	5	1	0	5	0
20	785	7	10000	5	1	0	5	0
18	786	7	10000	5	1	0	5	0
19	787	7	10000	5	1	0	5	0
18	788	7	10000	5	1	0	5	0
18	789	7	10000	5	1	0	5	0
19	790	7	10000	5	1	0	5	0
18	791	7	10000	5	1	0	5	0
17	792	7	10000	5	1	0	5	0
16	793	7	10000	5	1	0	5	0
16	794	7	10000	5	1	0	5	0
16	795	7	10000	5	1	0	5	0
16	796	7	10000	5	1	0	5	0
15	797	7	10000	5	1	0	5	0
16	798	7	10000	5	1	0	5	0
15	799	7	10000	5	1	0	5	0
12	800	7	10000	5	1	0	5	0
13	801	7	10000	5	1	0	5	0
