value	EMG	Stimulus	EMG_sensitivity	Total_Trial_Nr	practise	acq	probe_nr	Startle_Probe
20	2	10	10000	1	1	0	1	0
20	3	10	10000	1	1	0	1	0
19	4	10	10000	1	1	0	1	0
19	5	10	10000	1	1	0	1	0
19	6	10	10000	1	1	0	1	0
18	7	10	10000	1	1	0	1	0
17	8	10	10000	1	1	0	1	0
17	9	10	10000	1	1	0	1	0
19	10	10	10000	1	1	0	1	0
18	11	10	10000	1	1	0	1	0
18	12	10	10000	1	1	0	1	0
17	13	10	10000	1	1	0	1	0
17	14	10	10000	1	1	0	1	0
17	15	10	10000	1	1	0	1	0
17	16	10	10000	1	1	0	1	0
16	17	10	10000	1	1	0	1	0
17	18	10	10000	1	1	0	1	0
16	19	10	10000	1	1	0	1	0
15	20	10	10000	1	1	0	1	0
15	21	10	10000	1	1	0	1	0
14	22	10	10000	1	1	0	1	0
15	23	10	10000	1	1	0	1	0
15	24	10	10000	1	1	0	1	0
15	25	10	10000	1	1	0	1	0
14	26	10	10000	1	1	0	1	0
14	27	10	10000	1	1	0	1	0
14	28	10	10000	1	1	0	1	0
14	29	10	10000	1	1	0	1	0
15	30	10	10000	1	1	0	1	0
14	31	10	10000	1	1	0	1	0
14	32	10	10000	1	1	0	1	0
13	33	10	10000	1	1	0	1	0
13	34	10	10000	1	1	0	1	0
12	35	10	10000	1	1	0	1	0
11	36	10	10000	1	1	0	1	0
12	37	10	10000	1	1	0	1	0
11	38	10	10000	1	1	0	1	0
10	39	10	10000	1	1	0	1	0
9	40	10	10000	1	1	0	1	0
10	41	10	10000	1	1	0	1	0
10	42	10	10000	1	1	0	1	0
11	43	10	10000	1	1	0	1	0
12	44	10	10000	1	1	0	1	0
11	45	10	10000	1	1	0	1	0
11	46	10	10000	1	1	0	1	0
12	47	10	10000	1	1	0	1	0
11	48	10	10000	1	1	0	1	0
12	49	10	10000	1	1	0	1	0
14	50	10	10000	1	1	0	1	0
13	51	10	10000	1	1	0	1	0
13	52	10	10000	1	1	0	1	0
14	53	10	10000	1	1	0	1	0
14	54	10	10000	1	1	0	1	0
14	55	10	10000	1	1	0	1	0
14	56	10	10000	1	1	0	1	0
14	57	10	10000	1	1	0	1	0
14	58	10	10000	1	1	0	1	0
14	59	10	10000	1	1	0	1	0
13	60	10	10000	1	1	0	1	0
12	61	10	10000	1	1	0	1	0
13	62	10	10000	1	1	0	1	0
13	63	10	10000	1	1	0	1	0
13	64	10	10000	1	1	0	1	0
12	65	10	10000	1	1	0	1	0
12	66	10	10000	1	1	0	1	0
12	67	10	10000	1	1	0	1	0
12	68	10	10000	1	1	0	1	0
12	69	10	10000	1	1	0	1	0
12	70	10	10000	1	1	0	1	0
12	71	10	10000	1	1	0	1	0
12	72	10	10000	1	1	0	1	0
12	73	10	10000	1	1	0	1	0
12	74	10	10000	1	1	0	1	0
11	75	10	10000	1	1	0	1	0
11	76	10	10000	1	1	0	1	0
12	77	10	10000	1	1	0	1	0
11	78	10	10000	1	1	0	1	0
10	79	10	10000	1	1	0	1	0
9	80	10	10000	1	1	0	1	0
10	81	10	10000	1	1	0	1	0
10	82	10	10000	1	1	0	1	0
10	83	10	10000	1	1	0	1	0
10	84	10	10000	1	1	0	1	0
10	85	10	10000	1	1	0	1	0
10	86	10	10000	1	1	0	1	0
10	87	10	10000	1	1	0	1	0
10	88	10	10000	1	1	0	1	0
12	89	10	10000	1	1	0	1	0
15	90	10	10000	1	1	0	1	0
15	91	10	10000	1	1	0	1	0
15	92	10	10000	1	1	0	1	0
15	93	10	10000	1	1	0	1	0
15	94	10	10000	1	1	0	1	0
15	95	10	10000	1	1	0	1	0
15	96	10	10000	1	1	0	1	0
15	97	10	10000	1	1	0	1	0
15	98	10	10000	1	1	0	1	0
14	99	10	10000	1	1	0	1	0
13	100	10	10000	1	1	0	1	0
13	101	10	10000	1	1	0	1	0
14	102	10	10000	1	1	0	1	0
15	103	10	10000	1	1	0	1	0
15	104	10	10000	1	1	0	1	0
16	105	10	10000	1	1	0	1	0
18	106	10	10000	1	1	0	1	0
17	107	10	10000	1	1	0	1	0
15	108	10	10000	1	1	0	1	0
17	109	10	10000	1	1	0	1	0
17	110	10	10000	1	1	0	1	0
16	111	10	10000	1	1	0	1	0
16	112	10	10000	1	1	0	1	0
15	113	10	10000	1	1	0	1	0
15	114	10	10000	1	1	0	1	0
16	115	10	10000	1	1	0	1	0
15	116	10	10000	1	1	0	1	0
15	117	10	10000	1	1	0	1	0
15	118	10	10000	1	1	0	1	0
14	119	10	10000	1	1	0	1	0
12	120	10	10000	1	1	0	1	0
13	121	10	10000	1	1	0	1	0
12	122	10	10000	1	1	0	1	0
12	123	10	10000	1	1	0	1	0
12	124	10	10000	1	1	0	1	0
11	125	10	10000	1	1	0	1	0
11	126	10	10000	1	1	0	1	0
11	127	10	10000	1	1	0	1	0
11	128	10	10000	1	1	0	1	0
12	129	10	10000	1	1	0	1	0
14	130	10	10000	1	1	0	1	0
15	131	10	10000	1	1	0	1	0
14	132	10	10000	1	1	0	1	0
14	133	10	10000	1	1	0	1	0
13	134	10	10000	1	1	0	1	0
12	135	10	10000	1	1	0	1	0
12	136	10	10000	1	1	0	1	0
13	137	10	10000	1	1	0	1	0
12	138	10	10000	1	1	0	1	0
12	139	10	10000	1	1	0	1	0
11	140	10	10000	1	1	0	1	0
11	141	10	10000	1	1	0	1	0
12	142	10	10000	1	1	0	1	0
12	143	10	10000	1	1	0	1	0
13	144	10	10000	1	1	0	1	0
12	145	10	10000	1	1	0	1	0
13	146	10	10000	1	1	0	1	0
12	147	10	10000	1	1	0	1	0
11	148	10	10000	1	1	0	1	0
12	149	10	10000	1	1	0	1	0
13	150	10	10000	1	1	0	1	0
13	151	10	10000	1	1	0	1	0
13	152	10	10000	1	1	0	1	0
12	153	10	10000	1	1	0	1	0
12	154	10	10000	1	1	0	1	0
11	155	10	10000	1	1	0	1	0
12	156	10	10000	1	1	0	1	0
11	157	10	10000	1	1	0	1	0
11	158	10	10000	1	1	0	1	0
11	159	10	10000	1	1	0	1	0
9	160	10	10000	1	1	0	1	0
9	161	10	10000	1	1	0	1	0
10	162	10	10000	1	1	0	1	0
9	163	10	10000	1	1	0	1	0
9	164	10	10000	1	1	0	1	0
10	165	10	10000	1	1	0	1	0
9	166	10	10000	1	1	0	1	0
9	167	10	10000	1	1	0	1	0
9	168	10	10000	1	1	0	1	0
9	169	10	10000	1	1	0	1	0
10	170	10	10000	1	1	0	1	0
10	171	10	10000	1	1	0	1	0
9	172	10	10000	1	1	0	1	0
9	173	10	10000	1	1	0	1	0
9	174	10	10000	1	1	0	1	0
9	175	10	10000	1	1	0	1	0
9	176	10	10000	1	1	0	1	0
10	177	10	10000	1	1	0	1	0
9	178	10	10000	1	1	0	1	0
9	179	10	10000	1	1	0	1	0
8	180	10	10000	1	1	0	1	0
8	181	10	10000	1	1	0	1	0
8	182	10	10000	1	1	0	1	0
8	183	10	10000	1	1	0	1	0
8	184	10	10000	1	1	0	1	0
8	185	10	10000	1	1	0	1	0
8	186	10	10000	1	1	0	1	0
7	187	10	10000	1	1	0	1	0
7	188	10	10000	1	1	0	1	0
7	189	10	10000	1	1	0	1	0
8	190	10	10000	1	1	0	1	0
8	191	10	10000	1	1	0	1	0
8	192	10	10000	1	1	0	1	0
8	193	10	10000	1	1	0	1	0
8	194	10	10000	1	1	0	1	0
8	195	10	10000	1	1	0	1	0
8	196	10	10000	1	1	0	1	0
9	197	10	10000	1	1	0	1	0
10	198	10	10000	1	1	0	1	0
9	199	10	10000	1	1	0	1	0
8	200	10	10000	1	1	0	1	0
10	201	10	10000	1	1	0	1	0
11	202	10	10000	1	1	0	1	0
11	203	10	10000	1	1	0	1	0
11	204	10	10000	1	1	0	1	0
11	205	10	10000	1	1	0	1	0
10	206	10	10000	1	1	0	1	0
10	207	10	10000	1	1	0	1	0
9	208	10	10000	1	1	0	1	0
10	209	10	10000	1	1	0	1	0
11	210	10	10000	1	1	0	1	0
11	211	10	10000	1	1	0	1	0
11	212	10	10000	1	1	0	1	0
12	213	10	10000	1	1	0	1	0
12	214	10	10000	1	1	0	1	0
12	215	10	10000	1	1	0	1	0
12	216	10	10000	1	1	0	1	0
11	217	10	10000	1	1	0	1	0
12	218	10	10000	1	1	0	1	0
11	219	10	10000	1	1	0	1	0
10	220	10	10000	1	1	0	1	0
11	221	10	10000	1	1	0	1	0
11	222	10	10000	1	1	0	1	0
11	223	10	10000	1	1	0	1	0
12	224	10	10000	1	1	0	1	0
11	225	10	10000	1	1	0	1	0
11	226	10	10000	1	1	0	1	0
10	227	10	10000	1	1	0	1	0
9	228	10	10000	1	1	0	1	0
9	229	10	10000	1	1	0	1	0
11	230	10	10000	1	1	0	1	0
11	231	10	10000	1	1	0	1	0
12	232	10	10000	1	1	0	1	0
14	233	10	10000	1	1	0	1	0
14	234	10	10000	1	1	0	1	0
14	235	10	10000	1	1	0	1	0
14	236	10	10000	1	1	0	1	0
14	237	10	10000	1	1	0	1	0
14	238	10	10000	1	1	0	1	0
14	239	10	10000	1	1	0	1	0
13	240	10	10000	1	1	0	1	0
13	241	10	10000	1	1	0	1	0
13	242	10	10000	1	1	0	1	0
13	243	10	10000	1	1	0	1	0
13	244	10	10000	1	1	0	1	0
13	245	10	10000	1	1	0	1	0
12	246	10	10000	1	1	0	1	0
12	247	10	10000	1	1	0	1	0
12	248	10	10000	1	1	0	1	0
12	249	10	10000	1	1	0	1	0
13	250	10	10000	1	1	0	1	0
13	251	10	10000	1	1	0	1	0
14	252	10	10000	1	1	0	1	0
13	253	10	10000	1	1	0	1	0
13	254	10	10000	1	1	0	1	0
12	255	10	10000	1	1	0	1	0
13	256	10	10000	1	1	0	1	0
14	257	10	10000	1	1	0	1	0
14	258	10	10000	1	1	0	1	0
13	259	10	10000	1	1	0	1	0
12	260	10	10000	1	1	0	1	0
12	261	10	10000	1	1	0	1	0
11	262	10	10000	1	1	0	1	0
11	263	10	10000	1	1	0	1	0
11	264	10	10000	1	1	0	1	0
10	265	10	10000	1	1	0	1	0
12	266	10	10000	1	1	0	1	0
12	267	10	10000	1	1	0	1	0
12	268	10	10000	1	1	0	1	0
13	269	10	10000	1	1	0	1	0
14	270	10	10000	1	1	0	1	0
13	271	10	10000	1	1	0	1	0
13	272	10	10000	1	1	0	1	0
12	273	10	10000	1	1	0	1	0
13	274	10	10000	1	1	0	1	0
12	275	10	10000	1	1	0	1	0
13	276	10	10000	1	1	0	1	0
14	277	10	10000	1	1	0	1	0
15	278	10	10000	1	1	0	1	0
14	279	10	10000	1	1	0	1	0
13	280	10	10000	1	1	0	1	0
13	281	10	10000	1	1	0	1	0
12	282	10	10000	1	1	0	1	0
13	283	10	10000	1	1	0	1	0
12	284	10	10000	1	1	0	1	0
13	285	10	10000	1	1	0	1	0
13	286	10	10000	1	1	0	1	0
12	287	10	10000	1	1	0	1	0
10	288	10	10000	1	1	0	1	0
12	289	10	10000	1	1	0	1	0
12	290	10	10000	1	1	0	1	0
11	291	10	10000	1	1	0	1	0
12	292	10	10000	1	1	0	1	0
11	293	10	10000	1	1	0	1	0
10	294	10	10000	1	1	0	1	0
10	295	10	10000	1	1	0	1	0
10	296	10	10000	1	1	0	1	0
10	297	10	10000	1	1	0	1	0
11	298	10	10000	1	1	0	1	0
10	299	10	10000	1	1	0	1	0
9	300	10	10000	1	1	0	1	0
9	301	10	10000	1	1	0	1	0
10	302	10	10000	1	1	0	1	0
11	303	10	10000	1	1	0	1	0
10	304	10	10000	1	1	0	1	0
10	305	10	10000	1	1	0	1	0
9	306	10	10000	1	1	0	1	0
9	307	10	10000	1	1	0	1	0
8	308	10	10000	1	1	0	1	0
8	309	10	10000	1	1	0	1	0
10	310	10	10000	1	1	0	1	0
9	311	10	10000	1	1	0	1	0
9	312	10	10000	1	1	0	1	0
8	313	10	10000	1	1	0	1	0
9	314	10	10000	1	1	0	1	0
9	315	10	10000	1	1	0	1	0
8	316	10	10000	1	1	0	1	0
9	317	10	10000	1	1	0	1	0
9	318	10	10000	1	1	0	1	0
9	319	10	10000	1	1	0	1	0
9	320	10	10000	1	1	0	1	0
12	321	10	10000	1	1	0	1	0
14	322	10	10000	1	1	0	1	0
16	323	10	10000	1	1	0	1	0
17	324	10	10000	1	1	0	1	0
19	325	10	10000	1	1	0	1	0
19	326	10	10000	1	1	0	1	0
18	327	10	10000	1	1	0	1	0
18	328	10	10000	1	1	0	1	0
19	329	10	10000	1	1	0	1	0
20	330	10	10000	1	1	0	1	0
19	331	10	10000	1	1	0	1	0
19	332	10	10000	1	1	0	1	0
20	333	10	10000	1	1	0	1	0
20	334	10	10000	1	1	0	1	0
20	335	10	10000	1	1	0	1	0
21	336	10	10000	1	1	0	1	0
22	337	10	10000	1	1	0	1	0
23	338	10	10000	1	1	0	1	0
24	339	10	10000	1	1	0	1	0
22	340	10	10000	1	1	0	1	0
23	341	10	10000	1	1	0	1	0
25	342	10	10000	1	1	0	1	0
26	343	10	10000	1	1	0	1	0
26	344	10	10000	1	1	0	1	0
26	345	10	10000	1	1	0	1	0
25	346	10	10000	1	1	0	1	0
25	347	10	10000	1	1	0	1	0
26	348	10	10000	1	1	0	1	0
26	349	10	10000	1	1	0	1	0
26	350	10	10000	1	1	0	1	0
25	351	10	10000	1	1	0	1	0
24	352	10	10000	1	1	0	1	0
23	353	10	10000	1	1	0	1	0
25	354	10	10000	1	1	0	1	0
24	355	10	10000	1	1	0	1	0
25	356	10	10000	1	1	0	1	0
27	357	10	10000	1	1	0	1	0
29	358	10	10000	1	1	0	1	0
30	359	10	10000	1	1	0	1	0
29	360	10	10000	1	1	0	1	0
31	361	10	10000	1	1	0	1	0
32	362	10	10000	1	1	0	1	0
32	363	10	10000	1	1	0	1	0
32	364	10	10000	1	1	0	1	0
32	365	10	10000	1	1	0	1	0
31	366	10	10000	1	1	0	1	0
31	367	10	10000	1	1	0	1	0
29	368	10	10000	1	1	0	1	0
30	369	10	10000	1	1	0	1	0
32	370	10	10000	1	1	0	1	0
31	371	10	10000	1	1	0	1	0
30	372	10	10000	1	1	0	1	0
31	373	10	10000	1	1	0	1	0
30	374	10	10000	1	1	0	1	0
29	375	10	10000	1	1	0	1	0
28	376	10	10000	1	1	0	1	0
27	377	10	10000	1	1	0	1	0
27	378	10	10000	1	1	0	1	0
25	379	10	10000	1	1	0	1	0
22	380	10	10000	1	1	0	1	0
22	381	10	10000	1	1	0	1	0
22	382	10	10000	1	1	0	1	0
23	383	10	10000	1	1	0	1	0
22	384	10	10000	1	1	0	1	0
21	385	10	10000	1	1	0	1	0
20	386	10	10000	1	1	0	1	0
19	387	10	10000	1	1	0	1	0
20	388	10	10000	1	1	0	1	0
20	389	10	10000	1	1	0	1	0
22	390	10	10000	1	1	0	1	0
21	391	10	10000	1	1	0	1	0
20	392	10	10000	1	1	0	1	0
19	393	10	10000	1	1	0	1	0
19	394	10	10000	1	1	0	1	0
20	395	10	10000	1	1	0	1	0
18	396	10	10000	1	1	0	1	0
18	397	10	10000	1	1	0	1	0
19	398	10	10000	1	1	0	1	0
17	399	10	10000	1	1	0	1	0
15	400	10	10000	1	1	0	1	0
16	401	10	10000	1	1	0	1	0
15	402	10	10000	1	1	0	1	0
16	403	10	10000	1	1	0	1	0
16	404	10	10000	1	1	0	1	0
15	405	10	10000	1	1	0	1	0
14	406	10	10000	1	1	0	1	0
15	407	10	10000	1	1	0	1	0
13	408	10	10000	1	1	0	1	0
14	409	10	10000	1	1	0	1	0
15	410	10	10000	1	1	0	1	0
15	411	10	10000	1	1	0	1	0
15	412	10	10000	1	1	0	1	0
14	413	10	10000	1	1	0	1	0
14	414	10	10000	1	1	0	1	0
13	415	10	10000	1	1	0	1	0
13	416	10	10000	1	1	0	1	0
13	417	10	10000	1	1	0	1	0
13	418	10	10000	1	1	0	1	0
13	419	10	10000	1	1	0	1	0
11	420	10	10000	1	1	0	1	0
11	421	10	10000	1	1	0	1	0
11	422	10	10000	1	1	0	1	0
11	423	10	10000	1	1	0	1	0
11	424	10	10000	1	1	0	1	0
11	425	10	10000	1	1	0	1	0
11	426	10	10000	1	1	0	1	0
10	427	10	10000	1	1	0	1	0
10	428	10	10000	1	1	0	1	0
10	429	10	10000	1	1	0	1	0
12	430	10	10000	1	1	0	1	0
11	431	10	10000	1	1	0	1	0
11	432	10	10000	1	1	0	1	0
11	433	10	10000	1	1	0	1	0
11	434	10	10000	1	1	0	1	0
11	435	10	10000	1	1	0	1	0
13	436	10	10000	1	1	0	1	0
13	437	10	10000	1	1	0	1	0
14	438	10	10000	1	1	0	1	0
13	439	10	10000	1	1	0	1	0
12	440	10	10000	1	1	0	1	0
12	441	10	10000	1	1	0	1	0
12	442	10	10000	1	1	0	1	0
12	443	10	10000	1	1	0	1	0
12	444	10	10000	1	1	0	1	0
12	445	10	10000	1	1	0	1	0
13	446	10	10000	1	1	0	1	0
14	447	10	10000	1	1	0	1	0
14	448	10	10000	1	1	0	1	0
14	449	10	10000	1	1	0	1	0
17	450	10	10000	1	1	0	1	0
16	451	10	10000	1	1	0	1	0
16	452	10	10000	1	1	0	1	0
15	453	10	10000	1	1	0	1	0
15	454	10	10000	1	1	0	1	0
14	455	10	10000	1	1	0	1	0
14	456	10	10000	1	1	0	1	0
15	457	10	10000	1	1	0	1	0
15	458	10	10000	1	1	0	1	0
15	459	10	10000	1	1	0	1	0
15	460	10	10000	1	1	0	1	0
15	461	10	10000	1	1	0	1	0
15	462	10	10000	1	1	0	1	0
16	463	10	10000	1	1	0	1	0
15	464	10	10000	1	1	0	1	0
15	465	10	10000	1	1	0	1	0
16	466	10	10000	1	1	0	1	0
15	467	10	10000	1	1	0	1	0
14	468	10	10000	1	1	0	1	0
15	469	10	10000	1	1	0	1	0
16	470	10	10000	1	1	0	1	0
15	471	10	10000	1	1	0	1	0
14	472	10	10000	1	1	0	1	0
14	473	10	10000	1	1	0	1	0
13	474	10	10000	1	1	0	1	0
13	475	10	10000	1	1	0	1	0
13	476	10	10000	1	1	0	1	0
13	477	10	10000	1	1	0	1	0
15	478	10	10000	1	1	0	1	0
17	479	10	10000	1	1	0	1	0
16	480	10	10000	1	1	0	1	0
17	481	10	10000	1	1	0	1	0
18	482	10	10000	1	1	0	1	0
25	483	10	10000	1	1	0	1	0
28	484	10	10000	1	1	0	1	0
27	485	10	10000	1	1	0	1	0
31	486	10	10000	1	1	0	1	0
50	487	10	10000	1	1	0	1	0
56	488	10	10000	1	1	0	1	0
60	489	10	10000	1	1	0	1	0
70	490	10	10000	1	1	0	1	0
69	491	10	10000	1	1	0	1	0
83	492	10	10000	1	1	0	1	0
129	493	10	10000	1	1	0	1	0
169	494	10	10000	1	1	0	1	0
168	495	10	10000	1	1	0	1	0
164	496	10	10000	1	1	0	1	0
181	497	10	10000	1	1	0	1	0
213	498	10	10000	1	1	0	1	0
237	499	10	10000	1	1	0	1	0
232	500	10	10000	1	1	0	1	0
226	501	10	10000	1	1	0	1	0
225	550	10	10000	1	1	0	1	1
233	551	10	10000	1	1	0	1	1
228	552	10	10000	1	1	0	1	1
228	553	10	10000	1	1	0	1	1
224	554	10	10000	1	1	0	1	1
229	555	10	10000	1	1	0	1	1
233	556	10	10000	1	1	0	1	1
268	557	10	10000	1	1	0	1	1
303	558	10	10000	1	1	0	1	1
304	559	10	10000	1	1	0	1	1
322	560	10	10000	1	1	0	1	1
322	561	10	10000	1	1	0	1	1
338	562	10	10000	1	1	0	1	1
351	563	10	10000	1	1	0	1	1
353	564	10	10000	1	1	0	1	1
387	565	10	10000	1	1	0	1	1
413	566	10	10000	1	1	0	1	1
417	567	10	10000	1	1	0	1	1
403	568	10	10000	1	1	0	1	1
386	569	10	10000	1	1	0	1	1
374	570	10	10000	1	1	0	1	1
365	571	10	10000	1	1	0	1	1
359	572	10	10000	1	1	0	1	1
354	573	10	10000	1	1	0	1	1
347	574	10	10000	1	1	0	1	1
339	575	10	10000	1	1	0	1	1
333	576	10	10000	1	1	0	1	1
330	577	10	10000	1	1	0	1	1
336	578	10	10000	1	1	0	1	1
341	579	10	10000	1	1	0	1	1
328	580	10	10000	1	1	0	1	1
316	581	10	10000	1	1	0	1	1
314	582	10	10000	1	1	0	1	1
309	583	10	10000	1	1	0	1	1
295	584	10	10000	1	1	0	1	1
284	585	10	10000	1	1	0	1	1
278	586	10	10000	1	1	0	1	1
270	587	10	10000	1	1	0	1	1
267	588	10	10000	1	1	0	1	1
263	589	10	10000	1	1	0	1	1
253	590	10	10000	1	1	0	1	1
245	591	10	10000	1	1	0	1	1
236	592	10	10000	1	1	0	1	1
230	593	10	10000	1	1	0	1	1
224	594	10	10000	1	1	0	1	1
217	595	10	10000	1	1	0	1	1
213	596	10	10000	1	1	0	1	1
211	597	10	10000	1	1	0	1	1
211	598	10	10000	1	1	0	1	1
209	599	10	10000	1	1	0	1	1
207	557	10	10000	1	1	0	1	0
205	558	10	10000	1	1	0	1	0
202	559	10	10000	1	1	0	1	0
199	560	10	10000	1	1	0	1	0
195	561	10	10000	1	1	0	1	0
191	562	10	10000	1	1	0	1	0
186	558	10	10000	1	1	0	1	0
178	559	10	10000	1	1	0	1	0
170	560	10	10000	1	1	0	1	0
165	561	10	10000	1	1	0	1	0
162	562	10	10000	1	1	0	1	0
161	563	10	10000	1	1	0	1	0
162	564	10	10000	1	1	0	1	0
164	565	10	10000	1	1	0	1	0
166	566	10	10000	1	1	0	1	0
167	567	10	10000	1	1	0	1	0
167	568	10	10000	1	1	0	1	0
168	569	10	10000	1	1	0	1	0
169	570	10	10000	1	1	0	1	0
166	571	10	10000	1	1	0	1	0
164	572	10	10000	1	1	0	1	0
160	573	10	10000	1	1	0	1	0
156	574	10	10000	1	1	0	1	0
152	575	10	10000	1	1	0	1	0
148	576	10	10000	1	1	0	1	0
143	577	10	10000	1	1	0	1	0
139	578	10	10000	1	1	0	1	0
132	579	10	10000	1	1	0	1	0
125	580	10	10000	1	1	0	1	0
120	581	10	10000	1	1	0	1	0
114	582	10	10000	1	1	0	1	0
109	583	10	10000	1	1	0	1	0
106	584	10	10000	1	1	0	1	0
103	585	10	10000	1	1	0	1	0
102	586	10	10000	1	1	0	1	0
102	587	10	10000	1	1	0	1	0
103	588	10	10000	1	1	0	1	0
104	589	10	10000	1	1	0	1	0
105	590	10	10000	1	1	0	1	0
105	591	10	10000	1	1	0	1	0
104	592	10	10000	1	1	0	1	0
103	593	10	10000	1	1	0	1	0
101	594	10	10000	1	1	0	1	0
98	595	10	10000	1	1	0	1	0
94	596	10	10000	1	1	0	1	0
90	597	10	10000	1	1	0	1	0
87	598	10	10000	1	1	0	1	0
84	599	10	10000	1	1	0	1	0
79	600	10	10000	1	1	0	1	0
76	601	10	10000	1	1	0	1	0
75	602	10	10000	1	1	0	1	0
72	603	10	10000	1	1	0	1	0
69	604	10	10000	1	1	0	1	0
66	605	10	10000	1	1	0	1	0
64	606	10	10000	1	1	0	1	0
61	607	10	10000	1	1	0	1	0
60	608	10	10000	1	1	0	1	0
59	609	10	10000	1	1	0	1	0
60	610	10	10000	1	1	0	1	0
58	611	10	10000	1	1	0	1	0
56	612	10	10000	1	1	0	1	0
53	613	10	10000	1	1	0	1	0
52	614	10	10000	1	1	0	1	0
52	615	10	10000	1	1	0	1	0
53	616	10	10000	1	1	0	1	0
56	617	10	10000	1	1	0	1	0
57	618	10	10000	1	1	0	1	0
59	619	10	10000	1	1	0	1	0
60	620	10	10000	1	1	0	1	0
64	621	10	10000	1	1	0	1	0
64	622	10	10000	1	1	0	1	0
64	623	10	10000	1	1	0	1	0
63	624	10	10000	1	1	0	1	0
63	625	10	10000	1	1	0	1	0
61	626	10	10000	1	1	0	1	0
59	627	10	10000	1	1	0	1	0
56	628	10	10000	1	1	0	1	0
54	629	10	10000	1	1	0	1	0
54	630	10	10000	1	1	0	1	0
53	631	10	10000	1	1	0	1	0
51	632	10	10000	1	1	0	1	0
50	633	10	10000	1	1	0	1	0
50	634	10	10000	1	1	0	1	0
49	635	10	10000	1	1	0	1	0
49	636	10	10000	1	1	0	1	0
51	637	10	10000	1	1	0	1	0
53	638	10	10000	1	1	0	1	0
55	639	10	10000	1	1	0	1	0
56	640	10	10000	1	1	0	1	0
58	641	10	10000	1	1	0	1	0
60	642	10	10000	1	1	0	1	0
61	643	10	10000	1	1	0	1	0
61	644	10	10000	1	1	0	1	0
60	645	10	10000	1	1	0	1	0
59	646	10	10000	1	1	0	1	0
58	647	10	10000	1	1	0	1	0
57	648	10	10000	1	1	0	1	0
58	649	10	10000	1	1	0	1	0
59	650	10	10000	1	1	0	1	0
57	651	10	10000	1	1	0	1	0
58	652	10	10000	1	1	0	1	0
56	653	10	10000	1	1	0	1	0
56	654	10	10000	1	1	0	1	0
67	655	10	10000	1	1	0	1	0
74	656	10	10000	1	1	0	1	0
74	657	10	10000	1	1	0	1	0
71	658	10	10000	1	1	0	1	0
71	659	10	10000	1	1	0	1	0
67	660	10	10000	1	1	0	1	0
65	661	10	10000	1	1	0	1	0
62	662	10	10000	1	1	0	1	0
62	663	10	10000	1	1	0	1	0
67	664	10	10000	1	1	0	1	0
70	665	10	10000	1	1	0	1	0
71	666	10	10000	1	1	0	1	0
68	667	10	10000	1	1	0	1	0
67	668	10	10000	1	1	0	1	0
66	669	10	10000	1	1	0	1	0
67	670	10	10000	1	1	0	1	0
67	671	10	10000	1	1	0	1	0
70	672	10	10000	1	1	0	1	0
69	673	10	10000	1	1	0	1	0
73	674	10	10000	1	1	0	1	0
76	675	10	10000	1	1	0	1	0
75	676	10	10000	1	1	0	1	0
73	677	10	10000	1	1	0	1	0
74	678	10	10000	1	1	0	1	0
76	679	10	10000	1	1	0	1	0
77	680	10	10000	1	1	0	1	0
80	681	10	10000	1	1	0	1	0
81	682	10	10000	1	1	0	1	0
81	683	10	10000	1	1	0	1	0
80	684	10	10000	1	1	0	1	0
78	685	10	10000	1	1	0	1	0
79	686	10	10000	1	1	0	1	0
79	687	10	10000	1	1	0	1	0
76	688	10	10000	1	1	0	1	0
73	689	10	10000	1	1	0	1	0
73	690	10	10000	1	1	0	1	0
69	691	10	10000	1	1	0	1	0
67	692	10	10000	1	1	0	1	0
65	693	10	10000	1	1	0	1	0
61	694	10	10000	1	1	0	1	0
58	695	10	10000	1	1	0	1	0
56	696	10	10000	1	1	0	1	0
55	697	10	10000	1	1	0	1	0
54	698	10	10000	1	1	0	1	0
52	699	10	10000	1	1	0	1	0
49	700	10	10000	1	1	0	1	0
46	701	10	10000	1	1	0	1	0
45	702	10	10000	1	1	0	1	0
44	703	10	10000	1	1	0	1	0
42	704	10	10000	1	1	0	1	0
42	705	10	10000	1	1	0	1	0
43	706	10	10000	1	1	0	1	0
44	707	10	10000	1	1	0	1	0
45	708	10	10000	1	1	0	1	0
47	709	10	10000	1	1	0	1	0
48	710	10	10000	1	1	0	1	0
47	711	10	10000	1	1	0	1	0
46	712	10	10000	1	1	0	1	0
44	713	10	10000	1	1	0	1	0
43	714	10	10000	1	1	0	1	0
41	715	10	10000	1	1	0	1	0
40	716	10	10000	1	1	0	1	0
40	717	10	10000	1	1	0	1	0
39	718	10	10000	1	1	0	1	0
38	719	10	10000	1	1	0	1	0
36	720	10	10000	1	1	0	1	0
35	721	10	10000	1	1	0	1	0
34	722	10	10000	1	1	0	1	0
35	723	10	10000	1	1	0	1	0
36	724	10	10000	1	1	0	1	0
38	725	10	10000	1	1	0	1	0
40	726	10	10000	1	1	0	1	0
40	727	10	10000	1	1	0	1	0
40	728	10	10000	1	1	0	1	0
42	729	10	10000	1	1	0	1	0
45	730	10	10000	1	1	0	1	0
46	731	10	10000	1	1	0	1	0
48	732	10	10000	1	1	0	1	0
49	733	10	10000	1	1	0	1	0
50	734	10	10000	1	1	0	1	0
51	735	10	10000	1	1	0	1	0
53	736	10	10000	1	1	0	1	0
55	737	10	10000	1	1	0	1	0
53	738	10	10000	1	1	0	1	0
52	739	10	10000	1	1	0	1	0
52	740	10	10000	1	1	0	1	0
52	741	10	10000	1	1	0	1	0
53	742	10	10000	1	1	0	1	0
53	743	10	10000	1	1	0	1	0
52	744	10	10000	1	1	0	1	0
52	745	10	10000	1	1	0	1	0
55	746	10	10000	1	1	0	1	0
55	747	10	10000	1	1	0	1	0
54	748	10	10000	1	1	0	1	0
53	749	10	10000	1	1	0	1	0
52	750	10	10000	1	1	0	1	0
49	751	10	10000	1	1	0	1	0
48	752	10	10000	1	1	0	1	0
45	753	10	10000	1	1	0	1	0
44	754	10	10000	1	1	0	1	0
43	755	10	10000	1	1	0	1	0
41	756	10	10000	1	1	0	1	0
41	757	10	10000	1	1	0	1	0
42	758	10	10000	1	1	0	1	0
40	759	10	10000	1	1	0	1	0
39	760	10	10000	1	1	0	1	0
39	761	10	10000	1	1	0	1	0
39	762	10	10000	1	1	0	1	0
38	763	10	10000	1	1	0	1	0
38	764	10	10000	1	1	0	1	0
39	765	10	10000	1	1	0	1	0
40	766	10	10000	1	1	0	1	0
39	767	10	10000	1	1	0	1	0
38	768	10	10000	1	1	0	1	0
39	769	10	10000	1	1	0	1	0
42	770	10	10000	1	1	0	1	0
43	771	10	10000	1	1	0	1	0
42	772	10	10000	1	1	0	1	0
40	773	10	10000	1	1	0	1	0
40	774	10	10000	1	1	0	1	0
42	775	10	10000	1	1	0	1	0
43	776	10	10000	1	1	0	1	0
44	777	10	10000	1	1	0	1	0
46	778	10	10000	1	1	0	1	0
46	779	10	10000	1	1	0	1	0
43	780	10	10000	1	1	0	1	0
42	781	10	10000	1	1	0	1	0
41	782	10	10000	1	1	0	1	0
41	783	10	10000	1	1	0	1	0
42	784	10	10000	1	1	0	1	0
43	785	10	10000	1	1	0	1	0
44	786	10	10000	1	1	0	1	0
44	787	10	10000	1	1	0	1	0
45	788	10	10000	1	1	0	1	0
46	789	10	10000	1	1	0	1	0
49	790	10	10000	1	1	0	1	0
50	791	10	10000	1	1	0	1	0
49	792	10	10000	1	1	0	1	0
50	793	10	10000	1	1	0	1	0
49	794	10	10000	1	1	0	1	0
50	795	10	10000	1	1	0	1	0
51	796	10	10000	1	1	0	1	0
50	797	10	10000	1	1	0	1	0
48	798	10	10000	1	1	0	1	0
48	799	10	10000	1	1	0	1	0
44	800	10	10000	1	1	0	1	0
43	801	10	10000	1	1	0	1	0
42	802	10	10000	1	1	0	1	0
40	803	10	10000	1	1	0	1	0
39	804	10	10000	1	1	0	1	0
38	805	10	10000	1	1	0	1	0
36	806	10	10000	1	1	0	1	0
34	807	10	10000	1	1	0	1	0
33	808	10	10000	1	1	0	1	0
32	809	10	10000	1	1	0	1	0
34	810	10	10000	1	1	0	1	0
34	811	10	10000	1	1	0	1	0
32	812	10	10000	1	1	0	1	0
31	813	10	10000	1	1	0	1	0
30	814	10	10000	1	1	0	1	0
29	815	10	10000	1	1	0	1	0
29	816	10	10000	1	1	0	1	0
29	817	10	10000	1	1	0	1	0
29	818	10	10000	1	1	0	1	0
28	819	10	10000	1	1	0	1	0
26	820	10	10000	1	1	0	1	0
25	821	10	10000	1	1	0	1	0
25	822	10	10000	1	1	0	1	0
23	823	10	10000	1	1	0	1	0
23	824	10	10000	1	1	0	1	0
22	825	10	10000	1	1	0	1	0
22	826	10	10000	1	1	0	1	0
21	827	10	10000	1	1	0	1	0
20	828	10	10000	1	1	0	1	0
21	829	10	10000	1	1	0	1	0
22	830	10	10000	1	1	0	1	0
22	831	10	10000	1	1	0	1	0
22	832	10	10000	1	1	0	1	0
21	833	10	10000	1	1	0	1	0
20	834	10	10000	1	1	0	1	0
19	835	10	10000	1	1	0	1	0
19	836	10	10000	1	1	0	1	0
19	837	10	10000	1	1	0	1	0
20	838	10	10000	1	1	0	1	0
20	839	10	10000	1	1	0	1	0
20	840	10	10000	1	1	0	1	0
20	841	10	10000	1	1	0	1	0
20	842	10	10000	1	1	0	1	0
20	843	10	10000	1	1	0	1	0
20	844	10	10000	1	1	0	1	0
20	845	10	10000	1	1	0	1	0
21	846	10	10000	1	1	0	1	0
20	847	10	10000	1	1	0	1	0
19	848	10	10000	1	1	0	1	0
20	849	10	10000	1	1	0	1	0
21	850	10	10000	1	1	0	1	0
20	851	10	10000	1	1	0	1	0
20	852	10	10000	1	1	0	1	0
18	853	10	10000	1	1	0	1	0
18	854	10	10000	1	1	0	1	0
18	855	10	10000	1	1	0	1	0
16	856	10	10000	1	1	0	1	0
17	857	10	10000	1	1	0	1	0
19	858	10	10000	1	1	0	1	0
18	859	10	10000	1	1	0	1	0
17	860	10	10000	1	1	0	1	0
19	861	10	10000	1	1	0	1	0
18	862	10	10000	1	1	0	1	0
19	863	10	10000	1	1	0	1	0
20	864	10	10000	1	1	0	1	0
19	865	10	10000	1	1	0	1	0
19	866	10	10000	1	1	0	1	0
19	867	10	10000	1	1	0	1	0
18	868	10	10000	1	1	0	1	0
18	869	10	10000	1	1	0	1	0
19	870	10	10000	1	1	0	1	0
19	871	10	10000	1	1	0	1	0
19	872	10	10000	1	1	0	1	0
20	873	10	10000	1	1	0	1	0
20	874	10	10000	1	1	0	1	0
21	875	10	10000	1	1	0	1	0
22	876	10	10000	1	1	0	1	0
22	877	10	10000	1	1	0	1	0
22	878	10	10000	1	1	0	1	0
22	879	10	10000	1	1	0	1	0
19	880	10	10000	1	1	0	1	0
19	881	10	10000	1	1	0	1	0
19	882	10	10000	1	1	0	1	0
18	883	10	10000	1	1	0	1	0
18	884	10	10000	1	1	0	1	0
18	885	10	10000	1	1	0	1	0
18	886	10	10000	1	1	0	1	0
18	887	10	10000	1	1	0	1	0
19	888	10	10000	1	1	0	1	0
20	889	10	10000	1	1	0	1	0
22	890	10	10000	1	1	0	1	0
23	891	10	10000	1	1	0	1	0
24	892	10	10000	1	1	0	1	0
23	893	10	10000	1	1	0	1	0
22	894	10	10000	1	1	0	1	0
22	895	10	10000	1	1	0	1	0
21	896	10	10000	1	1	0	1	0
21	897	10	10000	1	1	0	1	0
21	898	10	10000	1	1	0	1	0
20	899	10	10000	1	1	0	1	0
18	900	10	10000	1	1	0	1	0
18	901	10	10000	1	1	0	1	0
17	902	10	10000	1	1	0	1	0
17	903	10	10000	1	1	0	1	0
16	904	10	10000	1	1	0	1	0
17	905	10	10000	1	1	0	1	0
17	906	10	10000	1	1	0	1	0
17	907	10	10000	1	1	0	1	0
16	908	10	10000	1	1	0	1	0
15	909	10	10000	1	1	0	1	0
16	910	10	10000	1	1	0	1	0
16	911	10	10000	1	1	0	1	0
14	912	10	10000	1	1	0	1	0
14	913	10	10000	1	1	0	1	0
16	914	10	10000	1	1	0	1	0
16	915	10	10000	1	1	0	1	0
15	916	10	10000	1	1	0	1	0
17	917	10	10000	1	1	0	1	0
17	918	10	10000	1	1	0	1	0
17	919	10	10000	1	1	0	1	0
17	920	10	10000	1	1	0	1	0
17	921	10	10000	1	1	0	1	0
17	922	10	10000	1	1	0	1	0
17	923	10	10000	1	1	0	1	0
17	924	10	10000	1	1	0	1	0
17	925	10	10000	1	1	0	1	0
18	926	10	10000	1	1	0	1	0
16	927	10	10000	1	1	0	1	0
15	928	10	10000	1	1	0	1	0
15	929	10	10000	1	1	0	1	0
17	930	10	10000	1	1	0	1	0
17	931	10	10000	1	1	0	1	0
17	932	10	10000	1	1	0	1	0
17	933	10	10000	1	1	0	1	0
17	934	10	10000	1	1	0	1	0
16	935	10	10000	1	1	0	1	0
15	936	10	10000	1	1	0	1	0
17	937	10	10000	1	1	0	1	0
20	938	10	10000	1	1	0	1	0
21	939	10	10000	1	1	0	1	0
20	940	10	10000	1	1	0	1	0
21	941	10	10000	1	1	0	1	0
22	942	10	10000	1	1	0	1	0
22	943	10	10000	1	1	0	1	0
23	944	10	10000	1	1	0	1	0
25	945	10	10000	1	1	0	1	0
25	946	10	10000	1	1	0	1	0
24	947	10	10000	1	1	0	1	0
22	948	10	10000	1	1	0	1	0
22	949	10	10000	1	1	0	1	0
23	950	10	10000	1	1	0	1	0
22	951	10	10000	1	1	0	1	0
21	952	10	10000	1	1	0	1	0
20	953	10	10000	1	1	0	1	0
20	954	10	10000	1	1	0	1	0
18	955	10	10000	1	1	0	1	0
18	956	10	10000	1	1	0	1	0
18	957	10	10000	1	1	0	1	0
18	958	10	10000	1	1	0	1	0
19	959	10	10000	1	1	0	1	0
17	960	10	10000	1	1	0	1	0
18	961	10	10000	1	1	0	1	0
17	962	10	10000	1	1	0	1	0
18	963	10	10000	1	1	0	1	0
17	964	10	10000	1	1	0	1	0
17	965	10	10000	1	1	0	1	0
16	966	10	10000	1	1	0	1	0
16	967	10	10000	1	1	0	1	0
14	968	10	10000	1	1	0	1	0
15	969	10	10000	1	1	0	1	0
17	970	10	10000	1	1	0	1	0
17	971	10	10000	1	1	0	1	0
17	972	10	10000	1	1	0	1	0
17	973	10	10000	1	1	0	1	0
18	974	10	10000	1	1	0	1	0
18	975	10	10000	1	1	0	1	0
20	976	10	10000	1	1	0	1	0
20	977	10	10000	1	1	0	1	0
21	978	10	10000	1	1	0	1	0
20	979	10	10000	1	1	0	1	0
19	980	10	10000	1	1	0	1	0
20	981	10	10000	1	1	0	1	0
20	982	10	10000	1	1	0	1	0
20	983	10	10000	1	1	0	1	0
20	984	10	10000	1	1	0	1	0
21	985	10	10000	1	1	0	1	0
21	986	10	10000	1	1	0	1	0
21	987	10	10000	1	1	0	1	0
21	988	10	10000	1	1	0	1	0
22	989	10	10000	1	1	0	1	0
25	990	10	10000	1	1	0	1	0
26	991	10	10000	1	1	0	1	0
27	992	10	10000	1	1	0	1	0
28	993	10	10000	1	1	0	1	0
28	994	10	10000	1	1	0	1	0
27	995	10	10000	1	1	0	1	0
25	996	10	10000	1	1	0	1	0
25	997	10	10000	1	1	0	1	0
24	998	10	10000	1	1	0	1	0
23	999	10	10000	1	1	0	1	0
22	1000	10	10000	1	1	0	1	0
22	1001	10	10000	1	1	0	1	0
11	1	0	10000	2	1	0	2	0
11	2	0	10000	2	1	0	2	0
12	3	0	10000	2	1	0	2	0
13	4	0	10000	2	1	0	2	0
14	5	0	10000	2	1	0	2	0
16	6	0	10000	2	1	0	2	0
16	7	0	10000	2	1	0	2	0
16	8	0	10000	2	1	0	2	0
16	9	0	10000	2	1	0	2	0
13	10	0	10000	2	1	0	2	0
13	11	0	10000	2	1	0	2	0
14	12	0	10000	2	1	0	2	0
14	13	0	10000	2	1	0	2	0
13	14	0	10000	2	1	0	2	0
14	15	0	10000	2	1	0	2	0
14	16	0	10000	2	1	0	2	0
13	17	0	10000	2	1	0	2	0
13	18	0	10000	2	1	0	2	0
13	19	0	10000	2	1	0	2	0
14	20	0	10000	2	1	0	2	0
13	21	0	10000	2	1	0	2	0
13	22	0	10000	2	1	0	2	0
13	23	0	10000	2	1	0	2	0
13	24	0	10000	2	1	0	2	0
13	25	0	10000	2	1	0	2	0
13	26	0	10000	2	1	0	2	0
14	27	0	10000	2	1	0	2	0
14	28	0	10000	2	1	0	2	0
13	29	0	10000	2	1	0	2	0
11	30	0	10000	2	1	0	2	0
12	31	0	10000	2	1	0	2	0
12	32	0	10000	2	1	0	2	0
12	33	0	10000	2	1	0	2	0
11	34	0	10000	2	1	0	2	0
12	35	0	10000	2	1	0	2	0
11	36	0	10000	2	1	0	2	0
11	37	0	10000	2	1	0	2	0
11	38	0	10000	2	1	0	2	0
12	39	0	10000	2	1	0	2	0
12	40	0	10000	2	1	0	2	0
12	41	0	10000	2	1	0	2	0
11	42	0	10000	2	1	0	2	0
10	43	0	10000	2	1	0	2	0
10	44	0	10000	2	1	0	2	0
11	45	0	10000	2	1	0	2	0
11	46	0	10000	2	1	0	2	0
11	47	0	10000	2	1	0	2	0
11	48	0	10000	2	1	0	2	0
10	49	0	10000	2	1	0	2	0
9	50	0	10000	2	1	0	2	0
9	51	0	10000	2	1	0	2	0
9	52	0	10000	2	1	0	2	0
11	53	0	10000	2	1	0	2	0
12	54	0	10000	2	1	0	2	0
13	55	0	10000	2	1	0	2	0
12	56	0	10000	2	1	0	2	0
11	57	0	10000	2	1	0	2	0
11	58	0	10000	2	1	0	2	0
12	59	0	10000	2	1	0	2	0
13	60	0	10000	2	1	0	2	0
13	61	0	10000	2	1	0	2	0
14	62	0	10000	2	1	0	2	0
14	63	0	10000	2	1	0	2	0
15	64	0	10000	2	1	0	2	0
16	65	0	10000	2	1	0	2	0
15	66	0	10000	2	1	0	2	0
15	67	0	10000	2	1	0	2	0
16	68	0	10000	2	1	0	2	0
15	69	0	10000	2	1	0	2	0
14	70	0	10000	2	1	0	2	0
15	71	0	10000	2	1	0	2	0
15	72	0	10000	2	1	0	2	0
15	73	0	10000	2	1	0	2	0
16	74	0	10000	2	1	0	2	0
16	75	0	10000	2	1	0	2	0
15	76	0	10000	2	1	0	2	0
15	77	0	10000	2	1	0	2	0
15	78	0	10000	2	1	0	2	0
17	79	0	10000	2	1	0	2	0
20	80	0	10000	2	1	0	2	0
21	81	0	10000	2	1	0	2	0
20	82	0	10000	2	1	0	2	0
19	83	0	10000	2	1	0	2	0
20	84	0	10000	2	1	0	2	0
20	85	0	10000	2	1	0	2	0
21	86	0	10000	2	1	0	2	0
23	87	0	10000	2	1	0	2	0
26	88	0	10000	2	1	0	2	0
26	89	0	10000	2	1	0	2	0
25	90	0	10000	2	1	0	2	0
26	91	0	10000	2	1	0	2	0
26	92	0	10000	2	1	0	2	0
26	93	0	10000	2	1	0	2	0
25	94	0	10000	2	1	0	2	0
25	95	0	10000	2	1	0	2	0
24	96	0	10000	2	1	0	2	0
23	97	0	10000	2	1	0	2	0
22	98	0	10000	2	1	0	2	0
23	99	0	10000	2	1	0	2	0
24	100	0	10000	2	1	0	2	0
24	101	0	10000	2	1	0	2	0
24	102	0	10000	2	1	0	2	0
23	103	0	10000	2	1	0	2	0
23	104	0	10000	2	1	0	2	0
21	105	0	10000	2	1	0	2	0
21	106	0	10000	2	1	0	2	0
22	107	0	10000	2	1	0	2	0
22	108	0	10000	2	1	0	2	0
22	109	0	10000	2	1	0	2	0
21	110	0	10000	2	1	0	2	0
22	111	0	10000	2	1	0	2	0
22	112	0	10000	2	1	0	2	0
22	113	0	10000	2	1	0	2	0
21	114	0	10000	2	1	0	2	0
21	115	0	10000	2	1	0	2	0
22	116	0	10000	2	1	0	2	0
21	117	0	10000	2	1	0	2	0
21	118	0	10000	2	1	0	2	0
20	119	0	10000	2	1	0	2	0
22	120	0	10000	2	1	0	2	0
22	121	0	10000	2	1	0	2	0
20	122	0	10000	2	1	0	2	0
20	123	0	10000	2	1	0	2	0
20	124	0	10000	2	1	0	2	0
18	125	0	10000	2	1	0	2	0
18	126	0	10000	2	1	0	2	0
19	127	0	10000	2	1	0	2	0
20	128	0	10000	2	1	0	2	0
20	129	0	10000	2	1	0	2	0
19	130	0	10000	2	1	0	2	0
19	131	0	10000	2	1	0	2	0
20	132	0	10000	2	1	0	2	0
19	133	0	10000	2	1	0	2	0
19	134	0	10000	2	1	0	2	0
19	135	0	10000	2	1	0	2	0
18	136	0	10000	2	1	0	2	0
17	137	0	10000	2	1	0	2	0
17	138	0	10000	2	1	0	2	0
17	139	0	10000	2	1	0	2	0
18	140	0	10000	2	1	0	2	0
18	141	0	10000	2	1	0	2	0
17	142	0	10000	2	1	0	2	0
16	143	0	10000	2	1	0	2	0
16	144	0	10000	2	1	0	2	0
17	145	0	10000	2	1	0	2	0
17	146	0	10000	2	1	0	2	0
18	147	0	10000	2	1	0	2	0
18	148	0	10000	2	1	0	2	0
16	149	0	10000	2	1	0	2	0
14	150	0	10000	2	1	0	2	0
14	151	0	10000	2	1	0	2	0
14	152	0	10000	2	1	0	2	0
15	153	0	10000	2	1	0	2	0
15	154	0	10000	2	1	0	2	0
15	155	0	10000	2	1	0	2	0
14	156	0	10000	2	1	0	2	0
14	157	0	10000	2	1	0	2	0
13	158	0	10000	2	1	0	2	0
13	159	0	10000	2	1	0	2	0
14	160	0	10000	2	1	0	2	0
14	161	0	10000	2	1	0	2	0
13	162	0	10000	2	1	0	2	0
13	163	0	10000	2	1	0	2	0
13	164	0	10000	2	1	0	2	0
13	165	0	10000	2	1	0	2	0
13	166	0	10000	2	1	0	2	0
14	167	0	10000	2	1	0	2	0
14	168	0	10000	2	1	0	2	0
13	169	0	10000	2	1	0	2	0
12	170	0	10000	2	1	0	2	0
11	171	0	10000	2	1	0	2	0
11	172	0	10000	2	1	0	2	0
11	173	0	10000	2	1	0	2	0
12	174	0	10000	2	1	0	2	0
11	175	0	10000	2	1	0	2	0
11	176	0	10000	2	1	0	2	0
11	177	0	10000	2	1	0	2	0
10	178	0	10000	2	1	0	2	0
10	179	0	10000	2	1	0	2	0
14	180	0	10000	2	1	0	2	0
13	181	0	10000	2	1	0	2	0
11	182	0	10000	2	1	0	2	0
12	183	0	10000	2	1	0	2	0
11	184	0	10000	2	1	0	2	0
11	185	0	10000	2	1	0	2	0
12	186	0	10000	2	1	0	2	0
12	187	0	10000	2	1	0	2	0
14	188	0	10000	2	1	0	2	0
14	189	0	10000	2	1	0	2	0
13	190	0	10000	2	1	0	2	0
13	191	0	10000	2	1	0	2	0
13	192	0	10000	2	1	0	2	0
13	193	0	10000	2	1	0	2	0
13	194	0	10000	2	1	0	2	0
14	195	0	10000	2	1	0	2	0
14	196	0	10000	2	1	0	2	0
13	197	0	10000	2	1	0	2	0
12	198	0	10000	2	1	0	2	0
13	199	0	10000	2	1	0	2	0
14	200	0	10000	2	1	0	2	0
14	201	0	10000	2	1	0	2	0
15	202	0	10000	2	1	0	2	0
15	203	0	10000	2	1	0	2	0
15	204	0	10000	2	1	0	2	0
15	205	0	10000	2	1	0	2	0
15	206	0	10000	2	1	0	2	0
16	207	0	10000	2	1	0	2	0
16	208	0	10000	2	1	0	2	0
15	209	0	10000	2	1	0	2	0
13	210	0	10000	2	1	0	2	0
13	211	0	10000	2	1	0	2	0
13	212	0	10000	2	1	0	2	0
13	213	0	10000	2	1	0	2	0
13	214	0	10000	2	1	0	2	0
13	215	0	10000	2	1	0	2	0
12	216	0	10000	2	1	0	2	0
12	217	0	10000	2	1	0	2	0
11	218	0	10000	2	1	0	2	0
11	219	0	10000	2	1	0	2	0
12	220	0	10000	2	1	0	2	0
11	221	0	10000	2	1	0	2	0
11	222	0	10000	2	1	0	2	0
10	223	0	10000	2	1	0	2	0
10	224	0	10000	2	1	0	2	0
10	225	0	10000	2	1	0	2	0
10	226	0	10000	2	1	0	2	0
11	227	0	10000	2	1	0	2	0
11	228	0	10000	2	1	0	2	0
10	229	0	10000	2	1	0	2	0
8	230	0	10000	2	1	0	2	0
9	231	0	10000	2	1	0	2	0
9	232	0	10000	2	1	0	2	0
11	233	0	10000	2	1	0	2	0
11	234	0	10000	2	1	0	2	0
11	235	0	10000	2	1	0	2	0
11	236	0	10000	2	1	0	2	0
10	237	0	10000	2	1	0	2	0
9	238	0	10000	2	1	0	2	0
10	239	0	10000	2	1	0	2	0
11	240	0	10000	2	1	0	2	0
10	241	0	10000	2	1	0	2	0
11	242	0	10000	2	1	0	2	0
9	243	0	10000	2	1	0	2	0
9	244	0	10000	2	1	0	2	0
9	245	0	10000	2	1	0	2	0
9	246	0	10000	2	1	0	2	0
9	247	0	10000	2	1	0	2	0
10	248	0	10000	2	1	0	2	0
10	249	0	10000	2	1	0	2	0
10	250	0	10000	2	1	0	2	0
10	251	0	10000	2	1	0	2	0
10	252	0	10000	2	1	0	2	0
10	253	0	10000	2	1	0	2	0
10	254	0	10000	2	1	0	2	0
9	255	0	10000	2	1	0	2	0
9	256	0	10000	2	1	0	2	0
8	257	0	10000	2	1	0	2	0
8	258	0	10000	2	1	0	2	0
8	259	0	10000	2	1	0	2	0
10	260	0	10000	2	1	0	2	0
9	261	0	10000	2	1	0	2	0
9	262	0	10000	2	1	0	2	0
9	263	0	10000	2	1	0	2	0
8	264	0	10000	2	1	0	2	0
8	265	0	10000	2	1	0	2	0
9	266	0	10000	2	1	0	2	0
8	267	0	10000	2	1	0	2	0
8	268	0	10000	2	1	0	2	0
8	269	0	10000	2	1	0	2	0
7	270	0	10000	2	1	0	2	0
8	271	0	10000	2	1	0	2	0
9	272	0	10000	2	1	0	2	0
9	273	0	10000	2	1	0	2	0
9	274	0	10000	2	1	0	2	0
9	275	0	10000	2	1	0	2	0
8	276	0	10000	2	1	0	2	0
8	277	0	10000	2	1	0	2	0
8	278	0	10000	2	1	0	2	0
9	279	0	10000	2	1	0	2	0
11	280	0	10000	2	1	0	2	0
11	281	0	10000	2	1	0	2	0
10	282	0	10000	2	1	0	2	0
11	283	0	10000	2	1	0	2	0
11	284	0	10000	2	1	0	2	0
12	285	0	10000	2	1	0	2	0
13	286	0	10000	2	1	0	2	0
14	287	0	10000	2	1	0	2	0
15	288	0	10000	2	1	0	2	0
15	289	0	10000	2	1	0	2	0
13	290	0	10000	2	1	0	2	0
13	291	0	10000	2	1	0	2	0
13	292	0	10000	2	1	0	2	0
13	293	0	10000	2	1	0	2	0
12	294	0	10000	2	1	0	2	0
13	295	0	10000	2	1	0	2	0
12	296	0	10000	2	1	0	2	0
11	297	0	10000	2	1	0	2	0
11	298	0	10000	2	1	0	2	0
10	299	0	10000	2	1	0	2	0
12	300	0	10000	2	1	0	2	0
13	301	0	10000	2	1	0	2	0
11	302	0	10000	2	1	0	2	0
12	303	0	10000	2	1	0	2	0
12	304	0	10000	2	1	0	2	0
11	305	0	10000	2	1	0	2	0
11	306	0	10000	2	1	0	2	0
11	307	0	10000	2	1	0	2	0
11	308	0	10000	2	1	0	2	0
10	309	0	10000	2	1	0	2	0
9	310	0	10000	2	1	0	2	0
8	311	0	10000	2	1	0	2	0
8	312	0	10000	2	1	0	2	0
8	313	0	10000	2	1	0	2	0
9	314	0	10000	2	1	0	2	0
9	315	0	10000	2	1	0	2	0
9	316	0	10000	2	1	0	2	0
8	317	0	10000	2	1	0	2	0
8	318	0	10000	2	1	0	2	0
9	319	0	10000	2	1	0	2	0
10	320	0	10000	2	1	0	2	0
10	321	0	10000	2	1	0	2	0
10	322	0	10000	2	1	0	2	0
9	323	0	10000	2	1	0	2	0
9	324	0	10000	2	1	0	2	0
9	325	0	10000	2	1	0	2	0
9	326	0	10000	2	1	0	2	0
9	327	0	10000	2	1	0	2	0
9	328	0	10000	2	1	0	2	0
9	329	0	10000	2	1	0	2	0
8	330	0	10000	2	1	0	2	0
9	331	0	10000	2	1	0	2	0
10	332	0	10000	2	1	0	2	0
10	333	0	10000	2	1	0	2	0
11	334	0	10000	2	1	0	2	0
11	335	0	10000	2	1	0	2	0
12	336	0	10000	2	1	0	2	0
11	337	0	10000	2	1	0	2	0
11	338	0	10000	2	1	0	2	0
11	339	0	10000	2	1	0	2	0
13	340	0	10000	2	1	0	2	0
13	341	0	10000	2	1	0	2	0
14	342	0	10000	2	1	0	2	0
14	343	0	10000	2	1	0	2	0
14	344	0	10000	2	1	0	2	0
14	345	0	10000	2	1	0	2	0
15	346	0	10000	2	1	0	2	0
15	347	0	10000	2	1	0	2	0
16	348	0	10000	2	1	0	2	0
15	349	0	10000	2	1	0	2	0
14	350	0	10000	2	1	0	2	0
14	351	0	10000	2	1	0	2	0
14	352	0	10000	2	1	0	2	0
16	353	0	10000	2	1	0	2	0
17	354	0	10000	2	1	0	2	0
17	355	0	10000	2	1	0	2	0
17	356	0	10000	2	1	0	2	0
17	357	0	10000	2	1	0	2	0
15	358	0	10000	2	1	0	2	0
16	359	0	10000	2	1	0	2	0
17	360	0	10000	2	1	0	2	0
16	361	0	10000	2	1	0	2	0
16	362	0	10000	2	1	0	2	0
17	363	0	10000	2	1	0	2	0
16	364	0	10000	2	1	0	2	0
16	365	0	10000	2	1	0	2	0
15	366	0	10000	2	1	0	2	0
15	367	0	10000	2	1	0	2	0
15	368	0	10000	2	1	0	2	0
14	369	0	10000	2	1	0	2	0
12	370	0	10000	2	1	0	2	0
13	371	0	10000	2	1	0	2	0
12	372	0	10000	2	1	0	2	0
12	373	0	10000	2	1	0	2	0
11	374	0	10000	2	1	0	2	0
11	375	0	10000	2	1	0	2	0
11	376	0	10000	2	1	0	2	0
10	377	0	10000	2	1	0	2	0
9	378	0	10000	2	1	0	2	0
10	379	0	10000	2	1	0	2	0
12	380	0	10000	2	1	0	2	0
11	381	0	10000	2	1	0	2	0
11	382	0	10000	2	1	0	2	0
10	383	0	10000	2	1	0	2	0
11	384	0	10000	2	1	0	2	0
10	385	0	10000	2	1	0	2	0
10	386	0	10000	2	1	0	2	0
12	387	0	10000	2	1	0	2	0
12	388	0	10000	2	1	0	2	0
12	389	0	10000	2	1	0	2	0
11	390	0	10000	2	1	0	2	0
11	391	0	10000	2	1	0	2	0
11	392	0	10000	2	1	0	2	0
12	393	0	10000	2	1	0	2	0
11	394	0	10000	2	1	0	2	0
11	395	0	10000	2	1	0	2	0
11	396	0	10000	2	1	0	2	0
11	397	0	10000	2	1	0	2	0
10	398	0	10000	2	1	0	2	0
10	399	0	10000	2	1	0	2	0
12	400	0	10000	2	1	0	2	0
11	401	0	10000	2	1	0	2	0
11	402	0	10000	2	1	0	2	0
10	403	0	10000	2	1	0	2	0
10	404	0	10000	2	1	0	2	0
10	405	0	10000	2	1	0	2	0
9	406	0	10000	2	1	0	2	0
11	407	0	10000	2	1	0	2	0
11	408	0	10000	2	1	0	2	0
10	409	0	10000	2	1	0	2	0
10	410	0	10000	2	1	0	2	0
10	411	0	10000	2	1	0	2	0
10	412	0	10000	2	1	0	2	0
13	413	0	10000	2	1	0	2	0
13	414	0	10000	2	1	0	2	0
13	415	0	10000	2	1	0	2	0
15	416	0	10000	2	1	0	2	0
15	417	0	10000	2	1	0	2	0
17	418	0	10000	2	1	0	2	0
19	419	0	10000	2	1	0	2	0
20	420	0	10000	2	1	0	2	0
19	421	0	10000	2	1	0	2	0
19	422	0	10000	2	1	0	2	0
17	423	0	10000	2	1	0	2	0
17	424	0	10000	2	1	0	2	0
17	425	0	10000	2	1	0	2	0
18	426	0	10000	2	1	0	2	0
19	427	0	10000	2	1	0	2	0
22	428	0	10000	2	1	0	2	0
24	429	0	10000	2	1	0	2	0
26	430	0	10000	2	1	0	2	0
29	431	0	10000	2	1	0	2	0
31	432	0	10000	2	1	0	2	0
33	433	0	10000	2	1	0	2	0
34	434	0	10000	2	1	0	2	0
34	435	0	10000	2	1	0	2	0
34	436	0	10000	2	1	0	2	0
32	437	0	10000	2	1	0	2	0
32	438	0	10000	2	1	0	2	0
32	439	0	10000	2	1	0	2	0
32	440	0	10000	2	1	0	2	0
31	441	0	10000	2	1	0	2	0
29	442	0	10000	2	1	0	2	0
28	443	0	10000	2	1	0	2	0
28	444	0	10000	2	1	0	2	0
27	445	0	10000	2	1	0	2	0
27	446	0	10000	2	1	0	2	0
26	447	0	10000	2	1	0	2	0
25	448	0	10000	2	1	0	2	0
25	449	0	10000	2	1	0	2	0
23	450	0	10000	2	1	0	2	0
24	451	0	10000	2	1	0	2	0
25	452	0	10000	2	1	0	2	0
26	453	0	10000	2	1	0	2	0
25	454	0	10000	2	1	0	2	0
25	455	0	10000	2	1	0	2	0
26	456	0	10000	2	1	0	2	0
24	457	0	10000	2	1	0	2	0
24	458	0	10000	2	1	0	2	0
25	459	0	10000	2	1	0	2	0
27	460	0	10000	2	1	0	2	0
27	461	0	10000	2	1	0	2	0
28	462	0	10000	2	1	0	2	0
30	463	0	10000	2	1	0	2	0
32	464	0	10000	2	1	0	2	0
33	465	0	10000	2	1	0	2	0
34	466	0	10000	2	1	0	2	0
35	467	0	10000	2	1	0	2	0
35	468	0	10000	2	1	0	2	0
34	469	0	10000	2	1	0	2	0
31	470	0	10000	2	1	0	2	0
31	471	0	10000	2	1	0	2	0
30	472	0	10000	2	1	0	2	0
28	473	0	10000	2	1	0	2	0
28	474	0	10000	2	1	0	2	0
27	475	0	10000	2	1	0	2	0
26	476	0	10000	2	1	0	2	0
25	477	0	10000	2	1	0	2	0
25	478	0	10000	2	1	0	2	0
23	479	0	10000	2	1	0	2	0
24	480	0	10000	2	1	0	2	0
23	481	0	10000	2	1	0	2	0
22	482	0	10000	2	1	0	2	0
21	483	0	10000	2	1	0	2	0
22	484	0	10000	2	1	0	2	0
21	485	0	10000	2	1	0	2	0
21	486	0	10000	2	1	0	2	0
20	487	0	10000	2	1	0	2	0
20	488	0	10000	2	1	0	2	0
19	489	0	10000	2	1	0	2	0
17	490	0	10000	2	1	0	2	0
17	491	0	10000	2	1	0	2	0
17	492	0	10000	2	1	0	2	0
16	493	0	10000	2	1	0	2	0
15	494	0	10000	2	1	0	2	0
15	495	0	10000	2	1	0	2	0
16	496	0	10000	2	1	0	2	0
15	497	0	10000	2	1	0	2	0
15	498	0	10000	2	1	0	2	0
15	499	0	10000	2	1	0	2	0
16	500	0	10000	2	1	0	2	0
16	501	0	10000	2	1	0	2	1
15	502	0	10000	2	1	0	2	1
15	503	0	10000	2	1	0	2	1
14	504	0	10000	2	1	0	2	1
15	505	0	10000	2	1	0	2	1
13	506	0	10000	2	1	0	2	1
15	507	0	10000	2	1	0	2	1
16	508	0	10000	2	1	0	2	1
16	509	0	10000	2	1	0	2	1
14	510	0	10000	2	1	0	2	1
14	511	0	10000	2	1	0	2	1
14	512	0	10000	2	1	0	2	1
14	513	0	10000	2	1	0	2	1
14	514	0	10000	2	1	0	2	1
14	515	0	10000	2	1	0	2	1
14	516	0	10000	2	1	0	2	1
14	517	0	10000	2	1	0	2	1
13	518	0	10000	2	1	0	2	1
13	519	0	10000	2	1	0	2	1
15	520	0	10000	2	1	0	2	1
14	521	0	10000	2	1	0	2	1
14	522	0	10000	2	1	0	2	1
13	523	0	10000	2	1	0	2	1
13	524	0	10000	2	1	0	2	1
12	525	0	10000	2	1	0	2	1
12	526	0	10000	2	1	0	2	1
12	527	0	10000	2	1	0	2	1
13	528	0	10000	2	1	0	2	1
12	529	0	10000	2	1	0	2	1
10	530	0	10000	2	1	0	2	1
11	531	0	10000	2	1	0	2	1
10	532	0	10000	2	1	0	2	1
10	533	0	10000	2	1	0	2	1
11	534	0	10000	2	1	0	2	1
9	535	0	10000	2	1	0	2	1
9	536	0	10000	2	1	0	2	1
9	537	0	10000	2	1	0	2	1
9	538	0	10000	2	1	0	2	1
10	539	0	10000	2	1	0	2	1
12	540	0	10000	2	1	0	2	1
12	541	0	10000	2	1	0	2	1
13	542	0	10000	2	1	0	2	1
14	543	0	10000	2	1	0	2	1
13	544	0	10000	2	1	0	2	1
13	545	0	10000	2	1	0	2	1
13	546	0	10000	2	1	0	2	1
14	547	0	10000	2	1	0	2	1
15	548	0	10000	2	1	0	2	1
15	549	0	10000	2	1	0	2	1
14	550	0	10000	2	1	0	2	1
14	551	0	10000	2	1	0	2	0
15	552	0	10000	2	1	0	2	0
14	553	0	10000	2	1	0	2	0
15	554	0	10000	2	1	0	2	0
15	555	0	10000	2	1	0	2	0
16	556	0	10000	2	1	0	2	0
15	557	0	10000	2	1	0	2	0
15	558	0	10000	2	1	0	2	0
16	559	0	10000	2	1	0	2	0
17	560	0	10000	2	1	0	2	0
16	561	0	10000	2	1	0	2	0
16	562	0	10000	2	1	0	2	0
15	563	0	10000	2	1	0	2	0
15	564	0	10000	2	1	0	2	0
14	565	0	10000	2	1	0	2	0
13	566	0	10000	2	1	0	2	0
14	567	0	10000	2	1	0	2	0
14	568	0	10000	2	1	0	2	0
14	569	0	10000	2	1	0	2	0
13	570	0	10000	2	1	0	2	0
13	571	0	10000	2	1	0	2	0
14	572	0	10000	2	1	0	2	0
15	573	0	10000	2	1	0	2	0
15	574	0	10000	2	1	0	2	0
16	575	0	10000	2	1	0	2	0
17	576	0	10000	2	1	0	2	0
16	577	0	10000	2	1	0	2	0
15	578	0	10000	2	1	0	2	0
14	579	0	10000	2	1	0	2	0
16	580	0	10000	2	1	0	2	0
15	581	0	10000	2	1	0	2	0
14	582	0	10000	2	1	0	2	0
14	583	0	10000	2	1	0	2	0
14	584	0	10000	2	1	0	2	0
13	585	0	10000	2	1	0	2	0
12	586	0	10000	2	1	0	2	0
14	587	0	10000	2	1	0	2	0
15	588	0	10000	2	1	0	2	0
16	589	0	10000	2	1	0	2	0
16	590	0	10000	2	1	0	2	0
15	591	0	10000	2	1	0	2	0
15	592	0	10000	2	1	0	2	0
20	593	0	10000	2	1	0	2	0
20	594	0	10000	2	1	0	2	0
21	595	0	10000	2	1	0	2	0
26	596	0	10000	2	1	0	2	0
28	597	0	10000	2	1	0	2	0
31	598	0	10000	2	1	0	2	0
43	599	0	10000	2	1	0	2	0
45	600	0	10000	2	1	0	2	0
45	601	0	10000	2	1	0	2	0
51	602	0	10000	2	1	0	2	0
53	603	0	10000	2	1	0	2	0
63	604	0	10000	2	1	0	2	0
70	605	0	10000	2	1	0	2	0
74	606	0	10000	2	1	0	2	0
73	607	0	10000	2	1	0	2	0
71	608	0	10000	2	1	0	2	0
72	609	0	10000	2	1	0	2	0
72	610	0	10000	2	1	0	2	0
70	611	0	10000	2	1	0	2	0
68	612	0	10000	2	1	0	2	0
66	613	0	10000	2	1	0	2	0
65	614	0	10000	2	1	0	2	0
65	615	0	10000	2	1	0	2	0
68	616	0	10000	2	1	0	2	0
66	617	0	10000	2	1	0	2	0
67	618	0	10000	2	1	0	2	0
67	619	0	10000	2	1	0	2	0
66	620	0	10000	2	1	0	2	0
63	621	0	10000	2	1	0	2	0
61	622	0	10000	2	1	0	2	0
58	623	0	10000	2	1	0	2	0
56	624	0	10000	2	1	0	2	0
54	625	0	10000	2	1	0	2	0
53	626	0	10000	2	1	0	2	0
53	627	0	10000	2	1	0	2	0
51	628	0	10000	2	1	0	2	0
51	629	0	10000	2	1	0	2	0
50	630	0	10000	2	1	0	2	0
52	631	0	10000	2	1	0	2	0
53	632	0	10000	2	1	0	2	0
54	633	0	10000	2	1	0	2	0
54	634	0	10000	2	1	0	2	0
53	635	0	10000	2	1	0	2	0
54	636	0	10000	2	1	0	2	0
54	637	0	10000	2	1	0	2	0
53	638	0	10000	2	1	0	2	0
53	639	0	10000	2	1	0	2	0
54	640	0	10000	2	1	0	2	0
51	641	0	10000	2	1	0	2	0
48	642	0	10000	2	1	0	2	0
46	643	0	10000	2	1	0	2	0
45	644	0	10000	2	1	0	2	0
44	645	0	10000	2	1	0	2	0
45	646	0	10000	2	1	0	2	0
45	647	0	10000	2	1	0	2	0
45	648	0	10000	2	1	0	2	0
46	649	0	10000	2	1	0	2	0
45	650	0	10000	2	1	0	2	0
47	651	0	10000	2	1	0	2	0
49	652	0	10000	2	1	0	2	0
50	653	0	10000	2	1	0	2	0
52	654	0	10000	2	1	0	2	0
54	655	0	10000	2	1	0	2	0
56	656	0	10000	2	1	0	2	0
56	657	0	10000	2	1	0	2	0
57	658	0	10000	2	1	0	2	0
58	659	0	10000	2	1	0	2	0
59	660	0	10000	2	1	0	2	0
59	661	0	10000	2	1	0	2	0
59	662	0	10000	2	1	0	2	0
58	663	0	10000	2	1	0	2	0
57	664	0	10000	2	1	0	2	0
56	665	0	10000	2	1	0	2	0
55	666	0	10000	2	1	0	2	0
55	667	0	10000	2	1	0	2	0
54	668	0	10000	2	1	0	2	0
53	669	0	10000	2	1	0	2	0
50	670	0	10000	2	1	0	2	0
49	671	0	10000	2	1	0	2	0
46	672	0	10000	2	1	0	2	0
45	673	0	10000	2	1	0	2	0
44	674	0	10000	2	1	0	2	0
42	675	0	10000	2	1	0	2	0
40	676	0	10000	2	1	0	2	0
38	677	0	10000	2	1	0	2	0
36	678	0	10000	2	1	0	2	0
37	679	0	10000	2	1	0	2	0
38	680	0	10000	2	1	0	2	0
36	681	0	10000	2	1	0	2	0
35	682	0	10000	2	1	0	2	0
33	683	0	10000	2	1	0	2	0
32	684	0	10000	2	1	0	2	0
32	685	0	10000	2	1	0	2	0
30	686	0	10000	2	1	0	2	0
30	687	0	10000	2	1	0	2	0
29	688	0	10000	2	1	0	2	0
29	689	0	10000	2	1	0	2	0
26	690	0	10000	2	1	0	2	0
26	691	0	10000	2	1	0	2	0
27	692	0	10000	2	1	0	2	0
27	693	0	10000	2	1	0	2	0
26	694	0	10000	2	1	0	2	0
27	695	0	10000	2	1	0	2	0
27	696	0	10000	2	1	0	2	0
25	697	0	10000	2	1	0	2	0
24	698	0	10000	2	1	0	2	0
23	699	0	10000	2	1	0	2	0
23	700	0	10000	2	1	0	2	0
23	701	0	10000	2	1	0	2	0
23	702	0	10000	2	1	0	2	0
21	703	0	10000	2	1	0	2	0
20	704	0	10000	2	1	0	2	0
20	705	0	10000	2	1	0	2	0
19	706	0	10000	2	1	0	2	0
19	707	0	10000	2	1	0	2	0
20	708	0	10000	2	1	0	2	0
19	709	0	10000	2	1	0	2	0
18	710	0	10000	2	1	0	2	0
18	711	0	10000	2	1	0	2	0
18	712	0	10000	2	1	0	2	0
18	713	0	10000	2	1	0	2	0
18	714	0	10000	2	1	0	2	0
18	715	0	10000	2	1	0	2	0
19	716	0	10000	2	1	0	2	0
18	717	0	10000	2	1	0	2	0
17	718	0	10000	2	1	0	2	0
18	719	0	10000	2	1	0	2	0
19	720	0	10000	2	1	0	2	0
19	721	0	10000	2	1	0	2	0
18	722	0	10000	2	1	0	2	0
17	723	0	10000	2	1	0	2	0
17	724	0	10000	2	1	0	2	0
17	725	0	10000	2	1	0	2	0
16	726	0	10000	2	1	0	2	0
16	727	0	10000	2	1	0	2	0
17	728	0	10000	2	1	0	2	0
18	729	0	10000	2	1	0	2	0
17	730	0	10000	2	1	0	2	0
18	731	0	10000	2	1	0	2	0
19	732	0	10000	2	1	0	2	0
19	733	0	10000	2	1	0	2	0
18	734	0	10000	2	1	0	2	0
19	735	0	10000	2	1	0	2	0
20	736	0	10000	2	1	0	2	0
19	737	0	10000	2	1	0	2	0
19	738	0	10000	2	1	0	2	0
18	739	0	10000	2	1	0	2	0
19	740	0	10000	2	1	0	2	0
19	741	0	10000	2	1	0	2	0
20	742	0	10000	2	1	0	2	0
20	743	0	10000	2	1	0	2	0
19	744	0	10000	2	1	0	2	0
18	745	0	10000	2	1	0	2	0
17	746	0	10000	2	1	0	2	0
17	747	0	10000	2	1	0	2	0
17	748	0	10000	2	1	0	2	0
17	749	0	10000	2	1	0	2	0
15	750	0	10000	2	1	0	2	0
15	751	0	10000	2	1	0	2	0
15	752	0	10000	2	1	0	2	0
15	753	0	10000	2	1	0	2	0
15	754	0	10000	2	1	0	2	0
16	755	0	10000	2	1	0	2	0
16	756	0	10000	2	1	0	2	0
16	757	0	10000	2	1	0	2	0
16	758	0	10000	2	1	0	2	0
15	759	0	10000	2	1	0	2	0
17	760	0	10000	2	1	0	2	0
17	761	0	10000	2	1	0	2	0
17	762	0	10000	2	1	0	2	0
17	763	0	10000	2	1	0	2	0
17	764	0	10000	2	1	0	2	0
16	765	0	10000	2	1	0	2	0
15	766	0	10000	2	1	0	2	0
16	767	0	10000	2	1	0	2	0
17	768	0	10000	2	1	0	2	0
16	769	0	10000	2	1	0	2	0
15	770	0	10000	2	1	0	2	0
14	771	0	10000	2	1	0	2	0
14	772	0	10000	2	1	0	2	0
14	773	0	10000	2	1	0	2	0
14	774	0	10000	2	1	0	2	0
14	775	0	10000	2	1	0	2	0
14	776	0	10000	2	1	0	2	0
13	777	0	10000	2	1	0	2	0
13	778	0	10000	2	1	0	2	0
13	779	0	10000	2	1	0	2	0
14	780	0	10000	2	1	0	2	0
13	781	0	10000	2	1	0	2	0
14	782	0	10000	2	1	0	2	0
14	783	0	10000	2	1	0	2	0
13	784	0	10000	2	1	0	2	0
13	785	0	10000	2	1	0	2	0
11	786	0	10000	2	1	0	2	0
12	787	0	10000	2	1	0	2	0
12	788	0	10000	2	1	0	2	0
12	789	0	10000	2	1	0	2	0
10	790	0	10000	2	1	0	2	0
10	791	0	10000	2	1	0	2	0
9	792	0	10000	2	1	0	2	0
10	793	0	10000	2	1	0	2	0
10	794	0	10000	2	1	0	2	0
9	795	0	10000	2	1	0	2	0
9	796	0	10000	2	1	0	2	0
9	797	0	10000	2	1	0	2	0
9	798	0	10000	2	1	0	2	0
9	799	0	10000	2	1	0	2	0
12	800	0	10000	2	1	0	2	0
12	801	0	10000	2	1	0	2	0
11	802	0	10000	2	1	0	2	0
10	803	0	10000	2	1	0	2	0
10	804	0	10000	2	1	0	2	0
10	805	0	10000	2	1	0	2	0
9	806	0	10000	2	1	0	2	0
10	807	0	10000	2	1	0	2	0
11	808	0	10000	2	1	0	2	0
11	809	0	10000	2	1	0	2	0
10	810	0	10000	2	1	0	2	0
12	811	0	10000	2	1	0	2	0
11	812	0	10000	2	1	0	2	0
11	813	0	10000	2	1	0	2	0
12	814	0	10000	2	1	0	2	0
11	815	0	10000	2	1	0	2	0
11	816	0	10000	2	1	0	2	0
11	817	0	10000	2	1	0	2	0
10	818	0	10000	2	1	0	2	0
10	819	0	10000	2	1	0	2	0
12	820	0	10000	2	1	0	2	0
12	821	0	10000	2	1	0	2	0
12	822	0	10000	2	1	0	2	0
11	823	0	10000	2	1	0	2	0
10	824	0	10000	2	1	0	2	0
10	825	0	10000	2	1	0	2	0
11	826	0	10000	2	1	0	2	0
11	827	0	10000	2	1	0	2	0
12	828	0	10000	2	1	0	2	0
12	829	0	10000	2	1	0	2	0
11	830	0	10000	2	1	0	2	0
11	831	0	10000	2	1	0	2	0
11	832	0	10000	2	1	0	2	0
12	833	0	10000	2	1	0	2	0
12	834	0	10000	2	1	0	2	0
12	835	0	10000	2	1	0	2	0
12	836	0	10000	2	1	0	2	0
11	837	0	10000	2	1	0	2	0
11	838	0	10000	2	1	0	2	0
11	839	0	10000	2	1	0	2	0
13	840	0	10000	2	1	0	2	0
14	841	0	10000	2	1	0	2	0
14	842	0	10000	2	1	0	2	0
14	843	0	10000	2	1	0	2	0
14	844	0	10000	2	1	0	2	0
13	845	0	10000	2	1	0	2	0
12	846	0	10000	2	1	0	2	0
13	847	0	10000	2	1	0	2	0
14	848	0	10000	2	1	0	2	0
13	849	0	10000	2	1	0	2	0
11	850	0	10000	2	1	0	2	0
12	851	0	10000	2	1	0	2	0
12	852	0	10000	2	1	0	2	0
12	853	0	10000	2	1	0	2	0
11	854	0	10000	2	1	0	2	0
11	855	0	10000	2	1	0	2	0
12	856	0	10000	2	1	0	2	0
11	857	0	10000	2	1	0	2	0
11	858	0	10000	2	1	0	2	0
10	859	0	10000	2	1	0	2	0
13	860	0	10000	2	1	0	2	0
14	861	0	10000	2	1	0	2	0
15	862	0	10000	2	1	0	2	0
14	863	0	10000	2	1	0	2	0
15	864	0	10000	2	1	0	2	0
14	865	0	10000	2	1	0	2	0
13	866	0	10000	2	1	0	2	0
14	867	0	10000	2	1	0	2	0
13	868	0	10000	2	1	0	2	0
13	869	0	10000	2	1	0	2	0
11	870	0	10000	2	1	0	2	0
10	871	0	10000	2	1	0	2	0
11	872	0	10000	2	1	0	2	0
14	873	0	10000	2	1	0	2	0
13	874	0	10000	2	1	0	2	0
13	875	0	10000	2	1	0	2	0
13	876	0	10000	2	1	0	2	0
12	877	0	10000	2	1	0	2	0
12	878	0	10000	2	1	0	2	0
14	879	0	10000	2	1	0	2	0
15	880	0	10000	2	1	0	2	0
15	881	0	10000	2	1	0	2	0
15	882	0	10000	2	1	0	2	0
13	883	0	10000	2	1	0	2	0
13	884	0	10000	2	1	0	2	0
13	885	0	10000	2	1	0	2	0
12	886	0	10000	2	1	0	2	0
13	887	0	10000	2	1	0	2	0
14	888	0	10000	2	1	0	2	0
13	889	0	10000	2	1	0	2	0
12	890	0	10000	2	1	0	2	0
14	891	0	10000	2	1	0	2	0
14	892	0	10000	2	1	0	2	0
14	893	0	10000	2	1	0	2	0
14	894	0	10000	2	1	0	2	0
14	895	0	10000	2	1	0	2	0
14	896	0	10000	2	1	0	2	0
13	897	0	10000	2	1	0	2	0
12	898	0	10000	2	1	0	2	0
12	899	0	10000	2	1	0	2	0
14	900	0	10000	2	1	0	2	0
13	901	0	10000	2	1	0	2	0
13	902	0	10000	2	1	0	2	0
14	903	0	10000	2	1	0	2	0
13	904	0	10000	2	1	0	2	0
12	905	0	10000	2	1	0	2	0
12	906	0	10000	2	1	0	2	0
12	907	0	10000	2	1	0	2	0
11	908	0	10000	2	1	0	2	0
11	909	0	10000	2	1	0	2	0
9	910	0	10000	2	1	0	2	0
10	911	0	10000	2	1	0	2	0
10	912	0	10000	2	1	0	2	0
10	913	0	10000	2	1	0	2	0
10	914	0	10000	2	1	0	2	0
11	915	0	10000	2	1	0	2	0
12	916	0	10000	2	1	0	2	0
11	917	0	10000	2	1	0	2	0
11	918	0	10000	2	1	0	2	0
12	919	0	10000	2	1	0	2	0
14	920	0	10000	2	1	0	2	0
13	921	0	10000	2	1	0	2	0
13	922	0	10000	2	1	0	2	0
12	923	0	10000	2	1	0	2	0
12	924	0	10000	2	1	0	2	0
12	925	0	10000	2	1	0	2	0
12	926	0	10000	2	1	0	2	0
13	927	0	10000	2	1	0	2	0
15	928	0	10000	2	1	0	2	0
15	929	0	10000	2	1	0	2	0
12	930	0	10000	2	1	0	2	0
12	931	0	10000	2	1	0	2	0
13	932	0	10000	2	1	0	2	0
13	933	0	10000	2	1	0	2	0
13	934	0	10000	2	1	0	2	0
14	935	0	10000	2	1	0	2	0
13	936	0	10000	2	1	0	2	0
12	937	0	10000	2	1	0	2	0
12	938	0	10000	2	1	0	2	0
13	939	0	10000	2	1	0	2	0
15	940	0	10000	2	1	0	2	0
16	941	0	10000	2	1	0	2	0
15	942	0	10000	2	1	0	2	0
14	943	0	10000	2	1	0	2	0
14	944	0	10000	2	1	0	2	0
13	945	0	10000	2	1	0	2	0
14	946	0	10000	2	1	0	2	0
15	947	0	10000	2	1	0	2	0
15	948	0	10000	2	1	0	2	0
15	949	0	10000	2	1	0	2	0
13	950	0	10000	2	1	0	2	0
12	951	0	10000	2	1	0	2	0
12	952	0	10000	2	1	0	2	0
12	953	0	10000	2	1	0	2	0
11	954	0	10000	2	1	0	2	0
11	955	0	10000	2	1	0	2	0
11	956	0	10000	2	1	0	2	0
10	957	0	10000	2	1	0	2	0
9	958	0	10000	2	1	0	2	0
10	959	0	10000	2	1	0	2	0
11	960	0	10000	2	1	0	2	0
11	961	0	10000	2	1	0	2	0
10	962	0	10000	2	1	0	2	0
10	963	0	10000	2	1	0	2	0
9	964	0	10000	2	1	0	2	0
9	965	0	10000	2	1	0	2	0
10	966	0	10000	2	1	0	2	0
10	967	0	10000	2	1	0	2	0
10	968	0	10000	2	1	0	2	0
11	969	0	10000	2	1	0	2	0
10	970	0	10000	2	1	0	2	0
11	971	0	10000	2	1	0	2	0
13	972	0	10000	2	1	0	2	0
15	973	0	10000	2	1	0	2	0
16	974	0	10000	2	1	0	2	0
17	975	0	10000	2	1	0	2	0
17	976	0	10000	2	1	0	2	0
16	977	0	10000	2	1	0	2	0
16	978	0	10000	2	1	0	2	0
15	979	0	10000	2	1	0	2	0
16	980	0	10000	2	1	0	2	0
17	981	0	10000	2	1	0	2	0
17	982	0	10000	2	1	0	2	0
17	983	0	10000	2	1	0	2	0
17	984	0	10000	2	1	0	2	0
19	985	0	10000	2	1	0	2	0
17	986	0	10000	2	1	0	2	0
17	987	0	10000	2	1	0	2	0
19	988	0	10000	2	1	0	2	0
19	989	0	10000	2	1	0	2	0
18	990	0	10000	2	1	0	2	0
19	991	0	10000	2	1	0	2	0
20	992	0	10000	2	1	0	2	0
19	993	0	10000	2	1	0	2	0
19	994	0	10000	2	1	0	2	0
18	995	0	10000	2	1	0	2	0
17	996	0	10000	2	1	0	2	0
17	997	0	10000	2	1	0	2	0
17	998	0	10000	2	1	0	2	0
17	999	0	10000	2	1	0	2	0
19	1000	0	10000	2	1	0	2	0
243	2	0	10000	3	1	0	3	0
238	3	0	10000	3	1	0	3	0
230	4	0	10000	3	1	0	3	0
228	5	0	10000	3	1	0	3	0
222	6	0	10000	3	1	0	3	0
213	7	0	10000	3	1	0	3	0
213	8	0	10000	3	1	0	3	0
215	9	0	10000	3	1	0	3	0
207	10	0	10000	3	1	0	3	0
201	11	0	10000	3	1	0	3	0
197	12	0	10000	3	1	0	3	0
188	13	0	10000	3	1	0	3	0
181	14	0	10000	3	1	0	3	0
177	15	0	10000	3	1	0	3	0
169	16	0	10000	3	1	0	3	0
163	17	0	10000	3	1	0	3	0
156	18	0	10000	3	1	0	3	0
153	19	0	10000	3	1	0	3	0
147	20	0	10000	3	1	0	3	0
142	21	0	10000	3	1	0	3	0
141	22	0	10000	3	1	0	3	0
140	23	0	10000	3	1	0	3	0
137	24	0	10000	3	1	0	3	0
135	25	0	10000	3	1	0	3	0
134	26	0	10000	3	1	0	3	0
140	27	0	10000	3	1	0	3	0
147	28	0	10000	3	1	0	3	0
146	29	0	10000	3	1	0	3	0
142	30	0	10000	3	1	0	3	0
137	31	0	10000	3	1	0	3	0
135	32	0	10000	3	1	0	3	0
137	33	0	10000	3	1	0	3	0
137	34	0	10000	3	1	0	3	0
135	35	0	10000	3	1	0	3	0
132	36	0	10000	3	1	0	3	0
128	37	0	10000	3	1	0	3	0
122	38	0	10000	3	1	0	3	0
119	39	0	10000	3	1	0	3	0
115	40	0	10000	3	1	0	3	0
113	41	0	10000	3	1	0	3	0
113	42	0	10000	3	1	0	3	0
115	43	0	10000	3	1	0	3	0
116	44	0	10000	3	1	0	3	0
114	45	0	10000	3	1	0	3	0
113	46	0	10000	3	1	0	3	0
113	47	0	10000	3	1	0	3	0
112	48	0	10000	3	1	0	3	0
108	49	0	10000	3	1	0	3	0
108	50	0	10000	3	1	0	3	0
105	51	0	10000	3	1	0	3	0
103	52	0	10000	3	1	0	3	0
101	53	0	10000	3	1	0	3	0
97	54	0	10000	3	1	0	3	0
94	55	0	10000	3	1	0	3	0
90	56	0	10000	3	1	0	3	0
85	57	0	10000	3	1	0	3	0
82	58	0	10000	3	1	0	3	0
81	59	0	10000	3	1	0	3	0
78	60	0	10000	3	1	0	3	0
75	61	0	10000	3	1	0	3	0
73	62	0	10000	3	1	0	3	0
70	63	0	10000	3	1	0	3	0
69	64	0	10000	3	1	0	3	0
68	65	0	10000	3	1	0	3	0
68	66	0	10000	3	1	0	3	0
68	67	0	10000	3	1	0	3	0
68	68	0	10000	3	1	0	3	0
66	69	0	10000	3	1	0	3	0
65	70	0	10000	3	1	0	3	0
66	71	0	10000	3	1	0	3	0
67	72	0	10000	3	1	0	3	0
69	73	0	10000	3	1	0	3	0
71	74	0	10000	3	1	0	3	0
73	75	0	10000	3	1	0	3	0
74	76	0	10000	3	1	0	3	0
76	77	0	10000	3	1	0	3	0
74	78	0	10000	3	1	0	3	0
74	79	0	10000	3	1	0	3	0
72	80	0	10000	3	1	0	3	0
69	81	0	10000	3	1	0	3	0
68	82	0	10000	3	1	0	3	0
68	83	0	10000	3	1	0	3	0
68	84	0	10000	3	1	0	3	0
69	85	0	10000	3	1	0	3	0
71	86	0	10000	3	1	0	3	0
72	87	0	10000	3	1	0	3	0
73	88	0	10000	3	1	0	3	0
70	89	0	10000	3	1	0	3	0
67	90	0	10000	3	1	0	3	0
64	91	0	10000	3	1	0	3	0
62	92	0	10000	3	1	0	3	0
60	93	0	10000	3	1	0	3	0
59	94	0	10000	3	1	0	3	0
58	95	0	10000	3	1	0	3	0
57	96	0	10000	3	1	0	3	0
57	97	0	10000	3	1	0	3	0
55	98	0	10000	3	1	0	3	0
56	99	0	10000	3	1	0	3	0
55	100	0	10000	3	1	0	3	0
53	101	0	10000	3	1	0	3	0
50	102	0	10000	3	1	0	3	0
49	103	0	10000	3	1	0	3	0
47	104	0	10000	3	1	0	3	0
46	105	0	10000	3	1	0	3	0
46	106	0	10000	3	1	0	3	0
45	107	0	10000	3	1	0	3	0
45	108	0	10000	3	1	0	3	0
44	109	0	10000	3	1	0	3	0
45	110	0	10000	3	1	0	3	0
46	111	0	10000	3	1	0	3	0
46	112	0	10000	3	1	0	3	0
46	113	0	10000	3	1	0	3	0
45	114	0	10000	3	1	0	3	0
44	115	0	10000	3	1	0	3	0
42	116	0	10000	3	1	0	3	0
40	117	0	10000	3	1	0	3	0
39	118	0	10000	3	1	0	3	0
40	119	0	10000	3	1	0	3	0
39	120	0	10000	3	1	0	3	0
37	121	0	10000	3	1	0	3	0
35	122	0	10000	3	1	0	3	0
34	123	0	10000	3	1	0	3	0
35	124	0	10000	3	1	0	3	0
36	125	0	10000	3	1	0	3	0
39	126	0	10000	3	1	0	3	0
41	127	0	10000	3	1	0	3	0
42	128	0	10000	3	1	0	3	0
41	129	0	10000	3	1	0	3	0
43	130	0	10000	3	1	0	3	0
42	131	0	10000	3	1	0	3	0
41	132	0	10000	3	1	0	3	0
39	133	0	10000	3	1	0	3	0
38	134	0	10000	3	1	0	3	0
37	135	0	10000	3	1	0	3	0
36	136	0	10000	3	1	0	3	0
35	137	0	10000	3	1	0	3	0
33	138	0	10000	3	1	0	3	0
34	139	0	10000	3	1	0	3	0
34	140	0	10000	3	1	0	3	0
33	141	0	10000	3	1	0	3	0
32	142	0	10000	3	1	0	3	0
32	143	0	10000	3	1	0	3	0
32	144	0	10000	3	1	0	3	0
30	145	0	10000	3	1	0	3	0
31	146	0	10000	3	1	0	3	0
32	147	0	10000	3	1	0	3	0
33	148	0	10000	3	1	0	3	0
32	149	0	10000	3	1	0	3	0
32	150	0	10000	3	1	0	3	0
31	151	0	10000	3	1	0	3	0
30	152	0	10000	3	1	0	3	0
30	153	0	10000	3	1	0	3	0
28	154	0	10000	3	1	0	3	0
28	155	0	10000	3	1	0	3	0
28	156	0	10000	3	1	0	3	0
27	157	0	10000	3	1	0	3	0
27	158	0	10000	3	1	0	3	0
30	159	0	10000	3	1	0	3	0
31	160	0	10000	3	1	0	3	0
33	161	0	10000	3	1	0	3	0
34	162	0	10000	3	1	0	3	0
35	163	0	10000	3	1	0	3	0
35	164	0	10000	3	1	0	3	0
36	165	0	10000	3	1	0	3	0
36	166	0	10000	3	1	0	3	0
36	167	0	10000	3	1	0	3	0
36	168	0	10000	3	1	0	3	0
33	169	0	10000	3	1	0	3	0
32	170	0	10000	3	1	0	3	0
31	171	0	10000	3	1	0	3	0
30	172	0	10000	3	1	0	3	0
29	173	0	10000	3	1	0	3	0
29	174	0	10000	3	1	0	3	0
29	175	0	10000	3	1	0	3	0
30	176	0	10000	3	1	0	3	0
31	177	0	10000	3	1	0	3	0
31	178	0	10000	3	1	0	3	0
33	179	0	10000	3	1	0	3	0
32	180	0	10000	3	1	0	3	0
32	181	0	10000	3	1	0	3	0
31	182	0	10000	3	1	0	3	0
31	183	0	10000	3	1	0	3	0
30	184	0	10000	3	1	0	3	0
30	185	0	10000	3	1	0	3	0
32	186	0	10000	3	1	0	3	0
32	187	0	10000	3	1	0	3	0
32	188	0	10000	3	1	0	3	0
29	189	0	10000	3	1	0	3	0
29	190	0	10000	3	1	0	3	0
28	191	0	10000	3	1	0	3	0
29	192	0	10000	3	1	0	3	0
28	193	0	10000	3	1	0	3	0
27	194	0	10000	3	1	0	3	0
27	195	0	10000	3	1	0	3	0
26	196	0	10000	3	1	0	3	0
25	197	0	10000	3	1	0	3	0
24	198	0	10000	3	1	0	3	0
25	199	0	10000	3	1	0	3	0
25	200	0	10000	3	1	0	3	0
24	201	0	10000	3	1	0	3	0
23	202	0	10000	3	1	0	3	0
22	203	0	10000	3	1	0	3	0
22	204	0	10000	3	1	0	3	0
20	205	0	10000	3	1	0	3	0
21	206	0	10000	3	1	0	3	0
20	207	0	10000	3	1	0	3	0
20	208	0	10000	3	1	0	3	0
18	209	0	10000	3	1	0	3	0
18	210	0	10000	3	1	0	3	0
19	211	0	10000	3	1	0	3	0
20	212	0	10000	3	1	0	3	0
21	213	0	10000	3	1	0	3	0
22	214	0	10000	3	1	0	3	0
24	215	0	10000	3	1	0	3	0
23	216	0	10000	3	1	0	3	0
23	217	0	10000	3	1	0	3	0
24	218	0	10000	3	1	0	3	0
25	219	0	10000	3	1	0	3	0
23	220	0	10000	3	1	0	3	0
23	221	0	10000	3	1	0	3	0
22	222	0	10000	3	1	0	3	0
22	223	0	10000	3	1	0	3	0
22	224	0	10000	3	1	0	3	0
21	225	0	10000	3	1	0	3	0
22	226	0	10000	3	1	0	3	0
23	227	0	10000	3	1	0	3	0
23	228	0	10000	3	1	0	3	0
20	229	0	10000	3	1	0	3	0
19	230	0	10000	3	1	0	3	0
19	231	0	10000	3	1	0	3	0
19	232	0	10000	3	1	0	3	0
19	233	0	10000	3	1	0	3	0
18	234	0	10000	3	1	0	3	0
18	235	0	10000	3	1	0	3	0
17	236	0	10000	3	1	0	3	0
16	237	0	10000	3	1	0	3	0
16	238	0	10000	3	1	0	3	0
19	239	0	10000	3	1	0	3	0
19	240	0	10000	3	1	0	3	0
18	241	0	10000	3	1	0	3	0
19	242	0	10000	3	1	0	3	0
18	243	0	10000	3	1	0	3	0
18	244	0	10000	3	1	0	3	0
19	245	0	10000	3	1	0	3	0
19	246	0	10000	3	1	0	3	0
20	247	0	10000	3	1	0	3	0
19	248	0	10000	3	1	0	3	0
17	249	0	10000	3	1	0	3	0
18	250	0	10000	3	1	0	3	0
20	251	0	10000	3	1	0	3	0
21	252	0	10000	3	1	0	3	0
22	253	0	10000	3	1	0	3	0
23	254	0	10000	3	1	0	3	0
25	255	0	10000	3	1	0	3	0
24	256	0	10000	3	1	0	3	0
23	257	0	10000	3	1	0	3	0
22	258	0	10000	3	1	0	3	0
24	259	0	10000	3	1	0	3	0
24	260	0	10000	3	1	0	3	0
24	261	0	10000	3	1	0	3	0
24	262	0	10000	3	1	0	3	0
23	263	0	10000	3	1	0	3	0
23	264	0	10000	3	1	0	3	0
23	265	0	10000	3	1	0	3	0
22	266	0	10000	3	1	0	3	0
22	267	0	10000	3	1	0	3	0
23	268	0	10000	3	1	0	3	0
20	269	0	10000	3	1	0	3	0
19	270	0	10000	3	1	0	3	0
20	271	0	10000	3	1	0	3	0
20	272	0	10000	3	1	0	3	0
20	273	0	10000	3	1	0	3	0
20	274	0	10000	3	1	0	3	0
20	275	0	10000	3	1	0	3	0
19	276	0	10000	3	1	0	3	0
18	277	0	10000	3	1	0	3	0
16	278	0	10000	3	1	0	3	0
18	279	0	10000	3	1	0	3	0
18	280	0	10000	3	1	0	3	0
18	281	0	10000	3	1	0	3	0
18	282	0	10000	3	1	0	3	0
18	283	0	10000	3	1	0	3	0
18	284	0	10000	3	1	0	3	0
18	285	0	10000	3	1	0	3	0
18	286	0	10000	3	1	0	3	0
17	287	0	10000	3	1	0	3	0
17	288	0	10000	3	1	0	3	0
16	289	0	10000	3	1	0	3	0
17	290	0	10000	3	1	0	3	0
17	291	0	10000	3	1	0	3	0
17	292	0	10000	3	1	0	3	0
17	293	0	10000	3	1	0	3	0
16	294	0	10000	3	1	0	3	0
17	295	0	10000	3	1	0	3	0
15	296	0	10000	3	1	0	3	0
15	297	0	10000	3	1	0	3	0
15	298	0	10000	3	1	0	3	0
16	299	0	10000	3	1	0	3	0
15	300	0	10000	3	1	0	3	0
15	301	0	10000	3	1	0	3	0
15	302	0	10000	3	1	0	3	0
18	303	0	10000	3	1	0	3	0
19	304	0	10000	3	1	0	3	0
18	305	0	10000	3	1	0	3	0
19	306	0	10000	3	1	0	3	0
20	307	0	10000	3	1	0	3	0
20	308	0	10000	3	1	0	3	0
17	309	0	10000	3	1	0	3	0
17	310	0	10000	3	1	0	3	0
17	311	0	10000	3	1	0	3	0
20	312	0	10000	3	1	0	3	0
20	313	0	10000	3	1	0	3	0
20	314	0	10000	3	1	0	3	0
20	315	0	10000	3	1	0	3	0
21	316	0	10000	3	1	0	3	0
21	317	0	10000	3	1	0	3	0
23	318	0	10000	3	1	0	3	0
25	319	0	10000	3	1	0	3	0
26	320	0	10000	3	1	0	3	0
27	321	0	10000	3	1	0	3	0
26	322	0	10000	3	1	0	3	0
28	323	0	10000	3	1	0	3	0
30	324	0	10000	3	1	0	3	0
30	325	0	10000	3	1	0	3	0
32	326	0	10000	3	1	0	3	0
34	327	0	10000	3	1	0	3	0
35	328	0	10000	3	1	0	3	0
32	329	0	10000	3	1	0	3	0
32	330	0	10000	3	1	0	3	0
32	331	0	10000	3	1	0	3	0
32	332	0	10000	3	1	0	3	0
33	333	0	10000	3	1	0	3	0
35	334	0	10000	3	1	0	3	0
38	335	0	10000	3	1	0	3	0
40	336	0	10000	3	1	0	3	0
41	337	0	10000	3	1	0	3	0
42	338	0	10000	3	1	0	3	0
44	339	0	10000	3	1	0	3	0
44	340	0	10000	3	1	0	3	0
45	341	0	10000	3	1	0	3	0
47	342	0	10000	3	1	0	3	0
48	343	0	10000	3	1	0	3	0
49	344	0	10000	3	1	0	3	0
50	345	0	10000	3	1	0	3	0
51	346	0	10000	3	1	0	3	0
51	347	0	10000	3	1	0	3	0
52	348	0	10000	3	1	0	3	0
50	349	0	10000	3	1	0	3	0
49	350	0	10000	3	1	0	3	0
50	351	0	10000	3	1	0	3	0
51	352	0	10000	3	1	0	3	0
51	353	0	10000	3	1	0	3	0
50	354	0	10000	3	1	0	3	0
49	355	0	10000	3	1	0	3	0
46	356	0	10000	3	1	0	3	0
44	357	0	10000	3	1	0	3	0
42	358	0	10000	3	1	0	3	0
44	359	0	10000	3	1	0	3	0
44	360	0	10000	3	1	0	3	0
44	361	0	10000	3	1	0	3	0
44	362	0	10000	3	1	0	3	0
46	363	0	10000	3	1	0	3	0
47	364	0	10000	3	1	0	3	0
47	365	0	10000	3	1	0	3	0
49	366	0	10000	3	1	0	3	0
50	367	0	10000	3	1	0	3	0
51	368	0	10000	3	1	0	3	0
50	369	0	10000	3	1	0	3	0
51	370	0	10000	3	1	0	3	0
51	371	0	10000	3	1	0	3	0
51	372	0	10000	3	1	0	3	0
52	373	0	10000	3	1	0	3	0
54	374	0	10000	3	1	0	3	0
54	375	0	10000	3	1	0	3	0
56	376	0	10000	3	1	0	3	0
59	377	0	10000	3	1	0	3	0
61	378	0	10000	3	1	0	3	0
65	379	0	10000	3	1	0	3	0
68	380	0	10000	3	1	0	3	0
70	381	0	10000	3	1	0	3	0
70	382	0	10000	3	1	0	3	0
72	383	0	10000	3	1	0	3	0
71	384	0	10000	3	1	0	3	0
71	385	0	10000	3	1	0	3	0
72	386	0	10000	3	1	0	3	0
72	387	0	10000	3	1	0	3	0
71	388	0	10000	3	1	0	3	0
68	389	0	10000	3	1	0	3	0
66	390	0	10000	3	1	0	3	0
65	391	0	10000	3	1	0	3	0
64	392	0	10000	3	1	0	3	0
63	393	0	10000	3	1	0	3	0
62	394	0	10000	3	1	0	3	0
62	395	0	10000	3	1	0	3	0
60	396	0	10000	3	1	0	3	0
59	397	0	10000	3	1	0	3	0
58	398	0	10000	3	1	0	3	0
59	399	0	10000	3	1	0	3	0
58	400	0	10000	3	1	0	3	0
58	401	0	10000	3	1	0	3	0
57	402	0	10000	3	1	0	3	0
56	403	0	10000	3	1	0	3	0
56	404	0	10000	3	1	0	3	0
56	405	0	10000	3	1	0	3	0
57	406	0	10000	3	1	0	3	0
58	407	0	10000	3	1	0	3	0
58	408	0	10000	3	1	0	3	0
55	409	0	10000	3	1	0	3	0
53	410	0	10000	3	1	0	3	0
52	411	0	10000	3	1	0	3	0
50	412	0	10000	3	1	0	3	0
49	413	0	10000	3	1	0	3	0
47	414	0	10000	3	1	0	3	0
46	415	0	10000	3	1	0	3	0
44	416	0	10000	3	1	0	3	0
41	417	0	10000	3	1	0	3	0
39	418	0	10000	3	1	0	3	0
40	419	0	10000	3	1	0	3	0
38	420	0	10000	3	1	0	3	0
36	421	0	10000	3	1	0	3	0
35	422	0	10000	3	1	0	3	0
33	423	0	10000	3	1	0	3	0
32	424	0	10000	3	1	0	3	0
31	425	0	10000	3	1	0	3	0
30	426	0	10000	3	1	0	3	0
29	427	0	10000	3	1	0	3	0
29	428	0	10000	3	1	0	3	0
26	429	0	10000	3	1	0	3	0
26	430	0	10000	3	1	0	3	0
27	431	0	10000	3	1	0	3	0
26	432	0	10000	3	1	0	3	0
28	433	0	10000	3	1	0	3	0
27	434	0	10000	3	1	0	3	0
28	435	0	10000	3	1	0	3	0
28	436	0	10000	3	1	0	3	0
27	437	0	10000	3	1	0	3	0
26	438	0	10000	3	1	0	3	0
28	439	0	10000	3	1	0	3	0
26	440	0	10000	3	1	0	3	0
26	441	0	10000	3	1	0	3	0
26	442	0	10000	3	1	0	3	0
24	443	0	10000	3	1	0	3	0
23	444	0	10000	3	1	0	3	0
23	445	0	10000	3	1	0	3	0
22	446	0	10000	3	1	0	3	0
22	447	0	10000	3	1	0	3	0
22	448	0	10000	3	1	0	3	0
19	449	0	10000	3	1	0	3	0
19	450	0	10000	3	1	0	3	0
19	451	0	10000	3	1	0	3	0
19	452	0	10000	3	1	0	3	0
19	453	0	10000	3	1	0	3	0
19	454	0	10000	3	1	0	3	0
20	455	0	10000	3	1	0	3	0
19	456	0	10000	3	1	0	3	0
18	457	0	10000	3	1	0	3	0
17	458	0	10000	3	1	0	3	0
19	459	0	10000	3	1	0	3	0
20	460	0	10000	3	1	0	3	0
19	461	0	10000	3	1	0	3	0
18	462	0	10000	3	1	0	3	0
18	463	0	10000	3	1	0	3	0
17	464	0	10000	3	1	0	3	0
16	465	0	10000	3	1	0	3	0
16	466	0	10000	3	1	0	3	0
16	467	0	10000	3	1	0	3	0
16	468	0	10000	3	1	0	3	0
15	469	0	10000	3	1	0	3	0
14	470	0	10000	3	1	0	3	0
14	471	0	10000	3	1	0	3	0
15	472	0	10000	3	1	0	3	0
16	473	0	10000	3	1	0	3	0
16	474	0	10000	3	1	0	3	0
17	475	0	10000	3	1	0	3	0
16	476	0	10000	3	1	0	3	0
16	477	0	10000	3	1	0	3	0
15	478	0	10000	3	1	0	3	0
16	479	0	10000	3	1	0	3	0
17	480	0	10000	3	1	0	3	0
17	481	0	10000	3	1	0	3	0
16	482	0	10000	3	1	0	3	0
16	483	0	10000	3	1	0	3	0
16	484	0	10000	3	1	0	3	0
15	485	0	10000	3	1	0	3	0
16	486	0	10000	3	1	0	3	0
16	487	0	10000	3	1	0	3	0
16	488	0	10000	3	1	0	3	0
14	489	0	10000	3	1	0	3	0
12	490	0	10000	3	1	0	3	0
13	491	0	10000	3	1	0	3	0
14	492	0	10000	3	1	0	3	0
14	493	0	10000	3	1	0	3	0
15	494	0	10000	3	1	0	3	0
16	495	0	10000	3	1	0	3	0
14	496	0	10000	3	1	0	3	0
14	497	0	10000	3	1	0	3	0
15	498	0	10000	3	1	0	3	0
15	499	0	10000	3	1	0	3	0
15	500	0	10000	3	1	0	3	0
16	501	0	10000	3	1	0	3	0
16	501	0	10000	3	1	0	3	1
16	502	0	10000	3	1	0	3	1
17	504	0	10000	3	1	0	3	1
16	505	0	10000	3	1	0	3	1
15	506	0	10000	3	1	0	3	1
15	507	0	10000	3	1	0	3	1
15	508	0	10000	3	1	0	3	1
13	509	0	10000	3	1	0	3	1
13	510	0	10000	3	1	0	3	1
12	511	0	10000	3	1	0	3	1
13	512	0	10000	3	1	0	3	1
13	513	0	10000	3	1	0	3	1
13	514	0	10000	3	1	0	3	1
13	515	0	10000	3	1	0	3	1
13	516	0	10000	3	1	0	3	1
13	517	0	10000	3	1	0	3	1
14	518	0	10000	3	1	0	3	1
18	519	0	10000	3	1	0	3	1
18	520	0	10000	3	1	0	3	1
17	521	0	10000	3	1	0	3	1
16	522	0	10000	3	1	0	3	1
15	523	0	10000	3	1	0	3	1
15	524	0	10000	3	1	0	3	1
14	525	0	10000	3	1	0	3	1
13	526	0	10000	3	1	0	3	1
14	527	0	10000	3	1	0	3	1
14	528	0	10000	3	1	0	3	1
12	529	0	10000	3	1	0	3	1
13	530	0	10000	3	1	0	3	1
14	531	0	10000	3	1	0	3	1
15	532	0	10000	3	1	0	3	1
16	533	0	10000	3	1	0	3	1
16	534	0	10000	3	1	0	3	1
15	535	0	10000	3	1	0	3	1
14	536	0	10000	3	1	0	3	1
14	537	0	10000	3	1	0	3	1
13	538	0	10000	3	1	0	3	1
15	539	0	10000	3	1	0	3	1
15	540	0	10000	3	1	0	3	1
15	541	0	10000	3	1	0	3	1
15	542	0	10000	3	1	0	3	1
14	543	0	10000	3	1	0	3	1
14	544	0	10000	3	1	0	3	1
15	545	0	10000	3	1	0	3	1
14	546	0	10000	3	1	0	3	1
14	547	0	10000	3	1	0	3	1
14	548	0	10000	3	1	0	3	1
12	549	0	10000	3	1	0	3	1
11	550	0	10000	3	1	0	3	1
13	551	0	10000	3	1	0	3	1
12	552	0	10000	3	1	0	3	0
12	553	0	10000	3	1	0	3	0
13	554	0	10000	3	1	0	3	0
13	555	0	10000	3	1	0	3	0
12	556	0	10000	3	1	0	3	0
12	557	0	10000	3	1	0	3	0
11	558	0	10000	3	1	0	3	0
13	559	0	10000	3	1	0	3	0
13	560	0	10000	3	1	0	3	0
13	561	0	10000	3	1	0	3	0
13	562	0	10000	3	1	0	3	0
13	563	0	10000	3	1	0	3	0
12	564	0	10000	3	1	0	3	0
12	565	0	10000	3	1	0	3	0
12	566	0	10000	3	1	0	3	0
13	567	0	10000	3	1	0	3	0
12	568	0	10000	3	1	0	3	0
10	569	0	10000	3	1	0	3	0
10	570	0	10000	3	1	0	3	0
11	571	0	10000	3	1	0	3	0
11	572	0	10000	3	1	0	3	0
11	573	0	10000	3	1	0	3	0
10	574	0	10000	3	1	0	3	0
11	575	0	10000	3	1	0	3	0
10	576	0	10000	3	1	0	3	0
9	577	0	10000	3	1	0	3	0
9	578	0	10000	3	1	0	3	0
11	579	0	10000	3	1	0	3	0
10	580	0	10000	3	1	0	3	0
10	581	0	10000	3	1	0	3	0
9	582	0	10000	3	1	0	3	0
9	583	0	10000	3	1	0	3	0
8	584	0	10000	3	1	0	3	0
8	585	0	10000	3	1	0	3	0
9	586	0	10000	3	1	0	3	0
9	587	0	10000	3	1	0	3	0
10	588	0	10000	3	1	0	3	0
9	589	0	10000	3	1	0	3	0
13	590	0	10000	3	1	0	3	0
14	591	0	10000	3	1	0	3	0
16	592	0	10000	3	1	0	3	0
23	593	0	10000	3	1	0	3	0
26	594	0	10000	3	1	0	3	0
31	595	0	10000	3	1	0	3	0
39	596	0	10000	3	1	0	3	0
41	597	0	10000	3	1	0	3	0
46	598	0	10000	3	1	0	3	0
54	599	0	10000	3	1	0	3	0
56	600	0	10000	3	1	0	3	0
54	601	0	10000	3	1	0	3	0
54	602	0	10000	3	1	0	3	0
53	603	0	10000	3	1	0	3	0
53	604	0	10000	3	1	0	3	0
54	605	0	10000	3	1	0	3	0
75	606	0	10000	3	1	0	3	0
87	607	0	10000	3	1	0	3	0
89	608	0	10000	3	1	0	3	0
95	609	0	10000	3	1	0	3	0
101	610	0	10000	3	1	0	3	0
98	611	0	10000	3	1	0	3	0
96	612	0	10000	3	1	0	3	0
98	613	0	10000	3	1	0	3	0
99	614	0	10000	3	1	0	3	0
101	615	0	10000	3	1	0	3	0
99	616	0	10000	3	1	0	3	0
97	617	0	10000	3	1	0	3	0
92	618	0	10000	3	1	0	3	0
96	619	0	10000	3	1	0	3	0
110	620	0	10000	3	1	0	3	0
111	621	0	10000	3	1	0	3	0
119	622	0	10000	3	1	0	3	0
132	623	0	10000	3	1	0	3	0
137	624	0	10000	3	1	0	3	0
141	625	0	10000	3	1	0	3	0
138	626	0	10000	3	1	0	3	0
137	627	0	10000	3	1	0	3	0
136	628	0	10000	3	1	0	3	0
132	629	0	10000	3	1	0	3	0
127	630	0	10000	3	1	0	3	0
126	631	0	10000	3	1	0	3	0
121	632	0	10000	3	1	0	3	0
118	633	0	10000	3	1	0	3	0
116	634	0	10000	3	1	0	3	0
111	635	0	10000	3	1	0	3	0
108	636	0	10000	3	1	0	3	0
105	637	0	10000	3	1	0	3	0
100	638	0	10000	3	1	0	3	0
100	639	0	10000	3	1	0	3	0
99	640	0	10000	3	1	0	3	0
96	641	0	10000	3	1	0	3	0
94	642	0	10000	3	1	0	3	0
91	643	0	10000	3	1	0	3	0
87	644	0	10000	3	1	0	3	0
83	645	0	10000	3	1	0	3	0
81	646	0	10000	3	1	0	3	0
78	647	0	10000	3	1	0	3	0
75	648	0	10000	3	1	0	3	0
72	649	0	10000	3	1	0	3	0
70	650	0	10000	3	1	0	3	0
69	651	0	10000	3	1	0	3	0
69	652	0	10000	3	1	0	3	0
67	653	0	10000	3	1	0	3	0
67	654	0	10000	3	1	0	3	0
68	655	0	10000	3	1	0	3	0
68	656	0	10000	3	1	0	3	0
69	657	0	10000	3	1	0	3	0
70	658	0	10000	3	1	0	3	0
72	659	0	10000	3	1	0	3	0
73	660	0	10000	3	1	0	3	0
72	661	0	10000	3	1	0	3	0
71	662	0	10000	3	1	0	3	0
72	663	0	10000	3	1	0	3	0
71	664	0	10000	3	1	0	3	0
70	665	0	10000	3	1	0	3	0
70	666	0	10000	3	1	0	3	0
67	667	0	10000	3	1	0	3	0
64	668	0	10000	3	1	0	3	0
61	669	0	10000	3	1	0	3	0
58	670	0	10000	3	1	0	3	0
56	671	0	10000	3	1	0	3	0
54	672	0	10000	3	1	0	3	0
52	673	0	10000	3	1	0	3	0
50	674	0	10000	3	1	0	3	0
49	675	0	10000	3	1	0	3	0
46	676	0	10000	3	1	0	3	0
44	677	0	10000	3	1	0	3	0
42	678	0	10000	3	1	0	3	0
43	679	0	10000	3	1	0	3	0
42	680	0	10000	3	1	0	3	0
42	681	0	10000	3	1	0	3	0
42	682	0	10000	3	1	0	3	0
41	683	0	10000	3	1	0	3	0
40	684	0	10000	3	1	0	3	0
38	685	0	10000	3	1	0	3	0
36	686	0	10000	3	1	0	3	0
36	687	0	10000	3	1	0	3	0
36	688	0	10000	3	1	0	3	0
33	689	0	10000	3	1	0	3	0
32	690	0	10000	3	1	0	3	0
32	691	0	10000	3	1	0	3	0
32	692	0	10000	3	1	0	3	0
32	693	0	10000	3	1	0	3	0
32	694	0	10000	3	1	0	3	0
32	695	0	10000	3	1	0	3	0
31	696	0	10000	3	1	0	3	0
30	697	0	10000	3	1	0	3	0
28	698	0	10000	3	1	0	3	0
31	699	0	10000	3	1	0	3	0
31	700	0	10000	3	1	0	3	0
32	701	0	10000	3	1	0	3	0
33	702	0	10000	3	1	0	3	0
33	703	0	10000	3	1	0	3	0
33	704	0	10000	3	1	0	3	0
34	705	0	10000	3	1	0	3	0
35	706	0	10000	3	1	0	3	0
35	707	0	10000	3	1	0	3	0
37	708	0	10000	3	1	0	3	0
37	709	0	10000	3	1	0	3	0
36	710	0	10000	3	1	0	3	0
35	711	0	10000	3	1	0	3	0
36	712	0	10000	3	1	0	3	0
37	713	0	10000	3	1	0	3	0
38	714	0	10000	3	1	0	3	0
38	715	0	10000	3	1	0	3	0
40	716	0	10000	3	1	0	3	0
42	717	0	10000	3	1	0	3	0
43	718	0	10000	3	1	0	3	0
46	719	0	10000	3	1	0	3	0
46	720	0	10000	3	1	0	3	0
45	721	0	10000	3	1	0	3	0
44	722	0	10000	3	1	0	3	0
41	723	0	10000	3	1	0	3	0
42	724	0	10000	3	1	0	3	0
43	725	0	10000	3	1	0	3	0
46	726	0	10000	3	1	0	3	0
51	727	0	10000	3	1	0	3	0
57	728	0	10000	3	1	0	3	0
59	729	0	10000	3	1	0	3	0
64	730	0	10000	3	1	0	3	0
69	731	0	10000	3	1	0	3	0
75	732	0	10000	3	1	0	3	0
81	733	0	10000	3	1	0	3	0
88	734	0	10000	3	1	0	3	0
94	735	0	10000	3	1	0	3	0
99	736	0	10000	3	1	0	3	0
102	737	0	10000	3	1	0	3	0
102	738	0	10000	3	1	0	3	0
107	739	0	10000	3	1	0	3	0
112	740	0	10000	3	1	0	3	0
115	741	0	10000	3	1	0	3	0
117	742	0	10000	3	1	0	3	0
120	743	0	10000	3	1	0	3	0
121	744	0	10000	3	1	0	3	0
121	745	0	10000	3	1	0	3	0
117	746	0	10000	3	1	0	3	0
112	747	0	10000	3	1	0	3	0
108	748	0	10000	3	1	0	3	0
102	749	0	10000	3	1	0	3	0
98	750	0	10000	3	1	0	3	0
95	751	0	10000	3	1	0	3	0
91	752	0	10000	3	1	0	3	0
86	753	0	10000	3	1	0	3	0
83	754	0	10000	3	1	0	3	0
80	755	0	10000	3	1	0	3	0
77	756	0	10000	3	1	0	3	0
75	757	0	10000	3	1	0	3	0
75	758	0	10000	3	1	0	3	0
79	759	0	10000	3	1	0	3	0
81	760	0	10000	3	1	0	3	0
81	761	0	10000	3	1	0	3	0
83	762	0	10000	3	1	0	3	0
86	763	0	10000	3	1	0	3	0
89	764	0	10000	3	1	0	3	0
92	765	0	10000	3	1	0	3	0
96	766	0	10000	3	1	0	3	0
98	767	0	10000	3	1	0	3	0
100	768	0	10000	3	1	0	3	0
99	769	0	10000	3	1	0	3	0
100	770	0	10000	3	1	0	3	0
100	771	0	10000	3	1	0	3	0
99	772	0	10000	3	1	0	3	0
98	773	0	10000	3	1	0	3	0
98	774	0	10000	3	1	0	3	0
98	775	0	10000	3	1	0	3	0
98	776	0	10000	3	1	0	3	0
98	777	0	10000	3	1	0	3	0
99	778	0	10000	3	1	0	3	0
101	779	0	10000	3	1	0	3	0
102	780	0	10000	3	1	0	3	0
103	781	0	10000	3	1	0	3	0
100	782	0	10000	3	1	0	3	0
99	783	0	10000	3	1	0	3	0
98	784	0	10000	3	1	0	3	0
96	785	0	10000	3	1	0	3	0
96	786	0	10000	3	1	0	3	0
96	787	0	10000	3	1	0	3	0
95	788	0	10000	3	1	0	3	0
92	789	0	10000	3	1	0	3	0
91	790	0	10000	3	1	0	3	0
89	791	0	10000	3	1	0	3	0
87	792	0	10000	3	1	0	3	0
85	793	0	10000	3	1	0	3	0
83	794	0	10000	3	1	0	3	0
82	795	0	10000	3	1	0	3	0
80	796	0	10000	3	1	0	3	0
79	797	0	10000	3	1	0	3	0
75	798	0	10000	3	1	0	3	0
74	799	0	10000	3	1	0	3	0
71	800	0	10000	3	1	0	3	0
67	801	0	10000	3	1	0	3	0
64	802	0	10000	3	1	0	3	0
62	803	0	10000	3	1	0	3	0
60	804	0	10000	3	1	0	3	0
58	805	0	10000	3	1	0	3	0
57	806	0	10000	3	1	0	3	0
56	807	0	10000	3	1	0	3	0
56	808	0	10000	3	1	0	3	0
53	809	0	10000	3	1	0	3	0
52	810	0	10000	3	1	0	3	0
53	811	0	10000	3	1	0	3	0
53	812	0	10000	3	1	0	3	0
54	813	0	10000	3	1	0	3	0
55	814	0	10000	3	1	0	3	0
57	815	0	10000	3	1	0	3	0
57	816	0	10000	3	1	0	3	0
56	817	0	10000	3	1	0	3	0
55	818	0	10000	3	1	0	3	0
56	819	0	10000	3	1	0	3	0
56	820	0	10000	3	1	0	3	0
56	821	0	10000	3	1	0	3	0
56	822	0	10000	3	1	0	3	0
56	823	0	10000	3	1	0	3	0
56	824	0	10000	3	1	0	3	0
55	825	0	10000	3	1	0	3	0
54	826	0	10000	3	1	0	3	0
54	827	0	10000	3	1	0	3	0
54	828	0	10000	3	1	0	3	0
49	829	0	10000	3	1	0	3	0
48	830	0	10000	3	1	0	3	0
48	831	0	10000	3	1	0	3	0
47	832	0	10000	3	1	0	3	0
45	833	0	10000	3	1	0	3	0
45	834	0	10000	3	1	0	3	0
44	835	0	10000	3	1	0	3	0
42	836	0	10000	3	1	0	3	0
40	837	0	10000	3	1	0	3	0
38	838	0	10000	3	1	0	3	0
40	839	0	10000	3	1	0	3	0
40	840	0	10000	3	1	0	3	0
38	841	0	10000	3	1	0	3	0
38	842	0	10000	3	1	0	3	0
39	843	0	10000	3	1	0	3	0
39	844	0	10000	3	1	0	3	0
39	845	0	10000	3	1	0	3	0
40	846	0	10000	3	1	0	3	0
41	847	0	10000	3	1	0	3	0
41	848	0	10000	3	1	0	3	0
39	849	0	10000	3	1	0	3	0
40	850	0	10000	3	1	0	3	0
40	851	0	10000	3	1	0	3	0
39	852	0	10000	3	1	0	3	0
38	853	0	10000	3	1	0	3	0
37	854	0	10000	3	1	0	3	0
38	855	0	10000	3	1	0	3	0
37	856	0	10000	3	1	0	3	0
37	857	0	10000	3	1	0	3	0
38	858	0	10000	3	1	0	3	0
39	859	0	10000	3	1	0	3	0
39	860	0	10000	3	1	0	3	0
37	861	0	10000	3	1	0	3	0
36	862	0	10000	3	1	0	3	0
37	863	0	10000	3	1	0	3	0
37	864	0	10000	3	1	0	3	0
37	865	0	10000	3	1	0	3	0
38	866	0	10000	3	1	0	3	0
38	867	0	10000	3	1	0	3	0
39	868	0	10000	3	1	0	3	0
38	869	0	10000	3	1	0	3	0
38	870	0	10000	3	1	0	3	0
39	871	0	10000	3	1	0	3	0
39	872	0	10000	3	1	0	3	0
41	873	0	10000	3	1	0	3	0
41	874	0	10000	3	1	0	3	0
43	875	0	10000	3	1	0	3	0
44	876	0	10000	3	1	0	3	0
43	877	0	10000	3	1	0	3	0
43	878	0	10000	3	1	0	3	0
44	879	0	10000	3	1	0	3	0
44	880	0	10000	3	1	0	3	0
43	881	0	10000	3	1	0	3	0
42	882	0	10000	3	1	0	3	0
42	883	0	10000	3	1	0	3	0
42	884	0	10000	3	1	0	3	0
41	885	0	10000	3	1	0	3	0
40	886	0	10000	3	1	0	3	0
39	887	0	10000	3	1	0	3	0
38	888	0	10000	3	1	0	3	0
35	889	0	10000	3	1	0	3	0
36	890	0	10000	3	1	0	3	0
34	891	0	10000	3	1	0	3	0
34	892	0	10000	3	1	0	3	0
34	893	0	10000	3	1	0	3	0
33	894	0	10000	3	1	0	3	0
33	895	0	10000	3	1	0	3	0
32	896	0	10000	3	1	0	3	0
30	897	0	10000	3	1	0	3	0
28	898	0	10000	3	1	0	3	0
30	899	0	10000	3	1	0	3	0
28	900	0	10000	3	1	0	3	0
27	901	0	10000	3	1	0	3	0
26	902	0	10000	3	1	0	3	0
25	903	0	10000	3	1	0	3	0
24	904	0	10000	3	1	0	3	0
24	905	0	10000	3	1	0	3	0
24	906	0	10000	3	1	0	3	0
24	907	0	10000	3	1	0	3	0
24	908	0	10000	3	1	0	3	0
21	909	0	10000	3	1	0	3	0
20	910	0	10000	3	1	0	3	0
20	911	0	10000	3	1	0	3	0
20	912	0	10000	3	1	0	3	0
18	913	0	10000	3	1	0	3	0
17	914	0	10000	3	1	0	3	0
17	915	0	10000	3	1	0	3	0
17	916	0	10000	3	1	0	3	0
18	917	0	10000	3	1	0	3	0
16	918	0	10000	3	1	0	3	0
17	919	0	10000	3	1	0	3	0
17	920	0	10000	3	1	0	3	0
16	921	0	10000	3	1	0	3	0
15	922	0	10000	3	1	0	3	0
14	923	0	10000	3	1	0	3	0
14	924	0	10000	3	1	0	3	0
14	925	0	10000	3	1	0	3	0
14	926	0	10000	3	1	0	3	0
14	927	0	10000	3	1	0	3	0
14	928	0	10000	3	1	0	3	0
12	929	0	10000	3	1	0	3	0
12	930	0	10000	3	1	0	3	0
13	931	0	10000	3	1	0	3	0
14	932	0	10000	3	1	0	3	0
15	933	0	10000	3	1	0	3	0
17	934	0	10000	3	1	0	3	0
16	935	0	10000	3	1	0	3	0
16	936	0	10000	3	1	0	3	0
15	937	0	10000	3	1	0	3	0
15	938	0	10000	3	1	0	3	0
16	939	0	10000	3	1	0	3	0
17	940	0	10000	3	1	0	3	0
15	941	0	10000	3	1	0	3	0
16	942	0	10000	3	1	0	3	0
17	943	0	10000	3	1	0	3	0
18	944	0	10000	3	1	0	3	0
19	945	0	10000	3	1	0	3	0
22	946	0	10000	3	1	0	3	0
23	947	0	10000	3	1	0	3	0
24	948	0	10000	3	1	0	3	0
24	949	0	10000	3	1	0	3	0
23	950	0	10000	3	1	0	3	0
25	951	0	10000	3	1	0	3	0
25	952	0	10000	3	1	0	3	0
24	953	0	10000	3	1	0	3	0
23	954	0	10000	3	1	0	3	0
23	955	0	10000	3	1	0	3	0
22	956	0	10000	3	1	0	3	0
22	957	0	10000	3	1	0	3	0
21	958	0	10000	3	1	0	3	0
22	959	0	10000	3	1	0	3	0
22	960	0	10000	3	1	0	3	0
21	961	0	10000	3	1	0	3	0
20	962	0	10000	3	1	0	3	0
20	963	0	10000	3	1	0	3	0
19	964	0	10000	3	1	0	3	0
19	965	0	10000	3	1	0	3	0
18	966	0	10000	3	1	0	3	0
18	967	0	10000	3	1	0	3	0
18	968	0	10000	3	1	0	3	0
15	969	0	10000	3	1	0	3	0
15	970	0	10000	3	1	0	3	0
15	971	0	10000	3	1	0	3	0
15	972	0	10000	3	1	0	3	0
14	973	0	10000	3	1	0	3	0
14	974	0	10000	3	1	0	3	0
14	975	0	10000	3	1	0	3	0
13	976	0	10000	3	1	0	3	0
12	977	0	10000	3	1	0	3	0
12	978	0	10000	3	1	0	3	0
13	979	0	10000	3	1	0	3	0
12	980	0	10000	3	1	0	3	0
13	981	0	10000	3	1	0	3	0
12	982	0	10000	3	1	0	3	0
11	983	0	10000	3	1	0	3	0
12	984	0	10000	3	1	0	3	0
12	985	0	10000	3	1	0	3	0
15	986	0	10000	3	1	0	3	0
17	987	0	10000	3	1	0	3	0
17	988	0	10000	3	1	0	3	0
17	989	0	10000	3	1	0	3	0
17	990	0	10000	3	1	0	3	0
18	991	0	10000	3	1	0	3	0
18	992	0	10000	3	1	0	3	0
19	993	0	10000	3	1	0	3	0
19	994	0	10000	3	1	0	3	0
19	995	0	10000	3	1	0	3	0
18	996	0	10000	3	1	0	3	0
16	997	0	10000	3	1	0	3	0
16	998	0	10000	3	1	0	3	0
19	999	0	10000	3	1	0	3	0
19	1000	0	10000	3	1	0	3	0
20	1001	0	10000	3	1	0	3	0
15	2	10	10000	4	1	0	4	0
16	3	10	10000	4	1	0	4	0
15	4	10	10000	4	1	0	4	0
15	5	10	10000	4	1	0	4	0
16	6	10	10000	4	1	0	4	0
16	7	10	10000	4	1	0	4	0
15	8	10	10000	4	1	0	4	0
15	9	10	10000	4	1	0	4	0
16	10	10	10000	4	1	0	4	0
16	11	10	10000	4	1	0	4	0
16	12	10	10000	4	1	0	4	0
15	13	10	10000	4	1	0	4	0
14	14	10	10000	4	1	0	4	0
14	15	10	10000	4	1	0	4	0
13	16	10	10000	4	1	0	4	0
13	17	10	10000	4	1	0	4	0
15	18	10	10000	4	1	0	4	0
17	19	10	10000	4	1	0	4	0
15	20	10	10000	4	1	0	4	0
14	21	10	10000	4	1	0	4	0
14	22	10	10000	4	1	0	4	0
14	23	10	10000	4	1	0	4	0
14	24	10	10000	4	1	0	4	0
15	25	10	10000	4	1	0	4	0
15	26	10	10000	4	1	0	4	0
15	27	10	10000	4	1	0	4	0
14	28	10	10000	4	1	0	4	0
14	29	10	10000	4	1	0	4	0
15	30	10	10000	4	1	0	4	0
15	31	10	10000	4	1	0	4	0
15	32	10	10000	4	1	0	4	0
15	33	10	10000	4	1	0	4	0
16	34	10	10000	4	1	0	4	0
19	35	10	10000	4	1	0	4	0
21	36	10	10000	4	1	0	4	0
24	37	10	10000	4	1	0	4	0
27	38	10	10000	4	1	0	4	0
28	39	10	10000	4	1	0	4	0
28	40	10	10000	4	1	0	4	0
26	41	10	10000	4	1	0	4	0
26	42	10	10000	4	1	0	4	0
27	43	10	10000	4	1	0	4	0
27	44	10	10000	4	1	0	4	0
26	45	10	10000	4	1	0	4	0
26	46	10	10000	4	1	0	4	0
28	47	10	10000	4	1	0	4	0
31	48	10	10000	4	1	0	4	0
35	49	10	10000	4	1	0	4	0
44	50	10	10000	4	1	0	4	0
50	51	10	10000	4	1	0	4	0
57	52	10	10000	4	1	0	4	0
66	53	10	10000	4	1	0	4	0
74	54	10	10000	4	1	0	4	0
82	55	10	10000	4	1	0	4	0
88	56	10	10000	4	1	0	4	0
93	57	10	10000	4	1	0	4	0
99	58	10	10000	4	1	0	4	0
104	59	10	10000	4	1	0	4	0
106	60	10	10000	4	1	0	4	0
108	61	10	10000	4	1	0	4	0
113	62	10	10000	4	1	0	4	0
117	63	10	10000	4	1	0	4	0
122	64	10	10000	4	1	0	4	0
127	65	10	10000	4	1	0	4	0
130	66	10	10000	4	1	0	4	0
134	67	10	10000	4	1	0	4	0
138	68	10	10000	4	1	0	4	0
140	69	10	10000	4	1	0	4	0
142	70	10	10000	4	1	0	4	0
143	71	10	10000	4	1	0	4	0
143	72	10	10000	4	1	0	4	0
144	73	10	10000	4	1	0	4	0
143	74	10	10000	4	1	0	4	0
141	75	10	10000	4	1	0	4	0
139	76	10	10000	4	1	0	4	0
136	77	10	10000	4	1	0	4	0
132	78	10	10000	4	1	0	4	0
128	79	10	10000	4	1	0	4	0
122	80	10	10000	4	1	0	4	0
115	81	10	10000	4	1	0	4	0
111	82	10	10000	4	1	0	4	0
106	83	10	10000	4	1	0	4	0
102	84	10	10000	4	1	0	4	0
97	85	10	10000	4	1	0	4	0
93	86	10	10000	4	1	0	4	0
90	87	10	10000	4	1	0	4	0
87	88	10	10000	4	1	0	4	0
83	89	10	10000	4	1	0	4	0
83	90	10	10000	4	1	0	4	0
83	91	10	10000	4	1	0	4	0
80	92	10	10000	4	1	0	4	0
80	93	10	10000	4	1	0	4	0
82	94	10	10000	4	1	0	4	0
84	95	10	10000	4	1	0	4	0
87	96	10	10000	4	1	0	4	0
92	97	10	10000	4	1	0	4	0
95	98	10	10000	4	1	0	4	0
100	99	10	10000	4	1	0	4	0
104	100	10	10000	4	1	0	4	0
107	101	10	10000	4	1	0	4	0
111	102	10	10000	4	1	0	4	0
116	103	10	10000	4	1	0	4	0
118	104	10	10000	4	1	0	4	0
121	105	10	10000	4	1	0	4	0
125	106	10	10000	4	1	0	4	0
127	107	10	10000	4	1	0	4	0
128	108	10	10000	4	1	0	4	0
130	109	10	10000	4	1	0	4	0
134	110	10	10000	4	1	0	4	0
138	111	10	10000	4	1	0	4	0
140	112	10	10000	4	1	0	4	0
143	113	10	10000	4	1	0	4	0
146	114	10	10000	4	1	0	4	0
150	115	10	10000	4	1	0	4	0
154	116	10	10000	4	1	0	4	0
158	117	10	10000	4	1	0	4	0
161	118	10	10000	4	1	0	4	0
163	119	10	10000	4	1	0	4	0
164	120	10	10000	4	1	0	4	0
164	121	10	10000	4	1	0	4	0
164	122	10	10000	4	1	0	4	0
163	123	10	10000	4	1	0	4	0
163	124	10	10000	4	1	0	4	0
162	125	10	10000	4	1	0	4	0
161	126	10	10000	4	1	0	4	0
160	127	10	10000	4	1	0	4	0
159	128	10	10000	4	1	0	4	0
156	129	10	10000	4	1	0	4	0
156	130	10	10000	4	1	0	4	0
156	131	10	10000	4	1	0	4	0
154	132	10	10000	4	1	0	4	0
153	133	10	10000	4	1	0	4	0
151	134	10	10000	4	1	0	4	0
148	135	10	10000	4	1	0	4	0
145	136	10	10000	4	1	0	4	0
143	137	10	10000	4	1	0	4	0
141	138	10	10000	4	1	0	4	0
138	139	10	10000	4	1	0	4	0
134	140	10	10000	4	1	0	4	0
131	141	10	10000	4	1	0	4	0
128	142	10	10000	4	1	0	4	0
125	143	10	10000	4	1	0	4	0
122	144	10	10000	4	1	0	4	0
119	145	10	10000	4	1	0	4	0
116	146	10	10000	4	1	0	4	0
113	147	10	10000	4	1	0	4	0
110	148	10	10000	4	1	0	4	0
107	149	10	10000	4	1	0	4	0
107	150	10	10000	4	1	0	4	0
104	151	10	10000	4	1	0	4	0
103	152	10	10000	4	1	0	4	0
101	153	10	10000	4	1	0	4	0
98	154	10	10000	4	1	0	4	0
95	155	10	10000	4	1	0	4	0
92	156	10	10000	4	1	0	4	0
88	157	10	10000	4	1	0	4	0
87	158	10	10000	4	1	0	4	0
86	159	10	10000	4	1	0	4	0
81	160	10	10000	4	1	0	4	0
78	161	10	10000	4	1	0	4	0
76	162	10	10000	4	1	0	4	0
72	163	10	10000	4	1	0	4	0
70	164	10	10000	4	1	0	4	0
67	165	10	10000	4	1	0	4	0
65	166	10	10000	4	1	0	4	0
62	167	10	10000	4	1	0	4	0
61	168	10	10000	4	1	0	4	0
58	169	10	10000	4	1	0	4	0
57	170	10	10000	4	1	0	4	0
56	171	10	10000	4	1	0	4	0
53	172	10	10000	4	1	0	4	0
52	173	10	10000	4	1	0	4	0
50	174	10	10000	4	1	0	4	0
47	175	10	10000	4	1	0	4	0
45	176	10	10000	4	1	0	4	0
44	177	10	10000	4	1	0	4	0
42	178	10	10000	4	1	0	4	0
41	179	10	10000	4	1	0	4	0
38	180	10	10000	4	1	0	4	0
35	181	10	10000	4	1	0	4	0
34	182	10	10000	4	1	0	4	0
33	183	10	10000	4	1	0	4	0
32	184	10	10000	4	1	0	4	0
31	185	10	10000	4	1	0	4	0
29	186	10	10000	4	1	0	4	0
28	187	10	10000	4	1	0	4	0
28	188	10	10000	4	1	0	4	0
27	189	10	10000	4	1	0	4	0
28	190	10	10000	4	1	0	4	0
28	191	10	10000	4	1	0	4	0
26	192	10	10000	4	1	0	4	0
27	193	10	10000	4	1	0	4	0
28	194	10	10000	4	1	0	4	0
27	195	10	10000	4	1	0	4	0
27	196	10	10000	4	1	0	4	0
28	197	10	10000	4	1	0	4	0
27	198	10	10000	4	1	0	4	0
28	199	10	10000	4	1	0	4	0
28	200	10	10000	4	1	0	4	0
27	201	10	10000	4	1	0	4	0
26	202	10	10000	4	1	0	4	0
26	203	10	10000	4	1	0	4	0
26	204	10	10000	4	1	0	4	0
26	205	10	10000	4	1	0	4	0
28	206	10	10000	4	1	0	4	0
28	207	10	10000	4	1	0	4	0
28	208	10	10000	4	1	0	4	0
27	209	10	10000	4	1	0	4	0
27	210	10	10000	4	1	0	4	0
28	211	10	10000	4	1	0	4	0
27	212	10	10000	4	1	0	4	0
26	213	10	10000	4	1	0	4	0
26	214	10	10000	4	1	0	4	0
26	215	10	10000	4	1	0	4	0
25	216	10	10000	4	1	0	4	0
26	217	10	10000	4	1	0	4	0
26	218	10	10000	4	1	0	4	0
27	219	10	10000	4	1	0	4	0
26	220	10	10000	4	1	0	4	0
26	221	10	10000	4	1	0	4	0
26	222	10	10000	4	1	0	4	0
27	223	10	10000	4	1	0	4	0
28	224	10	10000	4	1	0	4	0
30	225	10	10000	4	1	0	4	0
29	226	10	10000	4	1	0	4	0
29	227	10	10000	4	1	0	4	0
28	228	10	10000	4	1	0	4	0
28	229	10	10000	4	1	0	4	0
30	230	10	10000	4	1	0	4	0
30	231	10	10000	4	1	0	4	0
29	232	10	10000	4	1	0	4	0
28	233	10	10000	4	1	0	4	0
26	234	10	10000	4	1	0	4	0
25	235	10	10000	4	1	0	4	0
25	236	10	10000	4	1	0	4	0
24	237	10	10000	4	1	0	4	0
24	238	10	10000	4	1	0	4	0
23	239	10	10000	4	1	0	4	0
22	240	10	10000	4	1	0	4	0
20	241	10	10000	4	1	0	4	0
20	242	10	10000	4	1	0	4	0
20	243	10	10000	4	1	0	4	0
20	244	10	10000	4	1	0	4	0
19	245	10	10000	4	1	0	4	0
20	246	10	10000	4	1	0	4	0
20	247	10	10000	4	1	0	4	0
20	248	10	10000	4	1	0	4	0
20	249	10	10000	4	1	0	4	0
22	250	10	10000	4	1	0	4	0
21	251	10	10000	4	1	0	4	0
21	252	10	10000	4	1	0	4	0
22	253	10	10000	4	1	0	4	0
21	254	10	10000	4	1	0	4	0
21	255	10	10000	4	1	0	4	0
21	256	10	10000	4	1	0	4	0
20	257	10	10000	4	1	0	4	0
20	258	10	10000	4	1	0	4	0
21	259	10	10000	4	1	0	4	0
20	260	10	10000	4	1	0	4	0
20	261	10	10000	4	1	0	4	0
21	262	10	10000	4	1	0	4	0
22	263	10	10000	4	1	0	4	0
25	264	10	10000	4	1	0	4	0
26	265	10	10000	4	1	0	4	0
27	266	10	10000	4	1	0	4	0
27	267	10	10000	4	1	0	4	0
26	268	10	10000	4	1	0	4	0
26	269	10	10000	4	1	0	4	0
26	270	10	10000	4	1	0	4	0
26	271	10	10000	4	1	0	4	0
25	272	10	10000	4	1	0	4	0
23	273	10	10000	4	1	0	4	0
24	274	10	10000	4	1	0	4	0
25	275	10	10000	4	1	0	4	0
26	276	10	10000	4	1	0	4	0
28	277	10	10000	4	1	0	4	0
29	278	10	10000	4	1	0	4	0
31	279	10	10000	4	1	0	4	0
31	280	10	10000	4	1	0	4	0
31	281	10	10000	4	1	0	4	0
32	282	10	10000	4	1	0	4	0
32	283	10	10000	4	1	0	4	0
34	284	10	10000	4	1	0	4	0
34	285	10	10000	4	1	0	4	0
36	286	10	10000	4	1	0	4	0
35	287	10	10000	4	1	0	4	0
34	288	10	10000	4	1	0	4	0
34	289	10	10000	4	1	0	4	0
36	290	10	10000	4	1	0	4	0
37	291	10	10000	4	1	0	4	0
36	292	10	10000	4	1	0	4	0
35	293	10	10000	4	1	0	4	0
33	294	10	10000	4	1	0	4	0
32	295	10	10000	4	1	0	4	0
31	296	10	10000	4	1	0	4	0
31	297	10	10000	4	1	0	4	0
30	298	10	10000	4	1	0	4	0
30	299	10	10000	4	1	0	4	0
28	300	10	10000	4	1	0	4	0
25	301	10	10000	4	1	0	4	0
25	302	10	10000	4	1	0	4	0
25	303	10	10000	4	1	0	4	0
25	304	10	10000	4	1	0	4	0
24	305	10	10000	4	1	0	4	0
24	306	10	10000	4	1	0	4	0
23	307	10	10000	4	1	0	4	0
23	308	10	10000	4	1	0	4	0
24	309	10	10000	4	1	0	4	0
25	310	10	10000	4	1	0	4	0
27	311	10	10000	4	1	0	4	0
28	312	10	10000	4	1	0	4	0
26	313	10	10000	4	1	0	4	0
26	314	10	10000	4	1	0	4	0
25	315	10	10000	4	1	0	4	0
24	316	10	10000	4	1	0	4	0
23	317	10	10000	4	1	0	4	0
23	318	10	10000	4	1	0	4	0
23	319	10	10000	4	1	0	4	0
23	320	10	10000	4	1	0	4	0
23	321	10	10000	4	1	0	4	0
23	322	10	10000	4	1	0	4	0
22	323	10	10000	4	1	0	4	0
21	324	10	10000	4	1	0	4	0
20	325	10	10000	4	1	0	4	0
20	326	10	10000	4	1	0	4	0
19	327	10	10000	4	1	0	4	0
18	328	10	10000	4	1	0	4	0
17	329	10	10000	4	1	0	4	0
18	330	10	10000	4	1	0	4	0
19	331	10	10000	4	1	0	4	0
18	332	10	10000	4	1	0	4	0
17	333	10	10000	4	1	0	4	0
17	334	10	10000	4	1	0	4	0
16	335	10	10000	4	1	0	4	0
17	336	10	10000	4	1	0	4	0
17	337	10	10000	4	1	0	4	0
19	338	10	10000	4	1	0	4	0
19	339	10	10000	4	1	0	4	0
17	340	10	10000	4	1	0	4	0
16	341	10	10000	4	1	0	4	0
17	342	10	10000	4	1	0	4	0
17	343	10	10000	4	1	0	4	0
17	344	10	10000	4	1	0	4	0
16	345	10	10000	4	1	0	4	0
16	346	10	10000	4	1	0	4	0
15	347	10	10000	4	1	0	4	0
14	348	10	10000	4	1	0	4	0
13	349	10	10000	4	1	0	4	0
14	350	10	10000	4	1	0	4	0
15	351	10	10000	4	1	0	4	0
14	352	10	10000	4	1	0	4	0
14	353	10	10000	4	1	0	4	0
14	354	10	10000	4	1	0	4	0
13	355	10	10000	4	1	0	4	0
14	356	10	10000	4	1	0	4	0
12	357	10	10000	4	1	0	4	0
12	358	10	10000	4	1	0	4	0
13	359	10	10000	4	1	0	4	0
11	360	10	10000	4	1	0	4	0
11	361	10	10000	4	1	0	4	0
12	362	10	10000	4	1	0	4	0
10	363	10	10000	4	1	0	4	0
11	364	10	10000	4	1	0	4	0
11	365	10	10000	4	1	0	4	0
11	366	10	10000	4	1	0	4	0
12	367	10	10000	4	1	0	4	0
12	368	10	10000	4	1	0	4	0
11	369	10	10000	4	1	0	4	0
12	370	10	10000	4	1	0	4	0
13	371	10	10000	4	1	0	4	0
12	372	10	10000	4	1	0	4	0
12	373	10	10000	4	1	0	4	0
12	374	10	10000	4	1	0	4	0
12	375	10	10000	4	1	0	4	0
11	376	10	10000	4	1	0	4	0
11	377	10	10000	4	1	0	4	0
13	378	10	10000	4	1	0	4	0
13	379	10	10000	4	1	0	4	0
12	380	10	10000	4	1	0	4	0
11	381	10	10000	4	1	0	4	0
12	382	10	10000	4	1	0	4	0
12	383	10	10000	4	1	0	4	0
12	384	10	10000	4	1	0	4	0
12	385	10	10000	4	1	0	4	0
12	386	10	10000	4	1	0	4	0
11	387	10	10000	4	1	0	4	0
11	388	10	10000	4	1	0	4	0
10	389	10	10000	4	1	0	4	0
11	390	10	10000	4	1	0	4	0
11	391	10	10000	4	1	0	4	0
11	392	10	10000	4	1	0	4	0
11	393	10	10000	4	1	0	4	0
11	394	10	10000	4	1	0	4	0
11	395	10	10000	4	1	0	4	0
11	396	10	10000	4	1	0	4	0
12	397	10	10000	4	1	0	4	0
12	398	10	10000	4	1	0	4	0
13	399	10	10000	4	1	0	4	0
11	400	10	10000	4	1	0	4	0
10	401	10	10000	4	1	0	4	0
10	402	10	10000	4	1	0	4	0
11	403	10	10000	4	1	0	4	0
10	404	10	10000	4	1	0	4	0
10	405	10	10000	4	1	0	4	0
11	406	10	10000	4	1	0	4	0
10	407	10	10000	4	1	0	4	0
9	408	10	10000	4	1	0	4	0
10	409	10	10000	4	1	0	4	0
11	410	10	10000	4	1	0	4	0
14	411	10	10000	4	1	0	4	0
15	412	10	10000	4	1	0	4	0
14	413	10	10000	4	1	0	4	0
15	414	10	10000	4	1	0	4	0
17	415	10	10000	4	1	0	4	0
19	416	10	10000	4	1	0	4	0
20	417	10	10000	4	1	0	4	0
21	418	10	10000	4	1	0	4	0
21	419	10	10000	4	1	0	4	0
20	420	10	10000	4	1	0	4	0
20	421	10	10000	4	1	0	4	0
21	422	10	10000	4	1	0	4	0
23	423	10	10000	4	1	0	4	0
26	424	10	10000	4	1	0	4	0
27	425	10	10000	4	1	0	4	0
27	426	10	10000	4	1	0	4	0
27	427	10	10000	4	1	0	4	0
25	428	10	10000	4	1	0	4	0
24	429	10	10000	4	1	0	4	0
25	430	10	10000	4	1	0	4	0
26	431	10	10000	4	1	0	4	0
25	432	10	10000	4	1	0	4	0
27	433	10	10000	4	1	0	4	0
28	434	10	10000	4	1	0	4	0
27	435	10	10000	4	1	0	4	0
27	436	10	10000	4	1	0	4	0
27	437	10	10000	4	1	0	4	0
28	438	10	10000	4	1	0	4	0
29	439	10	10000	4	1	0	4	0
28	440	10	10000	4	1	0	4	0
32	441	10	10000	4	1	0	4	0
36	442	10	10000	4	1	0	4	0
37	443	10	10000	4	1	0	4	0
40	444	10	10000	4	1	0	4	0
45	445	10	10000	4	1	0	4	0
49	446	10	10000	4	1	0	4	0
50	447	10	10000	4	1	0	4	0
49	448	10	10000	4	1	0	4	0
47	449	10	10000	4	1	0	4	0
46	450	10	10000	4	1	0	4	0
45	451	10	10000	4	1	0	4	0
45	452	10	10000	4	1	0	4	0
50	453	10	10000	4	1	0	4	0
58	454	10	10000	4	1	0	4	0
90	455	10	10000	4	1	0	4	0
125	456	10	10000	4	1	0	4	0
134	457	10	10000	4	1	0	4	0
130	458	10	10000	4	1	0	4	0
136	459	10	10000	4	1	0	4	0
134	460	10	10000	4	1	0	4	0
142	461	10	10000	4	1	0	4	0
147	462	10	10000	4	1	0	4	0
169	463	10	10000	4	1	0	4	0
192	464	10	10000	4	1	0	4	0
209	465	10	10000	4	1	0	4	0
217	466	10	10000	4	1	0	4	0
220	467	10	10000	4	1	0	4	0
215	468	10	10000	4	1	0	4	0
206	469	10	10000	4	1	0	4	0
199	470	10	10000	4	1	0	4	0
198	471	10	10000	4	1	0	4	0
197	472	10	10000	4	1	0	4	0
198	473	10	10000	4	1	0	4	0
198	474	10	10000	4	1	0	4	0
200	475	10	10000	4	1	0	4	0
202	476	10	10000	4	1	0	4	0
213	477	10	10000	4	1	0	4	0
228	478	10	10000	4	1	0	4	0
235	479	10	10000	4	1	0	4	0
233	480	10	10000	4	1	0	4	0
231	481	10	10000	4	1	0	4	0
232	482	10	10000	4	1	0	4	0
225	483	10	10000	4	1	0	4	0
216	484	10	10000	4	1	0	4	0
215	485	10	10000	4	1	0	4	0
213	486	10	10000	4	1	0	4	0
209	487	10	10000	4	1	0	4	0
201	488	10	10000	4	1	0	4	0
195	489	10	10000	4	1	0	4	0
187	490	10	10000	4	1	0	4	0
182	491	10	10000	4	1	0	4	0
178	492	10	10000	4	1	0	4	0
172	493	10	10000	4	1	0	4	0
164	494	10	10000	4	1	0	4	0
158	495	10	10000	4	1	0	4	0
153	496	10	10000	4	1	0	4	0
150	497	10	10000	4	1	0	4	0
147	498	10	10000	4	1	0	4	0
142	499	10	10000	4	1	0	4	0
136	500	10	10000	4	1	0	4	0
129	501	10	10000	4	1	0	4	0
124	501	10	10000	4	1	0	4	1
120	502	10	10000	4	1	0	4	1
119	504	10	10000	4	1	0	4	1
118	505	10	10000	4	1	0	4	1
117	506	10	10000	4	1	0	4	1
113	507	10	10000	4	1	0	4	1
108	508	10	10000	4	1	0	4	1
106	509	10	10000	4	1	0	4	1
105	510	10	10000	4	1	0	4	1
106	511	10	10000	4	1	0	4	1
107	512	10	10000	4	1	0	4	1
108	513	10	10000	4	1	0	4	1
110	514	10	10000	4	1	0	4	1
114	515	10	10000	4	1	0	4	1
113	516	10	10000	4	1	0	4	1
112	517	10	10000	4	1	0	4	1
111	518	10	10000	4	1	0	4	1
109	519	10	10000	4	1	0	4	1
108	520	10	10000	4	1	0	4	1
108	521	10	10000	4	1	0	4	1
110	522	10	10000	4	1	0	4	1
111	523	10	10000	4	1	0	4	1
110	524	10	10000	4	1	0	4	1
108	525	10	10000	4	1	0	4	1
108	526	10	10000	4	1	0	4	1
106	527	10	10000	4	1	0	4	1
105	528	10	10000	4	1	0	4	1
106	529	10	10000	4	1	0	4	1
109	530	10	10000	4	1	0	4	1
113	531	10	10000	4	1	0	4	1
116	532	10	10000	4	1	0	4	1
121	533	10	10000	4	1	0	4	1
126	534	10	10000	4	1	0	4	1
130	535	10	10000	4	1	0	4	1
134	536	10	10000	4	1	0	4	1
135	537	10	10000	4	1	0	4	1
134	538	10	10000	4	1	0	4	1
132	539	10	10000	4	1	0	4	1
128	540	10	10000	4	1	0	4	1
120	541	10	10000	4	1	0	4	1
115	542	10	10000	4	1	0	4	1
110	543	10	10000	4	1	0	4	1
106	544	10	10000	4	1	0	4	1
103	545	10	10000	4	1	0	4	1
100	546	10	10000	4	1	0	4	1
96	547	10	10000	4	1	0	4	1
93	548	10	10000	4	1	0	4	1
91	549	10	10000	4	1	0	4	1
91	550	10	10000	4	1	0	4	1
90	551	10	10000	4	1	0	4	1
87	552	10	10000	4	1	0	4	0
86	553	10	10000	4	1	0	4	0
86	554	10	10000	4	1	0	4	0
85	555	10	10000	4	1	0	4	0
86	556	10	10000	4	1	0	4	0
87	557	10	10000	4	1	0	4	0
88	558	10	10000	4	1	0	4	0
89	559	10	10000	4	1	0	4	0
86	560	10	10000	4	1	0	4	0
83	561	10	10000	4	1	0	4	0
81	562	10	10000	4	1	0	4	0
78	563	10	10000	4	1	0	4	0
76	564	10	10000	4	1	0	4	0
74	565	10	10000	4	1	0	4	0
70	566	10	10000	4	1	0	4	0
66	567	10	10000	4	1	0	4	0
64	568	10	10000	4	1	0	4	0
60	569	10	10000	4	1	0	4	0
59	570	10	10000	4	1	0	4	0
58	571	10	10000	4	1	0	4	0
57	572	10	10000	4	1	0	4	0
56	573	10	10000	4	1	0	4	0
55	574	10	10000	4	1	0	4	0
54	575	10	10000	4	1	0	4	0
53	576	10	10000	4	1	0	4	0
52	577	10	10000	4	1	0	4	0
51	578	10	10000	4	1	0	4	0
52	579	10	10000	4	1	0	4	0
51	580	10	10000	4	1	0	4	0
49	581	10	10000	4	1	0	4	0
47	582	10	10000	4	1	0	4	0
45	583	10	10000	4	1	0	4	0
44	584	10	10000	4	1	0	4	0
42	585	10	10000	4	1	0	4	0
43	586	10	10000	4	1	0	4	0
41	587	10	10000	4	1	0	4	0
42	588	10	10000	4	1	0	4	0
45	589	10	10000	4	1	0	4	0
47	590	10	10000	4	1	0	4	0
51	591	10	10000	4	1	0	4	0
67	592	10	10000	4	1	0	4	0
90	593	10	10000	4	1	0	4	0
93	594	10	10000	4	1	0	4	0
104	595	10	10000	4	1	0	4	0
122	596	10	10000	4	1	0	4	0
141	597	10	10000	4	1	0	4	0
152	598	10	10000	4	1	0	4	0
152	599	10	10000	4	1	0	4	0
166	600	10	10000	4	1	0	4	0
181	601	10	10000	4	1	0	4	0
181	602	10	10000	4	1	0	4	0
174	603	10	10000	4	1	0	4	0
172	604	10	10000	4	1	0	4	0
183	605	10	10000	4	1	0	4	0
189	606	10	10000	4	1	0	4	0
220	607	10	10000	4	1	0	4	0
263	608	10	10000	4	1	0	4	0
267	609	10	10000	4	1	0	4	0
278	610	10	10000	4	1	0	4	0
299	611	10	10000	4	1	0	4	0
314	612	10	10000	4	1	0	4	0
316	613	10	10000	4	1	0	4	0
312	614	10	10000	4	1	0	4	0
305	615	10	10000	4	1	0	4	0
292	616	10	10000	4	1	0	4	0
279	617	10	10000	4	1	0	4	0
270	618	10	10000	4	1	0	4	0
261	619	10	10000	4	1	0	4	0
252	620	10	10000	4	1	0	4	0
244	621	10	10000	4	1	0	4	0
236	622	10	10000	4	1	0	4	0
231	623	10	10000	4	1	0	4	0
229	624	10	10000	4	1	0	4	0
222	625	10	10000	4	1	0	4	0
215	626	10	10000	4	1	0	4	0
214	627	10	10000	4	1	0	4	0
212	628	10	10000	4	1	0	4	0
206	629	10	10000	4	1	0	4	0
201	630	10	10000	4	1	0	4	0
197	631	10	10000	4	1	0	4	0
192	632	10	10000	4	1	0	4	0
188	633	10	10000	4	1	0	4	0
185	634	10	10000	4	1	0	4	0
181	635	10	10000	4	1	0	4	0
175	636	10	10000	4	1	0	4	0
168	637	10	10000	4	1	0	4	0
161	638	10	10000	4	1	0	4	0
155	639	10	10000	4	1	0	4	0
149	640	10	10000	4	1	0	4	0
141	641	10	10000	4	1	0	4	0
135	642	10	10000	4	1	0	4	0
130	643	10	10000	4	1	0	4	0
126	644	10	10000	4	1	0	4	0
121	645	10	10000	4	1	0	4	0
116	646	10	10000	4	1	0	4	0
110	647	10	10000	4	1	0	4	0
105	648	10	10000	4	1	0	4	0
102	649	10	10000	4	1	0	4	0
101	650	10	10000	4	1	0	4	0
99	651	10	10000	4	1	0	4	0
96	652	10	10000	4	1	0	4	0
94	653	10	10000	4	1	0	4	0
93	654	10	10000	4	1	0	4	0
94	655	10	10000	4	1	0	4	0
96	656	10	10000	4	1	0	4	0
97	657	10	10000	4	1	0	4	0
100	658	10	10000	4	1	0	4	0
101	659	10	10000	4	1	0	4	0
99	660	10	10000	4	1	0	4	0
96	661	10	10000	4	1	0	4	0
96	662	10	10000	4	1	0	4	0
94	663	10	10000	4	1	0	4	0
93	664	10	10000	4	1	0	4	0
92	665	10	10000	4	1	0	4	0
90	666	10	10000	4	1	0	4	0
88	667	10	10000	4	1	0	4	0
86	668	10	10000	4	1	0	4	0
82	669	10	10000	4	1	0	4	0
79	670	10	10000	4	1	0	4	0
77	671	10	10000	4	1	0	4	0
73	672	10	10000	4	1	0	4	0
70	673	10	10000	4	1	0	4	0
67	674	10	10000	4	1	0	4	0
64	675	10	10000	4	1	0	4	0
61	676	10	10000	4	1	0	4	0
58	677	10	10000	4	1	0	4	0
56	678	10	10000	4	1	0	4	0
54	679	10	10000	4	1	0	4	0
51	680	10	10000	4	1	0	4	0
48	681	10	10000	4	1	0	4	0
46	682	10	10000	4	1	0	4	0
45	683	10	10000	4	1	0	4	0
43	684	10	10000	4	1	0	4	0
42	685	10	10000	4	1	0	4	0
41	686	10	10000	4	1	0	4	0
41	687	10	10000	4	1	0	4	0
39	688	10	10000	4	1	0	4	0
38	689	10	10000	4	1	0	4	0
39	690	10	10000	4	1	0	4	0
41	691	10	10000	4	1	0	4	0
43	692	10	10000	4	1	0	4	0
43	693	10	10000	4	1	0	4	0
43	694	10	10000	4	1	0	4	0
42	695	10	10000	4	1	0	4	0
40	696	10	10000	4	1	0	4	0
40	697	10	10000	4	1	0	4	0
40	698	10	10000	4	1	0	4	0
40	699	10	10000	4	1	0	4	0
40	700	10	10000	4	1	0	4	0
39	701	10	10000	4	1	0	4	0
38	702	10	10000	4	1	0	4	0
39	703	10	10000	4	1	0	4	0
41	704	10	10000	4	1	0	4	0
42	705	10	10000	4	1	0	4	0
44	706	10	10000	4	1	0	4	0
44	707	10	10000	4	1	0	4	0
43	708	10	10000	4	1	0	4	0
43	709	10	10000	4	1	0	4	0
41	710	10	10000	4	1	0	4	0
42	711	10	10000	4	1	0	4	0
41	712	10	10000	4	1	0	4	0
41	713	10	10000	4	1	0	4	0
41	714	10	10000	4	1	0	4	0
42	715	10	10000	4	1	0	4	0
41	716	10	10000	4	1	0	4	0
42	717	10	10000	4	1	0	4	0
43	718	10	10000	4	1	0	4	0
43	719	10	10000	4	1	0	4	0
43	720	10	10000	4	1	0	4	0
44	721	10	10000	4	1	0	4	0
44	722	10	10000	4	1	0	4	0
44	723	10	10000	4	1	0	4	0
45	724	10	10000	4	1	0	4	0
44	725	10	10000	4	1	0	4	0
44	726	10	10000	4	1	0	4	0
45	727	10	10000	4	1	0	4	0
44	728	10	10000	4	1	0	4	0
44	729	10	10000	4	1	0	4	0
45	730	10	10000	4	1	0	4	0
45	731	10	10000	4	1	0	4	0
44	732	10	10000	4	1	0	4	0
42	733	10	10000	4	1	0	4	0
42	734	10	10000	4	1	0	4	0
42	735	10	10000	4	1	0	4	0
42	736	10	10000	4	1	0	4	0
41	737	10	10000	4	1	0	4	0
41	738	10	10000	4	1	0	4	0
42	739	10	10000	4	1	0	4	0
40	740	10	10000	4	1	0	4	0
39	741	10	10000	4	1	0	4	0
39	742	10	10000	4	1	0	4	0
39	743	10	10000	4	1	0	4	0
40	744	10	10000	4	1	0	4	0
41	745	10	10000	4	1	0	4	0
41	746	10	10000	4	1	0	4	0
40	747	10	10000	4	1	0	4	0
39	748	10	10000	4	1	0	4	0
37	749	10	10000	4	1	0	4	0
36	750	10	10000	4	1	0	4	0
36	751	10	10000	4	1	0	4	0
34	752	10	10000	4	1	0	4	0
32	753	10	10000	4	1	0	4	0
31	754	10	10000	4	1	0	4	0
30	755	10	10000	4	1	0	4	0
29	756	10	10000	4	1	0	4	0
29	757	10	10000	4	1	0	4	0
30	758	10	10000	4	1	0	4	0
30	759	10	10000	4	1	0	4	0
29	760	10	10000	4	1	0	4	0
27	761	10	10000	4	1	0	4	0
27	762	10	10000	4	1	0	4	0
26	763	10	10000	4	1	0	4	0
25	764	10	10000	4	1	0	4	0
25	765	10	10000	4	1	0	4	0
24	766	10	10000	4	1	0	4	0
22	767	10	10000	4	1	0	4	0
22	768	10	10000	4	1	0	4	0
20	769	10	10000	4	1	0	4	0
20	770	10	10000	4	1	0	4	0
23	771	10	10000	4	1	0	4	0
23	772	10	10000	4	1	0	4	0
24	773	10	10000	4	1	0	4	0
24	774	10	10000	4	1	0	4	0
24	775	10	10000	4	1	0	4	0
24	776	10	10000	4	1	0	4	0
25	777	10	10000	4	1	0	4	0
25	778	10	10000	4	1	0	4	0
24	779	10	10000	4	1	0	4	0
22	780	10	10000	4	1	0	4	0
20	781	10	10000	4	1	0	4	0
20	782	10	10000	4	1	0	4	0
20	783	10	10000	4	1	0	4	0
19	784	10	10000	4	1	0	4	0
18	785	10	10000	4	1	0	4	0
18	786	10	10000	4	1	0	4	0
17	787	10	10000	4	1	0	4	0
17	788	10	10000	4	1	0	4	0
16	789	10	10000	4	1	0	4	0
16	790	10	10000	4	1	0	4	0
18	791	10	10000	4	1	0	4	0
17	792	10	10000	4	1	0	4	0
17	793	10	10000	4	1	0	4	0
17	794	10	10000	4	1	0	4	0
17	795	10	10000	4	1	0	4	0
18	796	10	10000	4	1	0	4	0
18	797	10	10000	4	1	0	4	0
19	798	10	10000	4	1	0	4	0
20	799	10	10000	4	1	0	4	0
20	800	10	10000	4	1	0	4	0
18	801	10	10000	4	1	0	4	0
18	802	10	10000	4	1	0	4	0
18	803	10	10000	4	1	0	4	0
18	804	10	10000	4	1	0	4	0
16	805	10	10000	4	1	0	4	0
16	806	10	10000	4	1	0	4	0
16	807	10	10000	4	1	0	4	0
15	808	10	10000	4	1	0	4	0
15	809	10	10000	4	1	0	4	0
16	810	10	10000	4	1	0	4	0
19	811	10	10000	4	1	0	4	0
20	812	10	10000	4	1	0	4	0
19	813	10	10000	4	1	0	4	0
18	814	10	10000	4	1	0	4	0
19	815	10	10000	4	1	0	4	0
19	816	10	10000	4	1	0	4	0
20	817	10	10000	4	1	0	4	0
20	818	10	10000	4	1	0	4	0
20	819	10	10000	4	1	0	4	0
19	820	10	10000	4	1	0	4	0
19	821	10	10000	4	1	0	4	0
18	822	10	10000	4	1	0	4	0
17	823	10	10000	4	1	0	4	0
18	824	10	10000	4	1	0	4	0
18	825	10	10000	4	1	0	4	0
17	826	10	10000	4	1	0	4	0
19	827	10	10000	4	1	0	4	0
18	828	10	10000	4	1	0	4	0
18	829	10	10000	4	1	0	4	0
19	830	10	10000	4	1	0	4	0
19	831	10	10000	4	1	0	4	0
19	832	10	10000	4	1	0	4	0
19	833	10	10000	4	1	0	4	0
18	834	10	10000	4	1	0	4	0
18	835	10	10000	4	1	0	4	0
20	836	10	10000	4	1	0	4	0
20	837	10	10000	4	1	0	4	0
20	838	10	10000	4	1	0	4	0
20	839	10	10000	4	1	0	4	0
20	840	10	10000	4	1	0	4	0
19	841	10	10000	4	1	0	4	0
18	842	10	10000	4	1	0	4	0
18	843	10	10000	4	1	0	4	0
19	844	10	10000	4	1	0	4	0
18	845	10	10000	4	1	0	4	0
17	846	10	10000	4	1	0	4	0
17	847	10	10000	4	1	0	4	0
18	848	10	10000	4	1	0	4	0
19	849	10	10000	4	1	0	4	0
20	850	10	10000	4	1	0	4	0
23	851	10	10000	4	1	0	4	0
23	852	10	10000	4	1	0	4	0
23	853	10	10000	4	1	0	4	0
22	854	10	10000	4	1	0	4	0
22	855	10	10000	4	1	0	4	0
21	856	10	10000	4	1	0	4	0
21	857	10	10000	4	1	0	4	0
22	858	10	10000	4	1	0	4	0
21	859	10	10000	4	1	0	4	0
21	860	10	10000	4	1	0	4	0
20	861	10	10000	4	1	0	4	0
20	862	10	10000	4	1	0	4	0
19	863	10	10000	4	1	0	4	0
20	864	10	10000	4	1	0	4	0
19	865	10	10000	4	1	0	4	0
18	866	10	10000	4	1	0	4	0
18	867	10	10000	4	1	0	4	0
18	868	10	10000	4	1	0	4	0
17	869	10	10000	4	1	0	4	0
16	870	10	10000	4	1	0	4	0
18	871	10	10000	4	1	0	4	0
16	872	10	10000	4	1	0	4	0
16	873	10	10000	4	1	0	4	0
16	874	10	10000	4	1	0	4	0
15	875	10	10000	4	1	0	4	0
14	876	10	10000	4	1	0	4	0
15	877	10	10000	4	1	0	4	0
15	878	10	10000	4	1	0	4	0
16	879	10	10000	4	1	0	4	0
17	880	10	10000	4	1	0	4	0
16	881	10	10000	4	1	0	4	0
17	882	10	10000	4	1	0	4	0
17	883	10	10000	4	1	0	4	0
18	884	10	10000	4	1	0	4	0
19	885	10	10000	4	1	0	4	0
18	886	10	10000	4	1	0	4	0
18	887	10	10000	4	1	0	4	0
18	888	10	10000	4	1	0	4	0
16	889	10	10000	4	1	0	4	0
17	890	10	10000	4	1	0	4	0
17	891	10	10000	4	1	0	4	0
17	892	10	10000	4	1	0	4	0
17	893	10	10000	4	1	0	4	0
17	894	10	10000	4	1	0	4	0
19	895	10	10000	4	1	0	4	0
19	896	10	10000	4	1	0	4	0
19	897	10	10000	4	1	0	4	0
20	898	10	10000	4	1	0	4	0
20	899	10	10000	4	1	0	4	0
18	900	10	10000	4	1	0	4	0
17	901	10	10000	4	1	0	4	0
17	902	10	10000	4	1	0	4	0
16	903	10	10000	4	1	0	4	0
17	904	10	10000	4	1	0	4	0
16	905	10	10000	4	1	0	4	0
17	906	10	10000	4	1	0	4	0
17	907	10	10000	4	1	0	4	0
16	908	10	10000	4	1	0	4	0
15	909	10	10000	4	1	0	4	0
16	910	10	10000	4	1	0	4	0
16	911	10	10000	4	1	0	4	0
16	912	10	10000	4	1	0	4	0
15	913	10	10000	4	1	0	4	0
14	914	10	10000	4	1	0	4	0
14	915	10	10000	4	1	0	4	0
14	916	10	10000	4	1	0	4	0
14	917	10	10000	4	1	0	4	0
15	918	10	10000	4	1	0	4	0
15	919	10	10000	4	1	0	4	0
14	920	10	10000	4	1	0	4	0
13	921	10	10000	4	1	0	4	0
12	922	10	10000	4	1	0	4	0
12	923	10	10000	4	1	0	4	0
13	924	10	10000	4	1	0	4	0
11	925	10	10000	4	1	0	4	0
11	926	10	10000	4	1	0	4	0
12	927	10	10000	4	1	0	4	0
12	928	10	10000	4	1	0	4	0
10	929	10	10000	4	1	0	4	0
12	930	10	10000	4	1	0	4	0
12	931	10	10000	4	1	0	4	0
11	932	10	10000	4	1	0	4	0
11	933	10	10000	4	1	0	4	0
11	934	10	10000	4	1	0	4	0
11	935	10	10000	4	1	0	4	0
11	936	10	10000	4	1	0	4	0
11	937	10	10000	4	1	0	4	0
11	938	10	10000	4	1	0	4	0
12	939	10	10000	4	1	0	4	0
11	940	10	10000	4	1	0	4	0
10	941	10	10000	4	1	0	4	0
11	942	10	10000	4	1	0	4	0
11	943	10	10000	4	1	0	4	0
13	944	10	10000	4	1	0	4	0
14	945	10	10000	4	1	0	4	0
15	946	10	10000	4	1	0	4	0
15	947	10	10000	4	1	0	4	0
16	948	10	10000	4	1	0	4	0
15	949	10	10000	4	1	0	4	0
15	950	10	10000	4	1	0	4	0
16	951	10	10000	4	1	0	4	0
16	952	10	10000	4	1	0	4	0
16	953	10	10000	4	1	0	4	0
17	954	10	10000	4	1	0	4	0
18	955	10	10000	4	1	0	4	0
17	956	10	10000	4	1	0	4	0
17	957	10	10000	4	1	0	4	0
17	958	10	10000	4	1	0	4	0
16	959	10	10000	4	1	0	4	0
16	960	10	10000	4	1	0	4	0
14	961	10	10000	4	1	0	4	0
15	962	10	10000	4	1	0	4	0
15	963	10	10000	4	1	0	4	0
15	964	10	10000	4	1	0	4	0
14	965	10	10000	4	1	0	4	0
14	966	10	10000	4	1	0	4	0
13	967	10	10000	4	1	0	4	0
12	968	10	10000	4	1	0	4	0
12	969	10	10000	4	1	0	4	0
13	970	10	10000	4	1	0	4	0
14	971	10	10000	4	1	0	4	0
14	972	10	10000	4	1	0	4	0
13	973	10	10000	4	1	0	4	0
14	974	10	10000	4	1	0	4	0
14	975	10	10000	4	1	0	4	0
14	976	10	10000	4	1	0	4	0
14	977	10	10000	4	1	0	4	0
13	978	10	10000	4	1	0	4	0
13	979	10	10000	4	1	0	4	0
13	980	10	10000	4	1	0	4	0
10	981	10	10000	4	1	0	4	0
12	982	10	10000	4	1	0	4	0
13	983	10	10000	4	1	0	4	0
12	984	10	10000	4	1	0	4	0
12	985	10	10000	4	1	0	4	0
12	986	10	10000	4	1	0	4	0
12	987	10	10000	4	1	0	4	0
12	988	10	10000	4	1	0	4	0
12	989	10	10000	4	1	0	4	0
13	990	10	10000	4	1	0	4	0
15	991	10	10000	4	1	0	4	0
17	992	10	10000	4	1	0	4	0
16	993	10	10000	4	1	0	4	0
17	994	10	10000	4	1	0	4	0
16	995	10	10000	4	1	0	4	0
15	996	10	10000	4	1	0	4	0
15	997	10	10000	4	1	0	4	0
16	998	10	10000	4	1	0	4	0
16	999	10	10000	4	1	0	4	0
16	1000	10	10000	4	1	0	4	0
15	1001	10	10000	4	1	0	4	0
12	2	1	10000	5	1	0	5	0
12	3	1	10000	5	1	0	5	0
12	4	1	10000	5	1	0	5	0
12	5	1	10000	5	1	0	5	0
11	6	1	10000	5	1	0	5	0
11	7	1	10000	5	1	0	5	0
10	8	1	10000	5	1	0	5	0
9	9	1	10000	5	1	0	5	0
9	10	1	10000	5	1	0	5	0
11	11	1	10000	5	1	0	5	0
11	12	1	10000	5	1	0	5	0
10	13	1	10000	5	1	0	5	0
10	14	1	10000	5	1	0	5	0
10	15	1	10000	5	1	0	5	0
9	16	1	10000	5	1	0	5	0
8	17	1	10000	5	1	0	5	0
9	18	1	10000	5	1	0	5	0
9	19	1	10000	5	1	0	5	0
10	20	1	10000	5	1	0	5	0
9	21	1	10000	5	1	0	5	0
11	21	1	10000	5	1	0	5	0
13	22	1	10000	5	1	0	5	0
13	24	1	10000	5	1	0	5	0
12	25	1	10000	5	1	0	5	0
13	26	1	10000	5	1	0	5	0
13	27	1	10000	5	1	0	5	0
12	28	1	10000	5	1	0	5	0
11	29	1	10000	5	1	0	5	0
11	30	1	10000	5	1	0	5	0
13	31	1	10000	5	1	0	5	0
13	32	1	10000	5	1	0	5	0
12	33	1	10000	5	1	0	5	0
12	34	1	10000	5	1	0	5	0
13	35	1	10000	5	1	0	5	0
12	36	1	10000	5	1	0	5	0
12	37	1	10000	5	1	0	5	0
12	38	1	10000	5	1	0	5	0
12	39	1	10000	5	1	0	5	0
12	40	1	10000	5	1	0	5	0
10	41	1	10000	5	1	0	5	0
10	42	1	10000	5	1	0	5	0
11	43	1	10000	5	1	0	5	0
11	44	1	10000	5	1	0	5	0
11	45	1	10000	5	1	0	5	0
12	46	1	10000	5	1	0	5	0
11	47	1	10000	5	1	0	5	0
11	48	1	10000	5	1	0	5	0
12	49	1	10000	5	1	0	5	0
13	50	1	10000	5	1	0	5	0
16	51	1	10000	5	1	0	5	0
15	52	1	10000	5	1	0	5	0
15	53	1	10000	5	1	0	5	0
16	54	1	10000	5	1	0	5	0
16	55	1	10000	5	1	0	5	0
16	56	1	10000	5	1	0	5	0
15	57	1	10000	5	1	0	5	0
15	58	1	10000	5	1	0	5	0
15	59	1	10000	5	1	0	5	0
14	60	1	10000	5	1	0	5	0
11	61	1	10000	5	1	0	5	0
11	62	1	10000	5	1	0	5	0
11	63	1	10000	5	1	0	5	0
11	64	1	10000	5	1	0	5	0
11	65	1	10000	5	1	0	5	0
11	66	1	10000	5	1	0	5	0
12	67	1	10000	5	1	0	5	0
11	68	1	10000	5	1	0	5	0
11	69	1	10000	5	1	0	5	0
11	70	1	10000	5	1	0	5	0
11	71	1	10000	5	1	0	5	0
11	72	1	10000	5	1	0	5	0
11	73	1	10000	5	1	0	5	0
10	74	1	10000	5	1	0	5	0
11	75	1	10000	5	1	0	5	0
12	76	1	10000	5	1	0	5	0
12	77	1	10000	5	1	0	5	0
12	78	1	10000	5	1	0	5	0
13	79	1	10000	5	1	0	5	0
13	80	1	10000	5	1	0	5	0
12	81	1	10000	5	1	0	5	0
13	82	1	10000	5	1	0	5	0
14	83	1	10000	5	1	0	5	0
14	84	1	10000	5	1	0	5	0
15	85	1	10000	5	1	0	5	0
15	86	1	10000	5	1	0	5	0
15	87	1	10000	5	1	0	5	0
14	88	1	10000	5	1	0	5	0
12	89	1	10000	5	1	0	5	0
13	90	1	10000	5	1	0	5	0
14	91	1	10000	5	1	0	5	0
13	92	1	10000	5	1	0	5	0
14	93	1	10000	5	1	0	5	0
13	94	1	10000	5	1	0	5	0
15	95	1	10000	5	1	0	5	0
16	96	1	10000	5	1	0	5	0
16	97	1	10000	5	1	0	5	0
17	98	1	10000	5	1	0	5	0
18	99	1	10000	5	1	0	5	0
17	100	1	10000	5	1	0	5	0
15	101	1	10000	5	1	0	5	0
17	102	1	10000	5	1	0	5	0
17	103	1	10000	5	1	0	5	0
17	104	1	10000	5	1	0	5	0
17	105	1	10000	5	1	0	5	0
16	106	1	10000	5	1	0	5	0
15	107	1	10000	5	1	0	5	0
15	108	1	10000	5	1	0	5	0
13	109	1	10000	5	1	0	5	0
14	110	1	10000	5	1	0	5	0
17	111	1	10000	5	1	0	5	0
16	112	1	10000	5	1	0	5	0
15	113	1	10000	5	1	0	5	0
15	114	1	10000	5	1	0	5	0
16	115	1	10000	5	1	0	5	0
15	116	1	10000	5	1	0	5	0
16	117	1	10000	5	1	0	5	0
16	118	1	10000	5	1	0	5	0
16	119	1	10000	5	1	0	5	0
16	120	1	10000	5	1	0	5	0
14	121	1	10000	5	1	0	5	0
14	122	1	10000	5	1	0	5	0
15	123	1	10000	5	1	0	5	0
15	124	1	10000	5	1	0	5	0
16	125	1	10000	5	1	0	5	0
16	135	1	10000	5	1	0	5	0
18	136	1	10000	5	1	0	5	0
18	137	1	10000	5	1	0	5	0
19	138	1	10000	5	1	0	5	0
19	139	1	10000	5	1	0	5	0
20	140	1	10000	5	1	0	5	0
20	141	1	10000	5	1	0	5	0
20	142	1	10000	5	1	0	5	0
19	143	1	10000	5	1	0	5	0
19	144	1	10000	5	1	0	5	0
20	143	1	10000	5	1	0	5	0
20	144	1	10000	5	1	0	5	0
20	145	1	10000	5	1	0	5	0
20	146	1	10000	5	1	0	5	0
19	147	1	10000	5	1	0	5	0
16	148	1	10000	5	1	0	5	0
16	149	1	10000	5	1	0	5	0
17	150	1	10000	5	1	0	5	0
15	151	1	10000	5	1	0	5	0
15	152	1	10000	5	1	0	5	0
16	150	1	10000	5	1	0	5	0
15	151	1	10000	5	1	0	5	0
15	152	1	10000	5	1	0	5	0
14	153	1	10000	5	1	0	5	0
13	154	1	10000	5	1	0	5	0
15	155	1	10000	5	1	0	5	0
14	157	1	10000	5	1	0	5	0
13	158	1	10000	5	1	0	5	0
13	159	1	10000	5	1	0	5	0
14	160	1	10000	5	1	0	5	0
13	161	1	10000	5	1	0	5	0
13	162	1	10000	5	1	0	5	0
13	163	1	10000	5	1	0	5	0
14	164	1	10000	5	1	0	5	0
13	163	1	10000	5	1	0	5	0
11	164	1	10000	5	1	0	5	0
11	165	1	10000	5	1	0	5	0
12	166	1	10000	5	1	0	5	0
11	170	1	10000	5	1	0	5	0
11	171	1	10000	5	1	0	5	0
11	172	1	10000	5	1	0	5	0
11	173	1	10000	5	1	0	5	0
10	174	1	10000	5	1	0	5	0
10	175	1	10000	5	1	0	5	0
10	176	1	10000	5	1	0	5	0
11	177	1	10000	5	1	0	5	0
10	174	1	10000	5	1	0	5	0
10	175	1	10000	5	1	0	5	0
9	176	1	10000	5	1	0	5	0
9	177	1	10000	5	1	0	5	0
9	180	1	10000	5	1	0	5	0
8	181	1	10000	5	1	0	5	0
9	182	1	10000	5	1	0	5	0
10	183	1	10000	5	1	0	5	0
9	184	1	10000	5	1	0	5	0
7	185	1	10000	5	1	0	5	0
8	186	1	10000	5	1	0	5	0
8	187	1	10000	5	1	0	5	0
9	188	1	10000	5	1	0	5	0
9	189	1	10000	5	1	0	5	0
8	190	1	10000	5	1	0	5	0
9	191	1	10000	5	1	0	5	0
10	191	1	10000	5	1	0	5	0
9	192	1	10000	5	1	0	5	0
9	193	1	10000	5	1	0	5	0
10	194	1	10000	5	1	0	5	0
10	197	1	10000	5	1	0	5	0
9	198	1	10000	5	1	0	5	0
9	199	1	10000	5	1	0	5	0
9	200	1	10000	5	1	0	5	0
9	201	1	10000	5	1	0	5	0
9	202	1	10000	5	1	0	5	0
10	203	1	10000	5	1	0	5	0
11	204	1	10000	5	1	0	5	0
10	202	1	10000	5	1	0	5	0
9	203	1	10000	5	1	0	5	0
12	204	1	10000	5	1	0	5	0
12	205	1	10000	5	1	0	5	0
13	209	1	10000	5	1	0	5	0
15	210	1	10000	5	1	0	5	0
14	211	1	10000	5	1	0	5	0
14	212	1	10000	5	1	0	5	0
14	213	1	10000	5	1	0	5	0
14	214	1	10000	5	1	0	5	0
15	215	1	10000	5	1	0	5	0
16	216	1	10000	5	1	0	5	0
15	213	1	10000	5	1	0	5	0
15	214	1	10000	5	1	0	5	0
15	215	1	10000	5	1	0	5	0
15	216	1	10000	5	1	0	5	0
15	219	1	10000	5	1	0	5	0
15	220	1	10000	5	1	0	5	0
14	221	1	10000	5	1	0	5	0
15	222	1	10000	5	1	0	5	0
16	224	1	10000	5	1	0	5	0
15	225	1	10000	5	1	0	5	0
16	226	1	10000	5	1	0	5	0
16	227	1	10000	5	1	0	5	0
16	228	1	10000	5	1	0	5	0
14	229	1	10000	5	1	0	5	0
15	232	1	10000	5	1	0	5	0
15	233	1	10000	5	1	0	5	0
14	234	1	10000	5	1	0	5	0
13	235	1	10000	5	1	0	5	0
13	236	1	10000	5	1	0	5	0
14	237	1	10000	5	1	0	5	0
14	238	1	10000	5	1	0	5	0
15	239	1	10000	5	1	0	5	0
14	237	1	10000	5	1	0	5	0
15	238	1	10000	5	1	0	5	0
15	239	1	10000	5	1	0	5	0
15	240	1	10000	5	1	0	5	0
16	241	1	10000	5	1	0	5	0
16	242	1	10000	5	1	0	5	0
15	242	1	10000	5	1	0	5	0
13	243	1	10000	5	1	0	5	0
13	244	1	10000	5	1	0	5	0
14	245	1	10000	5	1	0	5	0
14	248	1	10000	5	1	0	5	0
13	249	1	10000	5	1	0	5	0
14	250	1	10000	5	1	0	5	0
13	251	1	10000	5	1	0	5	0
12	252	1	10000	5	1	0	5	0
12	253	1	10000	5	1	0	5	0
10	253	1	10000	5	1	0	5	0
12	254	1	10000	5	1	0	5	0
12	255	1	10000	5	1	0	5	0
11	256	1	10000	5	1	0	5	0
11	259	1	10000	5	1	0	5	0
11	260	1	10000	5	1	0	5	0
11	261	1	10000	5	1	0	5	0
10	262	1	10000	5	1	0	5	0
11	263	1	10000	5	1	0	5	0
11	264	1	10000	5	1	0	5	0
10	265	1	10000	5	1	0	5	0
8	266	1	10000	5	1	0	5	0
9	262	1	10000	5	1	0	5	0
10	263	1	10000	5	1	0	5	0
10	264	1	10000	5	1	0	5	0
9	265	1	10000	5	1	0	5	0
9	266	1	10000	5	1	0	5	0
10	267	1	10000	5	1	0	5	0
9	268	1	10000	5	1	0	5	0
10	269	1	10000	5	1	0	5	0
11	270	1	10000	5	1	0	5	0
13	271	1	10000	5	1	0	5	0
13	272	1	10000	5	1	0	5	0
13	273	1	10000	5	1	0	5	0
12	274	1	10000	5	1	0	5	0
12	275	1	10000	5	1	0	5	0
12	276	1	10000	5	1	0	5	0
12	277	1	10000	5	1	0	5	0
13	278	1	10000	5	1	0	5	0
13	279	1	10000	5	1	0	5	0
12	280	1	10000	5	1	0	5	0
10	281	1	10000	5	1	0	5	0
11	282	1	10000	5	1	0	5	0
11	283	1	10000	5	1	0	5	0
12	284	1	10000	5	1	0	5	0
13	285	1	10000	5	1	0	5	0
13	286	1	10000	5	1	0	5	0
14	287	1	10000	5	1	0	5	0
13	288	1	10000	5	1	0	5	0
12	289	1	10000	5	1	0	5	0
13	290	1	10000	5	1	0	5	0
14	291	1	10000	5	1	0	5	0
13	292	1	10000	5	1	0	5	0
13	293	1	10000	5	1	0	5	0
12	294	1	10000	5	1	0	5	0
11	295	1	10000	5	1	0	5	0
12	296	1	10000	5	1	0	5	0
11	297	1	10000	5	1	0	5	0
12	298	1	10000	5	1	0	5	0
13	299	1	10000	5	1	0	5	0
12	300	1	10000	5	1	0	5	0
10	301	1	10000	5	1	0	5	0
12	302	1	10000	5	1	0	5	0
11	303	1	10000	5	1	0	5	0
11	304	1	10000	5	1	0	5	0
11	305	1	10000	5	1	0	5	0
12	306	1	10000	5	1	0	5	0
12	307	1	10000	5	1	0	5	0
12	308	1	10000	5	1	0	5	0
11	309	1	10000	5	1	0	5	0
10	310	1	10000	5	1	0	5	0
12	311	1	10000	5	1	0	5	0
12	312	1	10000	5	1	0	5	0
13	313	1	10000	5	1	0	5	0
14	314	1	10000	5	1	0	5	0
14	315	1	10000	5	1	0	5	0
13	316	1	10000	5	1	0	5	0
13	317	1	10000	5	1	0	5	0
13	318	1	10000	5	1	0	5	0
13	319	1	10000	5	1	0	5	0
12	320	1	10000	5	1	0	5	0
10	321	1	10000	5	1	0	5	0
10	322	1	10000	5	1	0	5	0
10	323	1	10000	5	1	0	5	0
11	324	1	10000	5	1	0	5	0
12	325	1	10000	5	1	0	5	0
13	326	1	10000	5	1	0	5	0
13	327	1	10000	5	1	0	5	0
13	328	1	10000	5	1	0	5	0
12	329	1	10000	5	1	0	5	0
11	330	1	10000	5	1	0	5	0
13	331	1	10000	5	1	0	5	0
13	332	1	10000	5	1	0	5	0
12	333	1	10000	5	1	0	5	0
12	334	1	10000	5	1	0	5	0
12	335	1	10000	5	1	0	5	0
11	336	1	10000	5	1	0	5	0
10	337	1	10000	5	1	0	5	0
11	338	1	10000	5	1	0	5	0
11	339	1	10000	5	1	0	5	0
11	340	1	10000	5	1	0	5	0
9	341	1	10000	5	1	0	5	0
9	342	1	10000	5	1	0	5	0
9	343	1	10000	5	1	0	5	0
9	344	1	10000	5	1	0	5	0
9	345	1	10000	5	1	0	5	0
9	346	1	10000	5	1	0	5	0
9	347	1	10000	5	1	0	5	0
9	348	1	10000	5	1	0	5	0
10	349	1	10000	5	1	0	5	0
10	350	1	10000	5	1	0	5	0
12	351	1	10000	5	1	0	5	0
12	352	1	10000	5	1	0	5	0
11	353	1	10000	5	1	0	5	0
11	354	1	10000	5	1	0	5	0
12	355	1	10000	5	1	0	5	0
11	356	1	10000	5	1	0	5	0
10	357	1	10000	5	1	0	5	0
11	358	1	10000	5	1	0	5	0
10	359	1	10000	5	1	0	5	0
10	360	1	10000	5	1	0	5	0
8	361	1	10000	5	1	0	5	0
8	362	1	10000	5	1	0	5	0
8	363	1	10000	5	1	0	5	0
8	364	1	10000	5	1	0	5	0
9	365	1	10000	5	1	0	5	0
10	366	1	10000	5	1	0	5	0
11	367	1	10000	5	1	0	5	0
9	368	1	10000	5	1	0	5	0
9	369	1	10000	5	1	0	5	0
9	370	1	10000	5	1	0	5	0
11	371	1	10000	5	1	0	5	0
11	372	1	10000	5	1	0	5	0
11	373	1	10000	5	1	0	5	0
10	374	1	10000	5	1	0	5	0
9	375	1	10000	5	1	0	5	0
10	376	1	10000	5	1	0	5	0
10	377	1	10000	5	1	0	5	0
12	378	1	10000	5	1	0	5	0
12	379	1	10000	5	1	0	5	0
11	380	1	10000	5	1	0	5	0
10	381	1	10000	5	1	0	5	0
11	382	1	10000	5	1	0	5	0
11	383	1	10000	5	1	0	5	0
11	384	1	10000	5	1	0	5	0
12	385	1	10000	5	1	0	5	0
12	386	1	10000	5	1	0	5	0
12	387	1	10000	5	1	0	5	0
11	388	1	10000	5	1	0	5	0
10	389	1	10000	5	1	0	5	0
10	390	1	10000	5	1	0	5	0
12	391	1	10000	5	1	0	5	0
11	392	1	10000	5	1	0	5	0
11	393	1	10000	5	1	0	5	0
10	394	1	10000	5	1	0	5	0
9	395	1	10000	5	1	0	5	0
10	396	1	10000	5	1	0	5	0
9	397	1	10000	5	1	0	5	0
9	398	1	10000	5	1	0	5	0
11	399	1	10000	5	1	0	5	0
10	400	1	10000	5	1	0	5	0
8	401	1	10000	5	1	0	5	0
9	402	1	10000	5	1	0	5	0
8	403	1	10000	5	1	0	5	0
8	404	1	10000	5	1	0	5	0
8	405	1	10000	5	1	0	5	0
8	406	1	10000	5	1	0	5	0
8	407	1	10000	5	1	0	5	0
8	408	1	10000	5	1	0	5	0
8	409	1	10000	5	1	0	5	0
8	410	1	10000	5	1	0	5	0
9	411	1	10000	5	1	0	5	0
8	412	1	10000	5	1	0	5	0
8	413	1	10000	5	1	0	5	0
8	414	1	10000	5	1	0	5	0
8	415	1	10000	5	1	0	5	0
7	416	1	10000	5	1	0	5	0
7	417	1	10000	5	1	0	5	0
8	418	1	10000	5	1	0	5	0
8	419	1	10000	5	1	0	5	0
9	420	1	10000	5	1	0	5	0
7	421	1	10000	5	1	0	5	0
7	422	1	10000	5	1	0	5	0
8	423	1	10000	5	1	0	5	0
8	424	1	10000	5	1	0	5	0
8	425	1	10000	5	1	0	5	0
8	426	1	10000	5	1	0	5	0
9	427	1	10000	5	1	0	5	0
8	428	1	10000	5	1	0	5	0
8	429	1	10000	5	1	0	5	0
8	430	1	10000	5	1	0	5	0
9	431	1	10000	5	1	0	5	0
10	432	1	10000	5	1	0	5	0
11	433	1	10000	5	1	0	5	0
11	434	1	10000	5	1	0	5	0
11	435	1	10000	5	1	0	5	0
10	436	1	10000	5	1	0	5	0
10	437	1	10000	5	1	0	5	0
11	438	1	10000	5	1	0	5	0
10	439	1	10000	5	1	0	5	0
11	440	1	10000	5	1	0	5	0
9	441	1	10000	5	1	0	5	0
10	442	1	10000	5	1	0	5	0
10	443	1	10000	5	1	0	5	0
11	444	1	10000	5	1	0	5	0
11	445	1	10000	5	1	0	5	0
12	446	1	10000	5	1	0	5	0
12	447	1	10000	5	1	0	5	0
10	448	1	10000	5	1	0	5	0
10	449	1	10000	5	1	0	5	0
10	450	1	10000	5	1	0	5	0
11	451	1	10000	5	1	0	5	0
11	452	1	10000	5	1	0	5	0
11	453	1	10000	5	1	0	5	0
10	454	1	10000	5	1	0	5	0
10	455	1	10000	5	1	0	5	0
10	456	1	10000	5	1	0	5	0
9	457	1	10000	5	1	0	5	0
11	458	1	10000	5	1	0	5	0
11	459	1	10000	5	1	0	5	0
11	460	1	10000	5	1	0	5	0
9	461	1	10000	5	1	0	5	0
9	462	1	10000	5	1	0	5	0
9	463	1	10000	5	1	0	5	0
10	464	1	10000	5	1	0	5	0
11	465	1	10000	5	1	0	5	0
11	466	1	10000	5	1	0	5	0
12	467	1	10000	5	1	0	5	0
11	468	1	10000	5	1	0	5	0
11	469	1	10000	5	1	0	5	0
11	470	1	10000	5	1	0	5	0
12	471	1	10000	5	1	0	5	0
12	472	1	10000	5	1	0	5	0
11	473	1	10000	5	1	0	5	0
10	474	1	10000	5	1	0	5	0
10	475	1	10000	5	1	0	5	0
10	476	1	10000	5	1	0	5	0
9	477	1	10000	5	1	0	5	0
10	478	1	10000	5	1	0	5	0
10	479	1	10000	5	1	0	5	0
11	480	1	10000	5	1	0	5	0
9	481	1	10000	5	1	0	5	0
9	482	1	10000	5	1	0	5	0
9	483	1	10000	5	1	0	5	0
10	484	1	10000	5	1	0	5	0
9	485	1	10000	5	1	0	5	0
10	486	1	10000	5	1	0	5	0
11	487	1	10000	5	1	0	5	0
9	488	1	10000	5	1	0	5	0
9	489	1	10000	5	1	0	5	0
10	490	1	10000	5	1	0	5	0
11	491	1	10000	5	1	0	5	0
10	492	1	10000	5	1	0	5	0
10	493	1	10000	5	1	0	5	0
9	494	1	10000	5	1	0	5	0
9	495	1	10000	5	1	0	5	0
9	496	1	10000	5	1	0	5	0
8	497	1	10000	5	1	0	5	0
9	498	1	10000	5	1	0	5	0
9	499	1	10000	5	1	0	5	0
9	500	1	10000	5	1	0	5	0
8	501	1	10000	5	1	0	5	0
9	502	1	10000	5	1	0	5	1
9	503	1	10000	5	1	0	5	1
9	504	1	10000	5	1	0	5	1
9	505	1	10000	5	1	0	5	1
9	506	1	10000	5	1	0	5	1
9	507	1	10000	5	1	0	5	1
8	508	1	10000	5	1	0	5	1
9	509	1	10000	5	1	0	5	1
9	510	1	10000	5	1	0	5	1
11	511	1	10000	5	1	0	5	1
11	512	1	10000	5	1	0	5	1
11	513	1	10000	5	1	0	5	1
11	514	1	10000	5	1	0	5	1
11	515	1	10000	5	1	0	5	1
10	516	1	10000	5	1	0	5	1
10	517	1	10000	5	1	0	5	1
10	518	1	10000	5	1	0	5	1
11	519	1	10000	5	1	0	5	1
12	520	1	10000	5	1	0	5	1
10	521	1	10000	5	1	0	5	1
10	522	1	10000	5	1	0	5	1
10	523	1	10000	5	1	0	5	1
10	524	1	10000	5	1	0	5	1
9	525	1	10000	5	1	0	5	1
10	526	1	10000	5	1	0	5	1
10	527	1	10000	5	1	0	5	1
9	528	1	10000	5	1	0	5	1
9	529	1	10000	5	1	0	5	1
8	530	1	10000	5	1	0	5	1
10	531	1	10000	5	1	0	5	1
10	532	1	10000	5	1	0	5	1
10	533	1	10000	5	1	0	5	1
9	534	1	10000	5	1	0	5	1
9	535	1	10000	5	1	0	5	1
9	536	1	10000	5	1	0	5	1
9	537	1	10000	5	1	0	5	1
9	538	1	10000	5	1	0	5	1
9	539	1	10000	5	1	0	5	1
10	540	1	10000	5	1	0	5	1
7	541	1	10000	5	1	0	5	1
7	542	1	10000	5	1	0	5	1
8	543	1	10000	5	1	0	5	1
8	544	1	10000	5	1	0	5	1
8	545	1	10000	5	1	0	5	1
8	546	1	10000	5	1	0	5	1
8	547	1	10000	5	1	0	5	1
8	548	1	10000	5	1	0	5	1
8	549	1	10000	5	1	0	5	1
9	550	1	10000	5	1	0	5	1
12	551	1	10000	5	1	0	5	1
11	552	1	10000	5	1	0	5	0
10	553	1	10000	5	1	0	5	0
10	554	1	10000	5	1	0	5	0
11	555	1	10000	5	1	0	5	0
11	556	1	10000	5	1	0	5	0
11	557	1	10000	5	1	0	5	0
11	558	1	10000	5	1	0	5	0
11	559	1	10000	5	1	0	5	0
11	560	1	10000	5	1	0	5	0
9	561	1	10000	5	1	0	5	0
9	562	1	10000	5	1	0	5	0
10	563	1	10000	5	1	0	5	0
10	564	1	10000	5	1	0	5	0
9	565	1	10000	5	1	0	5	0
9	566	1	10000	5	1	0	5	0
11	567	1	10000	5	1	0	5	0
10	568	1	10000	5	1	0	5	0
10	569	1	10000	5	1	0	5	0
10	570	1	10000	5	1	0	5	0
11	571	1	10000	5	1	0	5	0
10	572	1	10000	5	1	0	5	0
10	573	1	10000	5	1	0	5	0
9	574	1	10000	5	1	0	5	0
9	575	1	10000	5	1	0	5	0
9	576	1	10000	5	1	0	5	0
9	577	1	10000	5	1	0	5	0
9	578	1	10000	5	1	0	5	0
9	579	1	10000	5	1	0	5	0
10	580	1	10000	5	1	0	5	0
8	581	1	10000	5	1	0	5	0
9	582	1	10000	5	1	0	5	0
10	583	1	10000	5	1	0	5	0
11	584	1	10000	5	1	0	5	0
10	585	1	10000	5	1	0	5	0
10	586	1	10000	5	1	0	5	0
13	587	1	10000	5	1	0	5	0
14	588	1	10000	5	1	0	5	0
15	589	1	10000	5	1	0	5	0
19	590	1	10000	5	1	0	5	0
23	591	1	10000	5	1	0	5	0
24	592	1	10000	5	1	0	5	0
25	593	1	10000	5	1	0	5	0
26	594	1	10000	5	1	0	5	0
28	595	1	10000	5	1	0	5	0
31	596	1	10000	5	1	0	5	0
47	597	1	10000	5	1	0	5	0
65	598	1	10000	5	1	0	5	0
70	599	1	10000	5	1	0	5	0
84	600	1	10000	5	1	0	5	0
97	601	1	10000	5	1	0	5	0
101	602	1	10000	5	1	0	5	0
102	603	1	10000	5	1	0	5	0
101	604	1	10000	5	1	0	5	0
101	605	1	10000	5	1	0	5	0
106	606	1	10000	5	1	0	5	0
152	607	1	10000	5	1	0	5	0
180	608	1	10000	5	1	0	5	0
180	609	1	10000	5	1	0	5	0
202	610	1	10000	5	1	0	5	0
225	611	1	10000	5	1	0	5	0
237	612	1	10000	5	1	0	5	0
244	613	1	10000	5	1	0	5	0
249	614	1	10000	5	1	0	5	0
247	615	1	10000	5	1	0	5	0
241	616	1	10000	5	1	0	5	0
231	617	1	10000	5	1	0	5	0
223	618	1	10000	5	1	0	5	0
225	619	1	10000	5	1	0	5	0
280	620	1	10000	5	1	0	5	0
324	621	1	10000	5	1	0	5	0
322	622	1	10000	5	1	0	5	0
334	623	1	10000	5	1	0	5	0
345	624	1	10000	5	1	0	5	0
357	625	1	10000	5	1	0	5	0
369	626	1	10000	5	1	0	5	0
369	627	1	10000	5	1	0	5	0
357	628	1	10000	5	1	0	5	0
342	629	1	10000	5	1	0	5	0
328	630	1	10000	5	1	0	5	0
318	631	1	10000	5	1	0	5	0
309	632	1	10000	5	1	0	5	0
301	633	1	10000	5	1	0	5	0
292	634	1	10000	5	1	0	5	0
284	635	1	10000	5	1	0	5	0
276	636	1	10000	5	1	0	5	0
270	637	1	10000	5	1	0	5	0
263	638	1	10000	5	1	0	5	0
256	639	1	10000	5	1	0	5	0
249	640	1	10000	5	1	0	5	0
236	641	1	10000	5	1	0	5	0
227	642	1	10000	5	1	0	5	0
219	643	1	10000	5	1	0	5	0
211	644	1	10000	5	1	0	5	0
201	645	1	10000	5	1	0	5	0
194	646	1	10000	5	1	0	5	0
185	647	1	10000	5	1	0	5	0
177	648	1	10000	5	1	0	5	0
169	649	1	10000	5	1	0	5	0
162	650	1	10000	5	1	0	5	0
159	651	1	10000	5	1	0	5	0
155	652	1	10000	5	1	0	5	0
150	653	1	10000	5	1	0	5	0
146	654	1	10000	5	1	0	5	0
140	655	1	10000	5	1	0	5	0
137	656	1	10000	5	1	0	5	0
133	657	1	10000	5	1	0	5	0
131	658	1	10000	5	1	0	5	0
129	659	1	10000	5	1	0	5	0
127	660	1	10000	5	1	0	5	0
125	661	1	10000	5	1	0	5	0
125	662	1	10000	5	1	0	5	0
125	663	1	10000	5	1	0	5	0
126	664	1	10000	5	1	0	5	0
126	665	1	10000	5	1	0	5	0
125	666	1	10000	5	1	0	5	0
124	667	1	10000	5	1	0	5	0
120	668	1	10000	5	1	0	5	0
116	669	1	10000	5	1	0	5	0
113	670	1	10000	5	1	0	5	0
110	671	1	10000	5	1	0	5	0
105	672	1	10000	5	1	0	5	0
102	673	1	10000	5	1	0	5	0
98	674	1	10000	5	1	0	5	0
93	675	1	10000	5	1	0	5	0
91	676	1	10000	5	1	0	5	0
87	677	1	10000	5	1	0	5	0
84	678	1	10000	5	1	0	5	0
81	679	1	10000	5	1	0	5	0
78	680	1	10000	5	1	0	5	0
74	681	1	10000	5	1	0	5	0
71	682	1	10000	5	1	0	5	0
68	683	1	10000	5	1	0	5	0
65	684	1	10000	5	1	0	5	0
63	685	1	10000	5	1	0	5	0
62	686	1	10000	5	1	0	5	0
62	687	1	10000	5	1	0	5	0
60	688	1	10000	5	1	0	5	0
60	689	1	10000	5	1	0	5	0
59	690	1	10000	5	1	0	5	0
58	691	1	10000	5	1	0	5	0
56	692	1	10000	5	1	0	5	0
53	693	1	10000	5	1	0	5	0
51	694	1	10000	5	1	0	5	0
49	695	1	10000	5	1	0	5	0
49	696	1	10000	5	1	0	5	0
48	697	1	10000	5	1	0	5	0
46	698	1	10000	5	1	0	5	0
46	699	1	10000	5	1	0	5	0
43	700	1	10000	5	1	0	5	0
40	701	1	10000	5	1	0	5	0
39	702	1	10000	5	1	0	5	0
37	703	1	10000	5	1	0	5	0
35	704	1	10000	5	1	0	5	0
34	705	1	10000	5	1	0	5	0
34	706	1	10000	5	1	0	5	0
33	707	1	10000	5	1	0	5	0
33	708	1	10000	5	1	0	5	0
33	709	1	10000	5	1	0	5	0
33	710	1	10000	5	1	0	5	0
35	711	1	10000	5	1	0	5	0
35	712	1	10000	5	1	0	5	0
35	713	1	10000	5	1	0	5	0
36	714	1	10000	5	1	0	5	0
36	715	1	10000	5	1	0	5	0
37	716	1	10000	5	1	0	5	0
36	717	1	10000	5	1	0	5	0
36	718	1	10000	5	1	0	5	0
37	719	1	10000	5	1	0	5	0
38	720	1	10000	5	1	0	5	0
35	721	1	10000	5	1	0	5	0
35	722	1	10000	5	1	0	5	0
35	723	1	10000	5	1	0	5	0
35	724	1	10000	5	1	0	5	0
36	725	1	10000	5	1	0	5	0
38	726	1	10000	5	1	0	5	0
39	727	1	10000	5	1	0	5	0
40	728	1	10000	5	1	0	5	0
41	729	1	10000	5	1	0	5	0
