value	EMG	Stimulus	EMG_sensitivity	Total_Trial_Nr	practise	acq	probe_nr	Startle_Probe
30	1	0	10000	1	1	0	1	0
28	2	0	10000	1	1	0	1	0
28	3	0	10000	1	1	0	1	0
28	4	0	10000	1	1	0	1	0
27	5	0	10000	1	1	0	1	0
27	6	0	10000	1	1	0	1	0
26	7	0	10000	1	1	0	1	0
27	8	0	10000	1	1	0	1	0
25	9	0	10000	1	1	0	1	0
26	10	0	10000	1	1	0	1	0
26	11	0	10000	1	1	0	1	0
27	12	0	10000	1	1	0	1	0
27	13	0	10000	1	1	0	1	0
27	14	0	10000	1	1	0	1	0
26	15	0	10000	1	1	0	1	0
27	16	0	10000	1	1	0	1	0
27	17	0	10000	1	1	0	1	0
27	18	0	10000	1	1	0	1	0
26	19	0	10000	1	1	0	1	0
26	20	0	10000	1	1	0	1	0
25	21	0	10000	1	1	0	1	0
23	22	0	10000	1	1	0	1	0
26	23	0	10000	1	1	0	1	0
29	24	0	10000	1	1	0	1	0
31	25	0	10000	1	1	0	1	0
30	26	0	10000	1	1	0	1	0
29	27	0	10000	1	1	0	1	0
30	28	0	10000	1	1	0	1	0
29	29	0	10000	1	1	0	1	0
30	30	0	10000	1	1	0	1	0
31	31	0	10000	1	1	0	1	0
33	32	0	10000	1	1	0	1	0
32	33	0	10000	1	1	0	1	0
33	34	0	10000	1	1	0	1	0
36	35	0	10000	1	1	0	1	0
38	36	0	10000	1	1	0	1	0
39	37	0	10000	1	1	0	1	0
40	38	0	10000	1	1	0	1	0
39	39	0	10000	1	1	0	1	0
38	40	0	10000	1	1	0	1	0
37	41	0	10000	1	1	0	1	0
35	42	0	10000	1	1	0	1	0
35	43	0	10000	1	1	0	1	0
37	44	0	10000	1	1	0	1	0
37	45	0	10000	1	1	0	1	0
38	46	0	10000	1	1	0	1	0
38	47	0	10000	1	1	0	1	0
38	48	0	10000	1	1	0	1	0
36	49	0	10000	1	1	0	1	0
35	50	0	10000	1	1	0	1	0
34	50	0	10000	1	1	0	1	0
35	51	0	10000	1	1	0	1	0
34	53	0	10000	1	1	0	1	0
34	54	0	10000	1	1	0	1	0
35	55	0	10000	1	1	0	1	0
35	56	0	10000	1	1	0	1	0
33	57	0	10000	1	1	0	1	0
34	58	0	10000	1	1	0	1	0
37	59	0	10000	1	1	0	1	0
36	60	0	10000	1	1	0	1	0
35	60	0	10000	1	1	0	1	0
35	61	0	10000	1	1	0	1	0
34	63	0	10000	1	1	0	1	0
33	64	0	10000	1	1	0	1	0
33	65	0	10000	1	1	0	1	0
33	66	0	10000	1	1	0	1	0
31	67	0	10000	1	1	0	1	0
31	68	0	10000	1	1	0	1	0
30	69	0	10000	1	1	0	1	0
29	70	0	10000	1	1	0	1	0
29	70	0	10000	1	1	0	1	0
30	71	0	10000	1	1	0	1	0
28	73	0	10000	1	1	0	1	0
28	74	0	10000	1	1	0	1	0
27	75	0	10000	1	1	0	1	0
27	76	0	10000	1	1	0	1	0
26	77	0	10000	1	1	0	1	0
27	78	0	10000	1	1	0	1	0
30	79	0	10000	1	1	0	1	0
31	80	0	10000	1	1	0	1	0
30	80	0	10000	1	1	0	1	0
27	81	0	10000	1	1	0	1	0
30	83	0	10000	1	1	0	1	0
30	84	0	10000	1	1	0	1	0
30	85	0	10000	1	1	0	1	0
30	86	0	10000	1	1	0	1	0
32	87	0	10000	1	1	0	1	0
32	88	0	10000	1	1	0	1	0
31	89	0	10000	1	1	0	1	0
30	90	0	10000	1	1	0	1	0
29	90	0	10000	1	1	0	1	0
31	91	0	10000	1	1	0	1	0
33	93	0	10000	1	1	0	1	0
35	94	0	10000	1	1	0	1	0
36	95	0	10000	1	1	0	1	0
36	96	0	10000	1	1	0	1	0
35	97	0	10000	1	1	0	1	0
34	98	0	10000	1	1	0	1	0
36	99	0	10000	1	1	0	1	0
39	100	0	10000	1	1	0	1	0
40	100	0	10000	1	1	0	1	0
37	101	0	10000	1	1	0	1	0
37	103	0	10000	1	1	0	1	0
39	104	0	10000	1	1	0	1	0
39	105	0	10000	1	1	0	1	0
39	106	0	10000	1	1	0	1	0
38	107	0	10000	1	1	0	1	0
37	108	0	10000	1	1	0	1	0
35	109	0	10000	1	1	0	1	0
35	110	0	10000	1	1	0	1	0
36	110	0	10000	1	1	0	1	0
40	111	0	10000	1	1	0	1	0
40	113	0	10000	1	1	0	1	0
40	114	0	10000	1	1	0	1	0
39	115	0	10000	1	1	0	1	0
37	116	0	10000	1	1	0	1	0
37	117	0	10000	1	1	0	1	0
36	118	0	10000	1	1	0	1	0
35	119	0	10000	1	1	0	1	0
34	120	0	10000	1	1	0	1	0
34	120	0	10000	1	1	0	1	0
35	121	0	10000	1	1	0	1	0
38	123	0	10000	1	1	0	1	0
41	124	0	10000	1	1	0	1	0
41	125	0	10000	1	1	0	1	0
41	126	0	10000	1	1	0	1	0
41	127	0	10000	1	1	0	1	0
40	128	0	10000	1	1	0	1	0
39	129	0	10000	1	1	0	1	0
37	130	0	10000	1	1	0	1	0
36	130	0	10000	1	1	0	1	0
38	131	0	10000	1	1	0	1	0
38	133	0	10000	1	1	0	1	0
41	134	0	10000	1	1	0	1	0
44	135	0	10000	1	1	0	1	0
48	136	0	10000	1	1	0	1	0
48	137	0	10000	1	1	0	1	0
48	138	0	10000	1	1	0	1	0
50	139	0	10000	1	1	0	1	0
52	140	0	10000	1	1	0	1	0
52	140	0	10000	1	1	0	1	0
48	141	0	10000	1	1	0	1	0
49	143	0	10000	1	1	0	1	0
50	144	0	10000	1	1	0	1	0
50	145	0	10000	1	1	0	1	0
49	146	0	10000	1	1	0	1	0
47	147	0	10000	1	1	0	1	0
46	148	0	10000	1	1	0	1	0
44	149	0	10000	1	1	0	1	0
42	150	0	10000	1	1	0	1	0
40	150	0	10000	1	1	0	1	0
41	151	0	10000	1	1	0	1	0
40	153	0	10000	1	1	0	1	0
41	154	0	10000	1	1	0	1	0
43	155	0	10000	1	1	0	1	0
47	156	0	10000	1	1	0	1	0
49	157	0	10000	1	1	0	1	0
49	158	0	10000	1	1	0	1	0
47	159	0	10000	1	1	0	1	0
47	160	0	10000	1	1	0	1	0
48	160	0	10000	1	1	0	1	0
48	161	0	10000	1	1	0	1	0
48	163	0	10000	1	1	0	1	0
49	164	0	10000	1	1	0	1	0
50	165	0	10000	1	1	0	1	0
47	166	0	10000	1	1	0	1	0
46	167	0	10000	1	1	0	1	0
45	168	0	10000	1	1	0	1	0
44	169	0	10000	1	1	0	1	0
43	170	0	10000	1	1	0	1	0
41	170	0	10000	1	1	0	1	0
43	171	0	10000	1	1	0	1	0
40	173	0	10000	1	1	0	1	0
39	174	0	10000	1	1	0	1	0
38	175	0	10000	1	1	0	1	0
38	176	0	10000	1	1	0	1	0
36	177	0	10000	1	1	0	1	0
35	178	0	10000	1	1	0	1	0
37	179	0	10000	1	1	0	1	0
38	180	0	10000	1	1	0	1	0
37	180	0	10000	1	1	0	1	0
35	181	0	10000	1	1	0	1	0
34	183	0	10000	1	1	0	1	0
33	184	0	10000	1	1	0	1	0
34	185	0	10000	1	1	0	1	0
33	186	0	10000	1	1	0	1	0
32	187	0	10000	1	1	0	1	0
32	188	0	10000	1	1	0	1	0
31	189	0	10000	1	1	0	1	0
29	190	0	10000	1	1	0	1	0
29	190	0	10000	1	1	0	1	0
30	191	0	10000	1	1	0	1	0
30	193	0	10000	1	1	0	1	0
29	194	0	10000	1	1	0	1	0
28	195	0	10000	1	1	0	1	0
28	196	0	10000	1	1	0	1	0
27	197	0	10000	1	1	0	1	0
26	198	0	10000	1	1	0	1	0
28	199	0	10000	1	1	0	1	0
29	200	0	10000	1	1	0	1	0
29	200	0	10000	1	1	0	1	0
27	201	0	10000	1	1	0	1	0
28	203	0	10000	1	1	0	1	0
30	204	0	10000	1	1	0	1	0
32	205	0	10000	1	1	0	1	0
32	206	0	10000	1	1	0	1	0
30	207	0	10000	1	1	0	1	0
31	208	0	10000	1	1	0	1	0
30	209	0	10000	1	1	0	1	0
31	210	0	10000	1	1	0	1	0
31	210	0	10000	1	1	0	1	0
32	211	0	10000	1	1	0	1	0
31	213	0	10000	1	1	0	1	0
30	214	0	10000	1	1	0	1	0
30	215	0	10000	1	1	0	1	0
32	216	0	10000	1	1	0	1	0
31	217	0	10000	1	1	0	1	0
30	218	0	10000	1	1	0	1	0
32	219	0	10000	1	1	0	1	0
33	220	0	10000	1	1	0	1	0
34	220	0	10000	1	1	0	1	0
31	221	0	10000	1	1	0	1	0
32	223	0	10000	1	1	0	1	0
32	224	0	10000	1	1	0	1	0
33	225	0	10000	1	1	0	1	0
34	226	0	10000	1	1	0	1	0
35	227	0	10000	1	1	0	1	0
35	228	0	10000	1	1	0	1	0
33	229	0	10000	1	1	0	1	0
33	230	0	10000	1	1	0	1	0
32	230	0	10000	1	1	0	1	0
34	231	0	10000	1	1	0	1	0
33	233	0	10000	1	1	0	1	0
32	234	0	10000	1	1	0	1	0
33	235	0	10000	1	1	0	1	0
34	236	0	10000	1	1	0	1	0
34	237	0	10000	1	1	0	1	0
32	238	0	10000	1	1	0	1	0
32	239	0	10000	1	1	0	1	0
32	240	0	10000	1	1	0	1	0
32	240	0	10000	1	1	0	1	0
29	241	0	10000	1	1	0	1	0
30	243	0	10000	1	1	0	1	0
32	244	0	10000	1	1	0	1	0
34	245	0	10000	1	1	0	1	0
34	246	0	10000	1	1	0	1	0
35	247	0	10000	1	1	0	1	0
34	248	0	10000	1	1	0	1	0
32	249	0	10000	1	1	0	1	0
31	250	0	10000	1	1	0	1	0
31	250	0	10000	1	1	0	1	0
33	251	0	10000	1	1	0	1	0
32	253	0	10000	1	1	0	1	0
32	254	0	10000	1	1	0	1	0
31	255	0	10000	1	1	0	1	0
30	256	0	10000	1	1	0	1	0
30	257	0	10000	1	1	0	1	0
30	258	0	10000	1	1	0	1	0
31	259	0	10000	1	1	0	1	0
30	260	0	10000	1	1	0	1	0
30	260	0	10000	1	1	0	1	0
27	261	0	10000	1	1	0	1	0
27	263	0	10000	1	1	0	1	0
28	264	0	10000	1	1	0	1	0
27	265	0	10000	1	1	0	1	0
26	266	0	10000	1	1	0	1	0
26	267	0	10000	1	1	0	1	0
28	268	0	10000	1	1	0	1	0
27	269	0	10000	1	1	0	1	0
26	270	0	10000	1	1	0	1	0
26	270	0	10000	1	1	0	1	0
28	271	0	10000	1	1	0	1	0
26	273	0	10000	1	1	0	1	0
25	274	0	10000	1	1	0	1	0
25	275	0	10000	1	1	0	1	0
24	276	0	10000	1	1	0	1	0
24	277	0	10000	1	1	0	1	0
25	278	0	10000	1	1	0	1	0
26	279	0	10000	1	1	0	1	0
26	280	0	10000	1	1	0	1	0
26	280	0	10000	1	1	0	1	0
24	281	0	10000	1	1	0	1	0
26	283	0	10000	1	1	0	1	0
29	284	0	10000	1	1	0	1	0
31	285	0	10000	1	1	0	1	0
30	286	0	10000	1	1	0	1	0
29	287	0	10000	1	1	0	1	0
29	288	0	10000	1	1	0	1	0
27	289	0	10000	1	1	0	1	0
27	290	0	10000	1	1	0	1	0
27	290	0	10000	1	1	0	1	0
29	291	0	10000	1	1	0	1	0
28	293	0	10000	1	1	0	1	0
28	294	0	10000	1	1	0	1	0
29	295	0	10000	1	1	0	1	0
28	296	0	10000	1	1	0	1	0
27	297	0	10000	1	1	0	1	0
26	298	0	10000	1	1	0	1	0
27	299	0	10000	1	1	0	1	0
28	300	0	10000	1	1	0	1	0
30	300	0	10000	1	1	0	1	0
29	301	0	10000	1	1	0	1	0
29	303	0	10000	1	1	0	1	0
28	304	0	10000	1	1	0	1	0
30	305	0	10000	1	1	0	1	0
27	306	0	10000	1	1	0	1	0
27	307	0	10000	1	1	0	1	0
26	308	0	10000	1	1	0	1	0
26	309	0	10000	1	1	0	1	0
25	310	0	10000	1	1	0	1	0
25	310	0	10000	1	1	0	1	0
26	311	0	10000	1	1	0	1	0
25	313	0	10000	1	1	0	1	0
24	314	0	10000	1	1	0	1	0
24	315	0	10000	1	1	0	1	0
24	316	0	10000	1	1	0	1	0
23	317	0	10000	1	1	0	1	0
23	318	0	10000	1	1	0	1	0
25	319	0	10000	1	1	0	1	0
25	320	0	10000	1	1	0	1	0
25	320	0	10000	1	1	0	1	0
22	321	0	10000	1	1	0	1	0
23	323	0	10000	1	1	0	1	0
23	324	0	10000	1	1	0	1	0
24	325	0	10000	1	1	0	1	0
23	326	0	10000	1	1	0	1	0
23	327	0	10000	1	1	0	1	0
22	328	0	10000	1	1	0	1	0
22	329	0	10000	1	1	0	1	0
21	330	0	10000	1	1	0	1	0
20	330	0	10000	1	1	0	1	0
21	331	0	10000	1	1	0	1	0
22	333	0	10000	1	1	0	1	0
23	334	0	10000	1	1	0	1	0
23	335	0	10000	1	1	0	1	0
23	336	0	10000	1	1	0	1	0
23	337	0	10000	1	1	0	1	0
22	338	0	10000	1	1	0	1	0
26	339	0	10000	1	1	0	1	0
26	340	0	10000	1	1	0	1	0
26	340	0	10000	1	1	0	1	0
23	341	0	10000	1	1	0	1	0
24	343	0	10000	1	1	0	1	0
26	344	0	10000	1	1	0	1	0
27	345	0	10000	1	1	0	1	0
27	346	0	10000	1	1	0	1	0
26	347	0	10000	1	1	0	1	0
26	348	0	10000	1	1	0	1	0
25	349	0	10000	1	1	0	1	0
26	350	0	10000	1	1	0	1	0
25	350	0	10000	1	1	0	1	0
27	351	0	10000	1	1	0	1	0
27	353	0	10000	1	1	0	1	0
26	354	0	10000	1	1	0	1	0
26	355	0	10000	1	1	0	1	0
26	356	0	10000	1	1	0	1	0
26	357	0	10000	1	1	0	1	0
25	358	0	10000	1	1	0	1	0
27	359	0	10000	1	1	0	1	0
28	360	0	10000	1	1	0	1	0
30	360	0	10000	1	1	0	1	0
28	361	0	10000	1	1	0	1	0
28	363	0	10000	1	1	0	1	0
28	364	0	10000	1	1	0	1	0
28	365	0	10000	1	1	0	1	0
28	366	0	10000	1	1	0	1	0
28	367	0	10000	1	1	0	1	0
28	368	0	10000	1	1	0	1	0
27	369	0	10000	1	1	0	1	0
27	370	0	10000	1	1	0	1	0
26	370	0	10000	1	1	0	1	0
27	371	0	10000	1	1	0	1	0
26	373	0	10000	1	1	0	1	0
26	374	0	10000	1	1	0	1	0
27	375	0	10000	1	1	0	1	0
27	376	0	10000	1	1	0	1	0
27	377	0	10000	1	1	0	1	0
27	378	0	10000	1	1	0	1	0
30	379	0	10000	1	1	0	1	0
31	380	0	10000	1	1	0	1	0
31	380	0	10000	1	1	0	1	0
29	381	0	10000	1	1	0	1	0
29	383	0	10000	1	1	0	1	0
29	384	0	10000	1	1	0	1	0
29	385	0	10000	1	1	0	1	0
28	386	0	10000	1	1	0	1	0
28	387	0	10000	1	1	0	1	0
28	388	0	10000	1	1	0	1	0
26	389	0	10000	1	1	0	1	0
26	390	0	10000	1	1	0	1	0
27	390	0	10000	1	1	0	1	0
28	391	0	10000	1	1	0	1	0
27	393	0	10000	1	1	0	1	0
27	394	0	10000	1	1	0	1	0
26	395	0	10000	1	1	0	1	0
26	396	0	10000	1	1	0	1	0
26	397	0	10000	1	1	0	1	0
26	398	0	10000	1	1	0	1	0
29	399	0	10000	1	1	0	1	0
29	400	0	10000	1	1	0	1	0
29	400	0	10000	1	1	0	1	0
26	401	0	10000	1	1	0	1	0
26	403	0	10000	1	1	0	1	0
28	404	0	10000	1	1	0	1	0
30	405	0	10000	1	1	0	1	0
31	406	0	10000	1	1	0	1	0
30	407	0	10000	1	1	0	1	0
29	408	0	10000	1	1	0	1	0
28	409	0	10000	1	1	0	1	0
28	410	0	10000	1	1	0	1	0
30	410	0	10000	1	1	0	1	0
31	411	0	10000	1	1	0	1	0
30	413	0	10000	1	1	0	1	0
29	414	0	10000	1	1	0	1	0
28	415	0	10000	1	1	0	1	0
29	416	0	10000	1	1	0	1	0
30	417	0	10000	1	1	0	1	0
30	418	0	10000	1	1	0	1	0
30	419	0	10000	1	1	0	1	0
30	420	0	10000	1	1	0	1	0
30	420	0	10000	1	1	0	1	0
28	421	0	10000	1	1	0	1	0
28	423	0	10000	1	1	0	1	0
29	424	0	10000	1	1	0	1	0
29	425	0	10000	1	1	0	1	0
28	426	0	10000	1	1	0	1	0
27	427	0	10000	1	1	0	1	0
27	428	0	10000	1	1	0	1	0
25	429	0	10000	1	1	0	1	0
25	430	0	10000	1	1	0	1	0
25	430	0	10000	1	1	0	1	0
27	431	0	10000	1	1	0	1	0
26	433	0	10000	1	1	0	1	0
26	434	0	10000	1	1	0	1	0
28	435	0	10000	1	1	0	1	0
28	436	0	10000	1	1	0	1	0
27	437	0	10000	1	1	0	1	0
27	438	0	10000	1	1	0	1	0
28	439	0	10000	1	1	0	1	0
28	440	0	10000	1	1	0	1	0
27	440	0	10000	1	1	0	1	0
25	441	0	10000	1	1	0	1	0
25	443	0	10000	1	1	0	1	0
27	444	0	10000	1	1	0	1	0
28	445	0	10000	1	1	0	1	0
27	446	0	10000	1	1	0	1	0
26	447	0	10000	1	1	0	1	0
26	448	0	10000	1	1	0	1	0
24	449	0	10000	1	1	0	1	0
24	450	0	10000	1	1	0	1	0
25	450	0	10000	1	1	0	1	0
27	451	0	10000	1	1	0	1	0
27	453	0	10000	1	1	0	1	0
27	454	0	10000	1	1	0	1	0
26	455	0	10000	1	1	0	1	0
26	456	0	10000	1	1	0	1	0
25	457	0	10000	1	1	0	1	0
24	458	0	10000	1	1	0	1	0
27	459	0	10000	1	1	0	1	0
26	460	0	10000	1	1	0	1	0
26	460	0	10000	1	1	0	1	0
23	461	0	10000	1	1	0	1	0
25	463	0	10000	1	1	0	1	0
29	464	0	10000	1	1	0	1	0
31	465	0	10000	1	1	0	1	0
31	466	0	10000	1	1	0	1	0
30	467	0	10000	1	1	0	1	0
30	468	0	10000	1	1	0	1	0
30	469	0	10000	1	1	0	1	0
31	470	0	10000	1	1	0	1	0
32	470	0	10000	1	1	0	1	0
34	471	0	10000	1	1	0	1	0
33	473	0	10000	1	1	0	1	0
33	474	0	10000	1	1	0	1	0
32	475	0	10000	1	1	0	1	0
32	476	0	10000	1	1	0	1	0
31	477	0	10000	1	1	0	1	0
30	478	0	10000	1	1	0	1	0
32	479	0	10000	1	1	0	1	0
33	480	0	10000	1	1	0	1	0
33	480	0	10000	1	1	0	1	0
31	481	0	10000	1	1	0	1	0
32	483	0	10000	1	1	0	1	0
33	484	0	10000	1	1	0	1	0
34	485	0	10000	1	1	0	1	0
34	486	0	10000	1	1	0	1	0
33	487	0	10000	1	1	0	1	0
32	488	0	10000	1	1	0	1	0
31	489	0	10000	1	1	0	1	0
30	490	0	10000	1	1	0	1	0
30	490	0	10000	1	1	0	1	0
32	491	0	10000	1	1	0	1	0
31	493	0	10000	1	1	0	1	0
32	494	0	10000	1	1	0	1	0
32	495	0	10000	1	1	0	1	0
32	496	0	10000	1	1	0	1	0
31	497	0	10000	1	1	0	1	0
30	498	0	10000	1	1	0	1	0
32	499	0	10000	1	1	0	1	0
32	500	0	10000	1	1	0	1	0
31	500	0	10000	1	1	0	1	0
29	501	0	10000	1	1	0	1	0
29	536	0	10000	1	1	0	1	1
30	537	0	10000	1	1	0	1	1
30	538	0	10000	1	1	0	1	1
29	539	0	10000	1	1	0	1	1
28	540	0	10000	1	1	0	1	1
27	541	0	10000	1	1	0	1	1
26	542	0	10000	1	1	0	1	1
25	543	0	10000	1	1	0	1	1
25	544	0	10000	1	1	0	1	1
26	545	0	10000	1	1	0	1	1
26	546	0	10000	1	1	0	1	1
26	547	0	10000	1	1	0	1	1
25	548	0	10000	1	1	0	1	1
25	549	0	10000	1	1	0	1	1
26	550	0	10000	1	1	0	1	1
25	551	0	10000	1	1	0	1	1
25	552	0	10000	1	1	0	1	1
24	553	0	10000	1	1	0	1	1
24	554	0	10000	1	1	0	1	1
22	555	0	10000	1	1	0	1	1
21	556	0	10000	1	1	0	1	1
21	557	0	10000	1	1	0	1	1
20	558	0	10000	1	1	0	1	1
20	559	0	10000	1	1	0	1	1
20	560	0	10000	1	1	0	1	1
20	561	0	10000	1	1	0	1	1
19	562	0	10000	1	1	0	1	1
20	563	0	10000	1	1	0	1	1
20	564	0	10000	1	1	0	1	1
22	565	0	10000	1	1	0	1	1
23	566	0	10000	1	1	0	1	1
24	567	0	10000	1	1	0	1	1
24	568	0	10000	1	1	0	1	1
25	569	0	10000	1	1	0	1	1
25	570	0	10000	1	1	0	1	1
24	571	0	10000	1	1	0	1	1
25	541	0	10000	1	1	0	1	1
25	542	0	10000	1	1	0	1	1
24	543	0	10000	1	1	0	1	1
22	544	0	10000	1	1	0	1	1
23	543	0	10000	1	1	0	1	1
24	544	0	10000	1	1	0	1	1
24	545	0	10000	1	1	0	1	1
24	546	0	10000	1	1	0	1	1
23	547	0	10000	1	1	0	1	1
23	548	0	10000	1	1	0	1	1
21	549	0	10000	1	1	0	1	1
21	550	0	10000	1	1	0	1	1
21	551	0	10000	1	1	0	1	0
23	552	0	10000	1	1	0	1	0
23	553	0	10000	1	1	0	1	0
24	554	0	10000	1	1	0	1	0
24	555	0	10000	1	1	0	1	0
23	556	0	10000	1	1	0	1	0
23	557	0	10000	1	1	0	1	0
24	558	0	10000	1	1	0	1	0
24	559	0	10000	1	1	0	1	0
24	560	0	10000	1	1	0	1	0
24	561	0	10000	1	1	0	1	0
21	562	0	10000	1	1	0	1	0
22	563	0	10000	1	1	0	1	0
25	564	0	10000	1	1	0	1	0
27	565	0	10000	1	1	0	1	0
27	566	0	10000	1	1	0	1	0
27	567	0	10000	1	1	0	1	0
26	568	0	10000	1	1	0	1	0
26	569	0	10000	1	1	0	1	0
27	570	0	10000	1	1	0	1	0
28	570	0	10000	1	1	0	1	0
29	571	0	10000	1	1	0	1	0
29	573	0	10000	1	1	0	1	0
29	574	0	10000	1	1	0	1	0
30	575	0	10000	1	1	0	1	0
31	576	0	10000	1	1	0	1	0
31	577	0	10000	1	1	0	1	0
30	578	0	10000	1	1	0	1	0
31	579	0	10000	1	1	0	1	0
33	580	0	10000	1	1	0	1	0
35	580	0	10000	1	1	0	1	0
35	581	0	10000	1	1	0	1	0
34	583	0	10000	1	1	0	1	0
35	584	0	10000	1	1	0	1	0
34	585	0	10000	1	1	0	1	0
33	586	0	10000	1	1	0	1	0
33	587	0	10000	1	1	0	1	0
33	588	0	10000	1	1	0	1	0
33	589	0	10000	1	1	0	1	0
31	590	0	10000	1	1	0	1	0
30	590	0	10000	1	1	0	1	0
31	591	0	10000	1	1	0	1	0
30	593	0	10000	1	1	0	1	0
31	594	0	10000	1	1	0	1	0
32	595	0	10000	1	1	0	1	0
32	596	0	10000	1	1	0	1	0
32	597	0	10000	1	1	0	1	0
30	598	0	10000	1	1	0	1	0
32	599	0	10000	1	1	0	1	0
31	600	0	10000	1	1	0	1	0
30	600	0	10000	1	1	0	1	0
27	601	0	10000	1	1	0	1	0
28	603	0	10000	1	1	0	1	0
28	604	0	10000	1	1	0	1	0
28	605	0	10000	1	1	0	1	0
28	606	0	10000	1	1	0	1	0
27	607	0	10000	1	1	0	1	0
28	608	0	10000	1	1	0	1	0
27	609	0	10000	1	1	0	1	0
27	610	0	10000	1	1	0	1	0
27	610	0	10000	1	1	0	1	0
28	611	0	10000	1	1	0	1	0
27	613	0	10000	1	1	0	1	0
26	614	0	10000	1	1	0	1	0
27	615	0	10000	1	1	0	1	0
27	616	0	10000	1	1	0	1	0
28	617	0	10000	1	1	0	1	0
33	618	0	10000	1	1	0	1	0
43	619	0	10000	1	1	0	1	0
56	620	0	10000	1	1	0	1	0
65	620	0	10000	1	1	0	1	0
104	621	0	10000	1	1	0	1	0
141	623	0	10000	1	1	0	1	0
156	624	0	10000	1	1	0	1	0
203	625	0	10000	1	1	0	1	0
217	626	0	10000	1	1	0	1	0
242	627	0	10000	1	1	0	1	0
251	628	0	10000	1	1	0	1	0
302	629	0	10000	1	1	0	1	0
323	630	0	10000	1	1	0	1	0
397	630	0	10000	1	1	0	1	0
413	631	0	10000	1	1	0	1	0
428	633	0	10000	1	1	0	1	0
438	634	0	10000	1	1	0	1	0
423	635	0	10000	1	1	0	1	0
505	636	0	10000	1	1	0	1	0
585	637	0	10000	1	1	0	1	0
724	638	0	10000	1	1	0	1	0
797	639	0	10000	1	1	0	1	0
806	640	0	10000	1	1	0	1	0
910	640	0	10000	1	1	0	1	0
924	641	0	10000	1	1	0	1	0
1008	643	0	10000	1	1	0	1	0
1017	644	0	10000	1	1	0	1	0
1049	645	0	10000	1	1	0	1	0
1107	646	0	10000	1	1	0	1	0
1081	647	0	10000	1	1	0	1	0
1063	648	0	10000	1	1	0	1	0
1065	649	0	10000	1	1	0	1	0
1101	650	0	10000	1	1	0	1	0
1067	650	0	10000	1	1	0	1	0
1028	651	0	10000	1	1	0	1	0
984	653	0	10000	1	1	0	1	0
946	654	0	10000	1	1	0	1	0
911	655	0	10000	1	1	0	1	0
895	656	0	10000	1	1	0	1	0
907	657	0	10000	1	1	0	1	0
942	658	0	10000	1	1	0	1	0
946	659	0	10000	1	1	0	1	0
965	660	0	10000	1	1	0	1	0
985	660	0	10000	1	1	0	1	0
1000	661	0	10000	1	1	0	1	0
999	663	0	10000	1	1	0	1	0
988	664	0	10000	1	1	0	1	0
972	665	0	10000	1	1	0	1	0
952	666	0	10000	1	1	0	1	0
932	667	0	10000	1	1	0	1	0
913	668	0	10000	1	1	0	1	0
892	669	0	10000	1	1	0	1	0
868	670	0	10000	1	1	0	1	0
845	670	0	10000	1	1	0	1	0
820	671	0	10000	1	1	0	1	0
790	673	0	10000	1	1	0	1	0
758	674	0	10000	1	1	0	1	0
725	675	0	10000	1	1	0	1	0
692	676	0	10000	1	1	0	1	0
660	677	0	10000	1	1	0	1	0
633	678	0	10000	1	1	0	1	0
604	679	0	10000	1	1	0	1	0
576	680	0	10000	1	1	0	1	0
552	680	0	10000	1	1	0	1	0
526	681	0	10000	1	1	0	1	0
508	683	0	10000	1	1	0	1	0
494	684	0	10000	1	1	0	1	0
482	685	0	10000	1	1	0	1	0
471	686	0	10000	1	1	0	1	0
456	687	0	10000	1	1	0	1	0
457	688	0	10000	1	1	0	1	0
464	689	0	10000	1	1	0	1	0
471	690	0	10000	1	1	0	1	0
479	690	0	10000	1	1	0	1	0
491	691	0	10000	1	1	0	1	0
502	693	0	10000	1	1	0	1	0
517	694	0	10000	1	1	0	1	0
535	695	0	10000	1	1	0	1	0
555	696	0	10000	1	1	0	1	0
575	697	0	10000	1	1	0	1	0
598	698	0	10000	1	1	0	1	0
616	699	0	10000	1	1	0	1	0
632	700	0	10000	1	1	0	1	0
644	700	0	10000	1	1	0	1	0
653	701	0	10000	1	1	0	1	0
668	703	0	10000	1	1	0	1	0
684	704	0	10000	1	1	0	1	0
700	705	0	10000	1	1	0	1	0
713	706	0	10000	1	1	0	1	0
725	707	0	10000	1	1	0	1	0
732	708	0	10000	1	1	0	1	0
736	709	0	10000	1	1	0	1	0
736	710	0	10000	1	1	0	1	0
734	710	0	10000	1	1	0	1	0
731	711	0	10000	1	1	0	1	0
723	713	0	10000	1	1	0	1	0
717	714	0	10000	1	1	0	1	0
713	715	0	10000	1	1	0	1	0
708	716	0	10000	1	1	0	1	0
702	717	0	10000	1	1	0	1	0
694	718	0	10000	1	1	0	1	0
682	719	0	10000	1	1	0	1	0
671	720	0	10000	1	1	0	1	0
663	720	0	10000	1	1	0	1	0
653	721	0	10000	1	1	0	1	0
643	723	0	10000	1	1	0	1	0
634	724	0	10000	1	1	0	1	0
625	725	0	10000	1	1	0	1	0
612	726	0	10000	1	1	0	1	0
599	727	0	10000	1	1	0	1	0
583	728	0	10000	1	1	0	1	0
565	729	0	10000	1	1	0	1	0
548	730	0	10000	1	1	0	1	0
532	730	0	10000	1	1	0	1	0
515	731	0	10000	1	1	0	1	0
497	733	0	10000	1	1	0	1	0
480	734	0	10000	1	1	0	1	0
463	735	0	10000	1	1	0	1	0
448	736	0	10000	1	1	0	1	0
431	737	0	10000	1	1	0	1	0
411	738	0	10000	1	1	0	1	0
393	739	0	10000	1	1	0	1	0
376	740	0	10000	1	1	0	1	0
359	740	0	10000	1	1	0	1	0
341	741	0	10000	1	1	0	1	0
326	743	0	10000	1	1	0	1	0
313	744	0	10000	1	1	0	1	0
300	745	0	10000	1	1	0	1	0
292	746	0	10000	1	1	0	1	0
285	747	0	10000	1	1	0	1	0
283	748	0	10000	1	1	0	1	0
278	749	0	10000	1	1	0	1	0
277	750	0	10000	1	1	0	1	0
276	750	0	10000	1	1	0	1	0
275	751	0	10000	1	1	0	1	0
270	753	0	10000	1	1	0	1	0
265	754	0	10000	1	1	0	1	0
258	755	0	10000	1	1	0	1	0
253	756	0	10000	1	1	0	1	0
252	757	0	10000	1	1	0	1	0
249	758	0	10000	1	1	0	1	0
249	759	0	10000	1	1	0	1	0
248	760	0	10000	1	1	0	1	0
244	760	0	10000	1	1	0	1	0
238	761	0	10000	1	1	0	1	0
235	763	0	10000	1	1	0	1	0
230	764	0	10000	1	1	0	1	0
227	765	0	10000	1	1	0	1	0
224	766	0	10000	1	1	0	1	0
223	767	0	10000	1	1	0	1	0
223	768	0	10000	1	1	0	1	0
223	769	0	10000	1	1	0	1	0
224	770	0	10000	1	1	0	1	0
223	770	0	10000	1	1	0	1	0
225	771	0	10000	1	1	0	1	0
223	773	0	10000	1	1	0	1	0
222	774	0	10000	1	1	0	1	0
219	775	0	10000	1	1	0	1	0
217	776	0	10000	1	1	0	1	0
216	777	0	10000	1	1	0	1	0
215	778	0	10000	1	1	0	1	0
216	779	0	10000	1	1	0	1	0
215	780	0	10000	1	1	0	1	0
213	780	0	10000	1	1	0	1	0
207	781	0	10000	1	1	0	1	0
203	783	0	10000	1	1	0	1	0
199	784	0	10000	1	1	0	1	0
195	785	0	10000	1	1	0	1	0
191	786	0	10000	1	1	0	1	0
191	787	0	10000	1	1	0	1	0
191	788	0	10000	1	1	0	1	0
190	789	0	10000	1	1	0	1	0
191	790	0	10000	1	1	0	1	0
192	790	0	10000	1	1	0	1	0
193	791	0	10000	1	1	0	1	0
191	793	0	10000	1	1	0	1	0
189	794	0	10000	1	1	0	1	0
186	795	0	10000	1	1	0	1	0
183	796	0	10000	1	1	0	1	0
179	797	0	10000	1	1	0	1	0
176	798	0	10000	1	1	0	1	0
174	799	0	10000	1	1	0	1	0
171	800	0	10000	1	1	0	1	0
168	800	0	10000	1	1	0	1	0
162	801	0	10000	1	1	0	1	0
156	803	0	10000	1	1	0	1	0
151	804	0	10000	1	1	0	1	0
147	805	0	10000	1	1	0	1	0
144	806	0	10000	1	1	0	1	0
141	807	0	10000	1	1	0	1	0
140	808	0	10000	1	1	0	1	0
138	809	0	10000	1	1	0	1	0
138	810	0	10000	1	1	0	1	0
139	810	0	10000	1	1	0	1	0
141	811	0	10000	1	1	0	1	0
140	813	0	10000	1	1	0	1	0
138	814	0	10000	1	1	0	1	0
134	815	0	10000	1	1	0	1	0
130	816	0	10000	1	1	0	1	0
127	817	0	10000	1	1	0	1	0
127	818	0	10000	1	1	0	1	0
127	819	0	10000	1	1	0	1	0
126	820	0	10000	1	1	0	1	0
124	820	0	10000	1	1	0	1	0
119	821	0	10000	1	1	0	1	0
115	823	0	10000	1	1	0	1	0
111	824	0	10000	1	1	0	1	0
107	825	0	10000	1	1	0	1	0
103	826	0	10000	1	1	0	1	0
101	827	0	10000	1	1	0	1	0
100	828	0	10000	1	1	0	1	0
97	829	0	10000	1	1	0	1	0
97	830	0	10000	1	1	0	1	0
99	830	0	10000	1	1	0	1	0
101	831	0	10000	1	1	0	1	0
99	833	0	10000	1	1	0	1	0
96	834	0	10000	1	1	0	1	0
93	835	0	10000	1	1	0	1	0
89	836	0	10000	1	1	0	1	0
86	837	0	10000	1	1	0	1	0
83	838	0	10000	1	1	0	1	0
83	839	0	10000	1	1	0	1	0
82	840	0	10000	1	1	0	1	0
82	840	0	10000	1	1	0	1	0
80	841	0	10000	1	1	0	1	0
78	843	0	10000	1	1	0	1	0
76	844	0	10000	1	1	0	1	0
74	845	0	10000	1	1	0	1	0
71	846	0	10000	1	1	0	1	0
70	847	0	10000	1	1	0	1	0
71	848	0	10000	1	1	0	1	0
72	849	0	10000	1	1	0	1	0
72	850	0	10000	1	1	0	1	0
73	850	0	10000	1	1	0	1	0
76	851	0	10000	1	1	0	1	0
76	853	0	10000	1	1	0	1	0
73	854	0	10000	1	1	0	1	0
70	855	0	10000	1	1	0	1	0
68	856	0	10000	1	1	0	1	0
65	857	0	10000	1	1	0	1	0
62	858	0	10000	1	1	0	1	0
63	859	0	10000	1	1	0	1	0
61	860	0	10000	1	1	0	1	0
59	860	0	10000	1	1	0	1	0
57	861	0	10000	1	1	0	1	0
56	863	0	10000	1	1	0	1	0
55	864	0	10000	1	1	0	1	0
54	865	0	10000	1	1	0	1	0
53	866	0	10000	1	1	0	1	0
51	867	0	10000	1	1	0	1	0
50	868	0	10000	1	1	0	1	0
50	869	0	10000	1	1	0	1	0
51	870	0	10000	1	1	0	1	0
52	870	0	10000	1	1	0	1	0
53	871	0	10000	1	1	0	1	0
52	873	0	10000	1	1	0	1	0
51	874	0	10000	1	1	0	1	0
49	875	0	10000	1	1	0	1	0
49	876	0	10000	1	1	0	1	0
47	877	0	10000	1	1	0	1	0
45	878	0	10000	1	1	0	1	0
44	879	0	10000	1	1	0	1	0
43	880	0	10000	1	1	0	1	0
43	880	0	10000	1	1	0	1	0
42	881	0	10000	1	1	0	1	0
44	883	0	10000	1	1	0	1	0
46	884	0	10000	1	1	0	1	0
44	885	0	10000	1	1	0	1	0
43	886	0	10000	1	1	0	1	0
42	887	0	10000	1	1	0	1	0
42	888	0	10000	1	1	0	1	0
41	889	0	10000	1	1	0	1	0
39	890	0	10000	1	1	0	1	0
38	890	0	10000	1	1	0	1	0
39	891	0	10000	1	1	0	1	0
41	893	0	10000	1	1	0	1	0
39	894	0	10000	1	1	0	1	0
38	895	0	10000	1	1	0	1	0
37	896	0	10000	1	1	0	1	0
36	897	0	10000	1	1	0	1	0
35	898	0	10000	1	1	0	1	0
37	899	0	10000	1	1	0	1	0
39	900	0	10000	1	1	0	1	0
37	900	0	10000	1	1	0	1	0
35	901	0	10000	1	1	0	1	0
36	903	0	10000	1	1	0	1	0
39	904	0	10000	1	1	0	1	0
40	905	0	10000	1	1	0	1	0
40	906	0	10000	1	1	0	1	0
38	907	0	10000	1	1	0	1	0
38	908	0	10000	1	1	0	1	0
37	909	0	10000	1	1	0	1	0
37	910	0	10000	1	1	0	1	0
39	910	0	10000	1	1	0	1	0
40	911	0	10000	1	1	0	1	0
39	913	0	10000	1	1	0	1	0
38	914	0	10000	1	1	0	1	0
36	915	0	10000	1	1	0	1	0
35	916	0	10000	1	1	0	1	0
35	917	0	10000	1	1	0	1	0
33	918	0	10000	1	1	0	1	0
33	919	0	10000	1	1	0	1	0
32	920	0	10000	1	1	0	1	0
32	920	0	10000	1	1	0	1	0
29	921	0	10000	1	1	0	1	0
31	923	0	10000	1	1	0	1	0
33	924	0	10000	1	1	0	1	0
33	925	0	10000	1	1	0	1	0
33	926	0	10000	1	1	0	1	0
32	927	0	10000	1	1	0	1	0
31	928	0	10000	1	1	0	1	0
31	929	0	10000	1	1	0	1	0
31	930	0	10000	1	1	0	1	0
32	930	0	10000	1	1	0	1	0
33	931	0	10000	1	1	0	1	0
32	933	0	10000	1	1	0	1	0
33	934	0	10000	1	1	0	1	0
32	935	0	10000	1	1	0	1	0
31	936	0	10000	1	1	0	1	0
30	937	0	10000	1	1	0	1	0
30	938	0	10000	1	1	0	1	0
31	939	0	10000	1	1	0	1	0
31	940	0	10000	1	1	0	1	0
31	940	0	10000	1	1	0	1	0
29	941	0	10000	1	1	0	1	0
32	943	0	10000	1	1	0	1	0
34	944	0	10000	1	1	0	1	0
34	945	0	10000	1	1	0	1	0
34	946	0	10000	1	1	0	1	0
33	947	0	10000	1	1	0	1	0
34	948	0	10000	1	1	0	1	0
34	949	0	10000	1	1	0	1	0
34	950	0	10000	1	1	0	1	0
36	950	0	10000	1	1	0	1	0
38	951	0	10000	1	1	0	1	0
36	953	0	10000	1	1	0	1	0
35	954	0	10000	1	1	0	1	0
34	955	0	10000	1	1	0	1	0
33	956	0	10000	1	1	0	1	0
33	957	0	10000	1	1	0	1	0
33	958	0	10000	1	1	0	1	0
33	959	0	10000	1	1	0	1	0
32	960	0	10000	1	1	0	1	0
31	960	0	10000	1	1	0	1	0
29	961	0	10000	1	1	0	1	0
30	963	0	10000	1	1	0	1	0
29	964	0	10000	1	1	0	1	0
29	965	0	10000	1	1	0	1	0
29	966	0	10000	1	1	0	1	0
30	967	0	10000	1	1	0	1	0
31	968	0	10000	1	1	0	1	0
29	969	0	10000	1	1	0	1	0
30	970	0	10000	1	1	0	1	0
30	970	0	10000	1	1	0	1	0
32	971	0	10000	1	1	0	1	0
31	973	0	10000	1	1	0	1	0
31	974	0	10000	1	1	0	1	0
30	975	0	10000	1	1	0	1	0
29	976	0	10000	1	1	0	1	0
29	977	0	10000	1	1	0	1	0
28	978	0	10000	1	1	0	1	0
30	979	0	10000	1	1	0	1	0
30	980	0	10000	1	1	0	1	0
30	980	0	10000	1	1	0	1	0
27	981	0	10000	1	1	0	1	0
27	983	0	10000	1	1	0	1	0
30	984	0	10000	1	1	0	1	0
33	985	0	10000	1	1	0	1	0
32	986	0	10000	1	1	0	1	0
32	987	0	10000	1	1	0	1	0
34	988	0	10000	1	1	0	1	0
35	989	0	10000	1	1	0	1	0
38	990	0	10000	1	1	0	1	0
42	990	0	10000	1	1	0	1	0
44	991	0	10000	1	1	0	1	0
43	993	0	10000	1	1	0	1	0
42	994	0	10000	1	1	0	1	0
41	995	0	10000	1	1	0	1	0
40	996	0	10000	1	1	0	1	0
39	997	0	10000	1	1	0	1	0
40	998	0	10000	1	1	0	1	0
43	999	0	10000	1	1	0	1	0
43	1000	0	10000	1	1	0	1	0
43	1000	0	10000	1	1	0	1	0
40	1001	0	10000	1	1	0	1	0
27	2	0	10000	2	1	0	2	0
26	3	0	10000	2	1	0	2	0
27	4	0	10000	2	1	0	2	0
28	5	0	10000	2	1	0	2	0
27	6	0	10000	2	1	0	2	0
26	7	0	10000	2	1	0	2	0
28	8	0	10000	2	1	0	2	0
30	9	0	10000	2	1	0	2	0
30	10	0	10000	2	1	0	2	0
28	11	0	10000	2	1	0	2	0
27	12	0	10000	2	1	0	2	0
27	13	0	10000	2	1	0	2	0
27	14	0	10000	2	1	0	2	0
27	15	0	10000	2	1	0	2	0
26	16	0	10000	2	1	0	2	0
26	17	0	10000	2	1	0	2	0
26	18	0	10000	2	1	0	2	0
26	19	0	10000	2	1	0	2	0
25	20	0	10000	2	1	0	2	0
27	21	0	10000	2	1	0	2	0
28	22	0	10000	2	1	0	2	0
27	23	0	10000	2	1	0	2	0
26	24	0	10000	2	1	0	2	0
27	25	0	10000	2	1	0	2	0
25	26	0	10000	2	1	0	2	0
25	27	0	10000	2	1	0	2	0
27	28	0	10000	2	1	0	2	0
28	29	0	10000	2	1	0	2	0
28	30	0	10000	2	1	0	2	0
27	31	0	10000	2	1	0	2	0
26	32	0	10000	2	1	0	2	0
28	33	0	10000	2	1	0	2	0
29	34	0	10000	2	1	0	2	0
29	35	0	10000	2	1	0	2	0
28	36	0	10000	2	1	0	2	0
27	37	0	10000	2	1	0	2	0
25	38	0	10000	2	1	0	2	0
25	39	0	10000	2	1	0	2	0
24	40	0	10000	2	1	0	2	0
25	41	0	10000	2	1	0	2	0
25	42	0	10000	2	1	0	2	0
25	43	0	10000	2	1	0	2	0
26	44	0	10000	2	1	0	2	0
26	45	0	10000	2	1	0	2	0
26	46	0	10000	2	1	0	2	0
25	47	0	10000	2	1	0	2	0
27	48	0	10000	2	1	0	2	0
27	49	0	10000	2	1	0	2	0
27	50	0	10000	2	1	0	2	0
24	51	0	10000	2	1	0	2	0
25	52	0	10000	2	1	0	2	0
25	53	0	10000	2	1	0	2	0
27	54	0	10000	2	1	0	2	0
27	55	0	10000	2	1	0	2	0
26	56	0	10000	2	1	0	2	0
26	57	0	10000	2	1	0	2	0
26	58	0	10000	2	1	0	2	0
27	59	0	10000	2	1	0	2	0
26	60	0	10000	2	1	0	2	0
29	61	0	10000	2	1	0	2	0
29	62	0	10000	2	1	0	2	0
30	63	0	10000	2	1	0	2	0
29	64	0	10000	2	1	0	2	0
29	65	0	10000	2	1	0	2	0
29	66	0	10000	2	1	0	2	0
28	67	0	10000	2	1	0	2	0
29	68	0	10000	2	1	0	2	0
31	69	0	10000	2	1	0	2	0
32	70	0	10000	2	1	0	2	0
30	71	0	10000	2	1	0	2	0
30	72	0	10000	2	1	0	2	0
32	73	0	10000	2	1	0	2	0
35	74	0	10000	2	1	0	2	0
37	75	0	10000	2	1	0	2	0
37	76	0	10000	2	1	0	2	0
36	77	0	10000	2	1	0	2	0
34	78	0	10000	2	1	0	2	0
35	79	0	10000	2	1	0	2	0
35	80	0	10000	2	1	0	2	0
37	81	0	10000	2	1	0	2	0
36	82	0	10000	2	1	0	2	0
36	83	0	10000	2	1	0	2	0
37	84	0	10000	2	1	0	2	0
38	85	0	10000	2	1	0	2	0
38	86	0	10000	2	1	0	2	0
37	87	0	10000	2	1	0	2	0
38	88	0	10000	2	1	0	2	0
39	89	0	10000	2	1	0	2	0
40	90	0	10000	2	1	0	2	0
39	91	0	10000	2	1	0	2	0
38	92	0	10000	2	1	0	2	0
40	93	0	10000	2	1	0	2	0
42	94	0	10000	2	1	0	2	0
40	95	0	10000	2	1	0	2	0
40	96	0	10000	2	1	0	2	0
40	97	0	10000	2	1	0	2	0
38	98	0	10000	2	1	0	2	0
36	99	0	10000	2	1	0	2	0
35	100	0	10000	2	1	0	2	0
36	101	0	10000	2	1	0	2	0
36	102	0	10000	2	1	0	2	0
35	103	0	10000	2	1	0	2	0
35	104	0	10000	2	1	0	2	0
36	105	0	10000	2	1	0	2	0
35	106	0	10000	2	1	0	2	0
35	107	0	10000	2	1	0	2	0
35	108	0	10000	2	1	0	2	0
36	109	0	10000	2	1	0	2	0
37	110	0	10000	2	1	0	2	0
35	111	0	10000	2	1	0	2	0
35	112	0	10000	2	1	0	2	0
36	113	0	10000	2	1	0	2	0
36	114	0	10000	2	1	0	2	0
35	115	0	10000	2	1	0	2	0
34	116	0	10000	2	1	0	2	0
34	117	0	10000	2	1	0	2	0
32	118	0	10000	2	1	0	2	0
31	119	0	10000	2	1	0	2	0
31	120	0	10000	2	1	0	2	0
32	121	0	10000	2	1	0	2	0
32	122	0	10000	2	1	0	2	0
30	123	0	10000	2	1	0	2	0
31	124	0	10000	2	1	0	2	0
29	125	0	10000	2	1	0	2	0
28	126	0	10000	2	1	0	2	0
27	127	0	10000	2	1	0	2	0
28	128	0	10000	2	1	0	2	0
27	129	0	10000	2	1	0	2	0
27	130	0	10000	2	1	0	2	0
24	131	0	10000	2	1	0	2	0
24	132	0	10000	2	1	0	2	0
24	133	0	10000	2	1	0	2	0
24	134	0	10000	2	1	0	2	0
23	135	0	10000	2	1	0	2	0
23	136	0	10000	2	1	0	2	0
24	137	0	10000	2	1	0	2	0
24	138	0	10000	2	1	0	2	0
23	139	0	10000	2	1	0	2	0
22	140	0	10000	2	1	0	2	0
24	141	0	10000	2	1	0	2	0
23	142	0	10000	2	1	0	2	0
22	143	0	10000	2	1	0	2	0
22	144	0	10000	2	1	0	2	0
22	145	0	10000	2	1	0	2	0
21	146	0	10000	2	1	0	2	0
23	147	0	10000	2	1	0	2	0
27	148	0	10000	2	1	0	2	0
30	149	0	10000	2	1	0	2	0
30	150	0	10000	2	1	0	2	0
30	151	0	10000	2	1	0	2	0
31	152	0	10000	2	1	0	2	0
31	153	0	10000	2	1	0	2	0
30	154	0	10000	2	1	0	2	0
29	155	0	10000	2	1	0	2	0
30	156	0	10000	2	1	0	2	0
30	157	0	10000	2	1	0	2	0
31	158	0	10000	2	1	0	2	0
29	159	0	10000	2	1	0	2	0
28	160	0	10000	2	1	0	2	0
29	161	0	10000	2	1	0	2	0
29	162	0	10000	2	1	0	2	0
29	163	0	10000	2	1	0	2	0
30	164	0	10000	2	1	0	2	0
33	165	0	10000	2	1	0	2	0
33	166	0	10000	2	1	0	2	0
32	167	0	10000	2	1	0	2	0
32	168	0	10000	2	1	0	2	0
32	169	0	10000	2	1	0	2	0
31	170	0	10000	2	1	0	2	0
29	171	0	10000	2	1	0	2	0
29	172	0	10000	2	1	0	2	0
31	173	0	10000	2	1	0	2	0
33	174	0	10000	2	1	0	2	0
35	175	0	10000	2	1	0	2	0
35	176	0	10000	2	1	0	2	0
36	177	0	10000	2	1	0	2	0
35	178	0	10000	2	1	0	2	0
35	179	0	10000	2	1	0	2	0
34	180	0	10000	2	1	0	2	0
35	181	0	10000	2	1	0	2	0
34	182	0	10000	2	1	0	2	0
33	183	0	10000	2	1	0	2	0
32	184	0	10000	2	1	0	2	0
33	185	0	10000	2	1	0	2	0
33	186	0	10000	2	1	0	2	0
33	187	0	10000	2	1	0	2	0
33	188	0	10000	2	1	0	2	0
34	189	0	10000	2	1	0	2	0
34	190	0	10000	2	1	0	2	0
31	191	0	10000	2	1	0	2	0
31	192	0	10000	2	1	0	2	0
34	193	0	10000	2	1	0	2	0
36	194	0	10000	2	1	0	2	0
36	195	0	10000	2	1	0	2	0
37	196	0	10000	2	1	0	2	0
36	197	0	10000	2	1	0	2	0
34	198	0	10000	2	1	0	2	0
34	199	0	10000	2	1	0	2	0
33	200	0	10000	2	1	0	2	0
36	201	0	10000	2	1	0	2	0
36	202	0	10000	2	1	0	2	0
35	203	0	10000	2	1	0	2	0
34	204	0	10000	2	1	0	2	0
34	205	0	10000	2	1	0	2	0
34	206	0	10000	2	1	0	2	0
33	207	0	10000	2	1	0	2	0
33	208	0	10000	2	1	0	2	0
34	209	0	10000	2	1	0	2	0
35	210	0	10000	2	1	0	2	0
33	211	0	10000	2	1	0	2	0
32	212	0	10000	2	1	0	2	0
34	213	0	10000	2	1	0	2	0
33	214	0	10000	2	1	0	2	0
33	215	0	10000	2	1	0	2	0
32	216	0	10000	2	1	0	2	0
32	217	0	10000	2	1	0	2	0
32	218	0	10000	2	1	0	2	0
34	219	0	10000	2	1	0	2	0
35	220	0	10000	2	1	0	2	0
38	221	0	10000	2	1	0	2	0
36	222	0	10000	2	1	0	2	0
36	223	0	10000	2	1	0	2	0
35	224	0	10000	2	1	0	2	0
34	225	0	10000	2	1	0	2	0
35	226	0	10000	2	1	0	2	0
36	227	0	10000	2	1	0	2	0
38	228	0	10000	2	1	0	2	0
41	229	0	10000	2	1	0	2	0
44	230	0	10000	2	1	0	2	0
43	231	0	10000	2	1	0	2	0
42	232	0	10000	2	1	0	2	0
43	233	0	10000	2	1	0	2	0
42	234	0	10000	2	1	0	2	0
41	235	0	10000	2	1	0	2	0
39	236	0	10000	2	1	0	2	0
40	237	0	10000	2	1	0	2	0
39	238	0	10000	2	1	0	2	0
38	239	0	10000	2	1	0	2	0
38	240	0	10000	2	1	0	2	0
39	241	0	10000	2	1	0	2	0
39	242	0	10000	2	1	0	2	0
40	243	0	10000	2	1	0	2	0
40	244	0	10000	2	1	0	2	0
40	245	0	10000	2	1	0	2	0
39	246	0	10000	2	1	0	2	0
38	247	0	10000	2	1	0	2	0
39	248	0	10000	2	1	0	2	0
40	249	0	10000	2	1	0	2	0
40	250	0	10000	2	1	0	2	0
38	251	0	10000	2	1	0	2	0
37	252	0	10000	2	1	0	2	0
39	253	0	10000	2	1	0	2	0
43	254	0	10000	2	1	0	2	0
42	255	0	10000	2	1	0	2	0
40	256	0	10000	2	1	0	2	0
39	257	0	10000	2	1	0	2	0
38	258	0	10000	2	1	0	2	0
37	259	0	10000	2	1	0	2	0
37	260	0	10000	2	1	0	2	0
38	261	0	10000	2	1	0	2	0
37	262	0	10000	2	1	0	2	0
37	263	0	10000	2	1	0	2	0
39	264	0	10000	2	1	0	2	0
41	265	0	10000	2	1	0	2	0
41	266	0	10000	2	1	0	2	0
40	267	0	10000	2	1	0	2	0
41	268	0	10000	2	1	0	2	0
41	269	0	10000	2	1	0	2	0
40	270	0	10000	2	1	0	2	0
38	271	0	10000	2	1	0	2	0
36	272	0	10000	2	1	0	2	0
39	273	0	10000	2	1	0	2	0
41	274	0	10000	2	1	0	2	0
41	275	0	10000	2	1	0	2	0
39	276	0	10000	2	1	0	2	0
39	277	0	10000	2	1	0	2	0
37	278	0	10000	2	1	0	2	0
37	279	0	10000	2	1	0	2	0
37	280	0	10000	2	1	0	2	0
37	281	0	10000	2	1	0	2	0
37	282	0	10000	2	1	0	2	0
39	283	0	10000	2	1	0	2	0
40	284	0	10000	2	1	0	2	0
41	285	0	10000	2	1	0	2	0
41	286	0	10000	2	1	0	2	0
40	287	0	10000	2	1	0	2	0
40	288	0	10000	2	1	0	2	0
40	289	0	10000	2	1	0	2	0
40	290	0	10000	2	1	0	2	0
37	291	0	10000	2	1	0	2	0
37	292	0	10000	2	1	0	2	0
40	293	0	10000	2	1	0	2	0
40	294	0	10000	2	1	0	2	0
41	295	0	10000	2	1	0	2	0
39	296	0	10000	2	1	0	2	0
40	297	0	10000	2	1	0	2	0
38	298	0	10000	2	1	0	2	0
38	299	0	10000	2	1	0	2	0
38	300	0	10000	2	1	0	2	0
40	301	0	10000	2	1	0	2	0
39	302	0	10000	2	1	0	2	0
39	303	0	10000	2	1	0	2	0
38	304	0	10000	2	1	0	2	0
38	305	0	10000	2	1	0	2	0
36	306	0	10000	2	1	0	2	0
35	307	0	10000	2	1	0	2	0
36	308	0	10000	2	1	0	2	0
37	309	0	10000	2	1	0	2	0
35	310	0	10000	2	1	0	2	0
32	311	0	10000	2	1	0	2	0
32	312	0	10000	2	1	0	2	0
31	313	0	10000	2	1	0	2	0
31	314	0	10000	2	1	0	2	0
30	315	0	10000	2	1	0	2	0
30	316	0	10000	2	1	0	2	0
30	317	0	10000	2	1	0	2	0
28	318	0	10000	2	1	0	2	0
28	319	0	10000	2	1	0	2	0
26	320	0	10000	2	1	0	2	0
28	321	0	10000	2	1	0	2	0
28	322	0	10000	2	1	0	2	0
27	323	0	10000	2	1	0	2	0
26	324	0	10000	2	1	0	2	0
26	325	0	10000	2	1	0	2	0
25	326	0	10000	2	1	0	2	0
25	327	0	10000	2	1	0	2	0
25	328	0	10000	2	1	0	2	0
27	329	0	10000	2	1	0	2	0
27	330	0	10000	2	1	0	2	0
25	331	0	10000	2	1	0	2	0
25	332	0	10000	2	1	0	2	0
27	333	0	10000	2	1	0	2	0
28	334	0	10000	2	1	0	2	0
28	335	0	10000	2	1	0	2	0
29	336	0	10000	2	1	0	2	0
27	337	0	10000	2	1	0	2	0
26	338	0	10000	2	1	0	2	0
26	339	0	10000	2	1	0	2	0
25	340	0	10000	2	1	0	2	0
26	341	0	10000	2	1	0	2	0
26	342	0	10000	2	1	0	2	0
25	343	0	10000	2	1	0	2	0
25	344	0	10000	2	1	0	2	0
25	345	0	10000	2	1	0	2	0
24	346	0	10000	2	1	0	2	0
24	347	0	10000	2	1	0	2	0
25	348	0	10000	2	1	0	2	0
25	349	0	10000	2	1	0	2	0
26	350	0	10000	2	1	0	2	0
23	351	0	10000	2	1	0	2	0
24	352	0	10000	2	1	0	2	0
26	353	0	10000	2	1	0	2	0
28	354	0	10000	2	1	0	2	0
29	355	0	10000	2	1	0	2	0
29	356	0	10000	2	1	0	2	0
28	357	0	10000	2	1	0	2	0
28	358	0	10000	2	1	0	2	0
26	359	0	10000	2	1	0	2	0
26	360	0	10000	2	1	0	2	0
27	361	0	10000	2	1	0	2	0
27	362	0	10000	2	1	0	2	0
26	363	0	10000	2	1	0	2	0
26	364	0	10000	2	1	0	2	0
26	365	0	10000	2	1	0	2	0
25	366	0	10000	2	1	0	2	0
26	367	0	10000	2	1	0	2	0
27	368	0	10000	2	1	0	2	0
28	369	0	10000	2	1	0	2	0
29	370	0	10000	2	1	0	2	0
25	371	0	10000	2	1	0	2	0
25	372	0	10000	2	1	0	2	0
25	373	0	10000	2	1	0	2	0
25	374	0	10000	2	1	0	2	0
27	375	0	10000	2	1	0	2	0
28	376	0	10000	2	1	0	2	0
31	377	0	10000	2	1	0	2	0
30	378	0	10000	2	1	0	2	0
30	379	0	10000	2	1	0	2	0
28	380	0	10000	2	1	0	2	0
30	381	0	10000	2	1	0	2	0
30	382	0	10000	2	1	0	2	0
29	383	0	10000	2	1	0	2	0
29	384	0	10000	2	1	0	2	0
28	385	0	10000	2	1	0	2	0
27	386	0	10000	2	1	0	2	0
26	387	0	10000	2	1	0	2	0
28	388	0	10000	2	1	0	2	0
29	389	0	10000	2	1	0	2	0
30	390	0	10000	2	1	0	2	0
27	391	0	10000	2	1	0	2	0
26	391	0	10000	2	1	0	2	0
28	392	0	10000	2	1	0	2	0
29	394	0	10000	2	1	0	2	0
29	395	0	10000	2	1	0	2	0
29	396	0	10000	2	1	0	2	0
28	397	0	10000	2	1	0	2	0
27	398	0	10000	2	1	0	2	0
26	399	0	10000	2	1	0	2	0
25	400	0	10000	2	1	0	2	0
27	401	0	10000	2	1	0	2	0
26	401	0	10000	2	1	0	2	0
26	402	0	10000	2	1	0	2	0
25	404	0	10000	2	1	0	2	0
26	405	0	10000	2	1	0	2	0
25	406	0	10000	2	1	0	2	0
25	407	0	10000	2	1	0	2	0
26	408	0	10000	2	1	0	2	0
26	409	0	10000	2	1	0	2	0
25	410	0	10000	2	1	0	2	0
23	411	0	10000	2	1	0	2	0
23	411	0	10000	2	1	0	2	0
25	412	0	10000	2	1	0	2	0
24	414	0	10000	2	1	0	2	0
25	415	0	10000	2	1	0	2	0
25	416	0	10000	2	1	0	2	0
25	417	0	10000	2	1	0	2	0
26	418	0	10000	2	1	0	2	0
24	419	0	10000	2	1	0	2	0
24	420	0	10000	2	1	0	2	0
27	421	0	10000	2	1	0	2	0
27	421	0	10000	2	1	0	2	0
26	422	0	10000	2	1	0	2	0
25	424	0	10000	2	1	0	2	0
24	425	0	10000	2	1	0	2	0
24	426	0	10000	2	1	0	2	0
23	427	0	10000	2	1	0	2	0
24	428	0	10000	2	1	0	2	0
24	429	0	10000	2	1	0	2	0
25	430	0	10000	2	1	0	2	0
22	431	0	10000	2	1	0	2	0
22	431	0	10000	2	1	0	2	0
22	432	0	10000	2	1	0	2	0
22	434	0	10000	2	1	0	2	0
23	435	0	10000	2	1	0	2	0
22	436	0	10000	2	1	0	2	0
23	437	0	10000	2	1	0	2	0
22	438	0	10000	2	1	0	2	0
23	439	0	10000	2	1	0	2	0
23	440	0	10000	2	1	0	2	0
25	441	0	10000	2	1	0	2	0
26	441	0	10000	2	1	0	2	0
24	442	0	10000	2	1	0	2	0
24	444	0	10000	2	1	0	2	0
24	445	0	10000	2	1	0	2	0
23	446	0	10000	2	1	0	2	0
23	447	0	10000	2	1	0	2	0
26	448	0	10000	2	1	0	2	0
27	449	0	10000	2	1	0	2	0
27	450	0	10000	2	1	0	2	0
25	451	0	10000	2	1	0	2	0
25	451	0	10000	2	1	0	2	0
28	452	0	10000	2	1	0	2	0
29	454	0	10000	2	1	0	2	0
29	455	0	10000	2	1	0	2	0
28	456	0	10000	2	1	0	2	0
28	457	0	10000	2	1	0	2	0
27	458	0	10000	2	1	0	2	0
27	459	0	10000	2	1	0	2	0
28	460	0	10000	2	1	0	2	0
31	461	0	10000	2	1	0	2	0
30	461	0	10000	2	1	0	2	0
30	462	0	10000	2	1	0	2	0
31	464	0	10000	2	1	0	2	0
30	465	0	10000	2	1	0	2	0
31	466	0	10000	2	1	0	2	0
29	467	0	10000	2	1	0	2	0
30	468	0	10000	2	1	0	2	0
31	469	0	10000	2	1	0	2	0
31	470	0	10000	2	1	0	2	0
29	471	0	10000	2	1	0	2	0
29	471	0	10000	2	1	0	2	0
31	472	0	10000	2	1	0	2	0
32	474	0	10000	2	1	0	2	0
33	475	0	10000	2	1	0	2	0
32	476	0	10000	2	1	0	2	0
32	477	0	10000	2	1	0	2	0
30	478	0	10000	2	1	0	2	0
29	479	0	10000	2	1	0	2	0
29	480	0	10000	2	1	0	2	0
30	481	0	10000	2	1	0	2	0
29	481	0	10000	2	1	0	2	0
31	482	0	10000	2	1	0	2	0
30	484	0	10000	2	1	0	2	0
30	485	0	10000	2	1	0	2	0
30	486	0	10000	2	1	0	2	0
29	487	0	10000	2	1	0	2	0
31	488	0	10000	2	1	0	2	0
32	489	0	10000	2	1	0	2	0
33	490	0	10000	2	1	0	2	0
31	491	0	10000	2	1	0	2	0
31	491	0	10000	2	1	0	2	0
32	492	0	10000	2	1	0	2	0
33	494	0	10000	2	1	0	2	0
32	495	0	10000	2	1	0	2	0
32	496	0	10000	2	1	0	2	0
31	497	0	10000	2	1	0	2	0
31	498	0	10000	2	1	0	2	0
32	499	0	10000	2	1	0	2	0
33	500	0	10000	2	1	0	2	0
36	501	0	10000	2	1	0	2	0
35	502	0	10000	2	1	0	2	1
33	503	0	10000	2	1	0	2	1
33	504	0	10000	2	1	0	2	1
32	505	0	10000	2	1	0	2	1
32	506	0	10000	2	1	0	2	1
31	507	0	10000	2	1	0	2	1
30	508	0	10000	2	1	0	2	1
31	509	0	10000	2	1	0	2	1
31	510	0	10000	2	1	0	2	1
28	511	0	10000	2	1	0	2	1
27	511	0	10000	2	1	0	2	1
26	512	0	10000	2	1	0	2	1
28	514	0	10000	2	1	0	2	1
28	515	0	10000	2	1	0	2	1
28	516	0	10000	2	1	0	2	1
28	517	0	10000	2	1	0	2	1
27	518	0	10000	2	1	0	2	1
26	519	0	10000	2	1	0	2	1
26	520	0	10000	2	1	0	2	1
27	521	0	10000	2	1	0	2	1
27	521	0	10000	2	1	0	2	1
26	522	0	10000	2	1	0	2	1
28	524	0	10000	2	1	0	2	1
29	525	0	10000	2	1	0	2	1
30	526	0	10000	2	1	0	2	1
29	527	0	10000	2	1	0	2	1
29	528	0	10000	2	1	0	2	1
28	529	0	10000	2	1	0	2	1
27	530	0	10000	2	1	0	2	1
26	531	0	10000	2	1	0	2	1
25	531	0	10000	2	1	0	2	1
26	532	0	10000	2	1	0	2	1
28	534	0	10000	2	1	0	2	1
29	535	0	10000	2	1	0	2	1
28	536	0	10000	2	1	0	2	1
27	537	0	10000	2	1	0	2	1
26	538	0	10000	2	1	0	2	1
26	539	0	10000	2	1	0	2	1
25	540	0	10000	2	1	0	2	1
26	541	0	10000	2	1	0	2	1
26	541	0	10000	2	1	0	2	1
27	542	0	10000	2	1	0	2	1
29	544	0	10000	2	1	0	2	1
31	545	0	10000	2	1	0	2	1
30	546	0	10000	2	1	0	2	1
29	547	0	10000	2	1	0	2	1
32	548	0	10000	2	1	0	2	1
32	549	0	10000	2	1	0	2	1
33	550	0	10000	2	1	0	2	1
30	551	0	10000	2	1	0	2	1
31	551	0	10000	2	1	0	2	0
32	552	0	10000	2	1	0	2	0
32	554	0	10000	2	1	0	2	0
32	555	0	10000	2	1	0	2	0
32	556	0	10000	2	1	0	2	0
32	557	0	10000	2	1	0	2	0
32	558	0	10000	2	1	0	2	0
33	559	0	10000	2	1	0	2	0
34	560	0	10000	2	1	0	2	0
36	561	0	10000	2	1	0	2	0
35	561	0	10000	2	1	0	2	0
36	562	0	10000	2	1	0	2	0
35	564	0	10000	2	1	0	2	0
34	565	0	10000	2	1	0	2	0
34	566	0	10000	2	1	0	2	0
34	567	0	10000	2	1	0	2	0
35	568	0	10000	2	1	0	2	0
35	569	0	10000	2	1	0	2	0
35	570	0	10000	2	1	0	2	0
33	571	0	10000	2	1	0	2	0
33	571	0	10000	2	1	0	2	0
35	572	0	10000	2	1	0	2	0
37	574	0	10000	2	1	0	2	0
38	575	0	10000	2	1	0	2	0
38	576	0	10000	2	1	0	2	0
44	577	0	10000	2	1	0	2	0
53	578	0	10000	2	1	0	2	0
55	579	0	10000	2	1	0	2	0
61	580	0	10000	2	1	0	2	0
87	581	0	10000	2	1	0	2	0
131	581	0	10000	2	1	0	2	0
149	582	0	10000	2	1	0	2	0
145	584	0	10000	2	1	0	2	0
160	585	0	10000	2	1	0	2	0
167	586	0	10000	2	1	0	2	0
174	587	0	10000	2	1	0	2	0
216	588	0	10000	2	1	0	2	0
241	589	0	10000	2	1	0	2	0
277	590	0	10000	2	1	0	2	0
321	591	0	10000	2	1	0	2	0
320	591	0	10000	2	1	0	2	0
373	592	0	10000	2	1	0	2	0
414	594	0	10000	2	1	0	2	0
428	595	0	10000	2	1	0	2	0
470	596	0	10000	2	1	0	2	0
505	597	0	10000	2	1	0	2	0
585	598	0	10000	2	1	0	2	0
613	599	0	10000	2	1	0	2	0
665	600	0	10000	2	1	0	2	0
672	601	0	10000	2	1	0	2	0
735	601	0	10000	2	1	0	2	0
731	602	0	10000	2	1	0	2	0
707	604	0	10000	2	1	0	2	0
682	605	0	10000	2	1	0	2	0
707	606	0	10000	2	1	0	2	0
769	607	0	10000	2	1	0	2	0
778	608	0	10000	2	1	0	2	0
853	609	0	10000	2	1	0	2	0
868	610	0	10000	2	1	0	2	0
840	611	0	10000	2	1	0	2	0
842	611	0	10000	2	1	0	2	0
841	612	0	10000	2	1	0	2	0
818	614	0	10000	2	1	0	2	0
784	615	0	10000	2	1	0	2	0
758	616	0	10000	2	1	0	2	0
748	617	0	10000	2	1	0	2	0
747	618	0	10000	2	1	0	2	0
750	619	0	10000	2	1	0	2	0
754	620	0	10000	2	1	0	2	0
760	621	0	10000	2	1	0	2	0
763	621	0	10000	2	1	0	2	0
765	622	0	10000	2	1	0	2	0
763	624	0	10000	2	1	0	2	0
761	625	0	10000	2	1	0	2	0
757	626	0	10000	2	1	0	2	0
753	627	0	10000	2	1	0	2	0
747	628	0	10000	2	1	0	2	0
738	629	0	10000	2	1	0	2	0
729	630	0	10000	2	1	0	2	0
716	631	0	10000	2	1	0	2	0
701	631	0	10000	2	1	0	2	0
681	632	0	10000	2	1	0	2	0
662	634	0	10000	2	1	0	2	0
642	635	0	10000	2	1	0	2	0
620	636	0	10000	2	1	0	2	0
598	637	0	10000	2	1	0	2	0
570	638	0	10000	2	1	0	2	0
544	639	0	10000	2	1	0	2	0
521	640	0	10000	2	1	0	2	0
506	641	0	10000	2	1	0	2	0
494	641	0	10000	2	1	0	2	0
488	642	0	10000	2	1	0	2	0
484	644	0	10000	2	1	0	2	0
481	645	0	10000	2	1	0	2	0
479	646	0	10000	2	1	0	2	0
480	647	0	10000	2	1	0	2	0
480	648	0	10000	2	1	0	2	0
482	649	0	10000	2	1	0	2	0
486	650	0	10000	2	1	0	2	0
488	651	0	10000	2	1	0	2	0
494	651	0	10000	2	1	0	2	0
505	652	0	10000	2	1	0	2	0
519	654	0	10000	2	1	0	2	0
529	655	0	10000	2	1	0	2	0
540	656	0	10000	2	1	0	2	0
550	657	0	10000	2	1	0	2	0
558	658	0	10000	2	1	0	2	0
566	659	0	10000	2	1	0	2	0
573	660	0	10000	2	1	0	2	0
584	661	0	10000	2	1	0	2	0
594	661	0	10000	2	1	0	2	0
605	662	0	10000	2	1	0	2	0
613	664	0	10000	2	1	0	2	0
616	665	0	10000	2	1	0	2	0
617	666	0	10000	2	1	0	2	0
615	667	0	10000	2	1	0	2	0
610	668	0	10000	2	1	0	2	0
604	669	0	10000	2	1	0	2	0
598	670	0	10000	2	1	0	2	0
589	671	0	10000	2	1	0	2	0
580	671	0	10000	2	1	0	2	0
574	672	0	10000	2	1	0	2	0
567	674	0	10000	2	1	0	2	0
558	675	0	10000	2	1	0	2	0
547	676	0	10000	2	1	0	2	0
534	677	0	10000	2	1	0	2	0
521	678	0	10000	2	1	0	2	0
504	679	0	10000	2	1	0	2	0
489	680	0	10000	2	1	0	2	0
477	681	0	10000	2	1	0	2	0
463	681	0	10000	2	1	0	2	0
449	682	0	10000	2	1	0	2	0
433	684	0	10000	2	1	0	2	0
416	685	0	10000	2	1	0	2	0
396	686	0	10000	2	1	0	2	0
379	687	0	10000	2	1	0	2	0
367	688	0	10000	2	1	0	2	0
356	689	0	10000	2	1	0	2	0
346	690	0	10000	2	1	0	2	0
333	691	0	10000	2	1	0	2	0
323	691	0	10000	2	1	0	2	0
312	692	0	10000	2	1	0	2	0
301	694	0	10000	2	1	0	2	0
294	695	0	10000	2	1	0	2	0
287	696	0	10000	2	1	0	2	0
282	697	0	10000	2	1	0	2	0
276	698	0	10000	2	1	0	2	0
272	699	0	10000	2	1	0	2	0
267	700	0	10000	2	1	0	2	0
263	701	0	10000	2	1	0	2	0
256	701	0	10000	2	1	0	2	0
247	702	0	10000	2	1	0	2	0
240	704	0	10000	2	1	0	2	0
233	705	0	10000	2	1	0	2	0
228	706	0	10000	2	1	0	2	0
225	707	0	10000	2	1	0	2	0
225	708	0	10000	2	1	0	2	0
226	709	0	10000	2	1	0	2	0
227	710	0	10000	2	1	0	2	0
223	711	0	10000	2	1	0	2	0
220	711	0	10000	2	1	0	2	0
213	712	0	10000	2	1	0	2	0
208	714	0	10000	2	1	0	2	0
205	715	0	10000	2	1	0	2	0
204	716	0	10000	2	1	0	2	0
202	717	0	10000	2	1	0	2	0
200	718	0	10000	2	1	0	2	0
198	719	0	10000	2	1	0	2	0
195	720	0	10000	2	1	0	2	0
193	721	0	10000	2	1	0	2	0
189	721	0	10000	2	1	0	2	0
182	722	0	10000	2	1	0	2	0
176	724	0	10000	2	1	0	2	0
171	725	0	10000	2	1	0	2	0
167	726	0	10000	2	1	0	2	0
163	727	0	10000	2	1	0	2	0
163	728	0	10000	2	1	0	2	0
162	729	0	10000	2	1	0	2	0
163	730	0	10000	2	1	0	2	0
160	731	0	10000	2	1	0	2	0
157	731	0	10000	2	1	0	2	0
153	732	0	10000	2	1	0	2	0
148	734	0	10000	2	1	0	2	0
146	735	0	10000	2	1	0	2	0
146	736	0	10000	2	1	0	2	0
144	737	0	10000	2	1	0	2	0
143	738	0	10000	2	1	0	2	0
141	739	0	10000	2	1	0	2	0
140	740	0	10000	2	1	0	2	0
138	741	0	10000	2	1	0	2	0
134	741	0	10000	2	1	0	2	0
128	742	0	10000	2	1	0	2	0
122	744	0	10000	2	1	0	2	0
117	745	0	10000	2	1	0	2	0
113	746	0	10000	2	1	0	2	0
112	747	0	10000	2	1	0	2	0
113	748	0	10000	2	1	0	2	0
113	749	0	10000	2	1	0	2	0
113	750	0	10000	2	1	0	2	0
111	751	0	10000	2	1	0	2	0
110	751	0	10000	2	1	0	2	0
107	752	0	10000	2	1	0	2	0
106	754	0	10000	2	1	0	2	0
105	755	0	10000	2	1	0	2	0
104	756	0	10000	2	1	0	2	0
103	757	0	10000	2	1	0	2	0
100	758	0	10000	2	1	0	2	0
97	759	0	10000	2	1	0	2	0
95	760	0	10000	2	1	0	2	0
96	761	0	10000	2	1	0	2	0
92	761	0	10000	2	1	0	2	0
89	762	0	10000	2	1	0	2	0
86	764	0	10000	2	1	0	2	0
82	765	0	10000	2	1	0	2	0
80	766	0	10000	2	1	0	2	0
79	767	0	10000	2	1	0	2	0
78	768	0	10000	2	1	0	2	0
79	769	0	10000	2	1	0	2	0
78	770	0	10000	2	1	0	2	0
76	771	0	10000	2	1	0	2	0
75	771	0	10000	2	1	0	2	0
72	772	0	10000	2	1	0	2	0
71	774	0	10000	2	1	0	2	0
70	775	0	10000	2	1	0	2	0
70	776	0	10000	2	1	0	2	0
72	777	0	10000	2	1	0	2	0
71	778	0	10000	2	1	0	2	0
71	779	0	10000	2	1	0	2	0
71	780	0	10000	2	1	0	2	0
72	781	0	10000	2	1	0	2	0
71	781	0	10000	2	1	0	2	0
69	782	0	10000	2	1	0	2	0
68	784	0	10000	2	1	0	2	0
68	785	0	10000	2	1	0	2	0
66	786	0	10000	2	1	0	2	0
64	787	0	10000	2	1	0	2	0
64	788	0	10000	2	1	0	2	0
64	789	0	10000	2	1	0	2	0
65	790	0	10000	2	1	0	2	0
65	791	0	10000	2	1	0	2	0
66	791	0	10000	2	1	0	2	0
64	792	0	10000	2	1	0	2	0
62	794	0	10000	2	1	0	2	0
60	795	0	10000	2	1	0	2	0
60	796	0	10000	2	1	0	2	0
59	797	0	10000	2	1	0	2	0
57	798	0	10000	2	1	0	2	0
55	799	0	10000	2	1	0	2	0
53	800	0	10000	2	1	0	2	0
54	801	0	10000	2	1	0	2	0
52	801	0	10000	2	1	0	2	0
52	802	0	10000	2	1	0	2	0
53	804	0	10000	2	1	0	2	0
54	805	0	10000	2	1	0	2	0
53	806	0	10000	2	1	0	2	0
51	807	0	10000	2	1	0	2	0
53	808	0	10000	2	1	0	2	0
54	809	0	10000	2	1	0	2	0
57	810	0	10000	2	1	0	2	0
58	811	0	10000	2	1	0	2	0
58	811	0	10000	2	1	0	2	0
56	812	0	10000	2	1	0	2	0
56	814	0	10000	2	1	0	2	0
55	815	0	10000	2	1	0	2	0
54	816	0	10000	2	1	0	2	0
52	817	0	10000	2	1	0	2	0
50	818	0	10000	2	1	0	2	0
48	819	0	10000	2	1	0	2	0
48	820	0	10000	2	1	0	2	0
48	821	0	10000	2	1	0	2	0
48	821	0	10000	2	1	0	2	0
48	822	0	10000	2	1	0	2	0
48	824	0	10000	2	1	0	2	0
51	825	0	10000	2	1	0	2	0
49	826	0	10000	2	1	0	2	0
47	827	0	10000	2	1	0	2	0
49	827	0	10000	2	1	0	2	0
52	828	0	10000	2	1	0	2	0
54	829	0	10000	2	1	0	2	0
53	830	0	10000	2	1	0	2	0
54	831	0	10000	2	1	0	2	0
52	832	0	10000	2	1	0	2	0
50	833	0	10000	2	1	0	2	0
49	834	0	10000	2	1	0	2	0
47	835	0	10000	2	1	0	2	0
46	836	0	10000	2	1	0	2	0
44	837	0	10000	2	1	0	2	0
43	838	0	10000	2	1	0	2	0
42	839	0	10000	2	1	0	2	0
43	840	0	10000	2	1	0	2	0
43	841	0	10000	2	1	0	2	0
43	842	0	10000	2	1	0	2	0
43	843	0	10000	2	1	0	2	0
44	844	0	10000	2	1	0	2	0
45	845	0	10000	2	1	0	2	0
44	846	0	10000	2	1	0	2	0
44	847	0	10000	2	1	0	2	0
46	848	0	10000	2	1	0	2	0
46	849	0	10000	2	1	0	2	0
44	850	0	10000	2	1	0	2	0
44	851	0	10000	2	1	0	2	0
42	852	0	10000	2	1	0	2	0
41	853	0	10000	2	1	0	2	0
41	854	0	10000	2	1	0	2	0
42	855	0	10000	2	1	0	2	0
41	856	0	10000	2	1	0	2	0
40	857	0	10000	2	1	0	2	0
39	858	0	10000	2	1	0	2	0
38	859	0	10000	2	1	0	2	0
39	860	0	10000	2	1	0	2	0
38	861	0	10000	2	1	0	2	0
39	862	0	10000	2	1	0	2	0
41	863	0	10000	2	1	0	2	0
43	864	0	10000	2	1	0	2	0
44	865	0	10000	2	1	0	2	0
43	866	0	10000	2	1	0	2	0
44	867	0	10000	2	1	0	2	0
46	868	0	10000	2	1	0	2	0
47	869	0	10000	2	1	0	2	0
46	870	0	10000	2	1	0	2	0
46	871	0	10000	2	1	0	2	0
45	872	0	10000	2	1	0	2	0
44	873	0	10000	2	1	0	2	0
42	874	0	10000	2	1	0	2	0
42	875	0	10000	2	1	0	2	0
42	876	0	10000	2	1	0	2	0
41	877	0	10000	2	1	0	2	0
39	878	0	10000	2	1	0	2	0
39	879	0	10000	2	1	0	2	0
40	880	0	10000	2	1	0	2	0
39	881	0	10000	2	1	0	2	0
38	882	0	10000	2	1	0	2	0
38	883	0	10000	2	1	0	2	0
39	884	0	10000	2	1	0	2	0
38	885	0	10000	2	1	0	2	0
36	886	0	10000	2	1	0	2	0
37	887	0	10000	2	1	0	2	0
36	888	0	10000	2	1	0	2	0
37	889	0	10000	2	1	0	2	0
34	890	0	10000	2	1	0	2	0
34	891	0	10000	2	1	0	2	0
35	892	0	10000	2	1	0	2	0
35	893	0	10000	2	1	0	2	0
34	894	0	10000	2	1	0	2	0
34	895	0	10000	2	1	0	2	0
33	896	0	10000	2	1	0	2	0
32	897	0	10000	2	1	0	2	0
30	898	0	10000	2	1	0	2	0
29	899	0	10000	2	1	0	2	0
31	900	0	10000	2	1	0	2	0
30	901	0	10000	2	1	0	2	0
31	902	0	10000	2	1	0	2	0
32	903	0	10000	2	1	0	2	0
32	904	0	10000	2	1	0	2	0
33	905	0	10000	2	1	0	2	0
32	906	0	10000	2	1	0	2	0
32	907	0	10000	2	1	0	2	0
32	908	0	10000	2	1	0	2	0
34	909	0	10000	2	1	0	2	0
33	910	0	10000	2	1	0	2	0
33	911	0	10000	2	1	0	2	0
33	912	0	10000	2	1	0	2	0
33	913	0	10000	2	1	0	2	0
32	914	0	10000	2	1	0	2	0
32	915	0	10000	2	1	0	2	0
32	916	0	10000	2	1	0	2	0
32	917	0	10000	2	1	0	2	0
32	918	0	10000	2	1	0	2	0
31	919	0	10000	2	1	0	2	0
32	920	0	10000	2	1	0	2	0
31	921	0	10000	2	1	0	2	0
30	922	0	10000	2	1	0	2	0
30	923	0	10000	2	1	0	2	0
30	924	0	10000	2	1	0	2	0
30	925	0	10000	2	1	0	2	0
30	926	0	10000	2	1	0	2	0
32	927	0	10000	2	1	0	2	0
34	928	0	10000	2	1	0	2	0
34	929	0	10000	2	1	0	2	0
32	930	0	10000	2	1	0	2	0
31	931	0	10000	2	1	0	2	0
32	932	0	10000	2	1	0	2	0
33	933	0	10000	2	1	0	2	0
34	934	0	10000	2	1	0	2	0
34	935	0	10000	2	1	0	2	0
33	936	0	10000	2	1	0	2	0
32	937	0	10000	2	1	0	2	0
30	938	0	10000	2	1	0	2	0
29	939	0	10000	2	1	0	2	0
30	940	0	10000	2	1	0	2	0
30	941	0	10000	2	1	0	2	0
30	942	0	10000	2	1	0	2	0
30	943	0	10000	2	1	0	2	0
31	944	0	10000	2	1	0	2	0
31	945	0	10000	2	1	0	2	0
31	946	0	10000	2	1	0	2	0
30	947	0	10000	2	1	0	2	0
30	948	0	10000	2	1	0	2	0
31	949	0	10000	2	1	0	2	0
31	950	0	10000	2	1	0	2	0
31	951	0	10000	2	1	0	2	0
31	952	0	10000	2	1	0	2	0
30	953	0	10000	2	1	0	2	0
30	954	0	10000	2	1	0	2	0
29	955	0	10000	2	1	0	2	0
28	956	0	10000	2	1	0	2	0
28	957	0	10000	2	1	0	2	0
29	958	0	10000	2	1	0	2	0
27	959	0	10000	2	1	0	2	0
29	960	0	10000	2	1	0	2	0
29	961	0	10000	2	1	0	2	0
27	962	0	10000	2	1	0	2	0
28	963	0	10000	2	1	0	2	0
31	964	0	10000	2	1	0	2	0
33	965	0	10000	2	1	0	2	0
32	966	0	10000	2	1	0	2	0
34	967	0	10000	2	1	0	2	0
34	968	0	10000	2	1	0	2	0
34	969	0	10000	2	1	0	2	0
32	970	0	10000	2	1	0	2	0
32	971	0	10000	2	1	0	2	0
32	972	0	10000	2	1	0	2	0
32	973	0	10000	2	1	0	2	0
32	974	0	10000	2	1	0	2	0
31	975	0	10000	2	1	0	2	0
30	976	0	10000	2	1	0	2	0
30	977	0	10000	2	1	0	2	0
29	978	0	10000	2	1	0	2	0
27	979	0	10000	2	1	0	2	0
29	980	0	10000	2	1	0	2	0
29	981	0	10000	2	1	0	2	0
30	982	0	10000	2	1	0	2	0
30	983	0	10000	2	1	0	2	0
30	984	0	10000	2	1	0	2	0
30	985	0	10000	2	1	0	2	0
29	986	0	10000	2	1	0	2	0
30	987	0	10000	2	1	0	2	0
31	988	0	10000	2	1	0	2	0
31	989	0	10000	2	1	0	2	0
28	990	0	10000	2	1	0	2	0
27	991	0	10000	2	1	0	2	0
27	992	0	10000	2	1	0	2	0
26	993	0	10000	2	1	0	2	0
26	994	0	10000	2	1	0	2	0
26	995	0	10000	2	1	0	2	0
25	996	0	10000	2	1	0	2	0
24	997	0	10000	2	1	0	2	0
23	998	0	10000	2	1	0	2	0
24	999	0	10000	2	1	0	2	0
26	1000	0	10000	2	1	0	2	0
32	1	0	10000	3	1	0	3	0
31	2	0	10000	3	1	0	3	0
30	3	0	10000	3	1	0	3	0
28	4	0	10000	3	1	0	3	0
29	5	0	10000	3	1	0	3	0
30	6	0	10000	3	1	0	3	0
30	7	0	10000	3	1	0	3	0
29	8	0	10000	3	1	0	3	0
29	9	0	10000	3	1	0	3	0
29	10	0	10000	3	1	0	3	0
29	11	0	10000	3	1	0	3	0
29	12	0	10000	3	1	0	3	0
30	13	0	10000	3	1	0	3	0
32	14	0	10000	3	1	0	3	0
30	15	0	10000	3	1	0	3	0
30	16	0	10000	3	1	0	3	0
31	17	0	10000	3	1	0	3	0
31	18	0	10000	3	1	0	3	0
31	19	0	10000	3	1	0	3	0
30	20	0	10000	3	1	0	3	0
31	21	0	10000	3	1	0	3	0
31	22	0	10000	3	1	0	3	0
30	23	0	10000	3	1	0	3	0
29	24	0	10000	3	1	0	3	0
29	25	0	10000	3	1	0	3	0
29	26	0	10000	3	1	0	3	0
30	27	0	10000	3	1	0	3	0
30	28	0	10000	3	1	0	3	0
29	29	0	10000	3	1	0	3	0
29	30	0	10000	3	1	0	3	0
27	31	0	10000	3	1	0	3	0
27	32	0	10000	3	1	0	3	0
26	33	0	10000	3	1	0	3	0
28	34	0	10000	3	1	0	3	0
26	35	0	10000	3	1	0	3	0
25	36	0	10000	3	1	0	3	0
24	37	0	10000	3	1	0	3	0
24	38	0	10000	3	1	0	3	0
23	39	0	10000	3	1	0	3	0
24	40	0	10000	3	1	0	3	0
25	41	0	10000	3	1	0	3	0
25	42	0	10000	3	1	0	3	0
23	43	0	10000	3	1	0	3	0
22	44	0	10000	3	1	0	3	0
25	45	0	10000	3	1	0	3	0
26	46	0	10000	3	1	0	3	0
28	47	0	10000	3	1	0	3	0
27	48	0	10000	3	1	0	3	0
27	49	0	10000	3	1	0	3	0
27	50	0	10000	3	1	0	3	0
26	51	0	10000	3	1	0	3	0
26	52	0	10000	3	1	0	3	0
27	53	0	10000	3	1	0	3	0
28	54	0	10000	3	1	0	3	0
27	55	0	10000	3	1	0	3	0
28	56	0	10000	3	1	0	3	0
28	57	0	10000	3	1	0	3	0
30	58	0	10000	3	1	0	3	0
29	59	0	10000	3	1	0	3	0
28	60	0	10000	3	1	0	3	0
30	61	0	10000	3	1	0	3	0
32	62	0	10000	3	1	0	3	0
31	63	0	10000	3	1	0	3	0
29	64	0	10000	3	1	0	3	0
31	65	0	10000	3	1	0	3	0
32	66	0	10000	3	1	0	3	0
33	67	0	10000	3	1	0	3	0
33	68	0	10000	3	1	0	3	0
33	69	0	10000	3	1	0	3	0
34	70	0	10000	3	1	0	3	0
35	71	0	10000	3	1	0	3	0
36	72	0	10000	3	1	0	3	0
38	73	0	10000	3	1	0	3	0
39	74	0	10000	3	1	0	3	0
38	75	0	10000	3	1	0	3	0
36	76	0	10000	3	1	0	3	0
38	77	0	10000	3	1	0	3	0
39	78	0	10000	3	1	0	3	0
38	79	0	10000	3	1	0	3	0
38	80	0	10000	3	1	0	3	0
39	81	0	10000	3	1	0	3	0
38	82	0	10000	3	1	0	3	0
36	83	0	10000	3	1	0	3	0
34	84	0	10000	3	1	0	3	0
37	85	0	10000	3	1	0	3	0
37	86	0	10000	3	1	0	3	0
36	87	0	10000	3	1	0	3	0
36	88	0	10000	3	1	0	3	0
34	89	0	10000	3	1	0	3	0
35	90	0	10000	3	1	0	3	0
34	91	0	10000	3	1	0	3	0
33	92	0	10000	3	1	0	3	0
32	93	0	10000	3	1	0	3	0
34	94	0	10000	3	1	0	3	0
36	95	0	10000	3	1	0	3	0
37	96	0	10000	3	1	0	3	0
37	97	0	10000	3	1	0	3	0
38	98	0	10000	3	1	0	3	0
36	99	0	10000	3	1	0	3	0
35	100	0	10000	3	1	0	3	0
35	101	0	10000	3	1	0	3	0
35	102	0	10000	3	1	0	3	0
33	103	0	10000	3	1	0	3	0
31	104	0	10000	3	1	0	3	0
35	105	0	10000	3	1	0	3	0
36	106	0	10000	3	1	0	3	0
36	107	0	10000	3	1	0	3	0
35	108	0	10000	3	1	0	3	0
34	109	0	10000	3	1	0	3	0
34	110	0	10000	3	1	0	3	0
33	111	0	10000	3	1	0	3	0
32	112	0	10000	3	1	0	3	0
31	113	0	10000	3	1	0	3	0
32	114	0	10000	3	1	0	3	0
31	115	0	10000	3	1	0	3	0
30	116	0	10000	3	1	0	3	0
29	117	0	10000	3	1	0	3	0
29	118	0	10000	3	1	0	3	0
28	119	0	10000	3	1	0	3	0
28	120	0	10000	3	1	0	3	0
31	121	0	10000	3	1	0	3	0
32	122	0	10000	3	1	0	3	0
30	123	0	10000	3	1	0	3	0
30	124	0	10000	3	1	0	3	0
30	125	0	10000	3	1	0	3	0
31	126	0	10000	3	1	0	3	0
32	127	0	10000	3	1	0	3	0
31	128	0	10000	3	1	0	3	0
32	129	0	10000	3	1	0	3	0
31	130	0	10000	3	1	0	3	0
30	131	0	10000	3	1	0	3	0
31	132	0	10000	3	1	0	3	0
31	133	0	10000	3	1	0	3	0
32	134	0	10000	3	1	0	3	0
31	135	0	10000	3	1	0	3	0
30	136	0	10000	3	1	0	3	0
29	137	0	10000	3	1	0	3	0
29	138	0	10000	3	1	0	3	0
29	139	0	10000	3	1	0	3	0
28	140	0	10000	3	1	0	3	0
29	141	0	10000	3	1	0	3	0
28	142	0	10000	3	1	0	3	0
27	143	0	10000	3	1	0	3	0
25	144	0	10000	3	1	0	3	0
27	145	0	10000	3	1	0	3	0
28	146	0	10000	3	1	0	3	0
28	147	0	10000	3	1	0	3	0
27	148	0	10000	3	1	0	3	0
27	149	0	10000	3	1	0	3	0
26	150	0	10000	3	1	0	3	0
25	151	0	10000	3	1	0	3	0
26	152	0	10000	3	1	0	3	0
27	153	0	10000	3	1	0	3	0
29	154	0	10000	3	1	0	3	0
29	155	0	10000	3	1	0	3	0
30	156	0	10000	3	1	0	3	0
30	157	0	10000	3	1	0	3	0
31	158	0	10000	3	1	0	3	0
29	159	0	10000	3	1	0	3	0
30	160	0	10000	3	1	0	3	0
33	161	0	10000	3	1	0	3	0
34	162	0	10000	3	1	0	3	0
35	163	0	10000	3	1	0	3	0
32	164	0	10000	3	1	0	3	0
32	165	0	10000	3	1	0	3	0
34	166	0	10000	3	1	0	3	0
34	167	0	10000	3	1	0	3	0
33	168	0	10000	3	1	0	3	0
32	169	0	10000	3	1	0	3	0
32	170	0	10000	3	1	0	3	0
31	171	0	10000	3	1	0	3	0
31	172	0	10000	3	1	0	3	0
32	173	0	10000	3	1	0	3	0
32	174	0	10000	3	1	0	3	0
32	175	0	10000	3	1	0	3	0
32	176	0	10000	3	1	0	3	0
33	177	0	10000	3	1	0	3	0
34	178	0	10000	3	1	0	3	0
34	179	0	10000	3	1	0	3	0
34	180	0	10000	3	1	0	3	0
33	181	0	10000	3	1	0	3	0
33	182	0	10000	3	1	0	3	0
32	183	0	10000	3	1	0	3	0
30	184	0	10000	3	1	0	3	0
30	185	0	10000	3	1	0	3	0
32	186	0	10000	3	1	0	3	0
32	187	0	10000	3	1	0	3	0
30	188	0	10000	3	1	0	3	0
30	189	0	10000	3	1	0	3	0
29	190	0	10000	3	1	0	3	0
28	191	0	10000	3	1	0	3	0
27	192	0	10000	3	1	0	3	0
28	193	0	10000	3	1	0	3	0
29	194	0	10000	3	1	0	3	0
28	195	0	10000	3	1	0	3	0
27	196	0	10000	3	1	0	3	0
27	197	0	10000	3	1	0	3	0
28	198	0	10000	3	1	0	3	0
26	199	0	10000	3	1	0	3	0
27	200	0	10000	3	1	0	3	0
29	201	0	10000	3	1	0	3	0
30	202	0	10000	3	1	0	3	0
31	203	0	10000	3	1	0	3	0
31	204	0	10000	3	1	0	3	0
30	205	0	10000	3	1	0	3	0
30	206	0	10000	3	1	0	3	0
29	207	0	10000	3	1	0	3	0
28	208	0	10000	3	1	0	3	0
28	209	0	10000	3	1	0	3	0
27	210	0	10000	3	1	0	3	0
27	211	0	10000	3	1	0	3	0
28	212	0	10000	3	1	0	3	0
29	213	0	10000	3	1	0	3	0
30	214	0	10000	3	1	0	3	0
29	215	0	10000	3	1	0	3	0
28	216	0	10000	3	1	0	3	0
28	217	0	10000	3	1	0	3	0
27	218	0	10000	3	1	0	3	0
27	219	0	10000	3	1	0	3	0
26	220	0	10000	3	1	0	3	0
27	221	0	10000	3	1	0	3	0
27	222	0	10000	3	1	0	3	0
26	223	0	10000	3	1	0	3	0
23	224	0	10000	3	1	0	3	0
23	225	0	10000	3	1	0	3	0
23	226	0	10000	3	1	0	3	0
23	227	0	10000	3	1	0	3	0
24	228	0	10000	3	1	0	3	0
25	229	0	10000	3	1	0	3	0
26	230	0	10000	3	1	0	3	0
27	231	0	10000	3	1	0	3	0
26	232	0	10000	3	1	0	3	0
26	233	0	10000	3	1	0	3	0
27	234	0	10000	3	1	0	3	0
27	235	0	10000	3	1	0	3	0
28	236	0	10000	3	1	0	3	0
29	237	0	10000	3	1	0	3	0
29	238	0	10000	3	1	0	3	0
28	239	0	10000	3	1	0	3	0
29	240	0	10000	3	1	0	3	0
29	241	0	10000	3	1	0	3	0
29	242	0	10000	3	1	0	3	0
28	243	0	10000	3	1	0	3	0
25	244	0	10000	3	1	0	3	0
29	245	0	10000	3	1	0	3	0
31	246	0	10000	3	1	0	3	0
32	247	0	10000	3	1	0	3	0
33	248	0	10000	3	1	0	3	0
32	249	0	10000	3	1	0	3	0
31	250	0	10000	3	1	0	3	0
32	251	0	10000	3	1	0	3	0
32	252	0	10000	3	1	0	3	0
32	253	0	10000	3	1	0	3	0
33	254	0	10000	3	1	0	3	0
33	255	0	10000	3	1	0	3	0
34	256	0	10000	3	1	0	3	0
36	257	0	10000	3	1	0	3	0
39	258	0	10000	3	1	0	3	0
38	259	0	10000	3	1	0	3	0
38	260	0	10000	3	1	0	3	0
38	261	0	10000	3	1	0	3	0
39	262	0	10000	3	1	0	3	0
39	263	0	10000	3	1	0	3	0
36	264	0	10000	3	1	0	3	0
37	265	0	10000	3	1	0	3	0
39	266	0	10000	3	1	0	3	0
40	267	0	10000	3	1	0	3	0
39	268	0	10000	3	1	0	3	0
38	269	0	10000	3	1	0	3	0
37	270	0	10000	3	1	0	3	0
37	271	0	10000	3	1	0	3	0
36	272	0	10000	3	1	0	3	0
38	273	0	10000	3	1	0	3	0
41	274	0	10000	3	1	0	3	0
39	275	0	10000	3	1	0	3	0
39	276	0	10000	3	1	0	3	0
37	277	0	10000	3	1	0	3	0
36	278	0	10000	3	1	0	3	0
36	279	0	10000	3	1	0	3	0
35	280	0	10000	3	1	0	3	0
37	281	0	10000	3	1	0	3	0
36	282	0	10000	3	1	0	3	0
35	283	0	10000	3	1	0	3	0
34	284	0	10000	3	1	0	3	0
34	285	0	10000	3	1	0	3	0
35	286	0	10000	3	1	0	3	0
35	287	0	10000	3	1	0	3	0
34	288	0	10000	3	1	0	3	0
33	289	0	10000	3	1	0	3	0
32	290	0	10000	3	1	0	3	0
32	291	0	10000	3	1	0	3	0
31	292	0	10000	3	1	0	3	0
32	293	0	10000	3	1	0	3	0
32	294	0	10000	3	1	0	3	0
32	295	0	10000	3	1	0	3	0
33	296	0	10000	3	1	0	3	0
33	297	0	10000	3	1	0	3	0
33	298	0	10000	3	1	0	3	0
33	299	0	10000	3	1	0	3	0
32	300	0	10000	3	1	0	3	0
32	301	0	10000	3	1	0	3	0
31	302	0	10000	3	1	0	3	0
31	303	0	10000	3	1	0	3	0
28	304	0	10000	3	1	0	3	0
31	305	0	10000	3	1	0	3	0
32	306	0	10000	3	1	0	3	0
34	307	0	10000	3	1	0	3	0
33	308	0	10000	3	1	0	3	0
32	309	0	10000	3	1	0	3	0
32	310	0	10000	3	1	0	3	0
31	311	0	10000	3	1	0	3	0
30	312	0	10000	3	1	0	3	0
30	313	0	10000	3	1	0	3	0
31	314	0	10000	3	1	0	3	0
29	315	0	10000	3	1	0	3	0
28	316	0	10000	3	1	0	3	0
29	317	0	10000	3	1	0	3	0
30	318	0	10000	3	1	0	3	0
30	319	0	10000	3	1	0	3	0
31	320	0	10000	3	1	0	3	0
30	321	0	10000	3	1	0	3	0
30	322	0	10000	3	1	0	3	0
28	323	0	10000	3	1	0	3	0
27	324	0	10000	3	1	0	3	0
28	325	0	10000	3	1	0	3	0
29	326	0	10000	3	1	0	3	0
30	327	0	10000	3	1	0	3	0
29	328	0	10000	3	1	0	3	0
28	329	0	10000	3	1	0	3	0
28	330	0	10000	3	1	0	3	0
27	331	0	10000	3	1	0	3	0
27	332	0	10000	3	1	0	3	0
28	333	0	10000	3	1	0	3	0
29	334	0	10000	3	1	0	3	0
28	335	0	10000	3	1	0	3	0
29	336	0	10000	3	1	0	3	0
29	337	0	10000	3	1	0	3	0
29	338	0	10000	3	1	0	3	0
29	339	0	10000	3	1	0	3	0
31	340	0	10000	3	1	0	3	0
33	341	0	10000	3	1	0	3	0
33	342	0	10000	3	1	0	3	0
32	343	0	10000	3	1	0	3	0
31	344	0	10000	3	1	0	3	0
31	345	0	10000	3	1	0	3	0
32	346	0	10000	3	1	0	3	0
32	347	0	10000	3	1	0	3	0
32	348	0	10000	3	1	0	3	0
32	349	0	10000	3	1	0	3	0
32	350	0	10000	3	1	0	3	0
34	351	0	10000	3	1	0	3	0
34	352	0	10000	3	1	0	3	0
36	353	0	10000	3	1	0	3	0
37	354	0	10000	3	1	0	3	0
36	355	0	10000	3	1	0	3	0
36	356	0	10000	3	1	0	3	0
34	357	0	10000	3	1	0	3	0
34	358	0	10000	3	1	0	3	0
34	359	0	10000	3	1	0	3	0
36	360	0	10000	3	1	0	3	0
39	361	0	10000	3	1	0	3	0
39	362	0	10000	3	1	0	3	0
37	363	0	10000	3	1	0	3	0
35	364	0	10000	3	1	0	3	0
35	365	0	10000	3	1	0	3	0
35	366	0	10000	3	1	0	3	0
35	367	0	10000	3	1	0	3	0
34	368	0	10000	3	1	0	3	0
33	369	0	10000	3	1	0	3	0
33	370	0	10000	3	1	0	3	0
32	371	0	10000	3	1	0	3	0
31	372	0	10000	3	1	0	3	0
33	373	0	10000	3	1	0	3	0
33	374	0	10000	3	1	0	3	0
32	375	0	10000	3	1	0	3	0
33	376	0	10000	3	1	0	3	0
33	377	0	10000	3	1	0	3	0
32	378	0	10000	3	1	0	3	0
32	379	0	10000	3	1	0	3	0
31	380	0	10000	3	1	0	3	0
31	381	0	10000	3	1	0	3	0
31	382	0	10000	3	1	0	3	0
31	383	0	10000	3	1	0	3	0
32	384	0	10000	3	1	0	3	0
32	385	0	10000	3	1	0	3	0
32	386	0	10000	3	1	0	3	0
32	387	0	10000	3	1	0	3	0
31	388	0	10000	3	1	0	3	0
31	389	0	10000	3	1	0	3	0
30	390	0	10000	3	1	0	3	0
28	391	0	10000	3	1	0	3	0
29	392	0	10000	3	1	0	3	0
29	393	0	10000	3	1	0	3	0
30	394	0	10000	3	1	0	3	0
30	395	0	10000	3	1	0	3	0
31	396	0	10000	3	1	0	3	0
31	397	0	10000	3	1	0	3	0
31	398	0	10000	3	1	0	3	0
30	399	0	10000	3	1	0	3	0
30	400	0	10000	3	1	0	3	0
31	401	0	10000	3	1	0	3	0
30	402	0	10000	3	1	0	3	0
29	403	0	10000	3	1	0	3	0
27	404	0	10000	3	1	0	3	0
29	405	0	10000	3	1	0	3	0
30	406	0	10000	3	1	0	3	0
30	407	0	10000	3	1	0	3	0
29	408	0	10000	3	1	0	3	0
30	409	0	10000	3	1	0	3	0
29	410	0	10000	3	1	0	3	0
27	411	0	10000	3	1	0	3	0
27	412	0	10000	3	1	0	3	0
28	413	0	10000	3	1	0	3	0
28	414	0	10000	3	1	0	3	0
28	415	0	10000	3	1	0	3	0
30	416	0	10000	3	1	0	3	0
29	417	0	10000	3	1	0	3	0
29	418	0	10000	3	1	0	3	0
28	419	0	10000	3	1	0	3	0
29	420	0	10000	3	1	0	3	0
30	421	0	10000	3	1	0	3	0
30	422	0	10000	3	1	0	3	0
29	423	0	10000	3	1	0	3	0
27	424	0	10000	3	1	0	3	0
29	425	0	10000	3	1	0	3	0
32	426	0	10000	3	1	0	3	0
33	427	0	10000	3	1	0	3	0
32	428	0	10000	3	1	0	3	0
32	429	0	10000	3	1	0	3	0
31	430	0	10000	3	1	0	3	0
30	431	0	10000	3	1	0	3	0
32	432	0	10000	3	1	0	3	0
34	433	0	10000	3	1	0	3	0
34	434	0	10000	3	1	0	3	0
33	435	0	10000	3	1	0	3	0
33	436	0	10000	3	1	0	3	0
33	437	0	10000	3	1	0	3	0
32	438	0	10000	3	1	0	3	0
31	439	0	10000	3	1	0	3	0
32	440	0	10000	3	1	0	3	0
32	441	0	10000	3	1	0	3	0
32	442	0	10000	3	1	0	3	0
31	443	0	10000	3	1	0	3	0
29	444	0	10000	3	1	0	3	0
31	445	0	10000	3	1	0	3	0
32	446	0	10000	3	1	0	3	0
31	447	0	10000	3	1	0	3	0
30	448	0	10000	3	1	0	3	0
31	449	0	10000	3	1	0	3	0
31	450	0	10000	3	1	0	3	0
31	451	0	10000	3	1	0	3	0
31	452	0	10000	3	1	0	3	0
32	453	0	10000	3	1	0	3	0
33	454	0	10000	3	1	0	3	0
32	455	0	10000	3	1	0	3	0
31	456	0	10000	3	1	0	3	0
30	457	0	10000	3	1	0	3	0
29	458	0	10000	3	1	0	3	0
28	459	0	10000	3	1	0	3	0
29	460	0	10000	3	1	0	3	0
29	461	0	10000	3	1	0	3	0
29	462	0	10000	3	1	0	3	0
29	463	0	10000	3	1	0	3	0
28	464	0	10000	3	1	0	3	0
28	465	0	10000	3	1	0	3	0
29	466	0	10000	3	1	0	3	0
30	467	0	10000	3	1	0	3	0
29	468	0	10000	3	1	0	3	0
28	469	0	10000	3	1	0	3	0
28	470	0	10000	3	1	0	3	0
27	471	0	10000	3	1	0	3	0
26	472	0	10000	3	1	0	3	0
27	473	0	10000	3	1	0	3	0
29	474	0	10000	3	1	0	3	0
29	475	0	10000	3	1	0	3	0
30	476	0	10000	3	1	0	3	0
31	477	0	10000	3	1	0	3	0
33	478	0	10000	3	1	0	3	0
32	479	0	10000	3	1	0	3	0
31	480	0	10000	3	1	0	3	0
32	481	0	10000	3	1	0	3	0
31	482	0	10000	3	1	0	3	0
30	483	0	10000	3	1	0	3	0
29	484	0	10000	3	1	0	3	0
31	485	0	10000	3	1	0	3	0
32	486	0	10000	3	1	0	3	0
32	487	0	10000	3	1	0	3	0
30	488	0	10000	3	1	0	3	0
30	489	0	10000	3	1	0	3	0
29	490	0	10000	3	1	0	3	0
29	491	0	10000	3	1	0	3	0
28	492	0	10000	3	1	0	3	0
28	493	0	10000	3	1	0	3	0
29	494	0	10000	3	1	0	3	0
29	495	0	10000	3	1	0	3	0
30	496	0	10000	3	1	0	3	0
30	497	0	10000	3	1	0	3	0
30	498	0	10000	3	1	0	3	0
30	499	0	10000	3	1	0	3	0
30	500	0	10000	3	1	0	3	0
30	501	0	10000	3	1	0	3	1
30	502	0	10000	3	1	0	3	1
29	503	0	10000	3	1	0	3	1
28	504	0	10000	3	1	0	3	1
29	505	0	10000	3	1	0	3	1
30	506	0	10000	3	1	0	3	1
30	507	0	10000	3	1	0	3	1
31	508	0	10000	3	1	0	3	1
30	509	0	10000	3	1	0	3	1
29	510	0	10000	3	1	0	3	1
28	511	0	10000	3	1	0	3	1
27	512	0	10000	3	1	0	3	1
27	513	0	10000	3	1	0	3	1
28	514	0	10000	3	1	0	3	1
27	515	0	10000	3	1	0	3	1
27	516	0	10000	3	1	0	3	1
28	517	0	10000	3	1	0	3	1
28	518	0	10000	3	1	0	3	1
27	519	0	10000	3	1	0	3	1
27	520	0	10000	3	1	0	3	1
27	521	0	10000	3	1	0	3	1
28	522	0	10000	3	1	0	3	1
27	523	0	10000	3	1	0	3	1
27	524	0	10000	3	1	0	3	1
28	525	0	10000	3	1	0	3	1
27	526	0	10000	3	1	0	3	1
27	527	0	10000	3	1	0	3	1
27	528	0	10000	3	1	0	3	1
26	529	0	10000	3	1	0	3	1
26	530	0	10000	3	1	0	3	1
25	531	0	10000	3	1	0	3	1
25	532	0	10000	3	1	0	3	1
25	533	0	10000	3	1	0	3	1
26	534	0	10000	3	1	0	3	1
26	535	0	10000	3	1	0	3	1
26	536	0	10000	3	1	0	3	1
26	537	0	10000	3	1	0	3	1
26	538	0	10000	3	1	0	3	1
25	539	0	10000	3	1	0	3	1
25	540	0	10000	3	1	0	3	1
26	541	0	10000	3	1	0	3	1
27	542	0	10000	3	1	0	3	1
25	543	0	10000	3	1	0	3	1
23	544	0	10000	3	1	0	3	1
23	545	0	10000	3	1	0	3	1
24	546	0	10000	3	1	0	3	1
23	547	0	10000	3	1	0	3	1
22	548	0	10000	3	1	0	3	1
23	549	0	10000	3	1	0	3	1
22	550	0	10000	3	1	0	3	1
22	551	0	10000	3	1	0	3	0
23	552	0	10000	3	1	0	3	0
26	553	0	10000	3	1	0	3	0
27	554	0	10000	3	1	0	3	0
26	555	0	10000	3	1	0	3	0
26	556	0	10000	3	1	0	3	0
24	557	0	10000	3	1	0	3	0
24	558	0	10000	3	1	0	3	0
23	559	0	10000	3	1	0	3	0
23	560	0	10000	3	1	0	3	0
24	561	0	10000	3	1	0	3	0
24	562	0	10000	3	1	0	3	0
23	563	0	10000	3	1	0	3	0
21	564	0	10000	3	1	0	3	0
24	565	0	10000	3	1	0	3	0
27	566	0	10000	3	1	0	3	0
28	567	0	10000	3	1	0	3	0
27	568	0	10000	3	1	0	3	0
26	569	0	10000	3	1	0	3	0
25	570	0	10000	3	1	0	3	0
25	571	0	10000	3	1	0	3	0
25	572	0	10000	3	1	0	3	0
26	573	0	10000	3	1	0	3	0
28	574	0	10000	3	1	0	3	0
29	575	0	10000	3	1	0	3	0
34	576	0	10000	3	1	0	3	0
34	577	0	10000	3	1	0	3	0
34	578	0	10000	3	1	0	3	0
45	579	0	10000	3	1	0	3	0
59	580	0	10000	3	1	0	3	0
134	581	0	10000	3	1	0	3	0
189	582	0	10000	3	1	0	3	0
241	583	0	10000	3	1	0	3	0
299	584	0	10000	3	1	0	3	0
317	585	0	10000	3	1	0	3	0
437	586	0	10000	3	1	0	3	0
514	587	0	10000	3	1	0	3	0
552	588	0	10000	3	1	0	3	0
697	589	0	10000	3	1	0	3	0
723	590	0	10000	3	1	0	3	0
757	591	0	10000	3	1	0	3	0
732	592	0	10000	3	1	0	3	0
710	593	0	10000	3	1	0	3	0
716	594	0	10000	3	1	0	3	0
723	595	0	10000	3	1	0	3	0
753	596	0	10000	3	1	0	3	0
875	597	0	10000	3	1	0	3	0
964	598	0	10000	3	1	0	3	0
1196	599	0	10000	3	1	0	3	0
1202	600	0	10000	3	1	0	3	0
1220	601	0	10000	3	1	0	3	0
1222	602	0	10000	3	1	0	3	0
1254	603	0	10000	3	1	0	3	0
1260	604	0	10000	3	1	0	3	0
1342	605	0	10000	3	1	0	3	0
1319	606	0	10000	3	1	0	3	0
1316	607	0	10000	3	1	0	3	0
1265	608	0	10000	3	1	0	3	0
1239	609	0	10000	3	1	0	3	0
1220	610	0	10000	3	1	0	3	0
1174	611	0	10000	3	1	0	3	0
1135	612	0	10000	3	1	0	3	0
1114	613	0	10000	3	1	0	3	0
1101	614	0	10000	3	1	0	3	0
1090	615	0	10000	3	1	0	3	0
1084	616	0	10000	3	1	0	3	0
1089	617	0	10000	3	1	0	3	0
1084	618	0	10000	3	1	0	3	0
1067	619	0	10000	3	1	0	3	0
1049	620	0	10000	3	1	0	3	0
1035	621	0	10000	3	1	0	3	0
1018	622	0	10000	3	1	0	3	0
1001	623	0	10000	3	1	0	3	0
987	624	0	10000	3	1	0	3	0
971	625	0	10000	3	1	0	3	0
956	626	0	10000	3	1	0	3	0
940	627	0	10000	3	1	0	3	0
924	628	0	10000	3	1	0	3	0
908	629	0	10000	3	1	0	3	0
890	630	0	10000	3	1	0	3	0
873	631	0	10000	3	1	0	3	0
851	632	0	10000	3	1	0	3	0
829	633	0	10000	3	1	0	3	0
802	634	0	10000	3	1	0	3	0
771	635	0	10000	3	1	0	3	0
739	636	0	10000	3	1	0	3	0
705	637	0	10000	3	1	0	3	0
676	638	0	10000	3	1	0	3	0
651	639	0	10000	3	1	0	3	0
628	640	0	10000	3	1	0	3	0
611	641	0	10000	3	1	0	3	0
596	642	0	10000	3	1	0	3	0
582	643	0	10000	3	1	0	3	0
573	644	0	10000	3	1	0	3	0
570	645	0	10000	3	1	0	3	0
568	646	0	10000	3	1	0	3	0
568	647	0	10000	3	1	0	3	0
566	648	0	10000	3	1	0	3	0
566	649	0	10000	3	1	0	3	0
568	650	0	10000	3	1	0	3	0
570	651	0	10000	3	1	0	3	0
574	652	0	10000	3	1	0	3	0
581	653	0	10000	3	1	0	3	0
593	654	0	10000	3	1	0	3	0
606	655	0	10000	3	1	0	3	0
618	656	0	10000	3	1	0	3	0
629	657	0	10000	3	1	0	3	0
643	658	0	10000	3	1	0	3	0
654	659	0	10000	3	1	0	3	0
666	660	0	10000	3	1	0	3	0
677	661	0	10000	3	1	0	3	0
687	662	0	10000	3	1	0	3	0
694	663	0	10000	3	1	0	3	0
701	664	0	10000	3	1	0	3	0
709	665	0	10000	3	1	0	3	0
716	666	0	10000	3	1	0	3	0
720	667	0	10000	3	1	0	3	0
722	668	0	10000	3	1	0	3	0
720	669	0	10000	3	1	0	3	0
716	670	0	10000	3	1	0	3	0
711	671	0	10000	3	1	0	3	0
704	672	0	10000	3	1	0	3	0
698	673	0	10000	3	1	0	3	0
694	674	0	10000	3	1	0	3	0
691	675	0	10000	3	1	0	3	0
688	676	0	10000	3	1	0	3	0
684	677	0	10000	3	1	0	3	0
679	678	0	10000	3	1	0	3	0
672	679	0	10000	3	1	0	3	0
661	680	0	10000	3	1	0	3	0
646	681	0	10000	3	1	0	3	0
630	682	0	10000	3	1	0	3	0
611	683	0	10000	3	1	0	3	0
592	684	0	10000	3	1	0	3	0
575	685	0	10000	3	1	0	3	0
557	686	0	10000	3	1	0	3	0
534	687	0	10000	3	1	0	3	0
510	688	0	10000	3	1	0	3	0
489	689	0	10000	3	1	0	3	0
467	690	0	10000	3	1	0	3	0
448	691	0	10000	3	1	0	3	0
433	692	0	10000	3	1	0	3	0
420	693	0	10000	3	1	0	3	0
406	694	0	10000	3	1	0	3	0
391	695	0	10000	3	1	0	3	0
375	696	0	10000	3	1	0	3	0
358	697	0	10000	3	1	0	3	0
343	698	0	10000	3	1	0	3	0
331	699	0	10000	3	1	0	3	0
321	700	0	10000	3	1	0	3	0
313	701	0	10000	3	1	0	3	0
305	702	0	10000	3	1	0	3	0
298	703	0	10000	3	1	0	3	0
292	704	0	10000	3	1	0	3	0
286	705	0	10000	3	1	0	3	0
281	706	0	10000	3	1	0	3	0
277	707	0	10000	3	1	0	3	0
274	708	0	10000	3	1	0	3	0
275	709	0	10000	3	1	0	3	0
278	710	0	10000	3	1	0	3	0
279	711	0	10000	3	1	0	3	0
282	712	0	10000	3	1	0	3	0
284	713	0	10000	3	1	0	3	0
285	714	0	10000	3	1	0	3	0
282	715	0	10000	3	1	0	3	0
276	716	0	10000	3	1	0	3	0
268	717	0	10000	3	1	0	3	0
261	718	0	10000	3	1	0	3	0
255	719	0	10000	3	1	0	3	0
251	720	0	10000	3	1	0	3	0
248	721	0	10000	3	1	0	3	0
243	722	0	10000	3	1	0	3	0
239	723	0	10000	3	1	0	3	0
237	724	0	10000	3	1	0	3	0
233	725	0	10000	3	1	0	3	0
230	726	0	10000	3	1	0	3	0
229	727	0	10000	3	1	0	3	0
227	728	0	10000	3	1	0	3	0
229	729	0	10000	3	1	0	3	0
231	730	0	10000	3	1	0	3	0
232	731	0	10000	3	1	0	3	0
235	732	0	10000	3	1	0	3	0
235	733	0	10000	3	1	0	3	0
234	734	0	10000	3	1	0	3	0
231	735	0	10000	3	1	0	3	0
226	736	0	10000	3	1	0	3	0
220	737	0	10000	3	1	0	3	0
213	738	0	10000	3	1	0	3	0
206	739	0	10000	3	1	0	3	0
200	740	0	10000	3	1	0	3	0
195	741	0	10000	3	1	0	3	0
190	742	0	10000	3	1	0	3	0
185	743	0	10000	3	1	0	3	0
178	744	0	10000	3	1	0	3	0
172	745	0	10000	3	1	0	3	0
167	746	0	10000	3	1	0	3	0
165	747	0	10000	3	1	0	3	0
163	748	0	10000	3	1	0	3	0
163	749	0	10000	3	1	0	3	0
163	750	0	10000	3	1	0	3	0
161	751	0	10000	3	1	0	3	0
161	752	0	10000	3	1	0	3	0
160	753	0	10000	3	1	0	3	0
157	754	0	10000	3	1	0	3	0
153	755	0	10000	3	1	0	3	0
149	756	0	10000	3	1	0	3	0
145	757	0	10000	3	1	0	3	0
139	758	0	10000	3	1	0	3	0
134	759	0	10000	3	1	0	3	0
130	760	0	10000	3	1	0	3	0
125	761	0	10000	3	1	0	3	0
122	762	0	10000	3	1	0	3	0
117	763	0	10000	3	1	0	3	0
114	764	0	10000	3	1	0	3	0
110	765	0	10000	3	1	0	3	0
107	766	0	10000	3	1	0	3	0
104	767	0	10000	3	1	0	3	0
104	768	0	10000	3	1	0	3	0
103	769	0	10000	3	1	0	3	0
103	770	0	10000	3	1	0	3	0
104	771	0	10000	3	1	0	3	0
104	772	0	10000	3	1	0	3	0
105	773	0	10000	3	1	0	3	0
104	774	0	10000	3	1	0	3	0
101	775	0	10000	3	1	0	3	0
98	776	0	10000	3	1	0	3	0
94	777	0	10000	3	1	0	3	0
91	778	0	10000	3	1	0	3	0
88	779	0	10000	3	1	0	3	0
85	780	0	10000	3	1	0	3	0
82	781	0	10000	3	1	0	3	0
79	782	0	10000	3	1	0	3	0
75	783	0	10000	3	1	0	3	0
71	784	0	10000	3	1	0	3	0
69	785	0	10000	3	1	0	3	0
69	786	0	10000	3	1	0	3	0
69	787	0	10000	3	1	0	3	0
71	788	0	10000	3	1	0	3	0
71	789	0	10000	3	1	0	3	0
71	790	0	10000	3	1	0	3	0
71	791	0	10000	3	1	0	3	0
72	792	0	10000	3	1	0	3	0
73	793	0	10000	3	1	0	3	0
72	794	0	10000	3	1	0	3	0
70	795	0	10000	3	1	0	3	0
68	796	0	10000	3	1	0	3	0
65	797	0	10000	3	1	0	3	0
63	798	0	10000	3	1	0	3	0
60	799	0	10000	3	1	0	3	0
59	800	0	10000	3	1	0	3	0
58	801	0	10000	3	1	0	3	0
57	802	0	10000	3	1	0	3	0
54	803	0	10000	3	1	0	3	0
51	804	0	10000	3	1	0	3	0
51	805	0	10000	3	1	0	3	0
49	806	0	10000	3	1	0	3	0
49	807	0	10000	3	1	0	3	0
50	808	0	10000	3	1	0	3	0
50	809	0	10000	3	1	0	3	0
49	810	0	10000	3	1	0	3	0
49	811	0	10000	3	1	0	3	0
51	812	0	10000	3	1	0	3	0
51	813	0	10000	3	1	0	3	0
50	814	0	10000	3	1	0	3	0
48	815	0	10000	3	1	0	3	0
49	816	0	10000	3	1	0	3	0
50	817	0	10000	3	1	0	3	0
51	818	0	10000	3	1	0	3	0
51	819	0	10000	3	1	0	3	0
49	820	0	10000	3	1	0	3	0
48	821	0	10000	3	1	0	3	0
48	822	0	10000	3	1	0	3	0
45	823	0	10000	3	1	0	3	0
43	824	0	10000	3	1	0	3	0
44	825	0	10000	3	1	0	3	0
44	826	0	10000	3	1	0	3	0
43	827	0	10000	3	1	0	3	0
43	828	0	10000	3	1	0	3	0
42	829	0	10000	3	1	0	3	0
40	830	0	10000	3	1	0	3	0
41	831	0	10000	3	1	0	3	0
42	832	0	10000	3	1	0	3	0
41	833	0	10000	3	1	0	3	0
41	834	0	10000	3	1	0	3	0
39	835	0	10000	3	1	0	3	0
39	836	0	10000	3	1	0	3	0
38	837	0	10000	3	1	0	3	0
39	838	0	10000	3	1	0	3	0
39	839	0	10000	3	1	0	3	0
38	840	0	10000	3	1	0	3	0
38	841	0	10000	3	1	0	3	0
37	842	0	10000	3	1	0	3	0
35	843	0	10000	3	1	0	3	0
33	844	0	10000	3	1	0	3	0
35	845	0	10000	3	1	0	3	0
37	846	0	10000	3	1	0	3	0
36	847	0	10000	3	1	0	3	0
36	848	0	10000	3	1	0	3	0
37	849	0	10000	3	1	0	3	0
37	850	0	10000	3	1	0	3	0
36	851	0	10000	3	1	0	3	0
35	852	0	10000	3	1	0	3	0
38	853	0	10000	3	1	0	3	0
39	854	0	10000	3	1	0	3	0
38	855	0	10000	3	1	0	3	0
39	856	0	10000	3	1	0	3	0
40	857	0	10000	3	1	0	3	0
42	858	0	10000	3	1	0	3	0
42	859	0	10000	3	1	0	3	0
40	860	0	10000	3	1	0	3	0
40	861	0	10000	3	1	0	3	0
40	862	0	10000	3	1	0	3	0
39	863	0	10000	3	1	0	3	0
36	864	0	10000	3	1	0	3	0
38	865	0	10000	3	1	0	3	0
40	866	0	10000	3	1	0	3	0
40	867	0	10000	3	1	0	3	0
39	868	0	10000	3	1	0	3	0
39	869	0	10000	3	1	0	3	0
42	870	0	10000	3	1	0	3	0
44	871	0	10000	3	1	0	3	0
44	872	0	10000	3	1	0	3	0
47	873	0	10000	3	1	0	3	0
48	874	0	10000	3	1	0	3	0
45	875	0	10000	3	1	0	3	0
43	876	0	10000	3	1	0	3	0
42	877	0	10000	3	1	0	3	0
42	878	0	10000	3	1	0	3	0
42	879	0	10000	3	1	0	3	0
41	880	0	10000	3	1	0	3	0
40	881	0	10000	3	1	0	3	0
39	882	0	10000	3	1	0	3	0
37	883	0	10000	3	1	0	3	0
36	884	0	10000	3	1	0	3	0
36	885	0	10000	3	1	0	3	0
35	886	0	10000	3	1	0	3	0
35	887	0	10000	3	1	0	3	0
34	888	0	10000	3	1	0	3	0
33	889	0	10000	3	1	0	3	0
33	890	0	10000	3	1	0	3	0
35	891	0	10000	3	1	0	3	0
36	892	0	10000	3	1	0	3	0
37	893	0	10000	3	1	0	3	0
38	894	0	10000	3	1	0	3	0
37	895	0	10000	3	1	0	3	0
37	896	0	10000	3	1	0	3	0
38	897	0	10000	3	1	0	3	0
38	898	0	10000	3	1	0	3	0
37	899	0	10000	3	1	0	3	0
36	900	0	10000	3	1	0	3	0
36	901	0	10000	3	1	0	3	0
35	902	0	10000	3	1	0	3	0
33	903	0	10000	3	1	0	3	0
33	904	0	10000	3	1	0	3	0
32	905	0	10000	3	1	0	3	0
32	906	0	10000	3	1	0	3	0
32	907	0	10000	3	1	0	3	0
34	908	0	10000	3	1	0	3	0
35	909	0	10000	3	1	0	3	0
36	910	0	10000	3	1	0	3	0
36	911	0	10000	3	1	0	3	0
36	912	0	10000	3	1	0	3	0
39	913	0	10000	3	1	0	3	0
40	914	0	10000	3	1	0	3	0
39	915	0	10000	3	1	0	3	0
38	916	0	10000	3	1	0	3	0
37	917	0	10000	3	1	0	3	0
36	918	0	10000	3	1	0	3	0
38	919	0	10000	3	1	0	3	0
40	920	0	10000	3	1	0	3	0
40	921	0	10000	3	1	0	3	0
42	922	0	10000	3	1	0	3	0
44	923	0	10000	3	1	0	3	0
47	924	0	10000	3	1	0	3	0
49	925	0	10000	3	1	0	3	0
49	926	0	10000	3	1	0	3	0
48	927	0	10000	3	1	0	3	0
49	928	0	10000	3	1	0	3	0
50	929	0	10000	3	1	0	3	0
52	930	0	10000	3	1	0	3	0
53	931	0	10000	3	1	0	3	0
53	932	0	10000	3	1	0	3	0
53	933	0	10000	3	1	0	3	0
52	934	0	10000	3	1	0	3	0
50	935	0	10000	3	1	0	3	0
48	936	0	10000	3	1	0	3	0
47	937	0	10000	3	1	0	3	0
46	938	0	10000	3	1	0	3	0
44	939	0	10000	3	1	0	3	0
44	940	0	10000	3	1	0	3	0
43	941	0	10000	3	1	0	3	0
44	942	0	10000	3	1	0	3	0
43	943	0	10000	3	1	0	3	0
41	944	0	10000	3	1	0	3	0
44	945	0	10000	3	1	0	3	0
44	946	0	10000	3	1	0	3	0
43	947	0	10000	3	1	0	3	0
44	948	0	10000	3	1	0	3	0
44	949	0	10000	3	1	0	3	0
45	950	0	10000	3	1	0	3	0
46	951	0	10000	3	1	0	3	0
47	952	0	10000	3	1	0	3	0
47	953	0	10000	3	1	0	3	0
46	954	0	10000	3	1	0	3	0
46	955	0	10000	3	1	0	3	0
49	956	0	10000	3	1	0	3	0
50	957	0	10000	3	1	0	3	0
52	958	0	10000	3	1	0	3	0
51	959	0	10000	3	1	0	3	0
50	960	0	10000	3	1	0	3	0
49	961	0	10000	3	1	0	3	0
48	962	0	10000	3	1	0	3	0
45	963	0	10000	3	1	0	3	0
43	964	0	10000	3	1	0	3	0
42	965	0	10000	3	1	0	3	0
43	966	0	10000	3	1	0	3	0
44	967	0	10000	3	1	0	3	0
42	968	0	10000	3	1	0	3	0
41	969	0	10000	3	1	0	3	0
40	970	0	10000	3	1	0	3	0
40	971	0	10000	3	1	0	3	0
40	972	0	10000	3	1	0	3	0
41	973	0	10000	3	1	0	3	0
41	974	0	10000	3	1	0	3	0
39	975	0	10000	3	1	0	3	0
40	976	0	10000	3	1	0	3	0
43	977	0	10000	3	1	0	3	0
46	978	0	10000	3	1	0	3	0
46	979	0	10000	3	1	0	3	0
45	980	0	10000	3	1	0	3	0
46	981	0	10000	3	1	0	3	0
45	982	0	10000	3	1	0	3	0
44	983	0	10000	3	1	0	3	0
43	984	0	10000	3	1	0	3	0
42	985	0	10000	3	1	0	3	0
42	986	0	10000	3	1	0	3	0
40	987	0	10000	3	1	0	3	0
40	988	0	10000	3	1	0	3	0
38	989	0	10000	3	1	0	3	0
38	990	0	10000	3	1	0	3	0
36	991	0	10000	3	1	0	3	0
34	992	0	10000	3	1	0	3	0
37	993	0	10000	3	1	0	3	0
37	994	0	10000	3	1	0	3	0
35	995	0	10000	3	1	0	3	0
35	996	0	10000	3	1	0	3	0
35	997	0	10000	3	1	0	3	0
35	998	0	10000	3	1	0	3	0
34	999	0	10000	3	1	0	3	0
33	1000	0	10000	3	1	0	3	0
44	2	1	10000	4	1	0	4	0
44	3	1	10000	4	1	0	4	0
45	4	1	10000	4	1	0	4	0
45	5	1	10000	4	1	0	4	0
44	6	1	10000	4	1	0	4	0
45	7	1	10000	4	1	0	4	0
45	8	1	10000	4	1	0	4	0
43	9	1	10000	4	1	0	4	0
43	10	1	10000	4	1	0	4	0
45	11	1	10000	4	1	0	4	0
46	12	1	10000	4	1	0	4	0
44	13	1	10000	4	1	0	4	0
43	14	1	10000	4	1	0	4	0
44	15	1	10000	4	1	0	4	0
44	16	1	10000	4	1	0	4	0
42	17	1	10000	4	1	0	4	0
39	18	1	10000	4	1	0	4	0
40	19	1	10000	4	1	0	4	0
39	20	1	10000	4	1	0	4	0
39	21	1	10000	4	1	0	4	0
40	22	1	10000	4	1	0	4	0
38	23	1	10000	4	1	0	4	0
36	24	1	10000	4	1	0	4	0
35	25	1	10000	4	1	0	4	0
35	26	1	10000	4	1	0	4	0
37	27	1	10000	4	1	0	4	0
38	28	1	10000	4	1	0	4	0
37	29	1	10000	4	1	0	4	0
36	30	1	10000	4	1	0	4	0
36	31	1	10000	4	1	0	4	0
38	32	1	10000	4	1	0	4	0
40	33	1	10000	4	1	0	4	0
39	34	1	10000	4	1	0	4	0
40	35	1	10000	4	1	0	4	0
39	36	1	10000	4	1	0	4	0
37	37	1	10000	4	1	0	4	0
35	38	1	10000	4	1	0	4	0
35	39	1	10000	4	1	0	4	0
34	40	1	10000	4	1	0	4	0
33	41	1	10000	4	1	0	4	0
33	42	1	10000	4	1	0	4	0
32	43	1	10000	4	1	0	4	0
31	44	1	10000	4	1	0	4	0
31	45	1	10000	4	1	0	4	0
32	46	1	10000	4	1	0	4	0
34	47	1	10000	4	1	0	4	0
34	48	1	10000	4	1	0	4	0
33	49	1	10000	4	1	0	4	0
34	50	1	10000	4	1	0	4	0
33	51	1	10000	4	1	0	4	0
34	52	1	10000	4	1	0	4	0
33	53	1	10000	4	1	0	4	0
33	54	1	10000	4	1	0	4	0
33	55	1	10000	4	1	0	4	0
33	56	1	10000	4	1	0	4	0
31	57	1	10000	4	1	0	4	0
33	58	1	10000	4	1	0	4	0
40	59	1	10000	4	1	0	4	0
45	60	1	10000	4	1	0	4	0
44	61	1	10000	4	1	0	4	0
44	62	1	10000	4	1	0	4	0
48	63	1	10000	4	1	0	4	0
49	64	1	10000	4	1	0	4	0
50	65	1	10000	4	1	0	4	0
50	66	1	10000	4	1	0	4	0
53	67	1	10000	4	1	0	4	0
54	68	1	10000	4	1	0	4	0
52	69	1	10000	4	1	0	4	0
51	70	1	10000	4	1	0	4	0
50	71	1	10000	4	1	0	4	0
49	72	1	10000	4	1	0	4	0
47	73	1	10000	4	1	0	4	0
47	74	1	10000	4	1	0	4	0
46	75	1	10000	4	1	0	4	0
45	76	1	10000	4	1	0	4	0
44	77	1	10000	4	1	0	4	0
42	78	1	10000	4	1	0	4	0
44	79	1	10000	4	1	0	4	0
47	80	1	10000	4	1	0	4	0
47	81	1	10000	4	1	0	4	0
45	82	1	10000	4	1	0	4	0
45	83	1	10000	4	1	0	4	0
44	84	1	10000	4	1	0	4	0
44	85	1	10000	4	1	0	4	0
44	86	1	10000	4	1	0	4	0
44	87	1	10000	4	1	0	4	0
43	88	1	10000	4	1	0	4	0
41	89	1	10000	4	1	0	4	0
42	90	1	10000	4	1	0	4	0
44	91	1	10000	4	1	0	4	0
44	92	1	10000	4	1	0	4	0
42	93	1	10000	4	1	0	4	0
42	94	1	10000	4	1	0	4	0
42	95	1	10000	4	1	0	4	0
41	96	1	10000	4	1	0	4	0
39	97	1	10000	4	1	0	4	0
39	98	1	10000	4	1	0	4	0
38	99	1	10000	4	1	0	4	0
38	100	1	10000	4	1	0	4	0
37	101	1	10000	4	1	0	4	0
36	102	1	10000	4	1	0	4	0
35	103	1	10000	4	1	0	4	0
35	104	1	10000	4	1	0	4	0
36	105	1	10000	4	1	0	4	0
37	106	1	10000	4	1	0	4	0
37	107	1	10000	4	1	0	4	0
38	108	1	10000	4	1	0	4	0
37	109	1	10000	4	1	0	4	0
35	110	1	10000	4	1	0	4	0
36	111	1	10000	4	1	0	4	0
35	112	1	10000	4	1	0	4	0
33	113	1	10000	4	1	0	4	0
35	114	1	10000	4	1	0	4	0
36	115	1	10000	4	1	0	4	0
36	116	1	10000	4	1	0	4	0
35	117	1	10000	4	1	0	4	0
33	118	1	10000	4	1	0	4	0
34	119	1	10000	4	1	0	4	0
37	120	1	10000	4	1	0	4	0
38	121	1	10000	4	1	0	4	0
37	122	1	10000	4	1	0	4	0
35	123	1	10000	4	1	0	4	0
34	124	1	10000	4	1	0	4	0
34	125	1	10000	4	1	0	4	0
33	126	1	10000	4	1	0	4	0
35	127	1	10000	4	1	0	4	0
36	128	1	10000	4	1	0	4	0
35	129	1	10000	4	1	0	4	0
35	130	1	10000	4	1	0	4	0
33	131	1	10000	4	1	0	4	0
32	132	1	10000	4	1	0	4	0
32	133	1	10000	4	1	0	4	0
34	134	1	10000	4	1	0	4	0
36	135	1	10000	4	1	0	4	0
35	136	1	10000	4	1	0	4	0
33	137	1	10000	4	1	0	4	0
33	138	1	10000	4	1	0	4	0
36	139	1	10000	4	1	0	4	0
38	140	1	10000	4	1	0	4	0
39	141	1	10000	4	1	0	4	0
38	142	1	10000	4	1	0	4	0
38	143	1	10000	4	1	0	4	0
36	144	1	10000	4	1	0	4	0
37	145	1	10000	4	1	0	4	0
34	146	1	10000	4	1	0	4	0
35	147	1	10000	4	1	0	4	0
35	148	1	10000	4	1	0	4	0
35	149	1	10000	4	1	0	4	0
35	150	1	10000	4	1	0	4	0
38	151	1	10000	4	1	0	4	0
38	152	1	10000	4	1	0	4	0
37	153	1	10000	4	1	0	4	0
41	154	1	10000	4	1	0	4	0
45	155	1	10000	4	1	0	4	0
47	156	1	10000	4	1	0	4	0
45	157	1	10000	4	1	0	4	0
44	158	1	10000	4	1	0	4	0
43	159	1	10000	4	1	0	4	0
44	160	1	10000	4	1	0	4	0
44	161	1	10000	4	1	0	4	0
43	162	1	10000	4	1	0	4	0
42	163	1	10000	4	1	0	4	0
41	164	1	10000	4	1	0	4	0
39	165	1	10000	4	1	0	4	0
38	166	1	10000	4	1	0	4	0
39	167	1	10000	4	1	0	4	0
38	168	1	10000	4	1	0	4	0
38	169	1	10000	4	1	0	4	0
38	170	1	10000	4	1	0	4	0
38	171	1	10000	4	1	0	4	0
37	172	1	10000	4	1	0	4	0
35	173	1	10000	4	1	0	4	0
36	174	1	10000	4	1	0	4	0
39	175	1	10000	4	1	0	4	0
41	176	1	10000	4	1	0	4	0
40	177	1	10000	4	1	0	4	0
39	178	1	10000	4	1	0	4	0
43	179	1	10000	4	1	0	4	0
47	180	1	10000	4	1	0	4	0
49	181	1	10000	4	1	0	4	0
48	182	1	10000	4	1	0	4	0
47	183	1	10000	4	1	0	4	0
46	184	1	10000	4	1	0	4	0
47	185	1	10000	4	1	0	4	0
48	186	1	10000	4	1	0	4	0
48	187	1	10000	4	1	0	4	0
48	188	1	10000	4	1	0	4	0
49	189	1	10000	4	1	0	4	0
50	190	1	10000	4	1	0	4	0
50	191	1	10000	4	1	0	4	0
51	192	1	10000	4	1	0	4	0
51	193	1	10000	4	1	0	4	0
54	194	1	10000	4	1	0	4	0
59	195	1	10000	4	1	0	4	0
62	196	1	10000	4	1	0	4	0
61	197	1	10000	4	1	0	4	0
59	198	1	10000	4	1	0	4	0
59	199	1	10000	4	1	0	4	0
59	200	1	10000	4	1	0	4	0
57	201	1	10000	4	1	0	4	0
56	202	1	10000	4	1	0	4	0
55	203	1	10000	4	1	0	4	0
52	204	1	10000	4	1	0	4	0
50	205	1	10000	4	1	0	4	0
49	206	1	10000	4	1	0	4	0
49	207	1	10000	4	1	0	4	0
50	208	1	10000	4	1	0	4	0
51	209	1	10000	4	1	0	4	0
53	210	1	10000	4	1	0	4	0
50	211	1	10000	4	1	0	4	0
50	212	1	10000	4	1	0	4	0
51	213	1	10000	4	1	0	4	0
53	214	1	10000	4	1	0	4	0
56	215	1	10000	4	1	0	4	0
56	216	1	10000	4	1	0	4	0
54	217	1	10000	4	1	0	4	0
52	218	1	10000	4	1	0	4	0
53	219	1	10000	4	1	0	4	0
54	220	1	10000	4	1	0	4	0
53	221	1	10000	4	1	0	4	0
52	222	1	10000	4	1	0	4	0
51	223	1	10000	4	1	0	4	0
49	224	1	10000	4	1	0	4	0
47	225	1	10000	4	1	0	4	0
45	226	1	10000	4	1	0	4	0
46	227	1	10000	4	1	0	4	0
44	228	1	10000	4	1	0	4	0
42	229	1	10000	4	1	0	4	0
41	230	1	10000	4	1	0	4	0
41	231	1	10000	4	1	0	4	0
39	232	1	10000	4	1	0	4	0
38	233	1	10000	4	1	0	4	0
37	234	1	10000	4	1	0	4	0
36	235	1	10000	4	1	0	4	0
36	236	1	10000	4	1	0	4	0
34	237	1	10000	4	1	0	4	0
33	238	1	10000	4	1	0	4	0
37	239	1	10000	4	1	0	4	0
39	240	1	10000	4	1	0	4	0
39	241	1	10000	4	1	0	4	0
38	242	1	10000	4	1	0	4	0
36	243	1	10000	4	1	0	4	0
37	244	1	10000	4	1	0	4	0
37	245	1	10000	4	1	0	4	0
38	246	1	10000	4	1	0	4	0
40	247	1	10000	4	1	0	4	0
40	248	1	10000	4	1	0	4	0
38	249	1	10000	4	1	0	4	0
40	250	1	10000	4	1	0	4	0
41	251	1	10000	4	1	0	4	0
41	252	1	10000	4	1	0	4	0
40	253	1	10000	4	1	0	4	0
40	254	1	10000	4	1	0	4	0
42	255	1	10000	4	1	0	4	0
42	256	1	10000	4	1	0	4	0
41	257	1	10000	4	1	0	4	0
41	258	1	10000	4	1	0	4	0
40	259	1	10000	4	1	0	4	0
38	260	1	10000	4	1	0	4	0
38	261	1	10000	4	1	0	4	0
37	262	1	10000	4	1	0	4	0
36	263	1	10000	4	1	0	4	0
35	264	1	10000	4	1	0	4	0
35	265	1	10000	4	1	0	4	0
35	266	1	10000	4	1	0	4	0
36	267	1	10000	4	1	0	4	0
37	268	1	10000	4	1	0	4	0
38	269	1	10000	4	1	0	4	0
38	270	1	10000	4	1	0	4	0
38	271	1	10000	4	1	0	4	0
37	272	1	10000	4	1	0	4	0
36	273	1	10000	4	1	0	4	0
38	274	1	10000	4	1	0	4	0
39	275	1	10000	4	1	0	4	0
39	276	1	10000	4	1	0	4	0
39	277	1	10000	4	1	0	4	0
39	278	1	10000	4	1	0	4	0
39	279	1	10000	4	1	0	4	0
38	280	1	10000	4	1	0	4	0
38	281	1	10000	4	1	0	4	0
37	282	1	10000	4	1	0	4	0
36	283	1	10000	4	1	0	4	0
35	284	1	10000	4	1	0	4	0
34	285	1	10000	4	1	0	4	0
36	286	1	10000	4	1	0	4	0
39	287	1	10000	4	1	0	4	0
38	288	1	10000	4	1	0	4	0
38	289	1	10000	4	1	0	4	0
38	290	1	10000	4	1	0	4	0
40	291	1	10000	4	1	0	4	0
42	292	1	10000	4	1	0	4	0
39	293	1	10000	4	1	0	4	0
39	294	1	10000	4	1	0	4	0
40	295	1	10000	4	1	0	4	0
39	296	1	10000	4	1	0	4	0
37	297	1	10000	4	1	0	4	0
36	298	1	10000	4	1	0	4	0
39	299	1	10000	4	1	0	4	0
41	300	1	10000	4	1	0	4	0
40	301	1	10000	4	1	0	4	0
39	302	1	10000	4	1	0	4	0
38	303	1	10000	4	1	0	4	0
37	304	1	10000	4	1	0	4	0
35	305	1	10000	4	1	0	4	0
36	306	1	10000	4	1	0	4	0
38	307	1	10000	4	1	0	4	0
38	308	1	10000	4	1	0	4	0
38	309	1	10000	4	1	0	4	0
37	310	1	10000	4	1	0	4	0
36	311	1	10000	4	1	0	4	0
35	312	1	10000	4	1	0	4	0
35	313	1	10000	4	1	0	4	0
33	314	1	10000	4	1	0	4	0
33	315	1	10000	4	1	0	4	0
33	316	1	10000	4	1	0	4	0
31	317	1	10000	4	1	0	4	0
29	318	1	10000	4	1	0	4	0
30	319	1	10000	4	1	0	4	0
30	320	1	10000	4	1	0	4	0
30	321	1	10000	4	1	0	4	0
30	322	1	10000	4	1	0	4	0
30	323	1	10000	4	1	0	4	0
29	324	1	10000	4	1	0	4	0
27	325	1	10000	4	1	0	4	0
28	326	1	10000	4	1	0	4	0
29	327	1	10000	4	1	0	4	0
30	328	1	10000	4	1	0	4	0
30	329	1	10000	4	1	0	4	0
29	330	1	10000	4	1	0	4	0
28	331	1	10000	4	1	0	4	0
27	332	1	10000	4	1	0	4	0
27	333	1	10000	4	1	0	4	0
27	334	1	10000	4	1	0	4	0
26	335	1	10000	4	1	0	4	0
27	336	1	10000	4	1	0	4	0
24	337	1	10000	4	1	0	4	0
24	338	1	10000	4	1	0	4	0
25	339	1	10000	4	1	0	4	0
26	340	1	10000	4	1	0	4	0
26	341	1	10000	4	1	0	4	0
25	342	1	10000	4	1	0	4	0
26	343	1	10000	4	1	0	4	0
25	344	1	10000	4	1	0	4	0
24	345	1	10000	4	1	0	4	0
24	346	1	10000	4	1	0	4	0
25	347	1	10000	4	1	0	4	0
26	348	1	10000	4	1	0	4	0
28	349	1	10000	4	1	0	4	0
31	350	1	10000	4	1	0	4	0
33	351	1	10000	4	1	0	4	0
32	352	1	10000	4	1	0	4	0
34	353	1	10000	4	1	0	4	0
35	354	1	10000	4	1	0	4	0
36	355	1	10000	4	1	0	4	0
37	356	1	10000	4	1	0	4	0
38	357	1	10000	4	1	0	4	0
36	358	1	10000	4	1	0	4	0
39	359	1	10000	4	1	0	4	0
42	360	1	10000	4	1	0	4	0
41	361	1	10000	4	1	0	4	0
40	362	1	10000	4	1	0	4	0
39	363	1	10000	4	1	0	4	0
38	364	1	10000	4	1	0	4	0
36	365	1	10000	4	1	0	4	0
37	366	1	10000	4	1	0	4	0
38	367	1	10000	4	1	0	4	0
38	368	1	10000	4	1	0	4	0
37	369	1	10000	4	1	0	4	0
35	370	1	10000	4	1	0	4	0
34	371	1	10000	4	1	0	4	0
33	372	1	10000	4	1	0	4	0
32	373	1	10000	4	1	0	4	0
32	374	1	10000	4	1	0	4	0
32	375	1	10000	4	1	0	4	0
32	376	1	10000	4	1	0	4	0
30	377	1	10000	4	1	0	4	0
28	378	1	10000	4	1	0	4	0
32	379	1	10000	4	1	0	4	0
35	380	1	10000	4	1	0	4	0
35	381	1	10000	4	1	0	4	0
34	382	1	10000	4	1	0	4	0
34	383	1	10000	4	1	0	4	0
36	384	1	10000	4	1	0	4	0
35	385	1	10000	4	1	0	4	0
36	386	1	10000	4	1	0	4	0
38	387	1	10000	4	1	0	4	0
40	388	1	10000	4	1	0	4	0
39	389	1	10000	4	1	0	4	0
37	390	1	10000	4	1	0	4	0
38	391	1	10000	4	1	0	4	0
37	392	1	10000	4	1	0	4	0
35	393	1	10000	4	1	0	4	0
36	394	1	10000	4	1	0	4	0
36	395	1	10000	4	1	0	4	0
37	396	1	10000	4	1	0	4	0
36	397	1	10000	4	1	0	4	0
35	398	1	10000	4	1	0	4	0
36	399	1	10000	4	1	0	4	0
39	400	1	10000	4	1	0	4	0
42	401	1	10000	4	1	0	4	0
44	402	1	10000	4	1	0	4	0
45	403	1	10000	4	1	0	4	0
43	404	1	10000	4	1	0	4	0
44	405	1	10000	4	1	0	4	0
45	406	1	10000	4	1	0	4	0
49	407	1	10000	4	1	0	4	0
50	408	1	10000	4	1	0	4	0
48	409	1	10000	4	1	0	4	0
47	410	1	10000	4	1	0	4	0
45	411	1	10000	4	1	0	4	0
44	412	1	10000	4	1	0	4	0
42	413	1	10000	4	1	0	4	0
41	414	1	10000	4	1	0	4	0
41	415	1	10000	4	1	0	4	0
44	416	1	10000	4	1	0	4	0
44	417	1	10000	4	1	0	4	0
43	418	1	10000	4	1	0	4	0
43	419	1	10000	4	1	0	4	0
44	420	1	10000	4	1	0	4	0
43	421	1	10000	4	1	0	4	0
44	422	1	10000	4	1	0	4	0
47	423	1	10000	4	1	0	4	0
48	424	1	10000	4	1	0	4	0
50	425	1	10000	4	1	0	4	0
49	426	1	10000	4	1	0	4	0
49	427	1	10000	4	1	0	4	0
51	428	1	10000	4	1	0	4	0
52	429	1	10000	4	1	0	4	0
52	430	1	10000	4	1	0	4	0
51	431	1	10000	4	1	0	4	0
54	432	1	10000	4	1	0	4	0
58	433	1	10000	4	1	0	4	0
62	434	1	10000	4	1	0	4	0
66	435	1	10000	4	1	0	4	0
65	436	1	10000	4	1	0	4	0
61	437	1	10000	4	1	0	4	0
59	438	1	10000	4	1	0	4	0
61	439	1	10000	4	1	0	4	0
63	440	1	10000	4	1	0	4	0
64	441	1	10000	4	1	0	4	0
64	442	1	10000	4	1	0	4	0
61	443	1	10000	4	1	0	4	0
60	444	1	10000	4	1	0	4	0
60	445	1	10000	4	1	0	4	0
61	446	1	10000	4	1	0	4	0
61	447	1	10000	4	1	0	4	0
59	448	1	10000	4	1	0	4	0
57	449	1	10000	4	1	0	4	0
57	450	1	10000	4	1	0	4	0
56	451	1	10000	4	1	0	4	0
55	452	1	10000	4	1	0	4	0
53	453	1	10000	4	1	0	4	0
51	454	1	10000	4	1	0	4	0
50	455	1	10000	4	1	0	4	0
50	456	1	10000	4	1	0	4	0
52	457	1	10000	4	1	0	4	0
53	458	1	10000	4	1	0	4	0
57	459	1	10000	4	1	0	4	0
57	460	1	10000	4	1	0	4	0
56	461	1	10000	4	1	0	4	0
56	462	1	10000	4	1	0	4	0
56	463	1	10000	4	1	0	4	0
55	464	1	10000	4	1	0	4	0
55	465	1	10000	4	1	0	4	0
55	466	1	10000	4	1	0	4	0
56	467	1	10000	4	1	0	4	0
56	468	1	10000	4	1	0	4	0
55	469	1	10000	4	1	0	4	0
56	470	1	10000	4	1	0	4	0
56	471	1	10000	4	1	0	4	0
57	472	1	10000	4	1	0	4	0
56	473	1	10000	4	1	0	4	0
54	474	1	10000	4	1	0	4	0
52	475	1	10000	4	1	0	4	0
52	476	1	10000	4	1	0	4	0
48	477	1	10000	4	1	0	4	0
46	478	1	10000	4	1	0	4	0
46	479	1	10000	4	1	0	4	0
46	480	1	10000	4	1	0	4	0
45	481	1	10000	4	1	0	4	0
44	482	1	10000	4	1	0	4	0
44	483	1	10000	4	1	0	4	0
42	484	1	10000	4	1	0	4	0
40	485	1	10000	4	1	0	4	0
38	486	1	10000	4	1	0	4	0
39	487	1	10000	4	1	0	4	0
43	488	1	10000	4	1	0	4	0
45	489	1	10000	4	1	0	4	0
46	490	1	10000	4	1	0	4	0
44	491	1	10000	4	1	0	4	0
44	492	1	10000	4	1	0	4	0
48	493	1	10000	4	1	0	4	0
51	494	1	10000	4	1	0	4	0
52	495	1	10000	4	1	0	4	0
51	496	1	10000	4	1	0	4	0
49	497	1	10000	4	1	0	4	0
46	498	1	10000	4	1	0	4	0
44	499	1	10000	4	1	0	4	0
44	500	1	10000	4	1	0	4	0
43	501	1	10000	4	1	0	4	0
41	502	1	10000	4	1	0	4	1
40	503	1	10000	4	1	0	4	1
41	504	1	10000	4	1	0	4	1
39	505	1	10000	4	1	0	4	1
39	506	1	10000	4	1	0	4	1
39	507	1	10000	4	1	0	4	1
39	508	1	10000	4	1	0	4	1
38	509	1	10000	4	1	0	4	1
38	510	1	10000	4	1	0	4	1
37	511	1	10000	4	1	0	4	1
35	512	1	10000	4	1	0	4	1
34	513	1	10000	4	1	0	4	1
34	514	1	10000	4	1	0	4	1
34	515	1	10000	4	1	0	4	1
34	516	1	10000	4	1	0	4	1
34	517	1	10000	4	1	0	4	1
32	518	1	10000	4	1	0	4	1
32	519	1	10000	4	1	0	4	1
32	520	1	10000	4	1	0	4	1
32	521	1	10000	4	1	0	4	1
31	522	1	10000	4	1	0	4	1
32	523	1	10000	4	1	0	4	1
33	524	1	10000	4	1	0	4	1
32	525	1	10000	4	1	0	4	1
33	526	1	10000	4	1	0	4	1
35	527	1	10000	4	1	0	4	1
36	528	1	10000	4	1	0	4	1
36	529	1	10000	4	1	0	4	1
37	530	1	10000	4	1	0	4	1
38	531	1	10000	4	1	0	4	1
39	532	1	10000	4	1	0	4	1
38	533	1	10000	4	1	0	4	1
38	534	1	10000	4	1	0	4	1
38	535	1	10000	4	1	0	4	1
38	536	1	10000	4	1	0	4	1
35	537	1	10000	4	1	0	4	1
34	538	1	10000	4	1	0	4	1
33	539	1	10000	4	1	0	4	1
33	540	1	10000	4	1	0	4	1
33	541	1	10000	4	1	0	4	1
32	542	1	10000	4	1	0	4	1
31	543	1	10000	4	1	0	4	1
31	544	1	10000	4	1	0	4	1
31	545	1	10000	4	1	0	4	1
30	546	1	10000	4	1	0	4	1
31	547	1	10000	4	1	0	4	1
32	548	1	10000	4	1	0	4	1
32	549	1	10000	4	1	0	4	1
34	550	1	10000	4	1	0	4	1
36	551	1	10000	4	1	0	4	1
35	552	1	10000	4	1	0	4	0
35	553	1	10000	4	1	0	4	0
37	554	1	10000	4	1	0	4	0
38	555	1	10000	4	1	0	4	0
39	556	1	10000	4	1	0	4	0
36	557	1	10000	4	1	0	4	0
36	558	1	10000	4	1	0	4	0
35	559	1	10000	4	1	0	4	0
35	560	1	10000	4	1	0	4	0
34	561	1	10000	4	1	0	4	0
33	562	1	10000	4	1	0	4	0
33	563	1	10000	4	1	0	4	0
32	564	1	10000	4	1	0	4	0
31	565	1	10000	4	1	0	4	0
30	566	1	10000	4	1	0	4	0
31	567	1	10000	4	1	0	4	0
32	568	1	10000	4	1	0	4	0
32	569	1	10000	4	1	0	4	0
30	570	1	10000	4	1	0	4	0
30	571	1	10000	4	1	0	4	0
29	572	1	10000	4	1	0	4	0
37	573	1	10000	4	1	0	4	0
48	574	1	10000	4	1	0	4	0
51	575	1	10000	4	1	0	4	0
62	576	1	10000	4	1	0	4	0
93	577	1	10000	4	1	0	4	0
115	578	1	10000	4	1	0	4	0
218	579	1	10000	4	1	0	4	0
308	580	1	10000	4	1	0	4	0
313	581	1	10000	4	1	0	4	0
355	582	1	10000	4	1	0	4	0
369	583	1	10000	4	1	0	4	0
392	584	1	10000	4	1	0	4	0
377	585	1	10000	4	1	0	4	0
382	586	1	10000	4	1	0	4	0
382	587	1	10000	4	1	0	4	0
393	588	1	10000	4	1	0	4	0
399	589	1	10000	4	1	0	4	0
425	590	1	10000	4	1	0	4	0
442	591	1	10000	4	1	0	4	0
452	592	1	10000	4	1	0	4	0
510	593	1	10000	4	1	0	4	0
549	594	1	10000	4	1	0	4	0
678	595	1	10000	4	1	0	4	0
708	596	1	10000	4	1	0	4	0
743	597	1	10000	4	1	0	4	0
761	598	1	10000	4	1	0	4	0
769	599	1	10000	4	1	0	4	0
784	600	1	10000	4	1	0	4	0
768	601	1	10000	4	1	0	4	0
743	602	1	10000	4	1	0	4	0
752	603	1	10000	4	1	0	4	0
743	604	1	10000	4	1	0	4	0
714	605	1	10000	4	1	0	4	0
701	606	1	10000	4	1	0	4	0
731	607	1	10000	4	1	0	4	0
752	608	1	10000	4	1	0	4	0
737	609	1	10000	4	1	0	4	0
723	610	1	10000	4	1	0	4	0
700	611	1	10000	4	1	0	4	0
746	612	1	10000	4	1	0	4	0
810	613	1	10000	4	1	0	4	0
875	614	1	10000	4	1	0	4	0
881	615	1	10000	4	1	0	4	0
849	616	1	10000	4	1	0	4	0
813	617	1	10000	4	1	0	4	0
792	618	1	10000	4	1	0	4	0
783	619	1	10000	4	1	0	4	0
780	620	1	10000	4	1	0	4	0
783	621	1	10000	4	1	0	4	0
790	622	1	10000	4	1	0	4	0
795	623	1	10000	4	1	0	4	0
792	624	1	10000	4	1	0	4	0
783	625	1	10000	4	1	0	4	0
766	626	1	10000	4	1	0	4	0
751	627	1	10000	4	1	0	4	0
739	628	1	10000	4	1	0	4	0
723	629	1	10000	4	1	0	4	0
703	630	1	10000	4	1	0	4	0
681	631	1	10000	4	1	0	4	0
664	632	1	10000	4	1	0	4	0
647	633	1	10000	4	1	0	4	0
629	634	1	10000	4	1	0	4	0
615	635	1	10000	4	1	0	4	0
590	636	1	10000	4	1	0	4	0
562	637	1	10000	4	1	0	4	0
535	638	1	10000	4	1	0	4	0
522	639	1	10000	4	1	0	4	0
513	640	1	10000	4	1	0	4	0
504	641	1	10000	4	1	0	4	0
496	642	1	10000	4	1	0	4	0
491	643	1	10000	4	1	0	4	0
492	644	1	10000	4	1	0	4	0
497	645	1	10000	4	1	0	4	0
505	646	1	10000	4	1	0	4	0
518	647	1	10000	4	1	0	4	0
533	648	1	10000	4	1	0	4	0
550	649	1	10000	4	1	0	4	0
570	650	1	10000	4	1	0	4	0
592	651	1	10000	4	1	0	4	0
615	652	1	10000	4	1	0	4	0
637	653	1	10000	4	1	0	4	0
658	654	1	10000	4	1	0	4	0
678	655	1	10000	4	1	0	4	0
699	656	1	10000	4	1	0	4	0
718	657	1	10000	4	1	0	4	0
734	658	1	10000	4	1	0	4	0
752	659	1	10000	4	1	0	4	0
768	660	1	10000	4	1	0	4	0
782	661	1	10000	4	1	0	4	0
790	662	1	10000	4	1	0	4	0
797	663	1	10000	4	1	0	4	0
801	664	1	10000	4	1	0	4	0
802	665	1	10000	4	1	0	4	0
799	666	1	10000	4	1	0	4	0
800	667	1	10000	4	1	0	4	0
802	668	1	10000	4	1	0	4	0
804	669	1	10000	4	1	0	4	0
806	670	1	10000	4	1	0	4	0
805	671	1	10000	4	1	0	4	0
800	672	1	10000	4	1	0	4	0
792	673	1	10000	4	1	0	4	0
786	674	1	10000	4	1	0	4	0
779	675	1	10000	4	1	0	4	0
774	676	1	10000	4	1	0	4	0
767	677	1	10000	4	1	0	4	0
761	678	1	10000	4	1	0	4	0
760	679	1	10000	4	1	0	4	0
752	680	1	10000	4	1	0	4	0
737	681	1	10000	4	1	0	4	0
717	682	1	10000	4	1	0	4	0
694	683	1	10000	4	1	0	4	0
672	684	1	10000	4	1	0	4	0
648	685	1	10000	4	1	0	4	0
624	686	1	10000	4	1	0	4	0
600	687	1	10000	4	1	0	4	0
579	688	1	10000	4	1	0	4	0
557	689	1	10000	4	1	0	4	0
537	690	1	10000	4	1	0	4	0
519	691	1	10000	4	1	0	4	0
499	692	1	10000	4	1	0	4	0
479	693	1	10000	4	1	0	4	0
459	694	1	10000	4	1	0	4	0
439	695	1	10000	4	1	0	4	0
419	696	1	10000	4	1	0	4	0
399	697	1	10000	4	1	0	4	0
381	698	1	10000	4	1	0	4	0
364	699	1	10000	4	1	0	4	0
348	700	1	10000	4	1	0	4	0
336	701	1	10000	4	1	0	4	0
326	702	1	10000	4	1	0	4	0
317	703	1	10000	4	1	0	4	0
311	704	1	10000	4	1	0	4	0
307	705	1	10000	4	1	0	4	0
304	706	1	10000	4	1	0	4	0
303	707	1	10000	4	1	0	4	0
300	708	1	10000	4	1	0	4	0
297	709	1	10000	4	1	0	4	0
289	710	1	10000	4	1	0	4	0
278	711	1	10000	4	1	0	4	0
271	712	1	10000	4	1	0	4	0
266	713	1	10000	4	1	0	4	0
264	714	1	10000	4	1	0	4	0
265	715	1	10000	4	1	0	4	0
261	716	1	10000	4	1	0	4	0
254	717	1	10000	4	1	0	4	0
247	718	1	10000	4	1	0	4	0
240	719	1	10000	4	1	0	4	0
236	720	1	10000	4	1	0	4	0
234	721	1	10000	4	1	0	4	0
236	722	1	10000	4	1	0	4	0
239	723	1	10000	4	1	0	4	0
243	724	1	10000	4	1	0	4	0
245	725	1	10000	4	1	0	4	0
246	726	1	10000	4	1	0	4	0
247	727	1	10000	4	1	0	4	0
244	728	1	10000	4	1	0	4	0
239	729	1	10000	4	1	0	4	0
235	730	1	10000	4	1	0	4	0
231	731	1	10000	4	1	0	4	0
228	732	1	10000	4	1	0	4	0
222	733	1	10000	4	1	0	4	0
220	734	1	10000	4	1	0	4	0
218	735	1	10000	4	1	0	4	0
219	736	1	10000	4	1	0	4	0
218	737	1	10000	4	1	0	4	0
218	738	1	10000	4	1	0	4	0
215	739	1	10000	4	1	0	4	0
207	740	1	10000	4	1	0	4	0
201	741	1	10000	4	1	0	4	0
201	742	1	10000	4	1	0	4	0
204	743	1	10000	4	1	0	4	0
205	744	1	10000	4	1	0	4	0
203	745	1	10000	4	1	0	4	0
202	746	1	10000	4	1	0	4	0
202	747	1	10000	4	1	0	4	0
201	748	1	10000	4	1	0	4	0
200	749	1	10000	4	1	0	4	0
198	750	1	10000	4	1	0	4	0
195	751	1	10000	4	1	0	4	0
189	752	1	10000	4	1	0	4	0
183	753	1	10000	4	1	0	4	0
180	754	1	10000	4	1	0	4	0
178	755	1	10000	4	1	0	4	0
176	756	1	10000	4	1	0	4	0
172	757	1	10000	4	1	0	4	0
171	758	1	10000	4	1	0	4	0
168	759	1	10000	4	1	0	4	0
164	760	1	10000	4	1	0	4	0
162	761	1	10000	4	1	0	4	0
164	762	1	10000	4	1	0	4	0
163	763	1	10000	4	1	0	4	0
161	764	1	10000	4	1	0	4	0
160	765	1	10000	4	1	0	4	0
160	766	1	10000	4	1	0	4	0
162	767	1	10000	4	1	0	4	0
163	768	1	10000	4	1	0	4	0
163	769	1	10000	4	1	0	4	0
161	770	1	10000	4	1	0	4	0
157	771	1	10000	4	1	0	4	0
152	772	1	10000	4	1	0	4	0
148	773	1	10000	4	1	0	4	0
142	774	1	10000	4	1	0	4	0
136	775	1	10000	4	1	0	4	0
132	776	1	10000	4	1	0	4	0
127	777	1	10000	4	1	0	4	0
124	778	1	10000	4	1	0	4	0
122	779	1	10000	4	1	0	4	0
122	780	1	10000	4	1	0	4	0
121	781	1	10000	4	1	0	4	0
119	782	1	10000	4	1	0	4	0
120	783	1	10000	4	1	0	4	0
121	784	1	10000	4	1	0	4	0
119	785	1	10000	4	1	0	4	0
118	786	1	10000	4	1	0	4	0
119	787	1	10000	4	1	0	4	0
120	788	1	10000	4	1	0	4	0
118	789	1	10000	4	1	0	4	0
114	790	1	10000	4	1	0	4	0
109	791	1	10000	4	1	0	4	0
104	792	1	10000	4	1	0	4	0
100	793	1	10000	4	1	0	4	0
97	794	1	10000	4	1	0	4	0
94	795	1	10000	4	1	0	4	0
94	796	1	10000	4	1	0	4	0
93	797	1	10000	4	1	0	4	0
90	798	1	10000	4	1	0	4	0
87	799	1	10000	4	1	0	4	0
84	800	1	10000	4	1	0	4	0
81	801	1	10000	4	1	0	4	0
82	802	1	10000	4	1	0	4	0
84	803	1	10000	4	1	0	4	0
84	804	1	10000	4	1	0	4	0
84	805	1	10000	4	1	0	4	0
82	806	1	10000	4	1	0	4	0
81	807	1	10000	4	1	0	4	0
79	808	1	10000	4	1	0	4	0
80	809	1	10000	4	1	0	4	0
78	810	1	10000	4	1	0	4	0
75	811	1	10000	4	1	0	4	0
72	812	1	10000	4	1	0	4	0
70	813	1	10000	4	1	0	4	0
69	814	1	10000	4	1	0	4	0
67	815	1	10000	4	1	0	4	0
65	816	1	10000	4	1	0	4	0
63	817	1	10000	4	1	0	4	0
60	818	1	10000	4	1	0	4	0
59	819	1	10000	4	1	0	4	0
57	820	1	10000	4	1	0	4	0
56	821	1	10000	4	1	0	4	0
55	822	1	10000	4	1	0	4	0
54	823	1	10000	4	1	0	4	0
53	824	1	10000	4	1	0	4	0
51	825	1	10000	4	1	0	4	0
49	826	1	10000	4	1	0	4	0
53	827	1	10000	4	1	0	4	0
55	828	1	10000	4	1	0	4	0
55	829	1	10000	4	1	0	4	0
54	830	1	10000	4	1	0	4	0
53	831	1	10000	4	1	0	4	0
51	832	1	10000	4	1	0	4	0
49	833	1	10000	4	1	0	4	0
48	834	1	10000	4	1	0	4	0
47	835	1	10000	4	1	0	4	0
48	836	1	10000	4	1	0	4	0
46	837	1	10000	4	1	0	4	0
46	838	1	10000	4	1	0	4	0
45	839	1	10000	4	1	0	4	0
44	840	1	10000	4	1	0	4	0
46	841	1	10000	4	1	0	4	0
47	842	1	10000	4	1	0	4	0
46	843	1	10000	4	1	0	4	0
45	844	1	10000	4	1	0	4	0
44	845	1	10000	4	1	0	4	0
44	846	1	10000	4	1	0	4	0
44	847	1	10000	4	1	0	4	0
44	848	1	10000	4	1	0	4	0
43	849	1	10000	4	1	0	4	0
43	850	1	10000	4	1	0	4	0
44	851	1	10000	4	1	0	4	0
42	852	1	10000	4	1	0	4	0
41	853	1	10000	4	1	0	4	0
44	854	1	10000	4	1	0	4	0
46	855	1	10000	4	1	0	4	0
46	856	1	10000	4	1	0	4	0
43	857	1	10000	4	1	0	4	0
41	858	1	10000	4	1	0	4	0
44	859	1	10000	4	1	0	4	0
44	860	1	10000	4	1	0	4	0
44	861	1	10000	4	1	0	4	0
44	862	1	10000	4	1	0	4	0
44	863	1	10000	4	1	0	4	0
44	864	1	10000	4	1	0	4	0
47	865	1	10000	4	1	0	4	0
51	866	1	10000	4	1	0	4	0
59	867	1	10000	4	1	0	4	0
62	868	1	10000	4	1	0	4	0
62	869	1	10000	4	1	0	4	0
60	870	1	10000	4	1	0	4	0
60	871	1	10000	4	1	0	4	0
60	872	1	10000	4	1	0	4	0
57	873	1	10000	4	1	0	4	0
55	874	1	10000	4	1	0	4	0
55	875	1	10000	4	1	0	4	0
55	876	1	10000	4	1	0	4	0
52	877	1	10000	4	1	0	4	0
50	878	1	10000	4	1	0	4	0
49	879	1	10000	4	1	0	4	0
47	880	1	10000	4	1	0	4	0
46	881	1	10000	4	1	0	4	0
45	882	1	10000	4	1	0	4	0
44	883	1	10000	4	1	0	4	0
43	884	1	10000	4	1	0	4	0
41	885	1	10000	4	1	0	4	0
40	886	1	10000	4	1	0	4	0
41	887	1	10000	4	1	0	4	0
40	888	1	10000	4	1	0	4	0
42	889	1	10000	4	1	0	4	0
43	890	1	10000	4	1	0	4	0
42	891	1	10000	4	1	0	4	0
43	892	1	10000	4	1	0	4	0
42	893	1	10000	4	1	0	4	0
41	894	1	10000	4	1	0	4	0
41	895	1	10000	4	1	0	4	0
40	896	1	10000	4	1	0	4	0
38	897	1	10000	4	1	0	4	0
38	898	1	10000	4	1	0	4	0
41	899	1	10000	4	1	0	4	0
45	900	1	10000	4	1	0	4	0
52	901	1	10000	4	1	0	4	0
53	902	1	10000	4	1	0	4	0
53	903	1	10000	4	1	0	4	0
57	904	1	10000	4	1	0	4	0
61	905	1	10000	4	1	0	4	0
67	906	1	10000	4	1	0	4	0
72	907	1	10000	4	1	0	4	0
73	908	1	10000	4	1	0	4	0
71	909	1	10000	4	1	0	4	0
70	910	1	10000	4	1	0	4	0
69	911	1	10000	4	1	0	4	0
68	912	1	10000	4	1	0	4	0
66	913	1	10000	4	1	0	4	0
65	914	1	10000	4	1	0	4	0
64	915	1	10000	4	1	0	4	0
63	916	1	10000	4	1	0	4	0
60	917	1	10000	4	1	0	4	0
57	918	1	10000	4	1	0	4	0
55	919	1	10000	4	1	0	4	0
54	920	1	10000	4	1	0	4	0
53	921	1	10000	4	1	0	4	0
51	922	1	10000	4	1	0	4	0
52	923	1	10000	4	1	0	4	0
53	924	1	10000	4	1	0	4	0
51	925	1	10000	4	1	0	4	0
52	926	1	10000	4	1	0	4	0
57	927	1	10000	4	1	0	4	0
59	928	1	10000	4	1	0	4	0
57	929	1	10000	4	1	0	4	0
56	930	1	10000	4	1	0	4	0
53	931	1	10000	4	1	0	4	0
51	932	1	10000	4	1	0	4	0
51	933	1	10000	4	1	0	4	0
51	934	1	10000	4	1	0	4	0
50	935	1	10000	4	1	0	4	0
49	936	1	10000	4	1	0	4	0
47	937	1	10000	4	1	0	4	0
44	938	1	10000	4	1	0	4	0
46	939	1	10000	4	1	0	4	0
47	940	1	10000	4	1	0	4	0
46	941	1	10000	4	1	0	4	0
46	942	1	10000	4	1	0	4	0
46	943	1	10000	4	1	0	4	0
46	944	1	10000	4	1	0	4	0
46	945	1	10000	4	1	0	4	0
46	946	1	10000	4	1	0	4	0
48	947	1	10000	4	1	0	4	0
48	948	1	10000	4	1	0	4	0
46	949	1	10000	4	1	0	4	0
47	950	1	10000	4	1	0	4	0
48	951	1	10000	4	1	0	4	0
46	952	1	10000	4	1	0	4	0
45	953	1	10000	4	1	0	4	0
48	954	1	10000	4	1	0	4	0
49	955	1	10000	4	1	0	4	0
50	956	1	10000	4	1	0	4	0
47	957	1	10000	4	1	0	4	0
46	958	1	10000	4	1	0	4	0
48	959	1	10000	4	1	0	4	0
50	960	1	10000	4	1	0	4	0
50	961	1	10000	4	1	0	4	0
50	962	1	10000	4	1	0	4	0
48	963	1	10000	4	1	0	4	0
49	964	1	10000	4	1	0	4	0
50	965	1	10000	4	1	0	4	0
51	966	1	10000	4	1	0	4	0
52	967	1	10000	4	1	0	4	0
51	968	1	10000	4	1	0	4	0
49	969	1	10000	4	1	0	4	0
49	970	1	10000	4	1	0	4	0
50	971	1	10000	4	1	0	4	0
48	972	1	10000	4	1	0	4	0
47	973	1	10000	4	1	0	4	0
46	974	1	10000	4	1	0	4	0
46	975	1	10000	4	1	0	4	0
45	976	1	10000	4	1	0	4	0
42	977	1	10000	4	1	0	4	0
43	978	1	10000	4	1	0	4	0
46	979	1	10000	4	1	0	4	0
46	980	1	10000	4	1	0	4	0
46	981	1	10000	4	1	0	4	0
46	982	1	10000	4	1	0	4	0
46	983	1	10000	4	1	0	4	0
46	984	1	10000	4	1	0	4	0
44	985	1	10000	4	1	0	4	0
43	986	1	10000	4	1	0	4	0
45	987	1	10000	4	1	0	4	0
50	988	1	10000	4	1	0	4	0
51	989	1	10000	4	1	0	4	0
54	990	1	10000	4	1	0	4	0
55	991	1	10000	4	1	0	4	0
53	992	1	10000	4	1	0	4	0
52	993	1	10000	4	1	0	4	0
53	994	1	10000	4	1	0	4	0
55	995	1	10000	4	1	0	4	0
54	996	1	10000	4	1	0	4	0
51	997	1	10000	4	1	0	4	0
49	998	1	10000	4	1	0	4	0
49	999	1	10000	4	1	0	4	0
51	1000	1	10000	4	1	0	4	0
52	1001	1	10000	4	1	0	4	0
34	1	10	10000	5	1	0	5	0
33	2	10	10000	5	1	0	5	0
33	3	10	10000	5	1	0	5	0
34	4	10	10000	5	1	0	5	0
33	5	10	10000	5	1	0	5	0
32	6	10	10000	5	1	0	5	0
31	7	10	10000	5	1	0	5	0
31	8	10	10000	5	1	0	5	0
29	9	10	10000	5	1	0	5	0
30	10	10	10000	5	1	0	5	0
32	11	10	10000	5	1	0	5	0
32	12	10	10000	5	1	0	5	0
31	13	10	10000	5	1	0	5	0
30	14	10	10000	5	1	0	5	0
30	15	10	10000	5	1	0	5	0
30	16	10	10000	5	1	0	5	0
30	17	10	10000	5	1	0	5	0
32	18	10	10000	5	1	0	5	0
34	19	10	10000	5	1	0	5	0
36	20	10	10000	5	1	0	5	0
37	20	10	10000	5	1	0	5	0
37	21	10	10000	5	1	0	5	0
38	23	10	10000	5	1	0	5	0
37	24	10	10000	5	1	0	5	0
37	25	10	10000	5	1	0	5	0
37	26	10	10000	5	1	0	5	0
37	27	10	10000	5	1	0	5	0
36	28	10	10000	5	1	0	5	0
35	29	10	10000	5	1	0	5	0
37	30	10	10000	5	1	0	5	0
40	30	10	10000	5	1	0	5	0
41	31	10	10000	5	1	0	5	0
39	33	10	10000	5	1	0	5	0
37	34	10	10000	5	1	0	5	0
37	35	10	10000	5	1	0	5	0
36	36	10	10000	5	1	0	5	0
35	37	10	10000	5	1	0	5	0
35	38	10	10000	5	1	0	5	0
35	39	10	10000	5	1	0	5	0
34	40	10	10000	5	1	0	5	0
32	40	10	10000	5	1	0	5	0
31	41	10	10000	5	1	0	5	0
32	43	10	10000	5	1	0	5	0
32	44	10	10000	5	1	0	5	0
33	45	10	10000	5	1	0	5	0
34	46	10	10000	5	1	0	5	0
37	47	10	10000	5	1	0	5	0
40	48	10	10000	5	1	0	5	0
41	49	10	10000	5	1	0	5	0
41	50	10	10000	5	1	0	5	0
40	50	10	10000	5	1	0	5	0
41	51	10	10000	5	1	0	5	0
37	53	10	10000	5	1	0	5	0
36	54	10	10000	5	1	0	5	0
36	55	10	10000	5	1	0	5	0
37	56	10	10000	5	1	0	5	0
37	57	10	10000	5	1	0	5	0
36	58	10	10000	5	1	0	5	0
36	59	10	10000	5	1	0	5	0
34	60	10	10000	5	1	0	5	0
33	60	10	10000	5	1	0	5	0
33	61	10	10000	5	1	0	5	0
35	63	10	10000	5	1	0	5	0
35	64	10	10000	5	1	0	5	0
34	65	10	10000	5	1	0	5	0
34	66	10	10000	5	1	0	5	0
34	67	10	10000	5	1	0	5	0
34	68	10	10000	5	1	0	5	0
34	69	10	10000	5	1	0	5	0
34	70	10	10000	5	1	0	5	0
34	70	10	10000	5	1	0	5	0
34	71	10	10000	5	1	0	5	0
32	73	10	10000	5	1	0	5	0
31	74	10	10000	5	1	0	5	0
32	75	10	10000	5	1	0	5	0
33	76	10	10000	5	1	0	5	0
32	77	10	10000	5	1	0	5	0
32	78	10	10000	5	1	0	5	0
31	79	10	10000	5	1	0	5	0
29	80	10	10000	5	1	0	5	0
29	80	10	10000	5	1	0	5	0
29	81	10	10000	5	1	0	5	0
31	83	10	10000	5	1	0	5	0
31	84	10	10000	5	1	0	5	0
30	85	10	10000	5	1	0	5	0
30	86	10	10000	5	1	0	5	0
30	87	10	10000	5	1	0	5	0
29	88	10	10000	5	1	0	5	0
29	89	10	10000	5	1	0	5	0
31	90	10	10000	5	1	0	5	0
32	90	10	10000	5	1	0	5	0
34	91	10	10000	5	1	0	5	0
32	93	10	10000	5	1	0	5	0
32	94	10	10000	5	1	0	5	0
33	95	10	10000	5	1	0	5	0
33	96	10	10000	5	1	0	5	0
32	97	10	10000	5	1	0	5	0
31	98	10	10000	5	1	0	5	0
30	99	10	10000	5	1	0	5	0
29	100	10	10000	5	1	0	5	0
28	100	10	10000	5	1	0	5	0
27	101	10	10000	5	1	0	5	0
32	103	10	10000	5	1	0	5	0
33	104	10	10000	5	1	0	5	0
32	105	10	10000	5	1	0	5	0
32	106	10	10000	5	1	0	5	0
31	107	10	10000	5	1	0	5	0
31	108	10	10000	5	1	0	5	0
31	109	10	10000	5	1	0	5	0
32	110	10	10000	5	1	0	5	0
33	110	10	10000	5	1	0	5	0
36	111	10	10000	5	1	0	5	0
37	113	10	10000	5	1	0	5	0
38	114	10	10000	5	1	0	5	0
38	115	10	10000	5	1	0	5	0
37	116	10	10000	5	1	0	5	0
36	117	10	10000	5	1	0	5	0
36	118	10	10000	5	1	0	5	0
37	119	10	10000	5	1	0	5	0
38	120	10	10000	5	1	0	5	0
35	120	10	10000	5	1	0	5	0
34	121	10	10000	5	1	0	5	0
36	123	10	10000	5	1	0	5	0
35	124	10	10000	5	1	0	5	0
33	125	10	10000	5	1	0	5	0
32	126	10	10000	5	1	0	5	0
32	127	10	10000	5	1	0	5	0
31	128	10	10000	5	1	0	5	0
30	129	10	10000	5	1	0	5	0
30	130	10	10000	5	1	0	5	0
29	130	10	10000	5	1	0	5	0
29	131	10	10000	5	1	0	5	0
28	133	10	10000	5	1	0	5	0
27	134	10	10000	5	1	0	5	0
27	135	10	10000	5	1	0	5	0
28	136	10	10000	5	1	0	5	0
29	137	10	10000	5	1	0	5	0
29	138	10	10000	5	1	0	5	0
30	139	10	10000	5	1	0	5	0
31	140	10	10000	5	1	0	5	0
30	140	10	10000	5	1	0	5	0
29	141	10	10000	5	1	0	5	0
30	143	10	10000	5	1	0	5	0
32	144	10	10000	5	1	0	5	0
33	145	10	10000	5	1	0	5	0
36	146	10	10000	5	1	0	5	0
38	147	10	10000	5	1	0	5	0
38	148	10	10000	5	1	0	5	0
36	149	10	10000	5	1	0	5	0
36	150	10	10000	5	1	0	5	0
35	150	10	10000	5	1	0	5	0
35	151	10	10000	5	1	0	5	0
33	153	10	10000	5	1	0	5	0
33	154	10	10000	5	1	0	5	0
37	155	10	10000	5	1	0	5	0
40	156	10	10000	5	1	0	5	0
44	157	10	10000	5	1	0	5	0
46	158	10	10000	5	1	0	5	0
49	159	10	10000	5	1	0	5	0
50	160	10	10000	5	1	0	5	0
51	160	10	10000	5	1	0	5	0
49	161	10	10000	5	1	0	5	0
51	163	10	10000	5	1	0	5	0
53	164	10	10000	5	1	0	5	0
57	165	10	10000	5	1	0	5	0
60	166	10	10000	5	1	0	5	0
62	167	10	10000	5	1	0	5	0
61	168	10	10000	5	1	0	5	0
58	169	10	10000	5	1	0	5	0
57	170	10	10000	5	1	0	5	0
56	170	10	10000	5	1	0	5	0
53	171	10	10000	5	1	0	5	0
50	173	10	10000	5	1	0	5	0
49	174	10	10000	5	1	0	5	0
51	175	10	10000	5	1	0	5	0
48	176	10	10000	5	1	0	5	0
47	177	10	10000	5	1	0	5	0
47	178	10	10000	5	1	0	5	0
46	179	10	10000	5	1	0	5	0
44	180	10	10000	5	1	0	5	0
44	180	10	10000	5	1	0	5	0
45	181	10	10000	5	1	0	5	0
47	183	10	10000	5	1	0	5	0
46	184	10	10000	5	1	0	5	0
45	185	10	10000	5	1	0	5	0
43	186	10	10000	5	1	0	5	0
42	187	10	10000	5	1	0	5	0
41	188	10	10000	5	1	0	5	0
41	189	10	10000	5	1	0	5	0
43	190	10	10000	5	1	0	5	0
42	190	10	10000	5	1	0	5	0
43	191	10	10000	5	1	0	5	0
44	193	10	10000	5	1	0	5	0
46	194	10	10000	5	1	0	5	0
46	195	10	10000	5	1	0	5	0
45	196	10	10000	5	1	0	5	0
44	197	10	10000	5	1	0	5	0
44	198	10	10000	5	1	0	5	0
45	199	10	10000	5	1	0	5	0
46	200	10	10000	5	1	0	5	0
49	200	10	10000	5	1	0	5	0
52	201	10	10000	5	1	0	5	0
56	203	10	10000	5	1	0	5	0
58	204	10	10000	5	1	0	5	0
59	205	10	10000	5	1	0	5	0
58	206	10	10000	5	1	0	5	0
58	207	10	10000	5	1	0	5	0
58	208	10	10000	5	1	0	5	0
57	209	10	10000	5	1	0	5	0
58	210	10	10000	5	1	0	5	0
60	210	10	10000	5	1	0	5	0
61	211	10	10000	5	1	0	5	0
57	213	10	10000	5	1	0	5	0
56	214	10	10000	5	1	0	5	0
54	215	10	10000	5	1	0	5	0
53	216	10	10000	5	1	0	5	0
51	217	10	10000	5	1	0	5	0
51	218	10	10000	5	1	0	5	0
52	219	10	10000	5	1	0	5	0
53	220	10	10000	5	1	0	5	0
54	220	10	10000	5	1	0	5	0
55	221	10	10000	5	1	0	5	0
58	223	10	10000	5	1	0	5	0
59	224	10	10000	5	1	0	5	0
57	225	10	10000	5	1	0	5	0
55	226	10	10000	5	1	0	5	0
52	227	10	10000	5	1	0	5	0
50	228	10	10000	5	1	0	5	0
49	229	10	10000	5	1	0	5	0
49	230	10	10000	5	1	0	5	0
52	230	10	10000	5	1	0	5	0
54	231	10	10000	5	1	0	5	0
54	233	10	10000	5	1	0	5	0
53	234	10	10000	5	1	0	5	0
52	235	10	10000	5	1	0	5	0
53	236	10	10000	5	1	0	5	0
51	237	10	10000	5	1	0	5	0
50	238	10	10000	5	1	0	5	0
50	239	10	10000	5	1	0	5	0
48	240	10	10000	5	1	0	5	0
47	240	10	10000	5	1	0	5	0
46	241	10	10000	5	1	0	5	0
47	243	10	10000	5	1	0	5	0
46	244	10	10000	5	1	0	5	0
46	245	10	10000	5	1	0	5	0
45	246	10	10000	5	1	0	5	0
43	247	10	10000	5	1	0	5	0
43	248	10	10000	5	1	0	5	0
42	249	10	10000	5	1	0	5	0
41	250	10	10000	5	1	0	5	0
41	250	10	10000	5	1	0	5	0
41	251	10	10000	5	1	0	5	0
40	253	10	10000	5	1	0	5	0
38	254	10	10000	5	1	0	5	0
38	255	10	10000	5	1	0	5	0
37	256	10	10000	5	1	0	5	0
37	257	10	10000	5	1	0	5	0
36	258	10	10000	5	1	0	5	0
35	259	10	10000	5	1	0	5	0
35	260	10	10000	5	1	0	5	0
34	260	10	10000	5	1	0	5	0
34	261	10	10000	5	1	0	5	0
35	263	10	10000	5	1	0	5	0
35	264	10	10000	5	1	0	5	0
36	265	10	10000	5	1	0	5	0
36	266	10	10000	5	1	0	5	0
36	267	10	10000	5	1	0	5	0
35	268	10	10000	5	1	0	5	0
34	269	10	10000	5	1	0	5	0
35	270	10	10000	5	1	0	5	0
35	270	10	10000	5	1	0	5	0
34	271	10	10000	5	1	0	5	0
32	273	10	10000	5	1	0	5	0
32	274	10	10000	5	1	0	5	0
34	275	10	10000	5	1	0	5	0
35	276	10	10000	5	1	0	5	0
34	277	10	10000	5	1	0	5	0
33	278	10	10000	5	1	0	5	0
32	279	10	10000	5	1	0	5	0
32	280	10	10000	5	1	0	5	0
30	280	10	10000	5	1	0	5	0
30	281	10	10000	5	1	0	5	0
30	283	10	10000	5	1	0	5	0
31	284	10	10000	5	1	0	5	0
32	285	10	10000	5	1	0	5	0
33	286	10	10000	5	1	0	5	0
35	287	10	10000	5	1	0	5	0
33	288	10	10000	5	1	0	5	0
32	289	10	10000	5	1	0	5	0
32	290	10	10000	5	1	0	5	0
33	290	10	10000	5	1	0	5	0
32	291	10	10000	5	1	0	5	0
32	293	10	10000	5	1	0	5	0
32	294	10	10000	5	1	0	5	0
32	295	10	10000	5	1	0	5	0
33	296	10	10000	5	1	0	5	0
33	297	10	10000	5	1	0	5	0
33	298	10	10000	5	1	0	5	0
33	299	10	10000	5	1	0	5	0
34	300	10	10000	5	1	0	5	0
34	300	10	10000	5	1	0	5	0
33	301	10	10000	5	1	0	5	0
34	303	10	10000	5	1	0	5	0
34	304	10	10000	5	1	0	5	0
33	305	10	10000	5	1	0	5	0
35	306	10	10000	5	1	0	5	0
36	307	10	10000	5	1	0	5	0
36	308	10	10000	5	1	0	5	0
35	309	10	10000	5	1	0	5	0
35	310	10	10000	5	1	0	5	0
37	310	10	10000	5	1	0	5	0
36	311	10	10000	5	1	0	5	0
34	313	10	10000	5	1	0	5	0
33	314	10	10000	5	1	0	5	0
38	315	10	10000	5	1	0	5	0
40	316	10	10000	5	1	0	5	0
40	317	10	10000	5	1	0	5	0
39	318	10	10000	5	1	0	5	0
38	319	10	10000	5	1	0	5	0
39	320	10	10000	5	1	0	5	0
39	320	10	10000	5	1	0	5	0
39	321	10	10000	5	1	0	5	0
39	323	10	10000	5	1	0	5	0
40	324	10	10000	5	1	0	5	0
38	325	10	10000	5	1	0	5	0
37	326	10	10000	5	1	0	5	0
36	327	10	10000	5	1	0	5	0
37	328	10	10000	5	1	0	5	0
35	329	10	10000	5	1	0	5	0
35	330	10	10000	5	1	0	5	0
34	330	10	10000	5	1	0	5	0
34	331	10	10000	5	1	0	5	0
32	333	10	10000	5	1	0	5	0
32	334	10	10000	5	1	0	5	0
32	335	10	10000	5	1	0	5	0
33	336	10	10000	5	1	0	5	0
33	337	10	10000	5	1	0	5	0
32	338	10	10000	5	1	0	5	0
31	339	10	10000	5	1	0	5	0
31	340	10	10000	5	1	0	5	0
31	340	10	10000	5	1	0	5	0
30	341	10	10000	5	1	0	5	0
31	343	10	10000	5	1	0	5	0
30	344	10	10000	5	1	0	5	0
30	345	10	10000	5	1	0	5	0
29	346	10	10000	5	1	0	5	0
29	347	10	10000	5	1	0	5	0
29	348	10	10000	5	1	0	5	0
28	349	10	10000	5	1	0	5	0
29	350	10	10000	5	1	0	5	0
31	350	10	10000	5	1	0	5	0
31	351	10	10000	5	1	0	5	0
29	353	10	10000	5	1	0	5	0
28	354	10	10000	5	1	0	5	0
29	355	10	10000	5	1	0	5	0
30	356	10	10000	5	1	0	5	0
31	357	10	10000	5	1	0	5	0
29	358	10	10000	5	1	0	5	0
29	359	10	10000	5	1	0	5	0
28	360	10	10000	5	1	0	5	0
27	360	10	10000	5	1	0	5	0
28	361	10	10000	5	1	0	5	0
30	363	10	10000	5	1	0	5	0
30	364	10	10000	5	1	0	5	0
29	365	10	10000	5	1	0	5	0
28	366	10	10000	5	1	0	5	0
27	367	10	10000	5	1	0	5	0
27	368	10	10000	5	1	0	5	0
26	369	10	10000	5	1	0	5	0
27	370	10	10000	5	1	0	5	0
28	370	10	10000	5	1	0	5	0
28	371	10	10000	5	1	0	5	0
26	373	10	10000	5	1	0	5	0
27	374	10	10000	5	1	0	5	0
28	375	10	10000	5	1	0	5	0
30	376	10	10000	5	1	0	5	0
30	377	10	10000	5	1	0	5	0
30	378	10	10000	5	1	0	5	0
32	379	10	10000	5	1	0	5	0
32	380	10	10000	5	1	0	5	0
32	380	10	10000	5	1	0	5	0
30	381	10	10000	5	1	0	5	0
32	383	10	10000	5	1	0	5	0
32	384	10	10000	5	1	0	5	0
32	385	10	10000	5	1	0	5	0
31	386	10	10000	5	1	0	5	0
30	387	10	10000	5	1	0	5	0
29	388	10	10000	5	1	0	5	0
29	389	10	10000	5	1	0	5	0
29	390	10	10000	5	1	0	5	0
29	390	10	10000	5	1	0	5	0
30	391	10	10000	5	1	0	5	0
28	393	10	10000	5	1	0	5	0
29	394	10	10000	5	1	0	5	0
34	395	10	10000	5	1	0	5	0
39	396	10	10000	5	1	0	5	0
43	397	10	10000	5	1	0	5	0
42	398	10	10000	5	1	0	5	0
41	399	10	10000	5	1	0	5	0
42	400	10	10000	5	1	0	5	0
42	400	10	10000	5	1	0	5	0
41	401	10	10000	5	1	0	5	0
43	403	10	10000	5	1	0	5	0
43	404	10	10000	5	1	0	5	0
47	405	10	10000	5	1	0	5	0
53	406	10	10000	5	1	0	5	0
58	407	10	10000	5	1	0	5	0
63	408	10	10000	5	1	0	5	0
65	409	10	10000	5	1	0	5	0
64	410	10	10000	5	1	0	5	0
63	410	10	10000	5	1	0	5	0
61	411	10	10000	5	1	0	5	0
58	413	10	10000	5	1	0	5	0
58	414	10	10000	5	1	0	5	0
59	415	10	10000	5	1	0	5	0
59	416	10	10000	5	1	0	5	0
58	417	10	10000	5	1	0	5	0
56	418	10	10000	5	1	0	5	0
54	419	10	10000	5	1	0	5	0
52	420	10	10000	5	1	0	5	0
51	420	10	10000	5	1	0	5	0
50	421	10	10000	5	1	0	5	0
50	423	10	10000	5	1	0	5	0
50	424	10	10000	5	1	0	5	0
48	425	10	10000	5	1	0	5	0
47	426	10	10000	5	1	0	5	0
45	427	10	10000	5	1	0	5	0
44	428	10	10000	5	1	0	5	0
44	429	10	10000	5	1	0	5	0
46	430	10	10000	5	1	0	5	0
48	430	10	10000	5	1	0	5	0
51	431	10	10000	5	1	0	5	0
50	433	10	10000	5	1	0	5	0
49	434	10	10000	5	1	0	5	0
49	435	10	10000	5	1	0	5	0
49	436	10	10000	5	1	0	5	0
48	437	10	10000	5	1	0	5	0
46	438	10	10000	5	1	0	5	0
44	439	10	10000	5	1	0	5	0
44	440	10	10000	5	1	0	5	0
45	440	10	10000	5	1	0	5	0
46	441	10	10000	5	1	0	5	0
48	443	10	10000	5	1	0	5	0
48	444	10	10000	5	1	0	5	0
46	445	10	10000	5	1	0	5	0
46	446	10	10000	5	1	0	5	0
45	447	10	10000	5	1	0	5	0
44	448	10	10000	5	1	0	5	0
44	449	10	10000	5	1	0	5	0
44	450	10	10000	5	1	0	5	0
45	450	10	10000	5	1	0	5	0
45	451	10	10000	5	1	0	5	0
43	453	10	10000	5	1	0	5	0
42	454	10	10000	5	1	0	5	0
42	455	10	10000	5	1	0	5	0
42	456	10	10000	5	1	0	5	0
41	457	10	10000	5	1	0	5	0
42	458	10	10000	5	1	0	5	0
43	459	10	10000	5	1	0	5	0
45	460	10	10000	5	1	0	5	0
47	460	10	10000	5	1	0	5	0
48	461	10	10000	5	1	0	5	0
49	463	10	10000	5	1	0	5	0
48	464	10	10000	5	1	0	5	0
46	465	10	10000	5	1	0	5	0
45	466	10	10000	5	1	0	5	0
45	467	10	10000	5	1	0	5	0
44	468	10	10000	5	1	0	5	0
42	469	10	10000	5	1	0	5	0
41	470	10	10000	5	1	0	5	0
42	470	10	10000	5	1	0	5	0
44	471	10	10000	5	1	0	5	0
45	473	10	10000	5	1	0	5	0
45	474	10	10000	5	1	0	5	0
45	475	10	10000	5	1	0	5	0
44	476	10	10000	5	1	0	5	0
44	477	10	10000	5	1	0	5	0
44	478	10	10000	5	1	0	5	0
43	479	10	10000	5	1	0	5	0
41	480	10	10000	5	1	0	5	0
41	480	10	10000	5	1	0	5	0
42	481	10	10000	5	1	0	5	0
44	483	10	10000	5	1	0	5	0
43	484	10	10000	5	1	0	5	0
42	485	10	10000	5	1	0	5	0
41	486	10	10000	5	1	0	5	0
40	487	10	10000	5	1	0	5	0
41	488	10	10000	5	1	0	5	0
40	489	10	10000	5	1	0	5	0
42	490	10	10000	5	1	0	5	0
43	490	10	10000	5	1	0	5	0
43	491	10	10000	5	1	0	5	0
40	493	10	10000	5	1	0	5	0
38	494	10	10000	5	1	0	5	0
41	495	10	10000	5	1	0	5	0
41	496	10	10000	5	1	0	5	0
41	497	10	10000	5	1	0	5	0
41	498	10	10000	5	1	0	5	0
40	499	10	10000	5	1	0	5	0
39	500	10	10000	5	1	0	5	0
38	500	10	10000	5	1	0	5	0
36	501	10	10000	5	1	0	5	0
38	503	10	10000	5	1	0	5	1
37	504	10	10000	5	1	0	5	1
37	505	10	10000	5	1	0	5	1
36	506	10	10000	5	1	0	5	1
35	507	10	10000	5	1	0	5	1
35	508	10	10000	5	1	0	5	1
35	509	10	10000	5	1	0	5	1
36	510	10	10000	5	1	0	5	1
38	510	10	10000	5	1	0	5	1
38	511	10	10000	5	1	0	5	1
35	513	10	10000	5	1	0	5	1
33	514	10	10000	5	1	0	5	1
34	515	10	10000	5	1	0	5	1
36	516	10	10000	5	1	0	5	1
37	517	10	10000	5	1	0	5	1
37	518	10	10000	5	1	0	5	1
37	519	10	10000	5	1	0	5	1
38	520	10	10000	5	1	0	5	1
36	520	10	10000	5	1	0	5	1
35	521	10	10000	5	1	0	5	1
36	523	10	10000	5	1	0	5	1
37	524	10	10000	5	1	0	5	1
36	525	10	10000	5	1	0	5	1
36	526	10	10000	5	1	0	5	1
37	527	10	10000	5	1	0	5	1
38	528	10	10000	5	1	0	5	1
37	529	10	10000	5	1	0	5	1
35	530	10	10000	5	1	0	5	1
34	530	10	10000	5	1	0	5	1
34	531	10	10000	5	1	0	5	1
32	533	10	10000	5	1	0	5	1
31	534	10	10000	5	1	0	5	1
32	535	10	10000	5	1	0	5	1
34	536	10	10000	5	1	0	5	1
36	537	10	10000	5	1	0	5	1
36	538	10	10000	5	1	0	5	1
36	539	10	10000	5	1	0	5	1
35	540	10	10000	5	1	0	5	1
34	540	10	10000	5	1	0	5	1
33	541	10	10000	5	1	0	5	1
34	543	10	10000	5	1	0	5	1
34	544	10	10000	5	1	0	5	1
34	545	10	10000	5	1	0	5	1
35	546	10	10000	5	1	0	5	1
35	547	10	10000	5	1	0	5	1
34	548	10	10000	5	1	0	5	1
32	549	10	10000	5	1	0	5	1
32	550	10	10000	5	1	0	5	1
33	550	10	10000	5	1	0	5	1
33	551	10	10000	5	1	0	5	1
32	553	10	10000	5	1	0	5	0
31	554	10	10000	5	1	0	5	0
30	555	10	10000	5	1	0	5	0
30	556	10	10000	5	1	0	5	0
30	557	10	10000	5	1	0	5	0
29	558	10	10000	5	1	0	5	0
30	559	10	10000	5	1	0	5	0
30	560	10	10000	5	1	0	5	0
32	560	10	10000	5	1	0	5	0
33	561	10	10000	5	1	0	5	0
35	563	10	10000	5	1	0	5	0
35	564	10	10000	5	1	0	5	0
34	565	10	10000	5	1	0	5	0
33	566	10	10000	5	1	0	5	0
32	567	10	10000	5	1	0	5	0
31	568	10	10000	5	1	0	5	0
30	569	10	10000	5	1	0	5	0
31	570	10	10000	5	1	0	5	0
32	570	10	10000	5	1	0	5	0
31	571	10	10000	5	1	0	5	0
29	573	10	10000	5	1	0	5	0
28	574	10	10000	5	1	0	5	0
30	575	10	10000	5	1	0	5	0
32	576	10	10000	5	1	0	5	0
32	577	10	10000	5	1	0	5	0
32	578	10	10000	5	1	0	5	0
32	579	10	10000	5	1	0	5	0
32	580	10	10000	5	1	0	5	0
31	580	10	10000	5	1	0	5	0
32	581	10	10000	5	1	0	5	0
36	583	10	10000	5	1	0	5	0
46	584	10	10000	5	1	0	5	0
52	585	10	10000	5	1	0	5	0
72	586	10	10000	5	1	0	5	0
80	587	10	10000	5	1	0	5	0
109	588	10	10000	5	1	0	5	0
131	589	10	10000	5	1	0	5	0
179	590	10	10000	5	1	0	5	0
205	590	10	10000	5	1	0	5	0
294	591	10	10000	5	1	0	5	0
377	593	10	10000	5	1	0	5	0
386	594	10	10000	5	1	0	5	0
433	595	10	10000	5	1	0	5	0
483	596	10	10000	5	1	0	5	0
473	597	10	10000	5	1	0	5	0
469	598	10	10000	5	1	0	5	0
501	599	10	10000	5	1	0	5	0
496	600	10	10000	5	1	0	5	0
499	600	10	10000	5	1	0	5	0
515	601	10	10000	5	1	0	5	0
601	603	10	10000	5	1	0	5	0
645	604	10	10000	5	1	0	5	0
677	605	10	10000	5	1	0	5	0
774	606	10	10000	5	1	0	5	0
794	607	10	10000	5	1	0	5	0
858	608	10	10000	5	1	0	5	0
844	609	10	10000	5	1	0	5	0
839	610	10	10000	5	1	0	5	0
812	610	10	10000	5	1	0	5	0
778	611	10	10000	5	1	0	5	0
766	613	10	10000	5	1	0	5	0
758	614	10	10000	5	1	0	5	0
860	615	10	10000	5	1	0	5	0
890	616	10	10000	5	1	0	5	0
855	617	10	10000	5	1	0	5	0
836	618	10	10000	5	1	0	5	0
836	619	10	10000	5	1	0	5	0
817	620	10	10000	5	1	0	5	0
784	620	10	10000	5	1	0	5	0
760	621	10	10000	5	1	0	5	0
749	623	10	10000	5	1	0	5	0
745	624	10	10000	5	1	0	5	0
752	625	10	10000	5	1	0	5	0
763	626	10	10000	5	1	0	5	0
773	627	10	10000	5	1	0	5	0
784	628	10	10000	5	1	0	5	0
796	629	10	10000	5	1	0	5	0
810	630	10	10000	5	1	0	5	0
826	630	10	10000	5	1	0	5	0
836	631	10	10000	5	1	0	5	0
840	633	10	10000	5	1	0	5	0
841	634	10	10000	5	1	0	5	0
838	635	10	10000	5	1	0	5	0
833	636	10	10000	5	1	0	5	0
827	637	10	10000	5	1	0	5	0
821	638	10	10000	5	1	0	5	0
811	639	10	10000	5	1	0	5	0
802	640	10	10000	5	1	0	5	0
791	640	10	10000	5	1	0	5	0
779	641	10	10000	5	1	0	5	0
766	643	10	10000	5	1	0	5	0
748	644	10	10000	5	1	0	5	0
724	645	10	10000	5	1	0	5	0
692	646	10	10000	5	1	0	5	0
663	647	10	10000	5	1	0	5	0
637	648	10	10000	5	1	0	5	0
616	649	10	10000	5	1	0	5	0
598	650	10	10000	5	1	0	5	0
582	650	10	10000	5	1	0	5	0
571	651	10	10000	5	1	0	5	0
562	653	10	10000	5	1	0	5	0
560	654	10	10000	5	1	0	5	0
564	655	10	10000	5	1	0	5	0
567	656	10	10000	5	1	0	5	0
572	657	10	10000	5	1	0	5	0
580	658	10	10000	5	1	0	5	0
588	659	10	10000	5	1	0	5	0
598	660	10	10000	5	1	0	5	0
608	660	10	10000	5	1	0	5	0
620	661	10	10000	5	1	0	5	0
635	663	10	10000	5	1	0	5	0
651	664	10	10000	5	1	0	5	0
668	665	10	10000	5	1	0	5	0
689	666	10	10000	5	1	0	5	0
710	667	10	10000	5	1	0	5	0
729	668	10	10000	5	1	0	5	0
743	669	10	10000	5	1	0	5	0
755	670	10	10000	5	1	0	5	0
765	670	10	10000	5	1	0	5	0
776	671	10	10000	5	1	0	5	0
781	673	10	10000	5	1	0	5	0
789	674	10	10000	5	1	0	5	0
799	675	10	10000	5	1	0	5	0
807	676	10	10000	5	1	0	5	0
812	677	10	10000	5	1	0	5	0
816	678	10	10000	5	1	0	5	0
816	679	10	10000	5	1	0	5	0
814	680	10	10000	5	1	0	5	0
808	680	10	10000	5	1	0	5	0
801	681	10	10000	5	1	0	5	0
795	683	10	10000	5	1	0	5	0
787	684	10	10000	5	1	0	5	0
778	685	10	10000	5	1	0	5	0
772	686	10	10000	5	1	0	5	0
762	687	10	10000	5	1	0	5	0
749	688	10	10000	5	1	0	5	0
734	689	10	10000	5	1	0	5	0
718	690	10	10000	5	1	0	5	0
699	690	10	10000	5	1	0	5	0
681	691	10	10000	5	1	0	5	0
659	693	10	10000	5	1	0	5	0
639	694	10	10000	5	1	0	5	0
622	695	10	10000	5	1	0	5	0
602	696	10	10000	5	1	0	5	0
578	697	10	10000	5	1	0	5	0
553	698	10	10000	5	1	0	5	0
528	699	10	10000	5	1	0	5	0
503	700	10	10000	5	1	0	5	0
481	700	10	10000	5	1	0	5	0
461	701	10	10000	5	1	0	5	0
443	703	10	10000	5	1	0	5	0
427	704	10	10000	5	1	0	5	0
408	705	10	10000	5	1	0	5	0
390	706	10	10000	5	1	0	5	0
372	707	10	10000	5	1	0	5	0
355	708	10	10000	5	1	0	5	0
340	709	10	10000	5	1	0	5	0
327	710	10	10000	5	1	0	5	0
316	710	10	10000	5	1	0	5	0
308	711	10	10000	5	1	0	5	0
300	713	10	10000	5	1	0	5	0
292	714	10	10000	5	1	0	5	0
287	715	10	10000	5	1	0	5	0
283	716	10	10000	5	1	0	5	0
280	717	10	10000	5	1	0	5	0
278	718	10	10000	5	1	0	5	0
276	719	10	10000	5	1	0	5	0
275	720	10	10000	5	1	0	5	0
274	720	10	10000	5	1	0	5	0
273	721	10	10000	5	1	0	5	0
274	723	10	10000	5	1	0	5	0
273	724	10	10000	5	1	0	5	0
270	725	10	10000	5	1	0	5	0
267	726	10	10000	5	1	0	5	0
264	727	10	10000	5	1	0	5	0
260	728	10	10000	5	1	0	5	0
257	729	10	10000	5	1	0	5	0
256	730	10	10000	5	1	0	5	0
255	730	10	10000	5	1	0	5	0
254	731	10	10000	5	1	0	5	0
251	733	10	10000	5	1	0	5	0
248	734	10	10000	5	1	0	5	0
244	735	10	10000	5	1	0	5	0
241	736	10	10000	5	1	0	5	0
240	737	10	10000	5	1	0	5	0
240	738	10	10000	5	1	0	5	0
241	739	10	10000	5	1	0	5	0
241	740	10	10000	5	1	0	5	0
240	740	10	10000	5	1	0	5	0
240	741	10	10000	5	1	0	5	0
241	743	10	10000	5	1	0	5	0
240	744	10	10000	5	1	0	5	0
237	745	10	10000	5	1	0	5	0
232	746	10	10000	5	1	0	5	0
