value	EMG	Stimulus	EMG_sensitivity	Total_Trial_Nr	practise	acq	probe_nr	Startle_Probe
48	2	0	10000	1	1	0	1	0
49	3	0	10000	1	1	0	1	0
50	4	0	10000	1	1	0	1	0
50	5	0	10000	1	1	0	1	0
48	6	0	10000	1	1	0	1	0
48	7	0	10000	1	1	0	1	0
48	8	0	10000	1	1	0	1	0
47	9	0	10000	1	1	0	1	0
47	10	0	10000	1	1	0	1	0
46	11	0	10000	1	1	0	1	0
45	12	0	10000	1	1	0	1	0
42	13	0	10000	1	1	0	1	0
41	14	0	10000	1	1	0	1	0
43	15	0	10000	1	1	0	1	0
45	16	0	10000	1	1	0	1	0
46	17	0	10000	1	1	0	1	0
47	18	0	10000	1	1	0	1	0
48	19	0	10000	1	1	0	1	0
49	20	0	10000	1	1	0	1	0
51	21	0	10000	1	1	0	1	0
53	22	0	10000	1	1	0	1	0
56	23	0	10000	1	1	0	1	0
57	24	0	10000	1	1	0	1	0
56	25	0	10000	1	1	0	1	0
55	26	0	10000	1	1	0	1	0
54	27	0	10000	1	1	0	1	0
51	28	0	10000	1	1	0	1	0
49	29	0	10000	1	1	0	1	0
48	30	0	10000	1	1	0	1	0
47	31	0	10000	1	1	0	1	0
47	32	0	10000	1	1	0	1	0
45	33	0	10000	1	1	0	1	0
47	34	0	10000	1	1	0	1	0
46	35	0	10000	1	1	0	1	0
47	36	0	10000	1	1	0	1	0
49	37	0	10000	1	1	0	1	0
49	38	0	10000	1	1	0	1	0
50	39	0	10000	1	1	0	1	0
48	40	0	10000	1	1	0	1	0
45	41	0	10000	1	1	0	1	0
44	42	0	10000	1	1	0	1	0
44	43	0	10000	1	1	0	1	0
42	44	0	10000	1	1	0	1	0
40	45	0	10000	1	1	0	1	0
38	46	0	10000	1	1	0	1	0
37	47	0	10000	1	1	0	1	0
36	48	0	10000	1	1	0	1	0
34	49	0	10000	1	1	0	1	0
34	50	0	10000	1	1	0	1	0
35	51	0	10000	1	1	0	1	0
33	52	0	10000	1	1	0	1	0
30	53	0	10000	1	1	0	1	0
29	54	0	10000	1	1	0	1	0
30	55	0	10000	1	1	0	1	0
29	56	0	10000	1	1	0	1	0
28	57	0	10000	1	1	0	1	0
28	58	0	10000	1	1	0	1	0
28	59	0	10000	1	1	0	1	0
26	60	0	10000	1	1	0	1	0
25	61	0	10000	1	1	0	1	0
25	62	0	10000	1	1	0	1	0
27	63	0	10000	1	1	0	1	0
26	64	0	10000	1	1	0	1	0
25	65	0	10000	1	1	0	1	0
24	66	0	10000	1	1	0	1	0
24	67	0	10000	1	1	0	1	0
24	68	0	10000	1	1	0	1	0
23	69	0	10000	1	1	0	1	0
24	70	0	10000	1	1	0	1	0
25	71	0	10000	1	1	0	1	0
25	72	0	10000	1	1	0	1	0
25	73	0	10000	1	1	0	1	0
27	74	0	10000	1	1	0	1	0
28	75	0	10000	1	1	0	1	0
29	76	0	10000	1	1	0	1	0
29	77	0	10000	1	1	0	1	0
29	78	0	10000	1	1	0	1	0
28	79	0	10000	1	1	0	1	0
27	80	0	10000	1	1	0	1	0
26	81	0	10000	1	1	0	1	0
26	82	0	10000	1	1	0	1	0
26	83	0	10000	1	1	0	1	0
25	84	0	10000	1	1	0	1	0
24	85	0	10000	1	1	0	1	0
24	86	0	10000	1	1	0	1	0
24	87	0	10000	1	1	0	1	0
24	88	0	10000	1	1	0	1	0
23	89	0	10000	1	1	0	1	0
24	90	0	10000	1	1	0	1	0
23	91	0	10000	1	1	0	1	0
22	92	0	10000	1	1	0	1	0
20	93	0	10000	1	1	0	1	0
21	94	0	10000	1	1	0	1	0
22	95	0	10000	1	1	0	1	0
21	96	0	10000	1	1	0	1	0
21	97	0	10000	1	1	0	1	0
22	98	0	10000	1	1	0	1	0
23	99	0	10000	1	1	0	1	0
22	100	0	10000	1	1	0	1	0
21	101	0	10000	1	1	0	1	0
21	102	0	10000	1	1	0	1	0
23	103	0	10000	1	1	0	1	0
22	104	0	10000	1	1	0	1	0
23	105	0	10000	1	1	0	1	0
26	106	0	10000	1	1	0	1	0
27	107	0	10000	1	1	0	1	0
28	108	0	10000	1	1	0	1	0
29	109	0	10000	1	1	0	1	0
29	110	0	10000	1	1	0	1	0
28	111	0	10000	1	1	0	1	0
28	112	0	10000	1	1	0	1	0
26	113	0	10000	1	1	0	1	0
26	114	0	10000	1	1	0	1	0
25	115	0	10000	1	1	0	1	0
25	116	0	10000	1	1	0	1	0
25	117	0	10000	1	1	0	1	0
24	118	0	10000	1	1	0	1	0
23	119	0	10000	1	1	0	1	0
23	120	0	10000	1	1	0	1	0
24	121	0	10000	1	1	0	1	0
25	122	0	10000	1	1	0	1	0
28	123	0	10000	1	1	0	1	0
28	124	0	10000	1	1	0	1	0
28	125	0	10000	1	1	0	1	0
29	126	0	10000	1	1	0	1	0
28	127	0	10000	1	1	0	1	0
29	128	0	10000	1	1	0	1	0
29	129	0	10000	1	1	0	1	0
28	130	0	10000	1	1	0	1	0
28	131	0	10000	1	1	0	1	0
26	132	0	10000	1	1	0	1	0
24	133	0	10000	1	1	0	1	0
23	134	0	10000	1	1	0	1	0
24	135	0	10000	1	1	0	1	0
23	136	0	10000	1	1	0	1	0
23	137	0	10000	1	1	0	1	0
23	138	0	10000	1	1	0	1	0
22	139	0	10000	1	1	0	1	0
20	140	0	10000	1	1	0	1	0
21	141	0	10000	1	1	0	1	0
21	142	0	10000	1	1	0	1	0
23	143	0	10000	1	1	0	1	0
23	144	0	10000	1	1	0	1	0
23	145	0	10000	1	1	0	1	0
23	146	0	10000	1	1	0	1	0
23	147	0	10000	1	1	0	1	0
24	148	0	10000	1	1	0	1	0
26	149	0	10000	1	1	0	1	0
28	150	0	10000	1	1	0	1	0
28	151	0	10000	1	1	0	1	0
28	152	0	10000	1	1	0	1	0
25	153	0	10000	1	1	0	1	0
25	154	0	10000	1	1	0	1	0
25	155	0	10000	1	1	0	1	0
26	156	0	10000	1	1	0	1	0
26	157	0	10000	1	1	0	1	0
25	158	0	10000	1	1	0	1	0
25	159	0	10000	1	1	0	1	0
23	160	0	10000	1	1	0	1	0
22	161	0	10000	1	1	0	1	0
22	162	0	10000	1	1	0	1	0
25	163	0	10000	1	1	0	1	0
25	164	0	10000	1	1	0	1	0
23	165	0	10000	1	1	0	1	0
23	166	0	10000	1	1	0	1	0
23	167	0	10000	1	1	0	1	0
22	168	0	10000	1	1	0	1	0
21	169	0	10000	1	1	0	1	0
21	170	0	10000	1	1	0	1	0
21	171	0	10000	1	1	0	1	0
20	172	0	10000	1	1	0	1	0
18	173	0	10000	1	1	0	1	0
18	174	0	10000	1	1	0	1	0
19	175	0	10000	1	1	0	1	0
18	176	0	10000	1	1	0	1	0
18	177	0	10000	1	1	0	1	0
19	178	0	10000	1	1	0	1	0
19	179	0	10000	1	1	0	1	0
18	180	0	10000	1	1	0	1	0
16	181	0	10000	1	1	0	1	0
17	182	0	10000	1	1	0	1	0
18	183	0	10000	1	1	0	1	0
18	184	0	10000	1	1	0	1	0
18	185	0	10000	1	1	0	1	0
16	186	0	10000	1	1	0	1	0
16	187	0	10000	1	1	0	1	0
16	188	0	10000	1	1	0	1	0
16	189	0	10000	1	1	0	1	0
17	190	0	10000	1	1	0	1	0
17	191	0	10000	1	1	0	1	0
17	192	0	10000	1	1	0	1	0
15	193	0	10000	1	1	0	1	0
15	194	0	10000	1	1	0	1	0
15	195	0	10000	1	1	0	1	0
16	196	0	10000	1	1	0	1	0
16	197	0	10000	1	1	0	1	0
16	198	0	10000	1	1	0	1	0
17	199	0	10000	1	1	0	1	0
17	200	0	10000	1	1	0	1	0
15	201	0	10000	1	1	0	1	0
16	202	0	10000	1	1	0	1	0
19	203	0	10000	1	1	0	1	0
18	204	0	10000	1	1	0	1	0
17	205	0	10000	1	1	0	1	0
18	206	0	10000	1	1	0	1	0
20	207	0	10000	1	1	0	1	0
21	208	0	10000	1	1	0	1	0
21	209	0	10000	1	1	0	1	0
22	210	0	10000	1	1	0	1	0
22	211	0	10000	1	1	0	1	0
22	212	0	10000	1	1	0	1	0
20	213	0	10000	1	1	0	1	0
21	214	0	10000	1	1	0	1	0
20	215	0	10000	1	1	0	1	0
20	216	0	10000	1	1	0	1	0
21	217	0	10000	1	1	0	1	0
20	218	0	10000	1	1	0	1	0
20	219	0	10000	1	1	0	1	0
19	220	0	10000	1	1	0	1	0
18	221	0	10000	1	1	0	1	0
19	222	0	10000	1	1	0	1	0
21	223	0	10000	1	1	0	1	0
20	224	0	10000	1	1	0	1	0
20	225	0	10000	1	1	0	1	0
19	226	0	10000	1	1	0	1	0
18	227	0	10000	1	1	0	1	0
19	228	0	10000	1	1	0	1	0
17	229	0	10000	1	1	0	1	0
17	230	0	10000	1	1	0	1	0
18	231	0	10000	1	1	0	1	0
17	232	0	10000	1	1	0	1	0
15	233	0	10000	1	1	0	1	0
15	234	0	10000	1	1	0	1	0
15	235	0	10000	1	1	0	1	0
16	236	0	10000	1	1	0	1	0
15	237	0	10000	1	1	0	1	0
17	238	0	10000	1	1	0	1	0
18	239	0	10000	1	1	0	1	0
16	240	0	10000	1	1	0	1	0
16	241	0	10000	1	1	0	1	0
17	242	0	10000	1	1	0	1	0
19	243	0	10000	1	1	0	1	0
18	244	0	10000	1	1	0	1	0
19	245	0	10000	1	1	0	1	0
18	246	0	10000	1	1	0	1	0
19	247	0	10000	1	1	0	1	0
18	248	0	10000	1	1	0	1	0
18	249	0	10000	1	1	0	1	0
20	250	0	10000	1	1	0	1	0
20	251	0	10000	1	1	0	1	0
20	252	0	10000	1	1	0	1	0
18	253	0	10000	1	1	0	1	0
18	254	0	10000	1	1	0	1	0
20	255	0	10000	1	1	0	1	0
20	256	0	10000	1	1	0	1	0
20	257	0	10000	1	1	0	1	0
24	258	0	10000	1	1	0	1	0
24	259	0	10000	1	1	0	1	0
23	260	0	10000	1	1	0	1	0
25	261	0	10000	1	1	0	1	0
27	262	0	10000	1	1	0	1	0
30	263	0	10000	1	1	0	1	0
30	264	0	10000	1	1	0	1	0
28	265	0	10000	1	1	0	1	0
27	266	0	10000	1	1	0	1	0
27	267	0	10000	1	1	0	1	0
26	268	0	10000	1	1	0	1	0
27	269	0	10000	1	1	0	1	0
29	270	0	10000	1	1	0	1	0
28	271	0	10000	1	1	0	1	0
28	272	0	10000	1	1	0	1	0
26	273	0	10000	1	1	0	1	0
27	274	0	10000	1	1	0	1	0
28	275	0	10000	1	1	0	1	0
27	276	0	10000	1	1	0	1	0
28	277	0	10000	1	1	0	1	0
27	278	0	10000	1	1	0	1	0
28	279	0	10000	1	1	0	1	0
26	280	0	10000	1	1	0	1	0
25	281	0	10000	1	1	0	1	0
24	282	0	10000	1	1	0	1	0
26	283	0	10000	1	1	0	1	0
26	284	0	10000	1	1	0	1	0
27	285	0	10000	1	1	0	1	0
28	286	0	10000	1	1	0	1	0
28	287	0	10000	1	1	0	1	0
29	288	0	10000	1	1	0	1	0
29	289	0	10000	1	1	0	1	0
28	290	0	10000	1	1	0	1	0
29	291	0	10000	1	1	0	1	0
29	292	0	10000	1	1	0	1	0
26	293	0	10000	1	1	0	1	0
27	294	0	10000	1	1	0	1	0
27	295	0	10000	1	1	0	1	0
28	296	0	10000	1	1	0	1	0
28	297	0	10000	1	1	0	1	0
28	298	0	10000	1	1	0	1	0
27	299	0	10000	1	1	0	1	0
27	300	0	10000	1	1	0	1	0
26	301	0	10000	1	1	0	1	0
25	302	0	10000	1	1	0	1	0
26	303	0	10000	1	1	0	1	0
27	304	0	10000	1	1	0	1	0
27	305	0	10000	1	1	0	1	0
27	306	0	10000	1	1	0	1	0
27	307	0	10000	1	1	0	1	0
26	308	0	10000	1	1	0	1	0
25	309	0	10000	1	1	0	1	0
25	310	0	10000	1	1	0	1	0
25	311	0	10000	1	1	0	1	0
24	312	0	10000	1	1	0	1	0
21	313	0	10000	1	1	0	1	0
23	314	0	10000	1	1	0	1	0
26	315	0	10000	1	1	0	1	0
28	316	0	10000	1	1	0	1	0
28	317	0	10000	1	1	0	1	0
26	318	0	10000	1	1	0	1	0
26	319	0	10000	1	1	0	1	0
24	320	0	10000	1	1	0	1	0
23	321	0	10000	1	1	0	1	0
23	322	0	10000	1	1	0	1	0
26	323	0	10000	1	1	0	1	0
25	324	0	10000	1	1	0	1	0
25	325	0	10000	1	1	0	1	0
24	326	0	10000	1	1	0	1	0
27	327	0	10000	1	1	0	1	0
28	328	0	10000	1	1	0	1	0
28	329	0	10000	1	1	0	1	0
29	330	0	10000	1	1	0	1	0
28	331	0	10000	1	1	0	1	0
29	332	0	10000	1	1	0	1	0
26	333	0	10000	1	1	0	1	0
24	334	0	10000	1	1	0	1	0
25	335	0	10000	1	1	0	1	0
24	336	0	10000	1	1	0	1	0
23	337	0	10000	1	1	0	1	0
22	338	0	10000	1	1	0	1	0
22	339	0	10000	1	1	0	1	0
21	340	0	10000	1	1	0	1	0
20	341	0	10000	1	1	0	1	0
20	342	0	10000	1	1	0	1	0
22	343	0	10000	1	1	0	1	0
23	344	0	10000	1	1	0	1	0
23	345	0	10000	1	1	0	1	0
23	346	0	10000	1	1	0	1	0
27	347	0	10000	1	1	0	1	0
26	348	0	10000	1	1	0	1	0
25	349	0	10000	1	1	0	1	0
25	350	0	10000	1	1	0	1	0
24	351	0	10000	1	1	0	1	0
23	352	0	10000	1	1	0	1	0
20	353	0	10000	1	1	0	1	0
20	354	0	10000	1	1	0	1	0
20	355	0	10000	1	1	0	1	0
20	356	0	10000	1	1	0	1	0
20	357	0	10000	1	1	0	1	0
22	358	0	10000	1	1	0	1	0
21	359	0	10000	1	1	0	1	0
20	360	0	10000	1	1	0	1	0
19	361	0	10000	1	1	0	1	0
19	362	0	10000	1	1	0	1	0
21	363	0	10000	1	1	0	1	0
21	364	0	10000	1	1	0	1	0
20	365	0	10000	1	1	0	1	0
19	366	0	10000	1	1	0	1	0
22	367	0	10000	1	1	0	1	0
24	368	0	10000	1	1	0	1	0
25	369	0	10000	1	1	0	1	0
25	370	0	10000	1	1	0	1	0
29	371	0	10000	1	1	0	1	0
30	372	0	10000	1	1	0	1	0
29	373	0	10000	1	1	0	1	0
29	374	0	10000	1	1	0	1	0
28	375	0	10000	1	1	0	1	0
29	376	0	10000	1	1	0	1	0
30	377	0	10000	1	1	0	1	0
30	378	0	10000	1	1	0	1	0
30	379	0	10000	1	1	0	1	0
31	380	0	10000	1	1	0	1	0
30	381	0	10000	1	1	0	1	0
29	382	0	10000	1	1	0	1	0
32	383	0	10000	1	1	0	1	0
30	384	0	10000	1	1	0	1	0
29	385	0	10000	1	1	0	1	0
28	386	0	10000	1	1	0	1	0
27	387	0	10000	1	1	0	1	0
27	388	0	10000	1	1	0	1	0
26	389	0	10000	1	1	0	1	0
26	390	0	10000	1	1	0	1	0
27	391	0	10000	1	1	0	1	0
26	392	0	10000	1	1	0	1	0
23	393	0	10000	1	1	0	1	0
24	394	0	10000	1	1	0	1	0
24	395	0	10000	1	1	0	1	0
23	396	0	10000	1	1	0	1	0
25	397	0	10000	1	1	0	1	0
28	398	0	10000	1	1	0	1	0
28	399	0	10000	1	1	0	1	0
27	400	0	10000	1	1	0	1	0
25	401	0	10000	1	1	0	1	0
24	402	0	10000	1	1	0	1	0
28	403	0	10000	1	1	0	1	0
28	404	0	10000	1	1	0	1	0
28	405	0	10000	1	1	0	1	0
28	406	0	10000	1	1	0	1	0
28	407	0	10000	1	1	0	1	0
27	408	0	10000	1	1	0	1	0
26	409	0	10000	1	1	0	1	0
26	410	0	10000	1	1	0	1	0
26	411	0	10000	1	1	0	1	0
27	412	0	10000	1	1	0	1	0
26	413	0	10000	1	1	0	1	0
28	414	0	10000	1	1	0	1	0
27	415	0	10000	1	1	0	1	0
27	416	0	10000	1	1	0	1	0
26	417	0	10000	1	1	0	1	0
26	418	0	10000	1	1	0	1	0
25	419	0	10000	1	1	0	1	0
24	420	0	10000	1	1	0	1	0
23	421	0	10000	1	1	0	1	0
23	422	0	10000	1	1	0	1	0
26	423	0	10000	1	1	0	1	0
28	424	0	10000	1	1	0	1	0
28	425	0	10000	1	1	0	1	0
28	426	0	10000	1	1	0	1	0
27	427	0	10000	1	1	0	1	0
29	428	0	10000	1	1	0	1	0
31	429	0	10000	1	1	0	1	0
32	430	0	10000	1	1	0	1	0
31	431	0	10000	1	1	0	1	0
31	432	0	10000	1	1	0	1	0
29	433	0	10000	1	1	0	1	0
29	434	0	10000	1	1	0	1	0
29	435	0	10000	1	1	0	1	0
29	436	0	10000	1	1	0	1	0
30	437	0	10000	1	1	0	1	0
29	438	0	10000	1	1	0	1	0
29	439	0	10000	1	1	0	1	0
28	440	0	10000	1	1	0	1	0
28	441	0	10000	1	1	0	1	0
26	442	0	10000	1	1	0	1	0
29	443	0	10000	1	1	0	1	0
28	444	0	10000	1	1	0	1	0
27	445	0	10000	1	1	0	1	0
27	446	0	10000	1	1	0	1	0
27	447	0	10000	1	1	0	1	0
27	448	0	10000	1	1	0	1	0
27	449	0	10000	1	1	0	1	0
28	450	0	10000	1	1	0	1	0
29	451	0	10000	1	1	0	1	0
31	452	0	10000	1	1	0	1	0
29	453	0	10000	1	1	0	1	0
32	454	0	10000	1	1	0	1	0
33	455	0	10000	1	1	0	1	0
33	456	0	10000	1	1	0	1	0
33	457	0	10000	1	1	0	1	0
33	458	0	10000	1	1	0	1	0
33	459	0	10000	1	1	0	1	0
35	460	0	10000	1	1	0	1	0
36	461	0	10000	1	1	0	1	0
40	462	0	10000	1	1	0	1	0
44	463	0	10000	1	1	0	1	0
42	464	0	10000	1	1	0	1	0
44	465	0	10000	1	1	0	1	0
46	466	0	10000	1	1	0	1	0
46	467	0	10000	1	1	0	1	0
45	468	0	10000	1	1	0	1	0
45	469	0	10000	1	1	0	1	0
46	470	0	10000	1	1	0	1	0
45	471	0	10000	1	1	0	1	0
44	472	0	10000	1	1	0	1	0
40	473	0	10000	1	1	0	1	0
39	474	0	10000	1	1	0	1	0
37	475	0	10000	1	1	0	1	0
37	476	0	10000	1	1	0	1	0
36	477	0	10000	1	1	0	1	0
35	478	0	10000	1	1	0	1	0
34	479	0	10000	1	1	0	1	0
32	480	0	10000	1	1	0	1	0
31	481	0	10000	1	1	0	1	0
30	482	0	10000	1	1	0	1	0
32	483	0	10000	1	1	0	1	0
30	484	0	10000	1	1	0	1	0
29	485	0	10000	1	1	0	1	0
28	486	0	10000	1	1	0	1	0
28	487	0	10000	1	1	0	1	0
29	488	0	10000	1	1	0	1	0
27	489	0	10000	1	1	0	1	0
27	490	0	10000	1	1	0	1	0
27	491	0	10000	1	1	0	1	0
28	492	0	10000	1	1	0	1	0
27	493	0	10000	1	1	0	1	0
28	494	0	10000	1	1	0	1	0
28	495	0	10000	1	1	0	1	0
28	496	0	10000	1	1	0	1	0
29	497	0	10000	1	1	0	1	0
31	498	0	10000	1	1	0	1	0
33	499	0	10000	1	1	0	1	0
35	500	0	10000	1	1	0	1	0
36	501	0	10000	1	1	0	1	0
37	541	0	10000	1	1	0	1	1
38	542	0	10000	1	1	0	1	1
37	543	0	10000	1	1	0	1	1
38	544	0	10000	1	1	0	1	1
36	545	0	10000	1	1	0	1	1
34	546	0	10000	1	1	0	1	1
35	547	0	10000	1	1	0	1	1
35	548	0	10000	1	1	0	1	1
37	549	0	10000	1	1	0	1	1
39	550	0	10000	1	1	0	1	1
41	551	0	10000	1	1	0	1	1
40	552	0	10000	1	1	0	1	1
39	553	0	10000	1	1	0	1	1
38	554	0	10000	1	1	0	1	1
39	555	0	10000	1	1	0	1	1
37	556	0	10000	1	1	0	1	1
37	557	0	10000	1	1	0	1	1
37	558	0	10000	1	1	0	1	1
36	559	0	10000	1	1	0	1	1
34	560	0	10000	1	1	0	1	1
34	561	0	10000	1	1	0	1	1
36	562	0	10000	1	1	0	1	1
37	563	0	10000	1	1	0	1	1
39	564	0	10000	1	1	0	1	1
40	565	0	10000	1	1	0	1	1
38	566	0	10000	1	1	0	1	1
38	567	0	10000	1	1	0	1	1
36	568	0	10000	1	1	0	1	1
36	569	0	10000	1	1	0	1	1
35	570	0	10000	1	1	0	1	1
34	571	0	10000	1	1	0	1	1
32	572	0	10000	1	1	0	1	1
32	573	0	10000	1	1	0	1	1
33	574	0	10000	1	1	0	1	1
33	575	0	10000	1	1	0	1	1
32	576	0	10000	1	1	0	1	1
32	577	0	10000	1	1	0	1	1
32	578	0	10000	1	1	0	1	1
33	579	0	10000	1	1	0	1	1
32	580	0	10000	1	1	0	1	1
33	544	0	10000	1	1	0	1	1
36	545	0	10000	1	1	0	1	1
36	546	0	10000	1	1	0	1	1
37	547	0	10000	1	1	0	1	1
37	546	0	10000	1	1	0	1	1
37	547	0	10000	1	1	0	1	1
36	548	0	10000	1	1	0	1	1
36	549	0	10000	1	1	0	1	1
35	550	0	10000	1	1	0	1	1
35	551	0	10000	1	1	0	1	1
34	552	0	10000	1	1	0	1	0
32	553	0	10000	1	1	0	1	0
32	554	0	10000	1	1	0	1	0
32	555	0	10000	1	1	0	1	0
32	556	0	10000	1	1	0	1	0
31	557	0	10000	1	1	0	1	0
30	558	0	10000	1	1	0	1	0
30	559	0	10000	1	1	0	1	0
28	560	0	10000	1	1	0	1	0
27	561	0	10000	1	1	0	1	0
27	562	0	10000	1	1	0	1	0
30	563	0	10000	1	1	0	1	0
28	564	0	10000	1	1	0	1	0
27	565	0	10000	1	1	0	1	0
27	566	0	10000	1	1	0	1	0
26	567	0	10000	1	1	0	1	0
25	568	0	10000	1	1	0	1	0
24	569	0	10000	1	1	0	1	0
25	570	0	10000	1	1	0	1	0
28	571	0	10000	1	1	0	1	0
28	572	0	10000	1	1	0	1	0
26	573	0	10000	1	1	0	1	0
27	574	0	10000	1	1	0	1	0
27	575	0	10000	1	1	0	1	0
28	576	0	10000	1	1	0	1	0
32	577	0	10000	1	1	0	1	0
31	578	0	10000	1	1	0	1	0
32	579	0	10000	1	1	0	1	0
33	580	0	10000	1	1	0	1	0
31	581	0	10000	1	1	0	1	0
31	582	0	10000	1	1	0	1	0
32	583	0	10000	1	1	0	1	0
30	584	0	10000	1	1	0	1	0
30	585	0	10000	1	1	0	1	0
28	586	0	10000	1	1	0	1	0
27	587	0	10000	1	1	0	1	0
27	588	0	10000	1	1	0	1	0
25	589	0	10000	1	1	0	1	0
28	590	0	10000	1	1	0	1	0
29	591	0	10000	1	1	0	1	0
28	592	0	10000	1	1	0	1	0
25	593	0	10000	1	1	0	1	0
25	594	0	10000	1	1	0	1	0
25	595	0	10000	1	1	0	1	0
26	596	0	10000	1	1	0	1	0
27	597	0	10000	1	1	0	1	0
27	598	0	10000	1	1	0	1	0
27	599	0	10000	1	1	0	1	0
27	600	0	10000	1	1	0	1	0
27	601	0	10000	1	1	0	1	0
26	602	0	10000	1	1	0	1	0
29	603	0	10000	1	1	0	1	0
29	604	0	10000	1	1	0	1	0
28	605	0	10000	1	1	0	1	0
28	606	0	10000	1	1	0	1	0
28	607	0	10000	1	1	0	1	0
26	608	0	10000	1	1	0	1	0
26	609	0	10000	1	1	0	1	0
28	610	0	10000	1	1	0	1	0
27	611	0	10000	1	1	0	1	0
27	612	0	10000	1	1	0	1	0
24	613	0	10000	1	1	0	1	0
23	614	0	10000	1	1	0	1	0
23	615	0	10000	1	1	0	1	0
24	616	0	10000	1	1	0	1	0
25	617	0	10000	1	1	0	1	0
24	618	0	10000	1	1	0	1	0
25	619	0	10000	1	1	0	1	0
24	620	0	10000	1	1	0	1	0
24	621	0	10000	1	1	0	1	0
25	622	0	10000	1	1	0	1	0
28	623	0	10000	1	1	0	1	0
27	624	0	10000	1	1	0	1	0
25	625	0	10000	1	1	0	1	0
25	626	0	10000	1	1	0	1	0
24	627	0	10000	1	1	0	1	0
23	628	0	10000	1	1	0	1	0
23	629	0	10000	1	1	0	1	0
23	630	0	10000	1	1	0	1	0
24	631	0	10000	1	1	0	1	0
27	632	0	10000	1	1	0	1	0
25	633	0	10000	1	1	0	1	0
25	634	0	10000	1	1	0	1	0
27	635	0	10000	1	1	0	1	0
27	636	0	10000	1	1	0	1	0
29	637	0	10000	1	1	0	1	0
30	638	0	10000	1	1	0	1	0
30	639	0	10000	1	1	0	1	0
36	640	0	10000	1	1	0	1	0
49	641	0	10000	1	1	0	1	0
58	642	0	10000	1	1	0	1	0
62	643	0	10000	1	1	0	1	0
61	644	0	10000	1	1	0	1	0
61	645	0	10000	1	1	0	1	0
61	646	0	10000	1	1	0	1	0
76	647	0	10000	1	1	0	1	0
115	648	0	10000	1	1	0	1	0
127	649	0	10000	1	1	0	1	0
147	650	0	10000	1	1	0	1	0
169	651	0	10000	1	1	0	1	0
177	652	0	10000	1	1	0	1	0
176	653	0	10000	1	1	0	1	0
180	654	0	10000	1	1	0	1	0
185	655	0	10000	1	1	0	1	0
182	656	0	10000	1	1	0	1	0
176	657	0	10000	1	1	0	1	0
168	658	0	10000	1	1	0	1	0
170	659	0	10000	1	1	0	1	0
180	660	0	10000	1	1	0	1	0
186	661	0	10000	1	1	0	1	0
182	662	0	10000	1	1	0	1	0
181	663	0	10000	1	1	0	1	0
179	664	0	10000	1	1	0	1	0
176	665	0	10000	1	1	0	1	0
171	666	0	10000	1	1	0	1	0
165	667	0	10000	1	1	0	1	0
160	668	0	10000	1	1	0	1	0
152	669	0	10000	1	1	0	1	0
154	670	0	10000	1	1	0	1	0
158	671	0	10000	1	1	0	1	0
154	672	0	10000	1	1	0	1	0
148	673	0	10000	1	1	0	1	0
147	674	0	10000	1	1	0	1	0
147	675	0	10000	1	1	0	1	0
142	676	0	10000	1	1	0	1	0
141	677	0	10000	1	1	0	1	0
143	678	0	10000	1	1	0	1	0
144	679	0	10000	1	1	0	1	0
142	680	0	10000	1	1	0	1	0
140	681	0	10000	1	1	0	1	0
140	682	0	10000	1	1	0	1	0
138	683	0	10000	1	1	0	1	0
135	684	0	10000	1	1	0	1	0
130	685	0	10000	1	1	0	1	0
126	686	0	10000	1	1	0	1	0
122	687	0	10000	1	1	0	1	0
117	688	0	10000	1	1	0	1	0
113	689	0	10000	1	1	0	1	0
109	690	0	10000	1	1	0	1	0
105	691	0	10000	1	1	0	1	0
101	692	0	10000	1	1	0	1	0
95	693	0	10000	1	1	0	1	0
92	694	0	10000	1	1	0	1	0
92	695	0	10000	1	1	0	1	0
93	696	0	10000	1	1	0	1	0
93	697	0	10000	1	1	0	1	0
95	698	0	10000	1	1	0	1	0
97	699	0	10000	1	1	0	1	0
98	700	0	10000	1	1	0	1	0
102	701	0	10000	1	1	0	1	0
107	702	0	10000	1	1	0	1	0
113	703	0	10000	1	1	0	1	0
116	704	0	10000	1	1	0	1	0
121	705	0	10000	1	1	0	1	0
127	706	0	10000	1	1	0	1	0
132	707	0	10000	1	1	0	1	0
131	708	0	10000	1	1	0	1	0
129	709	0	10000	1	1	0	1	0
132	710	0	10000	1	1	0	1	0
132	711	0	10000	1	1	0	1	0
133	712	0	10000	1	1	0	1	0
132	713	0	10000	1	1	0	1	0
135	714	0	10000	1	1	0	1	0
136	715	0	10000	1	1	0	1	0
141	716	0	10000	1	1	0	1	0
149	717	0	10000	1	1	0	1	0
151	718	0	10000	1	1	0	1	0
149	719	0	10000	1	1	0	1	0
145	720	0	10000	1	1	0	1	0
142	721	0	10000	1	1	0	1	0
139	722	0	10000	1	1	0	1	0
138	723	0	10000	1	1	0	1	0
135	724	0	10000	1	1	0	1	0
134	725	0	10000	1	1	0	1	0
131	726	0	10000	1	1	0	1	0
129	727	0	10000	1	1	0	1	0
127	728	0	10000	1	1	0	1	0
127	729	0	10000	1	1	0	1	0
126	730	0	10000	1	1	0	1	0
121	731	0	10000	1	1	0	1	0
118	732	0	10000	1	1	0	1	0
111	733	0	10000	1	1	0	1	0
109	734	0	10000	1	1	0	1	0
107	735	0	10000	1	1	0	1	0
104	736	0	10000	1	1	0	1	0
100	737	0	10000	1	1	0	1	0
97	738	0	10000	1	1	0	1	0
94	739	0	10000	1	1	0	1	0
89	740	0	10000	1	1	0	1	0
85	741	0	10000	1	1	0	1	0
82	742	0	10000	1	1	0	1	0
80	743	0	10000	1	1	0	1	0
78	744	0	10000	1	1	0	1	0
75	745	0	10000	1	1	0	1	0
73	746	0	10000	1	1	0	1	0
70	747	0	10000	1	1	0	1	0
68	748	0	10000	1	1	0	1	0
68	749	0	10000	1	1	0	1	0
68	750	0	10000	1	1	0	1	0
68	751	0	10000	1	1	0	1	0
69	752	0	10000	1	1	0	1	0
67	753	0	10000	1	1	0	1	0
65	754	0	10000	1	1	0	1	0
64	755	0	10000	1	1	0	1	0
62	756	0	10000	1	1	0	1	0
61	757	0	10000	1	1	0	1	0
61	758	0	10000	1	1	0	1	0
61	759	0	10000	1	1	0	1	0
58	760	0	10000	1	1	0	1	0
57	761	0	10000	1	1	0	1	0
54	762	0	10000	1	1	0	1	0
54	763	0	10000	1	1	0	1	0
54	764	0	10000	1	1	0	1	0
56	765	0	10000	1	1	0	1	0
55	766	0	10000	1	1	0	1	0
52	767	0	10000	1	1	0	1	0
50	768	0	10000	1	1	0	1	0
49	769	0	10000	1	1	0	1	0
49	770	0	10000	1	1	0	1	0
50	771	0	10000	1	1	0	1	0
53	772	0	10000	1	1	0	1	0
51	773	0	10000	1	1	0	1	0
50	774	0	10000	1	1	0	1	0
49	775	0	10000	1	1	0	1	0
49	776	0	10000	1	1	0	1	0
47	777	0	10000	1	1	0	1	0
46	778	0	10000	1	1	0	1	0
45	779	0	10000	1	1	0	1	0
42	780	0	10000	1	1	0	1	0
41	781	0	10000	1	1	0	1	0
39	782	0	10000	1	1	0	1	0
40	783	0	10000	1	1	0	1	0
42	784	0	10000	1	1	0	1	0
44	785	0	10000	1	1	0	1	0
45	786	0	10000	1	1	0	1	0
47	787	0	10000	1	1	0	1	0
45	788	0	10000	1	1	0	1	0
43	789	0	10000	1	1	0	1	0
43	790	0	10000	1	1	0	1	0
44	791	0	10000	1	1	0	1	0
46	792	0	10000	1	1	0	1	0
49	793	0	10000	1	1	0	1	0
52	794	0	10000	1	1	0	1	0
54	795	0	10000	1	1	0	1	0
56	796	0	10000	1	1	0	1	0
54	797	0	10000	1	1	0	1	0
53	798	0	10000	1	1	0	1	0
53	799	0	10000	1	1	0	1	0
50	800	0	10000	1	1	0	1	0
49	801	0	10000	1	1	0	1	0
46	802	0	10000	1	1	0	1	0
48	803	0	10000	1	1	0	1	0
48	804	0	10000	1	1	0	1	0
45	805	0	10000	1	1	0	1	0
43	806	0	10000	1	1	0	1	0
43	807	0	10000	1	1	0	1	0
43	808	0	10000	1	1	0	1	0
42	809	0	10000	1	1	0	1	0
42	810	0	10000	1	1	0	1	0
44	811	0	10000	1	1	0	1	0
45	812	0	10000	1	1	0	1	0
43	813	0	10000	1	1	0	1	0
42	814	0	10000	1	1	0	1	0
42	815	0	10000	1	1	0	1	0
40	816	0	10000	1	1	0	1	0
40	817	0	10000	1	1	0	1	0
41	818	0	10000	1	1	0	1	0
42	819	0	10000	1	1	0	1	0
42	820	0	10000	1	1	0	1	0
41	821	0	10000	1	1	0	1	0
39	822	0	10000	1	1	0	1	0
40	823	0	10000	1	1	0	1	0
40	824	0	10000	1	1	0	1	0
38	825	0	10000	1	1	0	1	0
37	826	0	10000	1	1	0	1	0
35	827	0	10000	1	1	0	1	0
35	828	0	10000	1	1	0	1	0
35	829	0	10000	1	1	0	1	0
35	830	0	10000	1	1	0	1	0
34	831	0	10000	1	1	0	1	0
34	832	0	10000	1	1	0	1	0
32	833	0	10000	1	1	0	1	0
32	834	0	10000	1	1	0	1	0
32	835	0	10000	1	1	0	1	0
32	836	0	10000	1	1	0	1	0
33	837	0	10000	1	1	0	1	0
31	838	0	10000	1	1	0	1	0
32	839	0	10000	1	1	0	1	0
32	840	0	10000	1	1	0	1	0
32	841	0	10000	1	1	0	1	0
32	842	0	10000	1	1	0	1	0
34	843	0	10000	1	1	0	1	0
32	844	0	10000	1	1	0	1	0
31	845	0	10000	1	1	0	1	0
30	846	0	10000	1	1	0	1	0
31	847	0	10000	1	1	0	1	0
30	848	0	10000	1	1	0	1	0
28	849	0	10000	1	1	0	1	0
29	850	0	10000	1	1	0	1	0
30	851	0	10000	1	1	0	1	0
31	852	0	10000	1	1	0	1	0
29	853	0	10000	1	1	0	1	0
28	854	0	10000	1	1	0	1	0
28	855	0	10000	1	1	0	1	0
27	856	0	10000	1	1	0	1	0
27	857	0	10000	1	1	0	1	0
26	858	0	10000	1	1	0	1	0
26	859	0	10000	1	1	0	1	0
25	860	0	10000	1	1	0	1	0
25	861	0	10000	1	1	0	1	0
24	862	0	10000	1	1	0	1	0
25	863	0	10000	1	1	0	1	0
24	864	0	10000	1	1	0	1	0
24	865	0	10000	1	1	0	1	0
24	866	0	10000	1	1	0	1	0
23	867	0	10000	1	1	0	1	0
22	868	0	10000	1	1	0	1	0
23	869	0	10000	1	1	0	1	0
26	870	0	10000	1	1	0	1	0
27	871	0	10000	1	1	0	1	0
28	872	0	10000	1	1	0	1	0
26	873	0	10000	1	1	0	1	0
25	874	0	10000	1	1	0	1	0
25	875	0	10000	1	1	0	1	0
25	876	0	10000	1	1	0	1	0
25	877	0	10000	1	1	0	1	0
25	878	0	10000	1	1	0	1	0
25	879	0	10000	1	1	0	1	0
24	880	0	10000	1	1	0	1	0
23	881	0	10000	1	1	0	1	0
22	882	0	10000	1	1	0	1	0
25	883	0	10000	1	1	0	1	0
25	884	0	10000	1	1	0	1	0
23	885	0	10000	1	1	0	1	0
22	886	0	10000	1	1	0	1	0
22	887	0	10000	1	1	0	1	0
21	888	0	10000	1	1	0	1	0
20	889	0	10000	1	1	0	1	0
21	890	0	10000	1	1	0	1	0
22	891	0	10000	1	1	0	1	0
22	892	0	10000	1	1	0	1	0
20	893	0	10000	1	1	0	1	0
20	894	0	10000	1	1	0	1	0
23	895	0	10000	1	1	0	1	0
24	896	0	10000	1	1	0	1	0
26	897	0	10000	1	1	0	1	0
26	898	0	10000	1	1	0	1	0
26	899	0	10000	1	1	0	1	0
27	900	0	10000	1	1	0	1	0
25	901	0	10000	1	1	0	1	0
25	902	0	10000	1	1	0	1	0
28	903	0	10000	1	1	0	1	0
27	904	0	10000	1	1	0	1	0
26	905	0	10000	1	1	0	1	0
24	906	0	10000	1	1	0	1	0
23	907	0	10000	1	1	0	1	0
24	908	0	10000	1	1	0	1	0
26	909	0	10000	1	1	0	1	0
25	910	0	10000	1	1	0	1	0
26	911	0	10000	1	1	0	1	0
26	912	0	10000	1	1	0	1	0
24	913	0	10000	1	1	0	1	0
24	914	0	10000	1	1	0	1	0
24	915	0	10000	1	1	0	1	0
26	916	0	10000	1	1	0	1	0
27	917	0	10000	1	1	0	1	0
29	918	0	10000	1	1	0	1	0
29	919	0	10000	1	1	0	1	0
28	920	0	10000	1	1	0	1	0
27	921	0	10000	1	1	0	1	0
26	922	0	10000	1	1	0	1	0
28	923	0	10000	1	1	0	1	0
27	924	0	10000	1	1	0	1	0
27	925	0	10000	1	1	0	1	0
26	926	0	10000	1	1	0	1	0
27	927	0	10000	1	1	0	1	0
26	928	0	10000	1	1	0	1	0
25	929	0	10000	1	1	0	1	0
26	930	0	10000	1	1	0	1	0
25	931	0	10000	1	1	0	1	0
26	932	0	10000	1	1	0	1	0
26	933	0	10000	1	1	0	1	0
28	934	0	10000	1	1	0	1	0
28	935	0	10000	1	1	0	1	0
27	936	0	10000	1	1	0	1	0
27	937	0	10000	1	1	0	1	0
26	938	0	10000	1	1	0	1	0
25	939	0	10000	1	1	0	1	0
23	940	0	10000	1	1	0	1	0
22	941	0	10000	1	1	0	1	0
22	942	0	10000	1	1	0	1	0
23	943	0	10000	1	1	0	1	0
22	944	0	10000	1	1	0	1	0
22	945	0	10000	1	1	0	1	0
22	946	0	10000	1	1	0	1	0
22	947	0	10000	1	1	0	1	0
21	948	0	10000	1	1	0	1	0
21	949	0	10000	1	1	0	1	0
21	950	0	10000	1	1	0	1	0
21	951	0	10000	1	1	0	1	0
21	952	0	10000	1	1	0	1	0
19	953	0	10000	1	1	0	1	0
19	954	0	10000	1	1	0	1	0
20	955	0	10000	1	1	0	1	0
20	956	0	10000	1	1	0	1	0
20	957	0	10000	1	1	0	1	0
19	958	0	10000	1	1	0	1	0
19	959	0	10000	1	1	0	1	0
19	960	0	10000	1	1	0	1	0
18	961	0	10000	1	1	0	1	0
17	962	0	10000	1	1	0	1	0
18	963	0	10000	1	1	0	1	0
18	964	0	10000	1	1	0	1	0
17	965	0	10000	1	1	0	1	0
16	966	0	10000	1	1	0	1	0
16	967	0	10000	1	1	0	1	0
15	968	0	10000	1	1	0	1	0
15	969	0	10000	1	1	0	1	0
17	970	0	10000	1	1	0	1	0
16	971	0	10000	1	1	0	1	0
16	972	0	10000	1	1	0	1	0
13	973	0	10000	1	1	0	1	0
15	974	0	10000	1	1	0	1	0
15	975	0	10000	1	1	0	1	0
16	976	0	10000	1	1	0	1	0
16	977	0	10000	1	1	0	1	0
17	978	0	10000	1	1	0	1	0
17	979	0	10000	1	1	0	1	0
16	980	0	10000	1	1	0	1	0
17	981	0	10000	1	1	0	1	0
16	982	0	10000	1	1	0	1	0
18	983	0	10000	1	1	0	1	0
18	984	0	10000	1	1	0	1	0
17	985	0	10000	1	1	0	1	0
16	986	0	10000	1	1	0	1	0
18	987	0	10000	1	1	0	1	0
18	988	0	10000	1	1	0	1	0
19	989	0	10000	1	1	0	1	0
20	990	0	10000	1	1	0	1	0
21	991	0	10000	1	1	0	1	0
22	992	0	10000	1	1	0	1	0
21	993	0	10000	1	1	0	1	0
21	994	0	10000	1	1	0	1	0
22	995	0	10000	1	1	0	1	0
23	996	0	10000	1	1	0	1	0
23	997	0	10000	1	1	0	1	0
23	998	0	10000	1	1	0	1	0
22	999	0	10000	1	1	0	1	0
22	1000	0	10000	1	1	0	1	0
22	1001	0	10000	1	1	0	1	0
21	1	7	10000	2	1	0	2	0
20	2	7	10000	2	1	0	2	0
20	3	7	10000	2	1	0	2	0
19	4	7	10000	2	1	0	2	0
19	5	7	10000	2	1	0	2	0
20	6	7	10000	2	1	0	2	0
19	7	7	10000	2	1	0	2	0
19	8	7	10000	2	1	0	2	0
19	9	7	10000	2	1	0	2	0
19	10	7	10000	2	1	0	2	0
16	11	7	10000	2	1	0	2	0
17	12	7	10000	2	1	0	2	0
17	13	7	10000	2	1	0	2	0
17	14	7	10000	2	1	0	2	0
17	15	7	10000	2	1	0	2	0
17	16	7	10000	2	1	0	2	0
17	17	7	10000	2	1	0	2	0
16	18	7	10000	2	1	0	2	0
15	19	7	10000	2	1	0	2	0
16	20	7	10000	2	1	0	2	0
19	20	7	10000	2	1	0	2	0
18	21	7	10000	2	1	0	2	0
17	23	7	10000	2	1	0	2	0
18	24	7	10000	2	1	0	2	0
18	25	7	10000	2	1	0	2	0
18	26	7	10000	2	1	0	2	0
18	27	7	10000	2	1	0	2	0
19	28	7	10000	2	1	0	2	0
20	29	7	10000	2	1	0	2	0
19	30	7	10000	2	1	0	2	0
17	30	7	10000	2	1	0	2	0
17	31	7	10000	2	1	0	2	0
16	33	7	10000	2	1	0	2	0
16	34	7	10000	2	1	0	2	0
16	35	7	10000	2	1	0	2	0
17	36	7	10000	2	1	0	2	0
18	37	7	10000	2	1	0	2	0
17	38	7	10000	2	1	0	2	0
16	39	7	10000	2	1	0	2	0
17	40	7	10000	2	1	0	2	0
19	40	7	10000	2	1	0	2	0
19	41	7	10000	2	1	0	2	0
19	43	7	10000	2	1	0	2	0
19	44	7	10000	2	1	0	2	0
19	45	7	10000	2	1	0	2	0
19	46	7	10000	2	1	0	2	0
17	47	7	10000	2	1	0	2	0
18	48	7	10000	2	1	0	2	0
18	49	7	10000	2	1	0	2	0
17	50	7	10000	2	1	0	2	0
16	50	7	10000	2	1	0	2	0
16	51	7	10000	2	1	0	2	0
16	53	7	10000	2	1	0	2	0
16	54	7	10000	2	1	0	2	0
16	55	7	10000	2	1	0	2	0
17	56	7	10000	2	1	0	2	0
19	57	7	10000	2	1	0	2	0
19	58	7	10000	2	1	0	2	0
19	59	7	10000	2	1	0	2	0
19	60	7	10000	2	1	0	2	0
20	60	7	10000	2	1	0	2	0
21	61	7	10000	2	1	0	2	0
21	63	7	10000	2	1	0	2	0
20	64	7	10000	2	1	0	2	0
20	65	7	10000	2	1	0	2	0
20	66	7	10000	2	1	0	2	0
18	67	7	10000	2	1	0	2	0
18	68	7	10000	2	1	0	2	0
19	69	7	10000	2	1	0	2	0
18	70	7	10000	2	1	0	2	0
16	70	7	10000	2	1	0	2	0
15	71	7	10000	2	1	0	2	0
16	73	7	10000	2	1	0	2	0
16	74	7	10000	2	1	0	2	0
16	75	7	10000	2	1	0	2	0
16	76	7	10000	2	1	0	2	0
17	77	7	10000	2	1	0	2	0
16	78	7	10000	2	1	0	2	0
16	79	7	10000	2	1	0	2	0
17	80	7	10000	2	1	0	2	0
19	80	7	10000	2	1	0	2	0
20	81	7	10000	2	1	0	2	0
19	83	7	10000	2	1	0	2	0
19	84	7	10000	2	1	0	2	0
20	85	7	10000	2	1	0	2	0
23	86	7	10000	2	1	0	2	0
23	87	7	10000	2	1	0	2	0
24	88	7	10000	2	1	0	2	0
25	89	7	10000	2	1	0	2	0
24	90	7	10000	2	1	0	2	0
23	90	7	10000	2	1	0	2	0
22	91	7	10000	2	1	0	2	0
23	93	7	10000	2	1	0	2	0
24	94	7	10000	2	1	0	2	0
23	95	7	10000	2	1	0	2	0
23	96	7	10000	2	1	0	2	0
23	97	7	10000	2	1	0	2	0
23	98	7	10000	2	1	0	2	0
21	99	7	10000	2	1	0	2	0
21	100	7	10000	2	1	0	2	0
22	100	7	10000	2	1	0	2	0
20	101	7	10000	2	1	0	2	0
20	103	7	10000	2	1	0	2	0
19	104	7	10000	2	1	0	2	0
18	105	7	10000	2	1	0	2	0
17	106	7	10000	2	1	0	2	0
18	107	7	10000	2	1	0	2	0
18	108	7	10000	2	1	0	2	0
19	109	7	10000	2	1	0	2	0
18	110	7	10000	2	1	0	2	0
15	110	7	10000	2	1	0	2	0
15	111	7	10000	2	1	0	2	0
16	113	7	10000	2	1	0	2	0
16	114	7	10000	2	1	0	2	0
15	115	7	10000	2	1	0	2	0
16	116	7	10000	2	1	0	2	0
15	117	7	10000	2	1	0	2	0
15	118	7	10000	2	1	0	2	0
13	119	7	10000	2	1	0	2	0
13	120	7	10000	2	1	0	2	0
16	120	7	10000	2	1	0	2	0
14	121	7	10000	2	1	0	2	0
15	123	7	10000	2	1	0	2	0
16	124	7	10000	2	1	0	2	0
16	125	7	10000	2	1	0	2	0
17	126	7	10000	2	1	0	2	0
18	127	7	10000	2	1	0	2	0
20	128	7	10000	2	1	0	2	0
19	129	7	10000	2	1	0	2	0
18	130	7	10000	2	1	0	2	0
16	130	7	10000	2	1	0	2	0
17	131	7	10000	2	1	0	2	0
16	133	7	10000	2	1	0	2	0
17	134	7	10000	2	1	0	2	0
17	135	7	10000	2	1	0	2	0
16	136	7	10000	2	1	0	2	0
17	137	7	10000	2	1	0	2	0
17	138	7	10000	2	1	0	2	0
18	139	7	10000	2	1	0	2	0
20	140	7	10000	2	1	0	2	0
21	140	7	10000	2	1	0	2	0
21	141	7	10000	2	1	0	2	0
20	143	7	10000	2	1	0	2	0
19	144	7	10000	2	1	0	2	0
19	145	7	10000	2	1	0	2	0
19	146	7	10000	2	1	0	2	0
19	147	7	10000	2	1	0	2	0
20	148	7	10000	2	1	0	2	0
19	149	7	10000	2	1	0	2	0
19	150	7	10000	2	1	0	2	0
17	150	7	10000	2	1	0	2	0
19	151	7	10000	2	1	0	2	0
19	153	7	10000	2	1	0	2	0
19	154	7	10000	2	1	0	2	0
18	155	7	10000	2	1	0	2	0
20	156	7	10000	2	1	0	2	0
20	157	7	10000	2	1	0	2	0
19	158	7	10000	2	1	0	2	0
19	159	7	10000	2	1	0	2	0
19	160	7	10000	2	1	0	2	0
21	160	7	10000	2	1	0	2	0
20	161	7	10000	2	1	0	2	0
20	163	7	10000	2	1	0	2	0
19	164	7	10000	2	1	0	2	0
18	165	7	10000	2	1	0	2	0
18	166	7	10000	2	1	0	2	0
17	167	7	10000	2	1	0	2	0
20	168	7	10000	2	1	0	2	0
19	169	7	10000	2	1	0	2	0
18	170	7	10000	2	1	0	2	0
16	170	7	10000	2	1	0	2	0
16	171	7	10000	2	1	0	2	0
16	173	7	10000	2	1	0	2	0
15	174	7	10000	2	1	0	2	0
14	175	7	10000	2	1	0	2	0
14	176	7	10000	2	1	0	2	0
15	177	7	10000	2	1	0	2	0
15	178	7	10000	2	1	0	2	0
14	179	7	10000	2	1	0	2	0
13	180	7	10000	2	1	0	2	0
15	180	7	10000	2	1	0	2	0
15	181	7	10000	2	1	0	2	0
13	183	7	10000	2	1	0	2	0
13	184	7	10000	2	1	0	2	0
13	185	7	10000	2	1	0	2	0
12	186	7	10000	2	1	0	2	0
13	187	7	10000	2	1	0	2	0
14	188	7	10000	2	1	0	2	0
14	188	7	10000	2	1	0	2	0
14	189	7	10000	2	1	0	2	0
11	190	7	10000	2	1	0	2	0
11	191	7	10000	2	1	0	2	0
12	193	7	10000	2	1	0	2	0
11	194	7	10000	2	1	0	2	0
11	195	7	10000	2	1	0	2	0
11	196	7	10000	2	1	0	2	0
13	197	7	10000	2	1	0	2	0
13	198	7	10000	2	1	0	2	0
13	198	7	10000	2	1	0	2	0
13	199	7	10000	2	1	0	2	0
15	200	7	10000	2	1	0	2	0
15	201	7	10000	2	1	0	2	0
14	203	7	10000	2	1	0	2	0
16	204	7	10000	2	1	0	2	0
16	204	7	10000	2	1	0	2	0
15	205	7	10000	2	1	0	2	0
14	206	7	10000	2	1	0	2	0
15	207	7	10000	2	1	0	2	0
16	208	7	10000	2	1	0	2	0
16	209	7	10000	2	1	0	2	0
14	210	7	10000	2	1	0	2	0
14	211	7	10000	2	1	0	2	0
15	213	7	10000	2	1	0	2	0
15	214	7	10000	2	1	0	2	0
15	214	7	10000	2	1	0	2	0
16	215	7	10000	2	1	0	2	0
16	216	7	10000	2	1	0	2	0
16	217	7	10000	2	1	0	2	0
15	218	7	10000	2	1	0	2	0
16	219	7	10000	2	1	0	2	0
17	220	7	10000	2	1	0	2	0
18	221	7	10000	2	1	0	2	0
17	222	7	10000	2	1	0	2	0
17	223	7	10000	2	1	0	2	0
17	224	7	10000	2	1	0	2	0
19	225	7	10000	2	1	0	2	0
19	226	7	10000	2	1	0	2	0
18	227	7	10000	2	1	0	2	0
19	228	7	10000	2	1	0	2	0
18	229	7	10000	2	1	0	2	0
16	230	7	10000	2	1	0	2	0
17	231	7	10000	2	1	0	2	0
17	232	7	10000	2	1	0	2	0
20	233	7	10000	2	1	0	2	0
23	234	7	10000	2	1	0	2	0
25	235	7	10000	2	1	0	2	0
27	236	7	10000	2	1	0	2	0
26	237	7	10000	2	1	0	2	0
24	238	7	10000	2	1	0	2	0
23	239	7	10000	2	1	0	2	0
25	240	7	10000	2	1	0	2	0
25	241	7	10000	2	1	0	2	0
27	242	7	10000	2	1	0	2	0
28	243	7	10000	2	1	0	2	0
30	244	7	10000	2	1	0	2	0
31	245	7	10000	2	1	0	2	0
29	246	7	10000	2	1	0	2	0
29	247	7	10000	2	1	0	2	0
29	248	7	10000	2	1	0	2	0
30	249	7	10000	2	1	0	2	0
28	250	7	10000	2	1	0	2	0
29	251	7	10000	2	1	0	2	0
31	252	7	10000	2	1	0	2	0
32	253	7	10000	2	1	0	2	0
32	254	7	10000	2	1	0	2	0
31	255	7	10000	2	1	0	2	0
30	256	7	10000	2	1	0	2	0
28	257	7	10000	2	1	0	2	0
28	258	7	10000	2	1	0	2	0
29	259	7	10000	2	1	0	2	0
30	260	7	10000	2	1	0	2	0
29	261	7	10000	2	1	0	2	0
28	262	7	10000	2	1	0	2	0
28	263	7	10000	2	1	0	2	0
27	264	7	10000	2	1	0	2	0
26	265	7	10000	2	1	0	2	0
26	266	7	10000	2	1	0	2	0
28	267	7	10000	2	1	0	2	0
28	268	7	10000	2	1	0	2	0
27	269	7	10000	2	1	0	2	0
26	270	7	10000	2	1	0	2	0
27	271	7	10000	2	1	0	2	0
27	272	7	10000	2	1	0	2	0
27	273	7	10000	2	1	0	2	0
25	274	7	10000	2	1	0	2	0
26	275	7	10000	2	1	0	2	0
28	276	7	10000	2	1	0	2	0
27	277	7	10000	2	1	0	2	0
28	278	7	10000	2	1	0	2	0
27	279	7	10000	2	1	0	2	0
30	280	7	10000	2	1	0	2	0
29	281	7	10000	2	1	0	2	0
29	282	7	10000	2	1	0	2	0
28	283	7	10000	2	1	0	2	0
28	284	7	10000	2	1	0	2	0
27	285	7	10000	2	1	0	2	0
27	286	7	10000	2	1	0	2	0
28	287	7	10000	2	1	0	2	0
29	288	7	10000	2	1	0	2	0
32	289	7	10000	2	1	0	2	0
32	290	7	10000	2	1	0	2	0
34	291	7	10000	2	1	0	2	0
35	292	7	10000	2	1	0	2	0
35	293	7	10000	2	1	0	2	0
35	294	7	10000	2	1	0	2	0
35	295	7	10000	2	1	0	2	0
34	296	7	10000	2	1	0	2	0
32	297	7	10000	2	1	0	2	0
31	298	7	10000	2	1	0	2	0
31	299	7	10000	2	1	0	2	0
32	300	7	10000	2	1	0	2	0
33	301	7	10000	2	1	0	2	0
32	302	7	10000	2	1	0	2	0
33	303	7	10000	2	1	0	2	0
32	304	7	10000	2	1	0	2	0
32	305	7	10000	2	1	0	2	0
32	306	7	10000	2	1	0	2	0
33	307	7	10000	2	1	0	2	0
33	308	7	10000	2	1	0	2	0
33	309	7	10000	2	1	0	2	0
30	310	7	10000	2	1	0	2	0
30	311	7	10000	2	1	0	2	0
29	312	7	10000	2	1	0	2	0
28	313	7	10000	2	1	0	2	0
29	314	7	10000	2	1	0	2	0
29	315	7	10000	2	1	0	2	0
29	316	7	10000	2	1	0	2	0
28	317	7	10000	2	1	0	2	0
27	318	7	10000	2	1	0	2	0
25	319	7	10000	2	1	0	2	0
27	320	7	10000	2	1	0	2	0
26	321	7	10000	2	1	0	2	0
25	322	7	10000	2	1	0	2	0
24	323	7	10000	2	1	0	2	0
24	324	7	10000	2	1	0	2	0
23	325	7	10000	2	1	0	2	0
22	326	7	10000	2	1	0	2	0
21	327	7	10000	2	1	0	2	0
22	328	7	10000	2	1	0	2	0
21	329	7	10000	2	1	0	2	0
19	330	7	10000	2	1	0	2	0
19	331	7	10000	2	1	0	2	0
19	332	7	10000	2	1	0	2	0
19	333	7	10000	2	1	0	2	0
19	334	7	10000	2	1	0	2	0
18	335	7	10000	2	1	0	2	0
19	336	7	10000	2	1	0	2	0
18	337	7	10000	2	1	0	2	0
17	338	7	10000	2	1	0	2	0
18	339	7	10000	2	1	0	2	0
19	340	7	10000	2	1	0	2	0
19	341	7	10000	2	1	0	2	0
19	342	7	10000	2	1	0	2	0
17	343	7	10000	2	1	0	2	0
17	344	7	10000	2	1	0	2	0
17	345	7	10000	2	1	0	2	0
18	346	7	10000	2	1	0	2	0
19	347	7	10000	2	1	0	2	0
20	348	7	10000	2	1	0	2	0
20	349	7	10000	2	1	0	2	0
18	350	7	10000	2	1	0	2	0
17	351	7	10000	2	1	0	2	0
17	352	7	10000	2	1	0	2	0
17	353	7	10000	2	1	0	2	0
16	354	7	10000	2	1	0	2	0
16	355	7	10000	2	1	0	2	0
18	356	7	10000	2	1	0	2	0
17	357	7	10000	2	1	0	2	0
16	358	7	10000	2	1	0	2	0
16	359	7	10000	2	1	0	2	0
17	360	7	10000	2	1	0	2	0
18	361	7	10000	2	1	0	2	0
18	362	7	10000	2	1	0	2	0
16	363	7	10000	2	1	0	2	0
16	364	7	10000	2	1	0	2	0
15	365	7	10000	2	1	0	2	0
15	366	7	10000	2	1	0	2	0
15	367	7	10000	2	1	0	2	0
16	368	7	10000	2	1	0	2	0
16	369	7	10000	2	1	0	2	0
14	370	7	10000	2	1	0	2	0
14	371	7	10000	2	1	0	2	0
14	372	7	10000	2	1	0	2	0
14	373	7	10000	2	1	0	2	0
14	374	7	10000	2	1	0	2	0
14	375	7	10000	2	1	0	2	0
13	376	7	10000	2	1	0	2	0
13	377	7	10000	2	1	0	2	0
12	378	7	10000	2	1	0	2	0
11	379	7	10000	2	1	0	2	0
14	380	7	10000	2	1	0	2	0
14	381	7	10000	2	1	0	2	0
13	382	7	10000	2	1	0	2	0
15	383	7	10000	2	1	0	2	0
14	384	7	10000	2	1	0	2	0
14	385	7	10000	2	1	0	2	0
14	386	7	10000	2	1	0	2	0
14	387	7	10000	2	1	0	2	0
15	388	7	10000	2	1	0	2	0
15	389	7	10000	2	1	0	2	0
12	390	7	10000	2	1	0	2	0
12	391	7	10000	2	1	0	2	0
12	392	7	10000	2	1	0	2	0
12	393	7	10000	2	1	0	2	0
12	394	7	10000	2	1	0	2	0
12	395	7	10000	2	1	0	2	0
12	396	7	10000	2	1	0	2	0
11	397	7	10000	2	1	0	2	0
11	398	7	10000	2	1	0	2	0
11	399	7	10000	2	1	0	2	0
14	400	7	10000	2	1	0	2	0
13	401	7	10000	2	1	0	2	0
14	402	7	10000	2	1	0	2	0
14	403	7	10000	2	1	0	2	0
14	404	7	10000	2	1	0	2	0
14	405	7	10000	2	1	0	2	0
14	406	7	10000	2	1	0	2	0
14	407	7	10000	2	1	0	2	0
14	408	7	10000	2	1	0	2	0
14	409	7	10000	2	1	0	2	0
12	410	7	10000	2	1	0	2	0
13	411	7	10000	2	1	0	2	0
12	412	7	10000	2	1	0	2	0
13	413	7	10000	2	1	0	2	0
14	414	7	10000	2	1	0	2	0
14	415	7	10000	2	1	0	2	0
14	416	7	10000	2	1	0	2	0
14	417	7	10000	2	1	0	2	0
14	418	7	10000	2	1	0	2	0
13	419	7	10000	2	1	0	2	0
15	420	7	10000	2	1	0	2	0
15	421	7	10000	2	1	0	2	0
15	422	7	10000	2	1	0	2	0
15	423	7	10000	2	1	0	2	0
14	424	7	10000	2	1	0	2	0
15	425	7	10000	2	1	0	2	0
13	426	7	10000	2	1	0	2	0
14	427	7	10000	2	1	0	2	0
14	428	7	10000	2	1	0	2	0
14	429	7	10000	2	1	0	2	0
11	430	7	10000	2	1	0	2	0
12	431	7	10000	2	1	0	2	0
13	432	7	10000	2	1	0	2	0
14	433	7	10000	2	1	0	2	0
13	434	7	10000	2	1	0	2	0
13	435	7	10000	2	1	0	2	0
15	436	7	10000	2	1	0	2	0
13	437	7	10000	2	1	0	2	0
12	438	7	10000	2	1	0	2	0
12	439	7	10000	2	1	0	2	0
14	440	7	10000	2	1	0	2	0
14	441	7	10000	2	1	0	2	0
14	442	7	10000	2	1	0	2	0
13	443	7	10000	2	1	0	2	0
13	444	7	10000	2	1	0	2	0
13	445	7	10000	2	1	0	2	0
14	446	7	10000	2	1	0	2	0
15	447	7	10000	2	1	0	2	0
15	448	7	10000	2	1	0	2	0
15	449	7	10000	2	1	0	2	0
13	450	7	10000	2	1	0	2	0
13	451	7	10000	2	1	0	2	0
14	452	7	10000	2	1	0	2	0
17	453	7	10000	2	1	0	2	0
19	454	7	10000	2	1	0	2	0
20	455	7	10000	2	1	0	2	0
21	456	7	10000	2	1	0	2	0
22	457	7	10000	2	1	0	2	0
24	458	7	10000	2	1	0	2	0
25	459	7	10000	2	1	0	2	0
26	460	7	10000	2	1	0	2	0
26	461	7	10000	2	1	0	2	0
26	462	7	10000	2	1	0	2	0
29	463	7	10000	2	1	0	2	0
35	464	7	10000	2	1	0	2	0
40	465	7	10000	2	1	0	2	0
45	466	7	10000	2	1	0	2	0
48	467	7	10000	2	1	0	2	0
47	468	7	10000	2	1	0	2	0
46	469	7	10000	2	1	0	2	0
43	470	7	10000	2	1	0	2	0
42	471	7	10000	2	1	0	2	0
40	472	7	10000	2	1	0	2	0
40	473	7	10000	2	1	0	2	0
41	474	7	10000	2	1	0	2	0
42	475	7	10000	2	1	0	2	0
42	476	7	10000	2	1	0	2	0
42	477	7	10000	2	1	0	2	0
41	478	7	10000	2	1	0	2	0
39	479	7	10000	2	1	0	2	0
40	480	7	10000	2	1	0	2	0
38	481	7	10000	2	1	0	2	0
36	482	7	10000	2	1	0	2	0
35	483	7	10000	2	1	0	2	0
35	484	7	10000	2	1	0	2	0
34	485	7	10000	2	1	0	2	0
34	486	7	10000	2	1	0	2	0
33	487	7	10000	2	1	0	2	0
32	488	7	10000	2	1	0	2	0
31	489	7	10000	2	1	0	2	0
29	490	7	10000	2	1	0	2	0
28	491	7	10000	2	1	0	2	0
28	492	7	10000	2	1	0	2	0
28	493	7	10000	2	1	0	2	0
28	494	7	10000	2	1	0	2	0
30	495	7	10000	2	1	0	2	0
33	496	7	10000	2	1	0	2	0
35	497	7	10000	2	1	0	2	0
35	498	7	10000	2	1	0	2	0
36	499	7	10000	2	1	0	2	0
39	500	7	10000	2	1	0	2	0
38	501	7	10000	2	1	0	2	0
39	502	7	10000	2	1	0	2	1
39	503	7	10000	2	1	0	2	1
40	504	7	10000	2	1	0	2	1
42	505	7	10000	2	1	0	2	1
43	506	7	10000	2	1	0	2	1
45	507	7	10000	2	1	0	2	1
48	508	7	10000	2	1	0	2	1
48	509	7	10000	2	1	0	2	1
46	510	7	10000	2	1	0	2	1
47	511	7	10000	2	1	0	2	1
47	512	7	10000	2	1	0	2	1
46	513	7	10000	2	1	0	2	1
48	514	7	10000	2	1	0	2	1
48	515	7	10000	2	1	0	2	1
49	516	7	10000	2	1	0	2	1
49	517	7	10000	2	1	0	2	1
47	518	7	10000	2	1	0	2	1
46	519	7	10000	2	1	0	2	1
47	520	7	10000	2	1	0	2	1
46	521	7	10000	2	1	0	2	1
44	522	7	10000	2	1	0	2	1
42	523	7	10000	2	1	0	2	1
42	524	7	10000	2	1	0	2	1
41	525	7	10000	2	1	0	2	1
40	526	7	10000	2	1	0	2	1
41	527	7	10000	2	1	0	2	1
42	528	7	10000	2	1	0	2	1
44	529	7	10000	2	1	0	2	1
43	530	7	10000	2	1	0	2	1
44	531	7	10000	2	1	0	2	1
42	532	7	10000	2	1	0	2	1
41	533	7	10000	2	1	0	2	1
40	534	7	10000	2	1	0	2	1
39	535	7	10000	2	1	0	2	1
39	536	7	10000	2	1	0	2	1
36	537	7	10000	2	1	0	2	1
34	538	7	10000	2	1	0	2	1
33	539	7	10000	2	1	0	2	1
34	540	7	10000	2	1	0	2	1
34	541	7	10000	2	1	0	2	1
32	542	7	10000	2	1	0	2	1
31	543	7	10000	2	1	0	2	1
30	544	7	10000	2	1	0	2	1
29	545	7	10000	2	1	0	2	1
28	546	7	10000	2	1	0	2	1
29	547	7	10000	2	1	0	2	1
29	548	7	10000	2	1	0	2	1
29	549	7	10000	2	1	0	2	1
26	550	7	10000	2	1	0	2	1
26	551	7	10000	2	1	0	2	1
25	552	7	10000	2	1	0	2	0
24	553	7	10000	2	1	0	2	0
24	554	7	10000	2	1	0	2	0
23	555	7	10000	2	1	0	2	0
23	556	7	10000	2	1	0	2	0
21	557	7	10000	2	1	0	2	0
21	558	7	10000	2	1	0	2	0
20	559	7	10000	2	1	0	2	0
22	560	7	10000	2	1	0	2	0
21	561	7	10000	2	1	0	2	0
20	562	7	10000	2	1	0	2	0
19	563	7	10000	2	1	0	2	0
19	564	7	10000	2	1	0	2	0
20	565	7	10000	2	1	0	2	0
20	566	7	10000	2	1	0	2	0
21	567	7	10000	2	1	0	2	0
21	568	7	10000	2	1	0	2	0
22	569	7	10000	2	1	0	2	0
21	570	7	10000	2	1	0	2	0
23	571	7	10000	2	1	0	2	0
26	572	7	10000	2	1	0	2	0
25	573	7	10000	2	1	0	2	0
23	574	7	10000	2	1	0	2	0
24	575	7	10000	2	1	0	2	0
24	576	7	10000	2	1	0	2	0
24	577	7	10000	2	1	0	2	0
25	578	7	10000	2	1	0	2	0
25	579	7	10000	2	1	0	2	0
28	580	7	10000	2	1	0	2	0
28	581	7	10000	2	1	0	2	0
27	582	7	10000	2	1	0	2	0
26	583	7	10000	2	1	0	2	0
25	584	7	10000	2	1	0	2	0
25	585	7	10000	2	1	0	2	0
25	586	7	10000	2	1	0	2	0
25	587	7	10000	2	1	0	2	0
24	588	7	10000	2	1	0	2	0
26	589	7	10000	2	1	0	2	0
24	590	7	10000	2	1	0	2	0
30	591	7	10000	2	1	0	2	0
39	592	7	10000	2	1	0	2	0
43	593	7	10000	2	1	0	2	0
44	594	7	10000	2	1	0	2	0
48	595	7	10000	2	1	0	2	0
50	596	7	10000	2	1	0	2	0
51	597	7	10000	2	1	0	2	0
54	598	7	10000	2	1	0	2	0
55	599	7	10000	2	1	0	2	0
60	600	7	10000	2	1	0	2	0
66	601	7	10000	2	1	0	2	0
90	602	7	10000	2	1	0	2	0
108	603	7	10000	2	1	0	2	0
109	604	7	10000	2	1	0	2	0
116	605	7	10000	2	1	0	2	0
129	606	7	10000	2	1	0	2	0
146	607	7	10000	2	1	0	2	0
158	608	7	10000	2	1	0	2	0
161	609	7	10000	2	1	0	2	0
157	610	7	10000	2	1	0	2	0
155	611	7	10000	2	1	0	2	0
150	612	7	10000	2	1	0	2	0
145	613	7	10000	2	1	0	2	0
142	614	7	10000	2	1	0	2	0
139	615	7	10000	2	1	0	2	0
137	616	7	10000	2	1	0	2	0
133	617	7	10000	2	1	0	2	0
130	618	7	10000	2	1	0	2	0
128	619	7	10000	2	1	0	2	0
128	620	7	10000	2	1	0	2	0
127	621	7	10000	2	1	0	2	0
126	622	7	10000	2	1	0	2	0
123	623	7	10000	2	1	0	2	0
122	624	7	10000	2	1	0	2	0
119	625	7	10000	2	1	0	2	0
117	626	7	10000	2	1	0	2	0
117	627	7	10000	2	1	0	2	0
117	628	7	10000	2	1	0	2	0
115	629	7	10000	2	1	0	2	0
111	630	7	10000	2	1	0	2	0
108	631	7	10000	2	1	0	2	0
103	632	7	10000	2	1	0	2	0
101	633	7	10000	2	1	0	2	0
98	634	7	10000	2	1	0	2	0
95	635	7	10000	2	1	0	2	0
95	636	7	10000	2	1	0	2	0
93	637	7	10000	2	1	0	2	0
91	638	7	10000	2	1	0	2	0
90	639	7	10000	2	1	0	2	0
91	640	7	10000	2	1	0	2	0
89	641	7	10000	2	1	0	2	0
86	642	7	10000	2	1	0	2	0
85	643	7	10000	2	1	0	2	0
85	644	7	10000	2	1	0	2	0
84	645	7	10000	2	1	0	2	0
81	646	7	10000	2	1	0	2	0
81	647	7	10000	2	1	0	2	0
79	648	7	10000	2	1	0	2	0
79	649	7	10000	2	1	0	2	0
77	650	7	10000	2	1	0	2	0
78	651	7	10000	2	1	0	2	0
79	652	7	10000	2	1	0	2	0
80	653	7	10000	2	1	0	2	0
81	654	7	10000	2	1	0	2	0
82	655	7	10000	2	1	0	2	0
81	656	7	10000	2	1	0	2	0
80	657	7	10000	2	1	0	2	0
80	658	7	10000	2	1	0	2	0
78	659	7	10000	2	1	0	2	0
78	660	7	10000	2	1	0	2	0
76	661	7	10000	2	1	0	2	0
73	662	7	10000	2	1	0	2	0
72	663	7	10000	2	1	0	2	0
72	664	7	10000	2	1	0	2	0
71	665	7	10000	2	1	0	2	0
70	666	7	10000	2	1	0	2	0
68	667	7	10000	2	1	0	2	0
67	668	7	10000	2	1	0	2	0
67	669	7	10000	2	1	0	2	0
64	670	7	10000	2	1	0	2	0
62	671	7	10000	2	1	0	2	0
61	672	7	10000	2	1	0	2	0
58	673	7	10000	2	1	0	2	0
56	674	7	10000	2	1	0	2	0
54	675	7	10000	2	1	0	2	0
52	676	7	10000	2	1	0	2	0
49	677	7	10000	2	1	0	2	0
48	678	7	10000	2	1	0	2	0
48	679	7	10000	2	1	0	2	0
50	680	7	10000	2	1	0	2	0
48	681	7	10000	2	1	0	2	0
46	682	7	10000	2	1	0	2	0
45	683	7	10000	2	1	0	2	0
44	684	7	10000	2	1	0	2	0
42	685	7	10000	2	1	0	2	0
44	686	7	10000	2	1	0	2	0
44	687	7	10000	2	1	0	2	0
44	688	7	10000	2	1	0	2	0
44	689	7	10000	2	1	0	2	0
40	690	7	10000	2	1	0	2	0
40	691	7	10000	2	1	0	2	0
40	692	7	10000	2	1	0	2	0
40	693	7	10000	2	1	0	2	0
39	694	7	10000	2	1	0	2	0
42	695	7	10000	2	1	0	2	0
43	696	7	10000	2	1	0	2	0
44	697	7	10000	2	1	0	2	0
44	698	7	10000	2	1	0	2	0
42	699	7	10000	2	1	0	2	0
43	700	7	10000	2	1	0	2	0
41	701	7	10000	2	1	0	2	0
39	702	7	10000	2	1	0	2	0
37	703	7	10000	2	1	0	2	0
36	704	7	10000	2	1	0	2	0
34	705	7	10000	2	1	0	2	0
34	706	7	10000	2	1	0	2	0
35	707	7	10000	2	1	0	2	0
35	708	7	10000	2	1	0	2	0
34	709	7	10000	2	1	0	2	0
31	710	7	10000	2	1	0	2	0
31	711	7	10000	2	1	0	2	0
30	712	7	10000	2	1	0	2	0
30	713	7	10000	2	1	0	2	0
29	714	7	10000	2	1	0	2	0
29	715	7	10000	2	1	0	2	0
27	716	7	10000	2	1	0	2	0
27	717	7	10000	2	1	0	2	0
29	718	7	10000	2	1	0	2	0
29	719	7	10000	2	1	0	2	0
30	720	7	10000	2	1	0	2	0
29	721	7	10000	2	1	0	2	0
28	722	7	10000	2	1	0	2	0
27	723	7	10000	2	1	0	2	0
26	724	7	10000	2	1	0	2	0
24	725	7	10000	2	1	0	2	0
24	726	7	10000	2	1	0	2	0
26	727	7	10000	2	1	0	2	0
28	728	7	10000	2	1	0	2	0
28	729	7	10000	2	1	0	2	0
25	730	7	10000	2	1	0	2	0
26	731	7	10000	2	1	0	2	0
28	732	7	10000	2	1	0	2	0
28	733	7	10000	2	1	0	2	0
26	734	7	10000	2	1	0	2	0
26	735	7	10000	2	1	0	2	0
26	736	7	10000	2	1	0	2	0
25	737	7	10000	2	1	0	2	0
25	738	7	10000	2	1	0	2	0
24	739	7	10000	2	1	0	2	0
27	740	7	10000	2	1	0	2	0
29	741	7	10000	2	1	0	2	0
31	742	7	10000	2	1	0	2	0
33	743	7	10000	2	1	0	2	0
38	744	7	10000	2	1	0	2	0
40	745	7	10000	2	1	0	2	0
40	746	7	10000	2	1	0	2	0
39	747	7	10000	2	1	0	2	0
39	748	7	10000	2	1	0	2	0
38	749	7	10000	2	1	0	2	0
35	750	7	10000	2	1	0	2	0
37	751	7	10000	2	1	0	2	0
40	752	7	10000	2	1	0	2	0
42	753	7	10000	2	1	0	2	0
44	754	7	10000	2	1	0	2	0
46	755	7	10000	2	1	0	2	0
52	756	7	10000	2	1	0	2	0
59	757	7	10000	2	1	0	2	0
66	758	7	10000	2	1	0	2	0
72	759	7	10000	2	1	0	2	0
81	760	7	10000	2	1	0	2	0
87	761	7	10000	2	1	0	2	0
92	762	7	10000	2	1	0	2	0
98	763	7	10000	2	1	0	2	0
105	764	7	10000	2	1	0	2	0
110	765	7	10000	2	1	0	2	0
117	766	7	10000	2	1	0	2	0
124	767	7	10000	2	1	0	2	0
128	768	7	10000	2	1	0	2	0
132	769	7	10000	2	1	0	2	0
131	770	7	10000	2	1	0	2	0
133	771	7	10000	2	1	0	2	0
134	772	7	10000	2	1	0	2	0
136	773	7	10000	2	1	0	2	0
137	774	7	10000	2	1	0	2	0
137	775	7	10000	2	1	0	2	0
136	776	7	10000	2	1	0	2	0
134	777	7	10000	2	1	0	2	0
131	778	7	10000	2	1	0	2	0
128	779	7	10000	2	1	0	2	0
127	780	7	10000	2	1	0	2	0
122	781	7	10000	2	1	0	2	0
116	782	7	10000	2	1	0	2	0
112	783	7	10000	2	1	0	2	0
108	784	7	10000	2	1	0	2	0
106	785	7	10000	2	1	0	2	0
107	786	7	10000	2	1	0	2	0
109	787	7	10000	2	1	0	2	0
112	788	7	10000	2	1	0	2	0
115	789	7	10000	2	1	0	2	0
115	790	7	10000	2	1	0	2	0
118	791	7	10000	2	1	0	2	0
121	792	7	10000	2	1	0	2	0
125	793	7	10000	2	1	0	2	0
129	794	7	10000	2	1	0	2	0
131	795	7	10000	2	1	0	2	0
134	796	7	10000	2	1	0	2	0
137	797	7	10000	2	1	0	2	0
139	798	7	10000	2	1	0	2	0
140	799	7	10000	2	1	0	2	0
144	800	7	10000	2	1	0	2	0
145	801	7	10000	2	1	0	2	0
144	802	7	10000	2	1	0	2	0
144	803	7	10000	2	1	0	2	0
147	804	7	10000	2	1	0	2	0
151	805	7	10000	2	1	0	2	0
155	806	7	10000	2	1	0	2	0
159	807	7	10000	2	1	0	2	0
162	808	7	10000	2	1	0	2	0
163	809	7	10000	2	1	0	2	0
162	810	7	10000	2	1	0	2	0
163	811	7	10000	2	1	0	2	0
162	812	7	10000	2	1	0	2	0
161	813	7	10000	2	1	0	2	0
161	814	7	10000	2	1	0	2	0
160	815	7	10000	2	1	0	2	0
159	816	7	10000	2	1	0	2	0
156	817	7	10000	2	1	0	2	0
154	818	7	10000	2	1	0	2	0
152	819	7	10000	2	1	0	2	0
154	820	7	10000	2	1	0	2	0
155	821	7	10000	2	1	0	2	0
154	822	7	10000	2	1	0	2	0
150	823	7	10000	2	1	0	2	0
146	824	7	10000	2	1	0	2	0
142	825	7	10000	2	1	0	2	0
141	826	7	10000	2	1	0	2	0
141	827	7	10000	2	1	0	2	0
139	828	7	10000	2	1	0	2	0
137	829	7	10000	2	1	0	2	0
133	830	7	10000	2	1	0	2	0
130	831	7	10000	2	1	0	2	0
126	832	7	10000	2	1	0	2	0
122	833	7	10000	2	1	0	2	0
118	834	7	10000	2	1	0	2	0
114	835	7	10000	2	1	0	2	0
110	836	7	10000	2	1	0	2	0
105	837	7	10000	2	1	0	2	0
100	838	7	10000	2	1	0	2	0
96	839	7	10000	2	1	0	2	0
95	840	7	10000	2	1	0	2	0
92	841	7	10000	2	1	0	2	0
89	842	7	10000	2	1	0	2	0
87	843	7	10000	2	1	0	2	0
84	844	7	10000	2	1	0	2	0
80	845	7	10000	2	1	0	2	0
77	846	7	10000	2	1	0	2	0
75	847	7	10000	2	1	0	2	0
74	848	7	10000	2	1	0	2	0
71	849	7	10000	2	1	0	2	0
66	850	7	10000	2	1	0	2	0
63	851	7	10000	2	1	0	2	0
62	852	7	10000	2	1	0	2	0
60	853	7	10000	2	1	0	2	0
58	854	7	10000	2	1	0	2	0
58	855	7	10000	2	1	0	2	0
57	856	7	10000	2	1	0	2	0
55	857	7	10000	2	1	0	2	0
54	858	7	10000	2	1	0	2	0
51	859	7	10000	2	1	0	2	0
52	860	7	10000	2	1	0	2	0
51	861	7	10000	2	1	0	2	0
49	862	7	10000	2	1	0	2	0
46	863	7	10000	2	1	0	2	0
45	864	7	10000	2	1	0	2	0
43	865	7	10000	2	1	0	2	0
43	866	7	10000	2	1	0	2	0
43	867	7	10000	2	1	0	2	0
44	868	7	10000	2	1	0	2	0
45	869	7	10000	2	1	0	2	0
41	870	7	10000	2	1	0	2	0
40	871	7	10000	2	1	0	2	0
39	872	7	10000	2	1	0	2	0
39	873	7	10000	2	1	0	2	0
38	874	7	10000	2	1	0	2	0
38	875	7	10000	2	1	0	2	0
38	876	7	10000	2	1	0	2	0
41	877	7	10000	2	1	0	2	0
49	878	7	10000	2	1	0	2	0
63	879	7	10000	2	1	0	2	0
74	880	7	10000	2	1	0	2	0
74	881	7	10000	2	1	0	2	0
80	882	7	10000	2	1	0	2	0
83	883	7	10000	2	1	0	2	0
104	884	7	10000	2	1	0	2	0
124	885	7	10000	2	1	0	2	0
123	886	7	10000	2	1	0	2	0
122	887	7	10000	2	1	0	2	0
138	888	7	10000	2	1	0	2	0
177	889	7	10000	2	1	0	2	0
192	890	7	10000	2	1	0	2	0
207	891	7	10000	2	1	0	2	0
254	892	7	10000	2	1	0	2	0
256	893	7	10000	2	1	0	2	0
249	894	7	10000	2	1	0	2	0
252	895	7	10000	2	1	0	2	0
248	896	7	10000	2	1	0	2	0
237	897	7	10000	2	1	0	2	0
229	898	7	10000	2	1	0	2	0
228	899	7	10000	2	1	0	2	0
228	900	7	10000	2	1	0	2	0
233	901	7	10000	2	1	0	2	0
244	902	7	10000	2	1	0	2	0
248	903	7	10000	2	1	0	2	0
240	904	7	10000	2	1	0	2	0
249	905	7	10000	2	1	0	2	0
259	906	7	10000	2	1	0	2	0
252	907	7	10000	2	1	0	2	0
253	908	7	10000	2	1	0	2	0
249	909	7	10000	2	1	0	2	0
255	910	7	10000	2	1	0	2	0
280	911	7	10000	2	1	0	2	0
289	912	7	10000	2	1	0	2	0
289	913	7	10000	2	1	0	2	0
292	914	7	10000	2	1	0	2	0
282	915	7	10000	2	1	0	2	0
273	916	7	10000	2	1	0	2	0
265	917	7	10000	2	1	0	2	0
254	918	7	10000	2	1	0	2	0
246	919	7	10000	2	1	0	2	0
238	920	7	10000	2	1	0	2	0
229	921	7	10000	2	1	0	2	0
221	922	7	10000	2	1	0	2	0
212	923	7	10000	2	1	0	2	0
205	924	7	10000	2	1	0	2	0
198	925	7	10000	2	1	0	2	0
190	926	7	10000	2	1	0	2	0
183	927	7	10000	2	1	0	2	0
178	928	7	10000	2	1	0	2	0
181	929	7	10000	2	1	0	2	0
192	930	7	10000	2	1	0	2	0
198	931	7	10000	2	1	0	2	0
197	932	7	10000	2	1	0	2	0
193	933	7	10000	2	1	0	2	0
189	934	7	10000	2	1	0	2	0
186	935	7	10000	2	1	0	2	0
183	936	7	10000	2	1	0	2	0
179	937	7	10000	2	1	0	2	0
175	938	7	10000	2	1	0	2	0
170	939	7	10000	2	1	0	2	0
170	940	7	10000	2	1	0	2	0
169	941	7	10000	2	1	0	2	0
169	942	7	10000	2	1	0	2	0
169	943	7	10000	2	1	0	2	0
170	944	7	10000	2	1	0	2	0
169	945	7	10000	2	1	0	2	0
170	946	7	10000	2	1	0	2	0
170	947	7	10000	2	1	0	2	0
168	948	7	10000	2	1	0	2	0
166	949	7	10000	2	1	0	2	0
163	950	7	10000	2	1	0	2	0
160	951	7	10000	2	1	0	2	0
157	952	7	10000	2	1	0	2	0
153	953	7	10000	2	1	0	2	0
150	954	7	10000	2	1	0	2	0
146	955	7	10000	2	1	0	2	0
142	956	7	10000	2	1	0	2	0
137	957	7	10000	2	1	0	2	0
131	958	7	10000	2	1	0	2	0
125	959	7	10000	2	1	0	2	0
122	960	7	10000	2	1	0	2	0
116	961	7	10000	2	1	0	2	0
111	962	7	10000	2	1	0	2	0
108	963	7	10000	2	1	0	2	0
105	964	7	10000	2	1	0	2	0
104	965	7	10000	2	1	0	2	0
105	966	7	10000	2	1	0	2	0
106	967	7	10000	2	1	0	2	0
109	968	7	10000	2	1	0	2	0
111	969	7	10000	2	1	0	2	0
110	970	7	10000	2	1	0	2	0
115	971	7	10000	2	1	0	2	0
121	972	7	10000	2	1	0	2	0
128	973	7	10000	2	1	0	2	0
133	974	7	10000	2	1	0	2	0
139	975	7	10000	2	1	0	2	0
143	976	7	10000	2	1	0	2	0
149	977	7	10000	2	1	0	2	0
155	978	7	10000	2	1	0	2	0
160	979	7	10000	2	1	0	2	0
171	980	7	10000	2	1	0	2	0
177	981	7	10000	2	1	0	2	0
186	982	7	10000	2	1	0	2	0
195	983	7	10000	2	1	0	2	0
205	984	7	10000	2	1	0	2	0
214	985	7	10000	2	1	0	2	0
225	986	7	10000	2	1	0	2	0
233	987	7	10000	2	1	0	2	0
240	988	7	10000	2	1	0	2	0
249	989	7	10000	2	1	0	2	0
253	990	7	10000	2	1	0	2	0
259	991	7	10000	2	1	0	2	0
262	992	7	10000	2	1	0	2	0
266	993	7	10000	2	1	0	2	0
268	994	7	10000	2	1	0	2	0
268	995	7	10000	2	1	0	2	0
270	996	7	10000	2	1	0	2	0
270	997	7	10000	2	1	0	2	0
35	2	0	10000	3	1	0	3	0
35	3	0	10000	3	1	0	3	0
34	4	0	10000	3	1	0	3	0
31	5	0	10000	3	1	0	3	0
30	6	0	10000	3	1	0	3	0
29	7	0	10000	3	1	0	3	0
29	8	0	10000	3	1	0	3	0
28	9	0	10000	3	1	0	3	0
28	10	0	10000	3	1	0	3	0
27	11	0	10000	3	1	0	3	0
27	12	0	10000	3	1	0	3	0
27	13	0	10000	3	1	0	3	0
27	14	0	10000	3	1	0	3	0
31	15	0	10000	3	1	0	3	0
29	16	0	10000	3	1	0	3	0
28	17	0	10000	3	1	0	3	0
27	18	0	10000	3	1	0	3	0
28	19	0	10000	3	1	0	3	0
27	20	0	10000	3	1	0	3	0
26	21	0	10000	3	1	0	3	0
26	22	0	10000	3	1	0	3	0
27	23	0	10000	3	1	0	3	0
28	24	0	10000	3	1	0	3	0
25	25	0	10000	3	1	0	3	0
24	26	0	10000	3	1	0	3	0
25	27	0	10000	3	1	0	3	0
25	28	0	10000	3	1	0	3	0
27	29	0	10000	3	1	0	3	0
25	30	0	10000	3	1	0	3	0
25	31	0	10000	3	1	0	3	0
24	32	0	10000	3	1	0	3	0
23	33	0	10000	3	1	0	3	0
23	34	0	10000	3	1	0	3	0
24	35	0	10000	3	1	0	3	0
23	36	0	10000	3	1	0	3	0
21	37	0	10000	3	1	0	3	0
21	38	0	10000	3	1	0	3	0
21	39	0	10000	3	1	0	3	0
21	40	0	10000	3	1	0	3	0
22	41	0	10000	3	1	0	3	0
22	42	0	10000	3	1	0	3	0
23	43	0	10000	3	1	0	3	0
22	44	0	10000	3	1	0	3	0
20	45	0	10000	3	1	0	3	0
21	46	0	10000	3	1	0	3	0
22	47	0	10000	3	1	0	3	0
23	48	0	10000	3	1	0	3	0
22	49	0	10000	3	1	0	3	0
22	50	0	10000	3	1	0	3	0
21	51	0	10000	3	1	0	3	0
21	52	0	10000	3	1	0	3	0
20	53	0	10000	3	1	0	3	0
20	54	0	10000	3	1	0	3	0
20	55	0	10000	3	1	0	3	0
20	56	0	10000	3	1	0	3	0
19	57	0	10000	3	1	0	3	0
20	58	0	10000	3	1	0	3	0
22	59	0	10000	3	1	0	3	0
21	60	0	10000	3	1	0	3	0
20	61	0	10000	3	1	0	3	0
20	62	0	10000	3	1	0	3	0
20	63	0	10000	3	1	0	3	0
19	64	0	10000	3	1	0	3	0
18	65	0	10000	3	1	0	3	0
18	66	0	10000	3	1	0	3	0
18	67	0	10000	3	1	0	3	0
19	68	0	10000	3	1	0	3	0
20	69	0	10000	3	1	0	3	0
20	70	0	10000	3	1	0	3	0
20	71	0	10000	3	1	0	3	0
19	72	0	10000	3	1	0	3	0
19	73	0	10000	3	1	0	3	0
22	74	0	10000	3	1	0	3	0
25	75	0	10000	3	1	0	3	0
24	76	0	10000	3	1	0	3	0
24	77	0	10000	3	1	0	3	0
24	78	0	10000	3	1	0	3	0
24	79	0	10000	3	1	0	3	0
23	80	0	10000	3	1	0	3	0
23	81	0	10000	3	1	0	3	0
24	82	0	10000	3	1	0	3	0
25	83	0	10000	3	1	0	3	0
26	84	0	10000	3	1	0	3	0
26	85	0	10000	3	1	0	3	0
26	86	0	10000	3	1	0	3	0
27	87	0	10000	3	1	0	3	0
26	88	0	10000	3	1	0	3	0
25	89	0	10000	3	1	0	3	0
25	90	0	10000	3	1	0	3	0
23	91	0	10000	3	1	0	3	0
23	92	0	10000	3	1	0	3	0
23	93	0	10000	3	1	0	3	0
23	94	0	10000	3	1	0	3	0
24	95	0	10000	3	1	0	3	0
23	96	0	10000	3	1	0	3	0
22	97	0	10000	3	1	0	3	0
21	98	0	10000	3	1	0	3	0
22	99	0	10000	3	1	0	3	0
21	100	0	10000	3	1	0	3	0
20	101	0	10000	3	1	0	3	0
20	102	0	10000	3	1	0	3	0
22	103	0	10000	3	1	0	3	0
25	104	0	10000	3	1	0	3	0
23	105	0	10000	3	1	0	3	0
24	106	0	10000	3	1	0	3	0
25	107	0	10000	3	1	0	3	0
25	108	0	10000	3	1	0	3	0
25	109	0	10000	3	1	0	3	0
24	110	0	10000	3	1	0	3	0
24	111	0	10000	3	1	0	3	0
23	112	0	10000	3	1	0	3	0
23	113	0	10000	3	1	0	3	0
24	114	0	10000	3	1	0	3	0
26	115	0	10000	3	1	0	3	0
25	116	0	10000	3	1	0	3	0
26	117	0	10000	3	1	0	3	0
25	118	0	10000	3	1	0	3	0
25	119	0	10000	3	1	0	3	0
26	120	0	10000	3	1	0	3	0
27	121	0	10000	3	1	0	3	0
27	122	0	10000	3	1	0	3	0
28	123	0	10000	3	1	0	3	0
29	124	0	10000	3	1	0	3	0
28	125	0	10000	3	1	0	3	0
29	126	0	10000	3	1	0	3	0
28	127	0	10000	3	1	0	3	0
28	128	0	10000	3	1	0	3	0
29	129	0	10000	3	1	0	3	0
29	130	0	10000	3	1	0	3	0
28	131	0	10000	3	1	0	3	0
26	132	0	10000	3	1	0	3	0
26	133	0	10000	3	1	0	3	0
25	134	0	10000	3	1	0	3	0
28	135	0	10000	3	1	0	3	0
29	136	0	10000	3	1	0	3	0
29	137	0	10000	3	1	0	3	0
28	138	0	10000	3	1	0	3	0
28	139	0	10000	3	1	0	3	0
29	140	0	10000	3	1	0	3	0
26	141	0	10000	3	1	0	3	0
26	142	0	10000	3	1	0	3	0
28	143	0	10000	3	1	0	3	0
28	144	0	10000	3	1	0	3	0
28	145	0	10000	3	1	0	3	0
32	146	0	10000	3	1	0	3	0
36	147	0	10000	3	1	0	3	0
40	148	0	10000	3	1	0	3	0
44	149	0	10000	3	1	0	3	0
49	150	0	10000	3	1	0	3	0
52	151	0	10000	3	1	0	3	0
50	152	0	10000	3	1	0	3	0
52	153	0	10000	3	1	0	3	0
56	154	0	10000	3	1	0	3	0
61	155	0	10000	3	1	0	3	0
60	156	0	10000	3	1	0	3	0
59	157	0	10000	3	1	0	3	0
61	158	0	10000	3	1	0	3	0
65	159	0	10000	3	1	0	3	0
68	160	0	10000	3	1	0	3	0
73	161	0	10000	3	1	0	3	0
76	162	0	10000	3	1	0	3	0
77	163	0	10000	3	1	0	3	0
78	164	0	10000	3	1	0	3	0
79	165	0	10000	3	1	0	3	0
80	166	0	10000	3	1	0	3	0
81	167	0	10000	3	1	0	3	0
84	168	0	10000	3	1	0	3	0
86	169	0	10000	3	1	0	3	0
89	170	0	10000	3	1	0	3	0
92	171	0	10000	3	1	0	3	0
95	172	0	10000	3	1	0	3	0
98	173	0	10000	3	1	0	3	0
101	174	0	10000	3	1	0	3	0
105	175	0	10000	3	1	0	3	0
105	176	0	10000	3	1	0	3	0
105	177	0	10000	3	1	0	3	0
106	178	0	10000	3	1	0	3	0
109	179	0	10000	3	1	0	3	0
107	180	0	10000	3	1	0	3	0
107	181	0	10000	3	1	0	3	0
108	182	0	10000	3	1	0	3	0
110	183	0	10000	3	1	0	3	0
112	184	0	10000	3	1	0	3	0
110	185	0	10000	3	1	0	3	0
110	186	0	10000	3	1	0	3	0
109	187	0	10000	3	1	0	3	0
111	188	0	10000	3	1	0	3	0
112	189	0	10000	3	1	0	3	0
115	190	0	10000	3	1	0	3	0
115	191	0	10000	3	1	0	3	0
116	192	0	10000	3	1	0	3	0
118	193	0	10000	3	1	0	3	0
120	194	0	10000	3	1	0	3	0
125	195	0	10000	3	1	0	3	0
126	196	0	10000	3	1	0	3	0
127	197	0	10000	3	1	0	3	0
126	198	0	10000	3	1	0	3	0
124	199	0	10000	3	1	0	3	0
119	200	0	10000	3	1	0	3	0
114	201	0	10000	3	1	0	3	0
110	202	0	10000	3	1	0	3	0
106	203	0	10000	3	1	0	3	0
104	204	0	10000	3	1	0	3	0
97	205	0	10000	3	1	0	3	0
95	206	0	10000	3	1	0	3	0
94	207	0	10000	3	1	0	3	0
92	208	0	10000	3	1	0	3	0
87	209	0	10000	3	1	0	3	0
84	210	0	10000	3	1	0	3	0
80	211	0	10000	3	1	0	3	0
76	212	0	10000	3	1	0	3	0
72	213	0	10000	3	1	0	3	0
71	214	0	10000	3	1	0	3	0
73	215	0	10000	3	1	0	3	0
72	216	0	10000	3	1	0	3	0
70	217	0	10000	3	1	0	3	0
71	218	0	10000	3	1	0	3	0
72	219	0	10000	3	1	0	3	0
74	220	0	10000	3	1	0	3	0
75	221	0	10000	3	1	0	3	0
77	222	0	10000	3	1	0	3	0
78	223	0	10000	3	1	0	3	0
77	224	0	10000	3	1	0	3	0
72	225	0	10000	3	1	0	3	0
70	226	0	10000	3	1	0	3	0
68	227	0	10000	3	1	0	3	0
66	228	0	10000	3	1	0	3	0
68	229	0	10000	3	1	0	3	0
71	230	0	10000	3	1	0	3	0
77	231	0	10000	3	1	0	3	0
81	232	0	10000	3	1	0	3	0
83	233	0	10000	3	1	0	3	0
88	234	0	10000	3	1	0	3	0
92	235	0	10000	3	1	0	3	0
96	236	0	10000	3	1	0	3	0
99	237	0	10000	3	1	0	3	0
101	238	0	10000	3	1	0	3	0
104	239	0	10000	3	1	0	3	0
106	240	0	10000	3	1	0	3	0
107	241	0	10000	3	1	0	3	0
110	242	0	10000	3	1	0	3	0
115	243	0	10000	3	1	0	3	0
119	244	0	10000	3	1	0	3	0
121	245	0	10000	3	1	0	3	0
128	246	0	10000	3	1	0	3	0
133	247	0	10000	3	1	0	3	0
137	248	0	10000	3	1	0	3	0
140	249	0	10000	3	1	0	3	0
140	250	0	10000	3	1	0	3	0
142	251	0	10000	3	1	0	3	0
143	252	0	10000	3	1	0	3	0
144	253	0	10000	3	1	0	3	0
145	254	0	10000	3	1	0	3	0
147	255	0	10000	3	1	0	3	0
148	256	0	10000	3	1	0	3	0
151	257	0	10000	3	1	0	3	0
152	258	0	10000	3	1	0	3	0
153	259	0	10000	3	1	0	3	0
155	260	0	10000	3	1	0	3	0
154	261	0	10000	3	1	0	3	0
153	262	0	10000	3	1	0	3	0
149	263	0	10000	3	1	0	3	0
146	264	0	10000	3	1	0	3	0
142	265	0	10000	3	1	0	3	0
141	266	0	10000	3	1	0	3	0
141	267	0	10000	3	1	0	3	0
142	268	0	10000	3	1	0	3	0
141	269	0	10000	3	1	0	3	0
141	270	0	10000	3	1	0	3	0
140	271	0	10000	3	1	0	3	0
138	272	0	10000	3	1	0	3	0
136	273	0	10000	3	1	0	3	0
135	274	0	10000	3	1	0	3	0
137	275	0	10000	3	1	0	3	0
135	276	0	10000	3	1	0	3	0
129	277	0	10000	3	1	0	3	0
125	278	0	10000	3	1	0	3	0
121	279	0	10000	3	1	0	3	0
118	280	0	10000	3	1	0	3	0
115	281	0	10000	3	1	0	3	0
113	282	0	10000	3	1	0	3	0
110	283	0	10000	3	1	0	3	0
107	284	0	10000	3	1	0	3	0
104	285	0	10000	3	1	0	3	0
102	286	0	10000	3	1	0	3	0
101	287	0	10000	3	1	0	3	0
99	288	0	10000	3	1	0	3	0
96	289	0	10000	3	1	0	3	0
95	290	0	10000	3	1	0	3	0
95	291	0	10000	3	1	0	3	0
95	292	0	10000	3	1	0	3	0
94	293	0	10000	3	1	0	3	0
90	294	0	10000	3	1	0	3	0
88	295	0	10000	3	1	0	3	0
84	296	0	10000	3	1	0	3	0
80	297	0	10000	3	1	0	3	0
78	298	0	10000	3	1	0	3	0
76	299	0	10000	3	1	0	3	0
73	300	0	10000	3	1	0	3	0
70	301	0	10000	3	1	0	3	0
68	302	0	10000	3	1	0	3	0
66	303	0	10000	3	1	0	3	0
64	304	0	10000	3	1	0	3	0
60	305	0	10000	3	1	0	3	0
59	306	0	10000	3	1	0	3	0
60	307	0	10000	3	1	0	3	0
58	308	0	10000	3	1	0	3	0
56	309	0	10000	3	1	0	3	0
54	310	0	10000	3	1	0	3	0
53	311	0	10000	3	1	0	3	0
50	312	0	10000	3	1	0	3	0
49	313	0	10000	3	1	0	3	0
48	314	0	10000	3	1	0	3	0
49	315	0	10000	3	1	0	3	0
48	316	0	10000	3	1	0	3	0
46	317	0	10000	3	1	0	3	0
44	318	0	10000	3	1	0	3	0
42	319	0	10000	3	1	0	3	0
40	320	0	10000	3	1	0	3	0
41	321	0	10000	3	1	0	3	0
41	322	0	10000	3	1	0	3	0
43	323	0	10000	3	1	0	3	0
42	324	0	10000	3	1	0	3	0
40	325	0	10000	3	1	0	3	0
43	326	0	10000	3	1	0	3	0
43	327	0	10000	3	1	0	3	0
44	328	0	10000	3	1	0	3	0
44	329	0	10000	3	1	0	3	0
44	330	0	10000	3	1	0	3	0
44	331	0	10000	3	1	0	3	0
44	332	0	10000	3	1	0	3	0
43	333	0	10000	3	1	0	3	0
42	334	0	10000	3	1	0	3	0
45	335	0	10000	3	1	0	3	0
44	336	0	10000	3	1	0	3	0
44	337	0	10000	3	1	0	3	0
42	338	0	10000	3	1	0	3	0
40	339	0	10000	3	1	0	3	0
38	340	0	10000	3	1	0	3	0
37	341	0	10000	3	1	0	3	0
36	342	0	10000	3	1	0	3	0
36	343	0	10000	3	1	0	3	0
36	344	0	10000	3	1	0	3	0
34	345	0	10000	3	1	0	3	0
34	346	0	10000	3	1	0	3	0
33	347	0	10000	3	1	0	3	0
32	348	0	10000	3	1	0	3	0
31	349	0	10000	3	1	0	3	0
30	350	0	10000	3	1	0	3	0
30	351	0	10000	3	1	0	3	0
28	352	0	10000	3	1	0	3	0
27	353	0	10000	3	1	0	3	0
25	354	0	10000	3	1	0	3	0
26	355	0	10000	3	1	0	3	0
25	356	0	10000	3	1	0	3	0
26	357	0	10000	3	1	0	3	0
27	358	0	10000	3	1	0	3	0
28	359	0	10000	3	1	0	3	0
29	360	0	10000	3	1	0	3	0
29	361	0	10000	3	1	0	3	0
31	362	0	10000	3	1	0	3	0
30	363	0	10000	3	1	0	3	0
29	364	0	10000	3	1	0	3	0
26	365	0	10000	3	1	0	3	0
26	366	0	10000	3	1	0	3	0
26	367	0	10000	3	1	0	3	0
25	368	0	10000	3	1	0	3	0
24	369	0	10000	3	1	0	3	0
24	370	0	10000	3	1	0	3	0
27	371	0	10000	3	1	0	3	0
28	372	0	10000	3	1	0	3	0
29	373	0	10000	3	1	0	3	0
27	374	0	10000	3	1	0	3	0
30	375	0	10000	3	1	0	3	0
30	376	0	10000	3	1	0	3	0
28	377	0	10000	3	1	0	3	0
27	378	0	10000	3	1	0	3	0
27	379	0	10000	3	1	0	3	0
28	380	0	10000	3	1	0	3	0
29	381	0	10000	3	1	0	3	0
29	382	0	10000	3	1	0	3	0
28	383	0	10000	3	1	0	3	0
28	384	0	10000	3	1	0	3	0
26	385	0	10000	3	1	0	3	0
25	386	0	10000	3	1	0	3	0
25	387	0	10000	3	1	0	3	0
25	388	0	10000	3	1	0	3	0
26	389	0	10000	3	1	0	3	0
26	390	0	10000	3	1	0	3	0
26	391	0	10000	3	1	0	3	0
25	392	0	10000	3	1	0	3	0
26	393	0	10000	3	1	0	3	0
26	394	0	10000	3	1	0	3	0
27	395	0	10000	3	1	0	3	0
28	396	0	10000	3	1	0	3	0
32	397	0	10000	3	1	0	3	0
36	398	0	10000	3	1	0	3	0
38	399	0	10000	3	1	0	3	0
39	400	0	10000	3	1	0	3	0
39	401	0	10000	3	1	0	3	0
38	402	0	10000	3	1	0	3	0
38	403	0	10000	3	1	0	3	0
38	404	0	10000	3	1	0	3	0
36	405	0	10000	3	1	0	3	0
36	406	0	10000	3	1	0	3	0
35	407	0	10000	3	1	0	3	0
34	408	0	10000	3	1	0	3	0
33	409	0	10000	3	1	0	3	0
32	410	0	10000	3	1	0	3	0
33	411	0	10000	3	1	0	3	0
34	412	0	10000	3	1	0	3	0
33	413	0	10000	3	1	0	3	0
32	414	0	10000	3	1	0	3	0
35	415	0	10000	3	1	0	3	0
35	416	0	10000	3	1	0	3	0
35	417	0	10000	3	1	0	3	0
34	418	0	10000	3	1	0	3	0
35	419	0	10000	3	1	0	3	0
33	420	0	10000	3	1	0	3	0
32	421	0	10000	3	1	0	3	0
32	422	0	10000	3	1	0	3	0
33	423	0	10000	3	1	0	3	0
34	424	0	10000	3	1	0	3	0
31	425	0	10000	3	1	0	3	0
32	426	0	10000	3	1	0	3	0
32	427	0	10000	3	1	0	3	0
32	428	0	10000	3	1	0	3	0
31	429	0	10000	3	1	0	3	0
32	430	0	10000	3	1	0	3	0
31	431	0	10000	3	1	0	3	0
30	432	0	10000	3	1	0	3	0
29	433	0	10000	3	1	0	3	0
28	434	0	10000	3	1	0	3	0
30	435	0	10000	3	1	0	3	0
28	436	0	10000	3	1	0	3	0
27	437	0	10000	3	1	0	3	0
25	438	0	10000	3	1	0	3	0
25	439	0	10000	3	1	0	3	0
24	440	0	10000	3	1	0	3	0
23	441	0	10000	3	1	0	3	0
25	442	0	10000	3	1	0	3	0
25	443	0	10000	3	1	0	3	0
24	444	0	10000	3	1	0	3	0
21	445	0	10000	3	1	0	3	0
21	446	0	10000	3	1	0	3	0
20	447	0	10000	3	1	0	3	0
20	448	0	10000	3	1	0	3	0
20	449	0	10000	3	1	0	3	0
20	450	0	10000	3	1	0	3	0
20	451	0	10000	3	1	0	3	0
18	452	0	10000	3	1	0	3	0
17	453	0	10000	3	1	0	3	0
16	454	0	10000	3	1	0	3	0
18	455	0	10000	3	1	0	3	0
18	456	0	10000	3	1	0	3	0
20	457	0	10000	3	1	0	3	0
19	458	0	10000	3	1	0	3	0
19	459	0	10000	3	1	0	3	0
19	460	0	10000	3	1	0	3	0
19	461	0	10000	3	1	0	3	0
20	462	0	10000	3	1	0	3	0
18	463	0	10000	3	1	0	3	0
18	464	0	10000	3	1	0	3	0
16	465	0	10000	3	1	0	3	0
16	466	0	10000	3	1	0	3	0
16	467	0	10000	3	1	0	3	0
16	468	0	10000	3	1	0	3	0
18	469	0	10000	3	1	0	3	0
18	470	0	10000	3	1	0	3	0
19	471	0	10000	3	1	0	3	0
20	472	0	10000	3	1	0	3	0
20	473	0	10000	3	1	0	3	0
19	474	0	10000	3	1	0	3	0
20	475	0	10000	3	1	0	3	0
20	476	0	10000	3	1	0	3	0
19	477	0	10000	3	1	0	3	0
18	478	0	10000	3	1	0	3	0
20	479	0	10000	3	1	0	3	0
21	480	0	10000	3	1	0	3	0
22	481	0	10000	3	1	0	3	0
22	482	0	10000	3	1	0	3	0
22	483	0	10000	3	1	0	3	0
24	484	0	10000	3	1	0	3	0
21	485	0	10000	3	1	0	3	0
21	486	0	10000	3	1	0	3	0
21	487	0	10000	3	1	0	3	0
20	488	0	10000	3	1	0	3	0
19	489	0	10000	3	1	0	3	0
20	490	0	10000	3	1	0	3	0
19	491	0	10000	3	1	0	3	0
18	492	0	10000	3	1	0	3	0
20	493	0	10000	3	1	0	3	0
20	494	0	10000	3	1	0	3	0
22	495	0	10000	3	1	0	3	0
23	496	0	10000	3	1	0	3	0
25	497	0	10000	3	1	0	3	0
27	498	0	10000	3	1	0	3	0
27	499	0	10000	3	1	0	3	0
27	500	0	10000	3	1	0	3	0
27	501	0	10000	3	1	0	3	0
27	502	0	10000	3	1	0	3	1
28	503	0	10000	3	1	0	3	1
28	504	0	10000	3	1	0	3	1
26	505	0	10000	3	1	0	3	1
26	506	0	10000	3	1	0	3	1
28	507	0	10000	3	1	0	3	1
30	508	0	10000	3	1	0	3	1
29	509	0	10000	3	1	0	3	1
29	510	0	10000	3	1	0	3	1
30	511	0	10000	3	1	0	3	1
31	512	0	10000	3	1	0	3	1
28	513	0	10000	3	1	0	3	1
27	514	0	10000	3	1	0	3	1
28	515	0	10000	3	1	0	3	1
29	516	0	10000	3	1	0	3	1
28	517	0	10000	3	1	0	3	1
28	518	0	10000	3	1	0	3	1
28	519	0	10000	3	1	0	3	1
30	520	0	10000	3	1	0	3	1
30	521	0	10000	3	1	0	3	1
29	522	0	10000	3	1	0	3	1
29	523	0	10000	3	1	0	3	1
31	524	0	10000	3	1	0	3	1
32	525	0	10000	3	1	0	3	1
38	526	0	10000	3	1	0	3	1
41	527	0	10000	3	1	0	3	1
45	528	0	10000	3	1	0	3	1
49	529	0	10000	3	1	0	3	1
49	530	0	10000	3	1	0	3	1
56	531	0	10000	3	1	0	3	1
59	532	0	10000	3	1	0	3	1
59	533	0	10000	3	1	0	3	1
57	534	0	10000	3	1	0	3	1
66	535	0	10000	3	1	0	3	1
78	536	0	10000	3	1	0	3	1
86	537	0	10000	3	1	0	3	1
84	538	0	10000	3	1	0	3	1
86	539	0	10000	3	1	0	3	1
90	540	0	10000	3	1	0	3	1
90	541	0	10000	3	1	0	3	1
89	542	0	10000	3	1	0	3	1
103	543	0	10000	3	1	0	3	1
116	544	0	10000	3	1	0	3	1
124	545	0	10000	3	1	0	3	1
132	546	0	10000	3	1	0	3	1
131	547	0	10000	3	1	0	3	1
142	548	0	10000	3	1	0	3	1
158	549	0	10000	3	1	0	3	1
166	550	0	10000	3	1	0	3	1
165	551	0	10000	3	1	0	3	1
161	552	0	10000	3	1	0	3	0
158	553	0	10000	3	1	0	3	0
157	554	0	10000	3	1	0	3	0
158	555	0	10000	3	1	0	3	0
156	556	0	10000	3	1	0	3	0
155	557	0	10000	3	1	0	3	0
153	558	0	10000	3	1	0	3	0
148	559	0	10000	3	1	0	3	0
142	560	0	10000	3	1	0	3	0
139	561	0	10000	3	1	0	3	0
135	562	0	10000	3	1	0	3	0
129	563	0	10000	3	1	0	3	0
125	564	0	10000	3	1	0	3	0
120	565	0	10000	3	1	0	3	0
116	566	0	10000	3	1	0	3	0
113	567	0	10000	3	1	0	3	0
113	568	0	10000	3	1	0	3	0
110	569	0	10000	3	1	0	3	0
114	570	0	10000	3	1	0	3	0
118	571	0	10000	3	1	0	3	0
115	572	0	10000	3	1	0	3	0
111	573	0	10000	3	1	0	3	0
104	574	0	10000	3	1	0	3	0
107	575	0	10000	3	1	0	3	0
128	576	0	10000	3	1	0	3	0
143	577	0	10000	3	1	0	3	0
143	578	0	10000	3	1	0	3	0
153	579	0	10000	3	1	0	3	0
165	580	0	10000	3	1	0	3	0
175	581	0	10000	3	1	0	3	0
181	582	0	10000	3	1	0	3	0
177	583	0	10000	3	1	0	3	0
182	584	0	10000	3	1	0	3	0
177	585	0	10000	3	1	0	3	0
186	586	0	10000	3	1	0	3	0
195	587	0	10000	3	1	0	3	0
194	588	0	10000	3	1	0	3	0
189	589	0	10000	3	1	0	3	0
184	590	0	10000	3	1	0	3	0
185	591	0	10000	3	1	0	3	0
184	592	0	10000	3	1	0	3	0
184	593	0	10000	3	1	0	3	0
180	594	0	10000	3	1	0	3	0
185	595	0	10000	3	1	0	3	0
189	596	0	10000	3	1	0	3	0
196	597	0	10000	3	1	0	3	0
193	598	0	10000	3	1	0	3	0
188	599	0	10000	3	1	0	3	0
188	600	0	10000	3	1	0	3	0
183	601	0	10000	3	1	0	3	0
178	602	0	10000	3	1	0	3	0
180	603	0	10000	3	1	0	3	0
188	604	0	10000	3	1	0	3	0
194	605	0	10000	3	1	0	3	0
209	606	0	10000	3	1	0	3	0
219	607	0	10000	3	1	0	3	0
222	608	0	10000	3	1	0	3	0
218	609	0	10000	3	1	0	3	0
211	610	0	10000	3	1	0	3	0
205	611	0	10000	3	1	0	3	0
197	612	0	10000	3	1	0	3	0
190	613	0	10000	3	1	0	3	0
187	614	0	10000	3	1	0	3	0
190	615	0	10000	3	1	0	3	0
192	616	0	10000	3	1	0	3	0
192	617	0	10000	3	1	0	3	0
192	618	0	10000	3	1	0	3	0
193	619	0	10000	3	1	0	3	0
196	620	0	10000	3	1	0	3	0
200	621	0	10000	3	1	0	3	0
203	622	0	10000	3	1	0	3	0
205	623	0	10000	3	1	0	3	0
205	624	0	10000	3	1	0	3	0
205	625	0	10000	3	1	0	3	0
206	626	0	10000	3	1	0	3	0
208	627	0	10000	3	1	0	3	0
211	628	0	10000	3	1	0	3	0
212	629	0	10000	3	1	0	3	0
214	630	0	10000	3	1	0	3	0
214	631	0	10000	3	1	0	3	0
214	632	0	10000	3	1	0	3	0
212	633	0	10000	3	1	0	3	0
206	634	0	10000	3	1	0	3	0
202	635	0	10000	3	1	0	3	0
193	636	0	10000	3	1	0	3	0
186	637	0	10000	3	1	0	3	0
177	638	0	10000	3	1	0	3	0
169	639	0	10000	3	1	0	3	0
163	640	0	10000	3	1	0	3	0
155	641	0	10000	3	1	0	3	0
149	642	0	10000	3	1	0	3	0
143	643	0	10000	3	1	0	3	0
140	644	0	10000	3	1	0	3	0
135	645	0	10000	3	1	0	3	0
133	646	0	10000	3	1	0	3	0
129	647	0	10000	3	1	0	3	0
125	648	0	10000	3	1	0	3	0
120	649	0	10000	3	1	0	3	0
117	650	0	10000	3	1	0	3	0
117	651	0	10000	3	1	0	3	0
117	652	0	10000	3	1	0	3	0
119	653	0	10000	3	1	0	3	0
123	654	0	10000	3	1	0	3	0
128	655	0	10000	3	1	0	3	0
131	656	0	10000	3	1	0	3	0
134	657	0	10000	3	1	0	3	0
137	658	0	10000	3	1	0	3	0
141	659	0	10000	3	1	0	3	0
142	660	0	10000	3	1	0	3	0
142	661	0	10000	3	1	0	3	0
143	662	0	10000	3	1	0	3	0
143	663	0	10000	3	1	0	3	0
142	664	0	10000	3	1	0	3	0
138	665	0	10000	3	1	0	3	0
138	666	0	10000	3	1	0	3	0
140	667	0	10000	3	1	0	3	0
141	668	0	10000	3	1	0	3	0
140	669	0	10000	3	1	0	3	0
138	670	0	10000	3	1	0	3	0
136	671	0	10000	3	1	0	3	0
133	672	0	10000	3	1	0	3	0
131	673	0	10000	3	1	0	3	0
128	674	0	10000	3	1	0	3	0
129	675	0	10000	3	1	0	3	0
126	676	0	10000	3	1	0	3	0
123	677	0	10000	3	1	0	3	0
120	678	0	10000	3	1	0	3	0
117	679	0	10000	3	1	0	3	0
115	680	0	10000	3	1	0	3	0
114	681	0	10000	3	1	0	3	0
113	682	0	10000	3	1	0	3	0
109	683	0	10000	3	1	0	3	0
106	684	0	10000	3	1	0	3	0
101	685	0	10000	3	1	0	3	0
97	686	0	10000	3	1	0	3	0
95	687	0	10000	3	1	0	3	0
92	688	0	10000	3	1	0	3	0
90	689	0	10000	3	1	0	3	0
87	690	0	10000	3	1	0	3	0
85	691	0	10000	3	1	0	3	0
81	692	0	10000	3	1	0	3	0
78	693	0	10000	3	1	0	3	0
74	694	0	10000	3	1	0	3	0
73	695	0	10000	3	1	0	3	0
69	696	0	10000	3	1	0	3	0
66	697	0	10000	3	1	0	3	0
64	698	0	10000	3	1	0	3	0
61	699	0	10000	3	1	0	3	0
59	700	0	10000	3	1	0	3	0
57	701	0	10000	3	1	0	3	0
57	702	0	10000	3	1	0	3	0
57	703	0	10000	3	1	0	3	0
59	704	0	10000	3	1	0	3	0
58	705	0	10000	3	1	0	3	0
60	706	0	10000	3	1	0	3	0
61	707	0	10000	3	1	0	3	0
61	708	0	10000	3	1	0	3	0
60	709	0	10000	3	1	0	3	0
60	710	0	10000	3	1	0	3	0
61	711	0	10000	3	1	0	3	0
60	712	0	10000	3	1	0	3	0
58	713	0	10000	3	1	0	3	0
57	714	0	10000	3	1	0	3	0
58	715	0	10000	3	1	0	3	0
59	716	0	10000	3	1	0	3	0
61	717	0	10000	3	1	0	3	0
64	718	0	10000	3	1	0	3	0
65	719	0	10000	3	1	0	3	0
65	720	0	10000	3	1	0	3	0
63	721	0	10000	3	1	0	3	0
63	722	0	10000	3	1	0	3	0
64	723	0	10000	3	1	0	3	0
62	724	0	10000	3	1	0	3	0
59	725	0	10000	3	1	0	3	0
58	726	0	10000	3	1	0	3	0
58	727	0	10000	3	1	0	3	0
57	728	0	10000	3	1	0	3	0
57	729	0	10000	3	1	0	3	0
59	730	0	10000	3	1	0	3	0
60	731	0	10000	3	1	0	3	0
61	732	0	10000	3	1	0	3	0
61	733	0	10000	3	1	0	3	0
61	734	0	10000	3	1	0	3	0
62	735	0	10000	3	1	0	3	0
60	736	0	10000	3	1	0	3	0
57	737	0	10000	3	1	0	3	0
54	738	0	10000	3	1	0	3	0
52	739	0	10000	3	1	0	3	0
50	740	0	10000	3	1	0	3	0
48	741	0	10000	3	1	0	3	0
47	742	0	10000	3	1	0	3	0
47	743	0	10000	3	1	0	3	0
49	744	0	10000	3	1	0	3	0
50	745	0	10000	3	1	0	3	0
50	746	0	10000	3	1	0	3	0
49	747	0	10000	3	1	0	3	0
49	748	0	10000	3	1	0	3	0
49	749	0	10000	3	1	0	3	0
50	750	0	10000	3	1	0	3	0
51	751	0	10000	3	1	0	3	0
52	752	0	10000	3	1	0	3	0
51	753	0	10000	3	1	0	3	0
48	754	0	10000	3	1	0	3	0
48	755	0	10000	3	1	0	3	0
47	756	0	10000	3	1	0	3	0
46	757	0	10000	3	1	0	3	0
46	758	0	10000	3	1	0	3	0
45	759	0	10000	3	1	0	3	0
44	760	0	10000	3	1	0	3	0
42	761	0	10000	3	1	0	3	0
42	762	0	10000	3	1	0	3	0
42	763	0	10000	3	1	0	3	0
42	764	0	10000	3	1	0	3	0
40	765	0	10000	3	1	0	3	0
41	766	0	10000	3	1	0	3	0
40	767	0	10000	3	1	0	3	0
39	768	0	10000	3	1	0	3	0
38	769	0	10000	3	1	0	3	0
36	770	0	10000	3	1	0	3	0
34	771	0	10000	3	1	0	3	0
33	772	0	10000	3	1	0	3	0
32	773	0	10000	3	1	0	3	0
31	774	0	10000	3	1	0	3	0
31	775	0	10000	3	1	0	3	0
31	776	0	10000	3	1	0	3	0
32	777	0	10000	3	1	0	3	0
32	778	0	10000	3	1	0	3	0
32	779	0	10000	3	1	0	3	0
31	780	0	10000	3	1	0	3	0
31	781	0	10000	3	1	0	3	0
33	782	0	10000	3	1	0	3	0
34	783	0	10000	3	1	0	3	0
35	784	0	10000	3	1	0	3	0
33	785	0	10000	3	1	0	3	0
33	786	0	10000	3	1	0	3	0
33	787	0	10000	3	1	0	3	0
33	788	0	10000	3	1	0	3	0
33	789	0	10000	3	1	0	3	0
32	790	0	10000	3	1	0	3	0
31	791	0	10000	3	1	0	3	0
29	792	0	10000	3	1	0	3	0
28	793	0	10000	3	1	0	3	0
28	794	0	10000	3	1	0	3	0
31	795	0	10000	3	1	0	3	0
30	796	0	10000	3	1	0	3	0
28	797	0	10000	3	1	0	3	0
28	798	0	10000	3	1	0	3	0
26	799	0	10000	3	1	0	3	0
27	800	0	10000	3	1	0	3	0
27	801	0	10000	3	1	0	3	0
30	802	0	10000	3	1	0	3	0
32	803	0	10000	3	1	0	3	0
32	804	0	10000	3	1	0	3	0
29	805	0	10000	3	1	0	3	0
29	806	0	10000	3	1	0	3	0
29	807	0	10000	3	1	0	3	0
30	808	0	10000	3	1	0	3	0
30	809	0	10000	3	1	0	3	0
28	810	0	10000	3	1	0	3	0
30	811	0	10000	3	1	0	3	0
30	812	0	10000	3	1	0	3	0
30	813	0	10000	3	1	0	3	0
29	814	0	10000	3	1	0	3	0
31	815	0	10000	3	1	0	3	0
31	816	0	10000	3	1	0	3	0
30	817	0	10000	3	1	0	3	0
29	818	0	10000	3	1	0	3	0
28	819	0	10000	3	1	0	3	0
28	820	0	10000	3	1	0	3	0
26	821	0	10000	3	1	0	3	0
27	822	0	10000	3	1	0	3	0
27	823	0	10000	3	1	0	3	0
26	824	0	10000	3	1	0	3	0
24	825	0	10000	3	1	0	3	0
24	826	0	10000	3	1	0	3	0
24	827	0	10000	3	1	0	3	0
24	828	0	10000	3	1	0	3	0
24	829	0	10000	3	1	0	3	0
25	830	0	10000	3	1	0	3	0
25	831	0	10000	3	1	0	3	0
23	832	0	10000	3	1	0	3	0
24	833	0	10000	3	1	0	3	0
24	834	0	10000	3	1	0	3	0
26	835	0	10000	3	1	0	3	0
27	836	0	10000	3	1	0	3	0
28	837	0	10000	3	1	0	3	0
28	838	0	10000	3	1	0	3	0
29	839	0	10000	3	1	0	3	0
28	840	0	10000	3	1	0	3	0
28	841	0	10000	3	1	0	3	0
28	842	0	10000	3	1	0	3	0
28	843	0	10000	3	1	0	3	0
27	844	0	10000	3	1	0	3	0
28	845	0	10000	3	1	0	3	0
28	846	0	10000	3	1	0	3	0
29	847	0	10000	3	1	0	3	0
29	848	0	10000	3	1	0	3	0
28	849	0	10000	3	1	0	3	0
29	850	0	10000	3	1	0	3	0
32	851	0	10000	3	1	0	3	0
32	852	0	10000	3	1	0	3	0
31	853	0	10000	3	1	0	3	0
30	854	0	10000	3	1	0	3	0
30	855	0	10000	3	1	0	3	0
30	856	0	10000	3	1	0	3	0
30	857	0	10000	3	1	0	3	0
32	858	0	10000	3	1	0	3	0
33	859	0	10000	3	1	0	3	0
34	860	0	10000	3	1	0	3	0
34	861	0	10000	3	1	0	3	0
34	862	0	10000	3	1	0	3	0
33	863	0	10000	3	1	0	3	0
32	864	0	10000	3	1	0	3	0
29	865	0	10000	3	1	0	3	0
28	866	0	10000	3	1	0	3	0
27	867	0	10000	3	1	0	3	0
27	868	0	10000	3	1	0	3	0
27	869	0	10000	3	1	0	3	0
27	870	0	10000	3	1	0	3	0
26	871	0	10000	3	1	0	3	0
26	872	0	10000	3	1	0	3	0
24	873	0	10000	3	1	0	3	0
23	874	0	10000	3	1	0	3	0
24	875	0	10000	3	1	0	3	0
24	876	0	10000	3	1	0	3	0
22	877	0	10000	3	1	0	3	0
21	878	0	10000	3	1	0	3	0
22	879	0	10000	3	1	0	3	0
25	880	0	10000	3	1	0	3	0
24	881	0	10000	3	1	0	3	0
23	882	0	10000	3	1	0	3	0
23	883	0	10000	3	1	0	3	0
23	884	0	10000	3	1	0	3	0
23	885	0	10000	3	1	0	3	0
25	886	0	10000	3	1	0	3	0
26	887	0	10000	3	1	0	3	0
26	888	0	10000	3	1	0	3	0
27	889	0	10000	3	1	0	3	0
26	890	0	10000	3	1	0	3	0
26	891	0	10000	3	1	0	3	0
25	892	0	10000	3	1	0	3	0
24	893	0	10000	3	1	0	3	0
25	894	0	10000	3	1	0	3	0
28	895	0	10000	3	1	0	3	0
26	896	0	10000	3	1	0	3	0
25	897	0	10000	3	1	0	3	0
23	898	0	10000	3	1	0	3	0
22	899	0	10000	3	1	0	3	0
23	900	0	10000	3	1	0	3	0
23	901	0	10000	3	1	0	3	0
23	902	0	10000	3	1	0	3	0
24	903	0	10000	3	1	0	3	0
25	904	0	10000	3	1	0	3	0
22	905	0	10000	3	1	0	3	0
22	906	0	10000	3	1	0	3	0
21	907	0	10000	3	1	0	3	0
20	908	0	10000	3	1	0	3	0
20	909	0	10000	3	1	0	3	0
20	910	0	10000	3	1	0	3	0
19	911	0	10000	3	1	0	3	0
19	912	0	10000	3	1	0	3	0
18	913	0	10000	3	1	0	3	0
18	914	0	10000	3	1	0	3	0
19	915	0	10000	3	1	0	3	0
19	916	0	10000	3	1	0	3	0
19	917	0	10000	3	1	0	3	0
18	918	0	10000	3	1	0	3	0
18	919	0	10000	3	1	0	3	0
18	920	0	10000	3	1	0	3	0
17	921	0	10000	3	1	0	3	0
18	922	0	10000	3	1	0	3	0
21	923	0	10000	3	1	0	3	0
22	924	0	10000	3	1	0	3	0
19	925	0	10000	3	1	0	3	0
20	926	0	10000	3	1	0	3	0
20	927	0	10000	3	1	0	3	0
21	928	0	10000	3	1	0	3	0
21	929	0	10000	3	1	0	3	0
20	930	0	10000	3	1	0	3	0
23	931	0	10000	3	1	0	3	0
23	932	0	10000	3	1	0	3	0
22	933	0	10000	3	1	0	3	0
21	934	0	10000	3	1	0	3	0
23	935	0	10000	3	1	0	3	0
22	936	0	10000	3	1	0	3	0
21	937	0	10000	3	1	0	3	0
20	938	0	10000	3	1	0	3	0
20	939	0	10000	3	1	0	3	0
20	940	0	10000	3	1	0	3	0
21	941	0	10000	3	1	0	3	0
25	942	0	10000	3	1	0	3	0
30	943	0	10000	3	1	0	3	0
35	944	0	10000	3	1	0	3	0
36	945	0	10000	3	1	0	3	0
40	946	0	10000	3	1	0	3	0
43	947	0	10000	3	1	0	3	0
43	948	0	10000	3	1	0	3	0
43	949	0	10000	3	1	0	3	0
47	950	0	10000	3	1	0	3	0
54	951	0	10000	3	1	0	3	0
60	952	0	10000	3	1	0	3	0
60	953	0	10000	3	1	0	3	0
58	954	0	10000	3	1	0	3	0
60	955	0	10000	3	1	0	3	0
63	956	0	10000	3	1	0	3	0
67	957	0	10000	3	1	0	3	0
69	958	0	10000	3	1	0	3	0
71	959	0	10000	3	1	0	3	0
70	960	0	10000	3	1	0	3	0
73	961	0	10000	3	1	0	3	0
80	962	0	10000	3	1	0	3	0
88	963	0	10000	3	1	0	3	0
99	964	0	10000	3	1	0	3	0
103	965	0	10000	3	1	0	3	0
106	966	0	10000	3	1	0	3	0
111	967	0	10000	3	1	0	3	0
112	968	0	10000	3	1	0	3	0
112	969	0	10000	3	1	0	3	0
115	970	0	10000	3	1	0	3	0
118	971	0	10000	3	1	0	3	0
121	972	0	10000	3	1	0	3	0
125	973	0	10000	3	1	0	3	0
128	974	0	10000	3	1	0	3	0
134	975	0	10000	3	1	0	3	0
134	976	0	10000	3	1	0	3	0
132	977	0	10000	3	1	0	3	0
130	978	0	10000	3	1	0	3	0
128	979	0	10000	3	1	0	3	0
126	980	0	10000	3	1	0	3	0
125	981	0	10000	3	1	0	3	0
126	982	0	10000	3	1	0	3	0
129	983	0	10000	3	1	0	3	0
129	984	0	10000	3	1	0	3	0
122	985	0	10000	3	1	0	3	0
117	986	0	10000	3	1	0	3	0
113	987	0	10000	3	1	0	3	0
109	988	0	10000	3	1	0	3	0
107	989	0	10000	3	1	0	3	0
104	990	0	10000	3	1	0	3	0
101	991	0	10000	3	1	0	3	0
98	992	0	10000	3	1	0	3	0
92	993	0	10000	3	1	0	3	0
88	994	0	10000	3	1	0	3	0
88	995	0	10000	3	1	0	3	0
86	996	0	10000	3	1	0	3	0
84	997	0	10000	3	1	0	3	0
83	998	0	10000	3	1	0	3	0
84	999	0	10000	3	1	0	3	0
85	1000	0	10000	3	1	0	3	0
85	1001	0	10000	3	1	0	3	0
13	1	7	10000	4	1	0	4	0
15	2	7	10000	4	1	0	4	0
14	3	7	10000	4	1	0	4	0
15	4	7	10000	4	1	0	4	0
14	5	7	10000	4	1	0	4	0
15	6	7	10000	4	1	0	4	0
14	7	7	10000	4	1	0	4	0
13	8	7	10000	4	1	0	4	0
13	9	7	10000	4	1	0	4	0
16	10	7	10000	4	1	0	4	0
18	11	7	10000	4	1	0	4	0
16	12	7	10000	4	1	0	4	0
17	13	7	10000	4	1	0	4	0
19	14	7	10000	4	1	0	4	0
21	15	7	10000	4	1	0	4	0
21	16	7	10000	4	1	0	4	0
21	17	7	10000	4	1	0	4	0
21	18	7	10000	4	1	0	4	0
20	19	7	10000	4	1	0	4	0
19	20	7	10000	4	1	0	4	0
19	21	7	10000	4	1	0	4	0
20	22	7	10000	4	1	0	4	0
19	23	7	10000	4	1	0	4	0
19	24	7	10000	4	1	0	4	0
17	25	7	10000	4	1	0	4	0
18	26	7	10000	4	1	0	4	0
18	27	7	10000	4	1	0	4	0
18	28	7	10000	4	1	0	4	0
19	29	7	10000	4	1	0	4	0
19	30	7	10000	4	1	0	4	0
19	31	7	10000	4	1	0	4	0
16	32	7	10000	4	1	0	4	0
16	33	7	10000	4	1	0	4	0
17	34	7	10000	4	1	0	4	0
18	35	7	10000	4	1	0	4	0
18	36	7	10000	4	1	0	4	0
18	37	7	10000	4	1	0	4	0
18	38	7	10000	4	1	0	4	0
17	39	7	10000	4	1	0	4	0
17	40	7	10000	4	1	0	4	0
17	41	7	10000	4	1	0	4	0
20	42	7	10000	4	1	0	4	0
18	43	7	10000	4	1	0	4	0
19	44	7	10000	4	1	0	4	0
20	45	7	10000	4	1	0	4	0
21	46	7	10000	4	1	0	4	0
22	47	7	10000	4	1	0	4	0
24	48	7	10000	4	1	0	4	0
24	49	7	10000	4	1	0	4	0
25	50	7	10000	4	1	0	4	0
26	51	7	10000	4	1	0	4	0
27	52	7	10000	4	1	0	4	0
29	53	7	10000	4	1	0	4	0
31	54	7	10000	4	1	0	4	0
32	55	7	10000	4	1	0	4	0
34	56	7	10000	4	1	0	4	0
35	57	7	10000	4	1	0	4	0
39	58	7	10000	4	1	0	4	0
43	59	7	10000	4	1	0	4	0
48	60	7	10000	4	1	0	4	0
52	61	7	10000	4	1	0	4	0
59	62	7	10000	4	1	0	4	0
62	63	7	10000	4	1	0	4	0
65	64	7	10000	4	1	0	4	0
67	65	7	10000	4	1	0	4	0
69	66	7	10000	4	1	0	4	0
73	67	7	10000	4	1	0	4	0
74	68	7	10000	4	1	0	4	0
78	69	7	10000	4	1	0	4	0
82	70	7	10000	4	1	0	4	0
85	71	7	10000	4	1	0	4	0
89	72	7	10000	4	1	0	4	0
95	73	7	10000	4	1	0	4	0
102	74	7	10000	4	1	0	4	0
108	75	7	10000	4	1	0	4	0
114	76	7	10000	4	1	0	4	0
121	77	7	10000	4	1	0	4	0
125	78	7	10000	4	1	0	4	0
128	79	7	10000	4	1	0	4	0
130	80	7	10000	4	1	0	4	0
130	81	7	10000	4	1	0	4	0
132	82	7	10000	4	1	0	4	0
132	83	7	10000	4	1	0	4	0
132	84	7	10000	4	1	0	4	0
132	85	7	10000	4	1	0	4	0
133	86	7	10000	4	1	0	4	0
134	87	7	10000	4	1	0	4	0
134	88	7	10000	4	1	0	4	0
133	89	7	10000	4	1	0	4	0
131	90	7	10000	4	1	0	4	0
129	91	7	10000	4	1	0	4	0
125	92	7	10000	4	1	0	4	0
123	93	7	10000	4	1	0	4	0
121	94	7	10000	4	1	0	4	0
119	95	7	10000	4	1	0	4	0
115	96	7	10000	4	1	0	4	0
110	97	7	10000	4	1	0	4	0
106	98	7	10000	4	1	0	4	0
101	99	7	10000	4	1	0	4	0
97	100	7	10000	4	1	0	4	0
93	101	7	10000	4	1	0	4	0
94	102	7	10000	4	1	0	4	0
93	103	7	10000	4	1	0	4	0
93	104	7	10000	4	1	0	4	0
93	105	7	10000	4	1	0	4	0
93	106	7	10000	4	1	0	4	0
92	107	7	10000	4	1	0	4	0
93	108	7	10000	4	1	0	4	0
96	109	7	10000	4	1	0	4	0
101	110	7	10000	4	1	0	4	0
106	111	7	10000	4	1	0	4	0
110	112	7	10000	4	1	0	4	0
114	113	7	10000	4	1	0	4	0
117	114	7	10000	4	1	0	4	0
121	115	7	10000	4	1	0	4	0
125	116	7	10000	4	1	0	4	0
129	117	7	10000	4	1	0	4	0
132	118	7	10000	4	1	0	4	0
134	119	7	10000	4	1	0	4	0
138	120	7	10000	4	1	0	4	0
140	121	7	10000	4	1	0	4	0
145	122	7	10000	4	1	0	4	0
148	123	7	10000	4	1	0	4	0
151	124	7	10000	4	1	0	4	0
153	125	7	10000	4	1	0	4	0
155	126	7	10000	4	1	0	4	0
156	127	7	10000	4	1	0	4	0
156	128	7	10000	4	1	0	4	0
158	129	7	10000	4	1	0	4	0
160	130	7	10000	4	1	0	4	0
163	131	7	10000	4	1	0	4	0
161	132	7	10000	4	1	0	4	0
162	133	7	10000	4	1	0	4	0
162	134	7	10000	4	1	0	4	0
161	135	7	10000	4	1	0	4	0
162	136	7	10000	4	1	0	4	0
162	137	7	10000	4	1	0	4	0
162	138	7	10000	4	1	0	4	0
163	139	7	10000	4	1	0	4	0
162	140	7	10000	4	1	0	4	0
161	141	7	10000	4	1	0	4	0
162	142	7	10000	4	1	0	4	0
160	143	7	10000	4	1	0	4	0
158	144	7	10000	4	1	0	4	0
155	145	7	10000	4	1	0	4	0
152	146	7	10000	4	1	0	4	0
148	147	7	10000	4	1	0	4	0
147	148	7	10000	4	1	0	4	0
146	149	7	10000	4	1	0	4	0
144	150	7	10000	4	1	0	4	0
141	151	7	10000	4	1	0	4	0
135	152	7	10000	4	1	0	4	0
132	153	7	10000	4	1	0	4	0
130	154	7	10000	4	1	0	4	0
128	155	7	10000	4	1	0	4	0
126	156	7	10000	4	1	0	4	0
121	157	7	10000	4	1	0	4	0
117	158	7	10000	4	1	0	4	0
114	159	7	10000	4	1	0	4	0
110	160	7	10000	4	1	0	4	0
107	161	7	10000	4	1	0	4	0
105	162	7	10000	4	1	0	4	0
103	163	7	10000	4	1	0	4	0
100	164	7	10000	4	1	0	4	0
97	165	7	10000	4	1	0	4	0
94	166	7	10000	4	1	0	4	0
91	167	7	10000	4	1	0	4	0
87	168	7	10000	4	1	0	4	0
85	169	7	10000	4	1	0	4	0
82	170	7	10000	4	1	0	4	0
80	171	7	10000	4	1	0	4	0
76	172	7	10000	4	1	0	4	0
73	173	7	10000	4	1	0	4	0
70	174	7	10000	4	1	0	4	0
67	175	7	10000	4	1	0	4	0
65	176	7	10000	4	1	0	4	0
63	177	7	10000	4	1	0	4	0
62	178	7	10000	4	1	0	4	0
59	179	7	10000	4	1	0	4	0
57	180	7	10000	4	1	0	4	0
55	181	7	10000	4	1	0	4	0
54	182	7	10000	4	1	0	4	0
52	183	7	10000	4	1	0	4	0
51	184	7	10000	4	1	0	4	0
48	185	7	10000	4	1	0	4	0
47	186	7	10000	4	1	0	4	0
46	187	7	10000	4	1	0	4	0
44	188	7	10000	4	1	0	4	0
42	189	7	10000	4	1	0	4	0
42	190	7	10000	4	1	0	4	0
41	191	7	10000	4	1	0	4	0
38	192	7	10000	4	1	0	4	0
39	193	7	10000	4	1	0	4	0
40	194	7	10000	4	1	0	4	0
40	195	7	10000	4	1	0	4	0
39	196	7	10000	4	1	0	4	0
37	197	7	10000	4	1	0	4	0
36	198	7	10000	4	1	0	4	0
35	199	7	10000	4	1	0	4	0
34	200	7	10000	4	1	0	4	0
32	201	7	10000	4	1	0	4	0
33	202	7	10000	4	1	0	4	0
33	203	7	10000	4	1	0	4	0
31	204	7	10000	4	1	0	4	0
31	205	7	10000	4	1	0	4	0
32	206	7	10000	4	1	0	4	0
32	207	7	10000	4	1	0	4	0
32	208	7	10000	4	1	0	4	0
33	209	7	10000	4	1	0	4	0
35	210	7	10000	4	1	0	4	0
35	211	7	10000	4	1	0	4	0
33	212	7	10000	4	1	0	4	0
33	213	7	10000	4	1	0	4	0
32	214	7	10000	4	1	0	4	0
32	215	7	10000	4	1	0	4	0
32	216	7	10000	4	1	0	4	0
32	217	7	10000	4	1	0	4	0
32	218	7	10000	4	1	0	4	0
31	219	7	10000	4	1	0	4	0
31	220	7	10000	4	1	0	4	0
29	221	7	10000	4	1	0	4	0
31	222	7	10000	4	1	0	4	0
30	223	7	10000	4	1	0	4	0
29	224	7	10000	4	1	0	4	0
28	225	7	10000	4	1	0	4	0
28	226	7	10000	4	1	0	4	0
29	227	7	10000	4	1	0	4	0
29	228	7	10000	4	1	0	4	0
29	229	7	10000	4	1	0	4	0
30	230	7	10000	4	1	0	4	0
30	231	7	10000	4	1	0	4	0
27	232	7	10000	4	1	0	4	0
28	233	7	10000	4	1	0	4	0
28	234	7	10000	4	1	0	4	0
29	235	7	10000	4	1	0	4	0
28	236	7	10000	4	1	0	4	0
28	237	7	10000	4	1	0	4	0
27	238	7	10000	4	1	0	4	0
26	239	7	10000	4	1	0	4	0
25	240	7	10000	4	1	0	4	0
23	241	7	10000	4	1	0	4	0
25	242	7	10000	4	1	0	4	0
24	243	7	10000	4	1	0	4	0
23	244	7	10000	4	1	0	4	0
22	245	7	10000	4	1	0	4	0
21	246	7	10000	4	1	0	4	0
22	247	7	10000	4	1	0	4	0
22	248	7	10000	4	1	0	4	0
22	249	7	10000	4	1	0	4	0
23	250	7	10000	4	1	0	4	0
23	251	7	10000	4	1	0	4	0
21	252	7	10000	4	1	0	4	0
20	253	7	10000	4	1	0	4	0
20	254	7	10000	4	1	0	4	0
20	255	7	10000	4	1	0	4	0
20	256	7	10000	4	1	0	4	0
20	257	7	10000	4	1	0	4	0
20	258	7	10000	4	1	0	4	0
19	259	7	10000	4	1	0	4	0
19	260	7	10000	4	1	0	4	0
18	261	7	10000	4	1	0	4	0
20	262	7	10000	4	1	0	4	0
19	263	7	10000	4	1	0	4	0
18	264	7	10000	4	1	0	4	0
19	265	7	10000	4	1	0	4	0
19	266	7	10000	4	1	0	4	0
20	267	7	10000	4	1	0	4	0
19	268	7	10000	4	1	0	4	0
19	269	7	10000	4	1	0	4	0
20	270	7	10000	4	1	0	4	0
19	271	7	10000	4	1	0	4	0
17	272	7	10000	4	1	0	4	0
16	273	7	10000	4	1	0	4	0
17	274	7	10000	4	1	0	4	0
16	275	7	10000	4	1	0	4	0
16	276	7	10000	4	1	0	4	0
16	277	7	10000	4	1	0	4	0
17	278	7	10000	4	1	0	4	0
16	279	7	10000	4	1	0	4	0
15	280	7	10000	4	1	0	4	0
15	281	7	10000	4	1	0	4	0
16	282	7	10000	4	1	0	4	0
16	283	7	10000	4	1	0	4	0
16	284	7	10000	4	1	0	4	0
15	285	7	10000	4	1	0	4	0
14	286	7	10000	4	1	0	4	0
14	287	7	10000	4	1	0	4	0
15	288	7	10000	4	1	0	4	0
16	289	7	10000	4	1	0	4	0
18	290	7	10000	4	1	0	4	0
19	291	7	10000	4	1	0	4	0
17	292	7	10000	4	1	0	4	0
18	293	7	10000	4	1	0	4	0
20	294	7	10000	4	1	0	4	0
21	295	7	10000	4	1	0	4	0
22	296	7	10000	4	1	0	4	0
23	297	7	10000	4	1	0	4	0
26	298	7	10000	4	1	0	4	0
26	299	7	10000	4	1	0	4	0
27	300	7	10000	4	1	0	4	0
27	301	7	10000	4	1	0	4	0
28	302	7	10000	4	1	0	4	0
27	303	7	10000	4	1	0	4	0
25	304	7	10000	4	1	0	4	0
25	305	7	10000	4	1	0	4	0
24	306	7	10000	4	1	0	4	0
23	307	7	10000	4	1	0	4	0
23	308	7	10000	4	1	0	4	0
24	309	7	10000	4	1	0	4	0
24	310	7	10000	4	1	0	4	0
25	311	7	10000	4	1	0	4	0
22	312	7	10000	4	1	0	4	0
22	313	7	10000	4	1	0	4	0
24	314	7	10000	4	1	0	4	0
24	315	7	10000	4	1	0	4	0
24	316	7	10000	4	1	0	4	0
24	317	7	10000	4	1	0	4	0
23	318	7	10000	4	1	0	4	0
23	319	7	10000	4	1	0	4	0
22	320	7	10000	4	1	0	4	0
21	321	7	10000	4	1	0	4	0
24	322	7	10000	4	1	0	4	0
25	323	7	10000	4	1	0	4	0
24	324	7	10000	4	1	0	4	0
24	325	7	10000	4	1	0	4	0
24	326	7	10000	4	1	0	4	0
24	327	7	10000	4	1	0	4	0
24	328	7	10000	4	1	0	4	0
25	329	7	10000	4	1	0	4	0
24	330	7	10000	4	1	0	4	0
25	331	7	10000	4	1	0	4	0
22	332	7	10000	4	1	0	4	0
21	333	7	10000	4	1	0	4	0
22	334	7	10000	4	1	0	4	0
22	335	7	10000	4	1	0	4	0
22	336	7	10000	4	1	0	4	0
21	337	7	10000	4	1	0	4	0
21	338	7	10000	4	1	0	4	0
20	339	7	10000	4	1	0	4	0
20	340	7	10000	4	1	0	4	0
19	341	7	10000	4	1	0	4	0
22	342	7	10000	4	1	0	4	0
20	343	7	10000	4	1	0	4	0
20	344	7	10000	4	1	0	4	0
19	345	7	10000	4	1	0	4	0
19	346	7	10000	4	1	0	4	0
18	347	7	10000	4	1	0	4	0
19	348	7	10000	4	1	0	4	0
20	349	7	10000	4	1	0	4	0
20	350	7	10000	4	1	0	4	0
20	351	7	10000	4	1	0	4	0
18	352	7	10000	4	1	0	4	0
20	353	7	10000	4	1	0	4	0
20	354	7	10000	4	1	0	4	0
21	355	7	10000	4	1	0	4	0
22	356	7	10000	4	1	0	4	0
21	357	7	10000	4	1	0	4	0
22	358	7	10000	4	1	0	4	0
21	359	7	10000	4	1	0	4	0
21	360	7	10000	4	1	0	4	0
20	361	7	10000	4	1	0	4	0
21	362	7	10000	4	1	0	4	0
20	363	7	10000	4	1	0	4	0
20	364	7	10000	4	1	0	4	0
19	365	7	10000	4	1	0	4	0
18	366	7	10000	4	1	0	4	0
20	367	7	10000	4	1	0	4	0
20	368	7	10000	4	1	0	4	0
19	369	7	10000	4	1	0	4	0
20	370	7	10000	4	1	0	4	0
20	371	7	10000	4	1	0	4	0
18	372	7	10000	4	1	0	4	0
18	373	7	10000	4	1	0	4	0
18	374	7	10000	4	1	0	4	0
18	375	7	10000	4	1	0	4	0
18	376	7	10000	4	1	0	4	0
17	377	7	10000	4	1	0	4	0
18	378	7	10000	4	1	0	4	0
17	379	7	10000	4	1	0	4	0
17	380	7	10000	4	1	0	4	0
17	381	7	10000	4	1	0	4	0
18	382	7	10000	4	1	0	4	0
18	383	7	10000	4	1	0	4	0
18	384	7	10000	4	1	0	4	0
18	385	7	10000	4	1	0	4	0
19	386	7	10000	4	1	0	4	0
19	387	7	10000	4	1	0	4	0
18	388	7	10000	4	1	0	4	0
18	389	7	10000	4	1	0	4	0
20	390	7	10000	4	1	0	4	0
21	391	7	10000	4	1	0	4	0
20	392	7	10000	4	1	0	4	0
20	393	7	10000	4	1	0	4	0
20	394	7	10000	4	1	0	4	0
20	395	7	10000	4	1	0	4	0
20	396	7	10000	4	1	0	4	0
20	397	7	10000	4	1	0	4	0
20	398	7	10000	4	1	0	4	0
19	399	7	10000	4	1	0	4	0
18	400	7	10000	4	1	0	4	0
18	401	7	10000	4	1	0	4	0
19	402	7	10000	4	1	0	4	0
20	403	7	10000	4	1	0	4	0
18	404	7	10000	4	1	0	4	0
17	405	7	10000	4	1	0	4	0
17	406	7	10000	4	1	0	4	0
18	407	7	10000	4	1	0	4	0
19	408	7	10000	4	1	0	4	0
19	409	7	10000	4	1	0	4	0
20	410	7	10000	4	1	0	4	0
19	411	7	10000	4	1	0	4	0
17	412	7	10000	4	1	0	4	0
17	413	7	10000	4	1	0	4	0
16	414	7	10000	4	1	0	4	0
17	415	7	10000	4	1	0	4	0
16	416	7	10000	4	1	0	4	0
16	417	7	10000	4	1	0	4	0
16	418	7	10000	4	1	0	4	0
16	419	7	10000	4	1	0	4	0
17	420	7	10000	4	1	0	4	0
18	421	7	10000	4	1	0	4	0
20	422	7	10000	4	1	0	4	0
20	423	7	10000	4	1	0	4	0
20	424	7	10000	4	1	0	4	0
19	425	7	10000	4	1	0	4	0
20	426	7	10000	4	1	0	4	0
20	427	7	10000	4	1	0	4	0
19	428	7	10000	4	1	0	4	0
19	429	7	10000	4	1	0	4	0
19	430	7	10000	4	1	0	4	0
20	431	7	10000	4	1	0	4	0
17	432	7	10000	4	1	0	4	0
17	433	7	10000	4	1	0	4	0
18	434	7	10000	4	1	0	4	0
18	435	7	10000	4	1	0	4	0
18	436	7	10000	4	1	0	4	0
17	437	7	10000	4	1	0	4	0
17	438	7	10000	4	1	0	4	0
16	439	7	10000	4	1	0	4	0
15	440	7	10000	4	1	0	4	0
14	441	7	10000	4	1	0	4	0
16	442	7	10000	4	1	0	4	0
15	443	7	10000	4	1	0	4	0
14	444	7	10000	4	1	0	4	0
14	445	7	10000	4	1	0	4	0
13	446	7	10000	4	1	0	4	0
13	447	7	10000	4	1	0	4	0
13	448	7	10000	4	1	0	4	0
12	449	7	10000	4	1	0	4	0
12	450	7	10000	4	1	0	4	0
13	451	7	10000	4	1	0	4	0
11	452	7	10000	4	1	0	4	0
12	453	7	10000	4	1	0	4	0
12	454	7	10000	4	1	0	4	0
12	455	7	10000	4	1	0	4	0
12	456	7	10000	4	1	0	4	0
11	457	7	10000	4	1	0	4	0
12	458	7	10000	4	1	0	4	0
11	459	7	10000	4	1	0	4	0
11	460	7	10000	4	1	0	4	0
11	461	7	10000	4	1	0	4	0
13	462	7	10000	4	1	0	4	0
13	463	7	10000	4	1	0	4	0
13	464	7	10000	4	1	0	4	0
13	465	7	10000	4	1	0	4	0
14	466	7	10000	4	1	0	4	0
15	467	7	10000	4	1	0	4	0
14	468	7	10000	4	1	0	4	0
14	469	7	10000	4	1	0	4	0
16	470	7	10000	4	1	0	4	0
16	471	7	10000	4	1	0	4	0
14	472	7	10000	4	1	0	4	0
13	473	7	10000	4	1	0	4	0
14	474	7	10000	4	1	0	4	0
14	475	7	10000	4	1	0	4	0
14	476	7	10000	4	1	0	4	0
14	477	7	10000	4	1	0	4	0
14	478	7	10000	4	1	0	4	0
13	479	7	10000	4	1	0	4	0
13	480	7	10000	4	1	0	4	0
13	481	7	10000	4	1	0	4	0
15	482	7	10000	4	1	0	4	0
16	483	7	10000	4	1	0	4	0
15	484	7	10000	4	1	0	4	0
17	485	7	10000	4	1	0	4	0
21	486	7	10000	4	1	0	4	0
26	487	7	10000	4	1	0	4	0
32	488	7	10000	4	1	0	4	0
39	489	7	10000	4	1	0	4	0
47	490	7	10000	4	1	0	4	0
53	491	7	10000	4	1	0	4	0
56	492	7	10000	4	1	0	4	0
56	493	7	10000	4	1	0	4	0
55	494	7	10000	4	1	0	4	0
57	495	7	10000	4	1	0	4	0
59	496	7	10000	4	1	0	4	0
58	497	7	10000	4	1	0	4	0
57	498	7	10000	4	1	0	4	0
55	499	7	10000	4	1	0	4	0
52	500	7	10000	4	1	0	4	0
50	501	7	10000	4	1	0	4	1
52	502	7	10000	4	1	0	4	1
53	503	7	10000	4	1	0	4	1
52	504	7	10000	4	1	0	4	1
54	505	7	10000	4	1	0	4	1
58	506	7	10000	4	1	0	4	1
61	507	7	10000	4	1	0	4	1
62	508	7	10000	4	1	0	4	1
66	509	7	10000	4	1	0	4	1
71	510	7	10000	4	1	0	4	1
76	511	7	10000	4	1	0	4	1
80	512	7	10000	4	1	0	4	1
80	513	7	10000	4	1	0	4	1
81	514	7	10000	4	1	0	4	1
82	515	7	10000	4	1	0	4	1
82	516	7	10000	4	1	0	4	1
85	517	7	10000	4	1	0	4	1
88	518	7	10000	4	1	0	4	1
90	519	7	10000	4	1	0	4	1
94	520	7	10000	4	1	0	4	1
99	521	7	10000	4	1	0	4	1
106	522	7	10000	4	1	0	4	1
109	523	7	10000	4	1	0	4	1
111	524	7	10000	4	1	0	4	1
111	525	7	10000	4	1	0	4	1
113	526	7	10000	4	1	0	4	1
114	527	7	10000	4	1	0	4	1
113	528	7	10000	4	1	0	4	1
114	529	7	10000	4	1	0	4	1
116	530	7	10000	4	1	0	4	1
118	531	7	10000	4	1	0	4	1
114	532	7	10000	4	1	0	4	1
114	533	7	10000	4	1	0	4	1
113	534	7	10000	4	1	0	4	1
113	535	7	10000	4	1	0	4	1
114	536	7	10000	4	1	0	4	1
116	537	7	10000	4	1	0	4	1
117	538	7	10000	4	1	0	4	1
114	539	7	10000	4	1	0	4	1
110	540	7	10000	4	1	0	4	1
107	541	7	10000	4	1	0	4	1
107	542	7	10000	4	1	0	4	1
104	543	7	10000	4	1	0	4	1
101	544	7	10000	4	1	0	4	1
98	545	7	10000	4	1	0	4	1
94	546	7	10000	4	1	0	4	1
92	547	7	10000	4	1	0	4	1
90	548	7	10000	4	1	0	4	1
87	549	7	10000	4	1	0	4	1
84	550	7	10000	4	1	0	4	1
82	551	7	10000	4	1	0	4	0
79	552	7	10000	4	1	0	4	0
77	553	7	10000	4	1	0	4	0
74	554	7	10000	4	1	0	4	0
70	555	7	10000	4	1	0	4	0
69	556	7	10000	4	1	0	4	0
67	557	7	10000	4	1	0	4	0
67	558	7	10000	4	1	0	4	0
68	559	7	10000	4	1	0	4	0
68	560	7	10000	4	1	0	4	0
68	561	7	10000	4	1	0	4	0
70	562	7	10000	4	1	0	4	0
70	563	7	10000	4	1	0	4	0
70	564	7	10000	4	1	0	4	0
72	565	7	10000	4	1	0	4	0
75	566	7	10000	4	1	0	4	0
78	567	7	10000	4	1	0	4	0
79	568	7	10000	4	1	0	4	0
80	569	7	10000	4	1	0	4	0
83	570	7	10000	4	1	0	4	0
84	571	7	10000	4	1	0	4	0
84	572	7	10000	4	1	0	4	0
85	573	7	10000	4	1	0	4	0
87	574	7	10000	4	1	0	4	0
89	575	7	10000	4	1	0	4	0
93	576	7	10000	4	1	0	4	0
99	577	7	10000	4	1	0	4	0
104	578	7	10000	4	1	0	4	0
110	579	7	10000	4	1	0	4	0
116	580	7	10000	4	1	0	4	0
121	581	7	10000	4	1	0	4	0
128	582	7	10000	4	1	0	4	0
133	583	7	10000	4	1	0	4	0
136	584	7	10000	4	1	0	4	0
140	585	7	10000	4	1	0	4	0
145	586	7	10000	4	1	0	4	0
146	587	7	10000	4	1	0	4	0
144	588	7	10000	4	1	0	4	0
147	589	7	10000	4	1	0	4	0
156	590	7	10000	4	1	0	4	0
162	591	7	10000	4	1	0	4	0
155	592	7	10000	4	1	0	4	0
151	593	7	10000	4	1	0	4	0
155	594	7	10000	4	1	0	4	0
159	595	7	10000	4	1	0	4	0
157	596	7	10000	4	1	0	4	0
154	597	7	10000	4	1	0	4	0
148	598	7	10000	4	1	0	4	0
144	599	7	10000	4	1	0	4	0
143	600	7	10000	4	1	0	4	0
147	601	7	10000	4	1	0	4	0
170	602	7	10000	4	1	0	4	0
176	603	7	10000	4	1	0	4	0
173	604	7	10000	4	1	0	4	0
187	605	7	10000	4	1	0	4	0
209	606	7	10000	4	1	0	4	0
225	607	7	10000	4	1	0	4	0
235	608	7	10000	4	1	0	4	0
241	609	7	10000	4	1	0	4	0
244	610	7	10000	4	1	0	4	0
244	611	7	10000	4	1	0	4	0
238	612	7	10000	4	1	0	4	0
231	613	7	10000	4	1	0	4	0
224	614	7	10000	4	1	0	4	0
216	615	7	10000	4	1	0	4	0
208	616	7	10000	4	1	0	4	0
198	617	7	10000	4	1	0	4	0
190	618	7	10000	4	1	0	4	0
182	619	7	10000	4	1	0	4	0
176	620	7	10000	4	1	0	4	0
169	621	7	10000	4	1	0	4	0
165	622	7	10000	4	1	0	4	0
160	623	7	10000	4	1	0	4	0
155	624	7	10000	4	1	0	4	0
150	625	7	10000	4	1	0	4	0
144	626	7	10000	4	1	0	4	0
140	627	7	10000	4	1	0	4	0
135	628	7	10000	4	1	0	4	0
129	629	7	10000	4	1	0	4	0
123	630	7	10000	4	1	0	4	0
120	631	7	10000	4	1	0	4	0
114	632	7	10000	4	1	0	4	0
109	633	7	10000	4	1	0	4	0
105	634	7	10000	4	1	0	4	0
102	635	7	10000	4	1	0	4	0
99	636	7	10000	4	1	0	4	0
96	637	7	10000	4	1	0	4	0
95	638	7	10000	4	1	0	4	0
94	639	7	10000	4	1	0	4	0
93	640	7	10000	4	1	0	4	0
90	641	7	10000	4	1	0	4	0
91	642	7	10000	4	1	0	4	0
90	643	7	10000	4	1	0	4	0
89	644	7	10000	4	1	0	4	0
90	645	7	10000	4	1	0	4	0
88	646	7	10000	4	1	0	4	0
87	647	7	10000	4	1	0	4	0
88	648	7	10000	4	1	0	4	0
88	649	7	10000	4	1	0	4	0
86	650	7	10000	4	1	0	4	0
84	651	7	10000	4	1	0	4	0
81	652	7	10000	4	1	0	4	0
81	653	7	10000	4	1	0	4	0
82	654	7	10000	4	1	0	4	0
83	655	7	10000	4	1	0	4	0
83	656	7	10000	4	1	0	4	0
83	657	7	10000	4	1	0	4	0
83	658	7	10000	4	1	0	4	0
84	659	7	10000	4	1	0	4	0
84	660	7	10000	4	1	0	4	0
84	661	7	10000	4	1	0	4	0
86	662	7	10000	4	1	0	4	0
86	663	7	10000	4	1	0	4	0
84	664	7	10000	4	1	0	4	0
83	665	7	10000	4	1	0	4	0
82	666	7	10000	4	1	0	4	0
82	667	7	10000	4	1	0	4	0
81	668	7	10000	4	1	0	4	0
80	669	7	10000	4	1	0	4	0
80	670	7	10000	4	1	0	4	0
79	671	7	10000	4	1	0	4	0
75	672	7	10000	4	1	0	4	0
72	673	7	10000	4	1	0	4	0
71	674	7	10000	4	1	0	4	0
71	675	7	10000	4	1	0	4	0
69	676	7	10000	4	1	0	4	0
66	677	7	10000	4	1	0	4	0
64	678	7	10000	4	1	0	4	0
61	679	7	10000	4	1	0	4	0
58	680	7	10000	4	1	0	4	0
56	681	7	10000	4	1	0	4	0
55	682	7	10000	4	1	0	4	0
53	683	7	10000	4	1	0	4	0
52	684	7	10000	4	1	0	4	0
49	685	7	10000	4	1	0	4	0
47	686	7	10000	4	1	0	4	0
45	687	7	10000	4	1	0	4	0
44	688	7	10000	4	1	0	4	0
44	689	7	10000	4	1	0	4	0
44	690	7	10000	4	1	0	4	0
44	691	7	10000	4	1	0	4	0
43	692	7	10000	4	1	0	4	0
43	693	7	10000	4	1	0	4	0
43	694	7	10000	4	1	0	4	0
42	695	7	10000	4	1	0	4	0
41	696	7	10000	4	1	0	4	0
41	697	7	10000	4	1	0	4	0
42	698	7	10000	4	1	0	4	0
41	699	7	10000	4	1	0	4	0
40	700	7	10000	4	1	0	4	0
39	701	7	10000	4	1	0	4	0
40	702	7	10000	4	1	0	4	0
41	703	7	10000	4	1	0	4	0
41	704	7	10000	4	1	0	4	0
41	705	7	10000	4	1	0	4	0
41	706	7	10000	4	1	0	4	0
40	707	7	10000	4	1	0	4	0
40	708	7	10000	4	1	0	4	0
40	709	7	10000	4	1	0	4	0
39	710	7	10000	4	1	0	4	0
41	711	7	10000	4	1	0	4	0
41	712	7	10000	4	1	0	4	0
43	713	7	10000	4	1	0	4	0
45	714	7	10000	4	1	0	4	0
45	715	7	10000	4	1	0	4	0
47	716	7	10000	4	1	0	4	0
48	717	7	10000	4	1	0	4	0
48	718	7	10000	4	1	0	4	0
46	719	7	10000	4	1	0	4	0
45	720	7	10000	4	1	0	4	0
42	721	7	10000	4	1	0	4	0
42	722	7	10000	4	1	0	4	0
41	723	7	10000	4	1	0	4	0
41	724	7	10000	4	1	0	4	0
40	725	7	10000	4	1	0	4	0
41	726	7	10000	4	1	0	4	0
40	727	7	10000	4	1	0	4	0
41	728	7	10000	4	1	0	4	0
42	729	7	10000	4	1	0	4	0
42	730	7	10000	4	1	0	4	0
44	731	7	10000	4	1	0	4	0
43	732	7	10000	4	1	0	4	0
44	733	7	10000	4	1	0	4	0
44	734	7	10000	4	1	0	4	0
44	735	7	10000	4	1	0	4	0
44	736	7	10000	4	1	0	4	0
44	737	7	10000	4	1	0	4	0
44	738	7	10000	4	1	0	4	0
44	739	7	10000	4	1	0	4	0
43	740	7	10000	4	1	0	4	0
42	741	7	10000	4	1	0	4	0
42	742	7	10000	4	1	0	4	0
42	743	7	10000	4	1	0	4	0
40	744	7	10000	4	1	0	4	0
40	745	7	10000	4	1	0	4	0
38	746	7	10000	4	1	0	4	0
40	747	7	10000	4	1	0	4	0
42	748	7	10000	4	1	0	4	0
41	749	7	10000	4	1	0	4	0
39	750	7	10000	4	1	0	4	0
40	751	7	10000	4	1	0	4	0
40	752	7	10000	4	1	0	4	0
41	753	7	10000	4	1	0	4	0
42	754	7	10000	4	1	0	4	0
44	755	7	10000	4	1	0	4	0
47	756	7	10000	4	1	0	4	0
49	757	7	10000	4	1	0	4	0
63	758	7	10000	4	1	0	4	0
98	759	7	10000	4	1	0	4	0
132	760	7	10000	4	1	0	4	0
143	761	7	10000	4	1	0	4	0
140	762	7	10000	4	1	0	4	0
139	763	7	10000	4	1	0	4	0
140	764	7	10000	4	1	0	4	0
140	765	7	10000	4	1	0	4	0
151	766	7	10000	4	1	0	4	0
159	767	7	10000	4	1	0	4	0
158	768	7	10000	4	1	0	4	0
152	769	7	10000	4	1	0	4	0
148	770	7	10000	4	1	0	4	0
144	771	7	10000	4	1	0	4	0
142	772	7	10000	4	1	0	4	0
141	773	7	10000	4	1	0	4	0
146	774	7	10000	4	1	0	4	0
156	775	7	10000	4	1	0	4	0
160	776	7	10000	4	1	0	4	0
154	777	7	10000	4	1	0	4	0
157	778	7	10000	4	1	0	4	0
157	779	7	10000	4	1	0	4	0
165	780	7	10000	4	1	0	4	0
177	781	7	10000	4	1	0	4	0
183	782	7	10000	4	1	0	4	0
189	783	7	10000	4	1	0	4	0
189	784	7	10000	4	1	0	4	0
182	785	7	10000	4	1	0	4	0
176	786	7	10000	4	1	0	4	0
179	787	7	10000	4	1	0	4	0
178	788	7	10000	4	1	0	4	0
175	789	7	10000	4	1	0	4	0
170	790	7	10000	4	1	0	4	0
164	791	7	10000	4	1	0	4	0
166	792	7	10000	4	1	0	4	0
165	793	7	10000	4	1	0	4	0
161	794	7	10000	4	1	0	4	0
159	795	7	10000	4	1	0	4	0
156	796	7	10000	4	1	0	4	0
165	797	7	10000	4	1	0	4	0
178	798	7	10000	4	1	0	4	0
177	799	7	10000	4	1	0	4	0
169	800	7	10000	4	1	0	4	0
162	801	7	10000	4	1	0	4	0
160	802	7	10000	4	1	0	4	0
162	803	7	10000	4	1	0	4	0
164	804	7	10000	4	1	0	4	0
165	805	7	10000	4	1	0	4	0
169	806	7	10000	4	1	0	4	0
175	807	7	10000	4	1	0	4	0
178	808	7	10000	4	1	0	4	0
178	809	7	10000	4	1	0	4	0
179	810	7	10000	4	1	0	4	0
181	811	7	10000	4	1	0	4	0
180	812	7	10000	4	1	0	4	0
177	813	7	10000	4	1	0	4	0
175	814	7	10000	4	1	0	4	0
172	815	7	10000	4	1	0	4	0
169	816	7	10000	4	1	0	4	0
165	817	7	10000	4	1	0	4	0
159	818	7	10000	4	1	0	4	0
152	819	7	10000	4	1	0	4	0
148	820	7	10000	4	1	0	4	0
140	821	7	10000	4	1	0	4	0
138	822	7	10000	4	1	0	4	0
136	823	7	10000	4	1	0	4	0
134	824	7	10000	4	1	0	4	0
134	825	7	10000	4	1	0	4	0
136	826	7	10000	4	1	0	4	0
137	827	7	10000	4	1	0	4	0
137	828	7	10000	4	1	0	4	0
136	829	7	10000	4	1	0	4	0
135	830	7	10000	4	1	0	4	0
137	831	7	10000	4	1	0	4	0
137	832	7	10000	4	1	0	4	0
140	833	7	10000	4	1	0	4	0
148	834	7	10000	4	1	0	4	0
155	835	7	10000	4	1	0	4	0
164	836	7	10000	4	1	0	4	0
173	837	7	10000	4	1	0	4	0
182	838	7	10000	4	1	0	4	0
189	839	7	10000	4	1	0	4	0
195	840	7	10000	4	1	0	4	0
202	841	7	10000	4	1	0	4	0
209	842	7	10000	4	1	0	4	0
215	843	7	10000	4	1	0	4	0
219	844	7	10000	4	1	0	4	0
225	845	7	10000	4	1	0	4	0
227	846	7	10000	4	1	0	4	0
231	847	7	10000	4	1	0	4	0
235	848	7	10000	4	1	0	4	0
239	849	7	10000	4	1	0	4	0
242	850	7	10000	4	1	0	4	0
243	851	7	10000	4	1	0	4	0
241	852	7	10000	4	1	0	4	0
241	853	7	10000	4	1	0	4	0
242	854	7	10000	4	1	0	4	0
242	855	7	10000	4	1	0	4	0
242	856	7	10000	4	1	0	4	0
241	857	7	10000	4	1	0	4	0
241	858	7	10000	4	1	0	4	0
242	859	7	10000	4	1	0	4	0
240	860	7	10000	4	1	0	4	0
237	861	7	10000	4	1	0	4	0
237	862	7	10000	4	1	0	4	0
235	863	7	10000	4	1	0	4	0
231	864	7	10000	4	1	0	4	0
228	865	7	10000	4	1	0	4	0
221	866	7	10000	4	1	0	4	0
213	867	7	10000	4	1	0	4	0
207	868	7	10000	4	1	0	4	0
199	869	7	10000	4	1	0	4	0
193	870	7	10000	4	1	0	4	0
186	871	7	10000	4	1	0	4	0
176	872	7	10000	4	1	0	4	0
169	873	7	10000	4	1	0	4	0
162	874	7	10000	4	1	0	4	0
156	875	7	10000	4	1	0	4	0
152	876	7	10000	4	1	0	4	0
146	877	7	10000	4	1	0	4	0
142	878	7	10000	4	1	0	4	0
138	879	7	10000	4	1	0	4	0
132	880	7	10000	4	1	0	4	0
127	881	7	10000	4	1	0	4	0
122	882	7	10000	4	1	0	4	0
119	883	7	10000	4	1	0	4	0
116	884	7	10000	4	1	0	4	0
114	885	7	10000	4	1	0	4	0
113	886	7	10000	4	1	0	4	0
111	887	7	10000	4	1	0	4	0
110	888	7	10000	4	1	0	4	0
109	889	7	10000	4	1	0	4	0
107	890	7	10000	4	1	0	4	0
105	891	7	10000	4	1	0	4	0
102	892	7	10000	4	1	0	4	0
100	893	7	10000	4	1	0	4	0
99	894	7	10000	4	1	0	4	0
98	895	7	10000	4	1	0	4	0
95	896	7	10000	4	1	0	4	0
93	897	7	10000	4	1	0	4	0
92	898	7	10000	4	1	0	4	0
90	899	7	10000	4	1	0	4	0
87	900	7	10000	4	1	0	4	0
84	901	7	10000	4	1	0	4	0
83	902	7	10000	4	1	0	4	0
82	903	7	10000	4	1	0	4	0
80	904	7	10000	4	1	0	4	0
79	905	7	10000	4	1	0	4	0
79	906	7	10000	4	1	0	4	0
77	907	7	10000	4	1	0	4	0
75	908	7	10000	4	1	0	4	0
75	909	7	10000	4	1	0	4	0
77	910	7	10000	4	1	0	4	0
80	911	7	10000	4	1	0	4	0
80	912	7	10000	4	1	0	4	0
79	913	7	10000	4	1	0	4	0
80	914	7	10000	4	1	0	4	0
80	915	7	10000	4	1	0	4	0
78	916	7	10000	4	1	0	4	0
77	917	7	10000	4	1	0	4	0
77	918	7	10000	4	1	0	4	0
75	919	7	10000	4	1	0	4	0
74	920	7	10000	4	1	0	4	0
70	921	7	10000	4	1	0	4	0
70	922	7	10000	4	1	0	4	0
69	923	7	10000	4	1	0	4	0
69	924	7	10000	4	1	0	4	0
69	925	7	10000	4	1	0	4	0
68	926	7	10000	4	1	0	4	0
67	927	7	10000	4	1	0	4	0
66	928	7	10000	4	1	0	4	0
66	929	7	10000	4	1	0	4	0
66	930	7	10000	4	1	0	4	0
68	931	7	10000	4	1	0	4	0
67	932	7	10000	4	1	0	4	0
66	933	7	10000	4	1	0	4	0
67	934	7	10000	4	1	0	4	0
65	935	7	10000	4	1	0	4	0
65	936	7	10000	4	1	0	4	0
63	937	7	10000	4	1	0	4	0
61	938	7	10000	4	1	0	4	0
60	939	7	10000	4	1	0	4	0
58	940	7	10000	4	1	0	4	0
55	941	7	10000	4	1	0	4	0
54	942	7	10000	4	1	0	4	0
53	943	7	10000	4	1	0	4	0
50	944	7	10000	4	1	0	4	0
49	945	7	10000	4	1	0	4	0
48	946	7	10000	4	1	0	4	0
49	947	7	10000	4	1	0	4	0
49	948	7	10000	4	1	0	4	0
49	949	7	10000	4	1	0	4	0
47	950	7	10000	4	1	0	4	0
47	951	7	10000	4	1	0	4	0
46	952	7	10000	4	1	0	4	0
45	953	7	10000	4	1	0	4	0
47	954	7	10000	4	1	0	4	0
48	955	7	10000	4	1	0	4	0
48	956	7	10000	4	1	0	4	0
48	957	7	10000	4	1	0	4	0
48	958	7	10000	4	1	0	4	0
47	959	7	10000	4	1	0	4	0
46	960	7	10000	4	1	0	4	0
46	961	7	10000	4	1	0	4	0
46	962	7	10000	4	1	0	4	0
46	963	7	10000	4	1	0	4	0
45	964	7	10000	4	1	0	4	0
44	965	7	10000	4	1	0	4	0
43	966	7	10000	4	1	0	4	0
44	967	7	10000	4	1	0	4	0
44	968	7	10000	4	1	0	4	0
45	969	7	10000	4	1	0	4	0
48	970	7	10000	4	1	0	4	0
49	971	7	10000	4	1	0	4	0
48	972	7	10000	4	1	0	4	0
46	973	7	10000	4	1	0	4	0
45	974	7	10000	4	1	0	4	0
45	975	7	10000	4	1	0	4	0
44	976	7	10000	4	1	0	4	0
42	977	7	10000	4	1	0	4	0
42	978	7	10000	4	1	0	4	0
41	979	7	10000	4	1	0	4	0
39	980	7	10000	4	1	0	4	0
40	981	7	10000	4	1	0	4	0
40	982	7	10000	4	1	0	4	0
42	983	7	10000	4	1	0	4	0
42	984	7	10000	4	1	0	4	0
41	985	7	10000	4	1	0	4	0
39	986	7	10000	4	1	0	4	0
37	987	7	10000	4	1	0	4	0
35	988	7	10000	4	1	0	4	0
35	989	7	10000	4	1	0	4	0
35	990	7	10000	4	1	0	4	0
36	991	7	10000	4	1	0	4	0
35	992	7	10000	4	1	0	4	0
35	993	7	10000	4	1	0	4	0
34	994	7	10000	4	1	0	4	0
34	995	7	10000	4	1	0	4	0
33	996	7	10000	4	1	0	4	0
33	997	7	10000	4	1	0	4	0
32	998	7	10000	4	1	0	4	0
32	999	7	10000	4	1	0	4	0
32	1000	7	10000	4	1	0	4	0
13	2	7	10000	5	1	0	5	0
13	3	7	10000	5	1	0	5	0
12	4	7	10000	5	1	0	5	0
13	5	7	10000	5	1	0	5	0
15	6	7	10000	5	1	0	5	0
15	7	7	10000	5	1	0	5	0
15	8	7	10000	5	1	0	5	0
17	9	7	10000	5	1	0	5	0
17	10	7	10000	5	1	0	5	0
17	11	7	10000	5	1	0	5	0
15	12	7	10000	5	1	0	5	0
15	13	7	10000	5	1	0	5	0
14	14	7	10000	5	1	0	5	0
14	15	7	10000	5	1	0	5	0
14	16	7	10000	5	1	0	5	0
15	17	7	10000	5	1	0	5	0
14	18	7	10000	5	1	0	5	0
15	19	7	10000	5	1	0	5	0
16	20	7	10000	5	1	0	5	0
16	21	7	10000	5	1	0	5	0
16	22	7	10000	5	1	0	5	0
17	23	7	10000	5	1	0	5	0
17	24	7	10000	5	1	0	5	0
18	25	7	10000	5	1	0	5	0
17	26	7	10000	5	1	0	5	0
16	27	7	10000	5	1	0	5	0
16	28	7	10000	5	1	0	5	0
16	29	7	10000	5	1	0	5	0
17	30	7	10000	5	1	0	5	0
16	31	7	10000	5	1	0	5	0
15	32	7	10000	5	1	0	5	0
15	33	7	10000	5	1	0	5	0
15	34	7	10000	5	1	0	5	0
15	35	7	10000	5	1	0	5	0
16	36	7	10000	5	1	0	5	0
16	37	7	10000	5	1	0	5	0
17	38	7	10000	5	1	0	5	0
16	39	7	10000	5	1	0	5	0
14	40	7	10000	5	1	0	5	0
15	41	7	10000	5	1	0	5	0
16	42	7	10000	5	1	0	5	0
16	43	7	10000	5	1	0	5	0
18	44	7	10000	5	1	0	5	0
17	45	7	10000	5	1	0	5	0
18	46	7	10000	5	1	0	5	0
19	47	7	10000	5	1	0	5	0
18	48	7	10000	5	1	0	5	0
18	49	7	10000	5	1	0	5	0
19	50	7	10000	5	1	0	5	0
18	51	7	10000	5	1	0	5	0
17	52	7	10000	5	1	0	5	0
17	53	7	10000	5	1	0	5	0
17	54	7	10000	5	1	0	5	0
16	55	7	10000	5	1	0	5	0
16	56	7	10000	5	1	0	5	0
16	57	7	10000	5	1	0	5	0
17	58	7	10000	5	1	0	5	0
18	59	7	10000	5	1	0	5	0
17	60	7	10000	5	1	0	5	0
17	61	7	10000	5	1	0	5	0
16	62	7	10000	5	1	0	5	0
16	63	7	10000	5	1	0	5	0
16	64	7	10000	5	1	0	5	0
15	65	7	10000	5	1	0	5	0
14	66	7	10000	5	1	0	5	0
14	67	7	10000	5	1	0	5	0
14	68	7	10000	5	1	0	5	0
15	69	7	10000	5	1	0	5	0
16	70	7	10000	5	1	0	5	0
15	71	7	10000	5	1	0	5	0
14	72	7	10000	5	1	0	5	0
14	73	7	10000	5	1	0	5	0
14	74	7	10000	5	1	0	5	0
16	75	7	10000	5	1	0	5	0
16	76	7	10000	5	1	0	5	0
16	77	7	10000	5	1	0	5	0
17	78	7	10000	5	1	0	5	0
16	79	7	10000	5	1	0	5	0
13	80	7	10000	5	1	0	5	0
14	81	7	10000	5	1	0	5	0
15	82	7	10000	5	1	0	5	0
16	83	7	10000	5	1	0	5	0
17	84	7	10000	5	1	0	5	0
17	85	7	10000	5	1	0	5	0
17	86	7	10000	5	1	0	5	0
16	87	7	10000	5	1	0	5	0
15	88	7	10000	5	1	0	5	0
16	89	7	10000	5	1	0	5	0
16	90	7	10000	5	1	0	5	0
16	91	7	10000	5	1	0	5	0
17	92	7	10000	5	1	0	5	0
17	93	7	10000	5	1	0	5	0
18	94	7	10000	5	1	0	5	0
19	95	7	10000	5	1	0	5	0
18	96	7	10000	5	1	0	5	0
19	97	7	10000	5	1	0	5	0
20	98	7	10000	5	1	0	5	0
18	99	7	10000	5	1	0	5	0
17	100	7	10000	5	1	0	5	0
18	101	7	10000	5	1	0	5	0
20	102	7	10000	5	1	0	5	0
20	103	7	10000	5	1	0	5	0
20	104	7	10000	5	1	0	5	0
20	105	7	10000	5	1	0	5	0
21	106	7	10000	5	1	0	5	0
20	107	7	10000	5	1	0	5	0
19	108	7	10000	5	1	0	5	0
20	109	7	10000	5	1	0	5	0
20	110	7	10000	5	1	0	5	0
20	111	7	10000	5	1	0	5	0
20	112	7	10000	5	1	0	5	0
22	113	7	10000	5	1	0	5	0
24	114	7	10000	5	1	0	5	0
24	115	7	10000	5	1	0	5	0
25	116	7	10000	5	1	0	5	0
24	117	7	10000	5	1	0	5	0
24	118	7	10000	5	1	0	5	0
24	119	7	10000	5	1	0	5	0
22	120	7	10000	5	1	0	5	0
21	121	7	10000	5	1	0	5	0
21	122	7	10000	5	1	0	5	0
21	123	7	10000	5	1	0	5	0
21	124	7	10000	5	1	0	5	0
21	125	7	10000	5	1	0	5	0
20	126	7	10000	5	1	0	5	0
20	127	7	10000	5	1	0	5	0
19	128	7	10000	5	1	0	5	0
19	129	7	10000	5	1	0	5	0
19	130	7	10000	5	1	0	5	0
19	131	7	10000	5	1	0	5	0
18	132	7	10000	5	1	0	5	0
16	133	7	10000	5	1	0	5	0
17	134	7	10000	5	1	0	5	0
18	135	7	10000	5	1	0	5	0
19	136	7	10000	5	1	0	5	0
18	137	7	10000	5	1	0	5	0
18	138	7	10000	5	1	0	5	0
17	139	7	10000	5	1	0	5	0
14	140	7	10000	5	1	0	5	0
15	141	7	10000	5	1	0	5	0
16	142	7	10000	5	1	0	5	0
17	143	7	10000	5	1	0	5	0
17	144	7	10000	5	1	0	5	0
17	145	7	10000	5	1	0	5	0
17	146	7	10000	5	1	0	5	0
17	147	7	10000	5	1	0	5	0
16	148	7	10000	5	1	0	5	0
16	149	7	10000	5	1	0	5	0
18	150	7	10000	5	1	0	5	0
16	151	7	10000	5	1	0	5	0
16	152	7	10000	5	1	0	5	0
16	153	7	10000	5	1	0	5	0
16	154	7	10000	5	1	0	5	0
15	155	7	10000	5	1	0	5	0
15	156	7	10000	5	1	0	5	0
15	157	7	10000	5	1	0	5	0
15	158	7	10000	5	1	0	5	0
14	159	7	10000	5	1	0	5	0
13	160	7	10000	5	1	0	5	0
14	161	7	10000	5	1	0	5	0
15	162	7	10000	5	1	0	5	0
15	163	7	10000	5	1	0	5	0
16	164	7	10000	5	1	0	5	0
15	165	7	10000	5	1	0	5	0
15	166	7	10000	5	1	0	5	0
14	167	7	10000	5	1	0	5	0
13	168	7	10000	5	1	0	5	0
13	169	7	10000	5	1	0	5	0
16	170	7	10000	5	1	0	5	0
16	171	7	10000	5	1	0	5	0
16	172	7	10000	5	1	0	5	0
16	173	7	10000	5	1	0	5	0
15	174	7	10000	5	1	0	5	0
16	175	7	10000	5	1	0	5	0
15	176	7	10000	5	1	0	5	0
16	177	7	10000	5	1	0	5	0
18	178	7	10000	5	1	0	5	0
18	179	7	10000	5	1	0	5	0
17	180	7	10000	5	1	0	5	0
17	181	7	10000	5	1	0	5	0
17	182	7	10000	5	1	0	5	0
16	183	7	10000	5	1	0	5	0
16	184	7	10000	5	1	0	5	0
15	185	7	10000	5	1	0	5	0
14	186	7	10000	5	1	0	5	0
14	187	7	10000	5	1	0	5	0
13	188	7	10000	5	1	0	5	0
14	189	7	10000	5	1	0	5	0
15	190	7	10000	5	1	0	5	0
15	191	7	10000	5	1	0	5	0
15	192	7	10000	5	1	0	5	0
14	193	7	10000	5	1	0	5	0
14	194	7	10000	5	1	0	5	0
14	195	7	10000	5	1	0	5	0
13	196	7	10000	5	1	0	5	0
13	197	7	10000	5	1	0	5	0
13	198	7	10000	5	1	0	5	0
13	199	7	10000	5	1	0	5	0
14	200	7	10000	5	1	0	5	0
13	201	7	10000	5	1	0	5	0
13	202	7	10000	5	1	0	5	0
15	203	7	10000	5	1	0	5	0
14	204	7	10000	5	1	0	5	0
14	205	7	10000	5	1	0	5	0
16	206	7	10000	5	1	0	5	0
15	207	7	10000	5	1	0	5	0
14	208	7	10000	5	1	0	5	0
14	209	7	10000	5	1	0	5	0
16	210	7	10000	5	1	0	5	0
16	211	7	10000	5	1	0	5	0
15	212	7	10000	5	1	0	5	0
15	213	7	10000	5	1	0	5	0
17	214	7	10000	5	1	0	5	0
17	215	7	10000	5	1	0	5	0
18	216	7	10000	5	1	0	5	0
18	217	7	10000	5	1	0	5	0
18	218	7	10000	5	1	0	5	0
17	219	7	10000	5	1	0	5	0
15	220	7	10000	5	1	0	5	0
15	221	7	10000	5	1	0	5	0
16	222	7	10000	5	1	0	5	0
16	223	7	10000	5	1	0	5	0
16	224	7	10000	5	1	0	5	0
18	225	7	10000	5	1	0	5	0
17	226	7	10000	5	1	0	5	0
16	227	7	10000	5	1	0	5	0
15	228	7	10000	5	1	0	5	0
15	229	7	10000	5	1	0	5	0
17	230	7	10000	5	1	0	5	0
16	231	7	10000	5	1	0	5	0
15	232	7	10000	5	1	0	5	0
14	233	7	10000	5	1	0	5	0
16	234	7	10000	5	1	0	5	0
16	235	7	10000	5	1	0	5	0
16	236	7	10000	5	1	0	5	0
16	237	7	10000	5	1	0	5	0
16	238	7	10000	5	1	0	5	0
16	239	7	10000	5	1	0	5	0
13	240	7	10000	5	1	0	5	0
14	241	7	10000	5	1	0	5	0
14	242	7	10000	5	1	0	5	0
14	243	7	10000	5	1	0	5	0
14	244	7	10000	5	1	0	5	0
15	245	7	10000	5	1	0	5	0
14	246	7	10000	5	1	0	5	0
14	247	7	10000	5	1	0	5	0
13	248	7	10000	5	1	0	5	0
14	249	7	10000	5	1	0	5	0
16	250	7	10000	5	1	0	5	0
15	251	7	10000	5	1	0	5	0
14	252	7	10000	5	1	0	5	0
14	253	7	10000	5	1	0	5	0
13	254	7	10000	5	1	0	5	0
12	255	7	10000	5	1	0	5	0
13	256	7	10000	5	1	0	5	0
13	257	7	10000	5	1	0	5	0
13	258	7	10000	5	1	0	5	0
13	259	7	10000	5	1	0	5	0
12	260	7	10000	5	1	0	5	0
12	261	7	10000	5	1	0	5	0
11	262	7	10000	5	1	0	5	0
12	263	7	10000	5	1	0	5	0
12	264	7	10000	5	1	0	5	0
12	265	7	10000	5	1	0	5	0
12	266	7	10000	5	1	0	5	0
12	267	7	10000	5	1	0	5	0
11	268	7	10000	5	1	0	5	0
12	269	7	10000	5	1	0	5	0
13	270	7	10000	5	1	0	5	0
12	271	7	10000	5	1	0	5	0
11	272	7	10000	5	1	0	5	0
14	273	7	10000	5	1	0	5	0
16	274	7	10000	5	1	0	5	0
18	275	7	10000	5	1	0	5	0
20	276	7	10000	5	1	0	5	0
19	277	7	10000	5	1	0	5	0
21	278	7	10000	5	1	0	5	0
20	279	7	10000	5	1	0	5	0
17	280	7	10000	5	1	0	5	0
18	281	7	10000	5	1	0	5	0
19	282	7	10000	5	1	0	5	0
18	283	7	10000	5	1	0	5	0
18	284	7	10000	5	1	0	5	0
18	285	7	10000	5	1	0	5	0
18	286	7	10000	5	1	0	5	0
18	287	7	10000	5	1	0	5	0
17	288	7	10000	5	1	0	5	0
19	289	7	10000	5	1	0	5	0
21	290	7	10000	5	1	0	5	0
20	291	7	10000	5	1	0	5	0
20	292	7	10000	5	1	0	5	0
19	293	7	10000	5	1	0	5	0
19	294	7	10000	5	1	0	5	0
18	295	7	10000	5	1	0	5	0
18	296	7	10000	5	1	0	5	0
18	297	7	10000	5	1	0	5	0
19	298	7	10000	5	1	0	5	0
18	299	7	10000	5	1	0	5	0
17	300	7	10000	5	1	0	5	0
17	301	7	10000	5	1	0	5	0
17	302	7	10000	5	1	0	5	0
17	303	7	10000	5	1	0	5	0
16	304	7	10000	5	1	0	5	0
16	305	7	10000	5	1	0	5	0
16	306	7	10000	5	1	0	5	0
14	307	7	10000	5	1	0	5	0
14	308	7	10000	5	1	0	5	0
15	309	7	10000	5	1	0	5	0
17	310	7	10000	5	1	0	5	0
16	311	7	10000	5	1	0	5	0
16	312	7	10000	5	1	0	5	0
16	313	7	10000	5	1	0	5	0
16	314	7	10000	5	1	0	5	0
16	315	7	10000	5	1	0	5	0
16	316	7	10000	5	1	0	5	0
17	317	7	10000	5	1	0	5	0
16	318	7	10000	5	1	0	5	0
14	319	7	10000	5	1	0	5	0
13	320	7	10000	5	1	0	5	0
15	321	7	10000	5	1	0	5	0
15	322	7	10000	5	1	0	5	0
16	323	7	10000	5	1	0	5	0
16	324	7	10000	5	1	0	5	0
16	325	7	10000	5	1	0	5	0
16	326	7	10000	5	1	0	5	0
17	327	7	10000	5	1	0	5	0
17	328	7	10000	5	1	0	5	0
18	329	7	10000	5	1	0	5	0
19	330	7	10000	5	1	0	5	0
19	331	7	10000	5	1	0	5	0
19	332	7	10000	5	1	0	5	0
18	333	7	10000	5	1	0	5	0
18	334	7	10000	5	1	0	5	0
17	335	7	10000	5	1	0	5	0
17	336	7	10000	5	1	0	5	0
18	337	7	10000	5	1	0	5	0
19	338	7	10000	5	1	0	5	0
17	339	7	10000	5	1	0	5	0
16	340	7	10000	5	1	0	5	0
16	341	7	10000	5	1	0	5	0
17	342	7	10000	5	1	0	5	0
17	343	7	10000	5	1	0	5	0
17	344	7	10000	5	1	0	5	0
17	345	7	10000	5	1	0	5	0
16	346	7	10000	5	1	0	5	0
16	347	7	10000	5	1	0	5	0
15	348	7	10000	5	1	0	5	0
15	349	7	10000	5	1	0	5	0
17	350	7	10000	5	1	0	5	0
17	351	7	10000	5	1	0	5	0
17	352	7	10000	5	1	0	5	0
16	353	7	10000	5	1	0	5	0
17	354	7	10000	5	1	0	5	0
17	355	7	10000	5	1	0	5	0
18	356	7	10000	5	1	0	5	0
18	357	7	10000	5	1	0	5	0
18	358	7	10000	5	1	0	5	0
17	359	7	10000	5	1	0	5	0
14	360	7	10000	5	1	0	5	0
14	361	7	10000	5	1	0	5	0
15	362	7	10000	5	1	0	5	0
14	363	7	10000	5	1	0	5	0
14	364	7	10000	5	1	0	5	0
15	365	7	10000	5	1	0	5	0
15	366	7	10000	5	1	0	5	0
15	367	7	10000	5	1	0	5	0
14	368	7	10000	5	1	0	5	0
13	369	7	10000	5	1	0	5	0
15	370	7	10000	5	1	0	5	0
14	371	7	10000	5	1	0	5	0
14	372	7	10000	5	1	0	5	0
15	373	7	10000	5	1	0	5	0
16	374	7	10000	5	1	0	5	0
18	375	7	10000	5	1	0	5	0
18	376	7	10000	5	1	0	5	0
20	377	7	10000	5	1	0	5	0
21	378	7	10000	5	1	0	5	0
20	379	7	10000	5	1	0	5	0
18	380	7	10000	5	1	0	5	0
18	381	7	10000	5	1	0	5	0
18	382	7	10000	5	1	0	5	0
18	383	7	10000	5	1	0	5	0
19	384	7	10000	5	1	0	5	0
18	385	7	10000	5	1	0	5	0
19	386	7	10000	5	1	0	5	0
19	387	7	10000	5	1	0	5	0
18	388	7	10000	5	1	0	5	0
18	389	7	10000	5	1	0	5	0
20	390	7	10000	5	1	0	5	0
20	391	7	10000	5	1	0	5	0
19	392	7	10000	5	1	0	5	0
19	393	7	10000	5	1	0	5	0
18	394	7	10000	5	1	0	5	0
19	395	7	10000	5	1	0	5	0
17	396	7	10000	5	1	0	5	0
18	397	7	10000	5	1	0	5	0
19	398	7	10000	5	1	0	5	0
18	399	7	10000	5	1	0	5	0
17	400	7	10000	5	1	0	5	0
19	401	7	10000	5	1	0	5	0
20	402	7	10000	5	1	0	5	0
23	403	7	10000	5	1	0	5	0
25	404	7	10000	5	1	0	5	0
26	405	7	10000	5	1	0	5	0
25	406	7	10000	5	1	0	5	0
23	407	7	10000	5	1	0	5	0
22	408	7	10000	5	1	0	5	0
23	409	7	10000	5	1	0	5	0
24	410	7	10000	5	1	0	5	0
25	411	7	10000	5	1	0	5	0
26	412	7	10000	5	1	0	5	0
25	413	7	10000	5	1	0	5	0
25	414	7	10000	5	1	0	5	0
26	415	7	10000	5	1	0	5	0
27	416	7	10000	5	1	0	5	0
27	417	7	10000	5	1	0	5	0
27	418	7	10000	5	1	0	5	0
25	419	7	10000	5	1	0	5	0
23	420	7	10000	5	1	0	5	0
24	421	7	10000	5	1	0	5	0
24	422	7	10000	5	1	0	5	0
25	423	7	10000	5	1	0	5	0
24	424	7	10000	5	1	0	5	0
24	425	7	10000	5	1	0	5	0
23	426	7	10000	5	1	0	5	0
22	427	7	10000	5	1	0	5	0
21	428	7	10000	5	1	0	5	0
21	429	7	10000	5	1	0	5	0
22	430	7	10000	5	1	0	5	0
20	431	7	10000	5	1	0	5	0
20	432	7	10000	5	1	0	5	0
20	433	7	10000	5	1	0	5	0
20	434	7	10000	5	1	0	5	0
18	435	7	10000	5	1	0	5	0
17	436	7	10000	5	1	0	5	0
18	437	7	10000	5	1	0	5	0
17	438	7	10000	5	1	0	5	0
17	439	7	10000	5	1	0	5	0
15	440	7	10000	5	1	0	5	0
15	441	7	10000	5	1	0	5	0
15	442	7	10000	5	1	0	5	0
15	443	7	10000	5	1	0	5	0
14	444	7	10000	5	1	0	5	0
15	445	7	10000	5	1	0	5	0
16	446	7	10000	5	1	0	5	0
17	447	7	10000	5	1	0	5	0
16	448	7	10000	5	1	0	5	0
17	449	7	10000	5	1	0	5	0
19	450	7	10000	5	1	0	5	0
18	451	7	10000	5	1	0	5	0
18	452	7	10000	5	1	0	5	0
19	453	7	10000	5	1	0	5	0
20	454	7	10000	5	1	0	5	0
20	455	7	10000	5	1	0	5	0
20	456	7	10000	5	1	0	5	0
20	457	7	10000	5	1	0	5	0
21	458	7	10000	5	1	0	5	0
21	459	7	10000	5	1	0	5	0
19	460	7	10000	5	1	0	5	0
19	461	7	10000	5	1	0	5	0
19	462	7	10000	5	1	0	5	0
18	463	7	10000	5	1	0	5	0
17	464	7	10000	5	1	0	5	0
17	465	7	10000	5	1	0	5	0
17	466	7	10000	5	1	0	5	0
16	467	7	10000	5	1	0	5	0
16	468	7	10000	5	1	0	5	0
17	469	7	10000	5	1	0	5	0
19	470	7	10000	5	1	0	5	0
20	471	7	10000	5	1	0	5	0
20	472	7	10000	5	1	0	5	0
19	473	7	10000	5	1	0	5	0
18	474	7	10000	5	1	0	5	0
19	475	7	10000	5	1	0	5	0
19	476	7	10000	5	1	0	5	0
18	477	7	10000	5	1	0	5	0
18	478	7	10000	5	1	0	5	0
19	479	7	10000	5	1	0	5	0
17	480	7	10000	5	1	0	5	0
17	481	7	10000	5	1	0	5	0
17	482	7	10000	5	1	0	5	0
17	483	7	10000	5	1	0	5	0
17	484	7	10000	5	1	0	5	0
17	485	7	10000	5	1	0	5	0
17	486	7	10000	5	1	0	5	0
18	487	7	10000	5	1	0	5	0
18	488	7	10000	5	1	0	5	0
19	489	7	10000	5	1	0	5	0
21	490	7	10000	5	1	0	5	0
20	491	7	10000	5	1	0	5	0
20	492	7	10000	5	1	0	5	0
19	493	7	10000	5	1	0	5	0
19	494	7	10000	5	1	0	5	0
20	495	7	10000	5	1	0	5	0
22	496	7	10000	5	1	0	5	0
22	497	7	10000	5	1	0	5	0
23	498	7	10000	5	1	0	5	0
24	499	7	10000	5	1	0	5	0
21	500	7	10000	5	1	0	5	0
21	501	7	10000	5	1	0	5	0
20	502	7	10000	5	1	0	5	1
20	503	7	10000	5	1	0	5	1
20	504	7	10000	5	1	0	5	1
20	505	7	10000	5	1	0	5	1
20	506	7	10000	5	1	0	5	1
19	507	7	10000	5	1	0	5	1
18	508	7	10000	5	1	0	5	1
18	509	7	10000	5	1	0	5	1
20	510	7	10000	5	1	0	5	1
19	511	7	10000	5	1	0	5	1
20	512	7	10000	5	1	0	5	1
19	513	7	10000	5	1	0	5	1
18	514	7	10000	5	1	0	5	1
18	515	7	10000	5	1	0	5	1
18	516	7	10000	5	1	0	5	1
19	517	7	10000	5	1	0	5	1
20	518	7	10000	5	1	0	5	1
20	519	7	10000	5	1	0	5	1
19	520	7	10000	5	1	0	5	1
19	521	7	10000	5	1	0	5	1
19	522	7	10000	5	1	0	5	1
19	523	7	10000	5	1	0	5	1
19	524	7	10000	5	1	0	5	1
20	525	7	10000	5	1	0	5	1
20	526	7	10000	5	1	0	5	1
18	527	7	10000	5	1	0	5	1
19	528	7	10000	5	1	0	5	1
20	529	7	10000	5	1	0	5	1
21	530	7	10000	5	1	0	5	1
23	531	7	10000	5	1	0	5	1
23	532	7	10000	5	1	0	5	1
21	533	7	10000	5	1	0	5	1
21	534	7	10000	5	1	0	5	1
21	535	7	10000	5	1	0	5	1
20	536	7	10000	5	1	0	5	1
21	537	7	10000	5	1	0	5	1
20	538	7	10000	5	1	0	5	1
19	539	7	10000	5	1	0	5	1
17	540	7	10000	5	1	0	5	1
17	541	7	10000	5	1	0	5	1
17	542	7	10000	5	1	0	5	1
18	543	7	10000	5	1	0	5	1
18	544	7	10000	5	1	0	5	1
18	545	7	10000	5	1	0	5	1
18	546	7	10000	5	1	0	5	1
19	547	7	10000	5	1	0	5	1
19	548	7	10000	5	1	0	5	1
19	549	7	10000	5	1	0	5	1
21	550	7	10000	5	1	0	5	1
21	551	7	10000	5	1	0	5	1
20	552	7	10000	5	1	0	5	0
19	553	7	10000	5	1	0	5	0
19	554	7	10000	5	1	0	5	0
18	555	7	10000	5	1	0	5	0
19	556	7	10000	5	1	0	5	0
20	557	7	10000	5	1	0	5	0
20	558	7	10000	5	1	0	5	0
20	559	7	10000	5	1	0	5	0
18	560	7	10000	5	1	0	5	0
19	561	7	10000	5	1	0	5	0
19	562	7	10000	5	1	0	5	0
19	563	7	10000	5	1	0	5	0
18	564	7	10000	5	1	0	5	0
18	565	7	10000	5	1	0	5	0
19	566	7	10000	5	1	0	5	0
20	567	7	10000	5	1	0	5	0
19	568	7	10000	5	1	0	5	0
19	569	7	10000	5	1	0	5	0
20	570	7	10000	5	1	0	5	0
20	571	7	10000	5	1	0	5	0
19	572	7	10000	5	1	0	5	0
18	573	7	10000	5	1	0	5	0
18	574	7	10000	5	1	0	5	0
18	575	7	10000	5	1	0	5	0
18	576	7	10000	5	1	0	5	0
17	577	7	10000	5	1	0	5	0
19	578	7	10000	5	1	0	5	0
18	579	7	10000	5	1	0	5	0
15	580	7	10000	5	1	0	5	0
15	581	7	10000	5	1	0	5	0
15	582	7	10000	5	1	0	5	0
15	583	7	10000	5	1	0	5	0
14	584	7	10000	5	1	0	5	0
14	585	7	10000	5	1	0	5	0
14	586	7	10000	5	1	0	5	0
16	587	7	10000	5	1	0	5	0
16	588	7	10000	5	1	0	5	0
16	589	7	10000	5	1	0	5	0
20	590	7	10000	5	1	0	5	0
29	591	7	10000	5	1	0	5	0
37	592	7	10000	5	1	0	5	0
37	593	7	10000	5	1	0	5	0
41	594	7	10000	5	1	0	5	0
48	595	7	10000	5	1	0	5	0
55	596	7	10000	5	1	0	5	0
57	597	7	10000	5	1	0	5	0
56	598	7	10000	5	1	0	5	0
58	599	7	10000	5	1	0	5	0
62	600	7	10000	5	1	0	5	0
63	601	7	10000	5	1	0	5	0
65	602	7	10000	5	1	0	5	0
88	603	7	10000	5	1	0	5	0
104	604	7	10000	5	1	0	5	0
106	605	7	10000	5	1	0	5	0
120	606	7	10000	5	1	0	5	0
129	607	7	10000	5	1	0	5	0
130	608	7	10000	5	1	0	5	0
130	609	7	10000	5	1	0	5	0
128	610	7	10000	5	1	0	5	0
125	611	7	10000	5	1	0	5	0
121	612	7	10000	5	1	0	5	0
118	613	7	10000	5	1	0	5	0
115	614	7	10000	5	1	0	5	0
114	615	7	10000	5	1	0	5	0
109	616	7	10000	5	1	0	5	0
104	617	7	10000	5	1	0	5	0
100	618	7	10000	5	1	0	5	0
98	619	7	10000	5	1	0	5	0
96	620	7	10000	5	1	0	5	0
97	621	7	10000	5	1	0	5	0
98	622	7	10000	5	1	0	5	0
99	623	7	10000	5	1	0	5	0
100	624	7	10000	5	1	0	5	0
99	625	7	10000	5	1	0	5	0
99	626	7	10000	5	1	0	5	0
98	627	7	10000	5	1	0	5	0
95	628	7	10000	5	1	0	5	0
95	629	7	10000	5	1	0	5	0
96	630	7	10000	5	1	0	5	0
96	631	7	10000	5	1	0	5	0
96	632	7	10000	5	1	0	5	0
95	633	7	10000	5	1	0	5	0
93	634	7	10000	5	1	0	5	0
92	635	7	10000	5	1	0	5	0
89	636	7	10000	5	1	0	5	0
86	637	7	10000	5	1	0	5	0
84	638	7	10000	5	1	0	5	0
80	639	7	10000	5	1	0	5	0
76	640	7	10000	5	1	0	5	0
74	641	7	10000	5	1	0	5	0
72	642	7	10000	5	1	0	5	0
71	643	7	10000	5	1	0	5	0
71	644	7	10000	5	1	0	5	0
68	645	7	10000	5	1	0	5	0
67	646	7	10000	5	1	0	5	0
68	647	7	10000	5	1	0	5	0
67	648	7	10000	5	1	0	5	0
66	649	7	10000	5	1	0	5	0
68	650	7	10000	5	1	0	5	0
68	651	7	10000	5	1	0	5	0
68	652	7	10000	5	1	0	5	0
69	653	7	10000	5	1	0	5	0
71	654	7	10000	5	1	0	5	0
69	655	7	10000	5	1	0	5	0
70	656	7	10000	5	1	0	5	0
69	657	7	10000	5	1	0	5	0
70	658	7	10000	5	1	0	5	0
71	659	7	10000	5	1	0	5	0
70	660	7	10000	5	1	0	5	0
72	661	7	10000	5	1	0	5	0
75	662	7	10000	5	1	0	5	0
76	663	7	10000	5	1	0	5	0
78	664	7	10000	5	1	0	5	0
80	665	7	10000	5	1	0	5	0
80	666	7	10000	5	1	0	5	0
79	667	7	10000	5	1	0	5	0
79	668	7	10000	5	1	0	5	0
79	669	7	10000	5	1	0	5	0
80	670	7	10000	5	1	0	5	0
78	671	7	10000	5	1	0	5	0
75	672	7	10000	5	1	0	5	0
72	673	7	10000	5	1	0	5	0
71	674	7	10000	5	1	0	5	0
72	675	7	10000	5	1	0	5	0
72	676	7	10000	5	1	0	5	0
71	677	7	10000	5	1	0	5	0
70	678	7	10000	5	1	0	5	0
67	679	7	10000	5	1	0	5	0
62	680	7	10000	5	1	0	5	0
61	681	7	10000	5	1	0	5	0
60	682	7	10000	5	1	0	5	0
58	683	7	10000	5	1	0	5	0
56	684	7	10000	5	1	0	5	0
54	685	7	10000	5	1	0	5	0
51	686	7	10000	5	1	0	5	0
49	687	7	10000	5	1	0	5	0
47	688	7	10000	5	1	0	5	0
46	689	7	10000	5	1	0	5	0
46	690	7	10000	5	1	0	5	0
44	691	7	10000	5	1	0	5	0
42	692	7	10000	5	1	0	5	0
41	693	7	10000	5	1	0	5	0
39	694	7	10000	5	1	0	5	0
37	695	7	10000	5	1	0	5	0
36	696	7	10000	5	1	0	5	0
35	697	7	10000	5	1	0	5	0
34	698	7	10000	5	1	0	5	0
33	699	7	10000	5	1	0	5	0
30	700	7	10000	5	1	0	5	0
30	701	7	10000	5	1	0	5	0
30	702	7	10000	5	1	0	5	0
29	703	7	10000	5	1	0	5	0
29	704	7	10000	5	1	0	5	0
28	705	7	10000	5	1	0	5	0
27	706	7	10000	5	1	0	5	0
27	707	7	10000	5	1	0	5	0
25	708	7	10000	5	1	0	5	0
25	709	7	10000	5	1	0	5	0
26	710	7	10000	5	1	0	5	0
24	711	7	10000	5	1	0	5	0
25	712	7	10000	5	1	0	5	0
26	713	7	10000	5	1	0	5	0
27	714	7	10000	5	1	0	5	0
28	715	7	10000	5	1	0	5	0
27	716	7	10000	5	1	0	5	0
27	717	7	10000	5	1	0	5	0
29	718	7	10000	5	1	0	5	0
28	719	7	10000	5	1	0	5	0
25	720	7	10000	5	1	0	5	0
26	721	7	10000	5	1	0	5	0
27	722	7	10000	5	1	0	5	0
25	723	7	10000	5	1	0	5	0
25	724	7	10000	5	1	0	5	0
25	725	7	10000	5	1	0	5	0
26	726	7	10000	5	1	0	5	0
27	727	7	10000	5	1	0	5	0
26	728	7	10000	5	1	0	5	0
27	729	7	10000	5	1	0	5	0
27	730	7	10000	5	1	0	5	0
26	731	7	10000	5	1	0	5	0
27	732	7	10000	5	1	0	5	0
26	733	7	10000	5	1	0	5	0
25	734	7	10000	5	1	0	5	0
25	735	7	10000	5	1	0	5	0
24	736	7	10000	5	1	0	5	0
24	737	7	10000	5	1	0	5	0
24	738	7	10000	5	1	0	5	0
23	739	7	10000	5	1	0	5	0
20	740	7	10000	5	1	0	5	0
20	741	7	10000	5	1	0	5	0
20	742	7	10000	5	1	0	5	0
22	743	7	10000	5	1	0	5	0
21	744	7	10000	5	1	0	5	0
21	745	7	10000	5	1	0	5	0
22	746	7	10000	5	1	0	5	0
21	747	7	10000	5	1	0	5	0
20	748	7	10000	5	1	0	5	0
23	749	7	10000	5	1	0	5	0
25	750	7	10000	5	1	0	5	0
26	751	7	10000	5	1	0	5	0
25	752	7	10000	5	1	0	5	0
25	753	7	10000	5	1	0	5	0
24	754	7	10000	5	1	0	5	0
22	755	7	10000	5	1	0	5	0
22	756	7	10000	5	1	0	5	0
22	757	7	10000	5	1	0	5	0
21	758	7	10000	5	1	0	5	0
21	759	7	10000	5	1	0	5	0
19	760	7	10000	5	1	0	5	0
20	761	7	10000	5	1	0	5	0
19	762	7	10000	5	1	0	5	0
20	763	7	10000	5	1	0	5	0
20	764	7	10000	5	1	0	5	0
21	765	7	10000	5	1	0	5	0
20	766	7	10000	5	1	0	5	0
20	767	7	10000	5	1	0	5	0
21	768	7	10000	5	1	0	5	0
22	769	7	10000	5	1	0	5	0
26	770	7	10000	5	1	0	5	0
27	771	7	10000	5	1	0	5	0
26	772	7	10000	5	1	0	5	0
26	773	7	10000	5	1	0	5	0
25	774	7	10000	5	1	0	5	0
24	775	7	10000	5	1	0	5	0
24	776	7	10000	5	1	0	5	0
23	777	7	10000	5	1	0	5	0
24	778	7	10000	5	1	0	5	0
26	779	7	10000	5	1	0	5	0
25	780	7	10000	5	1	0	5	0
26	781	7	10000	5	1	0	5	0
26	782	7	10000	5	1	0	5	0
25	783	7	10000	5	1	0	5	0
25	784	7	10000	5	1	0	5	0
24	785	7	10000	5	1	0	5	0
23	786	7	10000	5	1	0	5	0
