value	EMG	Stimulus	EMG_sensitivity	Total_Trial_Nr	practise	acq	probe_nr	Startle_Probe
30	2	0	10000	1	1	0	1	0
29	3	0	10000	1	1	0	1	0
29	4	0	10000	1	1	0	1	0
28	5	0	10000	1	1	0	1	0
28	6	0	10000	1	1	0	1	0
28	7	0	10000	1	1	0	1	0
27	8	0	10000	1	1	0	1	0
27	9	0	10000	1	1	0	1	0
27	10	0	10000	1	1	0	1	0
27	11	0	10000	1	1	0	1	0
27	12	0	10000	1	1	0	1	0
26	13	0	10000	1	1	0	1	0
25	14	0	10000	1	1	0	1	0
24	15	0	10000	1	1	0	1	0
24	16	0	10000	1	1	0	1	0
23	17	0	10000	1	1	0	1	0
23	18	0	10000	1	1	0	1	0
22	19	0	10000	1	1	0	1	0
20	20	0	10000	1	1	0	1	0
20	21	0	10000	1	1	0	1	0
19	22	0	10000	1	1	0	1	0
20	23	0	10000	1	1	0	1	0
19	24	0	10000	1	1	0	1	0
19	25	0	10000	1	1	0	1	0
18	26	0	10000	1	1	0	1	0
19	27	0	10000	1	1	0	1	0
18	28	0	10000	1	1	0	1	0
19	29	0	10000	1	1	0	1	0
20	30	0	10000	1	1	0	1	0
19	31	0	10000	1	1	0	1	0
19	32	0	10000	1	1	0	1	0
20	33	0	10000	1	1	0	1	0
20	34	0	10000	1	1	0	1	0
20	35	0	10000	1	1	0	1	0
23	36	0	10000	1	1	0	1	0
23	37	0	10000	1	1	0	1	0
23	38	0	10000	1	1	0	1	0
22	39	0	10000	1	1	0	1	0
21	40	0	10000	1	1	0	1	0
23	41	0	10000	1	1	0	1	0
22	42	0	10000	1	1	0	1	0
23	43	0	10000	1	1	0	1	0
23	44	0	10000	1	1	0	1	0
21	45	0	10000	1	1	0	1	0
21	46	0	10000	1	1	0	1	0
20	47	0	10000	1	1	0	1	0
19	48	0	10000	1	1	0	1	0
20	49	0	10000	1	1	0	1	0
21	50	0	10000	1	1	0	1	0
20	51	0	10000	1	1	0	1	0
20	52	0	10000	1	1	0	1	0
20	53	0	10000	1	1	0	1	0
19	54	0	10000	1	1	0	1	0
20	55	0	10000	1	1	0	1	0
21	56	0	10000	1	1	0	1	0
21	57	0	10000	1	1	0	1	0
21	58	0	10000	1	1	0	1	0
20	59	0	10000	1	1	0	1	0
18	60	0	10000	1	1	0	1	0
20	61	0	10000	1	1	0	1	0
20	62	0	10000	1	1	0	1	0
20	63	0	10000	1	1	0	1	0
19	64	0	10000	1	1	0	1	0
19	65	0	10000	1	1	0	1	0
19	66	0	10000	1	1	0	1	0
20	67	0	10000	1	1	0	1	0
20	68	0	10000	1	1	0	1	0
20	69	0	10000	1	1	0	1	0
25	70	0	10000	1	1	0	1	0
30	71	0	10000	1	1	0	1	0
34	72	0	10000	1	1	0	1	0
38	73	0	10000	1	1	0	1	0
40	74	0	10000	1	1	0	1	0
40	75	0	10000	1	1	0	1	0
43	76	0	10000	1	1	0	1	0
46	77	0	10000	1	1	0	1	0
49	78	0	10000	1	1	0	1	0
54	79	0	10000	1	1	0	1	0
59	80	0	10000	1	1	0	1	0
65	81	0	10000	1	1	0	1	0
68	82	0	10000	1	1	0	1	0
68	83	0	10000	1	1	0	1	0
65	84	0	10000	1	1	0	1	0
64	85	0	10000	1	1	0	1	0
63	86	0	10000	1	1	0	1	0
62	87	0	10000	1	1	0	1	0
60	88	0	10000	1	1	0	1	0
59	89	0	10000	1	1	0	1	0
60	90	0	10000	1	1	0	1	0
59	91	0	10000	1	1	0	1	0
57	92	0	10000	1	1	0	1	0
56	93	0	10000	1	1	0	1	0
53	94	0	10000	1	1	0	1	0
51	95	0	10000	1	1	0	1	0
52	96	0	10000	1	1	0	1	0
55	97	0	10000	1	1	0	1	0
58	98	0	10000	1	1	0	1	0
60	99	0	10000	1	1	0	1	0
59	100	0	10000	1	1	0	1	0
58	101	0	10000	1	1	0	1	0
57	102	0	10000	1	1	0	1	0
56	103	0	10000	1	1	0	1	0
53	104	0	10000	1	1	0	1	0
52	105	0	10000	1	1	0	1	0
49	106	0	10000	1	1	0	1	0
47	107	0	10000	1	1	0	1	0
45	108	0	10000	1	1	0	1	0
44	109	0	10000	1	1	0	1	0
46	110	0	10000	1	1	0	1	0
48	111	0	10000	1	1	0	1	0
47	112	0	10000	1	1	0	1	0
46	113	0	10000	1	1	0	1	0
47	114	0	10000	1	1	0	1	0
49	115	0	10000	1	1	0	1	0
52	116	0	10000	1	1	0	1	0
54	117	0	10000	1	1	0	1	0
54	118	0	10000	1	1	0	1	0
53	119	0	10000	1	1	0	1	0
50	120	0	10000	1	1	0	1	0
49	121	0	10000	1	1	0	1	0
48	122	0	10000	1	1	0	1	0
48	123	0	10000	1	1	0	1	0
45	124	0	10000	1	1	0	1	0
44	125	0	10000	1	1	0	1	0
43	126	0	10000	1	1	0	1	0
44	127	0	10000	1	1	0	1	0
45	128	0	10000	1	1	0	1	0
46	129	0	10000	1	1	0	1	0
49	130	0	10000	1	1	0	1	0
50	131	0	10000	1	1	0	1	0
52	132	0	10000	1	1	0	1	0
53	133	0	10000	1	1	0	1	0
51	134	0	10000	1	1	0	1	0
49	135	0	10000	1	1	0	1	0
50	136	0	10000	1	1	0	1	0
53	137	0	10000	1	1	0	1	0
57	138	0	10000	1	1	0	1	0
60	139	0	10000	1	1	0	1	0
61	140	0	10000	1	1	0	1	0
61	141	0	10000	1	1	0	1	0
61	142	0	10000	1	1	0	1	0
61	143	0	10000	1	1	0	1	0
61	144	0	10000	1	1	0	1	0
61	145	0	10000	1	1	0	1	0
62	146	0	10000	1	1	0	1	0
64	147	0	10000	1	1	0	1	0
64	148	0	10000	1	1	0	1	0
64	149	0	10000	1	1	0	1	0
66	150	0	10000	1	1	0	1	0
64	151	0	10000	1	1	0	1	0
61	152	0	10000	1	1	0	1	0
59	153	0	10000	1	1	0	1	0
56	154	0	10000	1	1	0	1	0
54	155	0	10000	1	1	0	1	0
54	156	0	10000	1	1	0	1	0
55	157	0	10000	1	1	0	1	0
55	158	0	10000	1	1	0	1	0
56	159	0	10000	1	1	0	1	0
54	160	0	10000	1	1	0	1	0
54	161	0	10000	1	1	0	1	0
54	162	0	10000	1	1	0	1	0
53	163	0	10000	1	1	0	1	0
53	164	0	10000	1	1	0	1	0
53	165	0	10000	1	1	0	1	0
51	166	0	10000	1	1	0	1	0
49	167	0	10000	1	1	0	1	0
47	168	0	10000	1	1	0	1	0
47	169	0	10000	1	1	0	1	0
49	170	0	10000	1	1	0	1	0
48	171	0	10000	1	1	0	1	0
47	172	0	10000	1	1	0	1	0
45	173	0	10000	1	1	0	1	0
44	174	0	10000	1	1	0	1	0
43	175	0	10000	1	1	0	1	0
43	176	0	10000	1	1	0	1	0
42	177	0	10000	1	1	0	1	0
41	178	0	10000	1	1	0	1	0
39	179	0	10000	1	1	0	1	0
36	180	0	10000	1	1	0	1	0
35	181	0	10000	1	1	0	1	0
33	182	0	10000	1	1	0	1	0
34	183	0	10000	1	1	0	1	0
34	184	0	10000	1	1	0	1	0
34	185	0	10000	1	1	0	1	0
32	186	0	10000	1	1	0	1	0
31	187	0	10000	1	1	0	1	0
30	188	0	10000	1	1	0	1	0
29	189	0	10000	1	1	0	1	0
30	190	0	10000	1	1	0	1	0
29	191	0	10000	1	1	0	1	0
29	192	0	10000	1	1	0	1	0
31	193	0	10000	1	1	0	1	0
31	194	0	10000	1	1	0	1	0
30	195	0	10000	1	1	0	1	0
31	196	0	10000	1	1	0	1	0
33	197	0	10000	1	1	0	1	0
34	198	0	10000	1	1	0	1	0
34	199	0	10000	1	1	0	1	0
33	200	0	10000	1	1	0	1	0
33	201	0	10000	1	1	0	1	0
32	202	0	10000	1	1	0	1	0
31	203	0	10000	1	1	0	1	0
31	204	0	10000	1	1	0	1	0
30	205	0	10000	1	1	0	1	0
29	206	0	10000	1	1	0	1	0
31	207	0	10000	1	1	0	1	0
32	208	0	10000	1	1	0	1	0
32	209	0	10000	1	1	0	1	0
36	210	0	10000	1	1	0	1	0
38	211	0	10000	1	1	0	1	0
37	212	0	10000	1	1	0	1	0
38	213	0	10000	1	1	0	1	0
38	214	0	10000	1	1	0	1	0
37	215	0	10000	1	1	0	1	0
36	216	0	10000	1	1	0	1	0
38	217	0	10000	1	1	0	1	0
38	218	0	10000	1	1	0	1	0
38	219	0	10000	1	1	0	1	0
36	220	0	10000	1	1	0	1	0
36	221	0	10000	1	1	0	1	0
37	222	0	10000	1	1	0	1	0
37	223	0	10000	1	1	0	1	0
36	224	0	10000	1	1	0	1	0
35	225	0	10000	1	1	0	1	0
35	226	0	10000	1	1	0	1	0
33	227	0	10000	1	1	0	1	0
32	228	0	10000	1	1	0	1	0
32	229	0	10000	1	1	0	1	0
32	230	0	10000	1	1	0	1	0
31	231	0	10000	1	1	0	1	0
30	232	0	10000	1	1	0	1	0
28	233	0	10000	1	1	0	1	0
29	234	0	10000	1	1	0	1	0
30	235	0	10000	1	1	0	1	0
28	236	0	10000	1	1	0	1	0
30	237	0	10000	1	1	0	1	0
30	238	0	10000	1	1	0	1	0
31	239	0	10000	1	1	0	1	0
31	240	0	10000	1	1	0	1	0
33	241	0	10000	1	1	0	1	0
32	242	0	10000	1	1	0	1	0
36	243	0	10000	1	1	0	1	0
39	244	0	10000	1	1	0	1	0
42	245	0	10000	1	1	0	1	0
43	246	0	10000	1	1	0	1	0
40	247	0	10000	1	1	0	1	0
38	248	0	10000	1	1	0	1	0
37	249	0	10000	1	1	0	1	0
38	250	0	10000	1	1	0	1	0
36	251	0	10000	1	1	0	1	0
36	252	0	10000	1	1	0	1	0
35	253	0	10000	1	1	0	1	0
35	254	0	10000	1	1	0	1	0
35	255	0	10000	1	1	0	1	0
33	256	0	10000	1	1	0	1	0
33	257	0	10000	1	1	0	1	0
33	258	0	10000	1	1	0	1	0
32	259	0	10000	1	1	0	1	0
33	260	0	10000	1	1	0	1	0
35	261	0	10000	1	1	0	1	0
34	262	0	10000	1	1	0	1	0
34	263	0	10000	1	1	0	1	0
33	264	0	10000	1	1	0	1	0
32	265	0	10000	1	1	0	1	0
32	266	0	10000	1	1	0	1	0
31	267	0	10000	1	1	0	1	0
29	268	0	10000	1	1	0	1	0
32	269	0	10000	1	1	0	1	0
36	270	0	10000	1	1	0	1	0
38	271	0	10000	1	1	0	1	0
39	272	0	10000	1	1	0	1	0
39	273	0	10000	1	1	0	1	0
39	274	0	10000	1	1	0	1	0
39	275	0	10000	1	1	0	1	0
37	276	0	10000	1	1	0	1	0
38	277	0	10000	1	1	0	1	0
38	278	0	10000	1	1	0	1	0
40	279	0	10000	1	1	0	1	0
40	280	0	10000	1	1	0	1	0
40	281	0	10000	1	1	0	1	0
41	282	0	10000	1	1	0	1	0
41	283	0	10000	1	1	0	1	0
40	284	0	10000	1	1	0	1	0
40	285	0	10000	1	1	0	1	0
40	286	0	10000	1	1	0	1	0
41	287	0	10000	1	1	0	1	0
39	288	0	10000	1	1	0	1	0
38	289	0	10000	1	1	0	1	0
41	290	0	10000	1	1	0	1	0
40	291	0	10000	1	1	0	1	0
40	292	0	10000	1	1	0	1	0
39	293	0	10000	1	1	0	1	0
37	294	0	10000	1	1	0	1	0
38	295	0	10000	1	1	0	1	0
40	296	0	10000	1	1	0	1	0
41	297	0	10000	1	1	0	1	0
40	298	0	10000	1	1	0	1	0
40	299	0	10000	1	1	0	1	0
36	300	0	10000	1	1	0	1	0
35	301	0	10000	1	1	0	1	0
36	302	0	10000	1	1	0	1	0
36	303	0	10000	1	1	0	1	0
35	304	0	10000	1	1	0	1	0
35	305	0	10000	1	1	0	1	0
34	306	0	10000	1	1	0	1	0
34	307	0	10000	1	1	0	1	0
32	308	0	10000	1	1	0	1	0
32	309	0	10000	1	1	0	1	0
34	310	0	10000	1	1	0	1	0
35	311	0	10000	1	1	0	1	0
35	312	0	10000	1	1	0	1	0
36	313	0	10000	1	1	0	1	0
38	314	0	10000	1	1	0	1	0
39	315	0	10000	1	1	0	1	0
38	316	0	10000	1	1	0	1	0
37	317	0	10000	1	1	0	1	0
36	318	0	10000	1	1	0	1	0
36	319	0	10000	1	1	0	1	0
34	320	0	10000	1	1	0	1	0
34	321	0	10000	1	1	0	1	0
34	322	0	10000	1	1	0	1	0
32	323	0	10000	1	1	0	1	0
32	324	0	10000	1	1	0	1	0
32	325	0	10000	1	1	0	1	0
31	326	0	10000	1	1	0	1	0
30	327	0	10000	1	1	0	1	0
28	328	0	10000	1	1	0	1	0
28	329	0	10000	1	1	0	1	0
29	330	0	10000	1	1	0	1	0
28	331	0	10000	1	1	0	1	0
28	332	0	10000	1	1	0	1	0
27	333	0	10000	1	1	0	1	0
26	334	0	10000	1	1	0	1	0
25	335	0	10000	1	1	0	1	0
24	336	0	10000	1	1	0	1	0
24	337	0	10000	1	1	0	1	0
24	338	0	10000	1	1	0	1	0
27	339	0	10000	1	1	0	1	0
26	340	0	10000	1	1	0	1	0
28	341	0	10000	1	1	0	1	0
30	342	0	10000	1	1	0	1	0
31	343	0	10000	1	1	0	1	0
30	344	0	10000	1	1	0	1	0
30	345	0	10000	1	1	0	1	0
29	346	0	10000	1	1	0	1	0
29	347	0	10000	1	1	0	1	0
31	348	0	10000	1	1	0	1	0
32	349	0	10000	1	1	0	1	0
38	350	0	10000	1	1	0	1	0
38	351	0	10000	1	1	0	1	0
37	352	0	10000	1	1	0	1	0
36	353	0	10000	1	1	0	1	0
36	354	0	10000	1	1	0	1	0
34	355	0	10000	1	1	0	1	0
33	356	0	10000	1	1	0	1	0
33	357	0	10000	1	1	0	1	0
35	358	0	10000	1	1	0	1	0
39	359	0	10000	1	1	0	1	0
42	360	0	10000	1	1	0	1	0
43	361	0	10000	1	1	0	1	0
43	362	0	10000	1	1	0	1	0
42	363	0	10000	1	1	0	1	0
40	364	0	10000	1	1	0	1	0
38	365	0	10000	1	1	0	1	0
41	366	0	10000	1	1	0	1	0
40	367	0	10000	1	1	0	1	0
39	368	0	10000	1	1	0	1	0
38	369	0	10000	1	1	0	1	0
39	370	0	10000	1	1	0	1	0
39	371	0	10000	1	1	0	1	0
38	372	0	10000	1	1	0	1	0
36	373	0	10000	1	1	0	1	0
35	374	0	10000	1	1	0	1	0
36	375	0	10000	1	1	0	1	0
36	376	0	10000	1	1	0	1	0
38	377	0	10000	1	1	0	1	0
38	378	0	10000	1	1	0	1	0
36	379	0	10000	1	1	0	1	0
33	380	0	10000	1	1	0	1	0
33	381	0	10000	1	1	0	1	0
31	382	0	10000	1	1	0	1	0
31	383	0	10000	1	1	0	1	0
30	384	0	10000	1	1	0	1	0
30	385	0	10000	1	1	0	1	0
30	386	0	10000	1	1	0	1	0
28	387	0	10000	1	1	0	1	0
27	388	0	10000	1	1	0	1	0
27	389	0	10000	1	1	0	1	0
31	390	0	10000	1	1	0	1	0
34	391	0	10000	1	1	0	1	0
34	392	0	10000	1	1	0	1	0
32	393	0	10000	1	1	0	1	0
32	394	0	10000	1	1	0	1	0
30	395	0	10000	1	1	0	1	0
29	396	0	10000	1	1	0	1	0
29	397	0	10000	1	1	0	1	0
28	398	0	10000	1	1	0	1	0
29	399	0	10000	1	1	0	1	0
28	400	0	10000	1	1	0	1	0
30	401	0	10000	1	1	0	1	0
30	402	0	10000	1	1	0	1	0
30	403	0	10000	1	1	0	1	0
30	404	0	10000	1	1	0	1	0
30	405	0	10000	1	1	0	1	0
32	406	0	10000	1	1	0	1	0
33	407	0	10000	1	1	0	1	0
32	408	0	10000	1	1	0	1	0
33	409	0	10000	1	1	0	1	0
38	410	0	10000	1	1	0	1	0
38	411	0	10000	1	1	0	1	0
39	412	0	10000	1	1	0	1	0
42	413	0	10000	1	1	0	1	0
43	414	0	10000	1	1	0	1	0
43	415	0	10000	1	1	0	1	0
41	416	0	10000	1	1	0	1	0
40	417	0	10000	1	1	0	1	0
39	418	0	10000	1	1	0	1	0
38	419	0	10000	1	1	0	1	0
35	420	0	10000	1	1	0	1	0
33	421	0	10000	1	1	0	1	0
32	422	0	10000	1	1	0	1	0
32	423	0	10000	1	1	0	1	0
31	424	0	10000	1	1	0	1	0
32	425	0	10000	1	1	0	1	0
31	426	0	10000	1	1	0	1	0
29	427	0	10000	1	1	0	1	0
29	428	0	10000	1	1	0	1	0
29	429	0	10000	1	1	0	1	0
33	430	0	10000	1	1	0	1	0
32	431	0	10000	1	1	0	1	0
31	432	0	10000	1	1	0	1	0
31	433	0	10000	1	1	0	1	0
32	434	0	10000	1	1	0	1	0
33	435	0	10000	1	1	0	1	0
32	436	0	10000	1	1	0	1	0
33	437	0	10000	1	1	0	1	0
36	438	0	10000	1	1	0	1	0
39	439	0	10000	1	1	0	1	0
36	440	0	10000	1	1	0	1	0
35	441	0	10000	1	1	0	1	0
34	442	0	10000	1	1	0	1	0
33	443	0	10000	1	1	0	1	0
33	444	0	10000	1	1	0	1	0
34	445	0	10000	1	1	0	1	0
33	446	0	10000	1	1	0	1	0
32	447	0	10000	1	1	0	1	0
33	448	0	10000	1	1	0	1	0
35	449	0	10000	1	1	0	1	0
39	450	0	10000	1	1	0	1	0
40	451	0	10000	1	1	0	1	0
39	452	0	10000	1	1	0	1	0
37	453	0	10000	1	1	0	1	0
36	454	0	10000	1	1	0	1	0
36	455	0	10000	1	1	0	1	0
35	456	0	10000	1	1	0	1	0
37	457	0	10000	1	1	0	1	0
38	458	0	10000	1	1	0	1	0
36	459	0	10000	1	1	0	1	0
35	460	0	10000	1	1	0	1	0
36	461	0	10000	1	1	0	1	0
36	462	0	10000	1	1	0	1	0
36	463	0	10000	1	1	0	1	0
36	464	0	10000	1	1	0	1	0
35	465	0	10000	1	1	0	1	0
35	466	0	10000	1	1	0	1	0
34	467	0	10000	1	1	0	1	0
32	468	0	10000	1	1	0	1	0
32	469	0	10000	1	1	0	1	0
32	470	0	10000	1	1	0	1	0
31	471	0	10000	1	1	0	1	0
31	472	0	10000	1	1	0	1	0
31	473	0	10000	1	1	0	1	0
32	474	0	10000	1	1	0	1	0
32	475	0	10000	1	1	0	1	0
32	476	0	10000	1	1	0	1	0
32	477	0	10000	1	1	0	1	0
32	478	0	10000	1	1	0	1	0
30	479	0	10000	1	1	0	1	0
28	480	0	10000	1	1	0	1	0
29	481	0	10000	1	1	0	1	0
29	482	0	10000	1	1	0	1	0
29	483	0	10000	1	1	0	1	0
28	484	0	10000	1	1	0	1	0
27	485	0	10000	1	1	0	1	0
27	486	0	10000	1	1	0	1	0
27	487	0	10000	1	1	0	1	0
29	488	0	10000	1	1	0	1	0
28	489	0	10000	1	1	0	1	0
29	490	0	10000	1	1	0	1	0
30	491	0	10000	1	1	0	1	0
31	492	0	10000	1	1	0	1	0
30	493	0	10000	1	1	0	1	0
30	494	0	10000	1	1	0	1	0
29	495	0	10000	1	1	0	1	0
29	496	0	10000	1	1	0	1	0
29	497	0	10000	1	1	0	1	0
28	498	0	10000	1	1	0	1	0
27	499	0	10000	1	1	0	1	0
24	500	0	10000	1	1	0	1	0
25	501	0	10000	1	1	0	1	0
25	575	0	10000	1	1	0	1	1
25	576	0	10000	1	1	0	1	1
27	577	0	10000	1	1	0	1	1
29	578	0	10000	1	1	0	1	1
30	579	0	10000	1	1	0	1	1
29	580	0	10000	1	1	0	1	1
29	581	0	10000	1	1	0	1	1
27	582	0	10000	1	1	0	1	1
31	583	0	10000	1	1	0	1	1
33	584	0	10000	1	1	0	1	1
33	585	0	10000	1	1	0	1	1
32	586	0	10000	1	1	0	1	1
31	587	0	10000	1	1	0	1	1
32	588	0	10000	1	1	0	1	1
31	589	0	10000	1	1	0	1	1
32	590	0	10000	1	1	0	1	1
34	591	0	10000	1	1	0	1	1
37	592	0	10000	1	1	0	1	1
38	593	0	10000	1	1	0	1	1
39	594	0	10000	1	1	0	1	1
37	595	0	10000	1	1	0	1	1
38	596	0	10000	1	1	0	1	1
37	597	0	10000	1	1	0	1	1
35	598	0	10000	1	1	0	1	1
34	599	0	10000	1	1	0	1	1
33	600	0	10000	1	1	0	1	1
31	601	0	10000	1	1	0	1	1
32	602	0	10000	1	1	0	1	1
36	603	0	10000	1	1	0	1	1
38	604	0	10000	1	1	0	1	1
39	605	0	10000	1	1	0	1	1
39	606	0	10000	1	1	0	1	1
38	607	0	10000	1	1	0	1	1
39	608	0	10000	1	1	0	1	1
40	609	0	10000	1	1	0	1	1
40	610	0	10000	1	1	0	1	1
41	611	0	10000	1	1	0	1	1
42	612	0	10000	1	1	0	1	1
38	613	0	10000	1	1	0	1	1
37	614	0	10000	1	1	0	1	1
36	615	0	10000	1	1	0	1	1
35	616	0	10000	1	1	0	1	1
34	617	0	10000	1	1	0	1	1
33	618	0	10000	1	1	0	1	1
33	619	0	10000	1	1	0	1	1
31	620	0	10000	1	1	0	1	1
31	621	0	10000	1	1	0	1	1
32	622	0	10000	1	1	0	1	1
32	623	0	10000	1	1	0	1	1
31	624	0	10000	1	1	0	1	1
31	625	0	10000	1	1	0	1	1
30	626	0	10000	1	1	0	1	1
30	627	0	10000	1	1	0	1	1
32	628	0	10000	1	1	0	1	1
32	629	0	10000	1	1	0	1	1
31	630	0	10000	1	1	0	1	1
30	631	0	10000	1	1	0	1	1
30	632	0	10000	1	1	0	1	1
27	633	0	10000	1	1	0	1	1
27	634	0	10000	1	1	0	1	1
27	635	0	10000	1	1	0	1	1
26	636	0	10000	1	1	0	1	1
26	637	0	10000	1	1	0	1	1
28	638	0	10000	1	1	0	1	1
30	639	0	10000	1	1	0	1	1
32	640	0	10000	1	1	0	1	1
32	641	0	10000	1	1	0	1	1
31	642	0	10000	1	1	0	1	1
33	643	0	10000	1	1	0	1	1
34	644	0	10000	1	1	0	1	1
33	645	0	10000	1	1	0	1	1
35	646	0	10000	1	1	0	1	1
38	647	0	10000	1	1	0	1	1
39	648	0	10000	1	1	0	1	1
40	649	0	10000	1	1	0	1	1
42	650	0	10000	1	1	0	1	1
45	586	0	10000	1	1	0	1	0
48	587	0	10000	1	1	0	1	0
47	588	0	10000	1	1	0	1	0
47	589	0	10000	1	1	0	1	0
48	590	0	10000	1	1	0	1	0
50	591	0	10000	1	1	0	1	0
51	592	0	10000	1	1	0	1	0
53	593	0	10000	1	1	0	1	0
55	594	0	10000	1	1	0	1	0
55	595	0	10000	1	1	0	1	0
56	588	0	10000	1	1	0	1	0
55	589	0	10000	1	1	0	1	0
56	590	0	10000	1	1	0	1	0
55	591	0	10000	1	1	0	1	0
53	592	0	10000	1	1	0	1	0
53	593	0	10000	1	1	0	1	0
54	594	0	10000	1	1	0	1	0
52	595	0	10000	1	1	0	1	0
51	596	0	10000	1	1	0	1	0
52	597	0	10000	1	1	0	1	0
51	598	0	10000	1	1	0	1	0
51	599	0	10000	1	1	0	1	0
50	600	0	10000	1	1	0	1	0
51	601	0	10000	1	1	0	1	0
53	602	0	10000	1	1	0	1	0
56	603	0	10000	1	1	0	1	0
55	604	0	10000	1	1	0	1	0
56	605	0	10000	1	1	0	1	0
54	606	0	10000	1	1	0	1	0
52	607	0	10000	1	1	0	1	0
52	608	0	10000	1	1	0	1	0
54	609	0	10000	1	1	0	1	0
56	610	0	10000	1	1	0	1	0
57	611	0	10000	1	1	0	1	0
59	612	0	10000	1	1	0	1	0
62	613	0	10000	1	1	0	1	0
64	614	0	10000	1	1	0	1	0
68	615	0	10000	1	1	0	1	0
70	616	0	10000	1	1	0	1	0
74	617	0	10000	1	1	0	1	0
73	618	0	10000	1	1	0	1	0
71	619	0	10000	1	1	0	1	0
68	620	0	10000	1	1	0	1	0
65	621	0	10000	1	1	0	1	0
65	622	0	10000	1	1	0	1	0
65	623	0	10000	1	1	0	1	0
66	624	0	10000	1	1	0	1	0
66	625	0	10000	1	1	0	1	0
65	626	0	10000	1	1	0	1	0
64	627	0	10000	1	1	0	1	0
63	628	0	10000	1	1	0	1	0
61	629	0	10000	1	1	0	1	0
62	630	0	10000	1	1	0	1	0
62	631	0	10000	1	1	0	1	0
64	632	0	10000	1	1	0	1	0
66	633	0	10000	1	1	0	1	0
67	634	0	10000	1	1	0	1	0
66	635	0	10000	1	1	0	1	0
65	636	0	10000	1	1	0	1	0
68	637	0	10000	1	1	0	1	0
69	638	0	10000	1	1	0	1	0
69	639	0	10000	1	1	0	1	0
66	640	0	10000	1	1	0	1	0
65	641	0	10000	1	1	0	1	0
65	642	0	10000	1	1	0	1	0
63	643	0	10000	1	1	0	1	0
62	644	0	10000	1	1	0	1	0
61	645	0	10000	1	1	0	1	0
60	646	0	10000	1	1	0	1	0
57	647	0	10000	1	1	0	1	0
55	648	0	10000	1	1	0	1	0
53	649	0	10000	1	1	0	1	0
54	650	0	10000	1	1	0	1	0
54	651	0	10000	1	1	0	1	0
52	652	0	10000	1	1	0	1	0
51	653	0	10000	1	1	0	1	0
52	654	0	10000	1	1	0	1	0
52	655	0	10000	1	1	0	1	0
50	656	0	10000	1	1	0	1	0
49	657	0	10000	1	1	0	1	0
48	658	0	10000	1	1	0	1	0
48	659	0	10000	1	1	0	1	0
48	660	0	10000	1	1	0	1	0
48	661	0	10000	1	1	0	1	0
49	662	0	10000	1	1	0	1	0
48	663	0	10000	1	1	0	1	0
48	664	0	10000	1	1	0	1	0
47	665	0	10000	1	1	0	1	0
50	666	0	10000	1	1	0	1	0
56	667	0	10000	1	1	0	1	0
65	668	0	10000	1	1	0	1	0
95	669	0	10000	1	1	0	1	0
127	670	0	10000	1	1	0	1	0
129	671	0	10000	1	1	0	1	0
129	672	0	10000	1	1	0	1	0
150	673	0	10000	1	1	0	1	0
153	674	0	10000	1	1	0	1	0
183	675	0	10000	1	1	0	1	0
188	676	0	10000	1	1	0	1	0
194	677	0	10000	1	1	0	1	0
232	678	0	10000	1	1	0	1	0
258	679	0	10000	1	1	0	1	0
260	680	0	10000	1	1	0	1	0
261	681	0	10000	1	1	0	1	0
296	682	0	10000	1	1	0	1	0
301	683	0	10000	1	1	0	1	0
321	684	0	10000	1	1	0	1	0
375	685	0	10000	1	1	0	1	0
427	686	0	10000	1	1	0	1	0
437	687	0	10000	1	1	0	1	0
429	688	0	10000	1	1	0	1	0
425	689	0	10000	1	1	0	1	0
492	690	0	10000	1	1	0	1	0
557	691	0	10000	1	1	0	1	0
640	692	0	10000	1	1	0	1	0
682	693	0	10000	1	1	0	1	0
665	694	0	10000	1	1	0	1	0
694	695	0	10000	1	1	0	1	0
727	696	0	10000	1	1	0	1	0
720	697	0	10000	1	1	0	1	0
728	698	0	10000	1	1	0	1	0
822	699	0	10000	1	1	0	1	0
944	700	0	10000	1	1	0	1	0
1078	701	0	10000	1	1	0	1	0
1209	702	0	10000	1	1	0	1	0
1319	703	0	10000	1	1	0	1	0
1382	704	0	10000	1	1	0	1	0
1394	705	0	10000	1	1	0	1	0
1366	706	0	10000	1	1	0	1	0
1314	707	0	10000	1	1	0	1	0
1254	708	0	10000	1	1	0	1	0
1203	709	0	10000	1	1	0	1	0
1189	710	0	10000	1	1	0	1	0
1197	711	0	10000	1	1	0	1	0
1179	712	0	10000	1	1	0	1	0
1142	713	0	10000	1	1	0	1	0
1093	714	0	10000	1	1	0	1	0
1047	715	0	10000	1	1	0	1	0
1001	716	0	10000	1	1	0	1	0
963	717	0	10000	1	1	0	1	0
942	718	0	10000	1	1	0	1	0
935	719	0	10000	1	1	0	1	0
932	720	0	10000	1	1	0	1	0
929	721	0	10000	1	1	0	1	0
920	722	0	10000	1	1	0	1	0
906	723	0	10000	1	1	0	1	0
885	724	0	10000	1	1	0	1	0
853	725	0	10000	1	1	0	1	0
817	726	0	10000	1	1	0	1	0
781	727	0	10000	1	1	0	1	0
748	728	0	10000	1	1	0	1	0
724	729	0	10000	1	1	0	1	0
704	730	0	10000	1	1	0	1	0
686	731	0	10000	1	1	0	1	0
672	732	0	10000	1	1	0	1	0
658	733	0	10000	1	1	0	1	0
642	734	0	10000	1	1	0	1	0
622	735	0	10000	1	1	0	1	0
597	736	0	10000	1	1	0	1	0
569	737	0	10000	1	1	0	1	0
545	738	0	10000	1	1	0	1	0
527	739	0	10000	1	1	0	1	0
511	740	0	10000	1	1	0	1	0
496	741	0	10000	1	1	0	1	0
487	742	0	10000	1	1	0	1	0
482	743	0	10000	1	1	0	1	0
473	744	0	10000	1	1	0	1	0
458	745	0	10000	1	1	0	1	0
440	746	0	10000	1	1	0	1	0
425	747	0	10000	1	1	0	1	0
417	748	0	10000	1	1	0	1	0
417	749	0	10000	1	1	0	1	0
414	750	0	10000	1	1	0	1	0
409	751	0	10000	1	1	0	1	0
406	752	0	10000	1	1	0	1	0
404	753	0	10000	1	1	0	1	0
402	754	0	10000	1	1	0	1	0
393	755	0	10000	1	1	0	1	0
381	756	0	10000	1	1	0	1	0
372	757	0	10000	1	1	0	1	0
363	758	0	10000	1	1	0	1	0
351	759	0	10000	1	1	0	1	0
341	760	0	10000	1	1	0	1	0
333	761	0	10000	1	1	0	1	0
323	762	0	10000	1	1	0	1	0
310	763	0	10000	1	1	0	1	0
302	764	0	10000	1	1	0	1	0
294	765	0	10000	1	1	0	1	0
286	766	0	10000	1	1	0	1	0
277	767	0	10000	1	1	0	1	0
266	768	0	10000	1	1	0	1	0
264	769	0	10000	1	1	0	1	0
271	770	0	10000	1	1	0	1	0
279	771	0	10000	1	1	0	1	0
286	772	0	10000	1	1	0	1	0
292	773	0	10000	1	1	0	1	0
295	774	0	10000	1	1	0	1	0
293	775	0	10000	1	1	0	1	0
283	776	0	10000	1	1	0	1	0
272	777	0	10000	1	1	0	1	0
264	778	0	10000	1	1	0	1	0
263	779	0	10000	1	1	0	1	0
263	780	0	10000	1	1	0	1	0
264	781	0	10000	1	1	0	1	0
263	782	0	10000	1	1	0	1	0
260	783	0	10000	1	1	0	1	0
255	784	0	10000	1	1	0	1	0
250	785	0	10000	1	1	0	1	0
244	786	0	10000	1	1	0	1	0
235	787	0	10000	1	1	0	1	0
227	788	0	10000	1	1	0	1	0
221	789	0	10000	1	1	0	1	0
215	790	0	10000	1	1	0	1	0
206	791	0	10000	1	1	0	1	0
197	792	0	10000	1	1	0	1	0
188	793	0	10000	1	1	0	1	0
180	794	0	10000	1	1	0	1	0
174	795	0	10000	1	1	0	1	0
172	796	0	10000	1	1	0	1	0
174	797	0	10000	1	1	0	1	0
179	798	0	10000	1	1	0	1	0
187	799	0	10000	1	1	0	1	0
195	800	0	10000	1	1	0	1	0
203	801	0	10000	1	1	0	1	0
210	802	0	10000	1	1	0	1	0
216	803	0	10000	1	1	0	1	0
222	804	0	10000	1	1	0	1	0
227	805	0	10000	1	1	0	1	0
230	806	0	10000	1	1	0	1	0
232	807	0	10000	1	1	0	1	0
230	808	0	10000	1	1	0	1	0
224	809	0	10000	1	1	0	1	0
217	810	0	10000	1	1	0	1	0
208	811	0	10000	1	1	0	1	0
203	812	0	10000	1	1	0	1	0
199	813	0	10000	1	1	0	1	0
191	814	0	10000	1	1	0	1	0
183	815	0	10000	1	1	0	1	0
176	816	0	10000	1	1	0	1	0
173	817	0	10000	1	1	0	1	0
175	818	0	10000	1	1	0	1	0
179	819	0	10000	1	1	0	1	0
180	820	0	10000	1	1	0	1	0
185	821	0	10000	1	1	0	1	0
190	822	0	10000	1	1	0	1	0
194	823	0	10000	1	1	0	1	0
195	824	0	10000	1	1	0	1	0
195	825	0	10000	1	1	0	1	0
192	826	0	10000	1	1	0	1	0
186	827	0	10000	1	1	0	1	0
179	828	0	10000	1	1	0	1	0
174	829	0	10000	1	1	0	1	0
174	830	0	10000	1	1	0	1	0
172	831	0	10000	1	1	0	1	0
169	832	0	10000	1	1	0	1	0
164	833	0	10000	1	1	0	1	0
161	834	0	10000	1	1	0	1	0
156	835	0	10000	1	1	0	1	0
152	836	0	10000	1	1	0	1	0
148	837	0	10000	1	1	0	1	0
142	838	0	10000	1	1	0	1	0
139	839	0	10000	1	1	0	1	0
132	840	0	10000	1	1	0	1	0
128	841	0	10000	1	1	0	1	0
128	842	0	10000	1	1	0	1	0
130	843	0	10000	1	1	0	1	0
130	844	0	10000	1	1	0	1	0
128	845	0	10000	1	1	0	1	0
125	846	0	10000	1	1	0	1	0
120	847	0	10000	1	1	0	1	0
116	848	0	10000	1	1	0	1	0
114	849	0	10000	1	1	0	1	0
117	850	0	10000	1	1	0	1	0
120	851	0	10000	1	1	0	1	0
123	852	0	10000	1	1	0	1	0
128	853	0	10000	1	1	0	1	0
132	854	0	10000	1	1	0	1	0
136	855	0	10000	1	1	0	1	0
136	856	0	10000	1	1	0	1	0
134	857	0	10000	1	1	0	1	0
130	858	0	10000	1	1	0	1	0
125	859	0	10000	1	1	0	1	0
120	860	0	10000	1	1	0	1	0
118	861	0	10000	1	1	0	1	0
118	862	0	10000	1	1	0	1	0
116	863	0	10000	1	1	0	1	0
114	864	0	10000	1	1	0	1	0
111	865	0	10000	1	1	0	1	0
107	866	0	10000	1	1	0	1	0
103	867	0	10000	1	1	0	1	0
104	868	0	10000	1	1	0	1	0
105	869	0	10000	1	1	0	1	0
107	870	0	10000	1	1	0	1	0
110	871	0	10000	1	1	0	1	0
113	872	0	10000	1	1	0	1	0
117	873	0	10000	1	1	0	1	0
122	874	0	10000	1	1	0	1	0
125	875	0	10000	1	1	0	1	0
126	876	0	10000	1	1	0	1	0
124	877	0	10000	1	1	0	1	0
120	878	0	10000	1	1	0	1	0
116	879	0	10000	1	1	0	1	0
110	880	0	10000	1	1	0	1	0
107	881	0	10000	1	1	0	1	0
106	882	0	10000	1	1	0	1	0
104	883	0	10000	1	1	0	1	0
100	884	0	10000	1	1	0	1	0
96	885	0	10000	1	1	0	1	0
92	886	0	10000	1	1	0	1	0
89	887	0	10000	1	1	0	1	0
88	888	0	10000	1	1	0	1	0
88	889	0	10000	1	1	0	1	0
90	890	0	10000	1	1	0	1	0
90	891	0	10000	1	1	0	1	0
92	892	0	10000	1	1	0	1	0
95	893	0	10000	1	1	0	1	0
98	894	0	10000	1	1	0	1	0
100	895	0	10000	1	1	0	1	0
101	896	0	10000	1	1	0	1	0
103	897	0	10000	1	1	0	1	0
103	898	0	10000	1	1	0	1	0
101	899	0	10000	1	1	0	1	0
95	900	0	10000	1	1	0	1	0
92	901	0	10000	1	1	0	1	0
87	902	0	10000	1	1	0	1	0
85	903	0	10000	1	1	0	1	0
84	904	0	10000	1	1	0	1	0
80	905	0	10000	1	1	0	1	0
77	906	0	10000	1	1	0	1	0
74	907	0	10000	1	1	0	1	0
71	908	0	10000	1	1	0	1	0
70	909	0	10000	1	1	0	1	0
76	910	0	10000	1	1	0	1	0
78	911	0	10000	1	1	0	1	0
77	912	0	10000	1	1	0	1	0
77	913	0	10000	1	1	0	1	0
74	914	0	10000	1	1	0	1	0
72	915	0	10000	1	1	0	1	0
72	916	0	10000	1	1	0	1	0
70	917	0	10000	1	1	0	1	0
67	918	0	10000	1	1	0	1	0
69	919	0	10000	1	1	0	1	0
69	920	0	10000	1	1	0	1	0
69	921	0	10000	1	1	0	1	0
68	922	0	10000	1	1	0	1	0
67	923	0	10000	1	1	0	1	0
66	924	0	10000	1	1	0	1	0
63	925	0	10000	1	1	0	1	0
61	926	0	10000	1	1	0	1	0
60	927	0	10000	1	1	0	1	0
62	928	0	10000	1	1	0	1	0
65	929	0	10000	1	1	0	1	0
67	930	0	10000	1	1	0	1	0
67	931	0	10000	1	1	0	1	0
66	932	0	10000	1	1	0	1	0
67	933	0	10000	1	1	0	1	0
65	934	0	10000	1	1	0	1	0
66	935	0	10000	1	1	0	1	0
68	936	0	10000	1	1	0	1	0
68	937	0	10000	1	1	0	1	0
68	938	0	10000	1	1	0	1	0
65	939	0	10000	1	1	0	1	0
62	940	0	10000	1	1	0	1	0
64	941	0	10000	1	1	0	1	0
65	942	0	10000	1	1	0	1	0
65	943	0	10000	1	1	0	1	0
66	944	0	10000	1	1	0	1	0
67	945	0	10000	1	1	0	1	0
68	946	0	10000	1	1	0	1	0
72	947	0	10000	1	1	0	1	0
71	948	0	10000	1	1	0	1	0
71	949	0	10000	1	1	0	1	0
79	950	0	10000	1	1	0	1	0
84	951	0	10000	1	1	0	1	0
84	952	0	10000	1	1	0	1	0
82	953	0	10000	1	1	0	1	0
80	954	0	10000	1	1	0	1	0
78	955	0	10000	1	1	0	1	0
75	956	0	10000	1	1	0	1	0
72	957	0	10000	1	1	0	1	0
70	958	0	10000	1	1	0	1	0
70	959	0	10000	1	1	0	1	0
70	960	0	10000	1	1	0	1	0
74	961	0	10000	1	1	0	1	0
74	962	0	10000	1	1	0	1	0
74	963	0	10000	1	1	0	1	0
77	964	0	10000	1	1	0	1	0
79	965	0	10000	1	1	0	1	0
81	966	0	10000	1	1	0	1	0
85	967	0	10000	1	1	0	1	0
88	968	0	10000	1	1	0	1	0
92	969	0	10000	1	1	0	1	0
101	970	0	10000	1	1	0	1	0
109	971	0	10000	1	1	0	1	0
109	972	0	10000	1	1	0	1	0
110	973	0	10000	1	1	0	1	0
117	974	0	10000	1	1	0	1	0
119	975	0	10000	1	1	0	1	0
115	976	0	10000	1	1	0	1	0
116	977	0	10000	1	1	0	1	0
122	978	0	10000	1	1	0	1	0
130	979	0	10000	1	1	0	1	0
132	980	0	10000	1	1	0	1	0
128	981	0	10000	1	1	0	1	0
123	982	0	10000	1	1	0	1	0
125	983	0	10000	1	1	0	1	0
128	984	0	10000	1	1	0	1	0
132	985	0	10000	1	1	0	1	0
142	986	0	10000	1	1	0	1	0
146	987	0	10000	1	1	0	1	0
146	988	0	10000	1	1	0	1	0
141	989	0	10000	1	1	0	1	0
142	990	0	10000	1	1	0	1	0
148	991	0	10000	1	1	0	1	0
147	992	0	10000	1	1	0	1	0
143	993	0	10000	1	1	0	1	0
140	994	0	10000	1	1	0	1	0
141	995	0	10000	1	1	0	1	0
150	996	0	10000	1	1	0	1	0
165	997	0	10000	1	1	0	1	0
177	998	0	10000	1	1	0	1	0
179	999	0	10000	1	1	0	1	0
176	1000	0	10000	1	1	0	1	0
184	1001	0	10000	1	1	0	1	0
46	1	0	10000	2	1	0	2	0
46	2	0	10000	2	1	0	2	0
46	3	0	10000	2	1	0	2	0
45	4	0	10000	2	1	0	2	0
44	5	0	10000	2	1	0	2	0
44	6	0	10000	2	1	0	2	0
43	7	0	10000	2	1	0	2	0
43	8	0	10000	2	1	0	2	0
44	9	0	10000	2	1	0	2	0
44	10	0	10000	2	1	0	2	0
47	11	0	10000	2	1	0	2	0
48	12	0	10000	2	1	0	2	0
45	13	0	10000	2	1	0	2	0
44	14	0	10000	2	1	0	2	0
44	15	0	10000	2	1	0	2	0
44	16	0	10000	2	1	0	2	0
43	17	0	10000	2	1	0	2	0
44	18	0	10000	2	1	0	2	0
46	19	0	10000	2	1	0	2	0
50	20	0	10000	2	1	0	2	0
56	21	0	10000	2	1	0	2	0
56	22	0	10000	2	1	0	2	0
55	23	0	10000	2	1	0	2	0
53	24	0	10000	2	1	0	2	0
52	25	0	10000	2	1	0	2	0
54	26	0	10000	2	1	0	2	0
56	27	0	10000	2	1	0	2	0
57	28	0	10000	2	1	0	2	0
58	29	0	10000	2	1	0	2	0
57	30	0	10000	2	1	0	2	0
56	31	0	10000	2	1	0	2	0
54	32	0	10000	2	1	0	2	0
52	33	0	10000	2	1	0	2	0
51	34	0	10000	2	1	0	2	0
53	35	0	10000	2	1	0	2	0
52	36	0	10000	2	1	0	2	0
51	37	0	10000	2	1	0	2	0
52	38	0	10000	2	1	0	2	0
52	39	0	10000	2	1	0	2	0
50	40	0	10000	2	1	0	2	0
49	41	0	10000	2	1	0	2	0
49	42	0	10000	2	1	0	2	0
51	43	0	10000	2	1	0	2	0
49	44	0	10000	2	1	0	2	0
47	45	0	10000	2	1	0	2	0
47	46	0	10000	2	1	0	2	0
51	47	0	10000	2	1	0	2	0
54	48	0	10000	2	1	0	2	0
56	49	0	10000	2	1	0	2	0
54	50	0	10000	2	1	0	2	0
53	51	0	10000	2	1	0	2	0
53	52	0	10000	2	1	0	2	0
55	53	0	10000	2	1	0	2	0
56	54	0	10000	2	1	0	2	0
57	55	0	10000	2	1	0	2	0
58	56	0	10000	2	1	0	2	0
58	57	0	10000	2	1	0	2	0
56	58	0	10000	2	1	0	2	0
57	59	0	10000	2	1	0	2	0
58	60	0	10000	2	1	0	2	0
57	61	0	10000	2	1	0	2	0
57	62	0	10000	2	1	0	2	0
56	63	0	10000	2	1	0	2	0
55	64	0	10000	2	1	0	2	0
55	65	0	10000	2	1	0	2	0
56	66	0	10000	2	1	0	2	0
56	67	0	10000	2	1	0	2	0
54	68	0	10000	2	1	0	2	0
55	69	0	10000	2	1	0	2	0
56	70	0	10000	2	1	0	2	0
58	71	0	10000	2	1	0	2	0
56	72	0	10000	2	1	0	2	0
57	73	0	10000	2	1	0	2	0
58	74	0	10000	2	1	0	2	0
58	75	0	10000	2	1	0	2	0
58	76	0	10000	2	1	0	2	0
55	77	0	10000	2	1	0	2	0
54	78	0	10000	2	1	0	2	0
54	79	0	10000	2	1	0	2	0
51	80	0	10000	2	1	0	2	0
50	81	0	10000	2	1	0	2	0
54	82	0	10000	2	1	0	2	0
58	83	0	10000	2	1	0	2	0
64	84	0	10000	2	1	0	2	0
67	85	0	10000	2	1	0	2	0
65	86	0	10000	2	1	0	2	0
67	87	0	10000	2	1	0	2	0
70	88	0	10000	2	1	0	2	0
73	89	0	10000	2	1	0	2	0
75	90	0	10000	2	1	0	2	0
79	91	0	10000	2	1	0	2	0
77	92	0	10000	2	1	0	2	0
74	93	0	10000	2	1	0	2	0
76	94	0	10000	2	1	0	2	0
77	95	0	10000	2	1	0	2	0
77	96	0	10000	2	1	0	2	0
76	97	0	10000	2	1	0	2	0
72	98	0	10000	2	1	0	2	0
71	99	0	10000	2	1	0	2	0
72	100	0	10000	2	1	0	2	0
73	101	0	10000	2	1	0	2	0
73	102	0	10000	2	1	0	2	0
72	103	0	10000	2	1	0	2	0
70	104	0	10000	2	1	0	2	0
68	105	0	10000	2	1	0	2	0
66	106	0	10000	2	1	0	2	0
64	107	0	10000	2	1	0	2	0
67	108	0	10000	2	1	0	2	0
70	109	0	10000	2	1	0	2	0
73	110	0	10000	2	1	0	2	0
72	111	0	10000	2	1	0	2	0
69	112	0	10000	2	1	0	2	0
70	113	0	10000	2	1	0	2	0
72	114	0	10000	2	1	0	2	0
73	115	0	10000	2	1	0	2	0
72	116	0	10000	2	1	0	2	0
70	117	0	10000	2	1	0	2	0
71	118	0	10000	2	1	0	2	0
72	119	0	10000	2	1	0	2	0
69	120	0	10000	2	1	0	2	0
67	121	0	10000	2	1	0	2	0
68	122	0	10000	2	1	0	2	0
68	123	0	10000	2	1	0	2	0
66	124	0	10000	2	1	0	2	0
65	125	0	10000	2	1	0	2	0
66	126	0	10000	2	1	0	2	0
65	127	0	10000	2	1	0	2	0
65	128	0	10000	2	1	0	2	0
64	129	0	10000	2	1	0	2	0
62	130	0	10000	2	1	0	2	0
61	131	0	10000	2	1	0	2	0
59	132	0	10000	2	1	0	2	0
60	133	0	10000	2	1	0	2	0
62	134	0	10000	2	1	0	2	0
61	135	0	10000	2	1	0	2	0
60	136	0	10000	2	1	0	2	0
59	137	0	10000	2	1	0	2	0
60	138	0	10000	2	1	0	2	0
61	139	0	10000	2	1	0	2	0
58	140	0	10000	2	1	0	2	0
56	141	0	10000	2	1	0	2	0
56	142	0	10000	2	1	0	2	0
58	143	0	10000	2	1	0	2	0
57	144	0	10000	2	1	0	2	0
56	145	0	10000	2	1	0	2	0
58	146	0	10000	2	1	0	2	0
62	147	0	10000	2	1	0	2	0
63	148	0	10000	2	1	0	2	0
63	149	0	10000	2	1	0	2	0
64	150	0	10000	2	1	0	2	0
66	151	0	10000	2	1	0	2	0
68	152	0	10000	2	1	0	2	0
67	153	0	10000	2	1	0	2	0
67	154	0	10000	2	1	0	2	0
68	155	0	10000	2	1	0	2	0
68	156	0	10000	2	1	0	2	0
66	157	0	10000	2	1	0	2	0
66	158	0	10000	2	1	0	2	0
64	159	0	10000	2	1	0	2	0
60	160	0	10000	2	1	0	2	0
58	161	0	10000	2	1	0	2	0
57	162	0	10000	2	1	0	2	0
56	163	0	10000	2	1	0	2	0
56	164	0	10000	2	1	0	2	0
56	165	0	10000	2	1	0	2	0
56	166	0	10000	2	1	0	2	0
55	167	0	10000	2	1	0	2	0
53	168	0	10000	2	1	0	2	0
55	169	0	10000	2	1	0	2	0
56	170	0	10000	2	1	0	2	0
55	171	0	10000	2	1	0	2	0
54	172	0	10000	2	1	0	2	0
53	173	0	10000	2	1	0	2	0
54	174	0	10000	2	1	0	2	0
53	175	0	10000	2	1	0	2	0
54	176	0	10000	2	1	0	2	0
59	177	0	10000	2	1	0	2	0
63	178	0	10000	2	1	0	2	0
63	179	0	10000	2	1	0	2	0
60	180	0	10000	2	1	0	2	0
59	181	0	10000	2	1	0	2	0
58	182	0	10000	2	1	0	2	0
57	183	0	10000	2	1	0	2	0
56	184	0	10000	2	1	0	2	0
56	185	0	10000	2	1	0	2	0
56	186	0	10000	2	1	0	2	0
58	187	0	10000	2	1	0	2	0
59	188	0	10000	2	1	0	2	0
58	189	0	10000	2	1	0	2	0
60	190	0	10000	2	1	0	2	0
61	191	0	10000	2	1	0	2	0
58	192	0	10000	2	1	0	2	0
55	193	0	10000	2	1	0	2	0
57	194	0	10000	2	1	0	2	0
60	195	0	10000	2	1	0	2	0
61	196	0	10000	2	1	0	2	0
60	197	0	10000	2	1	0	2	0
62	198	0	10000	2	1	0	2	0
61	199	0	10000	2	1	0	2	0
58	200	0	10000	2	1	0	2	0
55	201	0	10000	2	1	0	2	0
54	202	0	10000	2	1	0	2	0
53	203	0	10000	2	1	0	2	0
52	204	0	10000	2	1	0	2	0
50	205	0	10000	2	1	0	2	0
48	206	0	10000	2	1	0	2	0
47	207	0	10000	2	1	0	2	0
47	208	0	10000	2	1	0	2	0
47	209	0	10000	2	1	0	2	0
50	210	0	10000	2	1	0	2	0
49	211	0	10000	2	1	0	2	0
51	212	0	10000	2	1	0	2	0
51	213	0	10000	2	1	0	2	0
51	214	0	10000	2	1	0	2	0
53	215	0	10000	2	1	0	2	0
51	216	0	10000	2	1	0	2	0
52	217	0	10000	2	1	0	2	0
54	218	0	10000	2	1	0	2	0
55	219	0	10000	2	1	0	2	0
52	220	0	10000	2	1	0	2	0
50	221	0	10000	2	1	0	2	0
50	222	0	10000	2	1	0	2	0
49	223	0	10000	2	1	0	2	0
46	224	0	10000	2	1	0	2	0
45	225	0	10000	2	1	0	2	0
46	226	0	10000	2	1	0	2	0
46	227	0	10000	2	1	0	2	0
45	228	0	10000	2	1	0	2	0
43	229	0	10000	2	1	0	2	0
44	230	0	10000	2	1	0	2	0
46	231	0	10000	2	1	0	2	0
45	232	0	10000	2	1	0	2	0
42	233	0	10000	2	1	0	2	0
42	234	0	10000	2	1	0	2	0
41	235	0	10000	2	1	0	2	0
40	236	0	10000	2	1	0	2	0
40	237	0	10000	2	1	0	2	0
38	238	0	10000	2	1	0	2	0
37	239	0	10000	2	1	0	2	0
40	240	0	10000	2	1	0	2	0
44	241	0	10000	2	1	0	2	0
47	242	0	10000	2	1	0	2	0
49	243	0	10000	2	1	0	2	0
47	244	0	10000	2	1	0	2	0
46	245	0	10000	2	1	0	2	0
45	246	0	10000	2	1	0	2	0
44	247	0	10000	2	1	0	2	0
44	248	0	10000	2	1	0	2	0
46	249	0	10000	2	1	0	2	0
47	250	0	10000	2	1	0	2	0
49	251	0	10000	2	1	0	2	0
50	252	0	10000	2	1	0	2	0
49	253	0	10000	2	1	0	2	0
48	254	0	10000	2	1	0	2	0
48	255	0	10000	2	1	0	2	0
52	256	0	10000	2	1	0	2	0
50	257	0	10000	2	1	0	2	0
49	258	0	10000	2	1	0	2	0
48	259	0	10000	2	1	0	2	0
45	260	0	10000	2	1	0	2	0
44	261	0	10000	2	1	0	2	0
44	262	0	10000	2	1	0	2	0
44	263	0	10000	2	1	0	2	0
43	264	0	10000	2	1	0	2	0
42	265	0	10000	2	1	0	2	0
42	266	0	10000	2	1	0	2	0
42	267	0	10000	2	1	0	2	0
41	268	0	10000	2	1	0	2	0
40	269	0	10000	2	1	0	2	0
39	270	0	10000	2	1	0	2	0
39	271	0	10000	2	1	0	2	0
36	272	0	10000	2	1	0	2	0
34	273	0	10000	2	1	0	2	0
33	274	0	10000	2	1	0	2	0
32	275	0	10000	2	1	0	2	0
32	276	0	10000	2	1	0	2	0
31	277	0	10000	2	1	0	2	0
31	278	0	10000	2	1	0	2	0
31	279	0	10000	2	1	0	2	0
32	280	0	10000	2	1	0	2	0
32	281	0	10000	2	1	0	2	0
31	282	0	10000	2	1	0	2	0
31	283	0	10000	2	1	0	2	0
30	284	0	10000	2	1	0	2	0
32	285	0	10000	2	1	0	2	0
33	286	0	10000	2	1	0	2	0
34	287	0	10000	2	1	0	2	0
32	288	0	10000	2	1	0	2	0
33	289	0	10000	2	1	0	2	0
37	290	0	10000	2	1	0	2	0
40	291	0	10000	2	1	0	2	0
39	292	0	10000	2	1	0	2	0
36	293	0	10000	2	1	0	2	0
35	294	0	10000	2	1	0	2	0
37	295	0	10000	2	1	0	2	0
38	296	0	10000	2	1	0	2	0
40	297	0	10000	2	1	0	2	0
42	298	0	10000	2	1	0	2	0
41	299	0	10000	2	1	0	2	0
41	300	0	10000	2	1	0	2	0
42	301	0	10000	2	1	0	2	0
42	302	0	10000	2	1	0	2	0
44	303	0	10000	2	1	0	2	0
44	304	0	10000	2	1	0	2	0
43	305	0	10000	2	1	0	2	0
43	306	0	10000	2	1	0	2	0
44	307	0	10000	2	1	0	2	0
43	308	0	10000	2	1	0	2	0
42	309	0	10000	2	1	0	2	0
43	310	0	10000	2	1	0	2	0
43	311	0	10000	2	1	0	2	0
41	312	0	10000	2	1	0	2	0
40	313	0	10000	2	1	0	2	0
38	314	0	10000	2	1	0	2	0
38	315	0	10000	2	1	0	2	0
40	316	0	10000	2	1	0	2	0
41	317	0	10000	2	1	0	2	0
41	318	0	10000	2	1	0	2	0
40	319	0	10000	2	1	0	2	0
39	320	0	10000	2	1	0	2	0
39	321	0	10000	2	1	0	2	0
40	322	0	10000	2	1	0	2	0
42	323	0	10000	2	1	0	2	0
44	324	0	10000	2	1	0	2	0
44	325	0	10000	2	1	0	2	0
45	326	0	10000	2	1	0	2	0
44	327	0	10000	2	1	0	2	0
44	328	0	10000	2	1	0	2	0
44	329	0	10000	2	1	0	2	0
44	330	0	10000	2	1	0	2	0
45	331	0	10000	2	1	0	2	0
44	332	0	10000	2	1	0	2	0
43	333	0	10000	2	1	0	2	0
47	334	0	10000	2	1	0	2	0
51	335	0	10000	2	1	0	2	0
50	336	0	10000	2	1	0	2	0
50	337	0	10000	2	1	0	2	0
50	338	0	10000	2	1	0	2	0
47	339	0	10000	2	1	0	2	0
45	340	0	10000	2	1	0	2	0
45	341	0	10000	2	1	0	2	0
46	342	0	10000	2	1	0	2	0
47	343	0	10000	2	1	0	2	0
46	344	0	10000	2	1	0	2	0
45	345	0	10000	2	1	0	2	0
45	346	0	10000	2	1	0	2	0
44	347	0	10000	2	1	0	2	0
43	348	0	10000	2	1	0	2	0
44	349	0	10000	2	1	0	2	0
46	350	0	10000	2	1	0	2	0
48	351	0	10000	2	1	0	2	0
46	352	0	10000	2	1	0	2	0
45	353	0	10000	2	1	0	2	0
45	354	0	10000	2	1	0	2	0
44	355	0	10000	2	1	0	2	0
42	356	0	10000	2	1	0	2	0
41	357	0	10000	2	1	0	2	0
40	358	0	10000	2	1	0	2	0
39	359	0	10000	2	1	0	2	0
37	360	0	10000	2	1	0	2	0
36	361	0	10000	2	1	0	2	0
35	362	0	10000	2	1	0	2	0
34	363	0	10000	2	1	0	2	0
33	364	0	10000	2	1	0	2	0
32	365	0	10000	2	1	0	2	0
30	366	0	10000	2	1	0	2	0
31	367	0	10000	2	1	0	2	0
33	368	0	10000	2	1	0	2	0
32	369	0	10000	2	1	0	2	0
31	370	0	10000	2	1	0	2	0
31	371	0	10000	2	1	0	2	0
29	372	0	10000	2	1	0	2	0
26	373	0	10000	2	1	0	2	0
27	374	0	10000	2	1	0	2	0
25	375	0	10000	2	1	0	2	0
25	376	0	10000	2	1	0	2	0
26	377	0	10000	2	1	0	2	0
25	378	0	10000	2	1	0	2	0
24	379	0	10000	2	1	0	2	0
24	380	0	10000	2	1	0	2	0
23	381	0	10000	2	1	0	2	0
24	382	0	10000	2	1	0	2	0
26	383	0	10000	2	1	0	2	0
25	384	0	10000	2	1	0	2	0
24	385	0	10000	2	1	0	2	0
25	386	0	10000	2	1	0	2	0
24	387	0	10000	2	1	0	2	0
25	388	0	10000	2	1	0	2	0
31	389	0	10000	2	1	0	2	0
37	390	0	10000	2	1	0	2	0
39	391	0	10000	2	1	0	2	0
38	392	0	10000	2	1	0	2	0
37	393	0	10000	2	1	0	2	0
39	394	0	10000	2	1	0	2	0
42	395	0	10000	2	1	0	2	0
42	396	0	10000	2	1	0	2	0
42	397	0	10000	2	1	0	2	0
41	398	0	10000	2	1	0	2	0
40	399	0	10000	2	1	0	2	0
38	400	0	10000	2	1	0	2	0
37	401	0	10000	2	1	0	2	0
37	402	0	10000	2	1	0	2	0
37	403	0	10000	2	1	0	2	0
38	404	0	10000	2	1	0	2	0
38	405	0	10000	2	1	0	2	0
37	406	0	10000	2	1	0	2	0
40	407	0	10000	2	1	0	2	0
39	408	0	10000	2	1	0	2	0
39	409	0	10000	2	1	0	2	0
39	410	0	10000	2	1	0	2	0
42	411	0	10000	2	1	0	2	0
44	412	0	10000	2	1	0	2	0
44	413	0	10000	2	1	0	2	0
44	414	0	10000	2	1	0	2	0
43	415	0	10000	2	1	0	2	0
42	416	0	10000	2	1	0	2	0
41	417	0	10000	2	1	0	2	0
39	418	0	10000	2	1	0	2	0
37	419	0	10000	2	1	0	2	0
36	420	0	10000	2	1	0	2	0
36	421	0	10000	2	1	0	2	0
36	422	0	10000	2	1	0	2	0
38	423	0	10000	2	1	0	2	0
38	424	0	10000	2	1	0	2	0
38	425	0	10000	2	1	0	2	0
36	426	0	10000	2	1	0	2	0
35	427	0	10000	2	1	0	2	0
37	428	0	10000	2	1	0	2	0
41	429	0	10000	2	1	0	2	0
46	430	0	10000	2	1	0	2	0
50	431	0	10000	2	1	0	2	0
48	432	0	10000	2	1	0	2	0
49	433	0	10000	2	1	0	2	0
51	434	0	10000	2	1	0	2	0
51	435	0	10000	2	1	0	2	0
52	436	0	10000	2	1	0	2	0
53	437	0	10000	2	1	0	2	0
56	438	0	10000	2	1	0	2	0
58	439	0	10000	2	1	0	2	0
58	440	0	10000	2	1	0	2	0
57	441	0	10000	2	1	0	2	0
57	442	0	10000	2	1	0	2	0
63	443	0	10000	2	1	0	2	0
69	444	0	10000	2	1	0	2	0
72	445	0	10000	2	1	0	2	0
73	446	0	10000	2	1	0	2	0
72	447	0	10000	2	1	0	2	0
68	448	0	10000	2	1	0	2	0
68	449	0	10000	2	1	0	2	0
69	450	0	10000	2	1	0	2	0
71	451	0	10000	2	1	0	2	0
72	452	0	10000	2	1	0	2	0
70	453	0	10000	2	1	0	2	0
67	454	0	10000	2	1	0	2	0
66	455	0	10000	2	1	0	2	0
66	456	0	10000	2	1	0	2	0
64	457	0	10000	2	1	0	2	0
64	458	0	10000	2	1	0	2	0
62	459	0	10000	2	1	0	2	0
58	460	0	10000	2	1	0	2	0
57	461	0	10000	2	1	0	2	0
57	462	0	10000	2	1	0	2	0
59	463	0	10000	2	1	0	2	0
59	464	0	10000	2	1	0	2	0
58	465	0	10000	2	1	0	2	0
56	466	0	10000	2	1	0	2	0
54	467	0	10000	2	1	0	2	0
53	468	0	10000	2	1	0	2	0
51	469	0	10000	2	1	0	2	0
50	470	0	10000	2	1	0	2	0
48	471	0	10000	2	1	0	2	0
47	472	0	10000	2	1	0	2	0
47	473	0	10000	2	1	0	2	0
48	474	0	10000	2	1	0	2	0
48	475	0	10000	2	1	0	2	0
46	476	0	10000	2	1	0	2	0
45	477	0	10000	2	1	0	2	0
43	478	0	10000	2	1	0	2	0
43	479	0	10000	2	1	0	2	0
40	480	0	10000	2	1	0	2	0
40	481	0	10000	2	1	0	2	0
39	482	0	10000	2	1	0	2	0
43	483	0	10000	2	1	0	2	0
47	484	0	10000	2	1	0	2	0
47	485	0	10000	2	1	0	2	0
48	486	0	10000	2	1	0	2	0
51	487	0	10000	2	1	0	2	0
53	488	0	10000	2	1	0	2	0
54	489	0	10000	2	1	0	2	0
54	490	0	10000	2	1	0	2	0
53	491	0	10000	2	1	0	2	0
55	492	0	10000	2	1	0	2	0
56	493	0	10000	2	1	0	2	0
58	494	0	10000	2	1	0	2	0
56	495	0	10000	2	1	0	2	0
59	496	0	10000	2	1	0	2	0
60	497	0	10000	2	1	0	2	0
59	498	0	10000	2	1	0	2	0
58	499	0	10000	2	1	0	2	0
58	500	0	10000	2	1	0	2	0
56	501	0	10000	2	1	0	2	1
56	502	0	10000	2	1	0	2	1
57	503	0	10000	2	1	0	2	1
57	504	0	10000	2	1	0	2	1
60	505	0	10000	2	1	0	2	1
60	506	0	10000	2	1	0	2	1
58	507	0	10000	2	1	0	2	1
61	508	0	10000	2	1	0	2	1
63	509	0	10000	2	1	0	2	1
65	510	0	10000	2	1	0	2	1
65	511	0	10000	2	1	0	2	1
62	512	0	10000	2	1	0	2	1
58	513	0	10000	2	1	0	2	1
56	514	0	10000	2	1	0	2	1
54	515	0	10000	2	1	0	2	1
52	516	0	10000	2	1	0	2	1
51	517	0	10000	2	1	0	2	1
49	518	0	10000	2	1	0	2	1
47	519	0	10000	2	1	0	2	1
49	520	0	10000	2	1	0	2	1
49	521	0	10000	2	1	0	2	1
48	522	0	10000	2	1	0	2	1
53	523	0	10000	2	1	0	2	1
53	524	0	10000	2	1	0	2	1
51	525	0	10000	2	1	0	2	1
49	526	0	10000	2	1	0	2	1
48	527	0	10000	2	1	0	2	1
49	528	0	10000	2	1	0	2	1
52	529	0	10000	2	1	0	2	1
53	530	0	10000	2	1	0	2	1
54	531	0	10000	2	1	0	2	1
53	532	0	10000	2	1	0	2	1
51	533	0	10000	2	1	0	2	1
50	534	0	10000	2	1	0	2	1
49	535	0	10000	2	1	0	2	1
49	536	0	10000	2	1	0	2	1
47	537	0	10000	2	1	0	2	1
46	538	0	10000	2	1	0	2	1
46	539	0	10000	2	1	0	2	1
50	540	0	10000	2	1	0	2	1
52	541	0	10000	2	1	0	2	1
52	542	0	10000	2	1	0	2	1
51	543	0	10000	2	1	0	2	1
50	544	0	10000	2	1	0	2	1
49	545	0	10000	2	1	0	2	1
49	546	0	10000	2	1	0	2	1
49	547	0	10000	2	1	0	2	1
55	548	0	10000	2	1	0	2	1
64	549	0	10000	2	1	0	2	1
78	550	0	10000	2	1	0	2	1
91	551	0	10000	2	1	0	2	0
96	552	0	10000	2	1	0	2	0
92	553	0	10000	2	1	0	2	0
91	554	0	10000	2	1	0	2	0
90	555	0	10000	2	1	0	2	0
87	556	0	10000	2	1	0	2	0
85	557	0	10000	2	1	0	2	0
89	558	0	10000	2	1	0	2	0
98	559	0	10000	2	1	0	2	0
111	560	0	10000	2	1	0	2	0
117	561	0	10000	2	1	0	2	0
119	562	0	10000	2	1	0	2	0
123	563	0	10000	2	1	0	2	0
122	564	0	10000	2	1	0	2	0
122	565	0	10000	2	1	0	2	0
120	566	0	10000	2	1	0	2	0
120	567	0	10000	2	1	0	2	0
118	568	0	10000	2	1	0	2	0
119	569	0	10000	2	1	0	2	0
123	570	0	10000	2	1	0	2	0
126	571	0	10000	2	1	0	2	0
127	572	0	10000	2	1	0	2	0
130	573	0	10000	2	1	0	2	0
139	574	0	10000	2	1	0	2	0
149	575	0	10000	2	1	0	2	0
154	576	0	10000	2	1	0	2	0
157	577	0	10000	2	1	0	2	0
158	578	0	10000	2	1	0	2	0
155	579	0	10000	2	1	0	2	0
150	580	0	10000	2	1	0	2	0
150	581	0	10000	2	1	0	2	0
150	582	0	10000	2	1	0	2	0
150	583	0	10000	2	1	0	2	0
147	584	0	10000	2	1	0	2	0
159	585	0	10000	2	1	0	2	0
173	586	0	10000	2	1	0	2	0
192	587	0	10000	2	1	0	2	0
215	588	0	10000	2	1	0	2	0
230	589	0	10000	2	1	0	2	0
228	590	0	10000	2	1	0	2	0
226	591	0	10000	2	1	0	2	0
230	592	0	10000	2	1	0	2	0
254	593	0	10000	2	1	0	2	0
262	594	0	10000	2	1	0	2	0
290	595	0	10000	2	1	0	2	0
289	596	0	10000	2	1	0	2	0
290	597	0	10000	2	1	0	2	0
280	598	0	10000	2	1	0	2	0
273	599	0	10000	2	1	0	2	0
272	600	0	10000	2	1	0	2	0
268	601	0	10000	2	1	0	2	0
282	602	0	10000	2	1	0	2	0
299	603	0	10000	2	1	0	2	0
315	604	0	10000	2	1	0	2	0
312	605	0	10000	2	1	0	2	0
312	606	0	10000	2	1	0	2	0
319	607	0	10000	2	1	0	2	0
320	608	0	10000	2	1	0	2	0
310	609	0	10000	2	1	0	2	0
305	610	0	10000	2	1	0	2	0
297	611	0	10000	2	1	0	2	0
293	612	0	10000	2	1	0	2	0
300	613	0	10000	2	1	0	2	0
305	614	0	10000	2	1	0	2	0
298	615	0	10000	2	1	0	2	0
292	616	0	10000	2	1	0	2	0
285	617	0	10000	2	1	0	2	0
280	618	0	10000	2	1	0	2	0
288	619	0	10000	2	1	0	2	0
350	620	0	10000	2	1	0	2	0
394	621	0	10000	2	1	0	2	0
413	622	0	10000	2	1	0	2	0
406	623	0	10000	2	1	0	2	0
429	624	0	10000	2	1	0	2	0
471	625	0	10000	2	1	0	2	0
525	626	0	10000	2	1	0	2	0
559	627	0	10000	2	1	0	2	0
567	628	0	10000	2	1	0	2	0
564	629	0	10000	2	1	0	2	0
576	630	0	10000	2	1	0	2	0
578	631	0	10000	2	1	0	2	0
567	632	0	10000	2	1	0	2	0
562	633	0	10000	2	1	0	2	0
551	634	0	10000	2	1	0	2	0
529	635	0	10000	2	1	0	2	0
510	636	0	10000	2	1	0	2	0
490	637	0	10000	2	1	0	2	0
471	638	0	10000	2	1	0	2	0
452	639	0	10000	2	1	0	2	0
433	640	0	10000	2	1	0	2	0
413	641	0	10000	2	1	0	2	0
401	642	0	10000	2	1	0	2	0
387	643	0	10000	2	1	0	2	0
375	644	0	10000	2	1	0	2	0
369	645	0	10000	2	1	0	2	0
364	646	0	10000	2	1	0	2	0
351	647	0	10000	2	1	0	2	0
343	648	0	10000	2	1	0	2	0
342	649	0	10000	2	1	0	2	0
342	650	0	10000	2	1	0	2	0
334	651	0	10000	2	1	0	2	0
326	652	0	10000	2	1	0	2	0
325	653	0	10000	2	1	0	2	0
320	654	0	10000	2	1	0	2	0
307	655	0	10000	2	1	0	2	0
297	656	0	10000	2	1	0	2	0
289	657	0	10000	2	1	0	2	0
284	658	0	10000	2	1	0	2	0
283	659	0	10000	2	1	0	2	0
291	660	0	10000	2	1	0	2	0
294	661	0	10000	2	1	0	2	0
293	662	0	10000	2	1	0	2	0
285	663	0	10000	2	1	0	2	0
283	664	0	10000	2	1	0	2	0
280	665	0	10000	2	1	0	2	0
270	666	0	10000	2	1	0	2	0
261	667	0	10000	2	1	0	2	0
257	668	0	10000	2	1	0	2	0
256	669	0	10000	2	1	0	2	0
251	670	0	10000	2	1	0	2	0
242	671	0	10000	2	1	0	2	0
234	672	0	10000	2	1	0	2	0
224	673	0	10000	2	1	0	2	0
217	674	0	10000	2	1	0	2	0
210	675	0	10000	2	1	0	2	0
202	676	0	10000	2	1	0	2	0
197	677	0	10000	2	1	0	2	0
196	678	0	10000	2	1	0	2	0
197	679	0	10000	2	1	0	2	0
196	680	0	10000	2	1	0	2	0
195	681	0	10000	2	1	0	2	0
192	682	0	10000	2	1	0	2	0
186	683	0	10000	2	1	0	2	0
182	684	0	10000	2	1	0	2	0
176	685	0	10000	2	1	0	2	0
173	686	0	10000	2	1	0	2	0
170	687	0	10000	2	1	0	2	0
165	688	0	10000	2	1	0	2	0
158	689	0	10000	2	1	0	2	0
158	690	0	10000	2	1	0	2	0
157	691	0	10000	2	1	0	2	0
153	692	0	10000	2	1	0	2	0
146	693	0	10000	2	1	0	2	0
140	694	0	10000	2	1	0	2	0
136	695	0	10000	2	1	0	2	0
135	696	0	10000	2	1	0	2	0
134	697	0	10000	2	1	0	2	0
133	698	0	10000	2	1	0	2	0
133	699	0	10000	2	1	0	2	0
130	700	0	10000	2	1	0	2	0
125	701	0	10000	2	1	0	2	0
124	702	0	10000	2	1	0	2	0
129	703	0	10000	2	1	0	2	0
131	704	0	10000	2	1	0	2	0
131	705	0	10000	2	1	0	2	0
133	706	0	10000	2	1	0	2	0
138	707	0	10000	2	1	0	2	0
141	708	0	10000	2	1	0	2	0
140	709	0	10000	2	1	0	2	0
136	710	0	10000	2	1	0	2	0
131	711	0	10000	2	1	0	2	0
128	712	0	10000	2	1	0	2	0
128	713	0	10000	2	1	0	2	0
128	714	0	10000	2	1	0	2	0
126	715	0	10000	2	1	0	2	0
122	716	0	10000	2	1	0	2	0
117	717	0	10000	2	1	0	2	0
113	718	0	10000	2	1	0	2	0
113	719	0	10000	2	1	0	2	0
113	720	0	10000	2	1	0	2	0
114	721	0	10000	2	1	0	2	0
119	722	0	10000	2	1	0	2	0
127	723	0	10000	2	1	0	2	0
132	724	0	10000	2	1	0	2	0
137	725	0	10000	2	1	0	2	0
136	726	0	10000	2	1	0	2	0
131	727	0	10000	2	1	0	2	0
129	728	0	10000	2	1	0	2	0
130	729	0	10000	2	1	0	2	0
133	730	0	10000	2	1	0	2	0
132	731	0	10000	2	1	0	2	0
133	732	0	10000	2	1	0	2	0
131	733	0	10000	2	1	0	2	0
131	734	0	10000	2	1	0	2	0
128	735	0	10000	2	1	0	2	0
124	736	0	10000	2	1	0	2	0
119	737	0	10000	2	1	0	2	0
116	738	0	10000	2	1	0	2	0
116	739	0	10000	2	1	0	2	0
118	740	0	10000	2	1	0	2	0
120	741	0	10000	2	1	0	2	0
119	742	0	10000	2	1	0	2	0
116	743	0	10000	2	1	0	2	0
113	744	0	10000	2	1	0	2	0
112	745	0	10000	2	1	0	2	0
111	746	0	10000	2	1	0	2	0
111	747	0	10000	2	1	0	2	0
109	748	0	10000	2	1	0	2	0
105	749	0	10000	2	1	0	2	0
102	750	0	10000	2	1	0	2	0
99	751	0	10000	2	1	0	2	0
96	752	0	10000	2	1	0	2	0
91	753	0	10000	2	1	0	2	0
87	754	0	10000	2	1	0	2	0
89	755	0	10000	2	1	0	2	0
89	756	0	10000	2	1	0	2	0
90	757	0	10000	2	1	0	2	0
89	758	0	10000	2	1	0	2	0
86	759	0	10000	2	1	0	2	0
81	760	0	10000	2	1	0	2	0
78	761	0	10000	2	1	0	2	0
76	762	0	10000	2	1	0	2	0
75	763	0	10000	2	1	0	2	0
73	764	0	10000	2	1	0	2	0
71	765	0	10000	2	1	0	2	0
69	766	0	10000	2	1	0	2	0
68	767	0	10000	2	1	0	2	0
67	768	0	10000	2	1	0	2	0
69	769	0	10000	2	1	0	2	0
73	770	0	10000	2	1	0	2	0
74	771	0	10000	2	1	0	2	0
73	772	0	10000	2	1	0	2	0
73	773	0	10000	2	1	0	2	0
74	774	0	10000	2	1	0	2	0
75	775	0	10000	2	1	0	2	0
77	776	0	10000	2	1	0	2	0
75	777	0	10000	2	1	0	2	0
77	778	0	10000	2	1	0	2	0
83	779	0	10000	2	1	0	2	0
86	780	0	10000	2	1	0	2	0
86	781	0	10000	2	1	0	2	0
83	782	0	10000	2	1	0	2	0
81	783	0	10000	2	1	0	2	0
77	784	0	10000	2	1	0	2	0
74	785	0	10000	2	1	0	2	0
71	786	0	10000	2	1	0	2	0
68	787	0	10000	2	1	0	2	0
69	788	0	10000	2	1	0	2	0
74	789	0	10000	2	1	0	2	0
74	790	0	10000	2	1	0	2	0
76	791	0	10000	2	1	0	2	0
81	792	0	10000	2	1	0	2	0
87	793	0	10000	2	1	0	2	0
94	794	0	10000	2	1	0	2	0
93	795	0	10000	2	1	0	2	0
90	796	0	10000	2	1	0	2	0
87	797	0	10000	2	1	0	2	0
83	798	0	10000	2	1	0	2	0
81	799	0	10000	2	1	0	2	0
79	800	0	10000	2	1	0	2	0
75	801	0	10000	2	1	0	2	0
72	802	0	10000	2	1	0	2	0
75	803	0	10000	2	1	0	2	0
73	804	0	10000	2	1	0	2	0
73	805	0	10000	2	1	0	2	0
73	806	0	10000	2	1	0	2	0
71	807	0	10000	2	1	0	2	0
69	808	0	10000	2	1	0	2	0
69	809	0	10000	2	1	0	2	0
74	810	0	10000	2	1	0	2	0
75	811	0	10000	2	1	0	2	0
77	812	0	10000	2	1	0	2	0
75	813	0	10000	2	1	0	2	0
73	814	0	10000	2	1	0	2	0
77	815	0	10000	2	1	0	2	0
78	816	0	10000	2	1	0	2	0
77	817	0	10000	2	1	0	2	0
75	818	0	10000	2	1	0	2	0
73	819	0	10000	2	1	0	2	0
69	820	0	10000	2	1	0	2	0
67	821	0	10000	2	1	0	2	0
64	822	0	10000	2	1	0	2	0
63	823	0	10000	2	1	0	2	0
62	824	0	10000	2	1	0	2	0
61	825	0	10000	2	1	0	2	0
58	826	0	10000	2	1	0	2	0
56	827	0	10000	2	1	0	2	0
55	828	0	10000	2	1	0	2	0
56	829	0	10000	2	1	0	2	0
60	830	0	10000	2	1	0	2	0
63	831	0	10000	2	1	0	2	0
66	832	0	10000	2	1	0	2	0
66	833	0	10000	2	1	0	2	0
65	834	0	10000	2	1	0	2	0
68	835	0	10000	2	1	0	2	0
71	836	0	10000	2	1	0	2	0
73	837	0	10000	2	1	0	2	0
75	838	0	10000	2	1	0	2	0
76	839	0	10000	2	1	0	2	0
75	840	0	10000	2	1	0	2	0
72	841	0	10000	2	1	0	2	0
69	842	0	10000	2	1	0	2	0
70	843	0	10000	2	1	0	2	0
68	844	0	10000	2	1	0	2	0
65	845	0	10000	2	1	0	2	0
64	846	0	10000	2	1	0	2	0
66	847	0	10000	2	1	0	2	0
69	848	0	10000	2	1	0	2	0
72	849	0	10000	2	1	0	2	0
71	850	0	10000	2	1	0	2	0
69	851	0	10000	2	1	0	2	0
67	852	0	10000	2	1	0	2	0
65	853	0	10000	2	1	0	2	0
67	854	0	10000	2	1	0	2	0
65	855	0	10000	2	1	0	2	0
63	856	0	10000	2	1	0	2	0
60	857	0	10000	2	1	0	2	0
60	858	0	10000	2	1	0	2	0
58	859	0	10000	2	1	0	2	0
56	860	0	10000	2	1	0	2	0
58	861	0	10000	2	1	0	2	0
58	862	0	10000	2	1	0	2	0
60	863	0	10000	2	1	0	2	0
58	864	0	10000	2	1	0	2	0
58	865	0	10000	2	1	0	2	0
57	866	0	10000	2	1	0	2	0
57	867	0	10000	2	1	0	2	0
55	868	0	10000	2	1	0	2	0
55	869	0	10000	2	1	0	2	0
54	870	0	10000	2	1	0	2	0
55	871	0	10000	2	1	0	2	0
57	872	0	10000	2	1	0	2	0
56	873	0	10000	2	1	0	2	0
55	874	0	10000	2	1	0	2	0
54	875	0	10000	2	1	0	2	0
54	876	0	10000	2	1	0	2	0
51	877	0	10000	2	1	0	2	0
49	878	0	10000	2	1	0	2	0
49	879	0	10000	2	1	0	2	0
48	880	0	10000	2	1	0	2	0
48	881	0	10000	2	1	0	2	0
47	882	0	10000	2	1	0	2	0
47	883	0	10000	2	1	0	2	0
51	884	0	10000	2	1	0	2	0
60	885	0	10000	2	1	0	2	0
65	886	0	10000	2	1	0	2	0
65	887	0	10000	2	1	0	2	0
70	888	0	10000	2	1	0	2	0
77	889	0	10000	2	1	0	2	0
86	890	0	10000	2	1	0	2	0
93	891	0	10000	2	1	0	2	0
94	892	0	10000	2	1	0	2	0
94	893	0	10000	2	1	0	2	0
95	894	0	10000	2	1	0	2	0
95	895	0	10000	2	1	0	2	0
94	896	0	10000	2	1	0	2	0
91	897	0	10000	2	1	0	2	0
90	898	0	10000	2	1	0	2	0
96	899	0	10000	2	1	0	2	0
104	900	0	10000	2	1	0	2	0
103	901	0	10000	2	1	0	2	0
103	902	0	10000	2	1	0	2	0
101	903	0	10000	2	1	0	2	0
99	904	0	10000	2	1	0	2	0
100	905	0	10000	2	1	0	2	0
102	906	0	10000	2	1	0	2	0
101	907	0	10000	2	1	0	2	0
101	908	0	10000	2	1	0	2	0
96	909	0	10000	2	1	0	2	0
93	910	0	10000	2	1	0	2	0
91	911	0	10000	2	1	0	2	0
88	912	0	10000	2	1	0	2	0
84	913	0	10000	2	1	0	2	0
84	914	0	10000	2	1	0	2	0
82	915	0	10000	2	1	0	2	0
85	916	0	10000	2	1	0	2	0
88	917	0	10000	2	1	0	2	0
91	918	0	10000	2	1	0	2	0
90	919	0	10000	2	1	0	2	0
92	920	0	10000	2	1	0	2	0
92	921	0	10000	2	1	0	2	0
93	922	0	10000	2	1	0	2	0
94	923	0	10000	2	1	0	2	0
92	924	0	10000	2	1	0	2	0
98	925	0	10000	2	1	0	2	0
102	926	0	10000	2	1	0	2	0
103	927	0	10000	2	1	0	2	0
112	928	0	10000	2	1	0	2	0
118	929	0	10000	2	1	0	2	0
116	930	0	10000	2	1	0	2	0
117	931	0	10000	2	1	0	2	0
118	932	0	10000	2	1	0	2	0
113	933	0	10000	2	1	0	2	0
115	934	0	10000	2	1	0	2	0
118	935	0	10000	2	1	0	2	0
118	936	0	10000	2	1	0	2	0
114	937	0	10000	2	1	0	2	0
110	938	0	10000	2	1	0	2	0
107	939	0	10000	2	1	0	2	0
106	940	0	10000	2	1	0	2	0
106	941	0	10000	2	1	0	2	0
104	942	0	10000	2	1	0	2	0
109	943	0	10000	2	1	0	2	0
106	944	0	10000	2	1	0	2	0
105	945	0	10000	2	1	0	2	0
105	946	0	10000	2	1	0	2	0
106	947	0	10000	2	1	0	2	0
104	948	0	10000	2	1	0	2	0
101	949	0	10000	2	1	0	2	0
97	950	0	10000	2	1	0	2	0
95	951	0	10000	2	1	0	2	0
97	952	0	10000	2	1	0	2	0
93	953	0	10000	2	1	0	2	0
90	954	0	10000	2	1	0	2	0
90	955	0	10000	2	1	0	2	0
88	956	0	10000	2	1	0	2	0
86	957	0	10000	2	1	0	2	0
88	958	0	10000	2	1	0	2	0
88	959	0	10000	2	1	0	2	0
85	960	0	10000	2	1	0	2	0
88	961	0	10000	2	1	0	2	0
87	962	0	10000	2	1	0	2	0
86	963	0	10000	2	1	0	2	0
85	964	0	10000	2	1	0	2	0
82	965	0	10000	2	1	0	2	0
79	966	0	10000	2	1	0	2	0
76	967	0	10000	2	1	0	2	0
74	968	0	10000	2	1	0	2	0
73	969	0	10000	2	1	0	2	0
72	970	0	10000	2	1	0	2	0
69	971	0	10000	2	1	0	2	0
67	972	0	10000	2	1	0	2	0
64	973	0	10000	2	1	0	2	0
62	974	0	10000	2	1	0	2	0
63	975	0	10000	2	1	0	2	0
65	976	0	10000	2	1	0	2	0
64	977	0	10000	2	1	0	2	0
63	978	0	10000	2	1	0	2	0
65	979	0	10000	2	1	0	2	0
64	980	0	10000	2	1	0	2	0
63	981	0	10000	2	1	0	2	0
62	982	0	10000	2	1	0	2	0
62	983	0	10000	2	1	0	2	0
59	984	0	10000	2	1	0	2	0
57	985	0	10000	2	1	0	2	0
56	986	0	10000	2	1	0	2	0
54	987	0	10000	2	1	0	2	0
52	988	0	10000	2	1	0	2	0
53	989	0	10000	2	1	0	2	0
54	990	0	10000	2	1	0	2	0
53	991	0	10000	2	1	0	2	0
51	992	0	10000	2	1	0	2	0
47	993	0	10000	2	1	0	2	0
46	994	0	10000	2	1	0	2	0
47	995	0	10000	2	1	0	2	0
50	996	0	10000	2	1	0	2	0
51	997	0	10000	2	1	0	2	0
50	998	0	10000	2	1	0	2	0
49	999	0	10000	2	1	0	2	0
47	1000	0	10000	2	1	0	2	0
27	1	7	10000	3	1	0	3	0
27	2	7	10000	3	1	0	3	0
25	3	7	10000	3	1	0	3	0
24	4	7	10000	3	1	0	3	0
24	5	7	10000	3	1	0	3	0
23	6	7	10000	3	1	0	3	0
24	7	7	10000	3	1	0	3	0
25	8	7	10000	3	1	0	3	0
22	9	7	10000	3	1	0	3	0
21	10	7	10000	3	1	0	3	0
21	11	7	10000	3	1	0	3	0
22	12	7	10000	3	1	0	3	0
21	13	7	10000	3	1	0	3	0
21	14	7	10000	3	1	0	3	0
21	15	7	10000	3	1	0	3	0
21	16	7	10000	3	1	0	3	0
20	17	7	10000	3	1	0	3	0
19	18	7	10000	3	1	0	3	0
20	19	7	10000	3	1	0	3	0
20	20	7	10000	3	1	0	3	0
20	21	7	10000	3	1	0	3	0
19	22	7	10000	3	1	0	3	0
20	23	7	10000	3	1	0	3	0
20	24	7	10000	3	1	0	3	0
19	25	7	10000	3	1	0	3	0
20	26	7	10000	3	1	0	3	0
21	27	7	10000	3	1	0	3	0
23	28	7	10000	3	1	0	3	0
21	29	7	10000	3	1	0	3	0
22	30	7	10000	3	1	0	3	0
23	31	7	10000	3	1	0	3	0
23	32	7	10000	3	1	0	3	0
23	33	7	10000	3	1	0	3	0
23	34	7	10000	3	1	0	3	0
22	35	7	10000	3	1	0	3	0
22	36	7	10000	3	1	0	3	0
23	37	7	10000	3	1	0	3	0
23	38	7	10000	3	1	0	3	0
25	39	7	10000	3	1	0	3	0
25	40	7	10000	3	1	0	3	0
25	41	7	10000	3	1	0	3	0
26	42	7	10000	3	1	0	3	0
24	43	7	10000	3	1	0	3	0
24	44	7	10000	3	1	0	3	0
23	45	7	10000	3	1	0	3	0
23	46	7	10000	3	1	0	3	0
22	47	7	10000	3	1	0	3	0
23	48	7	10000	3	1	0	3	0
22	49	7	10000	3	1	0	3	0
21	50	7	10000	3	1	0	3	0
22	51	7	10000	3	1	0	3	0
23	52	7	10000	3	1	0	3	0
22	53	7	10000	3	1	0	3	0
23	54	7	10000	3	1	0	3	0
23	55	7	10000	3	1	0	3	0
24	56	7	10000	3	1	0	3	0
24	57	7	10000	3	1	0	3	0
23	58	7	10000	3	1	0	3	0
25	59	7	10000	3	1	0	3	0
25	60	7	10000	3	1	0	3	0
24	61	7	10000	3	1	0	3	0
25	62	7	10000	3	1	0	3	0
27	73	7	10000	3	1	0	3	0
28	74	7	10000	3	1	0	3	0
30	75	7	10000	3	1	0	3	0
32	76	7	10000	3	1	0	3	0
30	77	7	10000	3	1	0	3	0
30	78	7	10000	3	1	0	3	0
30	79	7	10000	3	1	0	3	0
30	80	7	10000	3	1	0	3	0
32	81	7	10000	3	1	0	3	0
33	82	7	10000	3	1	0	3	0
32	83	7	10000	3	1	0	3	0
31	84	7	10000	3	1	0	3	0
32	81	7	10000	3	1	0	3	0
30	82	7	10000	3	1	0	3	0
30	83	7	10000	3	1	0	3	0
29	84	7	10000	3	1	0	3	0
29	85	7	10000	3	1	0	3	0
28	86	7	10000	3	1	0	3	0
28	87	7	10000	3	1	0	3	0
28	88	7	10000	3	1	0	3	0
28	92	7	10000	3	1	0	3	0
27	93	7	10000	3	1	0	3	0
26	94	7	10000	3	1	0	3	0
25	95	7	10000	3	1	0	3	0
25	96	7	10000	3	1	0	3	0
26	97	7	10000	3	1	0	3	0
24	98	7	10000	3	1	0	3	0
23	99	7	10000	3	1	0	3	0
23	100	7	10000	3	1	0	3	0
22	101	7	10000	3	1	0	3	0
21	98	7	10000	3	1	0	3	0
22	99	7	10000	3	1	0	3	0
22	100	7	10000	3	1	0	3	0
23	101	7	10000	3	1	0	3	0
23	102	7	10000	3	1	0	3	0
23	103	7	10000	3	1	0	3	0
24	102	7	10000	3	1	0	3	0
23	103	7	10000	3	1	0	3	0
24	104	7	10000	3	1	0	3	0
26	105	7	10000	3	1	0	3	0
26	106	7	10000	3	1	0	3	0
26	107	7	10000	3	1	0	3	0
28	109	7	10000	3	1	0	3	0
31	110	7	10000	3	1	0	3	0
34	111	7	10000	3	1	0	3	0
35	112	7	10000	3	1	0	3	0
35	113	7	10000	3	1	0	3	0
33	114	7	10000	3	1	0	3	0
34	113	7	10000	3	1	0	3	0
34	114	7	10000	3	1	0	3	0
32	115	7	10000	3	1	0	3	0
32	116	7	10000	3	1	0	3	0
33	119	7	10000	3	1	0	3	0
32	120	7	10000	3	1	0	3	0
31	121	7	10000	3	1	0	3	0
31	122	7	10000	3	1	0	3	0
33	123	7	10000	3	1	0	3	0
32	124	7	10000	3	1	0	3	0
31	125	7	10000	3	1	0	3	0
30	126	7	10000	3	1	0	3	0
29	127	7	10000	3	1	0	3	0
29	128	7	10000	3	1	0	3	0
28	129	7	10000	3	1	0	3	0
28	130	7	10000	3	1	0	3	0
26	130	7	10000	3	1	0	3	0
26	131	7	10000	3	1	0	3	0
23	132	7	10000	3	1	0	3	0
22	133	7	10000	3	1	0	3	0
21	136	7	10000	3	1	0	3	0
22	137	7	10000	3	1	0	3	0
26	138	7	10000	3	1	0	3	0
28	139	7	10000	3	1	0	3	0
28	140	7	10000	3	1	0	3	0
27	141	7	10000	3	1	0	3	0
27	142	7	10000	3	1	0	3	0
28	143	7	10000	3	1	0	3	0
31	141	7	10000	3	1	0	3	0
31	142	7	10000	3	1	0	3	0
31	143	7	10000	3	1	0	3	0
31	144	7	10000	3	1	0	3	0
30	148	7	10000	3	1	0	3	0
29	149	7	10000	3	1	0	3	0
28	150	7	10000	3	1	0	3	0
27	151	7	10000	3	1	0	3	0
26	152	7	10000	3	1	0	3	0
26	153	7	10000	3	1	0	3	0
25	154	7	10000	3	1	0	3	0
28	155	7	10000	3	1	0	3	0
28	153	7	10000	3	1	0	3	0
27	154	7	10000	3	1	0	3	0
26	155	7	10000	3	1	0	3	0
26	156	7	10000	3	1	0	3	0
28	158	7	10000	3	1	0	3	0
27	159	7	10000	3	1	0	3	0
26	160	7	10000	3	1	0	3	0
26	161	7	10000	3	1	0	3	0
29	163	7	10000	3	1	0	3	0
28	164	7	10000	3	1	0	3	0
28	165	7	10000	3	1	0	3	0
28	166	7	10000	3	1	0	3	0
30	167	7	10000	3	1	0	3	0
30	168	7	10000	3	1	0	3	0
30	171	7	10000	3	1	0	3	0
29	172	7	10000	3	1	0	3	0
31	173	7	10000	3	1	0	3	0
31	174	7	10000	3	1	0	3	0
29	175	7	10000	3	1	0	3	0
28	176	7	10000	3	1	0	3	0
28	177	7	10000	3	1	0	3	0
28	178	7	10000	3	1	0	3	0
28	176	7	10000	3	1	0	3	0
28	177	7	10000	3	1	0	3	0
27	178	7	10000	3	1	0	3	0
26	179	7	10000	3	1	0	3	0
26	180	7	10000	3	1	0	3	0
27	181	7	10000	3	1	0	3	0
28	181	7	10000	3	1	0	3	0
27	182	7	10000	3	1	0	3	0
25	183	7	10000	3	1	0	3	0
24	184	7	10000	3	1	0	3	0
25	187	7	10000	3	1	0	3	0
24	188	7	10000	3	1	0	3	0
24	189	7	10000	3	1	0	3	0
25	190	7	10000	3	1	0	3	0
24	191	7	10000	3	1	0	3	0
24	192	7	10000	3	1	0	3	0
22	192	7	10000	3	1	0	3	0
21	193	7	10000	3	1	0	3	0
22	194	7	10000	3	1	0	3	0
22	195	7	10000	3	1	0	3	0
22	198	7	10000	3	1	0	3	0
21	199	7	10000	3	1	0	3	0
22	200	7	10000	3	1	0	3	0
21	201	7	10000	3	1	0	3	0
20	202	7	10000	3	1	0	3	0
19	203	7	10000	3	1	0	3	0
20	202	7	10000	3	1	0	3	0
20	203	7	10000	3	1	0	3	0
19	204	7	10000	3	1	0	3	0
20	205	7	10000	3	1	0	3	0
23	206	7	10000	3	1	0	3	0
26	207	7	10000	3	1	0	3	0
27	205	7	10000	3	1	0	3	0
28	206	7	10000	3	1	0	3	0
28	207	7	10000	3	1	0	3	0
31	208	7	10000	3	1	0	3	0
32	209	7	10000	3	1	0	3	0
33	210	7	10000	3	1	0	3	0
33	211	7	10000	3	1	0	3	0
35	212	7	10000	3	1	0	3	0
34	213	7	10000	3	1	0	3	0
33	214	7	10000	3	1	0	3	0
32	215	7	10000	3	1	0	3	0
31	216	7	10000	3	1	0	3	0
32	217	7	10000	3	1	0	3	0
33	218	7	10000	3	1	0	3	0
33	219	7	10000	3	1	0	3	0
32	220	7	10000	3	1	0	3	0
32	221	7	10000	3	1	0	3	0
31	222	7	10000	3	1	0	3	0
29	223	7	10000	3	1	0	3	0
29	224	7	10000	3	1	0	3	0
29	225	7	10000	3	1	0	3	0
28	226	7	10000	3	1	0	3	0
28	227	7	10000	3	1	0	3	0
30	228	7	10000	3	1	0	3	0
28	229	7	10000	3	1	0	3	0
28	230	7	10000	3	1	0	3	0
28	231	7	10000	3	1	0	3	0
27	232	7	10000	3	1	0	3	0
27	233	7	10000	3	1	0	3	0
28	234	7	10000	3	1	0	3	0
27	235	7	10000	3	1	0	3	0
27	236	7	10000	3	1	0	3	0
28	237	7	10000	3	1	0	3	0
27	238	7	10000	3	1	0	3	0
28	239	7	10000	3	1	0	3	0
28	240	7	10000	3	1	0	3	0
29	241	7	10000	3	1	0	3	0
29	242	7	10000	3	1	0	3	0
29	243	7	10000	3	1	0	3	0
29	244	7	10000	3	1	0	3	0
29	245	7	10000	3	1	0	3	0
32	246	7	10000	3	1	0	3	0
35	247	7	10000	3	1	0	3	0
35	248	7	10000	3	1	0	3	0
32	249	7	10000	3	1	0	3	0
32	250	7	10000	3	1	0	3	0
32	251	7	10000	3	1	0	3	0
32	252	7	10000	3	1	0	3	0
32	253	7	10000	3	1	0	3	0
31	254	7	10000	3	1	0	3	0
32	255	7	10000	3	1	0	3	0
32	256	7	10000	3	1	0	3	0
30	257	7	10000	3	1	0	3	0
30	258	7	10000	3	1	0	3	0
35	259	7	10000	3	1	0	3	0
44	260	7	10000	3	1	0	3	0
49	261	7	10000	3	1	0	3	0
48	262	7	10000	3	1	0	3	0
48	263	7	10000	3	1	0	3	0
48	264	7	10000	3	1	0	3	0
50	265	7	10000	3	1	0	3	0
53	266	7	10000	3	1	0	3	0
53	267	7	10000	3	1	0	3	0
52	268	7	10000	3	1	0	3	0
50	269	7	10000	3	1	0	3	0
55	270	7	10000	3	1	0	3	0
61	271	7	10000	3	1	0	3	0
61	272	7	10000	3	1	0	3	0
62	273	7	10000	3	1	0	3	0
59	274	7	10000	3	1	0	3	0
60	275	7	10000	3	1	0	3	0
66	276	7	10000	3	1	0	3	0
75	277	7	10000	3	1	0	3	0
86	278	7	10000	3	1	0	3	0
91	279	7	10000	3	1	0	3	0
100	280	7	10000	3	1	0	3	0
113	281	7	10000	3	1	0	3	0
126	282	7	10000	3	1	0	3	0
136	283	7	10000	3	1	0	3	0
142	284	7	10000	3	1	0	3	0
140	285	7	10000	3	1	0	3	0
145	286	7	10000	3	1	0	3	0
171	287	7	10000	3	1	0	3	0
186	288	7	10000	3	1	0	3	0
187	289	7	10000	3	1	0	3	0
192	290	7	10000	3	1	0	3	0
194	291	7	10000	3	1	0	3	0
195	292	7	10000	3	1	0	3	0
190	293	7	10000	3	1	0	3	0
189	294	7	10000	3	1	0	3	0
182	295	7	10000	3	1	0	3	0
175	296	7	10000	3	1	0	3	0
176	297	7	10000	3	1	0	3	0
181	298	7	10000	3	1	0	3	0
183	299	7	10000	3	1	0	3	0
177	300	7	10000	3	1	0	3	0
171	301	7	10000	3	1	0	3	0
171	302	7	10000	3	1	0	3	0
190	303	7	10000	3	1	0	3	0
196	304	7	10000	3	1	0	3	0
194	305	7	10000	3	1	0	3	0
190	306	7	10000	3	1	0	3	0
185	307	7	10000	3	1	0	3	0
182	308	7	10000	3	1	0	3	0
175	309	7	10000	3	1	0	3	0
169	310	7	10000	3	1	0	3	0
165	311	7	10000	3	1	0	3	0
162	312	7	10000	3	1	0	3	0
158	313	7	10000	3	1	0	3	0
159	314	7	10000	3	1	0	3	0
153	315	7	10000	3	1	0	3	0
150	316	7	10000	3	1	0	3	0
147	317	7	10000	3	1	0	3	0
140	318	7	10000	3	1	0	3	0
136	319	7	10000	3	1	0	3	0
131	320	7	10000	3	1	0	3	0
131	321	7	10000	3	1	0	3	0
142	322	7	10000	3	1	0	3	0
140	323	7	10000	3	1	0	3	0
143	324	7	10000	3	1	0	3	0
150	325	7	10000	3	1	0	3	0
155	326	7	10000	3	1	0	3	0
158	327	7	10000	3	1	0	3	0
161	328	7	10000	3	1	0	3	0
155	329	7	10000	3	1	0	3	0
156	330	7	10000	3	1	0	3	0
162	331	7	10000	3	1	0	3	0
164	332	7	10000	3	1	0	3	0
161	333	7	10000	3	1	0	3	0
157	334	7	10000	3	1	0	3	0
152	335	7	10000	3	1	0	3	0
147	336	7	10000	3	1	0	3	0
141	337	7	10000	3	1	0	3	0
137	338	7	10000	3	1	0	3	0
139	339	7	10000	3	1	0	3	0
139	340	7	10000	3	1	0	3	0
139	341	7	10000	3	1	0	3	0
142	342	7	10000	3	1	0	3	0
142	343	7	10000	3	1	0	3	0
140	344	7	10000	3	1	0	3	0
136	345	7	10000	3	1	0	3	0
132	346	7	10000	3	1	0	3	0
126	347	7	10000	3	1	0	3	0
122	348	7	10000	3	1	0	3	0
119	349	7	10000	3	1	0	3	0
114	350	7	10000	3	1	0	3	0
111	351	7	10000	3	1	0	3	0
107	352	7	10000	3	1	0	3	0
103	353	7	10000	3	1	0	3	0
101	354	7	10000	3	1	0	3	0
98	355	7	10000	3	1	0	3	0
97	356	7	10000	3	1	0	3	0
100	357	7	10000	3	1	0	3	0
102	358	7	10000	3	1	0	3	0
100	359	7	10000	3	1	0	3	0
98	360	7	10000	3	1	0	3	0
99	361	7	10000	3	1	0	3	0
99	362	7	10000	3	1	0	3	0
99	363	7	10000	3	1	0	3	0
95	364	7	10000	3	1	0	3	0
96	365	7	10000	3	1	0	3	0
98	366	7	10000	3	1	0	3	0
97	367	7	10000	3	1	0	3	0
97	368	7	10000	3	1	0	3	0
94	369	7	10000	3	1	0	3	0
90	370	7	10000	3	1	0	3	0
88	371	7	10000	3	1	0	3	0
84	372	7	10000	3	1	0	3	0
82	373	7	10000	3	1	0	3	0
80	374	7	10000	3	1	0	3	0
78	375	7	10000	3	1	0	3	0
74	376	7	10000	3	1	0	3	0
73	377	7	10000	3	1	0	3	0
76	378	7	10000	3	1	0	3	0
81	379	7	10000	3	1	0	3	0
83	380	7	10000	3	1	0	3	0
79	381	7	10000	3	1	0	3	0
76	382	7	10000	3	1	0	3	0
76	383	7	10000	3	1	0	3	0
74	384	7	10000	3	1	0	3	0
71	385	7	10000	3	1	0	3	0
69	386	7	10000	3	1	0	3	0
67	387	7	10000	3	1	0	3	0
69	388	7	10000	3	1	0	3	0
72	389	7	10000	3	1	0	3	0
73	390	7	10000	3	1	0	3	0
72	391	7	10000	3	1	0	3	0
70	392	7	10000	3	1	0	3	0
67	393	7	10000	3	1	0	3	0
67	394	7	10000	3	1	0	3	0
66	395	7	10000	3	1	0	3	0
63	396	7	10000	3	1	0	3	0
61	397	7	10000	3	1	0	3	0
57	398	7	10000	3	1	0	3	0
56	399	7	10000	3	1	0	3	0
55	400	7	10000	3	1	0	3	0
54	401	7	10000	3	1	0	3	0
51	402	7	10000	3	1	0	3	0
49	403	7	10000	3	1	0	3	0
49	404	7	10000	3	1	0	3	0
48	405	7	10000	3	1	0	3	0
47	406	7	10000	3	1	0	3	0
46	407	7	10000	3	1	0	3	0
45	408	7	10000	3	1	0	3	0
41	409	7	10000	3	1	0	3	0
41	410	7	10000	3	1	0	3	0
40	411	7	10000	3	1	0	3	0
41	412	7	10000	3	1	0	3	0
41	413	7	10000	3	1	0	3	0
40	414	7	10000	3	1	0	3	0
41	415	7	10000	3	1	0	3	0
40	416	7	10000	3	1	0	3	0
37	417	7	10000	3	1	0	3	0
36	418	7	10000	3	1	0	3	0
37	419	7	10000	3	1	0	3	0
37	420	7	10000	3	1	0	3	0
38	421	7	10000	3	1	0	3	0
39	422	7	10000	3	1	0	3	0
37	423	7	10000	3	1	0	3	0
35	424	7	10000	3	1	0	3	0
34	425	7	10000	3	1	0	3	0
34	426	7	10000	3	1	0	3	0
33	427	7	10000	3	1	0	3	0
34	428	7	10000	3	1	0	3	0
34	429	7	10000	3	1	0	3	0
33	430	7	10000	3	1	0	3	0
32	431	7	10000	3	1	0	3	0
31	432	7	10000	3	1	0	3	0
30	433	7	10000	3	1	0	3	0
30	434	7	10000	3	1	0	3	0
30	435	7	10000	3	1	0	3	0
29	436	7	10000	3	1	0	3	0
28	437	7	10000	3	1	0	3	0
28	438	7	10000	3	1	0	3	0
30	439	7	10000	3	1	0	3	0
32	440	7	10000	3	1	0	3	0
32	441	7	10000	3	1	0	3	0
32	442	7	10000	3	1	0	3	0
32	443	7	10000	3	1	0	3	0
32	444	7	10000	3	1	0	3	0
32	445	7	10000	3	1	0	3	0
32	446	7	10000	3	1	0	3	0
32	447	7	10000	3	1	0	3	0
32	448	7	10000	3	1	0	3	0
30	449	7	10000	3	1	0	3	0
28	450	7	10000	3	1	0	3	0
28	451	7	10000	3	1	0	3	0
26	452	7	10000	3	1	0	3	0
26	453	7	10000	3	1	0	3	0
27	454	7	10000	3	1	0	3	0
26	455	7	10000	3	1	0	3	0
27	456	7	10000	3	1	0	3	0
26	457	7	10000	3	1	0	3	0
25	458	7	10000	3	1	0	3	0
26	459	7	10000	3	1	0	3	0
26	460	7	10000	3	1	0	3	0
24	461	7	10000	3	1	0	3	0
24	462	7	10000	3	1	0	3	0
23	463	7	10000	3	1	0	3	0
23	464	7	10000	3	1	0	3	0
25	465	7	10000	3	1	0	3	0
25	466	7	10000	3	1	0	3	0
25	467	7	10000	3	1	0	3	0
25	468	7	10000	3	1	0	3	0
23	469	7	10000	3	1	0	3	0
21	470	7	10000	3	1	0	3	0
22	471	7	10000	3	1	0	3	0
22	472	7	10000	3	1	0	3	0
21	473	7	10000	3	1	0	3	0
21	474	7	10000	3	1	0	3	0
20	475	7	10000	3	1	0	3	0
19	476	7	10000	3	1	0	3	0
20	477	7	10000	3	1	0	3	0
18	478	7	10000	3	1	0	3	0
19	479	7	10000	3	1	0	3	0
20	480	7	10000	3	1	0	3	0
18	481	7	10000	3	1	0	3	0
18	482	7	10000	3	1	0	3	0
17	483	7	10000	3	1	0	3	0
17	484	7	10000	3	1	0	3	0
16	485	7	10000	3	1	0	3	0
17	486	7	10000	3	1	0	3	0
17	487	7	10000	3	1	0	3	0
17	488	7	10000	3	1	0	3	0
16	489	7	10000	3	1	0	3	0
18	490	7	10000	3	1	0	3	0
18	491	7	10000	3	1	0	3	0
18	492	7	10000	3	1	0	3	0
18	493	7	10000	3	1	0	3	0
20	494	7	10000	3	1	0	3	0
22	495	7	10000	3	1	0	3	0
23	496	7	10000	3	1	0	3	0
24	497	7	10000	3	1	0	3	0
27	498	7	10000	3	1	0	3	0
27	499	7	10000	3	1	0	3	0
27	500	7	10000	3	1	0	3	0
27	501	7	10000	3	1	0	3	1
26	502	7	10000	3	1	0	3	1
25	503	7	10000	3	1	0	3	1
26	504	7	10000	3	1	0	3	1
24	505	7	10000	3	1	0	3	1
25	506	7	10000	3	1	0	3	1
27	507	7	10000	3	1	0	3	1
27	508	7	10000	3	1	0	3	1
25	509	7	10000	3	1	0	3	1
24	510	7	10000	3	1	0	3	1
24	511	7	10000	3	1	0	3	1
23	512	7	10000	3	1	0	3	1
24	513	7	10000	3	1	0	3	1
23	514	7	10000	3	1	0	3	1
22	515	7	10000	3	1	0	3	1
21	516	7	10000	3	1	0	3	1
21	517	7	10000	3	1	0	3	1
20	518	7	10000	3	1	0	3	1
21	519	7	10000	3	1	0	3	1
22	520	7	10000	3	1	0	3	1
22	521	7	10000	3	1	0	3	1
22	522	7	10000	3	1	0	3	1
21	523	7	10000	3	1	0	3	1
20	524	7	10000	3	1	0	3	1
19	525	7	10000	3	1	0	3	1
19	526	7	10000	3	1	0	3	1
19	527	7	10000	3	1	0	3	1
19	528	7	10000	3	1	0	3	1
17	529	7	10000	3	1	0	3	1
17	530	7	10000	3	1	0	3	1
18	531	7	10000	3	1	0	3	1
18	532	7	10000	3	1	0	3	1
18	533	7	10000	3	1	0	3	1
17	534	7	10000	3	1	0	3	1
18	535	7	10000	3	1	0	3	1
19	536	7	10000	3	1	0	3	1
19	537	7	10000	3	1	0	3	1
18	538	7	10000	3	1	0	3	1
19	539	7	10000	3	1	0	3	1
19	540	7	10000	3	1	0	3	1
19	541	7	10000	3	1	0	3	1
20	542	7	10000	3	1	0	3	1
21	543	7	10000	3	1	0	3	1
21	544	7	10000	3	1	0	3	1
21	545	7	10000	3	1	0	3	1
21	546	7	10000	3	1	0	3	1
22	547	7	10000	3	1	0	3	1
22	548	7	10000	3	1	0	3	1
21	549	7	10000	3	1	0	3	1
22	550	7	10000	3	1	0	3	1
23	551	7	10000	3	1	0	3	0
24	552	7	10000	3	1	0	3	0
25	553	7	10000	3	1	0	3	0
24	554	7	10000	3	1	0	3	0
23	555	7	10000	3	1	0	3	0
23	556	7	10000	3	1	0	3	0
21	557	7	10000	3	1	0	3	0
20	558	7	10000	3	1	0	3	0
22	559	7	10000	3	1	0	3	0
21	560	7	10000	3	1	0	3	0
22	561	7	10000	3	1	0	3	0
22	562	7	10000	3	1	0	3	0
21	563	7	10000	3	1	0	3	0
21	564	7	10000	3	1	0	3	0
20	565	7	10000	3	1	0	3	0
20	566	7	10000	3	1	0	3	0
20	567	7	10000	3	1	0	3	0
19	568	7	10000	3	1	0	3	0
18	569	7	10000	3	1	0	3	0
19	570	7	10000	3	1	0	3	0
21	571	7	10000	3	1	0	3	0
21	572	7	10000	3	1	0	3	0
21	573	7	10000	3	1	0	3	0
23	574	7	10000	3	1	0	3	0
23	575	7	10000	3	1	0	3	0
24	576	7	10000	3	1	0	3	0
23	577	7	10000	3	1	0	3	0
22	578	7	10000	3	1	0	3	0
23	579	7	10000	3	1	0	3	0
23	580	7	10000	3	1	0	3	0
23	581	7	10000	3	1	0	3	0
21	582	7	10000	3	1	0	3	0
20	583	7	10000	3	1	0	3	0
20	584	7	10000	3	1	0	3	0
23	585	7	10000	3	1	0	3	0
24	586	7	10000	3	1	0	3	0
26	587	7	10000	3	1	0	3	0
27	588	7	10000	3	1	0	3	0
30	589	7	10000	3	1	0	3	0
33	590	7	10000	3	1	0	3	0
41	591	7	10000	3	1	0	3	0
59	592	7	10000	3	1	0	3	0
99	593	7	10000	3	1	0	3	0
126	594	7	10000	3	1	0	3	0
123	595	7	10000	3	1	0	3	0
128	596	7	10000	3	1	0	3	0
147	597	7	10000	3	1	0	3	0
169	598	7	10000	3	1	0	3	0
204	599	7	10000	3	1	0	3	0
226	600	7	10000	3	1	0	3	0
255	601	7	10000	3	1	0	3	0
267	602	7	10000	3	1	0	3	0
284	603	7	10000	3	1	0	3	0
284	604	7	10000	3	1	0	3	0
331	605	7	10000	3	1	0	3	0
384	606	7	10000	3	1	0	3	0
401	607	7	10000	3	1	0	3	0
399	608	7	10000	3	1	0	3	0
442	609	7	10000	3	1	0	3	0
449	610	7	10000	3	1	0	3	0
455	611	7	10000	3	1	0	3	0
491	612	7	10000	3	1	0	3	0
514	613	7	10000	3	1	0	3	0
514	614	7	10000	3	1	0	3	0
511	615	7	10000	3	1	0	3	0
538	616	7	10000	3	1	0	3	0
533	617	7	10000	3	1	0	3	0
559	618	7	10000	3	1	0	3	0
670	619	7	10000	3	1	0	3	0
693	620	7	10000	3	1	0	3	0
724	621	7	10000	3	1	0	3	0
777	622	7	10000	3	1	0	3	0
788	623	7	10000	3	1	0	3	0
815	624	7	10000	3	1	0	3	0
892	625	7	10000	3	1	0	3	0
975	626	7	10000	3	1	0	3	0
1033	627	7	10000	3	1	0	3	0
1065	628	7	10000	3	1	0	3	0
1068	629	7	10000	3	1	0	3	0
1044	630	7	10000	3	1	0	3	0
1003	631	7	10000	3	1	0	3	0
965	632	7	10000	3	1	0	3	0
921	633	7	10000	3	1	0	3	0
882	634	7	10000	3	1	0	3	0
850	635	7	10000	3	1	0	3	0
813	636	7	10000	3	1	0	3	0
781	637	7	10000	3	1	0	3	0
759	638	7	10000	3	1	0	3	0
743	639	7	10000	3	1	0	3	0
733	640	7	10000	3	1	0	3	0
724	641	7	10000	3	1	0	3	0
716	642	7	10000	3	1	0	3	0
711	643	7	10000	3	1	0	3	0
712	644	7	10000	3	1	0	3	0
713	645	7	10000	3	1	0	3	0
710	646	7	10000	3	1	0	3	0
704	647	7	10000	3	1	0	3	0
692	648	7	10000	3	1	0	3	0
673	649	7	10000	3	1	0	3	0
654	650	7	10000	3	1	0	3	0
635	651	7	10000	3	1	0	3	0
616	652	7	10000	3	1	0	3	0
599	653	7	10000	3	1	0	3	0
581	654	7	10000	3	1	0	3	0
561	655	7	10000	3	1	0	3	0
540	656	7	10000	3	1	0	3	0
516	657	7	10000	3	1	0	3	0
493	658	7	10000	3	1	0	3	0
474	659	7	10000	3	1	0	3	0
455	660	7	10000	3	1	0	3	0
434	661	7	10000	3	1	0	3	0
416	662	7	10000	3	1	0	3	0
399	663	7	10000	3	1	0	3	0
384	664	7	10000	3	1	0	3	0
370	665	7	10000	3	1	0	3	0
358	666	7	10000	3	1	0	3	0
345	667	7	10000	3	1	0	3	0
332	668	7	10000	3	1	0	3	0
318	669	7	10000	3	1	0	3	0
308	670	7	10000	3	1	0	3	0
304	671	7	10000	3	1	0	3	0
300	672	7	10000	3	1	0	3	0
298	673	7	10000	3	1	0	3	0
298	674	7	10000	3	1	0	3	0
299	675	7	10000	3	1	0	3	0
305	676	7	10000	3	1	0	3	0
311	677	7	10000	3	1	0	3	0
317	678	7	10000	3	1	0	3	0
320	679	7	10000	3	1	0	3	0
319	680	7	10000	3	1	0	3	0
314	681	7	10000	3	1	0	3	0
305	682	7	10000	3	1	0	3	0
297	683	7	10000	3	1	0	3	0
293	684	7	10000	3	1	0	3	0
287	685	7	10000	3	1	0	3	0
279	686	7	10000	3	1	0	3	0
271	687	7	10000	3	1	0	3	0
262	688	7	10000	3	1	0	3	0
254	689	7	10000	3	1	0	3	0
248	690	7	10000	3	1	0	3	0
241	691	7	10000	3	1	0	3	0
236	692	7	10000	3	1	0	3	0
232	693	7	10000	3	1	0	3	0
226	694	7	10000	3	1	0	3	0
222	695	7	10000	3	1	0	3	0
216	696	7	10000	3	1	0	3	0
207	697	7	10000	3	1	0	3	0
198	698	7	10000	3	1	0	3	0
194	699	7	10000	3	1	0	3	0
190	700	7	10000	3	1	0	3	0
188	701	7	10000	3	1	0	3	0
186	702	7	10000	3	1	0	3	0
185	703	7	10000	3	1	0	3	0
185	704	7	10000	3	1	0	3	0
189	705	7	10000	3	1	0	3	0
196	706	7	10000	3	1	0	3	0
204	707	7	10000	3	1	0	3	0
212	708	7	10000	3	1	0	3	0
217	709	7	10000	3	1	0	3	0
221	710	7	10000	3	1	0	3	0
223	711	7	10000	3	1	0	3	0
222	712	7	10000	3	1	0	3	0
218	713	7	10000	3	1	0	3	0
212	714	7	10000	3	1	0	3	0
207	715	7	10000	3	1	0	3	0
202	716	7	10000	3	1	0	3	0
197	717	7	10000	3	1	0	3	0
194	718	7	10000	3	1	0	3	0
193	719	7	10000	3	1	0	3	0
194	720	7	10000	3	1	0	3	0
194	721	7	10000	3	1	0	3	0
195	722	7	10000	3	1	0	3	0
197	723	7	10000	3	1	0	3	0
201	724	7	10000	3	1	0	3	0
205	725	7	10000	3	1	0	3	0
209	726	7	10000	3	1	0	3	0
210	727	7	10000	3	1	0	3	0
210	728	7	10000	3	1	0	3	0
210	729	7	10000	3	1	0	3	0
206	730	7	10000	3	1	0	3	0
201	731	7	10000	3	1	0	3	0
196	732	7	10000	3	1	0	3	0
190	733	7	10000	3	1	0	3	0
184	734	7	10000	3	1	0	3	0
177	735	7	10000	3	1	0	3	0
169	736	7	10000	3	1	0	3	0
163	737	7	10000	3	1	0	3	0
156	738	7	10000	3	1	0	3	0
150	739	7	10000	3	1	0	3	0
145	740	7	10000	3	1	0	3	0
140	741	7	10000	3	1	0	3	0
138	742	7	10000	3	1	0	3	0
137	743	7	10000	3	1	0	3	0
137	744	7	10000	3	1	0	3	0
138	745	7	10000	3	1	0	3	0
140	746	7	10000	3	1	0	3	0
140	747	7	10000	3	1	0	3	0
138	748	7	10000	3	1	0	3	0
133	749	7	10000	3	1	0	3	0
127	750	7	10000	3	1	0	3	0
122	751	7	10000	3	1	0	3	0
117	752	7	10000	3	1	0	3	0
115	753	7	10000	3	1	0	3	0
114	754	7	10000	3	1	0	3	0
115	755	7	10000	3	1	0	3	0
116	756	7	10000	3	1	0	3	0
117	757	7	10000	3	1	0	3	0
115	758	7	10000	3	1	0	3	0
114	759	7	10000	3	1	0	3	0
113	760	7	10000	3	1	0	3	0
108	761	7	10000	3	1	0	3	0
105	762	7	10000	3	1	0	3	0
102	763	7	10000	3	1	0	3	0
100	764	7	10000	3	1	0	3	0
98	765	7	10000	3	1	0	3	0
96	766	7	10000	3	1	0	3	0
93	767	7	10000	3	1	0	3	0
90	768	7	10000	3	1	0	3	0
86	769	7	10000	3	1	0	3	0
81	770	7	10000	3	1	0	3	0
78	771	7	10000	3	1	0	3	0
78	772	7	10000	3	1	0	3	0
80	773	7	10000	3	1	0	3	0
82	774	7	10000	3	1	0	3	0
86	775	7	10000	3	1	0	3	0
91	776	7	10000	3	1	0	3	0
94	777	7	10000	3	1	0	3	0
94	778	7	10000	3	1	0	3	0
95	779	7	10000	3	1	0	3	0
96	780	7	10000	3	1	0	3	0
93	781	7	10000	3	1	0	3	0
90	782	7	10000	3	1	0	3	0
86	783	7	10000	3	1	0	3	0
85	784	7	10000	3	1	0	3	0
86	785	7	10000	3	1	0	3	0
85	786	7	10000	3	1	0	3	0
85	787	7	10000	3	1	0	3	0
85	788	7	10000	3	1	0	3	0
82	789	7	10000	3	1	0	3	0
78	790	7	10000	3	1	0	3	0
76	791	7	10000	3	1	0	3	0
77	792	7	10000	3	1	0	3	0
80	793	7	10000	3	1	0	3	0
85	794	7	10000	3	1	0	3	0
87	795	7	10000	3	1	0	3	0
90	796	7	10000	3	1	0	3	0
92	797	7	10000	3	1	0	3	0
93	798	7	10000	3	1	0	3	0
93	799	7	10000	3	1	0	3	0
92	800	7	10000	3	1	0	3	0
89	801	7	10000	3	1	0	3	0
88	802	7	10000	3	1	0	3	0
86	803	7	10000	3	1	0	3	0
82	804	7	10000	3	1	0	3	0
79	805	7	10000	3	1	0	3	0
77	806	7	10000	3	1	0	3	0
75	807	7	10000	3	1	0	3	0
72	808	7	10000	3	1	0	3	0
70	809	7	10000	3	1	0	3	0
66	810	7	10000	3	1	0	3	0
65	811	7	10000	3	1	0	3	0
65	812	7	10000	3	1	0	3	0
66	813	7	10000	3	1	0	3	0
69	814	7	10000	3	1	0	3	0
70	815	7	10000	3	1	0	3	0
71	816	7	10000	3	1	0	3	0
71	817	7	10000	3	1	0	3	0
73	818	7	10000	3	1	0	3	0
75	819	7	10000	3	1	0	3	0
75	820	7	10000	3	1	0	3	0
72	821	7	10000	3	1	0	3	0
69	822	7	10000	3	1	0	3	0
66	823	7	10000	3	1	0	3	0
64	824	7	10000	3	1	0	3	0
64	825	7	10000	3	1	0	3	0
64	826	7	10000	3	1	0	3	0
67	827	7	10000	3	1	0	3	0
67	828	7	10000	3	1	0	3	0
64	829	7	10000	3	1	0	3	0
62	830	7	10000	3	1	0	3	0
62	831	7	10000	3	1	0	3	0
64	832	7	10000	3	1	0	3	0
66	833	7	10000	3	1	0	3	0
66	834	7	10000	3	1	0	3	0
67	835	7	10000	3	1	0	3	0
68	836	7	10000	3	1	0	3	0
67	837	7	10000	3	1	0	3	0
66	838	7	10000	3	1	0	3	0
66	839	7	10000	3	1	0	3	0
65	840	7	10000	3	1	0	3	0
62	841	7	10000	3	1	0	3	0
61	842	7	10000	3	1	0	3	0
58	843	7	10000	3	1	0	3	0
58	844	7	10000	3	1	0	3	0
57	845	7	10000	3	1	0	3	0
57	846	7	10000	3	1	0	3	0
58	847	7	10000	3	1	0	3	0
58	848	7	10000	3	1	0	3	0
57	849	7	10000	3	1	0	3	0
55	850	7	10000	3	1	0	3	0
53	851	7	10000	3	1	0	3	0
52	852	7	10000	3	1	0	3	0
53	853	7	10000	3	1	0	3	0
56	854	7	10000	3	1	0	3	0
59	855	7	10000	3	1	0	3	0
61	856	7	10000	3	1	0	3	0
60	857	7	10000	3	1	0	3	0
60	858	7	10000	3	1	0	3	0
60	859	7	10000	3	1	0	3	0
59	860	7	10000	3	1	0	3	0
58	861	7	10000	3	1	0	3	0
57	862	7	10000	3	1	0	3	0
57	863	7	10000	3	1	0	3	0
59	864	7	10000	3	1	0	3	0
60	865	7	10000	3	1	0	3	0
62	866	7	10000	3	1	0	3	0
63	867	7	10000	3	1	0	3	0
62	868	7	10000	3	1	0	3	0
58	869	7	10000	3	1	0	3	0
56	870	7	10000	3	1	0	3	0
57	871	7	10000	3	1	0	3	0
58	872	7	10000	3	1	0	3	0
58	873	7	10000	3	1	0	3	0
57	874	7	10000	3	1	0	3	0
56	875	7	10000	3	1	0	3	0
56	876	7	10000	3	1	0	3	0
54	877	7	10000	3	1	0	3	0
54	878	7	10000	3	1	0	3	0
53	879	7	10000	3	1	0	3	0
53	880	7	10000	3	1	0	3	0
51	881	7	10000	3	1	0	3	0
48	882	7	10000	3	1	0	3	0
46	883	7	10000	3	1	0	3	0
44	884	7	10000	3	1	0	3	0
43	885	7	10000	3	1	0	3	0
43	886	7	10000	3	1	0	3	0
44	887	7	10000	3	1	0	3	0
44	888	7	10000	3	1	0	3	0
44	889	7	10000	3	1	0	3	0
43	890	7	10000	3	1	0	3	0
43	891	7	10000	3	1	0	3	0
44	892	7	10000	3	1	0	3	0
44	893	7	10000	3	1	0	3	0
45	894	7	10000	3	1	0	3	0
47	895	7	10000	3	1	0	3	0
48	896	7	10000	3	1	0	3	0
51	897	7	10000	3	1	0	3	0
52	898	7	10000	3	1	0	3	0
53	899	7	10000	3	1	0	3	0
53	900	7	10000	3	1	0	3	0
51	901	7	10000	3	1	0	3	0
51	902	7	10000	3	1	0	3	0
52	903	7	10000	3	1	0	3	0
53	904	7	10000	3	1	0	3	0
53	905	7	10000	3	1	0	3	0
55	906	7	10000	3	1	0	3	0
53	907	7	10000	3	1	0	3	0
54	908	7	10000	3	1	0	3	0
52	909	7	10000	3	1	0	3	0
50	910	7	10000	3	1	0	3	0
48	911	7	10000	3	1	0	3	0
47	912	7	10000	3	1	0	3	0
46	913	7	10000	3	1	0	3	0
45	914	7	10000	3	1	0	3	0
46	915	7	10000	3	1	0	3	0
45	916	7	10000	3	1	0	3	0
44	917	7	10000	3	1	0	3	0
44	918	7	10000	3	1	0	3	0
44	919	7	10000	3	1	0	3	0
44	920	7	10000	3	1	0	3	0
42	921	7	10000	3	1	0	3	0
41	922	7	10000	3	1	0	3	0
40	923	7	10000	3	1	0	3	0
38	924	7	10000	3	1	0	3	0
38	925	7	10000	3	1	0	3	0
43	926	7	10000	3	1	0	3	0
47	927	7	10000	3	1	0	3	0
48	928	7	10000	3	1	0	3	0
48	929	7	10000	3	1	0	3	0
47	930	7	10000	3	1	0	3	0
46	931	7	10000	3	1	0	3	0
44	932	7	10000	3	1	0	3	0
44	933	7	10000	3	1	0	3	0
45	934	7	10000	3	1	0	3	0
46	935	7	10000	3	1	0	3	0
47	936	7	10000	3	1	0	3	0
46	937	7	10000	3	1	0	3	0
44	938	7	10000	3	1	0	3	0
44	939	7	10000	3	1	0	3	0
43	940	7	10000	3	1	0	3	0
42	941	7	10000	3	1	0	3	0
43	942	7	10000	3	1	0	3	0
44	943	7	10000	3	1	0	3	0
43	944	7	10000	3	1	0	3	0
43	945	7	10000	3	1	0	3	0
46	946	7	10000	3	1	0	3	0
46	947	7	10000	3	1	0	3	0
49	948	7	10000	3	1	0	3	0
52	949	7	10000	3	1	0	3	0
50	950	7	10000	3	1	0	3	0
48	951	7	10000	3	1	0	3	0
46	952	7	10000	3	1	0	3	0
46	953	7	10000	3	1	0	3	0
47	954	7	10000	3	1	0	3	0
51	955	7	10000	3	1	0	3	0
51	956	7	10000	3	1	0	3	0
50	957	7	10000	3	1	0	3	0
49	958	7	10000	3	1	0	3	0
48	959	7	10000	3	1	0	3	0
49	960	7	10000	3	1	0	3	0
47	961	7	10000	3	1	0	3	0
45	962	7	10000	3	1	0	3	0
44	963	7	10000	3	1	0	3	0
43	964	7	10000	3	1	0	3	0
40	965	7	10000	3	1	0	3	0
40	966	7	10000	3	1	0	3	0
42	967	7	10000	3	1	0	3	0
43	968	7	10000	3	1	0	3	0
44	969	7	10000	3	1	0	3	0
44	970	7	10000	3	1	0	3	0
43	971	7	10000	3	1	0	3	0
42	972	7	10000	3	1	0	3	0
43	973	7	10000	3	1	0	3	0
43	974	7	10000	3	1	0	3	0
43	975	7	10000	3	1	0	3	0
44	976	7	10000	3	1	0	3	0
43	977	7	10000	3	1	0	3	0
41	978	7	10000	3	1	0	3	0
40	979	7	10000	3	1	0	3	0
41	980	7	10000	3	1	0	3	0
40	981	7	10000	3	1	0	3	0
38	982	7	10000	3	1	0	3	0
37	983	7	10000	3	1	0	3	0
37	984	7	10000	3	1	0	3	0
36	985	7	10000	3	1	0	3	0
37	986	7	10000	3	1	0	3	0
38	987	7	10000	3	1	0	3	0
38	988	7	10000	3	1	0	3	0
38	989	7	10000	3	1	0	3	0
37	990	7	10000	3	1	0	3	0
35	991	7	10000	3	1	0	3	0
35	992	7	10000	3	1	0	3	0
35	993	7	10000	3	1	0	3	0
33	994	7	10000	3	1	0	3	0
34	995	7	10000	3	1	0	3	0
33	996	7	10000	3	1	0	3	0
33	997	7	10000	3	1	0	3	0
36	998	7	10000	3	1	0	3	0
39	999	7	10000	3	1	0	3	0
41	1000	7	10000	3	1	0	3	0
26	1	7	10000	4	1	0	4	0
27	2	7	10000	4	1	0	4	0
27	3	7	10000	4	1	0	4	0
29	4	7	10000	4	1	0	4	0
29	5	7	10000	4	1	0	4	0
28	6	7	10000	4	1	0	4	0
28	7	7	10000	4	1	0	4	0
28	8	7	10000	4	1	0	4	0
27	9	7	10000	4	1	0	4	0
27	10	7	10000	4	1	0	4	0
29	11	7	10000	4	1	0	4	0
29	12	7	10000	4	1	0	4	0
29	13	7	10000	4	1	0	4	0
26	14	7	10000	4	1	0	4	0
26	15	7	10000	4	1	0	4	0
27	16	7	10000	4	1	0	4	0
29	17	7	10000	4	1	0	4	0
28	18	7	10000	4	1	0	4	0
27	19	7	10000	4	1	0	4	0
27	20	7	10000	4	1	0	4	0
26	21	7	10000	4	1	0	4	0
24	22	7	10000	4	1	0	4	0
24	23	7	10000	4	1	0	4	0
25	24	7	10000	4	1	0	4	0
24	25	7	10000	4	1	0	4	0
23	26	7	10000	4	1	0	4	0
22	27	7	10000	4	1	0	4	0
21	28	7	10000	4	1	0	4	0
21	29	7	10000	4	1	0	4	0
20	30	7	10000	4	1	0	4	0
20	31	7	10000	4	1	0	4	0
20	32	7	10000	4	1	0	4	0
19	33	7	10000	4	1	0	4	0
17	34	7	10000	4	1	0	4	0
17	35	7	10000	4	1	0	4	0
17	36	7	10000	4	1	0	4	0
19	37	7	10000	4	1	0	4	0
20	38	7	10000	4	1	0	4	0
18	39	7	10000	4	1	0	4	0
18	40	7	10000	4	1	0	4	0
18	41	7	10000	4	1	0	4	0
17	42	7	10000	4	1	0	4	0
16	43	7	10000	4	1	0	4	0
18	44	7	10000	4	1	0	4	0
18	45	7	10000	4	1	0	4	0
17	46	7	10000	4	1	0	4	0
17	47	7	10000	4	1	0	4	0
16	48	7	10000	4	1	0	4	0
16	49	7	10000	4	1	0	4	0
15	50	7	10000	4	1	0	4	0
15	51	7	10000	4	1	0	4	0
16	52	7	10000	4	1	0	4	0
16	53	7	10000	4	1	0	4	0
14	54	7	10000	4	1	0	4	0
14	55	7	10000	4	1	0	4	0
14	56	7	10000	4	1	0	4	0
15	57	7	10000	4	1	0	4	0
16	58	7	10000	4	1	0	4	0
17	59	7	10000	4	1	0	4	0
18	60	7	10000	4	1	0	4	0
17	61	7	10000	4	1	0	4	0
16	62	7	10000	4	1	0	4	0
18	63	7	10000	4	1	0	4	0
20	64	7	10000	4	1	0	4	0
20	65	7	10000	4	1	0	4	0
19	66	7	10000	4	1	0	4	0
20	67	7	10000	4	1	0	4	0
20	68	7	10000	4	1	0	4	0
21	69	7	10000	4	1	0	4	0
20	70	7	10000	4	1	0	4	0
22	71	7	10000	4	1	0	4	0
23	72	7	10000	4	1	0	4	0
24	73	7	10000	4	1	0	4	0
23	74	7	10000	4	1	0	4	0
25	75	7	10000	4	1	0	4	0
27	76	7	10000	4	1	0	4	0
27	77	7	10000	4	1	0	4	0
26	78	7	10000	4	1	0	4	0
26	79	7	10000	4	1	0	4	0
27	80	7	10000	4	1	0	4	0
25	81	7	10000	4	1	0	4	0
26	82	7	10000	4	1	0	4	0
25	83	7	10000	4	1	0	4	0
27	84	7	10000	4	1	0	4	0
26	85	7	10000	4	1	0	4	0
26	86	7	10000	4	1	0	4	0
25	87	7	10000	4	1	0	4	0
24	88	7	10000	4	1	0	4	0
23	89	7	10000	4	1	0	4	0
23	90	7	10000	4	1	0	4	0
23	91	7	10000	4	1	0	4	0
23	92	7	10000	4	1	0	4	0
24	93	7	10000	4	1	0	4	0
21	94	7	10000	4	1	0	4	0
21	95	7	10000	4	1	0	4	0
23	96	7	10000	4	1	0	4	0
26	97	7	10000	4	1	0	4	0
32	98	7	10000	4	1	0	4	0
38	99	7	10000	4	1	0	4	0
42	100	7	10000	4	1	0	4	0
42	101	7	10000	4	1	0	4	0
47	102	7	10000	4	1	0	4	0
55	103	7	10000	4	1	0	4	0
64	104	7	10000	4	1	0	4	0
69	105	7	10000	4	1	0	4	0
70	106	7	10000	4	1	0	4	0
71	107	7	10000	4	1	0	4	0
72	108	7	10000	4	1	0	4	0
75	109	7	10000	4	1	0	4	0
73	110	7	10000	4	1	0	4	0
78	111	7	10000	4	1	0	4	0
85	112	7	10000	4	1	0	4	0
87	113	7	10000	4	1	0	4	0
107	114	7	10000	4	1	0	4	0
130	115	7	10000	4	1	0	4	0
132	116	7	10000	4	1	0	4	0
131	117	7	10000	4	1	0	4	0
128	118	7	10000	4	1	0	4	0
124	119	7	10000	4	1	0	4	0
127	120	7	10000	4	1	0	4	0
125	121	7	10000	4	1	0	4	0
131	122	7	10000	4	1	0	4	0
131	123	7	10000	4	1	0	4	0
141	124	7	10000	4	1	0	4	0
148	125	7	10000	4	1	0	4	0
151	126	7	10000	4	1	0	4	0
150	127	7	10000	4	1	0	4	0
146	128	7	10000	4	1	0	4	0
140	129	7	10000	4	1	0	4	0
135	130	7	10000	4	1	0	4	0
131	131	7	10000	4	1	0	4	0
131	132	7	10000	4	1	0	4	0
128	133	7	10000	4	1	0	4	0
125	134	7	10000	4	1	0	4	0
127	135	7	10000	4	1	0	4	0
127	136	7	10000	4	1	0	4	0
124	137	7	10000	4	1	0	4	0
125	138	7	10000	4	1	0	4	0
129	139	7	10000	4	1	0	4	0
135	140	7	10000	4	1	0	4	0
136	141	7	10000	4	1	0	4	0
143	142	7	10000	4	1	0	4	0
164	143	7	10000	4	1	0	4	0
170	144	7	10000	4	1	0	4	0
179	145	7	10000	4	1	0	4	0
181	146	7	10000	4	1	0	4	0
176	147	7	10000	4	1	0	4	0
170	148	7	10000	4	1	0	4	0
170	149	7	10000	4	1	0	4	0
166	150	7	10000	4	1	0	4	0
162	151	7	10000	4	1	0	4	0
158	152	7	10000	4	1	0	4	0
156	153	7	10000	4	1	0	4	0
150	154	7	10000	4	1	0	4	0
149	155	7	10000	4	1	0	4	0
148	156	7	10000	4	1	0	4	0
143	157	7	10000	4	1	0	4	0
141	158	7	10000	4	1	0	4	0
141	159	7	10000	4	1	0	4	0
138	160	7	10000	4	1	0	4	0
132	161	7	10000	4	1	0	4	0
131	162	7	10000	4	1	0	4	0
131	163	7	10000	4	1	0	4	0
127	164	7	10000	4	1	0	4	0
125	165	7	10000	4	1	0	4	0
123	166	7	10000	4	1	0	4	0
120	167	7	10000	4	1	0	4	0
115	168	7	10000	4	1	0	4	0
112	169	7	10000	4	1	0	4	0
108	170	7	10000	4	1	0	4	0
104	171	7	10000	4	1	0	4	0
103	172	7	10000	4	1	0	4	0
100	173	7	10000	4	1	0	4	0
95	174	7	10000	4	1	0	4	0
94	175	7	10000	4	1	0	4	0
92	176	7	10000	4	1	0	4	0
90	177	7	10000	4	1	0	4	0
87	178	7	10000	4	1	0	4	0
85	179	7	10000	4	1	0	4	0
84	180	7	10000	4	1	0	4	0
83	181	7	10000	4	1	0	4	0
81	182	7	10000	4	1	0	4	0
83	183	7	10000	4	1	0	4	0
85	184	7	10000	4	1	0	4	0
86	185	7	10000	4	1	0	4	0
91	186	7	10000	4	1	0	4	0
94	187	7	10000	4	1	0	4	0
95	188	7	10000	4	1	0	4	0
92	189	7	10000	4	1	0	4	0
92	190	7	10000	4	1	0	4	0
95	191	7	10000	4	1	0	4	0
93	192	7	10000	4	1	0	4	0
90	193	7	10000	4	1	0	4	0
86	194	7	10000	4	1	0	4	0
84	195	7	10000	4	1	0	4	0
81	196	7	10000	4	1	0	4	0
81	197	7	10000	4	1	0	4	0
84	198	7	10000	4	1	0	4	0
87	199	7	10000	4	1	0	4	0
89	200	7	10000	4	1	0	4	0
88	201	7	10000	4	1	0	4	0
85	202	7	10000	4	1	0	4	0
81	203	7	10000	4	1	0	4	0
81	204	7	10000	4	1	0	4	0
80	205	7	10000	4	1	0	4	0
78	206	7	10000	4	1	0	4	0
76	207	7	10000	4	1	0	4	0
76	208	7	10000	4	1	0	4	0
79	209	7	10000	4	1	0	4	0
81	210	7	10000	4	1	0	4	0
81	211	7	10000	4	1	0	4	0
79	212	7	10000	4	1	0	4	0
76	213	7	10000	4	1	0	4	0
73	214	7	10000	4	1	0	4	0
71	215	7	10000	4	1	0	4	0
68	216	7	10000	4	1	0	4	0
66	217	7	10000	4	1	0	4	0
64	218	7	10000	4	1	0	4	0
63	219	7	10000	4	1	0	4	0
64	220	7	10000	4	1	0	4	0
63	221	7	10000	4	1	0	4	0
62	222	7	10000	4	1	0	4	0
60	223	7	10000	4	1	0	4	0
59	224	7	10000	4	1	0	4	0
58	225	7	10000	4	1	0	4	0
56	226	7	10000	4	1	0	4	0
54	227	7	10000	4	1	0	4	0
52	228	7	10000	4	1	0	4	0
53	229	7	10000	4	1	0	4	0
53	230	7	10000	4	1	0	4	0
51	231	7	10000	4	1	0	4	0
49	232	7	10000	4	1	0	4	0
50	233	7	10000	4	1	0	4	0
46	234	7	10000	4	1	0	4	0
45	235	7	10000	4	1	0	4	0
46	236	7	10000	4	1	0	4	0
46	237	7	10000	4	1	0	4	0
45	238	7	10000	4	1	0	4	0
44	239	7	10000	4	1	0	4	0
43	240	7	10000	4	1	0	4	0
41	241	7	10000	4	1	0	4	0
39	242	7	10000	4	1	0	4	0
39	243	7	10000	4	1	0	4	0
40	244	7	10000	4	1	0	4	0
40	245	7	10000	4	1	0	4	0
39	246	7	10000	4	1	0	4	0
37	247	7	10000	4	1	0	4	0
35	248	7	10000	4	1	0	4	0
35	249	7	10000	4	1	0	4	0
34	250	7	10000	4	1	0	4	0
35	251	7	10000	4	1	0	4	0
37	252	7	10000	4	1	0	4	0
40	253	7	10000	4	1	0	4	0
38	254	7	10000	4	1	0	4	0
38	255	7	10000	4	1	0	4	0
38	256	7	10000	4	1	0	4	0
39	257	7	10000	4	1	0	4	0
40	258	7	10000	4	1	0	4	0
38	259	7	10000	4	1	0	4	0
38	260	7	10000	4	1	0	4	0
36	261	7	10000	4	1	0	4	0
34	262	7	10000	4	1	0	4	0
34	263	7	10000	4	1	0	4	0
35	264	7	10000	4	1	0	4	0
35	265	7	10000	4	1	0	4	0
34	266	7	10000	4	1	0	4	0
33	267	7	10000	4	1	0	4	0
33	268	7	10000	4	1	0	4	0
33	269	7	10000	4	1	0	4	0
32	270	7	10000	4	1	0	4	0
32	271	7	10000	4	1	0	4	0
33	272	7	10000	4	1	0	4	0
34	273	7	10000	4	1	0	4	0
33	274	7	10000	4	1	0	4	0
33	275	7	10000	4	1	0	4	0
32	276	7	10000	4	1	0	4	0
31	277	7	10000	4	1	0	4	0
31	278	7	10000	4	1	0	4	0
30	279	7	10000	4	1	0	4	0
29	280	7	10000	4	1	0	4	0
29	281	7	10000	4	1	0	4	0
27	282	7	10000	4	1	0	4	0
28	283	7	10000	4	1	0	4	0
31	284	7	10000	4	1	0	4	0
33	285	7	10000	4	1	0	4	0
34	286	7	10000	4	1	0	4	0
35	287	7	10000	4	1	0	4	0
34	288	7	10000	4	1	0	4	0
32	289	7	10000	4	1	0	4	0
32	290	7	10000	4	1	0	4	0
33	291	7	10000	4	1	0	4	0
33	292	7	10000	4	1	0	4	0
32	293	7	10000	4	1	0	4	0
32	294	7	10000	4	1	0	4	0
31	295	7	10000	4	1	0	4	0
32	296	7	10000	4	1	0	4	0
31	297	7	10000	4	1	0	4	0
30	298	7	10000	4	1	0	4	0
30	299	7	10000	4	1	0	4	0
31	300	7	10000	4	1	0	4	0
30	301	7	10000	4	1	0	4	0
31	302	7	10000	4	1	0	4	0
31	303	7	10000	4	1	0	4	0
32	304	7	10000	4	1	0	4	0
32	305	7	10000	4	1	0	4	0
34	306	7	10000	4	1	0	4	0
33	307	7	10000	4	1	0	4	0
34	308	7	10000	4	1	0	4	0
34	309	7	10000	4	1	0	4	0
33	310	7	10000	4	1	0	4	0
32	311	7	10000	4	1	0	4	0
32	312	7	10000	4	1	0	4	0
32	313	7	10000	4	1	0	4	0
29	314	7	10000	4	1	0	4	0
28	315	7	10000	4	1	0	4	0
29	316	7	10000	4	1	0	4	0
29	317	7	10000	4	1	0	4	0
28	318	7	10000	4	1	0	4	0
29	319	7	10000	4	1	0	4	0
30	320	7	10000	4	1	0	4	0
29	321	7	10000	4	1	0	4	0
27	322	7	10000	4	1	0	4	0
26	323	7	10000	4	1	0	4	0
26	324	7	10000	4	1	0	4	0
26	325	7	10000	4	1	0	4	0
25	326	7	10000	4	1	0	4	0
25	327	7	10000	4	1	0	4	0
26	328	7	10000	4	1	0	4	0
25	329	7	10000	4	1	0	4	0
24	330	7	10000	4	1	0	4	0
24	331	7	10000	4	1	0	4	0
25	332	7	10000	4	1	0	4	0
28	333	7	10000	4	1	0	4	0
28	334	7	10000	4	1	0	4	0
27	335	7	10000	4	1	0	4	0
26	336	7	10000	4	1	0	4	0
28	337	7	10000	4	1	0	4	0
27	338	7	10000	4	1	0	4	0
26	339	7	10000	4	1	0	4	0
25	340	7	10000	4	1	0	4	0
24	341	7	10000	4	1	0	4	0
23	342	7	10000	4	1	0	4	0
23	343	7	10000	4	1	0	4	0
25	344	7	10000	4	1	0	4	0
24	345	7	10000	4	1	0	4	0
25	346	7	10000	4	1	0	4	0
25	347	7	10000	4	1	0	4	0
24	348	7	10000	4	1	0	4	0
25	349	7	10000	4	1	0	4	0
24	350	7	10000	4	1	0	4	0
24	351	7	10000	4	1	0	4	0
25	352	7	10000	4	1	0	4	0
25	353	7	10000	4	1	0	4	0
22	354	7	10000	4	1	0	4	0
22	355	7	10000	4	1	0	4	0
20	356	7	10000	4	1	0	4	0
20	357	7	10000	4	1	0	4	0
21	358	7	10000	4	1	0	4	0
21	359	7	10000	4	1	0	4	0
20	360	7	10000	4	1	0	4	0
20	361	7	10000	4	1	0	4	0
20	362	7	10000	4	1	0	4	0
19	363	7	10000	4	1	0	4	0
21	364	7	10000	4	1	0	4	0
21	365	7	10000	4	1	0	4	0
20	366	7	10000	4	1	0	4	0
20	367	7	10000	4	1	0	4	0
19	368	7	10000	4	1	0	4	0
19	369	7	10000	4	1	0	4	0
20	370	7	10000	4	1	0	4	0
20	371	7	10000	4	1	0	4	0
19	372	7	10000	4	1	0	4	0
20	373	7	10000	4	1	0	4	0
19	374	7	10000	4	1	0	4	0
18	375	7	10000	4	1	0	4	0
18	376	7	10000	4	1	0	4	0
18	377	7	10000	4	1	0	4	0
19	378	7	10000	4	1	0	4	0
18	379	7	10000	4	1	0	4	0
18	380	7	10000	4	1	0	4	0
17	381	7	10000	4	1	0	4	0
16	382	7	10000	4	1	0	4	0
15	383	7	10000	4	1	0	4	0
16	384	7	10000	4	1	0	4	0
16	385	7	10000	4	1	0	4	0
16	386	7	10000	4	1	0	4	0
16	387	7	10000	4	1	0	4	0
16	388	7	10000	4	1	0	4	0
17	389	7	10000	4	1	0	4	0
16	390	7	10000	4	1	0	4	0
18	391	7	10000	4	1	0	4	0
18	392	7	10000	4	1	0	4	0
19	393	7	10000	4	1	0	4	0
17	394	7	10000	4	1	0	4	0
17	395	7	10000	4	1	0	4	0
16	396	7	10000	4	1	0	4	0
17	397	7	10000	4	1	0	4	0
18	398	7	10000	4	1	0	4	0
17	399	7	10000	4	1	0	4	0
17	400	7	10000	4	1	0	4	0
17	401	7	10000	4	1	0	4	0
16	402	7	10000	4	1	0	4	0
16	403	7	10000	4	1	0	4	0
20	404	7	10000	4	1	0	4	0
19	405	7	10000	4	1	0	4	0
19	406	7	10000	4	1	0	4	0
18	407	7	10000	4	1	0	4	0
18	408	7	10000	4	1	0	4	0
18	409	7	10000	4	1	0	4	0
20	410	7	10000	4	1	0	4	0
23	411	7	10000	4	1	0	4	0
22	412	7	10000	4	1	0	4	0
22	413	7	10000	4	1	0	4	0
21	414	7	10000	4	1	0	4	0
21	415	7	10000	4	1	0	4	0
23	416	7	10000	4	1	0	4	0
23	417	7	10000	4	1	0	4	0
22	418	7	10000	4	1	0	4	0
23	419	7	10000	4	1	0	4	0
23	420	7	10000	4	1	0	4	0
22	421	7	10000	4	1	0	4	0
22	422	7	10000	4	1	0	4	0
20	423	7	10000	4	1	0	4	0
21	424	7	10000	4	1	0	4	0
21	425	7	10000	4	1	0	4	0
19	426	7	10000	4	1	0	4	0
19	427	7	10000	4	1	0	4	0
19	428	7	10000	4	1	0	4	0
19	429	7	10000	4	1	0	4	0
20	430	7	10000	4	1	0	4	0
20	431	7	10000	4	1	0	4	0
19	432	7	10000	4	1	0	4	0
20	433	7	10000	4	1	0	4	0
18	434	7	10000	4	1	0	4	0
17	435	7	10000	4	1	0	4	0
18	436	7	10000	4	1	0	4	0
17	437	7	10000	4	1	0	4	0
18	438	7	10000	4	1	0	4	0
18	439	7	10000	4	1	0	4	0
19	440	7	10000	4	1	0	4	0
19	441	7	10000	4	1	0	4	0
19	442	7	10000	4	1	0	4	0
18	443	7	10000	4	1	0	4	0
20	444	7	10000	4	1	0	4	0
21	445	7	10000	4	1	0	4	0
20	446	7	10000	4	1	0	4	0
21	447	7	10000	4	1	0	4	0
20	448	7	10000	4	1	0	4	0
20	449	7	10000	4	1	0	4	0
23	450	7	10000	4	1	0	4	0
23	451	7	10000	4	1	0	4	0
24	452	7	10000	4	1	0	4	0
24	453	7	10000	4	1	0	4	0
22	454	7	10000	4	1	0	4	0
21	455	7	10000	4	1	0	4	0
20	456	7	10000	4	1	0	4	0
20	457	7	10000	4	1	0	4	0
21	458	7	10000	4	1	0	4	0
22	459	7	10000	4	1	0	4	0
24	460	7	10000	4	1	0	4	0
25	461	7	10000	4	1	0	4	0
25	462	7	10000	4	1	0	4	0
29	463	7	10000	4	1	0	4	0
33	464	7	10000	4	1	0	4	0
33	465	7	10000	4	1	0	4	0
33	466	7	10000	4	1	0	4	0
33	467	7	10000	4	1	0	4	0
34	468	7	10000	4	1	0	4	0
33	469	7	10000	4	1	0	4	0
35	470	7	10000	4	1	0	4	0
35	471	7	10000	4	1	0	4	0
36	472	7	10000	4	1	0	4	0
39	473	7	10000	4	1	0	4	0
39	474	7	10000	4	1	0	4	0
38	475	7	10000	4	1	0	4	0
37	476	7	10000	4	1	0	4	0
37	477	7	10000	4	1	0	4	0
35	478	7	10000	4	1	0	4	0
35	479	7	10000	4	1	0	4	0
35	480	7	10000	4	1	0	4	0
33	481	7	10000	4	1	0	4	0
34	482	7	10000	4	1	0	4	0
37	483	7	10000	4	1	0	4	0
37	484	7	10000	4	1	0	4	0
37	485	7	10000	4	1	0	4	0
36	486	7	10000	4	1	0	4	0
37	487	7	10000	4	1	0	4	0
37	488	7	10000	4	1	0	4	0
37	489	7	10000	4	1	0	4	0
35	490	7	10000	4	1	0	4	0
37	491	7	10000	4	1	0	4	0
39	492	7	10000	4	1	0	4	0
39	493	7	10000	4	1	0	4	0
38	494	7	10000	4	1	0	4	0
38	495	7	10000	4	1	0	4	0
36	496	7	10000	4	1	0	4	0
34	497	7	10000	4	1	0	4	0
34	498	7	10000	4	1	0	4	0
34	499	7	10000	4	1	0	4	0
35	500	7	10000	4	1	0	4	0
34	501	7	10000	4	1	0	4	1
32	502	7	10000	4	1	0	4	1
31	503	7	10000	4	1	0	4	1
32	504	7	10000	4	1	0	4	1
31	505	7	10000	4	1	0	4	1
31	506	7	10000	4	1	0	4	1
30	507	7	10000	4	1	0	4	1
30	508	7	10000	4	1	0	4	1
28	509	7	10000	4	1	0	4	1
27	510	7	10000	4	1	0	4	1
28	511	7	10000	4	1	0	4	1
27	512	7	10000	4	1	0	4	1
27	513	7	10000	4	1	0	4	1
26	514	7	10000	4	1	0	4	1
24	515	7	10000	4	1	0	4	1
24	516	7	10000	4	1	0	4	1
25	517	7	10000	4	1	0	4	1
26	518	7	10000	4	1	0	4	1
25	519	7	10000	4	1	0	4	1
26	520	7	10000	4	1	0	4	1
26	521	7	10000	4	1	0	4	1
26	522	7	10000	4	1	0	4	1
24	523	7	10000	4	1	0	4	1
25	524	7	10000	4	1	0	4	1
25	525	7	10000	4	1	0	4	1
24	526	7	10000	4	1	0	4	1
24	527	7	10000	4	1	0	4	1
23	528	7	10000	4	1	0	4	1
22	529	7	10000	4	1	0	4	1
23	530	7	10000	4	1	0	4	1
25	531	7	10000	4	1	0	4	1
26	532	7	10000	4	1	0	4	1
28	533	7	10000	4	1	0	4	1
25	534	7	10000	4	1	0	4	1
26	535	7	10000	4	1	0	4	1
25	536	7	10000	4	1	0	4	1
25	537	7	10000	4	1	0	4	1
24	538	7	10000	4	1	0	4	1
23	539	7	10000	4	1	0	4	1
24	540	7	10000	4	1	0	4	1
23	541	7	10000	4	1	0	4	1
22	542	7	10000	4	1	0	4	1
21	543	7	10000	4	1	0	4	1
23	544	7	10000	4	1	0	4	1
22	545	7	10000	4	1	0	4	1
23	546	7	10000	4	1	0	4	1
25	547	7	10000	4	1	0	4	1
24	548	7	10000	4	1	0	4	1
23	549	7	10000	4	1	0	4	1
24	550	7	10000	4	1	0	4	1
23	551	7	10000	4	1	0	4	0
23	552	7	10000	4	1	0	4	0
23	553	7	10000	4	1	0	4	0
21	554	7	10000	4	1	0	4	0
20	555	7	10000	4	1	0	4	0
21	556	7	10000	4	1	0	4	0
20	557	7	10000	4	1	0	4	0
21	558	7	10000	4	1	0	4	0
21	559	7	10000	4	1	0	4	0
21	560	7	10000	4	1	0	4	0
20	561	7	10000	4	1	0	4	0
20	562	7	10000	4	1	0	4	0
19	563	7	10000	4	1	0	4	0
20	564	7	10000	4	1	0	4	0
20	565	7	10000	4	1	0	4	0
20	566	7	10000	4	1	0	4	0
21	567	7	10000	4	1	0	4	0
21	568	7	10000	4	1	0	4	0
21	569	7	10000	4	1	0	4	0
21	570	7	10000	4	1	0	4	0
21	571	7	10000	4	1	0	4	0
22	572	7	10000	4	1	0	4	0
23	573	7	10000	4	1	0	4	0
21	574	7	10000	4	1	0	4	0
20	575	7	10000	4	1	0	4	0
20	576	7	10000	4	1	0	4	0
20	577	7	10000	4	1	0	4	0
21	578	7	10000	4	1	0	4	0
21	579	7	10000	4	1	0	4	0
25	580	7	10000	4	1	0	4	0
26	581	7	10000	4	1	0	4	0
29	582	7	10000	4	1	0	4	0
33	583	7	10000	4	1	0	4	0
35	584	7	10000	4	1	0	4	0
35	585	7	10000	4	1	0	4	0
41	586	7	10000	4	1	0	4	0
56	587	7	10000	4	1	0	4	0
71	588	7	10000	4	1	0	4	0
77	589	7	10000	4	1	0	4	0
87	590	7	10000	4	1	0	4	0
96	591	7	10000	4	1	0	4	0
133	592	7	10000	4	1	0	4	0
167	593	7	10000	4	1	0	4	0
176	594	7	10000	4	1	0	4	0
186	595	7	10000	4	1	0	4	0
190	596	7	10000	4	1	0	4	0
221	597	7	10000	4	1	0	4	0
260	598	7	10000	4	1	0	4	0
273	599	7	10000	4	1	0	4	0
281	600	7	10000	4	1	0	4	0
323	601	7	10000	4	1	0	4	0
375	602	7	10000	4	1	0	4	0
438	603	7	10000	4	1	0	4	0
482	604	7	10000	4	1	0	4	0
482	605	7	10000	4	1	0	4	0
512	606	7	10000	4	1	0	4	0
582	607	7	10000	4	1	0	4	0
668	608	7	10000	4	1	0	4	0
713	609	7	10000	4	1	0	4	0
704	610	7	10000	4	1	0	4	0
748	611	7	10000	4	1	0	4	0
794	612	7	10000	4	1	0	4	0
779	613	7	10000	4	1	0	4	0
797	614	7	10000	4	1	0	4	0
915	615	7	10000	4	1	0	4	0
967	616	7	10000	4	1	0	4	0
943	617	7	10000	4	1	0	4	0
965	618	7	10000	4	1	0	4	0
982	619	7	10000	4	1	0	4	0
1003	620	7	10000	4	1	0	4	0
1041	621	7	10000	4	1	0	4	0
1097	622	7	10000	4	1	0	4	0
1170	623	7	10000	4	1	0	4	0
1232	624	7	10000	4	1	0	4	0
1284	625	7	10000	4	1	0	4	0
1320	626	7	10000	4	1	0	4	0
1312	627	7	10000	4	1	0	4	0
1282	628	7	10000	4	1	0	4	0
1240	629	7	10000	4	1	0	4	0
1186	630	7	10000	4	1	0	4	0
1132	631	7	10000	4	1	0	4	0
1084	632	7	10000	4	1	0	4	0
1039	633	7	10000	4	1	0	4	0
997	634	7	10000	4	1	0	4	0
969	635	7	10000	4	1	0	4	0
946	636	7	10000	4	1	0	4	0
916	637	7	10000	4	1	0	4	0
883	638	7	10000	4	1	0	4	0
850	639	7	10000	4	1	0	4	0
816	640	7	10000	4	1	0	4	0
788	641	7	10000	4	1	0	4	0
767	642	7	10000	4	1	0	4	0
750	643	7	10000	4	1	0	4	0
739	644	7	10000	4	1	0	4	0
730	645	7	10000	4	1	0	4	0
713	646	7	10000	4	1	0	4	0
692	647	7	10000	4	1	0	4	0
666	648	7	10000	4	1	0	4	0
636	649	7	10000	4	1	0	4	0
609	650	7	10000	4	1	0	4	0
586	651	7	10000	4	1	0	4	0
566	652	7	10000	4	1	0	4	0
546	653	7	10000	4	1	0	4	0
522	654	7	10000	4	1	0	4	0
503	655	7	10000	4	1	0	4	0
491	656	7	10000	4	1	0	4	0
475	657	7	10000	4	1	0	4	0
456	658	7	10000	4	1	0	4	0
440	659	7	10000	4	1	0	4	0
429	660	7	10000	4	1	0	4	0
420	661	7	10000	4	1	0	4	0
410	662	7	10000	4	1	0	4	0
394	663	7	10000	4	1	0	4	0
378	664	7	10000	4	1	0	4	0
361	665	7	10000	4	1	0	4	0
346	666	7	10000	4	1	0	4	0
334	667	7	10000	4	1	0	4	0
322	668	7	10000	4	1	0	4	0
309	669	7	10000	4	1	0	4	0
295	670	7	10000	4	1	0	4	0
284	671	7	10000	4	1	0	4	0
277	672	7	10000	4	1	0	4	0
267	673	7	10000	4	1	0	4	0
254	674	7	10000	4	1	0	4	0
243	675	7	10000	4	1	0	4	0
234	676	7	10000	4	1	0	4	0
224	677	7	10000	4	1	0	4	0
217	678	7	10000	4	1	0	4	0
209	679	7	10000	4	1	0	4	0
204	680	7	10000	4	1	0	4	0
199	681	7	10000	4	1	0	4	0
197	682	7	10000	4	1	0	4	0
199	683	7	10000	4	1	0	4	0
205	684	7	10000	4	1	0	4	0
212	685	7	10000	4	1	0	4	0
217	686	7	10000	4	1	0	4	0
221	687	7	10000	4	1	0	4	0
224	688	7	10000	4	1	0	4	0
225	689	7	10000	4	1	0	4	0
225	690	7	10000	4	1	0	4	0
223	691	7	10000	4	1	0	4	0
222	692	7	10000	4	1	0	4	0
219	693	7	10000	4	1	0	4	0
216	694	7	10000	4	1	0	4	0
213	695	7	10000	4	1	0	4	0
209	696	7	10000	4	1	0	4	0
207	697	7	10000	4	1	0	4	0
205	698	7	10000	4	1	0	4	0
205	699	7	10000	4	1	0	4	0
207	700	7	10000	4	1	0	4	0
208	701	7	10000	4	1	0	4	0
212	702	7	10000	4	1	0	4	0
219	703	7	10000	4	1	0	4	0
228	704	7	10000	4	1	0	4	0
234	705	7	10000	4	1	0	4	0
242	706	7	10000	4	1	0	4	0
246	707	7	10000	4	1	0	4	0
247	708	7	10000	4	1	0	4	0
243	709	7	10000	4	1	0	4	0
237	710	7	10000	4	1	0	4	0
230	711	7	10000	4	1	0	4	0
225	712	7	10000	4	1	0	4	0
217	713	7	10000	4	1	0	4	0
209	714	7	10000	4	1	0	4	0
200	715	7	10000	4	1	0	4	0
192	716	7	10000	4	1	0	4	0
186	717	7	10000	4	1	0	4	0
182	718	7	10000	4	1	0	4	0
177	719	7	10000	4	1	0	4	0
176	720	7	10000	4	1	0	4	0
175	721	7	10000	4	1	0	4	0
177	722	7	10000	4	1	0	4	0
178	723	7	10000	4	1	0	4	0
181	724	7	10000	4	1	0	4	0
182	725	7	10000	4	1	0	4	0
183	726	7	10000	4	1	0	4	0
184	727	7	10000	4	1	0	4	0
181	728	7	10000	4	1	0	4	0
177	729	7	10000	4	1	0	4	0
173	730	7	10000	4	1	0	4	0
166	731	7	10000	4	1	0	4	0
159	732	7	10000	4	1	0	4	0
153	733	7	10000	4	1	0	4	0
145	734	7	10000	4	1	0	4	0
138	735	7	10000	4	1	0	4	0
135	736	7	10000	4	1	0	4	0
131	737	7	10000	4	1	0	4	0
126	738	7	10000	4	1	0	4	0
121	739	7	10000	4	1	0	4	0
120	740	7	10000	4	1	0	4	0
118	741	7	10000	4	1	0	4	0
117	742	7	10000	4	1	0	4	0
115	743	7	10000	4	1	0	4	0
115	744	7	10000	4	1	0	4	0
115	745	7	10000	4	1	0	4	0
112	746	7	10000	4	1	0	4	0
112	747	7	10000	4	1	0	4	0
111	748	7	10000	4	1	0	4	0
106	749	7	10000	4	1	0	4	0
105	750	7	10000	4	1	0	4	0
105	751	7	10000	4	1	0	4	0
104	752	7	10000	4	1	0	4	0
104	753	7	10000	4	1	0	4	0
104	754	7	10000	4	1	0	4	0
103	755	7	10000	4	1	0	4	0
104	756	7	10000	4	1	0	4	0
105	757	7	10000	4	1	0	4	0
105	758	7	10000	4	1	0	4	0
103	759	7	10000	4	1	0	4	0
101	760	7	10000	4	1	0	4	0
96	761	7	10000	4	1	0	4	0
93	762	7	10000	4	1	0	4	0
91	763	7	10000	4	1	0	4	0
89	764	7	10000	4	1	0	4	0
87	765	7	10000	4	1	0	4	0
83	766	7	10000	4	1	0	4	0
80	767	7	10000	4	1	0	4	0
76	768	7	10000	4	1	0	4	0
75	769	7	10000	4	1	0	4	0
76	770	7	10000	4	1	0	4	0
77	771	7	10000	4	1	0	4	0
79	772	7	10000	4	1	0	4	0
83	773	7	10000	4	1	0	4	0
85	774	7	10000	4	1	0	4	0
87	775	7	10000	4	1	0	4	0
89	776	7	10000	4	1	0	4	0
89	777	7	10000	4	1	0	4	0
90	778	7	10000	4	1	0	4	0
89	779	7	10000	4	1	0	4	0
88	780	7	10000	4	1	0	4	0
87	781	7	10000	4	1	0	4	0
89	782	7	10000	4	1	0	4	0
85	783	7	10000	4	1	0	4	0
83	784	7	10000	4	1	0	4	0
81	785	7	10000	4	1	0	4	0
79	786	7	10000	4	1	0	4	0
77	787	7	10000	4	1	0	4	0
76	788	7	10000	4	1	0	4	0
77	789	7	10000	4	1	0	4	0
78	790	7	10000	4	1	0	4	0
82	791	7	10000	4	1	0	4	0
85	792	7	10000	4	1	0	4	0
89	793	7	10000	4	1	0	4	0
91	794	7	10000	4	1	0	4	0
89	795	7	10000	4	1	0	4	0
92	796	7	10000	4	1	0	4	0
91	797	7	10000	4	1	0	4	0
90	798	7	10000	4	1	0	4	0
91	799	7	10000	4	1	0	4	0
89	800	7	10000	4	1	0	4	0
85	801	7	10000	4	1	0	4	0
86	802	7	10000	4	1	0	4	0
87	803	7	10000	4	1	0	4	0
85	804	7	10000	4	1	0	4	0
84	805	7	10000	4	1	0	4	0
83	806	7	10000	4	1	0	4	0
79	807	7	10000	4	1	0	4	0
78	808	7	10000	4	1	0	4	0
78	809	7	10000	4	1	0	4	0
78	810	7	10000	4	1	0	4	0
81	811	7	10000	4	1	0	4	0
85	812	7	10000	4	1	0	4	0
90	813	7	10000	4	1	0	4	0
92	814	7	10000	4	1	0	4	0
92	815	7	10000	4	1	0	4	0
93	816	7	10000	4	1	0	4	0
96	817	7	10000	4	1	0	4	0
97	818	7	10000	4	1	0	4	0
97	819	7	10000	4	1	0	4	0
96	820	7	10000	4	1	0	4	0
95	821	7	10000	4	1	0	4	0
91	822	7	10000	4	1	0	4	0
89	823	7	10000	4	1	0	4	0
87	824	7	10000	4	1	0	4	0
86	825	7	10000	4	1	0	4	0
82	826	7	10000	4	1	0	4	0
78	827	7	10000	4	1	0	4	0
75	828	7	10000	4	1	0	4	0
72	829	7	10000	4	1	0	4	0
71	830	7	10000	4	1	0	4	0
71	831	7	10000	4	1	0	4	0
73	832	7	10000	4	1	0	4	0
75	833	7	10000	4	1	0	4	0
75	834	7	10000	4	1	0	4	0
75	835	7	10000	4	1	0	4	0
77	836	7	10000	4	1	0	4	0
79	837	7	10000	4	1	0	4	0
79	838	7	10000	4	1	0	4	0
79	839	7	10000	4	1	0	4	0
75	840	7	10000	4	1	0	4	0
73	841	7	10000	4	1	0	4	0
73	842	7	10000	4	1	0	4	0
75	843	7	10000	4	1	0	4	0
75	844	7	10000	4	1	0	4	0
75	845	7	10000	4	1	0	4	0
72	846	7	10000	4	1	0	4	0
69	847	7	10000	4	1	0	4	0
67	848	7	10000	4	1	0	4	0
65	849	7	10000	4	1	0	4	0
63	850	7	10000	4	1	0	4	0
63	851	7	10000	4	1	0	4	0
67	852	7	10000	4	1	0	4	0
70	853	7	10000	4	1	0	4	0
70	854	7	10000	4	1	0	4	0
68	855	7	10000	4	1	0	4	0
65	856	7	10000	4	1	0	4	0
62	857	7	10000	4	1	0	4	0
60	858	7	10000	4	1	0	4	0
57	859	7	10000	4	1	0	4	0
56	860	7	10000	4	1	0	4	0
55	861	7	10000	4	1	0	4	0
52	862	7	10000	4	1	0	4	0
52	863	7	10000	4	1	0	4	0
55	864	7	10000	4	1	0	4	0
56	865	7	10000	4	1	0	4	0
56	866	7	10000	4	1	0	4	0
57	867	7	10000	4	1	0	4	0
54	868	7	10000	4	1	0	4	0
52	869	7	10000	4	1	0	4	0
50	870	7	10000	4	1	0	4	0
49	871	7	10000	4	1	0	4	0
47	872	7	10000	4	1	0	4	0
47	873	7	10000	4	1	0	4	0
45	874	7	10000	4	1	0	4	0
44	875	7	10000	4	1	0	4	0
44	876	7	10000	4	1	0	4	0
46	877	7	10000	4	1	0	4	0
45	878	7	10000	4	1	0	4	0
44	879	7	10000	4	1	0	4	0
43	880	7	10000	4	1	0	4	0
43	881	7	10000	4	1	0	4	0
43	882	7	10000	4	1	0	4	0
42	883	7	10000	4	1	0	4	0
43	884	7	10000	4	1	0	4	0
44	885	7	10000	4	1	0	4	0
43	886	7	10000	4	1	0	4	0
42	887	7	10000	4	1	0	4	0
40	888	7	10000	4	1	0	4	0
40	889	7	10000	4	1	0	4	0
37	890	7	10000	4	1	0	4	0
36	891	7	10000	4	1	0	4	0
36	892	7	10000	4	1	0	4	0
36	893	7	10000	4	1	0	4	0
35	894	7	10000	4	1	0	4	0
33	895	7	10000	4	1	0	4	0
32	896	7	10000	4	1	0	4	0
35	897	7	10000	4	1	0	4	0
36	898	7	10000	4	1	0	4	0
34	899	7	10000	4	1	0	4	0
33	900	7	10000	4	1	0	4	0
33	901	7	10000	4	1	0	4	0
33	902	7	10000	4	1	0	4	0
35	903	7	10000	4	1	0	4	0
38	904	7	10000	4	1	0	4	0
39	905	7	10000	4	1	0	4	0
41	906	7	10000	4	1	0	4	0
41	907	7	10000	4	1	0	4	0
40	908	7	10000	4	1	0	4	0
39	909	7	10000	4	1	0	4	0
38	910	7	10000	4	1	0	4	0
37	911	7	10000	4	1	0	4	0
38	912	7	10000	4	1	0	4	0
40	913	7	10000	4	1	0	4	0
41	914	7	10000	4	1	0	4	0
41	915	7	10000	4	1	0	4	0
40	916	7	10000	4	1	0	4	0
40	917	7	10000	4	1	0	4	0
40	918	7	10000	4	1	0	4	0
40	919	7	10000	4	1	0	4	0
37	920	7	10000	4	1	0	4	0
37	921	7	10000	4	1	0	4	0
36	922	7	10000	4	1	0	4	0
36	923	7	10000	4	1	0	4	0
37	924	7	10000	4	1	0	4	0
41	925	7	10000	4	1	0	4	0
43	926	7	10000	4	1	0	4	0
44	927	7	10000	4	1	0	4	0
45	928	7	10000	4	1	0	4	0
42	929	7	10000	4	1	0	4	0
41	930	7	10000	4	1	0	4	0
41	931	7	10000	4	1	0	4	0
42	932	7	10000	4	1	0	4	0
42	933	7	10000	4	1	0	4	0
40	934	7	10000	4	1	0	4	0
39	935	7	10000	4	1	0	4	0
39	936	7	10000	4	1	0	4	0
39	937	7	10000	4	1	0	4	0
40	938	7	10000	4	1	0	4	0
41	939	7	10000	4	1	0	4	0
40	940	7	10000	4	1	0	4	0
38	941	7	10000	4	1	0	4	0
38	942	7	10000	4	1	0	4	0
39	943	7	10000	4	1	0	4	0
40	944	7	10000	4	1	0	4	0
41	945	7	10000	4	1	0	4	0
40	946	7	10000	4	1	0	4	0
39	947	7	10000	4	1	0	4	0
37	948	7	10000	4	1	0	4	0
36	949	7	10000	4	1	0	4	0
35	950	7	10000	4	1	0	4	0
35	951	7	10000	4	1	0	4	0
35	952	7	10000	4	1	0	4	0
34	953	7	10000	4	1	0	4	0
32	954	7	10000	4	1	0	4	0
30	955	7	10000	4	1	0	4	0
29	956	7	10000	4	1	0	4	0
28	957	7	10000	4	1	0	4	0
28	958	7	10000	4	1	0	4	0
27	959	7	10000	4	1	0	4	0
26	960	7	10000	4	1	0	4	0
26	961	7	10000	4	1	0	4	0
25	962	7	10000	4	1	0	4	0
26	963	7	10000	4	1	0	4	0
27	964	7	10000	4	1	0	4	0
31	965	7	10000	4	1	0	4	0
31	966	7	10000	4	1	0	4	0
31	967	7	10000	4	1	0	4	0
30	968	7	10000	4	1	0	4	0
30	969	7	10000	4	1	0	4	0
29	970	7	10000	4	1	0	4	0
29	971	7	10000	4	1	0	4	0
29	972	7	10000	4	1	0	4	0
29	973	7	10000	4	1	0	4	0
28	974	7	10000	4	1	0	4	0
26	975	7	10000	4	1	0	4	0
25	976	7	10000	4	1	0	4	0
27	977	7	10000	4	1	0	4	0
27	978	7	10000	4	1	0	4	0
27	979	7	10000	4	1	0	4	0
27	980	7	10000	4	1	0	4	0
27	981	7	10000	4	1	0	4	0
29	982	7	10000	4	1	0	4	0
31	983	7	10000	4	1	0	4	0
32	984	7	10000	4	1	0	4	0
33	985	7	10000	4	1	0	4	0
34	986	7	10000	4	1	0	4	0
33	987	7	10000	4	1	0	4	0
32	988	7	10000	4	1	0	4	0
32	989	7	10000	4	1	0	4	0
31	990	7	10000	4	1	0	4	0
30	991	7	10000	4	1	0	4	0
31	992	7	10000	4	1	0	4	0
32	993	7	10000	4	1	0	4	0
33	994	7	10000	4	1	0	4	0
32	995	7	10000	4	1	0	4	0
32	996	7	10000	4	1	0	4	0
32	997	7	10000	4	1	0	4	0
32	998	7	10000	4	1	0	4	0
31	999	7	10000	4	1	0	4	0
31	1000	7	10000	4	1	0	4	0
43	1	7	10000	5	1	0	5	0
43	2	7	10000	5	1	0	5	0
42	3	7	10000	5	1	0	5	0
43	4	7	10000	5	1	0	5	0
43	5	7	10000	5	1	0	5	0
43	6	7	10000	5	1	0	5	0
42	7	7	10000	5	1	0	5	0
40	8	7	10000	5	1	0	5	0
39	9	7	10000	5	1	0	5	0
37	10	7	10000	5	1	0	5	0
35	11	7	10000	5	1	0	5	0
34	12	7	10000	5	1	0	5	0
35	13	7	10000	5	1	0	5	0
34	14	7	10000	5	1	0	5	0
32	15	7	10000	5	1	0	5	0
31	16	7	10000	5	1	0	5	0
30	17	7	10000	5	1	0	5	0
28	18	7	10000	5	1	0	5	0
28	19	7	10000	5	1	0	5	0
27	20	7	10000	5	1	0	5	0
26	20	7	10000	5	1	0	5	0
25	21	7	10000	5	1	0	5	0
24	23	7	10000	5	1	0	5	0
23	24	7	10000	5	1	0	5	0
22	25	7	10000	5	1	0	5	0
22	26	7	10000	5	1	0	5	0
22	27	7	10000	5	1	0	5	0
22	28	7	10000	5	1	0	5	0
22	29	7	10000	5	1	0	5	0
21	30	7	10000	5	1	0	5	0
20	30	7	10000	5	1	0	5	0
20	31	7	10000	5	1	0	5	0
21	33	7	10000	5	1	0	5	0
20	34	7	10000	5	1	0	5	0
20	35	7	10000	5	1	0	5	0
19	36	7	10000	5	1	0	5	0
20	37	7	10000	5	1	0	5	0
22	38	7	10000	5	1	0	5	0
22	39	7	10000	5	1	0	5	0
23	40	7	10000	5	1	0	5	0
23	40	7	10000	5	1	0	5	0
23	41	7	10000	5	1	0	5	0
22	43	7	10000	5	1	0	5	0
23	44	7	10000	5	1	0	5	0
22	45	7	10000	5	1	0	5	0
22	46	7	10000	5	1	0	5	0
22	47	7	10000	5	1	0	5	0
21	48	7	10000	5	1	0	5	0
21	49	7	10000	5	1	0	5	0
21	50	7	10000	5	1	0	5	0
20	50	7	10000	5	1	0	5	0
19	51	7	10000	5	1	0	5	0
21	53	7	10000	5	1	0	5	0
20	54	7	10000	5	1	0	5	0
20	55	7	10000	5	1	0	5	0
21	56	7	10000	5	1	0	5	0
22	57	7	10000	5	1	0	5	0
24	58	7	10000	5	1	0	5	0
25	59	7	10000	5	1	0	5	0
25	60	7	10000	5	1	0	5	0
25	60	7	10000	5	1	0	5	0
25	61	7	10000	5	1	0	5	0
22	63	7	10000	5	1	0	5	0
22	64	7	10000	5	1	0	5	0
21	65	7	10000	5	1	0	5	0
22	66	7	10000	5	1	0	5	0
22	67	7	10000	5	1	0	5	0
23	68	7	10000	5	1	0	5	0
23	69	7	10000	5	1	0	5	0
22	70	7	10000	5	1	0	5	0
21	70	7	10000	5	1	0	5	0
22	71	7	10000	5	1	0	5	0
24	73	7	10000	5	1	0	5	0
23	74	7	10000	5	1	0	5	0
23	75	7	10000	5	1	0	5	0
23	76	7	10000	5	1	0	5	0
24	77	7	10000	5	1	0	5	0
23	78	7	10000	5	1	0	5	0
22	79	7	10000	5	1	0	5	0
23	80	7	10000	5	1	0	5	0
22	80	7	10000	5	1	0	5	0
22	81	7	10000	5	1	0	5	0
21	83	7	10000	5	1	0	5	0
21	84	7	10000	5	1	0	5	0
22	85	7	10000	5	1	0	5	0
21	86	7	10000	5	1	0	5	0
21	87	7	10000	5	1	0	5	0
20	88	7	10000	5	1	0	5	0
20	89	7	10000	5	1	0	5	0
20	90	7	10000	5	1	0	5	0
20	90	7	10000	5	1	0	5	0
20	91	7	10000	5	1	0	5	0
21	93	7	10000	5	1	0	5	0
21	94	7	10000	5	1	0	5	0
21	95	7	10000	5	1	0	5	0
20	96	7	10000	5	1	0	5	0
20	97	7	10000	5	1	0	5	0
20	98	7	10000	5	1	0	5	0
20	99	7	10000	5	1	0	5	0
20	100	7	10000	5	1	0	5	0
20	100	7	10000	5	1	0	5	0
20	101	7	10000	5	1	0	5	0
18	103	7	10000	5	1	0	5	0
18	104	7	10000	5	1	0	5	0
19	105	7	10000	5	1	0	5	0
20	106	7	10000	5	1	0	5	0
21	107	7	10000	5	1	0	5	0
22	108	7	10000	5	1	0	5	0
21	109	7	10000	5	1	0	5	0
20	110	7	10000	5	1	0	5	0
20	110	7	10000	5	1	0	5	0
19	111	7	10000	5	1	0	5	0
20	113	7	10000	5	1	0	5	0
23	114	7	10000	5	1	0	5	0
23	115	7	10000	5	1	0	5	0
22	116	7	10000	5	1	0	5	0
24	117	7	10000	5	1	0	5	0
24	118	7	10000	5	1	0	5	0
24	119	7	10000	5	1	0	5	0
24	120	7	10000	5	1	0	5	0
23	120	7	10000	5	1	0	5	0
23	121	7	10000	5	1	0	5	0
20	123	7	10000	5	1	0	5	0
21	124	7	10000	5	1	0	5	0
22	125	7	10000	5	1	0	5	0
24	126	7	10000	5	1	0	5	0
27	127	7	10000	5	1	0	5	0
27	128	7	10000	5	1	0	5	0
27	129	7	10000	5	1	0	5	0
27	130	7	10000	5	1	0	5	0
28	130	7	10000	5	1	0	5	0
30	131	7	10000	5	1	0	5	0
33	133	7	10000	5	1	0	5	0
32	134	7	10000	5	1	0	5	0
35	135	7	10000	5	1	0	5	0
39	136	7	10000	5	1	0	5	0
41	137	7	10000	5	1	0	5	0
44	138	7	10000	5	1	0	5	0
50	139	7	10000	5	1	0	5	0
53	140	7	10000	5	1	0	5	0
56	140	7	10000	5	1	0	5	0
56	141	7	10000	5	1	0	5	0
55	143	7	10000	5	1	0	5	0
54	144	7	10000	5	1	0	5	0
57	145	7	10000	5	1	0	5	0
63	146	7	10000	5	1	0	5	0
71	147	7	10000	5	1	0	5	0
76	148	7	10000	5	1	0	5	0
75	149	7	10000	5	1	0	5	0
72	150	7	10000	5	1	0	5	0
70	150	7	10000	5	1	0	5	0
72	151	7	10000	5	1	0	5	0
78	153	7	10000	5	1	0	5	0
79	154	7	10000	5	1	0	5	0
78	155	7	10000	5	1	0	5	0
76	156	7	10000	5	1	0	5	0
74	157	7	10000	5	1	0	5	0
73	158	7	10000	5	1	0	5	0
71	159	7	10000	5	1	0	5	0
72	160	7	10000	5	1	0	5	0
74	160	7	10000	5	1	0	5	0
75	161	7	10000	5	1	0	5	0
72	163	7	10000	5	1	0	5	0
69	164	7	10000	5	1	0	5	0
66	165	7	10000	5	1	0	5	0
64	166	7	10000	5	1	0	5	0
62	167	7	10000	5	1	0	5	0
63	168	7	10000	5	1	0	5	0
66	169	7	10000	5	1	0	5	0
67	170	7	10000	5	1	0	5	0
69	170	7	10000	5	1	0	5	0
72	171	7	10000	5	1	0	5	0
74	173	7	10000	5	1	0	5	0
74	174	7	10000	5	1	0	5	0
76	175	7	10000	5	1	0	5	0
79	176	7	10000	5	1	0	5	0
85	177	7	10000	5	1	0	5	0
91	178	7	10000	5	1	0	5	0
91	179	7	10000	5	1	0	5	0
92	180	7	10000	5	1	0	5	0
91	180	7	10000	5	1	0	5	0
89	181	7	10000	5	1	0	5	0
86	183	7	10000	5	1	0	5	0
86	184	7	10000	5	1	0	5	0
87	185	7	10000	5	1	0	5	0
87	186	7	10000	5	1	0	5	0
87	187	7	10000	5	1	0	5	0
87	188	7	10000	5	1	0	5	0
85	189	7	10000	5	1	0	5	0
80	190	7	10000	5	1	0	5	0
76	190	7	10000	5	1	0	5	0
72	191	7	10000	5	1	0	5	0
71	193	7	10000	5	1	0	5	0
69	194	7	10000	5	1	0	5	0
66	195	7	10000	5	1	0	5	0
63	196	7	10000	5	1	0	5	0
63	197	7	10000	5	1	0	5	0
63	198	7	10000	5	1	0	5	0
63	199	7	10000	5	1	0	5	0
64	200	7	10000	5	1	0	5	0
63	200	7	10000	5	1	0	5	0
60	201	7	10000	5	1	0	5	0
56	203	7	10000	5	1	0	5	0
55	204	7	10000	5	1	0	5	0
53	205	7	10000	5	1	0	5	0
52	206	7	10000	5	1	0	5	0
51	207	7	10000	5	1	0	5	0
50	208	7	10000	5	1	0	5	0
49	209	7	10000	5	1	0	5	0
47	210	7	10000	5	1	0	5	0
45	210	7	10000	5	1	0	5	0
44	211	7	10000	5	1	0	5	0
44	213	7	10000	5	1	0	5	0
44	214	7	10000	5	1	0	5	0
42	215	7	10000	5	1	0	5	0
40	216	7	10000	5	1	0	5	0
39	217	7	10000	5	1	0	5	0
38	218	7	10000	5	1	0	5	0
36	219	7	10000	5	1	0	5	0
38	220	7	10000	5	1	0	5	0
39	220	7	10000	5	1	0	5	0
38	221	7	10000	5	1	0	5	0
36	223	7	10000	5	1	0	5	0
37	224	7	10000	5	1	0	5	0
37	225	7	10000	5	1	0	5	0
37	226	7	10000	5	1	0	5	0
37	227	7	10000	5	1	0	5	0
35	228	7	10000	5	1	0	5	0
35	229	7	10000	5	1	0	5	0
34	230	7	10000	5	1	0	5	0
32	230	7	10000	5	1	0	5	0
31	231	7	10000	5	1	0	5	0
32	233	7	10000	5	1	0	5	0
32	234	7	10000	5	1	0	5	0
32	235	7	10000	5	1	0	5	0
32	236	7	10000	5	1	0	5	0
31	237	7	10000	5	1	0	5	0
30	238	7	10000	5	1	0	5	0
31	239	7	10000	5	1	0	5	0
31	240	7	10000	5	1	0	5	0
30	240	7	10000	5	1	0	5	0
31	241	7	10000	5	1	0	5	0
28	243	7	10000	5	1	0	5	0
27	244	7	10000	5	1	0	5	0
27	245	7	10000	5	1	0	5	0
26	246	7	10000	5	1	0	5	0
26	247	7	10000	5	1	0	5	0
27	248	7	10000	5	1	0	5	0
27	249	7	10000	5	1	0	5	0
26	250	7	10000	5	1	0	5	0
25	250	7	10000	5	1	0	5	0
24	251	7	10000	5	1	0	5	0
25	253	7	10000	5	1	0	5	0
24	254	7	10000	5	1	0	5	0
23	255	7	10000	5	1	0	5	0
22	256	7	10000	5	1	0	5	0
22	257	7	10000	5	1	0	5	0
22	258	7	10000	5	1	0	5	0
23	259	7	10000	5	1	0	5	0
23	260	7	10000	5	1	0	5	0
23	260	7	10000	5	1	0	5	0
22	261	7	10000	5	1	0	5	0
20	263	7	10000	5	1	0	5	0
20	264	7	10000	5	1	0	5	0
20	265	7	10000	5	1	0	5	0
21	266	7	10000	5	1	0	5	0
21	267	7	10000	5	1	0	5	0
20	268	7	10000	5	1	0	5	0
20	269	7	10000	5	1	0	5	0
21	270	7	10000	5	1	0	5	0
22	270	7	10000	5	1	0	5	0
21	271	7	10000	5	1	0	5	0
23	273	7	10000	5	1	0	5	0
24	274	7	10000	5	1	0	5	0
23	275	7	10000	5	1	0	5	0
22	276	7	10000	5	1	0	5	0
22	277	7	10000	5	1	0	5	0
21	278	7	10000	5	1	0	5	0
22	279	7	10000	5	1	0	5	0
24	280	7	10000	5	1	0	5	0
26	280	7	10000	5	1	0	5	0
26	281	7	10000	5	1	0	5	0
24	283	7	10000	5	1	0	5	0
23	284	7	10000	5	1	0	5	0
24	285	7	10000	5	1	0	5	0
23	286	7	10000	5	1	0	5	0
22	287	7	10000	5	1	0	5	0
23	288	7	10000	5	1	0	5	0
21	289	7	10000	5	1	0	5	0
22	290	7	10000	5	1	0	5	0
22	290	7	10000	5	1	0	5	0
22	291	7	10000	5	1	0	5	0
25	293	7	10000	5	1	0	5	0
25	294	7	10000	5	1	0	5	0
24	295	7	10000	5	1	0	5	0
23	296	7	10000	5	1	0	5	0
23	297	7	10000	5	1	0	5	0
21	298	7	10000	5	1	0	5	0
21	299	7	10000	5	1	0	5	0
24	300	7	10000	5	1	0	5	0
25	300	7	10000	5	1	0	5	0
25	301	7	10000	5	1	0	5	0
22	303	7	10000	5	1	0	5	0
23	304	7	10000	5	1	0	5	0
25	305	7	10000	5	1	0	5	0
26	306	7	10000	5	1	0	5	0
27	307	7	10000	5	1	0	5	0
29	308	7	10000	5	1	0	5	0
34	309	7	10000	5	1	0	5	0
39	310	7	10000	5	1	0	5	0
45	310	7	10000	5	1	0	5	0
49	311	7	10000	5	1	0	5	0
53	313	7	10000	5	1	0	5	0
54	314	7	10000	5	1	0	5	0
52	315	7	10000	5	1	0	5	0
50	316	7	10000	5	1	0	5	0
48	317	7	10000	5	1	0	5	0
47	318	7	10000	5	1	0	5	0
45	319	7	10000	5	1	0	5	0
44	320	7	10000	5	1	0	5	0
43	320	7	10000	5	1	0	5	0
44	321	7	10000	5	1	0	5	0
43	323	7	10000	5	1	0	5	0
43	324	7	10000	5	1	0	5	0
43	325	7	10000	5	1	0	5	0
42	326	7	10000	5	1	0	5	0
43	327	7	10000	5	1	0	5	0
43	328	7	10000	5	1	0	5	0
42	329	7	10000	5	1	0	5	0
41	330	7	10000	5	1	0	5	0
39	330	7	10000	5	1	0	5	0
38	331	7	10000	5	1	0	5	0
39	333	7	10000	5	1	0	5	0
38	334	7	10000	5	1	0	5	0
37	335	7	10000	5	1	0	5	0
35	336	7	10000	5	1	0	5	0
35	337	7	10000	5	1	0	5	0
34	338	7	10000	5	1	0	5	0
33	339	7	10000	5	1	0	5	0
32	340	7	10000	5	1	0	5	0
32	340	7	10000	5	1	0	5	0
31	341	7	10000	5	1	0	5	0
30	343	7	10000	5	1	0	5	0
31	344	7	10000	5	1	0	5	0
31	345	7	10000	5	1	0	5	0
32	346	7	10000	5	1	0	5	0
31	347	7	10000	5	1	0	5	0
30	348	7	10000	5	1	0	5	0
31	349	7	10000	5	1	0	5	0
30	350	7	10000	5	1	0	5	0
29	350	7	10000	5	1	0	5	0
29	351	7	10000	5	1	0	5	0
29	353	7	10000	5	1	0	5	0
29	354	7	10000	5	1	0	5	0
31	355	7	10000	5	1	0	5	0
29	356	7	10000	5	1	0	5	0
29	357	7	10000	5	1	0	5	0
32	358	7	10000	5	1	0	5	0
33	359	7	10000	5	1	0	5	0
35	360	7	10000	5	1	0	5	0
34	360	7	10000	5	1	0	5	0
35	361	7	10000	5	1	0	5	0
33	363	7	10000	5	1	0	5	0
35	364	7	10000	5	1	0	5	0
38	365	7	10000	5	1	0	5	0
45	366	7	10000	5	1	0	5	0
49	367	7	10000	5	1	0	5	0
50	368	7	10000	5	1	0	5	0
54	369	7	10000	5	1	0	5	0
54	370	7	10000	5	1	0	5	0
56	370	7	10000	5	1	0	5	0
58	371	7	10000	5	1	0	5	0
58	373	7	10000	5	1	0	5	0
60	374	7	10000	5	1	0	5	0
75	375	7	10000	5	1	0	5	0
102	376	7	10000	5	1	0	5	0
112	377	7	10000	5	1	0	5	0
122	378	7	10000	5	1	0	5	0
151	379	7	10000	5	1	0	5	0
190	380	7	10000	5	1	0	5	0
200	380	7	10000	5	1	0	5	0
217	381	7	10000	5	1	0	5	0
226	383	7	10000	5	1	0	5	0
219	384	7	10000	5	1	0	5	0
227	385	7	10000	5	1	0	5	0
237	386	7	10000	5	1	0	5	0
236	387	7	10000	5	1	0	5	0
233	388	7	10000	5	1	0	5	0
231	389	7	10000	5	1	0	5	0
222	390	7	10000	5	1	0	5	0
216	390	7	10000	5	1	0	5	0
216	391	7	10000	5	1	0	5	0
222	393	7	10000	5	1	0	5	0
239	394	7	10000	5	1	0	5	0
258	395	7	10000	5	1	0	5	0
265	396	7	10000	5	1	0	5	0
261	397	7	10000	5	1	0	5	0
253	398	7	10000	5	1	0	5	0
242	399	7	10000	5	1	0	5	0
232	400	7	10000	5	1	0	5	0
224	400	7	10000	5	1	0	5	0
221	401	7	10000	5	1	0	5	0
216	403	7	10000	5	1	0	5	0
211	404	7	10000	5	1	0	5	0
206	405	7	10000	5	1	0	5	0
213	406	7	10000	5	1	0	5	0
222	407	7	10000	5	1	0	5	0
227	408	7	10000	5	1	0	5	0
228	409	7	10000	5	1	0	5	0
222	410	7	10000	5	1	0	5	0
228	410	7	10000	5	1	0	5	0
235	411	7	10000	5	1	0	5	0
237	413	7	10000	5	1	0	5	0
228	414	7	10000	5	1	0	5	0
220	415	7	10000	5	1	0	5	0
213	416	7	10000	5	1	0	5	0
206	417	7	10000	5	1	0	5	0
203	418	7	10000	5	1	0	5	0
199	419	7	10000	5	1	0	5	0
192	420	7	10000	5	1	0	5	0
186	420	7	10000	5	1	0	5	0
189	421	7	10000	5	1	0	5	0
185	423	7	10000	5	1	0	5	0
178	424	7	10000	5	1	0	5	0
174	425	7	10000	5	1	0	5	0
173	426	7	10000	5	1	0	5	0
176	427	7	10000	5	1	0	5	0
180	428	7	10000	5	1	0	5	0
182	429	7	10000	5	1	0	5	0
180	430	7	10000	5	1	0	5	0
174	430	7	10000	5	1	0	5	0
168	431	7	10000	5	1	0	5	0
163	433	7	10000	5	1	0	5	0
158	434	7	10000	5	1	0	5	0
155	435	7	10000	5	1	0	5	0
154	436	7	10000	5	1	0	5	0
151	437	7	10000	5	1	0	5	0
147	438	7	10000	5	1	0	5	0
140	439	7	10000	5	1	0	5	0
136	440	7	10000	5	1	0	5	0
131	440	7	10000	5	1	0	5	0
129	441	7	10000	5	1	0	5	0
124	443	7	10000	5	1	0	5	0
121	444	7	10000	5	1	0	5	0
117	445	7	10000	5	1	0	5	0
113	446	7	10000	5	1	0	5	0
112	447	7	10000	5	1	0	5	0
110	448	7	10000	5	1	0	5	0
108	449	7	10000	5	1	0	5	0
104	450	7	10000	5	1	0	5	0
102	450	7	10000	5	1	0	5	0
102	451	7	10000	5	1	0	5	0
103	453	7	10000	5	1	0	5	0
101	454	7	10000	5	1	0	5	0
97	455	7	10000	5	1	0	5	0
93	456	7	10000	5	1	0	5	0
93	457	7	10000	5	1	0	5	0
92	458	7	10000	5	1	0	5	0
92	459	7	10000	5	1	0	5	0
91	460	7	10000	5	1	0	5	0
87	460	7	10000	5	1	0	5	0
87	461	7	10000	5	1	0	5	0
86	463	7	10000	5	1	0	5	0
85	464	7	10000	5	1	0	5	0
83	465	7	10000	5	1	0	5	0
80	466	7	10000	5	1	0	5	0
79	467	7	10000	5	1	0	5	0
79	468	7	10000	5	1	0	5	0
79	469	7	10000	5	1	0	5	0
76	470	7	10000	5	1	0	5	0
73	470	7	10000	5	1	0	5	0
70	471	7	10000	5	1	0	5	0
69	473	7	10000	5	1	0	5	0
67	474	7	10000	5	1	0	5	0
63	475	7	10000	5	1	0	5	0
61	476	7	10000	5	1	0	5	0
59	477	7	10000	5	1	0	5	0
58	478	7	10000	5	1	0	5	0
56	479	7	10000	5	1	0	5	0
55	480	7	10000	5	1	0	5	0
53	480	7	10000	5	1	0	5	0
53	481	7	10000	5	1	0	5	0
52	483	7	10000	5	1	0	5	0
50	484	7	10000	5	1	0	5	0
48	485	7	10000	5	1	0	5	0
47	486	7	10000	5	1	0	5	0
45	487	7	10000	5	1	0	5	0
44	488	7	10000	5	1	0	5	0
44	489	7	10000	5	1	0	5	0
42	490	7	10000	5	1	0	5	0
40	490	7	10000	5	1	0	5	0
38	491	7	10000	5	1	0	5	0
39	493	7	10000	5	1	0	5	0
38	494	7	10000	5	1	0	5	0
38	495	7	10000	5	1	0	5	0
39	496	7	10000	5	1	0	5	0
39	497	7	10000	5	1	0	5	0
38	498	7	10000	5	1	0	5	0
38	499	7	10000	5	1	0	5	0
38	500	7	10000	5	1	0	5	0
38	500	7	10000	5	1	0	5	0
37	501	7	10000	5	1	0	5	0
35	503	7	10000	5	1	0	5	1
34	504	7	10000	5	1	0	5	1
34	505	7	10000	5	1	0	5	1
34	506	7	10000	5	1	0	5	1
33	507	7	10000	5	1	0	5	1
32	508	7	10000	5	1	0	5	1
31	509	7	10000	5	1	0	5	1
29	510	7	10000	5	1	0	5	1
28	510	7	10000	5	1	0	5	1
28	511	7	10000	5	1	0	5	1
31	513	7	10000	5	1	0	5	1
32	514	7	10000	5	1	0	5	1
30	515	7	10000	5	1	0	5	1
29	516	7	10000	5	1	0	5	1
29	517	7	10000	5	1	0	5	1
29	518	7	10000	5	1	0	5	1
28	519	7	10000	5	1	0	5	1
28	520	7	10000	5	1	0	5	1
27	520	7	10000	5	1	0	5	1
26	521	7	10000	5	1	0	5	1
24	523	7	10000	5	1	0	5	1
23	524	7	10000	5	1	0	5	1
23	525	7	10000	5	1	0	5	1
22	526	7	10000	5	1	0	5	1
23	527	7	10000	5	1	0	5	1
24	528	7	10000	5	1	0	5	1
25	529	7	10000	5	1	0	5	1
23	530	7	10000	5	1	0	5	1
22	530	7	10000	5	1	0	5	1
22	531	7	10000	5	1	0	5	1
23	533	7	10000	5	1	0	5	1
24	534	7	10000	5	1	0	5	1
24	535	7	10000	5	1	0	5	1
24	536	7	10000	5	1	0	5	1
23	537	7	10000	5	1	0	5	1
23	538	7	10000	5	1	0	5	1
22	539	7	10000	5	1	0	5	1
24	540	7	10000	5	1	0	5	1
25	540	7	10000	5	1	0	5	1
24	541	7	10000	5	1	0	5	1
22	543	7	10000	5	1	0	5	1
23	544	7	10000	5	1	0	5	1
24	545	7	10000	5	1	0	5	1
24	546	7	10000	5	1	0	5	1
24	547	7	10000	5	1	0	5	1
23	548	7	10000	5	1	0	5	1
23	549	7	10000	5	1	0	5	1
23	550	7	10000	5	1	0	5	1
22	550	7	10000	5	1	0	5	1
22	551	7	10000	5	1	0	5	1
24	553	7	10000	5	1	0	5	0
23	554	7	10000	5	1	0	5	0
23	555	7	10000	5	1	0	5	0
23	556	7	10000	5	1	0	5	0
25	557	7	10000	5	1	0	5	0
25	558	7	10000	5	1	0	5	0
24	559	7	10000	5	1	0	5	0
25	560	7	10000	5	1	0	5	0
26	560	7	10000	5	1	0	5	0
25	561	7	10000	5	1	0	5	0
24	563	7	10000	5	1	0	5	0
24	564	7	10000	5	1	0	5	0
23	565	7	10000	5	1	0	5	0
25	566	7	10000	5	1	0	5	0
26	567	7	10000	5	1	0	5	0
25	568	7	10000	5	1	0	5	0
25	569	7	10000	5	1	0	5	0
23	570	7	10000	5	1	0	5	0
23	570	7	10000	5	1	0	5	0
22	571	7	10000	5	1	0	5	0
26	573	7	10000	5	1	0	5	0
26	574	7	10000	5	1	0	5	0
26	575	7	10000	5	1	0	5	0
24	576	7	10000	5	1	0	5	0
24	577	7	10000	5	1	0	5	0
24	578	7	10000	5	1	0	5	0
24	579	7	10000	5	1	0	5	0
24	580	7	10000	5	1	0	5	0
24	580	7	10000	5	1	0	5	0
23	581	7	10000	5	1	0	5	0
21	583	7	10000	5	1	0	5	0
20	584	7	10000	5	1	0	5	0
21	585	7	10000	5	1	0	5	0
26	586	7	10000	5	1	0	5	0
28	587	7	10000	5	1	0	5	0
35	588	7	10000	5	1	0	5	0
41	589	7	10000	5	1	0	5	0
41	590	7	10000	5	1	0	5	0
50	590	7	10000	5	1	0	5	0
64	591	7	10000	5	1	0	5	0
97	593	7	10000	5	1	0	5	0
147	594	7	10000	5	1	0	5	0
160	595	7	10000	5	1	0	5	0
157	596	7	10000	5	1	0	5	0
154	597	7	10000	5	1	0	5	0
154	598	7	10000	5	1	0	5	0
171	599	7	10000	5	1	0	5	0
197	600	7	10000	5	1	0	5	0
220	600	7	10000	5	1	0	5	0
219	601	7	10000	5	1	0	5	0
214	603	7	10000	5	1	0	5	0
235	604	7	10000	5	1	0	5	0
252	605	7	10000	5	1	0	5	0
289	606	7	10000	5	1	0	5	0
288	607	7	10000	5	1	0	5	0
287	608	7	10000	5	1	0	5	0
295	609	7	10000	5	1	0	5	0
287	610	7	10000	5	1	0	5	0
308	610	7	10000	5	1	0	5	0
343	611	7	10000	5	1	0	5	0
342	613	7	10000	5	1	0	5	0
347	614	7	10000	5	1	0	5	0
357	615	7	10000	5	1	0	5	0
356	616	7	10000	5	1	0	5	0
363	617	7	10000	5	1	0	5	0
369	618	7	10000	5	1	0	5	0
371	619	7	10000	5	1	0	5	0
484	620	7	10000	5	1	0	5	0
579	620	7	10000	5	1	0	5	0
620	621	7	10000	5	1	0	5	0
606	623	7	10000	5	1	0	5	0
619	624	7	10000	5	1	0	5	0
668	625	7	10000	5	1	0	5	0
725	626	7	10000	5	1	0	5	0
760	627	7	10000	5	1	0	5	0
779	628	7	10000	5	1	0	5	0
788	629	7	10000	5	1	0	5	0
779	630	7	10000	5	1	0	5	0
759	630	7	10000	5	1	0	5	0
730	631	7	10000	5	1	0	5	0
701	633	7	10000	5	1	0	5	0
672	634	7	10000	5	1	0	5	0
642	635	7	10000	5	1	0	5	0
611	636	7	10000	5	1	0	5	0
584	637	7	10000	5	1	0	5	0
557	638	7	10000	5	1	0	5	0
532	639	7	10000	5	1	0	5	0
509	640	7	10000	5	1	0	5	0
486	640	7	10000	5	1	0	5	0
463	641	7	10000	5	1	0	5	0
440	643	7	10000	5	1	0	5	0
420	644	7	10000	5	1	0	5	0
402	645	7	10000	5	1	0	5	0
389	646	7	10000	5	1	0	5	0
379	647	7	10000	5	1	0	5	0
364	648	7	10000	5	1	0	5	0
351	649	7	10000	5	1	0	5	0
334	650	7	10000	5	1	0	5	0
320	650	7	10000	5	1	0	5	0
305	651	7	10000	5	1	0	5	0
296	653	7	10000	5	1	0	5	0
284	654	7	10000	5	1	0	5	0
275	655	7	10000	5	1	0	5	0
267	656	7	10000	5	1	0	5	0
257	657	7	10000	5	1	0	5	0
245	658	7	10000	5	1	0	5	0
235	659	7	10000	5	1	0	5	0
226	660	7	10000	5	1	0	5	0
217	660	7	10000	5	1	0	5	0
210	661	7	10000	5	1	0	5	0
201	663	7	10000	5	1	0	5	0
192	664	7	10000	5	1	0	5	0
186	665	7	10000	5	1	0	5	0
182	666	7	10000	5	1	0	5	0
175	667	7	10000	5	1	0	5	0
168	668	7	10000	5	1	0	5	0
165	669	7	10000	5	1	0	5	0
160	670	7	10000	5	1	0	5	0
159	670	7	10000	5	1	0	5	0
157	671	7	10000	5	1	0	5	0
159	673	7	10000	5	1	0	5	0
157	674	7	10000	5	1	0	5	0
154	675	7	10000	5	1	0	5	0
148	676	7	10000	5	1	0	5	0
142	677	7	10000	5	1	0	5	0
140	678	7	10000	5	1	0	5	0
137	679	7	10000	5	1	0	5	0
132	680	7	10000	5	1	0	5	0
126	680	7	10000	5	1	0	5	0
125	681	7	10000	5	1	0	5	0
125	683	7	10000	5	1	0	5	0
129	684	7	10000	5	1	0	5	0
135	685	7	10000	5	1	0	5	0
137	686	7	10000	5	1	0	5	0
139	687	7	10000	5	1	0	5	0
140	688	7	10000	5	1	0	5	0
141	689	7	10000	5	1	0	5	0
143	690	7	10000	5	1	0	5	0
147	690	7	10000	5	1	0	5	0
149	691	7	10000	5	1	0	5	0
152	693	7	10000	5	1	0	5	0
155	694	7	10000	5	1	0	5	0
158	695	7	10000	5	1	0	5	0
159	696	7	10000	5	1	0	5	0
162	697	7	10000	5	1	0	5	0
163	698	7	10000	5	1	0	5	0
163	699	7	10000	5	1	0	5	0
162	700	7	10000	5	1	0	5	0
160	700	7	10000	5	1	0	5	0
158	701	7	10000	5	1	0	5	0
157	703	7	10000	5	1	0	5	0
159	704	7	10000	5	1	0	5	0
162	705	7	10000	5	1	0	5	0
164	706	7	10000	5	1	0	5	0
166	707	7	10000	5	1	0	5	0
168	708	7	10000	5	1	0	5	0
172	709	7	10000	5	1	0	5	0
173	710	7	10000	5	1	0	5	0
173	710	7	10000	5	1	0	5	0
170	711	7	10000	5	1	0	5	0
169	713	7	10000	5	1	0	5	0
167	714	7	10000	5	1	0	5	0
167	715	7	10000	5	1	0	5	0
166	716	7	10000	5	1	0	5	0
165	717	7	10000	5	1	0	5	0
162	718	7	10000	5	1	0	5	0
156	719	7	10000	5	1	0	5	0
152	720	7	10000	5	1	0	5	0
149	720	7	10000	5	1	0	5	0
142	721	7	10000	5	1	0	5	0
135	723	7	10000	5	1	0	5	0
132	724	7	10000	5	1	0	5	0
127	725	7	10000	5	1	0	5	0
124	726	7	10000	5	1	0	5	0
120	727	7	10000	5	1	0	5	0
117	728	7	10000	5	1	0	5	0
115	729	7	10000	5	1	0	5	0
116	730	7	10000	5	1	0	5	0
117	730	7	10000	5	1	0	5	0
116	731	7	10000	5	1	0	5	0
117	733	7	10000	5	1	0	5	0
115	734	7	10000	5	1	0	5	0
111	735	7	10000	5	1	0	5	0
107	736	7	10000	5	1	0	5	0
103	737	7	10000	5	1	0	5	0
101	738	7	10000	5	1	0	5	0
97	739	7	10000	5	1	0	5	0
93	740	7	10000	5	1	0	5	0
89	740	7	10000	5	1	0	5	0
86	741	7	10000	5	1	0	5	0
81	743	7	10000	5	1	0	5	0
79	744	7	10000	5	1	0	5	0
77	745	7	10000	5	1	0	5	0
76	746	7	10000	5	1	0	5	0
72	747	7	10000	5	1	0	5	0
70	748	7	10000	5	1	0	5	0
68	749	7	10000	5	1	0	5	0
67	750	7	10000	5	1	0	5	0
65	750	7	10000	5	1	0	5	0
63	751	7	10000	5	1	0	5	0
63	753	7	10000	5	1	0	5	0
63	754	7	10000	5	1	0	5	0
61	755	7	10000	5	1	0	5	0
61	756	7	10000	5	1	0	5	0
61	757	7	10000	5	1	0	5	0
62	758	7	10000	5	1	0	5	0
61	759	7	10000	5	1	0	5	0
61	760	7	10000	5	1	0	5	0
59	760	7	10000	5	1	0	5	0
58	761	7	10000	5	1	0	5	0
56	763	7	10000	5	1	0	5	0
57	764	7	10000	5	1	0	5	0
57	765	7	10000	5	1	0	5	0
57	766	7	10000	5	1	0	5	0
54	767	7	10000	5	1	0	5	0
52	768	7	10000	5	1	0	5	0
50	769	7	10000	5	1	0	5	0
