value	EMG	Stimulus	EMG_sensitivity	Total_Trial_Nr	practise	acq	probe_nr	Startle_Probe
41	1	0	10000	1	1	0	1	0
40	2	0	10000	1	1	0	1	0
42	3	0	10000	1	1	0	1	0
44	4	0	10000	1	1	0	1	0
43	5	0	10000	1	1	0	1	0
41	6	0	10000	1	1	0	1	0
39	7	0	10000	1	1	0	1	0
42	8	0	10000	1	1	0	1	0
41	9	0	10000	1	1	0	1	0
40	10	0	10000	1	1	0	1	0
39	11	0	10000	1	1	0	1	0
39	12	0	10000	1	1	0	1	0
38	13	0	10000	1	1	0	1	0
38	14	0	10000	1	1	0	1	0
39	15	0	10000	1	1	0	1	0
39	16	0	10000	1	1	0	1	0
38	17	0	10000	1	1	0	1	0
36	18	0	10000	1	1	0	1	0
36	19	0	10000	1	1	0	1	0
35	20	0	10000	1	1	0	1	0
34	21	0	10000	1	1	0	1	0
34	22	0	10000	1	1	0	1	0
33	23	0	10000	1	1	0	1	0
33	24	0	10000	1	1	0	1	0
31	25	0	10000	1	1	0	1	0
31	26	0	10000	1	1	0	1	0
33	27	0	10000	1	1	0	1	0
34	28	0	10000	1	1	0	1	0
34	29	0	10000	1	1	0	1	0
33	30	0	10000	1	1	0	1	0
31	31	0	10000	1	1	0	1	0
31	32	0	10000	1	1	0	1	0
30	33	0	10000	1	1	0	1	0
30	34	0	10000	1	1	0	1	0
30	35	0	10000	1	1	0	1	0
30	36	0	10000	1	1	0	1	0
29	37	0	10000	1	1	0	1	0
27	38	0	10000	1	1	0	1	0
29	39	0	10000	1	1	0	1	0
31	40	0	10000	1	1	0	1	0
30	41	0	10000	1	1	0	1	0
30	42	0	10000	1	1	0	1	0
30	43	0	10000	1	1	0	1	0
31	44	0	10000	1	1	0	1	0
31	45	0	10000	1	1	0	1	0
32	46	0	10000	1	1	0	1	0
32	47	0	10000	1	1	0	1	0
33	48	0	10000	1	1	0	1	0
32	49	0	10000	1	1	0	1	0
34	50	0	10000	1	1	0	1	0
34	51	0	10000	1	1	0	1	0
35	52	0	10000	1	1	0	1	0
35	53	0	10000	1	1	0	1	0
38	54	0	10000	1	1	0	1	0
38	55	0	10000	1	1	0	1	0
36	56	0	10000	1	1	0	1	0
40	57	0	10000	1	1	0	1	0
39	58	0	10000	1	1	0	1	0
41	59	0	10000	1	1	0	1	0
44	60	0	10000	1	1	0	1	0
44	61	0	10000	1	1	0	1	0
44	62	0	10000	1	1	0	1	0
45	63	0	10000	1	1	0	1	0
45	64	0	10000	1	1	0	1	0
46	65	0	10000	1	1	0	1	0
47	66	0	10000	1	1	0	1	0
46	67	0	10000	1	1	0	1	0
51	68	0	10000	1	1	0	1	0
53	69	0	10000	1	1	0	1	0
54	70	0	10000	1	1	0	1	0
57	71	0	10000	1	1	0	1	0
57	72	0	10000	1	1	0	1	0
57	73	0	10000	1	1	0	1	0
56	74	0	10000	1	1	0	1	0
57	75	0	10000	1	1	0	1	0
57	76	0	10000	1	1	0	1	0
62	77	0	10000	1	1	0	1	0
63	78	0	10000	1	1	0	1	0
67	79	0	10000	1	1	0	1	0
70	80	0	10000	1	1	0	1	0
70	81	0	10000	1	1	0	1	0
75	82	0	10000	1	1	0	1	0
74	83	0	10000	1	1	0	1	0
72	84	0	10000	1	1	0	1	0
75	85	0	10000	1	1	0	1	0
73	86	0	10000	1	1	0	1	0
71	87	0	10000	1	1	0	1	0
78	88	0	10000	1	1	0	1	0
83	89	0	10000	1	1	0	1	0
85	90	0	10000	1	1	0	1	0
83	91	0	10000	1	1	0	1	0
83	92	0	10000	1	1	0	1	0
83	93	0	10000	1	1	0	1	0
88	94	0	10000	1	1	0	1	0
87	95	0	10000	1	1	0	1	0
87	96	0	10000	1	1	0	1	0
87	97	0	10000	1	1	0	1	0
84	98	0	10000	1	1	0	1	0
81	99	0	10000	1	1	0	1	0
82	100	0	10000	1	1	0	1	0
80	101	0	10000	1	1	0	1	0
85	102	0	10000	1	1	0	1	0
96	103	0	10000	1	1	0	1	0
105	104	0	10000	1	1	0	1	0
103	105	0	10000	1	1	0	1	0
101	106	0	10000	1	1	0	1	0
105	107	0	10000	1	1	0	1	0
107	108	0	10000	1	1	0	1	0
109	109	0	10000	1	1	0	1	0
113	110	0	10000	1	1	0	1	0
113	111	0	10000	1	1	0	1	0
112	112	0	10000	1	1	0	1	0
114	113	0	10000	1	1	0	1	0
116	114	0	10000	1	1	0	1	0
112	115	0	10000	1	1	0	1	0
111	116	0	10000	1	1	0	1	0
110	117	0	10000	1	1	0	1	0
108	118	0	10000	1	1	0	1	0
109	119	0	10000	1	1	0	1	0
106	120	0	10000	1	1	0	1	0
102	121	0	10000	1	1	0	1	0
104	122	0	10000	1	1	0	1	0
102	123	0	10000	1	1	0	1	0
100	124	0	10000	1	1	0	1	0
101	125	0	10000	1	1	0	1	0
104	126	0	10000	1	1	0	1	0
102	127	0	10000	1	1	0	1	0
102	128	0	10000	1	1	0	1	0
102	129	0	10000	1	1	0	1	0
102	130	0	10000	1	1	0	1	0
100	131	0	10000	1	1	0	1	0
96	132	0	10000	1	1	0	1	0
92	133	0	10000	1	1	0	1	0
90	134	0	10000	1	1	0	1	0
92	135	0	10000	1	1	0	1	0
91	136	0	10000	1	1	0	1	0
90	137	0	10000	1	1	0	1	0
85	138	0	10000	1	1	0	1	0
82	139	0	10000	1	1	0	1	0
80	140	0	10000	1	1	0	1	0
83	141	0	10000	1	1	0	1	0
95	142	0	10000	1	1	0	1	0
96	143	0	10000	1	1	0	1	0
95	144	0	10000	1	1	0	1	0
95	145	0	10000	1	1	0	1	0
94	146	0	10000	1	1	0	1	0
90	147	0	10000	1	1	0	1	0
91	148	0	10000	1	1	0	1	0
91	149	0	10000	1	1	0	1	0
89	150	0	10000	1	1	0	1	0
86	151	0	10000	1	1	0	1	0
83	152	0	10000	1	1	0	1	0
82	153	0	10000	1	1	0	1	0
80	154	0	10000	1	1	0	1	0
81	155	0	10000	1	1	0	1	0
84	156	0	10000	1	1	0	1	0
94	157	0	10000	1	1	0	1	0
97	158	0	10000	1	1	0	1	0
94	159	0	10000	1	1	0	1	0
94	160	0	10000	1	1	0	1	0
97	161	0	10000	1	1	0	1	0
97	162	0	10000	1	1	0	1	0
94	163	0	10000	1	1	0	1	0
97	164	0	10000	1	1	0	1	0
105	165	0	10000	1	1	0	1	0
105	166	0	10000	1	1	0	1	0
104	167	0	10000	1	1	0	1	0
104	168	0	10000	1	1	0	1	0
100	169	0	10000	1	1	0	1	0
97	170	0	10000	1	1	0	1	0
93	171	0	10000	1	1	0	1	0
91	172	0	10000	1	1	0	1	0
88	173	0	10000	1	1	0	1	0
91	174	0	10000	1	1	0	1	0
89	175	0	10000	1	1	0	1	0
89	176	0	10000	1	1	0	1	0
87	177	0	10000	1	1	0	1	0
82	178	0	10000	1	1	0	1	0
80	179	0	10000	1	1	0	1	0
80	180	0	10000	1	1	0	1	0
79	181	0	10000	1	1	0	1	0
78	182	0	10000	1	1	0	1	0
78	183	0	10000	1	1	0	1	0
78	184	0	10000	1	1	0	1	0
76	185	0	10000	1	1	0	1	0
75	186	0	10000	1	1	0	1	0
73	187	0	10000	1	1	0	1	0
74	188	0	10000	1	1	0	1	0
74	189	0	10000	1	1	0	1	0
73	190	0	10000	1	1	0	1	0
71	191	0	10000	1	1	0	1	0
68	192	0	10000	1	1	0	1	0
67	193	0	10000	1	1	0	1	0
68	194	0	10000	1	1	0	1	0
69	195	0	10000	1	1	0	1	0
68	196	0	10000	1	1	0	1	0
69	197	0	10000	1	1	0	1	0
68	198	0	10000	1	1	0	1	0
70	199	0	10000	1	1	0	1	0
73	200	0	10000	1	1	0	1	0
71	201	0	10000	1	1	0	1	0
75	202	0	10000	1	1	0	1	0
76	203	0	10000	1	1	0	1	0
78	204	0	10000	1	1	0	1	0
78	205	0	10000	1	1	0	1	0
78	206	0	10000	1	1	0	1	0
78	207	0	10000	1	1	0	1	0
78	208	0	10000	1	1	0	1	0
75	209	0	10000	1	1	0	1	0
76	210	0	10000	1	1	0	1	0
84	211	0	10000	1	1	0	1	0
90	212	0	10000	1	1	0	1	0
93	213	0	10000	1	1	0	1	0
93	214	0	10000	1	1	0	1	0
92	215	0	10000	1	1	0	1	0
90	216	0	10000	1	1	0	1	0
90	217	0	10000	1	1	0	1	0
89	218	0	10000	1	1	0	1	0
87	219	0	10000	1	1	0	1	0
87	220	0	10000	1	1	0	1	0
84	221	0	10000	1	1	0	1	0
81	222	0	10000	1	1	0	1	0
79	223	0	10000	1	1	0	1	0
76	224	0	10000	1	1	0	1	0
78	225	0	10000	1	1	0	1	0
79	226	0	10000	1	1	0	1	0
79	227	0	10000	1	1	0	1	0
78	228	0	10000	1	1	0	1	0
77	229	0	10000	1	1	0	1	0
74	230	0	10000	1	1	0	1	0
72	231	0	10000	1	1	0	1	0
69	232	0	10000	1	1	0	1	0
69	233	0	10000	1	1	0	1	0
67	234	0	10000	1	1	0	1	0
66	235	0	10000	1	1	0	1	0
66	236	0	10000	1	1	0	1	0
64	237	0	10000	1	1	0	1	0
61	238	0	10000	1	1	0	1	0
59	239	0	10000	1	1	0	1	0
59	240	0	10000	1	1	0	1	0
63	241	0	10000	1	1	0	1	0
64	242	0	10000	1	1	0	1	0
64	243	0	10000	1	1	0	1	0
62	244	0	10000	1	1	0	1	0
61	245	0	10000	1	1	0	1	0
59	246	0	10000	1	1	0	1	0
57	247	0	10000	1	1	0	1	0
57	248	0	10000	1	1	0	1	0
55	249	0	10000	1	1	0	1	0
54	250	0	10000	1	1	0	1	0
53	251	0	10000	1	1	0	1	0
58	252	0	10000	1	1	0	1	0
59	253	0	10000	1	1	0	1	0
60	254	0	10000	1	1	0	1	0
61	255	0	10000	1	1	0	1	0
59	256	0	10000	1	1	0	1	0
61	257	0	10000	1	1	0	1	0
58	258	0	10000	1	1	0	1	0
56	259	0	10000	1	1	0	1	0
56	260	0	10000	1	1	0	1	0
56	261	0	10000	1	1	0	1	0
56	262	0	10000	1	1	0	1	0
55	263	0	10000	1	1	0	1	0
53	264	0	10000	1	1	0	1	0
52	265	0	10000	1	1	0	1	0
53	266	0	10000	1	1	0	1	0
51	267	0	10000	1	1	0	1	0
52	268	0	10000	1	1	0	1	0
52	269	0	10000	1	1	0	1	0
53	270	0	10000	1	1	0	1	0
55	271	0	10000	1	1	0	1	0
59	272	0	10000	1	1	0	1	0
61	273	0	10000	1	1	0	1	0
64	274	0	10000	1	1	0	1	0
66	275	0	10000	1	1	0	1	0
66	276	0	10000	1	1	0	1	0
64	277	0	10000	1	1	0	1	0
59	278	0	10000	1	1	0	1	0
57	279	0	10000	1	1	0	1	0
57	280	0	10000	1	1	0	1	0
55	281	0	10000	1	1	0	1	0
53	282	0	10000	1	1	0	1	0
53	283	0	10000	1	1	0	1	0
52	284	0	10000	1	1	0	1	0
52	285	0	10000	1	1	0	1	0
51	286	0	10000	1	1	0	1	0
49	287	0	10000	1	1	0	1	0
52	288	0	10000	1	1	0	1	0
51	289	0	10000	1	1	0	1	0
51	290	0	10000	1	1	0	1	0
50	291	0	10000	1	1	0	1	0
48	292	0	10000	1	1	0	1	0
46	293	0	10000	1	1	0	1	0
46	294	0	10000	1	1	0	1	0
46	295	0	10000	1	1	0	1	0
48	296	0	10000	1	1	0	1	0
48	297	0	10000	1	1	0	1	0
45	298	0	10000	1	1	0	1	0
44	299	0	10000	1	1	0	1	0
46	300	0	10000	1	1	0	1	0
45	301	0	10000	1	1	0	1	0
44	302	0	10000	1	1	0	1	0
44	303	0	10000	1	1	0	1	0
43	304	0	10000	1	1	0	1	0
42	305	0	10000	1	1	0	1	0
41	306	0	10000	1	1	0	1	0
40	307	0	10000	1	1	0	1	0
41	308	0	10000	1	1	0	1	0
40	309	0	10000	1	1	0	1	0
38	310	0	10000	1	1	0	1	0
37	311	0	10000	1	1	0	1	0
37	312	0	10000	1	1	0	1	0
36	313	0	10000	1	1	0	1	0
36	314	0	10000	1	1	0	1	0
35	315	0	10000	1	1	0	1	0
36	316	0	10000	1	1	0	1	0
37	317	0	10000	1	1	0	1	0
35	318	0	10000	1	1	0	1	0
35	319	0	10000	1	1	0	1	0
34	320	0	10000	1	1	0	1	0
33	321	0	10000	1	1	0	1	0
33	322	0	10000	1	1	0	1	0
37	323	0	10000	1	1	0	1	0
39	324	0	10000	1	1	0	1	0
39	325	0	10000	1	1	0	1	0
40	326	0	10000	1	1	0	1	0
44	327	0	10000	1	1	0	1	0
46	328	0	10000	1	1	0	1	0
45	329	0	10000	1	1	0	1	0
47	330	0	10000	1	1	0	1	0
48	331	0	10000	1	1	0	1	0
47	332	0	10000	1	1	0	1	0
46	333	0	10000	1	1	0	1	0
45	334	0	10000	1	1	0	1	0
45	335	0	10000	1	1	0	1	0
46	336	0	10000	1	1	0	1	0
45	337	0	10000	1	1	0	1	0
44	338	0	10000	1	1	0	1	0
44	339	0	10000	1	1	0	1	0
47	340	0	10000	1	1	0	1	0
53	341	0	10000	1	1	0	1	0
53	342	0	10000	1	1	0	1	0
52	343	0	10000	1	1	0	1	0
51	344	0	10000	1	1	0	1	0
50	345	0	10000	1	1	0	1	0
49	346	0	10000	1	1	0	1	0
47	347	0	10000	1	1	0	1	0
48	348	0	10000	1	1	0	1	0
48	349	0	10000	1	1	0	1	0
46	350	0	10000	1	1	0	1	0
45	351	0	10000	1	1	0	1	0
44	352	0	10000	1	1	0	1	0
44	353	0	10000	1	1	0	1	0
44	354	0	10000	1	1	0	1	0
42	355	0	10000	1	1	0	1	0
42	356	0	10000	1	1	0	1	0
41	357	0	10000	1	1	0	1	0
43	358	0	10000	1	1	0	1	0
46	359	0	10000	1	1	0	1	0
45	360	0	10000	1	1	0	1	0
45	361	0	10000	1	1	0	1	0
45	362	0	10000	1	1	0	1	0
46	363	0	10000	1	1	0	1	0
46	364	0	10000	1	1	0	1	0
47	365	0	10000	1	1	0	1	0
49	366	0	10000	1	1	0	1	0
48	367	0	10000	1	1	0	1	0
52	368	0	10000	1	1	0	1	0
52	369	0	10000	1	1	0	1	0
50	370	0	10000	1	1	0	1	0
50	371	0	10000	1	1	0	1	0
48	372	0	10000	1	1	0	1	0
49	373	0	10000	1	1	0	1	0
52	374	0	10000	1	1	0	1	0
51	375	0	10000	1	1	0	1	0
51	376	0	10000	1	1	0	1	0
52	377	0	10000	1	1	0	1	0
49	378	0	10000	1	1	0	1	0
48	379	0	10000	1	1	0	1	0
47	380	0	10000	1	1	0	1	0
48	381	0	10000	1	1	0	1	0
47	382	0	10000	1	1	0	1	0
48	383	0	10000	1	1	0	1	0
47	384	0	10000	1	1	0	1	0
45	385	0	10000	1	1	0	1	0
44	386	0	10000	1	1	0	1	0
42	387	0	10000	1	1	0	1	0
43	388	0	10000	1	1	0	1	0
43	389	0	10000	1	1	0	1	0
42	390	0	10000	1	1	0	1	0
42	391	0	10000	1	1	0	1	0
42	392	0	10000	1	1	0	1	0
44	393	0	10000	1	1	0	1	0
48	394	0	10000	1	1	0	1	0
48	395	0	10000	1	1	0	1	0
49	396	0	10000	1	1	0	1	0
52	397	0	10000	1	1	0	1	0
56	398	0	10000	1	1	0	1	0
58	399	0	10000	1	1	0	1	0
57	400	0	10000	1	1	0	1	0
56	401	0	10000	1	1	0	1	0
56	402	0	10000	1	1	0	1	0
55	403	0	10000	1	1	0	1	0
54	404	0	10000	1	1	0	1	0
53	405	0	10000	1	1	0	1	0
53	406	0	10000	1	1	0	1	0
50	407	0	10000	1	1	0	1	0
50	408	0	10000	1	1	0	1	0
49	409	0	10000	1	1	0	1	0
48	410	0	10000	1	1	0	1	0
49	411	0	10000	1	1	0	1	0
47	412	0	10000	1	1	0	1	0
46	413	0	10000	1	1	0	1	0
45	414	0	10000	1	1	0	1	0
44	415	0	10000	1	1	0	1	0
42	416	0	10000	1	1	0	1	0
43	417	0	10000	1	1	0	1	0
40	418	0	10000	1	1	0	1	0
41	419	0	10000	1	1	0	1	0
41	420	0	10000	1	1	0	1	0
41	421	0	10000	1	1	0	1	0
40	422	0	10000	1	1	0	1	0
42	423	0	10000	1	1	0	1	0
41	424	0	10000	1	1	0	1	0
41	425	0	10000	1	1	0	1	0
41	426	0	10000	1	1	0	1	0
44	427	0	10000	1	1	0	1	0
46	428	0	10000	1	1	0	1	0
45	429	0	10000	1	1	0	1	0
44	430	0	10000	1	1	0	1	0
43	431	0	10000	1	1	0	1	0
41	432	0	10000	1	1	0	1	0
40	433	0	10000	1	1	0	1	0
42	434	0	10000	1	1	0	1	0
43	435	0	10000	1	1	0	1	0
45	436	0	10000	1	1	0	1	0
51	437	0	10000	1	1	0	1	0
50	438	0	10000	1	1	0	1	0
51	439	0	10000	1	1	0	1	0
50	440	0	10000	1	1	0	1	0
48	441	0	10000	1	1	0	1	0
48	442	0	10000	1	1	0	1	0
46	443	0	10000	1	1	0	1	0
45	444	0	10000	1	1	0	1	0
44	445	0	10000	1	1	0	1	0
43	446	0	10000	1	1	0	1	0
41	447	0	10000	1	1	0	1	0
42	448	0	10000	1	1	0	1	0
43	449	0	10000	1	1	0	1	0
41	450	0	10000	1	1	0	1	0
41	451	0	10000	1	1	0	1	0
39	452	0	10000	1	1	0	1	0
39	453	0	10000	1	1	0	1	0
44	454	0	10000	1	1	0	1	0
47	455	0	10000	1	1	0	1	0
46	456	0	10000	1	1	0	1	0
47	457	0	10000	1	1	0	1	0
47	458	0	10000	1	1	0	1	0
49	459	0	10000	1	1	0	1	0
50	460	0	10000	1	1	0	1	0
52	461	0	10000	1	1	0	1	0
52	462	0	10000	1	1	0	1	0
50	463	0	10000	1	1	0	1	0
50	464	0	10000	1	1	0	1	0
47	465	0	10000	1	1	0	1	0
45	466	0	10000	1	1	0	1	0
44	467	0	10000	1	1	0	1	0
45	468	0	10000	1	1	0	1	0
45	469	0	10000	1	1	0	1	0
44	470	0	10000	1	1	0	1	0
44	471	0	10000	1	1	0	1	0
42	472	0	10000	1	1	0	1	0
43	473	0	10000	1	1	0	1	0
44	474	0	10000	1	1	0	1	0
43	475	0	10000	1	1	0	1	0
42	476	0	10000	1	1	0	1	0
42	477	0	10000	1	1	0	1	0
42	478	0	10000	1	1	0	1	0
40	479	0	10000	1	1	0	1	0
39	480	0	10000	1	1	0	1	0
39	481	0	10000	1	1	0	1	0
38	482	0	10000	1	1	0	1	0
39	483	0	10000	1	1	0	1	0
44	484	0	10000	1	1	0	1	0
47	485	0	10000	1	1	0	1	0
45	486	0	10000	1	1	0	1	0
44	487	0	10000	1	1	0	1	0
45	488	0	10000	1	1	0	1	0
45	489	0	10000	1	1	0	1	0
44	490	0	10000	1	1	0	1	0
45	491	0	10000	1	1	0	1	0
47	492	0	10000	1	1	0	1	0
46	493	0	10000	1	1	0	1	0
46	494	0	10000	1	1	0	1	0
44	495	0	10000	1	1	0	1	0
44	496	0	10000	1	1	0	1	0
43	497	0	10000	1	1	0	1	0
42	498	0	10000	1	1	0	1	0
41	499	0	10000	1	1	0	1	0
41	500	0	10000	1	1	0	1	0
40	521	0	10000	1	1	0	1	1
40	522	0	10000	1	1	0	1	1
41	523	0	10000	1	1	0	1	1
44	524	0	10000	1	1	0	1	1
44	525	0	10000	1	1	0	1	1
43	526	0	10000	1	1	0	1	1
42	527	0	10000	1	1	0	1	1
47	528	0	10000	1	1	0	1	1
49	529	0	10000	1	1	0	1	1
52	530	0	10000	1	1	0	1	1
54	531	0	10000	1	1	0	1	1
51	532	0	10000	1	1	0	1	1
51	533	0	10000	1	1	0	1	1
51	534	0	10000	1	1	0	1	1
56	535	0	10000	1	1	0	1	1
56	536	0	10000	1	1	0	1	1
55	537	0	10000	1	1	0	1	1
52	538	0	10000	1	1	0	1	1
50	539	0	10000	1	1	0	1	1
49	540	0	10000	1	1	0	1	1
48	541	0	10000	1	1	0	1	1
48	542	0	10000	1	1	0	1	1
49	523	0	10000	1	1	0	1	1
49	524	0	10000	1	1	0	1	1
46	525	0	10000	1	1	0	1	1
45	526	0	10000	1	1	0	1	1
45	527	0	10000	1	1	0	1	1
46	528	0	10000	1	1	0	1	1
45	529	0	10000	1	1	0	1	1
44	530	0	10000	1	1	0	1	1
44	531	0	10000	1	1	0	1	1
43	532	0	10000	1	1	0	1	1
43	533	0	10000	1	1	0	1	1
47	534	0	10000	1	1	0	1	1
46	535	0	10000	1	1	0	1	1
47	536	0	10000	1	1	0	1	1
50	537	0	10000	1	1	0	1	1
47	538	0	10000	1	1	0	1	1
44	539	0	10000	1	1	0	1	1
43	540	0	10000	1	1	0	1	1
43	541	0	10000	1	1	0	1	1
42	542	0	10000	1	1	0	1	1
42	543	0	10000	1	1	0	1	1
41	544	0	10000	1	1	0	1	1
39	545	0	10000	1	1	0	1	1
39	546	0	10000	1	1	0	1	1
38	547	0	10000	1	1	0	1	1
41	548	0	10000	1	1	0	1	1
42	549	0	10000	1	1	0	1	1
42	550	0	10000	1	1	0	1	1
42	551	0	10000	1	1	0	1	0
42	552	0	10000	1	1	0	1	0
42	553	0	10000	1	1	0	1	0
40	554	0	10000	1	1	0	1	0
39	555	0	10000	1	1	0	1	0
38	556	0	10000	1	1	0	1	0
40	557	0	10000	1	1	0	1	0
40	558	0	10000	1	1	0	1	0
41	559	0	10000	1	1	0	1	0
47	560	0	10000	1	1	0	1	0
49	561	0	10000	1	1	0	1	0
51	562	0	10000	1	1	0	1	0
54	563	0	10000	1	1	0	1	0
54	564	0	10000	1	1	0	1	0
52	565	0	10000	1	1	0	1	0
51	566	0	10000	1	1	0	1	0
50	567	0	10000	1	1	0	1	0
51	568	0	10000	1	1	0	1	0
50	569	0	10000	1	1	0	1	0
49	570	0	10000	1	1	0	1	0
49	571	0	10000	1	1	0	1	0
47	572	0	10000	1	1	0	1	0
46	573	0	10000	1	1	0	1	0
45	574	0	10000	1	1	0	1	0
46	575	0	10000	1	1	0	1	0
45	576	0	10000	1	1	0	1	0
45	577	0	10000	1	1	0	1	0
45	578	0	10000	1	1	0	1	0
44	579	0	10000	1	1	0	1	0
45	580	0	10000	1	1	0	1	0
49	581	0	10000	1	1	0	1	0
54	582	0	10000	1	1	0	1	0
60	583	0	10000	1	1	0	1	0
64	584	0	10000	1	1	0	1	0
65	585	0	10000	1	1	0	1	0
64	586	0	10000	1	1	0	1	0
64	587	0	10000	1	1	0	1	0
66	588	0	10000	1	1	0	1	0
65	589	0	10000	1	1	0	1	0
65	590	0	10000	1	1	0	1	0
64	591	0	10000	1	1	0	1	0
61	592	0	10000	1	1	0	1	0
60	593	0	10000	1	1	0	1	0
61	594	0	10000	1	1	0	1	0
62	595	0	10000	1	1	0	1	0
66	596	0	10000	1	1	0	1	0
70	597	0	10000	1	1	0	1	0
68	598	0	10000	1	1	0	1	0
65	599	0	10000	1	1	0	1	0
64	600	0	10000	1	1	0	1	0
62	601	0	10000	1	1	0	1	0
62	602	0	10000	1	1	0	1	0
61	603	0	10000	1	1	0	1	0
64	604	0	10000	1	1	0	1	0
62	605	0	10000	1	1	0	1	0
61	606	0	10000	1	1	0	1	0
62	607	0	10000	1	1	0	1	0
67	608	0	10000	1	1	0	1	0
67	609	0	10000	1	1	0	1	0
65	610	0	10000	1	1	0	1	0
65	611	0	10000	1	1	0	1	0
65	612	0	10000	1	1	0	1	0
62	613	0	10000	1	1	0	1	0
61	614	0	10000	1	1	0	1	0
61	615	0	10000	1	1	0	1	0
59	616	0	10000	1	1	0	1	0
59	617	0	10000	1	1	0	1	0
57	618	0	10000	1	1	0	1	0
57	619	0	10000	1	1	0	1	0
61	620	0	10000	1	1	0	1	0
60	621	0	10000	1	1	0	1	0
58	622	0	10000	1	1	0	1	0
56	623	0	10000	1	1	0	1	0
55	624	0	10000	1	1	0	1	0
53	625	0	10000	1	1	0	1	0
57	626	0	10000	1	1	0	1	0
62	627	0	10000	1	1	0	1	0
70	628	0	10000	1	1	0	1	0
77	629	0	10000	1	1	0	1	0
84	630	0	10000	1	1	0	1	0
98	631	0	10000	1	1	0	1	0
96	632	0	10000	1	1	0	1	0
95	633	0	10000	1	1	0	1	0
95	634	0	10000	1	1	0	1	0
95	635	0	10000	1	1	0	1	0
93	636	0	10000	1	1	0	1	0
91	637	0	10000	1	1	0	1	0
86	638	0	10000	1	1	0	1	0
87	639	0	10000	1	1	0	1	0
90	640	0	10000	1	1	0	1	0
89	641	0	10000	1	1	0	1	0
89	642	0	10000	1	1	0	1	0
85	643	0	10000	1	1	0	1	0
82	644	0	10000	1	1	0	1	0
79	645	0	10000	1	1	0	1	0
81	646	0	10000	1	1	0	1	0
83	647	0	10000	1	1	0	1	0
84	648	0	10000	1	1	0	1	0
84	649	0	10000	1	1	0	1	0
81	650	0	10000	1	1	0	1	0
79	651	0	10000	1	1	0	1	0
78	652	0	10000	1	1	0	1	0
75	653	0	10000	1	1	0	1	0
72	654	0	10000	1	1	0	1	0
69	655	0	10000	1	1	0	1	0
69	656	0	10000	1	1	0	1	0
68	657	0	10000	1	1	0	1	0
65	658	0	10000	1	1	0	1	0
62	659	0	10000	1	1	0	1	0
60	660	0	10000	1	1	0	1	0
60	661	0	10000	1	1	0	1	0
58	662	0	10000	1	1	0	1	0
61	663	0	10000	1	1	0	1	0
60	664	0	10000	1	1	0	1	0
59	665	0	10000	1	1	0	1	0
60	666	0	10000	1	1	0	1	0
63	667	0	10000	1	1	0	1	0
67	668	0	10000	1	1	0	1	0
67	669	0	10000	1	1	0	1	0
67	670	0	10000	1	1	0	1	0
65	671	0	10000	1	1	0	1	0
61	672	0	10000	1	1	0	1	0
59	673	0	10000	1	1	0	1	0
59	674	0	10000	1	1	0	1	0
58	675	0	10000	1	1	0	1	0
61	676	0	10000	1	1	0	1	0
65	677	0	10000	1	1	0	1	0
64	678	0	10000	1	1	0	1	0
63	679	0	10000	1	1	0	1	0
63	680	0	10000	1	1	0	1	0
62	681	0	10000	1	1	0	1	0
63	682	0	10000	1	1	0	1	0
64	683	0	10000	1	1	0	1	0
64	684	0	10000	1	1	0	1	0
66	685	0	10000	1	1	0	1	0
67	686	0	10000	1	1	0	1	0
68	687	0	10000	1	1	0	1	0
71	688	0	10000	1	1	0	1	0
69	689	0	10000	1	1	0	1	0
68	690	0	10000	1	1	0	1	0
67	691	0	10000	1	1	0	1	0
64	692	0	10000	1	1	0	1	0
65	693	0	10000	1	1	0	1	0
65	694	0	10000	1	1	0	1	0
62	695	0	10000	1	1	0	1	0
60	696	0	10000	1	1	0	1	0
60	697	0	10000	1	1	0	1	0
57	698	0	10000	1	1	0	1	0
55	699	0	10000	1	1	0	1	0
54	700	0	10000	1	1	0	1	0
53	701	0	10000	1	1	0	1	0
52	702	0	10000	1	1	0	1	0
51	703	0	10000	1	1	0	1	0
49	704	0	10000	1	1	0	1	0
47	705	0	10000	1	1	0	1	0
45	706	0	10000	1	1	0	1	0
45	707	0	10000	1	1	0	1	0
45	708	0	10000	1	1	0	1	0
44	709	0	10000	1	1	0	1	0
44	710	0	10000	1	1	0	1	0
45	711	0	10000	1	1	0	1	0
47	712	0	10000	1	1	0	1	0
47	713	0	10000	1	1	0	1	0
49	714	0	10000	1	1	0	1	0
46	715	0	10000	1	1	0	1	0
46	716	0	10000	1	1	0	1	0
51	717	0	10000	1	1	0	1	0
53	718	0	10000	1	1	0	1	0
56	719	0	10000	1	1	0	1	0
58	720	0	10000	1	1	0	1	0
60	721	0	10000	1	1	0	1	0
64	722	0	10000	1	1	0	1	0
64	723	0	10000	1	1	0	1	0
63	724	0	10000	1	1	0	1	0
65	725	0	10000	1	1	0	1	0
63	726	0	10000	1	1	0	1	0
64	727	0	10000	1	1	0	1	0
68	728	0	10000	1	1	0	1	0
67	729	0	10000	1	1	0	1	0
66	730	0	10000	1	1	0	1	0
63	731	0	10000	1	1	0	1	0
61	732	0	10000	1	1	0	1	0
60	733	0	10000	1	1	0	1	0
58	734	0	10000	1	1	0	1	0
57	735	0	10000	1	1	0	1	0
56	736	0	10000	1	1	0	1	0
56	737	0	10000	1	1	0	1	0
54	738	0	10000	1	1	0	1	0
54	739	0	10000	1	1	0	1	0
52	740	0	10000	1	1	0	1	0
51	741	0	10000	1	1	0	1	0
50	742	0	10000	1	1	0	1	0
49	743	0	10000	1	1	0	1	0
50	744	0	10000	1	1	0	1	0
49	745	0	10000	1	1	0	1	0
50	746	0	10000	1	1	0	1	0
52	747	0	10000	1	1	0	1	0
53	748	0	10000	1	1	0	1	0
56	749	0	10000	1	1	0	1	0
55	750	0	10000	1	1	0	1	0
53	751	0	10000	1	1	0	1	0
54	752	0	10000	1	1	0	1	0
56	753	0	10000	1	1	0	1	0
57	754	0	10000	1	1	0	1	0
58	755	0	10000	1	1	0	1	0
58	756	0	10000	1	1	0	1	0
56	757	0	10000	1	1	0	1	0
56	758	0	10000	1	1	0	1	0
53	759	0	10000	1	1	0	1	0
52	760	0	10000	1	1	0	1	0
51	761	0	10000	1	1	0	1	0
50	762	0	10000	1	1	0	1	0
50	763	0	10000	1	1	0	1	0
48	764	0	10000	1	1	0	1	0
45	765	0	10000	1	1	0	1	0
46	766	0	10000	1	1	0	1	0
45	767	0	10000	1	1	0	1	0
45	768	0	10000	1	1	0	1	0
45	769	0	10000	1	1	0	1	0
44	770	0	10000	1	1	0	1	0
44	771	0	10000	1	1	0	1	0
45	772	0	10000	1	1	0	1	0
52	773	0	10000	1	1	0	1	0
55	774	0	10000	1	1	0	1	0
53	775	0	10000	1	1	0	1	0
53	776	0	10000	1	1	0	1	0
57	777	0	10000	1	1	0	1	0
58	778	0	10000	1	1	0	1	0
61	779	0	10000	1	1	0	1	0
66	780	0	10000	1	1	0	1	0
65	781	0	10000	1	1	0	1	0
62	782	0	10000	1	1	0	1	0
61	783	0	10000	1	1	0	1	0
61	784	0	10000	1	1	0	1	0
60	785	0	10000	1	1	0	1	0
58	786	0	10000	1	1	0	1	0
56	787	0	10000	1	1	0	1	0
57	788	0	10000	1	1	0	1	0
56	789	0	10000	1	1	0	1	0
52	790	0	10000	1	1	0	1	0
53	791	0	10000	1	1	0	1	0
50	792	0	10000	1	1	0	1	0
48	793	0	10000	1	1	0	1	0
49	794	0	10000	1	1	0	1	0
46	795	0	10000	1	1	0	1	0
46	796	0	10000	1	1	0	1	0
46	797	0	10000	1	1	0	1	0
51	798	0	10000	1	1	0	1	0
59	799	0	10000	1	1	0	1	0
65	800	0	10000	1	1	0	1	0
66	801	0	10000	1	1	0	1	0
68	802	0	10000	1	1	0	1	0
70	803	0	10000	1	1	0	1	0
72	804	0	10000	1	1	0	1	0
70	805	0	10000	1	1	0	1	0
68	806	0	10000	1	1	0	1	0
68	807	0	10000	1	1	0	1	0
72	808	0	10000	1	1	0	1	0
71	809	0	10000	1	1	0	1	0
70	810	0	10000	1	1	0	1	0
72	811	0	10000	1	1	0	1	0
75	812	0	10000	1	1	0	1	0
72	813	0	10000	1	1	0	1	0
71	814	0	10000	1	1	0	1	0
68	815	0	10000	1	1	0	1	0
69	816	0	10000	1	1	0	1	0
69	817	0	10000	1	1	0	1	0
69	818	0	10000	1	1	0	1	0
69	819	0	10000	1	1	0	1	0
68	820	0	10000	1	1	0	1	0
66	821	0	10000	1	1	0	1	0
64	822	0	10000	1	1	0	1	0
65	823	0	10000	1	1	0	1	0
65	824	0	10000	1	1	0	1	0
67	825	0	10000	1	1	0	1	0
72	826	0	10000	1	1	0	1	0
71	827	0	10000	1	1	0	1	0
73	828	0	10000	1	1	0	1	0
72	829	0	10000	1	1	0	1	0
70	830	0	10000	1	1	0	1	0
70	831	0	10000	1	1	0	1	0
67	832	0	10000	1	1	0	1	0
68	833	0	10000	1	1	0	1	0
74	834	0	10000	1	1	0	1	0
77	835	0	10000	1	1	0	1	0
79	836	0	10000	1	1	0	1	0
79	837	0	10000	1	1	0	1	0
78	838	0	10000	1	1	0	1	0
77	839	0	10000	1	1	0	1	0
76	840	0	10000	1	1	0	1	0
75	841	0	10000	1	1	0	1	0
73	842	0	10000	1	1	0	1	0
73	843	0	10000	1	1	0	1	0
72	844	0	10000	1	1	0	1	0
69	845	0	10000	1	1	0	1	0
67	846	0	10000	1	1	0	1	0
63	847	0	10000	1	1	0	1	0
62	848	0	10000	1	1	0	1	0
62	849	0	10000	1	1	0	1	0
59	850	0	10000	1	1	0	1	0
58	851	0	10000	1	1	0	1	0
55	852	0	10000	1	1	0	1	0
54	853	0	10000	1	1	0	1	0
54	854	0	10000	1	1	0	1	0
54	855	0	10000	1	1	0	1	0
54	856	0	10000	1	1	0	1	0
54	857	0	10000	1	1	0	1	0
50	858	0	10000	1	1	0	1	0
47	859	0	10000	1	1	0	1	0
47	860	0	10000	1	1	0	1	0
47	861	0	10000	1	1	0	1	0
48	862	0	10000	1	1	0	1	0
47	863	0	10000	1	1	0	1	0
48	864	0	10000	1	1	0	1	0
50	865	0	10000	1	1	0	1	0
50	866	0	10000	1	1	0	1	0
49	867	0	10000	1	1	0	1	0
50	868	0	10000	1	1	0	1	0
50	869	0	10000	1	1	0	1	0
48	870	0	10000	1	1	0	1	0
48	871	0	10000	1	1	0	1	0
46	872	0	10000	1	1	0	1	0
44	873	0	10000	1	1	0	1	0
44	874	0	10000	1	1	0	1	0
44	875	0	10000	1	1	0	1	0
44	876	0	10000	1	1	0	1	0
43	877	0	10000	1	1	0	1	0
41	878	0	10000	1	1	0	1	0
41	879	0	10000	1	1	0	1	0
42	880	0	10000	1	1	0	1	0
43	881	0	10000	1	1	0	1	0
44	882	0	10000	1	1	0	1	0
42	883	0	10000	1	1	0	1	0
42	884	0	10000	1	1	0	1	0
45	885	0	10000	1	1	0	1	0
50	886	0	10000	1	1	0	1	0
50	887	0	10000	1	1	0	1	0
52	888	0	10000	1	1	0	1	0
56	889	0	10000	1	1	0	1	0
60	890	0	10000	1	1	0	1	0
60	891	0	10000	1	1	0	1	0
58	892	0	10000	1	1	0	1	0
56	893	0	10000	1	1	0	1	0
56	894	0	10000	1	1	0	1	0
55	895	0	10000	1	1	0	1	0
55	896	0	10000	1	1	0	1	0
53	897	0	10000	1	1	0	1	0
52	898	0	10000	1	1	0	1	0
49	899	0	10000	1	1	0	1	0
50	900	0	10000	1	1	0	1	0
50	901	0	10000	1	1	0	1	0
56	902	0	10000	1	1	0	1	0
62	903	0	10000	1	1	0	1	0
61	904	0	10000	1	1	0	1	0
60	905	0	10000	1	1	0	1	0
59	906	0	10000	1	1	0	1	0
56	907	0	10000	1	1	0	1	0
56	908	0	10000	1	1	0	1	0
59	909	0	10000	1	1	0	1	0
62	910	0	10000	1	1	0	1	0
64	911	0	10000	1	1	0	1	0
65	912	0	10000	1	1	0	1	0
63	913	0	10000	1	1	0	1	0
63	914	0	10000	1	1	0	1	0
63	915	0	10000	1	1	0	1	0
62	916	0	10000	1	1	0	1	0
62	917	0	10000	1	1	0	1	0
60	918	0	10000	1	1	0	1	0
56	919	0	10000	1	1	0	1	0
58	920	0	10000	1	1	0	1	0
56	921	0	10000	1	1	0	1	0
58	922	0	10000	1	1	0	1	0
58	923	0	10000	1	1	0	1	0
61	924	0	10000	1	1	0	1	0
61	925	0	10000	1	1	0	1	0
59	926	0	10000	1	1	0	1	0
58	927	0	10000	1	1	0	1	0
61	928	0	10000	1	1	0	1	0
61	929	0	10000	1	1	0	1	0
58	930	0	10000	1	1	0	1	0
59	931	0	10000	1	1	0	1	0
56	932	0	10000	1	1	0	1	0
55	933	0	10000	1	1	0	1	0
54	934	0	10000	1	1	0	1	0
54	935	0	10000	1	1	0	1	0
54	936	0	10000	1	1	0	1	0
52	937	0	10000	1	1	0	1	0
49	938	0	10000	1	1	0	1	0
48	939	0	10000	1	1	0	1	0
49	940	0	10000	1	1	0	1	0
48	941	0	10000	1	1	0	1	0
47	942	0	10000	1	1	0	1	0
47	943	0	10000	1	1	0	1	0
47	944	0	10000	1	1	0	1	0
45	945	0	10000	1	1	0	1	0
46	946	0	10000	1	1	0	1	0
47	947	0	10000	1	1	0	1	0
51	948	0	10000	1	1	0	1	0
53	949	0	10000	1	1	0	1	0
52	950	0	10000	1	1	0	1	0
53	951	0	10000	1	1	0	1	0
53	952	0	10000	1	1	0	1	0
59	953	0	10000	1	1	0	1	0
61	954	0	10000	1	1	0	1	0
59	955	0	10000	1	1	0	1	0
61	956	0	10000	1	1	0	1	0
60	957	0	10000	1	1	0	1	0
57	958	0	10000	1	1	0	1	0
55	959	0	10000	1	1	0	1	0
55	960	0	10000	1	1	0	1	0
54	961	0	10000	1	1	0	1	0
54	962	0	10000	1	1	0	1	0
54	963	0	10000	1	1	0	1	0
52	964	0	10000	1	1	0	1	0
51	965	0	10000	1	1	0	1	0
50	966	0	10000	1	1	0	1	0
51	967	0	10000	1	1	0	1	0
50	968	0	10000	1	1	0	1	0
50	969	0	10000	1	1	0	1	0
48	970	0	10000	1	1	0	1	0
50	971	0	10000	1	1	0	1	0
48	972	0	10000	1	1	0	1	0
49	973	0	10000	1	1	0	1	0
55	974	0	10000	1	1	0	1	0
55	975	0	10000	1	1	0	1	0
53	976	0	10000	1	1	0	1	0
55	977	0	10000	1	1	0	1	0
57	978	0	10000	1	1	0	1	0
58	979	0	10000	1	1	0	1	0
58	980	0	10000	1	1	0	1	0
57	981	0	10000	1	1	0	1	0
57	982	0	10000	1	1	0	1	0
59	983	0	10000	1	1	0	1	0
59	984	0	10000	1	1	0	1	0
57	985	0	10000	1	1	0	1	0
59	986	0	10000	1	1	0	1	0
58	987	0	10000	1	1	0	1	0
57	988	0	10000	1	1	0	1	0
57	989	0	10000	1	1	0	1	0
55	990	0	10000	1	1	0	1	0
53	991	0	10000	1	1	0	1	0
52	992	0	10000	1	1	0	1	0
54	993	0	10000	1	1	0	1	0
53	994	0	10000	1	1	0	1	0
53	995	0	10000	1	1	0	1	0
56	996	0	10000	1	1	0	1	0
57	997	0	10000	1	1	0	1	0
58	998	0	10000	1	1	0	1	0
56	999	0	10000	1	1	0	1	0
55	1000	0	10000	1	1	0	1	0
33	2	0	10000	2	1	0	2	0
32	3	0	10000	2	1	0	2	0
32	4	0	10000	2	1	0	2	0
33	5	0	10000	2	1	0	2	0
33	6	0	10000	2	1	0	2	0
38	7	0	10000	2	1	0	2	0
43	8	0	10000	2	1	0	2	0
47	9	0	10000	2	1	0	2	0
53	10	0	10000	2	1	0	2	0
54	11	0	10000	2	1	0	2	0
54	12	0	10000	2	1	0	2	0
50	13	0	10000	2	1	0	2	0
51	14	0	10000	2	1	0	2	0
50	15	0	10000	2	1	0	2	0
48	16	0	10000	2	1	0	2	0
47	17	0	10000	2	1	0	2	0
46	18	0	10000	2	1	0	2	0
46	19	0	10000	2	1	0	2	0
47	20	0	10000	2	1	0	2	0
45	21	0	10000	2	1	0	2	0
44	22	0	10000	2	1	0	2	0
43	23	0	10000	2	1	0	2	0
42	24	0	10000	2	1	0	2	0
44	25	0	10000	2	1	0	2	0
44	26	0	10000	2	1	0	2	0
45	27	0	10000	2	1	0	2	0
44	28	0	10000	2	1	0	2	0
42	29	0	10000	2	1	0	2	0
42	30	0	10000	2	1	0	2	0
41	31	0	10000	2	1	0	2	0
42	32	0	10000	2	1	0	2	0
43	33	0	10000	2	1	0	2	0
46	34	0	10000	2	1	0	2	0
47	35	0	10000	2	1	0	2	0
46	36	0	10000	2	1	0	2	0
46	37	0	10000	2	1	0	2	0
46	38	0	10000	2	1	0	2	0
45	39	0	10000	2	1	0	2	0
44	40	0	10000	2	1	0	2	0
43	41	0	10000	2	1	0	2	0
42	42	0	10000	2	1	0	2	0
42	43	0	10000	2	1	0	2	0
40	44	0	10000	2	1	0	2	0
39	45	0	10000	2	1	0	2	0
39	46	0	10000	2	1	0	2	0
40	47	0	10000	2	1	0	2	0
39	48	0	10000	2	1	0	2	0
40	49	0	10000	2	1	0	2	0
40	50	0	10000	2	1	0	2	0
38	51	0	10000	2	1	0	2	0
36	52	0	10000	2	1	0	2	0
35	53	0	10000	2	1	0	2	0
37	54	0	10000	2	1	0	2	0
36	55	0	10000	2	1	0	2	0
35	56	0	10000	2	1	0	2	0
36	57	0	10000	2	1	0	2	0
34	58	0	10000	2	1	0	2	0
37	59	0	10000	2	1	0	2	0
39	60	0	10000	2	1	0	2	0
38	61	0	10000	2	1	0	2	0
41	62	0	10000	2	1	0	2	0
42	63	0	10000	2	1	0	2	0
38	64	0	10000	2	1	0	2	0
39	65	0	10000	2	1	0	2	0
38	66	0	10000	2	1	0	2	0
37	67	0	10000	2	1	0	2	0
38	68	0	10000	2	1	0	2	0
36	69	0	10000	2	1	0	2	0
37	70	0	10000	2	1	0	2	0
36	71	0	10000	2	1	0	2	0
34	72	0	10000	2	1	0	2	0
34	73	0	10000	2	1	0	2	0
36	74	0	10000	2	1	0	2	0
37	75	0	10000	2	1	0	2	0
37	76	0	10000	2	1	0	2	0
36	77	0	10000	2	1	0	2	0
36	78	0	10000	2	1	0	2	0
36	79	0	10000	2	1	0	2	0
37	80	0	10000	2	1	0	2	0
38	81	0	10000	2	1	0	2	0
37	82	0	10000	2	1	0	2	0
37	83	0	10000	2	1	0	2	0
35	84	0	10000	2	1	0	2	0
35	85	0	10000	2	1	0	2	0
35	86	0	10000	2	1	0	2	0
35	87	0	10000	2	1	0	2	0
36	88	0	10000	2	1	0	2	0
35	89	0	10000	2	1	0	2	0
35	90	0	10000	2	1	0	2	0
35	91	0	10000	2	1	0	2	0
34	92	0	10000	2	1	0	2	0
33	93	0	10000	2	1	0	2	0
35	94	0	10000	2	1	0	2	0
34	95	0	10000	2	1	0	2	0
36	96	0	10000	2	1	0	2	0
38	97	0	10000	2	1	0	2	0
36	98	0	10000	2	1	0	2	0
37	99	0	10000	2	1	0	2	0
36	100	0	10000	2	1	0	2	0
37	101	0	10000	2	1	0	2	0
37	102	0	10000	2	1	0	2	0
37	103	0	10000	2	1	0	2	0
33	104	0	10000	2	1	0	2	0
34	105	0	10000	2	1	0	2	0
33	106	0	10000	2	1	0	2	0
33	107	0	10000	2	1	0	2	0
34	108	0	10000	2	1	0	2	0
35	109	0	10000	2	1	0	2	0
36	110	0	10000	2	1	0	2	0
36	111	0	10000	2	1	0	2	0
36	112	0	10000	2	1	0	2	0
35	113	0	10000	2	1	0	2	0
37	114	0	10000	2	1	0	2	0
38	115	0	10000	2	1	0	2	0
38	116	0	10000	2	1	0	2	0
39	117	0	10000	2	1	0	2	0
38	118	0	10000	2	1	0	2	0
37	119	0	10000	2	1	0	2	0
35	120	0	10000	2	1	0	2	0
36	121	0	10000	2	1	0	2	0
35	122	0	10000	2	1	0	2	0
35	123	0	10000	2	1	0	2	0
33	124	0	10000	2	1	0	2	0
33	125	0	10000	2	1	0	2	0
32	126	0	10000	2	1	0	2	0
33	127	0	10000	2	1	0	2	0
35	128	0	10000	2	1	0	2	0
34	129	0	10000	2	1	0	2	0
34	130	0	10000	2	1	0	2	0
33	131	0	10000	2	1	0	2	0
32	132	0	10000	2	1	0	2	0
32	133	0	10000	2	1	0	2	0
38	134	0	10000	2	1	0	2	0
41	135	0	10000	2	1	0	2	0
42	136	0	10000	2	1	0	2	0
42	137	0	10000	2	1	0	2	0
40	138	0	10000	2	1	0	2	0
41	139	0	10000	2	1	0	2	0
40	140	0	10000	2	1	0	2	0
42	141	0	10000	2	1	0	2	0
42	142	0	10000	2	1	0	2	0
40	143	0	10000	2	1	0	2	0
38	144	0	10000	2	1	0	2	0
39	145	0	10000	2	1	0	2	0
38	146	0	10000	2	1	0	2	0
38	147	0	10000	2	1	0	2	0
37	148	0	10000	2	1	0	2	0
35	149	0	10000	2	1	0	2	0
35	150	0	10000	2	1	0	2	0
34	151	0	10000	2	1	0	2	0
33	152	0	10000	2	1	0	2	0
33	153	0	10000	2	1	0	2	0
39	154	0	10000	2	1	0	2	0
39	155	0	10000	2	1	0	2	0
39	156	0	10000	2	1	0	2	0
40	157	0	10000	2	1	0	2	0
42	158	0	10000	2	1	0	2	0
41	159	0	10000	2	1	0	2	0
41	160	0	10000	2	1	0	2	0
41	161	0	10000	2	1	0	2	0
41	162	0	10000	2	1	0	2	0
43	163	0	10000	2	1	0	2	0
40	164	0	10000	2	1	0	2	0
40	165	0	10000	2	1	0	2	0
39	166	0	10000	2	1	0	2	0
38	167	0	10000	2	1	0	2	0
38	168	0	10000	2	1	0	2	0
36	169	0	10000	2	1	0	2	0
36	170	0	10000	2	1	0	2	0
34	171	0	10000	2	1	0	2	0
33	172	0	10000	2	1	0	2	0
33	173	0	10000	2	1	0	2	0
35	174	0	10000	2	1	0	2	0
34	175	0	10000	2	1	0	2	0
33	176	0	10000	2	1	0	2	0
33	177	0	10000	2	1	0	2	0
32	178	0	10000	2	1	0	2	0
33	179	0	10000	2	1	0	2	0
32	180	0	10000	2	1	0	2	0
33	181	0	10000	2	1	0	2	0
35	182	0	10000	2	1	0	2	0
34	183	0	10000	2	1	0	2	0
32	184	0	10000	2	1	0	2	0
34	185	0	10000	2	1	0	2	0
33	186	0	10000	2	1	0	2	0
36	187	0	10000	2	1	0	2	0
39	188	0	10000	2	1	0	2	0
38	189	0	10000	2	1	0	2	0
38	190	0	10000	2	1	0	2	0
42	191	0	10000	2	1	0	2	0
44	192	0	10000	2	1	0	2	0
43	193	0	10000	2	1	0	2	0
46	194	0	10000	2	1	0	2	0
44	195	0	10000	2	1	0	2	0
44	196	0	10000	2	1	0	2	0
42	197	0	10000	2	1	0	2	0
42	198	0	10000	2	1	0	2	0
43	199	0	10000	2	1	0	2	0
43	200	0	10000	2	1	0	2	0
42	201	0	10000	2	1	0	2	0
41	202	0	10000	2	1	0	2	0
41	203	0	10000	2	1	0	2	0
38	204	0	10000	2	1	0	2	0
38	205	0	10000	2	1	0	2	0
38	206	0	10000	2	1	0	2	0
39	207	0	10000	2	1	0	2	0
38	208	0	10000	2	1	0	2	0
37	209	0	10000	2	1	0	2	0
37	210	0	10000	2	1	0	2	0
38	211	0	10000	2	1	0	2	0
38	212	0	10000	2	1	0	2	0
37	213	0	10000	2	1	0	2	0
38	214	0	10000	2	1	0	2	0
40	215	0	10000	2	1	0	2	0
39	216	0	10000	2	1	0	2	0
38	217	0	10000	2	1	0	2	0
40	218	0	10000	2	1	0	2	0
39	219	0	10000	2	1	0	2	0
38	220	0	10000	2	1	0	2	0
37	221	0	10000	2	1	0	2	0
37	222	0	10000	2	1	0	2	0
37	223	0	10000	2	1	0	2	0
34	224	0	10000	2	1	0	2	0
34	225	0	10000	2	1	0	2	0
33	226	0	10000	2	1	0	2	0
33	227	0	10000	2	1	0	2	0
34	228	0	10000	2	1	0	2	0
32	229	0	10000	2	1	0	2	0
32	230	0	10000	2	1	0	2	0
31	231	0	10000	2	1	0	2	0
31	232	0	10000	2	1	0	2	0
29	233	0	10000	2	1	0	2	0
32	234	0	10000	2	1	0	2	0
32	235	0	10000	2	1	0	2	0
32	236	0	10000	2	1	0	2	0
30	237	0	10000	2	1	0	2	0
30	238	0	10000	2	1	0	2	0
29	239	0	10000	2	1	0	2	0
28	240	0	10000	2	1	0	2	0
30	241	0	10000	2	1	0	2	0
31	242	0	10000	2	1	0	2	0
33	243	0	10000	2	1	0	2	0
34	244	0	10000	2	1	0	2	0
42	245	0	10000	2	1	0	2	0
48	246	0	10000	2	1	0	2	0
56	247	0	10000	2	1	0	2	0
66	248	0	10000	2	1	0	2	0
69	249	0	10000	2	1	0	2	0
72	250	0	10000	2	1	0	2	0
71	251	0	10000	2	1	0	2	0
74	252	0	10000	2	1	0	2	0
80	253	0	10000	2	1	0	2	0
91	254	0	10000	2	1	0	2	0
98	255	0	10000	2	1	0	2	0
100	256	0	10000	2	1	0	2	0
97	257	0	10000	2	1	0	2	0
94	258	0	10000	2	1	0	2	0
94	259	0	10000	2	1	0	2	0
91	260	0	10000	2	1	0	2	0
93	261	0	10000	2	1	0	2	0
90	262	0	10000	2	1	0	2	0
88	263	0	10000	2	1	0	2	0
85	264	0	10000	2	1	0	2	0
89	265	0	10000	2	1	0	2	0
92	266	0	10000	2	1	0	2	0
97	267	0	10000	2	1	0	2	0
100	268	0	10000	2	1	0	2	0
96	269	0	10000	2	1	0	2	0
94	270	0	10000	2	1	0	2	0
98	271	0	10000	2	1	0	2	0
101	272	0	10000	2	1	0	2	0
101	273	0	10000	2	1	0	2	0
102	274	0	10000	2	1	0	2	0
101	275	0	10000	2	1	0	2	0
103	276	0	10000	2	1	0	2	0
107	277	0	10000	2	1	0	2	0
114	278	0	10000	2	1	0	2	0
112	279	0	10000	2	1	0	2	0
107	280	0	10000	2	1	0	2	0
110	281	0	10000	2	1	0	2	0
116	282	0	10000	2	1	0	2	0
119	283	0	10000	2	1	0	2	0
118	284	0	10000	2	1	0	2	0
116	285	0	10000	2	1	0	2	0
116	286	0	10000	2	1	0	2	0
119	287	0	10000	2	1	0	2	0
124	288	0	10000	2	1	0	2	0
123	289	0	10000	2	1	0	2	0
118	290	0	10000	2	1	0	2	0
114	291	0	10000	2	1	0	2	0
115	292	0	10000	2	1	0	2	0
116	293	0	10000	2	1	0	2	0
122	294	0	10000	2	1	0	2	0
124	295	0	10000	2	1	0	2	0
120	296	0	10000	2	1	0	2	0
119	297	0	10000	2	1	0	2	0
122	298	0	10000	2	1	0	2	0
123	299	0	10000	2	1	0	2	0
118	300	0	10000	2	1	0	2	0
113	301	0	10000	2	1	0	2	0
113	302	0	10000	2	1	0	2	0
116	303	0	10000	2	1	0	2	0
114	304	0	10000	2	1	0	2	0
113	305	0	10000	2	1	0	2	0
109	306	0	10000	2	1	0	2	0
111	307	0	10000	2	1	0	2	0
115	308	0	10000	2	1	0	2	0
119	309	0	10000	2	1	0	2	0
123	310	0	10000	2	1	0	2	0
120	311	0	10000	2	1	0	2	0
114	312	0	10000	2	1	0	2	0
110	313	0	10000	2	1	0	2	0
111	314	0	10000	2	1	0	2	0
115	315	0	10000	2	1	0	2	0
119	316	0	10000	2	1	0	2	0
116	317	0	10000	2	1	0	2	0
111	318	0	10000	2	1	0	2	0
109	319	0	10000	2	1	0	2	0
111	320	0	10000	2	1	0	2	0
110	321	0	10000	2	1	0	2	0
106	322	0	10000	2	1	0	2	0
108	323	0	10000	2	1	0	2	0
110	324	0	10000	2	1	0	2	0
110	325	0	10000	2	1	0	2	0
112	326	0	10000	2	1	0	2	0
115	327	0	10000	2	1	0	2	0
114	328	0	10000	2	1	0	2	0
109	329	0	10000	2	1	0	2	0
108	330	0	10000	2	1	0	2	0
106	331	0	10000	2	1	0	2	0
106	332	0	10000	2	1	0	2	0
109	333	0	10000	2	1	0	2	0
110	334	0	10000	2	1	0	2	0
107	335	0	10000	2	1	0	2	0
104	336	0	10000	2	1	0	2	0
103	337	0	10000	2	1	0	2	0
99	338	0	10000	2	1	0	2	0
96	339	0	10000	2	1	0	2	0
92	340	0	10000	2	1	0	2	0
90	341	0	10000	2	1	0	2	0
86	342	0	10000	2	1	0	2	0
86	343	0	10000	2	1	0	2	0
81	344	0	10000	2	1	0	2	0
82	345	0	10000	2	1	0	2	0
80	346	0	10000	2	1	0	2	0
77	347	0	10000	2	1	0	2	0
77	348	0	10000	2	1	0	2	0
73	349	0	10000	2	1	0	2	0
73	350	0	10000	2	1	0	2	0
71	351	0	10000	2	1	0	2	0
70	352	0	10000	2	1	0	2	0
67	353	0	10000	2	1	0	2	0
68	354	0	10000	2	1	0	2	0
66	355	0	10000	2	1	0	2	0
64	356	0	10000	2	1	0	2	0
61	357	0	10000	2	1	0	2	0
62	358	0	10000	2	1	0	2	0
64	359	0	10000	2	1	0	2	0
67	360	0	10000	2	1	0	2	0
66	361	0	10000	2	1	0	2	0
65	362	0	10000	2	1	0	2	0
70	363	0	10000	2	1	0	2	0
72	364	0	10000	2	1	0	2	0
72	365	0	10000	2	1	0	2	0
73	366	0	10000	2	1	0	2	0
73	367	0	10000	2	1	0	2	0
73	368	0	10000	2	1	0	2	0
71	369	0	10000	2	1	0	2	0
70	370	0	10000	2	1	0	2	0
68	371	0	10000	2	1	0	2	0
65	372	0	10000	2	1	0	2	0
62	373	0	10000	2	1	0	2	0
66	374	0	10000	2	1	0	2	0
64	375	0	10000	2	1	0	2	0
62	376	0	10000	2	1	0	2	0
59	377	0	10000	2	1	0	2	0
57	378	0	10000	2	1	0	2	0
56	379	0	10000	2	1	0	2	0
55	380	0	10000	2	1	0	2	0
54	381	0	10000	2	1	0	2	0
56	382	0	10000	2	1	0	2	0
55	383	0	10000	2	1	0	2	0
51	384	0	10000	2	1	0	2	0
50	385	0	10000	2	1	0	2	0
49	386	0	10000	2	1	0	2	0
49	387	0	10000	2	1	0	2	0
55	388	0	10000	2	1	0	2	0
60	389	0	10000	2	1	0	2	0
67	390	0	10000	2	1	0	2	0
68	391	0	10000	2	1	0	2	0
68	392	0	10000	2	1	0	2	0
69	393	0	10000	2	1	0	2	0
77	394	0	10000	2	1	0	2	0
82	395	0	10000	2	1	0	2	0
84	396	0	10000	2	1	0	2	0
85	397	0	10000	2	1	0	2	0
82	398	0	10000	2	1	0	2	0
80	399	0	10000	2	1	0	2	0
77	400	0	10000	2	1	0	2	0
74	401	0	10000	2	1	0	2	0
73	402	0	10000	2	1	0	2	0
72	403	0	10000	2	1	0	2	0
67	404	0	10000	2	1	0	2	0
67	405	0	10000	2	1	0	2	0
64	406	0	10000	2	1	0	2	0
62	407	0	10000	2	1	0	2	0
62	408	0	10000	2	1	0	2	0
61	409	0	10000	2	1	0	2	0
60	410	0	10000	2	1	0	2	0
57	411	0	10000	2	1	0	2	0
56	412	0	10000	2	1	0	2	0
54	413	0	10000	2	1	0	2	0
55	414	0	10000	2	1	0	2	0
54	415	0	10000	2	1	0	2	0
52	416	0	10000	2	1	0	2	0
51	417	0	10000	2	1	0	2	0
49	418	0	10000	2	1	0	2	0
47	419	0	10000	2	1	0	2	0
45	420	0	10000	2	1	0	2	0
45	421	0	10000	2	1	0	2	0
44	422	0	10000	2	1	0	2	0
43	423	0	10000	2	1	0	2	0
39	424	0	10000	2	1	0	2	0
39	425	0	10000	2	1	0	2	0
39	426	0	10000	2	1	0	2	0
39	427	0	10000	2	1	0	2	0
39	428	0	10000	2	1	0	2	0
39	429	0	10000	2	1	0	2	0
40	430	0	10000	2	1	0	2	0
40	431	0	10000	2	1	0	2	0
38	432	0	10000	2	1	0	2	0
39	433	0	10000	2	1	0	2	0
45	434	0	10000	2	1	0	2	0
45	435	0	10000	2	1	0	2	0
45	436	0	10000	2	1	0	2	0
44	437	0	10000	2	1	0	2	0
43	438	0	10000	2	1	0	2	0
42	439	0	10000	2	1	0	2	0
40	440	0	10000	2	1	0	2	0
41	441	0	10000	2	1	0	2	0
41	442	0	10000	2	1	0	2	0
43	443	0	10000	2	1	0	2	0
43	444	0	10000	2	1	0	2	0
49	445	0	10000	2	1	0	2	0
56	446	0	10000	2	1	0	2	0
56	447	0	10000	2	1	0	2	0
55	448	0	10000	2	1	0	2	0
58	449	0	10000	2	1	0	2	0
59	450	0	10000	2	1	0	2	0
56	451	0	10000	2	1	0	2	0
55	452	0	10000	2	1	0	2	0
52	453	0	10000	2	1	0	2	0
53	454	0	10000	2	1	0	2	0
52	455	0	10000	2	1	0	2	0
49	456	0	10000	2	1	0	2	0
51	457	0	10000	2	1	0	2	0
49	458	0	10000	2	1	0	2	0
49	459	0	10000	2	1	0	2	0
48	460	0	10000	2	1	0	2	0
48	461	0	10000	2	1	0	2	0
46	462	0	10000	2	1	0	2	0
48	463	0	10000	2	1	0	2	0
44	464	0	10000	2	1	0	2	0
43	465	0	10000	2	1	0	2	0
44	466	0	10000	2	1	0	2	0
44	467	0	10000	2	1	0	2	0
43	468	0	10000	2	1	0	2	0
41	469	0	10000	2	1	0	2	0
41	470	0	10000	2	1	0	2	0
40	471	0	10000	2	1	0	2	0
37	472	0	10000	2	1	0	2	0
36	473	0	10000	2	1	0	2	0
39	474	0	10000	2	1	0	2	0
42	475	0	10000	2	1	0	2	0
45	476	0	10000	2	1	0	2	0
47	477	0	10000	2	1	0	2	0
47	478	0	10000	2	1	0	2	0
46	479	0	10000	2	1	0	2	0
45	480	0	10000	2	1	0	2	0
47	481	0	10000	2	1	0	2	0
47	482	0	10000	2	1	0	2	0
47	483	0	10000	2	1	0	2	0
44	484	0	10000	2	1	0	2	0
45	485	0	10000	2	1	0	2	0
46	486	0	10000	2	1	0	2	0
47	487	0	10000	2	1	0	2	0
49	488	0	10000	2	1	0	2	0
49	489	0	10000	2	1	0	2	0
47	490	0	10000	2	1	0	2	0
46	491	0	10000	2	1	0	2	0
45	492	0	10000	2	1	0	2	0
46	493	0	10000	2	1	0	2	0
46	494	0	10000	2	1	0	2	0
48	495	0	10000	2	1	0	2	0
48	496	0	10000	2	1	0	2	0
48	497	0	10000	2	1	0	2	0
45	498	0	10000	2	1	0	2	0
47	499	0	10000	2	1	0	2	0
46	500	0	10000	2	1	0	2	0
45	501	0	10000	2	1	0	2	0
45	501	0	10000	2	1	0	2	1
45	502	0	10000	2	1	0	2	1
43	504	0	10000	2	1	0	2	1
45	505	0	10000	2	1	0	2	1
49	506	0	10000	2	1	0	2	1
52	507	0	10000	2	1	0	2	1
56	508	0	10000	2	1	0	2	1
54	509	0	10000	2	1	0	2	1
53	510	0	10000	2	1	0	2	1
53	511	0	10000	2	1	0	2	1
55	512	0	10000	2	1	0	2	1
53	513	0	10000	2	1	0	2	1
54	514	0	10000	2	1	0	2	1
56	515	0	10000	2	1	0	2	1
54	516	0	10000	2	1	0	2	1
54	517	0	10000	2	1	0	2	1
54	518	0	10000	2	1	0	2	1
53	519	0	10000	2	1	0	2	1
54	520	0	10000	2	1	0	2	1
53	521	0	10000	2	1	0	2	1
51	522	0	10000	2	1	0	2	1
51	523	0	10000	2	1	0	2	1
47	524	0	10000	2	1	0	2	1
48	525	0	10000	2	1	0	2	1
47	526	0	10000	2	1	0	2	1
47	527	0	10000	2	1	0	2	1
47	528	0	10000	2	1	0	2	1
45	529	0	10000	2	1	0	2	1
46	530	0	10000	2	1	0	2	1
46	531	0	10000	2	1	0	2	1
45	532	0	10000	2	1	0	2	1
46	533	0	10000	2	1	0	2	1
47	534	0	10000	2	1	0	2	1
45	535	0	10000	2	1	0	2	1
45	536	0	10000	2	1	0	2	1
43	537	0	10000	2	1	0	2	1
43	538	0	10000	2	1	0	2	1
42	539	0	10000	2	1	0	2	1
44	540	0	10000	2	1	0	2	1
45	541	0	10000	2	1	0	2	1
46	542	0	10000	2	1	0	2	1
46	543	0	10000	2	1	0	2	1
43	544	0	10000	2	1	0	2	1
42	545	0	10000	2	1	0	2	1
43	546	0	10000	2	1	0	2	1
41	547	0	10000	2	1	0	2	1
40	548	0	10000	2	1	0	2	1
39	549	0	10000	2	1	0	2	1
38	550	0	10000	2	1	0	2	1
37	551	0	10000	2	1	0	2	1
37	552	0	10000	2	1	0	2	0
37	553	0	10000	2	1	0	2	0
38	554	0	10000	2	1	0	2	0
37	555	0	10000	2	1	0	2	0
35	556	0	10000	2	1	0	2	0
34	557	0	10000	2	1	0	2	0
33	558	0	10000	2	1	0	2	0
33	559	0	10000	2	1	0	2	0
32	560	0	10000	2	1	0	2	0
32	561	0	10000	2	1	0	2	0
32	562	0	10000	2	1	0	2	0
33	563	0	10000	2	1	0	2	0
32	564	0	10000	2	1	0	2	0
32	565	0	10000	2	1	0	2	0
32	566	0	10000	2	1	0	2	0
33	567	0	10000	2	1	0	2	0
33	568	0	10000	2	1	0	2	0
35	569	0	10000	2	1	0	2	0
34	570	0	10000	2	1	0	2	0
33	571	0	10000	2	1	0	2	0
33	572	0	10000	2	1	0	2	0
35	573	0	10000	2	1	0	2	0
37	574	0	10000	2	1	0	2	0
38	575	0	10000	2	1	0	2	0
38	576	0	10000	2	1	0	2	0
36	577	0	10000	2	1	0	2	0
35	578	0	10000	2	1	0	2	0
36	579	0	10000	2	1	0	2	0
35	580	0	10000	2	1	0	2	0
35	581	0	10000	2	1	0	2	0
34	582	0	10000	2	1	0	2	0
33	583	0	10000	2	1	0	2	0
33	584	0	10000	2	1	0	2	0
33	585	0	10000	2	1	0	2	0
34	586	0	10000	2	1	0	2	0
36	587	0	10000	2	1	0	2	0
37	588	0	10000	2	1	0	2	0
41	589	0	10000	2	1	0	2	0
40	590	0	10000	2	1	0	2	0
43	591	0	10000	2	1	0	2	0
48	592	0	10000	2	1	0	2	0
49	593	0	10000	2	1	0	2	0
56	594	0	10000	2	1	0	2	0
60	595	0	10000	2	1	0	2	0
61	596	0	10000	2	1	0	2	0
79	597	0	10000	2	1	0	2	0
98	598	0	10000	2	1	0	2	0
100	599	0	10000	2	1	0	2	0
110	600	0	10000	2	1	0	2	0
121	601	0	10000	2	1	0	2	0
123	602	0	10000	2	1	0	2	0
118	603	0	10000	2	1	0	2	0
112	604	0	10000	2	1	0	2	0
115	605	0	10000	2	1	0	2	0
113	606	0	10000	2	1	0	2	0
113	607	0	10000	2	1	0	2	0
123	608	0	10000	2	1	0	2	0
150	609	0	10000	2	1	0	2	0
167	610	0	10000	2	1	0	2	0
165	611	0	10000	2	1	0	2	0
178	612	0	10000	2	1	0	2	0
188	613	0	10000	2	1	0	2	0
189	614	0	10000	2	1	0	2	0
185	615	0	10000	2	1	0	2	0
177	616	0	10000	2	1	0	2	0
172	617	0	10000	2	1	0	2	0
168	618	0	10000	2	1	0	2	0
161	619	0	10000	2	1	0	2	0
159	620	0	10000	2	1	0	2	0
154	621	0	10000	2	1	0	2	0
148	622	0	10000	2	1	0	2	0
141	623	0	10000	2	1	0	2	0
138	624	0	10000	2	1	0	2	0
137	625	0	10000	2	1	0	2	0
132	626	0	10000	2	1	0	2	0
128	627	0	10000	2	1	0	2	0
125	628	0	10000	2	1	0	2	0
120	629	0	10000	2	1	0	2	0
117	630	0	10000	2	1	0	2	0
113	631	0	10000	2	1	0	2	0
109	632	0	10000	2	1	0	2	0
104	633	0	10000	2	1	0	2	0
103	634	0	10000	2	1	0	2	0
99	635	0	10000	2	1	0	2	0
95	636	0	10000	2	1	0	2	0
93	637	0	10000	2	1	0	2	0
90	638	0	10000	2	1	0	2	0
86	639	0	10000	2	1	0	2	0
82	640	0	10000	2	1	0	2	0
80	641	0	10000	2	1	0	2	0
79	642	0	10000	2	1	0	2	0
78	643	0	10000	2	1	0	2	0
72	644	0	10000	2	1	0	2	0
73	645	0	10000	2	1	0	2	0
74	646	0	10000	2	1	0	2	0
72	647	0	10000	2	1	0	2	0
75	648	0	10000	2	1	0	2	0
77	649	0	10000	2	1	0	2	0
75	650	0	10000	2	1	0	2	0
75	651	0	10000	2	1	0	2	0
75	652	0	10000	2	1	0	2	0
73	653	0	10000	2	1	0	2	0
74	654	0	10000	2	1	0	2	0
73	655	0	10000	2	1	0	2	0
74	656	0	10000	2	1	0	2	0
74	657	0	10000	2	1	0	2	0
72	658	0	10000	2	1	0	2	0
72	659	0	10000	2	1	0	2	0
74	660	0	10000	2	1	0	2	0
72	661	0	10000	2	1	0	2	0
73	662	0	10000	2	1	0	2	0
73	663	0	10000	2	1	0	2	0
69	664	0	10000	2	1	0	2	0
70	665	0	10000	2	1	0	2	0
69	666	0	10000	2	1	0	2	0
67	667	0	10000	2	1	0	2	0
66	668	0	10000	2	1	0	2	0
63	669	0	10000	2	1	0	2	0
62	670	0	10000	2	1	0	2	0
62	671	0	10000	2	1	0	2	0
59	672	0	10000	2	1	0	2	0
60	673	0	10000	2	1	0	2	0
63	674	0	10000	2	1	0	2	0
61	675	0	10000	2	1	0	2	0
60	676	0	10000	2	1	0	2	0
61	677	0	10000	2	1	0	2	0
62	678	0	10000	2	1	0	2	0
64	679	0	10000	2	1	0	2	0
63	680	0	10000	2	1	0	2	0
63	681	0	10000	2	1	0	2	0
62	682	0	10000	2	1	0	2	0
63	683	0	10000	2	1	0	2	0
59	684	0	10000	2	1	0	2	0
60	685	0	10000	2	1	0	2	0
58	686	0	10000	2	1	0	2	0
55	687	0	10000	2	1	0	2	0
55	688	0	10000	2	1	0	2	0
56	689	0	10000	2	1	0	2	0
57	690	0	10000	2	1	0	2	0
59	691	0	10000	2	1	0	2	0
60	692	0	10000	2	1	0	2	0
59	693	0	10000	2	1	0	2	0
61	694	0	10000	2	1	0	2	0
59	695	0	10000	2	1	0	2	0
58	696	0	10000	2	1	0	2	0
56	697	0	10000	2	1	0	2	0
54	698	0	10000	2	1	0	2	0
54	699	0	10000	2	1	0	2	0
53	700	0	10000	2	1	0	2	0
54	701	0	10000	2	1	0	2	0
56	702	0	10000	2	1	0	2	0
59	703	0	10000	2	1	0	2	0
62	704	0	10000	2	1	0	2	0
65	705	0	10000	2	1	0	2	0
67	706	0	10000	2	1	0	2	0
70	707	0	10000	2	1	0	2	0
71	708	0	10000	2	1	0	2	0
71	709	0	10000	2	1	0	2	0
71	710	0	10000	2	1	0	2	0
70	711	0	10000	2	1	0	2	0
68	712	0	10000	2	1	0	2	0
66	713	0	10000	2	1	0	2	0
68	714	0	10000	2	1	0	2	0
69	715	0	10000	2	1	0	2	0
70	716	0	10000	2	1	0	2	0
68	717	0	10000	2	1	0	2	0
67	718	0	10000	2	1	0	2	0
67	719	0	10000	2	1	0	2	0
72	720	0	10000	2	1	0	2	0
75	721	0	10000	2	1	0	2	0
79	722	0	10000	2	1	0	2	0
80	723	0	10000	2	1	0	2	0
76	724	0	10000	2	1	0	2	0
76	725	0	10000	2	1	0	2	0
72	726	0	10000	2	1	0	2	0
70	727	0	10000	2	1	0	2	0
69	728	0	10000	2	1	0	2	0
66	729	0	10000	2	1	0	2	0
65	730	0	10000	2	1	0	2	0
63	731	0	10000	2	1	0	2	0
63	732	0	10000	2	1	0	2	0
62	733	0	10000	2	1	0	2	0
66	734	0	10000	2	1	0	2	0
65	735	0	10000	2	1	0	2	0
62	736	0	10000	2	1	0	2	0
59	737	0	10000	2	1	0	2	0
59	738	0	10000	2	1	0	2	0
57	739	0	10000	2	1	0	2	0
55	740	0	10000	2	1	0	2	0
54	741	0	10000	2	1	0	2	0
57	742	0	10000	2	1	0	2	0
57	743	0	10000	2	1	0	2	0
54	744	0	10000	2	1	0	2	0
54	745	0	10000	2	1	0	2	0
52	746	0	10000	2	1	0	2	0
53	747	0	10000	2	1	0	2	0
54	748	0	10000	2	1	0	2	0
51	749	0	10000	2	1	0	2	0
49	750	0	10000	2	1	0	2	0
50	751	0	10000	2	1	0	2	0
49	752	0	10000	2	1	0	2	0
49	753	0	10000	2	1	0	2	0
51	754	0	10000	2	1	0	2	0
50	755	0	10000	2	1	0	2	0
54	756	0	10000	2	1	0	2	0
58	757	0	10000	2	1	0	2	0
60	758	0	10000	2	1	0	2	0
61	759	0	10000	2	1	0	2	0
61	760	0	10000	2	1	0	2	0
60	761	0	10000	2	1	0	2	0
58	762	0	10000	2	1	0	2	0
59	763	0	10000	2	1	0	2	0
55	764	0	10000	2	1	0	2	0
56	765	0	10000	2	1	0	2	0
59	766	0	10000	2	1	0	2	0
61	767	0	10000	2	1	0	2	0
63	768	0	10000	2	1	0	2	0
60	769	0	10000	2	1	0	2	0
58	770	0	10000	2	1	0	2	0
56	771	0	10000	2	1	0	2	0
56	772	0	10000	2	1	0	2	0
56	773	0	10000	2	1	0	2	0
59	774	0	10000	2	1	0	2	0
60	775	0	10000	2	1	0	2	0
59	776	0	10000	2	1	0	2	0
57	777	0	10000	2	1	0	2	0
57	778	0	10000	2	1	0	2	0
58	779	0	10000	2	1	0	2	0
59	780	0	10000	2	1	0	2	0
62	781	0	10000	2	1	0	2	0
61	782	0	10000	2	1	0	2	0
59	783	0	10000	2	1	0	2	0
55	784	0	10000	2	1	0	2	0
54	785	0	10000	2	1	0	2	0
54	786	0	10000	2	1	0	2	0
53	787	0	10000	2	1	0	2	0
52	788	0	10000	2	1	0	2	0
51	789	0	10000	2	1	0	2	0
52	790	0	10000	2	1	0	2	0
55	791	0	10000	2	1	0	2	0
56	792	0	10000	2	1	0	2	0
57	793	0	10000	2	1	0	2	0
57	794	0	10000	2	1	0	2	0
56	795	0	10000	2	1	0	2	0
53	796	0	10000	2	1	0	2	0
53	797	0	10000	2	1	0	2	0
53	798	0	10000	2	1	0	2	0
54	799	0	10000	2	1	0	2	0
57	800	0	10000	2	1	0	2	0
60	801	0	10000	2	1	0	2	0
62	802	0	10000	2	1	0	2	0
61	803	0	10000	2	1	0	2	0
56	804	0	10000	2	1	0	2	0
56	805	0	10000	2	1	0	2	0
55	806	0	10000	2	1	0	2	0
53	807	0	10000	2	1	0	2	0
54	808	0	10000	2	1	0	2	0
55	809	0	10000	2	1	0	2	0
55	810	0	10000	2	1	0	2	0
54	811	0	10000	2	1	0	2	0
51	812	0	10000	2	1	0	2	0
49	813	0	10000	2	1	0	2	0
50	814	0	10000	2	1	0	2	0
51	815	0	10000	2	1	0	2	0
50	816	0	10000	2	1	0	2	0
52	817	0	10000	2	1	0	2	0
53	818	0	10000	2	1	0	2	0
52	819	0	10000	2	1	0	2	0
49	820	0	10000	2	1	0	2	0
49	821	0	10000	2	1	0	2	0
49	822	0	10000	2	1	0	2	0
48	823	0	10000	2	1	0	2	0
44	824	0	10000	2	1	0	2	0
45	825	0	10000	2	1	0	2	0
46	826	0	10000	2	1	0	2	0
45	827	0	10000	2	1	0	2	0
45	828	0	10000	2	1	0	2	0
46	829	0	10000	2	1	0	2	0
44	830	0	10000	2	1	0	2	0
45	831	0	10000	2	1	0	2	0
43	832	0	10000	2	1	0	2	0
47	833	0	10000	2	1	0	2	0
48	834	0	10000	2	1	0	2	0
47	835	0	10000	2	1	0	2	0
45	836	0	10000	2	1	0	2	0
45	837	0	10000	2	1	0	2	0
44	838	0	10000	2	1	0	2	0
43	839	0	10000	2	1	0	2	0
41	840	0	10000	2	1	0	2	0
41	841	0	10000	2	1	0	2	0
42	842	0	10000	2	1	0	2	0
42	843	0	10000	2	1	0	2	0
42	844	0	10000	2	1	0	2	0
42	845	0	10000	2	1	0	2	0
41	846	0	10000	2	1	0	2	0
42	847	0	10000	2	1	0	2	0
44	848	0	10000	2	1	0	2	0
44	849	0	10000	2	1	0	2	0
44	850	0	10000	2	1	0	2	0
46	851	0	10000	2	1	0	2	0
51	852	0	10000	2	1	0	2	0
55	853	0	10000	2	1	0	2	0
62	854	0	10000	2	1	0	2	0
61	855	0	10000	2	1	0	2	0
58	856	0	10000	2	1	0	2	0
56	857	0	10000	2	1	0	2	0
54	858	0	10000	2	1	0	2	0
51	859	0	10000	2	1	0	2	0
55	860	0	10000	2	1	0	2	0
56	861	0	10000	2	1	0	2	0
56	862	0	10000	2	1	0	2	0
56	863	0	10000	2	1	0	2	0
55	864	0	10000	2	1	0	2	0
56	865	0	10000	2	1	0	2	0
58	866	0	10000	2	1	0	2	0
58	867	0	10000	2	1	0	2	0
57	868	0	10000	2	1	0	2	0
55	869	0	10000	2	1	0	2	0
54	870	0	10000	2	1	0	2	0
54	871	0	10000	2	1	0	2	0
53	872	0	10000	2	1	0	2	0
51	873	0	10000	2	1	0	2	0
55	874	0	10000	2	1	0	2	0
57	875	0	10000	2	1	0	2	0
63	876	0	10000	2	1	0	2	0
68	877	0	10000	2	1	0	2	0
67	878	0	10000	2	1	0	2	0
66	879	0	10000	2	1	0	2	0
68	880	0	10000	2	1	0	2	0
68	881	0	10000	2	1	0	2	0
70	882	0	10000	2	1	0	2	0
71	883	0	10000	2	1	0	2	0
68	884	0	10000	2	1	0	2	0
66	885	0	10000	2	1	0	2	0
64	886	0	10000	2	1	0	2	0
62	887	0	10000	2	1	0	2	0
60	888	0	10000	2	1	0	2	0
59	889	0	10000	2	1	0	2	0
57	890	0	10000	2	1	0	2	0
55	891	0	10000	2	1	0	2	0
52	892	0	10000	2	1	0	2	0
52	893	0	10000	2	1	0	2	0
54	894	0	10000	2	1	0	2	0
55	895	0	10000	2	1	0	2	0
54	896	0	10000	2	1	0	2	0
57	897	0	10000	2	1	0	2	0
55	898	0	10000	2	1	0	2	0
55	899	0	10000	2	1	0	2	0
55	900	0	10000	2	1	0	2	0
54	901	0	10000	2	1	0	2	0
56	902	0	10000	2	1	0	2	0
54	903	0	10000	2	1	0	2	0
51	904	0	10000	2	1	0	2	0
49	905	0	10000	2	1	0	2	0
51	906	0	10000	2	1	0	2	0
52	907	0	10000	2	1	0	2	0
53	908	0	10000	2	1	0	2	0
50	909	0	10000	2	1	0	2	0
50	910	0	10000	2	1	0	2	0
50	911	0	10000	2	1	0	2	0
53	912	0	10000	2	1	0	2	0
55	913	0	10000	2	1	0	2	0
61	914	0	10000	2	1	0	2	0
67	915	0	10000	2	1	0	2	0
67	916	0	10000	2	1	0	2	0
66	917	0	10000	2	1	0	2	0
64	918	0	10000	2	1	0	2	0
62	919	0	10000	2	1	0	2	0
60	920	0	10000	2	1	0	2	0
61	921	0	10000	2	1	0	2	0
63	922	0	10000	2	1	0	2	0
63	923	0	10000	2	1	0	2	0
61	924	0	10000	2	1	0	2	0
60	925	0	10000	2	1	0	2	0
61	926	0	10000	2	1	0	2	0
60	927	0	10000	2	1	0	2	0
60	928	0	10000	2	1	0	2	0
59	929	0	10000	2	1	0	2	0
57	930	0	10000	2	1	0	2	0
55	931	0	10000	2	1	0	2	0
53	932	0	10000	2	1	0	2	0
52	933	0	10000	2	1	0	2	0
57	934	0	10000	2	1	0	2	0
58	935	0	10000	2	1	0	2	0
57	936	0	10000	2	1	0	2	0
57	937	0	10000	2	1	0	2	0
56	938	0	10000	2	1	0	2	0
54	939	0	10000	2	1	0	2	0
53	940	0	10000	2	1	0	2	0
53	941	0	10000	2	1	0	2	0
52	942	0	10000	2	1	0	2	0
53	943	0	10000	2	1	0	2	0
51	944	0	10000	2	1	0	2	0
50	945	0	10000	2	1	0	2	0
54	946	0	10000	2	1	0	2	0
55	947	0	10000	2	1	0	2	0
54	948	0	10000	2	1	0	2	0
52	949	0	10000	2	1	0	2	0
51	950	0	10000	2	1	0	2	0
51	951	0	10000	2	1	0	2	0
49	952	0	10000	2	1	0	2	0
48	953	0	10000	2	1	0	2	0
50	954	0	10000	2	1	0	2	0
47	955	0	10000	2	1	0	2	0
48	956	0	10000	2	1	0	2	0
49	957	0	10000	2	1	0	2	0
47	958	0	10000	2	1	0	2	0
48	959	0	10000	2	1	0	2	0
48	960	0	10000	2	1	0	2	0
48	961	0	10000	2	1	0	2	0
48	962	0	10000	2	1	0	2	0
51	963	0	10000	2	1	0	2	0
53	964	0	10000	2	1	0	2	0
54	965	0	10000	2	1	0	2	0
55	966	0	10000	2	1	0	2	0
54	967	0	10000	2	1	0	2	0
53	968	0	10000	2	1	0	2	0
50	969	0	10000	2	1	0	2	0
50	970	0	10000	2	1	0	2	0
48	971	0	10000	2	1	0	2	0
47	972	0	10000	2	1	0	2	0
45	973	0	10000	2	1	0	2	0
46	974	0	10000	2	1	0	2	0
46	975	0	10000	2	1	0	2	0
45	976	0	10000	2	1	0	2	0
50	977	0	10000	2	1	0	2	0
54	978	0	10000	2	1	0	2	0
54	979	0	10000	2	1	0	2	0
55	980	0	10000	2	1	0	2	0
53	981	0	10000	2	1	0	2	0
53	982	0	10000	2	1	0	2	0
55	983	0	10000	2	1	0	2	0
51	984	0	10000	2	1	0	2	0
52	985	0	10000	2	1	0	2	0
52	986	0	10000	2	1	0	2	0
51	987	0	10000	2	1	0	2	0
52	988	0	10000	2	1	0	2	0
54	989	0	10000	2	1	0	2	0
56	990	0	10000	2	1	0	2	0
55	991	0	10000	2	1	0	2	0
54	992	0	10000	2	1	0	2	0
52	993	0	10000	2	1	0	2	0
53	994	0	10000	2	1	0	2	0
52	995	0	10000	2	1	0	2	0
52	996	0	10000	2	1	0	2	0
52	997	0	10000	2	1	0	2	0
50	998	0	10000	2	1	0	2	0
49	999	0	10000	2	1	0	2	0
52	1000	0	10000	2	1	0	2	0
54	1001	0	10000	2	1	0	2	0
56	1	0	10000	3	1	0	3	0
57	2	0	10000	3	1	0	3	0
61	3	0	10000	3	1	0	3	0
67	4	0	10000	3	1	0	3	0
69	5	0	10000	3	1	0	3	0
69	6	0	10000	3	1	0	3	0
69	7	0	10000	3	1	0	3	0
67	8	0	10000	3	1	0	3	0
65	9	0	10000	3	1	0	3	0
63	10	0	10000	3	1	0	3	0
62	11	0	10000	3	1	0	3	0
60	12	0	10000	3	1	0	3	0
58	13	0	10000	3	1	0	3	0
59	14	0	10000	3	1	0	3	0
58	15	0	10000	3	1	0	3	0
57	16	0	10000	3	1	0	3	0
55	17	0	10000	3	1	0	3	0
56	18	0	10000	3	1	0	3	0
56	19	0	10000	3	1	0	3	0
56	20	0	10000	3	1	0	3	0
57	21	0	10000	3	1	0	3	0
55	22	0	10000	3	1	0	3	0
54	23	0	10000	3	1	0	3	0
54	24	0	10000	3	1	0	3	0
52	25	0	10000	3	1	0	3	0
49	26	0	10000	3	1	0	3	0
48	27	0	10000	3	1	0	3	0
49	28	0	10000	3	1	0	3	0
48	29	0	10000	3	1	0	3	0
48	30	0	10000	3	1	0	3	0
47	31	0	10000	3	1	0	3	0
49	32	0	10000	3	1	0	3	0
49	33	0	10000	3	1	0	3	0
47	34	0	10000	3	1	0	3	0
47	35	0	10000	3	1	0	3	0
47	36	0	10000	3	1	0	3	0
46	37	0	10000	3	1	0	3	0
45	38	0	10000	3	1	0	3	0
44	39	0	10000	3	1	0	3	0
44	40	0	10000	3	1	0	3	0
44	41	0	10000	3	1	0	3	0
47	42	0	10000	3	1	0	3	0
48	43	0	10000	3	1	0	3	0
49	44	0	10000	3	1	0	3	0
51	45	0	10000	3	1	0	3	0
47	46	0	10000	3	1	0	3	0
47	47	0	10000	3	1	0	3	0
45	48	0	10000	3	1	0	3	0
44	49	0	10000	3	1	0	3	0
44	50	0	10000	3	1	0	3	0
43	51	0	10000	3	1	0	3	0
42	52	0	10000	3	1	0	3	0
43	53	0	10000	3	1	0	3	0
43	54	0	10000	3	1	0	3	0
43	55	0	10000	3	1	0	3	0
46	56	0	10000	3	1	0	3	0
44	57	0	10000	3	1	0	3	0
44	58	0	10000	3	1	0	3	0
42	59	0	10000	3	1	0	3	0
42	60	0	10000	3	1	0	3	0
41	61	0	10000	3	1	0	3	0
39	62	0	10000	3	1	0	3	0
39	63	0	10000	3	1	0	3	0
40	64	0	10000	3	1	0	3	0
41	65	0	10000	3	1	0	3	0
39	66	0	10000	3	1	0	3	0
41	67	0	10000	3	1	0	3	0
44	68	0	10000	3	1	0	3	0
46	69	0	10000	3	1	0	3	0
50	70	0	10000	3	1	0	3	0
51	71	0	10000	3	1	0	3	0
49	72	0	10000	3	1	0	3	0
48	73	0	10000	3	1	0	3	0
48	74	0	10000	3	1	0	3	0
48	75	0	10000	3	1	0	3	0
49	76	0	10000	3	1	0	3	0
49	77	0	10000	3	1	0	3	0
49	78	0	10000	3	1	0	3	0
49	79	0	10000	3	1	0	3	0
53	80	0	10000	3	1	0	3	0
53	81	0	10000	3	1	0	3	0
50	82	0	10000	3	1	0	3	0
50	83	0	10000	3	1	0	3	0
52	84	0	10000	3	1	0	3	0
51	85	0	10000	3	1	0	3	0
48	86	0	10000	3	1	0	3	0
48	87	0	10000	3	1	0	3	0
47	88	0	10000	3	1	0	3	0
48	89	0	10000	3	1	0	3	0
47	90	0	10000	3	1	0	3	0
48	91	0	10000	3	1	0	3	0
48	92	0	10000	3	1	0	3	0
47	93	0	10000	3	1	0	3	0
44	94	0	10000	3	1	0	3	0
45	95	0	10000	3	1	0	3	0
45	96	0	10000	3	1	0	3	0
44	97	0	10000	3	1	0	3	0
46	98	0	10000	3	1	0	3	0
47	99	0	10000	3	1	0	3	0
45	100	0	10000	3	1	0	3	0
44	101	0	10000	3	1	0	3	0
43	102	0	10000	3	1	0	3	0
44	103	0	10000	3	1	0	3	0
44	104	0	10000	3	1	0	3	0
43	105	0	10000	3	1	0	3	0
40	106	0	10000	3	1	0	3	0
41	107	0	10000	3	1	0	3	0
40	108	0	10000	3	1	0	3	0
42	109	0	10000	3	1	0	3	0
43	110	0	10000	3	1	0	3	0
42	111	0	10000	3	1	0	3	0
46	112	0	10000	3	1	0	3	0
47	113	0	10000	3	1	0	3	0
48	114	0	10000	3	1	0	3	0
52	115	0	10000	3	1	0	3	0
56	116	0	10000	3	1	0	3	0
57	117	0	10000	3	1	0	3	0
56	118	0	10000	3	1	0	3	0
56	119	0	10000	3	1	0	3	0
55	120	0	10000	3	1	0	3	0
55	121	0	10000	3	1	0	3	0
53	122	0	10000	3	1	0	3	0
53	123	0	10000	3	1	0	3	0
50	124	0	10000	3	1	0	3	0
49	125	0	10000	3	1	0	3	0
46	126	0	10000	3	1	0	3	0
47	127	0	10000	3	1	0	3	0
47	128	0	10000	3	1	0	3	0
49	129	0	10000	3	1	0	3	0
48	130	0	10000	3	1	0	3	0
50	131	0	10000	3	1	0	3	0
49	132	0	10000	3	1	0	3	0
47	133	0	10000	3	1	0	3	0
47	134	0	10000	3	1	0	3	0
46	135	0	10000	3	1	0	3	0
46	136	0	10000	3	1	0	3	0
45	137	0	10000	3	1	0	3	0
47	138	0	10000	3	1	0	3	0
46	139	0	10000	3	1	0	3	0
49	140	0	10000	3	1	0	3	0
56	141	0	10000	3	1	0	3	0
68	142	0	10000	3	1	0	3	0
69	143	0	10000	3	1	0	3	0
74	144	0	10000	3	1	0	3	0
80	145	0	10000	3	1	0	3	0
86	146	0	10000	3	1	0	3	0
87	147	0	10000	3	1	0	3	0
84	148	0	10000	3	1	0	3	0
83	149	0	10000	3	1	0	3	0
91	150	0	10000	3	1	0	3	0
101	151	0	10000	3	1	0	3	0
98	152	0	10000	3	1	0	3	0
96	153	0	10000	3	1	0	3	0
95	154	0	10000	3	1	0	3	0
103	155	0	10000	3	1	0	3	0
105	156	0	10000	3	1	0	3	0
114	157	0	10000	3	1	0	3	0
143	158	0	10000	3	1	0	3	0
150	159	0	10000	3	1	0	3	0
162	160	0	10000	3	1	0	3	0
172	161	0	10000	3	1	0	3	0
168	162	0	10000	3	1	0	3	0
175	163	0	10000	3	1	0	3	0
184	164	0	10000	3	1	0	3	0
182	165	0	10000	3	1	0	3	0
175	166	0	10000	3	1	0	3	0
171	167	0	10000	3	1	0	3	0
165	168	0	10000	3	1	0	3	0
160	169	0	10000	3	1	0	3	0
166	170	0	10000	3	1	0	3	0
170	171	0	10000	3	1	0	3	0
166	172	0	10000	3	1	0	3	0
165	173	0	10000	3	1	0	3	0
165	174	0	10000	3	1	0	3	0
164	175	0	10000	3	1	0	3	0
184	176	0	10000	3	1	0	3	0
218	177	0	10000	3	1	0	3	0
219	178	0	10000	3	1	0	3	0
212	179	0	10000	3	1	0	3	0
214	180	0	10000	3	1	0	3	0
227	181	0	10000	3	1	0	3	0
239	182	0	10000	3	1	0	3	0
258	183	0	10000	3	1	0	3	0
261	184	0	10000	3	1	0	3	0
251	185	0	10000	3	1	0	3	0
246	186	0	10000	3	1	0	3	0
238	187	0	10000	3	1	0	3	0
234	188	0	10000	3	1	0	3	0
232	189	0	10000	3	1	0	3	0
225	190	0	10000	3	1	0	3	0
224	191	0	10000	3	1	0	3	0
221	192	0	10000	3	1	0	3	0
216	193	0	10000	3	1	0	3	0
212	194	0	10000	3	1	0	3	0
204	195	0	10000	3	1	0	3	0
197	196	0	10000	3	1	0	3	0
189	197	0	10000	3	1	0	3	0
187	198	0	10000	3	1	0	3	0
184	199	0	10000	3	1	0	3	0
180	200	0	10000	3	1	0	3	0
176	201	0	10000	3	1	0	3	0
169	202	0	10000	3	1	0	3	0
166	203	0	10000	3	1	0	3	0
166	204	0	10000	3	1	0	3	0
164	205	0	10000	3	1	0	3	0
155	206	0	10000	3	1	0	3	0
150	207	0	10000	3	1	0	3	0
149	208	0	10000	3	1	0	3	0
152	209	0	10000	3	1	0	3	0
154	210	0	10000	3	1	0	3	0
155	211	0	10000	3	1	0	3	0
152	212	0	10000	3	1	0	3	0
148	213	0	10000	3	1	0	3	0
145	214	0	10000	3	1	0	3	0
141	215	0	10000	3	1	0	3	0
140	216	0	10000	3	1	0	3	0
140	217	0	10000	3	1	0	3	0
136	218	0	10000	3	1	0	3	0
133	219	0	10000	3	1	0	3	0
130	220	0	10000	3	1	0	3	0
126	221	0	10000	3	1	0	3	0
121	222	0	10000	3	1	0	3	0
117	223	0	10000	3	1	0	3	0
113	224	0	10000	3	1	0	3	0
109	225	0	10000	3	1	0	3	0
104	226	0	10000	3	1	0	3	0
101	227	0	10000	3	1	0	3	0
102	228	0	10000	3	1	0	3	0
105	229	0	10000	3	1	0	3	0
107	230	0	10000	3	1	0	3	0
107	231	0	10000	3	1	0	3	0
104	232	0	10000	3	1	0	3	0
99	233	0	10000	3	1	0	3	0
98	234	0	10000	3	1	0	3	0
98	235	0	10000	3	1	0	3	0
96	236	0	10000	3	1	0	3	0
93	237	0	10000	3	1	0	3	0
92	238	0	10000	3	1	0	3	0
95	239	0	10000	3	1	0	3	0
97	240	0	10000	3	1	0	3	0
94	241	0	10000	3	1	0	3	0
95	242	0	10000	3	1	0	3	0
94	243	0	10000	3	1	0	3	0
92	244	0	10000	3	1	0	3	0
90	245	0	10000	3	1	0	3	0
86	246	0	10000	3	1	0	3	0
84	247	0	10000	3	1	0	3	0
80	248	0	10000	3	1	0	3	0
78	249	0	10000	3	1	0	3	0
80	250	0	10000	3	1	0	3	0
83	251	0	10000	3	1	0	3	0
84	252	0	10000	3	1	0	3	0
84	253	0	10000	3	1	0	3	0
84	254	0	10000	3	1	0	3	0
86	255	0	10000	3	1	0	3	0
87	256	0	10000	3	1	0	3	0
84	257	0	10000	3	1	0	3	0
82	258	0	10000	3	1	0	3	0
80	259	0	10000	3	1	0	3	0
79	260	0	10000	3	1	0	3	0
78	261	0	10000	3	1	0	3	0
75	262	0	10000	3	1	0	3	0
73	263	0	10000	3	1	0	3	0
71	264	0	10000	3	1	0	3	0
71	265	0	10000	3	1	0	3	0
68	266	0	10000	3	1	0	3	0
67	267	0	10000	3	1	0	3	0
65	268	0	10000	3	1	0	3	0
64	269	0	10000	3	1	0	3	0
63	270	0	10000	3	1	0	3	0
62	271	0	10000	3	1	0	3	0
61	272	0	10000	3	1	0	3	0
60	273	0	10000	3	1	0	3	0
59	274	0	10000	3	1	0	3	0
59	275	0	10000	3	1	0	3	0
59	276	0	10000	3	1	0	3	0
59	277	0	10000	3	1	0	3	0
59	278	0	10000	3	1	0	3	0
57	279	0	10000	3	1	0	3	0
57	280	0	10000	3	1	0	3	0
56	281	0	10000	3	1	0	3	0
54	282	0	10000	3	1	0	3	0
54	283	0	10000	3	1	0	3	0
54	284	0	10000	3	1	0	3	0
56	285	0	10000	3	1	0	3	0
54	286	0	10000	3	1	0	3	0
55	287	0	10000	3	1	0	3	0
55	288	0	10000	3	1	0	3	0
54	289	0	10000	3	1	0	3	0
52	290	0	10000	3	1	0	3	0
51	291	0	10000	3	1	0	3	0
54	292	0	10000	3	1	0	3	0
52	293	0	10000	3	1	0	3	0
51	294	0	10000	3	1	0	3	0
52	295	0	10000	3	1	0	3	0
53	296	0	10000	3	1	0	3	0
51	297	0	10000	3	1	0	3	0
49	298	0	10000	3	1	0	3	0
48	299	0	10000	3	1	0	3	0
46	300	0	10000	3	1	0	3	0
46	301	0	10000	3	1	0	3	0
47	302	0	10000	3	1	0	3	0
46	303	0	10000	3	1	0	3	0
46	304	0	10000	3	1	0	3	0
45	305	0	10000	3	1	0	3	0
42	306	0	10000	3	1	0	3	0
41	307	0	10000	3	1	0	3	0
41	308	0	10000	3	1	0	3	0
41	309	0	10000	3	1	0	3	0
39	310	0	10000	3	1	0	3	0
43	311	0	10000	3	1	0	3	0
47	312	0	10000	3	1	0	3	0
47	313	0	10000	3	1	0	3	0
52	314	0	10000	3	1	0	3	0
53	315	0	10000	3	1	0	3	0
52	316	0	10000	3	1	0	3	0
50	317	0	10000	3	1	0	3	0
51	318	0	10000	3	1	0	3	0
50	319	0	10000	3	1	0	3	0
49	320	0	10000	3	1	0	3	0
47	321	0	10000	3	1	0	3	0
45	322	0	10000	3	1	0	3	0
44	323	0	10000	3	1	0	3	0
44	324	0	10000	3	1	0	3	0
45	325	0	10000	3	1	0	3	0
48	326	0	10000	3	1	0	3	0
52	327	0	10000	3	1	0	3	0
50	328	0	10000	3	1	0	3	0
51	329	0	10000	3	1	0	3	0
50	330	0	10000	3	1	0	3	0
51	331	0	10000	3	1	0	3	0
54	332	0	10000	3	1	0	3	0
54	333	0	10000	3	1	0	3	0
57	334	0	10000	3	1	0	3	0
56	335	0	10000	3	1	0	3	0
63	336	0	10000	3	1	0	3	0
66	337	0	10000	3	1	0	3	0
64	338	0	10000	3	1	0	3	0
67	339	0	10000	3	1	0	3	0
74	340	0	10000	3	1	0	3	0
80	341	0	10000	3	1	0	3	0
85	342	0	10000	3	1	0	3	0
89	343	0	10000	3	1	0	3	0
89	344	0	10000	3	1	0	3	0
90	345	0	10000	3	1	0	3	0
84	346	0	10000	3	1	0	3	0
81	347	0	10000	3	1	0	3	0
82	348	0	10000	3	1	0	3	0
79	349	0	10000	3	1	0	3	0
76	350	0	10000	3	1	0	3	0
73	351	0	10000	3	1	0	3	0
72	352	0	10000	3	1	0	3	0
69	353	0	10000	3	1	0	3	0
70	354	0	10000	3	1	0	3	0
73	355	0	10000	3	1	0	3	0
74	356	0	10000	3	1	0	3	0
70	357	0	10000	3	1	0	3	0
68	358	0	10000	3	1	0	3	0
67	359	0	10000	3	1	0	3	0
65	360	0	10000	3	1	0	3	0
64	361	0	10000	3	1	0	3	0
65	362	0	10000	3	1	0	3	0
70	363	0	10000	3	1	0	3	0
73	364	0	10000	3	1	0	3	0
74	365	0	10000	3	1	0	3	0
71	366	0	10000	3	1	0	3	0
71	367	0	10000	3	1	0	3	0
74	368	0	10000	3	1	0	3	0
78	369	0	10000	3	1	0	3	0
84	370	0	10000	3	1	0	3	0
90	371	0	10000	3	1	0	3	0
94	372	0	10000	3	1	0	3	0
94	373	0	10000	3	1	0	3	0
94	374	0	10000	3	1	0	3	0
90	375	0	10000	3	1	0	3	0
90	376	0	10000	3	1	0	3	0
85	377	0	10000	3	1	0	3	0
82	378	0	10000	3	1	0	3	0
80	379	0	10000	3	1	0	3	0
81	380	0	10000	3	1	0	3	0
81	381	0	10000	3	1	0	3	0
78	382	0	10000	3	1	0	3	0
77	383	0	10000	3	1	0	3	0
74	384	0	10000	3	1	0	3	0
74	385	0	10000	3	1	0	3	0
71	386	0	10000	3	1	0	3	0
70	387	0	10000	3	1	0	3	0
68	388	0	10000	3	1	0	3	0
66	389	0	10000	3	1	0	3	0
63	390	0	10000	3	1	0	3	0
61	391	0	10000	3	1	0	3	0
60	392	0	10000	3	1	0	3	0
57	393	0	10000	3	1	0	3	0
56	394	0	10000	3	1	0	3	0
54	395	0	10000	3	1	0	3	0
55	396	0	10000	3	1	0	3	0
53	397	0	10000	3	1	0	3	0
52	398	0	10000	3	1	0	3	0
51	399	0	10000	3	1	0	3	0
52	400	0	10000	3	1	0	3	0
53	401	0	10000	3	1	0	3	0
50	402	0	10000	3	1	0	3	0
49	403	0	10000	3	1	0	3	0
48	404	0	10000	3	1	0	3	0
48	405	0	10000	3	1	0	3	0
45	406	0	10000	3	1	0	3	0
49	407	0	10000	3	1	0	3	0
55	408	0	10000	3	1	0	3	0
60	409	0	10000	3	1	0	3	0
58	410	0	10000	3	1	0	3	0
58	411	0	10000	3	1	0	3	0
60	412	0	10000	3	1	0	3	0
58	413	0	10000	3	1	0	3	0
57	414	0	10000	3	1	0	3	0
56	415	0	10000	3	1	0	3	0
56	416	0	10000	3	1	0	3	0
56	417	0	10000	3	1	0	3	0
55	418	0	10000	3	1	0	3	0
52	419	0	10000	3	1	0	3	0
53	420	0	10000	3	1	0	3	0
56	421	0	10000	3	1	0	3	0
54	422	0	10000	3	1	0	3	0
54	423	0	10000	3	1	0	3	0
53	424	0	10000	3	1	0	3	0
51	425	0	10000	3	1	0	3	0
48	426	0	10000	3	1	0	3	0
48	427	0	10000	3	1	0	3	0
49	428	0	10000	3	1	0	3	0
54	429	0	10000	3	1	0	3	0
55	430	0	10000	3	1	0	3	0
56	431	0	10000	3	1	0	3	0
56	432	0	10000	3	1	0	3	0
54	433	0	10000	3	1	0	3	0
52	434	0	10000	3	1	0	3	0
56	435	0	10000	3	1	0	3	0
57	436	0	10000	3	1	0	3	0
55	437	0	10000	3	1	0	3	0
54	438	0	10000	3	1	0	3	0
59	439	0	10000	3	1	0	3	0
62	440	0	10000	3	1	0	3	0
61	441	0	10000	3	1	0	3	0
59	442	0	10000	3	1	0	3	0
58	443	0	10000	3	1	0	3	0
56	444	0	10000	3	1	0	3	0
55	445	0	10000	3	1	0	3	0
56	446	0	10000	3	1	0	3	0
57	447	0	10000	3	1	0	3	0
56	448	0	10000	3	1	0	3	0
60	449	0	10000	3	1	0	3	0
58	450	0	10000	3	1	0	3	0
57	451	0	10000	3	1	0	3	0
57	452	0	10000	3	1	0	3	0
53	453	0	10000	3	1	0	3	0
51	454	0	10000	3	1	0	3	0
50	455	0	10000	3	1	0	3	0
56	456	0	10000	3	1	0	3	0
57	457	0	10000	3	1	0	3	0
56	458	0	10000	3	1	0	3	0
53	459	0	10000	3	1	0	3	0
51	460	0	10000	3	1	0	3	0
50	461	0	10000	3	1	0	3	0
48	462	0	10000	3	1	0	3	0
48	463	0	10000	3	1	0	3	0
48	464	0	10000	3	1	0	3	0
48	465	0	10000	3	1	0	3	0
46	466	0	10000	3	1	0	3	0
44	467	0	10000	3	1	0	3	0
43	468	0	10000	3	1	0	3	0
44	469	0	10000	3	1	0	3	0
46	470	0	10000	3	1	0	3	0
51	471	0	10000	3	1	0	3	0
52	472	0	10000	3	1	0	3	0
49	473	0	10000	3	1	0	3	0
47	474	0	10000	3	1	0	3	0
47	475	0	10000	3	1	0	3	0
47	476	0	10000	3	1	0	3	0
47	477	0	10000	3	1	0	3	0
48	478	0	10000	3	1	0	3	0
47	479	0	10000	3	1	0	3	0
49	480	0	10000	3	1	0	3	0
48	481	0	10000	3	1	0	3	0
48	482	0	10000	3	1	0	3	0
48	483	0	10000	3	1	0	3	0
46	484	0	10000	3	1	0	3	0
45	485	0	10000	3	1	0	3	0
47	486	0	10000	3	1	0	3	0
50	487	0	10000	3	1	0	3	0
51	488	0	10000	3	1	0	3	0
52	489	0	10000	3	1	0	3	0
50	490	0	10000	3	1	0	3	0
49	491	0	10000	3	1	0	3	0
49	492	0	10000	3	1	0	3	0
47	493	0	10000	3	1	0	3	0
47	494	0	10000	3	1	0	3	0
47	495	0	10000	3	1	0	3	0
50	496	0	10000	3	1	0	3	0
49	497	0	10000	3	1	0	3	0
47	498	0	10000	3	1	0	3	0
46	499	0	10000	3	1	0	3	0
44	500	0	10000	3	1	0	3	0
50	501	0	10000	3	1	0	3	1
57	502	0	10000	3	1	0	3	1
60	503	0	10000	3	1	0	3	1
61	504	0	10000	3	1	0	3	1
60	505	0	10000	3	1	0	3	1
61	506	0	10000	3	1	0	3	1
62	507	0	10000	3	1	0	3	1
61	508	0	10000	3	1	0	3	1
62	509	0	10000	3	1	0	3	1
60	510	0	10000	3	1	0	3	1
60	511	0	10000	3	1	0	3	1
60	512	0	10000	3	1	0	3	1
59	513	0	10000	3	1	0	3	1
59	514	0	10000	3	1	0	3	1
60	515	0	10000	3	1	0	3	1
62	516	0	10000	3	1	0	3	1
65	517	0	10000	3	1	0	3	1
67	518	0	10000	3	1	0	3	1
67	519	0	10000	3	1	0	3	1
68	520	0	10000	3	1	0	3	1
66	521	0	10000	3	1	0	3	1
63	522	0	10000	3	1	0	3	1
63	523	0	10000	3	1	0	3	1
61	524	0	10000	3	1	0	3	1
59	525	0	10000	3	1	0	3	1
57	526	0	10000	3	1	0	3	1
58	527	0	10000	3	1	0	3	1
57	528	0	10000	3	1	0	3	1
59	529	0	10000	3	1	0	3	1
59	530	0	10000	3	1	0	3	1
58	531	0	10000	3	1	0	3	1
60	532	0	10000	3	1	0	3	1
62	533	0	10000	3	1	0	3	1
62	534	0	10000	3	1	0	3	1
62	535	0	10000	3	1	0	3	1
62	536	0	10000	3	1	0	3	1
60	537	0	10000	3	1	0	3	1
58	538	0	10000	3	1	0	3	1
56	539	0	10000	3	1	0	3	1
57	540	0	10000	3	1	0	3	1
56	541	0	10000	3	1	0	3	1
54	542	0	10000	3	1	0	3	1
53	543	0	10000	3	1	0	3	1
53	544	0	10000	3	1	0	3	1
51	545	0	10000	3	1	0	3	1
48	546	0	10000	3	1	0	3	1
49	547	0	10000	3	1	0	3	1
49	548	0	10000	3	1	0	3	1
50	549	0	10000	3	1	0	3	1
47	550	0	10000	3	1	0	3	1
47	551	0	10000	3	1	0	3	0
47	552	0	10000	3	1	0	3	0
45	553	0	10000	3	1	0	3	0
45	554	0	10000	3	1	0	3	0
45	555	0	10000	3	1	0	3	0
45	556	0	10000	3	1	0	3	0
44	557	0	10000	3	1	0	3	0
43	558	0	10000	3	1	0	3	0
45	559	0	10000	3	1	0	3	0
46	560	0	10000	3	1	0	3	0
51	561	0	10000	3	1	0	3	0
54	562	0	10000	3	1	0	3	0
57	563	0	10000	3	1	0	3	0
57	564	0	10000	3	1	0	3	0
60	565	0	10000	3	1	0	3	0
59	566	0	10000	3	1	0	3	0
63	567	0	10000	3	1	0	3	0
65	568	0	10000	3	1	0	3	0
67	569	0	10000	3	1	0	3	0
66	570	0	10000	3	1	0	3	0
64	571	0	10000	3	1	0	3	0
63	572	0	10000	3	1	0	3	0
61	573	0	10000	3	1	0	3	0
58	574	0	10000	3	1	0	3	0
56	575	0	10000	3	1	0	3	0
56	576	0	10000	3	1	0	3	0
54	577	0	10000	3	1	0	3	0
54	578	0	10000	3	1	0	3	0
51	579	0	10000	3	1	0	3	0
49	580	0	10000	3	1	0	3	0
48	581	0	10000	3	1	0	3	0
48	582	0	10000	3	1	0	3	0
49	583	0	10000	3	1	0	3	0
50	584	0	10000	3	1	0	3	0
49	585	0	10000	3	1	0	3	0
47	586	0	10000	3	1	0	3	0
46	587	0	10000	3	1	0	3	0
45	588	0	10000	3	1	0	3	0
45	589	0	10000	3	1	0	3	0
49	590	0	10000	3	1	0	3	0
49	591	0	10000	3	1	0	3	0
52	592	0	10000	3	1	0	3	0
51	593	0	10000	3	1	0	3	0
55	594	0	10000	3	1	0	3	0
59	595	0	10000	3	1	0	3	0
65	596	0	10000	3	1	0	3	0
64	597	0	10000	3	1	0	3	0
65	598	0	10000	3	1	0	3	0
68	599	0	10000	3	1	0	3	0
69	600	0	10000	3	1	0	3	0
77	601	0	10000	3	1	0	3	0
93	602	0	10000	3	1	0	3	0
95	603	0	10000	3	1	0	3	0
96	604	0	10000	3	1	0	3	0
95	605	0	10000	3	1	0	3	0
92	606	0	10000	3	1	0	3	0
91	607	0	10000	3	1	0	3	0
92	608	0	10000	3	1	0	3	0
95	609	0	10000	3	1	0	3	0
97	610	0	10000	3	1	0	3	0
95	611	0	10000	3	1	0	3	0
97	612	0	10000	3	1	0	3	0
98	613	0	10000	3	1	0	3	0
95	614	0	10000	3	1	0	3	0
93	615	0	10000	3	1	0	3	0
99	616	0	10000	3	1	0	3	0
114	617	0	10000	3	1	0	3	0
121	618	0	10000	3	1	0	3	0
118	619	0	10000	3	1	0	3	0
118	620	0	10000	3	1	0	3	0
115	621	0	10000	3	1	0	3	0
115	622	0	10000	3	1	0	3	0
116	623	0	10000	3	1	0	3	0
115	624	0	10000	3	1	0	3	0
113	625	0	10000	3	1	0	3	0
108	626	0	10000	3	1	0	3	0
104	627	0	10000	3	1	0	3	0
101	628	0	10000	3	1	0	3	0
99	629	0	10000	3	1	0	3	0
95	630	0	10000	3	1	0	3	0
92	631	0	10000	3	1	0	3	0
90	632	0	10000	3	1	0	3	0
85	633	0	10000	3	1	0	3	0
82	634	0	10000	3	1	0	3	0
80	635	0	10000	3	1	0	3	0
87	636	0	10000	3	1	0	3	0
93	637	0	10000	3	1	0	3	0
96	638	0	10000	3	1	0	3	0
97	639	0	10000	3	1	0	3	0
94	640	0	10000	3	1	0	3	0
90	641	0	10000	3	1	0	3	0
91	642	0	10000	3	1	0	3	0
97	643	0	10000	3	1	0	3	0
100	644	0	10000	3	1	0	3	0
101	645	0	10000	3	1	0	3	0
97	646	0	10000	3	1	0	3	0
92	647	0	10000	3	1	0	3	0
89	648	0	10000	3	1	0	3	0
88	649	0	10000	3	1	0	3	0
86	650	0	10000	3	1	0	3	0
82	651	0	10000	3	1	0	3	0
81	652	0	10000	3	1	0	3	0
79	653	0	10000	3	1	0	3	0
78	654	0	10000	3	1	0	3	0
77	655	0	10000	3	1	0	3	0
77	656	0	10000	3	1	0	3	0
75	657	0	10000	3	1	0	3	0
78	658	0	10000	3	1	0	3	0
77	659	0	10000	3	1	0	3	0
79	660	0	10000	3	1	0	3	0
80	661	0	10000	3	1	0	3	0
79	662	0	10000	3	1	0	3	0
82	663	0	10000	3	1	0	3	0
81	664	0	10000	3	1	0	3	0
79	665	0	10000	3	1	0	3	0
78	666	0	10000	3	1	0	3	0
76	667	0	10000	3	1	0	3	0
76	668	0	10000	3	1	0	3	0
79	669	0	10000	3	1	0	3	0
76	670	0	10000	3	1	0	3	0
77	671	0	10000	3	1	0	3	0
76	672	0	10000	3	1	0	3	0
73	673	0	10000	3	1	0	3	0
70	674	0	10000	3	1	0	3	0
68	675	0	10000	3	1	0	3	0
68	676	0	10000	3	1	0	3	0
67	677	0	10000	3	1	0	3	0
64	678	0	10000	3	1	0	3	0
62	679	0	10000	3	1	0	3	0
60	680	0	10000	3	1	0	3	0
59	681	0	10000	3	1	0	3	0
59	682	0	10000	3	1	0	3	0
59	683	0	10000	3	1	0	3	0
56	684	0	10000	3	1	0	3	0
54	685	0	10000	3	1	0	3	0
53	686	0	10000	3	1	0	3	0
54	687	0	10000	3	1	0	3	0
52	688	0	10000	3	1	0	3	0
52	689	0	10000	3	1	0	3	0
53	690	0	10000	3	1	0	3	0
53	691	0	10000	3	1	0	3	0
53	692	0	10000	3	1	0	3	0
51	693	0	10000	3	1	0	3	0
53	694	0	10000	3	1	0	3	0
55	695	0	10000	3	1	0	3	0
58	696	0	10000	3	1	0	3	0
60	697	0	10000	3	1	0	3	0
61	698	0	10000	3	1	0	3	0
59	699	0	10000	3	1	0	3	0
58	700	0	10000	3	1	0	3	0
56	701	0	10000	3	1	0	3	0
54	702	0	10000	3	1	0	3	0
53	703	0	10000	3	1	0	3	0
51	704	0	10000	3	1	0	3	0
53	705	0	10000	3	1	0	3	0
52	706	0	10000	3	1	0	3	0
49	707	0	10000	3	1	0	3	0
49	708	0	10000	3	1	0	3	0
49	709	0	10000	3	1	0	3	0
48	710	0	10000	3	1	0	3	0
50	711	0	10000	3	1	0	3	0
49	712	0	10000	3	1	0	3	0
48	713	0	10000	3	1	0	3	0
47	714	0	10000	3	1	0	3	0
46	715	0	10000	3	1	0	3	0
48	716	0	10000	3	1	0	3	0
47	717	0	10000	3	1	0	3	0
46	718	0	10000	3	1	0	3	0
45	719	0	10000	3	1	0	3	0
44	720	0	10000	3	1	0	3	0
44	721	0	10000	3	1	0	3	0
45	722	0	10000	3	1	0	3	0
48	723	0	10000	3	1	0	3	0
49	724	0	10000	3	1	0	3	0
51	725	0	10000	3	1	0	3	0
54	726	0	10000	3	1	0	3	0
60	727	0	10000	3	1	0	3	0
63	728	0	10000	3	1	0	3	0
67	729	0	10000	3	1	0	3	0
70	730	0	10000	3	1	0	3	0
70	731	0	10000	3	1	0	3	0
70	732	0	10000	3	1	0	3	0
68	733	0	10000	3	1	0	3	0
65	734	0	10000	3	1	0	3	0
66	735	0	10000	3	1	0	3	0
65	736	0	10000	3	1	0	3	0
65	737	0	10000	3	1	0	3	0
63	738	0	10000	3	1	0	3	0
60	739	0	10000	3	1	0	3	0
57	740	0	10000	3	1	0	3	0
56	741	0	10000	3	1	0	3	0
53	742	0	10000	3	1	0	3	0
52	743	0	10000	3	1	0	3	0
50	744	0	10000	3	1	0	3	0
49	745	0	10000	3	1	0	3	0
48	746	0	10000	3	1	0	3	0
46	747	0	10000	3	1	0	3	0
47	748	0	10000	3	1	0	3	0
47	749	0	10000	3	1	0	3	0
47	750	0	10000	3	1	0	3	0
46	751	0	10000	3	1	0	3	0
46	752	0	10000	3	1	0	3	0
45	753	0	10000	3	1	0	3	0
44	754	0	10000	3	1	0	3	0
43	755	0	10000	3	1	0	3	0
44	756	0	10000	3	1	0	3	0
44	757	0	10000	3	1	0	3	0
42	758	0	10000	3	1	0	3	0
41	759	0	10000	3	1	0	3	0
40	760	0	10000	3	1	0	3	0
40	761	0	10000	3	1	0	3	0
41	762	0	10000	3	1	0	3	0
40	763	0	10000	3	1	0	3	0
40	764	0	10000	3	1	0	3	0
41	765	0	10000	3	1	0	3	0
39	766	0	10000	3	1	0	3	0
37	767	0	10000	3	1	0	3	0
36	768	0	10000	3	1	0	3	0
36	769	0	10000	3	1	0	3	0
35	770	0	10000	3	1	0	3	0
36	771	0	10000	3	1	0	3	0
35	772	0	10000	3	1	0	3	0
35	773	0	10000	3	1	0	3	0
35	774	0	10000	3	1	0	3	0
34	775	0	10000	3	1	0	3	0
36	776	0	10000	3	1	0	3	0
34	777	0	10000	3	1	0	3	0
34	778	0	10000	3	1	0	3	0
35	779	0	10000	3	1	0	3	0
34	780	0	10000	3	1	0	3	0
33	781	0	10000	3	1	0	3	0
34	782	0	10000	3	1	0	3	0
38	783	0	10000	3	1	0	3	0
38	784	0	10000	3	1	0	3	0
38	785	0	10000	3	1	0	3	0
37	786	0	10000	3	1	0	3	0
39	787	0	10000	3	1	0	3	0
38	788	0	10000	3	1	0	3	0
43	789	0	10000	3	1	0	3	0
44	790	0	10000	3	1	0	3	0
49	791	0	10000	3	1	0	3	0
53	792	0	10000	3	1	0	3	0
52	793	0	10000	3	1	0	3	0
51	794	0	10000	3	1	0	3	0
51	795	0	10000	3	1	0	3	0
53	796	0	10000	3	1	0	3	0
51	797	0	10000	3	1	0	3	0
52	798	0	10000	3	1	0	3	0
52	799	0	10000	3	1	0	3	0
53	800	0	10000	3	1	0	3	0
54	801	0	10000	3	1	0	3	0
53	802	0	10000	3	1	0	3	0
55	803	0	10000	3	1	0	3	0
55	804	0	10000	3	1	0	3	0
56	805	0	10000	3	1	0	3	0
54	806	0	10000	3	1	0	3	0
53	807	0	10000	3	1	0	3	0
53	808	0	10000	3	1	0	3	0
56	809	0	10000	3	1	0	3	0
56	810	0	10000	3	1	0	3	0
54	811	0	10000	3	1	0	3	0
53	812	0	10000	3	1	0	3	0
51	813	0	10000	3	1	0	3	0
49	814	0	10000	3	1	0	3	0
49	815	0	10000	3	1	0	3	0
57	816	0	10000	3	1	0	3	0
59	817	0	10000	3	1	0	3	0
58	818	0	10000	3	1	0	3	0
56	819	0	10000	3	1	0	3	0
56	820	0	10000	3	1	0	3	0
57	821	0	10000	3	1	0	3	0
56	822	0	10000	3	1	0	3	0
56	823	0	10000	3	1	0	3	0
54	824	0	10000	3	1	0	3	0
53	825	0	10000	3	1	0	3	0
50	826	0	10000	3	1	0	3	0
49	827	0	10000	3	1	0	3	0
48	828	0	10000	3	1	0	3	0
47	829	0	10000	3	1	0	3	0
46	830	0	10000	3	1	0	3	0
45	831	0	10000	3	1	0	3	0
46	832	0	10000	3	1	0	3	0
47	833	0	10000	3	1	0	3	0
45	834	0	10000	3	1	0	3	0
46	835	0	10000	3	1	0	3	0
49	836	0	10000	3	1	0	3	0
47	837	0	10000	3	1	0	3	0
44	838	0	10000	3	1	0	3	0
44	839	0	10000	3	1	0	3	0
47	840	0	10000	3	1	0	3	0
48	841	0	10000	3	1	0	3	0
46	842	0	10000	3	1	0	3	0
47	843	0	10000	3	1	0	3	0
46	844	0	10000	3	1	0	3	0
45	845	0	10000	3	1	0	3	0
45	846	0	10000	3	1	0	3	0
45	847	0	10000	3	1	0	3	0
45	848	0	10000	3	1	0	3	0
46	849	0	10000	3	1	0	3	0
47	850	0	10000	3	1	0	3	0
51	851	0	10000	3	1	0	3	0
55	852	0	10000	3	1	0	3	0
60	853	0	10000	3	1	0	3	0
63	854	0	10000	3	1	0	3	0
61	855	0	10000	3	1	0	3	0
63	856	0	10000	3	1	0	3	0
69	857	0	10000	3	1	0	3	0
74	858	0	10000	3	1	0	3	0
72	859	0	10000	3	1	0	3	0
70	860	0	10000	3	1	0	3	0
69	861	0	10000	3	1	0	3	0
68	862	0	10000	3	1	0	3	0
71	863	0	10000	3	1	0	3	0
75	864	0	10000	3	1	0	3	0
74	865	0	10000	3	1	0	3	0
73	866	0	10000	3	1	0	3	0
73	867	0	10000	3	1	0	3	0
73	868	0	10000	3	1	0	3	0
72	869	0	10000	3	1	0	3	0
70	870	0	10000	3	1	0	3	0
67	871	0	10000	3	1	0	3	0
65	872	0	10000	3	1	0	3	0
62	873	0	10000	3	1	0	3	0
60	874	0	10000	3	1	0	3	0
60	875	0	10000	3	1	0	3	0
60	876	0	10000	3	1	0	3	0
60	877	0	10000	3	1	0	3	0
58	878	0	10000	3	1	0	3	0
57	879	0	10000	3	1	0	3	0
58	880	0	10000	3	1	0	3	0
56	881	0	10000	3	1	0	3	0
56	882	0	10000	3	1	0	3	0
56	883	0	10000	3	1	0	3	0
55	884	0	10000	3	1	0	3	0
54	885	0	10000	3	1	0	3	0
54	886	0	10000	3	1	0	3	0
53	887	0	10000	3	1	0	3	0
51	888	0	10000	3	1	0	3	0
50	889	0	10000	3	1	0	3	0
52	890	0	10000	3	1	0	3	0
56	891	0	10000	3	1	0	3	0
54	892	0	10000	3	1	0	3	0
52	893	0	10000	3	1	0	3	0
52	894	0	10000	3	1	0	3	0
51	895	0	10000	3	1	0	3	0
51	896	0	10000	3	1	0	3	0
51	897	0	10000	3	1	0	3	0
50	898	0	10000	3	1	0	3	0
50	899	0	10000	3	1	0	3	0
50	900	0	10000	3	1	0	3	0
49	901	0	10000	3	1	0	3	0
49	902	0	10000	3	1	0	3	0
48	903	0	10000	3	1	0	3	0
50	904	0	10000	3	1	0	3	0
52	905	0	10000	3	1	0	3	0
51	906	0	10000	3	1	0	3	0
51	907	0	10000	3	1	0	3	0
52	908	0	10000	3	1	0	3	0
54	909	0	10000	3	1	0	3	0
52	910	0	10000	3	1	0	3	0
50	911	0	10000	3	1	0	3	0
51	912	0	10000	3	1	0	3	0
53	913	0	10000	3	1	0	3	0
55	914	0	10000	3	1	0	3	0
60	915	0	10000	3	1	0	3	0
68	916	0	10000	3	1	0	3	0
70	917	0	10000	3	1	0	3	0
70	918	0	10000	3	1	0	3	0
69	919	0	10000	3	1	0	3	0
70	920	0	10000	3	1	0	3	0
75	921	0	10000	3	1	0	3	0
79	922	0	10000	3	1	0	3	0
86	923	0	10000	3	1	0	3	0
85	924	0	10000	3	1	0	3	0
84	925	0	10000	3	1	0	3	0
82	926	0	10000	3	1	0	3	0
78	927	0	10000	3	1	0	3	0
75	928	0	10000	3	1	0	3	0
74	929	0	10000	3	1	0	3	0
72	930	0	10000	3	1	0	3	0
72	931	0	10000	3	1	0	3	0
72	932	0	10000	3	1	0	3	0
70	933	0	10000	3	1	0	3	0
67	934	0	10000	3	1	0	3	0
64	935	0	10000	3	1	0	3	0
63	936	0	10000	3	1	0	3	0
62	937	0	10000	3	1	0	3	0
60	938	0	10000	3	1	0	3	0
60	939	0	10000	3	1	0	3	0
59	940	0	10000	3	1	0	3	0
64	941	0	10000	3	1	0	3	0
70	942	0	10000	3	1	0	3	0
71	943	0	10000	3	1	0	3	0
73	944	0	10000	3	1	0	3	0
79	945	0	10000	3	1	0	3	0
75	946	0	10000	3	1	0	3	0
74	947	0	10000	3	1	0	3	0
80	948	0	10000	3	1	0	3	0
84	949	0	10000	3	1	0	3	0
86	950	0	10000	3	1	0	3	0
89	951	0	10000	3	1	0	3	0
89	952	0	10000	3	1	0	3	0
85	953	0	10000	3	1	0	3	0
82	954	0	10000	3	1	0	3	0
79	955	0	10000	3	1	0	3	0
77	956	0	10000	3	1	0	3	0
75	957	0	10000	3	1	0	3	0
72	958	0	10000	3	1	0	3	0
71	959	0	10000	3	1	0	3	0
70	960	0	10000	3	1	0	3	0
73	961	0	10000	3	1	0	3	0
75	962	0	10000	3	1	0	3	0
78	963	0	10000	3	1	0	3	0
78	964	0	10000	3	1	0	3	0
75	965	0	10000	3	1	0	3	0
72	966	0	10000	3	1	0	3	0
69	967	0	10000	3	1	0	3	0
68	968	0	10000	3	1	0	3	0
68	969	0	10000	3	1	0	3	0
68	970	0	10000	3	1	0	3	0
68	971	0	10000	3	1	0	3	0
68	972	0	10000	3	1	0	3	0
68	973	0	10000	3	1	0	3	0
71	974	0	10000	3	1	0	3	0
72	975	0	10000	3	1	0	3	0
76	976	0	10000	3	1	0	3	0
77	977	0	10000	3	1	0	3	0
77	978	0	10000	3	1	0	3	0
76	979	0	10000	3	1	0	3	0
74	980	0	10000	3	1	0	3	0
72	981	0	10000	3	1	0	3	0
70	982	0	10000	3	1	0	3	0
70	983	0	10000	3	1	0	3	0
70	984	0	10000	3	1	0	3	0
75	985	0	10000	3	1	0	3	0
76	986	0	10000	3	1	0	3	0
75	987	0	10000	3	1	0	3	0
76	988	0	10000	3	1	0	3	0
75	989	0	10000	3	1	0	3	0
74	990	0	10000	3	1	0	3	0
71	991	0	10000	3	1	0	3	0
69	992	0	10000	3	1	0	3	0
66	993	0	10000	3	1	0	3	0
67	994	0	10000	3	1	0	3	0
66	995	0	10000	3	1	0	3	0
68	996	0	10000	3	1	0	3	0
69	997	0	10000	3	1	0	3	0
72	998	0	10000	3	1	0	3	0
69	999	0	10000	3	1	0	3	0
69	1000	0	10000	3	1	0	3	0
33	1	10	10000	4	1	0	4	0
32	2	10	10000	4	1	0	4	0
32	3	10	10000	4	1	0	4	0
32	4	10	10000	4	1	0	4	0
33	5	10	10000	4	1	0	4	0
32	6	10	10000	4	1	0	4	0
32	7	10	10000	4	1	0	4	0
31	8	10	10000	4	1	0	4	0
30	9	10	10000	4	1	0	4	0
32	10	10	10000	4	1	0	4	0
33	11	10	10000	4	1	0	4	0
34	12	10	10000	4	1	0	4	0
39	13	10	10000	4	1	0	4	0
42	14	10	10000	4	1	0	4	0
47	15	10	10000	4	1	0	4	0
51	16	10	10000	4	1	0	4	0
54	17	10	10000	4	1	0	4	0
58	18	10	10000	4	1	0	4	0
57	19	10	10000	4	1	0	4	0
61	20	10	10000	4	1	0	4	0
61	21	10	10000	4	1	0	4	0
60	22	10	10000	4	1	0	4	0
67	23	10	10000	4	1	0	4	0
77	24	10	10000	4	1	0	4	0
95	25	10	10000	4	1	0	4	0
127	26	10	10000	4	1	0	4	0
144	27	10	10000	4	1	0	4	0
152	28	10	10000	4	1	0	4	0
166	29	10	10000	4	1	0	4	0
186	30	10	10000	4	1	0	4	0
186	31	10	10000	4	1	0	4	0
210	32	10	10000	4	1	0	4	0
234	33	10	10000	4	1	0	4	0
256	34	10	10000	4	1	0	4	0
270	35	10	10000	4	1	0	4	0
270	36	10	10000	4	1	0	4	0
259	37	10	10000	4	1	0	4	0
251	38	10	10000	4	1	0	4	0
240	39	10	10000	4	1	0	4	0
236	40	10	10000	4	1	0	4	0
229	41	10	10000	4	1	0	4	0
229	42	10	10000	4	1	0	4	0
255	43	10	10000	4	1	0	4	0
280	44	10	10000	4	1	0	4	0
299	45	10	10000	4	1	0	4	0
312	46	10	10000	4	1	0	4	0
315	47	10	10000	4	1	0	4	0
322	48	10	10000	4	1	0	4	0
321	49	10	10000	4	1	0	4	0
313	50	10	10000	4	1	0	4	0
312	51	10	10000	4	1	0	4	0
345	52	10	10000	4	1	0	4	0
357	53	10	10000	4	1	0	4	0
344	54	10	10000	4	1	0	4	0
331	55	10	10000	4	1	0	4	0
316	56	10	10000	4	1	0	4	0
314	57	10	10000	4	1	0	4	0
322	58	10	10000	4	1	0	4	0
322	59	10	10000	4	1	0	4	0
309	60	10	10000	4	1	0	4	0
297	61	10	10000	4	1	0	4	0
284	62	10	10000	4	1	0	4	0
281	63	10	10000	4	1	0	4	0
272	64	10	10000	4	1	0	4	0
263	65	10	10000	4	1	0	4	0
258	66	10	10000	4	1	0	4	0
247	67	10	10000	4	1	0	4	0
244	68	10	10000	4	1	0	4	0
254	69	10	10000	4	1	0	4	0
246	70	10	10000	4	1	0	4	0
236	71	10	10000	4	1	0	4	0
231	72	10	10000	4	1	0	4	0
225	73	10	10000	4	1	0	4	0
222	74	10	10000	4	1	0	4	0
214	75	10	10000	4	1	0	4	0
212	76	10	10000	4	1	0	4	0
205	77	10	10000	4	1	0	4	0
205	78	10	10000	4	1	0	4	0
206	79	10	10000	4	1	0	4	0
201	80	10	10000	4	1	0	4	0
193	81	10	10000	4	1	0	4	0
186	82	10	10000	4	1	0	4	0
178	83	10	10000	4	1	0	4	0
173	84	10	10000	4	1	0	4	0
171	85	10	10000	4	1	0	4	0
163	86	10	10000	4	1	0	4	0
157	87	10	10000	4	1	0	4	0
156	88	10	10000	4	1	0	4	0
152	89	10	10000	4	1	0	4	0
148	90	10	10000	4	1	0	4	0
149	91	10	10000	4	1	0	4	0
146	92	10	10000	4	1	0	4	0
141	93	10	10000	4	1	0	4	0
135	94	10	10000	4	1	0	4	0
131	95	10	10000	4	1	0	4	0
126	96	10	10000	4	1	0	4	0
126	97	10	10000	4	1	0	4	0
122	98	10	10000	4	1	0	4	0
122	99	10	10000	4	1	0	4	0
117	100	10	10000	4	1	0	4	0
115	101	10	10000	4	1	0	4	0
113	102	10	10000	4	1	0	4	0
110	103	10	10000	4	1	0	4	0
110	104	10	10000	4	1	0	4	0
114	105	10	10000	4	1	0	4	0
112	106	10	10000	4	1	0	4	0
112	107	10	10000	4	1	0	4	0
110	108	10	10000	4	1	0	4	0
108	109	10	10000	4	1	0	4	0
107	110	10	10000	4	1	0	4	0
104	111	10	10000	4	1	0	4	0
100	112	10	10000	4	1	0	4	0
98	113	10	10000	4	1	0	4	0
93	114	10	10000	4	1	0	4	0
89	115	10	10000	4	1	0	4	0
90	116	10	10000	4	1	0	4	0
90	117	10	10000	4	1	0	4	0
93	118	10	10000	4	1	0	4	0
97	119	10	10000	4	1	0	4	0
97	120	10	10000	4	1	0	4	0
98	121	10	10000	4	1	0	4	0
100	122	10	10000	4	1	0	4	0
100	123	10	10000	4	1	0	4	0
100	124	10	10000	4	1	0	4	0
105	125	10	10000	4	1	0	4	0
107	126	10	10000	4	1	0	4	0
111	127	10	10000	4	1	0	4	0
114	128	10	10000	4	1	0	4	0
111	129	10	10000	4	1	0	4	0
110	130	10	10000	4	1	0	4	0
109	131	10	10000	4	1	0	4	0
106	132	10	10000	4	1	0	4	0
105	133	10	10000	4	1	0	4	0
105	134	10	10000	4	1	0	4	0
103	135	10	10000	4	1	0	4	0
102	136	10	10000	4	1	0	4	0
100	137	10	10000	4	1	0	4	0
98	138	10	10000	4	1	0	4	0
94	139	10	10000	4	1	0	4	0
90	140	10	10000	4	1	0	4	0
88	141	10	10000	4	1	0	4	0
85	142	10	10000	4	1	0	4	0
82	143	10	10000	4	1	0	4	0
80	144	10	10000	4	1	0	4	0
80	145	10	10000	4	1	0	4	0
78	146	10	10000	4	1	0	4	0
76	147	10	10000	4	1	0	4	0
73	148	10	10000	4	1	0	4	0
73	149	10	10000	4	1	0	4	0
74	150	10	10000	4	1	0	4	0
74	151	10	10000	4	1	0	4	0
77	152	10	10000	4	1	0	4	0
78	153	10	10000	4	1	0	4	0
75	154	10	10000	4	1	0	4	0
74	155	10	10000	4	1	0	4	0
72	156	10	10000	4	1	0	4	0
71	157	10	10000	4	1	0	4	0
73	158	10	10000	4	1	0	4	0
70	159	10	10000	4	1	0	4	0
68	160	10	10000	4	1	0	4	0
68	161	10	10000	4	1	0	4	0
68	162	10	10000	4	1	0	4	0
70	163	10	10000	4	1	0	4	0
70	164	10	10000	4	1	0	4	0
70	165	10	10000	4	1	0	4	0
68	166	10	10000	4	1	0	4	0
66	167	10	10000	4	1	0	4	0
63	168	10	10000	4	1	0	4	0
64	169	10	10000	4	1	0	4	0
67	170	10	10000	4	1	0	4	0
68	171	10	10000	4	1	0	4	0
71	172	10	10000	4	1	0	4	0
73	173	10	10000	4	1	0	4	0
72	174	10	10000	4	1	0	4	0
71	175	10	10000	4	1	0	4	0
71	176	10	10000	4	1	0	4	0
68	177	10	10000	4	1	0	4	0
67	178	10	10000	4	1	0	4	0
66	179	10	10000	4	1	0	4	0
67	180	10	10000	4	1	0	4	0
65	181	10	10000	4	1	0	4	0
62	182	10	10000	4	1	0	4	0
60	183	10	10000	4	1	0	4	0
62	184	10	10000	4	1	0	4	0
63	185	10	10000	4	1	0	4	0
62	186	10	10000	4	1	0	4	0
63	187	10	10000	4	1	0	4	0
61	188	10	10000	4	1	0	4	0
59	189	10	10000	4	1	0	4	0
59	190	10	10000	4	1	0	4	0
56	191	10	10000	4	1	0	4	0
55	192	10	10000	4	1	0	4	0
55	193	10	10000	4	1	0	4	0
52	194	10	10000	4	1	0	4	0
49	195	10	10000	4	1	0	4	0
48	196	10	10000	4	1	0	4	0
46	197	10	10000	4	1	0	4	0
48	198	10	10000	4	1	0	4	0
51	199	10	10000	4	1	0	4	0
50	200	10	10000	4	1	0	4	0
50	201	10	10000	4	1	0	4	0
49	202	10	10000	4	1	0	4	0
47	203	10	10000	4	1	0	4	0
46	204	10	10000	4	1	0	4	0
50	205	10	10000	4	1	0	4	0
52	206	10	10000	4	1	0	4	0
50	207	10	10000	4	1	0	4	0
49	208	10	10000	4	1	0	4	0
47	209	10	10000	4	1	0	4	0
47	210	10	10000	4	1	0	4	0
45	211	10	10000	4	1	0	4	0
45	212	10	10000	4	1	0	4	0
46	213	10	10000	4	1	0	4	0
47	214	10	10000	4	1	0	4	0
46	215	10	10000	4	1	0	4	0
49	216	10	10000	4	1	0	4	0
47	217	10	10000	4	1	0	4	0
46	218	10	10000	4	1	0	4	0
46	219	10	10000	4	1	0	4	0
46	220	10	10000	4	1	0	4	0
48	221	10	10000	4	1	0	4	0
47	222	10	10000	4	1	0	4	0
47	223	10	10000	4	1	0	4	0
46	224	10	10000	4	1	0	4	0
47	225	10	10000	4	1	0	4	0
46	226	10	10000	4	1	0	4	0
44	227	10	10000	4	1	0	4	0
44	228	10	10000	4	1	0	4	0
42	229	10	10000	4	1	0	4	0
41	230	10	10000	4	1	0	4	0
40	231	10	10000	4	1	0	4	0
39	232	10	10000	4	1	0	4	0
39	233	10	10000	4	1	0	4	0
39	234	10	10000	4	1	0	4	0
36	235	10	10000	4	1	0	4	0
38	236	10	10000	4	1	0	4	0
37	237	10	10000	4	1	0	4	0
40	238	10	10000	4	1	0	4	0
45	239	10	10000	4	1	0	4	0
49	240	10	10000	4	1	0	4	0
51	241	10	10000	4	1	0	4	0
49	242	10	10000	4	1	0	4	0
46	243	10	10000	4	1	0	4	0
47	244	10	10000	4	1	0	4	0
54	245	10	10000	4	1	0	4	0
56	246	10	10000	4	1	0	4	0
56	247	10	10000	4	1	0	4	0
57	248	10	10000	4	1	0	4	0
56	249	10	10000	4	1	0	4	0
54	250	10	10000	4	1	0	4	0
54	251	10	10000	4	1	0	4	0
52	252	10	10000	4	1	0	4	0
51	253	10	10000	4	1	0	4	0
49	254	10	10000	4	1	0	4	0
48	255	10	10000	4	1	0	4	0
47	256	10	10000	4	1	0	4	0
46	257	10	10000	4	1	0	4	0
46	258	10	10000	4	1	0	4	0
46	259	10	10000	4	1	0	4	0
46	260	10	10000	4	1	0	4	0
45	261	10	10000	4	1	0	4	0
44	262	10	10000	4	1	0	4	0
44	263	10	10000	4	1	0	4	0
44	264	10	10000	4	1	0	4	0
45	265	10	10000	4	1	0	4	0
45	266	10	10000	4	1	0	4	0
46	267	10	10000	4	1	0	4	0
46	268	10	10000	4	1	0	4	0
49	269	10	10000	4	1	0	4	0
56	270	10	10000	4	1	0	4	0
58	271	10	10000	4	1	0	4	0
60	272	10	10000	4	1	0	4	0
59	273	10	10000	4	1	0	4	0
64	274	10	10000	4	1	0	4	0
65	275	10	10000	4	1	0	4	0
69	276	10	10000	4	1	0	4	0
73	277	10	10000	4	1	0	4	0
75	278	10	10000	4	1	0	4	0
79	279	10	10000	4	1	0	4	0
76	280	10	10000	4	1	0	4	0
74	281	10	10000	4	1	0	4	0
72	282	10	10000	4	1	0	4	0
69	283	10	10000	4	1	0	4	0
67	284	10	10000	4	1	0	4	0
67	285	10	10000	4	1	0	4	0
66	286	10	10000	4	1	0	4	0
68	287	10	10000	4	1	0	4	0
67	288	10	10000	4	1	0	4	0
65	289	10	10000	4	1	0	4	0
65	290	10	10000	4	1	0	4	0
64	291	10	10000	4	1	0	4	0
64	292	10	10000	4	1	0	4	0
63	293	10	10000	4	1	0	4	0
64	294	10	10000	4	1	0	4	0
60	295	10	10000	4	1	0	4	0
58	296	10	10000	4	1	0	4	0
55	297	10	10000	4	1	0	4	0
56	298	10	10000	4	1	0	4	0
58	299	10	10000	4	1	0	4	0
55	300	10	10000	4	1	0	4	0
56	301	10	10000	4	1	0	4	0
58	302	10	10000	4	1	0	4	0
55	303	10	10000	4	1	0	4	0
53	304	10	10000	4	1	0	4	0
53	305	10	10000	4	1	0	4	0
51	306	10	10000	4	1	0	4	0
49	307	10	10000	4	1	0	4	0
47	308	10	10000	4	1	0	4	0
46	309	10	10000	4	1	0	4	0
48	310	10	10000	4	1	0	4	0
48	311	10	10000	4	1	0	4	0
47	312	10	10000	4	1	0	4	0
51	313	10	10000	4	1	0	4	0
54	314	10	10000	4	1	0	4	0
50	315	10	10000	4	1	0	4	0
50	316	10	10000	4	1	0	4	0
56	317	10	10000	4	1	0	4	0
60	318	10	10000	4	1	0	4	0
62	319	10	10000	4	1	0	4	0
63	320	10	10000	4	1	0	4	0
62	321	10	10000	4	1	0	4	0
61	322	10	10000	4	1	0	4	0
59	323	10	10000	4	1	0	4	0
57	324	10	10000	4	1	0	4	0
57	325	10	10000	4	1	0	4	0
56	326	10	10000	4	1	0	4	0
53	327	10	10000	4	1	0	4	0
51	328	10	10000	4	1	0	4	0
51	329	10	10000	4	1	0	4	0
50	330	10	10000	4	1	0	4	0
48	331	10	10000	4	1	0	4	0
48	332	10	10000	4	1	0	4	0
46	333	10	10000	4	1	0	4	0
45	334	10	10000	4	1	0	4	0
43	335	10	10000	4	1	0	4	0
43	336	10	10000	4	1	0	4	0
42	337	10	10000	4	1	0	4	0
42	338	10	10000	4	1	0	4	0
43	339	10	10000	4	1	0	4	0
42	340	10	10000	4	1	0	4	0
42	341	10	10000	4	1	0	4	0
44	342	10	10000	4	1	0	4	0
46	343	10	10000	4	1	0	4	0
47	344	10	10000	4	1	0	4	0
51	345	10	10000	4	1	0	4	0
51	346	10	10000	4	1	0	4	0
49	347	10	10000	4	1	0	4	0
49	348	10	10000	4	1	0	4	0
48	349	10	10000	4	1	0	4	0
46	350	10	10000	4	1	0	4	0
44	351	10	10000	4	1	0	4	0
45	352	10	10000	4	1	0	4	0
44	353	10	10000	4	1	0	4	0
44	354	10	10000	4	1	0	4	0
43	355	10	10000	4	1	0	4	0
42	356	10	10000	4	1	0	4	0
42	357	10	10000	4	1	0	4	0
41	358	10	10000	4	1	0	4	0
41	359	10	10000	4	1	0	4	0
40	360	10	10000	4	1	0	4	0
40	361	10	10000	4	1	0	4	0
39	362	10	10000	4	1	0	4	0
36	363	10	10000	4	1	0	4	0
35	364	10	10000	4	1	0	4	0
36	365	10	10000	4	1	0	4	0
35	366	10	10000	4	1	0	4	0
34	367	10	10000	4	1	0	4	0
32	368	10	10000	4	1	0	4	0
32	369	10	10000	4	1	0	4	0
32	370	10	10000	4	1	0	4	0
31	371	10	10000	4	1	0	4	0
32	372	10	10000	4	1	0	4	0
32	373	10	10000	4	1	0	4	0
32	374	10	10000	4	1	0	4	0
29	375	10	10000	4	1	0	4	0
28	376	10	10000	4	1	0	4	0
28	377	10	10000	4	1	0	4	0
28	378	10	10000	4	1	0	4	0
28	379	10	10000	4	1	0	4	0
27	380	10	10000	4	1	0	4	0
28	381	10	10000	4	1	0	4	0
28	382	10	10000	4	1	0	4	0
28	383	10	10000	4	1	0	4	0
27	384	10	10000	4	1	0	4	0
33	385	10	10000	4	1	0	4	0
36	386	10	10000	4	1	0	4	0
36	387	10	10000	4	1	0	4	0
36	388	10	10000	4	1	0	4	0
36	389	10	10000	4	1	0	4	0
35	390	10	10000	4	1	0	4	0
34	391	10	10000	4	1	0	4	0
35	392	10	10000	4	1	0	4	0
36	393	10	10000	4	1	0	4	0
37	394	10	10000	4	1	0	4	0
36	395	10	10000	4	1	0	4	0
36	396	10	10000	4	1	0	4	0
36	397	10	10000	4	1	0	4	0
35	398	10	10000	4	1	0	4	0
35	399	10	10000	4	1	0	4	0
35	400	10	10000	4	1	0	4	0
35	401	10	10000	4	1	0	4	0
35	402	10	10000	4	1	0	4	0
34	403	10	10000	4	1	0	4	0
33	404	10	10000	4	1	0	4	0
35	405	10	10000	4	1	0	4	0
35	406	10	10000	4	1	0	4	0
34	407	10	10000	4	1	0	4	0
33	408	10	10000	4	1	0	4	0
32	409	10	10000	4	1	0	4	0
34	410	10	10000	4	1	0	4	0
33	411	10	10000	4	1	0	4	0
33	412	10	10000	4	1	0	4	0
34	413	10	10000	4	1	0	4	0
34	414	10	10000	4	1	0	4	0
33	415	10	10000	4	1	0	4	0
31	416	10	10000	4	1	0	4	0
32	417	10	10000	4	1	0	4	0
34	418	10	10000	4	1	0	4	0
36	419	10	10000	4	1	0	4	0
38	420	10	10000	4	1	0	4	0
39	421	10	10000	4	1	0	4	0
39	422	10	10000	4	1	0	4	0
38	423	10	10000	4	1	0	4	0
37	424	10	10000	4	1	0	4	0
39	425	10	10000	4	1	0	4	0
40	426	10	10000	4	1	0	4	0
39	427	10	10000	4	1	0	4	0
40	428	10	10000	4	1	0	4	0
41	429	10	10000	4	1	0	4	0
41	430	10	10000	4	1	0	4	0
43	431	10	10000	4	1	0	4	0
45	432	10	10000	4	1	0	4	0
49	433	10	10000	4	1	0	4	0
51	434	10	10000	4	1	0	4	0
49	435	10	10000	4	1	0	4	0
51	436	10	10000	4	1	0	4	0
51	437	10	10000	4	1	0	4	0
50	438	10	10000	4	1	0	4	0
49	439	10	10000	4	1	0	4	0
48	440	10	10000	4	1	0	4	0
47	441	10	10000	4	1	0	4	0
46	442	10	10000	4	1	0	4	0
44	443	10	10000	4	1	0	4	0
44	444	10	10000	4	1	0	4	0
45	445	10	10000	4	1	0	4	0
44	446	10	10000	4	1	0	4	0
44	447	10	10000	4	1	0	4	0
44	448	10	10000	4	1	0	4	0
46	449	10	10000	4	1	0	4	0
45	450	10	10000	4	1	0	4	0
44	451	10	10000	4	1	0	4	0
43	452	10	10000	4	1	0	4	0
44	453	10	10000	4	1	0	4	0
45	454	10	10000	4	1	0	4	0
41	455	10	10000	4	1	0	4	0
41	456	10	10000	4	1	0	4	0
40	457	10	10000	4	1	0	4	0
39	458	10	10000	4	1	0	4	0
39	459	10	10000	4	1	0	4	0
39	460	10	10000	4	1	0	4	0
40	461	10	10000	4	1	0	4	0
38	462	10	10000	4	1	0	4	0
38	463	10	10000	4	1	0	4	0
38	464	10	10000	4	1	0	4	0
40	465	10	10000	4	1	0	4	0
41	466	10	10000	4	1	0	4	0
41	467	10	10000	4	1	0	4	0
40	468	10	10000	4	1	0	4	0
40	469	10	10000	4	1	0	4	0
40	470	10	10000	4	1	0	4	0
41	471	10	10000	4	1	0	4	0
41	472	10	10000	4	1	0	4	0
40	473	10	10000	4	1	0	4	0
41	474	10	10000	4	1	0	4	0
41	475	10	10000	4	1	0	4	0
41	476	10	10000	4	1	0	4	0
42	477	10	10000	4	1	0	4	0
41	478	10	10000	4	1	0	4	0
43	479	10	10000	4	1	0	4	0
42	480	10	10000	4	1	0	4	0
41	481	10	10000	4	1	0	4	0
44	482	10	10000	4	1	0	4	0
44	483	10	10000	4	1	0	4	0
42	484	10	10000	4	1	0	4	0
44	485	10	10000	4	1	0	4	0
42	486	10	10000	4	1	0	4	0
40	487	10	10000	4	1	0	4	0
40	488	10	10000	4	1	0	4	0
39	489	10	10000	4	1	0	4	0
39	490	10	10000	4	1	0	4	0
40	491	10	10000	4	1	0	4	0
38	492	10	10000	4	1	0	4	0
38	493	10	10000	4	1	0	4	0
38	494	10	10000	4	1	0	4	0
35	495	10	10000	4	1	0	4	0
34	496	10	10000	4	1	0	4	0
35	497	10	10000	4	1	0	4	0
36	498	10	10000	4	1	0	4	0
35	499	10	10000	4	1	0	4	0
35	500	10	10000	4	1	0	4	0
36	501	10	10000	4	1	0	4	1
36	502	10	10000	4	1	0	4	1
38	503	10	10000	4	1	0	4	1
39	504	10	10000	4	1	0	4	1
44	505	10	10000	4	1	0	4	1
43	506	10	10000	4	1	0	4	1
42	507	10	10000	4	1	0	4	1
41	508	10	10000	4	1	0	4	1
44	509	10	10000	4	1	0	4	1
45	510	10	10000	4	1	0	4	1
43	511	10	10000	4	1	0	4	1
44	512	10	10000	4	1	0	4	1
49	513	10	10000	4	1	0	4	1
56	514	10	10000	4	1	0	4	1
58	515	10	10000	4	1	0	4	1
59	516	10	10000	4	1	0	4	1
58	517	10	10000	4	1	0	4	1
56	518	10	10000	4	1	0	4	1
55	519	10	10000	4	1	0	4	1
54	520	10	10000	4	1	0	4	1
52	521	10	10000	4	1	0	4	1
51	522	10	10000	4	1	0	4	1
49	523	10	10000	4	1	0	4	1
49	524	10	10000	4	1	0	4	1
50	525	10	10000	4	1	0	4	1
50	526	10	10000	4	1	0	4	1
48	527	10	10000	4	1	0	4	1
47	528	10	10000	4	1	0	4	1
46	529	10	10000	4	1	0	4	1
45	530	10	10000	4	1	0	4	1
46	531	10	10000	4	1	0	4	1
45	532	10	10000	4	1	0	4	1
45	533	10	10000	4	1	0	4	1
45	534	10	10000	4	1	0	4	1
44	535	10	10000	4	1	0	4	1
43	536	10	10000	4	1	0	4	1
42	537	10	10000	4	1	0	4	1
43	538	10	10000	4	1	0	4	1
43	539	10	10000	4	1	0	4	1
42	540	10	10000	4	1	0	4	1
43	541	10	10000	4	1	0	4	1
42	542	10	10000	4	1	0	4	1
41	543	10	10000	4	1	0	4	1
41	544	10	10000	4	1	0	4	1
43	545	10	10000	4	1	0	4	1
44	546	10	10000	4	1	0	4	1
44	547	10	10000	4	1	0	4	1
43	548	10	10000	4	1	0	4	1
43	549	10	10000	4	1	0	4	1
44	550	10	10000	4	1	0	4	1
43	551	10	10000	4	1	0	4	0
43	552	10	10000	4	1	0	4	0
44	553	10	10000	4	1	0	4	0
43	554	10	10000	4	1	0	4	0
41	555	10	10000	4	1	0	4	0
41	556	10	10000	4	1	0	4	0
40	557	10	10000	4	1	0	4	0
41	558	10	10000	4	1	0	4	0
40	559	10	10000	4	1	0	4	0
41	560	10	10000	4	1	0	4	0
39	561	10	10000	4	1	0	4	0
39	562	10	10000	4	1	0	4	0
40	563	10	10000	4	1	0	4	0
41	564	10	10000	4	1	0	4	0
43	565	10	10000	4	1	0	4	0
45	566	10	10000	4	1	0	4	0
44	567	10	10000	4	1	0	4	0
43	568	10	10000	4	1	0	4	0
42	569	10	10000	4	1	0	4	0
40	570	10	10000	4	1	0	4	0
42	571	10	10000	4	1	0	4	0
40	572	10	10000	4	1	0	4	0
38	573	10	10000	4	1	0	4	0
40	574	10	10000	4	1	0	4	0
37	575	10	10000	4	1	0	4	0
35	576	10	10000	4	1	0	4	0
37	577	10	10000	4	1	0	4	0
35	578	10	10000	4	1	0	4	0
34	579	10	10000	4	1	0	4	0
34	580	10	10000	4	1	0	4	0
33	581	10	10000	4	1	0	4	0
32	582	10	10000	4	1	0	4	0
32	583	10	10000	4	1	0	4	0
31	584	10	10000	4	1	0	4	0
33	585	10	10000	4	1	0	4	0
33	586	10	10000	4	1	0	4	0
32	587	10	10000	4	1	0	4	0
32	588	10	10000	4	1	0	4	0
31	589	10	10000	4	1	0	4	0
31	590	10	10000	4	1	0	4	0
30	591	10	10000	4	1	0	4	0
30	592	10	10000	4	1	0	4	0
31	593	10	10000	4	1	0	4	0
32	594	10	10000	4	1	0	4	0
30	595	10	10000	4	1	0	4	0
32	596	10	10000	4	1	0	4	0
34	597	10	10000	4	1	0	4	0
35	598	10	10000	4	1	0	4	0
34	599	10	10000	4	1	0	4	0
35	600	10	10000	4	1	0	4	0
34	601	10	10000	4	1	0	4	0
32	602	10	10000	4	1	0	4	0
34	603	10	10000	4	1	0	4	0
34	604	10	10000	4	1	0	4	0
37	605	10	10000	4	1	0	4	0
43	606	10	10000	4	1	0	4	0
44	607	10	10000	4	1	0	4	0
45	608	10	10000	4	1	0	4	0
49	609	10	10000	4	1	0	4	0
49	610	10	10000	4	1	0	4	0
49	611	10	10000	4	1	0	4	0
53	612	10	10000	4	1	0	4	0
55	613	10	10000	4	1	0	4	0
59	614	10	10000	4	1	0	4	0
61	615	10	10000	4	1	0	4	0
60	616	10	10000	4	1	0	4	0
63	617	10	10000	4	1	0	4	0
67	618	10	10000	4	1	0	4	0
68	619	10	10000	4	1	0	4	0
69	620	10	10000	4	1	0	4	0
70	621	10	10000	4	1	0	4	0
75	622	10	10000	4	1	0	4	0
77	623	10	10000	4	1	0	4	0
73	624	10	10000	4	1	0	4	0
72	625	10	10000	4	1	0	4	0
71	626	10	10000	4	1	0	4	0
69	627	10	10000	4	1	0	4	0
65	628	10	10000	4	1	0	4	0
64	629	10	10000	4	1	0	4	0
62	630	10	10000	4	1	0	4	0
60	631	10	10000	4	1	0	4	0
57	632	10	10000	4	1	0	4	0
56	633	10	10000	4	1	0	4	0
55	634	10	10000	4	1	0	4	0
51	635	10	10000	4	1	0	4	0
53	636	10	10000	4	1	0	4	0
56	637	10	10000	4	1	0	4	0
54	638	10	10000	4	1	0	4	0
53	639	10	10000	4	1	0	4	0
51	640	10	10000	4	1	0	4	0
50	641	10	10000	4	1	0	4	0
50	642	10	10000	4	1	0	4	0
50	643	10	10000	4	1	0	4	0
47	644	10	10000	4	1	0	4	0
52	645	10	10000	4	1	0	4	0
54	646	10	10000	4	1	0	4	0
53	647	10	10000	4	1	0	4	0
52	648	10	10000	4	1	0	4	0
51	649	10	10000	4	1	0	4	0
50	650	10	10000	4	1	0	4	0
52	651	10	10000	4	1	0	4	0
51	652	10	10000	4	1	0	4	0
50	653	10	10000	4	1	0	4	0
49	654	10	10000	4	1	0	4	0
46	655	10	10000	4	1	0	4	0
44	656	10	10000	4	1	0	4	0
43	657	10	10000	4	1	0	4	0
44	658	10	10000	4	1	0	4	0
43	659	10	10000	4	1	0	4	0
42	660	10	10000	4	1	0	4	0
42	661	10	10000	4	1	0	4	0
41	662	10	10000	4	1	0	4	0
40	663	10	10000	4	1	0	4	0
40	664	10	10000	4	1	0	4	0
40	665	10	10000	4	1	0	4	0
40	666	10	10000	4	1	0	4	0
38	667	10	10000	4	1	0	4	0
39	668	10	10000	4	1	0	4	0
38	669	10	10000	4	1	0	4	0
38	670	10	10000	4	1	0	4	0
36	671	10	10000	4	1	0	4	0
36	672	10	10000	4	1	0	4	0
36	673	10	10000	4	1	0	4	0
37	674	10	10000	4	1	0	4	0
34	675	10	10000	4	1	0	4	0
34	676	10	10000	4	1	0	4	0
36	677	10	10000	4	1	0	4	0
34	678	10	10000	4	1	0	4	0
36	679	10	10000	4	1	0	4	0
37	680	10	10000	4	1	0	4	0
38	681	10	10000	4	1	0	4	0
38	682	10	10000	4	1	0	4	0
38	683	10	10000	4	1	0	4	0
39	684	10	10000	4	1	0	4	0
40	685	10	10000	4	1	0	4	0
41	686	10	10000	4	1	0	4	0
39	687	10	10000	4	1	0	4	0
39	688	10	10000	4	1	0	4	0
39	689	10	10000	4	1	0	4	0
38	690	10	10000	4	1	0	4	0
37	691	10	10000	4	1	0	4	0
38	692	10	10000	4	1	0	4	0
40	693	10	10000	4	1	0	4	0
40	694	10	10000	4	1	0	4	0
38	695	10	10000	4	1	0	4	0
36	696	10	10000	4	1	0	4	0
36	697	10	10000	4	1	0	4	0
36	698	10	10000	4	1	0	4	0
36	699	10	10000	4	1	0	4	0
37	700	10	10000	4	1	0	4	0
36	701	10	10000	4	1	0	4	0
35	702	10	10000	4	1	0	4	0
36	703	10	10000	4	1	0	4	0
36	704	10	10000	4	1	0	4	0
37	705	10	10000	4	1	0	4	0
38	706	10	10000	4	1	0	4	0
40	707	10	10000	4	1	0	4	0
39	708	10	10000	4	1	0	4	0
40	709	10	10000	4	1	0	4	0
41	710	10	10000	4	1	0	4	0
44	711	10	10000	4	1	0	4	0
44	712	10	10000	4	1	0	4	0
47	713	10	10000	4	1	0	4	0
49	714	10	10000	4	1	0	4	0
50	715	10	10000	4	1	0	4	0
53	716	10	10000	4	1	0	4	0
55	717	10	10000	4	1	0	4	0
55	718	10	10000	4	1	0	4	0
55	727	10	10000	4	1	0	4	0
54	728	10	10000	4	1	0	4	0
53	729	10	10000	4	1	0	4	0
53	730	10	10000	4	1	0	4	0
54	731	10	10000	4	1	0	4	0
52	732	10	10000	4	1	0	4	0
54	733	10	10000	4	1	0	4	0
55	734	10	10000	4	1	0	4	0
55	735	10	10000	4	1	0	4	0
54	736	10	10000	4	1	0	4	0
51	735	10	10000	4	1	0	4	0
53	736	10	10000	4	1	0	4	0
54	737	10	10000	4	1	0	4	0
53	738	10	10000	4	1	0	4	0
52	739	10	10000	4	1	0	4	0
52	740	10	10000	4	1	0	4	0
52	741	10	10000	4	1	0	4	0
50	742	10	10000	4	1	0	4	0
52	742	10	10000	4	1	0	4	0
51	743	10	10000	4	1	0	4	0
50	744	10	10000	4	1	0	4	0
49	745	10	10000	4	1	0	4	0
47	746	10	10000	4	1	0	4	0
46	747	10	10000	4	1	0	4	0
44	750	10	10000	4	1	0	4	0
42	751	10	10000	4	1	0	4	0
44	752	10	10000	4	1	0	4	0
43	753	10	10000	4	1	0	4	0
42	754	10	10000	4	1	0	4	0
41	755	10	10000	4	1	0	4	0
42	756	10	10000	4	1	0	4	0
41	757	10	10000	4	1	0	4	0
41	758	10	10000	4	1	0	4	0
40	759	10	10000	4	1	0	4	0
39	756	10	10000	4	1	0	4	0
39	757	10	10000	4	1	0	4	0
40	758	10	10000	4	1	0	4	0
39	759	10	10000	4	1	0	4	0
38	760	10	10000	4	1	0	4	0
36	761	10	10000	4	1	0	4	0
39	762	10	10000	4	1	0	4	0
38	763	10	10000	4	1	0	4	0
37	764	10	10000	4	1	0	4	0
36	765	10	10000	4	1	0	4	0
36	767	10	10000	4	1	0	4	0
36	768	10	10000	4	1	0	4	0
37	769	10	10000	4	1	0	4	0
37	770	10	10000	4	1	0	4	0
35	771	10	10000	4	1	0	4	0
37	772	10	10000	4	1	0	4	0
36	771	10	10000	4	1	0	4	0
35	772	10	10000	4	1	0	4	0
35	773	10	10000	4	1	0	4	0
38	774	10	10000	4	1	0	4	0
43	778	10	10000	4	1	0	4	0
46	779	10	10000	4	1	0	4	0
47	780	10	10000	4	1	0	4	0
47	781	10	10000	4	1	0	4	0
48	782	10	10000	4	1	0	4	0
50	783	10	10000	4	1	0	4	0
50	782	10	10000	4	1	0	4	0
48	783	10	10000	4	1	0	4	0
47	784	10	10000	4	1	0	4	0
49	785	10	10000	4	1	0	4	0
48	786	10	10000	4	1	0	4	0
47	787	10	10000	4	1	0	4	0
47	789	10	10000	4	1	0	4	0
48	790	10	10000	4	1	0	4	0
49	791	10	10000	4	1	0	4	0
47	792	10	10000	4	1	0	4	0
46	793	10	10000	4	1	0	4	0
45	794	10	10000	4	1	0	4	0
45	793	10	10000	4	1	0	4	0
47	794	10	10000	4	1	0	4	0
51	795	10	10000	4	1	0	4	0
51	796	10	10000	4	1	0	4	0
49	799	10	10000	4	1	0	4	0
47	800	10	10000	4	1	0	4	0
47	801	10	10000	4	1	0	4	0
48	802	10	10000	4	1	0	4	0
47	803	10	10000	4	1	0	4	0
46	804	10	10000	4	1	0	4	0
44	805	10	10000	4	1	0	4	0
43	806	10	10000	4	1	0	4	0
43	807	10	10000	4	1	0	4	0
42	808	10	10000	4	1	0	4	0
43	809	10	10000	4	1	0	4	0
44	810	10	10000	4	1	0	4	0
45	810	10	10000	4	1	0	4	0
44	811	10	10000	4	1	0	4	0
42	812	10	10000	4	1	0	4	0
41	813	10	10000	4	1	0	4	0
41	816	10	10000	4	1	0	4	0
40	817	10	10000	4	1	0	4	0
39	818	10	10000	4	1	0	4	0
40	819	10	10000	4	1	0	4	0
38	820	10	10000	4	1	0	4	0
35	821	10	10000	4	1	0	4	0
36	821	10	10000	4	1	0	4	0
36	822	10	10000	4	1	0	4	0
35	823	10	10000	4	1	0	4	0
36	824	10	10000	4	1	0	4	0
37	825	10	10000	4	1	0	4	0
37	826	10	10000	4	1	0	4	0
36	828	10	10000	4	1	0	4	0
35	829	10	10000	4	1	0	4	0
36	830	10	10000	4	1	0	4	0
36	831	10	10000	4	1	0	4	0
35	832	10	10000	4	1	0	4	0
42	833	10	10000	4	1	0	4	0
50	829	10	10000	4	1	0	4	0
55	830	10	10000	4	1	0	4	0
59	831	10	10000	4	1	0	4	0
58	832	10	10000	4	1	0	4	0
56	833	10	10000	4	1	0	4	0
56	834	10	10000	4	1	0	4	0
53	835	10	10000	4	1	0	4	0
49	836	10	10000	4	1	0	4	0
51	837	10	10000	4	1	0	4	0
51	838	10	10000	4	1	0	4	0
53	839	10	10000	4	1	0	4	0
57	840	10	10000	4	1	0	4	0
56	841	10	10000	4	1	0	4	0
54	842	10	10000	4	1	0	4	0
52	843	10	10000	4	1	0	4	0
50	844	10	10000	4	1	0	4	0
50	845	10	10000	4	1	0	4	0
50	846	10	10000	4	1	0	4	0
49	847	10	10000	4	1	0	4	0
48	848	10	10000	4	1	0	4	0
47	849	10	10000	4	1	0	4	0
47	850	10	10000	4	1	0	4	0
46	851	10	10000	4	1	0	4	0
46	852	10	10000	4	1	0	4	0
44	853	10	10000	4	1	0	4	0
44	854	10	10000	4	1	0	4	0
42	855	10	10000	4	1	0	4	0
39	856	10	10000	4	1	0	4	0
42	857	10	10000	4	1	0	4	0
44	858	10	10000	4	1	0	4	0
44	859	10	10000	4	1	0	4	0
43	860	10	10000	4	1	0	4	0
43	861	10	10000	4	1	0	4	0
41	862	10	10000	4	1	0	4	0
44	863	10	10000	4	1	0	4	0
43	864	10	10000	4	1	0	4	0
44	865	10	10000	4	1	0	4	0
44	866	10	10000	4	1	0	4	0
42	867	10	10000	4	1	0	4	0
41	868	10	10000	4	1	0	4	0
40	869	10	10000	4	1	0	4	0
39	870	10	10000	4	1	0	4	0
38	871	10	10000	4	1	0	4	0
38	872	10	10000	4	1	0	4	0
38	873	10	10000	4	1	0	4	0
38	874	10	10000	4	1	0	4	0
37	875	10	10000	4	1	0	4	0
36	876	10	10000	4	1	0	4	0
35	877	10	10000	4	1	0	4	0
36	878	10	10000	4	1	0	4	0
39	879	10	10000	4	1	0	4	0
39	880	10	10000	4	1	0	4	0
39	881	10	10000	4	1	0	4	0
38	882	10	10000	4	1	0	4	0
39	883	10	10000	4	1	0	4	0
39	884	10	10000	4	1	0	4	0
41	885	10	10000	4	1	0	4	0
43	886	10	10000	4	1	0	4	0
41	887	10	10000	4	1	0	4	0
40	888	10	10000	4	1	0	4	0
40	889	10	10000	4	1	0	4	0
39	890	10	10000	4	1	0	4	0
38	891	10	10000	4	1	0	4	0
38	892	10	10000	4	1	0	4	0
38	893	10	10000	4	1	0	4	0
38	894	10	10000	4	1	0	4	0
38	895	10	10000	4	1	0	4	0
38	896	10	10000	4	1	0	4	0
39	897	10	10000	4	1	0	4	0
40	898	10	10000	4	1	0	4	0
44	899	10	10000	4	1	0	4	0
44	900	10	10000	4	1	0	4	0
43	901	10	10000	4	1	0	4	0
41	902	10	10000	4	1	0	4	0
43	903	10	10000	4	1	0	4	0
44	904	10	10000	4	1	0	4	0
45	905	10	10000	4	1	0	4	0
49	906	10	10000	4	1	0	4	0
47	907	10	10000	4	1	0	4	0
45	908	10	10000	4	1	0	4	0
44	909	10	10000	4	1	0	4	0
45	910	10	10000	4	1	0	4	0
45	911	10	10000	4	1	0	4	0
44	912	10	10000	4	1	0	4	0
44	913	10	10000	4	1	0	4	0
44	914	10	10000	4	1	0	4	0
43	915	10	10000	4	1	0	4	0
40	916	10	10000	4	1	0	4	0
39	917	10	10000	4	1	0	4	0
40	918	10	10000	4	1	0	4	0
41	919	10	10000	4	1	0	4	0
41	920	10	10000	4	1	0	4	0
42	921	10	10000	4	1	0	4	0
44	922	10	10000	4	1	0	4	0
44	923	10	10000	4	1	0	4	0
42	924	10	10000	4	1	0	4	0
41	925	10	10000	4	1	0	4	0
43	926	10	10000	4	1	0	4	0
41	927	10	10000	4	1	0	4	0
43	928	10	10000	4	1	0	4	0
42	929	10	10000	4	1	0	4	0
40	930	10	10000	4	1	0	4	0
40	931	10	10000	4	1	0	4	0
40	932	10	10000	4	1	0	4	0
42	933	10	10000	4	1	0	4	0
42	934	10	10000	4	1	0	4	0
43	935	10	10000	4	1	0	4	0
45	936	10	10000	4	1	0	4	0
49	937	10	10000	4	1	0	4	0
54	938	10	10000	4	1	0	4	0
53	939	10	10000	4	1	0	4	0
52	940	10	10000	4	1	0	4	0
52	941	10	10000	4	1	0	4	0
51	942	10	10000	4	1	0	4	0
50	943	10	10000	4	1	0	4	0
48	944	10	10000	4	1	0	4	0
49	945	10	10000	4	1	0	4	0
49	946	10	10000	4	1	0	4	0
47	947	10	10000	4	1	0	4	0
45	948	10	10000	4	1	0	4	0
46	949	10	10000	4	1	0	4	0
45	950	10	10000	4	1	0	4	0
44	951	10	10000	4	1	0	4	0
45	952	10	10000	4	1	0	4	0
44	953	10	10000	4	1	0	4	0
47	954	10	10000	4	1	0	4	0
45	955	10	10000	4	1	0	4	0
44	956	10	10000	4	1	0	4	0
44	957	10	10000	4	1	0	4	0
43	958	10	10000	4	1	0	4	0
43	959	10	10000	4	1	0	4	0
44	960	10	10000	4	1	0	4	0
43	961	10	10000	4	1	0	4	0
42	962	10	10000	4	1	0	4	0
41	963	10	10000	4	1	0	4	0
40	964	10	10000	4	1	0	4	0
40	965	10	10000	4	1	0	4	0
40	966	10	10000	4	1	0	4	0
39	967	10	10000	4	1	0	4	0
40	968	10	10000	4	1	0	4	0
41	969	10	10000	4	1	0	4	0
41	970	10	10000	4	1	0	4	0
43	971	10	10000	4	1	0	4	0
44	972	10	10000	4	1	0	4	0
43	973	10	10000	4	1	0	4	0
43	974	10	10000	4	1	0	4	0
43	975	10	10000	4	1	0	4	0
41	976	10	10000	4	1	0	4	0
40	977	10	10000	4	1	0	4	0
41	978	10	10000	4	1	0	4	0
40	979	10	10000	4	1	0	4	0
41	980	10	10000	4	1	0	4	0
41	981	10	10000	4	1	0	4	0
39	982	10	10000	4	1	0	4	0
38	983	10	10000	4	1	0	4	0
38	984	10	10000	4	1	0	4	0
37	985	10	10000	4	1	0	4	0
37	986	10	10000	4	1	0	4	0
36	987	10	10000	4	1	0	4	0
35	988	10	10000	4	1	0	4	0
35	989	10	10000	4	1	0	4	0
36	990	10	10000	4	1	0	4	0
34	991	10	10000	4	1	0	4	0
34	992	10	10000	4	1	0	4	0
34	993	10	10000	4	1	0	4	0
32	994	10	10000	4	1	0	4	0
33	995	10	10000	4	1	0	4	0
32	996	10	10000	4	1	0	4	0
33	997	10	10000	4	1	0	4	0
32	998	10	10000	4	1	0	4	0
32	999	10	10000	4	1	0	4	0
32	1000	10	10000	4	1	0	4	0
64	1	1	10000	5	1	0	5	0
69	2	1	10000	5	1	0	5	0
77	3	1	10000	5	1	0	5	0
76	4	1	10000	5	1	0	5	0
73	5	1	10000	5	1	0	5	0
72	6	1	10000	5	1	0	5	0
71	7	1	10000	5	1	0	5	0
70	8	1	10000	5	1	0	5	0
69	9	1	10000	5	1	0	5	0
71	10	1	10000	5	1	0	5	0
71	11	1	10000	5	1	0	5	0
68	12	1	10000	5	1	0	5	0
70	13	1	10000	5	1	0	5	0
70	14	1	10000	5	1	0	5	0
73	15	1	10000	5	1	0	5	0
74	16	1	10000	5	1	0	5	0
71	17	1	10000	5	1	0	5	0
68	18	1	10000	5	1	0	5	0
66	19	1	10000	5	1	0	5	0
63	20	1	10000	5	1	0	5	0
61	21	1	10000	5	1	0	5	0
61	22	1	10000	5	1	0	5	0
59	23	1	10000	5	1	0	5	0
64	24	1	10000	5	1	0	5	0
68	25	1	10000	5	1	0	5	0
76	26	1	10000	5	1	0	5	0
79	27	1	10000	5	1	0	5	0
78	28	1	10000	5	1	0	5	0
78	29	1	10000	5	1	0	5	0
81	30	1	10000	5	1	0	5	0
91	31	1	10000	5	1	0	5	0
93	32	1	10000	5	1	0	5	0
93	33	1	10000	5	1	0	5	0
93	34	1	10000	5	1	0	5	0
92	35	1	10000	5	1	0	5	0
88	36	1	10000	5	1	0	5	0
84	37	1	10000	5	1	0	5	0
80	38	1	10000	5	1	0	5	0
78	39	1	10000	5	1	0	5	0
80	40	1	10000	5	1	0	5	0
79	41	1	10000	5	1	0	5	0
78	42	1	10000	5	1	0	5	0
76	43	1	10000	5	1	0	5	0
74	44	1	10000	5	1	0	5	0
69	45	1	10000	5	1	0	5	0
70	46	1	10000	5	1	0	5	0
68	47	1	10000	5	1	0	5	0
70	48	1	10000	5	1	0	5	0
70	49	1	10000	5	1	0	5	0
71	50	1	10000	5	1	0	5	0
72	51	1	10000	5	1	0	5	0
70	52	1	10000	5	1	0	5	0
67	53	1	10000	5	1	0	5	0
64	54	1	10000	5	1	0	5	0
66	55	1	10000	5	1	0	5	0
66	56	1	10000	5	1	0	5	0
63	57	1	10000	5	1	0	5	0
61	58	1	10000	5	1	0	5	0
61	59	1	10000	5	1	0	5	0
63	60	1	10000	5	1	0	5	0
64	61	1	10000	5	1	0	5	0
63	62	1	10000	5	1	0	5	0
61	63	1	10000	5	1	0	5	0
61	64	1	10000	5	1	0	5	0
58	65	1	10000	5	1	0	5	0
55	66	1	10000	5	1	0	5	0
56	67	1	10000	5	1	0	5	0
55	68	1	10000	5	1	0	5	0
57	69	1	10000	5	1	0	5	0
57	70	1	10000	5	1	0	5	0
55	71	1	10000	5	1	0	5	0
53	72	1	10000	5	1	0	5	0
51	73	1	10000	5	1	0	5	0
49	74	1	10000	5	1	0	5	0
54	75	1	10000	5	1	0	5	0
56	76	1	10000	5	1	0	5	0
56	77	1	10000	5	1	0	5	0
54	78	1	10000	5	1	0	5	0
52	79	1	10000	5	1	0	5	0
52	80	1	10000	5	1	0	5	0
52	81	1	10000	5	1	0	5	0
53	82	1	10000	5	1	0	5	0
52	83	1	10000	5	1	0	5	0
51	84	1	10000	5	1	0	5	0
49	85	1	10000	5	1	0	5	0
48	86	1	10000	5	1	0	5	0
50	87	1	10000	5	1	0	5	0
52	88	1	10000	5	1	0	5	0
52	89	1	10000	5	1	0	5	0
55	90	1	10000	5	1	0	5	0
56	91	1	10000	5	1	0	5	0
53	92	1	10000	5	1	0	5	0
52	93	1	10000	5	1	0	5	0
51	94	1	10000	5	1	0	5	0
52	95	1	10000	5	1	0	5	0
53	96	1	10000	5	1	0	5	0
52	97	1	10000	5	1	0	5	0
52	98	1	10000	5	1	0	5	0
56	99	1	10000	5	1	0	5	0
60	100	1	10000	5	1	0	5	0
57	101	1	10000	5	1	0	5	0
57	102	1	10000	5	1	0	5	0
58	103	1	10000	5	1	0	5	0
59	104	1	10000	5	1	0	5	0
56	105	1	10000	5	1	0	5	0
55	106	1	10000	5	1	0	5	0
55	107	1	10000	5	1	0	5	0
54	108	1	10000	5	1	0	5	0
53	109	1	10000	5	1	0	5	0
54	110	1	10000	5	1	0	5	0
53	110	1	10000	5	1	0	5	0
50	111	1	10000	5	1	0	5	0
50	113	1	10000	5	1	0	5	0
50	114	1	10000	5	1	0	5	0
51	115	1	10000	5	1	0	5	0
49	116	1	10000	5	1	0	5	0
47	117	1	10000	5	1	0	5	0
46	118	1	10000	5	1	0	5	0
46	119	1	10000	5	1	0	5	0
45	120	1	10000	5	1	0	5	0
43	120	1	10000	5	1	0	5	0
43	121	1	10000	5	1	0	5	0
45	123	1	10000	5	1	0	5	0
46	124	1	10000	5	1	0	5	0
43	125	1	10000	5	1	0	5	0
41	126	1	10000	5	1	0	5	0
41	127	1	10000	5	1	0	5	0
41	128	1	10000	5	1	0	5	0
39	129	1	10000	5	1	0	5	0
42	130	1	10000	5	1	0	5	0
45	130	1	10000	5	1	0	5	0
49	131	1	10000	5	1	0	5	0
49	133	1	10000	5	1	0	5	0
51	134	1	10000	5	1	0	5	0
52	135	1	10000	5	1	0	5	0
53	136	1	10000	5	1	0	5	0
54	137	1	10000	5	1	0	5	0
51	138	1	10000	5	1	0	5	0
50	139	1	10000	5	1	0	5	0
49	140	1	10000	5	1	0	5	0
50	140	1	10000	5	1	0	5	0
52	141	1	10000	5	1	0	5	0
52	143	1	10000	5	1	0	5	0
51	144	1	10000	5	1	0	5	0
49	145	1	10000	5	1	0	5	0
53	146	1	10000	5	1	0	5	0
56	147	1	10000	5	1	0	5	0
56	148	1	10000	5	1	0	5	0
56	149	1	10000	5	1	0	5	0
55	150	1	10000	5	1	0	5	0
55	150	1	10000	5	1	0	5	0
52	151	1	10000	5	1	0	5	0
52	153	1	10000	5	1	0	5	0
51	154	1	10000	5	1	0	5	0
53	155	1	10000	5	1	0	5	0
51	156	1	10000	5	1	0	5	0
50	157	1	10000	5	1	0	5	0
48	158	1	10000	5	1	0	5	0
47	159	1	10000	5	1	0	5	0
45	160	1	10000	5	1	0	5	0
44	160	1	10000	5	1	0	5	0
45	161	1	10000	5	1	0	5	0
45	163	1	10000	5	1	0	5	0
44	164	1	10000	5	1	0	5	0
43	165	1	10000	5	1	0	5	0
43	166	1	10000	5	1	0	5	0
44	167	1	10000	5	1	0	5	0
44	168	1	10000	5	1	0	5	0
43	169	1	10000	5	1	0	5	0
45	170	1	10000	5	1	0	5	0
47	170	1	10000	5	1	0	5	0
51	171	1	10000	5	1	0	5	0
53	173	1	10000	5	1	0	5	0
55	174	1	10000	5	1	0	5	0
54	175	1	10000	5	1	0	5	0
56	176	1	10000	5	1	0	5	0
59	177	1	10000	5	1	0	5	0
62	178	1	10000	5	1	0	5	0
65	179	1	10000	5	1	0	5	0
64	180	1	10000	5	1	0	5	0
62	180	1	10000	5	1	0	5	0
63	181	1	10000	5	1	0	5	0
63	183	1	10000	5	1	0	5	0
63	184	1	10000	5	1	0	5	0
61	185	1	10000	5	1	0	5	0
59	186	1	10000	5	1	0	5	0
58	187	1	10000	5	1	0	5	0
56	188	1	10000	5	1	0	5	0
56	189	1	10000	5	1	0	5	0
55	190	1	10000	5	1	0	5	0
54	190	1	10000	5	1	0	5	0
54	191	1	10000	5	1	0	5	0
56	193	1	10000	5	1	0	5	0
55	194	1	10000	5	1	0	5	0
55	195	1	10000	5	1	0	5	0
52	196	1	10000	5	1	0	5	0
51	197	1	10000	5	1	0	5	0
51	198	1	10000	5	1	0	5	0
53	199	1	10000	5	1	0	5	0
52	200	1	10000	5	1	0	5	0
51	200	1	10000	5	1	0	5	0
50	201	1	10000	5	1	0	5	0
49	203	1	10000	5	1	0	5	0
48	204	1	10000	5	1	0	5	0
44	205	1	10000	5	1	0	5	0
46	206	1	10000	5	1	0	5	0
46	207	1	10000	5	1	0	5	0
45	208	1	10000	5	1	0	5	0
45	209	1	10000	5	1	0	5	0
46	210	1	10000	5	1	0	5	0
45	210	1	10000	5	1	0	5	0
43	211	1	10000	5	1	0	5	0
42	213	1	10000	5	1	0	5	0
42	214	1	10000	5	1	0	5	0
42	215	1	10000	5	1	0	5	0
41	216	1	10000	5	1	0	5	0
40	217	1	10000	5	1	0	5	0
39	218	1	10000	5	1	0	5	0
38	219	1	10000	5	1	0	5	0
37	220	1	10000	5	1	0	5	0
36	220	1	10000	5	1	0	5	0
38	221	1	10000	5	1	0	5	0
37	223	1	10000	5	1	0	5	0
37	224	1	10000	5	1	0	5	0
35	225	1	10000	5	1	0	5	0
37	226	1	10000	5	1	0	5	0
37	227	1	10000	5	1	0	5	0
37	228	1	10000	5	1	0	5	0
37	229	1	10000	5	1	0	5	0
37	230	1	10000	5	1	0	5	0
38	230	1	10000	5	1	0	5	0
37	231	1	10000	5	1	0	5	0
37	233	1	10000	5	1	0	5	0
38	234	1	10000	5	1	0	5	0
38	235	1	10000	5	1	0	5	0
37	236	1	10000	5	1	0	5	0
37	237	1	10000	5	1	0	5	0
36	238	1	10000	5	1	0	5	0
38	239	1	10000	5	1	0	5	0
36	240	1	10000	5	1	0	5	0
36	240	1	10000	5	1	0	5	0
35	241	1	10000	5	1	0	5	0
36	243	1	10000	5	1	0	5	0
34	244	1	10000	5	1	0	5	0
32	245	1	10000	5	1	0	5	0
33	246	1	10000	5	1	0	5	0
32	247	1	10000	5	1	0	5	0
32	248	1	10000	5	1	0	5	0
32	249	1	10000	5	1	0	5	0
34	250	1	10000	5	1	0	5	0
37	250	1	10000	5	1	0	5	0
37	251	1	10000	5	1	0	5	0
41	253	1	10000	5	1	0	5	0
43	254	1	10000	5	1	0	5	0
46	255	1	10000	5	1	0	5	0
47	256	1	10000	5	1	0	5	0
51	257	1	10000	5	1	0	5	0
55	258	1	10000	5	1	0	5	0
56	259	1	10000	5	1	0	5	0
55	260	1	10000	5	1	0	5	0
56	260	1	10000	5	1	0	5	0
58	261	1	10000	5	1	0	5	0
58	263	1	10000	5	1	0	5	0
58	264	1	10000	5	1	0	5	0
54	265	1	10000	5	1	0	5	0
54	266	1	10000	5	1	0	5	0
53	267	1	10000	5	1	0	5	0
51	268	1	10000	5	1	0	5	0
49	269	1	10000	5	1	0	5	0
50	270	1	10000	5	1	0	5	0
49	270	1	10000	5	1	0	5	0
48	271	1	10000	5	1	0	5	0
45	273	1	10000	5	1	0	5	0
45	274	1	10000	5	1	0	5	0
46	275	1	10000	5	1	0	5	0
45	276	1	10000	5	1	0	5	0
45	277	1	10000	5	1	0	5	0
45	278	1	10000	5	1	0	5	0
44	279	1	10000	5	1	0	5	0
44	280	1	10000	5	1	0	5	0
43	280	1	10000	5	1	0	5	0
42	281	1	10000	5	1	0	5	0
44	283	1	10000	5	1	0	5	0
45	284	1	10000	5	1	0	5	0
42	285	1	10000	5	1	0	5	0
44	286	1	10000	5	1	0	5	0
45	287	1	10000	5	1	0	5	0
45	288	1	10000	5	1	0	5	0
46	289	1	10000	5	1	0	5	0
46	290	1	10000	5	1	0	5	0
46	290	1	10000	5	1	0	5	0
45	291	1	10000	5	1	0	5	0
45	293	1	10000	5	1	0	5	0
49	294	1	10000	5	1	0	5	0
54	295	1	10000	5	1	0	5	0
55	296	1	10000	5	1	0	5	0
58	297	1	10000	5	1	0	5	0
59	298	1	10000	5	1	0	5	0
57	299	1	10000	5	1	0	5	0
57	300	1	10000	5	1	0	5	0
56	300	1	10000	5	1	0	5	0
54	301	1	10000	5	1	0	5	0
55	303	1	10000	5	1	0	5	0
55	304	1	10000	5	1	0	5	0
50	305	1	10000	5	1	0	5	0
49	306	1	10000	5	1	0	5	0
49	307	1	10000	5	1	0	5	0
49	308	1	10000	5	1	0	5	0
49	309	1	10000	5	1	0	5	0
48	310	1	10000	5	1	0	5	0
47	310	1	10000	5	1	0	5	0
48	311	1	10000	5	1	0	5	0
47	313	1	10000	5	1	0	5	0
47	314	1	10000	5	1	0	5	0
48	315	1	10000	5	1	0	5	0
47	316	1	10000	5	1	0	5	0
46	317	1	10000	5	1	0	5	0
45	318	1	10000	5	1	0	5	0
44	319	1	10000	5	1	0	5	0
46	320	1	10000	5	1	0	5	0
45	320	1	10000	5	1	0	5	0
46	321	1	10000	5	1	0	5	0
46	323	1	10000	5	1	0	5	0
45	324	1	10000	5	1	0	5	0
44	325	1	10000	5	1	0	5	0
43	326	1	10000	5	1	0	5	0
41	327	1	10000	5	1	0	5	0
41	328	1	10000	5	1	0	5	0
41	329	1	10000	5	1	0	5	0
42	330	1	10000	5	1	0	5	0
43	330	1	10000	5	1	0	5	0
42	331	1	10000	5	1	0	5	0
42	333	1	10000	5	1	0	5	0
44	334	1	10000	5	1	0	5	0
45	335	1	10000	5	1	0	5	0
44	336	1	10000	5	1	0	5	0
46	337	1	10000	5	1	0	5	0
44	338	1	10000	5	1	0	5	0
43	339	1	10000	5	1	0	5	0
42	340	1	10000	5	1	0	5	0
44	340	1	10000	5	1	0	5	0
45	341	1	10000	5	1	0	5	0
46	343	1	10000	5	1	0	5	0
44	344	1	10000	5	1	0	5	0
41	345	1	10000	5	1	0	5	0
42	346	1	10000	5	1	0	5	0
47	347	1	10000	5	1	0	5	0
55	348	1	10000	5	1	0	5	0
56	349	1	10000	5	1	0	5	0
57	350	1	10000	5	1	0	5	0
55	350	1	10000	5	1	0	5	0
58	351	1	10000	5	1	0	5	0
61	353	1	10000	5	1	0	5	0
64	354	1	10000	5	1	0	5	0
70	355	1	10000	5	1	0	5	0
70	356	1	10000	5	1	0	5	0
68	357	1	10000	5	1	0	5	0
67	358	1	10000	5	1	0	5	0
64	359	1	10000	5	1	0	5	0
62	360	1	10000	5	1	0	5	0
61	360	1	10000	5	1	0	5	0
62	361	1	10000	5	1	0	5	0
62	363	1	10000	5	1	0	5	0
60	364	1	10000	5	1	0	5	0
56	365	1	10000	5	1	0	5	0
55	366	1	10000	5	1	0	5	0
54	367	1	10000	5	1	0	5	0
53	368	1	10000	5	1	0	5	0
52	369	1	10000	5	1	0	5	0
50	370	1	10000	5	1	0	5	0
50	370	1	10000	5	1	0	5	0
51	371	1	10000	5	1	0	5	0
51	373	1	10000	5	1	0	5	0
50	374	1	10000	5	1	0	5	0
52	375	1	10000	5	1	0	5	0
51	376	1	10000	5	1	0	5	0
49	377	1	10000	5	1	0	5	0
47	378	1	10000	5	1	0	5	0
47	379	1	10000	5	1	0	5	0
47	380	1	10000	5	1	0	5	0
46	380	1	10000	5	1	0	5	0
46	381	1	10000	5	1	0	5	0
46	383	1	10000	5	1	0	5	0
45	384	1	10000	5	1	0	5	0
45	385	1	10000	5	1	0	5	0
46	386	1	10000	5	1	0	5	0
44	387	1	10000	5	1	0	5	0
44	388	1	10000	5	1	0	5	0
47	389	1	10000	5	1	0	5	0
48	390	1	10000	5	1	0	5	0
50	390	1	10000	5	1	0	5	0
52	391	1	10000	5	1	0	5	0
51	393	1	10000	5	1	0	5	0
52	394	1	10000	5	1	0	5	0
60	395	1	10000	5	1	0	5	0
63	396	1	10000	5	1	0	5	0
65	397	1	10000	5	1	0	5	0
68	398	1	10000	5	1	0	5	0
66	399	1	10000	5	1	0	5	0
65	400	1	10000	5	1	0	5	0
68	400	1	10000	5	1	0	5	0
67	401	1	10000	5	1	0	5	0
67	403	1	10000	5	1	0	5	0
70	404	1	10000	5	1	0	5	0
72	405	1	10000	5	1	0	5	0
78	406	1	10000	5	1	0	5	0
79	407	1	10000	5	1	0	5	0
79	408	1	10000	5	1	0	5	0
80	409	1	10000	5	1	0	5	0
82	410	1	10000	5	1	0	5	0
83	410	1	10000	5	1	0	5	0
80	411	1	10000	5	1	0	5	0
78	413	1	10000	5	1	0	5	0
76	414	1	10000	5	1	0	5	0
77	415	1	10000	5	1	0	5	0
74	416	1	10000	5	1	0	5	0
74	417	1	10000	5	1	0	5	0
76	418	1	10000	5	1	0	5	0
77	419	1	10000	5	1	0	5	0
85	420	1	10000	5	1	0	5	0
92	420	1	10000	5	1	0	5	0
94	421	1	10000	5	1	0	5	0
97	423	1	10000	5	1	0	5	0
97	424	1	10000	5	1	0	5	0
93	425	1	10000	5	1	0	5	0
91	426	1	10000	5	1	0	5	0
89	427	1	10000	5	1	0	5	0
89	428	1	10000	5	1	0	5	0
88	429	1	10000	5	1	0	5	0
87	430	1	10000	5	1	0	5	0
86	430	1	10000	5	1	0	5	0
86	431	1	10000	5	1	0	5	0
89	433	1	10000	5	1	0	5	0
87	434	1	10000	5	1	0	5	0
88	435	1	10000	5	1	0	5	0
88	436	1	10000	5	1	0	5	0
87	437	1	10000	5	1	0	5	0
88	438	1	10000	5	1	0	5	0
90	439	1	10000	5	1	0	5	0
88	440	1	10000	5	1	0	5	0
89	440	1	10000	5	1	0	5	0
92	441	1	10000	5	1	0	5	0
92	443	1	10000	5	1	0	5	0
92	444	1	10000	5	1	0	5	0
89	445	1	10000	5	1	0	5	0
86	446	1	10000	5	1	0	5	0
84	447	1	10000	5	1	0	5	0
84	448	1	10000	5	1	0	5	0
82	449	1	10000	5	1	0	5	0
80	450	1	10000	5	1	0	5	0
80	450	1	10000	5	1	0	5	0
80	451	1	10000	5	1	0	5	0
79	453	1	10000	5	1	0	5	0
79	454	1	10000	5	1	0	5	0
78	455	1	10000	5	1	0	5	0
78	456	1	10000	5	1	0	5	0
81	457	1	10000	5	1	0	5	0
82	458	1	10000	5	1	0	5	0
84	459	1	10000	5	1	0	5	0
83	460	1	10000	5	1	0	5	0
81	460	1	10000	5	1	0	5	0
81	461	1	10000	5	1	0	5	0
83	463	1	10000	5	1	0	5	0
87	464	1	10000	5	1	0	5	0
86	465	1	10000	5	1	0	5	0
84	466	1	10000	5	1	0	5	0
84	467	1	10000	5	1	0	5	0
81	468	1	10000	5	1	0	5	0
79	469	1	10000	5	1	0	5	0
76	470	1	10000	5	1	0	5	0
74	470	1	10000	5	1	0	5	0
74	471	1	10000	5	1	0	5	0
72	473	1	10000	5	1	0	5	0
69	474	1	10000	5	1	0	5	0
71	475	1	10000	5	1	0	5	0
71	476	1	10000	5	1	0	5	0
67	477	1	10000	5	1	0	5	0
64	478	1	10000	5	1	0	5	0
62	479	1	10000	5	1	0	5	0
61	480	1	10000	5	1	0	5	0
60	480	1	10000	5	1	0	5	0
59	481	1	10000	5	1	0	5	0
59	483	1	10000	5	1	0	5	0
58	484	1	10000	5	1	0	5	0
56	485	1	10000	5	1	0	5	0
57	486	1	10000	5	1	0	5	0
55	487	1	10000	5	1	0	5	0
54	488	1	10000	5	1	0	5	0
55	489	1	10000	5	1	0	5	0
53	490	1	10000	5	1	0	5	0
52	490	1	10000	5	1	0	5	0
51	491	1	10000	5	1	0	5	0
48	493	1	10000	5	1	0	5	0
45	494	1	10000	5	1	0	5	0
48	495	1	10000	5	1	0	5	0
45	496	1	10000	5	1	0	5	0
43	497	1	10000	5	1	0	5	0
43	498	1	10000	5	1	0	5	0
43	499	1	10000	5	1	0	5	0
43	500	1	10000	5	1	0	5	0
41	500	1	10000	5	1	0	5	0
43	501	1	10000	5	1	0	5	0
43	503	1	10000	5	1	0	5	1
43	504	1	10000	5	1	0	5	1
39	505	1	10000	5	1	0	5	1
38	506	1	10000	5	1	0	5	1
38	507	1	10000	5	1	0	5	1
38	508	1	10000	5	1	0	5	1
37	509	1	10000	5	1	0	5	1
37	510	1	10000	5	1	0	5	1
38	510	1	10000	5	1	0	5	1
42	511	1	10000	5	1	0	5	1
41	513	1	10000	5	1	0	5	1
40	514	1	10000	5	1	0	5	1
42	515	1	10000	5	1	0	5	1
42	516	1	10000	5	1	0	5	1
41	517	1	10000	5	1	0	5	1
43	518	1	10000	5	1	0	5	1
42	519	1	10000	5	1	0	5	1
43	520	1	10000	5	1	0	5	1
42	520	1	10000	5	1	0	5	1
49	521	1	10000	5	1	0	5	1
53	523	1	10000	5	1	0	5	1
52	524	1	10000	5	1	0	5	1
51	525	1	10000	5	1	0	5	1
52	526	1	10000	5	1	0	5	1
53	527	1	10000	5	1	0	5	1
54	528	1	10000	5	1	0	5	1
52	529	1	10000	5	1	0	5	1
50	530	1	10000	5	1	0	5	1
49	530	1	10000	5	1	0	5	1
50	531	1	10000	5	1	0	5	1
52	533	1	10000	5	1	0	5	1
51	534	1	10000	5	1	0	5	1
52	535	1	10000	5	1	0	5	1
50	536	1	10000	5	1	0	5	1
49	537	1	10000	5	1	0	5	1
48	538	1	10000	5	1	0	5	1
47	539	1	10000	5	1	0	5	1
46	540	1	10000	5	1	0	5	1
45	540	1	10000	5	1	0	5	1
43	541	1	10000	5	1	0	5	1
42	543	1	10000	5	1	0	5	1
42	544	1	10000	5	1	0	5	1
42	545	1	10000	5	1	0	5	1
44	546	1	10000	5	1	0	5	1
46	547	1	10000	5	1	0	5	1
47	548	1	10000	5	1	0	5	1
45	549	1	10000	5	1	0	5	1
47	550	1	10000	5	1	0	5	1
47	550	1	10000	5	1	0	5	1
48	551	1	10000	5	1	0	5	1
51	553	1	10000	5	1	0	5	0
50	554	1	10000	5	1	0	5	0
51	555	1	10000	5	1	0	5	0
48	556	1	10000	5	1	0	5	0
48	557	1	10000	5	1	0	5	0
47	558	1	10000	5	1	0	5	0
46	559	1	10000	5	1	0	5	0
45	560	1	10000	5	1	0	5	0
47	560	1	10000	5	1	0	5	0
48	561	1	10000	5	1	0	5	0
49	563	1	10000	5	1	0	5	0
50	564	1	10000	5	1	0	5	0
47	565	1	10000	5	1	0	5	0
46	566	1	10000	5	1	0	5	0
45	567	1	10000	5	1	0	5	0
49	568	1	10000	5	1	0	5	0
48	569	1	10000	5	1	0	5	0
47	570	1	10000	5	1	0	5	0
47	570	1	10000	5	1	0	5	0
45	571	1	10000	5	1	0	5	0
45	573	1	10000	5	1	0	5	0
43	574	1	10000	5	1	0	5	0
45	575	1	10000	5	1	0	5	0
50	576	1	10000	5	1	0	5	0
50	577	1	10000	5	1	0	5	0
50	578	1	10000	5	1	0	5	0
49	579	1	10000	5	1	0	5	0
52	580	1	10000	5	1	0	5	0
51	580	1	10000	5	1	0	5	0
49	581	1	10000	5	1	0	5	0
49	583	1	10000	5	1	0	5	0
49	584	1	10000	5	1	0	5	0
48	585	1	10000	5	1	0	5	0
51	586	1	10000	5	1	0	5	0
51	587	1	10000	5	1	0	5	0
50	588	1	10000	5	1	0	5	0
52	589	1	10000	5	1	0	5	0
52	590	1	10000	5	1	0	5	0
51	590	1	10000	5	1	0	5	0
52	591	1	10000	5	1	0	5	0
53	593	1	10000	5	1	0	5	0
57	594	1	10000	5	1	0	5	0
62	595	1	10000	5	1	0	5	0
59	596	1	10000	5	1	0	5	0
60	597	1	10000	5	1	0	5	0
61	598	1	10000	5	1	0	5	0
59	599	1	10000	5	1	0	5	0
65	600	1	10000	5	1	0	5	0
73	600	1	10000	5	1	0	5	0
76	601	1	10000	5	1	0	5	0
81	603	1	10000	5	1	0	5	0
86	604	1	10000	5	1	0	5	0
81	605	1	10000	5	1	0	5	0
80	606	1	10000	5	1	0	5	0
87	607	1	10000	5	1	0	5	0
90	608	1	10000	5	1	0	5	0
97	609	1	10000	5	1	0	5	0
99	610	1	10000	5	1	0	5	0
102	610	1	10000	5	1	0	5	0
100	611	1	10000	5	1	0	5	0
96	613	1	10000	5	1	0	5	0
94	614	1	10000	5	1	0	5	0
95	615	1	10000	5	1	0	5	0
97	616	1	10000	5	1	0	5	0
115	617	1	10000	5	1	0	5	0
138	618	1	10000	5	1	0	5	0
147	619	1	10000	5	1	0	5	0
144	620	1	10000	5	1	0	5	0
143	620	1	10000	5	1	0	5	0
142	621	1	10000	5	1	0	5	0
140	623	1	10000	5	1	0	5	0
142	624	1	10000	5	1	0	5	0
138	625	1	10000	5	1	0	5	0
132	626	1	10000	5	1	0	5	0
129	627	1	10000	5	1	0	5	0
125	628	1	10000	5	1	0	5	0
121	629	1	10000	5	1	0	5	0
117	630	1	10000	5	1	0	5	0
114	630	1	10000	5	1	0	5	0
109	631	1	10000	5	1	0	5	0
109	633	1	10000	5	1	0	5	0
110	634	1	10000	5	1	0	5	0
111	635	1	10000	5	1	0	5	0
115	636	1	10000	5	1	0	5	0
121	637	1	10000	5	1	0	5	0
125	638	1	10000	5	1	0	5	0
132	639	1	10000	5	1	0	5	0
138	640	1	10000	5	1	0	5	0
136	640	1	10000	5	1	0	5	0
130	641	1	10000	5	1	0	5	0
129	643	1	10000	5	1	0	5	0
135	644	1	10000	5	1	0	5	0
135	645	1	10000	5	1	0	5	0
134	646	1	10000	5	1	0	5	0
129	647	1	10000	5	1	0	5	0
130	648	1	10000	5	1	0	5	0
135	649	1	10000	5	1	0	5	0
140	650	1	10000	5	1	0	5	0
145	650	1	10000	5	1	0	5	0
146	651	1	10000	5	1	0	5	0
144	653	1	10000	5	1	0	5	0
142	654	1	10000	5	1	0	5	0
143	655	1	10000	5	1	0	5	0
142	656	1	10000	5	1	0	5	0
146	657	1	10000	5	1	0	5	0
153	658	1	10000	5	1	0	5	0
161	659	1	10000	5	1	0	5	0
167	660	1	10000	5	1	0	5	0
171	660	1	10000	5	1	0	5	0
172	661	1	10000	5	1	0	5	0
170	663	1	10000	5	1	0	5	0
168	664	1	10000	5	1	0	5	0
162	665	1	10000	5	1	0	5	0
158	666	1	10000	5	1	0	5	0
155	667	1	10000	5	1	0	5	0
151	668	1	10000	5	1	0	5	0
147	669	1	10000	5	1	0	5	0
145	670	1	10000	5	1	0	5	0
140	670	1	10000	5	1	0	5	0
134	671	1	10000	5	1	0	5	0
131	673	1	10000	5	1	0	5	0
128	674	1	10000	5	1	0	5	0
125	675	1	10000	5	1	0	5	0
120	676	1	10000	5	1	0	5	0
116	677	1	10000	5	1	0	5	0
111	678	1	10000	5	1	0	5	0
108	679	1	10000	5	1	0	5	0
104	680	1	10000	5	1	0	5	0
101	680	1	10000	5	1	0	5	0
99	681	1	10000	5	1	0	5	0
99	683	1	10000	5	1	0	5	0
103	684	1	10000	5	1	0	5	0
101	685	1	10000	5	1	0	5	0
102	686	1	10000	5	1	0	5	0
106	687	1	10000	5	1	0	5	0
108	688	1	10000	5	1	0	5	0
109	689	1	10000	5	1	0	5	0
110	690	1	10000	5	1	0	5	0
109	690	1	10000	5	1	0	5	0
111	691	1	10000	5	1	0	5	0
119	693	1	10000	5	1	0	5	0
125	694	1	10000	5	1	0	5	0
131	695	1	10000	5	1	0	5	0
138	696	1	10000	5	1	0	5	0
141	697	1	10000	5	1	0	5	0
144	698	1	10000	5	1	0	5	0
149	699	1	10000	5	1	0	5	0
150	700	1	10000	5	1	0	5	0
150	700	1	10000	5	1	0	5	0
153	701	1	10000	5	1	0	5	0
153	703	1	10000	5	1	0	5	0
152	704	1	10000	5	1	0	5	0
152	705	1	10000	5	1	0	5	0
151	706	1	10000	5	1	0	5	0
150	707	1	10000	5	1	0	5	0
151	708	1	10000	5	1	0	5	0
150	709	1	10000	5	1	0	5	0
148	710	1	10000	5	1	0	5	0
145	710	1	10000	5	1	0	5	0
141	711	1	10000	5	1	0	5	0
138	713	1	10000	5	1	0	5	0
138	714	1	10000	5	1	0	5	0
140	715	1	10000	5	1	0	5	0
138	716	1	10000	5	1	0	5	0
136	717	1	10000	5	1	0	5	0
130	718	1	10000	5	1	0	5	0
126	719	1	10000	5	1	0	5	0
121	720	1	10000	5	1	0	5	0
119	720	1	10000	5	1	0	5	0
118	721	1	10000	5	1	0	5	0
118	723	1	10000	5	1	0	5	0
119	724	1	10000	5	1	0	5	0
116	725	1	10000	5	1	0	5	0
118	726	1	10000	5	1	0	5	0
120	727	1	10000	5	1	0	5	0
120	728	1	10000	5	1	0	5	0
119	729	1	10000	5	1	0	5	0
120	730	1	10000	5	1	0	5	0
117	730	1	10000	5	1	0	5	0
113	731	1	10000	5	1	0	5	0
113	733	1	10000	5	1	0	5	0
108	734	1	10000	5	1	0	5	0
106	735	1	10000	5	1	0	5	0
102	736	1	10000	5	1	0	5	0
100	737	1	10000	5	1	0	5	0
96	738	1	10000	5	1	0	5	0
94	739	1	10000	5	1	0	5	0
91	740	1	10000	5	1	0	5	0
88	740	1	10000	5	1	0	5	0
85	741	1	10000	5	1	0	5	0
83	743	1	10000	5	1	0	5	0
81	744	1	10000	5	1	0	5	0
78	745	1	10000	5	1	0	5	0
77	746	1	10000	5	1	0	5	0
74	747	1	10000	5	1	0	5	0
73	748	1	10000	5	1	0	5	0
70	749	1	10000	5	1	0	5	0
71	750	1	10000	5	1	0	5	0
74	750	1	10000	5	1	0	5	0
73	751	1	10000	5	1	0	5	0
70	753	1	10000	5	1	0	5	0
68	754	1	10000	5	1	0	5	0
69	755	1	10000	5	1	0	5	0
68	756	1	10000	5	1	0	5	0
66	757	1	10000	5	1	0	5	0
65	758	1	10000	5	1	0	5	0
62	759	1	10000	5	1	0	5	0
