value	EMG	Stimulus	EMG_sensitivity	Total_Trial_Nr	practise	acq	probe_nr	Startle_Probe
62	2	10	10000	1	1	0	1	0
61	3	10	10000	1	1	0	1	0
63	4	10	10000	1	1	0	1	0
61	5	10	10000	1	1	0	1	0
65	6	10	10000	1	1	0	1	0
65	7	10	10000	1	1	0	1	0
64	8	10	10000	1	1	0	1	0
63	9	10	10000	1	1	0	1	0
66	10	10	10000	1	1	0	1	0
66	11	10	10000	1	1	0	1	0
67	12	10	10000	1	1	0	1	0
65	13	10	10000	1	1	0	1	0
64	14	10	10000	1	1	0	1	0
65	15	10	10000	1	1	0	1	0
64	16	10	10000	1	1	0	1	0
66	17	10	10000	1	1	0	1	0
65	18	10	10000	1	1	0	1	0
64	19	10	10000	1	1	0	1	0
67	20	10	10000	1	1	0	1	0
70	21	10	10000	1	1	0	1	0
72	21	10	10000	1	1	0	1	0
72	22	10	10000	1	1	0	1	0
70	24	10	10000	1	1	0	1	0
69	25	10	10000	1	1	0	1	0
69	26	10	10000	1	1	0	1	0
70	27	10	10000	1	1	0	1	0
68	28	10	10000	1	1	0	1	0
67	29	10	10000	1	1	0	1	0
66	30	10	10000	1	1	0	1	0
65	31	10	10000	1	1	0	1	0
63	31	10	10000	1	1	0	1	0
62	32	10	10000	1	1	0	1	0
61	34	10	10000	1	1	0	1	0
61	35	10	10000	1	1	0	1	0
58	36	10	10000	1	1	0	1	0
58	37	10	10000	1	1	0	1	0
56	38	10	10000	1	1	0	1	0
57	39	10	10000	1	1	0	1	0
56	40	10	10000	1	1	0	1	0
57	41	10	10000	1	1	0	1	0
56	42	10	10000	1	1	0	1	0
55	43	10	10000	1	1	0	1	0
54	44	10	10000	1	1	0	1	0
54	45	10	10000	1	1	0	1	0
54	46	10	10000	1	1	0	1	0
54	47	10	10000	1	1	0	1	0
53	48	10	10000	1	1	0	1	0
51	49	10	10000	1	1	0	1	0
50	50	10	10000	1	1	0	1	0
49	51	10	10000	1	1	0	1	0
49	51	10	10000	1	1	0	1	0
48	52	10	10000	1	1	0	1	0
49	54	10	10000	1	1	0	1	0
48	55	10	10000	1	1	0	1	0
46	56	10	10000	1	1	0	1	0
44	57	10	10000	1	1	0	1	0
48	58	10	10000	1	1	0	1	0
48	59	10	10000	1	1	0	1	0
48	60	10	10000	1	1	0	1	0
47	61	10	10000	1	1	0	1	0
50	61	10	10000	1	1	0	1	0
49	62	10	10000	1	1	0	1	0
51	64	10	10000	1	1	0	1	0
54	65	10	10000	1	1	0	1	0
57	66	10	10000	1	1	0	1	0
58	67	10	10000	1	1	0	1	0
57	68	10	10000	1	1	0	1	0
55	69	10	10000	1	1	0	1	0
55	70	10	10000	1	1	0	1	0
55	71	10	10000	1	1	0	1	0
53	71	10	10000	1	1	0	1	0
53	72	10	10000	1	1	0	1	0
52	74	10	10000	1	1	0	1	0
52	75	10	10000	1	1	0	1	0
49	76	10	10000	1	1	0	1	0
48	77	10	10000	1	1	0	1	0
47	78	10	10000	1	1	0	1	0
47	79	10	10000	1	1	0	1	0
48	80	10	10000	1	1	0	1	0
48	81	10	10000	1	1	0	1	0
47	82	10	10000	1	1	0	1	0
46	83	10	10000	1	1	0	1	0
49	84	10	10000	1	1	0	1	0
49	85	10	10000	1	1	0	1	0
51	86	10	10000	1	1	0	1	0
50	87	10	10000	1	1	0	1	0
50	88	10	10000	1	1	0	1	0
49	89	10	10000	1	1	0	1	0
49	90	10	10000	1	1	0	1	0
50	91	10	10000	1	1	0	1	0
49	92	10	10000	1	1	0	1	0
49	93	10	10000	1	1	0	1	0
48	94	10	10000	1	1	0	1	0
48	95	10	10000	1	1	0	1	0
46	96	10	10000	1	1	0	1	0
44	97	10	10000	1	1	0	1	0
44	98	10	10000	1	1	0	1	0
43	99	10	10000	1	1	0	1	0
43	100	10	10000	1	1	0	1	0
44	101	10	10000	1	1	0	1	0
47	101	10	10000	1	1	0	1	0
47	102	10	10000	1	1	0	1	0
48	104	10	10000	1	1	0	1	0
47	105	10	10000	1	1	0	1	0
49	106	10	10000	1	1	0	1	0
47	107	10	10000	1	1	0	1	0
47	108	10	10000	1	1	0	1	0
47	109	10	10000	1	1	0	1	0
49	110	10	10000	1	1	0	1	0
51	111	10	10000	1	1	0	1	0
52	111	10	10000	1	1	0	1	0
54	112	10	10000	1	1	0	1	0
54	114	10	10000	1	1	0	1	0
54	115	10	10000	1	1	0	1	0
56	116	10	10000	1	1	0	1	0
59	117	10	10000	1	1	0	1	0
58	118	10	10000	1	1	0	1	0
56	119	10	10000	1	1	0	1	0
55	120	10	10000	1	1	0	1	0
54	121	10	10000	1	1	0	1	0
54	122	10	10000	1	1	0	1	0
53	123	10	10000	1	1	0	1	0
50	124	10	10000	1	1	0	1	0
51	125	10	10000	1	1	0	1	0
53	126	10	10000	1	1	0	1	0
57	127	10	10000	1	1	0	1	0
55	128	10	10000	1	1	0	1	0
54	129	10	10000	1	1	0	1	0
53	130	10	10000	1	1	0	1	0
52	131	10	10000	1	1	0	1	0
51	131	10	10000	1	1	0	1	0
51	132	10	10000	1	1	0	1	0
52	134	10	10000	1	1	0	1	0
55	135	10	10000	1	1	0	1	0
54	136	10	10000	1	1	0	1	0
55	137	10	10000	1	1	0	1	0
56	138	10	10000	1	1	0	1	0
56	139	10	10000	1	1	0	1	0
57	140	10	10000	1	1	0	1	0
55	141	10	10000	1	1	0	1	0
56	141	10	10000	1	1	0	1	0
56	142	10	10000	1	1	0	1	0
55	144	10	10000	1	1	0	1	0
53	145	10	10000	1	1	0	1	0
54	146	10	10000	1	1	0	1	0
52	147	10	10000	1	1	0	1	0
52	148	10	10000	1	1	0	1	0
50	149	10	10000	1	1	0	1	0
50	150	10	10000	1	1	0	1	0
49	151	10	10000	1	1	0	1	0
48	151	10	10000	1	1	0	1	0
49	152	10	10000	1	1	0	1	0
49	154	10	10000	1	1	0	1	0
50	155	10	10000	1	1	0	1	0
47	156	10	10000	1	1	0	1	0
46	157	10	10000	1	1	0	1	0
46	158	10	10000	1	1	0	1	0
44	159	10	10000	1	1	0	1	0
46	160	10	10000	1	1	0	1	0
44	161	10	10000	1	1	0	1	0
44	161	10	10000	1	1	0	1	0
45	162	10	10000	1	1	0	1	0
47	164	10	10000	1	1	0	1	0
47	165	10	10000	1	1	0	1	0
51	166	10	10000	1	1	0	1	0
50	167	10	10000	1	1	0	1	0
50	168	10	10000	1	1	0	1	0
57	169	10	10000	1	1	0	1	0
70	170	10	10000	1	1	0	1	0
71	171	10	10000	1	1	0	1	0
69	171	10	10000	1	1	0	1	0
76	172	10	10000	1	1	0	1	0
79	174	10	10000	1	1	0	1	0
81	175	10	10000	1	1	0	1	0
78	176	10	10000	1	1	0	1	0
76	177	10	10000	1	1	0	1	0
74	178	10	10000	1	1	0	1	0
72	179	10	10000	1	1	0	1	0
71	180	10	10000	1	1	0	1	0
69	181	10	10000	1	1	0	1	0
68	182	10	10000	1	1	0	1	0
66	183	10	10000	1	1	0	1	0
64	184	10	10000	1	1	0	1	0
61	185	10	10000	1	1	0	1	0
62	186	10	10000	1	1	0	1	0
62	187	10	10000	1	1	0	1	0
60	188	10	10000	1	1	0	1	0
59	189	10	10000	1	1	0	1	0
57	190	10	10000	1	1	0	1	0
56	191	10	10000	1	1	0	1	0
54	191	10	10000	1	1	0	1	0
53	192	10	10000	1	1	0	1	0
53	194	10	10000	1	1	0	1	0
54	195	10	10000	1	1	0	1	0
51	196	10	10000	1	1	0	1	0
50	197	10	10000	1	1	0	1	0
49	198	10	10000	1	1	0	1	0
51	199	10	10000	1	1	0	1	0
50	200	10	10000	1	1	0	1	0
51	201	10	10000	1	1	0	1	0
50	201	10	10000	1	1	0	1	0
49	202	10	10000	1	1	0	1	0
47	204	10	10000	1	1	0	1	0
50	205	10	10000	1	1	0	1	0
56	206	10	10000	1	1	0	1	0
59	207	10	10000	1	1	0	1	0
60	208	10	10000	1	1	0	1	0
58	209	10	10000	1	1	0	1	0
57	210	10	10000	1	1	0	1	0
56	211	10	10000	1	1	0	1	0
55	211	10	10000	1	1	0	1	0
54	212	10	10000	1	1	0	1	0
52	214	10	10000	1	1	0	1	0
52	215	10	10000	1	1	0	1	0
50	216	10	10000	1	1	0	1	0
49	217	10	10000	1	1	0	1	0
52	218	10	10000	1	1	0	1	0
58	219	10	10000	1	1	0	1	0
63	220	10	10000	1	1	0	1	0
67	221	10	10000	1	1	0	1	0
66	222	10	10000	1	1	0	1	0
65	223	10	10000	1	1	0	1	0
63	224	10	10000	1	1	0	1	0
62	225	10	10000	1	1	0	1	0
62	226	10	10000	1	1	0	1	0
65	227	10	10000	1	1	0	1	0
65	228	10	10000	1	1	0	1	0
65	229	10	10000	1	1	0	1	0
61	230	10	10000	1	1	0	1	0
60	231	10	10000	1	1	0	1	0
61	231	10	10000	1	1	0	1	0
62	232	10	10000	1	1	0	1	0
61	234	10	10000	1	1	0	1	0
59	235	10	10000	1	1	0	1	0
57	236	10	10000	1	1	0	1	0
56	237	10	10000	1	1	0	1	0
56	238	10	10000	1	1	0	1	0
55	239	10	10000	1	1	0	1	0
57	240	10	10000	1	1	0	1	0
60	241	10	10000	1	1	0	1	0
62	241	10	10000	1	1	0	1	0
62	242	10	10000	1	1	0	1	0
63	244	10	10000	1	1	0	1	0
64	245	10	10000	1	1	0	1	0
64	246	10	10000	1	1	0	1	0
63	247	10	10000	1	1	0	1	0
61	248	10	10000	1	1	0	1	0
60	249	10	10000	1	1	0	1	0
58	250	10	10000	1	1	0	1	0
57	251	10	10000	1	1	0	1	0
58	251	10	10000	1	1	0	1	0
58	252	10	10000	1	1	0	1	0
58	254	10	10000	1	1	0	1	0
57	255	10	10000	1	1	0	1	0
55	256	10	10000	1	1	0	1	0
55	257	10	10000	1	1	0	1	0
55	258	10	10000	1	1	0	1	0
55	259	10	10000	1	1	0	1	0
57	260	10	10000	1	1	0	1	0
56	261	10	10000	1	1	0	1	0
56	261	10	10000	1	1	0	1	0
54	262	10	10000	1	1	0	1	0
54	264	10	10000	1	1	0	1	0
55	265	10	10000	1	1	0	1	0
58	266	10	10000	1	1	0	1	0
62	267	10	10000	1	1	0	1	0
60	268	10	10000	1	1	0	1	0
59	269	10	10000	1	1	0	1	0
58	270	10	10000	1	1	0	1	0
56	271	10	10000	1	1	0	1	0
57	271	10	10000	1	1	0	1	0
58	272	10	10000	1	1	0	1	0
59	274	10	10000	1	1	0	1	0
61	275	10	10000	1	1	0	1	0
58	276	10	10000	1	1	0	1	0
60	277	10	10000	1	1	0	1	0
59	278	10	10000	1	1	0	1	0
59	279	10	10000	1	1	0	1	0
57	280	10	10000	1	1	0	1	0
57	281	10	10000	1	1	0	1	0
57	282	10	10000	1	1	0	1	0
56	283	10	10000	1	1	0	1	0
55	284	10	10000	1	1	0	1	0
54	285	10	10000	1	1	0	1	0
56	286	10	10000	1	1	0	1	0
53	287	10	10000	1	1	0	1	0
56	288	10	10000	1	1	0	1	0
56	289	10	10000	1	1	0	1	0
58	290	10	10000	1	1	0	1	0
61	291	10	10000	1	1	0	1	0
66	291	10	10000	1	1	0	1	0
75	292	10	10000	1	1	0	1	0
81	294	10	10000	1	1	0	1	0
88	295	10	10000	1	1	0	1	0
89	296	10	10000	1	1	0	1	0
88	297	10	10000	1	1	0	1	0
87	298	10	10000	1	1	0	1	0
83	299	10	10000	1	1	0	1	0
81	300	10	10000	1	1	0	1	0
80	301	10	10000	1	1	0	1	0
79	301	10	10000	1	1	0	1	0
76	302	10	10000	1	1	0	1	0
74	304	10	10000	1	1	0	1	0
72	305	10	10000	1	1	0	1	0
72	306	10	10000	1	1	0	1	0
71	307	10	10000	1	1	0	1	0
70	308	10	10000	1	1	0	1	0
72	309	10	10000	1	1	0	1	0
73	310	10	10000	1	1	0	1	0
73	311	10	10000	1	1	0	1	0
75	311	10	10000	1	1	0	1	0
74	312	10	10000	1	1	0	1	0
75	314	10	10000	1	1	0	1	0
73	315	10	10000	1	1	0	1	0
70	316	10	10000	1	1	0	1	0
68	317	10	10000	1	1	0	1	0
67	318	10	10000	1	1	0	1	0
65	319	10	10000	1	1	0	1	0
63	320	10	10000	1	1	0	1	0
62	321	10	10000	1	1	0	1	0
61	322	10	10000	1	1	0	1	0
60	323	10	10000	1	1	0	1	0
58	324	10	10000	1	1	0	1	0
59	325	10	10000	1	1	0	1	0
65	326	10	10000	1	1	0	1	0
67	327	10	10000	1	1	0	1	0
67	328	10	10000	1	1	0	1	0
64	329	10	10000	1	1	0	1	0
64	330	10	10000	1	1	0	1	0
62	331	10	10000	1	1	0	1	0
61	332	10	10000	1	1	0	1	0
61	333	10	10000	1	1	0	1	0
62	334	10	10000	1	1	0	1	0
61	335	10	10000	1	1	0	1	0
60	336	10	10000	1	1	0	1	0
57	337	10	10000	1	1	0	1	0
56	338	10	10000	1	1	0	1	0
56	339	10	10000	1	1	0	1	0
54	340	10	10000	1	1	0	1	0
54	341	10	10000	1	1	0	1	0
54	342	10	10000	1	1	0	1	0
51	343	10	10000	1	1	0	1	0
52	344	10	10000	1	1	0	1	0
51	345	10	10000	1	1	0	1	0
52	346	10	10000	1	1	0	1	0
51	347	10	10000	1	1	0	1	0
51	348	10	10000	1	1	0	1	0
48	349	10	10000	1	1	0	1	0
49	350	10	10000	1	1	0	1	0
48	351	10	10000	1	1	0	1	0
48	351	10	10000	1	1	0	1	0
47	352	10	10000	1	1	0	1	0
49	354	10	10000	1	1	0	1	0
47	355	10	10000	1	1	0	1	0
46	356	10	10000	1	1	0	1	0
45	357	10	10000	1	1	0	1	0
46	358	10	10000	1	1	0	1	0
47	359	10	10000	1	1	0	1	0
50	360	10	10000	1	1	0	1	0
49	361	10	10000	1	1	0	1	0
49	362	10	10000	1	1	0	1	0
51	363	10	10000	1	1	0	1	0
54	364	10	10000	1	1	0	1	0
54	365	10	10000	1	1	0	1	0
58	366	10	10000	1	1	0	1	0
57	367	10	10000	1	1	0	1	0
55	368	10	10000	1	1	0	1	0
56	369	10	10000	1	1	0	1	0
58	370	10	10000	1	1	0	1	0
56	371	10	10000	1	1	0	1	0
55	371	10	10000	1	1	0	1	0
56	372	10	10000	1	1	0	1	0
56	374	10	10000	1	1	0	1	0
57	375	10	10000	1	1	0	1	0
56	376	10	10000	1	1	0	1	0
56	377	10	10000	1	1	0	1	0
54	378	10	10000	1	1	0	1	0
55	379	10	10000	1	1	0	1	0
53	380	10	10000	1	1	0	1	0
53	381	10	10000	1	1	0	1	0
54	381	10	10000	1	1	0	1	0
51	382	10	10000	1	1	0	1	0
51	384	10	10000	1	1	0	1	0
49	385	10	10000	1	1	0	1	0
52	386	10	10000	1	1	0	1	0
56	387	10	10000	1	1	0	1	0
57	388	10	10000	1	1	0	1	0
56	389	10	10000	1	1	0	1	0
55	390	10	10000	1	1	0	1	0
55	391	10	10000	1	1	0	1	0
54	391	10	10000	1	1	0	1	0
54	392	10	10000	1	1	0	1	0
55	394	10	10000	1	1	0	1	0
53	395	10	10000	1	1	0	1	0
51	396	10	10000	1	1	0	1	0
49	397	10	10000	1	1	0	1	0
49	398	10	10000	1	1	0	1	0
49	399	10	10000	1	1	0	1	0
48	400	10	10000	1	1	0	1	0
48	401	10	10000	1	1	0	1	0
47	402	10	10000	1	1	0	1	0
46	403	10	10000	1	1	0	1	0
45	404	10	10000	1	1	0	1	0
48	405	10	10000	1	1	0	1	0
50	406	10	10000	1	1	0	1	0
52	407	10	10000	1	1	0	1	0
50	408	10	10000	1	1	0	1	0
49	409	10	10000	1	1	0	1	0
49	410	10	10000	1	1	0	1	0
47	411	10	10000	1	1	0	1	0
46	412	10	10000	1	1	0	1	0
47	413	10	10000	1	1	0	1	0
46	414	10	10000	1	1	0	1	0
48	415	10	10000	1	1	0	1	0
45	416	10	10000	1	1	0	1	0
44	417	10	10000	1	1	0	1	0
46	418	10	10000	1	1	0	1	0
48	419	10	10000	1	1	0	1	0
47	420	10	10000	1	1	0	1	0
52	421	10	10000	1	1	0	1	0
55	422	10	10000	1	1	0	1	0
57	423	10	10000	1	1	0	1	0
56	424	10	10000	1	1	0	1	0
56	425	10	10000	1	1	0	1	0
57	426	10	10000	1	1	0	1	0
60	427	10	10000	1	1	0	1	0
58	428	10	10000	1	1	0	1	0
58	429	10	10000	1	1	0	1	0
57	430	10	10000	1	1	0	1	0
56	431	10	10000	1	1	0	1	0
56	431	10	10000	1	1	0	1	0
55	432	10	10000	1	1	0	1	0
55	434	10	10000	1	1	0	1	0
56	435	10	10000	1	1	0	1	0
56	436	10	10000	1	1	0	1	0
56	437	10	10000	1	1	0	1	0
56	438	10	10000	1	1	0	1	0
55	439	10	10000	1	1	0	1	0
54	440	10	10000	1	1	0	1	0
53	441	10	10000	1	1	0	1	0
51	442	10	10000	1	1	0	1	0
51	443	10	10000	1	1	0	1	0
49	444	10	10000	1	1	0	1	0
49	445	10	10000	1	1	0	1	0
51	446	10	10000	1	1	0	1	0
50	447	10	10000	1	1	0	1	0
50	448	10	10000	1	1	0	1	0
48	449	10	10000	1	1	0	1	0
47	450	10	10000	1	1	0	1	0
47	451	10	10000	1	1	0	1	0
45	451	10	10000	1	1	0	1	0
46	452	10	10000	1	1	0	1	0
48	454	10	10000	1	1	0	1	0
47	455	10	10000	1	1	0	1	0
47	456	10	10000	1	1	0	1	0
46	457	10	10000	1	1	0	1	0
46	458	10	10000	1	1	0	1	0
46	459	10	10000	1	1	0	1	0
45	460	10	10000	1	1	0	1	0
44	461	10	10000	1	1	0	1	0
44	461	10	10000	1	1	0	1	0
43	462	10	10000	1	1	0	1	0
42	464	10	10000	1	1	0	1	0
42	465	10	10000	1	1	0	1	0
44	466	10	10000	1	1	0	1	0
43	467	10	10000	1	1	0	1	0
42	468	10	10000	1	1	0	1	0
42	469	10	10000	1	1	0	1	0
42	470	10	10000	1	1	0	1	0
40	471	10	10000	1	1	0	1	0
41	471	10	10000	1	1	0	1	0
41	472	10	10000	1	1	0	1	0
41	474	10	10000	1	1	0	1	0
42	475	10	10000	1	1	0	1	0
41	476	10	10000	1	1	0	1	0
41	477	10	10000	1	1	0	1	0
41	478	10	10000	1	1	0	1	0
41	479	10	10000	1	1	0	1	0
41	480	10	10000	1	1	0	1	0
40	481	10	10000	1	1	0	1	0
41	481	10	10000	1	1	0	1	0
40	482	10	10000	1	1	0	1	0
39	484	10	10000	1	1	0	1	0
39	485	10	10000	1	1	0	1	0
42	486	10	10000	1	1	0	1	0
43	487	10	10000	1	1	0	1	0
47	488	10	10000	1	1	0	1	0
47	489	10	10000	1	1	0	1	0
49	490	10	10000	1	1	0	1	0
49	491	10	10000	1	1	0	1	0
50	492	10	10000	1	1	0	1	0
50	493	10	10000	1	1	0	1	0
49	494	10	10000	1	1	0	1	0
50	495	10	10000	1	1	0	1	0
49	496	10	10000	1	1	0	1	0
49	497	10	10000	1	1	0	1	0
55	498	10	10000	1	1	0	1	0
58	499	10	10000	1	1	0	1	0
61	500	10	10000	1	1	0	1	0
64	501	10	10000	1	1	0	1	0
64	547	10	10000	1	1	0	1	1
62	548	10	10000	1	1	0	1	1
60	549	10	10000	1	1	0	1	1
61	550	10	10000	1	1	0	1	1
61	551	10	10000	1	1	0	1	1
58	552	10	10000	1	1	0	1	1
59	553	10	10000	1	1	0	1	1
57	554	10	10000	1	1	0	1	1
56	555	10	10000	1	1	0	1	1
56	556	10	10000	1	1	0	1	1
59	557	10	10000	1	1	0	1	1
59	558	10	10000	1	1	0	1	1
59	559	10	10000	1	1	0	1	1
59	560	10	10000	1	1	0	1	1
56	561	10	10000	1	1	0	1	1
55	562	10	10000	1	1	0	1	1
53	563	10	10000	1	1	0	1	1
56	564	10	10000	1	1	0	1	1
57	565	10	10000	1	1	0	1	1
58	566	10	10000	1	1	0	1	1
57	567	10	10000	1	1	0	1	1
56	568	10	10000	1	1	0	1	1
53	569	10	10000	1	1	0	1	1
53	570	10	10000	1	1	0	1	1
53	571	10	10000	1	1	0	1	1
53	572	10	10000	1	1	0	1	1
54	573	10	10000	1	1	0	1	1
52	574	10	10000	1	1	0	1	1
55	575	10	10000	1	1	0	1	1
54	576	10	10000	1	1	0	1	1
55	577	10	10000	1	1	0	1	1
54	578	10	10000	1	1	0	1	1
55	579	10	10000	1	1	0	1	1
57	580	10	10000	1	1	0	1	1
59	581	10	10000	1	1	0	1	1
57	582	10	10000	1	1	0	1	1
57	583	10	10000	1	1	0	1	1
57	584	10	10000	1	1	0	1	1
56	585	10	10000	1	1	0	1	1
56	586	10	10000	1	1	0	1	1
57	587	10	10000	1	1	0	1	1
56	588	10	10000	1	1	0	1	1
56	589	10	10000	1	1	0	1	1
54	590	10	10000	1	1	0	1	1
55	591	10	10000	1	1	0	1	1
55	592	10	10000	1	1	0	1	1
58	593	10	10000	1	1	0	1	1
55	594	10	10000	1	1	0	1	1
55	554	10	10000	1	1	0	1	1
54	555	10	10000	1	1	0	1	1
53	556	10	10000	1	1	0	1	1
53	557	10	10000	1	1	0	1	1
53	558	10	10000	1	1	0	1	1
54	559	10	10000	1	1	0	1	1
51	555	10	10000	1	1	0	1	0
49	556	10	10000	1	1	0	1	0
49	558	10	10000	1	1	0	1	0
49	559	10	10000	1	1	0	1	0
49	560	10	10000	1	1	0	1	0
50	561	10	10000	1	1	0	1	0
50	562	10	10000	1	1	0	1	0
49	563	10	10000	1	1	0	1	0
48	564	10	10000	1	1	0	1	0
46	565	10	10000	1	1	0	1	0
49	566	10	10000	1	1	0	1	0
47	567	10	10000	1	1	0	1	0
48	568	10	10000	1	1	0	1	0
48	569	10	10000	1	1	0	1	0
46	570	10	10000	1	1	0	1	0
47	571	10	10000	1	1	0	1	0
45	572	10	10000	1	1	0	1	0
45	573	10	10000	1	1	0	1	0
44	574	10	10000	1	1	0	1	0
46	575	10	10000	1	1	0	1	0
43	576	10	10000	1	1	0	1	0
42	577	10	10000	1	1	0	1	0
42	578	10	10000	1	1	0	1	0
43	579	10	10000	1	1	0	1	0
42	580	10	10000	1	1	0	1	0
42	581	10	10000	1	1	0	1	0
42	581	10	10000	1	1	0	1	0
42	582	10	10000	1	1	0	1	0
42	584	10	10000	1	1	0	1	0
40	585	10	10000	1	1	0	1	0
42	586	10	10000	1	1	0	1	0
42	587	10	10000	1	1	0	1	0
41	588	10	10000	1	1	0	1	0
41	589	10	10000	1	1	0	1	0
40	590	10	10000	1	1	0	1	0
42	591	10	10000	1	1	0	1	0
41	591	10	10000	1	1	0	1	0
40	592	10	10000	1	1	0	1	0
42	594	10	10000	1	1	0	1	0
41	595	10	10000	1	1	0	1	0
40	596	10	10000	1	1	0	1	0
39	597	10	10000	1	1	0	1	0
40	598	10	10000	1	1	0	1	0
40	599	10	10000	1	1	0	1	0
41	600	10	10000	1	1	0	1	0
41	601	10	10000	1	1	0	1	0
40	601	10	10000	1	1	0	1	0
40	602	10	10000	1	1	0	1	0
40	604	10	10000	1	1	0	1	0
39	605	10	10000	1	1	0	1	0
40	606	10	10000	1	1	0	1	0
41	607	10	10000	1	1	0	1	0
43	608	10	10000	1	1	0	1	0
44	609	10	10000	1	1	0	1	0
44	610	10	10000	1	1	0	1	0
44	611	10	10000	1	1	0	1	0
44	611	10	10000	1	1	0	1	0
45	612	10	10000	1	1	0	1	0
48	614	10	10000	1	1	0	1	0
50	615	10	10000	1	1	0	1	0
49	616	10	10000	1	1	0	1	0
51	617	10	10000	1	1	0	1	0
51	618	10	10000	1	1	0	1	0
51	619	10	10000	1	1	0	1	0
50	620	10	10000	1	1	0	1	0
52	621	10	10000	1	1	0	1	0
57	622	10	10000	1	1	0	1	0
57	623	10	10000	1	1	0	1	0
57	624	10	10000	1	1	0	1	0
59	625	10	10000	1	1	0	1	0
63	626	10	10000	1	1	0	1	0
67	627	10	10000	1	1	0	1	0
72	628	10	10000	1	1	0	1	0
73	629	10	10000	1	1	0	1	0
74	630	10	10000	1	1	0	1	0
72	631	10	10000	1	1	0	1	0
70	631	10	10000	1	1	0	1	0
70	632	10	10000	1	1	0	1	0
68	634	10	10000	1	1	0	1	0
68	635	10	10000	1	1	0	1	0
65	636	10	10000	1	1	0	1	0
65	637	10	10000	1	1	0	1	0
64	638	10	10000	1	1	0	1	0
62	639	10	10000	1	1	0	1	0
65	640	10	10000	1	1	0	1	0
63	641	10	10000	1	1	0	1	0
63	641	10	10000	1	1	0	1	0
62	642	10	10000	1	1	0	1	0
63	644	10	10000	1	1	0	1	0
63	645	10	10000	1	1	0	1	0
68	646	10	10000	1	1	0	1	0
69	647	10	10000	1	1	0	1	0
69	648	10	10000	1	1	0	1	0
68	649	10	10000	1	1	0	1	0
67	650	10	10000	1	1	0	1	0
66	651	10	10000	1	1	0	1	0
64	651	10	10000	1	1	0	1	0
66	652	10	10000	1	1	0	1	0
67	654	10	10000	1	1	0	1	0
67	655	10	10000	1	1	0	1	0
67	656	10	10000	1	1	0	1	0
65	657	10	10000	1	1	0	1	0
67	658	10	10000	1	1	0	1	0
68	659	10	10000	1	1	0	1	0
67	660	10	10000	1	1	0	1	0
66	661	10	10000	1	1	0	1	0
64	662	10	10000	1	1	0	1	0
63	663	10	10000	1	1	0	1	0
62	664	10	10000	1	1	0	1	0
66	665	10	10000	1	1	0	1	0
70	666	10	10000	1	1	0	1	0
71	667	10	10000	1	1	0	1	0
70	668	10	10000	1	1	0	1	0
69	669	10	10000	1	1	0	1	0
69	670	10	10000	1	1	0	1	0
68	671	10	10000	1	1	0	1	0
68	671	10	10000	1	1	0	1	0
67	672	10	10000	1	1	0	1	0
66	674	10	10000	1	1	0	1	0
67	675	10	10000	1	1	0	1	0
71	676	10	10000	1	1	0	1	0
70	677	10	10000	1	1	0	1	0
70	678	10	10000	1	1	0	1	0
68	679	10	10000	1	1	0	1	0
66	680	10	10000	1	1	0	1	0
68	681	10	10000	1	1	0	1	0
66	681	10	10000	1	1	0	1	0
64	682	10	10000	1	1	0	1	0
64	684	10	10000	1	1	0	1	0
63	685	10	10000	1	1	0	1	0
66	686	10	10000	1	1	0	1	0
63	687	10	10000	1	1	0	1	0
66	688	10	10000	1	1	0	1	0
65	689	10	10000	1	1	0	1	0
66	690	10	10000	1	1	0	1	0
68	691	10	10000	1	1	0	1	0
68	691	10	10000	1	1	0	1	0
67	692	10	10000	1	1	0	1	0
67	694	10	10000	1	1	0	1	0
65	695	10	10000	1	1	0	1	0
62	696	10	10000	1	1	0	1	0
64	697	10	10000	1	1	0	1	0
67	698	10	10000	1	1	0	1	0
69	699	10	10000	1	1	0	1	0
68	700	10	10000	1	1	0	1	0
71	701	10	10000	1	1	0	1	0
72	701	10	10000	1	1	0	1	0
71	702	10	10000	1	1	0	1	0
69	704	10	10000	1	1	0	1	0
67	705	10	10000	1	1	0	1	0
68	706	10	10000	1	1	0	1	0
65	707	10	10000	1	1	0	1	0
65	708	10	10000	1	1	0	1	0
66	709	10	10000	1	1	0	1	0
63	710	10	10000	1	1	0	1	0
63	711	10	10000	1	1	0	1	0
64	711	10	10000	1	1	0	1	0
68	712	10	10000	1	1	0	1	0
66	714	10	10000	1	1	0	1	0
66	715	10	10000	1	1	0	1	0
64	716	10	10000	1	1	0	1	0
65	717	10	10000	1	1	0	1	0
66	718	10	10000	1	1	0	1	0
72	719	10	10000	1	1	0	1	0
73	720	10	10000	1	1	0	1	0
74	721	10	10000	1	1	0	1	0
74	721	10	10000	1	1	0	1	0
72	722	10	10000	1	1	0	1	0
71	724	10	10000	1	1	0	1	0
68	725	10	10000	1	1	0	1	0
72	726	10	10000	1	1	0	1	0
78	727	10	10000	1	1	0	1	0
83	728	10	10000	1	1	0	1	0
82	729	10	10000	1	1	0	1	0
79	730	10	10000	1	1	0	1	0
78	731	10	10000	1	1	0	1	0
80	731	10	10000	1	1	0	1	0
87	732	10	10000	1	1	0	1	0
95	734	10	10000	1	1	0	1	0
99	735	10	10000	1	1	0	1	0
95	736	10	10000	1	1	0	1	0
96	737	10	10000	1	1	0	1	0
96	738	10	10000	1	1	0	1	0
95	739	10	10000	1	1	0	1	0
91	740	10	10000	1	1	0	1	0
90	741	10	10000	1	1	0	1	0
88	742	10	10000	1	1	0	1	0
88	743	10	10000	1	1	0	1	0
84	744	10	10000	1	1	0	1	0
83	745	10	10000	1	1	0	1	0
84	746	10	10000	1	1	0	1	0
86	747	10	10000	1	1	0	1	0
84	748	10	10000	1	1	0	1	0
85	749	10	10000	1	1	0	1	0
85	750	10	10000	1	1	0	1	0
86	751	10	10000	1	1	0	1	0
90	751	10	10000	1	1	0	1	0
89	752	10	10000	1	1	0	1	0
87	754	10	10000	1	1	0	1	0
85	755	10	10000	1	1	0	1	0
81	756	10	10000	1	1	0	1	0
80	757	10	10000	1	1	0	1	0
78	758	10	10000	1	1	0	1	0
78	759	10	10000	1	1	0	1	0
75	760	10	10000	1	1	0	1	0
73	761	10	10000	1	1	0	1	0
72	761	10	10000	1	1	0	1	0
69	762	10	10000	1	1	0	1	0
67	764	10	10000	1	1	0	1	0
68	765	10	10000	1	1	0	1	0
71	766	10	10000	1	1	0	1	0
70	767	10	10000	1	1	0	1	0
70	768	10	10000	1	1	0	1	0
68	769	10	10000	1	1	0	1	0
71	770	10	10000	1	1	0	1	0
72	771	10	10000	1	1	0	1	0
73	771	10	10000	1	1	0	1	0
80	772	10	10000	1	1	0	1	0
85	774	10	10000	1	1	0	1	0
90	775	10	10000	1	1	0	1	0
92	776	10	10000	1	1	0	1	0
94	777	10	10000	1	1	0	1	0
92	778	10	10000	1	1	0	1	0
91	779	10	10000	1	1	0	1	0
90	780	10	10000	1	1	0	1	0
91	781	10	10000	1	1	0	1	0
92	781	10	10000	1	1	0	1	0
92	782	10	10000	1	1	0	1	0
94	784	10	10000	1	1	0	1	0
92	785	10	10000	1	1	0	1	0
95	786	10	10000	1	1	0	1	0
99	787	10	10000	1	1	0	1	0
100	788	10	10000	1	1	0	1	0
99	789	10	10000	1	1	0	1	0
96	790	10	10000	1	1	0	1	0
93	791	10	10000	1	1	0	1	0
91	791	10	10000	1	1	0	1	0
89	792	10	10000	1	1	0	1	0
86	794	10	10000	1	1	0	1	0
88	795	10	10000	1	1	0	1	0
85	796	10	10000	1	1	0	1	0
85	797	10	10000	1	1	0	1	0
85	798	10	10000	1	1	0	1	0
83	799	10	10000	1	1	0	1	0
79	800	10	10000	1	1	0	1	0
79	801	10	10000	1	1	0	1	0
79	801	10	10000	1	1	0	1	0
78	802	10	10000	1	1	0	1	0
77	804	10	10000	1	1	0	1	0
74	805	10	10000	1	1	0	1	0
75	806	10	10000	1	1	0	1	0
75	807	10	10000	1	1	0	1	0
76	808	10	10000	1	1	0	1	0
77	809	10	10000	1	1	0	1	0
77	810	10	10000	1	1	0	1	0
75	811	10	10000	1	1	0	1	0
73	811	10	10000	1	1	0	1	0
74	812	10	10000	1	1	0	1	0
76	814	10	10000	1	1	0	1	0
81	815	10	10000	1	1	0	1	0
78	816	10	10000	1	1	0	1	0
76	817	10	10000	1	1	0	1	0
75	818	10	10000	1	1	0	1	0
75	819	10	10000	1	1	0	1	0
75	820	10	10000	1	1	0	1	0
79	821	10	10000	1	1	0	1	0
79	821	10	10000	1	1	0	1	0
77	822	10	10000	1	1	0	1	0
76	824	10	10000	1	1	0	1	0
74	825	10	10000	1	1	0	1	0
74	826	10	10000	1	1	0	1	0
74	827	10	10000	1	1	0	1	0
76	828	10	10000	1	1	0	1	0
78	829	10	10000	1	1	0	1	0
86	830	10	10000	1	1	0	1	0
93	831	10	10000	1	1	0	1	0
92	831	10	10000	1	1	0	1	0
91	832	10	10000	1	1	0	1	0
93	834	10	10000	1	1	0	1	0
91	835	10	10000	1	1	0	1	0
87	836	10	10000	1	1	0	1	0
86	837	10	10000	1	1	0	1	0
87	838	10	10000	1	1	0	1	0
85	839	10	10000	1	1	0	1	0
82	840	10	10000	1	1	0	1	0
80	841	10	10000	1	1	0	1	0
79	841	10	10000	1	1	0	1	0
76	842	10	10000	1	1	0	1	0
76	844	10	10000	1	1	0	1	0
74	845	10	10000	1	1	0	1	0
75	846	10	10000	1	1	0	1	0
73	847	10	10000	1	1	0	1	0
70	848	10	10000	1	1	0	1	0
69	849	10	10000	1	1	0	1	0
69	850	10	10000	1	1	0	1	0
71	851	10	10000	1	1	0	1	0
69	851	10	10000	1	1	0	1	0
67	852	10	10000	1	1	0	1	0
66	854	10	10000	1	1	0	1	0
66	855	10	10000	1	1	0	1	0
62	856	10	10000	1	1	0	1	0
64	857	10	10000	1	1	0	1	0
66	858	10	10000	1	1	0	1	0
70	859	10	10000	1	1	0	1	0
68	860	10	10000	1	1	0	1	0
67	861	10	10000	1	1	0	1	0
67	861	10	10000	1	1	0	1	0
66	862	10	10000	1	1	0	1	0
67	864	10	10000	1	1	0	1	0
64	865	10	10000	1	1	0	1	0
64	866	10	10000	1	1	0	1	0
63	867	10	10000	1	1	0	1	0
61	868	10	10000	1	1	0	1	0
60	869	10	10000	1	1	0	1	0
62	870	10	10000	1	1	0	1	0
66	871	10	10000	1	1	0	1	0
70	871	10	10000	1	1	0	1	0
67	872	10	10000	1	1	0	1	0
67	874	10	10000	1	1	0	1	0
66	875	10	10000	1	1	0	1	0
63	876	10	10000	1	1	0	1	0
62	877	10	10000	1	1	0	1	0
62	878	10	10000	1	1	0	1	0
60	879	10	10000	1	1	0	1	0
62	880	10	10000	1	1	0	1	0
60	881	10	10000	1	1	0	1	0
60	881	10	10000	1	1	0	1	0
59	882	10	10000	1	1	0	1	0
58	884	10	10000	1	1	0	1	0
60	885	10	10000	1	1	0	1	0
67	886	10	10000	1	1	0	1	0
67	887	10	10000	1	1	0	1	0
67	888	10	10000	1	1	0	1	0
66	889	10	10000	1	1	0	1	0
71	890	10	10000	1	1	0	1	0
74	891	10	10000	1	1	0	1	0
76	891	10	10000	1	1	0	1	0
74	892	10	10000	1	1	0	1	0
73	894	10	10000	1	1	0	1	0
72	895	10	10000	1	1	0	1	0
68	896	10	10000	1	1	0	1	0
66	897	10	10000	1	1	0	1	0
66	898	10	10000	1	1	0	1	0
64	899	10	10000	1	1	0	1	0
64	900	10	10000	1	1	0	1	0
62	901	10	10000	1	1	0	1	0
63	901	10	10000	1	1	0	1	0
61	902	10	10000	1	1	0	1	0
60	904	10	10000	1	1	0	1	0
58	905	10	10000	1	1	0	1	0
62	906	10	10000	1	1	0	1	0
61	907	10	10000	1	1	0	1	0
58	908	10	10000	1	1	0	1	0
58	909	10	10000	1	1	0	1	0
57	910	10	10000	1	1	0	1	0
58	911	10	10000	1	1	0	1	0
57	911	10	10000	1	1	0	1	0
56	912	10	10000	1	1	0	1	0
56	914	10	10000	1	1	0	1	0
54	915	10	10000	1	1	0	1	0
52	916	10	10000	1	1	0	1	0
51	917	10	10000	1	1	0	1	0
51	918	10	10000	1	1	0	1	0
50	919	10	10000	1	1	0	1	0
49	920	10	10000	1	1	0	1	0
50	921	10	10000	1	1	0	1	0
53	921	10	10000	1	1	0	1	0
57	922	10	10000	1	1	0	1	0
54	924	10	10000	1	1	0	1	0
54	925	10	10000	1	1	0	1	0
58	926	10	10000	1	1	0	1	0
57	927	10	10000	1	1	0	1	0
57	928	10	10000	1	1	0	1	0
56	929	10	10000	1	1	0	1	0
58	930	10	10000	1	1	0	1	0
58	931	10	10000	1	1	0	1	0
59	931	10	10000	1	1	0	1	0
60	932	10	10000	1	1	0	1	0
61	934	10	10000	1	1	0	1	0
59	935	10	10000	1	1	0	1	0
57	936	10	10000	1	1	0	1	0
56	937	10	10000	1	1	0	1	0
54	938	10	10000	1	1	0	1	0
55	939	10	10000	1	1	0	1	0
54	940	10	10000	1	1	0	1	0
53	941	10	10000	1	1	0	1	0
52	941	10	10000	1	1	0	1	0
53	942	10	10000	1	1	0	1	0
51	944	10	10000	1	1	0	1	0
52	945	10	10000	1	1	0	1	0
53	946	10	10000	1	1	0	1	0
53	947	10	10000	1	1	0	1	0
51	948	10	10000	1	1	0	1	0
51	949	10	10000	1	1	0	1	0
50	950	10	10000	1	1	0	1	0
50	951	10	10000	1	1	0	1	0
49	951	10	10000	1	1	0	1	0
52	952	10	10000	1	1	0	1	0
55	954	10	10000	1	1	0	1	0
59	955	10	10000	1	1	0	1	0
67	956	10	10000	1	1	0	1	0
73	957	10	10000	1	1	0	1	0
75	958	10	10000	1	1	0	1	0
77	959	10	10000	1	1	0	1	0
80	960	10	10000	1	1	0	1	0
82	961	10	10000	1	1	0	1	0
84	961	10	10000	1	1	0	1	0
82	962	10	10000	1	1	0	1	0
79	964	10	10000	1	1	0	1	0
79	965	10	10000	1	1	0	1	0
79	966	10	10000	1	1	0	1	0
76	967	10	10000	1	1	0	1	0
74	968	10	10000	1	1	0	1	0
72	969	10	10000	1	1	0	1	0
71	970	10	10000	1	1	0	1	0
68	971	10	10000	1	1	0	1	0
68	971	10	10000	1	1	0	1	0
67	972	10	10000	1	1	0	1	0
65	974	10	10000	1	1	0	1	0
65	975	10	10000	1	1	0	1	0
61	976	10	10000	1	1	0	1	0
62	977	10	10000	1	1	0	1	0
61	978	10	10000	1	1	0	1	0
62	979	10	10000	1	1	0	1	0
64	980	10	10000	1	1	0	1	0
61	981	10	10000	1	1	0	1	0
61	981	10	10000	1	1	0	1	0
62	982	10	10000	1	1	0	1	0
67	984	10	10000	1	1	0	1	0
71	985	10	10000	1	1	0	1	0
80	986	10	10000	1	1	0	1	0
82	987	10	10000	1	1	0	1	0
82	988	10	10000	1	1	0	1	0
80	989	10	10000	1	1	0	1	0
82	990	10	10000	1	1	0	1	0
84	991	10	10000	1	1	0	1	0
88	991	10	10000	1	1	0	1	0
93	992	10	10000	1	1	0	1	0
94	994	10	10000	1	1	0	1	0
93	995	10	10000	1	1	0	1	0
89	996	10	10000	1	1	0	1	0
85	997	10	10000	1	1	0	1	0
84	998	10	10000	1	1	0	1	0
81	999	10	10000	1	1	0	1	0
78	1000	10	10000	1	1	0	1	0
77	1001	10	10000	1	1	0	1	0
153	1	1	10000	2	1	0	2	0
150	2	1	10000	2	1	0	2	0
151	3	1	10000	2	1	0	2	0
154	4	1	10000	2	1	0	2	0
150	5	1	10000	2	1	0	2	0
143	6	1	10000	2	1	0	2	0
137	7	1	10000	2	1	0	2	0
134	8	1	10000	2	1	0	2	0
137	9	1	10000	2	1	0	2	0
151	10	1	10000	2	1	0	2	0
162	11	1	10000	2	1	0	2	0
162	12	1	10000	2	1	0	2	0
156	13	1	10000	2	1	0	2	0
152	14	1	10000	2	1	0	2	0
147	15	1	10000	2	1	0	2	0
141	16	1	10000	2	1	0	2	0
140	17	1	10000	2	1	0	2	0
138	18	1	10000	2	1	0	2	0
137	19	1	10000	2	1	0	2	0
142	20	1	10000	2	1	0	2	0
148	21	1	10000	2	1	0	2	0
148	22	1	10000	2	1	0	2	0
142	23	1	10000	2	1	0	2	0
142	24	1	10000	2	1	0	2	0
139	25	1	10000	2	1	0	2	0
138	26	1	10000	2	1	0	2	0
139	27	1	10000	2	1	0	2	0
139	28	1	10000	2	1	0	2	0
136	29	1	10000	2	1	0	2	0
136	30	1	10000	2	1	0	2	0
130	31	1	10000	2	1	0	2	0
131	32	1	10000	2	1	0	2	0
129	33	1	10000	2	1	0	2	0
126	34	1	10000	2	1	0	2	0
121	35	1	10000	2	1	0	2	0
117	36	1	10000	2	1	0	2	0
114	37	1	10000	2	1	0	2	0
113	38	1	10000	2	1	0	2	0
122	39	1	10000	2	1	0	2	0
138	40	1	10000	2	1	0	2	0
147	41	1	10000	2	1	0	2	0
144	42	1	10000	2	1	0	2	0
141	43	1	10000	2	1	0	2	0
141	44	1	10000	2	1	0	2	0
144	45	1	10000	2	1	0	2	0
140	46	1	10000	2	1	0	2	0
140	47	1	10000	2	1	0	2	0
141	48	1	10000	2	1	0	2	0
143	49	1	10000	2	1	0	2	0
142	50	1	10000	2	1	0	2	0
139	51	1	10000	2	1	0	2	0
137	52	1	10000	2	1	0	2	0
134	53	1	10000	2	1	0	2	0
137	54	1	10000	2	1	0	2	0
159	55	1	10000	2	1	0	2	0
183	56	1	10000	2	1	0	2	0
188	57	1	10000	2	1	0	2	0
183	58	1	10000	2	1	0	2	0
181	59	1	10000	2	1	0	2	0
183	60	1	10000	2	1	0	2	0
186	61	1	10000	2	1	0	2	0
187	62	1	10000	2	1	0	2	0
184	63	1	10000	2	1	0	2	0
186	64	1	10000	2	1	0	2	0
189	65	1	10000	2	1	0	2	0
186	66	1	10000	2	1	0	2	0
185	67	1	10000	2	1	0	2	0
180	68	1	10000	2	1	0	2	0
178	69	1	10000	2	1	0	2	0
176	70	1	10000	2	1	0	2	0
176	71	1	10000	2	1	0	2	0
176	72	1	10000	2	1	0	2	0
177	73	1	10000	2	1	0	2	0
175	74	1	10000	2	1	0	2	0
168	75	1	10000	2	1	0	2	0
164	76	1	10000	2	1	0	2	0
164	77	1	10000	2	1	0	2	0
163	78	1	10000	2	1	0	2	0
155	79	1	10000	2	1	0	2	0
150	80	1	10000	2	1	0	2	0
145	81	1	10000	2	1	0	2	0
140	82	1	10000	2	1	0	2	0
134	83	1	10000	2	1	0	2	0
130	84	1	10000	2	1	0	2	0
125	85	1	10000	2	1	0	2	0
124	86	1	10000	2	1	0	2	0
126	87	1	10000	2	1	0	2	0
126	88	1	10000	2	1	0	2	0
129	89	1	10000	2	1	0	2	0
141	90	1	10000	2	1	0	2	0
144	91	1	10000	2	1	0	2	0
139	92	1	10000	2	1	0	2	0
139	93	1	10000	2	1	0	2	0
140	94	1	10000	2	1	0	2	0
134	95	1	10000	2	1	0	2	0
131	96	1	10000	2	1	0	2	0
138	97	1	10000	2	1	0	2	0
140	98	1	10000	2	1	0	2	0
135	99	1	10000	2	1	0	2	0
130	100	1	10000	2	1	0	2	0
132	101	1	10000	2	1	0	2	0
134	102	1	10000	2	1	0	2	0
132	103	1	10000	2	1	0	2	0
130	104	1	10000	2	1	0	2	0
128	105	1	10000	2	1	0	2	0
124	106	1	10000	2	1	0	2	0
123	107	1	10000	2	1	0	2	0
125	108	1	10000	2	1	0	2	0
123	109	1	10000	2	1	0	2	0
121	110	1	10000	2	1	0	2	0
115	111	1	10000	2	1	0	2	0
116	112	1	10000	2	1	0	2	0
114	113	1	10000	2	1	0	2	0
117	114	1	10000	2	1	0	2	0
117	115	1	10000	2	1	0	2	0
122	116	1	10000	2	1	0	2	0
122	117	1	10000	2	1	0	2	0
126	118	1	10000	2	1	0	2	0
132	119	1	10000	2	1	0	2	0
131	120	1	10000	2	1	0	2	0
128	121	1	10000	2	1	0	2	0
129	122	1	10000	2	1	0	2	0
131	123	1	10000	2	1	0	2	0
131	124	1	10000	2	1	0	2	0
131	125	1	10000	2	1	0	2	0
130	126	1	10000	2	1	0	2	0
132	127	1	10000	2	1	0	2	0
129	128	1	10000	2	1	0	2	0
128	129	1	10000	2	1	0	2	0
134	130	1	10000	2	1	0	2	0
147	131	1	10000	2	1	0	2	0
160	132	1	10000	2	1	0	2	0
161	133	1	10000	2	1	0	2	0
155	134	1	10000	2	1	0	2	0
157	135	1	10000	2	1	0	2	0
169	136	1	10000	2	1	0	2	0
177	137	1	10000	2	1	0	2	0
174	138	1	10000	2	1	0	2	0
170	139	1	10000	2	1	0	2	0
168	140	1	10000	2	1	0	2	0
169	141	1	10000	2	1	0	2	0
170	142	1	10000	2	1	0	2	0
174	143	1	10000	2	1	0	2	0
181	144	1	10000	2	1	0	2	0
178	145	1	10000	2	1	0	2	0
172	146	1	10000	2	1	0	2	0
164	147	1	10000	2	1	0	2	0
160	148	1	10000	2	1	0	2	0
158	149	1	10000	2	1	0	2	0
163	150	1	10000	2	1	0	2	0
160	151	1	10000	2	1	0	2	0
159	152	1	10000	2	1	0	2	0
163	153	1	10000	2	1	0	2	0
168	154	1	10000	2	1	0	2	0
166	155	1	10000	2	1	0	2	0
162	156	1	10000	2	1	0	2	0
158	157	1	10000	2	1	0	2	0
155	158	1	10000	2	1	0	2	0
147	159	1	10000	2	1	0	2	0
141	160	1	10000	2	1	0	2	0
137	161	1	10000	2	1	0	2	0
132	162	1	10000	2	1	0	2	0
129	163	1	10000	2	1	0	2	0
128	164	1	10000	2	1	0	2	0
126	165	1	10000	2	1	0	2	0
125	166	1	10000	2	1	0	2	0
120	167	1	10000	2	1	0	2	0
119	168	1	10000	2	1	0	2	0
125	169	1	10000	2	1	0	2	0
135	170	1	10000	2	1	0	2	0
146	171	1	10000	2	1	0	2	0
151	172	1	10000	2	1	0	2	0
152	173	1	10000	2	1	0	2	0
147	174	1	10000	2	1	0	2	0
143	175	1	10000	2	1	0	2	0
138	176	1	10000	2	1	0	2	0
135	177	1	10000	2	1	0	2	0
137	178	1	10000	2	1	0	2	0
147	179	1	10000	2	1	0	2	0
164	180	1	10000	2	1	0	2	0
174	181	1	10000	2	1	0	2	0
178	182	1	10000	2	1	0	2	0
176	183	1	10000	2	1	0	2	0
180	184	1	10000	2	1	0	2	0
193	185	1	10000	2	1	0	2	0
193	186	1	10000	2	1	0	2	0
192	187	1	10000	2	1	0	2	0
195	188	1	10000	2	1	0	2	0
203	189	1	10000	2	1	0	2	0
210	190	1	10000	2	1	0	2	0
211	191	1	10000	2	1	0	2	0
217	192	1	10000	2	1	0	2	0
225	193	1	10000	2	1	0	2	0
225	194	1	10000	2	1	0	2	0
224	195	1	10000	2	1	0	2	0
232	196	1	10000	2	1	0	2	0
233	197	1	10000	2	1	0	2	0
236	198	1	10000	2	1	0	2	0
228	199	1	10000	2	1	0	2	0
221	200	1	10000	2	1	0	2	0
216	201	1	10000	2	1	0	2	0
214	202	1	10000	2	1	0	2	0
214	203	1	10000	2	1	0	2	0
213	204	1	10000	2	1	0	2	0
206	205	1	10000	2	1	0	2	0
210	206	1	10000	2	1	0	2	0
207	207	1	10000	2	1	0	2	0
203	208	1	10000	2	1	0	2	0
203	209	1	10000	2	1	0	2	0
200	210	1	10000	2	1	0	2	0
194	211	1	10000	2	1	0	2	0
190	212	1	10000	2	1	0	2	0
183	213	1	10000	2	1	0	2	0
183	214	1	10000	2	1	0	2	0
188	215	1	10000	2	1	0	2	0
187	216	1	10000	2	1	0	2	0
185	217	1	10000	2	1	0	2	0
180	218	1	10000	2	1	0	2	0
181	219	1	10000	2	1	0	2	0
195	220	1	10000	2	1	0	2	0
215	221	1	10000	2	1	0	2	0
225	222	1	10000	2	1	0	2	0
220	223	1	10000	2	1	0	2	0
215	224	1	10000	2	1	0	2	0
210	225	1	10000	2	1	0	2	0
202	226	1	10000	2	1	0	2	0
196	227	1	10000	2	1	0	2	0
193	228	1	10000	2	1	0	2	0
192	229	1	10000	2	1	0	2	0
191	230	1	10000	2	1	0	2	0
194	231	1	10000	2	1	0	2	0
194	232	1	10000	2	1	0	2	0
189	233	1	10000	2	1	0	2	0
193	234	1	10000	2	1	0	2	0
206	235	1	10000	2	1	0	2	0
206	236	1	10000	2	1	0	2	0
200	237	1	10000	2	1	0	2	0
194	238	1	10000	2	1	0	2	0
186	239	1	10000	2	1	0	2	0
177	240	1	10000	2	1	0	2	0
173	241	1	10000	2	1	0	2	0
179	242	1	10000	2	1	0	2	0
192	243	1	10000	2	1	0	2	0
196	244	1	10000	2	1	0	2	0
195	245	1	10000	2	1	0	2	0
207	246	1	10000	2	1	0	2	0
223	247	1	10000	2	1	0	2	0
241	248	1	10000	2	1	0	2	0
251	249	1	10000	2	1	0	2	0
253	250	1	10000	2	1	0	2	0
260	251	1	10000	2	1	0	2	0
265	252	1	10000	2	1	0	2	0
258	253	1	10000	2	1	0	2	0
249	254	1	10000	2	1	0	2	0
248	255	1	10000	2	1	0	2	0
240	256	1	10000	2	1	0	2	0
232	257	1	10000	2	1	0	2	0
231	258	1	10000	2	1	0	2	0
234	259	1	10000	2	1	0	2	0
241	260	1	10000	2	1	0	2	0
246	261	1	10000	2	1	0	2	0
247	262	1	10000	2	1	0	2	0
244	263	1	10000	2	1	0	2	0
235	264	1	10000	2	1	0	2	0
230	265	1	10000	2	1	0	2	0
232	266	1	10000	2	1	0	2	0
233	277	1	10000	2	1	0	2	0
224	278	1	10000	2	1	0	2	0
220	279	1	10000	2	1	0	2	0
217	280	1	10000	2	1	0	2	0
214	281	1	10000	2	1	0	2	0
219	282	1	10000	2	1	0	2	0
222	283	1	10000	2	1	0	2	0
218	284	1	10000	2	1	0	2	0
218	285	1	10000	2	1	0	2	0
211	286	1	10000	2	1	0	2	0
203	287	1	10000	2	1	0	2	0
195	288	1	10000	2	1	0	2	0
192	286	1	10000	2	1	0	2	0
183	287	1	10000	2	1	0	2	0
176	288	1	10000	2	1	0	2	0
171	289	1	10000	2	1	0	2	0
166	290	1	10000	2	1	0	2	0
164	291	1	10000	2	1	0	2	0
159	292	1	10000	2	1	0	2	0
157	293	1	10000	2	1	0	2	0
154	296	1	10000	2	1	0	2	0
149	297	1	10000	2	1	0	2	0
148	298	1	10000	2	1	0	2	0
147	299	1	10000	2	1	0	2	0
150	300	1	10000	2	1	0	2	0
155	301	1	10000	2	1	0	2	0
157	302	1	10000	2	1	0	2	0
163	303	1	10000	2	1	0	2	0
162	304	1	10000	2	1	0	2	0
157	305	1	10000	2	1	0	2	0
154	302	1	10000	2	1	0	2	0
156	303	1	10000	2	1	0	2	0
153	304	1	10000	2	1	0	2	0
147	305	1	10000	2	1	0	2	0
144	306	1	10000	2	1	0	2	0
144	307	1	10000	2	1	0	2	0
149	308	1	10000	2	1	0	2	0
155	309	1	10000	2	1	0	2	0
157	310	1	10000	2	1	0	2	0
161	311	1	10000	2	1	0	2	0
168	312	1	10000	2	1	0	2	0
181	313	1	10000	2	1	0	2	0
188	312	1	10000	2	1	0	2	0
189	313	1	10000	2	1	0	2	0
204	314	1	10000	2	1	0	2	0
225	315	1	10000	2	1	0	2	0
239	319	1	10000	2	1	0	2	0
238	320	1	10000	2	1	0	2	0
231	321	1	10000	2	1	0	2	0
227	322	1	10000	2	1	0	2	0
218	323	1	10000	2	1	0	2	0
211	324	1	10000	2	1	0	2	0
201	325	1	10000	2	1	0	2	0
198	326	1	10000	2	1	0	2	0
192	323	1	10000	2	1	0	2	0
190	324	1	10000	2	1	0	2	0
199	325	1	10000	2	1	0	2	0
210	326	1	10000	2	1	0	2	0
216	328	1	10000	2	1	0	2	0
211	329	1	10000	2	1	0	2	0
210	330	1	10000	2	1	0	2	0
214	331	1	10000	2	1	0	2	0
224	334	1	10000	2	1	0	2	0
228	335	1	10000	2	1	0	2	0
225	336	1	10000	2	1	0	2	0
221	337	1	10000	2	1	0	2	0
218	338	1	10000	2	1	0	2	0
218	339	1	10000	2	1	0	2	0
219	341	1	10000	2	1	0	2	0
217	342	1	10000	2	1	0	2	0
212	343	1	10000	2	1	0	2	0
211	344	1	10000	2	1	0	2	0
201	345	1	10000	2	1	0	2	0
195	346	1	10000	2	1	0	2	0
208	347	1	10000	2	1	0	2	0
221	348	1	10000	2	1	0	2	0
228	346	1	10000	2	1	0	2	0
230	347	1	10000	2	1	0	2	0
225	348	1	10000	2	1	0	2	0
217	349	1	10000	2	1	0	2	0
212	351	1	10000	2	1	0	2	0
212	352	1	10000	2	1	0	2	0
209	353	1	10000	2	1	0	2	0
209	354	1	10000	2	1	0	2	0
203	355	1	10000	2	1	0	2	0
201	356	1	10000	2	1	0	2	0
200	357	1	10000	2	1	0	2	0
199	358	1	10000	2	1	0	2	0
204	359	1	10000	2	1	0	2	0
217	360	1	10000	2	1	0	2	0
224	361	1	10000	2	1	0	2	0
218	362	1	10000	2	1	0	2	0
216	362	1	10000	2	1	0	2	0
215	363	1	10000	2	1	0	2	0
221	364	1	10000	2	1	0	2	0
228	365	1	10000	2	1	0	2	0
225	368	1	10000	2	1	0	2	0
220	369	1	10000	2	1	0	2	0
222	370	1	10000	2	1	0	2	0
229	371	1	10000	2	1	0	2	0
222	372	1	10000	2	1	0	2	0
215	373	1	10000	2	1	0	2	0
210	373	1	10000	2	1	0	2	0
203	374	1	10000	2	1	0	2	0
204	375	1	10000	2	1	0	2	0
207	376	1	10000	2	1	0	2	0
204	377	1	10000	2	1	0	2	0
201	378	1	10000	2	1	0	2	0
192	379	1	10000	2	1	0	2	0
184	380	1	10000	2	1	0	2	0
179	381	1	10000	2	1	0	2	0
176	382	1	10000	2	1	0	2	0
168	383	1	10000	2	1	0	2	0
163	384	1	10000	2	1	0	2	0
162	383	1	10000	2	1	0	2	0
158	384	1	10000	2	1	0	2	0
153	385	1	10000	2	1	0	2	0
151	386	1	10000	2	1	0	2	0
156	385	1	10000	2	1	0	2	0
159	386	1	10000	2	1	0	2	0
157	387	1	10000	2	1	0	2	0
152	388	1	10000	2	1	0	2	0
148	389	1	10000	2	1	0	2	0
149	390	1	10000	2	1	0	2	0
152	391	1	10000	2	1	0	2	0
153	392	1	10000	2	1	0	2	0
152	393	1	10000	2	1	0	2	0
149	394	1	10000	2	1	0	2	0
151	395	1	10000	2	1	0	2	0
152	396	1	10000	2	1	0	2	0
148	397	1	10000	2	1	0	2	0
142	398	1	10000	2	1	0	2	0
139	399	1	10000	2	1	0	2	0
135	400	1	10000	2	1	0	2	0
136	401	1	10000	2	1	0	2	0
140	402	1	10000	2	1	0	2	0
137	403	1	10000	2	1	0	2	0
144	404	1	10000	2	1	0	2	0
147	405	1	10000	2	1	0	2	0
151	406	1	10000	2	1	0	2	0
152	407	1	10000	2	1	0	2	0
145	408	1	10000	2	1	0	2	0
143	409	1	10000	2	1	0	2	0
147	410	1	10000	2	1	0	2	0
155	411	1	10000	2	1	0	2	0
165	412	1	10000	2	1	0	2	0
168	413	1	10000	2	1	0	2	0
163	414	1	10000	2	1	0	2	0
158	415	1	10000	2	1	0	2	0
154	416	1	10000	2	1	0	2	0
155	417	1	10000	2	1	0	2	0
152	418	1	10000	2	1	0	2	0
145	419	1	10000	2	1	0	2	0
141	420	1	10000	2	1	0	2	0
144	421	1	10000	2	1	0	2	0
157	422	1	10000	2	1	0	2	0
157	423	1	10000	2	1	0	2	0
153	424	1	10000	2	1	0	2	0
152	425	1	10000	2	1	0	2	0
164	426	1	10000	2	1	0	2	0
174	427	1	10000	2	1	0	2	0
177	428	1	10000	2	1	0	2	0
175	429	1	10000	2	1	0	2	0
173	430	1	10000	2	1	0	2	0
170	431	1	10000	2	1	0	2	0
183	432	1	10000	2	1	0	2	0
196	433	1	10000	2	1	0	2	0
193	434	1	10000	2	1	0	2	0
197	435	1	10000	2	1	0	2	0
206	436	1	10000	2	1	0	2	0
204	437	1	10000	2	1	0	2	0
200	438	1	10000	2	1	0	2	0
200	439	1	10000	2	1	0	2	0
192	440	1	10000	2	1	0	2	0
188	441	1	10000	2	1	0	2	0
190	442	1	10000	2	1	0	2	0
189	443	1	10000	2	1	0	2	0
182	444	1	10000	2	1	0	2	0
180	445	1	10000	2	1	0	2	0
174	446	1	10000	2	1	0	2	0
166	447	1	10000	2	1	0	2	0
161	448	1	10000	2	1	0	2	0
158	449	1	10000	2	1	0	2	0
156	450	1	10000	2	1	0	2	0
149	451	1	10000	2	1	0	2	0
145	452	1	10000	2	1	0	2	0
143	453	1	10000	2	1	0	2	0
148	454	1	10000	2	1	0	2	0
155	455	1	10000	2	1	0	2	0
160	456	1	10000	2	1	0	2	0
158	457	1	10000	2	1	0	2	0
154	458	1	10000	2	1	0	2	0
148	459	1	10000	2	1	0	2	0
151	460	1	10000	2	1	0	2	0
164	461	1	10000	2	1	0	2	0
171	462	1	10000	2	1	0	2	0
173	463	1	10000	2	1	0	2	0
167	464	1	10000	2	1	0	2	0
162	465	1	10000	2	1	0	2	0
160	466	1	10000	2	1	0	2	0
155	467	1	10000	2	1	0	2	0
149	468	1	10000	2	1	0	2	0
148	469	1	10000	2	1	0	2	0
143	470	1	10000	2	1	0	2	0
140	471	1	10000	2	1	0	2	0
148	472	1	10000	2	1	0	2	0
160	473	1	10000	2	1	0	2	0
170	474	1	10000	2	1	0	2	0
169	475	1	10000	2	1	0	2	0
172	476	1	10000	2	1	0	2	0
192	477	1	10000	2	1	0	2	0
215	478	1	10000	2	1	0	2	0
229	479	1	10000	2	1	0	2	0
231	480	1	10000	2	1	0	2	0
223	481	1	10000	2	1	0	2	0
217	482	1	10000	2	1	0	2	0
216	483	1	10000	2	1	0	2	0
214	484	1	10000	2	1	0	2	0
213	485	1	10000	2	1	0	2	0
216	486	1	10000	2	1	0	2	0
208	487	1	10000	2	1	0	2	0
200	488	1	10000	2	1	0	2	0
200	489	1	10000	2	1	0	2	0
212	490	1	10000	2	1	0	2	0
223	491	1	10000	2	1	0	2	0
223	492	1	10000	2	1	0	2	0
218	493	1	10000	2	1	0	2	0
215	494	1	10000	2	1	0	2	0
210	495	1	10000	2	1	0	2	0
203	496	1	10000	2	1	0	2	0
200	497	1	10000	2	1	0	2	0
192	498	1	10000	2	1	0	2	0
184	499	1	10000	2	1	0	2	0
184	500	1	10000	2	1	0	2	0
183	501	1	10000	2	1	0	2	1
177	502	1	10000	2	1	0	2	1
175	503	1	10000	2	1	0	2	1
172	504	1	10000	2	1	0	2	1
170	505	1	10000	2	1	0	2	1
175	506	1	10000	2	1	0	2	1
178	507	1	10000	2	1	0	2	1
176	508	1	10000	2	1	0	2	1
177	509	1	10000	2	1	0	2	1
171	510	1	10000	2	1	0	2	1
173	511	1	10000	2	1	0	2	1
183	512	1	10000	2	1	0	2	1
184	513	1	10000	2	1	0	2	1
183	514	1	10000	2	1	0	2	1
181	515	1	10000	2	1	0	2	1
175	516	1	10000	2	1	0	2	1
168	517	1	10000	2	1	0	2	1
162	518	1	10000	2	1	0	2	1
155	519	1	10000	2	1	0	2	1
152	520	1	10000	2	1	0	2	1
151	521	1	10000	2	1	0	2	1
150	522	1	10000	2	1	0	2	1
154	523	1	10000	2	1	0	2	1
155	524	1	10000	2	1	0	2	1
153	525	1	10000	2	1	0	2	1
154	526	1	10000	2	1	0	2	1
151	527	1	10000	2	1	0	2	1
146	528	1	10000	2	1	0	2	1
149	529	1	10000	2	1	0	2	1
159	530	1	10000	2	1	0	2	1
167	531	1	10000	2	1	0	2	1
167	532	1	10000	2	1	0	2	1
170	533	1	10000	2	1	0	2	1
165	534	1	10000	2	1	0	2	1
159	535	1	10000	2	1	0	2	1
158	536	1	10000	2	1	0	2	1
171	537	1	10000	2	1	0	2	1
174	538	1	10000	2	1	0	2	1
180	539	1	10000	2	1	0	2	1
194	540	1	10000	2	1	0	2	1
201	541	1	10000	2	1	0	2	1
199	542	1	10000	2	1	0	2	1
192	543	1	10000	2	1	0	2	1
187	544	1	10000	2	1	0	2	1
185	545	1	10000	2	1	0	2	1
177	546	1	10000	2	1	0	2	1
174	547	1	10000	2	1	0	2	1
171	548	1	10000	2	1	0	2	1
166	549	1	10000	2	1	0	2	1
165	550	1	10000	2	1	0	2	1
163	551	1	10000	2	1	0	2	0
158	552	1	10000	2	1	0	2	0
156	553	1	10000	2	1	0	2	0
159	554	1	10000	2	1	0	2	0
165	555	1	10000	2	1	0	2	0
172	556	1	10000	2	1	0	2	0
173	557	1	10000	2	1	0	2	0
171	558	1	10000	2	1	0	2	0
177	559	1	10000	2	1	0	2	0
183	560	1	10000	2	1	0	2	0
179	561	1	10000	2	1	0	2	0
173	562	1	10000	2	1	0	2	0
168	563	1	10000	2	1	0	2	0
168	564	1	10000	2	1	0	2	0
171	565	1	10000	2	1	0	2	0
167	566	1	10000	2	1	0	2	0
165	567	1	10000	2	1	0	2	0
168	568	1	10000	2	1	0	2	0
168	569	1	10000	2	1	0	2	0
164	570	1	10000	2	1	0	2	0
159	571	1	10000	2	1	0	2	0
156	572	1	10000	2	1	0	2	0
149	573	1	10000	2	1	0	2	0
144	574	1	10000	2	1	0	2	0
139	575	1	10000	2	1	0	2	0
133	576	1	10000	2	1	0	2	0
130	577	1	10000	2	1	0	2	0
128	578	1	10000	2	1	0	2	0
123	579	1	10000	2	1	0	2	0
118	580	1	10000	2	1	0	2	0
117	581	1	10000	2	1	0	2	0
116	582	1	10000	2	1	0	2	0
115	583	1	10000	2	1	0	2	0
113	584	1	10000	2	1	0	2	0
113	585	1	10000	2	1	0	2	0
114	586	1	10000	2	1	0	2	0
128	587	1	10000	2	1	0	2	0
149	588	1	10000	2	1	0	2	0
155	589	1	10000	2	1	0	2	0
152	590	1	10000	2	1	0	2	0
147	591	1	10000	2	1	0	2	0
144	592	1	10000	2	1	0	2	0
142	593	1	10000	2	1	0	2	0
149	594	1	10000	2	1	0	2	0
151	595	1	10000	2	1	0	2	0
147	596	1	10000	2	1	0	2	0
141	597	1	10000	2	1	0	2	0
139	598	1	10000	2	1	0	2	0
138	599	1	10000	2	1	0	2	0
143	600	1	10000	2	1	0	2	0
196	601	1	10000	2	1	0	2	0
268	602	1	10000	2	1	0	2	0
299	603	1	10000	2	1	0	2	0
300	604	1	10000	2	1	0	2	0
342	605	1	10000	2	1	0	2	0
384	606	1	10000	2	1	0	2	0
419	607	1	10000	2	1	0	2	0
441	608	1	10000	2	1	0	2	0
440	609	1	10000	2	1	0	2	0
436	610	1	10000	2	1	0	2	0
425	611	1	10000	2	1	0	2	0
425	612	1	10000	2	1	0	2	0
449	613	1	10000	2	1	0	2	0
452	614	1	10000	2	1	0	2	0
451	615	1	10000	2	1	0	2	0
447	616	1	10000	2	1	0	2	0
500	617	1	10000	2	1	0	2	0
528	618	1	10000	2	1	0	2	0
514	619	1	10000	2	1	0	2	0
514	620	1	10000	2	1	0	2	0
545	621	1	10000	2	1	0	2	0
539	622	1	10000	2	1	0	2	0
578	623	1	10000	2	1	0	2	0
642	624	1	10000	2	1	0	2	0
675	625	1	10000	2	1	0	2	0
684	626	1	10000	2	1	0	2	0
679	627	1	10000	2	1	0	2	0
665	628	1	10000	2	1	0	2	0
643	629	1	10000	2	1	0	2	0
638	630	1	10000	2	1	0	2	0
621	631	1	10000	2	1	0	2	0
594	632	1	10000	2	1	0	2	0
571	633	1	10000	2	1	0	2	0
550	634	1	10000	2	1	0	2	0
524	635	1	10000	2	1	0	2	0
501	636	1	10000	2	1	0	2	0
480	637	1	10000	2	1	0	2	0
462	638	1	10000	2	1	0	2	0
444	639	1	10000	2	1	0	2	0
434	640	1	10000	2	1	0	2	0
428	641	1	10000	2	1	0	2	0
412	642	1	10000	2	1	0	2	0
397	643	1	10000	2	1	0	2	0
389	644	1	10000	2	1	0	2	0
378	645	1	10000	2	1	0	2	0
374	646	1	10000	2	1	0	2	0
375	647	1	10000	2	1	0	2	0
369	648	1	10000	2	1	0	2	0
364	649	1	10000	2	1	0	2	0
353	650	1	10000	2	1	0	2	0
340	651	1	10000	2	1	0	2	0
327	652	1	10000	2	1	0	2	0
314	653	1	10000	2	1	0	2	0
300	654	1	10000	2	1	0	2	0
288	655	1	10000	2	1	0	2	0
277	656	1	10000	2	1	0	2	0
269	657	1	10000	2	1	0	2	0
260	658	1	10000	2	1	0	2	0
250	659	1	10000	2	1	0	2	0
254	660	1	10000	2	1	0	2	0
271	661	1	10000	2	1	0	2	0
271	662	1	10000	2	1	0	2	0
269	663	1	10000	2	1	0	2	0
267	664	1	10000	2	1	0	2	0
265	665	1	10000	2	1	0	2	0
270	666	1	10000	2	1	0	2	0
277	667	1	10000	2	1	0	2	0
273	668	1	10000	2	1	0	2	0
266	669	1	10000	2	1	0	2	0
261	670	1	10000	2	1	0	2	0
254	671	1	10000	2	1	0	2	0
254	672	1	10000	2	1	0	2	0
250	673	1	10000	2	1	0	2	0
242	674	1	10000	2	1	0	2	0
238	675	1	10000	2	1	0	2	0
243	676	1	10000	2	1	0	2	0
246	677	1	10000	2	1	0	2	0
239	678	1	10000	2	1	0	2	0
232	679	1	10000	2	1	0	2	0
231	680	1	10000	2	1	0	2	0
229	681	1	10000	2	1	0	2	0
227	682	1	10000	2	1	0	2	0
224	683	1	10000	2	1	0	2	0
222	684	1	10000	2	1	0	2	0
213	685	1	10000	2	1	0	2	0
205	686	1	10000	2	1	0	2	0
199	687	1	10000	2	1	0	2	0
191	688	1	10000	2	1	0	2	0
186	689	1	10000	2	1	0	2	0
181	690	1	10000	2	1	0	2	0
185	691	1	10000	2	1	0	2	0
186	692	1	10000	2	1	0	2	0
186	693	1	10000	2	1	0	2	0
189	694	1	10000	2	1	0	2	0
183	695	1	10000	2	1	0	2	0
178	696	1	10000	2	1	0	2	0
175	697	1	10000	2	1	0	2	0
179	698	1	10000	2	1	0	2	0
176	699	1	10000	2	1	0	2	0
170	700	1	10000	2	1	0	2	0
176	701	1	10000	2	1	0	2	0
182	702	1	10000	2	1	0	2	0
184	703	1	10000	2	1	0	2	0
182	704	1	10000	2	1	0	2	0
185	705	1	10000	2	1	0	2	0
182	706	1	10000	2	1	0	2	0
178	707	1	10000	2	1	0	2	0
179	708	1	10000	2	1	0	2	0
184	709	1	10000	2	1	0	2	0
186	710	1	10000	2	1	0	2	0
182	711	1	10000	2	1	0	2	0
176	712	1	10000	2	1	0	2	0
171	713	1	10000	2	1	0	2	0
164	714	1	10000	2	1	0	2	0
157	715	1	10000	2	1	0	2	0
156	716	1	10000	2	1	0	2	0
150	717	1	10000	2	1	0	2	0
153	718	1	10000	2	1	0	2	0
156	719	1	10000	2	1	0	2	0
155	720	1	10000	2	1	0	2	0
160	721	1	10000	2	1	0	2	0
159	722	1	10000	2	1	0	2	0
154	723	1	10000	2	1	0	2	0
149	724	1	10000	2	1	0	2	0
153	725	1	10000	2	1	0	2	0
166	726	1	10000	2	1	0	2	0
178	727	1	10000	2	1	0	2	0
181	728	1	10000	2	1	0	2	0
178	729	1	10000	2	1	0	2	0
177	730	1	10000	2	1	0	2	0
178	731	1	10000	2	1	0	2	0
173	732	1	10000	2	1	0	2	0
171	733	1	10000	2	1	0	2	0
168	734	1	10000	2	1	0	2	0
164	735	1	10000	2	1	0	2	0
161	736	1	10000	2	1	0	2	0
164	737	1	10000	2	1	0	2	0
175	738	1	10000	2	1	0	2	0
183	739	1	10000	2	1	0	2	0
181	740	1	10000	2	1	0	2	0
178	741	1	10000	2	1	0	2	0
182	742	1	10000	2	1	0	2	0
204	743	1	10000	2	1	0	2	0
236	744	1	10000	2	1	0	2	0
258	745	1	10000	2	1	0	2	0
255	746	1	10000	2	1	0	2	0
257	747	1	10000	2	1	0	2	0
264	748	1	10000	2	1	0	2	0
256	749	1	10000	2	1	0	2	0
247	750	1	10000	2	1	0	2	0
243	751	1	10000	2	1	0	2	0
241	752	1	10000	2	1	0	2	0
243	753	1	10000	2	1	0	2	0
243	754	1	10000	2	1	0	2	0
234	755	1	10000	2	1	0	2	0
228	756	1	10000	2	1	0	2	0
225	757	1	10000	2	1	0	2	0
227	758	1	10000	2	1	0	2	0
223	759	1	10000	2	1	0	2	0
213	760	1	10000	2	1	0	2	0
204	761	1	10000	2	1	0	2	0
199	762	1	10000	2	1	0	2	0
195	763	1	10000	2	1	0	2	0
197	764	1	10000	2	1	0	2	0
198	765	1	10000	2	1	0	2	0
191	766	1	10000	2	1	0	2	0
186	767	1	10000	2	1	0	2	0
190	768	1	10000	2	1	0	2	0
190	769	1	10000	2	1	0	2	0
183	770	1	10000	2	1	0	2	0
183	771	1	10000	2	1	0	2	0
191	772	1	10000	2	1	0	2	0
197	773	1	10000	2	1	0	2	0
190	774	1	10000	2	1	0	2	0
187	775	1	10000	2	1	0	2	0
187	776	1	10000	2	1	0	2	0
193	777	1	10000	2	1	0	2	0
200	778	1	10000	2	1	0	2	0
208	779	1	10000	2	1	0	2	0
216	780	1	10000	2	1	0	2	0
219	781	1	10000	2	1	0	2	0
216	782	1	10000	2	1	0	2	0
207	783	1	10000	2	1	0	2	0
203	784	1	10000	2	1	0	2	0
198	785	1	10000	2	1	0	2	0
192	786	1	10000	2	1	0	2	0
187	787	1	10000	2	1	0	2	0
179	788	1	10000	2	1	0	2	0
177	789	1	10000	2	1	0	2	0
173	790	1	10000	2	1	0	2	0
176	791	1	10000	2	1	0	2	0
180	792	1	10000	2	1	0	2	0
178	793	1	10000	2	1	0	2	0
188	794	1	10000	2	1	0	2	0
211	795	1	10000	2	1	0	2	0
236	796	1	10000	2	1	0	2	0
237	797	1	10000	2	1	0	2	0
243	798	1	10000	2	1	0	2	0
249	799	1	10000	2	1	0	2	0
258	800	1	10000	2	1	0	2	0
265	801	1	10000	2	1	0	2	0
263	802	1	10000	2	1	0	2	0
257	803	1	10000	2	1	0	2	0
250	804	1	10000	2	1	0	2	0
243	805	1	10000	2	1	0	2	0
235	806	1	10000	2	1	0	2	0
234	807	1	10000	2	1	0	2	0
234	808	1	10000	2	1	0	2	0
230	809	1	10000	2	1	0	2	0
222	810	1	10000	2	1	0	2	0
220	811	1	10000	2	1	0	2	0
216	812	1	10000	2	1	0	2	0
208	813	1	10000	2	1	0	2	0
201	814	1	10000	2	1	0	2	0
194	815	1	10000	2	1	0	2	0
196	816	1	10000	2	1	0	2	0
201	817	1	10000	2	1	0	2	0
202	818	1	10000	2	1	0	2	0
200	819	1	10000	2	1	0	2	0
200	820	1	10000	2	1	0	2	0
209	821	1	10000	2	1	0	2	0
216	822	1	10000	2	1	0	2	0
216	823	1	10000	2	1	0	2	0
209	824	1	10000	2	1	0	2	0
210	825	1	10000	2	1	0	2	0
202	826	1	10000	2	1	0	2	0
203	827	1	10000	2	1	0	2	0
214	828	1	10000	2	1	0	2	0
214	829	1	10000	2	1	0	2	0
211	830	1	10000	2	1	0	2	0
201	831	1	10000	2	1	0	2	0
193	832	1	10000	2	1	0	2	0
185	833	1	10000	2	1	0	2	0
178	834	1	10000	2	1	0	2	0
177	835	1	10000	2	1	0	2	0
185	836	1	10000	2	1	0	2	0
197	837	1	10000	2	1	0	2	0
206	838	1	10000	2	1	0	2	0
202	839	1	10000	2	1	0	2	0
195	840	1	10000	2	1	0	2	0
188	841	1	10000	2	1	0	2	0
191	842	1	10000	2	1	0	2	0
194	843	1	10000	2	1	0	2	0
195	844	1	10000	2	1	0	2	0
194	845	1	10000	2	1	0	2	0
188	846	1	10000	2	1	0	2	0
180	847	1	10000	2	1	0	2	0
175	848	1	10000	2	1	0	2	0
170	849	1	10000	2	1	0	2	0
164	850	1	10000	2	1	0	2	0
159	851	1	10000	2	1	0	2	0
155	852	1	10000	2	1	0	2	0
151	853	1	10000	2	1	0	2	0
147	854	1	10000	2	1	0	2	0
141	855	1	10000	2	1	0	2	0
142	856	1	10000	2	1	0	2	0
142	857	1	10000	2	1	0	2	0
139	858	1	10000	2	1	0	2	0
131	859	1	10000	2	1	0	2	0
126	860	1	10000	2	1	0	2	0
127	861	1	10000	2	1	0	2	0
136	862	1	10000	2	1	0	2	0
136	863	1	10000	2	1	0	2	0
133	864	1	10000	2	1	0	2	0
130	865	1	10000	2	1	0	2	0
127	866	1	10000	2	1	0	2	0
131	867	1	10000	2	1	0	2	0
134	868	1	10000	2	1	0	2	0
133	869	1	10000	2	1	0	2	0
127	870	1	10000	2	1	0	2	0
121	871	1	10000	2	1	0	2	0
119	872	1	10000	2	1	0	2	0
114	873	1	10000	2	1	0	2	0
110	874	1	10000	2	1	0	2	0
105	875	1	10000	2	1	0	2	0
102	876	1	10000	2	1	0	2	0
100	877	1	10000	2	1	0	2	0
100	878	1	10000	2	1	0	2	0
100	879	1	10000	2	1	0	2	0
102	880	1	10000	2	1	0	2	0
104	881	1	10000	2	1	0	2	0
104	882	1	10000	2	1	0	2	0
106	883	1	10000	2	1	0	2	0
110	884	1	10000	2	1	0	2	0
108	885	1	10000	2	1	0	2	0
106	886	1	10000	2	1	0	2	0
111	887	1	10000	2	1	0	2	0
116	888	1	10000	2	1	0	2	0
122	889	1	10000	2	1	0	2	0
133	890	1	10000	2	1	0	2	0
140	891	1	10000	2	1	0	2	0
135	892	1	10000	2	1	0	2	0
135	893	1	10000	2	1	0	2	0
136	894	1	10000	2	1	0	2	0
131	895	1	10000	2	1	0	2	0
128	896	1	10000	2	1	0	2	0
125	897	1	10000	2	1	0	2	0
126	898	1	10000	2	1	0	2	0
133	899	1	10000	2	1	0	2	0
138	900	1	10000	2	1	0	2	0
134	901	1	10000	2	1	0	2	0
129	902	1	10000	2	1	0	2	0
126	903	1	10000	2	1	0	2	0
123	904	1	10000	2	1	0	2	0
123	905	1	10000	2	1	0	2	0
122	906	1	10000	2	1	0	2	0
124	907	1	10000	2	1	0	2	0
127	908	1	10000	2	1	0	2	0
127	909	1	10000	2	1	0	2	0
130	910	1	10000	2	1	0	2	0
128	911	1	10000	2	1	0	2	0
125	912	1	10000	2	1	0	2	0
122	913	1	10000	2	1	0	2	0
125	914	1	10000	2	1	0	2	0
127	915	1	10000	2	1	0	2	0
124	916	1	10000	2	1	0	2	0
119	917	1	10000	2	1	0	2	0
117	918	1	10000	2	1	0	2	0
113	919	1	10000	2	1	0	2	0
109	920	1	10000	2	1	0	2	0
108	921	1	10000	2	1	0	2	0
113	922	1	10000	2	1	0	2	0
119	923	1	10000	2	1	0	2	0
117	924	1	10000	2	1	0	2	0
114	925	1	10000	2	1	0	2	0
117	926	1	10000	2	1	0	2	0
125	927	1	10000	2	1	0	2	0
132	928	1	10000	2	1	0	2	0
137	929	1	10000	2	1	0	2	0
133	930	1	10000	2	1	0	2	0
137	931	1	10000	2	1	0	2	0
137	932	1	10000	2	1	0	2	0
135	933	1	10000	2	1	0	2	0
138	934	1	10000	2	1	0	2	0
142	935	1	10000	2	1	0	2	0
148	936	1	10000	2	1	0	2	0
150	937	1	10000	2	1	0	2	0
155	938	1	10000	2	1	0	2	0
159	939	1	10000	2	1	0	2	0
161	940	1	10000	2	1	0	2	0
158	941	1	10000	2	1	0	2	0
156	942	1	10000	2	1	0	2	0
161	943	1	10000	2	1	0	2	0
160	944	1	10000	2	1	0	2	0
156	945	1	10000	2	1	0	2	0
150	946	1	10000	2	1	0	2	0
144	947	1	10000	2	1	0	2	0
139	948	1	10000	2	1	0	2	0
140	949	1	10000	2	1	0	2	0
149	950	1	10000	2	1	0	2	0
151	951	1	10000	2	1	0	2	0
145	952	1	10000	2	1	0	2	0
140	953	1	10000	2	1	0	2	0
141	954	1	10000	2	1	0	2	0
146	955	1	10000	2	1	0	2	0
143	956	1	10000	2	1	0	2	0
149	957	1	10000	2	1	0	2	0
156	958	1	10000	2	1	0	2	0
157	959	1	10000	2	1	0	2	0
164	960	1	10000	2	1	0	2	0
165	961	1	10000	2	1	0	2	0
163	962	1	10000	2	1	0	2	0
169	963	1	10000	2	1	0	2	0
178	964	1	10000	2	1	0	2	0
188	965	1	10000	2	1	0	2	0
191	966	1	10000	2	1	0	2	0
182	967	1	10000	2	1	0	2	0
177	968	1	10000	2	1	0	2	0
172	969	1	10000	2	1	0	2	0
170	970	1	10000	2	1	0	2	0
172	971	1	10000	2	1	0	2	0
176	972	1	10000	2	1	0	2	0
184	973	1	10000	2	1	0	2	0
189	974	1	10000	2	1	0	2	0
191	975	1	10000	2	1	0	2	0
190	976	1	10000	2	1	0	2	0
184	977	1	10000	2	1	0	2	0
177	978	1	10000	2	1	0	2	0
173	979	1	10000	2	1	0	2	0
168	980	1	10000	2	1	0	2	0
165	981	1	10000	2	1	0	2	0
169	982	1	10000	2	1	0	2	0
174	983	1	10000	2	1	0	2	0
171	984	1	10000	2	1	0	2	0
189	985	1	10000	2	1	0	2	0
210	986	1	10000	2	1	0	2	0
224	987	1	10000	2	1	0	2	0
231	988	1	10000	2	1	0	2	0
236	989	1	10000	2	1	0	2	0
242	990	1	10000	2	1	0	2	0
249	991	1	10000	2	1	0	2	0
249	992	1	10000	2	1	0	2	0
244	993	1	10000	2	1	0	2	0
233	994	1	10000	2	1	0	2	0
226	995	1	10000	2	1	0	2	0
226	996	1	10000	2	1	0	2	0
231	997	1	10000	2	1	0	2	0
236	998	1	10000	2	1	0	2	0
232	999	1	10000	2	1	0	2	0
225	1000	1	10000	2	1	0	2	0
114	1	0	10000	3	1	0	3	0
116	2	0	10000	3	1	0	3	0
129	3	0	10000	3	1	0	3	0
140	4	0	10000	3	1	0	3	0
139	5	0	10000	3	1	0	3	0
133	6	0	10000	3	1	0	3	0
130	7	0	10000	3	1	0	3	0
128	8	0	10000	3	1	0	3	0
125	9	0	10000	3	1	0	3	0
126	10	0	10000	3	1	0	3	0
125	11	0	10000	3	1	0	3	0
120	12	0	10000	3	1	0	3	0
117	13	0	10000	3	1	0	3	0
117	14	0	10000	3	1	0	3	0
121	15	0	10000	3	1	0	3	0
123	16	0	10000	3	1	0	3	0
119	17	0	10000	3	1	0	3	0
116	18	0	10000	3	1	0	3	0
114	19	0	10000	3	1	0	3	0
111	20	0	10000	3	1	0	3	0
111	20	0	10000	3	1	0	3	0
107	21	0	10000	3	1	0	3	0
106	23	0	10000	3	1	0	3	0
102	24	0	10000	3	1	0	3	0
98	25	0	10000	3	1	0	3	0
100	26	0	10000	3	1	0	3	0
97	27	0	10000	3	1	0	3	0
97	28	0	10000	3	1	0	3	0
96	29	0	10000	3	1	0	3	0
94	30	0	10000	3	1	0	3	0
96	31	0	10000	3	1	0	3	0
93	32	0	10000	3	1	0	3	0
89	33	0	10000	3	1	0	3	0
86	34	0	10000	3	1	0	3	0
85	35	0	10000	3	1	0	3	0
84	36	0	10000	3	1	0	3	0
85	37	0	10000	3	1	0	3	0
82	38	0	10000	3	1	0	3	0
86	39	0	10000	3	1	0	3	0
89	40	0	10000	3	1	0	3	0
94	41	0	10000	3	1	0	3	0
94	42	0	10000	3	1	0	3	0
93	43	0	10000	3	1	0	3	0
91	44	0	10000	3	1	0	3	0
88	45	0	10000	3	1	0	3	0
87	46	0	10000	3	1	0	3	0
86	47	0	10000	3	1	0	3	0
86	48	0	10000	3	1	0	3	0
83	49	0	10000	3	1	0	3	0
82	50	0	10000	3	1	0	3	0
84	51	0	10000	3	1	0	3	0
91	52	0	10000	3	1	0	3	0
87	53	0	10000	3	1	0	3	0
85	54	0	10000	3	1	0	3	0
83	55	0	10000	3	1	0	3	0
80	56	0	10000	3	1	0	3	0
78	57	0	10000	3	1	0	3	0
76	58	0	10000	3	1	0	3	0
75	59	0	10000	3	1	0	3	0
74	60	0	10000	3	1	0	3	0
76	61	0	10000	3	1	0	3	0
76	62	0	10000	3	1	0	3	0
76	63	0	10000	3	1	0	3	0
77	64	0	10000	3	1	0	3	0
75	65	0	10000	3	1	0	3	0
75	66	0	10000	3	1	0	3	0
74	67	0	10000	3	1	0	3	0
72	68	0	10000	3	1	0	3	0
69	69	0	10000	3	1	0	3	0
69	70	0	10000	3	1	0	3	0
69	71	0	10000	3	1	0	3	0
68	72	0	10000	3	1	0	3	0
64	73	0	10000	3	1	0	3	0
65	74	0	10000	3	1	0	3	0
65	75	0	10000	3	1	0	3	0
65	76	0	10000	3	1	0	3	0
63	77	0	10000	3	1	0	3	0
65	78	0	10000	3	1	0	3	0
67	79	0	10000	3	1	0	3	0
67	80	0	10000	3	1	0	3	0
64	81	0	10000	3	1	0	3	0
66	82	0	10000	3	1	0	3	0
67	83	0	10000	3	1	0	3	0
65	84	0	10000	3	1	0	3	0
63	85	0	10000	3	1	0	3	0
61	86	0	10000	3	1	0	3	0
61	87	0	10000	3	1	0	3	0
59	88	0	10000	3	1	0	3	0
57	89	0	10000	3	1	0	3	0
56	90	0	10000	3	1	0	3	0
56	91	0	10000	3	1	0	3	0
55	92	0	10000	3	1	0	3	0
53	93	0	10000	3	1	0	3	0
53	94	0	10000	3	1	0	3	0
52	95	0	10000	3	1	0	3	0
52	96	0	10000	3	1	0	3	0
52	97	0	10000	3	1	0	3	0
50	98	0	10000	3	1	0	3	0
49	99	0	10000	3	1	0	3	0
48	100	0	10000	3	1	0	3	0
48	101	0	10000	3	1	0	3	0
47	102	0	10000	3	1	0	3	0
47	103	0	10000	3	1	0	3	0
49	104	0	10000	3	1	0	3	0
50	105	0	10000	3	1	0	3	0
49	106	0	10000	3	1	0	3	0
49	107	0	10000	3	1	0	3	0
48	108	0	10000	3	1	0	3	0
50	109	0	10000	3	1	0	3	0
53	110	0	10000	3	1	0	3	0
56	111	0	10000	3	1	0	3	0
54	112	0	10000	3	1	0	3	0
52	113	0	10000	3	1	0	3	0
51	114	0	10000	3	1	0	3	0
51	115	0	10000	3	1	0	3	0
49	116	0	10000	3	1	0	3	0
48	117	0	10000	3	1	0	3	0
48	118	0	10000	3	1	0	3	0
47	119	0	10000	3	1	0	3	0
47	120	0	10000	3	1	0	3	0
44	121	0	10000	3	1	0	3	0
44	122	0	10000	3	1	0	3	0
45	123	0	10000	3	1	0	3	0
45	124	0	10000	3	1	0	3	0
44	125	0	10000	3	1	0	3	0
44	126	0	10000	3	1	0	3	0
43	127	0	10000	3	1	0	3	0
42	128	0	10000	3	1	0	3	0
41	129	0	10000	3	1	0	3	0
43	130	0	10000	3	1	0	3	0
43	131	0	10000	3	1	0	3	0
41	132	0	10000	3	1	0	3	0
42	133	0	10000	3	1	0	3	0
44	134	0	10000	3	1	0	3	0
48	135	0	10000	3	1	0	3	0
51	136	0	10000	3	1	0	3	0
50	137	0	10000	3	1	0	3	0
50	138	0	10000	3	1	0	3	0
48	139	0	10000	3	1	0	3	0
48	140	0	10000	3	1	0	3	0
47	141	0	10000	3	1	0	3	0
46	142	0	10000	3	1	0	3	0
48	143	0	10000	3	1	0	3	0
47	144	0	10000	3	1	0	3	0
46	145	0	10000	3	1	0	3	0
48	146	0	10000	3	1	0	3	0
47	147	0	10000	3	1	0	3	0
47	148	0	10000	3	1	0	3	0
45	149	0	10000	3	1	0	3	0
48	150	0	10000	3	1	0	3	0
49	151	0	10000	3	1	0	3	0
51	152	0	10000	3	1	0	3	0
52	153	0	10000	3	1	0	3	0
50	154	0	10000	3	1	0	3	0
49	155	0	10000	3	1	0	3	0
48	156	0	10000	3	1	0	3	0
48	157	0	10000	3	1	0	3	0
47	158	0	10000	3	1	0	3	0
46	159	0	10000	3	1	0	3	0
45	160	0	10000	3	1	0	3	0
46	161	0	10000	3	1	0	3	0
49	162	0	10000	3	1	0	3	0
51	163	0	10000	3	1	0	3	0
51	164	0	10000	3	1	0	3	0
55	165	0	10000	3	1	0	3	0
64	166	0	10000	3	1	0	3	0
68	167	0	10000	3	1	0	3	0
68	168	0	10000	3	1	0	3	0
68	169	0	10000	3	1	0	3	0
69	170	0	10000	3	1	0	3	0
67	171	0	10000	3	1	0	3	0
65	172	0	10000	3	1	0	3	0
63	173	0	10000	3	1	0	3	0
60	174	0	10000	3	1	0	3	0
61	175	0	10000	3	1	0	3	0
60	176	0	10000	3	1	0	3	0
59	177	0	10000	3	1	0	3	0
59	178	0	10000	3	1	0	3	0
61	179	0	10000	3	1	0	3	0
57	180	0	10000	3	1	0	3	0
57	181	0	10000	3	1	0	3	0
55	182	0	10000	3	1	0	3	0
56	183	0	10000	3	1	0	3	0
57	184	0	10000	3	1	0	3	0
56	185	0	10000	3	1	0	3	0
56	186	0	10000	3	1	0	3	0
54	187	0	10000	3	1	0	3	0
56	188	0	10000	3	1	0	3	0
56	189	0	10000	3	1	0	3	0
57	190	0	10000	3	1	0	3	0
57	191	0	10000	3	1	0	3	0
56	192	0	10000	3	1	0	3	0
54	193	0	10000	3	1	0	3	0
56	194	0	10000	3	1	0	3	0
56	195	0	10000	3	1	0	3	0
55	196	0	10000	3	1	0	3	0
55	197	0	10000	3	1	0	3	0
58	198	0	10000	3	1	0	3	0
62	199	0	10000	3	1	0	3	0
65	200	0	10000	3	1	0	3	0
63	201	0	10000	3	1	0	3	0
63	202	0	10000	3	1	0	3	0
65	203	0	10000	3	1	0	3	0
69	204	0	10000	3	1	0	3	0
69	205	0	10000	3	1	0	3	0
70	206	0	10000	3	1	0	3	0
68	207	0	10000	3	1	0	3	0
68	208	0	10000	3	1	0	3	0
68	209	0	10000	3	1	0	3	0
70	210	0	10000	3	1	0	3	0
68	211	0	10000	3	1	0	3	0
66	212	0	10000	3	1	0	3	0
64	213	0	10000	3	1	0	3	0
62	214	0	10000	3	1	0	3	0
62	215	0	10000	3	1	0	3	0
62	216	0	10000	3	1	0	3	0
61	217	0	10000	3	1	0	3	0
62	218	0	10000	3	1	0	3	0
63	219	0	10000	3	1	0	3	0
62	220	0	10000	3	1	0	3	0
61	221	0	10000	3	1	0	3	0
61	222	0	10000	3	1	0	3	0
61	223	0	10000	3	1	0	3	0
58	224	0	10000	3	1	0	3	0
58	225	0	10000	3	1	0	3	0
59	226	0	10000	3	1	0	3	0
63	227	0	10000	3	1	0	3	0
65	228	0	10000	3	1	0	3	0
64	229	0	10000	3	1	0	3	0
62	230	0	10000	3	1	0	3	0
64	231	0	10000	3	1	0	3	0
62	232	0	10000	3	1	0	3	0
59	233	0	10000	3	1	0	3	0
58	234	0	10000	3	1	0	3	0
57	235	0	10000	3	1	0	3	0
56	236	0	10000	3	1	0	3	0
54	237	0	10000	3	1	0	3	0
53	238	0	10000	3	1	0	3	0
54	239	0	10000	3	1	0	3	0
53	240	0	10000	3	1	0	3	0
52	241	0	10000	3	1	0	3	0
50	242	0	10000	3	1	0	3	0
53	243	0	10000	3	1	0	3	0
51	244	0	10000	3	1	0	3	0
51	245	0	10000	3	1	0	3	0
50	246	0	10000	3	1	0	3	0
49	247	0	10000	3	1	0	3	0
49	248	0	10000	3	1	0	3	0
48	249	0	10000	3	1	0	3	0
48	250	0	10000	3	1	0	3	0
48	251	0	10000	3	1	0	3	0
47	252	0	10000	3	1	0	3	0
44	253	0	10000	3	1	0	3	0
44	254	0	10000	3	1	0	3	0
48	255	0	10000	3	1	0	3	0
50	256	0	10000	3	1	0	3	0
52	257	0	10000	3	1	0	3	0
54	258	0	10000	3	1	0	3	0
52	259	0	10000	3	1	0	3	0
51	260	0	10000	3	1	0	3	0
49	261	0	10000	3	1	0	3	0
51	262	0	10000	3	1	0	3	0
54	263	0	10000	3	1	0	3	0
55	264	0	10000	3	1	0	3	0
54	265	0	10000	3	1	0	3	0
53	266	0	10000	3	1	0	3	0
52	267	0	10000	3	1	0	3	0
54	268	0	10000	3	1	0	3	0
53	269	0	10000	3	1	0	3	0
53	270	0	10000	3	1	0	3	0
54	271	0	10000	3	1	0	3	0
55	272	0	10000	3	1	0	3	0
55	273	0	10000	3	1	0	3	0
54	274	0	10000	3	1	0	3	0
53	275	0	10000	3	1	0	3	0
55	276	0	10000	3	1	0	3	0
53	277	0	10000	3	1	0	3	0
53	278	0	10000	3	1	0	3	0
51	279	0	10000	3	1	0	3	0
51	280	0	10000	3	1	0	3	0
51	281	0	10000	3	1	0	3	0
52	282	0	10000	3	1	0	3	0
51	283	0	10000	3	1	0	3	0
53	284	0	10000	3	1	0	3	0
51	285	0	10000	3	1	0	3	0
50	286	0	10000	3	1	0	3	0
51	287	0	10000	3	1	0	3	0
53	288	0	10000	3	1	0	3	0
51	289	0	10000	3	1	0	3	0
51	290	0	10000	3	1	0	3	0
51	291	0	10000	3	1	0	3	0
49	292	0	10000	3	1	0	3	0
46	293	0	10000	3	1	0	3	0
46	294	0	10000	3	1	0	3	0
46	295	0	10000	3	1	0	3	0
46	296	0	10000	3	1	0	3	0
45	297	0	10000	3	1	0	3	0
45	298	0	10000	3	1	0	3	0
44	299	0	10000	3	1	0	3	0
43	300	0	10000	3	1	0	3	0
43	301	0	10000	3	1	0	3	0
42	302	0	10000	3	1	0	3	0
42	303	0	10000	3	1	0	3	0
42	304	0	10000	3	1	0	3	0
40	305	0	10000	3	1	0	3	0
39	306	0	10000	3	1	0	3	0
41	307	0	10000	3	1	0	3	0
42	308	0	10000	3	1	0	3	0
42	309	0	10000	3	1	0	3	0
43	310	0	10000	3	1	0	3	0
42	311	0	10000	3	1	0	3	0
42	312	0	10000	3	1	0	3	0
42	313	0	10000	3	1	0	3	0
47	314	0	10000	3	1	0	3	0
49	315	0	10000	3	1	0	3	0
52	316	0	10000	3	1	0	3	0
51	317	0	10000	3	1	0	3	0
52	318	0	10000	3	1	0	3	0
51	319	0	10000	3	1	0	3	0
53	320	0	10000	3	1	0	3	0
54	321	0	10000	3	1	0	3	0
54	322	0	10000	3	1	0	3	0
55	323	0	10000	3	1	0	3	0
55	324	0	10000	3	1	0	3	0
54	325	0	10000	3	1	0	3	0
52	326	0	10000	3	1	0	3	0
54	327	0	10000	3	1	0	3	0
54	328	0	10000	3	1	0	3	0
53	329	0	10000	3	1	0	3	0
53	330	0	10000	3	1	0	3	0
51	331	0	10000	3	1	0	3	0
51	332	0	10000	3	1	0	3	0
48	333	0	10000	3	1	0	3	0
48	334	0	10000	3	1	0	3	0
47	335	0	10000	3	1	0	3	0
48	336	0	10000	3	1	0	3	0
46	337	0	10000	3	1	0	3	0
46	338	0	10000	3	1	0	3	0
45	339	0	10000	3	1	0	3	0
45	340	0	10000	3	1	0	3	0
45	341	0	10000	3	1	0	3	0
45	342	0	10000	3	1	0	3	0
45	343	0	10000	3	1	0	3	0
46	344	0	10000	3	1	0	3	0
49	345	0	10000	3	1	0	3	0
51	346	0	10000	3	1	0	3	0
52	347	0	10000	3	1	0	3	0
54	348	0	10000	3	1	0	3	0
58	349	0	10000	3	1	0	3	0
62	350	0	10000	3	1	0	3	0
64	351	0	10000	3	1	0	3	0
62	352	0	10000	3	1	0	3	0
58	353	0	10000	3	1	0	3	0
58	354	0	10000	3	1	0	3	0
56	355	0	10000	3	1	0	3	0
56	356	0	10000	3	1	0	3	0
55	357	0	10000	3	1	0	3	0
54	358	0	10000	3	1	0	3	0
54	359	0	10000	3	1	0	3	0
52	360	0	10000	3	1	0	3	0
53	361	0	10000	3	1	0	3	0
55	362	0	10000	3	1	0	3	0
57	363	0	10000	3	1	0	3	0
60	364	0	10000	3	1	0	3	0
62	365	0	10000	3	1	0	3	0
64	366	0	10000	3	1	0	3	0
63	367	0	10000	3	1	0	3	0
61	368	0	10000	3	1	0	3	0
61	369	0	10000	3	1	0	3	0
65	370	0	10000	3	1	0	3	0
63	371	0	10000	3	1	0	3	0
64	372	0	10000	3	1	0	3	0
62	373	0	10000	3	1	0	3	0
62	374	0	10000	3	1	0	3	0
61	375	0	10000	3	1	0	3	0
60	376	0	10000	3	1	0	3	0
59	377	0	10000	3	1	0	3	0
59	378	0	10000	3	1	0	3	0
57	379	0	10000	3	1	0	3	0
56	380	0	10000	3	1	0	3	0
55	380	0	10000	3	1	0	3	0
54	381	0	10000	3	1	0	3	0
56	383	0	10000	3	1	0	3	0
57	384	0	10000	3	1	0	3	0
60	385	0	10000	3	1	0	3	0
59	386	0	10000	3	1	0	3	0
59	387	0	10000	3	1	0	3	0
57	388	0	10000	3	1	0	3	0
56	389	0	10000	3	1	0	3	0
57	390	0	10000	3	1	0	3	0
62	390	0	10000	3	1	0	3	0
66	391	0	10000	3	1	0	3	0
65	393	0	10000	3	1	0	3	0
63	394	0	10000	3	1	0	3	0
61	395	0	10000	3	1	0	3	0
61	396	0	10000	3	1	0	3	0
59	397	0	10000	3	1	0	3	0
57	398	0	10000	3	1	0	3	0
57	399	0	10000	3	1	0	3	0
56	400	0	10000	3	1	0	3	0
56	400	0	10000	3	1	0	3	0
55	401	0	10000	3	1	0	3	0
56	403	0	10000	3	1	0	3	0
58	404	0	10000	3	1	0	3	0
62	405	0	10000	3	1	0	3	0
62	406	0	10000	3	1	0	3	0
61	407	0	10000	3	1	0	3	0
59	408	0	10000	3	1	0	3	0
58	409	0	10000	3	1	0	3	0
60	410	0	10000	3	1	0	3	0
61	410	0	10000	3	1	0	3	0
60	411	0	10000	3	1	0	3	0
59	413	0	10000	3	1	0	3	0
57	414	0	10000	3	1	0	3	0
59	415	0	10000	3	1	0	3	0
60	416	0	10000	3	1	0	3	0
62	417	0	10000	3	1	0	3	0
65	418	0	10000	3	1	0	3	0
65	419	0	10000	3	1	0	3	0
66	420	0	10000	3	1	0	3	0
63	420	0	10000	3	1	0	3	0
62	421	0	10000	3	1	0	3	0
62	423	0	10000	3	1	0	3	0
62	424	0	10000	3	1	0	3	0
60	425	0	10000	3	1	0	3	0
59	426	0	10000	3	1	0	3	0
56	427	0	10000	3	1	0	3	0
56	428	0	10000	3	1	0	3	0
57	429	0	10000	3	1	0	3	0
60	430	0	10000	3	1	0	3	0
65	430	0	10000	3	1	0	3	0
67	431	0	10000	3	1	0	3	0
68	433	0	10000	3	1	0	3	0
65	434	0	10000	3	1	0	3	0
64	435	0	10000	3	1	0	3	0
63	436	0	10000	3	1	0	3	0
61	437	0	10000	3	1	0	3	0
61	438	0	10000	3	1	0	3	0
60	439	0	10000	3	1	0	3	0
61	440	0	10000	3	1	0	3	0
60	441	0	10000	3	1	0	3	0
62	442	0	10000	3	1	0	3	0
67	443	0	10000	3	1	0	3	0
68	444	0	10000	3	1	0	3	0
68	445	0	10000	3	1	0	3	0
65	446	0	10000	3	1	0	3	0
63	447	0	10000	3	1	0	3	0
63	448	0	10000	3	1	0	3	0
67	449	0	10000	3	1	0	3	0
67	450	0	10000	3	1	0	3	0
66	451	0	10000	3	1	0	3	0
64	452	0	10000	3	1	0	3	0
61	453	0	10000	3	1	0	3	0
61	454	0	10000	3	1	0	3	0
61	455	0	10000	3	1	0	3	0
60	456	0	10000	3	1	0	3	0
59	457	0	10000	3	1	0	3	0
58	458	0	10000	3	1	0	3	0
59	459	0	10000	3	1	0	3	0
57	460	0	10000	3	1	0	3	0
57	461	0	10000	3	1	0	3	0
57	462	0	10000	3	1	0	3	0
61	463	0	10000	3	1	0	3	0
63	464	0	10000	3	1	0	3	0
64	465	0	10000	3	1	0	3	0
64	466	0	10000	3	1	0	3	0
66	467	0	10000	3	1	0	3	0
66	468	0	10000	3	1	0	3	0
67	469	0	10000	3	1	0	3	0
65	470	0	10000	3	1	0	3	0
64	471	0	10000	3	1	0	3	0
63	472	0	10000	3	1	0	3	0
61	473	0	10000	3	1	0	3	0
59	474	0	10000	3	1	0	3	0
59	475	0	10000	3	1	0	3	0
59	476	0	10000	3	1	0	3	0
57	477	0	10000	3	1	0	3	0
56	478	0	10000	3	1	0	3	0
56	479	0	10000	3	1	0	3	0
55	480	0	10000	3	1	0	3	0
53	481	0	10000	3	1	0	3	0
54	482	0	10000	3	1	0	3	0
53	483	0	10000	3	1	0	3	0
52	484	0	10000	3	1	0	3	0
51	485	0	10000	3	1	0	3	0
50	486	0	10000	3	1	0	3	0
49	487	0	10000	3	1	0	3	0
49	488	0	10000	3	1	0	3	0
50	489	0	10000	3	1	0	3	0
49	490	0	10000	3	1	0	3	0
54	491	0	10000	3	1	0	3	0
59	492	0	10000	3	1	0	3	0
66	493	0	10000	3	1	0	3	0
66	494	0	10000	3	1	0	3	0
66	495	0	10000	3	1	0	3	0
65	496	0	10000	3	1	0	3	0
63	497	0	10000	3	1	0	3	0
62	498	0	10000	3	1	0	3	0
60	499	0	10000	3	1	0	3	0
62	500	0	10000	3	1	0	3	0
61	501	0	10000	3	1	0	3	1
60	502	0	10000	3	1	0	3	1
60	503	0	10000	3	1	0	3	1
60	504	0	10000	3	1	0	3	1
62	505	0	10000	3	1	0	3	1
61	506	0	10000	3	1	0	3	1
61	507	0	10000	3	1	0	3	1
59	508	0	10000	3	1	0	3	1
57	509	0	10000	3	1	0	3	1
59	510	0	10000	3	1	0	3	1
60	511	0	10000	3	1	0	3	1
63	512	0	10000	3	1	0	3	1
60	513	0	10000	3	1	0	3	1
62	514	0	10000	3	1	0	3	1
62	515	0	10000	3	1	0	3	1
63	516	0	10000	3	1	0	3	1
63	517	0	10000	3	1	0	3	1
64	518	0	10000	3	1	0	3	1
63	519	0	10000	3	1	0	3	1
60	520	0	10000	3	1	0	3	1
58	521	0	10000	3	1	0	3	1
58	522	0	10000	3	1	0	3	1
58	523	0	10000	3	1	0	3	1
56	524	0	10000	3	1	0	3	1
55	525	0	10000	3	1	0	3	1
53	526	0	10000	3	1	0	3	1
52	527	0	10000	3	1	0	3	1
51	528	0	10000	3	1	0	3	1
51	529	0	10000	3	1	0	3	1
52	530	0	10000	3	1	0	3	1
54	531	0	10000	3	1	0	3	1
56	532	0	10000	3	1	0	3	1
53	533	0	10000	3	1	0	3	1
54	534	0	10000	3	1	0	3	1
54	535	0	10000	3	1	0	3	1
55	536	0	10000	3	1	0	3	1
57	537	0	10000	3	1	0	3	1
56	538	0	10000	3	1	0	3	1
55	539	0	10000	3	1	0	3	1
53	540	0	10000	3	1	0	3	1
53	541	0	10000	3	1	0	3	1
52	542	0	10000	3	1	0	3	1
53	543	0	10000	3	1	0	3	1
51	544	0	10000	3	1	0	3	1
52	545	0	10000	3	1	0	3	1
52	546	0	10000	3	1	0	3	1
51	547	0	10000	3	1	0	3	1
50	548	0	10000	3	1	0	3	1
48	549	0	10000	3	1	0	3	1
53	550	0	10000	3	1	0	3	1
56	551	0	10000	3	1	0	3	0
55	552	0	10000	3	1	0	3	0
52	553	0	10000	3	1	0	3	0
53	554	0	10000	3	1	0	3	0
58	555	0	10000	3	1	0	3	0
65	556	0	10000	3	1	0	3	0
68	557	0	10000	3	1	0	3	0
71	558	0	10000	3	1	0	3	0
71	559	0	10000	3	1	0	3	0
73	560	0	10000	3	1	0	3	0
79	561	0	10000	3	1	0	3	0
86	562	0	10000	3	1	0	3	0
92	563	0	10000	3	1	0	3	0
94	564	0	10000	3	1	0	3	0
91	565	0	10000	3	1	0	3	0
91	566	0	10000	3	1	0	3	0
88	567	0	10000	3	1	0	3	0
86	568	0	10000	3	1	0	3	0
83	569	0	10000	3	1	0	3	0
83	570	0	10000	3	1	0	3	0
82	571	0	10000	3	1	0	3	0
80	572	0	10000	3	1	0	3	0
80	573	0	10000	3	1	0	3	0
81	574	0	10000	3	1	0	3	0
80	575	0	10000	3	1	0	3	0
79	576	0	10000	3	1	0	3	0
79	577	0	10000	3	1	0	3	0
81	578	0	10000	3	1	0	3	0
81	579	0	10000	3	1	0	3	0
80	580	0	10000	3	1	0	3	0
80	581	0	10000	3	1	0	3	0
82	582	0	10000	3	1	0	3	0
85	583	0	10000	3	1	0	3	0
87	584	0	10000	3	1	0	3	0
85	585	0	10000	3	1	0	3	0
84	586	0	10000	3	1	0	3	0
84	587	0	10000	3	1	0	3	0
83	588	0	10000	3	1	0	3	0
80	589	0	10000	3	1	0	3	0
78	590	0	10000	3	1	0	3	0
77	591	0	10000	3	1	0	3	0
80	592	0	10000	3	1	0	3	0
87	593	0	10000	3	1	0	3	0
90	594	0	10000	3	1	0	3	0
90	595	0	10000	3	1	0	3	0
101	596	0	10000	3	1	0	3	0
111	597	0	10000	3	1	0	3	0
110	598	0	10000	3	1	0	3	0
109	599	0	10000	3	1	0	3	0
122	600	0	10000	3	1	0	3	0
139	601	0	10000	3	1	0	3	0
140	602	0	10000	3	1	0	3	0
142	603	0	10000	3	1	0	3	0
159	604	0	10000	3	1	0	3	0
167	605	0	10000	3	1	0	3	0
169	606	0	10000	3	1	0	3	0
167	607	0	10000	3	1	0	3	0
172	608	0	10000	3	1	0	3	0
175	609	0	10000	3	1	0	3	0
174	610	0	10000	3	1	0	3	0
168	611	0	10000	3	1	0	3	0
169	612	0	10000	3	1	0	3	0
175	613	0	10000	3	1	0	3	0
195	614	0	10000	3	1	0	3	0
232	615	0	10000	3	1	0	3	0
255	616	0	10000	3	1	0	3	0
251	617	0	10000	3	1	0	3	0
242	618	0	10000	3	1	0	3	0
236	619	0	10000	3	1	0	3	0
251	620	0	10000	3	1	0	3	0
276	621	0	10000	3	1	0	3	0
285	622	0	10000	3	1	0	3	0
277	623	0	10000	3	1	0	3	0
264	624	0	10000	3	1	0	3	0
253	625	0	10000	3	1	0	3	0
253	626	0	10000	3	1	0	3	0
251	627	0	10000	3	1	0	3	0
241	628	0	10000	3	1	0	3	0
231	629	0	10000	3	1	0	3	0
228	630	0	10000	3	1	0	3	0
237	631	0	10000	3	1	0	3	0
240	632	0	10000	3	1	0	3	0
238	633	0	10000	3	1	0	3	0
233	634	0	10000	3	1	0	3	0
223	635	0	10000	3	1	0	3	0
217	636	0	10000	3	1	0	3	0
208	637	0	10000	3	1	0	3	0
199	638	0	10000	3	1	0	3	0
191	639	0	10000	3	1	0	3	0
183	640	0	10000	3	1	0	3	0
178	640	0	10000	3	1	0	3	0
175	641	0	10000	3	1	0	3	0
175	643	0	10000	3	1	0	3	0
172	644	0	10000	3	1	0	3	0
165	645	0	10000	3	1	0	3	0
159	646	0	10000	3	1	0	3	0
153	647	0	10000	3	1	0	3	0
147	648	0	10000	3	1	0	3	0
144	649	0	10000	3	1	0	3	0
139	650	0	10000	3	1	0	3	0
135	651	0	10000	3	1	0	3	0
129	652	0	10000	3	1	0	3	0
126	653	0	10000	3	1	0	3	0
128	654	0	10000	3	1	0	3	0
129	655	0	10000	3	1	0	3	0
129	656	0	10000	3	1	0	3	0
130	657	0	10000	3	1	0	3	0
133	658	0	10000	3	1	0	3	0
130	659	0	10000	3	1	0	3	0
126	660	0	10000	3	1	0	3	0
123	661	0	10000	3	1	0	3	0
126	662	0	10000	3	1	0	3	0
125	663	0	10000	3	1	0	3	0
122	664	0	10000	3	1	0	3	0
119	665	0	10000	3	1	0	3	0
116	666	0	10000	3	1	0	3	0
112	667	0	10000	3	1	0	3	0
112	668	0	10000	3	1	0	3	0
114	669	0	10000	3	1	0	3	0
116	670	0	10000	3	1	0	3	0
112	671	0	10000	3	1	0	3	0
109	672	0	10000	3	1	0	3	0
105	673	0	10000	3	1	0	3	0
106	674	0	10000	3	1	0	3	0
102	675	0	10000	3	1	0	3	0
99	676	0	10000	3	1	0	3	0
96	677	0	10000	3	1	0	3	0
94	678	0	10000	3	1	0	3	0
92	679	0	10000	3	1	0	3	0
89	680	0	10000	3	1	0	3	0
87	681	0	10000	3	1	0	3	0
86	682	0	10000	3	1	0	3	0
94	683	0	10000	3	1	0	3	0
98	684	0	10000	3	1	0	3	0
101	685	0	10000	3	1	0	3	0
102	686	0	10000	3	1	0	3	0
99	687	0	10000	3	1	0	3	0
95	688	0	10000	3	1	0	3	0
95	689	0	10000	3	1	0	3	0
92	690	0	10000	3	1	0	3	0
91	691	0	10000	3	1	0	3	0
89	692	0	10000	3	1	0	3	0
90	693	0	10000	3	1	0	3	0
92	694	0	10000	3	1	0	3	0
92	695	0	10000	3	1	0	3	0
88	696	0	10000	3	1	0	3	0
85	697	0	10000	3	1	0	3	0
83	698	0	10000	3	1	0	3	0
80	699	0	10000	3	1	0	3	0
77	700	0	10000	3	1	0	3	0
74	701	0	10000	3	1	0	3	0
74	702	0	10000	3	1	0	3	0
75	703	0	10000	3	1	0	3	0
72	704	0	10000	3	1	0	3	0
71	705	0	10000	3	1	0	3	0
69	706	0	10000	3	1	0	3	0
68	707	0	10000	3	1	0	3	0
68	708	0	10000	3	1	0	3	0
71	709	0	10000	3	1	0	3	0
74	710	0	10000	3	1	0	3	0
77	711	0	10000	3	1	0	3	0
78	712	0	10000	3	1	0	3	0
77	713	0	10000	3	1	0	3	0
75	714	0	10000	3	1	0	3	0
72	715	0	10000	3	1	0	3	0
70	716	0	10000	3	1	0	3	0
68	717	0	10000	3	1	0	3	0
66	718	0	10000	3	1	0	3	0
66	719	0	10000	3	1	0	3	0
64	720	0	10000	3	1	0	3	0
65	721	0	10000	3	1	0	3	0
68	722	0	10000	3	1	0	3	0
71	723	0	10000	3	1	0	3	0
74	724	0	10000	3	1	0	3	0
76	725	0	10000	3	1	0	3	0
80	726	0	10000	3	1	0	3	0
80	727	0	10000	3	1	0	3	0
77	728	0	10000	3	1	0	3	0
76	729	0	10000	3	1	0	3	0
74	730	0	10000	3	1	0	3	0
72	731	0	10000	3	1	0	3	0
70	732	0	10000	3	1	0	3	0
66	733	0	10000	3	1	0	3	0
66	734	0	10000	3	1	0	3	0
66	735	0	10000	3	1	0	3	0
63	736	0	10000	3	1	0	3	0
62	737	0	10000	3	1	0	3	0
61	738	0	10000	3	1	0	3	0
59	739	0	10000	3	1	0	3	0
58	740	0	10000	3	1	0	3	0
57	741	0	10000	3	1	0	3	0
60	742	0	10000	3	1	0	3	0
59	743	0	10000	3	1	0	3	0
56	744	0	10000	3	1	0	3	0
57	745	0	10000	3	1	0	3	0
55	746	0	10000	3	1	0	3	0
56	747	0	10000	3	1	0	3	0
62	748	0	10000	3	1	0	3	0
66	749	0	10000	3	1	0	3	0
70	750	0	10000	3	1	0	3	0
70	751	0	10000	3	1	0	3	0
70	752	0	10000	3	1	0	3	0
67	753	0	10000	3	1	0	3	0
66	754	0	10000	3	1	0	3	0
65	755	0	10000	3	1	0	3	0
64	756	0	10000	3	1	0	3	0
63	757	0	10000	3	1	0	3	0
61	758	0	10000	3	1	0	3	0
58	759	0	10000	3	1	0	3	0
57	760	0	10000	3	1	0	3	0
56	761	0	10000	3	1	0	3	0
58	762	0	10000	3	1	0	3	0
59	763	0	10000	3	1	0	3	0
58	764	0	10000	3	1	0	3	0
61	765	0	10000	3	1	0	3	0
64	766	0	10000	3	1	0	3	0
63	767	0	10000	3	1	0	3	0
63	768	0	10000	3	1	0	3	0
62	769	0	10000	3	1	0	3	0
60	770	0	10000	3	1	0	3	0
63	771	0	10000	3	1	0	3	0
61	772	0	10000	3	1	0	3	0
60	773	0	10000	3	1	0	3	0
61	774	0	10000	3	1	0	3	0
61	775	0	10000	3	1	0	3	0
59	776	0	10000	3	1	0	3	0
58	777	0	10000	3	1	0	3	0
60	778	0	10000	3	1	0	3	0
58	779	0	10000	3	1	0	3	0
58	780	0	10000	3	1	0	3	0
61	780	0	10000	3	1	0	3	0
63	781	0	10000	3	1	0	3	0
62	783	0	10000	3	1	0	3	0
61	784	0	10000	3	1	0	3	0
60	785	0	10000	3	1	0	3	0
59	786	0	10000	3	1	0	3	0
58	787	0	10000	3	1	0	3	0
56	788	0	10000	3	1	0	3	0
56	789	0	10000	3	1	0	3	0
57	790	0	10000	3	1	0	3	0
62	791	0	10000	3	1	0	3	0
63	792	0	10000	3	1	0	3	0
67	793	0	10000	3	1	0	3	0
68	794	0	10000	3	1	0	3	0
67	795	0	10000	3	1	0	3	0
65	796	0	10000	3	1	0	3	0
65	797	0	10000	3	1	0	3	0
65	798	0	10000	3	1	0	3	0
64	799	0	10000	3	1	0	3	0
62	800	0	10000	3	1	0	3	0
62	801	0	10000	3	1	0	3	0
62	802	0	10000	3	1	0	3	0
62	803	0	10000	3	1	0	3	0
61	804	0	10000	3	1	0	3	0
62	805	0	10000	3	1	0	3	0
62	806	0	10000	3	1	0	3	0
61	807	0	10000	3	1	0	3	0
59	808	0	10000	3	1	0	3	0
59	809	0	10000	3	1	0	3	0
58	810	0	10000	3	1	0	3	0
59	811	0	10000	3	1	0	3	0
60	812	0	10000	3	1	0	3	0
63	813	0	10000	3	1	0	3	0
66	814	0	10000	3	1	0	3	0
64	815	0	10000	3	1	0	3	0
63	816	0	10000	3	1	0	3	0
61	817	0	10000	3	1	0	3	0
60	818	0	10000	3	1	0	3	0
58	819	0	10000	3	1	0	3	0
57	820	0	10000	3	1	0	3	0
56	821	0	10000	3	1	0	3	0
55	822	0	10000	3	1	0	3	0
55	823	0	10000	3	1	0	3	0
55	824	0	10000	3	1	0	3	0
53	825	0	10000	3	1	0	3	0
52	826	0	10000	3	1	0	3	0
53	827	0	10000	3	1	0	3	0
54	828	0	10000	3	1	0	3	0
56	829	0	10000	3	1	0	3	0
60	830	0	10000	3	1	0	3	0
61	831	0	10000	3	1	0	3	0
61	832	0	10000	3	1	0	3	0
61	833	0	10000	3	1	0	3	0
59	834	0	10000	3	1	0	3	0
58	835	0	10000	3	1	0	3	0
57	836	0	10000	3	1	0	3	0
56	837	0	10000	3	1	0	3	0
55	838	0	10000	3	1	0	3	0
53	839	0	10000	3	1	0	3	0
52	840	0	10000	3	1	0	3	0
50	841	0	10000	3	1	0	3	0
51	842	0	10000	3	1	0	3	0
50	843	0	10000	3	1	0	3	0
50	844	0	10000	3	1	0	3	0
49	845	0	10000	3	1	0	3	0
48	846	0	10000	3	1	0	3	0
49	847	0	10000	3	1	0	3	0
47	848	0	10000	3	1	0	3	0
47	849	0	10000	3	1	0	3	0
46	850	0	10000	3	1	0	3	0
46	851	0	10000	3	1	0	3	0
44	852	0	10000	3	1	0	3	0
44	853	0	10000	3	1	0	3	0
43	854	0	10000	3	1	0	3	0
43	855	0	10000	3	1	0	3	0
44	856	0	10000	3	1	0	3	0
44	857	0	10000	3	1	0	3	0
44	858	0	10000	3	1	0	3	0
42	859	0	10000	3	1	0	3	0
43	860	0	10000	3	1	0	3	0
41	861	0	10000	3	1	0	3	0
42	862	0	10000	3	1	0	3	0
44	863	0	10000	3	1	0	3	0
43	864	0	10000	3	1	0	3	0
43	865	0	10000	3	1	0	3	0
43	866	0	10000	3	1	0	3	0
44	867	0	10000	3	1	0	3	0
44	868	0	10000	3	1	0	3	0
47	869	0	10000	3	1	0	3	0
53	870	0	10000	3	1	0	3	0
54	871	0	10000	3	1	0	3	0
53	872	0	10000	3	1	0	3	0
52	873	0	10000	3	1	0	3	0
53	874	0	10000	3	1	0	3	0
55	875	0	10000	3	1	0	3	0
56	876	0	10000	3	1	0	3	0
55	877	0	10000	3	1	0	3	0
55	878	0	10000	3	1	0	3	0
55	879	0	10000	3	1	0	3	0
54	880	0	10000	3	1	0	3	0
52	881	0	10000	3	1	0	3	0
54	882	0	10000	3	1	0	3	0
57	883	0	10000	3	1	0	3	0
58	884	0	10000	3	1	0	3	0
60	885	0	10000	3	1	0	3	0
58	886	0	10000	3	1	0	3	0
57	887	0	10000	3	1	0	3	0
57	888	0	10000	3	1	0	3	0
56	889	0	10000	3	1	0	3	0
56	890	0	10000	3	1	0	3	0
56	891	0	10000	3	1	0	3	0
55	892	0	10000	3	1	0	3	0
53	893	0	10000	3	1	0	3	0
54	894	0	10000	3	1	0	3	0
53	895	0	10000	3	1	0	3	0
53	896	0	10000	3	1	0	3	0
52	897	0	10000	3	1	0	3	0
52	898	0	10000	3	1	0	3	0
51	899	0	10000	3	1	0	3	0
51	900	0	10000	3	1	0	3	0
49	901	0	10000	3	1	0	3	0
49	902	0	10000	3	1	0	3	0
49	903	0	10000	3	1	0	3	0
46	904	0	10000	3	1	0	3	0
47	905	0	10000	3	1	0	3	0
46	906	0	10000	3	1	0	3	0
44	907	0	10000	3	1	0	3	0
44	908	0	10000	3	1	0	3	0
43	909	0	10000	3	1	0	3	0
43	910	0	10000	3	1	0	3	0
43	911	0	10000	3	1	0	3	0
42	912	0	10000	3	1	0	3	0
41	913	0	10000	3	1	0	3	0
43	914	0	10000	3	1	0	3	0
43	915	0	10000	3	1	0	3	0
45	916	0	10000	3	1	0	3	0
45	917	0	10000	3	1	0	3	0
48	918	0	10000	3	1	0	3	0
49	919	0	10000	3	1	0	3	0
48	920	0	10000	3	1	0	3	0
47	921	0	10000	3	1	0	3	0
49	922	0	10000	3	1	0	3	0
50	923	0	10000	3	1	0	3	0
51	924	0	10000	3	1	0	3	0
52	925	0	10000	3	1	0	3	0
52	926	0	10000	3	1	0	3	0
50	927	0	10000	3	1	0	3	0
49	928	0	10000	3	1	0	3	0
49	929	0	10000	3	1	0	3	0
47	930	0	10000	3	1	0	3	0
47	931	0	10000	3	1	0	3	0
47	932	0	10000	3	1	0	3	0
47	933	0	10000	3	1	0	3	0
48	934	0	10000	3	1	0	3	0
47	935	0	10000	3	1	0	3	0
47	936	0	10000	3	1	0	3	0
46	937	0	10000	3	1	0	3	0
45	938	0	10000	3	1	0	3	0
49	939	0	10000	3	1	0	3	0
51	940	0	10000	3	1	0	3	0
52	941	0	10000	3	1	0	3	0
52	942	0	10000	3	1	0	3	0
54	943	0	10000	3	1	0	3	0
54	944	0	10000	3	1	0	3	0
57	945	0	10000	3	1	0	3	0
60	946	0	10000	3	1	0	3	0
59	947	0	10000	3	1	0	3	0
57	948	0	10000	3	1	0	3	0
57	949	0	10000	3	1	0	3	0
57	950	0	10000	3	1	0	3	0
56	951	0	10000	3	1	0	3	0
53	952	0	10000	3	1	0	3	0
52	953	0	10000	3	1	0	3	0
51	954	0	10000	3	1	0	3	0
51	955	0	10000	3	1	0	3	0
50	956	0	10000	3	1	0	3	0
50	957	0	10000	3	1	0	3	0
49	958	0	10000	3	1	0	3	0
48	959	0	10000	3	1	0	3	0
48	960	0	10000	3	1	0	3	0
49	961	0	10000	3	1	0	3	0
49	962	0	10000	3	1	0	3	0
49	963	0	10000	3	1	0	3	0
48	964	0	10000	3	1	0	3	0
46	965	0	10000	3	1	0	3	0
46	966	0	10000	3	1	0	3	0
46	967	0	10000	3	1	0	3	0
46	968	0	10000	3	1	0	3	0
45	969	0	10000	3	1	0	3	0
45	970	0	10000	3	1	0	3	0
45	971	0	10000	3	1	0	3	0
44	972	0	10000	3	1	0	3	0
43	973	0	10000	3	1	0	3	0
43	974	0	10000	3	1	0	3	0
43	975	0	10000	3	1	0	3	0
42	976	0	10000	3	1	0	3	0
42	977	0	10000	3	1	0	3	0
43	978	0	10000	3	1	0	3	0
44	979	0	10000	3	1	0	3	0
43	980	0	10000	3	1	0	3	0
44	981	0	10000	3	1	0	3	0
44	982	0	10000	3	1	0	3	0
45	983	0	10000	3	1	0	3	0
47	984	0	10000	3	1	0	3	0
51	985	0	10000	3	1	0	3	0
51	986	0	10000	3	1	0	3	0
53	987	0	10000	3	1	0	3	0
57	988	0	10000	3	1	0	3	0
59	989	0	10000	3	1	0	3	0
58	990	0	10000	3	1	0	3	0
57	991	0	10000	3	1	0	3	0
55	992	0	10000	3	1	0	3	0
53	993	0	10000	3	1	0	3	0
52	994	0	10000	3	1	0	3	0
53	995	0	10000	3	1	0	3	0
52	996	0	10000	3	1	0	3	0
52	997	0	10000	3	1	0	3	0
50	998	0	10000	3	1	0	3	0
50	999	0	10000	3	1	0	3	0
49	1000	0	10000	3	1	0	3	0
126	1	0	10000	4	1	0	4	0
129	2	0	10000	4	1	0	4	0
128	3	0	10000	4	1	0	4	0
130	4	0	10000	4	1	0	4	0
130	5	0	10000	4	1	0	4	0
128	6	0	10000	4	1	0	4	0
125	7	0	10000	4	1	0	4	0
121	8	0	10000	4	1	0	4	0
120	9	0	10000	4	1	0	4	0
116	10	0	10000	4	1	0	4	0
117	11	0	10000	4	1	0	4	0
118	12	0	10000	4	1	0	4	0
118	13	0	10000	4	1	0	4	0
116	14	0	10000	4	1	0	4	0
122	15	0	10000	4	1	0	4	0
126	16	0	10000	4	1	0	4	0
127	17	0	10000	4	1	0	4	0
127	18	0	10000	4	1	0	4	0
126	19	0	10000	4	1	0	4	0
126	20	0	10000	4	1	0	4	0
126	21	0	10000	4	1	0	4	0
125	22	0	10000	4	1	0	4	0
126	23	0	10000	4	1	0	4	0
128	24	0	10000	4	1	0	4	0
126	25	0	10000	4	1	0	4	0
125	26	0	10000	4	1	0	4	0
127	27	0	10000	4	1	0	4	0
125	28	0	10000	4	1	0	4	0
122	29	0	10000	4	1	0	4	0
117	30	0	10000	4	1	0	4	0
114	31	0	10000	4	1	0	4	0
111	32	0	10000	4	1	0	4	0
107	33	0	10000	4	1	0	4	0
106	34	0	10000	4	1	0	4	0
119	35	0	10000	4	1	0	4	0
131	36	0	10000	4	1	0	4	0
128	37	0	10000	4	1	0	4	0
128	38	0	10000	4	1	0	4	0
129	39	0	10000	4	1	0	4	0
126	40	0	10000	4	1	0	4	0
121	41	0	10000	4	1	0	4	0
122	42	0	10000	4	1	0	4	0
117	43	0	10000	4	1	0	4	0
114	44	0	10000	4	1	0	4	0
110	45	0	10000	4	1	0	4	0
108	46	0	10000	4	1	0	4	0
105	47	0	10000	4	1	0	4	0
101	48	0	10000	4	1	0	4	0
99	49	0	10000	4	1	0	4	0
98	50	0	10000	4	1	0	4	0
98	51	0	10000	4	1	0	4	0
98	52	0	10000	4	1	0	4	0
96	53	0	10000	4	1	0	4	0
92	54	0	10000	4	1	0	4	0
98	55	0	10000	4	1	0	4	0
97	56	0	10000	4	1	0	4	0
100	57	0	10000	4	1	0	4	0
103	58	0	10000	4	1	0	4	0
107	59	0	10000	4	1	0	4	0
110	60	0	10000	4	1	0	4	0
109	61	0	10000	4	1	0	4	0
106	62	0	10000	4	1	0	4	0
104	63	0	10000	4	1	0	4	0
105	64	0	10000	4	1	0	4	0
105	65	0	10000	4	1	0	4	0
103	66	0	10000	4	1	0	4	0
104	67	0	10000	4	1	0	4	0
102	68	0	10000	4	1	0	4	0
100	69	0	10000	4	1	0	4	0
96	70	0	10000	4	1	0	4	0
93	71	0	10000	4	1	0	4	0
90	72	0	10000	4	1	0	4	0
86	73	0	10000	4	1	0	4	0
89	74	0	10000	4	1	0	4	0
90	75	0	10000	4	1	0	4	0
92	76	0	10000	4	1	0	4	0
91	77	0	10000	4	1	0	4	0
96	78	0	10000	4	1	0	4	0
101	79	0	10000	4	1	0	4	0
100	80	0	10000	4	1	0	4	0
97	81	0	10000	4	1	0	4	0
96	82	0	10000	4	1	0	4	0
96	83	0	10000	4	1	0	4	0
92	84	0	10000	4	1	0	4	0
89	85	0	10000	4	1	0	4	0
86	86	0	10000	4	1	0	4	0
85	87	0	10000	4	1	0	4	0
87	88	0	10000	4	1	0	4	0
87	89	0	10000	4	1	0	4	0
85	90	0	10000	4	1	0	4	0
84	91	0	10000	4	1	0	4	0
85	92	0	10000	4	1	0	4	0
99	93	0	10000	4	1	0	4	0
106	94	0	10000	4	1	0	4	0
106	95	0	10000	4	1	0	4	0
102	96	0	10000	4	1	0	4	0
104	97	0	10000	4	1	0	4	0
106	98	0	10000	4	1	0	4	0
104	99	0	10000	4	1	0	4	0
108	100	0	10000	4	1	0	4	0
115	101	0	10000	4	1	0	4	0
122	102	0	10000	4	1	0	4	0
123	103	0	10000	4	1	0	4	0
119	104	0	10000	4	1	0	4	0
120	105	0	10000	4	1	0	4	0
124	106	0	10000	4	1	0	4	0
126	107	0	10000	4	1	0	4	0
124	108	0	10000	4	1	0	4	0
120	109	0	10000	4	1	0	4	0
120	110	0	10000	4	1	0	4	0
120	111	0	10000	4	1	0	4	0
116	112	0	10000	4	1	0	4	0
115	113	0	10000	4	1	0	4	0
111	114	0	10000	4	1	0	4	0
110	115	0	10000	4	1	0	4	0
108	116	0	10000	4	1	0	4	0
107	117	0	10000	4	1	0	4	0
109	118	0	10000	4	1	0	4	0
107	119	0	10000	4	1	0	4	0
110	120	0	10000	4	1	0	4	0
116	121	0	10000	4	1	0	4	0
118	122	0	10000	4	1	0	4	0
115	123	0	10000	4	1	0	4	0
116	124	0	10000	4	1	0	4	0
120	125	0	10000	4	1	0	4	0
121	126	0	10000	4	1	0	4	0
118	127	0	10000	4	1	0	4	0
117	128	0	10000	4	1	0	4	0
120	129	0	10000	4	1	0	4	0
119	130	0	10000	4	1	0	4	0
114	131	0	10000	4	1	0	4	0
111	132	0	10000	4	1	0	4	0
110	133	0	10000	4	1	0	4	0
108	134	0	10000	4	1	0	4	0
104	135	0	10000	4	1	0	4	0
107	136	0	10000	4	1	0	4	0
107	137	0	10000	4	1	0	4	0
104	138	0	10000	4	1	0	4	0
100	139	0	10000	4	1	0	4	0
98	140	0	10000	4	1	0	4	0
99	141	0	10000	4	1	0	4	0
99	142	0	10000	4	1	0	4	0
96	143	0	10000	4	1	0	4	0
93	144	0	10000	4	1	0	4	0
90	145	0	10000	4	1	0	4	0
91	146	0	10000	4	1	0	4	0
93	147	0	10000	4	1	0	4	0
90	148	0	10000	4	1	0	4	0
87	149	0	10000	4	1	0	4	0
96	150	0	10000	4	1	0	4	0
102	151	0	10000	4	1	0	4	0
100	152	0	10000	4	1	0	4	0
109	153	0	10000	4	1	0	4	0
120	154	0	10000	4	1	0	4	0
124	155	0	10000	4	1	0	4	0
122	156	0	10000	4	1	0	4	0
124	157	0	10000	4	1	0	4	0
122	158	0	10000	4	1	0	4	0
123	159	0	10000	4	1	0	4	0
128	160	0	10000	4	1	0	4	0
134	161	0	10000	4	1	0	4	0
133	162	0	10000	4	1	0	4	0
129	163	0	10000	4	1	0	4	0
134	164	0	10000	4	1	0	4	0
135	165	0	10000	4	1	0	4	0
131	166	0	10000	4	1	0	4	0
128	167	0	10000	4	1	0	4	0
123	168	0	10000	4	1	0	4	0
121	169	0	10000	4	1	0	4	0
118	170	0	10000	4	1	0	4	0
117	171	0	10000	4	1	0	4	0
116	172	0	10000	4	1	0	4	0
118	173	0	10000	4	1	0	4	0
115	174	0	10000	4	1	0	4	0
113	175	0	10000	4	1	0	4	0
115	176	0	10000	4	1	0	4	0
113	177	0	10000	4	1	0	4	0
110	178	0	10000	4	1	0	4	0
105	179	0	10000	4	1	0	4	0
103	180	0	10000	4	1	0	4	0
100	181	0	10000	4	1	0	4	0
99	182	0	10000	4	1	0	4	0
99	183	0	10000	4	1	0	4	0
100	184	0	10000	4	1	0	4	0
99	185	0	10000	4	1	0	4	0
107	186	0	10000	4	1	0	4	0
109	187	0	10000	4	1	0	4	0
107	188	0	10000	4	1	0	4	0
104	189	0	10000	4	1	0	4	0
100	190	0	10000	4	1	0	4	0
97	191	0	10000	4	1	0	4	0
92	192	0	10000	4	1	0	4	0
90	193	0	10000	4	1	0	4	0
88	194	0	10000	4	1	0	4	0
85	195	0	10000	4	1	0	4	0
85	196	0	10000	4	1	0	4	0
84	197	0	10000	4	1	0	4	0
82	198	0	10000	4	1	0	4	0
87	199	0	10000	4	1	0	4	0
91	200	0	10000	4	1	0	4	0
90	201	0	10000	4	1	0	4	0
93	202	0	10000	4	1	0	4	0
95	203	0	10000	4	1	0	4	0
92	204	0	10000	4	1	0	4	0
91	205	0	10000	4	1	0	4	0
88	206	0	10000	4	1	0	4	0
88	207	0	10000	4	1	0	4	0
91	208	0	10000	4	1	0	4	0
92	209	0	10000	4	1	0	4	0
94	210	0	10000	4	1	0	4	0
93	211	0	10000	4	1	0	4	0
89	212	0	10000	4	1	0	4	0
90	213	0	10000	4	1	0	4	0
92	214	0	10000	4	1	0	4	0
97	215	0	10000	4	1	0	4	0
107	216	0	10000	4	1	0	4	0
116	217	0	10000	4	1	0	4	0
116	218	0	10000	4	1	0	4	0
113	219	0	10000	4	1	0	4	0
119	220	0	10000	4	1	0	4	0
118	221	0	10000	4	1	0	4	0
117	222	0	10000	4	1	0	4	0
116	223	0	10000	4	1	0	4	0
111	224	0	10000	4	1	0	4	0
109	225	0	10000	4	1	0	4	0
109	226	0	10000	4	1	0	4	0
105	227	0	10000	4	1	0	4	0
102	228	0	10000	4	1	0	4	0
101	229	0	10000	4	1	0	4	0
111	230	0	10000	4	1	0	4	0
120	231	0	10000	4	1	0	4	0
118	232	0	10000	4	1	0	4	0
116	233	0	10000	4	1	0	4	0
114	234	0	10000	4	1	0	4	0
118	235	0	10000	4	1	0	4	0
123	236	0	10000	4	1	0	4	0
122	237	0	10000	4	1	0	4	0
119	238	0	10000	4	1	0	4	0
114	239	0	10000	4	1	0	4	0
113	240	0	10000	4	1	0	4	0
111	241	0	10000	4	1	0	4	0
110	242	0	10000	4	1	0	4	0
107	243	0	10000	4	1	0	4	0
103	244	0	10000	4	1	0	4	0
101	245	0	10000	4	1	0	4	0
102	246	0	10000	4	1	0	4	0
103	247	0	10000	4	1	0	4	0
100	248	0	10000	4	1	0	4	0
98	249	0	10000	4	1	0	4	0
97	250	0	10000	4	1	0	4	0
94	251	0	10000	4	1	0	4	0
90	252	0	10000	4	1	0	4	0
91	253	0	10000	4	1	0	4	0
93	254	0	10000	4	1	0	4	0
101	255	0	10000	4	1	0	4	0
106	256	0	10000	4	1	0	4	0
106	257	0	10000	4	1	0	4	0
102	258	0	10000	4	1	0	4	0
100	259	0	10000	4	1	0	4	0
96	260	0	10000	4	1	0	4	0
97	261	0	10000	4	1	0	4	0
100	262	0	10000	4	1	0	4	0
100	263	0	10000	4	1	0	4	0
98	264	0	10000	4	1	0	4	0
98	265	0	10000	4	1	0	4	0
100	266	0	10000	4	1	0	4	0
98	267	0	10000	4	1	0	4	0
96	268	0	10000	4	1	0	4	0
101	269	0	10000	4	1	0	4	0
99	270	0	10000	4	1	0	4	0
102	271	0	10000	4	1	0	4	0
100	272	0	10000	4	1	0	4	0
100	273	0	10000	4	1	0	4	0
100	274	0	10000	4	1	0	4	0
96	275	0	10000	4	1	0	4	0
98	276	0	10000	4	1	0	4	0
100	277	0	10000	4	1	0	4	0
99	278	0	10000	4	1	0	4	0
96	279	0	10000	4	1	0	4	0
95	280	0	10000	4	1	0	4	0
92	281	0	10000	4	1	0	4	0
91	282	0	10000	4	1	0	4	0
86	283	0	10000	4	1	0	4	0
84	284	0	10000	4	1	0	4	0
81	285	0	10000	4	1	0	4	0
80	286	0	10000	4	1	0	4	0
79	287	0	10000	4	1	0	4	0
77	288	0	10000	4	1	0	4	0
76	289	0	10000	4	1	0	4	0
74	290	0	10000	4	1	0	4	0
74	291	0	10000	4	1	0	4	0
76	292	0	10000	4	1	0	4	0
77	293	0	10000	4	1	0	4	0
74	294	0	10000	4	1	0	4	0
73	295	0	10000	4	1	0	4	0
72	296	0	10000	4	1	0	4	0
71	297	0	10000	4	1	0	4	0
71	298	0	10000	4	1	0	4	0
68	299	0	10000	4	1	0	4	0
70	300	0	10000	4	1	0	4	0
70	301	0	10000	4	1	0	4	0
70	302	0	10000	4	1	0	4	0
68	303	0	10000	4	1	0	4	0
70	304	0	10000	4	1	0	4	0
69	305	0	10000	4	1	0	4	0
69	306	0	10000	4	1	0	4	0
75	307	0	10000	4	1	0	4	0
79	308	0	10000	4	1	0	4	0
80	309	0	10000	4	1	0	4	0
77	310	0	10000	4	1	0	4	0
75	311	0	10000	4	1	0	4	0
71	312	0	10000	4	1	0	4	0
74	313	0	10000	4	1	0	4	0
75	314	0	10000	4	1	0	4	0
74	315	0	10000	4	1	0	4	0
71	316	0	10000	4	1	0	4	0
70	317	0	10000	4	1	0	4	0
72	318	0	10000	4	1	0	4	0
74	319	0	10000	4	1	0	4	0
77	320	0	10000	4	1	0	4	0
76	321	0	10000	4	1	0	4	0
76	322	0	10000	4	1	0	4	0
75	323	0	10000	4	1	0	4	0
73	324	0	10000	4	1	0	4	0
75	325	0	10000	4	1	0	4	0
72	326	0	10000	4	1	0	4	0
73	327	0	10000	4	1	0	4	0
72	328	0	10000	4	1	0	4	0
71	329	0	10000	4	1	0	4	0
72	330	0	10000	4	1	0	4	0
75	331	0	10000	4	1	0	4	0
75	332	0	10000	4	1	0	4	0
75	333	0	10000	4	1	0	4	0
72	334	0	10000	4	1	0	4	0
74	335	0	10000	4	1	0	4	0
76	336	0	10000	4	1	0	4	0
76	337	0	10000	4	1	0	4	0
75	338	0	10000	4	1	0	4	0
72	339	0	10000	4	1	0	4	0
70	340	0	10000	4	1	0	4	0
69	341	0	10000	4	1	0	4	0
79	342	0	10000	4	1	0	4	0
84	343	0	10000	4	1	0	4	0
86	344	0	10000	4	1	0	4	0
86	345	0	10000	4	1	0	4	0
84	346	0	10000	4	1	0	4	0
86	347	0	10000	4	1	0	4	0
83	348	0	10000	4	1	0	4	0
83	349	0	10000	4	1	0	4	0
81	350	0	10000	4	1	0	4	0
78	351	0	10000	4	1	0	4	0
78	352	0	10000	4	1	0	4	0
84	353	0	10000	4	1	0	4	0
88	354	0	10000	4	1	0	4	0
87	355	0	10000	4	1	0	4	0
89	356	0	10000	4	1	0	4	0
97	357	0	10000	4	1	0	4	0
103	358	0	10000	4	1	0	4	0
115	359	0	10000	4	1	0	4	0
129	360	0	10000	4	1	0	4	0
133	361	0	10000	4	1	0	4	0
129	362	0	10000	4	1	0	4	0
130	363	0	10000	4	1	0	4	0
131	364	0	10000	4	1	0	4	0
134	365	0	10000	4	1	0	4	0
138	366	0	10000	4	1	0	4	0
134	367	0	10000	4	1	0	4	0
130	368	0	10000	4	1	0	4	0
127	369	0	10000	4	1	0	4	0
123	370	0	10000	4	1	0	4	0
126	371	0	10000	4	1	0	4	0
127	372	0	10000	4	1	0	4	0
127	373	0	10000	4	1	0	4	0
121	374	0	10000	4	1	0	4	0
123	375	0	10000	4	1	0	4	0
125	376	0	10000	4	1	0	4	0
126	377	0	10000	4	1	0	4	0
126	378	0	10000	4	1	0	4	0
121	379	0	10000	4	1	0	4	0
119	380	0	10000	4	1	0	4	0
120	381	0	10000	4	1	0	4	0
117	382	0	10000	4	1	0	4	0
113	383	0	10000	4	1	0	4	0
110	384	0	10000	4	1	0	4	0
112	385	0	10000	4	1	0	4	0
112	386	0	10000	4	1	0	4	0
111	387	0	10000	4	1	0	4	0
106	388	0	10000	4	1	0	4	0
104	389	0	10000	4	1	0	4	0
104	390	0	10000	4	1	0	4	0
115	391	0	10000	4	1	0	4	0
127	392	0	10000	4	1	0	4	0
125	393	0	10000	4	1	0	4	0
127	394	0	10000	4	1	0	4	0
129	395	0	10000	4	1	0	4	0
129	396	0	10000	4	1	0	4	0
126	397	0	10000	4	1	0	4	0
121	398	0	10000	4	1	0	4	0
121	399	0	10000	4	1	0	4	0
116	400	0	10000	4	1	0	4	0
113	401	0	10000	4	1	0	4	0
114	402	0	10000	4	1	0	4	0
119	403	0	10000	4	1	0	4	0
131	404	0	10000	4	1	0	4	0
134	405	0	10000	4	1	0	4	0
130	406	0	10000	4	1	0	4	0
127	407	0	10000	4	1	0	4	0
127	408	0	10000	4	1	0	4	0
125	409	0	10000	4	1	0	4	0
122	410	0	10000	4	1	0	4	0
117	411	0	10000	4	1	0	4	0
113	412	0	10000	4	1	0	4	0
110	413	0	10000	4	1	0	4	0
108	414	0	10000	4	1	0	4	0
108	415	0	10000	4	1	0	4	0
111	416	0	10000	4	1	0	4	0
113	417	0	10000	4	1	0	4	0
112	418	0	10000	4	1	0	4	0
116	419	0	10000	4	1	0	4	0
116	420	0	10000	4	1	0	4	0
114	421	0	10000	4	1	0	4	0
112	422	0	10000	4	1	0	4	0
109	423	0	10000	4	1	0	4	0
107	424	0	10000	4	1	0	4	0
114	425	0	10000	4	1	0	4	0
126	426	0	10000	4	1	0	4	0
133	427	0	10000	4	1	0	4	0
135	428	0	10000	4	1	0	4	0
137	429	0	10000	4	1	0	4	0
139	430	0	10000	4	1	0	4	0
134	431	0	10000	4	1	0	4	0
134	432	0	10000	4	1	0	4	0
133	433	0	10000	4	1	0	4	0
137	434	0	10000	4	1	0	4	0
142	435	0	10000	4	1	0	4	0
137	436	0	10000	4	1	0	4	0
134	437	0	10000	4	1	0	4	0
131	438	0	10000	4	1	0	4	0
128	439	0	10000	4	1	0	4	0
125	440	0	10000	4	1	0	4	0
120	441	0	10000	4	1	0	4	0
117	442	0	10000	4	1	0	4	0
116	443	0	10000	4	1	0	4	0
115	444	0	10000	4	1	0	4	0
120	445	0	10000	4	1	0	4	0
121	446	0	10000	4	1	0	4	0
119	447	0	10000	4	1	0	4	0
117	448	0	10000	4	1	0	4	0
114	449	0	10000	4	1	0	4	0
114	450	0	10000	4	1	0	4	0
112	451	0	10000	4	1	0	4	0
112	452	0	10000	4	1	0	4	0
114	453	0	10000	4	1	0	4	0
120	454	0	10000	4	1	0	4	0
120	455	0	10000	4	1	0	4	0
118	456	0	10000	4	1	0	4	0
118	457	0	10000	4	1	0	4	0
113	458	0	10000	4	1	0	4	0
113	459	0	10000	4	1	0	4	0
116	460	0	10000	4	1	0	4	0
120	461	0	10000	4	1	0	4	0
119	462	0	10000	4	1	0	4	0
116	463	0	10000	4	1	0	4	0
117	464	0	10000	4	1	0	4	0
118	465	0	10000	4	1	0	4	0
122	466	0	10000	4	1	0	4	0
124	467	0	10000	4	1	0	4	0
121	468	0	10000	4	1	0	4	0
121	469	0	10000	4	1	0	4	0
120	470	0	10000	4	1	0	4	0
116	471	0	10000	4	1	0	4	0
111	472	0	10000	4	1	0	4	0
111	473	0	10000	4	1	0	4	0
109	474	0	10000	4	1	0	4	0
110	475	0	10000	4	1	0	4	0
109	476	0	10000	4	1	0	4	0
107	477	0	10000	4	1	0	4	0
106	478	0	10000	4	1	0	4	0
102	479	0	10000	4	1	0	4	0
105	480	0	10000	4	1	0	4	0
106	481	0	10000	4	1	0	4	0
106	482	0	10000	4	1	0	4	0
104	483	0	10000	4	1	0	4	0
104	484	0	10000	4	1	0	4	0
103	485	0	10000	4	1	0	4	0
104	486	0	10000	4	1	0	4	0
103	487	0	10000	4	1	0	4	0
99	488	0	10000	4	1	0	4	0
97	489	0	10000	4	1	0	4	0
96	490	0	10000	4	1	0	4	0
92	491	0	10000	4	1	0	4	0
89	492	0	10000	4	1	0	4	0
91	493	0	10000	4	1	0	4	0
94	494	0	10000	4	1	0	4	0
96	495	0	10000	4	1	0	4	0
98	496	0	10000	4	1	0	4	0
93	497	0	10000	4	1	0	4	0
91	498	0	10000	4	1	0	4	0
88	499	0	10000	4	1	0	4	0
87	500	0	10000	4	1	0	4	0
88	501	0	10000	4	1	0	4	1
92	502	0	10000	4	1	0	4	1
94	503	0	10000	4	1	0	4	1
97	504	0	10000	4	1	0	4	1
99	505	0	10000	4	1	0	4	1
98	506	0	10000	4	1	0	4	1
93	507	0	10000	4	1	0	4	1
90	508	0	10000	4	1	0	4	1
91	509	0	10000	4	1	0	4	1
92	510	0	10000	4	1	0	4	1
92	511	0	10000	4	1	0	4	1
90	512	0	10000	4	1	0	4	1
90	513	0	10000	4	1	0	4	1
91	514	0	10000	4	1	0	4	1
96	515	0	10000	4	1	0	4	1
103	516	0	10000	4	1	0	4	1
100	517	0	10000	4	1	0	4	1
99	518	0	10000	4	1	0	4	1
104	519	0	10000	4	1	0	4	1
105	520	0	10000	4	1	0	4	1
103	521	0	10000	4	1	0	4	1
100	522	0	10000	4	1	0	4	1
98	523	0	10000	4	1	0	4	1
95	524	0	10000	4	1	0	4	1
92	525	0	10000	4	1	0	4	1
89	526	0	10000	4	1	0	4	1
86	527	0	10000	4	1	0	4	1
86	528	0	10000	4	1	0	4	1
85	529	0	10000	4	1	0	4	1
83	530	0	10000	4	1	0	4	1
85	531	0	10000	4	1	0	4	1
86	532	0	10000	4	1	0	4	1
88	533	0	10000	4	1	0	4	1
90	534	0	10000	4	1	0	4	1
87	535	0	10000	4	1	0	4	1
91	536	0	10000	4	1	0	4	1
96	537	0	10000	4	1	0	4	1
102	538	0	10000	4	1	0	4	1
103	539	0	10000	4	1	0	4	1
101	540	0	10000	4	1	0	4	1
100	541	0	10000	4	1	0	4	1
99	542	0	10000	4	1	0	4	1
97	543	0	10000	4	1	0	4	1
95	544	0	10000	4	1	0	4	1
102	545	0	10000	4	1	0	4	1
107	546	0	10000	4	1	0	4	1
106	547	0	10000	4	1	0	4	1
105	548	0	10000	4	1	0	4	1
103	549	0	10000	4	1	0	4	1
104	550	0	10000	4	1	0	4	1
101	551	0	10000	4	1	0	4	0
101	552	0	10000	4	1	0	4	0
98	553	0	10000	4	1	0	4	0
96	554	0	10000	4	1	0	4	0
93	555	0	10000	4	1	0	4	0
94	556	0	10000	4	1	0	4	0
93	557	0	10000	4	1	0	4	0
91	558	0	10000	4	1	0	4	0
88	559	0	10000	4	1	0	4	0
85	560	0	10000	4	1	0	4	0
85	561	0	10000	4	1	0	4	0
89	562	0	10000	4	1	0	4	0
85	563	0	10000	4	1	0	4	0
83	564	0	10000	4	1	0	4	0
83	565	0	10000	4	1	0	4	0
87	566	0	10000	4	1	0	4	0
90	567	0	10000	4	1	0	4	0
89	568	0	10000	4	1	0	4	0
88	569	0	10000	4	1	0	4	0
84	570	0	10000	4	1	0	4	0
85	571	0	10000	4	1	0	4	0
84	572	0	10000	4	1	0	4	0
83	573	0	10000	4	1	0	4	0
80	574	0	10000	4	1	0	4	0
79	575	0	10000	4	1	0	4	0
76	576	0	10000	4	1	0	4	0
76	577	0	10000	4	1	0	4	0
80	578	0	10000	4	1	0	4	0
80	579	0	10000	4	1	0	4	0
83	580	0	10000	4	1	0	4	0
89	581	0	10000	4	1	0	4	0
94	582	0	10000	4	1	0	4	0
94	583	0	10000	4	1	0	4	0
96	584	0	10000	4	1	0	4	0
104	585	0	10000	4	1	0	4	0
108	586	0	10000	4	1	0	4	0
108	587	0	10000	4	1	0	4	0
107	588	0	10000	4	1	0	4	0
107	589	0	10000	4	1	0	4	0
109	590	0	10000	4	1	0	4	0
104	591	0	10000	4	1	0	4	0
102	592	0	10000	4	1	0	4	0
99	593	0	10000	4	1	0	4	0
99	594	0	10000	4	1	0	4	0
97	595	0	10000	4	1	0	4	0
95	596	0	10000	4	1	0	4	0
96	597	0	10000	4	1	0	4	0
106	598	0	10000	4	1	0	4	0
122	599	0	10000	4	1	0	4	0
125	600	0	10000	4	1	0	4	0
146	601	0	10000	4	1	0	4	0
166	602	0	10000	4	1	0	4	0
176	603	0	10000	4	1	0	4	0
179	604	0	10000	4	1	0	4	0
175	605	0	10000	4	1	0	4	0
168	606	0	10000	4	1	0	4	0
165	607	0	10000	4	1	0	4	0
166	608	0	10000	4	1	0	4	0
172	609	0	10000	4	1	0	4	0
174	610	0	10000	4	1	0	4	0
198	611	0	10000	4	1	0	4	0
210	612	0	10000	4	1	0	4	0
208	613	0	10000	4	1	0	4	0
215	614	0	10000	4	1	0	4	0
229	615	0	10000	4	1	0	4	0
237	616	0	10000	4	1	0	4	0
233	617	0	10000	4	1	0	4	0
241	618	0	10000	4	1	0	4	0
240	619	0	10000	4	1	0	4	0
243	620	0	10000	4	1	0	4	0
257	621	0	10000	4	1	0	4	0
253	622	0	10000	4	1	0	4	0
255	623	0	10000	4	1	0	4	0
248	624	0	10000	4	1	0	4	0
248	625	0	10000	4	1	0	4	0
238	626	0	10000	4	1	0	4	0
236	627	0	10000	4	1	0	4	0
259	628	0	10000	4	1	0	4	0
267	629	0	10000	4	1	0	4	0
258	630	0	10000	4	1	0	4	0
246	631	0	10000	4	1	0	4	0
242	632	0	10000	4	1	0	4	0
247	633	0	10000	4	1	0	4	0
251	634	0	10000	4	1	0	4	0
251	635	0	10000	4	1	0	4	0
250	636	0	10000	4	1	0	4	0
246	637	0	10000	4	1	0	4	0
237	638	0	10000	4	1	0	4	0
226	639	0	10000	4	1	0	4	0
223	640	0	10000	4	1	0	4	0
226	641	0	10000	4	1	0	4	0
224	642	0	10000	4	1	0	4	0
218	643	0	10000	4	1	0	4	0
214	644	0	10000	4	1	0	4	0
212	645	0	10000	4	1	0	4	0
214	646	0	10000	4	1	0	4	0
212	647	0	10000	4	1	0	4	0
211	648	0	10000	4	1	0	4	0
207	649	0	10000	4	1	0	4	0
201	650	0	10000	4	1	0	4	0
197	651	0	10000	4	1	0	4	0
193	652	0	10000	4	1	0	4	0
193	653	0	10000	4	1	0	4	0
195	654	0	10000	4	1	0	4	0
191	655	0	10000	4	1	0	4	0
183	656	0	10000	4	1	0	4	0
178	657	0	10000	4	1	0	4	0
174	658	0	10000	4	1	0	4	0
172	659	0	10000	4	1	0	4	0
165	660	0	10000	4	1	0	4	0
160	661	0	10000	4	1	0	4	0
160	662	0	10000	4	1	0	4	0
156	663	0	10000	4	1	0	4	0
153	664	0	10000	4	1	0	4	0
147	665	0	10000	4	1	0	4	0
141	666	0	10000	4	1	0	4	0
138	667	0	10000	4	1	0	4	0
134	668	0	10000	4	1	0	4	0
130	669	0	10000	4	1	0	4	0
125	670	0	10000	4	1	0	4	0
124	671	0	10000	4	1	0	4	0
119	672	0	10000	4	1	0	4	0
116	673	0	10000	4	1	0	4	0
113	674	0	10000	4	1	0	4	0
111	675	0	10000	4	1	0	4	0
109	676	0	10000	4	1	0	4	0
106	677	0	10000	4	1	0	4	0
102	678	0	10000	4	1	0	4	0
100	679	0	10000	4	1	0	4	0
97	680	0	10000	4	1	0	4	0
96	681	0	10000	4	1	0	4	0
96	682	0	10000	4	1	0	4	0
95	683	0	10000	4	1	0	4	0
96	684	0	10000	4	1	0	4	0
93	685	0	10000	4	1	0	4	0
95	686	0	10000	4	1	0	4	0
103	687	0	10000	4	1	0	4	0
103	688	0	10000	4	1	0	4	0
101	689	0	10000	4	1	0	4	0
99	690	0	10000	4	1	0	4	0
95	691	0	10000	4	1	0	4	0
91	692	0	10000	4	1	0	4	0
88	693	0	10000	4	1	0	4	0
85	694	0	10000	4	1	0	4	0
85	695	0	10000	4	1	0	4	0
83	696	0	10000	4	1	0	4	0
84	697	0	10000	4	1	0	4	0
90	698	0	10000	4	1	0	4	0
96	699	0	10000	4	1	0	4	0
94	700	0	10000	4	1	0	4	0
97	701	0	10000	4	1	0	4	0
102	702	0	10000	4	1	0	4	0
103	703	0	10000	4	1	0	4	0
101	704	0	10000	4	1	0	4	0
98	705	0	10000	4	1	0	4	0
95	706	0	10000	4	1	0	4	0
93	707	0	10000	4	1	0	4	0
92	708	0	10000	4	1	0	4	0
96	709	0	10000	4	1	0	4	0
106	710	0	10000	4	1	0	4	0
113	711	0	10000	4	1	0	4	0
109	712	0	10000	4	1	0	4	0
108	713	0	10000	4	1	0	4	0
104	714	0	10000	4	1	0	4	0
102	715	0	10000	4	1	0	4	0
101	716	0	10000	4	1	0	4	0
106	717	0	10000	4	1	0	4	0
109	718	0	10000	4	1	0	4	0
112	719	0	10000	4	1	0	4	0
111	720	0	10000	4	1	0	4	0
109	721	0	10000	4	1	0	4	0
108	722	0	10000	4	1	0	4	0
113	723	0	10000	4	1	0	4	0
122	724	0	10000	4	1	0	4	0
121	725	0	10000	4	1	0	4	0
118	726	0	10000	4	1	0	4	0
119	727	0	10000	4	1	0	4	0
125	728	0	10000	4	1	0	4	0
128	729	0	10000	4	1	0	4	0
131	730	0	10000	4	1	0	4	0
128	731	0	10000	4	1	0	4	0
125	732	0	10000	4	1	0	4	0
123	733	0	10000	4	1	0	4	0
121	734	0	10000	4	1	0	4	0
118	735	0	10000	4	1	0	4	0
116	736	0	10000	4	1	0	4	0
116	737	0	10000	4	1	0	4	0
119	738	0	10000	4	1	0	4	0
124	739	0	10000	4	1	0	4	0
124	740	0	10000	4	1	0	4	0
121	741	0	10000	4	1	0	4	0
126	742	0	10000	4	1	0	4	0
137	743	0	10000	4	1	0	4	0
141	744	0	10000	4	1	0	4	0
139	745	0	10000	4	1	0	4	0
134	746	0	10000	4	1	0	4	0
131	747	0	10000	4	1	0	4	0
129	748	0	10000	4	1	0	4	0
126	749	0	10000	4	1	0	4	0
124	750	0	10000	4	1	0	4	0
121	751	0	10000	4	1	0	4	0
120	752	0	10000	4	1	0	4	0
121	753	0	10000	4	1	0	4	0
117	754	0	10000	4	1	0	4	0
124	755	0	10000	4	1	0	4	0
133	756	0	10000	4	1	0	4	0
136	757	0	10000	4	1	0	4	0
132	758	0	10000	4	1	0	4	0
126	759	0	10000	4	1	0	4	0
125	760	0	10000	4	1	0	4	0
124	761	0	10000	4	1	0	4	0
122	762	0	10000	4	1	0	4	0
121	763	0	10000	4	1	0	4	0
121	764	0	10000	4	1	0	4	0
123	765	0	10000	4	1	0	4	0
125	766	0	10000	4	1	0	4	0
121	767	0	10000	4	1	0	4	0
117	768	0	10000	4	1	0	4	0
114	769	0	10000	4	1	0	4	0
112	770	0	10000	4	1	0	4	0
116	771	0	10000	4	1	0	4	0
117	772	0	10000	4	1	0	4	0
119	773	0	10000	4	1	0	4	0
121	774	0	10000	4	1	0	4	0
118	775	0	10000	4	1	0	4	0
117	776	0	10000	4	1	0	4	0
119	777	0	10000	4	1	0	4	0
121	778	0	10000	4	1	0	4	0
119	779	0	10000	4	1	0	4	0
117	780	0	10000	4	1	0	4	0
116	781	0	10000	4	1	0	4	0
114	782	0	10000	4	1	0	4	0
113	783	0	10000	4	1	0	4	0
112	784	0	10000	4	1	0	4	0
110	785	0	10000	4	1	0	4	0
110	786	0	10000	4	1	0	4	0
105	787	0	10000	4	1	0	4	0
101	788	0	10000	4	1	0	4	0
98	789	0	10000	4	1	0	4	0
99	790	0	10000	4	1	0	4	0
100	791	0	10000	4	1	0	4	0
101	792	0	10000	4	1	0	4	0
97	793	0	10000	4	1	0	4	0
100	794	0	10000	4	1	0	4	0
106	795	0	10000	4	1	0	4	0
111	796	0	10000	4	1	0	4	0
109	797	0	10000	4	1	0	4	0
111	798	0	10000	4	1	0	4	0
113	799	0	10000	4	1	0	4	0
112	800	0	10000	4	1	0	4	0
107	801	0	10000	4	1	0	4	0
105	802	0	10000	4	1	0	4	0
103	803	0	10000	4	1	0	4	0
103	804	0	10000	4	1	0	4	0
102	805	0	10000	4	1	0	4	0
99	806	0	10000	4	1	0	4	0
97	807	0	10000	4	1	0	4	0
97	808	0	10000	4	1	0	4	0
98	809	0	10000	4	1	0	4	0
95	810	0	10000	4	1	0	4	0
92	811	0	10000	4	1	0	4	0
88	812	0	10000	4	1	0	4	0
90	813	0	10000	4	1	0	4	0
94	814	0	10000	4	1	0	4	0
95	815	0	10000	4	1	0	4	0
94	816	0	10000	4	1	0	4	0
98	817	0	10000	4	1	0	4	0
101	818	0	10000	4	1	0	4	0
99	819	0	10000	4	1	0	4	0
108	820	0	10000	4	1	0	4	0
122	821	0	10000	4	1	0	4	0
138	822	0	10000	4	1	0	4	0
141	823	0	10000	4	1	0	4	0
139	824	0	10000	4	1	0	4	0
136	825	0	10000	4	1	0	4	0
132	826	0	10000	4	1	0	4	0
131	827	0	10000	4	1	0	4	0
127	828	0	10000	4	1	0	4	0
126	829	0	10000	4	1	0	4	0
130	830	0	10000	4	1	0	4	0
132	831	0	10000	4	1	0	4	0
132	832	0	10000	4	1	0	4	0
131	833	0	10000	4	1	0	4	0
128	834	0	10000	4	1	0	4	0
130	835	0	10000	4	1	0	4	0
128	836	0	10000	4	1	0	4	0
126	837	0	10000	4	1	0	4	0
128	838	0	10000	4	1	0	4	0
132	839	0	10000	4	1	0	4	0
140	840	0	10000	4	1	0	4	0
145	841	0	10000	4	1	0	4	0
142	842	0	10000	4	1	0	4	0
150	843	0	10000	4	1	0	4	0
153	844	0	10000	4	1	0	4	0
151	845	0	10000	4	1	0	4	0
143	846	0	10000	4	1	0	4	0
143	847	0	10000	4	1	0	4	0
142	848	0	10000	4	1	0	4	0
143	849	0	10000	4	1	0	4	0
149	850	0	10000	4	1	0	4	0
145	851	0	10000	4	1	0	4	0
139	852	0	10000	4	1	0	4	0
135	853	0	10000	4	1	0	4	0
129	854	0	10000	4	1	0	4	0
126	855	0	10000	4	1	0	4	0
123	856	0	10000	4	1	0	4	0
124	857	0	10000	4	1	0	4	0
127	858	0	10000	4	1	0	4	0
134	859	0	10000	4	1	0	4	0
140	860	0	10000	4	1	0	4	0
141	861	0	10000	4	1	0	4	0
140	862	0	10000	4	1	0	4	0
139	863	0	10000	4	1	0	4	0
134	864	0	10000	4	1	0	4	0
128	865	0	10000	4	1	0	4	0
124	866	0	10000	4	1	0	4	0
119	867	0	10000	4	1	0	4	0
118	868	0	10000	4	1	0	4	0
120	869	0	10000	4	1	0	4	0
125	870	0	10000	4	1	0	4	0
132	871	0	10000	4	1	0	4	0
133	872	0	10000	4	1	0	4	0
132	873	0	10000	4	1	0	4	0
129	874	0	10000	4	1	0	4	0
131	875	0	10000	4	1	0	4	0
146	876	0	10000	4	1	0	4	0
163	877	0	10000	4	1	0	4	0
168	878	0	10000	4	1	0	4	0
165	879	0	10000	4	1	0	4	0
163	880	0	10000	4	1	0	4	0
161	881	0	10000	4	1	0	4	0
158	882	0	10000	4	1	0	4	0
151	883	0	10000	4	1	0	4	0
149	884	0	10000	4	1	0	4	0
144	885	0	10000	4	1	0	4	0
139	886	0	10000	4	1	0	4	0
137	887	0	10000	4	1	0	4	0
138	888	0	10000	4	1	0	4	0
135	889	0	10000	4	1	0	4	0
131	890	0	10000	4	1	0	4	0
126	891	0	10000	4	1	0	4	0
124	892	0	10000	4	1	0	4	0
126	893	0	10000	4	1	0	4	0
124	894	0	10000	4	1	0	4	0
121	895	0	10000	4	1	0	4	0
118	896	0	10000	4	1	0	4	0
120	897	0	10000	4	1	0	4	0
126	898	0	10000	4	1	0	4	0
126	899	0	10000	4	1	0	4	0
135	900	0	10000	4	1	0	4	0
149	901	0	10000	4	1	0	4	0
152	902	0	10000	4	1	0	4	0
148	903	0	10000	4	1	0	4	0
145	904	0	10000	4	1	0	4	0
147	905	0	10000	4	1	0	4	0
147	906	0	10000	4	1	0	4	0
143	907	0	10000	4	1	0	4	0
137	908	0	10000	4	1	0	4	0
133	909	0	10000	4	1	0	4	0
131	910	0	10000	4	1	0	4	0
126	911	0	10000	4	1	0	4	0
120	912	0	10000	4	1	0	4	0
120	913	0	10000	4	1	0	4	0
117	914	0	10000	4	1	0	4	0
116	915	0	10000	4	1	0	4	0
114	916	0	10000	4	1	0	4	0
114	917	0	10000	4	1	0	4	0
115	918	0	10000	4	1	0	4	0
110	919	0	10000	4	1	0	4	0
116	920	0	10000	4	1	0	4	0
118	921	0	10000	4	1	0	4	0
120	922	0	10000	4	1	0	4	0
119	923	0	10000	4	1	0	4	0
116	924	0	10000	4	1	0	4	0
111	925	0	10000	4	1	0	4	0
108	926	0	10000	4	1	0	4	0
106	927	0	10000	4	1	0	4	0
105	928	0	10000	4	1	0	4	0
111	929	0	10000	4	1	0	4	0
112	930	0	10000	4	1	0	4	0
114	931	0	10000	4	1	0	4	0
124	932	0	10000	4	1	0	4	0
128	933	0	10000	4	1	0	4	0
126	934	0	10000	4	1	0	4	0
128	935	0	10000	4	1	0	4	0
138	936	0	10000	4	1	0	4	0
149	937	0	10000	4	1	0	4	0
159	938	0	10000	4	1	0	4	0
159	939	0	10000	4	1	0	4	0
162	940	0	10000	4	1	0	4	0
173	941	0	10000	4	1	0	4	0
177	942	0	10000	4	1	0	4	0
177	943	0	10000	4	1	0	4	0
171	944	0	10000	4	1	0	4	0
165	945	0	10000	4	1	0	4	0
164	946	0	10000	4	1	0	4	0
159	947	0	10000	4	1	0	4	0
155	948	0	10000	4	1	0	4	0
148	949	0	10000	4	1	0	4	0
146	950	0	10000	4	1	0	4	0
139	951	0	10000	4	1	0	4	0
133	952	0	10000	4	1	0	4	0
131	953	0	10000	4	1	0	4	0
127	954	0	10000	4	1	0	4	0
125	955	0	10000	4	1	0	4	0
121	956	0	10000	4	1	0	4	0
117	957	0	10000	4	1	0	4	0
115	958	0	10000	4	1	0	4	0
113	959	0	10000	4	1	0	4	0
114	960	0	10000	4	1	0	4	0
123	961	0	10000	4	1	0	4	0
138	962	0	10000	4	1	0	4	0
147	963	0	10000	4	1	0	4	0
145	964	0	10000	4	1	0	4	0
146	965	0	10000	4	1	0	4	0
143	966	0	10000	4	1	0	4	0
137	967	0	10000	4	1	0	4	0
132	968	0	10000	4	1	0	4	0
128	969	0	10000	4	1	0	4	0
123	970	0	10000	4	1	0	4	0
121	971	0	10000	4	1	0	4	0
123	972	0	10000	4	1	0	4	0
126	973	0	10000	4	1	0	4	0
123	974	0	10000	4	1	0	4	0
120	975	0	10000	4	1	0	4	0
116	976	0	10000	4	1	0	4	0
113	977	0	10000	4	1	0	4	0
111	978	0	10000	4	1	0	4	0
108	979	0	10000	4	1	0	4	0
109	980	0	10000	4	1	0	4	0
110	981	0	10000	4	1	0	4	0
114	982	0	10000	4	1	0	4	0
114	983	0	10000	4	1	0	4	0
116	984	0	10000	4	1	0	4	0
120	985	0	10000	4	1	0	4	0
120	986	0	10000	4	1	0	4	0
125	987	0	10000	4	1	0	4	0
142	988	0	10000	4	1	0	4	0
150	989	0	10000	4	1	0	4	0
147	990	0	10000	4	1	0	4	0
147	991	0	10000	4	1	0	4	0
143	992	0	10000	4	1	0	4	0
140	993	0	10000	4	1	0	4	0
138	994	0	10000	4	1	0	4	0
142	995	0	10000	4	1	0	4	0
147	996	0	10000	4	1	0	4	0
147	997	0	10000	4	1	0	4	0
142	998	0	10000	4	1	0	4	0
138	999	0	10000	4	1	0	4	0
133	1000	0	10000	4	1	0	4	0
61	1	1	10000	5	1	0	5	0
62	2	1	10000	5	1	0	5	0
59	3	1	10000	5	1	0	5	0
59	4	1	10000	5	1	0	5	0
57	5	1	10000	5	1	0	5	0
59	6	1	10000	5	1	0	5	0
60	7	1	10000	5	1	0	5	0
59	8	1	10000	5	1	0	5	0
58	9	1	10000	5	1	0	5	0
57	10	1	10000	5	1	0	5	0
58	11	1	10000	5	1	0	5	0
56	12	1	10000	5	1	0	5	0
57	13	1	10000	5	1	0	5	0
56	14	1	10000	5	1	0	5	0
56	15	1	10000	5	1	0	5	0
54	16	1	10000	5	1	0	5	0
53	17	1	10000	5	1	0	5	0
52	18	1	10000	5	1	0	5	0
52	19	1	10000	5	1	0	5	0
51	20	1	10000	5	1	0	5	0
51	21	1	10000	5	1	0	5	0
50	22	1	10000	5	1	0	5	0
48	23	1	10000	5	1	0	5	0
47	24	1	10000	5	1	0	5	0
48	25	1	10000	5	1	0	5	0
46	26	1	10000	5	1	0	5	0
47	27	1	10000	5	1	0	5	0
47	28	1	10000	5	1	0	5	0
47	29	1	10000	5	1	0	5	0
45	30	1	10000	5	1	0	5	0
48	31	1	10000	5	1	0	5	0
49	32	1	10000	5	1	0	5	0
53	33	1	10000	5	1	0	5	0
56	34	1	10000	5	1	0	5	0
56	35	1	10000	5	1	0	5	0
55	36	1	10000	5	1	0	5	0
54	37	1	10000	5	1	0	5	0
55	38	1	10000	5	1	0	5	0
53	39	1	10000	5	1	0	5	0
54	40	1	10000	5	1	0	5	0
55	41	1	10000	5	1	0	5	0
54	42	1	10000	5	1	0	5	0
51	43	1	10000	5	1	0	5	0
49	44	1	10000	5	1	0	5	0
49	45	1	10000	5	1	0	5	0
48	46	1	10000	5	1	0	5	0
47	47	1	10000	5	1	0	5	0
47	48	1	10000	5	1	0	5	0
45	49	1	10000	5	1	0	5	0
45	50	1	10000	5	1	0	5	0
44	51	1	10000	5	1	0	5	0
43	52	1	10000	5	1	0	5	0
44	53	1	10000	5	1	0	5	0
44	54	1	10000	5	1	0	5	0
44	55	1	10000	5	1	0	5	0
44	56	1	10000	5	1	0	5	0
43	57	1	10000	5	1	0	5	0
42	58	1	10000	5	1	0	5	0
41	59	1	10000	5	1	0	5	0
41	60	1	10000	5	1	0	5	0
42	61	1	10000	5	1	0	5	0
42	62	1	10000	5	1	0	5	0
42	63	1	10000	5	1	0	5	0
44	64	1	10000	5	1	0	5	0
44	65	1	10000	5	1	0	5	0
44	66	1	10000	5	1	0	5	0
43	67	1	10000	5	1	0	5	0
41	68	1	10000	5	1	0	5	0
43	69	1	10000	5	1	0	5	0
42	70	1	10000	5	1	0	5	0
42	71	1	10000	5	1	0	5	0
42	72	1	10000	5	1	0	5	0
46	73	1	10000	5	1	0	5	0
49	74	1	10000	5	1	0	5	0
50	75	1	10000	5	1	0	5	0
50	76	1	10000	5	1	0	5	0
48	77	1	10000	5	1	0	5	0
47	78	1	10000	5	1	0	5	0
46	79	1	10000	5	1	0	5	0
46	80	1	10000	5	1	0	5	0
46	81	1	10000	5	1	0	5	0
45	82	1	10000	5	1	0	5	0
43	83	1	10000	5	1	0	5	0
45	84	1	10000	5	1	0	5	0
48	85	1	10000	5	1	0	5	0
50	86	1	10000	5	1	0	5	0
49	87	1	10000	5	1	0	5	0
55	88	1	10000	5	1	0	5	0
62	89	1	10000	5	1	0	5	0
64	90	1	10000	5	1	0	5	0
66	91	1	10000	5	1	0	5	0
65	92	1	10000	5	1	0	5	0
65	93	1	10000	5	1	0	5	0
64	94	1	10000	5	1	0	5	0
64	95	1	10000	5	1	0	5	0
63	96	1	10000	5	1	0	5	0
63	97	1	10000	5	1	0	5	0
60	98	1	10000	5	1	0	5	0
61	99	1	10000	5	1	0	5	0
61	100	1	10000	5	1	0	5	0
60	101	1	10000	5	1	0	5	0
58	102	1	10000	5	1	0	5	0
58	103	1	10000	5	1	0	5	0
59	104	1	10000	5	1	0	5	0
57	105	1	10000	5	1	0	5	0
56	106	1	10000	5	1	0	5	0
55	107	1	10000	5	1	0	5	0
54	108	1	10000	5	1	0	5	0
53	109	1	10000	5	1	0	5	0
51	110	1	10000	5	1	0	5	0
49	111	1	10000	5	1	0	5	0
47	112	1	10000	5	1	0	5	0
49	113	1	10000	5	1	0	5	0
48	114	1	10000	5	1	0	5	0
47	115	1	10000	5	1	0	5	0
47	116	1	10000	5	1	0	5	0
47	117	1	10000	5	1	0	5	0
45	118	1	10000	5	1	0	5	0
44	119	1	10000	5	1	0	5	0
44	120	1	10000	5	1	0	5	0
43	121	1	10000	5	1	0	5	0
43	122	1	10000	5	1	0	5	0
42	123	1	10000	5	1	0	5	0
42	124	1	10000	5	1	0	5	0
40	125	1	10000	5	1	0	5	0
42	126	1	10000	5	1	0	5	0
42	127	1	10000	5	1	0	5	0
42	128	1	10000	5	1	0	5	0
45	129	1	10000	5	1	0	5	0
46	130	1	10000	5	1	0	5	0
44	131	1	10000	5	1	0	5	0
43	132	1	10000	5	1	0	5	0
44	133	1	10000	5	1	0	5	0
44	134	1	10000	5	1	0	5	0
46	135	1	10000	5	1	0	5	0
47	136	1	10000	5	1	0	5	0
52	137	1	10000	5	1	0	5	0
55	138	1	10000	5	1	0	5	0
53	139	1	10000	5	1	0	5	0
54	140	1	10000	5	1	0	5	0
61	141	1	10000	5	1	0	5	0
65	142	1	10000	5	1	0	5	0
64	143	1	10000	5	1	0	5	0
64	144	1	10000	5	1	0	5	0
62	145	1	10000	5	1	0	5	0
61	146	1	10000	5	1	0	5	0
60	147	1	10000	5	1	0	5	0
61	148	1	10000	5	1	0	5	0
61	149	1	10000	5	1	0	5	0
59	150	1	10000	5	1	0	5	0
58	151	1	10000	5	1	0	5	0
58	152	1	10000	5	1	0	5	0
60	153	1	10000	5	1	0	5	0
58	154	1	10000	5	1	0	5	0
56	155	1	10000	5	1	0	5	0
57	156	1	10000	5	1	0	5	0
58	157	1	10000	5	1	0	5	0
58	158	1	10000	5	1	0	5	0
59	159	1	10000	5	1	0	5	0
61	160	1	10000	5	1	0	5	0
60	161	1	10000	5	1	0	5	0
60	162	1	10000	5	1	0	5	0
56	163	1	10000	5	1	0	5	0
55	164	1	10000	5	1	0	5	0
54	165	1	10000	5	1	0	5	0
52	166	1	10000	5	1	0	5	0
50	167	1	10000	5	1	0	5	0
49	168	1	10000	5	1	0	5	0
53	169	1	10000	5	1	0	5	0
55	170	1	10000	5	1	0	5	0
56	171	1	10000	5	1	0	5	0
57	172	1	10000	5	1	0	5	0
58	173	1	10000	5	1	0	5	0
57	174	1	10000	5	1	0	5	0
56	175	1	10000	5	1	0	5	0
57	176	1	10000	5	1	0	5	0
56	177	1	10000	5	1	0	5	0
55	178	1	10000	5	1	0	5	0
54	179	1	10000	5	1	0	5	0
55	180	1	10000	5	1	0	5	0
53	181	1	10000	5	1	0	5	0
53	182	1	10000	5	1	0	5	0
50	183	1	10000	5	1	0	5	0
50	184	1	10000	5	1	0	5	0
49	185	1	10000	5	1	0	5	0
51	186	1	10000	5	1	0	5	0
50	187	1	10000	5	1	0	5	0
49	188	1	10000	5	1	0	5	0
48	189	1	10000	5	1	0	5	0
47	190	1	10000	5	1	0	5	0
47	191	1	10000	5	1	0	5	0
46	192	1	10000	5	1	0	5	0
50	193	1	10000	5	1	0	5	0
52	194	1	10000	5	1	0	5	0
54	195	1	10000	5	1	0	5	0
57	196	1	10000	5	1	0	5	0
56	197	1	10000	5	1	0	5	0
55	198	1	10000	5	1	0	5	0
53	199	1	10000	5	1	0	5	0
53	200	1	10000	5	1	0	5	0
55	201	1	10000	5	1	0	5	0
56	202	1	10000	5	1	0	5	0
56	203	1	10000	5	1	0	5	0
54	204	1	10000	5	1	0	5	0
52	205	1	10000	5	1	0	5	0
52	206	1	10000	5	1	0	5	0
50	207	1	10000	5	1	0	5	0
49	208	1	10000	5	1	0	5	0
49	209	1	10000	5	1	0	5	0
47	210	1	10000	5	1	0	5	0
45	211	1	10000	5	1	0	5	0
45	212	1	10000	5	1	0	5	0
46	213	1	10000	5	1	0	5	0
44	214	1	10000	5	1	0	5	0
44	215	1	10000	5	1	0	5	0
44	216	1	10000	5	1	0	5	0
43	217	1	10000	5	1	0	5	0
41	218	1	10000	5	1	0	5	0
41	219	1	10000	5	1	0	5	0
41	220	1	10000	5	1	0	5	0
44	221	1	10000	5	1	0	5	0
50	222	1	10000	5	1	0	5	0
53	223	1	10000	5	1	0	5	0
55	224	1	10000	5	1	0	5	0
53	225	1	10000	5	1	0	5	0
52	226	1	10000	5	1	0	5	0
51	227	1	10000	5	1	0	5	0
51	228	1	10000	5	1	0	5	0
53	229	1	10000	5	1	0	5	0
54	230	1	10000	5	1	0	5	0
54	231	1	10000	5	1	0	5	0
54	232	1	10000	5	1	0	5	0
54	233	1	10000	5	1	0	5	0
53	234	1	10000	5	1	0	5	0
51	235	1	10000	5	1	0	5	0
52	236	1	10000	5	1	0	5	0
53	237	1	10000	5	1	0	5	0
54	238	1	10000	5	1	0	5	0
52	239	1	10000	5	1	0	5	0
51	240	1	10000	5	1	0	5	0
50	241	1	10000	5	1	0	5	0
50	242	1	10000	5	1	0	5	0
46	243	1	10000	5	1	0	5	0
46	244	1	10000	5	1	0	5	0
48	245	1	10000	5	1	0	5	0
47	246	1	10000	5	1	0	5	0
47	247	1	10000	5	1	0	5	0
45	248	1	10000	5	1	0	5	0
46	249	1	10000	5	1	0	5	0
44	250	1	10000	5	1	0	5	0
44	251	1	10000	5	1	0	5	0
43	252	1	10000	5	1	0	5	0
43	253	1	10000	5	1	0	5	0
47	254	1	10000	5	1	0	5	0
49	255	1	10000	5	1	0	5	0
47	256	1	10000	5	1	0	5	0
47	257	1	10000	5	1	0	5	0
48	258	1	10000	5	1	0	5	0
47	259	1	10000	5	1	0	5	0
47	260	1	10000	5	1	0	5	0
47	261	1	10000	5	1	0	5	0
49	262	1	10000	5	1	0	5	0
47	263	1	10000	5	1	0	5	0
48	264	1	10000	5	1	0	5	0
48	265	1	10000	5	1	0	5	0
48	266	1	10000	5	1	0	5	0
48	267	1	10000	5	1	0	5	0
46	268	1	10000	5	1	0	5	0
46	269	1	10000	5	1	0	5	0
45	270	1	10000	5	1	0	5	0
45	271	1	10000	5	1	0	5	0
43	272	1	10000	5	1	0	5	0
44	273	1	10000	5	1	0	5	0
44	274	1	10000	5	1	0	5	0
43	275	1	10000	5	1	0	5	0
43	276	1	10000	5	1	0	5	0
41	277	1	10000	5	1	0	5	0
41	278	1	10000	5	1	0	5	0
40	279	1	10000	5	1	0	5	0
40	280	1	10000	5	1	0	5	0
40	281	1	10000	5	1	0	5	0
43	282	1	10000	5	1	0	5	0
42	283	1	10000	5	1	0	5	0
43	284	1	10000	5	1	0	5	0
42	285	1	10000	5	1	0	5	0
44	286	1	10000	5	1	0	5	0
45	287	1	10000	5	1	0	5	0
48	288	1	10000	5	1	0	5	0
48	289	1	10000	5	1	0	5	0
46	290	1	10000	5	1	0	5	0
45	291	1	10000	5	1	0	5	0
46	292	1	10000	5	1	0	5	0
49	293	1	10000	5	1	0	5	0
49	294	1	10000	5	1	0	5	0
50	295	1	10000	5	1	0	5	0
49	296	1	10000	5	1	0	5	0
48	297	1	10000	5	1	0	5	0
48	298	1	10000	5	1	0	5	0
49	299	1	10000	5	1	0	5	0
54	300	1	10000	5	1	0	5	0
57	301	1	10000	5	1	0	5	0
60	302	1	10000	5	1	0	5	0
57	303	1	10000	5	1	0	5	0
57	304	1	10000	5	1	0	5	0
55	305	1	10000	5	1	0	5	0
56	306	1	10000	5	1	0	5	0
55	307	1	10000	5	1	0	5	0
54	308	1	10000	5	1	0	5	0
52	309	1	10000	5	1	0	5	0
51	310	1	10000	5	1	0	5	0
50	311	1	10000	5	1	0	5	0
51	312	1	10000	5	1	0	5	0
52	313	1	10000	5	1	0	5	0
51	314	1	10000	5	1	0	5	0
51	315	1	10000	5	1	0	5	0
50	316	1	10000	5	1	0	5	0
48	317	1	10000	5	1	0	5	0
48	318	1	10000	5	1	0	5	0
48	319	1	10000	5	1	0	5	0
51	320	1	10000	5	1	0	5	0
51	321	1	10000	5	1	0	5	0
51	322	1	10000	5	1	0	5	0
47	323	1	10000	5	1	0	5	0
48	324	1	10000	5	1	0	5	0
47	325	1	10000	5	1	0	5	0
46	326	1	10000	5	1	0	5	0
47	327	1	10000	5	1	0	5	0
46	328	1	10000	5	1	0	5	0
45	329	1	10000	5	1	0	5	0
44	330	1	10000	5	1	0	5	0
43	331	1	10000	5	1	0	5	0
43	332	1	10000	5	1	0	5	0
46	333	1	10000	5	1	0	5	0
45	334	1	10000	5	1	0	5	0
44	335	1	10000	5	1	0	5	0
43	336	1	10000	5	1	0	5	0
44	337	1	10000	5	1	0	5	0
44	338	1	10000	5	1	0	5	0
42	339	1	10000	5	1	0	5	0
42	340	1	10000	5	1	0	5	0
45	341	1	10000	5	1	0	5	0
49	342	1	10000	5	1	0	5	0
47	343	1	10000	5	1	0	5	0
47	344	1	10000	5	1	0	5	0
46	345	1	10000	5	1	0	5	0
45	346	1	10000	5	1	0	5	0
45	347	1	10000	5	1	0	5	0
45	348	1	10000	5	1	0	5	0
46	349	1	10000	5	1	0	5	0
44	350	1	10000	5	1	0	5	0
44	351	1	10000	5	1	0	5	0
44	352	1	10000	5	1	0	5	0
45	353	1	10000	5	1	0	5	0
43	354	1	10000	5	1	0	5	0
42	355	1	10000	5	1	0	5	0
41	356	1	10000	5	1	0	5	0
43	357	1	10000	5	1	0	5	0
41	358	1	10000	5	1	0	5	0
41	359	1	10000	5	1	0	5	0
41	360	1	10000	5	1	0	5	0
41	361	1	10000	5	1	0	5	0
40	362	1	10000	5	1	0	5	0
38	363	1	10000	5	1	0	5	0
39	364	1	10000	5	1	0	5	0
38	365	1	10000	5	1	0	5	0
38	366	1	10000	5	1	0	5	0
38	367	1	10000	5	1	0	5	0
37	368	1	10000	5	1	0	5	0
37	369	1	10000	5	1	0	5	0
39	370	1	10000	5	1	0	5	0
42	371	1	10000	5	1	0	5	0
42	372	1	10000	5	1	0	5	0
43	373	1	10000	5	1	0	5	0
44	374	1	10000	5	1	0	5	0
45	375	1	10000	5	1	0	5	0
44	376	1	10000	5	1	0	5	0
43	377	1	10000	5	1	0	5	0
43	378	1	10000	5	1	0	5	0
41	379	1	10000	5	1	0	5	0
44	380	1	10000	5	1	0	5	0
43	381	1	10000	5	1	0	5	0
44	382	1	10000	5	1	0	5	0
45	383	1	10000	5	1	0	5	0
48	384	1	10000	5	1	0	5	0
48	385	1	10000	5	1	0	5	0
48	386	1	10000	5	1	0	5	0
46	387	1	10000	5	1	0	5	0
46	388	1	10000	5	1	0	5	0
46	389	1	10000	5	1	0	5	0
45	390	1	10000	5	1	0	5	0
43	391	1	10000	5	1	0	5	0
43	392	1	10000	5	1	0	5	0
45	393	1	10000	5	1	0	5	0
44	394	1	10000	5	1	0	5	0
42	395	1	10000	5	1	0	5	0
42	396	1	10000	5	1	0	5	0
42	397	1	10000	5	1	0	5	0
41	398	1	10000	5	1	0	5	0
42	399	1	10000	5	1	0	5	0
43	400	1	10000	5	1	0	5	0
42	401	1	10000	5	1	0	5	0
41	402	1	10000	5	1	0	5	0
42	403	1	10000	5	1	0	5	0
42	404	1	10000	5	1	0	5	0
42	405	1	10000	5	1	0	5	0
42	406	1	10000	5	1	0	5	0
44	407	1	10000	5	1	0	5	0
47	408	1	10000	5	1	0	5	0
48	409	1	10000	5	1	0	5	0
47	410	1	10000	5	1	0	5	0
46	411	1	10000	5	1	0	5	0
45	412	1	10000	5	1	0	5	0
47	413	1	10000	5	1	0	5	0
49	414	1	10000	5	1	0	5	0
50	415	1	10000	5	1	0	5	0
52	416	1	10000	5	1	0	5	0
52	417	1	10000	5	1	0	5	0
51	418	1	10000	5	1	0	5	0
51	419	1	10000	5	1	0	5	0
53	420	1	10000	5	1	0	5	0
57	421	1	10000	5	1	0	5	0
57	422	1	10000	5	1	0	5	0
55	423	1	10000	5	1	0	5	0
54	424	1	10000	5	1	0	5	0
54	425	1	10000	5	1	0	5	0
54	426	1	10000	5	1	0	5	0
51	427	1	10000	5	1	0	5	0
51	428	1	10000	5	1	0	5	0
50	429	1	10000	5	1	0	5	0
48	430	1	10000	5	1	0	5	0
48	431	1	10000	5	1	0	5	0
47	432	1	10000	5	1	0	5	0
48	433	1	10000	5	1	0	5	0
46	434	1	10000	5	1	0	5	0
45	435	1	10000	5	1	0	5	0
44	436	1	10000	5	1	0	5	0
44	437	1	10000	5	1	0	5	0
43	438	1	10000	5	1	0	5	0
42	439	1	10000	5	1	0	5	0
44	440	1	10000	5	1	0	5	0
45	441	1	10000	5	1	0	5	0
48	442	1	10000	5	1	0	5	0
48	443	1	10000	5	1	0	5	0
47	444	1	10000	5	1	0	5	0
46	445	1	10000	5	1	0	5	0
46	446	1	10000	5	1	0	5	0
44	447	1	10000	5	1	0	5	0
43	448	1	10000	5	1	0	5	0
44	449	1	10000	5	1	0	5	0
42	450	1	10000	5	1	0	5	0
41	451	1	10000	5	1	0	5	0
40	452	1	10000	5	1	0	5	0
42	453	1	10000	5	1	0	5	0
42	454	1	10000	5	1	0	5	0
43	455	1	10000	5	1	0	5	0
43	456	1	10000	5	1	0	5	0
45	457	1	10000	5	1	0	5	0
45	458	1	10000	5	1	0	5	0
44	459	1	10000	5	1	0	5	0
43	460	1	10000	5	1	0	5	0
44	461	1	10000	5	1	0	5	0
45	462	1	10000	5	1	0	5	0
42	463	1	10000	5	1	0	5	0
41	464	1	10000	5	1	0	5	0
41	465	1	10000	5	1	0	5	0
40	466	1	10000	5	1	0	5	0
40	467	1	10000	5	1	0	5	0
40	468	1	10000	5	1	0	5	0
40	469	1	10000	5	1	0	5	0
40	470	1	10000	5	1	0	5	0
40	471	1	10000	5	1	0	5	0
42	472	1	10000	5	1	0	5	0
44	473	1	10000	5	1	0	5	0
43	474	1	10000	5	1	0	5	0
43	475	1	10000	5	1	0	5	0
42	476	1	10000	5	1	0	5	0
41	477	1	10000	5	1	0	5	0
41	478	1	10000	5	1	0	5	0
40	479	1	10000	5	1	0	5	0
43	480	1	10000	5	1	0	5	0
45	481	1	10000	5	1	0	5	0
44	482	1	10000	5	1	0	5	0
43	483	1	10000	5	1	0	5	0
44	484	1	10000	5	1	0	5	0
45	485	1	10000	5	1	0	5	0
44	486	1	10000	5	1	0	5	0
44	487	1	10000	5	1	0	5	0
43	488	1	10000	5	1	0	5	0
42	489	1	10000	5	1	0	5	0
41	490	1	10000	5	1	0	5	0
40	491	1	10000	5	1	0	5	0
41	492	1	10000	5	1	0	5	0
44	493	1	10000	5	1	0	5	0
43	494	1	10000	5	1	0	5	0
44	495	1	10000	5	1	0	5	0
43	496	1	10000	5	1	0	5	0
43	497	1	10000	5	1	0	5	0
42	498	1	10000	5	1	0	5	0
41	499	1	10000	5	1	0	5	0
41	500	1	10000	5	1	0	5	0
40	501	1	10000	5	1	0	5	1
40	502	1	10000	5	1	0	5	1
38	503	1	10000	5	1	0	5	1
37	504	1	10000	5	1	0	5	1
37	505	1	10000	5	1	0	5	1
38	506	1	10000	5	1	0	5	1
36	507	1	10000	5	1	0	5	1
39	508	1	10000	5	1	0	5	1
38	509	1	10000	5	1	0	5	1
37	510	1	10000	5	1	0	5	1
36	511	1	10000	5	1	0	5	1
37	512	1	10000	5	1	0	5	1
39	513	1	10000	5	1	0	5	1
38	514	1	10000	5	1	0	5	1
38	515	1	10000	5	1	0	5	1
38	516	1	10000	5	1	0	5	1
37	517	1	10000	5	1	0	5	1
37	518	1	10000	5	1	0	5	1
35	519	1	10000	5	1	0	5	1
35	520	1	10000	5	1	0	5	1
35	521	1	10000	5	1	0	5	1
36	522	1	10000	5	1	0	5	1
34	523	1	10000	5	1	0	5	1
35	524	1	10000	5	1	0	5	1
35	525	1	10000	5	1	0	5	1
35	526	1	10000	5	1	0	5	1
35	527	1	10000	5	1	0	5	1
35	528	1	10000	5	1	0	5	1
34	529	1	10000	5	1	0	5	1
34	530	1	10000	5	1	0	5	1
34	531	1	10000	5	1	0	5	1
33	532	1	10000	5	1	0	5	1
35	533	1	10000	5	1	0	5	1
35	534	1	10000	5	1	0	5	1
35	535	1	10000	5	1	0	5	1
35	536	1	10000	5	1	0	5	1
34	537	1	10000	5	1	0	5	1
35	538	1	10000	5	1	0	5	1
35	539	1	10000	5	1	0	5	1
38	540	1	10000	5	1	0	5	1
38	541	1	10000	5	1	0	5	1
38	542	1	10000	5	1	0	5	1
38	543	1	10000	5	1	0	5	1
39	544	1	10000	5	1	0	5	1
39	545	1	10000	5	1	0	5	1
39	546	1	10000	5	1	0	5	1
39	547	1	10000	5	1	0	5	1
39	548	1	10000	5	1	0	5	1
38	549	1	10000	5	1	0	5	1
36	550	1	10000	5	1	0	5	1
36	551	1	10000	5	1	0	5	0
37	552	1	10000	5	1	0	5	0
38	553	1	10000	5	1	0	5	0
37	554	1	10000	5	1	0	5	0
37	555	1	10000	5	1	0	5	0
39	556	1	10000	5	1	0	5	0
43	557	1	10000	5	1	0	5	0
44	558	1	10000	5	1	0	5	0
43	559	1	10000	5	1	0	5	0
43	560	1	10000	5	1	0	5	0
44	561	1	10000	5	1	0	5	0
42	562	1	10000	5	1	0	5	0
41	563	1	10000	5	1	0	5	0
42	564	1	10000	5	1	0	5	0
42	565	1	10000	5	1	0	5	0
46	566	1	10000	5	1	0	5	0
47	567	1	10000	5	1	0	5	0
48	568	1	10000	5	1	0	5	0
49	569	1	10000	5	1	0	5	0
50	570	1	10000	5	1	0	5	0
49	571	1	10000	5	1	0	5	0
49	572	1	10000	5	1	0	5	0
50	573	1	10000	5	1	0	5	0
50	574	1	10000	5	1	0	5	0
50	575	1	10000	5	1	0	5	0
49	576	1	10000	5	1	0	5	0
49	577	1	10000	5	1	0	5	0
48	578	1	10000	5	1	0	5	0
46	579	1	10000	5	1	0	5	0
46	580	1	10000	5	1	0	5	0
46	581	1	10000	5	1	0	5	0
45	582	1	10000	5	1	0	5	0
44	583	1	10000	5	1	0	5	0
44	584	1	10000	5	1	0	5	0
43	585	1	10000	5	1	0	5	0
44	586	1	10000	5	1	0	5	0
43	587	1	10000	5	1	0	5	0
42	588	1	10000	5	1	0	5	0
42	589	1	10000	5	1	0	5	0
42	590	1	10000	5	1	0	5	0
40	591	1	10000	5	1	0	5	0
40	592	1	10000	5	1	0	5	0
41	593	1	10000	5	1	0	5	0
40	594	1	10000	5	1	0	5	0
41	595	1	10000	5	1	0	5	0
40	596	1	10000	5	1	0	5	0
40	597	1	10000	5	1	0	5	0
41	598	1	10000	5	1	0	5	0
41	599	1	10000	5	1	0	5	0
46	600	1	10000	5	1	0	5	0
49	601	1	10000	5	1	0	5	0
49	602	1	10000	5	1	0	5	0
46	603	1	10000	5	1	0	5	0
45	604	1	10000	5	1	0	5	0
47	605	1	10000	5	1	0	5	0
47	606	1	10000	5	1	0	5	0
48	607	1	10000	5	1	0	5	0
65	608	1	10000	5	1	0	5	0
90	609	1	10000	5	1	0	5	0
111	610	1	10000	5	1	0	5	0
141	611	1	10000	5	1	0	5	0
155	612	1	10000	5	1	0	5	0
159	613	1	10000	5	1	0	5	0
160	614	1	10000	5	1	0	5	0
156	615	1	10000	5	1	0	5	0
159	616	1	10000	5	1	0	5	0
167	617	1	10000	5	1	0	5	0
181	618	1	10000	5	1	0	5	0
203	619	1	10000	5	1	0	5	0
231	620	1	10000	5	1	0	5	0
244	621	1	10000	5	1	0	5	0
237	622	1	10000	5	1	0	5	0
241	623	1	10000	5	1	0	5	0
257	624	1	10000	5	1	0	5	0
258	625	1	10000	5	1	0	5	0
252	626	1	10000	5	1	0	5	0
297	627	1	10000	5	1	0	5	0
367	628	1	10000	5	1	0	5	0
380	629	1	10000	5	1	0	5	0
426	630	1	10000	5	1	0	5	0
456	631	1	10000	5	1	0	5	0
448	632	1	10000	5	1	0	5	0
460	633	1	10000	5	1	0	5	0
444	634	1	10000	5	1	0	5	0
446	635	1	10000	5	1	0	5	0
467	636	1	10000	5	1	0	5	0
491	637	1	10000	5	1	0	5	0
497	638	1	10000	5	1	0	5	0
497	639	1	10000	5	1	0	5	0
497	640	1	10000	5	1	0	5	0
499	641	1	10000	5	1	0	5	0
497	642	1	10000	5	1	0	5	0
481	643	1	10000	5	1	0	5	0
462	644	1	10000	5	1	0	5	0
447	645	1	10000	5	1	0	5	0
437	646	1	10000	5	1	0	5	0
426	647	1	10000	5	1	0	5	0
409	648	1	10000	5	1	0	5	0
393	649	1	10000	5	1	0	5	0
377	650	1	10000	5	1	0	5	0
364	651	1	10000	5	1	0	5	0
349	652	1	10000	5	1	0	5	0
341	653	1	10000	5	1	0	5	0
338	654	1	10000	5	1	0	5	0
337	655	1	10000	5	1	0	5	0
331	656	1	10000	5	1	0	5	0
321	657	1	10000	5	1	0	5	0
309	658	1	10000	5	1	0	5	0
299	659	1	10000	5	1	0	5	0
289	660	1	10000	5	1	0	5	0
278	661	1	10000	5	1	0	5	0
269	662	1	10000	5	1	0	5	0
263	663	1	10000	5	1	0	5	0
257	664	1	10000	5	1	0	5	0
250	665	1	10000	5	1	0	5	0
240	666	1	10000	5	1	0	5	0
233	667	1	10000	5	1	0	5	0
226	668	1	10000	5	1	0	5	0
222	669	1	10000	5	1	0	5	0
215	670	1	10000	5	1	0	5	0
208	671	1	10000	5	1	0	5	0
205	672	1	10000	5	1	0	5	0
204	673	1	10000	5	1	0	5	0
201	674	1	10000	5	1	0	5	0
198	675	1	10000	5	1	0	5	0
198	676	1	10000	5	1	0	5	0
195	677	1	10000	5	1	0	5	0
190	678	1	10000	5	1	0	5	0
186	679	1	10000	5	1	0	5	0
178	680	1	10000	5	1	0	5	0
172	681	1	10000	5	1	0	5	0
165	682	1	10000	5	1	0	5	0
157	683	1	10000	5	1	0	5	0
153	684	1	10000	5	1	0	5	0
149	685	1	10000	5	1	0	5	0
148	686	1	10000	5	1	0	5	0
145	687	1	10000	5	1	0	5	0
145	688	1	10000	5	1	0	5	0
145	689	1	10000	5	1	0	5	0
141	690	1	10000	5	1	0	5	0
138	691	1	10000	5	1	0	5	0
136	692	1	10000	5	1	0	5	0
133	693	1	10000	5	1	0	5	0
128	694	1	10000	5	1	0	5	0
126	695	1	10000	5	1	0	5	0
123	696	1	10000	5	1	0	5	0
120	697	1	10000	5	1	0	5	0
117	698	1	10000	5	1	0	5	0
116	699	1	10000	5	1	0	5	0
114	700	1	10000	5	1	0	5	0
112	701	1	10000	5	1	0	5	0
