value	EMG	Stimulus	EMG_sensitivity	Total_Trial_Nr	practise	acq	probe_nr	Startle_Probe
85	1	7	10000	1	1	0	1	0
83	2	7	10000	1	1	0	1	0
81	3	7	10000	1	1	0	1	0
79	4	7	10000	1	1	0	1	0
76	5	7	10000	1	1	0	1	0
75	6	7	10000	1	1	0	1	0
71	7	7	10000	1	1	0	1	0
68	8	7	10000	1	1	0	1	0
68	9	7	10000	1	1	0	1	0
67	10	7	10000	1	1	0	1	0
66	11	7	10000	1	1	0	1	0
64	12	7	10000	1	1	0	1	0
64	13	7	10000	1	1	0	1	0
64	14	7	10000	1	1	0	1	0
63	15	7	10000	1	1	0	1	0
59	16	7	10000	1	1	0	1	0
56	17	7	10000	1	1	0	1	0
55	18	7	10000	1	1	0	1	0
53	19	7	10000	1	1	0	1	0
51	20	7	10000	1	1	0	1	0
50	20	7	10000	1	1	0	1	0
50	21	7	10000	1	1	0	1	0
48	23	7	10000	1	1	0	1	0
46	24	7	10000	1	1	0	1	0
45	25	7	10000	1	1	0	1	0
45	26	7	10000	1	1	0	1	0
43	27	7	10000	1	1	0	1	0
41	28	7	10000	1	1	0	1	0
39	29	7	10000	1	1	0	1	0
38	30	7	10000	1	1	0	1	0
36	30	7	10000	1	1	0	1	0
35	31	7	10000	1	1	0	1	0
36	33	7	10000	1	1	0	1	0
34	34	7	10000	1	1	0	1	0
34	35	7	10000	1	1	0	1	0
33	36	7	10000	1	1	0	1	0
33	37	7	10000	1	1	0	1	0
33	38	7	10000	1	1	0	1	0
34	39	7	10000	1	1	0	1	0
34	40	7	10000	1	1	0	1	0
34	40	7	10000	1	1	0	1	0
34	41	7	10000	1	1	0	1	0
32	43	7	10000	1	1	0	1	0
31	44	7	10000	1	1	0	1	0
31	45	7	10000	1	1	0	1	0
32	46	7	10000	1	1	0	1	0
31	47	7	10000	1	1	0	1	0
30	48	7	10000	1	1	0	1	0
29	49	7	10000	1	1	0	1	0
28	50	7	10000	1	1	0	1	0
28	50	7	10000	1	1	0	1	0
29	51	7	10000	1	1	0	1	0
30	53	7	10000	1	1	0	1	0
31	54	7	10000	1	1	0	1	0
30	55	7	10000	1	1	0	1	0
28	56	7	10000	1	1	0	1	0
28	57	7	10000	1	1	0	1	0
30	58	7	10000	1	1	0	1	0
32	59	7	10000	1	1	0	1	0
33	60	7	10000	1	1	0	1	0
34	60	7	10000	1	1	0	1	0
35	61	7	10000	1	1	0	1	0
33	63	7	10000	1	1	0	1	0
32	64	7	10000	1	1	0	1	0
31	65	7	10000	1	1	0	1	0
31	66	7	10000	1	1	0	1	0
32	67	7	10000	1	1	0	1	0
31	68	7	10000	1	1	0	1	0
29	69	7	10000	1	1	0	1	0
29	70	7	10000	1	1	0	1	0
29	70	7	10000	1	1	0	1	0
27	71	7	10000	1	1	0	1	0
27	73	7	10000	1	1	0	1	0
27	74	7	10000	1	1	0	1	0
27	75	7	10000	1	1	0	1	0
23	76	7	10000	1	1	0	1	0
23	77	7	10000	1	1	0	1	0
24	78	7	10000	1	1	0	1	0
26	79	7	10000	1	1	0	1	0
28	80	7	10000	1	1	0	1	0
29	80	7	10000	1	1	0	1	0
29	81	7	10000	1	1	0	1	0
27	83	7	10000	1	1	0	1	0
25	84	7	10000	1	1	0	1	0
24	85	7	10000	1	1	0	1	0
26	86	7	10000	1	1	0	1	0
24	87	7	10000	1	1	0	1	0
23	88	7	10000	1	1	0	1	0
22	89	7	10000	1	1	0	1	0
22	90	7	10000	1	1	0	1	0
22	90	7	10000	1	1	0	1	0
21	91	7	10000	1	1	0	1	0
23	93	7	10000	1	1	0	1	0
23	94	7	10000	1	1	0	1	0
23	95	7	10000	1	1	0	1	0
20	96	7	10000	1	1	0	1	0
22	97	7	10000	1	1	0	1	0
23	98	7	10000	1	1	0	1	0
24	99	7	10000	1	1	0	1	0
24	100	7	10000	1	1	0	1	0
24	100	7	10000	1	1	0	1	0
25	101	7	10000	1	1	0	1	0
25	103	7	10000	1	1	0	1	0
23	104	7	10000	1	1	0	1	0
23	105	7	10000	1	1	0	1	0
25	106	7	10000	1	1	0	1	0
27	107	7	10000	1	1	0	1	0
26	108	7	10000	1	1	0	1	0
25	109	7	10000	1	1	0	1	0
25	110	7	10000	1	1	0	1	0
24	110	7	10000	1	1	0	1	0
24	111	7	10000	1	1	0	1	0
23	113	7	10000	1	1	0	1	0
23	114	7	10000	1	1	0	1	0
23	115	7	10000	1	1	0	1	0
21	116	7	10000	1	1	0	1	0
20	117	7	10000	1	1	0	1	0
20	118	7	10000	1	1	0	1	0
20	119	7	10000	1	1	0	1	0
20	120	7	10000	1	1	0	1	0
20	120	7	10000	1	1	0	1	0
20	121	7	10000	1	1	0	1	0
19	123	7	10000	1	1	0	1	0
19	124	7	10000	1	1	0	1	0
19	125	7	10000	1	1	0	1	0
20	126	7	10000	1	1	0	1	0
18	127	7	10000	1	1	0	1	0
18	128	7	10000	1	1	0	1	0
18	129	7	10000	1	1	0	1	0
17	130	7	10000	1	1	0	1	0
17	130	7	10000	1	1	0	1	0
17	131	7	10000	1	1	0	1	0
16	133	7	10000	1	1	0	1	0
16	134	7	10000	1	1	0	1	0
17	135	7	10000	1	1	0	1	0
14	136	7	10000	1	1	0	1	0
16	137	7	10000	1	1	0	1	0
19	138	7	10000	1	1	0	1	0
21	139	7	10000	1	1	0	1	0
23	140	7	10000	1	1	0	1	0
23	140	7	10000	1	1	0	1	0
22	141	7	10000	1	1	0	1	0
21	143	7	10000	1	1	0	1	0
20	144	7	10000	1	1	0	1	0
19	145	7	10000	1	1	0	1	0
20	146	7	10000	1	1	0	1	0
21	147	7	10000	1	1	0	1	0
21	148	7	10000	1	1	0	1	0
23	149	7	10000	1	1	0	1	0
24	150	7	10000	1	1	0	1	0
24	150	7	10000	1	1	0	1	0
24	151	7	10000	1	1	0	1	0
25	153	7	10000	1	1	0	1	0
28	154	7	10000	1	1	0	1	0
30	155	7	10000	1	1	0	1	0
31	156	7	10000	1	1	0	1	0
32	157	7	10000	1	1	0	1	0
33	158	7	10000	1	1	0	1	0
34	159	7	10000	1	1	0	1	0
33	160	7	10000	1	1	0	1	0
33	160	7	10000	1	1	0	1	0
32	161	7	10000	1	1	0	1	0
30	163	7	10000	1	1	0	1	0
29	164	7	10000	1	1	0	1	0
28	165	7	10000	1	1	0	1	0
28	166	7	10000	1	1	0	1	0
29	167	7	10000	1	1	0	1	0
28	168	7	10000	1	1	0	1	0
28	169	7	10000	1	1	0	1	0
28	170	7	10000	1	1	0	1	0
27	170	7	10000	1	1	0	1	0
26	171	7	10000	1	1	0	1	0
26	173	7	10000	1	1	0	1	0
26	174	7	10000	1	1	0	1	0
27	175	7	10000	1	1	0	1	0
25	176	7	10000	1	1	0	1	0
24	177	7	10000	1	1	0	1	0
24	178	7	10000	1	1	0	1	0
24	179	7	10000	1	1	0	1	0
24	180	7	10000	1	1	0	1	0
23	180	7	10000	1	1	0	1	0
22	181	7	10000	1	1	0	1	0
21	183	7	10000	1	1	0	1	0
20	184	7	10000	1	1	0	1	0
20	185	7	10000	1	1	0	1	0
21	186	7	10000	1	1	0	1	0
21	187	7	10000	1	1	0	1	0
22	188	7	10000	1	1	0	1	0
24	189	7	10000	1	1	0	1	0
28	190	7	10000	1	1	0	1	0
32	190	7	10000	1	1	0	1	0
35	191	7	10000	1	1	0	1	0
38	193	7	10000	1	1	0	1	0
37	194	7	10000	1	1	0	1	0
36	195	7	10000	1	1	0	1	0
35	196	7	10000	1	1	0	1	0
33	197	7	10000	1	1	0	1	0
33	198	7	10000	1	1	0	1	0
33	199	7	10000	1	1	0	1	0
31	200	7	10000	1	1	0	1	0
30	200	7	10000	1	1	0	1	0
32	201	7	10000	1	1	0	1	0
33	203	7	10000	1	1	0	1	0
36	204	7	10000	1	1	0	1	0
38	205	7	10000	1	1	0	1	0
41	206	7	10000	1	1	0	1	0
44	207	7	10000	1	1	0	1	0
47	208	7	10000	1	1	0	1	0
51	209	7	10000	1	1	0	1	0
56	210	7	10000	1	1	0	1	0
61	210	7	10000	1	1	0	1	0
65	211	7	10000	1	1	0	1	0
70	213	7	10000	1	1	0	1	0
75	214	7	10000	1	1	0	1	0
81	215	7	10000	1	1	0	1	0
89	216	7	10000	1	1	0	1	0
100	217	7	10000	1	1	0	1	0
106	218	7	10000	1	1	0	1	0
109	219	7	10000	1	1	0	1	0
110	220	7	10000	1	1	0	1	0
108	220	7	10000	1	1	0	1	0
105	221	7	10000	1	1	0	1	0
101	223	7	10000	1	1	0	1	0
97	224	7	10000	1	1	0	1	0
94	225	7	10000	1	1	0	1	0
92	226	7	10000	1	1	0	1	0
88	227	7	10000	1	1	0	1	0
86	228	7	10000	1	1	0	1	0
85	229	7	10000	1	1	0	1	0
85	230	7	10000	1	1	0	1	0
85	230	7	10000	1	1	0	1	0
82	231	7	10000	1	1	0	1	0
82	233	7	10000	1	1	0	1	0
84	234	7	10000	1	1	0	1	0
85	235	7	10000	1	1	0	1	0
86	236	7	10000	1	1	0	1	0
87	237	7	10000	1	1	0	1	0
87	238	7	10000	1	1	0	1	0
87	239	7	10000	1	1	0	1	0
87	240	7	10000	1	1	0	1	0
86	240	7	10000	1	1	0	1	0
87	241	7	10000	1	1	0	1	0
89	243	7	10000	1	1	0	1	0
91	244	7	10000	1	1	0	1	0
93	245	7	10000	1	1	0	1	0
99	246	7	10000	1	1	0	1	0
104	247	7	10000	1	1	0	1	0
107	248	7	10000	1	1	0	1	0
111	249	7	10000	1	1	0	1	0
113	250	7	10000	1	1	0	1	0
114	250	7	10000	1	1	0	1	0
115	251	7	10000	1	1	0	1	0
114	253	7	10000	1	1	0	1	0
114	254	7	10000	1	1	0	1	0
115	255	7	10000	1	1	0	1	0
114	256	7	10000	1	1	0	1	0
114	257	7	10000	1	1	0	1	0
112	258	7	10000	1	1	0	1	0
111	259	7	10000	1	1	0	1	0
110	260	7	10000	1	1	0	1	0
107	260	7	10000	1	1	0	1	0
106	261	7	10000	1	1	0	1	0
104	263	7	10000	1	1	0	1	0
99	264	7	10000	1	1	0	1	0
96	265	7	10000	1	1	0	1	0
96	266	7	10000	1	1	0	1	0
95	267	7	10000	1	1	0	1	0
95	268	7	10000	1	1	0	1	0
95	269	7	10000	1	1	0	1	0
96	270	7	10000	1	1	0	1	0
97	270	7	10000	1	1	0	1	0
98	271	7	10000	1	1	0	1	0
100	273	7	10000	1	1	0	1	0
101	274	7	10000	1	1	0	1	0
101	275	7	10000	1	1	0	1	0
97	276	7	10000	1	1	0	1	0
94	277	7	10000	1	1	0	1	0
90	278	7	10000	1	1	0	1	0
88	279	7	10000	1	1	0	1	0
85	280	7	10000	1	1	0	1	0
82	280	7	10000	1	1	0	1	0
78	281	7	10000	1	1	0	1	0
75	283	7	10000	1	1	0	1	0
72	284	7	10000	1	1	0	1	0
69	285	7	10000	1	1	0	1	0
68	286	7	10000	1	1	0	1	0
67	287	7	10000	1	1	0	1	0
64	288	7	10000	1	1	0	1	0
62	289	7	10000	1	1	0	1	0
59	290	7	10000	1	1	0	1	0
56	290	7	10000	1	1	0	1	0
55	291	7	10000	1	1	0	1	0
52	293	7	10000	1	1	0	1	0
50	294	7	10000	1	1	0	1	0
50	295	7	10000	1	1	0	1	0
47	296	7	10000	1	1	0	1	0
44	297	7	10000	1	1	0	1	0
43	298	7	10000	1	1	0	1	0
42	299	7	10000	1	1	0	1	0
41	300	7	10000	1	1	0	1	0
41	300	7	10000	1	1	0	1	0
40	301	7	10000	1	1	0	1	0
39	303	7	10000	1	1	0	1	0
39	304	7	10000	1	1	0	1	0
38	305	7	10000	1	1	0	1	0
39	306	7	10000	1	1	0	1	0
37	307	7	10000	1	1	0	1	0
36	308	7	10000	1	1	0	1	0
35	309	7	10000	1	1	0	1	0
34	310	7	10000	1	1	0	1	0
35	310	7	10000	1	1	0	1	0
35	311	7	10000	1	1	0	1	0
37	313	7	10000	1	1	0	1	0
38	314	7	10000	1	1	0	1	0
38	315	7	10000	1	1	0	1	0
36	316	7	10000	1	1	0	1	0
34	317	7	10000	1	1	0	1	0
33	318	7	10000	1	1	0	1	0
32	319	7	10000	1	1	0	1	0
31	320	7	10000	1	1	0	1	0
30	320	7	10000	1	1	0	1	0
30	321	7	10000	1	1	0	1	0
29	323	7	10000	1	1	0	1	0
28	324	7	10000	1	1	0	1	0
27	325	7	10000	1	1	0	1	0
27	326	7	10000	1	1	0	1	0
27	327	7	10000	1	1	0	1	0
26	328	7	10000	1	1	0	1	0
25	329	7	10000	1	1	0	1	0
25	330	7	10000	1	1	0	1	0
25	330	7	10000	1	1	0	1	0
26	331	7	10000	1	1	0	1	0
28	333	7	10000	1	1	0	1	0
29	334	7	10000	1	1	0	1	0
29	335	7	10000	1	1	0	1	0
27	336	7	10000	1	1	0	1	0
25	337	7	10000	1	1	0	1	0
26	338	7	10000	1	1	0	1	0
26	339	7	10000	1	1	0	1	0
27	340	7	10000	1	1	0	1	0
27	340	7	10000	1	1	0	1	0
27	341	7	10000	1	1	0	1	0
26	343	7	10000	1	1	0	1	0
25	344	7	10000	1	1	0	1	0
24	345	7	10000	1	1	0	1	0
24	346	7	10000	1	1	0	1	0
25	347	7	10000	1	1	0	1	0
23	348	7	10000	1	1	0	1	0
22	349	7	10000	1	1	0	1	0
21	350	7	10000	1	1	0	1	0
20	350	7	10000	1	1	0	1	0
21	351	7	10000	1	1	0	1	0
22	353	7	10000	1	1	0	1	0
22	354	7	10000	1	1	0	1	0
22	355	7	10000	1	1	0	1	0
20	356	7	10000	1	1	0	1	0
19	357	7	10000	1	1	0	1	0
19	358	7	10000	1	1	0	1	0
20	359	7	10000	1	1	0	1	0
20	360	7	10000	1	1	0	1	0
20	360	7	10000	1	1	0	1	0
21	361	7	10000	1	1	0	1	0
20	363	7	10000	1	1	0	1	0
19	364	7	10000	1	1	0	1	0
19	365	7	10000	1	1	0	1	0
19	366	7	10000	1	1	0	1	0
19	367	7	10000	1	1	0	1	0
18	368	7	10000	1	1	0	1	0
17	369	7	10000	1	1	0	1	0
16	370	7	10000	1	1	0	1	0
16	370	7	10000	1	1	0	1	0
15	371	7	10000	1	1	0	1	0
15	373	7	10000	1	1	0	1	0
16	374	7	10000	1	1	0	1	0
17	375	7	10000	1	1	0	1	0
17	376	7	10000	1	1	0	1	0
20	377	7	10000	1	1	0	1	0
21	378	7	10000	1	1	0	1	0
20	379	7	10000	1	1	0	1	0
21	380	7	10000	1	1	0	1	0
22	380	7	10000	1	1	0	1	0
22	381	7	10000	1	1	0	1	0
24	383	7	10000	1	1	0	1	0
24	384	7	10000	1	1	0	1	0
24	385	7	10000	1	1	0	1	0
27	386	7	10000	1	1	0	1	0
29	387	7	10000	1	1	0	1	0
29	388	7	10000	1	1	0	1	0
29	389	7	10000	1	1	0	1	0
28	390	7	10000	1	1	0	1	0
27	390	7	10000	1	1	0	1	0
26	391	7	10000	1	1	0	1	0
25	393	7	10000	1	1	0	1	0
25	394	7	10000	1	1	0	1	0
25	395	7	10000	1	1	0	1	0
23	396	7	10000	1	1	0	1	0
22	397	7	10000	1	1	0	1	0
22	398	7	10000	1	1	0	1	0
23	399	7	10000	1	1	0	1	0
24	400	7	10000	1	1	0	1	0
24	400	7	10000	1	1	0	1	0
26	401	7	10000	1	1	0	1	0
26	403	7	10000	1	1	0	1	0
26	404	7	10000	1	1	0	1	0
25	405	7	10000	1	1	0	1	0
27	406	7	10000	1	1	0	1	0
27	407	7	10000	1	1	0	1	0
25	408	7	10000	1	1	0	1	0
25	409	7	10000	1	1	0	1	0
24	410	7	10000	1	1	0	1	0
24	410	7	10000	1	1	0	1	0
25	411	7	10000	1	1	0	1	0
25	413	7	10000	1	1	0	1	0
25	414	7	10000	1	1	0	1	0
26	415	7	10000	1	1	0	1	0
25	416	7	10000	1	1	0	1	0
25	417	7	10000	1	1	0	1	0
26	418	7	10000	1	1	0	1	0
26	419	7	10000	1	1	0	1	0
27	420	7	10000	1	1	0	1	0
28	420	7	10000	1	1	0	1	0
29	421	7	10000	1	1	0	1	0
30	423	7	10000	1	1	0	1	0
33	424	7	10000	1	1	0	1	0
35	425	7	10000	1	1	0	1	0
36	426	7	10000	1	1	0	1	0
36	427	7	10000	1	1	0	1	0
37	428	7	10000	1	1	0	1	0
40	429	7	10000	1	1	0	1	0
40	430	7	10000	1	1	0	1	0
40	430	7	10000	1	1	0	1	0
40	431	7	10000	1	1	0	1	0
38	433	7	10000	1	1	0	1	0
37	434	7	10000	1	1	0	1	0
37	435	7	10000	1	1	0	1	0
35	436	7	10000	1	1	0	1	0
33	437	7	10000	1	1	0	1	0
32	438	7	10000	1	1	0	1	0
32	439	7	10000	1	1	0	1	0
32	440	7	10000	1	1	0	1	0
32	440	7	10000	1	1	0	1	0
30	441	7	10000	1	1	0	1	0
29	443	7	10000	1	1	0	1	0
28	444	7	10000	1	1	0	1	0
28	445	7	10000	1	1	0	1	0
29	446	7	10000	1	1	0	1	0
29	447	7	10000	1	1	0	1	0
28	448	7	10000	1	1	0	1	0
28	449	7	10000	1	1	0	1	0
29	450	7	10000	1	1	0	1	0
30	450	7	10000	1	1	0	1	0
29	451	7	10000	1	1	0	1	0
29	453	7	10000	1	1	0	1	0
28	454	7	10000	1	1	0	1	0
28	455	7	10000	1	1	0	1	0
26	456	7	10000	1	1	0	1	0
24	457	7	10000	1	1	0	1	0
24	458	7	10000	1	1	0	1	0
24	459	7	10000	1	1	0	1	0
24	460	7	10000	1	1	0	1	0
25	460	7	10000	1	1	0	1	0
23	461	7	10000	1	1	0	1	0
23	463	7	10000	1	1	0	1	0
24	464	7	10000	1	1	0	1	0
25	465	7	10000	1	1	0	1	0
28	466	7	10000	1	1	0	1	0
30	467	7	10000	1	1	0	1	0
29	468	7	10000	1	1	0	1	0
27	469	7	10000	1	1	0	1	0
27	470	7	10000	1	1	0	1	0
26	470	7	10000	1	1	0	1	0
26	471	7	10000	1	1	0	1	0
24	473	7	10000	1	1	0	1	0
24	474	7	10000	1	1	0	1	0
25	475	7	10000	1	1	0	1	0
24	476	7	10000	1	1	0	1	0
23	477	7	10000	1	1	0	1	0
24	478	7	10000	1	1	0	1	0
25	479	7	10000	1	1	0	1	0
24	480	7	10000	1	1	0	1	0
25	480	7	10000	1	1	0	1	0
25	481	7	10000	1	1	0	1	0
24	483	7	10000	1	1	0	1	0
23	484	7	10000	1	1	0	1	0
22	485	7	10000	1	1	0	1	0
23	486	7	10000	1	1	0	1	0
24	487	7	10000	1	1	0	1	0
23	488	7	10000	1	1	0	1	0
23	489	7	10000	1	1	0	1	0
24	490	7	10000	1	1	0	1	0
24	490	7	10000	1	1	0	1	0
25	491	7	10000	1	1	0	1	0
27	493	7	10000	1	1	0	1	0
27	494	7	10000	1	1	0	1	0
28	495	7	10000	1	1	0	1	0
27	496	7	10000	1	1	0	1	0
24	497	7	10000	1	1	0	1	0
24	498	7	10000	1	1	0	1	0
25	499	7	10000	1	1	0	1	0
24	500	7	10000	1	1	0	1	0
24	500	7	10000	1	1	0	1	0
24	501	7	10000	1	1	0	1	0
24	536	7	10000	1	1	0	1	1
25	537	7	10000	1	1	0	1	1
27	538	7	10000	1	1	0	1	1
31	539	7	10000	1	1	0	1	1
35	540	7	10000	1	1	0	1	1
39	541	7	10000	1	1	0	1	1
44	542	7	10000	1	1	0	1	1
48	543	7	10000	1	1	0	1	1
51	544	7	10000	1	1	0	1	1
55	545	7	10000	1	1	0	1	1
58	546	7	10000	1	1	0	1	1
59	547	7	10000	1	1	0	1	1
58	548	7	10000	1	1	0	1	1
55	549	7	10000	1	1	0	1	1
52	550	7	10000	1	1	0	1	1
51	551	7	10000	1	1	0	1	1
50	552	7	10000	1	1	0	1	1
49	553	7	10000	1	1	0	1	1
47	554	7	10000	1	1	0	1	1
45	555	7	10000	1	1	0	1	1
44	556	7	10000	1	1	0	1	1
44	557	7	10000	1	1	0	1	1
44	558	7	10000	1	1	0	1	1
43	559	7	10000	1	1	0	1	1
43	560	7	10000	1	1	0	1	1
43	561	7	10000	1	1	0	1	1
39	562	7	10000	1	1	0	1	1
38	563	7	10000	1	1	0	1	1
38	564	7	10000	1	1	0	1	1
37	565	7	10000	1	1	0	1	1
37	566	7	10000	1	1	0	1	1
38	567	7	10000	1	1	0	1	1
39	568	7	10000	1	1	0	1	1
40	569	7	10000	1	1	0	1	1
41	570	7	10000	1	1	0	1	1
42	571	7	10000	1	1	0	1	1
43	542	7	10000	1	1	0	1	1
42	543	7	10000	1	1	0	1	1
40	544	7	10000	1	1	0	1	1
39	545	7	10000	1	1	0	1	1
39	546	7	10000	1	1	0	1	1
40	547	7	10000	1	1	0	1	1
40	545	7	10000	1	1	0	1	1
41	546	7	10000	1	1	0	1	1
43	547	7	10000	1	1	0	1	1
44	548	7	10000	1	1	0	1	1
44	549	7	10000	1	1	0	1	1
46	550	7	10000	1	1	0	1	1
47	551	7	10000	1	1	0	1	0
48	552	7	10000	1	1	0	1	0
47	553	7	10000	1	1	0	1	0
47	554	7	10000	1	1	0	1	0
47	555	7	10000	1	1	0	1	0
45	556	7	10000	1	1	0	1	0
44	557	7	10000	1	1	0	1	0
42	558	7	10000	1	1	0	1	0
40	559	7	10000	1	1	0	1	0
40	560	7	10000	1	1	0	1	0
38	561	7	10000	1	1	0	1	0
36	562	7	10000	1	1	0	1	0
35	563	7	10000	1	1	0	1	0
32	564	7	10000	1	1	0	1	0
31	565	7	10000	1	1	0	1	0
31	566	7	10000	1	1	0	1	0
31	567	7	10000	1	1	0	1	0
31	568	7	10000	1	1	0	1	0
32	569	7	10000	1	1	0	1	0
31	570	7	10000	1	1	0	1	0
31	570	7	10000	1	1	0	1	0
32	571	7	10000	1	1	0	1	0
34	573	7	10000	1	1	0	1	0
36	574	7	10000	1	1	0	1	0
36	575	7	10000	1	1	0	1	0
33	576	7	10000	1	1	0	1	0
33	577	7	10000	1	1	0	1	0
36	578	7	10000	1	1	0	1	0
38	579	7	10000	1	1	0	1	0
39	580	7	10000	1	1	0	1	0
39	580	7	10000	1	1	0	1	0
38	581	7	10000	1	1	0	1	0
37	583	7	10000	1	1	0	1	0
37	584	7	10000	1	1	0	1	0
36	585	7	10000	1	1	0	1	0
36	586	7	10000	1	1	0	1	0
36	587	7	10000	1	1	0	1	0
35	588	7	10000	1	1	0	1	0
34	589	7	10000	1	1	0	1	0
32	590	7	10000	1	1	0	1	0
32	590	7	10000	1	1	0	1	0
31	591	7	10000	1	1	0	1	0
31	593	7	10000	1	1	0	1	0
30	594	7	10000	1	1	0	1	0
30	595	7	10000	1	1	0	1	0
29	596	7	10000	1	1	0	1	0
27	597	7	10000	1	1	0	1	0
27	598	7	10000	1	1	0	1	0
26	599	7	10000	1	1	0	1	0
26	600	7	10000	1	1	0	1	0
25	600	7	10000	1	1	0	1	0
24	601	7	10000	1	1	0	1	0
23	603	7	10000	1	1	0	1	0
21	604	7	10000	1	1	0	1	0
21	605	7	10000	1	1	0	1	0
23	606	7	10000	1	1	0	1	0
23	607	7	10000	1	1	0	1	0
22	608	7	10000	1	1	0	1	0
21	609	7	10000	1	1	0	1	0
21	610	7	10000	1	1	0	1	0
21	610	7	10000	1	1	0	1	0
20	611	7	10000	1	1	0	1	0
20	613	7	10000	1	1	0	1	0
19	614	7	10000	1	1	0	1	0
20	615	7	10000	1	1	0	1	0
18	616	7	10000	1	1	0	1	0
17	617	7	10000	1	1	0	1	0
19	618	7	10000	1	1	0	1	0
20	619	7	10000	1	1	0	1	0
20	620	7	10000	1	1	0	1	0
20	620	7	10000	1	1	0	1	0
20	621	7	10000	1	1	0	1	0
22	623	7	10000	1	1	0	1	0
23	624	7	10000	1	1	0	1	0
25	625	7	10000	1	1	0	1	0
28	626	7	10000	1	1	0	1	0
31	627	7	10000	1	1	0	1	0
32	628	7	10000	1	1	0	1	0
30	629	7	10000	1	1	0	1	0
32	630	7	10000	1	1	0	1	0
36	630	7	10000	1	1	0	1	0
40	631	7	10000	1	1	0	1	0
43	633	7	10000	1	1	0	1	0
45	634	7	10000	1	1	0	1	0
49	635	7	10000	1	1	0	1	0
49	636	7	10000	1	1	0	1	0
49	637	7	10000	1	1	0	1	0
60	638	7	10000	1	1	0	1	0
71	639	7	10000	1	1	0	1	0
76	640	7	10000	1	1	0	1	0
84	640	7	10000	1	1	0	1	0
108	641	7	10000	1	1	0	1	0
131	643	7	10000	1	1	0	1	0
127	644	7	10000	1	1	0	1	0
125	645	7	10000	1	1	0	1	0
128	646	7	10000	1	1	0	1	0
132	647	7	10000	1	1	0	1	0
148	648	7	10000	1	1	0	1	0
150	649	7	10000	1	1	0	1	0
151	650	7	10000	1	1	0	1	0
152	650	7	10000	1	1	0	1	0
160	651	7	10000	1	1	0	1	0
158	653	7	10000	1	1	0	1	0
156	654	7	10000	1	1	0	1	0
174	655	7	10000	1	1	0	1	0
202	656	7	10000	1	1	0	1	0
220	657	7	10000	1	1	0	1	0
224	658	7	10000	1	1	0	1	0
219	659	7	10000	1	1	0	1	0
212	660	7	10000	1	1	0	1	0
202	660	7	10000	1	1	0	1	0
198	661	7	10000	1	1	0	1	0
193	663	7	10000	1	1	0	1	0
189	664	7	10000	1	1	0	1	0
196	665	7	10000	1	1	0	1	0
204	666	7	10000	1	1	0	1	0
205	667	7	10000	1	1	0	1	0
217	668	7	10000	1	1	0	1	0
220	669	7	10000	1	1	0	1	0
260	670	7	10000	1	1	0	1	0
318	670	7	10000	1	1	0	1	0
351	671	7	10000	1	1	0	1	0
367	673	7	10000	1	1	0	1	0
394	674	7	10000	1	1	0	1	0
411	675	7	10000	1	1	0	1	0
400	676	7	10000	1	1	0	1	0
410	677	7	10000	1	1	0	1	0
435	678	7	10000	1	1	0	1	0
456	679	7	10000	1	1	0	1	0
473	680	7	10000	1	1	0	1	0
484	680	7	10000	1	1	0	1	0
484	681	7	10000	1	1	0	1	0
475	683	7	10000	1	1	0	1	0
459	684	7	10000	1	1	0	1	0
441	685	7	10000	1	1	0	1	0
424	686	7	10000	1	1	0	1	0
407	687	7	10000	1	1	0	1	0
390	688	7	10000	1	1	0	1	0
376	689	7	10000	1	1	0	1	0
360	690	7	10000	1	1	0	1	0
344	690	7	10000	1	1	0	1	0
329	691	7	10000	1	1	0	1	0
314	693	7	10000	1	1	0	1	0
303	694	7	10000	1	1	0	1	0
293	695	7	10000	1	1	0	1	0
282	696	7	10000	1	1	0	1	0
273	697	7	10000	1	1	0	1	0
261	698	7	10000	1	1	0	1	0
249	699	7	10000	1	1	0	1	0
239	700	7	10000	1	1	0	1	0
228	700	7	10000	1	1	0	1	0
219	701	7	10000	1	1	0	1	0
209	703	7	10000	1	1	0	1	0
200	704	7	10000	1	1	0	1	0
195	705	7	10000	1	1	0	1	0
193	706	7	10000	1	1	0	1	0
192	707	7	10000	1	1	0	1	0
190	708	7	10000	1	1	0	1	0
189	709	7	10000	1	1	0	1	0
187	710	7	10000	1	1	0	1	0
184	710	7	10000	1	1	0	1	0
181	711	7	10000	1	1	0	1	0
177	713	7	10000	1	1	0	1	0
174	714	7	10000	1	1	0	1	0
168	715	7	10000	1	1	0	1	0
162	716	7	10000	1	1	0	1	0
154	717	7	10000	1	1	0	1	0
151	718	7	10000	1	1	0	1	0
146	719	7	10000	1	1	0	1	0
140	720	7	10000	1	1	0	1	0
134	720	7	10000	1	1	0	1	0
131	721	7	10000	1	1	0	1	0
126	723	7	10000	1	1	0	1	0
121	724	7	10000	1	1	0	1	0
116	725	7	10000	1	1	0	1	0
112	726	7	10000	1	1	0	1	0
110	727	7	10000	1	1	0	1	0
108	728	7	10000	1	1	0	1	0
110	729	7	10000	1	1	0	1	0
112	730	7	10000	1	1	0	1	0
115	730	7	10000	1	1	0	1	0
117	731	7	10000	1	1	0	1	0
114	733	7	10000	1	1	0	1	0
109	734	7	10000	1	1	0	1	0
105	735	7	10000	1	1	0	1	0
100	736	7	10000	1	1	0	1	0
95	737	7	10000	1	1	0	1	0
92	738	7	10000	1	1	0	1	0
90	739	7	10000	1	1	0	1	0
87	740	7	10000	1	1	0	1	0
84	740	7	10000	1	1	0	1	0
86	741	7	10000	1	1	0	1	0
86	743	7	10000	1	1	0	1	0
83	744	7	10000	1	1	0	1	0
80	745	7	10000	1	1	0	1	0
78	746	7	10000	1	1	0	1	0
77	747	7	10000	1	1	0	1	0
73	748	7	10000	1	1	0	1	0
71	749	7	10000	1	1	0	1	0
69	750	7	10000	1	1	0	1	0
69	750	7	10000	1	1	0	1	0
69	751	7	10000	1	1	0	1	0
68	752	7	10000	1	1	0	1	0
68	753	7	10000	1	1	0	1	0
65	755	7	10000	1	1	0	1	0
64	756	7	10000	1	1	0	1	0
61	757	7	10000	1	1	0	1	0
60	758	7	10000	1	1	0	1	0
59	759	7	10000	1	1	0	1	0
58	760	7	10000	1	1	0	1	0
59	760	7	10000	1	1	0	1	0
61	761	7	10000	1	1	0	1	0
65	763	7	10000	1	1	0	1	0
68	764	7	10000	1	1	0	1	0
66	765	7	10000	1	1	0	1	0
64	766	7	10000	1	1	0	1	0
66	767	7	10000	1	1	0	1	0
64	768	7	10000	1	1	0	1	0
61	769	7	10000	1	1	0	1	0
62	770	7	10000	1	1	0	1	0
65	770	7	10000	1	1	0	1	0
68	771	7	10000	1	1	0	1	0
68	773	7	10000	1	1	0	1	0
68	774	7	10000	1	1	0	1	0
67	775	7	10000	1	1	0	1	0
64	776	7	10000	1	1	0	1	0
61	777	7	10000	1	1	0	1	0
61	778	7	10000	1	1	0	1	0
62	779	7	10000	1	1	0	1	0
65	780	7	10000	1	1	0	1	0
68	780	7	10000	1	1	0	1	0
70	781	7	10000	1	1	0	1	0
72	783	7	10000	1	1	0	1	0
69	784	7	10000	1	1	0	1	0
67	785	7	10000	1	1	0	1	0
65	786	7	10000	1	1	0	1	0
67	787	7	10000	1	1	0	1	0
69	788	7	10000	1	1	0	1	0
71	789	7	10000	1	1	0	1	0
70	790	7	10000	1	1	0	1	0
69	790	7	10000	1	1	0	1	0
67	791	7	10000	1	1	0	1	0
65	793	7	10000	1	1	0	1	0
63	794	7	10000	1	1	0	1	0
60	795	7	10000	1	1	0	1	0
59	796	7	10000	1	1	0	1	0
56	797	7	10000	1	1	0	1	0
54	798	7	10000	1	1	0	1	0
55	799	7	10000	1	1	0	1	0
57	800	7	10000	1	1	0	1	0
57	800	7	10000	1	1	0	1	0
56	801	7	10000	1	1	0	1	0
54	803	7	10000	1	1	0	1	0
52	804	7	10000	1	1	0	1	0
51	805	7	10000	1	1	0	1	0
48	806	7	10000	1	1	0	1	0
48	807	7	10000	1	1	0	1	0
46	808	7	10000	1	1	0	1	0
44	809	7	10000	1	1	0	1	0
44	810	7	10000	1	1	0	1	0
45	810	7	10000	1	1	0	1	0
49	811	7	10000	1	1	0	1	0
52	813	7	10000	1	1	0	1	0
53	814	7	10000	1	1	0	1	0
51	815	7	10000	1	1	0	1	0
52	816	7	10000	1	1	0	1	0
54	817	7	10000	1	1	0	1	0
58	818	7	10000	1	1	0	1	0
62	819	7	10000	1	1	0	1	0
65	820	7	10000	1	1	0	1	0
66	820	7	10000	1	1	0	1	0
68	821	7	10000	1	1	0	1	0
67	823	7	10000	1	1	0	1	0
64	824	7	10000	1	1	0	1	0
64	825	7	10000	1	1	0	1	0
64	826	7	10000	1	1	0	1	0
65	827	7	10000	1	1	0	1	0
65	828	7	10000	1	1	0	1	0
63	829	7	10000	1	1	0	1	0
60	830	7	10000	1	1	0	1	0
59	830	7	10000	1	1	0	1	0
56	831	7	10000	1	1	0	1	0
54	833	7	10000	1	1	0	1	0
53	834	7	10000	1	1	0	1	0
51	835	7	10000	1	1	0	1	0
50	836	7	10000	1	1	0	1	0
49	837	7	10000	1	1	0	1	0
50	838	7	10000	1	1	0	1	0
48	839	7	10000	1	1	0	1	0
47	840	7	10000	1	1	0	1	0
44	840	7	10000	1	1	0	1	0
44	841	7	10000	1	1	0	1	0
45	843	7	10000	1	1	0	1	0
45	844	7	10000	1	1	0	1	0
45	845	7	10000	1	1	0	1	0
45	846	7	10000	1	1	0	1	0
46	847	7	10000	1	1	0	1	0
45	848	7	10000	1	1	0	1	0
45	849	7	10000	1	1	0	1	0
46	850	7	10000	1	1	0	1	0
46	850	7	10000	1	1	0	1	0
48	851	7	10000	1	1	0	1	0
49	852	7	10000	1	1	0	1	0
49	853	7	10000	1	1	0	1	0
47	855	7	10000	1	1	0	1	0
46	856	7	10000	1	1	0	1	0
44	857	7	10000	1	1	0	1	0
42	858	7	10000	1	1	0	1	0
41	859	7	10000	1	1	0	1	0
40	860	7	10000	1	1	0	1	0
38	860	7	10000	1	1	0	1	0
38	861	7	10000	1	1	0	1	0
39	862	7	10000	1	1	0	1	0
38	863	7	10000	1	1	0	1	0
37	865	7	10000	1	1	0	1	0
39	866	7	10000	1	1	0	1	0
39	866	7	10000	1	1	0	1	0
37	867	7	10000	1	1	0	1	0
36	869	7	10000	1	1	0	1	0
35	870	7	10000	1	1	0	1	0
36	870	7	10000	1	1	0	1	0
39	871	7	10000	1	1	0	1	0
41	872	7	10000	1	1	0	1	0
43	873	7	10000	1	1	0	1	0
45	874	7	10000	1	1	0	1	0
46	875	7	10000	1	1	0	1	0
44	877	7	10000	1	1	0	1	0
44	878	7	10000	1	1	0	1	0
44	879	7	10000	1	1	0	1	0
43	880	7	10000	1	1	0	1	0
44	880	7	10000	1	1	0	1	0
42	881	7	10000	1	1	0	1	0
40	882	7	10000	1	1	0	1	0
39	883	7	10000	1	1	0	1	0
37	884	7	10000	1	1	0	1	0
36	885	7	10000	1	1	0	1	0
36	886	7	10000	1	1	0	1	0
34	887	7	10000	1	1	0	1	0
34	888	7	10000	1	1	0	1	0
33	889	7	10000	1	1	0	1	0
33	890	7	10000	1	1	0	1	0
31	891	7	10000	1	1	0	1	0
31	892	7	10000	1	1	0	1	0
31	893	7	10000	1	1	0	1	0
32	895	7	10000	1	1	0	1	0
31	896	7	10000	1	1	0	1	0
29	896	7	10000	1	1	0	1	0
32	897	7	10000	1	1	0	1	0
34	898	7	10000	1	1	0	1	0
35	899	7	10000	1	1	0	1	0
35	900	7	10000	1	1	0	1	0
32	901	7	10000	1	1	0	1	0
32	902	7	10000	1	1	0	1	0
33	903	7	10000	1	1	0	1	0
31	904	7	10000	1	1	0	1	0
30	905	7	10000	1	1	0	1	0
32	906	7	10000	1	1	0	1	0
32	907	7	10000	1	1	0	1	0
31	908	7	10000	1	1	0	1	0
29	909	7	10000	1	1	0	1	0
28	910	7	10000	1	1	0	1	0
27	911	7	10000	1	1	0	1	0
28	912	7	10000	1	1	0	1	0
28	913	7	10000	1	1	0	1	0
28	914	7	10000	1	1	0	1	0
29	915	7	10000	1	1	0	1	0
29	916	7	10000	1	1	0	1	0
31	917	7	10000	1	1	0	1	0
31	918	7	10000	1	1	0	1	0
30	919	7	10000	1	1	0	1	0
29	920	7	10000	1	1	0	1	0
30	921	7	10000	1	1	0	1	0
31	922	7	10000	1	1	0	1	0
30	923	7	10000	1	1	0	1	0
28	924	7	10000	1	1	0	1	0
28	925	7	10000	1	1	0	1	0
28	926	7	10000	1	1	0	1	0
27	927	7	10000	1	1	0	1	0
27	928	7	10000	1	1	0	1	0
29	929	7	10000	1	1	0	1	0
29	930	7	10000	1	1	0	1	0
28	931	7	10000	1	1	0	1	0
27	932	7	10000	1	1	0	1	0
27	933	7	10000	1	1	0	1	0
30	934	7	10000	1	1	0	1	0
32	935	7	10000	1	1	0	1	0
31	936	7	10000	1	1	0	1	0
31	937	7	10000	1	1	0	1	0
31	938	7	10000	1	1	0	1	0
32	939	7	10000	1	1	0	1	0
31	940	7	10000	1	1	0	1	0
31	941	7	10000	1	1	0	1	0
31	942	7	10000	1	1	0	1	0
29	943	7	10000	1	1	0	1	0
29	944	7	10000	1	1	0	1	0
29	945	7	10000	1	1	0	1	0
30	946	7	10000	1	1	0	1	0
30	947	7	10000	1	1	0	1	0
31	948	7	10000	1	1	0	1	0
33	949	7	10000	1	1	0	1	0
37	950	7	10000	1	1	0	1	0
36	951	7	10000	1	1	0	1	0
35	952	7	10000	1	1	0	1	0
35	953	7	10000	1	1	0	1	0
35	954	7	10000	1	1	0	1	0
35	955	7	10000	1	1	0	1	0
33	956	7	10000	1	1	0	1	0
33	957	7	10000	1	1	0	1	0
33	958	7	10000	1	1	0	1	0
35	959	7	10000	1	1	0	1	0
37	960	7	10000	1	1	0	1	0
41	961	7	10000	1	1	0	1	0
43	962	7	10000	1	1	0	1	0
44	963	7	10000	1	1	0	1	0
45	964	7	10000	1	1	0	1	0
44	965	7	10000	1	1	0	1	0
44	966	7	10000	1	1	0	1	0
43	967	7	10000	1	1	0	1	0
40	968	7	10000	1	1	0	1	0
39	969	7	10000	1	1	0	1	0
40	970	7	10000	1	1	0	1	0
39	971	7	10000	1	1	0	1	0
38	972	7	10000	1	1	0	1	0
38	973	7	10000	1	1	0	1	0
37	974	7	10000	1	1	0	1	0
36	975	7	10000	1	1	0	1	0
34	976	7	10000	1	1	0	1	0
35	977	7	10000	1	1	0	1	0
37	978	7	10000	1	1	0	1	0
40	979	7	10000	1	1	0	1	0
39	980	7	10000	1	1	0	1	0
40	981	7	10000	1	1	0	1	0
44	982	7	10000	1	1	0	1	0
48	983	7	10000	1	1	0	1	0
50	984	7	10000	1	1	0	1	0
51	985	7	10000	1	1	0	1	0
51	986	7	10000	1	1	0	1	0
48	987	7	10000	1	1	0	1	0
47	988	7	10000	1	1	0	1	0
48	989	7	10000	1	1	0	1	0
47	990	7	10000	1	1	0	1	0
45	991	7	10000	1	1	0	1	0
43	992	7	10000	1	1	0	1	0
43	993	7	10000	1	1	0	1	0
41	994	7	10000	1	1	0	1	0
39	995	7	10000	1	1	0	1	0
38	996	7	10000	1	1	0	1	0
39	997	7	10000	1	1	0	1	0
40	998	7	10000	1	1	0	1	0
40	999	7	10000	1	1	0	1	0
38	1000	7	10000	1	1	0	1	0
36	1001	7	10000	1	1	0	1	0
39	1	7	10000	2	1	0	2	0
42	2	7	10000	2	1	0	2	0
44	3	7	10000	2	1	0	2	0
46	4	7	10000	2	1	0	2	0
46	5	7	10000	2	1	0	2	0
47	6	7	10000	2	1	0	2	0
47	7	7	10000	2	1	0	2	0
46	8	7	10000	2	1	0	2	0
43	9	7	10000	2	1	0	2	0
44	10	7	10000	2	1	0	2	0
46	11	7	10000	2	1	0	2	0
49	12	7	10000	2	1	0	2	0
49	13	7	10000	2	1	0	2	0
47	14	7	10000	2	1	0	2	0
45	15	7	10000	2	1	0	2	0
44	16	7	10000	2	1	0	2	0
42	17	7	10000	2	1	0	2	0
41	18	7	10000	2	1	0	2	0
41	19	7	10000	2	1	0	2	0
39	20	7	10000	2	1	0	2	0
38	21	7	10000	2	1	0	2	0
37	22	7	10000	2	1	0	2	0
38	23	7	10000	2	1	0	2	0
41	24	7	10000	2	1	0	2	0
41	25	7	10000	2	1	0	2	0
43	26	7	10000	2	1	0	2	0
46	27	7	10000	2	1	0	2	0
47	28	7	10000	2	1	0	2	0
46	29	7	10000	2	1	0	2	0
48	30	7	10000	2	1	0	2	0
50	31	7	10000	2	1	0	2	0
51	32	7	10000	2	1	0	2	0
51	33	7	10000	2	1	0	2	0
49	34	7	10000	2	1	0	2	0
48	35	7	10000	2	1	0	2	0
46	36	7	10000	2	1	0	2	0
44	37	7	10000	2	1	0	2	0
43	38	7	10000	2	1	0	2	0
45	39	7	10000	2	1	0	2	0
46	40	7	10000	2	1	0	2	0
47	41	7	10000	2	1	0	2	0
49	42	7	10000	2	1	0	2	0
49	43	7	10000	2	1	0	2	0
48	44	7	10000	2	1	0	2	0
45	45	7	10000	2	1	0	2	0
44	46	7	10000	2	1	0	2	0
44	47	7	10000	2	1	0	2	0
44	48	7	10000	2	1	0	2	0
42	49	7	10000	2	1	0	2	0
42	50	7	10000	2	1	0	2	0
41	51	7	10000	2	1	0	2	0
42	52	7	10000	2	1	0	2	0
44	53	7	10000	2	1	0	2	0
46	54	7	10000	2	1	0	2	0
48	55	7	10000	2	1	0	2	0
49	56	7	10000	2	1	0	2	0
50	57	7	10000	2	1	0	2	0
49	58	7	10000	2	1	0	2	0
51	59	7	10000	2	1	0	2	0
48	60	7	10000	2	1	0	2	0
47	61	7	10000	2	1	0	2	0
47	62	7	10000	2	1	0	2	0
46	63	7	10000	2	1	0	2	0
44	64	7	10000	2	1	0	2	0
43	65	7	10000	2	1	0	2	0
44	66	7	10000	2	1	0	2	0
43	67	7	10000	2	1	0	2	0
43	68	7	10000	2	1	0	2	0
40	69	7	10000	2	1	0	2	0
40	70	7	10000	2	1	0	2	0
39	71	7	10000	2	1	0	2	0
40	72	7	10000	2	1	0	2	0
42	73	7	10000	2	1	0	2	0
43	74	7	10000	2	1	0	2	0
44	75	7	10000	2	1	0	2	0
42	76	7	10000	2	1	0	2	0
41	77	7	10000	2	1	0	2	0
41	78	7	10000	2	1	0	2	0
42	79	7	10000	2	1	0	2	0
41	80	7	10000	2	1	0	2	0
40	81	7	10000	2	1	0	2	0
37	82	7	10000	2	1	0	2	0
37	83	7	10000	2	1	0	2	0
38	84	7	10000	2	1	0	2	0
37	85	7	10000	2	1	0	2	0
36	86	7	10000	2	1	0	2	0
36	87	7	10000	2	1	0	2	0
35	88	7	10000	2	1	0	2	0
33	89	7	10000	2	1	0	2	0
33	90	7	10000	2	1	0	2	0
33	91	7	10000	2	1	0	2	0
32	92	7	10000	2	1	0	2	0
31	93	7	10000	2	1	0	2	0
30	94	7	10000	2	1	0	2	0
30	95	7	10000	2	1	0	2	0
30	96	7	10000	2	1	0	2	0
30	97	7	10000	2	1	0	2	0
28	98	7	10000	2	1	0	2	0
28	99	7	10000	2	1	0	2	0
28	100	7	10000	2	1	0	2	0
27	101	7	10000	2	1	0	2	0
25	102	7	10000	2	1	0	2	0
24	103	7	10000	2	1	0	2	0
23	104	7	10000	2	1	0	2	0
23	105	7	10000	2	1	0	2	0
23	106	7	10000	2	1	0	2	0
24	107	7	10000	2	1	0	2	0
26	108	7	10000	2	1	0	2	0
25	109	7	10000	2	1	0	2	0
25	110	7	10000	2	1	0	2	0
25	111	7	10000	2	1	0	2	0
25	112	7	10000	2	1	0	2	0
26	113	7	10000	2	1	0	2	0
26	114	7	10000	2	1	0	2	0
29	115	7	10000	2	1	0	2	0
32	116	7	10000	2	1	0	2	0
34	117	7	10000	2	1	0	2	0
33	118	7	10000	2	1	0	2	0
34	119	7	10000	2	1	0	2	0
34	120	7	10000	2	1	0	2	0
33	121	7	10000	2	1	0	2	0
33	122	7	10000	2	1	0	2	0
33	123	7	10000	2	1	0	2	0
34	124	7	10000	2	1	0	2	0
36	125	7	10000	2	1	0	2	0
38	126	7	10000	2	1	0	2	0
37	127	7	10000	2	1	0	2	0
36	128	7	10000	2	1	0	2	0
33	129	7	10000	2	1	0	2	0
32	130	7	10000	2	1	0	2	0
30	131	7	10000	2	1	0	2	0
30	132	7	10000	2	1	0	2	0
29	133	7	10000	2	1	0	2	0
27	134	7	10000	2	1	0	2	0
27	135	7	10000	2	1	0	2	0
25	136	7	10000	2	1	0	2	0
25	137	7	10000	2	1	0	2	0
25	138	7	10000	2	1	0	2	0
26	139	7	10000	2	1	0	2	0
25	140	7	10000	2	1	0	2	0
26	141	7	10000	2	1	0	2	0
27	142	7	10000	2	1	0	2	0
29	143	7	10000	2	1	0	2	0
30	144	7	10000	2	1	0	2	0
29	145	7	10000	2	1	0	2	0
28	146	7	10000	2	1	0	2	0
28	147	7	10000	2	1	0	2	0
29	148	7	10000	2	1	0	2	0
28	149	7	10000	2	1	0	2	0
29	150	7	10000	2	1	0	2	0
28	151	7	10000	2	1	0	2	0
28	152	7	10000	2	1	0	2	0
27	153	7	10000	2	1	0	2	0
26	154	7	10000	2	1	0	2	0
26	155	7	10000	2	1	0	2	0
24	156	7	10000	2	1	0	2	0
24	157	7	10000	2	1	0	2	0
23	158	7	10000	2	1	0	2	0
24	159	7	10000	2	1	0	2	0
24	160	7	10000	2	1	0	2	0
24	161	7	10000	2	1	0	2	0
23	162	7	10000	2	1	0	2	0
23	163	7	10000	2	1	0	2	0
23	164	7	10000	2	1	0	2	0
22	165	7	10000	2	1	0	2	0
22	166	7	10000	2	1	0	2	0
22	167	7	10000	2	1	0	2	0
21	168	7	10000	2	1	0	2	0
20	169	7	10000	2	1	0	2	0
20	170	7	10000	2	1	0	2	0
20	171	7	10000	2	1	0	2	0
19	172	7	10000	2	1	0	2	0
19	173	7	10000	2	1	0	2	0
18	174	7	10000	2	1	0	2	0
18	175	7	10000	2	1	0	2	0
17	176	7	10000	2	1	0	2	0
16	177	7	10000	2	1	0	2	0
16	178	7	10000	2	1	0	2	0
19	179	7	10000	2	1	0	2	0
18	180	7	10000	2	1	0	2	0
17	181	7	10000	2	1	0	2	0
17	182	7	10000	2	1	0	2	0
18	183	7	10000	2	1	0	2	0
19	184	7	10000	2	1	0	2	0
23	185	7	10000	2	1	0	2	0
24	186	7	10000	2	1	0	2	0
25	187	7	10000	2	1	0	2	0
26	188	7	10000	2	1	0	2	0
27	189	7	10000	2	1	0	2	0
31	190	7	10000	2	1	0	2	0
33	191	7	10000	2	1	0	2	0
35	192	7	10000	2	1	0	2	0
37	193	7	10000	2	1	0	2	0
37	194	7	10000	2	1	0	2	0
36	195	7	10000	2	1	0	2	0
35	196	7	10000	2	1	0	2	0
34	197	7	10000	2	1	0	2	0
33	198	7	10000	2	1	0	2	0
36	199	7	10000	2	1	0	2	0
36	200	7	10000	2	1	0	2	0
35	201	7	10000	2	1	0	2	0
35	202	7	10000	2	1	0	2	0
35	203	7	10000	2	1	0	2	0
34	204	7	10000	2	1	0	2	0
34	205	7	10000	2	1	0	2	0
34	206	7	10000	2	1	0	2	0
33	207	7	10000	2	1	0	2	0
32	208	7	10000	2	1	0	2	0
29	209	7	10000	2	1	0	2	0
28	210	7	10000	2	1	0	2	0
27	211	7	10000	2	1	0	2	0
28	212	7	10000	2	1	0	2	0
30	213	7	10000	2	1	0	2	0
31	214	7	10000	2	1	0	2	0
32	215	7	10000	2	1	0	2	0
31	216	7	10000	2	1	0	2	0
29	217	7	10000	2	1	0	2	0
28	218	7	10000	2	1	0	2	0
30	219	7	10000	2	1	0	2	0
30	220	7	10000	2	1	0	2	0
28	221	7	10000	2	1	0	2	0
29	222	7	10000	2	1	0	2	0
29	223	7	10000	2	1	0	2	0
30	224	7	10000	2	1	0	2	0
31	225	7	10000	2	1	0	2	0
31	226	7	10000	2	1	0	2	0
31	227	7	10000	2	1	0	2	0
31	228	7	10000	2	1	0	2	0
28	229	7	10000	2	1	0	2	0
28	230	7	10000	2	1	0	2	0
27	231	7	10000	2	1	0	2	0
27	232	7	10000	2	1	0	2	0
28	233	7	10000	2	1	0	2	0
27	234	7	10000	2	1	0	2	0
27	235	7	10000	2	1	0	2	0
27	236	7	10000	2	1	0	2	0
28	237	7	10000	2	1	0	2	0
29	238	7	10000	2	1	0	2	0
32	239	7	10000	2	1	0	2	0
32	240	7	10000	2	1	0	2	0
30	241	7	10000	2	1	0	2	0
29	242	7	10000	2	1	0	2	0
30	243	7	10000	2	1	0	2	0
30	244	7	10000	2	1	0	2	0
30	245	7	10000	2	1	0	2	0
30	246	7	10000	2	1	0	2	0
31	247	7	10000	2	1	0	2	0
31	248	7	10000	2	1	0	2	0
29	249	7	10000	2	1	0	2	0
28	250	7	10000	2	1	0	2	0
27	251	7	10000	2	1	0	2	0
26	252	7	10000	2	1	0	2	0
25	253	7	10000	2	1	0	2	0
26	254	7	10000	2	1	0	2	0
26	255	7	10000	2	1	0	2	0
24	256	7	10000	2	1	0	2	0
23	257	7	10000	2	1	0	2	0
21	258	7	10000	2	1	0	2	0
22	259	7	10000	2	1	0	2	0
22	260	7	10000	2	1	0	2	0
21	261	7	10000	2	1	0	2	0
21	262	7	10000	2	1	0	2	0
23	263	7	10000	2	1	0	2	0
24	264	7	10000	2	1	0	2	0
23	265	7	10000	2	1	0	2	0
23	266	7	10000	2	1	0	2	0
22	267	7	10000	2	1	0	2	0
23	268	7	10000	2	1	0	2	0
22	269	7	10000	2	1	0	2	0
23	270	7	10000	2	1	0	2	0
22	271	7	10000	2	1	0	2	0
22	272	7	10000	2	1	0	2	0
22	273	7	10000	2	1	0	2	0
21	274	7	10000	2	1	0	2	0
21	275	7	10000	2	1	0	2	0
20	276	7	10000	2	1	0	2	0
20	277	7	10000	2	1	0	2	0
20	278	7	10000	2	1	0	2	0
22	279	7	10000	2	1	0	2	0
23	280	7	10000	2	1	0	2	0
25	281	7	10000	2	1	0	2	0
26	282	7	10000	2	1	0	2	0
25	283	7	10000	2	1	0	2	0
24	284	7	10000	2	1	0	2	0
25	285	7	10000	2	1	0	2	0
25	286	7	10000	2	1	0	2	0
25	287	7	10000	2	1	0	2	0
26	288	7	10000	2	1	0	2	0
24	289	7	10000	2	1	0	2	0
22	290	7	10000	2	1	0	2	0
22	291	7	10000	2	1	0	2	0
22	292	7	10000	2	1	0	2	0
21	293	7	10000	2	1	0	2	0
21	294	7	10000	2	1	0	2	0
23	295	7	10000	2	1	0	2	0
21	296	7	10000	2	1	0	2	0
21	297	7	10000	2	1	0	2	0
22	298	7	10000	2	1	0	2	0
25	299	7	10000	2	1	0	2	0
24	300	7	10000	2	1	0	2	0
23	301	7	10000	2	1	0	2	0
23	302	7	10000	2	1	0	2	0
22	303	7	10000	2	1	0	2	0
23	304	7	10000	2	1	0	2	0
21	305	7	10000	2	1	0	2	0
21	306	7	10000	2	1	0	2	0
21	307	7	10000	2	1	0	2	0
22	308	7	10000	2	1	0	2	0
20	309	7	10000	2	1	0	2	0
20	310	7	10000	2	1	0	2	0
20	311	7	10000	2	1	0	2	0
20	312	7	10000	2	1	0	2	0
21	313	7	10000	2	1	0	2	0
21	314	7	10000	2	1	0	2	0
21	315	7	10000	2	1	0	2	0
22	316	7	10000	2	1	0	2	0
24	317	7	10000	2	1	0	2	0
24	318	7	10000	2	1	0	2	0
26	319	7	10000	2	1	0	2	0
25	320	7	10000	2	1	0	2	0
25	321	7	10000	2	1	0	2	0
24	322	7	10000	2	1	0	2	0
24	323	7	10000	2	1	0	2	0
24	324	7	10000	2	1	0	2	0
23	325	7	10000	2	1	0	2	0
24	326	7	10000	2	1	0	2	0
24	327	7	10000	2	1	0	2	0
23	328	7	10000	2	1	0	2	0
21	329	7	10000	2	1	0	2	0
21	330	7	10000	2	1	0	2	0
20	331	7	10000	2	1	0	2	0
21	332	7	10000	2	1	0	2	0
20	333	7	10000	2	1	0	2	0
20	334	7	10000	2	1	0	2	0
21	335	7	10000	2	1	0	2	0
20	336	7	10000	2	1	0	2	0
19	337	7	10000	2	1	0	2	0
19	338	7	10000	2	1	0	2	0
22	339	7	10000	2	1	0	2	0
24	340	7	10000	2	1	0	2	0
24	341	7	10000	2	1	0	2	0
24	342	7	10000	2	1	0	2	0
26	343	7	10000	2	1	0	2	0
27	344	7	10000	2	1	0	2	0
27	345	7	10000	2	1	0	2	0
27	346	7	10000	2	1	0	2	0
26	347	7	10000	2	1	0	2	0
26	348	7	10000	2	1	0	2	0
23	349	7	10000	2	1	0	2	0
23	350	7	10000	2	1	0	2	0
23	351	7	10000	2	1	0	2	0
23	352	7	10000	2	1	0	2	0
24	353	7	10000	2	1	0	2	0
23	354	7	10000	2	1	0	2	0
22	355	7	10000	2	1	0	2	0
21	356	7	10000	2	1	0	2	0
20	357	7	10000	2	1	0	2	0
21	358	7	10000	2	1	0	2	0
25	359	7	10000	2	1	0	2	0
26	360	7	10000	2	1	0	2	0
26	361	7	10000	2	1	0	2	0
26	362	7	10000	2	1	0	2	0
26	363	7	10000	2	1	0	2	0
26	364	7	10000	2	1	0	2	0
27	365	7	10000	2	1	0	2	0
28	366	7	10000	2	1	0	2	0
28	367	7	10000	2	1	0	2	0
27	368	7	10000	2	1	0	2	0
24	369	7	10000	2	1	0	2	0
23	370	7	10000	2	1	0	2	0
23	371	7	10000	2	1	0	2	0
23	372	7	10000	2	1	0	2	0
22	373	7	10000	2	1	0	2	0
23	374	7	10000	2	1	0	2	0
24	375	7	10000	2	1	0	2	0
24	376	7	10000	2	1	0	2	0
25	377	7	10000	2	1	0	2	0
25	378	7	10000	2	1	0	2	0
27	379	7	10000	2	1	0	2	0
29	380	7	10000	2	1	0	2	0
29	381	7	10000	2	1	0	2	0
29	382	7	10000	2	1	0	2	0
29	383	7	10000	2	1	0	2	0
28	384	7	10000	2	1	0	2	0
27	385	7	10000	2	1	0	2	0
27	386	7	10000	2	1	0	2	0
27	387	7	10000	2	1	0	2	0
30	388	7	10000	2	1	0	2	0
30	389	7	10000	2	1	0	2	0
32	390	7	10000	2	1	0	2	0
33	391	7	10000	2	1	0	2	0
32	392	7	10000	2	1	0	2	0
32	393	7	10000	2	1	0	2	0
33	394	7	10000	2	1	0	2	0
32	395	7	10000	2	1	0	2	0
30	396	7	10000	2	1	0	2	0
30	397	7	10000	2	1	0	2	0
30	398	7	10000	2	1	0	2	0
31	399	7	10000	2	1	0	2	0
30	400	7	10000	2	1	0	2	0
29	401	7	10000	2	1	0	2	0
27	402	7	10000	2	1	0	2	0
28	403	7	10000	2	1	0	2	0
29	404	7	10000	2	1	0	2	0
30	405	7	10000	2	1	0	2	0
30	406	7	10000	2	1	0	2	0
31	407	7	10000	2	1	0	2	0
31	408	7	10000	2	1	0	2	0
29	409	7	10000	2	1	0	2	0
28	410	7	10000	2	1	0	2	0
27	411	7	10000	2	1	0	2	0
28	412	7	10000	2	1	0	2	0
28	413	7	10000	2	1	0	2	0
27	414	7	10000	2	1	0	2	0
26	415	7	10000	2	1	0	2	0
26	416	7	10000	2	1	0	2	0
25	417	7	10000	2	1	0	2	0
23	418	7	10000	2	1	0	2	0
25	419	7	10000	2	1	0	2	0
26	420	7	10000	2	1	0	2	0
25	421	7	10000	2	1	0	2	0
25	422	7	10000	2	1	0	2	0
24	423	7	10000	2	1	0	2	0
23	424	7	10000	2	1	0	2	0
23	425	7	10000	2	1	0	2	0
25	426	7	10000	2	1	0	2	0
26	427	7	10000	2	1	0	2	0
27	428	7	10000	2	1	0	2	0
28	429	7	10000	2	1	0	2	0
28	430	7	10000	2	1	0	2	0
29	431	7	10000	2	1	0	2	0
29	432	7	10000	2	1	0	2	0
30	433	7	10000	2	1	0	2	0
32	434	7	10000	2	1	0	2	0
33	435	7	10000	2	1	0	2	0
32	436	7	10000	2	1	0	2	0
33	437	7	10000	2	1	0	2	0
32	438	7	10000	2	1	0	2	0
33	439	7	10000	2	1	0	2	0
34	440	7	10000	2	1	0	2	0
35	441	7	10000	2	1	0	2	0
35	442	7	10000	2	1	0	2	0
33	443	7	10000	2	1	0	2	0
32	444	7	10000	2	1	0	2	0
31	445	7	10000	2	1	0	2	0
30	446	7	10000	2	1	0	2	0
29	447	7	10000	2	1	0	2	0
28	448	7	10000	2	1	0	2	0
25	449	7	10000	2	1	0	2	0
25	450	7	10000	2	1	0	2	0
24	451	7	10000	2	1	0	2	0
24	452	7	10000	2	1	0	2	0
23	453	7	10000	2	1	0	2	0
24	454	7	10000	2	1	0	2	0
25	455	7	10000	2	1	0	2	0
24	456	7	10000	2	1	0	2	0
24	457	7	10000	2	1	0	2	0
23	458	7	10000	2	1	0	2	0
24	459	7	10000	2	1	0	2	0
23	460	7	10000	2	1	0	2	0
24	461	7	10000	2	1	0	2	0
23	462	7	10000	2	1	0	2	0
22	463	7	10000	2	1	0	2	0
23	464	7	10000	2	1	0	2	0
22	465	7	10000	2	1	0	2	0
22	466	7	10000	2	1	0	2	0
22	467	7	10000	2	1	0	2	0
22	468	7	10000	2	1	0	2	0
20	469	7	10000	2	1	0	2	0
19	470	7	10000	2	1	0	2	0
19	471	7	10000	2	1	0	2	0
19	472	7	10000	2	1	0	2	0
19	473	7	10000	2	1	0	2	0
20	474	7	10000	2	1	0	2	0
20	475	7	10000	2	1	0	2	0
20	476	7	10000	2	1	0	2	0
22	477	7	10000	2	1	0	2	0
22	478	7	10000	2	1	0	2	0
26	479	7	10000	2	1	0	2	0
28	480	7	10000	2	1	0	2	0
28	481	7	10000	2	1	0	2	0
28	482	7	10000	2	1	0	2	0
27	483	7	10000	2	1	0	2	0
30	484	7	10000	2	1	0	2	0
30	485	7	10000	2	1	0	2	0
31	486	7	10000	2	1	0	2	0
30	487	7	10000	2	1	0	2	0
29	488	7	10000	2	1	0	2	0
27	489	7	10000	2	1	0	2	0
27	490	7	10000	2	1	0	2	0
25	491	7	10000	2	1	0	2	0
25	492	7	10000	2	1	0	2	0
25	493	7	10000	2	1	0	2	0
24	494	7	10000	2	1	0	2	0
23	495	7	10000	2	1	0	2	0
23	496	7	10000	2	1	0	2	0
22	497	7	10000	2	1	0	2	0
22	498	7	10000	2	1	0	2	0
24	499	7	10000	2	1	0	2	0
25	500	7	10000	2	1	0	2	0
24	501	7	10000	2	1	0	2	1
22	502	7	10000	2	1	0	2	1
21	503	7	10000	2	1	0	2	1
21	504	7	10000	2	1	0	2	1
20	505	7	10000	2	1	0	2	1
21	506	7	10000	2	1	0	2	1
23	507	7	10000	2	1	0	2	1
25	508	7	10000	2	1	0	2	1
23	509	7	10000	2	1	0	2	1
23	510	7	10000	2	1	0	2	1
23	511	7	10000	2	1	0	2	1
21	512	7	10000	2	1	0	2	1
21	513	7	10000	2	1	0	2	1
22	514	7	10000	2	1	0	2	1
21	515	7	10000	2	1	0	2	1
21	516	7	10000	2	1	0	2	1
22	517	7	10000	2	1	0	2	1
23	518	7	10000	2	1	0	2	1
27	519	7	10000	2	1	0	2	1
27	520	7	10000	2	1	0	2	1
25	521	7	10000	2	1	0	2	1
26	522	7	10000	2	1	0	2	1
27	523	7	10000	2	1	0	2	1
28	524	7	10000	2	1	0	2	1
31	525	7	10000	2	1	0	2	1
33	526	7	10000	2	1	0	2	1
32	527	7	10000	2	1	0	2	1
33	528	7	10000	2	1	0	2	1
32	529	7	10000	2	1	0	2	1
31	530	7	10000	2	1	0	2	1
31	531	7	10000	2	1	0	2	1
29	532	7	10000	2	1	0	2	1
29	533	7	10000	2	1	0	2	1
29	534	7	10000	2	1	0	2	1
28	535	7	10000	2	1	0	2	1
26	536	7	10000	2	1	0	2	1
25	537	7	10000	2	1	0	2	1
25	538	7	10000	2	1	0	2	1
30	539	7	10000	2	1	0	2	1
34	540	7	10000	2	1	0	2	1
36	541	7	10000	2	1	0	2	1
36	542	7	10000	2	1	0	2	1
35	543	7	10000	2	1	0	2	1
34	544	7	10000	2	1	0	2	1
32	545	7	10000	2	1	0	2	1
32	546	7	10000	2	1	0	2	1
30	547	7	10000	2	1	0	2	1
30	548	7	10000	2	1	0	2	1
29	549	7	10000	2	1	0	2	1
28	550	7	10000	2	1	0	2	1
27	551	7	10000	2	1	0	2	0
28	552	7	10000	2	1	0	2	0
27	553	7	10000	2	1	0	2	0
26	554	7	10000	2	1	0	2	0
26	555	7	10000	2	1	0	2	0
26	556	7	10000	2	1	0	2	0
25	557	7	10000	2	1	0	2	0
25	558	7	10000	2	1	0	2	0
29	559	7	10000	2	1	0	2	0
31	560	7	10000	2	1	0	2	0
29	561	7	10000	2	1	0	2	0
28	562	7	10000	2	1	0	2	0
29	563	7	10000	2	1	0	2	0
29	564	7	10000	2	1	0	2	0
29	565	7	10000	2	1	0	2	0
30	566	7	10000	2	1	0	2	0
30	567	7	10000	2	1	0	2	0
29	568	7	10000	2	1	0	2	0
26	569	7	10000	2	1	0	2	0
27	570	7	10000	2	1	0	2	0
30	571	7	10000	2	1	0	2	0
32	572	7	10000	2	1	0	2	0
32	573	7	10000	2	1	0	2	0
33	574	7	10000	2	1	0	2	0
34	575	7	10000	2	1	0	2	0
34	576	7	10000	2	1	0	2	0
32	577	7	10000	2	1	0	2	0
31	578	7	10000	2	1	0	2	0
32	579	7	10000	2	1	0	2	0
31	580	7	10000	2	1	0	2	0
30	581	7	10000	2	1	0	2	0
29	582	7	10000	2	1	0	2	0
28	583	7	10000	2	1	0	2	0
28	584	7	10000	2	1	0	2	0
29	585	7	10000	2	1	0	2	0
29	586	7	10000	2	1	0	2	0
30	587	7	10000	2	1	0	2	0
32	588	7	10000	2	1	0	2	0
35	589	7	10000	2	1	0	2	0
40	590	7	10000	2	1	0	2	0
44	591	7	10000	2	1	0	2	0
44	592	7	10000	2	1	0	2	0
44	593	7	10000	2	1	0	2	0
46	594	7	10000	2	1	0	2	0
48	595	7	10000	2	1	0	2	0
48	596	7	10000	2	1	0	2	0
47	597	7	10000	2	1	0	2	0
46	598	7	10000	2	1	0	2	0
47	599	7	10000	2	1	0	2	0
51	600	7	10000	2	1	0	2	0
52	601	7	10000	2	1	0	2	0
51	602	7	10000	2	1	0	2	0
51	603	7	10000	2	1	0	2	0
51	604	7	10000	2	1	0	2	0
56	605	7	10000	2	1	0	2	0
60	606	7	10000	2	1	0	2	0
65	607	7	10000	2	1	0	2	0
66	608	7	10000	2	1	0	2	0
71	609	7	10000	2	1	0	2	0
75	610	7	10000	2	1	0	2	0
78	611	7	10000	2	1	0	2	0
88	612	7	10000	2	1	0	2	0
98	613	7	10000	2	1	0	2	0
110	614	7	10000	2	1	0	2	0
122	615	7	10000	2	1	0	2	0
120	616	7	10000	2	1	0	2	0
119	617	7	10000	2	1	0	2	0
116	618	7	10000	2	1	0	2	0
112	619	7	10000	2	1	0	2	0
109	620	7	10000	2	1	0	2	0
104	621	7	10000	2	1	0	2	0
100	622	7	10000	2	1	0	2	0
98	623	7	10000	2	1	0	2	0
94	624	7	10000	2	1	0	2	0
96	625	7	10000	2	1	0	2	0
114	626	7	10000	2	1	0	2	0
132	627	7	10000	2	1	0	2	0
136	628	7	10000	2	1	0	2	0
130	629	7	10000	2	1	0	2	0
128	630	7	10000	2	1	0	2	0
123	631	7	10000	2	1	0	2	0
120	632	7	10000	2	1	0	2	0
121	633	7	10000	2	1	0	2	0
117	634	7	10000	2	1	0	2	0
113	635	7	10000	2	1	0	2	0
109	636	7	10000	2	1	0	2	0
104	637	7	10000	2	1	0	2	0
101	638	7	10000	2	1	0	2	0
100	639	7	10000	2	1	0	2	0
95	640	7	10000	2	1	0	2	0
92	641	7	10000	2	1	0	2	0
92	642	7	10000	2	1	0	2	0
91	643	7	10000	2	1	0	2	0
88	644	7	10000	2	1	0	2	0
86	645	7	10000	2	1	0	2	0
84	646	7	10000	2	1	0	2	0
83	647	7	10000	2	1	0	2	0
82	648	7	10000	2	1	0	2	0
78	649	7	10000	2	1	0	2	0
75	650	7	10000	2	1	0	2	0
73	651	7	10000	2	1	0	2	0
72	652	7	10000	2	1	0	2	0
71	653	7	10000	2	1	0	2	0
69	654	7	10000	2	1	0	2	0
66	655	7	10000	2	1	0	2	0
63	656	7	10000	2	1	0	2	0
61	657	7	10000	2	1	0	2	0
60	658	7	10000	2	1	0	2	0
61	659	7	10000	2	1	0	2	0
59	660	7	10000	2	1	0	2	0
57	661	7	10000	2	1	0	2	0
56	662	7	10000	2	1	0	2	0
56	663	7	10000	2	1	0	2	0
57	664	7	10000	2	1	0	2	0
61	665	7	10000	2	1	0	2	0
62	666	7	10000	2	1	0	2	0
63	667	7	10000	2	1	0	2	0
64	668	7	10000	2	1	0	2	0
65	669	7	10000	2	1	0	2	0
67	670	7	10000	2	1	0	2	0
70	671	7	10000	2	1	0	2	0
73	672	7	10000	2	1	0	2	0
73	673	7	10000	2	1	0	2	0
72	674	7	10000	2	1	0	2	0
71	675	7	10000	2	1	0	2	0
67	676	7	10000	2	1	0	2	0
65	677	7	10000	2	1	0	2	0
61	678	7	10000	2	1	0	2	0
61	679	7	10000	2	1	0	2	0
59	680	7	10000	2	1	0	2	0
57	681	7	10000	2	1	0	2	0
54	682	7	10000	2	1	0	2	0
54	683	7	10000	2	1	0	2	0
54	684	7	10000	2	1	0	2	0
56	685	7	10000	2	1	0	2	0
58	686	7	10000	2	1	0	2	0
57	687	7	10000	2	1	0	2	0
57	688	7	10000	2	1	0	2	0
55	689	7	10000	2	1	0	2	0
52	690	7	10000	2	1	0	2	0
51	691	7	10000	2	1	0	2	0
49	692	7	10000	2	1	0	2	0
48	693	7	10000	2	1	0	2	0
47	694	7	10000	2	1	0	2	0
46	695	7	10000	2	1	0	2	0
44	696	7	10000	2	1	0	2	0
43	697	7	10000	2	1	0	2	0
41	698	7	10000	2	1	0	2	0
42	699	7	10000	2	1	0	2	0
44	700	7	10000	2	1	0	2	0
43	712	7	10000	2	1	0	2	0
44	713	7	10000	2	1	0	2	0
44	714	7	10000	2	1	0	2	0
42	715	7	10000	2	1	0	2	0
42	716	7	10000	2	1	0	2	0
41	717	7	10000	2	1	0	2	0
39	718	7	10000	2	1	0	2	0
39	719	7	10000	2	1	0	2	0
36	720	7	10000	2	1	0	2	0
36	721	7	10000	2	1	0	2	0
37	722	7	10000	2	1	0	2	0
37	723	7	10000	2	1	0	2	0
39	720	7	10000	2	1	0	2	0
41	721	7	10000	2	1	0	2	0
42	722	7	10000	2	1	0	2	0
40	723	7	10000	2	1	0	2	0
39	724	7	10000	2	1	0	2	0
38	725	7	10000	2	1	0	2	0
39	726	7	10000	2	1	0	2	0
38	727	7	10000	2	1	0	2	0
37	728	7	10000	2	1	0	2	0
36	729	7	10000	2	1	0	2	0
36	731	7	10000	2	1	0	2	0
36	732	7	10000	2	1	0	2	0
35	733	7	10000	2	1	0	2	0
34	734	7	10000	2	1	0	2	0
35	735	7	10000	2	1	0	2	0
34	736	7	10000	2	1	0	2	0
32	737	7	10000	2	1	0	2	0
30	738	7	10000	2	1	0	2	0
30	739	7	10000	2	1	0	2	0
30	740	7	10000	2	1	0	2	0
28	736	7	10000	2	1	0	2	0
28	737	7	10000	2	1	0	2	0
27	738	7	10000	2	1	0	2	0
29	739	7	10000	2	1	0	2	0
31	740	7	10000	2	1	0	2	0
34	741	7	10000	2	1	0	2	0
39	741	7	10000	2	1	0	2	0
42	742	7	10000	2	1	0	2	0
41	743	7	10000	2	1	0	2	0
39	744	7	10000	2	1	0	2	0
37	747	7	10000	2	1	0	2	0
36	748	7	10000	2	1	0	2	0
35	749	7	10000	2	1	0	2	0
34	750	7	10000	2	1	0	2	0
34	751	7	10000	2	1	0	2	0
36	752	7	10000	2	1	0	2	0
35	752	7	10000	2	1	0	2	0
34	753	7	10000	2	1	0	2	0
33	754	7	10000	2	1	0	2	0
33	755	7	10000	2	1	0	2	0
36	759	7	10000	2	1	0	2	0
42	760	7	10000	2	1	0	2	0
43	761	7	10000	2	1	0	2	0
45	762	7	10000	2	1	0	2	0
48	763	7	10000	2	1	0	2	0
47	764	7	10000	2	1	0	2	0
48	765	7	10000	2	1	0	2	0
51	766	7	10000	2	1	0	2	0
53	763	7	10000	2	1	0	2	0
52	764	7	10000	2	1	0	2	0
53	765	7	10000	2	1	0	2	0
53	766	7	10000	2	1	0	2	0
51	768	7	10000	2	1	0	2	0
50	769	7	10000	2	1	0	2	0
48	770	7	10000	2	1	0	2	0
46	771	7	10000	2	1	0	2	0
48	772	7	10000	2	1	0	2	0
51	773	7	10000	2	1	0	2	0
53	775	7	10000	2	1	0	2	0
51	776	7	10000	2	1	0	2	0
50	777	7	10000	2	1	0	2	0
55	778	7	10000	2	1	0	2	0
63	779	7	10000	2	1	0	2	0
67	780	7	10000	2	1	0	2	0
71	779	7	10000	2	1	0	2	0
71	780	7	10000	2	1	0	2	0
71	781	7	10000	2	1	0	2	0
78	782	7	10000	2	1	0	2	0
83	786	7	10000	2	1	0	2	0
85	787	7	10000	2	1	0	2	0
82	788	7	10000	2	1	0	2	0
81	789	7	10000	2	1	0	2	0
78	790	7	10000	2	1	0	2	0
74	791	7	10000	2	1	0	2	0
74	791	7	10000	2	1	0	2	0
72	792	7	10000	2	1	0	2	0
72	793	7	10000	2	1	0	2	0
76	794	7	10000	2	1	0	2	0
76	795	7	10000	2	1	0	2	0
77	796	7	10000	2	1	0	2	0
83	798	7	10000	2	1	0	2	0
84	799	7	10000	2	1	0	2	0
81	800	7	10000	2	1	0	2	0
79	801	7	10000	2	1	0	2	0
76	802	7	10000	2	1	0	2	0
75	803	7	10000	2	1	0	2	0
75	799	7	10000	2	1	0	2	0
72	800	7	10000	2	1	0	2	0
70	801	7	10000	2	1	0	2	0
68	802	7	10000	2	1	0	2	0
71	803	7	10000	2	1	0	2	0
75	804	7	10000	2	1	0	2	0
72	805	7	10000	2	1	0	2	0
72	806	7	10000	2	1	0	2	0
73	807	7	10000	2	1	0	2	0
76	808	7	10000	2	1	0	2	0
77	809	7	10000	2	1	0	2	0
76	810	7	10000	2	1	0	2	0
74	811	7	10000	2	1	0	2	0
71	812	7	10000	2	1	0	2	0
69	813	7	10000	2	1	0	2	0
67	814	7	10000	2	1	0	2	0
66	815	7	10000	2	1	0	2	0
63	816	7	10000	2	1	0	2	0
61	817	7	10000	2	1	0	2	0
59	818	7	10000	2	1	0	2	0
59	819	7	10000	2	1	0	2	0
58	820	7	10000	2	1	0	2	0
57	821	7	10000	2	1	0	2	0
55	822	7	10000	2	1	0	2	0
55	823	7	10000	2	1	0	2	0
55	824	7	10000	2	1	0	2	0
54	825	7	10000	2	1	0	2	0
53	826	7	10000	2	1	0	2	0
54	827	7	10000	2	1	0	2	0
57	828	7	10000	2	1	0	2	0
55	829	7	10000	2	1	0	2	0
53	830	7	10000	2	1	0	2	0
52	831	7	10000	2	1	0	2	0
51	832	7	10000	2	1	0	2	0
51	833	7	10000	2	1	0	2	0
49	834	7	10000	2	1	0	2	0
48	835	7	10000	2	1	0	2	0
48	836	7	10000	2	1	0	2	0
45	837	7	10000	2	1	0	2	0
43	838	7	10000	2	1	0	2	0
43	839	7	10000	2	1	0	2	0
42	840	7	10000	2	1	0	2	0
43	841	7	10000	2	1	0	2	0
46	842	7	10000	2	1	0	2	0
48	843	7	10000	2	1	0	2	0
48	844	7	10000	2	1	0	2	0
48	845	7	10000	2	1	0	2	0
47	846	7	10000	2	1	0	2	0
46	847	7	10000	2	1	0	2	0
45	848	7	10000	2	1	0	2	0
43	849	7	10000	2	1	0	2	0
40	850	7	10000	2	1	0	2	0
40	851	7	10000	2	1	0	2	0
41	852	7	10000	2	1	0	2	0
42	853	7	10000	2	1	0	2	0
44	854	7	10000	2	1	0	2	0
45	855	7	10000	2	1	0	2	0
42	856	7	10000	2	1	0	2	0
42	857	7	10000	2	1	0	2	0
41	858	7	10000	2	1	0	2	0
41	859	7	10000	2	1	0	2	0
45	860	7	10000	2	1	0	2	0
49	861	7	10000	2	1	0	2	0
50	862	7	10000	2	1	0	2	0
51	863	7	10000	2	1	0	2	0
51	864	7	10000	2	1	0	2	0
50	865	7	10000	2	1	0	2	0
50	866	7	10000	2	1	0	2	0
51	867	7	10000	2	1	0	2	0
50	868	7	10000	2	1	0	2	0
47	869	7	10000	2	1	0	2	0
44	870	7	10000	2	1	0	2	0
44	871	7	10000	2	1	0	2	0
44	872	7	10000	2	1	0	2	0
47	873	7	10000	2	1	0	2	0
47	874	7	10000	2	1	0	2	0
46	875	7	10000	2	1	0	2	0
45	876	7	10000	2	1	0	2	0
44	877	7	10000	2	1	0	2	0
45	878	7	10000	2	1	0	2	0
48	879	7	10000	2	1	0	2	0
49	880	7	10000	2	1	0	2	0
48	881	7	10000	2	1	0	2	0
47	882	7	10000	2	1	0	2	0
49	883	7	10000	2	1	0	2	0
55	884	7	10000	2	1	0	2	0
62	885	7	10000	2	1	0	2	0
66	886	7	10000	2	1	0	2	0
66	887	7	10000	2	1	0	2	0
65	888	7	10000	2	1	0	2	0
62	889	7	10000	2	1	0	2	0
59	890	7	10000	2	1	0	2	0
57	891	7	10000	2	1	0	2	0
56	892	7	10000	2	1	0	2	0
56	893	7	10000	2	1	0	2	0
55	894	7	10000	2	1	0	2	0
54	895	7	10000	2	1	0	2	0
55	896	7	10000	2	1	0	2	0
56	897	7	10000	2	1	0	2	0
58	898	7	10000	2	1	0	2	0
59	899	7	10000	2	1	0	2	0
63	900	7	10000	2	1	0	2	0
67	901	7	10000	2	1	0	2	0
67	902	7	10000	2	1	0	2	0
64	903	7	10000	2	1	0	2	0
65	904	7	10000	2	1	0	2	0
66	905	7	10000	2	1	0	2	0
69	906	7	10000	2	1	0	2	0
70	907	7	10000	2	1	0	2	0
68	908	7	10000	2	1	0	2	0
69	909	7	10000	2	1	0	2	0
72	910	7	10000	2	1	0	2	0
72	911	7	10000	2	1	0	2	0
71	912	7	10000	2	1	0	2	0
75	913	7	10000	2	1	0	2	0
78	914	7	10000	2	1	0	2	0
84	915	7	10000	2	1	0	2	0
88	916	7	10000	2	1	0	2	0
85	917	7	10000	2	1	0	2	0
83	918	7	10000	2	1	0	2	0
85	919	7	10000	2	1	0	2	0
83	920	7	10000	2	1	0	2	0
82	921	7	10000	2	1	0	2	0
79	922	7	10000	2	1	0	2	0
79	923	7	10000	2	1	0	2	0
80	924	7	10000	2	1	0	2	0
81	925	7	10000	2	1	0	2	0
85	926	7	10000	2	1	0	2	0
91	927	7	10000	2	1	0	2	0
97	928	7	10000	2	1	0	2	0
100	929	7	10000	2	1	0	2	0
96	930	7	10000	2	1	0	2	0
95	931	7	10000	2	1	0	2	0
95	932	7	10000	2	1	0	2	0
95	933	7	10000	2	1	0	2	0
96	934	7	10000	2	1	0	2	0
98	935	7	10000	2	1	0	2	0
99	936	7	10000	2	1	0	2	0
98	937	7	10000	2	1	0	2	0
96	938	7	10000	2	1	0	2	0
96	939	7	10000	2	1	0	2	0
95	940	7	10000	2	1	0	2	0
91	941	7	10000	2	1	0	2	0
87	942	7	10000	2	1	0	2	0
85	943	7	10000	2	1	0	2	0
83	944	7	10000	2	1	0	2	0
82	945	7	10000	2	1	0	2	0
79	946	7	10000	2	1	0	2	0
78	947	7	10000	2	1	0	2	0
76	948	7	10000	2	1	0	2	0
72	949	7	10000	2	1	0	2	0
68	950	7	10000	2	1	0	2	0
66	951	7	10000	2	1	0	2	0
65	952	7	10000	2	1	0	2	0
63	953	7	10000	2	1	0	2	0
60	954	7	10000	2	1	0	2	0
58	955	7	10000	2	1	0	2	0
56	956	7	10000	2	1	0	2	0
54	957	7	10000	2	1	0	2	0
51	958	7	10000	2	1	0	2	0
51	959	7	10000	2	1	0	2	0
51	960	7	10000	2	1	0	2	0
49	961	7	10000	2	1	0	2	0
48	962	7	10000	2	1	0	2	0
47	963	7	10000	2	1	0	2	0
46	964	7	10000	2	1	0	2	0
46	965	7	10000	2	1	0	2	0
45	966	7	10000	2	1	0	2	0
48	967	7	10000	2	1	0	2	0
53	968	7	10000	2	1	0	2	0
53	969	7	10000	2	1	0	2	0
52	970	7	10000	2	1	0	2	0
56	971	7	10000	2	1	0	2	0
62	972	7	10000	2	1	0	2	0
67	973	7	10000	2	1	0	2	0
66	974	7	10000	2	1	0	2	0
71	975	7	10000	2	1	0	2	0
77	976	7	10000	2	1	0	2	0
82	977	7	10000	2	1	0	2	0
82	978	7	10000	2	1	0	2	0
80	979	7	10000	2	1	0	2	0
82	980	7	10000	2	1	0	2	0
82	981	7	10000	2	1	0	2	0
82	982	7	10000	2	1	0	2	0
80	983	7	10000	2	1	0	2	0
77	984	7	10000	2	1	0	2	0
75	985	7	10000	2	1	0	2	0
74	986	7	10000	2	1	0	2	0
72	987	7	10000	2	1	0	2	0
71	988	7	10000	2	1	0	2	0
68	989	7	10000	2	1	0	2	0
64	990	7	10000	2	1	0	2	0
61	991	7	10000	2	1	0	2	0
62	992	7	10000	2	1	0	2	0
63	993	7	10000	2	1	0	2	0
60	994	7	10000	2	1	0	2	0
58	995	7	10000	2	1	0	2	0
56	996	7	10000	2	1	0	2	0
56	997	7	10000	2	1	0	2	0
56	998	7	10000	2	1	0	2	0
56	999	7	10000	2	1	0	2	0
57	1000	7	10000	2	1	0	2	0
25	1	7	10000	3	1	0	3	0
25	2	7	10000	3	1	0	3	0
24	3	7	10000	3	1	0	3	0
25	4	7	10000	3	1	0	3	0
28	5	7	10000	3	1	0	3	0
28	6	7	10000	3	1	0	3	0
28	7	7	10000	3	1	0	3	0
28	8	7	10000	3	1	0	3	0
28	9	7	10000	3	1	0	3	0
29	10	7	10000	3	1	0	3	0
29	11	7	10000	3	1	0	3	0
29	12	7	10000	3	1	0	3	0
30	13	7	10000	3	1	0	3	0
29	14	7	10000	3	1	0	3	0
29	15	7	10000	3	1	0	3	0
28	16	7	10000	3	1	0	3	0
27	17	7	10000	3	1	0	3	0
28	18	7	10000	3	1	0	3	0
29	19	7	10000	3	1	0	3	0
28	20	7	10000	3	1	0	3	0
29	20	7	10000	3	1	0	3	0
29	21	7	10000	3	1	0	3	0
28	23	7	10000	3	1	0	3	0
30	24	7	10000	3	1	0	3	0
31	25	7	10000	3	1	0	3	0
31	26	7	10000	3	1	0	3	0
29	27	7	10000	3	1	0	3	0
29	28	7	10000	3	1	0	3	0
28	29	7	10000	3	1	0	3	0
28	30	7	10000	3	1	0	3	0
27	31	7	10000	3	1	0	3	0
28	32	7	10000	3	1	0	3	0
27	33	7	10000	3	1	0	3	0
24	34	7	10000	3	1	0	3	0
24	35	7	10000	3	1	0	3	0
24	36	7	10000	3	1	0	3	0
23	37	7	10000	3	1	0	3	0
24	38	7	10000	3	1	0	3	0
25	39	7	10000	3	1	0	3	0
24	40	7	10000	3	1	0	3	0
24	40	7	10000	3	1	0	3	0
23	41	7	10000	3	1	0	3	0
22	43	7	10000	3	1	0	3	0
23	44	7	10000	3	1	0	3	0
22	45	7	10000	3	1	0	3	0
22	46	7	10000	3	1	0	3	0
21	47	7	10000	3	1	0	3	0
20	48	7	10000	3	1	0	3	0
20	49	7	10000	3	1	0	3	0
20	50	7	10000	3	1	0	3	0
20	51	7	10000	3	1	0	3	0
19	52	7	10000	3	1	0	3	0
19	53	7	10000	3	1	0	3	0
17	54	7	10000	3	1	0	3	0
16	55	7	10000	3	1	0	3	0
16	56	7	10000	3	1	0	3	0
16	57	7	10000	3	1	0	3	0
17	58	7	10000	3	1	0	3	0
16	59	7	10000	3	1	0	3	0
16	60	7	10000	3	1	0	3	0
16	61	7	10000	3	1	0	3	0
14	62	7	10000	3	1	0	3	0
14	63	7	10000	3	1	0	3	0
17	64	7	10000	3	1	0	3	0
16	65	7	10000	3	1	0	3	0
16	66	7	10000	3	1	0	3	0
18	67	7	10000	3	1	0	3	0
20	68	7	10000	3	1	0	3	0
21	69	7	10000	3	1	0	3	0
20	70	7	10000	3	1	0	3	0
20	71	7	10000	3	1	0	3	0
20	72	7	10000	3	1	0	3	0
19	73	7	10000	3	1	0	3	0
17	74	7	10000	3	1	0	3	0
16	75	7	10000	3	1	0	3	0
16	76	7	10000	3	1	0	3	0
16	77	7	10000	3	1	0	3	0
17	78	7	10000	3	1	0	3	0
17	79	7	10000	3	1	0	3	0
17	80	7	10000	3	1	0	3	0
18	80	7	10000	3	1	0	3	0
17	81	7	10000	3	1	0	3	0
17	83	7	10000	3	1	0	3	0
18	84	7	10000	3	1	0	3	0
18	85	7	10000	3	1	0	3	0
17	86	7	10000	3	1	0	3	0
16	87	7	10000	3	1	0	3	0
16	88	7	10000	3	1	0	3	0
15	89	7	10000	3	1	0	3	0
14	90	7	10000	3	1	0	3	0
14	91	7	10000	3	1	0	3	0
14	92	7	10000	3	1	0	3	0
15	93	7	10000	3	1	0	3	0
14	94	7	10000	3	1	0	3	0
13	95	7	10000	3	1	0	3	0
14	96	7	10000	3	1	0	3	0
12	97	7	10000	3	1	0	3	0
14	98	7	10000	3	1	0	3	0
18	99	7	10000	3	1	0	3	0
21	100	7	10000	3	1	0	3	0
23	101	7	10000	3	1	0	3	0
22	102	7	10000	3	1	0	3	0
22	103	7	10000	3	1	0	3	0
24	104	7	10000	3	1	0	3	0
26	105	7	10000	3	1	0	3	0
27	106	7	10000	3	1	0	3	0
26	107	7	10000	3	1	0	3	0
25	108	7	10000	3	1	0	3	0
23	109	7	10000	3	1	0	3	0
23	110	7	10000	3	1	0	3	0
24	111	7	10000	3	1	0	3	0
24	112	7	10000	3	1	0	3	0
25	113	7	10000	3	1	0	3	0
25	114	7	10000	3	1	0	3	0
24	115	7	10000	3	1	0	3	0
24	116	7	10000	3	1	0	3	0
23	117	7	10000	3	1	0	3	0
23	118	7	10000	3	1	0	3	0
22	119	7	10000	3	1	0	3	0
21	120	7	10000	3	1	0	3	0
20	120	7	10000	3	1	0	3	0
19	121	7	10000	3	1	0	3	0
18	123	7	10000	3	1	0	3	0
19	124	7	10000	3	1	0	3	0
20	125	7	10000	3	1	0	3	0
19	126	7	10000	3	1	0	3	0
18	127	7	10000	3	1	0	3	0
19	128	7	10000	3	1	0	3	0
18	129	7	10000	3	1	0	3	0
18	130	7	10000	3	1	0	3	0
20	130	7	10000	3	1	0	3	0
19	131	7	10000	3	1	0	3	0
20	133	7	10000	3	1	0	3	0
20	134	7	10000	3	1	0	3	0
19	135	7	10000	3	1	0	3	0
20	136	7	10000	3	1	0	3	0
20	137	7	10000	3	1	0	3	0
19	138	7	10000	3	1	0	3	0
19	139	7	10000	3	1	0	3	0
19	140	7	10000	3	1	0	3	0
18	141	7	10000	3	1	0	3	0
17	142	7	10000	3	1	0	3	0
18	143	7	10000	3	1	0	3	0
21	144	7	10000	3	1	0	3	0
24	145	7	10000	3	1	0	3	0
23	146	7	10000	3	1	0	3	0
22	147	7	10000	3	1	0	3	0
21	148	7	10000	3	1	0	3	0
21	149	7	10000	3	1	0	3	0
21	150	7	10000	3	1	0	3	0
23	151	7	10000	3	1	0	3	0
24	152	7	10000	3	1	0	3	0
24	153	7	10000	3	1	0	3	0
24	154	7	10000	3	1	0	3	0
24	155	7	10000	3	1	0	3	0
23	156	7	10000	3	1	0	3	0
24	157	7	10000	3	1	0	3	0
25	158	7	10000	3	1	0	3	0
24	159	7	10000	3	1	0	3	0
24	160	7	10000	3	1	0	3	0
23	160	7	10000	3	1	0	3	0
21	161	7	10000	3	1	0	3	0
21	163	7	10000	3	1	0	3	0
22	164	7	10000	3	1	0	3	0
23	165	7	10000	3	1	0	3	0
23	166	7	10000	3	1	0	3	0
22	167	7	10000	3	1	0	3	0
21	168	7	10000	3	1	0	3	0
21	169	7	10000	3	1	0	3	0
20	170	7	10000	3	1	0	3	0
21	171	7	10000	3	1	0	3	0
22	172	7	10000	3	1	0	3	0
21	173	7	10000	3	1	0	3	0
20	174	7	10000	3	1	0	3	0
18	175	7	10000	3	1	0	3	0
18	176	7	10000	3	1	0	3	0
18	177	7	10000	3	1	0	3	0
17	178	7	10000	3	1	0	3	0
18	179	7	10000	3	1	0	3	0
18	180	7	10000	3	1	0	3	0
17	181	7	10000	3	1	0	3	0
17	182	7	10000	3	1	0	3	0
19	183	7	10000	3	1	0	3	0
22	184	7	10000	3	1	0	3	0
24	185	7	10000	3	1	0	3	0
22	186	7	10000	3	1	0	3	0
21	187	7	10000	3	1	0	3	0
21	188	7	10000	3	1	0	3	0
21	189	7	10000	3	1	0	3	0
23	190	7	10000	3	1	0	3	0
24	191	7	10000	3	1	0	3	0
24	192	7	10000	3	1	0	3	0
23	193	7	10000	3	1	0	3	0
21	194	7	10000	3	1	0	3	0
21	195	7	10000	3	1	0	3	0
21	196	7	10000	3	1	0	3	0
22	197	7	10000	3	1	0	3	0
23	198	7	10000	3	1	0	3	0
22	199	7	10000	3	1	0	3	0
21	200	7	10000	3	1	0	3	0
22	200	7	10000	3	1	0	3	0
22	201	7	10000	3	1	0	3	0
24	203	7	10000	3	1	0	3	0
25	204	7	10000	3	1	0	3	0
26	205	7	10000	3	1	0	3	0
26	206	7	10000	3	1	0	3	0
24	207	7	10000	3	1	0	3	0
23	208	7	10000	3	1	0	3	0
24	209	7	10000	3	1	0	3	0
25	210	7	10000	3	1	0	3	0
25	211	7	10000	3	1	0	3	0
25	212	7	10000	3	1	0	3	0
24	213	7	10000	3	1	0	3	0
22	214	7	10000	3	1	0	3	0
23	215	7	10000	3	1	0	3	0
23	216	7	10000	3	1	0	3	0
23	217	7	10000	3	1	0	3	0
23	218	7	10000	3	1	0	3	0
25	219	7	10000	3	1	0	3	0
26	220	7	10000	3	1	0	3	0
26	221	7	10000	3	1	0	3	0
25	222	7	10000	3	1	0	3	0
25	223	7	10000	3	1	0	3	0
26	224	7	10000	3	1	0	3	0
27	225	7	10000	3	1	0	3	0
25	226	7	10000	3	1	0	3	0
26	227	7	10000	3	1	0	3	0
25	228	7	10000	3	1	0	3	0
25	229	7	10000	3	1	0	3	0
26	230	7	10000	3	1	0	3	0
24	231	7	10000	3	1	0	3	0
24	232	7	10000	3	1	0	3	0
25	233	7	10000	3	1	0	3	0
23	234	7	10000	3	1	0	3	0
21	235	7	10000	3	1	0	3	0
22	236	7	10000	3	1	0	3	0
21	237	7	10000	3	1	0	3	0
20	238	7	10000	3	1	0	3	0
20	239	7	10000	3	1	0	3	0
20	240	7	10000	3	1	0	3	0
19	240	7	10000	3	1	0	3	0
19	241	7	10000	3	1	0	3	0
19	243	7	10000	3	1	0	3	0
20	244	7	10000	3	1	0	3	0
21	245	7	10000	3	1	0	3	0
20	246	7	10000	3	1	0	3	0
19	247	7	10000	3	1	0	3	0
19	248	7	10000	3	1	0	3	0
19	249	7	10000	3	1	0	3	0
20	250	7	10000	3	1	0	3	0
20	251	7	10000	3	1	0	3	0
20	252	7	10000	3	1	0	3	0
20	253	7	10000	3	1	0	3	0
19	254	7	10000	3	1	0	3	0
19	255	7	10000	3	1	0	3	0
18	256	7	10000	3	1	0	3	0
19	257	7	10000	3	1	0	3	0
20	258	7	10000	3	1	0	3	0
21	259	7	10000	3	1	0	3	0
21	260	7	10000	3	1	0	3	0
22	261	7	10000	3	1	0	3	0
23	262	7	10000	3	1	0	3	0
21	263	7	10000	3	1	0	3	0
21	264	7	10000	3	1	0	3	0
23	265	7	10000	3	1	0	3	0
22	266	7	10000	3	1	0	3	0
22	267	7	10000	3	1	0	3	0
23	268	7	10000	3	1	0	3	0
22	269	7	10000	3	1	0	3	0
21	270	7	10000	3	1	0	3	0
21	271	7	10000	3	1	0	3	0
21	272	7	10000	3	1	0	3	0
20	273	7	10000	3	1	0	3	0
19	274	7	10000	3	1	0	3	0
18	275	7	10000	3	1	0	3	0
17	276	7	10000	3	1	0	3	0
18	277	7	10000	3	1	0	3	0
19	278	7	10000	3	1	0	3	0
18	279	7	10000	3	1	0	3	0
19	280	7	10000	3	1	0	3	0
19	280	7	10000	3	1	0	3	0
19	281	7	10000	3	1	0	3	0
18	283	7	10000	3	1	0	3	0
18	284	7	10000	3	1	0	3	0
20	285	7	10000	3	1	0	3	0
20	286	7	10000	3	1	0	3	0
20	287	7	10000	3	1	0	3	0
21	288	7	10000	3	1	0	3	0
22	289	7	10000	3	1	0	3	0
24	290	7	10000	3	1	0	3	0
24	291	7	10000	3	1	0	3	0
24	292	7	10000	3	1	0	3	0
25	293	7	10000	3	1	0	3	0
26	294	7	10000	3	1	0	3	0
26	295	7	10000	3	1	0	3	0
27	296	7	10000	3	1	0	3	0
27	297	7	10000	3	1	0	3	0
27	298	7	10000	3	1	0	3	0
27	299	7	10000	3	1	0	3	0
28	300	7	10000	3	1	0	3	0
27	301	7	10000	3	1	0	3	0
27	302	7	10000	3	1	0	3	0
26	303	7	10000	3	1	0	3	0
25	304	7	10000	3	1	0	3	0
26	305	7	10000	3	1	0	3	0
25	306	7	10000	3	1	0	3	0
24	307	7	10000	3	1	0	3	0
23	308	7	10000	3	1	0	3	0
22	309	7	10000	3	1	0	3	0
21	310	7	10000	3	1	0	3	0
21	311	7	10000	3	1	0	3	0
20	312	7	10000	3	1	0	3	0
20	313	7	10000	3	1	0	3	0
20	314	7	10000	3	1	0	3	0
19	315	7	10000	3	1	0	3	0
18	316	7	10000	3	1	0	3	0
17	317	7	10000	3	1	0	3	0
19	318	7	10000	3	1	0	3	0
20	319	7	10000	3	1	0	3	0
20	320	7	10000	3	1	0	3	0
20	320	7	10000	3	1	0	3	0
20	321	7	10000	3	1	0	3	0
20	323	7	10000	3	1	0	3	0
20	324	7	10000	3	1	0	3	0
21	325	7	10000	3	1	0	3	0
20	326	7	10000	3	1	0	3	0
19	327	7	10000	3	1	0	3	0
18	328	7	10000	3	1	0	3	0
19	329	7	10000	3	1	0	3	0
17	330	7	10000	3	1	0	3	0
17	331	7	10000	3	1	0	3	0
18	332	7	10000	3	1	0	3	0
18	333	7	10000	3	1	0	3	0
17	334	7	10000	3	1	0	3	0
18	335	7	10000	3	1	0	3	0
18	336	7	10000	3	1	0	3	0
19	337	7	10000	3	1	0	3	0
20	338	7	10000	3	1	0	3	0
20	339	7	10000	3	1	0	3	0
20	340	7	10000	3	1	0	3	0
19	341	7	10000	3	1	0	3	0
18	342	7	10000	3	1	0	3	0
17	343	7	10000	3	1	0	3	0
18	344	7	10000	3	1	0	3	0
19	345	7	10000	3	1	0	3	0
20	346	7	10000	3	1	0	3	0
20	347	7	10000	3	1	0	3	0
20	348	7	10000	3	1	0	3	0
20	349	7	10000	3	1	0	3	0
19	350	7	10000	3	1	0	3	0
18	351	7	10000	3	1	0	3	0
17	352	7	10000	3	1	0	3	0
18	353	7	10000	3	1	0	3	0
17	354	7	10000	3	1	0	3	0
15	355	7	10000	3	1	0	3	0
16	356	7	10000	3	1	0	3	0
16	357	7	10000	3	1	0	3	0
16	358	7	10000	3	1	0	3	0
16	359	7	10000	3	1	0	3	0
17	360	7	10000	3	1	0	3	0
17	360	7	10000	3	1	0	3	0
16	361	7	10000	3	1	0	3	0
17	363	7	10000	3	1	0	3	0
21	364	7	10000	3	1	0	3	0
23	365	7	10000	3	1	0	3	0
21	366	7	10000	3	1	0	3	0
21	367	7	10000	3	1	0	3	0
20	368	7	10000	3	1	0	3	0
20	369	7	10000	3	1	0	3	0
20	370	7	10000	3	1	0	3	0
20	371	7	10000	3	1	0	3	0
22	372	7	10000	3	1	0	3	0
21	373	7	10000	3	1	0	3	0
20	374	7	10000	3	1	0	3	0
18	375	7	10000	3	1	0	3	0
18	376	7	10000	3	1	0	3	0
19	377	7	10000	3	1	0	3	0
20	378	7	10000	3	1	0	3	0
20	379	7	10000	3	1	0	3	0
21	380	7	10000	3	1	0	3	0
22	381	7	10000	3	1	0	3	0
23	382	7	10000	3	1	0	3	0
21	383	7	10000	3	1	0	3	0
22	384	7	10000	3	1	0	3	0
24	385	7	10000	3	1	0	3	0
25	386	7	10000	3	1	0	3	0
25	387	7	10000	3	1	0	3	0
24	388	7	10000	3	1	0	3	0
23	389	7	10000	3	1	0	3	0
22	390	7	10000	3	1	0	3	0
21	391	7	10000	3	1	0	3	0
21	392	7	10000	3	1	0	3	0
21	393	7	10000	3	1	0	3	0
20	394	7	10000	3	1	0	3	0
19	395	7	10000	3	1	0	3	0
20	396	7	10000	3	1	0	3	0
20	397	7	10000	3	1	0	3	0
20	398	7	10000	3	1	0	3	0
21	399	7	10000	3	1	0	3	0
21	400	7	10000	3	1	0	3	0
21	400	7	10000	3	1	0	3	0
21	401	7	10000	3	1	0	3	0
20	403	7	10000	3	1	0	3	0
20	404	7	10000	3	1	0	3	0
21	405	7	10000	3	1	0	3	0
20	406	7	10000	3	1	0	3	0
21	407	7	10000	3	1	0	3	0
21	408	7	10000	3	1	0	3	0
21	409	7	10000	3	1	0	3	0
21	410	7	10000	3	1	0	3	0
23	411	7	10000	3	1	0	3	0
26	412	7	10000	3	1	0	3	0
30	413	7	10000	3	1	0	3	0
31	414	7	10000	3	1	0	3	0
29	415	7	10000	3	1	0	3	0
30	416	7	10000	3	1	0	3	0
30	417	7	10000	3	1	0	3	0
29	418	7	10000	3	1	0	3	0
28	419	7	10000	3	1	0	3	0
28	420	7	10000	3	1	0	3	0
27	421	7	10000	3	1	0	3	0
25	422	7	10000	3	1	0	3	0
24	423	7	10000	3	1	0	3	0
24	424	7	10000	3	1	0	3	0
26	425	7	10000	3	1	0	3	0
26	426	7	10000	3	1	0	3	0
25	427	7	10000	3	1	0	3	0
26	428	7	10000	3	1	0	3	0
26	429	7	10000	3	1	0	3	0
26	430	7	10000	3	1	0	3	0
25	431	7	10000	3	1	0	3	0
25	432	7	10000	3	1	0	3	0
26	433	7	10000	3	1	0	3	0
26	434	7	10000	3	1	0	3	0
23	435	7	10000	3	1	0	3	0
22	436	7	10000	3	1	0	3	0
22	437	7	10000	3	1	0	3	0
22	438	7	10000	3	1	0	3	0
22	439	7	10000	3	1	0	3	0
23	440	7	10000	3	1	0	3	0
24	440	7	10000	3	1	0	3	0
23	441	7	10000	3	1	0	3	0
24	443	7	10000	3	1	0	3	0
25	444	7	10000	3	1	0	3	0
27	445	7	10000	3	1	0	3	0
26	446	7	10000	3	1	0	3	0
28	447	7	10000	3	1	0	3	0
29	448	7	10000	3	1	0	3	0
31	449	7	10000	3	1	0	3	0
30	450	7	10000	3	1	0	3	0
30	451	7	10000	3	1	0	3	0
30	452	7	10000	3	1	0	3	0
29	453	7	10000	3	1	0	3	0
28	454	7	10000	3	1	0	3	0
26	455	7	10000	3	1	0	3	0
25	456	7	10000	3	1	0	3	0
25	457	7	10000	3	1	0	3	0
26	458	7	10000	3	1	0	3	0
26	459	7	10000	3	1	0	3	0
28	460	7	10000	3	1	0	3	0
28	461	7	10000	3	1	0	3	0
27	462	7	10000	3	1	0	3	0
26	463	7	10000	3	1	0	3	0
26	464	7	10000	3	1	0	3	0
27	465	7	10000	3	1	0	3	0
26	466	7	10000	3	1	0	3	0
25	467	7	10000	3	1	0	3	0
25	468	7	10000	3	1	0	3	0
26	469	7	10000	3	1	0	3	0
26	470	7	10000	3	1	0	3	0
26	471	7	10000	3	1	0	3	0
26	472	7	10000	3	1	0	3	0
27	473	7	10000	3	1	0	3	0
26	474	7	10000	3	1	0	3	0
24	475	7	10000	3	1	0	3	0
24	476	7	10000	3	1	0	3	0
24	477	7	10000	3	1	0	3	0
23	478	7	10000	3	1	0	3	0
24	479	7	10000	3	1	0	3	0
25	480	7	10000	3	1	0	3	0
25	481	7	10000	3	1	0	3	0
26	482	7	10000	3	1	0	3	0
28	483	7	10000	3	1	0	3	0
31	484	7	10000	3	1	0	3	0
32	485	7	10000	3	1	0	3	0
30	486	7	10000	3	1	0	3	0
29	487	7	10000	3	1	0	3	0
29	488	7	10000	3	1	0	3	0
30	489	7	10000	3	1	0	3	0
31	490	7	10000	3	1	0	3	0
30	491	7	10000	3	1	0	3	0
32	492	7	10000	3	1	0	3	0
33	493	7	10000	3	1	0	3	0
32	494	7	10000	3	1	0	3	0
30	495	7	10000	3	1	0	3	0
29	496	7	10000	3	1	0	3	0
31	497	7	10000	3	1	0	3	0
32	498	7	10000	3	1	0	3	0
31	507	7	10000	3	1	0	3	0
31	508	7	10000	3	1	0	3	0
32	509	7	10000	3	1	0	3	0
30	510	7	10000	3	1	0	3	0
29	511	7	10000	3	1	0	3	0
29	512	7	10000	3	1	0	3	0
30	513	7	10000	3	1	0	3	0
30	514	7	10000	3	1	0	3	0
31	515	7	10000	3	1	0	3	0
32	516	7	10000	3	1	0	3	0
33	515	7	10000	3	1	0	3	1
34	516	7	10000	3	1	0	3	1
32	517	7	10000	3	1	0	3	1
33	518	7	10000	3	1	0	3	1
34	519	7	10000	3	1	0	3	1
34	520	7	10000	3	1	0	3	1
32	521	7	10000	3	1	0	3	1
31	522	7	10000	3	1	0	3	1
30	522	7	10000	3	1	0	3	1
30	523	7	10000	3	1	0	3	1
30	524	7	10000	3	1	0	3	1
30	525	7	10000	3	1	0	3	1
29	526	7	10000	3	1	0	3	1
29	527	7	10000	3	1	0	3	1
28	531	7	10000	3	1	0	3	1
27	532	7	10000	3	1	0	3	1
29	533	7	10000	3	1	0	3	1
28	534	7	10000	3	1	0	3	1
27	535	7	10000	3	1	0	3	1
25	536	7	10000	3	1	0	3	1
25	537	7	10000	3	1	0	3	1
25	538	7	10000	3	1	0	3	1
24	539	7	10000	3	1	0	3	1
24	540	7	10000	3	1	0	3	1
24	536	7	10000	3	1	0	3	1
22	537	7	10000	3	1	0	3	1
20	538	7	10000	3	1	0	3	1
20	539	7	10000	3	1	0	3	1
20	540	7	10000	3	1	0	3	1
20	541	7	10000	3	1	0	3	1
19	541	7	10000	3	1	0	3	1
19	542	7	10000	3	1	0	3	1
18	543	7	10000	3	1	0	3	1
17	544	7	10000	3	1	0	3	1
17	547	7	10000	3	1	0	3	1
17	548	7	10000	3	1	0	3	1
18	549	7	10000	3	1	0	3	1
18	550	7	10000	3	1	0	3	1
19	551	7	10000	3	1	0	3	1
17	552	7	10000	3	1	0	3	1
18	551	7	10000	3	1	0	3	1
18	552	7	10000	3	1	0	3	1
18	553	7	10000	3	1	0	3	1
18	554	7	10000	3	1	0	3	1
19	558	7	10000	3	1	0	3	0
20	559	7	10000	3	1	0	3	0
20	560	7	10000	3	1	0	3	0
21	561	7	10000	3	1	0	3	0
22	562	7	10000	3	1	0	3	0
23	563	7	10000	3	1	0	3	0
22	562	7	10000	3	1	0	3	0
22	563	7	10000	3	1	0	3	0
24	564	7	10000	3	1	0	3	0
26	565	7	10000	3	1	0	3	0
26	566	7	10000	3	1	0	3	0
27	567	7	10000	3	1	0	3	0
30	569	7	10000	3	1	0	3	0
28	570	7	10000	3	1	0	3	0
27	571	7	10000	3	1	0	3	0
26	572	7	10000	3	1	0	3	0
26	573	7	10000	3	1	0	3	0
27	574	7	10000	3	1	0	3	0
27	573	7	10000	3	1	0	3	0
26	574	7	10000	3	1	0	3	0
26	575	7	10000	3	1	0	3	0
25	576	7	10000	3	1	0	3	0
24	578	7	10000	3	1	0	3	0
24	579	7	10000	3	1	0	3	0
24	580	7	10000	3	1	0	3	0
24	581	7	10000	3	1	0	3	0
24	582	7	10000	3	1	0	3	0
24	583	7	10000	3	1	0	3	0
24	585	7	10000	3	1	0	3	0
23	586	7	10000	3	1	0	3	0
24	587	7	10000	3	1	0	3	0
24	588	7	10000	3	1	0	3	0
26	589	7	10000	3	1	0	3	0
26	590	7	10000	3	1	0	3	0
26	589	7	10000	3	1	0	3	0
25	590	7	10000	3	1	0	3	0
29	591	7	10000	3	1	0	3	0
42	592	7	10000	3	1	0	3	0
53	595	7	10000	3	1	0	3	0
53	596	7	10000	3	1	0	3	0
54	597	7	10000	3	1	0	3	0
52	598	7	10000	3	1	0	3	0
49	599	7	10000	3	1	0	3	0
48	600	7	10000	3	1	0	3	0
53	600	7	10000	3	1	0	3	0
58	601	7	10000	3	1	0	3	0
59	602	7	10000	3	1	0	3	0
70	603	7	10000	3	1	0	3	0
71	604	7	10000	3	1	0	3	0
77	602	7	10000	3	1	0	3	0
80	603	7	10000	3	1	0	3	0
92	604	7	10000	3	1	0	3	0
96	605	7	10000	3	1	0	3	0
97	606	7	10000	3	1	0	3	0
105	607	7	10000	3	1	0	3	0
106	608	7	10000	3	1	0	3	0
108	609	7	10000	3	1	0	3	0
109	610	7	10000	3	1	0	3	0
105	611	7	10000	3	1	0	3	0
110	612	7	10000	3	1	0	3	0
126	613	7	10000	3	1	0	3	0
126	614	7	10000	3	1	0	3	0
122	615	7	10000	3	1	0	3	0
120	616	7	10000	3	1	0	3	0
136	617	7	10000	3	1	0	3	0
185	618	7	10000	3	1	0	3	0
199	619	7	10000	3	1	0	3	0
222	620	7	10000	3	1	0	3	0
236	621	7	10000	3	1	0	3	0
236	622	7	10000	3	1	0	3	0
260	623	7	10000	3	1	0	3	0
287	624	7	10000	3	1	0	3	0
300	625	7	10000	3	1	0	3	0
301	626	7	10000	3	1	0	3	0
348	627	7	10000	3	1	0	3	0
428	628	7	10000	3	1	0	3	0
519	629	7	10000	3	1	0	3	0
592	630	7	10000	3	1	0	3	0
642	631	7	10000	3	1	0	3	0
638	632	7	10000	3	1	0	3	0
671	633	7	10000	3	1	0	3	0
741	634	7	10000	3	1	0	3	0
815	635	7	10000	3	1	0	3	0
877	636	7	10000	3	1	0	3	0
918	637	7	10000	3	1	0	3	0
949	638	7	10000	3	1	0	3	0
953	639	7	10000	3	1	0	3	0
925	640	7	10000	3	1	0	3	0
890	641	7	10000	3	1	0	3	0
853	642	7	10000	3	1	0	3	0
815	643	7	10000	3	1	0	3	0
784	644	7	10000	3	1	0	3	0
764	645	7	10000	3	1	0	3	0
746	646	7	10000	3	1	0	3	0
734	647	7	10000	3	1	0	3	0
722	648	7	10000	3	1	0	3	0
709	649	7	10000	3	1	0	3	0
691	650	7	10000	3	1	0	3	0
667	651	7	10000	3	1	0	3	0
644	652	7	10000	3	1	0	3	0
630	653	7	10000	3	1	0	3	0
620	654	7	10000	3	1	0	3	0
610	655	7	10000	3	1	0	3	0
604	656	7	10000	3	1	0	3	0
593	657	7	10000	3	1	0	3	0
581	658	7	10000	3	1	0	3	0
569	659	7	10000	3	1	0	3	0
559	660	7	10000	3	1	0	3	0
548	661	7	10000	3	1	0	3	0
531	662	7	10000	3	1	0	3	0
511	663	7	10000	3	1	0	3	0
494	664	7	10000	3	1	0	3	0
478	665	7	10000	3	1	0	3	0
464	666	7	10000	3	1	0	3	0
445	667	7	10000	3	1	0	3	0
429	668	7	10000	3	1	0	3	0
424	669	7	10000	3	1	0	3	0
424	670	7	10000	3	1	0	3	0
423	671	7	10000	3	1	0	3	0
419	672	7	10000	3	1	0	3	0
412	673	7	10000	3	1	0	3	0
400	674	7	10000	3	1	0	3	0
389	675	7	10000	3	1	0	3	0
380	676	7	10000	3	1	0	3	0
369	677	7	10000	3	1	0	3	0
358	678	7	10000	3	1	0	3	0
348	679	7	10000	3	1	0	3	0
339	680	7	10000	3	1	0	3	0
333	681	7	10000	3	1	0	3	0
330	682	7	10000	3	1	0	3	0
328	683	7	10000	3	1	0	3	0
325	684	7	10000	3	1	0	3	0
323	685	7	10000	3	1	0	3	0
321	686	7	10000	3	1	0	3	0
320	687	7	10000	3	1	0	3	0
318	688	7	10000	3	1	0	3	0
316	689	7	10000	3	1	0	3	0
313	690	7	10000	3	1	0	3	0
308	691	7	10000	3	1	0	3	0
304	692	7	10000	3	1	0	3	0
296	693	7	10000	3	1	0	3	0
284	694	7	10000	3	1	0	3	0
271	695	7	10000	3	1	0	3	0
259	696	7	10000	3	1	0	3	0
248	697	7	10000	3	1	0	3	0
238	698	7	10000	3	1	0	3	0
229	699	7	10000	3	1	0	3	0
220	700	7	10000	3	1	0	3	0
210	701	7	10000	3	1	0	3	0
201	702	7	10000	3	1	0	3	0
194	703	7	10000	3	1	0	3	0
189	704	7	10000	3	1	0	3	0
189	705	7	10000	3	1	0	3	0
185	706	7	10000	3	1	0	3	0
181	707	7	10000	3	1	0	3	0
176	708	7	10000	3	1	0	3	0
169	709	7	10000	3	1	0	3	0
163	710	7	10000	3	1	0	3	0
156	711	7	10000	3	1	0	3	0
150	712	7	10000	3	1	0	3	0
146	713	7	10000	3	1	0	3	0
144	714	7	10000	3	1	0	3	0
141	715	7	10000	3	1	0	3	0
143	716	7	10000	3	1	0	3	0
144	717	7	10000	3	1	0	3	0
145	718	7	10000	3	1	0	3	0
147	719	7	10000	3	1	0	3	0
149	720	7	10000	3	1	0	3	0
148	721	7	10000	3	1	0	3	0
143	722	7	10000	3	1	0	3	0
141	723	7	10000	3	1	0	3	0
138	724	7	10000	3	1	0	3	0
135	725	7	10000	3	1	0	3	0
129	726	7	10000	3	1	0	3	0
124	727	7	10000	3	1	0	3	0
119	728	7	10000	3	1	0	3	0
116	729	7	10000	3	1	0	3	0
111	730	7	10000	3	1	0	3	0
106	731	7	10000	3	1	0	3	0
103	732	7	10000	3	1	0	3	0
101	733	7	10000	3	1	0	3	0
103	734	7	10000	3	1	0	3	0
106	735	7	10000	3	1	0	3	0
111	736	7	10000	3	1	0	3	0
116	737	7	10000	3	1	0	3	0
117	738	7	10000	3	1	0	3	0
118	739	7	10000	3	1	0	3	0
118	740	7	10000	3	1	0	3	0
117	741	7	10000	3	1	0	3	0
116	742	7	10000	3	1	0	3	0
116	743	7	10000	3	1	0	3	0
114	744	7	10000	3	1	0	3	0
113	745	7	10000	3	1	0	3	0
109	746	7	10000	3	1	0	3	0
104	747	7	10000	3	1	0	3	0
102	748	7	10000	3	1	0	3	0
98	749	7	10000	3	1	0	3	0
94	750	7	10000	3	1	0	3	0
92	751	7	10000	3	1	0	3	0
92	752	7	10000	3	1	0	3	0
94	753	7	10000	3	1	0	3	0
98	754	7	10000	3	1	0	3	0
101	755	7	10000	3	1	0	3	0
106	756	7	10000	3	1	0	3	0
111	757	7	10000	3	1	0	3	0
116	758	7	10000	3	1	0	3	0
120	759	7	10000	3	1	0	3	0
122	760	7	10000	3	1	0	3	0
123	761	7	10000	3	1	0	3	0
121	762	7	10000	3	1	0	3	0
117	763	7	10000	3	1	0	3	0
112	764	7	10000	3	1	0	3	0
112	765	7	10000	3	1	0	3	0
110	766	7	10000	3	1	0	3	0
107	767	7	10000	3	1	0	3	0
103	768	7	10000	3	1	0	3	0
101	769	7	10000	3	1	0	3	0
97	770	7	10000	3	1	0	3	0
94	771	7	10000	3	1	0	3	0
93	772	7	10000	3	1	0	3	0
89	773	7	10000	3	1	0	3	0
87	774	7	10000	3	1	0	3	0
84	775	7	10000	3	1	0	3	0
82	776	7	10000	3	1	0	3	0
81	777	7	10000	3	1	0	3	0
81	778	7	10000	3	1	0	3	0
80	779	7	10000	3	1	0	3	0
80	780	7	10000	3	1	0	3	0
80	781	7	10000	3	1	0	3	0
78	782	7	10000	3	1	0	3	0
75	783	7	10000	3	1	0	3	0
72	784	7	10000	3	1	0	3	0
72	785	7	10000	3	1	0	3	0
69	786	7	10000	3	1	0	3	0
66	787	7	10000	3	1	0	3	0
64	788	7	10000	3	1	0	3	0
63	789	7	10000	3	1	0	3	0
67	790	7	10000	3	1	0	3	0
70	791	7	10000	3	1	0	3	0
74	792	7	10000	3	1	0	3	0
76	793	7	10000	3	1	0	3	0
73	794	7	10000	3	1	0	3	0
70	795	7	10000	3	1	0	3	0
74	796	7	10000	3	1	0	3	0
76	797	7	10000	3	1	0	3	0
76	798	7	10000	3	1	0	3	0
75	799	7	10000	3	1	0	3	0
71	800	7	10000	3	1	0	3	0
69	801	7	10000	3	1	0	3	0
66	802	7	10000	3	1	0	3	0
65	803	7	10000	3	1	0	3	0
66	804	7	10000	3	1	0	3	0
67	805	7	10000	3	1	0	3	0
65	806	7	10000	3	1	0	3	0
63	807	7	10000	3	1	0	3	0
64	808	7	10000	3	1	0	3	0
67	809	7	10000	3	1	0	3	0
69	810	7	10000	3	1	0	3	0
70	811	7	10000	3	1	0	3	0
71	812	7	10000	3	1	0	3	0
68	813	7	10000	3	1	0	3	0
67	814	7	10000	3	1	0	3	0
64	815	7	10000	3	1	0	3	0
64	816	7	10000	3	1	0	3	0
63	817	7	10000	3	1	0	3	0
63	818	7	10000	3	1	0	3	0
62	819	7	10000	3	1	0	3	0
59	820	7	10000	3	1	0	3	0
57	821	7	10000	3	1	0	3	0
54	822	7	10000	3	1	0	3	0
51	823	7	10000	3	1	0	3	0
51	824	7	10000	3	1	0	3	0
54	825	7	10000	3	1	0	3	0
55	826	7	10000	3	1	0	3	0
59	827	7	10000	3	1	0	3	0
63	828	7	10000	3	1	0	3	0
65	829	7	10000	3	1	0	3	0
65	830	7	10000	3	1	0	3	0
64	831	7	10000	3	1	0	3	0
63	832	7	10000	3	1	0	3	0
61	833	7	10000	3	1	0	3	0
60	834	7	10000	3	1	0	3	0
58	835	7	10000	3	1	0	3	0
58	836	7	10000	3	1	0	3	0
58	837	7	10000	3	1	0	3	0
58	838	7	10000	3	1	0	3	0
60	839	7	10000	3	1	0	3	0
61	840	7	10000	3	1	0	3	0
61	841	7	10000	3	1	0	3	0
61	842	7	10000	3	1	0	3	0
58	843	7	10000	3	1	0	3	0
55	844	7	10000	3	1	0	3	0
58	845	7	10000	3	1	0	3	0
61	846	7	10000	3	1	0	3	0
62	847	7	10000	3	1	0	3	0
64	848	7	10000	3	1	0	3	0
63	849	7	10000	3	1	0	3	0
61	850	7	10000	3	1	0	3	0
59	851	7	10000	3	1	0	3	0
59	852	7	10000	3	1	0	3	0
58	853	7	10000	3	1	0	3	0
56	854	7	10000	3	1	0	3	0
54	855	7	10000	3	1	0	3	0
55	856	7	10000	3	1	0	3	0
57	857	7	10000	3	1	0	3	0
60	858	7	10000	3	1	0	3	0
62	859	7	10000	3	1	0	3	0
63	860	7	10000	3	1	0	3	0
62	861	7	10000	3	1	0	3	0
59	862	7	10000	3	1	0	3	0
57	863	7	10000	3	1	0	3	0
57	864	7	10000	3	1	0	3	0
58	865	7	10000	3	1	0	3	0
56	866	7	10000	3	1	0	3	0
55	867	7	10000	3	1	0	3	0
54	868	7	10000	3	1	0	3	0
54	869	7	10000	3	1	0	3	0
53	870	7	10000	3	1	0	3	0
53	871	7	10000	3	1	0	3	0
51	872	7	10000	3	1	0	3	0
50	873	7	10000	3	1	0	3	0
50	874	7	10000	3	1	0	3	0
45	875	7	10000	3	1	0	3	0
44	876	7	10000	3	1	0	3	0
45	877	7	10000	3	1	0	3	0
46	878	7	10000	3	1	0	3	0
45	879	7	10000	3	1	0	3	0
44	880	7	10000	3	1	0	3	0
44	881	7	10000	3	1	0	3	0
44	882	7	10000	3	1	0	3	0
44	883	7	10000	3	1	0	3	0
44	884	7	10000	3	1	0	3	0
47	885	7	10000	3	1	0	3	0
46	886	7	10000	3	1	0	3	0
45	887	7	10000	3	1	0	3	0
45	888	7	10000	3	1	0	3	0
47	889	7	10000	3	1	0	3	0
48	890	7	10000	3	1	0	3	0
50	891	7	10000	3	1	0	3	0
52	892	7	10000	3	1	0	3	0
52	893	7	10000	3	1	0	3	0
56	894	7	10000	3	1	0	3	0
63	895	7	10000	3	1	0	3	0
74	896	7	10000	3	1	0	3	0
80	897	7	10000	3	1	0	3	0
82	898	7	10000	3	1	0	3	0
80	899	7	10000	3	1	0	3	0
78	900	7	10000	3	1	0	3	0
78	901	7	10000	3	1	0	3	0
79	902	7	10000	3	1	0	3	0
81	903	7	10000	3	1	0	3	0
83	904	7	10000	3	1	0	3	0
84	905	7	10000	3	1	0	3	0
82	906	7	10000	3	1	0	3	0
80	907	7	10000	3	1	0	3	0
79	908	7	10000	3	1	0	3	0
78	909	7	10000	3	1	0	3	0
76	910	7	10000	3	1	0	3	0
73	911	7	10000	3	1	0	3	0
70	912	7	10000	3	1	0	3	0
68	913	7	10000	3	1	0	3	0
65	914	7	10000	3	1	0	3	0
61	915	7	10000	3	1	0	3	0
59	916	7	10000	3	1	0	3	0
58	917	7	10000	3	1	0	3	0
60	918	7	10000	3	1	0	3	0
63	919	7	10000	3	1	0	3	0
65	920	7	10000	3	1	0	3	0
68	921	7	10000	3	1	0	3	0
67	922	7	10000	3	1	0	3	0
65	923	7	10000	3	1	0	3	0
62	924	7	10000	3	1	0	3	0
62	925	7	10000	3	1	0	3	0
60	926	7	10000	3	1	0	3	0
60	927	7	10000	3	1	0	3	0
58	928	7	10000	3	1	0	3	0
58	929	7	10000	3	1	0	3	0
58	930	7	10000	3	1	0	3	0
59	931	7	10000	3	1	0	3	0
59	932	7	10000	3	1	0	3	0
58	933	7	10000	3	1	0	3	0
58	934	7	10000	3	1	0	3	0
56	935	7	10000	3	1	0	3	0
56	936	7	10000	3	1	0	3	0
57	937	7	10000	3	1	0	3	0
58	938	7	10000	3	1	0	3	0
57	939	7	10000	3	1	0	3	0
57	940	7	10000	3	1	0	3	0
57	941	7	10000	3	1	0	3	0
53	942	7	10000	3	1	0	3	0
50	943	7	10000	3	1	0	3	0
49	944	7	10000	3	1	0	3	0
50	945	7	10000	3	1	0	3	0
49	946	7	10000	3	1	0	3	0
50	947	7	10000	3	1	0	3	0
50	948	7	10000	3	1	0	3	0
52	949	7	10000	3	1	0	3	0
54	950	7	10000	3	1	0	3	0
53	951	7	10000	3	1	0	3	0
53	952	7	10000	3	1	0	3	0
52	953	7	10000	3	1	0	3	0
50	954	7	10000	3	1	0	3	0
47	955	7	10000	3	1	0	3	0
47	956	7	10000	3	1	0	3	0
49	957	7	10000	3	1	0	3	0
51	958	7	10000	3	1	0	3	0
54	959	7	10000	3	1	0	3	0
55	960	7	10000	3	1	0	3	0
56	961	7	10000	3	1	0	3	0
56	962	7	10000	3	1	0	3	0
54	963	7	10000	3	1	0	3	0
52	964	7	10000	3	1	0	3	0
53	965	7	10000	3	1	0	3	0
52	966	7	10000	3	1	0	3	0
53	967	7	10000	3	1	0	3	0
53	968	7	10000	3	1	0	3	0
54	969	7	10000	3	1	0	3	0
55	970	7	10000	3	1	0	3	0
53	971	7	10000	3	1	0	3	0
51	972	7	10000	3	1	0	3	0
50	973	7	10000	3	1	0	3	0
48	974	7	10000	3	1	0	3	0
44	975	7	10000	3	1	0	3	0
43	976	7	10000	3	1	0	3	0
41	977	7	10000	3	1	0	3	0
40	978	7	10000	3	1	0	3	0
40	979	7	10000	3	1	0	3	0
39	980	7	10000	3	1	0	3	0
41	981	7	10000	3	1	0	3	0
43	982	7	10000	3	1	0	3	0
42	983	7	10000	3	1	0	3	0
40	984	7	10000	3	1	0	3	0
42	985	7	10000	3	1	0	3	0
45	986	7	10000	3	1	0	3	0
47	987	7	10000	3	1	0	3	0
46	988	7	10000	3	1	0	3	0
44	989	7	10000	3	1	0	3	0
45	990	7	10000	3	1	0	3	0
44	991	7	10000	3	1	0	3	0
45	992	7	10000	3	1	0	3	0
46	993	7	10000	3	1	0	3	0
47	994	7	10000	3	1	0	3	0
44	995	7	10000	3	1	0	3	0
43	996	7	10000	3	1	0	3	0
42	997	7	10000	3	1	0	3	0
41	998	7	10000	3	1	0	3	0
40	999	7	10000	3	1	0	3	0
40	1000	7	10000	3	1	0	3	0
25	2	0	10000	4	1	0	4	0
24	3	0	10000	4	1	0	4	0
25	4	0	10000	4	1	0	4	0
25	5	0	10000	4	1	0	4	0
25	6	0	10000	4	1	0	4	0
25	7	0	10000	4	1	0	4	0
25	8	0	10000	4	1	0	4	0
27	9	0	10000	4	1	0	4	0
27	10	0	10000	4	1	0	4	0
27	11	0	10000	4	1	0	4	0
27	12	0	10000	4	1	0	4	0
28	13	0	10000	4	1	0	4	0
28	14	0	10000	4	1	0	4	0
29	15	0	10000	4	1	0	4	0
29	16	0	10000	4	1	0	4	0
28	17	0	10000	4	1	0	4	0
28	18	0	10000	4	1	0	4	0
28	19	0	10000	4	1	0	4	0
27	20	0	10000	4	1	0	4	0
26	21	0	10000	4	1	0	4	0
25	21	0	10000	4	1	0	4	0
22	22	0	10000	4	1	0	4	0
23	24	0	10000	4	1	0	4	0
25	25	0	10000	4	1	0	4	0
25	26	0	10000	4	1	0	4	0
26	27	0	10000	4	1	0	4	0
24	28	0	10000	4	1	0	4	0
25	29	0	10000	4	1	0	4	0
25	30	0	10000	4	1	0	4	0
23	31	0	10000	4	1	0	4	0
22	31	0	10000	4	1	0	4	0
24	32	0	10000	4	1	0	4	0
24	34	0	10000	4	1	0	4	0
24	35	0	10000	4	1	0	4	0
23	36	0	10000	4	1	0	4	0
22	37	0	10000	4	1	0	4	0
22	38	0	10000	4	1	0	4	0
22	39	0	10000	4	1	0	4	0
22	40	0	10000	4	1	0	4	0
23	41	0	10000	4	1	0	4	0
23	41	0	10000	4	1	0	4	0
20	42	0	10000	4	1	0	4	0
20	44	0	10000	4	1	0	4	0
20	45	0	10000	4	1	0	4	0
21	46	0	10000	4	1	0	4	0
20	47	0	10000	4	1	0	4	0
20	48	0	10000	4	1	0	4	0
20	49	0	10000	4	1	0	4	0
19	50	0	10000	4	1	0	4	0
18	51	0	10000	4	1	0	4	0
18	51	0	10000	4	1	0	4	0
20	52	0	10000	4	1	0	4	0
21	54	0	10000	4	1	0	4	0
21	55	0	10000	4	1	0	4	0
21	56	0	10000	4	1	0	4	0
22	57	0	10000	4	1	0	4	0
23	58	0	10000	4	1	0	4	0
22	59	0	10000	4	1	0	4	0
22	60	0	10000	4	1	0	4	0
23	61	0	10000	4	1	0	4	0
25	61	0	10000	4	1	0	4	0
25	62	0	10000	4	1	0	4	0
27	64	0	10000	4	1	0	4	0
30	65	0	10000	4	1	0	4	0
32	66	0	10000	4	1	0	4	0
34	67	0	10000	4	1	0	4	0
37	68	0	10000	4	1	0	4	0
38	69	0	10000	4	1	0	4	0
38	70	0	10000	4	1	0	4	0
37	71	0	10000	4	1	0	4	0
38	71	0	10000	4	1	0	4	0
43	72	0	10000	4	1	0	4	0
45	74	0	10000	4	1	0	4	0
46	75	0	10000	4	1	0	4	0
46	76	0	10000	4	1	0	4	0
44	77	0	10000	4	1	0	4	0
41	78	0	10000	4	1	0	4	0
39	79	0	10000	4	1	0	4	0
39	80	0	10000	4	1	0	4	0
38	81	0	10000	4	1	0	4	0
38	81	0	10000	4	1	0	4	0
37	82	0	10000	4	1	0	4	0
39	84	0	10000	4	1	0	4	0
39	85	0	10000	4	1	0	4	0
40	86	0	10000	4	1	0	4	0
40	87	0	10000	4	1	0	4	0
39	88	0	10000	4	1	0	4	0
39	89	0	10000	4	1	0	4	0
39	90	0	10000	4	1	0	4	0
42	91	0	10000	4	1	0	4	0
43	91	0	10000	4	1	0	4	0
45	92	0	10000	4	1	0	4	0
44	94	0	10000	4	1	0	4	0
45	95	0	10000	4	1	0	4	0
49	96	0	10000	4	1	0	4	0
55	97	0	10000	4	1	0	4	0
61	98	0	10000	4	1	0	4	0
66	99	0	10000	4	1	0	4	0
72	100	0	10000	4	1	0	4	0
77	101	0	10000	4	1	0	4	0
82	101	0	10000	4	1	0	4	0
84	102	0	10000	4	1	0	4	0
85	104	0	10000	4	1	0	4	0
86	105	0	10000	4	1	0	4	0
84	106	0	10000	4	1	0	4	0
82	107	0	10000	4	1	0	4	0
83	108	0	10000	4	1	0	4	0
85	109	0	10000	4	1	0	4	0
82	110	0	10000	4	1	0	4	0
81	111	0	10000	4	1	0	4	0
84	111	0	10000	4	1	0	4	0
92	112	0	10000	4	1	0	4	0
98	114	0	10000	4	1	0	4	0
106	115	0	10000	4	1	0	4	0
113	116	0	10000	4	1	0	4	0
119	117	0	10000	4	1	0	4	0
122	118	0	10000	4	1	0	4	0
121	119	0	10000	4	1	0	4	0
118	120	0	10000	4	1	0	4	0
114	121	0	10000	4	1	0	4	0
111	121	0	10000	4	1	0	4	0
105	122	0	10000	4	1	0	4	0
100	124	0	10000	4	1	0	4	0
97	125	0	10000	4	1	0	4	0
95	126	0	10000	4	1	0	4	0
93	127	0	10000	4	1	0	4	0
93	128	0	10000	4	1	0	4	0
95	129	0	10000	4	1	0	4	0
93	130	0	10000	4	1	0	4	0
93	131	0	10000	4	1	0	4	0
95	131	0	10000	4	1	0	4	0
97	132	0	10000	4	1	0	4	0
96	134	0	10000	4	1	0	4	0
93	135	0	10000	4	1	0	4	0
89	136	0	10000	4	1	0	4	0
86	137	0	10000	4	1	0	4	0
85	138	0	10000	4	1	0	4	0
84	139	0	10000	4	1	0	4	0
83	140	0	10000	4	1	0	4	0
81	141	0	10000	4	1	0	4	0
78	141	0	10000	4	1	0	4	0
74	142	0	10000	4	1	0	4	0
73	144	0	10000	4	1	0	4	0
71	145	0	10000	4	1	0	4	0
70	146	0	10000	4	1	0	4	0
69	147	0	10000	4	1	0	4	0
69	148	0	10000	4	1	0	4	0
70	149	0	10000	4	1	0	4	0
71	150	0	10000	4	1	0	4	0
73	151	0	10000	4	1	0	4	0
75	151	0	10000	4	1	0	4	0
82	152	0	10000	4	1	0	4	0
88	154	0	10000	4	1	0	4	0
95	155	0	10000	4	1	0	4	0
100	156	0	10000	4	1	0	4	0
105	157	0	10000	4	1	0	4	0
110	158	0	10000	4	1	0	4	0
114	159	0	10000	4	1	0	4	0
119	160	0	10000	4	1	0	4	0
123	161	0	10000	4	1	0	4	0
124	161	0	10000	4	1	0	4	0
121	162	0	10000	4	1	0	4	0
121	164	0	10000	4	1	0	4	0
118	165	0	10000	4	1	0	4	0
115	166	0	10000	4	1	0	4	0
113	167	0	10000	4	1	0	4	0
112	168	0	10000	4	1	0	4	0
110	169	0	10000	4	1	0	4	0
107	170	0	10000	4	1	0	4	0
105	171	0	10000	4	1	0	4	0
103	171	0	10000	4	1	0	4	0
103	172	0	10000	4	1	0	4	0
101	174	0	10000	4	1	0	4	0
99	175	0	10000	4	1	0	4	0
97	176	0	10000	4	1	0	4	0
98	177	0	10000	4	1	0	4	0
100	178	0	10000	4	1	0	4	0
102	179	0	10000	4	1	0	4	0
103	180	0	10000	4	1	0	4	0
103	181	0	10000	4	1	0	4	0
103	181	0	10000	4	1	0	4	0
99	182	0	10000	4	1	0	4	0
96	184	0	10000	4	1	0	4	0
92	185	0	10000	4	1	0	4	0
89	186	0	10000	4	1	0	4	0
85	187	0	10000	4	1	0	4	0
81	188	0	10000	4	1	0	4	0
79	189	0	10000	4	1	0	4	0
80	190	0	10000	4	1	0	4	0
80	191	0	10000	4	1	0	4	0
79	191	0	10000	4	1	0	4	0
79	192	0	10000	4	1	0	4	0
76	194	0	10000	4	1	0	4	0
73	195	0	10000	4	1	0	4	0
71	196	0	10000	4	1	0	4	0
68	197	0	10000	4	1	0	4	0
65	198	0	10000	4	1	0	4	0
65	199	0	10000	4	1	0	4	0
68	200	0	10000	4	1	0	4	0
69	201	0	10000	4	1	0	4	0
69	201	0	10000	4	1	0	4	0
71	202	0	10000	4	1	0	4	0
76	204	0	10000	4	1	0	4	0
76	205	0	10000	4	1	0	4	0
74	206	0	10000	4	1	0	4	0
76	207	0	10000	4	1	0	4	0
78	208	0	10000	4	1	0	4	0
76	209	0	10000	4	1	0	4	0
78	210	0	10000	4	1	0	4	0
78	211	0	10000	4	1	0	4	0
76	211	0	10000	4	1	0	4	0
75	212	0	10000	4	1	0	4	0
74	214	0	10000	4	1	0	4	0
73	215	0	10000	4	1	0	4	0
71	216	0	10000	4	1	0	4	0
68	217	0	10000	4	1	0	4	0
67	218	0	10000	4	1	0	4	0
69	219	0	10000	4	1	0	4	0
68	220	0	10000	4	1	0	4	0
71	221	0	10000	4	1	0	4	0
81	221	0	10000	4	1	0	4	0
87	222	0	10000	4	1	0	4	0
88	224	0	10000	4	1	0	4	0
88	225	0	10000	4	1	0	4	0
91	226	0	10000	4	1	0	4	0
93	227	0	10000	4	1	0	4	0
94	228	0	10000	4	1	0	4	0
92	229	0	10000	4	1	0	4	0
87	230	0	10000	4	1	0	4	0
87	231	0	10000	4	1	0	4	0
93	231	0	10000	4	1	0	4	0
102	232	0	10000	4	1	0	4	0
102	234	0	10000	4	1	0	4	0
98	235	0	10000	4	1	0	4	0
99	236	0	10000	4	1	0	4	0
103	237	0	10000	4	1	0	4	0
111	238	0	10000	4	1	0	4	0
116	239	0	10000	4	1	0	4	0
115	240	0	10000	4	1	0	4	0
119	241	0	10000	4	1	0	4	0
122	241	0	10000	4	1	0	4	0
118	242	0	10000	4	1	0	4	0
119	244	0	10000	4	1	0	4	0
126	245	0	10000	4	1	0	4	0
128	246	0	10000	4	1	0	4	0
128	247	0	10000	4	1	0	4	0
139	248	0	10000	4	1	0	4	0
147	249	0	10000	4	1	0	4	0
142	250	0	10000	4	1	0	4	0
144	251	0	10000	4	1	0	4	0
149	251	0	10000	4	1	0	4	0
159	252	0	10000	4	1	0	4	0
168	254	0	10000	4	1	0	4	0
171	255	0	10000	4	1	0	4	0
173	256	0	10000	4	1	0	4	0
195	257	0	10000	4	1	0	4	0
203	258	0	10000	4	1	0	4	0
196	259	0	10000	4	1	0	4	0
190	260	0	10000	4	1	0	4	0
187	261	0	10000	4	1	0	4	0
186	261	0	10000	4	1	0	4	0
180	262	0	10000	4	1	0	4	0
180	264	0	10000	4	1	0	4	0
181	265	0	10000	4	1	0	4	0
177	266	0	10000	4	1	0	4	0
171	267	0	10000	4	1	0	4	0
166	268	0	10000	4	1	0	4	0
159	269	0	10000	4	1	0	4	0
153	270	0	10000	4	1	0	4	0
149	271	0	10000	4	1	0	4	0
144	271	0	10000	4	1	0	4	0
146	272	0	10000	4	1	0	4	0
145	274	0	10000	4	1	0	4	0
142	275	0	10000	4	1	0	4	0
138	276	0	10000	4	1	0	4	0
138	277	0	10000	4	1	0	4	0
139	278	0	10000	4	1	0	4	0
141	279	0	10000	4	1	0	4	0
146	280	0	10000	4	1	0	4	0
153	281	0	10000	4	1	0	4	0
161	281	0	10000	4	1	0	4	0
170	282	0	10000	4	1	0	4	0
179	284	0	10000	4	1	0	4	0
183	285	0	10000	4	1	0	4	0
181	286	0	10000	4	1	0	4	0
173	287	0	10000	4	1	0	4	0
166	288	0	10000	4	1	0	4	0
161	289	0	10000	4	1	0	4	0
153	290	0	10000	4	1	0	4	0
146	291	0	10000	4	1	0	4	0
141	291	0	10000	4	1	0	4	0
140	292	0	10000	4	1	0	4	0
145	294	0	10000	4	1	0	4	0
151	295	0	10000	4	1	0	4	0
154	296	0	10000	4	1	0	4	0
150	297	0	10000	4	1	0	4	0
147	298	0	10000	4	1	0	4	0
146	299	0	10000	4	1	0	4	0
151	300	0	10000	4	1	0	4	0
153	301	0	10000	4	1	0	4	0
152	301	0	10000	4	1	0	4	0
145	302	0	10000	4	1	0	4	0
145	304	0	10000	4	1	0	4	0
152	305	0	10000	4	1	0	4	0
158	306	0	10000	4	1	0	4	0
162	307	0	10000	4	1	0	4	0
159	308	0	10000	4	1	0	4	0
154	309	0	10000	4	1	0	4	0
154	310	0	10000	4	1	0	4	0
159	311	0	10000	4	1	0	4	0
160	311	0	10000	4	1	0	4	0
157	312	0	10000	4	1	0	4	0
152	314	0	10000	4	1	0	4	0
148	315	0	10000	4	1	0	4	0
147	316	0	10000	4	1	0	4	0
146	317	0	10000	4	1	0	4	0
141	318	0	10000	4	1	0	4	0
136	319	0	10000	4	1	0	4	0
139	320	0	10000	4	1	0	4	0
146	321	0	10000	4	1	0	4	0
151	321	0	10000	4	1	0	4	0
152	322	0	10000	4	1	0	4	0
152	324	0	10000	4	1	0	4	0
149	325	0	10000	4	1	0	4	0
145	326	0	10000	4	1	0	4	0
143	327	0	10000	4	1	0	4	0
146	328	0	10000	4	1	0	4	0
153	329	0	10000	4	1	0	4	0
160	330	0	10000	4	1	0	4	0
164	331	0	10000	4	1	0	4	0
166	331	0	10000	4	1	0	4	0
165	332	0	10000	4	1	0	4	0
158	334	0	10000	4	1	0	4	0
151	335	0	10000	4	1	0	4	0
144	336	0	10000	4	1	0	4	0
141	337	0	10000	4	1	0	4	0
144	338	0	10000	4	1	0	4	0
151	339	0	10000	4	1	0	4	0
156	340	0	10000	4	1	0	4	0
162	341	0	10000	4	1	0	4	0
167	341	0	10000	4	1	0	4	0
168	342	0	10000	4	1	0	4	0
166	344	0	10000	4	1	0	4	0
164	345	0	10000	4	1	0	4	0
157	346	0	10000	4	1	0	4	0
153	347	0	10000	4	1	0	4	0
149	348	0	10000	4	1	0	4	0
148	349	0	10000	4	1	0	4	0
148	350	0	10000	4	1	0	4	0
148	351	0	10000	4	1	0	4	0
148	351	0	10000	4	1	0	4	0
151	352	0	10000	4	1	0	4	0
149	354	0	10000	4	1	0	4	0
147	355	0	10000	4	1	0	4	0
142	356	0	10000	4	1	0	4	0
135	357	0	10000	4	1	0	4	0
129	358	0	10000	4	1	0	4	0
126	359	0	10000	4	1	0	4	0
125	360	0	10000	4	1	0	4	0
127	361	0	10000	4	1	0	4	0
128	361	0	10000	4	1	0	4	0
124	362	0	10000	4	1	0	4	0
120	364	0	10000	4	1	0	4	0
117	365	0	10000	4	1	0	4	0
113	366	0	10000	4	1	0	4	0
109	367	0	10000	4	1	0	4	0
107	368	0	10000	4	1	0	4	0
107	369	0	10000	4	1	0	4	0
107	370	0	10000	4	1	0	4	0
106	371	0	10000	4	1	0	4	0
102	371	0	10000	4	1	0	4	0
99	372	0	10000	4	1	0	4	0
97	374	0	10000	4	1	0	4	0
96	375	0	10000	4	1	0	4	0
96	376	0	10000	4	1	0	4	0
95	377	0	10000	4	1	0	4	0
95	378	0	10000	4	1	0	4	0
92	379	0	10000	4	1	0	4	0
89	380	0	10000	4	1	0	4	0
87	381	0	10000	4	1	0	4	0
85	381	0	10000	4	1	0	4	0
79	382	0	10000	4	1	0	4	0
76	384	0	10000	4	1	0	4	0
74	385	0	10000	4	1	0	4	0
71	386	0	10000	4	1	0	4	0
70	387	0	10000	4	1	0	4	0
68	388	0	10000	4	1	0	4	0
66	389	0	10000	4	1	0	4	0
66	390	0	10000	4	1	0	4	0
65	391	0	10000	4	1	0	4	0
64	391	0	10000	4	1	0	4	0
63	392	0	10000	4	1	0	4	0
62	394	0	10000	4	1	0	4	0
60	395	0	10000	4	1	0	4	0
59	396	0	10000	4	1	0	4	0
58	397	0	10000	4	1	0	4	0
56	398	0	10000	4	1	0	4	0
55	399	0	10000	4	1	0	4	0
53	400	0	10000	4	1	0	4	0
52	401	0	10000	4	1	0	4	0
59	401	0	10000	4	1	0	4	0
66	402	0	10000	4	1	0	4	0
66	404	0	10000	4	1	0	4	0
65	405	0	10000	4	1	0	4	0
68	406	0	10000	4	1	0	4	0
76	407	0	10000	4	1	0	4	0
87	408	0	10000	4	1	0	4	0
93	409	0	10000	4	1	0	4	0
91	410	0	10000	4	1	0	4	0
91	411	0	10000	4	1	0	4	0
88	411	0	10000	4	1	0	4	0
89	412	0	10000	4	1	0	4	0
99	414	0	10000	4	1	0	4	0
108	415	0	10000	4	1	0	4	0
111	416	0	10000	4	1	0	4	0
112	417	0	10000	4	1	0	4	0
126	418	0	10000	4	1	0	4	0
140	419	0	10000	4	1	0	4	0
148	420	0	10000	4	1	0	4	0
143	421	0	10000	4	1	0	4	0
137	421	0	10000	4	1	0	4	0
131	422	0	10000	4	1	0	4	0
134	424	0	10000	4	1	0	4	0
148	425	0	10000	4	1	0	4	0
159	426	0	10000	4	1	0	4	0
158	427	0	10000	4	1	0	4	0
152	428	0	10000	4	1	0	4	0
154	429	0	10000	4	1	0	4	0
160	430	0	10000	4	1	0	4	0
163	431	0	10000	4	1	0	4	0
160	431	0	10000	4	1	0	4	0
155	432	0	10000	4	1	0	4	0
157	434	0	10000	4	1	0	4	0
164	435	0	10000	4	1	0	4	0
169	436	0	10000	4	1	0	4	0
169	437	0	10000	4	1	0	4	0
164	438	0	10000	4	1	0	4	0
156	439	0	10000	4	1	0	4	0
154	440	0	10000	4	1	0	4	0
152	441	0	10000	4	1	0	4	0
148	441	0	10000	4	1	0	4	0
145	442	0	10000	4	1	0	4	0
148	444	0	10000	4	1	0	4	0
154	445	0	10000	4	1	0	4	0
163	446	0	10000	4	1	0	4	0
169	447	0	10000	4	1	0	4	0
166	448	0	10000	4	1	0	4	0
161	449	0	10000	4	1	0	4	0
157	450	0	10000	4	1	0	4	0
162	451	0	10000	4	1	0	4	0
166	451	0	10000	4	1	0	4	0
170	452	0	10000	4	1	0	4	0
173	454	0	10000	4	1	0	4	0
176	455	0	10000	4	1	0	4	0
177	456	0	10000	4	1	0	4	0
176	457	0	10000	4	1	0	4	0
174	458	0	10000	4	1	0	4	0
167	459	0	10000	4	1	0	4	0
161	460	0	10000	4	1	0	4	0
156	461	0	10000	4	1	0	4	0
155	461	0	10000	4	1	0	4	0
153	462	0	10000	4	1	0	4	0
155	464	0	10000	4	1	0	4	0
161	465	0	10000	4	1	0	4	0
166	466	0	10000	4	1	0	4	0
169	467	0	10000	4	1	0	4	0
168	468	0	10000	4	1	0	4	0
162	469	0	10000	4	1	0	4	0
159	470	0	10000	4	1	0	4	0
157	471	0	10000	4	1	0	4	0
154	471	0	10000	4	1	0	4	0
152	472	0	10000	4	1	0	4	0
147	474	0	10000	4	1	0	4	0
140	475	0	10000	4	1	0	4	0
135	476	0	10000	4	1	0	4	0
130	477	0	10000	4	1	0	4	0
126	478	0	10000	4	1	0	4	0
125	479	0	10000	4	1	0	4	0
124	480	0	10000	4	1	0	4	0
122	481	0	10000	4	1	0	4	0
121	481	0	10000	4	1	0	4	0
119	482	0	10000	4	1	0	4	0
116	484	0	10000	4	1	0	4	0
113	485	0	10000	4	1	0	4	0
113	486	0	10000	4	1	0	4	0
117	487	0	10000	4	1	0	4	0
122	488	0	10000	4	1	0	4	0
129	489	0	10000	4	1	0	4	0
137	490	0	10000	4	1	0	4	0
147	491	0	10000	4	1	0	4	0
154	491	0	10000	4	1	0	4	0
163	492	0	10000	4	1	0	4	0
167	494	0	10000	4	1	0	4	0
168	495	0	10000	4	1	0	4	0
169	496	0	10000	4	1	0	4	0
169	497	0	10000	4	1	0	4	0
173	498	0	10000	4	1	0	4	0
178	499	0	10000	4	1	0	4	0
186	500	0	10000	4	1	0	4	0
193	501	0	10000	4	1	0	4	0
196	501	0	10000	4	1	0	4	1
195	502	0	10000	4	1	0	4	1
196	504	0	10000	4	1	0	4	1
199	505	0	10000	4	1	0	4	1
202	506	0	10000	4	1	0	4	1
205	507	0	10000	4	1	0	4	1
208	508	0	10000	4	1	0	4	1
208	509	0	10000	4	1	0	4	1
206	510	0	10000	4	1	0	4	1
204	511	0	10000	4	1	0	4	1
202	511	0	10000	4	1	0	4	1
204	512	0	10000	4	1	0	4	1
205	514	0	10000	4	1	0	4	1
203	515	0	10000	4	1	0	4	1
203	516	0	10000	4	1	0	4	1
200	517	0	10000	4	1	0	4	1
197	518	0	10000	4	1	0	4	1
193	519	0	10000	4	1	0	4	1
189	520	0	10000	4	1	0	4	1
185	521	0	10000	4	1	0	4	1
183	521	0	10000	4	1	0	4	1
178	522	0	10000	4	1	0	4	1
173	524	0	10000	4	1	0	4	1
169	525	0	10000	4	1	0	4	1
164	526	0	10000	4	1	0	4	1
159	527	0	10000	4	1	0	4	1
155	528	0	10000	4	1	0	4	1
152	529	0	10000	4	1	0	4	1
149	530	0	10000	4	1	0	4	1
143	531	0	10000	4	1	0	4	1
136	531	0	10000	4	1	0	4	1
134	532	0	10000	4	1	0	4	1
134	534	0	10000	4	1	0	4	1
131	535	0	10000	4	1	0	4	1
127	536	0	10000	4	1	0	4	1
123	537	0	10000	4	1	0	4	1
119	538	0	10000	4	1	0	4	1
116	539	0	10000	4	1	0	4	1
114	540	0	10000	4	1	0	4	1
112	541	0	10000	4	1	0	4	1
109	541	0	10000	4	1	0	4	1
103	542	0	10000	4	1	0	4	1
98	544	0	10000	4	1	0	4	1
95	545	0	10000	4	1	0	4	1
91	546	0	10000	4	1	0	4	1
88	547	0	10000	4	1	0	4	1
85	548	0	10000	4	1	0	4	1
82	549	0	10000	4	1	0	4	1
80	550	0	10000	4	1	0	4	1
80	551	0	10000	4	1	0	4	1
77	551	0	10000	4	1	0	4	0
78	552	0	10000	4	1	0	4	0
80	554	0	10000	4	1	0	4	0
80	555	0	10000	4	1	0	4	0
80	556	0	10000	4	1	0	4	0
77	557	0	10000	4	1	0	4	0
74	558	0	10000	4	1	0	4	0
71	559	0	10000	4	1	0	4	0
69	560	0	10000	4	1	0	4	0
66	561	0	10000	4	1	0	4	0
64	561	0	10000	4	1	0	4	0
61	562	0	10000	4	1	0	4	0
58	564	0	10000	4	1	0	4	0
56	565	0	10000	4	1	0	4	0
55	566	0	10000	4	1	0	4	0
53	567	0	10000	4	1	0	4	0
51	568	0	10000	4	1	0	4	0
49	569	0	10000	4	1	0	4	0
46	570	0	10000	4	1	0	4	0
45	571	0	10000	4	1	0	4	0
44	571	0	10000	4	1	0	4	0
45	572	0	10000	4	1	0	4	0
44	574	0	10000	4	1	0	4	0
43	575	0	10000	4	1	0	4	0
43	576	0	10000	4	1	0	4	0
41	577	0	10000	4	1	0	4	0
41	578	0	10000	4	1	0	4	0
42	579	0	10000	4	1	0	4	0
43	580	0	10000	4	1	0	4	0
43	581	0	10000	4	1	0	4	0
44	581	0	10000	4	1	0	4	0
45	582	0	10000	4	1	0	4	0
43	584	0	10000	4	1	0	4	0
42	585	0	10000	4	1	0	4	0
43	586	0	10000	4	1	0	4	0
43	587	0	10000	4	1	0	4	0
44	588	0	10000	4	1	0	4	0
47	589	0	10000	4	1	0	4	0
52	590	0	10000	4	1	0	4	0
59	591	0	10000	4	1	0	4	0
60	591	0	10000	4	1	0	4	0
58	592	0	10000	4	1	0	4	0
57	594	0	10000	4	1	0	4	0
54	595	0	10000	4	1	0	4	0
51	596	0	10000	4	1	0	4	0
50	597	0	10000	4	1	0	4	0
50	598	0	10000	4	1	0	4	0
50	599	0	10000	4	1	0	4	0
51	600	0	10000	4	1	0	4	0
51	601	0	10000	4	1	0	4	0
58	601	0	10000	4	1	0	4	0
62	602	0	10000	4	1	0	4	0
76	604	0	10000	4	1	0	4	0
120	605	0	10000	4	1	0	4	0
159	606	0	10000	4	1	0	4	0
182	607	0	10000	4	1	0	4	0
188	608	0	10000	4	1	0	4	0
183	609	0	10000	4	1	0	4	0
190	610	0	10000	4	1	0	4	0
209	611	0	10000	4	1	0	4	0
229	611	0	10000	4	1	0	4	0
250	612	0	10000	4	1	0	4	0
260	614	0	10000	4	1	0	4	0
254	615	0	10000	4	1	0	4	0
243	616	0	10000	4	1	0	4	0
239	617	0	10000	4	1	0	4	0
237	618	0	10000	4	1	0	4	0
237	619	0	10000	4	1	0	4	0
235	620	0	10000	4	1	0	4	0
232	621	0	10000	4	1	0	4	0
229	621	0	10000	4	1	0	4	0
229	622	0	10000	4	1	0	4	0
228	624	0	10000	4	1	0	4	0
227	625	0	10000	4	1	0	4	0
225	626	0	10000	4	1	0	4	0
225	627	0	10000	4	1	0	4	0
224	628	0	10000	4	1	0	4	0
222	629	0	10000	4	1	0	4	0
220	630	0	10000	4	1	0	4	0
218	631	0	10000	4	1	0	4	0
220	631	0	10000	4	1	0	4	0
225	632	0	10000	4	1	0	4	0
227	634	0	10000	4	1	0	4	0
225	635	0	10000	4	1	0	4	0
223	636	0	10000	4	1	0	4	0
219	637	0	10000	4	1	0	4	0
212	638	0	10000	4	1	0	4	0
203	639	0	10000	4	1	0	4	0
194	640	0	10000	4	1	0	4	0
185	641	0	10000	4	1	0	4	0
177	641	0	10000	4	1	0	4	0
168	642	0	10000	4	1	0	4	0
161	644	0	10000	4	1	0	4	0
157	645	0	10000	4	1	0	4	0
155	646	0	10000	4	1	0	4	0
155	647	0	10000	4	1	0	4	0
154	648	0	10000	4	1	0	4	0
153	649	0	10000	4	1	0	4	0
153	650	0	10000	4	1	0	4	0
152	651	0	10000	4	1	0	4	0
151	651	0	10000	4	1	0	4	0
149	652	0	10000	4	1	0	4	0
147	654	0	10000	4	1	0	4	0
146	655	0	10000	4	1	0	4	0
147	656	0	10000	4	1	0	4	0
148	657	0	10000	4	1	0	4	0
147	658	0	10000	4	1	0	4	0
144	659	0	10000	4	1	0	4	0
142	660	0	10000	4	1	0	4	0
143	661	0	10000	4	1	0	4	0
143	661	0	10000	4	1	0	4	0
142	662	0	10000	4	1	0	4	0
143	664	0	10000	4	1	0	4	0
147	665	0	10000	4	1	0	4	0
149	666	0	10000	4	1	0	4	0
150	667	0	10000	4	1	0	4	0
151	668	0	10000	4	1	0	4	0
151	669	0	10000	4	1	0	4	0
152	670	0	10000	4	1	0	4	0
150	671	0	10000	4	1	0	4	0
146	671	0	10000	4	1	0	4	0
144	672	0	10000	4	1	0	4	0
141	674	0	10000	4	1	0	4	0
138	675	0	10000	4	1	0	4	0
135	676	0	10000	4	1	0	4	0
130	677	0	10000	4	1	0	4	0
127	678	0	10000	4	1	0	4	0
124	679	0	10000	4	1	0	4	0
121	680	0	10000	4	1	0	4	0
119	681	0	10000	4	1	0	4	0
118	681	0	10000	4	1	0	4	0
114	682	0	10000	4	1	0	4	0
111	684	0	10000	4	1	0	4	0
110	685	0	10000	4	1	0	4	0
106	686	0	10000	4	1	0	4	0
104	687	0	10000	4	1	0	4	0
102	688	0	10000	4	1	0	4	0
100	689	0	10000	4	1	0	4	0
98	690	0	10000	4	1	0	4	0
95	691	0	10000	4	1	0	4	0
92	691	0	10000	4	1	0	4	0
88	692	0	10000	4	1	0	4	0
87	694	0	10000	4	1	0	4	0
84	695	0	10000	4	1	0	4	0
80	696	0	10000	4	1	0	4	0
80	697	0	10000	4	1	0	4	0
79	698	0	10000	4	1	0	4	0
78	699	0	10000	4	1	0	4	0
76	700	0	10000	4	1	0	4	0
73	701	0	10000	4	1	0	4	0
70	701	0	10000	4	1	0	4	0
66	702	0	10000	4	1	0	4	0
63	704	0	10000	4	1	0	4	0
61	705	0	10000	4	1	0	4	0
60	706	0	10000	4	1	0	4	0
58	707	0	10000	4	1	0	4	0
56	708	0	10000	4	1	0	4	0
54	709	0	10000	4	1	0	4	0
53	710	0	10000	4	1	0	4	0
52	711	0	10000	4	1	0	4	0
51	711	0	10000	4	1	0	4	0
51	712	0	10000	4	1	0	4	0
50	714	0	10000	4	1	0	4	0
47	715	0	10000	4	1	0	4	0
44	716	0	10000	4	1	0	4	0
43	717	0	10000	4	1	0	4	0
42	718	0	10000	4	1	0	4	0
42	719	0	10000	4	1	0	4	0
42	720	0	10000	4	1	0	4	0
43	721	0	10000	4	1	0	4	0
45	721	0	10000	4	1	0	4	0
47	722	0	10000	4	1	0	4	0
47	724	0	10000	4	1	0	4	0
47	725	0	10000	4	1	0	4	0
52	726	0	10000	4	1	0	4	0
60	727	0	10000	4	1	0	4	0
70	728	0	10000	4	1	0	4	0
81	729	0	10000	4	1	0	4	0
90	730	0	10000	4	1	0	4	0
98	731	0	10000	4	1	0	4	0
104	731	0	10000	4	1	0	4	0
109	732	0	10000	4	1	0	4	0
116	734	0	10000	4	1	0	4	0
122	735	0	10000	4	1	0	4	0
129	736	0	10000	4	1	0	4	0
137	737	0	10000	4	1	0	4	0
148	738	0	10000	4	1	0	4	0
162	739	0	10000	4	1	0	4	0
178	740	0	10000	4	1	0	4	0
190	741	0	10000	4	1	0	4	0
201	741	0	10000	4	1	0	4	0
207	742	0	10000	4	1	0	4	0
210	744	0	10000	4	1	0	4	0
212	745	0	10000	4	1	0	4	0
213	746	0	10000	4	1	0	4	0
211	747	0	10000	4	1	0	4	0
208	748	0	10000	4	1	0	4	0
207	749	0	10000	4	1	0	4	0
205	750	0	10000	4	1	0	4	0
205	751	0	10000	4	1	0	4	0
204	751	0	10000	4	1	0	4	0
204	752	0	10000	4	1	0	4	0
200	754	0	10000	4	1	0	4	0
193	755	0	10000	4	1	0	4	0
184	756	0	10000	4	1	0	4	0
177	757	0	10000	4	1	0	4	0
173	758	0	10000	4	1	0	4	0
170	759	0	10000	4	1	0	4	0
170	760	0	10000	4	1	0	4	0
171	761	0	10000	4	1	0	4	0
173	761	0	10000	4	1	0	4	0
175	762	0	10000	4	1	0	4	0
176	764	0	10000	4	1	0	4	0
180	765	0	10000	4	1	0	4	0
185	766	0	10000	4	1	0	4	0
190	767	0	10000	4	1	0	4	0
194	768	0	10000	4	1	0	4	0
199	769	0	10000	4	1	0	4	0
202	770	0	10000	4	1	0	4	0
207	771	0	10000	4	1	0	4	0
213	771	0	10000	4	1	0	4	0
219	772	0	10000	4	1	0	4	0
225	774	0	10000	4	1	0	4	0
232	775	0	10000	4	1	0	4	0
239	776	0	10000	4	1	0	4	0
245	777	0	10000	4	1	0	4	0
252	778	0	10000	4	1	0	4	0
257	779	0	10000	4	1	0	4	0
261	780	0	10000	4	1	0	4	0
263	781	0	10000	4	1	0	4	0
265	781	0	10000	4	1	0	4	0
266	782	0	10000	4	1	0	4	0
267	784	0	10000	4	1	0	4	0
271	785	0	10000	4	1	0	4	0
275	786	0	10000	4	1	0	4	0
278	787	0	10000	4	1	0	4	0
281	788	0	10000	4	1	0	4	0
285	789	0	10000	4	1	0	4	0
288	790	0	10000	4	1	0	4	0
289	791	0	10000	4	1	0	4	0
290	791	0	10000	4	1	0	4	0
291	792	0	10000	4	1	0	4	0
292	794	0	10000	4	1	0	4	0
291	795	0	10000	4	1	0	4	0
291	796	0	10000	4	1	0	4	0
290	797	0	10000	4	1	0	4	0
289	798	0	10000	4	1	0	4	0
288	799	0	10000	4	1	0	4	0
285	800	0	10000	4	1	0	4	0
280	801	0	10000	4	1	0	4	0
274	801	0	10000	4	1	0	4	0
266	802	0	10000	4	1	0	4	0
259	804	0	10000	4	1	0	4	0
252	805	0	10000	4	1	0	4	0
244	806	0	10000	4	1	0	4	0
239	807	0	10000	4	1	0	4	0
233	808	0	10000	4	1	0	4	0
226	809	0	10000	4	1	0	4	0
221	810	0	10000	4	1	0	4	0
215	811	0	10000	4	1	0	4	0
210	811	0	10000	4	1	0	4	0
204	812	0	10000	4	1	0	4	0
197	814	0	10000	4	1	0	4	0
188	815	0	10000	4	1	0	4	0
179	816	0	10000	4	1	0	4	0
171	817	0	10000	4	1	0	4	0
165	818	0	10000	4	1	0	4	0
160	819	0	10000	4	1	0	4	0
158	820	0	10000	4	1	0	4	0
157	821	0	10000	4	1	0	4	0
157	821	0	10000	4	1	0	4	0
155	822	0	10000	4	1	0	4	0
153	824	0	10000	4	1	0	4	0
151	825	0	10000	4	1	0	4	0
146	826	0	10000	4	1	0	4	0
140	827	0	10000	4	1	0	4	0
136	828	0	10000	4	1	0	4	0
130	829	0	10000	4	1	0	4	0
125	830	0	10000	4	1	0	4	0
119	831	0	10000	4	1	0	4	0
113	831	0	10000	4	1	0	4	0
109	832	0	10000	4	1	0	4	0
106	834	0	10000	4	1	0	4	0
103	835	0	10000	4	1	0	4	0
102	836	0	10000	4	1	0	4	0
100	837	0	10000	4	1	0	4	0
97	838	0	10000	4	1	0	4	0
94	839	0	10000	4	1	0	4	0
89	840	0	10000	4	1	0	4	0
86	841	0	10000	4	1	0	4	0
85	841	0	10000	4	1	0	4	0
81	842	0	10000	4	1	0	4	0
77	844	0	10000	4	1	0	4	0
75	845	0	10000	4	1	0	4	0
72	846	0	10000	4	1	0	4	0
69	847	0	10000	4	1	0	4	0
68	848	0	10000	4	1	0	4	0
66	849	0	10000	4	1	0	4	0
64	850	0	10000	4	1	0	4	0
62	851	0	10000	4	1	0	4	0
60	851	0	10000	4	1	0	4	0
60	852	0	10000	4	1	0	4	0
61	854	0	10000	4	1	0	4	0
60	855	0	10000	4	1	0	4	0
59	856	0	10000	4	1	0	4	0
56	857	0	10000	4	1	0	4	0
54	858	0	10000	4	1	0	4	0
51	859	0	10000	4	1	0	4	0
52	860	0	10000	4	1	0	4	0
55	861	0	10000	4	1	0	4	0
59	861	0	10000	4	1	0	4	0
60	862	0	10000	4	1	0	4	0
60	864	0	10000	4	1	0	4	0
62	865	0	10000	4	1	0	4	0
64	866	0	10000	4	1	0	4	0
63	867	0	10000	4	1	0	4	0
64	868	0	10000	4	1	0	4	0
62	869	0	10000	4	1	0	4	0
59	870	0	10000	4	1	0	4	0
57	871	0	10000	4	1	0	4	0
53	871	0	10000	4	1	0	4	0
53	872	0	10000	4	1	0	4	0
53	874	0	10000	4	1	0	4	0
51	875	0	10000	4	1	0	4	0
49	876	0	10000	4	1	0	4	0
47	877	0	10000	4	1	0	4	0
45	878	0	10000	4	1	0	4	0
45	879	0	10000	4	1	0	4	0
45	880	0	10000	4	1	0	4	0
44	881	0	10000	4	1	0	4	0
44	881	0	10000	4	1	0	4	0
42	882	0	10000	4	1	0	4	0
40	884	0	10000	4	1	0	4	0
42	885	0	10000	4	1	0	4	0
43	886	0	10000	4	1	0	4	0
42	887	0	10000	4	1	0	4	0
40	888	0	10000	4	1	0	4	0
39	889	0	10000	4	1	0	4	0
37	890	0	10000	4	1	0	4	0
36	891	0	10000	4	1	0	4	0
37	891	0	10000	4	1	0	4	0
39	892	0	10000	4	1	0	4	0
41	894	0	10000	4	1	0	4	0
42	895	0	10000	4	1	0	4	0
43	896	0	10000	4	1	0	4	0
42	897	0	10000	4	1	0	4	0
40	898	0	10000	4	1	0	4	0
40	899	0	10000	4	1	0	4	0
41	900	0	10000	4	1	0	4	0
42	901	0	10000	4	1	0	4	0
42	901	0	10000	4	1	0	4	0
40	902	0	10000	4	1	0	4	0
40	904	0	10000	4	1	0	4	0
42	905	0	10000	4	1	0	4	0
44	906	0	10000	4	1	0	4	0
44	907	0	10000	4	1	0	4	0
44	908	0	10000	4	1	0	4	0
44	909	0	10000	4	1	0	4	0
43	910	0	10000	4	1	0	4	0
41	911	0	10000	4	1	0	4	0
39	911	0	10000	4	1	0	4	0
40	912	0	10000	4	1	0	4	0
42	914	0	10000	4	1	0	4	0
41	915	0	10000	4	1	0	4	0
40	916	0	10000	4	1	0	4	0
39	917	0	10000	4	1	0	4	0
41	918	0	10000	4	1	0	4	0
42	919	0	10000	4	1	0	4	0
42	920	0	10000	4	1	0	4	0
40	921	0	10000	4	1	0	4	0
39	921	0	10000	4	1	0	4	0
38	922	0	10000	4	1	0	4	0
36	924	0	10000	4	1	0	4	0
35	925	0	10000	4	1	0	4	0
34	926	0	10000	4	1	0	4	0
33	927	0	10000	4	1	0	4	0
33	928	0	10000	4	1	0	4	0
32	929	0	10000	4	1	0	4	0
32	930	0	10000	4	1	0	4	0
32	931	0	10000	4	1	0	4	0
34	931	0	10000	4	1	0	4	0
36	932	0	10000	4	1	0	4	0
37	934	0	10000	4	1	0	4	0
37	935	0	10000	4	1	0	4	0
36	936	0	10000	4	1	0	4	0
37	937	0	10000	4	1	0	4	0
38	938	0	10000	4	1	0	4	0
37	939	0	10000	4	1	0	4	0
36	940	0	10000	4	1	0	4	0
37	941	0	10000	4	1	0	4	0
38	941	0	10000	4	1	0	4	0
37	942	0	10000	4	1	0	4	0
37	944	0	10000	4	1	0	4	0
37	945	0	10000	4	1	0	4	0
37	946	0	10000	4	1	0	4	0
36	947	0	10000	4	1	0	4	0
35	948	0	10000	4	1	0	4	0
34	949	0	10000	4	1	0	4	0
35	950	0	10000	4	1	0	4	0
33	951	0	10000	4	1	0	4	0
32	951	0	10000	4	1	0	4	0
32	952	0	10000	4	1	0	4	0
33	954	0	10000	4	1	0	4	0
33	955	0	10000	4	1	0	4	0
33	956	0	10000	4	1	0	4	0
33	957	0	10000	4	1	0	4	0
33	958	0	10000	4	1	0	4	0
32	959	0	10000	4	1	0	4	0
32	960	0	10000	4	1	0	4	0
32	961	0	10000	4	1	0	4	0
32	961	0	10000	4	1	0	4	0
31	962	0	10000	4	1	0	4	0
29	964	0	10000	4	1	0	4	0
31	965	0	10000	4	1	0	4	0
34	966	0	10000	4	1	0	4	0
36	967	0	10000	4	1	0	4	0
37	968	0	10000	4	1	0	4	0
39	969	0	10000	4	1	0	4	0
38	970	0	10000	4	1	0	4	0
36	971	0	10000	4	1	0	4	0
35	971	0	10000	4	1	0	4	0
35	972	0	10000	4	1	0	4	0
35	974	0	10000	4	1	0	4	0
33	975	0	10000	4	1	0	4	0
34	976	0	10000	4	1	0	4	0
34	977	0	10000	4	1	0	4	0
34	978	0	10000	4	1	0	4	0
33	979	0	10000	4	1	0	4	0
32	980	0	10000	4	1	0	4	0
31	981	0	10000	4	1	0	4	0
31	981	0	10000	4	1	0	4	0
30	982	0	10000	4	1	0	4	0
29	984	0	10000	4	1	0	4	0
32	985	0	10000	4	1	0	4	0
34	986	0	10000	4	1	0	4	0
35	987	0	10000	4	1	0	4	0
35	988	0	10000	4	1	0	4	0
34	989	0	10000	4	1	0	4	0
34	990	0	10000	4	1	0	4	0
34	991	0	10000	4	1	0	4	0
32	991	0	10000	4	1	0	4	0
32	992	0	10000	4	1	0	4	0
32	994	0	10000	4	1	0	4	0
32	995	0	10000	4	1	0	4	0
31	996	0	10000	4	1	0	4	0
30	997	0	10000	4	1	0	4	0
29	998	0	10000	4	1	0	4	0
30	999	0	10000	4	1	0	4	0
32	1000	0	10000	4	1	0	4	0
32	1001	0	10000	4	1	0	4	0
34	2	0	10000	5	1	0	5	0
35	3	0	10000	5	1	0	5	0
35	4	0	10000	5	1	0	5	0
35	5	0	10000	5	1	0	5	0
33	6	0	10000	5	1	0	5	0
32	7	0	10000	5	1	0	5	0
33	8	0	10000	5	1	0	5	0
35	9	0	10000	5	1	0	5	0
36	10	0	10000	5	1	0	5	0
35	11	0	10000	5	1	0	5	0
34	12	0	10000	5	1	0	5	0
34	13	0	10000	5	1	0	5	0
36	14	0	10000	5	1	0	5	0
40	15	0	10000	5	1	0	5	0
43	16	0	10000	5	1	0	5	0
42	17	0	10000	5	1	0	5	0
40	18	0	10000	5	1	0	5	0
41	19	0	10000	5	1	0	5	0
42	20	0	10000	5	1	0	5	0
42	21	0	10000	5	1	0	5	0
42	22	0	10000	5	1	0	5	0
42	23	0	10000	5	1	0	5	0
40	24	0	10000	5	1	0	5	0
38	25	0	10000	5	1	0	5	0
38	26	0	10000	5	1	0	5	0
36	27	0	10000	5	1	0	5	0
37	28	0	10000	5	1	0	5	0
37	29	0	10000	5	1	0	5	0
36	30	0	10000	5	1	0	5	0
35	31	0	10000	5	1	0	5	0
33	32	0	10000	5	1	0	5	0
32	33	0	10000	5	1	0	5	0
31	34	0	10000	5	1	0	5	0
31	35	0	10000	5	1	0	5	0
31	36	0	10000	5	1	0	5	0
32	37	0	10000	5	1	0	5	0
30	38	0	10000	5	1	0	5	0
28	39	0	10000	5	1	0	5	0
27	40	0	10000	5	1	0	5	0
27	41	0	10000	5	1	0	5	0
26	42	0	10000	5	1	0	5	0
26	43	0	10000	5	1	0	5	0
26	44	0	10000	5	1	0	5	0
25	45	0	10000	5	1	0	5	0
25	46	0	10000	5	1	0	5	0
24	47	0	10000	5	1	0	5	0
24	48	0	10000	5	1	0	5	0
25	49	0	10000	5	1	0	5	0
26	50	0	10000	5	1	0	5	0
26	51	0	10000	5	1	0	5	0
25	52	0	10000	5	1	0	5	0
24	53	0	10000	5	1	0	5	0
23	54	0	10000	5	1	0	5	0
23	55	0	10000	5	1	0	5	0
22	56	0	10000	5	1	0	5	0
22	57	0	10000	5	1	0	5	0
20	58	0	10000	5	1	0	5	0
19	59	0	10000	5	1	0	5	0
18	60	0	10000	5	1	0	5	0
19	61	0	10000	5	1	0	5	0
17	62	0	10000	5	1	0	5	0
17	63	0	10000	5	1	0	5	0
17	64	0	10000	5	1	0	5	0
16	65	0	10000	5	1	0	5	0
16	66	0	10000	5	1	0	5	0
16	67	0	10000	5	1	0	5	0
18	68	0	10000	5	1	0	5	0
21	69	0	10000	5	1	0	5	0
22	70	0	10000	5	1	0	5	0
22	71	0	10000	5	1	0	5	0
22	72	0	10000	5	1	0	5	0
22	73	0	10000	5	1	0	5	0
23	74	0	10000	5	1	0	5	0
24	75	0	10000	5	1	0	5	0
24	76	0	10000	5	1	0	5	0
24	77	0	10000	5	1	0	5	0
22	78	0	10000	5	1	0	5	0
20	79	0	10000	5	1	0	5	0
20	80	0	10000	5	1	0	5	0
21	81	0	10000	5	1	0	5	0
21	82	0	10000	5	1	0	5	0
23	83	0	10000	5	1	0	5	0
24	84	0	10000	5	1	0	5	0
25	85	0	10000	5	1	0	5	0
26	86	0	10000	5	1	0	5	0
28	87	0	10000	5	1	0	5	0
29	88	0	10000	5	1	0	5	0
29	89	0	10000	5	1	0	5	0
29	90	0	10000	5	1	0	5	0
29	91	0	10000	5	1	0	5	0
30	92	0	10000	5	1	0	5	0
31	93	0	10000	5	1	0	5	0
29	94	0	10000	5	1	0	5	0
27	95	0	10000	5	1	0	5	0
27	96	0	10000	5	1	0	5	0
27	97	0	10000	5	1	0	5	0
27	98	0	10000	5	1	0	5	0
26	99	0	10000	5	1	0	5	0
28	100	0	10000	5	1	0	5	0
31	101	0	10000	5	1	0	5	0
33	102	0	10000	5	1	0	5	0
36	103	0	10000	5	1	0	5	0
37	104	0	10000	5	1	0	5	0
36	105	0	10000	5	1	0	5	0
34	106	0	10000	5	1	0	5	0
33	107	0	10000	5	1	0	5	0
32	108	0	10000	5	1	0	5	0
32	109	0	10000	5	1	0	5	0
31	110	0	10000	5	1	0	5	0
30	111	0	10000	5	1	0	5	0
30	112	0	10000	5	1	0	5	0
33	113	0	10000	5	1	0	5	0
34	114	0	10000	5	1	0	5	0
34	115	0	10000	5	1	0	5	0
33	116	0	10000	5	1	0	5	0
33	117	0	10000	5	1	0	5	0
33	118	0	10000	5	1	0	5	0
34	119	0	10000	5	1	0	5	0
36	120	0	10000	5	1	0	5	0
37	121	0	10000	5	1	0	5	0
39	122	0	10000	5	1	0	5	0
36	123	0	10000	5	1	0	5	0
35	124	0	10000	5	1	0	5	0
36	125	0	10000	5	1	0	5	0
35	126	0	10000	5	1	0	5	0
34	127	0	10000	5	1	0	5	0
35	128	0	10000	5	1	0	5	0
36	129	0	10000	5	1	0	5	0
37	130	0	10000	5	1	0	5	0
39	131	0	10000	5	1	0	5	0
39	132	0	10000	5	1	0	5	0
39	133	0	10000	5	1	0	5	0
38	134	0	10000	5	1	0	5	0
37	135	0	10000	5	1	0	5	0
37	136	0	10000	5	1	0	5	0
37	137	0	10000	5	1	0	5	0
37	138	0	10000	5	1	0	5	0
36	139	0	10000	5	1	0	5	0
37	140	0	10000	5	1	0	5	0
38	141	0	10000	5	1	0	5	0
37	142	0	10000	5	1	0	5	0
37	143	0	10000	5	1	0	5	0
36	144	0	10000	5	1	0	5	0
34	145	0	10000	5	1	0	5	0
35	146	0	10000	5	1	0	5	0
36	147	0	10000	5	1	0	5	0
38	148	0	10000	5	1	0	5	0
38	149	0	10000	5	1	0	5	0
37	150	0	10000	5	1	0	5	0
37	151	0	10000	5	1	0	5	0
36	152	0	10000	5	1	0	5	0
35	153	0	10000	5	1	0	5	0
34	154	0	10000	5	1	0	5	0
32	155	0	10000	5	1	0	5	0
33	156	0	10000	5	1	0	5	0
33	157	0	10000	5	1	0	5	0
31	158	0	10000	5	1	0	5	0
28	159	0	10000	5	1	0	5	0
28	160	0	10000	5	1	0	5	0
28	161	0	10000	5	1	0	5	0
27	162	0	10000	5	1	0	5	0
27	163	0	10000	5	1	0	5	0
27	164	0	10000	5	1	0	5	0
27	165	0	10000	5	1	0	5	0
28	166	0	10000	5	1	0	5	0
27	167	0	10000	5	1	0	5	0
29	168	0	10000	5	1	0	5	0
29	169	0	10000	5	1	0	5	0
28	170	0	10000	5	1	0	5	0
27	171	0	10000	5	1	0	5	0
26	172	0	10000	5	1	0	5	0
26	173	0	10000	5	1	0	5	0
25	174	0	10000	5	1	0	5	0
26	175	0	10000	5	1	0	5	0
27	176	0	10000	5	1	0	5	0
29	177	0	10000	5	1	0	5	0
29	178	0	10000	5	1	0	5	0
27	179	0	10000	5	1	0	5	0
28	180	0	10000	5	1	0	5	0
29	181	0	10000	5	1	0	5	0
30	182	0	10000	5	1	0	5	0
30	183	0	10000	5	1	0	5	0
30	184	0	10000	5	1	0	5	0
28	185	0	10000	5	1	0	5	0
27	186	0	10000	5	1	0	5	0
27	187	0	10000	5	1	0	5	0
26	188	0	10000	5	1	0	5	0
27	189	0	10000	5	1	0	5	0
26	190	0	10000	5	1	0	5	0
25	191	0	10000	5	1	0	5	0
25	192	0	10000	5	1	0	5	0
24	193	0	10000	5	1	0	5	0
23	194	0	10000	5	1	0	5	0
24	195	0	10000	5	1	0	5	0
23	196	0	10000	5	1	0	5	0
23	197	0	10000	5	1	0	5	0
23	198	0	10000	5	1	0	5	0
21	199	0	10000	5	1	0	5	0
22	200	0	10000	5	1	0	5	0
22	201	0	10000	5	1	0	5	0
24	202	0	10000	5	1	0	5	0
24	203	0	10000	5	1	0	5	0
23	204	0	10000	5	1	0	5	0
22	205	0	10000	5	1	0	5	0
21	206	0	10000	5	1	0	5	0
20	207	0	10000	5	1	0	5	0
21	208	0	10000	5	1	0	5	0
22	209	0	10000	5	1	0	5	0
22	210	0	10000	5	1	0	5	0
22	211	0	10000	5	1	0	5	0
22	212	0	10000	5	1	0	5	0
21	213	0	10000	5	1	0	5	0
20	214	0	10000	5	1	0	5	0
21	215	0	10000	5	1	0	5	0
22	216	0	10000	5	1	0	5	0
22	217	0	10000	5	1	0	5	0
21	218	0	10000	5	1	0	5	0
20	219	0	10000	5	1	0	5	0
20	220	0	10000	5	1	0	5	0
20	221	0	10000	5	1	0	5	0
19	222	0	10000	5	1	0	5	0
20	223	0	10000	5	1	0	5	0
19	224	0	10000	5	1	0	5	0
19	225	0	10000	5	1	0	5	0
19	226	0	10000	5	1	0	5	0
19	227	0	10000	5	1	0	5	0
20	228	0	10000	5	1	0	5	0
21	229	0	10000	5	1	0	5	0
22	230	0	10000	5	1	0	5	0
21	231	0	10000	5	1	0	5	0
21	232	0	10000	5	1	0	5	0
24	233	0	10000	5	1	0	5	0
27	234	0	10000	5	1	0	5	0
29	235	0	10000	5	1	0	5	0
31	236	0	10000	5	1	0	5	0
32	237	0	10000	5	1	0	5	0
30	238	0	10000	5	1	0	5	0
28	239	0	10000	5	1	0	5	0
28	240	0	10000	5	1	0	5	0
28	241	0	10000	5	1	0	5	0
28	242	0	10000	5	1	0	5	0
27	243	0	10000	5	1	0	5	0
26	244	0	10000	5	1	0	5	0
25	245	0	10000	5	1	0	5	0
24	246	0	10000	5	1	0	5	0
24	247	0	10000	5	1	0	5	0
27	248	0	10000	5	1	0	5	0
28	249	0	10000	5	1	0	5	0
28	250	0	10000	5	1	0	5	0
27	251	0	10000	5	1	0	5	0
26	252	0	10000	5	1	0	5	0
26	253	0	10000	5	1	0	5	0
26	254	0	10000	5	1	0	5	0
27	255	0	10000	5	1	0	5	0
29	256	0	10000	5	1	0	5	0
30	257	0	10000	5	1	0	5	0
29	258	0	10000	5	1	0	5	0
27	259	0	10000	5	1	0	5	0
27	260	0	10000	5	1	0	5	0
29	261	0	10000	5	1	0	5	0
33	262	0	10000	5	1	0	5	0
33	263	0	10000	5	1	0	5	0
33	264	0	10000	5	1	0	5	0
34	265	0	10000	5	1	0	5	0
36	266	0	10000	5	1	0	5	0
36	267	0	10000	5	1	0	5	0
37	268	0	10000	5	1	0	5	0
39	269	0	10000	5	1	0	5	0
40	270	0	10000	5	1	0	5	0
40	271	0	10000	5	1	0	5	0
39	272	0	10000	5	1	0	5	0
36	273	0	10000	5	1	0	5	0
35	274	0	10000	5	1	0	5	0
34	275	0	10000	5	1	0	5	0
33	276	0	10000	5	1	0	5	0
33	277	0	10000	5	1	0	5	0
31	278	0	10000	5	1	0	5	0
29	279	0	10000	5	1	0	5	0
29	280	0	10000	5	1	0	5	0
28	281	0	10000	5	1	0	5	0
27	282	0	10000	5	1	0	5	0
27	283	0	10000	5	1	0	5	0
26	284	0	10000	5	1	0	5	0
26	285	0	10000	5	1	0	5	0
27	286	0	10000	5	1	0	5	0
26	287	0	10000	5	1	0	5	0
27	288	0	10000	5	1	0	5	0
29	289	0	10000	5	1	0	5	0
30	290	0	10000	5	1	0	5	0
31	291	0	10000	5	1	0	5	0
30	292	0	10000	5	1	0	5	0
30	293	0	10000	5	1	0	5	0
30	294	0	10000	5	1	0	5	0
28	295	0	10000	5	1	0	5	0
28	296	0	10000	5	1	0	5	0
28	297	0	10000	5	1	0	5	0
25	298	0	10000	5	1	0	5	0
23	299	0	10000	5	1	0	5	0
23	300	0	10000	5	1	0	5	0
24	301	0	10000	5	1	0	5	0
25	302	0	10000	5	1	0	5	0
24	303	0	10000	5	1	0	5	0
23	304	0	10000	5	1	0	5	0
22	305	0	10000	5	1	0	5	0
21	306	0	10000	5	1	0	5	0
20	307	0	10000	5	1	0	5	0
21	308	0	10000	5	1	0	5	0
23	309	0	10000	5	1	0	5	0
25	310	0	10000	5	1	0	5	0
24	311	0	10000	5	1	0	5	0
23	312	0	10000	5	1	0	5	0
23	313	0	10000	5	1	0	5	0
22	314	0	10000	5	1	0	5	0
23	315	0	10000	5	1	0	5	0
25	316	0	10000	5	1	0	5	0
27	317	0	10000	5	1	0	5	0
27	318	0	10000	5	1	0	5	0
27	319	0	10000	5	1	0	5	0
28	320	0	10000	5	1	0	5	0
28	321	0	10000	5	1	0	5	0
27	322	0	10000	5	1	0	5	0
27	323	0	10000	5	1	0	5	0
26	324	0	10000	5	1	0	5	0
25	325	0	10000	5	1	0	5	0
25	326	0	10000	5	1	0	5	0
24	327	0	10000	5	1	0	5	0
26	328	0	10000	5	1	0	5	0
30	329	0	10000	5	1	0	5	0
29	330	0	10000	5	1	0	5	0
29	331	0	10000	5	1	0	5	0
32	332	0	10000	5	1	0	5	0
32	333	0	10000	5	1	0	5	0
31	334	0	10000	5	1	0	5	0
30	335	0	10000	5	1	0	5	0
30	336	0	10000	5	1	0	5	0
31	337	0	10000	5	1	0	5	0
32	338	0	10000	5	1	0	5	0
32	339	0	10000	5	1	0	5	0
32	340	0	10000	5	1	0	5	0
33	341	0	10000	5	1	0	5	0
32	342	0	10000	5	1	0	5	0
32	343	0	10000	5	1	0	5	0
32	344	0	10000	5	1	0	5	0
32	345	0	10000	5	1	0	5	0
32	346	0	10000	5	1	0	5	0
33	347	0	10000	5	1	0	5	0
32	348	0	10000	5	1	0	5	0
33	349	0	10000	5	1	0	5	0
34	350	0	10000	5	1	0	5	0
34	351	0	10000	5	1	0	5	0
33	352	0	10000	5	1	0	5	0
32	353	0	10000	5	1	0	5	0
32	354	0	10000	5	1	0	5	0
31	355	0	10000	5	1	0	5	0
30	356	0	10000	5	1	0	5	0
31	357	0	10000	5	1	0	5	0
30	358	0	10000	5	1	0	5	0
27	359	0	10000	5	1	0	5	0
26	360	0	10000	5	1	0	5	0
26	361	0	10000	5	1	0	5	0
24	362	0	10000	5	1	0	5	0
24	363	0	10000	5	1	0	5	0
25	364	0	10000	5	1	0	5	0
23	365	0	10000	5	1	0	5	0
22	366	0	10000	5	1	0	5	0
22	367	0	10000	5	1	0	5	0
21	368	0	10000	5	1	0	5	0
22	369	0	10000	5	1	0	5	0
20	370	0	10000	5	1	0	5	0
20	371	0	10000	5	1	0	5	0
19	372	0	10000	5	1	0	5	0
20	373	0	10000	5	1	0	5	0
21	374	0	10000	5	1	0	5	0
23	375	0	10000	5	1	0	5	0
23	376	0	10000	5	1	0	5	0
22	377	0	10000	5	1	0	5	0
22	378	0	10000	5	1	0	5	0
21	379	0	10000	5	1	0	5	0
22	380	0	10000	5	1	0	5	0
24	381	0	10000	5	1	0	5	0
27	382	0	10000	5	1	0	5	0
27	383	0	10000	5	1	0	5	0
27	384	0	10000	5	1	0	5	0
26	385	0	10000	5	1	0	5	0
25	386	0	10000	5	1	0	5	0
25	387	0	10000	5	1	0	5	0
26	388	0	10000	5	1	0	5	0
28	389	0	10000	5	1	0	5	0
28	390	0	10000	5	1	0	5	0
28	391	0	10000	5	1	0	5	0
26	392	0	10000	5	1	0	5	0
26	393	0	10000	5	1	0	5	0
27	394	0	10000	5	1	0	5	0
27	395	0	10000	5	1	0	5	0
27	396	0	10000	5	1	0	5	0
28	397	0	10000	5	1	0	5	0
28	398	0	10000	5	1	0	5	0
30	399	0	10000	5	1	0	5	0
32	400	0	10000	5	1	0	5	0
34	401	0	10000	5	1	0	5	0
34	402	0	10000	5	1	0	5	0
34	403	0	10000	5	1	0	5	0
38	404	0	10000	5	1	0	5	0
45	405	0	10000	5	1	0	5	0
52	406	0	10000	5	1	0	5	0
56	407	0	10000	5	1	0	5	0
58	408	0	10000	5	1	0	5	0
58	409	0	10000	5	1	0	5	0
54	410	0	10000	5	1	0	5	0
52	411	0	10000	5	1	0	5	0
51	412	0	10000	5	1	0	5	0
51	413	0	10000	5	1	0	5	0
54	414	0	10000	5	1	0	5	0
56	415	0	10000	5	1	0	5	0
54	416	0	10000	5	1	0	5	0
53	417	0	10000	5	1	0	5	0
52	418	0	10000	5	1	0	5	0
50	419	0	10000	5	1	0	5	0
49	420	0	10000	5	1	0	5	0
47	421	0	10000	5	1	0	5	0
47	422	0	10000	5	1	0	5	0
47	423	0	10000	5	1	0	5	0
50	424	0	10000	5	1	0	5	0
53	425	0	10000	5	1	0	5	0
53	426	0	10000	5	1	0	5	0
51	427	0	10000	5	1	0	5	0
50	428	0	10000	5	1	0	5	0
48	429	0	10000	5	1	0	5	0
46	430	0	10000	5	1	0	5	0
46	431	0	10000	5	1	0	5	0
46	432	0	10000	5	1	0	5	0
46	433	0	10000	5	1	0	5	0
46	434	0	10000	5	1	0	5	0
46	435	0	10000	5	1	0	5	0
45	436	0	10000	5	1	0	5	0
45	437	0	10000	5	1	0	5	0
43	438	0	10000	5	1	0	5	0
41	439	0	10000	5	1	0	5	0
40	440	0	10000	5	1	0	5	0
37	441	0	10000	5	1	0	5	0
38	442	0	10000	5	1	0	5	0
37	443	0	10000	5	1	0	5	0
38	444	0	10000	5	1	0	5	0
37	445	0	10000	5	1	0	5	0
36	446	0	10000	5	1	0	5	0
36	447	0	10000	5	1	0	5	0
37	448	0	10000	5	1	0	5	0
39	449	0	10000	5	1	0	5	0
37	450	0	10000	5	1	0	5	0
36	451	0	10000	5	1	0	5	0
36	452	0	10000	5	1	0	5	0
36	453	0	10000	5	1	0	5	0
34	454	0	10000	5	1	0	5	0
33	455	0	10000	5	1	0	5	0
34	456	0	10000	5	1	0	5	0
35	457	0	10000	5	1	0	5	0
34	458	0	10000	5	1	0	5	0
33	459	0	10000	5	1	0	5	0
35	460	0	10000	5	1	0	5	0
36	461	0	10000	5	1	0	5	0
35	462	0	10000	5	1	0	5	0
35	463	0	10000	5	1	0	5	0
35	464	0	10000	5	1	0	5	0
35	465	0	10000	5	1	0	5	0
34	466	0	10000	5	1	0	5	0
32	467	0	10000	5	1	0	5	0
32	468	0	10000	5	1	0	5	0
34	469	0	10000	5	1	0	5	0
32	470	0	10000	5	1	0	5	0
30	471	0	10000	5	1	0	5	0
29	472	0	10000	5	1	0	5	0
28	473	0	10000	5	1	0	5	0
27	474	0	10000	5	1	0	5	0
27	475	0	10000	5	1	0	5	0
30	476	0	10000	5	1	0	5	0
31	477	0	10000	5	1	0	5	0
32	478	0	10000	5	1	0	5	0
29	479	0	10000	5	1	0	5	0
29	480	0	10000	5	1	0	5	0
29	481	0	10000	5	1	0	5	0
29	482	0	10000	5	1	0	5	0
29	483	0	10000	5	1	0	5	0
32	484	0	10000	5	1	0	5	0
32	485	0	10000	5	1	0	5	0
30	486	0	10000	5	1	0	5	0
30	487	0	10000	5	1	0	5	0
31	488	0	10000	5	1	0	5	0
32	489	0	10000	5	1	0	5	0
31	490	0	10000	5	1	0	5	0
30	491	0	10000	5	1	0	5	0
31	492	0	10000	5	1	0	5	0
32	493	0	10000	5	1	0	5	0
31	494	0	10000	5	1	0	5	0
30	495	0	10000	5	1	0	5	0
31	496	0	10000	5	1	0	5	0
32	497	0	10000	5	1	0	5	0
32	498	0	10000	5	1	0	5	0
30	499	0	10000	5	1	0	5	0
29	500	0	10000	5	1	0	5	0
29	501	0	10000	5	1	0	5	0
28	501	0	10000	5	1	0	5	1
27	502	0	10000	5	1	0	5	1
26	504	0	10000	5	1	0	5	1
25	505	0	10000	5	1	0	5	1
24	506	0	10000	5	1	0	5	1
23	507	0	10000	5	1	0	5	1
23	508	0	10000	5	1	0	5	1
25	509	0	10000	5	1	0	5	1
25	510	0	10000	5	1	0	5	1
24	511	0	10000	5	1	0	5	1
23	512	0	10000	5	1	0	5	1
24	513	0	10000	5	1	0	5	1
23	514	0	10000	5	1	0	5	1
24	515	0	10000	5	1	0	5	1
24	516	0	10000	5	1	0	5	1
23	517	0	10000	5	1	0	5	1
22	518	0	10000	5	1	0	5	1
20	519	0	10000	5	1	0	5	1
21	520	0	10000	5	1	0	5	1
20	521	0	10000	5	1	0	5	1
21	522	0	10000	5	1	0	5	1
20	523	0	10000	5	1	0	5	1
21	524	0	10000	5	1	0	5	1
22	525	0	10000	5	1	0	5	1
23	526	0	10000	5	1	0	5	1
22	527	0	10000	5	1	0	5	1
24	528	0	10000	5	1	0	5	1
27	529	0	10000	5	1	0	5	1
30	530	0	10000	5	1	0	5	1
28	531	0	10000	5	1	0	5	1
27	532	0	10000	5	1	0	5	1
28	533	0	10000	5	1	0	5	1
28	534	0	10000	5	1	0	5	1
29	535	0	10000	5	1	0	5	1
31	536	0	10000	5	1	0	5	1
32	537	0	10000	5	1	0	5	1
32	538	0	10000	5	1	0	5	1
31	539	0	10000	5	1	0	5	1
32	540	0	10000	5	1	0	5	1
32	541	0	10000	5	1	0	5	1
32	542	0	10000	5	1	0	5	1
32	543	0	10000	5	1	0	5	1
33	544	0	10000	5	1	0	5	1
34	545	0	10000	5	1	0	5	1
33	546	0	10000	5	1	0	5	1
31	547	0	10000	5	1	0	5	1
31	548	0	10000	5	1	0	5	1
32	549	0	10000	5	1	0	5	1
31	550	0	10000	5	1	0	5	1
30	551	0	10000	5	1	0	5	1
30	552	0	10000	5	1	0	5	0
30	553	0	10000	5	1	0	5	0
30	554	0	10000	5	1	0	5	0
28	555	0	10000	5	1	0	5	0
28	556	0	10000	5	1	0	5	0
28	557	0	10000	5	1	0	5	0
27	558	0	10000	5	1	0	5	0
26	559	0	10000	5	1	0	5	0
25	560	0	10000	5	1	0	5	0
26	561	0	10000	5	1	0	5	0
27	562	0	10000	5	1	0	5	0
26	563	0	10000	5	1	0	5	0
26	564	0	10000	5	1	0	5	0
27	565	0	10000	5	1	0	5	0
26	566	0	10000	5	1	0	5	0
25	567	0	10000	5	1	0	5	0
25	568	0	10000	5	1	0	5	0
25	569	0	10000	5	1	0	5	0
25	570	0	10000	5	1	0	5	0
26	571	0	10000	5	1	0	5	0
26	572	0	10000	5	1	0	5	0
27	573	0	10000	5	1	0	5	0
28	574	0	10000	5	1	0	5	0
28	575	0	10000	5	1	0	5	0
28	576	0	10000	5	1	0	5	0
29	577	0	10000	5	1	0	5	0
31	578	0	10000	5	1	0	5	0
32	579	0	10000	5	1	0	5	0
35	580	0	10000	5	1	0	5	0
35	581	0	10000	5	1	0	5	0
34	582	0	10000	5	1	0	5	0
36	583	0	10000	5	1	0	5	0
37	584	0	10000	5	1	0	5	0
37	585	0	10000	5	1	0	5	0
36	586	0	10000	5	1	0	5	0
38	587	0	10000	5	1	0	5	0
43	588	0	10000	5	1	0	5	0
45	589	0	10000	5	1	0	5	0
43	590	0	10000	5	1	0	5	0
42	591	0	10000	5	1	0	5	0
42	592	0	10000	5	1	0	5	0
41	593	0	10000	5	1	0	5	0
41	594	0	10000	5	1	0	5	0
40	595	0	10000	5	1	0	5	0
40	596	0	10000	5	1	0	5	0
41	597	0	10000	5	1	0	5	0
42	598	0	10000	5	1	0	5	0
40	599	0	10000	5	1	0	5	0
42	600	0	10000	5	1	0	5	0
48	601	0	10000	5	1	0	5	0
60	602	0	10000	5	1	0	5	0
80	603	0	10000	5	1	0	5	0
99	604	0	10000	5	1	0	5	0
109	605	0	10000	5	1	0	5	0
111	606	0	10000	5	1	0	5	0
117	607	0	10000	5	1	0	5	0
122	608	0	10000	5	1	0	5	0
136	609	0	10000	5	1	0	5	0
149	610	0	10000	5	1	0	5	0
157	611	0	10000	5	1	0	5	0
158	612	0	10000	5	1	0	5	0
153	613	0	10000	5	1	0	5	0
148	614	0	10000	5	1	0	5	0
143	615	0	10000	5	1	0	5	0
145	616	0	10000	5	1	0	5	0
147	617	0	10000	5	1	0	5	0
146	618	0	10000	5	1	0	5	0
144	619	0	10000	5	1	0	5	0
141	620	0	10000	5	1	0	5	0
137	621	0	10000	5	1	0	5	0
131	622	0	10000	5	1	0	5	0
128	623	0	10000	5	1	0	5	0
127	624	0	10000	5	1	0	5	0
126	625	0	10000	5	1	0	5	0
125	626	0	10000	5	1	0	5	0
125	627	0	10000	5	1	0	5	0
126	628	0	10000	5	1	0	5	0
129	629	0	10000	5	1	0	5	0
130	630	0	10000	5	1	0	5	0
138	631	0	10000	5	1	0	5	0
149	632	0	10000	5	1	0	5	0
153	633	0	10000	5	1	0	5	0
152	634	0	10000	5	1	0	5	0
147	635	0	10000	5	1	0	5	0
140	636	0	10000	5	1	0	5	0
136	637	0	10000	5	1	0	5	0
135	638	0	10000	5	1	0	5	0
131	639	0	10000	5	1	0	5	0
127	640	0	10000	5	1	0	5	0
122	641	0	10000	5	1	0	5	0
119	642	0	10000	5	1	0	5	0
115	643	0	10000	5	1	0	5	0
111	644	0	10000	5	1	0	5	0
107	645	0	10000	5	1	0	5	0
108	646	0	10000	5	1	0	5	0
112	647	0	10000	5	1	0	5	0
115	648	0	10000	5	1	0	5	0
115	649	0	10000	5	1	0	5	0
111	650	0	10000	5	1	0	5	0
106	651	0	10000	5	1	0	5	0
102	652	0	10000	5	1	0	5	0
99	653	0	10000	5	1	0	5	0
97	654	0	10000	5	1	0	5	0
94	655	0	10000	5	1	0	5	0
92	656	0	10000	5	1	0	5	0
90	657	0	10000	5	1	0	5	0
88	658	0	10000	5	1	0	5	0
86	659	0	10000	5	1	0	5	0
85	660	0	10000	5	1	0	5	0
85	661	0	10000	5	1	0	5	0
86	662	0	10000	5	1	0	5	0
87	663	0	10000	5	1	0	5	0
91	664	0	10000	5	1	0	5	0
92	665	0	10000	5	1	0	5	0
93	666	0	10000	5	1	0	5	0
96	667	0	10000	5	1	0	5	0
97	668	0	10000	5	1	0	5	0
99	669	0	10000	5	1	0	5	0
99	670	0	10000	5	1	0	5	0
98	671	0	10000	5	1	0	5	0
96	672	0	10000	5	1	0	5	0
92	673	0	10000	5	1	0	5	0
89	674	0	10000	5	1	0	5	0
86	675	0	10000	5	1	0	5	0
83	676	0	10000	5	1	0	5	0
80	677	0	10000	5	1	0	5	0
76	678	0	10000	5	1	0	5	0
72	679	0	10000	5	1	0	5	0
72	680	0	10000	5	1	0	5	0
73	681	0	10000	5	1	0	5	0
75	682	0	10000	5	1	0	5	0
77	683	0	10000	5	1	0	5	0
78	684	0	10000	5	1	0	5	0
79	685	0	10000	5	1	0	5	0
76	686	0	10000	5	1	0	5	0
72	687	0	10000	5	1	0	5	0
69	688	0	10000	5	1	0	5	0
68	689	0	10000	5	1	0	5	0
64	690	0	10000	5	1	0	5	0
61	691	0	10000	5	1	0	5	0
59	692	0	10000	5	1	0	5	0
58	693	0	10000	5	1	0	5	0
56	694	0	10000	5	1	0	5	0
54	695	0	10000	5	1	0	5	0
52	696	0	10000	5	1	0	5	0
49	697	0	10000	5	1	0	5	0
48	698	0	10000	5	1	0	5	0
45	699	0	10000	5	1	0	5	0
43	700	0	10000	5	1	0	5	0
42	701	0	10000	5	1	0	5	0
43	702	0	10000	5	1	0	5	0
43	703	0	10000	5	1	0	5	0
41	704	0	10000	5	1	0	5	0
40	705	0	10000	5	1	0	5	0
38	706	0	10000	5	1	0	5	0
36	707	0	10000	5	1	0	5	0
36	708	0	10000	5	1	0	5	0
37	709	0	10000	5	1	0	5	0
35	710	0	10000	5	1	0	5	0
34	711	0	10000	5	1	0	5	0
33	712	0	10000	5	1	0	5	0
35	713	0	10000	5	1	0	5	0
36	714	0	10000	5	1	0	5	0
34	715	0	10000	5	1	0	5	0
34	716	0	10000	5	1	0	5	0
33	717	0	10000	5	1	0	5	0
32	718	0	10000	5	1	0	5	0
31	719	0	10000	5	1	0	5	0
32	720	0	10000	5	1	0	5	0
33	721	0	10000	5	1	0	5	0
35	722	0	10000	5	1	0	5	0
35	723	0	10000	5	1	0	5	0
36	724	0	10000	5	1	0	5	0
37	725	0	10000	5	1	0	5	0
36	726	0	10000	5	1	0	5	0
34	727	0	10000	5	1	0	5	0
36	728	0	10000	5	1	0	5	0
38	729	0	10000	5	1	0	5	0
38	730	0	10000	5	1	0	5	0
40	731	0	10000	5	1	0	5	0
39	732	0	10000	5	1	0	5	0
38	733	0	10000	5	1	0	5	0
37	734	0	10000	5	1	0	5	0
35	735	0	10000	5	1	0	5	0
36	736	0	10000	5	1	0	5	0
38	737	0	10000	5	1	0	5	0
38	738	0	10000	5	1	0	5	0
36	739	0	10000	5	1	0	5	0
37	740	0	10000	5	1	0	5	0
36	741	0	10000	5	1	0	5	0
36	742	0	10000	5	1	0	5	0
35	743	0	10000	5	1	0	5	0
33	744	0	10000	5	1	0	5	0
33	745	0	10000	5	1	0	5	0
32	746	0	10000	5	1	0	5	0
32	747	0	10000	5	1	0	5	0
33	748	0	10000	5	1	0	5	0
35	749	0	10000	5	1	0	5	0
34	750	0	10000	5	1	0	5	0
33	751	0	10000	5	1	0	5	0
33	752	0	10000	5	1	0	5	0
35	753	0	10000	5	1	0	5	0
38	754	0	10000	5	1	0	5	0
41	755	0	10000	5	1	0	5	0
44	756	0	10000	5	1	0	5	0
45	757	0	10000	5	1	0	5	0
47	758	0	10000	5	1	0	5	0
46	759	0	10000	5	1	0	5	0
45	760	0	10000	5	1	0	5	0
43	761	0	10000	5	1	0	5	0
41	762	0	10000	5	1	0	5	0
41	763	0	10000	5	1	0	5	0
40	764	0	10000	5	1	0	5	0
39	765	0	10000	5	1	0	5	0
39	766	0	10000	5	1	0	5	0
36	767	0	10000	5	1	0	5	0
34	768	0	10000	5	1	0	5	0
36	769	0	10000	5	1	0	5	0
35	770	0	10000	5	1	0	5	0
35	771	0	10000	5	1	0	5	0
33	772	0	10000	5	1	0	5	0
32	773	0	10000	5	1	0	5	0
32	774	0	10000	5	1	0	5	0
34	775	0	10000	5	1	0	5	0
34	776	0	10000	5	1	0	5	0
33	777	0	10000	5	1	0	5	0
32	778	0	10000	5	1	0	5	0
29	779	0	10000	5	1	0	5	0
28	780	0	10000	5	1	0	5	0
27	781	0	10000	5	1	0	5	0
27	782	0	10000	5	1	0	5	0
27	783	0	10000	5	1	0	5	0
