value	EMG	Stimulus	EMG_sensitivity	Total_Trial_Nr	practise	acq	probe_nr	Startle_Probe
34	2	0	10000	1	1	0	1	0
32	3	0	10000	1	1	0	1	0
32	4	0	10000	1	1	0	1	0
32	5	0	10000	1	1	0	1	0
33	6	0	10000	1	1	0	1	0
34	7	0	10000	1	1	0	1	0
34	8	0	10000	1	1	0	1	0
34	9	0	10000	1	1	0	1	0
35	10	0	10000	1	1	0	1	0
34	11	0	10000	1	1	0	1	0
34	12	0	10000	1	1	0	1	0
35	13	0	10000	1	1	0	1	0
35	14	0	10000	1	1	0	1	0
36	15	0	10000	1	1	0	1	0
35	16	0	10000	1	1	0	1	0
34	17	0	10000	1	1	0	1	0
36	18	0	10000	1	1	0	1	0
34	19	0	10000	1	1	0	1	0
34	20	0	10000	1	1	0	1	0
37	21	0	10000	1	1	0	1	0
36	22	0	10000	1	1	0	1	0
35	23	0	10000	1	1	0	1	0
36	24	0	10000	1	1	0	1	0
36	25	0	10000	1	1	0	1	0
36	26	0	10000	1	1	0	1	0
36	27	0	10000	1	1	0	1	0
36	28	0	10000	1	1	0	1	0
36	29	0	10000	1	1	0	1	0
38	30	0	10000	1	1	0	1	0
37	31	0	10000	1	1	0	1	0
37	32	0	10000	1	1	0	1	0
38	33	0	10000	1	1	0	1	0
39	34	0	10000	1	1	0	1	0
40	35	0	10000	1	1	0	1	0
39	36	0	10000	1	1	0	1	0
38	37	0	10000	1	1	0	1	0
39	38	0	10000	1	1	0	1	0
39	39	0	10000	1	1	0	1	0
39	40	0	10000	1	1	0	1	0
39	41	0	10000	1	1	0	1	0
40	42	0	10000	1	1	0	1	0
40	43	0	10000	1	1	0	1	0
39	44	0	10000	1	1	0	1	0
39	45	0	10000	1	1	0	1	0
39	46	0	10000	1	1	0	1	0
39	47	0	10000	1	1	0	1	0
39	48	0	10000	1	1	0	1	0
39	49	0	10000	1	1	0	1	0
37	50	0	10000	1	1	0	1	0
37	51	0	10000	1	1	0	1	0
39	52	0	10000	1	1	0	1	0
38	53	0	10000	1	1	0	1	0
38	54	0	10000	1	1	0	1	0
38	55	0	10000	1	1	0	1	0
38	56	0	10000	1	1	0	1	0
37	57	0	10000	1	1	0	1	0
36	58	0	10000	1	1	0	1	0
35	59	0	10000	1	1	0	1	0
36	60	0	10000	1	1	0	1	0
36	61	0	10000	1	1	0	1	0
35	62	0	10000	1	1	0	1	0
34	63	0	10000	1	1	0	1	0
34	64	0	10000	1	1	0	1	0
35	65	0	10000	1	1	0	1	0
36	66	0	10000	1	1	0	1	0
37	67	0	10000	1	1	0	1	0
37	68	0	10000	1	1	0	1	0
37	69	0	10000	1	1	0	1	0
36	70	0	10000	1	1	0	1	0
36	71	0	10000	1	1	0	1	0
36	72	0	10000	1	1	0	1	0
37	73	0	10000	1	1	0	1	0
36	74	0	10000	1	1	0	1	0
35	75	0	10000	1	1	0	1	0
37	76	0	10000	1	1	0	1	0
35	77	0	10000	1	1	0	1	0
35	78	0	10000	1	1	0	1	0
34	79	0	10000	1	1	0	1	0
35	80	0	10000	1	1	0	1	0
35	81	0	10000	1	1	0	1	0
34	82	0	10000	1	1	0	1	0
34	83	0	10000	1	1	0	1	0
36	84	0	10000	1	1	0	1	0
36	85	0	10000	1	1	0	1	0
35	86	0	10000	1	1	0	1	0
36	87	0	10000	1	1	0	1	0
37	88	0	10000	1	1	0	1	0
37	89	0	10000	1	1	0	1	0
36	90	0	10000	1	1	0	1	0
34	91	0	10000	1	1	0	1	0
35	92	0	10000	1	1	0	1	0
36	93	0	10000	1	1	0	1	0
35	94	0	10000	1	1	0	1	0
36	95	0	10000	1	1	0	1	0
35	96	0	10000	1	1	0	1	0
35	97	0	10000	1	1	0	1	0
37	98	0	10000	1	1	0	1	0
37	99	0	10000	1	1	0	1	0
37	100	0	10000	1	1	0	1	0
38	101	0	10000	1	1	0	1	0
37	102	0	10000	1	1	0	1	0
36	103	0	10000	1	1	0	1	0
37	104	0	10000	1	1	0	1	0
35	105	0	10000	1	1	0	1	0
35	106	0	10000	1	1	0	1	0
38	107	0	10000	1	1	0	1	0
38	108	0	10000	1	1	0	1	0
37	109	0	10000	1	1	0	1	0
35	110	0	10000	1	1	0	1	0
35	111	0	10000	1	1	0	1	0
35	112	0	10000	1	1	0	1	0
34	113	0	10000	1	1	0	1	0
35	114	0	10000	1	1	0	1	0
35	115	0	10000	1	1	0	1	0
35	116	0	10000	1	1	0	1	0
33	117	0	10000	1	1	0	1	0
32	118	0	10000	1	1	0	1	0
33	119	0	10000	1	1	0	1	0
34	120	0	10000	1	1	0	1	0
33	121	0	10000	1	1	0	1	0
32	122	0	10000	1	1	0	1	0
33	123	0	10000	1	1	0	1	0
32	124	0	10000	1	1	0	1	0
30	125	0	10000	1	1	0	1	0
31	126	0	10000	1	1	0	1	0
33	127	0	10000	1	1	0	1	0
32	128	0	10000	1	1	0	1	0
31	129	0	10000	1	1	0	1	0
30	130	0	10000	1	1	0	1	0
31	131	0	10000	1	1	0	1	0
31	132	0	10000	1	1	0	1	0
31	133	0	10000	1	1	0	1	0
32	134	0	10000	1	1	0	1	0
33	135	0	10000	1	1	0	1	0
32	136	0	10000	1	1	0	1	0
31	137	0	10000	1	1	0	1	0
31	138	0	10000	1	1	0	1	0
33	139	0	10000	1	1	0	1	0
32	140	0	10000	1	1	0	1	0
32	141	0	10000	1	1	0	1	0
31	142	0	10000	1	1	0	1	0
32	143	0	10000	1	1	0	1	0
32	144	0	10000	1	1	0	1	0
32	145	0	10000	1	1	0	1	0
33	146	0	10000	1	1	0	1	0
36	147	0	10000	1	1	0	1	0
34	148	0	10000	1	1	0	1	0
33	149	0	10000	1	1	0	1	0
32	150	0	10000	1	1	0	1	0
33	151	0	10000	1	1	0	1	0
33	152	0	10000	1	1	0	1	0
33	153	0	10000	1	1	0	1	0
33	154	0	10000	1	1	0	1	0
34	155	0	10000	1	1	0	1	0
34	156	0	10000	1	1	0	1	0
31	157	0	10000	1	1	0	1	0
32	158	0	10000	1	1	0	1	0
32	159	0	10000	1	1	0	1	0
32	160	0	10000	1	1	0	1	0
31	161	0	10000	1	1	0	1	0
31	162	0	10000	1	1	0	1	0
32	163	0	10000	1	1	0	1	0
33	164	0	10000	1	1	0	1	0
35	165	0	10000	1	1	0	1	0
37	166	0	10000	1	1	0	1	0
38	167	0	10000	1	1	0	1	0
37	168	0	10000	1	1	0	1	0
36	169	0	10000	1	1	0	1	0
37	170	0	10000	1	1	0	1	0
38	171	0	10000	1	1	0	1	0
36	172	0	10000	1	1	0	1	0
35	173	0	10000	1	1	0	1	0
37	174	0	10000	1	1	0	1	0
38	175	0	10000	1	1	0	1	0
35	176	0	10000	1	1	0	1	0
32	177	0	10000	1	1	0	1	0
34	178	0	10000	1	1	0	1	0
34	179	0	10000	1	1	0	1	0
33	180	0	10000	1	1	0	1	0
33	181	0	10000	1	1	0	1	0
34	182	0	10000	1	1	0	1	0
33	183	0	10000	1	1	0	1	0
32	184	0	10000	1	1	0	1	0
31	185	0	10000	1	1	0	1	0
33	186	0	10000	1	1	0	1	0
34	187	0	10000	1	1	0	1	0
33	188	0	10000	1	1	0	1	0
33	189	0	10000	1	1	0	1	0
33	190	0	10000	1	1	0	1	0
33	191	0	10000	1	1	0	1	0
34	192	0	10000	1	1	0	1	0
34	193	0	10000	1	1	0	1	0
35	194	0	10000	1	1	0	1	0
36	195	0	10000	1	1	0	1	0
35	196	0	10000	1	1	0	1	0
32	197	0	10000	1	1	0	1	0
35	198	0	10000	1	1	0	1	0
34	199	0	10000	1	1	0	1	0
33	200	0	10000	1	1	0	1	0
32	201	0	10000	1	1	0	1	0
35	202	0	10000	1	1	0	1	0
34	203	0	10000	1	1	0	1	0
35	204	0	10000	1	1	0	1	0
35	205	0	10000	1	1	0	1	0
38	206	0	10000	1	1	0	1	0
38	207	0	10000	1	1	0	1	0
37	208	0	10000	1	1	0	1	0
38	209	0	10000	1	1	0	1	0
42	210	0	10000	1	1	0	1	0
43	211	0	10000	1	1	0	1	0
42	212	0	10000	1	1	0	1	0
40	213	0	10000	1	1	0	1	0
42	214	0	10000	1	1	0	1	0
43	215	0	10000	1	1	0	1	0
41	216	0	10000	1	1	0	1	0
40	217	0	10000	1	1	0	1	0
40	218	0	10000	1	1	0	1	0
41	219	0	10000	1	1	0	1	0
42	220	0	10000	1	1	0	1	0
42	221	0	10000	1	1	0	1	0
41	222	0	10000	1	1	0	1	0
41	223	0	10000	1	1	0	1	0
40	224	0	10000	1	1	0	1	0
38	225	0	10000	1	1	0	1	0
40	226	0	10000	1	1	0	1	0
40	227	0	10000	1	1	0	1	0
39	228	0	10000	1	1	0	1	0
38	229	0	10000	1	1	0	1	0
38	230	0	10000	1	1	0	1	0
38	231	0	10000	1	1	0	1	0
36	232	0	10000	1	1	0	1	0
36	233	0	10000	1	1	0	1	0
37	234	0	10000	1	1	0	1	0
37	235	0	10000	1	1	0	1	0
36	236	0	10000	1	1	0	1	0
33	237	0	10000	1	1	0	1	0
33	238	0	10000	1	1	0	1	0
35	239	0	10000	1	1	0	1	0
34	240	0	10000	1	1	0	1	0
33	241	0	10000	1	1	0	1	0
35	242	0	10000	1	1	0	1	0
36	243	0	10000	1	1	0	1	0
35	244	0	10000	1	1	0	1	0
35	245	0	10000	1	1	0	1	0
37	246	0	10000	1	1	0	1	0
37	247	0	10000	1	1	0	1	0
36	248	0	10000	1	1	0	1	0
36	249	0	10000	1	1	0	1	0
35	250	0	10000	1	1	0	1	0
34	251	0	10000	1	1	0	1	0
34	252	0	10000	1	1	0	1	0
33	253	0	10000	1	1	0	1	0
34	254	0	10000	1	1	0	1	0
37	255	0	10000	1	1	0	1	0
36	256	0	10000	1	1	0	1	0
35	257	0	10000	1	1	0	1	0
35	258	0	10000	1	1	0	1	0
34	259	0	10000	1	1	0	1	0
34	260	0	10000	1	1	0	1	0
35	261	0	10000	1	1	0	1	0
35	262	0	10000	1	1	0	1	0
34	263	0	10000	1	1	0	1	0
33	264	0	10000	1	1	0	1	0
33	265	0	10000	1	1	0	1	0
34	266	0	10000	1	1	0	1	0
35	267	0	10000	1	1	0	1	0
34	268	0	10000	1	1	0	1	0
33	269	0	10000	1	1	0	1	0
33	270	0	10000	1	1	0	1	0
35	271	0	10000	1	1	0	1	0
35	272	0	10000	1	1	0	1	0
36	273	0	10000	1	1	0	1	0
36	274	0	10000	1	1	0	1	0
35	275	0	10000	1	1	0	1	0
34	276	0	10000	1	1	0	1	0
32	277	0	10000	1	1	0	1	0
33	278	0	10000	1	1	0	1	0
34	279	0	10000	1	1	0	1	0
35	280	0	10000	1	1	0	1	0
35	281	0	10000	1	1	0	1	0
36	282	0	10000	1	1	0	1	0
37	283	0	10000	1	1	0	1	0
36	284	0	10000	1	1	0	1	0
36	285	0	10000	1	1	0	1	0
37	286	0	10000	1	1	0	1	0
38	287	0	10000	1	1	0	1	0
36	288	0	10000	1	1	0	1	0
38	289	0	10000	1	1	0	1	0
38	290	0	10000	1	1	0	1	0
36	291	0	10000	1	1	0	1	0
36	292	0	10000	1	1	0	1	0
37	293	0	10000	1	1	0	1	0
37	294	0	10000	1	1	0	1	0
36	295	0	10000	1	1	0	1	0
35	296	0	10000	1	1	0	1	0
35	297	0	10000	1	1	0	1	0
36	298	0	10000	1	1	0	1	0
36	299	0	10000	1	1	0	1	0
36	300	0	10000	1	1	0	1	0
37	301	0	10000	1	1	0	1	0
37	302	0	10000	1	1	0	1	0
37	303	0	10000	1	1	0	1	0
37	304	0	10000	1	1	0	1	0
37	305	0	10000	1	1	0	1	0
37	306	0	10000	1	1	0	1	0
37	307	0	10000	1	1	0	1	0
38	308	0	10000	1	1	0	1	0
37	309	0	10000	1	1	0	1	0
38	310	0	10000	1	1	0	1	0
38	311	0	10000	1	1	0	1	0
37	312	0	10000	1	1	0	1	0
38	313	0	10000	1	1	0	1	0
38	314	0	10000	1	1	0	1	0
37	315	0	10000	1	1	0	1	0
36	316	0	10000	1	1	0	1	0
38	317	0	10000	1	1	0	1	0
37	318	0	10000	1	1	0	1	0
36	319	0	10000	1	1	0	1	0
36	320	0	10000	1	1	0	1	0
36	321	0	10000	1	1	0	1	0
36	322	0	10000	1	1	0	1	0
36	323	0	10000	1	1	0	1	0
35	324	0	10000	1	1	0	1	0
35	325	0	10000	1	1	0	1	0
35	326	0	10000	1	1	0	1	0
36	327	0	10000	1	1	0	1	0
35	328	0	10000	1	1	0	1	0
35	329	0	10000	1	1	0	1	0
36	330	0	10000	1	1	0	1	0
35	331	0	10000	1	1	0	1	0
35	332	0	10000	1	1	0	1	0
36	333	0	10000	1	1	0	1	0
36	334	0	10000	1	1	0	1	0
35	335	0	10000	1	1	0	1	0
35	336	0	10000	1	1	0	1	0
34	337	0	10000	1	1	0	1	0
37	338	0	10000	1	1	0	1	0
38	339	0	10000	1	1	0	1	0
38	340	0	10000	1	1	0	1	0
39	341	0	10000	1	1	0	1	0
38	342	0	10000	1	1	0	1	0
36	343	0	10000	1	1	0	1	0
38	344	0	10000	1	1	0	1	0
37	345	0	10000	1	1	0	1	0
36	346	0	10000	1	1	0	1	0
37	347	0	10000	1	1	0	1	0
37	348	0	10000	1	1	0	1	0
37	349	0	10000	1	1	0	1	0
36	350	0	10000	1	1	0	1	0
35	351	0	10000	1	1	0	1	0
36	352	0	10000	1	1	0	1	0
36	353	0	10000	1	1	0	1	0
36	354	0	10000	1	1	0	1	0
34	355	0	10000	1	1	0	1	0
35	356	0	10000	1	1	0	1	0
35	357	0	10000	1	1	0	1	0
34	358	0	10000	1	1	0	1	0
35	359	0	10000	1	1	0	1	0
36	360	0	10000	1	1	0	1	0
35	361	0	10000	1	1	0	1	0
35	362	0	10000	1	1	0	1	0
34	363	0	10000	1	1	0	1	0
34	364	0	10000	1	1	0	1	0
36	365	0	10000	1	1	0	1	0
37	366	0	10000	1	1	0	1	0
40	367	0	10000	1	1	0	1	0
40	368	0	10000	1	1	0	1	0
39	369	0	10000	1	1	0	1	0
39	370	0	10000	1	1	0	1	0
38	371	0	10000	1	1	0	1	0
40	372	0	10000	1	1	0	1	0
39	373	0	10000	1	1	0	1	0
39	374	0	10000	1	1	0	1	0
38	375	0	10000	1	1	0	1	0
40	376	0	10000	1	1	0	1	0
38	377	0	10000	1	1	0	1	0
37	378	0	10000	1	1	0	1	0
37	379	0	10000	1	1	0	1	0
38	380	0	10000	1	1	0	1	0
37	381	0	10000	1	1	0	1	0
36	382	0	10000	1	1	0	1	0
35	383	0	10000	1	1	0	1	0
36	384	0	10000	1	1	0	1	0
36	385	0	10000	1	1	0	1	0
35	386	0	10000	1	1	0	1	0
36	387	0	10000	1	1	0	1	0
38	388	0	10000	1	1	0	1	0
38	389	0	10000	1	1	0	1	0
39	390	0	10000	1	1	0	1	0
41	391	0	10000	1	1	0	1	0
39	392	0	10000	1	1	0	1	0
41	393	0	10000	1	1	0	1	0
41	394	0	10000	1	1	0	1	0
41	395	0	10000	1	1	0	1	0
42	396	0	10000	1	1	0	1	0
39	397	0	10000	1	1	0	1	0
38	398	0	10000	1	1	0	1	0
37	399	0	10000	1	1	0	1	0
38	400	0	10000	1	1	0	1	0
38	401	0	10000	1	1	0	1	0
36	402	0	10000	1	1	0	1	0
36	403	0	10000	1	1	0	1	0
36	404	0	10000	1	1	0	1	0
35	405	0	10000	1	1	0	1	0
35	406	0	10000	1	1	0	1	0
36	407	0	10000	1	1	0	1	0
37	408	0	10000	1	1	0	1	0
35	409	0	10000	1	1	0	1	0
34	410	0	10000	1	1	0	1	0
34	411	0	10000	1	1	0	1	0
34	412	0	10000	1	1	0	1	0
34	413	0	10000	1	1	0	1	0
33	414	0	10000	1	1	0	1	0
34	415	0	10000	1	1	0	1	0
34	416	0	10000	1	1	0	1	0
33	417	0	10000	1	1	0	1	0
34	418	0	10000	1	1	0	1	0
34	419	0	10000	1	1	0	1	0
35	420	0	10000	1	1	0	1	0
35	421	0	10000	1	1	0	1	0
34	422	0	10000	1	1	0	1	0
35	423	0	10000	1	1	0	1	0
35	424	0	10000	1	1	0	1	0
35	425	0	10000	1	1	0	1	0
34	426	0	10000	1	1	0	1	0
36	427	0	10000	1	1	0	1	0
36	428	0	10000	1	1	0	1	0
36	429	0	10000	1	1	0	1	0
35	430	0	10000	1	1	0	1	0
36	431	0	10000	1	1	0	1	0
36	432	0	10000	1	1	0	1	0
34	433	0	10000	1	1	0	1	0
34	434	0	10000	1	1	0	1	0
37	435	0	10000	1	1	0	1	0
36	436	0	10000	1	1	0	1	0
33	437	0	10000	1	1	0	1	0
32	438	0	10000	1	1	0	1	0
34	439	0	10000	1	1	0	1	0
33	440	0	10000	1	1	0	1	0
32	441	0	10000	1	1	0	1	0
34	442	0	10000	1	1	0	1	0
33	443	0	10000	1	1	0	1	0
34	444	0	10000	1	1	0	1	0
34	445	0	10000	1	1	0	1	0
35	446	0	10000	1	1	0	1	0
39	447	0	10000	1	1	0	1	0
37	448	0	10000	1	1	0	1	0
36	449	0	10000	1	1	0	1	0
35	450	0	10000	1	1	0	1	0
37	451	0	10000	1	1	0	1	0
36	452	0	10000	1	1	0	1	0
34	453	0	10000	1	1	0	1	0
34	454	0	10000	1	1	0	1	0
37	455	0	10000	1	1	0	1	0
36	456	0	10000	1	1	0	1	0
33	457	0	10000	1	1	0	1	0
33	458	0	10000	1	1	0	1	0
34	459	0	10000	1	1	0	1	0
35	460	0	10000	1	1	0	1	0
35	461	0	10000	1	1	0	1	0
35	462	0	10000	1	1	0	1	0
36	463	0	10000	1	1	0	1	0
34	464	0	10000	1	1	0	1	0
33	465	0	10000	1	1	0	1	0
32	466	0	10000	1	1	0	1	0
34	467	0	10000	1	1	0	1	0
34	468	0	10000	1	1	0	1	0
32	469	0	10000	1	1	0	1	0
32	470	0	10000	1	1	0	1	0
33	471	0	10000	1	1	0	1	0
32	472	0	10000	1	1	0	1	0
32	473	0	10000	1	1	0	1	0
31	474	0	10000	1	1	0	1	0
34	475	0	10000	1	1	0	1	0
34	476	0	10000	1	1	0	1	0
31	477	0	10000	1	1	0	1	0
31	478	0	10000	1	1	0	1	0
33	479	0	10000	1	1	0	1	0
32	480	0	10000	1	1	0	1	0
31	481	0	10000	1	1	0	1	0
31	482	0	10000	1	1	0	1	0
33	483	0	10000	1	1	0	1	0
32	484	0	10000	1	1	0	1	0
30	485	0	10000	1	1	0	1	0
30	486	0	10000	1	1	0	1	0
32	487	0	10000	1	1	0	1	0
33	488	0	10000	1	1	0	1	0
33	489	0	10000	1	1	0	1	0
33	490	0	10000	1	1	0	1	0
33	491	0	10000	1	1	0	1	0
34	492	0	10000	1	1	0	1	0
34	493	0	10000	1	1	0	1	0
35	494	0	10000	1	1	0	1	0
37	495	0	10000	1	1	0	1	0
35	496	0	10000	1	1	0	1	0
33	497	0	10000	1	1	0	1	0
33	498	0	10000	1	1	0	1	0
35	499	0	10000	1	1	0	1	0
37	500	0	10000	1	1	0	1	0
38	501	0	10000	1	1	0	1	0
38	539	0	10000	1	1	0	1	1
37	540	0	10000	1	1	0	1	1
36	541	0	10000	1	1	0	1	1
34	542	0	10000	1	1	0	1	1
36	543	0	10000	1	1	0	1	1
38	544	0	10000	1	1	0	1	1
37	545	0	10000	1	1	0	1	1
36	546	0	10000	1	1	0	1	1
36	547	0	10000	1	1	0	1	1
36	548	0	10000	1	1	0	1	1
37	549	0	10000	1	1	0	1	1
39	550	0	10000	1	1	0	1	1
39	551	0	10000	1	1	0	1	1
39	552	0	10000	1	1	0	1	1
39	553	0	10000	1	1	0	1	1
36	554	0	10000	1	1	0	1	1
38	555	0	10000	1	1	0	1	1
38	556	0	10000	1	1	0	1	1
37	557	0	10000	1	1	0	1	1
36	558	0	10000	1	1	0	1	1
37	559	0	10000	1	1	0	1	1
37	560	0	10000	1	1	0	1	1
38	561	0	10000	1	1	0	1	1
38	562	0	10000	1	1	0	1	1
39	563	0	10000	1	1	0	1	1
40	564	0	10000	1	1	0	1	1
39	565	0	10000	1	1	0	1	1
39	566	0	10000	1	1	0	1	1
42	567	0	10000	1	1	0	1	1
41	568	0	10000	1	1	0	1	1
39	569	0	10000	1	1	0	1	1
39	570	0	10000	1	1	0	1	1
39	571	0	10000	1	1	0	1	1
39	572	0	10000	1	1	0	1	1
38	573	0	10000	1	1	0	1	1
35	574	0	10000	1	1	0	1	1
35	575	0	10000	1	1	0	1	1
35	576	0	10000	1	1	0	1	1
34	542	0	10000	1	1	0	1	1
33	543	0	10000	1	1	0	1	1
34	544	0	10000	1	1	0	1	1
34	545	0	10000	1	1	0	1	1
32	544	0	10000	1	1	0	1	1
31	545	0	10000	1	1	0	1	1
35	546	0	10000	1	1	0	1	1
36	547	0	10000	1	1	0	1	1
34	548	0	10000	1	1	0	1	1
34	549	0	10000	1	1	0	1	1
32	550	0	10000	1	1	0	1	1
36	551	0	10000	1	1	0	1	1
38	552	0	10000	1	1	0	1	0
38	553	0	10000	1	1	0	1	0
38	554	0	10000	1	1	0	1	0
38	555	0	10000	1	1	0	1	0
37	556	0	10000	1	1	0	1	0
34	557	0	10000	1	1	0	1	0
36	558	0	10000	1	1	0	1	0
36	559	0	10000	1	1	0	1	0
35	560	0	10000	1	1	0	1	0
35	561	0	10000	1	1	0	1	0
35	562	0	10000	1	1	0	1	0
34	563	0	10000	1	1	0	1	0
33	564	0	10000	1	1	0	1	0
32	565	0	10000	1	1	0	1	0
35	566	0	10000	1	1	0	1	0
37	567	0	10000	1	1	0	1	0
35	568	0	10000	1	1	0	1	0
35	569	0	10000	1	1	0	1	0
35	570	0	10000	1	1	0	1	0
35	571	0	10000	1	1	0	1	0
36	572	0	10000	1	1	0	1	0
37	573	0	10000	1	1	0	1	0
37	574	0	10000	1	1	0	1	0
37	575	0	10000	1	1	0	1	0
36	576	0	10000	1	1	0	1	0
34	577	0	10000	1	1	0	1	0
35	578	0	10000	1	1	0	1	0
34	579	0	10000	1	1	0	1	0
34	580	0	10000	1	1	0	1	0
34	581	0	10000	1	1	0	1	0
34	582	0	10000	1	1	0	1	0
34	583	0	10000	1	1	0	1	0
33	584	0	10000	1	1	0	1	0
35	585	0	10000	1	1	0	1	0
36	586	0	10000	1	1	0	1	0
37	587	0	10000	1	1	0	1	0
35	588	0	10000	1	1	0	1	0
36	589	0	10000	1	1	0	1	0
36	590	0	10000	1	1	0	1	0
36	591	0	10000	1	1	0	1	0
36	592	0	10000	1	1	0	1	0
38	593	0	10000	1	1	0	1	0
36	594	0	10000	1	1	0	1	0
36	595	0	10000	1	1	0	1	0
34	596	0	10000	1	1	0	1	0
34	597	0	10000	1	1	0	1	0
35	598	0	10000	1	1	0	1	0
35	599	0	10000	1	1	0	1	0
36	600	0	10000	1	1	0	1	0
37	601	0	10000	1	1	0	1	0
37	602	0	10000	1	1	0	1	0
36	603	0	10000	1	1	0	1	0
36	604	0	10000	1	1	0	1	0
37	605	0	10000	1	1	0	1	0
36	606	0	10000	1	1	0	1	0
38	607	0	10000	1	1	0	1	0
36	608	0	10000	1	1	0	1	0
37	609	0	10000	1	1	0	1	0
39	610	0	10000	1	1	0	1	0
39	611	0	10000	1	1	0	1	0
40	612	0	10000	1	1	0	1	0
40	613	0	10000	1	1	0	1	0
39	614	0	10000	1	1	0	1	0
40	615	0	10000	1	1	0	1	0
40	616	0	10000	1	1	0	1	0
40	617	0	10000	1	1	0	1	0
40	618	0	10000	1	1	0	1	0
40	619	0	10000	1	1	0	1	0
40	620	0	10000	1	1	0	1	0
40	621	0	10000	1	1	0	1	0
42	622	0	10000	1	1	0	1	0
42	623	0	10000	1	1	0	1	0
42	624	0	10000	1	1	0	1	0
41	625	0	10000	1	1	0	1	0
41	626	0	10000	1	1	0	1	0
44	627	0	10000	1	1	0	1	0
42	628	0	10000	1	1	0	1	0
42	629	0	10000	1	1	0	1	0
48	630	0	10000	1	1	0	1	0
50	631	0	10000	1	1	0	1	0
54	632	0	10000	1	1	0	1	0
64	633	0	10000	1	1	0	1	0
71	634	0	10000	1	1	0	1	0
74	635	0	10000	1	1	0	1	0
73	636	0	10000	1	1	0	1	0
70	637	0	10000	1	1	0	1	0
73	638	0	10000	1	1	0	1	0
73	639	0	10000	1	1	0	1	0
74	640	0	10000	1	1	0	1	0
82	641	0	10000	1	1	0	1	0
81	642	0	10000	1	1	0	1	0
87	643	0	10000	1	1	0	1	0
94	644	0	10000	1	1	0	1	0
92	645	0	10000	1	1	0	1	0
92	646	0	10000	1	1	0	1	0
93	647	0	10000	1	1	0	1	0
111	648	0	10000	1	1	0	1	0
125	649	0	10000	1	1	0	1	0
123	650	0	10000	1	1	0	1	0
129	651	0	10000	1	1	0	1	0
140	652	0	10000	1	1	0	1	0
158	653	0	10000	1	1	0	1	0
171	654	0	10000	1	1	0	1	0
180	655	0	10000	1	1	0	1	0
178	656	0	10000	1	1	0	1	0
171	657	0	10000	1	1	0	1	0
166	658	0	10000	1	1	0	1	0
166	659	0	10000	1	1	0	1	0
166	660	0	10000	1	1	0	1	0
164	661	0	10000	1	1	0	1	0
163	662	0	10000	1	1	0	1	0
159	663	0	10000	1	1	0	1	0
152	664	0	10000	1	1	0	1	0
150	665	0	10000	1	1	0	1	0
145	666	0	10000	1	1	0	1	0
140	667	0	10000	1	1	0	1	0
137	668	0	10000	1	1	0	1	0
131	669	0	10000	1	1	0	1	0
126	670	0	10000	1	1	0	1	0
124	671	0	10000	1	1	0	1	0
125	672	0	10000	1	1	0	1	0
119	673	0	10000	1	1	0	1	0
116	674	0	10000	1	1	0	1	0
113	675	0	10000	1	1	0	1	0
111	676	0	10000	1	1	0	1	0
105	677	0	10000	1	1	0	1	0
101	678	0	10000	1	1	0	1	0
98	679	0	10000	1	1	0	1	0
96	680	0	10000	1	1	0	1	0
93	681	0	10000	1	1	0	1	0
89	682	0	10000	1	1	0	1	0
86	683	0	10000	1	1	0	1	0
84	684	0	10000	1	1	0	1	0
80	685	0	10000	1	1	0	1	0
78	686	0	10000	1	1	0	1	0
78	687	0	10000	1	1	0	1	0
76	688	0	10000	1	1	0	1	0
76	689	0	10000	1	1	0	1	0
74	690	0	10000	1	1	0	1	0
73	691	0	10000	1	1	0	1	0
71	692	0	10000	1	1	0	1	0
71	693	0	10000	1	1	0	1	0
69	694	0	10000	1	1	0	1	0
70	695	0	10000	1	1	0	1	0
68	696	0	10000	1	1	0	1	0
65	697	0	10000	1	1	0	1	0
63	698	0	10000	1	1	0	1	0
62	699	0	10000	1	1	0	1	0
61	700	0	10000	1	1	0	1	0
61	701	0	10000	1	1	0	1	0
62	702	0	10000	1	1	0	1	0
60	703	0	10000	1	1	0	1	0
60	704	0	10000	1	1	0	1	0
60	705	0	10000	1	1	0	1	0
59	706	0	10000	1	1	0	1	0
60	707	0	10000	1	1	0	1	0
58	708	0	10000	1	1	0	1	0
57	709	0	10000	1	1	0	1	0
56	710	0	10000	1	1	0	1	0
55	711	0	10000	1	1	0	1	0
56	712	0	10000	1	1	0	1	0
55	713	0	10000	1	1	0	1	0
54	714	0	10000	1	1	0	1	0
56	715	0	10000	1	1	0	1	0
54	716	0	10000	1	1	0	1	0
50	717	0	10000	1	1	0	1	0
50	718	0	10000	1	1	0	1	0
50	719	0	10000	1	1	0	1	0
49	720	0	10000	1	1	0	1	0
47	721	0	10000	1	1	0	1	0
46	722	0	10000	1	1	0	1	0
48	723	0	10000	1	1	0	1	0
46	724	0	10000	1	1	0	1	0
44	725	0	10000	1	1	0	1	0
43	726	0	10000	1	1	0	1	0
47	727	0	10000	1	1	0	1	0
45	728	0	10000	1	1	0	1	0
44	729	0	10000	1	1	0	1	0
42	730	0	10000	1	1	0	1	0
45	731	0	10000	1	1	0	1	0
43	732	0	10000	1	1	0	1	0
41	733	0	10000	1	1	0	1	0
41	734	0	10000	1	1	0	1	0
42	735	0	10000	1	1	0	1	0
41	736	0	10000	1	1	0	1	0
38	737	0	10000	1	1	0	1	0
37	738	0	10000	1	1	0	1	0
39	739	0	10000	1	1	0	1	0
39	740	0	10000	1	1	0	1	0
38	741	0	10000	1	1	0	1	0
38	742	0	10000	1	1	0	1	0
41	743	0	10000	1	1	0	1	0
39	744	0	10000	1	1	0	1	0
37	745	0	10000	1	1	0	1	0
38	746	0	10000	1	1	0	1	0
40	747	0	10000	1	1	0	1	0
38	748	0	10000	1	1	0	1	0
38	749	0	10000	1	1	0	1	0
36	750	0	10000	1	1	0	1	0
37	751	0	10000	1	1	0	1	0
37	752	0	10000	1	1	0	1	0
35	753	0	10000	1	1	0	1	0
36	754	0	10000	1	1	0	1	0
38	755	0	10000	1	1	0	1	0
37	756	0	10000	1	1	0	1	0
34	757	0	10000	1	1	0	1	0
35	758	0	10000	1	1	0	1	0
36	759	0	10000	1	1	0	1	0
36	760	0	10000	1	1	0	1	0
36	761	0	10000	1	1	0	1	0
38	762	0	10000	1	1	0	1	0
38	763	0	10000	1	1	0	1	0
36	764	0	10000	1	1	0	1	0
35	765	0	10000	1	1	0	1	0
36	766	0	10000	1	1	0	1	0
38	767	0	10000	1	1	0	1	0
37	768	0	10000	1	1	0	1	0
35	769	0	10000	1	1	0	1	0
36	770	0	10000	1	1	0	1	0
36	771	0	10000	1	1	0	1	0
35	772	0	10000	1	1	0	1	0
35	773	0	10000	1	1	0	1	0
35	774	0	10000	1	1	0	1	0
35	775	0	10000	1	1	0	1	0
33	776	0	10000	1	1	0	1	0
31	777	0	10000	1	1	0	1	0
32	778	0	10000	1	1	0	1	0
33	779	0	10000	1	1	0	1	0
33	780	0	10000	1	1	0	1	0
32	781	0	10000	1	1	0	1	0
32	782	0	10000	1	1	0	1	0
33	783	0	10000	1	1	0	1	0
31	784	0	10000	1	1	0	1	0
31	785	0	10000	1	1	0	1	0
34	786	0	10000	1	1	0	1	0
34	787	0	10000	1	1	0	1	0
33	788	0	10000	1	1	0	1	0
32	789	0	10000	1	1	0	1	0
33	790	0	10000	1	1	0	1	0
33	791	0	10000	1	1	0	1	0
33	792	0	10000	1	1	0	1	0
32	793	0	10000	1	1	0	1	0
33	794	0	10000	1	1	0	1	0
34	795	0	10000	1	1	0	1	0
32	796	0	10000	1	1	0	1	0
30	797	0	10000	1	1	0	1	0
31	798	0	10000	1	1	0	1	0
31	799	0	10000	1	1	0	1	0
32	800	0	10000	1	1	0	1	0
31	801	0	10000	1	1	0	1	0
31	802	0	10000	1	1	0	1	0
31	803	0	10000	1	1	0	1	0
31	804	0	10000	1	1	0	1	0
32	805	0	10000	1	1	0	1	0
32	806	0	10000	1	1	0	1	0
32	807	0	10000	1	1	0	1	0
31	808	0	10000	1	1	0	1	0
32	809	0	10000	1	1	0	1	0
32	810	0	10000	1	1	0	1	0
32	811	0	10000	1	1	0	1	0
31	812	0	10000	1	1	0	1	0
31	813	0	10000	1	1	0	1	0
32	814	0	10000	1	1	0	1	0
35	815	0	10000	1	1	0	1	0
34	816	0	10000	1	1	0	1	0
34	817	0	10000	1	1	0	1	0
34	818	0	10000	1	1	0	1	0
33	819	0	10000	1	1	0	1	0
33	820	0	10000	1	1	0	1	0
33	821	0	10000	1	1	0	1	0
33	822	0	10000	1	1	0	1	0
34	823	0	10000	1	1	0	1	0
32	824	0	10000	1	1	0	1	0
33	825	0	10000	1	1	0	1	0
35	826	0	10000	1	1	0	1	0
36	827	0	10000	1	1	0	1	0
37	828	0	10000	1	1	0	1	0
37	829	0	10000	1	1	0	1	0
37	830	0	10000	1	1	0	1	0
37	831	0	10000	1	1	0	1	0
37	832	0	10000	1	1	0	1	0
38	833	0	10000	1	1	0	1	0
38	834	0	10000	1	1	0	1	0
37	835	0	10000	1	1	0	1	0
36	836	0	10000	1	1	0	1	0
37	837	0	10000	1	1	0	1	0
37	838	0	10000	1	1	0	1	0
37	839	0	10000	1	1	0	1	0
37	840	0	10000	1	1	0	1	0
38	841	0	10000	1	1	0	1	0
37	842	0	10000	1	1	0	1	0
36	843	0	10000	1	1	0	1	0
35	844	0	10000	1	1	0	1	0
35	845	0	10000	1	1	0	1	0
36	846	0	10000	1	1	0	1	0
37	847	0	10000	1	1	0	1	0
36	848	0	10000	1	1	0	1	0
38	849	0	10000	1	1	0	1	0
37	850	0	10000	1	1	0	1	0
37	851	0	10000	1	1	0	1	0
37	852	0	10000	1	1	0	1	0
38	853	0	10000	1	1	0	1	0
37	854	0	10000	1	1	0	1	0
36	855	0	10000	1	1	0	1	0
35	856	0	10000	1	1	0	1	0
35	857	0	10000	1	1	0	1	0
37	858	0	10000	1	1	0	1	0
40	859	0	10000	1	1	0	1	0
41	860	0	10000	1	1	0	1	0
40	861	0	10000	1	1	0	1	0
40	862	0	10000	1	1	0	1	0
39	863	0	10000	1	1	0	1	0
39	864	0	10000	1	1	0	1	0
40	865	0	10000	1	1	0	1	0
39	866	0	10000	1	1	0	1	0
39	867	0	10000	1	1	0	1	0
38	868	0	10000	1	1	0	1	0
38	869	0	10000	1	1	0	1	0
39	870	0	10000	1	1	0	1	0
39	871	0	10000	1	1	0	1	0
39	872	0	10000	1	1	0	1	0
39	873	0	10000	1	1	0	1	0
38	874	0	10000	1	1	0	1	0
37	875	0	10000	1	1	0	1	0
38	876	0	10000	1	1	0	1	0
36	877	0	10000	1	1	0	1	0
36	878	0	10000	1	1	0	1	0
36	879	0	10000	1	1	0	1	0
36	880	0	10000	1	1	0	1	0
36	881	0	10000	1	1	0	1	0
35	882	0	10000	1	1	0	1	0
34	883	0	10000	1	1	0	1	0
34	884	0	10000	1	1	0	1	0
34	885	0	10000	1	1	0	1	0
35	886	0	10000	1	1	0	1	0
38	887	0	10000	1	1	0	1	0
38	888	0	10000	1	1	0	1	0
37	889	0	10000	1	1	0	1	0
36	890	0	10000	1	1	0	1	0
37	891	0	10000	1	1	0	1	0
36	892	0	10000	1	1	0	1	0
36	893	0	10000	1	1	0	1	0
36	894	0	10000	1	1	0	1	0
34	895	0	10000	1	1	0	1	0
34	896	0	10000	1	1	0	1	0
34	897	0	10000	1	1	0	1	0
33	898	0	10000	1	1	0	1	0
32	899	0	10000	1	1	0	1	0
38	900	0	10000	1	1	0	1	0
37	901	0	10000	1	1	0	1	0
36	902	0	10000	1	1	0	1	0
36	903	0	10000	1	1	0	1	0
38	904	0	10000	1	1	0	1	0
37	905	0	10000	1	1	0	1	0
37	906	0	10000	1	1	0	1	0
39	907	0	10000	1	1	0	1	0
40	908	0	10000	1	1	0	1	0
39	909	0	10000	1	1	0	1	0
38	910	0	10000	1	1	0	1	0
37	911	0	10000	1	1	0	1	0
37	912	0	10000	1	1	0	1	0
39	913	0	10000	1	1	0	1	0
41	914	0	10000	1	1	0	1	0
41	915	0	10000	1	1	0	1	0
41	916	0	10000	1	1	0	1	0
39	917	0	10000	1	1	0	1	0
39	918	0	10000	1	1	0	1	0
40	919	0	10000	1	1	0	1	0
42	920	0	10000	1	1	0	1	0
40	921	0	10000	1	1	0	1	0
39	922	0	10000	1	1	0	1	0
39	923	0	10000	1	1	0	1	0
38	924	0	10000	1	1	0	1	0
36	925	0	10000	1	1	0	1	0
36	926	0	10000	1	1	0	1	0
39	927	0	10000	1	1	0	1	0
39	928	0	10000	1	1	0	1	0
38	929	0	10000	1	1	0	1	0
38	930	0	10000	1	1	0	1	0
39	931	0	10000	1	1	0	1	0
38	932	0	10000	1	1	0	1	0
37	933	0	10000	1	1	0	1	0
37	934	0	10000	1	1	0	1	0
38	935	0	10000	1	1	0	1	0
37	936	0	10000	1	1	0	1	0
34	937	0	10000	1	1	0	1	0
33	938	0	10000	1	1	0	1	0
34	939	0	10000	1	1	0	1	0
34	940	0	10000	1	1	0	1	0
33	941	0	10000	1	1	0	1	0
33	942	0	10000	1	1	0	1	0
33	943	0	10000	1	1	0	1	0
33	944	0	10000	1	1	0	1	0
33	945	0	10000	1	1	0	1	0
35	946	0	10000	1	1	0	1	0
36	947	0	10000	1	1	0	1	0
36	948	0	10000	1	1	0	1	0
36	949	0	10000	1	1	0	1	0
35	950	0	10000	1	1	0	1	0
37	951	0	10000	1	1	0	1	0
35	952	0	10000	1	1	0	1	0
35	953	0	10000	1	1	0	1	0
35	954	0	10000	1	1	0	1	0
38	955	0	10000	1	1	0	1	0
36	956	0	10000	1	1	0	1	0
34	957	0	10000	1	1	0	1	0
34	958	0	10000	1	1	0	1	0
38	959	0	10000	1	1	0	1	0
39	960	0	10000	1	1	0	1	0
39	961	0	10000	1	1	0	1	0
38	962	0	10000	1	1	0	1	0
39	963	0	10000	1	1	0	1	0
37	964	0	10000	1	1	0	1	0
36	965	0	10000	1	1	0	1	0
37	966	0	10000	1	1	0	1	0
42	967	0	10000	1	1	0	1	0
44	968	0	10000	1	1	0	1	0
45	969	0	10000	1	1	0	1	0
44	970	0	10000	1	1	0	1	0
45	971	0	10000	1	1	0	1	0
47	972	0	10000	1	1	0	1	0
50	973	0	10000	1	1	0	1	0
52	974	0	10000	1	1	0	1	0
51	975	0	10000	1	1	0	1	0
49	976	0	10000	1	1	0	1	0
47	977	0	10000	1	1	0	1	0
47	978	0	10000	1	1	0	1	0
47	979	0	10000	1	1	0	1	0
47	980	0	10000	1	1	0	1	0
46	981	0	10000	1	1	0	1	0
49	982	0	10000	1	1	0	1	0
54	983	0	10000	1	1	0	1	0
57	984	0	10000	1	1	0	1	0
59	985	0	10000	1	1	0	1	0
63	986	0	10000	1	1	0	1	0
64	987	0	10000	1	1	0	1	0
61	988	0	10000	1	1	0	1	0
60	989	0	10000	1	1	0	1	0
59	990	0	10000	1	1	0	1	0
58	991	0	10000	1	1	0	1	0
56	992	0	10000	1	1	0	1	0
55	993	0	10000	1	1	0	1	0
58	994	0	10000	1	1	0	1	0
60	995	0	10000	1	1	0	1	0
60	996	0	10000	1	1	0	1	0
58	997	0	10000	1	1	0	1	0
61	998	0	10000	1	1	0	1	0
60	999	0	10000	1	1	0	1	0
58	1000	0	10000	1	1	0	1	0
56	1001	0	10000	1	1	0	1	0
64	2	7	10000	2	1	0	2	0
65	3	7	10000	2	1	0	2	0
68	4	7	10000	2	1	0	2	0
66	5	7	10000	2	1	0	2	0
64	6	7	10000	2	1	0	2	0
63	7	7	10000	2	1	0	2	0
62	8	7	10000	2	1	0	2	0
64	9	7	10000	2	1	0	2	0
62	10	7	10000	2	1	0	2	0
59	11	7	10000	2	1	0	2	0
57	12	7	10000	2	1	0	2	0
56	13	7	10000	2	1	0	2	0
57	14	7	10000	2	1	0	2	0
58	15	7	10000	2	1	0	2	0
58	16	7	10000	2	1	0	2	0
58	17	7	10000	2	1	0	2	0
57	18	7	10000	2	1	0	2	0
55	19	7	10000	2	1	0	2	0
55	20	7	10000	2	1	0	2	0
54	21	7	10000	2	1	0	2	0
54	22	7	10000	2	1	0	2	0
52	23	7	10000	2	1	0	2	0
54	24	7	10000	2	1	0	2	0
53	25	7	10000	2	1	0	2	0
50	26	7	10000	2	1	0	2	0
48	27	7	10000	2	1	0	2	0
48	28	7	10000	2	1	0	2	0
50	29	7	10000	2	1	0	2	0
47	30	7	10000	2	1	0	2	0
47	31	7	10000	2	1	0	2	0
47	32	7	10000	2	1	0	2	0
46	33	7	10000	2	1	0	2	0
44	34	7	10000	2	1	0	2	0
45	35	7	10000	2	1	0	2	0
45	36	7	10000	2	1	0	2	0
44	37	7	10000	2	1	0	2	0
43	38	7	10000	2	1	0	2	0
41	39	7	10000	2	1	0	2	0
41	40	7	10000	2	1	0	2	0
42	41	7	10000	2	1	0	2	0
41	42	7	10000	2	1	0	2	0
44	43	7	10000	2	1	0	2	0
43	44	7	10000	2	1	0	2	0
43	45	7	10000	2	1	0	2	0
44	46	7	10000	2	1	0	2	0
45	47	7	10000	2	1	0	2	0
44	48	7	10000	2	1	0	2	0
45	49	7	10000	2	1	0	2	0
46	50	7	10000	2	1	0	2	0
46	51	7	10000	2	1	0	2	0
44	52	7	10000	2	1	0	2	0
43	53	7	10000	2	1	0	2	0
43	54	7	10000	2	1	0	2	0
42	55	7	10000	2	1	0	2	0
42	56	7	10000	2	1	0	2	0
39	57	7	10000	2	1	0	2	0
42	58	7	10000	2	1	0	2	0
40	59	7	10000	2	1	0	2	0
38	60	7	10000	2	1	0	2	0
37	61	7	10000	2	1	0	2	0
39	62	7	10000	2	1	0	2	0
38	63	7	10000	2	1	0	2	0
37	64	7	10000	2	1	0	2	0
37	65	7	10000	2	1	0	2	0
36	66	7	10000	2	1	0	2	0
36	67	7	10000	2	1	0	2	0
35	68	7	10000	2	1	0	2	0
38	69	7	10000	2	1	0	2	0
38	70	7	10000	2	1	0	2	0
36	71	7	10000	2	1	0	2	0
34	72	7	10000	2	1	0	2	0
35	73	7	10000	2	1	0	2	0
35	74	7	10000	2	1	0	2	0
35	75	7	10000	2	1	0	2	0
35	76	7	10000	2	1	0	2	0
36	77	7	10000	2	1	0	2	0
37	78	7	10000	2	1	0	2	0
36	79	7	10000	2	1	0	2	0
37	80	7	10000	2	1	0	2	0
37	81	7	10000	2	1	0	2	0
37	82	7	10000	2	1	0	2	0
35	83	7	10000	2	1	0	2	0
38	84	7	10000	2	1	0	2	0
40	85	7	10000	2	1	0	2	0
39	86	7	10000	2	1	0	2	0
38	87	7	10000	2	1	0	2	0
41	88	7	10000	2	1	0	2	0
42	89	7	10000	2	1	0	2	0
40	90	7	10000	2	1	0	2	0
38	91	7	10000	2	1	0	2	0
39	92	7	10000	2	1	0	2	0
39	93	7	10000	2	1	0	2	0
37	94	7	10000	2	1	0	2	0
36	95	7	10000	2	1	0	2	0
39	96	7	10000	2	1	0	2	0
37	97	7	10000	2	1	0	2	0
36	98	7	10000	2	1	0	2	0
34	99	7	10000	2	1	0	2	0
35	100	7	10000	2	1	0	2	0
38	101	7	10000	2	1	0	2	0
39	102	7	10000	2	1	0	2	0
40	103	7	10000	2	1	0	2	0
39	104	7	10000	2	1	0	2	0
38	105	7	10000	2	1	0	2	0
37	106	7	10000	2	1	0	2	0
40	107	7	10000	2	1	0	2	0
38	108	7	10000	2	1	0	2	0
39	109	7	10000	2	1	0	2	0
38	110	7	10000	2	1	0	2	0
38	111	7	10000	2	1	0	2	0
38	112	7	10000	2	1	0	2	0
37	113	7	10000	2	1	0	2	0
38	114	7	10000	2	1	0	2	0
38	115	7	10000	2	1	0	2	0
39	116	7	10000	2	1	0	2	0
40	117	7	10000	2	1	0	2	0
40	118	7	10000	2	1	0	2	0
39	119	7	10000	2	1	0	2	0
38	120	7	10000	2	1	0	2	0
37	121	7	10000	2	1	0	2	0
40	122	7	10000	2	1	0	2	0
39	123	7	10000	2	1	0	2	0
37	124	7	10000	2	1	0	2	0
36	125	7	10000	2	1	0	2	0
37	126	7	10000	2	1	0	2	0
35	127	7	10000	2	1	0	2	0
33	128	7	10000	2	1	0	2	0
36	129	7	10000	2	1	0	2	0
36	130	7	10000	2	1	0	2	0
34	131	7	10000	2	1	0	2	0
33	132	7	10000	2	1	0	2	0
34	133	7	10000	2	1	0	2	0
34	134	7	10000	2	1	0	2	0
33	135	7	10000	2	1	0	2	0
32	136	7	10000	2	1	0	2	0
35	137	7	10000	2	1	0	2	0
35	138	7	10000	2	1	0	2	0
32	139	7	10000	2	1	0	2	0
32	140	7	10000	2	1	0	2	0
33	141	7	10000	2	1	0	2	0
32	142	7	10000	2	1	0	2	0
32	143	7	10000	2	1	0	2	0
32	144	7	10000	2	1	0	2	0
32	145	7	10000	2	1	0	2	0
32	146	7	10000	2	1	0	2	0
32	147	7	10000	2	1	0	2	0
33	148	7	10000	2	1	0	2	0
35	149	7	10000	2	1	0	2	0
34	150	7	10000	2	1	0	2	0
32	151	7	10000	2	1	0	2	0
34	152	7	10000	2	1	0	2	0
33	153	7	10000	2	1	0	2	0
33	154	7	10000	2	1	0	2	0
32	155	7	10000	2	1	0	2	0
33	156	7	10000	2	1	0	2	0
34	157	7	10000	2	1	0	2	0
34	158	7	10000	2	1	0	2	0
32	159	7	10000	2	1	0	2	0
32	160	7	10000	2	1	0	2	0
33	161	7	10000	2	1	0	2	0
32	162	7	10000	2	1	0	2	0
31	163	7	10000	2	1	0	2	0
32	164	7	10000	2	1	0	2	0
32	165	7	10000	2	1	0	2	0
31	166	7	10000	2	1	0	2	0
32	167	7	10000	2	1	0	2	0
32	168	7	10000	2	1	0	2	0
34	169	7	10000	2	1	0	2	0
34	170	7	10000	2	1	0	2	0
34	171	7	10000	2	1	0	2	0
36	172	7	10000	2	1	0	2	0
37	173	7	10000	2	1	0	2	0
37	174	7	10000	2	1	0	2	0
36	175	7	10000	2	1	0	2	0
37	176	7	10000	2	1	0	2	0
36	177	7	10000	2	1	0	2	0
38	178	7	10000	2	1	0	2	0
36	179	7	10000	2	1	0	2	0
35	180	7	10000	2	1	0	2	0
35	181	7	10000	2	1	0	2	0
37	182	7	10000	2	1	0	2	0
37	183	7	10000	2	1	0	2	0
36	184	7	10000	2	1	0	2	0
36	185	7	10000	2	1	0	2	0
36	186	7	10000	2	1	0	2	0
34	187	7	10000	2	1	0	2	0
33	188	7	10000	2	1	0	2	0
36	189	7	10000	2	1	0	2	0
36	190	7	10000	2	1	0	2	0
36	191	7	10000	2	1	0	2	0
35	192	7	10000	2	1	0	2	0
35	193	7	10000	2	1	0	2	0
34	194	7	10000	2	1	0	2	0
33	195	7	10000	2	1	0	2	0
33	196	7	10000	2	1	0	2	0
34	197	7	10000	2	1	0	2	0
35	198	7	10000	2	1	0	2	0
32	199	7	10000	2	1	0	2	0
32	200	7	10000	2	1	0	2	0
33	201	7	10000	2	1	0	2	0
34	202	7	10000	2	1	0	2	0
33	203	7	10000	2	1	0	2	0
34	204	7	10000	2	1	0	2	0
34	205	7	10000	2	1	0	2	0
32	206	7	10000	2	1	0	2	0
32	207	7	10000	2	1	0	2	0
33	208	7	10000	2	1	0	2	0
34	209	7	10000	2	1	0	2	0
33	210	7	10000	2	1	0	2	0
32	211	7	10000	2	1	0	2	0
33	212	7	10000	2	1	0	2	0
32	213	7	10000	2	1	0	2	0
31	214	7	10000	2	1	0	2	0
31	215	7	10000	2	1	0	2	0
32	216	7	10000	2	1	0	2	0
32	217	7	10000	2	1	0	2	0
32	218	7	10000	2	1	0	2	0
30	219	7	10000	2	1	0	2	0
31	220	7	10000	2	1	0	2	0
31	221	7	10000	2	1	0	2	0
32	222	7	10000	2	1	0	2	0
33	223	7	10000	2	1	0	2	0
32	224	7	10000	2	1	0	2	0
32	225	7	10000	2	1	0	2	0
31	226	7	10000	2	1	0	2	0
32	227	7	10000	2	1	0	2	0
30	228	7	10000	2	1	0	2	0
32	229	7	10000	2	1	0	2	0
31	230	7	10000	2	1	0	2	0
31	231	7	10000	2	1	0	2	0
33	232	7	10000	2	1	0	2	0
33	233	7	10000	2	1	0	2	0
33	234	7	10000	2	1	0	2	0
33	235	7	10000	2	1	0	2	0
33	236	7	10000	2	1	0	2	0
32	237	7	10000	2	1	0	2	0
34	238	7	10000	2	1	0	2	0
32	239	7	10000	2	1	0	2	0
31	240	7	10000	2	1	0	2	0
31	241	7	10000	2	1	0	2	0
32	242	7	10000	2	1	0	2	0
32	243	7	10000	2	1	0	2	0
32	244	7	10000	2	1	0	2	0
33	245	7	10000	2	1	0	2	0
33	246	7	10000	2	1	0	2	0
32	247	7	10000	2	1	0	2	0
32	248	7	10000	2	1	0	2	0
33	249	7	10000	2	1	0	2	0
33	250	7	10000	2	1	0	2	0
32	251	7	10000	2	1	0	2	0
32	252	7	10000	2	1	0	2	0
33	253	7	10000	2	1	0	2	0
33	254	7	10000	2	1	0	2	0
31	255	7	10000	2	1	0	2	0
31	256	7	10000	2	1	0	2	0
34	257	7	10000	2	1	0	2	0
33	258	7	10000	2	1	0	2	0
31	259	7	10000	2	1	0	2	0
30	260	7	10000	2	1	0	2	0
31	261	7	10000	2	1	0	2	0
32	262	7	10000	2	1	0	2	0
32	263	7	10000	2	1	0	2	0
32	264	7	10000	2	1	0	2	0
32	265	7	10000	2	1	0	2	0
32	266	7	10000	2	1	0	2	0
31	267	7	10000	2	1	0	2	0
32	268	7	10000	2	1	0	2	0
34	269	7	10000	2	1	0	2	0
33	270	7	10000	2	1	0	2	0
32	271	7	10000	2	1	0	2	0
33	272	7	10000	2	1	0	2	0
32	273	7	10000	2	1	0	2	0
32	274	7	10000	2	1	0	2	0
32	275	7	10000	2	1	0	2	0
32	276	7	10000	2	1	0	2	0
34	277	7	10000	2	1	0	2	0
33	278	7	10000	2	1	0	2	0
31	279	7	10000	2	1	0	2	0
32	280	7	10000	2	1	0	2	0
32	281	7	10000	2	1	0	2	0
32	282	7	10000	2	1	0	2	0
32	283	7	10000	2	1	0	2	0
32	284	7	10000	2	1	0	2	0
34	285	7	10000	2	1	0	2	0
33	286	7	10000	2	1	0	2	0
33	287	7	10000	2	1	0	2	0
33	288	7	10000	2	1	0	2	0
36	289	7	10000	2	1	0	2	0
36	290	7	10000	2	1	0	2	0
35	291	7	10000	2	1	0	2	0
38	292	7	10000	2	1	0	2	0
44	293	7	10000	2	1	0	2	0
50	294	7	10000	2	1	0	2	0
55	295	7	10000	2	1	0	2	0
61	296	7	10000	2	1	0	2	0
65	297	7	10000	2	1	0	2	0
64	298	7	10000	2	1	0	2	0
61	299	7	10000	2	1	0	2	0
64	300	7	10000	2	1	0	2	0
67	301	7	10000	2	1	0	2	0
68	302	7	10000	2	1	0	2	0
73	303	7	10000	2	1	0	2	0
77	304	7	10000	2	1	0	2	0
82	305	7	10000	2	1	0	2	0
85	306	7	10000	2	1	0	2	0
92	307	7	10000	2	1	0	2	0
95	308	7	10000	2	1	0	2	0
97	309	7	10000	2	1	0	2	0
93	310	7	10000	2	1	0	2	0
91	311	7	10000	2	1	0	2	0
91	312	7	10000	2	1	0	2	0
90	313	7	10000	2	1	0	2	0
90	314	7	10000	2	1	0	2	0
90	315	7	10000	2	1	0	2	0
89	316	7	10000	2	1	0	2	0
86	317	7	10000	2	1	0	2	0
86	318	7	10000	2	1	0	2	0
84	319	7	10000	2	1	0	2	0
83	320	7	10000	2	1	0	2	0
81	321	7	10000	2	1	0	2	0
80	322	7	10000	2	1	0	2	0
78	323	7	10000	2	1	0	2	0
76	324	7	10000	2	1	0	2	0
75	325	7	10000	2	1	0	2	0
72	326	7	10000	2	1	0	2	0
68	327	7	10000	2	1	0	2	0
70	328	7	10000	2	1	0	2	0
73	329	7	10000	2	1	0	2	0
74	330	7	10000	2	1	0	2	0
77	331	7	10000	2	1	0	2	0
80	332	7	10000	2	1	0	2	0
80	333	7	10000	2	1	0	2	0
81	334	7	10000	2	1	0	2	0
81	335	7	10000	2	1	0	2	0
86	336	7	10000	2	1	0	2	0
87	337	7	10000	2	1	0	2	0
87	338	7	10000	2	1	0	2	0
86	339	7	10000	2	1	0	2	0
91	340	7	10000	2	1	0	2	0
91	341	7	10000	2	1	0	2	0
92	342	7	10000	2	1	0	2	0
93	343	7	10000	2	1	0	2	0
94	344	7	10000	2	1	0	2	0
93	345	7	10000	2	1	0	2	0
91	346	7	10000	2	1	0	2	0
94	347	7	10000	2	1	0	2	0
95	348	7	10000	2	1	0	2	0
97	349	7	10000	2	1	0	2	0
98	350	7	10000	2	1	0	2	0
101	351	7	10000	2	1	0	2	0
99	352	7	10000	2	1	0	2	0
99	353	7	10000	2	1	0	2	0
98	354	7	10000	2	1	0	2	0
102	355	7	10000	2	1	0	2	0
103	356	7	10000	2	1	0	2	0
103	357	7	10000	2	1	0	2	0
103	358	7	10000	2	1	0	2	0
102	359	7	10000	2	1	0	2	0
100	360	7	10000	2	1	0	2	0
99	361	7	10000	2	1	0	2	0
99	362	7	10000	2	1	0	2	0
97	363	7	10000	2	1	0	2	0
94	364	7	10000	2	1	0	2	0
93	365	7	10000	2	1	0	2	0
93	366	7	10000	2	1	0	2	0
90	367	7	10000	2	1	0	2	0
86	368	7	10000	2	1	0	2	0
84	369	7	10000	2	1	0	2	0
83	370	7	10000	2	1	0	2	0
80	371	7	10000	2	1	0	2	0
76	372	7	10000	2	1	0	2	0
74	373	7	10000	2	1	0	2	0
77	374	7	10000	2	1	0	2	0
75	375	7	10000	2	1	0	2	0
76	376	7	10000	2	1	0	2	0
78	377	7	10000	2	1	0	2	0
79	378	7	10000	2	1	0	2	0
74	379	7	10000	2	1	0	2	0
72	380	7	10000	2	1	0	2	0
71	381	7	10000	2	1	0	2	0
70	382	7	10000	2	1	0	2	0
68	383	7	10000	2	1	0	2	0
68	384	7	10000	2	1	0	2	0
66	385	7	10000	2	1	0	2	0
64	386	7	10000	2	1	0	2	0
61	387	7	10000	2	1	0	2	0
58	388	7	10000	2	1	0	2	0
63	389	7	10000	2	1	0	2	0
60	390	7	10000	2	1	0	2	0
58	391	7	10000	2	1	0	2	0
56	392	7	10000	2	1	0	2	0
56	393	7	10000	2	1	0	2	0
54	394	7	10000	2	1	0	2	0
52	395	7	10000	2	1	0	2	0
52	396	7	10000	2	1	0	2	0
51	397	7	10000	2	1	0	2	0
50	398	7	10000	2	1	0	2	0
47	399	7	10000	2	1	0	2	0
46	400	7	10000	2	1	0	2	0
48	401	7	10000	2	1	0	2	0
49	402	7	10000	2	1	0	2	0
47	403	7	10000	2	1	0	2	0
48	404	7	10000	2	1	0	2	0
47	405	7	10000	2	1	0	2	0
44	406	7	10000	2	1	0	2	0
44	407	7	10000	2	1	0	2	0
45	408	7	10000	2	1	0	2	0
45	409	7	10000	2	1	0	2	0
44	410	7	10000	2	1	0	2	0
43	411	7	10000	2	1	0	2	0
44	412	7	10000	2	1	0	2	0
46	413	7	10000	2	1	0	2	0
46	414	7	10000	2	1	0	2	0
45	415	7	10000	2	1	0	2	0
46	416	7	10000	2	1	0	2	0
44	417	7	10000	2	1	0	2	0
43	418	7	10000	2	1	0	2	0
42	419	7	10000	2	1	0	2	0
41	420	7	10000	2	1	0	2	0
39	421	7	10000	2	1	0	2	0
39	422	7	10000	2	1	0	2	0
41	423	7	10000	2	1	0	2	0
39	424	7	10000	2	1	0	2	0
38	425	7	10000	2	1	0	2	0
37	426	7	10000	2	1	0	2	0
38	427	7	10000	2	1	0	2	0
39	428	7	10000	2	1	0	2	0
42	429	7	10000	2	1	0	2	0
42	430	7	10000	2	1	0	2	0
41	431	7	10000	2	1	0	2	0
41	432	7	10000	2	1	0	2	0
41	433	7	10000	2	1	0	2	0
41	434	7	10000	2	1	0	2	0
39	435	7	10000	2	1	0	2	0
40	436	7	10000	2	1	0	2	0
40	437	7	10000	2	1	0	2	0
40	438	7	10000	2	1	0	2	0
39	439	7	10000	2	1	0	2	0
39	440	7	10000	2	1	0	2	0
39	441	7	10000	2	1	0	2	0
40	442	7	10000	2	1	0	2	0
40	443	7	10000	2	1	0	2	0
40	444	7	10000	2	1	0	2	0
41	445	7	10000	2	1	0	2	0
39	446	7	10000	2	1	0	2	0
38	447	7	10000	2	1	0	2	0
37	448	7	10000	2	1	0	2	0
39	449	7	10000	2	1	0	2	0
40	450	7	10000	2	1	0	2	0
40	451	7	10000	2	1	0	2	0
42	452	7	10000	2	1	0	2	0
41	453	7	10000	2	1	0	2	0
43	454	7	10000	2	1	0	2	0
44	455	7	10000	2	1	0	2	0
44	456	7	10000	2	1	0	2	0
44	457	7	10000	2	1	0	2	0
44	458	7	10000	2	1	0	2	0
41	459	7	10000	2	1	0	2	0
43	460	7	10000	2	1	0	2	0
44	461	7	10000	2	1	0	2	0
43	462	7	10000	2	1	0	2	0
40	463	7	10000	2	1	0	2	0
42	464	7	10000	2	1	0	2	0
41	465	7	10000	2	1	0	2	0
40	466	7	10000	2	1	0	2	0
40	467	7	10000	2	1	0	2	0
41	468	7	10000	2	1	0	2	0
42	469	7	10000	2	1	0	2	0
40	470	7	10000	2	1	0	2	0
38	471	7	10000	2	1	0	2	0
39	472	7	10000	2	1	0	2	0
40	473	7	10000	2	1	0	2	0
40	474	7	10000	2	1	0	2	0
40	475	7	10000	2	1	0	2	0
41	476	7	10000	2	1	0	2	0
42	477	7	10000	2	1	0	2	0
42	478	7	10000	2	1	0	2	0
41	479	7	10000	2	1	0	2	0
41	480	7	10000	2	1	0	2	0
43	481	7	10000	2	1	0	2	0
43	482	7	10000	2	1	0	2	0
43	483	7	10000	2	1	0	2	0
46	484	7	10000	2	1	0	2	0
50	485	7	10000	2	1	0	2	0
52	486	7	10000	2	1	0	2	0
51	487	7	10000	2	1	0	2	0
50	488	7	10000	2	1	0	2	0
54	489	7	10000	2	1	0	2	0
55	490	7	10000	2	1	0	2	0
59	491	7	10000	2	1	0	2	0
56	492	7	10000	2	1	0	2	0
54	493	7	10000	2	1	0	2	0
52	494	7	10000	2	1	0	2	0
51	495	7	10000	2	1	0	2	0
50	496	7	10000	2	1	0	2	0
48	497	7	10000	2	1	0	2	0
50	498	7	10000	2	1	0	2	0
47	499	7	10000	2	1	0	2	0
47	500	7	10000	2	1	0	2	0
47	501	7	10000	2	1	0	2	0
46	502	7	10000	2	1	0	2	1
47	503	7	10000	2	1	0	2	1
48	504	7	10000	2	1	0	2	1
48	505	7	10000	2	1	0	2	1
47	506	7	10000	2	1	0	2	1
47	507	7	10000	2	1	0	2	1
45	508	7	10000	2	1	0	2	1
46	509	7	10000	2	1	0	2	1
47	510	7	10000	2	1	0	2	1
44	511	7	10000	2	1	0	2	1
43	512	7	10000	2	1	0	2	1
43	513	7	10000	2	1	0	2	1
42	514	7	10000	2	1	0	2	1
41	515	7	10000	2	1	0	2	1
40	516	7	10000	2	1	0	2	1
41	517	7	10000	2	1	0	2	1
41	518	7	10000	2	1	0	2	1
38	519	7	10000	2	1	0	2	1
38	520	7	10000	2	1	0	2	1
39	521	7	10000	2	1	0	2	1
38	522	7	10000	2	1	0	2	1
37	523	7	10000	2	1	0	2	1
36	524	7	10000	2	1	0	2	1
37	525	7	10000	2	1	0	2	1
37	526	7	10000	2	1	0	2	1
37	527	7	10000	2	1	0	2	1
37	528	7	10000	2	1	0	2	1
39	529	7	10000	2	1	0	2	1
38	530	7	10000	2	1	0	2	1
37	531	7	10000	2	1	0	2	1
36	532	7	10000	2	1	0	2	1
38	533	7	10000	2	1	0	2	1
40	534	7	10000	2	1	0	2	1
39	535	7	10000	2	1	0	2	1
41	536	7	10000	2	1	0	2	1
40	537	7	10000	2	1	0	2	1
39	538	7	10000	2	1	0	2	1
35	539	7	10000	2	1	0	2	1
36	540	7	10000	2	1	0	2	1
40	541	7	10000	2	1	0	2	1
42	542	7	10000	2	1	0	2	1
42	543	7	10000	2	1	0	2	1
42	544	7	10000	2	1	0	2	1
41	545	7	10000	2	1	0	2	1
40	546	7	10000	2	1	0	2	1
43	547	7	10000	2	1	0	2	1
41	548	7	10000	2	1	0	2	1
42	549	7	10000	2	1	0	2	1
41	550	7	10000	2	1	0	2	1
43	551	7	10000	2	1	0	2	1
42	552	7	10000	2	1	0	2	0
41	553	7	10000	2	1	0	2	0
42	554	7	10000	2	1	0	2	0
41	555	7	10000	2	1	0	2	0
44	556	7	10000	2	1	0	2	0
45	557	7	10000	2	1	0	2	0
46	558	7	10000	2	1	0	2	0
43	559	7	10000	2	1	0	2	0
44	560	7	10000	2	1	0	2	0
43	561	7	10000	2	1	0	2	0
44	562	7	10000	2	1	0	2	0
44	563	7	10000	2	1	0	2	0
44	564	7	10000	2	1	0	2	0
46	565	7	10000	2	1	0	2	0
44	566	7	10000	2	1	0	2	0
46	567	7	10000	2	1	0	2	0
46	568	7	10000	2	1	0	2	0
51	569	7	10000	2	1	0	2	0
50	570	7	10000	2	1	0	2	0
54	571	7	10000	2	1	0	2	0
59	572	7	10000	2	1	0	2	0
61	573	7	10000	2	1	0	2	0
61	574	7	10000	2	1	0	2	0
67	575	7	10000	2	1	0	2	0
68	576	7	10000	2	1	0	2	0
68	577	7	10000	2	1	0	2	0
68	578	7	10000	2	1	0	2	0
64	579	7	10000	2	1	0	2	0
65	580	7	10000	2	1	0	2	0
68	581	7	10000	2	1	0	2	0
72	582	7	10000	2	1	0	2	0
75	583	7	10000	2	1	0	2	0
73	584	7	10000	2	1	0	2	0
76	585	7	10000	2	1	0	2	0
77	586	7	10000	2	1	0	2	0
76	587	7	10000	2	1	0	2	0
75	588	7	10000	2	1	0	2	0
78	589	7	10000	2	1	0	2	0
89	590	7	10000	2	1	0	2	0
99	591	7	10000	2	1	0	2	0
99	592	7	10000	2	1	0	2	0
101	593	7	10000	2	1	0	2	0
107	594	7	10000	2	1	0	2	0
113	595	7	10000	2	1	0	2	0
122	596	7	10000	2	1	0	2	0
126	597	7	10000	2	1	0	2	0
128	598	7	10000	2	1	0	2	0
125	599	7	10000	2	1	0	2	0
124	600	7	10000	2	1	0	2	0
121	601	7	10000	2	1	0	2	0
116	602	7	10000	2	1	0	2	0
121	603	7	10000	2	1	0	2	0
139	604	7	10000	2	1	0	2	0
166	605	7	10000	2	1	0	2	0
190	606	7	10000	2	1	0	2	0
189	607	7	10000	2	1	0	2	0
190	608	7	10000	2	1	0	2	0
203	609	7	10000	2	1	0	2	0
217	610	7	10000	2	1	0	2	0
220	611	7	10000	2	1	0	2	0
251	612	7	10000	2	1	0	2	0
261	613	7	10000	2	1	0	2	0
254	614	7	10000	2	1	0	2	0
259	615	7	10000	2	1	0	2	0
272	616	7	10000	2	1	0	2	0
286	617	7	10000	2	1	0	2	0
296	618	7	10000	2	1	0	2	0
292	619	7	10000	2	1	0	2	0
290	620	7	10000	2	1	0	2	0
283	621	7	10000	2	1	0	2	0
274	622	7	10000	2	1	0	2	0
262	623	7	10000	2	1	0	2	0
250	624	7	10000	2	1	0	2	0
240	625	7	10000	2	1	0	2	0
233	626	7	10000	2	1	0	2	0
226	627	7	10000	2	1	0	2	0
219	628	7	10000	2	1	0	2	0
216	629	7	10000	2	1	0	2	0
214	630	7	10000	2	1	0	2	0
211	631	7	10000	2	1	0	2	0
206	632	7	10000	2	1	0	2	0
202	633	7	10000	2	1	0	2	0
201	634	7	10000	2	1	0	2	0
192	635	7	10000	2	1	0	2	0
185	636	7	10000	2	1	0	2	0
178	637	7	10000	2	1	0	2	0
173	638	7	10000	2	1	0	2	0
164	639	7	10000	2	1	0	2	0
158	640	7	10000	2	1	0	2	0
153	641	7	10000	2	1	0	2	0
148	642	7	10000	2	1	0	2	0
143	643	7	10000	2	1	0	2	0
139	644	7	10000	2	1	0	2	0
133	645	7	10000	2	1	0	2	0
131	646	7	10000	2	1	0	2	0
127	647	7	10000	2	1	0	2	0
122	648	7	10000	2	1	0	2	0
121	649	7	10000	2	1	0	2	0
117	650	7	10000	2	1	0	2	0
115	651	7	10000	2	1	0	2	0
113	652	7	10000	2	1	0	2	0
108	653	7	10000	2	1	0	2	0
106	654	7	10000	2	1	0	2	0
103	655	7	10000	2	1	0	2	0
101	656	7	10000	2	1	0	2	0
98	657	7	10000	2	1	0	2	0
95	658	7	10000	2	1	0	2	0
89	659	7	10000	2	1	0	2	0
87	660	7	10000	2	1	0	2	0
85	661	7	10000	2	1	0	2	0
83	662	7	10000	2	1	0	2	0
80	663	7	10000	2	1	0	2	0
77	664	7	10000	2	1	0	2	0
80	665	7	10000	2	1	0	2	0
80	666	7	10000	2	1	0	2	0
78	667	7	10000	2	1	0	2	0
77	668	7	10000	2	1	0	2	0
80	669	7	10000	2	1	0	2	0
80	670	7	10000	2	1	0	2	0
78	671	7	10000	2	1	0	2	0
76	672	7	10000	2	1	0	2	0
73	673	7	10000	2	1	0	2	0
70	674	7	10000	2	1	0	2	0
70	675	7	10000	2	1	0	2	0
69	676	7	10000	2	1	0	2	0
67	677	7	10000	2	1	0	2	0
64	678	7	10000	2	1	0	2	0
63	679	7	10000	2	1	0	2	0
62	680	7	10000	2	1	0	2	0
59	681	7	10000	2	1	0	2	0
58	682	7	10000	2	1	0	2	0
60	683	7	10000	2	1	0	2	0
58	684	7	10000	2	1	0	2	0
58	685	7	10000	2	1	0	2	0
58	686	7	10000	2	1	0	2	0
57	687	7	10000	2	1	0	2	0
58	688	7	10000	2	1	0	2	0
59	689	7	10000	2	1	0	2	0
58	690	7	10000	2	1	0	2	0
58	691	7	10000	2	1	0	2	0
56	692	7	10000	2	1	0	2	0
54	693	7	10000	2	1	0	2	0
57	694	7	10000	2	1	0	2	0
56	695	7	10000	2	1	0	2	0
56	696	7	10000	2	1	0	2	0
55	697	7	10000	2	1	0	2	0
58	698	7	10000	2	1	0	2	0
55	699	7	10000	2	1	0	2	0
55	700	7	10000	2	1	0	2	0
54	701	7	10000	2	1	0	2	0
56	702	7	10000	2	1	0	2	0
54	703	7	10000	2	1	0	2	0
52	704	7	10000	2	1	0	2	0
52	705	7	10000	2	1	0	2	0
50	706	7	10000	2	1	0	2	0
47	707	7	10000	2	1	0	2	0
45	708	7	10000	2	1	0	2	0
48	709	7	10000	2	1	0	2	0
46	710	7	10000	2	1	0	2	0
45	711	7	10000	2	1	0	2	0
43	712	7	10000	2	1	0	2	0
44	713	7	10000	2	1	0	2	0
43	714	7	10000	2	1	0	2	0
40	715	7	10000	2	1	0	2	0
41	716	7	10000	2	1	0	2	0
42	717	7	10000	2	1	0	2	0
41	718	7	10000	2	1	0	2	0
38	719	7	10000	2	1	0	2	0
39	720	7	10000	2	1	0	2	0
39	721	7	10000	2	1	0	2	0
38	722	7	10000	2	1	0	2	0
37	723	7	10000	2	1	0	2	0
39	724	7	10000	2	1	0	2	0
38	725	7	10000	2	1	0	2	0
37	726	7	10000	2	1	0	2	0
36	727	7	10000	2	1	0	2	0
38	728	7	10000	2	1	0	2	0
39	729	7	10000	2	1	0	2	0
38	730	7	10000	2	1	0	2	0
37	731	7	10000	2	1	0	2	0
39	732	7	10000	2	1	0	2	0
37	733	7	10000	2	1	0	2	0
35	734	7	10000	2	1	0	2	0
36	735	7	10000	2	1	0	2	0
37	736	7	10000	2	1	0	2	0
35	737	7	10000	2	1	0	2	0
35	738	7	10000	2	1	0	2	0
34	739	7	10000	2	1	0	2	0
33	740	7	10000	2	1	0	2	0
33	741	7	10000	2	1	0	2	0
33	742	7	10000	2	1	0	2	0
34	743	7	10000	2	1	0	2	0
34	744	7	10000	2	1	0	2	0
33	745	7	10000	2	1	0	2	0
32	746	7	10000	2	1	0	2	0
32	747	7	10000	2	1	0	2	0
35	748	7	10000	2	1	0	2	0
35	749	7	10000	2	1	0	2	0
36	750	7	10000	2	1	0	2	0
37	751	7	10000	2	1	0	2	0
37	752	7	10000	2	1	0	2	0
39	753	7	10000	2	1	0	2	0
41	754	7	10000	2	1	0	2	0
38	755	7	10000	2	1	0	2	0
39	756	7	10000	2	1	0	2	0
40	757	7	10000	2	1	0	2	0
44	758	7	10000	2	1	0	2	0
41	759	7	10000	2	1	0	2	0
39	760	7	10000	2	1	0	2	0
39	761	7	10000	2	1	0	2	0
40	762	7	10000	2	1	0	2	0
39	763	7	10000	2	1	0	2	0
39	764	7	10000	2	1	0	2	0
40	765	7	10000	2	1	0	2	0
39	766	7	10000	2	1	0	2	0
38	767	7	10000	2	1	0	2	0
37	768	7	10000	2	1	0	2	0
38	769	7	10000	2	1	0	2	0
39	770	7	10000	2	1	0	2	0
37	771	7	10000	2	1	0	2	0
36	772	7	10000	2	1	0	2	0
37	773	7	10000	2	1	0	2	0
37	774	7	10000	2	1	0	2	0
36	775	7	10000	2	1	0	2	0
38	776	7	10000	2	1	0	2	0
38	777	7	10000	2	1	0	2	0
42	778	7	10000	2	1	0	2	0
43	779	7	10000	2	1	0	2	0
44	780	7	10000	2	1	0	2	0
44	781	7	10000	2	1	0	2	0
44	782	7	10000	2	1	0	2	0
45	783	7	10000	2	1	0	2	0
50	784	7	10000	2	1	0	2	0
53	785	7	10000	2	1	0	2	0
51	786	7	10000	2	1	0	2	0
49	787	7	10000	2	1	0	2	0
51	788	7	10000	2	1	0	2	0
51	789	7	10000	2	1	0	2	0
49	790	7	10000	2	1	0	2	0
47	791	7	10000	2	1	0	2	0
47	792	7	10000	2	1	0	2	0
46	793	7	10000	2	1	0	2	0
46	794	7	10000	2	1	0	2	0
45	795	7	10000	2	1	0	2	0
45	796	7	10000	2	1	0	2	0
45	797	7	10000	2	1	0	2	0
45	798	7	10000	2	1	0	2	0
44	799	7	10000	2	1	0	2	0
45	800	7	10000	2	1	0	2	0
48	801	7	10000	2	1	0	2	0
48	802	7	10000	2	1	0	2	0
48	803	7	10000	2	1	0	2	0
48	804	7	10000	2	1	0	2	0
49	805	7	10000	2	1	0	2	0
48	806	7	10000	2	1	0	2	0
48	807	7	10000	2	1	0	2	0
47	808	7	10000	2	1	0	2	0
50	809	7	10000	2	1	0	2	0
50	810	7	10000	2	1	0	2	0
48	811	7	10000	2	1	0	2	0
48	812	7	10000	2	1	0	2	0
46	813	7	10000	2	1	0	2	0
45	814	7	10000	2	1	0	2	0
46	815	7	10000	2	1	0	2	0
45	816	7	10000	2	1	0	2	0
44	817	7	10000	2	1	0	2	0
45	818	7	10000	2	1	0	2	0
43	819	7	10000	2	1	0	2	0
43	820	7	10000	2	1	0	2	0
43	821	7	10000	2	1	0	2	0
43	822	7	10000	2	1	0	2	0
43	823	7	10000	2	1	0	2	0
46	824	7	10000	2	1	0	2	0
51	825	7	10000	2	1	0	2	0
49	826	7	10000	2	1	0	2	0
52	827	7	10000	2	1	0	2	0
51	828	7	10000	2	1	0	2	0
52	829	7	10000	2	1	0	2	0
52	830	7	10000	2	1	0	2	0
50	831	7	10000	2	1	0	2	0
48	832	7	10000	2	1	0	2	0
48	833	7	10000	2	1	0	2	0
48	834	7	10000	2	1	0	2	0
47	835	7	10000	2	1	0	2	0
46	836	7	10000	2	1	0	2	0
49	837	7	10000	2	1	0	2	0
49	838	7	10000	2	1	0	2	0
47	839	7	10000	2	1	0	2	0
46	840	7	10000	2	1	0	2	0
49	841	7	10000	2	1	0	2	0
47	842	7	10000	2	1	0	2	0
45	843	7	10000	2	1	0	2	0
44	844	7	10000	2	1	0	2	0
44	845	7	10000	2	1	0	2	0
47	846	7	10000	2	1	0	2	0
51	847	7	10000	2	1	0	2	0
51	848	7	10000	2	1	0	2	0
53	849	7	10000	2	1	0	2	0
54	850	7	10000	2	1	0	2	0
53	851	7	10000	2	1	0	2	0
52	852	7	10000	2	1	0	2	0
52	853	7	10000	2	1	0	2	0
50	854	7	10000	2	1	0	2	0
48	855	7	10000	2	1	0	2	0
52	856	7	10000	2	1	0	2	0
51	857	7	10000	2	1	0	2	0
49	858	7	10000	2	1	0	2	0
48	859	7	10000	2	1	0	2	0
46	860	7	10000	2	1	0	2	0
46	861	7	10000	2	1	0	2	0
44	862	7	10000	2	1	0	2	0
43	863	7	10000	2	1	0	2	0
44	864	7	10000	2	1	0	2	0
45	865	7	10000	2	1	0	2	0
44	866	7	10000	2	1	0	2	0
44	867	7	10000	2	1	0	2	0
44	868	7	10000	2	1	0	2	0
46	869	7	10000	2	1	0	2	0
46	870	7	10000	2	1	0	2	0
46	871	7	10000	2	1	0	2	0
45	872	7	10000	2	1	0	2	0
44	873	7	10000	2	1	0	2	0
44	874	7	10000	2	1	0	2	0
48	875	7	10000	2	1	0	2	0
46	876	7	10000	2	1	0	2	0
45	877	7	10000	2	1	0	2	0
44	878	7	10000	2	1	0	2	0
42	879	7	10000	2	1	0	2	0
42	880	7	10000	2	1	0	2	0
40	881	7	10000	2	1	0	2	0
40	882	7	10000	2	1	0	2	0
41	883	7	10000	2	1	0	2	0
45	884	7	10000	2	1	0	2	0
51	885	7	10000	2	1	0	2	0
52	886	7	10000	2	1	0	2	0
54	887	7	10000	2	1	0	2	0
53	888	7	10000	2	1	0	2	0
53	889	7	10000	2	1	0	2	0
56	890	7	10000	2	1	0	2	0
56	891	7	10000	2	1	0	2	0
56	892	7	10000	2	1	0	2	0
56	893	7	10000	2	1	0	2	0
57	894	7	10000	2	1	0	2	0
56	895	7	10000	2	1	0	2	0
55	896	7	10000	2	1	0	2	0
54	897	7	10000	2	1	0	2	0
55	898	7	10000	2	1	0	2	0
51	899	7	10000	2	1	0	2	0
49	900	7	10000	2	1	0	2	0
49	901	7	10000	2	1	0	2	0
48	902	7	10000	2	1	0	2	0
48	903	7	10000	2	1	0	2	0
46	904	7	10000	2	1	0	2	0
47	905	7	10000	2	1	0	2	0
46	906	7	10000	2	1	0	2	0
45	907	7	10000	2	1	0	2	0
44	908	7	10000	2	1	0	2	0
48	909	7	10000	2	1	0	2	0
46	910	7	10000	2	1	0	2	0
45	911	7	10000	2	1	0	2	0
45	912	7	10000	2	1	0	2	0
44	913	7	10000	2	1	0	2	0
44	914	7	10000	2	1	0	2	0
44	915	7	10000	2	1	0	2	0
44	916	7	10000	2	1	0	2	0
45	917	7	10000	2	1	0	2	0
44	918	7	10000	2	1	0	2	0
41	919	7	10000	2	1	0	2	0
42	920	7	10000	2	1	0	2	0
44	921	7	10000	2	1	0	2	0
49	922	7	10000	2	1	0	2	0
51	923	7	10000	2	1	0	2	0
52	924	7	10000	2	1	0	2	0
51	925	7	10000	2	1	0	2	0
50	926	7	10000	2	1	0	2	0
50	927	7	10000	2	1	0	2	0
51	928	7	10000	2	1	0	2	0
51	929	7	10000	2	1	0	2	0
50	930	7	10000	2	1	0	2	0
49	931	7	10000	2	1	0	2	0
52	932	7	10000	2	1	0	2	0
52	933	7	10000	2	1	0	2	0
52	934	7	10000	2	1	0	2	0
54	935	7	10000	2	1	0	2	0
54	936	7	10000	2	1	0	2	0
53	937	7	10000	2	1	0	2	0
53	938	7	10000	2	1	0	2	0
50	939	7	10000	2	1	0	2	0
51	940	7	10000	2	1	0	2	0
52	941	7	10000	2	1	0	2	0
52	942	7	10000	2	1	0	2	0
52	943	7	10000	2	1	0	2	0
51	944	7	10000	2	1	0	2	0
50	945	7	10000	2	1	0	2	0
49	946	7	10000	2	1	0	2	0
49	947	7	10000	2	1	0	2	0
48	948	7	10000	2	1	0	2	0
49	949	7	10000	2	1	0	2	0
48	950	7	10000	2	1	0	2	0
47	951	7	10000	2	1	0	2	0
48	952	7	10000	2	1	0	2	0
48	953	7	10000	2	1	0	2	0
48	954	7	10000	2	1	0	2	0
46	955	7	10000	2	1	0	2	0
45	956	7	10000	2	1	0	2	0
45	957	7	10000	2	1	0	2	0
45	958	7	10000	2	1	0	2	0
42	959	7	10000	2	1	0	2	0
42	960	7	10000	2	1	0	2	0
44	961	7	10000	2	1	0	2	0
47	962	7	10000	2	1	0	2	0
46	963	7	10000	2	1	0	2	0
47	964	7	10000	2	1	0	2	0
46	965	7	10000	2	1	0	2	0
46	966	7	10000	2	1	0	2	0
49	967	7	10000	2	1	0	2	0
52	968	7	10000	2	1	0	2	0
54	969	7	10000	2	1	0	2	0
54	970	7	10000	2	1	0	2	0
53	971	7	10000	2	1	0	2	0
52	972	7	10000	2	1	0	2	0
55	973	7	10000	2	1	0	2	0
55	974	7	10000	2	1	0	2	0
54	975	7	10000	2	1	0	2	0
53	976	7	10000	2	1	0	2	0
54	977	7	10000	2	1	0	2	0
56	978	7	10000	2	1	0	2	0
53	979	7	10000	2	1	0	2	0
53	980	7	10000	2	1	0	2	0
54	981	7	10000	2	1	0	2	0
54	982	7	10000	2	1	0	2	0
56	983	7	10000	2	1	0	2	0
58	984	7	10000	2	1	0	2	0
58	985	7	10000	2	1	0	2	0
57	986	7	10000	2	1	0	2	0
60	987	7	10000	2	1	0	2	0
61	988	7	10000	2	1	0	2	0
68	989	7	10000	2	1	0	2	0
69	990	7	10000	2	1	0	2	0
67	991	7	10000	2	1	0	2	0
70	992	7	10000	2	1	0	2	0
72	993	7	10000	2	1	0	2	0
75	994	7	10000	2	1	0	2	0
78	995	7	10000	2	1	0	2	0
80	996	7	10000	2	1	0	2	0
78	997	7	10000	2	1	0	2	0
77	998	7	10000	2	1	0	2	0
72	999	7	10000	2	1	0	2	0
71	1000	7	10000	2	1	0	2	0
71	1001	7	10000	2	1	0	2	0
34	2	7	10000	3	1	0	3	0
34	3	7	10000	3	1	0	3	0
35	4	7	10000	3	1	0	3	0
35	5	7	10000	3	1	0	3	0
35	6	7	10000	3	1	0	3	0
37	7	7	10000	3	1	0	3	0
35	8	7	10000	3	1	0	3	0
34	9	7	10000	3	1	0	3	0
33	10	7	10000	3	1	0	3	0
36	11	7	10000	3	1	0	3	0
36	12	7	10000	3	1	0	3	0
35	13	7	10000	3	1	0	3	0
35	14	7	10000	3	1	0	3	0
35	15	7	10000	3	1	0	3	0
35	16	7	10000	3	1	0	3	0
36	17	7	10000	3	1	0	3	0
37	18	7	10000	3	1	0	3	0
37	19	7	10000	3	1	0	3	0
36	20	7	10000	3	1	0	3	0
35	21	7	10000	3	1	0	3	0
34	22	7	10000	3	1	0	3	0
37	23	7	10000	3	1	0	3	0
37	24	7	10000	3	1	0	3	0
38	25	7	10000	3	1	0	3	0
39	26	7	10000	3	1	0	3	0
37	27	7	10000	3	1	0	3	0
34	28	7	10000	3	1	0	3	0
35	29	7	10000	3	1	0	3	0
35	30	7	10000	3	1	0	3	0
35	31	7	10000	3	1	0	3	0
35	32	7	10000	3	1	0	3	0
37	33	7	10000	3	1	0	3	0
37	34	7	10000	3	1	0	3	0
36	35	7	10000	3	1	0	3	0
38	36	7	10000	3	1	0	3	0
38	37	7	10000	3	1	0	3	0
42	38	7	10000	3	1	0	3	0
42	39	7	10000	3	1	0	3	0
43	40	7	10000	3	1	0	3	0
42	41	7	10000	3	1	0	3	0
42	42	7	10000	3	1	0	3	0
41	43	7	10000	3	1	0	3	0
41	44	7	10000	3	1	0	3	0
42	45	7	10000	3	1	0	3	0
44	46	7	10000	3	1	0	3	0
45	47	7	10000	3	1	0	3	0
45	48	7	10000	3	1	0	3	0
46	49	7	10000	3	1	0	3	0
46	50	7	10000	3	1	0	3	0
47	51	7	10000	3	1	0	3	0
45	52	7	10000	3	1	0	3	0
46	53	7	10000	3	1	0	3	0
46	54	7	10000	3	1	0	3	0
45	55	7	10000	3	1	0	3	0
44	56	7	10000	3	1	0	3	0
45	57	7	10000	3	1	0	3	0
44	58	7	10000	3	1	0	3	0
43	59	7	10000	3	1	0	3	0
43	60	7	10000	3	1	0	3	0
42	61	7	10000	3	1	0	3	0
40	62	7	10000	3	1	0	3	0
44	63	7	10000	3	1	0	3	0
44	64	7	10000	3	1	0	3	0
45	65	7	10000	3	1	0	3	0
47	66	7	10000	3	1	0	3	0
49	67	7	10000	3	1	0	3	0
45	68	7	10000	3	1	0	3	0
44	69	7	10000	3	1	0	3	0
44	70	7	10000	3	1	0	3	0
44	71	7	10000	3	1	0	3	0
43	72	7	10000	3	1	0	3	0
43	73	7	10000	3	1	0	3	0
42	74	7	10000	3	1	0	3	0
41	75	7	10000	3	1	0	3	0
41	76	7	10000	3	1	0	3	0
40	77	7	10000	3	1	0	3	0
43	78	7	10000	3	1	0	3	0
41	79	7	10000	3	1	0	3	0
40	80	7	10000	3	1	0	3	0
39	81	7	10000	3	1	0	3	0
39	82	7	10000	3	1	0	3	0
38	83	7	10000	3	1	0	3	0
36	84	7	10000	3	1	0	3	0
38	85	7	10000	3	1	0	3	0
39	86	7	10000	3	1	0	3	0
38	87	7	10000	3	1	0	3	0
39	88	7	10000	3	1	0	3	0
39	89	7	10000	3	1	0	3	0
38	90	7	10000	3	1	0	3	0
40	91	7	10000	3	1	0	3	0
41	92	7	10000	3	1	0	3	0
43	93	7	10000	3	1	0	3	0
42	94	7	10000	3	1	0	3	0
39	95	7	10000	3	1	0	3	0
39	96	7	10000	3	1	0	3	0
40	97	7	10000	3	1	0	3	0
39	98	7	10000	3	1	0	3	0
38	99	7	10000	3	1	0	3	0
40	100	7	10000	3	1	0	3	0
40	101	7	10000	3	1	0	3	0
39	102	7	10000	3	1	0	3	0
37	103	7	10000	3	1	0	3	0
38	104	7	10000	3	1	0	3	0
38	105	7	10000	3	1	0	3	0
36	106	7	10000	3	1	0	3	0
36	107	7	10000	3	1	0	3	0
35	108	7	10000	3	1	0	3	0
36	109	7	10000	3	1	0	3	0
35	110	7	10000	3	1	0	3	0
35	111	7	10000	3	1	0	3	0
35	112	7	10000	3	1	0	3	0
34	113	7	10000	3	1	0	3	0
34	114	7	10000	3	1	0	3	0
34	115	7	10000	3	1	0	3	0
34	116	7	10000	3	1	0	3	0
34	117	7	10000	3	1	0	3	0
34	118	7	10000	3	1	0	3	0
35	119	7	10000	3	1	0	3	0
35	120	7	10000	3	1	0	3	0
33	121	7	10000	3	1	0	3	0
33	122	7	10000	3	1	0	3	0
35	123	7	10000	3	1	0	3	0
38	124	7	10000	3	1	0	3	0
41	125	7	10000	3	1	0	3	0
41	126	7	10000	3	1	0	3	0
39	127	7	10000	3	1	0	3	0
37	128	7	10000	3	1	0	3	0
36	129	7	10000	3	1	0	3	0
39	130	7	10000	3	1	0	3	0
39	131	7	10000	3	1	0	3	0
36	132	7	10000	3	1	0	3	0
37	133	7	10000	3	1	0	3	0
37	134	7	10000	3	1	0	3	0
36	135	7	10000	3	1	0	3	0
34	136	7	10000	3	1	0	3	0
35	137	7	10000	3	1	0	3	0
37	138	7	10000	3	1	0	3	0
35	139	7	10000	3	1	0	3	0
34	140	7	10000	3	1	0	3	0
35	141	7	10000	3	1	0	3	0
35	142	7	10000	3	1	0	3	0
34	143	7	10000	3	1	0	3	0
34	144	7	10000	3	1	0	3	0
35	145	7	10000	3	1	0	3	0
35	146	7	10000	3	1	0	3	0
32	147	7	10000	3	1	0	3	0
31	148	7	10000	3	1	0	3	0
32	149	7	10000	3	1	0	3	0
33	150	7	10000	3	1	0	3	0
33	151	7	10000	3	1	0	3	0
34	152	7	10000	3	1	0	3	0
34	153	7	10000	3	1	0	3	0
34	154	7	10000	3	1	0	3	0
34	155	7	10000	3	1	0	3	0
34	156	7	10000	3	1	0	3	0
35	157	7	10000	3	1	0	3	0
35	158	7	10000	3	1	0	3	0
34	159	7	10000	3	1	0	3	0
37	160	7	10000	3	1	0	3	0
35	161	7	10000	3	1	0	3	0
35	162	7	10000	3	1	0	3	0
34	163	7	10000	3	1	0	3	0
35	164	7	10000	3	1	0	3	0
35	165	7	10000	3	1	0	3	0
34	166	7	10000	3	1	0	3	0
33	167	7	10000	3	1	0	3	0
33	168	7	10000	3	1	0	3	0
32	169	7	10000	3	1	0	3	0
31	170	7	10000	3	1	0	3	0
32	171	7	10000	3	1	0	3	0
32	172	7	10000	3	1	0	3	0
32	173	7	10000	3	1	0	3	0
32	174	7	10000	3	1	0	3	0
32	175	7	10000	3	1	0	3	0
32	176	7	10000	3	1	0	3	0
33	177	7	10000	3	1	0	3	0
34	178	7	10000	3	1	0	3	0
34	179	7	10000	3	1	0	3	0
34	180	7	10000	3	1	0	3	0
35	181	7	10000	3	1	0	3	0
35	182	7	10000	3	1	0	3	0
35	183	7	10000	3	1	0	3	0
34	184	7	10000	3	1	0	3	0
33	185	7	10000	3	1	0	3	0
34	186	7	10000	3	1	0	3	0
35	187	7	10000	3	1	0	3	0
34	188	7	10000	3	1	0	3	0
35	189	7	10000	3	1	0	3	0
35	190	7	10000	3	1	0	3	0
36	191	7	10000	3	1	0	3	0
35	192	7	10000	3	1	0	3	0
36	193	7	10000	3	1	0	3	0
36	194	7	10000	3	1	0	3	0
34	195	7	10000	3	1	0	3	0
35	196	7	10000	3	1	0	3	0
36	197	7	10000	3	1	0	3	0
36	198	7	10000	3	1	0	3	0
36	199	7	10000	3	1	0	3	0
34	200	7	10000	3	1	0	3	0
36	201	7	10000	3	1	0	3	0
36	202	7	10000	3	1	0	3	0
34	203	7	10000	3	1	0	3	0
34	204	7	10000	3	1	0	3	0
36	205	7	10000	3	1	0	3	0
35	206	7	10000	3	1	0	3	0
32	207	7	10000	3	1	0	3	0
32	208	7	10000	3	1	0	3	0
33	209	7	10000	3	1	0	3	0
32	210	7	10000	3	1	0	3	0
32	211	7	10000	3	1	0	3	0
33	212	7	10000	3	1	0	3	0
32	213	7	10000	3	1	0	3	0
32	214	7	10000	3	1	0	3	0
32	215	7	10000	3	1	0	3	0
32	216	7	10000	3	1	0	3	0
32	217	7	10000	3	1	0	3	0
32	218	7	10000	3	1	0	3	0
32	219	7	10000	3	1	0	3	0
33	220	7	10000	3	1	0	3	0
32	221	7	10000	3	1	0	3	0
31	222	7	10000	3	1	0	3	0
32	223	7	10000	3	1	0	3	0
33	224	7	10000	3	1	0	3	0
35	225	7	10000	3	1	0	3	0
37	226	7	10000	3	1	0	3	0
37	227	7	10000	3	1	0	3	0
34	228	7	10000	3	1	0	3	0
34	229	7	10000	3	1	0	3	0
34	230	7	10000	3	1	0	3	0
35	231	7	10000	3	1	0	3	0
34	232	7	10000	3	1	0	3	0
33	233	7	10000	3	1	0	3	0
34	234	7	10000	3	1	0	3	0
34	235	7	10000	3	1	0	3	0
34	236	7	10000	3	1	0	3	0
34	237	7	10000	3	1	0	3	0
36	238	7	10000	3	1	0	3	0
36	239	7	10000	3	1	0	3	0
35	240	7	10000	3	1	0	3	0
35	241	7	10000	3	1	0	3	0
36	242	7	10000	3	1	0	3	0
34	243	7	10000	3	1	0	3	0
34	244	7	10000	3	1	0	3	0
35	245	7	10000	3	1	0	3	0
36	246	7	10000	3	1	0	3	0
34	247	7	10000	3	1	0	3	0
32	248	7	10000	3	1	0	3	0
34	249	7	10000	3	1	0	3	0
34	250	7	10000	3	1	0	3	0
33	251	7	10000	3	1	0	3	0
33	252	7	10000	3	1	0	3	0
33	253	7	10000	3	1	0	3	0
33	254	7	10000	3	1	0	3	0
32	255	7	10000	3	1	0	3	0
32	256	7	10000	3	1	0	3	0
34	257	7	10000	3	1	0	3	0
36	258	7	10000	3	1	0	3	0
33	259	7	10000	3	1	0	3	0
35	260	7	10000	3	1	0	3	0
34	261	7	10000	3	1	0	3	0
34	262	7	10000	3	1	0	3	0
32	263	7	10000	3	1	0	3	0
35	264	7	10000	3	1	0	3	0
34	265	7	10000	3	1	0	3	0
34	266	7	10000	3	1	0	3	0
33	267	7	10000	3	1	0	3	0
32	268	7	10000	3	1	0	3	0
34	269	7	10000	3	1	0	3	0
37	270	7	10000	3	1	0	3	0
37	271	7	10000	3	1	0	3	0
37	272	7	10000	3	1	0	3	0
36	273	7	10000	3	1	0	3	0
35	274	7	10000	3	1	0	3	0
35	275	7	10000	3	1	0	3	0
35	276	7	10000	3	1	0	3	0
35	277	7	10000	3	1	0	3	0
35	278	7	10000	3	1	0	3	0
36	279	7	10000	3	1	0	3	0
35	280	7	10000	3	1	0	3	0
33	281	7	10000	3	1	0	3	0
33	282	7	10000	3	1	0	3	0
33	283	7	10000	3	1	0	3	0
33	284	7	10000	3	1	0	3	0
32	285	7	10000	3	1	0	3	0
34	286	7	10000	3	1	0	3	0
33	287	7	10000	3	1	0	3	0
32	288	7	10000	3	1	0	3	0
32	289	7	10000	3	1	0	3	0
32	290	7	10000	3	1	0	3	0
35	291	7	10000	3	1	0	3	0
37	292	7	10000	3	1	0	3	0
38	293	7	10000	3	1	0	3	0
38	294	7	10000	3	1	0	3	0
37	295	7	10000	3	1	0	3	0
35	296	7	10000	3	1	0	3	0
39	297	7	10000	3	1	0	3	0
42	298	7	10000	3	1	0	3	0
39	299	7	10000	3	1	0	3	0
38	300	7	10000	3	1	0	3	0
39	301	7	10000	3	1	0	3	0
38	302	7	10000	3	1	0	3	0
37	303	7	10000	3	1	0	3	0
37	304	7	10000	3	1	0	3	0
38	305	7	10000	3	1	0	3	0
37	306	7	10000	3	1	0	3	0
35	307	7	10000	3	1	0	3	0
34	308	7	10000	3	1	0	3	0
36	309	7	10000	3	1	0	3	0
35	310	7	10000	3	1	0	3	0
34	311	7	10000	3	1	0	3	0
34	312	7	10000	3	1	0	3	0
34	313	7	10000	3	1	0	3	0
35	314	7	10000	3	1	0	3	0
36	315	7	10000	3	1	0	3	0
35	316	7	10000	3	1	0	3	0
38	317	7	10000	3	1	0	3	0
39	318	7	10000	3	1	0	3	0
37	319	7	10000	3	1	0	3	0
39	320	7	10000	3	1	0	3	0
38	321	7	10000	3	1	0	3	0
37	322	7	10000	3	1	0	3	0
38	323	7	10000	3	1	0	3	0
39	324	7	10000	3	1	0	3	0
41	325	7	10000	3	1	0	3	0
43	326	7	10000	3	1	0	3	0
42	327	7	10000	3	1	0	3	0
39	328	7	10000	3	1	0	3	0
39	329	7	10000	3	1	0	3	0
38	330	7	10000	3	1	0	3	0
42	331	7	10000	3	1	0	3	0
41	332	7	10000	3	1	0	3	0
41	333	7	10000	3	1	0	3	0
42	334	7	10000	3	1	0	3	0
42	335	7	10000	3	1	0	3	0
40	336	7	10000	3	1	0	3	0
41	337	7	10000	3	1	0	3	0
43	338	7	10000	3	1	0	3	0
41	339	7	10000	3	1	0	3	0
40	340	7	10000	3	1	0	3	0
40	341	7	10000	3	1	0	3	0
38	342	7	10000	3	1	0	3	0
39	343	7	10000	3	1	0	3	0
40	344	7	10000	3	1	0	3	0
40	345	7	10000	3	1	0	3	0
41	346	7	10000	3	1	0	3	0
40	347	7	10000	3	1	0	3	0
40	348	7	10000	3	1	0	3	0
41	349	7	10000	3	1	0	3	0
41	350	7	10000	3	1	0	3	0
41	351	7	10000	3	1	0	3	0
39	352	7	10000	3	1	0	3	0
40	353	7	10000	3	1	0	3	0
39	354	7	10000	3	1	0	3	0
39	355	7	10000	3	1	0	3	0
39	356	7	10000	3	1	0	3	0
40	357	7	10000	3	1	0	3	0
44	358	7	10000	3	1	0	3	0
44	359	7	10000	3	1	0	3	0
44	360	7	10000	3	1	0	3	0
44	361	7	10000	3	1	0	3	0
42	362	7	10000	3	1	0	3	0
43	363	7	10000	3	1	0	3	0
48	364	7	10000	3	1	0	3	0
49	365	7	10000	3	1	0	3	0
49	366	7	10000	3	1	0	3	0
45	367	7	10000	3	1	0	3	0
44	368	7	10000	3	1	0	3	0
44	369	7	10000	3	1	0	3	0
43	370	7	10000	3	1	0	3	0
43	371	7	10000	3	1	0	3	0
44	372	7	10000	3	1	0	3	0
42	373	7	10000	3	1	0	3	0
40	374	7	10000	3	1	0	3	0
42	375	7	10000	3	1	0	3	0
40	376	7	10000	3	1	0	3	0
40	377	7	10000	3	1	0	3	0
40	378	7	10000	3	1	0	3	0
40	379	7	10000	3	1	0	3	0
41	380	7	10000	3	1	0	3	0
42	381	7	10000	3	1	0	3	0
41	382	7	10000	3	1	0	3	0
41	383	7	10000	3	1	0	3	0
40	384	7	10000	3	1	0	3	0
40	385	7	10000	3	1	0	3	0
40	386	7	10000	3	1	0	3	0
39	387	7	10000	3	1	0	3	0
38	388	7	10000	3	1	0	3	0
37	389	7	10000	3	1	0	3	0
37	390	7	10000	3	1	0	3	0
37	391	7	10000	3	1	0	3	0
37	392	7	10000	3	1	0	3	0
36	393	7	10000	3	1	0	3	0
36	394	7	10000	3	1	0	3	0
37	395	7	10000	3	1	0	3	0
37	396	7	10000	3	1	0	3	0
39	397	7	10000	3	1	0	3	0
40	398	7	10000	3	1	0	3	0
38	399	7	10000	3	1	0	3	0
37	400	7	10000	3	1	0	3	0
38	401	7	10000	3	1	0	3	0
39	402	7	10000	3	1	0	3	0
37	403	7	10000	3	1	0	3	0
36	404	7	10000	3	1	0	3	0
40	405	7	10000	3	1	0	3	0
40	406	7	10000	3	1	0	3	0
37	407	7	10000	3	1	0	3	0
35	408	7	10000	3	1	0	3	0
37	409	7	10000	3	1	0	3	0
36	410	7	10000	3	1	0	3	0
34	411	7	10000	3	1	0	3	0
35	412	7	10000	3	1	0	3	0
35	413	7	10000	3	1	0	3	0
35	414	7	10000	3	1	0	3	0
35	415	7	10000	3	1	0	3	0
34	416	7	10000	3	1	0	3	0
36	417	7	10000	3	1	0	3	0
39	418	7	10000	3	1	0	3	0
39	419	7	10000	3	1	0	3	0
39	420	7	10000	3	1	0	3	0
38	421	7	10000	3	1	0	3	0
36	422	7	10000	3	1	0	3	0
36	423	7	10000	3	1	0	3	0
38	424	7	10000	3	1	0	3	0
38	425	7	10000	3	1	0	3	0
37	426	7	10000	3	1	0	3	0
36	427	7	10000	3	1	0	3	0
36	428	7	10000	3	1	0	3	0
36	429	7	10000	3	1	0	3	0
38	430	7	10000	3	1	0	3	0
38	431	7	10000	3	1	0	3	0
40	432	7	10000	3	1	0	3	0
39	433	7	10000	3	1	0	3	0
38	434	7	10000	3	1	0	3	0
41	435	7	10000	3	1	0	3	0
39	436	7	10000	3	1	0	3	0
40	437	7	10000	3	1	0	3	0
40	438	7	10000	3	1	0	3	0
41	439	7	10000	3	1	0	3	0
40	440	7	10000	3	1	0	3	0
38	441	7	10000	3	1	0	3	0
38	442	7	10000	3	1	0	3	0
38	443	7	10000	3	1	0	3	0
38	444	7	10000	3	1	0	3	0
39	445	7	10000	3	1	0	3	0
40	446	7	10000	3	1	0	3	0
40	447	7	10000	3	1	0	3	0
39	448	7	10000	3	1	0	3	0
40	449	7	10000	3	1	0	3	0
39	450	7	10000	3	1	0	3	0
39	451	7	10000	3	1	0	3	0
38	452	7	10000	3	1	0	3	0
38	453	7	10000	3	1	0	3	0
38	454	7	10000	3	1	0	3	0
36	455	7	10000	3	1	0	3	0
34	456	7	10000	3	1	0	3	0
37	457	7	10000	3	1	0	3	0
38	458	7	10000	3	1	0	3	0
38	459	7	10000	3	1	0	3	0
38	460	7	10000	3	1	0	3	0
37	461	7	10000	3	1	0	3	0
39	462	7	10000	3	1	0	3	0
39	463	7	10000	3	1	0	3	0
39	464	7	10000	3	1	0	3	0
39	465	7	10000	3	1	0	3	0
39	466	7	10000	3	1	0	3	0
40	467	7	10000	3	1	0	3	0
43	468	7	10000	3	1	0	3	0
43	469	7	10000	3	1	0	3	0
42	470	7	10000	3	1	0	3	0
41	471	7	10000	3	1	0	3	0
42	472	7	10000	3	1	0	3	0
41	473	7	10000	3	1	0	3	0
39	474	7	10000	3	1	0	3	0
38	475	7	10000	3	1	0	3	0
38	476	7	10000	3	1	0	3	0
40	477	7	10000	3	1	0	3	0
40	478	7	10000	3	1	0	3	0
39	479	7	10000	3	1	0	3	0
40	480	7	10000	3	1	0	3	0
39	481	7	10000	3	1	0	3	0
38	482	7	10000	3	1	0	3	0
38	483	7	10000	3	1	0	3	0
39	484	7	10000	3	1	0	3	0
39	485	7	10000	3	1	0	3	0
41	486	7	10000	3	1	0	3	0
39	487	7	10000	3	1	0	3	0
39	488	7	10000	3	1	0	3	0
39	489	7	10000	3	1	0	3	0
39	490	7	10000	3	1	0	3	0
40	491	7	10000	3	1	0	3	0
38	492	7	10000	3	1	0	3	0
37	493	7	10000	3	1	0	3	0
36	494	7	10000	3	1	0	3	0
39	495	7	10000	3	1	0	3	0
41	496	7	10000	3	1	0	3	0
43	497	7	10000	3	1	0	3	0
44	498	7	10000	3	1	0	3	0
42	499	7	10000	3	1	0	3	0
41	500	7	10000	3	1	0	3	0
39	501	7	10000	3	1	0	3	0
43	502	7	10000	3	1	0	3	1
42	503	7	10000	3	1	0	3	1
40	504	7	10000	3	1	0	3	1
43	505	7	10000	3	1	0	3	1
43	506	7	10000	3	1	0	3	1
40	507	7	10000	3	1	0	3	1
38	508	7	10000	3	1	0	3	1
39	509	7	10000	3	1	0	3	1
39	510	7	10000	3	1	0	3	1
38	511	7	10000	3	1	0	3	1
38	512	7	10000	3	1	0	3	1
38	513	7	10000	3	1	0	3	1
37	514	7	10000	3	1	0	3	1
35	515	7	10000	3	1	0	3	1
34	516	7	10000	3	1	0	3	1
37	517	7	10000	3	1	0	3	1
36	518	7	10000	3	1	0	3	1
35	519	7	10000	3	1	0	3	1
36	520	7	10000	3	1	0	3	1
35	521	7	10000	3	1	0	3	1
34	522	7	10000	3	1	0	3	1
34	523	7	10000	3	1	0	3	1
34	524	7	10000	3	1	0	3	1
34	525	7	10000	3	1	0	3	1
35	526	7	10000	3	1	0	3	1
35	527	7	10000	3	1	0	3	1
33	528	7	10000	3	1	0	3	1
35	529	7	10000	3	1	0	3	1
35	530	7	10000	3	1	0	3	1
35	531	7	10000	3	1	0	3	1
36	532	7	10000	3	1	0	3	1
35	533	7	10000	3	1	0	3	1
33	534	7	10000	3	1	0	3	1
33	535	7	10000	3	1	0	3	1
34	536	7	10000	3	1	0	3	1
35	537	7	10000	3	1	0	3	1
37	538	7	10000	3	1	0	3	1
37	539	7	10000	3	1	0	3	1
36	540	7	10000	3	1	0	3	1
34	541	7	10000	3	1	0	3	1
34	542	7	10000	3	1	0	3	1
36	543	7	10000	3	1	0	3	1
35	544	7	10000	3	1	0	3	1
34	545	7	10000	3	1	0	3	1
35	546	7	10000	3	1	0	3	1
34	547	7	10000	3	1	0	3	1
32	548	7	10000	3	1	0	3	1
32	549	7	10000	3	1	0	3	1
34	550	7	10000	3	1	0	3	1
35	551	7	10000	3	1	0	3	1
34	552	7	10000	3	1	0	3	0
34	553	7	10000	3	1	0	3	0
35	554	7	10000	3	1	0	3	0
35	555	7	10000	3	1	0	3	0
34	556	7	10000	3	1	0	3	0
37	557	7	10000	3	1	0	3	0
37	558	7	10000	3	1	0	3	0
35	559	7	10000	3	1	0	3	0
34	560	7	10000	3	1	0	3	0
34	561	7	10000	3	1	0	3	0
35	562	7	10000	3	1	0	3	0
37	563	7	10000	3	1	0	3	0
36	564	7	10000	3	1	0	3	0
38	565	7	10000	3	1	0	3	0
39	566	7	10000	3	1	0	3	0
36	567	7	10000	3	1	0	3	0
34	568	7	10000	3	1	0	3	0
36	569	7	10000	3	1	0	3	0
35	570	7	10000	3	1	0	3	0
35	571	7	10000	3	1	0	3	0
35	572	7	10000	3	1	0	3	0
36	573	7	10000	3	1	0	3	0
36	574	7	10000	3	1	0	3	0
35	575	7	10000	3	1	0	3	0
36	576	7	10000	3	1	0	3	0
36	577	7	10000	3	1	0	3	0
36	578	7	10000	3	1	0	3	0
35	579	7	10000	3	1	0	3	0
38	580	7	10000	3	1	0	3	0
36	581	7	10000	3	1	0	3	0
36	582	7	10000	3	1	0	3	0
35	583	7	10000	3	1	0	3	0
36	584	7	10000	3	1	0	3	0
39	585	7	10000	3	1	0	3	0
38	586	7	10000	3	1	0	3	0
36	587	7	10000	3	1	0	3	0
38	588	7	10000	3	1	0	3	0
39	589	7	10000	3	1	0	3	0
37	590	7	10000	3	1	0	3	0
40	591	7	10000	3	1	0	3	0
39	592	7	10000	3	1	0	3	0
42	593	7	10000	3	1	0	3	0
52	594	7	10000	3	1	0	3	0
69	595	7	10000	3	1	0	3	0
95	596	7	10000	3	1	0	3	0
126	597	7	10000	3	1	0	3	0
139	598	7	10000	3	1	0	3	0
138	599	7	10000	3	1	0	3	0
134	600	7	10000	3	1	0	3	0
141	601	7	10000	3	1	0	3	0
154	602	7	10000	3	1	0	3	0
160	603	7	10000	3	1	0	3	0
169	604	7	10000	3	1	0	3	0
180	605	7	10000	3	1	0	3	0
185	606	7	10000	3	1	0	3	0
186	607	7	10000	3	1	0	3	0
186	608	7	10000	3	1	0	3	0
182	609	7	10000	3	1	0	3	0
183	610	7	10000	3	1	0	3	0
197	611	7	10000	3	1	0	3	0
198	612	7	10000	3	1	0	3	0
190	613	7	10000	3	1	0	3	0
192	614	7	10000	3	1	0	3	0
199	615	7	10000	3	1	0	3	0
206	616	7	10000	3	1	0	3	0
208	617	7	10000	3	1	0	3	0
209	618	7	10000	3	1	0	3	0
201	619	7	10000	3	1	0	3	0
192	620	7	10000	3	1	0	3	0
187	621	7	10000	3	1	0	3	0
188	622	7	10000	3	1	0	3	0
186	623	7	10000	3	1	0	3	0
185	624	7	10000	3	1	0	3	0
182	625	7	10000	3	1	0	3	0
178	626	7	10000	3	1	0	3	0
169	627	7	10000	3	1	0	3	0
164	628	7	10000	3	1	0	3	0
159	629	7	10000	3	1	0	3	0
154	630	7	10000	3	1	0	3	0
150	631	7	10000	3	1	0	3	0
144	632	7	10000	3	1	0	3	0
140	633	7	10000	3	1	0	3	0
134	634	7	10000	3	1	0	3	0
130	635	7	10000	3	1	0	3	0
125	636	7	10000	3	1	0	3	0
121	637	7	10000	3	1	0	3	0
116	638	7	10000	3	1	0	3	0
114	639	7	10000	3	1	0	3	0
109	640	7	10000	3	1	0	3	0
105	641	7	10000	3	1	0	3	0
101	642	7	10000	3	1	0	3	0
99	643	7	10000	3	1	0	3	0
96	644	7	10000	3	1	0	3	0
93	645	7	10000	3	1	0	3	0
91	646	7	10000	3	1	0	3	0
88	647	7	10000	3	1	0	3	0
87	648	7	10000	3	1	0	3	0
85	649	7	10000	3	1	0	3	0
83	650	7	10000	3	1	0	3	0
82	651	7	10000	3	1	0	3	0
84	652	7	10000	3	1	0	3	0
85	653	7	10000	3	1	0	3	0
83	654	7	10000	3	1	0	3	0
84	655	7	10000	3	1	0	3	0
82	656	7	10000	3	1	0	3	0
81	657	7	10000	3	1	0	3	0
80	658	7	10000	3	1	0	3	0
79	659	7	10000	3	1	0	3	0
78	660	7	10000	3	1	0	3	0
75	661	7	10000	3	1	0	3	0
77	662	7	10000	3	1	0	3	0
76	663	7	10000	3	1	0	3	0
76	664	7	10000	3	1	0	3	0
75	665	7	10000	3	1	0	3	0
73	666	7	10000	3	1	0	3	0
69	667	7	10000	3	1	0	3	0
67	668	7	10000	3	1	0	3	0
66	669	7	10000	3	1	0	3	0
66	670	7	10000	3	1	0	3	0
67	671	7	10000	3	1	0	3	0
66	672	7	10000	3	1	0	3	0
68	673	7	10000	3	1	0	3	0
71	674	7	10000	3	1	0	3	0
72	675	7	10000	3	1	0	3	0
69	676	7	10000	3	1	0	3	0
71	677	7	10000	3	1	0	3	0
70	678	7	10000	3	1	0	3	0
68	679	7	10000	3	1	0	3	0
66	680	7	10000	3	1	0	3	0
67	681	7	10000	3	1	0	3	0
66	682	7	10000	3	1	0	3	0
65	683	7	10000	3	1	0	3	0
62	684	7	10000	3	1	0	3	0
61	685	7	10000	3	1	0	3	0
59	686	7	10000	3	1	0	3	0
57	687	7	10000	3	1	0	3	0
56	688	7	10000	3	1	0	3	0
56	689	7	10000	3	1	0	3	0
56	690	7	10000	3	1	0	3	0
55	691	7	10000	3	1	0	3	0
53	692	7	10000	3	1	0	3	0
51	693	7	10000	3	1	0	3	0
51	694	7	10000	3	1	0	3	0
49	695	7	10000	3	1	0	3	0
47	696	7	10000	3	1	0	3	0
46	697	7	10000	3	1	0	3	0
50	698	7	10000	3	1	0	3	0
50	699	7	10000	3	1	0	3	0
50	700	7	10000	3	1	0	3	0
50	701	7	10000	3	1	0	3	0
52	702	7	10000	3	1	0	3	0
50	703	7	10000	3	1	0	3	0
50	704	7	10000	3	1	0	3	0
53	705	7	10000	3	1	0	3	0
55	706	7	10000	3	1	0	3	0
53	707	7	10000	3	1	0	3	0
52	708	7	10000	3	1	0	3	0
54	709	7	10000	3	1	0	3	0
52	710	7	10000	3	1	0	3	0
53	711	7	10000	3	1	0	3	0
52	712	7	10000	3	1	0	3	0
54	713	7	10000	3	1	0	3	0
51	714	7	10000	3	1	0	3	0
50	715	7	10000	3	1	0	3	0
49	716	7	10000	3	1	0	3	0
50	717	7	10000	3	1	0	3	0
50	718	7	10000	3	1	0	3	0
50	719	7	10000	3	1	0	3	0
53	722	7	10000	3	1	0	3	0
52	723	7	10000	3	1	0	3	0
51	724	7	10000	3	1	0	3	0
49	725	7	10000	3	1	0	3	0
50	729	7	10000	3	1	0	3	0
48	730	7	10000	3	1	0	3	0
47	731	7	10000	3	1	0	3	0
46	732	7	10000	3	1	0	3	0
47	733	7	10000	3	1	0	3	0
47	734	7	10000	3	1	0	3	0
48	735	7	10000	3	1	0	3	0
51	736	7	10000	3	1	0	3	0
50	734	7	10000	3	1	0	3	0
50	735	7	10000	3	1	0	3	0
49	736	7	10000	3	1	0	3	0
49	737	7	10000	3	1	0	3	0
49	739	7	10000	3	1	0	3	0
49	740	7	10000	3	1	0	3	0
50	741	7	10000	3	1	0	3	0
49	742	7	10000	3	1	0	3	0
47	743	7	10000	3	1	0	3	0
46	744	7	10000	3	1	0	3	0
48	745	7	10000	3	1	0	3	0
48	746	7	10000	3	1	0	3	0
48	747	7	10000	3	1	0	3	0
47	748	7	10000	3	1	0	3	0
51	749	7	10000	3	1	0	3	0
48	750	7	10000	3	1	0	3	0
45	750	7	10000	3	1	0	3	0
46	751	7	10000	3	1	0	3	0
46	752	7	10000	3	1	0	3	0
45	753	7	10000	3	1	0	3	0
44	756	7	10000	3	1	0	3	0
44	757	7	10000	3	1	0	3	0
44	758	7	10000	3	1	0	3	0
43	759	7	10000	3	1	0	3	0
43	760	7	10000	3	1	0	3	0
44	761	7	10000	3	1	0	3	0
44	761	7	10000	3	1	0	3	0
43	762	7	10000	3	1	0	3	0
41	763	7	10000	3	1	0	3	0
42	764	7	10000	3	1	0	3	0
42	767	7	10000	3	1	0	3	0
40	768	7	10000	3	1	0	3	0
41	769	7	10000	3	1	0	3	0
41	770	7	10000	3	1	0	3	0
39	771	7	10000	3	1	0	3	0
38	772	7	10000	3	1	0	3	0
37	773	7	10000	3	1	0	3	0
38	774	7	10000	3	1	0	3	0
39	772	7	10000	3	1	0	3	0
37	773	7	10000	3	1	0	3	0
38	774	7	10000	3	1	0	3	0
40	775	7	10000	3	1	0	3	0
41	779	7	10000	3	1	0	3	0
41	780	7	10000	3	1	0	3	0
40	781	7	10000	3	1	0	3	0
40	782	7	10000	3	1	0	3	0
40	783	7	10000	3	1	0	3	0
43	784	7	10000	3	1	0	3	0
42	785	7	10000	3	1	0	3	0
39	786	7	10000	3	1	0	3	0
38	784	7	10000	3	1	0	3	0
39	785	7	10000	3	1	0	3	0
39	786	7	10000	3	1	0	3	0
39	787	7	10000	3	1	0	3	0
40	789	7	10000	3	1	0	3	0
38	790	7	10000	3	1	0	3	0
39	791	7	10000	3	1	0	3	0
40	792	7	10000	3	1	0	3	0
40	793	7	10000	3	1	0	3	0
40	794	7	10000	3	1	0	3	0
40	796	7	10000	3	1	0	3	0
40	797	7	10000	3	1	0	3	0
39	798	7	10000	3	1	0	3	0
40	799	7	10000	3	1	0	3	0
40	800	7	10000	3	1	0	3	0
42	801	7	10000	3	1	0	3	0
43	800	7	10000	3	1	0	3	0
45	801	7	10000	3	1	0	3	0
45	802	7	10000	3	1	0	3	0
45	803	7	10000	3	1	0	3	0
44	807	7	10000	3	1	0	3	0
43	808	7	10000	3	1	0	3	0
43	809	7	10000	3	1	0	3	0
44	810	7	10000	3	1	0	3	0
43	811	7	10000	3	1	0	3	0
43	812	7	10000	3	1	0	3	0
42	811	7	10000	3	1	0	3	0
44	812	7	10000	3	1	0	3	0
44	813	7	10000	3	1	0	3	0
44	814	7	10000	3	1	0	3	0
43	815	7	10000	3	1	0	3	0
43	816	7	10000	3	1	0	3	0
44	818	7	10000	3	1	0	3	0
44	819	7	10000	3	1	0	3	0
43	820	7	10000	3	1	0	3	0
44	821	7	10000	3	1	0	3	0
44	822	7	10000	3	1	0	3	0
42	823	7	10000	3	1	0	3	0
43	823	7	10000	3	1	0	3	0
42	824	7	10000	3	1	0	3	0
43	825	7	10000	3	1	0	3	0
42	826	7	10000	3	1	0	3	0
42	829	7	10000	3	1	0	3	0
43	830	7	10000	3	1	0	3	0
44	831	7	10000	3	1	0	3	0
42	832	7	10000	3	1	0	3	0
42	833	7	10000	3	1	0	3	0
43	834	7	10000	3	1	0	3	0
43	835	7	10000	3	1	0	3	0
43	836	7	10000	3	1	0	3	0
43	833	7	10000	3	1	0	3	0
42	834	7	10000	3	1	0	3	0
42	835	7	10000	3	1	0	3	0
42	836	7	10000	3	1	0	3	0
39	839	7	10000	3	1	0	3	0
39	840	7	10000	3	1	0	3	0
43	841	7	10000	3	1	0	3	0
41	842	7	10000	3	1	0	3	0
39	844	7	10000	3	1	0	3	0
38	845	7	10000	3	1	0	3	0
40	846	7	10000	3	1	0	3	0
38	847	7	10000	3	1	0	3	0
38	848	7	10000	3	1	0	3	0
38	849	7	10000	3	1	0	3	0
39	851	7	10000	3	1	0	3	0
37	852	7	10000	3	1	0	3	0
36	853	7	10000	3	1	0	3	0
37	854	7	10000	3	1	0	3	0
37	855	7	10000	3	1	0	3	0
36	856	7	10000	3	1	0	3	0
36	857	7	10000	3	1	0	3	0
36	858	7	10000	3	1	0	3	0
37	854	7	10000	3	1	0	3	0
36	855	7	10000	3	1	0	3	0
36	856	7	10000	3	1	0	3	0
39	857	7	10000	3	1	0	3	0
42	858	7	10000	3	1	0	3	0
42	859	7	10000	3	1	0	3	0
42	860	7	10000	3	1	0	3	0
41	861	7	10000	3	1	0	3	0
40	862	7	10000	3	1	0	3	0
39	863	7	10000	3	1	0	3	0
41	864	7	10000	3	1	0	3	0
40	865	7	10000	3	1	0	3	0
40	866	7	10000	3	1	0	3	0
38	867	7	10000	3	1	0	3	0
40	868	7	10000	3	1	0	3	0
42	869	7	10000	3	1	0	3	0
44	870	7	10000	3	1	0	3	0
45	871	7	10000	3	1	0	3	0
45	872	7	10000	3	1	0	3	0
44	873	7	10000	3	1	0	3	0
44	874	7	10000	3	1	0	3	0
47	875	7	10000	3	1	0	3	0
44	876	7	10000	3	1	0	3	0
45	877	7	10000	3	1	0	3	0
44	878	7	10000	3	1	0	3	0
44	879	7	10000	3	1	0	3	0
44	880	7	10000	3	1	0	3	0
44	881	7	10000	3	1	0	3	0
43	882	7	10000	3	1	0	3	0
43	883	7	10000	3	1	0	3	0
42	884	7	10000	3	1	0	3	0
41	885	7	10000	3	1	0	3	0
43	886	7	10000	3	1	0	3	0
41	887	7	10000	3	1	0	3	0
39	888	7	10000	3	1	0	3	0
38	889	7	10000	3	1	0	3	0
39	890	7	10000	3	1	0	3	0
41	891	7	10000	3	1	0	3	0
42	892	7	10000	3	1	0	3	0
42	893	7	10000	3	1	0	3	0
41	894	7	10000	3	1	0	3	0
39	895	7	10000	3	1	0	3	0
37	896	7	10000	3	1	0	3	0
42	897	7	10000	3	1	0	3	0
41	898	7	10000	3	1	0	3	0
39	899	7	10000	3	1	0	3	0
39	900	7	10000	3	1	0	3	0
38	901	7	10000	3	1	0	3	0
42	902	7	10000	3	1	0	3	0
46	903	7	10000	3	1	0	3	0
46	904	7	10000	3	1	0	3	0
49	905	7	10000	3	1	0	3	0
52	906	7	10000	3	1	0	3	0
52	907	7	10000	3	1	0	3	0
51	908	7	10000	3	1	0	3	0
50	909	7	10000	3	1	0	3	0
48	910	7	10000	3	1	0	3	0
48	911	7	10000	3	1	0	3	0
49	912	7	10000	3	1	0	3	0
48	913	7	10000	3	1	0	3	0
45	914	7	10000	3	1	0	3	0
48	915	7	10000	3	1	0	3	0
48	916	7	10000	3	1	0	3	0
48	917	7	10000	3	1	0	3	0
47	918	7	10000	3	1	0	3	0
47	919	7	10000	3	1	0	3	0
46	920	7	10000	3	1	0	3	0
45	921	7	10000	3	1	0	3	0
44	922	7	10000	3	1	0	3	0
44	923	7	10000	3	1	0	3	0
45	924	7	10000	3	1	0	3	0
45	925	7	10000	3	1	0	3	0
45	926	7	10000	3	1	0	3	0
43	927	7	10000	3	1	0	3	0
41	928	7	10000	3	1	0	3	0
41	929	7	10000	3	1	0	3	0
43	930	7	10000	3	1	0	3	0
42	931	7	10000	3	1	0	3	0
40	932	7	10000	3	1	0	3	0
40	933	7	10000	3	1	0	3	0
39	934	7	10000	3	1	0	3	0
39	935	7	10000	3	1	0	3	0
37	936	7	10000	3	1	0	3	0
39	937	7	10000	3	1	0	3	0
40	938	7	10000	3	1	0	3	0
38	939	7	10000	3	1	0	3	0
38	940	7	10000	3	1	0	3	0
38	941	7	10000	3	1	0	3	0
38	942	7	10000	3	1	0	3	0
37	943	7	10000	3	1	0	3	0
36	944	7	10000	3	1	0	3	0
38	945	7	10000	3	1	0	3	0
37	946	7	10000	3	1	0	3	0
35	947	7	10000	3	1	0	3	0
34	948	7	10000	3	1	0	3	0
35	949	7	10000	3	1	0	3	0
34	950	7	10000	3	1	0	3	0
34	951	7	10000	3	1	0	3	0
37	952	7	10000	3	1	0	3	0
37	953	7	10000	3	1	0	3	0
40	954	7	10000	3	1	0	3	0
42	955	7	10000	3	1	0	3	0
41	956	7	10000	3	1	0	3	0
42	957	7	10000	3	1	0	3	0
41	958	7	10000	3	1	0	3	0
41	959	7	10000	3	1	0	3	0
42	960	7	10000	3	1	0	3	0
40	961	7	10000	3	1	0	3	0
40	962	7	10000	3	1	0	3	0
40	963	7	10000	3	1	0	3	0
39	964	7	10000	3	1	0	3	0
40	965	7	10000	3	1	0	3	0
40	966	7	10000	3	1	0	3	0
42	967	7	10000	3	1	0	3	0
40	968	7	10000	3	1	0	3	0
39	969	7	10000	3	1	0	3	0
39	970	7	10000	3	1	0	3	0
40	971	7	10000	3	1	0	3	0
39	972	7	10000	3	1	0	3	0
37	973	7	10000	3	1	0	3	0
39	974	7	10000	3	1	0	3	0
38	975	7	10000	3	1	0	3	0
39	976	7	10000	3	1	0	3	0
43	977	7	10000	3	1	0	3	0
43	978	7	10000	3	1	0	3	0
41	979	7	10000	3	1	0	3	0
41	980	7	10000	3	1	0	3	0
40	981	7	10000	3	1	0	3	0
40	982	7	10000	3	1	0	3	0
41	983	7	10000	3	1	0	3	0
40	984	7	10000	3	1	0	3	0
43	985	7	10000	3	1	0	3	0
42	986	7	10000	3	1	0	3	0
39	987	7	10000	3	1	0	3	0
39	988	7	10000	3	1	0	3	0
39	989	7	10000	3	1	0	3	0
41	990	7	10000	3	1	0	3	0
42	991	7	10000	3	1	0	3	0
42	992	7	10000	3	1	0	3	0
42	993	7	10000	3	1	0	3	0
42	994	7	10000	3	1	0	3	0
40	995	7	10000	3	1	0	3	0
44	996	7	10000	3	1	0	3	0
44	997	7	10000	3	1	0	3	0
44	998	7	10000	3	1	0	3	0
43	999	7	10000	3	1	0	3	0
43	1000	7	10000	3	1	0	3	0
43	1001	7	10000	3	1	0	3	0
35	2	0	10000	4	1	0	4	0
33	3	0	10000	4	1	0	4	0
37	4	0	10000	4	1	0	4	0
36	5	0	10000	4	1	0	4	0
37	6	0	10000	4	1	0	4	0
40	7	0	10000	4	1	0	4	0
40	8	0	10000	4	1	0	4	0
37	9	0	10000	4	1	0	4	0
37	10	0	10000	4	1	0	4	0
37	11	0	10000	4	1	0	4	0
36	12	0	10000	4	1	0	4	0
35	13	0	10000	4	1	0	4	0
37	14	0	10000	4	1	0	4	0
37	15	0	10000	4	1	0	4	0
35	16	0	10000	4	1	0	4	0
34	17	0	10000	4	1	0	4	0
35	18	0	10000	4	1	0	4	0
38	19	0	10000	4	1	0	4	0
41	20	0	10000	4	1	0	4	0
41	21	0	10000	4	1	0	4	0
41	22	0	10000	4	1	0	4	0
41	23	0	10000	4	1	0	4	0
42	24	0	10000	4	1	0	4	0
42	25	0	10000	4	1	0	4	0
41	26	0	10000	4	1	0	4	0
43	27	0	10000	4	1	0	4	0
47	28	0	10000	4	1	0	4	0
50	29	0	10000	4	1	0	4	0
50	30	0	10000	4	1	0	4	0
49	31	0	10000	4	1	0	4	0
48	32	0	10000	4	1	0	4	0
49	33	0	10000	4	1	0	4	0
51	34	0	10000	4	1	0	4	0
51	35	0	10000	4	1	0	4	0
49	36	0	10000	4	1	0	4	0
48	37	0	10000	4	1	0	4	0
50	38	0	10000	4	1	0	4	0
50	39	0	10000	4	1	0	4	0
50	40	0	10000	4	1	0	4	0
50	41	0	10000	4	1	0	4	0
48	42	0	10000	4	1	0	4	0
49	43	0	10000	4	1	0	4	0
47	44	0	10000	4	1	0	4	0
45	45	0	10000	4	1	0	4	0
46	46	0	10000	4	1	0	4	0
45	47	0	10000	4	1	0	4	0
43	48	0	10000	4	1	0	4	0
41	49	0	10000	4	1	0	4	0
45	50	0	10000	4	1	0	4	0
45	51	0	10000	4	1	0	4	0
44	52	0	10000	4	1	0	4	0
44	53	0	10000	4	1	0	4	0
45	54	0	10000	4	1	0	4	0
45	55	0	10000	4	1	0	4	0
45	56	0	10000	4	1	0	4	0
50	57	0	10000	4	1	0	4	0
50	58	0	10000	4	1	0	4	0
50	59	0	10000	4	1	0	4	0
49	60	0	10000	4	1	0	4	0
50	61	0	10000	4	1	0	4	0
52	62	0	10000	4	1	0	4	0
55	63	0	10000	4	1	0	4	0
53	64	0	10000	4	1	0	4	0
51	65	0	10000	4	1	0	4	0
51	66	0	10000	4	1	0	4	0
53	67	0	10000	4	1	0	4	0
56	68	0	10000	4	1	0	4	0
58	69	0	10000	4	1	0	4	0
60	70	0	10000	4	1	0	4	0
63	71	0	10000	4	1	0	4	0
62	72	0	10000	4	1	0	4	0
59	73	0	10000	4	1	0	4	0
58	74	0	10000	4	1	0	4	0
59	75	0	10000	4	1	0	4	0
61	76	0	10000	4	1	0	4	0
64	77	0	10000	4	1	0	4	0
72	78	0	10000	4	1	0	4	0
75	79	0	10000	4	1	0	4	0
75	80	0	10000	4	1	0	4	0
74	81	0	10000	4	1	0	4	0
72	82	0	10000	4	1	0	4	0
72	83	0	10000	4	1	0	4	0
70	84	0	10000	4	1	0	4	0
69	85	0	10000	4	1	0	4	0
68	86	0	10000	4	1	0	4	0
70	87	0	10000	4	1	0	4	0
71	88	0	10000	4	1	0	4	0
69	89	0	10000	4	1	0	4	0
72	90	0	10000	4	1	0	4	0
73	91	0	10000	4	1	0	4	0
71	92	0	10000	4	1	0	4	0
70	93	0	10000	4	1	0	4	0
68	94	0	10000	4	1	0	4	0
66	95	0	10000	4	1	0	4	0
65	96	0	10000	4	1	0	4	0
66	97	0	10000	4	1	0	4	0
68	98	0	10000	4	1	0	4	0
68	99	0	10000	4	1	0	4	0
68	100	0	10000	4	1	0	4	0
69	101	0	10000	4	1	0	4	0
70	102	0	10000	4	1	0	4	0
68	103	0	10000	4	1	0	4	0
68	104	0	10000	4	1	0	4	0
66	105	0	10000	4	1	0	4	0
65	106	0	10000	4	1	0	4	0
63	107	0	10000	4	1	0	4	0
60	108	0	10000	4	1	0	4	0
57	109	0	10000	4	1	0	4	0
57	110	0	10000	4	1	0	4	0
57	111	0	10000	4	1	0	4	0
60	112	0	10000	4	1	0	4	0
60	113	0	10000	4	1	0	4	0
59	114	0	10000	4	1	0	4	0
60	115	0	10000	4	1	0	4	0
60	116	0	10000	4	1	0	4	0
58	117	0	10000	4	1	0	4	0
60	118	0	10000	4	1	0	4	0
60	119	0	10000	4	1	0	4	0
59	120	0	10000	4	1	0	4	0
58	121	0	10000	4	1	0	4	0
57	122	0	10000	4	1	0	4	0
55	123	0	10000	4	1	0	4	0
54	124	0	10000	4	1	0	4	0
54	125	0	10000	4	1	0	4	0
54	126	0	10000	4	1	0	4	0
53	127	0	10000	4	1	0	4	0
52	128	0	10000	4	1	0	4	0
53	129	0	10000	4	1	0	4	0
56	130	0	10000	4	1	0	4	0
56	131	0	10000	4	1	0	4	0
56	132	0	10000	4	1	0	4	0
56	133	0	10000	4	1	0	4	0
56	134	0	10000	4	1	0	4	0
56	135	0	10000	4	1	0	4	0
54	136	0	10000	4	1	0	4	0
52	137	0	10000	4	1	0	4	0
52	138	0	10000	4	1	0	4	0
52	139	0	10000	4	1	0	4	0
52	140	0	10000	4	1	0	4	0
52	141	0	10000	4	1	0	4	0
50	142	0	10000	4	1	0	4	0
51	143	0	10000	4	1	0	4	0
49	144	0	10000	4	1	0	4	0
50	145	0	10000	4	1	0	4	0
52	146	0	10000	4	1	0	4	0
49	147	0	10000	4	1	0	4	0
47	148	0	10000	4	1	0	4	0
46	149	0	10000	4	1	0	4	0
46	150	0	10000	4	1	0	4	0
46	151	0	10000	4	1	0	4	0
45	152	0	10000	4	1	0	4	0
46	153	0	10000	4	1	0	4	0
46	154	0	10000	4	1	0	4	0
45	155	0	10000	4	1	0	4	0
45	156	0	10000	4	1	0	4	0
43	157	0	10000	4	1	0	4	0
43	158	0	10000	4	1	0	4	0
43	159	0	10000	4	1	0	4	0
44	160	0	10000	4	1	0	4	0
43	161	0	10000	4	1	0	4	0
42	162	0	10000	4	1	0	4	0
42	163	0	10000	4	1	0	4	0
41	164	0	10000	4	1	0	4	0
41	165	0	10000	4	1	0	4	0
41	166	0	10000	4	1	0	4	0
41	167	0	10000	4	1	0	4	0
42	168	0	10000	4	1	0	4	0
41	169	0	10000	4	1	0	4	0
43	170	0	10000	4	1	0	4	0
42	171	0	10000	4	1	0	4	0
43	172	0	10000	4	1	0	4	0
44	173	0	10000	4	1	0	4	0
44	174	0	10000	4	1	0	4	0
43	175	0	10000	4	1	0	4	0
41	176	0	10000	4	1	0	4	0
41	177	0	10000	4	1	0	4	0
41	178	0	10000	4	1	0	4	0
41	179	0	10000	4	1	0	4	0
41	180	0	10000	4	1	0	4	0
42	181	0	10000	4	1	0	4	0
42	182	0	10000	4	1	0	4	0
41	183	0	10000	4	1	0	4	0
39	184	0	10000	4	1	0	4	0
39	185	0	10000	4	1	0	4	0
41	186	0	10000	4	1	0	4	0
42	187	0	10000	4	1	0	4	0
41	188	0	10000	4	1	0	4	0
39	189	0	10000	4	1	0	4	0
38	190	0	10000	4	1	0	4	0
39	191	0	10000	4	1	0	4	0
42	192	0	10000	4	1	0	4	0
40	193	0	10000	4	1	0	4	0
40	194	0	10000	4	1	0	4	0
39	195	0	10000	4	1	0	4	0
40	196	0	10000	4	1	0	4	0
43	197	0	10000	4	1	0	4	0
45	198	0	10000	4	1	0	4	0
46	199	0	10000	4	1	0	4	0
44	200	0	10000	4	1	0	4	0
43	201	0	10000	4	1	0	4	0
43	202	0	10000	4	1	0	4	0
44	203	0	10000	4	1	0	4	0
41	204	0	10000	4	1	0	4	0
41	205	0	10000	4	1	0	4	0
41	206	0	10000	4	1	0	4	0
41	207	0	10000	4	1	0	4	0
41	208	0	10000	4	1	0	4	0
37	209	0	10000	4	1	0	4	0
39	210	0	10000	4	1	0	4	0
39	211	0	10000	4	1	0	4	0
37	212	0	10000	4	1	0	4	0
37	213	0	10000	4	1	0	4	0
38	214	0	10000	4	1	0	4	0
37	215	0	10000	4	1	0	4	0
36	216	0	10000	4	1	0	4	0
36	217	0	10000	4	1	0	4	0
38	218	0	10000	4	1	0	4	0
40	219	0	10000	4	1	0	4	0
40	220	0	10000	4	1	0	4	0
39	221	0	10000	4	1	0	4	0
38	222	0	10000	4	1	0	4	0
37	223	0	10000	4	1	0	4	0
38	224	0	10000	4	1	0	4	0
40	225	0	10000	4	1	0	4	0
43	226	0	10000	4	1	0	4	0
44	227	0	10000	4	1	0	4	0
44	228	0	10000	4	1	0	4	0
42	229	0	10000	4	1	0	4	0
41	230	0	10000	4	1	0	4	0
44	231	0	10000	4	1	0	4	0
47	232	0	10000	4	1	0	4	0
48	233	0	10000	4	1	0	4	0
50	234	0	10000	4	1	0	4	0
51	235	0	10000	4	1	0	4	0
48	236	0	10000	4	1	0	4	0
46	237	0	10000	4	1	0	4	0
47	238	0	10000	4	1	0	4	0
48	239	0	10000	4	1	0	4	0
46	240	0	10000	4	1	0	4	0
45	241	0	10000	4	1	0	4	0
48	242	0	10000	4	1	0	4	0
47	243	0	10000	4	1	0	4	0
46	244	0	10000	4	1	0	4	0
49	245	0	10000	4	1	0	4	0
47	246	0	10000	4	1	0	4	0
46	247	0	10000	4	1	0	4	0
44	248	0	10000	4	1	0	4	0
43	249	0	10000	4	1	0	4	0
42	250	0	10000	4	1	0	4	0
42	251	0	10000	4	1	0	4	0
41	252	0	10000	4	1	0	4	0
42	253	0	10000	4	1	0	4	0
44	254	0	10000	4	1	0	4	0
45	255	0	10000	4	1	0	4	0
45	256	0	10000	4	1	0	4	0
45	257	0	10000	4	1	0	4	0
46	258	0	10000	4	1	0	4	0
49	259	0	10000	4	1	0	4	0
48	260	0	10000	4	1	0	4	0
47	261	0	10000	4	1	0	4	0
44	262	0	10000	4	1	0	4	0
45	263	0	10000	4	1	0	4	0
45	264	0	10000	4	1	0	4	0
45	265	0	10000	4	1	0	4	0
44	266	0	10000	4	1	0	4	0
45	267	0	10000	4	1	0	4	0
44	268	0	10000	4	1	0	4	0
42	269	0	10000	4	1	0	4	0
42	270	0	10000	4	1	0	4	0
42	271	0	10000	4	1	0	4	0
43	272	0	10000	4	1	0	4	0
44	273	0	10000	4	1	0	4	0
43	274	0	10000	4	1	0	4	0
42	275	0	10000	4	1	0	4	0
42	276	0	10000	4	1	0	4	0
45	277	0	10000	4	1	0	4	0
45	278	0	10000	4	1	0	4	0
47	279	0	10000	4	1	0	4	0
47	280	0	10000	4	1	0	4	0
48	281	0	10000	4	1	0	4	0
47	282	0	10000	4	1	0	4	0
44	283	0	10000	4	1	0	4	0
45	284	0	10000	4	1	0	4	0
44	285	0	10000	4	1	0	4	0
43	286	0	10000	4	1	0	4	0
43	287	0	10000	4	1	0	4	0
44	288	0	10000	4	1	0	4	0
41	289	0	10000	4	1	0	4	0
39	290	0	10000	4	1	0	4	0
41	291	0	10000	4	1	0	4	0
41	292	0	10000	4	1	0	4	0
40	293	0	10000	4	1	0	4	0
39	294	0	10000	4	1	0	4	0
39	295	0	10000	4	1	0	4	0
40	296	0	10000	4	1	0	4	0
42	297	0	10000	4	1	0	4	0
43	298	0	10000	4	1	0	4	0
46	299	0	10000	4	1	0	4	0
47	300	0	10000	4	1	0	4	0
46	301	0	10000	4	1	0	4	0
48	302	0	10000	4	1	0	4	0
47	303	0	10000	4	1	0	4	0
47	304	0	10000	4	1	0	4	0
47	305	0	10000	4	1	0	4	0
47	306	0	10000	4	1	0	4	0
48	307	0	10000	4	1	0	4	0
46	308	0	10000	4	1	0	4	0
45	309	0	10000	4	1	0	4	0
45	310	0	10000	4	1	0	4	0
44	311	0	10000	4	1	0	4	0
46	312	0	10000	4	1	0	4	0
49	313	0	10000	4	1	0	4	0
51	314	0	10000	4	1	0	4	0
51	315	0	10000	4	1	0	4	0
55	316	0	10000	4	1	0	4	0
51	317	0	10000	4	1	0	4	0
51	318	0	10000	4	1	0	4	0
51	319	0	10000	4	1	0	4	0
50	320	0	10000	4	1	0	4	0
51	321	0	10000	4	1	0	4	0
53	322	0	10000	4	1	0	4	0
52	323	0	10000	4	1	0	4	0
51	324	0	10000	4	1	0	4	0
49	325	0	10000	4	1	0	4	0
48	326	0	10000	4	1	0	4	0
49	327	0	10000	4	1	0	4	0
47	328	0	10000	4	1	0	4	0
45	329	0	10000	4	1	0	4	0
46	330	0	10000	4	1	0	4	0
46	331	0	10000	4	1	0	4	0
47	332	0	10000	4	1	0	4	0
47	333	0	10000	4	1	0	4	0
46	334	0	10000	4	1	0	4	0
44	335	0	10000	4	1	0	4	0
42	336	0	10000	4	1	0	4	0
43	337	0	10000	4	1	0	4	0
44	338	0	10000	4	1	0	4	0
44	339	0	10000	4	1	0	4	0
43	340	0	10000	4	1	0	4	0
43	341	0	10000	4	1	0	4	0
41	342	0	10000	4	1	0	4	0
39	343	0	10000	4	1	0	4	0
42	344	0	10000	4	1	0	4	0
41	345	0	10000	4	1	0	4	0
41	346	0	10000	4	1	0	4	0
43	347	0	10000	4	1	0	4	0
43	348	0	10000	4	1	0	4	0
42	349	0	10000	4	1	0	4	0
43	350	0	10000	4	1	0	4	0
42	351	0	10000	4	1	0	4	0
43	352	0	10000	4	1	0	4	0
43	353	0	10000	4	1	0	4	0
43	354	0	10000	4	1	0	4	0
42	355	0	10000	4	1	0	4	0
40	356	0	10000	4	1	0	4	0
38	357	0	10000	4	1	0	4	0
41	358	0	10000	4	1	0	4	0
42	359	0	10000	4	1	0	4	0
43	360	0	10000	4	1	0	4	0
41	361	0	10000	4	1	0	4	0
40	362	0	10000	4	1	0	4	0
42	363	0	10000	4	1	0	4	0
44	364	0	10000	4	1	0	4	0
44	365	0	10000	4	1	0	4	0
44	366	0	10000	4	1	0	4	0
44	367	0	10000	4	1	0	4	0
42	368	0	10000	4	1	0	4	0
43	369	0	10000	4	1	0	4	0
41	370	0	10000	4	1	0	4	0
40	371	0	10000	4	1	0	4	0
40	372	0	10000	4	1	0	4	0
41	373	0	10000	4	1	0	4	0
42	374	0	10000	4	1	0	4	0
43	375	0	10000	4	1	0	4	0
42	376	0	10000	4	1	0	4	0
41	377	0	10000	4	1	0	4	0
41	378	0	10000	4	1	0	4	0
42	379	0	10000	4	1	0	4	0
41	380	0	10000	4	1	0	4	0
40	381	0	10000	4	1	0	4	0
38	382	0	10000	4	1	0	4	0
42	383	0	10000	4	1	0	4	0
42	384	0	10000	4	1	0	4	0
42	385	0	10000	4	1	0	4	0
45	386	0	10000	4	1	0	4	0
47	387	0	10000	4	1	0	4	0
45	388	0	10000	4	1	0	4	0
43	389	0	10000	4	1	0	4	0
42	390	0	10000	4	1	0	4	0
44	391	0	10000	4	1	0	4	0
47	392	0	10000	4	1	0	4	0
47	393	0	10000	4	1	0	4	0
47	394	0	10000	4	1	0	4	0
45	395	0	10000	4	1	0	4	0
43	396	0	10000	4	1	0	4	0
44	397	0	10000	4	1	0	4	0
44	398	0	10000	4	1	0	4	0
46	399	0	10000	4	1	0	4	0
46	400	0	10000	4	1	0	4	0
45	401	0	10000	4	1	0	4	0
43	402	0	10000	4	1	0	4	0
43	403	0	10000	4	1	0	4	0
44	404	0	10000	4	1	0	4	0
44	405	0	10000	4	1	0	4	0
42	406	0	10000	4	1	0	4	0
42	407	0	10000	4	1	0	4	0
41	408	0	10000	4	1	0	4	0
40	409	0	10000	4	1	0	4	0
39	410	0	10000	4	1	0	4	0
39	411	0	10000	4	1	0	4	0
41	412	0	10000	4	1	0	4	0
40	413	0	10000	4	1	0	4	0
39	414	0	10000	4	1	0	4	0
40	415	0	10000	4	1	0	4	0
38	416	0	10000	4	1	0	4	0
36	417	0	10000	4	1	0	4	0
38	418	0	10000	4	1	0	4	0
39	419	0	10000	4	1	0	4	0
37	420	0	10000	4	1	0	4	0
37	421	0	10000	4	1	0	4	0
36	422	0	10000	4	1	0	4	0
36	423	0	10000	4	1	0	4	0
37	424	0	10000	4	1	0	4	0
37	425	0	10000	4	1	0	4	0
37	426	0	10000	4	1	0	4	0
36	427	0	10000	4	1	0	4	0
36	428	0	10000	4	1	0	4	0
37	429	0	10000	4	1	0	4	0
36	430	0	10000	4	1	0	4	0
36	431	0	10000	4	1	0	4	0
35	432	0	10000	4	1	0	4	0
36	433	0	10000	4	1	0	4	0
35	434	0	10000	4	1	0	4	0
34	435	0	10000	4	1	0	4	0
34	436	0	10000	4	1	0	4	0
34	437	0	10000	4	1	0	4	0
33	438	0	10000	4	1	0	4	0
34	439	0	10000	4	1	0	4	0
34	440	0	10000	4	1	0	4	0
34	441	0	10000	4	1	0	4	0
35	442	0	10000	4	1	0	4	0
35	443	0	10000	4	1	0	4	0
34	444	0	10000	4	1	0	4	0
36	445	0	10000	4	1	0	4	0
37	446	0	10000	4	1	0	4	0
38	447	0	10000	4	1	0	4	0
37	448	0	10000	4	1	0	4	0
34	449	0	10000	4	1	0	4	0
34	450	0	10000	4	1	0	4	0
35	451	0	10000	4	1	0	4	0
35	452	0	10000	4	1	0	4	0
34	453	0	10000	4	1	0	4	0
33	454	0	10000	4	1	0	4	0
34	455	0	10000	4	1	0	4	0
32	456	0	10000	4	1	0	4	0
33	457	0	10000	4	1	0	4	0
33	458	0	10000	4	1	0	4	0
34	459	0	10000	4	1	0	4	0
33	460	0	10000	4	1	0	4	0
34	461	0	10000	4	1	0	4	0
34	462	0	10000	4	1	0	4	0
34	463	0	10000	4	1	0	4	0
34	464	0	10000	4	1	0	4	0
34	465	0	10000	4	1	0	4	0
35	466	0	10000	4	1	0	4	0
35	467	0	10000	4	1	0	4	0
35	468	0	10000	4	1	0	4	0
34	469	0	10000	4	1	0	4	0
34	470	0	10000	4	1	0	4	0
34	471	0	10000	4	1	0	4	0
35	472	0	10000	4	1	0	4	0
36	473	0	10000	4	1	0	4	0
36	474	0	10000	4	1	0	4	0
39	475	0	10000	4	1	0	4	0
38	476	0	10000	4	1	0	4	0
35	477	0	10000	4	1	0	4	0
36	478	0	10000	4	1	0	4	0
39	479	0	10000	4	1	0	4	0
42	480	0	10000	4	1	0	4	0
43	481	0	10000	4	1	0	4	0
42	482	0	10000	4	1	0	4	0
42	483	0	10000	4	1	0	4	0
41	484	0	10000	4	1	0	4	0
42	485	0	10000	4	1	0	4	0
46	486	0	10000	4	1	0	4	0
44	487	0	10000	4	1	0	4	0
42	488	0	10000	4	1	0	4	0
41	489	0	10000	4	1	0	4	0
42	490	0	10000	4	1	0	4	0
40	491	0	10000	4	1	0	4	0
41	492	0	10000	4	1	0	4	0
39	493	0	10000	4	1	0	4	0
41	494	0	10000	4	1	0	4	0
39	495	0	10000	4	1	0	4	0
39	496	0	10000	4	1	0	4	0
38	497	0	10000	4	1	0	4	0
39	498	0	10000	4	1	0	4	0
40	499	0	10000	4	1	0	4	0
40	500	0	10000	4	1	0	4	0
40	501	0	10000	4	1	0	4	0
40	501	0	10000	4	1	0	4	1
40	502	0	10000	4	1	0	4	1
40	504	0	10000	4	1	0	4	1
39	505	0	10000	4	1	0	4	1
39	506	0	10000	4	1	0	4	1
40	507	0	10000	4	1	0	4	1
40	508	0	10000	4	1	0	4	1
37	509	0	10000	4	1	0	4	1
38	510	0	10000	4	1	0	4	1
39	511	0	10000	4	1	0	4	1
39	512	0	10000	4	1	0	4	1
41	513	0	10000	4	1	0	4	1
42	514	0	10000	4	1	0	4	1
45	515	0	10000	4	1	0	4	1
45	516	0	10000	4	1	0	4	1
45	517	0	10000	4	1	0	4	1
45	518	0	10000	4	1	0	4	1
47	519	0	10000	4	1	0	4	1
47	520	0	10000	4	1	0	4	1
46	521	0	10000	4	1	0	4	1
45	522	0	10000	4	1	0	4	1
44	523	0	10000	4	1	0	4	1
44	524	0	10000	4	1	0	4	1
49	525	0	10000	4	1	0	4	1
51	526	0	10000	4	1	0	4	1
51	527	0	10000	4	1	0	4	1
53	528	0	10000	4	1	0	4	1
55	529	0	10000	4	1	0	4	1
53	530	0	10000	4	1	0	4	1
52	531	0	10000	4	1	0	4	1
52	532	0	10000	4	1	0	4	1
52	533	0	10000	4	1	0	4	1
54	534	0	10000	4	1	0	4	1
55	535	0	10000	4	1	0	4	1
57	536	0	10000	4	1	0	4	1
59	537	0	10000	4	1	0	4	1
60	538	0	10000	4	1	0	4	1
61	539	0	10000	4	1	0	4	1
58	540	0	10000	4	1	0	4	1
56	541	0	10000	4	1	0	4	1
54	542	0	10000	4	1	0	4	1
54	543	0	10000	4	1	0	4	1
51	544	0	10000	4	1	0	4	1
49	545	0	10000	4	1	0	4	1
51	546	0	10000	4	1	0	4	1
50	547	0	10000	4	1	0	4	1
49	548	0	10000	4	1	0	4	1
46	549	0	10000	4	1	0	4	1
47	550	0	10000	4	1	0	4	1
46	551	0	10000	4	1	0	4	1
45	552	0	10000	4	1	0	4	0
45	553	0	10000	4	1	0	4	0
45	554	0	10000	4	1	0	4	0
44	555	0	10000	4	1	0	4	0
42	556	0	10000	4	1	0	4	0
42	557	0	10000	4	1	0	4	0
41	558	0	10000	4	1	0	4	0
40	559	0	10000	4	1	0	4	0
41	560	0	10000	4	1	0	4	0
40	561	0	10000	4	1	0	4	0
41	562	0	10000	4	1	0	4	0
41	563	0	10000	4	1	0	4	0
42	564	0	10000	4	1	0	4	0
39	565	0	10000	4	1	0	4	0
39	566	0	10000	4	1	0	4	0
39	567	0	10000	4	1	0	4	0
39	568	0	10000	4	1	0	4	0
40	569	0	10000	4	1	0	4	0
45	570	0	10000	4	1	0	4	0
46	571	0	10000	4	1	0	4	0
47	572	0	10000	4	1	0	4	0
46	573	0	10000	4	1	0	4	0
48	574	0	10000	4	1	0	4	0
50	575	0	10000	4	1	0	4	0
50	576	0	10000	4	1	0	4	0
49	577	0	10000	4	1	0	4	0
53	578	0	10000	4	1	0	4	0
53	579	0	10000	4	1	0	4	0
50	580	0	10000	4	1	0	4	0
50	581	0	10000	4	1	0	4	0
52	582	0	10000	4	1	0	4	0
50	583	0	10000	4	1	0	4	0
50	584	0	10000	4	1	0	4	0
50	585	0	10000	4	1	0	4	0
48	586	0	10000	4	1	0	4	0
47	587	0	10000	4	1	0	4	0
46	588	0	10000	4	1	0	4	0
47	589	0	10000	4	1	0	4	0
45	590	0	10000	4	1	0	4	0
44	591	0	10000	4	1	0	4	0
45	592	0	10000	4	1	0	4	0
45	593	0	10000	4	1	0	4	0
45	594	0	10000	4	1	0	4	0
46	595	0	10000	4	1	0	4	0
45	596	0	10000	4	1	0	4	0
45	597	0	10000	4	1	0	4	0
46	598	0	10000	4	1	0	4	0
52	599	0	10000	4	1	0	4	0
51	600	0	10000	4	1	0	4	0
52	601	0	10000	4	1	0	4	0
52	602	0	10000	4	1	0	4	0
56	603	0	10000	4	1	0	4	0
59	604	0	10000	4	1	0	4	0
58	605	0	10000	4	1	0	4	0
59	606	0	10000	4	1	0	4	0
63	607	0	10000	4	1	0	4	0
63	608	0	10000	4	1	0	4	0
60	609	0	10000	4	1	0	4	0
68	610	0	10000	4	1	0	4	0
71	611	0	10000	4	1	0	4	0
70	612	0	10000	4	1	0	4	0
69	613	0	10000	4	1	0	4	0
72	614	0	10000	4	1	0	4	0
74	615	0	10000	4	1	0	4	0
75	616	0	10000	4	1	0	4	0
73	617	0	10000	4	1	0	4	0
71	618	0	10000	4	1	0	4	0
71	619	0	10000	4	1	0	4	0
69	620	0	10000	4	1	0	4	0
68	621	0	10000	4	1	0	4	0
67	622	0	10000	4	1	0	4	0
64	623	0	10000	4	1	0	4	0
65	624	0	10000	4	1	0	4	0
64	625	0	10000	4	1	0	4	0
61	626	0	10000	4	1	0	4	0
61	627	0	10000	4	1	0	4	0
62	628	0	10000	4	1	0	4	0
57	629	0	10000	4	1	0	4	0
56	630	0	10000	4	1	0	4	0
59	631	0	10000	4	1	0	4	0
60	632	0	10000	4	1	0	4	0
60	633	0	10000	4	1	0	4	0
60	634	0	10000	4	1	0	4	0
60	635	0	10000	4	1	0	4	0
57	636	0	10000	4	1	0	4	0
55	637	0	10000	4	1	0	4	0
55	638	0	10000	4	1	0	4	0
56	639	0	10000	4	1	0	4	0
54	640	0	10000	4	1	0	4	0
53	641	0	10000	4	1	0	4	0
51	642	0	10000	4	1	0	4	0
52	643	0	10000	4	1	0	4	0
51	644	0	10000	4	1	0	4	0
51	645	0	10000	4	1	0	4	0
51	646	0	10000	4	1	0	4	0
50	647	0	10000	4	1	0	4	0
48	648	0	10000	4	1	0	4	0
47	649	0	10000	4	1	0	4	0
47	650	0	10000	4	1	0	4	0
47	651	0	10000	4	1	0	4	0
48	652	0	10000	4	1	0	4	0
48	653	0	10000	4	1	0	4	0
49	654	0	10000	4	1	0	4	0
50	655	0	10000	4	1	0	4	0
49	656	0	10000	4	1	0	4	0
52	657	0	10000	4	1	0	4	0
56	658	0	10000	4	1	0	4	0
61	659	0	10000	4	1	0	4	0
58	660	0	10000	4	1	0	4	0
60	661	0	10000	4	1	0	4	0
60	662	0	10000	4	1	0	4	0
60	663	0	10000	4	1	0	4	0
63	664	0	10000	4	1	0	4	0
65	665	0	10000	4	1	0	4	0
64	666	0	10000	4	1	0	4	0
64	667	0	10000	4	1	0	4	0
61	668	0	10000	4	1	0	4	0
60	669	0	10000	4	1	0	4	0
61	670	0	10000	4	1	0	4	0
62	671	0	10000	4	1	0	4	0
64	672	0	10000	4	1	0	4	0
65	673	0	10000	4	1	0	4	0
62	674	0	10000	4	1	0	4	0
62	675	0	10000	4	1	0	4	0
59	676	0	10000	4	1	0	4	0
58	677	0	10000	4	1	0	4	0
57	678	0	10000	4	1	0	4	0
58	679	0	10000	4	1	0	4	0
56	680	0	10000	4	1	0	4	0
55	681	0	10000	4	1	0	4	0
56	682	0	10000	4	1	0	4	0
57	683	0	10000	4	1	0	4	0
58	684	0	10000	4	1	0	4	0
58	685	0	10000	4	1	0	4	0
60	686	0	10000	4	1	0	4	0
61	687	0	10000	4	1	0	4	0
59	688	0	10000	4	1	0	4	0
58	689	0	10000	4	1	0	4	0
60	690	0	10000	4	1	0	4	0
59	691	0	10000	4	1	0	4	0
58	692	0	10000	4	1	0	4	0
58	693	0	10000	4	1	0	4	0
56	694	0	10000	4	1	0	4	0
54	695	0	10000	4	1	0	4	0
57	696	0	10000	4	1	0	4	0
57	697	0	10000	4	1	0	4	0
58	698	0	10000	4	1	0	4	0
59	699	0	10000	4	1	0	4	0
58	700	0	10000	4	1	0	4	0
56	701	0	10000	4	1	0	4	0
56	702	0	10000	4	1	0	4	0
57	703	0	10000	4	1	0	4	0
56	704	0	10000	4	1	0	4	0
57	705	0	10000	4	1	0	4	0
61	706	0	10000	4	1	0	4	0
60	707	0	10000	4	1	0	4	0
57	708	0	10000	4	1	0	4	0
55	709	0	10000	4	1	0	4	0
54	710	0	10000	4	1	0	4	0
55	711	0	10000	4	1	0	4	0
54	712	0	10000	4	1	0	4	0
54	713	0	10000	4	1	0	4	0
53	714	0	10000	4	1	0	4	0
52	715	0	10000	4	1	0	4	0
52	716	0	10000	4	1	0	4	0
54	717	0	10000	4	1	0	4	0
55	718	0	10000	4	1	0	4	0
56	719	0	10000	4	1	0	4	0
57	720	0	10000	4	1	0	4	0
56	721	0	10000	4	1	0	4	0
53	722	0	10000	4	1	0	4	0
51	723	0	10000	4	1	0	4	0
51	724	0	10000	4	1	0	4	0
51	725	0	10000	4	1	0	4	0
51	726	0	10000	4	1	0	4	0
53	727	0	10000	4	1	0	4	0
51	728	0	10000	4	1	0	4	0
51	729	0	10000	4	1	0	4	0
53	730	0	10000	4	1	0	4	0
52	731	0	10000	4	1	0	4	0
50	732	0	10000	4	1	0	4	0
50	733	0	10000	4	1	0	4	0
52	734	0	10000	4	1	0	4	0
52	735	0	10000	4	1	0	4	0
52	736	0	10000	4	1	0	4	0
50	737	0	10000	4	1	0	4	0
53	738	0	10000	4	1	0	4	0
52	739	0	10000	4	1	0	4	0
50	740	0	10000	4	1	0	4	0
49	741	0	10000	4	1	0	4	0
48	742	0	10000	4	1	0	4	0
48	743	0	10000	4	1	0	4	0
48	744	0	10000	4	1	0	4	0
47	745	0	10000	4	1	0	4	0
48	746	0	10000	4	1	0	4	0
46	747	0	10000	4	1	0	4	0
47	748	0	10000	4	1	0	4	0
48	749	0	10000	4	1	0	4	0
47	750	0	10000	4	1	0	4	0
46	751	0	10000	4	1	0	4	0
48	752	0	10000	4	1	0	4	0
49	753	0	10000	4	1	0	4	0
53	754	0	10000	4	1	0	4	0
53	755	0	10000	4	1	0	4	0
51	756	0	10000	4	1	0	4	0
50	757	0	10000	4	1	0	4	0
52	758	0	10000	4	1	0	4	0
59	759	0	10000	4	1	0	4	0
58	760	0	10000	4	1	0	4	0
58	761	0	10000	4	1	0	4	0
57	762	0	10000	4	1	0	4	0
56	763	0	10000	4	1	0	4	0
55	764	0	10000	4	1	0	4	0
55	765	0	10000	4	1	0	4	0
57	766	0	10000	4	1	0	4	0
56	767	0	10000	4	1	0	4	0
54	768	0	10000	4	1	0	4	0
51	769	0	10000	4	1	0	4	0
51	770	0	10000	4	1	0	4	0
52	771	0	10000	4	1	0	4	0
52	772	0	10000	4	1	0	4	0
51	773	0	10000	4	1	0	4	0
50	774	0	10000	4	1	0	4	0
47	775	0	10000	4	1	0	4	0
47	776	0	10000	4	1	0	4	0
46	777	0	10000	4	1	0	4	0
48	778	0	10000	4	1	0	4	0
50	779	0	10000	4	1	0	4	0
50	780	0	10000	4	1	0	4	0
51	781	0	10000	4	1	0	4	0
54	782	0	10000	4	1	0	4	0
55	783	0	10000	4	1	0	4	0
53	784	0	10000	4	1	0	4	0
51	785	0	10000	4	1	0	4	0
50	786	0	10000	4	1	0	4	0
53	787	0	10000	4	1	0	4	0
52	788	0	10000	4	1	0	4	0
49	789	0	10000	4	1	0	4	0
49	790	0	10000	4	1	0	4	0
52	791	0	10000	4	1	0	4	0
50	792	0	10000	4	1	0	4	0
48	793	0	10000	4	1	0	4	0
48	794	0	10000	4	1	0	4	0
47	795	0	10000	4	1	0	4	0
44	796	0	10000	4	1	0	4	0
43	797	0	10000	4	1	0	4	0
46	798	0	10000	4	1	0	4	0
45	799	0	10000	4	1	0	4	0
44	800	0	10000	4	1	0	4	0
45	801	0	10000	4	1	0	4	0
45	802	0	10000	4	1	0	4	0
43	803	0	10000	4	1	0	4	0
42	804	0	10000	4	1	0	4	0
42	805	0	10000	4	1	0	4	0
42	806	0	10000	4	1	0	4	0
41	807	0	10000	4	1	0	4	0
41	808	0	10000	4	1	0	4	0
39	809	0	10000	4	1	0	4	0
40	810	0	10000	4	1	0	4	0
41	811	0	10000	4	1	0	4	0
40	812	0	10000	4	1	0	4	0
41	813	0	10000	4	1	0	4	0
43	814	0	10000	4	1	0	4	0
43	815	0	10000	4	1	0	4	0
43	816	0	10000	4	1	0	4	0
43	817	0	10000	4	1	0	4	0
44	818	0	10000	4	1	0	4	0
46	819	0	10000	4	1	0	4	0
44	820	0	10000	4	1	0	4	0
42	821	0	10000	4	1	0	4	0
41	822	0	10000	4	1	0	4	0
41	823	0	10000	4	1	0	4	0
41	824	0	10000	4	1	0	4	0
39	825	0	10000	4	1	0	4	0
41	826	0	10000	4	1	0	4	0
41	827	0	10000	4	1	0	4	0
41	828	0	10000	4	1	0	4	0
42	829	0	10000	4	1	0	4	0
41	830	0	10000	4	1	0	4	0
40	831	0	10000	4	1	0	4	0
40	832	0	10000	4	1	0	4	0
41	833	0	10000	4	1	0	4	0
43	834	0	10000	4	1	0	4	0
44	835	0	10000	4	1	0	4	0
43	836	0	10000	4	1	0	4	0
45	837	0	10000	4	1	0	4	0
52	838	0	10000	4	1	0	4	0
56	839	0	10000	4	1	0	4	0
56	840	0	10000	4	1	0	4	0
59	841	0	10000	4	1	0	4	0
59	842	0	10000	4	1	0	4	0
59	843	0	10000	4	1	0	4	0
59	844	0	10000	4	1	0	4	0
59	845	0	10000	4	1	0	4	0
57	846	0	10000	4	1	0	4	0
57	847	0	10000	4	1	0	4	0
58	848	0	10000	4	1	0	4	0
56	849	0	10000	4	1	0	4	0
56	850	0	10000	4	1	0	4	0
57	851	0	10000	4	1	0	4	0
57	852	0	10000	4	1	0	4	0
56	853	0	10000	4	1	0	4	0
55	854	0	10000	4	1	0	4	0
55	855	0	10000	4	1	0	4	0
54	856	0	10000	4	1	0	4	0
53	857	0	10000	4	1	0	4	0
54	858	0	10000	4	1	0	4	0
54	859	0	10000	4	1	0	4	0
53	860	0	10000	4	1	0	4	0
55	861	0	10000	4	1	0	4	0
53	862	0	10000	4	1	0	4	0
54	863	0	10000	4	1	0	4	0
53	864	0	10000	4	1	0	4	0
53	865	0	10000	4	1	0	4	0
52	866	0	10000	4	1	0	4	0
50	867	0	10000	4	1	0	4	0
48	868	0	10000	4	1	0	4	0
48	869	0	10000	4	1	0	4	0
46	870	0	10000	4	1	0	4	0
45	871	0	10000	4	1	0	4	0
45	872	0	10000	4	1	0	4	0
45	873	0	10000	4	1	0	4	0
43	874	0	10000	4	1	0	4	0
42	875	0	10000	4	1	0	4	0
43	876	0	10000	4	1	0	4	0
41	877	0	10000	4	1	0	4	0
40	878	0	10000	4	1	0	4	0
42	879	0	10000	4	1	0	4	0
43	880	0	10000	4	1	0	4	0
40	881	0	10000	4	1	0	4	0
39	882	0	10000	4	1	0	4	0
39	883	0	10000	4	1	0	4	0
40	884	0	10000	4	1	0	4	0
40	885	0	10000	4	1	0	4	0
41	886	0	10000	4	1	0	4	0
41	887	0	10000	4	1	0	4	0
41	888	0	10000	4	1	0	4	0
38	889	0	10000	4	1	0	4	0
38	890	0	10000	4	1	0	4	0
39	891	0	10000	4	1	0	4	0
40	892	0	10000	4	1	0	4	0
40	893	0	10000	4	1	0	4	0
40	894	0	10000	4	1	0	4	0
40	895	0	10000	4	1	0	4	0
39	896	0	10000	4	1	0	4	0
40	897	0	10000	4	1	0	4	0
39	898	0	10000	4	1	0	4	0
39	899	0	10000	4	1	0	4	0
38	900	0	10000	4	1	0	4	0
41	901	0	10000	4	1	0	4	0
41	902	0	10000	4	1	0	4	0
43	903	0	10000	4	1	0	4	0
43	904	0	10000	4	1	0	4	0
42	905	0	10000	4	1	0	4	0
44	906	0	10000	4	1	0	4	0
43	907	0	10000	4	1	0	4	0
43	908	0	10000	4	1	0	4	0
40	909	0	10000	4	1	0	4	0
39	910	0	10000	4	1	0	4	0
39	911	0	10000	4	1	0	4	0
39	912	0	10000	4	1	0	4	0
38	913	0	10000	4	1	0	4	0
38	914	0	10000	4	1	0	4	0
40	915	0	10000	4	1	0	4	0
39	916	0	10000	4	1	0	4	0
39	917	0	10000	4	1	0	4	0
41	918	0	10000	4	1	0	4	0
44	919	0	10000	4	1	0	4	0
44	920	0	10000	4	1	0	4	0
42	921	0	10000	4	1	0	4	0
46	922	0	10000	4	1	0	4	0
46	923	0	10000	4	1	0	4	0
45	924	0	10000	4	1	0	4	0
44	925	0	10000	4	1	0	4	0
44	926	0	10000	4	1	0	4	0
44	927	0	10000	4	1	0	4	0
42	928	0	10000	4	1	0	4	0
40	929	0	10000	4	1	0	4	0
41	930	0	10000	4	1	0	4	0
41	931	0	10000	4	1	0	4	0
40	932	0	10000	4	1	0	4	0
40	933	0	10000	4	1	0	4	0
41	934	0	10000	4	1	0	4	0
41	935	0	10000	4	1	0	4	0
40	936	0	10000	4	1	0	4	0
43	937	0	10000	4	1	0	4	0
43	938	0	10000	4	1	0	4	0
46	939	0	10000	4	1	0	4	0
46	940	0	10000	4	1	0	4	0
46	941	0	10000	4	1	0	4	0
48	942	0	10000	4	1	0	4	0
49	943	0	10000	4	1	0	4	0
47	944	0	10000	4	1	0	4	0
46	945	0	10000	4	1	0	4	0
45	946	0	10000	4	1	0	4	0
46	947	0	10000	4	1	0	4	0
55	948	0	10000	4	1	0	4	0
60	949	0	10000	4	1	0	4	0
64	950	0	10000	4	1	0	4	0
63	951	0	10000	4	1	0	4	0
62	952	0	10000	4	1	0	4	0
62	953	0	10000	4	1	0	4	0
64	954	0	10000	4	1	0	4	0
63	955	0	10000	4	1	0	4	0
64	956	0	10000	4	1	0	4	0
65	957	0	10000	4	1	0	4	0
70	958	0	10000	4	1	0	4	0
80	959	0	10000	4	1	0	4	0
87	960	0	10000	4	1	0	4	0
92	961	0	10000	4	1	0	4	0
101	962	0	10000	4	1	0	4	0
105	963	0	10000	4	1	0	4	0
105	964	0	10000	4	1	0	4	0
102	965	0	10000	4	1	0	4	0
101	966	0	10000	4	1	0	4	0
100	967	0	10000	4	1	0	4	0
98	968	0	10000	4	1	0	4	0
99	969	0	10000	4	1	0	4	0
101	970	0	10000	4	1	0	4	0
102	971	0	10000	4	1	0	4	0
97	972	0	10000	4	1	0	4	0
95	973	0	10000	4	1	0	4	0
95	974	0	10000	4	1	0	4	0
91	975	0	10000	4	1	0	4	0
91	976	0	10000	4	1	0	4	0
89	977	0	10000	4	1	0	4	0
87	978	0	10000	4	1	0	4	0
88	979	0	10000	4	1	0	4	0
91	980	0	10000	4	1	0	4	0
89	981	0	10000	4	1	0	4	0
88	982	0	10000	4	1	0	4	0
86	983	0	10000	4	1	0	4	0
83	984	0	10000	4	1	0	4	0
80	985	0	10000	4	1	0	4	0
79	986	0	10000	4	1	0	4	0
77	987	0	10000	4	1	0	4	0
77	988	0	10000	4	1	0	4	0
79	989	0	10000	4	1	0	4	0
81	990	0	10000	4	1	0	4	0
80	991	0	10000	4	1	0	4	0
79	992	0	10000	4	1	0	4	0
80	993	0	10000	4	1	0	4	0
79	994	0	10000	4	1	0	4	0
81	995	0	10000	4	1	0	4	0
86	996	0	10000	4	1	0	4	0
88	997	0	10000	4	1	0	4	0
92	998	0	10000	4	1	0	4	0
94	999	0	10000	4	1	0	4	0
96	1000	0	10000	4	1	0	4	0
95	1001	0	10000	4	1	0	4	0
61	2	7	10000	5	1	0	5	0
64	3	7	10000	5	1	0	5	0
65	4	7	10000	5	1	0	5	0
65	5	7	10000	5	1	0	5	0
65	6	7	10000	5	1	0	5	0
64	7	7	10000	5	1	0	5	0
62	8	7	10000	5	1	0	5	0
60	9	7	10000	5	1	0	5	0
64	10	7	10000	5	1	0	5	0
63	11	7	10000	5	1	0	5	0
61	12	7	10000	5	1	0	5	0
60	13	7	10000	5	1	0	5	0
60	14	7	10000	5	1	0	5	0
57	15	7	10000	5	1	0	5	0
56	16	7	10000	5	1	0	5	0
56	17	7	10000	5	1	0	5	0
53	18	7	10000	5	1	0	5	0
53	19	7	10000	5	1	0	5	0
50	20	7	10000	5	1	0	5	0
52	21	7	10000	5	1	0	5	0
50	22	7	10000	5	1	0	5	0
49	23	7	10000	5	1	0	5	0
50	24	7	10000	5	1	0	5	0
48	25	7	10000	5	1	0	5	0
46	26	7	10000	5	1	0	5	0
45	27	7	10000	5	1	0	5	0
44	28	7	10000	5	1	0	5	0
42	29	7	10000	5	1	0	5	0
43	30	7	10000	5	1	0	5	0
43	31	7	10000	5	1	0	5	0
43	32	7	10000	5	1	0	5	0
43	33	7	10000	5	1	0	5	0
44	34	7	10000	5	1	0	5	0
43	35	7	10000	5	1	0	5	0
43	36	7	10000	5	1	0	5	0
42	37	7	10000	5	1	0	5	0
43	38	7	10000	5	1	0	5	0
42	39	7	10000	5	1	0	5	0
38	40	7	10000	5	1	0	5	0
38	41	7	10000	5	1	0	5	0
39	42	7	10000	5	1	0	5	0
38	43	7	10000	5	1	0	5	0
36	44	7	10000	5	1	0	5	0
39	45	7	10000	5	1	0	5	0
37	46	7	10000	5	1	0	5	0
35	47	7	10000	5	1	0	5	0
36	48	7	10000	5	1	0	5	0
34	49	7	10000	5	1	0	5	0
36	50	7	10000	5	1	0	5	0
36	51	7	10000	5	1	0	5	0
41	52	7	10000	5	1	0	5	0
41	53	7	10000	5	1	0	5	0
40	54	7	10000	5	1	0	5	0
40	55	7	10000	5	1	0	5	0
39	56	7	10000	5	1	0	5	0
39	57	7	10000	5	1	0	5	0
38	58	7	10000	5	1	0	5	0
41	59	7	10000	5	1	0	5	0
39	60	7	10000	5	1	0	5	0
43	61	7	10000	5	1	0	5	0
46	62	7	10000	5	1	0	5	0
50	63	7	10000	5	1	0	5	0
53	64	7	10000	5	1	0	5	0
53	65	7	10000	5	1	0	5	0
53	66	7	10000	5	1	0	5	0
56	67	7	10000	5	1	0	5	0
61	68	7	10000	5	1	0	5	0
63	69	7	10000	5	1	0	5	0
66	70	7	10000	5	1	0	5	0
64	71	7	10000	5	1	0	5	0
61	72	7	10000	5	1	0	5	0
60	73	7	10000	5	1	0	5	0
63	74	7	10000	5	1	0	5	0
68	75	7	10000	5	1	0	5	0
68	76	7	10000	5	1	0	5	0
68	77	7	10000	5	1	0	5	0
65	78	7	10000	5	1	0	5	0
64	79	7	10000	5	1	0	5	0
61	80	7	10000	5	1	0	5	0
62	81	7	10000	5	1	0	5	0
63	82	7	10000	5	1	0	5	0
62	83	7	10000	5	1	0	5	0
59	84	7	10000	5	1	0	5	0
58	85	7	10000	5	1	0	5	0
57	86	7	10000	5	1	0	5	0
59	87	7	10000	5	1	0	5	0
59	88	7	10000	5	1	0	5	0
59	89	7	10000	5	1	0	5	0
64	90	7	10000	5	1	0	5	0
62	91	7	10000	5	1	0	5	0
62	92	7	10000	5	1	0	5	0
64	93	7	10000	5	1	0	5	0
68	94	7	10000	5	1	0	5	0
66	95	7	10000	5	1	0	5	0
65	96	7	10000	5	1	0	5	0
72	97	7	10000	5	1	0	5	0
71	98	7	10000	5	1	0	5	0
70	99	7	10000	5	1	0	5	0
68	100	7	10000	5	1	0	5	0
69	101	7	10000	5	1	0	5	0
71	102	7	10000	5	1	0	5	0
79	103	7	10000	5	1	0	5	0
85	104	7	10000	5	1	0	5	0
84	105	7	10000	5	1	0	5	0
85	106	7	10000	5	1	0	5	0
89	107	7	10000	5	1	0	5	0
92	108	7	10000	5	1	0	5	0
94	109	7	10000	5	1	0	5	0
95	110	7	10000	5	1	0	5	0
104	111	7	10000	5	1	0	5	0
109	112	7	10000	5	1	0	5	0
116	113	7	10000	5	1	0	5	0
130	114	7	10000	5	1	0	5	0
131	115	7	10000	5	1	0	5	0
128	116	7	10000	5	1	0	5	0
123	117	7	10000	5	1	0	5	0
128	118	7	10000	5	1	0	5	0
133	119	7	10000	5	1	0	5	0
142	120	7	10000	5	1	0	5	0
147	121	7	10000	5	1	0	5	0
149	122	7	10000	5	1	0	5	0
154	123	7	10000	5	1	0	5	0
151	124	7	10000	5	1	0	5	0
150	125	7	10000	5	1	0	5	0
155	126	7	10000	5	1	0	5	0
160	127	7	10000	5	1	0	5	0
160	128	7	10000	5	1	0	5	0
157	129	7	10000	5	1	0	5	0
154	130	7	10000	5	1	0	5	0
147	131	7	10000	5	1	0	5	0
142	132	7	10000	5	1	0	5	0
137	133	7	10000	5	1	0	5	0
131	134	7	10000	5	1	0	5	0
127	135	7	10000	5	1	0	5	0
123	136	7	10000	5	1	0	5	0
121	137	7	10000	5	1	0	5	0
119	138	7	10000	5	1	0	5	0
121	139	7	10000	5	1	0	5	0
116	140	7	10000	5	1	0	5	0
114	141	7	10000	5	1	0	5	0
112	142	7	10000	5	1	0	5	0
111	143	7	10000	5	1	0	5	0
110	144	7	10000	5	1	0	5	0
105	145	7	10000	5	1	0	5	0
104	146	7	10000	5	1	0	5	0
100	147	7	10000	5	1	0	5	0
95	148	7	10000	5	1	0	5	0
94	149	7	10000	5	1	0	5	0
94	150	7	10000	5	1	0	5	0
90	151	7	10000	5	1	0	5	0
86	152	7	10000	5	1	0	5	0
87	153	7	10000	5	1	0	5	0
84	154	7	10000	5	1	0	5	0
88	155	7	10000	5	1	0	5	0
87	156	7	10000	5	1	0	5	0
90	157	7	10000	5	1	0	5	0
95	158	7	10000	5	1	0	5	0
100	159	7	10000	5	1	0	5	0
98	160	7	10000	5	1	0	5	0
99	161	7	10000	5	1	0	5	0
98	162	7	10000	5	1	0	5	0
96	163	7	10000	5	1	0	5	0
93	164	7	10000	5	1	0	5	0
91	165	7	10000	5	1	0	5	0
89	166	7	10000	5	1	0	5	0
85	167	7	10000	5	1	0	5	0
83	168	7	10000	5	1	0	5	0
81	169	7	10000	5	1	0	5	0
81	170	7	10000	5	1	0	5	0
79	171	7	10000	5	1	0	5	0
77	172	7	10000	5	1	0	5	0
74	173	7	10000	5	1	0	5	0
72	174	7	10000	5	1	0	5	0
72	175	7	10000	5	1	0	5	0
70	176	7	10000	5	1	0	5	0
70	177	7	10000	5	1	0	5	0
68	178	7	10000	5	1	0	5	0
68	179	7	10000	5	1	0	5	0
66	180	7	10000	5	1	0	5	0
66	181	7	10000	5	1	0	5	0
64	182	7	10000	5	1	0	5	0
63	183	7	10000	5	1	0	5	0
62	184	7	10000	5	1	0	5	0
63	185	7	10000	5	1	0	5	0
62	186	7	10000	5	1	0	5	0
61	187	7	10000	5	1	0	5	0
61	188	7	10000	5	1	0	5	0
62	189	7	10000	5	1	0	5	0
65	190	7	10000	5	1	0	5	0
64	191	7	10000	5	1	0	5	0
61	192	7	10000	5	1	0	5	0
58	193	7	10000	5	1	0	5	0
56	194	7	10000	5	1	0	5	0
56	195	7	10000	5	1	0	5	0
57	196	7	10000	5	1	0	5	0
59	197	7	10000	5	1	0	5	0
57	198	7	10000	5	1	0	5	0
60	199	7	10000	5	1	0	5	0
56	200	7	10000	5	1	0	5	0
55	201	7	10000	5	1	0	5	0
56	202	7	10000	5	1	0	5	0
56	203	7	10000	5	1	0	5	0
54	204	7	10000	5	1	0	5	0
53	205	7	10000	5	1	0	5	0
53	206	7	10000	5	1	0	5	0
52	207	7	10000	5	1	0	5	0
51	208	7	10000	5	1	0	5	0
52	209	7	10000	5	1	0	5	0
53	210	7	10000	5	1	0	5	0
51	211	7	10000	5	1	0	5	0
53	212	7	10000	5	1	0	5	0
50	213	7	10000	5	1	0	5	0
48	214	7	10000	5	1	0	5	0
48	215	7	10000	5	1	0	5	0
47	216	7	10000	5	1	0	5	0
48	217	7	10000	5	1	0	5	0
49	218	7	10000	5	1	0	5	0
48	219	7	10000	5	1	0	5	0
46	220	7	10000	5	1	0	5	0
44	221	7	10000	5	1	0	5	0
45	222	7	10000	5	1	0	5	0
46	223	7	10000	5	1	0	5	0
44	224	7	10000	5	1	0	5	0
43	225	7	10000	5	1	0	5	0
44	226	7	10000	5	1	0	5	0
41	227	7	10000	5	1	0	5	0
40	228	7	10000	5	1	0	5	0
41	229	7	10000	5	1	0	5	0
43	230	7	10000	5	1	0	5	0
43	231	7	10000	5	1	0	5	0
45	232	7	10000	5	1	0	5	0
43	233	7	10000	5	1	0	5	0
44	234	7	10000	5	1	0	5	0
43	235	7	10000	5	1	0	5	0
41	236	7	10000	5	1	0	5	0
43	237	7	10000	5	1	0	5	0
42	238	7	10000	5	1	0	5	0
44	239	7	10000	5	1	0	5	0
41	240	7	10000	5	1	0	5	0
42	241	7	10000	5	1	0	5	0
42	242	7	10000	5	1	0	5	0
43	243	7	10000	5	1	0	5	0
41	244	7	10000	5	1	0	5	0
40	245	7	10000	5	1	0	5	0
40	246	7	10000	5	1	0	5	0
39	247	7	10000	5	1	0	5	0
40	248	7	10000	5	1	0	5	0
41	249	7	10000	5	1	0	5	0
42	250	7	10000	5	1	0	5	0
41	251	7	10000	5	1	0	5	0
41	252	7	10000	5	1	0	5	0
40	253	7	10000	5	1	0	5	0
40	254	7	10000	5	1	0	5	0
41	255	7	10000	5	1	0	5	0
42	256	7	10000	5	1	0	5	0
42	257	7	10000	5	1	0	5	0
42	258	7	10000	5	1	0	5	0
41	259	7	10000	5	1	0	5	0
39	260	7	10000	5	1	0	5	0
39	261	7	10000	5	1	0	5	0
41	262	7	10000	5	1	0	5	0
41	263	7	10000	5	1	0	5	0
40	264	7	10000	5	1	0	5	0
42	265	7	10000	5	1	0	5	0
46	266	7	10000	5	1	0	5	0
47	267	7	10000	5	1	0	5	0
49	268	7	10000	5	1	0	5	0
52	269	7	10000	5	1	0	5	0
55	270	7	10000	5	1	0	5	0
54	271	7	10000	5	1	0	5	0
54	272	7	10000	5	1	0	5	0
55	273	7	10000	5	1	0	5	0
57	274	7	10000	5	1	0	5	0
56	275	7	10000	5	1	0	5	0
56	276	7	10000	5	1	0	5	0
56	277	7	10000	5	1	0	5	0
55	278	7	10000	5	1	0	5	0
56	279	7	10000	5	1	0	5	0
52	280	7	10000	5	1	0	5	0
50	281	7	10000	5	1	0	5	0
50	282	7	10000	5	1	0	5	0
52	283	7	10000	5	1	0	5	0
50	284	7	10000	5	1	0	5	0
50	285	7	10000	5	1	0	5	0
50	286	7	10000	5	1	0	5	0
46	287	7	10000	5	1	0	5	0
45	288	7	10000	5	1	0	5	0
45	289	7	10000	5	1	0	5	0
48	290	7	10000	5	1	0	5	0
49	291	7	10000	5	1	0	5	0
48	292	7	10000	5	1	0	5	0
47	293	7	10000	5	1	0	5	0
48	294	7	10000	5	1	0	5	0
48	295	7	10000	5	1	0	5	0
47	296	7	10000	5	1	0	5	0
47	297	7	10000	5	1	0	5	0
47	298	7	10000	5	1	0	5	0
49	299	7	10000	5	1	0	5	0
45	300	7	10000	5	1	0	5	0
44	301	7	10000	5	1	0	5	0
45	302	7	10000	5	1	0	5	0
45	303	7	10000	5	1	0	5	0
44	304	7	10000	5	1	0	5	0
43	305	7	10000	5	1	0	5	0
43	306	7	10000	5	1	0	5	0
42	307	7	10000	5	1	0	5	0
42	308	7	10000	5	1	0	5	0
42	309	7	10000	5	1	0	5	0
43	310	7	10000	5	1	0	5	0
43	311	7	10000	5	1	0	5	0
42	312	7	10000	5	1	0	5	0
42	313	7	10000	5	1	0	5	0
43	314	7	10000	5	1	0	5	0
41	315	7	10000	5	1	0	5	0
41	316	7	10000	5	1	0	5	0
43	317	7	10000	5	1	0	5	0
41	318	7	10000	5	1	0	5	0
41	319	7	10000	5	1	0	5	0
39	320	7	10000	5	1	0	5	0
40	321	7	10000	5	1	0	5	0
40	322	7	10000	5	1	0	5	0
41	323	7	10000	5	1	0	5	0
39	324	7	10000	5	1	0	5	0
38	325	7	10000	5	1	0	5	0
37	326	7	10000	5	1	0	5	0
38	327	7	10000	5	1	0	5	0
37	328	7	10000	5	1	0	5	0
35	329	7	10000	5	1	0	5	0
38	330	7	10000	5	1	0	5	0
38	331	7	10000	5	1	0	5	0
36	332	7	10000	5	1	0	5	0
35	333	7	10000	5	1	0	5	0
36	334	7	10000	5	1	0	5	0
37	335	7	10000	5	1	0	5	0
36	336	7	10000	5	1	0	5	0
37	337	7	10000	5	1	0	5	0
37	338	7	10000	5	1	0	5	0
36	339	7	10000	5	1	0	5	0
32	340	7	10000	5	1	0	5	0
34	341	7	10000	5	1	0	5	0
33	342	7	10000	5	1	0	5	0
33	343	7	10000	5	1	0	5	0
34	344	7	10000	5	1	0	5	0
33	345	7	10000	5	1	0	5	0
32	346	7	10000	5	1	0	5	0
32	347	7	10000	5	1	0	5	0
33	348	7	10000	5	1	0	5	0
32	349	7	10000	5	1	0	5	0
33	350	7	10000	5	1	0	5	0
35	351	7	10000	5	1	0	5	0
33	352	7	10000	5	1	0	5	0
31	353	7	10000	5	1	0	5	0
32	354	7	10000	5	1	0	5	0
32	355	7	10000	5	1	0	5	0
32	356	7	10000	5	1	0	5	0
33	357	7	10000	5	1	0	5	0
33	358	7	10000	5	1	0	5	0
34	359	7	10000	5	1	0	5	0
32	360	7	10000	5	1	0	5	0
31	361	7	10000	5	1	0	5	0
34	362	7	10000	5	1	0	5	0
35	363	7	10000	5	1	0	5	0
38	364	7	10000	5	1	0	5	0
42	365	7	10000	5	1	0	5	0
42	366	7	10000	5	1	0	5	0
41	367	7	10000	5	1	0	5	0
40	368	7	10000	5	1	0	5	0
39	369	7	10000	5	1	0	5	0
43	370	7	10000	5	1	0	5	0
43	371	7	10000	5	1	0	5	0
44	372	7	10000	5	1	0	5	0
43	373	7	10000	5	1	0	5	0
42	374	7	10000	5	1	0	5	0
41	375	7	10000	5	1	0	5	0
40	376	7	10000	5	1	0	5	0
39	377	7	10000	5	1	0	5	0
38	378	7	10000	5	1	0	5	0
42	379	7	10000	5	1	0	5	0
40	380	7	10000	5	1	0	5	0
39	381	7	10000	5	1	0	5	0
40	382	7	10000	5	1	0	5	0
40	383	7	10000	5	1	0	5	0
39	384	7	10000	5	1	0	5	0
39	385	7	10000	5	1	0	5	0
39	386	7	10000	5	1	0	5	0
37	387	7	10000	5	1	0	5	0
37	388	7	10000	5	1	0	5	0
37	389	7	10000	5	1	0	5	0
38	390	7	10000	5	1	0	5	0
39	391	7	10000	5	1	0	5	0
38	392	7	10000	5	1	0	5	0
37	393	7	10000	5	1	0	5	0
38	394	7	10000	5	1	0	5	0
41	395	7	10000	5	1	0	5	0
40	396	7	10000	5	1	0	5	0
43	397	7	10000	5	1	0	5	0
45	398	7	10000	5	1	0	5	0
45	399	7	10000	5	1	0	5	0
44	400	7	10000	5	1	0	5	0
43	401	7	10000	5	1	0	5	0
41	402	7	10000	5	1	0	5	0
42	403	7	10000	5	1	0	5	0
41	404	7	10000	5	1	0	5	0
39	405	7	10000	5	1	0	5	0
39	406	7	10000	5	1	0	5	0
39	407	7	10000	5	1	0	5	0
39	408	7	10000	5	1	0	5	0
37	409	7	10000	5	1	0	5	0
43	410	7	10000	5	1	0	5	0
42	411	7	10000	5	1	0	5	0
42	412	7	10000	5	1	0	5	0
41	413	7	10000	5	1	0	5	0
41	414	7	10000	5	1	0	5	0
41	415	7	10000	5	1	0	5	0
41	416	7	10000	5	1	0	5	0
41	417	7	10000	5	1	0	5	0
41	418	7	10000	5	1	0	5	0
43	419	7	10000	5	1	0	5	0
41	420	7	10000	5	1	0	5	0
40	421	7	10000	5	1	0	5	0
40	422	7	10000	5	1	0	5	0
38	423	7	10000	5	1	0	5	0
41	424	7	10000	5	1	0	5	0
40	425	7	10000	5	1	0	5	0
39	426	7	10000	5	1	0	5	0
38	427	7	10000	5	1	0	5	0
37	428	7	10000	5	1	0	5	0
35	429	7	10000	5	1	0	5	0
36	430	7	10000	5	1	0	5	0
38	431	7	10000	5	1	0	5	0
37	432	7	10000	5	1	0	5	0
35	433	7	10000	5	1	0	5	0
35	434	7	10000	5	1	0	5	0
35	435	7	10000	5	1	0	5	0
36	436	7	10000	5	1	0	5	0
37	437	7	10000	5	1	0	5	0
37	438	7	10000	5	1	0	5	0
37	439	7	10000	5	1	0	5	0
35	440	7	10000	5	1	0	5	0
34	441	7	10000	5	1	0	5	0
35	442	7	10000	5	1	0	5	0
34	443	7	10000	5	1	0	5	0
34	444	7	10000	5	1	0	5	0
34	445	7	10000	5	1	0	5	0
33	446	7	10000	5	1	0	5	0
32	447	7	10000	5	1	0	5	0
33	448	7	10000	5	1	0	5	0
32	449	7	10000	5	1	0	5	0
34	450	7	10000	5	1	0	5	0
36	451	7	10000	5	1	0	5	0
37	452	7	10000	5	1	0	5	0
37	453	7	10000	5	1	0	5	0
36	454	7	10000	5	1	0	5	0
37	455	7	10000	5	1	0	5	0
37	456	7	10000	5	1	0	5	0
36	457	7	10000	5	1	0	5	0
36	458	7	10000	5	1	0	5	0
37	459	7	10000	5	1	0	5	0
36	460	7	10000	5	1	0	5	0
37	461	7	10000	5	1	0	5	0
38	462	7	10000	5	1	0	5	0
36	463	7	10000	5	1	0	5	0
35	464	7	10000	5	1	0	5	0
36	465	7	10000	5	1	0	5	0
35	466	7	10000	5	1	0	5	0
34	467	7	10000	5	1	0	5	0
33	468	7	10000	5	1	0	5	0
35	469	7	10000	5	1	0	5	0
37	470	7	10000	5	1	0	5	0
39	471	7	10000	5	1	0	5	0
39	472	7	10000	5	1	0	5	0
40	473	7	10000	5	1	0	5	0
42	474	7	10000	5	1	0	5	0
42	475	7	10000	5	1	0	5	0
42	476	7	10000	5	1	0	5	0
42	477	7	10000	5	1	0	5	0
41	478	7	10000	5	1	0	5	0
44	479	7	10000	5	1	0	5	0
42	480	7	10000	5	1	0	5	0
40	481	7	10000	5	1	0	5	0
41	482	7	10000	5	1	0	5	0
40	483	7	10000	5	1	0	5	0
42	484	7	10000	5	1	0	5	0
41	485	7	10000	5	1	0	5	0
43	486	7	10000	5	1	0	5	0
43	487	7	10000	5	1	0	5	0
41	488	7	10000	5	1	0	5	0
40	489	7	10000	5	1	0	5	0
44	490	7	10000	5	1	0	5	0
42	491	7	10000	5	1	0	5	0
40	492	7	10000	5	1	0	5	0
40	493	7	10000	5	1	0	5	0
39	494	7	10000	5	1	0	5	0
39	495	7	10000	5	1	0	5	0
38	496	7	10000	5	1	0	5	0
39	497	7	10000	5	1	0	5	0
40	498	7	10000	5	1	0	5	0
38	499	7	10000	5	1	0	5	0
39	500	7	10000	5	1	0	5	0
38	501	7	10000	5	1	0	5	0
36	502	7	10000	5	1	0	5	1
37	503	7	10000	5	1	0	5	1
37	504	7	10000	5	1	0	5	1
38	505	7	10000	5	1	0	5	1
40	506	7	10000	5	1	0	5	1
39	507	7	10000	5	1	0	5	1
38	508	7	10000	5	1	0	5	1
37	509	7	10000	5	1	0	5	1
39	510	7	10000	5	1	0	5	1
39	511	7	10000	5	1	0	5	1
37	512	7	10000	5	1	0	5	1
35	513	7	10000	5	1	0	5	1
36	514	7	10000	5	1	0	5	1
36	515	7	10000	5	1	0	5	1
34	516	7	10000	5	1	0	5	1
34	517	7	10000	5	1	0	5	1
35	518	7	10000	5	1	0	5	1
33	519	7	10000	5	1	0	5	1
31	520	7	10000	5	1	0	5	1
32	521	7	10000	5	1	0	5	1
32	522	7	10000	5	1	0	5	1
33	523	7	10000	5	1	0	5	1
33	524	7	10000	5	1	0	5	1
34	525	7	10000	5	1	0	5	1
33	526	7	10000	5	1	0	5	1
34	527	7	10000	5	1	0	5	1
33	528	7	10000	5	1	0	5	1
32	529	7	10000	5	1	0	5	1
33	530	7	10000	5	1	0	5	1
35	531	7	10000	5	1	0	5	1
33	532	7	10000	5	1	0	5	1
33	533	7	10000	5	1	0	5	1
34	534	7	10000	5	1	0	5	1
33	535	7	10000	5	1	0	5	1
32	536	7	10000	5	1	0	5	1
32	537	7	10000	5	1	0	5	1
32	538	7	10000	5	1	0	5	1
32	539	7	10000	5	1	0	5	1
29	540	7	10000	5	1	0	5	1
30	541	7	10000	5	1	0	5	1
30	542	7	10000	5	1	0	5	1
30	543	7	10000	5	1	0	5	1
30	544	7	10000	5	1	0	5	1
32	545	7	10000	5	1	0	5	1
36	546	7	10000	5	1	0	5	1
37	547	7	10000	5	1	0	5	1
37	548	7	10000	5	1	0	5	1
36	549	7	10000	5	1	0	5	1
36	550	7	10000	5	1	0	5	1
39	551	7	10000	5	1	0	5	1
42	552	7	10000	5	1	0	5	0
40	553	7	10000	5	1	0	5	0
41	554	7	10000	5	1	0	5	0
43	555	7	10000	5	1	0	5	0
40	556	7	10000	5	1	0	5	0
39	557	7	10000	5	1	0	5	0
41	558	7	10000	5	1	0	5	0
41	559	7	10000	5	1	0	5	0
38	560	7	10000	5	1	0	5	0
38	561	7	10000	5	1	0	5	0
38	562	7	10000	5	1	0	5	0
39	563	7	10000	5	1	0	5	0
37	564	7	10000	5	1	0	5	0
38	565	7	10000	5	1	0	5	0
37	566	7	10000	5	1	0	5	0
35	567	7	10000	5	1	0	5	0
35	568	7	10000	5	1	0	5	0
34	569	7	10000	5	1	0	5	0
36	570	7	10000	5	1	0	5	0
35	571	7	10000	5	1	0	5	0
35	572	7	10000	5	1	0	5	0
36	573	7	10000	5	1	0	5	0
37	574	7	10000	5	1	0	5	0
37	575	7	10000	5	1	0	5	0
36	576	7	10000	5	1	0	5	0
35	577	7	10000	5	1	0	5	0
34	578	7	10000	5	1	0	5	0
38	579	7	10000	5	1	0	5	0
36	580	7	10000	5	1	0	5	0
35	581	7	10000	5	1	0	5	0
35	582	7	10000	5	1	0	5	0
36	583	7	10000	5	1	0	5	0
35	584	7	10000	5	1	0	5	0
35	585	7	10000	5	1	0	5	0
37	586	7	10000	5	1	0	5	0
34	587	7	10000	5	1	0	5	0
35	588	7	10000	5	1	0	5	0
40	589	7	10000	5	1	0	5	0
44	590	7	10000	5	1	0	5	0
43	591	7	10000	5	1	0	5	0
42	592	7	10000	5	1	0	5	0
44	593	7	10000	5	1	0	5	0
44	594	7	10000	5	1	0	5	0
44	595	7	10000	5	1	0	5	0
44	596	7	10000	5	1	0	5	0
46	597	7	10000	5	1	0	5	0
48	598	7	10000	5	1	0	5	0
52	599	7	10000	5	1	0	5	0
52	600	7	10000	5	1	0	5	0
53	601	7	10000	5	1	0	5	0
57	602	7	10000	5	1	0	5	0
57	603	7	10000	5	1	0	5	0
61	604	7	10000	5	1	0	5	0
61	605	7	10000	5	1	0	5	0
62	606	7	10000	5	1	0	5	0
63	607	7	10000	5	1	0	5	0
62	608	7	10000	5	1	0	5	0
59	609	7	10000	5	1	0	5	0
61	610	7	10000	5	1	0	5	0
60	611	7	10000	5	1	0	5	0
59	612	7	10000	5	1	0	5	0
58	613	7	10000	5	1	0	5	0
59	614	7	10000	5	1	0	5	0
59	615	7	10000	5	1	0	5	0
57	616	7	10000	5	1	0	5	0
57	617	7	10000	5	1	0	5	0
56	618	7	10000	5	1	0	5	0
57	619	7	10000	5	1	0	5	0
56	620	7	10000	5	1	0	5	0
54	621	7	10000	5	1	0	5	0
52	622	7	10000	5	1	0	5	0
52	623	7	10000	5	1	0	5	0
55	624	7	10000	5	1	0	5	0
54	625	7	10000	5	1	0	5	0
55	626	7	10000	5	1	0	5	0
57	627	7	10000	5	1	0	5	0
55	628	7	10000	5	1	0	5	0
54	629	7	10000	5	1	0	5	0
57	630	7	10000	5	1	0	5	0
57	631	7	10000	5	1	0	5	0
55	632	7	10000	5	1	0	5	0
54	633	7	10000	5	1	0	5	0
52	634	7	10000	5	1	0	5	0
53	635	7	10000	5	1	0	5	0
53	636	7	10000	5	1	0	5	0
53	637	7	10000	5	1	0	5	0
52	638	7	10000	5	1	0	5	0
52	639	7	10000	5	1	0	5	0
51	640	7	10000	5	1	0	5	0
50	641	7	10000	5	1	0	5	0
51	642	7	10000	5	1	0	5	0
51	643	7	10000	5	1	0	5	0
51	644	7	10000	5	1	0	5	0
50	645	7	10000	5	1	0	5	0
49	646	7	10000	5	1	0	5	0
46	647	7	10000	5	1	0	5	0
47	648	7	10000	5	1	0	5	0
50	649	7	10000	5	1	0	5	0
56	650	7	10000	5	1	0	5	0
60	651	7	10000	5	1	0	5	0
63	652	7	10000	5	1	0	5	0
67	653	7	10000	5	1	0	5	0
72	654	7	10000	5	1	0	5	0
73	655	7	10000	5	1	0	5	0
77	656	7	10000	5	1	0	5	0
81	657	7	10000	5	1	0	5	0
82	658	7	10000	5	1	0	5	0
85	659	7	10000	5	1	0	5	0
83	660	7	10000	5	1	0	5	0
82	661	7	10000	5	1	0	5	0
80	662	7	10000	5	1	0	5	0
78	663	7	10000	5	1	0	5	0
76	664	7	10000	5	1	0	5	0
74	665	7	10000	5	1	0	5	0
75	666	7	10000	5	1	0	5	0
75	667	7	10000	5	1	0	5	0
73	668	7	10000	5	1	0	5	0
73	669	7	10000	5	1	0	5	0
75	670	7	10000	5	1	0	5	0
75	671	7	10000	5	1	0	5	0
72	672	7	10000	5	1	0	5	0
75	673	7	10000	5	1	0	5	0
76	674	7	10000	5	1	0	5	0
75	675	7	10000	5	1	0	5	0
74	676	7	10000	5	1	0	5	0
74	677	7	10000	5	1	0	5	0
75	678	7	10000	5	1	0	5	0
73	679	7	10000	5	1	0	5	0
72	680	7	10000	5	1	0	5	0
72	681	7	10000	5	1	0	5	0
71	682	7	10000	5	1	0	5	0
69	683	7	10000	5	1	0	5	0
67	684	7	10000	5	1	0	5	0
65	685	7	10000	5	1	0	5	0
66	686	7	10000	5	1	0	5	0
63	687	7	10000	5	1	0	5	0
62	688	7	10000	5	1	0	5	0
60	689	7	10000	5	1	0	5	0
61	690	7	10000	5	1	0	5	0
61	691	7	10000	5	1	0	5	0
59	692	7	10000	5	1	0	5	0
58	693	7	10000	5	1	0	5	0
56	694	7	10000	5	1	0	5	0
56	695	7	10000	5	1	0	5	0
60	696	7	10000	5	1	0	5	0
60	697	7	10000	5	1	0	5	0
61	698	7	10000	5	1	0	5	0
61	699	7	10000	5	1	0	5	0
60	700	7	10000	5	1	0	5	0
59	701	7	10000	5	1	0	5	0
59	702	7	10000	5	1	0	5	0
61	703	7	10000	5	1	0	5	0
60	704	7	10000	5	1	0	5	0
59	705	7	10000	5	1	0	5	0
58	706	7	10000	5	1	0	5	0
56	707	7	10000	5	1	0	5	0
55	708	7	10000	5	1	0	5	0
53	709	7	10000	5	1	0	5	0
55	710	7	10000	5	1	0	5	0
54	711	7	10000	5	1	0	5	0
52	712	7	10000	5	1	0	5	0
55	713	7	10000	5	1	0	5	0
56	714	7	10000	5	1	0	5	0
58	715	7	10000	5	1	0	5	0
62	716	7	10000	5	1	0	5	0
65	717	7	10000	5	1	0	5	0
65	718	7	10000	5	1	0	5	0
64	719	7	10000	5	1	0	5	0
61	720	7	10000	5	1	0	5	0
58	721	7	10000	5	1	0	5	0
57	722	7	10000	5	1	0	5	0
56	723	7	10000	5	1	0	5	0
56	724	7	10000	5	1	0	5	0
55	725	7	10000	5	1	0	5	0
53	726	7	10000	5	1	0	5	0
53	727	7	10000	5	1	0	5	0
51	728	7	10000	5	1	0	5	0
49	729	7	10000	5	1	0	5	0
51	730	7	10000	5	1	0	5	0
49	731	7	10000	5	1	0	5	0
48	732	7	10000	5	1	0	5	0
46	733	7	10000	5	1	0	5	0
45	734	7	10000	5	1	0	5	0
45	735	7	10000	5	1	0	5	0
44	736	7	10000	5	1	0	5	0
44	737	7	10000	5	1	0	5	0
44	738	7	10000	5	1	0	5	0
44	739	7	10000	5	1	0	5	0
41	740	7	10000	5	1	0	5	0
46	741	7	10000	5	1	0	5	0
49	742	7	10000	5	1	0	5	0
51	743	7	10000	5	1	0	5	0
53	744	7	10000	5	1	0	5	0
52	745	7	10000	5	1	0	5	0
52	746	7	10000	5	1	0	5	0
50	747	7	10000	5	1	0	5	0
49	748	7	10000	5	1	0	5	0
46	749	7	10000	5	1	0	5	0
47	750	7	10000	5	1	0	5	0
48	751	7	10000	5	1	0	5	0
47	752	7	10000	5	1	0	5	0
47	753	7	10000	5	1	0	5	0
48	754	7	10000	5	1	0	5	0
46	755	7	10000	5	1	0	5	0
46	756	7	10000	5	1	0	5	0
44	757	7	10000	5	1	0	5	0
47	758	7	10000	5	1	0	5	0
47	759	7	10000	5	1	0	5	0
44	760	7	10000	5	1	0	5	0
44	761	7	10000	5	1	0	5	0
44	762	7	10000	5	1	0	5	0
43	763	7	10000	5	1	0	5	0
42	764	7	10000	5	1	0	5	0
43	765	7	10000	5	1	0	5	0
42	766	7	10000	5	1	0	5	0
41	767	7	10000	5	1	0	5	0
41	768	7	10000	5	1	0	5	0
40	769	7	10000	5	1	0	5	0
40	770	7	10000	5	1	0	5	0
41	771	7	10000	5	1	0	5	0
44	772	7	10000	5	1	0	5	0
43	773	7	10000	5	1	0	5	0
41	774	7	10000	5	1	0	5	0
40	775	7	10000	5	1	0	5	0
41	776	7	10000	5	1	0	5	0
42	777	7	10000	5	1	0	5	0
42	778	7	10000	5	1	0	5	0
42	779	7	10000	5	1	0	5	0
39	780	7	10000	5	1	0	5	0
38	781	7	10000	5	1	0	5	0
40	782	7	10000	5	1	0	5	0
40	783	7	10000	5	1	0	5	0
39	784	7	10000	5	1	0	5	0
38	785	7	10000	5	1	0	5	0
38	786	7	10000	5	1	0	5	0
40	787	7	10000	5	1	0	5	0
39	788	7	10000	5	1	0	5	0
39	789	7	10000	5	1	0	5	0
43	790	7	10000	5	1	0	5	0
43	791	7	10000	5	1	0	5	0
43	792	7	10000	5	1	0	5	0
43	793	7	10000	5	1	0	5	0
42	794	7	10000	5	1	0	5	0
42	795	7	10000	5	1	0	5	0
44	796	7	10000	5	1	0	5	0
45	797	7	10000	5	1	0	5	0
47	798	7	10000	5	1	0	5	0
48	799	7	10000	5	1	0	5	0
49	800	7	10000	5	1	0	5	0
49	801	7	10000	5	1	0	5	0
48	802	7	10000	5	1	0	5	0
51	803	7	10000	5	1	0	5	0
53	804	7	10000	5	1	0	5	0
53	805	7	10000	5	1	0	5	0
56	806	7	10000	5	1	0	5	0
53	807	7	10000	5	1	0	5	0
51	808	7	10000	5	1	0	5	0
49	809	7	10000	5	1	0	5	0
50	810	7	10000	5	1	0	5	0
