value	EMG	Stimulus	EMG_sensitivity	Total_Trial_Nr	practise	acq	probe_nr	Startle_Probe
21	2	7	10000	1	1	0	1	0
21	3	7	10000	1	1	0	1	0
21	4	7	10000	1	1	0	1	0
20	5	7	10000	1	1	0	1	0
20	6	7	10000	1	1	0	1	0
21	7	7	10000	1	1	0	1	0
23	8	7	10000	1	1	0	1	0
22	9	7	10000	1	1	0	1	0
21	10	7	10000	1	1	0	1	0
22	11	7	10000	1	1	0	1	0
25	12	7	10000	1	1	0	1	0
24	13	7	10000	1	1	0	1	0
24	14	7	10000	1	1	0	1	0
23	15	7	10000	1	1	0	1	0
22	16	7	10000	1	1	0	1	0
22	17	7	10000	1	1	0	1	0
21	18	7	10000	1	1	0	1	0
21	19	7	10000	1	1	0	1	0
21	20	7	10000	1	1	0	1	0
21	21	7	10000	1	1	0	1	0
19	22	7	10000	1	1	0	1	0
19	23	7	10000	1	1	0	1	0
19	24	7	10000	1	1	0	1	0
20	25	7	10000	1	1	0	1	0
21	26	7	10000	1	1	0	1	0
21	27	7	10000	1	1	0	1	0
21	28	7	10000	1	1	0	1	0
20	29	7	10000	1	1	0	1	0
20	30	7	10000	1	1	0	1	0
21	31	7	10000	1	1	0	1	0
25	32	7	10000	1	1	0	1	0
25	33	7	10000	1	1	0	1	0
24	34	7	10000	1	1	0	1	0
24	35	7	10000	1	1	0	1	0
24	36	7	10000	1	1	0	1	0
23	37	7	10000	1	1	0	1	0
21	38	7	10000	1	1	0	1	0
22	39	7	10000	1	1	0	1	0
22	40	7	10000	1	1	0	1	0
24	41	7	10000	1	1	0	1	0
22	42	7	10000	1	1	0	1	0
21	43	7	10000	1	1	0	1	0
21	44	7	10000	1	1	0	1	0
23	45	7	10000	1	1	0	1	0
22	46	7	10000	1	1	0	1	0
22	47	7	10000	1	1	0	1	0
22	48	7	10000	1	1	0	1	0
21	49	7	10000	1	1	0	1	0
21	50	7	10000	1	1	0	1	0
20	51	7	10000	1	1	0	1	0
21	52	7	10000	1	1	0	1	0
20	53	7	10000	1	1	0	1	0
20	54	7	10000	1	1	0	1	0
20	55	7	10000	1	1	0	1	0
19	56	7	10000	1	1	0	1	0
18	57	7	10000	1	1	0	1	0
19	58	7	10000	1	1	0	1	0
19	59	7	10000	1	1	0	1	0
20	60	7	10000	1	1	0	1	0
20	61	7	10000	1	1	0	1	0
17	62	7	10000	1	1	0	1	0
18	63	7	10000	1	1	0	1	0
18	64	7	10000	1	1	0	1	0
18	65	7	10000	1	1	0	1	0
19	66	7	10000	1	1	0	1	0
19	67	7	10000	1	1	0	1	0
18	68	7	10000	1	1	0	1	0
18	69	7	10000	1	1	0	1	0
18	70	7	10000	1	1	0	1	0
17	71	7	10000	1	1	0	1	0
19	72	7	10000	1	1	0	1	0
19	73	7	10000	1	1	0	1	0
17	74	7	10000	1	1	0	1	0
17	75	7	10000	1	1	0	1	0
18	76	7	10000	1	1	0	1	0
18	77	7	10000	1	1	0	1	0
17	78	7	10000	1	1	0	1	0
16	79	7	10000	1	1	0	1	0
16	80	7	10000	1	1	0	1	0
16	81	7	10000	1	1	0	1	0
14	82	7	10000	1	1	0	1	0
14	83	7	10000	1	1	0	1	0
16	84	7	10000	1	1	0	1	0
17	85	7	10000	1	1	0	1	0
17	86	7	10000	1	1	0	1	0
17	87	7	10000	1	1	0	1	0
17	88	7	10000	1	1	0	1	0
17	89	7	10000	1	1	0	1	0
18	90	7	10000	1	1	0	1	0
17	91	7	10000	1	1	0	1	0
18	92	7	10000	1	1	0	1	0
17	93	7	10000	1	1	0	1	0
17	94	7	10000	1	1	0	1	0
16	95	7	10000	1	1	0	1	0
16	96	7	10000	1	1	0	1	0
17	97	7	10000	1	1	0	1	0
15	98	7	10000	1	1	0	1	0
16	99	7	10000	1	1	0	1	0
15	100	7	10000	1	1	0	1	0
16	101	7	10000	1	1	0	1	0
15	102	7	10000	1	1	0	1	0
14	103	7	10000	1	1	0	1	0
16	104	7	10000	1	1	0	1	0
18	105	7	10000	1	1	0	1	0
20	106	7	10000	1	1	0	1	0
19	107	7	10000	1	1	0	1	0
19	108	7	10000	1	1	0	1	0
19	109	7	10000	1	1	0	1	0
17	110	7	10000	1	1	0	1	0
16	111	7	10000	1	1	0	1	0
17	112	7	10000	1	1	0	1	0
17	113	7	10000	1	1	0	1	0
17	114	7	10000	1	1	0	1	0
18	115	7	10000	1	1	0	1	0
18	116	7	10000	1	1	0	1	0
19	117	7	10000	1	1	0	1	0
18	118	7	10000	1	1	0	1	0
19	119	7	10000	1	1	0	1	0
19	120	7	10000	1	1	0	1	0
18	121	7	10000	1	1	0	1	0
15	122	7	10000	1	1	0	1	0
16	123	7	10000	1	1	0	1	0
16	124	7	10000	1	1	0	1	0
16	125	7	10000	1	1	0	1	0
16	126	7	10000	1	1	0	1	0
16	127	7	10000	1	1	0	1	0
16	128	7	10000	1	1	0	1	0
16	129	7	10000	1	1	0	1	0
14	130	7	10000	1	1	0	1	0
14	131	7	10000	1	1	0	1	0
17	132	7	10000	1	1	0	1	0
16	133	7	10000	1	1	0	1	0
16	134	7	10000	1	1	0	1	0
17	135	7	10000	1	1	0	1	0
15	136	7	10000	1	1	0	1	0
15	137	7	10000	1	1	0	1	0
15	138	7	10000	1	1	0	1	0
15	139	7	10000	1	1	0	1	0
15	140	7	10000	1	1	0	1	0
16	141	7	10000	1	1	0	1	0
14	142	7	10000	1	1	0	1	0
13	143	7	10000	1	1	0	1	0
14	144	7	10000	1	1	0	1	0
14	145	7	10000	1	1	0	1	0
14	146	7	10000	1	1	0	1	0
13	147	7	10000	1	1	0	1	0
14	148	7	10000	1	1	0	1	0
13	149	7	10000	1	1	0	1	0
13	150	7	10000	1	1	0	1	0
13	151	7	10000	1	1	0	1	0
14	152	7	10000	1	1	0	1	0
14	153	7	10000	1	1	0	1	0
13	154	7	10000	1	1	0	1	0
12	155	7	10000	1	1	0	1	0
13	156	7	10000	1	1	0	1	0
14	157	7	10000	1	1	0	1	0
14	158	7	10000	1	1	0	1	0
14	159	7	10000	1	1	0	1	0
14	160	7	10000	1	1	0	1	0
14	161	7	10000	1	1	0	1	0
12	162	7	10000	1	1	0	1	0
13	163	7	10000	1	1	0	1	0
12	164	7	10000	1	1	0	1	0
13	165	7	10000	1	1	0	1	0
13	166	7	10000	1	1	0	1	0
13	167	7	10000	1	1	0	1	0
14	168	7	10000	1	1	0	1	0
17	169	7	10000	1	1	0	1	0
19	170	7	10000	1	1	0	1	0
20	171	7	10000	1	1	0	1	0
22	172	7	10000	1	1	0	1	0
21	173	7	10000	1	1	0	1	0
22	174	7	10000	1	1	0	1	0
23	175	7	10000	1	1	0	1	0
23	176	7	10000	1	1	0	1	0
24	177	7	10000	1	1	0	1	0
24	178	7	10000	1	1	0	1	0
25	179	7	10000	1	1	0	1	0
24	180	7	10000	1	1	0	1	0
23	181	7	10000	1	1	0	1	0
21	182	7	10000	1	1	0	1	0
22	183	7	10000	1	1	0	1	0
22	184	7	10000	1	1	0	1	0
22	185	7	10000	1	1	0	1	0
23	186	7	10000	1	1	0	1	0
24	187	7	10000	1	1	0	1	0
24	188	7	10000	1	1	0	1	0
23	189	7	10000	1	1	0	1	0
23	190	7	10000	1	1	0	1	0
23	191	7	10000	1	1	0	1	0
25	192	7	10000	1	1	0	1	0
25	193	7	10000	1	1	0	1	0
25	194	7	10000	1	1	0	1	0
24	195	7	10000	1	1	0	1	0
24	196	7	10000	1	1	0	1	0
25	197	7	10000	1	1	0	1	0
24	198	7	10000	1	1	0	1	0
24	199	7	10000	1	1	0	1	0
25	200	7	10000	1	1	0	1	0
23	201	7	10000	1	1	0	1	0
21	202	7	10000	1	1	0	1	0
21	203	7	10000	1	1	0	1	0
20	204	7	10000	1	1	0	1	0
20	205	7	10000	1	1	0	1	0
20	206	7	10000	1	1	0	1	0
20	207	7	10000	1	1	0	1	0
20	208	7	10000	1	1	0	1	0
20	209	7	10000	1	1	0	1	0
18	210	7	10000	1	1	0	1	0
19	211	7	10000	1	1	0	1	0
25	212	7	10000	1	1	0	1	0
25	213	7	10000	1	1	0	1	0
25	214	7	10000	1	1	0	1	0
23	215	7	10000	1	1	0	1	0
23	216	7	10000	1	1	0	1	0
22	217	7	10000	1	1	0	1	0
21	218	7	10000	1	1	0	1	0
22	219	7	10000	1	1	0	1	0
22	220	7	10000	1	1	0	1	0
21	221	7	10000	1	1	0	1	0
19	222	7	10000	1	1	0	1	0
20	223	7	10000	1	1	0	1	0
20	224	7	10000	1	1	0	1	0
20	225	7	10000	1	1	0	1	0
21	226	7	10000	1	1	0	1	0
21	227	7	10000	1	1	0	1	0
21	228	7	10000	1	1	0	1	0
21	229	7	10000	1	1	0	1	0
22	230	7	10000	1	1	0	1	0
22	231	7	10000	1	1	0	1	0
24	232	7	10000	1	1	0	1	0
24	233	7	10000	1	1	0	1	0
26	234	7	10000	1	1	0	1	0
29	235	7	10000	1	1	0	1	0
32	236	7	10000	1	1	0	1	0
32	237	7	10000	1	1	0	1	0
30	238	7	10000	1	1	0	1	0
31	239	7	10000	1	1	0	1	0
32	240	7	10000	1	1	0	1	0
32	241	7	10000	1	1	0	1	0
29	242	7	10000	1	1	0	1	0
28	243	7	10000	1	1	0	1	0
28	244	7	10000	1	1	0	1	0
28	245	7	10000	1	1	0	1	0
27	246	7	10000	1	1	0	1	0
26	247	7	10000	1	1	0	1	0
27	248	7	10000	1	1	0	1	0
28	249	7	10000	1	1	0	1	0
29	250	7	10000	1	1	0	1	0
29	251	7	10000	1	1	0	1	0
31	252	7	10000	1	1	0	1	0
29	253	7	10000	1	1	0	1	0
29	254	7	10000	1	1	0	1	0
27	255	7	10000	1	1	0	1	0
26	256	7	10000	1	1	0	1	0
26	257	7	10000	1	1	0	1	0
25	258	7	10000	1	1	0	1	0
26	259	7	10000	1	1	0	1	0
25	260	7	10000	1	1	0	1	0
24	261	7	10000	1	1	0	1	0
22	262	7	10000	1	1	0	1	0
22	263	7	10000	1	1	0	1	0
22	264	7	10000	1	1	0	1	0
23	265	7	10000	1	1	0	1	0
22	266	7	10000	1	1	0	1	0
24	267	7	10000	1	1	0	1	0
24	268	7	10000	1	1	0	1	0
23	269	7	10000	1	1	0	1	0
23	270	7	10000	1	1	0	1	0
24	271	7	10000	1	1	0	1	0
27	272	7	10000	1	1	0	1	0
28	273	7	10000	1	1	0	1	0
30	274	7	10000	1	1	0	1	0
29	275	7	10000	1	1	0	1	0
27	276	7	10000	1	1	0	1	0
26	277	7	10000	1	1	0	1	0
24	278	7	10000	1	1	0	1	0
24	279	7	10000	1	1	0	1	0
24	280	7	10000	1	1	0	1	0
25	281	7	10000	1	1	0	1	0
22	282	7	10000	1	1	0	1	0
22	283	7	10000	1	1	0	1	0
21	284	7	10000	1	1	0	1	0
21	285	7	10000	1	1	0	1	0
22	286	7	10000	1	1	0	1	0
21	287	7	10000	1	1	0	1	0
21	288	7	10000	1	1	0	1	0
20	289	7	10000	1	1	0	1	0
20	290	7	10000	1	1	0	1	0
20	291	7	10000	1	1	0	1	0
21	292	7	10000	1	1	0	1	0
20	293	7	10000	1	1	0	1	0
21	294	7	10000	1	1	0	1	0
20	295	7	10000	1	1	0	1	0
20	296	7	10000	1	1	0	1	0
20	297	7	10000	1	1	0	1	0
19	298	7	10000	1	1	0	1	0
20	299	7	10000	1	1	0	1	0
20	300	7	10000	1	1	0	1	0
19	301	7	10000	1	1	0	1	0
16	302	7	10000	1	1	0	1	0
16	303	7	10000	1	1	0	1	0
17	304	7	10000	1	1	0	1	0
17	305	7	10000	1	1	0	1	0
17	306	7	10000	1	1	0	1	0
18	307	7	10000	1	1	0	1	0
18	308	7	10000	1	1	0	1	0
17	309	7	10000	1	1	0	1	0
17	310	7	10000	1	1	0	1	0
16	311	7	10000	1	1	0	1	0
18	312	7	10000	1	1	0	1	0
17	313	7	10000	1	1	0	1	0
17	314	7	10000	1	1	0	1	0
18	315	7	10000	1	1	0	1	0
19	316	7	10000	1	1	0	1	0
18	317	7	10000	1	1	0	1	0
18	318	7	10000	1	1	0	1	0
19	319	7	10000	1	1	0	1	0
20	320	7	10000	1	1	0	1	0
21	321	7	10000	1	1	0	1	0
19	322	7	10000	1	1	0	1	0
20	323	7	10000	1	1	0	1	0
20	324	7	10000	1	1	0	1	0
20	325	7	10000	1	1	0	1	0
20	326	7	10000	1	1	0	1	0
19	327	7	10000	1	1	0	1	0
19	328	7	10000	1	1	0	1	0
18	329	7	10000	1	1	0	1	0
17	330	7	10000	1	1	0	1	0
16	331	7	10000	1	1	0	1	0
18	332	7	10000	1	1	0	1	0
17	333	7	10000	1	1	0	1	0
16	334	7	10000	1	1	0	1	0
16	335	7	10000	1	1	0	1	0
15	336	7	10000	1	1	0	1	0
15	337	7	10000	1	1	0	1	0
15	338	7	10000	1	1	0	1	0
17	339	7	10000	1	1	0	1	0
20	340	7	10000	1	1	0	1	0
21	341	7	10000	1	1	0	1	0
20	342	7	10000	1	1	0	1	0
19	343	7	10000	1	1	0	1	0
20	344	7	10000	1	1	0	1	0
23	345	7	10000	1	1	0	1	0
23	346	7	10000	1	1	0	1	0
24	347	7	10000	1	1	0	1	0
24	348	7	10000	1	1	0	1	0
22	349	7	10000	1	1	0	1	0
22	350	7	10000	1	1	0	1	0
23	351	7	10000	1	1	0	1	0
25	352	7	10000	1	1	0	1	0
25	353	7	10000	1	1	0	1	0
25	354	7	10000	1	1	0	1	0
23	355	7	10000	1	1	0	1	0
24	356	7	10000	1	1	0	1	0
27	357	7	10000	1	1	0	1	0
28	358	7	10000	1	1	0	1	0
29	359	7	10000	1	1	0	1	0
28	360	7	10000	1	1	0	1	0
27	361	7	10000	1	1	0	1	0
25	362	7	10000	1	1	0	1	0
26	363	7	10000	1	1	0	1	0
28	364	7	10000	1	1	0	1	0
29	365	7	10000	1	1	0	1	0
30	366	7	10000	1	1	0	1	0
31	367	7	10000	1	1	0	1	0
32	368	7	10000	1	1	0	1	0
29	369	7	10000	1	1	0	1	0
28	370	7	10000	1	1	0	1	0
27	371	7	10000	1	1	0	1	0
29	372	7	10000	1	1	0	1	0
28	373	7	10000	1	1	0	1	0
27	374	7	10000	1	1	0	1	0
28	375	7	10000	1	1	0	1	0
27	376	7	10000	1	1	0	1	0
26	377	7	10000	1	1	0	1	0
26	378	7	10000	1	1	0	1	0
26	379	7	10000	1	1	0	1	0
26	380	7	10000	1	1	0	1	0
25	381	7	10000	1	1	0	1	0
22	382	7	10000	1	1	0	1	0
21	383	7	10000	1	1	0	1	0
21	384	7	10000	1	1	0	1	0
21	385	7	10000	1	1	0	1	0
20	386	7	10000	1	1	0	1	0
21	387	7	10000	1	1	0	1	0
21	388	7	10000	1	1	0	1	0
20	389	7	10000	1	1	0	1	0
19	390	7	10000	1	1	0	1	0
19	391	7	10000	1	1	0	1	0
20	392	7	10000	1	1	0	1	0
20	393	7	10000	1	1	0	1	0
20	394	7	10000	1	1	0	1	0
19	395	7	10000	1	1	0	1	0
20	396	7	10000	1	1	0	1	0
22	397	7	10000	1	1	0	1	0
22	398	7	10000	1	1	0	1	0
22	399	7	10000	1	1	0	1	0
23	400	7	10000	1	1	0	1	0
23	401	7	10000	1	1	0	1	0
22	402	7	10000	1	1	0	1	0
22	403	7	10000	1	1	0	1	0
22	404	7	10000	1	1	0	1	0
21	405	7	10000	1	1	0	1	0
20	406	7	10000	1	1	0	1	0
20	407	7	10000	1	1	0	1	0
20	408	7	10000	1	1	0	1	0
19	409	7	10000	1	1	0	1	0
19	410	7	10000	1	1	0	1	0
20	411	7	10000	1	1	0	1	0
22	412	7	10000	1	1	0	1	0
23	413	7	10000	1	1	0	1	0
21	414	7	10000	1	1	0	1	0
20	415	7	10000	1	1	0	1	0
21	416	7	10000	1	1	0	1	0
20	417	7	10000	1	1	0	1	0
19	418	7	10000	1	1	0	1	0
20	419	7	10000	1	1	0	1	0
20	420	7	10000	1	1	0	1	0
19	421	7	10000	1	1	0	1	0
17	422	7	10000	1	1	0	1	0
17	423	7	10000	1	1	0	1	0
16	424	7	10000	1	1	0	1	0
17	425	7	10000	1	1	0	1	0
15	426	7	10000	1	1	0	1	0
15	427	7	10000	1	1	0	1	0
16	428	7	10000	1	1	0	1	0
15	429	7	10000	1	1	0	1	0
15	430	7	10000	1	1	0	1	0
18	431	7	10000	1	1	0	1	0
18	432	7	10000	1	1	0	1	0
18	433	7	10000	1	1	0	1	0
18	434	7	10000	1	1	0	1	0
20	435	7	10000	1	1	0	1	0
20	436	7	10000	1	1	0	1	0
20	437	7	10000	1	1	0	1	0
23	438	7	10000	1	1	0	1	0
24	439	7	10000	1	1	0	1	0
24	440	7	10000	1	1	0	1	0
23	441	7	10000	1	1	0	1	0
21	442	7	10000	1	1	0	1	0
20	443	7	10000	1	1	0	1	0
20	444	7	10000	1	1	0	1	0
20	445	7	10000	1	1	0	1	0
19	446	7	10000	1	1	0	1	0
19	447	7	10000	1	1	0	1	0
19	448	7	10000	1	1	0	1	0
18	449	7	10000	1	1	0	1	0
17	450	7	10000	1	1	0	1	0
17	451	7	10000	1	1	0	1	0
18	452	7	10000	1	1	0	1	0
18	453	7	10000	1	1	0	1	0
17	454	7	10000	1	1	0	1	0
17	455	7	10000	1	1	0	1	0
18	456	7	10000	1	1	0	1	0
20	457	7	10000	1	1	0	1	0
21	458	7	10000	1	1	0	1	0
23	459	7	10000	1	1	0	1	0
22	460	7	10000	1	1	0	1	0
21	461	7	10000	1	1	0	1	0
19	462	7	10000	1	1	0	1	0
20	463	7	10000	1	1	0	1	0
20	464	7	10000	1	1	0	1	0
20	465	7	10000	1	1	0	1	0
19	466	7	10000	1	1	0	1	0
20	467	7	10000	1	1	0	1	0
19	468	7	10000	1	1	0	1	0
18	469	7	10000	1	1	0	1	0
17	470	7	10000	1	1	0	1	0
16	471	7	10000	1	1	0	1	0
18	472	7	10000	1	1	0	1	0
17	473	7	10000	1	1	0	1	0
16	474	7	10000	1	1	0	1	0
16	475	7	10000	1	1	0	1	0
16	476	7	10000	1	1	0	1	0
16	477	7	10000	1	1	0	1	0
16	478	7	10000	1	1	0	1	0
16	479	7	10000	1	1	0	1	0
17	480	7	10000	1	1	0	1	0
18	481	7	10000	1	1	0	1	0
17	482	7	10000	1	1	0	1	0
19	483	7	10000	1	1	0	1	0
20	484	7	10000	1	1	0	1	0
20	485	7	10000	1	1	0	1	0
19	486	7	10000	1	1	0	1	0
19	487	7	10000	1	1	0	1	0
18	488	7	10000	1	1	0	1	0
16	489	7	10000	1	1	0	1	0
17	490	7	10000	1	1	0	1	0
18	491	7	10000	1	1	0	1	0
20	492	7	10000	1	1	0	1	0
20	493	7	10000	1	1	0	1	0
20	494	7	10000	1	1	0	1	0
20	495	7	10000	1	1	0	1	0
20	496	7	10000	1	1	0	1	0
20	497	7	10000	1	1	0	1	0
19	498	7	10000	1	1	0	1	0
20	499	7	10000	1	1	0	1	0
22	500	7	10000	1	1	0	1	0
23	501	7	10000	1	1	0	1	0
20	546	7	10000	1	1	0	1	1
21	547	7	10000	1	1	0	1	1
22	548	7	10000	1	1	0	1	1
22	549	7	10000	1	1	0	1	1
23	550	7	10000	1	1	0	1	1
22	551	7	10000	1	1	0	1	1
23	552	7	10000	1	1	0	1	1
22	553	7	10000	1	1	0	1	1
20	554	7	10000	1	1	0	1	1
20	555	7	10000	1	1	0	1	1
22	556	7	10000	1	1	0	1	1
21	557	7	10000	1	1	0	1	1
20	558	7	10000	1	1	0	1	1
19	559	7	10000	1	1	0	1	1
19	560	7	10000	1	1	0	1	1
20	561	7	10000	1	1	0	1	1
20	562	7	10000	1	1	0	1	1
22	563	7	10000	1	1	0	1	1
22	564	7	10000	1	1	0	1	1
22	565	7	10000	1	1	0	1	1
20	566	7	10000	1	1	0	1	1
21	567	7	10000	1	1	0	1	1
20	568	7	10000	1	1	0	1	1
20	569	7	10000	1	1	0	1	1
19	570	7	10000	1	1	0	1	1
19	571	7	10000	1	1	0	1	1
19	572	7	10000	1	1	0	1	1
18	573	7	10000	1	1	0	1	1
18	574	7	10000	1	1	0	1	1
18	575	7	10000	1	1	0	1	1
19	576	7	10000	1	1	0	1	1
19	577	7	10000	1	1	0	1	1
18	578	7	10000	1	1	0	1	1
19	579	7	10000	1	1	0	1	1
19	580	7	10000	1	1	0	1	1
18	581	7	10000	1	1	0	1	1
18	582	7	10000	1	1	0	1	1
19	583	7	10000	1	1	0	1	1
21	584	7	10000	1	1	0	1	1
20	585	7	10000	1	1	0	1	1
19	586	7	10000	1	1	0	1	1
20	587	7	10000	1	1	0	1	1
22	588	7	10000	1	1	0	1	1
22	589	7	10000	1	1	0	1	1
21	590	7	10000	1	1	0	1	1
21	591	7	10000	1	1	0	1	1
21	552	7	10000	1	1	0	1	1
20	553	7	10000	1	1	0	1	1
20	554	7	10000	1	1	0	1	1
22	555	7	10000	1	1	0	1	1
27	556	7	10000	1	1	0	1	1
27	557	7	10000	1	1	0	1	1
26	554	7	10000	1	1	0	1	0
27	555	7	10000	1	1	0	1	0
27	556	7	10000	1	1	0	1	0
26	557	7	10000	1	1	0	1	0
25	558	7	10000	1	1	0	1	0
24	559	7	10000	1	1	0	1	0
24	560	7	10000	1	1	0	1	0
24	561	7	10000	1	1	0	1	0
20	562	7	10000	1	1	0	1	0
20	563	7	10000	1	1	0	1	0
21	564	7	10000	1	1	0	1	0
21	565	7	10000	1	1	0	1	0
21	566	7	10000	1	1	0	1	0
21	567	7	10000	1	1	0	1	0
21	568	7	10000	1	1	0	1	0
20	569	7	10000	1	1	0	1	0
20	570	7	10000	1	1	0	1	0
19	571	7	10000	1	1	0	1	0
20	572	7	10000	1	1	0	1	0
21	573	7	10000	1	1	0	1	0
22	574	7	10000	1	1	0	1	0
23	575	7	10000	1	1	0	1	0
23	576	7	10000	1	1	0	1	0
22	577	7	10000	1	1	0	1	0
22	578	7	10000	1	1	0	1	0
25	579	7	10000	1	1	0	1	0
26	580	7	10000	1	1	0	1	0
26	581	7	10000	1	1	0	1	0
26	582	7	10000	1	1	0	1	0
28	583	7	10000	1	1	0	1	0
29	584	7	10000	1	1	0	1	0
29	585	7	10000	1	1	0	1	0
29	586	7	10000	1	1	0	1	0
28	587	7	10000	1	1	0	1	0
28	588	7	10000	1	1	0	1	0
28	589	7	10000	1	1	0	1	0
29	590	7	10000	1	1	0	1	0
29	591	7	10000	1	1	0	1	0
31	592	7	10000	1	1	0	1	0
31	593	7	10000	1	1	0	1	0
29	594	7	10000	1	1	0	1	0
28	595	7	10000	1	1	0	1	0
28	596	7	10000	1	1	0	1	0
28	597	7	10000	1	1	0	1	0
28	598	7	10000	1	1	0	1	0
27	599	7	10000	1	1	0	1	0
27	600	7	10000	1	1	0	1	0
27	601	7	10000	1	1	0	1	0
25	602	7	10000	1	1	0	1	0
24	603	7	10000	1	1	0	1	0
23	604	7	10000	1	1	0	1	0
24	605	7	10000	1	1	0	1	0
24	606	7	10000	1	1	0	1	0
24	607	7	10000	1	1	0	1	0
24	608	7	10000	1	1	0	1	0
23	609	7	10000	1	1	0	1	0
23	610	7	10000	1	1	0	1	0
24	611	7	10000	1	1	0	1	0
26	621	7	10000	1	1	0	1	0
25	622	7	10000	1	1	0	1	0
26	623	7	10000	1	1	0	1	0
27	624	7	10000	1	1	0	1	0
29	625	7	10000	1	1	0	1	0
29	626	7	10000	1	1	0	1	0
29	627	7	10000	1	1	0	1	0
28	628	7	10000	1	1	0	1	0
29	629	7	10000	1	1	0	1	0
28	630	7	10000	1	1	0	1	0
26	628	7	10000	1	1	0	1	0
27	629	7	10000	1	1	0	1	0
26	630	7	10000	1	1	0	1	0
25	631	7	10000	1	1	0	1	0
25	632	7	10000	1	1	0	1	0
24	633	7	10000	1	1	0	1	0
25	634	7	10000	1	1	0	1	0
24	635	7	10000	1	1	0	1	0
23	634	7	10000	1	1	0	1	0
24	635	7	10000	1	1	0	1	0
26	636	7	10000	1	1	0	1	0
29	637	7	10000	1	1	0	1	0
34	638	7	10000	1	1	0	1	0
37	639	7	10000	1	1	0	1	0
51	644	7	10000	1	1	0	1	0
68	645	7	10000	1	1	0	1	0
71	646	7	10000	1	1	0	1	0
76	647	7	10000	1	1	0	1	0
83	648	7	10000	1	1	0	1	0
86	649	7	10000	1	1	0	1	0
86	650	7	10000	1	1	0	1	0
88	651	7	10000	1	1	0	1	0
90	652	7	10000	1	1	0	1	0
91	653	7	10000	1	1	0	1	0
109	650	7	10000	1	1	0	1	0
120	651	7	10000	1	1	0	1	0
117	652	7	10000	1	1	0	1	0
119	653	7	10000	1	1	0	1	0
132	654	7	10000	1	1	0	1	0
135	655	7	10000	1	1	0	1	0
131	654	7	10000	1	1	0	1	0
128	655	7	10000	1	1	0	1	0
123	656	7	10000	1	1	0	1	0
123	657	7	10000	1	1	0	1	0
133	659	7	10000	1	1	0	1	0
138	660	7	10000	1	1	0	1	0
149	661	7	10000	1	1	0	1	0
148	662	7	10000	1	1	0	1	0
150	663	7	10000	1	1	0	1	0
149	664	7	10000	1	1	0	1	0
154	666	7	10000	1	1	0	1	0
155	667	7	10000	1	1	0	1	0
150	668	7	10000	1	1	0	1	0
143	669	7	10000	1	1	0	1	0
137	670	7	10000	1	1	0	1	0
132	671	7	10000	1	1	0	1	0
128	670	7	10000	1	1	0	1	0
125	671	7	10000	1	1	0	1	0
133	672	7	10000	1	1	0	1	0
135	673	7	10000	1	1	0	1	0
136	677	7	10000	1	1	0	1	0
130	678	7	10000	1	1	0	1	0
129	679	7	10000	1	1	0	1	0
143	680	7	10000	1	1	0	1	0
150	681	7	10000	1	1	0	1	0
151	682	7	10000	1	1	0	1	0
158	681	7	10000	1	1	0	1	0
161	682	7	10000	1	1	0	1	0
156	683	7	10000	1	1	0	1	0
149	684	7	10000	1	1	0	1	0
144	685	7	10000	1	1	0	1	0
140	686	7	10000	1	1	0	1	0
135	688	7	10000	1	1	0	1	0
132	689	7	10000	1	1	0	1	0
127	690	7	10000	1	1	0	1	0
123	691	7	10000	1	1	0	1	0
119	692	7	10000	1	1	0	1	0
114	693	7	10000	1	1	0	1	0
109	693	7	10000	1	1	0	1	0
105	694	7	10000	1	1	0	1	0
102	695	7	10000	1	1	0	1	0
97	696	7	10000	1	1	0	1	0
95	694	7	10000	1	1	0	1	0
92	695	7	10000	1	1	0	1	0
91	696	7	10000	1	1	0	1	0
89	697	7	10000	1	1	0	1	0
86	698	7	10000	1	1	0	1	0
84	699	7	10000	1	1	0	1	0
84	700	7	10000	1	1	0	1	0
81	701	7	10000	1	1	0	1	0
77	702	7	10000	1	1	0	1	0
77	703	7	10000	1	1	0	1	0
76	704	7	10000	1	1	0	1	0
76	705	7	10000	1	1	0	1	0
74	706	7	10000	1	1	0	1	0
72	707	7	10000	1	1	0	1	0
71	708	7	10000	1	1	0	1	0
69	709	7	10000	1	1	0	1	0
69	710	7	10000	1	1	0	1	0
69	711	7	10000	1	1	0	1	0
69	712	7	10000	1	1	0	1	0
68	713	7	10000	1	1	0	1	0
64	714	7	10000	1	1	0	1	0
61	715	7	10000	1	1	0	1	0
59	716	7	10000	1	1	0	1	0
57	717	7	10000	1	1	0	1	0
56	718	7	10000	1	1	0	1	0
56	719	7	10000	1	1	0	1	0
55	720	7	10000	1	1	0	1	0
54	721	7	10000	1	1	0	1	0
49	722	7	10000	1	1	0	1	0
48	723	7	10000	1	1	0	1	0
47	724	7	10000	1	1	0	1	0
45	725	7	10000	1	1	0	1	0
44	726	7	10000	1	1	0	1	0
43	727	7	10000	1	1	0	1	0
41	728	7	10000	1	1	0	1	0
39	729	7	10000	1	1	0	1	0
38	730	7	10000	1	1	0	1	0
37	731	7	10000	1	1	0	1	0
38	732	7	10000	1	1	0	1	0
40	733	7	10000	1	1	0	1	0
40	734	7	10000	1	1	0	1	0
39	735	7	10000	1	1	0	1	0
39	736	7	10000	1	1	0	1	0
37	737	7	10000	1	1	0	1	0
36	738	7	10000	1	1	0	1	0
36	739	7	10000	1	1	0	1	0
38	740	7	10000	1	1	0	1	0
39	741	7	10000	1	1	0	1	0
40	742	7	10000	1	1	0	1	0
41	743	7	10000	1	1	0	1	0
41	744	7	10000	1	1	0	1	0
40	745	7	10000	1	1	0	1	0
38	746	7	10000	1	1	0	1	0
37	747	7	10000	1	1	0	1	0
37	748	7	10000	1	1	0	1	0
40	749	7	10000	1	1	0	1	0
40	750	7	10000	1	1	0	1	0
41	751	7	10000	1	1	0	1	0
42	752	7	10000	1	1	0	1	0
41	753	7	10000	1	1	0	1	0
39	754	7	10000	1	1	0	1	0
38	755	7	10000	1	1	0	1	0
37	756	7	10000	1	1	0	1	0
36	757	7	10000	1	1	0	1	0
35	758	7	10000	1	1	0	1	0
37	759	7	10000	1	1	0	1	0
37	760	7	10000	1	1	0	1	0
37	761	7	10000	1	1	0	1	0
36	762	7	10000	1	1	0	1	0
35	763	7	10000	1	1	0	1	0
35	764	7	10000	1	1	0	1	0
34	765	7	10000	1	1	0	1	0
33	766	7	10000	1	1	0	1	0
32	767	7	10000	1	1	0	1	0
32	768	7	10000	1	1	0	1	0
30	769	7	10000	1	1	0	1	0
29	770	7	10000	1	1	0	1	0
29	771	7	10000	1	1	0	1	0
28	772	7	10000	1	1	0	1	0
27	773	7	10000	1	1	0	1	0
26	774	7	10000	1	1	0	1	0
25	775	7	10000	1	1	0	1	0
26	776	7	10000	1	1	0	1	0
26	777	7	10000	1	1	0	1	0
26	778	7	10000	1	1	0	1	0
27	779	7	10000	1	1	0	1	0
26	780	7	10000	1	1	0	1	0
25	781	7	10000	1	1	0	1	0
23	782	7	10000	1	1	0	1	0
23	783	7	10000	1	1	0	1	0
24	784	7	10000	1	1	0	1	0
25	785	7	10000	1	1	0	1	0
24	786	7	10000	1	1	0	1	0
23	787	7	10000	1	1	0	1	0
23	788	7	10000	1	1	0	1	0
22	789	7	10000	1	1	0	1	0
20	790	7	10000	1	1	0	1	0
20	791	7	10000	1	1	0	1	0
21	792	7	10000	1	1	0	1	0
21	793	7	10000	1	1	0	1	0
20	794	7	10000	1	1	0	1	0
21	795	7	10000	1	1	0	1	0
20	796	7	10000	1	1	0	1	0
20	797	7	10000	1	1	0	1	0
20	798	7	10000	1	1	0	1	0
21	799	7	10000	1	1	0	1	0
22	800	7	10000	1	1	0	1	0
22	801	7	10000	1	1	0	1	0
21	802	7	10000	1	1	0	1	0
21	803	7	10000	1	1	0	1	0
21	804	7	10000	1	1	0	1	0
20	805	7	10000	1	1	0	1	0
20	806	7	10000	1	1	0	1	0
20	807	7	10000	1	1	0	1	0
19	808	7	10000	1	1	0	1	0
19	809	7	10000	1	1	0	1	0
19	810	7	10000	1	1	0	1	0
20	811	7	10000	1	1	0	1	0
21	812	7	10000	1	1	0	1	0
20	813	7	10000	1	1	0	1	0
20	814	7	10000	1	1	0	1	0
20	815	7	10000	1	1	0	1	0
19	816	7	10000	1	1	0	1	0
19	817	7	10000	1	1	0	1	0
18	818	7	10000	1	1	0	1	0
18	819	7	10000	1	1	0	1	0
17	820	7	10000	1	1	0	1	0
17	821	7	10000	1	1	0	1	0
16	822	7	10000	1	1	0	1	0
16	823	7	10000	1	1	0	1	0
16	824	7	10000	1	1	0	1	0
19	825	7	10000	1	1	0	1	0
22	826	7	10000	1	1	0	1	0
23	827	7	10000	1	1	0	1	0
23	828	7	10000	1	1	0	1	0
21	829	7	10000	1	1	0	1	0
24	830	7	10000	1	1	0	1	0
26	831	7	10000	1	1	0	1	0
28	832	7	10000	1	1	0	1	0
28	833	7	10000	1	1	0	1	0
26	834	7	10000	1	1	0	1	0
27	835	7	10000	1	1	0	1	0
27	836	7	10000	1	1	0	1	0
29	837	7	10000	1	1	0	1	0
31	838	7	10000	1	1	0	1	0
32	839	7	10000	1	1	0	1	0
31	840	7	10000	1	1	0	1	0
30	841	7	10000	1	1	0	1	0
32	842	7	10000	1	1	0	1	0
36	843	7	10000	1	1	0	1	0
40	844	7	10000	1	1	0	1	0
43	845	7	10000	1	1	0	1	0
43	846	7	10000	1	1	0	1	0
44	847	7	10000	1	1	0	1	0
44	848	7	10000	1	1	0	1	0
41	849	7	10000	1	1	0	1	0
40	850	7	10000	1	1	0	1	0
40	851	7	10000	1	1	0	1	0
40	852	7	10000	1	1	0	1	0
40	853	7	10000	1	1	0	1	0
39	854	7	10000	1	1	0	1	0
38	855	7	10000	1	1	0	1	0
36	856	7	10000	1	1	0	1	0
37	857	7	10000	1	1	0	1	0
36	858	7	10000	1	1	0	1	0
35	859	7	10000	1	1	0	1	0
37	860	7	10000	1	1	0	1	0
41	861	7	10000	1	1	0	1	0
41	862	7	10000	1	1	0	1	0
43	863	7	10000	1	1	0	1	0
44	864	7	10000	1	1	0	1	0
49	865	7	10000	1	1	0	1	0
52	866	7	10000	1	1	0	1	0
52	867	7	10000	1	1	0	1	0
51	868	7	10000	1	1	0	1	0
49	869	7	10000	1	1	0	1	0
47	870	7	10000	1	1	0	1	0
48	871	7	10000	1	1	0	1	0
49	872	7	10000	1	1	0	1	0
49	873	7	10000	1	1	0	1	0
50	874	7	10000	1	1	0	1	0
51	875	7	10000	1	1	0	1	0
51	876	7	10000	1	1	0	1	0
51	877	7	10000	1	1	0	1	0
49	878	7	10000	1	1	0	1	0
48	879	7	10000	1	1	0	1	0
47	880	7	10000	1	1	0	1	0
45	881	7	10000	1	1	0	1	0
45	882	7	10000	1	1	0	1	0
44	883	7	10000	1	1	0	1	0
44	884	7	10000	1	1	0	1	0
47	885	7	10000	1	1	0	1	0
48	886	7	10000	1	1	0	1	0
49	887	7	10000	1	1	0	1	0
48	888	7	10000	1	1	0	1	0
48	889	7	10000	1	1	0	1	0
50	890	7	10000	1	1	0	1	0
53	891	7	10000	1	1	0	1	0
56	892	7	10000	1	1	0	1	0
55	893	7	10000	1	1	0	1	0
53	894	7	10000	1	1	0	1	0
51	895	7	10000	1	1	0	1	0
49	896	7	10000	1	1	0	1	0
47	897	7	10000	1	1	0	1	0
46	898	7	10000	1	1	0	1	0
45	899	7	10000	1	1	0	1	0
44	900	7	10000	1	1	0	1	0
42	901	7	10000	1	1	0	1	0
39	902	7	10000	1	1	0	1	0
38	903	7	10000	1	1	0	1	0
38	904	7	10000	1	1	0	1	0
36	905	7	10000	1	1	0	1	0
35	906	7	10000	1	1	0	1	0
34	907	7	10000	1	1	0	1	0
32	908	7	10000	1	1	0	1	0
32	909	7	10000	1	1	0	1	0
32	910	7	10000	1	1	0	1	0
31	911	7	10000	1	1	0	1	0
35	912	7	10000	1	1	0	1	0
40	913	7	10000	1	1	0	1	0
46	914	7	10000	1	1	0	1	0
48	915	7	10000	1	1	0	1	0
52	916	7	10000	1	1	0	1	0
55	917	7	10000	1	1	0	1	0
54	918	7	10000	1	1	0	1	0
52	919	7	10000	1	1	0	1	0
52	920	7	10000	1	1	0	1	0
52	921	7	10000	1	1	0	1	0
51	922	7	10000	1	1	0	1	0
54	923	7	10000	1	1	0	1	0
53	924	7	10000	1	1	0	1	0
51	925	7	10000	1	1	0	1	0
50	926	7	10000	1	1	0	1	0
49	927	7	10000	1	1	0	1	0
48	928	7	10000	1	1	0	1	0
47	929	7	10000	1	1	0	1	0
45	930	7	10000	1	1	0	1	0
44	931	7	10000	1	1	0	1	0
44	932	7	10000	1	1	0	1	0
44	933	7	10000	1	1	0	1	0
43	934	7	10000	1	1	0	1	0
41	935	7	10000	1	1	0	1	0
40	936	7	10000	1	1	0	1	0
38	937	7	10000	1	1	0	1	0
40	938	7	10000	1	1	0	1	0
41	939	7	10000	1	1	0	1	0
40	940	7	10000	1	1	0	1	0
37	941	7	10000	1	1	0	1	0
39	942	7	10000	1	1	0	1	0
41	943	7	10000	1	1	0	1	0
41	944	7	10000	1	1	0	1	0
43	945	7	10000	1	1	0	1	0
43	946	7	10000	1	1	0	1	0
42	947	7	10000	1	1	0	1	0
39	948	7	10000	1	1	0	1	0
38	949	7	10000	1	1	0	1	0
37	950	7	10000	1	1	0	1	0
39	951	7	10000	1	1	0	1	0
40	952	7	10000	1	1	0	1	0
38	953	7	10000	1	1	0	1	0
36	954	7	10000	1	1	0	1	0
36	955	7	10000	1	1	0	1	0
37	956	7	10000	1	1	0	1	0
37	957	7	10000	1	1	0	1	0
36	958	7	10000	1	1	0	1	0
36	959	7	10000	1	1	0	1	0
41	960	7	10000	1	1	0	1	0
40	961	7	10000	1	1	0	1	0
38	962	7	10000	1	1	0	1	0
38	963	7	10000	1	1	0	1	0
42	964	7	10000	1	1	0	1	0
46	965	7	10000	1	1	0	1	0
45	966	7	10000	1	1	0	1	0
44	967	7	10000	1	1	0	1	0
43	968	7	10000	1	1	0	1	0
42	969	7	10000	1	1	0	1	0
42	970	7	10000	1	1	0	1	0
41	971	7	10000	1	1	0	1	0
41	972	7	10000	1	1	0	1	0
39	973	7	10000	1	1	0	1	0
38	974	7	10000	1	1	0	1	0
38	975	7	10000	1	1	0	1	0
36	976	7	10000	1	1	0	1	0
37	977	7	10000	1	1	0	1	0
40	978	7	10000	1	1	0	1	0
41	979	7	10000	1	1	0	1	0
47	980	7	10000	1	1	0	1	0
50	981	7	10000	1	1	0	1	0
46	982	7	10000	1	1	0	1	0
45	983	7	10000	1	1	0	1	0
44	984	7	10000	1	1	0	1	0
43	985	7	10000	1	1	0	1	0
42	986	7	10000	1	1	0	1	0
43	987	7	10000	1	1	0	1	0
44	988	7	10000	1	1	0	1	0
44	989	7	10000	1	1	0	1	0
42	990	7	10000	1	1	0	1	0
42	991	7	10000	1	1	0	1	0
42	992	7	10000	1	1	0	1	0
41	993	7	10000	1	1	0	1	0
41	994	7	10000	1	1	0	1	0
42	995	7	10000	1	1	0	1	0
42	996	7	10000	1	1	0	1	0
40	997	7	10000	1	1	0	1	0
39	998	7	10000	1	1	0	1	0
40	999	7	10000	1	1	0	1	0
39	1000	7	10000	1	1	0	1	0
38	1001	7	10000	1	1	0	1	0
62	1	7	10000	2	1	0	2	0
61	2	7	10000	2	1	0	2	0
60	3	7	10000	2	1	0	2	0
56	4	7	10000	2	1	0	2	0
55	5	7	10000	2	1	0	2	0
59	6	7	10000	2	1	0	2	0
63	7	7	10000	2	1	0	2	0
64	8	7	10000	2	1	0	2	0
64	9	7	10000	2	1	0	2	0
63	10	7	10000	2	1	0	2	0
62	11	7	10000	2	1	0	2	0
60	12	7	10000	2	1	0	2	0
57	13	7	10000	2	1	0	2	0
57	14	7	10000	2	1	0	2	0
56	15	7	10000	2	1	0	2	0
53	16	7	10000	2	1	0	2	0
51	17	7	10000	2	1	0	2	0
50	18	7	10000	2	1	0	2	0
48	19	7	10000	2	1	0	2	0
45	20	7	10000	2	1	0	2	0
45	21	7	10000	2	1	0	2	0
44	22	7	10000	2	1	0	2	0
43	23	7	10000	2	1	0	2	0
39	24	7	10000	2	1	0	2	0
36	25	7	10000	2	1	0	2	0
36	26	7	10000	2	1	0	2	0
36	27	7	10000	2	1	0	2	0
35	28	7	10000	2	1	0	2	0
33	29	7	10000	2	1	0	2	0
33	30	7	10000	2	1	0	2	0
32	31	7	10000	2	1	0	2	0
31	32	7	10000	2	1	0	2	0
31	33	7	10000	2	1	0	2	0
33	34	7	10000	2	1	0	2	0
33	35	7	10000	2	1	0	2	0
32	36	7	10000	2	1	0	2	0
31	37	7	10000	2	1	0	2	0
30	38	7	10000	2	1	0	2	0
31	39	7	10000	2	1	0	2	0
31	40	7	10000	2	1	0	2	0
30	41	7	10000	2	1	0	2	0
30	42	7	10000	2	1	0	2	0
28	43	7	10000	2	1	0	2	0
27	44	7	10000	2	1	0	2	0
30	45	7	10000	2	1	0	2	0
33	46	7	10000	2	1	0	2	0
35	47	7	10000	2	1	0	2	0
37	48	7	10000	2	1	0	2	0
36	49	7	10000	2	1	0	2	0
35	50	7	10000	2	1	0	2	0
37	51	7	10000	2	1	0	2	0
40	52	7	10000	2	1	0	2	0
42	53	7	10000	2	1	0	2	0
46	54	7	10000	2	1	0	2	0
47	55	7	10000	2	1	0	2	0
47	56	7	10000	2	1	0	2	0
47	57	7	10000	2	1	0	2	0
46	58	7	10000	2	1	0	2	0
44	59	7	10000	2	1	0	2	0
42	60	7	10000	2	1	0	2	0
41	61	7	10000	2	1	0	2	0
40	62	7	10000	2	1	0	2	0
39	63	7	10000	2	1	0	2	0
37	64	7	10000	2	1	0	2	0
36	65	7	10000	2	1	0	2	0
36	66	7	10000	2	1	0	2	0
35	67	7	10000	2	1	0	2	0
35	68	7	10000	2	1	0	2	0
35	69	7	10000	2	1	0	2	0
36	70	7	10000	2	1	0	2	0
35	71	7	10000	2	1	0	2	0
33	72	7	10000	2	1	0	2	0
32	73	7	10000	2	1	0	2	0
35	74	7	10000	2	1	0	2	0
36	75	7	10000	2	1	0	2	0
34	76	7	10000	2	1	0	2	0
33	77	7	10000	2	1	0	2	0
33	78	7	10000	2	1	0	2	0
33	79	7	10000	2	1	0	2	0
32	80	7	10000	2	1	0	2	0
32	81	7	10000	2	1	0	2	0
32	82	7	10000	2	1	0	2	0
32	83	7	10000	2	1	0	2	0
30	84	7	10000	2	1	0	2	0
30	85	7	10000	2	1	0	2	0
32	86	7	10000	2	1	0	2	0
31	87	7	10000	2	1	0	2	0
31	88	7	10000	2	1	0	2	0
35	89	7	10000	2	1	0	2	0
38	90	7	10000	2	1	0	2	0
37	91	7	10000	2	1	0	2	0
37	92	7	10000	2	1	0	2	0
35	93	7	10000	2	1	0	2	0
35	94	7	10000	2	1	0	2	0
34	95	7	10000	2	1	0	2	0
34	96	7	10000	2	1	0	2	0
33	97	7	10000	2	1	0	2	0
34	98	7	10000	2	1	0	2	0
33	99	7	10000	2	1	0	2	0
33	100	7	10000	2	1	0	2	0
34	101	7	10000	2	1	0	2	0
35	102	7	10000	2	1	0	2	0
34	103	7	10000	2	1	0	2	0
31	104	7	10000	2	1	0	2	0
30	105	7	10000	2	1	0	2	0
30	106	7	10000	2	1	0	2	0
31	107	7	10000	2	1	0	2	0
32	108	7	10000	2	1	0	2	0
32	109	7	10000	2	1	0	2	0
31	110	7	10000	2	1	0	2	0
30	111	7	10000	2	1	0	2	0
30	112	7	10000	2	1	0	2	0
31	113	7	10000	2	1	0	2	0
31	114	7	10000	2	1	0	2	0
31	115	7	10000	2	1	0	2	0
32	116	7	10000	2	1	0	2	0
31	117	7	10000	2	1	0	2	0
31	118	7	10000	2	1	0	2	0
33	119	7	10000	2	1	0	2	0
33	120	7	10000	2	1	0	2	0
34	121	7	10000	2	1	0	2	0
33	122	7	10000	2	1	0	2	0
32	123	7	10000	2	1	0	2	0
31	124	7	10000	2	1	0	2	0
32	125	7	10000	2	1	0	2	0
33	126	7	10000	2	1	0	2	0
33	127	7	10000	2	1	0	2	0
34	128	7	10000	2	1	0	2	0
35	129	7	10000	2	1	0	2	0
36	130	7	10000	2	1	0	2	0
37	131	7	10000	2	1	0	2	0
37	132	7	10000	2	1	0	2	0
36	133	7	10000	2	1	0	2	0
39	134	7	10000	2	1	0	2	0
40	135	7	10000	2	1	0	2	0
41	136	7	10000	2	1	0	2	0
41	137	7	10000	2	1	0	2	0
39	138	7	10000	2	1	0	2	0
38	139	7	10000	2	1	0	2	0
37	140	7	10000	2	1	0	2	0
36	141	7	10000	2	1	0	2	0
36	142	7	10000	2	1	0	2	0
36	143	7	10000	2	1	0	2	0
35	144	7	10000	2	1	0	2	0
36	145	7	10000	2	1	0	2	0
37	146	7	10000	2	1	0	2	0
36	147	7	10000	2	1	0	2	0
36	148	7	10000	2	1	0	2	0
39	149	7	10000	2	1	0	2	0
39	150	7	10000	2	1	0	2	0
38	151	7	10000	2	1	0	2	0
36	152	7	10000	2	1	0	2	0
37	153	7	10000	2	1	0	2	0
40	154	7	10000	2	1	0	2	0
39	155	7	10000	2	1	0	2	0
38	156	7	10000	2	1	0	2	0
37	157	7	10000	2	1	0	2	0
35	158	7	10000	2	1	0	2	0
34	159	7	10000	2	1	0	2	0
33	160	7	10000	2	1	0	2	0
33	161	7	10000	2	1	0	2	0
34	162	7	10000	2	1	0	2	0
34	163	7	10000	2	1	0	2	0
30	164	7	10000	2	1	0	2	0
29	165	7	10000	2	1	0	2	0
29	166	7	10000	2	1	0	2	0
28	167	7	10000	2	1	0	2	0
27	168	7	10000	2	1	0	2	0
27	169	7	10000	2	1	0	2	0
28	170	7	10000	2	1	0	2	0
27	171	7	10000	2	1	0	2	0
26	172	7	10000	2	1	0	2	0
26	173	7	10000	2	1	0	2	0
29	174	7	10000	2	1	0	2	0
30	175	7	10000	2	1	0	2	0
30	176	7	10000	2	1	0	2	0
30	177	7	10000	2	1	0	2	0
30	178	7	10000	2	1	0	2	0
29	179	7	10000	2	1	0	2	0
31	180	7	10000	2	1	0	2	0
33	181	7	10000	2	1	0	2	0
32	182	7	10000	2	1	0	2	0
32	183	7	10000	2	1	0	2	0
29	184	7	10000	2	1	0	2	0
30	185	7	10000	2	1	0	2	0
30	186	7	10000	2	1	0	2	0
30	187	7	10000	2	1	0	2	0
31	188	7	10000	2	1	0	2	0
32	189	7	10000	2	1	0	2	0
34	190	7	10000	2	1	0	2	0
35	191	7	10000	2	1	0	2	0
36	192	7	10000	2	1	0	2	0
35	193	7	10000	2	1	0	2	0
36	194	7	10000	2	1	0	2	0
38	195	7	10000	2	1	0	2	0
39	196	7	10000	2	1	0	2	0
38	197	7	10000	2	1	0	2	0
37	198	7	10000	2	1	0	2	0
37	199	7	10000	2	1	0	2	0
37	200	7	10000	2	1	0	2	0
36	201	7	10000	2	1	0	2	0
36	202	7	10000	2	1	0	2	0
35	203	7	10000	2	1	0	2	0
33	204	7	10000	2	1	0	2	0
32	205	7	10000	2	1	0	2	0
31	206	7	10000	2	1	0	2	0
31	207	7	10000	2	1	0	2	0
30	208	7	10000	2	1	0	2	0
29	209	7	10000	2	1	0	2	0
29	210	7	10000	2	1	0	2	0
27	211	7	10000	2	1	0	2	0
28	212	7	10000	2	1	0	2	0
29	213	7	10000	2	1	0	2	0
34	214	7	10000	2	1	0	2	0
34	215	7	10000	2	1	0	2	0
39	216	7	10000	2	1	0	2	0
43	217	7	10000	2	1	0	2	0
43	218	7	10000	2	1	0	2	0
41	219	7	10000	2	1	0	2	0
40	220	7	10000	2	1	0	2	0
41	221	7	10000	2	1	0	2	0
42	222	7	10000	2	1	0	2	0
42	223	7	10000	2	1	0	2	0
39	224	7	10000	2	1	0	2	0
39	225	7	10000	2	1	0	2	0
37	226	7	10000	2	1	0	2	0
36	227	7	10000	2	1	0	2	0
36	228	7	10000	2	1	0	2	0
35	229	7	10000	2	1	0	2	0
36	230	7	10000	2	1	0	2	0
38	231	7	10000	2	1	0	2	0
37	232	7	10000	2	1	0	2	0
35	233	7	10000	2	1	0	2	0
37	234	7	10000	2	1	0	2	0
36	235	7	10000	2	1	0	2	0
34	236	7	10000	2	1	0	2	0
34	237	7	10000	2	1	0	2	0
32	238	7	10000	2	1	0	2	0
32	239	7	10000	2	1	0	2	0
33	240	7	10000	2	1	0	2	0
32	241	7	10000	2	1	0	2	0
34	242	7	10000	2	1	0	2	0
38	243	7	10000	2	1	0	2	0
35	244	7	10000	2	1	0	2	0
34	245	7	10000	2	1	0	2	0
35	246	7	10000	2	1	0	2	0
34	247	7	10000	2	1	0	2	0
33	248	7	10000	2	1	0	2	0
34	249	7	10000	2	1	0	2	0
32	250	7	10000	2	1	0	2	0
33	251	7	10000	2	1	0	2	0
36	252	7	10000	2	1	0	2	0
36	253	7	10000	2	1	0	2	0
41	254	7	10000	2	1	0	2	0
42	255	7	10000	2	1	0	2	0
41	256	7	10000	2	1	0	2	0
39	257	7	10000	2	1	0	2	0
38	258	7	10000	2	1	0	2	0
38	259	7	10000	2	1	0	2	0
38	260	7	10000	2	1	0	2	0
38	261	7	10000	2	1	0	2	0
37	262	7	10000	2	1	0	2	0
36	263	7	10000	2	1	0	2	0
32	264	7	10000	2	1	0	2	0
32	265	7	10000	2	1	0	2	0
32	266	7	10000	2	1	0	2	0
34	267	7	10000	2	1	0	2	0
34	268	7	10000	2	1	0	2	0
33	269	7	10000	2	1	0	2	0
33	270	7	10000	2	1	0	2	0
33	271	7	10000	2	1	0	2	0
32	272	7	10000	2	1	0	2	0
30	273	7	10000	2	1	0	2	0
32	274	7	10000	2	1	0	2	0
31	275	7	10000	2	1	0	2	0
30	276	7	10000	2	1	0	2	0
31	277	7	10000	2	1	0	2	0
30	278	7	10000	2	1	0	2	0
29	279	7	10000	2	1	0	2	0
29	280	7	10000	2	1	0	2	0
30	281	7	10000	2	1	0	2	0
30	282	7	10000	2	1	0	2	0
32	283	7	10000	2	1	0	2	0
30	284	7	10000	2	1	0	2	0
31	285	7	10000	2	1	0	2	0
33	286	7	10000	2	1	0	2	0
33	287	7	10000	2	1	0	2	0
32	288	7	10000	2	1	0	2	0
32	289	7	10000	2	1	0	2	0
32	290	7	10000	2	1	0	2	0
30	291	7	10000	2	1	0	2	0
30	292	7	10000	2	1	0	2	0
29	293	7	10000	2	1	0	2	0
31	294	7	10000	2	1	0	2	0
33	295	7	10000	2	1	0	2	0
33	296	7	10000	2	1	0	2	0
33	297	7	10000	2	1	0	2	0
32	298	7	10000	2	1	0	2	0
32	299	7	10000	2	1	0	2	0
31	300	7	10000	2	1	0	2	0
30	301	7	10000	2	1	0	2	0
29	302	7	10000	2	1	0	2	0
30	303	7	10000	2	1	0	2	0
33	304	7	10000	2	1	0	2	0
38	305	7	10000	2	1	0	2	0
41	306	7	10000	2	1	0	2	0
42	307	7	10000	2	1	0	2	0
42	308	7	10000	2	1	0	2	0
44	309	7	10000	2	1	0	2	0
48	310	7	10000	2	1	0	2	0
48	311	7	10000	2	1	0	2	0
48	312	7	10000	2	1	0	2	0
47	313	7	10000	2	1	0	2	0
49	314	7	10000	2	1	0	2	0
47	315	7	10000	2	1	0	2	0
45	316	7	10000	2	1	0	2	0
44	317	7	10000	2	1	0	2	0
43	318	7	10000	2	1	0	2	0
43	319	7	10000	2	1	0	2	0
44	320	7	10000	2	1	0	2	0
43	321	7	10000	2	1	0	2	0
46	322	7	10000	2	1	0	2	0
48	323	7	10000	2	1	0	2	0
47	324	7	10000	2	1	0	2	0
49	325	7	10000	2	1	0	2	0
49	326	7	10000	2	1	0	2	0
48	327	7	10000	2	1	0	2	0
47	328	7	10000	2	1	0	2	0
45	329	7	10000	2	1	0	2	0
45	330	7	10000	2	1	0	2	0
45	331	7	10000	2	1	0	2	0
45	332	7	10000	2	1	0	2	0
44	333	7	10000	2	1	0	2	0
46	334	7	10000	2	1	0	2	0
48	335	7	10000	2	1	0	2	0
50	336	7	10000	2	1	0	2	0
55	337	7	10000	2	1	0	2	0
64	338	7	10000	2	1	0	2	0
68	339	7	10000	2	1	0	2	0
68	340	7	10000	2	1	0	2	0
67	341	7	10000	2	1	0	2	0
69	342	7	10000	2	1	0	2	0
74	343	7	10000	2	1	0	2	0
76	344	7	10000	2	1	0	2	0
76	345	7	10000	2	1	0	2	0
76	346	7	10000	2	1	0	2	0
78	347	7	10000	2	1	0	2	0
81	348	7	10000	2	1	0	2	0
81	349	7	10000	2	1	0	2	0
78	350	7	10000	2	1	0	2	0
74	351	7	10000	2	1	0	2	0
71	352	7	10000	2	1	0	2	0
68	353	7	10000	2	1	0	2	0
68	354	7	10000	2	1	0	2	0
68	355	7	10000	2	1	0	2	0
70	356	7	10000	2	1	0	2	0
68	357	7	10000	2	1	0	2	0
66	358	7	10000	2	1	0	2	0
66	359	7	10000	2	1	0	2	0
63	360	7	10000	2	1	0	2	0
62	361	7	10000	2	1	0	2	0
61	362	7	10000	2	1	0	2	0
59	363	7	10000	2	1	0	2	0
55	364	7	10000	2	1	0	2	0
53	365	7	10000	2	1	0	2	0
52	366	7	10000	2	1	0	2	0
50	367	7	10000	2	1	0	2	0
50	368	7	10000	2	1	0	2	0
48	369	7	10000	2	1	0	2	0
48	370	7	10000	2	1	0	2	0
47	371	7	10000	2	1	0	2	0
45	372	7	10000	2	1	0	2	0
47	373	7	10000	2	1	0	2	0
51	374	7	10000	2	1	0	2	0
51	375	7	10000	2	1	0	2	0
51	376	7	10000	2	1	0	2	0
52	377	7	10000	2	1	0	2	0
51	378	7	10000	2	1	0	2	0
54	379	7	10000	2	1	0	2	0
54	380	7	10000	2	1	0	2	0
53	381	7	10000	2	1	0	2	0
55	382	7	10000	2	1	0	2	0
55	383	7	10000	2	1	0	2	0
53	384	7	10000	2	1	0	2	0
51	385	7	10000	2	1	0	2	0
51	386	7	10000	2	1	0	2	0
54	387	7	10000	2	1	0	2	0
55	388	7	10000	2	1	0	2	0
53	389	7	10000	2	1	0	2	0
54	390	7	10000	2	1	0	2	0
54	391	7	10000	2	1	0	2	0
53	392	7	10000	2	1	0	2	0
52	393	7	10000	2	1	0	2	0
54	394	7	10000	2	1	0	2	0
54	395	7	10000	2	1	0	2	0
53	396	7	10000	2	1	0	2	0
52	397	7	10000	2	1	0	2	0
51	398	7	10000	2	1	0	2	0
53	399	7	10000	2	1	0	2	0
56	400	7	10000	2	1	0	2	0
56	401	7	10000	2	1	0	2	0
55	402	7	10000	2	1	0	2	0
54	403	7	10000	2	1	0	2	0
52	404	7	10000	2	1	0	2	0
54	405	7	10000	2	1	0	2	0
55	406	7	10000	2	1	0	2	0
54	407	7	10000	2	1	0	2	0
51	408	7	10000	2	1	0	2	0
51	409	7	10000	2	1	0	2	0
52	410	7	10000	2	1	0	2	0
51	411	7	10000	2	1	0	2	0
48	412	7	10000	2	1	0	2	0
46	413	7	10000	2	1	0	2	0
46	414	7	10000	2	1	0	2	0
46	415	7	10000	2	1	0	2	0
45	416	7	10000	2	1	0	2	0
44	417	7	10000	2	1	0	2	0
45	418	7	10000	2	1	0	2	0
44	419	7	10000	2	1	0	2	0
43	420	7	10000	2	1	0	2	0
44	421	7	10000	2	1	0	2	0
45	422	7	10000	2	1	0	2	0
43	423	7	10000	2	1	0	2	0
42	424	7	10000	2	1	0	2	0
41	425	7	10000	2	1	0	2	0
39	426	7	10000	2	1	0	2	0
38	427	7	10000	2	1	0	2	0
38	428	7	10000	2	1	0	2	0
37	429	7	10000	2	1	0	2	0
37	430	7	10000	2	1	0	2	0
36	431	7	10000	2	1	0	2	0
41	432	7	10000	2	1	0	2	0
45	433	7	10000	2	1	0	2	0
46	434	7	10000	2	1	0	2	0
45	435	7	10000	2	1	0	2	0
44	436	7	10000	2	1	0	2	0
44	437	7	10000	2	1	0	2	0
45	438	7	10000	2	1	0	2	0
44	439	7	10000	2	1	0	2	0
43	440	7	10000	2	1	0	2	0
42	441	7	10000	2	1	0	2	0
41	442	7	10000	2	1	0	2	0
40	443	7	10000	2	1	0	2	0
37	444	7	10000	2	1	0	2	0
38	445	7	10000	2	1	0	2	0
38	446	7	10000	2	1	0	2	0
36	447	7	10000	2	1	0	2	0
35	448	7	10000	2	1	0	2	0
36	449	7	10000	2	1	0	2	0
35	450	7	10000	2	1	0	2	0
35	451	7	10000	2	1	0	2	0
35	452	7	10000	2	1	0	2	0
34	453	7	10000	2	1	0	2	0
34	454	7	10000	2	1	0	2	0
33	455	7	10000	2	1	0	2	0
36	456	7	10000	2	1	0	2	0
40	457	7	10000	2	1	0	2	0
40	458	7	10000	2	1	0	2	0
40	459	7	10000	2	1	0	2	0
38	460	7	10000	2	1	0	2	0
40	461	7	10000	2	1	0	2	0
41	462	7	10000	2	1	0	2	0
39	463	7	10000	2	1	0	2	0
36	464	7	10000	2	1	0	2	0
35	465	7	10000	2	1	0	2	0
32	466	7	10000	2	1	0	2	0
33	467	7	10000	2	1	0	2	0
33	468	7	10000	2	1	0	2	0
32	469	7	10000	2	1	0	2	0
32	470	7	10000	2	1	0	2	0
30	471	7	10000	2	1	0	2	0
29	472	7	10000	2	1	0	2	0
27	473	7	10000	2	1	0	2	0
29	474	7	10000	2	1	0	2	0
27	475	7	10000	2	1	0	2	0
26	476	7	10000	2	1	0	2	0
25	477	7	10000	2	1	0	2	0
24	478	7	10000	2	1	0	2	0
24	479	7	10000	2	1	0	2	0
23	480	7	10000	2	1	0	2	0
25	481	7	10000	2	1	0	2	0
25	482	7	10000	2	1	0	2	0
26	483	7	10000	2	1	0	2	0
24	484	7	10000	2	1	0	2	0
24	485	7	10000	2	1	0	2	0
24	486	7	10000	2	1	0	2	0
24	487	7	10000	2	1	0	2	0
25	488	7	10000	2	1	0	2	0
29	489	7	10000	2	1	0	2	0
34	490	7	10000	2	1	0	2	0
36	491	7	10000	2	1	0	2	0
35	492	7	10000	2	1	0	2	0
34	493	7	10000	2	1	0	2	0
37	494	7	10000	2	1	0	2	0
40	495	7	10000	2	1	0	2	0
39	496	7	10000	2	1	0	2	0
39	497	7	10000	2	1	0	2	0
40	498	7	10000	2	1	0	2	0
39	499	7	10000	2	1	0	2	0
40	500	7	10000	2	1	0	2	0
43	501	7	10000	2	1	0	2	1
47	502	7	10000	2	1	0	2	1
52	503	7	10000	2	1	0	2	1
56	504	7	10000	2	1	0	2	1
63	505	7	10000	2	1	0	2	1
74	506	7	10000	2	1	0	2	1
84	507	7	10000	2	1	0	2	1
93	508	7	10000	2	1	0	2	1
102	509	7	10000	2	1	0	2	1
107	510	7	10000	2	1	0	2	1
105	511	7	10000	2	1	0	2	1
105	512	7	10000	2	1	0	2	1
109	513	7	10000	2	1	0	2	1
116	514	7	10000	2	1	0	2	1
125	515	7	10000	2	1	0	2	1
136	516	7	10000	2	1	0	2	1
145	517	7	10000	2	1	0	2	1
149	518	7	10000	2	1	0	2	1
147	519	7	10000	2	1	0	2	1
142	520	7	10000	2	1	0	2	1
144	521	7	10000	2	1	0	2	1
145	522	7	10000	2	1	0	2	1
145	523	7	10000	2	1	0	2	1
142	524	7	10000	2	1	0	2	1
144	525	7	10000	2	1	0	2	1
142	526	7	10000	2	1	0	2	1
143	527	7	10000	2	1	0	2	1
147	528	7	10000	2	1	0	2	1
150	529	7	10000	2	1	0	2	1
150	530	7	10000	2	1	0	2	1
147	531	7	10000	2	1	0	2	1
141	532	7	10000	2	1	0	2	1
136	533	7	10000	2	1	0	2	1
131	534	7	10000	2	1	0	2	1
127	535	7	10000	2	1	0	2	1
125	536	7	10000	2	1	0	2	1
121	537	7	10000	2	1	0	2	1
117	538	7	10000	2	1	0	2	1
116	539	7	10000	2	1	0	2	1
114	540	7	10000	2	1	0	2	1
115	541	7	10000	2	1	0	2	1
113	542	7	10000	2	1	0	2	1
108	543	7	10000	2	1	0	2	1
110	544	7	10000	2	1	0	2	1
117	545	7	10000	2	1	0	2	1
123	546	7	10000	2	1	0	2	1
128	547	7	10000	2	1	0	2	1
132	548	7	10000	2	1	0	2	1
134	549	7	10000	2	1	0	2	1
137	550	7	10000	2	1	0	2	1
139	551	7	10000	2	1	0	2	0
140	552	7	10000	2	1	0	2	0
143	553	7	10000	2	1	0	2	0
150	554	7	10000	2	1	0	2	0
152	555	7	10000	2	1	0	2	0
155	556	7	10000	2	1	0	2	0
158	557	7	10000	2	1	0	2	0
159	558	7	10000	2	1	0	2	0
160	559	7	10000	2	1	0	2	0
162	560	7	10000	2	1	0	2	0
165	561	7	10000	2	1	0	2	0
167	562	7	10000	2	1	0	2	0
169	563	7	10000	2	1	0	2	0
169	564	7	10000	2	1	0	2	0
173	565	7	10000	2	1	0	2	0
176	566	7	10000	2	1	0	2	0
173	567	7	10000	2	1	0	2	0
166	568	7	10000	2	1	0	2	0
161	569	7	10000	2	1	0	2	0
155	570	7	10000	2	1	0	2	0
150	571	7	10000	2	1	0	2	0
148	572	7	10000	2	1	0	2	0
149	573	7	10000	2	1	0	2	0
151	574	7	10000	2	1	0	2	0
150	575	7	10000	2	1	0	2	0
147	576	7	10000	2	1	0	2	0
142	577	7	10000	2	1	0	2	0
139	578	7	10000	2	1	0	2	0
137	579	7	10000	2	1	0	2	0
134	580	7	10000	2	1	0	2	0
132	581	7	10000	2	1	0	2	0
128	582	7	10000	2	1	0	2	0
122	583	7	10000	2	1	0	2	0
118	584	7	10000	2	1	0	2	0
118	585	7	10000	2	1	0	2	0
115	586	7	10000	2	1	0	2	0
118	587	7	10000	2	1	0	2	0
127	588	7	10000	2	1	0	2	0
134	589	7	10000	2	1	0	2	0
139	590	7	10000	2	1	0	2	0
135	591	7	10000	2	1	0	2	0
136	592	7	10000	2	1	0	2	0
139	593	7	10000	2	1	0	2	0
147	594	7	10000	2	1	0	2	0
146	595	7	10000	2	1	0	2	0
145	596	7	10000	2	1	0	2	0
146	597	7	10000	2	1	0	2	0
153	598	7	10000	2	1	0	2	0
150	599	7	10000	2	1	0	2	0
143	600	7	10000	2	1	0	2	0
138	601	7	10000	2	1	0	2	0
136	602	7	10000	2	1	0	2	0
135	603	7	10000	2	1	0	2	0
154	604	7	10000	2	1	0	2	0
172	605	7	10000	2	1	0	2	0
172	606	7	10000	2	1	0	2	0
181	607	7	10000	2	1	0	2	0
200	608	7	10000	2	1	0	2	0
210	609	7	10000	2	1	0	2	0
207	610	7	10000	2	1	0	2	0
199	611	7	10000	2	1	0	2	0
191	612	7	10000	2	1	0	2	0
186	613	7	10000	2	1	0	2	0
181	614	7	10000	2	1	0	2	0
178	615	7	10000	2	1	0	2	0
174	616	7	10000	2	1	0	2	0
166	617	7	10000	2	1	0	2	0
160	618	7	10000	2	1	0	2	0
159	619	7	10000	2	1	0	2	0
155	620	7	10000	2	1	0	2	0
155	621	7	10000	2	1	0	2	0
184	622	7	10000	2	1	0	2	0
224	623	7	10000	2	1	0	2	0
225	624	7	10000	2	1	0	2	0
233	625	7	10000	2	1	0	2	0
242	626	7	10000	2	1	0	2	0
244	627	7	10000	2	1	0	2	0
243	628	7	10000	2	1	0	2	0
237	629	7	10000	2	1	0	2	0
232	630	7	10000	2	1	0	2	0
226	631	7	10000	2	1	0	2	0
219	632	7	10000	2	1	0	2	0
212	633	7	10000	2	1	0	2	0
206	634	7	10000	2	1	0	2	0
197	635	7	10000	2	1	0	2	0
188	636	7	10000	2	1	0	2	0
181	637	7	10000	2	1	0	2	0
175	638	7	10000	2	1	0	2	0
168	639	7	10000	2	1	0	2	0
161	640	7	10000	2	1	0	2	0
155	641	7	10000	2	1	0	2	0
150	642	7	10000	2	1	0	2	0
144	643	7	10000	2	1	0	2	0
137	644	7	10000	2	1	0	2	0
134	645	7	10000	2	1	0	2	0
131	646	7	10000	2	1	0	2	0
127	647	7	10000	2	1	0	2	0
123	648	7	10000	2	1	0	2	0
118	649	7	10000	2	1	0	2	0
114	650	7	10000	2	1	0	2	0
109	651	7	10000	2	1	0	2	0
104	652	7	10000	2	1	0	2	0
100	653	7	10000	2	1	0	2	0
100	654	7	10000	2	1	0	2	0
96	655	7	10000	2	1	0	2	0
93	656	7	10000	2	1	0	2	0
91	657	7	10000	2	1	0	2	0
89	658	7	10000	2	1	0	2	0
86	659	7	10000	2	1	0	2	0
82	660	7	10000	2	1	0	2	0
85	661	7	10000	2	1	0	2	0
92	662	7	10000	2	1	0	2	0
94	663	7	10000	2	1	0	2	0
93	664	7	10000	2	1	0	2	0
93	665	7	10000	2	1	0	2	0
91	666	7	10000	2	1	0	2	0
92	667	7	10000	2	1	0	2	0
95	668	7	10000	2	1	0	2	0
103	669	7	10000	2	1	0	2	0
117	670	7	10000	2	1	0	2	0
131	671	7	10000	2	1	0	2	0
143	672	7	10000	2	1	0	2	0
153	673	7	10000	2	1	0	2	0
165	674	7	10000	2	1	0	2	0
167	675	7	10000	2	1	0	2	0
168	676	7	10000	2	1	0	2	0
168	677	7	10000	2	1	0	2	0
171	678	7	10000	2	1	0	2	0
177	679	7	10000	2	1	0	2	0
190	680	7	10000	2	1	0	2	0
204	681	7	10000	2	1	0	2	0
215	682	7	10000	2	1	0	2	0
224	683	7	10000	2	1	0	2	0
228	684	7	10000	2	1	0	2	0
228	685	7	10000	2	1	0	2	0
229	686	7	10000	2	1	0	2	0
238	687	7	10000	2	1	0	2	0
252	688	7	10000	2	1	0	2	0
262	689	7	10000	2	1	0	2	0
267	690	7	10000	2	1	0	2	0
265	691	7	10000	2	1	0	2	0
263	692	7	10000	2	1	0	2	0
266	693	7	10000	2	1	0	2	0
276	694	7	10000	2	1	0	2	0
283	695	7	10000	2	1	0	2	0
289	696	7	10000	2	1	0	2	0
290	697	7	10000	2	1	0	2	0
288	698	7	10000	2	1	0	2	0
283	699	7	10000	2	1	0	2	0
273	700	7	10000	2	1	0	2	0
261	701	7	10000	2	1	0	2	0
251	702	7	10000	2	1	0	2	0
247	703	7	10000	2	1	0	2	0
242	704	7	10000	2	1	0	2	0
239	705	7	10000	2	1	0	2	0
235	706	7	10000	2	1	0	2	0
229	707	7	10000	2	1	0	2	0
222	708	7	10000	2	1	0	2	0
213	709	7	10000	2	1	0	2	0
205	710	7	10000	2	1	0	2	0
197	711	7	10000	2	1	0	2	0
188	712	7	10000	2	1	0	2	0
181	713	7	10000	2	1	0	2	0
178	714	7	10000	2	1	0	2	0
175	715	7	10000	2	1	0	2	0
174	716	7	10000	2	1	0	2	0
177	717	7	10000	2	1	0	2	0
181	718	7	10000	2	1	0	2	0
184	719	7	10000	2	1	0	2	0
188	720	7	10000	2	1	0	2	0
193	721	7	10000	2	1	0	2	0
200	722	7	10000	2	1	0	2	0
206	723	7	10000	2	1	0	2	0
207	724	7	10000	2	1	0	2	0
212	725	7	10000	2	1	0	2	0
215	726	7	10000	2	1	0	2	0
219	727	7	10000	2	1	0	2	0
222	728	7	10000	2	1	0	2	0
226	729	7	10000	2	1	0	2	0
233	730	7	10000	2	1	0	2	0
237	731	7	10000	2	1	0	2	0
241	732	7	10000	2	1	0	2	0
243	733	7	10000	2	1	0	2	0
246	734	7	10000	2	1	0	2	0
250	735	7	10000	2	1	0	2	0
251	736	7	10000	2	1	0	2	0
249	737	7	10000	2	1	0	2	0
250	738	7	10000	2	1	0	2	0
250	739	7	10000	2	1	0	2	0
244	740	7	10000	2	1	0	2	0
244	741	7	10000	2	1	0	2	0
249	742	7	10000	2	1	0	2	0
251	743	7	10000	2	1	0	2	0
250	744	7	10000	2	1	0	2	0
248	745	7	10000	2	1	0	2	0
243	746	7	10000	2	1	0	2	0
239	747	7	10000	2	1	0	2	0
237	748	7	10000	2	1	0	2	0
235	749	7	10000	2	1	0	2	0
232	750	7	10000	2	1	0	2	0
228	751	7	10000	2	1	0	2	0
225	752	7	10000	2	1	0	2	0
221	753	7	10000	2	1	0	2	0
219	754	7	10000	2	1	0	2	0
216	755	7	10000	2	1	0	2	0
212	756	7	10000	2	1	0	2	0
207	757	7	10000	2	1	0	2	0
201	758	7	10000	2	1	0	2	0
193	759	7	10000	2	1	0	2	0
187	760	7	10000	2	1	0	2	0
184	761	7	10000	2	1	0	2	0
179	762	7	10000	2	1	0	2	0
173	763	7	10000	2	1	0	2	0
165	764	7	10000	2	1	0	2	0
158	765	7	10000	2	1	0	2	0
152	766	7	10000	2	1	0	2	0
152	767	7	10000	2	1	0	2	0
148	768	7	10000	2	1	0	2	0
142	769	7	10000	2	1	0	2	0
138	770	7	10000	2	1	0	2	0
133	771	7	10000	2	1	0	2	0
132	772	7	10000	2	1	0	2	0
130	773	7	10000	2	1	0	2	0
126	774	7	10000	2	1	0	2	0
120	775	7	10000	2	1	0	2	0
120	776	7	10000	2	1	0	2	0
119	777	7	10000	2	1	0	2	0
116	778	7	10000	2	1	0	2	0
116	779	7	10000	2	1	0	2	0
113	780	7	10000	2	1	0	2	0
115	781	7	10000	2	1	0	2	0
117	782	7	10000	2	1	0	2	0
117	783	7	10000	2	1	0	2	0
114	784	7	10000	2	1	0	2	0
111	785	7	10000	2	1	0	2	0
106	786	7	10000	2	1	0	2	0
104	787	7	10000	2	1	0	2	0
104	788	7	10000	2	1	0	2	0
104	789	7	10000	2	1	0	2	0
105	790	7	10000	2	1	0	2	0
101	791	7	10000	2	1	0	2	0
97	792	7	10000	2	1	0	2	0
96	793	7	10000	2	1	0	2	0
95	794	7	10000	2	1	0	2	0
96	795	7	10000	2	1	0	2	0
95	796	7	10000	2	1	0	2	0
92	797	7	10000	2	1	0	2	0
88	798	7	10000	2	1	0	2	0
84	799	7	10000	2	1	0	2	0
81	800	7	10000	2	1	0	2	0
81	801	7	10000	2	1	0	2	0
79	802	7	10000	2	1	0	2	0
79	803	7	10000	2	1	0	2	0
75	804	7	10000	2	1	0	2	0
75	805	7	10000	2	1	0	2	0
74	806	7	10000	2	1	0	2	0
73	807	7	10000	2	1	0	2	0
71	808	7	10000	2	1	0	2	0
68	809	7	10000	2	1	0	2	0
65	810	7	10000	2	1	0	2	0
62	811	7	10000	2	1	0	2	0
59	812	7	10000	2	1	0	2	0
59	813	7	10000	2	1	0	2	0
60	814	7	10000	2	1	0	2	0
62	815	7	10000	2	1	0	2	0
63	816	7	10000	2	1	0	2	0
63	817	7	10000	2	1	0	2	0
63	818	7	10000	2	1	0	2	0
62	819	7	10000	2	1	0	2	0
63	820	7	10000	2	1	0	2	0
62	821	7	10000	2	1	0	2	0
64	822	7	10000	2	1	0	2	0
67	823	7	10000	2	1	0	2	0
68	824	7	10000	2	1	0	2	0
72	825	7	10000	2	1	0	2	0
70	826	7	10000	2	1	0	2	0
69	827	7	10000	2	1	0	2	0
70	828	7	10000	2	1	0	2	0
72	829	7	10000	2	1	0	2	0
71	830	7	10000	2	1	0	2	0
67	831	7	10000	2	1	0	2	0
65	832	7	10000	2	1	0	2	0
65	833	7	10000	2	1	0	2	0
65	834	7	10000	2	1	0	2	0
66	835	7	10000	2	1	0	2	0
65	836	7	10000	2	1	0	2	0
62	837	7	10000	2	1	0	2	0
61	838	7	10000	2	1	0	2	0
58	839	7	10000	2	1	0	2	0
57	840	7	10000	2	1	0	2	0
57	841	7	10000	2	1	0	2	0
58	842	7	10000	2	1	0	2	0
57	843	7	10000	2	1	0	2	0
57	844	7	10000	2	1	0	2	0
58	845	7	10000	2	1	0	2	0
55	846	7	10000	2	1	0	2	0
54	847	7	10000	2	1	0	2	0
55	848	7	10000	2	1	0	2	0
57	849	7	10000	2	1	0	2	0
56	850	7	10000	2	1	0	2	0
54	851	7	10000	2	1	0	2	0
55	852	7	10000	2	1	0	2	0
56	853	7	10000	2	1	0	2	0
55	854	7	10000	2	1	0	2	0
54	855	7	10000	2	1	0	2	0
52	856	7	10000	2	1	0	2	0
50	857	7	10000	2	1	0	2	0
48	858	7	10000	2	1	0	2	0
47	859	7	10000	2	1	0	2	0
46	860	7	10000	2	1	0	2	0
45	861	7	10000	2	1	0	2	0
45	862	7	10000	2	1	0	2	0
43	863	7	10000	2	1	0	2	0
41	864	7	10000	2	1	0	2	0
42	865	7	10000	2	1	0	2	0
42	866	7	10000	2	1	0	2	0
45	867	7	10000	2	1	0	2	0
48	868	7	10000	2	1	0	2	0
46	869	7	10000	2	1	0	2	0
44	870	7	10000	2	1	0	2	0
44	871	7	10000	2	1	0	2	0
43	872	7	10000	2	1	0	2	0
42	873	7	10000	2	1	0	2	0
42	874	7	10000	2	1	0	2	0
41	875	7	10000	2	1	0	2	0
41	876	7	10000	2	1	0	2	0
39	877	7	10000	2	1	0	2	0
37	878	7	10000	2	1	0	2	0
36	879	7	10000	2	1	0	2	0
34	880	7	10000	2	1	0	2	0
37	881	7	10000	2	1	0	2	0
39	882	7	10000	2	1	0	2	0
38	883	7	10000	2	1	0	2	0
35	884	7	10000	2	1	0	2	0
36	885	7	10000	2	1	0	2	0
37	886	7	10000	2	1	0	2	0
36	887	7	10000	2	1	0	2	0
35	888	7	10000	2	1	0	2	0
34	889	7	10000	2	1	0	2	0
33	890	7	10000	2	1	0	2	0
32	891	7	10000	2	1	0	2	0
33	892	7	10000	2	1	0	2	0
35	893	7	10000	2	1	0	2	0
39	894	7	10000	2	1	0	2	0
37	895	7	10000	2	1	0	2	0
36	896	7	10000	2	1	0	2	0
36	897	7	10000	2	1	0	2	0
35	898	7	10000	2	1	0	2	0
38	899	7	10000	2	1	0	2	0
44	900	7	10000	2	1	0	2	0
46	901	7	10000	2	1	0	2	0
50	902	7	10000	2	1	0	2	0
57	903	7	10000	2	1	0	2	0
58	904	7	10000	2	1	0	2	0
63	905	7	10000	2	1	0	2	0
72	906	7	10000	2	1	0	2	0
77	907	7	10000	2	1	0	2	0
83	908	7	10000	2	1	0	2	0
90	909	7	10000	2	1	0	2	0
96	910	7	10000	2	1	0	2	0
103	911	7	10000	2	1	0	2	0
110	912	7	10000	2	1	0	2	0
116	913	7	10000	2	1	0	2	0
119	914	7	10000	2	1	0	2	0
120	915	7	10000	2	1	0	2	0
122	916	7	10000	2	1	0	2	0
123	917	7	10000	2	1	0	2	0
127	918	7	10000	2	1	0	2	0
128	919	7	10000	2	1	0	2	0
129	920	7	10000	2	1	0	2	0
129	921	7	10000	2	1	0	2	0
128	922	7	10000	2	1	0	2	0
126	923	7	10000	2	1	0	2	0
122	924	7	10000	2	1	0	2	0
119	925	7	10000	2	1	0	2	0
116	926	7	10000	2	1	0	2	0
112	927	7	10000	2	1	0	2	0
110	928	7	10000	2	1	0	2	0
110	929	7	10000	2	1	0	2	0
107	930	7	10000	2	1	0	2	0
103	931	7	10000	2	1	0	2	0
99	932	7	10000	2	1	0	2	0
98	933	7	10000	2	1	0	2	0
99	934	7	10000	2	1	0	2	0
96	935	7	10000	2	1	0	2	0
98	936	7	10000	2	1	0	2	0
102	937	7	10000	2	1	0	2	0
106	938	7	10000	2	1	0	2	0
109	939	7	10000	2	1	0	2	0
112	940	7	10000	2	1	0	2	0
118	941	7	10000	2	1	0	2	0
123	942	7	10000	2	1	0	2	0
127	943	7	10000	2	1	0	2	0
127	944	7	10000	2	1	0	2	0
125	945	7	10000	2	1	0	2	0
124	946	7	10000	2	1	0	2	0
126	947	7	10000	2	1	0	2	0
126	948	7	10000	2	1	0	2	0
127	949	7	10000	2	1	0	2	0
130	950	7	10000	2	1	0	2	0
129	951	7	10000	2	1	0	2	0
128	952	7	10000	2	1	0	2	0
130	953	7	10000	2	1	0	2	0
137	954	7	10000	2	1	0	2	0
140	955	7	10000	2	1	0	2	0
142	956	7	10000	2	1	0	2	0
142	957	7	10000	2	1	0	2	0
140	958	7	10000	2	1	0	2	0
137	959	7	10000	2	1	0	2	0
135	960	7	10000	2	1	0	2	0
133	961	7	10000	2	1	0	2	0
131	962	7	10000	2	1	0	2	0
128	963	7	10000	2	1	0	2	0
124	964	7	10000	2	1	0	2	0
123	965	7	10000	2	1	0	2	0
120	966	7	10000	2	1	0	2	0
115	967	7	10000	2	1	0	2	0
110	968	7	10000	2	1	0	2	0
107	969	7	10000	2	1	0	2	0
107	970	7	10000	2	1	0	2	0
105	971	7	10000	2	1	0	2	0
102	972	7	10000	2	1	0	2	0
103	973	7	10000	2	1	0	2	0
101	974	7	10000	2	1	0	2	0
98	975	7	10000	2	1	0	2	0
98	976	7	10000	2	1	0	2	0
99	977	7	10000	2	1	0	2	0
97	978	7	10000	2	1	0	2	0
93	979	7	10000	2	1	0	2	0
90	980	7	10000	2	1	0	2	0
86	981	7	10000	2	1	0	2	0
84	982	7	10000	2	1	0	2	0
83	983	7	10000	2	1	0	2	0
80	984	7	10000	2	1	0	2	0
79	985	7	10000	2	1	0	2	0
77	986	7	10000	2	1	0	2	0
74	987	7	10000	2	1	0	2	0
71	988	7	10000	2	1	0	2	0
71	989	7	10000	2	1	0	2	0
69	990	7	10000	2	1	0	2	0
69	991	7	10000	2	1	0	2	0
67	992	7	10000	2	1	0	2	0
68	993	7	10000	2	1	0	2	0
70	994	7	10000	2	1	0	2	0
68	995	7	10000	2	1	0	2	0
67	996	7	10000	2	1	0	2	0
64	997	7	10000	2	1	0	2	0
64	998	7	10000	2	1	0	2	0
61	999	7	10000	2	1	0	2	0
61	1000	7	10000	2	1	0	2	0
21	2	7	10000	3	1	0	3	0
20	3	7	10000	3	1	0	3	0
21	4	7	10000	3	1	0	3	0
23	5	7	10000	3	1	0	3	0
21	6	7	10000	3	1	0	3	0
20	7	7	10000	3	1	0	3	0
20	8	7	10000	3	1	0	3	0
20	9	7	10000	3	1	0	3	0
19	10	7	10000	3	1	0	3	0
20	11	7	10000	3	1	0	3	0
21	12	7	10000	3	1	0	3	0
20	13	7	10000	3	1	0	3	0
20	14	7	10000	3	1	0	3	0
20	15	7	10000	3	1	0	3	0
22	16	7	10000	3	1	0	3	0
22	17	7	10000	3	1	0	3	0
22	18	7	10000	3	1	0	3	0
22	19	7	10000	3	1	0	3	0
24	20	7	10000	3	1	0	3	0
26	21	7	10000	3	1	0	3	0
24	22	7	10000	3	1	0	3	0
24	23	7	10000	3	1	0	3	0
27	24	7	10000	3	1	0	3	0
29	25	7	10000	3	1	0	3	0
30	26	7	10000	3	1	0	3	0
31	27	7	10000	3	1	0	3	0
31	28	7	10000	3	1	0	3	0
30	29	7	10000	3	1	0	3	0
29	30	7	10000	3	1	0	3	0
29	31	7	10000	3	1	0	3	0
29	32	7	10000	3	1	0	3	0
29	33	7	10000	3	1	0	3	0
27	34	7	10000	3	1	0	3	0
25	35	7	10000	3	1	0	3	0
25	36	7	10000	3	1	0	3	0
26	37	7	10000	3	1	0	3	0
26	38	7	10000	3	1	0	3	0
25	39	7	10000	3	1	0	3	0
24	40	7	10000	3	1	0	3	0
23	41	7	10000	3	1	0	3	0
23	42	7	10000	3	1	0	3	0
23	43	7	10000	3	1	0	3	0
23	44	7	10000	3	1	0	3	0
23	45	7	10000	3	1	0	3	0
23	46	7	10000	3	1	0	3	0
21	47	7	10000	3	1	0	3	0
20	48	7	10000	3	1	0	3	0
20	49	7	10000	3	1	0	3	0
19	50	7	10000	3	1	0	3	0
20	51	7	10000	3	1	0	3	0
22	52	7	10000	3	1	0	3	0
22	53	7	10000	3	1	0	3	0
20	54	7	10000	3	1	0	3	0
20	55	7	10000	3	1	0	3	0
19	56	7	10000	3	1	0	3	0
19	57	7	10000	3	1	0	3	0
19	58	7	10000	3	1	0	3	0
18	59	7	10000	3	1	0	3	0
18	60	7	10000	3	1	0	3	0
18	61	7	10000	3	1	0	3	0
18	62	7	10000	3	1	0	3	0
17	63	7	10000	3	1	0	3	0
19	64	7	10000	3	1	0	3	0
20	65	7	10000	3	1	0	3	0
18	66	7	10000	3	1	0	3	0
18	67	7	10000	3	1	0	3	0
17	68	7	10000	3	1	0	3	0
17	69	7	10000	3	1	0	3	0
18	70	7	10000	3	1	0	3	0
19	71	7	10000	3	1	0	3	0
19	72	7	10000	3	1	0	3	0
19	73	7	10000	3	1	0	3	0
17	74	7	10000	3	1	0	3	0
18	75	7	10000	3	1	0	3	0
20	76	7	10000	3	1	0	3	0
20	77	7	10000	3	1	0	3	0
23	78	7	10000	3	1	0	3	0
26	79	7	10000	3	1	0	3	0
26	80	7	10000	3	1	0	3	0
26	81	7	10000	3	1	0	3	0
24	82	7	10000	3	1	0	3	0
23	83	7	10000	3	1	0	3	0
24	84	7	10000	3	1	0	3	0
24	85	7	10000	3	1	0	3	0
23	86	7	10000	3	1	0	3	0
23	87	7	10000	3	1	0	3	0
22	88	7	10000	3	1	0	3	0
22	89	7	10000	3	1	0	3	0
21	90	7	10000	3	1	0	3	0
22	91	7	10000	3	1	0	3	0
23	92	7	10000	3	1	0	3	0
24	93	7	10000	3	1	0	3	0
22	94	7	10000	3	1	0	3	0
21	95	7	10000	3	1	0	3	0
21	96	7	10000	3	1	0	3	0
23	97	7	10000	3	1	0	3	0
25	98	7	10000	3	1	0	3	0
25	99	7	10000	3	1	0	3	0
24	100	7	10000	3	1	0	3	0
22	101	7	10000	3	1	0	3	0
21	102	7	10000	3	1	0	3	0
20	103	7	10000	3	1	0	3	0
21	104	7	10000	3	1	0	3	0
21	105	7	10000	3	1	0	3	0
22	106	7	10000	3	1	0	3	0
22	107	7	10000	3	1	0	3	0
21	108	7	10000	3	1	0	3	0
20	109	7	10000	3	1	0	3	0
20	110	7	10000	3	1	0	3	0
20	111	7	10000	3	1	0	3	0
22	112	7	10000	3	1	0	3	0
22	113	7	10000	3	1	0	3	0
20	114	7	10000	3	1	0	3	0
20	115	7	10000	3	1	0	3	0
20	116	7	10000	3	1	0	3	0
21	117	7	10000	3	1	0	3	0
21	118	7	10000	3	1	0	3	0
20	119	7	10000	3	1	0	3	0
21	120	7	10000	3	1	0	3	0
21	121	7	10000	3	1	0	3	0
20	122	7	10000	3	1	0	3	0
20	123	7	10000	3	1	0	3	0
21	124	7	10000	3	1	0	3	0
22	125	7	10000	3	1	0	3	0
21	126	7	10000	3	1	0	3	0
21	127	7	10000	3	1	0	3	0
20	128	7	10000	3	1	0	3	0
21	129	7	10000	3	1	0	3	0
22	130	7	10000	3	1	0	3	0
23	131	7	10000	3	1	0	3	0
24	132	7	10000	3	1	0	3	0
24	133	7	10000	3	1	0	3	0
22	134	7	10000	3	1	0	3	0
22	135	7	10000	3	1	0	3	0
21	136	7	10000	3	1	0	3	0
22	137	7	10000	3	1	0	3	0
22	138	7	10000	3	1	0	3	0
21	139	7	10000	3	1	0	3	0
20	140	7	10000	3	1	0	3	0
20	141	7	10000	3	1	0	3	0
19	142	7	10000	3	1	0	3	0
17	143	7	10000	3	1	0	3	0
18	144	7	10000	3	1	0	3	0
18	145	7	10000	3	1	0	3	0
17	146	7	10000	3	1	0	3	0
17	147	7	10000	3	1	0	3	0
16	148	7	10000	3	1	0	3	0
15	149	7	10000	3	1	0	3	0
16	150	7	10000	3	1	0	3	0
16	151	7	10000	3	1	0	3	0
17	152	7	10000	3	1	0	3	0
19	153	7	10000	3	1	0	3	0
17	154	7	10000	3	1	0	3	0
16	155	7	10000	3	1	0	3	0
16	156	7	10000	3	1	0	3	0
16	157	7	10000	3	1	0	3	0
17	158	7	10000	3	1	0	3	0
16	159	7	10000	3	1	0	3	0
17	160	7	10000	3	1	0	3	0
15	161	7	10000	3	1	0	3	0
15	162	7	10000	3	1	0	3	0
15	163	7	10000	3	1	0	3	0
20	164	7	10000	3	1	0	3	0
27	165	7	10000	3	1	0	3	0
37	166	7	10000	3	1	0	3	0
45	167	7	10000	3	1	0	3	0
49	168	7	10000	3	1	0	3	0
50	169	7	10000	3	1	0	3	0
52	170	7	10000	3	1	0	3	0
61	171	7	10000	3	1	0	3	0
67	172	7	10000	3	1	0	3	0
70	173	7	10000	3	1	0	3	0
69	174	7	10000	3	1	0	3	0
67	175	7	10000	3	1	0	3	0
67	176	7	10000	3	1	0	3	0
73	177	7	10000	3	1	0	3	0
81	178	7	10000	3	1	0	3	0
86	179	7	10000	3	1	0	3	0
88	180	7	10000	3	1	0	3	0
88	181	7	10000	3	1	0	3	0
87	182	7	10000	3	1	0	3	0
90	183	7	10000	3	1	0	3	0
93	184	7	10000	3	1	0	3	0
96	185	7	10000	3	1	0	3	0
98	186	7	10000	3	1	0	3	0
99	187	7	10000	3	1	0	3	0
100	188	7	10000	3	1	0	3	0
103	189	7	10000	3	1	0	3	0
104	190	7	10000	3	1	0	3	0
106	191	7	10000	3	1	0	3	0
108	192	7	10000	3	1	0	3	0
111	193	7	10000	3	1	0	3	0
116	194	7	10000	3	1	0	3	0
119	195	7	10000	3	1	0	3	0
124	196	7	10000	3	1	0	3	0
124	197	7	10000	3	1	0	3	0
122	198	7	10000	3	1	0	3	0
118	199	7	10000	3	1	0	3	0
120	200	7	10000	3	1	0	3	0
125	201	7	10000	3	1	0	3	0
131	202	7	10000	3	1	0	3	0
136	203	7	10000	3	1	0	3	0
140	204	7	10000	3	1	0	3	0
140	205	7	10000	3	1	0	3	0
137	206	7	10000	3	1	0	3	0
130	207	7	10000	3	1	0	3	0
123	208	7	10000	3	1	0	3	0
119	209	7	10000	3	1	0	3	0
116	210	7	10000	3	1	0	3	0
115	211	7	10000	3	1	0	3	0
116	212	7	10000	3	1	0	3	0
120	213	7	10000	3	1	0	3	0
124	214	7	10000	3	1	0	3	0
127	215	7	10000	3	1	0	3	0
127	216	7	10000	3	1	0	3	0
123	217	7	10000	3	1	0	3	0
119	218	7	10000	3	1	0	3	0
113	219	7	10000	3	1	0	3	0
109	220	7	10000	3	1	0	3	0
105	221	7	10000	3	1	0	3	0
101	222	7	10000	3	1	0	3	0
95	223	7	10000	3	1	0	3	0
93	224	7	10000	3	1	0	3	0
90	225	7	10000	3	1	0	3	0
89	226	7	10000	3	1	0	3	0
89	227	7	10000	3	1	0	3	0
89	228	7	10000	3	1	0	3	0
89	229	7	10000	3	1	0	3	0
90	230	7	10000	3	1	0	3	0
92	231	7	10000	3	1	0	3	0
94	232	7	10000	3	1	0	3	0
96	233	7	10000	3	1	0	3	0
96	234	7	10000	3	1	0	3	0
100	235	7	10000	3	1	0	3	0
104	236	7	10000	3	1	0	3	0
109	237	7	10000	3	1	0	3	0
114	238	7	10000	3	1	0	3	0
118	239	7	10000	3	1	0	3	0
122	240	7	10000	3	1	0	3	0
128	241	7	10000	3	1	0	3	0
133	242	7	10000	3	1	0	3	0
137	243	7	10000	3	1	0	3	0
144	244	7	10000	3	1	0	3	0
150	245	7	10000	3	1	0	3	0
154	246	7	10000	3	1	0	3	0
157	247	7	10000	3	1	0	3	0
158	248	7	10000	3	1	0	3	0
160	249	7	10000	3	1	0	3	0
161	250	7	10000	3	1	0	3	0
164	251	7	10000	3	1	0	3	0
166	252	7	10000	3	1	0	3	0
167	253	7	10000	3	1	0	3	0
166	254	7	10000	3	1	0	3	0
166	255	7	10000	3	1	0	3	0
166	256	7	10000	3	1	0	3	0
165	257	7	10000	3	1	0	3	0
166	258	7	10000	3	1	0	3	0
168	259	7	10000	3	1	0	3	0
173	260	7	10000	3	1	0	3	0
175	261	7	10000	3	1	0	3	0
172	262	7	10000	3	1	0	3	0
167	263	7	10000	3	1	0	3	0
164	264	7	10000	3	1	0	3	0
162	265	7	10000	3	1	0	3	0
160	266	7	10000	3	1	0	3	0
157	267	7	10000	3	1	0	3	0
153	268	7	10000	3	1	0	3	0
149	269	7	10000	3	1	0	3	0
145	270	7	10000	3	1	0	3	0
143	271	7	10000	3	1	0	3	0
142	272	7	10000	3	1	0	3	0
140	273	7	10000	3	1	0	3	0
135	274	7	10000	3	1	0	3	0
132	275	7	10000	3	1	0	3	0
129	276	7	10000	3	1	0	3	0
127	277	7	10000	3	1	0	3	0
123	278	7	10000	3	1	0	3	0
119	279	7	10000	3	1	0	3	0
116	280	7	10000	3	1	0	3	0
113	281	7	10000	3	1	0	3	0
110	282	7	10000	3	1	0	3	0
107	283	7	10000	3	1	0	3	0
105	284	7	10000	3	1	0	3	0
102	285	7	10000	3	1	0	3	0
98	286	7	10000	3	1	0	3	0
94	287	7	10000	3	1	0	3	0
90	288	7	10000	3	1	0	3	0
87	289	7	10000	3	1	0	3	0
85	290	7	10000	3	1	0	3	0
85	291	7	10000	3	1	0	3	0
86	292	7	10000	3	1	0	3	0
87	293	7	10000	3	1	0	3	0
85	294	7	10000	3	1	0	3	0
83	295	7	10000	3	1	0	3	0
79	296	7	10000	3	1	0	3	0
76	297	7	10000	3	1	0	3	0
74	298	7	10000	3	1	0	3	0
71	299	7	10000	3	1	0	3	0
68	300	7	10000	3	1	0	3	0
66	301	7	10000	3	1	0	3	0
63	302	7	10000	3	1	0	3	0
61	303	7	10000	3	1	0	3	0
61	304	7	10000	3	1	0	3	0
57	305	7	10000	3	1	0	3	0
55	306	7	10000	3	1	0	3	0
54	307	7	10000	3	1	0	3	0
51	308	7	10000	3	1	0	3	0
49	309	7	10000	3	1	0	3	0
48	310	7	10000	3	1	0	3	0
47	311	7	10000	3	1	0	3	0
46	312	7	10000	3	1	0	3	0
46	313	7	10000	3	1	0	3	0
43	314	7	10000	3	1	0	3	0
42	315	7	10000	3	1	0	3	0
42	316	7	10000	3	1	0	3	0
41	317	7	10000	3	1	0	3	0
39	318	7	10000	3	1	0	3	0
38	319	7	10000	3	1	0	3	0
38	320	7	10000	3	1	0	3	0
36	321	7	10000	3	1	0	3	0
34	322	7	10000	3	1	0	3	0
33	323	7	10000	3	1	0	3	0
34	324	7	10000	3	1	0	3	0
33	325	7	10000	3	1	0	3	0
32	326	7	10000	3	1	0	3	0
32	327	7	10000	3	1	0	3	0
33	328	7	10000	3	1	0	3	0
33	329	7	10000	3	1	0	3	0
34	330	7	10000	3	1	0	3	0
34	331	7	10000	3	1	0	3	0
34	332	7	10000	3	1	0	3	0
35	333	7	10000	3	1	0	3	0
32	334	7	10000	3	1	0	3	0
32	335	7	10000	3	1	0	3	0
31	336	7	10000	3	1	0	3	0
35	337	7	10000	3	1	0	3	0
36	338	7	10000	3	1	0	3	0
36	339	7	10000	3	1	0	3	0
38	340	7	10000	3	1	0	3	0
38	341	7	10000	3	1	0	3	0
38	342	7	10000	3	1	0	3	0
37	343	7	10000	3	1	0	3	0
39	344	7	10000	3	1	0	3	0
38	345	7	10000	3	1	0	3	0
37	346	7	10000	3	1	0	3	0
35	347	7	10000	3	1	0	3	0
33	348	7	10000	3	1	0	3	0
33	349	7	10000	3	1	0	3	0
34	350	7	10000	3	1	0	3	0
35	351	7	10000	3	1	0	3	0
36	352	7	10000	3	1	0	3	0
38	353	7	10000	3	1	0	3	0
36	354	7	10000	3	1	0	3	0
37	355	7	10000	3	1	0	3	0
37	356	7	10000	3	1	0	3	0
37	357	7	10000	3	1	0	3	0
36	358	7	10000	3	1	0	3	0
34	359	7	10000	3	1	0	3	0
33	360	7	10000	3	1	0	3	0
32	361	7	10000	3	1	0	3	0
31	362	7	10000	3	1	0	3	0
30	363	7	10000	3	1	0	3	0
30	364	7	10000	3	1	0	3	0
30	365	7	10000	3	1	0	3	0
30	366	7	10000	3	1	0	3	0
31	367	7	10000	3	1	0	3	0
30	368	7	10000	3	1	0	3	0
28	369	7	10000	3	1	0	3	0
27	370	7	10000	3	1	0	3	0
27	371	7	10000	3	1	0	3	0
28	372	7	10000	3	1	0	3	0
28	373	7	10000	3	1	0	3	0
27	374	7	10000	3	1	0	3	0
26	375	7	10000	3	1	0	3	0
25	376	7	10000	3	1	0	3	0
26	377	7	10000	3	1	0	3	0
26	378	7	10000	3	1	0	3	0
25	379	7	10000	3	1	0	3	0
24	380	7	10000	3	1	0	3	0
24	381	7	10000	3	1	0	3	0
22	382	7	10000	3	1	0	3	0
23	383	7	10000	3	1	0	3	0
27	384	7	10000	3	1	0	3	0
25	385	7	10000	3	1	0	3	0
25	386	7	10000	3	1	0	3	0
26	387	7	10000	3	1	0	3	0
24	388	7	10000	3	1	0	3	0
25	389	7	10000	3	1	0	3	0
28	390	7	10000	3	1	0	3	0
31	391	7	10000	3	1	0	3	0
33	392	7	10000	3	1	0	3	0
34	393	7	10000	3	1	0	3	0
32	394	7	10000	3	1	0	3	0
31	395	7	10000	3	1	0	3	0
31	396	7	10000	3	1	0	3	0
30	397	7	10000	3	1	0	3	0
31	398	7	10000	3	1	0	3	0
30	399	7	10000	3	1	0	3	0
29	400	7	10000	3	1	0	3	0
27	401	7	10000	3	1	0	3	0
27	402	7	10000	3	1	0	3	0
27	403	7	10000	3	1	0	3	0
29	404	7	10000	3	1	0	3	0
29	405	7	10000	3	1	0	3	0
28	406	7	10000	3	1	0	3	0
27	407	7	10000	3	1	0	3	0
26	408	7	10000	3	1	0	3	0
26	409	7	10000	3	1	0	3	0
25	410	7	10000	3	1	0	3	0
26	411	7	10000	3	1	0	3	0
25	412	7	10000	3	1	0	3	0
25	413	7	10000	3	1	0	3	0
23	414	7	10000	3	1	0	3	0
23	415	7	10000	3	1	0	3	0
24	416	7	10000	3	1	0	3	0
24	417	7	10000	3	1	0	3	0
24	418	7	10000	3	1	0	3	0
25	419	7	10000	3	1	0	3	0
25	420	7	10000	3	1	0	3	0
24	421	7	10000	3	1	0	3	0
24	422	7	10000	3	1	0	3	0
24	423	7	10000	3	1	0	3	0
27	424	7	10000	3	1	0	3	0
27	425	7	10000	3	1	0	3	0
27	426	7	10000	3	1	0	3	0
26	427	7	10000	3	1	0	3	0
25	428	7	10000	3	1	0	3	0
24	429	7	10000	3	1	0	3	0
25	430	7	10000	3	1	0	3	0
25	431	7	10000	3	1	0	3	0
26	432	7	10000	3	1	0	3	0
27	433	7	10000	3	1	0	3	0
27	434	7	10000	3	1	0	3	0
27	435	7	10000	3	1	0	3	0
27	436	7	10000	3	1	0	3	0
26	437	7	10000	3	1	0	3	0
26	438	7	10000	3	1	0	3	0
27	439	7	10000	3	1	0	3	0
31	440	7	10000	3	1	0	3	0
32	441	7	10000	3	1	0	3	0
32	442	7	10000	3	1	0	3	0
32	443	7	10000	3	1	0	3	0
35	444	7	10000	3	1	0	3	0
37	445	7	10000	3	1	0	3	0
37	446	7	10000	3	1	0	3	0
36	447	7	10000	3	1	0	3	0
34	448	7	10000	3	1	0	3	0
33	449	7	10000	3	1	0	3	0
31	450	7	10000	3	1	0	3	0
30	451	7	10000	3	1	0	3	0
30	452	7	10000	3	1	0	3	0
30	453	7	10000	3	1	0	3	0
27	454	7	10000	3	1	0	3	0
26	455	7	10000	3	1	0	3	0
26	456	7	10000	3	1	0	3	0
26	457	7	10000	3	1	0	3	0
26	458	7	10000	3	1	0	3	0
26	459	7	10000	3	1	0	3	0
27	460	7	10000	3	1	0	3	0
27	461	7	10000	3	1	0	3	0
25	462	7	10000	3	1	0	3	0
24	463	7	10000	3	1	0	3	0
26	464	7	10000	3	1	0	3	0
24	465	7	10000	3	1	0	3	0
22	466	7	10000	3	1	0	3	0
23	467	7	10000	3	1	0	3	0
22	468	7	10000	3	1	0	3	0
21	469	7	10000	3	1	0	3	0
22	470	7	10000	3	1	0	3	0
21	471	7	10000	3	1	0	3	0
21	472	7	10000	3	1	0	3	0
22	473	7	10000	3	1	0	3	0
20	474	7	10000	3	1	0	3	0
20	475	7	10000	3	1	0	3	0
20	476	7	10000	3	1	0	3	0
21	477	7	10000	3	1	0	3	0
22	478	7	10000	3	1	0	3	0
23	479	7	10000	3	1	0	3	0
22	480	7	10000	3	1	0	3	0
21	481	7	10000	3	1	0	3	0
21	482	7	10000	3	1	0	3	0
20	483	7	10000	3	1	0	3	0
22	484	7	10000	3	1	0	3	0
21	485	7	10000	3	1	0	3	0
20	486	7	10000	3	1	0	3	0
20	487	7	10000	3	1	0	3	0
20	488	7	10000	3	1	0	3	0
21	489	7	10000	3	1	0	3	0
20	490	7	10000	3	1	0	3	0
23	491	7	10000	3	1	0	3	0
26	492	7	10000	3	1	0	3	0
27	493	7	10000	3	1	0	3	0
24	494	7	10000	3	1	0	3	0
23	495	7	10000	3	1	0	3	0
23	496	7	10000	3	1	0	3	0
23	497	7	10000	3	1	0	3	0
22	498	7	10000	3	1	0	3	0
22	499	7	10000	3	1	0	3	0
24	500	7	10000	3	1	0	3	0
24	501	7	10000	3	1	0	3	0
26	501	7	10000	3	1	0	3	1
27	502	7	10000	3	1	0	3	1
29	504	7	10000	3	1	0	3	1
28	505	7	10000	3	1	0	3	1
28	506	7	10000	3	1	0	3	1
29	507	7	10000	3	1	0	3	1
29	508	7	10000	3	1	0	3	1
32	509	7	10000	3	1	0	3	1
34	510	7	10000	3	1	0	3	1
36	511	7	10000	3	1	0	3	1
44	512	7	10000	3	1	0	3	1
49	513	7	10000	3	1	0	3	1
48	514	7	10000	3	1	0	3	1
47	515	7	10000	3	1	0	3	1
45	516	7	10000	3	1	0	3	1
44	517	7	10000	3	1	0	3	1
43	518	7	10000	3	1	0	3	1
42	519	7	10000	3	1	0	3	1
41	520	7	10000	3	1	0	3	1
40	521	7	10000	3	1	0	3	1
39	522	7	10000	3	1	0	3	1
38	523	7	10000	3	1	0	3	1
39	524	7	10000	3	1	0	3	1
38	525	7	10000	3	1	0	3	1
38	526	7	10000	3	1	0	3	1
38	527	7	10000	3	1	0	3	1
38	528	7	10000	3	1	0	3	1
39	529	7	10000	3	1	0	3	1
37	530	7	10000	3	1	0	3	1
38	531	7	10000	3	1	0	3	1
39	532	7	10000	3	1	0	3	1
40	533	7	10000	3	1	0	3	1
38	534	7	10000	3	1	0	3	1
38	535	7	10000	3	1	0	3	1
37	536	7	10000	3	1	0	3	1
37	537	7	10000	3	1	0	3	1
36	538	7	10000	3	1	0	3	1
36	539	7	10000	3	1	0	3	1
35	540	7	10000	3	1	0	3	1
35	541	7	10000	3	1	0	3	1
32	542	7	10000	3	1	0	3	1
31	543	7	10000	3	1	0	3	1
33	544	7	10000	3	1	0	3	1
33	545	7	10000	3	1	0	3	1
32	546	7	10000	3	1	0	3	1
32	547	7	10000	3	1	0	3	1
32	548	7	10000	3	1	0	3	1
32	549	7	10000	3	1	0	3	1
31	550	7	10000	3	1	0	3	1
32	551	7	10000	3	1	0	3	1
32	552	7	10000	3	1	0	3	0
32	553	7	10000	3	1	0	3	0
29	554	7	10000	3	1	0	3	0
32	555	7	10000	3	1	0	3	0
33	556	7	10000	3	1	0	3	0
35	557	7	10000	3	1	0	3	0
38	558	7	10000	3	1	0	3	0
37	559	7	10000	3	1	0	3	0
37	560	7	10000	3	1	0	3	0
35	561	7	10000	3	1	0	3	0
34	562	7	10000	3	1	0	3	0
32	563	7	10000	3	1	0	3	0
33	564	7	10000	3	1	0	3	0
32	565	7	10000	3	1	0	3	0
30	566	7	10000	3	1	0	3	0
29	567	7	10000	3	1	0	3	0
28	568	7	10000	3	1	0	3	0
27	569	7	10000	3	1	0	3	0
26	570	7	10000	3	1	0	3	0
26	571	7	10000	3	1	0	3	0
26	572	7	10000	3	1	0	3	0
25	573	7	10000	3	1	0	3	0
23	574	7	10000	3	1	0	3	0
22	575	7	10000	3	1	0	3	0
21	576	7	10000	3	1	0	3	0
23	577	7	10000	3	1	0	3	0
25	578	7	10000	3	1	0	3	0
27	579	7	10000	3	1	0	3	0
29	580	7	10000	3	1	0	3	0
27	581	7	10000	3	1	0	3	0
27	582	7	10000	3	1	0	3	0
27	583	7	10000	3	1	0	3	0
30	584	7	10000	3	1	0	3	0
30	585	7	10000	3	1	0	3	0
31	586	7	10000	3	1	0	3	0
31	587	7	10000	3	1	0	3	0
35	588	7	10000	3	1	0	3	0
35	589	7	10000	3	1	0	3	0
36	590	7	10000	3	1	0	3	0
40	591	7	10000	3	1	0	3	0
41	592	7	10000	3	1	0	3	0
46	593	7	10000	3	1	0	3	0
46	594	7	10000	3	1	0	3	0
65	595	7	10000	3	1	0	3	0
70	596	7	10000	3	1	0	3	0
71	597	7	10000	3	1	0	3	0
75	598	7	10000	3	1	0	3	0
74	599	7	10000	3	1	0	3	0
78	600	7	10000	3	1	0	3	0
82	601	7	10000	3	1	0	3	0
83	602	7	10000	3	1	0	3	0
86	603	7	10000	3	1	0	3	0
87	604	7	10000	3	1	0	3	0
92	605	7	10000	3	1	0	3	0
96	606	7	10000	3	1	0	3	0
100	607	7	10000	3	1	0	3	0
103	608	7	10000	3	1	0	3	0
101	609	7	10000	3	1	0	3	0
99	610	7	10000	3	1	0	3	0
105	611	7	10000	3	1	0	3	0
106	612	7	10000	3	1	0	3	0
101	613	7	10000	3	1	0	3	0
95	614	7	10000	3	1	0	3	0
92	615	7	10000	3	1	0	3	0
90	616	7	10000	3	1	0	3	0
88	617	7	10000	3	1	0	3	0
87	618	7	10000	3	1	0	3	0
86	619	7	10000	3	1	0	3	0
87	620	7	10000	3	1	0	3	0
87	621	7	10000	3	1	0	3	0
86	622	7	10000	3	1	0	3	0
85	623	7	10000	3	1	0	3	0
86	624	7	10000	3	1	0	3	0
84	625	7	10000	3	1	0	3	0
81	626	7	10000	3	1	0	3	0
79	627	7	10000	3	1	0	3	0
75	628	7	10000	3	1	0	3	0
73	629	7	10000	3	1	0	3	0
70	630	7	10000	3	1	0	3	0
68	631	7	10000	3	1	0	3	0
66	632	7	10000	3	1	0	3	0
65	633	7	10000	3	1	0	3	0
63	634	7	10000	3	1	0	3	0
63	635	7	10000	3	1	0	3	0
65	636	7	10000	3	1	0	3	0
66	637	7	10000	3	1	0	3	0
67	638	7	10000	3	1	0	3	0
68	639	7	10000	3	1	0	3	0
69	640	7	10000	3	1	0	3	0
69	641	7	10000	3	1	0	3	0
69	642	7	10000	3	1	0	3	0
69	643	7	10000	3	1	0	3	0
70	644	7	10000	3	1	0	3	0
69	645	7	10000	3	1	0	3	0
69	646	7	10000	3	1	0	3	0
68	647	7	10000	3	1	0	3	0
68	648	7	10000	3	1	0	3	0
68	649	7	10000	3	1	0	3	0
68	650	7	10000	3	1	0	3	0
68	651	7	10000	3	1	0	3	0
68	652	7	10000	3	1	0	3	0
68	653	7	10000	3	1	0	3	0
67	654	7	10000	3	1	0	3	0
67	655	7	10000	3	1	0	3	0
67	656	7	10000	3	1	0	3	0
69	657	7	10000	3	1	0	3	0
69	658	7	10000	3	1	0	3	0
68	659	7	10000	3	1	0	3	0
67	660	7	10000	3	1	0	3	0
66	661	7	10000	3	1	0	3	0
64	662	7	10000	3	1	0	3	0
65	663	7	10000	3	1	0	3	0
66	664	7	10000	3	1	0	3	0
64	665	7	10000	3	1	0	3	0
61	666	7	10000	3	1	0	3	0
58	667	7	10000	3	1	0	3	0
56	668	7	10000	3	1	0	3	0
53	669	7	10000	3	1	0	3	0
51	670	7	10000	3	1	0	3	0
51	671	7	10000	3	1	0	3	0
51	672	7	10000	3	1	0	3	0
49	673	7	10000	3	1	0	3	0
44	674	7	10000	3	1	0	3	0
44	675	7	10000	3	1	0	3	0
44	676	7	10000	3	1	0	3	0
43	677	7	10000	3	1	0	3	0
42	678	7	10000	3	1	0	3	0
40	679	7	10000	3	1	0	3	0
38	680	7	10000	3	1	0	3	0
36	681	7	10000	3	1	0	3	0
37	682	7	10000	3	1	0	3	0
35	683	7	10000	3	1	0	3	0
37	684	7	10000	3	1	0	3	0
36	685	7	10000	3	1	0	3	0
34	686	7	10000	3	1	0	3	0
35	687	7	10000	3	1	0	3	0
35	688	7	10000	3	1	0	3	0
34	689	7	10000	3	1	0	3	0
34	690	7	10000	3	1	0	3	0
35	691	7	10000	3	1	0	3	0
35	692	7	10000	3	1	0	3	0
35	693	7	10000	3	1	0	3	0
33	694	7	10000	3	1	0	3	0
34	695	7	10000	3	1	0	3	0
34	696	7	10000	3	1	0	3	0
34	697	7	10000	3	1	0	3	0
33	698	7	10000	3	1	0	3	0
33	699	7	10000	3	1	0	3	0
32	700	7	10000	3	1	0	3	0
31	701	7	10000	3	1	0	3	0
29	702	7	10000	3	1	0	3	0
28	703	7	10000	3	1	0	3	0
30	704	7	10000	3	1	0	3	0
29	705	7	10000	3	1	0	3	0
29	706	7	10000	3	1	0	3	0
29	707	7	10000	3	1	0	3	0
28	708	7	10000	3	1	0	3	0
26	709	7	10000	3	1	0	3	0
27	710	7	10000	3	1	0	3	0
27	711	7	10000	3	1	0	3	0
27	712	7	10000	3	1	0	3	0
28	713	7	10000	3	1	0	3	0
26	714	7	10000	3	1	0	3	0
26	715	7	10000	3	1	0	3	0
26	716	7	10000	3	1	0	3	0
25	717	7	10000	3	1	0	3	0
25	718	7	10000	3	1	0	3	0
25	719	7	10000	3	1	0	3	0
24	720	7	10000	3	1	0	3	0
25	721	7	10000	3	1	0	3	0
25	722	7	10000	3	1	0	3	0
25	723	7	10000	3	1	0	3	0
28	724	7	10000	3	1	0	3	0
30	725	7	10000	3	1	0	3	0
32	726	7	10000	3	1	0	3	0
32	727	7	10000	3	1	0	3	0
32	728	7	10000	3	1	0	3	0
32	729	7	10000	3	1	0	3	0
31	730	7	10000	3	1	0	3	0
31	731	7	10000	3	1	0	3	0
31	732	7	10000	3	1	0	3	0
31	733	7	10000	3	1	0	3	0
30	734	7	10000	3	1	0	3	0
31	735	7	10000	3	1	0	3	0
31	736	7	10000	3	1	0	3	0
32	737	7	10000	3	1	0	3	0
34	738	7	10000	3	1	0	3	0
35	739	7	10000	3	1	0	3	0
35	740	7	10000	3	1	0	3	0
35	741	7	10000	3	1	0	3	0
34	742	7	10000	3	1	0	3	0
32	743	7	10000	3	1	0	3	0
33	744	7	10000	3	1	0	3	0
33	745	7	10000	3	1	0	3	0
32	746	7	10000	3	1	0	3	0
32	747	7	10000	3	1	0	3	0
32	748	7	10000	3	1	0	3	0
30	749	7	10000	3	1	0	3	0
29	750	7	10000	3	1	0	3	0
30	751	7	10000	3	1	0	3	0
31	752	7	10000	3	1	0	3	0
32	753	7	10000	3	1	0	3	0
32	754	7	10000	3	1	0	3	0
31	755	7	10000	3	1	0	3	0
30	756	7	10000	3	1	0	3	0
31	757	7	10000	3	1	0	3	0
30	758	7	10000	3	1	0	3	0
29	759	7	10000	3	1	0	3	0
29	760	7	10000	3	1	0	3	0
29	761	7	10000	3	1	0	3	0
29	762	7	10000	3	1	0	3	0
28	763	7	10000	3	1	0	3	0
29	764	7	10000	3	1	0	3	0
29	765	7	10000	3	1	0	3	0
28	766	7	10000	3	1	0	3	0
27	767	7	10000	3	1	0	3	0
26	768	7	10000	3	1	0	3	0
25	769	7	10000	3	1	0	3	0
25	770	7	10000	3	1	0	3	0
27	771	7	10000	3	1	0	3	0
28	772	7	10000	3	1	0	3	0
29	773	7	10000	3	1	0	3	0
27	774	7	10000	3	1	0	3	0
28	775	7	10000	3	1	0	3	0
30	776	7	10000	3	1	0	3	0
32	777	7	10000	3	1	0	3	0
33	778	7	10000	3	1	0	3	0
32	779	7	10000	3	1	0	3	0
31	780	7	10000	3	1	0	3	0
30	781	7	10000	3	1	0	3	0
28	782	7	10000	3	1	0	3	0
27	783	7	10000	3	1	0	3	0
29	784	7	10000	3	1	0	3	0
28	785	7	10000	3	1	0	3	0
26	786	7	10000	3	1	0	3	0
26	787	7	10000	3	1	0	3	0
25	788	7	10000	3	1	0	3	0
28	789	7	10000	3	1	0	3	0
29	790	7	10000	3	1	0	3	0
29	791	7	10000	3	1	0	3	0
29	792	7	10000	3	1	0	3	0
30	793	7	10000	3	1	0	3	0
27	794	7	10000	3	1	0	3	0
27	795	7	10000	3	1	0	3	0
29	796	7	10000	3	1	0	3	0
30	797	7	10000	3	1	0	3	0
31	798	7	10000	3	1	0	3	0
32	799	7	10000	3	1	0	3	0
32	800	7	10000	3	1	0	3	0
30	801	7	10000	3	1	0	3	0
29	802	7	10000	3	1	0	3	0
27	803	7	10000	3	1	0	3	0
29	804	7	10000	3	1	0	3	0
29	805	7	10000	3	1	0	3	0
30	806	7	10000	3	1	0	3	0
29	807	7	10000	3	1	0	3	0
28	808	7	10000	3	1	0	3	0
27	809	7	10000	3	1	0	3	0
25	810	7	10000	3	1	0	3	0
25	811	7	10000	3	1	0	3	0
24	812	7	10000	3	1	0	3	0
24	813	7	10000	3	1	0	3	0
22	814	7	10000	3	1	0	3	0
23	815	7	10000	3	1	0	3	0
22	816	7	10000	3	1	0	3	0
22	817	7	10000	3	1	0	3	0
23	818	7	10000	3	1	0	3	0
21	819	7	10000	3	1	0	3	0
22	820	7	10000	3	1	0	3	0
21	821	7	10000	3	1	0	3	0
21	822	7	10000	3	1	0	3	0
20	823	7	10000	3	1	0	3	0
22	824	7	10000	3	1	0	3	0
23	825	7	10000	3	1	0	3	0
23	826	7	10000	3	1	0	3	0
23	827	7	10000	3	1	0	3	0
22	828	7	10000	3	1	0	3	0
21	829	7	10000	3	1	0	3	0
21	830	7	10000	3	1	0	3	0
20	831	7	10000	3	1	0	3	0
20	832	7	10000	3	1	0	3	0
21	833	7	10000	3	1	0	3	0
20	834	7	10000	3	1	0	3	0
20	835	7	10000	3	1	0	3	0
20	836	7	10000	3	1	0	3	0
20	837	7	10000	3	1	0	3	0
20	838	7	10000	3	1	0	3	0
19	839	7	10000	3	1	0	3	0
18	840	7	10000	3	1	0	3	0
17	841	7	10000	3	1	0	3	0
17	842	7	10000	3	1	0	3	0
16	843	7	10000	3	1	0	3	0
18	844	7	10000	3	1	0	3	0
17	845	7	10000	3	1	0	3	0
17	846	7	10000	3	1	0	3	0
18	847	7	10000	3	1	0	3	0
19	848	7	10000	3	1	0	3	0
18	849	7	10000	3	1	0	3	0
19	850	7	10000	3	1	0	3	0
23	851	7	10000	3	1	0	3	0
26	852	7	10000	3	1	0	3	0
26	853	7	10000	3	1	0	3	0
26	854	7	10000	3	1	0	3	0
28	855	7	10000	3	1	0	3	0
26	856	7	10000	3	1	0	3	0
27	857	7	10000	3	1	0	3	0
27	858	7	10000	3	1	0	3	0
26	859	7	10000	3	1	0	3	0
26	860	7	10000	3	1	0	3	0
28	861	7	10000	3	1	0	3	0
28	862	7	10000	3	1	0	3	0
29	863	7	10000	3	1	0	3	0
33	864	7	10000	3	1	0	3	0
33	865	7	10000	3	1	0	3	0
33	866	7	10000	3	1	0	3	0
32	867	7	10000	3	1	0	3	0
31	868	7	10000	3	1	0	3	0
31	869	7	10000	3	1	0	3	0
32	870	7	10000	3	1	0	3	0
31	871	7	10000	3	1	0	3	0
32	872	7	10000	3	1	0	3	0
33	873	7	10000	3	1	0	3	0
32	874	7	10000	3	1	0	3	0
31	875	7	10000	3	1	0	3	0
31	876	7	10000	3	1	0	3	0
30	877	7	10000	3	1	0	3	0
31	878	7	10000	3	1	0	3	0
31	879	7	10000	3	1	0	3	0
30	880	7	10000	3	1	0	3	0
30	881	7	10000	3	1	0	3	0
30	882	7	10000	3	1	0	3	0
29	883	7	10000	3	1	0	3	0
30	884	7	10000	3	1	0	3	0
29	885	7	10000	3	1	0	3	0
31	886	7	10000	3	1	0	3	0
32	887	7	10000	3	1	0	3	0
32	888	7	10000	3	1	0	3	0
32	889	7	10000	3	1	0	3	0
31	890	7	10000	3	1	0	3	0
33	891	7	10000	3	1	0	3	0
32	892	7	10000	3	1	0	3	0
31	893	7	10000	3	1	0	3	0
30	894	7	10000	3	1	0	3	0
30	895	7	10000	3	1	0	3	0
29	896	7	10000	3	1	0	3	0
29	897	7	10000	3	1	0	3	0
28	898	7	10000	3	1	0	3	0
29	899	7	10000	3	1	0	3	0
30	900	7	10000	3	1	0	3	0
30	901	7	10000	3	1	0	3	0
30	902	7	10000	3	1	0	3	0
28	903	7	10000	3	1	0	3	0
29	904	7	10000	3	1	0	3	0
28	905	7	10000	3	1	0	3	0
28	906	7	10000	3	1	0	3	0
26	907	7	10000	3	1	0	3	0
26	908	7	10000	3	1	0	3	0
26	909	7	10000	3	1	0	3	0
25	910	7	10000	3	1	0	3	0
28	911	7	10000	3	1	0	3	0
31	912	7	10000	3	1	0	3	0
30	913	7	10000	3	1	0	3	0
28	914	7	10000	3	1	0	3	0
27	915	7	10000	3	1	0	3	0
28	916	7	10000	3	1	0	3	0
30	917	7	10000	3	1	0	3	0
31	918	7	10000	3	1	0	3	0
30	919	7	10000	3	1	0	3	0
29	920	7	10000	3	1	0	3	0
28	921	7	10000	3	1	0	3	0
27	922	7	10000	3	1	0	3	0
26	923	7	10000	3	1	0	3	0
27	924	7	10000	3	1	0	3	0
29	925	7	10000	3	1	0	3	0
33	926	7	10000	3	1	0	3	0
33	927	7	10000	3	1	0	3	0
35	928	7	10000	3	1	0	3	0
39	929	7	10000	3	1	0	3	0
42	930	7	10000	3	1	0	3	0
45	931	7	10000	3	1	0	3	0
47	932	7	10000	3	1	0	3	0
46	933	7	10000	3	1	0	3	0
44	934	7	10000	3	1	0	3	0
44	935	7	10000	3	1	0	3	0
44	936	7	10000	3	1	0	3	0
45	937	7	10000	3	1	0	3	0
44	938	7	10000	3	1	0	3	0
43	939	7	10000	3	1	0	3	0
42	940	7	10000	3	1	0	3	0
42	941	7	10000	3	1	0	3	0
41	942	7	10000	3	1	0	3	0
42	943	7	10000	3	1	0	3	0
44	944	7	10000	3	1	0	3	0
43	945	7	10000	3	1	0	3	0
41	946	7	10000	3	1	0	3	0
40	947	7	10000	3	1	0	3	0
38	948	7	10000	3	1	0	3	0
36	949	7	10000	3	1	0	3	0
35	950	7	10000	3	1	0	3	0
34	951	7	10000	3	1	0	3	0
33	952	7	10000	3	1	0	3	0
32	953	7	10000	3	1	0	3	0
29	954	7	10000	3	1	0	3	0
28	955	7	10000	3	1	0	3	0
29	956	7	10000	3	1	0	3	0
29	957	7	10000	3	1	0	3	0
27	958	7	10000	3	1	0	3	0
27	959	7	10000	3	1	0	3	0
27	960	7	10000	3	1	0	3	0
25	961	7	10000	3	1	0	3	0
24	962	7	10000	3	1	0	3	0
23	963	7	10000	3	1	0	3	0
24	964	7	10000	3	1	0	3	0
23	965	7	10000	3	1	0	3	0
23	966	7	10000	3	1	0	3	0
23	967	7	10000	3	1	0	3	0
23	968	7	10000	3	1	0	3	0
23	969	7	10000	3	1	0	3	0
23	970	7	10000	3	1	0	3	0
24	971	7	10000	3	1	0	3	0
25	972	7	10000	3	1	0	3	0
25	973	7	10000	3	1	0	3	0
23	974	7	10000	3	1	0	3	0
26	975	7	10000	3	1	0	3	0
26	976	7	10000	3	1	0	3	0
27	977	7	10000	3	1	0	3	0
27	978	7	10000	3	1	0	3	0
27	979	7	10000	3	1	0	3	0
28	980	7	10000	3	1	0	3	0
27	981	7	10000	3	1	0	3	0
26	982	7	10000	3	1	0	3	0
26	983	7	10000	3	1	0	3	0
29	984	7	10000	3	1	0	3	0
27	985	7	10000	3	1	0	3	0
28	986	7	10000	3	1	0	3	0
29	987	7	10000	3	1	0	3	0
28	988	7	10000	3	1	0	3	0
28	989	7	10000	3	1	0	3	0
27	990	7	10000	3	1	0	3	0
28	991	7	10000	3	1	0	3	0
28	992	7	10000	3	1	0	3	0
28	993	7	10000	3	1	0	3	0
24	994	7	10000	3	1	0	3	0
24	995	7	10000	3	1	0	3	0
24	996	7	10000	3	1	0	3	0
23	997	7	10000	3	1	0	3	0
21	998	7	10000	3	1	0	3	0
22	999	7	10000	3	1	0	3	0
21	1000	7	10000	3	1	0	3	0
20	1001	7	10000	3	1	0	3	0
30	1	0	10000	4	1	0	4	0
29	2	0	10000	4	1	0	4	0
30	3	0	10000	4	1	0	4	0
30	4	0	10000	4	1	0	4	0
30	5	0	10000	4	1	0	4	0
30	6	0	10000	4	1	0	4	0
29	7	0	10000	4	1	0	4	0
30	8	0	10000	4	1	0	4	0
29	9	0	10000	4	1	0	4	0
29	10	0	10000	4	1	0	4	0
28	11	0	10000	4	1	0	4	0
30	12	0	10000	4	1	0	4	0
29	13	0	10000	4	1	0	4	0
27	14	0	10000	4	1	0	4	0
27	15	0	10000	4	1	0	4	0
31	16	0	10000	4	1	0	4	0
35	17	0	10000	4	1	0	4	0
35	18	0	10000	4	1	0	4	0
38	19	0	10000	4	1	0	4	0
39	20	0	10000	4	1	0	4	0
37	20	0	10000	4	1	0	4	0
36	21	0	10000	4	1	0	4	0
34	23	0	10000	4	1	0	4	0
34	24	0	10000	4	1	0	4	0
34	25	0	10000	4	1	0	4	0
37	26	0	10000	4	1	0	4	0
36	27	0	10000	4	1	0	4	0
38	28	0	10000	4	1	0	4	0
41	29	0	10000	4	1	0	4	0
42	30	0	10000	4	1	0	4	0
42	30	0	10000	4	1	0	4	0
43	31	0	10000	4	1	0	4	0
42	33	0	10000	4	1	0	4	0
40	34	0	10000	4	1	0	4	0
38	35	0	10000	4	1	0	4	0
38	36	0	10000	4	1	0	4	0
38	37	0	10000	4	1	0	4	0
35	38	0	10000	4	1	0	4	0
36	39	0	10000	4	1	0	4	0
35	40	0	10000	4	1	0	4	0
34	40	0	10000	4	1	0	4	0
34	41	0	10000	4	1	0	4	0
33	43	0	10000	4	1	0	4	0
33	44	0	10000	4	1	0	4	0
34	45	0	10000	4	1	0	4	0
36	46	0	10000	4	1	0	4	0
37	47	0	10000	4	1	0	4	0
42	48	0	10000	4	1	0	4	0
44	49	0	10000	4	1	0	4	0
44	50	0	10000	4	1	0	4	0
48	50	0	10000	4	1	0	4	0
51	51	0	10000	4	1	0	4	0
50	53	0	10000	4	1	0	4	0
48	54	0	10000	4	1	0	4	0
47	55	0	10000	4	1	0	4	0
46	56	0	10000	4	1	0	4	0
46	57	0	10000	4	1	0	4	0
43	58	0	10000	4	1	0	4	0
44	59	0	10000	4	1	0	4	0
45	60	0	10000	4	1	0	4	0
47	60	0	10000	4	1	0	4	0
51	61	0	10000	4	1	0	4	0
54	63	0	10000	4	1	0	4	0
54	64	0	10000	4	1	0	4	0
53	65	0	10000	4	1	0	4	0
51	66	0	10000	4	1	0	4	0
49	67	0	10000	4	1	0	4	0
49	68	0	10000	4	1	0	4	0
48	69	0	10000	4	1	0	4	0
47	70	0	10000	4	1	0	4	0
46	70	0	10000	4	1	0	4	0
44	71	0	10000	4	1	0	4	0
45	73	0	10000	4	1	0	4	0
45	74	0	10000	4	1	0	4	0
45	75	0	10000	4	1	0	4	0
44	76	0	10000	4	1	0	4	0
42	77	0	10000	4	1	0	4	0
39	78	0	10000	4	1	0	4	0
41	79	0	10000	4	1	0	4	0
45	80	0	10000	4	1	0	4	0
48	80	0	10000	4	1	0	4	0
46	81	0	10000	4	1	0	4	0
46	83	0	10000	4	1	0	4	0
51	84	0	10000	4	1	0	4	0
56	85	0	10000	4	1	0	4	0
55	86	0	10000	4	1	0	4	0
55	87	0	10000	4	1	0	4	0
64	88	0	10000	4	1	0	4	0
71	89	0	10000	4	1	0	4	0
70	90	0	10000	4	1	0	4	0
71	90	0	10000	4	1	0	4	0
74	91	0	10000	4	1	0	4	0
76	93	0	10000	4	1	0	4	0
82	94	0	10000	4	1	0	4	0
85	95	0	10000	4	1	0	4	0
84	96	0	10000	4	1	0	4	0
90	97	0	10000	4	1	0	4	0
93	98	0	10000	4	1	0	4	0
97	99	0	10000	4	1	0	4	0
102	100	0	10000	4	1	0	4	0
101	100	0	10000	4	1	0	4	0
98	101	0	10000	4	1	0	4	0
100	103	0	10000	4	1	0	4	0
99	104	0	10000	4	1	0	4	0
95	105	0	10000	4	1	0	4	0
93	106	0	10000	4	1	0	4	0
94	107	0	10000	4	1	0	4	0
99	108	0	10000	4	1	0	4	0
105	109	0	10000	4	1	0	4	0
115	110	0	10000	4	1	0	4	0
136	110	0	10000	4	1	0	4	0
167	111	0	10000	4	1	0	4	0
182	113	0	10000	4	1	0	4	0
179	114	0	10000	4	1	0	4	0
199	115	0	10000	4	1	0	4	0
228	116	0	10000	4	1	0	4	0
247	117	0	10000	4	1	0	4	0
249	118	0	10000	4	1	0	4	0
241	119	0	10000	4	1	0	4	0
234	120	0	10000	4	1	0	4	0
231	120	0	10000	4	1	0	4	0
225	121	0	10000	4	1	0	4	0
222	123	0	10000	4	1	0	4	0
229	124	0	10000	4	1	0	4	0
223	125	0	10000	4	1	0	4	0
218	126	0	10000	4	1	0	4	0
213	127	0	10000	4	1	0	4	0
219	128	0	10000	4	1	0	4	0
225	129	0	10000	4	1	0	4	0
229	130	0	10000	4	1	0	4	0
228	130	0	10000	4	1	0	4	0
222	131	0	10000	4	1	0	4	0
213	133	0	10000	4	1	0	4	0
204	134	0	10000	4	1	0	4	0
195	135	0	10000	4	1	0	4	0
187	136	0	10000	4	1	0	4	0
180	137	0	10000	4	1	0	4	0
171	138	0	10000	4	1	0	4	0
164	139	0	10000	4	1	0	4	0
156	140	0	10000	4	1	0	4	0
152	140	0	10000	4	1	0	4	0
150	141	0	10000	4	1	0	4	0
147	143	0	10000	4	1	0	4	0
142	144	0	10000	4	1	0	4	0
138	145	0	10000	4	1	0	4	0
139	146	0	10000	4	1	0	4	0
141	147	0	10000	4	1	0	4	0
149	148	0	10000	4	1	0	4	0
151	149	0	10000	4	1	0	4	0
149	150	0	10000	4	1	0	4	0
145	150	0	10000	4	1	0	4	0
140	151	0	10000	4	1	0	4	0
134	153	0	10000	4	1	0	4	0
128	154	0	10000	4	1	0	4	0
124	155	0	10000	4	1	0	4	0
120	156	0	10000	4	1	0	4	0
116	157	0	10000	4	1	0	4	0
113	158	0	10000	4	1	0	4	0
112	159	0	10000	4	1	0	4	0
113	160	0	10000	4	1	0	4	0
113	160	0	10000	4	1	0	4	0
111	161	0	10000	4	1	0	4	0
113	163	0	10000	4	1	0	4	0
116	164	0	10000	4	1	0	4	0
119	165	0	10000	4	1	0	4	0
122	166	0	10000	4	1	0	4	0
121	167	0	10000	4	1	0	4	0
121	168	0	10000	4	1	0	4	0
120	169	0	10000	4	1	0	4	0
117	170	0	10000	4	1	0	4	0
114	170	0	10000	4	1	0	4	0
112	171	0	10000	4	1	0	4	0
109	173	0	10000	4	1	0	4	0
106	174	0	10000	4	1	0	4	0
103	175	0	10000	4	1	0	4	0
98	176	0	10000	4	1	0	4	0
95	177	0	10000	4	1	0	4	0
92	178	0	10000	4	1	0	4	0
89	179	0	10000	4	1	0	4	0
86	180	0	10000	4	1	0	4	0
83	180	0	10000	4	1	0	4	0
80	181	0	10000	4	1	0	4	0
77	183	0	10000	4	1	0	4	0
75	184	0	10000	4	1	0	4	0
73	185	0	10000	4	1	0	4	0
70	186	0	10000	4	1	0	4	0
68	187	0	10000	4	1	0	4	0
69	188	0	10000	4	1	0	4	0
67	189	0	10000	4	1	0	4	0
64	190	0	10000	4	1	0	4	0
62	190	0	10000	4	1	0	4	0
62	191	0	10000	4	1	0	4	0
63	193	0	10000	4	1	0	4	0
64	194	0	10000	4	1	0	4	0
67	195	0	10000	4	1	0	4	0
70	196	0	10000	4	1	0	4	0
70	197	0	10000	4	1	0	4	0
65	198	0	10000	4	1	0	4	0
64	199	0	10000	4	1	0	4	0
64	200	0	10000	4	1	0	4	0
62	200	0	10000	4	1	0	4	0
61	201	0	10000	4	1	0	4	0
62	203	0	10000	4	1	0	4	0
62	204	0	10000	4	1	0	4	0
63	205	0	10000	4	1	0	4	0
63	206	0	10000	4	1	0	4	0
63	207	0	10000	4	1	0	4	0
63	208	0	10000	4	1	0	4	0
61	209	0	10000	4	1	0	4	0
60	210	0	10000	4	1	0	4	0
59	210	0	10000	4	1	0	4	0
57	211	0	10000	4	1	0	4	0
55	213	0	10000	4	1	0	4	0
55	214	0	10000	4	1	0	4	0
52	215	0	10000	4	1	0	4	0
51	216	0	10000	4	1	0	4	0
52	217	0	10000	4	1	0	4	0
49	218	0	10000	4	1	0	4	0
50	219	0	10000	4	1	0	4	0
53	220	0	10000	4	1	0	4	0
54	220	0	10000	4	1	0	4	0
53	221	0	10000	4	1	0	4	0
53	223	0	10000	4	1	0	4	0
52	224	0	10000	4	1	0	4	0
49	225	0	10000	4	1	0	4	0
49	226	0	10000	4	1	0	4	0
48	227	0	10000	4	1	0	4	0
49	228	0	10000	4	1	0	4	0
48	229	0	10000	4	1	0	4	0
46	230	0	10000	4	1	0	4	0
44	230	0	10000	4	1	0	4	0
43	231	0	10000	4	1	0	4	0
41	233	0	10000	4	1	0	4	0
39	234	0	10000	4	1	0	4	0
39	235	0	10000	4	1	0	4	0
40	236	0	10000	4	1	0	4	0
43	237	0	10000	4	1	0	4	0
42	238	0	10000	4	1	0	4	0
41	239	0	10000	4	1	0	4	0
40	240	0	10000	4	1	0	4	0
40	240	0	10000	4	1	0	4	0
38	241	0	10000	4	1	0	4	0
38	243	0	10000	4	1	0	4	0
38	244	0	10000	4	1	0	4	0
37	245	0	10000	4	1	0	4	0
35	246	0	10000	4	1	0	4	0
34	247	0	10000	4	1	0	4	0
36	248	0	10000	4	1	0	4	0
34	249	0	10000	4	1	0	4	0
33	250	0	10000	4	1	0	4	0
32	250	0	10000	4	1	0	4	0
30	251	0	10000	4	1	0	4	0
29	253	0	10000	4	1	0	4	0
29	254	0	10000	4	1	0	4	0
29	255	0	10000	4	1	0	4	0
33	256	0	10000	4	1	0	4	0
36	257	0	10000	4	1	0	4	0
37	258	0	10000	4	1	0	4	0
37	259	0	10000	4	1	0	4	0
39	260	0	10000	4	1	0	4	0
41	260	0	10000	4	1	0	4	0
40	261	0	10000	4	1	0	4	0
39	263	0	10000	4	1	0	4	0
39	264	0	10000	4	1	0	4	0
38	265	0	10000	4	1	0	4	0
38	266	0	10000	4	1	0	4	0
39	267	0	10000	4	1	0	4	0
39	268	0	10000	4	1	0	4	0
38	269	0	10000	4	1	0	4	0
36	270	0	10000	4	1	0	4	0
36	270	0	10000	4	1	0	4	0
37	271	0	10000	4	1	0	4	0
38	273	0	10000	4	1	0	4	0
38	274	0	10000	4	1	0	4	0
39	275	0	10000	4	1	0	4	0
40	276	0	10000	4	1	0	4	0
41	277	0	10000	4	1	0	4	0
38	278	0	10000	4	1	0	4	0
36	279	0	10000	4	1	0	4	0
35	280	0	10000	4	1	0	4	0
35	280	0	10000	4	1	0	4	0
34	281	0	10000	4	1	0	4	0
33	283	0	10000	4	1	0	4	0
33	284	0	10000	4	1	0	4	0
32	285	0	10000	4	1	0	4	0
32	286	0	10000	4	1	0	4	0
32	287	0	10000	4	1	0	4	0
34	288	0	10000	4	1	0	4	0
34	289	0	10000	4	1	0	4	0
34	290	0	10000	4	1	0	4	0
32	290	0	10000	4	1	0	4	0
32	291	0	10000	4	1	0	4	0
32	293	0	10000	4	1	0	4	0
31	294	0	10000	4	1	0	4	0
32	295	0	10000	4	1	0	4	0
32	296	0	10000	4	1	0	4	0
34	297	0	10000	4	1	0	4	0
36	298	0	10000	4	1	0	4	0
37	299	0	10000	4	1	0	4	0
36	300	0	10000	4	1	0	4	0
36	300	0	10000	4	1	0	4	0
35	301	0	10000	4	1	0	4	0
36	303	0	10000	4	1	0	4	0
38	304	0	10000	4	1	0	4	0
37	305	0	10000	4	1	0	4	0
36	306	0	10000	4	1	0	4	0
35	307	0	10000	4	1	0	4	0
37	308	0	10000	4	1	0	4	0
37	309	0	10000	4	1	0	4	0
37	310	0	10000	4	1	0	4	0
39	310	0	10000	4	1	0	4	0
40	311	0	10000	4	1	0	4	0
38	313	0	10000	4	1	0	4	0
37	314	0	10000	4	1	0	4	0
37	315	0	10000	4	1	0	4	0
36	316	0	10000	4	1	0	4	0
35	317	0	10000	4	1	0	4	0
33	318	0	10000	4	1	0	4	0
35	319	0	10000	4	1	0	4	0
37	320	0	10000	4	1	0	4	0
37	320	0	10000	4	1	0	4	0
35	321	0	10000	4	1	0	4	0
35	323	0	10000	4	1	0	4	0
37	324	0	10000	4	1	0	4	0
34	325	0	10000	4	1	0	4	0
33	326	0	10000	4	1	0	4	0
32	327	0	10000	4	1	0	4	0
34	328	0	10000	4	1	0	4	0
34	329	0	10000	4	1	0	4	0
33	330	0	10000	4	1	0	4	0
32	330	0	10000	4	1	0	4	0
32	331	0	10000	4	1	0	4	0
32	333	0	10000	4	1	0	4	0
31	334	0	10000	4	1	0	4	0
31	335	0	10000	4	1	0	4	0
32	336	0	10000	4	1	0	4	0
30	337	0	10000	4	1	0	4	0
27	338	0	10000	4	1	0	4	0
29	339	0	10000	4	1	0	4	0
32	340	0	10000	4	1	0	4	0
33	340	0	10000	4	1	0	4	0
32	341	0	10000	4	1	0	4	0
31	343	0	10000	4	1	0	4	0
31	344	0	10000	4	1	0	4	0
31	345	0	10000	4	1	0	4	0
32	346	0	10000	4	1	0	4	0
32	347	0	10000	4	1	0	4	0
34	348	0	10000	4	1	0	4	0
32	349	0	10000	4	1	0	4	0
31	350	0	10000	4	1	0	4	0
33	350	0	10000	4	1	0	4	0
34	351	0	10000	4	1	0	4	0
37	353	0	10000	4	1	0	4	0
41	354	0	10000	4	1	0	4	0
43	355	0	10000	4	1	0	4	0
44	356	0	10000	4	1	0	4	0
44	357	0	10000	4	1	0	4	0
40	358	0	10000	4	1	0	4	0
40	359	0	10000	4	1	0	4	0
38	360	0	10000	4	1	0	4	0
37	360	0	10000	4	1	0	4	0
37	361	0	10000	4	1	0	4	0
41	363	0	10000	4	1	0	4	0
45	364	0	10000	4	1	0	4	0
47	365	0	10000	4	1	0	4	0
46	366	0	10000	4	1	0	4	0
44	367	0	10000	4	1	0	4	0
44	368	0	10000	4	1	0	4	0
44	369	0	10000	4	1	0	4	0
42	370	0	10000	4	1	0	4	0
44	370	0	10000	4	1	0	4	0
48	371	0	10000	4	1	0	4	0
49	373	0	10000	4	1	0	4	0
48	374	0	10000	4	1	0	4	0
48	375	0	10000	4	1	0	4	0
49	376	0	10000	4	1	0	4	0
51	377	0	10000	4	1	0	4	0
48	378	0	10000	4	1	0	4	0
46	379	0	10000	4	1	0	4	0
44	380	0	10000	4	1	0	4	0
43	380	0	10000	4	1	0	4	0
43	381	0	10000	4	1	0	4	0
43	383	0	10000	4	1	0	4	0
42	384	0	10000	4	1	0	4	0
42	385	0	10000	4	1	0	4	0
43	386	0	10000	4	1	0	4	0
51	387	0	10000	4	1	0	4	0
66	388	0	10000	4	1	0	4	0
70	389	0	10000	4	1	0	4	0
68	390	0	10000	4	1	0	4	0
68	390	0	10000	4	1	0	4	0
67	391	0	10000	4	1	0	4	0
65	393	0	10000	4	1	0	4	0
67	394	0	10000	4	1	0	4	0
70	395	0	10000	4	1	0	4	0
69	396	0	10000	4	1	0	4	0
69	397	0	10000	4	1	0	4	0
71	398	0	10000	4	1	0	4	0
76	399	0	10000	4	1	0	4	0
78	400	0	10000	4	1	0	4	0
78	400	0	10000	4	1	0	4	0
78	401	0	10000	4	1	0	4	0
83	403	0	10000	4	1	0	4	0
102	404	0	10000	4	1	0	4	0
130	405	0	10000	4	1	0	4	0
133	406	0	10000	4	1	0	4	0
146	407	0	10000	4	1	0	4	0
158	408	0	10000	4	1	0	4	0
156	409	0	10000	4	1	0	4	0
174	410	0	10000	4	1	0	4	0
178	410	0	10000	4	1	0	4	0
187	411	0	10000	4	1	0	4	0
187	413	0	10000	4	1	0	4	0
202	414	0	10000	4	1	0	4	0
216	415	0	10000	4	1	0	4	0
222	416	0	10000	4	1	0	4	0
221	417	0	10000	4	1	0	4	0
226	418	0	10000	4	1	0	4	0
220	419	0	10000	4	1	0	4	0
214	420	0	10000	4	1	0	4	0
208	420	0	10000	4	1	0	4	0
223	421	0	10000	4	1	0	4	0
247	423	0	10000	4	1	0	4	0
247	424	0	10000	4	1	0	4	0
238	425	0	10000	4	1	0	4	0
234	426	0	10000	4	1	0	4	0
227	427	0	10000	4	1	0	4	0
222	428	0	10000	4	1	0	4	0
220	429	0	10000	4	1	0	4	0
217	430	0	10000	4	1	0	4	0
210	430	0	10000	4	1	0	4	0
202	431	0	10000	4	1	0	4	0
194	433	0	10000	4	1	0	4	0
192	434	0	10000	4	1	0	4	0
193	435	0	10000	4	1	0	4	0
204	436	0	10000	4	1	0	4	0
244	437	0	10000	4	1	0	4	0
247	438	0	10000	4	1	0	4	0
259	439	0	10000	4	1	0	4	0
267	440	0	10000	4	1	0	4	0
262	440	0	10000	4	1	0	4	0
254	441	0	10000	4	1	0	4	0
260	443	0	10000	4	1	0	4	0
270	444	0	10000	4	1	0	4	0
273	445	0	10000	4	1	0	4	0
266	446	0	10000	4	1	0	4	0
253	447	0	10000	4	1	0	4	0
246	448	0	10000	4	1	0	4	0
239	449	0	10000	4	1	0	4	0
232	450	0	10000	4	1	0	4	0
223	450	0	10000	4	1	0	4	0
215	451	0	10000	4	1	0	4	0
220	453	0	10000	4	1	0	4	0
221	454	0	10000	4	1	0	4	0
213	455	0	10000	4	1	0	4	0
210	456	0	10000	4	1	0	4	0
209	457	0	10000	4	1	0	4	0
203	458	0	10000	4	1	0	4	0
204	459	0	10000	4	1	0	4	0
219	460	0	10000	4	1	0	4	0
233	460	0	10000	4	1	0	4	0
236	461	0	10000	4	1	0	4	0
235	463	0	10000	4	1	0	4	0
231	464	0	10000	4	1	0	4	0
220	465	0	10000	4	1	0	4	0
212	466	0	10000	4	1	0	4	0
216	467	0	10000	4	1	0	4	0
216	468	0	10000	4	1	0	4	0
211	469	0	10000	4	1	0	4	0
215	470	0	10000	4	1	0	4	0
219	470	0	10000	4	1	0	4	0
217	471	0	10000	4	1	0	4	0
213	473	0	10000	4	1	0	4	0
208	474	0	10000	4	1	0	4	0
204	475	0	10000	4	1	0	4	0
197	476	0	10000	4	1	0	4	0
188	477	0	10000	4	1	0	4	0
181	478	0	10000	4	1	0	4	0
179	479	0	10000	4	1	0	4	0
178	480	0	10000	4	1	0	4	0
179	480	0	10000	4	1	0	4	0
179	481	0	10000	4	1	0	4	0
177	483	0	10000	4	1	0	4	0
174	484	0	10000	4	1	0	4	0
173	485	0	10000	4	1	0	4	0
171	486	0	10000	4	1	0	4	0
170	487	0	10000	4	1	0	4	0
176	488	0	10000	4	1	0	4	0
176	489	0	10000	4	1	0	4	0
174	490	0	10000	4	1	0	4	0
168	490	0	10000	4	1	0	4	0
163	491	0	10000	4	1	0	4	0
161	493	0	10000	4	1	0	4	0
163	494	0	10000	4	1	0	4	0
167	495	0	10000	4	1	0	4	0
171	496	0	10000	4	1	0	4	0
176	497	0	10000	4	1	0	4	0
174	498	0	10000	4	1	0	4	0
170	499	0	10000	4	1	0	4	0
166	500	0	10000	4	1	0	4	0
161	500	0	10000	4	1	0	4	0
155	501	0	10000	4	1	0	4	0
149	503	0	10000	4	1	0	4	1
142	504	0	10000	4	1	0	4	1
136	505	0	10000	4	1	0	4	1
131	506	0	10000	4	1	0	4	1
125	507	0	10000	4	1	0	4	1
122	508	0	10000	4	1	0	4	1
120	509	0	10000	4	1	0	4	1
116	510	0	10000	4	1	0	4	1
110	510	0	10000	4	1	0	4	1
105	511	0	10000	4	1	0	4	1
102	513	0	10000	4	1	0	4	1
100	514	0	10000	4	1	0	4	1
101	515	0	10000	4	1	0	4	1
100	516	0	10000	4	1	0	4	1
102	517	0	10000	4	1	0	4	1
100	518	0	10000	4	1	0	4	1
97	519	0	10000	4	1	0	4	1
95	520	0	10000	4	1	0	4	1
93	520	0	10000	4	1	0	4	1
91	521	0	10000	4	1	0	4	1
89	523	0	10000	4	1	0	4	1
89	524	0	10000	4	1	0	4	1
90	525	0	10000	4	1	0	4	1
90	526	0	10000	4	1	0	4	1
87	527	0	10000	4	1	0	4	1
87	528	0	10000	4	1	0	4	1
85	529	0	10000	4	1	0	4	1
83	530	0	10000	4	1	0	4	1
83	530	0	10000	4	1	0	4	1
86	531	0	10000	4	1	0	4	1
88	533	0	10000	4	1	0	4	1
89	534	0	10000	4	1	0	4	1
90	535	0	10000	4	1	0	4	1
88	536	0	10000	4	1	0	4	1
87	537	0	10000	4	1	0	4	1
86	538	0	10000	4	1	0	4	1
87	539	0	10000	4	1	0	4	1
86	540	0	10000	4	1	0	4	1
86	540	0	10000	4	1	0	4	1
83	541	0	10000	4	1	0	4	1
80	543	0	10000	4	1	0	4	1
78	544	0	10000	4	1	0	4	1
75	545	0	10000	4	1	0	4	1
74	546	0	10000	4	1	0	4	1
71	547	0	10000	4	1	0	4	1
71	548	0	10000	4	1	0	4	1
69	549	0	10000	4	1	0	4	1
66	550	0	10000	4	1	0	4	1
65	550	0	10000	4	1	0	4	1
62	551	0	10000	4	1	0	4	1
60	553	0	10000	4	1	0	4	0
58	554	0	10000	4	1	0	4	0
61	555	0	10000	4	1	0	4	0
63	556	0	10000	4	1	0	4	0
64	557	0	10000	4	1	0	4	0
63	558	0	10000	4	1	0	4	0
64	559	0	10000	4	1	0	4	0
63	560	0	10000	4	1	0	4	0
62	560	0	10000	4	1	0	4	0
62	561	0	10000	4	1	0	4	0
62	563	0	10000	4	1	0	4	0
63	564	0	10000	4	1	0	4	0
60	565	0	10000	4	1	0	4	0
59	566	0	10000	4	1	0	4	0
59	567	0	10000	4	1	0	4	0
61	568	0	10000	4	1	0	4	0
58	569	0	10000	4	1	0	4	0
56	570	0	10000	4	1	0	4	0
57	570	0	10000	4	1	0	4	0
56	571	0	10000	4	1	0	4	0
55	573	0	10000	4	1	0	4	0
54	574	0	10000	4	1	0	4	0
53	575	0	10000	4	1	0	4	0
54	576	0	10000	4	1	0	4	0
52	577	0	10000	4	1	0	4	0
48	578	0	10000	4	1	0	4	0
48	579	0	10000	4	1	0	4	0
50	580	0	10000	4	1	0	4	0
54	580	0	10000	4	1	0	4	0
60	581	0	10000	4	1	0	4	0
64	583	0	10000	4	1	0	4	0
64	584	0	10000	4	1	0	4	0
62	585	0	10000	4	1	0	4	0
64	586	0	10000	4	1	0	4	0
66	587	0	10000	4	1	0	4	0
67	588	0	10000	4	1	0	4	0
74	589	0	10000	4	1	0	4	0
73	590	0	10000	4	1	0	4	0
74	590	0	10000	4	1	0	4	0
72	591	0	10000	4	1	0	4	0
72	593	0	10000	4	1	0	4	0
72	594	0	10000	4	1	0	4	0
79	595	0	10000	4	1	0	4	0
89	596	0	10000	4	1	0	4	0
92	597	0	10000	4	1	0	4	0
89	598	0	10000	4	1	0	4	0
91	599	0	10000	4	1	0	4	0
116	600	0	10000	4	1	0	4	0
133	600	0	10000	4	1	0	4	0
196	601	0	10000	4	1	0	4	0
226	603	0	10000	4	1	0	4	0
226	604	0	10000	4	1	0	4	0
232	605	0	10000	4	1	0	4	0
242	606	0	10000	4	1	0	4	0
257	607	0	10000	4	1	0	4	0
264	608	0	10000	4	1	0	4	0
259	609	0	10000	4	1	0	4	0
250	610	0	10000	4	1	0	4	0
238	610	0	10000	4	1	0	4	0
228	611	0	10000	4	1	0	4	0
223	613	0	10000	4	1	0	4	0
233	614	0	10000	4	1	0	4	0
229	615	0	10000	4	1	0	4	0
223	616	0	10000	4	1	0	4	0
221	617	0	10000	4	1	0	4	0
221	618	0	10000	4	1	0	4	0
218	619	0	10000	4	1	0	4	0
210	620	0	10000	4	1	0	4	0
201	620	0	10000	4	1	0	4	0
193	621	0	10000	4	1	0	4	0
189	623	0	10000	4	1	0	4	0
184	624	0	10000	4	1	0	4	0
177	625	0	10000	4	1	0	4	0
178	626	0	10000	4	1	0	4	0
177	627	0	10000	4	1	0	4	0
170	628	0	10000	4	1	0	4	0
166	629	0	10000	4	1	0	4	0
163	630	0	10000	4	1	0	4	0
156	630	0	10000	4	1	0	4	0
153	631	0	10000	4	1	0	4	0
149	633	0	10000	4	1	0	4	0
143	634	0	10000	4	1	0	4	0
138	635	0	10000	4	1	0	4	0
136	636	0	10000	4	1	0	4	0
131	637	0	10000	4	1	0	4	0
126	638	0	10000	4	1	0	4	0
123	639	0	10000	4	1	0	4	0
118	640	0	10000	4	1	0	4	0
118	640	0	10000	4	1	0	4	0
119	641	0	10000	4	1	0	4	0
120	643	0	10000	4	1	0	4	0
119	644	0	10000	4	1	0	4	0
119	645	0	10000	4	1	0	4	0
117	646	0	10000	4	1	0	4	0
119	647	0	10000	4	1	0	4	0
122	648	0	10000	4	1	0	4	0
123	649	0	10000	4	1	0	4	0
121	650	0	10000	4	1	0	4	0
120	650	0	10000	4	1	0	4	0
117	651	0	10000	4	1	0	4	0
114	653	0	10000	4	1	0	4	0
111	654	0	10000	4	1	0	4	0
108	655	0	10000	4	1	0	4	0
106	656	0	10000	4	1	0	4	0
103	657	0	10000	4	1	0	4	0
97	658	0	10000	4	1	0	4	0
94	659	0	10000	4	1	0	4	0
93	660	0	10000	4	1	0	4	0
94	660	0	10000	4	1	0	4	0
93	661	0	10000	4	1	0	4	0
91	663	0	10000	4	1	0	4	0
88	664	0	10000	4	1	0	4	0
83	665	0	10000	4	1	0	4	0
80	666	0	10000	4	1	0	4	0
76	667	0	10000	4	1	0	4	0
75	668	0	10000	4	1	0	4	0
75	669	0	10000	4	1	0	4	0
75	670	0	10000	4	1	0	4	0
75	670	0	10000	4	1	0	4	0
75	671	0	10000	4	1	0	4	0
74	673	0	10000	4	1	0	4	0
72	674	0	10000	4	1	0	4	0
73	675	0	10000	4	1	0	4	0
74	676	0	10000	4	1	0	4	0
75	677	0	10000	4	1	0	4	0
76	678	0	10000	4	1	0	4	0
78	679	0	10000	4	1	0	4	0
77	680	0	10000	4	1	0	4	0
76	680	0	10000	4	1	0	4	0
72	681	0	10000	4	1	0	4	0
70	683	0	10000	4	1	0	4	0
69	684	0	10000	4	1	0	4	0
67	685	0	10000	4	1	0	4	0
69	686	0	10000	4	1	0	4	0
72	687	0	10000	4	1	0	4	0
75	688	0	10000	4	1	0	4	0
74	689	0	10000	4	1	0	4	0
72	690	0	10000	4	1	0	4	0
69	690	0	10000	4	1	0	4	0
67	691	0	10000	4	1	0	4	0
68	693	0	10000	4	1	0	4	0
68	694	0	10000	4	1	0	4	0
67	695	0	10000	4	1	0	4	0
66	696	0	10000	4	1	0	4	0
63	697	0	10000	4	1	0	4	0
59	698	0	10000	4	1	0	4	0
57	699	0	10000	4	1	0	4	0
55	700	0	10000	4	1	0	4	0
53	700	0	10000	4	1	0	4	0
51	701	0	10000	4	1	0	4	0
48	703	0	10000	4	1	0	4	0
46	704	0	10000	4	1	0	4	0
45	705	0	10000	4	1	0	4	0
45	706	0	10000	4	1	0	4	0
45	707	0	10000	4	1	0	4	0
51	708	0	10000	4	1	0	4	0
54	709	0	10000	4	1	0	4	0
52	710	0	10000	4	1	0	4	0
50	710	0	10000	4	1	0	4	0
49	711	0	10000	4	1	0	4	0
48	713	0	10000	4	1	0	4	0
46	714	0	10000	4	1	0	4	0
47	715	0	10000	4	1	0	4	0
46	716	0	10000	4	1	0	4	0
44	717	0	10000	4	1	0	4	0
42	718	0	10000	4	1	0	4	0
41	719	0	10000	4	1	0	4	0
39	720	0	10000	4	1	0	4	0
38	720	0	10000	4	1	0	4	0
37	721	0	10000	4	1	0	4	0
36	723	0	10000	4	1	0	4	0
35	724	0	10000	4	1	0	4	0
34	725	0	10000	4	1	0	4	0
32	726	0	10000	4	1	0	4	0
33	727	0	10000	4	1	0	4	0
35	728	0	10000	4	1	0	4	0
34	729	0	10000	4	1	0	4	0
34	730	0	10000	4	1	0	4	0
35	730	0	10000	4	1	0	4	0
33	731	0	10000	4	1	0	4	0
32	733	0	10000	4	1	0	4	0
32	734	0	10000	4	1	0	4	0
30	735	0	10000	4	1	0	4	0
32	736	0	10000	4	1	0	4	0
32	737	0	10000	4	1	0	4	0
29	738	0	10000	4	1	0	4	0
28	739	0	10000	4	1	0	4	0
28	740	0	10000	4	1	0	4	0
28	740	0	10000	4	1	0	4	0
28	741	0	10000	4	1	0	4	0
29	743	0	10000	4	1	0	4	0
28	744	0	10000	4	1	0	4	0
30	745	0	10000	4	1	0	4	0
30	746	0	10000	4	1	0	4	0
29	747	0	10000	4	1	0	4	0
30	748	0	10000	4	1	0	4	0
29	749	0	10000	4	1	0	4	0
28	750	0	10000	4	1	0	4	0
27	750	0	10000	4	1	0	4	0
26	751	0	10000	4	1	0	4	0
26	753	0	10000	4	1	0	4	0
26	754	0	10000	4	1	0	4	0
28	755	0	10000	4	1	0	4	0
29	756	0	10000	4	1	0	4	0
29	757	0	10000	4	1	0	4	0
28	758	0	10000	4	1	0	4	0
27	759	0	10000	4	1	0	4	0
28	760	0	10000	4	1	0	4	0
28	760	0	10000	4	1	0	4	0
28	761	0	10000	4	1	0	4	0
28	763	0	10000	4	1	0	4	0
28	764	0	10000	4	1	0	4	0
29	765	0	10000	4	1	0	4	0
28	766	0	10000	4	1	0	4	0
28	767	0	10000	4	1	0	4	0
28	768	0	10000	4	1	0	4	0
27	769	0	10000	4	1	0	4	0
27	770	0	10000	4	1	0	4	0
28	770	0	10000	4	1	0	4	0
30	771	0	10000	4	1	0	4	0
32	773	0	10000	4	1	0	4	0
32	774	0	10000	4	1	0	4	0
32	775	0	10000	4	1	0	4	0
34	776	0	10000	4	1	0	4	0
34	777	0	10000	4	1	0	4	0
36	778	0	10000	4	1	0	4	0
44	779	0	10000	4	1	0	4	0
49	780	0	10000	4	1	0	4	0
49	780	0	10000	4	1	0	4	0
49	781	0	10000	4	1	0	4	0
47	783	0	10000	4	1	0	4	0
47	784	0	10000	4	1	0	4	0
47	785	0	10000	4	1	0	4	0
44	786	0	10000	4	1	0	4	0
44	787	0	10000	4	1	0	4	0
43	788	0	10000	4	1	0	4	0
43	789	0	10000	4	1	0	4	0
42	790	0	10000	4	1	0	4	0
44	790	0	10000	4	1	0	4	0
49	791	0	10000	4	1	0	4	0
50	793	0	10000	4	1	0	4	0
50	794	0	10000	4	1	0	4	0
53	795	0	10000	4	1	0	4	0
52	796	0	10000	4	1	0	4	0
53	797	0	10000	4	1	0	4	0
52	798	0	10000	4	1	0	4	0
52	799	0	10000	4	1	0	4	0
53	800	0	10000	4	1	0	4	0
52	800	0	10000	4	1	0	4	0
51	801	0	10000	4	1	0	4	0
51	803	0	10000	4	1	0	4	0
49	804	0	10000	4	1	0	4	0
46	805	0	10000	4	1	0	4	0
46	806	0	10000	4	1	0	4	0
48	807	0	10000	4	1	0	4	0
50	808	0	10000	4	1	0	4	0
52	809	0	10000	4	1	0	4	0
51	810	0	10000	4	1	0	4	0
49	810	0	10000	4	1	0	4	0
49	811	0	10000	4	1	0	4	0
50	813	0	10000	4	1	0	4	0
51	814	0	10000	4	1	0	4	0
51	815	0	10000	4	1	0	4	0
49	816	0	10000	4	1	0	4	0
47	817	0	10000	4	1	0	4	0
45	818	0	10000	4	1	0	4	0
47	819	0	10000	4	1	0	4	0
47	820	0	10000	4	1	0	4	0
45	820	0	10000	4	1	0	4	0
44	821	0	10000	4	1	0	4	0
42	823	0	10000	4	1	0	4	0
41	824	0	10000	4	1	0	4	0
44	825	0	10000	4	1	0	4	0
53	826	0	10000	4	1	0	4	0
58	827	0	10000	4	1	0	4	0
57	828	0	10000	4	1	0	4	0
59	829	0	10000	4	1	0	4	0
63	830	0	10000	4	1	0	4	0
65	830	0	10000	4	1	0	4	0
64	831	0	10000	4	1	0	4	0
63	833	0	10000	4	1	0	4	0
62	834	0	10000	4	1	0	4	0
61	835	0	10000	4	1	0	4	0
58	836	0	10000	4	1	0	4	0
55	837	0	10000	4	1	0	4	0
54	838	0	10000	4	1	0	4	0
52	839	0	10000	4	1	0	4	0
50	840	0	10000	4	1	0	4	0
50	840	0	10000	4	1	0	4	0
47	841	0	10000	4	1	0	4	0
46	843	0	10000	4	1	0	4	0
46	844	0	10000	4	1	0	4	0
43	845	0	10000	4	1	0	4	0
42	846	0	10000	4	1	0	4	0
42	847	0	10000	4	1	0	4	0
41	848	0	10000	4	1	0	4	0
41	849	0	10000	4	1	0	4	0
41	850	0	10000	4	1	0	4	0
39	850	0	10000	4	1	0	4	0
39	851	0	10000	4	1	0	4	0
43	853	0	10000	4	1	0	4	0
47	854	0	10000	4	1	0	4	0
51	855	0	10000	4	1	0	4	0
51	856	0	10000	4	1	0	4	0
49	857	0	10000	4	1	0	4	0
46	858	0	10000	4	1	0	4	0
45	859	0	10000	4	1	0	4	0
44	860	0	10000	4	1	0	4	0
44	860	0	10000	4	1	0	4	0
43	861	0	10000	4	1	0	4	0
43	863	0	10000	4	1	0	4	0
45	864	0	10000	4	1	0	4	0
45	865	0	10000	4	1	0	4	0
44	866	0	10000	4	1	0	4	0
44	867	0	10000	4	1	0	4	0
44	868	0	10000	4	1	0	4	0
44	869	0	10000	4	1	0	4	0
43	870	0	10000	4	1	0	4	0
44	870	0	10000	4	1	0	4	0
46	871	0	10000	4	1	0	4	0
46	873	0	10000	4	1	0	4	0
46	874	0	10000	4	1	0	4	0
51	875	0	10000	4	1	0	4	0
52	876	0	10000	4	1	0	4	0
55	877	0	10000	4	1	0	4	0
58	878	0	10000	4	1	0	4	0
63	879	0	10000	4	1	0	4	0
61	880	0	10000	4	1	0	4	0
60	880	0	10000	4	1	0	4	0
61	881	0	10000	4	1	0	4	0
63	883	0	10000	4	1	0	4	0
63	884	0	10000	4	1	0	4	0
60	885	0	10000	4	1	0	4	0
59	886	0	10000	4	1	0	4	0
57	887	0	10000	4	1	0	4	0
59	888	0	10000	4	1	0	4	0
63	889	0	10000	4	1	0	4	0
65	890	0	10000	4	1	0	4	0
65	890	0	10000	4	1	0	4	0
63	891	0	10000	4	1	0	4	0
61	893	0	10000	4	1	0	4	0
62	894	0	10000	4	1	0	4	0
61	895	0	10000	4	1	0	4	0
61	896	0	10000	4	1	0	4	0
60	897	0	10000	4	1	0	4	0
59	898	0	10000	4	1	0	4	0
61	899	0	10000	4	1	0	4	0
61	900	0	10000	4	1	0	4	0
59	900	0	10000	4	1	0	4	0
57	901	0	10000	4	1	0	4	0
56	903	0	10000	4	1	0	4	0
53	904	0	10000	4	1	0	4	0
50	905	0	10000	4	1	0	4	0
48	906	0	10000	4	1	0	4	0
47	907	0	10000	4	1	0	4	0
49	908	0	10000	4	1	0	4	0
50	909	0	10000	4	1	0	4	0
49	910	0	10000	4	1	0	4	0
49	910	0	10000	4	1	0	4	0
48	911	0	10000	4	1	0	4	0
47	913	0	10000	4	1	0	4	0
45	914	0	10000	4	1	0	4	0
44	915	0	10000	4	1	0	4	0
43	916	0	10000	4	1	0	4	0
42	917	0	10000	4	1	0	4	0
40	918	0	10000	4	1	0	4	0
41	919	0	10000	4	1	0	4	0
47	920	0	10000	4	1	0	4	0
60	920	0	10000	4	1	0	4	0
70	921	0	10000	4	1	0	4	0
72	923	0	10000	4	1	0	4	0
77	924	0	10000	4	1	0	4	0
76	925	0	10000	4	1	0	4	0
73	926	0	10000	4	1	0	4	0
71	927	0	10000	4	1	0	4	0
71	928	0	10000	4	1	0	4	0
70	929	0	10000	4	1	0	4	0
72	930	0	10000	4	1	0	4	0
75	930	0	10000	4	1	0	4	0
75	931	0	10000	4	1	0	4	0
78	933	0	10000	4	1	0	4	0
77	934	0	10000	4	1	0	4	0
75	935	0	10000	4	1	0	4	0
75	936	0	10000	4	1	0	4	0
75	937	0	10000	4	1	0	4	0
72	938	0	10000	4	1	0	4	0
76	939	0	10000	4	1	0	4	0
79	940	0	10000	4	1	0	4	0
76	940	0	10000	4	1	0	4	0
74	941	0	10000	4	1	0	4	0
76	943	0	10000	4	1	0	4	0
78	944	0	10000	4	1	0	4	0
79	945	0	10000	4	1	0	4	0
79	946	0	10000	4	1	0	4	0
77	947	0	10000	4	1	0	4	0
75	948	0	10000	4	1	0	4	0
76	949	0	10000	4	1	0	4	0
83	950	0	10000	4	1	0	4	0
86	950	0	10000	4	1	0	4	0
81	951	0	10000	4	1	0	4	0
79	953	0	10000	4	1	0	4	0
78	954	0	10000	4	1	0	4	0
75	955	0	10000	4	1	0	4	0
76	956	0	10000	4	1	0	4	0
82	957	0	10000	4	1	0	4	0
83	958	0	10000	4	1	0	4	0
86	959	0	10000	4	1	0	4	0
91	960	0	10000	4	1	0	4	0
91	960	0	10000	4	1	0	4	0
91	961	0	10000	4	1	0	4	0
92	963	0	10000	4	1	0	4	0
91	964	0	10000	4	1	0	4	0
90	965	0	10000	4	1	0	4	0
89	966	0	10000	4	1	0	4	0
88	967	0	10000	4	1	0	4	0
90	968	0	10000	4	1	0	4	0
92	969	0	10000	4	1	0	4	0
90	970	0	10000	4	1	0	4	0
86	970	0	10000	4	1	0	4	0
83	971	0	10000	4	1	0	4	0
80	973	0	10000	4	1	0	4	0
76	974	0	10000	4	1	0	4	0
73	975	0	10000	4	1	0	4	0
72	976	0	10000	4	1	0	4	0
73	977	0	10000	4	1	0	4	0
78	978	0	10000	4	1	0	4	0
78	979	0	10000	4	1	0	4	0
81	980	0	10000	4	1	0	4	0
80	980	0	10000	4	1	0	4	0
80	981	0	10000	4	1	0	4	0
79	983	0	10000	4	1	0	4	0
76	984	0	10000	4	1	0	4	0
75	985	0	10000	4	1	0	4	0
78	986	0	10000	4	1	0	4	0
79	987	0	10000	4	1	0	4	0
80	988	0	10000	4	1	0	4	0
78	989	0	10000	4	1	0	4	0
75	990	0	10000	4	1	0	4	0
78	990	0	10000	4	1	0	4	0
77	991	0	10000	4	1	0	4	0
74	993	0	10000	4	1	0	4	0
72	994	0	10000	4	1	0	4	0
72	995	0	10000	4	1	0	4	0
72	996	0	10000	4	1	0	4	0
74	997	0	10000	4	1	0	4	0
71	998	0	10000	4	1	0	4	0
69	999	0	10000	4	1	0	4	0
71	1000	0	10000	4	1	0	4	0
76	1000	0	10000	4	1	0	4	0
78	1001	0	10000	4	1	0	4	0
27	2	0	10000	5	1	0	5	0
26	3	0	10000	5	1	0	5	0
24	4	0	10000	5	1	0	5	0
24	5	0	10000	5	1	0	5	0
25	6	0	10000	5	1	0	5	0
25	7	0	10000	5	1	0	5	0
25	8	0	10000	5	1	0	5	0
26	9	0	10000	5	1	0	5	0
27	10	0	10000	5	1	0	5	0
28	11	0	10000	5	1	0	5	0
29	12	0	10000	5	1	0	5	0
29	13	0	10000	5	1	0	5	0
28	14	0	10000	5	1	0	5	0
26	15	0	10000	5	1	0	5	0
26	16	0	10000	5	1	0	5	0
26	17	0	10000	5	1	0	5	0
27	18	0	10000	5	1	0	5	0
28	19	0	10000	5	1	0	5	0
28	20	0	10000	5	1	0	5	0
31	21	0	10000	5	1	0	5	0
36	22	0	10000	5	1	0	5	0
37	23	0	10000	5	1	0	5	0
34	24	0	10000	5	1	0	5	0
35	25	0	10000	5	1	0	5	0
36	26	0	10000	5	1	0	5	0
35	27	0	10000	5	1	0	5	0
37	28	0	10000	5	1	0	5	0
38	29	0	10000	5	1	0	5	0
38	30	0	10000	5	1	0	5	0
40	31	0	10000	5	1	0	5	0
40	32	0	10000	5	1	0	5	0
39	33	0	10000	5	1	0	5	0
41	34	0	10000	5	1	0	5	0
40	35	0	10000	5	1	0	5	0
38	36	0	10000	5	1	0	5	0
43	37	0	10000	5	1	0	5	0
45	38	0	10000	5	1	0	5	0
44	39	0	10000	5	1	0	5	0
44	40	0	10000	5	1	0	5	0
43	41	0	10000	5	1	0	5	0
42	42	0	10000	5	1	0	5	0
40	43	0	10000	5	1	0	5	0
38	44	0	10000	5	1	0	5	0
37	45	0	10000	5	1	0	5	0
39	46	0	10000	5	1	0	5	0
38	47	0	10000	5	1	0	5	0
37	48	0	10000	5	1	0	5	0
38	49	0	10000	5	1	0	5	0
39	50	0	10000	5	1	0	5	0
39	51	0	10000	5	1	0	5	0
39	52	0	10000	5	1	0	5	0
40	53	0	10000	5	1	0	5	0
42	54	0	10000	5	1	0	5	0
42	55	0	10000	5	1	0	5	0
42	56	0	10000	5	1	0	5	0
42	57	0	10000	5	1	0	5	0
42	58	0	10000	5	1	0	5	0
41	59	0	10000	5	1	0	5	0
42	60	0	10000	5	1	0	5	0
43	61	0	10000	5	1	0	5	0
43	62	0	10000	5	1	0	5	0
40	63	0	10000	5	1	0	5	0
40	64	0	10000	5	1	0	5	0
41	65	0	10000	5	1	0	5	0
44	66	0	10000	5	1	0	5	0
46	67	0	10000	5	1	0	5	0
46	68	0	10000	5	1	0	5	0
47	69	0	10000	5	1	0	5	0
49	70	0	10000	5	1	0	5	0
50	71	0	10000	5	1	0	5	0
49	72	0	10000	5	1	0	5	0
48	73	0	10000	5	1	0	5	0
47	74	0	10000	5	1	0	5	0
44	75	0	10000	5	1	0	5	0
44	76	0	10000	5	1	0	5	0
43	77	0	10000	5	1	0	5	0
43	78	0	10000	5	1	0	5	0
41	79	0	10000	5	1	0	5	0
40	80	0	10000	5	1	0	5	0
41	81	0	10000	5	1	0	5	0
42	82	0	10000	5	1	0	5	0
42	83	0	10000	5	1	0	5	0
40	84	0	10000	5	1	0	5	0
40	85	0	10000	5	1	0	5	0
38	86	0	10000	5	1	0	5	0
37	87	0	10000	5	1	0	5	0
36	88	0	10000	5	1	0	5	0
34	89	0	10000	5	1	0	5	0
33	90	0	10000	5	1	0	5	0
32	91	0	10000	5	1	0	5	0
33	92	0	10000	5	1	0	5	0
32	93	0	10000	5	1	0	5	0
32	94	0	10000	5	1	0	5	0
31	95	0	10000	5	1	0	5	0
31	96	0	10000	5	1	0	5	0
33	97	0	10000	5	1	0	5	0
33	98	0	10000	5	1	0	5	0
32	99	0	10000	5	1	0	5	0
32	100	0	10000	5	1	0	5	0
32	101	0	10000	5	1	0	5	0
32	102	0	10000	5	1	0	5	0
30	103	0	10000	5	1	0	5	0
30	104	0	10000	5	1	0	5	0
31	105	0	10000	5	1	0	5	0
31	106	0	10000	5	1	0	5	0
30	107	0	10000	5	1	0	5	0
29	108	0	10000	5	1	0	5	0
32	109	0	10000	5	1	0	5	0
33	110	0	10000	5	1	0	5	0
33	111	0	10000	5	1	0	5	0
36	112	0	10000	5	1	0	5	0
39	113	0	10000	5	1	0	5	0
43	114	0	10000	5	1	0	5	0
40	115	0	10000	5	1	0	5	0
41	116	0	10000	5	1	0	5	0
44	117	0	10000	5	1	0	5	0
46	118	0	10000	5	1	0	5	0
46	119	0	10000	5	1	0	5	0
46	120	0	10000	5	1	0	5	0
44	121	0	10000	5	1	0	5	0
43	122	0	10000	5	1	0	5	0
42	123	0	10000	5	1	0	5	0
39	124	0	10000	5	1	0	5	0
39	125	0	10000	5	1	0	5	0
41	126	0	10000	5	1	0	5	0
40	127	0	10000	5	1	0	5	0
39	128	0	10000	5	1	0	5	0
39	129	0	10000	5	1	0	5	0
37	130	0	10000	5	1	0	5	0
36	131	0	10000	5	1	0	5	0
36	132	0	10000	5	1	0	5	0
36	133	0	10000	5	1	0	5	0
36	134	0	10000	5	1	0	5	0
35	135	0	10000	5	1	0	5	0
32	136	0	10000	5	1	0	5	0
32	137	0	10000	5	1	0	5	0
34	138	0	10000	5	1	0	5	0
33	139	0	10000	5	1	0	5	0
32	140	0	10000	5	1	0	5	0
32	141	0	10000	5	1	0	5	0
32	142	0	10000	5	1	0	5	0
34	143	0	10000	5	1	0	5	0
37	144	0	10000	5	1	0	5	0
41	145	0	10000	5	1	0	5	0
41	146	0	10000	5	1	0	5	0
44	147	0	10000	5	1	0	5	0
45	148	0	10000	5	1	0	5	0
44	149	0	10000	5	1	0	5	0
44	150	0	10000	5	1	0	5	0
43	151	0	10000	5	1	0	5	0
41	152	0	10000	5	1	0	5	0
41	153	0	10000	5	1	0	5	0
40	154	0	10000	5	1	0	5	0
39	155	0	10000	5	1	0	5	0
38	156	0	10000	5	1	0	5	0
39	157	0	10000	5	1	0	5	0
40	158	0	10000	5	1	0	5	0
39	159	0	10000	5	1	0	5	0
38	160	0	10000	5	1	0	5	0
37	161	0	10000	5	1	0	5	0
35	162	0	10000	5	1	0	5	0
34	163	0	10000	5	1	0	5	0
34	164	0	10000	5	1	0	5	0
34	165	0	10000	5	1	0	5	0
33	166	0	10000	5	1	0	5	0
33	167	0	10000	5	1	0	5	0
35	168	0	10000	5	1	0	5	0
34	169	0	10000	5	1	0	5	0
33	170	0	10000	5	1	0	5	0
32	171	0	10000	5	1	0	5	0
32	172	0	10000	5	1	0	5	0
34	173	0	10000	5	1	0	5	0
35	174	0	10000	5	1	0	5	0
32	175	0	10000	5	1	0	5	0
32	176	0	10000	5	1	0	5	0
34	177	0	10000	5	1	0	5	0
36	178	0	10000	5	1	0	5	0
38	179	0	10000	5	1	0	5	0
40	180	0	10000	5	1	0	5	0
41	181	0	10000	5	1	0	5	0
40	182	0	10000	5	1	0	5	0
40	183	0	10000	5	1	0	5	0
42	184	0	10000	5	1	0	5	0
43	185	0	10000	5	1	0	5	0
42	186	0	10000	5	1	0	5	0
40	187	0	10000	5	1	0	5	0
39	188	0	10000	5	1	0	5	0
41	189	0	10000	5	1	0	5	0
42	190	0	10000	5	1	0	5	0
41	191	0	10000	5	1	0	5	0
42	192	0	10000	5	1	0	5	0
42	193	0	10000	5	1	0	5	0
41	194	0	10000	5	1	0	5	0
39	195	0	10000	5	1	0	5	0
41	196	0	10000	5	1	0	5	0
43	197	0	10000	5	1	0	5	0
43	198	0	10000	5	1	0	5	0
42	199	0	10000	5	1	0	5	0
41	200	0	10000	5	1	0	5	0
39	201	0	10000	5	1	0	5	0
37	202	0	10000	5	1	0	5	0
36	203	0	10000	5	1	0	5	0
34	204	0	10000	5	1	0	5	0
36	205	0	10000	5	1	0	5	0
38	206	0	10000	5	1	0	5	0
37	207	0	10000	5	1	0	5	0
37	208	0	10000	5	1	0	5	0
36	209	0	10000	5	1	0	5	0
34	210	0	10000	5	1	0	5	0
33	211	0	10000	5	1	0	5	0
33	212	0	10000	5	1	0	5	0
32	213	0	10000	5	1	0	5	0
34	214	0	10000	5	1	0	5	0
38	215	0	10000	5	1	0	5	0
38	216	0	10000	5	1	0	5	0
38	217	0	10000	5	1	0	5	0
41	218	0	10000	5	1	0	5	0
44	219	0	10000	5	1	0	5	0
45	220	0	10000	5	1	0	5	0
45	221	0	10000	5	1	0	5	0
44	222	0	10000	5	1	0	5	0
43	223	0	10000	5	1	0	5	0
44	224	0	10000	5	1	0	5	0
45	225	0	10000	5	1	0	5	0
44	226	0	10000	5	1	0	5	0
43	227	0	10000	5	1	0	5	0
42	228	0	10000	5	1	0	5	0
45	229	0	10000	5	1	0	5	0
48	230	0	10000	5	1	0	5	0
45	231	0	10000	5	1	0	5	0
44	232	0	10000	5	1	0	5	0
46	233	0	10000	5	1	0	5	0
45	234	0	10000	5	1	0	5	0
44	235	0	10000	5	1	0	5	0
44	236	0	10000	5	1	0	5	0
44	237	0	10000	5	1	0	5	0
46	238	0	10000	5	1	0	5	0
47	239	0	10000	5	1	0	5	0
46	240	0	10000	5	1	0	5	0
45	241	0	10000	5	1	0	5	0
44	242	0	10000	5	1	0	5	0
42	243	0	10000	5	1	0	5	0
41	244	0	10000	5	1	0	5	0
43	245	0	10000	5	1	0	5	0
41	246	0	10000	5	1	0	5	0
40	247	0	10000	5	1	0	5	0
39	248	0	10000	5	1	0	5	0
38	249	0	10000	5	1	0	5	0
42	250	0	10000	5	1	0	5	0
45	251	0	10000	5	1	0	5	0
45	252	0	10000	5	1	0	5	0
44	253	0	10000	5	1	0	5	0
46	254	0	10000	5	1	0	5	0
45	255	0	10000	5	1	0	5	0
44	256	0	10000	5	1	0	5	0
49	257	0	10000	5	1	0	5	0
51	258	0	10000	5	1	0	5	0
50	259	0	10000	5	1	0	5	0
49	260	0	10000	5	1	0	5	0
49	261	0	10000	5	1	0	5	0
49	262	0	10000	5	1	0	5	0
51	263	0	10000	5	1	0	5	0
51	264	0	10000	5	1	0	5	0
53	265	0	10000	5	1	0	5	0
53	266	0	10000	5	1	0	5	0
51	267	0	10000	5	1	0	5	0
49	268	0	10000	5	1	0	5	0
47	269	0	10000	5	1	0	5	0
46	270	0	10000	5	1	0	5	0
47	271	0	10000	5	1	0	5	0
46	272	0	10000	5	1	0	5	0
44	273	0	10000	5	1	0	5	0
43	274	0	10000	5	1	0	5	0
41	275	0	10000	5	1	0	5	0
41	276	0	10000	5	1	0	5	0
41	277	0	10000	5	1	0	5	0
42	278	0	10000	5	1	0	5	0
44	279	0	10000	5	1	0	5	0
43	280	0	10000	5	1	0	5	0
44	281	0	10000	5	1	0	5	0
45	282	0	10000	5	1	0	5	0
46	283	0	10000	5	1	0	5	0
45	284	0	10000	5	1	0	5	0
44	285	0	10000	5	1	0	5	0
45	286	0	10000	5	1	0	5	0
49	287	0	10000	5	1	0	5	0
53	288	0	10000	5	1	0	5	0
52	289	0	10000	5	1	0	5	0
50	290	0	10000	5	1	0	5	0
48	291	0	10000	5	1	0	5	0
46	292	0	10000	5	1	0	5	0
44	293	0	10000	5	1	0	5	0
43	294	0	10000	5	1	0	5	0
39	295	0	10000	5	1	0	5	0
39	296	0	10000	5	1	0	5	0
38	297	0	10000	5	1	0	5	0
37	298	0	10000	5	1	0	5	0
36	299	0	10000	5	1	0	5	0
36	300	0	10000	5	1	0	5	0
36	301	0	10000	5	1	0	5	0
36	302	0	10000	5	1	0	5	0
39	303	0	10000	5	1	0	5	0
40	304	0	10000	5	1	0	5	0
43	305	0	10000	5	1	0	5	0
44	306	0	10000	5	1	0	5	0
46	307	0	10000	5	1	0	5	0
48	308	0	10000	5	1	0	5	0
47	309	0	10000	5	1	0	5	0
45	310	0	10000	5	1	0	5	0
44	311	0	10000	5	1	0	5	0
43	312	0	10000	5	1	0	5	0
42	313	0	10000	5	1	0	5	0
42	314	0	10000	5	1	0	5	0
39	315	0	10000	5	1	0	5	0
38	316	0	10000	5	1	0	5	0
37	317	0	10000	5	1	0	5	0
39	318	0	10000	5	1	0	5	0
40	319	0	10000	5	1	0	5	0
42	320	0	10000	5	1	0	5	0
41	321	0	10000	5	1	0	5	0
40	322	0	10000	5	1	0	5	0
39	323	0	10000	5	1	0	5	0
37	324	0	10000	5	1	0	5	0
38	325	0	10000	5	1	0	5	0
36	326	0	10000	5	1	0	5	0
36	327	0	10000	5	1	0	5	0
36	328	0	10000	5	1	0	5	0
36	329	0	10000	5	1	0	5	0
34	330	0	10000	5	1	0	5	0
34	331	0	10000	5	1	0	5	0
32	332	0	10000	5	1	0	5	0
33	333	0	10000	5	1	0	5	0
39	334	0	10000	5	1	0	5	0
41	335	0	10000	5	1	0	5	0
39	336	0	10000	5	1	0	5	0
40	337	0	10000	5	1	0	5	0
39	338	0	10000	5	1	0	5	0
41	339	0	10000	5	1	0	5	0
44	340	0	10000	5	1	0	5	0
45	341	0	10000	5	1	0	5	0
43	342	0	10000	5	1	0	5	0
42	343	0	10000	5	1	0	5	0
42	344	0	10000	5	1	0	5	0
44	345	0	10000	5	1	0	5	0
45	346	0	10000	5	1	0	5	0
44	347	0	10000	5	1	0	5	0
44	348	0	10000	5	1	0	5	0
44	349	0	10000	5	1	0	5	0
43	350	0	10000	5	1	0	5	0
43	351	0	10000	5	1	0	5	0
42	352	0	10000	5	1	0	5	0
40	353	0	10000	5	1	0	5	0
41	354	0	10000	5	1	0	5	0
40	355	0	10000	5	1	0	5	0
40	356	0	10000	5	1	0	5	0
41	357	0	10000	5	1	0	5	0
40	358	0	10000	5	1	0	5	0
38	359	0	10000	5	1	0	5	0
37	360	0	10000	5	1	0	5	0
36	361	0	10000	5	1	0	5	0
35	362	0	10000	5	1	0	5	0
35	363	0	10000	5	1	0	5	0
33	364	0	10000	5	1	0	5	0
34	365	0	10000	5	1	0	5	0
34	366	0	10000	5	1	0	5	0
32	367	0	10000	5	1	0	5	0
35	368	0	10000	5	1	0	5	0
39	369	0	10000	5	1	0	5	0
38	370	0	10000	5	1	0	5	0
38	371	0	10000	5	1	0	5	0
37	372	0	10000	5	1	0	5	0
39	373	0	10000	5	1	0	5	0
41	374	0	10000	5	1	0	5	0
41	375	0	10000	5	1	0	5	0
42	376	0	10000	5	1	0	5	0
41	377	0	10000	5	1	0	5	0
39	378	0	10000	5	1	0	5	0
41	379	0	10000	5	1	0	5	0
40	380	0	10000	5	1	0	5	0
40	381	0	10000	5	1	0	5	0
39	382	0	10000	5	1	0	5	0
36	383	0	10000	5	1	0	5	0
35	384	0	10000	5	1	0	5	0
36	385	0	10000	5	1	0	5	0
38	386	0	10000	5	1	0	5	0
38	387	0	10000	5	1	0	5	0
38	388	0	10000	5	1	0	5	0
38	389	0	10000	5	1	0	5	0
36	390	0	10000	5	1	0	5	0
36	391	0	10000	5	1	0	5	0
38	392	0	10000	5	1	0	5	0
38	393	0	10000	5	1	0	5	0
38	394	0	10000	5	1	0	5	0
35	395	0	10000	5	1	0	5	0
34	396	0	10000	5	1	0	5	0
33	397	0	10000	5	1	0	5	0
32	398	0	10000	5	1	0	5	0
32	399	0	10000	5	1	0	5	0
33	400	0	10000	5	1	0	5	0
33	401	0	10000	5	1	0	5	0
33	402	0	10000	5	1	0	5	0
33	403	0	10000	5	1	0	5	0
33	404	0	10000	5	1	0	5	0
34	405	0	10000	5	1	0	5	0
34	406	0	10000	5	1	0	5	0
32	407	0	10000	5	1	0	5	0
32	408	0	10000	5	1	0	5	0
31	409	0	10000	5	1	0	5	0
30	410	0	10000	5	1	0	5	0
29	411	0	10000	5	1	0	5	0
31	412	0	10000	5	1	0	5	0
31	413	0	10000	5	1	0	5	0
34	414	0	10000	5	1	0	5	0
36	415	0	10000	5	1	0	5	0
41	416	0	10000	5	1	0	5	0
44	417	0	10000	5	1	0	5	0
44	418	0	10000	5	1	0	5	0
43	419	0	10000	5	1	0	5	0
42	420	0	10000	5	1	0	5	0
40	421	0	10000	5	1	0	5	0
39	422	0	10000	5	1	0	5	0
38	423	0	10000	5	1	0	5	0
36	424	0	10000	5	1	0	5	0
37	425	0	10000	5	1	0	5	0
37	426	0	10000	5	1	0	5	0
34	427	0	10000	5	1	0	5	0
34	428	0	10000	5	1	0	5	0
33	429	0	10000	5	1	0	5	0
31	430	0	10000	5	1	0	5	0
30	431	0	10000	5	1	0	5	0
30	432	0	10000	5	1	0	5	0
28	433	0	10000	5	1	0	5	0
27	434	0	10000	5	1	0	5	0
25	435	0	10000	5	1	0	5	0
26	436	0	10000	5	1	0	5	0
25	437	0	10000	5	1	0	5	0
28	438	0	10000	5	1	0	5	0
31	439	0	10000	5	1	0	5	0
35	440	0	10000	5	1	0	5	0
40	441	0	10000	5	1	0	5	0
42	442	0	10000	5	1	0	5	0
45	443	0	10000	5	1	0	5	0
45	444	0	10000	5	1	0	5	0
50	445	0	10000	5	1	0	5	0
53	446	0	10000	5	1	0	5	0
56	447	0	10000	5	1	0	5	0
57	448	0	10000	5	1	0	5	0
57	449	0	10000	5	1	0	5	0
57	450	0	10000	5	1	0	5	0
55	451	0	10000	5	1	0	5	0
53	452	0	10000	5	1	0	5	0
52	453	0	10000	5	1	0	5	0
52	454	0	10000	5	1	0	5	0
48	455	0	10000	5	1	0	5	0
46	456	0	10000	5	1	0	5	0
45	457	0	10000	5	1	0	5	0
44	458	0	10000	5	1	0	5	0
45	459	0	10000	5	1	0	5	0
44	460	0	10000	5	1	0	5	0
44	461	0	10000	5	1	0	5	0
43	462	0	10000	5	1	0	5	0
44	463	0	10000	5	1	0	5	0
43	464	0	10000	5	1	0	5	0
44	465	0	10000	5	1	0	5	0
45	466	0	10000	5	1	0	5	0
44	467	0	10000	5	1	0	5	0
42	468	0	10000	5	1	0	5	0
41	469	0	10000	5	1	0	5	0
39	470	0	10000	5	1	0	5	0
38	471	0	10000	5	1	0	5	0
39	472	0	10000	5	1	0	5	0
40	473	0	10000	5	1	0	5	0
39	474	0	10000	5	1	0	5	0
36	475	0	10000	5	1	0	5	0
37	476	0	10000	5	1	0	5	0
37	477	0	10000	5	1	0	5	0
37	478	0	10000	5	1	0	5	0
38	479	0	10000	5	1	0	5	0
41	480	0	10000	5	1	0	5	0
42	481	0	10000	5	1	0	5	0
40	482	0	10000	5	1	0	5	0
38	483	0	10000	5	1	0	5	0
36	484	0	10000	5	1	0	5	0
37	485	0	10000	5	1	0	5	0
36	486	0	10000	5	1	0	5	0
34	487	0	10000	5	1	0	5	0
33	488	0	10000	5	1	0	5	0
32	489	0	10000	5	1	0	5	0
30	490	0	10000	5	1	0	5	0
29	491	0	10000	5	1	0	5	0
30	492	0	10000	5	1	0	5	0
30	493	0	10000	5	1	0	5	0
31	494	0	10000	5	1	0	5	0
29	495	0	10000	5	1	0	5	0
28	496	0	10000	5	1	0	5	0
28	497	0	10000	5	1	0	5	0
31	498	0	10000	5	1	0	5	0
32	499	0	10000	5	1	0	5	0
31	500	0	10000	5	1	0	5	0
30	501	0	10000	5	1	0	5	0
32	502	0	10000	5	1	0	5	1
34	503	0	10000	5	1	0	5	1
34	504	0	10000	5	1	0	5	1
37	505	0	10000	5	1	0	5	1
38	506	0	10000	5	1	0	5	1
38	507	0	10000	5	1	0	5	1
37	508	0	10000	5	1	0	5	1
38	509	0	10000	5	1	0	5	1
39	510	0	10000	5	1	0	5	1
39	511	0	10000	5	1	0	5	1
38	512	0	10000	5	1	0	5	1
38	513	0	10000	5	1	0	5	1
40	514	0	10000	5	1	0	5	1
38	515	0	10000	5	1	0	5	1
41	516	0	10000	5	1	0	5	1
42	517	0	10000	5	1	0	5	1
42	518	0	10000	5	1	0	5	1
40	519	0	10000	5	1	0	5	1
39	520	0	10000	5	1	0	5	1
40	521	0	10000	5	1	0	5	1
42	522	0	10000	5	1	0	5	1
46	523	0	10000	5	1	0	5	1
48	524	0	10000	5	1	0	5	1
49	525	0	10000	5	1	0	5	1
47	526	0	10000	5	1	0	5	1
46	527	0	10000	5	1	0	5	1
44	528	0	10000	5	1	0	5	1
44	529	0	10000	5	1	0	5	1
43	530	0	10000	5	1	0	5	1
40	531	0	10000	5	1	0	5	1
40	532	0	10000	5	1	0	5	1
39	533	0	10000	5	1	0	5	1
37	534	0	10000	5	1	0	5	1
35	535	0	10000	5	1	0	5	1
35	536	0	10000	5	1	0	5	1
34	537	0	10000	5	1	0	5	1
36	538	0	10000	5	1	0	5	1
39	539	0	10000	5	1	0	5	1
39	540	0	10000	5	1	0	5	1
38	541	0	10000	5	1	0	5	1
37	542	0	10000	5	1	0	5	1
37	543	0	10000	5	1	0	5	1
38	544	0	10000	5	1	0	5	1
40	545	0	10000	5	1	0	5	1
42	546	0	10000	5	1	0	5	1
41	547	0	10000	5	1	0	5	1
40	548	0	10000	5	1	0	5	1
38	549	0	10000	5	1	0	5	1
37	550	0	10000	5	1	0	5	1
38	551	0	10000	5	1	0	5	1
39	552	0	10000	5	1	0	5	0
39	553	0	10000	5	1	0	5	0
39	554	0	10000	5	1	0	5	0
35	555	0	10000	5	1	0	5	0
34	556	0	10000	5	1	0	5	0
33	557	0	10000	5	1	0	5	0
32	558	0	10000	5	1	0	5	0
31	559	0	10000	5	1	0	5	0
30	560	0	10000	5	1	0	5	0
29	561	0	10000	5	1	0	5	0
29	562	0	10000	5	1	0	5	0
28	563	0	10000	5	1	0	5	0
26	564	0	10000	5	1	0	5	0
29	565	0	10000	5	1	0	5	0
31	566	0	10000	5	1	0	5	0
30	567	0	10000	5	1	0	5	0
30	568	0	10000	5	1	0	5	0
29	569	0	10000	5	1	0	5	0
29	570	0	10000	5	1	0	5	0
31	571	0	10000	5	1	0	5	0
33	572	0	10000	5	1	0	5	0
33	573	0	10000	5	1	0	5	0
33	574	0	10000	5	1	0	5	0
31	575	0	10000	5	1	0	5	0
32	576	0	10000	5	1	0	5	0
32	577	0	10000	5	1	0	5	0
31	578	0	10000	5	1	0	5	0
31	579	0	10000	5	1	0	5	0
32	580	0	10000	5	1	0	5	0
33	581	0	10000	5	1	0	5	0
37	582	0	10000	5	1	0	5	0
42	583	0	10000	5	1	0	5	0
44	584	0	10000	5	1	0	5	0
47	585	0	10000	5	1	0	5	0
47	586	0	10000	5	1	0	5	0
50	587	0	10000	5	1	0	5	0
49	588	0	10000	5	1	0	5	0
59	589	0	10000	5	1	0	5	0
73	590	0	10000	5	1	0	5	0
78	591	0	10000	5	1	0	5	0
79	592	0	10000	5	1	0	5	0
83	593	0	10000	5	1	0	5	0
86	594	0	10000	5	1	0	5	0
91	595	0	10000	5	1	0	5	0
108	596	0	10000	5	1	0	5	0
117	597	0	10000	5	1	0	5	0
126	598	0	10000	5	1	0	5	0
145	599	0	10000	5	1	0	5	0
159	600	0	10000	5	1	0	5	0
162	601	0	10000	5	1	0	5	0
211	602	0	10000	5	1	0	5	0
251	603	0	10000	5	1	0	5	0
255	604	0	10000	5	1	0	5	0
280	605	0	10000	5	1	0	5	0
301	606	0	10000	5	1	0	5	0
322	607	0	10000	5	1	0	5	0
319	608	0	10000	5	1	0	5	0
309	609	0	10000	5	1	0	5	0
299	610	0	10000	5	1	0	5	0
309	611	0	10000	5	1	0	5	0
314	612	0	10000	5	1	0	5	0
303	613	0	10000	5	1	0	5	0
296	614	0	10000	5	1	0	5	0
286	615	0	10000	5	1	0	5	0
275	616	0	10000	5	1	0	5	0
266	617	0	10000	5	1	0	5	0
275	618	0	10000	5	1	0	5	0
304	619	0	10000	5	1	0	5	0
309	620	0	10000	5	1	0	5	0
300	621	0	10000	5	1	0	5	0
298	622	0	10000	5	1	0	5	0
305	623	0	10000	5	1	0	5	0
309	624	0	10000	5	1	0	5	0
308	625	0	10000	5	1	0	5	0
296	626	0	10000	5	1	0	5	0
288	627	0	10000	5	1	0	5	0
285	628	0	10000	5	1	0	5	0
279	629	0	10000	5	1	0	5	0
268	630	0	10000	5	1	0	5	0
257	631	0	10000	5	1	0	5	0
245	632	0	10000	5	1	0	5	0
234	633	0	10000	5	1	0	5	0
224	634	0	10000	5	1	0	5	0
213	635	0	10000	5	1	0	5	0
206	636	0	10000	5	1	0	5	0
200	637	0	10000	5	1	0	5	0
195	638	0	10000	5	1	0	5	0
190	639	0	10000	5	1	0	5	0
188	640	0	10000	5	1	0	5	0
183	641	0	10000	5	1	0	5	0
179	642	0	10000	5	1	0	5	0
176	643	0	10000	5	1	0	5	0
172	644	0	10000	5	1	0	5	0
171	645	0	10000	5	1	0	5	0
168	646	0	10000	5	1	0	5	0
166	647	0	10000	5	1	0	5	0
164	648	0	10000	5	1	0	5	0
163	649	0	10000	5	1	0	5	0
162	650	0	10000	5	1	0	5	0
163	651	0	10000	5	1	0	5	0
165	652	0	10000	5	1	0	5	0
168	653	0	10000	5	1	0	5	0
169	654	0	10000	5	1	0	5	0
168	655	0	10000	5	1	0	5	0
168	656	0	10000	5	1	0	5	0
168	657	0	10000	5	1	0	5	0
168	658	0	10000	5	1	0	5	0
167	659	0	10000	5	1	0	5	0
165	660	0	10000	5	1	0	5	0
162	661	0	10000	5	1	0	5	0
158	662	0	10000	5	1	0	5	0
154	663	0	10000	5	1	0	5	0
149	664	0	10000	5	1	0	5	0
145	665	0	10000	5	1	0	5	0
139	666	0	10000	5	1	0	5	0
133	667	0	10000	5	1	0	5	0
128	668	0	10000	5	1	0	5	0
124	669	0	10000	5	1	0	5	0
119	670	0	10000	5	1	0	5	0
115	671	0	10000	5	1	0	5	0
111	672	0	10000	5	1	0	5	0
107	673	0	10000	5	1	0	5	0
103	674	0	10000	5	1	0	5	0
96	675	0	10000	5	1	0	5	0
93	676	0	10000	5	1	0	5	0
90	677	0	10000	5	1	0	5	0
87	678	0	10000	5	1	0	5	0
86	679	0	10000	5	1	0	5	0
85	680	0	10000	5	1	0	5	0
85	681	0	10000	5	1	0	5	0
84	682	0	10000	5	1	0	5	0
85	683	0	10000	5	1	0	5	0
83	684	0	10000	5	1	0	5	0
84	685	0	10000	5	1	0	5	0
83	686	0	10000	5	1	0	5	0
83	687	0	10000	5	1	0	5	0
86	688	0	10000	5	1	0	5	0
88	689	0	10000	5	1	0	5	0
87	690	0	10000	5	1	0	5	0
85	691	0	10000	5	1	0	5	0
85	692	0	10000	5	1	0	5	0
84	693	0	10000	5	1	0	5	0
84	694	0	10000	5	1	0	5	0
79	695	0	10000	5	1	0	5	0
75	696	0	10000	5	1	0	5	0
73	697	0	10000	5	1	0	5	0
70	698	0	10000	5	1	0	5	0
67	699	0	10000	5	1	0	5	0
64	700	0	10000	5	1	0	5	0
64	701	0	10000	5	1	0	5	0
64	702	0	10000	5	1	0	5	0
64	703	0	10000	5	1	0	5	0
63	704	0	10000	5	1	0	5	0
64	705	0	10000	5	1	0	5	0
64	706	0	10000	5	1	0	5	0
63	707	0	10000	5	1	0	5	0
64	708	0	10000	5	1	0	5	0
66	709	0	10000	5	1	0	5	0
66	710	0	10000	5	1	0	5	0
64	711	0	10000	5	1	0	5	0
63	712	0	10000	5	1	0	5	0
61	713	0	10000	5	1	0	5	0
59	714	0	10000	5	1	0	5	0
56	715	0	10000	5	1	0	5	0
56	716	0	10000	5	1	0	5	0
56	717	0	10000	5	1	0	5	0
54	718	0	10000	5	1	0	5	0
53	719	0	10000	5	1	0	5	0
53	720	0	10000	5	1	0	5	0
53	721	0	10000	5	1	0	5	0
51	722	0	10000	5	1	0	5	0
52	723	0	10000	5	1	0	5	0
50	724	0	10000	5	1	0	5	0
51	725	0	10000	5	1	0	5	0
49	726	0	10000	5	1	0	5	0
47	727	0	10000	5	1	0	5	0
48	728	0	10000	5	1	0	5	0
50	729	0	10000	5	1	0	5	0
49	730	0	10000	5	1	0	5	0
49	731	0	10000	5	1	0	5	0
49	732	0	10000	5	1	0	5	0
51	733	0	10000	5	1	0	5	0
55	734	0	10000	5	1	0	5	0
55	735	0	10000	5	1	0	5	0
52	736	0	10000	5	1	0	5	0
51	737	0	10000	5	1	0	5	0
50	738	0	10000	5	1	0	5	0
48	739	0	10000	5	1	0	5	0
46	740	0	10000	5	1	0	5	0
45	741	0	10000	5	1	0	5	0
43	742	0	10000	5	1	0	5	0
41	743	0	10000	5	1	0	5	0
39	744	0	10000	5	1	0	5	0
41	745	0	10000	5	1	0	5	0
43	746	0	10000	5	1	0	5	0
44	747	0	10000	5	1	0	5	0
43	748	0	10000	5	1	0	5	0
43	749	0	10000	5	1	0	5	0
41	750	0	10000	5	1	0	5	0
40	751	0	10000	5	1	0	5	0
41	752	0	10000	5	1	0	5	0
41	753	0	10000	5	1	0	5	0
41	754	0	10000	5	1	0	5	0
38	755	0	10000	5	1	0	5	0
38	756	0	10000	5	1	0	5	0
36	757	0	10000	5	1	0	5	0
36	758	0	10000	5	1	0	5	0
36	759	0	10000	5	1	0	5	0
36	760	0	10000	5	1	0	5	0
36	761	0	10000	5	1	0	5	0
34	762	0	10000	5	1	0	5	0
33	763	0	10000	5	1	0	5	0
34	764	0	10000	5	1	0	5	0
38	765	0	10000	5	1	0	5	0
36	766	0	10000	5	1	0	5	0
35	767	0	10000	5	1	0	5	0
35	768	0	10000	5	1	0	5	0
34	769	0	10000	5	1	0	5	0
32	770	0	10000	5	1	0	5	0
32	771	0	10000	5	1	0	5	0
31	772	0	10000	5	1	0	5	0
30	773	0	10000	5	1	0	5	0
31	774	0	10000	5	1	0	5	0
29	775	0	10000	5	1	0	5	0
31	776	0	10000	5	1	0	5	0
33	777	0	10000	5	1	0	5	0
34	778	0	10000	5	1	0	5	0
32	779	0	10000	5	1	0	5	0
31	780	0	10000	5	1	0	5	0
31	781	0	10000	5	1	0	5	0
30	782	0	10000	5	1	0	5	0
29	783	0	10000	5	1	0	5	0
29	784	0	10000	5	1	0	5	0
30	785	0	10000	5	1	0	5	0
