value	EMG	Stimulus	EMG_sensitivity	Total_Trial_Nr	practise	acq	probe_nr	Startle_Probe
174	2	10	10000	1	1	0	1	0
172	3	10	10000	1	1	0	1	0
177	4	10	10000	1	1	0	1	0
178	5	10	10000	1	1	0	1	0
179	6	10	10000	1	1	0	1	0
178	7	10	10000	1	1	0	1	0
177	8	10	10000	1	1	0	1	0
176	9	10	10000	1	1	0	1	0
171	10	10	10000	1	1	0	1	0
168	11	10	10000	1	1	0	1	0
167	12	10	10000	1	1	0	1	0
158	13	10	10000	1	1	0	1	0
154	14	10	10000	1	1	0	1	0
156	15	10	10000	1	1	0	1	0
153	16	10	10000	1	1	0	1	0
150	17	10	10000	1	1	0	1	0
144	18	10	10000	1	1	0	1	0
142	19	10	10000	1	1	0	1	0
139	20	10	10000	1	1	0	1	0
134	21	10	10000	1	1	0	1	0
133	21	10	10000	1	1	0	1	0
133	22	10	10000	1	1	0	1	0
128	24	10	10000	1	1	0	1	0
126	25	10	10000	1	1	0	1	0
121	26	10	10000	1	1	0	1	0
118	27	10	10000	1	1	0	1	0
125	28	10	10000	1	1	0	1	0
131	29	10	10000	1	1	0	1	0
133	30	10	10000	1	1	0	1	0
131	31	10	10000	1	1	0	1	0
129	31	10	10000	1	1	0	1	0
133	32	10	10000	1	1	0	1	0
136	34	10	10000	1	1	0	1	0
139	35	10	10000	1	1	0	1	0
137	36	10	10000	1	1	0	1	0
130	37	10	10000	1	1	0	1	0
125	38	10	10000	1	1	0	1	0
122	39	10	10000	1	1	0	1	0
119	40	10	10000	1	1	0	1	0
120	41	10	10000	1	1	0	1	0
121	41	10	10000	1	1	0	1	0
122	42	10	10000	1	1	0	1	0
128	44	10	10000	1	1	0	1	0
135	45	10	10000	1	1	0	1	0
138	46	10	10000	1	1	0	1	0
135	47	10	10000	1	1	0	1	0
140	48	10	10000	1	1	0	1	0
148	49	10	10000	1	1	0	1	0
152	50	10	10000	1	1	0	1	0
149	51	10	10000	1	1	0	1	0
142	51	10	10000	1	1	0	1	0
140	52	10	10000	1	1	0	1	0
138	54	10	10000	1	1	0	1	0
145	55	10	10000	1	1	0	1	0
163	56	10	10000	1	1	0	1	0
171	57	10	10000	1	1	0	1	0
170	58	10	10000	1	1	0	1	0
169	59	10	10000	1	1	0	1	0
165	60	10	10000	1	1	0	1	0
163	61	10	10000	1	1	0	1	0
158	61	10	10000	1	1	0	1	0
169	62	10	10000	1	1	0	1	0
193	64	10	10000	1	1	0	1	0
205	65	10	10000	1	1	0	1	0
200	66	10	10000	1	1	0	1	0
198	67	10	10000	1	1	0	1	0
201	68	10	10000	1	1	0	1	0
205	69	10	10000	1	1	0	1	0
200	70	10	10000	1	1	0	1	0
192	71	10	10000	1	1	0	1	0
184	71	10	10000	1	1	0	1	0
182	72	10	10000	1	1	0	1	0
179	74	10	10000	1	1	0	1	0
176	75	10	10000	1	1	0	1	0
171	76	10	10000	1	1	0	1	0
171	77	10	10000	1	1	0	1	0
174	78	10	10000	1	1	0	1	0
174	79	10	10000	1	1	0	1	0
168	80	10	10000	1	1	0	1	0
161	81	10	10000	1	1	0	1	0
156	81	10	10000	1	1	0	1	0
152	82	10	10000	1	1	0	1	0
149	84	10	10000	1	1	0	1	0
151	85	10	10000	1	1	0	1	0
155	86	10	10000	1	1	0	1	0
154	87	10	10000	1	1	0	1	0
153	88	10	10000	1	1	0	1	0
154	89	10	10000	1	1	0	1	0
151	90	10	10000	1	1	0	1	0
151	91	10	10000	1	1	0	1	0
152	91	10	10000	1	1	0	1	0
149	92	10	10000	1	1	0	1	0
146	94	10	10000	1	1	0	1	0
140	95	10	10000	1	1	0	1	0
138	96	10	10000	1	1	0	1	0
138	97	10	10000	1	1	0	1	0
134	98	10	10000	1	1	0	1	0
131	99	10	10000	1	1	0	1	0
129	100	10	10000	1	1	0	1	0
125	101	10	10000	1	1	0	1	0
126	101	10	10000	1	1	0	1	0
127	102	10	10000	1	1	0	1	0
123	104	10	10000	1	1	0	1	0
123	105	10	10000	1	1	0	1	0
128	106	10	10000	1	1	0	1	0
134	107	10	10000	1	1	0	1	0
136	108	10	10000	1	1	0	1	0
138	109	10	10000	1	1	0	1	0
136	110	10	10000	1	1	0	1	0
133	111	10	10000	1	1	0	1	0
140	111	10	10000	1	1	0	1	0
146	112	10	10000	1	1	0	1	0
152	114	10	10000	1	1	0	1	0
155	115	10	10000	1	1	0	1	0
155	116	10	10000	1	1	0	1	0
152	117	10	10000	1	1	0	1	0
151	118	10	10000	1	1	0	1	0
147	119	10	10000	1	1	0	1	0
146	120	10	10000	1	1	0	1	0
153	121	10	10000	1	1	0	1	0
158	121	10	10000	1	1	0	1	0
158	122	10	10000	1	1	0	1	0
154	124	10	10000	1	1	0	1	0
147	125	10	10000	1	1	0	1	0
140	126	10	10000	1	1	0	1	0
136	127	10	10000	1	1	0	1	0
133	128	10	10000	1	1	0	1	0
129	129	10	10000	1	1	0	1	0
124	130	10	10000	1	1	0	1	0
121	131	10	10000	1	1	0	1	0
116	131	10	10000	1	1	0	1	0
110	132	10	10000	1	1	0	1	0
113	134	10	10000	1	1	0	1	0
126	135	10	10000	1	1	0	1	0
135	136	10	10000	1	1	0	1	0
131	137	10	10000	1	1	0	1	0
133	138	10	10000	1	1	0	1	0
138	139	10	10000	1	1	0	1	0
147	140	10	10000	1	1	0	1	0
161	141	10	10000	1	1	0	1	0
178	141	10	10000	1	1	0	1	0
186	142	10	10000	1	1	0	1	0
185	144	10	10000	1	1	0	1	0
178	145	10	10000	1	1	0	1	0
173	146	10	10000	1	1	0	1	0
173	147	10	10000	1	1	0	1	0
173	148	10	10000	1	1	0	1	0
180	149	10	10000	1	1	0	1	0
184	150	10	10000	1	1	0	1	0
181	151	10	10000	1	1	0	1	0
183	151	10	10000	1	1	0	1	0
184	152	10	10000	1	1	0	1	0
178	154	10	10000	1	1	0	1	0
174	155	10	10000	1	1	0	1	0
169	156	10	10000	1	1	0	1	0
165	157	10	10000	1	1	0	1	0
158	158	10	10000	1	1	0	1	0
151	159	10	10000	1	1	0	1	0
148	160	10	10000	1	1	0	1	0
145	161	10	10000	1	1	0	1	0
140	161	10	10000	1	1	0	1	0
139	162	10	10000	1	1	0	1	0
150	164	10	10000	1	1	0	1	0
165	165	10	10000	1	1	0	1	0
163	166	10	10000	1	1	0	1	0
162	167	10	10000	1	1	0	1	0
162	168	10	10000	1	1	0	1	0
157	169	10	10000	1	1	0	1	0
150	170	10	10000	1	1	0	1	0
148	171	10	10000	1	1	0	1	0
151	171	10	10000	1	1	0	1	0
163	172	10	10000	1	1	0	1	0
171	174	10	10000	1	1	0	1	0
176	175	10	10000	1	1	0	1	0
174	176	10	10000	1	1	0	1	0
173	177	10	10000	1	1	0	1	0
171	178	10	10000	1	1	0	1	0
166	179	10	10000	1	1	0	1	0
163	180	10	10000	1	1	0	1	0
162	181	10	10000	1	1	0	1	0
157	181	10	10000	1	1	0	1	0
152	182	10	10000	1	1	0	1	0
151	184	10	10000	1	1	0	1	0
144	185	10	10000	1	1	0	1	0
142	186	10	10000	1	1	0	1	0
149	187	10	10000	1	1	0	1	0
152	188	10	10000	1	1	0	1	0
152	189	10	10000	1	1	0	1	0
150	190	10	10000	1	1	0	1	0
144	191	10	10000	1	1	0	1	0
139	191	10	10000	1	1	0	1	0
136	192	10	10000	1	1	0	1	0
132	194	10	10000	1	1	0	1	0
129	195	10	10000	1	1	0	1	0
129	196	10	10000	1	1	0	1	0
131	197	10	10000	1	1	0	1	0
136	198	10	10000	1	1	0	1	0
133	199	10	10000	1	1	0	1	0
128	200	10	10000	1	1	0	1	0
125	201	10	10000	1	1	0	1	0
129	201	10	10000	1	1	0	1	0
130	202	10	10000	1	1	0	1	0
126	204	10	10000	1	1	0	1	0
121	205	10	10000	1	1	0	1	0
116	206	10	10000	1	1	0	1	0
114	207	10	10000	1	1	0	1	0
119	208	10	10000	1	1	0	1	0
131	209	10	10000	1	1	0	1	0
141	210	10	10000	1	1	0	1	0
145	211	10	10000	1	1	0	1	0
148	211	10	10000	1	1	0	1	0
148	212	10	10000	1	1	0	1	0
143	214	10	10000	1	1	0	1	0
147	215	10	10000	1	1	0	1	0
164	216	10	10000	1	1	0	1	0
181	217	10	10000	1	1	0	1	0
190	218	10	10000	1	1	0	1	0
192	219	10	10000	1	1	0	1	0
184	220	10	10000	1	1	0	1	0
179	221	10	10000	1	1	0	1	0
171	221	10	10000	1	1	0	1	0
167	222	10	10000	1	1	0	1	0
165	224	10	10000	1	1	0	1	0
167	225	10	10000	1	1	0	1	0
163	226	10	10000	1	1	0	1	0
170	227	10	10000	1	1	0	1	0
178	228	10	10000	1	1	0	1	0
173	229	10	10000	1	1	0	1	0
174	230	10	10000	1	1	0	1	0
187	231	10	10000	1	1	0	1	0
208	231	10	10000	1	1	0	1	0
223	232	10	10000	1	1	0	1	0
222	234	10	10000	1	1	0	1	0
223	235	10	10000	1	1	0	1	0
232	236	10	10000	1	1	0	1	0
232	237	10	10000	1	1	0	1	0
224	238	10	10000	1	1	0	1	0
218	239	10	10000	1	1	0	1	0
210	240	10	10000	1	1	0	1	0
205	241	10	10000	1	1	0	1	0
206	241	10	10000	1	1	0	1	0
213	242	10	10000	1	1	0	1	0
218	244	10	10000	1	1	0	1	0
212	245	10	10000	1	1	0	1	0
201	246	10	10000	1	1	0	1	0
194	247	10	10000	1	1	0	1	0
190	248	10	10000	1	1	0	1	0
187	249	10	10000	1	1	0	1	0
191	250	10	10000	1	1	0	1	0
196	251	10	10000	1	1	0	1	0
199	251	10	10000	1	1	0	1	0
199	252	10	10000	1	1	0	1	0
198	254	10	10000	1	1	0	1	0
193	255	10	10000	1	1	0	1	0
193	256	10	10000	1	1	0	1	0
198	257	10	10000	1	1	0	1	0
206	258	10	10000	1	1	0	1	0
212	259	10	10000	1	1	0	1	0
211	260	10	10000	1	1	0	1	0
210	261	10	10000	1	1	0	1	0
208	261	10	10000	1	1	0	1	0
205	262	10	10000	1	1	0	1	0
200	264	10	10000	1	1	0	1	0
190	265	10	10000	1	1	0	1	0
180	266	10	10000	1	1	0	1	0
174	267	10	10000	1	1	0	1	0
168	268	10	10000	1	1	0	1	0
164	269	10	10000	1	1	0	1	0
157	270	10	10000	1	1	0	1	0
153	271	10	10000	1	1	0	1	0
158	271	10	10000	1	1	0	1	0
166	272	10	10000	1	1	0	1	0
172	274	10	10000	1	1	0	1	0
174	275	10	10000	1	1	0	1	0
171	276	10	10000	1	1	0	1	0
167	277	10	10000	1	1	0	1	0
164	278	10	10000	1	1	0	1	0
157	279	10	10000	1	1	0	1	0
152	280	10	10000	1	1	0	1	0
147	281	10	10000	1	1	0	1	0
145	281	10	10000	1	1	0	1	0
144	282	10	10000	1	1	0	1	0
140	284	10	10000	1	1	0	1	0
138	285	10	10000	1	1	0	1	0
130	286	10	10000	1	1	0	1	0
127	287	10	10000	1	1	0	1	0
126	288	10	10000	1	1	0	1	0
125	289	10	10000	1	1	0	1	0
121	290	10	10000	1	1	0	1	0
122	291	10	10000	1	1	0	1	0
117	291	10	10000	1	1	0	1	0
112	292	10	10000	1	1	0	1	0
108	294	10	10000	1	1	0	1	0
106	295	10	10000	1	1	0	1	0
109	296	10	10000	1	1	0	1	0
110	297	10	10000	1	1	0	1	0
108	298	10	10000	1	1	0	1	0
106	299	10	10000	1	1	0	1	0
105	300	10	10000	1	1	0	1	0
102	301	10	10000	1	1	0	1	0
99	301	10	10000	1	1	0	1	0
102	302	10	10000	1	1	0	1	0
110	304	10	10000	1	1	0	1	0
113	305	10	10000	1	1	0	1	0
107	306	10	10000	1	1	0	1	0
104	307	10	10000	1	1	0	1	0
102	308	10	10000	1	1	0	1	0
104	309	10	10000	1	1	0	1	0
103	310	10	10000	1	1	0	1	0
99	311	10	10000	1	1	0	1	0
100	311	10	10000	1	1	0	1	0
104	312	10	10000	1	1	0	1	0
112	314	10	10000	1	1	0	1	0
125	315	10	10000	1	1	0	1	0
132	316	10	10000	1	1	0	1	0
133	317	10	10000	1	1	0	1	0
128	318	10	10000	1	1	0	1	0
126	319	10	10000	1	1	0	1	0
122	320	10	10000	1	1	0	1	0
119	321	10	10000	1	1	0	1	0
113	321	10	10000	1	1	0	1	0
113	322	10	10000	1	1	0	1	0
114	324	10	10000	1	1	0	1	0
110	325	10	10000	1	1	0	1	0
104	326	10	10000	1	1	0	1	0
100	327	10	10000	1	1	0	1	0
97	328	10	10000	1	1	0	1	0
96	329	10	10000	1	1	0	1	0
98	330	10	10000	1	1	0	1	0
98	331	10	10000	1	1	0	1	0
95	331	10	10000	1	1	0	1	0
91	332	10	10000	1	1	0	1	0
93	334	10	10000	1	1	0	1	0
94	335	10	10000	1	1	0	1	0
93	336	10	10000	1	1	0	1	0
90	337	10	10000	1	1	0	1	0
92	338	10	10000	1	1	0	1	0
95	339	10	10000	1	1	0	1	0
97	340	10	10000	1	1	0	1	0
100	341	10	10000	1	1	0	1	0
99	341	10	10000	1	1	0	1	0
96	342	10	10000	1	1	0	1	0
91	344	10	10000	1	1	0	1	0
89	345	10	10000	1	1	0	1	0
91	346	10	10000	1	1	0	1	0
92	347	10	10000	1	1	0	1	0
90	348	10	10000	1	1	0	1	0
86	349	10	10000	1	1	0	1	0
85	350	10	10000	1	1	0	1	0
87	351	10	10000	1	1	0	1	0
86	351	10	10000	1	1	0	1	0
84	352	10	10000	1	1	0	1	0
83	354	10	10000	1	1	0	1	0
81	355	10	10000	1	1	0	1	0
83	356	10	10000	1	1	0	1	0
87	357	10	10000	1	1	0	1	0
90	358	10	10000	1	1	0	1	0
91	359	10	10000	1	1	0	1	0
90	360	10	10000	1	1	0	1	0
91	361	10	10000	1	1	0	1	0
99	361	10	10000	1	1	0	1	0
107	362	10	10000	1	1	0	1	0
108	364	10	10000	1	1	0	1	0
116	365	10	10000	1	1	0	1	0
120	366	10	10000	1	1	0	1	0
126	367	10	10000	1	1	0	1	0
127	368	10	10000	1	1	0	1	0
123	369	10	10000	1	1	0	1	0
122	370	10	10000	1	1	0	1	0
127	371	10	10000	1	1	0	1	0
125	371	10	10000	1	1	0	1	0
132	372	10	10000	1	1	0	1	0
148	374	10	10000	1	1	0	1	0
162	375	10	10000	1	1	0	1	0
163	376	10	10000	1	1	0	1	0
163	377	10	10000	1	1	0	1	0
173	378	10	10000	1	1	0	1	0
182	379	10	10000	1	1	0	1	0
190	380	10	10000	1	1	0	1	0
193	381	10	10000	1	1	0	1	0
195	381	10	10000	1	1	0	1	0
193	382	10	10000	1	1	0	1	0
186	384	10	10000	1	1	0	1	0
184	385	10	10000	1	1	0	1	0
177	386	10	10000	1	1	0	1	0
174	387	10	10000	1	1	0	1	0
168	388	10	10000	1	1	0	1	0
164	389	10	10000	1	1	0	1	0
162	390	10	10000	1	1	0	1	0
162	391	10	10000	1	1	0	1	0
163	391	10	10000	1	1	0	1	0
163	392	10	10000	1	1	0	1	0
166	394	10	10000	1	1	0	1	0
168	395	10	10000	1	1	0	1	0
167	396	10	10000	1	1	0	1	0
162	397	10	10000	1	1	0	1	0
158	398	10	10000	1	1	0	1	0
155	399	10	10000	1	1	0	1	0
152	400	10	10000	1	1	0	1	0
145	401	10	10000	1	1	0	1	0
139	401	10	10000	1	1	0	1	0
139	402	10	10000	1	1	0	1	0
142	404	10	10000	1	1	0	1	0
145	405	10	10000	1	1	0	1	0
145	406	10	10000	1	1	0	1	0
145	407	10	10000	1	1	0	1	0
142	408	10	10000	1	1	0	1	0
137	409	10	10000	1	1	0	1	0
131	410	10	10000	1	1	0	1	0
128	411	10	10000	1	1	0	1	0
128	411	10	10000	1	1	0	1	0
129	412	10	10000	1	1	0	1	0
129	414	10	10000	1	1	0	1	0
126	415	10	10000	1	1	0	1	0
128	416	10	10000	1	1	0	1	0
135	417	10	10000	1	1	0	1	0
141	418	10	10000	1	1	0	1	0
140	419	10	10000	1	1	0	1	0
137	420	10	10000	1	1	0	1	0
138	421	10	10000	1	1	0	1	0
136	421	10	10000	1	1	0	1	0
138	422	10	10000	1	1	0	1	0
149	424	10	10000	1	1	0	1	0
157	425	10	10000	1	1	0	1	0
157	426	10	10000	1	1	0	1	0
157	427	10	10000	1	1	0	1	0
153	428	10	10000	1	1	0	1	0
154	429	10	10000	1	1	0	1	0
160	430	10	10000	1	1	0	1	0
165	431	10	10000	1	1	0	1	0
164	431	10	10000	1	1	0	1	0
156	432	10	10000	1	1	0	1	0
151	434	10	10000	1	1	0	1	0
145	435	10	10000	1	1	0	1	0
143	436	10	10000	1	1	0	1	0
138	437	10	10000	1	1	0	1	0
134	438	10	10000	1	1	0	1	0
135	439	10	10000	1	1	0	1	0
134	440	10	10000	1	1	0	1	0
130	441	10	10000	1	1	0	1	0
126	441	10	10000	1	1	0	1	0
127	442	10	10000	1	1	0	1	0
124	454	10	10000	1	1	0	1	0
122	455	10	10000	1	1	0	1	0
119	456	10	10000	1	1	0	1	0
117	457	10	10000	1	1	0	1	0
113	458	10	10000	1	1	0	1	0
113	459	10	10000	1	1	0	1	0
111	460	10	10000	1	1	0	1	0
105	461	10	10000	1	1	0	1	0
103	462	10	10000	1	1	0	1	0
102	463	10	10000	1	1	0	1	0
103	464	10	10000	1	1	0	1	0
101	465	10	10000	1	1	0	1	0
105	462	10	10000	1	1	0	1	0
104	463	10	10000	1	1	0	1	0
100	464	10	10000	1	1	0	1	0
97	465	10	10000	1	1	0	1	0
95	466	10	10000	1	1	0	1	0
98	467	10	10000	1	1	0	1	0
105	468	10	10000	1	1	0	1	0
118	469	10	10000	1	1	0	1	0
127	473	10	10000	1	1	0	1	0
128	474	10	10000	1	1	0	1	0
123	475	10	10000	1	1	0	1	0
129	476	10	10000	1	1	0	1	0
140	477	10	10000	1	1	0	1	0
151	478	10	10000	1	1	0	1	0
155	479	10	10000	1	1	0	1	0
158	480	10	10000	1	1	0	1	0
159	481	10	10000	1	1	0	1	0
157	482	10	10000	1	1	0	1	0
154	483	10	10000	1	1	0	1	0
161	484	10	10000	1	1	0	1	0
166	479	10	10000	1	1	0	1	0
161	480	10	10000	1	1	0	1	0
165	481	10	10000	1	1	0	1	0
170	482	10	10000	1	1	0	1	0
167	483	10	10000	1	1	0	1	0
166	484	10	10000	1	1	0	1	0
164	483	10	10000	1	1	0	1	0
159	484	10	10000	1	1	0	1	0
155	485	10	10000	1	1	0	1	0
156	486	10	10000	1	1	0	1	0
156	489	10	10000	1	1	0	1	0
152	490	10	10000	1	1	0	1	0
148	491	10	10000	1	1	0	1	0
144	492	10	10000	1	1	0	1	0
139	493	10	10000	1	1	0	1	0
136	494	10	10000	1	1	0	1	0
134	495	10	10000	1	1	0	1	0
129	496	10	10000	1	1	0	1	0
124	497	10	10000	1	1	0	1	0
123	498	10	10000	1	1	0	1	0
127	499	10	10000	1	1	0	1	0
127	500	10	10000	1	1	0	1	0
126	500	10	10000	1	1	0	1	0
126	501	10	10000	1	1	0	1	0
122	502	10	10000	1	1	0	1	0
117	503	10	10000	1	1	0	1	0
115	557	10	10000	1	1	0	1	1
111	558	10	10000	1	1	0	1	1
108	559	10	10000	1	1	0	1	1
104	560	10	10000	1	1	0	1	1
102	561	10	10000	1	1	0	1	1
105	562	10	10000	1	1	0	1	1
111	563	10	10000	1	1	0	1	1
111	564	10	10000	1	1	0	1	1
109	565	10	10000	1	1	0	1	1
116	566	10	10000	1	1	0	1	1
124	567	10	10000	1	1	0	1	1
125	568	10	10000	1	1	0	1	1
120	569	10	10000	1	1	0	1	1
126	570	10	10000	1	1	0	1	1
130	571	10	10000	1	1	0	1	1
125	572	10	10000	1	1	0	1	1
120	573	10	10000	1	1	0	1	1
117	574	10	10000	1	1	0	1	1
117	575	10	10000	1	1	0	1	1
117	576	10	10000	1	1	0	1	1
120	577	10	10000	1	1	0	1	1
124	578	10	10000	1	1	0	1	1
122	579	10	10000	1	1	0	1	1
118	580	10	10000	1	1	0	1	1
117	581	10	10000	1	1	0	1	1
121	582	10	10000	1	1	0	1	1
122	583	10	10000	1	1	0	1	1
123	584	10	10000	1	1	0	1	1
129	585	10	10000	1	1	0	1	1
135	586	10	10000	1	1	0	1	1
140	587	10	10000	1	1	0	1	1
141	588	10	10000	1	1	0	1	1
142	589	10	10000	1	1	0	1	1
140	590	10	10000	1	1	0	1	1
137	591	10	10000	1	1	0	1	1
131	592	10	10000	1	1	0	1	1
127	593	10	10000	1	1	0	1	1
125	594	10	10000	1	1	0	1	1
125	595	10	10000	1	1	0	1	1
126	596	10	10000	1	1	0	1	1
130	597	10	10000	1	1	0	1	1
133	598	10	10000	1	1	0	1	1
129	599	10	10000	1	1	0	1	1
125	600	10	10000	1	1	0	1	1
118	601	10	10000	1	1	0	1	1
118	602	10	10000	1	1	0	1	1
119	603	10	10000	1	1	0	1	1
117	604	10	10000	1	1	0	1	1
113	605	10	10000	1	1	0	1	1
114	606	10	10000	1	1	0	1	1
113	607	10	10000	1	1	0	1	1
112	608	10	10000	1	1	0	1	1
113	609	10	10000	1	1	0	1	1
110	610	10	10000	1	1	0	1	1
114	611	10	10000	1	1	0	1	1
124	612	10	10000	1	1	0	1	1
128	613	10	10000	1	1	0	1	1
128	614	10	10000	1	1	0	1	1
129	566	10	10000	1	1	0	1	0
127	567	10	10000	1	1	0	1	0
125	568	10	10000	1	1	0	1	0
132	569	10	10000	1	1	0	1	0
138	570	10	10000	1	1	0	1	0
137	571	10	10000	1	1	0	1	0
128	572	10	10000	1	1	0	1	0
123	573	10	10000	1	1	0	1	0
119	572	10	10000	1	1	0	1	0
115	573	10	10000	1	1	0	1	0
114	574	10	10000	1	1	0	1	0
115	575	10	10000	1	1	0	1	0
116	576	10	10000	1	1	0	1	0
114	577	10	10000	1	1	0	1	0
110	578	10	10000	1	1	0	1	0
113	579	10	10000	1	1	0	1	0
119	580	10	10000	1	1	0	1	0
117	581	10	10000	1	1	0	1	0
114	582	10	10000	1	1	0	1	0
112	583	10	10000	1	1	0	1	0
110	582	10	10000	1	1	0	1	0
110	583	10	10000	1	1	0	1	0
107	584	10	10000	1	1	0	1	0
102	585	10	10000	1	1	0	1	0
98	583	10	10000	1	1	0	1	0
95	584	10	10000	1	1	0	1	0
91	586	10	10000	1	1	0	1	0
90	587	10	10000	1	1	0	1	0
88	588	10	10000	1	1	0	1	0
85	589	10	10000	1	1	0	1	0
82	590	10	10000	1	1	0	1	0
79	591	10	10000	1	1	0	1	0
78	592	10	10000	1	1	0	1	0
79	593	10	10000	1	1	0	1	0
76	594	10	10000	1	1	0	1	0
73	595	10	10000	1	1	0	1	0
72	596	10	10000	1	1	0	1	0
69	597	10	10000	1	1	0	1	0
70	598	10	10000	1	1	0	1	0
75	599	10	10000	1	1	0	1	0
79	600	10	10000	1	1	0	1	0
79	601	10	10000	1	1	0	1	0
76	602	10	10000	1	1	0	1	0
80	603	10	10000	1	1	0	1	0
90	604	10	10000	1	1	0	1	0
97	605	10	10000	1	1	0	1	0
100	606	10	10000	1	1	0	1	0
104	607	10	10000	1	1	0	1	0
111	608	10	10000	1	1	0	1	0
124	609	10	10000	1	1	0	1	0
132	610	10	10000	1	1	0	1	0
131	611	10	10000	1	1	0	1	0
133	612	10	10000	1	1	0	1	0
136	613	10	10000	1	1	0	1	0
143	614	10	10000	1	1	0	1	0
155	615	10	10000	1	1	0	1	0
166	616	10	10000	1	1	0	1	0
171	617	10	10000	1	1	0	1	0
175	618	10	10000	1	1	0	1	0
176	619	10	10000	1	1	0	1	0
177	620	10	10000	1	1	0	1	0
173	621	10	10000	1	1	0	1	0
166	622	10	10000	1	1	0	1	0
166	623	10	10000	1	1	0	1	0
166	624	10	10000	1	1	0	1	0
165	625	10	10000	1	1	0	1	0
159	626	10	10000	1	1	0	1	0
152	627	10	10000	1	1	0	1	0
146	628	10	10000	1	1	0	1	0
140	629	10	10000	1	1	0	1	0
140	630	10	10000	1	1	0	1	0
143	631	10	10000	1	1	0	1	0
152	632	10	10000	1	1	0	1	0
162	633	10	10000	1	1	0	1	0
169	634	10	10000	1	1	0	1	0
166	635	10	10000	1	1	0	1	0
170	636	10	10000	1	1	0	1	0
175	637	10	10000	1	1	0	1	0
181	638	10	10000	1	1	0	1	0
189	639	10	10000	1	1	0	1	0
193	640	10	10000	1	1	0	1	0
195	641	10	10000	1	1	0	1	0
189	642	10	10000	1	1	0	1	0
183	643	10	10000	1	1	0	1	0
180	644	10	10000	1	1	0	1	0
186	645	10	10000	1	1	0	1	0
181	646	10	10000	1	1	0	1	0
179	647	10	10000	1	1	0	1	0
178	648	10	10000	1	1	0	1	0
181	649	10	10000	1	1	0	1	0
183	650	10	10000	1	1	0	1	0
179	651	10	10000	1	1	0	1	0
174	652	10	10000	1	1	0	1	0
169	653	10	10000	1	1	0	1	0
169	654	10	10000	1	1	0	1	0
165	655	10	10000	1	1	0	1	0
174	656	10	10000	1	1	0	1	0
190	657	10	10000	1	1	0	1	0
212	658	10	10000	1	1	0	1	0
213	659	10	10000	1	1	0	1	0
213	660	10	10000	1	1	0	1	0
206	661	10	10000	1	1	0	1	0
199	662	10	10000	1	1	0	1	0
194	663	10	10000	1	1	0	1	0
201	664	10	10000	1	1	0	1	0
215	665	10	10000	1	1	0	1	0
219	666	10	10000	1	1	0	1	0
219	667	10	10000	1	1	0	1	0
225	668	10	10000	1	1	0	1	0
225	669	10	10000	1	1	0	1	0
219	670	10	10000	1	1	0	1	0
220	671	10	10000	1	1	0	1	0
266	672	10	10000	1	1	0	1	0
278	673	10	10000	1	1	0	1	0
304	674	10	10000	1	1	0	1	0
350	675	10	10000	1	1	0	1	0
373	676	10	10000	1	1	0	1	0
360	677	10	10000	1	1	0	1	0
351	678	10	10000	1	1	0	1	0
342	679	10	10000	1	1	0	1	0
334	680	10	10000	1	1	0	1	0
326	681	10	10000	1	1	0	1	0
315	682	10	10000	1	1	0	1	0
310	683	10	10000	1	1	0	1	0
310	684	10	10000	1	1	0	1	0
308	685	10	10000	1	1	0	1	0
300	686	10	10000	1	1	0	1	0
297	687	10	10000	1	1	0	1	0
297	688	10	10000	1	1	0	1	0
300	689	10	10000	1	1	0	1	0
301	690	10	10000	1	1	0	1	0
299	691	10	10000	1	1	0	1	0
291	692	10	10000	1	1	0	1	0
281	693	10	10000	1	1	0	1	0
274	694	10	10000	1	1	0	1	0
265	695	10	10000	1	1	0	1	0
261	696	10	10000	1	1	0	1	0
257	697	10	10000	1	1	0	1	0
253	698	10	10000	1	1	0	1	0
245	699	10	10000	1	1	0	1	0
236	700	10	10000	1	1	0	1	0
230	701	10	10000	1	1	0	1	0
229	702	10	10000	1	1	0	1	0
228	703	10	10000	1	1	0	1	0
223	704	10	10000	1	1	0	1	0
220	705	10	10000	1	1	0	1	0
220	706	10	10000	1	1	0	1	0
225	707	10	10000	1	1	0	1	0
230	708	10	10000	1	1	0	1	0
236	709	10	10000	1	1	0	1	0
241	710	10	10000	1	1	0	1	0
243	711	10	10000	1	1	0	1	0
244	712	10	10000	1	1	0	1	0
243	713	10	10000	1	1	0	1	0
238	714	10	10000	1	1	0	1	0
233	715	10	10000	1	1	0	1	0
226	716	10	10000	1	1	0	1	0
219	717	10	10000	1	1	0	1	0
209	718	10	10000	1	1	0	1	0
199	719	10	10000	1	1	0	1	0
190	720	10	10000	1	1	0	1	0
183	721	10	10000	1	1	0	1	0
178	722	10	10000	1	1	0	1	0
175	723	10	10000	1	1	0	1	0
173	724	10	10000	1	1	0	1	0
171	725	10	10000	1	1	0	1	0
168	726	10	10000	1	1	0	1	0
166	727	10	10000	1	1	0	1	0
162	728	10	10000	1	1	0	1	0
156	729	10	10000	1	1	0	1	0
151	730	10	10000	1	1	0	1	0
149	731	10	10000	1	1	0	1	0
147	732	10	10000	1	1	0	1	0
141	733	10	10000	1	1	0	1	0
137	734	10	10000	1	1	0	1	0
137	735	10	10000	1	1	0	1	0
133	736	10	10000	1	1	0	1	0
130	737	10	10000	1	1	0	1	0
129	738	10	10000	1	1	0	1	0
128	739	10	10000	1	1	0	1	0
123	740	10	10000	1	1	0	1	0
122	741	10	10000	1	1	0	1	0
119	742	10	10000	1	1	0	1	0
118	743	10	10000	1	1	0	1	0
116	744	10	10000	1	1	0	1	0
118	745	10	10000	1	1	0	1	0
114	746	10	10000	1	1	0	1	0
118	747	10	10000	1	1	0	1	0
128	748	10	10000	1	1	0	1	0
137	749	10	10000	1	1	0	1	0
137	750	10	10000	1	1	0	1	0
134	751	10	10000	1	1	0	1	0
129	752	10	10000	1	1	0	1	0
129	753	10	10000	1	1	0	1	0
129	754	10	10000	1	1	0	1	0
126	755	10	10000	1	1	0	1	0
123	756	10	10000	1	1	0	1	0
121	757	10	10000	1	1	0	1	0
120	758	10	10000	1	1	0	1	0
116	759	10	10000	1	1	0	1	0
116	760	10	10000	1	1	0	1	0
117	761	10	10000	1	1	0	1	0
112	762	10	10000	1	1	0	1	0
108	763	10	10000	1	1	0	1	0
106	764	10	10000	1	1	0	1	0
105	765	10	10000	1	1	0	1	0
101	766	10	10000	1	1	0	1	0
100	767	10	10000	1	1	0	1	0
98	768	10	10000	1	1	0	1	0
99	769	10	10000	1	1	0	1	0
102	770	10	10000	1	1	0	1	0
102	771	10	10000	1	1	0	1	0
98	772	10	10000	1	1	0	1	0
95	773	10	10000	1	1	0	1	0
101	774	10	10000	1	1	0	1	0
112	775	10	10000	1	1	0	1	0
127	776	10	10000	1	1	0	1	0
128	777	10	10000	1	1	0	1	0
123	778	10	10000	1	1	0	1	0
118	779	10	10000	1	1	0	1	0
113	780	10	10000	1	1	0	1	0
109	781	10	10000	1	1	0	1	0
104	782	10	10000	1	1	0	1	0
102	783	10	10000	1	1	0	1	0
100	784	10	10000	1	1	0	1	0
105	785	10	10000	1	1	0	1	0
109	786	10	10000	1	1	0	1	0
113	787	10	10000	1	1	0	1	0
112	788	10	10000	1	1	0	1	0
114	789	10	10000	1	1	0	1	0
116	790	10	10000	1	1	0	1	0
115	791	10	10000	1	1	0	1	0
119	792	10	10000	1	1	0	1	0
117	793	10	10000	1	1	0	1	0
118	794	10	10000	1	1	0	1	0
115	795	10	10000	1	1	0	1	0
119	796	10	10000	1	1	0	1	0
122	797	10	10000	1	1	0	1	0
130	798	10	10000	1	1	0	1	0
127	799	10	10000	1	1	0	1	0
129	800	10	10000	1	1	0	1	0
174	801	10	10000	1	1	0	1	0
210	802	10	10000	1	1	0	1	0
210	803	10	10000	1	1	0	1	0
216	804	10	10000	1	1	0	1	0
212	805	10	10000	1	1	0	1	0
204	806	10	10000	1	1	0	1	0
212	807	10	10000	1	1	0	1	0
223	808	10	10000	1	1	0	1	0
228	809	10	10000	1	1	0	1	0
223	810	10	10000	1	1	0	1	0
213	811	10	10000	1	1	0	1	0
204	812	10	10000	1	1	0	1	0
198	813	10	10000	1	1	0	1	0
202	814	10	10000	1	1	0	1	0
215	815	10	10000	1	1	0	1	0
220	816	10	10000	1	1	0	1	0
216	817	10	10000	1	1	0	1	0
223	818	10	10000	1	1	0	1	0
246	819	10	10000	1	1	0	1	0
283	820	10	10000	1	1	0	1	0
308	821	10	10000	1	1	0	1	0
302	822	10	10000	1	1	0	1	0
308	823	10	10000	1	1	0	1	0
312	824	10	10000	1	1	0	1	0
311	825	10	10000	1	1	0	1	0
303	826	10	10000	1	1	0	1	0
295	827	10	10000	1	1	0	1	0
284	828	10	10000	1	1	0	1	0
272	829	10	10000	1	1	0	1	0
263	830	10	10000	1	1	0	1	0
254	831	10	10000	1	1	0	1	0
243	832	10	10000	1	1	0	1	0
233	833	10	10000	1	1	0	1	0
231	834	10	10000	1	1	0	1	0
233	835	10	10000	1	1	0	1	0
242	836	10	10000	1	1	0	1	0
249	837	10	10000	1	1	0	1	0
255	838	10	10000	1	1	0	1	0
259	839	10	10000	1	1	0	1	0
262	840	10	10000	1	1	0	1	0
266	841	10	10000	1	1	0	1	0
256	842	10	10000	1	1	0	1	0
246	843	10	10000	1	1	0	1	0
237	844	10	10000	1	1	0	1	0
229	845	10	10000	1	1	0	1	0
226	846	10	10000	1	1	0	1	0
234	847	10	10000	1	1	0	1	0
235	848	10	10000	1	1	0	1	0
228	849	10	10000	1	1	0	1	0
228	850	10	10000	1	1	0	1	0
227	851	10	10000	1	1	0	1	0
228	852	10	10000	1	1	0	1	0
225	853	10	10000	1	1	0	1	0
217	854	10	10000	1	1	0	1	0
209	855	10	10000	1	1	0	1	0
202	856	10	10000	1	1	0	1	0
196	857	10	10000	1	1	0	1	0
189	858	10	10000	1	1	0	1	0
188	859	10	10000	1	1	0	1	0
199	860	10	10000	1	1	0	1	0
213	861	10	10000	1	1	0	1	0
221	862	10	10000	1	1	0	1	0
223	863	10	10000	1	1	0	1	0
225	864	10	10000	1	1	0	1	0
227	865	10	10000	1	1	0	1	0
231	866	10	10000	1	1	0	1	0
235	867	10	10000	1	1	0	1	0
241	868	10	10000	1	1	0	1	0
253	869	10	10000	1	1	0	1	0
267	870	10	10000	1	1	0	1	0
276	871	10	10000	1	1	0	1	0
282	872	10	10000	1	1	0	1	0
290	873	10	10000	1	1	0	1	0
308	874	10	10000	1	1	0	1	0
327	875	10	10000	1	1	0	1	0
346	876	10	10000	1	1	0	1	0
364	877	10	10000	1	1	0	1	0
374	878	10	10000	1	1	0	1	0
373	879	10	10000	1	1	0	1	0
360	880	10	10000	1	1	0	1	0
343	881	10	10000	1	1	0	1	0
333	882	10	10000	1	1	0	1	0
330	883	10	10000	1	1	0	1	0
331	884	10	10000	1	1	0	1	0
334	885	10	10000	1	1	0	1	0
337	886	10	10000	1	1	0	1	0
336	887	10	10000	1	1	0	1	0
331	888	10	10000	1	1	0	1	0
323	889	10	10000	1	1	0	1	0
314	890	10	10000	1	1	0	1	0
306	891	10	10000	1	1	0	1	0
297	892	10	10000	1	1	0	1	0
292	893	10	10000	1	1	0	1	0
286	894	10	10000	1	1	0	1	0
280	895	10	10000	1	1	0	1	0
274	896	10	10000	1	1	0	1	0
261	897	10	10000	1	1	0	1	0
250	898	10	10000	1	1	0	1	0
238	899	10	10000	1	1	0	1	0
230	900	10	10000	1	1	0	1	0
224	901	10	10000	1	1	0	1	0
231	902	10	10000	1	1	0	1	0
236	903	10	10000	1	1	0	1	0
230	904	10	10000	1	1	0	1	0
225	905	10	10000	1	1	0	1	0
224	906	10	10000	1	1	0	1	0
228	907	10	10000	1	1	0	1	0
230	908	10	10000	1	1	0	1	0
226	909	10	10000	1	1	0	1	0
219	910	10	10000	1	1	0	1	0
218	911	10	10000	1	1	0	1	0
218	912	10	10000	1	1	0	1	0
214	913	10	10000	1	1	0	1	0
206	914	10	10000	1	1	0	1	0
196	915	10	10000	1	1	0	1	0
191	916	10	10000	1	1	0	1	0
190	917	10	10000	1	1	0	1	0
197	918	10	10000	1	1	0	1	0
204	919	10	10000	1	1	0	1	0
206	920	10	10000	1	1	0	1	0
208	921	10	10000	1	1	0	1	0
208	922	10	10000	1	1	0	1	0
210	923	10	10000	1	1	0	1	0
221	924	10	10000	1	1	0	1	0
228	925	10	10000	1	1	0	1	0
221	926	10	10000	1	1	0	1	0
228	927	10	10000	1	1	0	1	0
245	928	10	10000	1	1	0	1	0
262	929	10	10000	1	1	0	1	0
274	930	10	10000	1	1	0	1	0
281	931	10	10000	1	1	0	1	0
286	932	10	10000	1	1	0	1	0
287	933	10	10000	1	1	0	1	0
290	934	10	10000	1	1	0	1	0
293	935	10	10000	1	1	0	1	0
292	936	10	10000	1	1	0	1	0
288	937	10	10000	1	1	0	1	0
284	938	10	10000	1	1	0	1	0
282	939	10	10000	1	1	0	1	0
279	940	10	10000	1	1	0	1	0
270	941	10	10000	1	1	0	1	0
262	942	10	10000	1	1	0	1	0
260	943	10	10000	1	1	0	1	0
256	944	10	10000	1	1	0	1	0
247	945	10	10000	1	1	0	1	0
234	946	10	10000	1	1	0	1	0
225	947	10	10000	1	1	0	1	0
216	948	10	10000	1	1	0	1	0
214	949	10	10000	1	1	0	1	0
216	950	10	10000	1	1	0	1	0
217	951	10	10000	1	1	0	1	0
218	952	10	10000	1	1	0	1	0
212	953	10	10000	1	1	0	1	0
203	954	10	10000	1	1	0	1	0
199	955	10	10000	1	1	0	1	0
197	956	10	10000	1	1	0	1	0
195	957	10	10000	1	1	0	1	0
191	958	10	10000	1	1	0	1	0
189	959	10	10000	1	1	0	1	0
186	960	10	10000	1	1	0	1	0
179	961	10	10000	1	1	0	1	0
170	962	10	10000	1	1	0	1	0
165	963	10	10000	1	1	0	1	0
164	964	10	10000	1	1	0	1	0
162	965	10	10000	1	1	0	1	0
152	966	10	10000	1	1	0	1	0
151	967	10	10000	1	1	0	1	0
155	968	10	10000	1	1	0	1	0
163	969	10	10000	1	1	0	1	0
172	970	10	10000	1	1	0	1	0
176	971	10	10000	1	1	0	1	0
175	972	10	10000	1	1	0	1	0
168	973	10	10000	1	1	0	1	0
162	974	10	10000	1	1	0	1	0
160	975	10	10000	1	1	0	1	0
159	976	10	10000	1	1	0	1	0
154	977	10	10000	1	1	0	1	0
151	978	10	10000	1	1	0	1	0
148	979	10	10000	1	1	0	1	0
144	980	10	10000	1	1	0	1	0
147	981	10	10000	1	1	0	1	0
156	982	10	10000	1	1	0	1	0
163	983	10	10000	1	1	0	1	0
162	984	10	10000	1	1	0	1	0
156	985	10	10000	1	1	0	1	0
149	986	10	10000	1	1	0	1	0
144	987	10	10000	1	1	0	1	0
140	988	10	10000	1	1	0	1	0
148	989	10	10000	1	1	0	1	0
160	990	10	10000	1	1	0	1	0
165	991	10	10000	1	1	0	1	0
162	992	10	10000	1	1	0	1	0
162	993	10	10000	1	1	0	1	0
167	994	10	10000	1	1	0	1	0
164	995	10	10000	1	1	0	1	0
162	996	10	10000	1	1	0	1	0
157	997	10	10000	1	1	0	1	0
162	998	10	10000	1	1	0	1	0
171	999	10	10000	1	1	0	1	0
174	1000	10	10000	1	1	0	1	0
171	1001	10	10000	1	1	0	1	0
99	1	1	10000	2	1	0	2	0
103	2	1	10000	2	1	0	2	0
103	3	1	10000	2	1	0	2	0
99	4	1	10000	2	1	0	2	0
95	5	1	10000	2	1	0	2	0
95	6	1	10000	2	1	0	2	0
94	7	1	10000	2	1	0	2	0
91	8	1	10000	2	1	0	2	0
88	9	1	10000	2	1	0	2	0
85	10	1	10000	2	1	0	2	0
85	11	1	10000	2	1	0	2	0
84	12	1	10000	2	1	0	2	0
83	13	1	10000	2	1	0	2	0
83	14	1	10000	2	1	0	2	0
88	15	1	10000	2	1	0	2	0
93	16	1	10000	2	1	0	2	0
94	17	1	10000	2	1	0	2	0
91	18	1	10000	2	1	0	2	0
91	19	1	10000	2	1	0	2	0
89	20	1	10000	2	1	0	2	0
86	21	1	10000	2	1	0	2	0
85	22	1	10000	2	1	0	2	0
81	23	1	10000	2	1	0	2	0
78	24	1	10000	2	1	0	2	0
78	25	1	10000	2	1	0	2	0
78	26	1	10000	2	1	0	2	0
77	27	1	10000	2	1	0	2	0
75	28	1	10000	2	1	0	2	0
76	29	1	10000	2	1	0	2	0
75	30	1	10000	2	1	0	2	0
78	31	1	10000	2	1	0	2	0
80	32	1	10000	2	1	0	2	0
83	33	1	10000	2	1	0	2	0
81	34	1	10000	2	1	0	2	0
80	35	1	10000	2	1	0	2	0
81	36	1	10000	2	1	0	2	0
78	37	1	10000	2	1	0	2	0
75	38	1	10000	2	1	0	2	0
71	39	1	10000	2	1	0	2	0
69	40	1	10000	2	1	0	2	0
68	41	1	10000	2	1	0	2	0
68	42	1	10000	2	1	0	2	0
68	43	1	10000	2	1	0	2	0
68	44	1	10000	2	1	0	2	0
67	45	1	10000	2	1	0	2	0
64	46	1	10000	2	1	0	2	0
62	47	1	10000	2	1	0	2	0
60	48	1	10000	2	1	0	2	0
60	49	1	10000	2	1	0	2	0
60	50	1	10000	2	1	0	2	0
65	51	1	10000	2	1	0	2	0
70	52	1	10000	2	1	0	2	0
76	53	1	10000	2	1	0	2	0
79	54	1	10000	2	1	0	2	0
80	55	1	10000	2	1	0	2	0
77	56	1	10000	2	1	0	2	0
73	57	1	10000	2	1	0	2	0
72	58	1	10000	2	1	0	2	0
71	59	1	10000	2	1	0	2	0
69	60	1	10000	2	1	0	2	0
70	61	1	10000	2	1	0	2	0
71	62	1	10000	2	1	0	2	0
69	63	1	10000	2	1	0	2	0
69	64	1	10000	2	1	0	2	0
72	65	1	10000	2	1	0	2	0
74	66	1	10000	2	1	0	2	0
72	67	1	10000	2	1	0	2	0
72	68	1	10000	2	1	0	2	0
72	69	1	10000	2	1	0	2	0
69	70	1	10000	2	1	0	2	0
67	71	1	10000	2	1	0	2	0
62	72	1	10000	2	1	0	2	0
61	73	1	10000	2	1	0	2	0
63	74	1	10000	2	1	0	2	0
66	75	1	10000	2	1	0	2	0
69	76	1	10000	2	1	0	2	0
70	77	1	10000	2	1	0	2	0
69	78	1	10000	2	1	0	2	0
67	79	1	10000	2	1	0	2	0
65	80	1	10000	2	1	0	2	0
62	81	1	10000	2	1	0	2	0
65	82	1	10000	2	1	0	2	0
66	83	1	10000	2	1	0	2	0
70	84	1	10000	2	1	0	2	0
73	85	1	10000	2	1	0	2	0
73	86	1	10000	2	1	0	2	0
72	87	1	10000	2	1	0	2	0
70	88	1	10000	2	1	0	2	0
70	89	1	10000	2	1	0	2	0
72	90	1	10000	2	1	0	2	0
81	91	1	10000	2	1	0	2	0
82	92	1	10000	2	1	0	2	0
81	93	1	10000	2	1	0	2	0
80	94	1	10000	2	1	0	2	0
78	95	1	10000	2	1	0	2	0
78	96	1	10000	2	1	0	2	0
82	97	1	10000	2	1	0	2	0
87	98	1	10000	2	1	0	2	0
88	99	1	10000	2	1	0	2	0
86	100	1	10000	2	1	0	2	0
88	101	1	10000	2	1	0	2	0
90	102	1	10000	2	1	0	2	0
87	103	1	10000	2	1	0	2	0
83	104	1	10000	2	1	0	2	0
82	105	1	10000	2	1	0	2	0
83	106	1	10000	2	1	0	2	0
80	107	1	10000	2	1	0	2	0
79	108	1	10000	2	1	0	2	0
83	109	1	10000	2	1	0	2	0
91	110	1	10000	2	1	0	2	0
95	111	1	10000	2	1	0	2	0
92	112	1	10000	2	1	0	2	0
92	113	1	10000	2	1	0	2	0
92	114	1	10000	2	1	0	2	0
94	115	1	10000	2	1	0	2	0
93	116	1	10000	2	1	0	2	0
92	117	1	10000	2	1	0	2	0
91	118	1	10000	2	1	0	2	0
89	119	1	10000	2	1	0	2	0
85	120	1	10000	2	1	0	2	0
83	121	1	10000	2	1	0	2	0
84	122	1	10000	2	1	0	2	0
80	123	1	10000	2	1	0	2	0
78	124	1	10000	2	1	0	2	0
75	125	1	10000	2	1	0	2	0
75	126	1	10000	2	1	0	2	0
77	127	1	10000	2	1	0	2	0
78	128	1	10000	2	1	0	2	0
77	129	1	10000	2	1	0	2	0
74	130	1	10000	2	1	0	2	0
71	131	1	10000	2	1	0	2	0
66	132	1	10000	2	1	0	2	0
64	133	1	10000	2	1	0	2	0
63	134	1	10000	2	1	0	2	0
69	135	1	10000	2	1	0	2	0
73	136	1	10000	2	1	0	2	0
73	137	1	10000	2	1	0	2	0
76	138	1	10000	2	1	0	2	0
80	139	1	10000	2	1	0	2	0
87	140	1	10000	2	1	0	2	0
92	141	1	10000	2	1	0	2	0
97	142	1	10000	2	1	0	2	0
95	143	1	10000	2	1	0	2	0
92	144	1	10000	2	1	0	2	0
90	145	1	10000	2	1	0	2	0
88	146	1	10000	2	1	0	2	0
88	147	1	10000	2	1	0	2	0
92	148	1	10000	2	1	0	2	0
91	149	1	10000	2	1	0	2	0
88	150	1	10000	2	1	0	2	0
88	151	1	10000	2	1	0	2	0
82	152	1	10000	2	1	0	2	0
82	153	1	10000	2	1	0	2	0
87	154	1	10000	2	1	0	2	0
89	155	1	10000	2	1	0	2	0
87	156	1	10000	2	1	0	2	0
88	157	1	10000	2	1	0	2	0
88	158	1	10000	2	1	0	2	0
85	159	1	10000	2	1	0	2	0
81	160	1	10000	2	1	0	2	0
77	161	1	10000	2	1	0	2	0
77	162	1	10000	2	1	0	2	0
78	163	1	10000	2	1	0	2	0
85	164	1	10000	2	1	0	2	0
93	165	1	10000	2	1	0	2	0
97	166	1	10000	2	1	0	2	0
94	167	1	10000	2	1	0	2	0
96	168	1	10000	2	1	0	2	0
98	169	1	10000	2	1	0	2	0
98	170	1	10000	2	1	0	2	0
96	171	1	10000	2	1	0	2	0
94	172	1	10000	2	1	0	2	0
93	173	1	10000	2	1	0	2	0
90	174	1	10000	2	1	0	2	0
88	175	1	10000	2	1	0	2	0
86	176	1	10000	2	1	0	2	0
83	177	1	10000	2	1	0	2	0
80	178	1	10000	2	1	0	2	0
78	179	1	10000	2	1	0	2	0
75	180	1	10000	2	1	0	2	0
73	181	1	10000	2	1	0	2	0
72	182	1	10000	2	1	0	2	0
69	183	1	10000	2	1	0	2	0
69	184	1	10000	2	1	0	2	0
70	185	1	10000	2	1	0	2	0
70	186	1	10000	2	1	0	2	0
68	187	1	10000	2	1	0	2	0
70	188	1	10000	2	1	0	2	0
73	189	1	10000	2	1	0	2	0
72	190	1	10000	2	1	0	2	0
70	191	1	10000	2	1	0	2	0
67	192	1	10000	2	1	0	2	0
65	193	1	10000	2	1	0	2	0
67	194	1	10000	2	1	0	2	0
68	195	1	10000	2	1	0	2	0
67	196	1	10000	2	1	0	2	0
71	197	1	10000	2	1	0	2	0
77	198	1	10000	2	1	0	2	0
80	199	1	10000	2	1	0	2	0
78	200	1	10000	2	1	0	2	0
79	201	1	10000	2	1	0	2	0
83	202	1	10000	2	1	0	2	0
84	203	1	10000	2	1	0	2	0
83	204	1	10000	2	1	0	2	0
80	205	1	10000	2	1	0	2	0
78	206	1	10000	2	1	0	2	0
77	207	1	10000	2	1	0	2	0
80	208	1	10000	2	1	0	2	0
91	209	1	10000	2	1	0	2	0
99	210	1	10000	2	1	0	2	0
97	211	1	10000	2	1	0	2	0
97	212	1	10000	2	1	0	2	0
104	213	1	10000	2	1	0	2	0
110	214	1	10000	2	1	0	2	0
107	215	1	10000	2	1	0	2	0
105	216	1	10000	2	1	0	2	0
101	217	1	10000	2	1	0	2	0
96	218	1	10000	2	1	0	2	0
92	219	1	10000	2	1	0	2	0
91	220	1	10000	2	1	0	2	0
96	221	1	10000	2	1	0	2	0
102	222	1	10000	2	1	0	2	0
104	223	1	10000	2	1	0	2	0
104	224	1	10000	2	1	0	2	0
103	225	1	10000	2	1	0	2	0
99	226	1	10000	2	1	0	2	0
98	227	1	10000	2	1	0	2	0
99	228	1	10000	2	1	0	2	0
104	229	1	10000	2	1	0	2	0
102	230	1	10000	2	1	0	2	0
99	231	1	10000	2	1	0	2	0
98	232	1	10000	2	1	0	2	0
102	233	1	10000	2	1	0	2	0
108	234	1	10000	2	1	0	2	0
106	235	1	10000	2	1	0	2	0
103	236	1	10000	2	1	0	2	0
98	237	1	10000	2	1	0	2	0
95	238	1	10000	2	1	0	2	0
95	239	1	10000	2	1	0	2	0
99	240	1	10000	2	1	0	2	0
104	241	1	10000	2	1	0	2	0
110	242	1	10000	2	1	0	2	0
106	243	1	10000	2	1	0	2	0
104	244	1	10000	2	1	0	2	0
103	245	1	10000	2	1	0	2	0
99	246	1	10000	2	1	0	2	0
97	247	1	10000	2	1	0	2	0
98	248	1	10000	2	1	0	2	0
102	249	1	10000	2	1	0	2	0
102	250	1	10000	2	1	0	2	0
98	251	1	10000	2	1	0	2	0
93	252	1	10000	2	1	0	2	0
93	253	1	10000	2	1	0	2	0
91	254	1	10000	2	1	0	2	0
92	255	1	10000	2	1	0	2	0
96	256	1	10000	2	1	0	2	0
99	257	1	10000	2	1	0	2	0
96	258	1	10000	2	1	0	2	0
94	259	1	10000	2	1	0	2	0
96	260	1	10000	2	1	0	2	0
98	261	1	10000	2	1	0	2	0
96	262	1	10000	2	1	0	2	0
94	263	1	10000	2	1	0	2	0
95	264	1	10000	2	1	0	2	0
93	265	1	10000	2	1	0	2	0
92	266	1	10000	2	1	0	2	0
89	267	1	10000	2	1	0	2	0
90	268	1	10000	2	1	0	2	0
92	269	1	10000	2	1	0	2	0
91	270	1	10000	2	1	0	2	0
93	271	1	10000	2	1	0	2	0
90	272	1	10000	2	1	0	2	0
90	273	1	10000	2	1	0	2	0
90	274	1	10000	2	1	0	2	0
96	275	1	10000	2	1	0	2	0
103	276	1	10000	2	1	0	2	0
106	277	1	10000	2	1	0	2	0
109	278	1	10000	2	1	0	2	0
113	279	1	10000	2	1	0	2	0
111	280	1	10000	2	1	0	2	0
113	281	1	10000	2	1	0	2	0
125	282	1	10000	2	1	0	2	0
133	283	1	10000	2	1	0	2	0
131	284	1	10000	2	1	0	2	0
127	285	1	10000	2	1	0	2	0
126	286	1	10000	2	1	0	2	0
124	287	1	10000	2	1	0	2	0
123	288	1	10000	2	1	0	2	0
128	289	1	10000	2	1	0	2	0
149	290	1	10000	2	1	0	2	0
152	291	1	10000	2	1	0	2	0
148	292	1	10000	2	1	0	2	0
150	293	1	10000	2	1	0	2	0
150	294	1	10000	2	1	0	2	0
145	295	1	10000	2	1	0	2	0
142	296	1	10000	2	1	0	2	0
142	297	1	10000	2	1	0	2	0
146	298	1	10000	2	1	0	2	0
147	299	1	10000	2	1	0	2	0
143	300	1	10000	2	1	0	2	0
138	301	1	10000	2	1	0	2	0
135	302	1	10000	2	1	0	2	0
131	303	1	10000	2	1	0	2	0
127	304	1	10000	2	1	0	2	0
122	305	1	10000	2	1	0	2	0
118	306	1	10000	2	1	0	2	0
120	307	1	10000	2	1	0	2	0
123	308	1	10000	2	1	0	2	0
123	309	1	10000	2	1	0	2	0
119	310	1	10000	2	1	0	2	0
116	311	1	10000	2	1	0	2	0
115	312	1	10000	2	1	0	2	0
112	313	1	10000	2	1	0	2	0
108	314	1	10000	2	1	0	2	0
104	315	1	10000	2	1	0	2	0
100	316	1	10000	2	1	0	2	0
96	317	1	10000	2	1	0	2	0
93	318	1	10000	2	1	0	2	0
93	319	1	10000	2	1	0	2	0
100	320	1	10000	2	1	0	2	0
108	321	1	10000	2	1	0	2	0
114	322	1	10000	2	1	0	2	0
114	323	1	10000	2	1	0	2	0
110	324	1	10000	2	1	0	2	0
108	325	1	10000	2	1	0	2	0
110	326	1	10000	2	1	0	2	0
108	327	1	10000	2	1	0	2	0
105	328	1	10000	2	1	0	2	0
109	329	1	10000	2	1	0	2	0
112	330	1	10000	2	1	0	2	0
108	331	1	10000	2	1	0	2	0
103	332	1	10000	2	1	0	2	0
99	333	1	10000	2	1	0	2	0
95	334	1	10000	2	1	0	2	0
92	335	1	10000	2	1	0	2	0
91	336	1	10000	2	1	0	2	0
94	337	1	10000	2	1	0	2	0
100	338	1	10000	2	1	0	2	0
104	339	1	10000	2	1	0	2	0
108	340	1	10000	2	1	0	2	0
106	341	1	10000	2	1	0	2	0
108	342	1	10000	2	1	0	2	0
107	343	1	10000	2	1	0	2	0
105	344	1	10000	2	1	0	2	0
108	345	1	10000	2	1	0	2	0
106	346	1	10000	2	1	0	2	0
106	347	1	10000	2	1	0	2	0
110	348	1	10000	2	1	0	2	0
113	349	1	10000	2	1	0	2	0
113	350	1	10000	2	1	0	2	0
116	351	1	10000	2	1	0	2	0
120	352	1	10000	2	1	0	2	0
122	353	1	10000	2	1	0	2	0
119	354	1	10000	2	1	0	2	0
114	355	1	10000	2	1	0	2	0
112	356	1	10000	2	1	0	2	0
110	357	1	10000	2	1	0	2	0
107	358	1	10000	2	1	0	2	0
103	359	1	10000	2	1	0	2	0
98	360	1	10000	2	1	0	2	0
95	361	1	10000	2	1	0	2	0
100	362	1	10000	2	1	0	2	0
107	363	1	10000	2	1	0	2	0
114	364	1	10000	2	1	0	2	0
121	365	1	10000	2	1	0	2	0
123	366	1	10000	2	1	0	2	0
120	367	1	10000	2	1	0	2	0
116	368	1	10000	2	1	0	2	0
113	369	1	10000	2	1	0	2	0
110	370	1	10000	2	1	0	2	0
106	371	1	10000	2	1	0	2	0
100	372	1	10000	2	1	0	2	0
99	373	1	10000	2	1	0	2	0
96	374	1	10000	2	1	0	2	0
94	375	1	10000	2	1	0	2	0
97	376	1	10000	2	1	0	2	0
98	377	1	10000	2	1	0	2	0
95	378	1	10000	2	1	0	2	0
91	379	1	10000	2	1	0	2	0
91	380	1	10000	2	1	0	2	0
89	381	1	10000	2	1	0	2	0
90	382	1	10000	2	1	0	2	0
89	383	1	10000	2	1	0	2	0
92	384	1	10000	2	1	0	2	0
92	385	1	10000	2	1	0	2	0
91	386	1	10000	2	1	0	2	0
89	387	1	10000	2	1	0	2	0
85	388	1	10000	2	1	0	2	0
82	389	1	10000	2	1	0	2	0
80	390	1	10000	2	1	0	2	0
77	391	1	10000	2	1	0	2	0
73	392	1	10000	2	1	0	2	0
73	393	1	10000	2	1	0	2	0
75	394	1	10000	2	1	0	2	0
76	395	1	10000	2	1	0	2	0
73	396	1	10000	2	1	0	2	0
71	397	1	10000	2	1	0	2	0
70	398	1	10000	2	1	0	2	0
68	399	1	10000	2	1	0	2	0
68	400	1	10000	2	1	0	2	0
67	401	1	10000	2	1	0	2	0
68	402	1	10000	2	1	0	2	0
67	403	1	10000	2	1	0	2	0
66	404	1	10000	2	1	0	2	0
64	405	1	10000	2	1	0	2	0
62	406	1	10000	2	1	0	2	0
59	407	1	10000	2	1	0	2	0
59	408	1	10000	2	1	0	2	0
59	409	1	10000	2	1	0	2	0
59	410	1	10000	2	1	0	2	0
62	411	1	10000	2	1	0	2	0
61	412	1	10000	2	1	0	2	0
60	413	1	10000	2	1	0	2	0
58	414	1	10000	2	1	0	2	0
57	415	1	10000	2	1	0	2	0
56	416	1	10000	2	1	0	2	0
55	417	1	10000	2	1	0	2	0
56	418	1	10000	2	1	0	2	0
56	419	1	10000	2	1	0	2	0
55	420	1	10000	2	1	0	2	0
53	421	1	10000	2	1	0	2	0
56	422	1	10000	2	1	0	2	0
55	423	1	10000	2	1	0	2	0
55	424	1	10000	2	1	0	2	0
57	425	1	10000	2	1	0	2	0
62	426	1	10000	2	1	0	2	0
68	427	1	10000	2	1	0	2	0
73	428	1	10000	2	1	0	2	0
74	429	1	10000	2	1	0	2	0
84	430	1	10000	2	1	0	2	0
99	431	1	10000	2	1	0	2	0
101	432	1	10000	2	1	0	2	0
98	433	1	10000	2	1	0	2	0
100	434	1	10000	2	1	0	2	0
103	435	1	10000	2	1	0	2	0
104	436	1	10000	2	1	0	2	0
101	437	1	10000	2	1	0	2	0
96	438	1	10000	2	1	0	2	0
93	439	1	10000	2	1	0	2	0
88	440	1	10000	2	1	0	2	0
84	441	1	10000	2	1	0	2	0
84	442	1	10000	2	1	0	2	0
80	443	1	10000	2	1	0	2	0
77	444	1	10000	2	1	0	2	0
81	445	1	10000	2	1	0	2	0
85	446	1	10000	2	1	0	2	0
85	447	1	10000	2	1	0	2	0
81	448	1	10000	2	1	0	2	0
78	449	1	10000	2	1	0	2	0
77	450	1	10000	2	1	0	2	0
76	451	1	10000	2	1	0	2	0
73	452	1	10000	2	1	0	2	0
70	453	1	10000	2	1	0	2	0
71	454	1	10000	2	1	0	2	0
70	455	1	10000	2	1	0	2	0
72	456	1	10000	2	1	0	2	0
70	457	1	10000	2	1	0	2	0
70	458	1	10000	2	1	0	2	0
69	459	1	10000	2	1	0	2	0
71	460	1	10000	2	1	0	2	0
70	470	1	10000	2	1	0	2	0
81	471	1	10000	2	1	0	2	0
92	472	1	10000	2	1	0	2	0
93	473	1	10000	2	1	0	2	0
90	474	1	10000	2	1	0	2	0
86	475	1	10000	2	1	0	2	0
88	476	1	10000	2	1	0	2	0
90	477	1	10000	2	1	0	2	0
89	478	1	10000	2	1	0	2	0
89	479	1	10000	2	1	0	2	0
94	477	1	10000	2	1	0	2	0
94	478	1	10000	2	1	0	2	0
96	479	1	10000	2	1	0	2	0
94	480	1	10000	2	1	0	2	0
93	481	1	10000	2	1	0	2	0
93	482	1	10000	2	1	0	2	0
92	483	1	10000	2	1	0	2	0
90	484	1	10000	2	1	0	2	0
92	483	1	10000	2	1	0	2	0
93	484	1	10000	2	1	0	2	0
91	485	1	10000	2	1	0	2	0
90	486	1	10000	2	1	0	2	0
86	487	1	10000	2	1	0	2	0
83	488	1	10000	2	1	0	2	0
79	493	1	10000	2	1	0	2	0
79	494	1	10000	2	1	0	2	0
81	495	1	10000	2	1	0	2	0
78	496	1	10000	2	1	0	2	0
76	497	1	10000	2	1	0	2	0
76	498	1	10000	2	1	0	2	0
77	499	1	10000	2	1	0	2	0
72	500	1	10000	2	1	0	2	0
71	501	1	10000	2	1	0	2	0
71	502	1	10000	2	1	0	2	0
70	499	1	10000	2	1	0	2	0
70	500	1	10000	2	1	0	2	0
75	501	1	10000	2	1	0	2	0
81	502	1	10000	2	1	0	2	0
86	503	1	10000	2	1	0	2	0
87	504	1	10000	2	1	0	2	0
84	503	1	10000	2	1	0	2	0
90	504	1	10000	2	1	0	2	0
92	505	1	10000	2	1	0	2	0
91	506	1	10000	2	1	0	2	0
88	508	1	10000	2	1	0	2	1
88	509	1	10000	2	1	0	2	1
88	510	1	10000	2	1	0	2	1
86	511	1	10000	2	1	0	2	1
84	512	1	10000	2	1	0	2	1
81	513	1	10000	2	1	0	2	1
80	515	1	10000	2	1	0	2	1
79	516	1	10000	2	1	0	2	1
79	517	1	10000	2	1	0	2	1
77	518	1	10000	2	1	0	2	1
74	519	1	10000	2	1	0	2	1
76	520	1	10000	2	1	0	2	1
78	519	1	10000	2	1	0	2	1
78	520	1	10000	2	1	0	2	1
74	521	1	10000	2	1	0	2	1
71	522	1	10000	2	1	0	2	1
70	526	1	10000	2	1	0	2	1
73	527	1	10000	2	1	0	2	1
71	528	1	10000	2	1	0	2	1
72	529	1	10000	2	1	0	2	1
73	530	1	10000	2	1	0	2	1
73	531	1	10000	2	1	0	2	1
79	530	1	10000	2	1	0	2	1
86	531	1	10000	2	1	0	2	1
92	532	1	10000	2	1	0	2	1
95	533	1	10000	2	1	0	2	1
92	537	1	10000	2	1	0	2	1
90	538	1	10000	2	1	0	2	1
91	539	1	10000	2	1	0	2	1
92	540	1	10000	2	1	0	2	1
95	541	1	10000	2	1	0	2	1
94	542	1	10000	2	1	0	2	1
92	543	1	10000	2	1	0	2	1
91	544	1	10000	2	1	0	2	1
92	541	1	10000	2	1	0	2	1
89	542	1	10000	2	1	0	2	1
88	543	1	10000	2	1	0	2	1
92	544	1	10000	2	1	0	2	1
90	548	1	10000	2	1	0	2	1
90	549	1	10000	2	1	0	2	1
88	550	1	10000	2	1	0	2	1
86	551	1	10000	2	1	0	2	1
83	552	1	10000	2	1	0	2	1
81	553	1	10000	2	1	0	2	1
80	553	1	10000	2	1	0	2	1
79	554	1	10000	2	1	0	2	1
81	555	1	10000	2	1	0	2	1
78	556	1	10000	2	1	0	2	1
75	557	1	10000	2	1	0	2	1
72	558	1	10000	2	1	0	2	1
72	559	1	10000	2	1	0	2	0
71	560	1	10000	2	1	0	2	0
76	561	1	10000	2	1	0	2	0
84	562	1	10000	2	1	0	2	0
86	563	1	10000	2	1	0	2	0
84	564	1	10000	2	1	0	2	0
88	564	1	10000	2	1	0	2	0
92	565	1	10000	2	1	0	2	0
92	566	1	10000	2	1	0	2	0
93	567	1	10000	2	1	0	2	0
101	569	1	10000	2	1	0	2	0
101	570	1	10000	2	1	0	2	0
99	571	1	10000	2	1	0	2	0
105	572	1	10000	2	1	0	2	0
110	573	1	10000	2	1	0	2	0
113	574	1	10000	2	1	0	2	0
111	571	1	10000	2	1	0	2	0
105	572	1	10000	2	1	0	2	0
103	573	1	10000	2	1	0	2	0
101	574	1	10000	2	1	0	2	0
97	575	1	10000	2	1	0	2	0
96	576	1	10000	2	1	0	2	0
94	577	1	10000	2	1	0	2	0
92	578	1	10000	2	1	0	2	0
95	579	1	10000	2	1	0	2	0
102	580	1	10000	2	1	0	2	0
108	581	1	10000	2	1	0	2	0
113	582	1	10000	2	1	0	2	0
110	583	1	10000	2	1	0	2	0
117	584	1	10000	2	1	0	2	0
125	585	1	10000	2	1	0	2	0
127	586	1	10000	2	1	0	2	0
124	587	1	10000	2	1	0	2	0
120	588	1	10000	2	1	0	2	0
116	589	1	10000	2	1	0	2	0
113	590	1	10000	2	1	0	2	0
112	591	1	10000	2	1	0	2	0
109	592	1	10000	2	1	0	2	0
109	593	1	10000	2	1	0	2	0
107	594	1	10000	2	1	0	2	0
115	595	1	10000	2	1	0	2	0
122	596	1	10000	2	1	0	2	0
134	597	1	10000	2	1	0	2	0
143	598	1	10000	2	1	0	2	0
137	599	1	10000	2	1	0	2	0
133	600	1	10000	2	1	0	2	0
128	601	1	10000	2	1	0	2	0
128	602	1	10000	2	1	0	2	0
133	603	1	10000	2	1	0	2	0
140	604	1	10000	2	1	0	2	0
136	605	1	10000	2	1	0	2	0
138	606	1	10000	2	1	0	2	0
154	607	1	10000	2	1	0	2	0
170	608	1	10000	2	1	0	2	0
174	609	1	10000	2	1	0	2	0
205	610	1	10000	2	1	0	2	0
230	611	1	10000	2	1	0	2	0
224	612	1	10000	2	1	0	2	0
229	613	1	10000	2	1	0	2	0
226	614	1	10000	2	1	0	2	0
229	615	1	10000	2	1	0	2	0
238	616	1	10000	2	1	0	2	0
238	617	1	10000	2	1	0	2	0
231	618	1	10000	2	1	0	2	0
222	619	1	10000	2	1	0	2	0
230	620	1	10000	2	1	0	2	0
252	621	1	10000	2	1	0	2	0
253	622	1	10000	2	1	0	2	0
280	623	1	10000	2	1	0	2	0
315	624	1	10000	2	1	0	2	0
315	625	1	10000	2	1	0	2	0
307	626	1	10000	2	1	0	2	0
309	627	1	10000	2	1	0	2	0
321	628	1	10000	2	1	0	2	0
357	629	1	10000	2	1	0	2	0
366	630	1	10000	2	1	0	2	0
357	631	1	10000	2	1	0	2	0
351	632	1	10000	2	1	0	2	0
342	633	1	10000	2	1	0	2	0
335	634	1	10000	2	1	0	2	0
334	635	1	10000	2	1	0	2	0
333	636	1	10000	2	1	0	2	0
327	637	1	10000	2	1	0	2	0
313	638	1	10000	2	1	0	2	0
300	639	1	10000	2	1	0	2	0
291	640	1	10000	2	1	0	2	0
282	641	1	10000	2	1	0	2	0
278	642	1	10000	2	1	0	2	0
271	643	1	10000	2	1	0	2	0
262	644	1	10000	2	1	0	2	0
250	645	1	10000	2	1	0	2	0
239	646	1	10000	2	1	0	2	0
228	647	1	10000	2	1	0	2	0
219	648	1	10000	2	1	0	2	0
211	649	1	10000	2	1	0	2	0
211	650	1	10000	2	1	0	2	0
209	651	1	10000	2	1	0	2	0
200	652	1	10000	2	1	0	2	0
195	653	1	10000	2	1	0	2	0
189	654	1	10000	2	1	0	2	0
183	655	1	10000	2	1	0	2	0
179	656	1	10000	2	1	0	2	0
176	657	1	10000	2	1	0	2	0
174	658	1	10000	2	1	0	2	0
172	659	1	10000	2	1	0	2	0
170	660	1	10000	2	1	0	2	0
168	661	1	10000	2	1	0	2	0
172	662	1	10000	2	1	0	2	0
174	663	1	10000	2	1	0	2	0
176	664	1	10000	2	1	0	2	0
178	665	1	10000	2	1	0	2	0
181	666	1	10000	2	1	0	2	0
185	667	1	10000	2	1	0	2	0
192	668	1	10000	2	1	0	2	0
198	669	1	10000	2	1	0	2	0
200	670	1	10000	2	1	0	2	0
198	671	1	10000	2	1	0	2	0
191	672	1	10000	2	1	0	2	0
183	673	1	10000	2	1	0	2	0
177	674	1	10000	2	1	0	2	0
176	675	1	10000	2	1	0	2	0
176	676	1	10000	2	1	0	2	0
170	677	1	10000	2	1	0	2	0
168	678	1	10000	2	1	0	2	0
168	679	1	10000	2	1	0	2	0
169	680	1	10000	2	1	0	2	0
167	681	1	10000	2	1	0	2	0
164	682	1	10000	2	1	0	2	0
161	683	1	10000	2	1	0	2	0
161	684	1	10000	2	1	0	2	0
160	685	1	10000	2	1	0	2	0
158	686	1	10000	2	1	0	2	0
155	687	1	10000	2	1	0	2	0
150	688	1	10000	2	1	0	2	0
149	689	1	10000	2	1	0	2	0
156	690	1	10000	2	1	0	2	0
165	691	1	10000	2	1	0	2	0
171	692	1	10000	2	1	0	2	0
175	693	1	10000	2	1	0	2	0
172	694	1	10000	2	1	0	2	0
165	695	1	10000	2	1	0	2	0
159	696	1	10000	2	1	0	2	0
153	697	1	10000	2	1	0	2	0
146	698	1	10000	2	1	0	2	0
140	699	1	10000	2	1	0	2	0
133	700	1	10000	2	1	0	2	0
128	701	1	10000	2	1	0	2	0
129	702	1	10000	2	1	0	2	0
131	703	1	10000	2	1	0	2	0
127	704	1	10000	2	1	0	2	0
125	705	1	10000	2	1	0	2	0
124	706	1	10000	2	1	0	2	0
126	707	1	10000	2	1	0	2	0
127	708	1	10000	2	1	0	2	0
125	709	1	10000	2	1	0	2	0
120	710	1	10000	2	1	0	2	0
117	711	1	10000	2	1	0	2	0
112	712	1	10000	2	1	0	2	0
113	713	1	10000	2	1	0	2	0
119	714	1	10000	2	1	0	2	0
128	715	1	10000	2	1	0	2	0
129	716	1	10000	2	1	0	2	0
129	717	1	10000	2	1	0	2	0
127	718	1	10000	2	1	0	2	0
121	719	1	10000	2	1	0	2	0
116	720	1	10000	2	1	0	2	0
113	721	1	10000	2	1	0	2	0
119	722	1	10000	2	1	0	2	0
128	723	1	10000	2	1	0	2	0
136	724	1	10000	2	1	0	2	0
140	725	1	10000	2	1	0	2	0
137	726	1	10000	2	1	0	2	0
138	727	1	10000	2	1	0	2	0
141	728	1	10000	2	1	0	2	0
145	729	1	10000	2	1	0	2	0
144	730	1	10000	2	1	0	2	0
140	731	1	10000	2	1	0	2	0
137	732	1	10000	2	1	0	2	0
141	733	1	10000	2	1	0	2	0
140	734	1	10000	2	1	0	2	0
149	735	1	10000	2	1	0	2	0
153	736	1	10000	2	1	0	2	0
156	737	1	10000	2	1	0	2	0
160	738	1	10000	2	1	0	2	0
153	739	1	10000	2	1	0	2	0
154	740	1	10000	2	1	0	2	0
162	741	1	10000	2	1	0	2	0
178	742	1	10000	2	1	0	2	0
184	743	1	10000	2	1	0	2	0
178	744	1	10000	2	1	0	2	0
179	745	1	10000	2	1	0	2	0
184	746	1	10000	2	1	0	2	0
189	747	1	10000	2	1	0	2	0
185	748	1	10000	2	1	0	2	0
190	749	1	10000	2	1	0	2	0
198	750	1	10000	2	1	0	2	0
204	751	1	10000	2	1	0	2	0
201	752	1	10000	2	1	0	2	0
211	753	1	10000	2	1	0	2	0
242	754	1	10000	2	1	0	2	0
255	755	1	10000	2	1	0	2	0
250	756	1	10000	2	1	0	2	0
255	757	1	10000	2	1	0	2	0
269	758	1	10000	2	1	0	2	0
279	759	1	10000	2	1	0	2	0
295	760	1	10000	2	1	0	2	0
289	761	1	10000	2	1	0	2	0
287	762	1	10000	2	1	0	2	0
281	763	1	10000	2	1	0	2	0
275	764	1	10000	2	1	0	2	0
280	765	1	10000	2	1	0	2	0
282	766	1	10000	2	1	0	2	0
276	767	1	10000	2	1	0	2	0
289	768	1	10000	2	1	0	2	0
296	769	1	10000	2	1	0	2	0
290	770	1	10000	2	1	0	2	0
288	771	1	10000	2	1	0	2	0
297	772	1	10000	2	1	0	2	0
313	773	1	10000	2	1	0	2	0
328	774	1	10000	2	1	0	2	0
339	775	1	10000	2	1	0	2	0
358	776	1	10000	2	1	0	2	0
395	777	1	10000	2	1	0	2	0
413	778	1	10000	2	1	0	2	0
401	779	1	10000	2	1	0	2	0
397	780	1	10000	2	1	0	2	0
389	781	1	10000	2	1	0	2	0
374	782	1	10000	2	1	0	2	0
363	783	1	10000	2	1	0	2	0
363	784	1	10000	2	1	0	2	0
365	785	1	10000	2	1	0	2	0
366	786	1	10000	2	1	0	2	0
368	787	1	10000	2	1	0	2	0
368	788	1	10000	2	1	0	2	0
362	789	1	10000	2	1	0	2	0
357	790	1	10000	2	1	0	2	0
346	791	1	10000	2	1	0	2	0
337	792	1	10000	2	1	0	2	0
326	793	1	10000	2	1	0	2	0
326	794	1	10000	2	1	0	2	0
322	795	1	10000	2	1	0	2	0
314	796	1	10000	2	1	0	2	0
308	797	1	10000	2	1	0	2	0
296	798	1	10000	2	1	0	2	0
287	799	1	10000	2	1	0	2	0
285	800	1	10000	2	1	0	2	0
285	801	1	10000	2	1	0	2	0
283	802	1	10000	2	1	0	2	0
273	803	1	10000	2	1	0	2	0
262	804	1	10000	2	1	0	2	0
250	805	1	10000	2	1	0	2	0
240	806	1	10000	2	1	0	2	0
233	807	1	10000	2	1	0	2	0
226	808	1	10000	2	1	0	2	0
219	809	1	10000	2	1	0	2	0
211	810	1	10000	2	1	0	2	0
218	811	1	10000	2	1	0	2	0
237	812	1	10000	2	1	0	2	0
246	813	1	10000	2	1	0	2	0
239	814	1	10000	2	1	0	2	0
230	815	1	10000	2	1	0	2	0
220	816	1	10000	2	1	0	2	0
213	817	1	10000	2	1	0	2	0
212	818	1	10000	2	1	0	2	0
210	819	1	10000	2	1	0	2	0
205	820	1	10000	2	1	0	2	0
195	821	1	10000	2	1	0	2	0
191	822	1	10000	2	1	0	2	0
188	823	1	10000	2	1	0	2	0
182	824	1	10000	2	1	0	2	0
180	825	1	10000	2	1	0	2	0
185	826	1	10000	2	1	0	2	0
192	827	1	10000	2	1	0	2	0
191	828	1	10000	2	1	0	2	0
193	829	1	10000	2	1	0	2	0
194	830	1	10000	2	1	0	2	0
198	831	1	10000	2	1	0	2	0
198	832	1	10000	2	1	0	2	0
195	833	1	10000	2	1	0	2	0
193	834	1	10000	2	1	0	2	0
192	835	1	10000	2	1	0	2	0
193	836	1	10000	2	1	0	2	0
188	837	1	10000	2	1	0	2	0
185	838	1	10000	2	1	0	2	0
185	839	1	10000	2	1	0	2	0
180	840	1	10000	2	1	0	2	0
173	841	1	10000	2	1	0	2	0
169	842	1	10000	2	1	0	2	0
165	843	1	10000	2	1	0	2	0
163	844	1	10000	2	1	0	2	0
159	845	1	10000	2	1	0	2	0
156	846	1	10000	2	1	0	2	0
150	847	1	10000	2	1	0	2	0
147	848	1	10000	2	1	0	2	0
145	849	1	10000	2	1	0	2	0
141	850	1	10000	2	1	0	2	0
139	851	1	10000	2	1	0	2	0
134	852	1	10000	2	1	0	2	0
131	853	1	10000	2	1	0	2	0
127	854	1	10000	2	1	0	2	0
136	855	1	10000	2	1	0	2	0
152	856	1	10000	2	1	0	2	0
157	857	1	10000	2	1	0	2	0
160	858	1	10000	2	1	0	2	0
165	859	1	10000	2	1	0	2	0
161	860	1	10000	2	1	0	2	0
154	861	1	10000	2	1	0	2	0
155	862	1	10000	2	1	0	2	0
158	863	1	10000	2	1	0	2	0
156	864	1	10000	2	1	0	2	0
151	865	1	10000	2	1	0	2	0
146	866	1	10000	2	1	0	2	0
140	867	1	10000	2	1	0	2	0
137	868	1	10000	2	1	0	2	0
135	869	1	10000	2	1	0	2	0
130	870	1	10000	2	1	0	2	0
125	871	1	10000	2	1	0	2	0
119	872	1	10000	2	1	0	2	0
128	873	1	10000	2	1	0	2	0
141	874	1	10000	2	1	0	2	0
150	875	1	10000	2	1	0	2	0
147	876	1	10000	2	1	0	2	0
151	877	1	10000	2	1	0	2	0
161	878	1	10000	2	1	0	2	0
180	879	1	10000	2	1	0	2	0
195	880	1	10000	2	1	0	2	0
191	881	1	10000	2	1	0	2	0
201	882	1	10000	2	1	0	2	0
215	883	1	10000	2	1	0	2	0
226	884	1	10000	2	1	0	2	0
230	885	1	10000	2	1	0	2	0
228	886	1	10000	2	1	0	2	0
220	887	1	10000	2	1	0	2	0
211	888	1	10000	2	1	0	2	0
205	889	1	10000	2	1	0	2	0
199	890	1	10000	2	1	0	2	0
191	891	1	10000	2	1	0	2	0
183	892	1	10000	2	1	0	2	0
177	893	1	10000	2	1	0	2	0
170	894	1	10000	2	1	0	2	0
166	895	1	10000	2	1	0	2	0
164	896	1	10000	2	1	0	2	0
172	897	1	10000	2	1	0	2	0
174	898	1	10000	2	1	0	2	0
169	899	1	10000	2	1	0	2	0
180	900	1	10000	2	1	0	2	0
200	901	1	10000	2	1	0	2	0
207	902	1	10000	2	1	0	2	0
199	903	1	10000	2	1	0	2	0
197	904	1	10000	2	1	0	2	0
203	905	1	10000	2	1	0	2	0
210	906	1	10000	2	1	0	2	0
207	907	1	10000	2	1	0	2	0
200	908	1	10000	2	1	0	2	0
197	909	1	10000	2	1	0	2	0
195	910	1	10000	2	1	0	2	0
188	911	1	10000	2	1	0	2	0
184	912	1	10000	2	1	0	2	0
179	913	1	10000	2	1	0	2	0
173	914	1	10000	2	1	0	2	0
166	915	1	10000	2	1	0	2	0
161	916	1	10000	2	1	0	2	0
164	917	1	10000	2	1	0	2	0
182	918	1	10000	2	1	0	2	0
198	919	1	10000	2	1	0	2	0
199	920	1	10000	2	1	0	2	0
197	921	1	10000	2	1	0	2	0
210	922	1	10000	2	1	0	2	0
222	923	1	10000	2	1	0	2	0
216	924	1	10000	2	1	0	2	0
211	925	1	10000	2	1	0	2	0
204	926	1	10000	2	1	0	2	0
199	927	1	10000	2	1	0	2	0
203	928	1	10000	2	1	0	2	0
212	929	1	10000	2	1	0	2	0
217	930	1	10000	2	1	0	2	0
216	931	1	10000	2	1	0	2	0
209	932	1	10000	2	1	0	2	0
201	933	1	10000	2	1	0	2	0
194	934	1	10000	2	1	0	2	0
187	935	1	10000	2	1	0	2	0
185	936	1	10000	2	1	0	2	0
181	937	1	10000	2	1	0	2	0
189	938	1	10000	2	1	0	2	0
194	939	1	10000	2	1	0	2	0
196	940	1	10000	2	1	0	2	0
195	941	1	10000	2	1	0	2	0
190	942	1	10000	2	1	0	2	0
186	943	1	10000	2	1	0	2	0
183	944	1	10000	2	1	0	2	0
177	945	1	10000	2	1	0	2	0
169	946	1	10000	2	1	0	2	0
166	947	1	10000	2	1	0	2	0
171	948	1	10000	2	1	0	2	0
183	949	1	10000	2	1	0	2	0
185	950	1	10000	2	1	0	2	0
178	951	1	10000	2	1	0	2	0
170	952	1	10000	2	1	0	2	0
163	953	1	10000	2	1	0	2	0
157	954	1	10000	2	1	0	2	0
155	955	1	10000	2	1	0	2	0
152	956	1	10000	2	1	0	2	0
147	957	1	10000	2	1	0	2	0
145	958	1	10000	2	1	0	2	0
145	959	1	10000	2	1	0	2	0
147	960	1	10000	2	1	0	2	0
147	961	1	10000	2	1	0	2	0
152	962	1	10000	2	1	0	2	0
155	963	1	10000	2	1	0	2	0
152	964	1	10000	2	1	0	2	0
148	965	1	10000	2	1	0	2	0
148	966	1	10000	2	1	0	2	0
146	967	1	10000	2	1	0	2	0
144	968	1	10000	2	1	0	2	0
160	969	1	10000	2	1	0	2	0
166	970	1	10000	2	1	0	2	0
161	971	1	10000	2	1	0	2	0
153	972	1	10000	2	1	0	2	0
148	973	1	10000	2	1	0	2	0
146	974	1	10000	2	1	0	2	0
141	975	1	10000	2	1	0	2	0
139	976	1	10000	2	1	0	2	0
136	977	1	10000	2	1	0	2	0
131	978	1	10000	2	1	0	2	0
130	979	1	10000	2	1	0	2	0
130	980	1	10000	2	1	0	2	0
129	981	1	10000	2	1	0	2	0
130	982	1	10000	2	1	0	2	0
125	983	1	10000	2	1	0	2	0
124	984	1	10000	2	1	0	2	0
125	985	1	10000	2	1	0	2	0
124	986	1	10000	2	1	0	2	0
120	987	1	10000	2	1	0	2	0
116	988	1	10000	2	1	0	2	0
122	989	1	10000	2	1	0	2	0
131	990	1	10000	2	1	0	2	0
131	991	1	10000	2	1	0	2	0
138	992	1	10000	2	1	0	2	0
152	993	1	10000	2	1	0	2	0
153	994	1	10000	2	1	0	2	0
157	995	1	10000	2	1	0	2	0
162	996	1	10000	2	1	0	2	0
156	997	1	10000	2	1	0	2	0
155	998	1	10000	2	1	0	2	0
158	999	1	10000	2	1	0	2	0
155	1000	1	10000	2	1	0	2	0
110	2	1	10000	3	1	0	3	0
116	3	1	10000	3	1	0	3	0
116	4	1	10000	3	1	0	3	0
112	5	1	10000	3	1	0	3	0
113	6	1	10000	3	1	0	3	0
114	7	1	10000	3	1	0	3	0
113	8	1	10000	3	1	0	3	0
110	9	1	10000	3	1	0	3	0
108	10	1	10000	3	1	0	3	0
111	11	1	10000	3	1	0	3	0
116	12	1	10000	3	1	0	3	0
116	13	1	10000	3	1	0	3	0
112	14	1	10000	3	1	0	3	0
114	15	1	10000	3	1	0	3	0
117	16	1	10000	3	1	0	3	0
113	17	1	10000	3	1	0	3	0
111	18	1	10000	3	1	0	3	0
115	19	1	10000	3	1	0	3	0
125	20	1	10000	3	1	0	3	0
129	21	1	10000	3	1	0	3	0
125	22	1	10000	3	1	0	3	0
128	23	1	10000	3	1	0	3	0
136	24	1	10000	3	1	0	3	0
140	25	1	10000	3	1	0	3	0
140	26	1	10000	3	1	0	3	0
135	27	1	10000	3	1	0	3	0
130	28	1	10000	3	1	0	3	0
130	29	1	10000	3	1	0	3	0
127	30	1	10000	3	1	0	3	0
126	31	1	10000	3	1	0	3	0
123	32	1	10000	3	1	0	3	0
118	33	1	10000	3	1	0	3	0
116	34	1	10000	3	1	0	3	0
112	35	1	10000	3	1	0	3	0
109	36	1	10000	3	1	0	3	0
104	37	1	10000	3	1	0	3	0
103	38	1	10000	3	1	0	3	0
101	39	1	10000	3	1	0	3	0
98	40	1	10000	3	1	0	3	0
96	41	1	10000	3	1	0	3	0
96	42	1	10000	3	1	0	3	0
95	43	1	10000	3	1	0	3	0
93	44	1	10000	3	1	0	3	0
93	45	1	10000	3	1	0	3	0
92	46	1	10000	3	1	0	3	0
90	47	1	10000	3	1	0	3	0
89	48	1	10000	3	1	0	3	0
87	49	1	10000	3	1	0	3	0
87	50	1	10000	3	1	0	3	0
85	51	1	10000	3	1	0	3	0
81	52	1	10000	3	1	0	3	0
81	53	1	10000	3	1	0	3	0
84	54	1	10000	3	1	0	3	0
91	55	1	10000	3	1	0	3	0
94	56	1	10000	3	1	0	3	0
92	57	1	10000	3	1	0	3	0
91	58	1	10000	3	1	0	3	0
97	59	1	10000	3	1	0	3	0
112	60	1	10000	3	1	0	3	0
122	61	1	10000	3	1	0	3	0
128	62	1	10000	3	1	0	3	0
131	63	1	10000	3	1	0	3	0
127	64	1	10000	3	1	0	3	0
126	65	1	10000	3	1	0	3	0
128	66	1	10000	3	1	0	3	0
124	67	1	10000	3	1	0	3	0
123	68	1	10000	3	1	0	3	0
122	69	1	10000	3	1	0	3	0
117	70	1	10000	3	1	0	3	0
116	71	1	10000	3	1	0	3	0
112	72	1	10000	3	1	0	3	0
107	73	1	10000	3	1	0	3	0
105	74	1	10000	3	1	0	3	0
110	75	1	10000	3	1	0	3	0
116	76	1	10000	3	1	0	3	0
119	77	1	10000	3	1	0	3	0
117	78	1	10000	3	1	0	3	0
114	79	1	10000	3	1	0	3	0
110	80	1	10000	3	1	0	3	0
103	81	1	10000	3	1	0	3	0
101	82	1	10000	3	1	0	3	0
101	83	1	10000	3	1	0	3	0
111	84	1	10000	3	1	0	3	0
125	85	1	10000	3	1	0	3	0
135	86	1	10000	3	1	0	3	0
132	87	1	10000	3	1	0	3	0
139	88	1	10000	3	1	0	3	0
147	89	1	10000	3	1	0	3	0
145	90	1	10000	3	1	0	3	0
143	91	1	10000	3	1	0	3	0
146	92	1	10000	3	1	0	3	0
145	93	1	10000	3	1	0	3	0
161	94	1	10000	3	1	0	3	0
180	95	1	10000	3	1	0	3	0
189	96	1	10000	3	1	0	3	0
191	97	1	10000	3	1	0	3	0
186	98	1	10000	3	1	0	3	0
182	99	1	10000	3	1	0	3	0
179	100	1	10000	3	1	0	3	0
179	101	1	10000	3	1	0	3	0
188	102	1	10000	3	1	0	3	0
209	103	1	10000	3	1	0	3	0
221	104	1	10000	3	1	0	3	0
215	105	1	10000	3	1	0	3	0
212	106	1	10000	3	1	0	3	0
204	107	1	10000	3	1	0	3	0
195	108	1	10000	3	1	0	3	0
188	109	1	10000	3	1	0	3	0
179	110	1	10000	3	1	0	3	0
175	111	1	10000	3	1	0	3	0
169	112	1	10000	3	1	0	3	0
165	113	1	10000	3	1	0	3	0
158	114	1	10000	3	1	0	3	0
160	115	1	10000	3	1	0	3	0
173	116	1	10000	3	1	0	3	0
173	117	1	10000	3	1	0	3	0
167	118	1	10000	3	1	0	3	0
162	119	1	10000	3	1	0	3	0
160	120	1	10000	3	1	0	3	0
155	121	1	10000	3	1	0	3	0
149	122	1	10000	3	1	0	3	0
147	123	1	10000	3	1	0	3	0
155	124	1	10000	3	1	0	3	0
168	125	1	10000	3	1	0	3	0
192	126	1	10000	3	1	0	3	0
222	127	1	10000	3	1	0	3	0
234	128	1	10000	3	1	0	3	0
233	129	1	10000	3	1	0	3	0
231	130	1	10000	3	1	0	3	0
236	131	1	10000	3	1	0	3	0
243	132	1	10000	3	1	0	3	0
250	133	1	10000	3	1	0	3	0
256	134	1	10000	3	1	0	3	0
273	135	1	10000	3	1	0	3	0
291	136	1	10000	3	1	0	3	0
296	137	1	10000	3	1	0	3	0
285	138	1	10000	3	1	0	3	0
281	139	1	10000	3	1	0	3	0
285	140	1	10000	3	1	0	3	0
290	141	1	10000	3	1	0	3	0
294	142	1	10000	3	1	0	3	0
287	143	1	10000	3	1	0	3	0
277	144	1	10000	3	1	0	3	0
270	145	1	10000	3	1	0	3	0
258	146	1	10000	3	1	0	3	0
248	147	1	10000	3	1	0	3	0
238	148	1	10000	3	1	0	3	0
232	149	1	10000	3	1	0	3	0
223	150	1	10000	3	1	0	3	0
219	151	1	10000	3	1	0	3	0
218	152	1	10000	3	1	0	3	0
214	153	1	10000	3	1	0	3	0
210	154	1	10000	3	1	0	3	0
202	155	1	10000	3	1	0	3	0
196	156	1	10000	3	1	0	3	0
187	157	1	10000	3	1	0	3	0
181	158	1	10000	3	1	0	3	0
177	159	1	10000	3	1	0	3	0
176	160	1	10000	3	1	0	3	0
179	161	1	10000	3	1	0	3	0
186	162	1	10000	3	1	0	3	0
187	163	1	10000	3	1	0	3	0
182	164	1	10000	3	1	0	3	0
175	165	1	10000	3	1	0	3	0
167	166	1	10000	3	1	0	3	0
161	167	1	10000	3	1	0	3	0
158	168	1	10000	3	1	0	3	0
157	169	1	10000	3	1	0	3	0
161	170	1	10000	3	1	0	3	0
166	171	1	10000	3	1	0	3	0
168	172	1	10000	3	1	0	3	0
168	173	1	10000	3	1	0	3	0
162	174	1	10000	3	1	0	3	0
157	175	1	10000	3	1	0	3	0
153	176	1	10000	3	1	0	3	0
145	177	1	10000	3	1	0	3	0
142	178	1	10000	3	1	0	3	0
142	179	1	10000	3	1	0	3	0
148	180	1	10000	3	1	0	3	0
155	181	1	10000	3	1	0	3	0
164	182	1	10000	3	1	0	3	0
165	183	1	10000	3	1	0	3	0
161	184	1	10000	3	1	0	3	0
155	185	1	10000	3	1	0	3	0
149	186	1	10000	3	1	0	3	0
143	187	1	10000	3	1	0	3	0
136	188	1	10000	3	1	0	3	0
131	189	1	10000	3	1	0	3	0
130	190	1	10000	3	1	0	3	0
129	191	1	10000	3	1	0	3	0
126	192	1	10000	3	1	0	3	0
120	193	1	10000	3	1	0	3	0
117	194	1	10000	3	1	0	3	0
115	195	1	10000	3	1	0	3	0
112	196	1	10000	3	1	0	3	0
118	197	1	10000	3	1	0	3	0
129	198	1	10000	3	1	0	3	0
134	199	1	10000	3	1	0	3	0
135	200	1	10000	3	1	0	3	0
133	201	1	10000	3	1	0	3	0
140	202	1	10000	3	1	0	3	0
149	203	1	10000	3	1	0	3	0
157	204	1	10000	3	1	0	3	0
157	205	1	10000	3	1	0	3	0
156	206	1	10000	3	1	0	3	0
153	207	1	10000	3	1	0	3	0
153	208	1	10000	3	1	0	3	0
153	209	1	10000	3	1	0	3	0
152	210	1	10000	3	1	0	3	0
148	211	1	10000	3	1	0	3	0
141	212	1	10000	3	1	0	3	0
135	213	1	10000	3	1	0	3	0
132	214	1	10000	3	1	0	3	0
129	215	1	10000	3	1	0	3	0
122	216	1	10000	3	1	0	3	0
119	217	1	10000	3	1	0	3	0
119	218	1	10000	3	1	0	3	0
120	219	1	10000	3	1	0	3	0
122	220	1	10000	3	1	0	3	0
125	221	1	10000	3	1	0	3	0
128	222	1	10000	3	1	0	3	0
130	223	1	10000	3	1	0	3	0
129	224	1	10000	3	1	0	3	0
128	225	1	10000	3	1	0	3	0
126	226	1	10000	3	1	0	3	0
123	227	1	10000	3	1	0	3	0
121	228	1	10000	3	1	0	3	0
121	229	1	10000	3	1	0	3	0
121	230	1	10000	3	1	0	3	0
124	231	1	10000	3	1	0	3	0
130	232	1	10000	3	1	0	3	0
145	233	1	10000	3	1	0	3	0
156	234	1	10000	3	1	0	3	0
157	235	1	10000	3	1	0	3	0
154	236	1	10000	3	1	0	3	0
154	237	1	10000	3	1	0	3	0
150	238	1	10000	3	1	0	3	0
146	239	1	10000	3	1	0	3	0
142	240	1	10000	3	1	0	3	0
139	241	1	10000	3	1	0	3	0
137	242	1	10000	3	1	0	3	0
132	243	1	10000	3	1	0	3	0
127	244	1	10000	3	1	0	3	0
121	245	1	10000	3	1	0	3	0
117	246	1	10000	3	1	0	3	0
114	247	1	10000	3	1	0	3	0
112	248	1	10000	3	1	0	3	0
107	249	1	10000	3	1	0	3	0
105	250	1	10000	3	1	0	3	0
104	251	1	10000	3	1	0	3	0
103	252	1	10000	3	1	0	3	0
100	253	1	10000	3	1	0	3	0
99	254	1	10000	3	1	0	3	0
101	255	1	10000	3	1	0	3	0
103	256	1	10000	3	1	0	3	0
108	257	1	10000	3	1	0	3	0
114	258	1	10000	3	1	0	3	0
111	259	1	10000	3	1	0	3	0
111	260	1	10000	3	1	0	3	0
113	261	1	10000	3	1	0	3	0
117	262	1	10000	3	1	0	3	0
118	263	1	10000	3	1	0	3	0
116	264	1	10000	3	1	0	3	0
116	265	1	10000	3	1	0	3	0
116	266	1	10000	3	1	0	3	0
114	267	1	10000	3	1	0	3	0
118	268	1	10000	3	1	0	3	0
122	269	1	10000	3	1	0	3	0
124	270	1	10000	3	1	0	3	0
123	271	1	10000	3	1	0	3	0
117	272	1	10000	3	1	0	3	0
112	273	1	10000	3	1	0	3	0
109	274	1	10000	3	1	0	3	0
109	275	1	10000	3	1	0	3	0
105	276	1	10000	3	1	0	3	0
106	277	1	10000	3	1	0	3	0
114	278	1	10000	3	1	0	3	0
122	279	1	10000	3	1	0	3	0
119	280	1	10000	3	1	0	3	0
114	281	1	10000	3	1	0	3	0
110	282	1	10000	3	1	0	3	0
110	283	1	10000	3	1	0	3	0
114	284	1	10000	3	1	0	3	0
110	285	1	10000	3	1	0	3	0
106	286	1	10000	3	1	0	3	0
103	287	1	10000	3	1	0	3	0
101	288	1	10000	3	1	0	3	0
96	289	1	10000	3	1	0	3	0
94	290	1	10000	3	1	0	3	0
97	291	1	10000	3	1	0	3	0
99	292	1	10000	3	1	0	3	0
99	293	1	10000	3	1	0	3	0
99	294	1	10000	3	1	0	3	0
98	295	1	10000	3	1	0	3	0
95	296	1	10000	3	1	0	3	0
93	297	1	10000	3	1	0	3	0
95	298	1	10000	3	1	0	3	0
98	299	1	10000	3	1	0	3	0
98	300	1	10000	3	1	0	3	0
92	301	1	10000	3	1	0	3	0
92	302	1	10000	3	1	0	3	0
89	303	1	10000	3	1	0	3	0
86	304	1	10000	3	1	0	3	0
84	305	1	10000	3	1	0	3	0
84	306	1	10000	3	1	0	3	0
84	307	1	10000	3	1	0	3	0
86	308	1	10000	3	1	0	3	0
90	309	1	10000	3	1	0	3	0
96	310	1	10000	3	1	0	3	0
116	311	1	10000	3	1	0	3	0
129	312	1	10000	3	1	0	3	0
129	313	1	10000	3	1	0	3	0
128	314	1	10000	3	1	0	3	0
129	315	1	10000	3	1	0	3	0
128	316	1	10000	3	1	0	3	0
124	317	1	10000	3	1	0	3	0
118	318	1	10000	3	1	0	3	0
115	319	1	10000	3	1	0	3	0
113	320	1	10000	3	1	0	3	0
112	321	1	10000	3	1	0	3	0
111	322	1	10000	3	1	0	3	0
112	323	1	10000	3	1	0	3	0
124	324	1	10000	3	1	0	3	0
132	325	1	10000	3	1	0	3	0
128	326	1	10000	3	1	0	3	0
124	327	1	10000	3	1	0	3	0
120	328	1	10000	3	1	0	3	0
117	329	1	10000	3	1	0	3	0
114	330	1	10000	3	1	0	3	0
110	331	1	10000	3	1	0	3	0
106	332	1	10000	3	1	0	3	0
100	333	1	10000	3	1	0	3	0
97	334	1	10000	3	1	0	3	0
94	335	1	10000	3	1	0	3	0
91	336	1	10000	3	1	0	3	0
90	337	1	10000	3	1	0	3	0
91	338	1	10000	3	1	0	3	0
95	339	1	10000	3	1	0	3	0
103	340	1	10000	3	1	0	3	0
99	341	1	10000	3	1	0	3	0
102	342	1	10000	3	1	0	3	0
106	343	1	10000	3	1	0	3	0
103	344	1	10000	3	1	0	3	0
98	345	1	10000	3	1	0	3	0
96	346	1	10000	3	1	0	3	0
95	347	1	10000	3	1	0	3	0
93	348	1	10000	3	1	0	3	0
90	349	1	10000	3	1	0	3	0
87	350	1	10000	3	1	0	3	0
86	351	1	10000	3	1	0	3	0
85	352	1	10000	3	1	0	3	0
83	353	1	10000	3	1	0	3	0
83	354	1	10000	3	1	0	3	0
84	355	1	10000	3	1	0	3	0
91	356	1	10000	3	1	0	3	0
97	357	1	10000	3	1	0	3	0
99	358	1	10000	3	1	0	3	0
98	359	1	10000	3	1	0	3	0
101	360	1	10000	3	1	0	3	0
102	361	1	10000	3	1	0	3	0
99	362	1	10000	3	1	0	3	0
100	363	1	10000	3	1	0	3	0
101	364	1	10000	3	1	0	3	0
103	365	1	10000	3	1	0	3	0
101	366	1	10000	3	1	0	3	0
98	367	1	10000	3	1	0	3	0
96	368	1	10000	3	1	0	3	0
95	369	1	10000	3	1	0	3	0
92	370	1	10000	3	1	0	3	0
95	371	1	10000	3	1	0	3	0
96	372	1	10000	3	1	0	3	0
95	373	1	10000	3	1	0	3	0
92	374	1	10000	3	1	0	3	0
90	375	1	10000	3	1	0	3	0
92	376	1	10000	3	1	0	3	0
92	377	1	10000	3	1	0	3	0
92	378	1	10000	3	1	0	3	0
90	379	1	10000	3	1	0	3	0
88	380	1	10000	3	1	0	3	0
89	381	1	10000	3	1	0	3	0
94	382	1	10000	3	1	0	3	0
98	383	1	10000	3	1	0	3	0
97	384	1	10000	3	1	0	3	0
97	385	1	10000	3	1	0	3	0
106	386	1	10000	3	1	0	3	0
115	387	1	10000	3	1	0	3	0
112	388	1	10000	3	1	0	3	0
113	389	1	10000	3	1	0	3	0
112	390	1	10000	3	1	0	3	0
110	391	1	10000	3	1	0	3	0
107	392	1	10000	3	1	0	3	0
106	393	1	10000	3	1	0	3	0
108	394	1	10000	3	1	0	3	0
114	395	1	10000	3	1	0	3	0
115	396	1	10000	3	1	0	3	0
111	397	1	10000	3	1	0	3	0
112	398	1	10000	3	1	0	3	0
115	399	1	10000	3	1	0	3	0
116	400	1	10000	3	1	0	3	0
112	401	1	10000	3	1	0	3	0
112	402	1	10000	3	1	0	3	0
116	403	1	10000	3	1	0	3	0
118	404	1	10000	3	1	0	3	0
115	405	1	10000	3	1	0	3	0
112	406	1	10000	3	1	0	3	0
107	407	1	10000	3	1	0	3	0
104	408	1	10000	3	1	0	3	0
103	409	1	10000	3	1	0	3	0
106	410	1	10000	3	1	0	3	0
120	411	1	10000	3	1	0	3	0
134	412	1	10000	3	1	0	3	0
141	413	1	10000	3	1	0	3	0
141	414	1	10000	3	1	0	3	0
139	415	1	10000	3	1	0	3	0
136	416	1	10000	3	1	0	3	0
134	417	1	10000	3	1	0	3	0
134	418	1	10000	3	1	0	3	0
139	419	1	10000	3	1	0	3	0
142	420	1	10000	3	1	0	3	0
144	421	1	10000	3	1	0	3	0
153	422	1	10000	3	1	0	3	0
165	423	1	10000	3	1	0	3	0
179	424	1	10000	3	1	0	3	0
193	425	1	10000	3	1	0	3	0
208	426	1	10000	3	1	0	3	0
224	427	1	10000	3	1	0	3	0
238	428	1	10000	3	1	0	3	0
248	429	1	10000	3	1	0	3	0
256	430	1	10000	3	1	0	3	0
257	431	1	10000	3	1	0	3	0
249	432	1	10000	3	1	0	3	0
239	433	1	10000	3	1	0	3	0
230	434	1	10000	3	1	0	3	0
223	435	1	10000	3	1	0	3	0
220	436	1	10000	3	1	0	3	0
223	437	1	10000	3	1	0	3	0
228	438	1	10000	3	1	0	3	0
232	439	1	10000	3	1	0	3	0
234	440	1	10000	3	1	0	3	0
230	441	1	10000	3	1	0	3	0
222	442	1	10000	3	1	0	3	0
215	443	1	10000	3	1	0	3	0
207	444	1	10000	3	1	0	3	0
199	445	1	10000	3	1	0	3	0
192	446	1	10000	3	1	0	3	0
185	447	1	10000	3	1	0	3	0
181	448	1	10000	3	1	0	3	0
181	449	1	10000	3	1	0	3	0
183	450	1	10000	3	1	0	3	0
184	451	1	10000	3	1	0	3	0
178	452	1	10000	3	1	0	3	0
184	453	1	10000	3	1	0	3	0
193	454	1	10000	3	1	0	3	0
201	455	1	10000	3	1	0	3	0
206	456	1	10000	3	1	0	3	0
204	457	1	10000	3	1	0	3	0
200	458	1	10000	3	1	0	3	0
196	459	1	10000	3	1	0	3	0
191	460	1	10000	3	1	0	3	0
189	461	1	10000	3	1	0	3	0
195	462	1	10000	3	1	0	3	0
202	463	1	10000	3	1	0	3	0
211	464	1	10000	3	1	0	3	0
222	465	1	10000	3	1	0	3	0
228	466	1	10000	3	1	0	3	0
229	467	1	10000	3	1	0	3	0
231	468	1	10000	3	1	0	3	0
240	469	1	10000	3	1	0	3	0
251	470	1	10000	3	1	0	3	0
260	471	1	10000	3	1	0	3	0
265	472	1	10000	3	1	0	3	0
269	473	1	10000	3	1	0	3	0
270	474	1	10000	3	1	0	3	0
267	475	1	10000	3	1	0	3	0
264	476	1	10000	3	1	0	3	0
256	477	1	10000	3	1	0	3	0
245	478	1	10000	3	1	0	3	0
236	479	1	10000	3	1	0	3	0
239	480	1	10000	3	1	0	3	0
250	481	1	10000	3	1	0	3	0
260	482	1	10000	3	1	0	3	0
263	483	1	10000	3	1	0	3	0
264	484	1	10000	3	1	0	3	0
266	485	1	10000	3	1	0	3	0
265	486	1	10000	3	1	0	3	0
264	487	1	10000	3	1	0	3	0
264	488	1	10000	3	1	0	3	0
266	489	1	10000	3	1	0	3	0
269	490	1	10000	3	1	0	3	0
273	491	1	10000	3	1	0	3	0
264	492	1	10000	3	1	0	3	0
252	493	1	10000	3	1	0	3	0
241	494	1	10000	3	1	0	3	0
232	495	1	10000	3	1	0	3	0
223	496	1	10000	3	1	0	3	0
216	497	1	10000	3	1	0	3	0
213	498	1	10000	3	1	0	3	0
211	499	1	10000	3	1	0	3	0
209	500	1	10000	3	1	0	3	0
203	501	1	10000	3	1	0	3	0
198	501	1	10000	3	1	0	3	1
192	502	1	10000	3	1	0	3	1
190	504	1	10000	3	1	0	3	1
186	505	1	10000	3	1	0	3	1
183	506	1	10000	3	1	0	3	1
183	507	1	10000	3	1	0	3	1
187	508	1	10000	3	1	0	3	1
191	509	1	10000	3	1	0	3	1
185	510	1	10000	3	1	0	3	1
179	511	1	10000	3	1	0	3	1
173	512	1	10000	3	1	0	3	1
168	513	1	10000	3	1	0	3	1
165	514	1	10000	3	1	0	3	1
160	515	1	10000	3	1	0	3	1
160	516	1	10000	3	1	0	3	1
156	517	1	10000	3	1	0	3	1
152	518	1	10000	3	1	0	3	1
149	519	1	10000	3	1	0	3	1
153	520	1	10000	3	1	0	3	1
165	521	1	10000	3	1	0	3	1
171	522	1	10000	3	1	0	3	1
167	523	1	10000	3	1	0	3	1
163	524	1	10000	3	1	0	3	1
159	525	1	10000	3	1	0	3	1
157	526	1	10000	3	1	0	3	1
160	527	1	10000	3	1	0	3	1
160	528	1	10000	3	1	0	3	1
159	529	1	10000	3	1	0	3	1
156	530	1	10000	3	1	0	3	1
155	531	1	10000	3	1	0	3	1
150	532	1	10000	3	1	0	3	1
144	533	1	10000	3	1	0	3	1
140	534	1	10000	3	1	0	3	1
144	535	1	10000	3	1	0	3	1
144	536	1	10000	3	1	0	3	1
139	537	1	10000	3	1	0	3	1
143	538	1	10000	3	1	0	3	1
148	539	1	10000	3	1	0	3	1
145	540	1	10000	3	1	0	3	1
140	541	1	10000	3	1	0	3	1
136	542	1	10000	3	1	0	3	1
132	543	1	10000	3	1	0	3	1
129	544	1	10000	3	1	0	3	1
128	545	1	10000	3	1	0	3	1
124	546	1	10000	3	1	0	3	1
123	547	1	10000	3	1	0	3	1
123	548	1	10000	3	1	0	3	1
120	549	1	10000	3	1	0	3	1
116	550	1	10000	3	1	0	3	1
118	551	1	10000	3	1	0	3	1
123	552	1	10000	3	1	0	3	0
129	553	1	10000	3	1	0	3	0
127	554	1	10000	3	1	0	3	0
125	555	1	10000	3	1	0	3	0
124	556	1	10000	3	1	0	3	0
119	557	1	10000	3	1	0	3	0
115	558	1	10000	3	1	0	3	0
110	559	1	10000	3	1	0	3	0
110	560	1	10000	3	1	0	3	0
109	561	1	10000	3	1	0	3	0
108	562	1	10000	3	1	0	3	0
105	563	1	10000	3	1	0	3	0
104	564	1	10000	3	1	0	3	0
102	565	1	10000	3	1	0	3	0
101	566	1	10000	3	1	0	3	0
103	567	1	10000	3	1	0	3	0
107	568	1	10000	3	1	0	3	0
111	569	1	10000	3	1	0	3	0
115	570	1	10000	3	1	0	3	0
116	571	1	10000	3	1	0	3	0
122	572	1	10000	3	1	0	3	0
124	573	1	10000	3	1	0	3	0
120	574	1	10000	3	1	0	3	0
121	575	1	10000	3	1	0	3	0
119	576	1	10000	3	1	0	3	0
113	577	1	10000	3	1	0	3	0
110	578	1	10000	3	1	0	3	0
109	579	1	10000	3	1	0	3	0
108	580	1	10000	3	1	0	3	0
102	581	1	10000	3	1	0	3	0
98	582	1	10000	3	1	0	3	0
97	583	1	10000	3	1	0	3	0
104	584	1	10000	3	1	0	3	0
104	585	1	10000	3	1	0	3	0
105	586	1	10000	3	1	0	3	0
105	587	1	10000	3	1	0	3	0
102	588	1	10000	3	1	0	3	0
106	589	1	10000	3	1	0	3	0
113	590	1	10000	3	1	0	3	0
115	591	1	10000	3	1	0	3	0
112	592	1	10000	3	1	0	3	0
109	593	1	10000	3	1	0	3	0
105	594	1	10000	3	1	0	3	0
105	595	1	10000	3	1	0	3	0
101	596	1	10000	3	1	0	3	0
99	597	1	10000	3	1	0	3	0
107	598	1	10000	3	1	0	3	0
120	599	1	10000	3	1	0	3	0
126	600	1	10000	3	1	0	3	0
120	601	1	10000	3	1	0	3	0
123	602	1	10000	3	1	0	3	0
128	603	1	10000	3	1	0	3	0
138	604	1	10000	3	1	0	3	0
151	605	1	10000	3	1	0	3	0
164	606	1	10000	3	1	0	3	0
157	607	1	10000	3	1	0	3	0
156	608	1	10000	3	1	0	3	0
156	609	1	10000	3	1	0	3	0
154	610	1	10000	3	1	0	3	0
164	611	1	10000	3	1	0	3	0
180	612	1	10000	3	1	0	3	0
192	613	1	10000	3	1	0	3	0
203	614	1	10000	3	1	0	3	0
211	615	1	10000	3	1	0	3	0
212	616	1	10000	3	1	0	3	0
205	617	1	10000	3	1	0	3	0
197	618	1	10000	3	1	0	3	0
189	619	1	10000	3	1	0	3	0
190	620	1	10000	3	1	0	3	0
192	621	1	10000	3	1	0	3	0
199	622	1	10000	3	1	0	3	0
211	623	1	10000	3	1	0	3	0
220	624	1	10000	3	1	0	3	0
217	625	1	10000	3	1	0	3	0
209	626	1	10000	3	1	0	3	0
203	627	1	10000	3	1	0	3	0
197	628	1	10000	3	1	0	3	0
190	629	1	10000	3	1	0	3	0
185	630	1	10000	3	1	0	3	0
180	631	1	10000	3	1	0	3	0
174	632	1	10000	3	1	0	3	0
167	633	1	10000	3	1	0	3	0
164	634	1	10000	3	1	0	3	0
160	635	1	10000	3	1	0	3	0
155	636	1	10000	3	1	0	3	0
149	637	1	10000	3	1	0	3	0
144	638	1	10000	3	1	0	3	0
143	639	1	10000	3	1	0	3	0
143	640	1	10000	3	1	0	3	0
139	641	1	10000	3	1	0	3	0
136	642	1	10000	3	1	0	3	0
135	643	1	10000	3	1	0	3	0
135	644	1	10000	3	1	0	3	0
130	645	1	10000	3	1	0	3	0
129	646	1	10000	3	1	0	3	0
128	647	1	10000	3	1	0	3	0
124	648	1	10000	3	1	0	3	0
124	649	1	10000	3	1	0	3	0
124	650	1	10000	3	1	0	3	0
121	651	1	10000	3	1	0	3	0
117	652	1	10000	3	1	0	3	0
116	653	1	10000	3	1	0	3	0
116	654	1	10000	3	1	0	3	0
113	655	1	10000	3	1	0	3	0
115	656	1	10000	3	1	0	3	0
113	657	1	10000	3	1	0	3	0
109	658	1	10000	3	1	0	3	0
107	659	1	10000	3	1	0	3	0
105	660	1	10000	3	1	0	3	0
107	661	1	10000	3	1	0	3	0
114	662	1	10000	3	1	0	3	0
115	663	1	10000	3	1	0	3	0
113	664	1	10000	3	1	0	3	0
115	665	1	10000	3	1	0	3	0
122	666	1	10000	3	1	0	3	0
129	667	1	10000	3	1	0	3	0
127	668	1	10000	3	1	0	3	0
130	669	1	10000	3	1	0	3	0
130	670	1	10000	3	1	0	3	0
129	671	1	10000	3	1	0	3	0
124	672	1	10000	3	1	0	3	0
120	673	1	10000	3	1	0	3	0
116	674	1	10000	3	1	0	3	0
113	675	1	10000	3	1	0	3	0
115	676	1	10000	3	1	0	3	0
121	677	1	10000	3	1	0	3	0
119	678	1	10000	3	1	0	3	0
119	679	1	10000	3	1	0	3	0
124	680	1	10000	3	1	0	3	0
124	681	1	10000	3	1	0	3	0
123	682	1	10000	3	1	0	3	0
120	683	1	10000	3	1	0	3	0
119	684	1	10000	3	1	0	3	0
120	685	1	10000	3	1	0	3	0
118	686	1	10000	3	1	0	3	0
115	687	1	10000	3	1	0	3	0
114	688	1	10000	3	1	0	3	0
114	689	1	10000	3	1	0	3	0
118	690	1	10000	3	1	0	3	0
125	691	1	10000	3	1	0	3	0
121	692	1	10000	3	1	0	3	0
125	693	1	10000	3	1	0	3	0
131	694	1	10000	3	1	0	3	0
136	695	1	10000	3	1	0	3	0
140	696	1	10000	3	1	0	3	0
142	697	1	10000	3	1	0	3	0
145	698	1	10000	3	1	0	3	0
142	699	1	10000	3	1	0	3	0
144	700	1	10000	3	1	0	3	0
153	701	1	10000	3	1	0	3	0
164	702	1	10000	3	1	0	3	0
167	703	1	10000	3	1	0	3	0
163	704	1	10000	3	1	0	3	0
171	705	1	10000	3	1	0	3	0
187	706	1	10000	3	1	0	3	0
196	707	1	10000	3	1	0	3	0
191	708	1	10000	3	1	0	3	0
190	709	1	10000	3	1	0	3	0
184	710	1	10000	3	1	0	3	0
183	711	1	10000	3	1	0	3	0
176	712	1	10000	3	1	0	3	0
168	713	1	10000	3	1	0	3	0
162	714	1	10000	3	1	0	3	0
155	715	1	10000	3	1	0	3	0
151	716	1	10000	3	1	0	3	0
147	717	1	10000	3	1	0	3	0
143	718	1	10000	3	1	0	3	0
140	719	1	10000	3	1	0	3	0
139	720	1	10000	3	1	0	3	0
136	721	1	10000	3	1	0	3	0
134	722	1	10000	3	1	0	3	0
135	723	1	10000	3	1	0	3	0
132	724	1	10000	3	1	0	3	0
131	725	1	10000	3	1	0	3	0
135	726	1	10000	3	1	0	3	0
138	727	1	10000	3	1	0	3	0
131	728	1	10000	3	1	0	3	0
126	729	1	10000	3	1	0	3	0
121	730	1	10000	3	1	0	3	0
121	731	1	10000	3	1	0	3	0
120	732	1	10000	3	1	0	3	0
126	733	1	10000	3	1	0	3	0
128	734	1	10000	3	1	0	3	0
150	735	1	10000	3	1	0	3	0
166	736	1	10000	3	1	0	3	0
163	737	1	10000	3	1	0	3	0
164	738	1	10000	3	1	0	3	0
164	739	1	10000	3	1	0	3	0
167	740	1	10000	3	1	0	3	0
169	741	1	10000	3	1	0	3	0
170	742	1	10000	3	1	0	3	0
168	743	1	10000	3	1	0	3	0
162	744	1	10000	3	1	0	3	0
156	745	1	10000	3	1	0	3	0
155	746	1	10000	3	1	0	3	0
175	747	1	10000	3	1	0	3	0
225	748	1	10000	3	1	0	3	0
275	749	1	10000	3	1	0	3	0
287	750	1	10000	3	1	0	3	0
303	751	1	10000	3	1	0	3	0
344	752	1	10000	3	1	0	3	0
380	753	1	10000	3	1	0	3	0
394	754	1	10000	3	1	0	3	0
384	755	1	10000	3	1	0	3	0
384	756	1	10000	3	1	0	3	0
370	757	1	10000	3	1	0	3	0
363	758	1	10000	3	1	0	3	0
355	759	1	10000	3	1	0	3	0
353	760	1	10000	3	1	0	3	0
345	761	1	10000	3	1	0	3	0
331	762	1	10000	3	1	0	3	0
319	763	1	10000	3	1	0	3	0
313	764	1	10000	3	1	0	3	0
309	765	1	10000	3	1	0	3	0
297	766	1	10000	3	1	0	3	0
295	767	1	10000	3	1	0	3	0
292	768	1	10000	3	1	0	3	0
283	769	1	10000	3	1	0	3	0
274	770	1	10000	3	1	0	3	0
264	771	1	10000	3	1	0	3	0
252	772	1	10000	3	1	0	3	0
242	773	1	10000	3	1	0	3	0
230	774	1	10000	3	1	0	3	0
222	775	1	10000	3	1	0	3	0
219	776	1	10000	3	1	0	3	0
213	777	1	10000	3	1	0	3	0
208	778	1	10000	3	1	0	3	0
209	779	1	10000	3	1	0	3	0
205	780	1	10000	3	1	0	3	0
198	781	1	10000	3	1	0	3	0
199	782	1	10000	3	1	0	3	0
200	783	1	10000	3	1	0	3	0
197	784	1	10000	3	1	0	3	0
192	785	1	10000	3	1	0	3	0
194	786	1	10000	3	1	0	3	0
194	787	1	10000	3	1	0	3	0
186	788	1	10000	3	1	0	3	0
182	789	1	10000	3	1	0	3	0
179	790	1	10000	3	1	0	3	0
176	791	1	10000	3	1	0	3	0
169	792	1	10000	3	1	0	3	0
165	793	1	10000	3	1	0	3	0
170	794	1	10000	3	1	0	3	0
169	795	1	10000	3	1	0	3	0
165	796	1	10000	3	1	0	3	0
159	797	1	10000	3	1	0	3	0
152	798	1	10000	3	1	0	3	0
147	799	1	10000	3	1	0	3	0
143	800	1	10000	3	1	0	3	0
142	801	1	10000	3	1	0	3	0
144	802	1	10000	3	1	0	3	0
140	803	1	10000	3	1	0	3	0
138	804	1	10000	3	1	0	3	0
134	805	1	10000	3	1	0	3	0
135	806	1	10000	3	1	0	3	0
131	807	1	10000	3	1	0	3	0
129	808	1	10000	3	1	0	3	0
125	809	1	10000	3	1	0	3	0
119	810	1	10000	3	1	0	3	0
119	811	1	10000	3	1	0	3	0
116	812	1	10000	3	1	0	3	0
120	813	1	10000	3	1	0	3	0
120	814	1	10000	3	1	0	3	0
117	815	1	10000	3	1	0	3	0
114	816	1	10000	3	1	0	3	0
109	817	1	10000	3	1	0	3	0
105	818	1	10000	3	1	0	3	0
111	819	1	10000	3	1	0	3	0
130	820	1	10000	3	1	0	3	0
137	821	1	10000	3	1	0	3	0
134	822	1	10000	3	1	0	3	0
134	823	1	10000	3	1	0	3	0
139	824	1	10000	3	1	0	3	0
144	825	1	10000	3	1	0	3	0
150	826	1	10000	3	1	0	3	0
162	827	1	10000	3	1	0	3	0
181	828	1	10000	3	1	0	3	0
191	829	1	10000	3	1	0	3	0
186	830	1	10000	3	1	0	3	0
192	831	1	10000	3	1	0	3	0
200	832	1	10000	3	1	0	3	0
208	833	1	10000	3	1	0	3	0
214	834	1	10000	3	1	0	3	0
216	835	1	10000	3	1	0	3	0
215	836	1	10000	3	1	0	3	0
211	837	1	10000	3	1	0	3	0
209	838	1	10000	3	1	0	3	0
208	839	1	10000	3	1	0	3	0
201	840	1	10000	3	1	0	3	0
191	841	1	10000	3	1	0	3	0
188	842	1	10000	3	1	0	3	0
188	843	1	10000	3	1	0	3	0
186	844	1	10000	3	1	0	3	0
184	845	1	10000	3	1	0	3	0
178	846	1	10000	3	1	0	3	0
180	847	1	10000	3	1	0	3	0
179	848	1	10000	3	1	0	3	0
181	849	1	10000	3	1	0	3	0
200	850	1	10000	3	1	0	3	0
215	851	1	10000	3	1	0	3	0
218	852	1	10000	3	1	0	3	0
212	853	1	10000	3	1	0	3	0
204	854	1	10000	3	1	0	3	0
202	855	1	10000	3	1	0	3	0
200	856	1	10000	3	1	0	3	0
195	857	1	10000	3	1	0	3	0
194	858	1	10000	3	1	0	3	0
188	859	1	10000	3	1	0	3	0
186	860	1	10000	3	1	0	3	0
196	861	1	10000	3	1	0	3	0
219	862	1	10000	3	1	0	3	0
249	863	1	10000	3	1	0	3	0
284	864	1	10000	3	1	0	3	0
316	865	1	10000	3	1	0	3	0
333	866	1	10000	3	1	0	3	0
336	867	1	10000	3	1	0	3	0
333	868	1	10000	3	1	0	3	0
332	869	1	10000	3	1	0	3	0
327	870	1	10000	3	1	0	3	0
331	871	1	10000	3	1	0	3	0
332	872	1	10000	3	1	0	3	0
337	873	1	10000	3	1	0	3	0
350	874	1	10000	3	1	0	3	0
361	875	1	10000	3	1	0	3	0
358	876	1	10000	3	1	0	3	0
345	877	1	10000	3	1	0	3	0
334	878	1	10000	3	1	0	3	0
327	879	1	10000	3	1	0	3	0
317	880	1	10000	3	1	0	3	0
307	881	1	10000	3	1	0	3	0
295	882	1	10000	3	1	0	3	0
285	883	1	10000	3	1	0	3	0
275	884	1	10000	3	1	0	3	0
279	885	1	10000	3	1	0	3	0
297	886	1	10000	3	1	0	3	0
307	887	1	10000	3	1	0	3	0
301	888	1	10000	3	1	0	3	0
288	889	1	10000	3	1	0	3	0
275	890	1	10000	3	1	0	3	0
272	891	1	10000	3	1	0	3	0
262	892	1	10000	3	1	0	3	0
250	893	1	10000	3	1	0	3	0
245	894	1	10000	3	1	0	3	0
248	895	1	10000	3	1	0	3	0
254	896	1	10000	3	1	0	3	0
265	897	1	10000	3	1	0	3	0
272	898	1	10000	3	1	0	3	0
272	899	1	10000	3	1	0	3	0
273	900	1	10000	3	1	0	3	0
275	901	1	10000	3	1	0	3	0
282	902	1	10000	3	1	0	3	0
288	903	1	10000	3	1	0	3	0
296	904	1	10000	3	1	0	3	0
304	905	1	10000	3	1	0	3	0
305	906	1	10000	3	1	0	3	0
300	907	1	10000	3	1	0	3	0
296	908	1	10000	3	1	0	3	0
297	909	1	10000	3	1	0	3	0
305	910	1	10000	3	1	0	3	0
320	911	1	10000	3	1	0	3	0
330	912	1	10000	3	1	0	3	0
342	913	1	10000	3	1	0	3	0
345	914	1	10000	3	1	0	3	0
346	915	1	10000	3	1	0	3	0
357	916	1	10000	3	1	0	3	0
366	917	1	10000	3	1	0	3	0
365	918	1	10000	3	1	0	3	0
355	919	1	10000	3	1	0	3	0
344	920	1	10000	3	1	0	3	0
330	921	1	10000	3	1	0	3	0
318	922	1	10000	3	1	0	3	0
308	923	1	10000	3	1	0	3	0
315	924	1	10000	3	1	0	3	0
321	925	1	10000	3	1	0	3	0
318	926	1	10000	3	1	0	3	0
318	927	1	10000	3	1	0	3	0
323	928	1	10000	3	1	0	3	0
327	929	1	10000	3	1	0	3	0
324	930	1	10000	3	1	0	3	0
321	931	1	10000	3	1	0	3	0
318	932	1	10000	3	1	0	3	0
305	933	1	10000	3	1	0	3	0
293	934	1	10000	3	1	0	3	0
284	935	1	10000	3	1	0	3	0
276	936	1	10000	3	1	0	3	0
265	937	1	10000	3	1	0	3	0
258	938	1	10000	3	1	0	3	0
250	939	1	10000	3	1	0	3	0
240	940	1	10000	3	1	0	3	0
232	941	1	10000	3	1	0	3	0
227	942	1	10000	3	1	0	3	0
224	943	1	10000	3	1	0	3	0
229	944	1	10000	3	1	0	3	0
239	945	1	10000	3	1	0	3	0
245	946	1	10000	3	1	0	3	0
249	947	1	10000	3	1	0	3	0
244	948	1	10000	3	1	0	3	0
235	949	1	10000	3	1	0	3	0
230	950	1	10000	3	1	0	3	0
224	951	1	10000	3	1	0	3	0
218	952	1	10000	3	1	0	3	0
210	953	1	10000	3	1	0	3	0
205	954	1	10000	3	1	0	3	0
203	955	1	10000	3	1	0	3	0
199	956	1	10000	3	1	0	3	0
191	957	1	10000	3	1	0	3	0
189	958	1	10000	3	1	0	3	0
188	959	1	10000	3	1	0	3	0
187	960	1	10000	3	1	0	3	0
197	961	1	10000	3	1	0	3	0
212	962	1	10000	3	1	0	3	0
217	963	1	10000	3	1	0	3	0
210	964	1	10000	3	1	0	3	0
202	965	1	10000	3	1	0	3	0
196	966	1	10000	3	1	0	3	0
188	967	1	10000	3	1	0	3	0
184	968	1	10000	3	1	0	3	0
186	969	1	10000	3	1	0	3	0
189	970	1	10000	3	1	0	3	0
187	971	1	10000	3	1	0	3	0
178	972	1	10000	3	1	0	3	0
173	973	1	10000	3	1	0	3	0
168	974	1	10000	3	1	0	3	0
166	975	1	10000	3	1	0	3	0
162	976	1	10000	3	1	0	3	0
157	977	1	10000	3	1	0	3	0
159	978	1	10000	3	1	0	3	0
157	979	1	10000	3	1	0	3	0
154	980	1	10000	3	1	0	3	0
155	981	1	10000	3	1	0	3	0
158	982	1	10000	3	1	0	3	0
153	983	1	10000	3	1	0	3	0
148	984	1	10000	3	1	0	3	0
141	985	1	10000	3	1	0	3	0
142	986	1	10000	3	1	0	3	0
142	987	1	10000	3	1	0	3	0
137	988	1	10000	3	1	0	3	0
134	989	1	10000	3	1	0	3	0
134	990	1	10000	3	1	0	3	0
134	991	1	10000	3	1	0	3	0
129	992	1	10000	3	1	0	3	0
130	993	1	10000	3	1	0	3	0
135	994	1	10000	3	1	0	3	0
135	995	1	10000	3	1	0	3	0
131	996	1	10000	3	1	0	3	0
136	997	1	10000	3	1	0	3	0
138	998	1	10000	3	1	0	3	0
134	999	1	10000	3	1	0	3	0
129	1000	1	10000	3	1	0	3	0
124	1001	1	10000	3	1	0	3	0
88	1	0	10000	4	1	0	4	0
95	2	0	10000	4	1	0	4	0
97	3	0	10000	4	1	0	4	0
95	4	0	10000	4	1	0	4	0
92	5	0	10000	4	1	0	4	0
89	6	0	10000	4	1	0	4	0
88	7	0	10000	4	1	0	4	0
92	8	0	10000	4	1	0	4	0
93	9	0	10000	4	1	0	4	0
96	10	0	10000	4	1	0	4	0
95	11	0	10000	4	1	0	4	0
92	12	0	10000	4	1	0	4	0
90	13	0	10000	4	1	0	4	0
94	14	0	10000	4	1	0	4	0
101	15	0	10000	4	1	0	4	0
107	16	0	10000	4	1	0	4	0
108	17	0	10000	4	1	0	4	0
104	18	0	10000	4	1	0	4	0
103	19	0	10000	4	1	0	4	0
101	20	0	10000	4	1	0	4	0
102	21	0	10000	4	1	0	4	0
100	22	0	10000	4	1	0	4	0
96	23	0	10000	4	1	0	4	0
94	24	0	10000	4	1	0	4	0
91	25	0	10000	4	1	0	4	0
90	26	0	10000	4	1	0	4	0
86	27	0	10000	4	1	0	4	0
85	28	0	10000	4	1	0	4	0
83	29	0	10000	4	1	0	4	0
84	30	0	10000	4	1	0	4	0
83	31	0	10000	4	1	0	4	0
87	32	0	10000	4	1	0	4	0
95	33	0	10000	4	1	0	4	0
104	34	0	10000	4	1	0	4	0
103	35	0	10000	4	1	0	4	0
100	36	0	10000	4	1	0	4	0
97	37	0	10000	4	1	0	4	0
95	38	0	10000	4	1	0	4	0
100	39	0	10000	4	1	0	4	0
111	40	0	10000	4	1	0	4	0
110	41	0	10000	4	1	0	4	0
108	42	0	10000	4	1	0	4	0
108	43	0	10000	4	1	0	4	0
106	44	0	10000	4	1	0	4	0
103	45	0	10000	4	1	0	4	0
99	46	0	10000	4	1	0	4	0
95	47	0	10000	4	1	0	4	0
93	48	0	10000	4	1	0	4	0
90	49	0	10000	4	1	0	4	0
87	50	0	10000	4	1	0	4	0
83	51	0	10000	4	1	0	4	0
80	52	0	10000	4	1	0	4	0
78	53	0	10000	4	1	0	4	0
79	54	0	10000	4	1	0	4	0
85	55	0	10000	4	1	0	4	0
85	56	0	10000	4	1	0	4	0
86	57	0	10000	4	1	0	4	0
90	58	0	10000	4	1	0	4	0
94	59	0	10000	4	1	0	4	0
94	60	0	10000	4	1	0	4	0
93	61	0	10000	4	1	0	4	0
94	62	0	10000	4	1	0	4	0
94	63	0	10000	4	1	0	4	0
93	64	0	10000	4	1	0	4	0
103	65	0	10000	4	1	0	4	0
112	66	0	10000	4	1	0	4	0
113	67	0	10000	4	1	0	4	0
113	68	0	10000	4	1	0	4	0
109	69	0	10000	4	1	0	4	0
110	70	0	10000	4	1	0	4	0
114	71	0	10000	4	1	0	4	0
118	72	0	10000	4	1	0	4	0
121	73	0	10000	4	1	0	4	0
122	74	0	10000	4	1	0	4	0
120	75	0	10000	4	1	0	4	0
116	76	0	10000	4	1	0	4	0
114	77	0	10000	4	1	0	4	0
109	78	0	10000	4	1	0	4	0
109	79	0	10000	4	1	0	4	0
109	80	0	10000	4	1	0	4	0
107	81	0	10000	4	1	0	4	0
103	82	0	10000	4	1	0	4	0
103	83	0	10000	4	1	0	4	0
109	84	0	10000	4	1	0	4	0
109	85	0	10000	4	1	0	4	0
106	86	0	10000	4	1	0	4	0
103	87	0	10000	4	1	0	4	0
102	88	0	10000	4	1	0	4	0
102	89	0	10000	4	1	0	4	0
104	90	0	10000	4	1	0	4	0
101	91	0	10000	4	1	0	4	0
102	92	0	10000	4	1	0	4	0
109	93	0	10000	4	1	0	4	0
114	94	0	10000	4	1	0	4	0
112	95	0	10000	4	1	0	4	0
114	96	0	10000	4	1	0	4	0
116	97	0	10000	4	1	0	4	0
113	98	0	10000	4	1	0	4	0
110	99	0	10000	4	1	0	4	0
107	100	0	10000	4	1	0	4	0
102	101	0	10000	4	1	0	4	0
100	102	0	10000	4	1	0	4	0
100	103	0	10000	4	1	0	4	0
99	104	0	10000	4	1	0	4	0
99	105	0	10000	4	1	0	4	0
99	106	0	10000	4	1	0	4	0
97	107	0	10000	4	1	0	4	0
100	108	0	10000	4	1	0	4	0
103	109	0	10000	4	1	0	4	0
100	110	0	10000	4	1	0	4	0
99	111	0	10000	4	1	0	4	0
97	112	0	10000	4	1	0	4	0
94	113	0	10000	4	1	0	4	0
92	114	0	10000	4	1	0	4	0
89	115	0	10000	4	1	0	4	0
90	116	0	10000	4	1	0	4	0
106	117	0	10000	4	1	0	4	0
107	118	0	10000	4	1	0	4	0
109	119	0	10000	4	1	0	4	0
113	120	0	10000	4	1	0	4	0
113	121	0	10000	4	1	0	4	0
109	122	0	10000	4	1	0	4	0
107	123	0	10000	4	1	0	4	0
108	124	0	10000	4	1	0	4	0
107	125	0	10000	4	1	0	4	0
107	126	0	10000	4	1	0	4	0
108	127	0	10000	4	1	0	4	0
111	128	0	10000	4	1	0	4	0
109	129	0	10000	4	1	0	4	0
117	130	0	10000	4	1	0	4	0
123	131	0	10000	4	1	0	4	0
122	132	0	10000	4	1	0	4	0
120	133	0	10000	4	1	0	4	0
116	134	0	10000	4	1	0	4	0
120	135	0	10000	4	1	0	4	0
128	136	0	10000	4	1	0	4	0
130	137	0	10000	4	1	0	4	0
127	138	0	10000	4	1	0	4	0
131	139	0	10000	4	1	0	4	0
129	140	0	10000	4	1	0	4	0
125	141	0	10000	4	1	0	4	0
124	142	0	10000	4	1	0	4	0
124	143	0	10000	4	1	0	4	0
121	144	0	10000	4	1	0	4	0
121	145	0	10000	4	1	0	4	0
121	146	0	10000	4	1	0	4	0
117	147	0	10000	4	1	0	4	0
114	148	0	10000	4	1	0	4	0
111	149	0	10000	4	1	0	4	0
112	150	0	10000	4	1	0	4	0
109	151	0	10000	4	1	0	4	0
107	152	0	10000	4	1	0	4	0
104	153	0	10000	4	1	0	4	0
100	154	0	10000	4	1	0	4	0
97	155	0	10000	4	1	0	4	0
98	156	0	10000	4	1	0	4	0
100	157	0	10000	4	1	0	4	0
97	158	0	10000	4	1	0	4	0
93	159	0	10000	4	1	0	4	0
98	160	0	10000	4	1	0	4	0
110	161	0	10000	4	1	0	4	0
113	162	0	10000	4	1	0	4	0
110	163	0	10000	4	1	0	4	0
110	164	0	10000	4	1	0	4	0
107	165	0	10000	4	1	0	4	0
102	166	0	10000	4	1	0	4	0
97	167	0	10000	4	1	0	4	0
98	168	0	10000	4	1	0	4	0
99	169	0	10000	4	1	0	4	0
97	170	0	10000	4	1	0	4	0
93	171	0	10000	4	1	0	4	0
91	172	0	10000	4	1	0	4	0
87	173	0	10000	4	1	0	4	0
88	174	0	10000	4	1	0	4	0
90	175	0	10000	4	1	0	4	0
93	176	0	10000	4	1	0	4	0
99	177	0	10000	4	1	0	4	0
109	178	0	10000	4	1	0	4	0
120	179	0	10000	4	1	0	4	0
128	180	0	10000	4	1	0	4	0
124	181	0	10000	4	1	0	4	0
123	182	0	10000	4	1	0	4	0
126	183	0	10000	4	1	0	4	0
123	184	0	10000	4	1	0	4	0
121	185	0	10000	4	1	0	4	0
119	186	0	10000	4	1	0	4	0
121	187	0	10000	4	1	0	4	0
124	188	0	10000	4	1	0	4	0
124	189	0	10000	4	1	0	4	0
121	190	0	10000	4	1	0	4	0
118	191	0	10000	4	1	0	4	0
114	192	0	10000	4	1	0	4	0
114	193	0	10000	4	1	0	4	0
121	194	0	10000	4	1	0	4	0
119	195	0	10000	4	1	0	4	0
119	196	0	10000	4	1	0	4	0
123	197	0	10000	4	1	0	4	0
123	198	0	10000	4	1	0	4	0
119	199	0	10000	4	1	0	4	0
122	200	0	10000	4	1	0	4	0
127	201	0	10000	4	1	0	4	0
127	202	0	10000	4	1	0	4	0
123	203	0	10000	4	1	0	4	0
124	204	0	10000	4	1	0	4	0
123	205	0	10000	4	1	0	4	0
118	206	0	10000	4	1	0	4	0
111	207	0	10000	4	1	0	4	0
108	208	0	10000	4	1	0	4	0
106	209	0	10000	4	1	0	4	0
106	210	0	10000	4	1	0	4	0
103	211	0	10000	4	1	0	4	0
111	212	0	10000	4	1	0	4	0
126	213	0	10000	4	1	0	4	0
133	214	0	10000	4	1	0	4	0
135	215	0	10000	4	1	0	4	0
133	216	0	10000	4	1	0	4	0
141	217	0	10000	4	1	0	4	0
153	218	0	10000	4	1	0	4	0
161	219	0	10000	4	1	0	4	0
164	220	0	10000	4	1	0	4	0
162	221	0	10000	4	1	0	4	0
155	222	0	10000	4	1	0	4	0
149	223	0	10000	4	1	0	4	0
149	224	0	10000	4	1	0	4	0
147	225	0	10000	4	1	0	4	0
145	226	0	10000	4	1	0	4	0
155	227	0	10000	4	1	0	4	0
162	228	0	10000	4	1	0	4	0
163	229	0	10000	4	1	0	4	0
172	230	0	10000	4	1	0	4	0
169	231	0	10000	4	1	0	4	0
180	232	0	10000	4	1	0	4	0
193	233	0	10000	4	1	0	4	0
198	234	0	10000	4	1	0	4	0
194	235	0	10000	4	1	0	4	0
188	236	0	10000	4	1	0	4	0
186	237	0	10000	4	1	0	4	0
200	238	0	10000	4	1	0	4	0
217	239	0	10000	4	1	0	4	0
216	240	0	10000	4	1	0	4	0
211	241	0	10000	4	1	0	4	0
213	242	0	10000	4	1	0	4	0
214	243	0	10000	4	1	0	4	0
220	244	0	10000	4	1	0	4	0
223	245	0	10000	4	1	0	4	0
224	246	0	10000	4	1	0	4	0
214	247	0	10000	4	1	0	4	0
208	248	0	10000	4	1	0	4	0
205	249	0	10000	4	1	0	4	0
203	250	0	10000	4	1	0	4	0
217	251	0	10000	4	1	0	4	0
233	252	0	10000	4	1	0	4	0
234	253	0	10000	4	1	0	4	0
235	254	0	10000	4	1	0	4	0
238	255	0	10000	4	1	0	4	0
246	256	0	10000	4	1	0	4	0
258	257	0	10000	4	1	0	4	0
255	258	0	10000	4	1	0	4	0
247	259	0	10000	4	1	0	4	0
254	260	0	10000	4	1	0	4	0
265	261	0	10000	4	1	0	4	0
270	262	0	10000	4	1	0	4	0
271	263	0	10000	4	1	0	4	0
275	264	0	10000	4	1	0	4	0
280	265	0	10000	4	1	0	4	0
274	266	0	10000	4	1	0	4	0
263	267	0	10000	4	1	0	4	0
260	268	0	10000	4	1	0	4	0
261	269	0	10000	4	1	0	4	0
259	270	0	10000	4	1	0	4	0
251	271	0	10000	4	1	0	4	0
244	272	0	10000	4	1	0	4	0
238	273	0	10000	4	1	0	4	0
228	274	0	10000	4	1	0	4	0
223	275	0	10000	4	1	0	4	0
218	276	0	10000	4	1	0	4	0
220	277	0	10000	4	1	0	4	0
219	278	0	10000	4	1	0	4	0
219	279	0	10000	4	1	0	4	0
226	280	0	10000	4	1	0	4	0
229	281	0	10000	4	1	0	4	0
224	282	0	10000	4	1	0	4	0
222	283	0	10000	4	1	0	4	0
215	284	0	10000	4	1	0	4	0
212	285	0	10000	4	1	0	4	0
208	286	0	10000	4	1	0	4	0
201	287	0	10000	4	1	0	4	0
194	288	0	10000	4	1	0	4	0
187	289	0	10000	4	1	0	4	0
182	290	0	10000	4	1	0	4	0
179	291	0	10000	4	1	0	4	0
172	292	0	10000	4	1	0	4	0
168	293	0	10000	4	1	0	4	0
163	294	0	10000	4	1	0	4	0
160	295	0	10000	4	1	0	4	0
156	296	0	10000	4	1	0	4	0
153	297	0	10000	4	1	0	4	0
160	298	0	10000	4	1	0	4	0
172	299	0	10000	4	1	0	4	0
177	300	0	10000	4	1	0	4	0
179	301	0	10000	4	1	0	4	0
180	302	0	10000	4	1	0	4	0
178	303	0	10000	4	1	0	4	0
175	304	0	10000	4	1	0	4	0
175	305	0	10000	4	1	0	4	0
177	306	0	10000	4	1	0	4	0
181	307	0	10000	4	1	0	4	0
184	308	0	10000	4	1	0	4	0
179	309	0	10000	4	1	0	4	0
174	310	0	10000	4	1	0	4	0
168	311	0	10000	4	1	0	4	0
169	312	0	10000	4	1	0	4	0
164	313	0	10000	4	1	0	4	0
157	314	0	10000	4	1	0	4	0
153	315	0	10000	4	1	0	4	0
147	316	0	10000	4	1	0	4	0
144	317	0	10000	4	1	0	4	0
142	318	0	10000	4	1	0	4	0
140	319	0	10000	4	1	0	4	0
143	320	0	10000	4	1	0	4	0
140	321	0	10000	4	1	0	4	0
145	322	0	10000	4	1	0	4	0
157	323	0	10000	4	1	0	4	0
156	324	0	10000	4	1	0	4	0
169	325	0	10000	4	1	0	4	0
187	326	0	10000	4	1	0	4	0
194	327	0	10000	4	1	0	4	0
192	328	0	10000	4	1	0	4	0
185	329	0	10000	4	1	0	4	0
179	330	0	10000	4	1	0	4	0
176	331	0	10000	4	1	0	4	0
176	332	0	10000	4	1	0	4	0
173	333	0	10000	4	1	0	4	0
168	334	0	10000	4	1	0	4	0
161	335	0	10000	4	1	0	4	0
155	336	0	10000	4	1	0	4	0
155	337	0	10000	4	1	0	4	0
155	338	0	10000	4	1	0	4	0
153	339	0	10000	4	1	0	4	0
149	340	0	10000	4	1	0	4	0
145	341	0	10000	4	1	0	4	0
140	342	0	10000	4	1	0	4	0
134	343	0	10000	4	1	0	4	0
129	344	0	10000	4	1	0	4	0
126	345	0	10000	4	1	0	4	0
124	346	0	10000	4	1	0	4	0
125	347	0	10000	4	1	0	4	0
132	348	0	10000	4	1	0	4	0
132	349	0	10000	4	1	0	4	0
128	350	0	10000	4	1	0	4	0
127	351	0	10000	4	1	0	4	0
128	352	0	10000	4	1	0	4	0
131	353	0	10000	4	1	0	4	0
128	354	0	10000	4	1	0	4	0
123	355	0	10000	4	1	0	4	0
120	356	0	10000	4	1	0	4	0
120	357	0	10000	4	1	0	4	0
119	358	0	10000	4	1	0	4	0
117	359	0	10000	4	1	0	4	0
114	360	0	10000	4	1	0	4	0
112	361	0	10000	4	1	0	4	0
110	362	0	10000	4	1	0	4	0
109	363	0	10000	4	1	0	4	0
111	364	0	10000	4	1	0	4	0
111	365	0	10000	4	1	0	4	0
109	366	0	10000	4	1	0	4	0
106	367	0	10000	4	1	0	4	0
108	368	0	10000	4	1	0	4	0
111	369	0	10000	4	1	0	4	0
113	370	0	10000	4	1	0	4	0
109	371	0	10000	4	1	0	4	0
105	372	0	10000	4	1	0	4	0
105	373	0	10000	4	1	0	4	0
108	374	0	10000	4	1	0	4	0
108	375	0	10000	4	1	0	4	0
110	376	0	10000	4	1	0	4	0
110	377	0	10000	4	1	0	4	0
109	378	0	10000	4	1	0	4	0
109	379	0	10000	4	1	0	4	0
104	380	0	10000	4	1	0	4	0
106	381	0	10000	4	1	0	4	0
104	382	0	10000	4	1	0	4	0
100	383	0	10000	4	1	0	4	0
98	384	0	10000	4	1	0	4	0
99	385	0	10000	4	1	0	4	0
102	386	0	10000	4	1	0	4	0
103	387	0	10000	4	1	0	4	0
104	388	0	10000	4	1	0	4	0
103	389	0	10000	4	1	0	4	0
104	390	0	10000	4	1	0	4	0
103	391	0	10000	4	1	0	4	0
103	392	0	10000	4	1	0	4	0
104	393	0	10000	4	1	0	4	0
105	394	0	10000	4	1	0	4	0
106	395	0	10000	4	1	0	4	0
106	396	0	10000	4	1	0	4	0
105	397	0	10000	4	1	0	4	0
100	398	0	10000	4	1	0	4	0
99	399	0	10000	4	1	0	4	0
98	400	0	10000	4	1	0	4	0
95	401	0	10000	4	1	0	4	0
99	402	0	10000	4	1	0	4	0
107	403	0	10000	4	1	0	4	0
113	404	0	10000	4	1	0	4	0
112	405	0	10000	4	1	0	4	0
113	406	0	10000	4	1	0	4	0
117	407	0	10000	4	1	0	4	0
118	408	0	10000	4	1	0	4	0
113	409	0	10000	4	1	0	4	0
109	410	0	10000	4	1	0	4	0
108	411	0	10000	4	1	0	4	0
106	412	0	10000	4	1	0	4	0
108	413	0	10000	4	1	0	4	0
107	414	0	10000	4	1	0	4	0
104	415	0	10000	4	1	0	4	0
101	416	0	10000	4	1	0	4	0
102	417	0	10000	4	1	0	4	0
101	418	0	10000	4	1	0	4	0
97	419	0	10000	4	1	0	4	0
95	420	0	10000	4	1	0	4	0
94	421	0	10000	4	1	0	4	0
91	422	0	10000	4	1	0	4	0
90	423	0	10000	4	1	0	4	0
92	424	0	10000	4	1	0	4	0
94	425	0	10000	4	1	0	4	0
94	426	0	10000	4	1	0	4	0
94	427	0	10000	4	1	0	4	0
96	428	0	10000	4	1	0	4	0
94	429	0	10000	4	1	0	4	0
97	430	0	10000	4	1	0	4	0
103	431	0	10000	4	1	0	4	0
103	432	0	10000	4	1	0	4	0
104	433	0	10000	4	1	0	4	0
109	434	0	10000	4	1	0	4	0
109	435	0	10000	4	1	0	4	0
114	436	0	10000	4	1	0	4	0
132	437	0	10000	4	1	0	4	0
143	438	0	10000	4	1	0	4	0
145	439	0	10000	4	1	0	4	0
143	440	0	10000	4	1	0	4	0
138	441	0	10000	4	1	0	4	0
134	442	0	10000	4	1	0	4	0
133	443	0	10000	4	1	0	4	0
131	444	0	10000	4	1	0	4	0
126	445	0	10000	4	1	0	4	0
121	446	0	10000	4	1	0	4	0
116	447	0	10000	4	1	0	4	0
116	448	0	10000	4	1	0	4	0
113	449	0	10000	4	1	0	4	0
109	450	0	10000	4	1	0	4	0
105	451	0	10000	4	1	0	4	0
105	452	0	10000	4	1	0	4	0
102	453	0	10000	4	1	0	4	0
100	454	0	10000	4	1	0	4	0
99	455	0	10000	4	1	0	4	0
96	456	0	10000	4	1	0	4	0
104	457	0	10000	4	1	0	4	0
112	458	0	10000	4	1	0	4	0
124	459	0	10000	4	1	0	4	0
132	460	0	10000	4	1	0	4	0
128	461	0	10000	4	1	0	4	0
128	462	0	10000	4	1	0	4	0
127	463	0	10000	4	1	0	4	0
127	464	0	10000	4	1	0	4	0
129	465	0	10000	4	1	0	4	0
133	466	0	10000	4	1	0	4	0
132	467	0	10000	4	1	0	4	0
128	468	0	10000	4	1	0	4	0
123	469	0	10000	4	1	0	4	0
121	470	0	10000	4	1	0	4	0
122	471	0	10000	4	1	0	4	0
122	472	0	10000	4	1	0	4	0
120	473	0	10000	4	1	0	4	0
115	474	0	10000	4	1	0	4	0
115	475	0	10000	4	1	0	4	0
117	476	0	10000	4	1	0	4	0
116	477	0	10000	4	1	0	4	0
114	478	0	10000	4	1	0	4	0
115	479	0	10000	4	1	0	4	0
127	480	0	10000	4	1	0	4	0
137	481	0	10000	4	1	0	4	0
135	482	0	10000	4	1	0	4	0
138	483	0	10000	4	1	0	4	0
138	484	0	10000	4	1	0	4	0
134	485	0	10000	4	1	0	4	0
133	486	0	10000	4	1	0	4	0
128	487	0	10000	4	1	0	4	0
126	488	0	10000	4	1	0	4	0
122	489	0	10000	4	1	0	4	0
119	490	0	10000	4	1	0	4	0
117	491	0	10000	4	1	0	4	0
116	492	0	10000	4	1	0	4	0
117	493	0	10000	4	1	0	4	0
118	494	0	10000	4	1	0	4	0
116	495	0	10000	4	1	0	4	0
111	496	0	10000	4	1	0	4	0
109	497	0	10000	4	1	0	4	0
104	498	0	10000	4	1	0	4	0
101	499	0	10000	4	1	0	4	0
99	500	0	10000	4	1	0	4	0
100	501	0	10000	4	1	0	4	1
97	502	0	10000	4	1	0	4	1
93	503	0	10000	4	1	0	4	1
95	504	0	10000	4	1	0	4	1
102	505	0	10000	4	1	0	4	1
99	506	0	10000	4	1	0	4	1
93	507	0	10000	4	1	0	4	1
95	508	0	10000	4	1	0	4	1
93	509	0	10000	4	1	0	4	1
97	510	0	10000	4	1	0	4	1
104	511	0	10000	4	1	0	4	1
104	512	0	10000	4	1	0	4	1
101	513	0	10000	4	1	0	4	1
97	514	0	10000	4	1	0	4	1
94	515	0	10000	4	1	0	4	1
96	516	0	10000	4	1	0	4	1
97	517	0	10000	4	1	0	4	1
99	518	0	10000	4	1	0	4	1
102	519	0	10000	4	1	0	4	1
102	520	0	10000	4	1	0	4	1
101	521	0	10000	4	1	0	4	1
99	522	0	10000	4	1	0	4	1
96	523	0	10000	4	1	0	4	1
95	524	0	10000	4	1	0	4	1
94	525	0	10000	4	1	0	4	1
93	526	0	10000	4	1	0	4	1
92	527	0	10000	4	1	0	4	1
95	528	0	10000	4	1	0	4	1
103	529	0	10000	4	1	0	4	1
109	530	0	10000	4	1	0	4	1
109	531	0	10000	4	1	0	4	1
108	532	0	10000	4	1	0	4	1
113	533	0	10000	4	1	0	4	1
119	534	0	10000	4	1	0	4	1
121	535	0	10000	4	1	0	4	1
118	536	0	10000	4	1	0	4	1
115	537	0	10000	4	1	0	4	1
112	538	0	10000	4	1	0	4	1
110	539	0	10000	4	1	0	4	1
110	540	0	10000	4	1	0	4	1
112	541	0	10000	4	1	0	4	1
108	542	0	10000	4	1	0	4	1
107	543	0	10000	4	1	0	4	1
110	544	0	10000	4	1	0	4	1
116	545	0	10000	4	1	0	4	1
120	546	0	10000	4	1	0	4	1
118	547	0	10000	4	1	0	4	1
117	548	0	10000	4	1	0	4	1
119	549	0	10000	4	1	0	4	1
121	550	0	10000	4	1	0	4	1
119	551	0	10000	4	1	0	4	0
118	552	0	10000	4	1	0	4	0
119	553	0	10000	4	1	0	4	0
120	554	0	10000	4	1	0	4	0
119	555	0	10000	4	1	0	4	0
115	556	0	10000	4	1	0	4	0
111	557	0	10000	4	1	0	4	0
106	558	0	10000	4	1	0	4	0
102	559	0	10000	4	1	0	4	0
103	560	0	10000	4	1	0	4	0
108	561	0	10000	4	1	0	4	0
112	562	0	10000	4	1	0	4	0
112	563	0	10000	4	1	0	4	0
113	564	0	10000	4	1	0	4	0
114	565	0	10000	4	1	0	4	0
116	566	0	10000	4	1	0	4	0
120	567	0	10000	4	1	0	4	0
123	568	0	10000	4	1	0	4	0
121	569	0	10000	4	1	0	4	0
125	570	0	10000	4	1	0	4	0
141	571	0	10000	4	1	0	4	0
151	572	0	10000	4	1	0	4	0
151	573	0	10000	4	1	0	4	0
144	574	0	10000	4	1	0	4	0
139	575	0	10000	4	1	0	4	0
135	576	0	10000	4	1	0	4	0
137	577	0	10000	4	1	0	4	0
138	578	0	10000	4	1	0	4	0
135	579	0	10000	4	1	0	4	0
131	580	0	10000	4	1	0	4	0
134	581	0	10000	4	1	0	4	0
137	582	0	10000	4	1	0	4	0
133	583	0	10000	4	1	0	4	0
131	584	0	10000	4	1	0	4	0
128	585	0	10000	4	1	0	4	0
129	586	0	10000	4	1	0	4	0
127	587	0	10000	4	1	0	4	0
125	588	0	10000	4	1	0	4	0
121	589	0	10000	4	1	0	4	0
124	590	0	10000	4	1	0	4	0
126	591	0	10000	4	1	0	4	0
122	592	0	10000	4	1	0	4	0
120	593	0	10000	4	1	0	4	0
116	594	0	10000	4	1	0	4	0
116	595	0	10000	4	1	0	4	0
132	596	0	10000	4	1	0	4	0
139	597	0	10000	4	1	0	4	0
141	598	0	10000	4	1	0	4	0
149	599	0	10000	4	1	0	4	0
159	600	0	10000	4	1	0	4	0
161	601	0	10000	4	1	0	4	0
155	602	0	10000	4	1	0	4	0
150	603	0	10000	4	1	0	4	0
148	604	0	10000	4	1	0	4	0
154	605	0	10000	4	1	0	4	0
159	606	0	10000	4	1	0	4	0
188	607	0	10000	4	1	0	4	0
213	608	0	10000	4	1	0	4	0
210	609	0	10000	4	1	0	4	0
204	610	0	10000	4	1	0	4	0
206	611	0	10000	4	1	0	4	0
215	612	0	10000	4	1	0	4	0
226	613	0	10000	4	1	0	4	0
245	614	0	10000	4	1	0	4	0
260	615	0	10000	4	1	0	4	0
260	616	0	10000	4	1	0	4	0
255	617	0	10000	4	1	0	4	0
244	618	0	10000	4	1	0	4	0
236	619	0	10000	4	1	0	4	0
239	620	0	10000	4	1	0	4	0
244	621	0	10000	4	1	0	4	0
240	622	0	10000	4	1	0	4	0
234	623	0	10000	4	1	0	4	0
229	624	0	10000	4	1	0	4	0
225	625	0	10000	4	1	0	4	0
220	626	0	10000	4	1	0	4	0
214	627	0	10000	4	1	0	4	0
212	628	0	10000	4	1	0	4	0
208	629	0	10000	4	1	0	4	0
206	630	0	10000	4	1	0	4	0
201	631	0	10000	4	1	0	4	0
197	632	0	10000	4	1	0	4	0
191	633	0	10000	4	1	0	4	0
182	634	0	10000	4	1	0	4	0
175	635	0	10000	4	1	0	4	0
171	636	0	10000	4	1	0	4	0
172	637	0	10000	4	1	0	4	0
171	638	0	10000	4	1	0	4	0
172	639	0	10000	4	1	0	4	0
171	640	0	10000	4	1	0	4	0
165	641	0	10000	4	1	0	4	0
162	642	0	10000	4	1	0	4	0
161	643	0	10000	4	1	0	4	0
159	644	0	10000	4	1	0	4	0
153	645	0	10000	4	1	0	4	0
151	646	0	10000	4	1	0	4	0
147	647	0	10000	4	1	0	4	0
146	648	0	10000	4	1	0	4	0
143	649	0	10000	4	1	0	4	0
140	650	0	10000	4	1	0	4	0
138	651	0	10000	4	1	0	4	0
139	652	0	10000	4	1	0	4	0
136	653	0	10000	4	1	0	4	0
129	654	0	10000	4	1	0	4	0
123	655	0	10000	4	1	0	4	0
118	656	0	10000	4	1	0	4	0
116	657	0	10000	4	1	0	4	0
111	658	0	10000	4	1	0	4	0
108	659	0	10000	4	1	0	4	0
103	660	0	10000	4	1	0	4	0
99	661	0	10000	4	1	0	4	0
95	662	0	10000	4	1	0	4	0
92	663	0	10000	4	1	0	4	0
92	664	0	10000	4	1	0	4	0
91	665	0	10000	4	1	0	4	0
88	666	0	10000	4	1	0	4	0
82	667	0	10000	4	1	0	4	0
83	668	0	10000	4	1	0	4	0
95	669	0	10000	4	1	0	4	0
109	670	0	10000	4	1	0	4	0
121	671	0	10000	4	1	0	4	0
125	672	0	10000	4	1	0	4	0
122	673	0	10000	4	1	0	4	0
124	674	0	10000	4	1	0	4	0
126	675	0	10000	4	1	0	4	0
128	676	0	10000	4	1	0	4	0
128	677	0	10000	4	1	0	4	0
122	678	0	10000	4	1	0	4	0
117	679	0	10000	4	1	0	4	0
114	680	0	10000	4	1	0	4	0
111	681	0	10000	4	1	0	4	0
112	682	0	10000	4	1	0	4	0
113	683	0	10000	4	1	0	4	0
110	684	0	10000	4	1	0	4	0
108	685	0	10000	4	1	0	4	0
105	686	0	10000	4	1	0	4	0
101	687	0	10000	4	1	0	4	0
98	688	0	10000	4	1	0	4	0
95	689	0	10000	4	1	0	4	0
93	690	0	10000	4	1	0	4	0
92	691	0	10000	4	1	0	4	0
91	692	0	10000	4	1	0	4	0
92	693	0	10000	4	1	0	4	0
93	694	0	10000	4	1	0	4	0
99	695	0	10000	4	1	0	4	0
97	696	0	10000	4	1	0	4	0
104	697	0	10000	4	1	0	4	0
114	698	0	10000	4	1	0	4	0
123	699	0	10000	4	1	0	4	0
126	700	0	10000	4	1	0	4	0
121	701	0	10000	4	1	0	4	0
120	702	0	10000	4	1	0	4	0
120	703	0	10000	4	1	0	4	0
118	704	0	10000	4	1	0	4	0
114	705	0	10000	4	1	0	4	0
110	706	0	10000	4	1	0	4	0
113	707	0	10000	4	1	0	4	0
124	708	0	10000	4	1	0	4	0
134	709	0	10000	4	1	0	4	0
135	710	0	10000	4	1	0	4	0
133	711	0	10000	4	1	0	4	0
134	712	0	10000	4	1	0	4	0
131	713	0	10000	4	1	0	4	0
127	714	0	10000	4	1	0	4	0
128	715	0	10000	4	1	0	4	0
125	716	0	10000	4	1	0	4	0
128	717	0	10000	4	1	0	4	0
129	718	0	10000	4	1	0	4	0
128	719	0	10000	4	1	0	4	0
122	720	0	10000	4	1	0	4	0
121	721	0	10000	4	1	0	4	0
129	722	0	10000	4	1	0	4	0
140	723	0	10000	4	1	0	4	0
139	724	0	10000	4	1	0	4	0
137	725	0	10000	4	1	0	4	0
138	726	0	10000	4	1	0	4	0
140	727	0	10000	4	1	0	4	0
145	728	0	10000	4	1	0	4	0
148	729	0	10000	4	1	0	4	0
152	730	0	10000	4	1	0	4	0
154	731	0	10000	4	1	0	4	0
149	732	0	10000	4	1	0	4	0
146	733	0	10000	4	1	0	4	0
142	734	0	10000	4	1	0	4	0
136	735	0	10000	4	1	0	4	0
133	736	0	10000	4	1	0	4	0
131	737	0	10000	4	1	0	4	0
133	738	0	10000	4	1	0	4	0
141	739	0	10000	4	1	0	4	0
153	740	0	10000	4	1	0	4	0
165	741	0	10000	4	1	0	4	0
171	742	0	10000	4	1	0	4	0
166	743	0	10000	4	1	0	4	0
164	744	0	10000	4	1	0	4	0
158	745	0	10000	4	1	0	4	0
152	746	0	10000	4	1	0	4	0
145	747	0	10000	4	1	0	4	0
140	748	0	10000	4	1	0	4	0
140	749	0	10000	4	1	0	4	0
136	750	0	10000	4	1	0	4	0
133	751	0	10000	4	1	0	4	0
128	752	0	10000	4	1	0	4	0
125	753	0	10000	4	1	0	4	0
120	754	0	10000	4	1	0	4	0
115	755	0	10000	4	1	0	4	0
110	756	0	10000	4	1	0	4	0
112	757	0	10000	4	1	0	4	0
120	758	0	10000	4	1	0	4	0
127	759	0	10000	4	1	0	4	0
125	760	0	10000	4	1	0	4	0
121	761	0	10000	4	1	0	4	0
120	762	0	10000	4	1	0	4	0
116	763	0	10000	4	1	0	4	0
115	764	0	10000	4	1	0	4	0
122	765	0	10000	4	1	0	4	0
121	766	0	10000	4	1	0	4	0
124	767	0	10000	4	1	0	4	0
132	768	0	10000	4	1	0	4	0
138	769	0	10000	4	1	0	4	0
142	770	0	10000	4	1	0	4	0
144	771	0	10000	4	1	0	4	0
140	772	0	10000	4	1	0	4	0
142	773	0	10000	4	1	0	4	0
144	774	0	10000	4	1	0	4	0
140	775	0	10000	4	1	0	4	0
136	776	0	10000	4	1	0	4	0
139	777	0	10000	4	1	0	4	0
141	778	0	10000	4	1	0	4	0
141	779	0	10000	4	1	0	4	0
142	780	0	10000	4	1	0	4	0
138	781	0	10000	4	1	0	4	0
134	782	0	10000	4	1	0	4	0
133	783	0	10000	4	1	0	4	0
133	784	0	10000	4	1	0	4	0
133	785	0	10000	4	1	0	4	0
132	786	0	10000	4	1	0	4	0
126	787	0	10000	4	1	0	4	0
122	788	0	10000	4	1	0	4	0
121	789	0	10000	4	1	0	4	0
118	790	0	10000	4	1	0	4	0
119	791	0	10000	4	1	0	4	0
127	792	0	10000	4	1	0	4	0
135	793	0	10000	4	1	0	4	0
138	794	0	10000	4	1	0	4	0
134	795	0	10000	4	1	0	4	0
137	796	0	10000	4	1	0	4	0
147	797	0	10000	4	1	0	4	0
147	798	0	10000	4	1	0	4	0
140	799	0	10000	4	1	0	4	0
134	800	0	10000	4	1	0	4	0
134	801	0	10000	4	1	0	4	0
137	802	0	10000	4	1	0	4	0
140	803	0	10000	4	1	0	4	0
143	804	0	10000	4	1	0	4	0
141	805	0	10000	4	1	0	4	0
136	806	0	10000	4	1	0	4	0
131	807	0	10000	4	1	0	4	0
132	808	0	10000	4	1	0	4	0
128	809	0	10000	4	1	0	4	0
126	810	0	10000	4	1	0	4	0
127	811	0	10000	4	1	0	4	0
128	812	0	10000	4	1	0	4	0
124	813	0	10000	4	1	0	4	0
127	814	0	10000	4	1	0	4	0
130	815	0	10000	4	1	0	4	0
128	816	0	10000	4	1	0	4	0
129	817	0	10000	4	1	0	4	0
136	818	0	10000	4	1	0	4	0
152	819	0	10000	4	1	0	4	0
162	820	0	10000	4	1	0	4	0
160	821	0	10000	4	1	0	4	0
156	822	0	10000	4	1	0	4	0
155	823	0	10000	4	1	0	4	0
155	824	0	10000	4	1	0	4	0
152	825	0	10000	4	1	0	4	0
147	826	0	10000	4	1	0	4	0
140	827	0	10000	4	1	0	4	0
139	828	0	10000	4	1	0	4	0
144	829	0	10000	4	1	0	4	0
147	830	0	10000	4	1	0	4	0
148	831	0	10000	4	1	0	4	0
149	832	0	10000	4	1	0	4	0
148	833	0	10000	4	1	0	4	0
142	834	0	10000	4	1	0	4	0
137	835	0	10000	4	1	0	4	0
133	836	0	10000	4	1	0	4	0
136	837	0	10000	4	1	0	4	0
140	838	0	10000	4	1	0	4	0
145	839	0	10000	4	1	0	4	0
150	840	0	10000	4	1	0	4	0
156	841	0	10000	4	1	0	4	0
156	842	0	10000	4	1	0	4	0
154	843	0	10000	4	1	0	4	0
154	844	0	10000	4	1	0	4	0
150	845	0	10000	4	1	0	4	0
144	846	0	10000	4	1	0	4	0
141	847	0	10000	4	1	0	4	0
144	848	0	10000	4	1	0	4	0
144	849	0	10000	4	1	0	4	0
144	850	0	10000	4	1	0	4	0
141	851	0	10000	4	1	0	4	0
140	852	0	10000	4	1	0	4	0
141	853	0	10000	4	1	0	4	0
138	854	0	10000	4	1	0	4	0
132	855	0	10000	4	1	0	4	0
134	856	0	10000	4	1	0	4	0
145	857	0	10000	4	1	0	4	0
146	858	0	10000	4	1	0	4	0
140	859	0	10000	4	1	0	4	0
135	860	0	10000	4	1	0	4	0
132	861	0	10000	4	1	0	4	0
132	862	0	10000	4	1	0	4	0
142	863	0	10000	4	1	0	4	0
148	864	0	10000	4	1	0	4	0
152	865	0	10000	4	1	0	4	0
147	866	0	10000	4	1	0	4	0
139	867	0	10000	4	1	0	4	0
140	868	0	10000	4	1	0	4	0
142	869	0	10000	4	1	0	4	0
144	870	0	10000	4	1	0	4	0
145	871	0	10000	4	1	0	4	0
143	872	0	10000	4	1	0	4	0
139	873	0	10000	4	1	0	4	0
142	874	0	10000	4	1	0	4	0
150	875	0	10000	4	1	0	4	0
159	876	0	10000	4	1	0	4	0
170	877	0	10000	4	1	0	4	0
174	878	0	10000	4	1	0	4	0
175	879	0	10000	4	1	0	4	0
173	880	0	10000	4	1	0	4	0
167	881	0	10000	4	1	0	4	0
161	882	0	10000	4	1	0	4	0
165	883	0	10000	4	1	0	4	0
176	884	0	10000	4	1	0	4	0
189	885	0	10000	4	1	0	4	0
198	886	0	10000	4	1	0	4	0
195	887	0	10000	4	1	0	4	0
189	888	0	10000	4	1	0	4	0
183	889	0	10000	4	1	0	4	0
178	890	0	10000	4	1	0	4	0
172	891	0	10000	4	1	0	4	0
164	892	0	10000	4	1	0	4	0
158	893	0	10000	4	1	0	4	0
155	894	0	10000	4	1	0	4	0
156	895	0	10000	4	1	0	4	0
157	896	0	10000	4	1	0	4	0
169	897	0	10000	4	1	0	4	0
177	898	0	10000	4	1	0	4	0
173	899	0	10000	4	1	0	4	0
169	900	0	10000	4	1	0	4	0
163	901	0	10000	4	1	0	4	0
158	902	0	10000	4	1	0	4	0
156	903	0	10000	4	1	0	4	0
150	904	0	10000	4	1	0	4	0
152	905	0	10000	4	1	0	4	0
156	906	0	10000	4	1	0	4	0
152	907	0	10000	4	1	0	4	0
145	908	0	10000	4	1	0	4	0
141	909	0	10000	4	1	0	4	0
139	910	0	10000	4	1	0	4	0
137	911	0	10000	4	1	0	4	0
136	912	0	10000	4	1	0	4	0
134	913	0	10000	4	1	0	4	0
129	914	0	10000	4	1	0	4	0
124	915	0	10000	4	1	0	4	0
122	916	0	10000	4	1	0	4	0
123	917	0	10000	4	1	0	4	0
121	918	0	10000	4	1	0	4	0
116	919	0	10000	4	1	0	4	0
111	920	0	10000	4	1	0	4	0
107	921	0	10000	4	1	0	4	0
108	922	0	10000	4	1	0	4	0
124	923	0	10000	4	1	0	4	0
133	924	0	10000	4	1	0	4	0
134	925	0	10000	4	1	0	4	0
139	926	0	10000	4	1	0	4	0
132	927	0	10000	4	1	0	4	0
128	928	0	10000	4	1	0	4	0
129	929	0	10000	4	1	0	4	0
143	930	0	10000	4	1	0	4	0
149	931	0	10000	4	1	0	4	0
146	932	0	10000	4	1	0	4	0
142	933	0	10000	4	1	0	4	0
143	934	0	10000	4	1	0	4	0
142	935	0	10000	4	1	0	4	0
149	936	0	10000	4	1	0	4	0
159	937	0	10000	4	1	0	4	0
166	938	0	10000	4	1	0	4	0
171	939	0	10000	4	1	0	4	0
166	940	0	10000	4	1	0	4	0
160	941	0	10000	4	1	0	4	0
154	942	0	10000	4	1	0	4	0
150	943	0	10000	4	1	0	4	0
148	944	0	10000	4	1	0	4	0
155	945	0	10000	4	1	0	4	0
169	946	0	10000	4	1	0	4	0
185	947	0	10000	4	1	0	4	0
206	948	0	10000	4	1	0	4	0
217	949	0	10000	4	1	0	4	0
212	950	0	10000	4	1	0	4	0
211	951	0	10000	4	1	0	4	0
217	952	0	10000	4	1	0	4	0
218	953	0	10000	4	1	0	4	0
216	954	0	10000	4	1	0	4	0
221	955	0	10000	4	1	0	4	0
222	956	0	10000	4	1	0	4	0
221	957	0	10000	4	1	0	4	0
213	958	0	10000	4	1	0	4	0
212	959	0	10000	4	1	0	4	0
213	960	0	10000	4	1	0	4	0
212	961	0	10000	4	1	0	4	0
210	962	0	10000	4	1	0	4	0
205	963	0	10000	4	1	0	4	0
204	964	0	10000	4	1	0	4	0
203	965	0	10000	4	1	0	4	0
200	966	0	10000	4	1	0	4	0
191	967	0	10000	4	1	0	4	0
184	968	0	10000	4	1	0	4	0
180	969	0	10000	4	1	0	4	0
180	970	0	10000	4	1	0	4	0
174	971	0	10000	4	1	0	4	0
166	972	0	10000	4	1	0	4	0
161	973	0	10000	4	1	0	4	0
157	974	0	10000	4	1	0	4	0
155	975	0	10000	4	1	0	4	0
156	976	0	10000	4	1	0	4	0
158	977	0	10000	4	1	0	4	0
157	978	0	10000	4	1	0	4	0
152	979	0	10000	4	1	0	4	0
150	980	0	10000	4	1	0	4	0
144	981	0	10000	4	1	0	4	0
144	982	0	10000	4	1	0	4	0
145	983	0	10000	4	1	0	4	0
142	984	0	10000	4	1	0	4	0
143	985	0	10000	4	1	0	4	0
148	986	0	10000	4	1	0	4	0
144	987	0	10000	4	1	0	4	0
141	988	0	10000	4	1	0	4	0
141	989	0	10000	4	1	0	4	0
141	990	0	10000	4	1	0	4	0
151	991	0	10000	4	1	0	4	0
162	992	0	10000	4	1	0	4	0
164	993	0	10000	4	1	0	4	0
164	994	0	10000	4	1	0	4	0
160	995	0	10000	4	1	0	4	0
164	996	0	10000	4	1	0	4	0
169	997	0	10000	4	1	0	4	0
163	998	0	10000	4	1	0	4	0
159	999	0	10000	4	1	0	4	0
154	1000	0	10000	4	1	0	4	0
110	2	0	10000	5	1	0	5	0
118	3	0	10000	5	1	0	5	0
124	4	0	10000	5	1	0	5	0
125	5	0	10000	5	1	0	5	0
121	6	0	10000	5	1	0	5	0
120	7	0	10000	5	1	0	5	0
120	8	0	10000	5	1	0	5	0
116	9	0	10000	5	1	0	5	0
116	10	0	10000	5	1	0	5	0
113	11	0	10000	5	1	0	5	0
108	12	0	10000	5	1	0	5	0
110	13	0	10000	5	1	0	5	0
111	14	0	10000	5	1	0	5	0
108	15	0	10000	5	1	0	5	0
108	16	0	10000	5	1	0	5	0
109	17	0	10000	5	1	0	5	0
113	18	0	10000	5	1	0	5	0
117	19	0	10000	5	1	0	5	0
112	20	0	10000	5	1	0	5	0
116	21	0	10000	5	1	0	5	0
122	22	0	10000	5	1	0	5	0
128	23	0	10000	5	1	0	5	0
133	24	0	10000	5	1	0	5	0
131	25	0	10000	5	1	0	5	0
127	26	0	10000	5	1	0	5	0
122	27	0	10000	5	1	0	5	0
118	28	0	10000	5	1	0	5	0
116	29	0	10000	5	1	0	5	0
119	30	0	10000	5	1	0	5	0
122	31	0	10000	5	1	0	5	0
124	32	0	10000	5	1	0	5	0
122	33	0	10000	5	1	0	5	0
117	34	0	10000	5	1	0	5	0
114	35	0	10000	5	1	0	5	0
109	36	0	10000	5	1	0	5	0
105	37	0	10000	5	1	0	5	0
104	38	0	10000	5	1	0	5	0
105	39	0	10000	5	1	0	5	0
100	40	0	10000	5	1	0	5	0
98	41	0	10000	5	1	0	5	0
96	42	0	10000	5	1	0	5	0
95	43	0	10000	5	1	0	5	0
92	44	0	10000	5	1	0	5	0
90	45	0	10000	5	1	0	5	0
90	46	0	10000	5	1	0	5	0
90	47	0	10000	5	1	0	5	0
88	48	0	10000	5	1	0	5	0
92	49	0	10000	5	1	0	5	0
93	50	0	10000	5	1	0	5	0
90	51	0	10000	5	1	0	5	0
91	52	0	10000	5	1	0	5	0
90	53	0	10000	5	1	0	5	0
89	54	0	10000	5	1	0	5	0
89	55	0	10000	5	1	0	5	0
88	56	0	10000	5	1	0	5	0
84	57	0	10000	5	1	0	5	0
83	58	0	10000	5	1	0	5	0
87	59	0	10000	5	1	0	5	0
88	60	0	10000	5	1	0	5	0
87	61	0	10000	5	1	0	5	0
94	62	0	10000	5	1	0	5	0
104	63	0	10000	5	1	0	5	0
112	64	0	10000	5	1	0	5	0
116	65	0	10000	5	1	0	5	0
118	66	0	10000	5	1	0	5	0
120	67	0	10000	5	1	0	5	0
120	68	0	10000	5	1	0	5	0
117	69	0	10000	5	1	0	5	0
123	70	0	10000	5	1	0	5	0
126	71	0	10000	5	1	0	5	0
128	72	0	10000	5	1	0	5	0
127	73	0	10000	5	1	0	5	0
124	74	0	10000	5	1	0	5	0
121	75	0	10000	5	1	0	5	0
116	76	0	10000	5	1	0	5	0
112	77	0	10000	5	1	0	5	0
107	78	0	10000	5	1	0	5	0
108	79	0	10000	5	1	0	5	0
106	80	0	10000	5	1	0	5	0
104	81	0	10000	5	1	0	5	0
101	82	0	10000	5	1	0	5	0
99	83	0	10000	5	1	0	5	0
98	84	0	10000	5	1	0	5	0
97	85	0	10000	5	1	0	5	0
94	86	0	10000	5	1	0	5	0
92	87	0	10000	5	1	0	5	0
94	88	0	10000	5	1	0	5	0
100	89	0	10000	5	1	0	5	0
105	90	0	10000	5	1	0	5	0
101	91	0	10000	5	1	0	5	0
99	92	0	10000	5	1	0	5	0
97	93	0	10000	5	1	0	5	0
101	94	0	10000	5	1	0	5	0
103	95	0	10000	5	1	0	5	0
104	96	0	10000	5	1	0	5	0
112	97	0	10000	5	1	0	5	0
118	98	0	10000	5	1	0	5	0
117	99	0	10000	5	1	0	5	0
110	100	0	10000	5	1	0	5	0
108	101	0	10000	5	1	0	5	0
107	102	0	10000	5	1	0	5	0
112	103	0	10000	5	1	0	5	0
116	104	0	10000	5	1	0	5	0
115	105	0	10000	5	1	0	5	0
115	106	0	10000	5	1	0	5	0
114	107	0	10000	5	1	0	5	0
110	108	0	10000	5	1	0	5	0
107	109	0	10000	5	1	0	5	0
107	110	0	10000	5	1	0	5	0
108	111	0	10000	5	1	0	5	0
110	112	0	10000	5	1	0	5	0
113	113	0	10000	5	1	0	5	0
117	114	0	10000	5	1	0	5	0
115	115	0	10000	5	1	0	5	0
111	116	0	10000	5	1	0	5	0
107	117	0	10000	5	1	0	5	0
103	118	0	10000	5	1	0	5	0
103	119	0	10000	5	1	0	5	0
104	120	0	10000	5	1	0	5	0
101	121	0	10000	5	1	0	5	0
99	122	0	10000	5	1	0	5	0
99	123	0	10000	5	1	0	5	0
96	124	0	10000	5	1	0	5	0
97	125	0	10000	5	1	0	5	0
108	126	0	10000	5	1	0	5	0
125	127	0	10000	5	1	0	5	0
139	128	0	10000	5	1	0	5	0
148	129	0	10000	5	1	0	5	0
154	130	0	10000	5	1	0	5	0
151	131	0	10000	5	1	0	5	0
148	132	0	10000	5	1	0	5	0
149	133	0	10000	5	1	0	5	0
149	134	0	10000	5	1	0	5	0
146	135	0	10000	5	1	0	5	0
147	136	0	10000	5	1	0	5	0
152	137	0	10000	5	1	0	5	0
153	138	0	10000	5	1	0	5	0
149	139	0	10000	5	1	0	5	0
142	140	0	10000	5	1	0	5	0
139	141	0	10000	5	1	0	5	0
136	142	0	10000	5	1	0	5	0
131	143	0	10000	5	1	0	5	0
130	144	0	10000	5	1	0	5	0
130	145	0	10000	5	1	0	5	0
131	146	0	10000	5	1	0	5	0
133	147	0	10000	5	1	0	5	0
134	148	0	10000	5	1	0	5	0
128	149	0	10000	5	1	0	5	0
127	150	0	10000	5	1	0	5	0
128	151	0	10000	5	1	0	5	0
130	152	0	10000	5	1	0	5	0
130	153	0	10000	5	1	0	5	0
131	154	0	10000	5	1	0	5	0
132	155	0	10000	5	1	0	5	0
129	156	0	10000	5	1	0	5	0
126	157	0	10000	5	1	0	5	0
125	158	0	10000	5	1	0	5	0
126	159	0	10000	5	1	0	5	0
132	160	0	10000	5	1	0	5	0
135	161	0	10000	5	1	0	5	0
130	162	0	10000	5	1	0	5	0
126	163	0	10000	5	1	0	5	0
121	164	0	10000	5	1	0	5	0
118	165	0	10000	5	1	0	5	0
114	166	0	10000	5	1	0	5	0
111	167	0	10000	5	1	0	5	0
107	168	0	10000	5	1	0	5	0
105	169	0	10000	5	1	0	5	0
107	170	0	10000	5	1	0	5	0
108	171	0	10000	5	1	0	5	0
110	172	0	10000	5	1	0	5	0
110	173	0	10000	5	1	0	5	0
114	174	0	10000	5	1	0	5	0
121	175	0	10000	5	1	0	5	0
126	176	0	10000	5	1	0	5	0
123	177	0	10000	5	1	0	5	0
122	178	0	10000	5	1	0	5	0
123	179	0	10000	5	1	0	5	0
126	180	0	10000	5	1	0	5	0
132	181	0	10000	5	1	0	5	0
140	182	0	10000	5	1	0	5	0
147	183	0	10000	5	1	0	5	0
142	184	0	10000	5	1	0	5	0
138	185	0	10000	5	1	0	5	0
139	186	0	10000	5	1	0	5	0
144	187	0	10000	5	1	0	5	0
150	188	0	10000	5	1	0	5	0
146	189	0	10000	5	1	0	5	0
145	190	0	10000	5	1	0	5	0
139	191	0	10000	5	1	0	5	0
132	192	0	10000	5	1	0	5	0
128	193	0	10000	5	1	0	5	0
123	194	0	10000	5	1	0	5	0
118	195	0	10000	5	1	0	5	0
115	196	0	10000	5	1	0	5	0
113	197	0	10000	5	1	0	5	0
112	198	0	10000	5	1	0	5	0
111	199	0	10000	5	1	0	5	0
107	200	0	10000	5	1	0	5	0
104	201	0	10000	5	1	0	5	0
106	202	0	10000	5	1	0	5	0
105	203	0	10000	5	1	0	5	0
101	204	0	10000	5	1	0	5	0
99	205	0	10000	5	1	0	5	0
104	206	0	10000	5	1	0	5	0
121	207	0	10000	5	1	0	5	0
137	208	0	10000	5	1	0	5	0
143	209	0	10000	5	1	0	5	0
142	210	0	10000	5	1	0	5	0
142	211	0	10000	5	1	0	5	0
141	212	0	10000	5	1	0	5	0
145	213	0	10000	5	1	0	5	0
152	214	0	10000	5	1	0	5	0
158	215	0	10000	5	1	0	5	0
160	216	0	10000	5	1	0	5	0
159	217	0	10000	5	1	0	5	0
157	218	0	10000	5	1	0	5	0
161	219	0	10000	5	1	0	5	0
161	220	0	10000	5	1	0	5	0
156	221	0	10000	5	1	0	5	0
150	222	0	10000	5	1	0	5	0
143	223	0	10000	5	1	0	5	0
138	224	0	10000	5	1	0	5	0
132	225	0	10000	5	1	0	5	0
130	226	0	10000	5	1	0	5	0
129	227	0	10000	5	1	0	5	0
127	228	0	10000	5	1	0	5	0
125	229	0	10000	5	1	0	5	0
124	230	0	10000	5	1	0	5	0
126	231	0	10000	5	1	0	5	0
131	231	0	10000	5	1	0	5	0
140	232	0	10000	5	1	0	5	0
147	234	0	10000	5	1	0	5	0
157	235	0	10000	5	1	0	5	0
166	236	0	10000	5	1	0	5	0
166	237	0	10000	5	1	0	5	0
166	238	0	10000	5	1	0	5	0
175	239	0	10000	5	1	0	5	0
186	240	0	10000	5	1	0	5	0
196	241	0	10000	5	1	0	5	0
199	241	0	10000	5	1	0	5	0
194	242	0	10000	5	1	0	5	0
187	244	0	10000	5	1	0	5	0
178	245	0	10000	5	1	0	5	0
173	246	0	10000	5	1	0	5	0
168	247	0	10000	5	1	0	5	0
165	248	0	10000	5	1	0	5	0
164	249	0	10000	5	1	0	5	0
165	250	0	10000	5	1	0	5	0
161	251	0	10000	5	1	0	5	0
154	251	0	10000	5	1	0	5	0
152	252	0	10000	5	1	0	5	0
150	254	0	10000	5	1	0	5	0
146	255	0	10000	5	1	0	5	0
144	256	0	10000	5	1	0	5	0
149	257	0	10000	5	1	0	5	0
152	258	0	10000	5	1	0	5	0
154	259	0	10000	5	1	0	5	0
147	260	0	10000	5	1	0	5	0
141	261	0	10000	5	1	0	5	0
135	261	0	10000	5	1	0	5	0
130	262	0	10000	5	1	0	5	0
128	264	0	10000	5	1	0	5	0
129	265	0	10000	5	1	0	5	0
130	266	0	10000	5	1	0	5	0
128	267	0	10000	5	1	0	5	0
124	268	0	10000	5	1	0	5	0
121	269	0	10000	5	1	0	5	0
119	270	0	10000	5	1	0	5	0
113	271	0	10000	5	1	0	5	0
109	271	0	10000	5	1	0	5	0
106	272	0	10000	5	1	0	5	0
110	274	0	10000	5	1	0	5	0
112	275	0	10000	5	1	0	5	0
110	276	0	10000	5	1	0	5	0
106	277	0	10000	5	1	0	5	0
104	278	0	10000	5	1	0	5	0
101	279	0	10000	5	1	0	5	0
94	280	0	10000	5	1	0	5	0
92	281	0	10000	5	1	0	5	0
92	281	0	10000	5	1	0	5	0
95	282	0	10000	5	1	0	5	0
101	284	0	10000	5	1	0	5	0
109	285	0	10000	5	1	0	5	0
116	286	0	10000	5	1	0	5	0
116	287	0	10000	5	1	0	5	0
115	288	0	10000	5	1	0	5	0
118	289	0	10000	5	1	0	5	0
117	290	0	10000	5	1	0	5	0
114	291	0	10000	5	1	0	5	0
109	291	0	10000	5	1	0	5	0
106	292	0	10000	5	1	0	5	0
102	294	0	10000	5	1	0	5	0
98	295	0	10000	5	1	0	5	0
99	296	0	10000	5	1	0	5	0
105	297	0	10000	5	1	0	5	0
113	298	0	10000	5	1	0	5	0
115	299	0	10000	5	1	0	5	0
110	300	0	10000	5	1	0	5	0
110	301	0	10000	5	1	0	5	0
108	301	0	10000	5	1	0	5	0
107	302	0	10000	5	1	0	5	0
107	304	0	10000	5	1	0	5	0
106	305	0	10000	5	1	0	5	0
103	306	0	10000	5	1	0	5	0
100	307	0	10000	5	1	0	5	0
95	308	0	10000	5	1	0	5	0
95	309	0	10000	5	1	0	5	0
103	310	0	10000	5	1	0	5	0
109	311	0	10000	5	1	0	5	0
112	311	0	10000	5	1	0	5	0
112	312	0	10000	5	1	0	5	0
110	314	0	10000	5	1	0	5	0
109	315	0	10000	5	1	0	5	0
105	316	0	10000	5	1	0	5	0
108	317	0	10000	5	1	0	5	0
116	318	0	10000	5	1	0	5	0
126	319	0	10000	5	1	0	5	0
123	320	0	10000	5	1	0	5	0
124	321	0	10000	5	1	0	5	0
124	321	0	10000	5	1	0	5	0
119	322	0	10000	5	1	0	5	0
119	324	0	10000	5	1	0	5	0
123	325	0	10000	5	1	0	5	0
126	326	0	10000	5	1	0	5	0
122	327	0	10000	5	1	0	5	0
118	328	0	10000	5	1	0	5	0
112	329	0	10000	5	1	0	5	0
114	330	0	10000	5	1	0	5	0
112	331	0	10000	5	1	0	5	0
106	331	0	10000	5	1	0	5	0
105	332	0	10000	5	1	0	5	0
102	334	0	10000	5	1	0	5	0
100	335	0	10000	5	1	0	5	0
96	336	0	10000	5	1	0	5	0
95	337	0	10000	5	1	0	5	0
92	338	0	10000	5	1	0	5	0
88	339	0	10000	5	1	0	5	0
83	340	0	10000	5	1	0	5	0
80	341	0	10000	5	1	0	5	0
81	341	0	10000	5	1	0	5	0
90	342	0	10000	5	1	0	5	0
104	344	0	10000	5	1	0	5	0
110	345	0	10000	5	1	0	5	0
108	346	0	10000	5	1	0	5	0
111	347	0	10000	5	1	0	5	0
118	348	0	10000	5	1	0	5	0
124	349	0	10000	5	1	0	5	0
123	350	0	10000	5	1	0	5	0
121	351	0	10000	5	1	0	5	0
120	351	0	10000	5	1	0	5	0
119	352	0	10000	5	1	0	5	0
123	354	0	10000	5	1	0	5	0
120	355	0	10000	5	1	0	5	0
122	356	0	10000	5	1	0	5	0
129	357	0	10000	5	1	0	5	0
135	358	0	10000	5	1	0	5	0
142	359	0	10000	5	1	0	5	0
140	360	0	10000	5	1	0	5	0
139	361	0	10000	5	1	0	5	0
135	361	0	10000	5	1	0	5	0
137	362	0	10000	5	1	0	5	0
142	364	0	10000	5	1	0	5	0
141	365	0	10000	5	1	0	5	0
138	366	0	10000	5	1	0	5	0
134	367	0	10000	5	1	0	5	0
135	368	0	10000	5	1	0	5	0
137	369	0	10000	5	1	0	5	0
141	370	0	10000	5	1	0	5	0
136	371	0	10000	5	1	0	5	0
135	371	0	10000	5	1	0	5	0
132	372	0	10000	5	1	0	5	0
130	374	0	10000	5	1	0	5	0
127	375	0	10000	5	1	0	5	0
129	376	0	10000	5	1	0	5	0
138	377	0	10000	5	1	0	5	0
140	378	0	10000	5	1	0	5	0
135	379	0	10000	5	1	0	5	0
127	380	0	10000	5	1	0	5	0
122	381	0	10000	5	1	0	5	0
121	381	0	10000	5	1	0	5	0
124	382	0	10000	5	1	0	5	0
120	384	0	10000	5	1	0	5	0
117	385	0	10000	5	1	0	5	0
114	386	0	10000	5	1	0	5	0
114	387	0	10000	5	1	0	5	0
119	388	0	10000	5	1	0	5	0
119	389	0	10000	5	1	0	5	0
116	390	0	10000	5	1	0	5	0
113	391	0	10000	5	1	0	5	0
111	391	0	10000	5	1	0	5	0
108	392	0	10000	5	1	0	5	0
105	394	0	10000	5	1	0	5	0
101	395	0	10000	5	1	0	5	0
98	396	0	10000	5	1	0	5	0
97	397	0	10000	5	1	0	5	0
94	398	0	10000	5	1	0	5	0
96	399	0	10000	5	1	0	5	0
95	400	0	10000	5	1	0	5	0
94	401	0	10000	5	1	0	5	0
103	401	0	10000	5	1	0	5	0
113	402	0	10000	5	1	0	5	0
124	404	0	10000	5	1	0	5	0
125	405	0	10000	5	1	0	5	0
121	406	0	10000	5	1	0	5	0
118	407	0	10000	5	1	0	5	0
114	408	0	10000	5	1	0	5	0
112	409	0	10000	5	1	0	5	0
114	410	0	10000	5	1	0	5	0
113	411	0	10000	5	1	0	5	0
112	411	0	10000	5	1	0	5	0
121	412	0	10000	5	1	0	5	0
126	414	0	10000	5	1	0	5	0
125	415	0	10000	5	1	0	5	0
123	416	0	10000	5	1	0	5	0
118	417	0	10000	5	1	0	5	0
117	418	0	10000	5	1	0	5	0
114	419	0	10000	5	1	0	5	0
111	420	0	10000	5	1	0	5	0
113	421	0	10000	5	1	0	5	0
112	421	0	10000	5	1	0	5	0
117	422	0	10000	5	1	0	5	0
117	424	0	10000	5	1	0	5	0
116	425	0	10000	5	1	0	5	0
114	426	0	10000	5	1	0	5	0
113	427	0	10000	5	1	0	5	0
111	428	0	10000	5	1	0	5	0
107	429	0	10000	5	1	0	5	0
108	430	0	10000	5	1	0	5	0
105	431	0	10000	5	1	0	5	0
103	431	0	10000	5	1	0	5	0
101	432	0	10000	5	1	0	5	0
100	434	0	10000	5	1	0	5	0
100	435	0	10000	5	1	0	5	0
96	436	0	10000	5	1	0	5	0
94	437	0	10000	5	1	0	5	0
93	438	0	10000	5	1	0	5	0
95	439	0	10000	5	1	0	5	0
97	440	0	10000	5	1	0	5	0
98	441	0	10000	5	1	0	5	0
95	441	0	10000	5	1	0	5	0
99	442	0	10000	5	1	0	5	0
103	444	0	10000	5	1	0	5	0
102	445	0	10000	5	1	0	5	0
96	446	0	10000	5	1	0	5	0
93	447	0	10000	5	1	0	5	0
91	448	0	10000	5	1	0	5	0
96	449	0	10000	5	1	0	5	0
105	450	0	10000	5	1	0	5	0
113	451	0	10000	5	1	0	5	0
119	451	0	10000	5	1	0	5	0
121	452	0	10000	5	1	0	5	0
117	454	0	10000	5	1	0	5	0
112	455	0	10000	5	1	0	5	0
108	456	0	10000	5	1	0	5	0
105	457	0	10000	5	1	0	5	0
103	458	0	10000	5	1	0	5	0
104	459	0	10000	5	1	0	5	0
103	460	0	10000	5	1	0	5	0
98	461	0	10000	5	1	0	5	0
101	461	0	10000	5	1	0	5	0
108	462	0	10000	5	1	0	5	0
115	464	0	10000	5	1	0	5	0
118	465	0	10000	5	1	0	5	0
116	466	0	10000	5	1	0	5	0
118	467	0	10000	5	1	0	5	0
120	468	0	10000	5	1	0	5	0
117	469	0	10000	5	1	0	5	0
115	470	0	10000	5	1	0	5	0
112	471	0	10000	5	1	0	5	0
114	471	0	10000	5	1	0	5	0
118	472	0	10000	5	1	0	5	0
118	474	0	10000	5	1	0	5	0
116	475	0	10000	5	1	0	5	0
123	476	0	10000	5	1	0	5	0
138	477	0	10000	5	1	0	5	0
147	478	0	10000	5	1	0	5	0
146	479	0	10000	5	1	0	5	0
148	480	0	10000	5	1	0	5	0
156	481	0	10000	5	1	0	5	0
163	481	0	10000	5	1	0	5	0
166	482	0	10000	5	1	0	5	0
165	484	0	10000	5	1	0	5	0
160	485	0	10000	5	1	0	5	0
158	486	0	10000	5	1	0	5	0
163	487	0	10000	5	1	0	5	0
167	488	0	10000	5	1	0	5	0
162	489	0	10000	5	1	0	5	0
166	490	0	10000	5	1	0	5	0
168	491	0	10000	5	1	0	5	0
164	491	0	10000	5	1	0	5	0
161	492	0	10000	5	1	0	5	0
155	494	0	10000	5	1	0	5	0
150	495	0	10000	5	1	0	5	0
147	496	0	10000	5	1	0	5	0
148	497	0	10000	5	1	0	5	0
152	498	0	10000	5	1	0	5	0
150	499	0	10000	5	1	0	5	0
142	500	0	10000	5	1	0	5	0
141	501	0	10000	5	1	0	5	0
140	502	0	10000	5	1	0	5	1
136	503	0	10000	5	1	0	5	1
134	504	0	10000	5	1	0	5	1
131	505	0	10000	5	1	0	5	1
136	506	0	10000	5	1	0	5	1
144	507	0	10000	5	1	0	5	1
146	508	0	10000	5	1	0	5	1
141	509	0	10000	5	1	0	5	1
140	510	0	10000	5	1	0	5	1
136	511	0	10000	5	1	0	5	1
135	511	0	10000	5	1	0	5	1
135	512	0	10000	5	1	0	5	1
137	514	0	10000	5	1	0	5	1
139	515	0	10000	5	1	0	5	1
138	516	0	10000	5	1	0	5	1
136	517	0	10000	5	1	0	5	1
135	518	0	10000	5	1	0	5	1
137	519	0	10000	5	1	0	5	1
134	520	0	10000	5	1	0	5	1
134	521	0	10000	5	1	0	5	1
131	521	0	10000	5	1	0	5	1
128	522	0	10000	5	1	0	5	1
126	524	0	10000	5	1	0	5	1
127	525	0	10000	5	1	0	5	1
132	526	0	10000	5	1	0	5	1
137	527	0	10000	5	1	0	5	1
138	528	0	10000	5	1	0	5	1
133	529	0	10000	5	1	0	5	1
132	530	0	10000	5	1	0	5	1
128	531	0	10000	5	1	0	5	1
126	531	0	10000	5	1	0	5	1
128	532	0	10000	5	1	0	5	1
128	534	0	10000	5	1	0	5	1
137	535	0	10000	5	1	0	5	1
144	536	0	10000	5	1	0	5	1
141	537	0	10000	5	1	0	5	1
140	538	0	10000	5	1	0	5	1
140	539	0	10000	5	1	0	5	1
134	540	0	10000	5	1	0	5	1
128	541	0	10000	5	1	0	5	1
123	541	0	10000	5	1	0	5	1
120	542	0	10000	5	1	0	5	1
120	544	0	10000	5	1	0	5	1
122	545	0	10000	5	1	0	5	1
118	546	0	10000	5	1	0	5	1
114	547	0	10000	5	1	0	5	1
109	548	0	10000	5	1	0	5	1
105	549	0	10000	5	1	0	5	1
106	550	0	10000	5	1	0	5	1
108	551	0	10000	5	1	0	5	1
106	551	0	10000	5	1	0	5	0
104	552	0	10000	5	1	0	5	0
103	554	0	10000	5	1	0	5	0
99	555	0	10000	5	1	0	5	0
99	556	0	10000	5	1	0	5	0
103	557	0	10000	5	1	0	5	0
105	558	0	10000	5	1	0	5	0
102	559	0	10000	5	1	0	5	0
98	560	0	10000	5	1	0	5	0
101	561	0	10000	5	1	0	5	0
101	561	0	10000	5	1	0	5	0
98	562	0	10000	5	1	0	5	0
99	564	0	10000	5	1	0	5	0
102	565	0	10000	5	1	0	5	0
104	566	0	10000	5	1	0	5	0
112	567	0	10000	5	1	0	5	0
128	568	0	10000	5	1	0	5	0
139	569	0	10000	5	1	0	5	0
139	570	0	10000	5	1	0	5	0
135	571	0	10000	5	1	0	5	0
136	571	0	10000	5	1	0	5	0
140	572	0	10000	5	1	0	5	0
143	574	0	10000	5	1	0	5	0
148	575	0	10000	5	1	0	5	0
152	576	0	10000	5	1	0	5	0
148	577	0	10000	5	1	0	5	0
145	578	0	10000	5	1	0	5	0
143	579	0	10000	5	1	0	5	0
139	580	0	10000	5	1	0	5	0
133	581	0	10000	5	1	0	5	0
131	581	0	10000	5	1	0	5	0
129	582	0	10000	5	1	0	5	0
129	584	0	10000	5	1	0	5	0
128	585	0	10000	5	1	0	5	0
124	586	0	10000	5	1	0	5	0
120	587	0	10000	5	1	0	5	0
121	588	0	10000	5	1	0	5	0
121	589	0	10000	5	1	0	5	0
122	590	0	10000	5	1	0	5	0
121	591	0	10000	5	1	0	5	0
119	591	0	10000	5	1	0	5	0
117	592	0	10000	5	1	0	5	0
116	594	0	10000	5	1	0	5	0
113	595	0	10000	5	1	0	5	0
117	596	0	10000	5	1	0	5	0
131	597	0	10000	5	1	0	5	0
139	598	0	10000	5	1	0	5	0
135	599	0	10000	5	1	0	5	0
129	600	0	10000	5	1	0	5	0
133	601	0	10000	5	1	0	5	0
135	601	0	10000	5	1	0	5	0
134	602	0	10000	5	1	0	5	0
143	604	0	10000	5	1	0	5	0
146	605	0	10000	5	1	0	5	0
142	606	0	10000	5	1	0	5	0
139	607	0	10000	5	1	0	5	0
138	608	0	10000	5	1	0	5	0
141	609	0	10000	5	1	0	5	0
140	610	0	10000	5	1	0	5	0
140	611	0	10000	5	1	0	5	0
143	611	0	10000	5	1	0	5	0
143	612	0	10000	5	1	0	5	0
158	614	0	10000	5	1	0	5	0
169	615	0	10000	5	1	0	5	0
175	616	0	10000	5	1	0	5	0
177	617	0	10000	5	1	0	5	0
172	618	0	10000	5	1	0	5	0
171	619	0	10000	5	1	0	5	0
164	620	0	10000	5	1	0	5	0
164	621	0	10000	5	1	0	5	0
166	621	0	10000	5	1	0	5	0
169	622	0	10000	5	1	0	5	0
178	624	0	10000	5	1	0	5	0
176	625	0	10000	5	1	0	5	0
175	626	0	10000	5	1	0	5	0
